9814	-0.0001	0.0002	0.00014	9e-05	-3e-05	0.00028	-0.00032	-0.00028	3
9815	-0.0001	0.0002	0.00014	9e-05	-3e-05	0.00028	-0.00032	-0.00028	3
9816	-0.0001	0.0002	0.00014	9e-05	-3e-05	0.00028	-0.00032	-0.00028	3
9817	-0.00068	-0.00036	-4e-05	0.00026	0.00087	0.00051	0.00051	4e-05	3
9818	-0.00054	-0.0001	-4e-05	6e-05	0.00022	-0.00029	-0.00053	-0.0007	3
9819	-0.00054	-0.0001	-4e-05	6e-05	0.00022	-0.00029	-0.00053	-0.0007	3
9820	-0.00054	-0.0001	-4e-05	6e-05	0.00022	-0.00029	-0.00053	-0.0007	3
9821	-0.00054	-0.0001	-4e-05	6e-05	0.00022	-0.00029	-0.00053	-0.0007	3
9822	-0.00054	-0.0001	-4e-05	6e-05	0.00022	-0.00029	-0.00053	-0.0007	3
9823	-0.00054	-0.0001	-4e-05	6e-05	0.00022	-0.00029	-0.00053	-0.0007	3
9824	-0.00054	-0.0001	-4e-05	6e-05	0.00022	-0.00029	-0.00053	-0.0007	3
9825	-0.00054	-0.0001	-4e-05	6e-05	0.00022	-0.00029	-0.00053	-0.0007	3
9826	-0.00054	-0.0001	-4e-05	6e-05	0.00022	-0.00029	-0.00053	-0.0007	3
9827	-0.00054	-0.0001	-4e-05	6e-05	0.00022	-0.00029	-0.00053	-0.0007	3
9828	-0.00054	-0.0001	-4e-05	6e-05	0.00022	-0.00029	-0.00053	-0.0007	3
9829	-0.00054	-0.0001	-4e-05	6e-05	0.00022	-0.00029	-0.00053	-0.0007	3
9830	-0.00054	-0.0001	-4e-05	6e-05	0.00022	-0.00029	-0.00053	-0.0007	3
9831	-0.00054	-0.0001	-4e-05	6e-05	0.00022	-0.00029	-0.00053	-0.0007	3
9832	-0.0004	2e-05	3e-05	5e-05	0.00034	0.00093	-0.00016	-0.00069	3
9833	-0.00068	-0.00015	-0.00015	-0.00022	-0.00066	-0.00073	-0.00038	0.00085	3
9834	-0.00068	-0.00015	-0.00015	-0.00022	-0.00066	-0.00073	-0.00038	0.00085	3
9835	-0.00068	-0.00015	-0.00015	-0.00022	-0.00066	-0.00073	-0.00038	0.00085	3
9836	-0.00068	-0.00015	-0.00015	-0.00022	-0.00066	-0.00073	-0.00038	0.00085	3
9838	-0.00068	-0.00015	-0.00015	-0.00022	-0.00066	-0.00073	-0.00038	0.00085	3
9839	-0.00068	-0.00015	-0.00015	-0.00022	-0.00066	-0.00073	-0.00038	0.00085	3
9840	-0.00068	-0.00015	-0.00015	-0.00022	-0.00066	-0.00073	-0.00038	0.00085	3
9841	-0.00068	-0.00015	-0.00015	-0.00022	-0.00066	-0.00073	-0.00038	0.00085	3
9842	-0.00068	-0.00015	-0.00015	-0.00022	-0.00066	-0.00073	-0.00038	0.00085	3
9843	-0.00068	-0.00015	-0.00015	-0.00022	-0.00066	-0.00073	-0.00038	0.00085	3
9844	-0.00068	-0.00015	-0.00015	-0.00022	-0.00066	-0.00073	-0.00038	0.00085	3
9845	-0.00068	-0.00015	-0.00015	-0.00022	-0.00066	-0.00073	-0.00038	0.00085	3
9846	-0.00068	-0.00015	-0.00015	-0.00022	-0.00066	-0.00073	-0.00038	0.00085	3
9847	-0.00068	-0.00015	-0.00015	-0.00022	-0.00066	-0.00073	-0.00038	0.00085	3
9848	-0.00068	-0.00015	-0.00015	-0.00022	-0.00066	-0.00073	-0.00038	0.00085	3
9849	-0.00068	-0.00015	-0.00015	-0.00022	-0.00066	-0.00073	-0.00038	0.00085	3
9850	-0.00068	-0.00015	-0.00015	-0.00022	-0.00066	-0.00073	-0.00038	0.00085	3
9851	-0.00068	-0.00015	-0.00015	-0.00022	-0.00066	-0.00073	-0.00038	0.00085	3
9852	-0.00068	-0.00015	-0.00015	-0.00022	-0.00066	-0.00073	-0.00038	0.00085	3
9853	-0.00068	-0.00015	-0.00015	-0.00022	-0.00066	-0.00073	-0.00038	0.00085	3
9854	-0.00068	-0.00015	-0.00015	-0.00022	-0.00066	-0.00073	-0.00038	0.00085	3
9855	0.0006	0.0003	0.0002	0.00017	-1e-05	-0.00019	-5e-05	-0.00024	3
9856	-0.00014	9e-05	-9e-05	-0.0001	-0.00028	-0.00025	-0.00015	-5e-05	3
9857	-0.00014	9e-05	-9e-05	-0.0001	-0.00028	-0.00025	-0.00015	-5e-05	3
9858	-0.00014	9e-05	-9e-05	-0.0001	-0.00028	-0.00025	-0.00015	-5e-05	3
9859	-0.00014	9e-05	-9e-05	-0.0001	-0.00028	-0.00025	-0.00015	-5e-05	3
9860	-0.00014	9e-05	-9e-05	-0.0001	-0.00028	-0.00025	-0.00015	-5e-05	3
9861	-0.00014	9e-05	-9e-05	-0.0001	-0.00028	-0.00025	-0.00015	-5e-05	3
9862	-0.00014	9e-05	-9e-05	-0.0001	-0.00028	-0.00025	-0.00015	-5e-05	3
9863	-0.00014	9e-05	-9e-05	-0.0001	-0.00028	-0.00025	-0.00015	-5e-05	3
9864	-0.00014	9e-05	-9e-05	-0.0001	-0.00028	-0.00025	-0.00015	-5e-05	3
9865	-0.00014	9e-05	-9e-05	-0.0001	-0.00028	-0.00025	-0.00015	-5e-05	3
9866	-0.00014	9e-05	-9e-05	-0.0001	-0.00028	-0.00025	-0.00015	-5e-05	3
9867	-0.00014	9e-05	-9e-05	-0.0001	-0.00028	-0.00025	-0.00015	-5e-05	3
9868	-0.00014	9e-05	-9e-05	-0.0001	-0.00028	-0.00025	-0.00015	-5e-05	3
9869	-0.00014	9e-05	-9e-05	-0.0001	-0.00028	-0.00025	-0.00015	-5e-05	3
9870	-0.00014	9e-05	-9e-05	-0.0001	-0.00028	-0.00025	-0.00015	-5e-05	3
9871	-0.00014	9e-05	-9e-05	-0.0001	-0.00028	-0.00025	-0.00015	-5e-05	3
9872	-0.00014	9e-05	-9e-05	-0.0001	-0.00028	-0.00025	-0.00015	-5e-05	3
9873	-0.00014	9e-05	-9e-05	-0.0001	-0.00028	-0.00025	-0.00015	-5e-05	3
9874	-0.00014	9e-05	-9e-05	-0.0001	-0.00028	-0.00025	-0.00015	-5e-05	3
9875	-0.00014	9e-05	-9e-05	-0.0001	-0.00028	-0.00025	-0.00015	-5e-05	3
9876	-0.00014	9e-05	-9e-05	-0.0001	-0.00028	-0.00025	-0.00015	-5e-05	3
9877	0.00024	0.00013	8e-05	-6e-05	-0.00028	-0.00013	-0.00064	-0.00016	3
9878	0.0003	4e-05	-0.00018	-0.00023	-0.0007	0.00014	0.00056	0.00081	3
9879	0.0003	4e-05	-0.00018	-0.00023	-0.0007	0.00014	0.00056	0.00081	3
9880	0.0003	4e-05	-0.00018	-0.00023	-0.0007	0.00014	0.00056	0.00081	3
9881	0.0003	4e-05	-0.00018	-0.00023	-0.0007	0.00014	0.00056	0.00081	3
9882	0.0003	4e-05	-0.00018	-0.00023	-0.0007	0.00014	0.00056	0.00081	3
9883	0.0003	4e-05	-0.00018	-0.00023	-0.0007	0.00014	0.00056	0.00081	3
9884	0.0003	4e-05	-0.00018	-0.00023	-0.0007	0.00014	0.00056	0.00081	3
9885	0.0003	4e-05	-0.00018	-0.00023	-0.0007	0.00014	0.00056	0.00081	3
9886	0.0003	4e-05	-0.00018	-0.00023	-0.0007	0.00014	0.00056	0.00081	3
9888	0.0003	4e-05	-0.00018	-0.00023	-0.0007	0.00014	0.00056	0.00081	3
9889	0.0003	4e-05	-0.00018	-0.00023	-0.0007	0.00014	0.00056	0.00081	3
9890	0.0003	4e-05	-0.00018	-0.00023	-0.0007	0.00014	0.00056	0.00081	3
9891	-0.00025	-0.00013	-1e-05	0.0001	-2e-05	0.00053	2e-05	-0.0004	3
9892	2e-05	-0.00019	-0.00012	-7e-05	-0.00021	-0.00016	-0.00079	-0.00047	3
9893	2e-05	-0.00019	-0.00012	-7e-05	-0.00021	-0.00016	-0.00079	-0.00047	3
9894	2e-05	-0.00019	-0.00012	-7e-05	-0.00021	-0.00016	-0.00079	-0.00047	3
9895	2e-05	-0.00019	-0.00012	-7e-05	-0.00021	-0.00016	-0.00079	-0.00047	3
9896	2e-05	-0.00019	-0.00012	-7e-05	-0.00021	-0.00016	-0.00079	-0.00047	3
9897	2e-05	-0.00019	-0.00012	-7e-05	-0.00021	-0.00016	-0.00079	-0.00047	3
9898	2e-05	-0.00019	-0.00012	-7e-05	-0.00021	-0.00016	-0.00079	-0.00047	3
9899	2e-05	-0.00019	-0.00012	-7e-05	-0.00021	-0.00016	-0.00079	-0.00047	3
9900	2e-05	-0.00019	-0.00012	-7e-05	-0.00021	-0.00016	-0.00079	-0.00047	3
9901	2e-05	-0.00019	-0.00012	-7e-05	-0.00021	-0.00016	-0.00079	-0.00047	3
9902	2e-05	-0.00019	-0.00012	-7e-05	-0.00021	-0.00016	-0.00079	-0.00047	3
9903	2e-05	-0.00019	-0.00012	-7e-05	-0.00021	-0.00016	-0.00079	-0.00047	3
9904	2e-05	-0.00019	-0.00012	-7e-05	-0.00021	-0.00016	-0.00079	-0.00047	3
9905	2e-05	-0.00019	-0.00012	-7e-05	-0.00021	-0.00016	-0.00079	-0.00047	3
9906	2e-05	-0.00019	-0.00012	-7e-05	-0.00021	-0.00016	-0.00079	-0.00047	3
9907	2e-05	-0.00019	-0.00012	-7e-05	-0.00021	-0.00016	-0.00079	-0.00047	3
9908	2e-05	-0.00019	-0.00012	-7e-05	-0.00021	-0.00016	-0.00079	-0.00047	3
9909	2e-05	-0.00019	-0.00012	-7e-05	-0.00021	-0.00016	-0.00079	-0.00047	3
9910	2e-05	-0.00019	-0.00012	-7e-05	-0.00021	-0.00016	-0.00079	-0.00047	3
9911	2e-05	-0.00019	-0.00012	-7e-05	-0.00021	-0.00016	-0.00079	-0.00047	3
9912	2e-05	-0.00019	-0.00012	-7e-05	-0.00021	-0.00016	-0.00079	-0.00047	3
9913	2e-05	-0.00019	-0.00012	-7e-05	-0.00021	-0.00016	-0.00079	-0.00047	3
9914	-7e-05	0.00018	-0.00027	-0.00032	0.00014	-4e-05	-0.00068	0.00017	3
9915	0.00062	0.00015	-5e-05	-7e-05	0.00017	0.00013	-5e-05	-0.00012	3
9916	0.00062	0.00015	-5e-05	-7e-05	0.00017	0.00013	-5e-05	-0.00012	3
9917	0.00062	0.00015	-5e-05	-7e-05	0.00017	0.00013	-5e-05	-0.00012	3
9918	0.00062	0.00015	-5e-05	-7e-05	0.00017	0.00013	-5e-05	-0.00012	3
9919	0.00062	0.00015	-5e-05	-7e-05	0.00017	0.00013	-5e-05	-0.00012	3
9920	0.00062	0.00015	-5e-05	-7e-05	0.00017	0.00013	-5e-05	-0.00012	3
9921	0.00062	0.00015	-5e-05	-7e-05	0.00017	0.00013	-5e-05	-0.00012	3
9922	0.00062	0.00015	-5e-05	-7e-05	0.00017	0.00013	-5e-05	-0.00012	3
9923	0.00062	0.00015	-5e-05	-7e-05	0.00017	0.00013	-5e-05	-0.00012	3
9924	0.00062	0.00015	-5e-05	-7e-05	0.00017	0.00013	-5e-05	-0.00012	3
9925	0.00062	0.00015	-5e-05	-7e-05	0.00017	0.00013	-5e-05	-0.00012	3
9926	0.00062	0.00015	-5e-05	-7e-05	0.00017	0.00013	-5e-05	-0.00012	3
9927	0.00062	0.00015	-5e-05	-7e-05	0.00017	0.00013	-5e-05	-0.00012	3
9928	0.00062	0.00015	-5e-05	-7e-05	0.00017	0.00013	-5e-05	-0.00012	3
9929	0.00062	0.00015	-5e-05	-7e-05	0.00017	0.00013	-5e-05	-0.00012	3
9930	0.00062	0.00015	-5e-05	-7e-05	0.00017	0.00013	-5e-05	-0.00012	3
9931	0.00062	0.00015	-5e-05	-7e-05	0.00017	0.00013	-5e-05	-0.00012	3
9932	0.00062	0.00015	-5e-05	-7e-05	0.00017	0.00013	-5e-05	-0.00012	3
9933	0.00062	0.00015	-5e-05	-7e-05	0.00017	0.00013	-5e-05	-0.00012	3
9934	0.00062	0.00015	-5e-05	-7e-05	0.00017	0.00013	-5e-05	-0.00012	3
9935	0.00062	0.00015	-5e-05	-7e-05	0.00017	0.00013	-5e-05	-0.00012	3
9936	0.00062	0.00015	-5e-05	-7e-05	0.00017	0.00013	-5e-05	-0.00012	3
9939	5e-05	0	4e-05	0.0003	0.00057	0.00031	-0.00019	0.00064	3
9940	5e-05	0	4e-05	0.0003	0.00057	0.00031	-0.00019	0.00064	3
9941	5e-05	0	4e-05	0.0003	0.00057	0.00031	-0.00019	0.00064	3
9942	5e-05	0	4e-05	0.0003	0.00057	0.00031	-0.00019	0.00064	3
9943	5e-05	0	4e-05	0.0003	0.00057	0.00031	-0.00019	0.00064	3
9944	5e-05	0	4e-05	0.0003	0.00057	0.00031	-0.00019	0.00064	3
9945	5e-05	0	4e-05	0.0003	0.00057	0.00031	-0.00019	0.00064	3
9946	5e-05	0	4e-05	0.0003	0.00057	0.00031	-0.00019	0.00064	3
9947	5e-05	0	4e-05	0.0003	0.00057	0.00031	-0.00019	0.00064	3
9948	5e-05	0	4e-05	0.0003	0.00057	0.00031	-0.00019	0.00064	3
9949	5e-05	0	4e-05	0.0003	0.00057	0.00031	-0.00019	0.00064	3
9950	5e-05	0	4e-05	0.0003	0.00057	0.00031	-0.00019	0.00064	3
9951	5e-05	0	4e-05	0.0003	0.00057	0.00031	-0.00019	0.00064	3
9952	5e-05	0	4e-05	0.0003	0.00057	0.00031	-0.00019	0.00064	3
9953	5e-05	0	4e-05	0.0003	0.00057	0.00031	-0.00019	0.00064	3
9954	5e-05	0	4e-05	0.0003	0.00057	0.00031	-0.00019	0.00064	3
9955	5e-05	0	4e-05	0.0003	0.00057	0.00031	-0.00019	0.00064	3
9956	5e-05	0	4e-05	0.0003	0.00057	0.00031	-0.00019	0.00064	3
9957	5e-05	0	4e-05	0.0003	0.00057	0.00031	-0.00019	0.00064	3
9958	5e-05	0	4e-05	0.0003	0.00057	0.00031	-0.00019	0.00064	3
9959	5e-05	0	4e-05	0.0003	0.00057	0.00031	-0.00019	0.00064	3
9960	-0.00039	0.00025	0.00027	0.00037	0.00073	0.00039	0.00027	-0.00032	3
9961	-0.00039	0.00025	0.00027	0.00037	0.00073	0.00039	0.00027	-0.00032	3
9962	-0.00039	0.00025	0.00027	0.00037	0.00073	0.00039	0.00027	-0.00032	3
9963	-0.00039	0.00025	0.00027	0.00037	0.00073	0.00039	0.00027	-0.00032	3
9964	-0.00039	0.00025	0.00027	0.00037	0.00073	0.00039	0.00027	-0.00032	3
9965	-0.00039	0.00025	0.00027	0.00037	0.00073	0.00039	0.00027	-0.00032	3
9966	-0.00039	0.00025	0.00027	0.00037	0.00073	0.00039	0.00027	-0.00032	3
9967	-0.00039	0.00025	0.00027	0.00037	0.00073	0.00039	0.00027	-0.00032	3
9968	-0.00039	0.00025	0.00027	0.00037	0.00073	0.00039	0.00027	-0.00032	3
9969	-0.00039	0.00025	0.00027	0.00037	0.00073	0.00039	0.00027	-0.00032	3
9970	-0.00039	0.00025	0.00027	0.00037	0.00073	0.00039	0.00027	-0.00032	3
9971	-0.00039	0.00025	0.00027	0.00037	0.00073	0.00039	0.00027	-0.00032	3
9972	-0.00039	0.00025	0.00027	0.00037	0.00073	0.00039	0.00027	-0.00032	3
9973	-0.00039	0.00025	0.00027	0.00037	0.00073	0.00039	0.00027	-0.00032	3
9974	-0.00039	0.00025	0.00027	0.00037	0.00073	0.00039	0.00027	-0.00032	3
9975	-0.00039	0.00025	0.00027	0.00037	0.00073	0.00039	0.00027	-0.00032	3
9976	-0.00039	0.00025	0.00027	0.00037	0.00073	0.00039	0.00027	-0.00032	3
9977	-0.00039	0.00025	0.00027	0.00037	0.00073	0.00039	0.00027	-0.00032	3
9978	-0.00039	0.00025	0.00027	0.00037	0.00073	0.00039	0.00027	-0.00032	3
9979	-0.00039	0.00025	0.00027	0.00037	0.00073	0.00039	0.00027	-0.00032	3
9980	-0.00039	0.00025	0.00027	0.00037	0.00073	0.00039	0.00027	-0.00032	3
9981	-0.00039	0.00025	0.00027	0.00037	0.00073	0.00039	0.00027	-0.00032	3
9982	0.00017	6e-05	-2e-05	-0.00015	-0.00064	-0.00038	0.0002	-0.00031	3
9983	8e-05	-0.00018	-1e-05	7e-05	0.00064	0.00014	0.00039	-0.00038	3
9984	8e-05	-0.00018	-1e-05	7e-05	0.00064	0.00014	0.00039	-0.00038	3
9985	8e-05	-0.00018	-1e-05	7e-05	0.00064	0.00014	0.00039	-0.00038	3
9986	8e-05	-0.00018	-1e-05	7e-05	0.00064	0.00014	0.00039	-0.00038	3
9988	8e-05	-0.00018	-1e-05	7e-05	0.00064	0.00014	0.00039	-0.00038	3
9989	8e-05	-0.00018	-1e-05	7e-05	0.00064	0.00014	0.00039	-0.00038	3
9990	8e-05	-0.00018	-1e-05	7e-05	0.00064	0.00014	0.00039	-0.00038	3
9991	8e-05	-0.00018	-1e-05	7e-05	0.00064	0.00014	0.00039	-0.00038	3
9992	8e-05	-0.00018	-1e-05	7e-05	0.00064	0.00014	0.00039	-0.00038	3
9993	8e-05	-0.00018	-1e-05	7e-05	0.00064	0.00014	0.00039	-0.00038	3
9994	8e-05	-0.00018	-1e-05	7e-05	0.00064	0.00014	0.00039	-0.00038	3
9995	8e-05	-0.00018	-1e-05	7e-05	0.00064	0.00014	0.00039	-0.00038	3
9996	8e-05	-0.00018	-1e-05	7e-05	0.00064	0.00014	0.00039	-0.00038	3
9997	0.00021	7e-05	0.00021	0.00015	0.00014	0	0.00051	-0.0005	3
9998	0.00041	-5e-05	-6e-05	-0.00011	-0.00029	3e-05	0.00033	-0.00035	3
9999	0.00041	-5e-05	-6e-05	-0.00011	-0.00029	3e-05	0.00033	-0.00035	3
10000	0.00041	-5e-05	-6e-05	-0.00011	-0.00029	3e-05	0.00033	-0.00035	3
10001	0.00041	-5e-05	-6e-05	-0.00011	-0.00029	3e-05	0.00033	-0.00035	3
10002	0.00041	-5e-05	-6e-05	-0.00011	-0.00029	3e-05	0.00033	-0.00035	3
10003	0.00041	-5e-05	-6e-05	-0.00011	-0.00029	3e-05	0.00033	-0.00035	3
10004	0.00041	-5e-05	-6e-05	-0.00011	-0.00029	3e-05	0.00033	-0.00035	3
10005	0.00041	-5e-05	-6e-05	-0.00011	-0.00029	3e-05	0.00033	-0.00035	3
10006	0.00041	-5e-05	-6e-05	-0.00011	-0.00029	3e-05	0.00033	-0.00035	3
10007	0.00041	-5e-05	-6e-05	-0.00011	-0.00029	3e-05	0.00033	-0.00035	3
10008	0.00041	-5e-05	-6e-05	-0.00011	-0.00029	3e-05	0.00033	-0.00035	3
10009	0.00041	-5e-05	-6e-05	-0.00011	-0.00029	3e-05	0.00033	-0.00035	3
10010	0.00041	-5e-05	-6e-05	-0.00011	-0.00029	3e-05	0.00033	-0.00035	3
10011	-0.00082	-0.00028	-0.00019	-3e-05	2e-05	4e-05	-0.00035	0.00031	3
10012	0.00031	-3e-05	-3e-05	-0.0002	-0.00019	-0.00019	-0.00018	-8e-05	3
10013	0.00031	-3e-05	-3e-05	-0.0002	-0.00019	-0.00019	-0.00018	-8e-05	3
10014	0.00031	-3e-05	-3e-05	-0.0002	-0.00019	-0.00019	-0.00018	-8e-05	3
10015	0.00031	-3e-05	-3e-05	-0.0002	-0.00019	-0.00019	-0.00018	-8e-05	3
10016	0.00031	-3e-05	-3e-05	-0.0002	-0.00019	-0.00019	-0.00018	-8e-05	3
10017	0.00031	-3e-05	-3e-05	-0.0002	-0.00019	-0.00019	-0.00018	-8e-05	3
10018	0.00031	-3e-05	-3e-05	-0.0002	-0.00019	-0.00019	-0.00018	-8e-05	3
10019	0.00031	-3e-05	-3e-05	-0.0002	-0.00019	-0.00019	-0.00018	-8e-05	3
10020	0.00031	-3e-05	-3e-05	-0.0002	-0.00019	-0.00019	-0.00018	-8e-05	3
10021	0.00031	-3e-05	-3e-05	-0.0002	-0.00019	-0.00019	-0.00018	-8e-05	3
10022	0.00031	-3e-05	-3e-05	-0.0002	-0.00019	-0.00019	-0.00018	-8e-05	3
10023	0.00031	-3e-05	-3e-05	-0.0002	-0.00019	-0.00019	-0.00018	-8e-05	3
10024	0.00031	-3e-05	-3e-05	-0.0002	-0.00019	-0.00019	-0.00018	-8e-05	3
10025	0.00031	-3e-05	-3e-05	-0.0002	-0.00019	-0.00019	-0.00018	-8e-05	3
10026	0.00031	-3e-05	-3e-05	-0.0002	-0.00019	-0.00019	-0.00018	-8e-05	3
10027	0.00031	-3e-05	-3e-05	-0.0002	-0.00019	-0.00019	-0.00018	-8e-05	3
10028	0.00031	-3e-05	-3e-05	-0.0002	-0.00019	-0.00019	-0.00018	-8e-05	3
10029	0.00031	-3e-05	-3e-05	-0.0002	-0.00019	-0.00019	-0.00018	-8e-05	3
10030	0.00031	-3e-05	-3e-05	-0.0002	-0.00019	-0.00019	-0.00018	-8e-05	3
10031	0.00031	-3e-05	-3e-05	-0.0002	-0.00019	-0.00019	-0.00018	-8e-05	3
10033	0.00031	-3e-05	-3e-05	-0.0002	-0.00019	-0.00019	-0.00018	-8e-05	3
10034	-0.00022	0.0004	0.00011	0.00014	0.00012	0.00027	0.00015	-0.00031	3
10035	0.0004	0.00019	-2e-05	-0.00014	-0.0001	-0.00066	-0.00039	-0.00066	3
10042	0.0004	0.00019	-2e-05	-0.00014	-0.0001	-0.00066	-0.00039	-0.00066	3
10044	0.0004	0.00019	-2e-05	-0.00014	-0.0001	-0.00066	-0.00039	-0.00066	3
10045	0.0004	0.00019	-2e-05	-0.00014	-0.0001	-0.00066	-0.00039	-0.00066	3
10046	0.0004	0.00019	-2e-05	-0.00014	-0.0001	-0.00066	-0.00039	-0.00066	3
10047	0.0004	0.00019	-2e-05	-0.00014	-0.0001	-0.00066	-0.00039	-0.00066	3
10048	0.0004	0.00019	-2e-05	-0.00014	-0.0001	-0.00066	-0.00039	-0.00066	3
10049	0.0004	0.00019	-2e-05	-0.00014	-0.0001	-0.00066	-0.00039	-0.00066	3
10050	0.0004	0.00019	-2e-05	-0.00014	-0.0001	-0.00066	-0.00039	-0.00066	3
10051	0.0004	0.00019	-2e-05	-0.00014	-0.0001	-0.00066	-0.00039	-0.00066	3
10052	0.0004	0.00019	-2e-05	-0.00014	-0.0001	-0.00066	-0.00039	-0.00066	3
10053	0.0004	0.00019	-2e-05	-0.00014	-0.0001	-0.00066	-0.00039	-0.00066	3
10054	0.0004	0.00019	-2e-05	-0.00014	-0.0001	-0.00066	-0.00039	-0.00066	3
10055	0.0004	0.00019	-2e-05	-0.00014	-0.0001	-0.00066	-0.00039	-0.00066	3
10056	0.0004	0.00019	-2e-05	-0.00014	-0.0001	-0.00066	-0.00039	-0.00066	3
10057	0.00014	0.00021	3e-05	0.00013	0.00015	0.00042	4e-05	0.00057	3
10058	-0.00115	-0.0002	-4e-05	-0.00012	-0.00032	0	-0.00057	-0.00021	3
10059	-0.00115	-0.0002	-4e-05	-0.00012	-0.00032	0	-0.00057	-0.00021	3
10060	-0.00115	-0.0002	-4e-05	-0.00012	-0.00032	0	-0.00057	-0.00021	3
10061	-0.00115	-0.0002	-4e-05	-0.00012	-0.00032	0	-0.00057	-0.00021	3
10062	-0.00115	-0.0002	-4e-05	-0.00012	-0.00032	0	-0.00057	-0.00021	3
10063	-0.00115	-0.0002	-4e-05	-0.00012	-0.00032	0	-0.00057	-0.00021	3
10064	-0.00115	-0.0002	-4e-05	-0.00012	-0.00032	0	-0.00057	-0.00021	3
10065	-0.00115	-0.0002	-4e-05	-0.00012	-0.00032	0	-0.00057	-0.00021	3
10066	-0.00115	-0.0002	-4e-05	-0.00012	-0.00032	0	-0.00057	-0.00021	3
10067	-0.00115	-0.0002	-4e-05	-0.00012	-0.00032	0	-0.00057	-0.00021	3
10068	-0.00115	-0.0002	-4e-05	-0.00012	-0.00032	0	-0.00057	-0.00021	3
10069	-0.00115	-0.0002	-4e-05	-0.00012	-0.00032	0	-0.00057	-0.00021	3
10070	-0.00115	-0.0002	-4e-05	-0.00012	-0.00032	0	-0.00057	-0.00021	3
10071	-0.00027	-0.00032	8e-05	-7e-05	-0.00027	6e-05	0.00019	0.00038	3
10072	-0.00027	-0.00032	8e-05	-7e-05	-0.00027	6e-05	0.00019	0.00038	3
10073	-0.00027	-0.00032	8e-05	-7e-05	-0.00027	6e-05	0.00019	0.00038	3
10074	-0.00027	-0.00032	8e-05	-7e-05	-0.00027	6e-05	0.00019	0.00038	3
10075	-0.00027	-0.00032	8e-05	-7e-05	-0.00027	6e-05	0.00019	0.00038	3
10076	-0.00027	-0.00032	8e-05	-7e-05	-0.00027	6e-05	0.00019	0.00038	3
10077	-0.00027	-0.00032	8e-05	-7e-05	-0.00027	6e-05	0.00019	0.00038	3
10078	-0.00027	-0.00032	8e-05	-7e-05	-0.00027	6e-05	0.00019	0.00038	3
10079	-0.00078	3e-05	-5e-05	0.00017	0.00037	-0.0001	0.00076	0.0005	3
10080	-0.00078	3e-05	-5e-05	0.00017	0.00037	-0.0001	0.00076	0.0005	3
10081	-0.00078	3e-05	-5e-05	0.00017	0.00037	-0.0001	0.00076	0.0005	3
10082	-0.00078	3e-05	-5e-05	0.00017	0.00037	-0.0001	0.00076	0.0005	3
10083	-0.00078	3e-05	-5e-05	0.00017	0.00037	-0.0001	0.00076	0.0005	3
10084	-0.00078	3e-05	-5e-05	0.00017	0.00037	-0.0001	0.00076	0.0005	3
10085	-0.00078	3e-05	-5e-05	0.00017	0.00037	-0.0001	0.00076	0.0005	3
10086	-0.00078	3e-05	-5e-05	0.00017	0.00037	-0.0001	0.00076	0.0005	3
10088	-0.00078	3e-05	-5e-05	0.00017	0.00037	-0.0001	0.00076	0.0005	3
10089	-0.00078	3e-05	-5e-05	0.00017	0.00037	-0.0001	0.00076	0.0005	3
10090	-0.00078	3e-05	-5e-05	0.00017	0.00037	-0.0001	0.00076	0.0005	3
10091	-0.00078	3e-05	-5e-05	0.00017	0.00037	-0.0001	0.00076	0.0005	3
10092	-0.00078	3e-05	-5e-05	0.00017	0.00037	-0.0001	0.00076	0.0005	3
10093	-0.00078	3e-05	-5e-05	0.00017	0.00037	-0.0001	0.00076	0.0005	3
10094	-0.00078	3e-05	-5e-05	0.00017	0.00037	-0.0001	0.00076	0.0005	3
10095	-0.00018	-0.00013	-0.00017	-0.00029	-0.00078	-0.0004	-0.00014	0.00065	3
10096	-0.00018	-0.00013	-0.00017	-0.00029	-0.00078	-0.0004	-0.00014	0.00065	3
10097	-0.00018	-0.00013	-0.00017	-0.00029	-0.00078	-0.0004	-0.00014	0.00065	3
10098	-0.00018	-0.00013	-0.00017	-0.00029	-0.00078	-0.0004	-0.00014	0.00065	3
10099	-0.00018	-0.00013	-0.00017	-0.00029	-0.00078	-0.0004	-0.00014	0.00065	3
10100	-0.00018	-0.00013	-0.00017	-0.00029	-0.00078	-0.0004	-0.00014	0.00065	3
10101	-0.00018	-0.00013	-0.00017	-0.00029	-0.00078	-0.0004	-0.00014	0.00065	3
10102	-0.00018	-0.00013	-0.00017	-0.00029	-0.00078	-0.0004	-0.00014	0.00065	3
10103	-0.00018	-0.00013	-0.00017	-0.00029	-0.00078	-0.0004	-0.00014	0.00065	3
10104	-0.00018	-0.00013	-0.00017	-0.00029	-0.00078	-0.0004	-0.00014	0.00065	3
10105	-0.00018	-0.00013	-0.00017	-0.00029	-0.00078	-0.0004	-0.00014	0.00065	3
10106	-0.00018	-0.00013	-0.00017	-0.00029	-0.00078	-0.0004	-0.00014	0.00065	3
10107	-0.00018	-0.00013	-0.00017	-0.00029	-0.00078	-0.0004	-0.00014	0.00065	3
10108	-0.00018	-0.00013	-0.00017	-0.00029	-0.00078	-0.0004	-0.00014	0.00065	3
10109	-0.00018	-0.00013	-0.00017	-0.00029	-0.00078	-0.0004	-0.00014	0.00065	3
10110	-0.00018	-0.00013	-0.00017	-0.00029	-0.00078	-0.0004	-0.00014	0.00065	3
10111	-0.00018	-0.00013	-0.00017	-0.00029	-0.00078	-0.0004	-0.00014	0.00065	3
10112	-0.00018	-0.00013	-0.00017	-0.00029	-0.00078	-0.0004	-0.00014	0.00065	3
10113	-0.00018	-0.00013	-0.00017	-0.00029	-0.00078	-0.0004	-0.00014	0.00065	3
10114	-0.00018	-0.00013	-0.00017	-0.00029	-0.00078	-0.0004	-0.00014	0.00065	3
10115	-0.00018	-0.00013	-0.00017	-0.00029	-0.00078	-0.0004	-0.00014	0.00065	3
10116	-0.00018	-0.00013	-0.00017	-0.00029	-0.00078	-0.0004	-0.00014	0.00065	3
10117	0.00062	0.00049	1e-05	5e-05	0.00032	-4e-05	0.00011	-0.00023	3
10118	0.00062	0.00049	1e-05	5e-05	0.00032	-4e-05	0.00011	-0.00023	3
10119	0.00073	0.00025	1e-05	-4e-05	-0.00017	0.00028	6e-05	-1e-05	3
10120	0.00073	0.00025	1e-05	-4e-05	-0.00017	0.00028	6e-05	-1e-05	3
10121	0.00073	0.00025	1e-05	-4e-05	-0.00017	0.00028	6e-05	-1e-05	3
10122	0.00073	0.00025	1e-05	-4e-05	-0.00017	0.00028	6e-05	-1e-05	3
10123	0.00073	0.00025	1e-05	-4e-05	-0.00017	0.00028	6e-05	-1e-05	3
10124	0.00073	0.00025	1e-05	-4e-05	-0.00017	0.00028	6e-05	-1e-05	3
10125	0.00073	0.00025	1e-05	-4e-05	-0.00017	0.00028	6e-05	-1e-05	3
10126	0.00073	0.00025	1e-05	-4e-05	-0.00017	0.00028	6e-05	-1e-05	3
10127	0.00073	0.00025	1e-05	-4e-05	-0.00017	0.00028	6e-05	-1e-05	3
10128	0.00073	0.00025	1e-05	-4e-05	-0.00017	0.00028	6e-05	-1e-05	3
10129	0.00073	0.00025	1e-05	-4e-05	-0.00017	0.00028	6e-05	-1e-05	3
10130	-0.00057	-0.00046	-0.0002	-0.00017	4e-05	-0.0002	-0.00045	-0.00074	3
10131	-0.0004	-0.00013	-3e-05	2e-05	6e-05	0.00014	-6e-05	0.00024	3
10132	-0.0004	-0.00013	-3e-05	2e-05	6e-05	0.00014	-6e-05	0.00024	3
10133	-0.0004	-0.00013	-3e-05	2e-05	6e-05	0.00014	-6e-05	0.00024	3
10134	-0.0004	-0.00013	-3e-05	2e-05	6e-05	0.00014	-6e-05	0.00024	3
10135	-0.0004	-0.00013	-3e-05	2e-05	6e-05	0.00014	-6e-05	0.00024	3
10136	-0.0004	-0.00013	-3e-05	2e-05	6e-05	0.00014	-6e-05	0.00024	3
10138	-0.0004	-0.00013	-3e-05	2e-05	6e-05	0.00014	-6e-05	0.00024	3
10139	-0.0004	-0.00013	-3e-05	2e-05	6e-05	0.00014	-6e-05	0.00024	3
10140	0.00023	0.00019	5e-05	-4e-05	-0.00038	-0.00039	-0.0004	-0.00085	3
10141	0.00023	0.00019	5e-05	-4e-05	-0.00038	-0.00039	-0.0004	-0.00085	3
10142	0.00023	0.00019	5e-05	-4e-05	-0.00038	-0.00039	-0.0004	-0.00085	3
10143	0.00023	0.00019	5e-05	-4e-05	-0.00038	-0.00039	-0.0004	-0.00085	3
10144	0.00023	0.00019	5e-05	-4e-05	-0.00038	-0.00039	-0.0004	-0.00085	3
10145	0.00023	0.00019	5e-05	-4e-05	-0.00038	-0.00039	-0.0004	-0.00085	3
10146	0.00023	0.00019	5e-05	-4e-05	-0.00038	-0.00039	-0.0004	-0.00085	3
10147	0.00023	0.00019	5e-05	-4e-05	-0.00038	-0.00039	-0.0004	-0.00085	3
10148	0.00023	0.00019	5e-05	-4e-05	-0.00038	-0.00039	-0.0004	-0.00085	3
10149	0.00023	0.00019	5e-05	-4e-05	-0.00038	-0.00039	-0.0004	-0.00085	3
10150	0.00023	0.00019	5e-05	-4e-05	-0.00038	-0.00039	-0.0004	-0.00085	3
10151	0.00023	0.00019	5e-05	-4e-05	-0.00038	-0.00039	-0.0004	-0.00085	3
10152	0.00023	0.00019	5e-05	-4e-05	-0.00038	-0.00039	-0.0004	-0.00085	3
10153	0.00023	0.00019	5e-05	-4e-05	-0.00038	-0.00039	-0.0004	-0.00085	3
10154	0.0007	0.00015	-0.00011	-0.00012	9e-05	-0.00025	0.00012	0.00113	3
10155	-0.00095	-0.00017	0.00011	0.00011	0.00012	0.0005	7e-05	0.00057	3
10156	-0.00095	-0.00017	0.00011	0.00011	0.00012	0.0005	7e-05	0.00057	3
10157	-0.00095	-0.00017	0.00011	0.00011	0.00012	0.0005	7e-05	0.00057	3
10158	-0.00095	-0.00017	0.00011	0.00011	0.00012	0.0005	7e-05	0.00057	3
10159	-0.00095	-0.00017	0.00011	0.00011	0.00012	0.0005	7e-05	0.00057	3
10160	-0.00095	-0.00017	0.00011	0.00011	0.00012	0.0005	7e-05	0.00057	3
10161	-0.00095	-0.00017	0.00011	0.00011	0.00012	0.0005	7e-05	0.00057	3
10162	-0.00095	-0.00017	0.00011	0.00011	0.00012	0.0005	7e-05	0.00057	3
10163	-0.00095	-0.00017	0.00011	0.00011	0.00012	0.0005	7e-05	0.00057	3
10164	-0.00095	-0.00017	0.00011	0.00011	0.00012	0.0005	7e-05	0.00057	3
10165	-0.00095	-0.00017	0.00011	0.00011	0.00012	0.0005	7e-05	0.00057	3
10166	-0.00095	-0.00017	0.00011	0.00011	0.00012	0.0005	7e-05	0.00057	3
10167	-0.00095	-0.00017	0.00011	0.00011	0.00012	0.0005	7e-05	0.00057	3
10168	0.00077	-0.00019	-1e-05	-0.00016	-0.00067	-0.00015	-0.00024	0.00045	3
10169	0.00077	-0.00019	-1e-05	-0.00016	-0.00067	-0.00015	-0.00024	0.00045	3
10170	0.00077	-0.00019	-1e-05	-0.00016	-0.00067	-0.00015	-0.00024	0.00045	3
10171	0.00077	-0.00019	-1e-05	-0.00016	-0.00067	-0.00015	-0.00024	0.00045	3
10172	0.00077	-0.00019	-1e-05	-0.00016	-0.00067	-0.00015	-0.00024	0.00045	3
10173	0.00077	-0.00019	-1e-05	-0.00016	-0.00067	-0.00015	-0.00024	0.00045	3
10174	0.00077	-0.00019	-1e-05	-0.00016	-0.00067	-0.00015	-0.00024	0.00045	3
10175	0.00077	-0.00019	-1e-05	-0.00016	-0.00067	-0.00015	-0.00024	0.00045	3
10176	0.00077	-0.00019	-1e-05	-0.00016	-0.00067	-0.00015	-0.00024	0.00045	3
10177	-0.00012	-0.00026	5e-05	8e-05	0.00039	-0.00022	-3e-05	-0.00024	3
10178	-0.00012	-0.00026	5e-05	8e-05	0.00039	-0.00022	-3e-05	-0.00024	3
10179	-0.00012	-0.00026	5e-05	8e-05	0.00039	-0.00022	-3e-05	-0.00024	3
10180	-0.00012	-0.00026	5e-05	8e-05	0.00039	-0.00022	-3e-05	-0.00024	3
10181	-0.00012	-0.00026	5e-05	8e-05	0.00039	-0.00022	-3e-05	-0.00024	3
10182	-0.00012	-0.00026	5e-05	8e-05	0.00039	-0.00022	-3e-05	-0.00024	3
10183	-0.00012	-0.00026	5e-05	8e-05	0.00039	-0.00022	-3e-05	-0.00024	3
10184	-0.00012	-0.00026	5e-05	8e-05	0.00039	-0.00022	-3e-05	-0.00024	3
10185	-0.00015	-0.00035	-0.00022	-0.00013	0.00034	0.00036	0.00021	-0.00045	3
10186	-0.00015	-0.00035	-0.00022	-0.00013	0.00034	0.00036	0.00021	-0.00045	3
10188	-0.00015	-0.00035	-0.00022	-0.00013	0.00034	0.00036	0.00021	-0.00045	3
10189	-0.00015	-0.00035	-0.00022	-0.00013	0.00034	0.00036	0.00021	-0.00045	3
10190	-0.00093	6e-05	0.00019	0.00018	2e-05	-9e-05	0.00018	0.00028	3
10191	4e-05	-2e-05	-0.0002	-6e-05	-4e-05	0.00016	0.00036	-0.00018	3
10192	4e-05	-2e-05	-0.0002	-6e-05	-4e-05	0.00016	0.00036	-0.00018	3
10193	4e-05	-2e-05	-0.0002	-6e-05	-4e-05	0.00016	0.00036	-0.00018	3
10194	4e-05	-2e-05	-0.0002	-6e-05	-4e-05	0.00016	0.00036	-0.00018	3
10195	4e-05	-2e-05	-0.0002	-6e-05	-4e-05	0.00016	0.00036	-0.00018	3
10196	4e-05	-2e-05	-0.0002	-6e-05	-4e-05	0.00016	0.00036	-0.00018	3
10197	4e-05	-2e-05	-0.0002	-6e-05	-4e-05	0.00016	0.00036	-0.00018	3
10198	4e-05	-2e-05	-0.0002	-6e-05	-4e-05	0.00016	0.00036	-0.00018	3
10199	4e-05	-2e-05	-0.0002	-6e-05	-4e-05	0.00016	0.00036	-0.00018	3
10200	-0.00025	-0.0002	0.00017	7e-05	-0.00027	-0.00018	0.0003	0.00045	3
10201	-0.00025	-0.0002	0.00017	7e-05	-0.00027	-0.00018	0.0003	0.00045	3
10202	-0.00025	-0.0002	0.00017	7e-05	-0.00027	-0.00018	0.0003	0.00045	3
10203	-0.00025	-0.0002	0.00017	7e-05	-0.00027	-0.00018	0.0003	0.00045	3
10204	-0.00025	-0.0002	0.00017	7e-05	-0.00027	-0.00018	0.0003	0.00045	3
10205	-0.00025	-0.0002	0.00017	7e-05	-0.00027	-0.00018	0.0003	0.00045	3
10206	-0.00025	-0.0002	0.00017	7e-05	-0.00027	-0.00018	0.0003	0.00045	3
10207	-0.00025	-0.0002	0.00017	7e-05	-0.00027	-0.00018	0.0003	0.00045	3
10208	-0.00025	-0.0002	0.00017	7e-05	-0.00027	-0.00018	0.0003	0.00045	3
10209	-0.00025	-0.0002	0.00017	7e-05	-0.00027	-0.00018	0.0003	0.00045	3
10210	-0.00025	-0.0002	0.00017	7e-05	-0.00027	-0.00018	0.0003	0.00045	3
10211	-0.00025	-0.0002	0.00017	7e-05	-0.00027	-0.00018	0.0003	0.00045	3
10212	-0.00025	-0.0002	0.00017	7e-05	-0.00027	-0.00018	0.0003	0.00045	3
10213	-0.00025	-0.0002	0.00017	7e-05	-0.00027	-0.00018	0.0003	0.00045	3
10214	-0.00025	-0.0002	0.00017	7e-05	-0.00027	-0.00018	0.0003	0.00045	3
10215	1e-05	0.00029	0.00011	0.00013	0.00043	0.00047	0.00023	0.00059	3
10216	0.00014	0.00016	6e-05	1e-05	-4e-05	-0.00027	-0.00035	-0.00029	3
10217	0.00014	0.00016	6e-05	1e-05	-4e-05	-0.00027	-0.00035	-0.00029	3
10218	0.00014	0.00016	6e-05	1e-05	-4e-05	-0.00027	-0.00035	-0.00029	3
10219	0.00014	0.00016	6e-05	1e-05	-4e-05	-0.00027	-0.00035	-0.00029	3
10220	0.00014	0.00016	6e-05	1e-05	-4e-05	-0.00027	-0.00035	-0.00029	3
10221	0.00014	0.00016	6e-05	1e-05	-4e-05	-0.00027	-0.00035	-0.00029	3
10222	0.00014	0.00016	6e-05	1e-05	-4e-05	-0.00027	-0.00035	-0.00029	3
10223	0.00014	0.00016	6e-05	1e-05	-4e-05	-0.00027	-0.00035	-0.00029	3
10224	0.00014	0.00016	6e-05	1e-05	-4e-05	-0.00027	-0.00035	-0.00029	3
10225	0.00014	0.00016	6e-05	1e-05	-4e-05	-0.00027	-0.00035	-0.00029	3
10226	0.00014	0.00016	6e-05	1e-05	-4e-05	-0.00027	-0.00035	-0.00029	3
10227	0.00014	0.00016	6e-05	1e-05	-4e-05	-0.00027	-0.00035	-0.00029	3
10228	0.00014	0.00016	6e-05	1e-05	-4e-05	-0.00027	-0.00035	-0.00029	3
10229	0.00014	0.00016	6e-05	1e-05	-4e-05	-0.00027	-0.00035	-0.00029	3
10230	0.00014	0.00016	6e-05	1e-05	-4e-05	-0.00027	-0.00035	-0.00029	3
10231	0.00014	0.00016	6e-05	1e-05	-4e-05	-0.00027	-0.00035	-0.00029	3
10232	0.00014	0.00016	6e-05	1e-05	-4e-05	-0.00027	-0.00035	-0.00029	3
10233	0.00014	0.00016	6e-05	1e-05	-4e-05	-0.00027	-0.00035	-0.00029	3
10234	0.00014	0.00016	6e-05	1e-05	-4e-05	-0.00027	-0.00035	-0.00029	3
10235	0.00014	0.00016	6e-05	1e-05	-4e-05	-0.00027	-0.00035	-0.00029	3
10236	0.00014	0.00016	6e-05	1e-05	-4e-05	-0.00027	-0.00035	-0.00029	3
10238	-0.00023	4e-05	-0.00014	-0.00028	-0.00081	-0.00057	-6e-05	-0.00029	3
10239	-0.00086	-0.00019	0.00018	0.00028	0.00053	0.00054	0.00062	-0.00021	3
10240	-0.00086	-0.00019	0.00018	0.00028	0.00053	0.00054	0.00062	-0.00021	3
10241	-0.00086	-0.00019	0.00018	0.00028	0.00053	0.00054	0.00062	-0.00021	3
10242	-0.00086	-0.00019	0.00018	0.00028	0.00053	0.00054	0.00062	-0.00021	3
10243	-0.00086	-0.00019	0.00018	0.00028	0.00053	0.00054	0.00062	-0.00021	3
10244	-0.00086	-0.00019	0.00018	0.00028	0.00053	0.00054	0.00062	-0.00021	3
10245	-0.00086	-0.00019	0.00018	0.00028	0.00053	0.00054	0.00062	-0.00021	3
10246	-0.00086	-0.00019	0.00018	0.00028	0.00053	0.00054	0.00062	-0.00021	3
10247	-0.00086	-0.00019	0.00018	0.00028	0.00053	0.00054	0.00062	-0.00021	3
10248	-0.00086	-0.00019	0.00018	0.00028	0.00053	0.00054	0.00062	-0.00021	3
10249	-0.00086	-0.00019	0.00018	0.00028	0.00053	0.00054	0.00062	-0.00021	3
10250	-0.00086	-0.00019	0.00018	0.00028	0.00053	0.00054	0.00062	-0.00021	3
10251	-0.00086	-0.00019	0.00018	0.00028	0.00053	0.00054	0.00062	-0.00021	3
10252	-0.00086	-0.00019	0.00018	0.00028	0.00053	0.00054	0.00062	-0.00021	3
10253	-0.00086	-0.00019	0.00018	0.00028	0.00053	0.00054	0.00062	-0.00021	3
10254	-0.00086	-0.00019	0.00018	0.00028	0.00053	0.00054	0.00062	-0.00021	3
10255	-0.00086	-0.00019	0.00018	0.00028	0.00053	0.00054	0.00062	-0.00021	3
10256	-0.00086	-0.00019	0.00018	0.00028	0.00053	0.00054	0.00062	-0.00021	3
10257	-0.00086	-0.00019	0.00018	0.00028	0.00053	0.00054	0.00062	-0.00021	3
10258	-0.00086	-0.00019	0.00018	0.00028	0.00053	0.00054	0.00062	-0.00021	3
10259	0.00014	8e-05	5e-05	6e-05	0.00038	3e-05	0.00025	2e-05	3
10260	0.001	0.00012	-0.00013	-0.00018	-0.00025	-2e-05	0.00018	0.00012	3
10261	0.0004	9e-05	6e-05	0.0001	0.00032	0.00014	-7e-05	-0.00039	3
10262	0.0004	9e-05	6e-05	0.0001	0.00032	0.00014	-7e-05	-0.00039	3
10263	0.0004	9e-05	6e-05	0.0001	0.00032	0.00014	-7e-05	-0.00039	3
10264	0.0004	9e-05	6e-05	0.0001	0.00032	0.00014	-7e-05	-0.00039	3
10265	0.0004	9e-05	6e-05	0.0001	0.00032	0.00014	-7e-05	-0.00039	3
10266	0.0004	9e-05	6e-05	0.0001	0.00032	0.00014	-7e-05	-0.00039	3
10267	0.0004	9e-05	6e-05	0.0001	0.00032	0.00014	-7e-05	-0.00039	3
10268	0.0004	9e-05	6e-05	0.0001	0.00032	0.00014	-7e-05	-0.00039	3
10269	0.0004	9e-05	6e-05	0.0001	0.00032	0.00014	-7e-05	-0.00039	3
10270	0.0004	9e-05	6e-05	0.0001	0.00032	0.00014	-7e-05	-0.00039	3
10271	0.0004	9e-05	6e-05	0.0001	0.00032	0.00014	-7e-05	-0.00039	3
10272	0.0004	9e-05	6e-05	0.0001	0.00032	0.00014	-7e-05	-0.00039	3
10273	0.0004	9e-05	6e-05	0.0001	0.00032	0.00014	-7e-05	-0.00039	3
10274	0.0004	9e-05	6e-05	0.0001	0.00032	0.00014	-7e-05	-0.00039	3
10275	5e-05	6e-05	-7e-05	-9e-05	-0.00031	-0.00039	-0.00082	-0.00117	3
10276	0.00029	0.00023	-4e-05	0.00019	0.001	-7e-05	-6e-05	0.00033	3
10277	0.00029	0.00023	-4e-05	0.00019	0.001	-7e-05	-6e-05	0.00033	3
10278	0.00029	0.00023	-4e-05	0.00019	0.001	-7e-05	-6e-05	0.00033	3
10279	0.00029	0.00023	-4e-05	0.00019	0.001	-7e-05	-6e-05	0.00033	3
10280	0.00029	0.00023	-4e-05	0.00019	0.001	-7e-05	-6e-05	0.00033	3
10281	0.00029	0.00023	-4e-05	0.00019	0.001	-7e-05	-6e-05	0.00033	3
10282	0.00029	0.00023	-4e-05	0.00019	0.001	-7e-05	-6e-05	0.00033	3
10283	0.00029	0.00023	-4e-05	0.00019	0.001	-7e-05	-6e-05	0.00033	3
10284	0.00029	0.00023	-4e-05	0.00019	0.001	-7e-05	-6e-05	0.00033	3
10285	0.00029	0.00023	-4e-05	0.00019	0.001	-7e-05	-6e-05	0.00033	3
10286	0.00029	0.00023	-4e-05	0.00019	0.001	-7e-05	-6e-05	0.00033	3
10288	0.00029	0.00023	-4e-05	0.00019	0.001	-7e-05	-6e-05	0.00033	3
10289	0.00029	0.00023	-4e-05	0.00019	0.001	-7e-05	-6e-05	0.00033	3
10290	0.00029	0.00023	-4e-05	0.00019	0.001	-7e-05	-6e-05	0.00033	3
10291	0.00029	0.00023	-4e-05	0.00019	0.001	-7e-05	-6e-05	0.00033	3
10292	0.00029	0.00023	-4e-05	0.00019	0.001	-7e-05	-6e-05	0.00033	3
10293	0.00029	0.00023	-4e-05	0.00019	0.001	-7e-05	-6e-05	0.00033	3
10294	0.00029	0.00023	-4e-05	0.00019	0.001	-7e-05	-6e-05	0.00033	3
10295	0.00029	0.00023	-4e-05	0.00019	0.001	-7e-05	-6e-05	0.00033	3
10296	0.00029	0.00023	-4e-05	0.00019	0.001	-7e-05	-6e-05	0.00033	3
10297	5e-05	0.0001	0.00011	0.00038	0.00098	0.00077	-0.00021	2e-05	3
10298	0.0004	3e-05	0.00013	0	-0.00022	0.00022	-0.00025	-0.00058	3
10299	-0.00012	0.0001	8e-05	-6e-05	-0.00025	-0.00011	-0.00031	0.00023	3
10300	-0.00012	0.0001	8e-05	-6e-05	-0.00025	-0.00011	-0.00031	0.00023	3
10301	-0.00012	0.0001	8e-05	-6e-05	-0.00025	-0.00011	-0.00031	0.00023	3
10302	-0.00012	0.0001	8e-05	-6e-05	-0.00025	-0.00011	-0.00031	0.00023	3
10303	-0.00012	0.0001	8e-05	-6e-05	-0.00025	-0.00011	-0.00031	0.00023	3
10304	-0.00012	0.0001	8e-05	-6e-05	-0.00025	-0.00011	-0.00031	0.00023	3
10305	-0.00012	0.0001	8e-05	-6e-05	-0.00025	-0.00011	-0.00031	0.00023	3
10306	-0.00012	0.0001	8e-05	-6e-05	-0.00025	-0.00011	-0.00031	0.00023	3
10307	-0.00012	0.0001	8e-05	-6e-05	-0.00025	-0.00011	-0.00031	0.00023	3
10308	-0.00012	0.0001	8e-05	-6e-05	-0.00025	-0.00011	-0.00031	0.00023	3
10309	-0.00012	0.0001	8e-05	-6e-05	-0.00025	-0.00011	-0.00031	0.00023	3
10310	-0.00012	0.0001	8e-05	-6e-05	-0.00025	-0.00011	-0.00031	0.00023	3
10311	-0.00093	-0.00042	-0.00013	-0.00018	-0.00046	-0.0005	-0.00039	-0.00019	3
10312	-0.00093	-0.00042	-0.00013	-0.00018	-0.00046	-0.0005	-0.00039	-0.00019	3
10313	-0.00093	-0.00042	-0.00013	-0.00018	-0.00046	-0.0005	-0.00039	-0.00019	3
10314	-0.00093	-0.00042	-0.00013	-0.00018	-0.00046	-0.0005	-0.00039	-0.00019	3
10315	-0.00093	-0.00042	-0.00013	-0.00018	-0.00046	-0.0005	-0.00039	-0.00019	3
10316	-0.00093	-0.00042	-0.00013	-0.00018	-0.00046	-0.0005	-0.00039	-0.00019	3
10317	-0.00093	-0.00042	-0.00013	-0.00018	-0.00046	-0.0005	-0.00039	-0.00019	3
10318	-0.00093	-0.00042	-0.00013	-0.00018	-0.00046	-0.0005	-0.00039	-0.00019	3
10319	-0.00047	0.00013	7e-05	1e-05	0.00025	-0.00013	0.00057	0.00029	3
10320	-8e-05	-0.00016	-6e-05	-0.00016	-0.00042	9e-05	-0.00041	0.00043	3
10321	-8e-05	-0.00016	-6e-05	-0.00016	-0.00042	9e-05	-0.00041	0.00043	3
10322	-8e-05	-0.00016	-6e-05	-0.00016	-0.00042	9e-05	-0.00041	0.00043	3
10323	-8e-05	-0.00016	-6e-05	-0.00016	-0.00042	9e-05	-0.00041	0.00043	3
10324	-8e-05	-0.00016	-6e-05	-0.00016	-0.00042	9e-05	-0.00041	0.00043	3
10325	-8e-05	-0.00016	-6e-05	-0.00016	-0.00042	9e-05	-0.00041	0.00043	3
10326	-8e-05	-0.00016	-6e-05	-0.00016	-0.00042	9e-05	-0.00041	0.00043	3
10327	-8e-05	-0.00016	-6e-05	-0.00016	-0.00042	9e-05	-0.00041	0.00043	3
10328	-8e-05	-0.00016	-6e-05	-0.00016	-0.00042	9e-05	-0.00041	0.00043	3
10329	-8e-05	-0.00016	-6e-05	-0.00016	-0.00042	9e-05	-0.00041	0.00043	3
10330	-8e-05	-0.00016	-6e-05	-0.00016	-0.00042	9e-05	-0.00041	0.00043	3
10331	-8e-05	-0.00016	-6e-05	-0.00016	-0.00042	9e-05	-0.00041	0.00043	3
10332	-8e-05	-0.00016	-6e-05	-0.00016	-0.00042	9e-05	-0.00041	0.00043	3
10333	-8e-05	-0.00016	-6e-05	-0.00016	-0.00042	9e-05	-0.00041	0.00043	3
10334	0.00013	0.00017	7e-05	2e-05	-0.00036	-0.00023	-0.00023	0.0002	3
10335	0.00013	0.00017	7e-05	2e-05	-0.00036	-0.00023	-0.00023	0.0002	3
10336	-0.00057	-0.00027	-0.00013	7e-05	0.00093	0.00051	0.00018	0.00023	3
10338	-0.00057	-0.00027	-0.00013	7e-05	0.00093	0.00051	0.00018	0.00023	3
10339	-0.00057	-0.00027	-0.00013	7e-05	0.00093	0.00051	0.00018	0.00023	3
10340	-0.00057	-0.00027	-0.00013	7e-05	0.00093	0.00051	0.00018	0.00023	3
10341	-0.00057	-0.00027	-0.00013	7e-05	0.00093	0.00051	0.00018	0.00023	3
10342	-0.00057	-0.00027	-0.00013	7e-05	0.00093	0.00051	0.00018	0.00023	3
10343	-0.00057	-0.00027	-0.00013	7e-05	0.00093	0.00051	0.00018	0.00023	3
10344	-0.00057	-0.00027	-0.00013	7e-05	0.00093	0.00051	0.00018	0.00023	3
10345	-0.00057	-0.00027	-0.00013	7e-05	0.00093	0.00051	0.00018	0.00023	3
10346	-0.00057	-0.00027	-0.00013	7e-05	0.00093	0.00051	0.00018	0.00023	3
10347	-0.00057	-0.00027	-0.00013	7e-05	0.00093	0.00051	0.00018	0.00023	3
10348	-0.00057	-0.00027	-0.00013	7e-05	0.00093	0.00051	0.00018	0.00023	3
10349	-0.00057	-0.00027	-0.00013	7e-05	0.00093	0.00051	0.00018	0.00023	3
10350	-0.00057	-0.00027	-0.00013	7e-05	0.00093	0.00051	0.00018	0.00023	3
10351	-0.00057	-0.00027	-0.00013	7e-05	0.00093	0.00051	0.00018	0.00023	3
10352	-0.00057	-0.00027	-0.00013	7e-05	0.00093	0.00051	0.00018	0.00023	3
10353	-0.00057	-0.00027	-0.00013	7e-05	0.00093	0.00051	0.00018	0.00023	3
10354	-0.00057	-0.00027	-0.00013	7e-05	0.00093	0.00051	0.00018	0.00023	3
10355	-0.00057	-0.00027	-0.00013	7e-05	0.00093	0.00051	0.00018	0.00023	3
10356	-0.00057	-0.00027	-0.00013	7e-05	0.00093	0.00051	0.00018	0.00023	3
10357	-0.00051	-0.00013	-5e-05	7e-05	-0.00023	-0.00044	0.00018	-0.00089	3
10358	-0.00051	-0.00013	-5e-05	7e-05	-0.00023	-0.00044	0.00018	-0.00089	3
10359	-0.00039	-0.00023	-0.00018	-7e-05	-0.00023	-0.00048	-0.00017	-0.00035	3
10360	-0.00039	-0.00023	-0.00018	-7e-05	-0.00023	-0.00048	-0.00017	-0.00035	3
10361	-0.00039	-0.00023	-0.00018	-7e-05	-0.00023	-0.00048	-0.00017	-0.00035	3
10362	-0.00039	-0.00023	-0.00018	-7e-05	-0.00023	-0.00048	-0.00017	-0.00035	3
10363	-0.00039	-0.00023	-0.00018	-7e-05	-0.00023	-0.00048	-0.00017	-0.00035	3
10364	-0.00039	-0.00023	-0.00018	-7e-05	-0.00023	-0.00048	-0.00017	-0.00035	3
10365	-0.00039	-0.00023	-0.00018	-7e-05	-0.00023	-0.00048	-0.00017	-0.00035	3
10366	-0.00039	-0.00023	-0.00018	-7e-05	-0.00023	-0.00048	-0.00017	-0.00035	3
10367	-0.00039	-0.00023	-0.00018	-7e-05	-0.00023	-0.00048	-0.00017	-0.00035	3
10368	-0.00039	-0.00023	-0.00018	-7e-05	-0.00023	-0.00048	-0.00017	-0.00035	3
10369	-0.00039	-0.00023	-0.00018	-7e-05	-0.00023	-0.00048	-0.00017	-0.00035	3
10370	-0.00039	-0.00023	-0.00018	-7e-05	-0.00023	-0.00048	-0.00017	-0.00035	3
10371	-0.00011	0.0001	4e-05	6e-05	0.0006	0.00058	0.00042	0.00039	3
10372	-0.00011	0.0001	4e-05	6e-05	0.0006	0.00058	0.00042	0.00039	3
10373	-0.00011	0.0001	4e-05	6e-05	0.0006	0.00058	0.00042	0.00039	3
10374	-0.00011	0.0001	4e-05	6e-05	0.0006	0.00058	0.00042	0.00039	3
10375	-0.00011	0.0001	4e-05	6e-05	0.0006	0.00058	0.00042	0.00039	3
10376	-0.00011	0.0001	4e-05	6e-05	0.0006	0.00058	0.00042	0.00039	3
10377	-0.00011	0.0001	4e-05	6e-05	0.0006	0.00058	0.00042	0.00039	3
10378	-0.00011	0.0001	4e-05	6e-05	0.0006	0.00058	0.00042	0.00039	3
10379	-0.00011	0.0001	4e-05	6e-05	0.0006	0.00058	0.00042	0.00039	3
10380	-0.00011	0.0001	4e-05	6e-05	0.0006	0.00058	0.00042	0.00039	3
10381	-0.00011	0.0001	4e-05	6e-05	0.0006	0.00058	0.00042	0.00039	3
10382	-0.00011	0.0001	4e-05	6e-05	0.0006	0.00058	0.00042	0.00039	3
10383	-0.00011	0.0001	4e-05	6e-05	0.0006	0.00058	0.00042	0.00039	3
10384	-0.00011	0.0001	4e-05	6e-05	0.0006	0.00058	0.00042	0.00039	3
10385	-0.00011	0.0001	4e-05	6e-05	0.0006	0.00058	0.00042	0.00039	3
10386	-0.00011	0.0001	4e-05	6e-05	0.0006	0.00058	0.00042	0.00039	3
10388	0.00014	0	4e-05	9e-05	6e-05	0.00019	-0.00071	-0.00033	3
10389	0.00014	0	4e-05	9e-05	6e-05	0.00019	-0.00071	-0.00033	3
10390	0.00014	0	4e-05	9e-05	6e-05	0.00019	-0.00071	-0.00033	3
10391	0.00014	0	4e-05	9e-05	6e-05	0.00019	-0.00071	-0.00033	3
10392	0.00014	0	4e-05	9e-05	6e-05	0.00019	-0.00071	-0.00033	3
10393	0.00014	0	4e-05	9e-05	6e-05	0.00019	-0.00071	-0.00033	3
10394	0.00014	0	4e-05	9e-05	6e-05	0.00019	-0.00071	-0.00033	3
10395	-0.00015	-0.00024	-6e-05	-0.00011	0.00015	-0.0003	-0.00018	0.00043	3
10396	-0.00018	-0.00021	-8e-05	8e-05	-0.00016	-1e-05	-0.00038	-0.0003	3
10397	-0.00018	-0.00021	-8e-05	8e-05	-0.00016	-1e-05	-0.00038	-0.0003	3
10398	-0.00018	-0.00021	-8e-05	8e-05	-0.00016	-1e-05	-0.00038	-0.0003	3
10399	-0.00018	-0.00021	-8e-05	8e-05	-0.00016	-1e-05	-0.00038	-0.0003	3
10400	-0.00018	-0.00021	-8e-05	8e-05	-0.00016	-1e-05	-0.00038	-0.0003	3
10401	-0.00018	-0.00021	-8e-05	8e-05	-0.00016	-1e-05	-0.00038	-0.0003	3
10402	-0.00018	-0.00021	-8e-05	8e-05	-0.00016	-1e-05	-0.00038	-0.0003	3
10403	-0.00018	-0.00021	-8e-05	8e-05	-0.00016	-1e-05	-0.00038	-0.0003	3
10404	-0.00018	-0.00021	-8e-05	8e-05	-0.00016	-1e-05	-0.00038	-0.0003	3
10405	-0.00018	-0.00021	-8e-05	8e-05	-0.00016	-1e-05	-0.00038	-0.0003	3
10406	-0.00018	-0.00021	-8e-05	8e-05	-0.00016	-1e-05	-0.00038	-0.0003	3
10407	-0.00018	-0.00021	-8e-05	8e-05	-0.00016	-1e-05	-0.00038	-0.0003	3
10408	-0.00018	-0.00021	-8e-05	8e-05	-0.00016	-1e-05	-0.00038	-0.0003	3
10409	-0.00018	-0.00021	-8e-05	8e-05	-0.00016	-1e-05	-0.00038	-0.0003	3
10410	-0.00018	-0.00021	-8e-05	8e-05	-0.00016	-1e-05	-0.00038	-0.0003	3
10411	-0.00018	-0.00021	-8e-05	8e-05	-0.00016	-1e-05	-0.00038	-0.0003	3
10412	-0.00018	-0.00021	-8e-05	8e-05	-0.00016	-1e-05	-0.00038	-0.0003	3
10413	-0.00018	-0.00021	-8e-05	8e-05	-0.00016	-1e-05	-0.00038	-0.0003	3
10414	-0.00018	-0.00021	-8e-05	8e-05	-0.00016	-1e-05	-0.00038	-0.0003	3
10415	-0.00018	-0.00021	-8e-05	8e-05	-0.00016	-1e-05	-0.00038	-0.0003	3
10416	-0.00018	-0.00021	-8e-05	8e-05	-0.00016	-1e-05	-0.00038	-0.0003	3
10417	0.00086	0.0003	-4e-05	-0.00022	-0.00093	-0.00024	0.00011	0.00015	3
10418	0.0002	-0.00012	0.00016	0.00048	0.00127	0.00011	-0.00075	-0.00071	3
10419	0.00048	-7e-05	-8e-05	-0.00022	-0.0007	-0.0002	0.00037	0.00022	3
10420	0.00048	-7e-05	-8e-05	-0.00022	-0.0007	-0.0002	0.00037	0.00022	3
10421	0.00048	-7e-05	-8e-05	-0.00022	-0.0007	-0.0002	0.00037	0.00022	3
10422	0.00048	-7e-05	-8e-05	-0.00022	-0.0007	-0.0002	0.00037	0.00022	3
10423	0.00048	-7e-05	-8e-05	-0.00022	-0.0007	-0.0002	0.00037	0.00022	3
10424	0.00048	-7e-05	-8e-05	-0.00022	-0.0007	-0.0002	0.00037	0.00022	3
10425	0.00048	-7e-05	-8e-05	-0.00022	-0.0007	-0.0002	0.00037	0.00022	3
10426	0.00048	-7e-05	-8e-05	-0.00022	-0.0007	-0.0002	0.00037	0.00022	3
10427	0.00048	-7e-05	-8e-05	-0.00022	-0.0007	-0.0002	0.00037	0.00022	3
10428	0.00048	-7e-05	-8e-05	-0.00022	-0.0007	-0.0002	0.00037	0.00022	3
10429	0.00048	-7e-05	-8e-05	-0.00022	-0.0007	-0.0002	0.00037	0.00022	3
10430	0.00048	-7e-05	-8e-05	-0.00022	-0.0007	-0.0002	0.00037	0.00022	3
10431	0.00048	-7e-05	-8e-05	-0.00022	-0.0007	-0.0002	0.00037	0.00022	3
10432	0.00048	-7e-05	-8e-05	-0.00022	-0.0007	-0.0002	0.00037	0.00022	3
10433	0.00048	-7e-05	-8e-05	-0.00022	-0.0007	-0.0002	0.00037	0.00022	3
10434	0.00048	-7e-05	-8e-05	-0.00022	-0.0007	-0.0002	0.00037	0.00022	3
10435	0.00048	-7e-05	-8e-05	-0.00022	-0.0007	-0.0002	0.00037	0.00022	3
10436	0.00048	-7e-05	-8e-05	-0.00022	-0.0007	-0.0002	0.00037	0.00022	3
10438	0.00048	-7e-05	-8e-05	-0.00022	-0.0007	-0.0002	0.00037	0.00022	3
10439	-0.00078	-0.00018	-8e-05	-0.00022	-0.00058	-6e-05	0.00062	0.00058	3
10440	-0.00078	-0.00018	-8e-05	-0.00022	-0.00058	-6e-05	0.00062	0.00058	3
10441	-0.00078	-0.00018	-8e-05	-0.00022	-0.00058	-6e-05	0.00062	0.00058	3
10442	-0.00078	-0.00018	-8e-05	-0.00022	-0.00058	-6e-05	0.00062	0.00058	3
10443	-0.00078	-0.00018	-8e-05	-0.00022	-0.00058	-6e-05	0.00062	0.00058	3
10444	-0.00078	-0.00018	-8e-05	-0.00022	-0.00058	-6e-05	0.00062	0.00058	3
10445	-0.00078	-0.00018	-8e-05	-0.00022	-0.00058	-6e-05	0.00062	0.00058	3
10446	-0.00078	-0.00018	-8e-05	-0.00022	-0.00058	-6e-05	0.00062	0.00058	3
10447	-0.00046	-0.00022	0.00011	-4e-05	-0.00053	3e-05	0.00026	-0.00032	3
10448	-0.00046	-0.00022	0.00011	-4e-05	-0.00053	3e-05	0.00026	-0.00032	3
10449	-0.00046	-0.00022	0.00011	-4e-05	-0.00053	3e-05	0.00026	-0.00032	3
10450	-0.00046	-0.00022	0.00011	-4e-05	-0.00053	3e-05	0.00026	-0.00032	3
10451	-0.00046	-0.00022	0.00011	-4e-05	-0.00053	3e-05	0.00026	-0.00032	3
10452	-0.00046	-0.00022	0.00011	-4e-05	-0.00053	3e-05	0.00026	-0.00032	3
10453	-0.00046	-0.00022	0.00011	-4e-05	-0.00053	3e-05	0.00026	-0.00032	3
10454	-0.00046	-0.00022	0.00011	-4e-05	-0.00053	3e-05	0.00026	-0.00032	3
10455	-0.00046	-0.00022	0.00011	-4e-05	-0.00053	3e-05	0.00026	-0.00032	3
10456	-0.00046	-0.00022	0.00011	-4e-05	-0.00053	3e-05	0.00026	-0.00032	3
10457	-0.00046	-0.00022	0.00011	-4e-05	-0.00053	3e-05	0.00026	-0.00032	3
10458	-0.00046	-0.00022	0.00011	-4e-05	-0.00053	3e-05	0.00026	-0.00032	3
10459	-0.00046	-0.00022	0.00011	-4e-05	-0.00053	3e-05	0.00026	-0.00032	3
10460	-0.00046	-0.00022	0.00011	-4e-05	-0.00053	3e-05	0.00026	-0.00032	3
10461	-0.00046	-0.00022	0.00011	-4e-05	-0.00053	3e-05	0.00026	-0.00032	3
10462	0.00047	0.00027	-0.00013	-0.00023	-0.00043	-0.00044	-0.00106	-0.00065	3
10463	0.00047	0.00027	-0.00013	-0.00023	-0.00043	-0.00044	-0.00106	-0.00065	3
10464	0.00024	0.00036	4e-05	0.0001	-0.00027	0	0.00023	0.00079	3
10465	0.00024	0.00036	4e-05	0.0001	-0.00027	0	0.00023	0.00079	3
10466	0.00024	0.00036	4e-05	0.0001	-0.00027	0	0.00023	0.00079	3
10467	0.00024	0.00036	4e-05	0.0001	-0.00027	0	0.00023	0.00079	3
10468	0.00024	0.00036	4e-05	0.0001	-0.00027	0	0.00023	0.00079	3
10469	0.00024	0.00036	4e-05	0.0001	-0.00027	0	0.00023	0.00079	3
10470	0.00024	0.00036	4e-05	0.0001	-0.00027	0	0.00023	0.00079	3
10471	0.00024	0.00036	4e-05	0.0001	-0.00027	0	0.00023	0.00079	3
10472	0.00024	0.00036	4e-05	0.0001	-0.00027	0	0.00023	0.00079	3
10473	0.00024	0.00036	4e-05	0.0001	-0.00027	0	0.00023	0.00079	3
10474	0.00024	0.00036	4e-05	0.0001	-0.00027	0	0.00023	0.00079	3
10475	0.00024	0.00036	4e-05	0.0001	-0.00027	0	0.00023	0.00079	3
10476	0.00024	0.00036	4e-05	0.0001	-0.00027	0	0.00023	0.00079	3
10477	0.00024	0.00036	4e-05	0.0001	-0.00027	0	0.00023	0.00079	3
10478	-0.00043	-0.00028	-0.00014	-0.00017	-0.00048	-0.00028	-0.00025	-0.0004	3
10479	0.00017	-0.0001	0.00012	0.00017	0.0003	-3e-05	2e-05	0.00017	3
10480	0.00017	-0.0001	0.00012	0.00017	0.0003	-3e-05	2e-05	0.00017	3
10481	0.00017	-0.0001	0.00012	0.00017	0.0003	-3e-05	2e-05	0.00017	3
10482	0.00017	-0.0001	0.00012	0.00017	0.0003	-3e-05	2e-05	0.00017	3
10483	0.00017	-0.0001	0.00012	0.00017	0.0003	-3e-05	2e-05	0.00017	3
10484	0.00017	-0.0001	0.00012	0.00017	0.0003	-3e-05	2e-05	0.00017	3
10485	0.00017	-0.0001	0.00012	0.00017	0.0003	-3e-05	2e-05	0.00017	3
10486	0.00017	-0.0001	0.00012	0.00017	0.0003	-3e-05	2e-05	0.00017	3
10488	0.00017	-0.0001	0.00012	0.00017	0.0003	-3e-05	2e-05	0.00017	3
10489	0.00017	-0.0001	0.00012	0.00017	0.0003	-3e-05	2e-05	0.00017	3
10490	0.00017	-0.0001	0.00012	0.00017	0.0003	-3e-05	2e-05	0.00017	3
10491	0.00017	-0.0001	0.00012	0.00017	0.0003	-3e-05	2e-05	0.00017	3
10492	0.00017	-0.0001	0.00012	0.00017	0.0003	-3e-05	2e-05	0.00017	3
10493	0.00017	-0.0001	0.00012	0.00017	0.0003	-3e-05	2e-05	0.00017	3
10494	0.00017	-0.0001	0.00012	0.00017	0.0003	-3e-05	2e-05	0.00017	3
10495	0.00017	-0.0001	0.00012	0.00017	0.0003	-3e-05	2e-05	0.00017	3
10496	0.00017	-0.0001	0.00012	0.00017	0.0003	-3e-05	2e-05	0.00017	3
10497	0.00017	-0.0001	0.00012	0.00017	0.0003	-3e-05	2e-05	0.00017	3
10498	0.00017	-0.0001	0.00012	0.00017	0.0003	-3e-05	2e-05	0.00017	3
10499	-0.00054	-3e-05	-0.00015	0	0.0001	0.00036	-0.00017	-0.00097	3
10500	5e-05	7e-05	-2e-05	0	0.00017	7e-05	8e-05	8e-05	3
10501	0.00097	0.00033	-8e-05	-0.00018	0.0002	3e-05	0.00038	-0.00064	3
10502	0.00097	0.00033	-8e-05	-0.00018	0.0002	3e-05	0.00038	-0.00064	3
10503	0.00097	0.00033	-8e-05	-0.00018	0.0002	3e-05	0.00038	-0.00064	3
10504	0.00097	0.00033	-8e-05	-0.00018	0.0002	3e-05	0.00038	-0.00064	3
10505	0.00097	0.00033	-8e-05	-0.00018	0.0002	3e-05	0.00038	-0.00064	3
10506	0.00097	0.00033	-8e-05	-0.00018	0.0002	3e-05	0.00038	-0.00064	3
10507	0.00097	0.00033	-8e-05	-0.00018	0.0002	3e-05	0.00038	-0.00064	3
10508	0.00097	0.00033	-8e-05	-0.00018	0.0002	3e-05	0.00038	-0.00064	3
10509	0.00097	0.00033	-8e-05	-0.00018	0.0002	3e-05	0.00038	-0.00064	3
10510	0.00097	0.00033	-8e-05	-0.00018	0.0002	3e-05	0.00038	-0.00064	3
10511	0.00097	0.00033	-8e-05	-0.00018	0.0002	3e-05	0.00038	-0.00064	3
10512	0.00097	0.00033	-8e-05	-0.00018	0.0002	3e-05	0.00038	-0.00064	3
10513	0.00097	0.00033	-8e-05	-0.00018	0.0002	3e-05	0.00038	-0.00064	3
10514	6e-05	-0.00017	0.0002	0.00016	0.00022	0.00042	0.00082	-0.00037	3
10515	6e-05	-0.00017	0.0002	0.00016	0.00022	0.00042	0.00082	-0.00037	3
10516	-0.00021	1e-05	-1e-05	-0.00012	-0.00013	-0.0001	0.00016	-0.00027	3
10517	-0.00021	1e-05	-1e-05	-0.00012	-0.00013	-0.0001	0.00016	-0.00027	3
10518	-0.00021	1e-05	-1e-05	-0.00012	-0.00013	-0.0001	0.00016	-0.00027	3
10519	-0.00021	1e-05	-1e-05	-0.00012	-0.00013	-0.0001	0.00016	-0.00027	3
10520	-0.00021	1e-05	-1e-05	-0.00012	-0.00013	-0.0001	0.00016	-0.00027	3
10521	-0.00021	1e-05	-1e-05	-0.00012	-0.00013	-0.0001	0.00016	-0.00027	3
10522	-0.00021	1e-05	-1e-05	-0.00012	-0.00013	-0.0001	0.00016	-0.00027	3
10523	-0.00021	1e-05	-1e-05	-0.00012	-0.00013	-0.0001	0.00016	-0.00027	3
10524	-0.00021	1e-05	-1e-05	-0.00012	-0.00013	-0.0001	0.00016	-0.00027	3
10525	-0.00021	1e-05	-1e-05	-0.00012	-0.00013	-0.0001	0.00016	-0.00027	3
10526	-0.00021	1e-05	-1e-05	-0.00012	-0.00013	-0.0001	0.00016	-0.00027	3
10527	-0.00021	1e-05	-1e-05	-0.00012	-0.00013	-0.0001	0.00016	-0.00027	3
10528	-0.00021	1e-05	-1e-05	-0.00012	-0.00013	-0.0001	0.00016	-0.00027	3
10529	-0.00021	1e-05	-1e-05	-0.00012	-0.00013	-0.0001	0.00016	-0.00027	3
10530	-0.00021	1e-05	-1e-05	-0.00012	-0.00013	-0.0001	0.00016	-0.00027	3
10531	-0.00021	1e-05	-1e-05	-0.00012	-0.00013	-0.0001	0.00016	-0.00027	3
10532	-0.00021	1e-05	-1e-05	-0.00012	-0.00013	-0.0001	0.00016	-0.00027	3
10533	-0.00021	1e-05	-1e-05	-0.00012	-0.00013	-0.0001	0.00016	-0.00027	3
10534	-0.00021	1e-05	-1e-05	-0.00012	-0.00013	-0.0001	0.00016	-0.00027	3
10535	-0.00021	1e-05	-1e-05	-0.00012	-0.00013	-0.0001	0.00016	-0.00027	3
10536	-0.00021	1e-05	-1e-05	-0.00012	-0.00013	-0.0001	0.00016	-0.00027	3
10538	0.0005	0.00015	4e-05	0.00039	0.00106	0.00058	0.00039	0.00011	3
10539	-0.00064	-0.00026	6e-05	0.00029	0.00067	0.00069	0.00063	0.00076	3
10540	-0.00064	-0.00026	6e-05	0.00029	0.00067	0.00069	0.00063	0.00076	3
10541	-0.00064	-0.00026	6e-05	0.00029	0.00067	0.00069	0.00063	0.00076	3
10542	-0.00064	-0.00026	6e-05	0.00029	0.00067	0.00069	0.00063	0.00076	3
10543	-0.00064	-0.00026	6e-05	0.00029	0.00067	0.00069	0.00063	0.00076	3
10544	-0.00064	-0.00026	6e-05	0.00029	0.00067	0.00069	0.00063	0.00076	3
10545	-0.00064	-0.00026	6e-05	0.00029	0.00067	0.00069	0.00063	0.00076	3
10546	-0.00064	-0.00026	6e-05	0.00029	0.00067	0.00069	0.00063	0.00076	3
10547	-0.00064	-0.00026	6e-05	0.00029	0.00067	0.00069	0.00063	0.00076	3
10548	-0.00064	-0.00026	6e-05	0.00029	0.00067	0.00069	0.00063	0.00076	3
10549	-0.00064	-0.00026	6e-05	0.00029	0.00067	0.00069	0.00063	0.00076	3
10550	-0.00064	-0.00026	6e-05	0.00029	0.00067	0.00069	0.00063	0.00076	3
10551	-0.00064	-0.00026	6e-05	0.00029	0.00067	0.00069	0.00063	0.00076	3
10552	-0.00064	-0.00026	6e-05	0.00029	0.00067	0.00069	0.00063	0.00076	3
10553	-0.00064	-0.00026	6e-05	0.00029	0.00067	0.00069	0.00063	0.00076	3
10554	-0.00064	-0.00026	6e-05	0.00029	0.00067	0.00069	0.00063	0.00076	3
10555	-0.00064	-0.00026	6e-05	0.00029	0.00067	0.00069	0.00063	0.00076	3
10556	-0.00064	-0.00026	6e-05	0.00029	0.00067	0.00069	0.00063	0.00076	3
10557	-0.00064	-0.00026	6e-05	0.00029	0.00067	0.00069	0.00063	0.00076	3
10558	-0.00064	-0.00026	6e-05	0.00029	0.00067	0.00069	0.00063	0.00076	3
10559	-3e-05	-8e-05	-3e-05	-0.00014	-0.00036	-0.00027	-0.00039	0	3
10560	0.00065	9e-05	3e-05	-2e-05	-0.00038	-0.00036	-0.00013	-0.00041	3
10561	-0.0004	0.00011	-6e-05	-0.00026	-0.00052	0.00023	-0.00032	0.00014	3
10562	-0.0004	0.00011	-6e-05	-0.00026	-0.00052	0.00023	-0.00032	0.00014	3
10563	-0.0004	0.00011	-6e-05	-0.00026	-0.00052	0.00023	-0.00032	0.00014	3
10564	-0.0004	0.00011	-6e-05	-0.00026	-0.00052	0.00023	-0.00032	0.00014	3
10565	-0.0004	0.00011	-6e-05	-0.00026	-0.00052	0.00023	-0.00032	0.00014	3
10566	-0.0004	0.00011	-6e-05	-0.00026	-0.00052	0.00023	-0.00032	0.00014	3
10567	-0.0004	0.00011	-6e-05	-0.00026	-0.00052	0.00023	-0.00032	0.00014	3
10568	-0.0004	0.00011	-6e-05	-0.00026	-0.00052	0.00023	-0.00032	0.00014	3
10569	-0.0004	0.00011	-6e-05	-0.00026	-0.00052	0.00023	-0.00032	0.00014	3
10570	-0.0004	0.00011	-6e-05	-0.00026	-0.00052	0.00023	-0.00032	0.00014	3
10571	-0.0004	0.00011	-6e-05	-0.00026	-0.00052	0.00023	-0.00032	0.00014	3
10572	-0.0004	0.00011	-6e-05	-0.00026	-0.00052	0.00023	-0.00032	0.00014	3
10573	-0.0004	0.00011	-6e-05	-0.00026	-0.00052	0.00023	-0.00032	0.00014	3
10574	0.00029	-6e-05	-0.0001	-0.00021	-0.00032	-0.00035	-0.00052	0.00023	3
10575	0.00029	-6e-05	-0.0001	-0.00021	-0.00032	-0.00035	-0.00052	0.00023	3
10576	0.00029	-6e-05	-0.0001	-0.00021	-0.00032	-0.00035	-0.00052	0.00023	3
10577	0.00029	-6e-05	-0.0001	-0.00021	-0.00032	-0.00035	-0.00052	0.00023	3
10578	0.00029	-6e-05	-0.0001	-0.00021	-0.00032	-0.00035	-0.00052	0.00023	3
10579	0.00029	-6e-05	-0.0001	-0.00021	-0.00032	-0.00035	-0.00052	0.00023	3
10580	0.00029	-6e-05	-0.0001	-0.00021	-0.00032	-0.00035	-0.00052	0.00023	3
10581	0.00029	-6e-05	-0.0001	-0.00021	-0.00032	-0.00035	-0.00052	0.00023	3
10582	0.00029	-6e-05	-0.0001	-0.00021	-0.00032	-0.00035	-0.00052	0.00023	3
10583	0.00029	-6e-05	-0.0001	-0.00021	-0.00032	-0.00035	-0.00052	0.00023	3
10584	0.00029	-6e-05	-0.0001	-0.00021	-0.00032	-0.00035	-0.00052	0.00023	3
10585	0.00029	-6e-05	-0.0001	-0.00021	-0.00032	-0.00035	-0.00052	0.00023	3
10586	0.00029	-6e-05	-0.0001	-0.00021	-0.00032	-0.00035	-0.00052	0.00023	3
10588	0.00029	-6e-05	-0.0001	-0.00021	-0.00032	-0.00035	-0.00052	0.00023	3
10589	0.00058	0	-5e-05	-9e-05	-0.00019	-5e-05	-0.00032	0.00044	3
10590	0.00058	0	-5e-05	-9e-05	-0.00019	-5e-05	-0.00032	0.00044	3
10591	0.00058	0	-5e-05	-9e-05	-0.00019	-5e-05	-0.00032	0.00044	3
10592	0.00058	0	-5e-05	-9e-05	-0.00019	-5e-05	-0.00032	0.00044	3
10593	0.00058	0	-5e-05	-9e-05	-0.00019	-5e-05	-0.00032	0.00044	3
10594	0.00058	0	-5e-05	-9e-05	-0.00019	-5e-05	-0.00032	0.00044	3
10595	0.00058	0	-5e-05	-9e-05	-0.00019	-5e-05	-0.00032	0.00044	3
10596	0.00058	0	-5e-05	-9e-05	-0.00019	-5e-05	-0.00032	0.00044	3
10597	-0.00015	-0.00012	8e-05	0.00011	0.00037	6e-05	-0.00035	0.00037	3
10598	-0.00041	-0.00018	-0.00014	8e-05	0.00061	8e-05	-0.0004	-0.00017	3
10599	-0.00041	-0.00018	-0.00014	8e-05	0.00061	8e-05	-0.0004	-0.00017	3
10600	-0.00041	-0.00018	-0.00014	8e-05	0.00061	8e-05	-0.0004	-0.00017	3
10601	-0.00041	-0.00018	-0.00014	8e-05	0.00061	8e-05	-0.0004	-0.00017	3
10602	-0.00041	-0.00018	-0.00014	8e-05	0.00061	8e-05	-0.0004	-0.00017	3
10603	-0.00041	-0.00018	-0.00014	8e-05	0.00061	8e-05	-0.0004	-0.00017	3
10604	-0.00041	-0.00018	-0.00014	8e-05	0.00061	8e-05	-0.0004	-0.00017	3
10605	-0.00041	-0.00018	-0.00014	8e-05	0.00061	8e-05	-0.0004	-0.00017	3
10606	-0.00041	-0.00018	-0.00014	8e-05	0.00061	8e-05	-0.0004	-0.00017	3
10607	-0.00041	-0.00018	-0.00014	8e-05	0.00061	8e-05	-0.0004	-0.00017	3
10608	-0.00041	-0.00018	-0.00014	8e-05	0.00061	8e-05	-0.0004	-0.00017	3
10609	-0.00041	-0.00018	-0.00014	8e-05	0.00061	8e-05	-0.0004	-0.00017	3
10610	-0.00041	-0.00018	-0.00014	8e-05	0.00061	8e-05	-0.0004	-0.00017	3
10611	-0.00041	-0.00018	-0.00014	8e-05	0.00061	8e-05	-0.0004	-0.00017	3
10612	-0.00041	-0.00018	-0.00014	8e-05	0.00061	8e-05	-0.0004	-0.00017	3
10613	-0.00041	-0.00018	-0.00014	8e-05	0.00061	8e-05	-0.0004	-0.00017	3
10614	-0.00041	-0.00018	-0.00014	8e-05	0.00061	8e-05	-0.0004	-0.00017	3
10615	-0.00041	-0.00018	-0.00014	8e-05	0.00061	8e-05	-0.0004	-0.00017	3
10616	-0.00041	-0.00018	-0.00014	8e-05	0.00061	8e-05	-0.0004	-0.00017	3
10617	-0.00041	-0.00018	-0.00014	8e-05	0.00061	8e-05	-0.0004	-0.00017	3
10618	-0.00041	-0.00018	-0.00014	8e-05	0.00061	8e-05	-0.0004	-0.00017	3
10619	0.00022	-1e-05	4e-05	0.00014	0.00015	0.00013	0.00019	-0.00025	3
10620	-4e-05	-1e-05	5e-05	0.00016	-0.0001	-0.00039	-0.00011	0.0002	3
10621	5e-05	-0.00022	-3e-05	-0.00015	-0.0003	-0.00033	9e-05	-0.00061	3
10622	5e-05	-0.00022	-3e-05	-0.00015	-0.0003	-0.00033	9e-05	-0.00061	3
10623	5e-05	-0.00022	-3e-05	-0.00015	-0.0003	-0.00033	9e-05	-0.00061	3
10624	5e-05	-0.00022	-3e-05	-0.00015	-0.0003	-0.00033	9e-05	-0.00061	3
10625	5e-05	-0.00022	-3e-05	-0.00015	-0.0003	-0.00033	9e-05	-0.00061	3
10626	5e-05	-0.00022	-3e-05	-0.00015	-0.0003	-0.00033	9e-05	-0.00061	3
10627	5e-05	-0.00022	-3e-05	-0.00015	-0.0003	-0.00033	9e-05	-0.00061	3
10628	5e-05	-0.00022	-3e-05	-0.00015	-0.0003	-0.00033	9e-05	-0.00061	3
10629	5e-05	-0.00022	-3e-05	-0.00015	-0.0003	-0.00033	9e-05	-0.00061	3
10630	5e-05	-0.00022	-3e-05	-0.00015	-0.0003	-0.00033	9e-05	-0.00061	3
10631	5e-05	-0.00022	-3e-05	-0.00015	-0.0003	-0.00033	9e-05	-0.00061	3
10632	5e-05	-0.00022	-3e-05	-0.00015	-0.0003	-0.00033	9e-05	-0.00061	3
10633	5e-05	-0.00022	-3e-05	-0.00015	-0.0003	-0.00033	9e-05	-0.00061	3
10634	0.00053	-3e-05	-0.00016	-0.00011	5e-05	-0.00047	0.0002	-0.00012	3
10635	0.00053	-3e-05	-0.00016	-0.00011	5e-05	-0.00047	0.0002	-0.00012	3
10636	0.00053	-3e-05	-0.00016	-0.00011	5e-05	-0.00047	0.0002	-0.00012	3
10638	0.00053	-3e-05	-0.00016	-0.00011	5e-05	-0.00047	0.0002	-0.00012	3
10639	0.00053	-3e-05	-0.00016	-0.00011	5e-05	-0.00047	0.0002	-0.00012	3
10640	0.00053	-3e-05	-0.00016	-0.00011	5e-05	-0.00047	0.0002	-0.00012	3
10641	-0.00014	0.00029	5e-05	-8e-05	-0.00032	-0.00027	-0.00064	-0.00068	3
10642	-0.00014	0.00029	5e-05	-8e-05	-0.00032	-0.00027	-0.00064	-0.00068	3
10643	-0.00014	0.00029	5e-05	-8e-05	-0.00032	-0.00027	-0.00064	-0.00068	3
10644	-0.00014	0.00029	5e-05	-8e-05	-0.00032	-0.00027	-0.00064	-0.00068	3
10645	-0.00014	0.00029	5e-05	-8e-05	-0.00032	-0.00027	-0.00064	-0.00068	3
10646	-0.00014	0.00029	5e-05	-8e-05	-0.00032	-0.00027	-0.00064	-0.00068	3
10647	-0.00014	0.00029	5e-05	-8e-05	-0.00032	-0.00027	-0.00064	-0.00068	3
10648	-0.00014	0.00029	5e-05	-8e-05	-0.00032	-0.00027	-0.00064	-0.00068	3
10649	-0.00014	0.00029	5e-05	-8e-05	-0.00032	-0.00027	-0.00064	-0.00068	3
10650	-0.00014	0.00029	5e-05	-8e-05	-0.00032	-0.00027	-0.00064	-0.00068	3
10651	-0.00014	0.00029	5e-05	-8e-05	-0.00032	-0.00027	-0.00064	-0.00068	3
10652	-0.00014	0.00029	5e-05	-8e-05	-0.00032	-0.00027	-0.00064	-0.00068	3
10653	-0.00014	0.00029	5e-05	-8e-05	-0.00032	-0.00027	-0.00064	-0.00068	3
10654	-0.00014	0.00029	5e-05	-8e-05	-0.00032	-0.00027	-0.00064	-0.00068	3
10655	-0.00014	0.00029	5e-05	-8e-05	-0.00032	-0.00027	-0.00064	-0.00068	3
10656	-0.00014	0.00029	5e-05	-8e-05	-0.00032	-0.00027	-0.00064	-0.00068	3
10657	-0.00014	0.00029	5e-05	-8e-05	-0.00032	-0.00027	-0.00064	-0.00068	3
10658	-0.00014	0.00029	5e-05	-8e-05	-0.00032	-0.00027	-0.00064	-0.00068	3
10659	-0.00014	0.00029	5e-05	-8e-05	-0.00032	-0.00027	-0.00064	-0.00068	3
10660	-0.00014	0.00029	5e-05	-8e-05	-0.00032	-0.00027	-0.00064	-0.00068	3
10661	-0.00014	0.00029	5e-05	-8e-05	-0.00032	-0.00027	-0.00064	-0.00068	3
10662	-0.00014	0.00029	5e-05	-8e-05	-0.00032	-0.00027	-0.00064	-0.00068	3
10663	-0.00014	0.00029	5e-05	-8e-05	-0.00032	-0.00027	-0.00064	-0.00068	3
10664	-0.00014	0.00029	5e-05	-8e-05	-0.00032	-0.00027	-0.00064	-0.00068	3
10665	2e-05	-0.00014	-4e-05	-0.0001	0.0001	6e-05	-0.00033	-0.00019	3
10666	0.0002	0.00018	-5e-05	2e-05	0.00021	-3e-05	0.00036	-5e-05	3
10667	0.0002	0.00018	-5e-05	2e-05	0.00021	-3e-05	0.00036	-5e-05	3
10668	0.0002	0.00018	-5e-05	2e-05	0.00021	-3e-05	0.00036	-5e-05	3
10669	0.0002	0.00018	-5e-05	2e-05	0.00021	-3e-05	0.00036	-5e-05	3
10670	0.0002	0.00018	-5e-05	2e-05	0.00021	-3e-05	0.00036	-5e-05	3
10671	0.0002	0.00018	-5e-05	2e-05	0.00021	-3e-05	0.00036	-5e-05	3
10672	0.0002	0.00018	-5e-05	2e-05	0.00021	-3e-05	0.00036	-5e-05	3
10673	0.0002	0.00018	-5e-05	2e-05	0.00021	-3e-05	0.00036	-5e-05	3
10674	0.0002	0.00018	-5e-05	2e-05	0.00021	-3e-05	0.00036	-5e-05	3
10675	0.0002	0.00018	-5e-05	2e-05	0.00021	-3e-05	0.00036	-5e-05	3
10676	0.0002	0.00018	-5e-05	2e-05	0.00021	-3e-05	0.00036	-5e-05	3
10677	0.0002	0.00018	-5e-05	2e-05	0.00021	-3e-05	0.00036	-5e-05	3
10678	0.0002	0.00018	-5e-05	2e-05	0.00021	-3e-05	0.00036	-5e-05	3
10679	0.0002	0.00018	-5e-05	2e-05	0.00021	-3e-05	0.00036	-5e-05	3
10680	0.0002	0.00018	-5e-05	2e-05	0.00021	-3e-05	0.00036	-5e-05	3
10681	0.0002	0.00018	-5e-05	2e-05	0.00021	-3e-05	0.00036	-5e-05	3
10682	0.0002	0.00018	-5e-05	2e-05	0.00021	-3e-05	0.00036	-5e-05	3
10683	0.0002	0.00018	-5e-05	2e-05	0.00021	-3e-05	0.00036	-5e-05	3
10684	0.0002	0.00018	-5e-05	2e-05	0.00021	-3e-05	0.00036	-5e-05	3
10685	0.0002	0.00018	-5e-05	2e-05	0.00021	-3e-05	0.00036	-5e-05	3
10686	0.0002	0.00018	-5e-05	2e-05	0.00021	-3e-05	0.00036	-5e-05	3
10688	-9e-05	-8e-05	4e-05	0.00018	0.00023	0.00046	0.00023	0.0006	3
10689	0	0.00017	-1e-05	2e-05	-0.0002	0.00015	0.00016	1e-05	3
10690	0	0.00017	-1e-05	2e-05	-0.0002	0.00015	0.00016	1e-05	3
10691	0	0.00017	-1e-05	2e-05	-0.0002	0.00015	0.00016	1e-05	3
10692	0	0.00017	-1e-05	2e-05	-0.0002	0.00015	0.00016	1e-05	3
10693	0	0.00017	-1e-05	2e-05	-0.0002	0.00015	0.00016	1e-05	3
10694	-0.0001	4e-05	0.00015	1e-05	-8e-05	-4e-05	0.00071	0.00023	3
10695	-0.0001	4e-05	0.00015	1e-05	-8e-05	-4e-05	0.00071	0.00023	3
10696	-0.0001	4e-05	0.00015	1e-05	-8e-05	-4e-05	0.00071	0.00023	3
10697	-0.0001	4e-05	0.00015	1e-05	-8e-05	-4e-05	0.00071	0.00023	3
10698	-0.0001	4e-05	0.00015	1e-05	-8e-05	-4e-05	0.00071	0.00023	3
10699	-0.0001	4e-05	0.00015	1e-05	-8e-05	-4e-05	0.00071	0.00023	3
10700	-0.00018	-7e-05	-0.00015	-7e-05	-0.00022	0.00015	-0.00051	0.00041	3
10701	2e-05	0.00015	0.00012	0.0002	0.00049	-2e-05	0.00016	0.00046	3
10702	2e-05	0.00015	0.00012	0.0002	0.00049	-2e-05	0.00016	0.00046	3
10703	2e-05	0.00015	0.00012	0.0002	0.00049	-2e-05	0.00016	0.00046	3
10704	2e-05	0.00015	0.00012	0.0002	0.00049	-2e-05	0.00016	0.00046	3
10705	2e-05	0.00015	0.00012	0.0002	0.00049	-2e-05	0.00016	0.00046	3
10706	2e-05	0.00015	0.00012	0.0002	0.00049	-2e-05	0.00016	0.00046	3
10707	2e-05	0.00015	0.00012	0.0002	0.00049	-2e-05	0.00016	0.00046	3
10708	2e-05	0.00015	0.00012	0.0002	0.00049	-2e-05	0.00016	0.00046	3
10709	2e-05	0.00015	0.00012	0.0002	0.00049	-2e-05	0.00016	0.00046	3
10710	2e-05	0.00015	0.00012	0.0002	0.00049	-2e-05	0.00016	0.00046	3
10711	2e-05	0.00015	0.00012	0.0002	0.00049	-2e-05	0.00016	0.00046	3
10712	2e-05	0.00015	0.00012	0.0002	0.00049	-2e-05	0.00016	0.00046	3
10713	2e-05	0.00015	0.00012	0.0002	0.00049	-2e-05	0.00016	0.00046	3
10714	2e-05	0.00015	0.00012	0.0002	0.00049	-2e-05	0.00016	0.00046	3
10715	2e-05	0.00015	0.00012	0.0002	0.00049	-2e-05	0.00016	0.00046	3
10716	2e-05	0.00015	0.00012	0.0002	0.00049	-2e-05	0.00016	0.00046	3
10717	-0.00076	-8e-05	0.00015	3e-05	0.00047	1e-05	0.00017	0.0004	3
10718	-0.00076	-8e-05	0.00015	3e-05	0.00047	1e-05	0.00017	0.0004	3
10719	-0.00076	-8e-05	0.00015	3e-05	0.00047	1e-05	0.00017	0.0004	3
10720	-0.00076	-8e-05	0.00015	3e-05	0.00047	1e-05	0.00017	0.0004	3
10721	-0.00076	-8e-05	0.00015	3e-05	0.00047	1e-05	0.00017	0.0004	3
10722	-0.00076	-8e-05	0.00015	3e-05	0.00047	1e-05	0.00017	0.0004	3
10723	-0.00076	-8e-05	0.00015	3e-05	0.00047	1e-05	0.00017	0.0004	3
10724	0.0003	0.00017	7e-05	0.00014	-2e-05	0.00023	-3e-05	0.0004	3
10725	0.00052	-2e-05	0.00013	0.00021	0.00044	0.00038	0.00038	-0.00118	3
10726	0.00052	-2e-05	0.00013	0.00021	0.00044	0.00038	0.00038	-0.00118	3
10727	0.00052	-2e-05	0.00013	0.00021	0.00044	0.00038	0.00038	-0.00118	3
10728	0.00052	-2e-05	0.00013	0.00021	0.00044	0.00038	0.00038	-0.00118	3
10729	0.00052	-2e-05	0.00013	0.00021	0.00044	0.00038	0.00038	-0.00118	3
10730	0.00052	-2e-05	0.00013	0.00021	0.00044	0.00038	0.00038	-0.00118	3
10731	0.00052	-2e-05	0.00013	0.00021	0.00044	0.00038	0.00038	-0.00118	3
10732	0.00052	-2e-05	0.00013	0.00021	0.00044	0.00038	0.00038	-0.00118	3
10733	0.00052	-2e-05	0.00013	0.00021	0.00044	0.00038	0.00038	-0.00118	3
10734	0.00052	-2e-05	0.00013	0.00021	0.00044	0.00038	0.00038	-0.00118	3
10735	0.00052	-2e-05	0.00013	0.00021	0.00044	0.00038	0.00038	-0.00118	3
10736	0.00052	-2e-05	0.00013	0.00021	0.00044	0.00038	0.00038	-0.00118	3
10738	0.00052	-2e-05	0.00013	0.00021	0.00044	0.00038	0.00038	-0.00118	3
10739	0.00052	-2e-05	0.00013	0.00021	0.00044	0.00038	0.00038	-0.00118	3
10740	-0.00015	-7e-05	-0.0001	-0.00013	-0.00026	0.00016	0.00022	-0.00034	3
10741	0	-0.00015	-0.00017	-0.00015	-0.00034	-0.00027	-3e-05	6e-05	3
10742	0.0003	0.00013	3e-05	-0.00023	-0.00079	-0.00034	-0.00042	-0.00027	3
10743	0.0003	0.00013	3e-05	-0.00023	-0.00079	-0.00034	-0.00042	-0.00027	3
10744	0.0003	0.00013	3e-05	-0.00023	-0.00079	-0.00034	-0.00042	-0.00027	3
10745	0.0003	0.00013	3e-05	-0.00023	-0.00079	-0.00034	-0.00042	-0.00027	3
10746	0.0003	0.00013	3e-05	-0.00023	-0.00079	-0.00034	-0.00042	-0.00027	3
10747	0.0003	0.00013	3e-05	-0.00023	-0.00079	-0.00034	-0.00042	-0.00027	3
10748	0.0003	0.00013	3e-05	-0.00023	-0.00079	-0.00034	-0.00042	-0.00027	3
10749	0.0003	0.00013	3e-05	-0.00023	-0.00079	-0.00034	-0.00042	-0.00027	3
10750	0.0003	0.00013	3e-05	-0.00023	-0.00079	-0.00034	-0.00042	-0.00027	3
10751	0.0003	0.00013	3e-05	-0.00023	-0.00079	-0.00034	-0.00042	-0.00027	3
10752	0.0003	0.00013	3e-05	-0.00023	-0.00079	-0.00034	-0.00042	-0.00027	3
10753	0.0003	0.00013	3e-05	-0.00023	-0.00079	-0.00034	-0.00042	-0.00027	3
10754	9e-05	0.00016	6e-05	0.00011	-0.00024	3e-05	-5e-05	-0.00024	3
10755	9e-05	0.00016	6e-05	0.00011	-0.00024	3e-05	-5e-05	-0.00024	3
10756	9e-05	0.00016	6e-05	0.00011	-0.00024	3e-05	-5e-05	-0.00024	3
10757	9e-05	0.00016	6e-05	0.00011	-0.00024	3e-05	-5e-05	-0.00024	3
10758	9e-05	0.00016	6e-05	0.00011	-0.00024	3e-05	-5e-05	-0.00024	3
10759	9e-05	0.00016	6e-05	0.00011	-0.00024	3e-05	-5e-05	-0.00024	3
10760	9e-05	0.00016	6e-05	0.00011	-0.00024	3e-05	-5e-05	-0.00024	3
10761	9e-05	0.00016	6e-05	0.00011	-0.00024	3e-05	-5e-05	-0.00024	3
10762	0.00091	0.00024	-4e-05	-3e-05	-0.00017	-0.00023	-3e-05	0.00063	3
10763	0.00091	0.00024	-4e-05	-3e-05	-0.00017	-0.00023	-3e-05	0.00063	3
10764	0.00091	0.00024	-4e-05	-3e-05	-0.00017	-0.00023	-3e-05	0.00063	3
10765	0.00091	0.00024	-4e-05	-3e-05	-0.00017	-0.00023	-3e-05	0.00063	3
10766	0.00091	0.00024	-4e-05	-3e-05	-0.00017	-0.00023	-3e-05	0.00063	3
10767	0.00091	0.00024	-4e-05	-3e-05	-0.00017	-0.00023	-3e-05	0.00063	3
10768	0.00091	0.00024	-4e-05	-3e-05	-0.00017	-0.00023	-3e-05	0.00063	3
10769	0.00091	0.00024	-4e-05	-3e-05	-0.00017	-0.00023	-3e-05	0.00063	3
10770	0.00091	0.00024	-4e-05	-3e-05	-0.00017	-0.00023	-3e-05	0.00063	3
10771	0.00091	0.00024	-4e-05	-3e-05	-0.00017	-0.00023	-3e-05	0.00063	3
10772	0.00091	0.00024	-4e-05	-3e-05	-0.00017	-0.00023	-3e-05	0.00063	3
10773	0.00091	0.00024	-4e-05	-3e-05	-0.00017	-0.00023	-3e-05	0.00063	3
10774	0.00091	0.00024	-4e-05	-3e-05	-0.00017	-0.00023	-3e-05	0.00063	3
10775	0.00091	0.00024	-4e-05	-3e-05	-0.00017	-0.00023	-3e-05	0.00063	3
10776	0.00091	0.00024	-4e-05	-3e-05	-0.00017	-0.00023	-3e-05	0.00063	3
10777	0.00011	-6e-05	-8e-05	0	-0.00052	0	-0.0003	-0.00011	3
10778	0.00011	-6e-05	-8e-05	0	-0.00052	0	-0.0003	-0.00011	3
10779	0.00017	0.00011	-0.0001	-0.00027	-0.00056	-0.00074	-0.00066	-0.00022	3
10780	0.00017	0.00011	-0.0001	-0.00027	-0.00056	-0.00074	-0.00066	-0.00022	3
10781	0.00017	0.00011	-0.0001	-0.00027	-0.00056	-0.00074	-0.00066	-0.00022	3
10782	0.00017	0.00011	-0.0001	-0.00027	-0.00056	-0.00074	-0.00066	-0.00022	3
10783	0.00017	0.00011	-0.0001	-0.00027	-0.00056	-0.00074	-0.00066	-0.00022	3
10784	0.00017	0.00011	-0.0001	-0.00027	-0.00056	-0.00074	-0.00066	-0.00022	3
10785	0.00017	0.00011	-0.0001	-0.00027	-0.00056	-0.00074	-0.00066	-0.00022	3
10786	0.00017	0.00011	-0.0001	-0.00027	-0.00056	-0.00074	-0.00066	-0.00022	3
10788	0.00017	0.00011	-0.0001	-0.00027	-0.00056	-0.00074	-0.00066	-0.00022	3
10789	0.00017	0.00011	-0.0001	-0.00027	-0.00056	-0.00074	-0.00066	-0.00022	3
10790	0.00017	0.00011	-0.0001	-0.00027	-0.00056	-0.00074	-0.00066	-0.00022	3
10791	0.00017	0.00011	-0.0001	-0.00027	-0.00056	-0.00074	-0.00066	-0.00022	3
10792	0.00017	0.00011	-0.0001	-0.00027	-0.00056	-0.00074	-0.00066	-0.00022	3
10793	0.00017	0.00011	-0.0001	-0.00027	-0.00056	-0.00074	-0.00066	-0.00022	3
10794	0.00017	0.00011	-0.0001	-0.00027	-0.00056	-0.00074	-0.00066	-0.00022	3
10795	0.00017	0.00011	-0.0001	-0.00027	-0.00056	-0.00074	-0.00066	-0.00022	3
10796	0.00017	0.00011	-0.0001	-0.00027	-0.00056	-0.00074	-0.00066	-0.00022	3
10797	0.00017	0.00011	-0.0001	-0.00027	-0.00056	-0.00074	-0.00066	-0.00022	3
10798	0.00017	0.00011	-0.0001	-0.00027	-0.00056	-0.00074	-0.00066	-0.00022	3
10799	-0.00057	-4e-05	4e-05	0.00016	0.00048	0.00034	-0.00036	-0.00108	3
10800	0.00084	0.0001	6e-05	-0.0002	-0.00058	-0.00012	-0.00044	0.00025	3
10801	-0.00017	-0.00018	-0.00024	-0.00026	-0.0004	-0.00021	0.00017	-0.00017	3
10802	-0.00017	-0.00018	-0.00024	-0.00026	-0.0004	-0.00021	0.00017	-0.00017	3
10803	-0.00017	-0.00018	-0.00024	-0.00026	-0.0004	-0.00021	0.00017	-0.00017	3
10804	-0.00017	-0.00018	-0.00024	-0.00026	-0.0004	-0.00021	0.00017	-0.00017	3
10805	-0.00017	-0.00018	-0.00024	-0.00026	-0.0004	-0.00021	0.00017	-0.00017	3
10806	-0.00017	-0.00018	-0.00024	-0.00026	-0.0004	-0.00021	0.00017	-0.00017	3
10807	-0.00017	-0.00018	-0.00024	-0.00026	-0.0004	-0.00021	0.00017	-0.00017	3
10808	-0.00017	-0.00018	-0.00024	-0.00026	-0.0004	-0.00021	0.00017	-0.00017	3
10809	-0.00017	-0.00018	-0.00024	-0.00026	-0.0004	-0.00021	0.00017	-0.00017	3
10810	-0.00017	-0.00018	-0.00024	-0.00026	-0.0004	-0.00021	0.00017	-0.00017	3
10811	-0.00017	-0.00018	-0.00024	-0.00026	-0.0004	-0.00021	0.00017	-0.00017	3
10812	-0.00017	-0.00018	-0.00024	-0.00026	-0.0004	-0.00021	0.00017	-0.00017	3
10813	-0.00017	-0.00018	-0.00024	-0.00026	-0.0004	-0.00021	0.00017	-0.00017	3
10814	0.00031	0.0002	0	-7e-05	-0.00037	-0.00013	-6e-05	-0.00016	3
10815	0.00031	0.0002	0	-7e-05	-0.00037	-0.00013	-6e-05	-0.00016	3
10816	0.00031	0.0002	0	-7e-05	-0.00037	-0.00013	-6e-05	-0.00016	3
10817	0.00031	0.0002	0	-7e-05	-0.00037	-0.00013	-6e-05	-0.00016	3
10818	0.00031	0.0002	0	-7e-05	-0.00037	-0.00013	-6e-05	-0.00016	3
10819	0.00031	0.0002	0	-7e-05	-0.00037	-0.00013	-6e-05	-0.00016	3
10820	0.00031	0.0002	0	-7e-05	-0.00037	-0.00013	-6e-05	-0.00016	3
10821	-0.00037	-5e-05	4e-05	4e-05	0.00025	0	0.00031	0.00015	3
10822	-0.00037	-5e-05	4e-05	4e-05	0.00025	0	0.00031	0.00015	3
10823	-0.00037	-5e-05	4e-05	4e-05	0.00025	0	0.00031	0.00015	3
10824	-0.00037	-5e-05	4e-05	4e-05	0.00025	0	0.00031	0.00015	3
10825	-0.00037	-5e-05	4e-05	4e-05	0.00025	0	0.00031	0.00015	3
10826	-0.00037	-5e-05	4e-05	4e-05	0.00025	0	0.00031	0.00015	3
10827	-0.00037	-5e-05	4e-05	4e-05	0.00025	0	0.00031	0.00015	3
10828	-0.00037	-5e-05	4e-05	4e-05	0.00025	0	0.00031	0.00015	3
10829	-0.00037	-5e-05	4e-05	4e-05	0.00025	0	0.00031	0.00015	3
10830	-0.00037	-5e-05	4e-05	4e-05	0.00025	0	0.00031	0.00015	3
10831	-0.00037	-5e-05	4e-05	4e-05	0.00025	0	0.00031	0.00015	3
10832	-0.00037	-5e-05	4e-05	4e-05	0.00025	0	0.00031	0.00015	3
10833	-0.00037	-5e-05	4e-05	4e-05	0.00025	0	0.00031	0.00015	3
10834	-0.00037	-5e-05	4e-05	4e-05	0.00025	0	0.00031	0.00015	3
10835	-0.00037	-5e-05	4e-05	4e-05	0.00025	0	0.00031	0.00015	3
10836	-0.00037	-5e-05	4e-05	4e-05	0.00025	0	0.00031	0.00015	3
10838	-4e-05	-0.00035	-0.00011	-0.00018	-0.00024	-0.00018	-0.00064	0.00088	3
10839	-0.00098	-0.00017	-9e-05	4e-05	0.00024	0.00025	0.00013	0.00018	3
10840	-0.00098	-0.00017	-9e-05	4e-05	0.00024	0.00025	0.00013	0.00018	3
10841	-0.00098	-0.00017	-9e-05	4e-05	0.00024	0.00025	0.00013	0.00018	3
10842	-0.00098	-0.00017	-9e-05	4e-05	0.00024	0.00025	0.00013	0.00018	3
10843	-0.00098	-0.00017	-9e-05	4e-05	0.00024	0.00025	0.00013	0.00018	3
10844	-0.00098	-0.00017	-9e-05	4e-05	0.00024	0.00025	0.00013	0.00018	3
10845	-0.00098	-0.00017	-9e-05	4e-05	0.00024	0.00025	0.00013	0.00018	3
10846	-0.00098	-0.00017	-9e-05	4e-05	0.00024	0.00025	0.00013	0.00018	3
10847	-0.00098	-0.00017	-9e-05	4e-05	0.00024	0.00025	0.00013	0.00018	3
10848	-0.00098	-0.00017	-9e-05	4e-05	0.00024	0.00025	0.00013	0.00018	3
10849	-0.00098	-0.00017	-9e-05	4e-05	0.00024	0.00025	0.00013	0.00018	3
10850	-0.00098	-0.00017	-9e-05	4e-05	0.00024	0.00025	0.00013	0.00018	3
10851	-0.00098	-0.00017	-9e-05	4e-05	0.00024	0.00025	0.00013	0.00018	3
10852	-0.00098	-0.00017	-9e-05	4e-05	0.00024	0.00025	0.00013	0.00018	3
10853	-0.00098	-0.00017	-9e-05	4e-05	0.00024	0.00025	0.00013	0.00018	3
10854	-0.00098	-0.00017	-9e-05	4e-05	0.00024	0.00025	0.00013	0.00018	3
10855	-0.00098	-0.00017	-9e-05	4e-05	0.00024	0.00025	0.00013	0.00018	3
10856	-0.00098	-0.00017	-9e-05	4e-05	0.00024	0.00025	0.00013	0.00018	3
10857	-0.00098	-0.00017	-9e-05	4e-05	0.00024	0.00025	0.00013	0.00018	3
10858	-0.00098	-0.00017	-9e-05	4e-05	0.00024	0.00025	0.00013	0.00018	3
10859	-0.00098	-0.00017	-9e-05	4e-05	0.00024	0.00025	0.00013	0.00018	3
10860	-0.00098	-0.00017	-9e-05	4e-05	0.00024	0.00025	0.00013	0.00018	3
10861	-0.00098	-0.00017	-9e-05	4e-05	0.00024	0.00025	0.00013	0.00018	3
10862	-0.00098	-0.00017	-9e-05	4e-05	0.00024	0.00025	0.00013	0.00018	3
10863	-0.00098	-0.00017	-9e-05	4e-05	0.00024	0.00025	0.00013	0.00018	3
10864	-0.00098	-0.00017	-9e-05	4e-05	0.00024	0.00025	0.00013	0.00018	3
10865	-0.00098	-0.00017	-9e-05	4e-05	0.00024	0.00025	0.00013	0.00018	3
10866	-0.00098	-0.00017	-9e-05	4e-05	0.00024	0.00025	0.00013	0.00018	3
10867	-8e-05	-0.00019	6e-05	1e-05	0.00018	0.00014	-0.00015	-3e-05	3
10868	0.00014	0.0002	-0.00011	-0.0002	-0.00043	-0.00043	-0.00021	-0.00032	3
10869	-0.00014	-8e-05	4e-05	0.00025	7e-05	0.0005	-0.00073	-0.00025	3
10870	-0.00014	-8e-05	4e-05	0.00025	7e-05	0.0005	-0.00073	-0.00025	3
10871	-0.00014	-8e-05	4e-05	0.00025	7e-05	0.0005	-0.00073	-0.00025	3
10872	-0.00014	-8e-05	4e-05	0.00025	7e-05	0.0005	-0.00073	-0.00025	3
10873	-0.00014	-8e-05	4e-05	0.00025	7e-05	0.0005	-0.00073	-0.00025	3
10874	0	0.00015	-0.00018	-5e-05	0.00023	0.00033	0	-0.00043	3
10875	0	0.00015	-0.00018	-5e-05	0.00023	0.00033	0	-0.00043	3
10876	0	0.00015	-0.00018	-5e-05	0.00023	0.00033	0	-0.00043	3
10877	0	0.00015	-0.00018	-5e-05	0.00023	0.00033	0	-0.00043	3
10878	0	0.00015	-0.00018	-5e-05	0.00023	0.00033	0	-0.00043	3
10879	0	0.00015	-0.00018	-5e-05	0.00023	0.00033	0	-0.00043	3
10880	0	0.00015	-0.00018	-5e-05	0.00023	0.00033	0	-0.00043	3
10881	0	0.00015	-0.00018	-5e-05	0.00023	0.00033	0	-0.00043	3
10882	0	0.00015	-0.00018	-5e-05	0.00023	0.00033	0	-0.00043	3
10883	0	0.00015	-0.00018	-5e-05	0.00023	0.00033	0	-0.00043	3
10884	0	0.00015	-0.00018	-5e-05	0.00023	0.00033	0	-0.00043	3
10885	0	0.00015	-0.00018	-5e-05	0.00023	0.00033	0	-0.00043	3
10886	0	0.00015	-0.00018	-5e-05	0.00023	0.00033	0	-0.00043	3
10888	0.00086	0.00021	-0.0001	-0.00021	-0.0005	4e-05	-0.00049	5e-05	3
10890	0.00086	0.00021	-0.0001	-0.00021	-0.0005	4e-05	-0.00049	5e-05	3
10891	0.00086	0.00021	-0.0001	-0.00021	-0.0005	4e-05	-0.00049	5e-05	3
10892	0.00086	0.00021	-0.0001	-0.00021	-0.0005	4e-05	-0.00049	5e-05	3
10893	0.00086	0.00021	-0.0001	-0.00021	-0.0005	4e-05	-0.00049	5e-05	3
10894	0.00086	0.00021	-0.0001	-0.00021	-0.0005	4e-05	-0.00049	5e-05	3
10895	0.00086	0.00021	-0.0001	-0.00021	-0.0005	4e-05	-0.00049	5e-05	3
10896	0.00086	0.00021	-0.0001	-0.00021	-0.0005	4e-05	-0.00049	5e-05	3
10897	5e-05	0.00018	1e-05	8e-05	0.00039	7e-05	0.00034	0.00039	3
10898	-0.00043	-4e-05	-1e-05	-3e-05	-0.00024	5e-05	0.00021	-0.00016	3
10899	0.00048	0.0002	8e-05	8e-05	0.00015	-3e-05	0.00022	2e-05	3
10900	0.00048	0.0002	8e-05	8e-05	0.00015	-3e-05	0.00022	2e-05	3
10901	0.00048	0.0002	8e-05	8e-05	0.00015	-3e-05	0.00022	2e-05	3
10902	0.00048	0.0002	8e-05	8e-05	0.00015	-3e-05	0.00022	2e-05	3
10903	0.00048	0.0002	8e-05	8e-05	0.00015	-3e-05	0.00022	2e-05	3
10904	0.00048	0.0002	8e-05	8e-05	0.00015	-3e-05	0.00022	2e-05	3
10905	0.00048	0.0002	8e-05	8e-05	0.00015	-3e-05	0.00022	2e-05	3
10906	0.00048	0.0002	8e-05	8e-05	0.00015	-3e-05	0.00022	2e-05	3
10907	0.00048	0.0002	8e-05	8e-05	0.00015	-3e-05	0.00022	2e-05	3
10908	0.00048	0.0002	8e-05	8e-05	0.00015	-3e-05	0.00022	2e-05	3
10909	0.00048	0.0002	8e-05	8e-05	0.00015	-3e-05	0.00022	2e-05	3
10910	0.00048	0.0002	8e-05	8e-05	0.00015	-3e-05	0.00022	2e-05	3
10911	0.00048	0.0002	8e-05	8e-05	0.00015	-3e-05	0.00022	2e-05	3
10912	0.00048	0.0002	8e-05	8e-05	0.00015	-3e-05	0.00022	2e-05	3
10913	0.00048	0.0002	8e-05	8e-05	0.00015	-3e-05	0.00022	2e-05	3
10914	0.00048	0.0002	8e-05	8e-05	0.00015	-3e-05	0.00022	2e-05	3
10915	0.00048	0.0002	8e-05	8e-05	0.00015	-3e-05	0.00022	2e-05	3
10916	0.00048	0.0002	8e-05	8e-05	0.00015	-3e-05	0.00022	2e-05	3
10917	0.00048	0.0002	8e-05	8e-05	0.00015	-3e-05	0.00022	2e-05	3
10918	0.00048	0.0002	8e-05	8e-05	0.00015	-3e-05	0.00022	2e-05	3
10919	0.00048	0.0002	8e-05	8e-05	0.00015	-3e-05	0.00022	2e-05	3
10920	-0.00056	-0.00019	-9e-05	-4e-05	2e-05	-0.00014	3e-05	0.00028	3
10921	-9e-05	-0.00015	0	-4e-05	-0.00011	-0.00024	0.00059	0.00028	3
10922	-9e-05	-0.00015	0	-4e-05	-0.00011	-0.00024	0.00059	0.00028	3
10923	-9e-05	-0.00015	0	-4e-05	-0.00011	-0.00024	0.00059	0.00028	3
10924	-9e-05	-0.00015	0	-4e-05	-0.00011	-0.00024	0.00059	0.00028	3
10925	-9e-05	-0.00015	0	-4e-05	-0.00011	-0.00024	0.00059	0.00028	3
10926	-9e-05	-0.00015	0	-4e-05	-0.00011	-0.00024	0.00059	0.00028	3
10927	-9e-05	-0.00015	0	-4e-05	-0.00011	-0.00024	0.00059	0.00028	3
10928	-9e-05	-0.00015	0	-4e-05	-0.00011	-0.00024	0.00059	0.00028	3
10929	-9e-05	-0.00015	0	-4e-05	-0.00011	-0.00024	0.00059	0.00028	3
10930	-9e-05	-0.00015	0	-4e-05	-0.00011	-0.00024	0.00059	0.00028	3
10931	-9e-05	-0.00015	0	-4e-05	-0.00011	-0.00024	0.00059	0.00028	3
10932	-9e-05	-0.00015	0	-4e-05	-0.00011	-0.00024	0.00059	0.00028	3
10933	-9e-05	-0.00015	0	-4e-05	-0.00011	-0.00024	0.00059	0.00028	3
10934	0.00041	-0.0001	2e-05	0	-0.0002	0.00024	-0.00038	-9e-05	3
10935	0.00041	-0.0001	2e-05	0	-0.0002	0.00024	-0.00038	-9e-05	3
10936	0.00041	-0.0001	2e-05	0	-0.0002	0.00024	-0.00038	-9e-05	3
10938	0.00041	-0.0001	2e-05	0	-0.0002	0.00024	-0.00038	-9e-05	3
10939	0.00041	-0.0001	2e-05	0	-0.0002	0.00024	-0.00038	-9e-05	3
10940	0.00041	-0.0001	2e-05	0	-0.0002	0.00024	-0.00038	-9e-05	3
10941	0.00041	-0.0001	2e-05	0	-0.0002	0.00024	-0.00038	-9e-05	3
10942	-0.00091	-0.00032	-6e-05	1e-05	0.00029	-3e-05	0.0005	0	3
10943	-0.00091	-0.00032	-6e-05	1e-05	0.00029	-3e-05	0.0005	0	3
10944	-0.00091	-0.00032	-6e-05	1e-05	0.00029	-3e-05	0.0005	0	3
10945	-0.00091	-0.00032	-6e-05	1e-05	0.00029	-3e-05	0.0005	0	3
10946	-0.00091	-0.00032	-6e-05	1e-05	0.00029	-3e-05	0.0005	0	3
10947	-0.00091	-0.00032	-6e-05	1e-05	0.00029	-3e-05	0.0005	0	3
10948	-0.00091	-0.00032	-6e-05	1e-05	0.00029	-3e-05	0.0005	0	3
10949	-0.00091	-0.00032	-6e-05	1e-05	0.00029	-3e-05	0.0005	0	3
10950	-0.00091	-0.00032	-6e-05	1e-05	0.00029	-3e-05	0.0005	0	3
10951	-0.00091	-0.00032	-6e-05	1e-05	0.00029	-3e-05	0.0005	0	3
10952	-0.00091	-0.00032	-6e-05	1e-05	0.00029	-3e-05	0.0005	0	3
10953	-0.00091	-0.00032	-6e-05	1e-05	0.00029	-3e-05	0.0005	0	3
10954	-0.00091	-0.00032	-6e-05	1e-05	0.00029	-3e-05	0.0005	0	3
10955	-0.00091	-0.00032	-6e-05	1e-05	0.00029	-3e-05	0.0005	0	3
10956	-0.00091	-0.00032	-6e-05	1e-05	0.00029	-3e-05	0.0005	0	3
10957	-5e-05	0.00017	-2e-05	-2e-05	1e-05	-0.00023	0	0.00017	3
10958	0.00016	5e-05	0	-0.0001	-0.00042	-9e-05	-0.00026	0.00013	3
10959	0.00016	5e-05	0	-0.0001	-0.00042	-9e-05	-0.00026	0.00013	3
10960	0.00016	5e-05	0	-0.0001	-0.00042	-9e-05	-0.00026	0.00013	3
10961	0.00016	5e-05	0	-0.0001	-0.00042	-9e-05	-0.00026	0.00013	3
10962	0.00016	5e-05	0	-0.0001	-0.00042	-9e-05	-0.00026	0.00013	3
10963	0.00016	5e-05	0	-0.0001	-0.00042	-9e-05	-0.00026	0.00013	3
10964	0.00016	5e-05	0	-0.0001	-0.00042	-9e-05	-0.00026	0.00013	3
10965	0.00016	5e-05	0	-0.0001	-0.00042	-9e-05	-0.00026	0.00013	3
10966	0.00016	5e-05	0	-0.0001	-0.00042	-9e-05	-0.00026	0.00013	3
10967	0.00016	5e-05	0	-0.0001	-0.00042	-9e-05	-0.00026	0.00013	3
10968	0.00016	5e-05	0	-0.0001	-0.00042	-9e-05	-0.00026	0.00013	3
10969	0.00016	5e-05	0	-0.0001	-0.00042	-9e-05	-0.00026	0.00013	3
10970	0.00016	5e-05	0	-0.0001	-0.00042	-9e-05	-0.00026	0.00013	3
10971	0.00016	5e-05	0	-0.0001	-0.00042	-9e-05	-0.00026	0.00013	3
10972	0.00016	5e-05	0	-0.0001	-0.00042	-9e-05	-0.00026	0.00013	3
10973	0.00016	5e-05	0	-0.0001	-0.00042	-9e-05	-0.00026	0.00013	3
10974	0.00016	5e-05	0	-0.0001	-0.00042	-9e-05	-0.00026	0.00013	3
10975	0.00016	5e-05	0	-0.0001	-0.00042	-9e-05	-0.00026	0.00013	3
10976	0.00016	5e-05	0	-0.0001	-0.00042	-9e-05	-0.00026	0.00013	3
10977	0.00016	5e-05	0	-0.0001	-0.00042	-9e-05	-0.00026	0.00013	3
10978	0.00016	5e-05	0	-0.0001	-0.00042	-9e-05	-0.00026	0.00013	3
10979	0.00016	5e-05	0	-0.0001	-0.00042	-9e-05	-0.00026	0.00013	3
10980	-0.00033	0.00016	2e-05	-6e-05	-0.00022	-0.0002	-0.00021	0.00039	3
10981	6e-05	8e-05	0.00024	0.0001	0.00016	7e-05	0.00031	0.00016	3
10982	6e-05	8e-05	0.00024	0.0001	0.00016	7e-05	0.00031	0.00016	3
10983	6e-05	8e-05	0.00024	0.0001	0.00016	7e-05	0.00031	0.00016	3
10984	6e-05	8e-05	0.00024	0.0001	0.00016	7e-05	0.00031	0.00016	3
10985	6e-05	8e-05	0.00024	0.0001	0.00016	7e-05	0.00031	0.00016	3
10986	6e-05	8e-05	0.00024	0.0001	0.00016	7e-05	0.00031	0.00016	3
10988	6e-05	8e-05	0.00024	0.0001	0.00016	7e-05	0.00031	0.00016	3
10989	6e-05	8e-05	0.00024	0.0001	0.00016	7e-05	0.00031	0.00016	3
10990	6e-05	8e-05	0.00024	0.0001	0.00016	7e-05	0.00031	0.00016	3
10991	6e-05	8e-05	0.00024	0.0001	0.00016	7e-05	0.00031	0.00016	3
10992	6e-05	8e-05	0.00024	0.0001	0.00016	7e-05	0.00031	0.00016	3
10993	6e-05	8e-05	0.00024	0.0001	0.00016	7e-05	0.00031	0.00016	3
10994	6e-05	8e-05	0.00024	0.0001	0.00016	7e-05	0.00031	0.00016	3
10995	6e-05	8e-05	0.00024	0.0001	0.00016	7e-05	0.00031	0.00016	3
10996	6e-05	8e-05	0.00024	0.0001	0.00016	7e-05	0.00031	0.00016	3
10997	6e-05	8e-05	0.00024	0.0001	0.00016	7e-05	0.00031	0.00016	3
10998	6e-05	8e-05	0.00024	0.0001	0.00016	7e-05	0.00031	0.00016	3
10999	6e-05	8e-05	0.00024	0.0001	0.00016	7e-05	0.00031	0.00016	3
11000	6e-05	8e-05	0.00024	0.0001	0.00016	7e-05	0.00031	0.00016	3
11001	6e-05	8e-05	0.00024	0.0001	0.00016	7e-05	0.00031	0.00016	3
11002	0.0001	-5e-05	6e-05	0.00014	0.00029	0.00016	-0.0001	0.00029	3
11003	4e-05	5e-05	1e-05	-7e-05	-0.0001	-2e-05	0.00013	-0.0009	3
11004	-0.00023	-3e-05	1e-05	0.00015	0.00014	0.00027	-0.00033	0.00025	3
11005	-0.00023	-3e-05	1e-05	0.00015	0.00014	0.00027	-0.00033	0.00025	3
11006	-0.00023	-3e-05	1e-05	0.00015	0.00014	0.00027	-0.00033	0.00025	3
11007	-0.00023	-3e-05	1e-05	0.00015	0.00014	0.00027	-0.00033	0.00025	3
11008	-0.00023	-3e-05	1e-05	0.00015	0.00014	0.00027	-0.00033	0.00025	3
11009	-0.00023	-3e-05	1e-05	0.00015	0.00014	0.00027	-0.00033	0.00025	3
11010	-0.00023	-3e-05	1e-05	0.00015	0.00014	0.00027	-0.00033	0.00025	3
11011	-0.00023	-3e-05	1e-05	0.00015	0.00014	0.00027	-0.00033	0.00025	3
11012	-0.00023	-3e-05	1e-05	0.00015	0.00014	0.00027	-0.00033	0.00025	3
11013	-0.00023	-3e-05	1e-05	0.00015	0.00014	0.00027	-0.00033	0.00025	3
11014	-0.00023	-3e-05	1e-05	0.00015	0.00014	0.00027	-0.00033	0.00025	3
11015	-0.00023	-3e-05	1e-05	0.00015	0.00014	0.00027	-0.00033	0.00025	3
11016	-0.00023	-3e-05	1e-05	0.00015	0.00014	0.00027	-0.00033	0.00025	3
11017	0.00014	2e-05	4e-05	-3e-05	-0.00017	9e-05	0.00055	0.00024	3
11018	0.00024	-0.0001	-2e-05	0.00011	0.00046	-0.00029	9e-05	0.00067	3
11019	-0.00076	-0.00015	9e-05	0.00012	0.00019	0.00052	0.00049	5e-05	3
11020	-0.00076	-0.00015	9e-05	0.00012	0.00019	0.00052	0.00049	5e-05	3
11021	-0.00076	-0.00015	9e-05	0.00012	0.00019	0.00052	0.00049	5e-05	3
11022	-0.00076	-0.00015	9e-05	0.00012	0.00019	0.00052	0.00049	5e-05	3
11023	-0.00076	-0.00015	9e-05	0.00012	0.00019	0.00052	0.00049	5e-05	3
11024	-0.00076	-0.00015	9e-05	0.00012	0.00019	0.00052	0.00049	5e-05	3
11025	-0.00076	-0.00015	9e-05	0.00012	0.00019	0.00052	0.00049	5e-05	3
11026	-0.00076	-0.00015	9e-05	0.00012	0.00019	0.00052	0.00049	5e-05	3
11027	-0.00076	-0.00015	9e-05	0.00012	0.00019	0.00052	0.00049	5e-05	3
11028	-0.00076	-0.00015	9e-05	0.00012	0.00019	0.00052	0.00049	5e-05	3
11029	-0.00076	-0.00015	9e-05	0.00012	0.00019	0.00052	0.00049	5e-05	3
11030	-0.00076	-0.00015	9e-05	0.00012	0.00019	0.00052	0.00049	5e-05	3
11031	-0.00076	-0.00015	9e-05	0.00012	0.00019	0.00052	0.00049	5e-05	3
11032	-0.00076	-0.00015	9e-05	0.00012	0.00019	0.00052	0.00049	5e-05	3
11033	-0.00076	-0.00015	9e-05	0.00012	0.00019	0.00052	0.00049	5e-05	3
11034	-0.00076	-0.00015	9e-05	0.00012	0.00019	0.00052	0.00049	5e-05	3
11035	-0.00076	-0.00015	9e-05	0.00012	0.00019	0.00052	0.00049	5e-05	3
11036	-0.00076	-0.00015	9e-05	0.00012	0.00019	0.00052	0.00049	5e-05	3
11038	-0.00076	-0.00015	9e-05	0.00012	0.00019	0.00052	0.00049	5e-05	3
11039	-0.00076	-0.00015	9e-05	0.00012	0.00019	0.00052	0.00049	5e-05	3
11040	0.00034	0.00036	-5e-05	3e-05	0.0003	0.0003	7e-05	-8e-05	3
11041	0.00023	-9e-05	1e-05	0.00022	0.00075	0	7e-05	1e-05	3
11042	0.00023	-9e-05	1e-05	0.00022	0.00075	0	7e-05	1e-05	3
11043	0.00023	-9e-05	1e-05	0.00022	0.00075	0	7e-05	1e-05	3
11044	0.00023	-9e-05	1e-05	0.00022	0.00075	0	7e-05	1e-05	3
11045	0.00023	-9e-05	1e-05	0.00022	0.00075	0	7e-05	1e-05	3
11046	0.00023	-9e-05	1e-05	0.00022	0.00075	0	7e-05	1e-05	3
11047	0.00023	-9e-05	1e-05	0.00022	0.00075	0	7e-05	1e-05	3
11048	0.00023	-9e-05	1e-05	0.00022	0.00075	0	7e-05	1e-05	3
11049	0.00023	-9e-05	1e-05	0.00022	0.00075	0	7e-05	1e-05	3
11050	0.00023	-9e-05	1e-05	0.00022	0.00075	0	7e-05	1e-05	3
11051	0.00023	-9e-05	1e-05	0.00022	0.00075	0	7e-05	1e-05	3
11052	0.00023	-9e-05	1e-05	0.00022	0.00075	0	7e-05	1e-05	3
11053	-6e-05	9e-05	0.00012	5e-05	8e-05	0.00049	-0.00018	-0.00049	3
11054	-6e-05	9e-05	0.00012	5e-05	8e-05	0.00049	-0.00018	-0.00049	3
11055	-6e-05	9e-05	0.00012	5e-05	8e-05	0.00049	-0.00018	-0.00049	3
11056	-6e-05	9e-05	0.00012	5e-05	8e-05	0.00049	-0.00018	-0.00049	3
11057	-6e-05	9e-05	0.00012	5e-05	8e-05	0.00049	-0.00018	-0.00049	3
11058	-6e-05	9e-05	0.00012	5e-05	8e-05	0.00049	-0.00018	-0.00049	3
11059	-6e-05	9e-05	0.00012	5e-05	8e-05	0.00049	-0.00018	-0.00049	3
11060	-6e-05	9e-05	0.00012	5e-05	8e-05	0.00049	-0.00018	-0.00049	3
11061	-6e-05	9e-05	0.00012	5e-05	8e-05	0.00049	-0.00018	-0.00049	3
11062	-6e-05	9e-05	0.00012	5e-05	8e-05	0.00049	-0.00018	-0.00049	3
11063	-6e-05	9e-05	0.00012	5e-05	8e-05	0.00049	-0.00018	-0.00049	3
11064	-6e-05	9e-05	0.00012	5e-05	8e-05	0.00049	-0.00018	-0.00049	3
11065	-6e-05	9e-05	0.00012	5e-05	8e-05	0.00049	-0.00018	-0.00049	3
11066	-6e-05	9e-05	0.00012	5e-05	8e-05	0.00049	-0.00018	-0.00049	3
11067	-6e-05	9e-05	0.00012	5e-05	8e-05	0.00049	-0.00018	-0.00049	3
11068	-6e-05	9e-05	0.00012	5e-05	8e-05	0.00049	-0.00018	-0.00049	3
11069	-0.00068	-0.0002	-0.00015	-0.00028	-0.00068	0.0002	-0.00026	0.00016	3
11070	4e-05	6e-05	-0.00013	6e-05	0.0007	0.00015	1e-05	-0.00031	3
11071	4e-05	6e-05	-0.00013	6e-05	0.0007	0.00015	1e-05	-0.00031	3
11072	4e-05	6e-05	-0.00013	6e-05	0.0007	0.00015	1e-05	-0.00031	3
11073	4e-05	6e-05	-0.00013	6e-05	0.0007	0.00015	1e-05	-0.00031	3
11074	4e-05	6e-05	-0.00013	6e-05	0.0007	0.00015	1e-05	-0.00031	3
11075	4e-05	6e-05	-0.00013	6e-05	0.0007	0.00015	1e-05	-0.00031	3
11076	4e-05	6e-05	-0.00013	6e-05	0.0007	0.00015	1e-05	-0.00031	3
11077	0.00028	-0.00024	-1e-05	-0.00015	-0.00048	-0.00036	0.00012	-0.00021	3
11078	0.00014	-5e-05	-6e-05	-0.00011	-0.00038	-4e-05	-0.00025	-7e-05	3
11079	-0.00028	-0.00021	1e-05	0	2e-05	-8e-05	-0.0001	0.00025	3
11080	-0.00028	-0.00021	1e-05	0	2e-05	-8e-05	-0.0001	0.00025	3
11081	-0.00028	-0.00021	1e-05	0	2e-05	-8e-05	-0.0001	0.00025	3
11082	-0.00028	-0.00021	1e-05	0	2e-05	-8e-05	-0.0001	0.00025	3
11083	-0.00028	-0.00021	1e-05	0	2e-05	-8e-05	-0.0001	0.00025	3
11084	-0.00028	-0.00021	1e-05	0	2e-05	-8e-05	-0.0001	0.00025	3
11085	-0.00028	-0.00021	1e-05	0	2e-05	-8e-05	-0.0001	0.00025	3
11086	-0.00028	-0.00021	1e-05	0	2e-05	-8e-05	-0.0001	0.00025	3
11088	-0.00028	-0.00021	1e-05	0	2e-05	-8e-05	-0.0001	0.00025	3
11089	-0.00028	-0.00021	1e-05	0	2e-05	-8e-05	-0.0001	0.00025	3
11090	-0.00028	-0.00021	1e-05	0	2e-05	-8e-05	-0.0001	0.00025	3
11091	-0.00028	-0.00021	1e-05	0	2e-05	-8e-05	-0.0001	0.00025	3
11092	-0.00028	-0.00021	1e-05	0	2e-05	-8e-05	-0.0001	0.00025	3
11093	-0.00028	-0.00021	1e-05	0	2e-05	-8e-05	-0.0001	0.00025	3
11094	-0.00028	-0.00021	1e-05	0	2e-05	-8e-05	-0.0001	0.00025	3
11095	-0.00028	-0.00021	1e-05	0	2e-05	-8e-05	-0.0001	0.00025	3
11096	-0.00028	-0.00021	1e-05	0	2e-05	-8e-05	-0.0001	0.00025	3
11097	-0.00028	-0.00021	1e-05	0	2e-05	-8e-05	-0.0001	0.00025	3
11098	-0.00028	-0.00021	1e-05	0	2e-05	-8e-05	-0.0001	0.00025	3
11099	0.00011	0.0001	-5e-05	-2e-05	-0.00047	-5e-05	0.0003	-0.00021	3
11100	-0.00026	-0.00014	-1e-05	0.00029	0.00083	0.00022	-0.00039	-0.00025	3
11101	0.00055	-2e-05	-0.00026	-0.0003	-0.00092	-0.00042	1e-05	0.00049	3
11102	0.00055	-2e-05	-0.00026	-0.0003	-0.00092	-0.00042	1e-05	0.00049	3
11103	0.00055	-2e-05	-0.00026	-0.0003	-0.00092	-0.00042	1e-05	0.00049	3
11104	0.00055	-2e-05	-0.00026	-0.0003	-0.00092	-0.00042	1e-05	0.00049	3
11105	0.00055	-2e-05	-0.00026	-0.0003	-0.00092	-0.00042	1e-05	0.00049	3
11106	0.00055	-2e-05	-0.00026	-0.0003	-0.00092	-0.00042	1e-05	0.00049	3
11107	0.00055	-2e-05	-0.00026	-0.0003	-0.00092	-0.00042	1e-05	0.00049	3
11108	0.00055	-2e-05	-0.00026	-0.0003	-0.00092	-0.00042	1e-05	0.00049	3
11109	0.00055	-2e-05	-0.00026	-0.0003	-0.00092	-0.00042	1e-05	0.00049	3
11110	0.00055	-2e-05	-0.00026	-0.0003	-0.00092	-0.00042	1e-05	0.00049	3
11111	0.00055	-2e-05	-0.00026	-0.0003	-0.00092	-0.00042	1e-05	0.00049	3
11112	0.00055	-2e-05	-0.00026	-0.0003	-0.00092	-0.00042	1e-05	0.00049	3
11113	0.00032	6e-05	5e-05	0.00021	0.0007	-0.0002	-0.00013	0.00051	3
11114	0.00032	6e-05	5e-05	0.00021	0.0007	-0.0002	-0.00013	0.00051	3
11115	0.00032	6e-05	5e-05	0.00021	0.0007	-0.0002	-0.00013	0.00051	3
11116	0.00032	6e-05	5e-05	0.00021	0.0007	-0.0002	-0.00013	0.00051	3
11117	0.00032	6e-05	5e-05	0.00021	0.0007	-0.0002	-0.00013	0.00051	3
11118	0.00032	6e-05	5e-05	0.00021	0.0007	-0.0002	-0.00013	0.00051	3
11119	0.00032	6e-05	5e-05	0.00021	0.0007	-0.0002	-0.00013	0.00051	3
11120	0.00032	6e-05	5e-05	0.00021	0.0007	-0.0002	-0.00013	0.00051	3
11121	0.00032	6e-05	5e-05	0.00021	0.0007	-0.0002	-0.00013	0.00051	3
11122	0.00038	0.00017	1e-05	5e-05	0.00043	-2e-05	-8e-05	-0.00027	3
11123	0.00038	0.00017	1e-05	5e-05	0.00043	-2e-05	-8e-05	-0.00027	3
11124	0.00038	0.00017	1e-05	5e-05	0.00043	-2e-05	-8e-05	-0.00027	3
11125	0.00038	0.00017	1e-05	5e-05	0.00043	-2e-05	-8e-05	-0.00027	3
11126	0.00038	0.00017	1e-05	5e-05	0.00043	-2e-05	-8e-05	-0.00027	3
11127	0.00038	0.00017	1e-05	5e-05	0.00043	-2e-05	-8e-05	-0.00027	3
11128	0.00038	0.00017	1e-05	5e-05	0.00043	-2e-05	-8e-05	-0.00027	3
11129	0.00038	0.00017	1e-05	5e-05	0.00043	-2e-05	-8e-05	-0.00027	3
11130	0.00038	0.00017	1e-05	5e-05	0.00043	-2e-05	-8e-05	-0.00027	3
11131	0.00038	0.00017	1e-05	5e-05	0.00043	-2e-05	-8e-05	-0.00027	3
11132	0.00038	0.00017	1e-05	5e-05	0.00043	-2e-05	-8e-05	-0.00027	3
11133	0.00038	0.00017	1e-05	5e-05	0.00043	-2e-05	-8e-05	-0.00027	3
11134	0.00038	0.00017	1e-05	5e-05	0.00043	-2e-05	-8e-05	-0.00027	3
11135	0.00038	0.00017	1e-05	5e-05	0.00043	-2e-05	-8e-05	-0.00027	3
11136	0.00038	0.00017	1e-05	5e-05	0.00043	-2e-05	-8e-05	-0.00027	3
11138	0.00038	0.00017	1e-05	5e-05	0.00043	-2e-05	-8e-05	-0.00027	3
11139	0.00038	0.00017	1e-05	5e-05	0.00043	-2e-05	-8e-05	-0.00027	3
11140	0.00038	0.00017	1e-05	5e-05	0.00043	-2e-05	-8e-05	-0.00027	3
11141	0.00038	0.00017	1e-05	5e-05	0.00043	-2e-05	-8e-05	-0.00027	3
11142	0.00038	0.00017	1e-05	5e-05	0.00043	-2e-05	-8e-05	-0.00027	3
11143	0.00038	0.00017	1e-05	5e-05	0.00043	-2e-05	-8e-05	-0.00027	3
11144	-0.00032	8e-05	-5e-05	-0.00016	-0.00026	-0.00033	-0.00014	-0.00074	3
11145	-0.00032	8e-05	-5e-05	-0.00016	-0.00026	-0.00033	-0.00014	-0.00074	3
11146	0.00075	4e-05	6e-05	-0.00013	-0.00041	-0.00021	0.00036	0.00065	3
11147	0.00075	4e-05	6e-05	-0.00013	-0.00041	-0.00021	0.00036	0.00065	3
11148	0.00075	4e-05	6e-05	-0.00013	-0.00041	-0.00021	0.00036	0.00065	3
11149	0.00075	4e-05	6e-05	-0.00013	-0.00041	-0.00021	0.00036	0.00065	3
11150	0.00075	4e-05	6e-05	-0.00013	-0.00041	-0.00021	0.00036	0.00065	3
11151	0.00075	4e-05	6e-05	-0.00013	-0.00041	-0.00021	0.00036	0.00065	3
11152	0.00075	4e-05	6e-05	-0.00013	-0.00041	-0.00021	0.00036	0.00065	3
11153	0.00075	4e-05	6e-05	-0.00013	-0.00041	-0.00021	0.00036	0.00065	3
11154	0.00075	4e-05	6e-05	-0.00013	-0.00041	-0.00021	0.00036	0.00065	3
11155	0.00075	4e-05	6e-05	-0.00013	-0.00041	-0.00021	0.00036	0.00065	3
11156	0.00075	4e-05	6e-05	-0.00013	-0.00041	-0.00021	0.00036	0.00065	3
11157	0.00075	4e-05	6e-05	-0.00013	-0.00041	-0.00021	0.00036	0.00065	3
11158	0.00075	4e-05	6e-05	-0.00013	-0.00041	-0.00021	0.00036	0.00065	3
11159	0.00075	4e-05	6e-05	-0.00013	-0.00041	-0.00021	0.00036	0.00065	3
11160	0.00075	4e-05	6e-05	-0.00013	-0.00041	-0.00021	0.00036	0.00065	3
11161	0.00075	4e-05	6e-05	-0.00013	-0.00041	-0.00021	0.00036	0.00065	3
11162	0.00075	4e-05	6e-05	-0.00013	-0.00041	-0.00021	0.00036	0.00065	3
11163	0.00075	4e-05	6e-05	-0.00013	-0.00041	-0.00021	0.00036	0.00065	3
11164	0.00075	4e-05	6e-05	-0.00013	-0.00041	-0.00021	0.00036	0.00065	3
11165	0.00075	4e-05	6e-05	-0.00013	-0.00041	-0.00021	0.00036	0.00065	3
11166	0.00075	4e-05	6e-05	-0.00013	-0.00041	-0.00021	0.00036	0.00065	3
11167	-0.00047	-0.00011	-9e-05	2e-05	7e-05	0.00051	0.0004	-0.00053	3
11168	-0.00047	-0.00011	-9e-05	2e-05	7e-05	0.00051	0.0004	-0.00053	3
11169	-0.00078	4e-05	1e-05	5e-05	-1e-05	0.00014	-8e-05	-0.00044	3
11170	-0.00078	4e-05	1e-05	5e-05	-1e-05	0.00014	-8e-05	-0.00044	3
11171	-0.00078	4e-05	1e-05	5e-05	-1e-05	0.00014	-8e-05	-0.00044	3
11172	-0.00078	4e-05	1e-05	5e-05	-1e-05	0.00014	-8e-05	-0.00044	3
11173	0.00051	-4e-05	-9e-05	-0.00021	-0.00048	-0.00049	-0.00042	9e-05	3
11174	0.00051	-4e-05	-9e-05	-0.00021	-0.00048	-0.00049	-0.00042	9e-05	3
11175	0.00051	-4e-05	-9e-05	-0.00021	-0.00048	-0.00049	-0.00042	9e-05	3
11176	0.00051	-4e-05	-9e-05	-0.00021	-0.00048	-0.00049	-0.00042	9e-05	3
11177	0.00051	-4e-05	-9e-05	-0.00021	-0.00048	-0.00049	-0.00042	9e-05	3
11178	0.00051	-4e-05	-9e-05	-0.00021	-0.00048	-0.00049	-0.00042	9e-05	3
11179	0.00051	-4e-05	-9e-05	-0.00021	-0.00048	-0.00049	-0.00042	9e-05	3
11180	0.00051	-4e-05	-9e-05	-0.00021	-0.00048	-0.00049	-0.00042	9e-05	3
11181	0.00051	-4e-05	-9e-05	-0.00021	-0.00048	-0.00049	-0.00042	9e-05	3
11182	-0.00017	-8e-05	7e-05	0.00014	0.00041	0.00023	-0.00011	-0.00031	3
11183	-0.00017	-8e-05	7e-05	0.00014	0.00041	0.00023	-0.00011	-0.00031	3
11184	-0.00017	-8e-05	7e-05	0.00014	0.00041	0.00023	-0.00011	-0.00031	3
11185	-0.00017	-8e-05	7e-05	0.00014	0.00041	0.00023	-0.00011	-0.00031	3
11186	-0.00017	-8e-05	7e-05	0.00014	0.00041	0.00023	-0.00011	-0.00031	3
11188	-0.00017	-8e-05	7e-05	0.00014	0.00041	0.00023	-0.00011	-0.00031	3
11189	-0.00017	-8e-05	7e-05	0.00014	0.00041	0.00023	-0.00011	-0.00031	3
11190	-0.00017	-8e-05	7e-05	0.00014	0.00041	0.00023	-0.00011	-0.00031	3
11191	-0.00017	-8e-05	7e-05	0.00014	0.00041	0.00023	-0.00011	-0.00031	3
11192	-0.00017	-8e-05	7e-05	0.00014	0.00041	0.00023	-0.00011	-0.00031	3
11193	-0.00017	-8e-05	7e-05	0.00014	0.00041	0.00023	-0.00011	-0.00031	3
11194	-0.00017	-8e-05	7e-05	0.00014	0.00041	0.00023	-0.00011	-0.00031	3
11195	-0.00017	-8e-05	7e-05	0.00014	0.00041	0.00023	-0.00011	-0.00031	3
11196	-0.00017	-8e-05	7e-05	0.00014	0.00041	0.00023	-0.00011	-0.00031	3
11197	5e-05	-0.0002	6e-05	2e-05	9e-05	7e-05	0.00071	0.00035	3
11198	5e-05	-0.0002	6e-05	2e-05	9e-05	7e-05	0.00071	0.00035	3
11199	-0.00022	-3e-05	-9e-05	-0.00018	-0.00047	-4e-05	-0.00024	0.00054	3
11200	-0.00022	-3e-05	-9e-05	-0.00018	-0.00047	-4e-05	-0.00024	0.00054	3
11201	-0.00022	-3e-05	-9e-05	-0.00018	-0.00047	-4e-05	-0.00024	0.00054	3
11202	-0.00022	-3e-05	-9e-05	-0.00018	-0.00047	-4e-05	-0.00024	0.00054	3
11203	-0.00022	-3e-05	-9e-05	-0.00018	-0.00047	-4e-05	-0.00024	0.00054	3
11204	-0.00022	-3e-05	-9e-05	-0.00018	-0.00047	-4e-05	-0.00024	0.00054	3
11205	-0.00022	-3e-05	-9e-05	-0.00018	-0.00047	-4e-05	-0.00024	0.00054	3
11206	-0.00022	-3e-05	-9e-05	-0.00018	-0.00047	-4e-05	-0.00024	0.00054	3
11207	-0.00022	-3e-05	-9e-05	-0.00018	-0.00047	-4e-05	-0.00024	0.00054	3
11208	-0.00022	-3e-05	-9e-05	-0.00018	-0.00047	-4e-05	-0.00024	0.00054	3
11209	-0.00022	-3e-05	-9e-05	-0.00018	-0.00047	-4e-05	-0.00024	0.00054	3
11210	-0.00022	-3e-05	-9e-05	-0.00018	-0.00047	-4e-05	-0.00024	0.00054	3
11211	-0.00022	-3e-05	-9e-05	-0.00018	-0.00047	-4e-05	-0.00024	0.00054	3
11212	-0.00022	-3e-05	-9e-05	-0.00018	-0.00047	-4e-05	-0.00024	0.00054	3
11213	-0.00022	-3e-05	-9e-05	-0.00018	-0.00047	-4e-05	-0.00024	0.00054	3
11214	-0.00022	-3e-05	-9e-05	-0.00018	-0.00047	-4e-05	-0.00024	0.00054	3
11215	-0.00022	-3e-05	-9e-05	-0.00018	-0.00047	-4e-05	-0.00024	0.00054	3
11216	-0.00022	-3e-05	-9e-05	-0.00018	-0.00047	-4e-05	-0.00024	0.00054	3
11217	-0.00022	-3e-05	-9e-05	-0.00018	-0.00047	-4e-05	-0.00024	0.00054	3
11218	-0.00022	-3e-05	-9e-05	-0.00018	-0.00047	-4e-05	-0.00024	0.00054	3
11219	-0.00022	-3e-05	-9e-05	-0.00018	-0.00047	-4e-05	-0.00024	0.00054	3
11220	0.00018	5e-05	5e-05	4e-05	-8e-05	-0.00015	-0.00015	-0.00034	3
11221	0.00034	9e-05	-2e-05	-0.00012	-0.00038	-0.00015	-0.00015	3e-05	3
11222	0.00034	9e-05	-2e-05	-0.00012	-0.00038	-0.00015	-0.00015	3e-05	3
11223	0.00034	9e-05	-2e-05	-0.00012	-0.00038	-0.00015	-0.00015	3e-05	3
11224	0.00034	9e-05	-2e-05	-0.00012	-0.00038	-0.00015	-0.00015	3e-05	3
11225	0.00034	9e-05	-2e-05	-0.00012	-0.00038	-0.00015	-0.00015	3e-05	3
11226	0.00034	9e-05	-2e-05	-0.00012	-0.00038	-0.00015	-0.00015	3e-05	3
11227	0.00034	9e-05	-2e-05	-0.00012	-0.00038	-0.00015	-0.00015	3e-05	3
11228	0.00034	9e-05	-2e-05	-0.00012	-0.00038	-0.00015	-0.00015	3e-05	3
11229	0.00034	9e-05	-2e-05	-0.00012	-0.00038	-0.00015	-0.00015	3e-05	3
11230	0.00034	9e-05	-2e-05	-0.00012	-0.00038	-0.00015	-0.00015	3e-05	3
11231	0.00034	9e-05	-2e-05	-0.00012	-0.00038	-0.00015	-0.00015	3e-05	3
11232	0.00034	9e-05	-2e-05	-0.00012	-0.00038	-0.00015	-0.00015	3e-05	3
11233	-0.0001	9e-05	-6e-05	-0.00011	-0.00032	-1e-05	9e-05	0.00075	3
11234	-0.0001	9e-05	-6e-05	-0.00011	-0.00032	-1e-05	9e-05	0.00075	3
11235	-0.0001	9e-05	-6e-05	-0.00011	-0.00032	-1e-05	9e-05	0.00075	3
11236	-0.0001	9e-05	-6e-05	-0.00011	-0.00032	-1e-05	9e-05	0.00075	3
11238	-0.0001	9e-05	-6e-05	-0.00011	-0.00032	-1e-05	9e-05	0.00075	3
11239	-0.0001	9e-05	-6e-05	-0.00011	-0.00032	-1e-05	9e-05	0.00075	3
11240	-0.0001	9e-05	-6e-05	-0.00011	-0.00032	-1e-05	9e-05	0.00075	3
11241	-0.0001	9e-05	-6e-05	-0.00011	-0.00032	-1e-05	9e-05	0.00075	3
11242	-0.00011	6e-05	-2e-05	-0.00016	-0.00042	-0.00037	-0.00034	-7e-05	3
11243	-0.00011	6e-05	-2e-05	-0.00016	-0.00042	-0.00037	-0.00034	-7e-05	3
11244	-0.00011	6e-05	-2e-05	-0.00016	-0.00042	-0.00037	-0.00034	-7e-05	3
11245	-0.00011	6e-05	-2e-05	-0.00016	-0.00042	-0.00037	-0.00034	-7e-05	3
11246	-0.00011	6e-05	-2e-05	-0.00016	-0.00042	-0.00037	-0.00034	-7e-05	3
11247	-0.00011	6e-05	-2e-05	-0.00016	-0.00042	-0.00037	-0.00034	-7e-05	3
11248	-0.00011	6e-05	-2e-05	-0.00016	-0.00042	-0.00037	-0.00034	-7e-05	3
11249	-0.00011	6e-05	-2e-05	-0.00016	-0.00042	-0.00037	-0.00034	-7e-05	3
11250	-0.00011	6e-05	-2e-05	-0.00016	-0.00042	-0.00037	-0.00034	-7e-05	3
11251	-0.00011	6e-05	-2e-05	-0.00016	-0.00042	-0.00037	-0.00034	-7e-05	3
11252	-0.00011	6e-05	-2e-05	-0.00016	-0.00042	-0.00037	-0.00034	-7e-05	3
11253	-0.00011	6e-05	-2e-05	-0.00016	-0.00042	-0.00037	-0.00034	-7e-05	3
11254	-0.00011	6e-05	-2e-05	-0.00016	-0.00042	-0.00037	-0.00034	-7e-05	3
11255	-0.00011	6e-05	-2e-05	-0.00016	-0.00042	-0.00037	-0.00034	-7e-05	3
11256	-0.00011	6e-05	-2e-05	-0.00016	-0.00042	-0.00037	-0.00034	-7e-05	3
11257	0.00039	0.0001	0.00018	0.00024	0.00057	0.00018	0.0001	0.00014	3
11258	0.0001	1e-05	-1e-05	-0.00015	-0.00038	-0.00014	0.00024	-0.00012	3
11259	-0.00084	-0.00016	-3e-05	0.00011	3e-05	0.00017	0.00033	-0.00012	3
11260	-0.00084	-0.00016	-3e-05	0.00011	3e-05	0.00017	0.00033	-0.00012	3
11261	-0.00084	-0.00016	-3e-05	0.00011	3e-05	0.00017	0.00033	-0.00012	3
11262	-0.00084	-0.00016	-3e-05	0.00011	3e-05	0.00017	0.00033	-0.00012	3
11263	-0.00084	-0.00016	-3e-05	0.00011	3e-05	0.00017	0.00033	-0.00012	3
11264	-0.00084	-0.00016	-3e-05	0.00011	3e-05	0.00017	0.00033	-0.00012	3
11265	-0.00084	-0.00016	-3e-05	0.00011	3e-05	0.00017	0.00033	-0.00012	3
11266	-0.00084	-0.00016	-3e-05	0.00011	3e-05	0.00017	0.00033	-0.00012	3
11267	-0.00084	-0.00016	-3e-05	0.00011	3e-05	0.00017	0.00033	-0.00012	3
11268	-0.00084	-0.00016	-3e-05	0.00011	3e-05	0.00017	0.00033	-0.00012	3
11269	-0.00084	-0.00016	-3e-05	0.00011	3e-05	0.00017	0.00033	-0.00012	3
11270	-0.00084	-0.00016	-3e-05	0.00011	3e-05	0.00017	0.00033	-0.00012	3
11271	-0.00084	-0.00016	-3e-05	0.00011	3e-05	0.00017	0.00033	-0.00012	3
11272	-0.00084	-0.00016	-3e-05	0.00011	3e-05	0.00017	0.00033	-0.00012	3
11273	-0.00084	-0.00016	-3e-05	0.00011	3e-05	0.00017	0.00033	-0.00012	3
11274	-0.00084	-0.00016	-3e-05	0.00011	3e-05	0.00017	0.00033	-0.00012	3
11275	-0.00084	-0.00016	-3e-05	0.00011	3e-05	0.00017	0.00033	-0.00012	3
11276	-0.00084	-0.00016	-3e-05	0.00011	3e-05	0.00017	0.00033	-0.00012	3
11277	-0.00084	-0.00016	-3e-05	0.00011	3e-05	0.00017	0.00033	-0.00012	3
11278	-0.00084	-0.00016	-3e-05	0.00011	3e-05	0.00017	0.00033	-0.00012	3
11279	-0.00084	-0.00016	-3e-05	0.00011	3e-05	0.00017	0.00033	-0.00012	3
11280	-0.00054	-0.00017	-0.00018	-0.00015	-0.0004	-0.00012	-0.00011	0.0002	3
11281	0.00037	0	0.00013	0.00011	5e-05	-0.00025	-0.00022	0.00055	3
11282	0.00037	0	0.00013	0.00011	5e-05	-0.00025	-0.00022	0.00055	3
11283	0.00037	0	0.00013	0.00011	5e-05	-0.00025	-0.00022	0.00055	3
11284	0.00037	0	0.00013	0.00011	5e-05	-0.00025	-0.00022	0.00055	3
11285	0.00037	0	0.00013	0.00011	5e-05	-0.00025	-0.00022	0.00055	3
11286	0.00037	0	0.00013	0.00011	5e-05	-0.00025	-0.00022	0.00055	3
11288	0.00037	0	0.00013	0.00011	5e-05	-0.00025	-0.00022	0.00055	3
11289	0.00037	0	0.00013	0.00011	5e-05	-0.00025	-0.00022	0.00055	3
11290	0.00037	0	0.00013	0.00011	5e-05	-0.00025	-0.00022	0.00055	3
11291	0.00037	0	0.00013	0.00011	5e-05	-0.00025	-0.00022	0.00055	3
11292	0.00037	0	0.00013	0.00011	5e-05	-0.00025	-0.00022	0.00055	3
11293	0.00037	0	0.00013	0.00011	5e-05	-0.00025	-0.00022	0.00055	3
11294	-0.00064	-0.00021	-0.0001	-6e-05	-0.00037	-0.00022	-0.00066	-0.00035	3
11295	-0.00064	-0.00021	-0.0001	-6e-05	-0.00037	-0.00022	-0.00066	-0.00035	3
11296	-0.00064	-0.00021	-0.0001	-6e-05	-0.00037	-0.00022	-0.00066	-0.00035	3
11297	-0.00064	-0.00021	-0.0001	-6e-05	-0.00037	-0.00022	-0.00066	-0.00035	3
11298	-0.00064	-0.00021	-0.0001	-6e-05	-0.00037	-0.00022	-0.00066	-0.00035	3
11299	-0.00064	-0.00021	-0.0001	-6e-05	-0.00037	-0.00022	-0.00066	-0.00035	3
11300	-0.00064	-0.00021	-0.0001	-6e-05	-0.00037	-0.00022	-0.00066	-0.00035	3
11301	-0.00064	-0.00021	-0.0001	-6e-05	-0.00037	-0.00022	-0.00066	-0.00035	3
11302	0.00062	-0.00012	-5e-05	-0.0001	-0.00026	-0.00017	-0.00018	-0.00069	3
11303	0.00062	-0.00012	-5e-05	-0.0001	-0.00026	-0.00017	-0.00018	-0.00069	3
11304	0.00062	-0.00012	-5e-05	-0.0001	-0.00026	-0.00017	-0.00018	-0.00069	3
11305	0.00062	-0.00012	-5e-05	-0.0001	-0.00026	-0.00017	-0.00018	-0.00069	3
11306	0.00062	-0.00012	-5e-05	-0.0001	-0.00026	-0.00017	-0.00018	-0.00069	3
11307	0.00062	-0.00012	-5e-05	-0.0001	-0.00026	-0.00017	-0.00018	-0.00069	3
11308	0.00062	-0.00012	-5e-05	-0.0001	-0.00026	-0.00017	-0.00018	-0.00069	3
11309	0.00062	-0.00012	-5e-05	-0.0001	-0.00026	-0.00017	-0.00018	-0.00069	3
11310	0.00062	-0.00012	-5e-05	-0.0001	-0.00026	-0.00017	-0.00018	-0.00069	3
11311	0.00062	-0.00012	-5e-05	-0.0001	-0.00026	-0.00017	-0.00018	-0.00069	3
11312	0.00062	-0.00012	-5e-05	-0.0001	-0.00026	-0.00017	-0.00018	-0.00069	3
11313	0.00062	-0.00012	-5e-05	-0.0001	-0.00026	-0.00017	-0.00018	-0.00069	3
11314	0.00062	-0.00012	-5e-05	-0.0001	-0.00026	-0.00017	-0.00018	-0.00069	3
11315	0.00062	-0.00012	-5e-05	-0.0001	-0.00026	-0.00017	-0.00018	-0.00069	3
11316	0.00062	-0.00012	-5e-05	-0.0001	-0.00026	-0.00017	-0.00018	-0.00069	3
11317	0.00033	9e-05	-4e-05	-0.00023	-0.00052	-0.00045	-0.00031	0.00021	3
11318	-0.00051	0.00012	-5e-05	9e-05	0.00032	0.00017	0.00018	-0.00023	3
11319	-3e-05	8e-05	-3e-05	6e-05	0.00025	0.00021	0.00056	0.00034	3
11320	-3e-05	8e-05	-3e-05	6e-05	0.00025	0.00021	0.00056	0.00034	3
11321	-3e-05	8e-05	-3e-05	6e-05	0.00025	0.00021	0.00056	0.00034	3
11322	-3e-05	8e-05	-3e-05	6e-05	0.00025	0.00021	0.00056	0.00034	3
11323	-3e-05	8e-05	-3e-05	6e-05	0.00025	0.00021	0.00056	0.00034	3
11324	-3e-05	8e-05	-3e-05	6e-05	0.00025	0.00021	0.00056	0.00034	3
11325	-3e-05	8e-05	-3e-05	6e-05	0.00025	0.00021	0.00056	0.00034	3
11326	-3e-05	8e-05	-3e-05	6e-05	0.00025	0.00021	0.00056	0.00034	3
11327	-3e-05	8e-05	-3e-05	6e-05	0.00025	0.00021	0.00056	0.00034	3
11328	-3e-05	8e-05	-3e-05	6e-05	0.00025	0.00021	0.00056	0.00034	3
11329	-3e-05	8e-05	-3e-05	6e-05	0.00025	0.00021	0.00056	0.00034	3
11330	-3e-05	8e-05	-3e-05	6e-05	0.00025	0.00021	0.00056	0.00034	3
11331	-3e-05	8e-05	-3e-05	6e-05	0.00025	0.00021	0.00056	0.00034	3
11332	-3e-05	8e-05	-3e-05	6e-05	0.00025	0.00021	0.00056	0.00034	3
11333	-3e-05	8e-05	-3e-05	6e-05	0.00025	0.00021	0.00056	0.00034	3
11334	-3e-05	8e-05	-3e-05	6e-05	0.00025	0.00021	0.00056	0.00034	3
11335	-3e-05	8e-05	-3e-05	6e-05	0.00025	0.00021	0.00056	0.00034	3
11336	-3e-05	8e-05	-3e-05	6e-05	0.00025	0.00021	0.00056	0.00034	3
11338	-3e-05	8e-05	-3e-05	6e-05	0.00025	0.00021	0.00056	0.00034	3
11339	-3e-05	8e-05	-3e-05	6e-05	0.00025	0.00021	0.00056	0.00034	3
11340	-3e-05	8e-05	-3e-05	6e-05	0.00025	0.00021	0.00056	0.00034	3
11341	-3e-05	8e-05	-3e-05	6e-05	0.00025	0.00021	0.00056	0.00034	3
11342	-3e-05	8e-05	-3e-05	6e-05	0.00025	0.00021	0.00056	0.00034	3
11343	-3e-05	8e-05	-3e-05	6e-05	0.00025	0.00021	0.00056	0.00034	3
11344	-3e-05	8e-05	-3e-05	6e-05	0.00025	0.00021	0.00056	0.00034	3
11345	-3e-05	8e-05	-3e-05	6e-05	0.00025	0.00021	0.00056	0.00034	3
11346	-3e-05	8e-05	-3e-05	6e-05	0.00025	0.00021	0.00056	0.00034	3
11347	4e-05	-1e-05	0.0001	0.00025	0.00037	9e-05	6e-05	0.00022	3
11348	4e-05	-1e-05	0.0001	0.00025	0.00037	9e-05	6e-05	0.00022	3
11349	-4e-05	-0.00011	2e-05	4e-05	0.00025	-0.00015	0.00015	0.0001	3
11350	-4e-05	-0.00011	2e-05	4e-05	0.00025	-0.00015	0.00015	0.0001	3
11351	-4e-05	-0.00011	2e-05	4e-05	0.00025	-0.00015	0.00015	0.0001	3
11352	-4e-05	-0.00011	2e-05	4e-05	0.00025	-0.00015	0.00015	0.0001	3
11353	-0.00018	-0.00022	-0.00011	-0.00025	-0.00061	-7e-05	0.00074	0.00045	3
11354	-0.00018	-0.00022	-0.00011	-0.00025	-0.00061	-7e-05	0.00074	0.00045	3
11355	-0.00018	-0.00022	-0.00011	-0.00025	-0.00061	-7e-05	0.00074	0.00045	3
11356	-0.00018	-0.00022	-0.00011	-0.00025	-0.00061	-7e-05	0.00074	0.00045	3
11357	-0.00018	-0.00022	-0.00011	-0.00025	-0.00061	-7e-05	0.00074	0.00045	3
11358	-0.00018	-0.00022	-0.00011	-0.00025	-0.00061	-7e-05	0.00074	0.00045	3
11359	-0.00018	-0.00022	-0.00011	-0.00025	-0.00061	-7e-05	0.00074	0.00045	3
11360	-0.00018	-0.00022	-0.00011	-0.00025	-0.00061	-7e-05	0.00074	0.00045	3
11361	-0.00018	-0.00022	-0.00011	-0.00025	-0.00061	-7e-05	0.00074	0.00045	3
11362	-0.00018	-0.00022	-0.00011	-0.00025	-0.00061	-7e-05	0.00074	0.00045	3
11363	-0.00018	-0.00022	-0.00011	-0.00025	-0.00061	-7e-05	0.00074	0.00045	3
11364	-0.00018	-0.00022	-0.00011	-0.00025	-0.00061	-7e-05	0.00074	0.00045	3
11365	-0.00018	-0.00022	-0.00011	-0.00025	-0.00061	-7e-05	0.00074	0.00045	3
11366	-0.00018	-0.00022	-0.00011	-0.00025	-0.00061	-7e-05	0.00074	0.00045	3
11367	-0.00018	-0.00022	-0.00011	-0.00025	-0.00061	-7e-05	0.00074	0.00045	3
11368	-0.00018	-0.00022	-0.00011	-0.00025	-0.00061	-7e-05	0.00074	0.00045	3
11369	2e-05	6e-05	3e-05	0	-0.00022	-4e-05	-0.00046	0.0005	3
11370	0.00017	0.00018	0.00017	0.00019	0.00037	0.00042	0.00015	-0.00033	3
11371	0.00017	0.00018	0.00017	0.00019	0.00037	0.00042	0.00015	-0.00033	3
11372	0.00017	0.00018	0.00017	0.00019	0.00037	0.00042	0.00015	-0.00033	3
39690	-0.00093	-0.00018	7e-05	-0.00015	-8e-05	0.00032	0.00062	0.00067	3
39691	-0.00093	-0.00018	7e-05	-0.00015	-8e-05	0.00032	0.00062	0.00067	3
39692	-0.00093	-0.00018	7e-05	-0.00015	-8e-05	0.00032	0.00062	0.00067	3
39693	-0.00093	-0.00018	7e-05	-0.00015	-8e-05	0.00032	0.00062	0.00067	3
39694	-0.00093	-0.00018	7e-05	-0.00015	-8e-05	0.00032	0.00062	0.00067	3
39695	-0.00093	-0.00018	7e-05	-0.00015	-8e-05	0.00032	0.00062	0.00067	3
39696	-0.00093	-0.00018	7e-05	-0.00015	-8e-05	0.00032	0.00062	0.00067	3
39697	-0.00093	-0.00018	7e-05	-0.00015	-8e-05	0.00032	0.00062	0.00067	3
39698	-0.00026	-0.00022	-3e-05	0.0006	0.00051	0.0003	-0.0009	-0.00035	3
39699	-0.00026	-0.00022	-3e-05	0.0006	0.00051	0.0003	-0.0009	-0.00035	3
39700	-0.00026	-0.00022	-3e-05	0.0006	0.00051	0.0003	-0.0009	-0.00035	3
39701	-0.00026	-0.00022	-3e-05	0.0006	0.00051	0.0003	-0.0009	-0.00035	3
39702	-0.00026	-0.00022	-3e-05	0.0006	0.00051	0.0003	-0.0009	-0.00035	3
39703	-0.00026	-0.00022	-3e-05	0.0006	0.00051	0.0003	-0.0009	-0.00035	3
39704	-0.00026	-0.00022	-3e-05	0.0006	0.00051	0.0003	-0.0009	-0.00035	3
39705	-0.00026	-0.00022	-3e-05	0.0006	0.00051	0.0003	-0.0009	-0.00035	3
39706	-0.00026	-0.00022	-3e-05	0.0006	0.00051	0.0003	-0.0009	-0.00035	3
39707	-0.00026	-0.00022	-3e-05	0.0006	0.00051	0.0003	-0.0009	-0.00035	3
39708	-0.00026	-0.00022	-3e-05	0.0006	0.00051	0.0003	-0.0009	-0.00035	3
39709	-0.00026	-0.00022	-3e-05	0.0006	0.00051	0.0003	-0.0009	-0.00035	3
39710	-0.00026	-0.00022	-3e-05	0.0006	0.00051	0.0003	-0.0009	-0.00035	3
39711	-0.00026	-0.00022	-3e-05	0.0006	0.00051	0.0003	-0.0009	-0.00035	3
39712	-0.00026	-0.00022	-3e-05	0.0006	0.00051	0.0003	-0.0009	-0.00035	3
39713	-0.00015	-0.00031	-9e-05	-0.00021	-0.00079	-0.00061	-0.00031	-0.00039	3
39714	-0.00015	-0.00031	-9e-05	-0.00021	-0.00079	-0.00061	-0.00031	-0.00039	3
39715	0.0002	0.00017	8e-05	7e-05	-0.00013	-0.0006	0.00027	-0.00017	3
39716	0.0002	0.00017	8e-05	7e-05	-0.00013	-0.0006	0.00027	-0.00017	3
39717	0.0002	0.00017	8e-05	7e-05	-0.00013	-0.0006	0.00027	-0.00017	3
39718	0.0002	0.00017	8e-05	7e-05	-0.00013	-0.0006	0.00027	-0.00017	3
39719	0.0002	0.00017	8e-05	7e-05	-0.00013	-0.0006	0.00027	-0.00017	3
39720	0.0002	0.00017	8e-05	7e-05	-0.00013	-0.0006	0.00027	-0.00017	3
39721	0.0002	0.00017	8e-05	7e-05	-0.00013	-0.0006	0.00027	-0.00017	3
39722	0.0002	0.00017	8e-05	7e-05	-0.00013	-0.0006	0.00027	-0.00017	3
39723	0.0002	0.00017	8e-05	7e-05	-0.00013	-0.0006	0.00027	-0.00017	3
39724	0.0002	0.00017	8e-05	7e-05	-0.00013	-0.0006	0.00027	-0.00017	3
39725	0.0002	0.00017	8e-05	7e-05	-0.00013	-0.0006	0.00027	-0.00017	3
39726	0.0002	0.00017	8e-05	7e-05	-0.00013	-0.0006	0.00027	-0.00017	3
39727	0.0002	0.00017	8e-05	7e-05	-0.00013	-0.0006	0.00027	-0.00017	3
39728	0.0002	0.00017	8e-05	7e-05	-0.00013	-0.0006	0.00027	-0.00017	3
39729	0.0002	0.00017	8e-05	7e-05	-0.00013	-0.0006	0.00027	-0.00017	3
39730	0.0002	0.00017	8e-05	7e-05	-0.00013	-0.0006	0.00027	-0.00017	3
39731	0.0002	0.00017	8e-05	7e-05	-0.00013	-0.0006	0.00027	-0.00017	3
39732	0.0002	0.00017	8e-05	7e-05	-0.00013	-0.0006	0.00027	-0.00017	3
39733	0.0002	0.00017	8e-05	7e-05	-0.00013	-0.0006	0.00027	-0.00017	3
39734	0.0002	0.00017	8e-05	7e-05	-0.00013	-0.0006	0.00027	-0.00017	3
39735	0.00019	0.00027	0.00017	0.00032	0.00121	0.00096	-0.00068	-0.0006	3
39737	0.00085	0.00023	-2e-05	-9e-05	0.0001	-4e-05	0.00013	0.00047	3
39740	0.00085	0.00023	-2e-05	-9e-05	0.0001	-4e-05	0.00013	0.00047	3
39741	0.00085	0.00023	-2e-05	-9e-05	0.0001	-4e-05	0.00013	0.00047	3
39742	0.00085	0.00023	-2e-05	-9e-05	0.0001	-4e-05	0.00013	0.00047	3
39743	0.00085	0.00023	-2e-05	-9e-05	0.0001	-4e-05	0.00013	0.00047	3
39744	0.00085	0.00023	-2e-05	-9e-05	0.0001	-4e-05	0.00013	0.00047	3
39745	0.00085	0.00023	-2e-05	-9e-05	0.0001	-4e-05	0.00013	0.00047	3
39746	0.00085	0.00023	-2e-05	-9e-05	0.0001	-4e-05	0.00013	0.00047	3
39747	0.00085	0.00023	-2e-05	-9e-05	0.0001	-4e-05	0.00013	0.00047	3
39748	0.00085	0.00023	-2e-05	-9e-05	0.0001	-4e-05	0.00013	0.00047	3
39749	-0.0002	-6e-05	2e-05	-6e-05	-0.00083	-0.00011	0.00069	0.00015	3
39750	-0.0002	-6e-05	2e-05	-6e-05	-0.00083	-0.00011	0.00069	0.00015	3
39751	-0.0002	-6e-05	2e-05	-6e-05	-0.00083	-0.00011	0.00069	0.00015	3
39752	-0.0002	-6e-05	2e-05	-6e-05	-0.00083	-0.00011	0.00069	0.00015	3
39753	-0.0002	-6e-05	2e-05	-6e-05	-0.00083	-0.00011	0.00069	0.00015	3
39754	-0.0002	-6e-05	2e-05	-6e-05	-0.00083	-0.00011	0.00069	0.00015	3
39755	-0.0002	-6e-05	2e-05	-6e-05	-0.00083	-0.00011	0.00069	0.00015	3
39756	-0.0002	-6e-05	2e-05	-6e-05	-0.00083	-0.00011	0.00069	0.00015	3
39757	-0.0002	-6e-05	2e-05	-6e-05	-0.00083	-0.00011	0.00069	0.00015	3
39758	0.00053	0.00068	-1e-05	-0.00022	-0.00037	-0.00066	0.00016	0.00033	3
39759	0.00053	0.00068	-1e-05	-0.00022	-0.00037	-0.00066	0.00016	0.00033	3
39760	0.00053	0.00068	-1e-05	-0.00022	-0.00037	-0.00066	0.00016	0.00033	3
39761	0.00053	0.00068	-1e-05	-0.00022	-0.00037	-0.00066	0.00016	0.00033	3
39762	0.00053	0.00068	-1e-05	-0.00022	-0.00037	-0.00066	0.00016	0.00033	3
39763	0.00053	0.00068	-1e-05	-0.00022	-0.00037	-0.00066	0.00016	0.00033	3
39764	0.00053	0.00068	-1e-05	-0.00022	-0.00037	-0.00066	0.00016	0.00033	3
39765	0.00053	0.00068	-1e-05	-0.00022	-0.00037	-0.00066	0.00016	0.00033	3
39766	0.00053	0.00068	-1e-05	-0.00022	-0.00037	-0.00066	0.00016	0.00033	3
39767	0.00053	0.00068	-1e-05	-0.00022	-0.00037	-0.00066	0.00016	0.00033	3
39768	0.00053	0.00068	-1e-05	-0.00022	-0.00037	-0.00066	0.00016	0.00033	3
39769	0.00053	0.00068	-1e-05	-0.00022	-0.00037	-0.00066	0.00016	0.00033	3
39770	0.00053	0.00068	-1e-05	-0.00022	-0.00037	-0.00066	0.00016	0.00033	3
39771	0.00053	0.00068	-1e-05	-0.00022	-0.00037	-0.00066	0.00016	0.00033	3
39772	0.00053	0.00068	-1e-05	-0.00022	-0.00037	-0.00066	0.00016	0.00033	3
39773	-0.0006	9e-05	3e-05	0.00023	0.00022	-0.00037	-0.00042	-0.00027	3
39774	-0.0006	9e-05	3e-05	0.00023	0.00022	-0.00037	-0.00042	-0.00027	3
39775	0.00022	8e-05	7e-05	-0.00032	-0.0011	-3e-05	-0.00098	-0.00097	3
39776	0.00022	8e-05	7e-05	-0.00032	-0.0011	-3e-05	-0.00098	-0.00097	3
39777	0.00022	8e-05	7e-05	-0.00032	-0.0011	-3e-05	-0.00098	-0.00097	3
39778	0.00022	8e-05	7e-05	-0.00032	-0.0011	-3e-05	-0.00098	-0.00097	3
39779	0.00022	8e-05	7e-05	-0.00032	-0.0011	-3e-05	-0.00098	-0.00097	3
39780	0.00022	8e-05	7e-05	-0.00032	-0.0011	-3e-05	-0.00098	-0.00097	3
39781	0.00022	8e-05	7e-05	-0.00032	-0.0011	-3e-05	-0.00098	-0.00097	3
39782	0.00022	8e-05	7e-05	-0.00032	-0.0011	-3e-05	-0.00098	-0.00097	3
39783	0.00022	8e-05	7e-05	-0.00032	-0.0011	-3e-05	-0.00098	-0.00097	3
39784	0.00022	8e-05	7e-05	-0.00032	-0.0011	-3e-05	-0.00098	-0.00097	3
39785	0.00022	8e-05	7e-05	-0.00032	-0.0011	-3e-05	-0.00098	-0.00097	3
39786	0.00022	8e-05	7e-05	-0.00032	-0.0011	-3e-05	-0.00098	-0.00097	3
39789	0.00022	8e-05	7e-05	-0.00032	-0.0011	-3e-05	-0.00098	-0.00097	3
39790	0.00022	8e-05	7e-05	-0.00032	-0.0011	-3e-05	-0.00098	-0.00097	3
39791	0.00022	8e-05	7e-05	-0.00032	-0.0011	-3e-05	-0.00098	-0.00097	3
39792	0.00022	8e-05	7e-05	-0.00032	-0.0011	-3e-05	-0.00098	-0.00097	3
39793	0.00022	8e-05	7e-05	-0.00032	-0.0011	-3e-05	-0.00098	-0.00097	3
39794	0.00022	8e-05	7e-05	-0.00032	-0.0011	-3e-05	-0.00098	-0.00097	3
39795	-9e-05	3e-05	-0.00013	-0.00032	-0.00024	0.00032	-3e-05	0.00021	3
39796	-9e-05	3e-05	-0.00013	-0.00032	-0.00024	0.00032	-3e-05	0.00021	3
39797	-9e-05	3e-05	-0.00013	-0.00032	-0.00024	0.00032	-3e-05	0.00021	3
39798	-7e-05	-0.00043	-0.00015	0.00018	2e-05	-0.00087	0.00031	0.00045	3
39799	-0.00072	0	0.0002	0.00016	-0.0002	0.00034	0.00039	0.00029	3
39800	-0.00072	0	0.0002	0.00016	-0.0002	0.00034	0.00039	0.00029	3
39801	-0.00072	0	0.0002	0.00016	-0.0002	0.00034	0.00039	0.00029	3
39802	-0.00072	0	0.0002	0.00016	-0.0002	0.00034	0.00039	0.00029	3
39803	-0.00072	0	0.0002	0.00016	-0.0002	0.00034	0.00039	0.00029	3
39804	-0.00072	0	0.0002	0.00016	-0.0002	0.00034	0.00039	0.00029	3
39805	-0.00072	0	0.0002	0.00016	-0.0002	0.00034	0.00039	0.00029	3
39806	-0.00072	0	0.0002	0.00016	-0.0002	0.00034	0.00039	0.00029	3
39807	-0.00072	0	0.0002	0.00016	-0.0002	0.00034	0.00039	0.00029	3
39808	-0.00072	0	0.0002	0.00016	-0.0002	0.00034	0.00039	0.00029	3
39809	9e-05	2e-05	2e-05	-0.00019	6e-05	0.00019	-0.00025	0.00069	3
39810	9e-05	2e-05	2e-05	-0.00019	6e-05	0.00019	-0.00025	0.00069	3
39811	9e-05	2e-05	2e-05	-0.00019	6e-05	0.00019	-0.00025	0.00069	3
39812	9e-05	2e-05	2e-05	-0.00019	6e-05	0.00019	-0.00025	0.00069	3
39813	9e-05	2e-05	2e-05	-0.00019	6e-05	0.00019	-0.00025	0.00069	3
39814	9e-05	2e-05	2e-05	-0.00019	6e-05	0.00019	-0.00025	0.00069	3
39815	9e-05	2e-05	2e-05	-0.00019	6e-05	0.00019	-0.00025	0.00069	3
39816	9e-05	2e-05	2e-05	-0.00019	6e-05	0.00019	-0.00025	0.00069	3
39817	9e-05	2e-05	2e-05	-0.00019	6e-05	0.00019	-0.00025	0.00069	3
39818	9e-05	2e-05	2e-05	-0.00019	6e-05	0.00019	-0.00025	0.00069	3
39819	0.00022	1e-05	-2e-05	0.00014	0.00057	0.00054	0.00027	-0.00033	3
39820	0.00022	1e-05	-2e-05	0.00014	0.00057	0.00054	0.00027	-0.00033	3
39821	0.00022	1e-05	-2e-05	0.00014	0.00057	0.00054	0.00027	-0.00033	3
39822	0.00022	1e-05	-2e-05	0.00014	0.00057	0.00054	0.00027	-0.00033	3
39823	0.00022	1e-05	-2e-05	0.00014	0.00057	0.00054	0.00027	-0.00033	3
39824	0.00022	1e-05	-2e-05	0.00014	0.00057	0.00054	0.00027	-0.00033	3
39825	0.00022	1e-05	-2e-05	0.00014	0.00057	0.00054	0.00027	-0.00033	3
39826	0.00022	1e-05	-2e-05	0.00014	0.00057	0.00054	0.00027	-0.00033	3
39827	0.00022	1e-05	-2e-05	0.00014	0.00057	0.00054	0.00027	-0.00033	3
39828	0.00022	1e-05	-2e-05	0.00014	0.00057	0.00054	0.00027	-0.00033	3
39829	0.00022	1e-05	-2e-05	0.00014	0.00057	0.00054	0.00027	-0.00033	3
39830	0.00022	1e-05	-2e-05	0.00014	0.00057	0.00054	0.00027	-0.00033	3
39831	0.00022	1e-05	-2e-05	0.00014	0.00057	0.00054	0.00027	-0.00033	3
39832	0.00022	1e-05	-2e-05	0.00014	0.00057	0.00054	0.00027	-0.00033	3
39833	0.0001	8e-05	0	0.00019	0.00016	-0.0001	0.00021	0.00018	3
39834	0.0001	8e-05	0	0.00019	0.00016	-0.0001	0.00021	0.00018	3
39835	0.00044	-9e-05	-0.00026	-0.00019	-0.00058	-0.00023	-1e-05	0.00024	3
39836	0.00044	-9e-05	-0.00026	-0.00019	-0.00058	-0.00023	-1e-05	0.00024	3
39839	0.00044	-9e-05	-0.00026	-0.00019	-0.00058	-0.00023	-1e-05	0.00024	3
39840	0.00044	-9e-05	-0.00026	-0.00019	-0.00058	-0.00023	-1e-05	0.00024	3
39841	0.00044	-9e-05	-0.00026	-0.00019	-0.00058	-0.00023	-1e-05	0.00024	3
39842	0.00044	-9e-05	-0.00026	-0.00019	-0.00058	-0.00023	-1e-05	0.00024	3
39843	0.00044	-9e-05	-0.00026	-0.00019	-0.00058	-0.00023	-1e-05	0.00024	3
39844	0.00044	-9e-05	-0.00026	-0.00019	-0.00058	-0.00023	-1e-05	0.00024	3
39845	0.00044	-9e-05	-0.00026	-0.00019	-0.00058	-0.00023	-1e-05	0.00024	3
39846	0.00044	-9e-05	-0.00026	-0.00019	-0.00058	-0.00023	-1e-05	0.00024	3
39847	0.00044	-9e-05	-0.00026	-0.00019	-0.00058	-0.00023	-1e-05	0.00024	3
39848	0.00044	-9e-05	-0.00026	-0.00019	-0.00058	-0.00023	-1e-05	0.00024	3
39849	0.00044	-9e-05	-0.00026	-0.00019	-0.00058	-0.00023	-1e-05	0.00024	3
39850	0.00044	-9e-05	-0.00026	-0.00019	-0.00058	-0.00023	-1e-05	0.00024	3
39851	0.00044	-9e-05	-0.00026	-0.00019	-0.00058	-0.00023	-1e-05	0.00024	3
39852	0.00044	-9e-05	-0.00026	-0.00019	-0.00058	-0.00023	-1e-05	0.00024	3
39853	0.00044	-9e-05	-0.00026	-0.00019	-0.00058	-0.00023	-1e-05	0.00024	3
39854	0.00044	-9e-05	-0.00026	-0.00019	-0.00058	-0.00023	-1e-05	0.00024	3
39855	0.00044	-9e-05	-0.00026	-0.00019	-0.00058	-0.00023	-1e-05	0.00024	3
39856	0.00061	9e-05	0.00017	0.0004	0.00073	0.00041	-0.00015	-0.00023	3
39857	-0.00068	9e-05	0.00016	0.00013	-0.00089	-0.00012	0.00038	-0.00012	3
39858	-0.00068	9e-05	0.00016	0.00013	-0.00089	-0.00012	0.00038	-0.00012	3
39859	-0.00068	9e-05	0.00016	0.00013	-0.00089	-0.00012	0.00038	-0.00012	3
39860	-0.00068	9e-05	0.00016	0.00013	-0.00089	-0.00012	0.00038	-0.00012	3
39861	-0.00068	9e-05	0.00016	0.00013	-0.00089	-0.00012	0.00038	-0.00012	3
39862	-0.00068	9e-05	0.00016	0.00013	-0.00089	-0.00012	0.00038	-0.00012	3
39863	-0.00068	9e-05	0.00016	0.00013	-0.00089	-0.00012	0.00038	-0.00012	3
39864	-0.00068	9e-05	0.00016	0.00013	-0.00089	-0.00012	0.00038	-0.00012	3
39865	-0.00068	9e-05	0.00016	0.00013	-0.00089	-0.00012	0.00038	-0.00012	3
39866	-0.00068	9e-05	0.00016	0.00013	-0.00089	-0.00012	0.00038	-0.00012	3
39867	-0.00068	9e-05	0.00016	0.00013	-0.00089	-0.00012	0.00038	-0.00012	3
39868	-0.00068	9e-05	0.00016	0.00013	-0.00089	-0.00012	0.00038	-0.00012	3
39869	-0.00068	9e-05	0.00016	0.00013	-0.00089	-0.00012	0.00038	-0.00012	3
39870	-0.00068	9e-05	0.00016	0.00013	-0.00089	-0.00012	0.00038	-0.00012	3
39871	-0.00068	9e-05	0.00016	0.00013	-0.00089	-0.00012	0.00038	-0.00012	3
39872	-0.00068	9e-05	0.00016	0.00013	-0.00089	-0.00012	0.00038	-0.00012	3
39873	-0.00068	9e-05	0.00016	0.00013	-0.00089	-0.00012	0.00038	-0.00012	3
39874	-0.00068	9e-05	0.00016	0.00013	-0.00089	-0.00012	0.00038	-0.00012	3
39875	-0.00068	9e-05	0.00016	0.00013	-0.00089	-0.00012	0.00038	-0.00012	3
39876	-0.00068	9e-05	0.00016	0.00013	-0.00089	-0.00012	0.00038	-0.00012	3
39877	-0.00068	9e-05	0.00016	0.00013	-0.00089	-0.00012	0.00038	-0.00012	3
39878	-0.00027	-0.00014	-0.0001	-0.00034	-0.00065	-4e-05	0.00038	2e-05	3
39879	-0.00027	-0.00014	-0.0001	-0.00034	-0.00065	-4e-05	0.00038	2e-05	3
39880	0.00032	5e-05	5e-05	0.00016	0.00071	0.00027	-0.00027	0.00012	3
39881	0.00032	5e-05	5e-05	0.00016	0.00071	0.00027	-0.00027	0.00012	3
39882	0.00032	5e-05	5e-05	0.00016	0.00071	0.00027	-0.00027	0.00012	3
39883	0.00032	5e-05	5e-05	0.00016	0.00071	0.00027	-0.00027	0.00012	3
39884	0.00032	5e-05	5e-05	0.00016	0.00071	0.00027	-0.00027	0.00012	3
39885	0.00032	5e-05	5e-05	0.00016	0.00071	0.00027	-0.00027	0.00012	3
39886	0.00032	5e-05	5e-05	0.00016	0.00071	0.00027	-0.00027	0.00012	3
