20239	-5e-05	0.00015	-0.0002	-0.00013	-0.00043	0.00016	-4e-05	-4e-05	5
20240	-5e-05	0.00015	-0.0002	-0.00013	-0.00043	0.00016	-4e-05	-4e-05	5
20241	-5e-05	0.00015	-0.0002	-0.00013	-0.00043	0.00016	-4e-05	-4e-05	5
20242	-5e-05	0.00015	-0.0002	-0.00013	-0.00043	0.00016	-4e-05	-4e-05	5
20243	-0.00028	-0.0004	-0.00043	-0.00091	0.00102	0.00036	0.0001	0	5
20244	-2e-05	-8e-05	-8e-05	0.00127	0.00043	-0.00026	-2e-05	-8e-05	5
20245	-2e-05	-8e-05	-8e-05	0.00127	0.00043	-0.00026	-2e-05	-8e-05	5
20246	-2e-05	-8e-05	-8e-05	0.00127	0.00043	-0.00026	-2e-05	-8e-05	5
20247	-2e-05	-8e-05	-8e-05	0.00127	0.00043	-0.00026	-2e-05	-8e-05	5
20248	-2e-05	-8e-05	-8e-05	0.00127	0.00043	-0.00026	-2e-05	-8e-05	5
20249	-2e-05	-8e-05	-8e-05	0.00127	0.00043	-0.00026	-2e-05	-8e-05	5
20250	-2e-05	-8e-05	-8e-05	0.00127	0.00043	-0.00026	-2e-05	-8e-05	5
20251	-2e-05	-8e-05	-8e-05	0.00127	0.00043	-0.00026	-2e-05	-8e-05	5
20252	-2e-05	-8e-05	-8e-05	0.00127	0.00043	-0.00026	-2e-05	-8e-05	5
20253	-2e-05	-8e-05	-8e-05	0.00127	0.00043	-0.00026	-2e-05	-8e-05	5
20254	-2e-05	-8e-05	-8e-05	0.00127	0.00043	-0.00026	-2e-05	-8e-05	5
20255	-2e-05	-8e-05	-8e-05	0.00127	0.00043	-0.00026	-2e-05	-8e-05	5
20256	-2e-05	-8e-05	-8e-05	0.00127	0.00043	-0.00026	-2e-05	-8e-05	5
20257	-2e-05	-8e-05	-8e-05	0.00127	0.00043	-0.00026	-2e-05	-8e-05	5
20258	-2e-05	-8e-05	-8e-05	0.00127	0.00043	-0.00026	-2e-05	-8e-05	5
20259	-2e-05	-8e-05	-8e-05	0.00127	0.00043	-0.00026	-2e-05	-8e-05	5
20260	-2e-05	-8e-05	-8e-05	0.00127	0.00043	-0.00026	-2e-05	-8e-05	5
20261	-2e-05	-8e-05	-8e-05	0.00127	0.00043	-0.00026	-2e-05	-8e-05	5
20262	-2e-05	-8e-05	-8e-05	0.00127	0.00043	-0.00026	-2e-05	-8e-05	5
20263	-2e-05	-8e-05	-8e-05	0.00127	0.00043	-0.00026	-2e-05	-8e-05	5
20264	-2e-05	-8e-05	-8e-05	0.00127	0.00043	-0.00026	-2e-05	-8e-05	5
20265	0.00013	0.00018	-0.00052	-0.00064	-0.00017	3e-05	-3e-05	4e-05	5
20266	1e-05	0	0.00011	0.00012	-0.00035	-0.00026	-6e-05	3e-05	5
20267	1e-05	0	0.00011	0.00012	-0.00035	-0.00026	-6e-05	3e-05	5
20268	1e-05	0	0.00011	0.00012	-0.00035	-0.00026	-6e-05	3e-05	5
20269	1e-05	0	0.00011	0.00012	-0.00035	-0.00026	-6e-05	3e-05	5
20270	1e-05	0	0.00011	0.00012	-0.00035	-0.00026	-6e-05	3e-05	5
20271	1e-05	0	0.00011	0.00012	-0.00035	-0.00026	-6e-05	3e-05	5
20272	1e-05	0	0.00011	0.00012	-0.00035	-0.00026	-6e-05	3e-05	5
20273	1e-05	0	0.00011	0.00012	-0.00035	-0.00026	-6e-05	3e-05	5
20274	1e-05	0	0.00011	0.00012	-0.00035	-0.00026	-6e-05	3e-05	5
20275	1e-05	0	0.00011	0.00012	-0.00035	-0.00026	-6e-05	3e-05	5
20276	1e-05	0	0.00011	0.00012	-0.00035	-0.00026	-6e-05	3e-05	5
20277	1e-05	0	0.00011	0.00012	-0.00035	-0.00026	-6e-05	3e-05	5
20278	1e-05	0	0.00011	0.00012	-0.00035	-0.00026	-6e-05	3e-05	5
20279	0	-0.00018	-9e-05	0.00127	-0.00065	-7e-05	-1e-05	3e-05	5
20280	-0.00013	0.00011	1e-05	0.00091	-0.0004	-0.00027	-7e-05	-9e-05	5
20281	-0.00013	0.00011	1e-05	0.00091	-0.0004	-0.00027	-7e-05	-9e-05	5
20282	-0.00013	0.00011	1e-05	0.00091	-0.0004	-0.00027	-7e-05	-9e-05	5
20283	-0.00013	0.00011	1e-05	0.00091	-0.0004	-0.00027	-7e-05	-9e-05	5
20284	-0.00013	0.00011	1e-05	0.00091	-0.0004	-0.00027	-7e-05	-9e-05	5
20285	-0.00013	0.00011	1e-05	0.00091	-0.0004	-0.00027	-7e-05	-9e-05	5
20286	-0.00013	0.00011	1e-05	0.00091	-0.0004	-0.00027	-7e-05	-9e-05	5
20288	-0.00013	0.00011	1e-05	0.00091	-0.0004	-0.00027	-7e-05	-9e-05	5
20289	-0.00013	0.00011	1e-05	0.00091	-0.0004	-0.00027	-7e-05	-9e-05	5
20290	-0.00013	0.00011	1e-05	0.00091	-0.0004	-0.00027	-7e-05	-9e-05	5
20291	-0.00013	0.00011	1e-05	0.00091	-0.0004	-0.00027	-7e-05	-9e-05	5
20292	-0.00013	0.00011	1e-05	0.00091	-0.0004	-0.00027	-7e-05	-9e-05	5
20293	-0.00013	0.00011	1e-05	0.00091	-0.0004	-0.00027	-7e-05	-9e-05	5
20294	-0.00013	0.00011	1e-05	0.00091	-0.0004	-0.00027	-7e-05	-9e-05	5
20295	-0.00013	0.00011	1e-05	0.00091	-0.0004	-0.00027	-7e-05	-9e-05	5
20296	-0.00013	0.00011	1e-05	0.00091	-0.0004	-0.00027	-7e-05	-9e-05	5
20297	-0.00013	0.00011	1e-05	0.00091	-0.0004	-0.00027	-7e-05	-9e-05	5
20298	-0.00013	0.00011	1e-05	0.00091	-0.0004	-0.00027	-7e-05	-9e-05	5
20299	-0.00013	0.00011	1e-05	0.00091	-0.0004	-0.00027	-7e-05	-9e-05	5
20300	-0.00013	0.00011	1e-05	0.00091	-0.0004	-0.00027	-7e-05	-9e-05	5
20301	-0.00013	0.00011	1e-05	0.00091	-0.0004	-0.00027	-7e-05	-9e-05	5
20302	-0.00013	0.00011	1e-05	0.00091	-0.0004	-0.00027	-7e-05	-9e-05	5
20303	-7e-05	0.00021	0.00014	-0.00068	-0.00042	-0.00011	6e-05	-1e-05	5
20304	-7e-05	0.00021	0.00014	-0.00068	-0.00042	-0.00011	6e-05	-1e-05	5
20305	-7e-05	0.00021	0.00014	-0.00068	-0.00042	-0.00011	6e-05	-1e-05	5
20306	-7e-05	0.00021	0.00014	-0.00068	-0.00042	-0.00011	6e-05	-1e-05	5
20307	-7e-05	0.00021	0.00014	-0.00068	-0.00042	-0.00011	6e-05	-1e-05	5
20308	-7e-05	0.00021	0.00014	-0.00068	-0.00042	-0.00011	6e-05	-1e-05	5
20309	-7e-05	0.00021	0.00014	-0.00068	-0.00042	-0.00011	6e-05	-1e-05	5
20310	-7e-05	0.00021	0.00014	-0.00068	-0.00042	-0.00011	6e-05	-1e-05	5
20311	-7e-05	0.00021	0.00014	-0.00068	-0.00042	-0.00011	6e-05	-1e-05	5
20312	-7e-05	0.00021	0.00014	-0.00068	-0.00042	-0.00011	6e-05	-1e-05	5
20313	-7e-05	0.00021	0.00014	-0.00068	-0.00042	-0.00011	6e-05	-1e-05	5
20314	-7e-05	0.00021	0.00014	-0.00068	-0.00042	-0.00011	6e-05	-1e-05	5
20315	-7e-05	0.00021	0.00014	-0.00068	-0.00042	-0.00011	6e-05	-1e-05	5
20316	-7e-05	0.00021	0.00014	-0.00068	-0.00042	-0.00011	6e-05	-1e-05	5
20317	-7e-05	0.00021	0.00014	-0.00068	-0.00042	-0.00011	6e-05	-1e-05	5
20318	-7e-05	0.00021	0.00014	-0.00068	-0.00042	-0.00011	6e-05	-1e-05	5
20319	-7e-05	0.00021	0.00014	-0.00068	-0.00042	-0.00011	6e-05	-1e-05	5
20320	-7e-05	0.00021	0.00014	-0.00068	-0.00042	-0.00011	6e-05	-1e-05	5
20321	-7e-05	0.00021	0.00014	-0.00068	-0.00042	-0.00011	6e-05	-1e-05	5
20322	-7e-05	0.00021	0.00014	-0.00068	-0.00042	-0.00011	6e-05	-1e-05	5
20323	-7e-05	0.00021	0.00014	-0.00068	-0.00042	-0.00011	6e-05	-1e-05	5
20324	-7e-05	0.00021	0.00014	-0.00068	-0.00042	-0.00011	6e-05	-1e-05	5
20325	-2e-05	-0.00042	-0.0001	0.00082	0.00013	-3e-05	0.00013	0	5
20326	-0.00017	-0.0002	0.00022	-0.00069	-0.00058	-0.00015	-0.0002	-0.00014	5
20327	-0.00017	-0.0002	0.00022	-0.00069	-0.00058	-0.00015	-0.0002	-0.00014	5
20328	-0.00017	-0.0002	0.00022	-0.00069	-0.00058	-0.00015	-0.0002	-0.00014	5
20329	-0.00017	-0.0002	0.00022	-0.00069	-0.00058	-0.00015	-0.0002	-0.00014	5
20330	-0.00017	-0.0002	0.00022	-0.00069	-0.00058	-0.00015	-0.0002	-0.00014	5
20331	-0.00017	-0.0002	0.00022	-0.00069	-0.00058	-0.00015	-0.0002	-0.00014	5
20332	-0.00017	-0.0002	0.00022	-0.00069	-0.00058	-0.00015	-0.0002	-0.00014	5
20333	-0.00017	-0.0002	0.00022	-0.00069	-0.00058	-0.00015	-0.0002	-0.00014	5
20334	-0.00017	-0.0002	0.00022	-0.00069	-0.00058	-0.00015	-0.0002	-0.00014	5
20335	-0.00017	-0.0002	0.00022	-0.00069	-0.00058	-0.00015	-0.0002	-0.00014	5
20336	-0.00017	-0.0002	0.00022	-0.00069	-0.00058	-0.00015	-0.0002	-0.00014	5
20338	-0.00017	-0.0002	0.00022	-0.00069	-0.00058	-0.00015	-0.0002	-0.00014	5
20339	0.00019	6e-05	0.00072	7e-05	-7e-05	0.00085	-7e-05	8e-05	5
20340	0	0.00018	0.00033	-0.00101	-0.00062	-0.00027	-0.00016	-6e-05	5
20341	0	0.00018	0.00033	-0.00101	-0.00062	-0.00027	-0.00016	-6e-05	5
20342	0	0.00018	0.00033	-0.00101	-0.00062	-0.00027	-0.00016	-6e-05	5
20343	0	0.00018	0.00033	-0.00101	-0.00062	-0.00027	-0.00016	-6e-05	5
20344	0	0.00018	0.00033	-0.00101	-0.00062	-0.00027	-0.00016	-6e-05	5
20345	0	0.00018	0.00033	-0.00101	-0.00062	-0.00027	-0.00016	-6e-05	5
20346	0	0.00018	0.00033	-0.00101	-0.00062	-0.00027	-0.00016	-6e-05	5
20347	0	0.00018	0.00033	-0.00101	-0.00062	-0.00027	-0.00016	-6e-05	5
20348	0	0.00018	0.00033	-0.00101	-0.00062	-0.00027	-0.00016	-6e-05	5
20349	0	0.00018	0.00033	-0.00101	-0.00062	-0.00027	-0.00016	-6e-05	5
20350	0	0.00018	0.00033	-0.00101	-0.00062	-0.00027	-0.00016	-6e-05	5
20351	0	0.00018	0.00033	-0.00101	-0.00062	-0.00027	-0.00016	-6e-05	5
20352	0	0.00018	0.00033	-0.00101	-0.00062	-0.00027	-0.00016	-6e-05	5
20353	0	0.00018	0.00033	-0.00101	-0.00062	-0.00027	-0.00016	-6e-05	5
20354	0	0.00018	0.00033	-0.00101	-0.00062	-0.00027	-0.00016	-6e-05	5
20355	0	0.00018	0.00033	-0.00101	-0.00062	-0.00027	-0.00016	-6e-05	5
20356	0	0.00018	0.00033	-0.00101	-0.00062	-0.00027	-0.00016	-6e-05	5
20357	0	0.00018	0.00033	-0.00101	-0.00062	-0.00027	-0.00016	-6e-05	5
20358	0	0.00018	0.00033	-0.00101	-0.00062	-0.00027	-0.00016	-6e-05	5
20359	0	0.00018	0.00033	-0.00101	-0.00062	-0.00027	-0.00016	-6e-05	5
20360	0	0.00018	0.00033	-0.00101	-0.00062	-0.00027	-0.00016	-6e-05	5
20361	0	0.00018	0.00033	-0.00101	-0.00062	-0.00027	-0.00016	-6e-05	5
20362	0.00012	0.0002	0.00059	0.00046	-0.00011	0.00011	-4e-05	-1e-05	5
20363	-0.00027	-0.0006	-0.00033	-0.00068	0.00043	0.0002	-0.00012	-9e-05	5
20364	0.00011	0.00013	0.00064	0.00051	-0.00041	-3e-05	-3e-05	0.0001	5
20365	0.00011	0.00013	0.00064	0.00051	-0.00041	-3e-05	-3e-05	0.0001	5
20366	0.00011	0.00013	0.00064	0.00051	-0.00041	-3e-05	-3e-05	0.0001	5
20367	0.00011	0.00013	0.00064	0.00051	-0.00041	-3e-05	-3e-05	0.0001	5
20368	0.00011	0.00013	0.00064	0.00051	-0.00041	-3e-05	-3e-05	0.0001	5
20369	0.00011	0.00013	0.00064	0.00051	-0.00041	-3e-05	-3e-05	0.0001	5
20370	0.00011	0.00013	0.00064	0.00051	-0.00041	-3e-05	-3e-05	0.0001	5
20371	0.00011	0.00013	0.00064	0.00051	-0.00041	-3e-05	-3e-05	0.0001	5
20372	0.00011	0.00013	0.00064	0.00051	-0.00041	-3e-05	-3e-05	0.0001	5
20373	0.00011	0.00013	0.00064	0.00051	-0.00041	-3e-05	-3e-05	0.0001	5
20374	0.00011	0.00013	0.00064	0.00051	-0.00041	-3e-05	-3e-05	0.0001	5
20375	0.00011	0.00013	0.00064	0.00051	-0.00041	-3e-05	-3e-05	0.0001	5
20376	0.00011	0.00013	0.00064	0.00051	-0.00041	-3e-05	-3e-05	0.0001	5
20377	0.00011	0.00013	0.00064	0.00051	-0.00041	-3e-05	-3e-05	0.0001	5
20378	0.00011	0.00013	0.00064	0.00051	-0.00041	-3e-05	-3e-05	0.0001	5
20379	0.00011	0.00013	0.00064	0.00051	-0.00041	-3e-05	-3e-05	0.0001	5
20380	0.00011	0.00013	0.00064	0.00051	-0.00041	-3e-05	-3e-05	0.0001	5
20381	0.00011	0.00013	0.00064	0.00051	-0.00041	-3e-05	-3e-05	0.0001	5
20382	0.00011	0.00013	0.00064	0.00051	-0.00041	-3e-05	-3e-05	0.0001	5
20383	0.00011	0.00013	0.00064	0.00051	-0.00041	-3e-05	-3e-05	0.0001	5
20384	0.00011	0.00013	0.00064	0.00051	-0.00041	-3e-05	-3e-05	0.0001	5
20385	7e-05	4e-05	-1e-05	7e-05	0.00097	0.0003	0.00025	0.00012	5
20386	-1e-05	-0.0007	-0.00114	-5e-05	0.00104	0.0003	0.00012	1e-05	5
20388	-1e-05	-0.0007	-0.00114	-5e-05	0.00104	0.0003	0.00012	1e-05	5
20389	-1e-05	-0.0007	-0.00114	-5e-05	0.00104	0.0003	0.00012	1e-05	5
20390	-1e-05	-0.0007	-0.00114	-5e-05	0.00104	0.0003	0.00012	1e-05	5
20391	-1e-05	-0.0007	-0.00114	-5e-05	0.00104	0.0003	0.00012	1e-05	5
20392	-1e-05	-0.0007	-0.00114	-5e-05	0.00104	0.0003	0.00012	1e-05	5
20393	-1e-05	-0.0007	-0.00114	-5e-05	0.00104	0.0003	0.00012	1e-05	5
20394	-1e-05	-0.0007	-0.00114	-5e-05	0.00104	0.0003	0.00012	1e-05	5
20395	-1e-05	-0.0007	-0.00114	-5e-05	0.00104	0.0003	0.00012	1e-05	5
20396	-1e-05	-0.0007	-0.00114	-5e-05	0.00104	0.0003	0.00012	1e-05	5
20397	-1e-05	-0.0007	-0.00114	-5e-05	0.00104	0.0003	0.00012	1e-05	5
20398	-1e-05	-0.0007	-0.00114	-5e-05	0.00104	0.0003	0.00012	1e-05	5
20399	-6e-05	0.00025	-0.00081	-0.00115	0.00015	-0.00028	-0.00015	-9e-05	5
20400	7e-05	-0.00013	7e-05	0.0012	0.00031	0.00066	0.00016	0.00019	5
20401	7e-05	-0.00013	7e-05	0.0012	0.00031	0.00066	0.00016	0.00019	5
20402	7e-05	-0.00013	7e-05	0.0012	0.00031	0.00066	0.00016	0.00019	5
20403	7e-05	-0.00013	7e-05	0.0012	0.00031	0.00066	0.00016	0.00019	5
20404	7e-05	-0.00013	7e-05	0.0012	0.00031	0.00066	0.00016	0.00019	5
20405	7e-05	-0.00013	7e-05	0.0012	0.00031	0.00066	0.00016	0.00019	5
20406	7e-05	-0.00013	7e-05	0.0012	0.00031	0.00066	0.00016	0.00019	5
20407	7e-05	-0.00013	7e-05	0.0012	0.00031	0.00066	0.00016	0.00019	5
20408	7e-05	-0.00013	7e-05	0.0012	0.00031	0.00066	0.00016	0.00019	5
20409	7e-05	-0.00013	7e-05	0.0012	0.00031	0.00066	0.00016	0.00019	5
20410	7e-05	-0.00013	7e-05	0.0012	0.00031	0.00066	0.00016	0.00019	5
20411	7e-05	-0.00013	7e-05	0.0012	0.00031	0.00066	0.00016	0.00019	5
20412	7e-05	-0.00013	7e-05	0.0012	0.00031	0.00066	0.00016	0.00019	5
20413	7e-05	-0.00013	7e-05	0.0012	0.00031	0.00066	0.00016	0.00019	5
20414	7e-05	-0.00013	7e-05	0.0012	0.00031	0.00066	0.00016	0.00019	5
20415	7e-05	-0.00013	7e-05	0.0012	0.00031	0.00066	0.00016	0.00019	5
20416	7e-05	-0.00013	7e-05	0.0012	0.00031	0.00066	0.00016	0.00019	5
20417	7e-05	-0.00013	7e-05	0.0012	0.00031	0.00066	0.00016	0.00019	5
20418	7e-05	-0.00013	7e-05	0.0012	0.00031	0.00066	0.00016	0.00019	5
20419	7e-05	-0.00013	7e-05	0.0012	0.00031	0.00066	0.00016	0.00019	5
20420	7e-05	-0.00013	7e-05	0.0012	0.00031	0.00066	0.00016	0.00019	5
20421	7e-05	-0.00013	7e-05	0.0012	0.00031	0.00066	0.00016	0.00019	5
20422	7e-05	-0.00013	7e-05	0.0012	0.00031	0.00066	0.00016	0.00019	5
20423	0.00011	-6e-05	0.0006	0.00019	-0.00023	0.00012	2e-05	4e-05	5
20424	0.00011	-6e-05	0.0006	0.00019	-0.00023	0.00012	2e-05	4e-05	5
20425	0.00011	-6e-05	0.0006	0.00019	-0.00023	0.00012	2e-05	4e-05	5
20426	0.00011	-6e-05	0.0006	0.00019	-0.00023	0.00012	2e-05	4e-05	5
20427	0.00011	-6e-05	0.0006	0.00019	-0.00023	0.00012	2e-05	4e-05	5
20428	0.00011	-6e-05	0.0006	0.00019	-0.00023	0.00012	2e-05	4e-05	5
20429	0.00011	-6e-05	0.0006	0.00019	-0.00023	0.00012	2e-05	4e-05	5
20430	0.00011	-6e-05	0.0006	0.00019	-0.00023	0.00012	2e-05	4e-05	5
20431	0.00011	-6e-05	0.0006	0.00019	-0.00023	0.00012	2e-05	4e-05	5
20432	0.00011	-6e-05	0.0006	0.00019	-0.00023	0.00012	2e-05	4e-05	5
20433	0.00011	-6e-05	0.0006	0.00019	-0.00023	0.00012	2e-05	4e-05	5
20434	0.00011	-6e-05	0.0006	0.00019	-0.00023	0.00012	2e-05	4e-05	5
20435	0.00011	-6e-05	0.0006	0.00019	-0.00023	0.00012	2e-05	4e-05	5
20436	0.00011	-6e-05	0.0006	0.00019	-0.00023	0.00012	2e-05	4e-05	5
20438	0.00011	-6e-05	0.0006	0.00019	-0.00023	0.00012	2e-05	4e-05	5
20439	0.00011	-6e-05	0.0006	0.00019	-0.00023	0.00012	2e-05	4e-05	5
20440	0.00011	-6e-05	0.0006	0.00019	-0.00023	0.00012	2e-05	4e-05	5
20441	0.00011	-6e-05	0.0006	0.00019	-0.00023	0.00012	2e-05	4e-05	5
20442	0.00011	-6e-05	0.0006	0.00019	-0.00023	0.00012	2e-05	4e-05	5
20443	0.00011	-6e-05	0.0006	0.00019	-0.00023	0.00012	2e-05	4e-05	5
20444	0.00011	-6e-05	0.0006	0.00019	-0.00023	0.00012	2e-05	4e-05	5
20445	0.00011	-6e-05	0.0006	0.00019	-0.00023	0.00012	2e-05	4e-05	5
20446	-0.00019	0.00074	-0.00056	-0.00124	0.00053	-0.00051	-0.00019	-0.00012	5
20447	-4e-05	-0.0002	-7e-05	-0.00029	-1e-05	-0.00021	0.00015	2e-05	5
20448	-4e-05	-0.0002	-7e-05	-0.00029	-1e-05	-0.00021	0.00015	2e-05	5
20449	-4e-05	-0.0002	-7e-05	-0.00029	-1e-05	-0.00021	0.00015	2e-05	5
20450	-4e-05	-0.0002	-7e-05	-0.00029	-1e-05	-0.00021	0.00015	2e-05	5
20451	-4e-05	-0.0002	-7e-05	-0.00029	-1e-05	-0.00021	0.00015	2e-05	5
20452	-4e-05	-0.0002	-7e-05	-0.00029	-1e-05	-0.00021	0.00015	2e-05	5
20453	-4e-05	-0.0002	-7e-05	-0.00029	-1e-05	-0.00021	0.00015	2e-05	5
20454	-4e-05	-0.0002	-7e-05	-0.00029	-1e-05	-0.00021	0.00015	2e-05	5
20455	-4e-05	-0.0002	-7e-05	-0.00029	-1e-05	-0.00021	0.00015	2e-05	5
20456	-4e-05	-0.0002	-7e-05	-0.00029	-1e-05	-0.00021	0.00015	2e-05	5
20457	-4e-05	-0.0002	-7e-05	-0.00029	-1e-05	-0.00021	0.00015	2e-05	5
20458	-4e-05	-0.0002	-7e-05	-0.00029	-1e-05	-0.00021	0.00015	2e-05	5
20459	0.00022	0.00041	0.00037	0.0005	0.00096	-4e-05	9e-05	7e-05	5
20460	0.00018	0.00021	0.00048	0.00011	0.00038	-0.00027	1e-05	5e-05	5
20461	0.00018	0.00021	0.00048	0.00011	0.00038	-0.00027	1e-05	5e-05	5
20462	0.00018	0.00021	0.00048	0.00011	0.00038	-0.00027	1e-05	5e-05	5
20463	0.00018	0.00021	0.00048	0.00011	0.00038	-0.00027	1e-05	5e-05	5
20464	0.00018	0.00021	0.00048	0.00011	0.00038	-0.00027	1e-05	5e-05	5
20465	0.00018	0.00021	0.00048	0.00011	0.00038	-0.00027	1e-05	5e-05	5
20466	0.00018	0.00021	0.00048	0.00011	0.00038	-0.00027	1e-05	5e-05	5
20467	0.00018	0.00021	0.00048	0.00011	0.00038	-0.00027	1e-05	5e-05	5
20468	0.00018	0.00021	0.00048	0.00011	0.00038	-0.00027	1e-05	5e-05	5
20469	0.00018	0.00021	0.00048	0.00011	0.00038	-0.00027	1e-05	5e-05	5
20470	0.00018	0.00021	0.00048	0.00011	0.00038	-0.00027	1e-05	5e-05	5
20471	0.00018	0.00021	0.00048	0.00011	0.00038	-0.00027	1e-05	5e-05	5
20472	0.00018	0.00021	0.00048	0.00011	0.00038	-0.00027	1e-05	5e-05	5
20473	0.00018	0.00021	0.00048	0.00011	0.00038	-0.00027	1e-05	5e-05	5
20474	0.00018	0.00021	0.00048	0.00011	0.00038	-0.00027	1e-05	5e-05	5
20475	0.00018	0.00021	0.00048	0.00011	0.00038	-0.00027	1e-05	5e-05	5
20476	0.00018	0.00021	0.00048	0.00011	0.00038	-0.00027	1e-05	5e-05	5
20477	0.00018	0.00021	0.00048	0.00011	0.00038	-0.00027	1e-05	5e-05	5
20478	0.00018	0.00021	0.00048	0.00011	0.00038	-0.00027	1e-05	5e-05	5
20479	0.00018	0.00021	0.00048	0.00011	0.00038	-0.00027	1e-05	5e-05	5
20480	0.00018	0.00021	0.00048	0.00011	0.00038	-0.00027	1e-05	5e-05	5
20481	0.00018	0.00021	0.00048	0.00011	0.00038	-0.00027	1e-05	5e-05	5
20482	0.00018	0.00021	0.00048	0.00011	0.00038	-0.00027	1e-05	5e-05	5
20483	5e-05	0	-0.00029	0.00023	0.00024	0.00037	2e-05	6e-05	5
20484	5e-05	0	-0.00029	0.00023	0.00024	0.00037	2e-05	6e-05	5
20485	5e-05	0	-0.00029	0.00023	0.00024	0.00037	2e-05	6e-05	5
20486	5e-05	0	-0.00029	0.00023	0.00024	0.00037	2e-05	6e-05	5
20488	5e-05	0	-0.00029	0.00023	0.00024	0.00037	2e-05	6e-05	5
20489	5e-05	0	-0.00029	0.00023	0.00024	0.00037	2e-05	6e-05	5
20490	5e-05	0	-0.00029	0.00023	0.00024	0.00037	2e-05	6e-05	5
20491	5e-05	0	-0.00029	0.00023	0.00024	0.00037	2e-05	6e-05	5
20492	5e-05	0	-0.00029	0.00023	0.00024	0.00037	2e-05	6e-05	5
20493	5e-05	0	-0.00029	0.00023	0.00024	0.00037	2e-05	6e-05	5
20494	5e-05	0	-0.00029	0.00023	0.00024	0.00037	2e-05	6e-05	5
20495	5e-05	0	-0.00029	0.00023	0.00024	0.00037	2e-05	6e-05	5
20496	5e-05	0	-0.00029	0.00023	0.00024	0.00037	2e-05	6e-05	5
20497	5e-05	0	-0.00029	0.00023	0.00024	0.00037	2e-05	6e-05	5
20498	5e-05	0	-0.00029	0.00023	0.00024	0.00037	2e-05	6e-05	5
20499	5e-05	0	-0.00029	0.00023	0.00024	0.00037	2e-05	6e-05	5
20500	5e-05	0	-0.00029	0.00023	0.00024	0.00037	2e-05	6e-05	5
20501	5e-05	0	-0.00029	0.00023	0.00024	0.00037	2e-05	6e-05	5
20502	5e-05	0	-0.00029	0.00023	0.00024	0.00037	2e-05	6e-05	5
20503	5e-05	0	-0.00029	0.00023	0.00024	0.00037	2e-05	6e-05	5
20504	5e-05	0	-0.00029	0.00023	0.00024	0.00037	2e-05	6e-05	5
20505	-0.00017	-3e-05	-0.00061	-0.00115	-0.00026	6e-05	0	-0.00011	5
20506	7e-05	-7e-05	0.00033	-0.00057	0.00028	0.00051	-0.00021	-6e-05	5
20507	7e-05	-7e-05	0.00033	-0.00057	0.00028	0.00051	-0.00021	-6e-05	5
20508	7e-05	-7e-05	0.00033	-0.00057	0.00028	0.00051	-0.00021	-6e-05	5
20509	7e-05	-7e-05	0.00033	-0.00057	0.00028	0.00051	-0.00021	-6e-05	5
20510	7e-05	-7e-05	0.00033	-0.00057	0.00028	0.00051	-0.00021	-6e-05	5
20511	7e-05	-7e-05	0.00033	-0.00057	0.00028	0.00051	-0.00021	-6e-05	5
20512	7e-05	-7e-05	0.00033	-0.00057	0.00028	0.00051	-0.00021	-6e-05	5
20513	7e-05	-7e-05	0.00033	-0.00057	0.00028	0.00051	-0.00021	-6e-05	5
20514	7e-05	-7e-05	0.00033	-0.00057	0.00028	0.00051	-0.00021	-6e-05	5
20515	7e-05	-7e-05	0.00033	-0.00057	0.00028	0.00051	-0.00021	-6e-05	5
20516	7e-05	-7e-05	0.00033	-0.00057	0.00028	0.00051	-0.00021	-6e-05	5
20517	7e-05	-7e-05	0.00033	-0.00057	0.00028	0.00051	-0.00021	-6e-05	5
20518	7e-05	-7e-05	0.00033	-0.00057	0.00028	0.00051	-0.00021	-6e-05	5
20519	-0.00066	-0.00091	-0.00104	-0.00079	2e-05	0.0006	-0.00042	-0.00032	5
20520	3e-05	0.00032	0.00012	0.0002	-8e-05	-2e-05	0	-2e-05	5
20521	3e-05	0.00032	0.00012	0.0002	-8e-05	-2e-05	0	-2e-05	5
20522	3e-05	0.00032	0.00012	0.0002	-8e-05	-2e-05	0	-2e-05	5
20523	3e-05	0.00032	0.00012	0.0002	-8e-05	-2e-05	0	-2e-05	5
20524	3e-05	0.00032	0.00012	0.0002	-8e-05	-2e-05	0	-2e-05	5
20525	3e-05	0.00032	0.00012	0.0002	-8e-05	-2e-05	0	-2e-05	5
20526	3e-05	0.00032	0.00012	0.0002	-8e-05	-2e-05	0	-2e-05	5
20527	3e-05	0.00032	0.00012	0.0002	-8e-05	-2e-05	0	-2e-05	5
20528	3e-05	0.00032	0.00012	0.0002	-8e-05	-2e-05	0	-2e-05	5
20529	3e-05	0.00032	0.00012	0.0002	-8e-05	-2e-05	0	-2e-05	5
20530	3e-05	0.00032	0.00012	0.0002	-8e-05	-2e-05	0	-2e-05	5
20531	3e-05	0.00032	0.00012	0.0002	-8e-05	-2e-05	0	-2e-05	5
20532	3e-05	0.00032	0.00012	0.0002	-8e-05	-2e-05	0	-2e-05	5
20533	3e-05	0.00032	0.00012	0.0002	-8e-05	-2e-05	0	-2e-05	5
20534	3e-05	0.00032	0.00012	0.0002	-8e-05	-2e-05	0	-2e-05	5
20535	3e-05	0.00032	0.00012	0.0002	-8e-05	-2e-05	0	-2e-05	5
20536	3e-05	0.00032	0.00012	0.0002	-8e-05	-2e-05	0	-2e-05	5
20538	3e-05	0.00032	0.00012	0.0002	-8e-05	-2e-05	0	-2e-05	5
20539	3e-05	0.00032	0.00012	0.0002	-8e-05	-2e-05	0	-2e-05	5
20540	3e-05	0.00032	0.00012	0.0002	-8e-05	-2e-05	0	-2e-05	5
20541	3e-05	0.00032	0.00012	0.0002	-8e-05	-2e-05	0	-2e-05	5
20542	3e-05	0.00032	0.00012	0.0002	-8e-05	-2e-05	0	-2e-05	5
20543	-9e-05	-0.00037	-0.0001	0.00045	-9e-05	-0.00055	-5e-05	-4e-05	5
20544	-9e-05	-0.00037	-0.0001	0.00045	-9e-05	-0.00055	-5e-05	-4e-05	5
20545	-9e-05	-0.00037	-0.0001	0.00045	-9e-05	-0.00055	-5e-05	-4e-05	5
20546	-9e-05	-0.00037	-0.0001	0.00045	-9e-05	-0.00055	-5e-05	-4e-05	5
20547	-9e-05	-0.00037	-0.0001	0.00045	-9e-05	-0.00055	-5e-05	-4e-05	5
20548	-9e-05	-0.00037	-0.0001	0.00045	-9e-05	-0.00055	-5e-05	-4e-05	5
20549	-9e-05	-0.00037	-0.0001	0.00045	-9e-05	-0.00055	-5e-05	-4e-05	5
20550	-9e-05	-0.00037	-0.0001	0.00045	-9e-05	-0.00055	-5e-05	-4e-05	5
20551	-9e-05	-0.00037	-0.0001	0.00045	-9e-05	-0.00055	-5e-05	-4e-05	5
20552	-9e-05	-0.00037	-0.0001	0.00045	-9e-05	-0.00055	-5e-05	-4e-05	5
20553	-9e-05	-0.00037	-0.0001	0.00045	-9e-05	-0.00055	-5e-05	-4e-05	5
20554	-9e-05	-0.00037	-0.0001	0.00045	-9e-05	-0.00055	-5e-05	-4e-05	5
20555	-9e-05	-0.00037	-0.0001	0.00045	-9e-05	-0.00055	-5e-05	-4e-05	5
20556	-9e-05	-0.00037	-0.0001	0.00045	-9e-05	-0.00055	-5e-05	-4e-05	5
20557	-9e-05	-0.00037	-0.0001	0.00045	-9e-05	-0.00055	-5e-05	-4e-05	5
20558	-9e-05	-0.00037	-0.0001	0.00045	-9e-05	-0.00055	-5e-05	-4e-05	5
20559	-9e-05	-0.00037	-0.0001	0.00045	-9e-05	-0.00055	-5e-05	-4e-05	5
20560	-9e-05	-0.00037	-0.0001	0.00045	-9e-05	-0.00055	-5e-05	-4e-05	5
20561	-9e-05	-0.00037	-0.0001	0.00045	-9e-05	-0.00055	-5e-05	-4e-05	5
20562	-9e-05	-0.00037	-0.0001	0.00045	-9e-05	-0.00055	-5e-05	-4e-05	5
20563	-9e-05	-0.00037	-0.0001	0.00045	-9e-05	-0.00055	-5e-05	-4e-05	5
20564	-9e-05	-0.00037	-0.0001	0.00045	-9e-05	-0.00055	-5e-05	-4e-05	5
20565	-0.00021	0.00029	-0.00082	-0.00071	-0.00062	-0.00023	0.00013	-9e-05	5
20566	5e-05	0.00019	0.00012	-0.00067	-0.00058	-0.00015	5e-05	1e-05	5
20567	5e-05	0.00019	0.00012	-0.00067	-0.00058	-0.00015	5e-05	1e-05	5
20568	5e-05	0.00019	0.00012	-0.00067	-0.00058	-0.00015	5e-05	1e-05	5
20569	5e-05	0.00019	0.00012	-0.00067	-0.00058	-0.00015	5e-05	1e-05	5
20570	5e-05	0.00019	0.00012	-0.00067	-0.00058	-0.00015	5e-05	1e-05	5
20571	5e-05	0.00019	0.00012	-0.00067	-0.00058	-0.00015	5e-05	1e-05	5
20572	5e-05	0.00019	0.00012	-0.00067	-0.00058	-0.00015	5e-05	1e-05	5
20573	5e-05	0.00019	0.00012	-0.00067	-0.00058	-0.00015	5e-05	1e-05	5
20574	5e-05	0.00019	0.00012	-0.00067	-0.00058	-0.00015	5e-05	1e-05	5
20575	5e-05	0.00019	0.00012	-0.00067	-0.00058	-0.00015	5e-05	1e-05	5
20576	5e-05	0.00019	0.00012	-0.00067	-0.00058	-0.00015	5e-05	1e-05	5
20577	5e-05	0.00019	0.00012	-0.00067	-0.00058	-0.00015	5e-05	1e-05	5
20578	5e-05	0.00019	0.00012	-0.00067	-0.00058	-0.00015	5e-05	1e-05	5
20579	0.0001	-0.00013	0.00028	0.00041	-0.00071	-0.00042	-0.00031	-2e-05	5
20580	0.0001	-0.00013	0.00028	0.00041	-0.00071	-0.00042	-0.00031	-2e-05	5
20581	0.0001	-0.00013	0.00028	0.00041	-0.00071	-0.00042	-0.00031	-2e-05	5
20582	0.0001	-0.00013	0.00028	0.00041	-0.00071	-0.00042	-0.00031	-2e-05	5
20583	0.0001	-0.00013	0.00028	0.00041	-0.00071	-0.00042	-0.00031	-2e-05	5
20584	0.0001	-0.00013	0.00028	0.00041	-0.00071	-0.00042	-0.00031	-2e-05	5
20585	0.0001	-0.00013	0.00028	0.00041	-0.00071	-0.00042	-0.00031	-2e-05	5
20586	0.0001	-0.00013	0.00028	0.00041	-0.00071	-0.00042	-0.00031	-2e-05	5
20588	-0.00015	-0.00027	-0.00068	-0.00057	0.00022	0.00037	9e-05	-4e-05	5
20589	-0.00015	-0.00027	-0.00068	-0.00057	0.00022	0.00037	9e-05	-4e-05	5
20590	-0.00015	-0.00027	-0.00068	-0.00057	0.00022	0.00037	9e-05	-4e-05	5
20591	-0.00015	-0.00027	-0.00068	-0.00057	0.00022	0.00037	9e-05	-4e-05	5
20592	-0.00015	-0.00027	-0.00068	-0.00057	0.00022	0.00037	9e-05	-4e-05	5
20593	-0.00015	-0.00027	-0.00068	-0.00057	0.00022	0.00037	9e-05	-4e-05	5
20594	-0.00015	-0.00027	-0.00068	-0.00057	0.00022	0.00037	9e-05	-4e-05	5
20595	-0.00015	-0.00027	-0.00068	-0.00057	0.00022	0.00037	9e-05	-4e-05	5
20596	-0.00015	-0.00027	-0.00068	-0.00057	0.00022	0.00037	9e-05	-4e-05	5
20597	-0.00015	-0.00027	-0.00068	-0.00057	0.00022	0.00037	9e-05	-4e-05	5
20598	-0.00015	-0.00027	-0.00068	-0.00057	0.00022	0.00037	9e-05	-4e-05	5
20599	-0.00015	-0.00027	-0.00068	-0.00057	0.00022	0.00037	9e-05	-4e-05	5
20600	-0.00015	-0.00027	-0.00068	-0.00057	0.00022	0.00037	9e-05	-4e-05	5
20601	-0.00015	-0.00027	-0.00068	-0.00057	0.00022	0.00037	9e-05	-4e-05	5
20602	0.00011	-0.00021	0.0001	-0.00025	-0.00028	-0.00023	3e-05	9e-05	5
20603	9e-05	0	0.00043	0.0002	-0.0007	-8e-05	-5e-05	2e-05	5
20604	9e-05	0	0.00043	0.0002	-0.0007	-8e-05	-5e-05	2e-05	5
20605	9e-05	0	0.00043	0.0002	-0.0007	-8e-05	-5e-05	2e-05	5
20606	9e-05	0	0.00043	0.0002	-0.0007	-8e-05	-5e-05	2e-05	5
20607	9e-05	0	0.00043	0.0002	-0.0007	-8e-05	-5e-05	2e-05	5
20608	9e-05	0	0.00043	0.0002	-0.0007	-8e-05	-5e-05	2e-05	5
20609	9e-05	0	0.00043	0.0002	-0.0007	-8e-05	-5e-05	2e-05	5
20610	9e-05	0	0.00043	0.0002	-0.0007	-8e-05	-5e-05	2e-05	5
20611	9e-05	0	0.00043	0.0002	-0.0007	-8e-05	-5e-05	2e-05	5
20612	9e-05	0	0.00043	0.0002	-0.0007	-8e-05	-5e-05	2e-05	5
20613	9e-05	0	0.00043	0.0002	-0.0007	-8e-05	-5e-05	2e-05	5
20614	9e-05	0	0.00043	0.0002	-0.0007	-8e-05	-5e-05	2e-05	5
20615	9e-05	0	0.00043	0.0002	-0.0007	-8e-05	-5e-05	2e-05	5
20616	9e-05	0	0.00043	0.0002	-0.0007	-8e-05	-5e-05	2e-05	5
20617	9e-05	0	0.00043	0.0002	-0.0007	-8e-05	-5e-05	2e-05	5
20618	9e-05	0	0.00043	0.0002	-0.0007	-8e-05	-5e-05	2e-05	5
20619	9e-05	0	0.00043	0.0002	-0.0007	-8e-05	-5e-05	2e-05	5
20620	9e-05	0	0.00043	0.0002	-0.0007	-8e-05	-5e-05	2e-05	5
20621	9e-05	0	0.00043	0.0002	-0.0007	-8e-05	-5e-05	2e-05	5
20622	9e-05	0	0.00043	0.0002	-0.0007	-8e-05	-5e-05	2e-05	5
20623	9e-05	0	0.00043	0.0002	-0.0007	-8e-05	-5e-05	2e-05	5
20624	9e-05	0	0.00043	0.0002	-0.0007	-8e-05	-5e-05	2e-05	5
20625	0.00048	-0.00017	0.00103	0.00122	0.00105	0.00055	0.00032	0.00024	5
20626	-0.00014	-0.00018	-0.00075	-0.00072	0.00029	-1e-05	0.0001	-3e-05	5
20627	-0.00014	-0.00018	-0.00075	-0.00072	0.00029	-1e-05	0.0001	-3e-05	5
20628	-0.00014	-0.00018	-0.00075	-0.00072	0.00029	-1e-05	0.0001	-3e-05	5
20629	-0.00014	-0.00018	-0.00075	-0.00072	0.00029	-1e-05	0.0001	-3e-05	5
20630	-0.00014	-0.00018	-0.00075	-0.00072	0.00029	-1e-05	0.0001	-3e-05	5
20631	-0.00014	-0.00018	-0.00075	-0.00072	0.00029	-1e-05	0.0001	-3e-05	5
20632	-0.00014	-0.00018	-0.00075	-0.00072	0.00029	-1e-05	0.0001	-3e-05	5
20633	-0.00014	-0.00018	-0.00075	-0.00072	0.00029	-1e-05	0.0001	-3e-05	5
20634	-0.00014	-0.00018	-0.00075	-0.00072	0.00029	-1e-05	0.0001	-3e-05	5
20635	-0.00014	-0.00018	-0.00075	-0.00072	0.00029	-1e-05	0.0001	-3e-05	5
20636	-0.00014	-0.00018	-0.00075	-0.00072	0.00029	-1e-05	0.0001	-3e-05	5
20638	-0.00014	-0.00018	-0.00075	-0.00072	0.00029	-1e-05	0.0001	-3e-05	5
20639	0.00011	0.00018	0.00025	0.00024	-0.00053	-0.00031	9e-05	8e-05	5
20640	0.00011	0.00018	0.00025	0.00024	-0.00053	-0.00031	9e-05	8e-05	5
20641	0.00011	0.00018	0.00025	0.00024	-0.00053	-0.00031	9e-05	8e-05	5
20642	0.00011	0.00018	0.00025	0.00024	-0.00053	-0.00031	9e-05	8e-05	5
20643	0.00011	0.00018	0.00025	0.00024	-0.00053	-0.00031	9e-05	8e-05	5
20644	0.00011	0.00018	0.00025	0.00024	-0.00053	-0.00031	9e-05	8e-05	5
20645	0.00011	0.00018	0.00025	0.00024	-0.00053	-0.00031	9e-05	8e-05	5
20646	0.00011	0.00018	0.00025	0.00024	-0.00053	-0.00031	9e-05	8e-05	5
20647	-0.00012	-0.00021	0.0002	0.00127	0.00045	9e-05	-6e-05	-3e-05	5
20648	-0.00012	-0.00021	0.0002	0.00127	0.00045	9e-05	-6e-05	-3e-05	5
20649	-0.00012	-0.00021	0.0002	0.00127	0.00045	9e-05	-6e-05	-3e-05	5
20650	-0.00012	-0.00021	0.0002	0.00127	0.00045	9e-05	-6e-05	-3e-05	5
20651	-0.00012	-0.00021	0.0002	0.00127	0.00045	9e-05	-6e-05	-3e-05	5
20652	-0.00012	-0.00021	0.0002	0.00127	0.00045	9e-05	-6e-05	-3e-05	5
20653	-0.00012	-0.00021	0.0002	0.00127	0.00045	9e-05	-6e-05	-3e-05	5
20654	-0.00012	-0.00021	0.0002	0.00127	0.00045	9e-05	-6e-05	-3e-05	5
20655	-0.00012	-0.00021	0.0002	0.00127	0.00045	9e-05	-6e-05	-3e-05	5
20656	-0.00012	-0.00021	0.0002	0.00127	0.00045	9e-05	-6e-05	-3e-05	5
20657	-0.00012	-0.00021	0.0002	0.00127	0.00045	9e-05	-6e-05	-3e-05	5
20658	-0.00012	-0.00021	0.0002	0.00127	0.00045	9e-05	-6e-05	-3e-05	5
20659	-0.00012	-0.00021	0.0002	0.00127	0.00045	9e-05	-6e-05	-3e-05	5
20660	-0.00012	-0.00021	0.0002	0.00127	0.00045	9e-05	-6e-05	-3e-05	5
20661	-0.00012	-0.00021	0.0002	0.00127	0.00045	9e-05	-6e-05	-3e-05	5
20662	-0.00012	-0.00021	0.0002	0.00127	0.00045	9e-05	-6e-05	-3e-05	5
20663	0.0001	0.00015	0.00017	0.00053	-0.00011	-0.00015	7e-05	3e-05	5
20664	0.0001	0.00015	0.00017	0.00053	-0.00011	-0.00015	7e-05	3e-05	5
20665	0.0001	0.00015	0.00017	0.00053	-0.00011	-0.00015	7e-05	3e-05	5
20666	0.0001	0.00015	0.00017	0.00053	-0.00011	-0.00015	7e-05	3e-05	5
20667	0.0001	0.00015	0.00017	0.00053	-0.00011	-0.00015	7e-05	3e-05	5
20668	0.0001	0.00015	0.00017	0.00053	-0.00011	-0.00015	7e-05	3e-05	5
20669	0.0001	0.00015	0.00017	0.00053	-0.00011	-0.00015	7e-05	3e-05	5
20670	0.0001	0.00015	0.00017	0.00053	-0.00011	-0.00015	7e-05	3e-05	5
20671	0.0001	0.00015	0.00017	0.00053	-0.00011	-0.00015	7e-05	3e-05	5
20672	0.0001	0.00015	0.00017	0.00053	-0.00011	-0.00015	7e-05	3e-05	5
20673	0.0001	0.00015	0.00017	0.00053	-0.00011	-0.00015	7e-05	3e-05	5
20674	0.0001	0.00015	0.00017	0.00053	-0.00011	-0.00015	7e-05	3e-05	5
20675	0.0001	0.00015	0.00017	0.00053	-0.00011	-0.00015	7e-05	3e-05	5
20676	0.0001	0.00015	0.00017	0.00053	-0.00011	-0.00015	7e-05	3e-05	5
20677	0.0001	0.00015	0.00017	0.00053	-0.00011	-0.00015	7e-05	3e-05	5
20678	0.0001	0.00015	0.00017	0.00053	-0.00011	-0.00015	7e-05	3e-05	5
20679	0.0001	0.00015	0.00017	0.00053	-0.00011	-0.00015	7e-05	3e-05	5
20680	0.0001	0.00015	0.00017	0.00053	-0.00011	-0.00015	7e-05	3e-05	5
20681	0.0001	0.00015	0.00017	0.00053	-0.00011	-0.00015	7e-05	3e-05	5
20682	0.0001	0.00015	0.00017	0.00053	-0.00011	-0.00015	7e-05	3e-05	5
20683	0.0001	0.00015	0.00017	0.00053	-0.00011	-0.00015	7e-05	3e-05	5
20684	0.0001	0.00015	0.00017	0.00053	-0.00011	-0.00015	7e-05	3e-05	5
20685	0	5e-05	-7e-05	-0.00058	0.00017	5e-05	4e-05	1e-05	5
20686	3e-05	8e-05	0.00026	0.00023	-0.00018	-4e-05	1e-05	-4e-05	5
20688	3e-05	8e-05	0.00026	0.00023	-0.00018	-4e-05	1e-05	-4e-05	5
20689	3e-05	8e-05	0.00026	0.00023	-0.00018	-4e-05	1e-05	-4e-05	5
20690	3e-05	8e-05	0.00026	0.00023	-0.00018	-4e-05	1e-05	-4e-05	5
20691	3e-05	8e-05	0.00026	0.00023	-0.00018	-4e-05	1e-05	-4e-05	5
20692	3e-05	8e-05	0.00026	0.00023	-0.00018	-4e-05	1e-05	-4e-05	5
20693	3e-05	8e-05	0.00026	0.00023	-0.00018	-4e-05	1e-05	-4e-05	5
20694	3e-05	8e-05	0.00026	0.00023	-0.00018	-4e-05	1e-05	-4e-05	5
20695	3e-05	8e-05	0.00026	0.00023	-0.00018	-4e-05	1e-05	-4e-05	5
20696	3e-05	8e-05	0.00026	0.00023	-0.00018	-4e-05	1e-05	-4e-05	5
20697	3e-05	8e-05	0.00026	0.00023	-0.00018	-4e-05	1e-05	-4e-05	5
20698	3e-05	8e-05	0.00026	0.00023	-0.00018	-4e-05	1e-05	-4e-05	5
20699	3e-05	8e-05	0.00026	0.00023	-0.00018	-4e-05	1e-05	-4e-05	5
20700	3e-05	8e-05	0.00026	0.00023	-0.00018	-4e-05	1e-05	-4e-05	5
20701	3e-05	8e-05	0.00026	0.00023	-0.00018	-4e-05	1e-05	-4e-05	5
20702	3e-05	8e-05	0.00026	0.00023	-0.00018	-4e-05	1e-05	-4e-05	5
20703	3e-05	8e-05	0.00026	0.00023	-0.00018	-4e-05	1e-05	-4e-05	5
20704	3e-05	8e-05	0.00026	0.00023	-0.00018	-4e-05	1e-05	-4e-05	5
20705	3e-05	8e-05	0.00026	0.00023	-0.00018	-4e-05	1e-05	-4e-05	5
20706	3e-05	8e-05	0.00026	0.00023	-0.00018	-4e-05	1e-05	-4e-05	5
20707	3e-05	8e-05	0.00026	0.00023	-0.00018	-4e-05	1e-05	-4e-05	5
20708	7e-05	0.00015	-0.0003	-0.00117	-0.00062	-0.00032	-0.00016	-0.0001	5
20709	-3e-05	-0.00044	9e-05	-0.00076	-0.00036	-0.00022	-0.00019	-9e-05	5
20710	-3e-05	-0.00044	9e-05	-0.00076	-0.00036	-0.00022	-0.00019	-9e-05	5
20711	-3e-05	-0.00044	9e-05	-0.00076	-0.00036	-0.00022	-0.00019	-9e-05	5
20712	-3e-05	-0.00044	9e-05	-0.00076	-0.00036	-0.00022	-0.00019	-9e-05	5
20713	-3e-05	-0.00044	9e-05	-0.00076	-0.00036	-0.00022	-0.00019	-9e-05	5
20714	-3e-05	-0.00044	9e-05	-0.00076	-0.00036	-0.00022	-0.00019	-9e-05	5
20715	-3e-05	-0.00044	9e-05	-0.00076	-0.00036	-0.00022	-0.00019	-9e-05	5
20716	-3e-05	-0.00044	9e-05	-0.00076	-0.00036	-0.00022	-0.00019	-9e-05	5
20717	-3e-05	-0.00044	9e-05	-0.00076	-0.00036	-0.00022	-0.00019	-9e-05	5
20718	-3e-05	-0.00044	9e-05	-0.00076	-0.00036	-0.00022	-0.00019	-9e-05	5
20719	-3e-05	-0.00044	9e-05	-0.00076	-0.00036	-0.00022	-0.00019	-9e-05	5
20720	-3e-05	-0.00044	9e-05	-0.00076	-0.00036	-0.00022	-0.00019	-9e-05	5
20721	-3e-05	-0.00044	9e-05	-0.00076	-0.00036	-0.00022	-0.00019	-9e-05	5
20722	8e-05	0.0003	-0.00021	0.0005	-0.00033	0.00018	-7e-05	-1e-05	5
20723	-8e-05	-0.0001	-0.00029	-4e-05	0.00043	3e-05	7e-05	3e-05	5
20724	5e-05	0.00058	-3e-05	8e-05	-0.00054	8e-05	6e-05	-3e-05	5
20725	5e-05	0.00058	-3e-05	8e-05	-0.00054	8e-05	6e-05	-3e-05	5
20726	5e-05	0.00058	-3e-05	8e-05	-0.00054	8e-05	6e-05	-3e-05	5
20727	5e-05	0.00058	-3e-05	8e-05	-0.00054	8e-05	6e-05	-3e-05	5
20728	5e-05	0.00058	-3e-05	8e-05	-0.00054	8e-05	6e-05	-3e-05	5
20729	5e-05	0.00058	-3e-05	8e-05	-0.00054	8e-05	6e-05	-3e-05	5
20730	5e-05	0.00058	-3e-05	8e-05	-0.00054	8e-05	6e-05	-3e-05	5
20731	5e-05	0.00058	-3e-05	8e-05	-0.00054	8e-05	6e-05	-3e-05	5
20732	5e-05	0.00058	-3e-05	8e-05	-0.00054	8e-05	6e-05	-3e-05	5
20733	5e-05	0.00058	-3e-05	8e-05	-0.00054	8e-05	6e-05	-3e-05	5
20734	5e-05	0.00058	-3e-05	8e-05	-0.00054	8e-05	6e-05	-3e-05	5
20735	5e-05	0.00058	-3e-05	8e-05	-0.00054	8e-05	6e-05	-3e-05	5
20736	5e-05	0.00058	-3e-05	8e-05	-0.00054	8e-05	6e-05	-3e-05	5
20738	5e-05	0.00058	-3e-05	8e-05	-0.00054	8e-05	6e-05	-3e-05	5
20739	5e-05	0.00058	-3e-05	8e-05	-0.00054	8e-05	6e-05	-3e-05	5
20740	5e-05	0.00058	-3e-05	8e-05	-0.00054	8e-05	6e-05	-3e-05	5
20741	5e-05	0.00058	-3e-05	8e-05	-0.00054	8e-05	6e-05	-3e-05	5
20742	5e-05	0.00058	-3e-05	8e-05	-0.00054	8e-05	6e-05	-3e-05	5
20743	5e-05	0.00058	-3e-05	8e-05	-0.00054	8e-05	6e-05	-3e-05	5
20744	5e-05	0.00058	-3e-05	8e-05	-0.00054	8e-05	6e-05	-3e-05	5
20745	0.00013	-0.00042	-0.0001	-0.00043	-0.00033	-6e-05	-3e-05	4e-05	5
20746	0.00013	-0.00042	-0.0001	-0.00043	-0.00033	-6e-05	-3e-05	4e-05	5
20747	-0.00012	0.00021	-0.00067	-0.00117	0.00055	-0.00016	-5e-05	-5e-05	5
20748	-0.00012	0.00021	-0.00067	-0.00117	0.00055	-0.00016	-5e-05	-5e-05	5
20749	-0.00012	0.00021	-0.00067	-0.00117	0.00055	-0.00016	-5e-05	-5e-05	5
20750	-0.00012	0.00021	-0.00067	-0.00117	0.00055	-0.00016	-5e-05	-5e-05	5
20751	-0.00012	0.00021	-0.00067	-0.00117	0.00055	-0.00016	-5e-05	-5e-05	5
20752	-0.00012	0.00021	-0.00067	-0.00117	0.00055	-0.00016	-5e-05	-5e-05	5
20753	-0.00012	0.00021	-0.00067	-0.00117	0.00055	-0.00016	-5e-05	-5e-05	5
20754	-0.00012	0.00021	-0.00067	-0.00117	0.00055	-0.00016	-5e-05	-5e-05	5
20755	-0.00012	0.00021	-0.00067	-0.00117	0.00055	-0.00016	-5e-05	-5e-05	5
20756	-0.00012	0.00021	-0.00067	-0.00117	0.00055	-0.00016	-5e-05	-5e-05	5
20757	-0.00012	0.00021	-0.00067	-0.00117	0.00055	-0.00016	-5e-05	-5e-05	5
20758	-0.00012	0.00021	-0.00067	-0.00117	0.00055	-0.00016	-5e-05	-5e-05	5
20759	-0.0001	0.00011	-0.00021	-0.00028	0.00034	4e-05	-1e-05	-7e-05	5
20760	-0.0001	0.00011	-0.00021	-0.00028	0.00034	4e-05	-1e-05	-7e-05	5
20761	-0.0001	0.00011	-0.00021	-0.00028	0.00034	4e-05	-1e-05	-7e-05	5
20762	-0.0001	0.00011	-0.00021	-0.00028	0.00034	4e-05	-1e-05	-7e-05	5
20763	-0.0001	0.00011	-0.00021	-0.00028	0.00034	4e-05	-1e-05	-7e-05	5
20764	-0.0001	0.00011	-0.00021	-0.00028	0.00034	4e-05	-1e-05	-7e-05	5
20765	-0.0001	0.00011	-0.00021	-0.00028	0.00034	4e-05	-1e-05	-7e-05	5
20766	-0.0001	0.00011	-0.00021	-0.00028	0.00034	4e-05	-1e-05	-7e-05	5
20767	-0.0001	0.00011	-0.00021	-0.00028	0.00034	4e-05	-1e-05	-7e-05	5
20768	7e-05	5e-05	0.0004	0.00092	0.00086	0.00019	0.00014	9e-05	5
20769	7e-05	5e-05	0.0004	0.00092	0.00086	0.00019	0.00014	9e-05	5
20770	7e-05	5e-05	0.0004	0.00092	0.00086	0.00019	0.00014	9e-05	5
20771	7e-05	5e-05	0.0004	0.00092	0.00086	0.00019	0.00014	9e-05	5
20772	7e-05	5e-05	0.0004	0.00092	0.00086	0.00019	0.00014	9e-05	5
20773	7e-05	5e-05	0.0004	0.00092	0.00086	0.00019	0.00014	9e-05	5
20774	7e-05	5e-05	0.0004	0.00092	0.00086	0.00019	0.00014	9e-05	5
20775	7e-05	5e-05	0.0004	0.00092	0.00086	0.00019	0.00014	9e-05	5
20776	7e-05	5e-05	0.0004	0.00092	0.00086	0.00019	0.00014	9e-05	5
20777	7e-05	5e-05	0.0004	0.00092	0.00086	0.00019	0.00014	9e-05	5
20778	7e-05	5e-05	0.0004	0.00092	0.00086	0.00019	0.00014	9e-05	5
20779	7e-05	5e-05	0.0004	0.00092	0.00086	0.00019	0.00014	9e-05	5
20780	7e-05	5e-05	0.0004	0.00092	0.00086	0.00019	0.00014	9e-05	5
20781	7e-05	5e-05	0.0004	0.00092	0.00086	0.00019	0.00014	9e-05	5
20782	8e-05	0.00038	0.00024	0.00073	8e-05	-0.00038	-0.00012	-3e-05	5
20783	-0.00016	5e-05	9e-05	0.00071	-0.00059	0.00014	-6e-05	-5e-05	5
20784	-1e-05	0.00031	0.00079	0.00083	-0.00057	-0.00044	-0.00011	-4e-05	5
20785	-1e-05	0.00031	0.00079	0.00083	-0.00057	-0.00044	-0.00011	-4e-05	5
20786	-1e-05	0.00031	0.00079	0.00083	-0.00057	-0.00044	-0.00011	-4e-05	5
20788	-1e-05	0.00031	0.00079	0.00083	-0.00057	-0.00044	-0.00011	-4e-05	5
20789	-1e-05	0.00031	0.00079	0.00083	-0.00057	-0.00044	-0.00011	-4e-05	5
20790	-1e-05	0.00031	0.00079	0.00083	-0.00057	-0.00044	-0.00011	-4e-05	5
20791	-1e-05	0.00031	0.00079	0.00083	-0.00057	-0.00044	-0.00011	-4e-05	5
20792	-1e-05	0.00031	0.00079	0.00083	-0.00057	-0.00044	-0.00011	-4e-05	5
20793	-1e-05	0.00031	0.00079	0.00083	-0.00057	-0.00044	-0.00011	-4e-05	5
20794	-1e-05	0.00031	0.00079	0.00083	-0.00057	-0.00044	-0.00011	-4e-05	5
20795	-1e-05	0.00031	0.00079	0.00083	-0.00057	-0.00044	-0.00011	-4e-05	5
20796	-1e-05	0.00031	0.00079	0.00083	-0.00057	-0.00044	-0.00011	-4e-05	5
20797	-1e-05	0.00031	0.00079	0.00083	-0.00057	-0.00044	-0.00011	-4e-05	5
20798	-1e-05	0.00031	0.00079	0.00083	-0.00057	-0.00044	-0.00011	-4e-05	5
20799	-1e-05	0.00031	0.00079	0.00083	-0.00057	-0.00044	-0.00011	-4e-05	5
20800	-1e-05	0.00031	0.00079	0.00083	-0.00057	-0.00044	-0.00011	-4e-05	5
20801	-1e-05	0.00031	0.00079	0.00083	-0.00057	-0.00044	-0.00011	-4e-05	5
20802	-1e-05	0.00031	0.00079	0.00083	-0.00057	-0.00044	-0.00011	-4e-05	5
20803	-1e-05	0.00031	0.00079	0.00083	-0.00057	-0.00044	-0.00011	-4e-05	5
20804	-1e-05	0.00031	0.00079	0.00083	-0.00057	-0.00044	-0.00011	-4e-05	5
20805	-0.00016	-0.00024	-0.00077	-0.00093	0.0003	-1e-05	-4e-05	-3e-05	5
20806	-0.00016	-0.00024	-0.00077	-0.00093	0.0003	-1e-05	-4e-05	-3e-05	5
20807	-0.00014	-0.00021	7e-05	0.00016	-0.00021	-0.00025	2e-05	-1e-05	5
20808	-0.00014	-0.00021	7e-05	0.00016	-0.00021	-0.00025	2e-05	-1e-05	5
20809	-0.00014	-0.00021	7e-05	0.00016	-0.00021	-0.00025	2e-05	-1e-05	5
20810	-0.00014	-0.00021	7e-05	0.00016	-0.00021	-0.00025	2e-05	-1e-05	5
20811	-0.00014	-0.00021	7e-05	0.00016	-0.00021	-0.00025	2e-05	-1e-05	5
20812	-0.00014	-0.00021	7e-05	0.00016	-0.00021	-0.00025	2e-05	-1e-05	5
20813	-0.00014	-0.00021	7e-05	0.00016	-0.00021	-0.00025	2e-05	-1e-05	5
20814	-0.00014	-0.00021	7e-05	0.00016	-0.00021	-0.00025	2e-05	-1e-05	5
20815	-0.00014	-0.00021	7e-05	0.00016	-0.00021	-0.00025	2e-05	-1e-05	5
20816	-0.00014	-0.00021	7e-05	0.00016	-0.00021	-0.00025	2e-05	-1e-05	5
20817	-0.00014	-0.00021	7e-05	0.00016	-0.00021	-0.00025	2e-05	-1e-05	5
20818	-0.00014	-0.00021	7e-05	0.00016	-0.00021	-0.00025	2e-05	-1e-05	5
20819	-0.0001	-0.00013	0.00027	-0.0006	-0.00074	-3e-05	2e-05	7e-05	5
20820	-0.0001	-0.00013	0.00027	-0.0006	-0.00074	-3e-05	2e-05	7e-05	5
20821	-0.0001	-0.00013	0.00027	-0.0006	-0.00074	-3e-05	2e-05	7e-05	5
20822	-0.0001	-0.00013	0.00027	-0.0006	-0.00074	-3e-05	2e-05	7e-05	5
20823	-0.0001	-0.00013	0.00027	-0.0006	-0.00074	-3e-05	2e-05	7e-05	5
20824	-0.0001	-0.00013	0.00027	-0.0006	-0.00074	-3e-05	2e-05	7e-05	5
20825	-0.0001	-0.00013	0.00027	-0.0006	-0.00074	-3e-05	2e-05	7e-05	5
20826	-0.0001	-0.00013	0.00027	-0.0006	-0.00074	-3e-05	2e-05	7e-05	5
20827	-0.0001	-0.00013	0.00027	-0.0006	-0.00074	-3e-05	2e-05	7e-05	5
20828	-2e-05	-4e-05	-3e-05	0.00064	0.0009	0.00061	0.0001	3e-05	5
20829	-2e-05	-4e-05	-3e-05	0.00064	0.0009	0.00061	0.0001	3e-05	5
20830	-2e-05	-4e-05	-3e-05	0.00064	0.0009	0.00061	0.0001	3e-05	5
20831	-2e-05	-4e-05	-3e-05	0.00064	0.0009	0.00061	0.0001	3e-05	5
20832	-2e-05	-4e-05	-3e-05	0.00064	0.0009	0.00061	0.0001	3e-05	5
20833	-2e-05	-4e-05	-3e-05	0.00064	0.0009	0.00061	0.0001	3e-05	5
20834	-2e-05	-4e-05	-3e-05	0.00064	0.0009	0.00061	0.0001	3e-05	5
20835	-2e-05	-4e-05	-3e-05	0.00064	0.0009	0.00061	0.0001	3e-05	5
20836	-2e-05	-4e-05	-3e-05	0.00064	0.0009	0.00061	0.0001	3e-05	5
20838	-2e-05	-4e-05	-3e-05	0.00064	0.0009	0.00061	0.0001	3e-05	5
20839	-2e-05	-4e-05	-3e-05	0.00064	0.0009	0.00061	0.0001	3e-05	5
20840	-2e-05	-4e-05	-3e-05	0.00064	0.0009	0.00061	0.0001	3e-05	5
20841	-2e-05	-4e-05	-3e-05	0.00064	0.0009	0.00061	0.0001	3e-05	5
20842	-0.00017	-3e-05	-0.00016	3e-05	-0.00081	3e-05	-0.00013	-0.00011	5
20843	-0.00017	-3e-05	-0.00016	3e-05	-0.00081	3e-05	-0.00013	-0.00011	5
20844	-4e-05	-0.00028	-0.00016	-0.0002	-5e-05	0.00018	-7e-05	-7e-05	5
20845	-4e-05	-0.00028	-0.00016	-0.0002	-5e-05	0.00018	-7e-05	-7e-05	5
20846	-4e-05	-0.00028	-0.00016	-0.0002	-5e-05	0.00018	-7e-05	-7e-05	5
20847	-4e-05	-0.00028	-0.00016	-0.0002	-5e-05	0.00018	-7e-05	-7e-05	5
20848	-4e-05	-0.00028	-0.00016	-0.0002	-5e-05	0.00018	-7e-05	-7e-05	5
20849	-4e-05	-0.00028	-0.00016	-0.0002	-5e-05	0.00018	-7e-05	-7e-05	5
20850	-4e-05	-0.00028	-0.00016	-0.0002	-5e-05	0.00018	-7e-05	-7e-05	5
20851	-4e-05	-0.00028	-0.00016	-0.0002	-5e-05	0.00018	-7e-05	-7e-05	5
20852	-4e-05	-0.00028	-0.00016	-0.0002	-5e-05	0.00018	-7e-05	-7e-05	5
20853	-4e-05	-0.00028	-0.00016	-0.0002	-5e-05	0.00018	-7e-05	-7e-05	5
20854	-4e-05	-0.00028	-0.00016	-0.0002	-5e-05	0.00018	-7e-05	-7e-05	5
20855	-4e-05	-0.00028	-0.00016	-0.0002	-5e-05	0.00018	-7e-05	-7e-05	5
20856	-4e-05	-0.00028	-0.00016	-0.0002	-5e-05	0.00018	-7e-05	-7e-05	5
20857	-4e-05	-0.00028	-0.00016	-0.0002	-5e-05	0.00018	-7e-05	-7e-05	5
20858	-4e-05	-0.00028	-0.00016	-0.0002	-5e-05	0.00018	-7e-05	-7e-05	5
20859	-4e-05	-0.00028	-0.00016	-0.0002	-5e-05	0.00018	-7e-05	-7e-05	5
20860	-4e-05	-0.00028	-0.00016	-0.0002	-5e-05	0.00018	-7e-05	-7e-05	5
20861	-4e-05	-0.00028	-0.00016	-0.0002	-5e-05	0.00018	-7e-05	-7e-05	5
20862	-4e-05	-0.00028	-0.00016	-0.0002	-5e-05	0.00018	-7e-05	-7e-05	5
20863	-4e-05	-0.00028	-0.00016	-0.0002	-5e-05	0.00018	-7e-05	-7e-05	5
20864	-4e-05	-0.00028	-0.00016	-0.0002	-5e-05	0.00018	-7e-05	-7e-05	5
20865	8e-05	4e-05	-0.00051	-0.00086	0.00086	0.00046	-0.00013	1e-05	5
20866	-3e-05	0.00014	-0.00016	0.00021	0.00021	0.0005	0.00018	0	5
20867	8e-05	-0.00019	-0.0002	0.00029	-0.00043	0.00025	5e-05	8e-05	5
20868	8e-05	-0.00019	-0.0002	0.00029	-0.00043	0.00025	5e-05	8e-05	5
20869	8e-05	-0.00019	-0.0002	0.00029	-0.00043	0.00025	5e-05	8e-05	5
20870	8e-05	-0.00019	-0.0002	0.00029	-0.00043	0.00025	5e-05	8e-05	5
20871	8e-05	-0.00019	-0.0002	0.00029	-0.00043	0.00025	5e-05	8e-05	5
20872	8e-05	-0.00019	-0.0002	0.00029	-0.00043	0.00025	5e-05	8e-05	5
20873	8e-05	-0.00019	-0.0002	0.00029	-0.00043	0.00025	5e-05	8e-05	5
20874	8e-05	-0.00019	-0.0002	0.00029	-0.00043	0.00025	5e-05	8e-05	5
20875	8e-05	-0.00019	-0.0002	0.00029	-0.00043	0.00025	5e-05	8e-05	5
20876	8e-05	-0.00019	-0.0002	0.00029	-0.00043	0.00025	5e-05	8e-05	5
20877	8e-05	-0.00019	-0.0002	0.00029	-0.00043	0.00025	5e-05	8e-05	5
20878	8e-05	-0.00019	-0.0002	0.00029	-0.00043	0.00025	5e-05	8e-05	5
20879	8e-05	-0.00019	-0.0002	0.00029	-0.00043	0.00025	5e-05	8e-05	5
20880	8e-05	-0.00019	-0.0002	0.00029	-0.00043	0.00025	5e-05	8e-05	5
20881	8e-05	-0.00019	-0.0002	0.00029	-0.00043	0.00025	5e-05	8e-05	5
20882	8e-05	-0.00019	-0.0002	0.00029	-0.00043	0.00025	5e-05	8e-05	5
20883	8e-05	-0.00019	-0.0002	0.00029	-0.00043	0.00025	5e-05	8e-05	5
20884	8e-05	-0.00019	-0.0002	0.00029	-0.00043	0.00025	5e-05	8e-05	5
20885	8e-05	-0.00019	-0.0002	0.00029	-0.00043	0.00025	5e-05	8e-05	5
20886	8e-05	-0.00019	-0.0002	0.00029	-0.00043	0.00025	5e-05	8e-05	5
20888	-0.00017	-0.00015	5e-05	-1e-05	0.00019	4e-05	-0.00013	-0.00012	5
20889	0.0001	-0.00044	0.00015	-5e-05	-0.00073	0.0004	-2e-05	4e-05	5
20890	0.0001	-0.00044	0.00015	-5e-05	-0.00073	0.0004	-2e-05	4e-05	5
20891	0.0001	-0.00044	0.00015	-5e-05	-0.00073	0.0004	-2e-05	4e-05	5
20892	0.0001	-0.00044	0.00015	-5e-05	-0.00073	0.0004	-2e-05	4e-05	5
20893	0.0001	-0.00044	0.00015	-5e-05	-0.00073	0.0004	-2e-05	4e-05	5
20894	0.0001	-0.00044	0.00015	-5e-05	-0.00073	0.0004	-2e-05	4e-05	5
20895	0.0001	-0.00044	0.00015	-5e-05	-0.00073	0.0004	-2e-05	4e-05	5
20896	0.0001	-0.00044	0.00015	-5e-05	-0.00073	0.0004	-2e-05	4e-05	5
20897	0.0001	-0.00044	0.00015	-5e-05	-0.00073	0.0004	-2e-05	4e-05	5
20898	0.0001	-0.00044	0.00015	-5e-05	-0.00073	0.0004	-2e-05	4e-05	5
20899	0.0001	-0.00044	0.00015	-5e-05	-0.00073	0.0004	-2e-05	4e-05	5
20900	0.0001	-0.00044	0.00015	-5e-05	-0.00073	0.0004	-2e-05	4e-05	5
20901	0.0001	-0.00044	0.00015	-5e-05	-0.00073	0.0004	-2e-05	4e-05	5
20902	0.0001	-0.00044	0.00015	-5e-05	-0.00073	0.0004	-2e-05	4e-05	5
20903	0.00017	-0.0002	0.00069	0.00082	-9e-05	-0.00023	3e-05	8e-05	5
20904	-0.0004	-0.00023	-0.00032	-0.00086	-0.00057	-0.00018	-0.00017	-9e-05	5
20905	-0.0004	-0.00023	-0.00032	-0.00086	-0.00057	-0.00018	-0.00017	-9e-05	5
20906	-0.0004	-0.00023	-0.00032	-0.00086	-0.00057	-0.00018	-0.00017	-9e-05	5
20907	-0.0004	-0.00023	-0.00032	-0.00086	-0.00057	-0.00018	-0.00017	-9e-05	5
20908	-0.0004	-0.00023	-0.00032	-0.00086	-0.00057	-0.00018	-0.00017	-9e-05	5
20909	-0.0004	-0.00023	-0.00032	-0.00086	-0.00057	-0.00018	-0.00017	-9e-05	5
20910	-0.0004	-0.00023	-0.00032	-0.00086	-0.00057	-0.00018	-0.00017	-9e-05	5
20911	-0.0004	-0.00023	-0.00032	-0.00086	-0.00057	-0.00018	-0.00017	-9e-05	5
20912	-0.0004	-0.00023	-0.00032	-0.00086	-0.00057	-0.00018	-0.00017	-9e-05	5
20913	-0.0004	-0.00023	-0.00032	-0.00086	-0.00057	-0.00018	-0.00017	-9e-05	5
20914	-0.0004	-0.00023	-0.00032	-0.00086	-0.00057	-0.00018	-0.00017	-9e-05	5
20915	-0.0004	-0.00023	-0.00032	-0.00086	-0.00057	-0.00018	-0.00017	-9e-05	5
20916	-0.0004	-0.00023	-0.00032	-0.00086	-0.00057	-0.00018	-0.00017	-9e-05	5
20917	-0.0004	-0.00023	-0.00032	-0.00086	-0.00057	-0.00018	-0.00017	-9e-05	5
20918	-0.0004	-0.00023	-0.00032	-0.00086	-0.00057	-0.00018	-0.00017	-9e-05	5
20919	-0.0004	-0.00023	-0.00032	-0.00086	-0.00057	-0.00018	-0.00017	-9e-05	5
20920	-0.0004	-0.00023	-0.00032	-0.00086	-0.00057	-0.00018	-0.00017	-9e-05	5
20921	-0.0004	-0.00023	-0.00032	-0.00086	-0.00057	-0.00018	-0.00017	-9e-05	5
20922	-0.0004	-0.00023	-0.00032	-0.00086	-0.00057	-0.00018	-0.00017	-9e-05	5
20923	-0.0004	-0.00023	-0.00032	-0.00086	-0.00057	-0.00018	-0.00017	-9e-05	5
20924	-0.0004	-0.00023	-0.00032	-0.00086	-0.00057	-0.00018	-0.00017	-9e-05	5
20925	0.00013	-0.00022	0.00013	8e-05	0.00021	0.00022	-4e-05	5e-05	5
20926	0.00013	-0.00022	0.00013	8e-05	0.00021	0.00022	-4e-05	5e-05	5
20927	0.00027	0.00025	-0.00015	0.00052	0.00073	0.00029	9e-05	2e-05	5
20928	0.00027	0.00025	-0.00015	0.00052	0.00073	0.00029	9e-05	2e-05	5
20929	0.00027	0.00025	-0.00015	0.00052	0.00073	0.00029	9e-05	2e-05	5
20930	0.00027	0.00025	-0.00015	0.00052	0.00073	0.00029	9e-05	2e-05	5
20931	0.00027	0.00025	-0.00015	0.00052	0.00073	0.00029	9e-05	2e-05	5
20932	0.00027	0.00025	-0.00015	0.00052	0.00073	0.00029	9e-05	2e-05	5
20933	0.00027	0.00025	-0.00015	0.00052	0.00073	0.00029	9e-05	2e-05	5
20934	0.00027	0.00025	-0.00015	0.00052	0.00073	0.00029	9e-05	2e-05	5
20935	0.00027	0.00025	-0.00015	0.00052	0.00073	0.00029	9e-05	2e-05	5
20936	0.00027	0.00025	-0.00015	0.00052	0.00073	0.00029	9e-05	2e-05	5
20938	0.00027	0.00025	-0.00015	0.00052	0.00073	0.00029	9e-05	2e-05	5
20939	0.00027	0.00025	-0.00015	0.00052	0.00073	0.00029	9e-05	2e-05	5
20940	0.00027	0.00025	-0.00015	0.00052	0.00073	0.00029	9e-05	2e-05	5
20941	0.00027	0.00025	-0.00015	0.00052	0.00073	0.00029	9e-05	2e-05	5
20942	0.00027	0.00025	-0.00015	0.00052	0.00073	0.00029	9e-05	2e-05	5
20943	0.00027	0.00025	-0.00015	0.00052	0.00073	0.00029	9e-05	2e-05	5
20944	0.00027	0.00025	-0.00015	0.00052	0.00073	0.00029	9e-05	2e-05	5
20945	0.00027	0.00025	-0.00015	0.00052	0.00073	0.00029	9e-05	2e-05	5
20946	0.00027	0.00025	-0.00015	0.00052	0.00073	0.00029	9e-05	2e-05	5
20947	0.00027	0.00025	-0.00015	0.00052	0.00073	0.00029	9e-05	2e-05	5
20948	-3e-05	0.00015	0.00016	0.00104	-0.00038	-0.00066	0.00022	3e-05	5
20949	-3e-05	0.00015	0.00016	0.00104	-0.00038	-0.00066	0.00022	3e-05	5
20950	-0.00021	-0.0004	-8e-05	-0.00055	9e-05	-3e-05	-7e-05	-6e-05	5
20951	-0.00021	-0.0004	-8e-05	-0.00055	9e-05	-3e-05	-7e-05	-6e-05	5
20952	-0.00021	-0.0004	-8e-05	-0.00055	9e-05	-3e-05	-7e-05	-6e-05	5
20953	-0.00021	-0.0004	-8e-05	-0.00055	9e-05	-3e-05	-7e-05	-6e-05	5
20954	-0.00021	-0.0004	-8e-05	-0.00055	9e-05	-3e-05	-7e-05	-6e-05	5
20955	-0.00021	-0.0004	-8e-05	-0.00055	9e-05	-3e-05	-7e-05	-6e-05	5
20956	-0.00021	-0.0004	-8e-05	-0.00055	9e-05	-3e-05	-7e-05	-6e-05	5
20957	-0.00021	-0.0004	-8e-05	-0.00055	9e-05	-3e-05	-7e-05	-6e-05	5
20958	-0.00021	-0.0004	-8e-05	-0.00055	9e-05	-3e-05	-7e-05	-6e-05	5
20959	-0.00021	-0.0004	-8e-05	-0.00055	9e-05	-3e-05	-7e-05	-6e-05	5
20960	-0.00021	-0.0004	-8e-05	-0.00055	9e-05	-3e-05	-7e-05	-6e-05	5
20961	-0.00021	-0.0004	-8e-05	-0.00055	9e-05	-3e-05	-7e-05	-6e-05	5
20962	0.00015	-0.00021	0.00018	0.00101	0.00092	0.00029	0.00011	0.00014	5
20963	0.00015	-0.00021	0.00018	0.00101	0.00092	0.00029	0.00011	0.00014	5
20964	0.00011	0.00028	0.00024	-0.0005	-0.00077	-0.00064	-7e-05	-4e-05	5
20965	0.00011	0.00028	0.00024	-0.0005	-0.00077	-0.00064	-7e-05	-4e-05	5
20966	0.00011	0.00028	0.00024	-0.0005	-0.00077	-0.00064	-7e-05	-4e-05	5
20967	0.00011	0.00028	0.00024	-0.0005	-0.00077	-0.00064	-7e-05	-4e-05	5
20968	0.00011	0.00028	0.00024	-0.0005	-0.00077	-0.00064	-7e-05	-4e-05	5
20969	0.00011	0.00028	0.00024	-0.0005	-0.00077	-0.00064	-7e-05	-4e-05	5
20970	0.00011	0.00028	0.00024	-0.0005	-0.00077	-0.00064	-7e-05	-4e-05	5
20971	0.00011	0.00028	0.00024	-0.0005	-0.00077	-0.00064	-7e-05	-4e-05	5
20972	0.00011	0.00028	0.00024	-0.0005	-0.00077	-0.00064	-7e-05	-4e-05	5
20973	0.00011	0.00028	0.00024	-0.0005	-0.00077	-0.00064	-7e-05	-4e-05	5
20974	0.00011	0.00028	0.00024	-0.0005	-0.00077	-0.00064	-7e-05	-4e-05	5
20975	0.00011	0.00028	0.00024	-0.0005	-0.00077	-0.00064	-7e-05	-4e-05	5
20976	0.00011	0.00028	0.00024	-0.0005	-0.00077	-0.00064	-7e-05	-4e-05	5
20977	0.00011	0.00028	0.00024	-0.0005	-0.00077	-0.00064	-7e-05	-4e-05	5
20978	0.00011	0.00028	0.00024	-0.0005	-0.00077	-0.00064	-7e-05	-4e-05	5
20979	0.00011	0.00028	0.00024	-0.0005	-0.00077	-0.00064	-7e-05	-4e-05	5
20980	0.00011	0.00028	0.00024	-0.0005	-0.00077	-0.00064	-7e-05	-4e-05	5
20981	0.00011	0.00028	0.00024	-0.0005	-0.00077	-0.00064	-7e-05	-4e-05	5
20982	0.00011	0.00028	0.00024	-0.0005	-0.00077	-0.00064	-7e-05	-4e-05	5
20983	0.00011	0.00028	0.00024	-0.0005	-0.00077	-0.00064	-7e-05	-4e-05	5
20984	0.00011	0.00028	0.00024	-0.0005	-0.00077	-0.00064	-7e-05	-4e-05	5
20985	-1e-05	-0.00044	-0.00053	-0.00057	-0.0001	-8e-05	-4e-05	-2e-05	5
20986	-1e-05	-0.00044	-0.00053	-0.00057	-0.0001	-8e-05	-4e-05	-2e-05	5
20988	-1e-05	-0.00044	-0.00053	-0.00057	-0.0001	-8e-05	-4e-05	-2e-05	5
20989	-1e-05	-0.00044	-0.00053	-0.00057	-0.0001	-8e-05	-4e-05	-2e-05	5
20990	-1e-05	-0.00044	-0.00053	-0.00057	-0.0001	-8e-05	-4e-05	-2e-05	5
20991	-3e-05	0.00019	0.00019	0.00049	-0.00084	8e-05	7e-05	-6e-05	5
20992	-3e-05	0.00019	0.00019	0.00049	-0.00084	8e-05	7e-05	-6e-05	5
20993	-3e-05	0.00019	0.00019	0.00049	-0.00084	8e-05	7e-05	-6e-05	5
20994	-3e-05	0.00019	0.00019	0.00049	-0.00084	8e-05	7e-05	-6e-05	5
20995	-3e-05	0.00019	0.00019	0.00049	-0.00084	8e-05	7e-05	-6e-05	5
20996	-3e-05	0.00019	0.00019	0.00049	-0.00084	8e-05	7e-05	-6e-05	5
20997	-3e-05	0.00019	0.00019	0.00049	-0.00084	8e-05	7e-05	-6e-05	5
20998	-3e-05	0.00019	0.00019	0.00049	-0.00084	8e-05	7e-05	-6e-05	5
20999	-3e-05	0.00019	0.00019	0.00049	-0.00084	8e-05	7e-05	-6e-05	5
21000	-3e-05	0.00019	0.00019	0.00049	-0.00084	8e-05	7e-05	-6e-05	5
21001	-3e-05	0.00019	0.00019	0.00049	-0.00084	8e-05	7e-05	-6e-05	5
21002	-3e-05	0.00019	0.00019	0.00049	-0.00084	8e-05	7e-05	-6e-05	5
21003	-3e-05	0.00019	0.00019	0.00049	-0.00084	8e-05	7e-05	-6e-05	5
21004	-3e-05	0.00019	0.00019	0.00049	-0.00084	8e-05	7e-05	-6e-05	5
21005	-3e-05	0.00019	0.00019	0.00049	-0.00084	8e-05	7e-05	-6e-05	5
21006	-3e-05	0.00019	0.00019	0.00049	-0.00084	8e-05	7e-05	-6e-05	5
21007	0.00017	-0.0002	2e-05	0.00078	-0.00029	9e-05	4e-05	0.00011	5
21008	-3e-05	0.0001	0.0001	-0.00026	-0.00059	7e-05	-0.00012	-6e-05	5
21009	-0.00011	-0.00019	-0.00022	-0.00035	-0.0001	-9e-05	-0.0001	-6e-05	5
21010	-0.00011	-0.00019	-0.00022	-0.00035	-0.0001	-9e-05	-0.0001	-6e-05	5
21011	-0.00011	-0.00019	-0.00022	-0.00035	-0.0001	-9e-05	-0.0001	-6e-05	5
21012	-0.00011	-0.00019	-0.00022	-0.00035	-0.0001	-9e-05	-0.0001	-6e-05	5
21013	-0.00011	-0.00019	-0.00022	-0.00035	-0.0001	-9e-05	-0.0001	-6e-05	5
21014	-0.00011	-0.00019	-0.00022	-0.00035	-0.0001	-9e-05	-0.0001	-6e-05	5
21015	-0.00011	-0.00019	-0.00022	-0.00035	-0.0001	-9e-05	-0.0001	-6e-05	5
21016	-0.00011	-0.00019	-0.00022	-0.00035	-0.0001	-9e-05	-0.0001	-6e-05	5
21017	-0.00011	-0.00019	-0.00022	-0.00035	-0.0001	-9e-05	-0.0001	-6e-05	5
21018	-0.00011	-0.00019	-0.00022	-0.00035	-0.0001	-9e-05	-0.0001	-6e-05	5
21019	-0.00011	-0.00019	-0.00022	-0.00035	-0.0001	-9e-05	-0.0001	-6e-05	5
21020	-0.00011	-0.00019	-0.00022	-0.00035	-0.0001	-9e-05	-0.0001	-6e-05	5
21021	-0.00011	-0.00019	-0.00022	-0.00035	-0.0001	-9e-05	-0.0001	-6e-05	5
21022	0.00011	-0.00025	0.00018	0.00036	-2e-05	-0.00028	8e-05	1e-05	5
21023	-0.00021	-0.00026	-0.00014	0.00023	0.00083	0.00015	1e-05	-4e-05	5
21024	2e-05	-0.00063	-0.00015	-0.00018	0.00088	4e-05	-0.00018	-5e-05	5
21025	2e-05	-0.00063	-0.00015	-0.00018	0.00088	4e-05	-0.00018	-5e-05	5
21026	2e-05	-0.00063	-0.00015	-0.00018	0.00088	4e-05	-0.00018	-5e-05	5
21027	2e-05	-0.00063	-0.00015	-0.00018	0.00088	4e-05	-0.00018	-5e-05	5
21028	2e-05	-0.00063	-0.00015	-0.00018	0.00088	4e-05	-0.00018	-5e-05	5
21029	2e-05	-0.00063	-0.00015	-0.00018	0.00088	4e-05	-0.00018	-5e-05	5
21030	2e-05	-0.00063	-0.00015	-0.00018	0.00088	4e-05	-0.00018	-5e-05	5
21031	2e-05	-0.00063	-0.00015	-0.00018	0.00088	4e-05	-0.00018	-5e-05	5
21032	2e-05	-0.00063	-0.00015	-0.00018	0.00088	4e-05	-0.00018	-5e-05	5
21033	2e-05	-0.00063	-0.00015	-0.00018	0.00088	4e-05	-0.00018	-5e-05	5
21034	2e-05	-0.00063	-0.00015	-0.00018	0.00088	4e-05	-0.00018	-5e-05	5
21035	2e-05	-0.00063	-0.00015	-0.00018	0.00088	4e-05	-0.00018	-5e-05	5
21036	2e-05	-0.00063	-0.00015	-0.00018	0.00088	4e-05	-0.00018	-5e-05	5
21038	2e-05	-0.00063	-0.00015	-0.00018	0.00088	4e-05	-0.00018	-5e-05	5
21039	2e-05	-0.00063	-0.00015	-0.00018	0.00088	4e-05	-0.00018	-5e-05	5
21040	2e-05	-0.00063	-0.00015	-0.00018	0.00088	4e-05	-0.00018	-5e-05	5
21041	2e-05	-0.00063	-0.00015	-0.00018	0.00088	4e-05	-0.00018	-5e-05	5
21042	2e-05	-0.00063	-0.00015	-0.00018	0.00088	4e-05	-0.00018	-5e-05	5
21043	2e-05	-0.00063	-0.00015	-0.00018	0.00088	4e-05	-0.00018	-5e-05	5
21044	2e-05	-0.00063	-0.00015	-0.00018	0.00088	4e-05	-0.00018	-5e-05	5
21045	0.00016	9e-05	-0.00012	-0.00081	-0.00034	-1e-05	-3e-05	-1e-05	5
21046	0.00016	9e-05	-0.00012	-0.00081	-0.00034	-1e-05	-3e-05	-1e-05	5
21047	-2e-05	0.0001	8e-05	-0.00032	-0.00049	-2e-05	2e-05	2e-05	5
21048	-2e-05	0.0001	8e-05	-0.00032	-0.00049	-2e-05	2e-05	2e-05	5
21049	-2e-05	0.0001	8e-05	-0.00032	-0.00049	-2e-05	2e-05	2e-05	5
21050	-2e-05	0.0001	8e-05	-0.00032	-0.00049	-2e-05	2e-05	2e-05	5
21051	-2e-05	0.0001	8e-05	-0.00032	-0.00049	-2e-05	2e-05	2e-05	5
21052	-2e-05	0.0001	8e-05	-0.00032	-0.00049	-2e-05	2e-05	2e-05	5
21053	-2e-05	0.0001	8e-05	-0.00032	-0.00049	-2e-05	2e-05	2e-05	5
21054	-2e-05	0.0001	8e-05	-0.00032	-0.00049	-2e-05	2e-05	2e-05	5
21055	-2e-05	0.0001	8e-05	-0.00032	-0.00049	-2e-05	2e-05	2e-05	5
21056	-2e-05	0.0001	8e-05	-0.00032	-0.00049	-2e-05	2e-05	2e-05	5
21057	-2e-05	0.0001	8e-05	-0.00032	-0.00049	-2e-05	2e-05	2e-05	5
21058	-2e-05	0.0001	8e-05	-0.00032	-0.00049	-2e-05	2e-05	2e-05	5
21059	-2e-05	0.0001	8e-05	-0.00032	-0.00049	-2e-05	2e-05	2e-05	5
21060	-2e-05	0.0001	8e-05	-0.00032	-0.00049	-2e-05	2e-05	2e-05	5
21061	-2e-05	0.0001	8e-05	-0.00032	-0.00049	-2e-05	2e-05	2e-05	5
21062	-2e-05	0.0001	8e-05	-0.00032	-0.00049	-2e-05	2e-05	2e-05	5
21063	-2e-05	0.0001	8e-05	-0.00032	-0.00049	-2e-05	2e-05	2e-05	5
21064	-2e-05	0.0001	8e-05	-0.00032	-0.00049	-2e-05	2e-05	2e-05	5
21065	-2e-05	0.0001	8e-05	-0.00032	-0.00049	-2e-05	2e-05	2e-05	5
21066	-2e-05	0.0001	8e-05	-0.00032	-0.00049	-2e-05	2e-05	2e-05	5
21067	-2e-05	0.0001	8e-05	-0.00032	-0.00049	-2e-05	2e-05	2e-05	5
21068	4e-05	6e-05	4e-05	-0.0008	-0.0002	-0.00021	-2e-05	-2e-05	5
21069	0.00011	1e-05	0.00019	0.00049	-0.0008	-0.00014	-5e-05	2e-05	5
21070	0.00011	1e-05	0.00019	0.00049	-0.0008	-0.00014	-5e-05	2e-05	5
21071	0.00011	1e-05	0.00019	0.00049	-0.0008	-0.00014	-5e-05	2e-05	5
21072	0.00011	1e-05	0.00019	0.00049	-0.0008	-0.00014	-5e-05	2e-05	5
21073	0.00011	1e-05	0.00019	0.00049	-0.0008	-0.00014	-5e-05	2e-05	5
21074	0.00011	1e-05	0.00019	0.00049	-0.0008	-0.00014	-5e-05	2e-05	5
21075	0.00011	1e-05	0.00019	0.00049	-0.0008	-0.00014	-5e-05	2e-05	5
21076	0.00011	1e-05	0.00019	0.00049	-0.0008	-0.00014	-5e-05	2e-05	5
21077	0.00011	1e-05	0.00019	0.00049	-0.0008	-0.00014	-5e-05	2e-05	5
21078	0.00011	1e-05	0.00019	0.00049	-0.0008	-0.00014	-5e-05	2e-05	5
21079	0.00011	1e-05	0.00019	0.00049	-0.0008	-0.00014	-5e-05	2e-05	5
21080	0.00011	1e-05	0.00019	0.00049	-0.0008	-0.00014	-5e-05	2e-05	5
21081	0.00011	1e-05	0.00019	0.00049	-0.0008	-0.00014	-5e-05	2e-05	5
21082	-0.00016	0.00041	0.00057	0.00103	5e-05	-0.00049	0.00019	-3e-05	5
21083	-0.00016	0.00041	0.00057	0.00103	5e-05	-0.00049	0.00019	-3e-05	5
21084	-0.00016	0.00041	0.00057	0.00103	5e-05	-0.00049	0.00019	-3e-05	5
21085	-0.00016	0.00041	0.00057	0.00103	5e-05	-0.00049	0.00019	-3e-05	5
21086	-0.00016	0.00041	0.00057	0.00103	5e-05	-0.00049	0.00019	-3e-05	5
21088	-0.00016	0.00041	0.00057	0.00103	5e-05	-0.00049	0.00019	-3e-05	5
21089	0.00028	0.00011	-0.00018	-0.00082	0.00053	0.0005	0.0002	0.00016	5
21090	0.00028	0.00011	-0.00018	-0.00082	0.00053	0.0005	0.0002	0.00016	5
21091	0.00028	0.00011	-0.00018	-0.00082	0.00053	0.0005	0.0002	0.00016	5
21092	0.00028	0.00011	-0.00018	-0.00082	0.00053	0.0005	0.0002	0.00016	5
21093	0.00028	0.00011	-0.00018	-0.00082	0.00053	0.0005	0.0002	0.00016	5
21094	0.00028	0.00011	-0.00018	-0.00082	0.00053	0.0005	0.0002	0.00016	5
21095	0.00028	0.00011	-0.00018	-0.00082	0.00053	0.0005	0.0002	0.00016	5
21096	0.00028	0.00011	-0.00018	-0.00082	0.00053	0.0005	0.0002	0.00016	5
21097	0.00028	0.00011	-0.00018	-0.00082	0.00053	0.0005	0.0002	0.00016	5
21098	0.00028	0.00011	-0.00018	-0.00082	0.00053	0.0005	0.0002	0.00016	5
21099	0.00028	0.00011	-0.00018	-0.00082	0.00053	0.0005	0.0002	0.00016	5
21100	0.00028	0.00011	-0.00018	-0.00082	0.00053	0.0005	0.0002	0.00016	5
21101	0.00028	0.00011	-0.00018	-0.00082	0.00053	0.0005	0.0002	0.00016	5
21102	0.00028	0.00011	-0.00018	-0.00082	0.00053	0.0005	0.0002	0.00016	5
21103	0.00028	0.00011	-0.00018	-0.00082	0.00053	0.0005	0.0002	0.00016	5
21104	0.00028	0.00011	-0.00018	-0.00082	0.00053	0.0005	0.0002	0.00016	5
21105	-2e-05	-0.00018	-0.00079	-0.0006	0.00059	0.00022	-0.00013	-8e-05	5
21106	-2e-05	-0.00018	-0.00079	-0.0006	0.00059	0.00022	-0.00013	-8e-05	5
21107	9e-05	-0.0001	-0.00017	-0.00056	-0.00043	-0.00034	-8e-05	-1e-05	5
21108	9e-05	-0.0001	-0.00017	-0.00056	-0.00043	-0.00034	-8e-05	-1e-05	5
21109	9e-05	-0.0001	-0.00017	-0.00056	-0.00043	-0.00034	-8e-05	-1e-05	5
21110	9e-05	-0.0001	-0.00017	-0.00056	-0.00043	-0.00034	-8e-05	-1e-05	5
21111	9e-05	-0.0001	-0.00017	-0.00056	-0.00043	-0.00034	-8e-05	-1e-05	5
21112	9e-05	-0.0001	-0.00017	-0.00056	-0.00043	-0.00034	-8e-05	-1e-05	5
21113	9e-05	-0.0001	-0.00017	-0.00056	-0.00043	-0.00034	-8e-05	-1e-05	5
21114	9e-05	-0.0001	-0.00017	-0.00056	-0.00043	-0.00034	-8e-05	-1e-05	5
21115	9e-05	-0.0001	-0.00017	-0.00056	-0.00043	-0.00034	-8e-05	-1e-05	5
21116	9e-05	-0.0001	-0.00017	-0.00056	-0.00043	-0.00034	-8e-05	-1e-05	5
21117	9e-05	-0.0001	-0.00017	-0.00056	-0.00043	-0.00034	-8e-05	-1e-05	5
21118	9e-05	-0.0001	-0.00017	-0.00056	-0.00043	-0.00034	-8e-05	-1e-05	5
21119	9e-05	-0.0001	-0.00017	-0.00056	-0.00043	-0.00034	-8e-05	-1e-05	5
21120	9e-05	-0.0001	-0.00017	-0.00056	-0.00043	-0.00034	-8e-05	-1e-05	5
21121	9e-05	-0.0001	-0.00017	-0.00056	-0.00043	-0.00034	-8e-05	-1e-05	5
21122	9e-05	-0.0001	-0.00017	-0.00056	-0.00043	-0.00034	-8e-05	-1e-05	5
21123	9e-05	-0.0001	-0.00017	-0.00056	-0.00043	-0.00034	-8e-05	-1e-05	5
21124	9e-05	-0.0001	-0.00017	-0.00056	-0.00043	-0.00034	-8e-05	-1e-05	5
21125	9e-05	-0.0001	-0.00017	-0.00056	-0.00043	-0.00034	-8e-05	-1e-05	5
21126	9e-05	-0.0001	-0.00017	-0.00056	-0.00043	-0.00034	-8e-05	-1e-05	5
21127	-0.00038	-4e-05	-0.00029	0.00048	0.00029	0.00029	1e-05	-4e-05	5
21128	3e-05	0.00014	-9e-05	-0.00031	-6e-05	-0.0004	-1e-05	0	5
21129	0.00013	-0.00019	-0.00051	-0.00033	-6e-05	0.00011	-0.00011	-3e-05	5
21130	0.00013	-0.00019	-0.00051	-0.00033	-6e-05	0.00011	-0.00011	-3e-05	5
21131	0.00013	-0.00019	-0.00051	-0.00033	-6e-05	0.00011	-0.00011	-3e-05	5
21132	0.00013	-0.00019	-0.00051	-0.00033	-6e-05	0.00011	-0.00011	-3e-05	5
21133	0.00013	-0.00019	-0.00051	-0.00033	-6e-05	0.00011	-0.00011	-3e-05	5
21134	0.00013	-0.00019	-0.00051	-0.00033	-6e-05	0.00011	-0.00011	-3e-05	5
21135	0.00013	-0.00019	-0.00051	-0.00033	-6e-05	0.00011	-0.00011	-3e-05	5
21136	0.00013	-0.00019	-0.00051	-0.00033	-6e-05	0.00011	-0.00011	-3e-05	5
21138	0.00013	-0.00019	-0.00051	-0.00033	-6e-05	0.00011	-0.00011	-3e-05	5
21139	0.00013	-0.00019	-0.00051	-0.00033	-6e-05	0.00011	-0.00011	-3e-05	5
21140	0.00013	-0.00019	-0.00051	-0.00033	-6e-05	0.00011	-0.00011	-3e-05	5
21141	0.00013	-0.00019	-0.00051	-0.00033	-6e-05	0.00011	-0.00011	-3e-05	5
21142	-0.00011	-0.00026	-0.00066	0.00055	0.00036	-2e-05	-7e-05	-2e-05	5
21143	-0.00011	-0.00026	-0.00066	0.00055	0.00036	-2e-05	-7e-05	-2e-05	5
21144	-0.00011	-0.00026	-0.00066	0.00055	0.00036	-2e-05	-7e-05	-2e-05	5
21145	-0.00011	-0.00026	-0.00066	0.00055	0.00036	-2e-05	-7e-05	-2e-05	5
21146	-0.00011	-0.00026	-0.00066	0.00055	0.00036	-2e-05	-7e-05	-2e-05	5
21147	-0.00011	-0.00026	-0.00066	0.00055	0.00036	-2e-05	-7e-05	-2e-05	5
21148	-0.00011	-0.00026	-0.00066	0.00055	0.00036	-2e-05	-7e-05	-2e-05	5
21149	-0.00011	-0.00026	-0.00066	0.00055	0.00036	-2e-05	-7e-05	-2e-05	5
21150	-0.00011	-0.00026	-0.00066	0.00055	0.00036	-2e-05	-7e-05	-2e-05	5
21151	-0.00011	-0.00026	-0.00066	0.00055	0.00036	-2e-05	-7e-05	-2e-05	5
21152	-0.00011	-0.00026	-0.00066	0.00055	0.00036	-2e-05	-7e-05	-2e-05	5
21153	-0.00011	-0.00026	-0.00066	0.00055	0.00036	-2e-05	-7e-05	-2e-05	5
21154	-0.00011	-0.00026	-0.00066	0.00055	0.00036	-2e-05	-7e-05	-2e-05	5
21155	-0.00011	-0.00026	-0.00066	0.00055	0.00036	-2e-05	-7e-05	-2e-05	5
21156	0.0001	0.00035	0.0007	-0.00031	7e-05	-0.00025	-1e-05	6e-05	5
21157	0.0001	0.00035	0.0007	-0.00031	7e-05	-0.00025	-1e-05	6e-05	5
21158	0.0001	0.00035	0.0007	-0.00031	7e-05	-0.00025	-1e-05	6e-05	5
21159	0.0001	0.00035	0.0007	-0.00031	7e-05	-0.00025	-1e-05	6e-05	5
21160	0.0001	0.00035	0.0007	-0.00031	7e-05	-0.00025	-1e-05	6e-05	5
21161	0.0001	0.00035	0.0007	-0.00031	7e-05	-0.00025	-1e-05	6e-05	5
21162	0.0001	0.00035	0.0007	-0.00031	7e-05	-0.00025	-1e-05	6e-05	5
21163	0.0001	0.00035	0.0007	-0.00031	7e-05	-0.00025	-1e-05	6e-05	5
21164	0.0001	0.00035	0.0007	-0.00031	7e-05	-0.00025	-1e-05	6e-05	5
21165	-6e-05	0.00028	-5e-05	0.00066	0.00101	0.00037	0.00012	1e-05	5
21166	-6e-05	0.00028	-5e-05	0.00066	0.00101	0.00037	0.00012	1e-05	5
21167	-0.00011	0.0002	-0.00018	0.00044	0.00017	0.00017	-6e-05	-8e-05	5
21168	-0.00011	0.0002	-0.00018	0.00044	0.00017	0.00017	-6e-05	-8e-05	5
21169	-0.00011	0.0002	-0.00018	0.00044	0.00017	0.00017	-6e-05	-8e-05	5
21170	-0.00011	0.0002	-0.00018	0.00044	0.00017	0.00017	-6e-05	-8e-05	5
21171	-0.00011	0.0002	-0.00018	0.00044	0.00017	0.00017	-6e-05	-8e-05	5
21172	-0.00011	0.0002	-0.00018	0.00044	0.00017	0.00017	-6e-05	-8e-05	5
21173	-0.00011	0.0002	-0.00018	0.00044	0.00017	0.00017	-6e-05	-8e-05	5
21174	-0.00011	0.0002	-0.00018	0.00044	0.00017	0.00017	-6e-05	-8e-05	5
21175	-0.00011	0.0002	-0.00018	0.00044	0.00017	0.00017	-6e-05	-8e-05	5
21176	-0.00011	0.0002	-0.00018	0.00044	0.00017	0.00017	-6e-05	-8e-05	5
21177	-0.00011	0.0002	-0.00018	0.00044	0.00017	0.00017	-6e-05	-8e-05	5
21178	-0.00011	0.0002	-0.00018	0.00044	0.00017	0.00017	-6e-05	-8e-05	5
21179	-0.00011	0.0002	-0.00018	0.00044	0.00017	0.00017	-6e-05	-8e-05	5
21180	-0.00011	0.0002	-0.00018	0.00044	0.00017	0.00017	-6e-05	-8e-05	5
21181	-0.00011	0.0002	-0.00018	0.00044	0.00017	0.00017	-6e-05	-8e-05	5
21182	-0.00011	0.0002	-0.00018	0.00044	0.00017	0.00017	-6e-05	-8e-05	5
21183	-0.00011	0.0002	-0.00018	0.00044	0.00017	0.00017	-6e-05	-8e-05	5
21184	-0.00011	0.0002	-0.00018	0.00044	0.00017	0.00017	-6e-05	-8e-05	5
21185	-0.00011	0.0002	-0.00018	0.00044	0.00017	0.00017	-6e-05	-8e-05	5
21186	-0.00011	0.0002	-0.00018	0.00044	0.00017	0.00017	-6e-05	-8e-05	5
21188	9e-05	-0.00024	0.00011	0.00069	0.00018	0.00015	-0.0001	-1e-05	5
21189	-8e-05	2e-05	0.00052	0.00121	0.00108	0.00012	7e-05	2e-05	5
21190	-8e-05	2e-05	0.00052	0.00121	0.00108	0.00012	7e-05	2e-05	5
21191	-8e-05	2e-05	0.00052	0.00121	0.00108	0.00012	7e-05	2e-05	5
21192	-8e-05	2e-05	0.00052	0.00121	0.00108	0.00012	7e-05	2e-05	5
21193	-8e-05	2e-05	0.00052	0.00121	0.00108	0.00012	7e-05	2e-05	5
21194	-8e-05	2e-05	0.00052	0.00121	0.00108	0.00012	7e-05	2e-05	5
21195	-8e-05	2e-05	0.00052	0.00121	0.00108	0.00012	7e-05	2e-05	5
21196	-8e-05	2e-05	0.00052	0.00121	0.00108	0.00012	7e-05	2e-05	5
21197	-8e-05	2e-05	0.00052	0.00121	0.00108	0.00012	7e-05	2e-05	5
21198	-8e-05	2e-05	0.00052	0.00121	0.00108	0.00012	7e-05	2e-05	5
21199	-8e-05	2e-05	0.00052	0.00121	0.00108	0.00012	7e-05	2e-05	5
21200	-8e-05	2e-05	0.00052	0.00121	0.00108	0.00012	7e-05	2e-05	5
21201	-8e-05	2e-05	0.00052	0.00121	0.00108	0.00012	7e-05	2e-05	5
21202	-8e-05	2e-05	0.00052	0.00121	0.00108	0.00012	7e-05	2e-05	5
21203	-0.00016	-0.0003	-0.00036	-0.0008	-0.00098	2e-05	-0.00022	-0.00011	5
21204	-0.00016	-0.0003	-0.00036	-0.0008	-0.00098	2e-05	-0.00022	-0.00011	5
21205	-0.00016	-0.0003	-0.00036	-0.0008	-0.00098	2e-05	-0.00022	-0.00011	5
21206	-0.00016	-0.0003	-0.00036	-0.0008	-0.00098	2e-05	-0.00022	-0.00011	5
21207	-0.00016	-0.0003	-0.00036	-0.0008	-0.00098	2e-05	-0.00022	-0.00011	5
21208	-0.00016	-0.0003	-0.00036	-0.0008	-0.00098	2e-05	-0.00022	-0.00011	5
21209	-0.00016	-0.0003	-0.00036	-0.0008	-0.00098	2e-05	-0.00022	-0.00011	5
21210	-9e-05	-0.0003	-0.00031	0.00032	-0.00051	-0.00019	9e-05	2e-05	5
21211	-9e-05	-0.0003	-0.00031	0.00032	-0.00051	-0.00019	9e-05	2e-05	5
21212	-9e-05	-0.0003	-0.00031	0.00032	-0.00051	-0.00019	9e-05	2e-05	5
21213	-9e-05	-0.0003	-0.00031	0.00032	-0.00051	-0.00019	9e-05	2e-05	5
21214	-9e-05	-0.0003	-0.00031	0.00032	-0.00051	-0.00019	9e-05	2e-05	5
21215	-9e-05	-0.0003	-0.00031	0.00032	-0.00051	-0.00019	9e-05	2e-05	5
21216	-9e-05	-0.0003	-0.00031	0.00032	-0.00051	-0.00019	9e-05	2e-05	5
21217	-9e-05	-0.0003	-0.00031	0.00032	-0.00051	-0.00019	9e-05	2e-05	5
21218	-9e-05	-0.0003	-0.00031	0.00032	-0.00051	-0.00019	9e-05	2e-05	5
21219	-9e-05	-0.0003	-0.00031	0.00032	-0.00051	-0.00019	9e-05	2e-05	5
21220	-9e-05	-0.0003	-0.00031	0.00032	-0.00051	-0.00019	9e-05	2e-05	5
21221	-9e-05	-0.0003	-0.00031	0.00032	-0.00051	-0.00019	9e-05	2e-05	5
21222	-9e-05	-0.0003	-0.00031	0.00032	-0.00051	-0.00019	9e-05	2e-05	5
21223	-9e-05	-0.0003	-0.00031	0.00032	-0.00051	-0.00019	9e-05	2e-05	5
21224	-9e-05	-0.0003	-0.00031	0.00032	-0.00051	-0.00019	9e-05	2e-05	5
21225	-9e-05	-0.0003	-0.00031	0.00032	-0.00051	-0.00019	9e-05	2e-05	5
21226	-9e-05	-0.0003	-0.00031	0.00032	-0.00051	-0.00019	9e-05	2e-05	5
21227	-9e-05	-0.0003	-0.00031	0.00032	-0.00051	-0.00019	9e-05	2e-05	5
21228	-9e-05	-0.0003	-0.00031	0.00032	-0.00051	-0.00019	9e-05	2e-05	5
21229	-9e-05	-0.0003	-0.00031	0.00032	-0.00051	-0.00019	9e-05	2e-05	5
21230	-9e-05	-0.0003	-0.00031	0.00032	-0.00051	-0.00019	9e-05	2e-05	5
21231	-9e-05	-0.0003	-0.00031	0.00032	-0.00051	-0.00019	9e-05	2e-05	5
21232	0.0003	0.00014	0.00109	0.00127	-0.00094	-0.0005	0.00015	8e-05	5
21233	0.0003	0.00014	0.00109	0.00127	-0.00094	-0.0005	0.00015	8e-05	5
21234	-2e-05	-0.00019	6e-05	0.00034	0.00075	-3e-05	4e-05	0	5
21235	-2e-05	-0.00019	6e-05	0.00034	0.00075	-3e-05	4e-05	0	5
21236	-2e-05	-0.00019	6e-05	0.00034	0.00075	-3e-05	4e-05	0	5
21238	-2e-05	-0.00019	6e-05	0.00034	0.00075	-3e-05	4e-05	0	5
21239	-2e-05	-0.00019	6e-05	0.00034	0.00075	-3e-05	4e-05	0	5
21240	-2e-05	-0.00019	6e-05	0.00034	0.00075	-3e-05	4e-05	0	5
21241	-2e-05	-0.00019	6e-05	0.00034	0.00075	-3e-05	4e-05	0	5
21242	-2e-05	-0.00019	6e-05	0.00034	0.00075	-3e-05	4e-05	0	5
21243	-2e-05	-0.00019	6e-05	0.00034	0.00075	-3e-05	4e-05	0	5
21244	-2e-05	-0.00019	6e-05	0.00034	0.00075	-3e-05	4e-05	0	5
21245	-2e-05	-0.00019	6e-05	0.00034	0.00075	-3e-05	4e-05	0	5
21246	-2e-05	-0.00019	6e-05	0.00034	0.00075	-3e-05	4e-05	0	5
21247	0.0001	0.00025	0.00029	7e-05	0.00043	-0.00032	-3e-05	2e-05	5
21248	0.00018	-6e-05	0.00042	0.00028	-0.00096	-0.00014	-8e-05	2e-05	5
21249	5e-05	4e-05	-0.0004	-0.00097	-0.00032	-0.00037	5e-05	-5e-05	5
21250	5e-05	4e-05	-0.0004	-0.00097	-0.00032	-0.00037	5e-05	-5e-05	5
21251	5e-05	4e-05	-0.0004	-0.00097	-0.00032	-0.00037	5e-05	-5e-05	5
21252	5e-05	4e-05	-0.0004	-0.00097	-0.00032	-0.00037	5e-05	-5e-05	5
21253	5e-05	4e-05	-0.0004	-0.00097	-0.00032	-0.00037	5e-05	-5e-05	5
21254	5e-05	4e-05	-0.0004	-0.00097	-0.00032	-0.00037	5e-05	-5e-05	5
21255	5e-05	4e-05	-0.0004	-0.00097	-0.00032	-0.00037	5e-05	-5e-05	5
21256	5e-05	4e-05	-0.0004	-0.00097	-0.00032	-0.00037	5e-05	-5e-05	5
21257	5e-05	4e-05	-0.0004	-0.00097	-0.00032	-0.00037	5e-05	-5e-05	5
21258	5e-05	4e-05	-0.0004	-0.00097	-0.00032	-0.00037	5e-05	-5e-05	5
21259	5e-05	4e-05	-0.0004	-0.00097	-0.00032	-0.00037	5e-05	-5e-05	5
21260	5e-05	4e-05	-0.0004	-0.00097	-0.00032	-0.00037	5e-05	-5e-05	5
21261	5e-05	4e-05	-0.0004	-0.00097	-0.00032	-0.00037	5e-05	-5e-05	5
21262	5e-05	4e-05	-0.0004	-0.00097	-0.00032	-0.00037	5e-05	-5e-05	5
21263	5e-05	4e-05	-0.0004	-0.00097	-0.00032	-0.00037	5e-05	-5e-05	5
21264	5e-05	4e-05	-0.0004	-0.00097	-0.00032	-0.00037	5e-05	-5e-05	5
21265	5e-05	4e-05	-0.0004	-0.00097	-0.00032	-0.00037	5e-05	-5e-05	5
21266	5e-05	4e-05	-0.0004	-0.00097	-0.00032	-0.00037	5e-05	-5e-05	5
21267	5e-05	4e-05	-0.0004	-0.00097	-0.00032	-0.00037	5e-05	-5e-05	5
21268	5e-05	4e-05	-0.0004	-0.00097	-0.00032	-0.00037	5e-05	-5e-05	5
21269	5e-05	4e-05	-0.0004	-0.00097	-0.00032	-0.00037	5e-05	-5e-05	5
21270	9e-05	0.00028	9e-05	-0.00015	0.00089	0.00032	0.00012	4e-05	5
21271	5e-05	9e-05	0.0001	0.00047	-0.00027	0	-0.00013	1e-05	5
21272	-0.00014	-0.00014	-7e-05	-0.00019	-0.00015	0.00016	-0.00013	-6e-05	5
21273	-0.00014	-0.00014	-7e-05	-0.00019	-0.00015	0.00016	-0.00013	-6e-05	5
21274	-0.00014	-0.00014	-7e-05	-0.00019	-0.00015	0.00016	-0.00013	-6e-05	5
21275	-0.00014	-0.00014	-7e-05	-0.00019	-0.00015	0.00016	-0.00013	-6e-05	5
21276	-0.00014	-0.00014	-7e-05	-0.00019	-0.00015	0.00016	-0.00013	-6e-05	5
21277	-0.00014	-0.00014	-7e-05	-0.00019	-0.00015	0.00016	-0.00013	-6e-05	5
21278	-0.00014	-0.00014	-7e-05	-0.00019	-0.00015	0.00016	-0.00013	-6e-05	5
21279	-0.00014	-0.00014	-7e-05	-0.00019	-0.00015	0.00016	-0.00013	-6e-05	5
21280	-0.00014	-0.00014	-7e-05	-0.00019	-0.00015	0.00016	-0.00013	-6e-05	5
21281	-0.00014	-0.00014	-7e-05	-0.00019	-0.00015	0.00016	-0.00013	-6e-05	5
21282	-0.00014	-0.00014	-7e-05	-0.00019	-0.00015	0.00016	-0.00013	-6e-05	5
21283	-0.00014	-0.00014	-7e-05	-0.00019	-0.00015	0.00016	-0.00013	-6e-05	5
21284	-0.00014	-0.00014	-7e-05	-0.00019	-0.00015	0.00016	-0.00013	-6e-05	5
21285	-3e-05	0.00041	-0.00031	-0.00058	-0.00054	-0.00036	7e-05	-7e-05	5
21286	-0.00014	-0.00026	-0.00043	-0.0008	-0.00014	3e-05	-4e-05	-2e-05	5
21288	-0.00013	0.00022	0.00017	-5e-05	-0.00088	2e-05	-8e-05	-5e-05	5
21289	-0.00013	0.00022	0.00017	-5e-05	-0.00088	2e-05	-8e-05	-5e-05	5
21290	-0.00013	0.00022	0.00017	-5e-05	-0.00088	2e-05	-8e-05	-5e-05	5
21291	-0.00013	0.00022	0.00017	-5e-05	-0.00088	2e-05	-8e-05	-5e-05	5
21292	-0.00013	0.00022	0.00017	-5e-05	-0.00088	2e-05	-8e-05	-5e-05	5
21293	-0.00013	0.00022	0.00017	-5e-05	-0.00088	2e-05	-8e-05	-5e-05	5
21294	-0.00013	0.00022	0.00017	-5e-05	-0.00088	2e-05	-8e-05	-5e-05	5
21295	-0.00013	0.00022	0.00017	-5e-05	-0.00088	2e-05	-8e-05	-5e-05	5
21296	-0.00013	0.00022	0.00017	-5e-05	-0.00088	2e-05	-8e-05	-5e-05	5
21297	-0.00013	0.00022	0.00017	-5e-05	-0.00088	2e-05	-8e-05	-5e-05	5
21298	-0.00013	0.00022	0.00017	-5e-05	-0.00088	2e-05	-8e-05	-5e-05	5
21299	-0.00013	0.00022	0.00017	-5e-05	-0.00088	2e-05	-8e-05	-5e-05	5
21300	-0.00013	0.00022	0.00017	-5e-05	-0.00088	2e-05	-8e-05	-5e-05	5
21301	-0.00013	0.00022	0.00017	-5e-05	-0.00088	2e-05	-8e-05	-5e-05	5
21302	-0.00013	0.00022	0.00017	-5e-05	-0.00088	2e-05	-8e-05	-5e-05	5
21303	-0.00013	0.00022	0.00017	-5e-05	-0.00088	2e-05	-8e-05	-5e-05	5
21304	-0.00013	0.00022	0.00017	-5e-05	-0.00088	2e-05	-8e-05	-5e-05	5
21305	-0.00013	0.00022	0.00017	-5e-05	-0.00088	2e-05	-8e-05	-5e-05	5
21306	-0.00013	0.00022	0.00017	-5e-05	-0.00088	2e-05	-8e-05	-5e-05	5
21307	4e-05	6e-05	-0.00017	-0.0009	-0.00024	-0.00036	3e-05	2e-05	5
21308	9e-05	0.00029	0.00035	-0.00017	0.00042	0.00022	2e-05	-1e-05	5
21309	-0.0002	0.00015	-0.00031	-0.00062	-7e-05	-0.00067	-0.00018	-0.00013	5
21310	-0.0002	0.00015	-0.00031	-0.00062	-7e-05	-0.00067	-0.00018	-0.00013	5
21311	-0.0002	0.00015	-0.00031	-0.00062	-7e-05	-0.00067	-0.00018	-0.00013	5
21312	-0.0002	0.00015	-0.00031	-0.00062	-7e-05	-0.00067	-0.00018	-0.00013	5
21313	-0.0002	0.00015	-0.00031	-0.00062	-7e-05	-0.00067	-0.00018	-0.00013	5
21314	-0.0002	0.00015	-0.00031	-0.00062	-7e-05	-0.00067	-0.00018	-0.00013	5
21315	-0.0002	0.00015	-0.00031	-0.00062	-7e-05	-0.00067	-0.00018	-0.00013	5
21316	-0.0002	0.00015	-0.00031	-0.00062	-7e-05	-0.00067	-0.00018	-0.00013	5
21317	-0.0002	0.00015	-0.00031	-0.00062	-7e-05	-0.00067	-0.00018	-0.00013	5
21318	-0.0002	0.00015	-0.00031	-0.00062	-7e-05	-0.00067	-0.00018	-0.00013	5
21319	-0.0002	0.00015	-0.00031	-0.00062	-7e-05	-0.00067	-0.00018	-0.00013	5
21320	-0.0002	0.00015	-0.00031	-0.00062	-7e-05	-0.00067	-0.00018	-0.00013	5
21321	-0.0002	0.00015	-0.00031	-0.00062	-7e-05	-0.00067	-0.00018	-0.00013	5
21322	-0.00021	-0.00033	-2e-05	-0.00037	-0.00063	-0.0001	-3e-05	-1e-05	5
21323	-0.00021	-0.00033	-2e-05	-0.00037	-0.00063	-0.0001	-3e-05	-1e-05	5
21324	-0.00021	-0.00033	-2e-05	-0.00037	-0.00063	-0.0001	-3e-05	-1e-05	5
21325	-0.00021	-0.00033	-2e-05	-0.00037	-0.00063	-0.0001	-3e-05	-1e-05	5
21326	-0.00021	-0.00033	-2e-05	-0.00037	-0.00063	-0.0001	-3e-05	-1e-05	5
21327	-0.00021	-0.00033	-2e-05	-0.00037	-0.00063	-0.0001	-3e-05	-1e-05	5
21328	-0.00021	-0.00033	-2e-05	-0.00037	-0.00063	-0.0001	-3e-05	-1e-05	5
21329	-8e-05	-0.00025	-0.00064	-0.00039	-0.00039	-5e-05	-0.00016	-0.0001	5
21330	-8e-05	-0.00025	-0.00064	-0.00039	-0.00039	-5e-05	-0.00016	-0.0001	5
21331	-8e-05	-0.00025	-0.00064	-0.00039	-0.00039	-5e-05	-0.00016	-0.0001	5
21332	-8e-05	-0.00025	-0.00064	-0.00039	-0.00039	-5e-05	-0.00016	-0.0001	5
21333	-8e-05	-0.00025	-0.00064	-0.00039	-0.00039	-5e-05	-0.00016	-0.0001	5
21334	-8e-05	-0.00025	-0.00064	-0.00039	-0.00039	-5e-05	-0.00016	-0.0001	5
21335	-8e-05	-0.00025	-0.00064	-0.00039	-0.00039	-5e-05	-0.00016	-0.0001	5
21336	-8e-05	-0.00025	-0.00064	-0.00039	-0.00039	-5e-05	-0.00016	-0.0001	5
21338	-8e-05	-0.00025	-0.00064	-0.00039	-0.00039	-5e-05	-0.00016	-0.0001	5
21339	-8e-05	-0.00025	-0.00064	-0.00039	-0.00039	-5e-05	-0.00016	-0.0001	5
21340	-8e-05	-0.00025	-0.00064	-0.00039	-0.00039	-5e-05	-0.00016	-0.0001	5
21341	-8e-05	-0.00025	-0.00064	-0.00039	-0.00039	-5e-05	-0.00016	-0.0001	5
21342	-8e-05	-0.00025	-0.00064	-0.00039	-0.00039	-5e-05	-0.00016	-0.0001	5
21343	-8e-05	-0.00025	-0.00064	-0.00039	-0.00039	-5e-05	-0.00016	-0.0001	5
21344	-8e-05	-0.00025	-0.00064	-0.00039	-0.00039	-5e-05	-0.00016	-0.0001	5
21345	-9e-05	4e-05	-0.00048	-0.00101	-0.00029	-3e-05	2e-05	-4e-05	5
21346	-9e-05	4e-05	-0.00048	-0.00101	-0.00029	-3e-05	2e-05	-4e-05	5
21347	0.00016	0.00014	0.00052	0.00062	0.00031	0.00025	0.00011	7e-05	5
21348	0.00016	0.00014	0.00052	0.00062	0.00031	0.00025	0.00011	7e-05	5
21349	0.00016	0.00014	0.00052	0.00062	0.00031	0.00025	0.00011	7e-05	5
21350	0.00016	0.00014	0.00052	0.00062	0.00031	0.00025	0.00011	7e-05	5
21351	0.00016	0.00014	0.00052	0.00062	0.00031	0.00025	0.00011	7e-05	5
21352	0.00016	0.00014	0.00052	0.00062	0.00031	0.00025	0.00011	7e-05	5
21353	0.00016	0.00014	0.00052	0.00062	0.00031	0.00025	0.00011	7e-05	5
21354	0.00016	0.00014	0.00052	0.00062	0.00031	0.00025	0.00011	7e-05	5
21355	0.00016	0.00014	0.00052	0.00062	0.00031	0.00025	0.00011	7e-05	5
21356	0.00016	0.00014	0.00052	0.00062	0.00031	0.00025	0.00011	7e-05	5
21357	0.00016	0.00014	0.00052	0.00062	0.00031	0.00025	0.00011	7e-05	5
21358	0.00016	0.00014	0.00052	0.00062	0.00031	0.00025	0.00011	7e-05	5
21359	0.00016	0.00014	0.00052	0.00062	0.00031	0.00025	0.00011	7e-05	5
21360	0.00016	0.00014	0.00052	0.00062	0.00031	0.00025	0.00011	7e-05	5
21361	0.00016	0.00014	0.00052	0.00062	0.00031	0.00025	0.00011	7e-05	5
21362	0.00016	0.00014	0.00052	0.00062	0.00031	0.00025	0.00011	7e-05	5
21363	0.00016	0.00014	0.00052	0.00062	0.00031	0.00025	0.00011	7e-05	5
21364	0.00016	0.00014	0.00052	0.00062	0.00031	0.00025	0.00011	7e-05	5
21365	0.00016	0.00014	0.00052	0.00062	0.00031	0.00025	0.00011	7e-05	5
21366	0.00016	0.00014	0.00052	0.00062	0.00031	0.00025	0.00011	7e-05	5
21367	0.00016	0.00014	0.00052	0.00062	0.00031	0.00025	0.00011	7e-05	5
21368	-8e-05	0.00018	7e-05	0.00028	-0.00058	-3e-05	-6e-05	-2e-05	5
21369	0.00018	-0.00016	0.00011	-4e-05	-0.00021	-4e-05	0	3e-05	5
21370	0.00018	-0.00016	0.00011	-4e-05	-0.00021	-4e-05	0	3e-05	5
21371	0.00018	-0.00016	0.00011	-4e-05	-0.00021	-4e-05	0	3e-05	5
21372	0.00018	-0.00016	0.00011	-4e-05	-0.00021	-4e-05	0	3e-05	5
21373	0.00018	-0.00016	0.00011	-4e-05	-0.00021	-4e-05	0	3e-05	5
21374	0.00018	-0.00016	0.00011	-4e-05	-0.00021	-4e-05	0	3e-05	5
21375	0.00018	-0.00016	0.00011	-4e-05	-0.00021	-4e-05	0	3e-05	5
21376	0.00018	-0.00016	0.00011	-4e-05	-0.00021	-4e-05	0	3e-05	5
21377	0.00018	-0.00016	0.00011	-4e-05	-0.00021	-4e-05	0	3e-05	5
21378	0.00018	-0.00016	0.00011	-4e-05	-0.00021	-4e-05	0	3e-05	5
21379	0.00018	-0.00016	0.00011	-4e-05	-0.00021	-4e-05	0	3e-05	5
21380	0.00018	-0.00016	0.00011	-4e-05	-0.00021	-4e-05	0	3e-05	5
21381	0.00018	-0.00016	0.00011	-4e-05	-0.00021	-4e-05	0	3e-05	5
21382	3e-05	0.00017	0.0001	-0.00012	-0.0005	-0.00063	2e-05	2e-05	5
21383	3e-05	0.00017	0.0001	-0.00012	-0.0005	-0.00063	2e-05	2e-05	5
21384	3e-05	0.00017	0.0001	-0.00012	-0.0005	-0.00063	2e-05	2e-05	5
21385	3e-05	0.00017	0.0001	-0.00012	-0.0005	-0.00063	2e-05	2e-05	5
21386	3e-05	0.00017	0.0001	-0.00012	-0.0005	-0.00063	2e-05	2e-05	5
21388	3e-05	0.00017	0.0001	-0.00012	-0.0005	-0.00063	2e-05	2e-05	5
21389	-0.00013	0.0002	0.00023	0.00029	0.00021	0.00024	3e-05	-3e-05	5
21390	-0.00013	0.0002	0.00023	0.00029	0.00021	0.00024	3e-05	-3e-05	5
21391	-0.00013	0.0002	0.00023	0.00029	0.00021	0.00024	3e-05	-3e-05	5
21392	-0.00013	0.0002	0.00023	0.00029	0.00021	0.00024	3e-05	-3e-05	5
21393	-0.00013	0.0002	0.00023	0.00029	0.00021	0.00024	3e-05	-3e-05	5
21394	-0.00013	0.0002	0.00023	0.00029	0.00021	0.00024	3e-05	-3e-05	5
21395	-0.00013	0.0002	0.00023	0.00029	0.00021	0.00024	3e-05	-3e-05	5
21396	-0.00013	0.0002	0.00023	0.00029	0.00021	0.00024	3e-05	-3e-05	5
21397	-0.00013	0.0002	0.00023	0.00029	0.00021	0.00024	3e-05	-3e-05	5
21398	-0.00013	0.0002	0.00023	0.00029	0.00021	0.00024	3e-05	-3e-05	5
21399	-0.00013	0.0002	0.00023	0.00029	0.00021	0.00024	3e-05	-3e-05	5
21400	-0.00013	0.0002	0.00023	0.00029	0.00021	0.00024	3e-05	-3e-05	5
21401	-0.00013	0.0002	0.00023	0.00029	0.00021	0.00024	3e-05	-3e-05	5
21402	-0.00013	0.0002	0.00023	0.00029	0.00021	0.00024	3e-05	-3e-05	5
21403	-0.00013	0.0002	0.00023	0.00029	0.00021	0.00024	3e-05	-3e-05	5
21404	-0.00013	0.0002	0.00023	0.00029	0.00021	0.00024	3e-05	-3e-05	5
21405	0.00013	-0.00011	0.00021	0.00017	-0.00016	-0.0002	-2e-05	3e-05	5
21406	0.00013	-0.00011	0.00021	0.00017	-0.00016	-0.0002	-2e-05	3e-05	5
21407	0.00043	-0.0002	-0.0002	0.00027	0.00018	8e-05	8e-05	9e-05	5
21408	0.00043	-0.0002	-0.0002	0.00027	0.00018	8e-05	8e-05	9e-05	5
21409	0.00043	-0.0002	-0.0002	0.00027	0.00018	8e-05	8e-05	9e-05	5
21410	0.00043	-0.0002	-0.0002	0.00027	0.00018	8e-05	8e-05	9e-05	5
21411	0.00043	-0.0002	-0.0002	0.00027	0.00018	8e-05	8e-05	9e-05	5
21412	0.00043	-0.0002	-0.0002	0.00027	0.00018	8e-05	8e-05	9e-05	5
21413	0.00043	-0.0002	-0.0002	0.00027	0.00018	8e-05	8e-05	9e-05	5
21414	0.00043	-0.0002	-0.0002	0.00027	0.00018	8e-05	8e-05	9e-05	5
21415	0.00043	-0.0002	-0.0002	0.00027	0.00018	8e-05	8e-05	9e-05	5
21416	0.00043	-0.0002	-0.0002	0.00027	0.00018	8e-05	8e-05	9e-05	5
21417	0.00043	-0.0002	-0.0002	0.00027	0.00018	8e-05	8e-05	9e-05	5
21418	0.00043	-0.0002	-0.0002	0.00027	0.00018	8e-05	8e-05	9e-05	5
21419	0.00043	-0.0002	-0.0002	0.00027	0.00018	8e-05	8e-05	9e-05	5
21420	0.00043	-0.0002	-0.0002	0.00027	0.00018	8e-05	8e-05	9e-05	5
21421	0.00043	-0.0002	-0.0002	0.00027	0.00018	8e-05	8e-05	9e-05	5
21422	0.00043	-0.0002	-0.0002	0.00027	0.00018	8e-05	8e-05	9e-05	5
21423	0.00043	-0.0002	-0.0002	0.00027	0.00018	8e-05	8e-05	9e-05	5
21424	0.00043	-0.0002	-0.0002	0.00027	0.00018	8e-05	8e-05	9e-05	5
21425	0.00043	-0.0002	-0.0002	0.00027	0.00018	8e-05	8e-05	9e-05	5
21426	0.00043	-0.0002	-0.0002	0.00027	0.00018	8e-05	8e-05	9e-05	5
21427	0.00043	-0.0002	-0.0002	0.00027	0.00018	8e-05	8e-05	9e-05	5
21428	0.00043	-0.0002	-0.0002	0.00027	0.00018	8e-05	8e-05	9e-05	5
21429	0.00043	-0.0002	-0.0002	0.00027	0.00018	8e-05	8e-05	9e-05	5
21430	0.00043	-0.0002	-0.0002	0.00027	0.00018	8e-05	8e-05	9e-05	5
21431	0.00043	-0.0002	-0.0002	0.00027	0.00018	8e-05	8e-05	9e-05	5
21432	0.00043	-0.0002	-0.0002	0.00027	0.00018	8e-05	8e-05	9e-05	5
21433	0.00043	-0.0002	-0.0002	0.00027	0.00018	8e-05	8e-05	9e-05	5
21434	0.00043	-0.0002	-0.0002	0.00027	0.00018	8e-05	8e-05	9e-05	5
21435	-9e-05	-0.0001	-0.00027	-0.00056	0.00053	0.00016	-3e-05	-7e-05	5
21436	0.00015	7e-05	0.00016	0.00061	-5e-05	0.00016	6e-05	5e-05	5
21438	2e-05	1e-05	0.0001	-0.00089	0.00019	9e-05	9e-05	8e-05	5
21439	2e-05	1e-05	0.0001	-0.00089	0.00019	9e-05	9e-05	8e-05	5
21440	2e-05	1e-05	0.0001	-0.00089	0.00019	9e-05	9e-05	8e-05	5
21441	-4e-05	-0.00057	-0.00107	-0.00056	6e-05	-3e-05	-3e-05	-2e-05	5
21442	-4e-05	-0.00057	-0.00107	-0.00056	6e-05	-3e-05	-3e-05	-2e-05	5
21443	-4e-05	-0.00057	-0.00107	-0.00056	6e-05	-3e-05	-3e-05	-2e-05	5
21444	-4e-05	-0.00057	-0.00107	-0.00056	6e-05	-3e-05	-3e-05	-2e-05	5
21445	-4e-05	-0.00057	-0.00107	-0.00056	6e-05	-3e-05	-3e-05	-2e-05	5
21446	-4e-05	-0.00057	-0.00107	-0.00056	6e-05	-3e-05	-3e-05	-2e-05	5
21447	-4e-05	-0.00057	-0.00107	-0.00056	6e-05	-3e-05	-3e-05	-2e-05	5
21448	-4e-05	-0.00057	-0.00107	-0.00056	6e-05	-3e-05	-3e-05	-2e-05	5
21449	-4e-05	-0.00057	-0.00107	-0.00056	6e-05	-3e-05	-3e-05	-2e-05	5
21450	-4e-05	-0.00057	-0.00107	-0.00056	6e-05	-3e-05	-3e-05	-2e-05	5
21451	-0.00016	-5e-05	1e-05	-0.00014	-8e-05	4e-05	1e-05	-3e-05	5
21452	-0.00016	-5e-05	1e-05	-0.00014	-8e-05	4e-05	1e-05	-3e-05	5
21453	-0.00016	-5e-05	1e-05	-0.00014	-8e-05	4e-05	1e-05	-3e-05	5
21454	-0.00016	-5e-05	1e-05	-0.00014	-8e-05	4e-05	1e-05	-3e-05	5
21455	-0.00016	-5e-05	1e-05	-0.00014	-8e-05	4e-05	1e-05	-3e-05	5
21456	-0.00016	-5e-05	1e-05	-0.00014	-8e-05	4e-05	1e-05	-3e-05	5
21457	-0.00016	-5e-05	1e-05	-0.00014	-8e-05	4e-05	1e-05	-3e-05	5
21458	-0.00016	-5e-05	1e-05	-0.00014	-8e-05	4e-05	1e-05	-3e-05	5
21459	-0.00016	-5e-05	1e-05	-0.00014	-8e-05	4e-05	1e-05	-3e-05	5
21460	-0.00016	-5e-05	1e-05	-0.00014	-8e-05	4e-05	1e-05	-3e-05	5
21461	-0.00016	-5e-05	1e-05	-0.00014	-8e-05	4e-05	1e-05	-3e-05	5
21462	-0.00016	-5e-05	1e-05	-0.00014	-8e-05	4e-05	1e-05	-3e-05	5
21463	-0.00016	-5e-05	1e-05	-0.00014	-8e-05	4e-05	1e-05	-3e-05	5
21464	-0.00016	-5e-05	1e-05	-0.00014	-8e-05	4e-05	1e-05	-3e-05	5
21465	-0.00013	-1e-05	0.0002	0.00031	0.00047	0.00029	-5e-05	-1e-05	5
21466	-0.00013	-1e-05	0.0002	0.00031	0.00047	0.00029	-5e-05	-1e-05	5
21467	-0.0004	-0.00016	-0.00075	-0.00054	-0.00067	-0.00017	-6e-05	-0.00014	5
21468	-0.0004	-0.00016	-0.00075	-0.00054	-0.00067	-0.00017	-6e-05	-0.00014	5
21469	-0.0004	-0.00016	-0.00075	-0.00054	-0.00067	-0.00017	-6e-05	-0.00014	5
21470	-0.0004	-0.00016	-0.00075	-0.00054	-0.00067	-0.00017	-6e-05	-0.00014	5
21471	-0.0004	-0.00016	-0.00075	-0.00054	-0.00067	-0.00017	-6e-05	-0.00014	5
21472	-0.0004	-0.00016	-0.00075	-0.00054	-0.00067	-0.00017	-6e-05	-0.00014	5
21473	-0.0004	-0.00016	-0.00075	-0.00054	-0.00067	-0.00017	-6e-05	-0.00014	5
21474	-0.0004	-0.00016	-0.00075	-0.00054	-0.00067	-0.00017	-6e-05	-0.00014	5
21475	-0.0004	-0.00016	-0.00075	-0.00054	-0.00067	-0.00017	-6e-05	-0.00014	5
21476	-0.0004	-0.00016	-0.00075	-0.00054	-0.00067	-0.00017	-6e-05	-0.00014	5
21477	-0.0004	-0.00016	-0.00075	-0.00054	-0.00067	-0.00017	-6e-05	-0.00014	5
21478	-0.0004	-0.00016	-0.00075	-0.00054	-0.00067	-0.00017	-6e-05	-0.00014	5
21479	-0.0004	-0.00016	-0.00075	-0.00054	-0.00067	-0.00017	-6e-05	-0.00014	5
21480	-0.0004	-0.00016	-0.00075	-0.00054	-0.00067	-0.00017	-6e-05	-0.00014	5
21481	-0.0004	-0.00016	-0.00075	-0.00054	-0.00067	-0.00017	-6e-05	-0.00014	5
21482	-0.0004	-0.00016	-0.00075	-0.00054	-0.00067	-0.00017	-6e-05	-0.00014	5
21483	-0.0004	-0.00016	-0.00075	-0.00054	-0.00067	-0.00017	-6e-05	-0.00014	5
21484	-0.0004	-0.00016	-0.00075	-0.00054	-0.00067	-0.00017	-6e-05	-0.00014	5
21485	-0.0004	-0.00016	-0.00075	-0.00054	-0.00067	-0.00017	-6e-05	-0.00014	5
21486	-0.0004	-0.00016	-0.00075	-0.00054	-0.00067	-0.00017	-6e-05	-0.00014	5
21489	4e-05	0.00023	0.00058	0.00048	-0.0007	-5e-05	2e-05	2e-05	5
21490	4e-05	0.00023	0.00058	0.00048	-0.0007	-5e-05	2e-05	2e-05	5
21491	4e-05	0.00023	0.00058	0.00048	-0.0007	-5e-05	2e-05	2e-05	5
21492	4e-05	0.00023	0.00058	0.00048	-0.0007	-5e-05	2e-05	2e-05	5
21493	4e-05	0.00023	0.00058	0.00048	-0.0007	-5e-05	2e-05	2e-05	5
21494	4e-05	0.00023	0.00058	0.00048	-0.0007	-5e-05	2e-05	2e-05	5
21495	4e-05	0.00023	0.00058	0.00048	-0.0007	-5e-05	2e-05	2e-05	5
21496	4e-05	0.00023	0.00058	0.00048	-0.0007	-5e-05	2e-05	2e-05	5
21497	4e-05	0.00023	0.00058	0.00048	-0.0007	-5e-05	2e-05	2e-05	5
21498	4e-05	0.00023	0.00058	0.00048	-0.0007	-5e-05	2e-05	2e-05	5
21499	4e-05	0.00023	0.00058	0.00048	-0.0007	-5e-05	2e-05	2e-05	5
21500	4e-05	0.00023	0.00058	0.00048	-0.0007	-5e-05	2e-05	2e-05	5
21501	-5e-05	-0.00011	-0.00016	-0.00024	-0.00021	-0.00025	-4e-05	-2e-05	5
21502	-5e-05	-0.00011	-0.00016	-0.00024	-0.00021	-0.00025	-4e-05	-2e-05	5
21503	-5e-05	-0.00011	-0.00016	-0.00024	-0.00021	-0.00025	-4e-05	-2e-05	5
21504	-5e-05	-0.00011	-0.00016	-0.00024	-0.00021	-0.00025	-4e-05	-2e-05	5
21505	-5e-05	-0.00011	-0.00016	-0.00024	-0.00021	-0.00025	-4e-05	-2e-05	5
21506	-5e-05	-0.00011	-0.00016	-0.00024	-0.00021	-0.00025	-4e-05	-2e-05	5
21507	-5e-05	-0.00011	-0.00016	-0.00024	-0.00021	-0.00025	-4e-05	-2e-05	5
21508	-5e-05	-0.00011	-0.00016	-0.00024	-0.00021	-0.00025	-4e-05	-2e-05	5
21509	-5e-05	-0.00011	-0.00016	-0.00024	-0.00021	-0.00025	-4e-05	-2e-05	5
21510	-0.00024	-0.00035	-0.00068	-0.00026	0.00028	0.00017	0	-8e-05	5
21511	-0.00024	-0.00035	-0.00068	-0.00026	0.00028	0.00017	0	-8e-05	5
21512	-0.00024	-0.00035	-0.00068	-0.00026	0.00028	0.00017	0	-8e-05	5
21513	-0.00024	-0.00035	-0.00068	-0.00026	0.00028	0.00017	0	-8e-05	5
21514	-0.00024	-0.00035	-0.00068	-0.00026	0.00028	0.00017	0	-8e-05	5
21515	-0.00024	-0.00035	-0.00068	-0.00026	0.00028	0.00017	0	-8e-05	5
21516	-0.00024	-0.00035	-0.00068	-0.00026	0.00028	0.00017	0	-8e-05	5
21517	-0.00024	-0.00035	-0.00068	-0.00026	0.00028	0.00017	0	-8e-05	5
21518	-0.00024	-0.00035	-0.00068	-0.00026	0.00028	0.00017	0	-8e-05	5
21519	-0.00024	-0.00035	-0.00068	-0.00026	0.00028	0.00017	0	-8e-05	5
21520	-0.00024	-0.00035	-0.00068	-0.00026	0.00028	0.00017	0	-8e-05	5
21521	-0.00024	-0.00035	-0.00068	-0.00026	0.00028	0.00017	0	-8e-05	5
21522	-0.00024	-0.00035	-0.00068	-0.00026	0.00028	0.00017	0	-8e-05	5
21523	-0.00024	-0.00035	-0.00068	-0.00026	0.00028	0.00017	0	-8e-05	5
21524	-0.00024	-0.00035	-0.00068	-0.00026	0.00028	0.00017	0	-8e-05	5
21525	1e-05	0.00019	-6e-05	0.00036	5e-05	0	5e-05	4e-05	5
21526	0.00015	-6e-05	0.00064	0.00108	0.00039	4e-05	0.00016	0.00022	5
21527	-9e-05	5e-05	0.00045	0.00057	0.00054	0.0002	-4e-05	-0.00014	5
21528	-9e-05	5e-05	0.00045	0.00057	0.00054	0.0002	-4e-05	-0.00014	5
21529	-9e-05	5e-05	0.00045	0.00057	0.00054	0.0002	-4e-05	-0.00014	5
21530	-9e-05	5e-05	0.00045	0.00057	0.00054	0.0002	-4e-05	-0.00014	5
21531	-9e-05	5e-05	0.00045	0.00057	0.00054	0.0002	-4e-05	-0.00014	5
21532	-9e-05	5e-05	0.00045	0.00057	0.00054	0.0002	-4e-05	-0.00014	5
21533	-9e-05	5e-05	0.00045	0.00057	0.00054	0.0002	-4e-05	-0.00014	5
21534	-9e-05	5e-05	0.00045	0.00057	0.00054	0.0002	-4e-05	-0.00014	5
21535	-9e-05	5e-05	0.00045	0.00057	0.00054	0.0002	-4e-05	-0.00014	5
21536	-9e-05	5e-05	0.00045	0.00057	0.00054	0.0002	-4e-05	-0.00014	5
21538	-9e-05	5e-05	0.00045	0.00057	0.00054	0.0002	-4e-05	-0.00014	5
21539	-9e-05	5e-05	0.00045	0.00057	0.00054	0.0002	-4e-05	-0.00014	5
21540	-9e-05	5e-05	0.00045	0.00057	0.00054	0.0002	-4e-05	-0.00014	5
21541	-9e-05	5e-05	0.00045	0.00057	0.00054	0.0002	-4e-05	-0.00014	5
21542	-9e-05	5e-05	0.00045	0.00057	0.00054	0.0002	-4e-05	-0.00014	5
21543	-9e-05	5e-05	0.00045	0.00057	0.00054	0.0002	-4e-05	-0.00014	5
21544	-9e-05	5e-05	0.00045	0.00057	0.00054	0.0002	-4e-05	-0.00014	5
21545	-9e-05	5e-05	0.00045	0.00057	0.00054	0.0002	-4e-05	-0.00014	5
21546	-9e-05	5e-05	0.00045	0.00057	0.00054	0.0002	-4e-05	-0.00014	5
21547	-9e-05	5e-05	0.00045	0.00057	0.00054	0.0002	-4e-05	-0.00014	5
21548	0.0001	0.00017	-0.00016	0.00027	0.00048	0.00049	0.00012	-3e-05	5
21549	0.0001	7e-05	0.00024	0.00094	0.00018	-0.00013	0.00023	0.00017	5
21550	0.0001	7e-05	0.00024	0.00094	0.00018	-0.00013	0.00023	0.00017	5
21551	0.0001	7e-05	0.00024	0.00094	0.00018	-0.00013	0.00023	0.00017	5
21552	0.0001	7e-05	0.00024	0.00094	0.00018	-0.00013	0.00023	0.00017	5
21553	0.0001	7e-05	0.00024	0.00094	0.00018	-0.00013	0.00023	0.00017	5
21554	0.0001	7e-05	0.00024	0.00094	0.00018	-0.00013	0.00023	0.00017	5
21555	0.0001	7e-05	0.00024	0.00094	0.00018	-0.00013	0.00023	0.00017	5
21556	0.0001	7e-05	0.00024	0.00094	0.00018	-0.00013	0.00023	0.00017	5
21557	0.0001	7e-05	0.00024	0.00094	0.00018	-0.00013	0.00023	0.00017	5
21558	0.0001	7e-05	0.00024	0.00094	0.00018	-0.00013	0.00023	0.00017	5
21559	0.0001	7e-05	0.00024	0.00094	0.00018	-0.00013	0.00023	0.00017	5
21560	0.0001	7e-05	0.00024	0.00094	0.00018	-0.00013	0.00023	0.00017	5
21561	5e-05	-2e-05	8e-05	-0.00079	-0.00052	2e-05	4e-05	4e-05	5
21562	-0.00011	5e-05	-0.00017	-0.00011	-0.00025	-0.00011	-0.00012	-9e-05	5
21563	-0.00011	5e-05	-0.00017	-0.00011	-0.00025	-0.00011	-0.00012	-9e-05	5
21564	-0.00011	5e-05	-0.00017	-0.00011	-0.00025	-0.00011	-0.00012	-9e-05	5
21565	-0.00011	5e-05	-0.00017	-0.00011	-0.00025	-0.00011	-0.00012	-9e-05	5
21566	-0.00011	5e-05	-0.00017	-0.00011	-0.00025	-0.00011	-0.00012	-9e-05	5
21567	-0.00011	5e-05	-0.00017	-0.00011	-0.00025	-0.00011	-0.00012	-9e-05	5
21568	-0.00011	5e-05	-0.00017	-0.00011	-0.00025	-0.00011	-0.00012	-9e-05	5
21569	-0.00011	5e-05	-0.00017	-0.00011	-0.00025	-0.00011	-0.00012	-9e-05	5
21570	7e-05	-7e-05	-4e-05	-0.0001	4e-05	0.0002	-8e-05	-2e-05	5
21571	7e-05	-7e-05	-4e-05	-0.0001	4e-05	0.0002	-8e-05	-2e-05	5
21572	7e-05	-7e-05	-4e-05	-0.0001	4e-05	0.0002	-8e-05	-2e-05	5
21573	7e-05	-7e-05	-4e-05	-0.0001	4e-05	0.0002	-8e-05	-2e-05	5
21574	7e-05	-7e-05	-4e-05	-0.0001	4e-05	0.0002	-8e-05	-2e-05	5
21575	7e-05	-7e-05	-4e-05	-0.0001	4e-05	0.0002	-8e-05	-2e-05	5
21576	7e-05	-7e-05	-4e-05	-0.0001	4e-05	0.0002	-8e-05	-2e-05	5
21577	7e-05	-7e-05	-4e-05	-0.0001	4e-05	0.0002	-8e-05	-2e-05	5
21578	7e-05	-7e-05	-4e-05	-0.0001	4e-05	0.0002	-8e-05	-2e-05	5
21579	7e-05	-7e-05	-4e-05	-0.0001	4e-05	0.0002	-8e-05	-2e-05	5
21580	7e-05	-7e-05	-4e-05	-0.0001	4e-05	0.0002	-8e-05	-2e-05	5
21581	7e-05	-7e-05	-4e-05	-0.0001	4e-05	0.0002	-8e-05	-2e-05	5
21582	7e-05	-7e-05	-4e-05	-0.0001	4e-05	0.0002	-8e-05	-2e-05	5
21583	7e-05	-7e-05	-4e-05	-0.0001	4e-05	0.0002	-8e-05	-2e-05	5
21584	7e-05	-7e-05	-4e-05	-0.0001	4e-05	0.0002	-8e-05	-2e-05	5
21585	-0.00017	-6e-05	0.00016	0.00021	-0.00022	0.00026	0.00012	6e-05	5
21586	-0.00017	-6e-05	0.00016	0.00021	-0.00022	0.00026	0.00012	6e-05	5
21588	-0.00014	-0.00012	-0.0006	-0.0003	0.00012	1e-05	-7e-05	-6e-05	5
21589	-0.00014	-0.00012	-0.0006	-0.0003	0.00012	1e-05	-7e-05	-6e-05	5
21590	-0.00014	-0.00012	-0.0006	-0.0003	0.00012	1e-05	-7e-05	-6e-05	5
21591	-0.00014	-0.00012	-0.0006	-0.0003	0.00012	1e-05	-7e-05	-6e-05	5
21592	-0.00014	-0.00012	-0.0006	-0.0003	0.00012	1e-05	-7e-05	-6e-05	5
21593	-0.00014	-0.00012	-0.0006	-0.0003	0.00012	1e-05	-7e-05	-6e-05	5
21594	-0.00014	-0.00012	-0.0006	-0.0003	0.00012	1e-05	-7e-05	-6e-05	5
21595	-0.00014	-0.00012	-0.0006	-0.0003	0.00012	1e-05	-7e-05	-6e-05	5
21596	-0.00014	-0.00012	-0.0006	-0.0003	0.00012	1e-05	-7e-05	-6e-05	5
21597	-0.00014	-0.00012	-0.0006	-0.0003	0.00012	1e-05	-7e-05	-6e-05	5
21598	-0.00014	-0.00012	-0.0006	-0.0003	0.00012	1e-05	-7e-05	-6e-05	5
21599	-0.00014	-0.00012	-0.0006	-0.0003	0.00012	1e-05	-7e-05	-6e-05	5
21600	-0.00014	-0.00012	-0.0006	-0.0003	0.00012	1e-05	-7e-05	-6e-05	5
21601	-0.00014	-0.00012	-0.0006	-0.0003	0.00012	1e-05	-7e-05	-6e-05	5
21602	-0.00014	-0.00012	-0.0006	-0.0003	0.00012	1e-05	-7e-05	-6e-05	5
21603	-0.00014	-0.00012	-0.0006	-0.0003	0.00012	1e-05	-7e-05	-6e-05	5
21604	-0.00014	-0.00012	-0.0006	-0.0003	0.00012	1e-05	-7e-05	-6e-05	5
21605	-0.00014	-0.00012	-0.0006	-0.0003	0.00012	1e-05	-7e-05	-6e-05	5
21606	-0.00014	-0.00012	-0.0006	-0.0003	0.00012	1e-05	-7e-05	-6e-05	5
21607	0.00017	-9e-05	0	5e-05	-0.00034	-0.00035	3e-05	0	5
21608	-0.00011	-0.00034	-0.00053	-0.00111	0.00013	5e-05	0	-6e-05	5
21609	1e-05	6e-05	0.00022	-0.00039	0.00011	5e-05	-2e-05	-3e-05	5
21610	1e-05	6e-05	0.00022	-0.00039	0.00011	5e-05	-2e-05	-3e-05	5
21611	1e-05	6e-05	0.00022	-0.00039	0.00011	5e-05	-2e-05	-3e-05	5
21612	1e-05	6e-05	0.00022	-0.00039	0.00011	5e-05	-2e-05	-3e-05	5
21613	1e-05	6e-05	0.00022	-0.00039	0.00011	5e-05	-2e-05	-3e-05	5
21614	1e-05	6e-05	0.00022	-0.00039	0.00011	5e-05	-2e-05	-3e-05	5
21615	1e-05	6e-05	0.00022	-0.00039	0.00011	5e-05	-2e-05	-3e-05	5
21616	1e-05	6e-05	0.00022	-0.00039	0.00011	5e-05	-2e-05	-3e-05	5
21617	1e-05	6e-05	0.00022	-0.00039	0.00011	5e-05	-2e-05	-3e-05	5
21618	1e-05	6e-05	0.00022	-0.00039	0.00011	5e-05	-2e-05	-3e-05	5
21619	1e-05	6e-05	0.00022	-0.00039	0.00011	5e-05	-2e-05	-3e-05	5
21620	1e-05	6e-05	0.00022	-0.00039	0.00011	5e-05	-2e-05	-3e-05	5
21621	9e-05	0.00021	0.00074	0.0006	2e-05	-0.00021	6e-05	6e-05	5
21622	9e-05	0.00021	0.00074	0.0006	2e-05	-0.00021	6e-05	6e-05	5
21623	9e-05	0.00021	0.00074	0.0006	2e-05	-0.00021	6e-05	6e-05	5
21624	9e-05	0.00021	0.00074	0.0006	2e-05	-0.00021	6e-05	6e-05	5
21625	9e-05	0.00021	0.00074	0.0006	2e-05	-0.00021	6e-05	6e-05	5
21626	9e-05	0.00021	0.00074	0.0006	2e-05	-0.00021	6e-05	6e-05	5
21627	9e-05	0.00021	0.00074	0.0006	2e-05	-0.00021	6e-05	6e-05	5
21628	9e-05	0.00021	0.00074	0.0006	2e-05	-0.00021	6e-05	6e-05	5
21629	9e-05	0.00021	0.00074	0.0006	2e-05	-0.00021	6e-05	6e-05	5
21630	9e-05	0.00021	0.00074	0.0006	2e-05	-0.00021	6e-05	6e-05	5
21631	9e-05	0.00021	0.00074	0.0006	2e-05	-0.00021	6e-05	6e-05	5
21632	9e-05	0.00021	0.00074	0.0006	2e-05	-0.00021	6e-05	6e-05	5
21633	9e-05	0.00021	0.00074	0.0006	2e-05	-0.00021	6e-05	6e-05	5
21634	9e-05	0.00021	0.00074	0.0006	2e-05	-0.00021	6e-05	6e-05	5
21635	9e-05	0.00021	0.00074	0.0006	2e-05	-0.00021	6e-05	6e-05	5
21636	0.00015	-6e-05	0.00041	0.00098	0.00023	-0.00065	3e-05	7e-05	5
21638	0.00015	-6e-05	0.00041	0.00098	0.00023	-0.00065	3e-05	7e-05	5
21639	0.00015	-6e-05	0.00041	0.00098	0.00023	-0.00065	3e-05	7e-05	5
21640	0.00015	-6e-05	0.00041	0.00098	0.00023	-0.00065	3e-05	7e-05	5
21641	0.00015	-6e-05	0.00041	0.00098	0.00023	-0.00065	3e-05	7e-05	5
21642	0.00015	-6e-05	0.00041	0.00098	0.00023	-0.00065	3e-05	7e-05	5
21643	0.00015	-6e-05	0.00041	0.00098	0.00023	-0.00065	3e-05	7e-05	5
21644	0.00015	-6e-05	0.00041	0.00098	0.00023	-0.00065	3e-05	7e-05	5
21645	-0.00016	-6e-05	-0.00049	-0.0009	-9e-05	0.0001	-1e-05	-6e-05	5
21646	-6e-05	-0.00031	-0.00037	-0.00022	0.0003	-0.00025	-0.0001	-2e-05	5
21647	0.00014	0.00057	5e-05	0.00029	-5e-05	-6e-05	4e-05	6e-05	5
21648	0.00014	0.00057	5e-05	0.00029	-5e-05	-6e-05	4e-05	6e-05	5
21649	0.00014	0.00057	5e-05	0.00029	-5e-05	-6e-05	4e-05	6e-05	5
21650	0.00014	0.00057	5e-05	0.00029	-5e-05	-6e-05	4e-05	6e-05	5
21651	0.00014	0.00057	5e-05	0.00029	-5e-05	-6e-05	4e-05	6e-05	5
21652	0.00014	0.00057	5e-05	0.00029	-5e-05	-6e-05	4e-05	6e-05	5
21653	0.00014	0.00057	5e-05	0.00029	-5e-05	-6e-05	4e-05	6e-05	5
21654	0.00014	0.00057	5e-05	0.00029	-5e-05	-6e-05	4e-05	6e-05	5
21655	0.00014	0.00057	5e-05	0.00029	-5e-05	-6e-05	4e-05	6e-05	5
21656	0.00014	0.00057	5e-05	0.00029	-5e-05	-6e-05	4e-05	6e-05	5
21657	0.00014	0.00057	5e-05	0.00029	-5e-05	-6e-05	4e-05	6e-05	5
21658	0.00014	0.00057	5e-05	0.00029	-5e-05	-6e-05	4e-05	6e-05	5
21659	0.00014	0.00057	5e-05	0.00029	-5e-05	-6e-05	4e-05	6e-05	5
21660	0.00014	0.00057	5e-05	0.00029	-5e-05	-6e-05	4e-05	6e-05	5
21661	0.00014	0.00057	5e-05	0.00029	-5e-05	-6e-05	4e-05	6e-05	5
21662	0.00014	0.00057	5e-05	0.00029	-5e-05	-6e-05	4e-05	6e-05	5
21663	0.00014	0.00057	5e-05	0.00029	-5e-05	-6e-05	4e-05	6e-05	5
21664	0.00014	0.00057	5e-05	0.00029	-5e-05	-6e-05	4e-05	6e-05	5
21665	0.00014	0.00057	5e-05	0.00029	-5e-05	-6e-05	4e-05	6e-05	5
21666	0.00014	0.00057	5e-05	0.00029	-5e-05	-6e-05	4e-05	6e-05	5
21667	0.00014	0.00057	5e-05	0.00029	-5e-05	-6e-05	4e-05	6e-05	5
21668	0.00036	0.00047	0.00122	0.00127	0.0007	0.00033	0.00041	0.00023	5
21669	-0.00033	-8e-05	-0.00044	-0.0009	-0.0005	5e-05	-2e-05	-7e-05	5
21670	-0.00033	-8e-05	-0.00044	-0.0009	-0.0005	5e-05	-2e-05	-7e-05	5
21671	-0.00033	-8e-05	-0.00044	-0.0009	-0.0005	5e-05	-2e-05	-7e-05	5
21672	-0.00033	-8e-05	-0.00044	-0.0009	-0.0005	5e-05	-2e-05	-7e-05	5
21673	-0.00033	-8e-05	-0.00044	-0.0009	-0.0005	5e-05	-2e-05	-7e-05	5
21674	-0.00033	-8e-05	-0.00044	-0.0009	-0.0005	5e-05	-2e-05	-7e-05	5
21675	-0.00033	-8e-05	-0.00044	-0.0009	-0.0005	5e-05	-2e-05	-7e-05	5
21676	-0.00033	-8e-05	-0.00044	-0.0009	-0.0005	5e-05	-2e-05	-7e-05	5
21677	-0.00033	-8e-05	-0.00044	-0.0009	-0.0005	5e-05	-2e-05	-7e-05	5
21678	-0.00033	-8e-05	-0.00044	-0.0009	-0.0005	5e-05	-2e-05	-7e-05	5
21679	-0.00033	-8e-05	-0.00044	-0.0009	-0.0005	5e-05	-2e-05	-7e-05	5
21680	-0.00033	-8e-05	-0.00044	-0.0009	-0.0005	5e-05	-2e-05	-7e-05	5
21681	0.00013	6e-05	0.00013	0.00064	-0.0001	-0.00019	-0.00021	-4e-05	5
21682	0.00013	6e-05	0.00013	0.00064	-0.0001	-0.00019	-0.00021	-4e-05	5
21683	0.00013	6e-05	0.00013	0.00064	-0.0001	-0.00019	-0.00021	-4e-05	5
21684	0.00013	6e-05	0.00013	0.00064	-0.0001	-0.00019	-0.00021	-4e-05	5
21685	0.00013	6e-05	0.00013	0.00064	-0.0001	-0.00019	-0.00021	-4e-05	5
21686	0.00013	6e-05	0.00013	0.00064	-0.0001	-0.00019	-0.00021	-4e-05	5
21688	0.00013	6e-05	0.00013	0.00064	-0.0001	-0.00019	-0.00021	-4e-05	5
21689	0.00013	6e-05	0.00013	0.00064	-0.0001	-0.00019	-0.00021	-4e-05	5
21690	0.00023	-9e-05	0.0011	0.00127	0.00122	0.0006	0.00018	0.00019	5
21691	0.00023	-9e-05	0.0011	0.00127	0.00122	0.0006	0.00018	0.00019	5
21692	0.00023	-9e-05	0.0011	0.00127	0.00122	0.0006	0.00018	0.00019	5
21693	0.00023	-9e-05	0.0011	0.00127	0.00122	0.0006	0.00018	0.00019	5
21694	0.00023	-9e-05	0.0011	0.00127	0.00122	0.0006	0.00018	0.00019	5
21695	0.00023	-9e-05	0.0011	0.00127	0.00122	0.0006	0.00018	0.00019	5
21696	0.00023	-9e-05	0.0011	0.00127	0.00122	0.0006	0.00018	0.00019	5
21697	0.00023	-9e-05	0.0011	0.00127	0.00122	0.0006	0.00018	0.00019	5
21698	0.00023	-9e-05	0.0011	0.00127	0.00122	0.0006	0.00018	0.00019	5
21699	0.00023	-9e-05	0.0011	0.00127	0.00122	0.0006	0.00018	0.00019	5
21700	0.00023	-9e-05	0.0011	0.00127	0.00122	0.0006	0.00018	0.00019	5
21701	0.00023	-9e-05	0.0011	0.00127	0.00122	0.0006	0.00018	0.00019	5
21702	0.00023	-9e-05	0.0011	0.00127	0.00122	0.0006	0.00018	0.00019	5
21703	0.00023	-9e-05	0.0011	0.00127	0.00122	0.0006	0.00018	0.00019	5
21704	0.00023	-9e-05	0.0011	0.00127	0.00122	0.0006	0.00018	0.00019	5
21705	0.00023	-9e-05	0.0011	0.00127	0.00122	0.0006	0.00018	0.00019	5
21706	-0.00012	0.00018	-0.00051	0.00046	0.00051	8e-05	-1e-05	-7e-05	5
21707	-7e-05	-2e-05	-0.00039	8e-05	0.00019	-0.00011	-0.00016	-0.0001	5
21708	-7e-05	-2e-05	-0.00039	8e-05	0.00019	-0.00011	-0.00016	-0.0001	5
21709	-7e-05	-2e-05	-0.00039	8e-05	0.00019	-0.00011	-0.00016	-0.0001	5
21710	-7e-05	-2e-05	-0.00039	8e-05	0.00019	-0.00011	-0.00016	-0.0001	5
21711	-7e-05	-2e-05	-0.00039	8e-05	0.00019	-0.00011	-0.00016	-0.0001	5
21712	-7e-05	-2e-05	-0.00039	8e-05	0.00019	-0.00011	-0.00016	-0.0001	5
21713	-7e-05	-2e-05	-0.00039	8e-05	0.00019	-0.00011	-0.00016	-0.0001	5
21714	-7e-05	-2e-05	-0.00039	8e-05	0.00019	-0.00011	-0.00016	-0.0001	5
21715	-7e-05	-2e-05	-0.00039	8e-05	0.00019	-0.00011	-0.00016	-0.0001	5
21716	-7e-05	-2e-05	-0.00039	8e-05	0.00019	-0.00011	-0.00016	-0.0001	5
21717	-7e-05	-2e-05	-0.00039	8e-05	0.00019	-0.00011	-0.00016	-0.0001	5
21718	-7e-05	-2e-05	-0.00039	8e-05	0.00019	-0.00011	-0.00016	-0.0001	5
21719	-7e-05	-2e-05	-0.00039	8e-05	0.00019	-0.00011	-0.00016	-0.0001	5
21720	-7e-05	-2e-05	-0.00039	8e-05	0.00019	-0.00011	-0.00016	-0.0001	5
21721	-7e-05	-2e-05	-0.00039	8e-05	0.00019	-0.00011	-0.00016	-0.0001	5
21722	-7e-05	-2e-05	-0.00039	8e-05	0.00019	-0.00011	-0.00016	-0.0001	5
21723	-7e-05	-2e-05	-0.00039	8e-05	0.00019	-0.00011	-0.00016	-0.0001	5
21724	-7e-05	-2e-05	-0.00039	8e-05	0.00019	-0.00011	-0.00016	-0.0001	5
21725	-7e-05	-2e-05	-0.00039	8e-05	0.00019	-0.00011	-0.00016	-0.0001	5
21726	-7e-05	-2e-05	-0.00039	8e-05	0.00019	-0.00011	-0.00016	-0.0001	5
21727	-7e-05	-2e-05	-0.00039	8e-05	0.00019	-0.00011	-0.00016	-0.0001	5
21728	-1e-05	-0.00025	-0.00024	-0.00033	-0.0003	-0.00039	-0.0001	-6e-05	5
21729	2e-05	-3e-05	-5e-05	-0.00125	-0.00066	-0.00015	-4e-05	0	5
21730	2e-05	-3e-05	-5e-05	-0.00125	-0.00066	-0.00015	-4e-05	0	5
21731	2e-05	-3e-05	-5e-05	-0.00125	-0.00066	-0.00015	-4e-05	0	5
21732	2e-05	-3e-05	-5e-05	-0.00125	-0.00066	-0.00015	-4e-05	0	5
21733	2e-05	-3e-05	-5e-05	-0.00125	-0.00066	-0.00015	-4e-05	0	5
21734	2e-05	-3e-05	-5e-05	-0.00125	-0.00066	-0.00015	-4e-05	0	5
21735	2e-05	-3e-05	-5e-05	-0.00125	-0.00066	-0.00015	-4e-05	0	5
21736	2e-05	-3e-05	-5e-05	-0.00125	-0.00066	-0.00015	-4e-05	0	5
21738	2e-05	-3e-05	-5e-05	-0.00125	-0.00066	-0.00015	-4e-05	0	5
21739	2e-05	-3e-05	-5e-05	-0.00125	-0.00066	-0.00015	-4e-05	0	5
21740	2e-05	-3e-05	-5e-05	-0.00125	-0.00066	-0.00015	-4e-05	0	5
21741	-2e-05	1e-05	9e-05	0.00032	-0.00053	-6e-05	1e-05	-1e-05	5
21742	-2e-05	1e-05	9e-05	0.00032	-0.00053	-6e-05	1e-05	-1e-05	5
21743	-2e-05	1e-05	9e-05	0.00032	-0.00053	-6e-05	1e-05	-1e-05	5
21744	-2e-05	1e-05	9e-05	0.00032	-0.00053	-6e-05	1e-05	-1e-05	5
21745	-2e-05	1e-05	9e-05	0.00032	-0.00053	-6e-05	1e-05	-1e-05	5
21746	-2e-05	1e-05	9e-05	0.00032	-0.00053	-6e-05	1e-05	-1e-05	5
21747	-2e-05	1e-05	9e-05	0.00032	-0.00053	-6e-05	1e-05	-1e-05	5
21748	-2e-05	1e-05	9e-05	0.00032	-0.00053	-6e-05	1e-05	-1e-05	5
21749	-2e-05	1e-05	9e-05	0.00032	-0.00053	-6e-05	1e-05	-1e-05	5
21750	3e-05	-2e-05	0.00016	-0.00019	-0.00086	-0.00035	-0.00013	-4e-05	5
21751	3e-05	-2e-05	0.00016	-0.00019	-0.00086	-0.00035	-0.00013	-4e-05	5
21752	3e-05	-2e-05	0.00016	-0.00019	-0.00086	-0.00035	-0.00013	-4e-05	5
21753	3e-05	-2e-05	0.00016	-0.00019	-0.00086	-0.00035	-0.00013	-4e-05	5
21754	3e-05	-2e-05	0.00016	-0.00019	-0.00086	-0.00035	-0.00013	-4e-05	5
21755	3e-05	-2e-05	0.00016	-0.00019	-0.00086	-0.00035	-0.00013	-4e-05	5
21756	3e-05	-2e-05	0.00016	-0.00019	-0.00086	-0.00035	-0.00013	-4e-05	5
21757	3e-05	-2e-05	0.00016	-0.00019	-0.00086	-0.00035	-0.00013	-4e-05	5
21758	3e-05	-2e-05	0.00016	-0.00019	-0.00086	-0.00035	-0.00013	-4e-05	5
21759	3e-05	-2e-05	0.00016	-0.00019	-0.00086	-0.00035	-0.00013	-4e-05	5
21760	3e-05	-2e-05	0.00016	-0.00019	-0.00086	-0.00035	-0.00013	-4e-05	5
21761	3e-05	-2e-05	0.00016	-0.00019	-0.00086	-0.00035	-0.00013	-4e-05	5
21762	3e-05	-2e-05	0.00016	-0.00019	-0.00086	-0.00035	-0.00013	-4e-05	5
21763	3e-05	-2e-05	0.00016	-0.00019	-0.00086	-0.00035	-0.00013	-4e-05	5
21764	3e-05	-2e-05	0.00016	-0.00019	-0.00086	-0.00035	-0.00013	-4e-05	5
21765	-5e-05	-0.0001	-0.00057	-0.00101	-0.00044	-7e-05	-8e-05	-0.00011	5
21766	-5e-05	-0.0001	-0.00057	-0.00101	-0.00044	-7e-05	-8e-05	-0.00011	5
21767	-2e-05	1e-05	0.00011	0.00041	0.00076	0.00033	9e-05	2e-05	5
21768	-2e-05	1e-05	0.00011	0.00041	0.00076	0.00033	9e-05	2e-05	5
21769	-2e-05	1e-05	0.00011	0.00041	0.00076	0.00033	9e-05	2e-05	5
21770	-2e-05	1e-05	0.00011	0.00041	0.00076	0.00033	9e-05	2e-05	5
21771	-2e-05	1e-05	0.00011	0.00041	0.00076	0.00033	9e-05	2e-05	5
21772	-2e-05	1e-05	0.00011	0.00041	0.00076	0.00033	9e-05	2e-05	5
21773	-2e-05	1e-05	0.00011	0.00041	0.00076	0.00033	9e-05	2e-05	5
21774	-2e-05	1e-05	0.00011	0.00041	0.00076	0.00033	9e-05	2e-05	5
21775	-2e-05	1e-05	0.00011	0.00041	0.00076	0.00033	9e-05	2e-05	5
21776	-2e-05	1e-05	0.00011	0.00041	0.00076	0.00033	9e-05	2e-05	5
21777	-2e-05	1e-05	0.00011	0.00041	0.00076	0.00033	9e-05	2e-05	5
21778	-2e-05	1e-05	0.00011	0.00041	0.00076	0.00033	9e-05	2e-05	5
21779	-2e-05	1e-05	0.00011	0.00041	0.00076	0.00033	9e-05	2e-05	5
21780	-2e-05	1e-05	0.00011	0.00041	0.00076	0.00033	9e-05	2e-05	5
21781	-2e-05	1e-05	0.00011	0.00041	0.00076	0.00033	9e-05	2e-05	5
21782	-2e-05	1e-05	0.00011	0.00041	0.00076	0.00033	9e-05	2e-05	5
21783	-2e-05	1e-05	0.00011	0.00041	0.00076	0.00033	9e-05	2e-05	5
21784	-2e-05	1e-05	0.00011	0.00041	0.00076	0.00033	9e-05	2e-05	5
21785	-2e-05	1e-05	0.00011	0.00041	0.00076	0.00033	9e-05	2e-05	5
21786	-2e-05	1e-05	0.00011	0.00041	0.00076	0.00033	9e-05	2e-05	5
21788	-4e-05	0.00026	0.00018	0.00071	0.00042	0.00048	-3e-05	-1e-05	5
21789	3e-05	-9e-05	-2e-05	-0.00034	-0.00063	-0.00015	5e-05	2e-05	5
21790	3e-05	-9e-05	-2e-05	-0.00034	-0.00063	-0.00015	5e-05	2e-05	5
21791	3e-05	-9e-05	-2e-05	-0.00034	-0.00063	-0.00015	5e-05	2e-05	5
21792	3e-05	-9e-05	-2e-05	-0.00034	-0.00063	-0.00015	5e-05	2e-05	5
21793	3e-05	-9e-05	-2e-05	-0.00034	-0.00063	-0.00015	5e-05	2e-05	5
21794	3e-05	-9e-05	-2e-05	-0.00034	-0.00063	-0.00015	5e-05	2e-05	5
21795	3e-05	-9e-05	-2e-05	-0.00034	-0.00063	-0.00015	5e-05	2e-05	5
21796	3e-05	-9e-05	-2e-05	-0.00034	-0.00063	-0.00015	5e-05	2e-05	5
21797	3e-05	-9e-05	-2e-05	-0.00034	-0.00063	-0.00015	5e-05	2e-05	5
21798	3e-05	-9e-05	-2e-05	-0.00034	-0.00063	-0.00015	5e-05	2e-05	5
21799	3e-05	-9e-05	-2e-05	-0.00034	-0.00063	-0.00015	5e-05	2e-05	5
21800	3e-05	-9e-05	-2e-05	-0.00034	-0.00063	-0.00015	5e-05	2e-05	5
21801	-1e-05	5e-05	-0.00027	-0.00041	-0.00028	-0.00024	-0.00012	-6e-05	5
21802	-1e-05	5e-05	-0.00027	-0.00041	-0.00028	-0.00024	-0.00012	-6e-05	5
21803	-1e-05	5e-05	-0.00027	-0.00041	-0.00028	-0.00024	-0.00012	-6e-05	5
21804	-1e-05	5e-05	-0.00027	-0.00041	-0.00028	-0.00024	-0.00012	-6e-05	5
21805	-1e-05	5e-05	-0.00027	-0.00041	-0.00028	-0.00024	-0.00012	-6e-05	5
51335	-8e-05	-9e-05	-0.00011	-8e-05	-0.0008	-0.00034	-8e-05	-2e-05	5
51338	-8e-05	-9e-05	-0.00011	-8e-05	-0.0008	-0.00034	-8e-05	-2e-05	5
51339	-8e-05	-9e-05	-0.00011	-8e-05	-0.0008	-0.00034	-8e-05	-2e-05	5
51340	-8e-05	-9e-05	-0.00011	-8e-05	-0.0008	-0.00034	-8e-05	-2e-05	5
51341	-8e-05	-9e-05	-0.00011	-8e-05	-0.0008	-0.00034	-8e-05	-2e-05	5
51342	-8e-05	-9e-05	-0.00011	-8e-05	-0.0008	-0.00034	-8e-05	-2e-05	5
51343	-8e-05	-9e-05	-0.00011	-8e-05	-0.0008	-0.00034	-8e-05	-2e-05	5
51344	-8e-05	-9e-05	-0.00011	-8e-05	-0.0008	-0.00034	-8e-05	-2e-05	5
51345	0.00025	0.00025	0.00017	-0.00021	-2e-05	0.00015	1e-05	0	5
51346	-0.00036	-0.00033	-0.001	-0.00077	-0.00011	-0.00013	-0.00013	-0.00019	5
51347	-0.00036	-0.00033	-0.001	-0.00077	-0.00011	-0.00013	-0.00013	-0.00019	5
51348	-0.00036	-0.00033	-0.001	-0.00077	-0.00011	-0.00013	-0.00013	-0.00019	5
51349	-0.00036	-0.00033	-0.001	-0.00077	-0.00011	-0.00013	-0.00013	-0.00019	5
51350	-0.00036	-0.00033	-0.001	-0.00077	-0.00011	-0.00013	-0.00013	-0.00019	5
51351	-0.00036	-0.00033	-0.001	-0.00077	-0.00011	-0.00013	-0.00013	-0.00019	5
51352	-0.00036	-0.00033	-0.001	-0.00077	-0.00011	-0.00013	-0.00013	-0.00019	5
51353	-0.00036	-0.00033	-0.001	-0.00077	-0.00011	-0.00013	-0.00013	-0.00019	5
51354	-0.00036	-0.00033	-0.001	-0.00077	-0.00011	-0.00013	-0.00013	-0.00019	5
51355	-0.00036	-0.00033	-0.001	-0.00077	-0.00011	-0.00013	-0.00013	-0.00019	5
51356	-0.00036	-0.00033	-0.001	-0.00077	-0.00011	-0.00013	-0.00013	-0.00019	5
51357	-0.00036	-0.00033	-0.001	-0.00077	-0.00011	-0.00013	-0.00013	-0.00019	5
51358	-0.00036	-0.00033	-0.001	-0.00077	-0.00011	-0.00013	-0.00013	-0.00019	5
51359	-0.00036	-0.00033	-0.001	-0.00077	-0.00011	-0.00013	-0.00013	-0.00019	5
51360	-0.00036	-0.00033	-0.001	-0.00077	-0.00011	-0.00013	-0.00013	-0.00019	5
51361	-0.00036	-0.00033	-0.001	-0.00077	-0.00011	-0.00013	-0.00013	-0.00019	5
51362	-0.00036	-0.00033	-0.001	-0.00077	-0.00011	-0.00013	-0.00013	-0.00019	5
51363	-0.00036	-0.00033	-0.001	-0.00077	-0.00011	-0.00013	-0.00013	-0.00019	5
51364	-0.00036	-0.00033	-0.001	-0.00077	-0.00011	-0.00013	-0.00013	-0.00019	5
51365	-0.00036	-0.00033	-0.001	-0.00077	-0.00011	-0.00013	-0.00013	-0.00019	5
51366	-0.00036	-0.00033	-0.001	-0.00077	-0.00011	-0.00013	-0.00013	-0.00019	5
51367	-0.00036	-0.00033	-0.001	-0.00077	-0.00011	-0.00013	-0.00013	-0.00019	5
51368	0.00016	-6e-05	-0.00031	0.00028	0.00036	0.00031	-0.00014	6e-05	5
51369	0.00018	1e-05	0.00036	0.00035	-0.00075	-0.00059	3e-05	6e-05	5
51370	0.00018	1e-05	0.00036	0.00035	-0.00075	-0.00059	3e-05	6e-05	5
51371	0.00018	1e-05	0.00036	0.00035	-0.00075	-0.00059	3e-05	6e-05	5
51372	0.00018	1e-05	0.00036	0.00035	-0.00075	-0.00059	3e-05	6e-05	5
51373	0.00018	1e-05	0.00036	0.00035	-0.00075	-0.00059	3e-05	6e-05	5
51374	0.00018	1e-05	0.00036	0.00035	-0.00075	-0.00059	3e-05	6e-05	5
51375	0.00018	1e-05	0.00036	0.00035	-0.00075	-0.00059	3e-05	6e-05	5
51376	0.00018	1e-05	0.00036	0.00035	-0.00075	-0.00059	3e-05	6e-05	5
51377	0.00018	1e-05	0.00036	0.00035	-0.00075	-0.00059	3e-05	6e-05	5
51378	0.00018	1e-05	0.00036	0.00035	-0.00075	-0.00059	3e-05	6e-05	5
51379	0.00018	1e-05	0.00036	0.00035	-0.00075	-0.00059	3e-05	6e-05	5
51380	0.00018	1e-05	0.00036	0.00035	-0.00075	-0.00059	3e-05	6e-05	5
51381	0.00018	1e-05	0.00036	0.00035	-0.00075	-0.00059	3e-05	6e-05	5
51382	0.00018	1e-05	0.00036	0.00035	-0.00075	-0.00059	3e-05	6e-05	5
51383	-6e-05	0.00016	0.00036	0.00059	-0.00053	-0.00011	-0.00016	-0.0001	5
51384	-6e-05	0.00016	0.00036	0.00059	-0.00053	-0.00011	-0.00016	-0.0001	5
51385	-6e-05	0.00016	0.00036	0.00059	-0.00053	-0.00011	-0.00016	-0.0001	5
51386	-6e-05	0.00016	0.00036	0.00059	-0.00053	-0.00011	-0.00016	-0.0001	5
51388	-6e-05	0.00016	0.00036	0.00059	-0.00053	-0.00011	-0.00016	-0.0001	5
51390	-6e-05	0.00016	0.00036	0.00059	-0.00053	-0.00011	-0.00016	-0.0001	5
51391	-6e-05	0.00016	0.00036	0.00059	-0.00053	-0.00011	-0.00016	-0.0001	5
51392	-6e-05	0.00016	0.00036	0.00059	-0.00053	-0.00011	-0.00016	-0.0001	5
51393	-6e-05	0.00016	0.00036	0.00059	-0.00053	-0.00011	-0.00016	-0.0001	5
51394	-6e-05	0.00016	0.00036	0.00059	-0.00053	-0.00011	-0.00016	-0.0001	5
51395	-6e-05	0.00016	0.00036	0.00059	-0.00053	-0.00011	-0.00016	-0.0001	5
51396	-6e-05	0.00016	0.00036	0.00059	-0.00053	-0.00011	-0.00016	-0.0001	5
51397	-6e-05	0.00016	0.00036	0.00059	-0.00053	-0.00011	-0.00016	-0.0001	5
51398	-6e-05	0.00016	0.00036	0.00059	-0.00053	-0.00011	-0.00016	-0.0001	5
51399	-6e-05	0.00016	0.00036	0.00059	-0.00053	-0.00011	-0.00016	-0.0001	5
51400	-6e-05	0.00016	0.00036	0.00059	-0.00053	-0.00011	-0.00016	-0.0001	5
51401	-6e-05	0.00016	0.00036	0.00059	-0.00053	-0.00011	-0.00016	-0.0001	5
51402	-6e-05	0.00016	0.00036	0.00059	-0.00053	-0.00011	-0.00016	-0.0001	5
51403	-6e-05	0.00016	0.00036	0.00059	-0.00053	-0.00011	-0.00016	-0.0001	5
51404	-6e-05	0.00016	0.00036	0.00059	-0.00053	-0.00011	-0.00016	-0.0001	5
51405	-0.00036	-0.00032	-0.0002	0.0002	-0.00069	-0.00052	-0.00013	-0.0001	5
51406	2e-05	-0.00023	-0.00085	-0.00059	0.00024	-6e-05	-7e-05	-2e-05	5
51407	2e-05	-0.00023	-0.00085	-0.00059	0.00024	-6e-05	-7e-05	-2e-05	5
51408	2e-05	-0.00023	-0.00085	-0.00059	0.00024	-6e-05	-7e-05	-2e-05	5
51409	2e-05	-0.00023	-0.00085	-0.00059	0.00024	-6e-05	-7e-05	-2e-05	5
51410	2e-05	-0.00023	-0.00085	-0.00059	0.00024	-6e-05	-7e-05	-2e-05	5
51411	2e-05	-0.00023	-0.00085	-0.00059	0.00024	-6e-05	-7e-05	-2e-05	5
51412	2e-05	-0.00023	-0.00085	-0.00059	0.00024	-6e-05	-7e-05	-2e-05	5
51413	2e-05	-0.00023	-0.00085	-0.00059	0.00024	-6e-05	-7e-05	-2e-05	5
51414	2e-05	-0.00023	-0.00085	-0.00059	0.00024	-6e-05	-7e-05	-2e-05	5
51415	2e-05	-0.00023	-0.00085	-0.00059	0.00024	-6e-05	-7e-05	-2e-05	5
51416	2e-05	-0.00023	-0.00085	-0.00059	0.00024	-6e-05	-7e-05	-2e-05	5
51417	2e-05	-0.00023	-0.00085	-0.00059	0.00024	-6e-05	-7e-05	-2e-05	5
51418	2e-05	-0.00023	-0.00085	-0.00059	0.00024	-6e-05	-7e-05	-2e-05	5
51419	2e-05	-0.00023	-0.00085	-0.00059	0.00024	-6e-05	-7e-05	-2e-05	5
51420	2e-05	-0.00023	-0.00085	-0.00059	0.00024	-6e-05	-7e-05	-2e-05	5
51421	2e-05	-0.00023	-0.00085	-0.00059	0.00024	-6e-05	-7e-05	-2e-05	5
51422	2e-05	-0.00023	-0.00085	-0.00059	0.00024	-6e-05	-7e-05	-2e-05	5
51423	2e-05	-0.00023	-0.00085	-0.00059	0.00024	-6e-05	-7e-05	-2e-05	5
51424	2e-05	-0.00023	-0.00085	-0.00059	0.00024	-6e-05	-7e-05	-2e-05	5
51425	2e-05	-0.00023	-0.00085	-0.00059	0.00024	-6e-05	-7e-05	-2e-05	5
51426	2e-05	-0.00023	-0.00085	-0.00059	0.00024	-6e-05	-7e-05	-2e-05	5
51427	2e-05	-0.00023	-0.00085	-0.00059	0.00024	-6e-05	-7e-05	-2e-05	5
51428	-3e-05	3e-05	0.00012	1e-05	-0.00012	0.00033	5e-05	0	5
51429	-0.00017	-0.00014	-0.00054	-0.00056	0.00042	2e-05	4e-05	-2e-05	5
51430	-0.00017	-0.00014	-0.00054	-0.00056	0.00042	2e-05	4e-05	-2e-05	5
51431	-0.00017	-0.00014	-0.00054	-0.00056	0.00042	2e-05	4e-05	-2e-05	5
51432	-0.00017	-0.00014	-0.00054	-0.00056	0.00042	2e-05	4e-05	-2e-05	5
51433	-0.00017	-0.00014	-0.00054	-0.00056	0.00042	2e-05	4e-05	-2e-05	5
51434	-0.00017	-0.00014	-0.00054	-0.00056	0.00042	2e-05	4e-05	-2e-05	5
51435	-0.00017	-0.00014	-0.00054	-0.00056	0.00042	2e-05	4e-05	-2e-05	5
51436	-0.00017	-0.00014	-0.00054	-0.00056	0.00042	2e-05	4e-05	-2e-05	5
51438	-0.00017	-0.00014	-0.00054	-0.00056	0.00042	2e-05	4e-05	-2e-05	5
51439	-0.00017	-0.00014	-0.00054	-0.00056	0.00042	2e-05	4e-05	-2e-05	5
51440	-0.00017	-0.00014	-0.00054	-0.00056	0.00042	2e-05	4e-05	-2e-05	5
51441	-0.00017	-0.00014	-0.00054	-0.00056	0.00042	2e-05	4e-05	-2e-05	5
51442	-0.00017	-0.00014	-0.00054	-0.00056	0.00042	2e-05	4e-05	-2e-05	5
51443	-0.00029	-7e-05	-0.00035	-0.00015	8e-05	0	-5e-05	-4e-05	5
51444	-0.00029	-7e-05	-0.00035	-0.00015	8e-05	0	-5e-05	-4e-05	5
51445	-0.00029	-7e-05	-0.00035	-0.00015	8e-05	0	-5e-05	-4e-05	5
51446	-0.00029	-7e-05	-0.00035	-0.00015	8e-05	0	-5e-05	-4e-05	5
51447	-0.00029	-7e-05	-0.00035	-0.00015	8e-05	0	-5e-05	-4e-05	5
51448	-0.00029	-7e-05	-0.00035	-0.00015	8e-05	0	-5e-05	-4e-05	5
51449	-0.00029	-7e-05	-0.00035	-0.00015	8e-05	0	-5e-05	-4e-05	5
51450	-0.00029	-7e-05	-0.00035	-0.00015	8e-05	0	-5e-05	-4e-05	5
51451	-0.00029	-7e-05	-0.00035	-0.00015	8e-05	0	-5e-05	-4e-05	5
51452	-0.00029	-7e-05	-0.00035	-0.00015	8e-05	0	-5e-05	-4e-05	5
51453	-0.00029	-7e-05	-0.00035	-0.00015	8e-05	0	-5e-05	-4e-05	5
51454	-0.00029	-7e-05	-0.00035	-0.00015	8e-05	0	-5e-05	-4e-05	5
51455	-0.00029	-7e-05	-0.00035	-0.00015	8e-05	0	-5e-05	-4e-05	5
51456	-0.00029	-7e-05	-0.00035	-0.00015	8e-05	0	-5e-05	-4e-05	5
51457	-0.00029	-7e-05	-0.00035	-0.00015	8e-05	0	-5e-05	-4e-05	5
51458	-0.00029	-7e-05	-0.00035	-0.00015	8e-05	0	-5e-05	-4e-05	5
51459	-0.00029	-7e-05	-0.00035	-0.00015	8e-05	0	-5e-05	-4e-05	5
51460	-0.00029	-7e-05	-0.00035	-0.00015	8e-05	0	-5e-05	-4e-05	5
51461	-0.00029	-7e-05	-0.00035	-0.00015	8e-05	0	-5e-05	-4e-05	5
51462	-0.00029	-7e-05	-0.00035	-0.00015	8e-05	0	-5e-05	-4e-05	5
51463	-0.00029	-7e-05	-0.00035	-0.00015	8e-05	0	-5e-05	-4e-05	5
51464	-0.00029	-7e-05	-0.00035	-0.00015	8e-05	0	-5e-05	-4e-05	5
51465	-0.00029	-7e-05	-0.00035	-0.00015	8e-05	0	-5e-05	-4e-05	5
51466	-0.00044	-0.00015	-0.00021	-0.00043	-0.00016	0.00021	5e-05	-0.00012	5
51467	-0.00044	-0.00015	-0.00021	-0.00043	-0.00016	0.00021	5e-05	-0.00012	5
51468	-0.00044	-0.00015	-0.00021	-0.00043	-0.00016	0.00021	5e-05	-0.00012	5
51469	-0.00044	-0.00015	-0.00021	-0.00043	-0.00016	0.00021	5e-05	-0.00012	5
51470	-0.00044	-0.00015	-0.00021	-0.00043	-0.00016	0.00021	5e-05	-0.00012	5
51471	-0.00044	-0.00015	-0.00021	-0.00043	-0.00016	0.00021	5e-05	-0.00012	5
51472	-0.00044	-0.00015	-0.00021	-0.00043	-0.00016	0.00021	5e-05	-0.00012	5
51473	-0.00044	-0.00015	-0.00021	-0.00043	-0.00016	0.00021	5e-05	-0.00012	5
51474	-0.00044	-0.00015	-0.00021	-0.00043	-0.00016	0.00021	5e-05	-0.00012	5
51475	-0.00044	-0.00015	-0.00021	-0.00043	-0.00016	0.00021	5e-05	-0.00012	5
51476	-0.00044	-0.00015	-0.00021	-0.00043	-0.00016	0.00021	5e-05	-0.00012	5
51477	-0.00044	-0.00015	-0.00021	-0.00043	-0.00016	0.00021	5e-05	-0.00012	5
51478	-0.00044	-0.00015	-0.00021	-0.00043	-0.00016	0.00021	5e-05	-0.00012	5
51479	-0.00044	-0.00015	-0.00021	-0.00043	-0.00016	0.00021	5e-05	-0.00012	5
51480	-0.00044	-0.00015	-0.00021	-0.00043	-0.00016	0.00021	5e-05	-0.00012	5
51481	-0.00044	-0.00015	-0.00021	-0.00043	-0.00016	0.00021	5e-05	-0.00012	5
51482	-0.00044	-0.00015	-0.00021	-0.00043	-0.00016	0.00021	5e-05	-0.00012	5
51483	-0.00044	-0.00015	-0.00021	-0.00043	-0.00016	0.00021	5e-05	-0.00012	5
51484	-0.00044	-0.00015	-0.00021	-0.00043	-0.00016	0.00021	5e-05	-0.00012	5
51485	-0.00044	-0.00015	-0.00021	-0.00043	-0.00016	0.00021	5e-05	-0.00012	5
51486	-0.00044	-0.00015	-0.00021	-0.00043	-0.00016	0.00021	5e-05	-0.00012	5
51488	-0.00044	-0.00015	-0.00021	-0.00043	-0.00016	0.00021	5e-05	-0.00012	5
51489	-0.00044	-0.00015	-0.00021	-0.00043	-0.00016	0.00021	5e-05	-0.00012	5
51490	0.00051	0.00026	0.0003	0.00059	0.00083	-0.00016	8e-05	0.00019	5
51491	0.00051	0.00026	0.0003	0.00059	0.00083	-0.00016	8e-05	0.00019	5
51492	0.00051	0.00026	0.0003	0.00059	0.00083	-0.00016	8e-05	0.00019	5
51493	0.00051	0.00026	0.0003	0.00059	0.00083	-0.00016	8e-05	0.00019	5
51494	0.00051	0.00026	0.0003	0.00059	0.00083	-0.00016	8e-05	0.00019	5
51495	0.00051	0.00026	0.0003	0.00059	0.00083	-0.00016	8e-05	0.00019	5
51496	0.00051	0.00026	0.0003	0.00059	0.00083	-0.00016	8e-05	0.00019	5
51497	0.00051	0.00026	0.0003	0.00059	0.00083	-0.00016	8e-05	0.00019	5
51498	0.00051	0.00026	0.0003	0.00059	0.00083	-0.00016	8e-05	0.00019	5
51499	0.00051	0.00026	0.0003	0.00059	0.00083	-0.00016	8e-05	0.00019	5
51500	0.00051	0.00026	0.0003	0.00059	0.00083	-0.00016	8e-05	0.00019	5
51501	0.00051	0.00026	0.0003	0.00059	0.00083	-0.00016	8e-05	0.00019	5
51502	0.00051	0.00026	0.0003	0.00059	0.00083	-0.00016	8e-05	0.00019	5
51503	0.00051	0.00026	0.0003	0.00059	0.00083	-0.00016	8e-05	0.00019	5
51504	0.00051	0.00026	0.0003	0.00059	0.00083	-0.00016	8e-05	0.00019	5
51505	0.00051	0.00026	0.0003	0.00059	0.00083	-0.00016	8e-05	0.00019	5
51506	0.00051	0.00026	0.0003	0.00059	0.00083	-0.00016	8e-05	0.00019	5
51507	0.00051	0.00026	0.0003	0.00059	0.00083	-0.00016	8e-05	0.00019	5
51508	0.00051	0.00026	0.0003	0.00059	0.00083	-0.00016	8e-05	0.00019	5
51509	0.00051	0.00026	0.0003	0.00059	0.00083	-0.00016	8e-05	0.00019	5
51510	-0.00035	0.00035	0.00015	0.00035	0.00084	0.00077	6e-05	-1e-05	5
51511	-0.00035	0.00035	0.00015	0.00035	0.00084	0.00077	6e-05	-1e-05	5
51512	-0.00035	0.00035	0.00015	0.00035	0.00084	0.00077	6e-05	-1e-05	5
51513	-0.00035	0.00035	0.00015	0.00035	0.00084	0.00077	6e-05	-1e-05	5
51514	-0.00035	0.00035	0.00015	0.00035	0.00084	0.00077	6e-05	-1e-05	5
51515	-0.00035	0.00035	0.00015	0.00035	0.00084	0.00077	6e-05	-1e-05	5
51516	-0.00035	0.00035	0.00015	0.00035	0.00084	0.00077	6e-05	-1e-05	5
51517	-0.00035	0.00035	0.00015	0.00035	0.00084	0.00077	6e-05	-1e-05	5
51518	0.00049	0	0.00023	-0.00052	-8e-05	0.0002	0.00014	0.0001	5
51519	0.00049	0	0.00023	-0.00052	-8e-05	0.0002	0.00014	0.0001	5
51520	0.00049	0	0.00023	-0.00052	-8e-05	0.0002	0.00014	0.0001	5
51521	0.00049	0	0.00023	-0.00052	-8e-05	0.0002	0.00014	0.0001	5
51522	0.00049	0	0.00023	-0.00052	-8e-05	0.0002	0.00014	0.0001	5
51523	0.00049	0	0.00023	-0.00052	-8e-05	0.0002	0.00014	0.0001	5
51524	0.00049	0	0.00023	-0.00052	-8e-05	0.0002	0.00014	0.0001	5
51525	0	0	0.00013	0.00032	0.00029	0.00012	-9e-05	-3e-05	5
51526	0.00024	1e-05	-0.00014	-0.00048	0.00075	0.0003	-3e-05	5e-05	5
51527	0.00024	1e-05	-0.00014	-0.00048	0.00075	0.0003	-3e-05	5e-05	5
51528	0.00024	1e-05	-0.00014	-0.00048	0.00075	0.0003	-3e-05	5e-05	5
51529	0.00024	1e-05	-0.00014	-0.00048	0.00075	0.0003	-3e-05	5e-05	5
51530	0.00024	1e-05	-0.00014	-0.00048	0.00075	0.0003	-3e-05	5e-05	5
51531	0.00024	1e-05	-0.00014	-0.00048	0.00075	0.0003	-3e-05	5e-05	5
51532	0.00024	1e-05	-0.00014	-0.00048	0.00075	0.0003	-3e-05	5e-05	5
51533	0.00024	1e-05	-0.00014	-0.00048	0.00075	0.0003	-3e-05	5e-05	5
51534	0.00024	1e-05	-0.00014	-0.00048	0.00075	0.0003	-3e-05	5e-05	5
51535	0.00024	1e-05	-0.00014	-0.00048	0.00075	0.0003	-3e-05	5e-05	5
51536	0.00024	1e-05	-0.00014	-0.00048	0.00075	0.0003	-3e-05	5e-05	5
51538	0.00024	1e-05	-0.00014	-0.00048	0.00075	0.0003	-3e-05	5e-05	5
51539	0.00024	1e-05	-0.00014	-0.00048	0.00075	0.0003	-3e-05	5e-05	5
51540	0.00024	1e-05	-0.00014	-0.00048	0.00075	0.0003	-3e-05	5e-05	5
51541	0.00024	1e-05	-0.00014	-0.00048	0.00075	0.0003	-3e-05	5e-05	5
51542	0.00024	1e-05	-0.00014	-0.00048	0.00075	0.0003	-3e-05	5e-05	5
51543	0.00024	1e-05	-0.00014	-0.00048	0.00075	0.0003	-3e-05	5e-05	5
