20102	-2e-05	1e-05	0.0003	0.00037	0.00021	0.00029	-2e-05	0	5
20103	-2e-05	1e-05	0.0003	0.00037	0.00021	0.00029	-2e-05	0	5
20104	-2e-05	-4e-05	-0.00025	-0.00012	0.00021	0	-4e-05	-2e-05	5
20105	-4e-05	-0.00021	-0.00032	-0.0003	0.00011	0.00012	0.00014	7e-05	5
20106	-4e-05	-0.00021	-0.00032	-0.0003	0.00011	0.00012	0.00014	7e-05	5
20107	-4e-05	-0.00021	-0.00032	-0.0003	0.00011	0.00012	0.00014	7e-05	5
20108	-4e-05	-0.00021	-0.00032	-0.0003	0.00011	0.00012	0.00014	7e-05	5
20109	-4e-05	-0.00021	-0.00032	-0.0003	0.00011	0.00012	0.00014	7e-05	5
20110	-4e-05	-0.00021	-0.00032	-0.0003	0.00011	0.00012	0.00014	7e-05	5
20111	-4e-05	-0.00021	-0.00032	-0.0003	0.00011	0.00012	0.00014	7e-05	5
20112	-4e-05	-0.00021	-0.00032	-0.0003	0.00011	0.00012	0.00014	7e-05	5
20113	-4e-05	-0.00021	-0.00032	-0.0003	0.00011	0.00012	0.00014	7e-05	5
20114	-4e-05	-0.00021	-0.00032	-0.0003	0.00011	0.00012	0.00014	7e-05	5
20115	-4e-05	-0.00021	-0.00032	-0.0003	0.00011	0.00012	0.00014	7e-05	5
20116	-4e-05	-0.00021	-0.00032	-0.0003	0.00011	0.00012	0.00014	7e-05	5
20117	-4e-05	-0.00021	-0.00032	-0.0003	0.00011	0.00012	0.00014	7e-05	5
20118	-4e-05	-0.00021	-0.00032	-0.0003	0.00011	0.00012	0.00014	7e-05	5
20119	-4e-05	-0.00021	-0.00032	-0.0003	0.00011	0.00012	0.00014	7e-05	5
20120	-4e-05	-0.00021	-0.00032	-0.0003	0.00011	0.00012	0.00014	7e-05	5
20121	0.00015	0.00029	0.00034	0.00038	0.00012	3e-05	9e-05	0.0001	5
20122	-2e-05	9e-05	-0.00026	0.00113	0.00116	0.00028	0.00011	3e-05	5
20123	-2e-05	9e-05	-0.00026	0.00113	0.00116	0.00028	0.00011	3e-05	5
20124	-2e-05	9e-05	-0.00026	0.00113	0.00116	0.00028	0.00011	3e-05	5
20125	-2e-05	9e-05	-0.00026	0.00113	0.00116	0.00028	0.00011	3e-05	5
20126	-2e-05	9e-05	-0.00026	0.00113	0.00116	0.00028	0.00011	3e-05	5
20127	-2e-05	9e-05	-0.00026	0.00113	0.00116	0.00028	0.00011	3e-05	5
20128	-2e-05	9e-05	-0.00026	0.00113	0.00116	0.00028	0.00011	3e-05	5
20129	-2e-05	9e-05	-0.00026	0.00113	0.00116	0.00028	0.00011	3e-05	5
20130	-2e-05	9e-05	-0.00026	0.00113	0.00116	0.00028	0.00011	3e-05	5
20131	-2e-05	9e-05	-0.00026	0.00113	0.00116	0.00028	0.00011	3e-05	5
20132	-2e-05	9e-05	-0.00026	0.00113	0.00116	0.00028	0.00011	3e-05	5
20133	-2e-05	9e-05	-0.00026	0.00113	0.00116	0.00028	0.00011	3e-05	5
20134	-2e-05	9e-05	-0.00026	0.00113	0.00116	0.00028	0.00011	3e-05	5
20135	-2e-05	9e-05	-0.00026	0.00113	0.00116	0.00028	0.00011	3e-05	5
20136	-2e-05	9e-05	-0.00026	0.00113	0.00116	0.00028	0.00011	3e-05	5
20138	-2e-05	9e-05	-0.00026	0.00113	0.00116	0.00028	0.00011	3e-05	5
20139	-2e-05	9e-05	-0.00026	0.00113	0.00116	0.00028	0.00011	3e-05	5
20140	-2e-05	9e-05	-0.00026	0.00113	0.00116	0.00028	0.00011	3e-05	5
20141	-2e-05	9e-05	-0.00026	0.00113	0.00116	0.00028	0.00011	3e-05	5
20142	-2e-05	9e-05	-0.00026	0.00113	0.00116	0.00028	0.00011	3e-05	5
20143	5e-05	3e-05	-1e-05	0.00022	0.00052	0.0002	0.00011	8e-05	5
20144	5e-05	3e-05	-1e-05	0.00022	0.00052	0.0002	0.00011	8e-05	5
20145	-0.0001	-0.00022	1e-05	-0.00073	-0.0004	-0.00033	-3e-05	-0.00012	5
20146	-0.0001	-0.00022	1e-05	-0.00073	-0.0004	-0.00033	-3e-05	-0.00012	5
20147	-0.0001	-0.00022	1e-05	-0.00073	-0.0004	-0.00033	-3e-05	-0.00012	5
20148	-0.0001	-0.00022	1e-05	-0.00073	-0.0004	-0.00033	-3e-05	-0.00012	5
20149	-0.0001	-0.00022	1e-05	-0.00073	-0.0004	-0.00033	-3e-05	-0.00012	5
20150	-0.0001	-0.00022	1e-05	-0.00073	-0.0004	-0.00033	-3e-05	-0.00012	5
20151	-0.0001	-0.00022	1e-05	-0.00073	-0.0004	-0.00033	-3e-05	-0.00012	5
20152	-0.0001	-0.00022	1e-05	-0.00073	-0.0004	-0.00033	-3e-05	-0.00012	5
20153	-0.0001	-0.00022	1e-05	-0.00073	-0.0004	-0.00033	-3e-05	-0.00012	5
20154	-0.0001	-0.00022	1e-05	-0.00073	-0.0004	-0.00033	-3e-05	-0.00012	5
20155	-0.0001	-0.00022	1e-05	-0.00073	-0.0004	-0.00033	-3e-05	-0.00012	5
20156	-0.0001	-0.00022	1e-05	-0.00073	-0.0004	-0.00033	-3e-05	-0.00012	5
20157	-0.0001	-0.00022	1e-05	-0.00073	-0.0004	-0.00033	-3e-05	-0.00012	5
20158	-0.0001	-0.00022	1e-05	-0.00073	-0.0004	-0.00033	-3e-05	-0.00012	5
20159	6e-05	0.0002	-5e-05	-2e-05	0.00016	8e-05	6e-05	4e-05	5
20160	-0.00023	-0.00023	-0.00033	0	0.00034	0.00033	-3e-05	-8e-05	5
20161	-0.00023	-0.00023	-0.00033	0	0.00034	0.00033	-3e-05	-8e-05	5
20162	-0.00023	-0.00023	-0.00033	0	0.00034	0.00033	-3e-05	-8e-05	5
20163	-0.00023	-0.00023	-0.00033	0	0.00034	0.00033	-3e-05	-8e-05	5
20164	-0.00023	-0.00023	-0.00033	0	0.00034	0.00033	-3e-05	-8e-05	5
20165	-0.00023	-0.00023	-0.00033	0	0.00034	0.00033	-3e-05	-8e-05	5
20166	-0.00023	-0.00023	-0.00033	0	0.00034	0.00033	-3e-05	-8e-05	5
20167	-0.00023	-0.00023	-0.00033	0	0.00034	0.00033	-3e-05	-8e-05	5
20168	-0.00023	-0.00023	-0.00033	0	0.00034	0.00033	-3e-05	-8e-05	5
20169	-0.00023	-0.00023	-0.00033	0	0.00034	0.00033	-3e-05	-8e-05	5
20170	-0.00023	-0.00023	-0.00033	0	0.00034	0.00033	-3e-05	-8e-05	5
20171	-0.00023	-0.00023	-0.00033	0	0.00034	0.00033	-3e-05	-8e-05	5
20172	-0.00023	-0.00023	-0.00033	0	0.00034	0.00033	-3e-05	-8e-05	5
20173	-0.00023	-0.00023	-0.00033	0	0.00034	0.00033	-3e-05	-8e-05	5
20174	-0.00023	-0.00023	-0.00033	0	0.00034	0.00033	-3e-05	-8e-05	5
20175	-0.00023	-0.00023	-0.00033	0	0.00034	0.00033	-3e-05	-8e-05	5
20176	-0.00023	-0.00023	-0.00033	0	0.00034	0.00033	-3e-05	-8e-05	5
20177	-0.00023	-0.00023	-0.00033	0	0.00034	0.00033	-3e-05	-8e-05	5
20178	-0.00023	-0.00023	-0.00033	0	0.00034	0.00033	-3e-05	-8e-05	5
20179	-0.00023	-0.00023	-0.00033	0	0.00034	0.00033	-3e-05	-8e-05	5
20180	-0.00023	-0.00023	-0.00033	0	0.00034	0.00033	-3e-05	-8e-05	5
20181	8e-05	4e-05	-0.00012	-0.00042	8e-05	-0.00013	-1e-05	0	5
20182	-4e-05	-4e-05	-8e-05	2e-05	0.00039	0.00018	4e-05	1e-05	5
20183	1e-05	-6e-05	-3e-05	-0.00034	-0.00047	-0.00044	-1e-05	-3e-05	5
20184	1e-05	-6e-05	-3e-05	-0.00034	-0.00047	-0.00044	-1e-05	-3e-05	5
20185	1e-05	-6e-05	-3e-05	-0.00034	-0.00047	-0.00044	-1e-05	-3e-05	5
20186	1e-05	-6e-05	-3e-05	-0.00034	-0.00047	-0.00044	-1e-05	-3e-05	5
20188	1e-05	-6e-05	-3e-05	-0.00034	-0.00047	-0.00044	-1e-05	-3e-05	5
20189	1e-05	-6e-05	-3e-05	-0.00034	-0.00047	-0.00044	-1e-05	-3e-05	5
20190	1e-05	-6e-05	-3e-05	-0.00034	-0.00047	-0.00044	-1e-05	-3e-05	5
20191	1e-05	-6e-05	-3e-05	-0.00034	-0.00047	-0.00044	-1e-05	-3e-05	5
20192	1e-05	-6e-05	-3e-05	-0.00034	-0.00047	-0.00044	-1e-05	-3e-05	5
20193	1e-05	-6e-05	-3e-05	-0.00034	-0.00047	-0.00044	-1e-05	-3e-05	5
20194	1e-05	-6e-05	-3e-05	-0.00034	-0.00047	-0.00044	-1e-05	-3e-05	5
20195	1e-05	-6e-05	-3e-05	-0.00034	-0.00047	-0.00044	-1e-05	-3e-05	5
20196	1e-05	-6e-05	-3e-05	-0.00034	-0.00047	-0.00044	-1e-05	-3e-05	5
20197	1e-05	-6e-05	-3e-05	-0.00034	-0.00047	-0.00044	-1e-05	-3e-05	5
20198	1e-05	-6e-05	-3e-05	-0.00034	-0.00047	-0.00044	-1e-05	-3e-05	5
20199	1e-05	-6e-05	-3e-05	-0.00034	-0.00047	-0.00044	-1e-05	-3e-05	5
20200	1e-05	-6e-05	-3e-05	-0.00034	-0.00047	-0.00044	-1e-05	-3e-05	5
20201	1e-05	-6e-05	-3e-05	-0.00034	-0.00047	-0.00044	-1e-05	-3e-05	5
20202	1e-05	-6e-05	-3e-05	-0.00034	-0.00047	-0.00044	-1e-05	-3e-05	5
20203	1e-05	0	4e-05	0.00033	0.00022	0.00012	2e-05	1e-05	5
20204	1e-05	0	4e-05	0.00033	0.00022	0.00012	2e-05	1e-05	5
20205	8e-05	-0.00017	-0.00071	-0.00023	0.00086	0.00026	0.00022	0.00016	5
20206	8e-05	-0.00017	-0.00071	-0.00023	0.00086	0.00026	0.00022	0.00016	5
20207	8e-05	-0.00017	-0.00071	-0.00023	0.00086	0.00026	0.00022	0.00016	5
20209	8e-05	-0.00017	-0.00071	-0.00023	0.00086	0.00026	0.00022	0.00016	5
20210	8e-05	-0.00017	-0.00071	-0.00023	0.00086	0.00026	0.00022	0.00016	5
20211	8e-05	-0.00017	-0.00071	-0.00023	0.00086	0.00026	0.00022	0.00016	5
20212	8e-05	-0.00017	-0.00071	-0.00023	0.00086	0.00026	0.00022	0.00016	5
20213	8e-05	-0.00017	-0.00071	-0.00023	0.00086	0.00026	0.00022	0.00016	5
20214	8e-05	-0.00017	-0.00071	-0.00023	0.00086	0.00026	0.00022	0.00016	5
20215	8e-05	-0.00017	-0.00071	-0.00023	0.00086	0.00026	0.00022	0.00016	5
20216	8e-05	-0.00017	-0.00071	-0.00023	0.00086	0.00026	0.00022	0.00016	5
20217	8e-05	-0.00017	-0.00071	-0.00023	0.00086	0.00026	0.00022	0.00016	5
20218	1e-05	-6e-05	4e-05	-0.00012	0	8e-05	-1e-05	-2e-05	5
20219	1e-05	-6e-05	4e-05	-0.00012	0	8e-05	-1e-05	-2e-05	5
20220	5e-05	0.00026	0.00053	0.00025	-0.00043	-0.00015	-0.00014	-5e-05	5
20221	5e-05	0.00026	0.00053	0.00025	-0.00043	-0.00015	-0.00014	-5e-05	5
20222	5e-05	0.00026	0.00053	0.00025	-0.00043	-0.00015	-0.00014	-5e-05	5
20223	5e-05	0.00026	0.00053	0.00025	-0.00043	-0.00015	-0.00014	-5e-05	5
20224	5e-05	0.00026	0.00053	0.00025	-0.00043	-0.00015	-0.00014	-5e-05	5
20225	5e-05	0.00026	0.00053	0.00025	-0.00043	-0.00015	-0.00014	-5e-05	5
20226	5e-05	0.00026	0.00053	0.00025	-0.00043	-0.00015	-0.00014	-5e-05	5
20227	5e-05	0.00026	0.00053	0.00025	-0.00043	-0.00015	-0.00014	-5e-05	5
20228	5e-05	0.00026	0.00053	0.00025	-0.00043	-0.00015	-0.00014	-5e-05	5
20229	5e-05	0.00026	0.00053	0.00025	-0.00043	-0.00015	-0.00014	-5e-05	5
20230	5e-05	0.00026	0.00053	0.00025	-0.00043	-0.00015	-0.00014	-5e-05	5
20231	5e-05	0.00026	0.00053	0.00025	-0.00043	-0.00015	-0.00014	-5e-05	5
20232	5e-05	0.00026	0.00053	0.00025	-0.00043	-0.00015	-0.00014	-5e-05	5
20233	5e-05	0.00026	0.00053	0.00025	-0.00043	-0.00015	-0.00014	-5e-05	5
20234	5e-05	0.00026	0.00053	0.00025	-0.00043	-0.00015	-0.00014	-5e-05	5
20235	5e-05	0.00026	0.00053	0.00025	-0.00043	-0.00015	-0.00014	-5e-05	5
20236	5e-05	0.00026	0.00053	0.00025	-0.00043	-0.00015	-0.00014	-5e-05	5
20238	5e-05	0.00026	0.00053	0.00025	-0.00043	-0.00015	-0.00014	-5e-05	5
20239	5e-05	0.00026	0.00053	0.00025	-0.00043	-0.00015	-0.00014	-5e-05	5
20240	5e-05	0.00026	0.00053	0.00025	-0.00043	-0.00015	-0.00014	-5e-05	5
20241	5e-05	0.00026	0.00053	0.00025	-0.00043	-0.00015	-0.00014	-5e-05	5
20242	5e-05	0.00026	0.00053	0.00025	-0.00043	-0.00015	-0.00014	-5e-05	5
20243	5e-05	0.00026	0.00053	0.00025	-0.00043	-0.00015	-0.00014	-5e-05	5
20244	5e-05	0.00026	0.00053	0.00025	-0.00043	-0.00015	-0.00014	-5e-05	5
20245	5e-05	0.00026	0.00053	0.00025	-0.00043	-0.00015	-0.00014	-5e-05	5
20246	5e-05	0.00026	0.00053	0.00025	-0.00043	-0.00015	-0.00014	-5e-05	5
20247	5e-05	0.00026	0.00053	0.00025	-0.00043	-0.00015	-0.00014	-5e-05	5
20248	0.00013	0.00033	-6e-05	0.00059	0.00044	0.0002	6e-05	8e-05	5
20249	0.00013	0.00033	-6e-05	0.00059	0.00044	0.0002	6e-05	8e-05	5
20250	2e-05	4e-05	-0.00024	-0.00079	-0.00054	-0.00019	6e-05	4e-05	5
20251	2e-05	4e-05	-0.00024	-0.00079	-0.00054	-0.00019	6e-05	4e-05	5
20252	2e-05	4e-05	-0.00024	-0.00079	-0.00054	-0.00019	6e-05	4e-05	5
20253	2e-05	4e-05	-0.00024	-0.00079	-0.00054	-0.00019	6e-05	4e-05	5
20254	2e-05	4e-05	-0.00024	-0.00079	-0.00054	-0.00019	6e-05	4e-05	5
20255	2e-05	4e-05	-0.00024	-0.00079	-0.00054	-0.00019	6e-05	4e-05	5
20256	2e-05	4e-05	-0.00024	-0.00079	-0.00054	-0.00019	6e-05	4e-05	5
20257	2e-05	4e-05	-0.00024	-0.00079	-0.00054	-0.00019	6e-05	4e-05	5
20258	2e-05	4e-05	-0.00024	-0.00079	-0.00054	-0.00019	6e-05	4e-05	5
20259	2e-05	4e-05	-0.00024	-0.00079	-0.00054	-0.00019	6e-05	4e-05	5
20260	2e-05	4e-05	-0.00024	-0.00079	-0.00054	-0.00019	6e-05	4e-05	5
20261	2e-05	4e-05	-0.00024	-0.00079	-0.00054	-0.00019	6e-05	4e-05	5
20262	2e-05	4e-05	-0.00024	-0.00079	-0.00054	-0.00019	6e-05	4e-05	5
20263	3e-05	7e-05	-9e-05	1e-05	-8e-05	-6e-05	1e-05	0	5
20264	3e-05	7e-05	-9e-05	1e-05	-8e-05	-6e-05	1e-05	0	5
20265	4e-05	0	0.00012	0.00055	0.00029	-5e-05	-3e-05	3e-05	5
20266	4e-05	0	0.00012	0.00055	0.00029	-5e-05	-3e-05	3e-05	5
20267	4e-05	0	0.00012	0.00055	0.00029	-5e-05	-3e-05	3e-05	5
20268	4e-05	0	0.00012	0.00055	0.00029	-5e-05	-3e-05	3e-05	5
20269	4e-05	0	0.00012	0.00055	0.00029	-5e-05	-3e-05	3e-05	5
20270	4e-05	0	0.00012	0.00055	0.00029	-5e-05	-3e-05	3e-05	5
20271	4e-05	0	0.00012	0.00055	0.00029	-5e-05	-3e-05	3e-05	5
20272	4e-05	0	0.00012	0.00055	0.00029	-5e-05	-3e-05	3e-05	5
20273	4e-05	0	0.00012	0.00055	0.00029	-5e-05	-3e-05	3e-05	5
20274	4e-05	0	0.00012	0.00055	0.00029	-5e-05	-3e-05	3e-05	5
20275	4e-05	0	0.00012	0.00055	0.00029	-5e-05	-3e-05	3e-05	5
20276	4e-05	0	0.00012	0.00055	0.00029	-5e-05	-3e-05	3e-05	5
20277	-0.00016	-0.00032	-0.00043	-0.00058	-1e-05	0	-0.00012	-9e-05	5
20278	-0.00017	-0.00015	4e-05	0.00024	0.00021	-0.00024	1e-05	-2e-05	5
20279	-0.00017	-0.00015	4e-05	0.00024	0.00021	-0.00024	1e-05	-2e-05	5
20280	-0.00017	-0.00015	4e-05	0.00024	0.00021	-0.00024	1e-05	-2e-05	5
20281	-0.00017	-0.00015	4e-05	0.00024	0.00021	-0.00024	1e-05	-2e-05	5
20282	-0.00017	-0.00015	4e-05	0.00024	0.00021	-0.00024	1e-05	-2e-05	5
20283	-0.00017	-0.00015	4e-05	0.00024	0.00021	-0.00024	1e-05	-2e-05	5
20284	-5e-05	-6e-05	0.00042	0.00036	-0.00056	-4e-05	-0.00014	-8e-05	5
20285	-5e-05	-6e-05	0.00042	0.00036	-0.00056	-4e-05	-0.00014	-8e-05	5
20286	-5e-05	-6e-05	0.00042	0.00036	-0.00056	-4e-05	-0.00014	-8e-05	5
20288	-5e-05	-6e-05	0.00042	0.00036	-0.00056	-4e-05	-0.00014	-8e-05	5
20289	-5e-05	-6e-05	0.00042	0.00036	-0.00056	-4e-05	-0.00014	-8e-05	5
20290	-5e-05	-6e-05	0.00042	0.00036	-0.00056	-4e-05	-0.00014	-8e-05	5
20291	-5e-05	-6e-05	0.00042	0.00036	-0.00056	-4e-05	-0.00014	-8e-05	5
20292	-5e-05	-6e-05	0.00042	0.00036	-0.00056	-4e-05	-0.00014	-8e-05	5
20293	-5e-05	-6e-05	0.00042	0.00036	-0.00056	-4e-05	-0.00014	-8e-05	5
20294	-5e-05	-6e-05	0.00042	0.00036	-0.00056	-4e-05	-0.00014	-8e-05	5
20295	-5e-05	-6e-05	0.00042	0.00036	-0.00056	-4e-05	-0.00014	-8e-05	5
20296	-5e-05	-6e-05	0.00042	0.00036	-0.00056	-4e-05	-0.00014	-8e-05	5
20297	-5e-05	-6e-05	0.00042	0.00036	-0.00056	-4e-05	-0.00014	-8e-05	5
20298	-5e-05	-6e-05	0.00042	0.00036	-0.00056	-4e-05	-0.00014	-8e-05	5
20299	-5e-05	-6e-05	0.00042	0.00036	-0.00056	-4e-05	-0.00014	-8e-05	5
20300	-5e-05	-6e-05	0.00042	0.00036	-0.00056	-4e-05	-0.00014	-8e-05	5
20301	-0.00023	-0.00016	-5e-05	-0.00041	-0.00055	-0.00029	-0.0002	-0.00012	5
20302	0.00012	0.00025	0.00057	0.00127	0.0009	0.0007	0.00033	0.00014	5
20303	0.00012	0.00025	0.00057	0.00127	0.0009	0.0007	0.00033	0.00014	5
20304	0.00012	0.00025	0.00057	0.00127	0.0009	0.0007	0.00033	0.00014	5
20305	0.00012	0.00025	0.00057	0.00127	0.0009	0.0007	0.00033	0.00014	5
20306	0.00012	0.00025	0.00057	0.00127	0.0009	0.0007	0.00033	0.00014	5
20307	0.00012	0.00025	0.00057	0.00127	0.0009	0.0007	0.00033	0.00014	5
20308	0.00012	0.00025	0.00057	0.00127	0.0009	0.0007	0.00033	0.00014	5
20309	0.00012	0.00025	0.00057	0.00127	0.0009	0.0007	0.00033	0.00014	5
20310	0.00012	0.00025	0.00057	0.00127	0.0009	0.0007	0.00033	0.00014	5
20311	0.00012	0.00025	0.00057	0.00127	0.0009	0.0007	0.00033	0.00014	5
20312	0.00012	0.00025	0.00057	0.00127	0.0009	0.0007	0.00033	0.00014	5
20313	0.00012	0.00025	0.00057	0.00127	0.0009	0.0007	0.00033	0.00014	5
20314	0.00012	0.00025	0.00057	0.00127	0.0009	0.0007	0.00033	0.00014	5
20315	0.00012	0.00025	0.00057	0.00127	0.0009	0.0007	0.00033	0.00014	5
20316	0.00012	0.00025	0.00057	0.00127	0.0009	0.0007	0.00033	0.00014	5
20317	0.00012	0.00025	0.00057	0.00127	0.0009	0.0007	0.00033	0.00014	5
20318	0.00012	0.00025	0.00057	0.00127	0.0009	0.0007	0.00033	0.00014	5
20319	0.00012	0.00025	0.00057	0.00127	0.0009	0.0007	0.00033	0.00014	5
20320	0.00012	0.00025	0.00057	0.00127	0.0009	0.0007	0.00033	0.00014	5
20321	0.00012	0.00025	0.00057	0.00127	0.0009	0.0007	0.00033	0.00014	5
20322	0.00012	0.00025	0.00057	0.00127	0.0009	0.0007	0.00033	0.00014	5
20323	-0.00012	-0.00026	-0.00046	-0.00118	-0.00056	-0.00026	3e-05	-0.00011	5
20324	-0.00012	-0.00026	-0.00046	-0.00118	-0.00056	-0.00026	3e-05	-0.00011	5
20325	-4e-05	-0.00016	-0.00038	-0.0007	-0.00061	-0.00017	-0.0002	-9e-05	5
20326	-4e-05	-0.00016	-0.00038	-0.0007	-0.00061	-0.00017	-0.0002	-9e-05	5
20327	-4e-05	-0.00016	-0.00038	-0.0007	-0.00061	-0.00017	-0.0002	-9e-05	5
20328	-4e-05	-0.00016	-0.00038	-0.0007	-0.00061	-0.00017	-0.0002	-9e-05	5
20329	-4e-05	-0.00016	-0.00038	-0.0007	-0.00061	-0.00017	-0.0002	-9e-05	5
20330	-4e-05	-0.00016	-0.00038	-0.0007	-0.00061	-0.00017	-0.0002	-9e-05	5
20331	-4e-05	-0.00016	-0.00038	-0.0007	-0.00061	-0.00017	-0.0002	-9e-05	5
20332	-4e-05	-0.00016	-0.00038	-0.0007	-0.00061	-0.00017	-0.0002	-9e-05	5
20333	-4e-05	-0.00016	-0.00038	-0.0007	-0.00061	-0.00017	-0.0002	-9e-05	5
20334	-4e-05	-0.00016	-0.00038	-0.0007	-0.00061	-0.00017	-0.0002	-9e-05	5
20335	-4e-05	-0.00016	-0.00038	-0.0007	-0.00061	-0.00017	-0.0002	-9e-05	5
20336	-4e-05	-0.00016	-0.00038	-0.0007	-0.00061	-0.00017	-0.0002	-9e-05	5
20338	3e-05	-4e-05	6e-05	0.00064	4e-05	0.00036	5e-05	2e-05	5
20339	3e-05	-4e-05	6e-05	0.00064	4e-05	0.00036	5e-05	2e-05	5
20340	3e-05	-4e-05	6e-05	0.00064	4e-05	0.00036	5e-05	2e-05	5
20341	3e-05	-4e-05	6e-05	0.00064	4e-05	0.00036	5e-05	2e-05	5
20342	3e-05	-4e-05	6e-05	0.00064	4e-05	0.00036	5e-05	2e-05	5
20343	3e-05	-4e-05	6e-05	0.00064	4e-05	0.00036	5e-05	2e-05	5
20344	-5e-05	-2e-05	7e-05	0.0002	-0.00035	-6e-05	-1e-05	-1e-05	5
20345	-5e-05	-2e-05	7e-05	0.0002	-0.00035	-6e-05	-1e-05	-1e-05	5
20346	-5e-05	-2e-05	7e-05	0.0002	-0.00035	-6e-05	-1e-05	-1e-05	5
20347	-5e-05	-2e-05	7e-05	0.0002	-0.00035	-6e-05	-1e-05	-1e-05	5
20348	-5e-05	-2e-05	7e-05	0.0002	-0.00035	-6e-05	-1e-05	-1e-05	5
20349	-5e-05	-2e-05	7e-05	0.0002	-0.00035	-6e-05	-1e-05	-1e-05	5
20350	-5e-05	-2e-05	7e-05	0.0002	-0.00035	-6e-05	-1e-05	-1e-05	5
20351	-5e-05	-2e-05	7e-05	0.0002	-0.00035	-6e-05	-1e-05	-1e-05	5
20352	-5e-05	-2e-05	7e-05	0.0002	-0.00035	-6e-05	-1e-05	-1e-05	5
20353	-5e-05	-2e-05	7e-05	0.0002	-0.00035	-6e-05	-1e-05	-1e-05	5
20354	-5e-05	-2e-05	7e-05	0.0002	-0.00035	-6e-05	-1e-05	-1e-05	5
20355	-5e-05	-2e-05	7e-05	0.0002	-0.00035	-6e-05	-1e-05	-1e-05	5
20356	-5e-05	-2e-05	7e-05	0.0002	-0.00035	-6e-05	-1e-05	-1e-05	5
20357	-5e-05	-2e-05	7e-05	0.0002	-0.00035	-6e-05	-1e-05	-1e-05	5
20358	-5e-05	-2e-05	7e-05	0.0002	-0.00035	-6e-05	-1e-05	-1e-05	5
20359	-5e-05	-2e-05	7e-05	0.0002	-0.00035	-6e-05	-1e-05	-1e-05	5
20360	-5e-05	-2e-05	7e-05	0.0002	-0.00035	-6e-05	-1e-05	-1e-05	5
20361	-1e-05	7e-05	0.00036	-0.00016	-8e-05	-0.00012	-3e-05	1e-05	5
20362	-1e-05	7e-05	0.00036	-0.00016	-8e-05	-0.00012	-3e-05	1e-05	5
20363	0.0001	0.00022	0.00033	0.00079	0.00068	4e-05	2e-05	6e-05	5
20364	0.0001	0.00022	0.00033	0.00079	0.00068	4e-05	2e-05	6e-05	5
20365	0.0001	0.00022	0.00033	0.00079	0.00068	4e-05	2e-05	6e-05	5
20366	0.0001	0.00022	0.00033	0.00079	0.00068	4e-05	2e-05	6e-05	5
20367	0.0001	0.00022	0.00033	0.00079	0.00068	4e-05	2e-05	6e-05	5
20368	0.0001	0.00022	0.00033	0.00079	0.00068	4e-05	2e-05	6e-05	5
20369	0.0001	0.00022	0.00033	0.00079	0.00068	4e-05	2e-05	6e-05	5
20370	0.0001	0.00022	0.00033	0.00079	0.00068	4e-05	2e-05	6e-05	5
20371	0.0001	0.00022	0.00033	0.00079	0.00068	4e-05	2e-05	6e-05	5
20372	0.0001	0.00022	0.00033	0.00079	0.00068	4e-05	2e-05	6e-05	5
20373	0.0001	0.00022	0.00033	0.00079	0.00068	4e-05	2e-05	6e-05	5
20374	0.0001	0.00022	0.00033	0.00079	0.00068	4e-05	2e-05	6e-05	5
20375	0.0001	0.00022	0.00033	0.00079	0.00068	4e-05	2e-05	6e-05	5
20376	0.0001	0.00022	0.00033	0.00079	0.00068	4e-05	2e-05	6e-05	5
20377	0.0001	0.00022	0.00033	0.00079	0.00068	4e-05	2e-05	6e-05	5
20378	0.0001	0.00022	0.00033	0.00079	0.00068	4e-05	2e-05	6e-05	5
20379	0.0001	0.00022	0.00033	0.00079	0.00068	4e-05	2e-05	6e-05	5
20380	0.0001	0.00022	0.00033	0.00079	0.00068	4e-05	2e-05	6e-05	5
20381	0.0001	0.00022	0.00033	0.00079	0.00068	4e-05	2e-05	6e-05	5
20382	0.0001	0.00022	0.00033	0.00079	0.00068	4e-05	2e-05	6e-05	5
20383	-9e-05	-0.00028	-0.00034	-0.00068	-0.00072	-3e-05	-6e-05	-8e-05	5
20384	-9e-05	-0.00028	-0.00034	-0.00068	-0.00072	-3e-05	-6e-05	-8e-05	5
20385	-2e-05	-5e-05	3e-05	-0.00023	-1e-05	0	-6e-05	-3e-05	5
20386	-2e-05	-5e-05	3e-05	-0.00023	-1e-05	0	-6e-05	-3e-05	5
20388	-2e-05	-5e-05	3e-05	-0.00023	-1e-05	0	-6e-05	-3e-05	5
20389	-2e-05	-5e-05	3e-05	-0.00023	-1e-05	0	-6e-05	-3e-05	5
20390	-2e-05	-5e-05	3e-05	-0.00023	-1e-05	0	-6e-05	-3e-05	5
20391	-2e-05	-5e-05	3e-05	-0.00023	-1e-05	0	-6e-05	-3e-05	5
20392	-2e-05	-5e-05	3e-05	-0.00023	-1e-05	0	-6e-05	-3e-05	5
20393	-2e-05	-5e-05	3e-05	-0.00023	-1e-05	0	-6e-05	-3e-05	5
20394	-2e-05	-5e-05	3e-05	-0.00023	-1e-05	0	-6e-05	-3e-05	5
20395	-2e-05	-5e-05	3e-05	-0.00023	-1e-05	0	-6e-05	-3e-05	5
20396	-2e-05	-5e-05	3e-05	-0.00023	-1e-05	0	-6e-05	-3e-05	5
20397	-2e-05	-5e-05	3e-05	-0.00023	-1e-05	0	-6e-05	-3e-05	5
20398	-4e-05	-2e-05	-0.00013	4e-05	-0.00036	-0.0001	-6e-05	-6e-05	5
20399	-4e-05	-2e-05	-0.00013	4e-05	-0.00036	-0.0001	-6e-05	-6e-05	5
20400	-4e-05	-2e-05	-0.00013	4e-05	-0.00036	-0.0001	-6e-05	-6e-05	5
20401	-4e-05	-2e-05	-0.00013	4e-05	-0.00036	-0.0001	-6e-05	-6e-05	5
20402	-4e-05	-2e-05	-0.00013	4e-05	-0.00036	-0.0001	-6e-05	-6e-05	5
20403	-4e-05	-2e-05	-0.00013	4e-05	-0.00036	-0.0001	-6e-05	-6e-05	5
20404	-0.0001	-0.0004	-0.00071	-0.00069	-0.00036	-0.00011	-0.00016	-0.00011	5
20405	-0.0001	-0.0004	-0.00071	-0.00069	-0.00036	-0.00011	-0.00016	-0.00011	5
20406	-0.0001	-0.0004	-0.00071	-0.00069	-0.00036	-0.00011	-0.00016	-0.00011	5
20407	-0.0001	-0.0004	-0.00071	-0.00069	-0.00036	-0.00011	-0.00016	-0.00011	5
20408	-0.0001	-0.0004	-0.00071	-0.00069	-0.00036	-0.00011	-0.00016	-0.00011	5
20409	-0.0001	-0.0004	-0.00071	-0.00069	-0.00036	-0.00011	-0.00016	-0.00011	5
20410	-0.0001	-0.0004	-0.00071	-0.00069	-0.00036	-0.00011	-0.00016	-0.00011	5
20411	-0.0001	-0.0004	-0.00071	-0.00069	-0.00036	-0.00011	-0.00016	-0.00011	5
20412	-0.0001	-0.0004	-0.00071	-0.00069	-0.00036	-0.00011	-0.00016	-0.00011	5
20413	-0.0001	-0.0004	-0.00071	-0.00069	-0.00036	-0.00011	-0.00016	-0.00011	5
20414	-0.0001	-0.0004	-0.00071	-0.00069	-0.00036	-0.00011	-0.00016	-0.00011	5
20415	-0.0001	-0.0004	-0.00071	-0.00069	-0.00036	-0.00011	-0.00016	-0.00011	5
20416	-0.0001	-0.0004	-0.00071	-0.00069	-0.00036	-0.00011	-0.00016	-0.00011	5
20417	-0.0001	-0.0004	-0.00071	-0.00069	-0.00036	-0.00011	-0.00016	-0.00011	5
20418	-0.0001	-0.0004	-0.00071	-0.00069	-0.00036	-0.00011	-0.00016	-0.00011	5
20419	-0.0001	-0.0004	-0.00071	-0.00069	-0.00036	-0.00011	-0.00016	-0.00011	5
20420	-0.0001	-0.0004	-0.00071	-0.00069	-0.00036	-0.00011	-0.00016	-0.00011	5
20421	2e-05	-4e-05	-0.00014	0.00019	1e-05	4e-05	-3e-05	-3e-05	5
20422	0.00011	0.00022	0.00058	0.00093	0.00112	7e-05	2e-05	6e-05	5
20423	0.00011	0.00022	0.00058	0.00093	0.00112	7e-05	2e-05	6e-05	5
20424	0.00011	0.00022	0.00058	0.00093	0.00112	7e-05	2e-05	6e-05	5
20425	0.00011	0.00022	0.00058	0.00093	0.00112	7e-05	2e-05	6e-05	5
20426	0.00011	0.00022	0.00058	0.00093	0.00112	7e-05	2e-05	6e-05	5
20427	0.00011	0.00022	0.00058	0.00093	0.00112	7e-05	2e-05	6e-05	5
20428	0.00011	0.00022	0.00058	0.00093	0.00112	7e-05	2e-05	6e-05	5
20429	0.00011	0.00022	0.00058	0.00093	0.00112	7e-05	2e-05	6e-05	5
20430	0.00011	0.00022	0.00058	0.00093	0.00112	7e-05	2e-05	6e-05	5
20431	0.00011	0.00022	0.00058	0.00093	0.00112	7e-05	2e-05	6e-05	5
20432	0.00011	0.00022	0.00058	0.00093	0.00112	7e-05	2e-05	6e-05	5
20433	0.00011	0.00022	0.00058	0.00093	0.00112	7e-05	2e-05	6e-05	5
20434	0.00011	0.00022	0.00058	0.00093	0.00112	7e-05	2e-05	6e-05	5
20435	0.00011	0.00022	0.00058	0.00093	0.00112	7e-05	2e-05	6e-05	5
20436	0.00011	0.00022	0.00058	0.00093	0.00112	7e-05	2e-05	6e-05	5
20438	0.00011	0.00022	0.00058	0.00093	0.00112	7e-05	2e-05	6e-05	5
20439	0.00011	0.00022	0.00058	0.00093	0.00112	7e-05	2e-05	6e-05	5
20440	0.00011	0.00022	0.00058	0.00093	0.00112	7e-05	2e-05	6e-05	5
20441	0.00011	0.00022	0.00058	0.00093	0.00112	7e-05	2e-05	6e-05	5
20442	0.00011	0.00022	0.00058	0.00093	0.00112	7e-05	2e-05	6e-05	5
20443	4e-05	-3e-05	-4e-05	-9e-05	-0.00021	0	-6e-05	2e-05	5
20444	4e-05	-3e-05	-4e-05	-9e-05	-0.00021	0	-6e-05	2e-05	5
20445	-6e-05	-8e-05	-7e-05	0.00011	-0.00078	-0.00043	-0.0001	-8e-05	5
20446	-6e-05	-8e-05	-7e-05	0.00011	-0.00078	-0.00043	-0.0001	-8e-05	5
20447	-6e-05	-8e-05	-7e-05	0.00011	-0.00078	-0.00043	-0.0001	-8e-05	5
20448	-6e-05	-8e-05	-7e-05	0.00011	-0.00078	-0.00043	-0.0001	-8e-05	5
20449	-6e-05	-8e-05	-7e-05	0.00011	-0.00078	-0.00043	-0.0001	-8e-05	5
20450	-6e-05	-8e-05	-7e-05	0.00011	-0.00078	-0.00043	-0.0001	-8e-05	5
20451	-6e-05	-8e-05	-7e-05	0.00011	-0.00078	-0.00043	-0.0001	-8e-05	5
20452	-6e-05	-8e-05	-7e-05	0.00011	-0.00078	-0.00043	-0.0001	-8e-05	5
20453	-6e-05	-8e-05	-7e-05	0.00011	-0.00078	-0.00043	-0.0001	-8e-05	5
20454	-6e-05	-8e-05	-7e-05	0.00011	-0.00078	-0.00043	-0.0001	-8e-05	5
20455	-6e-05	-8e-05	-7e-05	0.00011	-0.00078	-0.00043	-0.0001	-8e-05	5
20456	-6e-05	-8e-05	-7e-05	0.00011	-0.00078	-0.00043	-0.0001	-8e-05	5
20457	-6e-05	-8e-05	-7e-05	0.00011	-0.00078	-0.00043	-0.0001	-8e-05	5
20458	0	7e-05	1e-05	4e-05	0.00041	1e-05	-1e-05	0	5
20459	0	7e-05	1e-05	4e-05	0.00041	1e-05	-1e-05	0	5
20460	0	7e-05	1e-05	4e-05	0.00041	1e-05	-1e-05	0	5
20461	0	7e-05	1e-05	4e-05	0.00041	1e-05	-1e-05	0	5
20462	0	7e-05	1e-05	4e-05	0.00041	1e-05	-1e-05	0	5
20463	0	7e-05	1e-05	4e-05	0.00041	1e-05	-1e-05	0	5
20464	3e-05	3e-05	0.00054	-0.00063	-0.00073	-0.00013	-5e-05	2e-05	5
20465	3e-05	3e-05	0.00054	-0.00063	-0.00073	-0.00013	-5e-05	2e-05	5
20466	3e-05	3e-05	0.00054	-0.00063	-0.00073	-0.00013	-5e-05	2e-05	5
20467	3e-05	3e-05	0.00054	-0.00063	-0.00073	-0.00013	-5e-05	2e-05	5
20468	3e-05	3e-05	0.00054	-0.00063	-0.00073	-0.00013	-5e-05	2e-05	5
20469	3e-05	3e-05	0.00054	-0.00063	-0.00073	-0.00013	-5e-05	2e-05	5
20470	3e-05	3e-05	0.00054	-0.00063	-0.00073	-0.00013	-5e-05	2e-05	5
20471	3e-05	3e-05	0.00054	-0.00063	-0.00073	-0.00013	-5e-05	2e-05	5
20472	3e-05	3e-05	0.00054	-0.00063	-0.00073	-0.00013	-5e-05	2e-05	5
20473	3e-05	3e-05	0.00054	-0.00063	-0.00073	-0.00013	-5e-05	2e-05	5
20474	3e-05	3e-05	0.00054	-0.00063	-0.00073	-0.00013	-5e-05	2e-05	5
20475	3e-05	3e-05	0.00054	-0.00063	-0.00073	-0.00013	-5e-05	2e-05	5
20476	3e-05	3e-05	0.00054	-0.00063	-0.00073	-0.00013	-5e-05	2e-05	5
20477	3e-05	3e-05	0.00054	-0.00063	-0.00073	-0.00013	-5e-05	2e-05	5
20478	3e-05	3e-05	0.00054	-0.00063	-0.00073	-0.00013	-5e-05	2e-05	5
20479	3e-05	3e-05	0.00054	-0.00063	-0.00073	-0.00013	-5e-05	2e-05	5
20480	3e-05	3e-05	0.00054	-0.00063	-0.00073	-0.00013	-5e-05	2e-05	5
20481	1e-05	-0.00011	-0.00052	-0.00017	-3e-05	0.00017	8e-05	7e-05	5
20482	-0.00012	-4e-05	0.00017	-0.00029	0.00028	5e-05	-4e-05	-6e-05	5
20483	-0.00012	-4e-05	0.00017	-0.00029	0.00028	5e-05	-4e-05	-6e-05	5
20484	-0.00012	-4e-05	0.00017	-0.00029	0.00028	5e-05	-4e-05	-6e-05	5
20485	-0.00012	-4e-05	0.00017	-0.00029	0.00028	5e-05	-4e-05	-6e-05	5
20486	-0.00012	-4e-05	0.00017	-0.00029	0.00028	5e-05	-4e-05	-6e-05	5
20488	-0.00012	-4e-05	0.00017	-0.00029	0.00028	5e-05	-4e-05	-6e-05	5
20489	-0.00012	-4e-05	0.00017	-0.00029	0.00028	5e-05	-4e-05	-6e-05	5
20490	-0.00012	-4e-05	0.00017	-0.00029	0.00028	5e-05	-4e-05	-6e-05	5
20491	-0.00012	-4e-05	0.00017	-0.00029	0.00028	5e-05	-4e-05	-6e-05	5
20492	-0.00012	-4e-05	0.00017	-0.00029	0.00028	5e-05	-4e-05	-6e-05	5
20493	-0.00012	-4e-05	0.00017	-0.00029	0.00028	5e-05	-4e-05	-6e-05	5
20494	-0.00012	-4e-05	0.00017	-0.00029	0.00028	5e-05	-4e-05	-6e-05	5
20495	-0.00012	-4e-05	0.00017	-0.00029	0.00028	5e-05	-4e-05	-6e-05	5
20496	-0.00012	-4e-05	0.00017	-0.00029	0.00028	5e-05	-4e-05	-6e-05	5
20497	-0.00012	-4e-05	0.00017	-0.00029	0.00028	5e-05	-4e-05	-6e-05	5
20498	-0.00012	-4e-05	0.00017	-0.00029	0.00028	5e-05	-4e-05	-6e-05	5
20499	-0.00012	-4e-05	0.00017	-0.00029	0.00028	5e-05	-4e-05	-6e-05	5
20500	-0.00012	-4e-05	0.00017	-0.00029	0.00028	5e-05	-4e-05	-6e-05	5
20501	-0.00012	-4e-05	0.00017	-0.00029	0.00028	5e-05	-4e-05	-6e-05	5
20502	-0.00012	-4e-05	0.00017	-0.00029	0.00028	5e-05	-4e-05	-6e-05	5
20503	3e-05	6e-05	0.00028	0.00036	0.0005	-1e-05	-2e-05	0	5
20504	3e-05	6e-05	0.00028	0.00036	0.0005	-1e-05	-2e-05	0	5
20505	-6e-05	-0.00014	-0.00058	-0.00022	7e-05	0.00018	0.00012	4e-05	5
20506	-6e-05	-0.00014	-0.00058	-0.00022	7e-05	0.00018	0.00012	4e-05	5
20507	-6e-05	-0.00014	-0.00058	-0.00022	7e-05	0.00018	0.00012	4e-05	5
20508	-6e-05	-0.00014	-0.00058	-0.00022	7e-05	0.00018	0.00012	4e-05	5
20509	-6e-05	-0.00014	-0.00058	-0.00022	7e-05	0.00018	0.00012	4e-05	5
20510	-6e-05	-0.00014	-0.00058	-0.00022	7e-05	0.00018	0.00012	4e-05	5
20511	-6e-05	-0.00014	-0.00058	-0.00022	7e-05	0.00018	0.00012	4e-05	5
20512	-6e-05	-0.00014	-0.00058	-0.00022	7e-05	0.00018	0.00012	4e-05	5
20513	-6e-05	-0.00014	-0.00058	-0.00022	7e-05	0.00018	0.00012	4e-05	5
20514	-6e-05	-0.00014	-0.00058	-0.00022	7e-05	0.00018	0.00012	4e-05	5
20515	-6e-05	-0.00014	-0.00058	-0.00022	7e-05	0.00018	0.00012	4e-05	5
20516	-6e-05	-0.00014	-0.00058	-0.00022	7e-05	0.00018	0.00012	4e-05	5
20517	-6e-05	-0.00014	-0.00058	-0.00022	7e-05	0.00018	0.00012	4e-05	5
20518	-0.00022	-0.00026	-0.00064	-0.00052	-0.00068	-0.00066	-2e-05	-0.00014	5
20519	-0.00022	-0.00026	-0.00064	-0.00052	-0.00068	-0.00066	-2e-05	-0.00014	5
20520	-0.00022	-0.00026	-0.00064	-0.00052	-0.00068	-0.00066	-2e-05	-0.00014	5
20521	-0.00022	-0.00026	-0.00064	-0.00052	-0.00068	-0.00066	-2e-05	-0.00014	5
20522	-0.00022	-0.00026	-0.00064	-0.00052	-0.00068	-0.00066	-2e-05	-0.00014	5
20523	-0.00022	-0.00026	-0.00064	-0.00052	-0.00068	-0.00066	-2e-05	-0.00014	5
20524	0	-5e-05	-0.00026	0.00022	-0.00024	-4e-05	-5e-05	-4e-05	5
20526	0	-5e-05	-0.00026	0.00022	-0.00024	-4e-05	-5e-05	-4e-05	5
20527	0	-5e-05	-0.00026	0.00022	-0.00024	-4e-05	-5e-05	-4e-05	5
20528	0	-5e-05	-0.00026	0.00022	-0.00024	-4e-05	-5e-05	-4e-05	5
20529	0	-5e-05	-0.00026	0.00022	-0.00024	-4e-05	-5e-05	-4e-05	5
20530	0	-5e-05	-0.00026	0.00022	-0.00024	-4e-05	-5e-05	-4e-05	5
20531	0	-5e-05	-0.00026	0.00022	-0.00024	-4e-05	-5e-05	-4e-05	5
20532	0	-5e-05	-0.00026	0.00022	-0.00024	-4e-05	-5e-05	-4e-05	5
20533	0	-5e-05	-0.00026	0.00022	-0.00024	-4e-05	-5e-05	-4e-05	5
20534	0	-5e-05	-0.00026	0.00022	-0.00024	-4e-05	-5e-05	-4e-05	5
20535	0	-5e-05	-0.00026	0.00022	-0.00024	-4e-05	-5e-05	-4e-05	5
20536	0	-5e-05	-0.00026	0.00022	-0.00024	-4e-05	-5e-05	-4e-05	5
20538	0	-5e-05	-0.00026	0.00022	-0.00024	-4e-05	-5e-05	-4e-05	5
20539	0	-5e-05	-0.00026	0.00022	-0.00024	-4e-05	-5e-05	-4e-05	5
20540	0	-5e-05	-0.00026	0.00022	-0.00024	-4e-05	-5e-05	-4e-05	5
20541	4e-05	7e-05	0.00014	0.00082	-0.00013	0.00047	-0.00011	2e-05	5
20542	7e-05	0.00012	5e-05	0.00069	0.00058	4e-05	8e-05	7e-05	5
20543	4e-05	0	-7e-05	0.00028	0.0004	7e-05	8e-05	2e-05	5
20544	4e-05	0	-7e-05	0.00028	0.0004	7e-05	8e-05	2e-05	5
20545	4e-05	0	-7e-05	0.00028	0.0004	7e-05	8e-05	2e-05	5
20546	4e-05	0	-7e-05	0.00028	0.0004	7e-05	8e-05	2e-05	5
20547	4e-05	0	-7e-05	0.00028	0.0004	7e-05	8e-05	2e-05	5
20548	4e-05	0	-7e-05	0.00028	0.0004	7e-05	8e-05	2e-05	5
20549	4e-05	0	-7e-05	0.00028	0.0004	7e-05	8e-05	2e-05	5
20550	4e-05	0	-7e-05	0.00028	0.0004	7e-05	8e-05	2e-05	5
20551	4e-05	0	-7e-05	0.00028	0.0004	7e-05	8e-05	2e-05	5
20552	4e-05	0	-7e-05	0.00028	0.0004	7e-05	8e-05	2e-05	5
20553	4e-05	0	-7e-05	0.00028	0.0004	7e-05	8e-05	2e-05	5
20554	4e-05	0	-7e-05	0.00028	0.0004	7e-05	8e-05	2e-05	5
20555	4e-05	0	-7e-05	0.00028	0.0004	7e-05	8e-05	2e-05	5
20556	4e-05	0	-7e-05	0.00028	0.0004	7e-05	8e-05	2e-05	5
20557	4e-05	0	-7e-05	0.00028	0.0004	7e-05	8e-05	2e-05	5
20558	4e-05	0	-7e-05	0.00028	0.0004	7e-05	8e-05	2e-05	5
20559	4e-05	0	-7e-05	0.00028	0.0004	7e-05	8e-05	2e-05	5
20560	4e-05	0	-7e-05	0.00028	0.0004	7e-05	8e-05	2e-05	5
20561	4e-05	0	-7e-05	0.00028	0.0004	7e-05	8e-05	2e-05	5
20562	4e-05	0	-7e-05	0.00028	0.0004	7e-05	8e-05	2e-05	5
20563	4e-05	1e-05	0.00027	-0.0002	5e-05	0.00013	-6e-05	0	5
20564	4e-05	1e-05	0.00027	-0.0002	5e-05	0.00013	-6e-05	0	5
20565	-2e-05	2e-05	-0.0001	8e-05	0.00014	0.00014	-4e-05	-2e-05	5
20566	-2e-05	2e-05	-0.0001	8e-05	0.00014	0.00014	-4e-05	-2e-05	5
20567	-2e-05	2e-05	-0.0001	8e-05	0.00014	0.00014	-4e-05	-2e-05	5
20568	-2e-05	2e-05	-0.0001	8e-05	0.00014	0.00014	-4e-05	-2e-05	5
20569	-2e-05	2e-05	-0.0001	8e-05	0.00014	0.00014	-4e-05	-2e-05	5
20570	-2e-05	2e-05	-0.0001	8e-05	0.00014	0.00014	-4e-05	-2e-05	5
20571	-2e-05	2e-05	-0.0001	8e-05	0.00014	0.00014	-4e-05	-2e-05	5
20572	-2e-05	2e-05	-0.0001	8e-05	0.00014	0.00014	-4e-05	-2e-05	5
20573	-2e-05	2e-05	-0.0001	8e-05	0.00014	0.00014	-4e-05	-2e-05	5
20574	-2e-05	2e-05	-0.0001	8e-05	0.00014	0.00014	-4e-05	-2e-05	5
20575	-2e-05	2e-05	-0.0001	8e-05	0.00014	0.00014	-4e-05	-2e-05	5
20576	-2e-05	2e-05	-0.0001	8e-05	0.00014	0.00014	-4e-05	-2e-05	5
20577	-2e-05	2e-05	-0.0001	8e-05	0.00014	0.00014	-4e-05	-2e-05	5
20578	0.00011	1e-05	-4e-05	0.0007	0.00065	3e-05	6e-05	4e-05	5
20579	0.00011	1e-05	-4e-05	0.0007	0.00065	3e-05	6e-05	4e-05	5
20580	0.00011	1e-05	-4e-05	0.0007	0.00065	3e-05	6e-05	4e-05	5
20581	0.00011	1e-05	-4e-05	0.0007	0.00065	3e-05	6e-05	4e-05	5
20582	0.00011	1e-05	-4e-05	0.0007	0.00065	3e-05	6e-05	4e-05	5
20583	0.00011	1e-05	-4e-05	0.0007	0.00065	3e-05	6e-05	4e-05	5
20584	-1e-05	-0.00014	-0.0008	-0.00043	0.00054	0.0002	-5e-05	-1e-05	5
20585	-1e-05	-0.00014	-0.0008	-0.00043	0.00054	0.0002	-5e-05	-1e-05	5
20586	-1e-05	-0.00014	-0.0008	-0.00043	0.00054	0.0002	-5e-05	-1e-05	5
20588	-1e-05	-0.00014	-0.0008	-0.00043	0.00054	0.0002	-5e-05	-1e-05	5
20589	-1e-05	-0.00014	-0.0008	-0.00043	0.00054	0.0002	-5e-05	-1e-05	5
20590	-1e-05	-0.00014	-0.0008	-0.00043	0.00054	0.0002	-5e-05	-1e-05	5
20591	-1e-05	-0.00014	-0.0008	-0.00043	0.00054	0.0002	-5e-05	-1e-05	5
20592	-1e-05	-0.00014	-0.0008	-0.00043	0.00054	0.0002	-5e-05	-1e-05	5
20593	-1e-05	-0.00014	-0.0008	-0.00043	0.00054	0.0002	-5e-05	-1e-05	5
20594	-1e-05	-0.00014	-0.0008	-0.00043	0.00054	0.0002	-5e-05	-1e-05	5
20595	-1e-05	-0.00014	-0.0008	-0.00043	0.00054	0.0002	-5e-05	-1e-05	5
20596	-1e-05	-0.00014	-0.0008	-0.00043	0.00054	0.0002	-5e-05	-1e-05	5
20597	-1e-05	-0.00014	-0.0008	-0.00043	0.00054	0.0002	-5e-05	-1e-05	5
20598	-1e-05	-0.00014	-0.0008	-0.00043	0.00054	0.0002	-5e-05	-1e-05	5
20599	-1e-05	-0.00014	-0.0008	-0.00043	0.00054	0.0002	-5e-05	-1e-05	5
20600	-1e-05	-0.00014	-0.0008	-0.00043	0.00054	0.0002	-5e-05	-1e-05	5
20601	5e-05	8e-05	-0.00026	-0.0006	-0.00046	-0.00022	0	2e-05	5
20602	1e-05	-5e-05	0.00066	-8e-05	-0.00075	-9e-05	3e-05	3e-05	5
20603	1e-05	-5e-05	0.00066	-8e-05	-0.00075	-9e-05	3e-05	3e-05	5
20604	1e-05	-5e-05	0.00066	-8e-05	-0.00075	-9e-05	3e-05	3e-05	5
20605	1e-05	-5e-05	0.00066	-8e-05	-0.00075	-9e-05	3e-05	3e-05	5
20606	1e-05	-5e-05	0.00066	-8e-05	-0.00075	-9e-05	3e-05	3e-05	5
20607	1e-05	-5e-05	0.00066	-8e-05	-0.00075	-9e-05	3e-05	3e-05	5
20608	1e-05	-5e-05	0.00066	-8e-05	-0.00075	-9e-05	3e-05	3e-05	5
20609	1e-05	-5e-05	0.00066	-8e-05	-0.00075	-9e-05	3e-05	3e-05	5
20610	1e-05	-5e-05	0.00066	-8e-05	-0.00075	-9e-05	3e-05	3e-05	5
20611	1e-05	-5e-05	0.00066	-8e-05	-0.00075	-9e-05	3e-05	3e-05	5
20612	1e-05	-5e-05	0.00066	-8e-05	-0.00075	-9e-05	3e-05	3e-05	5
20613	1e-05	-5e-05	0.00066	-8e-05	-0.00075	-9e-05	3e-05	3e-05	5
20614	1e-05	-5e-05	0.00066	-8e-05	-0.00075	-9e-05	3e-05	3e-05	5
20615	1e-05	-5e-05	0.00066	-8e-05	-0.00075	-9e-05	3e-05	3e-05	5
20616	1e-05	-5e-05	0.00066	-8e-05	-0.00075	-9e-05	3e-05	3e-05	5
20617	1e-05	-5e-05	0.00066	-8e-05	-0.00075	-9e-05	3e-05	3e-05	5
20618	1e-05	-5e-05	0.00066	-8e-05	-0.00075	-9e-05	3e-05	3e-05	5
20619	1e-05	-5e-05	0.00066	-8e-05	-0.00075	-9e-05	3e-05	3e-05	5
20620	1e-05	-5e-05	0.00066	-8e-05	-0.00075	-9e-05	3e-05	3e-05	5
20621	1e-05	-5e-05	0.00066	-8e-05	-0.00075	-9e-05	3e-05	3e-05	5
20622	1e-05	-5e-05	0.00066	-8e-05	-0.00075	-9e-05	3e-05	3e-05	5
20623	1e-05	6e-05	0.00044	0.00045	0.00031	0	7e-05	4e-05	5
20624	1e-05	6e-05	0.00044	0.00045	0.00031	0	7e-05	4e-05	5
20625	0	0.00013	0.00035	-1e-05	4e-05	-8e-05	0	0	5
20626	0	0.00013	0.00035	-1e-05	4e-05	-8e-05	0	0	5
20627	0	0.00013	0.00035	-1e-05	4e-05	-8e-05	0	0	5
20629	0	0.00013	0.00035	-1e-05	4e-05	-8e-05	0	0	5
20630	0	0.00013	0.00035	-1e-05	4e-05	-8e-05	0	0	5
20631	0	0.00013	0.00035	-1e-05	4e-05	-8e-05	0	0	5
20632	0	0.00013	0.00035	-1e-05	4e-05	-8e-05	0	0	5
20633	0	0.00013	0.00035	-1e-05	4e-05	-8e-05	0	0	5
20634	0	0.00013	0.00035	-1e-05	4e-05	-8e-05	0	0	5
20635	0	0.00013	0.00035	-1e-05	4e-05	-8e-05	0	0	5
20636	0	0.00013	0.00035	-1e-05	4e-05	-8e-05	0	0	5
20638	-6e-05	-6e-05	-0.00021	-0.0005	0.00041	-0.00012	-2e-05	-6e-05	5
20639	-6e-05	-6e-05	-0.00021	-0.0005	0.00041	-0.00012	-2e-05	-6e-05	5
20640	-6e-05	-6e-05	-0.00021	-0.0005	0.00041	-0.00012	-2e-05	-6e-05	5
20641	-6e-05	-6e-05	-0.00021	-0.0005	0.00041	-0.00012	-2e-05	-6e-05	5
20642	-6e-05	-6e-05	-0.00021	-0.0005	0.00041	-0.00012	-2e-05	-6e-05	5
20643	-6e-05	-6e-05	-0.00021	-0.0005	0.00041	-0.00012	-2e-05	-6e-05	5
20644	-6e-05	-6e-05	-0.00021	-0.0005	0.00041	-0.00012	-2e-05	-6e-05	5
20645	-6e-05	-6e-05	-0.00021	-0.0005	0.00041	-0.00012	-2e-05	-6e-05	5
20646	-1e-05	-7e-05	-0.00039	-0.00026	-0.0001	-0.00019	0	-5e-05	5
20647	-1e-05	-7e-05	-0.00039	-0.00026	-0.0001	-0.00019	0	-5e-05	5
20648	-1e-05	-7e-05	-0.00039	-0.00026	-0.0001	-0.00019	0	-5e-05	5
20649	-1e-05	-7e-05	-0.00039	-0.00026	-0.0001	-0.00019	0	-5e-05	5
20650	-1e-05	-7e-05	-0.00039	-0.00026	-0.0001	-0.00019	0	-5e-05	5
20651	-1e-05	-7e-05	-0.00039	-0.00026	-0.0001	-0.00019	0	-5e-05	5
20652	-1e-05	-7e-05	-0.00039	-0.00026	-0.0001	-0.00019	0	-5e-05	5
20653	-1e-05	-7e-05	-0.00039	-0.00026	-0.0001	-0.00019	0	-5e-05	5
20654	-1e-05	-7e-05	-0.00039	-0.00026	-0.0001	-0.00019	0	-5e-05	5
20655	-1e-05	-7e-05	-0.00039	-0.00026	-0.0001	-0.00019	0	-5e-05	5
20656	-1e-05	-7e-05	-0.00039	-0.00026	-0.0001	-0.00019	0	-5e-05	5
20657	-1e-05	-7e-05	-0.00039	-0.00026	-0.0001	-0.00019	0	-5e-05	5
20658	-1e-05	-7e-05	-0.00039	-0.00026	-0.0001	-0.00019	0	-5e-05	5
20659	-1e-05	-7e-05	-0.00039	-0.00026	-0.0001	-0.00019	0	-5e-05	5
20660	-8e-05	-0.0001	-1e-05	1e-05	-0.00061	-0.0002	-0.00016	-9e-05	5
20661	9e-05	0.00025	0.00025	-0.00052	-0.00046	0	1e-05	5e-05	5
20662	-5e-05	-0.00015	-0.00037	-5e-05	9e-05	0.00034	-1e-05	-2e-05	5
20663	0	0.00016	0.0003	0.00069	0.00046	0.00036	-2e-05	-4e-05	5
20664	0	0.00016	0.0003	0.00069	0.00046	0.00036	-2e-05	-4e-05	5
20665	0	0.00016	0.0003	0.00069	0.00046	0.00036	-2e-05	-4e-05	5
20666	0	0.00016	0.0003	0.00069	0.00046	0.00036	-2e-05	-4e-05	5
20667	0	0.00016	0.0003	0.00069	0.00046	0.00036	-2e-05	-4e-05	5
20668	0	0.00016	0.0003	0.00069	0.00046	0.00036	-2e-05	-4e-05	5
20669	0	0.00016	0.0003	0.00069	0.00046	0.00036	-2e-05	-4e-05	5
20670	0	0.00016	0.0003	0.00069	0.00046	0.00036	-2e-05	-4e-05	5
20671	0	0.00016	0.0003	0.00069	0.00046	0.00036	-2e-05	-4e-05	5
20672	0	0.00016	0.0003	0.00069	0.00046	0.00036	-2e-05	-4e-05	5
20673	0	0.00016	0.0003	0.00069	0.00046	0.00036	-2e-05	-4e-05	5
20674	0	0.00016	0.0003	0.00069	0.00046	0.00036	-2e-05	-4e-05	5
20675	0	0.00016	0.0003	0.00069	0.00046	0.00036	-2e-05	-4e-05	5
20676	0	0.00016	0.0003	0.00069	0.00046	0.00036	-2e-05	-4e-05	5
20677	0	0.00016	0.0003	0.00069	0.00046	0.00036	-2e-05	-4e-05	5
20678	0	0.00016	0.0003	0.00069	0.00046	0.00036	-2e-05	-4e-05	5
20679	0	0.00016	0.0003	0.00069	0.00046	0.00036	-2e-05	-4e-05	5
20680	0	0.00016	0.0003	0.00069	0.00046	0.00036	-2e-05	-4e-05	5
20681	0	0.00016	0.0003	0.00069	0.00046	0.00036	-2e-05	-4e-05	5
20682	0	0.00016	0.0003	0.00069	0.00046	0.00036	-2e-05	-4e-05	5
20683	-8e-05	-0.00018	-0.00057	-0.00074	-0.00098	-0.00016	-9e-05	-6e-05	5
20684	-8e-05	-0.00018	-0.00057	-0.00074	-0.00098	-0.00016	-9e-05	-6e-05	5
20685	6e-05	-1e-05	0.00021	0.00027	-6e-05	4e-05	0.0002	0.00012	5
20686	6e-05	-1e-05	0.00021	0.00027	-6e-05	4e-05	0.0002	0.00012	5
20688	6e-05	-1e-05	0.00021	0.00027	-6e-05	4e-05	0.0002	0.00012	5
20689	6e-05	-1e-05	0.00021	0.00027	-6e-05	4e-05	0.0002	0.00012	5
20690	6e-05	-1e-05	0.00021	0.00027	-6e-05	4e-05	0.0002	0.00012	5
20691	6e-05	-1e-05	0.00021	0.00027	-6e-05	4e-05	0.0002	0.00012	5
20692	6e-05	-1e-05	0.00021	0.00027	-6e-05	4e-05	0.0002	0.00012	5
20693	6e-05	-1e-05	0.00021	0.00027	-6e-05	4e-05	0.0002	0.00012	5
20694	6e-05	-1e-05	0.00021	0.00027	-6e-05	4e-05	0.0002	0.00012	5
20695	6e-05	-1e-05	0.00021	0.00027	-6e-05	4e-05	0.0002	0.00012	5
20696	6e-05	-1e-05	0.00021	0.00027	-6e-05	4e-05	0.0002	0.00012	5
20697	-1e-05	0.00012	0.00034	0.00048	0.00038	0.00032	1e-05	2e-05	5
20698	-1e-05	0.00012	0.00034	0.00048	0.00038	0.00032	1e-05	2e-05	5
20699	-1e-05	0.00012	0.00034	0.00048	0.00038	0.00032	1e-05	2e-05	5
20700	-1e-05	0.00012	0.00034	0.00048	0.00038	0.00032	1e-05	2e-05	5
20701	-1e-05	0.00012	0.00034	0.00048	0.00038	0.00032	1e-05	2e-05	5
20702	-1e-05	0.00012	0.00034	0.00048	0.00038	0.00032	1e-05	2e-05	5
20703	-1e-05	0.00012	0.00034	0.00048	0.00038	0.00032	1e-05	2e-05	5
20704	-1e-05	0.00012	0.00034	0.00048	0.00038	0.00032	1e-05	2e-05	5
20705	-1e-05	0.00012	0.00034	0.00048	0.00038	0.00032	1e-05	2e-05	5
20706	-0.0001	3e-05	-0.00037	0.00012	0.00032	-0.00025	-0.00013	-0.00013	5
20707	-0.0001	3e-05	-0.00037	0.00012	0.00032	-0.00025	-0.00013	-0.00013	5
20708	-0.0001	3e-05	-0.00037	0.00012	0.00032	-0.00025	-0.00013	-0.00013	5
20709	-0.0001	3e-05	-0.00037	0.00012	0.00032	-0.00025	-0.00013	-0.00013	5
20710	-0.0001	3e-05	-0.00037	0.00012	0.00032	-0.00025	-0.00013	-0.00013	5
20711	-0.0001	3e-05	-0.00037	0.00012	0.00032	-0.00025	-0.00013	-0.00013	5
20712	-0.0001	3e-05	-0.00037	0.00012	0.00032	-0.00025	-0.00013	-0.00013	5
20713	-0.0001	3e-05	-0.00037	0.00012	0.00032	-0.00025	-0.00013	-0.00013	5
20714	-0.0001	3e-05	-0.00037	0.00012	0.00032	-0.00025	-0.00013	-0.00013	5
20715	-0.0001	3e-05	-0.00037	0.00012	0.00032	-0.00025	-0.00013	-0.00013	5
20716	-0.0001	3e-05	-0.00037	0.00012	0.00032	-0.00025	-0.00013	-0.00013	5
20717	-0.0001	3e-05	-0.00037	0.00012	0.00032	-0.00025	-0.00013	-0.00013	5
20718	-0.0001	3e-05	-0.00037	0.00012	0.00032	-0.00025	-0.00013	-0.00013	5
20719	-0.0001	3e-05	-0.00037	0.00012	0.00032	-0.00025	-0.00013	-0.00013	5
20720	-0.0001	3e-05	-0.00037	0.00012	0.00032	-0.00025	-0.00013	-0.00013	5
20721	0	-2e-05	0.00048	0.00086	0.00056	0.0001	1e-05	-1e-05	5
20722	3e-05	9e-05	7e-05	-7e-05	-0.00042	-0.00019	-0.00013	-2e-05	5
20723	3e-05	9e-05	7e-05	-7e-05	-0.00042	-0.00019	-0.00013	-2e-05	5
20724	3e-05	9e-05	7e-05	-7e-05	-0.00042	-0.00019	-0.00013	-2e-05	5
20725	3e-05	9e-05	7e-05	-7e-05	-0.00042	-0.00019	-0.00013	-2e-05	5
20726	3e-05	9e-05	7e-05	-7e-05	-0.00042	-0.00019	-0.00013	-2e-05	5
20727	3e-05	9e-05	7e-05	-7e-05	-0.00042	-0.00019	-0.00013	-2e-05	5
20728	3e-05	9e-05	7e-05	-7e-05	-0.00042	-0.00019	-0.00013	-2e-05	5
20729	3e-05	9e-05	7e-05	-7e-05	-0.00042	-0.00019	-0.00013	-2e-05	5
20730	3e-05	9e-05	7e-05	-7e-05	-0.00042	-0.00019	-0.00013	-2e-05	5
20731	3e-05	9e-05	7e-05	-7e-05	-0.00042	-0.00019	-0.00013	-2e-05	5
20732	3e-05	9e-05	7e-05	-7e-05	-0.00042	-0.00019	-0.00013	-2e-05	5
20733	3e-05	9e-05	7e-05	-7e-05	-0.00042	-0.00019	-0.00013	-2e-05	5
20734	3e-05	9e-05	7e-05	-7e-05	-0.00042	-0.00019	-0.00013	-2e-05	5
20735	3e-05	9e-05	7e-05	-7e-05	-0.00042	-0.00019	-0.00013	-2e-05	5
20736	3e-05	9e-05	7e-05	-7e-05	-0.00042	-0.00019	-0.00013	-2e-05	5
20738	3e-05	9e-05	7e-05	-7e-05	-0.00042	-0.00019	-0.00013	-2e-05	5
20739	3e-05	9e-05	7e-05	-7e-05	-0.00042	-0.00019	-0.00013	-2e-05	5
20740	3e-05	9e-05	7e-05	-7e-05	-0.00042	-0.00019	-0.00013	-2e-05	5
20741	3e-05	9e-05	7e-05	-7e-05	-0.00042	-0.00019	-0.00013	-2e-05	5
20742	3e-05	9e-05	7e-05	-7e-05	-0.00042	-0.00019	-0.00013	-2e-05	5
20743	7e-05	0.00018	0.00042	0.00041	0.00052	0.00028	0.00024	0.00012	5
20744	7e-05	0.00018	0.00042	0.00041	0.00052	0.00028	0.00024	0.00012	5
20745	-8e-05	-0.0002	0	2e-05	-0.00054	-0.00036	-9e-05	-7e-05	5
20746	-8e-05	-0.0002	0	2e-05	-0.00054	-0.00036	-9e-05	-7e-05	5
20747	-8e-05	-0.0002	0	2e-05	-0.00054	-0.00036	-9e-05	-7e-05	5
20748	-8e-05	-0.0002	0	2e-05	-0.00054	-0.00036	-9e-05	-7e-05	5
20749	-8e-05	-0.0002	0	2e-05	-0.00054	-0.00036	-9e-05	-7e-05	5
20750	-8e-05	-0.0002	0	2e-05	-0.00054	-0.00036	-9e-05	-7e-05	5
20751	-8e-05	-0.0002	0	2e-05	-0.00054	-0.00036	-9e-05	-7e-05	5
20752	-8e-05	-0.0002	0	2e-05	-0.00054	-0.00036	-9e-05	-7e-05	5
20753	-8e-05	-0.0002	0	2e-05	-0.00054	-0.00036	-9e-05	-7e-05	5
20754	-8e-05	-0.0002	0	2e-05	-0.00054	-0.00036	-9e-05	-7e-05	5
20755	-8e-05	-0.0002	0	2e-05	-0.00054	-0.00036	-9e-05	-7e-05	5
20756	-8e-05	-0.0002	0	2e-05	-0.00054	-0.00036	-9e-05	-7e-05	5
20757	5e-05	0.00014	0.00022	0.00026	0.00048	-0.0001	0	-1e-05	5
20758	5e-05	0.00014	0.00022	0.00026	0.00048	-0.0001	0	-1e-05	5
20759	5e-05	0.00014	0.00022	0.00026	0.00048	-0.0001	0	-1e-05	5
20760	5e-05	0.00014	0.00022	0.00026	0.00048	-0.0001	0	-1e-05	5
20761	5e-05	0.00014	0.00022	0.00026	0.00048	-0.0001	0	-1e-05	5
20762	5e-05	0.00014	0.00022	0.00026	0.00048	-0.0001	0	-1e-05	5
20763	5e-05	0.00014	0.00022	0.00026	0.00048	-0.0001	0	-1e-05	5
20764	5e-05	0.00014	0.00022	0.00026	0.00048	-0.0001	0	-1e-05	5
20765	5e-05	0.00014	0.00022	0.00026	0.00048	-0.0001	0	-1e-05	5
20766	-8e-05	3e-05	0.00042	-0.00029	-0.00019	-0.00021	-3e-05	-7e-05	5
20767	-8e-05	3e-05	0.00042	-0.00029	-0.00019	-0.00021	-3e-05	-7e-05	5
20768	-8e-05	3e-05	0.00042	-0.00029	-0.00019	-0.00021	-3e-05	-7e-05	5
20769	-8e-05	3e-05	0.00042	-0.00029	-0.00019	-0.00021	-3e-05	-7e-05	5
20770	-8e-05	3e-05	0.00042	-0.00029	-0.00019	-0.00021	-3e-05	-7e-05	5
20771	-8e-05	3e-05	0.00042	-0.00029	-0.00019	-0.00021	-3e-05	-7e-05	5
20772	-8e-05	3e-05	0.00042	-0.00029	-0.00019	-0.00021	-3e-05	-7e-05	5
20773	-8e-05	3e-05	0.00042	-0.00029	-0.00019	-0.00021	-3e-05	-7e-05	5
20774	-8e-05	3e-05	0.00042	-0.00029	-0.00019	-0.00021	-3e-05	-7e-05	5
20775	-8e-05	3e-05	0.00042	-0.00029	-0.00019	-0.00021	-3e-05	-7e-05	5
20776	-8e-05	3e-05	0.00042	-0.00029	-0.00019	-0.00021	-3e-05	-7e-05	5
20777	-8e-05	3e-05	0.00042	-0.00029	-0.00019	-0.00021	-3e-05	-7e-05	5
20778	-8e-05	3e-05	0.00042	-0.00029	-0.00019	-0.00021	-3e-05	-7e-05	5
20779	-8e-05	3e-05	0.00042	-0.00029	-0.00019	-0.00021	-3e-05	-7e-05	5
20780	-8e-05	3e-05	0.00042	-0.00029	-0.00019	-0.00021	-3e-05	-7e-05	5
20781	4e-05	-1e-05	0.00014	0.0005	9e-05	0.00018	0	1e-05	5
20782	8e-05	8e-05	0.00012	0.00063	2e-05	0.00013	4e-05	5e-05	5
20783	8e-05	8e-05	0.00012	0.00063	2e-05	0.00013	4e-05	5e-05	5
20784	8e-05	8e-05	0.00012	0.00063	2e-05	0.00013	4e-05	5e-05	5
20785	8e-05	8e-05	0.00012	0.00063	2e-05	0.00013	4e-05	5e-05	5
20786	8e-05	8e-05	0.00012	0.00063	2e-05	0.00013	4e-05	5e-05	5
20788	8e-05	8e-05	0.00012	0.00063	2e-05	0.00013	4e-05	5e-05	5
20789	8e-05	8e-05	0.00012	0.00063	2e-05	0.00013	4e-05	5e-05	5
20790	8e-05	8e-05	0.00012	0.00063	2e-05	0.00013	4e-05	5e-05	5
20791	8e-05	8e-05	0.00012	0.00063	2e-05	0.00013	4e-05	5e-05	5
20792	8e-05	8e-05	0.00012	0.00063	2e-05	0.00013	4e-05	5e-05	5
20793	8e-05	8e-05	0.00012	0.00063	2e-05	0.00013	4e-05	5e-05	5
20794	8e-05	8e-05	0.00012	0.00063	2e-05	0.00013	4e-05	5e-05	5
20795	8e-05	8e-05	0.00012	0.00063	2e-05	0.00013	4e-05	5e-05	5
20796	8e-05	8e-05	0.00012	0.00063	2e-05	0.00013	4e-05	5e-05	5
20797	8e-05	8e-05	0.00012	0.00063	2e-05	0.00013	4e-05	5e-05	5
20798	8e-05	8e-05	0.00012	0.00063	2e-05	0.00013	4e-05	5e-05	5
20799	8e-05	8e-05	0.00012	0.00063	2e-05	0.00013	4e-05	5e-05	5
20800	8e-05	8e-05	0.00012	0.00063	2e-05	0.00013	4e-05	5e-05	5
20801	8e-05	8e-05	0.00012	0.00063	2e-05	0.00013	4e-05	5e-05	5
20802	8e-05	8e-05	0.00012	0.00063	2e-05	0.00013	4e-05	5e-05	5
20803	1e-05	-4e-05	8e-05	-0.00042	-0.00056	-0.00022	-2e-05	-2e-05	5
20804	1e-05	-4e-05	8e-05	-0.00042	-0.00056	-0.00022	-2e-05	-2e-05	5
20805	3e-05	7e-05	0.00028	0.00021	9e-05	0.00017	6e-05	5e-05	5
20806	3e-05	7e-05	0.00028	0.00021	9e-05	0.00017	6e-05	5e-05	5
20807	3e-05	7e-05	0.00028	0.00021	9e-05	0.00017	6e-05	5e-05	5
20808	3e-05	7e-05	0.00028	0.00021	9e-05	0.00017	6e-05	5e-05	5
20809	3e-05	7e-05	0.00028	0.00021	9e-05	0.00017	6e-05	5e-05	5
20810	3e-05	7e-05	0.00028	0.00021	9e-05	0.00017	6e-05	5e-05	5
20811	3e-05	7e-05	0.00028	0.00021	9e-05	0.00017	6e-05	5e-05	5
20812	3e-05	7e-05	0.00028	0.00021	9e-05	0.00017	6e-05	5e-05	5
20813	3e-05	7e-05	0.00028	0.00021	9e-05	0.00017	6e-05	5e-05	5
20814	3e-05	7e-05	0.00028	0.00021	9e-05	0.00017	6e-05	5e-05	5
20815	3e-05	7e-05	0.00028	0.00021	9e-05	0.00017	6e-05	5e-05	5
20816	3e-05	7e-05	0.00028	0.00021	9e-05	0.00017	6e-05	5e-05	5
20817	-3e-05	-7e-05	-0.00079	-0.00022	0.00082	-4e-05	-3e-05	-3e-05	5
20818	-3e-05	-7e-05	-0.00079	-0.00022	0.00082	-4e-05	-3e-05	-3e-05	5
20819	-3e-05	-7e-05	-0.00079	-0.00022	0.00082	-4e-05	-3e-05	-3e-05	5
20820	-3e-05	-7e-05	-0.00079	-0.00022	0.00082	-4e-05	-3e-05	-3e-05	5
20821	-3e-05	-7e-05	-0.00079	-0.00022	0.00082	-4e-05	-3e-05	-3e-05	5
20822	-3e-05	-7e-05	-0.00079	-0.00022	0.00082	-4e-05	-3e-05	-3e-05	5
20823	-3e-05	-7e-05	-0.00079	-0.00022	0.00082	-4e-05	-3e-05	-3e-05	5
20824	-3e-05	-7e-05	-0.00079	-0.00022	0.00082	-4e-05	-3e-05	-3e-05	5
20825	-3e-05	-7e-05	-0.00079	-0.00022	0.00082	-4e-05	-3e-05	-3e-05	5
20826	4e-05	4e-05	-4e-05	4e-05	-0.00021	0	0	1e-05	5
20827	4e-05	4e-05	-4e-05	4e-05	-0.00021	0	0	1e-05	5
20828	4e-05	4e-05	-4e-05	4e-05	-0.00021	0	0	1e-05	5
20829	4e-05	4e-05	-4e-05	4e-05	-0.00021	0	0	1e-05	5
20830	4e-05	4e-05	-4e-05	4e-05	-0.00021	0	0	1e-05	5
20831	4e-05	4e-05	-4e-05	4e-05	-0.00021	0	0	1e-05	5
20832	4e-05	4e-05	-4e-05	4e-05	-0.00021	0	0	1e-05	5
20833	4e-05	4e-05	-4e-05	4e-05	-0.00021	0	0	1e-05	5
20834	4e-05	4e-05	-4e-05	4e-05	-0.00021	0	0	1e-05	5
20835	4e-05	4e-05	-4e-05	4e-05	-0.00021	0	0	1e-05	5
20836	4e-05	4e-05	-4e-05	4e-05	-0.00021	0	0	1e-05	5
20838	4e-05	4e-05	-4e-05	4e-05	-0.00021	0	0	1e-05	5
20839	4e-05	4e-05	-4e-05	4e-05	-0.00021	0	0	1e-05	5
20840	4e-05	4e-05	-4e-05	4e-05	-0.00021	0	0	1e-05	5
20841	-8e-05	-9e-05	-6e-05	-0.00044	-0.00081	-0.00016	-7e-05	-4e-05	5
20842	1e-05	-0.0001	-0.00061	-0.00077	-7e-05	-0.00011	0.0001	3e-05	5
20843	1e-05	-0.0001	-0.00061	-0.00077	-7e-05	-0.00011	0.0001	3e-05	5
20844	1e-05	-0.0001	-0.00061	-0.00077	-7e-05	-0.00011	0.0001	3e-05	5
20845	1e-05	-0.0001	-0.00061	-0.00077	-7e-05	-0.00011	0.0001	3e-05	5
20846	1e-05	-0.0001	-0.00061	-0.00077	-7e-05	-0.00011	0.0001	3e-05	5
20847	1e-05	-0.0001	-0.00061	-0.00077	-7e-05	-0.00011	0.0001	3e-05	5
20848	1e-05	-0.0001	-0.00061	-0.00077	-7e-05	-0.00011	0.0001	3e-05	5
20849	1e-05	-0.0001	-0.00061	-0.00077	-7e-05	-0.00011	0.0001	3e-05	5
20850	1e-05	-0.0001	-0.00061	-0.00077	-7e-05	-0.00011	0.0001	3e-05	5
20851	1e-05	-0.0001	-0.00061	-0.00077	-7e-05	-0.00011	0.0001	3e-05	5
20852	1e-05	-0.0001	-0.00061	-0.00077	-7e-05	-0.00011	0.0001	3e-05	5
20853	1e-05	-0.0001	-0.00061	-0.00077	-7e-05	-0.00011	0.0001	3e-05	5
20854	1e-05	-0.0001	-0.00061	-0.00077	-7e-05	-0.00011	0.0001	3e-05	5
20855	1e-05	-0.0001	-0.00061	-0.00077	-7e-05	-0.00011	0.0001	3e-05	5
20856	1e-05	-0.0001	-0.00061	-0.00077	-7e-05	-0.00011	0.0001	3e-05	5
20857	1e-05	-0.0001	-0.00061	-0.00077	-7e-05	-0.00011	0.0001	3e-05	5
20858	1e-05	-0.0001	-0.00061	-0.00077	-7e-05	-0.00011	0.0001	3e-05	5
20859	1e-05	-0.0001	-0.00061	-0.00077	-7e-05	-0.00011	0.0001	3e-05	5
20860	1e-05	-0.0001	-0.00061	-0.00077	-7e-05	-0.00011	0.0001	3e-05	5
20861	1e-05	-0.0001	-0.00061	-0.00077	-7e-05	-0.00011	0.0001	3e-05	5
20862	1e-05	-0.0001	-0.00061	-0.00077	-7e-05	-0.00011	0.0001	3e-05	5
20863	1e-05	-0.0001	-0.00061	-0.00077	-7e-05	-0.00011	0.0001	3e-05	5
20864	-0.00013	-0.00017	-0.00055	-0.00109	-0.00045	-0.00047	-0.00034	-0.00016	5
20865	4e-05	6e-05	5e-05	-0.00011	-5e-05	0.00021	1e-05	3e-05	5
20866	4e-05	6e-05	5e-05	-0.00011	-5e-05	0.00021	1e-05	3e-05	5
20867	4e-05	6e-05	5e-05	-0.00011	-5e-05	0.00021	1e-05	3e-05	5
20868	4e-05	6e-05	5e-05	-0.00011	-5e-05	0.00021	1e-05	3e-05	5
20869	4e-05	6e-05	5e-05	-0.00011	-5e-05	0.00021	1e-05	3e-05	5
20870	4e-05	6e-05	5e-05	-0.00011	-5e-05	0.00021	1e-05	3e-05	5
20871	4e-05	6e-05	5e-05	-0.00011	-5e-05	0.00021	1e-05	3e-05	5
20872	4e-05	6e-05	5e-05	-0.00011	-5e-05	0.00021	1e-05	3e-05	5
20873	4e-05	6e-05	5e-05	-0.00011	-5e-05	0.00021	1e-05	3e-05	5
20874	4e-05	6e-05	5e-05	-0.00011	-5e-05	0.00021	1e-05	3e-05	5
20875	4e-05	6e-05	5e-05	-0.00011	-5e-05	0.00021	1e-05	3e-05	5
20876	4e-05	6e-05	5e-05	-0.00011	-5e-05	0.00021	1e-05	3e-05	5
20877	-1e-05	1e-05	0.00018	0.00018	-0.00044	-0.00015	-4e-05	-4e-05	5
20878	-1e-05	1e-05	0.00018	0.00018	-0.00044	-0.00015	-4e-05	-4e-05	5
20879	-1e-05	1e-05	0.00018	0.00018	-0.00044	-0.00015	-4e-05	-4e-05	5
20880	-1e-05	1e-05	0.00018	0.00018	-0.00044	-0.00015	-4e-05	-4e-05	5
20881	-1e-05	1e-05	0.00018	0.00018	-0.00044	-0.00015	-4e-05	-4e-05	5
20882	-1e-05	1e-05	0.00018	0.00018	-0.00044	-0.00015	-4e-05	-4e-05	5
20883	-1e-05	1e-05	0.00018	0.00018	-0.00044	-0.00015	-4e-05	-4e-05	5
20884	-1e-05	1e-05	0.00018	0.00018	-0.00044	-0.00015	-4e-05	-4e-05	5
20885	-1e-05	1e-05	0.00018	0.00018	-0.00044	-0.00015	-4e-05	-4e-05	5
20886	0	-0.00019	-0.00049	-0.00049	0.00077	0.00037	0.00019	8e-05	5
20888	0	-0.00019	-0.00049	-0.00049	0.00077	0.00037	0.00019	8e-05	5
20889	0	-0.00019	-0.00049	-0.00049	0.00077	0.00037	0.00019	8e-05	5
20890	0	-0.00019	-0.00049	-0.00049	0.00077	0.00037	0.00019	8e-05	5
20891	0	-0.00019	-0.00049	-0.00049	0.00077	0.00037	0.00019	8e-05	5
20892	0	-0.00019	-0.00049	-0.00049	0.00077	0.00037	0.00019	8e-05	5
20893	0	-0.00019	-0.00049	-0.00049	0.00077	0.00037	0.00019	8e-05	5
20894	0	-0.00019	-0.00049	-0.00049	0.00077	0.00037	0.00019	8e-05	5
20895	0	-0.00019	-0.00049	-0.00049	0.00077	0.00037	0.00019	8e-05	5
20896	0	-0.00019	-0.00049	-0.00049	0.00077	0.00037	0.00019	8e-05	5
20897	0	-0.00019	-0.00049	-0.00049	0.00077	0.00037	0.00019	8e-05	5
20898	0	-0.00019	-0.00049	-0.00049	0.00077	0.00037	0.00019	8e-05	5
20899	0	-0.00019	-0.00049	-0.00049	0.00077	0.00037	0.00019	8e-05	5
20900	0	-0.00019	-0.00049	-0.00049	0.00077	0.00037	0.00019	8e-05	5
20901	1e-05	0.00012	0.00042	0.00065	0.00022	0.00012	3e-05	-3e-05	5
20902	3e-05	7e-05	-5e-05	-0.0003	-0.0005	-0.0002	-0.00012	-3e-05	5
20903	1e-05	-5e-05	0.00095	0.00021	-6e-05	0.00021	1e-05	3e-05	5
20904	1e-05	-5e-05	0.00095	0.00021	-6e-05	0.00021	1e-05	3e-05	5
20905	1e-05	-5e-05	0.00095	0.00021	-6e-05	0.00021	1e-05	3e-05	5
20906	1e-05	-5e-05	0.00095	0.00021	-6e-05	0.00021	1e-05	3e-05	5
20907	1e-05	-5e-05	0.00095	0.00021	-6e-05	0.00021	1e-05	3e-05	5
20908	1e-05	-5e-05	0.00095	0.00021	-6e-05	0.00021	1e-05	3e-05	5
20909	1e-05	-5e-05	0.00095	0.00021	-6e-05	0.00021	1e-05	3e-05	5
20910	1e-05	-5e-05	0.00095	0.00021	-6e-05	0.00021	1e-05	3e-05	5
20911	1e-05	-5e-05	0.00095	0.00021	-6e-05	0.00021	1e-05	3e-05	5
20912	1e-05	-5e-05	0.00095	0.00021	-6e-05	0.00021	1e-05	3e-05	5
20913	1e-05	-5e-05	0.00095	0.00021	-6e-05	0.00021	1e-05	3e-05	5
20914	1e-05	-5e-05	0.00095	0.00021	-6e-05	0.00021	1e-05	3e-05	5
20915	1e-05	-5e-05	0.00095	0.00021	-6e-05	0.00021	1e-05	3e-05	5
20916	1e-05	-5e-05	0.00095	0.00021	-6e-05	0.00021	1e-05	3e-05	5
20917	1e-05	-5e-05	0.00095	0.00021	-6e-05	0.00021	1e-05	3e-05	5
20918	1e-05	-5e-05	0.00095	0.00021	-6e-05	0.00021	1e-05	3e-05	5
20919	1e-05	-5e-05	0.00095	0.00021	-6e-05	0.00021	1e-05	3e-05	5
20920	1e-05	-5e-05	0.00095	0.00021	-6e-05	0.00021	1e-05	3e-05	5
20921	1e-05	-5e-05	0.00095	0.00021	-6e-05	0.00021	1e-05	3e-05	5
20922	1e-05	-5e-05	0.00095	0.00021	-6e-05	0.00021	1e-05	3e-05	5
20923	4e-05	-2e-05	-0.00029	-0.0006	-0.00028	0	0.00026	8e-05	5
20924	4e-05	-2e-05	-0.00029	-0.0006	-0.00028	0	0.00026	8e-05	5
20925	-7e-05	-9e-05	-0.0002	-0.00059	-0.0006	-0.00036	-0.00017	-0.0001	5
20926	-7e-05	-9e-05	-0.0002	-0.00059	-0.0006	-0.00036	-0.00017	-0.0001	5
20927	-7e-05	-9e-05	-0.0002	-0.00059	-0.0006	-0.00036	-0.00017	-0.0001	5
20928	-7e-05	-9e-05	-0.0002	-0.00059	-0.0006	-0.00036	-0.00017	-0.0001	5
20929	-7e-05	-9e-05	-0.0002	-0.00059	-0.0006	-0.00036	-0.00017	-0.0001	5
20930	-7e-05	-9e-05	-0.0002	-0.00059	-0.0006	-0.00036	-0.00017	-0.0001	5
20931	-7e-05	-9e-05	-0.0002	-0.00059	-0.0006	-0.00036	-0.00017	-0.0001	5
20932	-7e-05	-9e-05	-0.0002	-0.00059	-0.0006	-0.00036	-0.00017	-0.0001	5
20933	-7e-05	-9e-05	-0.0002	-0.00059	-0.0006	-0.00036	-0.00017	-0.0001	5
20934	-7e-05	-9e-05	-0.0002	-0.00059	-0.0006	-0.00036	-0.00017	-0.0001	5
20935	-7e-05	-9e-05	-0.0002	-0.00059	-0.0006	-0.00036	-0.00017	-0.0001	5
20936	-7e-05	-9e-05	-0.0002	-0.00059	-0.0006	-0.00036	-0.00017	-0.0001	5
20938	0	3e-05	7e-05	0.00043	0.00047	0.00028	1e-05	0	5
20939	0	3e-05	7e-05	0.00043	0.00047	0.00028	1e-05	0	5
20940	0	3e-05	7e-05	0.00043	0.00047	0.00028	1e-05	0	5
20941	0	3e-05	7e-05	0.00043	0.00047	0.00028	1e-05	0	5
20942	0	3e-05	7e-05	0.00043	0.00047	0.00028	1e-05	0	5
20943	0	3e-05	7e-05	0.00043	0.00047	0.00028	1e-05	0	5
20944	0	3e-05	7e-05	0.00043	0.00047	0.00028	1e-05	0	5
20945	0	3e-05	7e-05	0.00043	0.00047	0.00028	1e-05	0	5
20946	0	3e-05	7e-05	0.00043	0.00047	0.00028	1e-05	0	5
20947	0	3e-05	7e-05	0.00043	0.00047	0.00028	1e-05	0	5
20948	0	3e-05	7e-05	0.00043	0.00047	0.00028	1e-05	0	5
20949	0	3e-05	7e-05	0.00043	0.00047	0.00028	1e-05	0	5
20950	0	3e-05	7e-05	0.00043	0.00047	0.00028	1e-05	0	5
20951	0	3e-05	7e-05	0.00043	0.00047	0.00028	1e-05	0	5
20952	0	3e-05	7e-05	0.00043	0.00047	0.00028	1e-05	0	5
20953	1e-05	-5e-05	-0.00041	-0.00012	-0.00014	-1e-05	0	0	5
20954	1e-05	-5e-05	-0.00041	-0.00012	-0.00014	-1e-05	0	0	5
20955	1e-05	-5e-05	-0.00041	-0.00012	-0.00014	-1e-05	0	0	5
20956	1e-05	-5e-05	-0.00041	-0.00012	-0.00014	-1e-05	0	0	5
20957	1e-05	-5e-05	-0.00041	-0.00012	-0.00014	-1e-05	0	0	5
20958	1e-05	-5e-05	-0.00041	-0.00012	-0.00014	-1e-05	0	0	5
20959	1e-05	-5e-05	-0.00041	-0.00012	-0.00014	-1e-05	0	0	5
20960	1e-05	-5e-05	-0.00041	-0.00012	-0.00014	-1e-05	0	0	5
20961	-7e-05	3e-05	0.0002	-0.00029	-0.0005	-0.00036	-5e-05	-4e-05	5
20962	-1e-05	0	-0.0001	0.00044	-9e-05	5e-05	2e-05	-2e-05	5
20963	-1e-05	0	-0.0001	0.00044	-9e-05	5e-05	2e-05	-2e-05	5
20964	-1e-05	0	-0.0001	0.00044	-9e-05	5e-05	2e-05	-2e-05	5
20965	-1e-05	0	-0.0001	0.00044	-9e-05	5e-05	2e-05	-2e-05	5
20966	-1e-05	0	-0.0001	0.00044	-9e-05	5e-05	2e-05	-2e-05	5
20967	-1e-05	0	-0.0001	0.00044	-9e-05	5e-05	2e-05	-2e-05	5
20968	-1e-05	0	-0.0001	0.00044	-9e-05	5e-05	2e-05	-2e-05	5
20969	-1e-05	0	-0.0001	0.00044	-9e-05	5e-05	2e-05	-2e-05	5
20970	-1e-05	0	-0.0001	0.00044	-9e-05	5e-05	2e-05	-2e-05	5
20971	-1e-05	0	-0.0001	0.00044	-9e-05	5e-05	2e-05	-2e-05	5
20972	-1e-05	0	-0.0001	0.00044	-9e-05	5e-05	2e-05	-2e-05	5
20973	-1e-05	0	-0.0001	0.00044	-9e-05	5e-05	2e-05	-2e-05	5
20974	-1e-05	0	-0.0001	0.00044	-9e-05	5e-05	2e-05	-2e-05	5
20975	-1e-05	0	-0.0001	0.00044	-9e-05	5e-05	2e-05	-2e-05	5
20976	-1e-05	0	-0.0001	0.00044	-9e-05	5e-05	2e-05	-2e-05	5
20977	-1e-05	0	-0.0001	0.00044	-9e-05	5e-05	2e-05	-2e-05	5
20978	-1e-05	0	-0.0001	0.00044	-9e-05	5e-05	2e-05	-2e-05	5
20979	-1e-05	0	-0.0001	0.00044	-9e-05	5e-05	2e-05	-2e-05	5
20980	-1e-05	0	-0.0001	0.00044	-9e-05	5e-05	2e-05	-2e-05	5
20981	-1e-05	0	-0.0001	0.00044	-9e-05	5e-05	2e-05	-2e-05	5
20982	-1e-05	0	-0.0001	0.00044	-9e-05	5e-05	2e-05	-2e-05	5
20983	1e-05	-0.00016	-1e-05	0.00029	0.00048	0.0002	-1e-05	1e-05	5
20984	1e-05	-0.00016	-1e-05	0.00029	0.00048	0.0002	-1e-05	1e-05	5
20985	-5e-05	0	2e-05	0.00045	-1e-05	-0.00029	-0.0001	-8e-05	5
20986	-5e-05	0	2e-05	0.00045	-1e-05	-0.00029	-0.0001	-8e-05	5
20988	-5e-05	0	2e-05	0.00045	-1e-05	-0.00029	-0.0001	-8e-05	5
20989	-5e-05	0	2e-05	0.00045	-1e-05	-0.00029	-0.0001	-8e-05	5
20990	-5e-05	0	2e-05	0.00045	-1e-05	-0.00029	-0.0001	-8e-05	5
20991	-5e-05	0	2e-05	0.00045	-1e-05	-0.00029	-0.0001	-8e-05	5
20992	-5e-05	0	2e-05	0.00045	-1e-05	-0.00029	-0.0001	-8e-05	5
20993	-5e-05	0	2e-05	0.00045	-1e-05	-0.00029	-0.0001	-8e-05	5
20994	-5e-05	0	2e-05	0.00045	-1e-05	-0.00029	-0.0001	-8e-05	5
20995	-5e-05	0	2e-05	0.00045	-1e-05	-0.00029	-0.0001	-8e-05	5
20996	-5e-05	0	2e-05	0.00045	-1e-05	-0.00029	-0.0001	-8e-05	5
20997	6e-05	0.00022	0.00022	0.00043	-0.00011	-7e-05	-7e-05	-4e-05	5
20998	6e-05	0.00022	0.00022	0.00043	-0.00011	-7e-05	-7e-05	-4e-05	5
20999	6e-05	0.00022	0.00022	0.00043	-0.00011	-7e-05	-7e-05	-4e-05	5
21000	6e-05	0.00022	0.00022	0.00043	-0.00011	-7e-05	-7e-05	-4e-05	5
21001	6e-05	0.00022	0.00022	0.00043	-0.00011	-7e-05	-7e-05	-4e-05	5
21002	6e-05	0.00022	0.00022	0.00043	-0.00011	-7e-05	-7e-05	-4e-05	5
21003	6e-05	0.00022	0.00022	0.00043	-0.00011	-7e-05	-7e-05	-4e-05	5
21004	6e-05	0.00022	0.00022	0.00043	-0.00011	-7e-05	-7e-05	-4e-05	5
21005	6e-05	0.00022	0.00022	0.00043	-0.00011	-7e-05	-7e-05	-4e-05	5
21006	4e-05	0.00014	9e-05	0.00082	0.00037	0.00029	3e-05	2e-05	5
21007	4e-05	0.00014	9e-05	0.00082	0.00037	0.00029	3e-05	2e-05	5
21008	4e-05	0.00014	9e-05	0.00082	0.00037	0.00029	3e-05	2e-05	5
21009	4e-05	0.00014	9e-05	0.00082	0.00037	0.00029	3e-05	2e-05	5
21010	4e-05	0.00014	9e-05	0.00082	0.00037	0.00029	3e-05	2e-05	5
21011	4e-05	0.00014	9e-05	0.00082	0.00037	0.00029	3e-05	2e-05	5
21012	4e-05	0.00014	9e-05	0.00082	0.00037	0.00029	3e-05	2e-05	5
21013	4e-05	0.00014	9e-05	0.00082	0.00037	0.00029	3e-05	2e-05	5
21014	4e-05	0.00014	9e-05	0.00082	0.00037	0.00029	3e-05	2e-05	5
21015	4e-05	0.00014	9e-05	0.00082	0.00037	0.00029	3e-05	2e-05	5
21016	4e-05	0.00014	9e-05	0.00082	0.00037	0.00029	3e-05	2e-05	5
21017	4e-05	0.00014	9e-05	0.00082	0.00037	0.00029	3e-05	2e-05	5
21018	4e-05	0.00014	9e-05	0.00082	0.00037	0.00029	3e-05	2e-05	5
21019	4e-05	0.00014	9e-05	0.00082	0.00037	0.00029	3e-05	2e-05	5
21020	4e-05	0.00014	9e-05	0.00082	0.00037	0.00029	3e-05	2e-05	5
21021	-3e-05	-6e-05	8e-05	4e-05	-0.00013	0.00011	4e-05	2e-05	5
21022	3e-05	0	-0.00032	-0.00083	-0.00029	-0.0001	2e-05	0	5
21023	3e-05	0	-0.00032	-0.00083	-0.00029	-0.0001	2e-05	0	5
21024	3e-05	0	-0.00032	-0.00083	-0.00029	-0.0001	2e-05	0	5
21025	3e-05	0	-0.00032	-0.00083	-0.00029	-0.0001	2e-05	0	5
21026	3e-05	0	-0.00032	-0.00083	-0.00029	-0.0001	2e-05	0	5
21027	3e-05	0	-0.00032	-0.00083	-0.00029	-0.0001	2e-05	0	5
21028	3e-05	0	-0.00032	-0.00083	-0.00029	-0.0001	2e-05	0	5
21029	3e-05	0	-0.00032	-0.00083	-0.00029	-0.0001	2e-05	0	5
21030	3e-05	0	-0.00032	-0.00083	-0.00029	-0.0001	2e-05	0	5
21031	3e-05	0	-0.00032	-0.00083	-0.00029	-0.0001	2e-05	0	5
21032	3e-05	0	-0.00032	-0.00083	-0.00029	-0.0001	2e-05	0	5
21033	3e-05	0	-0.00032	-0.00083	-0.00029	-0.0001	2e-05	0	5
21034	3e-05	0	-0.00032	-0.00083	-0.00029	-0.0001	2e-05	0	5
21035	3e-05	0	-0.00032	-0.00083	-0.00029	-0.0001	2e-05	0	5
21036	3e-05	0	-0.00032	-0.00083	-0.00029	-0.0001	2e-05	0	5
21038	3e-05	0	-0.00032	-0.00083	-0.00029	-0.0001	2e-05	0	5
21039	3e-05	0	-0.00032	-0.00083	-0.00029	-0.0001	2e-05	0	5
21040	3e-05	0	-0.00032	-0.00083	-0.00029	-0.0001	2e-05	0	5
21041	3e-05	0	-0.00032	-0.00083	-0.00029	-0.0001	2e-05	0	5
21042	3e-05	0	-0.00032	-0.00083	-0.00029	-0.0001	2e-05	0	5
21043	5e-05	2e-05	0.00012	5e-05	9e-05	7e-05	7e-05	6e-05	5
21044	5e-05	2e-05	0.00012	5e-05	9e-05	7e-05	7e-05	6e-05	5
21045	0	3e-05	4e-05	6e-05	0.00018	8e-05	-7e-05	-4e-05	5
21046	0	3e-05	4e-05	6e-05	0.00018	8e-05	-7e-05	-4e-05	5
21047	0	3e-05	4e-05	6e-05	0.00018	8e-05	-7e-05	-4e-05	5
21048	0	3e-05	4e-05	6e-05	0.00018	8e-05	-7e-05	-4e-05	5
21049	0	3e-05	4e-05	6e-05	0.00018	8e-05	-7e-05	-4e-05	5
21050	0	3e-05	4e-05	6e-05	0.00018	8e-05	-7e-05	-4e-05	5
21051	0	3e-05	4e-05	6e-05	0.00018	8e-05	-7e-05	-4e-05	5
21052	0	3e-05	4e-05	6e-05	0.00018	8e-05	-7e-05	-4e-05	5
21053	0	3e-05	4e-05	6e-05	0.00018	8e-05	-7e-05	-4e-05	5
21054	0	3e-05	4e-05	6e-05	0.00018	8e-05	-7e-05	-4e-05	5
21055	0	3e-05	4e-05	6e-05	0.00018	8e-05	-7e-05	-4e-05	5
21056	0	3e-05	4e-05	6e-05	0.00018	8e-05	-7e-05	-4e-05	5
21057	0	3e-05	4e-05	6e-05	0.00018	8e-05	-7e-05	-4e-05	5
21058	0	3e-05	4e-05	6e-05	0.00018	8e-05	-7e-05	-4e-05	5
21059	0	3e-05	4e-05	6e-05	0.00018	8e-05	-7e-05	-4e-05	5
21060	0	3e-05	4e-05	6e-05	0.00018	8e-05	-7e-05	-4e-05	5
21061	0	3e-05	4e-05	6e-05	0.00018	8e-05	-7e-05	-4e-05	5
21062	0	3e-05	4e-05	6e-05	0.00018	8e-05	-7e-05	-4e-05	5
21063	0	3e-05	4e-05	6e-05	0.00018	8e-05	-7e-05	-4e-05	5
21064	0	3e-05	4e-05	6e-05	0.00018	8e-05	-7e-05	-4e-05	5
21065	0	3e-05	4e-05	6e-05	0.00018	8e-05	-7e-05	-4e-05	5
21066	-1e-05	2e-05	-0.00025	0.00014	0.00034	0.00015	1e-05	-5e-05	5
21067	1e-05	1e-05	0.00015	-7e-05	-0.00012	-6e-05	-6e-05	0	5
21068	1e-05	1e-05	0.00015	-7e-05	-0.00012	-6e-05	-6e-05	0	5
21069	1e-05	1e-05	0.00015	-7e-05	-0.00012	-6e-05	-6e-05	0	5
21070	1e-05	1e-05	0.00015	-7e-05	-0.00012	-6e-05	-6e-05	0	5
21071	1e-05	1e-05	0.00015	-7e-05	-0.00012	-6e-05	-6e-05	0	5
21072	1e-05	1e-05	0.00015	-7e-05	-0.00012	-6e-05	-6e-05	0	5
21073	1e-05	1e-05	0.00015	-7e-05	-0.00012	-6e-05	-6e-05	0	5
21074	1e-05	1e-05	0.00015	-7e-05	-0.00012	-6e-05	-6e-05	0	5
21075	1e-05	1e-05	0.00015	-7e-05	-0.00012	-6e-05	-6e-05	0	5
21076	1e-05	1e-05	0.00015	-7e-05	-0.00012	-6e-05	-6e-05	0	5
21077	1e-05	1e-05	0.00015	-7e-05	-0.00012	-6e-05	-6e-05	0	5
21078	1e-05	1e-05	0.00015	-7e-05	-0.00012	-6e-05	-6e-05	0	5
21079	1e-05	1e-05	0.00015	-7e-05	-0.00012	-6e-05	-6e-05	0	5
21080	2e-05	0.00011	0.00017	2e-05	-2e-05	1e-05	0	2e-05	5
21081	-0.0001	-0.0002	-0.00048	-0.00069	-0.00049	-9e-05	-2e-05	-7e-05	5
21082	-6e-05	-5e-05	4e-05	-0.0002	-9e-05	-1e-05	-3e-05	-1e-05	5
21083	-6e-05	-5e-05	4e-05	-0.0002	-9e-05	-1e-05	-3e-05	-1e-05	5
21084	-6e-05	-5e-05	4e-05	-0.0002	-9e-05	-1e-05	-3e-05	-1e-05	5
21085	-6e-05	-5e-05	4e-05	-0.0002	-9e-05	-1e-05	-3e-05	-1e-05	5
21086	-6e-05	-5e-05	4e-05	-0.0002	-9e-05	-1e-05	-3e-05	-1e-05	5
21088	-6e-05	-5e-05	4e-05	-0.0002	-9e-05	-1e-05	-3e-05	-1e-05	5
21089	-6e-05	-5e-05	4e-05	-0.0002	-9e-05	-1e-05	-3e-05	-1e-05	5
21090	-6e-05	-5e-05	4e-05	-0.0002	-9e-05	-1e-05	-3e-05	-1e-05	5
21091	-6e-05	-5e-05	4e-05	-0.0002	-9e-05	-1e-05	-3e-05	-1e-05	5
21092	-6e-05	-5e-05	4e-05	-0.0002	-9e-05	-1e-05	-3e-05	-1e-05	5
21093	-6e-05	-5e-05	4e-05	-0.0002	-9e-05	-1e-05	-3e-05	-1e-05	5
21094	-6e-05	-5e-05	4e-05	-0.0002	-9e-05	-1e-05	-3e-05	-1e-05	5
21095	-6e-05	-5e-05	4e-05	-0.0002	-9e-05	-1e-05	-3e-05	-1e-05	5
21096	-6e-05	-5e-05	4e-05	-0.0002	-9e-05	-1e-05	-3e-05	-1e-05	5
21097	-6e-05	-5e-05	4e-05	-0.0002	-9e-05	-1e-05	-3e-05	-1e-05	5
21098	-6e-05	-5e-05	4e-05	-0.0002	-9e-05	-1e-05	-3e-05	-1e-05	5
21099	-6e-05	-5e-05	4e-05	-0.0002	-9e-05	-1e-05	-3e-05	-1e-05	5
21100	-6e-05	-5e-05	4e-05	-0.0002	-9e-05	-1e-05	-3e-05	-1e-05	5
21101	-6e-05	-5e-05	4e-05	-0.0002	-9e-05	-1e-05	-3e-05	-1e-05	5
21102	-6e-05	-5e-05	4e-05	-0.0002	-9e-05	-1e-05	-3e-05	-1e-05	5
21103	-8e-05	-0.00013	-0.00018	-0.00046	-0.00054	-3e-05	0	-4e-05	5
21105	-8e-05	-0.00013	-0.00018	-0.00046	-0.00054	-3e-05	0	-4e-05	5
21106	-8e-05	-0.00013	-0.00018	-0.00046	-0.00054	-3e-05	0	-4e-05	5
21107	-8e-05	-0.00013	-0.00018	-0.00046	-0.00054	-3e-05	0	-4e-05	5
21108	-8e-05	-0.00013	-0.00018	-0.00046	-0.00054	-3e-05	0	-4e-05	5
21109	-8e-05	-0.00013	-0.00018	-0.00046	-0.00054	-3e-05	0	-4e-05	5
21110	-8e-05	-0.00013	-0.00018	-0.00046	-0.00054	-3e-05	0	-4e-05	5
21111	-8e-05	-0.00013	-0.00018	-0.00046	-0.00054	-3e-05	0	-4e-05	5
21112	-8e-05	-0.00013	-0.00018	-0.00046	-0.00054	-3e-05	0	-4e-05	5
21113	-8e-05	-0.00013	-0.00018	-0.00046	-0.00054	-3e-05	0	-4e-05	5
21114	-8e-05	-0.00013	-0.00018	-0.00046	-0.00054	-3e-05	0	-4e-05	5
21115	-8e-05	-0.00013	-0.00018	-0.00046	-0.00054	-3e-05	0	-4e-05	5
21116	-8e-05	-0.00013	-0.00018	-0.00046	-0.00054	-3e-05	0	-4e-05	5
21117	-8e-05	-0.00013	-0.00018	-0.00046	-0.00054	-3e-05	0	-4e-05	5
21118	-8e-05	-0.00013	-0.00018	-0.00046	-0.00054	-3e-05	0	-4e-05	5
21119	-8e-05	-0.00013	-0.00018	-0.00046	-0.00054	-3e-05	0	-4e-05	5
21120	-8e-05	-0.00013	-0.00018	-0.00046	-0.00054	-3e-05	0	-4e-05	5
21121	-8e-05	-0.00013	-0.00018	-0.00046	-0.00054	-3e-05	0	-4e-05	5
21122	-8e-05	-0.00013	-0.00018	-0.00046	-0.00054	-3e-05	0	-4e-05	5
21123	-8e-05	-0.00013	-0.00018	-0.00046	-0.00054	-3e-05	0	-4e-05	5
21124	-8e-05	-0.00013	-0.00018	-0.00046	-0.00054	-3e-05	0	-4e-05	5
21125	-9e-05	-0.00025	-9e-05	-0.00063	-0.00081	-0.00015	-0.00011	-8e-05	5
21126	-7e-05	-6e-05	-0.00028	4e-05	-0.0001	-0.00034	-0.0002	-0.0001	5
21127	-7e-05	-6e-05	-0.00028	4e-05	-0.0001	-0.00034	-0.0002	-0.0001	5
21128	-7e-05	-6e-05	-0.00028	4e-05	-0.0001	-0.00034	-0.0002	-0.0001	5
21129	-7e-05	-6e-05	-0.00028	4e-05	-0.0001	-0.00034	-0.0002	-0.0001	5
21130	-7e-05	-6e-05	-0.00028	4e-05	-0.0001	-0.00034	-0.0002	-0.0001	5
21131	-7e-05	-6e-05	-0.00028	4e-05	-0.0001	-0.00034	-0.0002	-0.0001	5
21132	-7e-05	-6e-05	-0.00028	4e-05	-0.0001	-0.00034	-0.0002	-0.0001	5
21133	-7e-05	-6e-05	-0.00028	4e-05	-0.0001	-0.00034	-0.0002	-0.0001	5
21134	-7e-05	-6e-05	-0.00028	4e-05	-0.0001	-0.00034	-0.0002	-0.0001	5
21135	-7e-05	-6e-05	-0.00028	4e-05	-0.0001	-0.00034	-0.0002	-0.0001	5
21136	-7e-05	-6e-05	-0.00028	4e-05	-0.0001	-0.00034	-0.0002	-0.0001	5
21138	-7e-05	-6e-05	-0.00028	4e-05	-0.0001	-0.00034	-0.0002	-0.0001	5
21139	-7e-05	-6e-05	-0.00028	4e-05	-0.0001	-0.00034	-0.0002	-0.0001	5
21140	0.00011	7e-05	0.00034	0.0006	0.00047	0.0002	-3e-05	4e-05	5
21141	7e-05	0.0002	2e-05	-0.00017	-4e-05	-0.0001	5e-05	3e-05	5
21142	7e-05	0.0002	2e-05	-0.00017	-4e-05	-0.0001	5e-05	3e-05	5
21143	7e-05	0.0002	2e-05	-0.00017	-4e-05	-0.0001	5e-05	3e-05	5
21144	7e-05	0.0002	2e-05	-0.00017	-4e-05	-0.0001	5e-05	3e-05	5
21145	7e-05	0.0002	2e-05	-0.00017	-4e-05	-0.0001	5e-05	3e-05	5
21146	7e-05	0.0002	2e-05	-0.00017	-4e-05	-0.0001	5e-05	3e-05	5
21147	7e-05	0.0002	2e-05	-0.00017	-4e-05	-0.0001	5e-05	3e-05	5
21148	7e-05	0.0002	2e-05	-0.00017	-4e-05	-0.0001	5e-05	3e-05	5
21149	7e-05	0.0002	2e-05	-0.00017	-4e-05	-0.0001	5e-05	3e-05	5
21150	7e-05	0.0002	2e-05	-0.00017	-4e-05	-0.0001	5e-05	3e-05	5
21151	7e-05	0.0002	2e-05	-0.00017	-4e-05	-0.0001	5e-05	3e-05	5
21152	7e-05	0.0002	2e-05	-0.00017	-4e-05	-0.0001	5e-05	3e-05	5
21153	7e-05	0.0002	2e-05	-0.00017	-4e-05	-0.0001	5e-05	3e-05	5
21154	7e-05	0.0002	2e-05	-0.00017	-4e-05	-0.0001	5e-05	3e-05	5
21155	7e-05	0.0002	2e-05	-0.00017	-4e-05	-0.0001	5e-05	3e-05	5
21156	7e-05	0.0002	2e-05	-0.00017	-4e-05	-0.0001	5e-05	3e-05	5
21157	7e-05	0.0002	2e-05	-0.00017	-4e-05	-0.0001	5e-05	3e-05	5
21158	7e-05	0.0002	2e-05	-0.00017	-4e-05	-0.0001	5e-05	3e-05	5
21159	7e-05	0.0002	2e-05	-0.00017	-4e-05	-0.0001	5e-05	3e-05	5
21160	7e-05	0.0002	2e-05	-0.00017	-4e-05	-0.0001	5e-05	3e-05	5
21161	7e-05	0.0002	2e-05	-0.00017	-4e-05	-0.0001	5e-05	3e-05	5
21162	7e-05	0.0002	2e-05	-0.00017	-4e-05	-0.0001	5e-05	3e-05	5
21163	7e-05	0.0002	2e-05	-0.00017	-4e-05	-0.0001	5e-05	3e-05	5
21164	7e-05	0.0002	2e-05	-0.00017	-4e-05	-0.0001	5e-05	3e-05	5
21165	7e-05	0.0002	2e-05	-0.00017	-4e-05	-0.0001	5e-05	3e-05	5
21166	7e-05	0.0002	2e-05	-0.00017	-4e-05	-0.0001	5e-05	3e-05	5
21167	7e-05	0.0002	2e-05	-0.00017	-4e-05	-0.0001	5e-05	3e-05	5
21168	7e-05	0.0002	2e-05	-0.00017	-4e-05	-0.0001	5e-05	3e-05	5
21169	7e-05	0.0002	2e-05	-0.00017	-4e-05	-0.0001	5e-05	3e-05	5
21170	7e-05	0.0002	2e-05	-0.00017	-4e-05	-0.0001	5e-05	3e-05	5
21171	0.00021	0.00049	0.00063	0.00019	-0.00021	-6e-05	-1e-05	7e-05	5
21172	-0.00037	-0.00059	-0.00017	0.00017	0.00034	-1e-05	-0.00017	-0.00014	5
21173	-0.00037	-0.00059	-0.00017	0.00017	0.00034	-1e-05	-0.00017	-0.00014	5
21174	-0.00037	-0.00059	-0.00017	0.00017	0.00034	-1e-05	-0.00017	-0.00014	5
21175	-0.00037	-0.00059	-0.00017	0.00017	0.00034	-1e-05	-0.00017	-0.00014	5
21176	-0.00037	-0.00059	-0.00017	0.00017	0.00034	-1e-05	-0.00017	-0.00014	5
21177	-0.00037	-0.00059	-0.00017	0.00017	0.00034	-1e-05	-0.00017	-0.00014	5
21178	-0.00037	-0.00059	-0.00017	0.00017	0.00034	-1e-05	-0.00017	-0.00014	5
21179	-0.00037	-0.00059	-0.00017	0.00017	0.00034	-1e-05	-0.00017	-0.00014	5
21180	-0.00037	-0.00059	-0.00017	0.00017	0.00034	-1e-05	-0.00017	-0.00014	5
21181	-0.00037	-0.00059	-0.00017	0.00017	0.00034	-1e-05	-0.00017	-0.00014	5
21182	-0.00037	-0.00059	-0.00017	0.00017	0.00034	-1e-05	-0.00017	-0.00014	5
21183	-0.00037	-0.00059	-0.00017	0.00017	0.00034	-1e-05	-0.00017	-0.00014	5
21184	-0.00037	-0.00059	-0.00017	0.00017	0.00034	-1e-05	-0.00017	-0.00014	5
21185	1e-05	9e-05	-0.00017	8e-05	-0.00068	-4e-05	3e-05	1e-05	5
21186	5e-05	0.0001	0.00015	-0.00041	-0.0003	-3e-05	4e-05	4e-05	5
21188	5e-05	0.0001	0.00015	-0.00041	-0.0003	-3e-05	4e-05	4e-05	5
21189	5e-05	0.0001	0.00015	-0.00041	-0.0003	-3e-05	4e-05	4e-05	5
21190	5e-05	0.0001	0.00015	-0.00041	-0.0003	-3e-05	4e-05	4e-05	5
21191	5e-05	0.0001	0.00015	-0.00041	-0.0003	-3e-05	4e-05	4e-05	5
21192	5e-05	0.0001	0.00015	-0.00041	-0.0003	-3e-05	4e-05	4e-05	5
21193	5e-05	0.0001	0.00015	-0.00041	-0.0003	-3e-05	4e-05	4e-05	5
21194	5e-05	0.0001	0.00015	-0.00041	-0.0003	-3e-05	4e-05	4e-05	5
21195	5e-05	0.0001	0.00015	-0.00041	-0.0003	-3e-05	4e-05	4e-05	5
21196	5e-05	0.0001	0.00015	-0.00041	-0.0003	-3e-05	4e-05	4e-05	5
21197	5e-05	0.0001	0.00015	-0.00041	-0.0003	-3e-05	4e-05	4e-05	5
21198	5e-05	0.0001	0.00015	-0.00041	-0.0003	-3e-05	4e-05	4e-05	5
21199	5e-05	0.0001	0.00015	-0.00041	-0.0003	-3e-05	4e-05	4e-05	5
21200	-3e-05	-0.00026	-0.00035	-0.00022	9e-05	-2e-05	-6e-05	1e-05	5
21201	5e-05	0.00017	-0.00024	-0.00027	-0.00048	-1e-05	-7e-05	-4e-05	5
21202	5e-05	0.00017	-0.00024	-0.00027	-0.00048	-1e-05	-7e-05	-4e-05	5
21203	5e-05	0.00017	-0.00024	-0.00027	-0.00048	-1e-05	-7e-05	-4e-05	5
21204	5e-05	0.00017	-0.00024	-0.00027	-0.00048	-1e-05	-7e-05	-4e-05	5
21205	5e-05	0.00017	-0.00024	-0.00027	-0.00048	-1e-05	-7e-05	-4e-05	5
21206	5e-05	0.00017	-0.00024	-0.00027	-0.00048	-1e-05	-7e-05	-4e-05	5
21207	5e-05	0.00017	-0.00024	-0.00027	-0.00048	-1e-05	-7e-05	-4e-05	5
21208	5e-05	0.00017	-0.00024	-0.00027	-0.00048	-1e-05	-7e-05	-4e-05	5
21209	5e-05	0.00017	-0.00024	-0.00027	-0.00048	-1e-05	-7e-05	-4e-05	5
21210	5e-05	0.00017	-0.00024	-0.00027	-0.00048	-1e-05	-7e-05	-4e-05	5
21211	5e-05	0.00017	-0.00024	-0.00027	-0.00048	-1e-05	-7e-05	-4e-05	5
21212	5e-05	0.00017	-0.00024	-0.00027	-0.00048	-1e-05	-7e-05	-4e-05	5
21213	5e-05	0.00017	-0.00024	-0.00027	-0.00048	-1e-05	-7e-05	-4e-05	5
21214	5e-05	0.00017	-0.00024	-0.00027	-0.00048	-1e-05	-7e-05	-4e-05	5
21215	5e-05	0.00017	-0.00024	-0.00027	-0.00048	-1e-05	-7e-05	-4e-05	5
21216	5e-05	0.00017	-0.00024	-0.00027	-0.00048	-1e-05	-7e-05	-4e-05	5
21217	5e-05	0.00017	-0.00024	-0.00027	-0.00048	-1e-05	-7e-05	-4e-05	5
21218	5e-05	0.00017	-0.00024	-0.00027	-0.00048	-1e-05	-7e-05	-4e-05	5
21219	5e-05	0.00017	-0.00024	-0.00027	-0.00048	-1e-05	-7e-05	-4e-05	5
21220	5e-05	0.00017	-0.00024	-0.00027	-0.00048	-1e-05	-7e-05	-4e-05	5
21221	5e-05	0.00017	-0.00024	-0.00027	-0.00048	-1e-05	-7e-05	-4e-05	5
21222	5e-05	0.00017	-0.00024	-0.00027	-0.00048	-1e-05	-7e-05	-4e-05	5
21223	-0.0001	-7e-05	0.00026	0.00055	0.00074	7e-05	0	-3e-05	5
21224	-0.0001	-7e-05	0.00026	0.00055	0.00074	7e-05	0	-3e-05	5
21225	-0.0001	-7e-05	0.00026	0.00055	0.00074	7e-05	0	-3e-05	5
21226	-0.0001	-7e-05	0.00026	0.00055	0.00074	7e-05	0	-3e-05	5
21227	-0.0001	-7e-05	0.00026	0.00055	0.00074	7e-05	0	-3e-05	5
21228	-0.0001	-7e-05	0.00026	0.00055	0.00074	7e-05	0	-3e-05	5
21229	-0.0001	-7e-05	0.00026	0.00055	0.00074	7e-05	0	-3e-05	5
21230	-0.0001	-7e-05	0.00026	0.00055	0.00074	7e-05	0	-3e-05	5
21231	-0.0001	-7e-05	0.00026	0.00055	0.00074	7e-05	0	-3e-05	5
21232	-0.0001	-7e-05	0.00026	0.00055	0.00074	7e-05	0	-3e-05	5
21233	-0.0001	-7e-05	0.00026	0.00055	0.00074	7e-05	0	-3e-05	5
21234	-0.0001	-7e-05	0.00026	0.00055	0.00074	7e-05	0	-3e-05	5
21235	-0.0001	-7e-05	0.00026	0.00055	0.00074	7e-05	0	-3e-05	5
21236	-0.0001	-7e-05	0.00026	0.00055	0.00074	7e-05	0	-3e-05	5
21238	-0.0001	-7e-05	0.00026	0.00055	0.00074	7e-05	0	-3e-05	5
21239	-0.0001	-7e-05	0.00026	0.00055	0.00074	7e-05	0	-3e-05	5
21240	-0.0001	-7e-05	0.00026	0.00055	0.00074	7e-05	0	-3e-05	5
21241	-0.0001	-7e-05	0.00026	0.00055	0.00074	7e-05	0	-3e-05	5
21242	-0.0001	-7e-05	0.00026	0.00055	0.00074	7e-05	0	-3e-05	5
21243	-0.0001	-7e-05	0.00026	0.00055	0.00074	7e-05	0	-3e-05	5
21244	-0.0001	-7e-05	0.00026	0.00055	0.00074	7e-05	0	-3e-05	5
21245	-7e-05	4e-05	0.00021	0.0003	0.00042	-7e-05	6e-05	-3e-05	5
21246	1e-05	2e-05	-4e-05	-0.00101	9e-05	1e-05	3e-05	0	5
21247	1e-05	2e-05	-4e-05	-0.00101	9e-05	1e-05	3e-05	0	5
21248	1e-05	2e-05	-4e-05	-0.00101	9e-05	1e-05	3e-05	0	5
21249	1e-05	2e-05	-4e-05	-0.00101	9e-05	1e-05	3e-05	0	5
21250	1e-05	2e-05	-4e-05	-0.00101	9e-05	1e-05	3e-05	0	5
21251	1e-05	2e-05	-4e-05	-0.00101	9e-05	1e-05	3e-05	0	5
21252	1e-05	2e-05	-4e-05	-0.00101	9e-05	1e-05	3e-05	0	5
21253	1e-05	2e-05	-4e-05	-0.00101	9e-05	1e-05	3e-05	0	5
21254	1e-05	2e-05	-4e-05	-0.00101	9e-05	1e-05	3e-05	0	5
21255	1e-05	2e-05	-4e-05	-0.00101	9e-05	1e-05	3e-05	0	5
21256	1e-05	2e-05	-4e-05	-0.00101	9e-05	1e-05	3e-05	0	5
21257	1e-05	2e-05	-4e-05	-0.00101	9e-05	1e-05	3e-05	0	5
21258	1e-05	2e-05	-4e-05	-0.00101	9e-05	1e-05	3e-05	0	5
21259	1e-05	2e-05	-4e-05	-0.00101	9e-05	1e-05	3e-05	0	5
21260	-1e-05	-3e-05	-7e-05	-0.00015	-4e-05	-2e-05	0.00011	2e-05	5
21261	9e-05	0.00013	0.00017	1e-05	-0.00041	0.00015	6e-05	3e-05	5
21262	9e-05	0.00013	0.00017	1e-05	-0.00041	0.00015	6e-05	3e-05	5
21263	9e-05	0.00013	0.00017	1e-05	-0.00041	0.00015	6e-05	3e-05	5
21264	9e-05	0.00013	0.00017	1e-05	-0.00041	0.00015	6e-05	3e-05	5
21265	9e-05	0.00013	0.00017	1e-05	-0.00041	0.00015	6e-05	3e-05	5
21266	9e-05	0.00013	0.00017	1e-05	-0.00041	0.00015	6e-05	3e-05	5
21267	9e-05	0.00013	0.00017	1e-05	-0.00041	0.00015	6e-05	3e-05	5
21268	9e-05	0.00013	0.00017	1e-05	-0.00041	0.00015	6e-05	3e-05	5
21269	9e-05	0.00013	0.00017	1e-05	-0.00041	0.00015	6e-05	3e-05	5
21270	9e-05	0.00013	0.00017	1e-05	-0.00041	0.00015	6e-05	3e-05	5
21271	9e-05	0.00013	0.00017	1e-05	-0.00041	0.00015	6e-05	3e-05	5
21272	9e-05	0.00013	0.00017	1e-05	-0.00041	0.00015	6e-05	3e-05	5
21273	9e-05	0.00013	0.00017	1e-05	-0.00041	0.00015	6e-05	3e-05	5
21274	9e-05	0.00013	0.00017	1e-05	-0.00041	0.00015	6e-05	3e-05	5
21275	9e-05	0.00013	0.00017	1e-05	-0.00041	0.00015	6e-05	3e-05	5
21276	9e-05	0.00013	0.00017	1e-05	-0.00041	0.00015	6e-05	3e-05	5
21277	9e-05	0.00013	0.00017	1e-05	-0.00041	0.00015	6e-05	3e-05	5
21278	9e-05	0.00013	0.00017	1e-05	-0.00041	0.00015	6e-05	3e-05	5
21279	9e-05	0.00013	0.00017	1e-05	-0.00041	0.00015	6e-05	3e-05	5
21280	9e-05	0.00013	0.00017	1e-05	-0.00041	0.00015	6e-05	3e-05	5
21281	9e-05	0.00013	0.00017	1e-05	-0.00041	0.00015	6e-05	3e-05	5
21282	9e-05	0.00013	0.00017	1e-05	-0.00041	0.00015	6e-05	3e-05	5
21283	-4e-05	-0.00013	-5e-05	0.00019	-0.00036	-8e-05	1e-05	-1e-05	5
21285	-4e-05	-0.00013	-5e-05	0.00019	-0.00036	-8e-05	1e-05	-1e-05	5
21286	-4e-05	-0.00013	-5e-05	0.00019	-0.00036	-8e-05	1e-05	-1e-05	5
21288	-4e-05	-0.00013	-5e-05	0.00019	-0.00036	-8e-05	1e-05	-1e-05	5
21289	-4e-05	-0.00013	-5e-05	0.00019	-0.00036	-8e-05	1e-05	-1e-05	5
21291	-4e-05	-0.00013	-5e-05	0.00019	-0.00036	-8e-05	1e-05	-1e-05	5
21292	-4e-05	-0.00013	-5e-05	0.00019	-0.00036	-8e-05	1e-05	-1e-05	5
21293	-4e-05	-0.00013	-5e-05	0.00019	-0.00036	-8e-05	1e-05	-1e-05	5
21294	-4e-05	-0.00013	-5e-05	0.00019	-0.00036	-8e-05	1e-05	-1e-05	5
21295	-4e-05	-0.00013	-5e-05	0.00019	-0.00036	-8e-05	1e-05	-1e-05	5
21296	-4e-05	-0.00013	-5e-05	0.00019	-0.00036	-8e-05	1e-05	-1e-05	5
21297	-4e-05	-0.00013	-5e-05	0.00019	-0.00036	-8e-05	1e-05	-1e-05	5
21298	-4e-05	-0.00013	-5e-05	0.00019	-0.00036	-8e-05	1e-05	-1e-05	5
21299	-4e-05	-0.00013	-5e-05	0.00019	-0.00036	-8e-05	1e-05	-1e-05	5
21300	-4e-05	-0.00013	-5e-05	0.00019	-0.00036	-8e-05	1e-05	-1e-05	5
21301	-4e-05	-0.00013	-5e-05	0.00019	-0.00036	-8e-05	1e-05	-1e-05	5
21302	-4e-05	-0.00013	-5e-05	0.00019	-0.00036	-8e-05	1e-05	-1e-05	5
21303	-4e-05	-0.00013	-5e-05	0.00019	-0.00036	-8e-05	1e-05	-1e-05	5
21304	-4e-05	-0.00013	-5e-05	0.00019	-0.00036	-8e-05	1e-05	-1e-05	5
21305	-4e-05	5e-05	5e-05	0	-0.00011	-9e-05	-5e-05	-5e-05	5
21306	9e-05	6e-05	0.00042	0.00065	-4e-05	-0.0002	-9e-05	5e-05	5
21307	9e-05	6e-05	0.00042	0.00065	-4e-05	-0.0002	-9e-05	5e-05	5
21308	9e-05	6e-05	0.00042	0.00065	-4e-05	-0.0002	-9e-05	5e-05	5
21309	9e-05	6e-05	0.00042	0.00065	-4e-05	-0.0002	-9e-05	5e-05	5
21310	9e-05	6e-05	0.00042	0.00065	-4e-05	-0.0002	-9e-05	5e-05	5
21311	9e-05	6e-05	0.00042	0.00065	-4e-05	-0.0002	-9e-05	5e-05	5
21312	9e-05	6e-05	0.00042	0.00065	-4e-05	-0.0002	-9e-05	5e-05	5
21313	9e-05	6e-05	0.00042	0.00065	-4e-05	-0.0002	-9e-05	5e-05	5
21314	9e-05	6e-05	0.00042	0.00065	-4e-05	-0.0002	-9e-05	5e-05	5
21315	9e-05	6e-05	0.00042	0.00065	-4e-05	-0.0002	-9e-05	5e-05	5
21316	9e-05	6e-05	0.00042	0.00065	-4e-05	-0.0002	-9e-05	5e-05	5
21317	9e-05	6e-05	0.00042	0.00065	-4e-05	-0.0002	-9e-05	5e-05	5
21318	9e-05	6e-05	0.00042	0.00065	-4e-05	-0.0002	-9e-05	5e-05	5
21319	9e-05	6e-05	0.00042	0.00065	-4e-05	-0.0002	-9e-05	5e-05	5
21320	2e-05	-6e-05	0.00012	0.00059	0.00031	7e-05	-3e-05	1e-05	5
21321	-1e-05	-0.0001	-0.00014	-0.0001	0.00014	-0.0001	7e-05	0	5
21322	-1e-05	-0.0001	-0.00014	-0.0001	0.00014	-0.0001	7e-05	0	5
21323	-1e-05	-0.0001	-0.00014	-0.0001	0.00014	-0.0001	7e-05	0	5
21324	-1e-05	-0.0001	-0.00014	-0.0001	0.00014	-0.0001	7e-05	0	5
21325	-1e-05	-0.0001	-0.00014	-0.0001	0.00014	-0.0001	7e-05	0	5
21326	-1e-05	-0.0001	-0.00014	-0.0001	0.00014	-0.0001	7e-05	0	5
21327	-1e-05	-0.0001	-0.00014	-0.0001	0.00014	-0.0001	7e-05	0	5
21328	-1e-05	-0.0001	-0.00014	-0.0001	0.00014	-0.0001	7e-05	0	5
21329	-1e-05	-0.0001	-0.00014	-0.0001	0.00014	-0.0001	7e-05	0	5
21330	-1e-05	-0.0001	-0.00014	-0.0001	0.00014	-0.0001	7e-05	0	5
21331	-1e-05	-0.0001	-0.00014	-0.0001	0.00014	-0.0001	7e-05	0	5
21332	-1e-05	-0.0001	-0.00014	-0.0001	0.00014	-0.0001	7e-05	0	5
21333	-1e-05	-0.0001	-0.00014	-0.0001	0.00014	-0.0001	7e-05	0	5
21334	-1e-05	-0.0001	-0.00014	-0.0001	0.00014	-0.0001	7e-05	0	5
21335	-1e-05	-0.0001	-0.00014	-0.0001	0.00014	-0.0001	7e-05	0	5
21336	-1e-05	-0.0001	-0.00014	-0.0001	0.00014	-0.0001	7e-05	0	5
21338	-1e-05	-0.0001	-0.00014	-0.0001	0.00014	-0.0001	7e-05	0	5
21339	-1e-05	-0.0001	-0.00014	-0.0001	0.00014	-0.0001	7e-05	0	5
21340	-1e-05	-0.0001	-0.00014	-0.0001	0.00014	-0.0001	7e-05	0	5
21341	-1e-05	-0.0001	-0.00014	-0.0001	0.00014	-0.0001	7e-05	0	5
21342	-1e-05	-0.0001	-0.00014	-0.0001	0.00014	-0.0001	7e-05	0	5
21343	-5e-05	8e-05	-0.00017	0.00022	9e-05	0.0002	0.00011	1e-05	5
21344	-5e-05	8e-05	-0.00017	0.00022	9e-05	0.0002	0.00011	1e-05	5
21345	-5e-05	8e-05	-0.00017	0.00022	9e-05	0.0002	0.00011	1e-05	5
21346	-5e-05	8e-05	-0.00017	0.00022	9e-05	0.0002	0.00011	1e-05	5
21347	-5e-05	8e-05	-0.00017	0.00022	9e-05	0.0002	0.00011	1e-05	5
21348	-5e-05	8e-05	-0.00017	0.00022	9e-05	0.0002	0.00011	1e-05	5
21349	-5e-05	8e-05	-0.00017	0.00022	9e-05	0.0002	0.00011	1e-05	5
21350	-5e-05	8e-05	-0.00017	0.00022	9e-05	0.0002	0.00011	1e-05	5
21351	-5e-05	8e-05	-0.00017	0.00022	9e-05	0.0002	0.00011	1e-05	5
21352	-5e-05	8e-05	-0.00017	0.00022	9e-05	0.0002	0.00011	1e-05	5
21353	-5e-05	8e-05	-0.00017	0.00022	9e-05	0.0002	0.00011	1e-05	5
21354	-5e-05	8e-05	-0.00017	0.00022	9e-05	0.0002	0.00011	1e-05	5
21355	-5e-05	8e-05	-0.00017	0.00022	9e-05	0.0002	0.00011	1e-05	5
21356	-5e-05	8e-05	-0.00017	0.00022	9e-05	0.0002	0.00011	1e-05	5
21357	-5e-05	8e-05	-0.00017	0.00022	9e-05	0.0002	0.00011	1e-05	5
21358	-5e-05	8e-05	-0.00017	0.00022	9e-05	0.0002	0.00011	1e-05	5
21359	-5e-05	8e-05	-0.00017	0.00022	9e-05	0.0002	0.00011	1e-05	5
21360	-5e-05	8e-05	-0.00017	0.00022	9e-05	0.0002	0.00011	1e-05	5
21361	-5e-05	8e-05	-0.00017	0.00022	9e-05	0.0002	0.00011	1e-05	5
21362	-5e-05	8e-05	-0.00017	0.00022	9e-05	0.0002	0.00011	1e-05	5
21363	-5e-05	8e-05	-0.00017	0.00022	9e-05	0.0002	0.00011	1e-05	5
21364	-5e-05	8e-05	-0.00017	0.00022	9e-05	0.0002	0.00011	1e-05	5
21365	-1e-05	-5e-05	-0.00011	-0.00034	-0.00071	-0.00038	-1e-05	0	5
21366	7e-05	0.00012	0.00033	0.00028	-0.00021	0	-4e-05	-1e-05	5
21367	7e-05	0.00012	0.00033	0.00028	-0.00021	0	-4e-05	-1e-05	5
21368	7e-05	0.00012	0.00033	0.00028	-0.00021	0	-4e-05	-1e-05	5
21369	7e-05	0.00012	0.00033	0.00028	-0.00021	0	-4e-05	-1e-05	5
21370	7e-05	0.00012	0.00033	0.00028	-0.00021	0	-4e-05	-1e-05	5
21371	7e-05	0.00012	0.00033	0.00028	-0.00021	0	-4e-05	-1e-05	5
21372	7e-05	0.00012	0.00033	0.00028	-0.00021	0	-4e-05	-1e-05	5
21373	7e-05	0.00012	0.00033	0.00028	-0.00021	0	-4e-05	-1e-05	5
21374	7e-05	0.00012	0.00033	0.00028	-0.00021	0	-4e-05	-1e-05	5
21375	7e-05	0.00012	0.00033	0.00028	-0.00021	0	-4e-05	-1e-05	5
21376	7e-05	0.00012	0.00033	0.00028	-0.00021	0	-4e-05	-1e-05	5
21377	7e-05	0.00012	0.00033	0.00028	-0.00021	0	-4e-05	-1e-05	5
21378	7e-05	0.00012	0.00033	0.00028	-0.00021	0	-4e-05	-1e-05	5
21379	7e-05	0.00012	0.00033	0.00028	-0.00021	0	-4e-05	-1e-05	5
21380	6e-05	0.00025	0	-0.00017	0.00015	7e-05	6e-05	2e-05	5
21381	5e-05	0.00012	0.00023	0.00065	0.00058	-4e-05	-4e-05	-1e-05	5
21382	5e-05	0.00012	0.00023	0.00065	0.00058	-4e-05	-4e-05	-1e-05	5
21383	5e-05	0.00012	0.00023	0.00065	0.00058	-4e-05	-4e-05	-1e-05	5
21384	5e-05	0.00012	0.00023	0.00065	0.00058	-4e-05	-4e-05	-1e-05	5
21385	5e-05	0.00012	0.00023	0.00065	0.00058	-4e-05	-4e-05	-1e-05	5
21386	5e-05	0.00012	0.00023	0.00065	0.00058	-4e-05	-4e-05	-1e-05	5
21388	5e-05	0.00012	0.00023	0.00065	0.00058	-4e-05	-4e-05	-1e-05	5
21389	5e-05	0.00012	0.00023	0.00065	0.00058	-4e-05	-4e-05	-1e-05	5
21390	5e-05	0.00012	0.00023	0.00065	0.00058	-4e-05	-4e-05	-1e-05	5
21391	5e-05	0.00012	0.00023	0.00065	0.00058	-4e-05	-4e-05	-1e-05	5
21392	5e-05	0.00012	0.00023	0.00065	0.00058	-4e-05	-4e-05	-1e-05	5
21393	5e-05	0.00012	0.00023	0.00065	0.00058	-4e-05	-4e-05	-1e-05	5
21394	5e-05	0.00012	0.00023	0.00065	0.00058	-4e-05	-4e-05	-1e-05	5
21395	5e-05	0.00012	0.00023	0.00065	0.00058	-4e-05	-4e-05	-1e-05	5
21396	5e-05	0.00012	0.00023	0.00065	0.00058	-4e-05	-4e-05	-1e-05	5
21397	5e-05	0.00012	0.00023	0.00065	0.00058	-4e-05	-4e-05	-1e-05	5
21398	5e-05	0.00012	0.00023	0.00065	0.00058	-4e-05	-4e-05	-1e-05	5
21399	5e-05	0.00012	0.00023	0.00065	0.00058	-4e-05	-4e-05	-1e-05	5
21400	5e-05	0.00012	0.00023	0.00065	0.00058	-4e-05	-4e-05	-1e-05	5
21401	5e-05	0.00012	0.00023	0.00065	0.00058	-4e-05	-4e-05	-1e-05	5
21402	-7e-05	-8e-05	-0.00018	0	0.00024	0.0001	4e-05	-3e-05	5
21403	4e-05	-4e-05	-0.00021	-1e-05	0.0003	0.00017	0.00018	4e-05	5
21405	4e-05	-4e-05	-0.00021	-1e-05	0.0003	0.00017	0.00018	4e-05	5
21406	4e-05	-4e-05	-0.00021	-1e-05	0.0003	0.00017	0.00018	4e-05	5
21407	4e-05	-4e-05	-0.00021	-1e-05	0.0003	0.00017	0.00018	4e-05	5
21408	4e-05	-4e-05	-0.00021	-1e-05	0.0003	0.00017	0.00018	4e-05	5
21409	4e-05	-4e-05	-0.00021	-1e-05	0.0003	0.00017	0.00018	4e-05	5
21410	4e-05	-4e-05	-0.00021	-1e-05	0.0003	0.00017	0.00018	4e-05	5
21411	4e-05	-4e-05	-0.00021	-1e-05	0.0003	0.00017	0.00018	4e-05	5
21412	4e-05	-4e-05	-0.00021	-1e-05	0.0003	0.00017	0.00018	4e-05	5
21413	4e-05	-4e-05	-0.00021	-1e-05	0.0003	0.00017	0.00018	4e-05	5
21414	4e-05	-4e-05	-0.00021	-1e-05	0.0003	0.00017	0.00018	4e-05	5
21415	4e-05	-4e-05	-0.00021	-1e-05	0.0003	0.00017	0.00018	4e-05	5
21416	4e-05	-4e-05	-0.00021	-1e-05	0.0003	0.00017	0.00018	4e-05	5
21417	4e-05	-4e-05	-0.00021	-1e-05	0.0003	0.00017	0.00018	4e-05	5
21418	4e-05	-4e-05	-0.00021	-1e-05	0.0003	0.00017	0.00018	4e-05	5
21419	4e-05	-4e-05	-0.00021	-1e-05	0.0003	0.00017	0.00018	4e-05	5
21420	4e-05	-4e-05	-0.00021	-1e-05	0.0003	0.00017	0.00018	4e-05	5
21421	4e-05	-4e-05	-0.00021	-1e-05	0.0003	0.00017	0.00018	4e-05	5
21422	4e-05	-4e-05	-0.00021	-1e-05	0.0003	0.00017	0.00018	4e-05	5
21423	4e-05	-4e-05	-0.00021	-1e-05	0.0003	0.00017	0.00018	4e-05	5
21424	4e-05	-4e-05	-0.00021	-1e-05	0.0003	0.00017	0.00018	4e-05	5
21425	-8e-05	-0.00012	-0.00028	-0.00017	0.0004	0.00014	-9e-05	-8e-05	5
21426	-8e-05	-0.0003	-0.00031	-0.00067	-0.00063	-0.00022	-9e-05	-4e-05	5
21427	-8e-05	-0.0003	-0.00031	-0.00067	-0.00063	-0.00022	-9e-05	-4e-05	5
21428	-8e-05	-0.0003	-0.00031	-0.00067	-0.00063	-0.00022	-9e-05	-4e-05	5
21429	-8e-05	-0.0003	-0.00031	-0.00067	-0.00063	-0.00022	-9e-05	-4e-05	5
21430	-8e-05	-0.0003	-0.00031	-0.00067	-0.00063	-0.00022	-9e-05	-4e-05	5
21431	-8e-05	-0.0003	-0.00031	-0.00067	-0.00063	-0.00022	-9e-05	-4e-05	5
21432	-8e-05	-0.0003	-0.00031	-0.00067	-0.00063	-0.00022	-9e-05	-4e-05	5
21433	-8e-05	-0.0003	-0.00031	-0.00067	-0.00063	-0.00022	-9e-05	-4e-05	5
21434	-8e-05	-0.0003	-0.00031	-0.00067	-0.00063	-0.00022	-9e-05	-4e-05	5
21435	-8e-05	-0.0003	-0.00031	-0.00067	-0.00063	-0.00022	-9e-05	-4e-05	5
21436	-8e-05	-0.0003	-0.00031	-0.00067	-0.00063	-0.00022	-9e-05	-4e-05	5
21438	-8e-05	-0.0003	-0.00031	-0.00067	-0.00063	-0.00022	-9e-05	-4e-05	5
21439	-8e-05	-0.0003	-0.00031	-0.00067	-0.00063	-0.00022	-9e-05	-4e-05	5
21440	-1e-05	0.00019	0.00017	-6e-05	0.00058	9e-05	6e-05	3e-05	5
21441	-3e-05	0.00015	-0.00013	0.00023	0.00084	0.00038	-6e-05	-3e-05	5
21442	-3e-05	0.00015	-0.00013	0.00023	0.00084	0.00038	-6e-05	-3e-05	5
21443	-3e-05	0.00015	-0.00013	0.00023	0.00084	0.00038	-6e-05	-3e-05	5
21444	-3e-05	0.00015	-0.00013	0.00023	0.00084	0.00038	-6e-05	-3e-05	5
45510	0.00014	0.00011	0.00046	0.00066	0.00062	0.00014	4e-05	7e-05	5
45511	0.00014	0.00011	0.00046	0.00066	0.00062	0.00014	4e-05	7e-05	5
45512	0.00014	0.00011	0.00046	0.00066	0.00062	0.00014	4e-05	7e-05	5
45513	0.00014	0.00011	0.00046	0.00066	0.00062	0.00014	4e-05	7e-05	5
45514	0.00014	0.00011	0.00046	0.00066	0.00062	0.00014	4e-05	7e-05	5
45515	0.00014	0.00011	0.00046	0.00066	0.00062	0.00014	4e-05	7e-05	5
45516	4e-05	-1e-05	6e-05	-0.00027	-0.00047	-9e-05	-1e-05	3e-05	5
45517	3e-05	-2e-05	-8e-05	0.00068	0.0004	0.00025	0.00014	4e-05	5
45518	3e-05	-2e-05	-8e-05	0.00068	0.0004	0.00025	0.00014	4e-05	5
45519	3e-05	-2e-05	-8e-05	0.00068	0.0004	0.00025	0.00014	4e-05	5
45520	3e-05	-2e-05	-8e-05	0.00068	0.0004	0.00025	0.00014	4e-05	5
45521	3e-05	-2e-05	-8e-05	0.00068	0.0004	0.00025	0.00014	4e-05	5
45522	-3e-05	-4e-05	5e-05	-0.00018	0	-0.00021	3e-05	-2e-05	5
45523	-3e-05	-4e-05	5e-05	-0.00018	0	-0.00021	3e-05	-2e-05	5
45524	-3e-05	-4e-05	5e-05	-0.00018	0	-0.00021	3e-05	-2e-05	5
45525	-3e-05	-4e-05	5e-05	-0.00018	0	-0.00021	3e-05	-2e-05	5
45526	-3e-05	-4e-05	5e-05	-0.00018	0	-0.00021	3e-05	-2e-05	5
45527	-3e-05	-4e-05	5e-05	-0.00018	0	-0.00021	3e-05	-2e-05	5
45528	-3e-05	-4e-05	5e-05	-0.00018	0	-0.00021	3e-05	-2e-05	5
45529	-3e-05	-4e-05	5e-05	-0.00018	0	-0.00021	3e-05	-2e-05	5
45530	-3e-05	-4e-05	5e-05	-0.00018	0	-0.00021	3e-05	-2e-05	5
45531	-4e-05	4e-05	-2e-05	-0.00054	-7e-05	-0.00034	-0.00012	-7e-05	5
45532	-4e-05	4e-05	-2e-05	-0.00054	-7e-05	-0.00034	-0.00012	-7e-05	5
45533	-4e-05	4e-05	-2e-05	-0.00054	-7e-05	-0.00034	-0.00012	-7e-05	5
45534	-4e-05	4e-05	-2e-05	-0.00054	-7e-05	-0.00034	-0.00012	-7e-05	5
45535	-4e-05	4e-05	-2e-05	-0.00054	-7e-05	-0.00034	-0.00012	-7e-05	5
45536	-4e-05	4e-05	-2e-05	-0.00054	-7e-05	-0.00034	-0.00012	-7e-05	5
45538	-4e-05	4e-05	-2e-05	-0.00054	-7e-05	-0.00034	-0.00012	-7e-05	5
45539	-4e-05	4e-05	-2e-05	-0.00054	-7e-05	-0.00034	-0.00012	-7e-05	5
45540	-4e-05	4e-05	-2e-05	-0.00054	-7e-05	-0.00034	-0.00012	-7e-05	5
45541	-4e-05	4e-05	-2e-05	-0.00054	-7e-05	-0.00034	-0.00012	-7e-05	5
45542	-4e-05	4e-05	-2e-05	-0.00054	-7e-05	-0.00034	-0.00012	-7e-05	5
45543	-4e-05	4e-05	-2e-05	-0.00054	-7e-05	-0.00034	-0.00012	-7e-05	5
45544	-4e-05	4e-05	-2e-05	-0.00054	-7e-05	-0.00034	-0.00012	-7e-05	5
45545	-4e-05	4e-05	-2e-05	-0.00054	-7e-05	-0.00034	-0.00012	-7e-05	5
45546	4e-05	-9e-05	-0.00031	6e-05	-0.00028	8e-05	-5e-05	2e-05	5
45547	0.00011	0.00025	-7e-05	-0.00086	-0.00105	-9e-05	1e-05	2e-05	5
45548	0.00011	0.00025	-7e-05	-0.00086	-0.00105	-9e-05	1e-05	2e-05	5
45549	0.00011	0.00025	-7e-05	-0.00086	-0.00105	-9e-05	1e-05	2e-05	5
45550	0.00011	0.00025	-7e-05	-0.00086	-0.00105	-9e-05	1e-05	2e-05	5
45551	0.00011	0.00025	-7e-05	-0.00086	-0.00105	-9e-05	1e-05	2e-05	5
45552	0.00011	0.00025	-7e-05	-0.00086	-0.00105	-9e-05	1e-05	2e-05	5
45553	0.00011	0.00025	-7e-05	-0.00086	-0.00105	-9e-05	1e-05	2e-05	5
45554	0.00011	0.00025	-7e-05	-0.00086	-0.00105	-9e-05	1e-05	2e-05	5
45555	0.00011	0.00025	-7e-05	-0.00086	-0.00105	-9e-05	1e-05	2e-05	5
45556	0.00011	0.00025	-7e-05	-0.00086	-0.00105	-9e-05	1e-05	2e-05	5
45557	0.00011	0.00025	-7e-05	-0.00086	-0.00105	-9e-05	1e-05	2e-05	5
45558	0.00011	0.00025	-7e-05	-0.00086	-0.00105	-9e-05	1e-05	2e-05	5
45559	0.00011	0.00025	-7e-05	-0.00086	-0.00105	-9e-05	1e-05	2e-05	5
45560	0.00011	0.00025	-7e-05	-0.00086	-0.00105	-9e-05	1e-05	2e-05	5
45561	0.00011	0.00025	-7e-05	-0.00086	-0.00105	-9e-05	1e-05	2e-05	5
45562	0.00011	0.00025	-7e-05	-0.00086	-0.00105	-9e-05	1e-05	2e-05	5
45563	0.00011	0.00025	-7e-05	-0.00086	-0.00105	-9e-05	1e-05	2e-05	5
45564	0.00011	0.00025	-7e-05	-0.00086	-0.00105	-9e-05	1e-05	2e-05	5
45565	0.00011	0.00025	-7e-05	-0.00086	-0.00105	-9e-05	1e-05	2e-05	5
45566	0.00011	0.00025	-7e-05	-0.00086	-0.00105	-9e-05	1e-05	2e-05	5
45567	0.00011	0.00025	-7e-05	-0.00086	-0.00105	-9e-05	1e-05	2e-05	5
45568	0.00011	0.00025	-7e-05	-0.00086	-0.00105	-9e-05	1e-05	2e-05	5
45569	0.00011	0.00025	-7e-05	-0.00086	-0.00105	-9e-05	1e-05	2e-05	5
45570	0.00011	0.00025	-7e-05	-0.00086	-0.00105	-9e-05	1e-05	2e-05	5
45571	0.00011	0.00025	-7e-05	-0.00086	-0.00105	-9e-05	1e-05	2e-05	5
45572	0.00011	0.00025	-7e-05	-0.00086	-0.00105	-9e-05	1e-05	2e-05	5
45573	0.00011	0.00025	-7e-05	-0.00086	-0.00105	-9e-05	1e-05	2e-05	5
45574	0.00011	0.00025	-7e-05	-0.00086	-0.00105	-9e-05	1e-05	2e-05	5
45575	0.00011	0.00025	-7e-05	-0.00086	-0.00105	-9e-05	1e-05	2e-05	5
45576	9e-05	0.00011	0.00032	-0.00012	-7e-05	-5e-05	3e-05	5e-05	5
45577	-6e-05	-0.00026	-0.00053	0.00054	0.00086	0.00036	-5e-05	-4e-05	5
45578	-6e-05	-0.00026	-0.00053	0.00054	0.00086	0.00036	-5e-05	-4e-05	5
45579	-6e-05	-0.00026	-0.00053	0.00054	0.00086	0.00036	-5e-05	-4e-05	5
45580	-6e-05	-0.00026	-0.00053	0.00054	0.00086	0.00036	-5e-05	-4e-05	5
45581	-6e-05	-0.00026	-0.00053	0.00054	0.00086	0.00036	-5e-05	-4e-05	5
45582	-6e-05	-0.00026	-0.00053	0.00054	0.00086	0.00036	-5e-05	-4e-05	5
45583	-6e-05	-0.00026	-0.00053	0.00054	0.00086	0.00036	-5e-05	-4e-05	5
45584	-6e-05	-0.00026	-0.00053	0.00054	0.00086	0.00036	-5e-05	-4e-05	5
45585	-6e-05	-0.00026	-0.00053	0.00054	0.00086	0.00036	-5e-05	-4e-05	5
45586	-6e-05	-0.00026	-0.00053	0.00054	0.00086	0.00036	-5e-05	-4e-05	5
45588	-6e-05	-0.00026	-0.00053	0.00054	0.00086	0.00036	-5e-05	-4e-05	5
45589	-6e-05	-0.00026	-0.00053	0.00054	0.00086	0.00036	-5e-05	-4e-05	5
45590	-6e-05	-0.00026	-0.00053	0.00054	0.00086	0.00036	-5e-05	-4e-05	5
45591	-5e-05	-0.00014	0.00025	-0.00039	-0.00074	-0.00016	-0.0001	-5e-05	5
45592	-5e-05	0	0.00011	0.00011	-0.00019	-0.00038	4e-05	-3e-05	5
45593	-5e-05	0	0.00011	0.00011	-0.00019	-0.00038	4e-05	-3e-05	5
45594	-5e-05	0	0.00011	0.00011	-0.00019	-0.00038	4e-05	-3e-05	5
45595	-5e-05	0	0.00011	0.00011	-0.00019	-0.00038	4e-05	-3e-05	5
45596	-5e-05	0	0.00011	0.00011	-0.00019	-0.00038	4e-05	-3e-05	5
45597	-5e-05	0	0.00011	0.00011	-0.00019	-0.00038	4e-05	-3e-05	5
45598	-5e-05	0	0.00011	0.00011	-0.00019	-0.00038	4e-05	-3e-05	5
45599	-5e-05	0	0.00011	0.00011	-0.00019	-0.00038	4e-05	-3e-05	5
45600	-5e-05	0	0.00011	0.00011	-0.00019	-0.00038	4e-05	-3e-05	5
45602	-5e-05	0	0.00011	0.00011	-0.00019	-0.00038	4e-05	-3e-05	5
45603	-5e-05	0	0.00011	0.00011	-0.00019	-0.00038	4e-05	-3e-05	5
45604	-5e-05	0	0.00011	0.00011	-0.00019	-0.00038	4e-05	-3e-05	5
45605	-5e-05	0	0.00011	0.00011	-0.00019	-0.00038	4e-05	-3e-05	5
45606	3e-05	5e-05	0.00023	0.00059	0.00012	3e-05	5e-05	3e-05	5
45607	-9e-05	-0.0002	-0.00019	0	0.00045	1e-05	-5e-05	-3e-05	5
45608	-9e-05	-0.0002	-0.00019	0	0.00045	1e-05	-5e-05	-3e-05	5
45609	-9e-05	-0.0002	-0.00019	0	0.00045	1e-05	-5e-05	-3e-05	5
45610	-9e-05	-0.0002	-0.00019	0	0.00045	1e-05	-5e-05	-3e-05	5
45611	-9e-05	-0.0002	-0.00019	0	0.00045	1e-05	-5e-05	-3e-05	5
45612	-9e-05	-0.0002	-0.00019	0	0.00045	1e-05	-5e-05	-3e-05	5
45613	-9e-05	-0.0002	-0.00019	0	0.00045	1e-05	-5e-05	-3e-05	5
45614	-9e-05	-0.0002	-0.00019	0	0.00045	1e-05	-5e-05	-3e-05	5
45615	-9e-05	-0.0002	-0.00019	0	0.00045	1e-05	-5e-05	-3e-05	5
45616	-9e-05	-0.0002	-0.00019	0	0.00045	1e-05	-5e-05	-3e-05	5
45617	-9e-05	-0.0002	-0.00019	0	0.00045	1e-05	-5e-05	-3e-05	5
45618	-9e-05	-0.0002	-0.00019	0	0.00045	1e-05	-5e-05	-3e-05	5
45619	-9e-05	-0.0002	-0.00019	0	0.00045	1e-05	-5e-05	-3e-05	5
45620	-9e-05	-0.0002	-0.00019	0	0.00045	1e-05	-5e-05	-3e-05	5
45621	-9e-05	-0.0002	-0.00019	0	0.00045	1e-05	-5e-05	-3e-05	5
45622	-9e-05	-0.0002	-0.00019	0	0.00045	1e-05	-5e-05	-3e-05	5
45623	-9e-05	-0.0002	-0.00019	0	0.00045	1e-05	-5e-05	-3e-05	5
45624	-9e-05	-0.0002	-0.00019	0	0.00045	1e-05	-5e-05	-3e-05	5
45625	-9e-05	-0.0002	-0.00019	0	0.00045	1e-05	-5e-05	-3e-05	5
45626	-9e-05	-0.0002	-0.00019	0	0.00045	1e-05	-5e-05	-3e-05	5
45627	-9e-05	-0.0002	-0.00019	0	0.00045	1e-05	-5e-05	-3e-05	5
45628	-1e-05	-3e-05	-0.00025	-0.00025	0.00015	-4e-05	1e-05	-2e-05	5
45629	-1e-05	-3e-05	-0.00025	-0.00025	0.00015	-4e-05	1e-05	-2e-05	5
45630	-6e-05	2e-05	-0.0003	-0.00051	-0.00023	1e-05	-8e-05	-5e-05	5
45631	-6e-05	2e-05	-0.0003	-0.00051	-0.00023	1e-05	-8e-05	-5e-05	5
45632	-6e-05	2e-05	-0.0003	-0.00051	-0.00023	1e-05	-8e-05	-5e-05	5
45633	-6e-05	2e-05	-0.0003	-0.00051	-0.00023	1e-05	-8e-05	-5e-05	5
45634	-6e-05	2e-05	-0.0003	-0.00051	-0.00023	1e-05	-8e-05	-5e-05	5
45635	-6e-05	2e-05	-0.0003	-0.00051	-0.00023	1e-05	-8e-05	-5e-05	5
45636	-6e-05	2e-05	-0.0003	-0.00051	-0.00023	1e-05	-8e-05	-5e-05	5
45638	-6e-05	2e-05	-0.0003	-0.00051	-0.00023	1e-05	-8e-05	-5e-05	5
45639	-6e-05	2e-05	-0.0003	-0.00051	-0.00023	1e-05	-8e-05	-5e-05	5
45640	-6e-05	2e-05	-0.0003	-0.00051	-0.00023	1e-05	-8e-05	-5e-05	5
45641	-6e-05	2e-05	-0.0003	-0.00051	-0.00023	1e-05	-8e-05	-5e-05	5
45642	1e-05	9e-05	7e-05	1e-05	0.00012	9e-05	-0.0001	-3e-05	5
45643	1e-05	9e-05	7e-05	1e-05	0.00012	9e-05	-0.0001	-3e-05	5
45644	1e-05	9e-05	7e-05	1e-05	0.00012	9e-05	-0.0001	-3e-05	5
45645	1e-05	9e-05	7e-05	1e-05	0.00012	9e-05	-0.0001	-3e-05	5
45646	1e-05	9e-05	7e-05	1e-05	0.00012	9e-05	-0.0001	-3e-05	5
45647	1e-05	9e-05	7e-05	1e-05	0.00012	9e-05	-0.0001	-3e-05	5
45648	1e-05	9e-05	7e-05	1e-05	0.00012	9e-05	-0.0001	-3e-05	5
45649	1e-05	9e-05	7e-05	1e-05	0.00012	9e-05	-0.0001	-3e-05	5
45650	1e-05	9e-05	7e-05	1e-05	0.00012	9e-05	-0.0001	-3e-05	5
45651	4e-05	0.00014	0.00011	0.00011	0.00021	4e-05	-4e-05	3e-05	5
45652	4e-05	0.00014	0.00011	0.00011	0.00021	4e-05	-4e-05	3e-05	5
45653	4e-05	0.00014	0.00011	0.00011	0.00021	4e-05	-4e-05	3e-05	5
45654	4e-05	0.00014	0.00011	0.00011	0.00021	4e-05	-4e-05	3e-05	5
45655	4e-05	0.00014	0.00011	0.00011	0.00021	4e-05	-4e-05	3e-05	5
45656	4e-05	0.00014	0.00011	0.00011	0.00021	4e-05	-4e-05	3e-05	5
45657	4e-05	0.00014	0.00011	0.00011	0.00021	4e-05	-4e-05	3e-05	5
45658	4e-05	0.00014	0.00011	0.00011	0.00021	4e-05	-4e-05	3e-05	5
45659	4e-05	0.00014	0.00011	0.00011	0.00021	4e-05	-4e-05	3e-05	5
45660	4e-05	0.00014	0.00011	0.00011	0.00021	4e-05	-4e-05	3e-05	5
45661	4e-05	0.00014	0.00011	0.00011	0.00021	4e-05	-4e-05	3e-05	5
45662	4e-05	0.00014	0.00011	0.00011	0.00021	4e-05	-4e-05	3e-05	5
45663	4e-05	0.00014	0.00011	0.00011	0.00021	4e-05	-4e-05	3e-05	5
45664	4e-05	0.00014	0.00011	0.00011	0.00021	4e-05	-4e-05	3e-05	5
45665	4e-05	0.00014	0.00011	0.00011	0.00021	4e-05	-4e-05	3e-05	5
45666	1e-05	-0.00018	-0.00044	-0.00087	-0.00079	-0.00019	0	3e-05	5
45667	-1e-05	4e-05	0.00032	0.0003	6e-05	-0.00015	0	-1e-05	5
45668	-1e-05	4e-05	0.00032	0.0003	6e-05	-0.00015	0	-1e-05	5
45669	-1e-05	4e-05	0.00032	0.0003	6e-05	-0.00015	0	-1e-05	5
45670	-1e-05	4e-05	0.00032	0.0003	6e-05	-0.00015	0	-1e-05	5
45671	-1e-05	4e-05	0.00032	0.0003	6e-05	-0.00015	0	-1e-05	5
45672	-1e-05	4e-05	0.00032	0.0003	6e-05	-0.00015	0	-1e-05	5
45673	-1e-05	4e-05	0.00032	0.0003	6e-05	-0.00015	0	-1e-05	5
45674	-1e-05	4e-05	0.00032	0.0003	6e-05	-0.00015	0	-1e-05	5
45675	-1e-05	4e-05	0.00032	0.0003	6e-05	-0.00015	0	-1e-05	5
45676	-1e-05	4e-05	0.00032	0.0003	6e-05	-0.00015	0	-1e-05	5
45677	-1e-05	4e-05	0.00032	0.0003	6e-05	-0.00015	0	-1e-05	5
45678	-1e-05	4e-05	0.00032	0.0003	6e-05	-0.00015	0	-1e-05	5
45679	-1e-05	4e-05	0.00032	0.0003	6e-05	-0.00015	0	-1e-05	5
45680	-1e-05	4e-05	0.00032	0.0003	6e-05	-0.00015	0	-1e-05	5
45681	-1e-05	4e-05	0.00032	0.0003	6e-05	-0.00015	0	-1e-05	5
45682	-1e-05	4e-05	0.00032	0.0003	6e-05	-0.00015	0	-1e-05	5
45683	-1e-05	4e-05	0.00032	0.0003	6e-05	-0.00015	0	-1e-05	5
45684	-1e-05	4e-05	0.00032	0.0003	6e-05	-0.00015	0	-1e-05	5
45685	-1e-05	4e-05	0.00032	0.0003	6e-05	-0.00015	0	-1e-05	5
45686	-1e-05	4e-05	0.00032	0.0003	6e-05	-0.00015	0	-1e-05	5
45688	-2e-05	0.00016	-0.00012	-0.00017	-0.0002	0	3e-05	-1e-05	5
45689	-2e-05	-0.00018	8e-05	0.00012	0.00034	-2e-05	1e-05	0	5
45690	5e-05	0	1e-05	-0.00025	-0.00056	8e-05	6e-05	3e-05	5
45691	5e-05	0	1e-05	-0.00025	-0.00056	8e-05	6e-05	3e-05	5
45692	5e-05	0	1e-05	-0.00025	-0.00056	8e-05	6e-05	3e-05	5
45693	5e-05	0	1e-05	-0.00025	-0.00056	8e-05	6e-05	3e-05	5
45694	5e-05	0	1e-05	-0.00025	-0.00056	8e-05	6e-05	3e-05	5
45695	5e-05	0	1e-05	-0.00025	-0.00056	8e-05	6e-05	3e-05	5
45696	5e-05	0	1e-05	-0.00025	-0.00056	8e-05	6e-05	3e-05	5
45697	5e-05	0	1e-05	-0.00025	-0.00056	8e-05	6e-05	3e-05	5
45698	5e-05	0	1e-05	-0.00025	-0.00056	8e-05	6e-05	3e-05	5
45699	5e-05	0	1e-05	-0.00025	-0.00056	8e-05	6e-05	3e-05	5
45700	5e-05	0	1e-05	-0.00025	-0.00056	8e-05	6e-05	3e-05	5
45701	5e-05	0	1e-05	-0.00025	-0.00056	8e-05	6e-05	3e-05	5
45702	1e-05	0.00011	-4e-05	-0.00022	-0.00056	3e-05	4e-05	-5e-05	5
45703	1e-05	0.00011	-4e-05	-0.00022	-0.00056	3e-05	4e-05	-5e-05	5
45704	1e-05	0.00011	-4e-05	-0.00022	-0.00056	3e-05	4e-05	-5e-05	5
45705	1e-05	0.00011	-4e-05	-0.00022	-0.00056	3e-05	4e-05	-5e-05	5
45706	1e-05	0.00011	-4e-05	-0.00022	-0.00056	3e-05	4e-05	-5e-05	5
45707	1e-05	0.00011	-4e-05	-0.00022	-0.00056	3e-05	4e-05	-5e-05	5
45708	1e-05	0.00011	-4e-05	-0.00022	-0.00056	3e-05	4e-05	-5e-05	5
45709	1e-05	0.00011	-4e-05	-0.00022	-0.00056	3e-05	4e-05	-5e-05	5
45710	1e-05	0.00011	-4e-05	-0.00022	-0.00056	3e-05	4e-05	-5e-05	5
45711	3e-05	2e-05	4e-05	0.00033	0.0004	0.00012	0	-1e-05	5
45712	3e-05	2e-05	4e-05	0.00033	0.0004	0.00012	0	-1e-05	5
45713	3e-05	2e-05	4e-05	0.00033	0.0004	0.00012	0	-1e-05	5
45714	3e-05	2e-05	4e-05	0.00033	0.0004	0.00012	0	-1e-05	5
45715	3e-05	2e-05	4e-05	0.00033	0.0004	0.00012	0	-1e-05	5
45716	3e-05	2e-05	4e-05	0.00033	0.0004	0.00012	0	-1e-05	5
45717	3e-05	2e-05	4e-05	0.00033	0.0004	0.00012	0	-1e-05	5
45718	3e-05	2e-05	4e-05	0.00033	0.0004	0.00012	0	-1e-05	5
45719	3e-05	2e-05	4e-05	0.00033	0.0004	0.00012	0	-1e-05	5
45720	3e-05	2e-05	4e-05	0.00033	0.0004	0.00012	0	-1e-05	5
45721	3e-05	2e-05	4e-05	0.00033	0.0004	0.00012	0	-1e-05	5
45722	3e-05	2e-05	4e-05	0.00033	0.0004	0.00012	0	-1e-05	5
45723	3e-05	2e-05	4e-05	0.00033	0.0004	0.00012	0	-1e-05	5
45724	3e-05	2e-05	4e-05	0.00033	0.0004	0.00012	0	-1e-05	5
45725	3e-05	2e-05	4e-05	0.00033	0.0004	0.00012	0	-1e-05	5
45726	8e-05	8e-05	-0.00023	-0.00018	0.0007	0.00022	0	7e-05	5
45727	-9e-05	-4e-05	-0.00016	-0.00013	-0.00031	0	2e-05	-4e-05	5
45728	-9e-05	-4e-05	-0.00016	-0.00013	-0.00031	0	2e-05	-4e-05	5
45729	-9e-05	-4e-05	-0.00016	-0.00013	-0.00031	0	2e-05	-4e-05	5
45730	-9e-05	-4e-05	-0.00016	-0.00013	-0.00031	0	2e-05	-4e-05	5
45731	-9e-05	-4e-05	-0.00016	-0.00013	-0.00031	0	2e-05	-4e-05	5
45732	-9e-05	-4e-05	-0.00016	-0.00013	-0.00031	0	2e-05	-4e-05	5
45733	-9e-05	-4e-05	-0.00016	-0.00013	-0.00031	0	2e-05	-4e-05	5
45734	-9e-05	-4e-05	-0.00016	-0.00013	-0.00031	0	2e-05	-4e-05	5
45735	-9e-05	-4e-05	-0.00016	-0.00013	-0.00031	0	2e-05	-4e-05	5
45736	-9e-05	-4e-05	-0.00016	-0.00013	-0.00031	0	2e-05	-4e-05	5
45738	-9e-05	-4e-05	-0.00016	-0.00013	-0.00031	0	2e-05	-4e-05	5
45739	-9e-05	-4e-05	-0.00016	-0.00013	-0.00031	0	2e-05	-4e-05	5
45740	-9e-05	-4e-05	-0.00016	-0.00013	-0.00031	0	2e-05	-4e-05	5
45741	-9e-05	-4e-05	-0.00016	-0.00013	-0.00031	0	2e-05	-4e-05	5
45742	-9e-05	-4e-05	-0.00016	-0.00013	-0.00031	0	2e-05	-4e-05	5
45743	-9e-05	-4e-05	-0.00016	-0.00013	-0.00031	0	2e-05	-4e-05	5
45744	-9e-05	-4e-05	-0.00016	-0.00013	-0.00031	0	2e-05	-4e-05	5
45745	-9e-05	-4e-05	-0.00016	-0.00013	-0.00031	0	2e-05	-4e-05	5
45746	-9e-05	-4e-05	-0.00016	-0.00013	-0.00031	0	2e-05	-4e-05	5
45747	-9e-05	-4e-05	-0.00016	-0.00013	-0.00031	0	2e-05	-4e-05	5
45748	1e-05	3e-05	0.00039	0.00017	6e-05	-0.00016	-1e-05	1e-05	5
45749	1e-05	3e-05	0.00039	0.00017	6e-05	-0.00016	-1e-05	1e-05	5
45750	-5e-05	-0.0001	-0.00034	-0.00023	-0.0001	-9e-05	-0.0001	-6e-05	5
45751	-5e-05	-0.0001	-0.00034	-0.00023	-0.0001	-9e-05	-0.0001	-6e-05	5
45752	-5e-05	-0.0001	-0.00034	-0.00023	-0.0001	-9e-05	-0.0001	-6e-05	5
45753	-5e-05	-0.0001	-0.00034	-0.00023	-0.0001	-9e-05	-0.0001	-6e-05	5
45754	-5e-05	-0.0001	-0.00034	-0.00023	-0.0001	-9e-05	-0.0001	-6e-05	5
45755	-5e-05	-0.0001	-0.00034	-0.00023	-0.0001	-9e-05	-0.0001	-6e-05	5
45756	-5e-05	-0.0001	-0.00034	-0.00023	-0.0001	-9e-05	-0.0001	-6e-05	5
45757	-5e-05	-0.0001	-0.00034	-0.00023	-0.0001	-9e-05	-0.0001	-6e-05	5
45758	-5e-05	-0.0001	-0.00034	-0.00023	-0.0001	-9e-05	-0.0001	-6e-05	5
45759	-5e-05	-0.0001	-0.00034	-0.00023	-0.0001	-9e-05	-0.0001	-6e-05	5
45761	-5e-05	-0.0001	-0.00034	-0.00023	-0.0001	-9e-05	-0.0001	-6e-05	5
45762	-5e-05	-0.0001	-0.00034	-0.00023	-0.0001	-9e-05	-0.0001	-6e-05	5
45763	-5e-05	-0.0001	-0.00034	-0.00023	-0.0001	-9e-05	-0.0001	-6e-05	5
45764	-5e-05	-0.0001	-0.00034	-0.00023	-0.0001	-9e-05	-0.0001	-6e-05	5
45765	-5e-05	-0.0001	-0.00034	-0.00023	-0.0001	-9e-05	-0.0001	-6e-05	5
45766	-5e-05	-0.0001	-0.00034	-0.00023	-0.0001	-9e-05	-0.0001	-6e-05	5
45767	-5e-05	-0.0001	-0.00034	-0.00023	-0.0001	-9e-05	-0.0001	-6e-05	5
45768	-5e-05	-0.0001	-0.00034	-0.00023	-0.0001	-9e-05	-0.0001	-6e-05	5
45769	-5e-05	-0.0001	-0.00034	-0.00023	-0.0001	-9e-05	-0.0001	-6e-05	5
45770	-5e-05	-0.0001	-0.00034	-0.00023	-0.0001	-9e-05	-0.0001	-6e-05	5
45771	-5e-05	-0.0001	-0.00034	-0.00023	-0.0001	-9e-05	-0.0001	-6e-05	5
45772	-5e-05	-0.0001	-0.00034	-0.00023	-0.0001	-9e-05	-0.0001	-6e-05	5
45773	-5e-05	-0.0001	-0.00034	-0.00023	-0.0001	-9e-05	-0.0001	-6e-05	5
45774	-5e-05	-0.0001	-0.00034	-0.00023	-0.0001	-9e-05	-0.0001	-6e-05	5
45775	-5e-05	-0.0001	-0.00034	-0.00023	-0.0001	-9e-05	-0.0001	-6e-05	5
45776	-5e-05	-0.0001	-0.00034	-0.00023	-0.0001	-9e-05	-0.0001	-6e-05	5
45777	-5e-05	-0.0001	-0.00034	-0.00023	-0.0001	-9e-05	-0.0001	-6e-05	5
45778	-3e-05	-0.00011	5e-05	-0.00055	-0.00079	-0.00018	-1e-05	-1e-05	5
45779	-3e-05	-0.00011	5e-05	-0.00055	-0.00079	-0.00018	-1e-05	-1e-05	5
45780	-3e-05	-0.00013	-0.00039	-0.00032	-8e-05	-0.00011	-2e-05	-4e-05	5
45781	-3e-05	-0.00013	-0.00039	-0.00032	-8e-05	-0.00011	-2e-05	-4e-05	5
45782	-3e-05	-0.00013	-0.00039	-0.00032	-8e-05	-0.00011	-2e-05	-4e-05	5
45783	-3e-05	-0.00013	-0.00039	-0.00032	-8e-05	-0.00011	-2e-05	-4e-05	5
45784	-3e-05	-0.00013	-0.00039	-0.00032	-8e-05	-0.00011	-2e-05	-4e-05	5
45785	-3e-05	-0.00013	-0.00039	-0.00032	-8e-05	-0.00011	-2e-05	-4e-05	5
45786	-1e-05	4e-05	0.00012	0.00042	0.00018	-4e-05	0	-3e-05	5
45788	-1e-05	4e-05	0.00012	0.00042	0.00018	-4e-05	0	-3e-05	5
45789	-0.0001	-8e-05	-1e-05	-3e-05	-0.00018	-6e-05	-6e-05	-4e-05	5
45790	-0.0001	-8e-05	-1e-05	-3e-05	-0.00018	-6e-05	-6e-05	-4e-05	5
45791	-0.0001	-8e-05	-1e-05	-3e-05	-0.00018	-6e-05	-6e-05	-4e-05	5
45792	-0.0001	-8e-05	-1e-05	-3e-05	-0.00018	-6e-05	-6e-05	-4e-05	5
45793	-0.0001	-8e-05	-1e-05	-3e-05	-0.00018	-6e-05	-6e-05	-4e-05	5
45794	-0.0001	-8e-05	-1e-05	-3e-05	-0.00018	-6e-05	-6e-05	-4e-05	5
45795	-0.0001	-8e-05	-1e-05	-3e-05	-0.00018	-6e-05	-6e-05	-4e-05	5
45796	-0.0001	-8e-05	-1e-05	-3e-05	-0.00018	-6e-05	-6e-05	-4e-05	5
45797	-0.0001	-8e-05	-1e-05	-3e-05	-0.00018	-6e-05	-6e-05	-4e-05	5
45798	-0.0001	-8e-05	-1e-05	-3e-05	-0.00018	-6e-05	-6e-05	-4e-05	5
45799	-0.0001	-8e-05	-1e-05	-3e-05	-0.00018	-6e-05	-6e-05	-4e-05	5
45800	-0.0001	-8e-05	-1e-05	-3e-05	-0.00018	-6e-05	-6e-05	-4e-05	5
45801	-0.0001	-8e-05	-1e-05	-3e-05	-0.00018	-6e-05	-6e-05	-4e-05	5
45802	-0.0001	-8e-05	-1e-05	-3e-05	-0.00018	-6e-05	-6e-05	-4e-05	5
45803	-0.0001	-8e-05	-1e-05	-3e-05	-0.00018	-6e-05	-6e-05	-4e-05	5
45804	-0.0001	-8e-05	-1e-05	-3e-05	-0.00018	-6e-05	-6e-05	-4e-05	5
45805	-0.0001	-8e-05	-1e-05	-3e-05	-0.00018	-6e-05	-6e-05	-4e-05	5
45806	-0.0001	-8e-05	-1e-05	-3e-05	-0.00018	-6e-05	-6e-05	-4e-05	5
45807	-0.0001	-8e-05	-1e-05	-3e-05	-0.00018	-6e-05	-6e-05	-4e-05	5
45808	2e-05	6e-05	-0.00024	0.00027	0.00013	-1e-05	8e-05	4e-05	5
45809	2e-05	6e-05	-0.00024	0.00027	0.00013	-1e-05	8e-05	4e-05	5
45810	4e-05	9e-05	0.00028	0.00038	0.00026	0.00015	6e-05	3e-05	5
45811	4e-05	9e-05	0.00028	0.00038	0.00026	0.00015	6e-05	3e-05	5
45812	4e-05	9e-05	0.00028	0.00038	0.00026	0.00015	6e-05	3e-05	5
45813	4e-05	9e-05	0.00028	0.00038	0.00026	0.00015	6e-05	3e-05	5
45814	4e-05	9e-05	0.00028	0.00038	0.00026	0.00015	6e-05	3e-05	5
45815	4e-05	9e-05	0.00028	0.00038	0.00026	0.00015	6e-05	3e-05	5
45816	4e-05	9e-05	0.00028	0.00038	0.00026	0.00015	6e-05	3e-05	5
45817	4e-05	9e-05	0.00028	0.00038	0.00026	0.00015	6e-05	3e-05	5
45818	4e-05	9e-05	0.00028	0.00038	0.00026	0.00015	6e-05	3e-05	5
45819	4e-05	9e-05	0.00028	0.00038	0.00026	0.00015	6e-05	3e-05	5
45820	4e-05	9e-05	0.00028	0.00038	0.00026	0.00015	6e-05	3e-05	5
45821	4e-05	9e-05	0.00028	0.00038	0.00026	0.00015	6e-05	3e-05	5
45822	4e-05	9e-05	0.00028	0.00038	0.00026	0.00015	6e-05	3e-05	5
45823	4e-05	9e-05	0.00028	0.00038	0.00026	0.00015	6e-05	3e-05	5
45824	4e-05	9e-05	0.00028	0.00038	0.00026	0.00015	6e-05	3e-05	5
45825	4e-05	9e-05	0.00028	0.00038	0.00026	0.00015	6e-05	3e-05	5
45826	4e-05	9e-05	0.00028	0.00038	0.00026	0.00015	6e-05	3e-05	5
45827	4e-05	9e-05	0.00028	0.00038	0.00026	0.00015	6e-05	3e-05	5
45828	4e-05	9e-05	0.00028	0.00038	0.00026	0.00015	6e-05	3e-05	5
45829	4e-05	9e-05	0.00028	0.00038	0.00026	0.00015	6e-05	3e-05	5
45830	-3e-05	2e-05	0.0001	-0.00061	-0.00103	-0.00034	-3e-05	-2e-05	5
45831	0	6e-05	0.00024	0.00043	0.00028	0.00024	5e-05	2e-05	5
45832	7e-05	7e-05	0.00028	0.00018	-9e-05	-0.00014	-3e-05	0	5
45833	7e-05	7e-05	0.00028	0.00018	-9e-05	-0.00014	-3e-05	0	5
45834	7e-05	7e-05	0.00028	0.00018	-9e-05	-0.00014	-3e-05	0	5
45835	7e-05	7e-05	0.00028	0.00018	-9e-05	-0.00014	-3e-05	0	5
45836	7e-05	7e-05	0.00028	0.00018	-9e-05	-0.00014	-3e-05	0	5
45838	7e-05	7e-05	0.00028	0.00018	-9e-05	-0.00014	-3e-05	0	5
45839	7e-05	7e-05	0.00028	0.00018	-9e-05	-0.00014	-3e-05	0	5
45840	7e-05	7e-05	0.00028	0.00018	-9e-05	-0.00014	-3e-05	0	5
45841	7e-05	7e-05	0.00028	0.00018	-9e-05	-0.00014	-3e-05	0	5
45842	7e-05	7e-05	0.00028	0.00018	-9e-05	-0.00014	-3e-05	0	5
45843	7e-05	7e-05	0.00028	0.00018	-9e-05	-0.00014	-3e-05	0	5
45844	7e-05	7e-05	0.00028	0.00018	-9e-05	-0.00014	-3e-05	0	5
45845	7e-05	7e-05	0.00028	0.00018	-9e-05	-0.00014	-3e-05	0	5
45846	7e-05	7e-05	0.00028	0.00018	-9e-05	-0.00014	-3e-05	0	5
45847	7e-05	7e-05	0.00028	0.00018	-9e-05	-0.00014	-3e-05	0	5
45848	7e-05	7e-05	0.00028	0.00018	-9e-05	-0.00014	-3e-05	0	5
45849	7e-05	7e-05	0.00028	0.00018	-9e-05	-0.00014	-3e-05	0	5
45850	7e-05	7e-05	0.00028	0.00018	-9e-05	-0.00014	-3e-05	0	5
45851	7e-05	7e-05	0.00028	0.00018	-9e-05	-0.00014	-3e-05	0	5
45852	7e-05	7e-05	0.00028	0.00018	-9e-05	-0.00014	-3e-05	0	5
45853	0	-5e-05	-3e-05	-0.0006	-0.00055	-7e-05	-5e-05	-1e-05	5
45854	0	-5e-05	-3e-05	-0.0006	-0.00055	-7e-05	-5e-05	-1e-05	5
45855	1e-05	-8e-05	-0.00024	-0.00059	-0.00036	0.00024	-0.00017	-3e-05	5
45856	1e-05	-8e-05	-0.00024	-0.00059	-0.00036	0.00024	-0.00017	-3e-05	5
45857	1e-05	-8e-05	-0.00024	-0.00059	-0.00036	0.00024	-0.00017	-3e-05	5
45858	1e-05	-8e-05	-0.00024	-0.00059	-0.00036	0.00024	-0.00017	-3e-05	5
45859	1e-05	-8e-05	-0.00024	-0.00059	-0.00036	0.00024	-0.00017	-3e-05	5
45860	1e-05	-8e-05	-0.00024	-0.00059	-0.00036	0.00024	-0.00017	-3e-05	5
45861	1e-05	-8e-05	-0.00024	-0.00059	-0.00036	0.00024	-0.00017	-3e-05	5
45862	1e-05	-8e-05	-0.00024	-0.00059	-0.00036	0.00024	-0.00017	-3e-05	5
45863	1e-05	-8e-05	-0.00024	-0.00059	-0.00036	0.00024	-0.00017	-3e-05	5
45864	1e-05	-8e-05	-0.00024	-0.00059	-0.00036	0.00024	-0.00017	-3e-05	5
45865	1e-05	-8e-05	-0.00024	-0.00059	-0.00036	0.00024	-0.00017	-3e-05	5
45866	1e-05	-8e-05	-0.00024	-0.00059	-0.00036	0.00024	-0.00017	-3e-05	5
45867	1e-05	-8e-05	-0.00024	-0.00059	-0.00036	0.00024	-0.00017	-3e-05	5
45868	-3e-05	-0.00013	-0.00024	-0.00039	-0.00042	-0.00013	-7e-05	-4e-05	5
45869	-3e-05	-0.00013	-0.00024	-0.00039	-0.00042	-0.00013	-7e-05	-4e-05	5
45870	-6e-05	-2e-05	0.00016	0.00011	-3e-05	-1e-05	0	-2e-05	5
45871	-6e-05	-2e-05	0.00016	0.00011	-3e-05	-1e-05	0	-2e-05	5
45872	-6e-05	-2e-05	0.00016	0.00011	-3e-05	-1e-05	0	-2e-05	5
45873	-6e-05	-2e-05	0.00016	0.00011	-3e-05	-1e-05	0	-2e-05	5
45874	-6e-05	-2e-05	0.00016	0.00011	-3e-05	-1e-05	0	-2e-05	5
45875	-6e-05	-2e-05	0.00016	0.00011	-3e-05	-1e-05	0	-2e-05	5
45876	-6e-05	-2e-05	0.00016	0.00011	-3e-05	-1e-05	0	-2e-05	5
45877	-6e-05	-2e-05	0.00016	0.00011	-3e-05	-1e-05	0	-2e-05	5
45878	-6e-05	-2e-05	0.00016	0.00011	-3e-05	-1e-05	0	-2e-05	5
45879	-6e-05	-2e-05	0.00016	0.00011	-3e-05	-1e-05	0	-2e-05	5
45880	-6e-05	-2e-05	0.00016	0.00011	-3e-05	-1e-05	0	-2e-05	5
45881	-6e-05	-2e-05	0.00016	0.00011	-3e-05	-1e-05	0	-2e-05	5
45882	-6e-05	-2e-05	0.00016	0.00011	-3e-05	-1e-05	0	-2e-05	5
45883	-6e-05	-2e-05	0.00016	0.00011	-3e-05	-1e-05	0	-2e-05	5
45884	-6e-05	-2e-05	0.00016	0.00011	-3e-05	-1e-05	0	-2e-05	5
45885	-6e-05	-2e-05	0.00016	0.00011	-3e-05	-1e-05	0	-2e-05	5
45886	-6e-05	-2e-05	0.00016	0.00011	-3e-05	-1e-05	0	-2e-05	5
45888	-6e-05	-2e-05	0.00016	0.00011	-3e-05	-1e-05	0	-2e-05	5
45889	-6e-05	-2e-05	0.00016	0.00011	-3e-05	-1e-05	0	-2e-05	5
45890	-6e-05	-2e-05	0.00016	0.00011	-3e-05	-1e-05	0	-2e-05	5
45891	-6e-05	-2e-05	0.00016	0.00011	-3e-05	-1e-05	0	-2e-05	5
45892	-6e-05	-2e-05	0.00016	0.00011	-3e-05	-1e-05	0	-2e-05	5
45893	-6e-05	-2e-05	0.00016	0.00011	-3e-05	-1e-05	0	-2e-05	5
45894	-6e-05	-2e-05	0.00016	0.00011	-3e-05	-1e-05	0	-2e-05	5
45895	-6e-05	-2e-05	0.00016	0.00011	-3e-05	-1e-05	0	-2e-05	5
45896	-6e-05	-2e-05	0.00016	0.00011	-3e-05	-1e-05	0	-2e-05	5
45897	-6e-05	-2e-05	0.00016	0.00011	-3e-05	-1e-05	0	-2e-05	5
45898	4e-05	0.00018	0.00011	-0.0008	-0.00049	-0.00025	-6e-05	-1e-05	5
45899	4e-05	0.00018	0.00011	-0.0008	-0.00049	-0.00025	-6e-05	-1e-05	5
45900	-1e-05	-6e-05	-0.00047	-0.00026	0.00015	5e-05	0	-1e-05	5
45902	-1e-05	-6e-05	-0.00047	-0.00026	0.00015	5e-05	0	-1e-05	5
45903	-1e-05	-6e-05	-0.00047	-0.00026	0.00015	5e-05	0	-1e-05	5
45904	-1e-05	-6e-05	-0.00047	-0.00026	0.00015	5e-05	0	-1e-05	5
45905	-1e-05	-6e-05	-0.00047	-0.00026	0.00015	5e-05	0	-1e-05	5
45906	5e-05	0.00011	0.00026	0.00066	0.00052	0.00023	7e-05	4e-05	5
45907	-8e-05	-8e-05	0.00046	0.00064	0.00031	-1e-05	0.0001	-1e-05	5
45908	-8e-05	-8e-05	0.00046	0.00064	0.00031	-1e-05	0.0001	-1e-05	5
45909	-8e-05	-8e-05	0.00046	0.00064	0.00031	-1e-05	0.0001	-1e-05	5
45910	-8e-05	-8e-05	0.00046	0.00064	0.00031	-1e-05	0.0001	-1e-05	5
45911	-8e-05	-8e-05	0.00046	0.00064	0.00031	-1e-05	0.0001	-1e-05	5
45912	-8e-05	-8e-05	0.00046	0.00064	0.00031	-1e-05	0.0001	-1e-05	5
45913	-8e-05	-8e-05	0.00046	0.00064	0.00031	-1e-05	0.0001	-1e-05	5
45914	-8e-05	-8e-05	0.00046	0.00064	0.00031	-1e-05	0.0001	-1e-05	5
45915	-8e-05	-8e-05	0.00046	0.00064	0.00031	-1e-05	0.0001	-1e-05	5
45916	-8e-05	-8e-05	0.00046	0.00064	0.00031	-1e-05	0.0001	-1e-05	5
45917	-8e-05	-8e-05	0.00046	0.00064	0.00031	-1e-05	0.0001	-1e-05	5
45918	-8e-05	-8e-05	0.00046	0.00064	0.00031	-1e-05	0.0001	-1e-05	5
45919	-8e-05	-8e-05	0.00046	0.00064	0.00031	-1e-05	0.0001	-1e-05	5
45920	-8e-05	-8e-05	0.00046	0.00064	0.00031	-1e-05	0.0001	-1e-05	5
45921	-8e-05	-8e-05	0.00046	0.00064	0.00031	-1e-05	0.0001	-1e-05	5
45922	-8e-05	-8e-05	0.00046	0.00064	0.00031	-1e-05	0.0001	-1e-05	5
45923	-8e-05	-8e-05	0.00046	0.00064	0.00031	-1e-05	0.0001	-1e-05	5
45924	-8e-05	-8e-05	0.00046	0.00064	0.00031	-1e-05	0.0001	-1e-05	5
45925	-8e-05	-8e-05	0.00046	0.00064	0.00031	-1e-05	0.0001	-1e-05	5
45926	-8e-05	-8e-05	0.00046	0.00064	0.00031	-1e-05	0.0001	-1e-05	5
45927	-8e-05	-8e-05	0.00046	0.00064	0.00031	-1e-05	0.0001	-1e-05	5
45928	-8e-05	-8e-05	0.00046	0.00064	0.00031	-1e-05	0.0001	-1e-05	5
45929	-0.0001	-0.00026	-0.0005	0.0001	0.00016	2e-05	-2e-05	-5e-05	5
45930	2e-05	0.00012	0.00018	1e-05	0.00027	2e-05	-5e-05	0	5
45931	2e-05	0.00012	0.00018	1e-05	0.00027	2e-05	-5e-05	0	5
45932	2e-05	0.00012	0.00018	1e-05	0.00027	2e-05	-5e-05	0	5
45933	2e-05	0.00012	0.00018	1e-05	0.00027	2e-05	-5e-05	0	5
45934	2e-05	0.00012	0.00018	1e-05	0.00027	2e-05	-5e-05	0	5
45935	2e-05	0.00012	0.00018	1e-05	0.00027	2e-05	-5e-05	0	5
45936	2e-05	0.00012	0.00018	1e-05	0.00027	2e-05	-5e-05	0	5
45938	2e-05	0.00012	0.00018	1e-05	0.00027	2e-05	-5e-05	0	5
45939	2e-05	0.00012	0.00018	1e-05	0.00027	2e-05	-5e-05	0	5
45940	2e-05	0.00012	0.00018	1e-05	0.00027	2e-05	-5e-05	0	5
45941	2e-05	0.00012	0.00018	1e-05	0.00027	2e-05	-5e-05	0	5
45943	2e-05	0.00012	0.00018	1e-05	0.00027	2e-05	-5e-05	0	5
45944	2e-05	0.00012	0.00018	1e-05	0.00027	2e-05	-5e-05	0	5
45945	2e-05	0.00012	0.00018	1e-05	0.00027	2e-05	-5e-05	0	5
45946	2e-05	0.00012	0.00018	1e-05	0.00027	2e-05	-5e-05	0	5
45947	2e-05	0.00012	0.00018	1e-05	0.00027	2e-05	-5e-05	0	5
45948	2e-05	0.00012	0.00018	1e-05	0.00027	2e-05	-5e-05	0	5
45949	2e-05	0.00012	0.00018	1e-05	0.00027	2e-05	-5e-05	0	5
45950	2e-05	0.00012	0.00018	1e-05	0.00027	2e-05	-5e-05	0	5
45951	0	-6e-05	-4e-05	-0.0001	0.00024	7e-05	0.00014	7e-05	5
45952	0	-6e-05	-4e-05	-0.0001	0.00024	7e-05	0.00014	7e-05	5
45953	0	3e-05	0.00012	0.0005	-0.00031	-8e-05	-5e-05	-3e-05	5
45954	0	3e-05	0.00012	0.0005	-0.00031	-8e-05	-5e-05	-3e-05	5
45955	0	3e-05	0.00012	0.0005	-0.00031	-8e-05	-5e-05	-3e-05	5
45956	0	3e-05	0.00012	0.0005	-0.00031	-8e-05	-5e-05	-3e-05	5
45957	0	3e-05	0.00012	0.0005	-0.00031	-8e-05	-5e-05	-3e-05	5
45958	0	3e-05	0.00012	0.0005	-0.00031	-8e-05	-5e-05	-3e-05	5
45959	0	3e-05	0.00012	0.0005	-0.00031	-8e-05	-5e-05	-3e-05	5
45960	0	3e-05	0.00012	0.0005	-0.00031	-8e-05	-5e-05	-3e-05	5
45961	0	3e-05	0.00012	0.0005	-0.00031	-8e-05	-5e-05	-3e-05	5
45963	0	3e-05	0.00012	0.0005	-0.00031	-8e-05	-5e-05	-3e-05	5
45964	0	3e-05	0.00012	0.0005	-0.00031	-8e-05	-5e-05	-3e-05	5
45965	-5e-05	-8e-05	-0.00027	0.0003	0.0008	-0.00015	-7e-05	-7e-05	5
45967	-5e-05	-8e-05	-0.00027	0.0003	0.0008	-0.00015	-7e-05	-7e-05	5
45968	-5e-05	-8e-05	-0.00027	0.0003	0.0008	-0.00015	-7e-05	-7e-05	5
45969	-5e-05	-8e-05	-0.00027	0.0003	0.0008	-0.00015	-7e-05	-7e-05	5
45970	-5e-05	-8e-05	-0.00027	0.0003	0.0008	-0.00015	-7e-05	-7e-05	5
45971	-5e-05	-8e-05	-0.00027	0.0003	0.0008	-0.00015	-7e-05	-7e-05	5
45972	-5e-05	-8e-05	-0.00027	0.0003	0.0008	-0.00015	-7e-05	-7e-05	5
45973	-5e-05	-8e-05	-0.00027	0.0003	0.0008	-0.00015	-7e-05	-7e-05	5
45974	-5e-05	-8e-05	-0.00027	0.0003	0.0008	-0.00015	-7e-05	-7e-05	5
45975	-5e-05	-8e-05	-0.00027	0.0003	0.0008	-0.00015	-7e-05	-7e-05	5
45976	-5e-05	-8e-05	-0.00027	0.0003	0.0008	-0.00015	-7e-05	-7e-05	5
45977	-5e-05	-8e-05	-0.00027	0.0003	0.0008	-0.00015	-7e-05	-7e-05	5
45978	-5e-05	-8e-05	-0.00027	0.0003	0.0008	-0.00015	-7e-05	-7e-05	5
45979	-5e-05	-8e-05	-0.00027	0.0003	0.0008	-0.00015	-7e-05	-7e-05	5
45980	-5e-05	-8e-05	-0.00027	0.0003	0.0008	-0.00015	-7e-05	-7e-05	5
45981	-6e-05	0	-0.00011	-0.00025	-0.00031	-0.00011	-2e-05	-6e-05	5
45982	-6e-05	0	-0.00011	-0.00025	-0.00031	-0.00011	-2e-05	-6e-05	5
45983	-6e-05	0	-0.00011	-0.00025	-0.00031	-0.00011	-2e-05	-6e-05	5
45984	-6e-05	0	-0.00011	-0.00025	-0.00031	-0.00011	-2e-05	-6e-05	5
45985	-6e-05	0	-0.00011	-0.00025	-0.00031	-0.00011	-2e-05	-6e-05	5
45986	-6e-05	0	-0.00011	-0.00025	-0.00031	-0.00011	-2e-05	-6e-05	5
45988	-1e-05	-6e-05	-0.00032	-0.00031	-6e-05	0.00011	0	0	5
45989	-1e-05	-6e-05	-0.00032	-0.00031	-6e-05	0.00011	0	0	5
45990	4e-05	9e-05	0.00025	0.00039	0.0003	-0.00011	-5e-05	-4e-05	5
45991	4e-05	9e-05	0.00025	0.00039	0.0003	-0.00011	-5e-05	-4e-05	5
45992	4e-05	9e-05	0.00025	0.00039	0.0003	-0.00011	-5e-05	-4e-05	5
45993	4e-05	9e-05	0.00025	0.00039	0.0003	-0.00011	-5e-05	-4e-05	5
45994	4e-05	9e-05	0.00025	0.00039	0.0003	-0.00011	-5e-05	-4e-05	5
45995	4e-05	9e-05	0.00025	0.00039	0.0003	-0.00011	-5e-05	-4e-05	5
45996	4e-05	9e-05	0.00025	0.00039	0.0003	-0.00011	-5e-05	-4e-05	5
45997	4e-05	9e-05	0.00025	0.00039	0.0003	-0.00011	-5e-05	-4e-05	5
45998	4e-05	9e-05	0.00025	0.00039	0.0003	-0.00011	-5e-05	-4e-05	5
45999	4e-05	9e-05	0.00025	0.00039	0.0003	-0.00011	-5e-05	-4e-05	5
46000	4e-05	9e-05	0.00025	0.00039	0.0003	-0.00011	-5e-05	-4e-05	5
46001	4e-05	9e-05	0.00025	0.00039	0.0003	-0.00011	-5e-05	-4e-05	5
46002	4e-05	9e-05	0.00025	0.00039	0.0003	-0.00011	-5e-05	-4e-05	5
46003	4e-05	9e-05	0.00025	0.00039	0.0003	-0.00011	-5e-05	-4e-05	5
46004	4e-05	9e-05	0.00025	0.00039	0.0003	-0.00011	-5e-05	-4e-05	5
46005	4e-05	9e-05	0.00025	0.00039	0.0003	-0.00011	-5e-05	-4e-05	5
46006	4e-05	9e-05	0.00025	0.00039	0.0003	-0.00011	-5e-05	-4e-05	5
46007	4e-05	9e-05	0.00025	0.00039	0.0003	-0.00011	-5e-05	-4e-05	5
46008	4e-05	9e-05	0.00025	0.00039	0.0003	-0.00011	-5e-05	-4e-05	5
46009	4e-05	9e-05	0.00025	0.00039	0.0003	-0.00011	-5e-05	-4e-05	5
46010	4e-05	9e-05	0.00025	0.00039	0.0003	-0.00011	-5e-05	-4e-05	5
46011	-0.00014	-0.00022	0.00014	0.00021	-9e-05	-2e-05	-7e-05	-7e-05	5
46012	-5e-05	-0.00013	-0.00013	-0.00074	-0.00093	6e-05	-2e-05	-2e-05	5
46013	-5e-05	-0.00013	-0.00013	-0.00074	-0.00093	6e-05	-2e-05	-2e-05	5
46014	-5e-05	-0.00013	-0.00013	-0.00074	-0.00093	6e-05	-2e-05	-2e-05	5
46015	-5e-05	-0.00013	-0.00013	-0.00074	-0.00093	6e-05	-2e-05	-2e-05	5
46016	-5e-05	-0.00013	-0.00013	-0.00074	-0.00093	6e-05	-2e-05	-2e-05	5
46017	-5e-05	-0.00013	-0.00013	-0.00074	-0.00093	6e-05	-2e-05	-2e-05	5
46018	-5e-05	-0.00013	-0.00013	-0.00074	-0.00093	6e-05	-2e-05	-2e-05	5
46019	-5e-05	-0.00013	-0.00013	-0.00074	-0.00093	6e-05	-2e-05	-2e-05	5
46020	-5e-05	-0.00013	-0.00013	-0.00074	-0.00093	6e-05	-2e-05	-2e-05	5
46021	-5e-05	-0.00013	-0.00013	-0.00074	-0.00093	6e-05	-2e-05	-2e-05	5
46022	-5e-05	-0.00013	-0.00013	-0.00074	-0.00093	6e-05	-2e-05	-2e-05	5
46023	-5e-05	-0.00013	-0.00013	-0.00074	-0.00093	6e-05	-2e-05	-2e-05	5
46024	-5e-05	-0.00013	-0.00013	-0.00074	-0.00093	6e-05	-2e-05	-2e-05	5
46025	-5e-05	-0.00013	-0.00013	-0.00074	-0.00093	6e-05	-2e-05	-2e-05	5
46026	-5e-05	-0.00013	-0.00013	-0.00074	-0.00093	6e-05	-2e-05	-2e-05	5
46027	-5e-05	-0.00013	-0.00013	-0.00074	-0.00093	6e-05	-2e-05	-2e-05	5
46028	-5e-05	-0.00013	-0.00013	-0.00074	-0.00093	6e-05	-2e-05	-2e-05	5
46029	-5e-05	-0.00013	-0.00013	-0.00074	-0.00093	6e-05	-2e-05	-2e-05	5
46030	-5e-05	-0.00013	-0.00013	-0.00074	-0.00093	6e-05	-2e-05	-2e-05	5
46031	-5e-05	-0.00013	-0.00013	-0.00074	-0.00093	6e-05	-2e-05	-2e-05	5
46032	-5e-05	-0.00013	-0.00013	-0.00074	-0.00093	6e-05	-2e-05	-2e-05	5
46033	-3e-05	-6e-05	0.00013	-0.00032	-0.00019	-0.0002	2e-05	-3e-05	5
46034	-3e-05	-6e-05	0.00013	-0.00032	-0.00019	-0.0002	2e-05	-3e-05	5
46035	1e-05	-2e-05	-0.00027	-0.00045	0.0001	0.00028	0.0001	5e-05	5
46036	1e-05	-2e-05	-0.00027	-0.00045	0.0001	0.00028	0.0001	5e-05	5
46038	1e-05	-2e-05	-0.00027	-0.00045	0.0001	0.00028	0.0001	5e-05	5
46039	1e-05	-2e-05	-0.00027	-0.00045	0.0001	0.00028	0.0001	5e-05	5
46040	1e-05	-2e-05	-0.00027	-0.00045	0.0001	0.00028	0.0001	5e-05	5
46041	1e-05	-2e-05	-0.00027	-0.00045	0.0001	0.00028	0.0001	5e-05	5
46042	1e-05	-2e-05	-0.00027	-0.00045	0.0001	0.00028	0.0001	5e-05	5
46043	1e-05	-2e-05	-0.00027	-0.00045	0.0001	0.00028	0.0001	5e-05	5
46044	1e-05	-2e-05	-0.00027	-0.00045	0.0001	0.00028	0.0001	5e-05	5
46045	1e-05	-2e-05	-0.00027	-0.00045	0.0001	0.00028	0.0001	5e-05	5
46046	1e-05	-2e-05	-0.00027	-0.00045	0.0001	0.00028	0.0001	5e-05	5
46047	1e-05	-2e-05	-0.00027	-0.00045	0.0001	0.00028	0.0001	5e-05	5
46048	1e-05	-2e-05	-0.00027	-0.00045	0.0001	0.00028	0.0001	5e-05	5
46049	1e-05	-2e-05	-0.00027	-0.00045	0.0001	0.00028	0.0001	5e-05	5
