28014	8e-05	4e-05	1e-05	-1e-05	1e-05	0.00094	0.00023	0.00062	6
28015	8e-05	4e-05	1e-05	-1e-05	1e-05	0.00094	0.00023	0.00062	6
28016	8e-05	4e-05	1e-05	-1e-05	1e-05	0.00094	0.00023	0.00062	6
28017	8e-05	4e-05	1e-05	-1e-05	1e-05	0.00094	0.00023	0.00062	6
28018	8e-05	4e-05	1e-05	-1e-05	1e-05	0.00094	0.00023	0.00062	6
28019	8e-05	4e-05	1e-05	-1e-05	1e-05	0.00094	0.00023	0.00062	6
28020	8e-05	4e-05	1e-05	-1e-05	1e-05	0.00094	0.00023	0.00062	6
28021	8e-05	4e-05	1e-05	-1e-05	1e-05	0.00094	0.00023	0.00062	6
28022	8e-05	4e-05	1e-05	-1e-05	1e-05	0.00094	0.00023	0.00062	6
28023	8e-05	4e-05	1e-05	-1e-05	1e-05	0.00094	0.00023	0.00062	6
28024	8e-05	4e-05	1e-05	-1e-05	1e-05	0.00094	0.00023	0.00062	6
28025	8e-05	4e-05	1e-05	-1e-05	1e-05	0.00094	0.00023	0.00062	6
28026	8e-05	4e-05	1e-05	-1e-05	1e-05	0.00094	0.00023	0.00062	6
28027	8e-05	4e-05	1e-05	-1e-05	1e-05	0.00094	0.00023	0.00062	6
28028	8e-05	4e-05	1e-05	-1e-05	1e-05	0.00094	0.00023	0.00062	6
28029	8e-05	4e-05	1e-05	-1e-05	1e-05	0.00094	0.00023	0.00062	6
28030	8e-05	4e-05	1e-05	-1e-05	1e-05	0.00094	0.00023	0.00062	6
28031	0	3e-05	2e-05	0.00012	0.00089	-0.0006	4e-05	-4e-05	6
28032	0	3e-05	2e-05	0.00012	0.00089	-0.0006	4e-05	-4e-05	6
28033	3e-05	-4e-05	-2e-05	0.00015	0.00052	0.00015	7e-05	0.00037	6
28034	3e-05	-4e-05	-2e-05	0.00015	0.00052	0.00015	7e-05	0.00037	6
28035	3e-05	-4e-05	-2e-05	0.00015	0.00052	0.00015	7e-05	0.00037	6
28036	3e-05	-4e-05	-2e-05	0.00015	0.00052	0.00015	7e-05	0.00037	6
28038	3e-05	-4e-05	-2e-05	0.00015	0.00052	0.00015	7e-05	0.00037	6
28039	3e-05	-4e-05	-2e-05	0.00015	0.00052	0.00015	7e-05	0.00037	6
28040	3e-05	-4e-05	-2e-05	0.00015	0.00052	0.00015	7e-05	0.00037	6
28041	3e-05	-4e-05	-2e-05	0.00015	0.00052	0.00015	7e-05	0.00037	6
28042	3e-05	-4e-05	-2e-05	0.00015	0.00052	0.00015	7e-05	0.00037	6
28043	3e-05	-4e-05	-2e-05	0.00015	0.00052	0.00015	7e-05	0.00037	6
28044	3e-05	-4e-05	-2e-05	0.00015	0.00052	0.00015	7e-05	0.00037	6
28045	3e-05	-4e-05	-2e-05	0.00015	0.00052	0.00015	7e-05	0.00037	6
28046	3e-05	-4e-05	-2e-05	0.00015	0.00052	0.00015	7e-05	0.00037	6
28047	3e-05	-4e-05	-2e-05	0.00015	0.00052	0.00015	7e-05	0.00037	6
28048	3e-05	-4e-05	-2e-05	0.00015	0.00052	0.00015	7e-05	0.00037	6
28049	3e-05	-4e-05	-2e-05	0.00015	0.00052	0.00015	7e-05	0.00037	6
28050	3e-05	-4e-05	-2e-05	0.00015	0.00052	0.00015	7e-05	0.00037	6
28051	3e-05	-4e-05	-2e-05	0.00015	0.00052	0.00015	7e-05	0.00037	6
28052	3e-05	-4e-05	-2e-05	0.00015	0.00052	0.00015	7e-05	0.00037	6
28053	3e-05	-4e-05	-2e-05	0.00015	0.00052	0.00015	7e-05	0.00037	6
28054	3e-05	1e-05	-1e-05	0	0.00028	0.00024	0.0001	0.00112	6
28055	3e-05	1e-05	-1e-05	0	0.00028	0.00024	0.0001	0.00112	6
28056	-0.00012	-2e-05	-1e-05	-3e-05	0.00018	-0.00059	4e-05	0.0004	6
28057	-0.00012	-2e-05	-1e-05	-3e-05	0.00018	-0.00059	4e-05	0.0004	6
28058	-0.00012	-2e-05	-1e-05	-3e-05	0.00018	-0.00059	4e-05	0.0004	6
28059	-0.00012	-2e-05	-1e-05	-3e-05	0.00018	-0.00059	4e-05	0.0004	6
28060	-0.00012	-2e-05	-1e-05	-3e-05	0.00018	-0.00059	4e-05	0.0004	6
28061	-0.00012	-2e-05	-1e-05	-3e-05	0.00018	-0.00059	4e-05	0.0004	6
28062	-0.00012	-2e-05	-1e-05	-3e-05	0.00018	-0.00059	4e-05	0.0004	6
28063	-0.00012	-2e-05	-1e-05	-3e-05	0.00018	-0.00059	4e-05	0.0004	6
28064	-0.00012	-2e-05	-1e-05	-3e-05	0.00018	-0.00059	4e-05	0.0004	6
28065	-0.00012	-2e-05	-1e-05	-3e-05	0.00018	-0.00059	4e-05	0.0004	6
28066	-0.00012	-2e-05	-1e-05	-3e-05	0.00018	-0.00059	4e-05	0.0004	6
28067	-0.00012	-2e-05	-1e-05	-3e-05	0.00018	-0.00059	4e-05	0.0004	6
28068	-0.00011	1e-05	2e-05	-1e-05	-6e-05	-0.00013	0.00014	4e-05	6
28069	6e-05	-1e-05	-3e-05	-1e-05	0.00011	-0.00033	0.0002	0.0009	6
28070	6e-05	-1e-05	-3e-05	-1e-05	0.00011	-0.00033	0.0002	0.0009	6
28071	6e-05	-1e-05	-3e-05	-1e-05	0.00011	-0.00033	0.0002	0.0009	6
28072	6e-05	-1e-05	-3e-05	-1e-05	0.00011	-0.00033	0.0002	0.0009	6
28073	6e-05	-1e-05	-3e-05	-1e-05	0.00011	-0.00033	0.0002	0.0009	6
28074	6e-05	-1e-05	-3e-05	-1e-05	0.00011	-0.00033	0.0002	0.0009	6
28075	-0.00016	-2e-05	-2e-05	-8e-05	-0.00038	0.00021	1e-05	-0.00083	6
28076	-0.00016	-2e-05	-2e-05	-8e-05	-0.00038	0.00021	1e-05	-0.00083	6
28077	-0.00016	-2e-05	-2e-05	-8e-05	-0.00038	0.00021	1e-05	-0.00083	6
28078	-0.00016	-2e-05	-2e-05	-8e-05	-0.00038	0.00021	1e-05	-0.00083	6
28079	-0.00016	-2e-05	-2e-05	-8e-05	-0.00038	0.00021	1e-05	-0.00083	6
28080	-0.00016	-2e-05	-2e-05	-8e-05	-0.00038	0.00021	1e-05	-0.00083	6
28081	-0.00016	-2e-05	-2e-05	-8e-05	-0.00038	0.00021	1e-05	-0.00083	6
28082	-0.00016	-2e-05	-2e-05	-8e-05	-0.00038	0.00021	1e-05	-0.00083	6
28083	-0.00016	-2e-05	-2e-05	-8e-05	-0.00038	0.00021	1e-05	-0.00083	6
28084	-0.00016	-2e-05	-2e-05	-8e-05	-0.00038	0.00021	1e-05	-0.00083	6
28085	-0.00016	-2e-05	-2e-05	-8e-05	-0.00038	0.00021	1e-05	-0.00083	6
28086	-0.00016	-2e-05	-2e-05	-8e-05	-0.00038	0.00021	1e-05	-0.00083	6
28088	-0.00016	-2e-05	-2e-05	-8e-05	-0.00038	0.00021	1e-05	-0.00083	6
28089	-0.00016	-2e-05	-2e-05	-8e-05	-0.00038	0.00021	1e-05	-0.00083	6
28090	-0.00016	-2e-05	-2e-05	-8e-05	-0.00038	0.00021	1e-05	-0.00083	6
28091	-0.00016	-2e-05	-2e-05	-8e-05	-0.00038	0.00021	1e-05	-0.00083	6
28092	-3e-05	-2e-05	-3e-05	-0.00011	-0.0001	5e-05	-4e-05	-0.00022	6
28093	0.00024	3e-05	-1e-05	1e-05	-0.0002	-0.0007	-0.0003	0.00061	6
28094	0.00024	3e-05	-1e-05	1e-05	-0.0002	-0.0007	-0.0003	0.00061	6
28095	0.00024	3e-05	-1e-05	1e-05	-0.0002	-0.0007	-0.0003	0.00061	6
28096	0.00024	3e-05	-1e-05	1e-05	-0.0002	-0.0007	-0.0003	0.00061	6
28097	0.00024	3e-05	-1e-05	1e-05	-0.0002	-0.0007	-0.0003	0.00061	6
28098	0.00024	3e-05	-1e-05	1e-05	-0.0002	-0.0007	-0.0003	0.00061	6
28099	0.00024	3e-05	-1e-05	1e-05	-0.0002	-0.0007	-0.0003	0.00061	6
28100	0.00024	3e-05	-1e-05	1e-05	-0.0002	-0.0007	-0.0003	0.00061	6
28101	0.00024	3e-05	-1e-05	1e-05	-0.0002	-0.0007	-0.0003	0.00061	6
28102	0.00024	3e-05	-1e-05	1e-05	-0.0002	-0.0007	-0.0003	0.00061	6
28103	0.00024	3e-05	-1e-05	1e-05	-0.0002	-0.0007	-0.0003	0.00061	6
28104	0.00024	3e-05	-1e-05	1e-05	-0.0002	-0.0007	-0.0003	0.00061	6
28105	0.00024	3e-05	-1e-05	1e-05	-0.0002	-0.0007	-0.0003	0.00061	6
28106	0.00024	3e-05	-1e-05	1e-05	-0.0002	-0.0007	-0.0003	0.00061	6
28107	0.00024	3e-05	-1e-05	1e-05	-0.0002	-0.0007	-0.0003	0.00061	6
28108	0.00024	3e-05	-1e-05	1e-05	-0.0002	-0.0007	-0.0003	0.00061	6
28109	0.00024	3e-05	-1e-05	1e-05	-0.0002	-0.0007	-0.0003	0.00061	6
28110	0.00024	3e-05	-1e-05	1e-05	-0.0002	-0.0007	-0.0003	0.00061	6
28111	0.00024	3e-05	-1e-05	1e-05	-0.0002	-0.0007	-0.0003	0.00061	6
28112	0.00024	3e-05	-1e-05	1e-05	-0.0002	-0.0007	-0.0003	0.00061	6
28113	0.00024	3e-05	-1e-05	1e-05	-0.0002	-0.0007	-0.0003	0.00061	6
28114	-1e-05	-0.00012	-1e-05	0.00011	0.0001	0.00023	-8e-05	-0.00033	6
28115	1e-05	1e-05	0	0.0001	0.00072	0.00011	1e-05	-0.00105	6
28117	1e-05	1e-05	0	0.0001	0.00072	0.00011	1e-05	-0.00105	6
28118	1e-05	1e-05	0	0.0001	0.00072	0.00011	1e-05	-0.00105	6
28119	1e-05	1e-05	0	0.0001	0.00072	0.00011	1e-05	-0.00105	6
28120	1e-05	1e-05	0	0.0001	0.00072	0.00011	1e-05	-0.00105	6
28121	1e-05	1e-05	0	0.0001	0.00072	0.00011	1e-05	-0.00105	6
28122	1e-05	1e-05	0	0.0001	0.00072	0.00011	1e-05	-0.00105	6
28123	1e-05	1e-05	0	0.0001	0.00072	0.00011	1e-05	-0.00105	6
28124	1e-05	1e-05	0	0.0001	0.00072	0.00011	1e-05	-0.00105	6
28125	1e-05	1e-05	0	0.0001	0.00072	0.00011	1e-05	-0.00105	6
28126	1e-05	1e-05	0	0.0001	0.00072	0.00011	1e-05	-0.00105	6
28127	1e-05	1e-05	0	0.0001	0.00072	0.00011	1e-05	-0.00105	6
28128	-0.0001	2e-05	2e-05	0	-7e-05	0.0008	7e-05	-0.00012	6
28129	8e-05	2e-05	-4e-05	-0.00012	-0.00035	-0.00015	-0.00022	-5e-05	6
28130	8e-05	2e-05	-4e-05	-0.00012	-0.00035	-0.00015	-0.00022	-5e-05	6
28131	8e-05	2e-05	-4e-05	-0.00012	-0.00035	-0.00015	-0.00022	-5e-05	6
28132	8e-05	2e-05	-4e-05	-0.00012	-0.00035	-0.00015	-0.00022	-5e-05	6
28133	8e-05	2e-05	-4e-05	-0.00012	-0.00035	-0.00015	-0.00022	-5e-05	6
28134	8e-05	2e-05	-4e-05	-0.00012	-0.00035	-0.00015	-0.00022	-5e-05	6
28135	-6e-05	-7e-05	-9e-05	-8e-05	-0.00016	0	0.00018	-0.0005	6
28136	-6e-05	-7e-05	-9e-05	-8e-05	-0.00016	0	0.00018	-0.0005	6
28138	-6e-05	-7e-05	-9e-05	-8e-05	-0.00016	0	0.00018	-0.0005	6
28139	-6e-05	-7e-05	-9e-05	-8e-05	-0.00016	0	0.00018	-0.0005	6
28140	-6e-05	-7e-05	-9e-05	-8e-05	-0.00016	0	0.00018	-0.0005	6
28141	-6e-05	-7e-05	-9e-05	-8e-05	-0.00016	0	0.00018	-0.0005	6
28142	-6e-05	-7e-05	-9e-05	-8e-05	-0.00016	0	0.00018	-0.0005	6
28143	-6e-05	-7e-05	-9e-05	-8e-05	-0.00016	0	0.00018	-0.0005	6
28144	-6e-05	-7e-05	-9e-05	-8e-05	-0.00016	0	0.00018	-0.0005	6
28145	-6e-05	-7e-05	-9e-05	-8e-05	-0.00016	0	0.00018	-0.0005	6
28146	-6e-05	-7e-05	-9e-05	-8e-05	-0.00016	0	0.00018	-0.0005	6
28147	-6e-05	-7e-05	-9e-05	-8e-05	-0.00016	0	0.00018	-0.0005	6
28148	-6e-05	-7e-05	-9e-05	-8e-05	-0.00016	0	0.00018	-0.0005	6
28149	-6e-05	-7e-05	-9e-05	-8e-05	-0.00016	0	0.00018	-0.0005	6
28150	-6e-05	-7e-05	-9e-05	-8e-05	-0.00016	0	0.00018	-0.0005	6
28151	-6e-05	-7e-05	-9e-05	-8e-05	-0.00016	0	0.00018	-0.0005	6
28152	-0.0001	0.00025	0	-6e-05	-1e-05	0.0002	-2e-05	-0.00049	6
28153	-0.00018	-0.00018	3e-05	-0.0001	-0.0002	-0.00056	-0.00021	-6e-05	6
28154	-0.00018	-0.00018	3e-05	-0.0001	-0.0002	-0.00056	-0.00021	-6e-05	6
28155	-0.00018	-0.00018	3e-05	-0.0001	-0.0002	-0.00056	-0.00021	-6e-05	6
28156	-0.00018	-0.00018	3e-05	-0.0001	-0.0002	-0.00056	-0.00021	-6e-05	6
28157	-0.00018	-0.00018	3e-05	-0.0001	-0.0002	-0.00056	-0.00021	-6e-05	6
28158	-0.00018	-0.00018	3e-05	-0.0001	-0.0002	-0.00056	-0.00021	-6e-05	6
28159	-0.00018	-0.00018	3e-05	-0.0001	-0.0002	-0.00056	-0.00021	-6e-05	6
28160	-0.00018	-0.00018	3e-05	-0.0001	-0.0002	-0.00056	-0.00021	-6e-05	6
28161	-0.00018	-0.00018	3e-05	-0.0001	-0.0002	-0.00056	-0.00021	-6e-05	6
28162	-0.00018	-0.00018	3e-05	-0.0001	-0.0002	-0.00056	-0.00021	-6e-05	6
28163	-0.00018	-0.00018	3e-05	-0.0001	-0.0002	-0.00056	-0.00021	-6e-05	6
28164	-0.00018	-0.00018	3e-05	-0.0001	-0.0002	-0.00056	-0.00021	-6e-05	6
28165	-0.00018	-0.00018	3e-05	-0.0001	-0.0002	-0.00056	-0.00021	-6e-05	6
28166	-0.00018	-0.00018	3e-05	-0.0001	-0.0002	-0.00056	-0.00021	-6e-05	6
28167	-0.00018	-0.00018	3e-05	-0.0001	-0.0002	-0.00056	-0.00021	-6e-05	6
28168	-0.00018	-0.00018	3e-05	-0.0001	-0.0002	-0.00056	-0.00021	-6e-05	6
28169	-0.00018	-0.00018	3e-05	-0.0001	-0.0002	-0.00056	-0.00021	-6e-05	6
28170	-0.00018	-0.00018	3e-05	-0.0001	-0.0002	-0.00056	-0.00021	-6e-05	6
28171	-0.00018	-0.00018	3e-05	-0.0001	-0.0002	-0.00056	-0.00021	-6e-05	6
28172	-0.00018	-0.00018	3e-05	-0.0001	-0.0002	-0.00056	-0.00021	-6e-05	6
28173	-0.00018	-0.00018	3e-05	-0.0001	-0.0002	-0.00056	-0.00021	-6e-05	6
28174	-6e-05	-0.00022	1e-05	0.00012	-8e-05	0.00079	0.00023	-9e-05	6
28175	-6e-05	-0.00022	1e-05	0.00012	-8e-05	0.00079	0.00023	-9e-05	6
28176	-1e-05	-9e-05	3e-05	4e-05	7e-05	4e-05	-2e-05	0.0003	6
28177	-1e-05	-9e-05	3e-05	4e-05	7e-05	4e-05	-2e-05	0.0003	6
28178	-1e-05	-9e-05	3e-05	4e-05	7e-05	4e-05	-2e-05	0.0003	6
28179	-1e-05	-9e-05	3e-05	4e-05	7e-05	4e-05	-2e-05	0.0003	6
28180	-1e-05	-9e-05	3e-05	4e-05	7e-05	4e-05	-2e-05	0.0003	6
28181	-1e-05	-9e-05	3e-05	4e-05	7e-05	4e-05	-2e-05	0.0003	6
28182	-1e-05	-9e-05	3e-05	4e-05	7e-05	4e-05	-2e-05	0.0003	6
28183	-1e-05	-9e-05	3e-05	4e-05	7e-05	4e-05	-2e-05	0.0003	6
28184	-1e-05	-9e-05	3e-05	4e-05	7e-05	4e-05	-2e-05	0.0003	6
28185	-1e-05	-9e-05	3e-05	4e-05	7e-05	4e-05	-2e-05	0.0003	6
28186	-1e-05	-9e-05	3e-05	4e-05	7e-05	4e-05	-2e-05	0.0003	6
28188	-1e-05	-9e-05	3e-05	4e-05	7e-05	4e-05	-2e-05	0.0003	6
28189	1e-05	-4e-05	0	-5e-05	-2e-05	-5e-05	8e-05	0.00048	6
28190	1e-05	-4e-05	0	-5e-05	-2e-05	-5e-05	8e-05	0.00048	6
28191	1e-05	-4e-05	0	-5e-05	-2e-05	-5e-05	8e-05	0.00048	6
28192	1e-05	-4e-05	0	-5e-05	-2e-05	-5e-05	8e-05	0.00048	6
28193	1e-05	-4e-05	0	-5e-05	-2e-05	-5e-05	8e-05	0.00048	6
28194	1e-05	-4e-05	0	-5e-05	-2e-05	-5e-05	8e-05	0.00048	6
28195	-0.00011	6e-05	-6e-05	-1e-05	-0.00014	0.00059	0.00034	-0.00081	6
28196	-0.00011	6e-05	-6e-05	-1e-05	-0.00014	0.00059	0.00034	-0.00081	6
28197	-0.00011	6e-05	-6e-05	-1e-05	-0.00014	0.00059	0.00034	-0.00081	6
28198	-0.00011	6e-05	-6e-05	-1e-05	-0.00014	0.00059	0.00034	-0.00081	6
28199	-0.00011	6e-05	-6e-05	-1e-05	-0.00014	0.00059	0.00034	-0.00081	6
28200	-0.00011	6e-05	-6e-05	-1e-05	-0.00014	0.00059	0.00034	-0.00081	6
28201	-0.00011	6e-05	-6e-05	-1e-05	-0.00014	0.00059	0.00034	-0.00081	6
28202	-0.00011	6e-05	-6e-05	-1e-05	-0.00014	0.00059	0.00034	-0.00081	6
28203	-0.00011	6e-05	-6e-05	-1e-05	-0.00014	0.00059	0.00034	-0.00081	6
28204	-0.00011	6e-05	-6e-05	-1e-05	-0.00014	0.00059	0.00034	-0.00081	6
28205	-0.00011	6e-05	-6e-05	-1e-05	-0.00014	0.00059	0.00034	-0.00081	6
28206	-0.00011	6e-05	-6e-05	-1e-05	-0.00014	0.00059	0.00034	-0.00081	6
28207	-0.00011	6e-05	-6e-05	-1e-05	-0.00014	0.00059	0.00034	-0.00081	6
28208	-0.00011	6e-05	-6e-05	-1e-05	-0.00014	0.00059	0.00034	-0.00081	6
28209	-0.00011	6e-05	-6e-05	-1e-05	-0.00014	0.00059	0.00034	-0.00081	6
28210	-0.00011	6e-05	-6e-05	-1e-05	-0.00014	0.00059	0.00034	-0.00081	6
28211	-0.00011	6e-05	-6e-05	-1e-05	-0.00014	0.00059	0.00034	-0.00081	6
28212	-8e-05	-3e-05	0	-7e-05	-0.00024	-0.00032	-3e-05	-0.0002	6
28213	-4e-05	6e-05	0	-2e-05	-0.00011	0.00042	-0.00011	1e-05	6
28214	-4e-05	6e-05	0	-2e-05	-0.00011	0.00042	-0.00011	1e-05	6
28215	-4e-05	6e-05	0	-2e-05	-0.00011	0.00042	-0.00011	1e-05	6
28216	-4e-05	6e-05	0	-2e-05	-0.00011	0.00042	-0.00011	1e-05	6
28217	-4e-05	6e-05	0	-2e-05	-0.00011	0.00042	-0.00011	1e-05	6
28218	-4e-05	6e-05	0	-2e-05	-0.00011	0.00042	-0.00011	1e-05	6
28219	-4e-05	6e-05	0	-2e-05	-0.00011	0.00042	-0.00011	1e-05	6
28220	-4e-05	6e-05	0	-2e-05	-0.00011	0.00042	-0.00011	1e-05	6
28221	-4e-05	6e-05	0	-2e-05	-0.00011	0.00042	-0.00011	1e-05	6
28222	-4e-05	6e-05	0	-2e-05	-0.00011	0.00042	-0.00011	1e-05	6
28223	-4e-05	6e-05	0	-2e-05	-0.00011	0.00042	-0.00011	1e-05	6
28224	-4e-05	6e-05	0	-2e-05	-0.00011	0.00042	-0.00011	1e-05	6
28225	-4e-05	6e-05	0	-2e-05	-0.00011	0.00042	-0.00011	1e-05	6
28226	-4e-05	6e-05	0	-2e-05	-0.00011	0.00042	-0.00011	1e-05	6
28227	-4e-05	6e-05	0	-2e-05	-0.00011	0.00042	-0.00011	1e-05	6
28228	-4e-05	6e-05	0	-2e-05	-0.00011	0.00042	-0.00011	1e-05	6
28229	-4e-05	6e-05	0	-2e-05	-0.00011	0.00042	-0.00011	1e-05	6
28230	-4e-05	6e-05	0	-2e-05	-0.00011	0.00042	-0.00011	1e-05	6
28231	-4e-05	6e-05	0	-2e-05	-0.00011	0.00042	-0.00011	1e-05	6
28232	-4e-05	6e-05	0	-2e-05	-0.00011	0.00042	-0.00011	1e-05	6
28233	-4e-05	6e-05	0	-2e-05	-0.00011	0.00042	-0.00011	1e-05	6
28234	7e-05	3e-05	0.00011	0.00023	-0.00027	0.00078	0.00033	-7e-05	6
28235	-2e-05	-2e-05	-5e-05	-5e-05	9e-05	-0.00072	-0.00011	-0.00029	6
28236	4e-05	0.00012	1e-05	-4e-05	-0.00038	-0.00031	-0.00028	5e-05	6
28238	4e-05	0.00012	1e-05	-4e-05	-0.00038	-0.00031	-0.00028	5e-05	6
28239	4e-05	0.00012	1e-05	-4e-05	-0.00038	-0.00031	-0.00028	5e-05	6
28240	4e-05	0.00012	1e-05	-4e-05	-0.00038	-0.00031	-0.00028	5e-05	6
28241	4e-05	0.00012	1e-05	-4e-05	-0.00038	-0.00031	-0.00028	5e-05	6
28242	4e-05	0.00012	1e-05	-4e-05	-0.00038	-0.00031	-0.00028	5e-05	6
28243	4e-05	0.00012	1e-05	-4e-05	-0.00038	-0.00031	-0.00028	5e-05	6
28244	4e-05	0.00012	1e-05	-4e-05	-0.00038	-0.00031	-0.00028	5e-05	6
28245	4e-05	0.00012	1e-05	-4e-05	-0.00038	-0.00031	-0.00028	5e-05	6
28246	4e-05	0.00012	1e-05	-4e-05	-0.00038	-0.00031	-0.00028	5e-05	6
28247	4e-05	0.00012	1e-05	-4e-05	-0.00038	-0.00031	-0.00028	5e-05	6
28248	5e-05	0	-3e-05	-4e-05	-0.00021	-0.00024	0.00011	0.00054	6
28249	5e-05	0	-3e-05	-4e-05	-0.00021	-0.00024	0.00011	0.00054	6
28250	5e-05	0	-3e-05	-4e-05	-0.00021	-0.00024	0.00011	0.00054	6
28251	5e-05	0	-3e-05	-4e-05	-0.00021	-0.00024	0.00011	0.00054	6
28252	5e-05	0	-3e-05	-4e-05	-0.00021	-0.00024	0.00011	0.00054	6
28253	5e-05	0	-3e-05	-4e-05	-0.00021	-0.00024	0.00011	0.00054	6
28254	5e-05	0	-3e-05	-4e-05	-0.00021	-0.00024	0.00011	0.00054	6
28255	0.00015	-3e-05	-1e-05	1e-05	-2e-05	0.00017	-4e-05	0.00099	6
28256	0.00015	-3e-05	-1e-05	1e-05	-2e-05	0.00017	-4e-05	0.00099	6
28257	0.00015	-3e-05	-1e-05	1e-05	-2e-05	0.00017	-4e-05	0.00099	6
28258	0.00015	-3e-05	-1e-05	1e-05	-2e-05	0.00017	-4e-05	0.00099	6
28259	0.00015	-3e-05	-1e-05	1e-05	-2e-05	0.00017	-4e-05	0.00099	6
28260	0.00015	-3e-05	-1e-05	1e-05	-2e-05	0.00017	-4e-05	0.00099	6
28261	0.00015	-3e-05	-1e-05	1e-05	-2e-05	0.00017	-4e-05	0.00099	6
28262	0.00015	-3e-05	-1e-05	1e-05	-2e-05	0.00017	-4e-05	0.00099	6
28263	0.00015	-3e-05	-1e-05	1e-05	-2e-05	0.00017	-4e-05	0.00099	6
28264	0.00015	-3e-05	-1e-05	1e-05	-2e-05	0.00017	-4e-05	0.00099	6
28265	0.00015	-3e-05	-1e-05	1e-05	-2e-05	0.00017	-4e-05	0.00099	6
28266	0.00015	-3e-05	-1e-05	1e-05	-2e-05	0.00017	-4e-05	0.00099	6
28267	0.00015	-3e-05	-1e-05	1e-05	-2e-05	0.00017	-4e-05	0.00099	6
28268	0.00015	-3e-05	-1e-05	1e-05	-2e-05	0.00017	-4e-05	0.00099	6
28269	0.00015	-3e-05	-1e-05	1e-05	-2e-05	0.00017	-4e-05	0.00099	6
28270	0.00015	-3e-05	-1e-05	1e-05	-2e-05	0.00017	-4e-05	0.00099	6
28271	0.00015	-3e-05	-1e-05	1e-05	-2e-05	0.00017	-4e-05	0.00099	6
28272	-8e-05	-1e-05	-0.0001	-0.0001	-0.00026	0.00024	1e-05	-0.00039	6
28273	0	3e-05	-6e-05	6e-05	0	2e-05	0.00013	0.00045	6
28274	0	3e-05	-6e-05	6e-05	0	2e-05	0.00013	0.00045	6
28275	0	3e-05	-6e-05	6e-05	0	2e-05	0.00013	0.00045	6
28276	0	3e-05	-6e-05	6e-05	0	2e-05	0.00013	0.00045	6
28277	0	3e-05	-6e-05	6e-05	0	2e-05	0.00013	0.00045	6
28278	0	3e-05	-6e-05	6e-05	0	2e-05	0.00013	0.00045	6
28279	0	3e-05	-6e-05	6e-05	0	2e-05	0.00013	0.00045	6
28280	0	3e-05	-6e-05	6e-05	0	2e-05	0.00013	0.00045	6
28281	0	3e-05	-6e-05	6e-05	0	2e-05	0.00013	0.00045	6
28282	0	3e-05	-6e-05	6e-05	0	2e-05	0.00013	0.00045	6
28283	0	3e-05	-6e-05	6e-05	0	2e-05	0.00013	0.00045	6
28284	0	3e-05	-6e-05	6e-05	0	2e-05	0.00013	0.00045	6
28285	0	3e-05	-6e-05	6e-05	0	2e-05	0.00013	0.00045	6
28286	0	3e-05	-6e-05	6e-05	0	2e-05	0.00013	0.00045	6
28288	0	3e-05	-6e-05	6e-05	0	2e-05	0.00013	0.00045	6
28289	0	3e-05	-6e-05	6e-05	0	2e-05	0.00013	0.00045	6
28290	0	3e-05	-6e-05	6e-05	0	2e-05	0.00013	0.00045	6
28291	0	3e-05	-6e-05	6e-05	0	2e-05	0.00013	0.00045	6
28292	0	3e-05	-6e-05	6e-05	0	2e-05	0.00013	0.00045	6
28293	0	3e-05	-6e-05	6e-05	0	2e-05	0.00013	0.00045	6
28294	2e-05	-1e-05	1e-05	-8e-05	-0.00024	0.00019	3e-05	0.00014	6
28295	2e-05	-1e-05	1e-05	-8e-05	-0.00024	0.00019	3e-05	0.00014	6
28296	-9e-05	4e-05	2e-05	6e-05	-9e-05	0.00048	0.00017	-0.0008	6
28297	-9e-05	4e-05	2e-05	6e-05	-9e-05	0.00048	0.00017	-0.0008	6
28298	-9e-05	4e-05	2e-05	6e-05	-9e-05	0.00048	0.00017	-0.0008	6
28299	-9e-05	4e-05	2e-05	6e-05	-9e-05	0.00048	0.00017	-0.0008	6
28300	-9e-05	4e-05	2e-05	6e-05	-9e-05	0.00048	0.00017	-0.0008	6
28301	-9e-05	4e-05	2e-05	6e-05	-9e-05	0.00048	0.00017	-0.0008	6
28302	-9e-05	4e-05	2e-05	6e-05	-9e-05	0.00048	0.00017	-0.0008	6
28303	-9e-05	4e-05	2e-05	6e-05	-9e-05	0.00048	0.00017	-0.0008	6
28304	-9e-05	4e-05	2e-05	6e-05	-9e-05	0.00048	0.00017	-0.0008	6
28305	-9e-05	4e-05	2e-05	6e-05	-9e-05	0.00048	0.00017	-0.0008	6
28306	-9e-05	4e-05	2e-05	6e-05	-9e-05	0.00048	0.00017	-0.0008	6
28307	-9e-05	4e-05	2e-05	6e-05	-9e-05	0.00048	0.00017	-0.0008	6
28308	0.0003	3e-05	2e-05	8e-05	2e-05	0.00013	6e-05	0.00021	6
28309	0.0003	3e-05	2e-05	8e-05	2e-05	0.00013	6e-05	0.00021	6
28310	0.0003	3e-05	2e-05	8e-05	2e-05	0.00013	6e-05	0.00021	6
28311	0.0003	3e-05	2e-05	8e-05	2e-05	0.00013	6e-05	0.00021	6
28312	0.0003	3e-05	2e-05	8e-05	2e-05	0.00013	6e-05	0.00021	6
28313	0.0003	3e-05	2e-05	8e-05	2e-05	0.00013	6e-05	0.00021	6
28314	0.0003	3e-05	2e-05	8e-05	2e-05	0.00013	6e-05	0.00021	6
28315	1e-05	1e-05	-1e-05	-5e-05	1e-05	0.00024	0.00013	-0.00028	6
28316	1e-05	1e-05	-1e-05	-5e-05	1e-05	0.00024	0.00013	-0.00028	6
28317	1e-05	1e-05	-1e-05	-5e-05	1e-05	0.00024	0.00013	-0.00028	6
28318	1e-05	1e-05	-1e-05	-5e-05	1e-05	0.00024	0.00013	-0.00028	6
28319	1e-05	1e-05	-1e-05	-5e-05	1e-05	0.00024	0.00013	-0.00028	6
28320	1e-05	1e-05	-1e-05	-5e-05	1e-05	0.00024	0.00013	-0.00028	6
28321	1e-05	1e-05	-1e-05	-5e-05	1e-05	0.00024	0.00013	-0.00028	6
28322	1e-05	1e-05	-1e-05	-5e-05	1e-05	0.00024	0.00013	-0.00028	6
28323	1e-05	1e-05	-1e-05	-5e-05	1e-05	0.00024	0.00013	-0.00028	6
28324	1e-05	1e-05	-1e-05	-5e-05	1e-05	0.00024	0.00013	-0.00028	6
28325	1e-05	1e-05	-1e-05	-5e-05	1e-05	0.00024	0.00013	-0.00028	6
28326	1e-05	1e-05	-1e-05	-5e-05	1e-05	0.00024	0.00013	-0.00028	6
28327	1e-05	1e-05	-1e-05	-5e-05	1e-05	0.00024	0.00013	-0.00028	6
28328	1e-05	1e-05	-1e-05	-5e-05	1e-05	0.00024	0.00013	-0.00028	6
28329	1e-05	1e-05	-1e-05	-5e-05	1e-05	0.00024	0.00013	-0.00028	6
28330	1e-05	1e-05	-1e-05	-5e-05	1e-05	0.00024	0.00013	-0.00028	6
28331	1e-05	1e-05	-1e-05	-5e-05	1e-05	0.00024	0.00013	-0.00028	6
28332	-9e-05	0	5e-05	6e-05	0.00026	-0.00025	-7e-05	-0.00021	6
28333	5e-05	-1e-05	-4e-05	-6e-05	0.00036	-0.00034	-9e-05	6e-05	6
28334	5e-05	-1e-05	-4e-05	-6e-05	0.00036	-0.00034	-9e-05	6e-05	6
28335	5e-05	-1e-05	-4e-05	-6e-05	0.00036	-0.00034	-9e-05	6e-05	6
28336	5e-05	-1e-05	-4e-05	-6e-05	0.00036	-0.00034	-9e-05	6e-05	6
28338	5e-05	-1e-05	-4e-05	-6e-05	0.00036	-0.00034	-9e-05	6e-05	6
28339	5e-05	-1e-05	-4e-05	-6e-05	0.00036	-0.00034	-9e-05	6e-05	6
28340	5e-05	-1e-05	-4e-05	-6e-05	0.00036	-0.00034	-9e-05	6e-05	6
28341	5e-05	-1e-05	-4e-05	-6e-05	0.00036	-0.00034	-9e-05	6e-05	6
28342	5e-05	-1e-05	-4e-05	-6e-05	0.00036	-0.00034	-9e-05	6e-05	6
28343	5e-05	-1e-05	-4e-05	-6e-05	0.00036	-0.00034	-9e-05	6e-05	6
28344	5e-05	-1e-05	-4e-05	-6e-05	0.00036	-0.00034	-9e-05	6e-05	6
28345	5e-05	-1e-05	-4e-05	-6e-05	0.00036	-0.00034	-9e-05	6e-05	6
28346	5e-05	-1e-05	-4e-05	-6e-05	0.00036	-0.00034	-9e-05	6e-05	6
28347	5e-05	-1e-05	-4e-05	-6e-05	0.00036	-0.00034	-9e-05	6e-05	6
28348	5e-05	-1e-05	-4e-05	-6e-05	0.00036	-0.00034	-9e-05	6e-05	6
28349	5e-05	-1e-05	-4e-05	-6e-05	0.00036	-0.00034	-9e-05	6e-05	6
28350	5e-05	-1e-05	-4e-05	-6e-05	0.00036	-0.00034	-9e-05	6e-05	6
28351	5e-05	-1e-05	-4e-05	-6e-05	0.00036	-0.00034	-9e-05	6e-05	6
28352	5e-05	-1e-05	-4e-05	-6e-05	0.00036	-0.00034	-9e-05	6e-05	6
28353	5e-05	-1e-05	-4e-05	-6e-05	0.00036	-0.00034	-9e-05	6e-05	6
28354	-9e-05	2e-05	7e-05	8e-05	0.0005	-0.00076	3e-05	-0.00046	6
28355	-9e-05	2e-05	7e-05	8e-05	0.0005	-0.00076	3e-05	-0.00046	6
28356	-4e-05	1e-05	2e-05	-2e-05	-0.00026	0.00057	-2e-05	-0.00029	6
28357	-4e-05	1e-05	2e-05	-2e-05	-0.00026	0.00057	-2e-05	-0.00029	6
28358	-4e-05	1e-05	2e-05	-2e-05	-0.00026	0.00057	-2e-05	-0.00029	6
28359	-4e-05	1e-05	2e-05	-2e-05	-0.00026	0.00057	-2e-05	-0.00029	6
28360	-4e-05	1e-05	2e-05	-2e-05	-0.00026	0.00057	-2e-05	-0.00029	6
28361	-4e-05	1e-05	2e-05	-2e-05	-0.00026	0.00057	-2e-05	-0.00029	6
28362	-4e-05	1e-05	2e-05	-2e-05	-0.00026	0.00057	-2e-05	-0.00029	6
28363	-4e-05	1e-05	2e-05	-2e-05	-0.00026	0.00057	-2e-05	-0.00029	6
28364	-4e-05	1e-05	2e-05	-2e-05	-0.00026	0.00057	-2e-05	-0.00029	6
28365	-4e-05	1e-05	2e-05	-2e-05	-0.00026	0.00057	-2e-05	-0.00029	6
28366	-4e-05	1e-05	2e-05	-2e-05	-0.00026	0.00057	-2e-05	-0.00029	6
28367	-4e-05	1e-05	2e-05	-2e-05	-0.00026	0.00057	-2e-05	-0.00029	6
28368	-6e-05	3e-05	5e-05	-6e-05	-0.00012	-0.00014	7e-05	1e-05	6
28369	0.00018	-4e-05	-2e-05	-8e-05	-4e-05	0.00044	-0.00011	0.00091	6
28370	0.00018	-4e-05	-2e-05	-8e-05	-4e-05	0.00044	-0.00011	0.00091	6
28371	0.00018	-4e-05	-2e-05	-8e-05	-4e-05	0.00044	-0.00011	0.00091	6
28372	0.00018	-4e-05	-2e-05	-8e-05	-4e-05	0.00044	-0.00011	0.00091	6
28373	0.00018	-4e-05	-2e-05	-8e-05	-4e-05	0.00044	-0.00011	0.00091	6
28374	0.00018	-4e-05	-2e-05	-8e-05	-4e-05	0.00044	-0.00011	0.00091	6
28375	0.00012	1e-05	2e-05	-3e-05	-0.00048	-0.00054	-7e-05	0.00081	6
28376	-8e-05	-2e-05	-2e-05	7e-05	0.00043	-0.00037	-1e-05	-0.00025	6
28377	-8e-05	-2e-05	-2e-05	7e-05	0.00043	-0.00037	-1e-05	-0.00025	6
28378	-8e-05	-2e-05	-2e-05	7e-05	0.00043	-0.00037	-1e-05	-0.00025	6
28379	-8e-05	-2e-05	-2e-05	7e-05	0.00043	-0.00037	-1e-05	-0.00025	6
28380	-8e-05	-2e-05	-2e-05	7e-05	0.00043	-0.00037	-1e-05	-0.00025	6
28381	-8e-05	-2e-05	-2e-05	7e-05	0.00043	-0.00037	-1e-05	-0.00025	6
28382	-8e-05	-2e-05	-2e-05	7e-05	0.00043	-0.00037	-1e-05	-0.00025	6
28383	-8e-05	-2e-05	-2e-05	7e-05	0.00043	-0.00037	-1e-05	-0.00025	6
28384	-8e-05	-2e-05	-2e-05	7e-05	0.00043	-0.00037	-1e-05	-0.00025	6
28385	-8e-05	-2e-05	-2e-05	7e-05	0.00043	-0.00037	-1e-05	-0.00025	6
28386	-8e-05	-2e-05	-2e-05	7e-05	0.00043	-0.00037	-1e-05	-0.00025	6
28388	-8e-05	-2e-05	-2e-05	7e-05	0.00043	-0.00037	-1e-05	-0.00025	6
28389	-8e-05	-2e-05	-2e-05	7e-05	0.00043	-0.00037	-1e-05	-0.00025	6
28390	-8e-05	-2e-05	-2e-05	7e-05	0.00043	-0.00037	-1e-05	-0.00025	6
28391	-8e-05	-2e-05	-2e-05	7e-05	0.00043	-0.00037	-1e-05	-0.00025	6
28392	-7e-05	0	-6e-05	-7e-05	-0.00024	8e-05	-0.0004	-0.00048	6
28393	9e-05	1e-05	2e-05	-4e-05	-0.0004	-0.0002	0.0001	0.00021	6
28394	9e-05	1e-05	2e-05	-4e-05	-0.0004	-0.0002	0.0001	0.00021	6
28395	9e-05	1e-05	2e-05	-4e-05	-0.0004	-0.0002	0.0001	0.00021	6
28396	9e-05	1e-05	2e-05	-4e-05	-0.0004	-0.0002	0.0001	0.00021	6
28397	9e-05	1e-05	2e-05	-4e-05	-0.0004	-0.0002	0.0001	0.00021	6
28398	9e-05	1e-05	2e-05	-4e-05	-0.0004	-0.0002	0.0001	0.00021	6
28399	9e-05	1e-05	2e-05	-4e-05	-0.0004	-0.0002	0.0001	0.00021	6
28400	9e-05	1e-05	2e-05	-4e-05	-0.0004	-0.0002	0.0001	0.00021	6
28401	9e-05	1e-05	2e-05	-4e-05	-0.0004	-0.0002	0.0001	0.00021	6
28402	9e-05	1e-05	2e-05	-4e-05	-0.0004	-0.0002	0.0001	0.00021	6
28403	9e-05	1e-05	2e-05	-4e-05	-0.0004	-0.0002	0.0001	0.00021	6
28404	9e-05	1e-05	2e-05	-4e-05	-0.0004	-0.0002	0.0001	0.00021	6
28405	9e-05	1e-05	2e-05	-4e-05	-0.0004	-0.0002	0.0001	0.00021	6
28406	9e-05	1e-05	2e-05	-4e-05	-0.0004	-0.0002	0.0001	0.00021	6
28407	9e-05	1e-05	2e-05	-4e-05	-0.0004	-0.0002	0.0001	0.00021	6
28408	9e-05	1e-05	2e-05	-4e-05	-0.0004	-0.0002	0.0001	0.00021	6
28409	9e-05	1e-05	2e-05	-4e-05	-0.0004	-0.0002	0.0001	0.00021	6
28410	9e-05	1e-05	2e-05	-4e-05	-0.0004	-0.0002	0.0001	0.00021	6
28411	9e-05	1e-05	2e-05	-4e-05	-0.0004	-0.0002	0.0001	0.00021	6
28412	9e-05	1e-05	2e-05	-4e-05	-0.0004	-0.0002	0.0001	0.00021	6
28413	9e-05	1e-05	2e-05	-4e-05	-0.0004	-0.0002	0.0001	0.00021	6
28414	-0.00014	-6e-05	-6e-05	-3e-05	-0.00021	0.00054	0.00013	-0.00057	6
28415	-0.00014	-6e-05	-6e-05	-3e-05	-0.00021	0.00054	0.00013	-0.00057	6
28416	-2e-05	1e-05	7e-05	8e-05	0.00012	-0.00022	-1e-05	0.00012	6
28417	-2e-05	1e-05	7e-05	8e-05	0.00012	-0.00022	-1e-05	0.00012	6
28418	-2e-05	1e-05	7e-05	8e-05	0.00012	-0.00022	-1e-05	0.00012	6
28419	-2e-05	1e-05	7e-05	8e-05	0.00012	-0.00022	-1e-05	0.00012	6
28420	-2e-05	1e-05	7e-05	8e-05	0.00012	-0.00022	-1e-05	0.00012	6
28421	-2e-05	1e-05	7e-05	8e-05	0.00012	-0.00022	-1e-05	0.00012	6
28422	-2e-05	1e-05	7e-05	8e-05	0.00012	-0.00022	-1e-05	0.00012	6
28423	-2e-05	1e-05	7e-05	8e-05	0.00012	-0.00022	-1e-05	0.00012	6
28424	-2e-05	1e-05	7e-05	8e-05	0.00012	-0.00022	-1e-05	0.00012	6
28425	-2e-05	1e-05	7e-05	8e-05	0.00012	-0.00022	-1e-05	0.00012	6
28426	-2e-05	1e-05	7e-05	8e-05	0.00012	-0.00022	-1e-05	0.00012	6
28427	-2e-05	1e-05	7e-05	8e-05	0.00012	-0.00022	-1e-05	0.00012	6
28428	-4e-05	2e-05	3e-05	2e-05	-0.00045	1e-05	0.00014	-0.00029	6
28429	-4e-05	2e-05	3e-05	2e-05	-0.00045	1e-05	0.00014	-0.00029	6
28430	-4e-05	2e-05	3e-05	2e-05	-0.00045	1e-05	0.00014	-0.00029	6
28431	-4e-05	2e-05	3e-05	2e-05	-0.00045	1e-05	0.00014	-0.00029	6
28432	-4e-05	2e-05	3e-05	2e-05	-0.00045	1e-05	0.00014	-0.00029	6
28433	-4e-05	2e-05	3e-05	2e-05	-0.00045	1e-05	0.00014	-0.00029	6
28434	-4e-05	2e-05	3e-05	2e-05	-0.00045	1e-05	0.00014	-0.00029	6
28435	-4e-05	2e-05	3e-05	2e-05	-0.00045	1e-05	0.00014	-0.00029	6
28436	-4e-05	2e-05	3e-05	2e-05	-0.00045	1e-05	0.00014	-0.00029	6
28438	-5e-05	-1e-05	-4e-05	-9e-05	-0.00033	-0.00028	-7e-05	-8e-05	6
28439	-5e-05	-1e-05	-4e-05	-9e-05	-0.00033	-0.00028	-7e-05	-8e-05	6
28440	-5e-05	-1e-05	-4e-05	-9e-05	-0.00033	-0.00028	-7e-05	-8e-05	6
28441	-5e-05	-1e-05	-4e-05	-9e-05	-0.00033	-0.00028	-7e-05	-8e-05	6
28442	-5e-05	-1e-05	-4e-05	-9e-05	-0.00033	-0.00028	-7e-05	-8e-05	6
28443	-5e-05	-1e-05	-4e-05	-9e-05	-0.00033	-0.00028	-7e-05	-8e-05	6
28444	-5e-05	-1e-05	-4e-05	-9e-05	-0.00033	-0.00028	-7e-05	-8e-05	6
28445	-5e-05	-1e-05	-4e-05	-9e-05	-0.00033	-0.00028	-7e-05	-8e-05	6
28446	-5e-05	-1e-05	-4e-05	-9e-05	-0.00033	-0.00028	-7e-05	-8e-05	6
28447	-5e-05	-1e-05	-4e-05	-9e-05	-0.00033	-0.00028	-7e-05	-8e-05	6
28448	-5e-05	-1e-05	-4e-05	-9e-05	-0.00033	-0.00028	-7e-05	-8e-05	6
28449	-5e-05	-1e-05	-4e-05	-9e-05	-0.00033	-0.00028	-7e-05	-8e-05	6
28450	-5e-05	-1e-05	-4e-05	-9e-05	-0.00033	-0.00028	-7e-05	-8e-05	6
28451	-5e-05	-1e-05	-4e-05	-9e-05	-0.00033	-0.00028	-7e-05	-8e-05	6
28452	-0.00018	-2e-05	-5e-05	-6e-05	-0.00031	-0.00089	3e-05	-0.00028	6
28453	-8e-05	8e-05	0	-2e-05	-0.00011	-0.00037	3e-05	-0.00032	6
28454	-8e-05	8e-05	0	-2e-05	-0.00011	-0.00037	3e-05	-0.00032	6
28455	-8e-05	8e-05	0	-2e-05	-0.00011	-0.00037	3e-05	-0.00032	6
28456	-8e-05	8e-05	0	-2e-05	-0.00011	-0.00037	3e-05	-0.00032	6
28457	-8e-05	8e-05	0	-2e-05	-0.00011	-0.00037	3e-05	-0.00032	6
28458	-8e-05	8e-05	0	-2e-05	-0.00011	-0.00037	3e-05	-0.00032	6
28459	-8e-05	8e-05	0	-2e-05	-0.00011	-0.00037	3e-05	-0.00032	6
28460	-8e-05	8e-05	0	-2e-05	-0.00011	-0.00037	3e-05	-0.00032	6
28461	-8e-05	8e-05	0	-2e-05	-0.00011	-0.00037	3e-05	-0.00032	6
28462	-8e-05	8e-05	0	-2e-05	-0.00011	-0.00037	3e-05	-0.00032	6
28463	-8e-05	8e-05	0	-2e-05	-0.00011	-0.00037	3e-05	-0.00032	6
28464	-8e-05	8e-05	0	-2e-05	-0.00011	-0.00037	3e-05	-0.00032	6
28465	-8e-05	8e-05	0	-2e-05	-0.00011	-0.00037	3e-05	-0.00032	6
28466	-8e-05	8e-05	0	-2e-05	-0.00011	-0.00037	3e-05	-0.00032	6
28467	-8e-05	8e-05	0	-2e-05	-0.00011	-0.00037	3e-05	-0.00032	6
28468	-8e-05	8e-05	0	-2e-05	-0.00011	-0.00037	3e-05	-0.00032	6
28469	-8e-05	8e-05	0	-2e-05	-0.00011	-0.00037	3e-05	-0.00032	6
28470	-8e-05	8e-05	0	-2e-05	-0.00011	-0.00037	3e-05	-0.00032	6
28471	-8e-05	8e-05	0	-2e-05	-0.00011	-0.00037	3e-05	-0.00032	6
28472	-8e-05	8e-05	0	-2e-05	-0.00011	-0.00037	3e-05	-0.00032	6
28473	-8e-05	8e-05	0	-2e-05	-0.00011	-0.00037	3e-05	-0.00032	6
28474	-0.00018	2e-05	2e-05	7e-05	0.00068	0.00048	6e-05	-0.00099	6
28475	-0.00018	2e-05	2e-05	7e-05	0.00068	0.00048	6e-05	-0.00099	6
28476	-6e-05	-7e-05	-2e-05	3e-05	0.00051	-8e-05	-0.0001	-0.00069	6
28477	-6e-05	-7e-05	-2e-05	3e-05	0.00051	-8e-05	-0.0001	-0.00069	6
28478	-6e-05	-7e-05	-2e-05	3e-05	0.00051	-8e-05	-0.0001	-0.00069	6
28479	-6e-05	-7e-05	-2e-05	3e-05	0.00051	-8e-05	-0.0001	-0.00069	6
28480	-6e-05	-7e-05	-2e-05	3e-05	0.00051	-8e-05	-0.0001	-0.00069	6
28481	-6e-05	-7e-05	-2e-05	3e-05	0.00051	-8e-05	-0.0001	-0.00069	6
28482	-6e-05	-7e-05	-2e-05	3e-05	0.00051	-8e-05	-0.0001	-0.00069	6
28483	-6e-05	-7e-05	-2e-05	3e-05	0.00051	-8e-05	-0.0001	-0.00069	6
28484	-6e-05	-7e-05	-2e-05	3e-05	0.00051	-8e-05	-0.0001	-0.00069	6
28485	-6e-05	-7e-05	-2e-05	3e-05	0.00051	-8e-05	-0.0001	-0.00069	6
28486	-6e-05	-7e-05	-2e-05	3e-05	0.00051	-8e-05	-0.0001	-0.00069	6
28488	3e-05	-6e-05	4e-05	0.00011	0.0004	6e-05	-8e-05	7e-05	6
28489	3e-05	-6e-05	4e-05	0.00011	0.0004	6e-05	-8e-05	7e-05	6
28490	3e-05	-6e-05	4e-05	0.00011	0.0004	6e-05	-8e-05	7e-05	6
28491	3e-05	-6e-05	4e-05	0.00011	0.0004	6e-05	-8e-05	7e-05	6
28492	3e-05	-6e-05	4e-05	0.00011	0.0004	6e-05	-8e-05	7e-05	6
28493	3e-05	-6e-05	4e-05	0.00011	0.0004	6e-05	-8e-05	7e-05	6
28494	3e-05	-6e-05	4e-05	0.00011	0.0004	6e-05	-8e-05	7e-05	6
28495	3e-05	-6e-05	4e-05	0.00011	0.0004	6e-05	-8e-05	7e-05	6
28496	3e-05	-6e-05	4e-05	0.00011	0.0004	6e-05	-8e-05	7e-05	6
28497	-1e-05	-6e-05	0	-4e-05	-0.00037	-0.00017	-0.00012	0	6
28498	-1e-05	-6e-05	0	-4e-05	-0.00037	-0.00017	-0.00012	0	6
28499	-1e-05	-6e-05	0	-4e-05	-0.00037	-0.00017	-0.00012	0	6
28500	-1e-05	-6e-05	0	-4e-05	-0.00037	-0.00017	-0.00012	0	6
28501	-1e-05	-6e-05	0	-4e-05	-0.00037	-0.00017	-0.00012	0	6
28502	-1e-05	-6e-05	0	-4e-05	-0.00037	-0.00017	-0.00012	0	6
28503	-1e-05	-6e-05	0	-4e-05	-0.00037	-0.00017	-0.00012	0	6
28504	-1e-05	-6e-05	0	-4e-05	-0.00037	-0.00017	-0.00012	0	6
28505	-1e-05	-6e-05	0	-4e-05	-0.00037	-0.00017	-0.00012	0	6
28506	-1e-05	-6e-05	0	-4e-05	-0.00037	-0.00017	-0.00012	0	6
28507	-1e-05	-6e-05	0	-4e-05	-0.00037	-0.00017	-0.00012	0	6
28508	-1e-05	-6e-05	0	-4e-05	-0.00037	-0.00017	-0.00012	0	6
28509	-1e-05	-6e-05	0	-4e-05	-0.00037	-0.00017	-0.00012	0	6
28510	-1e-05	-6e-05	0	-4e-05	-0.00037	-0.00017	-0.00012	0	6
28511	-1e-05	-6e-05	0	-4e-05	-0.00037	-0.00017	-0.00012	0	6
28512	0.00011	1e-05	-1e-05	-6e-05	6e-05	0.00086	4e-05	0.00028	6
28513	6e-05	-3e-05	-5e-05	-0.00016	-0.00056	-0.00084	-8e-05	0.00036	6
28514	6e-05	-3e-05	-5e-05	-0.00016	-0.00056	-0.00084	-8e-05	0.00036	6
28515	6e-05	-3e-05	-5e-05	-0.00016	-0.00056	-0.00084	-8e-05	0.00036	6
28516	6e-05	-3e-05	-5e-05	-0.00016	-0.00056	-0.00084	-8e-05	0.00036	6
28517	6e-05	-3e-05	-5e-05	-0.00016	-0.00056	-0.00084	-8e-05	0.00036	6
28518	6e-05	-3e-05	-5e-05	-0.00016	-0.00056	-0.00084	-8e-05	0.00036	6
28519	6e-05	-3e-05	-5e-05	-0.00016	-0.00056	-0.00084	-8e-05	0.00036	6
28520	6e-05	-3e-05	-5e-05	-0.00016	-0.00056	-0.00084	-8e-05	0.00036	6
28521	6e-05	-3e-05	-5e-05	-0.00016	-0.00056	-0.00084	-8e-05	0.00036	6
28522	6e-05	-3e-05	-5e-05	-0.00016	-0.00056	-0.00084	-8e-05	0.00036	6
28523	6e-05	-3e-05	-5e-05	-0.00016	-0.00056	-0.00084	-8e-05	0.00036	6
28524	6e-05	-3e-05	-5e-05	-0.00016	-0.00056	-0.00084	-8e-05	0.00036	6
28525	6e-05	-3e-05	-5e-05	-0.00016	-0.00056	-0.00084	-8e-05	0.00036	6
28526	6e-05	-3e-05	-5e-05	-0.00016	-0.00056	-0.00084	-8e-05	0.00036	6
28527	6e-05	-3e-05	-5e-05	-0.00016	-0.00056	-0.00084	-8e-05	0.00036	6
28528	6e-05	-3e-05	-5e-05	-0.00016	-0.00056	-0.00084	-8e-05	0.00036	6
28529	6e-05	-3e-05	-5e-05	-0.00016	-0.00056	-0.00084	-8e-05	0.00036	6
28530	6e-05	-3e-05	-5e-05	-0.00016	-0.00056	-0.00084	-8e-05	0.00036	6
28531	6e-05	-3e-05	-5e-05	-0.00016	-0.00056	-0.00084	-8e-05	0.00036	6
28532	6e-05	-3e-05	-5e-05	-0.00016	-0.00056	-0.00084	-8e-05	0.00036	6
28533	6e-05	-3e-05	-5e-05	-0.00016	-0.00056	-0.00084	-8e-05	0.00036	6
28534	3e-05	3e-05	-1e-05	6e-05	-0.00027	0.00012	-6e-05	0.00015	6
28535	3e-05	3e-05	-1e-05	6e-05	-0.00027	0.00012	-6e-05	0.00015	6
28536	-0.00029	-7e-05	-8e-05	-0.00015	-0.00028	0.00027	-5e-05	-0.00062	6
28538	-0.00029	-7e-05	-8e-05	-0.00015	-0.00028	0.00027	-5e-05	-0.00062	6
28539	-0.00029	-7e-05	-8e-05	-0.00015	-0.00028	0.00027	-5e-05	-0.00062	6
28540	-0.00029	-7e-05	-8e-05	-0.00015	-0.00028	0.00027	-5e-05	-0.00062	6
28541	-0.00029	-7e-05	-8e-05	-0.00015	-0.00028	0.00027	-5e-05	-0.00062	6
28542	-0.00029	-7e-05	-8e-05	-0.00015	-0.00028	0.00027	-5e-05	-0.00062	6
28543	-0.00029	-7e-05	-8e-05	-0.00015	-0.00028	0.00027	-5e-05	-0.00062	6
28544	-0.00029	-7e-05	-8e-05	-0.00015	-0.00028	0.00027	-5e-05	-0.00062	6
28545	-0.00029	-7e-05	-8e-05	-0.00015	-0.00028	0.00027	-5e-05	-0.00062	6
28546	-0.00029	-7e-05	-8e-05	-0.00015	-0.00028	0.00027	-5e-05	-0.00062	6
28547	-0.00029	-7e-05	-8e-05	-0.00015	-0.00028	0.00027	-5e-05	-0.00062	6
28548	9e-05	-1e-05	1e-05	0.0001	-0.00011	-0.00037	0	-0.00025	6
28549	9e-05	-1e-05	1e-05	0.0001	-0.00011	-0.00037	0	-0.00025	6
28550	9e-05	-1e-05	1e-05	0.0001	-0.00011	-0.00037	0	-0.00025	6
28551	9e-05	-1e-05	1e-05	0.0001	-0.00011	-0.00037	0	-0.00025	6
28552	9e-05	-1e-05	1e-05	0.0001	-0.00011	-0.00037	0	-0.00025	6
28553	9e-05	-1e-05	1e-05	0.0001	-0.00011	-0.00037	0	-0.00025	6
28554	9e-05	-1e-05	1e-05	0.0001	-0.00011	-0.00037	0	-0.00025	6
28555	9e-05	-1e-05	1e-05	0.0001	-0.00011	-0.00037	0	-0.00025	6
28556	9e-05	-1e-05	1e-05	0.0001	-0.00011	-0.00037	0	-0.00025	6
28557	0.00011	0	0	5e-05	0.0001	0	-1e-05	4e-05	6
28558	0.00011	0	0	5e-05	0.0001	0	-1e-05	4e-05	6
28559	0.00011	0	0	5e-05	0.0001	0	-1e-05	4e-05	6
28560	0.00011	0	0	5e-05	0.0001	0	-1e-05	4e-05	6
28561	0.00011	0	0	5e-05	0.0001	0	-1e-05	4e-05	6
28562	0.00011	0	0	5e-05	0.0001	0	-1e-05	4e-05	6
28563	0.00011	0	0	5e-05	0.0001	0	-1e-05	4e-05	6
28564	0.00011	0	0	5e-05	0.0001	0	-1e-05	4e-05	6
28565	0.00011	0	0	5e-05	0.0001	0	-1e-05	4e-05	6
28566	0.00011	0	0	5e-05	0.0001	0	-1e-05	4e-05	6
28567	0.00011	0	0	5e-05	0.0001	0	-1e-05	4e-05	6
28568	0.00011	0	0	5e-05	0.0001	0	-1e-05	4e-05	6
28569	0.00011	0	0	5e-05	0.0001	0	-1e-05	4e-05	6
28570	0.00011	0	0	5e-05	0.0001	0	-1e-05	4e-05	6
28571	0.00011	0	0	5e-05	0.0001	0	-1e-05	4e-05	6
28572	-5e-05	1e-05	-2e-05	-4e-05	0.00013	0.00061	0.00012	0.00012	6
28573	0.00019	3e-05	1e-05	-2e-05	-0.0001	9e-05	9e-05	0.00108	6
28574	0.00019	3e-05	1e-05	-2e-05	-0.0001	9e-05	9e-05	0.00108	6
28575	0.00019	3e-05	1e-05	-2e-05	-0.0001	9e-05	9e-05	0.00108	6
28576	0.00019	3e-05	1e-05	-2e-05	-0.0001	9e-05	9e-05	0.00108	6
28577	0.00019	3e-05	1e-05	-2e-05	-0.0001	9e-05	9e-05	0.00108	6
28578	0.00019	3e-05	1e-05	-2e-05	-0.0001	9e-05	9e-05	0.00108	6
28579	0.00019	3e-05	1e-05	-2e-05	-0.0001	9e-05	9e-05	0.00108	6
28580	0.00019	3e-05	1e-05	-2e-05	-0.0001	9e-05	9e-05	0.00108	6
28581	0.00019	3e-05	1e-05	-2e-05	-0.0001	9e-05	9e-05	0.00108	6
28582	0.00019	3e-05	1e-05	-2e-05	-0.0001	9e-05	9e-05	0.00108	6
28583	0.00019	3e-05	1e-05	-2e-05	-0.0001	9e-05	9e-05	0.00108	6
28584	0.00019	3e-05	1e-05	-2e-05	-0.0001	9e-05	9e-05	0.00108	6
28585	0.00019	3e-05	1e-05	-2e-05	-0.0001	9e-05	9e-05	0.00108	6
28586	0.00019	3e-05	1e-05	-2e-05	-0.0001	9e-05	9e-05	0.00108	6
28588	0.00019	3e-05	1e-05	-2e-05	-0.0001	9e-05	9e-05	0.00108	6
28589	0.00019	3e-05	1e-05	-2e-05	-0.0001	9e-05	9e-05	0.00108	6
28590	0.00019	3e-05	1e-05	-2e-05	-0.0001	9e-05	9e-05	0.00108	6
28591	0.00019	3e-05	1e-05	-2e-05	-0.0001	9e-05	9e-05	0.00108	6
28592	0.00019	3e-05	1e-05	-2e-05	-0.0001	9e-05	9e-05	0.00108	6
28593	0.00019	3e-05	1e-05	-2e-05	-0.0001	9e-05	9e-05	0.00108	6
28594	2e-05	-1e-05	3e-05	8e-05	0.00025	0.00027	9e-05	0.0002	6
28595	2e-05	-1e-05	3e-05	8e-05	0.00025	0.00027	9e-05	0.0002	6
28596	2e-05	-1e-05	0	0.0001	0.00091	0.00017	0.00011	0.00052	6
28597	2e-05	-1e-05	0	0.0001	0.00091	0.00017	0.00011	0.00052	6
28598	2e-05	-1e-05	0	0.0001	0.00091	0.00017	0.00011	0.00052	6
28599	2e-05	-1e-05	0	0.0001	0.00091	0.00017	0.00011	0.00052	6
28600	2e-05	-1e-05	0	0.0001	0.00091	0.00017	0.00011	0.00052	6
28601	2e-05	-1e-05	0	0.0001	0.00091	0.00017	0.00011	0.00052	6
28602	2e-05	-1e-05	0	0.0001	0.00091	0.00017	0.00011	0.00052	6
28603	2e-05	-1e-05	0	0.0001	0.00091	0.00017	0.00011	0.00052	6
28604	2e-05	-1e-05	0	0.0001	0.00091	0.00017	0.00011	0.00052	6
28605	2e-05	-1e-05	0	0.0001	0.00091	0.00017	0.00011	0.00052	6
28606	2e-05	-1e-05	0	0.0001	0.00091	0.00017	0.00011	0.00052	6
28607	2e-05	-1e-05	0	0.0001	0.00091	0.00017	0.00011	0.00052	6
28608	-0.0001	3e-05	1e-05	-5e-05	-0.00026	-6e-05	-6e-05	-0.00037	6
28609	-0.0001	3e-05	1e-05	-5e-05	-0.00026	-6e-05	-6e-05	-0.00037	6
28610	-0.0001	3e-05	1e-05	-5e-05	-0.00026	-6e-05	-6e-05	-0.00037	6
28611	-0.0001	3e-05	1e-05	-5e-05	-0.00026	-6e-05	-6e-05	-0.00037	6
28612	-0.0001	3e-05	1e-05	-5e-05	-0.00026	-6e-05	-6e-05	-0.00037	6
28613	-0.0001	3e-05	1e-05	-5e-05	-0.00026	-6e-05	-6e-05	-0.00037	6
28614	-0.0001	3e-05	1e-05	-5e-05	-0.00026	-6e-05	-6e-05	-0.00037	6
28615	-0.0001	3e-05	1e-05	-5e-05	-0.00026	-6e-05	-6e-05	-0.00037	6
28616	-0.0001	3e-05	1e-05	-5e-05	-0.00026	-6e-05	-6e-05	-0.00037	6
28617	0.00045	0	1e-05	4e-05	-0.00015	-5e-05	0.00019	0.00041	6
28618	0.00045	0	1e-05	4e-05	-0.00015	-5e-05	0.00019	0.00041	6
28619	0.00045	0	1e-05	4e-05	-0.00015	-5e-05	0.00019	0.00041	6
28620	0.00045	0	1e-05	4e-05	-0.00015	-5e-05	0.00019	0.00041	6
28621	0.00045	0	1e-05	4e-05	-0.00015	-5e-05	0.00019	0.00041	6
28622	0.00045	0	1e-05	4e-05	-0.00015	-5e-05	0.00019	0.00041	6
28623	0.00045	0	1e-05	4e-05	-0.00015	-5e-05	0.00019	0.00041	6
28624	0.00045	0	1e-05	4e-05	-0.00015	-5e-05	0.00019	0.00041	6
28625	0.00045	0	1e-05	4e-05	-0.00015	-5e-05	0.00019	0.00041	6
28626	0.00045	0	1e-05	4e-05	-0.00015	-5e-05	0.00019	0.00041	6
28627	0.00045	0	1e-05	4e-05	-0.00015	-5e-05	0.00019	0.00041	6
28628	0.00045	0	1e-05	4e-05	-0.00015	-5e-05	0.00019	0.00041	6
28629	0.00045	0	1e-05	4e-05	-0.00015	-5e-05	0.00019	0.00041	6
28630	0.00045	0	1e-05	4e-05	-0.00015	-5e-05	0.00019	0.00041	6
28631	0.00045	0	1e-05	4e-05	-0.00015	-5e-05	0.00019	0.00041	6
28632	0.00043	1e-05	-4e-05	-0.00012	-0.00075	-0.00042	-6e-05	8e-05	6
28633	-4e-05	1e-05	-3e-05	-4e-05	-0.00068	-0.00062	-9e-05	-0.00027	6
28634	-4e-05	1e-05	-3e-05	-4e-05	-0.00068	-0.00062	-9e-05	-0.00027	6
28635	-4e-05	1e-05	-3e-05	-4e-05	-0.00068	-0.00062	-9e-05	-0.00027	6
28636	-4e-05	1e-05	-3e-05	-4e-05	-0.00068	-0.00062	-9e-05	-0.00027	6
28638	-4e-05	1e-05	-3e-05	-4e-05	-0.00068	-0.00062	-9e-05	-0.00027	6
28639	-4e-05	1e-05	-3e-05	-4e-05	-0.00068	-0.00062	-9e-05	-0.00027	6
28640	-4e-05	1e-05	-3e-05	-4e-05	-0.00068	-0.00062	-9e-05	-0.00027	6
28641	-4e-05	1e-05	-3e-05	-4e-05	-0.00068	-0.00062	-9e-05	-0.00027	6
28642	-4e-05	1e-05	-3e-05	-4e-05	-0.00068	-0.00062	-9e-05	-0.00027	6
28643	-4e-05	1e-05	-3e-05	-4e-05	-0.00068	-0.00062	-9e-05	-0.00027	6
28644	-4e-05	1e-05	-3e-05	-4e-05	-0.00068	-0.00062	-9e-05	-0.00027	6
28645	-4e-05	1e-05	-3e-05	-4e-05	-0.00068	-0.00062	-9e-05	-0.00027	6
28646	-4e-05	1e-05	-3e-05	-4e-05	-0.00068	-0.00062	-9e-05	-0.00027	6
28647	-4e-05	1e-05	-3e-05	-4e-05	-0.00068	-0.00062	-9e-05	-0.00027	6
28648	-4e-05	1e-05	-3e-05	-4e-05	-0.00068	-0.00062	-9e-05	-0.00027	6
28649	-4e-05	1e-05	-3e-05	-4e-05	-0.00068	-0.00062	-9e-05	-0.00027	6
28650	-4e-05	1e-05	-3e-05	-4e-05	-0.00068	-0.00062	-9e-05	-0.00027	6
28651	-4e-05	1e-05	-3e-05	-4e-05	-0.00068	-0.00062	-9e-05	-0.00027	6
28652	-4e-05	1e-05	-3e-05	-4e-05	-0.00068	-0.00062	-9e-05	-0.00027	6
28653	-4e-05	1e-05	-3e-05	-4e-05	-0.00068	-0.00062	-9e-05	-0.00027	6
28654	-0.00016	0	3e-05	-8e-05	-0.00017	-0.00075	-5e-05	0.00043	6
28655	-0.00016	0	3e-05	-8e-05	-0.00017	-0.00075	-5e-05	0.00043	6
28656	-0.00016	0	-1e-05	0	0.00033	0	-0.00015	-1e-05	6
28658	-0.00016	0	-1e-05	0	0.00033	0	-0.00015	-1e-05	6
28659	-0.00016	0	-1e-05	0	0.00033	0	-0.00015	-1e-05	6
28660	-0.00016	0	-1e-05	0	0.00033	0	-0.00015	-1e-05	6
28661	-0.00016	0	-1e-05	0	0.00033	0	-0.00015	-1e-05	6
28662	-0.00016	0	-1e-05	0	0.00033	0	-0.00015	-1e-05	6
28663	-0.00016	0	-1e-05	0	0.00033	0	-0.00015	-1e-05	6
28664	-0.00016	0	-1e-05	0	0.00033	0	-0.00015	-1e-05	6
28665	-0.00016	0	-1e-05	0	0.00033	0	-0.00015	-1e-05	6
28666	-0.00016	0	-1e-05	0	0.00033	0	-0.00015	-1e-05	6
28667	-0.00016	0	-1e-05	0	0.00033	0	-0.00015	-1e-05	6
28668	-0.0002	0	-1e-05	-4e-05	0.00011	-0.00011	3e-05	-0.00017	6
28669	-0.0002	0	-1e-05	-4e-05	0.00011	-0.00011	3e-05	-0.00017	6
28670	-0.0002	0	-1e-05	-4e-05	0.00011	-0.00011	3e-05	-0.00017	6
28671	-0.0002	0	-1e-05	-4e-05	0.00011	-0.00011	3e-05	-0.00017	6
28672	-0.0002	0	-1e-05	-4e-05	0.00011	-0.00011	3e-05	-0.00017	6
28673	-0.0002	0	-1e-05	-4e-05	0.00011	-0.00011	3e-05	-0.00017	6
28674	-0.0002	0	-1e-05	-4e-05	0.00011	-0.00011	3e-05	-0.00017	6
28675	-0.0002	0	-1e-05	-4e-05	0.00011	-0.00011	3e-05	-0.00017	6
28676	-0.0002	0	-1e-05	-4e-05	0.00011	-0.00011	3e-05	-0.00017	6
28677	-0.00021	-1e-05	0	-5e-05	5e-05	-0.00015	-4e-05	-0.00083	6
28678	-0.00021	-1e-05	0	-5e-05	5e-05	-0.00015	-4e-05	-0.00083	6
28679	-0.00021	-1e-05	0	-5e-05	5e-05	-0.00015	-4e-05	-0.00083	6
28680	-0.00021	-1e-05	0	-5e-05	5e-05	-0.00015	-4e-05	-0.00083	6
28681	-0.00021	-1e-05	0	-5e-05	5e-05	-0.00015	-4e-05	-0.00083	6
28682	-0.00021	-1e-05	0	-5e-05	5e-05	-0.00015	-4e-05	-0.00083	6
28683	-0.00021	-1e-05	0	-5e-05	5e-05	-0.00015	-4e-05	-0.00083	6
28684	-0.00021	-1e-05	0	-5e-05	5e-05	-0.00015	-4e-05	-0.00083	6
28685	-0.00021	-1e-05	0	-5e-05	5e-05	-0.00015	-4e-05	-0.00083	6
28686	-0.00021	-1e-05	0	-5e-05	5e-05	-0.00015	-4e-05	-0.00083	6
28688	-0.00021	-1e-05	0	-5e-05	5e-05	-0.00015	-4e-05	-0.00083	6
28689	-0.00021	-1e-05	0	-5e-05	5e-05	-0.00015	-4e-05	-0.00083	6
28690	-0.00021	-1e-05	0	-5e-05	5e-05	-0.00015	-4e-05	-0.00083	6
28691	-0.00021	-1e-05	0	-5e-05	5e-05	-0.00015	-4e-05	-0.00083	6
28692	-0.0002	-3e-05	-2e-05	-5e-05	0.00011	-4e-05	-1e-05	0.00031	6
28693	-3e-05	0	4e-05	5e-05	-0.0001	0	9e-05	0.00015	6
28694	-3e-05	0	4e-05	5e-05	-0.0001	0	9e-05	0.00015	6
28695	-3e-05	0	4e-05	5e-05	-0.0001	0	9e-05	0.00015	6
28696	-3e-05	0	4e-05	5e-05	-0.0001	0	9e-05	0.00015	6
28697	-3e-05	0	4e-05	5e-05	-0.0001	0	9e-05	0.00015	6
28698	-3e-05	0	4e-05	5e-05	-0.0001	0	9e-05	0.00015	6
28699	-3e-05	0	4e-05	5e-05	-0.0001	0	9e-05	0.00015	6
28700	-3e-05	0	4e-05	5e-05	-0.0001	0	9e-05	0.00015	6
28701	-3e-05	0	4e-05	5e-05	-0.0001	0	9e-05	0.00015	6
28702	-3e-05	0	4e-05	5e-05	-0.0001	0	9e-05	0.00015	6
28703	-3e-05	0	4e-05	5e-05	-0.0001	0	9e-05	0.00015	6
28704	-3e-05	0	4e-05	5e-05	-0.0001	0	9e-05	0.00015	6
28705	-3e-05	0	4e-05	5e-05	-0.0001	0	9e-05	0.00015	6
28706	-3e-05	0	4e-05	5e-05	-0.0001	0	9e-05	0.00015	6
28707	-3e-05	0	4e-05	5e-05	-0.0001	0	9e-05	0.00015	6
28708	-3e-05	0	4e-05	5e-05	-0.0001	0	9e-05	0.00015	6
28709	-3e-05	0	4e-05	5e-05	-0.0001	0	9e-05	0.00015	6
28710	-3e-05	0	4e-05	5e-05	-0.0001	0	9e-05	0.00015	6
28711	-3e-05	0	4e-05	5e-05	-0.0001	0	9e-05	0.00015	6
28712	-3e-05	0	4e-05	5e-05	-0.0001	0	9e-05	0.00015	6
28713	-3e-05	0	4e-05	5e-05	-0.0001	0	9e-05	0.00015	6
28714	-0.00013	-3e-05	-1e-05	5e-05	0.00027	0.00032	2e-05	-0.00032	6
28715	-0.00013	-3e-05	-1e-05	5e-05	0.00027	0.00032	2e-05	-0.00032	6
28716	-0.00011	0	-2e-05	0.0001	0.00061	0.00074	1e-05	-1e-05	6
28717	-0.00011	0	-2e-05	0.0001	0.00061	0.00074	1e-05	-1e-05	6
28718	-0.00011	0	-2e-05	0.0001	0.00061	0.00074	1e-05	-1e-05	6
28719	-0.00011	0	-2e-05	0.0001	0.00061	0.00074	1e-05	-1e-05	6
28720	-0.00011	0	-2e-05	0.0001	0.00061	0.00074	1e-05	-1e-05	6
28721	-0.00011	0	-2e-05	0.0001	0.00061	0.00074	1e-05	-1e-05	6
28722	-0.00011	0	-2e-05	0.0001	0.00061	0.00074	1e-05	-1e-05	6
28723	-0.00011	0	-2e-05	0.0001	0.00061	0.00074	1e-05	-1e-05	6
28724	-0.00011	0	-2e-05	0.0001	0.00061	0.00074	1e-05	-1e-05	6
28725	-0.00011	0	-2e-05	0.0001	0.00061	0.00074	1e-05	-1e-05	6
28726	-0.00011	0	-2e-05	0.0001	0.00061	0.00074	1e-05	-1e-05	6
28727	-0.00011	0	-2e-05	0.0001	0.00061	0.00074	1e-05	-1e-05	6
28728	4e-05	1e-05	-7e-05	7e-05	0.00044	-1e-05	0.00016	0.00026	6
28729	4e-05	1e-05	-7e-05	7e-05	0.00044	-1e-05	0.00016	0.00026	6
28730	4e-05	1e-05	-7e-05	7e-05	0.00044	-1e-05	0.00016	0.00026	6
28731	4e-05	1e-05	-7e-05	7e-05	0.00044	-1e-05	0.00016	0.00026	6
28732	4e-05	1e-05	-7e-05	7e-05	0.00044	-1e-05	0.00016	0.00026	6
28733	4e-05	1e-05	-7e-05	7e-05	0.00044	-1e-05	0.00016	0.00026	6
28734	4e-05	1e-05	-7e-05	7e-05	0.00044	-1e-05	0.00016	0.00026	6
28735	4e-05	1e-05	-7e-05	7e-05	0.00044	-1e-05	0.00016	0.00026	6
28736	4e-05	1e-05	-7e-05	7e-05	0.00044	-1e-05	0.00016	0.00026	6
28738	-4e-05	-3e-05	1e-05	0	-0.00016	0.00023	5e-05	0.0002	6
28739	-4e-05	-3e-05	1e-05	0	-0.00016	0.00023	5e-05	0.0002	6
28740	-4e-05	-3e-05	1e-05	0	-0.00016	0.00023	5e-05	0.0002	6
28741	-4e-05	-3e-05	1e-05	0	-0.00016	0.00023	5e-05	0.0002	6
28742	-4e-05	-3e-05	1e-05	0	-0.00016	0.00023	5e-05	0.0002	6
28743	-4e-05	-3e-05	1e-05	0	-0.00016	0.00023	5e-05	0.0002	6
28744	-4e-05	-3e-05	1e-05	0	-0.00016	0.00023	5e-05	0.0002	6
28745	-4e-05	-3e-05	1e-05	0	-0.00016	0.00023	5e-05	0.0002	6
28746	-4e-05	-3e-05	1e-05	0	-0.00016	0.00023	5e-05	0.0002	6
28747	-4e-05	-3e-05	1e-05	0	-0.00016	0.00023	5e-05	0.0002	6
28748	-4e-05	-3e-05	1e-05	0	-0.00016	0.00023	5e-05	0.0002	6
28749	-4e-05	-3e-05	1e-05	0	-0.00016	0.00023	5e-05	0.0002	6
28750	-4e-05	-3e-05	1e-05	0	-0.00016	0.00023	5e-05	0.0002	6
28752	3e-05	-2e-05	-1e-05	-8e-05	-0.00045	-0.00066	7e-05	0.00053	6
28753	-4e-05	2e-05	-2e-05	-3e-05	0.00014	8e-05	-9e-05	-8e-05	6
28754	-4e-05	2e-05	-2e-05	-3e-05	0.00014	8e-05	-9e-05	-8e-05	6
28755	-4e-05	2e-05	-2e-05	-3e-05	0.00014	8e-05	-9e-05	-8e-05	6
28756	-4e-05	2e-05	-2e-05	-3e-05	0.00014	8e-05	-9e-05	-8e-05	6
28757	-4e-05	2e-05	-2e-05	-3e-05	0.00014	8e-05	-9e-05	-8e-05	6
28758	-4e-05	2e-05	-2e-05	-3e-05	0.00014	8e-05	-9e-05	-8e-05	6
28759	-4e-05	2e-05	-2e-05	-3e-05	0.00014	8e-05	-9e-05	-8e-05	6
28760	-4e-05	2e-05	-2e-05	-3e-05	0.00014	8e-05	-9e-05	-8e-05	6
28761	-4e-05	2e-05	-2e-05	-3e-05	0.00014	8e-05	-9e-05	-8e-05	6
28762	-4e-05	2e-05	-2e-05	-3e-05	0.00014	8e-05	-9e-05	-8e-05	6
28763	-4e-05	2e-05	-2e-05	-3e-05	0.00014	8e-05	-9e-05	-8e-05	6
28764	-4e-05	2e-05	-2e-05	-3e-05	0.00014	8e-05	-9e-05	-8e-05	6
28765	-4e-05	2e-05	-2e-05	-3e-05	0.00014	8e-05	-9e-05	-8e-05	6
28766	-4e-05	2e-05	-2e-05	-3e-05	0.00014	8e-05	-9e-05	-8e-05	6
28767	-4e-05	2e-05	-2e-05	-3e-05	0.00014	8e-05	-9e-05	-8e-05	6
28768	-4e-05	2e-05	-2e-05	-3e-05	0.00014	8e-05	-9e-05	-8e-05	6
28769	-4e-05	2e-05	-2e-05	-3e-05	0.00014	8e-05	-9e-05	-8e-05	6
28770	-4e-05	2e-05	-2e-05	-3e-05	0.00014	8e-05	-9e-05	-8e-05	6
28771	-4e-05	2e-05	-2e-05	-3e-05	0.00014	8e-05	-9e-05	-8e-05	6
28772	-4e-05	2e-05	-2e-05	-3e-05	0.00014	8e-05	-9e-05	-8e-05	6
28773	-4e-05	2e-05	-2e-05	-3e-05	0.00014	8e-05	-9e-05	-8e-05	6
28774	0.00025	3e-05	-1e-05	-1e-05	-0.00011	-0.00016	0.0001	0.0007	6
28775	0.00025	3e-05	-1e-05	-1e-05	-0.00011	-0.00016	0.0001	0.0007	6
28776	-3e-05	-3e-05	2e-05	-8e-05	-0.00044	-0.00049	-8e-05	-0.00083	6
28777	-3e-05	-3e-05	2e-05	-8e-05	-0.00044	-0.00049	-8e-05	-0.00083	6
28778	-3e-05	-3e-05	2e-05	-8e-05	-0.00044	-0.00049	-8e-05	-0.00083	6
28779	-3e-05	-3e-05	2e-05	-8e-05	-0.00044	-0.00049	-8e-05	-0.00083	6
28780	-3e-05	-3e-05	2e-05	-8e-05	-0.00044	-0.00049	-8e-05	-0.00083	6
28781	-3e-05	-3e-05	2e-05	-8e-05	-0.00044	-0.00049	-8e-05	-0.00083	6
28782	-3e-05	-3e-05	2e-05	-8e-05	-0.00044	-0.00049	-8e-05	-0.00083	6
28783	-3e-05	-3e-05	2e-05	-8e-05	-0.00044	-0.00049	-8e-05	-0.00083	6
28784	-3e-05	-3e-05	2e-05	-8e-05	-0.00044	-0.00049	-8e-05	-0.00083	6
28785	-3e-05	-3e-05	2e-05	-8e-05	-0.00044	-0.00049	-8e-05	-0.00083	6
28786	-3e-05	-3e-05	2e-05	-8e-05	-0.00044	-0.00049	-8e-05	-0.00083	6
28788	1e-05	-1e-05	2e-05	2e-05	-7e-05	-0.00022	1e-05	-0.00026	6
28789	1e-05	-1e-05	2e-05	2e-05	-7e-05	-0.00022	1e-05	-0.00026	6
28790	1e-05	-1e-05	2e-05	2e-05	-7e-05	-0.00022	1e-05	-0.00026	6
28791	1e-05	-1e-05	2e-05	2e-05	-7e-05	-0.00022	1e-05	-0.00026	6
28792	1e-05	-1e-05	2e-05	2e-05	-7e-05	-0.00022	1e-05	-0.00026	6
28793	1e-05	-1e-05	2e-05	2e-05	-7e-05	-0.00022	1e-05	-0.00026	6
28794	1e-05	-1e-05	2e-05	2e-05	-7e-05	-0.00022	1e-05	-0.00026	6
28795	1e-05	-1e-05	2e-05	2e-05	-7e-05	-0.00022	1e-05	-0.00026	6
28796	1e-05	-1e-05	2e-05	2e-05	-7e-05	-0.00022	1e-05	-0.00026	6
28797	1e-05	-4e-05	-1e-05	2e-05	0.00017	0.00015	-2e-05	0.00035	6
28798	1e-05	-4e-05	-1e-05	2e-05	0.00017	0.00015	-2e-05	0.00035	6
28799	1e-05	-4e-05	-1e-05	2e-05	0.00017	0.00015	-2e-05	0.00035	6
28800	1e-05	-4e-05	-1e-05	2e-05	0.00017	0.00015	-2e-05	0.00035	6
28801	1e-05	-4e-05	-1e-05	2e-05	0.00017	0.00015	-2e-05	0.00035	6
28802	1e-05	-4e-05	-1e-05	2e-05	0.00017	0.00015	-2e-05	0.00035	6
28803	1e-05	-4e-05	-1e-05	2e-05	0.00017	0.00015	-2e-05	0.00035	6
28804	1e-05	-4e-05	-1e-05	2e-05	0.00017	0.00015	-2e-05	0.00035	6
28805	1e-05	-4e-05	-1e-05	2e-05	0.00017	0.00015	-2e-05	0.00035	6
28806	1e-05	-4e-05	-1e-05	2e-05	0.00017	0.00015	-2e-05	0.00035	6
28807	1e-05	-4e-05	-1e-05	2e-05	0.00017	0.00015	-2e-05	0.00035	6
28808	1e-05	-4e-05	-1e-05	2e-05	0.00017	0.00015	-2e-05	0.00035	6
28809	1e-05	-4e-05	-1e-05	2e-05	0.00017	0.00015	-2e-05	0.00035	6
28810	1e-05	-4e-05	-1e-05	2e-05	0.00017	0.00015	-2e-05	0.00035	6
28811	1e-05	-4e-05	-1e-05	2e-05	0.00017	0.00015	-2e-05	0.00035	6
28812	-7e-05	-5e-05	-2e-05	3e-05	-0.00023	-0.00043	-0.00025	0.00016	6
28813	-4e-05	-4e-05	-3e-05	1e-05	-6e-05	3e-05	-4e-05	-0.00011	6
28814	-4e-05	-4e-05	-3e-05	1e-05	-6e-05	3e-05	-4e-05	-0.00011	6
28815	-4e-05	-4e-05	-3e-05	1e-05	-6e-05	3e-05	-4e-05	-0.00011	6
28816	-4e-05	-4e-05	-3e-05	1e-05	-6e-05	3e-05	-4e-05	-0.00011	6
28817	-4e-05	-4e-05	-3e-05	1e-05	-6e-05	3e-05	-4e-05	-0.00011	6
28818	-4e-05	-4e-05	-3e-05	1e-05	-6e-05	3e-05	-4e-05	-0.00011	6
28819	-4e-05	-4e-05	-3e-05	1e-05	-6e-05	3e-05	-4e-05	-0.00011	6
28820	-4e-05	-4e-05	-3e-05	1e-05	-6e-05	3e-05	-4e-05	-0.00011	6
28821	-4e-05	-4e-05	-3e-05	1e-05	-6e-05	3e-05	-4e-05	-0.00011	6
28822	-4e-05	-4e-05	-3e-05	1e-05	-6e-05	3e-05	-4e-05	-0.00011	6
28823	-4e-05	-4e-05	-3e-05	1e-05	-6e-05	3e-05	-4e-05	-0.00011	6
28824	-4e-05	-4e-05	-3e-05	1e-05	-6e-05	3e-05	-4e-05	-0.00011	6
28825	-4e-05	-4e-05	-3e-05	1e-05	-6e-05	3e-05	-4e-05	-0.00011	6
28826	-4e-05	-4e-05	-3e-05	1e-05	-6e-05	3e-05	-4e-05	-0.00011	6
28827	-4e-05	-4e-05	-3e-05	1e-05	-6e-05	3e-05	-4e-05	-0.00011	6
28828	-4e-05	-4e-05	-3e-05	1e-05	-6e-05	3e-05	-4e-05	-0.00011	6
28829	-4e-05	-4e-05	-3e-05	1e-05	-6e-05	3e-05	-4e-05	-0.00011	6
28830	-4e-05	-4e-05	-3e-05	1e-05	-6e-05	3e-05	-4e-05	-0.00011	6
28831	-4e-05	-4e-05	-3e-05	1e-05	-6e-05	3e-05	-4e-05	-0.00011	6
28832	-4e-05	-4e-05	-3e-05	1e-05	-6e-05	3e-05	-4e-05	-0.00011	6
28833	-4e-05	-4e-05	-3e-05	1e-05	-6e-05	3e-05	-4e-05	-0.00011	6
28834	3e-05	-3e-05	-3e-05	-4e-05	9e-05	0.00025	-0.00015	-0.00016	6
28835	3e-05	-3e-05	-3e-05	-4e-05	9e-05	0.00025	-0.00015	-0.00016	6
28836	-0.00015	-2e-05	-3e-05	-9e-05	-0.00039	-1e-05	-5e-05	-0.00063	6
28838	-0.00015	-2e-05	-3e-05	-9e-05	-0.00039	-1e-05	-5e-05	-0.00063	6
28839	-0.00015	-2e-05	-3e-05	-9e-05	-0.00039	-1e-05	-5e-05	-0.00063	6
28840	-0.00015	-2e-05	-3e-05	-9e-05	-0.00039	-1e-05	-5e-05	-0.00063	6
28841	-0.00015	-2e-05	-3e-05	-9e-05	-0.00039	-1e-05	-5e-05	-0.00063	6
28842	-0.00015	-2e-05	-3e-05	-9e-05	-0.00039	-1e-05	-5e-05	-0.00063	6
28843	-0.00015	-2e-05	-3e-05	-9e-05	-0.00039	-1e-05	-5e-05	-0.00063	6
28844	-0.00015	-2e-05	-3e-05	-9e-05	-0.00039	-1e-05	-5e-05	-0.00063	6
28845	-0.00015	-2e-05	-3e-05	-9e-05	-0.00039	-1e-05	-5e-05	-0.00063	6
28846	-0.00015	-2e-05	-3e-05	-9e-05	-0.00039	-1e-05	-5e-05	-0.00063	6
28847	-0.00015	-2e-05	-3e-05	-9e-05	-0.00039	-1e-05	-5e-05	-0.00063	6
28848	-9e-05	-4e-05	-2e-05	-6e-05	-0.00021	0.00077	-8e-05	-0.00041	6
28849	-9e-05	-4e-05	-2e-05	-6e-05	-0.00021	0.00077	-8e-05	-0.00041	6
28850	-9e-05	-4e-05	-2e-05	-6e-05	-0.00021	0.00077	-8e-05	-0.00041	6
28851	-9e-05	-4e-05	-2e-05	-6e-05	-0.00021	0.00077	-8e-05	-0.00041	6
28852	-9e-05	-4e-05	-2e-05	-6e-05	-0.00021	0.00077	-8e-05	-0.00041	6
28853	-9e-05	-4e-05	-2e-05	-6e-05	-0.00021	0.00077	-8e-05	-0.00041	6
28854	-9e-05	-4e-05	-2e-05	-6e-05	-0.00021	0.00077	-8e-05	-0.00041	6
28855	-9e-05	-4e-05	-2e-05	-6e-05	-0.00021	0.00077	-8e-05	-0.00041	6
28856	-9e-05	-4e-05	-2e-05	-6e-05	-0.00021	0.00077	-8e-05	-0.00041	6
28857	-4e-05	-4e-05	-2e-05	2e-05	-0.00012	0.00022	0.00022	-0.0002	6
28858	-4e-05	-4e-05	-2e-05	2e-05	-0.00012	0.00022	0.00022	-0.0002	6
28859	-4e-05	-4e-05	-2e-05	2e-05	-0.00012	0.00022	0.00022	-0.0002	6
28860	-4e-05	-4e-05	-2e-05	2e-05	-0.00012	0.00022	0.00022	-0.0002	6
28861	-4e-05	-4e-05	-2e-05	2e-05	-0.00012	0.00022	0.00022	-0.0002	6
28862	-4e-05	-4e-05	-2e-05	2e-05	-0.00012	0.00022	0.00022	-0.0002	6
28863	-4e-05	-4e-05	-2e-05	2e-05	-0.00012	0.00022	0.00022	-0.0002	6
28864	-4e-05	-4e-05	-2e-05	2e-05	-0.00012	0.00022	0.00022	-0.0002	6
28865	-4e-05	-4e-05	-2e-05	2e-05	-0.00012	0.00022	0.00022	-0.0002	6
28866	-4e-05	-4e-05	-2e-05	2e-05	-0.00012	0.00022	0.00022	-0.0002	6
28867	-4e-05	-4e-05	-2e-05	2e-05	-0.00012	0.00022	0.00022	-0.0002	6
28868	-4e-05	-4e-05	-2e-05	2e-05	-0.00012	0.00022	0.00022	-0.0002	6
28869	-4e-05	-4e-05	-2e-05	2e-05	-0.00012	0.00022	0.00022	-0.0002	6
28870	-4e-05	-4e-05	-2e-05	2e-05	-0.00012	0.00022	0.00022	-0.0002	6
28871	-4e-05	-4e-05	-2e-05	2e-05	-0.00012	0.00022	0.00022	-0.0002	6
28872	-7e-05	1e-05	0	9e-05	0.00016	0.00064	-1e-05	-0.00017	6
28873	0.00011	0	-2e-05	-2e-05	2e-05	0.00033	4e-05	0.00081	6
28874	0.00011	0	-2e-05	-2e-05	2e-05	0.00033	4e-05	0.00081	6
28875	0.00011	0	-2e-05	-2e-05	2e-05	0.00033	4e-05	0.00081	6
28876	0.00011	0	-2e-05	-2e-05	2e-05	0.00033	4e-05	0.00081	6
28877	0.00011	0	-2e-05	-2e-05	2e-05	0.00033	4e-05	0.00081	6
28878	0.00011	0	-2e-05	-2e-05	2e-05	0.00033	4e-05	0.00081	6
28879	0.00011	0	-2e-05	-2e-05	2e-05	0.00033	4e-05	0.00081	6
28880	0.00011	0	-2e-05	-2e-05	2e-05	0.00033	4e-05	0.00081	6
28881	0.00011	0	-2e-05	-2e-05	2e-05	0.00033	4e-05	0.00081	6
28882	0.00011	0	-2e-05	-2e-05	2e-05	0.00033	4e-05	0.00081	6
28883	0.00011	0	-2e-05	-2e-05	2e-05	0.00033	4e-05	0.00081	6
28884	0.00011	0	-2e-05	-2e-05	2e-05	0.00033	4e-05	0.00081	6
28885	0.00011	0	-2e-05	-2e-05	2e-05	0.00033	4e-05	0.00081	6
28886	0.00011	0	-2e-05	-2e-05	2e-05	0.00033	4e-05	0.00081	6
28888	0.00011	0	-2e-05	-2e-05	2e-05	0.00033	4e-05	0.00081	6
28889	0.00011	0	-2e-05	-2e-05	2e-05	0.00033	4e-05	0.00081	6
28890	0.00011	0	-2e-05	-2e-05	2e-05	0.00033	4e-05	0.00081	6
28892	0.00011	0	-2e-05	-2e-05	2e-05	0.00033	4e-05	0.00081	6
28893	0.00011	0	-2e-05	-2e-05	2e-05	0.00033	4e-05	0.00081	6
28894	5e-05	-3e-05	-2e-05	2e-05	0.00058	-0.00038	-2e-05	0.0001	6
28895	5e-05	-3e-05	-2e-05	2e-05	0.00058	-0.00038	-2e-05	0.0001	6
28896	0.00013	0	5e-05	9e-05	0.00018	0.00027	2e-05	-8e-05	6
28897	0.00013	0	5e-05	9e-05	0.00018	0.00027	2e-05	-8e-05	6
28898	0.00013	0	5e-05	9e-05	0.00018	0.00027	2e-05	-8e-05	6
28899	0.00013	0	5e-05	9e-05	0.00018	0.00027	2e-05	-8e-05	6
28900	0.00013	0	5e-05	9e-05	0.00018	0.00027	2e-05	-8e-05	6
28901	0.00013	0	5e-05	9e-05	0.00018	0.00027	2e-05	-8e-05	6
28902	0.00013	0	5e-05	9e-05	0.00018	0.00027	2e-05	-8e-05	6
28903	0.00013	0	5e-05	9e-05	0.00018	0.00027	2e-05	-8e-05	6
28904	0.00013	0	5e-05	9e-05	0.00018	0.00027	2e-05	-8e-05	6
28905	0.00013	0	5e-05	9e-05	0.00018	0.00027	2e-05	-8e-05	6
28906	0.00013	0	5e-05	9e-05	0.00018	0.00027	2e-05	-8e-05	6
28907	0.00013	0	5e-05	9e-05	0.00018	0.00027	2e-05	-8e-05	6
28908	0.00013	0	5e-05	9e-05	0.00018	0.00027	2e-05	-8e-05	6
28909	0.00013	0	5e-05	9e-05	0.00018	0.00027	2e-05	-8e-05	6
28910	0.00013	0	5e-05	9e-05	0.00018	0.00027	2e-05	-8e-05	6
28911	0.00013	0	5e-05	9e-05	0.00018	0.00027	2e-05	-8e-05	6
28912	0.00013	0	5e-05	9e-05	0.00018	0.00027	2e-05	-8e-05	6
28913	0.00013	0	5e-05	9e-05	0.00018	0.00027	2e-05	-8e-05	6
28914	0.00013	0	5e-05	9e-05	0.00018	0.00027	2e-05	-8e-05	6
28915	0.00013	0	5e-05	9e-05	0.00018	0.00027	2e-05	-8e-05	6
28916	0	-5e-05	-3e-05	-8e-05	-0.00021	-0.00054	-1e-05	0.00044	6
28917	-5e-05	-1e-05	0	-1e-05	1e-05	0.0002	-0.00021	-0.00021	6
28918	0.00031	1e-05	2e-05	-8e-05	-0.00016	-0.00021	2e-05	0.00078	6
28919	0.00031	1e-05	2e-05	-8e-05	-0.00016	-0.00021	2e-05	0.00078	6
28920	0.00031	1e-05	2e-05	-8e-05	-0.00016	-0.00021	2e-05	0.00078	6
28921	0.00031	1e-05	2e-05	-8e-05	-0.00016	-0.00021	2e-05	0.00078	6
28922	0.00031	1e-05	2e-05	-8e-05	-0.00016	-0.00021	2e-05	0.00078	6
28923	0.00031	1e-05	2e-05	-8e-05	-0.00016	-0.00021	2e-05	0.00078	6
28924	0.00031	1e-05	2e-05	-8e-05	-0.00016	-0.00021	2e-05	0.00078	6
28925	0.00031	1e-05	2e-05	-8e-05	-0.00016	-0.00021	2e-05	0.00078	6
28926	0.00031	1e-05	2e-05	-8e-05	-0.00016	-0.00021	2e-05	0.00078	6
28927	0.00031	1e-05	2e-05	-8e-05	-0.00016	-0.00021	2e-05	0.00078	6
28928	0.00031	1e-05	2e-05	-8e-05	-0.00016	-0.00021	2e-05	0.00078	6
28929	0.00031	1e-05	2e-05	-8e-05	-0.00016	-0.00021	2e-05	0.00078	6
28930	0.00031	1e-05	2e-05	-8e-05	-0.00016	-0.00021	2e-05	0.00078	6
28931	-7e-05	-2e-05	-7e-05	2e-05	-0.00048	-1e-05	-3e-05	-0.00015	6
28932	-9e-05	3e-05	7e-05	1e-05	-0.0001	-0.00025	0.0001	-0.00052	6
28933	-0.00011	3e-05	-2e-05	3e-05	-8e-05	-0.00016	-7e-05	-0.00015	6
28934	-0.00011	3e-05	-2e-05	3e-05	-8e-05	-0.00016	-7e-05	-0.00015	6
28935	-0.00011	3e-05	-2e-05	3e-05	-8e-05	-0.00016	-7e-05	-0.00015	6
28936	-0.00011	3e-05	-2e-05	3e-05	-8e-05	-0.00016	-7e-05	-0.00015	6
28939	-0.00011	3e-05	-2e-05	3e-05	-8e-05	-0.00016	-7e-05	-0.00015	6
28940	-0.00011	3e-05	-2e-05	3e-05	-8e-05	-0.00016	-7e-05	-0.00015	6
28941	-0.00011	3e-05	-2e-05	3e-05	-8e-05	-0.00016	-7e-05	-0.00015	6
28942	-0.00011	3e-05	-2e-05	3e-05	-8e-05	-0.00016	-7e-05	-0.00015	6
28943	-0.00011	3e-05	-2e-05	3e-05	-8e-05	-0.00016	-7e-05	-0.00015	6
28944	-0.00011	3e-05	-2e-05	3e-05	-8e-05	-0.00016	-7e-05	-0.00015	6
28945	-0.00011	3e-05	-2e-05	3e-05	-8e-05	-0.00016	-7e-05	-0.00015	6
28946	-0.00011	3e-05	-2e-05	3e-05	-8e-05	-0.00016	-7e-05	-0.00015	6
28947	-0.00011	3e-05	-2e-05	3e-05	-8e-05	-0.00016	-7e-05	-0.00015	6
28948	-0.00011	3e-05	-2e-05	3e-05	-8e-05	-0.00016	-7e-05	-0.00015	6
28949	-0.00011	3e-05	-2e-05	3e-05	-8e-05	-0.00016	-7e-05	-0.00015	6
28950	-0.00011	3e-05	-2e-05	3e-05	-8e-05	-0.00016	-7e-05	-0.00015	6
28951	-0.00011	3e-05	-2e-05	3e-05	-8e-05	-0.00016	-7e-05	-0.00015	6
28952	-0.00011	3e-05	-2e-05	3e-05	-8e-05	-0.00016	-7e-05	-0.00015	6
28953	-0.00011	3e-05	-2e-05	3e-05	-8e-05	-0.00016	-7e-05	-0.00015	6
28954	1e-05	-2e-05	-3e-05	-6e-05	1e-05	-0.00052	3e-05	-6e-05	6
28955	1e-05	-2e-05	-3e-05	-6e-05	1e-05	-0.00052	3e-05	-6e-05	6
28956	-8e-05	-1e-05	1e-05	-7e-05	-0.0003	-0.00032	-7e-05	-0.00051	6
28957	-8e-05	-1e-05	1e-05	-7e-05	-0.0003	-0.00032	-7e-05	-0.00051	6
28958	-8e-05	-1e-05	1e-05	-7e-05	-0.0003	-0.00032	-7e-05	-0.00051	6
28959	-8e-05	-1e-05	1e-05	-7e-05	-0.0003	-0.00032	-7e-05	-0.00051	6
28960	-8e-05	-1e-05	1e-05	-7e-05	-0.0003	-0.00032	-7e-05	-0.00051	6
28961	-8e-05	-1e-05	1e-05	-7e-05	-0.0003	-0.00032	-7e-05	-0.00051	6
28962	-8e-05	-1e-05	1e-05	-7e-05	-0.0003	-0.00032	-7e-05	-0.00051	6
28963	-8e-05	-1e-05	1e-05	-7e-05	-0.0003	-0.00032	-7e-05	-0.00051	6
28964	-8e-05	-1e-05	1e-05	-7e-05	-0.0003	-0.00032	-7e-05	-0.00051	6
28965	-8e-05	-1e-05	1e-05	-7e-05	-0.0003	-0.00032	-7e-05	-0.00051	6
28966	-8e-05	-1e-05	1e-05	-7e-05	-0.0003	-0.00032	-7e-05	-0.00051	6
28967	-8e-05	-1e-05	1e-05	-7e-05	-0.0003	-0.00032	-7e-05	-0.00051	6
28968	-8e-05	-1e-05	1e-05	-7e-05	-0.0003	-0.00032	-7e-05	-0.00051	6
28969	-8e-05	-1e-05	1e-05	-7e-05	-0.0003	-0.00032	-7e-05	-0.00051	6
28970	-8e-05	-1e-05	1e-05	-7e-05	-0.0003	-0.00032	-7e-05	-0.00051	6
28971	-8e-05	-1e-05	1e-05	-7e-05	-0.0003	-0.00032	-7e-05	-0.00051	6
28972	-8e-05	-1e-05	1e-05	-7e-05	-0.0003	-0.00032	-7e-05	-0.00051	6
28973	-8e-05	-1e-05	1e-05	-7e-05	-0.0003	-0.00032	-7e-05	-0.00051	6
28974	-8e-05	-1e-05	1e-05	-7e-05	-0.0003	-0.00032	-7e-05	-0.00051	6
28975	-8e-05	-1e-05	1e-05	-7e-05	-0.0003	-0.00032	-7e-05	-0.00051	6
28976	-4e-05	-2e-05	3e-05	0.00013	0.00089	0.00062	0.00011	-0.00013	6
28977	4e-05	1e-05	0	-4e-05	-0.00021	-0.00066	-8e-05	0.0002	6
28978	0.00011	1e-05	-5e-05	-6e-05	-8e-05	-2e-05	-0.0001	-7e-05	6
28979	0.00011	1e-05	-5e-05	-6e-05	-8e-05	-2e-05	-0.0001	-7e-05	6
28980	0.00011	1e-05	-5e-05	-6e-05	-8e-05	-2e-05	-0.0001	-7e-05	6
28981	0.00011	1e-05	-5e-05	-6e-05	-8e-05	-2e-05	-0.0001	-7e-05	6
28982	0.00011	1e-05	-5e-05	-6e-05	-8e-05	-2e-05	-0.0001	-7e-05	6
28983	0.00011	1e-05	-5e-05	-6e-05	-8e-05	-2e-05	-0.0001	-7e-05	6
28984	0.00011	1e-05	-5e-05	-6e-05	-8e-05	-2e-05	-0.0001	-7e-05	6
28985	0.00011	1e-05	-5e-05	-6e-05	-8e-05	-2e-05	-0.0001	-7e-05	6
28987	0.00011	1e-05	-5e-05	-6e-05	-8e-05	-2e-05	-0.0001	-7e-05	6
28989	0.00011	1e-05	-5e-05	-6e-05	-8e-05	-2e-05	-0.0001	-7e-05	6
28990	0.00011	1e-05	-5e-05	-6e-05	-8e-05	-2e-05	-0.0001	-7e-05	6
28991	0.00011	1e-05	-5e-05	-6e-05	-8e-05	-2e-05	-0.0001	-7e-05	6
28992	-4e-05	2e-05	0	0	0.00012	0.0002	-6e-05	-5e-05	6
28993	0.00021	-4e-05	-3e-05	-2e-05	-3e-05	8e-05	0	0.00054	6
28994	0.00021	-4e-05	-3e-05	-2e-05	-3e-05	8e-05	0	0.00054	6
28995	0.00021	-4e-05	-3e-05	-2e-05	-3e-05	8e-05	0	0.00054	6
28996	0.00021	-4e-05	-3e-05	-2e-05	-3e-05	8e-05	0	0.00054	6
28997	0.00021	-4e-05	-3e-05	-2e-05	-3e-05	8e-05	0	0.00054	6
28998	0.00021	-4e-05	-3e-05	-2e-05	-3e-05	8e-05	0	0.00054	6
28999	0.00021	-4e-05	-3e-05	-2e-05	-3e-05	8e-05	0	0.00054	6
29000	0.00021	-4e-05	-3e-05	-2e-05	-3e-05	8e-05	0	0.00054	6
29001	0.00021	-4e-05	-3e-05	-2e-05	-3e-05	8e-05	0	0.00054	6
29002	0.00021	-4e-05	-3e-05	-2e-05	-3e-05	8e-05	0	0.00054	6
29003	0.00021	-4e-05	-3e-05	-2e-05	-3e-05	8e-05	0	0.00054	6
29004	0.00021	-4e-05	-3e-05	-2e-05	-3e-05	8e-05	0	0.00054	6
29005	0.00021	-4e-05	-3e-05	-2e-05	-3e-05	8e-05	0	0.00054	6
29006	0.00021	-4e-05	-3e-05	-2e-05	-3e-05	8e-05	0	0.00054	6
29007	0.00021	-4e-05	-3e-05	-2e-05	-3e-05	8e-05	0	0.00054	6
29008	0.00021	-4e-05	-3e-05	-2e-05	-3e-05	8e-05	0	0.00054	6
29009	0.00021	-4e-05	-3e-05	-2e-05	-3e-05	8e-05	0	0.00054	6
29010	0.00021	-4e-05	-3e-05	-2e-05	-3e-05	8e-05	0	0.00054	6
29011	0.00021	-4e-05	-3e-05	-2e-05	-3e-05	8e-05	0	0.00054	6
29012	0.00021	-4e-05	-3e-05	-2e-05	-3e-05	8e-05	0	0.00054	6
29013	0.00021	-4e-05	-3e-05	-2e-05	-3e-05	8e-05	0	0.00054	6
29014	2e-05	-4e-05	-3e-05	-6e-05	-6e-05	0.00013	-0.00019	0.0002	6
29015	2e-05	-4e-05	-3e-05	-6e-05	-6e-05	0.00013	-0.00019	0.0002	6
29016	-0.00018	1e-05	4e-05	6e-05	0.00016	0.00019	1e-05	0.00031	6
29017	-0.00018	1e-05	4e-05	6e-05	0.00016	0.00019	1e-05	0.00031	6
29018	-0.00018	1e-05	4e-05	6e-05	0.00016	0.00019	1e-05	0.00031	6
29019	-0.00018	1e-05	4e-05	6e-05	0.00016	0.00019	1e-05	0.00031	6
29020	-0.00018	1e-05	4e-05	6e-05	0.00016	0.00019	1e-05	0.00031	6
29021	-0.00018	1e-05	4e-05	6e-05	0.00016	0.00019	1e-05	0.00031	6
29022	-0.00018	1e-05	4e-05	6e-05	0.00016	0.00019	1e-05	0.00031	6
29023	-0.00018	1e-05	4e-05	6e-05	0.00016	0.00019	1e-05	0.00031	6
29024	-0.00018	1e-05	4e-05	6e-05	0.00016	0.00019	1e-05	0.00031	6
29025	-0.00018	1e-05	4e-05	6e-05	0.00016	0.00019	1e-05	0.00031	6
29026	-0.00018	1e-05	4e-05	6e-05	0.00016	0.00019	1e-05	0.00031	6
29027	-0.00018	1e-05	4e-05	6e-05	0.00016	0.00019	1e-05	0.00031	6
29028	-0.00018	1e-05	4e-05	6e-05	0.00016	0.00019	1e-05	0.00031	6
29029	-0.00018	1e-05	4e-05	6e-05	0.00016	0.00019	1e-05	0.00031	6
29030	-0.00018	1e-05	4e-05	6e-05	0.00016	0.00019	1e-05	0.00031	6
29031	-0.00018	1e-05	4e-05	6e-05	0.00016	0.00019	1e-05	0.00031	6
29032	-0.00018	1e-05	4e-05	6e-05	0.00016	0.00019	1e-05	0.00031	6
29033	-0.00018	1e-05	4e-05	6e-05	0.00016	0.00019	1e-05	0.00031	6
29034	-0.00018	1e-05	4e-05	6e-05	0.00016	0.00019	1e-05	0.00031	6
29035	-0.00018	1e-05	4e-05	6e-05	0.00016	0.00019	1e-05	0.00031	6
29037	-0.00032	0	-1e-05	0	6e-05	4e-05	0.0001	0.0002	6
29039	-0.00016	-2e-05	-1e-05	-4e-05	-4e-05	-0.0001	-6e-05	-0.00012	6
29040	-0.00016	-2e-05	-1e-05	-4e-05	-4e-05	-0.0001	-6e-05	-0.00012	6
29041	-0.00016	-2e-05	-1e-05	-4e-05	-4e-05	-0.0001	-6e-05	-0.00012	6
29042	-0.00016	-2e-05	-1e-05	-4e-05	-4e-05	-0.0001	-6e-05	-0.00012	6
29043	-0.00016	-2e-05	-1e-05	-4e-05	-4e-05	-0.0001	-6e-05	-0.00012	6
29044	-0.00016	-2e-05	-1e-05	-4e-05	-4e-05	-0.0001	-6e-05	-0.00012	6
29045	-0.00016	-2e-05	-1e-05	-4e-05	-4e-05	-0.0001	-6e-05	-0.00012	6
29046	-0.00016	-2e-05	-1e-05	-4e-05	-4e-05	-0.0001	-6e-05	-0.00012	6
29047	-0.00016	-2e-05	-1e-05	-4e-05	-4e-05	-0.0001	-6e-05	-0.00012	6
29048	-0.00016	-2e-05	-1e-05	-4e-05	-4e-05	-0.0001	-6e-05	-0.00012	6
29049	-0.00016	-2e-05	-1e-05	-4e-05	-4e-05	-0.0001	-6e-05	-0.00012	6
29050	-0.00016	-2e-05	-1e-05	-4e-05	-4e-05	-0.0001	-6e-05	-0.00012	6
29051	0.0002	-4e-05	-1e-05	-4e-05	-0.00024	0.00042	7e-05	0.00018	6
29052	0.0002	-4e-05	-1e-05	-4e-05	-0.00024	0.00042	7e-05	0.00018	6
29053	0.0002	-4e-05	-1e-05	-4e-05	-0.00024	0.00042	7e-05	0.00018	6
29054	0.0002	-4e-05	-1e-05	-4e-05	-0.00024	0.00042	7e-05	0.00018	6
29055	0.0002	-4e-05	-1e-05	-4e-05	-0.00024	0.00042	7e-05	0.00018	6
29056	0.0002	-4e-05	-1e-05	-4e-05	-0.00024	0.00042	7e-05	0.00018	6
29057	0.0002	-4e-05	-1e-05	-4e-05	-0.00024	0.00042	7e-05	0.00018	6
29058	0.0002	-4e-05	-1e-05	-4e-05	-0.00024	0.00042	7e-05	0.00018	6
29059	0.0002	-4e-05	-1e-05	-4e-05	-0.00024	0.00042	7e-05	0.00018	6
29060	0.0002	-4e-05	-1e-05	-4e-05	-0.00024	0.00042	7e-05	0.00018	6
29061	0.0002	-4e-05	-1e-05	-4e-05	-0.00024	0.00042	7e-05	0.00018	6
29062	0.0002	-4e-05	-1e-05	-4e-05	-0.00024	0.00042	7e-05	0.00018	6
29063	0.0002	-4e-05	-1e-05	-4e-05	-0.00024	0.00042	7e-05	0.00018	6
29064	0.0002	-4e-05	-1e-05	-4e-05	-0.00024	0.00042	7e-05	0.00018	6
29065	0.00011	-4e-05	0	0.0001	0.00069	-0.00027	0.00017	-0.00042	6
29066	0.00011	-4e-05	0	0.0001	0.00069	-0.00027	0.00017	-0.00042	6
29067	0.00011	-4e-05	0	0.0001	0.00069	-0.00027	0.00017	-0.00042	6
29068	0.00011	-4e-05	0	0.0001	0.00069	-0.00027	0.00017	-0.00042	6
29069	0.00011	-4e-05	0	0.0001	0.00069	-0.00027	0.00017	-0.00042	6
29070	0.00011	-4e-05	0	0.0001	0.00069	-0.00027	0.00017	-0.00042	6
29071	0.00011	-4e-05	0	0.0001	0.00069	-0.00027	0.00017	-0.00042	6
29072	0.00011	-4e-05	0	0.0001	0.00069	-0.00027	0.00017	-0.00042	6
29073	0.00011	-4e-05	0	0.0001	0.00069	-0.00027	0.00017	-0.00042	6
29074	4e-05	-5e-05	-4e-05	-4e-05	-8e-05	0.00023	8e-05	-0.00014	6
29075	4e-05	-5e-05	-4e-05	-4e-05	-8e-05	0.00023	8e-05	-0.00014	6
29076	0.00022	-1e-05	-1e-05	4e-05	3e-05	0.00017	4e-05	0.00058	6
29077	0.00022	-1e-05	-1e-05	4e-05	3e-05	0.00017	4e-05	0.00058	6
29078	0.00022	-1e-05	-1e-05	4e-05	3e-05	0.00017	4e-05	0.00058	6
29079	0.00022	-1e-05	-1e-05	4e-05	3e-05	0.00017	4e-05	0.00058	6
29080	0.00022	-1e-05	-1e-05	4e-05	3e-05	0.00017	4e-05	0.00058	6
29081	0.00022	-1e-05	-1e-05	4e-05	3e-05	0.00017	4e-05	0.00058	6
29082	0.00022	-1e-05	-1e-05	4e-05	3e-05	0.00017	4e-05	0.00058	6
29083	0.00022	-1e-05	-1e-05	4e-05	3e-05	0.00017	4e-05	0.00058	6
29084	0.00022	-1e-05	-1e-05	4e-05	3e-05	0.00017	4e-05	0.00058	6
29085	0.00022	-1e-05	-1e-05	4e-05	3e-05	0.00017	4e-05	0.00058	6
29086	0.00022	-1e-05	-1e-05	4e-05	3e-05	0.00017	4e-05	0.00058	6
29088	0.00022	-1e-05	-1e-05	4e-05	3e-05	0.00017	4e-05	0.00058	6
29089	0.00022	-1e-05	-1e-05	4e-05	3e-05	0.00017	4e-05	0.00058	6
29090	0.00022	-1e-05	-1e-05	4e-05	3e-05	0.00017	4e-05	0.00058	6
29091	0.00022	-1e-05	-1e-05	4e-05	3e-05	0.00017	4e-05	0.00058	6
29092	0.00022	-1e-05	-1e-05	4e-05	3e-05	0.00017	4e-05	0.00058	6
29093	0.00022	-1e-05	-1e-05	4e-05	3e-05	0.00017	4e-05	0.00058	6
29094	0.00022	-1e-05	-1e-05	4e-05	3e-05	0.00017	4e-05	0.00058	6
29095	0.00022	-1e-05	-1e-05	4e-05	3e-05	0.00017	4e-05	0.00058	6
29096	5e-05	-1e-05	2e-05	4e-05	0.00027	-5e-05	-1e-05	7e-05	6
29097	9e-05	3e-05	1e-05	1e-05	0.00023	-1e-05	0	-7e-05	6
29098	-0.00021	-3e-05	-1e-05	-1e-05	-0.00017	-0.00042	-0.00011	3e-05	6
29099	-0.00021	-3e-05	-1e-05	-1e-05	-0.00017	-0.00042	-0.00011	3e-05	6
29100	-0.00021	-3e-05	-1e-05	-1e-05	-0.00017	-0.00042	-0.00011	3e-05	6
29101	-0.00021	-3e-05	-1e-05	-1e-05	-0.00017	-0.00042	-0.00011	3e-05	6
29102	-0.00021	-3e-05	-1e-05	-1e-05	-0.00017	-0.00042	-0.00011	3e-05	6
29103	-0.00021	-3e-05	-1e-05	-1e-05	-0.00017	-0.00042	-0.00011	3e-05	6
29104	-0.00021	-3e-05	-1e-05	-1e-05	-0.00017	-0.00042	-0.00011	3e-05	6
29105	-0.00021	-3e-05	-1e-05	-1e-05	-0.00017	-0.00042	-0.00011	3e-05	6
29106	-0.00021	-3e-05	-1e-05	-1e-05	-0.00017	-0.00042	-0.00011	3e-05	6
29107	-0.00021	-3e-05	-1e-05	-1e-05	-0.00017	-0.00042	-0.00011	3e-05	6
29108	-0.00021	-3e-05	-1e-05	-1e-05	-0.00017	-0.00042	-0.00011	3e-05	6
29109	-0.00021	-3e-05	-1e-05	-1e-05	-0.00017	-0.00042	-0.00011	3e-05	6
29110	-0.00021	-3e-05	-1e-05	-1e-05	-0.00017	-0.00042	-0.00011	3e-05	6
29111	-7e-05	-2e-05	1e-05	-1e-05	-0.00045	-0.00056	0.00014	6e-05	6
29112	-7e-05	-2e-05	1e-05	-1e-05	-0.00045	-0.00056	0.00014	6e-05	6
29113	-7e-05	-2e-05	1e-05	-1e-05	-0.00045	-0.00056	0.00014	6e-05	6
29114	-7e-05	-2e-05	1e-05	-1e-05	-0.00045	-0.00056	0.00014	6e-05	6
29115	-7e-05	-2e-05	1e-05	-1e-05	-0.00045	-0.00056	0.00014	6e-05	6
29116	-7e-05	-2e-05	1e-05	-1e-05	-0.00045	-0.00056	0.00014	6e-05	6
29117	-7e-05	-2e-05	1e-05	-1e-05	-0.00045	-0.00056	0.00014	6e-05	6
29118	-3e-05	0	-1e-05	4e-05	0.00035	0.0001	-1e-05	-7e-05	6
29119	-3e-05	0	-1e-05	4e-05	0.00035	0.0001	-1e-05	-7e-05	6
29120	-3e-05	0	-1e-05	4e-05	0.00035	0.0001	-1e-05	-7e-05	6
29121	-3e-05	0	-1e-05	4e-05	0.00035	0.0001	-1e-05	-7e-05	6
29122	-3e-05	0	-1e-05	4e-05	0.00035	0.0001	-1e-05	-7e-05	6
29123	-3e-05	0	-1e-05	4e-05	0.00035	0.0001	-1e-05	-7e-05	6
29124	-3e-05	0	-1e-05	4e-05	0.00035	0.0001	-1e-05	-7e-05	6
29125	-3e-05	0	-1e-05	4e-05	0.00035	0.0001	-1e-05	-7e-05	6
29126	-3e-05	0	-1e-05	4e-05	0.00035	0.0001	-1e-05	-7e-05	6
29127	-3e-05	0	-1e-05	4e-05	0.00035	0.0001	-1e-05	-7e-05	6
29128	-3e-05	0	-1e-05	4e-05	0.00035	0.0001	-1e-05	-7e-05	6
29129	-3e-05	0	-1e-05	4e-05	0.00035	0.0001	-1e-05	-7e-05	6
29130	-3e-05	0	-1e-05	4e-05	0.00035	0.0001	-1e-05	-7e-05	6
29131	-3e-05	0	-1e-05	4e-05	0.00035	0.0001	-1e-05	-7e-05	6
29132	-3e-05	0	-1e-05	4e-05	0.00035	0.0001	-1e-05	-7e-05	6
29133	-3e-05	0	-1e-05	4e-05	0.00035	0.0001	-1e-05	-7e-05	6
29134	0.00034	-1e-05	-4e-05	-5e-05	-0.00011	-4e-05	-0.00024	0.00049	6
29135	0.00034	-1e-05	-4e-05	-5e-05	-0.00011	-4e-05	-0.00024	0.00049	6
29136	-8e-05	0	-2e-05	-3e-05	-0.00027	0.00038	-3e-05	-0.0001	6
29138	-8e-05	0	-2e-05	-3e-05	-0.00027	0.00038	-3e-05	-0.0001	6
29139	-8e-05	0	-2e-05	-3e-05	-0.00027	0.00038	-3e-05	-0.0001	6
29140	-8e-05	0	-2e-05	-3e-05	-0.00027	0.00038	-3e-05	-0.0001	6
29141	-8e-05	0	-2e-05	-3e-05	-0.00027	0.00038	-3e-05	-0.0001	6
29142	-8e-05	0	-2e-05	-3e-05	-0.00027	0.00038	-3e-05	-0.0001	6
29143	-8e-05	0	-2e-05	-3e-05	-0.00027	0.00038	-3e-05	-0.0001	6
29144	-8e-05	0	-2e-05	-3e-05	-0.00027	0.00038	-3e-05	-0.0001	6
29145	-8e-05	0	-2e-05	-3e-05	-0.00027	0.00038	-3e-05	-0.0001	6
29146	-8e-05	0	-2e-05	-3e-05	-0.00027	0.00038	-3e-05	-0.0001	6
29147	-8e-05	0	-2e-05	-3e-05	-0.00027	0.00038	-3e-05	-0.0001	6
29148	-8e-05	0	-2e-05	-3e-05	-0.00027	0.00038	-3e-05	-0.0001	6
29149	-8e-05	0	-2e-05	-3e-05	-0.00027	0.00038	-3e-05	-0.0001	6
29150	-8e-05	0	-2e-05	-3e-05	-0.00027	0.00038	-3e-05	-0.0001	6
29151	-8e-05	0	-2e-05	-3e-05	-0.00027	0.00038	-3e-05	-0.0001	6
29152	-8e-05	0	-2e-05	-3e-05	-0.00027	0.00038	-3e-05	-0.0001	6
29153	-8e-05	0	-2e-05	-3e-05	-0.00027	0.00038	-3e-05	-0.0001	6
29154	-8e-05	0	-2e-05	-3e-05	-0.00027	0.00038	-3e-05	-0.0001	6
29155	-8e-05	0	-2e-05	-3e-05	-0.00027	0.00038	-3e-05	-0.0001	6
29156	-2e-05	-2e-05	-4e-05	0	8e-05	-0.00014	8e-05	-2e-05	6
29157	-3e-05	1e-05	-3e-05	3e-05	0.0002	0.00052	0.0001	0.00028	6
29158	-3e-05	-3e-05	-8e-05	-1e-05	-7e-05	5e-05	7e-05	-7e-05	6
29159	-3e-05	-3e-05	-8e-05	-1e-05	-7e-05	5e-05	7e-05	-7e-05	6
29160	-3e-05	-3e-05	-8e-05	-1e-05	-7e-05	5e-05	7e-05	-7e-05	6
29161	-3e-05	-3e-05	-8e-05	-1e-05	-7e-05	5e-05	7e-05	-7e-05	6
29162	-3e-05	-3e-05	-8e-05	-1e-05	-7e-05	5e-05	7e-05	-7e-05	6
29163	-3e-05	-3e-05	-8e-05	-1e-05	-7e-05	5e-05	7e-05	-7e-05	6
29164	-3e-05	-3e-05	-8e-05	-1e-05	-7e-05	5e-05	7e-05	-7e-05	6
29165	-3e-05	-3e-05	-8e-05	-1e-05	-7e-05	5e-05	7e-05	-7e-05	6
29166	-3e-05	-3e-05	-8e-05	-1e-05	-7e-05	5e-05	7e-05	-7e-05	6
29167	-3e-05	-3e-05	-8e-05	-1e-05	-7e-05	5e-05	7e-05	-7e-05	6
29168	-3e-05	-3e-05	-8e-05	-1e-05	-7e-05	5e-05	7e-05	-7e-05	6
29169	-3e-05	-3e-05	-8e-05	-1e-05	-7e-05	5e-05	7e-05	-7e-05	6
29170	-3e-05	-3e-05	-8e-05	-1e-05	-7e-05	5e-05	7e-05	-7e-05	6
29171	-3e-05	-1e-05	-1e-05	-6e-05	-8e-05	-0.00034	-0.0001	8e-05	6
29172	-3e-05	-1e-05	-1e-05	-6e-05	-8e-05	-0.00034	-0.0001	8e-05	6
29173	-3e-05	-1e-05	-1e-05	-6e-05	-8e-05	-0.00034	-0.0001	8e-05	6
29174	-3e-05	-1e-05	-1e-05	-6e-05	-8e-05	-0.00034	-0.0001	8e-05	6
29175	-3e-05	-1e-05	-1e-05	-6e-05	-8e-05	-0.00034	-0.0001	8e-05	6
29176	-3e-05	-1e-05	-1e-05	-6e-05	-8e-05	-0.00034	-0.0001	8e-05	6
29177	-3e-05	-1e-05	-1e-05	-6e-05	-8e-05	-0.00034	-0.0001	8e-05	6
29178	-0.00011	-2e-05	-3e-05	-7e-05	-0.00019	0.00049	6e-05	-0.00035	6
29179	-0.00011	-2e-05	-3e-05	-7e-05	-0.00019	0.00049	6e-05	-0.00035	6
29180	-0.00011	-2e-05	-3e-05	-7e-05	-0.00019	0.00049	6e-05	-0.00035	6
29181	-0.00011	-2e-05	-3e-05	-7e-05	-0.00019	0.00049	6e-05	-0.00035	6
29182	-0.00011	-2e-05	-3e-05	-7e-05	-0.00019	0.00049	6e-05	-0.00035	6
29183	-0.00011	-2e-05	-3e-05	-7e-05	-0.00019	0.00049	6e-05	-0.00035	6
29184	-0.00011	-2e-05	-3e-05	-7e-05	-0.00019	0.00049	6e-05	-0.00035	6
29185	-0.00011	-2e-05	-3e-05	-7e-05	-0.00019	0.00049	6e-05	-0.00035	6
29186	-0.00011	-2e-05	-3e-05	-7e-05	-0.00019	0.00049	6e-05	-0.00035	6
29188	-0.00011	-2e-05	-3e-05	-7e-05	-0.00019	0.00049	6e-05	-0.00035	6
29189	-0.00011	-2e-05	-3e-05	-7e-05	-0.00019	0.00049	6e-05	-0.00035	6
29190	-0.00011	-2e-05	-3e-05	-7e-05	-0.00019	0.00049	6e-05	-0.00035	6
29191	-0.00011	-2e-05	-3e-05	-7e-05	-0.00019	0.00049	6e-05	-0.00035	6
29192	-0.00011	-2e-05	-3e-05	-7e-05	-0.00019	0.00049	6e-05	-0.00035	6
29193	-0.00011	-2e-05	-3e-05	-7e-05	-0.00019	0.00049	6e-05	-0.00035	6
29194	5e-05	-3e-05	-1e-05	0	0.00021	0.0005	-1e-05	6e-05	6
29195	5e-05	-3e-05	-1e-05	0	0.00021	0.0005	-1e-05	6e-05	6
29196	-0.00013	-2e-05	-4e-05	-2e-05	0.00036	2e-05	-7e-05	-0.0003	6
29197	-0.00013	-2e-05	-4e-05	-2e-05	0.00036	2e-05	-7e-05	-0.0003	6
29198	-0.00013	-2e-05	-4e-05	-2e-05	0.00036	2e-05	-7e-05	-0.0003	6
29199	-0.00013	-2e-05	-4e-05	-2e-05	0.00036	2e-05	-7e-05	-0.0003	6
29200	-0.00013	-2e-05	-4e-05	-2e-05	0.00036	2e-05	-7e-05	-0.0003	6
29201	-0.00013	-2e-05	-4e-05	-2e-05	0.00036	2e-05	-7e-05	-0.0003	6
29202	-0.00013	-2e-05	-4e-05	-2e-05	0.00036	2e-05	-7e-05	-0.0003	6
29203	-0.00013	-2e-05	-4e-05	-2e-05	0.00036	2e-05	-7e-05	-0.0003	6
29204	-0.00013	-2e-05	-4e-05	-2e-05	0.00036	2e-05	-7e-05	-0.0003	6
29205	-0.00013	-2e-05	-4e-05	-2e-05	0.00036	2e-05	-7e-05	-0.0003	6
29206	-0.00013	-2e-05	-4e-05	-2e-05	0.00036	2e-05	-7e-05	-0.0003	6
29207	-0.00013	-2e-05	-4e-05	-2e-05	0.00036	2e-05	-7e-05	-0.0003	6
29208	-0.00013	-2e-05	-4e-05	-2e-05	0.00036	2e-05	-7e-05	-0.0003	6
29209	-0.00013	-2e-05	-4e-05	-2e-05	0.00036	2e-05	-7e-05	-0.0003	6
29210	-0.00013	-2e-05	-4e-05	-2e-05	0.00036	2e-05	-7e-05	-0.0003	6
29211	-0.00013	-2e-05	-4e-05	-2e-05	0.00036	2e-05	-7e-05	-0.0003	6
29212	-0.00013	-2e-05	-4e-05	-2e-05	0.00036	2e-05	-7e-05	-0.0003	6
29213	-0.00013	-2e-05	-4e-05	-2e-05	0.00036	2e-05	-7e-05	-0.0003	6
29214	-0.00013	-2e-05	-4e-05	-2e-05	0.00036	2e-05	-7e-05	-0.0003	6
29215	-0.00013	-2e-05	-4e-05	-2e-05	0.00036	2e-05	-7e-05	-0.0003	6
29216	-2e-05	-2e-05	-4e-05	0	0.00014	6e-05	2e-05	0.00021	6
29217	-4e-05	-4e-05	-1e-05	2e-05	0.00012	1e-05	-1e-05	-0.0004	6
29218	-4e-05	0	3e-05	-3e-05	-0.00011	-0.00025	-6e-05	-4e-05	6
29219	-4e-05	0	3e-05	-3e-05	-0.00011	-0.00025	-6e-05	-4e-05	6
29220	-4e-05	0	3e-05	-3e-05	-0.00011	-0.00025	-6e-05	-4e-05	6
29221	-4e-05	0	3e-05	-3e-05	-0.00011	-0.00025	-6e-05	-4e-05	6
29222	-4e-05	0	3e-05	-3e-05	-0.00011	-0.00025	-6e-05	-4e-05	6
29223	-4e-05	0	3e-05	-3e-05	-0.00011	-0.00025	-6e-05	-4e-05	6
29224	-4e-05	0	3e-05	-3e-05	-0.00011	-0.00025	-6e-05	-4e-05	6
29225	-4e-05	0	3e-05	-3e-05	-0.00011	-0.00025	-6e-05	-4e-05	6
29226	-4e-05	0	3e-05	-3e-05	-0.00011	-0.00025	-6e-05	-4e-05	6
29227	-4e-05	0	3e-05	-3e-05	-0.00011	-0.00025	-6e-05	-4e-05	6
29228	-4e-05	0	3e-05	-3e-05	-0.00011	-0.00025	-6e-05	-4e-05	6
29229	-4e-05	0	3e-05	-3e-05	-0.00011	-0.00025	-6e-05	-4e-05	6
29230	-4e-05	0	3e-05	-3e-05	-0.00011	-0.00025	-6e-05	-4e-05	6
29231	-8e-05	-1e-05	2e-05	3e-05	3e-05	-7e-05	6e-05	-0.00017	6
29232	-8e-05	-1e-05	2e-05	3e-05	3e-05	-7e-05	6e-05	-0.00017	6
29233	-8e-05	-1e-05	2e-05	3e-05	3e-05	-7e-05	6e-05	-0.00017	6
29234	-8e-05	-1e-05	2e-05	3e-05	3e-05	-7e-05	6e-05	-0.00017	6
29235	-8e-05	-1e-05	2e-05	3e-05	3e-05	-7e-05	6e-05	-0.00017	6
29238	4e-05	3e-05	4e-05	7e-05	0.00037	-0.00056	-0.0002	0.00047	6
29240	4e-05	3e-05	4e-05	7e-05	0.00037	-0.00056	-0.0002	0.00047	6
29241	4e-05	3e-05	4e-05	7e-05	0.00037	-0.00056	-0.0002	0.00047	6
29242	4e-05	3e-05	4e-05	7e-05	0.00037	-0.00056	-0.0002	0.00047	6
29243	4e-05	3e-05	4e-05	7e-05	0.00037	-0.00056	-0.0002	0.00047	6
29244	4e-05	3e-05	4e-05	7e-05	0.00037	-0.00056	-0.0002	0.00047	6
29245	4e-05	3e-05	4e-05	7e-05	0.00037	-0.00056	-0.0002	0.00047	6
29246	4e-05	3e-05	4e-05	7e-05	0.00037	-0.00056	-0.0002	0.00047	6
29247	4e-05	3e-05	4e-05	7e-05	0.00037	-0.00056	-0.0002	0.00047	6
29248	4e-05	3e-05	4e-05	7e-05	0.00037	-0.00056	-0.0002	0.00047	6
29249	4e-05	3e-05	4e-05	7e-05	0.00037	-0.00056	-0.0002	0.00047	6
29250	4e-05	3e-05	4e-05	7e-05	0.00037	-0.00056	-0.0002	0.00047	6
29251	4e-05	3e-05	4e-05	7e-05	0.00037	-0.00056	-0.0002	0.00047	6
29252	4e-05	3e-05	4e-05	7e-05	0.00037	-0.00056	-0.0002	0.00047	6
29253	4e-05	3e-05	4e-05	7e-05	0.00037	-0.00056	-0.0002	0.00047	6
29254	7e-05	2e-05	1e-05	2e-05	-8e-05	-0.00018	0.00034	0.00013	6
29255	7e-05	2e-05	1e-05	2e-05	-8e-05	-0.00018	0.00034	0.00013	6
29256	-0.00013	-2e-05	-2e-05	-7e-05	-0.00018	0	-0.00018	-0.00053	6
29257	-0.00013	-2e-05	-2e-05	-7e-05	-0.00018	0	-0.00018	-0.00053	6
29258	-0.00013	-2e-05	-2e-05	-7e-05	-0.00018	0	-0.00018	-0.00053	6
29259	-0.00013	-2e-05	-2e-05	-7e-05	-0.00018	0	-0.00018	-0.00053	6
29260	-0.00013	-2e-05	-2e-05	-7e-05	-0.00018	0	-0.00018	-0.00053	6
29261	-0.00013	-2e-05	-2e-05	-7e-05	-0.00018	0	-0.00018	-0.00053	6
29262	-0.00013	-2e-05	-2e-05	-7e-05	-0.00018	0	-0.00018	-0.00053	6
29263	-0.00013	-2e-05	-2e-05	-7e-05	-0.00018	0	-0.00018	-0.00053	6
29264	-0.00013	-2e-05	-2e-05	-7e-05	-0.00018	0	-0.00018	-0.00053	6
29265	-0.00013	-2e-05	-2e-05	-7e-05	-0.00018	0	-0.00018	-0.00053	6
29266	-0.00013	-2e-05	-2e-05	-7e-05	-0.00018	0	-0.00018	-0.00053	6
29267	-0.00013	-2e-05	-2e-05	-7e-05	-0.00018	0	-0.00018	-0.00053	6
29268	-0.00013	-2e-05	-2e-05	-7e-05	-0.00018	0	-0.00018	-0.00053	6
29269	-0.00013	-2e-05	-2e-05	-7e-05	-0.00018	0	-0.00018	-0.00053	6
29270	-0.00013	-2e-05	-2e-05	-7e-05	-0.00018	0	-0.00018	-0.00053	6
29271	-0.00013	-2e-05	-2e-05	-7e-05	-0.00018	0	-0.00018	-0.00053	6
29272	-0.00013	-2e-05	-2e-05	-7e-05	-0.00018	0	-0.00018	-0.00053	6
29273	-0.00013	-2e-05	-2e-05	-7e-05	-0.00018	0	-0.00018	-0.00053	6
29274	-0.00013	-2e-05	-2e-05	-7e-05	-0.00018	0	-0.00018	-0.00053	6
29275	-0.00013	-2e-05	-2e-05	-7e-05	-0.00018	0	-0.00018	-0.00053	6
29276	0.00019	2e-05	-2e-05	-6e-05	-0.0002	-0.0003	0	0.00077	6
29277	-8e-05	-2e-05	-2e-05	-4e-05	-8e-05	0.00061	-2e-05	-0.00037	6
29278	0.00011	-4e-05	-3e-05	-4e-05	-4e-05	0	3e-05	0.0002	6
29279	0.00011	-4e-05	-3e-05	-4e-05	-4e-05	0	3e-05	0.0002	6
29280	0.00011	-4e-05	-3e-05	-4e-05	-4e-05	0	3e-05	0.0002	6
29281	0.00011	-4e-05	-3e-05	-4e-05	-4e-05	0	3e-05	0.0002	6
29282	0.00011	-4e-05	-3e-05	-4e-05	-4e-05	0	3e-05	0.0002	6
29283	0.00011	-4e-05	-3e-05	-4e-05	-4e-05	0	3e-05	0.0002	6
29284	0.00011	-4e-05	-3e-05	-4e-05	-4e-05	0	3e-05	0.0002	6
29285	0.00011	-4e-05	-3e-05	-4e-05	-4e-05	0	3e-05	0.0002	6
29286	0.00011	-4e-05	-3e-05	-4e-05	-4e-05	0	3e-05	0.0002	6
29289	0.00011	-4e-05	-3e-05	-4e-05	-4e-05	0	3e-05	0.0002	6
29290	0.00011	-4e-05	-3e-05	-4e-05	-4e-05	0	3e-05	0.0002	6
29291	-6e-05	-1e-05	-2e-05	-5e-05	-0.00051	6e-05	-0.00023	-0.00018	6
29292	-6e-05	-1e-05	-2e-05	-5e-05	-0.00051	6e-05	-0.00023	-0.00018	6
29293	-6e-05	-1e-05	-2e-05	-5e-05	-0.00051	6e-05	-0.00023	-0.00018	6
29294	-6e-05	-1e-05	-2e-05	-5e-05	-0.00051	6e-05	-0.00023	-0.00018	6
29295	-6e-05	-1e-05	-2e-05	-5e-05	-0.00051	6e-05	-0.00023	-0.00018	6
29296	-6e-05	-1e-05	-2e-05	-5e-05	-0.00051	6e-05	-0.00023	-0.00018	6
29297	-6e-05	-1e-05	-2e-05	-5e-05	-0.00051	6e-05	-0.00023	-0.00018	6
29298	9e-05	-3e-05	-3e-05	-9e-05	-0.00032	0.00022	-0.00012	0.00036	6
29299	9e-05	-3e-05	-3e-05	-9e-05	-0.00032	0.00022	-0.00012	0.00036	6
29300	9e-05	-3e-05	-3e-05	-9e-05	-0.00032	0.00022	-0.00012	0.00036	6
29301	9e-05	-3e-05	-3e-05	-9e-05	-0.00032	0.00022	-0.00012	0.00036	6
29302	9e-05	-3e-05	-3e-05	-9e-05	-0.00032	0.00022	-0.00012	0.00036	6
29303	9e-05	-3e-05	-3e-05	-9e-05	-0.00032	0.00022	-0.00012	0.00036	6
29304	9e-05	-3e-05	-3e-05	-9e-05	-0.00032	0.00022	-0.00012	0.00036	6
29305	9e-05	-3e-05	-3e-05	-9e-05	-0.00032	0.00022	-0.00012	0.00036	6
29306	9e-05	-3e-05	-3e-05	-9e-05	-0.00032	0.00022	-0.00012	0.00036	6
29307	9e-05	-3e-05	-3e-05	-9e-05	-0.00032	0.00022	-0.00012	0.00036	6
29308	9e-05	-3e-05	-3e-05	-9e-05	-0.00032	0.00022	-0.00012	0.00036	6
29309	9e-05	-3e-05	-3e-05	-9e-05	-0.00032	0.00022	-0.00012	0.00036	6
29310	9e-05	-3e-05	-3e-05	-9e-05	-0.00032	0.00022	-0.00012	0.00036	6
29311	9e-05	-3e-05	-3e-05	-9e-05	-0.00032	0.00022	-0.00012	0.00036	6
29312	9e-05	-3e-05	-3e-05	-9e-05	-0.00032	0.00022	-0.00012	0.00036	6
29313	9e-05	-3e-05	-3e-05	-9e-05	-0.00032	0.00022	-0.00012	0.00036	6
29314	3e-05	-1e-05	-4e-05	0	-4e-05	-0.00033	-5e-05	-6e-05	6
29315	3e-05	-1e-05	-4e-05	0	-4e-05	-0.00033	-5e-05	-6e-05	6
29316	-7e-05	1e-05	4e-05	2e-05	-0.00029	-0.00032	-7e-05	-0.00023	6
29317	-7e-05	1e-05	4e-05	2e-05	-0.00029	-0.00032	-7e-05	-0.00023	6
29318	-7e-05	1e-05	4e-05	2e-05	-0.00029	-0.00032	-7e-05	-0.00023	6
29319	-7e-05	1e-05	4e-05	2e-05	-0.00029	-0.00032	-7e-05	-0.00023	6
29320	-7e-05	1e-05	4e-05	2e-05	-0.00029	-0.00032	-7e-05	-0.00023	6
29321	-7e-05	1e-05	4e-05	2e-05	-0.00029	-0.00032	-7e-05	-0.00023	6
29322	-7e-05	1e-05	4e-05	2e-05	-0.00029	-0.00032	-7e-05	-0.00023	6
29323	-7e-05	1e-05	4e-05	2e-05	-0.00029	-0.00032	-7e-05	-0.00023	6
29324	-7e-05	1e-05	4e-05	2e-05	-0.00029	-0.00032	-7e-05	-0.00023	6
29325	-7e-05	1e-05	4e-05	2e-05	-0.00029	-0.00032	-7e-05	-0.00023	6
29326	-7e-05	1e-05	4e-05	2e-05	-0.00029	-0.00032	-7e-05	-0.00023	6
29327	-7e-05	1e-05	4e-05	2e-05	-0.00029	-0.00032	-7e-05	-0.00023	6
29328	-7e-05	1e-05	4e-05	2e-05	-0.00029	-0.00032	-7e-05	-0.00023	6
29329	-7e-05	1e-05	4e-05	2e-05	-0.00029	-0.00032	-7e-05	-0.00023	6
29330	-7e-05	1e-05	4e-05	2e-05	-0.00029	-0.00032	-7e-05	-0.00023	6
29331	-7e-05	1e-05	4e-05	2e-05	-0.00029	-0.00032	-7e-05	-0.00023	6
29332	-7e-05	1e-05	4e-05	2e-05	-0.00029	-0.00032	-7e-05	-0.00023	6
29333	-7e-05	1e-05	4e-05	2e-05	-0.00029	-0.00032	-7e-05	-0.00023	6
29334	-7e-05	1e-05	4e-05	2e-05	-0.00029	-0.00032	-7e-05	-0.00023	6
29335	-7e-05	1e-05	4e-05	2e-05	-0.00029	-0.00032	-7e-05	-0.00023	6
29336	-7e-05	1e-05	4e-05	2e-05	-0.00029	-0.00032	-7e-05	-0.00023	6
29339	-1e-05	2e-05	1e-05	-3e-05	-0.00015	-0.00026	-1e-05	6e-05	6
29340	-1e-05	2e-05	1e-05	-3e-05	-0.00015	-0.00026	-1e-05	6e-05	6
29341	-1e-05	2e-05	1e-05	-3e-05	-0.00015	-0.00026	-1e-05	6e-05	6
29342	-1e-05	2e-05	1e-05	-3e-05	-0.00015	-0.00026	-1e-05	6e-05	6
29343	0.00011	0	-1e-05	4e-05	4e-05	0.00021	1e-05	0.00064	6
29344	0.00011	0	-1e-05	4e-05	4e-05	0.00021	1e-05	0.00064	6
29345	0.00011	0	-1e-05	4e-05	4e-05	0.00021	1e-05	0.00064	6
29346	0.00011	0	-1e-05	4e-05	4e-05	0.00021	1e-05	0.00064	6
29347	0.00011	0	-1e-05	4e-05	4e-05	0.00021	1e-05	0.00064	6
29348	0.00011	0	-1e-05	4e-05	4e-05	0.00021	1e-05	0.00064	6
29349	0.00011	0	-1e-05	4e-05	4e-05	0.00021	1e-05	0.00064	6
29350	-9e-05	-1e-05	-2e-05	-4e-05	-1e-05	-0.00025	-3e-05	-0.00059	6
29351	-9e-05	-1e-05	-2e-05	-4e-05	-1e-05	-0.00025	-3e-05	-0.00059	6
29352	-9e-05	-1e-05	-2e-05	-4e-05	-1e-05	-0.00025	-3e-05	-0.00059	6
29353	-9e-05	-1e-05	-2e-05	-4e-05	-1e-05	-0.00025	-3e-05	-0.00059	6
29354	-9e-05	-1e-05	-2e-05	-4e-05	-1e-05	-0.00025	-3e-05	-0.00059	6
29355	-9e-05	-1e-05	-2e-05	-4e-05	-1e-05	-0.00025	-3e-05	-0.00059	6
29356	-9e-05	-1e-05	-2e-05	-4e-05	-1e-05	-0.00025	-3e-05	-0.00059	6
29357	-9e-05	-1e-05	-2e-05	-4e-05	-1e-05	-0.00025	-3e-05	-0.00059	6
29358	-9e-05	-1e-05	-2e-05	-4e-05	-1e-05	-0.00025	-3e-05	-0.00059	6
29359	-2e-05	-1e-05	0	-4e-05	-0.00012	7e-05	7e-05	-0.00014	6
29360	-2e-05	-1e-05	0	-4e-05	-0.00012	7e-05	7e-05	-0.00014	6
29361	-2e-05	-1e-05	0	-4e-05	-0.00012	7e-05	7e-05	-0.00014	6
29362	-2e-05	-1e-05	0	-4e-05	-0.00012	7e-05	7e-05	-0.00014	6
29363	-2e-05	-1e-05	0	-4e-05	-0.00012	7e-05	7e-05	-0.00014	6
29364	-2e-05	-1e-05	0	-4e-05	-0.00012	7e-05	7e-05	-0.00014	6
29365	-2e-05	-1e-05	0	-4e-05	-0.00012	7e-05	7e-05	-0.00014	6
29366	-2e-05	-1e-05	0	-4e-05	-0.00012	7e-05	7e-05	-0.00014	6
29367	-2e-05	-1e-05	0	-4e-05	-0.00012	7e-05	7e-05	-0.00014	6
29368	-2e-05	-1e-05	0	-4e-05	-0.00012	7e-05	7e-05	-0.00014	6
29369	-2e-05	-1e-05	0	-4e-05	-0.00012	7e-05	7e-05	-0.00014	6
29370	-2e-05	-1e-05	0	-4e-05	-0.00012	7e-05	7e-05	-0.00014	6
29371	-2e-05	-1e-05	0	-4e-05	-0.00012	7e-05	7e-05	-0.00014	6
29372	-2e-05	-1e-05	0	-4e-05	-0.00012	7e-05	7e-05	-0.00014	6
29373	-2e-05	-1e-05	0	-4e-05	-0.00012	7e-05	7e-05	-0.00014	6
29374	-4e-05	3e-05	0	2e-05	0.00015	0.00019	0.00027	-0.00028	6
29375	-4e-05	3e-05	0	2e-05	0.00015	0.00019	0.00027	-0.00028	6
29376	-0.0001	-2e-05	-2e-05	-2e-05	0.00011	0.00022	0.00016	-0.00035	6
29377	-0.0001	-2e-05	-2e-05	-2e-05	0.00011	0.00022	0.00016	-0.00035	6
29378	-0.0001	-2e-05	-2e-05	-2e-05	0.00011	0.00022	0.00016	-0.00035	6
29379	-0.0001	-2e-05	-2e-05	-2e-05	0.00011	0.00022	0.00016	-0.00035	6
29380	-0.0001	-2e-05	-2e-05	-2e-05	0.00011	0.00022	0.00016	-0.00035	6
29381	-0.0001	-2e-05	-2e-05	-2e-05	0.00011	0.00022	0.00016	-0.00035	6
29382	-0.0001	-2e-05	-2e-05	-2e-05	0.00011	0.00022	0.00016	-0.00035	6
29383	-0.0001	-2e-05	-2e-05	-2e-05	0.00011	0.00022	0.00016	-0.00035	6
29384	-0.0001	-2e-05	-2e-05	-2e-05	0.00011	0.00022	0.00016	-0.00035	6
29385	-0.0001	-2e-05	-2e-05	-2e-05	0.00011	0.00022	0.00016	-0.00035	6
29386	-0.0001	-2e-05	-2e-05	-2e-05	0.00011	0.00022	0.00016	-0.00035	6
29388	-0.0001	-2e-05	-2e-05	-2e-05	0.00011	0.00022	0.00016	-0.00035	6
29389	-0.0001	-2e-05	-2e-05	-2e-05	0.00011	0.00022	0.00016	-0.00035	6
29390	-0.0001	-2e-05	-2e-05	-2e-05	0.00011	0.00022	0.00016	-0.00035	6
29391	-0.0001	-2e-05	-2e-05	-2e-05	0.00011	0.00022	0.00016	-0.00035	6
29392	-0.0001	-2e-05	-2e-05	-2e-05	0.00011	0.00022	0.00016	-0.00035	6
29393	-0.0001	-2e-05	-2e-05	-2e-05	0.00011	0.00022	0.00016	-0.00035	6
29394	-0.0001	-2e-05	-2e-05	-2e-05	0.00011	0.00022	0.00016	-0.00035	6
29395	-0.0001	-2e-05	-2e-05	-2e-05	0.00011	0.00022	0.00016	-0.00035	6
29396	0	-3e-05	0	-4e-05	-0.00026	-9e-05	-0.00013	0.00022	6
29397	-0.00012	-4e-05	0	0.00014	0.00056	0.00046	-1e-05	-0.00043	6
29398	6e-05	2e-05	0	-2e-05	-0.0001	-9e-05	0	0.00023	6
29399	6e-05	2e-05	0	-2e-05	-0.0001	-9e-05	0	0.00023	6
29400	6e-05	2e-05	0	-2e-05	-0.0001	-9e-05	0	0.00023	6
29401	6e-05	2e-05	0	-2e-05	-0.0001	-9e-05	0	0.00023	6
29402	6e-05	2e-05	0	-2e-05	-0.0001	-9e-05	0	0.00023	6
29403	6e-05	2e-05	0	-2e-05	-0.0001	-9e-05	0	0.00023	6
29404	6e-05	2e-05	0	-2e-05	-0.0001	-9e-05	0	0.00023	6
29405	6e-05	2e-05	0	-2e-05	-0.0001	-9e-05	0	0.00023	6
29406	6e-05	2e-05	0	-2e-05	-0.0001	-9e-05	0	0.00023	6
29407	6e-05	2e-05	0	-2e-05	-0.0001	-9e-05	0	0.00023	6
29408	6e-05	2e-05	0	-2e-05	-0.0001	-9e-05	0	0.00023	6
29409	6e-05	2e-05	0	-2e-05	-0.0001	-9e-05	0	0.00023	6
29410	-1e-05	-3e-05	-5e-05	-0.00013	-0.00015	0.00022	-0.00016	0.00019	6
29411	-1e-05	-3e-05	-5e-05	-0.00013	-0.00015	0.00022	-0.00016	0.00019	6
29412	-1e-05	-3e-05	-5e-05	-0.00013	-0.00015	0.00022	-0.00016	0.00019	6
29413	-1e-05	-3e-05	-5e-05	-0.00013	-0.00015	0.00022	-0.00016	0.00019	6
29414	-1e-05	-3e-05	-5e-05	-0.00013	-0.00015	0.00022	-0.00016	0.00019	6
29415	-1e-05	-3e-05	-5e-05	-0.00013	-0.00015	0.00022	-0.00016	0.00019	6
29416	-1e-05	-3e-05	-5e-05	-0.00013	-0.00015	0.00022	-0.00016	0.00019	6
29417	-1e-05	-3e-05	-5e-05	-0.00013	-0.00015	0.00022	-0.00016	0.00019	6
29418	-1e-05	-3e-05	-5e-05	-0.00013	-0.00015	0.00022	-0.00016	0.00019	6
29419	4e-05	0	-1e-05	-3e-05	0	-0.00012	-0.00018	-0.00035	6
29420	4e-05	0	-1e-05	-3e-05	0	-0.00012	-0.00018	-0.00035	6
29421	4e-05	0	-1e-05	-3e-05	0	-0.00012	-0.00018	-0.00035	6
29422	4e-05	0	-1e-05	-3e-05	0	-0.00012	-0.00018	-0.00035	6
29423	4e-05	0	-1e-05	-3e-05	0	-0.00012	-0.00018	-0.00035	6
29424	4e-05	0	-1e-05	-3e-05	0	-0.00012	-0.00018	-0.00035	6
29425	4e-05	0	-1e-05	-3e-05	0	-0.00012	-0.00018	-0.00035	6
29426	4e-05	0	-1e-05	-3e-05	0	-0.00012	-0.00018	-0.00035	6
29427	4e-05	0	-1e-05	-3e-05	0	-0.00012	-0.00018	-0.00035	6
29428	4e-05	0	-1e-05	-3e-05	0	-0.00012	-0.00018	-0.00035	6
29429	4e-05	0	-1e-05	-3e-05	0	-0.00012	-0.00018	-0.00035	6
29430	4e-05	0	-1e-05	-3e-05	0	-0.00012	-0.00018	-0.00035	6
29431	4e-05	0	-1e-05	-3e-05	0	-0.00012	-0.00018	-0.00035	6
29432	4e-05	0	-1e-05	-3e-05	0	-0.00012	-0.00018	-0.00035	6
29433	4e-05	0	-1e-05	-3e-05	0	-0.00012	-0.00018	-0.00035	6
29434	1e-05	2e-05	4e-05	9e-05	7e-05	-0.00026	-6e-05	0.0001	6
29435	1e-05	2e-05	4e-05	9e-05	7e-05	-0.00026	-6e-05	0.0001	6
29436	-0.00022	1e-05	-1e-05	-8e-05	-0.00019	-0.00023	-0.0001	-0.00073	6
29438	-0.00022	1e-05	-1e-05	-8e-05	-0.00019	-0.00023	-0.0001	-0.00073	6
29439	-0.00022	1e-05	-1e-05	-8e-05	-0.00019	-0.00023	-0.0001	-0.00073	6
29440	-0.00022	1e-05	-1e-05	-8e-05	-0.00019	-0.00023	-0.0001	-0.00073	6
29441	-0.00022	1e-05	-1e-05	-8e-05	-0.00019	-0.00023	-0.0001	-0.00073	6
29442	-0.00022	1e-05	-1e-05	-8e-05	-0.00019	-0.00023	-0.0001	-0.00073	6
29443	-0.00022	1e-05	-1e-05	-8e-05	-0.00019	-0.00023	-0.0001	-0.00073	6
29444	-0.00022	1e-05	-1e-05	-8e-05	-0.00019	-0.00023	-0.0001	-0.00073	6
29445	-0.00022	1e-05	-1e-05	-8e-05	-0.00019	-0.00023	-0.0001	-0.00073	6
29446	-0.00022	1e-05	-1e-05	-8e-05	-0.00019	-0.00023	-0.0001	-0.00073	6
29447	-0.00022	1e-05	-1e-05	-8e-05	-0.00019	-0.00023	-0.0001	-0.00073	6
29448	-0.00022	1e-05	-1e-05	-8e-05	-0.00019	-0.00023	-0.0001	-0.00073	6
29449	-0.00022	1e-05	-1e-05	-8e-05	-0.00019	-0.00023	-0.0001	-0.00073	6
29450	-0.00022	1e-05	-1e-05	-8e-05	-0.00019	-0.00023	-0.0001	-0.00073	6
29451	-0.00022	1e-05	-1e-05	-8e-05	-0.00019	-0.00023	-0.0001	-0.00073	6
29452	-0.00022	1e-05	-1e-05	-8e-05	-0.00019	-0.00023	-0.0001	-0.00073	6
29453	-0.00022	1e-05	-1e-05	-8e-05	-0.00019	-0.00023	-0.0001	-0.00073	6
29454	-0.00022	1e-05	-1e-05	-8e-05	-0.00019	-0.00023	-0.0001	-0.00073	6
29455	-0.00022	1e-05	-1e-05	-8e-05	-0.00019	-0.00023	-0.0001	-0.00073	6
29456	7e-05	-1e-05	-1e-05	-5e-05	-3e-05	9e-05	-3e-05	-0.00012	6
29457	-5e-05	-1e-05	-3e-05	0	0.00019	0.00017	0	0.00014	6
29458	-3e-05	-4e-05	-1e-05	7e-05	3e-05	0.00013	2e-05	-0.00101	6
29459	-3e-05	-4e-05	-1e-05	7e-05	3e-05	0.00013	2e-05	-0.00101	6
29460	-3e-05	-4e-05	-1e-05	7e-05	3e-05	0.00013	2e-05	-0.00101	6
29461	-3e-05	-4e-05	-1e-05	7e-05	3e-05	0.00013	2e-05	-0.00101	6
29462	-3e-05	-4e-05	-1e-05	7e-05	3e-05	0.00013	2e-05	-0.00101	6
29463	-3e-05	-4e-05	-1e-05	7e-05	3e-05	0.00013	2e-05	-0.00101	6
29464	-3e-05	-4e-05	-1e-05	7e-05	3e-05	0.00013	2e-05	-0.00101	6
29465	-3e-05	-4e-05	-1e-05	7e-05	3e-05	0.00013	2e-05	-0.00101	6
29466	-3e-05	-4e-05	-1e-05	7e-05	3e-05	0.00013	2e-05	-0.00101	6
29467	-3e-05	-4e-05	-1e-05	7e-05	3e-05	0.00013	2e-05	-0.00101	6
29468	-3e-05	-4e-05	-1e-05	7e-05	3e-05	0.00013	2e-05	-0.00101	6
29469	-3e-05	-4e-05	-1e-05	7e-05	3e-05	0.00013	2e-05	-0.00101	6
29470	-3e-05	-4e-05	-1e-05	7e-05	3e-05	0.00013	2e-05	-0.00101	6
29471	2e-05	-2e-05	-3e-05	0	0.00018	-0.00072	3e-05	-7e-05	6
29472	2e-05	-2e-05	-3e-05	0	0.00018	-0.00072	3e-05	-7e-05	6
29473	2e-05	-2e-05	-3e-05	0	0.00018	-0.00072	3e-05	-7e-05	6
29474	2e-05	-2e-05	-3e-05	0	0.00018	-0.00072	3e-05	-7e-05	6
29475	2e-05	-2e-05	-3e-05	0	0.00018	-0.00072	3e-05	-7e-05	6
29476	2e-05	-2e-05	-3e-05	0	0.00018	-0.00072	3e-05	-7e-05	6
29477	2e-05	-2e-05	-3e-05	0	0.00018	-0.00072	3e-05	-7e-05	6
29478	2e-05	-2e-05	-3e-05	0	0.00018	-0.00072	3e-05	-7e-05	6
29479	0	-6e-05	-3e-05	-5e-05	-4e-05	-8e-05	-7e-05	0.00027	6
29480	0	-6e-05	-3e-05	-5e-05	-4e-05	-8e-05	-7e-05	0.00027	6
29481	0	-6e-05	-3e-05	-5e-05	-4e-05	-8e-05	-7e-05	0.00027	6
29482	0	-6e-05	-3e-05	-5e-05	-4e-05	-8e-05	-7e-05	0.00027	6
29483	0	-6e-05	-3e-05	-5e-05	-4e-05	-8e-05	-7e-05	0.00027	6
29484	0	-6e-05	-3e-05	-5e-05	-4e-05	-8e-05	-7e-05	0.00027	6
29485	0	-6e-05	-3e-05	-5e-05	-4e-05	-8e-05	-7e-05	0.00027	6
29486	0	-6e-05	-3e-05	-5e-05	-4e-05	-8e-05	-7e-05	0.00027	6
29489	0	-6e-05	-3e-05	-5e-05	-4e-05	-8e-05	-7e-05	0.00027	6
29490	0	-6e-05	-3e-05	-5e-05	-4e-05	-8e-05	-7e-05	0.00027	6
29491	0	-6e-05	-3e-05	-5e-05	-4e-05	-8e-05	-7e-05	0.00027	6
29492	0	-6e-05	-3e-05	-5e-05	-4e-05	-8e-05	-7e-05	0.00027	6
29493	0	-6e-05	-3e-05	-5e-05	-4e-05	-8e-05	-7e-05	0.00027	6
29494	1e-05	-7e-05	-2e-05	2e-05	0.00013	0.00032	0.00011	0.00051	6
29495	1e-05	-7e-05	-2e-05	2e-05	0.00013	0.00032	0.00011	0.00051	6
29496	4e-05	-3e-05	-2e-05	-2e-05	-9e-05	-0.00015	0.00019	-0.00017	6
29497	4e-05	-3e-05	-2e-05	-2e-05	-9e-05	-0.00015	0.00019	-0.00017	6
29498	4e-05	-3e-05	-2e-05	-2e-05	-9e-05	-0.00015	0.00019	-0.00017	6
29499	4e-05	-3e-05	-2e-05	-2e-05	-9e-05	-0.00015	0.00019	-0.00017	6
29500	4e-05	-3e-05	-2e-05	-2e-05	-9e-05	-0.00015	0.00019	-0.00017	6
29501	4e-05	-3e-05	-2e-05	-2e-05	-9e-05	-0.00015	0.00019	-0.00017	6
29502	4e-05	-3e-05	-2e-05	-2e-05	-9e-05	-0.00015	0.00019	-0.00017	6
29503	4e-05	-3e-05	-2e-05	-2e-05	-9e-05	-0.00015	0.00019	-0.00017	6
29504	4e-05	-3e-05	-2e-05	-2e-05	-9e-05	-0.00015	0.00019	-0.00017	6
29505	4e-05	-3e-05	-2e-05	-2e-05	-9e-05	-0.00015	0.00019	-0.00017	6
29506	4e-05	-3e-05	-2e-05	-2e-05	-9e-05	-0.00015	0.00019	-0.00017	6
29507	4e-05	-3e-05	-2e-05	-2e-05	-9e-05	-0.00015	0.00019	-0.00017	6
29508	4e-05	-3e-05	-2e-05	-2e-05	-9e-05	-0.00015	0.00019	-0.00017	6
29509	4e-05	-3e-05	-2e-05	-2e-05	-9e-05	-0.00015	0.00019	-0.00017	6
29510	4e-05	-3e-05	-2e-05	-2e-05	-9e-05	-0.00015	0.00019	-0.00017	6
29511	4e-05	-3e-05	-2e-05	-2e-05	-9e-05	-0.00015	0.00019	-0.00017	6
29512	4e-05	-3e-05	-2e-05	-2e-05	-9e-05	-0.00015	0.00019	-0.00017	6
29513	4e-05	-3e-05	-2e-05	-2e-05	-9e-05	-0.00015	0.00019	-0.00017	6
29514	4e-05	-3e-05	-2e-05	-2e-05	-9e-05	-0.00015	0.00019	-0.00017	6
29515	4e-05	-3e-05	-2e-05	-2e-05	-9e-05	-0.00015	0.00019	-0.00017	6
29516	1e-05	-3e-05	-2e-05	3e-05	0.00024	0.00016	-8e-05	0.00016	6
29517	-5e-05	-4e-05	0	-2e-05	9e-05	-2e-05	-0.00011	-0.00031	6
29518	-3e-05	0	2e-05	2e-05	0.00016	-5e-05	0.00012	0.00017	6
29519	-3e-05	0	2e-05	2e-05	0.00016	-5e-05	0.00012	0.00017	6
29520	-3e-05	0	2e-05	2e-05	0.00016	-5e-05	0.00012	0.00017	6
29521	-3e-05	0	2e-05	2e-05	0.00016	-5e-05	0.00012	0.00017	6
29522	-3e-05	0	2e-05	2e-05	0.00016	-5e-05	0.00012	0.00017	6
29523	-3e-05	0	2e-05	2e-05	0.00016	-5e-05	0.00012	0.00017	6
29524	-3e-05	0	2e-05	2e-05	0.00016	-5e-05	0.00012	0.00017	6
29525	-3e-05	0	2e-05	2e-05	0.00016	-5e-05	0.00012	0.00017	6
29526	-3e-05	0	2e-05	2e-05	0.00016	-5e-05	0.00012	0.00017	6
29527	-3e-05	0	2e-05	2e-05	0.00016	-5e-05	0.00012	0.00017	6
29528	-3e-05	0	2e-05	2e-05	0.00016	-5e-05	0.00012	0.00017	6
29529	-3e-05	0	2e-05	2e-05	0.00016	-5e-05	0.00012	0.00017	6
29530	2e-05	2e-05	-1e-05	-3e-05	-0.0001	0.00019	6e-05	-0.00054	6
29531	2e-05	2e-05	-1e-05	-3e-05	-0.0001	0.00019	6e-05	-0.00054	6
29532	2e-05	2e-05	-1e-05	-3e-05	-0.0001	0.00019	6e-05	-0.00054	6
29533	2e-05	2e-05	-1e-05	-3e-05	-0.0001	0.00019	6e-05	-0.00054	6
29534	2e-05	2e-05	-1e-05	-3e-05	-0.0001	0.00019	6e-05	-0.00054	6
29535	2e-05	2e-05	-1e-05	-3e-05	-0.0001	0.00019	6e-05	-0.00054	6
29536	2e-05	2e-05	-1e-05	-3e-05	-0.0001	0.00019	6e-05	-0.00054	6
29539	8e-05	2e-05	-3e-05	2e-05	-4e-05	0.0005	3e-05	0.00053	6
29540	8e-05	2e-05	-3e-05	2e-05	-4e-05	0.0005	3e-05	0.00053	6
29541	8e-05	2e-05	-3e-05	2e-05	-4e-05	0.0005	3e-05	0.00053	6
29542	8e-05	2e-05	-3e-05	2e-05	-4e-05	0.0005	3e-05	0.00053	6
29543	8e-05	2e-05	-3e-05	2e-05	-4e-05	0.0005	3e-05	0.00053	6
29544	8e-05	2e-05	-3e-05	2e-05	-4e-05	0.0005	3e-05	0.00053	6
29545	8e-05	2e-05	-3e-05	2e-05	-4e-05	0.0005	3e-05	0.00053	6
29546	8e-05	2e-05	-3e-05	2e-05	-4e-05	0.0005	3e-05	0.00053	6
29547	8e-05	2e-05	-3e-05	2e-05	-4e-05	0.0005	3e-05	0.00053	6
29548	8e-05	2e-05	-3e-05	2e-05	-4e-05	0.0005	3e-05	0.00053	6
29549	8e-05	2e-05	-3e-05	2e-05	-4e-05	0.0005	3e-05	0.00053	6
29550	8e-05	2e-05	-3e-05	2e-05	-4e-05	0.0005	3e-05	0.00053	6
29551	8e-05	2e-05	-3e-05	2e-05	-4e-05	0.0005	3e-05	0.00053	6
29552	8e-05	2e-05	-3e-05	2e-05	-4e-05	0.0005	3e-05	0.00053	6
29553	8e-05	2e-05	-3e-05	2e-05	-4e-05	0.0005	3e-05	0.00053	6
29554	-5e-05	1e-05	-3e-05	1e-05	0.00016	0.00037	-0.00014	0.0002	6
29555	-5e-05	1e-05	-3e-05	1e-05	0.00016	0.00037	-0.00014	0.0002	6
29556	0.00011	-1e-05	-2e-05	-5e-05	-0.00046	-0.00065	-2e-05	0.00014	6
29557	0.00011	-1e-05	-2e-05	-5e-05	-0.00046	-0.00065	-2e-05	0.00014	6
29558	0.00011	-1e-05	-2e-05	-5e-05	-0.00046	-0.00065	-2e-05	0.00014	6
29559	0.00011	-1e-05	-2e-05	-5e-05	-0.00046	-0.00065	-2e-05	0.00014	6
29560	0.00011	-1e-05	-2e-05	-5e-05	-0.00046	-0.00065	-2e-05	0.00014	6
29561	0.00011	-1e-05	-2e-05	-5e-05	-0.00046	-0.00065	-2e-05	0.00014	6
29562	0.00011	-1e-05	-2e-05	-5e-05	-0.00046	-0.00065	-2e-05	0.00014	6
29563	0.00011	-1e-05	-2e-05	-5e-05	-0.00046	-0.00065	-2e-05	0.00014	6
29564	0.00011	-1e-05	-2e-05	-5e-05	-0.00046	-0.00065	-2e-05	0.00014	6
29565	0.00011	-1e-05	-2e-05	-5e-05	-0.00046	-0.00065	-2e-05	0.00014	6
29566	0.00011	-1e-05	-2e-05	-5e-05	-0.00046	-0.00065	-2e-05	0.00014	6
29567	0.00011	-1e-05	-2e-05	-5e-05	-0.00046	-0.00065	-2e-05	0.00014	6
29568	0.00011	-1e-05	-2e-05	-5e-05	-0.00046	-0.00065	-2e-05	0.00014	6
29569	0.00011	-1e-05	-2e-05	-5e-05	-0.00046	-0.00065	-2e-05	0.00014	6
29570	0.00011	-1e-05	-2e-05	-5e-05	-0.00046	-0.00065	-2e-05	0.00014	6
29571	0.00011	-1e-05	-2e-05	-5e-05	-0.00046	-0.00065	-2e-05	0.00014	6
29572	0.00011	-1e-05	-2e-05	-5e-05	-0.00046	-0.00065	-2e-05	0.00014	6
29573	0.00011	-1e-05	-2e-05	-5e-05	-0.00046	-0.00065	-2e-05	0.00014	6
29574	0.00011	-1e-05	-2e-05	-5e-05	-0.00046	-0.00065	-2e-05	0.00014	6
29575	0.00011	-1e-05	-2e-05	-5e-05	-0.00046	-0.00065	-2e-05	0.00014	6
29576	-0.0001	-3e-05	-1e-05	3e-05	-0.00027	-0.00028	3e-05	-0.00066	6
29577	0	0	-1e-05	4e-05	0.00022	9e-05	1e-05	4e-05	6
29578	6e-05	0	-1e-05	2e-05	2e-05	0.00013	0.0002	0.00011	6
29579	6e-05	0	-1e-05	2e-05	2e-05	0.00013	0.0002	0.00011	6
29580	6e-05	0	-1e-05	2e-05	2e-05	0.00013	0.0002	0.00011	6
29581	6e-05	0	-1e-05	2e-05	2e-05	0.00013	0.0002	0.00011	6
29582	6e-05	0	-1e-05	2e-05	2e-05	0.00013	0.0002	0.00011	6
29583	6e-05	0	-1e-05	2e-05	2e-05	0.00013	0.0002	0.00011	6
29584	6e-05	0	-1e-05	2e-05	2e-05	0.00013	0.0002	0.00011	6
29585	6e-05	0	-1e-05	2e-05	2e-05	0.00013	0.0002	0.00011	6
29586	6e-05	0	-1e-05	2e-05	2e-05	0.00013	0.0002	0.00011	6
29589	6e-05	0	-1e-05	2e-05	2e-05	0.00013	0.0002	0.00011	6
29590	-0.00017	-5e-05	-1e-05	-3e-05	-0.00046	-0.00061	-3e-05	-0.0005	6
29591	-0.00017	-5e-05	-1e-05	-3e-05	-0.00046	-0.00061	-3e-05	-0.0005	6
29592	-0.00017	-5e-05	-1e-05	-3e-05	-0.00046	-0.00061	-3e-05	-0.0005	6
29593	-0.00017	-5e-05	-1e-05	-3e-05	-0.00046	-0.00061	-3e-05	-0.0005	6
29594	-0.00017	-5e-05	-1e-05	-3e-05	-0.00046	-0.00061	-3e-05	-0.0005	6
29595	-0.00017	-5e-05	-1e-05	-3e-05	-0.00046	-0.00061	-3e-05	-0.0005	6
29596	-0.00017	-5e-05	-1e-05	-3e-05	-0.00046	-0.00061	-3e-05	-0.0005	6
29597	-0.00017	-5e-05	-1e-05	-3e-05	-0.00046	-0.00061	-3e-05	-0.0005	6
29598	-0.00017	-5e-05	-1e-05	-3e-05	-0.00046	-0.00061	-3e-05	-0.0005	6
29599	-0.00012	2e-05	0	-2e-05	0.00013	-2e-05	3e-05	-0.0001	6
29600	-0.00012	2e-05	0	-2e-05	0.00013	-2e-05	3e-05	-0.0001	6
29601	-0.00012	2e-05	0	-2e-05	0.00013	-2e-05	3e-05	-0.0001	6
29602	-0.00012	2e-05	0	-2e-05	0.00013	-2e-05	3e-05	-0.0001	6
29603	-0.00012	2e-05	0	-2e-05	0.00013	-2e-05	3e-05	-0.0001	6
29604	-0.00012	2e-05	0	-2e-05	0.00013	-2e-05	3e-05	-0.0001	6
29605	-0.00012	2e-05	0	-2e-05	0.00013	-2e-05	3e-05	-0.0001	6
29606	-0.00012	2e-05	0	-2e-05	0.00013	-2e-05	3e-05	-0.0001	6
29607	-0.00012	2e-05	0	-2e-05	0.00013	-2e-05	3e-05	-0.0001	6
29608	-0.00012	2e-05	0	-2e-05	0.00013	-2e-05	3e-05	-0.0001	6
29609	-0.00012	2e-05	0	-2e-05	0.00013	-2e-05	3e-05	-0.0001	6
29610	-0.00012	2e-05	0	-2e-05	0.00013	-2e-05	3e-05	-0.0001	6
29611	-0.00012	2e-05	0	-2e-05	0.00013	-2e-05	3e-05	-0.0001	6
29612	-0.00012	2e-05	0	-2e-05	0.00013	-2e-05	3e-05	-0.0001	6
29613	-0.00012	2e-05	0	-2e-05	0.00013	-2e-05	3e-05	-0.0001	6
29614	-3e-05	4e-05	1e-05	-3e-05	-0.00023	-0.00052	-5e-05	-0.00018	6
29615	-3e-05	4e-05	1e-05	-3e-05	-0.00023	-0.00052	-5e-05	-0.00018	6
29616	-5e-05	-2e-05	-4e-05	-8e-05	-0.00012	-0.00021	-0.00019	1e-05	6
29617	-5e-05	-2e-05	-4e-05	-8e-05	-0.00012	-0.00021	-0.00019	1e-05	6
29618	-5e-05	-2e-05	-4e-05	-8e-05	-0.00012	-0.00021	-0.00019	1e-05	6
29619	-5e-05	-2e-05	-4e-05	-8e-05	-0.00012	-0.00021	-0.00019	1e-05	6
29620	-5e-05	-2e-05	-4e-05	-8e-05	-0.00012	-0.00021	-0.00019	1e-05	6
29621	-5e-05	-2e-05	-4e-05	-8e-05	-0.00012	-0.00021	-0.00019	1e-05	6
29622	-5e-05	-2e-05	-4e-05	-8e-05	-0.00012	-0.00021	-0.00019	1e-05	6
29623	-5e-05	-2e-05	-4e-05	-8e-05	-0.00012	-0.00021	-0.00019	1e-05	6
29624	-5e-05	-2e-05	-4e-05	-8e-05	-0.00012	-0.00021	-0.00019	1e-05	6
29625	-5e-05	-2e-05	-4e-05	-8e-05	-0.00012	-0.00021	-0.00019	1e-05	6
29626	-5e-05	-2e-05	-4e-05	-8e-05	-0.00012	-0.00021	-0.00019	1e-05	6
29627	-5e-05	-2e-05	-4e-05	-8e-05	-0.00012	-0.00021	-0.00019	1e-05	6
29628	-5e-05	-2e-05	-4e-05	-8e-05	-0.00012	-0.00021	-0.00019	1e-05	6
29629	-5e-05	-2e-05	-4e-05	-8e-05	-0.00012	-0.00021	-0.00019	1e-05	6
29630	-5e-05	-2e-05	-4e-05	-8e-05	-0.00012	-0.00021	-0.00019	1e-05	6
29631	-5e-05	-2e-05	-4e-05	-8e-05	-0.00012	-0.00021	-0.00019	1e-05	6
29632	-5e-05	-2e-05	-4e-05	-8e-05	-0.00012	-0.00021	-0.00019	1e-05	6
29633	-5e-05	-2e-05	-4e-05	-8e-05	-0.00012	-0.00021	-0.00019	1e-05	6
29634	-5e-05	-2e-05	-4e-05	-8e-05	-0.00012	-0.00021	-0.00019	1e-05	6
29635	-5e-05	-2e-05	-4e-05	-8e-05	-0.00012	-0.00021	-0.00019	1e-05	6
29636	-2e-05	0	0	0	1e-05	0.00027	0.00013	-0.00037	6
29639	-0.0002	-1e-05	-1e-05	-7e-05	-0.00029	-4e-05	0.0001	-0.00043	6
55839	-8e-05	-0.00015	1e-05	-5e-05	0.00031	0.00032	0.00014	-0.00011	6
55840	-8e-05	-0.00015	1e-05	-5e-05	0.00031	0.00032	0.00014	-0.00011	6
55841	-8e-05	-0.00015	1e-05	-5e-05	0.00031	0.00032	0.00014	-0.00011	6
55842	0.00013	2e-05	2e-05	1e-05	4e-05	0.0005	-0.0001	0.00027	6
55843	0.00013	2e-05	2e-05	1e-05	4e-05	0.0005	-0.0001	0.00027	6
55844	0.00013	2e-05	2e-05	1e-05	4e-05	0.0005	-0.0001	0.00027	6
55845	0.00013	2e-05	2e-05	1e-05	4e-05	0.0005	-0.0001	0.00027	6
55846	0.00013	2e-05	2e-05	1e-05	4e-05	0.0005	-0.0001	0.00027	6
55847	0.00013	2e-05	2e-05	1e-05	4e-05	0.0005	-0.0001	0.00027	6
55848	-0.00026	-5e-05	-5e-05	-1e-05	0.00015	0.00013	0.00022	-0.00058	6
55849	-4e-05	4e-05	-1e-05	-3e-05	-6e-05	-0.0005	-0.00011	0.00016	6
55850	-4e-05	4e-05	-1e-05	-3e-05	-6e-05	-0.0005	-0.00011	0.00016	6
55851	-4e-05	4e-05	-1e-05	-3e-05	-6e-05	-0.0005	-0.00011	0.00016	6
55852	-4e-05	4e-05	-1e-05	-3e-05	-6e-05	-0.0005	-0.00011	0.00016	6
55853	-4e-05	4e-05	-1e-05	-3e-05	-6e-05	-0.0005	-0.00011	0.00016	6
55854	-4e-05	4e-05	-1e-05	-3e-05	-6e-05	-0.0005	-0.00011	0.00016	6
55855	-4e-05	4e-05	-1e-05	-3e-05	-6e-05	-0.0005	-0.00011	0.00016	6
55856	-4e-05	4e-05	-1e-05	-3e-05	-6e-05	-0.0005	-0.00011	0.00016	6
55857	-4e-05	4e-05	-1e-05	-3e-05	-6e-05	-0.0005	-0.00011	0.00016	6
55858	-4e-05	4e-05	-1e-05	-3e-05	-6e-05	-0.0005	-0.00011	0.00016	6
55859	-4e-05	4e-05	-1e-05	-3e-05	-6e-05	-0.0005	-0.00011	0.00016	6
55860	-4e-05	4e-05	-1e-05	-3e-05	-6e-05	-0.0005	-0.00011	0.00016	6
55861	-4e-05	4e-05	-1e-05	-3e-05	-6e-05	-0.0005	-0.00011	0.00016	6
55862	-4e-05	4e-05	-1e-05	-3e-05	-6e-05	-0.0005	-0.00011	0.00016	6
55863	-4e-05	4e-05	-1e-05	-3e-05	-6e-05	-0.0005	-0.00011	0.00016	6
55864	-4e-05	4e-05	-1e-05	-3e-05	-6e-05	-0.0005	-0.00011	0.00016	6
55865	0.00015	-3e-05	-4e-05	-0.00014	-0.00046	-0.0004	4e-05	-7e-05	6
55866	-0.00019	1e-05	0	-4e-05	-0.00013	-0.00024	-0.00038	0.00027	6
55867	-5e-05	-3e-05	0	4e-05	-5e-05	-0.0002	1e-05	-0.00107	6
55868	-5e-05	-3e-05	0	4e-05	-5e-05	-0.0002	1e-05	-0.00107	6
55869	-5e-05	-3e-05	0	4e-05	-5e-05	-0.0002	1e-05	-0.00107	6
55870	-5e-05	-3e-05	0	4e-05	-5e-05	-0.0002	1e-05	-0.00107	6
55871	-5e-05	-3e-05	0	4e-05	-5e-05	-0.0002	1e-05	-0.00107	6
55872	-5e-05	-3e-05	0	4e-05	-5e-05	-0.0002	1e-05	-0.00107	6
55873	-5e-05	-3e-05	0	4e-05	-5e-05	-0.0002	1e-05	-0.00107	6
55874	-5e-05	-3e-05	0	4e-05	-5e-05	-0.0002	1e-05	-0.00107	6
55875	-5e-05	-3e-05	0	4e-05	-5e-05	-0.0002	1e-05	-0.00107	6
55876	-5e-05	-3e-05	0	4e-05	-5e-05	-0.0002	1e-05	-0.00107	6
55877	-5e-05	-3e-05	0	4e-05	-5e-05	-0.0002	1e-05	-0.00107	6
55878	-5e-05	-3e-05	0	4e-05	-5e-05	-0.0002	1e-05	-0.00107	6
55879	-5e-05	-3e-05	0	4e-05	-5e-05	-0.0002	1e-05	-0.00107	6
55880	-5e-05	-3e-05	0	4e-05	-5e-05	-0.0002	1e-05	-0.00107	6
55881	-5e-05	-3e-05	0	4e-05	-5e-05	-0.0002	1e-05	-0.00107	6
55882	-5e-05	-3e-05	0	4e-05	-5e-05	-0.0002	1e-05	-0.00107	6
55883	-5e-05	-3e-05	0	4e-05	-5e-05	-0.0002	1e-05	-0.00107	6
55884	-5e-05	-3e-05	0	4e-05	-5e-05	-0.0002	1e-05	-0.00107	6
55885	-5e-05	-3e-05	0	4e-05	-5e-05	-0.0002	1e-05	-0.00107	6
55886	-5e-05	-3e-05	0	4e-05	-5e-05	-0.0002	1e-05	-0.00107	6
55889	-4e-05	-6e-05	-4e-05	-6e-05	-0.00021	-0.00026	-0.00024	-0.00041	6
55890	-4e-05	-6e-05	-4e-05	-6e-05	-0.00021	-0.00026	-0.00024	-0.00041	6
55891	-4e-05	-6e-05	-4e-05	-6e-05	-0.00021	-0.00026	-0.00024	-0.00041	6
55892	-4e-05	-6e-05	-4e-05	-6e-05	-0.00021	-0.00026	-0.00024	-0.00041	6
55893	-4e-05	-6e-05	-4e-05	-6e-05	-0.00021	-0.00026	-0.00024	-0.00041	6
55894	-4e-05	-6e-05	-4e-05	-6e-05	-0.00021	-0.00026	-0.00024	-0.00041	6
55895	-4e-05	-6e-05	-4e-05	-6e-05	-0.00021	-0.00026	-0.00024	-0.00041	6
55896	-4e-05	-6e-05	-4e-05	-6e-05	-0.00021	-0.00026	-0.00024	-0.00041	6
55897	-4e-05	-6e-05	-4e-05	-6e-05	-0.00021	-0.00026	-0.00024	-0.00041	6
55898	-4e-05	-6e-05	-4e-05	-6e-05	-0.00021	-0.00026	-0.00024	-0.00041	6
55899	-4e-05	-6e-05	-4e-05	-6e-05	-0.00021	-0.00026	-0.00024	-0.00041	6
55900	-4e-05	-6e-05	-4e-05	-6e-05	-0.00021	-0.00026	-0.00024	-0.00041	6
55901	-4e-05	-6e-05	-4e-05	-6e-05	-0.00021	-0.00026	-0.00024	-0.00041	6
55902	0.00017	-1e-05	-1e-05	-2e-05	0.00017	-0.00014	0.00012	0.00018	6
55903	0.00017	-1e-05	-1e-05	-2e-05	0.00017	-0.00014	0.00012	0.00018	6
55904	0.00017	-1e-05	-1e-05	-2e-05	0.00017	-0.00014	0.00012	0.00018	6
55905	0.00017	-1e-05	-1e-05	-2e-05	0.00017	-0.00014	0.00012	0.00018	6
55906	0.00017	-1e-05	-1e-05	-2e-05	0.00017	-0.00014	0.00012	0.00018	6
55907	0.00017	-1e-05	-1e-05	-2e-05	0.00017	-0.00014	0.00012	0.00018	6
55908	-0.00027	-3e-05	-2e-05	-6e-05	-0.00035	-0.00019	2e-05	-8e-05	6
55909	0.00017	1e-05	-2e-05	0	-2e-05	-0.00017	-2e-05	0.00055	6
55910	0.00017	1e-05	-2e-05	0	-2e-05	-0.00017	-2e-05	0.00055	6
55911	0.00017	1e-05	-2e-05	0	-2e-05	-0.00017	-2e-05	0.00055	6
55912	0.00017	1e-05	-2e-05	0	-2e-05	-0.00017	-2e-05	0.00055	6
55913	0.00017	1e-05	-2e-05	0	-2e-05	-0.00017	-2e-05	0.00055	6
55914	0.00017	1e-05	-2e-05	0	-2e-05	-0.00017	-2e-05	0.00055	6
55915	0.00017	1e-05	-2e-05	0	-2e-05	-0.00017	-2e-05	0.00055	6
55916	0.00017	1e-05	-2e-05	0	-2e-05	-0.00017	-2e-05	0.00055	6
55917	0.00017	1e-05	-2e-05	0	-2e-05	-0.00017	-2e-05	0.00055	6
55918	0.00017	1e-05	-2e-05	0	-2e-05	-0.00017	-2e-05	0.00055	6
55919	0.00017	1e-05	-2e-05	0	-2e-05	-0.00017	-2e-05	0.00055	6
55920	0.00017	1e-05	-2e-05	0	-2e-05	-0.00017	-2e-05	0.00055	6
55921	0.00017	1e-05	-2e-05	0	-2e-05	-0.00017	-2e-05	0.00055	6
55922	0.00017	1e-05	-2e-05	0	-2e-05	-0.00017	-2e-05	0.00055	6
55923	0.00017	1e-05	-2e-05	0	-2e-05	-0.00017	-2e-05	0.00055	6
55924	0.00017	1e-05	-2e-05	0	-2e-05	-0.00017	-2e-05	0.00055	6
55925	-1e-05	-3e-05	0	-4e-05	-0.00013	-0.0003	0.00018	0.00019	6
55926	7e-05	-2e-05	-2e-05	-2e-05	-0.00012	7e-05	0.00012	0.00068	6
55927	-0.00017	0.00017	4e-05	0.0001	-7e-05	-0.00067	-0.00024	-9e-05	6
55928	-0.00017	0.00017	4e-05	0.0001	-7e-05	-0.00067	-0.00024	-9e-05	6
55929	-0.00017	0.00017	4e-05	0.0001	-7e-05	-0.00067	-0.00024	-9e-05	6
55930	-0.00017	0.00017	4e-05	0.0001	-7e-05	-0.00067	-0.00024	-9e-05	6
55931	-0.00017	0.00017	4e-05	0.0001	-7e-05	-0.00067	-0.00024	-9e-05	6
55932	-0.00017	0.00017	4e-05	0.0001	-7e-05	-0.00067	-0.00024	-9e-05	6
55933	-0.00017	0.00017	4e-05	0.0001	-7e-05	-0.00067	-0.00024	-9e-05	6
55934	-0.00017	0.00017	4e-05	0.0001	-7e-05	-0.00067	-0.00024	-9e-05	6
55935	-0.00017	0.00017	4e-05	0.0001	-7e-05	-0.00067	-0.00024	-9e-05	6
55936	-0.00017	0.00017	4e-05	0.0001	-7e-05	-0.00067	-0.00024	-9e-05	6
55938	-0.00017	0.00017	4e-05	0.0001	-7e-05	-0.00067	-0.00024	-9e-05	6
55939	-0.00017	0.00017	4e-05	0.0001	-7e-05	-0.00067	-0.00024	-9e-05	6
55940	-0.00017	0.00017	4e-05	0.0001	-7e-05	-0.00067	-0.00024	-9e-05	6
55941	-0.00017	0.00017	4e-05	0.0001	-7e-05	-0.00067	-0.00024	-9e-05	6
55942	-0.00017	0.00017	4e-05	0.0001	-7e-05	-0.00067	-0.00024	-9e-05	6
55943	-0.00017	0.00017	4e-05	0.0001	-7e-05	-0.00067	-0.00024	-9e-05	6
55944	-0.00017	0.00017	4e-05	0.0001	-7e-05	-0.00067	-0.00024	-9e-05	6
55945	-0.00017	0.00017	4e-05	0.0001	-7e-05	-0.00067	-0.00024	-9e-05	6
55946	-0.00017	0.00017	4e-05	0.0001	-7e-05	-0.00067	-0.00024	-9e-05	6
55947	-0.00017	0.00017	4e-05	0.0001	-7e-05	-0.00067	-0.00024	-9e-05	6
55948	0.00011	8e-05	1e-05	2e-05	0.00019	0.00091	0.00013	0.00016	6
55949	5e-05	-1e-05	-7e-05	-0.00012	-0.00022	0.00019	-3e-05	-0.00015	6
55950	5e-05	-1e-05	-7e-05	-0.00012	-0.00022	0.00019	-3e-05	-0.00015	6
55951	5e-05	-1e-05	-7e-05	-0.00012	-0.00022	0.00019	-3e-05	-0.00015	6
55952	5e-05	-1e-05	-7e-05	-0.00012	-0.00022	0.00019	-3e-05	-0.00015	6
55953	5e-05	-1e-05	-7e-05	-0.00012	-0.00022	0.00019	-3e-05	-0.00015	6
55954	5e-05	-1e-05	-7e-05	-0.00012	-0.00022	0.00019	-3e-05	-0.00015	6
55955	5e-05	-1e-05	-7e-05	-0.00012	-0.00022	0.00019	-3e-05	-0.00015	6
55956	5e-05	-1e-05	-7e-05	-0.00012	-0.00022	0.00019	-3e-05	-0.00015	6
55957	5e-05	-1e-05	-7e-05	-0.00012	-0.00022	0.00019	-3e-05	-0.00015	6
55958	5e-05	-1e-05	-7e-05	-0.00012	-0.00022	0.00019	-3e-05	-0.00015	6
55959	5e-05	-1e-05	-7e-05	-0.00012	-0.00022	0.00019	-3e-05	-0.00015	6
55960	5e-05	-1e-05	-7e-05	-0.00012	-0.00022	0.00019	-3e-05	-0.00015	6
55961	5e-05	-1e-05	-7e-05	-0.00012	-0.00022	0.00019	-3e-05	-0.00015	6
55962	0.00012	-2e-05	1e-05	1e-05	0.00057	-0.00046	-0.00011	0.00045	6
55963	0.00012	-2e-05	1e-05	1e-05	0.00057	-0.00046	-0.00011	0.00045	6
55964	0.00012	-2e-05	1e-05	1e-05	0.00057	-0.00046	-0.00011	0.00045	6
55965	0.00012	-2e-05	1e-05	1e-05	0.00057	-0.00046	-0.00011	0.00045	6
55966	0.00012	-2e-05	1e-05	1e-05	0.00057	-0.00046	-0.00011	0.00045	6
55967	0.00012	-2e-05	1e-05	1e-05	0.00057	-0.00046	-0.00011	0.00045	6
55968	0	6e-05	5e-05	6e-05	-0.00011	0.00014	6e-05	-0.00012	6
55969	-0.00012	-8e-05	-1e-05	-4e-05	-6e-05	0.00033	1e-05	0.0002	6
55970	-0.00012	-8e-05	-1e-05	-4e-05	-6e-05	0.00033	1e-05	0.0002	6
55971	-0.00012	-8e-05	-1e-05	-4e-05	-6e-05	0.00033	1e-05	0.0002	6
55972	-0.00012	-8e-05	-1e-05	-4e-05	-6e-05	0.00033	1e-05	0.0002	6
55973	-0.00012	-8e-05	-1e-05	-4e-05	-6e-05	0.00033	1e-05	0.0002	6
55974	-0.00012	-8e-05	-1e-05	-4e-05	-6e-05	0.00033	1e-05	0.0002	6
55975	-0.00012	-8e-05	-1e-05	-4e-05	-6e-05	0.00033	1e-05	0.0002	6
55976	-0.00012	-8e-05	-1e-05	-4e-05	-6e-05	0.00033	1e-05	0.0002	6
55977	-0.00012	-8e-05	-1e-05	-4e-05	-6e-05	0.00033	1e-05	0.0002	6
55978	-0.00012	-8e-05	-1e-05	-4e-05	-6e-05	0.00033	1e-05	0.0002	6
55979	-0.00012	-8e-05	-1e-05	-4e-05	-6e-05	0.00033	1e-05	0.0002	6
55980	-0.00012	-8e-05	-1e-05	-4e-05	-6e-05	0.00033	1e-05	0.0002	6
55981	-0.00012	-8e-05	-1e-05	-4e-05	-6e-05	0.00033	1e-05	0.0002	6
55982	-0.00012	-8e-05	-1e-05	-4e-05	-6e-05	0.00033	1e-05	0.0002	6
55983	-0.00012	-8e-05	-1e-05	-4e-05	-6e-05	0.00033	1e-05	0.0002	6
55984	-0.00012	-8e-05	-1e-05	-4e-05	-6e-05	0.00033	1e-05	0.0002	6
55985	-0.00015	-3e-05	-3e-05	-3e-05	0.00034	-0.0004	0	-0.00045	6
55986	9e-05	2e-05	-1e-05	-8e-05	-0.00035	0.00052	3e-05	0.00072	6
55988	-9e-05	3e-05	0	0.0001	0.00059	-0.00032	8e-05	-0.00027	6
55989	-9e-05	3e-05	0	0.0001	0.00059	-0.00032	8e-05	-0.00027	6
55990	-9e-05	3e-05	0	0.0001	0.00059	-0.00032	8e-05	-0.00027	6
55991	-9e-05	3e-05	0	0.0001	0.00059	-0.00032	8e-05	-0.00027	6
55992	-9e-05	3e-05	0	0.0001	0.00059	-0.00032	8e-05	-0.00027	6
55993	-9e-05	3e-05	0	0.0001	0.00059	-0.00032	8e-05	-0.00027	6
55994	-9e-05	3e-05	0	0.0001	0.00059	-0.00032	8e-05	-0.00027	6
55995	-9e-05	3e-05	0	0.0001	0.00059	-0.00032	8e-05	-0.00027	6
55996	-9e-05	3e-05	0	0.0001	0.00059	-0.00032	8e-05	-0.00027	6
55997	-9e-05	3e-05	0	0.0001	0.00059	-0.00032	8e-05	-0.00027	6
55998	-9e-05	3e-05	0	0.0001	0.00059	-0.00032	8e-05	-0.00027	6
55999	-9e-05	3e-05	0	0.0001	0.00059	-0.00032	8e-05	-0.00027	6
56000	-9e-05	3e-05	0	0.0001	0.00059	-0.00032	8e-05	-0.00027	6
56001	-9e-05	3e-05	0	0.0001	0.00059	-0.00032	8e-05	-0.00027	6
56002	-9e-05	3e-05	0	0.0001	0.00059	-0.00032	8e-05	-0.00027	6
56003	-9e-05	3e-05	0	0.0001	0.00059	-0.00032	8e-05	-0.00027	6
56004	-9e-05	3e-05	0	0.0001	0.00059	-0.00032	8e-05	-0.00027	6
56005	-9e-05	3e-05	0	0.0001	0.00059	-0.00032	8e-05	-0.00027	6
56006	-9e-05	3e-05	0	0.0001	0.00059	-0.00032	8e-05	-0.00027	6
56007	-0.00022	-2e-05	2e-05	-1e-05	-0.00031	0.00023	0.00041	-5e-05	6
56008	0.00048	-1e-05	-1e-05	-5e-05	-0.00034	1e-05	2e-05	0.0002	6
56009	-3e-05	-1e-05	-2e-05	1e-05	-0.00011	0.00031	7e-05	-5e-05	6
56010	-3e-05	-1e-05	-2e-05	1e-05	-0.00011	0.00031	7e-05	-5e-05	6
56011	-3e-05	-1e-05	-2e-05	1e-05	-0.00011	0.00031	7e-05	-5e-05	6
56012	-3e-05	-1e-05	-2e-05	1e-05	-0.00011	0.00031	7e-05	-5e-05	6
56013	-3e-05	-1e-05	-2e-05	1e-05	-0.00011	0.00031	7e-05	-5e-05	6
56014	-3e-05	-1e-05	-2e-05	1e-05	-0.00011	0.00031	7e-05	-5e-05	6
56015	-3e-05	-1e-05	-2e-05	1e-05	-0.00011	0.00031	7e-05	-5e-05	6
56016	-3e-05	-1e-05	-2e-05	1e-05	-0.00011	0.00031	7e-05	-5e-05	6
56017	-3e-05	-1e-05	-2e-05	1e-05	-0.00011	0.00031	7e-05	-5e-05	6
56018	-3e-05	-1e-05	-2e-05	1e-05	-0.00011	0.00031	7e-05	-5e-05	6
56019	-3e-05	-1e-05	-2e-05	1e-05	-0.00011	0.00031	7e-05	-5e-05	6
56020	-3e-05	-1e-05	-2e-05	1e-05	-0.00011	0.00031	7e-05	-5e-05	6
56021	-8e-05	-2e-05	-2e-05	9e-05	0.00045	0.0006	0	-0.00057	6
56022	-8e-05	-2e-05	-2e-05	9e-05	0.00045	0.0006	0	-0.00057	6
56023	-8e-05	-2e-05	-2e-05	9e-05	0.00045	0.0006	0	-0.00057	6
56024	-8e-05	-2e-05	-2e-05	9e-05	0.00045	0.0006	0	-0.00057	6
56025	-8e-05	-2e-05	-2e-05	9e-05	0.00045	0.0006	0	-0.00057	6
56026	-8e-05	-2e-05	-2e-05	9e-05	0.00045	0.0006	0	-0.00057	6
56027	-8e-05	-2e-05	-2e-05	9e-05	0.00045	0.0006	0	-0.00057	6
56028	-8e-05	-2e-05	-2e-05	9e-05	0.00045	0.0006	0	-0.00057	6
56029	-8e-05	-2e-05	-2e-05	9e-05	0.00045	0.0006	0	-0.00057	6
56030	-8e-05	-8e-05	-5e-05	2e-05	-0.00014	0.00013	0.0002	-0.00029	6
56031	-8e-05	-8e-05	-5e-05	2e-05	-0.00014	0.00013	0.0002	-0.00029	6
56032	-8e-05	-8e-05	-5e-05	2e-05	-0.00014	0.00013	0.0002	-0.00029	6
56033	-8e-05	-8e-05	-5e-05	2e-05	-0.00014	0.00013	0.0002	-0.00029	6
56034	-8e-05	-8e-05	-5e-05	2e-05	-0.00014	0.00013	0.0002	-0.00029	6
56035	-8e-05	-8e-05	-5e-05	2e-05	-0.00014	0.00013	0.0002	-0.00029	6
56036	-8e-05	-8e-05	-5e-05	2e-05	-0.00014	0.00013	0.0002	-0.00029	6
56038	-8e-05	-8e-05	-5e-05	2e-05	-0.00014	0.00013	0.0002	-0.00029	6
56039	-8e-05	-8e-05	-5e-05	2e-05	-0.00014	0.00013	0.0002	-0.00029	6
56040	-8e-05	-8e-05	-5e-05	2e-05	-0.00014	0.00013	0.0002	-0.00029	6
56041	-8e-05	-8e-05	-5e-05	2e-05	-0.00014	0.00013	0.0002	-0.00029	6
56042	-8e-05	-8e-05	-5e-05	2e-05	-0.00014	0.00013	0.0002	-0.00029	6
56043	-8e-05	-8e-05	-5e-05	2e-05	-0.00014	0.00013	0.0002	-0.00029	6
56044	-8e-05	-8e-05	-5e-05	2e-05	-0.00014	0.00013	0.0002	-0.00029	6
56045	-0.00015	6e-05	1e-05	-7e-05	-0.00056	0.00068	-3e-05	3e-05	6
56046	-5e-05	-0.0001	2e-05	3e-05	-0.00028	-0.00015	-0.00019	-0.00051	6
56047	-5e-05	-0.0001	2e-05	3e-05	-0.00028	-0.00015	-0.00019	-0.00051	6
56048	-5e-05	-0.0001	2e-05	3e-05	-0.00028	-0.00015	-0.00019	-0.00051	6
56049	-5e-05	-0.0001	2e-05	3e-05	-0.00028	-0.00015	-0.00019	-0.00051	6
56050	-5e-05	-0.0001	2e-05	3e-05	-0.00028	-0.00015	-0.00019	-0.00051	6
56051	-5e-05	-0.0001	2e-05	3e-05	-0.00028	-0.00015	-0.00019	-0.00051	6
56052	-5e-05	-0.0001	2e-05	3e-05	-0.00028	-0.00015	-0.00019	-0.00051	6
56053	-5e-05	-0.0001	2e-05	3e-05	-0.00028	-0.00015	-0.00019	-0.00051	6
56054	-5e-05	-0.0001	2e-05	3e-05	-0.00028	-0.00015	-0.00019	-0.00051	6
56055	-5e-05	-0.0001	2e-05	3e-05	-0.00028	-0.00015	-0.00019	-0.00051	6
56056	-5e-05	-0.0001	2e-05	3e-05	-0.00028	-0.00015	-0.00019	-0.00051	6
56057	-5e-05	-0.0001	2e-05	3e-05	-0.00028	-0.00015	-0.00019	-0.00051	6
56058	-5e-05	-0.0001	2e-05	3e-05	-0.00028	-0.00015	-0.00019	-0.00051	6
56059	-5e-05	-0.0001	2e-05	3e-05	-0.00028	-0.00015	-0.00019	-0.00051	6
56060	-5e-05	-0.0001	2e-05	3e-05	-0.00028	-0.00015	-0.00019	-0.00051	6
56061	-5e-05	-0.0001	2e-05	3e-05	-0.00028	-0.00015	-0.00019	-0.00051	6
56062	-5e-05	-0.0001	2e-05	3e-05	-0.00028	-0.00015	-0.00019	-0.00051	6
56063	-5e-05	-0.0001	2e-05	3e-05	-0.00028	-0.00015	-0.00019	-0.00051	6
56064	-5e-05	-0.0001	2e-05	3e-05	-0.00028	-0.00015	-0.00019	-0.00051	6
56065	-5e-05	-0.0001	2e-05	3e-05	-0.00028	-0.00015	-0.00019	-0.00051	6
56066	-5e-05	-0.0001	2e-05	3e-05	-0.00028	-0.00015	-0.00019	-0.00051	6
56067	-1e-05	4e-05	-8e-05	-7e-05	-0.00014	0.00011	1e-05	-9e-05	6
56068	-0.00016	0	5e-05	4e-05	-0.0003	-0.00033	-3e-05	-0.00011	6
56069	-0.0001	6e-05	-1e-05	2e-05	-0.00022	-0.00035	0.00024	0.00064	6
56070	-0.0001	6e-05	-1e-05	2e-05	-0.00022	-0.00035	0.00024	0.00064	6
56071	-0.0001	6e-05	-1e-05	2e-05	-0.00022	-0.00035	0.00024	0.00064	6
56072	-0.0001	6e-05	-1e-05	2e-05	-0.00022	-0.00035	0.00024	0.00064	6
56073	-0.0001	6e-05	-1e-05	2e-05	-0.00022	-0.00035	0.00024	0.00064	6
56074	-0.0001	6e-05	-1e-05	2e-05	-0.00022	-0.00035	0.00024	0.00064	6
56075	-0.0001	6e-05	-1e-05	2e-05	-0.00022	-0.00035	0.00024	0.00064	6
56076	-0.0001	6e-05	-1e-05	2e-05	-0.00022	-0.00035	0.00024	0.00064	6
56077	-0.0001	6e-05	-1e-05	2e-05	-0.00022	-0.00035	0.00024	0.00064	6
56078	-0.0001	6e-05	-1e-05	2e-05	-0.00022	-0.00035	0.00024	0.00064	6
56079	-0.0001	6e-05	-1e-05	2e-05	-0.00022	-0.00035	0.00024	0.00064	6
56080	-0.0001	6e-05	-1e-05	2e-05	-0.00022	-0.00035	0.00024	0.00064	6
56081	-2e-05	0	-0.00011	-8e-05	-0.00018	-0.00016	-0.00011	-0.00049	6
56082	-2e-05	0	-0.00011	-8e-05	-0.00018	-0.00016	-0.00011	-0.00049	6
56083	-2e-05	0	-0.00011	-8e-05	-0.00018	-0.00016	-0.00011	-0.00049	6
56084	-2e-05	0	-0.00011	-8e-05	-0.00018	-0.00016	-0.00011	-0.00049	6
56085	-2e-05	0	-0.00011	-8e-05	-0.00018	-0.00016	-0.00011	-0.00049	6
56086	-2e-05	0	-0.00011	-8e-05	-0.00018	-0.00016	-0.00011	-0.00049	6
56088	-2e-05	0	-0.00011	-8e-05	-0.00018	-0.00016	-0.00011	-0.00049	6
56089	-2e-05	0	-0.00011	-8e-05	-0.00018	-0.00016	-0.00011	-0.00049	6
56090	-2e-05	0	-0.00011	-8e-05	-0.00018	-0.00016	-0.00011	-0.00049	6
56091	-2e-05	0	-0.00011	-8e-05	-0.00018	-0.00016	-0.00011	-0.00049	6
56092	-2e-05	0	-0.00011	-8e-05	-0.00018	-0.00016	-0.00011	-0.00049	6
56093	-2e-05	0	-0.00011	-8e-05	-0.00018	-0.00016	-0.00011	-0.00049	6
56094	-2e-05	0	-0.00011	-8e-05	-0.00018	-0.00016	-0.00011	-0.00049	6
56095	-2e-05	0	-0.00011	-8e-05	-0.00018	-0.00016	-0.00011	-0.00049	6
56096	-2e-05	0	-0.00011	-8e-05	-0.00018	-0.00016	-0.00011	-0.00049	6
56097	-2e-05	0	-0.00011	-8e-05	-0.00018	-0.00016	-0.00011	-0.00049	6
56098	2e-05	-0.00011	-4e-05	-0.00017	-0.0001	-1e-05	-0.00024	0.00017	6
56099	2e-05	-0.00011	-4e-05	-0.00017	-0.0001	-1e-05	-0.00024	0.00017	6
56100	2e-05	-0.00011	-4e-05	-0.00017	-0.0001	-1e-05	-0.00024	0.00017	6
56101	2e-05	-0.00011	-4e-05	-0.00017	-0.0001	-1e-05	-0.00024	0.00017	6
56102	2e-05	-0.00011	-4e-05	-0.00017	-0.0001	-1e-05	-0.00024	0.00017	6
56103	2e-05	-0.00011	-4e-05	-0.00017	-0.0001	-1e-05	-0.00024	0.00017	6
56104	2e-05	-0.00011	-4e-05	-0.00017	-0.0001	-1e-05	-0.00024	0.00017	6
56105	-0.00025	-8e-05	2e-05	0.00011	0.00064	0.00083	7e-05	-0.00023	6
56106	-5e-05	7e-05	3e-05	-3e-05	-0.00013	-0.00013	-4e-05	-0.00029	6
56107	2e-05	0	0	2e-05	-4e-05	-0.00079	-8e-05	0.00012	6
56108	2e-05	0	0	2e-05	-4e-05	-0.00079	-8e-05	0.00012	6
56109	2e-05	0	0	2e-05	-4e-05	-0.00079	-8e-05	0.00012	6
56110	2e-05	0	0	2e-05	-4e-05	-0.00079	-8e-05	0.00012	6
56111	2e-05	0	0	2e-05	-4e-05	-0.00079	-8e-05	0.00012	6
56112	2e-05	0	0	2e-05	-4e-05	-0.00079	-8e-05	0.00012	6
56113	2e-05	0	0	2e-05	-4e-05	-0.00079	-8e-05	0.00012	6
56114	2e-05	0	0	2e-05	-4e-05	-0.00079	-8e-05	0.00012	6
56115	2e-05	0	0	2e-05	-4e-05	-0.00079	-8e-05	0.00012	6
56116	2e-05	0	0	2e-05	-4e-05	-0.00079	-8e-05	0.00012	6
56117	2e-05	0	0	2e-05	-4e-05	-0.00079	-8e-05	0.00012	6
56118	2e-05	0	0	2e-05	-4e-05	-0.00079	-8e-05	0.00012	6
