4711	0	2e-05	7e-05	-6e-05	3e-05	-3e-05	-0.0002	-5e-05	2
4712	0	2e-05	7e-05	-6e-05	3e-05	-3e-05	-0.0002	-5e-05	2
4713	0	2e-05	7e-05	-6e-05	3e-05	-3e-05	-0.0002	-5e-05	2
4714	0	2e-05	7e-05	-6e-05	3e-05	-3e-05	-0.0002	-5e-05	2
4715	0	2e-05	7e-05	-6e-05	3e-05	-3e-05	-0.0002	-5e-05	2
4716	0	2e-05	7e-05	-6e-05	3e-05	-3e-05	-0.0002	-5e-05	2
4717	0	2e-05	7e-05	-6e-05	3e-05	-3e-05	-0.0002	-5e-05	2
4718	0	2e-05	7e-05	-6e-05	3e-05	-3e-05	-0.0002	-5e-05	2
4719	0	2e-05	7e-05	-6e-05	3e-05	-3e-05	-0.0002	-5e-05	2
4720	0	2e-05	7e-05	-6e-05	3e-05	-3e-05	-0.0002	-5e-05	2
4721	0	2e-05	7e-05	-6e-05	3e-05	-3e-05	-0.0002	-5e-05	2
4722	0	2e-05	7e-05	-6e-05	3e-05	-3e-05	-0.0002	-5e-05	2
4723	0	2e-05	7e-05	-6e-05	3e-05	-3e-05	-0.0002	-5e-05	2
4724	0	2e-05	7e-05	-6e-05	3e-05	-3e-05	-0.0002	-5e-05	2
4725	-3e-05	2e-05	-4e-05	5e-05	-7e-05	9e-05	0.0004	5e-05	2
4726	0	1e-05	9e-05	2e-05	4e-05	4e-05	8e-05	-5e-05	2
4727	-6e-05	-6e-05	-0.0001	-0.00012	-0.00016	-2e-05	-0.00013	0	2
4728	-6e-05	-6e-05	-0.0001	-0.00012	-0.00016	-2e-05	-0.00013	0	2
4729	-6e-05	-6e-05	-0.0001	-0.00012	-0.00016	-2e-05	-0.00013	0	2
4730	-6e-05	-6e-05	-0.0001	-0.00012	-0.00016	-2e-05	-0.00013	0	2
4731	-6e-05	-6e-05	-0.0001	-0.00012	-0.00016	-2e-05	-0.00013	0	2
4732	-6e-05	-6e-05	-0.0001	-0.00012	-0.00016	-2e-05	-0.00013	0	2
4733	-6e-05	-6e-05	-0.0001	-0.00012	-0.00016	-2e-05	-0.00013	0	2
4734	-6e-05	-6e-05	-0.0001	-0.00012	-0.00016	-2e-05	-0.00013	0	2
4735	-6e-05	-6e-05	-0.0001	-0.00012	-0.00016	-2e-05	-0.00013	0	2
4736	-6e-05	-6e-05	-0.0001	-0.00012	-0.00016	-2e-05	-0.00013	0	2
4738	-6e-05	-6e-05	-0.0001	-0.00012	-0.00016	-2e-05	-0.00013	0	2
4739	-6e-05	-6e-05	-0.0001	-0.00012	-0.00016	-2e-05	-0.00013	0	2
4740	-6e-05	-6e-05	-0.0001	-0.00012	-0.00016	-2e-05	-0.00013	0	2
4741	-6e-05	-6e-05	-0.0001	-0.00012	-0.00016	-2e-05	-0.00013	0	2
4742	-6e-05	-6e-05	-0.0001	-0.00012	-0.00016	-2e-05	-0.00013	0	2
4743	-6e-05	-6e-05	-0.0001	-0.00012	-0.00016	-2e-05	-0.00013	0	2
4744	-6e-05	-6e-05	-0.0001	-0.00012	-0.00016	-2e-05	-0.00013	0	2
4745	-6e-05	-6e-05	-0.0001	-0.00012	-0.00016	-2e-05	-0.00013	0	2
4746	-6e-05	-6e-05	-0.0001	-0.00012	-0.00016	-2e-05	-0.00013	0	2
4747	-6e-05	-6e-05	-0.0001	-0.00012	-0.00016	-2e-05	-0.00013	0	2
4748	-6e-05	-6e-05	-0.0001	-0.00012	-0.00016	-2e-05	-0.00013	0	2
4749	6e-05	2e-05	0	2e-05	8e-05	3e-05	7e-05	0.00014	2
4750	6e-05	2e-05	0	2e-05	8e-05	3e-05	7e-05	0.00014	2
4751	6e-05	2e-05	0	2e-05	8e-05	3e-05	7e-05	0.00014	2
4752	6e-05	2e-05	0	2e-05	8e-05	3e-05	7e-05	0.00014	2
4753	6e-05	2e-05	0	2e-05	8e-05	3e-05	7e-05	0.00014	2
4754	6e-05	2e-05	0	2e-05	8e-05	3e-05	7e-05	0.00014	2
4755	6e-05	2e-05	0	2e-05	8e-05	3e-05	7e-05	0.00014	2
4756	6e-05	2e-05	0	2e-05	8e-05	3e-05	7e-05	0.00014	2
4757	6e-05	2e-05	0	2e-05	8e-05	3e-05	7e-05	0.00014	2
4758	6e-05	2e-05	0	2e-05	8e-05	3e-05	7e-05	0.00014	2
4759	6e-05	2e-05	0	2e-05	8e-05	3e-05	7e-05	0.00014	2
4760	6e-05	2e-05	0	2e-05	8e-05	3e-05	7e-05	0.00014	2
4761	6e-05	2e-05	0	2e-05	8e-05	3e-05	7e-05	0.00014	2
4762	6e-05	2e-05	0	2e-05	8e-05	3e-05	7e-05	0.00014	2
4763	-4e-05	-3e-05	-4e-05	1e-05	-6e-05	-0.00012	2e-05	-9e-05	2
4764	0	0	0.0001	0.00016	3e-05	1e-05	0.00029	-3e-05	2
4765	0	0	0.0001	0.00016	3e-05	1e-05	0.00029	-3e-05	2
4766	0	0	0.0001	0.00016	3e-05	1e-05	0.00029	-3e-05	2
4767	0	0	0.0001	0.00016	3e-05	1e-05	0.00029	-3e-05	2
4768	0	0	0.0001	0.00016	3e-05	1e-05	0.00029	-3e-05	2
4769	0	0	0.0001	0.00016	3e-05	1e-05	0.00029	-3e-05	2
4770	0	0	0.0001	0.00016	3e-05	1e-05	0.00029	-3e-05	2
4771	0	0	0.0001	0.00016	3e-05	1e-05	0.00029	-3e-05	2
4772	0	0	0.0001	0.00016	3e-05	1e-05	0.00029	-3e-05	2
4773	0	0	0.0001	0.00016	3e-05	1e-05	0.00029	-3e-05	2
4774	0	0	0.0001	0.00016	3e-05	1e-05	0.00029	-3e-05	2
4775	0	0	0.0001	0.00016	3e-05	1e-05	0.00029	-3e-05	2
4776	0	0	0.0001	0.00016	3e-05	1e-05	0.00029	-3e-05	2
4777	0	0	0.0001	0.00016	3e-05	1e-05	0.00029	-3e-05	2
4778	0	0	0.0001	0.00016	3e-05	1e-05	0.00029	-3e-05	2
4779	0	0	0.0001	0.00016	3e-05	1e-05	0.00029	-3e-05	2
4780	0	0	0.0001	0.00016	3e-05	1e-05	0.00029	-3e-05	2
4781	0	0	0.0001	0.00016	3e-05	1e-05	0.00029	-3e-05	2
4782	0	0	0.0001	0.00016	3e-05	1e-05	0.00029	-3e-05	2
4783	0	0	0.0001	0.00016	3e-05	1e-05	0.00029	-3e-05	2
4784	0	0	0.0001	0.00016	3e-05	1e-05	0.00029	-3e-05	2
4785	2e-05	0	0.0001	1e-05	3e-05	-0.0002	-0.0001	-1e-05	2
4786	0	3e-05	6e-05	-0.00012	0	-5e-05	-7e-05	1e-05	2
4788	0	3e-05	6e-05	-0.00012	0	-5e-05	-7e-05	1e-05	2
4789	0	3e-05	6e-05	-0.00012	0	-5e-05	-7e-05	1e-05	2
4790	0	3e-05	6e-05	-0.00012	0	-5e-05	-7e-05	1e-05	2
4791	0	3e-05	6e-05	-0.00012	0	-5e-05	-7e-05	1e-05	2
4792	0	3e-05	6e-05	-0.00012	0	-5e-05	-7e-05	1e-05	2
4793	0	3e-05	6e-05	-0.00012	0	-5e-05	-7e-05	1e-05	2
4794	0	3e-05	6e-05	-0.00012	0	-5e-05	-7e-05	1e-05	2
4795	0	3e-05	6e-05	-0.00012	0	-5e-05	-7e-05	1e-05	2
4796	0	3e-05	6e-05	-0.00012	0	-5e-05	-7e-05	1e-05	2
4797	0	3e-05	6e-05	-0.00012	0	-5e-05	-7e-05	1e-05	2
4798	0	3e-05	6e-05	-0.00012	0	-5e-05	-7e-05	1e-05	2
4799	0	3e-05	6e-05	-0.00012	0	-5e-05	-7e-05	1e-05	2
4800	0	3e-05	6e-05	-0.00012	0	-5e-05	-7e-05	1e-05	2
4802	0	3e-05	6e-05	-0.00012	0	-5e-05	-7e-05	1e-05	2
4804	0	3e-05	6e-05	-0.00012	0	-5e-05	-7e-05	1e-05	2
4805	0	3e-05	6e-05	-0.00012	0	-5e-05	-7e-05	1e-05	2
4806	0	3e-05	6e-05	-0.00012	0	-5e-05	-7e-05	1e-05	2
4807	0	3e-05	6e-05	-0.00012	0	-5e-05	-7e-05	1e-05	2
4808	0	3e-05	6e-05	-0.00012	0	-5e-05	-7e-05	1e-05	2
4809	2e-05	-3e-05	-2e-05	0.00016	9e-05	9e-05	-7e-05	1e-05	2
4810	0	0	-1e-05	-4e-05	-8e-05	0.00013	0.00016	8e-05	2
4811	0	0	-1e-05	-4e-05	-8e-05	0.00013	0.00016	8e-05	2
4812	0	0	-1e-05	-4e-05	-8e-05	0.00013	0.00016	8e-05	2
4813	0	0	-1e-05	-4e-05	-8e-05	0.00013	0.00016	8e-05	2
4814	0	0	-1e-05	-4e-05	-8e-05	0.00013	0.00016	8e-05	2
4815	0	0	-1e-05	-4e-05	-8e-05	0.00013	0.00016	8e-05	2
4816	0	0	-1e-05	-4e-05	-8e-05	0.00013	0.00016	8e-05	2
4817	0	0	-1e-05	-4e-05	-8e-05	0.00013	0.00016	8e-05	2
4818	0	0	-1e-05	-4e-05	-8e-05	0.00013	0.00016	8e-05	2
4819	0	0	-1e-05	-4e-05	-8e-05	0.00013	0.00016	8e-05	2
4820	0	0	-1e-05	-4e-05	-8e-05	0.00013	0.00016	8e-05	2
4821	0	0	-1e-05	-4e-05	-8e-05	0.00013	0.00016	8e-05	2
4822	0	0	-1e-05	-4e-05	-8e-05	0.00013	0.00016	8e-05	2
4823	0	-4e-05	-4e-05	-9e-05	1e-05	2e-05	3e-05	5e-05	2
4824	1e-05	0	-4e-05	-5e-05	1e-05	8e-05	-0.00011	-1e-05	2
4825	1e-05	0	-4e-05	-5e-05	1e-05	8e-05	-0.00011	-1e-05	2
4826	1e-05	0	-4e-05	-5e-05	1e-05	8e-05	-0.00011	-1e-05	2
4827	1e-05	0	-4e-05	-5e-05	1e-05	8e-05	-0.00011	-1e-05	2
4828	1e-05	0	-4e-05	-5e-05	1e-05	8e-05	-0.00011	-1e-05	2
4829	1e-05	0	-4e-05	-5e-05	1e-05	8e-05	-0.00011	-1e-05	2
4830	1e-05	0	-4e-05	-5e-05	1e-05	8e-05	-0.00011	-1e-05	2
4831	1e-05	0	-4e-05	-5e-05	1e-05	8e-05	-0.00011	-1e-05	2
4832	1e-05	0	-4e-05	-5e-05	1e-05	8e-05	-0.00011	-1e-05	2
4833	1e-05	0	-4e-05	-5e-05	1e-05	8e-05	-0.00011	-1e-05	2
4834	1e-05	0	-4e-05	-5e-05	1e-05	8e-05	-0.00011	-1e-05	2
4835	1e-05	0	-4e-05	-5e-05	1e-05	8e-05	-0.00011	-1e-05	2
4836	1e-05	0	-4e-05	-5e-05	1e-05	8e-05	-0.00011	-1e-05	2
4839	1e-05	0	-4e-05	-5e-05	1e-05	8e-05	-0.00011	-1e-05	2
4840	1e-05	0	-4e-05	-5e-05	1e-05	8e-05	-0.00011	-1e-05	2
4841	1e-05	0	-4e-05	-5e-05	1e-05	8e-05	-0.00011	-1e-05	2
4842	1e-05	0	-4e-05	-5e-05	1e-05	8e-05	-0.00011	-1e-05	2
4843	1e-05	0	-4e-05	-5e-05	1e-05	8e-05	-0.00011	-1e-05	2
4844	1e-05	0	-4e-05	-5e-05	1e-05	8e-05	-0.00011	-1e-05	2
4845	2e-05	2e-05	1e-05	-4e-05	1e-05	-1e-05	8e-05	5e-05	2
4846	-2e-05	-4e-05	-2e-05	2e-05	-1e-05	-8e-05	-6e-05	-7e-05	2
4847	-2e-05	-4e-05	-2e-05	2e-05	-1e-05	-8e-05	-6e-05	-7e-05	2
4848	-2e-05	-4e-05	-2e-05	2e-05	-1e-05	-8e-05	-6e-05	-7e-05	2
4849	-2e-05	-4e-05	-2e-05	2e-05	-1e-05	-8e-05	-6e-05	-7e-05	2
4850	-2e-05	-4e-05	-2e-05	2e-05	-1e-05	-8e-05	-6e-05	-7e-05	2
4851	-2e-05	-4e-05	-2e-05	2e-05	-1e-05	-8e-05	-6e-05	-7e-05	2
4852	-2e-05	-4e-05	-2e-05	2e-05	-1e-05	-8e-05	-6e-05	-7e-05	2
4853	-2e-05	-4e-05	-2e-05	2e-05	-1e-05	-8e-05	-6e-05	-7e-05	2
4854	-2e-05	-4e-05	-2e-05	2e-05	-1e-05	-8e-05	-6e-05	-7e-05	2
4855	-2e-05	-4e-05	-2e-05	2e-05	-1e-05	-8e-05	-6e-05	-7e-05	2
4856	-2e-05	-4e-05	-2e-05	2e-05	-1e-05	-8e-05	-6e-05	-7e-05	2
4857	-2e-05	-4e-05	-2e-05	2e-05	-1e-05	-8e-05	-6e-05	-7e-05	2
4858	-2e-05	-4e-05	-2e-05	2e-05	-1e-05	-8e-05	-6e-05	-7e-05	2
4859	-2e-05	-4e-05	-2e-05	2e-05	-1e-05	-8e-05	-6e-05	-7e-05	2
4860	-2e-05	-4e-05	-2e-05	2e-05	-1e-05	-8e-05	-6e-05	-7e-05	2
4861	-2e-05	-4e-05	-2e-05	2e-05	-1e-05	-8e-05	-6e-05	-7e-05	2
4862	-2e-05	-4e-05	-2e-05	2e-05	-1e-05	-8e-05	-6e-05	-7e-05	2
4863	-2e-05	-4e-05	-2e-05	2e-05	-1e-05	-8e-05	-6e-05	-7e-05	2
4864	-2e-05	-4e-05	-2e-05	2e-05	-1e-05	-8e-05	-6e-05	-7e-05	2
4865	-2e-05	-4e-05	-2e-05	2e-05	-1e-05	-8e-05	-6e-05	-7e-05	2
4866	-2e-05	-4e-05	-2e-05	2e-05	-1e-05	-8e-05	-6e-05	-7e-05	2
4867	-2e-05	-4e-05	-2e-05	2e-05	-1e-05	-8e-05	-6e-05	-7e-05	2
4868	-2e-05	-4e-05	-2e-05	2e-05	-1e-05	-8e-05	-6e-05	-7e-05	2
4869	-7e-05	-7e-05	-5e-05	-0.00013	-0.0003	-0.00012	1e-05	-8e-05	2
4870	-7e-05	-7e-05	-5e-05	-0.00013	-0.0003	-0.00012	1e-05	-8e-05	2
4871	-7e-05	-7e-05	-5e-05	-0.00013	-0.0003	-0.00012	1e-05	-8e-05	2
4872	-7e-05	-7e-05	-5e-05	-0.00013	-0.0003	-0.00012	1e-05	-8e-05	2
4873	-7e-05	-7e-05	-5e-05	-0.00013	-0.0003	-0.00012	1e-05	-8e-05	2
4874	-7e-05	-7e-05	-5e-05	-0.00013	-0.0003	-0.00012	1e-05	-8e-05	2
4875	-7e-05	-7e-05	-5e-05	-0.00013	-0.0003	-0.00012	1e-05	-8e-05	2
4876	-7e-05	-7e-05	-5e-05	-0.00013	-0.0003	-0.00012	1e-05	-8e-05	2
4877	-7e-05	-7e-05	-5e-05	-0.00013	-0.0003	-0.00012	1e-05	-8e-05	2
4878	-7e-05	-7e-05	-5e-05	-0.00013	-0.0003	-0.00012	1e-05	-8e-05	2
4879	-7e-05	-7e-05	-5e-05	-0.00013	-0.0003	-0.00012	1e-05	-8e-05	2
4880	-7e-05	-7e-05	-5e-05	-0.00013	-0.0003	-0.00012	1e-05	-8e-05	2
4881	-7e-05	-7e-05	-5e-05	-0.00013	-0.0003	-0.00012	1e-05	-8e-05	2
4882	-7e-05	-7e-05	-5e-05	-0.00013	-0.0003	-0.00012	1e-05	-8e-05	2
4883	-2e-05	-5e-05	-3e-05	-1e-05	-4e-05	-0.00023	-0.0002	-1e-05	2
4884	-2e-05	-5e-05	-3e-05	-1e-05	-4e-05	-0.00023	-0.0002	-1e-05	2
4885	-2e-05	-5e-05	-3e-05	-1e-05	-4e-05	-0.00023	-0.0002	-1e-05	2
4886	-2e-05	-5e-05	-3e-05	-1e-05	-4e-05	-0.00023	-0.0002	-1e-05	2
4888	-2e-05	-5e-05	-3e-05	-1e-05	-4e-05	-0.00023	-0.0002	-1e-05	2
4889	-2e-05	-5e-05	-3e-05	-1e-05	-4e-05	-0.00023	-0.0002	-1e-05	2
4890	3e-05	0	-3e-05	0.00027	5e-05	0.00017	-7e-05	6e-05	2
4891	3e-05	0	-3e-05	0.00027	5e-05	0.00017	-7e-05	6e-05	2
4892	3e-05	0	-3e-05	0.00027	5e-05	0.00017	-7e-05	6e-05	2
4893	3e-05	0	-3e-05	0.00027	5e-05	0.00017	-7e-05	6e-05	2
4894	3e-05	0	-3e-05	0.00027	5e-05	0.00017	-7e-05	6e-05	2
4895	3e-05	0	-3e-05	0.00027	5e-05	0.00017	-7e-05	6e-05	2
4896	3e-05	0	-3e-05	0.00027	5e-05	0.00017	-7e-05	6e-05	2
4897	3e-05	0	-3e-05	0.00027	5e-05	0.00017	-7e-05	6e-05	2
4898	3e-05	0	-3e-05	0.00027	5e-05	0.00017	-7e-05	6e-05	2
4899	3e-05	0	-3e-05	0.00027	5e-05	0.00017	-7e-05	6e-05	2
4900	3e-05	0	-3e-05	0.00027	5e-05	0.00017	-7e-05	6e-05	2
4901	3e-05	0	-3e-05	0.00027	5e-05	0.00017	-7e-05	6e-05	2
4902	3e-05	0	-3e-05	0.00027	5e-05	0.00017	-7e-05	6e-05	2
4903	3e-05	0	-3e-05	0.00027	5e-05	0.00017	-7e-05	6e-05	2
4904	3e-05	0	-3e-05	0.00027	5e-05	0.00017	-7e-05	6e-05	2
4905	3e-05	0	-3e-05	0.00027	5e-05	0.00017	-7e-05	6e-05	2
4906	3e-05	0	-3e-05	0.00027	5e-05	0.00017	-7e-05	6e-05	2
4907	3e-05	0	-3e-05	0.00027	5e-05	0.00017	-7e-05	6e-05	2
4908	3e-05	0	-3e-05	0.00027	5e-05	0.00017	-7e-05	6e-05	2
4909	3e-05	0	-3e-05	0.00027	5e-05	0.00017	-7e-05	6e-05	2
4910	3e-05	0	-3e-05	0.00027	5e-05	0.00017	-7e-05	6e-05	2
4911	3e-05	0	-3e-05	0.00027	5e-05	0.00017	-7e-05	6e-05	2
4912	3e-05	0	-3e-05	0.00027	5e-05	0.00017	-7e-05	6e-05	2
4913	-1e-05	1e-05	0.00013	6e-05	-0.00014	-0.00024	3e-05	-5e-05	2
4914	0	-3e-05	-5e-05	-9e-05	-3e-05	1e-05	5e-05	2e-05	2
4915	0	-3e-05	-5e-05	-9e-05	-3e-05	1e-05	5e-05	2e-05	2
4916	0	-3e-05	-5e-05	-9e-05	-3e-05	1e-05	5e-05	2e-05	2
4917	0	-3e-05	-5e-05	-9e-05	-3e-05	1e-05	5e-05	2e-05	2
4918	0	-3e-05	-5e-05	-9e-05	-3e-05	1e-05	5e-05	2e-05	2
4919	0	-3e-05	-5e-05	-9e-05	-3e-05	1e-05	5e-05	2e-05	2
4920	0	-3e-05	-5e-05	-9e-05	-3e-05	1e-05	5e-05	2e-05	2
4921	0	-3e-05	-5e-05	-9e-05	-3e-05	1e-05	5e-05	2e-05	2
4922	0	-3e-05	-5e-05	-9e-05	-3e-05	1e-05	5e-05	2e-05	2
4923	0	-3e-05	-5e-05	-9e-05	-3e-05	1e-05	5e-05	2e-05	2
4924	0	-3e-05	-5e-05	-9e-05	-3e-05	1e-05	5e-05	2e-05	2
4925	0	-3e-05	-5e-05	-9e-05	-3e-05	1e-05	5e-05	2e-05	2
4926	0	-3e-05	-5e-05	-9e-05	-3e-05	1e-05	5e-05	2e-05	2
4927	0	-3e-05	-5e-05	-9e-05	-3e-05	1e-05	5e-05	2e-05	2
4928	0	-3e-05	-5e-05	-9e-05	-3e-05	1e-05	5e-05	2e-05	2
4929	2e-05	-1e-05	-2e-05	6e-05	4e-05	6e-05	3e-05	7e-05	2
4930	2e-05	5e-05	-3e-05	-4e-05	7e-05	-7e-05	8e-05	9e-05	2
4931	2e-05	5e-05	-3e-05	-4e-05	7e-05	-7e-05	8e-05	9e-05	2
4932	2e-05	5e-05	-3e-05	-4e-05	7e-05	-7e-05	8e-05	9e-05	2
4933	2e-05	5e-05	-3e-05	-4e-05	7e-05	-7e-05	8e-05	9e-05	2
4934	2e-05	5e-05	-3e-05	-4e-05	7e-05	-7e-05	8e-05	9e-05	2
4935	2e-05	5e-05	-3e-05	-4e-05	7e-05	-7e-05	8e-05	9e-05	2
4936	2e-05	5e-05	-3e-05	-4e-05	7e-05	-7e-05	8e-05	9e-05	2
4938	2e-05	5e-05	-3e-05	-4e-05	7e-05	-7e-05	8e-05	9e-05	2
4939	2e-05	5e-05	-3e-05	-4e-05	7e-05	-7e-05	8e-05	9e-05	2
4940	2e-05	5e-05	-3e-05	-4e-05	7e-05	-7e-05	8e-05	9e-05	2
4941	2e-05	5e-05	-3e-05	-4e-05	7e-05	-7e-05	8e-05	9e-05	2
4942	2e-05	5e-05	-3e-05	-4e-05	7e-05	-7e-05	8e-05	9e-05	2
4943	-4e-05	-2e-05	4e-05	6e-05	1e-05	0.00032	0.00019	-8e-05	2
4944	0	0	6e-05	4e-05	9e-05	-4e-05	-4e-05	0.00011	2
4945	0	0	6e-05	4e-05	9e-05	-4e-05	-4e-05	0.00011	2
4946	0	0	6e-05	4e-05	9e-05	-4e-05	-4e-05	0.00011	2
4947	0	0	6e-05	4e-05	9e-05	-4e-05	-4e-05	0.00011	2
4948	0	0	6e-05	4e-05	9e-05	-4e-05	-4e-05	0.00011	2
4949	0	0	6e-05	4e-05	9e-05	-4e-05	-4e-05	0.00011	2
4950	0	0	6e-05	4e-05	9e-05	-4e-05	-4e-05	0.00011	2
4951	0	0	6e-05	4e-05	9e-05	-4e-05	-4e-05	0.00011	2
4952	0	0	6e-05	4e-05	9e-05	-4e-05	-4e-05	0.00011	2
4953	0	0	6e-05	4e-05	9e-05	-4e-05	-4e-05	0.00011	2
4954	0	0	6e-05	4e-05	9e-05	-4e-05	-4e-05	0.00011	2
4955	0	0	6e-05	4e-05	9e-05	-4e-05	-4e-05	0.00011	2
4956	0	0	6e-05	4e-05	9e-05	-4e-05	-4e-05	0.00011	2
4957	0	0	6e-05	4e-05	9e-05	-4e-05	-4e-05	0.00011	2
4958	0	0	6e-05	4e-05	9e-05	-4e-05	-4e-05	0.00011	2
4959	0	0	6e-05	4e-05	9e-05	-4e-05	-4e-05	0.00011	2
4960	0	0	6e-05	4e-05	9e-05	-4e-05	-4e-05	0.00011	2
4961	0	0	6e-05	4e-05	9e-05	-4e-05	-4e-05	0.00011	2
4962	0	0	6e-05	4e-05	9e-05	-4e-05	-4e-05	0.00011	2
4963	0	0	6e-05	4e-05	9e-05	-4e-05	-4e-05	0.00011	2
4964	0	0	6e-05	4e-05	9e-05	-4e-05	-4e-05	0.00011	2
4965	0	0	6e-05	4e-05	9e-05	-4e-05	-4e-05	0.00011	2
4966	-3e-05	4e-05	0.00014	0.0001	6e-05	-0.00017	-0.00016	-4e-05	2
4967	1e-05	-3e-05	-3e-05	-7e-05	-1e-05	0.00017	5e-05	6e-05	2
4968	1e-05	-3e-05	-3e-05	-7e-05	-1e-05	0.00017	5e-05	6e-05	2
4969	1e-05	-3e-05	-3e-05	-7e-05	-1e-05	0.00017	5e-05	6e-05	2
4970	1e-05	-3e-05	-3e-05	-7e-05	-1e-05	0.00017	5e-05	6e-05	2
4971	1e-05	-3e-05	-3e-05	-7e-05	-1e-05	0.00017	5e-05	6e-05	2
4972	1e-05	-3e-05	-3e-05	-7e-05	-1e-05	0.00017	5e-05	6e-05	2
4973	1e-05	-3e-05	-3e-05	-7e-05	-1e-05	0.00017	5e-05	6e-05	2
4974	1e-05	-3e-05	-3e-05	-7e-05	-1e-05	0.00017	5e-05	6e-05	2
4975	1e-05	-3e-05	-3e-05	-7e-05	-1e-05	0.00017	5e-05	6e-05	2
4976	1e-05	-3e-05	-3e-05	-7e-05	-1e-05	0.00017	5e-05	6e-05	2
4977	1e-05	-3e-05	-3e-05	-7e-05	-1e-05	0.00017	5e-05	6e-05	2
4978	1e-05	-3e-05	-3e-05	-7e-05	-1e-05	0.00017	5e-05	6e-05	2
4979	1e-05	-3e-05	-3e-05	-7e-05	-1e-05	0.00017	5e-05	6e-05	2
4980	1e-05	-3e-05	-3e-05	-7e-05	-1e-05	0.00017	5e-05	6e-05	2
4981	1e-05	-3e-05	-3e-05	-7e-05	-1e-05	0.00017	5e-05	6e-05	2
4982	1e-05	-3e-05	-3e-05	-7e-05	-1e-05	0.00017	5e-05	6e-05	2
4983	1e-05	-3e-05	-3e-05	-7e-05	-1e-05	0.00017	5e-05	6e-05	2
4984	1e-05	-3e-05	-3e-05	-7e-05	-1e-05	0.00017	5e-05	6e-05	2
4985	1e-05	-3e-05	-3e-05	-7e-05	-1e-05	0.00017	5e-05	6e-05	2
4986	1e-05	-3e-05	-3e-05	-7e-05	-1e-05	0.00017	5e-05	6e-05	2
4989	1e-05	-3e-05	-3e-05	-7e-05	-1e-05	0.00017	5e-05	6e-05	2
4990	0	1e-05	-2e-05	-1e-05	0.00012	3e-05	-7e-05	-5e-05	2
4991	0	1e-05	-2e-05	-1e-05	0.00012	3e-05	-7e-05	-5e-05	2
4992	0	1e-05	-2e-05	-1e-05	0.00012	3e-05	-7e-05	-5e-05	2
4993	0	1e-05	-2e-05	-1e-05	0.00012	3e-05	-7e-05	-5e-05	2
4994	0	1e-05	-2e-05	-1e-05	0.00012	3e-05	-7e-05	-5e-05	2
4995	0	1e-05	-2e-05	-1e-05	0.00012	3e-05	-7e-05	-5e-05	2
4996	0	1e-05	-2e-05	-1e-05	0.00012	3e-05	-7e-05	-5e-05	2
4997	0	1e-05	-2e-05	-1e-05	0.00012	3e-05	-7e-05	-5e-05	2
4998	0	1e-05	-2e-05	-1e-05	0.00012	3e-05	-7e-05	-5e-05	2
4999	0	1e-05	-2e-05	-1e-05	0.00012	3e-05	-7e-05	-5e-05	2
5000	0	1e-05	-2e-05	-1e-05	0.00012	3e-05	-7e-05	-5e-05	2
5001	0	1e-05	-2e-05	-1e-05	0.00012	3e-05	-7e-05	-5e-05	2
5002	0	1e-05	-2e-05	-1e-05	0.00012	3e-05	-7e-05	-5e-05	2
5003	-2e-05	1e-05	6e-05	8e-05	0.00021	5e-05	0	-4e-05	2
5004	-5e-05	-2e-05	-7e-05	-7e-05	-8e-05	-4e-05	-0.00013	-0.00013	2
5005	-5e-05	-2e-05	-7e-05	-7e-05	-8e-05	-4e-05	-0.00013	-0.00013	2
5006	-5e-05	-2e-05	-7e-05	-7e-05	-8e-05	-4e-05	-0.00013	-0.00013	2
5007	-5e-05	-2e-05	-7e-05	-7e-05	-8e-05	-4e-05	-0.00013	-0.00013	2
5008	-5e-05	-2e-05	-7e-05	-7e-05	-8e-05	-4e-05	-0.00013	-0.00013	2
5009	-5e-05	-2e-05	-7e-05	-7e-05	-8e-05	-4e-05	-0.00013	-0.00013	2
5010	-5e-05	-2e-05	-7e-05	-7e-05	-8e-05	-4e-05	-0.00013	-0.00013	2
5011	-5e-05	-2e-05	-7e-05	-7e-05	-8e-05	-4e-05	-0.00013	-0.00013	2
5012	-5e-05	-2e-05	-7e-05	-7e-05	-8e-05	-4e-05	-0.00013	-0.00013	2
5013	-5e-05	-2e-05	-7e-05	-7e-05	-8e-05	-4e-05	-0.00013	-0.00013	2
5014	-5e-05	-2e-05	-7e-05	-7e-05	-8e-05	-4e-05	-0.00013	-0.00013	2
5015	-5e-05	-2e-05	-7e-05	-7e-05	-8e-05	-4e-05	-0.00013	-0.00013	2
5016	-5e-05	-2e-05	-7e-05	-7e-05	-8e-05	-4e-05	-0.00013	-0.00013	2
5017	-5e-05	-2e-05	-7e-05	-7e-05	-8e-05	-4e-05	-0.00013	-0.00013	2
5018	-5e-05	-2e-05	-7e-05	-7e-05	-8e-05	-4e-05	-0.00013	-0.00013	2
5019	-5e-05	-2e-05	-7e-05	-7e-05	-8e-05	-4e-05	-0.00013	-0.00013	2
5020	-5e-05	-2e-05	-7e-05	-7e-05	-8e-05	-4e-05	-0.00013	-0.00013	2
5021	-5e-05	-2e-05	-7e-05	-7e-05	-8e-05	-4e-05	-0.00013	-0.00013	2
5022	-5e-05	-2e-05	-7e-05	-7e-05	-8e-05	-4e-05	-0.00013	-0.00013	2
5023	-5e-05	-2e-05	-7e-05	-7e-05	-8e-05	-4e-05	-0.00013	-0.00013	2
5024	-5e-05	-2e-05	-7e-05	-7e-05	-8e-05	-4e-05	-0.00013	-0.00013	2
5025	0	-1e-05	-1e-05	0	-8e-05	-0.0001	-2e-05	-3e-05	2
5026	-4e-05	-1e-05	3e-05	2e-05	8e-05	-0.00012	-3e-05	0	2
5027	-4e-05	-1e-05	3e-05	2e-05	8e-05	-0.00012	-3e-05	0	2
5028	-4e-05	-1e-05	3e-05	2e-05	8e-05	-0.00012	-3e-05	0	2
5029	-4e-05	-1e-05	3e-05	2e-05	8e-05	-0.00012	-3e-05	0	2
5030	-4e-05	-1e-05	3e-05	2e-05	8e-05	-0.00012	-3e-05	0	2
5031	-4e-05	-1e-05	3e-05	2e-05	8e-05	-0.00012	-3e-05	0	2
5033	-4e-05	-1e-05	3e-05	2e-05	8e-05	-0.00012	-3e-05	0	2
5034	-4e-05	-1e-05	3e-05	2e-05	8e-05	-0.00012	-3e-05	0	2
5035	-4e-05	-1e-05	3e-05	2e-05	8e-05	-0.00012	-3e-05	0	2
5036	-4e-05	-1e-05	3e-05	2e-05	8e-05	-0.00012	-3e-05	0	2
5039	-4e-05	-1e-05	3e-05	2e-05	8e-05	-0.00012	-3e-05	0	2
5040	-4e-05	-1e-05	3e-05	2e-05	8e-05	-0.00012	-3e-05	0	2
5041	-4e-05	-1e-05	3e-05	2e-05	8e-05	-0.00012	-3e-05	0	2
5042	-4e-05	-1e-05	3e-05	2e-05	8e-05	-0.00012	-3e-05	0	2
5043	-4e-05	-1e-05	3e-05	2e-05	8e-05	-0.00012	-3e-05	0	2
5044	-4e-05	-1e-05	3e-05	2e-05	8e-05	-0.00012	-3e-05	0	2
5045	-4e-05	-1e-05	3e-05	2e-05	8e-05	-0.00012	-3e-05	0	2
5046	-4e-05	-1e-05	3e-05	2e-05	8e-05	-0.00012	-3e-05	0	2
5047	-4e-05	-1e-05	3e-05	2e-05	8e-05	-0.00012	-3e-05	0	2
5048	-4e-05	-1e-05	3e-05	2e-05	8e-05	-0.00012	-3e-05	0	2
5049	-5e-05	-7e-05	-0.00013	-0.00014	-0.00011	-1e-05	-6e-05	-5e-05	2
5050	-2e-05	-2e-05	-5e-05	-3e-05	-6e-05	-7e-05	-1e-05	-5e-05	2
5051	-2e-05	-2e-05	-5e-05	-3e-05	-6e-05	-7e-05	-1e-05	-5e-05	2
5052	-2e-05	-2e-05	-5e-05	-3e-05	-6e-05	-7e-05	-1e-05	-5e-05	2
5053	-2e-05	-2e-05	-5e-05	-3e-05	-6e-05	-7e-05	-1e-05	-5e-05	2
5054	-2e-05	-2e-05	-5e-05	-3e-05	-6e-05	-7e-05	-1e-05	-5e-05	2
5055	-2e-05	-2e-05	-5e-05	-3e-05	-6e-05	-7e-05	-1e-05	-5e-05	2
5056	-2e-05	-2e-05	-5e-05	-3e-05	-6e-05	-7e-05	-1e-05	-5e-05	2
5057	-2e-05	-2e-05	-5e-05	-3e-05	-6e-05	-7e-05	-1e-05	-5e-05	2
5058	-2e-05	-2e-05	-5e-05	-3e-05	-6e-05	-7e-05	-1e-05	-5e-05	2
5059	-2e-05	-2e-05	-5e-05	-3e-05	-6e-05	-7e-05	-1e-05	-5e-05	2
5060	-2e-05	-2e-05	-5e-05	-3e-05	-6e-05	-7e-05	-1e-05	-5e-05	2
5061	-2e-05	-2e-05	-5e-05	-3e-05	-6e-05	-7e-05	-1e-05	-5e-05	2
5062	-2e-05	-2e-05	-5e-05	-3e-05	-6e-05	-7e-05	-1e-05	-5e-05	2
5063	-5e-05	-3e-05	3e-05	2e-05	-0.00014	3e-05	0.00015	-3e-05	2
5064	0	0	3e-05	1e-05	0.00011	8e-05	7e-05	-3e-05	2
5065	0	0	3e-05	1e-05	0.00011	8e-05	7e-05	-3e-05	2
5066	0	0	3e-05	1e-05	0.00011	8e-05	7e-05	-3e-05	2
5067	0	0	3e-05	1e-05	0.00011	8e-05	7e-05	-3e-05	2
5068	0	0	3e-05	1e-05	0.00011	8e-05	7e-05	-3e-05	2
5069	0	0	3e-05	1e-05	0.00011	8e-05	7e-05	-3e-05	2
5070	0	0	3e-05	1e-05	0.00011	8e-05	7e-05	-3e-05	2
5071	0	0	3e-05	1e-05	0.00011	8e-05	7e-05	-3e-05	2
5072	0	0	3e-05	1e-05	0.00011	8e-05	7e-05	-3e-05	2
5073	0	0	3e-05	1e-05	0.00011	8e-05	7e-05	-3e-05	2
5074	0	0	3e-05	1e-05	0.00011	8e-05	7e-05	-3e-05	2
5075	0	0	3e-05	1e-05	0.00011	8e-05	7e-05	-3e-05	2
5076	0	0	3e-05	1e-05	0.00011	8e-05	7e-05	-3e-05	2
5077	0	0	3e-05	1e-05	0.00011	8e-05	7e-05	-3e-05	2
5078	0	0	3e-05	1e-05	0.00011	8e-05	7e-05	-3e-05	2
5079	0	0	3e-05	1e-05	0.00011	8e-05	7e-05	-3e-05	2
5080	0	0	3e-05	1e-05	0.00011	8e-05	7e-05	-3e-05	2
5081	0	0	3e-05	1e-05	0.00011	8e-05	7e-05	-3e-05	2
5082	0	0	3e-05	1e-05	0.00011	8e-05	7e-05	-3e-05	2
5083	0	0	3e-05	1e-05	0.00011	8e-05	7e-05	-3e-05	2
5084	0	0	3e-05	1e-05	0.00011	8e-05	7e-05	-3e-05	2
5085	0	0	3e-05	1e-05	0.00011	8e-05	7e-05	-3e-05	2
5087	-1e-05	-1e-05	6e-05	0.00011	0.00019	0.00021	4e-05	-2e-05	2
5089	-1e-05	-1e-05	6e-05	0.00011	0.00019	0.00021	4e-05	-2e-05	2
5091	-1e-05	-1e-05	6e-05	0.00011	0.00019	0.00021	4e-05	-2e-05	2
5092	-1e-05	-1e-05	6e-05	0.00011	0.00019	0.00021	4e-05	-2e-05	2
5093	-1e-05	-1e-05	6e-05	0.00011	0.00019	0.00021	4e-05	-2e-05	2
5094	-1e-05	-1e-05	6e-05	0.00011	0.00019	0.00021	4e-05	-2e-05	2
5095	-1e-05	-1e-05	6e-05	0.00011	0.00019	0.00021	4e-05	-2e-05	2
5096	-1e-05	-1e-05	6e-05	0.00011	0.00019	0.00021	4e-05	-2e-05	2
5097	-1e-05	-1e-05	6e-05	0.00011	0.00019	0.00021	4e-05	-2e-05	2
5098	-1e-05	-1e-05	6e-05	0.00011	0.00019	0.00021	4e-05	-2e-05	2
5099	-1e-05	-1e-05	6e-05	0.00011	0.00019	0.00021	4e-05	-2e-05	2
5100	-1e-05	-1e-05	6e-05	0.00011	0.00019	0.00021	4e-05	-2e-05	2
5101	-1e-05	-1e-05	6e-05	0.00011	0.00019	0.00021	4e-05	-2e-05	2
5102	-1e-05	-1e-05	6e-05	0.00011	0.00019	0.00021	4e-05	-2e-05	2
5103	-1e-05	-1e-05	6e-05	0.00011	0.00019	0.00021	4e-05	-2e-05	2
5104	-1e-05	-1e-05	6e-05	0.00011	0.00019	0.00021	4e-05	-2e-05	2
5105	-1e-05	-1e-05	6e-05	0.00011	0.00019	0.00021	4e-05	-2e-05	2
5106	-1e-05	-1e-05	6e-05	0.00011	0.00019	0.00021	4e-05	-2e-05	2
5107	-1e-05	-1e-05	6e-05	0.00011	0.00019	0.00021	4e-05	-2e-05	2
5108	-1e-05	-1e-05	6e-05	0.00011	0.00019	0.00021	4e-05	-2e-05	2
5109	3e-05	1e-05	0	-5e-05	-5e-05	-3e-05	-2e-05	8e-05	2
5110	-8e-05	-9e-05	-9e-05	-5e-05	-5e-05	-0.00015	-0.00017	-0.00015	2
5111	-8e-05	-9e-05	-9e-05	-5e-05	-5e-05	-0.00015	-0.00017	-0.00015	2
5112	-8e-05	-9e-05	-9e-05	-5e-05	-5e-05	-0.00015	-0.00017	-0.00015	2
5113	-8e-05	-9e-05	-9e-05	-5e-05	-5e-05	-0.00015	-0.00017	-0.00015	2
5114	-8e-05	-9e-05	-9e-05	-5e-05	-5e-05	-0.00015	-0.00017	-0.00015	2
5115	-8e-05	-9e-05	-9e-05	-5e-05	-5e-05	-0.00015	-0.00017	-0.00015	2
5116	-8e-05	-9e-05	-9e-05	-5e-05	-5e-05	-0.00015	-0.00017	-0.00015	2
5117	-8e-05	-9e-05	-9e-05	-5e-05	-5e-05	-0.00015	-0.00017	-0.00015	2
5118	-8e-05	-9e-05	-9e-05	-5e-05	-5e-05	-0.00015	-0.00017	-0.00015	2
5119	-8e-05	-9e-05	-9e-05	-5e-05	-5e-05	-0.00015	-0.00017	-0.00015	2
5120	-8e-05	-9e-05	-9e-05	-5e-05	-5e-05	-0.00015	-0.00017	-0.00015	2
5121	-8e-05	-9e-05	-9e-05	-5e-05	-5e-05	-0.00015	-0.00017	-0.00015	2
5122	-8e-05	-9e-05	-9e-05	-5e-05	-5e-05	-0.00015	-0.00017	-0.00015	2
5123	-6e-05	-1e-05	-5e-05	6e-05	0	-0.00019	-9e-05	-0.00018	2
5124	0	-2e-05	-2e-05	-7e-05	-0.0001	8e-05	5e-05	0	2
5125	0	-2e-05	-2e-05	-7e-05	-0.0001	8e-05	5e-05	0	2
5126	0	-2e-05	-2e-05	-7e-05	-0.0001	8e-05	5e-05	0	2
5127	0	-2e-05	-2e-05	-7e-05	-0.0001	8e-05	5e-05	0	2
5128	0	-2e-05	-2e-05	-7e-05	-0.0001	8e-05	5e-05	0	2
5129	0	-2e-05	-2e-05	-7e-05	-0.0001	8e-05	5e-05	0	2
5130	0	-2e-05	-2e-05	-7e-05	-0.0001	8e-05	5e-05	0	2
5131	0	-2e-05	-2e-05	-7e-05	-0.0001	8e-05	5e-05	0	2
5132	0	-2e-05	-2e-05	-7e-05	-0.0001	8e-05	5e-05	0	2
5133	0	-2e-05	-2e-05	-7e-05	-0.0001	8e-05	5e-05	0	2
5134	0	-2e-05	-2e-05	-7e-05	-0.0001	8e-05	5e-05	0	2
5135	0	-2e-05	-2e-05	-7e-05	-0.0001	8e-05	5e-05	0	2
5136	0	-2e-05	-2e-05	-7e-05	-0.0001	8e-05	5e-05	0	2
5139	0	-2e-05	-2e-05	-7e-05	-0.0001	8e-05	5e-05	0	2
5140	0	-2e-05	-2e-05	-7e-05	-0.0001	8e-05	5e-05	0	2
5141	0	-2e-05	-2e-05	-7e-05	-0.0001	8e-05	5e-05	0	2
5142	0	-2e-05	-2e-05	-7e-05	-0.0001	8e-05	5e-05	0	2
5143	0	-2e-05	-2e-05	-7e-05	-0.0001	8e-05	5e-05	0	2
5144	0	-2e-05	-2e-05	-7e-05	-0.0001	8e-05	5e-05	0	2
5145	-2e-05	2e-05	2e-05	1e-05	-5e-05	-6e-05	0	3e-05	2
5146	-1e-05	1e-05	6e-05	1e-05	0	-7e-05	0	1e-05	2
5147	-1e-05	-3e-05	-5e-05	-3e-05	-8e-05	-7e-05	-2e-05	-2e-05	2
5148	-1e-05	-3e-05	-5e-05	-3e-05	-8e-05	-7e-05	-2e-05	-2e-05	2
5149	-1e-05	-3e-05	-5e-05	-3e-05	-8e-05	-7e-05	-2e-05	-2e-05	2
5150	-1e-05	-3e-05	-5e-05	-3e-05	-8e-05	-7e-05	-2e-05	-2e-05	2
5151	-1e-05	-3e-05	-5e-05	-3e-05	-8e-05	-7e-05	-2e-05	-2e-05	2
5152	-1e-05	-3e-05	-5e-05	-3e-05	-8e-05	-7e-05	-2e-05	-2e-05	2
5153	-1e-05	-3e-05	-5e-05	-3e-05	-8e-05	-7e-05	-2e-05	-2e-05	2
5154	-1e-05	-3e-05	-5e-05	-3e-05	-8e-05	-7e-05	-2e-05	-2e-05	2
5155	-1e-05	-3e-05	-5e-05	-3e-05	-8e-05	-7e-05	-2e-05	-2e-05	2
5156	-1e-05	-3e-05	-5e-05	-3e-05	-8e-05	-7e-05	-2e-05	-2e-05	2
5157	-1e-05	-3e-05	-5e-05	-3e-05	-8e-05	-7e-05	-2e-05	-2e-05	2
5158	-1e-05	-3e-05	-5e-05	-3e-05	-8e-05	-7e-05	-2e-05	-2e-05	2
5159	-1e-05	-3e-05	-5e-05	-3e-05	-8e-05	-7e-05	-2e-05	-2e-05	2
5160	-1e-05	-3e-05	-5e-05	-3e-05	-8e-05	-7e-05	-2e-05	-2e-05	2
5161	-1e-05	-3e-05	-5e-05	-3e-05	-8e-05	-7e-05	-2e-05	-2e-05	2
5162	-1e-05	-3e-05	-5e-05	-3e-05	-8e-05	-7e-05	-2e-05	-2e-05	2
5163	-1e-05	-3e-05	-5e-05	-3e-05	-8e-05	-7e-05	-2e-05	-2e-05	2
5164	-1e-05	-3e-05	-5e-05	-3e-05	-8e-05	-7e-05	-2e-05	-2e-05	2
5165	-1e-05	-3e-05	-5e-05	-3e-05	-8e-05	-7e-05	-2e-05	-2e-05	2
5166	-1e-05	-3e-05	-5e-05	-3e-05	-8e-05	-7e-05	-2e-05	-2e-05	2
5167	-1e-05	-3e-05	-5e-05	-3e-05	-8e-05	-7e-05	-2e-05	-2e-05	2
5168	-1e-05	-3e-05	-5e-05	-3e-05	-8e-05	-7e-05	-2e-05	-2e-05	2
5169	4e-05	3e-05	6e-05	-7e-05	1e-05	9e-05	0.00022	7e-05	2
5170	4e-05	3e-05	6e-05	-7e-05	1e-05	9e-05	0.00022	7e-05	2
5171	4e-05	3e-05	6e-05	-7e-05	1e-05	9e-05	0.00022	7e-05	2
5172	4e-05	3e-05	6e-05	-7e-05	1e-05	9e-05	0.00022	7e-05	2
5173	4e-05	3e-05	6e-05	-7e-05	1e-05	9e-05	0.00022	7e-05	2
5174	4e-05	3e-05	6e-05	-7e-05	1e-05	9e-05	0.00022	7e-05	2
5175	4e-05	3e-05	6e-05	-7e-05	1e-05	9e-05	0.00022	7e-05	2
5176	4e-05	3e-05	6e-05	-7e-05	1e-05	9e-05	0.00022	7e-05	2
5177	4e-05	3e-05	6e-05	-7e-05	1e-05	9e-05	0.00022	7e-05	2
5178	4e-05	3e-05	6e-05	-7e-05	1e-05	9e-05	0.00022	7e-05	2
5179	4e-05	3e-05	6e-05	-7e-05	1e-05	9e-05	0.00022	7e-05	2
5180	4e-05	3e-05	6e-05	-7e-05	1e-05	9e-05	0.00022	7e-05	2
5181	4e-05	3e-05	6e-05	-7e-05	1e-05	9e-05	0.00022	7e-05	2
5182	4e-05	3e-05	6e-05	-7e-05	1e-05	9e-05	0.00022	7e-05	2
5183	4e-05	3e-05	6e-05	-7e-05	1e-05	9e-05	0.00022	7e-05	2
5184	4e-05	3e-05	6e-05	-7e-05	1e-05	9e-05	0.00022	7e-05	2
5185	4e-05	3e-05	6e-05	-7e-05	1e-05	9e-05	0.00022	7e-05	2
5186	4e-05	3e-05	6e-05	-7e-05	1e-05	9e-05	0.00022	7e-05	2
5188	4e-05	3e-05	6e-05	-7e-05	1e-05	9e-05	0.00022	7e-05	2
5190	4e-05	3e-05	6e-05	-7e-05	1e-05	9e-05	0.00022	7e-05	2
5191	-2e-05	3e-05	8e-05	-2e-05	-7e-05	-0.00022	-8e-05	-6e-05	2
5192	1e-05	1e-05	6e-05	9e-05	-1e-05	-3e-05	-0.00022	-0.0001	2
5193	1e-05	1e-05	6e-05	9e-05	-1e-05	-3e-05	-0.00022	-0.0001	2
5194	1e-05	1e-05	6e-05	9e-05	-1e-05	-3e-05	-0.00022	-0.0001	2
5195	1e-05	1e-05	6e-05	9e-05	-1e-05	-3e-05	-0.00022	-0.0001	2
5196	1e-05	1e-05	6e-05	9e-05	-1e-05	-3e-05	-0.00022	-0.0001	2
5197	1e-05	1e-05	6e-05	9e-05	-1e-05	-3e-05	-0.00022	-0.0001	2
5198	1e-05	1e-05	6e-05	9e-05	-1e-05	-3e-05	-0.00022	-0.0001	2
5199	1e-05	1e-05	6e-05	9e-05	-1e-05	-3e-05	-0.00022	-0.0001	2
5200	1e-05	1e-05	6e-05	9e-05	-1e-05	-3e-05	-0.00022	-0.0001	2
5201	1e-05	1e-05	6e-05	9e-05	-1e-05	-3e-05	-0.00022	-0.0001	2
5202	1e-05	1e-05	6e-05	9e-05	-1e-05	-3e-05	-0.00022	-0.0001	2
5203	1e-05	1e-05	6e-05	9e-05	-1e-05	-3e-05	-0.00022	-0.0001	2
5204	1e-05	1e-05	6e-05	9e-05	-1e-05	-3e-05	-0.00022	-0.0001	2
5205	1e-05	1e-05	6e-05	9e-05	-1e-05	-3e-05	-0.00022	-0.0001	2
5206	1e-05	1e-05	6e-05	9e-05	-1e-05	-3e-05	-0.00022	-0.0001	2
5207	0	4e-05	6e-05	4e-05	2e-05	-0.0002	6e-05	-1e-05	2
5208	0	4e-05	6e-05	4e-05	2e-05	-0.0002	6e-05	-1e-05	2
5209	0	4e-05	6e-05	4e-05	2e-05	-0.0002	6e-05	-1e-05	2
5210	0	4e-05	6e-05	4e-05	2e-05	-0.0002	6e-05	-1e-05	2
5211	0	4e-05	6e-05	4e-05	2e-05	-0.0002	6e-05	-1e-05	2
5212	0	4e-05	6e-05	4e-05	2e-05	-0.0002	6e-05	-1e-05	2
5213	0	4e-05	6e-05	4e-05	2e-05	-0.0002	6e-05	-1e-05	2
5214	0	4e-05	6e-05	4e-05	2e-05	-0.0002	6e-05	-1e-05	2
5215	0	4e-05	6e-05	4e-05	2e-05	-0.0002	6e-05	-1e-05	2
5216	0	4e-05	6e-05	4e-05	2e-05	-0.0002	6e-05	-1e-05	2
5217	0	4e-05	6e-05	4e-05	2e-05	-0.0002	6e-05	-1e-05	2
5218	0	4e-05	6e-05	4e-05	2e-05	-0.0002	6e-05	-1e-05	2
5219	0	4e-05	6e-05	4e-05	2e-05	-0.0002	6e-05	-1e-05	2
5220	0	4e-05	6e-05	4e-05	2e-05	-0.0002	6e-05	-1e-05	2
5221	0	4e-05	6e-05	4e-05	2e-05	-0.0002	6e-05	-1e-05	2
5222	0	4e-05	6e-05	4e-05	2e-05	-0.0002	6e-05	-1e-05	2
5223	0	4e-05	6e-05	4e-05	2e-05	-0.0002	6e-05	-1e-05	2
5224	0	4e-05	6e-05	4e-05	2e-05	-0.0002	6e-05	-1e-05	2
5225	0	4e-05	6e-05	4e-05	2e-05	-0.0002	6e-05	-1e-05	2
5226	0	4e-05	6e-05	4e-05	2e-05	-0.0002	6e-05	-1e-05	2
5227	0	4e-05	6e-05	4e-05	2e-05	-0.0002	6e-05	-1e-05	2
5228	-1e-05	-6e-05	-3e-05	-4e-05	-6e-05	0.0003	0.00018	8e-05	2
5229	0	0	-3e-05	-3e-05	-0.00016	5e-05	8e-05	5e-05	2
5230	0	0	-3e-05	-3e-05	-0.00016	5e-05	8e-05	5e-05	2
5231	0	0	-3e-05	-3e-05	-0.00016	5e-05	8e-05	5e-05	2
5232	0	0	-3e-05	-3e-05	-0.00016	5e-05	8e-05	5e-05	2
5233	0	0	-3e-05	-3e-05	-0.00016	5e-05	8e-05	5e-05	2
5234	0	0	-3e-05	-3e-05	-0.00016	5e-05	8e-05	5e-05	2
5235	0	0	-3e-05	-3e-05	-0.00016	5e-05	8e-05	5e-05	2
5236	0	0	-3e-05	-3e-05	-0.00016	5e-05	8e-05	5e-05	2
5239	0	0	-3e-05	-3e-05	-0.00016	5e-05	8e-05	5e-05	2
5240	0	0	-3e-05	-3e-05	-0.00016	5e-05	8e-05	5e-05	2
5241	0	0	-3e-05	-3e-05	-0.00016	5e-05	8e-05	5e-05	2
5242	0	0	-3e-05	-3e-05	-0.00016	5e-05	8e-05	5e-05	2
5243	0	-6e-05	-3e-05	-9e-05	-3e-05	-0.0001	-1e-05	7e-05	2
5244	0	-6e-05	-3e-05	-9e-05	-3e-05	-0.0001	-1e-05	7e-05	2
5245	0	-6e-05	-3e-05	-9e-05	-3e-05	-0.0001	-1e-05	7e-05	2
5246	0	-6e-05	-3e-05	-9e-05	-3e-05	-0.0001	-1e-05	7e-05	2
5247	0	-6e-05	-3e-05	-9e-05	-3e-05	-0.0001	-1e-05	7e-05	2
5248	0	-6e-05	-3e-05	-9e-05	-3e-05	-0.0001	-1e-05	7e-05	2
5249	0	-6e-05	-3e-05	-9e-05	-3e-05	-0.0001	-1e-05	7e-05	2
5250	0	-6e-05	-3e-05	-9e-05	-3e-05	-0.0001	-1e-05	7e-05	2
5251	0	0	-2e-05	-9e-05	-6e-05	-6e-05	-2e-05	-2e-05	2
5252	0	0	-2e-05	-9e-05	-6e-05	-6e-05	-2e-05	-2e-05	2
5253	0	0	-2e-05	-9e-05	-6e-05	-6e-05	-2e-05	-2e-05	2
5254	0	0	-2e-05	-9e-05	-6e-05	-6e-05	-2e-05	-2e-05	2
5255	0	0	-2e-05	-9e-05	-6e-05	-6e-05	-2e-05	-2e-05	2
5256	0	0	-2e-05	-9e-05	-6e-05	-6e-05	-2e-05	-2e-05	2
5257	0	0	-2e-05	-9e-05	-6e-05	-6e-05	-2e-05	-2e-05	2
5258	0	0	-2e-05	-9e-05	-6e-05	-6e-05	-2e-05	-2e-05	2
5259	0	0	-2e-05	-9e-05	-6e-05	-6e-05	-2e-05	-2e-05	2
5260	0	0	-2e-05	-9e-05	-6e-05	-6e-05	-2e-05	-2e-05	2
5261	0	0	-2e-05	-9e-05	-6e-05	-6e-05	-2e-05	-2e-05	2
5262	0	0	-2e-05	-9e-05	-6e-05	-6e-05	-2e-05	-2e-05	2
5263	0	0	-2e-05	-9e-05	-6e-05	-6e-05	-2e-05	-2e-05	2
5264	0	0	-2e-05	-9e-05	-6e-05	-6e-05	-2e-05	-2e-05	2
5265	0	0	-2e-05	-9e-05	-6e-05	-6e-05	-2e-05	-2e-05	2
5266	-1e-05	1e-05	9e-05	4e-05	6e-05	0.00016	0.00028	-2e-05	2
5267	-3e-05	1e-05	-1e-05	0.0001	8e-05	-5e-05	-0.00024	-1e-05	2
5268	-3e-05	1e-05	-1e-05	0.0001	8e-05	-5e-05	-0.00024	-1e-05	2
5269	-3e-05	1e-05	-1e-05	0.0001	8e-05	-5e-05	-0.00024	-1e-05	2
5270	-3e-05	1e-05	-1e-05	0.0001	8e-05	-5e-05	-0.00024	-1e-05	2
5271	-3e-05	1e-05	-1e-05	0.0001	8e-05	-5e-05	-0.00024	-1e-05	2
5272	-3e-05	1e-05	-1e-05	0.0001	8e-05	-5e-05	-0.00024	-1e-05	2
5273	-3e-05	1e-05	-1e-05	0.0001	8e-05	-5e-05	-0.00024	-1e-05	2
5274	-3e-05	1e-05	-1e-05	0.0001	8e-05	-5e-05	-0.00024	-1e-05	2
5275	-3e-05	1e-05	-1e-05	0.0001	8e-05	-5e-05	-0.00024	-1e-05	2
5276	-3e-05	1e-05	-1e-05	0.0001	8e-05	-5e-05	-0.00024	-1e-05	2
5277	-3e-05	1e-05	-1e-05	0.0001	8e-05	-5e-05	-0.00024	-1e-05	2
5278	-3e-05	1e-05	-1e-05	0.0001	8e-05	-5e-05	-0.00024	-1e-05	2
5279	-3e-05	1e-05	-1e-05	0.0001	8e-05	-5e-05	-0.00024	-1e-05	2
5280	-3e-05	1e-05	-1e-05	0.0001	8e-05	-5e-05	-0.00024	-1e-05	2
5281	-3e-05	1e-05	-1e-05	0.0001	8e-05	-5e-05	-0.00024	-1e-05	2
5282	-3e-05	1e-05	-1e-05	0.0001	8e-05	-5e-05	-0.00024	-1e-05	2
5283	-3e-05	1e-05	-1e-05	0.0001	8e-05	-5e-05	-0.00024	-1e-05	2
5284	-3e-05	1e-05	-1e-05	0.0001	8e-05	-5e-05	-0.00024	-1e-05	2
5285	-3e-05	1e-05	-1e-05	0.0001	8e-05	-5e-05	-0.00024	-1e-05	2
5286	-3e-05	1e-05	-1e-05	0.0001	8e-05	-5e-05	-0.00024	-1e-05	2
5289	2e-05	4e-05	0	1e-05	9e-05	0.00014	9e-05	4e-05	2
5290	2e-05	4e-05	0	1e-05	9e-05	0.00014	9e-05	4e-05	2
5291	2e-05	4e-05	0	1e-05	9e-05	0.00014	9e-05	4e-05	2
5292	2e-05	4e-05	0	1e-05	9e-05	0.00014	9e-05	4e-05	2
5293	2e-05	4e-05	0	1e-05	9e-05	0.00014	9e-05	4e-05	2
5294	2e-05	4e-05	0	1e-05	9e-05	0.00014	9e-05	4e-05	2
5295	2e-05	4e-05	0	1e-05	9e-05	0.00014	9e-05	4e-05	2
5296	2e-05	4e-05	0	1e-05	9e-05	0.00014	9e-05	4e-05	2
5297	2e-05	4e-05	0	1e-05	9e-05	0.00014	9e-05	4e-05	2
5298	2e-05	4e-05	0	1e-05	9e-05	0.00014	9e-05	4e-05	2
5299	2e-05	4e-05	0	1e-05	9e-05	0.00014	9e-05	4e-05	2
5300	2e-05	4e-05	0	1e-05	9e-05	0.00014	9e-05	4e-05	2
5301	2e-05	4e-05	0	1e-05	9e-05	0.00014	9e-05	4e-05	2
5302	3e-05	7e-05	5e-05	4e-05	5e-05	-7e-05	-5e-05	0	2
5303	3e-05	7e-05	5e-05	4e-05	5e-05	-7e-05	-5e-05	0	2
5304	3e-05	7e-05	5e-05	4e-05	5e-05	-7e-05	-5e-05	0	2
5305	3e-05	7e-05	5e-05	4e-05	5e-05	-7e-05	-5e-05	0	2
5306	3e-05	7e-05	5e-05	4e-05	5e-05	-7e-05	-5e-05	0	2
5307	3e-05	7e-05	5e-05	4e-05	5e-05	-7e-05	-5e-05	0	2
5308	3e-05	7e-05	5e-05	4e-05	5e-05	-7e-05	-5e-05	0	2
5309	3e-05	7e-05	5e-05	4e-05	5e-05	-7e-05	-5e-05	0	2
5310	3e-05	7e-05	5e-05	4e-05	5e-05	-7e-05	-5e-05	0	2
5311	3e-05	7e-05	5e-05	4e-05	5e-05	-7e-05	-5e-05	0	2
5312	0	-2e-05	4e-05	-4e-05	-3e-05	2e-05	-1e-05	2e-05	2
5313	0	-2e-05	4e-05	-4e-05	-3e-05	2e-05	-1e-05	2e-05	2
5314	0	-2e-05	4e-05	-4e-05	-3e-05	2e-05	-1e-05	2e-05	2
5315	0	-2e-05	4e-05	-4e-05	-3e-05	2e-05	-1e-05	2e-05	2
5316	0	-2e-05	4e-05	-4e-05	-3e-05	2e-05	-1e-05	2e-05	2
5317	0	-2e-05	4e-05	-4e-05	-3e-05	2e-05	-1e-05	2e-05	2
5318	0	-2e-05	4e-05	-4e-05	-3e-05	2e-05	-1e-05	2e-05	2
5319	0	-2e-05	4e-05	-4e-05	-3e-05	2e-05	-1e-05	2e-05	2
5320	0	-2e-05	4e-05	-4e-05	-3e-05	2e-05	-1e-05	2e-05	2
5321	0	-2e-05	4e-05	-4e-05	-3e-05	2e-05	-1e-05	2e-05	2
5322	0	-2e-05	4e-05	-4e-05	-3e-05	2e-05	-1e-05	2e-05	2
5323	0	-2e-05	4e-05	-4e-05	-3e-05	2e-05	-1e-05	2e-05	2
5324	0	-2e-05	4e-05	-4e-05	-3e-05	2e-05	-1e-05	2e-05	2
5325	0	-2e-05	4e-05	-4e-05	-3e-05	2e-05	-1e-05	2e-05	2
5326	-2e-05	1e-05	-3e-05	-0.00012	-0.00021	-0.00011	-3e-05	2e-05	2
5327	-2e-05	-6e-05	-1e-05	1e-05	-8e-05	1e-05	7e-05	2e-05	2
5328	-2e-05	-6e-05	-1e-05	1e-05	-8e-05	1e-05	7e-05	2e-05	2
5329	-2e-05	-6e-05	-1e-05	1e-05	-8e-05	1e-05	7e-05	2e-05	2
5330	-2e-05	-6e-05	-1e-05	1e-05	-8e-05	1e-05	7e-05	2e-05	2
5331	-2e-05	-6e-05	-1e-05	1e-05	-8e-05	1e-05	7e-05	2e-05	2
5332	-2e-05	-6e-05	-1e-05	1e-05	-8e-05	1e-05	7e-05	2e-05	2
5333	-2e-05	-6e-05	-1e-05	1e-05	-8e-05	1e-05	7e-05	2e-05	2
5334	-2e-05	-6e-05	-1e-05	1e-05	-8e-05	1e-05	7e-05	2e-05	2
5335	-2e-05	-6e-05	-1e-05	1e-05	-8e-05	1e-05	7e-05	2e-05	2
5336	-2e-05	-6e-05	-1e-05	1e-05	-8e-05	1e-05	7e-05	2e-05	2
5338	-2e-05	-6e-05	-1e-05	1e-05	-8e-05	1e-05	7e-05	2e-05	2
5339	-2e-05	-6e-05	-1e-05	1e-05	-8e-05	1e-05	7e-05	2e-05	2
5340	-2e-05	-6e-05	-1e-05	1e-05	-8e-05	1e-05	7e-05	2e-05	2
5341	-2e-05	-6e-05	-1e-05	1e-05	-8e-05	1e-05	7e-05	2e-05	2
5342	-2e-05	-6e-05	-1e-05	1e-05	-8e-05	1e-05	7e-05	2e-05	2
5343	-2e-05	-6e-05	-1e-05	1e-05	-8e-05	1e-05	7e-05	2e-05	2
5344	-2e-05	-6e-05	-1e-05	1e-05	-8e-05	1e-05	7e-05	2e-05	2
5345	-2e-05	-6e-05	-1e-05	1e-05	-8e-05	1e-05	7e-05	2e-05	2
5346	-2e-05	-6e-05	-1e-05	1e-05	-8e-05	1e-05	7e-05	2e-05	2
5347	-2e-05	-6e-05	-1e-05	1e-05	-8e-05	1e-05	7e-05	2e-05	2
5348	-2e-05	-6e-05	-1e-05	1e-05	-8e-05	1e-05	7e-05	2e-05	2
5349	2e-05	-1e-05	-6e-05	2e-05	-1e-05	-6e-05	-5e-05	-3e-05	2
5350	2e-05	-1e-05	-6e-05	2e-05	-1e-05	-6e-05	-5e-05	-3e-05	2
5351	2e-05	-1e-05	-6e-05	2e-05	-1e-05	-6e-05	-5e-05	-3e-05	2
5352	2e-05	-1e-05	-6e-05	2e-05	-1e-05	-6e-05	-5e-05	-3e-05	2
5353	2e-05	-1e-05	-6e-05	2e-05	-1e-05	-6e-05	-5e-05	-3e-05	2
5354	2e-05	-1e-05	-6e-05	2e-05	-1e-05	-6e-05	-5e-05	-3e-05	2
5355	2e-05	-1e-05	-6e-05	2e-05	-1e-05	-6e-05	-5e-05	-3e-05	2
5356	2e-05	-1e-05	-6e-05	2e-05	-1e-05	-6e-05	-5e-05	-3e-05	2
5357	2e-05	-1e-05	-6e-05	2e-05	-1e-05	-6e-05	-5e-05	-3e-05	2
5358	2e-05	-1e-05	-6e-05	2e-05	-1e-05	-6e-05	-5e-05	-3e-05	2
5359	2e-05	-1e-05	-6e-05	2e-05	-1e-05	-6e-05	-5e-05	-3e-05	2
5360	2e-05	-1e-05	-6e-05	2e-05	-1e-05	-6e-05	-5e-05	-3e-05	2
5361	2e-05	-1e-05	-6e-05	2e-05	-1e-05	-6e-05	-5e-05	-3e-05	2
5362	0	-1e-05	2e-05	-1e-05	-7e-05	-0.00022	-0.00016	3e-05	2
5363	0	-1e-05	2e-05	-1e-05	-7e-05	-0.00022	-0.00016	3e-05	2
5364	0	-1e-05	2e-05	-1e-05	-7e-05	-0.00022	-0.00016	3e-05	2
5365	0	-1e-05	2e-05	-1e-05	-7e-05	-0.00022	-0.00016	3e-05	2
5366	0	-1e-05	2e-05	-1e-05	-7e-05	-0.00022	-0.00016	3e-05	2
5367	0	-1e-05	2e-05	-1e-05	-7e-05	-0.00022	-0.00016	3e-05	2
5368	0	-1e-05	2e-05	-1e-05	-7e-05	-0.00022	-0.00016	3e-05	2
5369	0	-1e-05	2e-05	-1e-05	-7e-05	-0.00022	-0.00016	3e-05	2
5370	-3e-05	-6e-05	-9e-05	0	-5e-05	-4e-05	-1e-05	3e-05	2
5371	-3e-05	-6e-05	-9e-05	0	-5e-05	-4e-05	-1e-05	3e-05	2
5372	-3e-05	-6e-05	-9e-05	0	-5e-05	-4e-05	-1e-05	3e-05	2
5373	-3e-05	-6e-05	-9e-05	0	-5e-05	-4e-05	-1e-05	3e-05	2
5374	-3e-05	-6e-05	-9e-05	0	-5e-05	-4e-05	-1e-05	3e-05	2
5375	-3e-05	-6e-05	-9e-05	0	-5e-05	-4e-05	-1e-05	3e-05	2
5376	-3e-05	-6e-05	-9e-05	0	-5e-05	-4e-05	-1e-05	3e-05	2
5377	-3e-05	-6e-05	-9e-05	0	-5e-05	-4e-05	-1e-05	3e-05	2
5378	-3e-05	-6e-05	-9e-05	0	-5e-05	-4e-05	-1e-05	3e-05	2
5379	-3e-05	-6e-05	-9e-05	0	-5e-05	-4e-05	-1e-05	3e-05	2
5380	-3e-05	-6e-05	-9e-05	0	-5e-05	-4e-05	-1e-05	3e-05	2
5381	-3e-05	-6e-05	-9e-05	0	-5e-05	-4e-05	-1e-05	3e-05	2
5382	-3e-05	-6e-05	-9e-05	0	-5e-05	-4e-05	-1e-05	3e-05	2
5383	-3e-05	-6e-05	-9e-05	0	-5e-05	-4e-05	-1e-05	3e-05	2
5384	-3e-05	-6e-05	-9e-05	0	-5e-05	-4e-05	-1e-05	3e-05	2
5385	-3e-05	-6e-05	-9e-05	0	-5e-05	-4e-05	-1e-05	3e-05	2
5387	-8e-05	-0.0001	-7e-05	-8e-05	-7e-05	-0.00013	-0.00014	-6e-05	2
5389	-8e-05	-0.0001	-7e-05	-8e-05	-7e-05	-0.00013	-0.00014	-6e-05	2
5391	-8e-05	-0.0001	-7e-05	-8e-05	-7e-05	-0.00013	-0.00014	-6e-05	2
5392	-8e-05	-0.0001	-7e-05	-8e-05	-7e-05	-0.00013	-0.00014	-6e-05	2
5393	-8e-05	-0.0001	-7e-05	-8e-05	-7e-05	-0.00013	-0.00014	-6e-05	2
5394	-8e-05	-0.0001	-7e-05	-8e-05	-7e-05	-0.00013	-0.00014	-6e-05	2
5395	-8e-05	-0.0001	-7e-05	-8e-05	-7e-05	-0.00013	-0.00014	-6e-05	2
5396	-8e-05	-0.0001	-7e-05	-8e-05	-7e-05	-0.00013	-0.00014	-6e-05	2
5397	-8e-05	-0.0001	-7e-05	-8e-05	-7e-05	-0.00013	-0.00014	-6e-05	2
5398	-8e-05	-0.0001	-7e-05	-8e-05	-7e-05	-0.00013	-0.00014	-6e-05	2
5399	-8e-05	-0.0001	-7e-05	-8e-05	-7e-05	-0.00013	-0.00014	-6e-05	2
5400	-8e-05	-0.0001	-7e-05	-8e-05	-7e-05	-0.00013	-0.00014	-6e-05	2
5401	-8e-05	-0.0001	-7e-05	-8e-05	-7e-05	-0.00013	-0.00014	-6e-05	2
5402	-8e-05	-0.0001	-7e-05	-8e-05	-7e-05	-0.00013	-0.00014	-6e-05	2
5403	-8e-05	-0.0001	-7e-05	-8e-05	-7e-05	-0.00013	-0.00014	-6e-05	2
5404	-8e-05	-0.0001	-7e-05	-8e-05	-7e-05	-0.00013	-0.00014	-6e-05	2
5405	-8e-05	-0.0001	-7e-05	-8e-05	-7e-05	-0.00013	-0.00014	-6e-05	2
5406	-8e-05	-0.0001	-7e-05	-8e-05	-7e-05	-0.00013	-0.00014	-6e-05	2
5407	-8e-05	-0.0001	-7e-05	-8e-05	-7e-05	-0.00013	-0.00014	-6e-05	2
5408	8e-05	8e-05	2e-05	-2e-05	4e-05	0.00019	0.0001	6e-05	2
5409	0	1e-05	-1e-05	-2e-05	6e-05	-3e-05	0.00021	1e-05	2
5410	0	1e-05	-1e-05	-2e-05	6e-05	-3e-05	0.00021	1e-05	2
5411	0	1e-05	-1e-05	-2e-05	6e-05	-3e-05	0.00021	1e-05	2
5412	0	1e-05	-1e-05	-2e-05	6e-05	-3e-05	0.00021	1e-05	2
5413	0	1e-05	-1e-05	-2e-05	6e-05	-3e-05	0.00021	1e-05	2
5414	0	1e-05	-1e-05	-2e-05	6e-05	-3e-05	0.00021	1e-05	2
5415	0	1e-05	-1e-05	-2e-05	6e-05	-3e-05	0.00021	1e-05	2
5416	0	1e-05	-1e-05	-2e-05	6e-05	-3e-05	0.00021	1e-05	2
5417	0	1e-05	-1e-05	-2e-05	6e-05	-3e-05	0.00021	1e-05	2
5418	0	1e-05	-1e-05	-2e-05	6e-05	-3e-05	0.00021	1e-05	2
5419	0	1e-05	-1e-05	-2e-05	6e-05	-3e-05	0.00021	1e-05	2
5420	0	1e-05	-1e-05	-2e-05	6e-05	-3e-05	0.00021	1e-05	2
5421	0	1e-05	-1e-05	-2e-05	6e-05	-3e-05	0.00021	1e-05	2
5422	-3e-05	-6e-05	-0.00011	-5e-05	0	-5e-05	6e-05	-2e-05	2
5423	-3e-05	-6e-05	-0.00011	-5e-05	0	-5e-05	6e-05	-2e-05	2
5424	-3e-05	-6e-05	-0.00011	-5e-05	0	-5e-05	6e-05	-2e-05	2
5425	-3e-05	-6e-05	-0.00011	-5e-05	0	-5e-05	6e-05	-2e-05	2
5426	-3e-05	-6e-05	-0.00011	-5e-05	0	-5e-05	6e-05	-2e-05	2
5427	-3e-05	-6e-05	-0.00011	-5e-05	0	-5e-05	6e-05	-2e-05	2
5428	-3e-05	-6e-05	-0.00011	-5e-05	0	-5e-05	6e-05	-2e-05	2
5429	-3e-05	-6e-05	-0.00011	-5e-05	0	-5e-05	6e-05	-2e-05	2
5430	-2e-05	5e-05	0.0001	1e-05	-1e-05	0.00017	0.00018	-4e-05	2
5431	3e-05	-2e-05	4e-05	0.00013	2e-05	-0.00014	-0.00016	-4e-05	2
5432	3e-05	-2e-05	4e-05	0.00013	2e-05	-0.00014	-0.00016	-4e-05	2
5433	3e-05	-2e-05	4e-05	0.00013	2e-05	-0.00014	-0.00016	-4e-05	2
5434	3e-05	-2e-05	4e-05	0.00013	2e-05	-0.00014	-0.00016	-4e-05	2
5435	3e-05	-2e-05	4e-05	0.00013	2e-05	-0.00014	-0.00016	-4e-05	2
5436	3e-05	-2e-05	4e-05	0.00013	2e-05	-0.00014	-0.00016	-4e-05	2
5439	3e-05	-2e-05	4e-05	0.00013	2e-05	-0.00014	-0.00016	-4e-05	2
5440	3e-05	-2e-05	4e-05	0.00013	2e-05	-0.00014	-0.00016	-4e-05	2
5441	3e-05	-2e-05	4e-05	0.00013	2e-05	-0.00014	-0.00016	-4e-05	2
5442	3e-05	-2e-05	4e-05	0.00013	2e-05	-0.00014	-0.00016	-4e-05	2
5443	3e-05	-2e-05	4e-05	0.00013	2e-05	-0.00014	-0.00016	-4e-05	2
5444	3e-05	-2e-05	4e-05	0.00013	2e-05	-0.00014	-0.00016	-4e-05	2
5445	3e-05	-2e-05	4e-05	0.00013	2e-05	-0.00014	-0.00016	-4e-05	2
5446	-2e-05	0	5e-05	3e-05	-9e-05	-3e-05	-8e-05	-1e-05	2
5447	-0.00011	-6e-05	-8e-05	-0.00012	-9e-05	-2e-05	-0.00012	-0.0003	2
5448	-0.00011	-6e-05	-8e-05	-0.00012	-9e-05	-2e-05	-0.00012	-0.0003	2
5449	-0.00011	-6e-05	-8e-05	-0.00012	-9e-05	-2e-05	-0.00012	-0.0003	2
5450	-0.00011	-6e-05	-8e-05	-0.00012	-9e-05	-2e-05	-0.00012	-0.0003	2
5451	-0.00011	-6e-05	-8e-05	-0.00012	-9e-05	-2e-05	-0.00012	-0.0003	2
5452	-0.00011	-6e-05	-8e-05	-0.00012	-9e-05	-2e-05	-0.00012	-0.0003	2
5453	-0.00011	-6e-05	-8e-05	-0.00012	-9e-05	-2e-05	-0.00012	-0.0003	2
5454	-0.00011	-6e-05	-8e-05	-0.00012	-9e-05	-2e-05	-0.00012	-0.0003	2
5455	-0.00011	-6e-05	-8e-05	-0.00012	-9e-05	-2e-05	-0.00012	-0.0003	2
5456	-0.00011	-6e-05	-8e-05	-0.00012	-9e-05	-2e-05	-0.00012	-0.0003	2
5457	-0.00011	-6e-05	-8e-05	-0.00012	-9e-05	-2e-05	-0.00012	-0.0003	2
5458	-0.00011	-6e-05	-8e-05	-0.00012	-9e-05	-2e-05	-0.00012	-0.0003	2
5459	-0.00011	-6e-05	-8e-05	-0.00012	-9e-05	-2e-05	-0.00012	-0.0003	2
5460	-0.00011	-6e-05	-8e-05	-0.00012	-9e-05	-2e-05	-0.00012	-0.0003	2
5461	-0.00011	-6e-05	-8e-05	-0.00012	-9e-05	-2e-05	-0.00012	-0.0003	2
5462	-0.00011	-6e-05	-8e-05	-0.00012	-9e-05	-2e-05	-0.00012	-0.0003	2
5463	-0.00011	-6e-05	-8e-05	-0.00012	-9e-05	-2e-05	-0.00012	-0.0003	2
5464	-0.00011	-6e-05	-8e-05	-0.00012	-9e-05	-2e-05	-0.00012	-0.0003	2
5465	-0.00011	-6e-05	-8e-05	-0.00012	-9e-05	-2e-05	-0.00012	-0.0003	2
5466	-0.00011	-6e-05	-8e-05	-0.00012	-9e-05	-2e-05	-0.00012	-0.0003	2
5467	-0.00011	-6e-05	-8e-05	-0.00012	-9e-05	-2e-05	-0.00012	-0.0003	2
5468	-0.00011	-6e-05	-8e-05	-0.00012	-9e-05	-2e-05	-0.00012	-0.0003	2
5469	2e-05	2e-05	-1e-05	-8e-05	-2e-05	8e-05	-7e-05	7e-05	2
5470	2e-05	2e-05	-1e-05	-8e-05	-2e-05	8e-05	-7e-05	7e-05	2
5471	2e-05	2e-05	-1e-05	-8e-05	-2e-05	8e-05	-7e-05	7e-05	2
5472	2e-05	2e-05	-1e-05	-8e-05	-2e-05	8e-05	-7e-05	7e-05	2
5473	2e-05	2e-05	-1e-05	-8e-05	-2e-05	8e-05	-7e-05	7e-05	2
5474	2e-05	2e-05	-1e-05	-8e-05	-2e-05	8e-05	-7e-05	7e-05	2
5475	2e-05	2e-05	-1e-05	-8e-05	-2e-05	8e-05	-7e-05	7e-05	2
5476	2e-05	2e-05	-1e-05	-8e-05	-2e-05	8e-05	-7e-05	7e-05	2
5477	2e-05	2e-05	-1e-05	-8e-05	-2e-05	8e-05	-7e-05	7e-05	2
5478	2e-05	2e-05	-1e-05	-8e-05	-2e-05	8e-05	-7e-05	7e-05	2
5479	2e-05	2e-05	-1e-05	-8e-05	-2e-05	8e-05	-7e-05	7e-05	2
5480	2e-05	2e-05	-1e-05	-8e-05	-2e-05	8e-05	-7e-05	7e-05	2
5481	2e-05	2e-05	-1e-05	-8e-05	-2e-05	8e-05	-7e-05	7e-05	2
5482	2e-05	2e-05	-1e-05	-8e-05	-2e-05	8e-05	-7e-05	7e-05	2
5483	-3e-05	2e-05	-5e-05	-3e-05	-7e-05	-0.00015	0	-4e-05	2
5484	-3e-05	2e-05	-5e-05	-3e-05	-7e-05	-0.00015	0	-4e-05	2
5485	-3e-05	2e-05	-5e-05	-3e-05	-7e-05	-0.00015	0	-4e-05	2
5486	-3e-05	2e-05	-5e-05	-3e-05	-7e-05	-0.00015	0	-4e-05	2
5488	-3e-05	2e-05	-5e-05	-3e-05	-7e-05	-0.00015	0	-4e-05	2
5489	-3e-05	2e-05	-5e-05	-3e-05	-7e-05	-0.00015	0	-4e-05	2
5490	4e-05	6e-05	0	3e-05	2e-05	6e-05	-3e-05	0.00011	2
5491	4e-05	6e-05	0	3e-05	2e-05	6e-05	-3e-05	0.00011	2
5492	4e-05	6e-05	0	3e-05	2e-05	6e-05	-3e-05	0.00011	2
5493	4e-05	6e-05	0	3e-05	2e-05	6e-05	-3e-05	0.00011	2
5494	4e-05	6e-05	0	3e-05	2e-05	6e-05	-3e-05	0.00011	2
5495	4e-05	6e-05	0	3e-05	2e-05	6e-05	-3e-05	0.00011	2
5496	4e-05	6e-05	0	3e-05	2e-05	6e-05	-3e-05	0.00011	2
5497	4e-05	6e-05	0	3e-05	2e-05	6e-05	-3e-05	0.00011	2
5498	4e-05	6e-05	0	3e-05	2e-05	6e-05	-3e-05	0.00011	2
5499	4e-05	6e-05	0	3e-05	2e-05	6e-05	-3e-05	0.00011	2
5500	4e-05	6e-05	0	3e-05	2e-05	6e-05	-3e-05	0.00011	2
5501	4e-05	6e-05	0	3e-05	2e-05	6e-05	-3e-05	0.00011	2
5502	4e-05	6e-05	0	3e-05	2e-05	6e-05	-3e-05	0.00011	2
5503	4e-05	6e-05	0	3e-05	2e-05	6e-05	-3e-05	0.00011	2
5504	4e-05	6e-05	0	3e-05	2e-05	6e-05	-3e-05	0.00011	2
5505	4e-05	6e-05	0	3e-05	2e-05	6e-05	-3e-05	0.00011	2
5506	-2e-05	-1e-05	6e-05	0.00011	3e-05	-9e-05	-0.00015	-4e-05	2
5507	-1e-05	-4e-05	-0.00015	-8e-05	-5e-05	-1e-05	0.0001	2e-05	2
5508	-1e-05	-4e-05	-0.00015	-8e-05	-5e-05	-1e-05	0.0001	2e-05	2
5509	-1e-05	-4e-05	-0.00015	-8e-05	-5e-05	-1e-05	0.0001	2e-05	2
5510	-1e-05	-4e-05	-0.00015	-8e-05	-5e-05	-1e-05	0.0001	2e-05	2
5511	-1e-05	-4e-05	-0.00015	-8e-05	-5e-05	-1e-05	0.0001	2e-05	2
5512	-1e-05	-4e-05	-0.00015	-8e-05	-5e-05	-1e-05	0.0001	2e-05	2
5513	-1e-05	-4e-05	-0.00015	-8e-05	-5e-05	-1e-05	0.0001	2e-05	2
5514	-1e-05	-4e-05	-0.00015	-8e-05	-5e-05	-1e-05	0.0001	2e-05	2
5515	-1e-05	-4e-05	-0.00015	-8e-05	-5e-05	-1e-05	0.0001	2e-05	2
5516	-1e-05	-4e-05	-0.00015	-8e-05	-5e-05	-1e-05	0.0001	2e-05	2
5517	-1e-05	-4e-05	-0.00015	-8e-05	-5e-05	-1e-05	0.0001	2e-05	2
5518	-1e-05	-4e-05	-0.00015	-8e-05	-5e-05	-1e-05	0.0001	2e-05	2
5519	-1e-05	-4e-05	-0.00015	-8e-05	-5e-05	-1e-05	0.0001	2e-05	2
5520	-1e-05	-4e-05	-0.00015	-8e-05	-5e-05	-1e-05	0.0001	2e-05	2
5521	-1e-05	-4e-05	-0.00015	-8e-05	-5e-05	-1e-05	0.0001	2e-05	2
5522	-1e-05	-4e-05	-0.00015	-8e-05	-5e-05	-1e-05	0.0001	2e-05	2
5523	-1e-05	-4e-05	-0.00015	-8e-05	-5e-05	-1e-05	0.0001	2e-05	2
5524	-1e-05	-4e-05	-0.00015	-8e-05	-5e-05	-1e-05	0.0001	2e-05	2
5525	-1e-05	-4e-05	-0.00015	-8e-05	-5e-05	-1e-05	0.0001	2e-05	2
5526	-1e-05	-4e-05	-0.00015	-8e-05	-5e-05	-1e-05	0.0001	2e-05	2
5527	-1e-05	-4e-05	-0.00015	-8e-05	-5e-05	-1e-05	0.0001	2e-05	2
5528	-1e-05	-4e-05	-0.00015	-8e-05	-5e-05	-1e-05	0.0001	2e-05	2
5529	-3e-05	-3e-05	-6e-05	3e-05	0.00016	-2e-05	-6e-05	-6e-05	2
5530	0	4e-05	9e-05	-1e-05	0	0.0003	0.00011	1e-05	2
5531	0	4e-05	9e-05	-1e-05	0	0.0003	0.00011	1e-05	2
5532	0	4e-05	9e-05	-1e-05	0	0.0003	0.00011	1e-05	2
5533	0	4e-05	9e-05	-1e-05	0	0.0003	0.00011	1e-05	2
5534	0	4e-05	9e-05	-1e-05	0	0.0003	0.00011	1e-05	2
5535	0	4e-05	9e-05	-1e-05	0	0.0003	0.00011	1e-05	2
5536	0	4e-05	9e-05	-1e-05	0	0.0003	0.00011	1e-05	2
5538	0	4e-05	9e-05	-1e-05	0	0.0003	0.00011	1e-05	2
5539	0	4e-05	9e-05	-1e-05	0	0.0003	0.00011	1e-05	2
5540	0	4e-05	9e-05	-1e-05	0	0.0003	0.00011	1e-05	2
5541	0	4e-05	9e-05	-1e-05	0	0.0003	0.00011	1e-05	2
5542	0	4e-05	9e-05	-1e-05	0	0.0003	0.00011	1e-05	2
5543	0	4e-05	9e-05	-1e-05	0	0.0003	0.00011	1e-05	2
5544	0	4e-05	9e-05	-1e-05	0	0.0003	0.00011	1e-05	2
5545	0	4e-05	9e-05	-1e-05	0	0.0003	0.00011	1e-05	2
5546	0	4e-05	9e-05	-1e-05	0	0.0003	0.00011	1e-05	2
5547	0	4e-05	9e-05	-1e-05	0	0.0003	0.00011	1e-05	2
5548	0	4e-05	9e-05	-1e-05	0	0.0003	0.00011	1e-05	2
5549	0	4e-05	9e-05	-1e-05	0	0.0003	0.00011	1e-05	2
5550	0	4e-05	9e-05	-1e-05	0	0.0003	0.00011	1e-05	2
5551	0	4e-05	9e-05	-1e-05	0	0.0003	0.00011	1e-05	2
5552	0	4e-05	9e-05	-1e-05	0	0.0003	0.00011	1e-05	2
5553	0	4e-05	9e-05	-1e-05	0	0.0003	0.00011	1e-05	2
5554	0	4e-05	9e-05	-1e-05	0	0.0003	0.00011	1e-05	2
5555	0	4e-05	9e-05	-1e-05	0	0.0003	0.00011	1e-05	2
5556	0	4e-05	9e-05	-1e-05	0	0.0003	0.00011	1e-05	2
5557	0	4e-05	9e-05	-1e-05	0	0.0003	0.00011	1e-05	2
5558	0	4e-05	9e-05	-1e-05	0	0.0003	0.00011	1e-05	2
5559	-1e-05	-0.00011	-5e-05	-3e-05	-2e-05	0	5e-05	3e-05	2
5560	2e-05	1e-05	3e-05	-3e-05	0	8e-05	7e-05	3e-05	2
5561	2e-05	1e-05	3e-05	-3e-05	0	8e-05	7e-05	3e-05	2
5562	2e-05	1e-05	3e-05	-3e-05	0	8e-05	7e-05	3e-05	2
5563	2e-05	1e-05	3e-05	-3e-05	0	8e-05	7e-05	3e-05	2
5564	2e-05	1e-05	3e-05	-3e-05	0	8e-05	7e-05	3e-05	2
5565	0	3e-05	-4e-05	0	-8e-05	-7e-05	-0.0003	-0.00011	2
5566	0	3e-05	-4e-05	0	-8e-05	-7e-05	-0.0003	-0.00011	2
5567	0	3e-05	-4e-05	0	-8e-05	-7e-05	-0.0003	-0.00011	2
5568	0	3e-05	-4e-05	0	-8e-05	-7e-05	-0.0003	-0.00011	2
5569	0	3e-05	-4e-05	0	-8e-05	-7e-05	-0.0003	-0.00011	2
5570	0	3e-05	-4e-05	0	-8e-05	-7e-05	-0.0003	-0.00011	2
5571	0	3e-05	-4e-05	0	-8e-05	-7e-05	-0.0003	-0.00011	2
5572	0	3e-05	-4e-05	0	-8e-05	-7e-05	-0.0003	-0.00011	2
5573	0	3e-05	-4e-05	0	-8e-05	-7e-05	-0.0003	-0.00011	2
5574	0	0	-3e-05	2e-05	-3e-05	-4e-05	-0.00011	7e-05	2
5575	0	0	-3e-05	2e-05	-3e-05	-4e-05	-0.00011	7e-05	2
5576	0	0	-3e-05	2e-05	-3e-05	-4e-05	-0.00011	7e-05	2
5577	0	0	-3e-05	2e-05	-3e-05	-4e-05	-0.00011	7e-05	2
5578	0	0	-3e-05	2e-05	-3e-05	-4e-05	-0.00011	7e-05	2
5579	0	0	-3e-05	2e-05	-3e-05	-4e-05	-0.00011	7e-05	2
5580	0	0	-3e-05	2e-05	-3e-05	-4e-05	-0.00011	7e-05	2
5581	0	0	-3e-05	2e-05	-3e-05	-4e-05	-0.00011	7e-05	2
5582	0	0	-3e-05	2e-05	-3e-05	-4e-05	-0.00011	7e-05	2
5583	0	0	-3e-05	2e-05	-3e-05	-4e-05	-0.00011	7e-05	2
5584	0	0	-3e-05	2e-05	-3e-05	-4e-05	-0.00011	7e-05	2
5585	0	0	-3e-05	2e-05	-3e-05	-4e-05	-0.00011	7e-05	2
5586	0	0	-3e-05	2e-05	-3e-05	-4e-05	-0.00011	7e-05	2
5588	0	0	-3e-05	2e-05	-3e-05	-4e-05	-0.00011	7e-05	2
5589	0	0	-3e-05	2e-05	-3e-05	-4e-05	-0.00011	7e-05	2
5590	3e-05	2e-05	-4e-05	-5e-05	6e-05	0.00011	6e-05	4e-05	2
5591	3e-05	2e-05	-4e-05	-5e-05	6e-05	0.00011	6e-05	4e-05	2
5592	3e-05	2e-05	-4e-05	-5e-05	6e-05	0.00011	6e-05	4e-05	2
5593	3e-05	2e-05	-4e-05	-5e-05	6e-05	0.00011	6e-05	4e-05	2
5594	3e-05	2e-05	-4e-05	-5e-05	6e-05	0.00011	6e-05	4e-05	2
5595	2e-05	1e-05	-4e-05	-5e-05	-3e-05	-0.00013	-2e-05	0	2
5596	2e-05	1e-05	-4e-05	-5e-05	-3e-05	-0.00013	-2e-05	0	2
5597	2e-05	1e-05	-4e-05	-5e-05	-3e-05	-0.00013	-2e-05	0	2
5598	2e-05	1e-05	-4e-05	-5e-05	-3e-05	-0.00013	-2e-05	0	2
5599	2e-05	1e-05	-4e-05	-5e-05	-3e-05	-0.00013	-2e-05	0	2
5600	2e-05	1e-05	-4e-05	-5e-05	-3e-05	-0.00013	-2e-05	0	2
5601	2e-05	1e-05	-4e-05	-5e-05	-3e-05	-0.00013	-2e-05	0	2
5602	2e-05	1e-05	-4e-05	-5e-05	-3e-05	-0.00013	-2e-05	0	2
5603	2e-05	1e-05	-4e-05	-5e-05	-3e-05	-0.00013	-2e-05	0	2
5604	2e-05	1e-05	-4e-05	-5e-05	-3e-05	-0.00013	-2e-05	0	2
5605	2e-05	1e-05	-4e-05	-5e-05	-3e-05	-0.00013	-2e-05	0	2
5606	2e-05	1e-05	-4e-05	-5e-05	-3e-05	-0.00013	-2e-05	0	2
5607	2e-05	1e-05	-4e-05	-5e-05	-3e-05	-0.00013	-2e-05	0	2
5608	2e-05	1e-05	-4e-05	-5e-05	-3e-05	-0.00013	-2e-05	0	2
5609	2e-05	1e-05	-4e-05	-5e-05	-3e-05	-0.00013	-2e-05	0	2
5610	2e-05	1e-05	-4e-05	-5e-05	-3e-05	-0.00013	-2e-05	0	2
5612	-1e-05	2e-05	-9e-05	-8e-05	0.00011	2e-05	9e-05	0	2
5613	2e-05	0	1e-05	9e-05	7e-05	3e-05	-1e-05	0	2
5614	2e-05	0	1e-05	9e-05	7e-05	3e-05	-1e-05	0	2
5615	2e-05	0	1e-05	9e-05	7e-05	3e-05	-1e-05	0	2
5616	2e-05	0	1e-05	9e-05	7e-05	3e-05	-1e-05	0	2
5617	2e-05	0	1e-05	9e-05	7e-05	3e-05	-1e-05	0	2
5618	2e-05	0	1e-05	9e-05	7e-05	3e-05	-1e-05	0	2
5619	2e-05	0	1e-05	9e-05	7e-05	3e-05	-1e-05	0	2
5620	2e-05	0	1e-05	9e-05	7e-05	3e-05	-1e-05	0	2
5621	2e-05	0	1e-05	9e-05	7e-05	3e-05	-1e-05	0	2
5622	2e-05	0	1e-05	9e-05	7e-05	3e-05	-1e-05	0	2
5623	2e-05	0	1e-05	9e-05	7e-05	3e-05	-1e-05	0	2
5624	2e-05	0	1e-05	9e-05	7e-05	3e-05	-1e-05	0	2
5625	0	3e-05	7e-05	2e-05	-7e-05	4e-05	4e-05	2e-05	2
5626	0	3e-05	7e-05	2e-05	-7e-05	4e-05	4e-05	2e-05	2
5627	0	3e-05	7e-05	2e-05	-7e-05	4e-05	4e-05	2e-05	2
5628	0	3e-05	7e-05	2e-05	-7e-05	4e-05	4e-05	2e-05	2
5629	0	3e-05	7e-05	2e-05	-7e-05	4e-05	4e-05	2e-05	2
5630	0	3e-05	7e-05	2e-05	-7e-05	4e-05	4e-05	2e-05	2
5631	0	3e-05	7e-05	2e-05	-7e-05	4e-05	4e-05	2e-05	2
5632	0	3e-05	7e-05	2e-05	-7e-05	4e-05	4e-05	2e-05	2
5633	0	3e-05	7e-05	2e-05	-7e-05	4e-05	4e-05	2e-05	2
5634	0	3e-05	7e-05	2e-05	-7e-05	4e-05	4e-05	2e-05	2
5635	0	3e-05	7e-05	2e-05	-7e-05	4e-05	4e-05	2e-05	2
5636	0	3e-05	7e-05	2e-05	-7e-05	4e-05	4e-05	2e-05	2
5638	0	3e-05	7e-05	2e-05	-7e-05	4e-05	4e-05	2e-05	2
5640	0	3e-05	7e-05	2e-05	-7e-05	4e-05	4e-05	2e-05	2
5641	-6e-05	-6e-05	5e-05	1e-05	6e-05	-0.00018	-6e-05	-0.0001	2
5642	-6e-05	-6e-05	5e-05	1e-05	6e-05	-0.00018	-6e-05	-0.0001	2
5643	-6e-05	-6e-05	5e-05	1e-05	6e-05	-0.00018	-6e-05	-0.0001	2
5644	-6e-05	-6e-05	5e-05	1e-05	6e-05	-0.00018	-6e-05	-0.0001	2
5645	-6e-05	-6e-05	5e-05	1e-05	6e-05	-0.00018	-6e-05	-0.0001	2
5646	-6e-05	-6e-05	5e-05	1e-05	6e-05	-0.00018	-6e-05	-0.0001	2
5647	-6e-05	-6e-05	5e-05	1e-05	6e-05	-0.00018	-6e-05	-0.0001	2
5648	-6e-05	-6e-05	5e-05	1e-05	6e-05	-0.00018	-6e-05	-0.0001	2
5649	0	-6e-05	5e-05	8e-05	8e-05	0.00022	0.00014	-1e-05	2
5650	-2e-05	0	2e-05	2e-05	-6e-05	-6e-05	-0.0001	-0.00025	2
5651	-2e-05	0	2e-05	2e-05	-6e-05	-6e-05	-0.0001	-0.00025	2
5652	-2e-05	0	2e-05	2e-05	-6e-05	-6e-05	-0.0001	-0.00025	2
5653	-2e-05	0	2e-05	2e-05	-6e-05	-6e-05	-0.0001	-0.00025	2
5654	-2e-05	0	2e-05	2e-05	-6e-05	-6e-05	-0.0001	-0.00025	2
5655	-2e-05	0	2e-05	2e-05	-6e-05	-6e-05	-0.0001	-0.00025	2
5656	-2e-05	0	2e-05	2e-05	-6e-05	-6e-05	-0.0001	-0.00025	2
5657	-2e-05	0	2e-05	2e-05	-6e-05	-6e-05	-0.0001	-0.00025	2
5658	-2e-05	0	2e-05	2e-05	-6e-05	-6e-05	-0.0001	-0.00025	2
5659	-2e-05	0	2e-05	2e-05	-6e-05	-6e-05	-0.0001	-0.00025	2
5660	-2e-05	0	2e-05	2e-05	-6e-05	-6e-05	-0.0001	-0.00025	2
5661	-2e-05	0	2e-05	2e-05	-6e-05	-6e-05	-0.0001	-0.00025	2
5662	-2e-05	0	2e-05	2e-05	-6e-05	-6e-05	-0.0001	-0.00025	2
5663	-2e-05	0	2e-05	2e-05	-6e-05	-6e-05	-0.0001	-0.00025	2
5664	-2e-05	0	2e-05	2e-05	-6e-05	-6e-05	-0.0001	-0.00025	2
5665	-2e-05	0	2e-05	2e-05	-6e-05	-6e-05	-0.0001	-0.00025	2
5666	-2e-05	0	2e-05	2e-05	-6e-05	-6e-05	-0.0001	-0.00025	2
5667	-2e-05	0	2e-05	2e-05	-6e-05	-6e-05	-0.0001	-0.00025	2
5668	-2e-05	0	2e-05	2e-05	-6e-05	-6e-05	-0.0001	-0.00025	2
5669	-2e-05	0	2e-05	2e-05	-6e-05	-6e-05	-0.0001	-0.00025	2
5670	-2e-05	0	2e-05	2e-05	-6e-05	-6e-05	-0.0001	-0.00025	2
5671	-2e-05	0	2e-05	2e-05	-6e-05	-6e-05	-0.0001	-0.00025	2
5672	-2e-05	0	2e-05	2e-05	-6e-05	-6e-05	-0.0001	-0.00025	2
5673	-2e-05	0	2e-05	2e-05	-6e-05	-6e-05	-0.0001	-0.00025	2
5674	-2e-05	0	2e-05	2e-05	-6e-05	-6e-05	-0.0001	-0.00025	2
5675	-2e-05	0	2e-05	2e-05	-6e-05	-6e-05	-0.0001	-0.00025	2
5676	-2e-05	0	2e-05	2e-05	-6e-05	-6e-05	-0.0001	-0.00025	2
5677	-2e-05	0	2e-05	2e-05	-6e-05	-6e-05	-0.0001	-0.00025	2
5678	-2e-05	0	2e-05	2e-05	-6e-05	-6e-05	-0.0001	-0.00025	2
5679	1e-05	1e-05	-5e-05	-1e-05	1e-05	-7e-05	0.00011	0	2
5680	1e-05	6e-05	5e-05	4e-05	5e-05	9e-05	0.00022	1e-05	2
5681	1e-05	6e-05	5e-05	4e-05	5e-05	9e-05	0.00022	1e-05	2
5682	1e-05	6e-05	5e-05	4e-05	5e-05	9e-05	0.00022	1e-05	2
5683	1e-05	6e-05	5e-05	4e-05	5e-05	9e-05	0.00022	1e-05	2
5684	1e-05	6e-05	5e-05	4e-05	5e-05	9e-05	0.00022	1e-05	2
5685	-1e-05	-2e-05	-6e-05	-1e-05	6e-05	2e-05	4e-05	1e-05	2
5686	-1e-05	-2e-05	-6e-05	-1e-05	6e-05	2e-05	4e-05	1e-05	2
5688	-1e-05	-2e-05	-6e-05	-1e-05	6e-05	2e-05	4e-05	1e-05	2
5689	-1e-05	-2e-05	-6e-05	-1e-05	6e-05	2e-05	4e-05	1e-05	2
5690	-1e-05	-2e-05	-6e-05	-1e-05	6e-05	2e-05	4e-05	1e-05	2
5691	-1e-05	-2e-05	-6e-05	-1e-05	6e-05	2e-05	4e-05	1e-05	2
5692	-1e-05	-2e-05	-6e-05	-1e-05	6e-05	2e-05	4e-05	1e-05	2
5693	-1e-05	-2e-05	-6e-05	-1e-05	6e-05	2e-05	4e-05	1e-05	2
5694	-1e-05	-2e-05	-6e-05	-1e-05	6e-05	2e-05	4e-05	1e-05	2
5695	-1e-05	-2e-05	-6e-05	-1e-05	6e-05	2e-05	4e-05	1e-05	2
5696	-1e-05	-2e-05	-6e-05	-1e-05	6e-05	2e-05	4e-05	1e-05	2
5697	-1e-05	-2e-05	-6e-05	-1e-05	6e-05	2e-05	4e-05	1e-05	2
5698	-1e-05	-2e-05	-6e-05	-1e-05	6e-05	2e-05	4e-05	1e-05	2
5699	-1e-05	-2e-05	-6e-05	-1e-05	6e-05	2e-05	4e-05	1e-05	2
5700	-2e-05	-4e-05	-1e-05	-4e-05	-4e-05	1e-05	1e-05	5e-05	2
5701	-2e-05	-4e-05	-1e-05	-4e-05	-4e-05	1e-05	1e-05	5e-05	2
5702	-2e-05	-4e-05	-1e-05	-4e-05	-4e-05	1e-05	1e-05	5e-05	2
5703	-2e-05	-4e-05	-1e-05	-4e-05	-4e-05	1e-05	1e-05	5e-05	2
5704	-2e-05	-4e-05	-1e-05	-4e-05	-4e-05	1e-05	1e-05	5e-05	2
5705	-2e-05	-4e-05	-1e-05	-4e-05	-4e-05	1e-05	1e-05	5e-05	2
5706	-2e-05	-4e-05	-1e-05	-4e-05	-4e-05	1e-05	1e-05	5e-05	2
5707	-2e-05	-4e-05	-1e-05	-4e-05	-4e-05	1e-05	1e-05	5e-05	2
5708	-2e-05	-4e-05	-1e-05	-4e-05	-4e-05	1e-05	1e-05	5e-05	2
5709	-2e-05	-4e-05	-1e-05	-4e-05	-4e-05	1e-05	1e-05	5e-05	2
5710	-2e-05	-4e-05	-1e-05	-4e-05	-4e-05	1e-05	1e-05	5e-05	2
5711	-2e-05	-4e-05	-1e-05	-4e-05	-4e-05	1e-05	1e-05	5e-05	2
5712	-2e-05	-4e-05	-1e-05	-4e-05	-4e-05	1e-05	1e-05	5e-05	2
5713	-2e-05	-4e-05	-1e-05	-4e-05	-4e-05	1e-05	1e-05	5e-05	2
5714	-2e-05	-4e-05	-1e-05	-4e-05	-4e-05	1e-05	1e-05	5e-05	2
5715	-2e-05	-4e-05	-1e-05	-4e-05	-4e-05	1e-05	1e-05	5e-05	2
5716	-1e-05	-3e-05	4e-05	-2e-05	-7e-05	3e-05	9e-05	4e-05	2
5717	-1e-05	-3e-05	4e-05	-2e-05	-7e-05	3e-05	9e-05	4e-05	2
5718	-5e-05	-5e-05	-0.00013	-2e-05	4e-05	-8e-05	1e-05	-0.0001	2
5719	-5e-05	-5e-05	-0.00013	-2e-05	4e-05	-8e-05	1e-05	-0.0001	2
5720	-5e-05	-5e-05	-0.00013	-2e-05	4e-05	-8e-05	1e-05	-0.0001	2
5721	-5e-05	-5e-05	-0.00013	-2e-05	4e-05	-8e-05	1e-05	-0.0001	2
5722	-5e-05	-5e-05	-0.00013	-2e-05	4e-05	-8e-05	1e-05	-0.0001	2
5723	-5e-05	-5e-05	-0.00013	-2e-05	4e-05	-8e-05	1e-05	-0.0001	2
5724	-5e-05	-5e-05	-0.00013	-2e-05	4e-05	-8e-05	1e-05	-0.0001	2
5725	-5e-05	-5e-05	-0.00013	-2e-05	4e-05	-8e-05	1e-05	-0.0001	2
5726	-5e-05	-5e-05	-0.00013	-2e-05	4e-05	-8e-05	1e-05	-0.0001	2
5727	-5e-05	-5e-05	-0.00013	-2e-05	4e-05	-8e-05	1e-05	-0.0001	2
5728	-5e-05	-5e-05	-0.00013	-2e-05	4e-05	-8e-05	1e-05	-0.0001	2
5729	-5e-05	-5e-05	-0.00013	-2e-05	4e-05	-8e-05	1e-05	-0.0001	2
5730	-5e-05	-5e-05	-0.00013	-2e-05	4e-05	-8e-05	1e-05	-0.0001	2
5731	-2e-05	-2e-05	-3e-05	7e-05	-7e-05	9e-05	-2e-05	-2e-05	2
5732	-1e-05	1e-05	3e-05	3e-05	0.00011	-4e-05	8e-05	0	2
5733	-3e-05	-3e-05	-3e-05	-0.0001	-9e-05	-0.00012	-0.00021	-5e-05	2
5734	-3e-05	-3e-05	-3e-05	-0.0001	-9e-05	-0.00012	-0.00021	-5e-05	2
5735	-3e-05	-3e-05	-3e-05	-0.0001	-9e-05	-0.00012	-0.00021	-5e-05	2
5736	-3e-05	-3e-05	-3e-05	-0.0001	-9e-05	-0.00012	-0.00021	-5e-05	2
5739	-3e-05	-3e-05	-3e-05	-0.0001	-9e-05	-0.00012	-0.00021	-5e-05	2
5740	-3e-05	-3e-05	-3e-05	-0.0001	-9e-05	-0.00012	-0.00021	-5e-05	2
5741	-3e-05	-3e-05	-3e-05	-0.0001	-9e-05	-0.00012	-0.00021	-5e-05	2
5742	-3e-05	-3e-05	-3e-05	-0.0001	-9e-05	-0.00012	-0.00021	-5e-05	2
5743	-3e-05	-3e-05	-3e-05	-0.0001	-9e-05	-0.00012	-0.00021	-5e-05	2
5744	-3e-05	-3e-05	-3e-05	-0.0001	-9e-05	-0.00012	-0.00021	-5e-05	2
5745	0	-1e-05	-7e-05	0	4e-05	0.0001	0.00016	2e-05	2
5746	1e-05	3e-05	6e-05	1e-05	-7e-05	-0.00016	-0.00017	-1e-05	2
5747	1e-05	3e-05	6e-05	1e-05	-7e-05	-0.00016	-0.00017	-1e-05	2
5748	1e-05	3e-05	6e-05	1e-05	-7e-05	-0.00016	-0.00017	-1e-05	2
5749	1e-05	3e-05	6e-05	1e-05	-7e-05	-0.00016	-0.00017	-1e-05	2
5750	1e-05	3e-05	6e-05	1e-05	-7e-05	-0.00016	-0.00017	-1e-05	2
5751	1e-05	3e-05	6e-05	1e-05	-7e-05	-0.00016	-0.00017	-1e-05	2
5752	1e-05	3e-05	6e-05	1e-05	-7e-05	-0.00016	-0.00017	-1e-05	2
5753	1e-05	3e-05	6e-05	1e-05	-7e-05	-0.00016	-0.00017	-1e-05	2
5754	1e-05	3e-05	6e-05	1e-05	-7e-05	-0.00016	-0.00017	-1e-05	2
5755	1e-05	3e-05	6e-05	1e-05	-7e-05	-0.00016	-0.00017	-1e-05	2
5756	1e-05	3e-05	6e-05	1e-05	-7e-05	-0.00016	-0.00017	-1e-05	2
5757	1e-05	3e-05	6e-05	1e-05	-7e-05	-0.00016	-0.00017	-1e-05	2
5758	1e-05	3e-05	6e-05	1e-05	-7e-05	-0.00016	-0.00017	-1e-05	2
5759	1e-05	3e-05	6e-05	1e-05	-7e-05	-0.00016	-0.00017	-1e-05	2
5760	0	1e-05	1e-05	-2e-05	-2e-05	-0.0002	-0.0003	-5e-05	2
5761	0	1e-05	1e-05	-2e-05	-2e-05	-0.0002	-0.0003	-5e-05	2
5762	0	1e-05	1e-05	-2e-05	-2e-05	-0.0002	-0.0003	-5e-05	2
5763	0	1e-05	1e-05	-2e-05	-2e-05	-0.0002	-0.0003	-5e-05	2
5764	0	1e-05	1e-05	-2e-05	-2e-05	-0.0002	-0.0003	-5e-05	2
5765	0	1e-05	1e-05	-2e-05	-2e-05	-0.0002	-0.0003	-5e-05	2
5766	0	1e-05	1e-05	-2e-05	-2e-05	-0.0002	-0.0003	-5e-05	2
5767	0	1e-05	1e-05	-2e-05	-2e-05	-0.0002	-0.0003	-5e-05	2
5768	2e-05	-4e-05	-1e-05	0.00011	0.00012	3e-05	0.00022	1e-05	2
5769	-2e-05	1e-05	3e-05	-5e-05	-7e-05	0.00012	-2e-05	-1e-05	2
5770	3e-05	6e-05	5e-05	6e-05	-0.00011	-5e-05	1e-05	8e-05	2
5771	3e-05	6e-05	5e-05	6e-05	-0.00011	-5e-05	1e-05	8e-05	2
5772	3e-05	6e-05	5e-05	6e-05	-0.00011	-5e-05	1e-05	8e-05	2
5773	3e-05	6e-05	5e-05	6e-05	-0.00011	-5e-05	1e-05	8e-05	2
5774	3e-05	6e-05	5e-05	6e-05	-0.00011	-5e-05	1e-05	8e-05	2
5775	3e-05	6e-05	5e-05	6e-05	-0.00011	-5e-05	1e-05	8e-05	2
5776	3e-05	6e-05	5e-05	6e-05	-0.00011	-5e-05	1e-05	8e-05	2
5777	3e-05	6e-05	5e-05	6e-05	-0.00011	-5e-05	1e-05	8e-05	2
5778	3e-05	6e-05	5e-05	6e-05	-0.00011	-5e-05	1e-05	8e-05	2
5779	3e-05	6e-05	5e-05	6e-05	-0.00011	-5e-05	1e-05	8e-05	2
5780	3e-05	6e-05	5e-05	6e-05	-0.00011	-5e-05	1e-05	8e-05	2
5781	3e-05	6e-05	5e-05	6e-05	-0.00011	-5e-05	1e-05	8e-05	2
5782	3e-05	6e-05	5e-05	6e-05	-0.00011	-5e-05	1e-05	8e-05	2
5783	3e-05	6e-05	5e-05	6e-05	-0.00011	-5e-05	1e-05	8e-05	2
5784	3e-05	6e-05	5e-05	6e-05	-0.00011	-5e-05	1e-05	8e-05	2
5785	3e-05	6e-05	5e-05	6e-05	-0.00011	-5e-05	1e-05	8e-05	2
5786	3e-05	6e-05	5e-05	6e-05	-0.00011	-5e-05	1e-05	8e-05	2
5788	3e-05	6e-05	5e-05	6e-05	-0.00011	-5e-05	1e-05	8e-05	2
5790	3e-05	6e-05	5e-05	6e-05	-0.00011	-5e-05	1e-05	8e-05	2
5791	3e-05	6e-05	5e-05	6e-05	-0.00011	-5e-05	1e-05	8e-05	2
5792	3e-05	6e-05	5e-05	6e-05	-0.00011	-5e-05	1e-05	8e-05	2
5793	3e-05	6e-05	5e-05	6e-05	-0.00011	-5e-05	1e-05	8e-05	2
5794	3e-05	6e-05	5e-05	6e-05	-0.00011	-5e-05	1e-05	8e-05	2
5795	3e-05	6e-05	5e-05	6e-05	-0.00011	-5e-05	1e-05	8e-05	2
5796	3e-05	6e-05	5e-05	6e-05	-0.00011	-5e-05	1e-05	8e-05	2
5797	3e-05	6e-05	5e-05	6e-05	-0.00011	-5e-05	1e-05	8e-05	2
5798	3e-05	6e-05	5e-05	6e-05	-0.00011	-5e-05	1e-05	8e-05	2
5799	0	2e-05	-5e-05	-9e-05	0	-0.00023	-4e-05	-3e-05	2
5800	1e-05	-4e-05	1e-05	-6e-05	-0.0001	0.00017	0.00014	0.00012	2
5801	1e-05	-4e-05	1e-05	-6e-05	-0.0001	0.00017	0.00014	0.00012	2
5802	1e-05	-4e-05	1e-05	-6e-05	-0.0001	0.00017	0.00014	0.00012	2
5803	1e-05	-4e-05	1e-05	-6e-05	-0.0001	0.00017	0.00014	0.00012	2
5804	1e-05	-4e-05	1e-05	-6e-05	-0.0001	0.00017	0.00014	0.00012	2
5805	2e-05	2e-05	2e-05	3e-05	5e-05	-3e-05	-5e-05	3e-05	2
5806	2e-05	2e-05	2e-05	3e-05	5e-05	-3e-05	-5e-05	3e-05	2
5807	2e-05	2e-05	2e-05	3e-05	5e-05	-3e-05	-5e-05	3e-05	2
5808	2e-05	2e-05	2e-05	3e-05	5e-05	-3e-05	-5e-05	3e-05	2
5809	2e-05	2e-05	2e-05	3e-05	5e-05	-3e-05	-5e-05	3e-05	2
5810	2e-05	2e-05	2e-05	3e-05	5e-05	-3e-05	-5e-05	3e-05	2
5811	2e-05	2e-05	2e-05	3e-05	5e-05	-3e-05	-5e-05	3e-05	2
5812	2e-05	2e-05	2e-05	3e-05	5e-05	-3e-05	-5e-05	3e-05	2
5813	-3e-05	-2e-05	-8e-05	-7e-05	-1e-05	-0.00012	2e-05	-2e-05	2
5814	-3e-05	-2e-05	-8e-05	-7e-05	-1e-05	-0.00012	2e-05	-2e-05	2
5815	-3e-05	-2e-05	-8e-05	-7e-05	-1e-05	-0.00012	2e-05	-2e-05	2
5816	-3e-05	-2e-05	-8e-05	-7e-05	-1e-05	-0.00012	2e-05	-2e-05	2
5817	-3e-05	-2e-05	-8e-05	-7e-05	-1e-05	-0.00012	2e-05	-2e-05	2
5818	-3e-05	-2e-05	-8e-05	-7e-05	-1e-05	-0.00012	2e-05	-2e-05	2
5819	-3e-05	-2e-05	-8e-05	-7e-05	-1e-05	-0.00012	2e-05	-2e-05	2
5820	-3e-05	-2e-05	-8e-05	-7e-05	-1e-05	-0.00012	2e-05	-2e-05	2
5821	-3e-05	-2e-05	-8e-05	-7e-05	-1e-05	-0.00012	2e-05	-2e-05	2
5822	-3e-05	-2e-05	-8e-05	-7e-05	-1e-05	-0.00012	2e-05	-2e-05	2
5823	-3e-05	-2e-05	-8e-05	-7e-05	-1e-05	-0.00012	2e-05	-2e-05	2
5824	-3e-05	-2e-05	-8e-05	-7e-05	-1e-05	-0.00012	2e-05	-2e-05	2
5825	-3e-05	-2e-05	-8e-05	-7e-05	-1e-05	-0.00012	2e-05	-2e-05	2
5826	-3e-05	-2e-05	-8e-05	-7e-05	-1e-05	-0.00012	2e-05	-2e-05	2
5827	-3e-05	-2e-05	-8e-05	-7e-05	-1e-05	-0.00012	2e-05	-2e-05	2
5828	-1e-05	-4e-05	-9e-05	-4e-05	2e-05	5e-05	0.00011	-2e-05	2
5829	-1e-05	-4e-05	-9e-05	-4e-05	2e-05	5e-05	0.00011	-2e-05	2
5830	-1e-05	-4e-05	-9e-05	-4e-05	2e-05	5e-05	0.00011	-2e-05	2
5831	-1e-05	-4e-05	-9e-05	-4e-05	2e-05	5e-05	0.00011	-2e-05	2
5832	-1e-05	-4e-05	-9e-05	-4e-05	2e-05	5e-05	0.00011	-2e-05	2
5833	-1e-05	-4e-05	-9e-05	-4e-05	2e-05	5e-05	0.00011	-2e-05	2
5834	-1e-05	-4e-05	-9e-05	-4e-05	2e-05	5e-05	0.00011	-2e-05	2
5835	-1e-05	-4e-05	-9e-05	-4e-05	2e-05	5e-05	0.00011	-2e-05	2
5836	2e-05	4e-05	0.00011	0.00018	0.00028	0.00011	-7e-05	-1e-05	2
5839	2e-05	4e-05	0.00011	0.00018	0.00028	0.00011	-7e-05	-1e-05	2
5840	2e-05	4e-05	0.00011	0.00018	0.00028	0.00011	-7e-05	-1e-05	2
5841	2e-05	4e-05	0.00011	0.00018	0.00028	0.00011	-7e-05	-1e-05	2
5842	2e-05	4e-05	0.00011	0.00018	0.00028	0.00011	-7e-05	-1e-05	2
5843	2e-05	4e-05	0.00011	0.00018	0.00028	0.00011	-7e-05	-1e-05	2
5844	2e-05	4e-05	0.00011	0.00018	0.00028	0.00011	-7e-05	-1e-05	2
5845	2e-05	4e-05	0.00011	0.00018	0.00028	0.00011	-7e-05	-1e-05	2
5846	2e-05	4e-05	0.00011	0.00018	0.00028	0.00011	-7e-05	-1e-05	2
5847	2e-05	4e-05	0.00011	0.00018	0.00028	0.00011	-7e-05	-1e-05	2
5848	2e-05	4e-05	0.00011	0.00018	0.00028	0.00011	-7e-05	-1e-05	2
5849	2e-05	4e-05	0.00011	0.00018	0.00028	0.00011	-7e-05	-1e-05	2
5850	2e-05	4e-05	0.00011	0.00018	0.00028	0.00011	-7e-05	-1e-05	2
5851	-3e-05	3e-05	3e-05	-3e-05	2e-05	-9e-05	-0.00022	-0.00013	2
5852	-3e-05	3e-05	3e-05	-3e-05	2e-05	-9e-05	-0.00022	-0.00013	2
5853	1e-05	-4e-05	6e-05	-2e-05	-2e-05	0.00013	0.00026	-1e-05	2
5854	1e-05	-4e-05	6e-05	-2e-05	-2e-05	0.00013	0.00026	-1e-05	2
5855	1e-05	-4e-05	6e-05	-2e-05	-2e-05	0.00013	0.00026	-1e-05	2
5856	1e-05	-4e-05	6e-05	-2e-05	-2e-05	0.00013	0.00026	-1e-05	2
5857	1e-05	-4e-05	6e-05	-2e-05	-2e-05	0.00013	0.00026	-1e-05	2
5858	1e-05	-4e-05	6e-05	-2e-05	-2e-05	0.00013	0.00026	-1e-05	2
5859	1e-05	-4e-05	6e-05	-2e-05	-2e-05	0.00013	0.00026	-1e-05	2
5860	1e-05	-4e-05	6e-05	-2e-05	-2e-05	0.00013	0.00026	-1e-05	2
5861	1e-05	-4e-05	6e-05	-2e-05	-2e-05	0.00013	0.00026	-1e-05	2
5862	1e-05	-4e-05	6e-05	-2e-05	-2e-05	0.00013	0.00026	-1e-05	2
5863	1e-05	-4e-05	6e-05	-2e-05	-2e-05	0.00013	0.00026	-1e-05	2
5864	1e-05	-4e-05	6e-05	-2e-05	-2e-05	0.00013	0.00026	-1e-05	2
5865	0	-0.00011	-4e-05	2e-05	-1e-05	-0.0001	6e-05	6e-05	2
5866	0	-0.00011	-4e-05	2e-05	-1e-05	-0.0001	6e-05	6e-05	2
5867	0	-0.00011	-4e-05	2e-05	-1e-05	-0.0001	6e-05	6e-05	2
5868	0	-0.00011	-4e-05	2e-05	-1e-05	-0.0001	6e-05	6e-05	2
5869	0	-0.00011	-4e-05	2e-05	-1e-05	-0.0001	6e-05	6e-05	2
5870	0	-0.00011	-4e-05	2e-05	-1e-05	-0.0001	6e-05	6e-05	2
5871	0	-0.00011	-4e-05	2e-05	-1e-05	-0.0001	6e-05	6e-05	2
5872	-3e-05	-5e-05	-0.00015	-2e-05	1e-05	-7e-05	0.00015	-5e-05	2
5873	-3e-05	-5e-05	-0.00015	-2e-05	1e-05	-7e-05	0.00015	-5e-05	2
5874	-3e-05	-5e-05	-0.00015	-2e-05	1e-05	-7e-05	0.00015	-5e-05	2
5875	-3e-05	-5e-05	-0.00015	-2e-05	1e-05	-7e-05	0.00015	-5e-05	2
5876	-3e-05	-5e-05	-0.00015	-2e-05	1e-05	-7e-05	0.00015	-5e-05	2
5877	-3e-05	-5e-05	-0.00015	-2e-05	1e-05	-7e-05	0.00015	-5e-05	2
5878	-3e-05	-5e-05	-0.00015	-2e-05	1e-05	-7e-05	0.00015	-5e-05	2
5879	-3e-05	-5e-05	-0.00015	-2e-05	1e-05	-7e-05	0.00015	-5e-05	2
5880	-3e-05	-5e-05	-0.00015	-2e-05	1e-05	-7e-05	0.00015	-5e-05	2
5881	-3e-05	-5e-05	-0.00015	-2e-05	1e-05	-7e-05	0.00015	-5e-05	2
5882	-3e-05	-5e-05	-0.00015	-2e-05	1e-05	-7e-05	0.00015	-5e-05	2
5883	-3e-05	-5e-05	-0.00015	-2e-05	1e-05	-7e-05	0.00015	-5e-05	2
5884	-3e-05	-5e-05	-0.00015	-2e-05	1e-05	-7e-05	0.00015	-5e-05	2
5885	-3e-05	-5e-05	-0.00015	-2e-05	1e-05	-7e-05	0.00015	-5e-05	2
5886	-3e-05	-5e-05	-0.00015	-2e-05	1e-05	-7e-05	0.00015	-5e-05	2
5889	-3e-05	-5e-05	-0.00015	-2e-05	1e-05	-7e-05	0.00015	-5e-05	2
5890	-2e-05	3e-05	8e-05	-1e-05	-2e-05	6e-05	-5e-05	-4e-05	2
5891	-4e-05	-7e-05	-0.00011	0	-5e-05	1e-05	-9e-05	-3e-05	2
5892	-4e-05	-7e-05	-0.00011	0	-5e-05	1e-05	-9e-05	-3e-05	2
5893	-4e-05	-7e-05	-0.00011	0	-5e-05	1e-05	-9e-05	-3e-05	2
5894	-4e-05	-7e-05	-0.00011	0	-5e-05	1e-05	-9e-05	-3e-05	2
5895	-4e-05	-7e-05	-0.00011	0	-5e-05	1e-05	-9e-05	-3e-05	2
5896	-4e-05	-7e-05	-0.00011	0	-5e-05	1e-05	-9e-05	-3e-05	2
5897	-4e-05	-7e-05	-0.00011	0	-5e-05	1e-05	-9e-05	-3e-05	2
5898	-4e-05	-7e-05	-0.00011	0	-5e-05	1e-05	-9e-05	-3e-05	2
5899	-4e-05	-7e-05	-0.00011	0	-5e-05	1e-05	-9e-05	-3e-05	2
5900	-4e-05	-7e-05	-0.00011	0	-5e-05	1e-05	-9e-05	-3e-05	2
5901	-4e-05	-7e-05	-0.00011	0	-5e-05	1e-05	-9e-05	-3e-05	2
5902	-4e-05	-7e-05	-0.00011	0	-5e-05	1e-05	-9e-05	-3e-05	2
5903	-4e-05	-7e-05	-0.00011	0	-5e-05	1e-05	-9e-05	-3e-05	2
5904	-4e-05	-7e-05	-0.00011	0	-5e-05	1e-05	-9e-05	-3e-05	2
5905	-4e-05	-7e-05	-0.00011	0	-5e-05	1e-05	-9e-05	-3e-05	2
5906	-4e-05	-7e-05	-0.00011	0	-5e-05	1e-05	-9e-05	-3e-05	2
5907	-4e-05	-7e-05	-0.00011	0	-5e-05	1e-05	-9e-05	-3e-05	2
5908	-4e-05	-7e-05	-0.00011	0	-5e-05	1e-05	-9e-05	-3e-05	2
5909	-4e-05	-7e-05	-0.00011	0	-5e-05	1e-05	-9e-05	-3e-05	2
5910	-4e-05	-7e-05	-0.00011	0	-5e-05	1e-05	-9e-05	-3e-05	2
5911	-4e-05	-7e-05	-0.00011	0	-5e-05	1e-05	-9e-05	-3e-05	2
5912	-4e-05	-7e-05	-0.00011	0	-5e-05	1e-05	-9e-05	-3e-05	2
5913	-4e-05	-7e-05	-0.00011	0	-5e-05	1e-05	-9e-05	-3e-05	2
5914	-4e-05	-7e-05	-0.00011	0	-5e-05	1e-05	-9e-05	-3e-05	2
5915	-4e-05	-7e-05	-0.00011	0	-5e-05	1e-05	-9e-05	-3e-05	2
5916	-4e-05	-7e-05	-0.00011	0	-5e-05	1e-05	-9e-05	-3e-05	2
5917	-4e-05	-7e-05	-0.00011	0	-5e-05	1e-05	-9e-05	-3e-05	2
5918	-4e-05	-7e-05	-0.00011	0	-5e-05	1e-05	-9e-05	-3e-05	2
5919	-1e-05	0	-1e-05	3e-05	5e-05	4e-05	-7e-05	-5e-05	2
5920	0	0	-4e-05	-0.00013	-5e-05	5e-05	-9e-05	0.00011	2
5922	0	0	-4e-05	-0.00013	-5e-05	5e-05	-9e-05	0.00011	2
5923	0	0	-4e-05	-0.00013	-5e-05	5e-05	-9e-05	0.00011	2
5924	0	0	-4e-05	-0.00013	-5e-05	5e-05	-9e-05	0.00011	2
5925	1e-05	-1e-05	4e-05	0.00014	0.00016	1e-05	-0.00012	-4e-05	2
5926	-4e-05	-3e-05	-4e-05	-0.00015	-0.00016	-2e-05	3e-05	-1e-05	2
5927	-4e-05	-3e-05	-4e-05	-0.00015	-0.00016	-2e-05	3e-05	-1e-05	2
5928	-4e-05	-3e-05	-4e-05	-0.00015	-0.00016	-2e-05	3e-05	-1e-05	2
5929	-4e-05	-3e-05	-4e-05	-0.00015	-0.00016	-2e-05	3e-05	-1e-05	2
5930	-4e-05	-3e-05	-4e-05	-0.00015	-0.00016	-2e-05	3e-05	-1e-05	2
5931	-4e-05	-3e-05	-4e-05	-0.00015	-0.00016	-2e-05	3e-05	-1e-05	2
5932	0	1e-05	4e-05	0	0	-5e-05	6e-05	-7e-05	2
5933	0	1e-05	4e-05	0	0	-5e-05	6e-05	-7e-05	2
5934	0	1e-05	4e-05	0	0	-5e-05	6e-05	-7e-05	2
5935	0	1e-05	4e-05	0	0	-5e-05	6e-05	-7e-05	2
5936	0	1e-05	4e-05	0	0	-5e-05	6e-05	-7e-05	2
5938	0	1e-05	4e-05	0	0	-5e-05	6e-05	-7e-05	2
5939	0	1e-05	4e-05	0	0	-5e-05	6e-05	-7e-05	2
5940	0	1e-05	4e-05	0	0	-5e-05	6e-05	-7e-05	2
5941	0	1e-05	4e-05	0	0	-5e-05	6e-05	-7e-05	2
5942	0	1e-05	4e-05	0	0	-5e-05	6e-05	-7e-05	2
5943	0	1e-05	4e-05	0	0	-5e-05	6e-05	-7e-05	2
5944	0	1e-05	4e-05	0	0	-5e-05	6e-05	-7e-05	2
5945	0	1e-05	4e-05	0	0	-5e-05	6e-05	-7e-05	2
5947	0	1e-05	4e-05	0	0	-5e-05	6e-05	-7e-05	2
5948	0	1e-05	4e-05	0	0	-5e-05	6e-05	-7e-05	2
5949	0	1e-05	4e-05	0	0	-5e-05	6e-05	-7e-05	2
5950	0	1e-05	4e-05	0	0	-5e-05	6e-05	-7e-05	2
5951	0	1e-05	4e-05	0	0	-5e-05	6e-05	-7e-05	2
5952	0	1e-05	4e-05	0	0	-5e-05	6e-05	-7e-05	2
5953	0	1e-05	4e-05	0	0	-5e-05	6e-05	-7e-05	2
5954	0	1e-05	4e-05	0	0	-5e-05	6e-05	-7e-05	2
5955	0	1e-05	4e-05	0	0	-5e-05	6e-05	-7e-05	2
5956	-1e-05	-2e-05	0	1e-05	2e-05	0	-5e-05	-4e-05	2
5957	-1e-05	-2e-05	0	1e-05	2e-05	0	-5e-05	-4e-05	2
5958	-3e-05	-8e-05	-7e-05	-5e-05	0.00013	5e-05	0.00012	0	2
5959	-3e-05	-8e-05	-7e-05	-5e-05	0.00013	5e-05	0.00012	0	2
5960	-3e-05	-8e-05	-7e-05	-5e-05	0.00013	5e-05	0.00012	0	2
5961	-3e-05	-8e-05	-7e-05	-5e-05	0.00013	5e-05	0.00012	0	2
5962	-3e-05	-8e-05	-7e-05	-5e-05	0.00013	5e-05	0.00012	0	2
5963	-3e-05	-8e-05	-7e-05	-5e-05	0.00013	5e-05	0.00012	0	2
5964	-3e-05	-8e-05	-7e-05	-5e-05	0.00013	5e-05	0.00012	0	2
5965	-3e-05	-8e-05	-7e-05	-5e-05	0.00013	5e-05	0.00012	0	2
5966	-3e-05	-8e-05	-7e-05	-5e-05	0.00013	5e-05	0.00012	0	2
5967	-3e-05	-8e-05	-7e-05	-5e-05	0.00013	5e-05	0.00012	0	2
5968	-3e-05	-8e-05	-7e-05	-5e-05	0.00013	5e-05	0.00012	0	2
5969	-3e-05	-8e-05	-7e-05	-5e-05	0.00013	5e-05	0.00012	0	2
5970	-3e-05	-8e-05	-7e-05	-5e-05	0.00013	5e-05	0.00012	0	2
5971	-4e-05	-1e-05	2e-05	-2e-05	2e-05	9e-05	0.00017	-9e-05	2
5972	-4e-05	-1e-05	2e-05	-2e-05	2e-05	9e-05	0.00017	-9e-05	2
5973	-2e-05	-1e-05	5e-05	5e-05	-6e-05	-3e-05	5e-05	8e-05	2
5974	-2e-05	-1e-05	5e-05	5e-05	-6e-05	-3e-05	5e-05	8e-05	2
5975	-2e-05	-1e-05	5e-05	5e-05	-6e-05	-3e-05	5e-05	8e-05	2
5976	-2e-05	-1e-05	5e-05	5e-05	-6e-05	-3e-05	5e-05	8e-05	2
5977	-2e-05	-1e-05	5e-05	5e-05	-6e-05	-3e-05	5e-05	8e-05	2
5978	-2e-05	-1e-05	5e-05	5e-05	-6e-05	-3e-05	5e-05	8e-05	2
5979	-2e-05	-1e-05	5e-05	5e-05	-6e-05	-3e-05	5e-05	8e-05	2
5980	-2e-05	-1e-05	5e-05	5e-05	-6e-05	-3e-05	5e-05	8e-05	2
5981	-2e-05	-1e-05	5e-05	5e-05	-6e-05	-3e-05	5e-05	8e-05	2
5982	-2e-05	-1e-05	5e-05	5e-05	-6e-05	-3e-05	5e-05	8e-05	2
5983	-2e-05	-1e-05	5e-05	5e-05	-6e-05	-3e-05	5e-05	8e-05	2
5984	-2e-05	-1e-05	5e-05	5e-05	-6e-05	-3e-05	5e-05	8e-05	2
5985	2e-05	-1e-05	2e-05	4e-05	2e-05	7e-05	-2e-05	9e-05	2
5986	2e-05	-1e-05	2e-05	4e-05	2e-05	7e-05	-2e-05	9e-05	2
5989	2e-05	-1e-05	2e-05	4e-05	2e-05	7e-05	-2e-05	9e-05	2
5990	2e-05	-1e-05	2e-05	4e-05	2e-05	7e-05	-2e-05	9e-05	2
5991	2e-05	-1e-05	2e-05	4e-05	2e-05	7e-05	-2e-05	9e-05	2
5992	-1e-05	-5e-05	-1e-05	-5e-05	-4e-05	-4e-05	-2e-05	-5e-05	2
5993	-1e-05	-5e-05	-1e-05	-5e-05	-4e-05	-4e-05	-2e-05	-5e-05	2
5994	-1e-05	-5e-05	-1e-05	-5e-05	-4e-05	-4e-05	-2e-05	-5e-05	2
5995	-1e-05	-5e-05	-1e-05	-5e-05	-4e-05	-4e-05	-2e-05	-5e-05	2
5996	-1e-05	-5e-05	-1e-05	-5e-05	-4e-05	-4e-05	-2e-05	-5e-05	2
5997	-1e-05	-5e-05	-1e-05	-5e-05	-4e-05	-4e-05	-2e-05	-5e-05	2
5998	-1e-05	-5e-05	-1e-05	-5e-05	-4e-05	-4e-05	-2e-05	-5e-05	2
5999	-1e-05	-5e-05	-1e-05	-5e-05	-4e-05	-4e-05	-2e-05	-5e-05	2
6000	-1e-05	-5e-05	-1e-05	-5e-05	-4e-05	-4e-05	-2e-05	-5e-05	2
6001	-1e-05	-5e-05	-1e-05	-5e-05	-4e-05	-4e-05	-2e-05	-5e-05	2
6002	-1e-05	-5e-05	-1e-05	-5e-05	-4e-05	-4e-05	-2e-05	-5e-05	2
6003	-1e-05	-5e-05	-1e-05	-5e-05	-4e-05	-4e-05	-2e-05	-5e-05	2
6004	-1e-05	-5e-05	-1e-05	-5e-05	-4e-05	-4e-05	-2e-05	-5e-05	2
6005	-1e-05	-5e-05	-1e-05	-5e-05	-4e-05	-4e-05	-2e-05	-5e-05	2
6006	-1e-05	-5e-05	-1e-05	-5e-05	-4e-05	-4e-05	-2e-05	-5e-05	2
6007	-1e-05	-5e-05	-1e-05	-5e-05	-4e-05	-4e-05	-2e-05	-5e-05	2
6008	0	3e-05	-1e-05	6e-05	4e-05	-3e-05	-3e-05	5e-05	2
6009	3e-05	1e-05	8e-05	0	2e-05	-0.00012	-5e-05	3e-05	2
6010	-5e-05	-2e-05	-7e-05	2e-05	1e-05	3e-05	-2e-05	-7e-05	2
6011	-5e-05	-2e-05	-7e-05	2e-05	1e-05	3e-05	-2e-05	-7e-05	2
6012	-5e-05	-2e-05	-7e-05	2e-05	1e-05	3e-05	-2e-05	-7e-05	2
6013	-5e-05	-2e-05	-7e-05	2e-05	1e-05	3e-05	-2e-05	-7e-05	2
6014	-5e-05	-2e-05	-7e-05	2e-05	1e-05	3e-05	-2e-05	-7e-05	2
6015	-5e-05	-2e-05	-7e-05	2e-05	1e-05	3e-05	-2e-05	-7e-05	2
6016	-5e-05	-2e-05	-7e-05	2e-05	1e-05	3e-05	-2e-05	-7e-05	2
6017	-5e-05	-2e-05	-7e-05	2e-05	1e-05	3e-05	-2e-05	-7e-05	2
6018	-5e-05	-2e-05	-7e-05	2e-05	1e-05	3e-05	-2e-05	-7e-05	2
6020	-5e-05	-2e-05	-7e-05	2e-05	1e-05	3e-05	-2e-05	-7e-05	2
6021	-5e-05	-2e-05	-7e-05	2e-05	1e-05	3e-05	-2e-05	-7e-05	2
6022	-5e-05	-2e-05	-7e-05	2e-05	1e-05	3e-05	-2e-05	-7e-05	2
6023	-5e-05	-2e-05	-7e-05	2e-05	1e-05	3e-05	-2e-05	-7e-05	2
6024	-5e-05	-2e-05	-7e-05	2e-05	1e-05	3e-05	-2e-05	-7e-05	2
6025	-5e-05	-2e-05	-7e-05	2e-05	1e-05	3e-05	-2e-05	-7e-05	2
6026	-5e-05	-2e-05	-7e-05	2e-05	1e-05	3e-05	-2e-05	-7e-05	2
6027	-5e-05	-2e-05	-7e-05	2e-05	1e-05	3e-05	-2e-05	-7e-05	2
6028	-5e-05	-2e-05	-7e-05	2e-05	1e-05	3e-05	-2e-05	-7e-05	2
6029	-5e-05	-2e-05	-7e-05	2e-05	1e-05	3e-05	-2e-05	-7e-05	2
6030	-5e-05	-2e-05	-7e-05	2e-05	1e-05	3e-05	-2e-05	-7e-05	2
6031	-5e-05	-2e-05	-7e-05	2e-05	1e-05	3e-05	-2e-05	-7e-05	2
6032	-5e-05	-2e-05	-7e-05	2e-05	1e-05	3e-05	-2e-05	-7e-05	2
6033	-5e-05	-2e-05	-7e-05	2e-05	1e-05	3e-05	-2e-05	-7e-05	2
6034	-5e-05	-2e-05	-7e-05	2e-05	1e-05	3e-05	-2e-05	-7e-05	2
6035	-5e-05	-2e-05	-7e-05	2e-05	1e-05	3e-05	-2e-05	-7e-05	2
6036	-5e-05	-2e-05	-7e-05	2e-05	1e-05	3e-05	-2e-05	-7e-05	2
6039	-2e-05	4e-05	4e-05	0.0001	0.00012	-0.00017	-0.00011	-3e-05	2
6040	-3e-05	1e-05	1e-05	-9e-05	-8e-05	-8e-05	4e-05	0	2
6041	-3e-05	1e-05	1e-05	-9e-05	-8e-05	-8e-05	4e-05	0	2
6042	-3e-05	1e-05	1e-05	-9e-05	-8e-05	-8e-05	4e-05	0	2
6043	-3e-05	1e-05	1e-05	-9e-05	-8e-05	-8e-05	4e-05	0	2
6044	-3e-05	1e-05	1e-05	-9e-05	-8e-05	-8e-05	4e-05	0	2
6045	-2e-05	-4e-05	-0.00012	-4e-05	-0.0001	0.00025	8e-05	4e-05	2
6046	-2e-05	-4e-05	-0.00012	-4e-05	-0.0001	0.00025	8e-05	4e-05	2
6047	-2e-05	-4e-05	-0.00012	-4e-05	-0.0001	0.00025	8e-05	4e-05	2
6048	-2e-05	-4e-05	-0.00012	-4e-05	-0.0001	0.00025	8e-05	4e-05	2
6049	-2e-05	-4e-05	-0.00012	-4e-05	-0.0001	0.00025	8e-05	4e-05	2
6050	-2e-05	-4e-05	-0.00012	-4e-05	-0.0001	0.00025	8e-05	4e-05	2
6051	-2e-05	-4e-05	-0.00012	-4e-05	-0.0001	0.00025	8e-05	4e-05	2
6052	-2e-05	-4e-05	-0.00012	-4e-05	-0.0001	0.00025	8e-05	4e-05	2
6053	-2e-05	-4e-05	-0.00012	-4e-05	-0.0001	0.00025	8e-05	4e-05	2
6054	-1e-05	4e-05	0.0001	9e-05	-4e-05	0.00011	-5e-05	0	2
6055	-1e-05	4e-05	0.0001	9e-05	-4e-05	0.00011	-5e-05	0	2
6056	-1e-05	4e-05	0.0001	9e-05	-4e-05	0.00011	-5e-05	0	2
6057	-1e-05	4e-05	0.0001	9e-05	-4e-05	0.00011	-5e-05	0	2
6058	-1e-05	4e-05	0.0001	9e-05	-4e-05	0.00011	-5e-05	0	2
6059	-1e-05	4e-05	0.0001	9e-05	-4e-05	0.00011	-5e-05	0	2
6060	-1e-05	4e-05	0.0001	9e-05	-4e-05	0.00011	-5e-05	0	2
6061	-1e-05	4e-05	0.0001	9e-05	-4e-05	0.00011	-5e-05	0	2
6062	-1e-05	4e-05	0.0001	9e-05	-4e-05	0.00011	-5e-05	0	2
6063	-1e-05	4e-05	0.0001	9e-05	-4e-05	0.00011	-5e-05	0	2
6064	-1e-05	4e-05	0.0001	9e-05	-4e-05	0.00011	-5e-05	0	2
6065	-1e-05	4e-05	0.0001	9e-05	-4e-05	0.00011	-5e-05	0	2
6066	-1e-05	4e-05	0.0001	9e-05	-4e-05	0.00011	-5e-05	0	2
6067	-1e-05	4e-05	0.0001	9e-05	-4e-05	0.00011	-5e-05	0	2
6068	-1e-05	4e-05	0.0001	9e-05	-4e-05	0.00011	-5e-05	0	2
6069	-1e-05	4e-05	0.0001	9e-05	-4e-05	0.00011	-5e-05	0	2
6070	-1e-05	4e-05	0.0001	9e-05	-4e-05	0.00011	-5e-05	0	2
6071	-1e-05	4e-05	0.0001	9e-05	-4e-05	0.00011	-5e-05	0	2
6072	-1e-05	4e-05	0.0001	9e-05	-4e-05	0.00011	-5e-05	0	2
6073	-1e-05	4e-05	0.0001	9e-05	-4e-05	0.00011	-5e-05	0	2
6074	-1e-05	4e-05	0.0001	9e-05	-4e-05	0.00011	-5e-05	0	2
6075	-1e-05	4e-05	0.0001	9e-05	-4e-05	0.00011	-5e-05	0	2
6076	-3e-05	0	-0.0001	-6e-05	4e-05	0	0	-5e-05	2
6077	-3e-05	0	-0.0001	-6e-05	4e-05	0	0	-5e-05	2
6078	2e-05	-3e-05	-3e-05	-3e-05	5e-05	-0.00029	-0.00019	-1e-05	2
6079	2e-05	-3e-05	-3e-05	-3e-05	5e-05	-0.00029	-0.00019	-1e-05	2
6080	2e-05	-3e-05	-3e-05	-3e-05	5e-05	-0.00029	-0.00019	-1e-05	2
6081	2e-05	-3e-05	-3e-05	-3e-05	5e-05	-0.00029	-0.00019	-1e-05	2
6082	2e-05	-3e-05	-3e-05	-3e-05	5e-05	-0.00029	-0.00019	-1e-05	2
6083	2e-05	-3e-05	-3e-05	-3e-05	5e-05	-0.00029	-0.00019	-1e-05	2
6084	2e-05	-3e-05	-3e-05	-3e-05	5e-05	-0.00029	-0.00019	-1e-05	2
6085	2e-05	-3e-05	-3e-05	-3e-05	5e-05	-0.00029	-0.00019	-1e-05	2
6086	2e-05	-3e-05	-3e-05	-3e-05	5e-05	-0.00029	-0.00019	-1e-05	2
6088	2e-05	-3e-05	-3e-05	-3e-05	5e-05	-0.00029	-0.00019	-1e-05	2
6089	2e-05	-3e-05	-3e-05	-3e-05	5e-05	-0.00029	-0.00019	-1e-05	2
6090	2e-05	-3e-05	-3e-05	-3e-05	5e-05	-0.00029	-0.00019	-1e-05	2
6091	4e-05	2e-05	5e-05	6e-05	8e-05	0.00033	0.00019	7e-05	2
6092	4e-05	2e-05	5e-05	6e-05	8e-05	0.00033	0.00019	7e-05	2
6093	-2e-05	-6e-05	-2e-05	0.0001	0.00016	-1e-05	-2e-05	-3e-05	2
6094	-2e-05	-6e-05	-2e-05	0.0001	0.00016	-1e-05	-2e-05	-3e-05	2
6095	-2e-05	-6e-05	-2e-05	0.0001	0.00016	-1e-05	-2e-05	-3e-05	2
6097	-2e-05	-6e-05	-2e-05	0.0001	0.00016	-1e-05	-2e-05	-3e-05	2
6098	-2e-05	-6e-05	-2e-05	0.0001	0.00016	-1e-05	-2e-05	-3e-05	2
6099	-2e-05	-6e-05	-2e-05	0.0001	0.00016	-1e-05	-2e-05	-3e-05	2
6100	-2e-05	-6e-05	-2e-05	0.0001	0.00016	-1e-05	-2e-05	-3e-05	2
6101	-2e-05	-6e-05	-2e-05	0.0001	0.00016	-1e-05	-2e-05	-3e-05	2
6102	-2e-05	-6e-05	-2e-05	0.0001	0.00016	-1e-05	-2e-05	-3e-05	2
6103	-2e-05	-6e-05	-2e-05	0.0001	0.00016	-1e-05	-2e-05	-3e-05	2
6104	-2e-05	-6e-05	-2e-05	0.0001	0.00016	-1e-05	-2e-05	-3e-05	2
6105	-2e-05	-5e-05	-5e-05	-4e-05	-5e-05	-4e-05	-7e-05	-3e-05	2
6106	-2e-05	-5e-05	-5e-05	-4e-05	-5e-05	-4e-05	-7e-05	-3e-05	2
6107	-2e-05	-5e-05	-5e-05	-4e-05	-5e-05	-4e-05	-7e-05	-3e-05	2
6108	-2e-05	-5e-05	-5e-05	-4e-05	-5e-05	-4e-05	-7e-05	-3e-05	2
6109	-2e-05	-5e-05	-5e-05	-4e-05	-5e-05	-4e-05	-7e-05	-3e-05	2
6110	-2e-05	-5e-05	-5e-05	-4e-05	-5e-05	-4e-05	-7e-05	-3e-05	2
6111	-2e-05	-5e-05	-5e-05	-4e-05	-5e-05	-4e-05	-7e-05	-3e-05	2
6112	-2e-05	-5e-05	-5e-05	-4e-05	-5e-05	-4e-05	-7e-05	-3e-05	2
6113	-2e-05	-5e-05	-5e-05	-4e-05	-5e-05	-4e-05	-7e-05	-3e-05	2
6114	-2e-05	-5e-05	-5e-05	-4e-05	-5e-05	-4e-05	-7e-05	-3e-05	2
6115	5e-05	5e-05	-0.00011	4e-05	0.00019	0.00024	0.00013	9e-05	2
6116	5e-05	5e-05	-0.00011	4e-05	0.00019	0.00024	0.00013	9e-05	2
6117	5e-05	5e-05	-0.00011	4e-05	0.00019	0.00024	0.00013	9e-05	2
6118	5e-05	5e-05	-0.00011	4e-05	0.00019	0.00024	0.00013	9e-05	2
6119	5e-05	5e-05	-0.00011	4e-05	0.00019	0.00024	0.00013	9e-05	2
6120	5e-05	5e-05	-0.00011	4e-05	0.00019	0.00024	0.00013	9e-05	2
6121	5e-05	5e-05	-0.00011	4e-05	0.00019	0.00024	0.00013	9e-05	2
6122	5e-05	5e-05	-0.00011	4e-05	0.00019	0.00024	0.00013	9e-05	2
6123	5e-05	5e-05	-0.00011	4e-05	0.00019	0.00024	0.00013	9e-05	2
6124	5e-05	5e-05	-0.00011	4e-05	0.00019	0.00024	0.00013	9e-05	2
6125	5e-05	5e-05	-0.00011	4e-05	0.00019	0.00024	0.00013	9e-05	2
6126	5e-05	5e-05	-0.00011	4e-05	0.00019	0.00024	0.00013	9e-05	2
6127	5e-05	5e-05	-0.00011	4e-05	0.00019	0.00024	0.00013	9e-05	2
6128	-4e-05	-4e-05	-0.00012	-0.00011	-2e-05	7e-05	8e-05	-4e-05	2
6129	-7e-05	-9e-05	2e-05	5e-05	5e-05	-0.00019	-0.0003	-0.00012	2
6130	0	5e-05	7e-05	-5e-05	-0.00014	8e-05	-4e-05	0	2
6131	0	5e-05	7e-05	-5e-05	-0.00014	8e-05	-4e-05	0	2
6132	0	5e-05	7e-05	-5e-05	-0.00014	8e-05	-4e-05	0	2
6133	0	5e-05	7e-05	-5e-05	-0.00014	8e-05	-4e-05	0	2
6134	0	5e-05	7e-05	-5e-05	-0.00014	8e-05	-4e-05	0	2
6135	0	5e-05	7e-05	-5e-05	-0.00014	8e-05	-4e-05	0	2
6136	0	5e-05	7e-05	-5e-05	-0.00014	8e-05	-4e-05	0	2
6138	0	5e-05	7e-05	-5e-05	-0.00014	8e-05	-4e-05	0	2
6139	0	5e-05	7e-05	-5e-05	-0.00014	8e-05	-4e-05	0	2
6140	0	5e-05	7e-05	-5e-05	-0.00014	8e-05	-4e-05	0	2
6141	0	5e-05	7e-05	-5e-05	-0.00014	8e-05	-4e-05	0	2
6142	0	5e-05	7e-05	-5e-05	-0.00014	8e-05	-4e-05	0	2
6143	0	5e-05	7e-05	-5e-05	-0.00014	8e-05	-4e-05	0	2
6144	0	5e-05	7e-05	-5e-05	-0.00014	8e-05	-4e-05	0	2
6145	0	5e-05	7e-05	-5e-05	-0.00014	8e-05	-4e-05	0	2
6146	0	5e-05	7e-05	-5e-05	-0.00014	8e-05	-4e-05	0	2
6147	0	5e-05	7e-05	-5e-05	-0.00014	8e-05	-4e-05	0	2
6148	0	5e-05	7e-05	-5e-05	-0.00014	8e-05	-4e-05	0	2
6149	0	5e-05	7e-05	-5e-05	-0.00014	8e-05	-4e-05	0	2
6150	0	5e-05	7e-05	-5e-05	-0.00014	8e-05	-4e-05	0	2
6151	0	5e-05	7e-05	-5e-05	-0.00014	8e-05	-4e-05	0	2
6152	-5e-05	-5e-05	-3e-05	-6e-05	-4e-05	-0.00041	-0.00043	-9e-05	2
6153	-5e-05	-5e-05	-3e-05	-6e-05	-4e-05	-0.00041	-0.00043	-9e-05	2
6154	-5e-05	-5e-05	-3e-05	-6e-05	-4e-05	-0.00041	-0.00043	-9e-05	2
6155	-5e-05	-5e-05	-3e-05	-6e-05	-4e-05	-0.00041	-0.00043	-9e-05	2
6156	-5e-05	-5e-05	-3e-05	-6e-05	-4e-05	-0.00041	-0.00043	-9e-05	2
6157	-5e-05	-5e-05	-3e-05	-6e-05	-4e-05	-0.00041	-0.00043	-9e-05	2
6158	3e-05	-2e-05	2e-05	-3e-05	-1e-05	-3e-05	-6e-05	-2e-05	2
6159	3e-05	-2e-05	2e-05	-3e-05	-1e-05	-3e-05	-6e-05	-2e-05	2
6160	3e-05	-2e-05	2e-05	-3e-05	-1e-05	-3e-05	-6e-05	-2e-05	2
6161	3e-05	-2e-05	2e-05	-3e-05	-1e-05	-3e-05	-6e-05	-2e-05	2
6162	3e-05	-2e-05	2e-05	-3e-05	-1e-05	-3e-05	-6e-05	-2e-05	2
6163	3e-05	-2e-05	2e-05	-3e-05	-1e-05	-3e-05	-6e-05	-2e-05	2
6164	3e-05	-2e-05	2e-05	-3e-05	-1e-05	-3e-05	-6e-05	-2e-05	2
6165	-1e-05	0	2e-05	-6e-05	-0.00011	-4e-05	0	-1e-05	2
6166	-1e-05	0	2e-05	-6e-05	-0.00011	-4e-05	0	-1e-05	2
6167	-1e-05	0	2e-05	-6e-05	-0.00011	-4e-05	0	-1e-05	2
6168	-1e-05	0	2e-05	-6e-05	-0.00011	-4e-05	0	-1e-05	2
6169	-1e-05	0	2e-05	-6e-05	-0.00011	-4e-05	0	-1e-05	2
6170	-1e-05	0	2e-05	-6e-05	-0.00011	-4e-05	0	-1e-05	2
6172	-1e-05	0	2e-05	-6e-05	-0.00011	-4e-05	0	-1e-05	2
6173	-1e-05	0	2e-05	-6e-05	-0.00011	-4e-05	0	-1e-05	2
6174	-1e-05	0	4e-05	-0.0001	-8e-05	0.00024	5e-05	-3e-05	2
6175	-1e-05	0	4e-05	-0.0001	-8e-05	0.00024	5e-05	-3e-05	2
6176	-1e-05	0	4e-05	-0.0001	-8e-05	0.00024	5e-05	-3e-05	2
6177	-1e-05	0	4e-05	-0.0001	-8e-05	0.00024	5e-05	-3e-05	2
6178	-1e-05	0	4e-05	-0.0001	-8e-05	0.00024	5e-05	-3e-05	2
6179	-1e-05	0	4e-05	-0.0001	-8e-05	0.00024	5e-05	-3e-05	2
6180	-1e-05	0	4e-05	-0.0001	-8e-05	0.00024	5e-05	-3e-05	2
6181	-1e-05	0	4e-05	-0.0001	-8e-05	0.00024	5e-05	-3e-05	2
6182	-1e-05	0	4e-05	-0.0001	-8e-05	0.00024	5e-05	-3e-05	2
6183	-1e-05	0	4e-05	-0.0001	-8e-05	0.00024	5e-05	-3e-05	2
6184	-1e-05	0	4e-05	-0.0001	-8e-05	0.00024	5e-05	-3e-05	2
6185	-1e-05	0	4e-05	-0.0001	-8e-05	0.00024	5e-05	-3e-05	2
6186	-1e-05	0	4e-05	-0.0001	-8e-05	0.00024	5e-05	-3e-05	2
6188	-1e-05	0	4e-05	-0.0001	-8e-05	0.00024	5e-05	-3e-05	2
6189	-1e-05	0	4e-05	-0.0001	-8e-05	0.00024	5e-05	-3e-05	2
6190	-1e-05	0	4e-05	-0.0001	-8e-05	0.00024	5e-05	-3e-05	2
6191	-1e-05	0	4e-05	-0.0001	-8e-05	0.00024	5e-05	-3e-05	2
6192	-1e-05	0	4e-05	-0.0001	-8e-05	0.00024	5e-05	-3e-05	2
6193	-1e-05	0	4e-05	-0.0001	-8e-05	0.00024	5e-05	-3e-05	2
6194	-1e-05	0	4e-05	-0.0001	-8e-05	0.00024	5e-05	-3e-05	2
6195	-1e-05	0	4e-05	-0.0001	-8e-05	0.00024	5e-05	-3e-05	2
6196	-3e-05	-8e-05	-7e-05	4e-05	0.0001	4e-05	7e-05	-9e-05	2
6197	-3e-05	-8e-05	-7e-05	4e-05	0.0001	4e-05	7e-05	-9e-05	2
6198	-1e-05	-2e-05	-5e-05	-2e-05	-5e-05	-8e-05	8e-05	5e-05	2
6199	-1e-05	-2e-05	-5e-05	-2e-05	-5e-05	-8e-05	8e-05	5e-05	2
6200	-1e-05	-2e-05	-5e-05	-2e-05	-5e-05	-8e-05	8e-05	5e-05	2
6201	-1e-05	-2e-05	-5e-05	-2e-05	-5e-05	-8e-05	8e-05	5e-05	2
6202	-1e-05	-2e-05	-5e-05	-2e-05	-5e-05	-8e-05	8e-05	5e-05	2
6203	-1e-05	-2e-05	-5e-05	-2e-05	-5e-05	-8e-05	8e-05	5e-05	2
6204	-1e-05	-2e-05	-5e-05	-2e-05	-5e-05	-8e-05	8e-05	5e-05	2
6205	-1e-05	-2e-05	-5e-05	-2e-05	-5e-05	-8e-05	8e-05	5e-05	2
6206	-1e-05	-2e-05	-5e-05	-2e-05	-5e-05	-8e-05	8e-05	5e-05	2
6207	-1e-05	-2e-05	-5e-05	-2e-05	-5e-05	-8e-05	8e-05	5e-05	2
6208	-1e-05	-2e-05	-5e-05	-2e-05	-5e-05	-8e-05	8e-05	5e-05	2
6209	-1e-05	-2e-05	-5e-05	-2e-05	-5e-05	-8e-05	8e-05	5e-05	2
6210	-1e-05	-2e-05	-5e-05	-2e-05	-5e-05	-8e-05	8e-05	5e-05	2
6211	-1e-05	-2e-05	-5e-05	-2e-05	-5e-05	-8e-05	8e-05	5e-05	2
6212	-1e-05	-2e-05	-5e-05	-2e-05	-5e-05	-8e-05	8e-05	5e-05	2
6213	-1e-05	-2e-05	-5e-05	-2e-05	-5e-05	-8e-05	8e-05	5e-05	2
6214	-1e-05	-2e-05	-5e-05	-2e-05	-5e-05	-8e-05	8e-05	5e-05	2
6215	-1e-05	-2e-05	-5e-05	-2e-05	-5e-05	-8e-05	8e-05	5e-05	2
6216	-1e-05	-2e-05	-5e-05	-2e-05	-5e-05	-8e-05	8e-05	5e-05	2
6217	-1e-05	-2e-05	-5e-05	-2e-05	-5e-05	-8e-05	8e-05	5e-05	2
6218	0	3e-05	5e-05	-1e-05	2e-05	-0.00015	-0.00019	-9e-05	2
6219	-1e-05	-5e-05	4e-05	3e-05	0	0.00019	0.00011	1e-05	2
6220	-2e-05	-4e-05	-4e-05	0	-3e-05	-4e-05	-0.00016	-4e-05	2
6221	-2e-05	-4e-05	-4e-05	0	-3e-05	-4e-05	-0.00016	-4e-05	2
6222	-2e-05	-4e-05	-4e-05	0	-3e-05	-4e-05	-0.00016	-4e-05	2
6223	-2e-05	-4e-05	-4e-05	0	-3e-05	-4e-05	-0.00016	-4e-05	2
6224	-2e-05	-4e-05	-4e-05	0	-3e-05	-4e-05	-0.00016	-4e-05	2
6225	-2e-05	-4e-05	-4e-05	0	-3e-05	-4e-05	-0.00016	-4e-05	2
6226	-2e-05	-4e-05	-4e-05	0	-3e-05	-4e-05	-0.00016	-4e-05	2
6227	-2e-05	-4e-05	-4e-05	0	-3e-05	-4e-05	-0.00016	-4e-05	2
6228	-2e-05	-4e-05	-4e-05	0	-3e-05	-4e-05	-0.00016	-4e-05	2
6229	-2e-05	-4e-05	-4e-05	0	-3e-05	-4e-05	-0.00016	-4e-05	2
6230	-2e-05	-4e-05	-4e-05	0	-3e-05	-4e-05	-0.00016	-4e-05	2
6231	-2e-05	-4e-05	-4e-05	0	-3e-05	-4e-05	-0.00016	-4e-05	2
6232	-2e-05	-4e-05	-4e-05	0	-3e-05	-4e-05	-0.00016	-4e-05	2
6233	-2e-05	-1e-05	5e-05	2e-05	3e-05	-5e-05	-9e-05	-7e-05	2
6234	-2e-05	-1e-05	5e-05	2e-05	3e-05	-5e-05	-9e-05	-7e-05	2
6235	-4e-05	-2e-05	-9e-05	-9e-05	-0.0001	3e-05	8e-05	-5e-05	2
6236	-4e-05	-2e-05	-9e-05	-9e-05	-0.0001	3e-05	8e-05	-5e-05	2
6239	-4e-05	-2e-05	-9e-05	-9e-05	-0.0001	3e-05	8e-05	-5e-05	2
6240	-4e-05	-2e-05	-9e-05	-9e-05	-0.0001	3e-05	8e-05	-5e-05	2
6241	-4e-05	-2e-05	-9e-05	-9e-05	-0.0001	3e-05	8e-05	-5e-05	2
6242	-4e-05	-2e-05	-9e-05	-9e-05	-0.0001	3e-05	8e-05	-5e-05	2
6243	-4e-05	-2e-05	-9e-05	-9e-05	-0.0001	3e-05	8e-05	-5e-05	2
6244	-4e-05	-2e-05	-9e-05	-9e-05	-0.0001	3e-05	8e-05	-5e-05	2
6245	-4e-05	-2e-05	-9e-05	-9e-05	-0.0001	3e-05	8e-05	-5e-05	2
6246	-4e-05	-2e-05	-9e-05	-9e-05	-0.0001	3e-05	8e-05	-5e-05	2
6247	-4e-05	-2e-05	-9e-05	-9e-05	-0.0001	3e-05	8e-05	-5e-05	2
6248	-4e-05	-7e-05	-7e-05	2e-05	-2e-05	5e-05	-7e-05	3e-05	2
6249	2e-05	8e-05	4e-05	-6e-05	-4e-05	-2e-05	3e-05	-2e-05	2
6250	-5e-05	-5e-05	0	-4e-05	-0.00015	-3e-05	-2e-05	-0.00021	2
6251	-5e-05	-5e-05	0	-4e-05	-0.00015	-3e-05	-2e-05	-0.00021	2
6254	-5e-05	-5e-05	0	-4e-05	-0.00015	-3e-05	-2e-05	-0.00021	2
6255	-5e-05	-5e-05	0	-4e-05	-0.00015	-3e-05	-2e-05	-0.00021	2
6256	-5e-05	-5e-05	0	-4e-05	-0.00015	-3e-05	-2e-05	-0.00021	2
6257	-5e-05	-5e-05	0	-4e-05	-0.00015	-3e-05	-2e-05	-0.00021	2
6258	-5e-05	-5e-05	0	-4e-05	-0.00015	-3e-05	-2e-05	-0.00021	2
6259	-5e-05	-5e-05	0	-4e-05	-0.00015	-3e-05	-2e-05	-0.00021	2
6260	-5e-05	-5e-05	0	-4e-05	-0.00015	-3e-05	-2e-05	-0.00021	2
6261	-5e-05	-5e-05	0	-4e-05	-0.00015	-3e-05	-2e-05	-0.00021	2
6262	-5e-05	-5e-05	0	-4e-05	-0.00015	-3e-05	-2e-05	-0.00021	2
6263	-5e-05	-5e-05	0	-4e-05	-0.00015	-3e-05	-2e-05	-0.00021	2
6264	-5e-05	-5e-05	0	-4e-05	-0.00015	-3e-05	-2e-05	-0.00021	2
6265	-5e-05	-5e-05	0	-4e-05	-0.00015	-3e-05	-2e-05	-0.00021	2
6266	-5e-05	-5e-05	0	-4e-05	-0.00015	-3e-05	-2e-05	-0.00021	2
6267	-5e-05	-5e-05	0	-4e-05	-0.00015	-3e-05	-2e-05	-0.00021	2
6268	-5e-05	-5e-05	0	-4e-05	-0.00015	-3e-05	-2e-05	-0.00021	2
6269	-5e-05	-5e-05	0	-4e-05	-0.00015	-3e-05	-2e-05	-0.00021	2
6270	-5e-05	-5e-05	0	-4e-05	-0.00015	-3e-05	-2e-05	-0.00021	2
6271	-2e-05	-1e-05	-8e-05	0	7e-05	-9e-05	-0.0001	-3e-05	2
6272	4e-05	1e-05	2e-05	5e-05	5e-05	0.0002	0.00021	4e-05	2
6273	4e-05	1e-05	2e-05	5e-05	5e-05	0.0002	0.00021	4e-05	2
6274	4e-05	1e-05	2e-05	5e-05	5e-05	0.0002	0.00021	4e-05	2
6275	4e-05	1e-05	2e-05	5e-05	5e-05	0.0002	0.00021	4e-05	2
6276	4e-05	1e-05	2e-05	5e-05	5e-05	0.0002	0.00021	4e-05	2
6277	0	2e-05	1e-05	5e-05	6e-05	-0.00011	-4e-05	2e-05	2
6278	0	2e-05	1e-05	5e-05	6e-05	-0.00011	-4e-05	2e-05	2
6279	0	2e-05	1e-05	5e-05	6e-05	-0.00011	-4e-05	2e-05	2
6280	0	2e-05	1e-05	5e-05	6e-05	-0.00011	-4e-05	2e-05	2
6281	0	2e-05	1e-05	5e-05	6e-05	-0.00011	-4e-05	2e-05	2
6282	0	2e-05	1e-05	5e-05	6e-05	-0.00011	-4e-05	2e-05	2
6283	0	2e-05	1e-05	5e-05	6e-05	-0.00011	-4e-05	2e-05	2
6284	0	2e-05	1e-05	5e-05	6e-05	-0.00011	-4e-05	2e-05	2
6285	-2e-05	-6e-05	-6e-05	-7e-05	-9e-05	6e-05	3e-05	-3e-05	2
6286	-2e-05	-6e-05	-6e-05	-7e-05	-9e-05	6e-05	3e-05	-3e-05	2
6288	-2e-05	-6e-05	-6e-05	-7e-05	-9e-05	6e-05	3e-05	-3e-05	2
6289	-2e-05	-6e-05	-6e-05	-7e-05	-9e-05	6e-05	3e-05	-3e-05	2
6290	-2e-05	-6e-05	-6e-05	-7e-05	-9e-05	6e-05	3e-05	-3e-05	2
6291	-2e-05	-6e-05	-6e-05	-7e-05	-9e-05	6e-05	3e-05	-3e-05	2
6292	-2e-05	-6e-05	-6e-05	-7e-05	-9e-05	6e-05	3e-05	-3e-05	2
6293	-2e-05	-6e-05	-6e-05	-7e-05	-9e-05	6e-05	3e-05	-3e-05	2
6294	2e-05	1e-05	6e-05	0	-1e-05	-0.00015	-5e-05	1e-05	2
6295	2e-05	1e-05	6e-05	0	-1e-05	-0.00015	-5e-05	1e-05	2
6296	2e-05	1e-05	6e-05	0	-1e-05	-0.00015	-5e-05	1e-05	2
6297	2e-05	1e-05	6e-05	0	-1e-05	-0.00015	-5e-05	1e-05	2
6298	2e-05	1e-05	6e-05	0	-1e-05	-0.00015	-5e-05	1e-05	2
6299	2e-05	1e-05	6e-05	0	-1e-05	-0.00015	-5e-05	1e-05	2
6300	2e-05	1e-05	6e-05	0	-1e-05	-0.00015	-5e-05	1e-05	2
6301	2e-05	1e-05	6e-05	0	-1e-05	-0.00015	-5e-05	1e-05	2
6302	2e-05	1e-05	6e-05	0	-1e-05	-0.00015	-5e-05	1e-05	2
6303	2e-05	1e-05	6e-05	0	-1e-05	-0.00015	-5e-05	1e-05	2
6304	2e-05	1e-05	6e-05	0	-1e-05	-0.00015	-5e-05	1e-05	2
6305	2e-05	1e-05	6e-05	0	-1e-05	-0.00015	-5e-05	1e-05	2
6306	2e-05	1e-05	6e-05	0	-1e-05	-0.00015	-5e-05	1e-05	2
6307	2e-05	1e-05	6e-05	0	-1e-05	-0.00015	-5e-05	1e-05	2
6308	2e-05	1e-05	6e-05	0	-1e-05	-0.00015	-5e-05	1e-05	2
6309	2e-05	1e-05	6e-05	0	-1e-05	-0.00015	-5e-05	1e-05	2
6310	2e-05	1e-05	6e-05	0	-1e-05	-0.00015	-5e-05	1e-05	2
6311	2e-05	1e-05	6e-05	0	-1e-05	-0.00015	-5e-05	1e-05	2
6312	2e-05	1e-05	6e-05	0	-1e-05	-0.00015	-5e-05	1e-05	2
6313	2e-05	1e-05	6e-05	0	-1e-05	-0.00015	-5e-05	1e-05	2
6314	2e-05	1e-05	6e-05	0	-1e-05	-0.00015	-5e-05	1e-05	2
6315	2e-05	1e-05	6e-05	0	-1e-05	-0.00015	-5e-05	1e-05	2
6316	4e-05	1e-05	6e-05	9e-05	-2e-05	-5e-05	-0.00012	3e-05	2
6317	4e-05	1e-05	6e-05	9e-05	-2e-05	-5e-05	-0.00012	3e-05	2
6318	-3e-05	5e-05	3e-05	1e-05	-6e-05	-4e-05	1e-05	-2e-05	2
6319	-3e-05	5e-05	3e-05	1e-05	-6e-05	-4e-05	1e-05	-2e-05	2
6320	-3e-05	5e-05	3e-05	1e-05	-6e-05	-4e-05	1e-05	-2e-05	2
6321	-3e-05	5e-05	3e-05	1e-05	-6e-05	-4e-05	1e-05	-2e-05	2
6322	-3e-05	5e-05	3e-05	1e-05	-6e-05	-4e-05	1e-05	-2e-05	2
6323	-3e-05	5e-05	3e-05	1e-05	-6e-05	-4e-05	1e-05	-2e-05	2
6324	-3e-05	5e-05	3e-05	1e-05	-6e-05	-4e-05	1e-05	-2e-05	2
6325	-3e-05	5e-05	3e-05	1e-05	-6e-05	-4e-05	1e-05	-2e-05	2
6326	-3e-05	5e-05	3e-05	1e-05	-6e-05	-4e-05	1e-05	-2e-05	2
6327	-3e-05	5e-05	3e-05	1e-05	-6e-05	-4e-05	1e-05	-2e-05	2
6328	-3e-05	5e-05	3e-05	1e-05	-6e-05	-4e-05	1e-05	-2e-05	2
6329	-3e-05	5e-05	3e-05	1e-05	-6e-05	-4e-05	1e-05	-2e-05	2
6330	-3e-05	5e-05	3e-05	1e-05	-6e-05	-4e-05	1e-05	-2e-05	2
6331	-3e-05	5e-05	3e-05	1e-05	-6e-05	-4e-05	1e-05	-2e-05	2
6332	2e-05	-1e-05	-4e-05	-5e-05	1e-05	0.0001	9e-05	7e-05	2
6333	0	-3e-05	8e-05	0.00012	0.00018	-0.0001	-6e-05	-1e-05	2
6334	0	-3e-05	8e-05	0.00012	0.00018	-0.0001	-6e-05	-1e-05	2
6335	0	-3e-05	8e-05	0.00012	0.00018	-0.0001	-6e-05	-1e-05	2
6336	0	-3e-05	8e-05	0.00012	0.00018	-0.0001	-6e-05	-1e-05	2
6338	0	-3e-05	8e-05	0.00012	0.00018	-0.0001	-6e-05	-1e-05	2
6339	0	-3e-05	8e-05	0.00012	0.00018	-0.0001	-6e-05	-1e-05	2
6340	0	-3e-05	8e-05	0.00012	0.00018	-0.0001	-6e-05	-1e-05	2
6341	0	-3e-05	8e-05	0.00012	0.00018	-0.0001	-6e-05	-1e-05	2
6342	0	-3e-05	8e-05	0.00012	0.00018	-0.0001	-6e-05	-1e-05	2
6343	0	-3e-05	8e-05	0.00012	0.00018	-0.0001	-6e-05	-1e-05	2
6344	0	-3e-05	8e-05	0.00012	0.00018	-0.0001	-6e-05	-1e-05	2
6346	0	-3e-05	8e-05	0.00012	0.00018	-0.0001	-6e-05	-1e-05	2
6347	0	-3e-05	8e-05	0.00012	0.00018	-0.0001	-6e-05	-1e-05	2
6348	0	-3e-05	8e-05	0.00012	0.00018	-0.0001	-6e-05	-1e-05	2
6349	0	-3e-05	8e-05	0.00012	0.00018	-0.0001	-6e-05	-1e-05	2
6350	0	-3e-05	8e-05	0.00012	0.00018	-0.0001	-6e-05	-1e-05	2
6351	0	-3e-05	8e-05	0.00012	0.00018	-0.0001	-6e-05	-1e-05	2
6352	0	-3e-05	8e-05	0.00012	0.00018	-0.0001	-6e-05	-1e-05	2
6353	-3e-05	1e-05	1e-05	-6e-05	-3e-05	-2e-05	1e-05	-2e-05	2
6354	1e-05	0	0	5e-05	-4e-05	0.00019	0.00014	9e-05	2
6355	3e-05	2e-05	-1e-05	-4e-05	-2e-05	0.00027	0.00022	5e-05	2
6356	3e-05	2e-05	-1e-05	-4e-05	-2e-05	0.00027	0.00022	5e-05	2
6357	3e-05	2e-05	-1e-05	-4e-05	-2e-05	0.00027	0.00022	5e-05	2
6358	3e-05	2e-05	-1e-05	-4e-05	-2e-05	0.00027	0.00022	5e-05	2
6359	3e-05	2e-05	-1e-05	-4e-05	-2e-05	0.00027	0.00022	5e-05	2
6360	3e-05	2e-05	-1e-05	-4e-05	-2e-05	0.00027	0.00022	5e-05	2
6361	3e-05	2e-05	-1e-05	-4e-05	-2e-05	0.00027	0.00022	5e-05	2
6362	3e-05	2e-05	-1e-05	-4e-05	-2e-05	0.00027	0.00022	5e-05	2
6363	3e-05	2e-05	-1e-05	-4e-05	-2e-05	0.00027	0.00022	5e-05	2
6364	3e-05	2e-05	-1e-05	-4e-05	-2e-05	0.00027	0.00022	5e-05	2
6365	3e-05	2e-05	-1e-05	-4e-05	-2e-05	0.00027	0.00022	5e-05	2
6366	3e-05	2e-05	-1e-05	-4e-05	-2e-05	0.00027	0.00022	5e-05	2
6367	3e-05	2e-05	-1e-05	-4e-05	-2e-05	0.00027	0.00022	5e-05	2
6368	0	-1e-05	-8e-05	-2e-05	0	-6e-05	8e-05	5e-05	2
6369	0	-1e-05	-8e-05	-2e-05	0	-6e-05	8e-05	5e-05	2
6370	-6e-05	-0.00011	-8e-05	-6e-05	-4e-05	-0.00013	-0.00027	-2e-05	2
6371	-6e-05	-0.00011	-8e-05	-6e-05	-4e-05	-0.00013	-0.00027	-2e-05	2
6372	-6e-05	-0.00011	-8e-05	-6e-05	-4e-05	-0.00013	-0.00027	-2e-05	2
6373	-6e-05	-0.00011	-8e-05	-6e-05	-4e-05	-0.00013	-0.00027	-2e-05	2
6374	-6e-05	-0.00011	-8e-05	-6e-05	-4e-05	-0.00013	-0.00027	-2e-05	2
6375	-6e-05	-0.00011	-8e-05	-6e-05	-4e-05	-0.00013	-0.00027	-2e-05	2
6376	-6e-05	-0.00011	-8e-05	-6e-05	-4e-05	-0.00013	-0.00027	-2e-05	2
6377	-6e-05	-0.00011	-8e-05	-6e-05	-4e-05	-0.00013	-0.00027	-2e-05	2
6378	-6e-05	-0.00011	-8e-05	-6e-05	-4e-05	-0.00013	-0.00027	-2e-05	2
6379	-6e-05	-0.00011	-8e-05	-6e-05	-4e-05	-0.00013	-0.00027	-2e-05	2
6380	-6e-05	-0.00011	-8e-05	-6e-05	-4e-05	-0.00013	-0.00027	-2e-05	2
6381	-6e-05	-0.00011	-8e-05	-6e-05	-4e-05	-0.00013	-0.00027	-2e-05	2
6382	-6e-05	-0.00011	-8e-05	-6e-05	-4e-05	-0.00013	-0.00027	-2e-05	2
6383	-6e-05	-0.00011	-8e-05	-6e-05	-4e-05	-0.00013	-0.00027	-2e-05	2
6384	-6e-05	-0.00011	-8e-05	-6e-05	-4e-05	-0.00013	-0.00027	-2e-05	2
6385	-6e-05	-0.00011	-8e-05	-6e-05	-4e-05	-0.00013	-0.00027	-2e-05	2
6386	-6e-05	-0.00011	-8e-05	-6e-05	-4e-05	-0.00013	-0.00027	-2e-05	2
6388	-6e-05	-0.00011	-8e-05	-6e-05	-4e-05	-0.00013	-0.00027	-2e-05	2
6389	-6e-05	-0.00011	-8e-05	-6e-05	-4e-05	-0.00013	-0.00027	-2e-05	2
6390	-6e-05	-0.00011	-8e-05	-6e-05	-4e-05	-0.00013	-0.00027	-2e-05	2
6391	-6e-05	-0.00011	-8e-05	-6e-05	-4e-05	-0.00013	-0.00027	-2e-05	2
6392	-6e-05	-0.00011	-8e-05	-6e-05	-4e-05	-0.00013	-0.00027	-2e-05	2
6393	-6e-05	-0.00011	-8e-05	-6e-05	-4e-05	-0.00013	-0.00027	-2e-05	2
6394	-6e-05	-0.00011	-8e-05	-6e-05	-4e-05	-0.00013	-0.00027	-2e-05	2
6395	-6e-05	-0.00011	-8e-05	-6e-05	-4e-05	-0.00013	-0.00027	-2e-05	2
6396	-6e-05	-0.00011	-8e-05	-6e-05	-4e-05	-0.00013	-0.00027	-2e-05	2
6397	-6e-05	-0.00011	-8e-05	-6e-05	-4e-05	-0.00013	-0.00027	-2e-05	2
6398	-6e-05	-0.00011	-8e-05	-6e-05	-4e-05	-0.00013	-0.00027	-2e-05	2
6399	-2e-05	1e-05	-1e-05	-4e-05	1e-05	-4e-05	0	-4e-05	2
6400	1e-05	-1e-05	6e-05	1e-05	-4e-05	7e-05	-1e-05	4e-05	2
6401	-1e-05	-2e-05	-7e-05	-0.00012	-6e-05	-8e-05	-1e-05	0.00015	2
6402	-1e-05	-2e-05	-7e-05	-0.00012	-6e-05	-8e-05	-1e-05	0.00015	2
6403	-1e-05	-2e-05	-7e-05	-0.00012	-6e-05	-8e-05	-1e-05	0.00015	2
6404	-1e-05	-2e-05	-7e-05	-0.00012	-6e-05	-8e-05	-1e-05	0.00015	2
6405	-2e-05	-3e-05	-7e-05	-5e-05	-5e-05	-0.00012	4e-05	-3e-05	2
6406	-2e-05	-3e-05	-7e-05	-5e-05	-5e-05	-0.00012	4e-05	-3e-05	2
6407	-2e-05	-3e-05	-7e-05	-5e-05	-5e-05	-0.00012	4e-05	-3e-05	2
6408	-2e-05	-3e-05	-7e-05	-5e-05	-5e-05	-0.00012	4e-05	-3e-05	2
6409	-2e-05	-3e-05	-7e-05	-5e-05	-5e-05	-0.00012	4e-05	-3e-05	2
6410	-2e-05	-3e-05	-7e-05	-5e-05	-5e-05	-0.00012	4e-05	-3e-05	2
6411	-2e-05	-3e-05	-7e-05	-5e-05	-5e-05	-0.00012	4e-05	-3e-05	2
6412	-2e-05	-3e-05	-7e-05	-5e-05	-5e-05	-0.00012	4e-05	-3e-05	2
6413	-2e-05	-3e-05	-7e-05	-5e-05	-5e-05	-0.00012	4e-05	-3e-05	2
6414	-3e-05	-4e-05	-1e-05	-5e-05	-8e-05	-0.00012	-0.00022	-7e-05	2
6415	-3e-05	-4e-05	-1e-05	-5e-05	-8e-05	-0.00012	-0.00022	-7e-05	2
6416	-3e-05	-4e-05	-1e-05	-5e-05	-8e-05	-0.00012	-0.00022	-7e-05	2
6417	-3e-05	-4e-05	-1e-05	-5e-05	-8e-05	-0.00012	-0.00022	-7e-05	2
6418	-3e-05	-4e-05	-1e-05	-5e-05	-8e-05	-0.00012	-0.00022	-7e-05	2
6419	-3e-05	-4e-05	-1e-05	-5e-05	-8e-05	-0.00012	-0.00022	-7e-05	2
6420	-3e-05	-4e-05	-1e-05	-5e-05	-8e-05	-0.00012	-0.00022	-7e-05	2
6421	-3e-05	-4e-05	-1e-05	-5e-05	-8e-05	-0.00012	-0.00022	-7e-05	2
6422	-3e-05	-4e-05	-1e-05	-5e-05	-8e-05	-0.00012	-0.00022	-7e-05	2
6423	-3e-05	-4e-05	-1e-05	-5e-05	-8e-05	-0.00012	-0.00022	-7e-05	2
6424	-3e-05	-4e-05	-1e-05	-5e-05	-8e-05	-0.00012	-0.00022	-7e-05	2
6425	-3e-05	-4e-05	-1e-05	-5e-05	-8e-05	-0.00012	-0.00022	-7e-05	2
6426	-3e-05	-4e-05	-1e-05	-5e-05	-8e-05	-0.00012	-0.00022	-7e-05	2
6427	-3e-05	-4e-05	-1e-05	-5e-05	-8e-05	-0.00012	-0.00022	-7e-05	2
6428	-3e-05	-4e-05	-1e-05	-5e-05	-8e-05	-0.00012	-0.00022	-7e-05	2
6429	0	-3e-05	0.00011	0.00012	3e-05	-9e-05	-0.00019	-6e-05	2
6430	-1e-05	-9e-05	-4e-05	-3e-05	2e-05	0.00027	0.00016	-4e-05	2
6431	4e-05	8e-05	2e-05	-1e-05	-7e-05	-6e-05	7e-05	3e-05	2
6432	4e-05	8e-05	2e-05	-1e-05	-7e-05	-6e-05	7e-05	3e-05	2
6433	4e-05	8e-05	2e-05	-1e-05	-7e-05	-6e-05	7e-05	3e-05	2
6434	4e-05	8e-05	2e-05	-1e-05	-7e-05	-6e-05	7e-05	3e-05	2
6435	4e-05	8e-05	2e-05	-1e-05	-7e-05	-6e-05	7e-05	3e-05	2
6436	4e-05	8e-05	2e-05	-1e-05	-7e-05	-6e-05	7e-05	3e-05	2
6439	4e-05	8e-05	2e-05	-1e-05	-7e-05	-6e-05	7e-05	3e-05	2
6440	4e-05	8e-05	2e-05	-1e-05	-7e-05	-6e-05	7e-05	3e-05	2
6441	4e-05	8e-05	2e-05	-1e-05	-7e-05	-6e-05	7e-05	3e-05	2
6442	4e-05	8e-05	2e-05	-1e-05	-7e-05	-6e-05	7e-05	3e-05	2
6443	4e-05	8e-05	2e-05	-1e-05	-7e-05	-6e-05	7e-05	3e-05	2
6444	4e-05	8e-05	2e-05	-1e-05	-7e-05	-6e-05	7e-05	3e-05	2
6445	4e-05	8e-05	2e-05	-1e-05	-7e-05	-6e-05	7e-05	3e-05	2
6446	4e-05	8e-05	2e-05	-1e-05	-7e-05	-6e-05	7e-05	3e-05	2
6447	4e-05	8e-05	2e-05	-1e-05	-7e-05	-6e-05	7e-05	3e-05	2
6448	4e-05	8e-05	2e-05	-1e-05	-7e-05	-6e-05	7e-05	3e-05	2
6449	4e-05	8e-05	2e-05	-1e-05	-7e-05	-6e-05	7e-05	3e-05	2
6450	4e-05	8e-05	2e-05	-1e-05	-7e-05	-6e-05	7e-05	3e-05	2
6451	-3e-05	-1e-05	-8e-05	-7e-05	-2e-05	-5e-05	4e-05	-4e-05	2
6452	-3e-05	-1e-05	-8e-05	-7e-05	-2e-05	-5e-05	4e-05	-4e-05	2
6453	2e-05	-1e-05	3e-05	0.00011	8e-05	0.00014	0.00022	2e-05	2
6454	2e-05	-1e-05	3e-05	0.00011	8e-05	0.00014	0.00022	2e-05	2
6455	2e-05	-1e-05	3e-05	0.00011	8e-05	0.00014	0.00022	2e-05	2
6456	2e-05	-1e-05	3e-05	0.00011	8e-05	0.00014	0.00022	2e-05	2
6457	2e-05	-1e-05	3e-05	0.00011	8e-05	0.00014	0.00022	2e-05	2
6458	2e-05	-1e-05	3e-05	0.00011	8e-05	0.00014	0.00022	2e-05	2
6459	2e-05	-1e-05	3e-05	0.00011	8e-05	0.00014	0.00022	2e-05	2
6460	2e-05	-1e-05	3e-05	0.00011	8e-05	0.00014	0.00022	2e-05	2
6461	2e-05	-1e-05	3e-05	0.00011	8e-05	0.00014	0.00022	2e-05	2
6462	2e-05	-1e-05	3e-05	0.00011	8e-05	0.00014	0.00022	2e-05	2
6463	2e-05	-1e-05	3e-05	0.00011	8e-05	0.00014	0.00022	2e-05	2
6464	2e-05	-1e-05	3e-05	0.00011	8e-05	0.00014	0.00022	2e-05	2
6465	2e-05	-1e-05	3e-05	0.00011	8e-05	0.00014	0.00022	2e-05	2
6466	2e-05	-1e-05	3e-05	0.00011	8e-05	0.00014	0.00022	2e-05	2
6467	2e-05	-1e-05	3e-05	0.00011	8e-05	0.00014	0.00022	2e-05	2
6468	2e-05	-1e-05	3e-05	0.00011	8e-05	0.00014	0.00022	2e-05	2
6469	2e-05	-1e-05	3e-05	0.00011	8e-05	0.00014	0.00022	2e-05	2
6470	2e-05	-1e-05	3e-05	0.00011	8e-05	0.00014	0.00022	2e-05	2
6471	2e-05	-1e-05	3e-05	0.00011	8e-05	0.00014	0.00022	2e-05	2
6472	2e-05	-1e-05	3e-05	0.00011	8e-05	0.00014	0.00022	2e-05	2
6473	-2e-05	3e-05	-2e-05	-9e-05	-4e-05	-0.00012	-0.00011	-1e-05	2
6474	2e-05	3e-05	2e-05	1e-05	-3e-05	0.00019	0.00011	8e-05	2
6475	-4e-05	-3e-05	-0.0001	0	8e-05	4e-05	7e-05	-0.00017	2
6476	-4e-05	-3e-05	-0.0001	0	8e-05	4e-05	7e-05	-0.00017	2
6477	-4e-05	-3e-05	-0.0001	0	8e-05	4e-05	7e-05	-0.00017	2
6478	-4e-05	-3e-05	-0.0001	0	8e-05	4e-05	7e-05	-0.00017	2
6479	-4e-05	-3e-05	-0.0001	0	8e-05	4e-05	7e-05	-0.00017	2
6480	-4e-05	-3e-05	-0.0001	0	8e-05	4e-05	7e-05	-0.00017	2
6481	-4e-05	-3e-05	-0.0001	0	8e-05	4e-05	7e-05	-0.00017	2
6482	-4e-05	-3e-05	-0.0001	0	8e-05	4e-05	7e-05	-0.00017	2
6483	-4e-05	-3e-05	-0.0001	0	8e-05	4e-05	7e-05	-0.00017	2
6484	-4e-05	-3e-05	-0.0001	0	8e-05	4e-05	7e-05	-0.00017	2
6485	-4e-05	-3e-05	-0.0001	0	8e-05	4e-05	7e-05	-0.00017	2
6486	-4e-05	-3e-05	-0.0001	0	8e-05	4e-05	7e-05	-0.00017	2
6490	3e-05	1e-05	4e-05	9e-05	-2e-05	8e-05	-4e-05	4e-05	2
6491	3e-05	1e-05	4e-05	9e-05	-2e-05	8e-05	-4e-05	4e-05	2
6492	3e-05	1e-05	4e-05	9e-05	-2e-05	8e-05	-4e-05	4e-05	2
6493	3e-05	1e-05	4e-05	9e-05	-2e-05	8e-05	-4e-05	4e-05	2
6494	3e-05	1e-05	4e-05	9e-05	-2e-05	8e-05	-4e-05	4e-05	2
6495	3e-05	1e-05	4e-05	9e-05	-2e-05	8e-05	-4e-05	4e-05	2
6496	3e-05	1e-05	4e-05	9e-05	-2e-05	8e-05	-4e-05	4e-05	2
6497	3e-05	1e-05	4e-05	9e-05	-2e-05	8e-05	-4e-05	4e-05	2
6498	3e-05	1e-05	4e-05	9e-05	-2e-05	8e-05	-4e-05	4e-05	2
6499	3e-05	1e-05	4e-05	9e-05	-2e-05	8e-05	-4e-05	4e-05	2
6500	3e-05	1e-05	4e-05	9e-05	-2e-05	8e-05	-4e-05	4e-05	2
6501	3e-05	1e-05	4e-05	9e-05	-2e-05	8e-05	-4e-05	4e-05	2
6502	3e-05	1e-05	4e-05	9e-05	-2e-05	8e-05	-4e-05	4e-05	2
6503	3e-05	1e-05	4e-05	9e-05	-2e-05	8e-05	-4e-05	4e-05	2
6504	3e-05	1e-05	4e-05	9e-05	-2e-05	8e-05	-4e-05	4e-05	2
6505	3e-05	1e-05	4e-05	9e-05	-2e-05	8e-05	-4e-05	4e-05	2
6506	3e-05	1e-05	4e-05	9e-05	-2e-05	8e-05	-4e-05	4e-05	2
6507	3e-05	1e-05	4e-05	9e-05	-2e-05	8e-05	-4e-05	4e-05	2
6508	3e-05	1e-05	4e-05	9e-05	-2e-05	8e-05	-4e-05	4e-05	2
6509	3e-05	1e-05	4e-05	9e-05	-2e-05	8e-05	-4e-05	4e-05	2
6510	3e-05	1e-05	4e-05	9e-05	-2e-05	8e-05	-4e-05	4e-05	2
6511	-1e-05	-3e-05	2e-05	1e-05	-8e-05	-0.00012	-7e-05	-5e-05	2
6512	-1e-05	-3e-05	2e-05	1e-05	-8e-05	-0.00012	-7e-05	-5e-05	2
6513	-2e-05	-2e-05	-7e-05	-0.00015	-7e-05	4e-05	6e-05	3e-05	2
6514	-2e-05	-2e-05	-7e-05	-0.00015	-7e-05	4e-05	6e-05	3e-05	2
6515	-2e-05	-2e-05	-7e-05	-0.00015	-7e-05	4e-05	6e-05	3e-05	2
6516	-2e-05	-2e-05	-7e-05	-0.00015	-7e-05	4e-05	6e-05	3e-05	2
6517	-2e-05	-2e-05	-7e-05	-0.00015	-7e-05	4e-05	6e-05	3e-05	2
6518	-2e-05	-2e-05	-7e-05	-0.00015	-7e-05	4e-05	6e-05	3e-05	2
6519	-2e-05	-2e-05	-7e-05	-0.00015	-7e-05	4e-05	6e-05	3e-05	2
6520	-2e-05	-2e-05	-7e-05	-0.00015	-7e-05	4e-05	6e-05	3e-05	2
6521	-2e-05	-2e-05	-7e-05	-0.00015	-7e-05	4e-05	6e-05	3e-05	2
6522	-2e-05	-2e-05	-7e-05	-0.00015	-7e-05	4e-05	6e-05	3e-05	2
6523	-2e-05	-2e-05	-7e-05	-0.00015	-7e-05	4e-05	6e-05	3e-05	2
6524	-2e-05	-2e-05	-7e-05	-0.00015	-7e-05	4e-05	6e-05	3e-05	2
6525	-2e-05	-2e-05	-7e-05	-0.00015	-7e-05	4e-05	6e-05	3e-05	2
6526	-2e-05	-2e-05	-7e-05	-0.00015	-7e-05	4e-05	6e-05	3e-05	2
6527	-2e-05	-2e-05	-7e-05	-0.00015	-7e-05	4e-05	6e-05	3e-05	2
6528	-2e-05	-2e-05	-7e-05	-0.00015	-7e-05	4e-05	6e-05	3e-05	2
6529	-2e-05	-2e-05	-7e-05	-0.00015	-7e-05	4e-05	6e-05	3e-05	2
6530	-2e-05	-2e-05	-7e-05	-0.00015	-7e-05	4e-05	6e-05	3e-05	2
6531	-2e-05	-2e-05	-7e-05	-0.00015	-7e-05	4e-05	6e-05	3e-05	2
6532	-2e-05	-2e-05	-7e-05	-0.00015	-7e-05	4e-05	6e-05	3e-05	2
6533	4e-05	-2e-05	-9e-05	-7e-05	-5e-05	0.0002	5e-05	6e-05	2
6534	4e-05	-2e-05	-9e-05	-7e-05	-5e-05	0.0002	5e-05	6e-05	2
6535	-3e-05	-6e-05	-0.00011	-3e-05	-1e-05	-9e-05	-2e-05	0	2
6536	-3e-05	-6e-05	-0.00011	-3e-05	-1e-05	-9e-05	-2e-05	0	2
6538	-3e-05	-6e-05	-0.00011	-3e-05	-1e-05	-9e-05	-2e-05	0	2
6540	-3e-05	-6e-05	-0.00011	-3e-05	-1e-05	-9e-05	-2e-05	0	2
6541	-3e-05	-6e-05	-0.00011	-3e-05	-1e-05	-9e-05	-2e-05	0	2
6542	-3e-05	-6e-05	-0.00011	-3e-05	-1e-05	-9e-05	-2e-05	0	2
6543	-3e-05	-6e-05	-0.00011	-3e-05	-1e-05	-9e-05	-2e-05	0	2
6544	-3e-05	-6e-05	-0.00011	-3e-05	-1e-05	-9e-05	-2e-05	0	2
6545	-3e-05	-6e-05	-0.00011	-3e-05	-1e-05	-9e-05	-2e-05	0	2
6546	-3e-05	-6e-05	-0.00011	-3e-05	-1e-05	-9e-05	-2e-05	0	2
6547	-3e-05	-6e-05	-0.00011	-3e-05	-1e-05	-9e-05	-2e-05	0	2
6548	-3e-05	-6e-05	-0.00011	-3e-05	-1e-05	-9e-05	-2e-05	0	2
6549	-4e-05	2e-05	-2e-05	-3e-05	4e-05	0.00026	0.00016	-5e-05	2
6550	-4e-05	2e-05	-2e-05	-3e-05	4e-05	0.00026	0.00016	-5e-05	2
6551	-4e-05	2e-05	-2e-05	-3e-05	4e-05	0.00026	0.00016	-5e-05	2
6552	-4e-05	2e-05	-2e-05	-3e-05	4e-05	0.00026	0.00016	-5e-05	2
6553	-4e-05	2e-05	-2e-05	-3e-05	4e-05	0.00026	0.00016	-5e-05	2
6554	-4e-05	2e-05	-2e-05	-3e-05	4e-05	0.00026	0.00016	-5e-05	2
6555	2e-05	0	3e-05	2e-05	-6e-05	4e-05	8e-05	0	2
6556	2e-05	0	3e-05	2e-05	-6e-05	4e-05	8e-05	0	2
6557	2e-05	0	3e-05	2e-05	-6e-05	4e-05	8e-05	0	2
6558	2e-05	0	3e-05	2e-05	-6e-05	4e-05	8e-05	0	2
6559	2e-05	0	3e-05	2e-05	-6e-05	4e-05	8e-05	0	2
6560	2e-05	0	3e-05	2e-05	-6e-05	4e-05	8e-05	0	2
6561	2e-05	0	3e-05	2e-05	-6e-05	4e-05	8e-05	0	2
6562	2e-05	0	3e-05	2e-05	-6e-05	4e-05	8e-05	0	2
6563	2e-05	0	3e-05	2e-05	-6e-05	4e-05	8e-05	0	2
6564	2e-05	0	3e-05	2e-05	-6e-05	4e-05	8e-05	0	2
6565	2e-05	0	3e-05	2e-05	-6e-05	4e-05	8e-05	0	2
6566	2e-05	0	3e-05	2e-05	-6e-05	4e-05	8e-05	0	2
6567	2e-05	0	3e-05	2e-05	-6e-05	4e-05	8e-05	0	2
6568	2e-05	0	3e-05	2e-05	-6e-05	4e-05	8e-05	0	2
6569	2e-05	0	3e-05	2e-05	-6e-05	4e-05	8e-05	0	2
6570	2e-05	0	3e-05	2e-05	-6e-05	4e-05	8e-05	0	2
6571	-5e-05	-6e-05	-0.0001	-8e-05	-6e-05	-0.00014	-0.0001	-0.00011	2
6572	-5e-05	-6e-05	-0.0001	-8e-05	-6e-05	-0.00014	-0.0001	-0.00011	2
6573	4e-05	7e-05	7e-05	0.0001	1e-05	-0.00013	-0.00025	0	2
6574	4e-05	7e-05	7e-05	0.0001	1e-05	-0.00013	-0.00025	0	2
6575	4e-05	7e-05	7e-05	0.0001	1e-05	-0.00013	-0.00025	0	2
6576	4e-05	7e-05	7e-05	0.0001	1e-05	-0.00013	-0.00025	0	2
6577	4e-05	7e-05	7e-05	0.0001	1e-05	-0.00013	-0.00025	0	2
6578	4e-05	7e-05	7e-05	0.0001	1e-05	-0.00013	-0.00025	0	2
6579	4e-05	7e-05	7e-05	0.0001	1e-05	-0.00013	-0.00025	0	2
6580	4e-05	7e-05	7e-05	0.0001	1e-05	-0.00013	-0.00025	0	2
6581	4e-05	7e-05	7e-05	0.0001	1e-05	-0.00013	-0.00025	0	2
6582	4e-05	7e-05	7e-05	0.0001	1e-05	-0.00013	-0.00025	0	2
6583	4e-05	7e-05	7e-05	0.0001	1e-05	-0.00013	-0.00025	0	2
6584	4e-05	7e-05	7e-05	0.0001	1e-05	-0.00013	-0.00025	0	2
6585	4e-05	7e-05	7e-05	0.0001	1e-05	-0.00013	-0.00025	0	2
6586	4e-05	7e-05	7e-05	0.0001	1e-05	-0.00013	-0.00025	0	2
36305	5e-05	5e-05	7e-05	0.00034	0.00059	-0.00016	-2e-05	6e-05	2
36306	5e-05	5e-05	7e-05	0.00034	0.00059	-0.00016	-2e-05	6e-05	2
36307	5e-05	5e-05	7e-05	0.00034	0.00059	-0.00016	-2e-05	6e-05	2
36308	5e-05	5e-05	7e-05	0.00034	0.00059	-0.00016	-2e-05	6e-05	2
36309	-7e-05	-3e-05	1e-05	-7e-05	-8e-05	-0.00012	-0.00013	-2e-05	2
36310	-7e-05	-3e-05	1e-05	-7e-05	-8e-05	-0.00012	-0.00013	-2e-05	2
36311	-2e-05	-4e-05	1e-05	0.00011	-0.00012	9e-05	0.00014	0.0001	2
36312	-2e-05	-4e-05	1e-05	0.00011	-0.00012	9e-05	0.00014	0.0001	2
36313	-2e-05	-4e-05	1e-05	0.00011	-0.00012	9e-05	0.00014	0.0001	2
36314	-2e-05	-4e-05	1e-05	0.00011	-0.00012	9e-05	0.00014	0.0001	2
36315	-2e-05	-4e-05	1e-05	0.00011	-0.00012	9e-05	0.00014	0.0001	2
36316	-2e-05	-4e-05	1e-05	0.00011	-0.00012	9e-05	0.00014	0.0001	2
36317	-2e-05	-4e-05	1e-05	0.00011	-0.00012	9e-05	0.00014	0.0001	2
36318	-2e-05	-4e-05	1e-05	0.00011	-0.00012	9e-05	0.00014	0.0001	2
36319	-2e-05	-4e-05	1e-05	0.00011	-0.00012	9e-05	0.00014	0.0001	2
36320	-2e-05	-4e-05	1e-05	0.00011	-0.00012	9e-05	0.00014	0.0001	2
36321	-2e-05	-4e-05	1e-05	0.00011	-0.00012	9e-05	0.00014	0.0001	2
36322	-2e-05	-4e-05	1e-05	0.00011	-0.00012	9e-05	0.00014	0.0001	2
36323	-2e-05	-4e-05	1e-05	0.00011	-0.00012	9e-05	0.00014	0.0001	2
36324	-2e-05	-4e-05	1e-05	0.00011	-0.00012	9e-05	0.00014	0.0001	2
36325	-2e-05	-4e-05	1e-05	0.00011	-0.00012	9e-05	0.00014	0.0001	2
36326	-2e-05	-4e-05	1e-05	0.00011	-0.00012	9e-05	0.00014	0.0001	2
36327	-2e-05	-4e-05	1e-05	0.00011	-0.00012	9e-05	0.00014	0.0001	2
36328	-2e-05	-4e-05	1e-05	0.00011	-0.00012	9e-05	0.00014	0.0001	2
36329	-2e-05	-4e-05	1e-05	0.00011	-0.00012	9e-05	0.00014	0.0001	2
36330	-2e-05	-4e-05	1e-05	0.00011	-0.00012	9e-05	0.00014	0.0001	2
36331	-2e-05	-4e-05	1e-05	0.00011	-0.00012	9e-05	0.00014	0.0001	2
36332	0	4e-05	0.00011	0.00017	8e-05	0.00018	-0.00015	0	2
36333	1e-05	-5e-05	-1e-05	-3e-05	-3e-05	0	0.00013	8e-05	2
36334	1e-05	-5e-05	-1e-05	-3e-05	-3e-05	0	0.00013	8e-05	2
36335	1e-05	-5e-05	-1e-05	-3e-05	-3e-05	0	0.00013	8e-05	2
36336	1e-05	-5e-05	-1e-05	-3e-05	-3e-05	0	0.00013	8e-05	2
36338	1e-05	-5e-05	-1e-05	-3e-05	-3e-05	0	0.00013	8e-05	2
36339	1e-05	-5e-05	-1e-05	-3e-05	-3e-05	0	0.00013	8e-05	2
36340	1e-05	-5e-05	-1e-05	-3e-05	-3e-05	0	0.00013	8e-05	2
36341	1e-05	-5e-05	-1e-05	-3e-05	-3e-05	0	0.00013	8e-05	2
36342	1e-05	-5e-05	-1e-05	-3e-05	-3e-05	0	0.00013	8e-05	2
36343	1e-05	-5e-05	-1e-05	-3e-05	-3e-05	0	0.00013	8e-05	2
36344	1e-05	-5e-05	-1e-05	-3e-05	-3e-05	0	0.00013	8e-05	2
36345	1e-05	-5e-05	-1e-05	-3e-05	-3e-05	0	0.00013	8e-05	2
36346	-3e-05	-2e-05	0	3e-05	-7e-05	-0.00028	-0.0003	-0.00015	2
36347	-3e-05	-2e-05	0	3e-05	-7e-05	-0.00028	-0.0003	-0.00015	2
36348	-3e-05	-2e-05	0	3e-05	-7e-05	-0.00028	-0.0003	-0.00015	2
36349	-3e-05	-2e-05	0	3e-05	-7e-05	-0.00028	-0.0003	-0.00015	2
36350	-3e-05	-2e-05	0	3e-05	-7e-05	-0.00028	-0.0003	-0.00015	2
36351	-3e-05	-2e-05	0	3e-05	-7e-05	-0.00028	-0.0003	-0.00015	2
36352	-3e-05	-2e-05	0	3e-05	-7e-05	-0.00028	-0.0003	-0.00015	2
36353	6e-05	0.00011	0.00014	9e-05	9e-05	0.00018	-6e-05	0.00017	2
36354	6e-05	0.00011	0.00014	9e-05	9e-05	0.00018	-6e-05	0.00017	2
36355	6e-05	0.00011	0.00014	9e-05	9e-05	0.00018	-6e-05	0.00017	2
36356	6e-05	0.00011	0.00014	9e-05	9e-05	0.00018	-6e-05	0.00017	2
36357	6e-05	0.00011	0.00014	9e-05	9e-05	0.00018	-6e-05	0.00017	2
36358	6e-05	0.00011	0.00014	9e-05	9e-05	0.00018	-6e-05	0.00017	2
36359	6e-05	0.00011	0.00014	9e-05	9e-05	0.00018	-6e-05	0.00017	2
36360	6e-05	0.00011	0.00014	9e-05	9e-05	0.00018	-6e-05	0.00017	2
36361	6e-05	0.00011	0.00014	9e-05	9e-05	0.00018	-6e-05	0.00017	2
36362	6e-05	0.00011	0.00014	9e-05	9e-05	0.00018	-6e-05	0.00017	2
36363	6e-05	0.00011	0.00014	9e-05	9e-05	0.00018	-6e-05	0.00017	2
36364	6e-05	0.00011	0.00014	9e-05	9e-05	0.00018	-6e-05	0.00017	2
36365	6e-05	0.00011	0.00014	9e-05	9e-05	0.00018	-6e-05	0.00017	2
36366	6e-05	0.00011	0.00014	9e-05	9e-05	0.00018	-6e-05	0.00017	2
36367	6e-05	0.00011	0.00014	9e-05	9e-05	0.00018	-6e-05	0.00017	2
36368	6e-05	0.00011	0.00014	9e-05	9e-05	0.00018	-6e-05	0.00017	2
36369	6e-05	0.00011	0.00014	9e-05	9e-05	0.00018	-6e-05	0.00017	2
36370	-3e-05	0	-4e-05	-7e-05	-0.00013	-1e-05	0.00028	5e-05	2
36371	-5e-05	-3e-05	0.00017	5e-05	-0.00021	4e-05	0.00034	-0.00023	2
36372	-5e-05	-3e-05	0.00017	5e-05	-0.00021	4e-05	0.00034	-0.00023	2
36373	-5e-05	-3e-05	0.00017	5e-05	-0.00021	4e-05	0.00034	-0.00023	2
36374	-5e-05	-3e-05	0.00017	5e-05	-0.00021	4e-05	0.00034	-0.00023	2
36375	-5e-05	-3e-05	0.00017	5e-05	-0.00021	4e-05	0.00034	-0.00023	2
36376	-5e-05	-3e-05	0.00017	5e-05	-0.00021	4e-05	0.00034	-0.00023	2
36377	-5e-05	-3e-05	0.00017	5e-05	-0.00021	4e-05	0.00034	-0.00023	2
36378	-5e-05	-3e-05	0.00017	5e-05	-0.00021	4e-05	0.00034	-0.00023	2
36379	-5e-05	-3e-05	0.00017	5e-05	-0.00021	4e-05	0.00034	-0.00023	2
36380	-5e-05	-3e-05	0.00017	5e-05	-0.00021	4e-05	0.00034	-0.00023	2
36381	-5e-05	-3e-05	0.00017	5e-05	-0.00021	4e-05	0.00034	-0.00023	2
36382	-5e-05	-3e-05	0.00017	5e-05	-0.00021	4e-05	0.00034	-0.00023	2
36383	-5e-05	-3e-05	0.00017	5e-05	-0.00021	4e-05	0.00034	-0.00023	2
36384	-5e-05	-3e-05	0.00017	5e-05	-0.00021	4e-05	0.00034	-0.00023	2
36385	-5e-05	-3e-05	0.00017	5e-05	-0.00021	4e-05	0.00034	-0.00023	2
36386	-5e-05	-3e-05	0.00017	5e-05	-0.00021	4e-05	0.00034	-0.00023	2
36388	-5e-05	-3e-05	0.00017	5e-05	-0.00021	4e-05	0.00034	-0.00023	2
36389	-5e-05	-3e-05	0.00017	5e-05	-0.00021	4e-05	0.00034	-0.00023	2
36390	-5e-05	-3e-05	0.00017	5e-05	-0.00021	4e-05	0.00034	-0.00023	2
36391	-5e-05	-3e-05	0.00017	5e-05	-0.00021	4e-05	0.00034	-0.00023	2
36392	-5e-05	-3e-05	0.00017	5e-05	-0.00021	4e-05	0.00034	-0.00023	2
36393	-5e-05	-3e-05	0.00017	5e-05	-0.00021	4e-05	0.00034	-0.00023	2
36394	-5e-05	-3e-05	0.00017	5e-05	-0.00021	4e-05	0.00034	-0.00023	2
36395	-5e-05	-3e-05	0.00017	5e-05	-0.00021	4e-05	0.00034	-0.00023	2
36396	-5e-05	-3e-05	0.00017	5e-05	-0.00021	4e-05	0.00034	-0.00023	2
36397	-5e-05	-3e-05	0.00017	5e-05	-0.00021	4e-05	0.00034	-0.00023	2
36398	-5e-05	-3e-05	0.00017	5e-05	-0.00021	4e-05	0.00034	-0.00023	2
36399	-5e-05	-3e-05	0.00017	5e-05	-0.00021	4e-05	0.00034	-0.00023	2
36400	-5e-05	-3e-05	0.00017	5e-05	-0.00021	4e-05	0.00034	-0.00023	2
36401	-5e-05	-3e-05	0.00017	5e-05	-0.00021	4e-05	0.00034	-0.00023	2
36402	-5e-05	-3e-05	0.00017	5e-05	-0.00021	4e-05	0.00034	-0.00023	2
36403	-5e-05	-3e-05	0.00017	5e-05	-0.00021	4e-05	0.00034	-0.00023	2
36404	-5e-05	-3e-05	0.00017	5e-05	-0.00021	4e-05	0.00034	-0.00023	2
36405	-5e-05	-3e-05	0.00017	5e-05	-0.00021	4e-05	0.00034	-0.00023	2
36406	-5e-05	-3e-05	0.00017	5e-05	-0.00021	4e-05	0.00034	-0.00023	2
36407	-5e-05	-3e-05	0.00017	5e-05	-0.00021	4e-05	0.00034	-0.00023	2
36408	3e-05	0	-9e-05	0.0003	0.00029	0.00014	-0.00034	-6e-05	2
36409	-4e-05	-2e-05	-0.00012	-0.00014	-0.00028	-0.00026	-0.00011	-0.00011	2
36410	-4e-05	-2e-05	-0.00012	-0.00014	-0.00028	-0.00026	-0.00011	-0.00011	2
36411	-4e-05	-2e-05	-0.00012	-0.00014	-0.00028	-0.00026	-0.00011	-0.00011	2
36412	-4e-05	-2e-05	-0.00012	-0.00014	-0.00028	-0.00026	-0.00011	-0.00011	2
36413	-4e-05	-2e-05	-0.00012	-0.00014	-0.00028	-0.00026	-0.00011	-0.00011	2
36414	1e-05	-6e-05	-1e-05	0.00024	0.00037	-0.0002	0.00031	0	2
36415	1e-05	-6e-05	-1e-05	0.00024	0.00037	-0.0002	0.00031	0	2
36416	-1e-05	2e-05	-4e-05	-0.0001	-0.00021	-0.00038	-0.00029	-5e-05	2
36417	-1e-05	2e-05	-4e-05	-0.0001	-0.00021	-0.00038	-0.00029	-5e-05	2
36418	-1e-05	2e-05	-4e-05	-0.0001	-0.00021	-0.00038	-0.00029	-5e-05	2
36419	-1e-05	2e-05	-4e-05	-0.0001	-0.00021	-0.00038	-0.00029	-5e-05	2
36420	-1e-05	2e-05	-4e-05	-0.0001	-0.00021	-0.00038	-0.00029	-5e-05	2
36421	-1e-05	2e-05	-4e-05	-0.0001	-0.00021	-0.00038	-0.00029	-5e-05	2
36422	-1e-05	2e-05	-4e-05	-0.0001	-0.00021	-0.00038	-0.00029	-5e-05	2
36423	-1e-05	2e-05	-4e-05	-0.0001	-0.00021	-0.00038	-0.00029	-5e-05	2
36424	-1e-05	2e-05	-4e-05	-0.0001	-0.00021	-0.00038	-0.00029	-5e-05	2
36425	-1e-05	2e-05	-4e-05	-0.0001	-0.00021	-0.00038	-0.00029	-5e-05	2
36426	-1e-05	2e-05	-4e-05	-0.0001	-0.00021	-0.00038	-0.00029	-5e-05	2
36427	-1e-05	2e-05	-4e-05	-0.0001	-0.00021	-0.00038	-0.00029	-5e-05	2
36428	-1e-05	2e-05	-4e-05	-0.0001	-0.00021	-0.00038	-0.00029	-5e-05	2
36429	2e-05	2e-05	4e-05	-1e-05	0	-0.00018	-0.00024	-5e-05	2
36430	2e-05	2e-05	4e-05	-1e-05	0	-0.00018	-0.00024	-5e-05	2
36431	2e-05	2e-05	4e-05	-1e-05	0	-0.00018	-0.00024	-5e-05	2
36432	2e-05	2e-05	4e-05	-1e-05	0	-0.00018	-0.00024	-5e-05	2
36433	2e-05	2e-05	4e-05	-1e-05	0	-0.00018	-0.00024	-5e-05	2
36434	2e-05	2e-05	4e-05	-1e-05	0	-0.00018	-0.00024	-5e-05	2
36435	3e-05	5e-05	2e-05	3e-05	-7e-05	0.00044	0.00023	-2e-05	2
36436	-8e-05	-6e-05	2e-05	3e-05	0.00015	5e-05	-0.00014	-0.00018	2
36439	-8e-05	-6e-05	2e-05	3e-05	0.00015	5e-05	-0.00014	-0.00018	2
36440	-8e-05	-6e-05	2e-05	3e-05	0.00015	5e-05	-0.00014	-0.00018	2
36441	-8e-05	-6e-05	2e-05	3e-05	0.00015	5e-05	-0.00014	-0.00018	2
36442	-8e-05	-6e-05	2e-05	3e-05	0.00015	5e-05	-0.00014	-0.00018	2
36443	-8e-05	-6e-05	2e-05	3e-05	0.00015	5e-05	-0.00014	-0.00018	2
36444	-8e-05	-6e-05	2e-05	3e-05	0.00015	5e-05	-0.00014	-0.00018	2
36445	-8e-05	-6e-05	2e-05	3e-05	0.00015	5e-05	-0.00014	-0.00018	2
36446	-8e-05	-6e-05	2e-05	3e-05	0.00015	5e-05	-0.00014	-0.00018	2
36447	-8e-05	-6e-05	2e-05	3e-05	0.00015	5e-05	-0.00014	-0.00018	2
36448	-8e-05	-6e-05	2e-05	3e-05	0.00015	5e-05	-0.00014	-0.00018	2
36449	-8e-05	-6e-05	2e-05	3e-05	0.00015	5e-05	-0.00014	-0.00018	2
36450	-8e-05	-6e-05	2e-05	3e-05	0.00015	5e-05	-0.00014	-0.00018	2
36451	-8e-05	-6e-05	2e-05	3e-05	0.00015	5e-05	-0.00014	-0.00018	2
36452	-0.00016	-7e-05	-0.00014	-0.0003	-0.0003	-0.00031	6e-05	-0.00014	2
36453	-8e-05	-2e-05	-9e-05	-2e-05	-7e-05	-0.00011	-0.00024	-0.00026	2
36454	-8e-05	-2e-05	-9e-05	-2e-05	-7e-05	-0.00011	-0.00024	-0.00026	2
36455	-8e-05	-2e-05	-9e-05	-2e-05	-7e-05	-0.00011	-0.00024	-0.00026	2
36456	-8e-05	-2e-05	-9e-05	-2e-05	-7e-05	-0.00011	-0.00024	-0.00026	2
36457	-8e-05	-2e-05	-9e-05	-2e-05	-7e-05	-0.00011	-0.00024	-0.00026	2
36458	-8e-05	-2e-05	-9e-05	-2e-05	-7e-05	-0.00011	-0.00024	-0.00026	2
36459	-8e-05	-2e-05	-9e-05	-2e-05	-7e-05	-0.00011	-0.00024	-0.00026	2
36460	-8e-05	-2e-05	-9e-05	-2e-05	-7e-05	-0.00011	-0.00024	-0.00026	2
36461	-8e-05	-2e-05	-9e-05	-2e-05	-7e-05	-0.00011	-0.00024	-0.00026	2
36462	-8e-05	-2e-05	-9e-05	-2e-05	-7e-05	-0.00011	-0.00024	-0.00026	2
36463	-8e-05	-2e-05	-9e-05	-2e-05	-7e-05	-0.00011	-0.00024	-0.00026	2
36464	-8e-05	-2e-05	-9e-05	-2e-05	-7e-05	-0.00011	-0.00024	-0.00026	2
36465	2e-05	6e-05	0.00017	0.00015	9e-05	9e-05	3e-05	2e-05	2
36466	2e-05	6e-05	0.00017	0.00015	9e-05	9e-05	3e-05	2e-05	2
36467	2e-05	6e-05	0.00017	0.00015	9e-05	9e-05	3e-05	2e-05	2
36468	2e-05	6e-05	0.00017	0.00015	9e-05	9e-05	3e-05	2e-05	2
36469	2e-05	6e-05	0.00017	0.00015	9e-05	9e-05	3e-05	2e-05	2
36470	2e-05	6e-05	0.00017	0.00015	9e-05	9e-05	3e-05	2e-05	2
36471	2e-05	6e-05	0.00017	0.00015	9e-05	9e-05	3e-05	2e-05	2
36472	2e-05	6e-05	0.00017	0.00015	9e-05	9e-05	3e-05	2e-05	2
36473	2e-05	6e-05	0.00017	0.00015	9e-05	9e-05	3e-05	2e-05	2
36474	-8e-05	-9e-05	-0.00021	-7e-05	0.00013	-0.00012	1e-05	-0.00021	2
36475	-8e-05	-9e-05	-0.00021	-7e-05	0.00013	-0.00012	1e-05	-0.00021	2
36476	-8e-05	-9e-05	-0.00021	-7e-05	0.00013	-0.00012	1e-05	-0.00021	2
36477	-8e-05	-9e-05	-0.00021	-7e-05	0.00013	-0.00012	1e-05	-0.00021	2
36478	-8e-05	-9e-05	-0.00021	-7e-05	0.00013	-0.00012	1e-05	-0.00021	2
36479	-8e-05	-9e-05	-0.00021	-7e-05	0.00013	-0.00012	1e-05	-0.00021	2
36480	-8e-05	-9e-05	-0.00021	-7e-05	0.00013	-0.00012	1e-05	-0.00021	2
36481	-8e-05	-9e-05	-0.00021	-7e-05	0.00013	-0.00012	1e-05	-0.00021	2
36482	-8e-05	-9e-05	-0.00021	-7e-05	0.00013	-0.00012	1e-05	-0.00021	2
36483	-8e-05	-9e-05	-0.00021	-7e-05	0.00013	-0.00012	1e-05	-0.00021	2
36484	-8e-05	-9e-05	-0.00021	-7e-05	0.00013	-0.00012	1e-05	-0.00021	2
36485	-8e-05	-9e-05	-0.00021	-7e-05	0.00013	-0.00012	1e-05	-0.00021	2
36486	-8e-05	-9e-05	-0.00021	-7e-05	0.00013	-0.00012	1e-05	-0.00021	2
36488	-8e-05	-9e-05	-0.00021	-7e-05	0.00013	-0.00012	1e-05	-0.00021	2
36490	-5e-05	-2e-05	2e-05	-4e-05	-0.00023	-0.00047	-3e-05	-0.00024	2
36491	1e-05	4e-05	2e-05	-0.00028	-0.00015	-0.00021	8e-05	-3e-05	2
36492	1e-05	4e-05	2e-05	-0.00028	-0.00015	-0.00021	8e-05	-3e-05	2
36493	1e-05	4e-05	2e-05	-0.00028	-0.00015	-0.00021	8e-05	-3e-05	2
36494	1e-05	4e-05	2e-05	-0.00028	-0.00015	-0.00021	8e-05	-3e-05	2
36495	1e-05	4e-05	2e-05	-0.00028	-0.00015	-0.00021	8e-05	-3e-05	2
36496	1e-05	4e-05	2e-05	-0.00028	-0.00015	-0.00021	8e-05	-3e-05	2
36497	1e-05	4e-05	2e-05	-0.00028	-0.00015	-0.00021	8e-05	-3e-05	2
36498	1e-05	4e-05	2e-05	-0.00028	-0.00015	-0.00021	8e-05	-3e-05	2
36499	1e-05	4e-05	2e-05	-0.00028	-0.00015	-0.00021	8e-05	-3e-05	2
36500	1e-05	4e-05	2e-05	-0.00028	-0.00015	-0.00021	8e-05	-3e-05	2
36501	1e-05	4e-05	2e-05	-0.00028	-0.00015	-0.00021	8e-05	-3e-05	2
36503	1e-05	4e-05	2e-05	-0.00028	-0.00015	-0.00021	8e-05	-3e-05	2
36504	1e-05	4e-05	2e-05	-0.00028	-0.00015	-0.00021	8e-05	-3e-05	2
36505	1e-05	4e-05	2e-05	-0.00028	-0.00015	-0.00021	8e-05	-3e-05	2
36506	1e-05	4e-05	2e-05	-0.00028	-0.00015	-0.00021	8e-05	-3e-05	2
36507	1e-05	4e-05	2e-05	-0.00028	-0.00015	-0.00021	8e-05	-3e-05	2
36508	1e-05	4e-05	2e-05	-0.00028	-0.00015	-0.00021	8e-05	-3e-05	2
36509	1e-05	4e-05	2e-05	-0.00028	-0.00015	-0.00021	8e-05	-3e-05	2
36510	1e-05	4e-05	2e-05	-0.00028	-0.00015	-0.00021	8e-05	-3e-05	2
36511	1e-05	4e-05	2e-05	-0.00028	-0.00015	-0.00021	8e-05	-3e-05	2
36512	2e-05	0	6e-05	-6e-05	-0.00018	5e-05	-0.00013	-5e-05	2
36513	2e-05	0	4e-05	0.00041	0.00059	0.00022	3e-05	0.00012	2
36514	2e-05	0	4e-05	0.00041	0.00059	0.00022	3e-05	0.00012	2
