12166	-2e-05	4e-05	4e-05	3e-05	6e-05	7e-05	-1e-05	-0.00021	3
12167	0.0001	7e-05	2e-05	-1e-05	0	-5e-05	2e-05	0.00012	3
12169	0.0001	7e-05	2e-05	-1e-05	0	-5e-05	2e-05	0.00012	3
12170	0.0001	7e-05	2e-05	-1e-05	0	-5e-05	2e-05	0.00012	3
12171	0.0001	7e-05	2e-05	-1e-05	0	-5e-05	2e-05	0.00012	3
12172	0.0001	7e-05	2e-05	-1e-05	0	-5e-05	2e-05	0.00012	3
12173	0.0001	7e-05	2e-05	-1e-05	0	-5e-05	2e-05	0.00012	3
12174	0.0001	7e-05	2e-05	-1e-05	0	-5e-05	2e-05	0.00012	3
12175	0.0001	7e-05	2e-05	-1e-05	0	-5e-05	2e-05	0.00012	3
12176	0.0001	7e-05	2e-05	-1e-05	0	-5e-05	2e-05	0.00012	3
12177	0.0001	7e-05	2e-05	-1e-05	0	-5e-05	2e-05	0.00012	3
12178	0.0001	7e-05	2e-05	-1e-05	0	-5e-05	2e-05	0.00012	3
12179	0.0001	7e-05	2e-05	-1e-05	0	-5e-05	2e-05	0.00012	3
12180	0.0001	7e-05	2e-05	-1e-05	0	-5e-05	2e-05	0.00012	3
12181	0.0001	7e-05	2e-05	-1e-05	0	-5e-05	2e-05	0.00012	3
12182	0.0001	7e-05	2e-05	-1e-05	0	-5e-05	2e-05	0.00012	3
12183	0.0001	7e-05	2e-05	-1e-05	0	-5e-05	2e-05	0.00012	3
12184	0.0001	7e-05	2e-05	-1e-05	0	-5e-05	2e-05	0.00012	3
12185	0.0001	7e-05	2e-05	-1e-05	0	-5e-05	2e-05	0.00012	3
12186	0.0001	7e-05	2e-05	-1e-05	0	-5e-05	2e-05	0.00012	3
12189	2e-05	3e-05	0	-3e-05	-6e-05	-3e-05	-2e-05	2e-05	3
12190	-1e-05	-5e-05	3e-05	2e-05	2e-05	1e-05	-5e-05	0.00049	3
12191	-1e-05	-5e-05	3e-05	2e-05	2e-05	1e-05	-5e-05	0.00049	3
12192	-1e-05	-5e-05	3e-05	2e-05	2e-05	1e-05	-5e-05	0.00049	3
12193	-1e-05	-5e-05	3e-05	2e-05	2e-05	1e-05	-5e-05	0.00049	3
12194	-1e-05	-5e-05	3e-05	2e-05	2e-05	1e-05	-5e-05	0.00049	3
12195	-1e-05	-5e-05	3e-05	2e-05	2e-05	1e-05	-5e-05	0.00049	3
12196	-1e-05	-5e-05	3e-05	2e-05	2e-05	1e-05	-5e-05	0.00049	3
12197	-1e-05	-5e-05	3e-05	2e-05	2e-05	1e-05	-5e-05	0.00049	3
12198	-1e-05	-5e-05	3e-05	2e-05	2e-05	1e-05	-5e-05	0.00049	3
12199	-1e-05	-5e-05	3e-05	2e-05	2e-05	1e-05	-5e-05	0.00049	3
12200	-1e-05	-5e-05	3e-05	2e-05	2e-05	1e-05	-5e-05	0.00049	3
12201	-1e-05	-5e-05	3e-05	2e-05	2e-05	1e-05	-5e-05	0.00049	3
12202	-1e-05	-5e-05	3e-05	2e-05	2e-05	1e-05	-5e-05	0.00049	3
12203	-2e-05	-1e-05	-8e-05	-7e-05	-8e-05	-7e-05	-6e-05	-0.00016	3
12204	-2e-05	-1e-05	-8e-05	-7e-05	-8e-05	-7e-05	-6e-05	-0.00016	3
12205	-9e-05	-4e-05	-4e-05	-2e-05	-2e-05	-6e-05	-0.00011	-3e-05	3
12206	-9e-05	-4e-05	-4e-05	-2e-05	-2e-05	-6e-05	-0.00011	-3e-05	3
12207	-9e-05	-4e-05	-4e-05	-2e-05	-2e-05	-6e-05	-0.00011	-3e-05	3
12208	-9e-05	-4e-05	-4e-05	-2e-05	-2e-05	-6e-05	-0.00011	-3e-05	3
12209	-9e-05	-4e-05	-4e-05	-2e-05	-2e-05	-6e-05	-0.00011	-3e-05	3
12210	-9e-05	-4e-05	-4e-05	-2e-05	-2e-05	-6e-05	-0.00011	-3e-05	3
12211	-9e-05	-4e-05	-4e-05	-2e-05	-2e-05	-6e-05	-0.00011	-3e-05	3
12212	-9e-05	-4e-05	-4e-05	-2e-05	-2e-05	-6e-05	-0.00011	-3e-05	3
12213	-9e-05	-4e-05	-4e-05	-2e-05	-2e-05	-6e-05	-0.00011	-3e-05	3
12214	-9e-05	-4e-05	-4e-05	-2e-05	-2e-05	-6e-05	-0.00011	-3e-05	3
12215	-9e-05	-4e-05	-4e-05	-2e-05	-2e-05	-6e-05	-0.00011	-3e-05	3
12216	-9e-05	-4e-05	-4e-05	-2e-05	-2e-05	-6e-05	-0.00011	-3e-05	3
12217	-9e-05	-4e-05	-4e-05	-2e-05	-2e-05	-6e-05	-0.00011	-3e-05	3
12218	-9e-05	-4e-05	-4e-05	-2e-05	-2e-05	-6e-05	-0.00011	-3e-05	3
12219	-9e-05	-4e-05	-4e-05	-2e-05	-2e-05	-6e-05	-0.00011	-3e-05	3
12220	-9e-05	-4e-05	-4e-05	-2e-05	-2e-05	-6e-05	-0.00011	-3e-05	3
12221	-9e-05	-4e-05	-4e-05	-2e-05	-2e-05	-6e-05	-0.00011	-3e-05	3
12222	-9e-05	-4e-05	-4e-05	-2e-05	-2e-05	-6e-05	-0.00011	-3e-05	3
12223	-9e-05	-4e-05	-4e-05	-2e-05	-2e-05	-6e-05	-0.00011	-3e-05	3
12224	-9e-05	-4e-05	-4e-05	-2e-05	-2e-05	-6e-05	-0.00011	-3e-05	3
12225	-9e-05	-4e-05	-4e-05	-2e-05	-2e-05	-6e-05	-0.00011	-3e-05	3
12226	-3e-05	-4e-05	2e-05	-1e-05	2e-05	-3e-05	-3e-05	0.00014	3
12227	-3e-05	-4e-05	2e-05	-1e-05	2e-05	-3e-05	-3e-05	0.00014	3
12228	1e-05	1e-05	3e-05	-3e-05	-3e-05	-7e-05	-0.0001	0.0004	3
12229	1e-05	1e-05	3e-05	-3e-05	-3e-05	-7e-05	-0.0001	0.0004	3
12230	1e-05	1e-05	3e-05	-3e-05	-3e-05	-7e-05	-0.0001	0.0004	3
12231	1e-05	1e-05	3e-05	-3e-05	-3e-05	-7e-05	-0.0001	0.0004	3
12232	1e-05	1e-05	3e-05	-3e-05	-3e-05	-7e-05	-0.0001	0.0004	3
12233	1e-05	1e-05	3e-05	-3e-05	-3e-05	-7e-05	-0.0001	0.0004	3
12234	1e-05	1e-05	3e-05	-3e-05	-3e-05	-7e-05	-0.0001	0.0004	3
12235	1e-05	1e-05	3e-05	-3e-05	-3e-05	-7e-05	-0.0001	0.0004	3
12236	1e-05	1e-05	3e-05	-3e-05	-3e-05	-7e-05	-0.0001	0.0004	3
12238	1e-05	1e-05	3e-05	-3e-05	-3e-05	-7e-05	-0.0001	0.0004	3
12240	1e-05	1e-05	3e-05	-3e-05	-3e-05	-7e-05	-0.0001	0.0004	3
12241	1e-05	1e-05	3e-05	-3e-05	-3e-05	-7e-05	-0.0001	0.0004	3
12242	1e-05	1e-05	3e-05	-3e-05	-3e-05	-7e-05	-0.0001	0.0004	3
12243	1e-05	1e-05	3e-05	-3e-05	-3e-05	-7e-05	-0.0001	0.0004	3
12244	1e-05	1e-05	3e-05	-3e-05	-3e-05	-7e-05	-0.0001	0.0004	3
12245	1e-05	1e-05	3e-05	-3e-05	-3e-05	-7e-05	-0.0001	0.0004	3
12246	1e-05	1e-05	3e-05	-3e-05	-3e-05	-7e-05	-0.0001	0.0004	3
12247	1e-05	1e-05	3e-05	-3e-05	-3e-05	-7e-05	-0.0001	0.0004	3
12248	4e-05	3e-05	3e-05	-1e-05	-5e-05	-2e-05	-0.00015	-0.00026	3
12249	4e-05	3e-05	3e-05	-1e-05	-5e-05	-2e-05	-0.00015	-0.00026	3
12250	1e-05	-5e-05	2e-05	2e-05	1e-05	6e-05	6e-05	-0.00019	3
12252	1e-05	-5e-05	2e-05	2e-05	1e-05	6e-05	6e-05	-0.00019	3
12253	1e-05	-5e-05	2e-05	2e-05	1e-05	6e-05	6e-05	-0.00019	3
12254	1e-05	-5e-05	2e-05	2e-05	1e-05	6e-05	6e-05	-0.00019	3
12255	1e-05	-5e-05	2e-05	2e-05	1e-05	6e-05	6e-05	-0.00019	3
12256	1e-05	-5e-05	2e-05	2e-05	1e-05	6e-05	6e-05	-0.00019	3
12257	1e-05	-5e-05	2e-05	2e-05	1e-05	6e-05	6e-05	-0.00019	3
12258	1e-05	-5e-05	2e-05	2e-05	1e-05	6e-05	6e-05	-0.00019	3
12259	1e-05	-5e-05	2e-05	2e-05	1e-05	6e-05	6e-05	-0.00019	3
12260	1e-05	-5e-05	2e-05	2e-05	1e-05	6e-05	6e-05	-0.00019	3
12261	1e-05	-5e-05	2e-05	2e-05	1e-05	6e-05	6e-05	-0.00019	3
12262	1e-05	-5e-05	2e-05	2e-05	1e-05	6e-05	6e-05	-0.00019	3
12263	-0.0001	2e-05	5e-05	1e-05	-1e-05	-6e-05	-0.0003	-0.00046	3
12264	-0.0001	2e-05	5e-05	1e-05	-1e-05	-6e-05	-0.0003	-0.00046	3
12265	-6e-05	-6e-05	-5e-05	-4e-05	2e-05	-3e-05	2e-05	-0.00015	3
12266	-6e-05	-6e-05	-5e-05	-4e-05	2e-05	-3e-05	2e-05	-0.00015	3
12267	-6e-05	-6e-05	-5e-05	-4e-05	2e-05	-3e-05	2e-05	-0.00015	3
12268	-6e-05	-6e-05	-5e-05	-4e-05	2e-05	-3e-05	2e-05	-0.00015	3
12269	-6e-05	-6e-05	-5e-05	-4e-05	2e-05	-3e-05	2e-05	-0.00015	3
12270	-6e-05	-6e-05	-5e-05	-4e-05	2e-05	-3e-05	2e-05	-0.00015	3
12271	-6e-05	-6e-05	-5e-05	-4e-05	2e-05	-3e-05	2e-05	-0.00015	3
12272	-6e-05	-6e-05	-5e-05	-4e-05	2e-05	-3e-05	2e-05	-0.00015	3
12273	-6e-05	-6e-05	-5e-05	-4e-05	2e-05	-3e-05	2e-05	-0.00015	3
12274	-6e-05	-6e-05	-5e-05	-4e-05	2e-05	-3e-05	2e-05	-0.00015	3
12275	-6e-05	-6e-05	-5e-05	-4e-05	2e-05	-3e-05	2e-05	-0.00015	3
12276	-6e-05	-6e-05	-5e-05	-4e-05	2e-05	-3e-05	2e-05	-0.00015	3
12277	-6e-05	-6e-05	-5e-05	-4e-05	2e-05	-3e-05	2e-05	-0.00015	3
12278	-6e-05	-6e-05	-5e-05	-4e-05	2e-05	-3e-05	2e-05	-0.00015	3
12279	-6e-05	-6e-05	-5e-05	-4e-05	2e-05	-3e-05	2e-05	-0.00015	3
12280	-6e-05	-6e-05	-5e-05	-4e-05	2e-05	-3e-05	2e-05	-0.00015	3
12281	-6e-05	-6e-05	-5e-05	-4e-05	2e-05	-3e-05	2e-05	-0.00015	3
12282	-6e-05	-6e-05	-5e-05	-4e-05	2e-05	-3e-05	2e-05	-0.00015	3
12283	-6e-05	-6e-05	-5e-05	-4e-05	2e-05	-3e-05	2e-05	-0.00015	3
12284	-6e-05	-6e-05	-5e-05	-4e-05	2e-05	-3e-05	2e-05	-0.00015	3
12285	-6e-05	-6e-05	-5e-05	-4e-05	2e-05	-3e-05	2e-05	-0.00015	3
12286	-7e-05	-5e-05	-3e-05	-2e-05	-5e-05	-2e-05	7e-05	0.00012	3
12289	1e-05	3e-05	6e-05	7e-05	5e-05	0.0001	5e-05	-8e-05	3
12290	1e-05	3e-05	6e-05	7e-05	5e-05	0.0001	5e-05	-8e-05	3
12291	1e-05	3e-05	6e-05	7e-05	5e-05	0.0001	5e-05	-8e-05	3
12292	1e-05	3e-05	6e-05	7e-05	5e-05	0.0001	5e-05	-8e-05	3
12293	1e-05	3e-05	6e-05	7e-05	5e-05	0.0001	5e-05	-8e-05	3
12294	1e-05	3e-05	6e-05	7e-05	5e-05	0.0001	5e-05	-8e-05	3
12295	1e-05	3e-05	6e-05	7e-05	5e-05	0.0001	5e-05	-8e-05	3
12296	1e-05	3e-05	6e-05	7e-05	5e-05	0.0001	5e-05	-8e-05	3
12297	1e-05	3e-05	6e-05	7e-05	5e-05	0.0001	5e-05	-8e-05	3
12298	1e-05	3e-05	6e-05	7e-05	5e-05	0.0001	5e-05	-8e-05	3
12299	1e-05	3e-05	6e-05	7e-05	5e-05	0.0001	5e-05	-8e-05	3
12300	1e-05	3e-05	6e-05	7e-05	5e-05	0.0001	5e-05	-8e-05	3
12301	1e-05	3e-05	6e-05	7e-05	5e-05	0.0001	5e-05	-8e-05	3
12302	1e-05	3e-05	6e-05	7e-05	5e-05	0.0001	5e-05	-8e-05	3
12303	1e-05	3e-05	6e-05	7e-05	5e-05	0.0001	5e-05	-8e-05	3
12304	1e-05	3e-05	6e-05	7e-05	5e-05	0.0001	5e-05	-8e-05	3
12305	1e-05	3e-05	6e-05	7e-05	5e-05	0.0001	5e-05	-8e-05	3
12306	1e-05	3e-05	6e-05	7e-05	5e-05	0.0001	5e-05	-8e-05	3
12307	1e-05	3e-05	6e-05	7e-05	5e-05	0.0001	5e-05	-8e-05	3
12308	-2e-05	-1e-05	1e-05	0	7e-05	-1e-05	2e-05	-4e-05	3
12309	-2e-05	-1e-05	1e-05	0	7e-05	-1e-05	2e-05	-4e-05	3
12310	0.00015	2e-05	-4e-05	-5e-05	-9e-05	0	-1e-05	-2e-05	3
12311	0.00015	2e-05	-4e-05	-5e-05	-9e-05	0	-1e-05	-2e-05	3
12312	0.00015	2e-05	-4e-05	-5e-05	-9e-05	0	-1e-05	-2e-05	3
12313	0.00015	2e-05	-4e-05	-5e-05	-9e-05	0	-1e-05	-2e-05	3
12314	0.00015	2e-05	-4e-05	-5e-05	-9e-05	0	-1e-05	-2e-05	3
12315	0.00015	2e-05	-4e-05	-5e-05	-9e-05	0	-1e-05	-2e-05	3
12316	0.00015	2e-05	-4e-05	-5e-05	-9e-05	0	-1e-05	-2e-05	3
12317	0.00015	2e-05	-4e-05	-5e-05	-9e-05	0	-1e-05	-2e-05	3
12318	0.00015	2e-05	-4e-05	-5e-05	-9e-05	0	-1e-05	-2e-05	3
12319	0.00015	2e-05	-4e-05	-5e-05	-9e-05	0	-1e-05	-2e-05	3
12320	0.00015	2e-05	-4e-05	-5e-05	-9e-05	0	-1e-05	-2e-05	3
12321	0.00015	2e-05	-4e-05	-5e-05	-9e-05	0	-1e-05	-2e-05	3
12322	0.00015	2e-05	-4e-05	-5e-05	-9e-05	0	-1e-05	-2e-05	3
12323	-7e-05	-0.00011	2e-05	-1e-05	0	-1e-05	0.00012	0.00015	3
12324	-7e-05	-0.00011	2e-05	-1e-05	0	-1e-05	0.00012	0.00015	3
12325	-7e-05	-0.00011	2e-05	-1e-05	0	-1e-05	0.00012	0.00015	3
12326	-7e-05	-0.00011	2e-05	-1e-05	0	-1e-05	0.00012	0.00015	3
12327	-7e-05	-0.00011	2e-05	-1e-05	0	-1e-05	0.00012	0.00015	3
12328	-7e-05	-0.00011	2e-05	-1e-05	0	-1e-05	0.00012	0.00015	3
12329	-4e-05	0	-5e-05	-5e-05	5e-05	1e-05	-0.0002	-0.00016	3
12330	-4e-05	0	-5e-05	-5e-05	5e-05	1e-05	-0.0002	-0.00016	3
12331	-4e-05	0	-5e-05	-5e-05	5e-05	1e-05	-0.0002	-0.00016	3
12332	-4e-05	0	-5e-05	-5e-05	5e-05	1e-05	-0.0002	-0.00016	3
12333	-4e-05	0	-5e-05	-5e-05	5e-05	1e-05	-0.0002	-0.00016	3
12334	-4e-05	0	-5e-05	-5e-05	5e-05	1e-05	-0.0002	-0.00016	3
12335	-4e-05	0	-5e-05	-5e-05	5e-05	1e-05	-0.0002	-0.00016	3
12336	-4e-05	0	-5e-05	-5e-05	5e-05	1e-05	-0.0002	-0.00016	3
12338	-4e-05	0	-5e-05	-5e-05	5e-05	1e-05	-0.0002	-0.00016	3
12339	-4e-05	0	-5e-05	-5e-05	5e-05	1e-05	-0.0002	-0.00016	3
12340	-4e-05	0	-5e-05	-5e-05	5e-05	1e-05	-0.0002	-0.00016	3
12341	-4e-05	0	-5e-05	-5e-05	5e-05	1e-05	-0.0002	-0.00016	3
12342	-4e-05	0	-5e-05	-5e-05	5e-05	1e-05	-0.0002	-0.00016	3
12343	-4e-05	0	-5e-05	-5e-05	5e-05	1e-05	-0.0002	-0.00016	3
12344	-4e-05	0	-5e-05	-5e-05	5e-05	1e-05	-0.0002	-0.00016	3
12345	-4e-05	0	-5e-05	-5e-05	5e-05	1e-05	-0.0002	-0.00016	3
12346	0	-5e-05	-5e-05	-2e-05	3e-05	2e-05	-0.0001	5e-05	3
12347	0	-5e-05	-5e-05	-2e-05	3e-05	2e-05	-0.0001	5e-05	3
12348	-7e-05	1e-05	6e-05	0	-4e-05	-3e-05	-9e-05	-0.00035	3
12349	-7e-05	1e-05	6e-05	0	-4e-05	-3e-05	-9e-05	-0.00035	3
12350	-7e-05	1e-05	6e-05	0	-4e-05	-3e-05	-9e-05	-0.00035	3
12351	-7e-05	1e-05	6e-05	0	-4e-05	-3e-05	-9e-05	-0.00035	3
12352	-7e-05	1e-05	6e-05	0	-4e-05	-3e-05	-9e-05	-0.00035	3
12353	-7e-05	1e-05	6e-05	0	-4e-05	-3e-05	-9e-05	-0.00035	3
12354	-7e-05	1e-05	6e-05	0	-4e-05	-3e-05	-9e-05	-0.00035	3
12355	-7e-05	1e-05	6e-05	0	-4e-05	-3e-05	-9e-05	-0.00035	3
12356	-7e-05	1e-05	6e-05	0	-4e-05	-3e-05	-9e-05	-0.00035	3
12357	-7e-05	1e-05	6e-05	0	-4e-05	-3e-05	-9e-05	-0.00035	3
12358	-7e-05	1e-05	6e-05	0	-4e-05	-3e-05	-9e-05	-0.00035	3
12359	-7e-05	1e-05	6e-05	0	-4e-05	-3e-05	-9e-05	-0.00035	3
12360	-7e-05	1e-05	6e-05	0	-4e-05	-3e-05	-9e-05	-0.00035	3
12361	-7e-05	1e-05	6e-05	0	-4e-05	-3e-05	-9e-05	-0.00035	3
12362	-7e-05	1e-05	6e-05	0	-4e-05	-3e-05	-9e-05	-0.00035	3
12363	-7e-05	1e-05	6e-05	0	-4e-05	-3e-05	-9e-05	-0.00035	3
12364	-7e-05	1e-05	6e-05	0	-4e-05	-3e-05	-9e-05	-0.00035	3
12365	-7e-05	1e-05	6e-05	0	-4e-05	-3e-05	-9e-05	-0.00035	3
12366	-7e-05	1e-05	6e-05	0	-4e-05	-3e-05	-9e-05	-0.00035	3
12367	-7e-05	1e-05	6e-05	0	-4e-05	-3e-05	-9e-05	-0.00035	3
12368	-7e-05	1e-05	6e-05	0	-4e-05	-3e-05	-9e-05	-0.00035	3
12369	0	3e-05	4e-05	4e-05	0.00014	0	-0.0001	-4e-05	3
12370	-0.00012	-6e-05	-3e-05	3e-05	0	2e-05	0.00028	5e-05	3
12371	-0.00012	-6e-05	-3e-05	3e-05	0	2e-05	0.00028	5e-05	3
12372	-0.00012	-6e-05	-3e-05	3e-05	0	2e-05	0.00028	5e-05	3
12373	-0.00012	-6e-05	-3e-05	3e-05	0	2e-05	0.00028	5e-05	3
12374	-0.00012	-6e-05	-3e-05	3e-05	0	2e-05	0.00028	5e-05	3
12375	-0.00012	-6e-05	-3e-05	3e-05	0	2e-05	0.00028	5e-05	3
12376	-0.00012	-6e-05	-3e-05	3e-05	0	2e-05	0.00028	5e-05	3
12377	-0.00012	-6e-05	-3e-05	3e-05	0	2e-05	0.00028	5e-05	3
12378	-0.00012	-6e-05	-3e-05	3e-05	0	2e-05	0.00028	5e-05	3
12379	-0.00012	-6e-05	-3e-05	3e-05	0	2e-05	0.00028	5e-05	3
12380	-0.00012	-6e-05	-3e-05	3e-05	0	2e-05	0.00028	5e-05	3
12381	-0.00012	-6e-05	-3e-05	3e-05	0	2e-05	0.00028	5e-05	3
12382	-0.00012	-6e-05	-3e-05	3e-05	0	2e-05	0.00028	5e-05	3
12383	0.00013	6e-05	-1e-05	0	-3e-05	1e-05	-0.00021	0.00012	3
12384	0.00013	6e-05	-1e-05	0	-3e-05	1e-05	-0.00021	0.00012	3
12385	0.00013	6e-05	-1e-05	0	-3e-05	1e-05	-0.00021	0.00012	3
12386	0.00013	6e-05	-1e-05	0	-3e-05	1e-05	-0.00021	0.00012	3
12388	0.00013	6e-05	-1e-05	0	-3e-05	1e-05	-0.00021	0.00012	3
12389	-0.00011	-7e-05	0	2e-05	0	6e-05	-7e-05	-0.00013	3
12390	4e-05	3e-05	0	-1e-05	-5e-05	-7e-05	0.00011	0.00017	3
12391	4e-05	3e-05	0	-1e-05	-5e-05	-7e-05	0.00011	0.00017	3
12392	4e-05	3e-05	0	-1e-05	-5e-05	-7e-05	0.00011	0.00017	3
12393	4e-05	3e-05	0	-1e-05	-5e-05	-7e-05	0.00011	0.00017	3
12394	4e-05	3e-05	0	-1e-05	-5e-05	-7e-05	0.00011	0.00017	3
12395	4e-05	3e-05	0	-1e-05	-5e-05	-7e-05	0.00011	0.00017	3
12396	4e-05	3e-05	0	-1e-05	-5e-05	-7e-05	0.00011	0.00017	3
12397	4e-05	3e-05	0	-1e-05	-5e-05	-7e-05	0.00011	0.00017	3
12398	4e-05	3e-05	0	-1e-05	-5e-05	-7e-05	0.00011	0.00017	3
12399	4e-05	3e-05	0	-1e-05	-5e-05	-7e-05	0.00011	0.00017	3
12400	4e-05	3e-05	0	-1e-05	-5e-05	-7e-05	0.00011	0.00017	3
12401	4e-05	3e-05	0	-1e-05	-5e-05	-7e-05	0.00011	0.00017	3
12402	4e-05	3e-05	0	-1e-05	-5e-05	-7e-05	0.00011	0.00017	3
12403	4e-05	3e-05	0	-1e-05	-5e-05	-7e-05	0.00011	0.00017	3
12404	4e-05	3e-05	0	-1e-05	-5e-05	-7e-05	0.00011	0.00017	3
12405	4e-05	3e-05	0	-1e-05	-5e-05	-7e-05	0.00011	0.00017	3
12406	-2e-05	-3e-05	-8e-05	-8e-05	-9e-05	2e-05	0.00011	5e-05	3
12407	-5e-05	-3e-05	-1e-05	-3e-05	0	0	1e-05	-0.0001	3
12408	-5e-05	-3e-05	-1e-05	-3e-05	0	0	1e-05	-0.0001	3
12409	-5e-05	-3e-05	-1e-05	-3e-05	0	0	1e-05	-0.0001	3
12410	-5e-05	-3e-05	-1e-05	-3e-05	0	0	1e-05	-0.0001	3
12411	-5e-05	-3e-05	-1e-05	-3e-05	0	0	1e-05	-0.0001	3
12412	-5e-05	-3e-05	-1e-05	-3e-05	0	0	1e-05	-0.0001	3
12413	-5e-05	-3e-05	-1e-05	-3e-05	0	0	1e-05	-0.0001	3
12414	-5e-05	-3e-05	-1e-05	-3e-05	0	0	1e-05	-0.0001	3
12415	-5e-05	-3e-05	-1e-05	-3e-05	0	0	1e-05	-0.0001	3
12416	-5e-05	-3e-05	-1e-05	-3e-05	0	0	1e-05	-0.0001	3
12417	-5e-05	-3e-05	-1e-05	-3e-05	0	0	1e-05	-0.0001	3
12418	-5e-05	-3e-05	-1e-05	-3e-05	0	0	1e-05	-0.0001	3
12419	-5e-05	-3e-05	-1e-05	-3e-05	0	0	1e-05	-0.0001	3
12420	-5e-05	-3e-05	-1e-05	-3e-05	0	0	1e-05	-0.0001	3
12421	-5e-05	-3e-05	-1e-05	-3e-05	0	0	1e-05	-0.0001	3
12422	-5e-05	-3e-05	-1e-05	-3e-05	0	0	1e-05	-0.0001	3
12423	-5e-05	-3e-05	-1e-05	-3e-05	0	0	1e-05	-0.0001	3
12424	-5e-05	-3e-05	-1e-05	-3e-05	0	0	1e-05	-0.0001	3
12425	-5e-05	-3e-05	-1e-05	-3e-05	0	0	1e-05	-0.0001	3
12426	-5e-05	-3e-05	-1e-05	-3e-05	0	0	1e-05	-0.0001	3
12427	-5e-05	-3e-05	-1e-05	-3e-05	0	0	1e-05	-0.0001	3
12428	1e-05	1e-05	0	-1e-05	-9e-05	0	0.00015	6e-05	3
12429	1e-05	1e-05	0	-1e-05	-9e-05	0	0.00015	6e-05	3
12430	-5e-05	-5e-05	-2e-05	-1e-05	-2e-05	-3e-05	1e-05	-0.00012	3
12431	-5e-05	-5e-05	-2e-05	-1e-05	-2e-05	-3e-05	1e-05	-0.00012	3
12432	-5e-05	-5e-05	-2e-05	-1e-05	-2e-05	-3e-05	1e-05	-0.00012	3
12433	-5e-05	-5e-05	-2e-05	-1e-05	-2e-05	-3e-05	1e-05	-0.00012	3
12434	-5e-05	-5e-05	-2e-05	-1e-05	-2e-05	-3e-05	1e-05	-0.00012	3
12435	-5e-05	-5e-05	-2e-05	-1e-05	-2e-05	-3e-05	1e-05	-0.00012	3
12436	-5e-05	-5e-05	-2e-05	-1e-05	-2e-05	-3e-05	1e-05	-0.00012	3
12438	-5e-05	-5e-05	-2e-05	-1e-05	-2e-05	-3e-05	1e-05	-0.00012	3
12439	-5e-05	-5e-05	-2e-05	-1e-05	-2e-05	-3e-05	1e-05	-0.00012	3
12440	-5e-05	-5e-05	-2e-05	-1e-05	-2e-05	-3e-05	1e-05	-0.00012	3
12441	-5e-05	-5e-05	-2e-05	-1e-05	-2e-05	-3e-05	1e-05	-0.00012	3
12442	-5e-05	-5e-05	-2e-05	-1e-05	-2e-05	-3e-05	1e-05	-0.00012	3
12443	9e-05	0.0001	9e-05	1e-05	-3e-05	-3e-05	0.00017	7e-05	3
12444	9e-05	0.0001	9e-05	1e-05	-3e-05	-3e-05	0.00017	7e-05	3
12445	9e-05	0.0001	9e-05	1e-05	-3e-05	-3e-05	0.00017	7e-05	3
12446	9e-05	0.0001	9e-05	1e-05	-3e-05	-3e-05	0.00017	7e-05	3
12447	9e-05	0.0001	9e-05	1e-05	-3e-05	-3e-05	0.00017	7e-05	3
12448	9e-05	0.0001	9e-05	1e-05	-3e-05	-3e-05	0.00017	7e-05	3
12449	6e-05	-2e-05	-6e-05	-2e-05	8e-05	4e-05	-6e-05	0.00016	3
12450	6e-05	-2e-05	-6e-05	-2e-05	8e-05	4e-05	-6e-05	0.00016	3
12451	6e-05	-2e-05	-6e-05	-2e-05	8e-05	4e-05	-6e-05	0.00016	3
12452	6e-05	-2e-05	-6e-05	-2e-05	8e-05	4e-05	-6e-05	0.00016	3
12453	6e-05	-2e-05	-6e-05	-2e-05	8e-05	4e-05	-6e-05	0.00016	3
12454	6e-05	-2e-05	-6e-05	-2e-05	8e-05	4e-05	-6e-05	0.00016	3
12455	6e-05	-2e-05	-6e-05	-2e-05	8e-05	4e-05	-6e-05	0.00016	3
12456	6e-05	-2e-05	-6e-05	-2e-05	8e-05	4e-05	-6e-05	0.00016	3
12457	6e-05	-2e-05	-6e-05	-2e-05	8e-05	4e-05	-6e-05	0.00016	3
12458	6e-05	-2e-05	-6e-05	-2e-05	8e-05	4e-05	-6e-05	0.00016	3
12459	6e-05	-2e-05	-6e-05	-2e-05	8e-05	4e-05	-6e-05	0.00016	3
12460	6e-05	-2e-05	-6e-05	-2e-05	8e-05	4e-05	-6e-05	0.00016	3
12461	6e-05	-2e-05	-6e-05	-2e-05	8e-05	4e-05	-6e-05	0.00016	3
12462	6e-05	-2e-05	-6e-05	-2e-05	8e-05	4e-05	-6e-05	0.00016	3
12463	6e-05	-2e-05	-6e-05	-2e-05	8e-05	4e-05	-6e-05	0.00016	3
12464	6e-05	-2e-05	-6e-05	-2e-05	8e-05	4e-05	-6e-05	0.00016	3
12465	6e-05	-2e-05	-6e-05	-2e-05	8e-05	4e-05	-6e-05	0.00016	3
12466	-2e-05	-4e-05	-4e-05	0	3e-05	-5e-05	-7e-05	-0.00019	3
12467	-2e-05	-4e-05	-4e-05	0	3e-05	-5e-05	-7e-05	-0.00019	3
12468	-2e-05	-4e-05	-4e-05	0	3e-05	-5e-05	-7e-05	-0.00019	3
12469	1e-05	1e-05	2e-05	0	-3e-05	2e-05	-7e-05	0	3
12470	1e-05	1e-05	2e-05	0	-3e-05	2e-05	-7e-05	0	3
12471	1e-05	1e-05	2e-05	0	-3e-05	2e-05	-7e-05	0	3
12472	1e-05	1e-05	2e-05	0	-3e-05	2e-05	-7e-05	0	3
12473	1e-05	1e-05	2e-05	0	-3e-05	2e-05	-7e-05	0	3
12474	1e-05	1e-05	2e-05	0	-3e-05	2e-05	-7e-05	0	3
12475	1e-05	1e-05	2e-05	0	-3e-05	2e-05	-7e-05	0	3
12476	1e-05	1e-05	2e-05	0	-3e-05	2e-05	-7e-05	0	3
12477	1e-05	1e-05	2e-05	0	-3e-05	2e-05	-7e-05	0	3
12478	1e-05	1e-05	2e-05	0	-3e-05	2e-05	-7e-05	0	3
12479	1e-05	1e-05	2e-05	0	-3e-05	2e-05	-7e-05	0	3
12480	1e-05	1e-05	2e-05	0	-3e-05	2e-05	-7e-05	0	3
12481	1e-05	1e-05	2e-05	0	-3e-05	2e-05	-7e-05	0	3
12482	1e-05	1e-05	2e-05	0	-3e-05	2e-05	-7e-05	0	3
12483	1e-05	1e-05	2e-05	0	-3e-05	2e-05	-7e-05	0	3
12484	1e-05	1e-05	2e-05	0	-3e-05	2e-05	-7e-05	0	3
12485	1e-05	1e-05	2e-05	0	-3e-05	2e-05	-7e-05	0	3
12486	1e-05	1e-05	2e-05	0	-3e-05	2e-05	-7e-05	0	3
12489	0	-5e-05	-3e-05	-2e-05	-5e-05	0	6e-05	-5e-05	3
12490	3e-05	0	0	-1e-05	3e-05	5e-05	9e-05	-5e-05	3
12491	3e-05	0	0	-1e-05	3e-05	5e-05	9e-05	-5e-05	3
12492	3e-05	0	0	-1e-05	3e-05	5e-05	9e-05	-5e-05	3
12493	3e-05	0	0	-1e-05	3e-05	5e-05	9e-05	-5e-05	3
12494	3e-05	0	0	-1e-05	3e-05	5e-05	9e-05	-5e-05	3
12495	3e-05	0	0	-1e-05	3e-05	5e-05	9e-05	-5e-05	3
12496	3e-05	0	0	-1e-05	3e-05	5e-05	9e-05	-5e-05	3
12497	3e-05	0	0	-1e-05	3e-05	5e-05	9e-05	-5e-05	3
12498	3e-05	0	0	-1e-05	3e-05	5e-05	9e-05	-5e-05	3
12499	3e-05	0	0	-1e-05	3e-05	5e-05	9e-05	-5e-05	3
12500	3e-05	0	0	-1e-05	3e-05	5e-05	9e-05	-5e-05	3
12501	3e-05	0	0	-1e-05	3e-05	5e-05	9e-05	-5e-05	3
12502	3e-05	0	0	-1e-05	3e-05	5e-05	9e-05	-5e-05	3
12503	0.0001	-2e-05	-4e-05	-3e-05	-1e-05	0	0	-0.0001	3
12504	0.0001	-2e-05	-4e-05	-3e-05	-1e-05	0	0	-0.0001	3
12505	0.0001	-2e-05	-4e-05	-3e-05	-1e-05	0	0	-0.0001	3
12506	0.0001	-2e-05	-4e-05	-3e-05	-1e-05	0	0	-0.0001	3
12507	0.0001	-2e-05	-4e-05	-3e-05	-1e-05	0	0	-0.0001	3
12508	0.0001	-2e-05	-4e-05	-3e-05	-1e-05	0	0	-0.0001	3
12509	-2e-05	-6e-05	-4e-05	-2e-05	-7e-05	-8e-05	0	-0.00012	3
12510	-2e-05	-6e-05	-4e-05	-2e-05	-7e-05	-8e-05	0	-0.00012	3
12511	-2e-05	-6e-05	-4e-05	-2e-05	-7e-05	-8e-05	0	-0.00012	3
12512	-2e-05	-6e-05	-4e-05	-2e-05	-7e-05	-8e-05	0	-0.00012	3
12513	-2e-05	-6e-05	-4e-05	-2e-05	-7e-05	-8e-05	0	-0.00012	3
12514	-2e-05	-6e-05	-4e-05	-2e-05	-7e-05	-8e-05	0	-0.00012	3
12515	-2e-05	-6e-05	-4e-05	-2e-05	-7e-05	-8e-05	0	-0.00012	3
12516	-2e-05	-6e-05	-4e-05	-2e-05	-7e-05	-8e-05	0	-0.00012	3
12517	-2e-05	-6e-05	-4e-05	-2e-05	-7e-05	-8e-05	0	-0.00012	3
12518	-2e-05	-6e-05	-4e-05	-2e-05	-7e-05	-8e-05	0	-0.00012	3
12519	-2e-05	-6e-05	-4e-05	-2e-05	-7e-05	-8e-05	0	-0.00012	3
12520	-2e-05	-6e-05	-4e-05	-2e-05	-7e-05	-8e-05	0	-0.00012	3
12521	-2e-05	-6e-05	-4e-05	-2e-05	-7e-05	-8e-05	0	-0.00012	3
12522	-2e-05	-6e-05	-4e-05	-2e-05	-7e-05	-8e-05	0	-0.00012	3
12523	-2e-05	-6e-05	-4e-05	-2e-05	-7e-05	-8e-05	0	-0.00012	3
12524	-2e-05	-6e-05	-4e-05	-2e-05	-7e-05	-8e-05	0	-0.00012	3
12525	-2e-05	-6e-05	-4e-05	-2e-05	-7e-05	-8e-05	0	-0.00012	3
12526	-1e-05	-1e-05	6e-05	0	0	1e-05	-0.0001	-6e-05	3
12527	-4e-05	-0.00013	-0.00012	-5e-05	-6e-05	6e-05	-0.00019	-0.00045	3
12528	-4e-05	-0.00013	-0.00012	-5e-05	-6e-05	6e-05	-0.00019	-0.00045	3
12529	-4e-05	-0.00013	-0.00012	-5e-05	-6e-05	6e-05	-0.00019	-0.00045	3
12530	-4e-05	-0.00013	-0.00012	-5e-05	-6e-05	6e-05	-0.00019	-0.00045	3
12531	-4e-05	-0.00013	-0.00012	-5e-05	-6e-05	6e-05	-0.00019	-0.00045	3
12532	-4e-05	-0.00013	-0.00012	-5e-05	-6e-05	6e-05	-0.00019	-0.00045	3
12533	-4e-05	-0.00013	-0.00012	-5e-05	-6e-05	6e-05	-0.00019	-0.00045	3
12534	-4e-05	-0.00013	-0.00012	-5e-05	-6e-05	6e-05	-0.00019	-0.00045	3
12535	-4e-05	-0.00013	-0.00012	-5e-05	-6e-05	6e-05	-0.00019	-0.00045	3
12536	-4e-05	-0.00013	-0.00012	-5e-05	-6e-05	6e-05	-0.00019	-0.00045	3
12538	-4e-05	-0.00013	-0.00012	-5e-05	-6e-05	6e-05	-0.00019	-0.00045	3
12539	-4e-05	-0.00013	-0.00012	-5e-05	-6e-05	6e-05	-0.00019	-0.00045	3
12540	-4e-05	-0.00013	-0.00012	-5e-05	-6e-05	6e-05	-0.00019	-0.00045	3
12541	-4e-05	-0.00013	-0.00012	-5e-05	-6e-05	6e-05	-0.00019	-0.00045	3
12542	-4e-05	-0.00013	-0.00012	-5e-05	-6e-05	6e-05	-0.00019	-0.00045	3
12543	-4e-05	-0.00013	-0.00012	-5e-05	-6e-05	6e-05	-0.00019	-0.00045	3
12544	-4e-05	-0.00013	-0.00012	-5e-05	-6e-05	6e-05	-0.00019	-0.00045	3
12545	-4e-05	-0.00013	-0.00012	-5e-05	-6e-05	6e-05	-0.00019	-0.00045	3
12546	-4e-05	-0.00013	-0.00012	-5e-05	-6e-05	6e-05	-0.00019	-0.00045	3
12547	-4e-05	-0.00013	-0.00012	-5e-05	-6e-05	6e-05	-0.00019	-0.00045	3
12548	-4e-05	-0.00013	-0.00012	-5e-05	-6e-05	6e-05	-0.00019	-0.00045	3
12549	5e-05	9e-05	4e-05	3e-05	-2e-05	9e-05	0.00022	0.00041	3
12550	4e-05	1e-05	1e-05	1e-05	6e-05	-0.00012	-3e-05	2e-05	3
12551	4e-05	1e-05	1e-05	1e-05	6e-05	-0.00012	-3e-05	2e-05	3
12552	4e-05	1e-05	1e-05	1e-05	6e-05	-0.00012	-3e-05	2e-05	3
12553	4e-05	1e-05	1e-05	1e-05	6e-05	-0.00012	-3e-05	2e-05	3
12554	4e-05	1e-05	1e-05	1e-05	6e-05	-0.00012	-3e-05	2e-05	3
12555	4e-05	1e-05	1e-05	1e-05	6e-05	-0.00012	-3e-05	2e-05	3
12556	4e-05	1e-05	1e-05	1e-05	6e-05	-0.00012	-3e-05	2e-05	3
12557	4e-05	1e-05	1e-05	1e-05	6e-05	-0.00012	-3e-05	2e-05	3
12558	4e-05	1e-05	1e-05	1e-05	6e-05	-0.00012	-3e-05	2e-05	3
12559	4e-05	1e-05	1e-05	1e-05	6e-05	-0.00012	-3e-05	2e-05	3
12560	4e-05	1e-05	1e-05	1e-05	6e-05	-0.00012	-3e-05	2e-05	3
12561	4e-05	1e-05	1e-05	1e-05	6e-05	-0.00012	-3e-05	2e-05	3
12562	4e-05	1e-05	1e-05	1e-05	6e-05	-0.00012	-3e-05	2e-05	3
12563	-3e-05	2e-05	-3e-05	-2e-05	0	3e-05	3e-05	5e-05	3
12564	-3e-05	2e-05	-3e-05	-2e-05	0	3e-05	3e-05	5e-05	3
12565	-3e-05	2e-05	-3e-05	-2e-05	0	3e-05	3e-05	5e-05	3
12566	-3e-05	2e-05	-3e-05	-2e-05	0	3e-05	3e-05	5e-05	3
12567	-3e-05	2e-05	-3e-05	-2e-05	0	3e-05	3e-05	5e-05	3
12568	-3e-05	2e-05	-3e-05	-2e-05	0	3e-05	3e-05	5e-05	3
12569	-8e-05	-1e-05	-2e-05	-7e-05	-0.00018	-5e-05	-9e-05	0.00014	3
12570	-4e-05	-2e-05	3e-05	0	6e-05	6e-05	0.00023	0.00021	3
12571	-4e-05	-2e-05	3e-05	0	6e-05	6e-05	0.00023	0.00021	3
12572	-4e-05	-2e-05	3e-05	0	6e-05	6e-05	0.00023	0.00021	3
12573	-4e-05	-2e-05	3e-05	0	6e-05	6e-05	0.00023	0.00021	3
12574	-4e-05	-2e-05	3e-05	0	6e-05	6e-05	0.00023	0.00021	3
12575	-4e-05	-2e-05	3e-05	0	6e-05	6e-05	0.00023	0.00021	3
12576	-4e-05	-2e-05	3e-05	0	6e-05	6e-05	0.00023	0.00021	3
12577	-4e-05	-2e-05	3e-05	0	6e-05	6e-05	0.00023	0.00021	3
12578	-4e-05	-2e-05	3e-05	0	6e-05	6e-05	0.00023	0.00021	3
12579	-4e-05	-2e-05	3e-05	0	6e-05	6e-05	0.00023	0.00021	3
12580	-4e-05	-2e-05	3e-05	0	6e-05	6e-05	0.00023	0.00021	3
12581	-4e-05	-2e-05	3e-05	0	6e-05	6e-05	0.00023	0.00021	3
12582	-4e-05	-2e-05	3e-05	0	6e-05	6e-05	0.00023	0.00021	3
12583	-4e-05	-2e-05	3e-05	0	6e-05	6e-05	0.00023	0.00021	3
12584	-4e-05	-2e-05	3e-05	0	6e-05	6e-05	0.00023	0.00021	3
12585	-4e-05	-2e-05	3e-05	0	6e-05	6e-05	0.00023	0.00021	3
12587	-6e-05	-5e-05	-6e-05	-5e-05	-6e-05	3e-05	4e-05	4e-05	3
12589	6e-05	3e-05	0	-1e-05	-0.0001	-2e-05	6e-05	-7e-05	3
12590	6e-05	3e-05	0	-1e-05	-0.0001	-2e-05	6e-05	-7e-05	3
12591	6e-05	3e-05	0	-1e-05	-0.0001	-2e-05	6e-05	-7e-05	3
12592	6e-05	3e-05	0	-1e-05	-0.0001	-2e-05	6e-05	-7e-05	3
12593	6e-05	3e-05	0	-1e-05	-0.0001	-2e-05	6e-05	-7e-05	3
12594	6e-05	3e-05	0	-1e-05	-0.0001	-2e-05	6e-05	-7e-05	3
12595	6e-05	3e-05	0	-1e-05	-0.0001	-2e-05	6e-05	-7e-05	3
12596	6e-05	3e-05	0	-1e-05	-0.0001	-2e-05	6e-05	-7e-05	3
12597	6e-05	3e-05	0	-1e-05	-0.0001	-2e-05	6e-05	-7e-05	3
12598	6e-05	3e-05	0	-1e-05	-0.0001	-2e-05	6e-05	-7e-05	3
12599	6e-05	3e-05	0	-1e-05	-0.0001	-2e-05	6e-05	-7e-05	3
12600	6e-05	3e-05	0	-1e-05	-0.0001	-2e-05	6e-05	-7e-05	3
12601	6e-05	3e-05	0	-1e-05	-0.0001	-2e-05	6e-05	-7e-05	3
12602	6e-05	3e-05	0	-1e-05	-0.0001	-2e-05	6e-05	-7e-05	3
12603	6e-05	3e-05	0	-1e-05	-0.0001	-2e-05	6e-05	-7e-05	3
12604	6e-05	3e-05	0	-1e-05	-0.0001	-2e-05	6e-05	-7e-05	3
12605	6e-05	3e-05	0	-1e-05	-0.0001	-2e-05	6e-05	-7e-05	3
12606	6e-05	3e-05	0	-1e-05	-0.0001	-2e-05	6e-05	-7e-05	3
12607	6e-05	3e-05	0	-1e-05	-0.0001	-2e-05	6e-05	-7e-05	3
12608	2e-05	-1e-05	1e-05	-1e-05	7e-05	-9e-05	1e-05	-0.00023	3
12609	2e-05	-1e-05	1e-05	-1e-05	7e-05	-9e-05	1e-05	-0.00023	3
12610	-6e-05	6e-05	5e-05	5e-05	0.00014	1e-05	-5e-05	0.0002	3
12611	-6e-05	6e-05	5e-05	5e-05	0.00014	1e-05	-5e-05	0.0002	3
12612	-6e-05	6e-05	5e-05	5e-05	0.00014	1e-05	-5e-05	0.0002	3
12613	-6e-05	6e-05	5e-05	5e-05	0.00014	1e-05	-5e-05	0.0002	3
12614	-6e-05	6e-05	5e-05	5e-05	0.00014	1e-05	-5e-05	0.0002	3
12615	-6e-05	6e-05	5e-05	5e-05	0.00014	1e-05	-5e-05	0.0002	3
12616	-6e-05	6e-05	5e-05	5e-05	0.00014	1e-05	-5e-05	0.0002	3
12617	-6e-05	6e-05	5e-05	5e-05	0.00014	1e-05	-5e-05	0.0002	3
12618	-6e-05	6e-05	5e-05	5e-05	0.00014	1e-05	-5e-05	0.0002	3
12619	-6e-05	6e-05	5e-05	5e-05	0.00014	1e-05	-5e-05	0.0002	3
12620	-6e-05	6e-05	5e-05	5e-05	0.00014	1e-05	-5e-05	0.0002	3
12621	-6e-05	6e-05	5e-05	5e-05	0.00014	1e-05	-5e-05	0.0002	3
12622	-1e-05	-9e-05	-0.0001	-7e-05	-5e-05	-5e-05	-0.00021	0.00047	3
12623	-1e-05	-9e-05	-0.0001	-7e-05	-5e-05	-5e-05	-0.00021	0.00047	3
12624	-1e-05	-9e-05	-0.0001	-7e-05	-5e-05	-5e-05	-0.00021	0.00047	3
12625	-1e-05	-9e-05	-0.0001	-7e-05	-5e-05	-5e-05	-0.00021	0.00047	3
12626	-1e-05	-9e-05	-0.0001	-7e-05	-5e-05	-5e-05	-0.00021	0.00047	3
12627	-1e-05	-9e-05	-0.0001	-7e-05	-5e-05	-5e-05	-0.00021	0.00047	3
12628	-1e-05	-9e-05	-0.0001	-7e-05	-5e-05	-5e-05	-0.00021	0.00047	3
12629	-1e-05	-9e-05	-0.0001	-7e-05	-5e-05	-5e-05	-0.00021	0.00047	3
12630	-1e-05	-9e-05	-0.0001	-7e-05	-5e-05	-5e-05	-0.00021	0.00047	3
12631	-0.00014	-4e-05	-7e-05	-3e-05	1e-05	1e-05	0.00015	-0.00012	3
12632	-0.00014	-4e-05	-7e-05	-3e-05	1e-05	1e-05	0.00015	-0.00012	3
12633	-0.00014	-4e-05	-7e-05	-3e-05	1e-05	1e-05	0.00015	-0.00012	3
12634	-0.00014	-4e-05	-7e-05	-3e-05	1e-05	1e-05	0.00015	-0.00012	3
12635	-0.00014	-4e-05	-7e-05	-3e-05	1e-05	1e-05	0.00015	-0.00012	3
12637	-0.00014	-4e-05	-7e-05	-3e-05	1e-05	1e-05	0.00015	-0.00012	3
12640	-0.00014	-4e-05	-7e-05	-3e-05	1e-05	1e-05	0.00015	-0.00012	3
12641	-0.00014	-4e-05	-7e-05	-3e-05	1e-05	1e-05	0.00015	-0.00012	3
12642	-0.00014	-4e-05	-7e-05	-3e-05	1e-05	1e-05	0.00015	-0.00012	3
12643	-0.00014	-4e-05	-7e-05	-3e-05	1e-05	1e-05	0.00015	-0.00012	3
12644	-0.00014	-4e-05	-7e-05	-3e-05	1e-05	1e-05	0.00015	-0.00012	3
12645	-0.00014	-4e-05	-7e-05	-3e-05	1e-05	1e-05	0.00015	-0.00012	3
12646	-9e-05	-1e-05	0	-4e-05	-2e-05	-6e-05	-6e-05	-0.00038	3
12647	2e-05	-1e-05	0	3e-05	0.00022	0.00011	-0.0004	-1e-05	3
12648	2e-05	-1e-05	0	3e-05	0.00022	0.00011	-0.0004	-1e-05	3
12649	2e-05	-1e-05	0	3e-05	0.00022	0.00011	-0.0004	-1e-05	3
12650	2e-05	-1e-05	0	3e-05	0.00022	0.00011	-0.0004	-1e-05	3
12651	2e-05	-1e-05	0	3e-05	0.00022	0.00011	-0.0004	-1e-05	3
12652	2e-05	-1e-05	0	3e-05	0.00022	0.00011	-0.0004	-1e-05	3
12653	2e-05	-1e-05	0	3e-05	0.00022	0.00011	-0.0004	-1e-05	3
12654	2e-05	-1e-05	0	3e-05	0.00022	0.00011	-0.0004	-1e-05	3
12655	2e-05	-1e-05	0	3e-05	0.00022	0.00011	-0.0004	-1e-05	3
12656	2e-05	-1e-05	0	3e-05	0.00022	0.00011	-0.0004	-1e-05	3
12657	2e-05	-1e-05	0	3e-05	0.00022	0.00011	-0.0004	-1e-05	3
12658	2e-05	-1e-05	0	3e-05	0.00022	0.00011	-0.0004	-1e-05	3
12659	2e-05	-1e-05	0	3e-05	0.00022	0.00011	-0.0004	-1e-05	3
12660	2e-05	-1e-05	0	3e-05	0.00022	0.00011	-0.0004	-1e-05	3
12661	2e-05	-1e-05	0	3e-05	0.00022	0.00011	-0.0004	-1e-05	3
12662	2e-05	-1e-05	0	3e-05	0.00022	0.00011	-0.0004	-1e-05	3
12663	2e-05	-1e-05	0	3e-05	0.00022	0.00011	-0.0004	-1e-05	3
12664	2e-05	-1e-05	0	3e-05	0.00022	0.00011	-0.0004	-1e-05	3
12665	2e-05	-1e-05	0	3e-05	0.00022	0.00011	-0.0004	-1e-05	3
12666	2e-05	-1e-05	0	3e-05	0.00022	0.00011	-0.0004	-1e-05	3
12667	2e-05	-1e-05	0	3e-05	0.00022	0.00011	-0.0004	-1e-05	3
12668	-2e-05	1e-05	-1e-05	0	-4e-05	-2e-05	-8e-05	-8e-05	3
12669	-2e-05	1e-05	-1e-05	0	-4e-05	-2e-05	-8e-05	-8e-05	3
12670	-0.00013	-0.0001	-4e-05	-2e-05	-4e-05	-5e-05	-6e-05	-0.00021	3
12671	-5e-05	3e-05	4e-05	-1e-05	-7e-05	-3e-05	-3e-05	-2e-05	3
12672	-5e-05	3e-05	4e-05	-1e-05	-7e-05	-3e-05	-3e-05	-2e-05	3
12673	-5e-05	3e-05	4e-05	-1e-05	-7e-05	-3e-05	-3e-05	-2e-05	3
12674	-5e-05	3e-05	4e-05	-1e-05	-7e-05	-3e-05	-3e-05	-2e-05	3
12675	-5e-05	3e-05	4e-05	-1e-05	-7e-05	-3e-05	-3e-05	-2e-05	3
12676	-5e-05	3e-05	4e-05	-1e-05	-7e-05	-3e-05	-3e-05	-2e-05	3
12677	-5e-05	3e-05	4e-05	-1e-05	-7e-05	-3e-05	-3e-05	-2e-05	3
12678	-5e-05	3e-05	4e-05	-1e-05	-7e-05	-3e-05	-3e-05	-2e-05	3
12679	-5e-05	3e-05	4e-05	-1e-05	-7e-05	-3e-05	-3e-05	-2e-05	3
12680	-5e-05	3e-05	4e-05	-1e-05	-7e-05	-3e-05	-3e-05	-2e-05	3
12681	-5e-05	3e-05	4e-05	-1e-05	-7e-05	-3e-05	-3e-05	-2e-05	3
12682	4e-05	-3e-05	-3e-05	0	-1e-05	1e-05	0.00019	0.00061	3
12683	4e-05	-3e-05	-3e-05	0	-1e-05	1e-05	0.00019	0.00061	3
12684	4e-05	-3e-05	-3e-05	0	-1e-05	1e-05	0.00019	0.00061	3
12685	4e-05	-3e-05	-3e-05	0	-1e-05	1e-05	0.00019	0.00061	3
12686	4e-05	-3e-05	-3e-05	0	-1e-05	1e-05	0.00019	0.00061	3
12688	4e-05	-3e-05	-3e-05	0	-1e-05	1e-05	0.00019	0.00061	3
12689	4e-05	-3e-05	-3e-05	0	-1e-05	1e-05	0.00019	0.00061	3
12690	4e-05	-3e-05	-3e-05	0	-1e-05	1e-05	0.00019	0.00061	3
12691	2e-05	-4e-05	2e-05	-3e-05	-9e-05	-5e-05	0	9e-05	3
12692	2e-05	-4e-05	2e-05	-3e-05	-9e-05	-5e-05	0	9e-05	3
12693	2e-05	-4e-05	2e-05	-3e-05	-9e-05	-5e-05	0	9e-05	3
12694	2e-05	-4e-05	2e-05	-3e-05	-9e-05	-5e-05	0	9e-05	3
12695	2e-05	-4e-05	2e-05	-3e-05	-9e-05	-5e-05	0	9e-05	3
12696	2e-05	-4e-05	2e-05	-3e-05	-9e-05	-5e-05	0	9e-05	3
12697	2e-05	-4e-05	2e-05	-3e-05	-9e-05	-5e-05	0	9e-05	3
12698	2e-05	-4e-05	2e-05	-3e-05	-9e-05	-5e-05	0	9e-05	3
12699	2e-05	-4e-05	2e-05	-3e-05	-9e-05	-5e-05	0	9e-05	3
12700	2e-05	-4e-05	2e-05	-3e-05	-9e-05	-5e-05	0	9e-05	3
12701	2e-05	-4e-05	2e-05	-3e-05	-9e-05	-5e-05	0	9e-05	3
12702	2e-05	-4e-05	2e-05	-3e-05	-9e-05	-5e-05	0	9e-05	3
12703	2e-05	-4e-05	2e-05	-3e-05	-9e-05	-5e-05	0	9e-05	3
12704	2e-05	-4e-05	2e-05	-3e-05	-9e-05	-5e-05	0	9e-05	3
12705	2e-05	-4e-05	2e-05	-3e-05	-9e-05	-5e-05	0	9e-05	3
12706	-3e-05	-9e-05	-0.00013	-3e-05	0.00011	-3e-05	-8e-05	-0.00013	3
12707	-3e-05	-9e-05	-0.00013	-3e-05	0.00011	-3e-05	-8e-05	-0.00013	3
12708	1e-05	-5e-05	-2e-05	-4e-05	-0.00012	-5e-05	-3e-05	-7e-05	3
12709	1e-05	-5e-05	-2e-05	-4e-05	-0.00012	-5e-05	-3e-05	-7e-05	3
12710	1e-05	-5e-05	-2e-05	-4e-05	-0.00012	-5e-05	-3e-05	-7e-05	3
12711	1e-05	-5e-05	-2e-05	-4e-05	-0.00012	-5e-05	-3e-05	-7e-05	3
12712	1e-05	-5e-05	-2e-05	-4e-05	-0.00012	-5e-05	-3e-05	-7e-05	3
12713	1e-05	-5e-05	-2e-05	-4e-05	-0.00012	-5e-05	-3e-05	-7e-05	3
12714	1e-05	-5e-05	-2e-05	-4e-05	-0.00012	-5e-05	-3e-05	-7e-05	3
12715	1e-05	-5e-05	-2e-05	-4e-05	-0.00012	-5e-05	-3e-05	-7e-05	3
12716	1e-05	-5e-05	-2e-05	-4e-05	-0.00012	-5e-05	-3e-05	-7e-05	3
12717	1e-05	-5e-05	-2e-05	-4e-05	-0.00012	-5e-05	-3e-05	-7e-05	3
12718	1e-05	-5e-05	-2e-05	-4e-05	-0.00012	-5e-05	-3e-05	-7e-05	3
12719	1e-05	-5e-05	-2e-05	-4e-05	-0.00012	-5e-05	-3e-05	-7e-05	3
12720	1e-05	-5e-05	-2e-05	-4e-05	-0.00012	-5e-05	-3e-05	-7e-05	3
12721	1e-05	-5e-05	-2e-05	-4e-05	-0.00012	-5e-05	-3e-05	-7e-05	3
12722	1e-05	-5e-05	-2e-05	-4e-05	-0.00012	-5e-05	-3e-05	-7e-05	3
12723	1e-05	-5e-05	-2e-05	-4e-05	-0.00012	-5e-05	-3e-05	-7e-05	3
12724	1e-05	-5e-05	-2e-05	-4e-05	-0.00012	-5e-05	-3e-05	-7e-05	3
12725	1e-05	-5e-05	-2e-05	-4e-05	-0.00012	-5e-05	-3e-05	-7e-05	3
12726	1e-05	-5e-05	-2e-05	-4e-05	-0.00012	-5e-05	-3e-05	-7e-05	3
12727	1e-05	-5e-05	-2e-05	-4e-05	-0.00012	-5e-05	-3e-05	-7e-05	3
12728	-9e-05	1e-05	-1e-05	0	1e-05	0	-4e-05	-0.0003	3
12729	-9e-05	1e-05	-1e-05	0	1e-05	0	-4e-05	-0.0003	3
12730	2e-05	3e-05	4e-05	4e-05	9e-05	1e-05	0.00028	6e-05	3
12731	2e-05	3e-05	4e-05	4e-05	9e-05	1e-05	0.00028	6e-05	3
12732	2e-05	3e-05	4e-05	4e-05	9e-05	1e-05	0.00028	6e-05	3
12733	2e-05	3e-05	4e-05	4e-05	9e-05	1e-05	0.00028	6e-05	3
12734	2e-05	3e-05	4e-05	4e-05	9e-05	1e-05	0.00028	6e-05	3
12735	2e-05	3e-05	4e-05	4e-05	9e-05	1e-05	0.00028	6e-05	3
12736	2e-05	3e-05	4e-05	4e-05	9e-05	1e-05	0.00028	6e-05	3
12738	2e-05	3e-05	4e-05	4e-05	9e-05	1e-05	0.00028	6e-05	3
12739	2e-05	3e-05	4e-05	4e-05	9e-05	1e-05	0.00028	6e-05	3
12740	2e-05	3e-05	4e-05	4e-05	9e-05	1e-05	0.00028	6e-05	3
12741	2e-05	3e-05	4e-05	4e-05	9e-05	1e-05	0.00028	6e-05	3
12742	-1e-05	2e-05	0	-5e-05	-0.0001	-6e-05	1e-05	0.00016	3
12743	-1e-05	2e-05	0	-5e-05	-0.0001	-6e-05	1e-05	0.00016	3
12744	-1e-05	2e-05	0	-5e-05	-0.0001	-6e-05	1e-05	0.00016	3
12745	-1e-05	2e-05	0	-5e-05	-0.0001	-6e-05	1e-05	0.00016	3
12746	-1e-05	2e-05	0	-5e-05	-0.0001	-6e-05	1e-05	0.00016	3
12747	-1e-05	2e-05	0	-5e-05	-0.0001	-6e-05	1e-05	0.00016	3
12748	-1e-05	2e-05	0	-5e-05	-0.0001	-6e-05	1e-05	0.00016	3
12749	-1e-05	2e-05	0	-5e-05	-0.0001	-6e-05	1e-05	0.00016	3
12750	-1e-05	2e-05	0	-5e-05	-0.0001	-6e-05	1e-05	0.00016	3
12751	-0.0001	-4e-05	-6e-05	-7e-05	-0.00013	-8e-05	8e-05	0.00015	3
12752	-0.0001	-4e-05	-6e-05	-7e-05	-0.00013	-8e-05	8e-05	0.00015	3
12753	-0.0001	-4e-05	-6e-05	-7e-05	-0.00013	-8e-05	8e-05	0.00015	3
12754	-0.0001	-4e-05	-6e-05	-7e-05	-0.00013	-8e-05	8e-05	0.00015	3
12755	-0.0001	-4e-05	-6e-05	-7e-05	-0.00013	-8e-05	8e-05	0.00015	3
12756	-0.0001	-4e-05	-6e-05	-7e-05	-0.00013	-8e-05	8e-05	0.00015	3
12757	-0.0001	-4e-05	-6e-05	-7e-05	-0.00013	-8e-05	8e-05	0.00015	3
12758	-0.0001	-4e-05	-6e-05	-7e-05	-0.00013	-8e-05	8e-05	0.00015	3
12759	-0.0001	-4e-05	-6e-05	-7e-05	-0.00013	-8e-05	8e-05	0.00015	3
12760	-0.0001	-4e-05	-6e-05	-7e-05	-0.00013	-8e-05	8e-05	0.00015	3
12761	-0.0001	-4e-05	-6e-05	-7e-05	-0.00013	-8e-05	8e-05	0.00015	3
12762	-0.0001	-4e-05	-6e-05	-7e-05	-0.00013	-8e-05	8e-05	0.00015	3
12763	-0.0001	-4e-05	-6e-05	-7e-05	-0.00013	-8e-05	8e-05	0.00015	3
12764	-0.0001	-4e-05	-6e-05	-7e-05	-0.00013	-8e-05	8e-05	0.00015	3
12765	-0.0001	-4e-05	-6e-05	-7e-05	-0.00013	-8e-05	8e-05	0.00015	3
12766	0.00012	0	0	2e-05	-3e-05	-4e-05	-0.00017	0.00012	3
12767	1e-05	-2e-05	-2e-05	0	-1e-05	3e-05	3e-05	5e-05	3
12768	1e-05	-2e-05	-2e-05	0	-1e-05	3e-05	3e-05	5e-05	3
12769	1e-05	-2e-05	-2e-05	0	-1e-05	3e-05	3e-05	5e-05	3
12770	1e-05	-2e-05	-2e-05	0	-1e-05	3e-05	3e-05	5e-05	3
12771	1e-05	-2e-05	-2e-05	0	-1e-05	3e-05	3e-05	5e-05	3
12772	1e-05	-2e-05	-2e-05	0	-1e-05	3e-05	3e-05	5e-05	3
12773	1e-05	-2e-05	-2e-05	0	-1e-05	3e-05	3e-05	5e-05	3
12774	1e-05	-2e-05	-2e-05	0	-1e-05	3e-05	3e-05	5e-05	3
12775	1e-05	-2e-05	-2e-05	0	-1e-05	3e-05	3e-05	5e-05	3
12776	1e-05	-2e-05	-2e-05	0	-1e-05	3e-05	3e-05	5e-05	3
12777	1e-05	-2e-05	-2e-05	0	-1e-05	3e-05	3e-05	5e-05	3
12778	1e-05	-2e-05	-2e-05	0	-1e-05	3e-05	3e-05	5e-05	3
12779	1e-05	-2e-05	-2e-05	0	-1e-05	3e-05	3e-05	5e-05	3
12780	1e-05	-2e-05	-2e-05	0	-1e-05	3e-05	3e-05	5e-05	3
12781	1e-05	-2e-05	-2e-05	0	-1e-05	3e-05	3e-05	5e-05	3
12782	1e-05	-2e-05	-2e-05	0	-1e-05	3e-05	3e-05	5e-05	3
12783	1e-05	-2e-05	-2e-05	0	-1e-05	3e-05	3e-05	5e-05	3
12784	1e-05	-2e-05	-2e-05	0	-1e-05	3e-05	3e-05	5e-05	3
12785	1e-05	-2e-05	-2e-05	0	-1e-05	3e-05	3e-05	5e-05	3
12786	1e-05	-2e-05	-2e-05	0	-1e-05	3e-05	3e-05	5e-05	3
12789	-8e-05	0.00011	9e-05	3e-05	2e-05	7e-05	3e-05	-0.00021	3
12790	-8e-05	0.00011	9e-05	3e-05	2e-05	7e-05	3e-05	-0.00021	3
12791	3e-05	-4e-05	-0.00012	-4e-05	-6e-05	-5e-05	9e-05	0.00017	3
12792	3e-05	-4e-05	-0.00012	-4e-05	-6e-05	-5e-05	9e-05	0.00017	3
12793	3e-05	-4e-05	-0.00012	-4e-05	-6e-05	-5e-05	9e-05	0.00017	3
12794	3e-05	-4e-05	-0.00012	-4e-05	-6e-05	-5e-05	9e-05	0.00017	3
12795	3e-05	-4e-05	-0.00012	-4e-05	-6e-05	-5e-05	9e-05	0.00017	3
12796	3e-05	-4e-05	-0.00012	-4e-05	-6e-05	-5e-05	9e-05	0.00017	3
12797	3e-05	-4e-05	-0.00012	-4e-05	-6e-05	-5e-05	9e-05	0.00017	3
12798	3e-05	-4e-05	-0.00012	-4e-05	-6e-05	-5e-05	9e-05	0.00017	3
12799	3e-05	-4e-05	-0.00012	-4e-05	-6e-05	-5e-05	9e-05	0.00017	3
12800	3e-05	-4e-05	-0.00012	-4e-05	-6e-05	-5e-05	9e-05	0.00017	3
12801	3e-05	-4e-05	-0.00012	-4e-05	-6e-05	-5e-05	9e-05	0.00017	3
12802	-3e-05	-4e-05	-5e-05	-2e-05	0	-7e-05	-0.00013	-6e-05	3
12803	6e-05	2e-05	4e-05	-2e-05	-6e-05	-2e-05	-9e-05	7e-05	3
12804	6e-05	2e-05	4e-05	-2e-05	-6e-05	-2e-05	-9e-05	7e-05	3
12805	6e-05	2e-05	4e-05	-2e-05	-6e-05	-2e-05	-9e-05	7e-05	3
12806	6e-05	2e-05	4e-05	-2e-05	-6e-05	-2e-05	-9e-05	7e-05	3
12807	6e-05	2e-05	4e-05	-2e-05	-6e-05	-2e-05	-9e-05	7e-05	3
12808	6e-05	2e-05	4e-05	-2e-05	-6e-05	-2e-05	-9e-05	7e-05	3
12809	6e-05	2e-05	4e-05	-2e-05	-6e-05	-2e-05	-9e-05	7e-05	3
12810	6e-05	2e-05	4e-05	-2e-05	-6e-05	-2e-05	-9e-05	7e-05	3
12811	6e-05	2e-05	4e-05	-2e-05	-6e-05	-2e-05	-9e-05	7e-05	3
12812	6e-05	2e-05	4e-05	-2e-05	-6e-05	-2e-05	-9e-05	7e-05	3
12813	6e-05	2e-05	4e-05	-2e-05	-6e-05	-2e-05	-9e-05	7e-05	3
12814	6e-05	2e-05	4e-05	-2e-05	-6e-05	-2e-05	-9e-05	7e-05	3
12815	6e-05	2e-05	4e-05	-2e-05	-6e-05	-2e-05	-9e-05	7e-05	3
12816	6e-05	2e-05	4e-05	-2e-05	-6e-05	-2e-05	-9e-05	7e-05	3
12817	6e-05	2e-05	4e-05	-2e-05	-6e-05	-2e-05	-9e-05	7e-05	3
12818	6e-05	2e-05	4e-05	-2e-05	-6e-05	-2e-05	-9e-05	7e-05	3
12819	0	-3e-05	2e-05	1e-05	-8e-05	-2e-05	9e-05	-5e-05	3
12820	0	-3e-05	2e-05	1e-05	-8e-05	-2e-05	9e-05	-5e-05	3
12821	0	-3e-05	2e-05	1e-05	-8e-05	-2e-05	9e-05	-5e-05	3
12822	0	-3e-05	2e-05	1e-05	-8e-05	-2e-05	9e-05	-5e-05	3
12823	0	-3e-05	2e-05	1e-05	-8e-05	-2e-05	9e-05	-5e-05	3
12824	0	-3e-05	2e-05	1e-05	-8e-05	-2e-05	9e-05	-5e-05	3
12825	0	-3e-05	2e-05	1e-05	-8e-05	-2e-05	9e-05	-5e-05	3
12826	-2e-05	-2e-05	-1e-05	-1e-05	-0.0001	-6e-05	-9e-05	-3e-05	3
12827	0	-2e-05	-1e-05	-1e-05	4e-05	-4e-05	0	-2e-05	3
12828	0	-2e-05	-1e-05	-1e-05	4e-05	-4e-05	0	-2e-05	3
12829	0	-2e-05	-1e-05	-1e-05	4e-05	-4e-05	0	-2e-05	3
12830	0	-2e-05	-1e-05	-1e-05	4e-05	-4e-05	0	-2e-05	3
12831	0	-2e-05	-1e-05	-1e-05	4e-05	-4e-05	0	-2e-05	3
12832	0	-2e-05	-1e-05	-1e-05	4e-05	-4e-05	0	-2e-05	3
12833	0	-2e-05	-1e-05	-1e-05	4e-05	-4e-05	0	-2e-05	3
12834	0	-2e-05	-1e-05	-1e-05	4e-05	-4e-05	0	-2e-05	3
12835	0	-2e-05	-1e-05	-1e-05	4e-05	-4e-05	0	-2e-05	3
12836	0	-2e-05	-1e-05	-1e-05	4e-05	-4e-05	0	-2e-05	3
12839	0	-2e-05	-1e-05	-1e-05	4e-05	-4e-05	0	-2e-05	3
12840	0	-2e-05	-1e-05	-1e-05	4e-05	-4e-05	0	-2e-05	3
12841	0	-2e-05	-1e-05	-1e-05	4e-05	-4e-05	0	-2e-05	3
12842	0	-2e-05	-1e-05	-1e-05	4e-05	-4e-05	0	-2e-05	3
12843	0	-2e-05	-1e-05	-1e-05	4e-05	-4e-05	0	-2e-05	3
12844	0	-2e-05	-1e-05	-1e-05	4e-05	-4e-05	0	-2e-05	3
12845	0	-2e-05	-1e-05	-1e-05	4e-05	-4e-05	0	-2e-05	3
12846	0	-2e-05	-1e-05	-1e-05	4e-05	-4e-05	0	-2e-05	3
12847	0	-2e-05	-1e-05	-1e-05	4e-05	-4e-05	0	-2e-05	3
12848	0.00013	0.00013	5e-05	6e-05	0.00018	0.00019	0.00041	0.00034	3
12849	-0.00013	-3e-05	1e-05	-1e-05	0	-6e-05	-3e-05	-0.00014	3
12850	6e-05	6e-05	-3e-05	-4e-05	-0.00011	-7e-05	-6e-05	-2e-05	3
12851	6e-05	6e-05	-3e-05	-4e-05	-0.00011	-7e-05	-6e-05	-2e-05	3
12852	6e-05	6e-05	-3e-05	-4e-05	-0.00011	-7e-05	-6e-05	-2e-05	3
12853	6e-05	6e-05	-3e-05	-4e-05	-0.00011	-7e-05	-6e-05	-2e-05	3
12854	6e-05	6e-05	-3e-05	-4e-05	-0.00011	-7e-05	-6e-05	-2e-05	3
12855	6e-05	6e-05	-3e-05	-4e-05	-0.00011	-7e-05	-6e-05	-2e-05	3
12856	6e-05	6e-05	-3e-05	-4e-05	-0.00011	-7e-05	-6e-05	-2e-05	3
12857	6e-05	6e-05	-3e-05	-4e-05	-0.00011	-7e-05	-6e-05	-2e-05	3
12858	6e-05	6e-05	-3e-05	-4e-05	-0.00011	-7e-05	-6e-05	-2e-05	3
12859	6e-05	6e-05	-3e-05	-4e-05	-0.00011	-7e-05	-6e-05	-2e-05	3
12860	6e-05	6e-05	-3e-05	-4e-05	-0.00011	-7e-05	-6e-05	-2e-05	3
12861	6e-05	6e-05	-3e-05	-4e-05	-0.00011	-7e-05	-6e-05	-2e-05	3
12862	-0.00016	-0.0001	-5e-05	-5e-05	0	0	-0.00011	-0.00033	3
12863	0.00011	3e-05	4e-05	1e-05	-4e-05	3e-05	0.00024	0.00048	3
12864	0.00011	3e-05	4e-05	1e-05	-4e-05	3e-05	0.00024	0.00048	3
12865	0.00011	3e-05	4e-05	1e-05	-4e-05	3e-05	0.00024	0.00048	3
12866	0.00011	3e-05	4e-05	1e-05	-4e-05	3e-05	0.00024	0.00048	3
12867	0.00011	3e-05	4e-05	1e-05	-4e-05	3e-05	0.00024	0.00048	3
12868	0.00011	3e-05	4e-05	1e-05	-4e-05	3e-05	0.00024	0.00048	3
12869	0.00011	3e-05	4e-05	1e-05	-4e-05	3e-05	0.00024	0.00048	3
12870	0.00011	3e-05	4e-05	1e-05	-4e-05	3e-05	0.00024	0.00048	3
12871	7e-05	7e-05	3e-05	-1e-05	-3e-05	6e-05	3e-05	-9e-05	3
12872	7e-05	7e-05	3e-05	-1e-05	-3e-05	6e-05	3e-05	-9e-05	3
12873	7e-05	7e-05	3e-05	-1e-05	-3e-05	6e-05	3e-05	-9e-05	3
12874	7e-05	7e-05	3e-05	-1e-05	-3e-05	6e-05	3e-05	-9e-05	3
12875	7e-05	7e-05	3e-05	-1e-05	-3e-05	6e-05	3e-05	-9e-05	3
12876	7e-05	7e-05	3e-05	-1e-05	-3e-05	6e-05	3e-05	-9e-05	3
12877	7e-05	7e-05	3e-05	-1e-05	-3e-05	6e-05	3e-05	-9e-05	3
12878	7e-05	7e-05	3e-05	-1e-05	-3e-05	6e-05	3e-05	-9e-05	3
12879	7e-05	7e-05	3e-05	-1e-05	-3e-05	6e-05	3e-05	-9e-05	3
12880	7e-05	7e-05	3e-05	-1e-05	-3e-05	6e-05	3e-05	-9e-05	3
12881	7e-05	7e-05	3e-05	-1e-05	-3e-05	6e-05	3e-05	-9e-05	3
12882	7e-05	7e-05	3e-05	-1e-05	-3e-05	6e-05	3e-05	-9e-05	3
12883	7e-05	7e-05	3e-05	-1e-05	-3e-05	6e-05	3e-05	-9e-05	3
12884	7e-05	7e-05	3e-05	-1e-05	-3e-05	6e-05	3e-05	-9e-05	3
12885	7e-05	7e-05	3e-05	-1e-05	-3e-05	6e-05	3e-05	-9e-05	3
12886	7e-05	7e-05	3e-05	-1e-05	-3e-05	6e-05	3e-05	-9e-05	3
12888	-4e-05	-1e-05	1e-05	2e-05	2e-05	1e-05	-6e-05	0.00012	3
12889	-4e-05	-1e-05	1e-05	2e-05	2e-05	1e-05	-6e-05	0.00012	3
12890	-4e-05	-1e-05	1e-05	2e-05	2e-05	1e-05	-6e-05	0.00012	3
12891	-4e-05	-1e-05	1e-05	2e-05	2e-05	1e-05	-6e-05	0.00012	3
12892	-4e-05	-1e-05	1e-05	2e-05	2e-05	1e-05	-6e-05	0.00012	3
12893	-4e-05	-1e-05	1e-05	2e-05	2e-05	1e-05	-6e-05	0.00012	3
12894	-4e-05	-1e-05	1e-05	2e-05	2e-05	1e-05	-6e-05	0.00012	3
12895	-4e-05	-1e-05	1e-05	2e-05	2e-05	1e-05	-6e-05	0.00012	3
12896	-4e-05	-1e-05	1e-05	2e-05	2e-05	1e-05	-6e-05	0.00012	3
12897	-4e-05	-1e-05	1e-05	2e-05	2e-05	1e-05	-6e-05	0.00012	3
12898	-4e-05	-1e-05	1e-05	2e-05	2e-05	1e-05	-6e-05	0.00012	3
12899	-4e-05	-1e-05	1e-05	2e-05	2e-05	1e-05	-6e-05	0.00012	3
12900	-4e-05	-1e-05	1e-05	2e-05	2e-05	1e-05	-6e-05	0.00012	3
12901	-4e-05	-1e-05	1e-05	2e-05	2e-05	1e-05	-6e-05	0.00012	3
12902	-4e-05	-1e-05	1e-05	2e-05	2e-05	1e-05	-6e-05	0.00012	3
12903	-4e-05	-1e-05	1e-05	2e-05	2e-05	1e-05	-6e-05	0.00012	3
12904	-4e-05	-1e-05	1e-05	2e-05	2e-05	1e-05	-6e-05	0.00012	3
12905	-4e-05	-1e-05	1e-05	2e-05	2e-05	1e-05	-6e-05	0.00012	3
12906	-4e-05	-1e-05	1e-05	2e-05	2e-05	1e-05	-6e-05	0.00012	3
12907	-4e-05	-1e-05	1e-05	2e-05	2e-05	1e-05	-6e-05	0.00012	3
12908	4e-05	3e-05	1e-05	-2e-05	-1e-05	0	0.00014	0.00011	3
12909	-1e-05	2e-05	1e-05	0	-5e-05	-3e-05	7e-05	0.00016	3
12910	5e-05	3e-05	-2e-05	-1e-05	-7e-05	-3e-05	-0.00017	0.00071	3
12911	5e-05	3e-05	-2e-05	-1e-05	-7e-05	-3e-05	-0.00017	0.00071	3
12912	5e-05	3e-05	-2e-05	-1e-05	-7e-05	-3e-05	-0.00017	0.00071	3
12913	5e-05	3e-05	-2e-05	-1e-05	-7e-05	-3e-05	-0.00017	0.00071	3
12914	5e-05	3e-05	-2e-05	-1e-05	-7e-05	-3e-05	-0.00017	0.00071	3
12915	5e-05	3e-05	-2e-05	-1e-05	-7e-05	-3e-05	-0.00017	0.00071	3
12916	5e-05	3e-05	-2e-05	-1e-05	-7e-05	-3e-05	-0.00017	0.00071	3
12917	5e-05	3e-05	-2e-05	-1e-05	-7e-05	-3e-05	-0.00017	0.00071	3
12918	5e-05	3e-05	-2e-05	-1e-05	-7e-05	-3e-05	-0.00017	0.00071	3
12919	5e-05	3e-05	-2e-05	-1e-05	-7e-05	-3e-05	-0.00017	0.00071	3
12920	5e-05	3e-05	-2e-05	-1e-05	-7e-05	-3e-05	-0.00017	0.00071	3
12921	5e-05	3e-05	-2e-05	-1e-05	-7e-05	-3e-05	-0.00017	0.00071	3
12922	-0.00014	-3e-05	0	-1e-05	2e-05	-4e-05	-2e-05	-0.00032	3
12923	-0.00014	-3e-05	0	-1e-05	2e-05	-4e-05	-2e-05	-0.00032	3
12924	-0.00014	-3e-05	0	-1e-05	2e-05	-4e-05	-2e-05	-0.00032	3
12925	-0.00014	-3e-05	0	-1e-05	2e-05	-4e-05	-2e-05	-0.00032	3
12926	-0.00014	-3e-05	0	-1e-05	2e-05	-4e-05	-2e-05	-0.00032	3
12927	-0.00014	-3e-05	0	-1e-05	2e-05	-4e-05	-2e-05	-0.00032	3
12928	-0.00014	-3e-05	0	-1e-05	2e-05	-4e-05	-2e-05	-0.00032	3
12929	-0.00014	-3e-05	0	-1e-05	2e-05	-4e-05	-2e-05	-0.00032	3
12930	-0.00014	-3e-05	0	-1e-05	2e-05	-4e-05	-2e-05	-0.00032	3
12931	-0.00014	-3e-05	0	-1e-05	2e-05	-4e-05	-2e-05	-0.00032	3
12932	-0.00014	-3e-05	0	-1e-05	2e-05	-4e-05	-2e-05	-0.00032	3
12933	-0.00014	-3e-05	0	-1e-05	2e-05	-4e-05	-2e-05	-0.00032	3
12934	-0.00014	-3e-05	0	-1e-05	2e-05	-4e-05	-2e-05	-0.00032	3
12935	-0.00014	-3e-05	0	-1e-05	2e-05	-4e-05	-2e-05	-0.00032	3
12936	-0.00014	-3e-05	0	-1e-05	2e-05	-4e-05	-2e-05	-0.00032	3
12940	-0.00014	-3e-05	0	-1e-05	2e-05	-4e-05	-2e-05	-0.00032	3
12941	-0.00014	-3e-05	0	-1e-05	2e-05	-4e-05	-2e-05	-0.00032	3
12942	-0.00014	-3e-05	0	-1e-05	2e-05	-4e-05	-2e-05	-0.00032	3
12943	-0.00014	-3e-05	0	-1e-05	2e-05	-4e-05	-2e-05	-0.00032	3
12944	-0.00014	-3e-05	0	-1e-05	2e-05	-4e-05	-2e-05	-0.00032	3
12945	-0.00014	-3e-05	0	-1e-05	2e-05	-4e-05	-2e-05	-0.00032	3
12946	-0.00014	-3e-05	0	-1e-05	2e-05	-4e-05	-2e-05	-0.00032	3
12947	3e-05	-1e-05	2e-05	-2e-05	-3e-05	3e-05	3e-05	-0.00016	3
12948	-1e-05	-4e-05	-3e-05	2e-05	6e-05	-1e-05	-2e-05	7e-05	3
12949	2e-05	3e-05	0	-1e-05	-2e-05	-4e-05	5e-05	4e-05	3
12950	-3e-05	-5e-05	-4e-05	4e-05	7e-05	3e-05	-6e-05	-0.00013	3
12951	-3e-05	-5e-05	-4e-05	4e-05	7e-05	3e-05	-6e-05	-0.00013	3
12952	-3e-05	-5e-05	-4e-05	4e-05	7e-05	3e-05	-6e-05	-0.00013	3
12953	-3e-05	-5e-05	-4e-05	4e-05	7e-05	3e-05	-6e-05	-0.00013	3
12954	-3e-05	-5e-05	-4e-05	4e-05	7e-05	3e-05	-6e-05	-0.00013	3
12955	-3e-05	-5e-05	-4e-05	4e-05	7e-05	3e-05	-6e-05	-0.00013	3
12956	-3e-05	-5e-05	-4e-05	4e-05	7e-05	3e-05	-6e-05	-0.00013	3
12957	-3e-05	-5e-05	-4e-05	4e-05	7e-05	3e-05	-6e-05	-0.00013	3
12958	-3e-05	-5e-05	-4e-05	4e-05	7e-05	3e-05	-6e-05	-0.00013	3
12959	-3e-05	-5e-05	-4e-05	4e-05	7e-05	3e-05	-6e-05	-0.00013	3
12960	-3e-05	-5e-05	-4e-05	4e-05	7e-05	3e-05	-6e-05	-0.00013	3
12961	-3e-05	-5e-05	-4e-05	4e-05	7e-05	3e-05	-6e-05	-0.00013	3
12962	-3e-05	-5e-05	-4e-05	4e-05	7e-05	3e-05	-6e-05	-0.00013	3
12963	-3e-05	-5e-05	-4e-05	4e-05	7e-05	3e-05	-6e-05	-0.00013	3
12964	-3e-05	-5e-05	-4e-05	4e-05	7e-05	3e-05	-6e-05	-0.00013	3
12965	-3e-05	-5e-05	-4e-05	4e-05	7e-05	3e-05	-6e-05	-0.00013	3
12966	-3e-05	-5e-05	-4e-05	4e-05	7e-05	3e-05	-6e-05	-0.00013	3
12967	-3e-05	-5e-05	-4e-05	4e-05	7e-05	3e-05	-6e-05	-0.00013	3
12968	-5e-05	-6e-05	-1e-05	-1e-05	-7e-05	-1e-05	1e-05	-4e-05	3
12969	-1e-05	2e-05	0	5e-05	0.00024	4e-05	-0.0001	0	3
12970	2e-05	-3e-05	-6e-05	0	6e-05	-5e-05	-7e-05	-2e-05	3
12971	2e-05	-3e-05	-6e-05	0	6e-05	-5e-05	-7e-05	-2e-05	3
12972	2e-05	-3e-05	-6e-05	0	6e-05	-5e-05	-7e-05	-2e-05	3
12973	2e-05	-3e-05	-6e-05	0	6e-05	-5e-05	-7e-05	-2e-05	3
12974	2e-05	-3e-05	-6e-05	0	6e-05	-5e-05	-7e-05	-2e-05	3
12975	2e-05	-3e-05	-6e-05	0	6e-05	-5e-05	-7e-05	-2e-05	3
12976	2e-05	-3e-05	-6e-05	0	6e-05	-5e-05	-7e-05	-2e-05	3
12977	2e-05	-3e-05	-6e-05	0	6e-05	-5e-05	-7e-05	-2e-05	3
12978	2e-05	-3e-05	-6e-05	0	6e-05	-5e-05	-7e-05	-2e-05	3
12979	2e-05	-3e-05	-6e-05	0	6e-05	-5e-05	-7e-05	-2e-05	3
12980	2e-05	-3e-05	-6e-05	0	6e-05	-5e-05	-7e-05	-2e-05	3
12981	2e-05	-3e-05	-6e-05	0	6e-05	-5e-05	-7e-05	-2e-05	3
12982	-0.00014	-0.0001	-0.00011	-5e-05	-0.00011	-2e-05	-2e-05	2e-05	3
12983	7e-05	1e-05	0.00013	3e-05	1e-05	-1e-05	0	-0.00012	3
12984	7e-05	1e-05	0.00013	3e-05	1e-05	-1e-05	0	-0.00012	3
12985	7e-05	1e-05	0.00013	3e-05	1e-05	-1e-05	0	-0.00012	3
12987	7e-05	1e-05	0.00013	3e-05	1e-05	-1e-05	0	-0.00012	3
12989	7e-05	1e-05	0.00013	3e-05	1e-05	-1e-05	0	-0.00012	3
12990	7e-05	1e-05	0.00013	3e-05	1e-05	-1e-05	0	-0.00012	3
12991	-4e-05	5e-05	1e-05	-1e-05	0	5e-05	-0.00014	-7e-05	3
12992	-4e-05	5e-05	1e-05	-1e-05	0	5e-05	-0.00014	-7e-05	3
12993	-4e-05	5e-05	1e-05	-1e-05	0	5e-05	-0.00014	-7e-05	3
12994	-4e-05	5e-05	1e-05	-1e-05	0	5e-05	-0.00014	-7e-05	3
12995	-4e-05	5e-05	1e-05	-1e-05	0	5e-05	-0.00014	-7e-05	3
12996	-4e-05	5e-05	1e-05	-1e-05	0	5e-05	-0.00014	-7e-05	3
12997	-4e-05	5e-05	1e-05	-1e-05	0	5e-05	-0.00014	-7e-05	3
12998	-4e-05	5e-05	1e-05	-1e-05	0	5e-05	-0.00014	-7e-05	3
12999	-4e-05	5e-05	1e-05	-1e-05	0	5e-05	-0.00014	-7e-05	3
13000	-4e-05	5e-05	1e-05	-1e-05	0	5e-05	-0.00014	-7e-05	3
13001	-4e-05	5e-05	1e-05	-1e-05	0	5e-05	-0.00014	-7e-05	3
13002	-4e-05	5e-05	1e-05	-1e-05	0	5e-05	-0.00014	-7e-05	3
13003	-4e-05	5e-05	1e-05	-1e-05	0	5e-05	-0.00014	-7e-05	3
13004	-4e-05	5e-05	1e-05	-1e-05	0	5e-05	-0.00014	-7e-05	3
13005	-4e-05	5e-05	1e-05	-1e-05	0	5e-05	-0.00014	-7e-05	3
13006	0	-5e-05	-5e-05	-1e-05	-3e-05	-1e-05	-4e-05	0	3
13007	0	-5e-05	-5e-05	-1e-05	-3e-05	-1e-05	-4e-05	0	3
13008	3e-05	-4e-05	-2e-05	1e-05	0	-4e-05	2e-05	-0.00042	3
13009	3e-05	-4e-05	-2e-05	1e-05	0	-4e-05	2e-05	-0.00042	3
13010	3e-05	-4e-05	-2e-05	1e-05	0	-4e-05	2e-05	-0.00042	3
13011	3e-05	-4e-05	-2e-05	1e-05	0	-4e-05	2e-05	-0.00042	3
13012	3e-05	-4e-05	-2e-05	1e-05	0	-4e-05	2e-05	-0.00042	3
13013	3e-05	-4e-05	-2e-05	1e-05	0	-4e-05	2e-05	-0.00042	3
13014	3e-05	-4e-05	-2e-05	1e-05	0	-4e-05	2e-05	-0.00042	3
13015	3e-05	-4e-05	-2e-05	1e-05	0	-4e-05	2e-05	-0.00042	3
13016	3e-05	-4e-05	-2e-05	1e-05	0	-4e-05	2e-05	-0.00042	3
13017	3e-05	-4e-05	-2e-05	1e-05	0	-4e-05	2e-05	-0.00042	3
13018	3e-05	-4e-05	-2e-05	1e-05	0	-4e-05	2e-05	-0.00042	3
13019	3e-05	-4e-05	-2e-05	1e-05	0	-4e-05	2e-05	-0.00042	3
13020	3e-05	-4e-05	-2e-05	1e-05	0	-4e-05	2e-05	-0.00042	3
13021	3e-05	-4e-05	-2e-05	1e-05	0	-4e-05	2e-05	-0.00042	3
13022	3e-05	-4e-05	-2e-05	1e-05	0	-4e-05	2e-05	-0.00042	3
13023	3e-05	-4e-05	-2e-05	1e-05	0	-4e-05	2e-05	-0.00042	3
13024	3e-05	-4e-05	-2e-05	1e-05	0	-4e-05	2e-05	-0.00042	3
13025	3e-05	-4e-05	-2e-05	1e-05	0	-4e-05	2e-05	-0.00042	3
13026	3e-05	-4e-05	-2e-05	1e-05	0	-4e-05	2e-05	-0.00042	3
13027	3e-05	-4e-05	-2e-05	1e-05	0	-4e-05	2e-05	-0.00042	3
13028	-0.00018	-4e-05	-3e-05	-4e-05	1e-05	0.0001	-0.00012	-0.00032	3
13029	-0.00018	-4e-05	-3e-05	-4e-05	1e-05	0.0001	-0.00012	-0.00032	3
13030	0	1e-05	1e-05	-3e-05	-5e-05	-5e-05	4e-05	2e-05	3
13031	0	1e-05	1e-05	-3e-05	-5e-05	-5e-05	4e-05	2e-05	3
13032	0	1e-05	1e-05	-3e-05	-5e-05	-5e-05	4e-05	2e-05	3
13033	0	1e-05	1e-05	-3e-05	-5e-05	-5e-05	4e-05	2e-05	3
13034	0	1e-05	1e-05	-3e-05	-5e-05	-5e-05	4e-05	2e-05	3
13035	0	1e-05	1e-05	-3e-05	-5e-05	-5e-05	4e-05	2e-05	3
13037	0	1e-05	1e-05	-3e-05	-5e-05	-5e-05	4e-05	2e-05	3
13040	0	1e-05	1e-05	-3e-05	-5e-05	-5e-05	4e-05	2e-05	3
13041	0	1e-05	1e-05	-3e-05	-5e-05	-5e-05	4e-05	2e-05	3
13042	1e-05	-2e-05	1e-05	-1e-05	-1e-05	-3e-05	0.00028	0.00014	3
13043	1e-05	-2e-05	1e-05	-1e-05	-1e-05	-3e-05	0.00028	0.00014	3
13044	1e-05	-2e-05	1e-05	-1e-05	-1e-05	-3e-05	0.00028	0.00014	3
13045	1e-05	-2e-05	1e-05	-1e-05	-1e-05	-3e-05	0.00028	0.00014	3
13046	1e-05	-2e-05	1e-05	-1e-05	-1e-05	-3e-05	0.00028	0.00014	3
13047	1e-05	-2e-05	1e-05	-1e-05	-1e-05	-3e-05	0.00028	0.00014	3
13048	1e-05	-2e-05	1e-05	-1e-05	-1e-05	-3e-05	0.00028	0.00014	3
13049	1e-05	-2e-05	1e-05	-1e-05	-1e-05	-3e-05	0.00028	0.00014	3
13050	1e-05	-2e-05	1e-05	-1e-05	-1e-05	-3e-05	0.00028	0.00014	3
13051	1e-05	-2e-05	1e-05	-1e-05	-1e-05	-3e-05	0.00028	0.00014	3
13052	1e-05	-2e-05	1e-05	-1e-05	-1e-05	-3e-05	0.00028	0.00014	3
13053	1e-05	-2e-05	1e-05	-1e-05	-1e-05	-3e-05	0.00028	0.00014	3
13054	1e-05	-2e-05	1e-05	-1e-05	-1e-05	-3e-05	0.00028	0.00014	3
13055	1e-05	-2e-05	1e-05	-1e-05	-1e-05	-3e-05	0.00028	0.00014	3
13056	1e-05	-2e-05	1e-05	-1e-05	-1e-05	-3e-05	0.00028	0.00014	3
13057	1e-05	-2e-05	1e-05	-1e-05	-1e-05	-3e-05	0.00028	0.00014	3
13058	-5e-05	-2e-05	1e-05	-2e-05	-7e-05	2e-05	1e-05	-4e-05	3
13059	-5e-05	-2e-05	1e-05	-2e-05	-7e-05	2e-05	1e-05	-4e-05	3
13060	-5e-05	-2e-05	1e-05	-2e-05	-7e-05	2e-05	1e-05	-4e-05	3
13061	-5e-05	-2e-05	1e-05	-2e-05	-7e-05	2e-05	1e-05	-4e-05	3
13062	-5e-05	-2e-05	1e-05	-2e-05	-7e-05	2e-05	1e-05	-4e-05	3
13063	-5e-05	-2e-05	1e-05	-2e-05	-7e-05	2e-05	1e-05	-4e-05	3
13064	-5e-05	-2e-05	1e-05	-2e-05	-7e-05	2e-05	1e-05	-4e-05	3
13065	-3e-05	-1e-05	-2e-05	-3e-05	-1e-05	-1e-05	-5e-05	-6e-05	3
13066	-3e-05	-1e-05	-2e-05	-3e-05	-1e-05	-1e-05	-5e-05	-6e-05	3
13067	-3e-05	-1e-05	-2e-05	-3e-05	-1e-05	-1e-05	-5e-05	-6e-05	3
13068	-3e-05	-1e-05	-2e-05	-3e-05	-1e-05	-1e-05	-5e-05	-6e-05	3
13069	-3e-05	-1e-05	-2e-05	-3e-05	-1e-05	-1e-05	-5e-05	-6e-05	3
13070	-3e-05	-1e-05	-2e-05	-3e-05	-1e-05	-1e-05	-5e-05	-6e-05	3
13071	-3e-05	-1e-05	-2e-05	-3e-05	-1e-05	-1e-05	-5e-05	-6e-05	3
13072	-5e-05	-6e-05	2e-05	2e-05	0.00011	1e-05	0.00021	-0.00011	3
13073	-5e-05	-6e-05	2e-05	2e-05	0.00011	1e-05	0.00021	-0.00011	3
13074	-5e-05	-6e-05	2e-05	2e-05	0.00011	1e-05	0.00021	-0.00011	3
13075	-5e-05	-6e-05	2e-05	2e-05	0.00011	1e-05	0.00021	-0.00011	3
13076	-5e-05	-6e-05	2e-05	2e-05	0.00011	1e-05	0.00021	-0.00011	3
13077	-5e-05	-6e-05	2e-05	2e-05	0.00011	1e-05	0.00021	-0.00011	3
13078	-5e-05	-6e-05	2e-05	2e-05	0.00011	1e-05	0.00021	-0.00011	3
13079	-5e-05	-6e-05	2e-05	2e-05	0.00011	1e-05	0.00021	-0.00011	3
13080	-5e-05	-6e-05	2e-05	2e-05	0.00011	1e-05	0.00021	-0.00011	3
13081	-5e-05	-6e-05	2e-05	2e-05	0.00011	1e-05	0.00021	-0.00011	3
13082	-5e-05	-6e-05	2e-05	2e-05	0.00011	1e-05	0.00021	-0.00011	3
13083	-5e-05	-6e-05	2e-05	2e-05	0.00011	1e-05	0.00021	-0.00011	3
13084	-5e-05	-6e-05	2e-05	2e-05	0.00011	1e-05	0.00021	-0.00011	3
13085	-5e-05	-6e-05	2e-05	2e-05	0.00011	1e-05	0.00021	-0.00011	3
13087	-5e-05	-6e-05	2e-05	2e-05	0.00011	1e-05	0.00021	-0.00011	3
13089	-5e-05	-6e-05	2e-05	2e-05	0.00011	1e-05	0.00021	-0.00011	3
13090	-5e-05	-6e-05	2e-05	2e-05	0.00011	1e-05	0.00021	-0.00011	3
13091	-5e-05	-6e-05	2e-05	2e-05	0.00011	1e-05	0.00021	-0.00011	3
13092	-5e-05	-6e-05	2e-05	2e-05	0.00011	1e-05	0.00021	-0.00011	3
13093	-5e-05	-6e-05	2e-05	2e-05	0.00011	1e-05	0.00021	-0.00011	3
13094	-5e-05	-6e-05	2e-05	2e-05	0.00011	1e-05	0.00021	-0.00011	3
13095	-5e-05	-6e-05	2e-05	2e-05	0.00011	1e-05	0.00021	-0.00011	3
13096	-5e-05	-6e-05	2e-05	2e-05	0.00011	1e-05	0.00021	-0.00011	3
13097	0	-2e-05	-2e-05	-2e-05	-3e-05	-4e-05	-7e-05	-6e-05	3
13098	0	-2e-05	-2e-05	-2e-05	-3e-05	-4e-05	-7e-05	-6e-05	3
13099	0	-2e-05	-2e-05	-2e-05	-3e-05	-4e-05	-7e-05	-6e-05	3
13100	0	-2e-05	-2e-05	-2e-05	-3e-05	-4e-05	-7e-05	-6e-05	3
13101	0	-2e-05	-2e-05	-2e-05	-3e-05	-4e-05	-7e-05	-6e-05	3
13102	-3e-05	-1e-05	-3e-05	-7e-05	-0.00014	-4e-05	-2e-05	-0.00026	3
13103	-3e-05	-1e-05	-3e-05	-7e-05	-0.00014	-4e-05	-2e-05	-0.00026	3
13104	-3e-05	-1e-05	-3e-05	-7e-05	-0.00014	-4e-05	-2e-05	-0.00026	3
13105	-3e-05	-1e-05	-3e-05	-7e-05	-0.00014	-4e-05	-2e-05	-0.00026	3
13106	-3e-05	-1e-05	-3e-05	-7e-05	-0.00014	-4e-05	-2e-05	-0.00026	3
13107	-3e-05	-1e-05	-3e-05	-7e-05	-0.00014	-4e-05	-2e-05	-0.00026	3
13108	-3e-05	-1e-05	-3e-05	-7e-05	-0.00014	-4e-05	-2e-05	-0.00026	3
13109	-3e-05	-1e-05	-3e-05	-7e-05	-0.00014	-4e-05	-2e-05	-0.00026	3
13110	-3e-05	-1e-05	-3e-05	-7e-05	-0.00014	-4e-05	-2e-05	-0.00026	3
13111	2e-05	1e-05	-5e-05	-2e-05	-9e-05	-8e-05	-0.00019	0.00012	3
13112	9e-05	0	-3e-05	0	4e-05	6e-05	6e-05	0.00021	3
13113	9e-05	0	-3e-05	0	4e-05	6e-05	6e-05	0.00021	3
13114	9e-05	0	-3e-05	0	4e-05	6e-05	6e-05	0.00021	3
13115	9e-05	0	-3e-05	0	4e-05	6e-05	6e-05	0.00021	3
13116	9e-05	0	-3e-05	0	4e-05	6e-05	6e-05	0.00021	3
13117	9e-05	0	-3e-05	0	4e-05	6e-05	6e-05	0.00021	3
13118	9e-05	0	-3e-05	0	4e-05	6e-05	6e-05	0.00021	3
13119	9e-05	0	-3e-05	0	4e-05	6e-05	6e-05	0.00021	3
13120	9e-05	0	-3e-05	0	4e-05	6e-05	6e-05	0.00021	3
13121	9e-05	0	-3e-05	0	4e-05	6e-05	6e-05	0.00021	3
13122	9e-05	0	-3e-05	0	4e-05	6e-05	6e-05	0.00021	3
13123	9e-05	0	-3e-05	0	4e-05	6e-05	6e-05	0.00021	3
13124	9e-05	0	-3e-05	0	4e-05	6e-05	6e-05	0.00021	3
13125	9e-05	0	-3e-05	0	4e-05	6e-05	6e-05	0.00021	3
13126	-4e-05	-2e-05	-4e-05	-3e-05	5e-05	-1e-05	-9e-05	-7e-05	3
13127	-1e-05	-1e-05	-3e-05	-4e-05	0	-5e-05	-0.00013	0.00012	3
13128	-1e-05	-1e-05	-3e-05	-4e-05	0	-5e-05	-0.00013	0.00012	3
13129	-1e-05	-1e-05	-3e-05	-4e-05	0	-5e-05	-0.00013	0.00012	3
13130	-1e-05	-1e-05	-3e-05	-4e-05	0	-5e-05	-0.00013	0.00012	3
13131	-1e-05	-1e-05	-3e-05	-4e-05	0	-5e-05	-0.00013	0.00012	3
13132	-1e-05	-1e-05	-3e-05	-4e-05	0	-5e-05	-0.00013	0.00012	3
13133	-1e-05	-1e-05	-3e-05	-4e-05	0	-5e-05	-0.00013	0.00012	3
13134	-1e-05	-1e-05	-3e-05	-4e-05	0	-5e-05	-0.00013	0.00012	3
13135	-1e-05	-1e-05	-3e-05	-4e-05	0	-5e-05	-0.00013	0.00012	3
13136	-1e-05	-1e-05	-3e-05	-4e-05	0	-5e-05	-0.00013	0.00012	3
13138	-1e-05	-1e-05	-3e-05	-4e-05	0	-5e-05	-0.00013	0.00012	3
13139	-1e-05	-1e-05	-3e-05	-4e-05	0	-5e-05	-0.00013	0.00012	3
13140	-1e-05	-1e-05	-3e-05	-4e-05	0	-5e-05	-0.00013	0.00012	3
13141	-1e-05	-1e-05	-3e-05	-4e-05	0	-5e-05	-0.00013	0.00012	3
13142	-1e-05	-1e-05	-3e-05	-4e-05	0	-5e-05	-0.00013	0.00012	3
13143	-1e-05	-1e-05	-3e-05	-4e-05	0	-5e-05	-0.00013	0.00012	3
13144	-1e-05	-1e-05	-3e-05	-4e-05	0	-5e-05	-0.00013	0.00012	3
13145	-1e-05	-1e-05	-3e-05	-4e-05	0	-5e-05	-0.00013	0.00012	3
13146	-1e-05	-1e-05	-3e-05	-4e-05	0	-5e-05	-0.00013	0.00012	3
13147	-1e-05	-1e-05	-3e-05	-4e-05	0	-5e-05	-0.00013	0.00012	3
13148	-0.00012	-1e-05	-5e-05	0	-1e-05	-2e-05	-8e-05	-0.00027	3
13149	-0.00012	-1e-05	-5e-05	0	-1e-05	-2e-05	-8e-05	-0.00027	3
13150	-0.00016	-7e-05	-1e-05	-2e-05	-1e-05	-1e-05	-0.00013	1e-05	3
13151	-0.00016	-7e-05	-1e-05	-2e-05	-1e-05	-1e-05	-0.00013	1e-05	3
13152	-0.00016	-7e-05	-1e-05	-2e-05	-1e-05	-1e-05	-0.00013	1e-05	3
13153	-0.00016	-7e-05	-1e-05	-2e-05	-1e-05	-1e-05	-0.00013	1e-05	3
13154	-0.00016	-7e-05	-1e-05	-2e-05	-1e-05	-1e-05	-0.00013	1e-05	3
13155	-0.00016	-7e-05	-1e-05	-2e-05	-1e-05	-1e-05	-0.00013	1e-05	3
13156	-0.00016	-7e-05	-1e-05	-2e-05	-1e-05	-1e-05	-0.00013	1e-05	3
13157	-0.00016	-7e-05	-1e-05	-2e-05	-1e-05	-1e-05	-0.00013	1e-05	3
13158	-0.00016	-7e-05	-1e-05	-2e-05	-1e-05	-1e-05	-0.00013	1e-05	3
13159	-0.00016	-7e-05	-1e-05	-2e-05	-1e-05	-1e-05	-0.00013	1e-05	3
13160	-0.00016	-7e-05	-1e-05	-2e-05	-1e-05	-1e-05	-0.00013	1e-05	3
13161	-0.00016	-7e-05	-1e-05	-2e-05	-1e-05	-1e-05	-0.00013	1e-05	3
13162	-0.00016	-7e-05	-1e-05	-2e-05	-1e-05	-1e-05	-0.00013	1e-05	3
13163	-0.00016	-7e-05	-1e-05	-2e-05	-1e-05	-1e-05	-0.00013	1e-05	3
13164	-0.00016	-7e-05	-1e-05	-2e-05	-1e-05	-1e-05	-0.00013	1e-05	3
13165	-0.00016	-7e-05	-1e-05	-2e-05	-1e-05	-1e-05	-0.00013	1e-05	3
13166	-0.00016	-7e-05	-1e-05	-2e-05	-1e-05	-1e-05	-0.00013	1e-05	3
13167	-0.00016	-7e-05	-1e-05	-2e-05	-1e-05	-1e-05	-0.00013	1e-05	3
13168	-0.00016	-7e-05	-1e-05	-2e-05	-1e-05	-1e-05	-0.00013	1e-05	3
13169	-0.00016	-7e-05	-1e-05	-2e-05	-1e-05	-1e-05	-0.00013	1e-05	3
13170	-0.00016	-7e-05	-1e-05	-2e-05	-1e-05	-1e-05	-0.00013	1e-05	3
13171	-0.00016	-7e-05	-1e-05	-2e-05	-1e-05	-1e-05	-0.00013	1e-05	3
13172	-0.00016	-7e-05	-1e-05	-2e-05	-1e-05	-1e-05	-0.00013	1e-05	3
13173	-0.00016	-7e-05	-1e-05	-2e-05	-1e-05	-1e-05	-0.00013	1e-05	3
13174	-0.00016	-7e-05	-1e-05	-2e-05	-1e-05	-1e-05	-0.00013	1e-05	3
13175	-0.00016	-7e-05	-1e-05	-2e-05	-1e-05	-1e-05	-0.00013	1e-05	3
13176	-0.00016	-7e-05	-1e-05	-2e-05	-1e-05	-1e-05	-0.00013	1e-05	3
13177	-0.00016	-7e-05	-1e-05	-2e-05	-1e-05	-1e-05	-0.00013	1e-05	3
13178	2e-05	1e-05	5e-05	3e-05	0.0001	-5e-05	9e-05	1e-05	3
13179	2e-05	1e-05	5e-05	3e-05	0.0001	-5e-05	9e-05	1e-05	3
13180	0	-3e-05	-3e-05	3e-05	2e-05	6e-05	-4e-05	-0.0001	3
13181	0	-3e-05	-3e-05	3e-05	2e-05	6e-05	-4e-05	-0.0001	3
13182	0	-3e-05	-3e-05	3e-05	2e-05	6e-05	-4e-05	-0.0001	3
13183	0	-3e-05	-3e-05	3e-05	2e-05	6e-05	-4e-05	-0.0001	3
13184	0	-3e-05	-3e-05	3e-05	2e-05	6e-05	-4e-05	-0.0001	3
13185	0	-3e-05	-3e-05	3e-05	2e-05	6e-05	-4e-05	-0.0001	3
13186	-6e-05	0	0	-1e-05	3e-05	0	-8e-05	1e-05	3
13189	-5e-05	-4e-05	-3e-05	-3e-05	0	-8e-05	-0.00023	-9e-05	3
13190	-5e-05	-4e-05	-3e-05	-3e-05	0	-8e-05	-0.00023	-9e-05	3
13191	-5e-05	-4e-05	-3e-05	-3e-05	0	-8e-05	-0.00023	-9e-05	3
13192	-5e-05	-4e-05	-3e-05	-3e-05	0	-8e-05	-0.00023	-9e-05	3
13193	-5e-05	-4e-05	-3e-05	-3e-05	0	-8e-05	-0.00023	-9e-05	3
13194	-5e-05	-4e-05	-3e-05	-3e-05	0	-8e-05	-0.00023	-9e-05	3
13195	-5e-05	-4e-05	-3e-05	-3e-05	0	-8e-05	-0.00023	-9e-05	3
13196	-5e-05	-4e-05	-3e-05	-3e-05	0	-8e-05	-0.00023	-9e-05	3
13197	-5e-05	-4e-05	-3e-05	-3e-05	0	-8e-05	-0.00023	-9e-05	3
13198	-5e-05	-4e-05	-3e-05	-3e-05	0	-8e-05	-0.00023	-9e-05	3
13199	-5e-05	-4e-05	-3e-05	-3e-05	0	-8e-05	-0.00023	-9e-05	3
13200	-5e-05	-4e-05	-3e-05	-3e-05	0	-8e-05	-0.00023	-9e-05	3
13201	-5e-05	-4e-05	-3e-05	-3e-05	0	-8e-05	-0.00023	-9e-05	3
13202	-5e-05	-4e-05	-3e-05	-3e-05	0	-8e-05	-0.00023	-9e-05	3
13203	-5e-05	-4e-05	-3e-05	-3e-05	0	-8e-05	-0.00023	-9e-05	3
13204	-5e-05	-4e-05	-3e-05	-3e-05	0	-8e-05	-0.00023	-9e-05	3
13205	-5e-05	-4e-05	-3e-05	-3e-05	0	-8e-05	-0.00023	-9e-05	3
13206	-5e-05	-4e-05	-3e-05	-3e-05	0	-8e-05	-0.00023	-9e-05	3
13207	-5e-05	-4e-05	-3e-05	-3e-05	0	-8e-05	-0.00023	-9e-05	3
13208	-5e-05	-4e-05	-3e-05	-3e-05	0	-8e-05	-0.00023	-9e-05	3
13209	-1e-05	-1e-05	-1e-05	1e-05	0	6e-05	2e-05	-0.0002	3
13210	0.00016	7e-05	-5e-05	-1e-05	-4e-05	0	8e-05	0.00022	3
13211	0.00016	7e-05	-5e-05	-1e-05	-4e-05	0	8e-05	0.00022	3
13212	0.00016	7e-05	-5e-05	-1e-05	-4e-05	0	8e-05	0.00022	3
13213	0.00016	7e-05	-5e-05	-1e-05	-4e-05	0	8e-05	0.00022	3
13214	0.00016	7e-05	-5e-05	-1e-05	-4e-05	0	8e-05	0.00022	3
13215	0.00016	7e-05	-5e-05	-1e-05	-4e-05	0	8e-05	0.00022	3
13216	0.00016	7e-05	-5e-05	-1e-05	-4e-05	0	8e-05	0.00022	3
13217	0.00016	7e-05	-5e-05	-1e-05	-4e-05	0	8e-05	0.00022	3
13218	0.00016	7e-05	-5e-05	-1e-05	-4e-05	0	8e-05	0.00022	3
13219	0.00016	7e-05	-5e-05	-1e-05	-4e-05	0	8e-05	0.00022	3
13220	0.00016	7e-05	-5e-05	-1e-05	-4e-05	0	8e-05	0.00022	3
13221	0.00016	7e-05	-5e-05	-1e-05	-4e-05	0	8e-05	0.00022	3
13222	0.00016	7e-05	-5e-05	-1e-05	-4e-05	0	8e-05	0.00022	3
13223	0.00016	7e-05	-5e-05	-1e-05	-4e-05	0	8e-05	0.00022	3
13224	0.00016	7e-05	-5e-05	-1e-05	-4e-05	0	8e-05	0.00022	3
13225	0.00016	7e-05	-5e-05	-1e-05	-4e-05	0	8e-05	0.00022	3
13226	0.00016	7e-05	-5e-05	-1e-05	-4e-05	0	8e-05	0.00022	3
13227	0.00016	7e-05	-5e-05	-1e-05	-4e-05	0	8e-05	0.00022	3
13228	0.00016	7e-05	-5e-05	-1e-05	-4e-05	0	8e-05	0.00022	3
13229	0.00016	7e-05	-5e-05	-1e-05	-4e-05	0	8e-05	0.00022	3
13230	0.00016	7e-05	-5e-05	-1e-05	-4e-05	0	8e-05	0.00022	3
13231	0.00015	6e-05	3e-05	-1e-05	0	-7e-05	-0.00012	0.00017	3
13232	0	4e-05	5e-05	0	3e-05	2e-05	0.00031	-0.00018	3
13233	0	4e-05	5e-05	0	3e-05	2e-05	0.00031	-0.00018	3
13234	0	4e-05	5e-05	0	3e-05	2e-05	0.00031	-0.00018	3
13235	0	4e-05	5e-05	0	3e-05	2e-05	0.00031	-0.00018	3
13236	0	4e-05	5e-05	0	3e-05	2e-05	0.00031	-0.00018	3
13239	0	4e-05	5e-05	0	3e-05	2e-05	0.00031	-0.00018	3
13240	0	4e-05	5e-05	0	3e-05	2e-05	0.00031	-0.00018	3
13241	0	4e-05	5e-05	0	3e-05	2e-05	0.00031	-0.00018	3
13242	0	4e-05	5e-05	0	3e-05	2e-05	0.00031	-0.00018	3
13243	0	4e-05	5e-05	0	3e-05	2e-05	0.00031	-0.00018	3
13244	0	4e-05	5e-05	0	3e-05	2e-05	0.00031	-0.00018	3
13245	1e-05	-7e-05	-5e-05	-4e-05	1e-05	7e-05	0.00014	0.00013	3
13246	1e-05	-7e-05	-5e-05	-4e-05	1e-05	7e-05	0.00014	0.00013	3
13247	1e-05	-7e-05	-5e-05	-4e-05	1e-05	7e-05	0.00014	0.00013	3
13248	1e-05	-7e-05	-5e-05	-4e-05	1e-05	7e-05	0.00014	0.00013	3
13249	1e-05	-7e-05	-5e-05	-4e-05	1e-05	7e-05	0.00014	0.00013	3
13250	1e-05	-7e-05	-5e-05	-4e-05	1e-05	7e-05	0.00014	0.00013	3
13251	1e-05	-7e-05	-5e-05	-4e-05	1e-05	7e-05	0.00014	0.00013	3
13252	3e-05	1e-05	-1e-05	-4e-05	5e-05	7e-05	-3e-05	5e-05	3
13253	3e-05	1e-05	-1e-05	-4e-05	5e-05	7e-05	-3e-05	5e-05	3
13254	3e-05	1e-05	-1e-05	-4e-05	5e-05	7e-05	-3e-05	5e-05	3
13255	3e-05	1e-05	-1e-05	-4e-05	5e-05	7e-05	-3e-05	5e-05	3
13256	3e-05	1e-05	-1e-05	-4e-05	5e-05	7e-05	-3e-05	5e-05	3
13257	3e-05	1e-05	-1e-05	-4e-05	5e-05	7e-05	-3e-05	5e-05	3
13258	3e-05	1e-05	-1e-05	-4e-05	5e-05	7e-05	-3e-05	5e-05	3
13259	3e-05	1e-05	-1e-05	-4e-05	5e-05	7e-05	-3e-05	5e-05	3
13260	3e-05	1e-05	-1e-05	-4e-05	5e-05	7e-05	-3e-05	5e-05	3
13261	3e-05	1e-05	-1e-05	-4e-05	5e-05	7e-05	-3e-05	5e-05	3
13262	3e-05	1e-05	-1e-05	-4e-05	5e-05	7e-05	-3e-05	5e-05	3
13263	3e-05	1e-05	-1e-05	-4e-05	5e-05	7e-05	-3e-05	5e-05	3
13264	3e-05	1e-05	-1e-05	-4e-05	5e-05	7e-05	-3e-05	5e-05	3
13265	3e-05	1e-05	-1e-05	-4e-05	5e-05	7e-05	-3e-05	5e-05	3
13266	3e-05	1e-05	-1e-05	-4e-05	5e-05	7e-05	-3e-05	5e-05	3
13267	5e-05	1e-05	2e-05	-1e-05	3e-05	-3e-05	-1e-05	-7e-05	3
13269	5e-05	1e-05	2e-05	-1e-05	3e-05	-3e-05	-1e-05	-7e-05	3
13270	5e-05	1e-05	2e-05	-1e-05	3e-05	-3e-05	-1e-05	-7e-05	3
13271	5e-05	1e-05	2e-05	-1e-05	3e-05	-3e-05	-1e-05	-7e-05	3
13272	5e-05	1e-05	2e-05	-1e-05	3e-05	-3e-05	-1e-05	-7e-05	3
13273	5e-05	1e-05	2e-05	-1e-05	3e-05	-3e-05	-1e-05	-7e-05	3
13274	5e-05	1e-05	2e-05	-1e-05	3e-05	-3e-05	-1e-05	-7e-05	3
13275	5e-05	1e-05	2e-05	-1e-05	3e-05	-3e-05	-1e-05	-7e-05	3
13276	-0.00012	-4e-05	0	2e-05	-9e-05	-5e-05	4e-05	3e-05	3
13277	-0.00012	-4e-05	0	2e-05	-9e-05	-5e-05	4e-05	3e-05	3
13278	-0.00012	-4e-05	0	2e-05	-9e-05	-5e-05	4e-05	3e-05	3
13279	-0.00012	-4e-05	0	2e-05	-9e-05	-5e-05	4e-05	3e-05	3
13280	-0.00012	-4e-05	0	2e-05	-9e-05	-5e-05	4e-05	3e-05	3
13281	-0.00012	-4e-05	0	2e-05	-9e-05	-5e-05	4e-05	3e-05	3
13282	-0.00012	-4e-05	0	2e-05	-9e-05	-5e-05	4e-05	3e-05	3
13283	-0.00012	-4e-05	0	2e-05	-9e-05	-5e-05	4e-05	3e-05	3
13284	-0.00012	-4e-05	0	2e-05	-9e-05	-5e-05	4e-05	3e-05	3
13285	-0.00012	-4e-05	0	2e-05	-9e-05	-5e-05	4e-05	3e-05	3
13286	-0.00012	-4e-05	0	2e-05	-9e-05	-5e-05	4e-05	3e-05	3
13289	-0.00012	-4e-05	0	2e-05	-9e-05	-5e-05	4e-05	3e-05	3
13290	-0.00012	-4e-05	0	2e-05	-9e-05	-5e-05	4e-05	3e-05	3
13291	-0.00012	-4e-05	0	2e-05	-9e-05	-5e-05	4e-05	3e-05	3
13292	-0.00012	-4e-05	0	2e-05	-9e-05	-5e-05	4e-05	3e-05	3
13293	-0.00012	-4e-05	0	2e-05	-9e-05	-5e-05	4e-05	3e-05	3
13294	-0.00012	-4e-05	0	2e-05	-9e-05	-5e-05	4e-05	3e-05	3
13295	-0.00012	-4e-05	0	2e-05	-9e-05	-5e-05	4e-05	3e-05	3
13296	-0.00012	-4e-05	0	2e-05	-9e-05	-5e-05	4e-05	3e-05	3
13297	-0.00012	-4e-05	0	2e-05	-9e-05	-5e-05	4e-05	3e-05	3
13298	0	1e-05	-4e-05	1e-05	2e-05	-1e-05	-4e-05	-7e-05	3
13299	0	1e-05	-4e-05	1e-05	2e-05	-1e-05	-4e-05	-7e-05	3
13300	-0.00011	-4e-05	3e-05	0	2e-05	-6e-05	0	-6e-05	3
13301	-0.00011	-4e-05	3e-05	0	2e-05	-6e-05	0	-6e-05	3
13302	-0.00011	-4e-05	3e-05	0	2e-05	-6e-05	0	-6e-05	3
13303	-0.00011	-4e-05	3e-05	0	2e-05	-6e-05	0	-6e-05	3
13304	-0.00011	-4e-05	3e-05	0	2e-05	-6e-05	0	-6e-05	3
13305	4e-05	3e-05	-3e-05	-6e-05	-0.00017	-5e-05	-2e-05	8e-05	3
13306	4e-05	3e-05	-3e-05	-6e-05	-0.00017	-5e-05	-2e-05	8e-05	3
13307	4e-05	3e-05	-3e-05	-6e-05	-0.00017	-5e-05	-2e-05	8e-05	3
13308	4e-05	3e-05	-3e-05	-6e-05	-0.00017	-5e-05	-2e-05	8e-05	3
13309	4e-05	3e-05	-3e-05	-6e-05	-0.00017	-5e-05	-2e-05	8e-05	3
13310	4e-05	3e-05	-3e-05	-6e-05	-0.00017	-5e-05	-2e-05	8e-05	3
13311	4e-05	3e-05	-3e-05	-6e-05	-0.00017	-5e-05	-2e-05	8e-05	3
13312	-0.00019	-5e-05	0	1e-05	-6e-05	-1e-05	-9e-05	-0.00012	3
13313	-0.00019	-5e-05	0	1e-05	-6e-05	-1e-05	-9e-05	-0.00012	3
13314	-0.00019	-5e-05	0	1e-05	-6e-05	-1e-05	-9e-05	-0.00012	3
13315	-0.00019	-5e-05	0	1e-05	-6e-05	-1e-05	-9e-05	-0.00012	3
13316	-0.00019	-5e-05	0	1e-05	-6e-05	-1e-05	-9e-05	-0.00012	3
13317	-0.00019	-5e-05	0	1e-05	-6e-05	-1e-05	-9e-05	-0.00012	3
13318	-0.00019	-5e-05	0	1e-05	-6e-05	-1e-05	-9e-05	-0.00012	3
13319	-0.00019	-5e-05	0	1e-05	-6e-05	-1e-05	-9e-05	-0.00012	3
13320	-0.00019	-5e-05	0	1e-05	-6e-05	-1e-05	-9e-05	-0.00012	3
13321	-0.00019	-5e-05	0	1e-05	-6e-05	-1e-05	-9e-05	-0.00012	3
13322	-0.00019	-5e-05	0	1e-05	-6e-05	-1e-05	-9e-05	-0.00012	3
13323	-0.00019	-5e-05	0	1e-05	-6e-05	-1e-05	-9e-05	-0.00012	3
13324	-0.00019	-5e-05	0	1e-05	-6e-05	-1e-05	-9e-05	-0.00012	3
13325	-0.00019	-5e-05	0	1e-05	-6e-05	-1e-05	-9e-05	-0.00012	3
13326	-0.00019	-5e-05	0	1e-05	-6e-05	-1e-05	-9e-05	-0.00012	3
13327	-0.00019	-5e-05	0	1e-05	-6e-05	-1e-05	-9e-05	-0.00012	3
13328	0	-6e-05	-0.00011	-2e-05	0	-5e-05	-4e-05	-0.00022	3
13329	0	-6e-05	-0.00011	-2e-05	0	-5e-05	-4e-05	-0.00022	3
13330	0	-6e-05	-0.00011	-2e-05	0	-5e-05	-4e-05	-0.00022	3
13331	0	-6e-05	-0.00011	-2e-05	0	-5e-05	-4e-05	-0.00022	3
13332	0	-6e-05	-0.00011	-2e-05	0	-5e-05	-4e-05	-0.00022	3
13333	0	-6e-05	-0.00011	-2e-05	0	-5e-05	-4e-05	-0.00022	3
13334	0	-6e-05	-0.00011	-2e-05	0	-5e-05	-4e-05	-0.00022	3
13335	0	-6e-05	-0.00011	-2e-05	0	-5e-05	-4e-05	-0.00022	3
13337	0	-3e-05	-8e-05	-6e-05	-4e-05	-2e-05	1e-05	-0.00012	3
13340	0	-3e-05	-8e-05	-6e-05	-4e-05	-2e-05	1e-05	-0.00012	3
13341	0	-3e-05	-8e-05	-6e-05	-4e-05	-2e-05	1e-05	-0.00012	3
13342	0	-3e-05	-8e-05	-6e-05	-4e-05	-2e-05	1e-05	-0.00012	3
13343	0	-3e-05	-8e-05	-6e-05	-4e-05	-2e-05	1e-05	-0.00012	3
13344	0	-3e-05	-8e-05	-6e-05	-4e-05	-2e-05	1e-05	-0.00012	3
13345	0	-3e-05	-8e-05	-6e-05	-4e-05	-2e-05	1e-05	-0.00012	3
13346	0	-3e-05	-8e-05	-6e-05	-4e-05	-2e-05	1e-05	-0.00012	3
13347	0	-3e-05	-8e-05	-6e-05	-4e-05	-2e-05	1e-05	-0.00012	3
13348	0	-3e-05	-8e-05	-6e-05	-4e-05	-2e-05	1e-05	-0.00012	3
13349	0	-3e-05	-8e-05	-6e-05	-4e-05	-2e-05	1e-05	-0.00012	3
13350	0	-3e-05	-8e-05	-6e-05	-4e-05	-2e-05	1e-05	-0.00012	3
13351	-1e-05	2e-05	6e-05	1e-05	-7e-05	5e-05	-2e-05	-0.0003	3
13352	5e-05	5e-05	0	6e-05	0.00019	3e-05	0	4e-05	3
13353	5e-05	5e-05	0	6e-05	0.00019	3e-05	0	4e-05	3
13354	5e-05	5e-05	0	6e-05	0.00019	3e-05	0	4e-05	3
13355	5e-05	5e-05	0	6e-05	0.00019	3e-05	0	4e-05	3
13356	5e-05	5e-05	0	6e-05	0.00019	3e-05	0	4e-05	3
13357	5e-05	5e-05	0	6e-05	0.00019	3e-05	0	4e-05	3
13358	5e-05	5e-05	0	6e-05	0.00019	3e-05	0	4e-05	3
13359	5e-05	5e-05	0	6e-05	0.00019	3e-05	0	4e-05	3
13360	5e-05	5e-05	0	6e-05	0.00019	3e-05	0	4e-05	3
13361	5e-05	5e-05	0	6e-05	0.00019	3e-05	0	4e-05	3
13362	5e-05	5e-05	0	6e-05	0.00019	3e-05	0	4e-05	3
13363	5e-05	5e-05	0	6e-05	0.00019	3e-05	0	4e-05	3
13364	5e-05	5e-05	0	6e-05	0.00019	3e-05	0	4e-05	3
13365	5e-05	5e-05	0	6e-05	0.00019	3e-05	0	4e-05	3
13366	5e-05	5e-05	0	6e-05	0.00019	3e-05	0	4e-05	3
13367	5e-05	5e-05	0	6e-05	0.00019	3e-05	0	4e-05	3
13368	5e-05	5e-05	0	6e-05	0.00019	3e-05	0	4e-05	3
13369	5e-05	5e-05	0	6e-05	0.00019	3e-05	0	4e-05	3
13370	5e-05	5e-05	0	6e-05	0.00019	3e-05	0	4e-05	3
13371	5e-05	5e-05	0	6e-05	0.00019	3e-05	0	4e-05	3
13372	5e-05	5e-05	0	6e-05	0.00019	3e-05	0	4e-05	3
13373	-4e-05	-4e-05	1e-05	-1e-05	5e-05	-1e-05	-6e-05	-0.00011	3
13374	-4e-05	-4e-05	1e-05	-1e-05	5e-05	-1e-05	-6e-05	-0.00011	3
13375	-4e-05	-4e-05	1e-05	-1e-05	5e-05	-1e-05	-6e-05	-0.00011	3
13376	-4e-05	-4e-05	1e-05	-1e-05	5e-05	-1e-05	-6e-05	-0.00011	3
13377	-4e-05	-4e-05	1e-05	-1e-05	5e-05	-1e-05	-6e-05	-0.00011	3
13378	-4e-05	-4e-05	1e-05	-1e-05	5e-05	-1e-05	-6e-05	-0.00011	3
13379	9e-05	4e-05	5e-05	1e-05	0	-2e-05	-4e-05	0.00034	3
13380	9e-05	4e-05	5e-05	1e-05	0	-2e-05	-4e-05	0.00034	3
13381	9e-05	4e-05	5e-05	1e-05	0	-2e-05	-4e-05	0.00034	3
13382	9e-05	4e-05	5e-05	1e-05	0	-2e-05	-4e-05	0.00034	3
13383	9e-05	4e-05	5e-05	1e-05	0	-2e-05	-4e-05	0.00034	3
13384	9e-05	4e-05	5e-05	1e-05	0	-2e-05	-4e-05	0.00034	3
13385	9e-05	4e-05	5e-05	1e-05	0	-2e-05	-4e-05	0.00034	3
13386	9e-05	4e-05	5e-05	1e-05	0	-2e-05	-4e-05	0.00034	3
13389	1e-05	-1e-05	-1e-05	-3e-05	-8e-05	-3e-05	-0.00011	9e-05	3
13390	1e-05	-5e-05	-4e-05	-3e-05	-0.00015	-1e-05	2e-05	0.00012	3
13391	1e-05	-5e-05	-4e-05	-3e-05	-0.00015	-1e-05	2e-05	0.00012	3
13392	1e-05	-5e-05	-4e-05	-3e-05	-0.00015	-1e-05	2e-05	0.00012	3
13393	1e-05	-5e-05	-4e-05	-3e-05	-0.00015	-1e-05	2e-05	0.00012	3
13394	1e-05	-5e-05	-4e-05	-3e-05	-0.00015	-1e-05	2e-05	0.00012	3
13395	1e-05	-5e-05	-4e-05	-3e-05	-0.00015	-1e-05	2e-05	0.00012	3
13396	1e-05	-5e-05	-4e-05	-3e-05	-0.00015	-1e-05	2e-05	0.00012	3
13397	1e-05	-5e-05	-4e-05	-3e-05	-0.00015	-1e-05	2e-05	0.00012	3
13398	1e-05	-5e-05	-4e-05	-3e-05	-0.00015	-1e-05	2e-05	0.00012	3
13399	1e-05	-5e-05	-4e-05	-3e-05	-0.00015	-1e-05	2e-05	0.00012	3
13400	1e-05	-5e-05	-4e-05	-3e-05	-0.00015	-1e-05	2e-05	0.00012	3
13401	1e-05	-5e-05	-4e-05	-3e-05	-0.00015	-1e-05	2e-05	0.00012	3
13402	1e-05	-5e-05	-4e-05	-3e-05	-0.00015	-1e-05	2e-05	0.00012	3
13403	1e-05	-5e-05	-4e-05	-3e-05	-0.00015	-1e-05	2e-05	0.00012	3
13404	1e-05	-5e-05	-4e-05	-3e-05	-0.00015	-1e-05	2e-05	0.00012	3
13405	1e-05	-5e-05	-4e-05	-3e-05	-0.00015	-1e-05	2e-05	0.00012	3
13406	1e-05	-5e-05	-4e-05	-3e-05	-0.00015	-1e-05	2e-05	0.00012	3
13407	1e-05	-5e-05	-4e-05	-3e-05	-0.00015	-1e-05	2e-05	0.00012	3
13408	1e-05	-5e-05	-4e-05	-3e-05	-0.00015	-1e-05	2e-05	0.00012	3
13409	1e-05	-5e-05	-4e-05	-3e-05	-0.00015	-1e-05	2e-05	0.00012	3
13410	1e-05	-5e-05	-4e-05	-3e-05	-0.00015	-1e-05	2e-05	0.00012	3
13411	1e-05	-5e-05	-4e-05	-3e-05	-0.00015	-1e-05	2e-05	0.00012	3
13412	1e-05	-5e-05	-4e-05	-3e-05	-0.00015	-1e-05	2e-05	0.00012	3
13413	1e-05	-5e-05	-4e-05	-3e-05	-0.00015	-1e-05	2e-05	0.00012	3
13414	1e-05	-5e-05	-4e-05	-3e-05	-0.00015	-1e-05	2e-05	0.00012	3
13415	1e-05	-5e-05	-4e-05	-3e-05	-0.00015	-1e-05	2e-05	0.00012	3
13416	1e-05	-5e-05	-4e-05	-3e-05	-0.00015	-1e-05	2e-05	0.00012	3
13417	1e-05	-5e-05	-4e-05	-3e-05	-0.00015	-1e-05	2e-05	0.00012	3
13418	-0.00012	-8e-05	-0.00011	-2e-05	-2e-05	-2e-05	6e-05	-0.0003	3
13419	-0.00012	-8e-05	-0.00011	-2e-05	-2e-05	-2e-05	6e-05	-0.0003	3
13420	-1e-05	1e-05	-2e-05	-1e-05	-1e-05	-4e-05	-5e-05	-0.00014	3
13421	-1e-05	1e-05	-2e-05	-1e-05	-1e-05	-4e-05	-5e-05	-0.00014	3
13422	-1e-05	1e-05	-2e-05	-1e-05	-1e-05	-4e-05	-5e-05	-0.00014	3
13423	-1e-05	1e-05	-2e-05	-1e-05	-1e-05	-4e-05	-5e-05	-0.00014	3
13424	-1e-05	1e-05	-2e-05	-1e-05	-1e-05	-4e-05	-5e-05	-0.00014	3
13425	3e-05	4e-05	4e-05	-2e-05	-6e-05	2e-05	0.00021	0.00025	3
13426	3e-05	4e-05	4e-05	-2e-05	-6e-05	2e-05	0.00021	0.00025	3
13427	3e-05	4e-05	4e-05	-2e-05	-6e-05	2e-05	0.00021	0.00025	3
13428	3e-05	4e-05	4e-05	-2e-05	-6e-05	2e-05	0.00021	0.00025	3
13429	3e-05	4e-05	4e-05	-2e-05	-6e-05	2e-05	0.00021	0.00025	3
13430	3e-05	4e-05	4e-05	-2e-05	-6e-05	2e-05	0.00021	0.00025	3
13431	3e-05	4e-05	4e-05	-2e-05	-6e-05	2e-05	0.00021	0.00025	3
13432	5e-05	-2e-05	0	0	-5e-05	-2e-05	1e-05	-4e-05	3
13433	5e-05	-2e-05	0	0	-5e-05	-2e-05	1e-05	-4e-05	3
13434	5e-05	-2e-05	0	0	-5e-05	-2e-05	1e-05	-4e-05	3
13435	5e-05	-2e-05	0	0	-5e-05	-2e-05	1e-05	-4e-05	3
13436	5e-05	-2e-05	0	0	-5e-05	-2e-05	1e-05	-4e-05	3
13439	5e-05	-2e-05	0	0	-5e-05	-2e-05	1e-05	-4e-05	3
13440	5e-05	-2e-05	0	0	-5e-05	-2e-05	1e-05	-4e-05	3
13441	5e-05	-2e-05	0	0	-5e-05	-2e-05	1e-05	-4e-05	3
13442	5e-05	-2e-05	0	0	-5e-05	-2e-05	1e-05	-4e-05	3
13443	5e-05	-2e-05	0	0	-5e-05	-2e-05	1e-05	-4e-05	3
13444	5e-05	-2e-05	0	0	-5e-05	-2e-05	1e-05	-4e-05	3
13445	5e-05	-2e-05	0	0	-5e-05	-2e-05	1e-05	-4e-05	3
13446	5e-05	-2e-05	0	0	-5e-05	-2e-05	1e-05	-4e-05	3
13447	5e-05	-2e-05	0	0	-5e-05	-2e-05	1e-05	-4e-05	3
13448	5e-05	-2e-05	0	0	-5e-05	-2e-05	1e-05	-4e-05	3
13449	5e-05	-2e-05	0	0	-5e-05	-2e-05	1e-05	-4e-05	3
13450	5e-05	-2e-05	0	0	-5e-05	-2e-05	1e-05	-4e-05	3
13451	5e-05	-2e-05	0	0	-5e-05	-2e-05	1e-05	-4e-05	3
13452	5e-05	-2e-05	0	0	-5e-05	-2e-05	1e-05	-4e-05	3
13453	5e-05	-2e-05	0	0	-5e-05	-2e-05	1e-05	-4e-05	3
13454	0	0	1e-05	-1e-05	-2e-05	-4e-05	-0.00022	0.00044	3
13456	0	0	1e-05	-1e-05	-2e-05	-4e-05	-0.00022	0.00044	3
13457	0	0	1e-05	-1e-05	-2e-05	-4e-05	-0.00022	0.00044	3
13458	0	0	1e-05	-1e-05	-2e-05	-4e-05	-0.00022	0.00044	3
13459	0	0	1e-05	-1e-05	-2e-05	-4e-05	-0.00022	0.00044	3
13460	0	0	1e-05	-1e-05	-2e-05	-4e-05	-0.00022	0.00044	3
13461	0	0	1e-05	-1e-05	-2e-05	-4e-05	-0.00022	0.00044	3
13462	0	0	1e-05	-1e-05	-2e-05	-4e-05	-0.00022	0.00044	3
13463	3e-05	-2e-05	-1e-05	-2e-05	4e-05	-4e-05	-2e-05	0.00011	3
13464	3e-05	-2e-05	-1e-05	-2e-05	4e-05	-4e-05	-2e-05	0.00011	3
13465	3e-05	-2e-05	-1e-05	-2e-05	4e-05	-4e-05	-2e-05	0.00011	3
13466	3e-05	-2e-05	-1e-05	-2e-05	4e-05	-4e-05	-2e-05	0.00011	3
13467	3e-05	-2e-05	-1e-05	-2e-05	4e-05	-4e-05	-2e-05	0.00011	3
13468	3e-05	-2e-05	-1e-05	-2e-05	4e-05	-4e-05	-2e-05	0.00011	3
13469	3e-05	-2e-05	-1e-05	-2e-05	4e-05	-4e-05	-2e-05	0.00011	3
13470	3e-05	-2e-05	-1e-05	-2e-05	4e-05	-4e-05	-2e-05	0.00011	3
13471	2e-05	3e-05	9e-05	0	5e-05	-3e-05	-2e-05	-2e-05	3
13472	2e-05	3e-05	9e-05	0	5e-05	-3e-05	-2e-05	-2e-05	3
13473	-4e-05	-6e-05	-3e-05	-4e-05	-7e-05	-3e-05	-1e-05	-0.00029	3
13474	-4e-05	-6e-05	-3e-05	-4e-05	-7e-05	-3e-05	-1e-05	-0.00029	3
13475	-4e-05	-6e-05	-3e-05	-4e-05	-7e-05	-3e-05	-1e-05	-0.00029	3
13476	-4e-05	-6e-05	-3e-05	-4e-05	-7e-05	-3e-05	-1e-05	-0.00029	3
13477	-4e-05	-6e-05	-3e-05	-4e-05	-7e-05	-3e-05	-1e-05	-0.00029	3
13478	-4e-05	-6e-05	-3e-05	-4e-05	-7e-05	-3e-05	-1e-05	-0.00029	3
13479	-4e-05	-6e-05	-3e-05	-4e-05	-7e-05	-3e-05	-1e-05	-0.00029	3
13480	-4e-05	-6e-05	-3e-05	-4e-05	-7e-05	-3e-05	-1e-05	-0.00029	3
13481	-4e-05	-6e-05	-3e-05	-4e-05	-7e-05	-3e-05	-1e-05	-0.00029	3
13482	-4e-05	-6e-05	-3e-05	-4e-05	-7e-05	-3e-05	-1e-05	-0.00029	3
13483	-4e-05	-6e-05	-3e-05	-4e-05	-7e-05	-3e-05	-1e-05	-0.00029	3
13484	-4e-05	-6e-05	-3e-05	-4e-05	-7e-05	-3e-05	-1e-05	-0.00029	3
13485	-4e-05	-6e-05	-3e-05	-4e-05	-7e-05	-3e-05	-1e-05	-0.00029	3
13486	-4e-05	-6e-05	-3e-05	-4e-05	-7e-05	-3e-05	-1e-05	-0.00029	3
13489	-4e-05	-6e-05	-3e-05	-4e-05	-7e-05	-3e-05	-1e-05	-0.00029	3
13490	-4e-05	-6e-05	-3e-05	-4e-05	-7e-05	-3e-05	-1e-05	-0.00029	3
13491	-4e-05	-6e-05	-3e-05	-4e-05	-7e-05	-3e-05	-1e-05	-0.00029	3
13492	-4e-05	-6e-05	-3e-05	-4e-05	-7e-05	-3e-05	-1e-05	-0.00029	3
13493	-0.0001	-8e-05	0	0	-7e-05	0.00011	0.00025	0	3
13494	-0.0001	-8e-05	0	0	-7e-05	0.00011	0.00025	0	3
13495	0	-6e-05	-0.00011	-6e-05	-5e-05	-5e-05	-6e-05	-7e-05	3
13496	0	-6e-05	-0.00011	-6e-05	-5e-05	-5e-05	-6e-05	-7e-05	3
13497	0	-6e-05	-0.00011	-6e-05	-5e-05	-5e-05	-6e-05	-7e-05	3
13498	0	-6e-05	-0.00011	-6e-05	-5e-05	-5e-05	-6e-05	-7e-05	3
13499	0	-6e-05	-0.00011	-6e-05	-5e-05	-5e-05	-6e-05	-7e-05	3
13500	0	-6e-05	-0.00011	-6e-05	-5e-05	-5e-05	-6e-05	-7e-05	3
13501	0	-6e-05	-0.00011	-6e-05	-5e-05	-5e-05	-6e-05	-7e-05	3
13502	0	-6e-05	-0.00011	-6e-05	-5e-05	-5e-05	-6e-05	-7e-05	3
13503	0	-6e-05	-0.00011	-6e-05	-5e-05	-5e-05	-6e-05	-7e-05	3
13504	0	-6e-05	-0.00011	-6e-05	-5e-05	-5e-05	-6e-05	-7e-05	3
13505	0	-6e-05	-0.00011	-6e-05	-5e-05	-5e-05	-6e-05	-7e-05	3
13506	0	-6e-05	-0.00011	-6e-05	-5e-05	-5e-05	-6e-05	-7e-05	3
13507	0	-6e-05	-0.00011	-6e-05	-5e-05	-5e-05	-6e-05	-7e-05	3
13508	0.00011	4e-05	-2e-05	-1e-05	8e-05	-3e-05	7e-05	4e-05	3
13509	0.00011	4e-05	-2e-05	-1e-05	8e-05	-3e-05	7e-05	4e-05	3
13510	-5e-05	5e-05	5e-05	4e-05	-3e-05	7e-05	-0.00013	3e-05	3
13511	-5e-05	5e-05	5e-05	4e-05	-3e-05	7e-05	-0.00013	3e-05	3
13512	-5e-05	5e-05	5e-05	4e-05	-3e-05	7e-05	-0.00013	3e-05	3
13513	-5e-05	5e-05	5e-05	4e-05	-3e-05	7e-05	-0.00013	3e-05	3
13514	-5e-05	5e-05	5e-05	4e-05	-3e-05	7e-05	-0.00013	3e-05	3
13515	-5e-05	5e-05	5e-05	4e-05	-3e-05	7e-05	-0.00013	3e-05	3
13516	-5e-05	5e-05	5e-05	4e-05	-3e-05	7e-05	-0.00013	3e-05	3
13517	-5e-05	5e-05	5e-05	4e-05	-3e-05	7e-05	-0.00013	3e-05	3
13518	-5e-05	5e-05	5e-05	4e-05	-3e-05	7e-05	-0.00013	3e-05	3
13519	-5e-05	5e-05	5e-05	4e-05	-3e-05	7e-05	-0.00013	3e-05	3
13520	-5e-05	5e-05	5e-05	4e-05	-3e-05	7e-05	-0.00013	3e-05	3
13521	-5e-05	5e-05	5e-05	4e-05	-3e-05	7e-05	-0.00013	3e-05	3
13522	-5e-05	5e-05	5e-05	4e-05	-3e-05	7e-05	-0.00013	3e-05	3
13523	-5e-05	5e-05	5e-05	4e-05	-3e-05	7e-05	-0.00013	3e-05	3
13524	-5e-05	5e-05	5e-05	4e-05	-3e-05	7e-05	-0.00013	3e-05	3
13525	-5e-05	5e-05	5e-05	4e-05	-3e-05	7e-05	-0.00013	3e-05	3
13526	-5e-05	5e-05	5e-05	4e-05	-3e-05	7e-05	-0.00013	3e-05	3
13527	-5e-05	5e-05	5e-05	4e-05	-3e-05	7e-05	-0.00013	3e-05	3
13528	-5e-05	5e-05	5e-05	4e-05	-3e-05	7e-05	-0.00013	3e-05	3
13529	-5e-05	5e-05	5e-05	4e-05	-3e-05	7e-05	-0.00013	3e-05	3
13530	-5e-05	5e-05	5e-05	4e-05	-3e-05	7e-05	-0.00013	3e-05	3
13531	-5e-05	5e-05	5e-05	4e-05	-3e-05	7e-05	-0.00013	3e-05	3
13532	-5e-05	5e-05	5e-05	4e-05	-3e-05	7e-05	-0.00013	3e-05	3
13533	-5e-05	5e-05	5e-05	4e-05	-3e-05	7e-05	-0.00013	3e-05	3
13534	-5e-05	5e-05	5e-05	4e-05	-3e-05	7e-05	-0.00013	3e-05	3
13535	-5e-05	5e-05	5e-05	4e-05	-3e-05	7e-05	-0.00013	3e-05	3
13536	-5e-05	5e-05	5e-05	4e-05	-3e-05	7e-05	-0.00013	3e-05	3
13539	-8e-05	0	0	0	2e-05	-2e-05	-3e-05	-0.00013	3
13540	-0.0001	-5e-05	-3e-05	2e-05	3e-05	0	-8e-05	9e-05	3
13541	-0.0001	-5e-05	-3e-05	2e-05	3e-05	0	-8e-05	9e-05	3
13542	-0.0001	-5e-05	-3e-05	2e-05	3e-05	0	-8e-05	9e-05	3
13543	-0.0001	-5e-05	-3e-05	2e-05	3e-05	0	-8e-05	9e-05	3
13544	-0.0001	-5e-05	-3e-05	2e-05	3e-05	0	-8e-05	9e-05	3
13545	5e-05	0	0	4e-05	1e-05	1e-05	-4e-05	2e-05	3
13546	5e-05	0	0	4e-05	1e-05	1e-05	-4e-05	2e-05	3
13547	5e-05	0	0	4e-05	1e-05	1e-05	-4e-05	2e-05	3
13548	5e-05	0	0	4e-05	1e-05	1e-05	-4e-05	2e-05	3
13549	5e-05	0	0	4e-05	1e-05	1e-05	-4e-05	2e-05	3
13550	5e-05	0	0	4e-05	1e-05	1e-05	-4e-05	2e-05	3
13551	5e-05	0	0	4e-05	1e-05	1e-05	-4e-05	2e-05	3
13552	-3e-05	-2e-05	1e-05	-2e-05	-1e-05	-7e-05	-4e-05	5e-05	3
13553	-3e-05	-2e-05	1e-05	-2e-05	-1e-05	-7e-05	-4e-05	5e-05	3
13554	-3e-05	-2e-05	1e-05	-2e-05	-1e-05	-7e-05	-4e-05	5e-05	3
13555	-3e-05	-2e-05	1e-05	-2e-05	-1e-05	-7e-05	-4e-05	5e-05	3
13556	-3e-05	-2e-05	1e-05	-2e-05	-1e-05	-7e-05	-4e-05	5e-05	3
13557	-3e-05	-2e-05	1e-05	-2e-05	-1e-05	-7e-05	-4e-05	5e-05	3
13558	-3e-05	-2e-05	1e-05	-2e-05	-1e-05	-7e-05	-4e-05	5e-05	3
13559	-3e-05	-2e-05	1e-05	-2e-05	-1e-05	-7e-05	-4e-05	5e-05	3
13560	-3e-05	-2e-05	1e-05	-2e-05	-1e-05	-7e-05	-4e-05	5e-05	3
13561	-3e-05	-2e-05	1e-05	-2e-05	-1e-05	-7e-05	-4e-05	5e-05	3
13562	-3e-05	-2e-05	1e-05	-2e-05	-1e-05	-7e-05	-4e-05	5e-05	3
13563	-3e-05	-2e-05	1e-05	-2e-05	-1e-05	-7e-05	-4e-05	5e-05	3
13564	-3e-05	-2e-05	1e-05	-2e-05	-1e-05	-7e-05	-4e-05	5e-05	3
13565	-3e-05	-2e-05	1e-05	-2e-05	-1e-05	-7e-05	-4e-05	5e-05	3
13566	-3e-05	-2e-05	1e-05	-2e-05	-1e-05	-7e-05	-4e-05	5e-05	3
13567	-3e-05	-2e-05	1e-05	-2e-05	-1e-05	-7e-05	-4e-05	5e-05	3
13568	-3e-05	-2e-05	1e-05	-2e-05	-1e-05	-7e-05	-4e-05	5e-05	3
13569	-3e-05	-2e-05	1e-05	-2e-05	-1e-05	-7e-05	-4e-05	5e-05	3
13570	-3e-05	-2e-05	1e-05	-2e-05	-1e-05	-7e-05	-4e-05	5e-05	3
13571	-3e-05	-2e-05	1e-05	-2e-05	-1e-05	-7e-05	-4e-05	5e-05	3
13572	-3e-05	-2e-05	1e-05	-2e-05	-1e-05	-7e-05	-4e-05	5e-05	3
13573	-3e-05	-2e-05	1e-05	-2e-05	-1e-05	-7e-05	-4e-05	5e-05	3
13574	-3e-05	-2e-05	1e-05	-2e-05	-1e-05	-7e-05	-4e-05	5e-05	3
13575	-3e-05	-2e-05	1e-05	-2e-05	-1e-05	-7e-05	-4e-05	5e-05	3
13576	-5e-05	-6e-05	-6e-05	-2e-05	-7e-05	-1e-05	-8e-05	-5e-05	3
13577	-5e-05	-6e-05	-6e-05	-2e-05	-7e-05	-1e-05	-8e-05	-5e-05	3
13578	-5e-05	-6e-05	-6e-05	-2e-05	-7e-05	-1e-05	-8e-05	-5e-05	3
13579	-5e-05	-6e-05	-6e-05	-2e-05	-7e-05	-1e-05	-8e-05	-5e-05	3
13580	-5e-05	-6e-05	-6e-05	-2e-05	-7e-05	-1e-05	-8e-05	-5e-05	3
13581	-5e-05	-6e-05	-6e-05	-2e-05	-7e-05	-1e-05	-8e-05	-5e-05	3
13582	-5e-05	-6e-05	-6e-05	-2e-05	-7e-05	-1e-05	-8e-05	-5e-05	3
13583	0	1e-05	-5e-05	1e-05	2e-05	6e-05	7e-05	-6e-05	3
13585	0	1e-05	-5e-05	1e-05	2e-05	6e-05	7e-05	-6e-05	3
13586	0	1e-05	-5e-05	1e-05	2e-05	6e-05	7e-05	-6e-05	3
13589	0	1e-05	-5e-05	1e-05	2e-05	6e-05	7e-05	-6e-05	3
13590	0	1e-05	-5e-05	1e-05	2e-05	6e-05	7e-05	-6e-05	3
13591	-9e-05	-7e-05	-4e-05	-3e-05	-2e-05	-5e-05	-0.00017	-0.00023	3
13592	2e-05	-2e-05	-6e-05	-4e-05	-8e-05	-7e-05	-3e-05	-2e-05	3
13593	2e-05	-2e-05	-6e-05	-4e-05	-8e-05	-7e-05	-3e-05	-2e-05	3
13594	2e-05	-2e-05	-6e-05	-4e-05	-8e-05	-7e-05	-3e-05	-2e-05	3
13595	2e-05	-2e-05	-6e-05	-4e-05	-8e-05	-7e-05	-3e-05	-2e-05	3
13596	2e-05	-2e-05	-6e-05	-4e-05	-8e-05	-7e-05	-3e-05	-2e-05	3
13597	2e-05	-2e-05	-6e-05	-4e-05	-8e-05	-7e-05	-3e-05	-2e-05	3
13598	2e-05	-2e-05	-6e-05	-4e-05	-8e-05	-7e-05	-3e-05	-2e-05	3
13599	2e-05	-2e-05	-6e-05	-4e-05	-8e-05	-7e-05	-3e-05	-2e-05	3
13600	2e-05	-2e-05	-6e-05	-4e-05	-8e-05	-7e-05	-3e-05	-2e-05	3
13601	2e-05	-2e-05	-6e-05	-4e-05	-8e-05	-7e-05	-3e-05	-2e-05	3
13602	2e-05	-2e-05	-6e-05	-4e-05	-8e-05	-7e-05	-3e-05	-2e-05	3
13603	2e-05	-2e-05	-6e-05	-4e-05	-8e-05	-7e-05	-3e-05	-2e-05	3
13604	2e-05	-2e-05	-6e-05	-4e-05	-8e-05	-7e-05	-3e-05	-2e-05	3
13605	2e-05	-2e-05	-6e-05	-4e-05	-8e-05	-7e-05	-3e-05	-2e-05	3
13606	2e-05	-2e-05	-6e-05	-4e-05	-8e-05	-7e-05	-3e-05	-2e-05	3
13607	2e-05	-2e-05	-6e-05	-4e-05	-8e-05	-7e-05	-3e-05	-2e-05	3
13608	2e-05	-2e-05	-6e-05	-4e-05	-8e-05	-7e-05	-3e-05	-2e-05	3
13609	2e-05	-2e-05	-6e-05	-4e-05	-8e-05	-7e-05	-3e-05	-2e-05	3
13610	2e-05	-2e-05	-6e-05	-4e-05	-8e-05	-7e-05	-3e-05	-2e-05	3
13611	2e-05	-2e-05	-6e-05	-4e-05	-8e-05	-7e-05	-3e-05	-2e-05	3
13612	2e-05	-2e-05	-6e-05	-4e-05	-8e-05	-7e-05	-3e-05	-2e-05	3
13613	4e-05	3e-05	1e-05	0	3e-05	2e-05	2e-05	0.00015	3
13614	4e-05	3e-05	1e-05	0	3e-05	2e-05	2e-05	0.00015	3
13615	4e-05	5e-05	6e-05	2e-05	6e-05	5e-05	6e-05	-0.0001	3
13616	4e-05	5e-05	6e-05	2e-05	6e-05	5e-05	6e-05	-0.0001	3
13617	4e-05	5e-05	6e-05	2e-05	6e-05	5e-05	6e-05	-0.0001	3
13618	4e-05	5e-05	6e-05	2e-05	6e-05	5e-05	6e-05	-0.0001	3
13619	4e-05	5e-05	6e-05	2e-05	6e-05	5e-05	6e-05	-0.0001	3
13620	4e-05	5e-05	6e-05	2e-05	6e-05	5e-05	6e-05	-0.0001	3
13621	4e-05	5e-05	6e-05	2e-05	6e-05	5e-05	6e-05	-0.0001	3
13622	4e-05	5e-05	6e-05	2e-05	6e-05	5e-05	6e-05	-0.0001	3
13623	4e-05	5e-05	6e-05	2e-05	6e-05	5e-05	6e-05	-0.0001	3
13624	4e-05	5e-05	6e-05	2e-05	6e-05	5e-05	6e-05	-0.0001	3
13625	4e-05	5e-05	6e-05	2e-05	6e-05	5e-05	6e-05	-0.0001	3
13626	4e-05	5e-05	6e-05	2e-05	6e-05	5e-05	6e-05	-0.0001	3
13627	4e-05	5e-05	6e-05	2e-05	6e-05	5e-05	6e-05	-0.0001	3
13628	-2e-05	-1e-05	0	3e-05	4e-05	-3e-05	-5e-05	-3e-05	3
13629	-2e-05	-1e-05	0	3e-05	4e-05	-3e-05	-5e-05	-3e-05	3
13630	4e-05	-2e-05	0	1e-05	2e-05	-6e-05	0	0.0001	3
13631	4e-05	-2e-05	0	1e-05	2e-05	-6e-05	0	0.0001	3
13632	4e-05	-2e-05	0	1e-05	2e-05	-6e-05	0	0.0001	3
13633	4e-05	-2e-05	0	1e-05	2e-05	-6e-05	0	0.0001	3
13634	4e-05	-2e-05	0	1e-05	2e-05	-6e-05	0	0.0001	3
13635	4e-05	-2e-05	0	1e-05	2e-05	-6e-05	0	0.0001	3
13636	4e-05	-2e-05	0	1e-05	2e-05	-6e-05	0	0.0001	3
13639	4e-05	-2e-05	0	1e-05	2e-05	-6e-05	0	0.0001	3
13640	4e-05	-2e-05	0	1e-05	2e-05	-6e-05	0	0.0001	3
13641	4e-05	-2e-05	0	1e-05	2e-05	-6e-05	0	0.0001	3
13642	4e-05	-2e-05	0	1e-05	2e-05	-6e-05	0	0.0001	3
13643	4e-05	-2e-05	0	1e-05	2e-05	-6e-05	0	0.0001	3
13644	4e-05	-2e-05	0	1e-05	2e-05	-6e-05	0	0.0001	3
13645	4e-05	-2e-05	0	1e-05	2e-05	-6e-05	0	0.0001	3
13646	4e-05	-2e-05	0	1e-05	2e-05	-6e-05	0	0.0001	3
13647	4e-05	-2e-05	0	1e-05	2e-05	-6e-05	0	0.0001	3
13648	4e-05	-2e-05	0	1e-05	2e-05	-6e-05	0	0.0001	3
13649	4e-05	-2e-05	0	1e-05	2e-05	-6e-05	0	0.0001	3
13650	4e-05	-2e-05	0	1e-05	2e-05	-6e-05	0	0.0001	3
13651	0.00014	5e-05	3e-05	1e-05	0	1e-05	2e-05	0.00019	3
13652	0.00014	5e-05	3e-05	1e-05	0	1e-05	2e-05	0.00019	3
13653	-2e-05	-1e-05	2e-05	2e-05	4e-05	-1e-05	-4e-05	0.0001	3
13654	-2e-05	-1e-05	2e-05	2e-05	4e-05	-1e-05	-4e-05	0.0001	3
13655	-2e-05	-1e-05	2e-05	2e-05	4e-05	-1e-05	-4e-05	0.0001	3
13656	-2e-05	-1e-05	2e-05	2e-05	4e-05	-1e-05	-4e-05	0.0001	3
13657	-2e-05	-1e-05	2e-05	2e-05	4e-05	-1e-05	-4e-05	0.0001	3
13658	-2e-05	-1e-05	2e-05	2e-05	4e-05	-1e-05	-4e-05	0.0001	3
13659	-2e-05	-1e-05	2e-05	2e-05	4e-05	-1e-05	-4e-05	0.0001	3
13660	-2e-05	-1e-05	2e-05	2e-05	4e-05	-1e-05	-4e-05	0.0001	3
13662	-2e-05	-1e-05	2e-05	2e-05	4e-05	-1e-05	-4e-05	0.0001	3
13663	-2e-05	-1e-05	2e-05	2e-05	4e-05	-1e-05	-4e-05	0.0001	3
13664	-3e-05	-2e-05	-7e-05	-4e-05	-7e-05	-6e-05	2e-05	-5e-05	3
13665	-3e-05	-2e-05	-7e-05	-4e-05	-7e-05	-6e-05	2e-05	-5e-05	3
13666	-3e-05	-2e-05	-7e-05	-4e-05	-7e-05	-6e-05	2e-05	-5e-05	3
13667	-3e-05	-2e-05	-7e-05	-4e-05	-7e-05	-6e-05	2e-05	-5e-05	3
13668	-3e-05	-2e-05	-7e-05	-4e-05	-7e-05	-6e-05	2e-05	-5e-05	3
13669	-3e-05	-2e-05	-7e-05	-4e-05	-7e-05	-6e-05	2e-05	-5e-05	3
13670	-3e-05	-2e-05	-7e-05	-4e-05	-7e-05	-6e-05	2e-05	-5e-05	3
13671	-3e-05	-2e-05	-7e-05	-4e-05	-7e-05	-6e-05	2e-05	-5e-05	3
13672	-3e-05	-2e-05	-7e-05	-4e-05	-7e-05	-6e-05	2e-05	-5e-05	3
13673	3e-05	0	2e-05	-1e-05	-0.00014	2e-05	4e-05	4e-05	3
13674	3e-05	0	2e-05	-1e-05	-0.00014	2e-05	4e-05	4e-05	3
13675	3e-05	0	2e-05	-1e-05	-0.00014	2e-05	4e-05	4e-05	3
13676	3e-05	0	2e-05	-1e-05	-0.00014	2e-05	4e-05	4e-05	3
13677	3e-05	0	2e-05	-1e-05	-0.00014	2e-05	4e-05	4e-05	3
13678	3e-05	0	2e-05	-1e-05	-0.00014	2e-05	4e-05	4e-05	3
13679	3e-05	0	2e-05	-1e-05	-0.00014	2e-05	4e-05	4e-05	3
13680	3e-05	0	2e-05	-1e-05	-0.00014	2e-05	4e-05	4e-05	3
13681	3e-05	0	2e-05	-1e-05	-0.00014	2e-05	4e-05	4e-05	3
13682	3e-05	0	2e-05	-1e-05	-0.00014	2e-05	4e-05	4e-05	3
13683	3e-05	0	2e-05	-1e-05	-0.00014	2e-05	4e-05	4e-05	3
13684	3e-05	0	2e-05	-1e-05	-0.00014	2e-05	4e-05	4e-05	3
13685	3e-05	0	2e-05	-1e-05	-0.00014	2e-05	4e-05	4e-05	3
13686	3e-05	0	2e-05	-1e-05	-0.00014	2e-05	4e-05	4e-05	3
13689	3e-05	0	2e-05	-1e-05	-0.00014	2e-05	4e-05	4e-05	3
13690	3e-05	0	2e-05	-1e-05	-0.00014	2e-05	4e-05	4e-05	3
13691	3e-05	0	2e-05	-1e-05	-0.00014	2e-05	4e-05	4e-05	3
13692	3e-05	0	2e-05	-1e-05	-0.00014	2e-05	4e-05	4e-05	3
13693	3e-05	0	2e-05	-1e-05	-0.00014	2e-05	4e-05	4e-05	3
13694	3e-05	0	2e-05	-1e-05	-0.00014	2e-05	4e-05	4e-05	3
13695	3e-05	0	2e-05	-1e-05	-0.00014	2e-05	4e-05	4e-05	3
13696	-0.00016	-3e-05	1e-05	-2e-05	-7e-05	1e-05	-0.00015	-0.00075	3
13697	-3e-05	-2e-05	-4e-05	-9e-05	-4e-05	-2e-05	0.0001	-4e-05	3
13698	-3e-05	-2e-05	-4e-05	-9e-05	-4e-05	-2e-05	0.0001	-4e-05	3
13699	-3e-05	-2e-05	-4e-05	-9e-05	-4e-05	-2e-05	0.0001	-4e-05	3
13700	-3e-05	-2e-05	-4e-05	-9e-05	-4e-05	-2e-05	0.0001	-4e-05	3
13701	-3e-05	-2e-05	-4e-05	-9e-05	-4e-05	-2e-05	0.0001	-4e-05	3
13702	-3e-05	-2e-05	-4e-05	-9e-05	-4e-05	-2e-05	0.0001	-4e-05	3
13703	-3e-05	-2e-05	-4e-05	-9e-05	-4e-05	-2e-05	0.0001	-4e-05	3
13704	-3e-05	-2e-05	-4e-05	-9e-05	-4e-05	-2e-05	0.0001	-4e-05	3
13705	-3e-05	-2e-05	-4e-05	-9e-05	-4e-05	-2e-05	0.0001	-4e-05	3
13706	-3e-05	-2e-05	-4e-05	-9e-05	-4e-05	-2e-05	0.0001	-4e-05	3
13707	-3e-05	-2e-05	-4e-05	-9e-05	-4e-05	-2e-05	0.0001	-4e-05	3
13708	-3e-05	-2e-05	-4e-05	-9e-05	-4e-05	-2e-05	0.0001	-4e-05	3
13709	-3e-05	-2e-05	-4e-05	-9e-05	-4e-05	-2e-05	0.0001	-4e-05	3
13710	-3e-05	-2e-05	-4e-05	-9e-05	-4e-05	-2e-05	0.0001	-4e-05	3
13711	0	0	4e-05	-1e-05	-2e-05	-2e-05	0.00011	-0.00017	3
13712	-5e-05	-6e-05	3e-05	-3e-05	-4e-05	3e-05	-5e-05	-8e-05	3
13713	-5e-05	-6e-05	3e-05	-3e-05	-4e-05	3e-05	-5e-05	-8e-05	3
13714	-5e-05	-6e-05	3e-05	-3e-05	-4e-05	3e-05	-5e-05	-8e-05	3
13715	-5e-05	-6e-05	3e-05	-3e-05	-4e-05	3e-05	-5e-05	-8e-05	3
13716	-5e-05	-6e-05	3e-05	-3e-05	-4e-05	3e-05	-5e-05	-8e-05	3
13717	-5e-05	-6e-05	3e-05	-3e-05	-4e-05	3e-05	-5e-05	-8e-05	3
13718	-5e-05	-6e-05	3e-05	-3e-05	-4e-05	3e-05	-5e-05	-8e-05	3
13719	-5e-05	-6e-05	3e-05	-3e-05	-4e-05	3e-05	-5e-05	-8e-05	3
13720	-5e-05	-6e-05	3e-05	-3e-05	-4e-05	3e-05	-5e-05	-8e-05	3
13721	-5e-05	-6e-05	3e-05	-3e-05	-4e-05	3e-05	-5e-05	-8e-05	3
13722	-5e-05	-6e-05	3e-05	-3e-05	-4e-05	3e-05	-5e-05	-8e-05	3
13723	-5e-05	-6e-05	3e-05	-3e-05	-4e-05	3e-05	-5e-05	-8e-05	3
13724	-5e-05	-6e-05	3e-05	-3e-05	-4e-05	3e-05	-5e-05	-8e-05	3
13725	-5e-05	-6e-05	3e-05	-3e-05	-4e-05	3e-05	-5e-05	-8e-05	3
13726	-5e-05	-6e-05	3e-05	-3e-05	-4e-05	3e-05	-5e-05	-8e-05	3
13727	-5e-05	-6e-05	3e-05	-3e-05	-4e-05	3e-05	-5e-05	-8e-05	3
13728	-5e-05	-6e-05	3e-05	-3e-05	-4e-05	3e-05	-5e-05	-8e-05	3
13729	-5e-05	-6e-05	3e-05	-3e-05	-4e-05	3e-05	-5e-05	-8e-05	3
13730	-5e-05	-6e-05	3e-05	-3e-05	-4e-05	3e-05	-5e-05	-8e-05	3
13731	-5e-05	-6e-05	3e-05	-3e-05	-4e-05	3e-05	-5e-05	-8e-05	3
13732	-5e-05	-6e-05	3e-05	-3e-05	-4e-05	3e-05	-5e-05	-8e-05	3
13733	0.0001	2e-05	1e-05	1e-05	7e-05	0	3e-05	0.0003	3
13734	0.0001	2e-05	1e-05	1e-05	7e-05	0	3e-05	0.0003	3
13735	0	1e-05	-4e-05	-3e-05	1e-05	0	4e-05	0.00011	3
13736	0	1e-05	-4e-05	-3e-05	1e-05	0	4e-05	0.00011	3
13738	0	1e-05	-4e-05	-3e-05	1e-05	0	4e-05	0.00011	3
13740	0	1e-05	-4e-05	-3e-05	1e-05	0	4e-05	0.00011	3
13741	0	1e-05	-4e-05	-3e-05	1e-05	0	4e-05	0.00011	3
13742	0	1e-05	-4e-05	-3e-05	1e-05	0	4e-05	0.00011	3
13743	0	1e-05	-4e-05	-3e-05	1e-05	0	4e-05	0.00011	3
13744	0	1e-05	-4e-05	-3e-05	1e-05	0	4e-05	0.00011	3
13745	0	1e-05	-4e-05	-3e-05	1e-05	0	4e-05	0.00011	3
13746	0	1e-05	-4e-05	-3e-05	1e-05	0	4e-05	0.00011	3
13747	0	1e-05	-4e-05	-3e-05	1e-05	0	4e-05	0.00011	3
13748	1e-05	-2e-05	-1e-05	-1e-05	-2e-05	-2e-05	6e-05	0.00022	3
13749	1e-05	-2e-05	-1e-05	-1e-05	-2e-05	-2e-05	6e-05	0.00022	3
13750	0	-3e-05	-1e-05	-2e-05	-6e-05	-1e-05	-0.00012	0.0001	3
13751	0	-3e-05	-1e-05	-2e-05	-6e-05	-1e-05	-0.00012	0.0001	3
13752	0	-3e-05	-1e-05	-2e-05	-6e-05	-1e-05	-0.00012	0.0001	3
13753	0	-3e-05	-1e-05	-2e-05	-6e-05	-1e-05	-0.00012	0.0001	3
13754	0	-3e-05	-1e-05	-2e-05	-6e-05	-1e-05	-0.00012	0.0001	3
13755	0	-3e-05	-1e-05	-2e-05	-6e-05	-1e-05	-0.00012	0.0001	3
13756	0	-3e-05	-1e-05	-2e-05	-6e-05	-1e-05	-0.00012	0.0001	3
13757	0	-3e-05	-1e-05	-2e-05	-6e-05	-1e-05	-0.00012	0.0001	3
13758	0	-3e-05	-1e-05	-2e-05	-6e-05	-1e-05	-0.00012	0.0001	3
13759	0	-3e-05	-1e-05	-2e-05	-6e-05	-1e-05	-0.00012	0.0001	3
13760	0	-3e-05	-1e-05	-2e-05	-6e-05	-1e-05	-0.00012	0.0001	3
13761	0	-3e-05	-1e-05	-2e-05	-6e-05	-1e-05	-0.00012	0.0001	3
13762	0	-3e-05	-1e-05	-2e-05	-6e-05	-1e-05	-0.00012	0.0001	3
13763	0	-3e-05	-1e-05	-2e-05	-6e-05	-1e-05	-0.00012	0.0001	3
13764	0	-3e-05	-1e-05	-2e-05	-6e-05	-1e-05	-0.00012	0.0001	3
13765	0	-3e-05	-1e-05	-2e-05	-6e-05	-1e-05	-0.00012	0.0001	3
13766	0	-3e-05	-1e-05	-2e-05	-6e-05	-1e-05	-0.00012	0.0001	3
13767	0	-3e-05	-1e-05	-2e-05	-6e-05	-1e-05	-0.00012	0.0001	3
13768	0	-3e-05	-1e-05	-2e-05	-6e-05	-1e-05	-0.00012	0.0001	3
13769	0	-3e-05	-1e-05	-2e-05	-6e-05	-1e-05	-0.00012	0.0001	3
13770	0	-3e-05	-1e-05	-2e-05	-6e-05	-1e-05	-0.00012	0.0001	3
13771	-1e-05	-3e-05	0	3e-05	0.00016	-1e-05	-7e-05	2e-05	3
13772	-1e-05	-3e-05	0	3e-05	0.00016	-1e-05	-7e-05	2e-05	3
13773	-8e-05	-1e-05	2e-05	2e-05	1e-05	0	8e-05	0	3
13774	-8e-05	-1e-05	2e-05	2e-05	1e-05	0	8e-05	0	3
13775	-8e-05	-1e-05	2e-05	2e-05	1e-05	0	8e-05	0	3
13776	-8e-05	-1e-05	2e-05	2e-05	1e-05	0	8e-05	0	3
13777	-8e-05	-1e-05	2e-05	2e-05	1e-05	0	8e-05	0	3
13778	-8e-05	-1e-05	2e-05	2e-05	1e-05	0	8e-05	0	3
13779	-8e-05	-1e-05	2e-05	2e-05	1e-05	0	8e-05	0	3
13780	-8e-05	-1e-05	2e-05	2e-05	1e-05	0	8e-05	0	3
13781	-8e-05	-1e-05	2e-05	2e-05	1e-05	0	8e-05	0	3
13782	-8e-05	-1e-05	2e-05	2e-05	1e-05	0	8e-05	0	3
13783	-8e-05	-1e-05	2e-05	2e-05	1e-05	0	8e-05	0	3
13784	-1e-05	1e-05	5e-05	-1e-05	0	-3e-05	-0.00015	1e-05	3
13785	-1e-05	1e-05	5e-05	-1e-05	0	-3e-05	-0.00015	1e-05	3
13786	-1e-05	1e-05	5e-05	-1e-05	0	-3e-05	-0.00015	1e-05	3
13788	-1e-05	1e-05	5e-05	-1e-05	0	-3e-05	-0.00015	1e-05	3
13789	-1e-05	1e-05	5e-05	-1e-05	0	-3e-05	-0.00015	1e-05	3
13790	-1e-05	1e-05	5e-05	-1e-05	0	-3e-05	-0.00015	1e-05	3
13791	-1e-05	1e-05	5e-05	-1e-05	0	-3e-05	-0.00015	1e-05	3
13792	-1e-05	1e-05	5e-05	-1e-05	0	-3e-05	-0.00015	1e-05	3
13793	1e-05	-2e-05	-6e-05	-5e-05	-8e-05	0.00012	-2e-05	-0.00017	3
13794	1e-05	-2e-05	-6e-05	-5e-05	-8e-05	0.00012	-2e-05	-0.00017	3
13795	1e-05	-2e-05	-6e-05	-5e-05	-8e-05	0.00012	-2e-05	-0.00017	3
13796	1e-05	-2e-05	-6e-05	-5e-05	-8e-05	0.00012	-2e-05	-0.00017	3
13797	1e-05	-2e-05	-6e-05	-5e-05	-8e-05	0.00012	-2e-05	-0.00017	3
13798	1e-05	-2e-05	-6e-05	-5e-05	-8e-05	0.00012	-2e-05	-0.00017	3
13799	1e-05	-2e-05	-6e-05	-5e-05	-8e-05	0.00012	-2e-05	-0.00017	3
13800	1e-05	-2e-05	-6e-05	-5e-05	-8e-05	0.00012	-2e-05	-0.00017	3
13801	1e-05	-2e-05	-6e-05	-5e-05	-8e-05	0.00012	-2e-05	-0.00017	3
13802	1e-05	-2e-05	-6e-05	-5e-05	-8e-05	0.00012	-2e-05	-0.00017	3
13803	1e-05	-2e-05	-6e-05	-5e-05	-8e-05	0.00012	-2e-05	-0.00017	3
13804	1e-05	-2e-05	-6e-05	-5e-05	-8e-05	0.00012	-2e-05	-0.00017	3
13805	1e-05	-2e-05	-6e-05	-5e-05	-8e-05	0.00012	-2e-05	-0.00017	3
13806	1e-05	-2e-05	-6e-05	-5e-05	-8e-05	0.00012	-2e-05	-0.00017	3
13807	1e-05	-2e-05	-6e-05	-5e-05	-8e-05	0.00012	-2e-05	-0.00017	3
13808	-7e-05	1e-05	-3e-05	-3e-05	4e-05	-1e-05	-1e-05	-0.00015	3
13809	-7e-05	1e-05	-3e-05	-3e-05	4e-05	-1e-05	-1e-05	-0.00015	3
13810	-7e-05	1e-05	-3e-05	-3e-05	4e-05	-1e-05	-1e-05	-0.00015	3
13811	-7e-05	1e-05	-3e-05	-3e-05	4e-05	-1e-05	-1e-05	-0.00015	3
13812	-7e-05	1e-05	-3e-05	-3e-05	4e-05	-1e-05	-1e-05	-0.00015	3
13813	-7e-05	1e-05	-3e-05	-3e-05	4e-05	-1e-05	-1e-05	-0.00015	3
13814	-7e-05	1e-05	-3e-05	-3e-05	4e-05	-1e-05	-1e-05	-0.00015	3
13815	-7e-05	1e-05	-3e-05	-3e-05	4e-05	-1e-05	-1e-05	-0.00015	3
13816	9e-05	1e-05	4e-05	-2e-05	-1e-05	-5e-05	1e-05	-5e-05	3
13817	9e-05	1e-05	4e-05	-2e-05	-1e-05	-5e-05	1e-05	-5e-05	3
13818	9e-05	1e-05	4e-05	-2e-05	-1e-05	-5e-05	1e-05	-5e-05	3
13819	9e-05	1e-05	4e-05	-2e-05	-1e-05	-5e-05	1e-05	-5e-05	3
13820	9e-05	1e-05	4e-05	-2e-05	-1e-05	-5e-05	1e-05	-5e-05	3
13821	9e-05	1e-05	4e-05	-2e-05	-1e-05	-5e-05	1e-05	-5e-05	3
13822	9e-05	1e-05	4e-05	-2e-05	-1e-05	-5e-05	1e-05	-5e-05	3
13823	9e-05	1e-05	4e-05	-2e-05	-1e-05	-5e-05	1e-05	-5e-05	3
13824	9e-05	1e-05	4e-05	-2e-05	-1e-05	-5e-05	1e-05	-5e-05	3
13825	9e-05	1e-05	4e-05	-2e-05	-1e-05	-5e-05	1e-05	-5e-05	3
13826	9e-05	1e-05	4e-05	-2e-05	-1e-05	-5e-05	1e-05	-5e-05	3
13827	9e-05	1e-05	4e-05	-2e-05	-1e-05	-5e-05	1e-05	-5e-05	3
13828	9e-05	1e-05	4e-05	-2e-05	-1e-05	-5e-05	1e-05	-5e-05	3
13829	9e-05	1e-05	4e-05	-2e-05	-1e-05	-5e-05	1e-05	-5e-05	3
13830	9e-05	1e-05	4e-05	-2e-05	-1e-05	-5e-05	1e-05	-5e-05	3
13831	1e-05	-4e-05	-5e-05	-3e-05	-2e-05	-4e-05	1e-05	0.0003	3
13832	6e-05	0.00012	2e-05	4e-05	8e-05	-3e-05	3e-05	0.00018	3
13833	6e-05	0.00012	2e-05	4e-05	8e-05	-3e-05	3e-05	0.00018	3
13834	6e-05	0.00012	2e-05	4e-05	8e-05	-3e-05	3e-05	0.00018	3
13835	6e-05	0.00012	2e-05	4e-05	8e-05	-3e-05	3e-05	0.00018	3
13836	6e-05	0.00012	2e-05	4e-05	8e-05	-3e-05	3e-05	0.00018	3
13839	6e-05	0.00012	2e-05	4e-05	8e-05	-3e-05	3e-05	0.00018	3
13840	6e-05	0.00012	2e-05	4e-05	8e-05	-3e-05	3e-05	0.00018	3
13841	6e-05	0.00012	2e-05	4e-05	8e-05	-3e-05	3e-05	0.00018	3
13842	6e-05	0.00012	2e-05	4e-05	8e-05	-3e-05	3e-05	0.00018	3
13843	6e-05	0.00012	2e-05	4e-05	8e-05	-3e-05	3e-05	0.00018	3
13844	6e-05	0.00012	2e-05	4e-05	8e-05	-3e-05	3e-05	0.00018	3
13845	6e-05	0.00012	2e-05	4e-05	8e-05	-3e-05	3e-05	0.00018	3
13846	6e-05	0.00012	2e-05	4e-05	8e-05	-3e-05	3e-05	0.00018	3
13847	6e-05	0.00012	2e-05	4e-05	8e-05	-3e-05	3e-05	0.00018	3
13848	6e-05	0.00012	2e-05	4e-05	8e-05	-3e-05	3e-05	0.00018	3
13849	6e-05	0.00012	2e-05	4e-05	8e-05	-3e-05	3e-05	0.00018	3
13850	6e-05	0.00012	2e-05	4e-05	8e-05	-3e-05	3e-05	0.00018	3
13851	6e-05	0.00012	2e-05	4e-05	8e-05	-3e-05	3e-05	0.00018	3
13852	6e-05	0.00012	2e-05	4e-05	8e-05	-3e-05	3e-05	0.00018	3
13853	-4e-05	-3e-05	-2e-05	1e-05	-5e-05	-1e-05	1e-05	-2e-05	3
13854	-4e-05	-3e-05	-2e-05	1e-05	-5e-05	-1e-05	1e-05	-2e-05	3
13855	-1e-05	-5e-05	-2e-05	4e-05	6e-05	-3e-05	-8e-05	-7e-05	3
13856	-1e-05	-5e-05	-2e-05	4e-05	6e-05	-3e-05	-8e-05	-7e-05	3
13857	-1e-05	-5e-05	-2e-05	4e-05	6e-05	-3e-05	-8e-05	-7e-05	3
13858	-1e-05	-5e-05	-2e-05	4e-05	6e-05	-3e-05	-8e-05	-7e-05	3
13859	-1e-05	-5e-05	-2e-05	4e-05	6e-05	-3e-05	-8e-05	-7e-05	3
13860	-1e-05	-5e-05	-2e-05	4e-05	6e-05	-3e-05	-8e-05	-7e-05	3
13861	-1e-05	-5e-05	-2e-05	4e-05	6e-05	-3e-05	-8e-05	-7e-05	3
13862	-1e-05	-5e-05	-2e-05	4e-05	6e-05	-3e-05	-8e-05	-7e-05	3
13863	-1e-05	-5e-05	-2e-05	4e-05	6e-05	-3e-05	-8e-05	-7e-05	3
13864	-1e-05	-5e-05	-2e-05	4e-05	6e-05	-3e-05	-8e-05	-7e-05	3
13865	-1e-05	-5e-05	-2e-05	4e-05	6e-05	-3e-05	-8e-05	-7e-05	3
13866	-1e-05	-5e-05	-2e-05	4e-05	6e-05	-3e-05	-8e-05	-7e-05	3
13867	-1e-05	-5e-05	-2e-05	4e-05	6e-05	-3e-05	-8e-05	-7e-05	3
13868	-8e-05	-6e-05	-0.00013	-3e-05	1e-05	-3e-05	0.00024	-3e-05	3
13869	-8e-05	-6e-05	-0.00013	-3e-05	1e-05	-3e-05	0.00024	-3e-05	3
13870	-9e-05	-3e-05	1e-05	-2e-05	0	-7e-05	0	7e-05	3
13871	-9e-05	-3e-05	1e-05	-2e-05	0	-7e-05	0	7e-05	3
13872	-9e-05	-3e-05	1e-05	-2e-05	0	-7e-05	0	7e-05	3
13873	-9e-05	-3e-05	1e-05	-2e-05	0	-7e-05	0	7e-05	3
13874	-9e-05	-3e-05	1e-05	-2e-05	0	-7e-05	0	7e-05	3
13875	-9e-05	-3e-05	1e-05	-2e-05	0	-7e-05	0	7e-05	3
13876	-9e-05	-3e-05	1e-05	-2e-05	0	-7e-05	0	7e-05	3
13877	-9e-05	-3e-05	1e-05	-2e-05	0	-7e-05	0	7e-05	3
13878	-9e-05	-3e-05	1e-05	-2e-05	0	-7e-05	0	7e-05	3
13879	-9e-05	-3e-05	1e-05	-2e-05	0	-7e-05	0	7e-05	3
13880	-9e-05	-3e-05	1e-05	-2e-05	0	-7e-05	0	7e-05	3
13881	-9e-05	-3e-05	1e-05	-2e-05	0	-7e-05	0	7e-05	3
13882	-9e-05	-3e-05	1e-05	-2e-05	0	-7e-05	0	7e-05	3
13883	-9e-05	-3e-05	1e-05	-2e-05	0	-7e-05	0	7e-05	3
13884	-9e-05	-3e-05	1e-05	-2e-05	0	-7e-05	0	7e-05	3
13885	-9e-05	-3e-05	1e-05	-2e-05	0	-7e-05	0	7e-05	3
13886	-9e-05	-3e-05	1e-05	-2e-05	0	-7e-05	0	7e-05	3
13888	-9e-05	-3e-05	1e-05	-2e-05	0	-7e-05	0	7e-05	3
13890	-9e-05	-3e-05	1e-05	-2e-05	0	-7e-05	0	7e-05	3
13891	-9e-05	-3e-05	1e-05	-2e-05	0	-7e-05	0	7e-05	3
13892	1e-05	4e-05	2e-05	-2e-05	-3e-05	0	-2e-05	-7e-05	3
13893	1e-05	4e-05	-2e-05	-1e-05	1e-05	-5e-05	3e-05	7e-05	3
13895	1e-05	4e-05	-2e-05	-1e-05	1e-05	-5e-05	3e-05	7e-05	3
13896	1e-05	4e-05	-2e-05	-1e-05	1e-05	-5e-05	3e-05	7e-05	3
13897	1e-05	4e-05	-2e-05	-1e-05	1e-05	-5e-05	3e-05	7e-05	3
13898	1e-05	4e-05	-2e-05	-1e-05	1e-05	-5e-05	3e-05	7e-05	3
13899	1e-05	4e-05	-2e-05	-1e-05	1e-05	-5e-05	3e-05	7e-05	3
13900	1e-05	4e-05	-2e-05	-1e-05	1e-05	-5e-05	3e-05	7e-05	3
13901	1e-05	4e-05	-2e-05	-1e-05	1e-05	-5e-05	3e-05	7e-05	3
13902	1e-05	4e-05	-2e-05	-1e-05	1e-05	-5e-05	3e-05	7e-05	3
13903	1e-05	4e-05	-2e-05	-1e-05	1e-05	-5e-05	3e-05	7e-05	3
13904	1e-05	3e-05	0	-7e-05	-0.00012	0	-5e-05	5e-05	3
13905	1e-05	3e-05	0	-7e-05	-0.00012	0	-5e-05	5e-05	3
13906	1e-05	3e-05	0	-7e-05	-0.00012	0	-5e-05	5e-05	3
13907	1e-05	3e-05	0	-7e-05	-0.00012	0	-5e-05	5e-05	3
13908	1e-05	3e-05	0	-7e-05	-0.00012	0	-5e-05	5e-05	3
13909	1e-05	3e-05	0	-7e-05	-0.00012	0	-5e-05	5e-05	3
13910	1e-05	3e-05	0	-7e-05	-0.00012	0	-5e-05	5e-05	3
13911	1e-05	3e-05	0	-7e-05	-0.00012	0	-5e-05	5e-05	3
13912	1e-05	3e-05	0	-7e-05	-0.00012	0	-5e-05	5e-05	3
13913	-0.00011	-6e-05	0	-3e-05	2e-05	4e-05	-1e-05	-5e-05	3
13914	-0.00011	-6e-05	0	-3e-05	2e-05	4e-05	-1e-05	-5e-05	3
13915	-0.00011	-6e-05	0	-3e-05	2e-05	4e-05	-1e-05	-5e-05	3
13916	-0.00011	-6e-05	0	-3e-05	2e-05	4e-05	-1e-05	-5e-05	3
41894	0.00027	6e-05	2e-05	1e-05	-0.00011	-6e-05	-0.00012	-7e-05	3
41895	0.00027	6e-05	2e-05	1e-05	-0.00011	-6e-05	-0.00012	-7e-05	3
41896	0.00027	6e-05	2e-05	1e-05	-0.00011	-6e-05	-0.00012	-7e-05	3
41897	0.00027	6e-05	2e-05	1e-05	-0.00011	-6e-05	-0.00012	-7e-05	3
41898	0.00027	6e-05	2e-05	1e-05	-0.00011	-6e-05	-0.00012	-7e-05	3
41899	0.00027	6e-05	2e-05	1e-05	-0.00011	-6e-05	-0.00012	-7e-05	3
41900	0.00027	6e-05	2e-05	1e-05	-0.00011	-6e-05	-0.00012	-7e-05	3
41901	0.00027	6e-05	2e-05	1e-05	-0.00011	-6e-05	-0.00012	-7e-05	3
41902	0.00027	6e-05	2e-05	1e-05	-0.00011	-6e-05	-0.00012	-7e-05	3
41903	0.00027	6e-05	2e-05	1e-05	-0.00011	-6e-05	-0.00012	-7e-05	3
41904	0.00027	6e-05	2e-05	1e-05	-0.00011	-6e-05	-0.00012	-7e-05	3
41905	0.00014	-0.00011	-0.0001	-0.00015	-0.00021	-0.00021	-0.00082	-0.00059	3
41906	-0.00036	-3e-05	5e-05	2e-05	0.00018	-1e-05	-4e-05	-0.00011	3
41907	-0.00036	-3e-05	5e-05	2e-05	0.00018	-1e-05	-4e-05	-0.00011	3
41908	-0.00036	-3e-05	5e-05	2e-05	0.00018	-1e-05	-4e-05	-0.00011	3
41909	-0.00036	-3e-05	5e-05	2e-05	0.00018	-1e-05	-4e-05	-0.00011	3
41910	-0.00036	-3e-05	5e-05	2e-05	0.00018	-1e-05	-4e-05	-0.00011	3
41911	-0.00036	-3e-05	5e-05	2e-05	0.00018	-1e-05	-4e-05	-0.00011	3
41912	-0.00036	-3e-05	5e-05	2e-05	0.00018	-1e-05	-4e-05	-0.00011	3
41913	-0.00036	-3e-05	5e-05	2e-05	0.00018	-1e-05	-4e-05	-0.00011	3
41914	-0.00036	-3e-05	5e-05	2e-05	0.00018	-1e-05	-4e-05	-0.00011	3
41915	-0.00036	-3e-05	5e-05	2e-05	0.00018	-1e-05	-4e-05	-0.00011	3
41916	-0.00036	-3e-05	5e-05	2e-05	0.00018	-1e-05	-4e-05	-0.00011	3
41917	-0.00036	-3e-05	5e-05	2e-05	0.00018	-1e-05	-4e-05	-0.00011	3
41918	-0.00036	-3e-05	5e-05	2e-05	0.00018	-1e-05	-4e-05	-0.00011	3
41919	-0.00036	-3e-05	5e-05	2e-05	0.00018	-1e-05	-4e-05	-0.00011	3
41920	-0.00036	-3e-05	5e-05	2e-05	0.00018	-1e-05	-4e-05	-0.00011	3
41921	-0.00036	-3e-05	5e-05	2e-05	0.00018	-1e-05	-4e-05	-0.00011	3
41922	-0.00036	-3e-05	5e-05	2e-05	0.00018	-1e-05	-4e-05	-0.00011	3
41923	-0.00036	-3e-05	5e-05	2e-05	0.00018	-1e-05	-4e-05	-0.00011	3
41924	-0.00036	-3e-05	5e-05	2e-05	0.00018	-1e-05	-4e-05	-0.00011	3
41925	-0.00036	-3e-05	5e-05	2e-05	0.00018	-1e-05	-4e-05	-0.00011	3
41926	0.00023	0.0001	-1e-05	-3e-05	0	-0.00013	-0.00033	-0.00034	3
41927	-0.00014	0.00015	1e-05	1e-05	5e-05	1e-05	-8e-05	-0.00017	3
41928	-0.00047	-9e-05	5e-05	6e-05	0.00024	1e-05	-0.00012	-0.00043	3
41929	-0.00047	-9e-05	5e-05	6e-05	0.00024	1e-05	-0.00012	-0.00043	3
41930	-0.00047	-9e-05	5e-05	6e-05	0.00024	1e-05	-0.00012	-0.00043	3
41931	-0.00047	-9e-05	5e-05	6e-05	0.00024	1e-05	-0.00012	-0.00043	3
41932	-0.00047	-9e-05	5e-05	6e-05	0.00024	1e-05	-0.00012	-0.00043	3
41933	-0.00047	-9e-05	5e-05	6e-05	0.00024	1e-05	-0.00012	-0.00043	3
41934	-0.00047	-9e-05	5e-05	6e-05	0.00024	1e-05	-0.00012	-0.00043	3
41935	-0.00047	-9e-05	5e-05	6e-05	0.00024	1e-05	-0.00012	-0.00043	3
41936	-0.00047	-9e-05	5e-05	6e-05	0.00024	1e-05	-0.00012	-0.00043	3
41938	-0.00047	-9e-05	5e-05	6e-05	0.00024	1e-05	-0.00012	-0.00043	3
41939	-0.00047	-9e-05	5e-05	6e-05	0.00024	1e-05	-0.00012	-0.00043	3
41940	-0.00047	-9e-05	5e-05	6e-05	0.00024	1e-05	-0.00012	-0.00043	3
41941	-0.0001	-0.0001	-0.00015	-0.00022	-0.00044	-0.00023	-0.00052	-0.0005	3
41942	-0.0001	-0.0001	-0.00015	-0.00022	-0.00044	-0.00023	-0.00052	-0.0005	3
41943	-0.0001	-0.0001	-0.00015	-0.00022	-0.00044	-0.00023	-0.00052	-0.0005	3
41944	-0.0001	-0.0001	-0.00015	-0.00022	-0.00044	-0.00023	-0.00052	-0.0005	3
41945	-0.0001	-0.0001	-0.00015	-0.00022	-0.00044	-0.00023	-0.00052	-0.0005	3
41946	-0.0001	-0.0001	-0.00015	-0.00022	-0.00044	-0.00023	-0.00052	-0.0005	3
41947	-0.00049	-0.0002	8e-05	0.00017	0.00027	4e-05	5e-05	0.00042	3
41948	-0.00037	-0.0001	-7e-05	-7e-05	-0.00016	-6e-05	-0.0005	-0.00099	3
41949	-0.00037	-0.0001	-7e-05	-7e-05	-0.00016	-6e-05	-0.0005	-0.00099	3
41950	-0.00037	-0.0001	-7e-05	-7e-05	-0.00016	-6e-05	-0.0005	-0.00099	3
41951	-0.00037	-0.0001	-7e-05	-7e-05	-0.00016	-6e-05	-0.0005	-0.00099	3
41952	-0.00037	-0.0001	-7e-05	-7e-05	-0.00016	-6e-05	-0.0005	-0.00099	3
41953	-0.00037	-0.0001	-7e-05	-7e-05	-0.00016	-6e-05	-0.0005	-0.00099	3
41954	-0.00037	-0.0001	-7e-05	-7e-05	-0.00016	-6e-05	-0.0005	-0.00099	3
41955	-0.00037	-0.0001	-7e-05	-7e-05	-0.00016	-6e-05	-0.0005	-0.00099	3
41956	-0.00037	-0.0001	-7e-05	-7e-05	-0.00016	-6e-05	-0.0005	-0.00099	3
41957	-0.00037	-0.0001	-7e-05	-7e-05	-0.00016	-6e-05	-0.0005	-0.00099	3
41958	-0.00037	-0.0001	-7e-05	-7e-05	-0.00016	-6e-05	-0.0005	-0.00099	3
41959	-0.00037	-0.0001	-7e-05	-7e-05	-0.00016	-6e-05	-0.0005	-0.00099	3
41960	-0.00037	-0.0001	-7e-05	-7e-05	-0.00016	-6e-05	-0.0005	-0.00099	3
41961	-0.00037	-0.0001	-7e-05	-7e-05	-0.00016	-6e-05	-0.0005	-0.00099	3
41962	-0.00037	-0.0001	-7e-05	-7e-05	-0.00016	-6e-05	-0.0005	-0.00099	3
41963	-0.00037	-0.0001	-7e-05	-7e-05	-0.00016	-6e-05	-0.0005	-0.00099	3
41964	0	8e-05	2e-05	-7e-05	-0.00014	-3e-05	0.00017	-0.00038	3
41965	-1e-05	-0.00018	-5e-05	6e-05	0.00028	-3e-05	-9e-05	-0.00032	3
41966	-1e-05	-0.00018	-5e-05	6e-05	0.00028	-3e-05	-9e-05	-0.00032	3
41967	-1e-05	-0.00018	-5e-05	6e-05	0.00028	-3e-05	-9e-05	-0.00032	3
41968	-1e-05	-0.00018	-5e-05	6e-05	0.00028	-3e-05	-9e-05	-0.00032	3
41969	-1e-05	-0.00018	-5e-05	6e-05	0.00028	-3e-05	-9e-05	-0.00032	3
41970	-1e-05	-0.00018	-5e-05	6e-05	0.00028	-3e-05	-9e-05	-0.00032	3
41971	-1e-05	-0.00018	-5e-05	6e-05	0.00028	-3e-05	-9e-05	-0.00032	3
41972	-1e-05	-0.00018	-5e-05	6e-05	0.00028	-3e-05	-9e-05	-0.00032	3
41973	-1e-05	-0.00018	-5e-05	6e-05	0.00028	-3e-05	-9e-05	-0.00032	3
41974	-1e-05	-0.00018	-5e-05	6e-05	0.00028	-3e-05	-9e-05	-0.00032	3
41975	-1e-05	-0.00018	-5e-05	6e-05	0.00028	-3e-05	-9e-05	-0.00032	3
41976	-1e-05	-0.00018	-5e-05	6e-05	0.00028	-3e-05	-9e-05	-0.00032	3
41977	-1e-05	-0.00018	-5e-05	6e-05	0.00028	-3e-05	-9e-05	-0.00032	3
41978	-1e-05	-0.00018	-5e-05	6e-05	0.00028	-3e-05	-9e-05	-0.00032	3
41979	-1e-05	-0.00018	-5e-05	6e-05	0.00028	-3e-05	-9e-05	-0.00032	3
41980	-1e-05	-0.00018	-5e-05	6e-05	0.00028	-3e-05	-9e-05	-0.00032	3
41981	-1e-05	-0.00018	-5e-05	6e-05	0.00028	-3e-05	-9e-05	-0.00032	3
41982	-1e-05	-0.00018	-5e-05	6e-05	0.00028	-3e-05	-9e-05	-0.00032	3
41983	-1e-05	-0.00018	-5e-05	6e-05	0.00028	-3e-05	-9e-05	-0.00032	3
41984	-1e-05	-0.00018	-5e-05	6e-05	0.00028	-3e-05	-9e-05	-0.00032	3
41985	-1e-05	-0.00018	-5e-05	6e-05	0.00028	-3e-05	-9e-05	-0.00032	3
41986	0.00081	0.00028	8e-05	8e-05	-0.00013	-0.0001	3e-05	0.00079	3
41989	0.00012	5e-05	0	-8e-05	-0.00014	0.00019	0.00074	0.00025	3
41990	0.00012	5e-05	0	-8e-05	-0.00014	0.00019	0.00074	0.00025	3
41991	0.00012	5e-05	0	-8e-05	-0.00014	0.00019	0.00074	0.00025	3
41992	0.00012	5e-05	0	-8e-05	-0.00014	0.00019	0.00074	0.00025	3
41993	0.00012	5e-05	0	-8e-05	-0.00014	0.00019	0.00074	0.00025	3
41994	0.00012	5e-05	0	-8e-05	-0.00014	0.00019	0.00074	0.00025	3
41995	0.00012	5e-05	0	-8e-05	-0.00014	0.00019	0.00074	0.00025	3
41996	0.00012	5e-05	0	-8e-05	-0.00014	0.00019	0.00074	0.00025	3
41997	0.00012	5e-05	0	-8e-05	-0.00014	0.00019	0.00074	0.00025	3
41998	0.00012	5e-05	0	-8e-05	-0.00014	0.00019	0.00074	0.00025	3
41999	0.00012	5e-05	0	-8e-05	-0.00014	0.00019	0.00074	0.00025	3
42000	0.00012	5e-05	0	-8e-05	-0.00014	0.00019	0.00074	0.00025	3
42001	0.00048	0.0002	7e-05	1e-05	-7e-05	-0.00017	2e-05	2e-05	3
42002	0.00048	0.0002	7e-05	1e-05	-7e-05	-0.00017	2e-05	2e-05	3
42003	0.00048	0.0002	7e-05	1e-05	-7e-05	-0.00017	2e-05	2e-05	3
42004	0.00048	0.0002	7e-05	1e-05	-7e-05	-0.00017	2e-05	2e-05	3
42005	0.00048	0.0002	7e-05	1e-05	-7e-05	-0.00017	2e-05	2e-05	3
42006	0.00048	0.0002	7e-05	1e-05	-7e-05	-0.00017	2e-05	2e-05	3
42007	0.00048	0.0002	7e-05	1e-05	-7e-05	-0.00017	2e-05	2e-05	3
42008	7e-05	-0.00012	-1e-05	5e-05	-2e-05	0	-0.00029	5e-05	3
42009	7e-05	-0.00012	-1e-05	5e-05	-2e-05	0	-0.00029	5e-05	3
42010	7e-05	-0.00012	-1e-05	5e-05	-2e-05	0	-0.00029	5e-05	3
42011	7e-05	-0.00012	-1e-05	5e-05	-2e-05	0	-0.00029	5e-05	3
42012	7e-05	-0.00012	-1e-05	5e-05	-2e-05	0	-0.00029	5e-05	3
42013	7e-05	-0.00012	-1e-05	5e-05	-2e-05	0	-0.00029	5e-05	3
42014	7e-05	-0.00012	-1e-05	5e-05	-2e-05	0	-0.00029	5e-05	3
42015	7e-05	-0.00012	-1e-05	5e-05	-2e-05	0	-0.00029	5e-05	3
42016	7e-05	-0.00012	-1e-05	5e-05	-2e-05	0	-0.00029	5e-05	3
42017	7e-05	-0.00012	-1e-05	5e-05	-2e-05	0	-0.00029	5e-05	3
42018	7e-05	-0.00012	-1e-05	5e-05	-2e-05	0	-0.00029	5e-05	3
42019	7e-05	-0.00012	-1e-05	5e-05	-2e-05	0	-0.00029	5e-05	3
42020	7e-05	-0.00012	-1e-05	5e-05	-2e-05	0	-0.00029	5e-05	3
42021	7e-05	-0.00012	-1e-05	5e-05	-2e-05	0	-0.00029	5e-05	3
42022	7e-05	-0.00012	-1e-05	5e-05	-2e-05	0	-0.00029	5e-05	3
42023	7e-05	-0.00012	-1e-05	5e-05	-2e-05	0	-0.00029	5e-05	3
42024	-0.00024	-0.00018	2e-05	-0.00011	-0.00019	1e-05	8e-05	-7e-05	3
42025	-7e-05	8e-05	4e-05	4e-05	2e-05	-2e-05	6e-05	-0.00016	3
42026	-7e-05	8e-05	4e-05	4e-05	2e-05	-2e-05	6e-05	-0.00016	3
42027	-7e-05	8e-05	4e-05	4e-05	2e-05	-2e-05	6e-05	-0.00016	3
42028	-7e-05	8e-05	4e-05	4e-05	2e-05	-2e-05	6e-05	-0.00016	3
42029	-7e-05	8e-05	4e-05	4e-05	2e-05	-2e-05	6e-05	-0.00016	3
42030	-7e-05	8e-05	4e-05	4e-05	2e-05	-2e-05	6e-05	-0.00016	3
42031	-7e-05	8e-05	4e-05	4e-05	2e-05	-2e-05	6e-05	-0.00016	3
42032	-7e-05	8e-05	4e-05	4e-05	2e-05	-2e-05	6e-05	-0.00016	3
42033	-7e-05	8e-05	4e-05	4e-05	2e-05	-2e-05	6e-05	-0.00016	3
42034	-7e-05	8e-05	4e-05	4e-05	2e-05	-2e-05	6e-05	-0.00016	3
42035	-7e-05	8e-05	4e-05	4e-05	2e-05	-2e-05	6e-05	-0.00016	3
42036	-7e-05	8e-05	4e-05	4e-05	2e-05	-2e-05	6e-05	-0.00016	3
42038	-7e-05	8e-05	4e-05	4e-05	2e-05	-2e-05	6e-05	-0.00016	3
42039	-7e-05	8e-05	4e-05	4e-05	2e-05	-2e-05	6e-05	-0.00016	3
42040	-7e-05	8e-05	4e-05	4e-05	2e-05	-2e-05	6e-05	-0.00016	3
42041	-7e-05	8e-05	4e-05	4e-05	2e-05	-2e-05	6e-05	-0.00016	3
42042	-7e-05	8e-05	4e-05	4e-05	2e-05	-2e-05	6e-05	-0.00016	3
42043	-7e-05	8e-05	4e-05	4e-05	2e-05	-2e-05	6e-05	-0.00016	3
42044	-7e-05	8e-05	4e-05	4e-05	2e-05	-2e-05	6e-05	-0.00016	3
42045	-7e-05	8e-05	4e-05	4e-05	2e-05	-2e-05	6e-05	-0.00016	3
42046	-7e-05	8e-05	4e-05	4e-05	2e-05	-2e-05	6e-05	-0.00016	3
42047	3e-05	0.0001	-5e-05	-5e-05	-0.0001	-8e-05	-0.00033	0.00024	3
42048	0.0001	-8e-05	1e-05	0	-2e-05	-0.00012	-0.00031	-0.00017	3
42049	0.0001	-8e-05	1e-05	0	-2e-05	-0.00012	-0.00031	-0.00017	3
42050	0.0001	-8e-05	1e-05	0	-2e-05	-0.00012	-0.00031	-0.00017	3
42051	0.0001	-8e-05	1e-05	0	-2e-05	-0.00012	-0.00031	-0.00017	3
42052	0.0001	-8e-05	1e-05	0	-2e-05	-0.00012	-0.00031	-0.00017	3
42053	0.0001	-8e-05	1e-05	0	-2e-05	-0.00012	-0.00031	-0.00017	3
42054	0.0001	-8e-05	1e-05	0	-2e-05	-0.00012	-0.00031	-0.00017	3
42055	0.0001	-8e-05	1e-05	0	-2e-05	-0.00012	-0.00031	-0.00017	3
42056	0.0001	-8e-05	1e-05	0	-2e-05	-0.00012	-0.00031	-0.00017	3
42057	0.0001	-8e-05	1e-05	0	-2e-05	-0.00012	-0.00031	-0.00017	3
42058	0.0001	-8e-05	1e-05	0	-2e-05	-0.00012	-0.00031	-0.00017	3
42059	0.0001	-8e-05	1e-05	0	-2e-05	-0.00012	-0.00031	-0.00017	3
42060	0.0001	-8e-05	1e-05	0	-2e-05	-0.00012	-0.00031	-0.00017	3
42061	-5e-05	-0.00011	-7e-05	-7e-05	2e-05	-7e-05	-0.00034	-0.00076	3
42062	-5e-05	-0.00011	-7e-05	-7e-05	2e-05	-7e-05	-0.00034	-0.00076	3
42063	-5e-05	-0.00011	-7e-05	-7e-05	2e-05	-7e-05	-0.00034	-0.00076	3
42064	-5e-05	-0.00011	-7e-05	-7e-05	2e-05	-7e-05	-0.00034	-0.00076	3
42065	-5e-05	-0.00011	-7e-05	-7e-05	2e-05	-7e-05	-0.00034	-0.00076	3
42066	-5e-05	-0.00011	-7e-05	-7e-05	2e-05	-7e-05	-0.00034	-0.00076	3
42067	-5e-05	-0.00011	-7e-05	-7e-05	2e-05	-7e-05	-0.00034	-0.00076	3
42068	0.00016	0.00016	2e-05	2e-05	-1e-05	-2e-05	-5e-05	0.00012	3
42069	0.00016	0.00016	2e-05	2e-05	-1e-05	-2e-05	-5e-05	0.00012	3
42070	0.00016	0.00016	2e-05	2e-05	-1e-05	-2e-05	-5e-05	0.00012	3
42071	0.00016	0.00016	2e-05	2e-05	-1e-05	-2e-05	-5e-05	0.00012	3
42072	0.00016	0.00016	2e-05	2e-05	-1e-05	-2e-05	-5e-05	0.00012	3
42073	0.00016	0.00016	2e-05	2e-05	-1e-05	-2e-05	-5e-05	0.00012	3
42074	0.00016	0.00016	2e-05	2e-05	-1e-05	-2e-05	-5e-05	0.00012	3
42075	0.00016	0.00016	2e-05	2e-05	-1e-05	-2e-05	-5e-05	0.00012	3
42076	0.00016	0.00016	2e-05	2e-05	-1e-05	-2e-05	-5e-05	0.00012	3
42077	0.00016	0.00016	2e-05	2e-05	-1e-05	-2e-05	-5e-05	0.00012	3
42078	0.00016	0.00016	2e-05	2e-05	-1e-05	-2e-05	-5e-05	0.00012	3
42079	0.00016	0.00016	2e-05	2e-05	-1e-05	-2e-05	-5e-05	0.00012	3
42080	0.00016	0.00016	2e-05	2e-05	-1e-05	-2e-05	-5e-05	0.00012	3
42081	0.00016	0.00016	2e-05	2e-05	-1e-05	-2e-05	-5e-05	0.00012	3
42082	0.00016	0.00016	2e-05	2e-05	-1e-05	-2e-05	-5e-05	0.00012	3
42083	0.00016	0.00016	2e-05	2e-05	-1e-05	-2e-05	-5e-05	0.00012	3
42084	-0.00014	-1e-05	-3e-05	2e-05	0.00018	-5e-05	-0.00025	2e-05	3
42085	0.00014	-1e-05	-2e-05	-0.00011	-0.00014	-9e-05	-0.00045	-2e-05	3
42087	0.00014	-1e-05	-2e-05	-0.00011	-0.00014	-9e-05	-0.00045	-2e-05	3
42089	0.00014	-1e-05	-2e-05	-0.00011	-0.00014	-9e-05	-0.00045	-2e-05	3
42090	0.00014	-1e-05	-2e-05	-0.00011	-0.00014	-9e-05	-0.00045	-2e-05	3
42091	0.00014	-1e-05	-2e-05	-0.00011	-0.00014	-9e-05	-0.00045	-2e-05	3
42092	0.00014	-1e-05	-2e-05	-0.00011	-0.00014	-9e-05	-0.00045	-2e-05	3
42093	0.00014	-1e-05	-2e-05	-0.00011	-0.00014	-9e-05	-0.00045	-2e-05	3
42094	0.00014	-1e-05	-2e-05	-0.00011	-0.00014	-9e-05	-0.00045	-2e-05	3
42095	0.00014	-1e-05	-2e-05	-0.00011	-0.00014	-9e-05	-0.00045	-2e-05	3
42096	0.00014	-1e-05	-2e-05	-0.00011	-0.00014	-9e-05	-0.00045	-2e-05	3
42097	0.00014	-1e-05	-2e-05	-0.00011	-0.00014	-9e-05	-0.00045	-2e-05	3
42098	0.00014	-1e-05	-2e-05	-0.00011	-0.00014	-9e-05	-0.00045	-2e-05	3
42099	0.00014	-1e-05	-2e-05	-0.00011	-0.00014	-9e-05	-0.00045	-2e-05	3
42100	0.00014	-1e-05	-2e-05	-0.00011	-0.00014	-9e-05	-0.00045	-2e-05	3
42101	0.00014	-1e-05	-2e-05	-0.00011	-0.00014	-9e-05	-0.00045	-2e-05	3
42102	0.00014	-1e-05	-2e-05	-0.00011	-0.00014	-9e-05	-0.00045	-2e-05	3
42103	0.00014	-1e-05	-2e-05	-0.00011	-0.00014	-9e-05	-0.00045	-2e-05	3
42104	0.00014	-1e-05	-2e-05	-0.00011	-0.00014	-9e-05	-0.00045	-2e-05	3
42105	0.00014	-1e-05	-2e-05	-0.00011	-0.00014	-9e-05	-0.00045	-2e-05	3
42106	1e-05	-0.00014	-7e-05	-8e-05	-0.00027	-0.00026	-0.00019	1e-05	3
42107	0.00029	3e-05	-1e-05	-1e-05	-6e-05	1e-05	0.00024	0.00031	3
42108	0.00029	3e-05	-1e-05	-1e-05	-6e-05	1e-05	0.00024	0.00031	3
42109	0.00029	3e-05	-1e-05	-1e-05	-6e-05	1e-05	0.00024	0.00031	3
42110	0.00029	3e-05	-1e-05	-1e-05	-6e-05	1e-05	0.00024	0.00031	3
42111	0.00029	3e-05	-1e-05	-1e-05	-6e-05	1e-05	0.00024	0.00031	3
42112	0.00029	3e-05	-1e-05	-1e-05	-6e-05	1e-05	0.00024	0.00031	3
42113	0.00029	3e-05	-1e-05	-1e-05	-6e-05	1e-05	0.00024	0.00031	3
42114	0.00029	3e-05	-1e-05	-1e-05	-6e-05	1e-05	0.00024	0.00031	3
42115	0.00029	3e-05	-1e-05	-1e-05	-6e-05	1e-05	0.00024	0.00031	3
42116	0.00029	3e-05	-1e-05	-1e-05	-6e-05	1e-05	0.00024	0.00031	3
42117	0.00029	3e-05	-1e-05	-1e-05	-6e-05	1e-05	0.00024	0.00031	3
42118	0.00029	3e-05	-1e-05	-1e-05	-6e-05	1e-05	0.00024	0.00031	3
42119	0.00029	3e-05	-1e-05	-1e-05	-6e-05	1e-05	0.00024	0.00031	3
42120	0.00029	3e-05	-1e-05	-1e-05	-6e-05	1e-05	0.00024	0.00031	3
42121	-0.00066	-3e-05	-6e-05	-9e-05	-0.00018	-2e-05	-0.00011	9e-05	3
42122	-0.00029	-2e-05	-1e-05	1e-05	-6e-05	-5e-05	-0.00012	-0.0004	3
42123	-0.00029	-2e-05	-1e-05	1e-05	-6e-05	-5e-05	-0.00012	-0.0004	3
42124	-0.00029	-2e-05	-1e-05	1e-05	-6e-05	-5e-05	-0.00012	-0.0004	3
42125	-0.00029	-2e-05	-1e-05	1e-05	-6e-05	-5e-05	-0.00012	-0.0004	3
42126	-0.00029	-2e-05	-1e-05	1e-05	-6e-05	-5e-05	-0.00012	-0.0004	3
42127	-0.00029	-2e-05	-1e-05	1e-05	-6e-05	-5e-05	-0.00012	-0.0004	3
42128	-0.00029	-2e-05	-1e-05	1e-05	-6e-05	-5e-05	-0.00012	-0.0004	3
42129	-0.00021	0.00017	-2e-05	4e-05	0.00031	0.00013	8e-05	-0.00029	3
42130	-0.00021	0.00017	-2e-05	4e-05	0.00031	0.00013	8e-05	-0.00029	3
42131	-0.00021	0.00017	-2e-05	4e-05	0.00031	0.00013	8e-05	-0.00029	3
42132	-0.00021	0.00017	-2e-05	4e-05	0.00031	0.00013	8e-05	-0.00029	3
42133	-0.00021	0.00017	-2e-05	4e-05	0.00031	0.00013	8e-05	-0.00029	3
42134	-0.00021	0.00017	-2e-05	4e-05	0.00031	0.00013	8e-05	-0.00029	3
42135	-0.00021	0.00017	-2e-05	4e-05	0.00031	0.00013	8e-05	-0.00029	3
42136	-0.00021	0.00017	-2e-05	4e-05	0.00031	0.00013	8e-05	-0.00029	3
42139	-0.00021	0.00017	-2e-05	4e-05	0.00031	0.00013	8e-05	-0.00029	3
42140	-0.00021	0.00017	-2e-05	4e-05	0.00031	0.00013	8e-05	-0.00029	3
42141	-0.00021	0.00017	-2e-05	4e-05	0.00031	0.00013	8e-05	-0.00029	3
42142	-0.00021	0.00017	-2e-05	4e-05	0.00031	0.00013	8e-05	-0.00029	3
42143	-0.00021	0.00017	-2e-05	4e-05	0.00031	0.00013	8e-05	-0.00029	3
42144	-0.00012	-0.00012	-2e-05	2e-05	5e-05	0	-5e-05	0.00023	3
42145	-7e-05	-0.00018	-3e-05	1e-05	0.00014	-9e-05	-3e-05	-2e-05	3
42146	-7e-05	-0.00018	-3e-05	1e-05	0.00014	-9e-05	-3e-05	-2e-05	3
42147	-7e-05	-0.00018	-3e-05	1e-05	0.00014	-9e-05	-3e-05	-2e-05	3
42148	-7e-05	-0.00018	-3e-05	1e-05	0.00014	-9e-05	-3e-05	-2e-05	3
42149	-7e-05	-0.00018	-3e-05	1e-05	0.00014	-9e-05	-3e-05	-2e-05	3
42150	-7e-05	-0.00018	-3e-05	1e-05	0.00014	-9e-05	-3e-05	-2e-05	3
42151	-7e-05	-0.00018	-3e-05	1e-05	0.00014	-9e-05	-3e-05	-2e-05	3
42152	-7e-05	-0.00018	-3e-05	1e-05	0.00014	-9e-05	-3e-05	-2e-05	3
42153	-7e-05	-0.00018	-3e-05	1e-05	0.00014	-9e-05	-3e-05	-2e-05	3
42154	-7e-05	-0.00018	-3e-05	1e-05	0.00014	-9e-05	-3e-05	-2e-05	3
42155	-7e-05	-0.00018	-3e-05	1e-05	0.00014	-9e-05	-3e-05	-2e-05	3
42156	-7e-05	-0.00018	-3e-05	1e-05	0.00014	-9e-05	-3e-05	-2e-05	3
42157	-7e-05	-0.00018	-3e-05	1e-05	0.00014	-9e-05	-3e-05	-2e-05	3
42158	-7e-05	-0.00018	-3e-05	1e-05	0.00014	-9e-05	-3e-05	-2e-05	3
42159	-7e-05	-0.00018	-3e-05	1e-05	0.00014	-9e-05	-3e-05	-2e-05	3
42160	-7e-05	-0.00018	-3e-05	1e-05	0.00014	-9e-05	-3e-05	-2e-05	3
42161	-7e-05	-0.00018	-3e-05	1e-05	0.00014	-9e-05	-3e-05	-2e-05	3
42162	-7e-05	-0.00018	-3e-05	1e-05	0.00014	-9e-05	-3e-05	-2e-05	3
42163	-7e-05	-0.00018	-3e-05	1e-05	0.00014	-9e-05	-3e-05	-2e-05	3
42164	-7e-05	-0.00018	-3e-05	1e-05	0.00014	-9e-05	-3e-05	-2e-05	3
42165	-7e-05	-0.00018	-3e-05	1e-05	0.00014	-9e-05	-3e-05	-2e-05	3
42166	0.00054	0.00025	7e-05	0.00012	0.0001	8e-05	3e-05	0.00046	3
42167	0.00054	0.00025	7e-05	0.00012	0.0001	8e-05	3e-05	0.00046	3
42168	0.00046	1e-05	1e-05	1e-05	-0.00037	-0.00019	-0.00054	-5e-05	3
42169	0.00046	1e-05	1e-05	1e-05	-0.00037	-0.00019	-0.00054	-5e-05	3
42170	0.00046	1e-05	1e-05	1e-05	-0.00037	-0.00019	-0.00054	-5e-05	3
42171	0.00046	1e-05	1e-05	1e-05	-0.00037	-0.00019	-0.00054	-5e-05	3
42172	0.00046	1e-05	1e-05	1e-05	-0.00037	-0.00019	-0.00054	-5e-05	3
42173	0.00046	1e-05	1e-05	1e-05	-0.00037	-0.00019	-0.00054	-5e-05	3
42174	0.00046	1e-05	1e-05	1e-05	-0.00037	-0.00019	-0.00054	-5e-05	3
42175	0.00046	1e-05	1e-05	1e-05	-0.00037	-0.00019	-0.00054	-5e-05	3
42176	0.00046	1e-05	1e-05	1e-05	-0.00037	-0.00019	-0.00054	-5e-05	3
42177	0.00046	1e-05	1e-05	1e-05	-0.00037	-0.00019	-0.00054	-5e-05	3
42178	0.00046	1e-05	1e-05	1e-05	-0.00037	-0.00019	-0.00054	-5e-05	3
42179	0.00046	1e-05	1e-05	1e-05	-0.00037	-0.00019	-0.00054	-5e-05	3
42180	0.00013	0.00018	5e-05	2e-05	0.00011	8e-05	-0.00012	-2e-05	3
42181	0.00013	0.00018	5e-05	2e-05	0.00011	8e-05	-0.00012	-2e-05	3
42182	0.00013	0.00018	5e-05	2e-05	0.00011	8e-05	-0.00012	-2e-05	3
42183	0.00013	0.00018	5e-05	2e-05	0.00011	8e-05	-0.00012	-2e-05	3
42184	0.00013	0.00018	5e-05	2e-05	0.00011	8e-05	-0.00012	-2e-05	3
42185	0.00013	0.00018	5e-05	2e-05	0.00011	8e-05	-0.00012	-2e-05	3
42186	0.00013	0.00018	5e-05	2e-05	0.00011	8e-05	-0.00012	-2e-05	3
42188	0.00013	0.00018	5e-05	2e-05	0.00011	8e-05	-0.00012	-2e-05	3
42189	0.00013	0.00018	5e-05	2e-05	0.00011	8e-05	-0.00012	-2e-05	3
42190	0.00013	0.00018	5e-05	2e-05	0.00011	8e-05	-0.00012	-2e-05	3
42191	0.00013	0.00018	5e-05	2e-05	0.00011	8e-05	-0.00012	-2e-05	3
42192	0.00013	0.00018	5e-05	2e-05	0.00011	8e-05	-0.00012	-2e-05	3
42193	0.00013	0.00018	5e-05	2e-05	0.00011	8e-05	-0.00012	-2e-05	3
