22094	-0.00014	-5e-05	0	7e-05	7e-05	5e-05	-2e-05	-6e-05	5
22095	-5e-05	-1e-05	-4e-05	-1e-05	0.00029	5e-05	-1e-05	-4e-05	5
22096	-5e-05	-1e-05	-4e-05	-1e-05	0.00029	5e-05	-1e-05	-4e-05	5
22097	-5e-05	-1e-05	-4e-05	-1e-05	0.00029	5e-05	-1e-05	-4e-05	5
22098	-5e-05	-1e-05	-4e-05	-1e-05	0.00029	5e-05	-1e-05	-4e-05	5
22099	-5e-05	-1e-05	-4e-05	-1e-05	0.00029	5e-05	-1e-05	-4e-05	5
22100	-5e-05	-1e-05	-4e-05	-1e-05	0.00029	5e-05	-1e-05	-4e-05	5
22101	-5e-05	-1e-05	-4e-05	-1e-05	0.00029	5e-05	-1e-05	-4e-05	5
22102	-5e-05	-1e-05	-4e-05	-1e-05	0.00029	5e-05	-1e-05	-4e-05	5
22103	-5e-05	-1e-05	-4e-05	-1e-05	0.00029	5e-05	-1e-05	-4e-05	5
22104	-5e-05	-1e-05	-4e-05	-1e-05	0.00029	5e-05	-1e-05	-4e-05	5
22105	-5e-05	-1e-05	-4e-05	-1e-05	0.00029	5e-05	-1e-05	-4e-05	5
22106	-5e-05	-1e-05	-4e-05	-1e-05	0.00029	5e-05	-1e-05	-4e-05	5
22107	-5e-05	-1e-05	-4e-05	-1e-05	0.00029	5e-05	-1e-05	-4e-05	5
22108	-5e-05	-1e-05	-4e-05	-1e-05	0.00029	5e-05	-1e-05	-4e-05	5
22109	-5e-05	-1e-05	-4e-05	-1e-05	0.00029	5e-05	-1e-05	-4e-05	5
22110	-5e-05	-1e-05	-4e-05	-1e-05	0.00029	5e-05	-1e-05	-4e-05	5
22111	-0.00011	1e-05	7e-05	-3e-05	0.00051	4e-05	1e-05	-2e-05	5
22112	-0.00011	1e-05	7e-05	-3e-05	0.00051	4e-05	1e-05	-2e-05	5
22113	0	-4e-05	-8e-05	0.00025	-3e-05	-3e-05	-4e-05	-1e-05	5
22114	0	-4e-05	-8e-05	0.00025	-3e-05	-3e-05	-4e-05	-1e-05	5
22115	0	-4e-05	-8e-05	0.00025	-3e-05	-3e-05	-4e-05	-1e-05	5
22116	0	-4e-05	-8e-05	0.00025	-3e-05	-3e-05	-4e-05	-1e-05	5
22117	0	-4e-05	-8e-05	0.00025	-3e-05	-3e-05	-4e-05	-1e-05	5
22118	0	-4e-05	-8e-05	0.00025	-3e-05	-3e-05	-4e-05	-1e-05	5
22119	0	-4e-05	-8e-05	0.00025	-3e-05	-3e-05	-4e-05	-1e-05	5
22120	0	-4e-05	-8e-05	0.00025	-3e-05	-3e-05	-4e-05	-1e-05	5
22121	0	-4e-05	-8e-05	0.00025	-3e-05	-3e-05	-4e-05	-1e-05	5
22122	0	-4e-05	-8e-05	0.00025	-3e-05	-3e-05	-4e-05	-1e-05	5
22123	0	-4e-05	-8e-05	0.00025	-3e-05	-3e-05	-4e-05	-1e-05	5
22124	0	-4e-05	-8e-05	0.00025	-3e-05	-3e-05	-4e-05	-1e-05	5
22125	0	-4e-05	-8e-05	0.00025	-3e-05	-3e-05	-4e-05	-1e-05	5
22126	0	-4e-05	-8e-05	0.00025	-3e-05	-3e-05	-4e-05	-1e-05	5
22127	0	-4e-05	-8e-05	0.00025	-3e-05	-3e-05	-4e-05	-1e-05	5
22128	0	-4e-05	-8e-05	0.00025	-3e-05	-3e-05	-4e-05	-1e-05	5
22129	0	-4e-05	-8e-05	0.00025	-3e-05	-3e-05	-4e-05	-1e-05	5
22130	0	-4e-05	-8e-05	0.00025	-3e-05	-3e-05	-4e-05	-1e-05	5
22131	0	-4e-05	-8e-05	0.00025	-3e-05	-3e-05	-4e-05	-1e-05	5
22132	0	-4e-05	-8e-05	0.00025	-3e-05	-3e-05	-4e-05	-1e-05	5
22133	0	-4e-05	-8e-05	0.00025	-3e-05	-3e-05	-4e-05	-1e-05	5
22134	-1e-05	-3e-05	-6e-05	-0.00019	-0.00034	-9e-05	0	-7e-05	5
22135	-1e-05	-3e-05	-6e-05	-0.00019	-0.00034	-9e-05	0	-7e-05	5
22137	0.00022	-2e-05	-2e-05	-0.00036	-0.00018	-0.00012	1e-05	0.00018	5
22139	0.00022	-2e-05	-2e-05	-0.00036	-0.00018	-0.00012	1e-05	0.00018	5
22140	0.00022	-2e-05	-2e-05	-0.00036	-0.00018	-0.00012	1e-05	0.00018	5
22141	0.00022	-2e-05	-2e-05	-0.00036	-0.00018	-0.00012	1e-05	0.00018	5
22142	0.00022	-2e-05	-2e-05	-0.00036	-0.00018	-0.00012	1e-05	0.00018	5
22143	0.00022	-2e-05	-2e-05	-0.00036	-0.00018	-0.00012	1e-05	0.00018	5
22144	0.00022	-2e-05	-2e-05	-0.00036	-0.00018	-0.00012	1e-05	0.00018	5
22145	0.00022	-2e-05	-2e-05	-0.00036	-0.00018	-0.00012	1e-05	0.00018	5
22146	0.00022	-2e-05	-2e-05	-0.00036	-0.00018	-0.00012	1e-05	0.00018	5
22147	-0.00023	-3e-05	0	0.00037	0.00043	7e-05	-6e-05	-0.00026	5
22148	0.00012	2e-05	-4e-05	-0.00061	-0.00066	-0.0001	3e-05	0.0001	5
22149	0.00012	2e-05	-4e-05	-0.00061	-0.00066	-0.0001	3e-05	0.0001	5
22150	0.00012	2e-05	-4e-05	-0.00061	-0.00066	-0.0001	3e-05	0.0001	5
22151	0.00012	2e-05	-4e-05	-0.00061	-0.00066	-0.0001	3e-05	0.0001	5
22152	0.00012	2e-05	-4e-05	-0.00061	-0.00066	-0.0001	3e-05	0.0001	5
22153	0.00012	2e-05	-4e-05	-0.00061	-0.00066	-0.0001	3e-05	0.0001	5
22154	0.00012	2e-05	-4e-05	-0.00061	-0.00066	-0.0001	3e-05	0.0001	5
22155	0.00012	2e-05	-4e-05	-0.00061	-0.00066	-0.0001	3e-05	0.0001	5
22156	0	5e-05	3e-05	-0.0001	-0.00055	-3e-05	3e-05	0	5
22157	0	5e-05	3e-05	-0.0001	-0.00055	-3e-05	3e-05	0	5
22158	0	5e-05	3e-05	-0.0001	-0.00055	-3e-05	3e-05	0	5
22159	0	5e-05	3e-05	-0.0001	-0.00055	-3e-05	3e-05	0	5
22160	0	5e-05	3e-05	-0.0001	-0.00055	-3e-05	3e-05	0	5
22161	0	5e-05	3e-05	-0.0001	-0.00055	-3e-05	3e-05	0	5
22162	0	5e-05	3e-05	-0.0001	-0.00055	-3e-05	3e-05	0	5
22163	0	5e-05	3e-05	-0.0001	-0.00055	-3e-05	3e-05	0	5
22164	0	5e-05	3e-05	-0.0001	-0.00055	-3e-05	3e-05	0	5
22166	0	5e-05	3e-05	-0.0001	-0.00055	-3e-05	3e-05	0	5
22167	0	5e-05	3e-05	-0.0001	-0.00055	-3e-05	3e-05	0	5
22168	0	5e-05	3e-05	-0.0001	-0.00055	-3e-05	3e-05	0	5
22169	0	5e-05	3e-05	-0.0001	-0.00055	-3e-05	3e-05	0	5
22170	0	5e-05	3e-05	-0.0001	-0.00055	-3e-05	3e-05	0	5
22171	-7e-05	2e-05	0.00013	0.00025	0.00035	5e-05	0	0	5
22172	-7e-05	2e-05	0.00013	0.00025	0.00035	5e-05	0	0	5
22173	-0.0001	3e-05	5e-05	-5e-05	3e-05	4e-05	-1e-05	-7e-05	5
22174	-0.0001	3e-05	5e-05	-5e-05	3e-05	4e-05	-1e-05	-7e-05	5
22175	-0.0001	3e-05	5e-05	-5e-05	3e-05	4e-05	-1e-05	-7e-05	5
22176	-0.0001	3e-05	5e-05	-5e-05	3e-05	4e-05	-1e-05	-7e-05	5
22177	-0.0001	3e-05	5e-05	-5e-05	3e-05	4e-05	-1e-05	-7e-05	5
22178	-0.0001	3e-05	5e-05	-5e-05	3e-05	4e-05	-1e-05	-7e-05	5
22179	-0.0001	3e-05	5e-05	-5e-05	3e-05	4e-05	-1e-05	-7e-05	5
22180	-0.0001	3e-05	5e-05	-5e-05	3e-05	4e-05	-1e-05	-7e-05	5
22181	-0.0001	3e-05	5e-05	-5e-05	3e-05	4e-05	-1e-05	-7e-05	5
22182	-0.0001	3e-05	5e-05	-5e-05	3e-05	4e-05	-1e-05	-7e-05	5
22183	-0.0001	3e-05	5e-05	-5e-05	3e-05	4e-05	-1e-05	-7e-05	5
22184	-0.0001	3e-05	5e-05	-5e-05	3e-05	4e-05	-1e-05	-7e-05	5
22185	-0.0001	3e-05	5e-05	-5e-05	3e-05	4e-05	-1e-05	-7e-05	5
22187	-0.0001	3e-05	5e-05	-5e-05	3e-05	4e-05	-1e-05	-7e-05	5
22189	-0.0001	3e-05	5e-05	-5e-05	3e-05	4e-05	-1e-05	-7e-05	5
22190	-0.0001	3e-05	5e-05	-5e-05	3e-05	4e-05	-1e-05	-7e-05	5
22191	-0.0001	3e-05	5e-05	-5e-05	3e-05	4e-05	-1e-05	-7e-05	5
22192	-0.0001	3e-05	5e-05	-5e-05	3e-05	4e-05	-1e-05	-7e-05	5
22193	-0.0001	3e-05	5e-05	-5e-05	3e-05	4e-05	-1e-05	-7e-05	5
22194	-8e-05	1e-05	1e-05	0.00016	-0.00032	-1e-05	2e-05	4e-05	5
22195	0.00012	6e-05	0.00012	0.00039	0.00025	-1e-05	-4e-05	-6e-05	5
22196	0.00012	6e-05	0.00012	0.00039	0.00025	-1e-05	-4e-05	-6e-05	5
22197	0.00012	6e-05	0.00012	0.00039	0.00025	-1e-05	-4e-05	-6e-05	5
22198	0.00012	6e-05	0.00012	0.00039	0.00025	-1e-05	-4e-05	-6e-05	5
22199	0.00012	6e-05	0.00012	0.00039	0.00025	-1e-05	-4e-05	-6e-05	5
22200	0.00012	6e-05	0.00012	0.00039	0.00025	-1e-05	-4e-05	-6e-05	5
22201	0.00012	6e-05	0.00012	0.00039	0.00025	-1e-05	-4e-05	-6e-05	5
22202	0.00012	6e-05	0.00012	0.00039	0.00025	-1e-05	-4e-05	-6e-05	5
22203	0.00012	6e-05	0.00012	0.00039	0.00025	-1e-05	-4e-05	-6e-05	5
22204	0.00012	6e-05	0.00012	0.00039	0.00025	-1e-05	-4e-05	-6e-05	5
22205	0.00012	6e-05	0.00012	0.00039	0.00025	-1e-05	-4e-05	-6e-05	5
22206	0.00012	6e-05	0.00012	0.00039	0.00025	-1e-05	-4e-05	-6e-05	5
22207	9e-05	-2e-05	0	-0.00015	-9e-05	1e-05	-2e-05	-3e-05	5
22208	9e-05	-2e-05	0	-0.00015	-9e-05	1e-05	-2e-05	-3e-05	5
22209	9e-05	-2e-05	0	-0.00015	-9e-05	1e-05	-2e-05	-3e-05	5
22210	9e-05	-2e-05	0	-0.00015	-9e-05	1e-05	-2e-05	-3e-05	5
22211	9e-05	-2e-05	0	-0.00015	-9e-05	1e-05	-2e-05	-3e-05	5
22213	9e-05	-2e-05	0	-0.00015	-9e-05	1e-05	-2e-05	-3e-05	5
22214	9e-05	-2e-05	0	-0.00015	-9e-05	1e-05	-2e-05	-3e-05	5
22215	9e-05	-2e-05	0	-0.00015	-9e-05	1e-05	-2e-05	-3e-05	5
22216	-0.00016	1e-05	3e-05	-0.00012	-0.0001	-9e-05	-2e-05	-4e-05	5
22217	-0.00016	1e-05	3e-05	-0.00012	-0.0001	-9e-05	-2e-05	-4e-05	5
22218	-0.00016	1e-05	3e-05	-0.00012	-0.0001	-9e-05	-2e-05	-4e-05	5
22219	-0.00016	1e-05	3e-05	-0.00012	-0.0001	-9e-05	-2e-05	-4e-05	5
22220	-0.00016	1e-05	3e-05	-0.00012	-0.0001	-9e-05	-2e-05	-4e-05	5
22221	-0.00016	1e-05	3e-05	-0.00012	-0.0001	-9e-05	-2e-05	-4e-05	5
22222	-0.00016	1e-05	3e-05	-0.00012	-0.0001	-9e-05	-2e-05	-4e-05	5
22223	-0.00016	1e-05	3e-05	-0.00012	-0.0001	-9e-05	-2e-05	-4e-05	5
22224	-0.00016	1e-05	3e-05	-0.00012	-0.0001	-9e-05	-2e-05	-4e-05	5
22225	-0.00016	1e-05	3e-05	-0.00012	-0.0001	-9e-05	-2e-05	-4e-05	5
22226	-0.00016	1e-05	3e-05	-0.00012	-0.0001	-9e-05	-2e-05	-4e-05	5
22227	-0.00016	1e-05	3e-05	-0.00012	-0.0001	-9e-05	-2e-05	-4e-05	5
22228	-0.00016	1e-05	3e-05	-0.00012	-0.0001	-9e-05	-2e-05	-4e-05	5
22229	-0.00016	1e-05	3e-05	-0.00012	-0.0001	-9e-05	-2e-05	-4e-05	5
22230	-0.00016	1e-05	3e-05	-0.00012	-0.0001	-9e-05	-2e-05	-4e-05	5
22231	7e-05	-3e-05	-9e-05	6e-05	0.00034	0	-4e-05	-2e-05	5
22232	7e-05	-3e-05	-9e-05	6e-05	0.00034	0	-4e-05	-2e-05	5
22233	-0.00012	3e-05	6e-05	-0.00025	7e-05	1e-05	3e-05	-8e-05	5
22234	-0.00012	3e-05	6e-05	-0.00025	7e-05	1e-05	3e-05	-8e-05	5
22235	-0.00012	3e-05	6e-05	-0.00025	7e-05	1e-05	3e-05	-8e-05	5
22237	-0.00012	3e-05	6e-05	-0.00025	7e-05	1e-05	3e-05	-8e-05	5
22239	-0.00012	3e-05	6e-05	-0.00025	7e-05	1e-05	3e-05	-8e-05	5
22240	-0.00012	3e-05	6e-05	-0.00025	7e-05	1e-05	3e-05	-8e-05	5
22241	-0.00012	3e-05	6e-05	-0.00025	7e-05	1e-05	3e-05	-8e-05	5
22242	-0.00012	3e-05	6e-05	-0.00025	7e-05	1e-05	3e-05	-8e-05	5
22243	-0.00012	3e-05	6e-05	-0.00025	7e-05	1e-05	3e-05	-8e-05	5
22244	-0.00012	3e-05	6e-05	-0.00025	7e-05	1e-05	3e-05	-8e-05	5
22245	-0.00012	3e-05	6e-05	-0.00025	7e-05	1e-05	3e-05	-8e-05	5
22246	-0.00012	3e-05	6e-05	-0.00025	7e-05	1e-05	3e-05	-8e-05	5
22247	-0.00012	3e-05	6e-05	-0.00025	7e-05	1e-05	3e-05	-8e-05	5
22248	-0.00012	3e-05	6e-05	-0.00025	7e-05	1e-05	3e-05	-8e-05	5
22249	-0.00012	3e-05	6e-05	-0.00025	7e-05	1e-05	3e-05	-8e-05	5
22250	-0.00012	3e-05	6e-05	-0.00025	7e-05	1e-05	3e-05	-8e-05	5
22251	-0.00012	3e-05	6e-05	-0.00025	7e-05	1e-05	3e-05	-8e-05	5
22252	-0.00012	3e-05	6e-05	-0.00025	7e-05	1e-05	3e-05	-8e-05	5
22253	-0.00012	3e-05	6e-05	-0.00025	7e-05	1e-05	3e-05	-8e-05	5
22254	-8e-05	-5e-05	-9e-05	0.00032	-7e-05	2e-05	5e-05	-2e-05	5
22255	-5e-05	-5e-05	-9e-05	0.00013	0.0002	-2e-05	-3e-05	0	5
22256	-5e-05	-5e-05	-9e-05	0.00013	0.0002	-2e-05	-3e-05	0	5
22257	-5e-05	-5e-05	-9e-05	0.00013	0.0002	-2e-05	-3e-05	0	5
22258	-5e-05	-5e-05	-9e-05	0.00013	0.0002	-2e-05	-3e-05	0	5
22259	-5e-05	-5e-05	-9e-05	0.00013	0.0002	-2e-05	-3e-05	0	5
22260	-5e-05	-5e-05	-9e-05	0.00013	0.0002	-2e-05	-3e-05	0	5
22261	-5e-05	-5e-05	-9e-05	0.00013	0.0002	-2e-05	-3e-05	0	5
22262	-5e-05	-5e-05	-9e-05	0.00013	0.0002	-2e-05	-3e-05	0	5
22263	-5e-05	-5e-05	-9e-05	0.00013	0.0002	-2e-05	-3e-05	0	5
22264	-5e-05	-5e-05	-9e-05	0.00013	0.0002	-2e-05	-3e-05	0	5
22265	-5e-05	-5e-05	-9e-05	0.00013	0.0002	-2e-05	-3e-05	0	5
22266	-5e-05	-5e-05	-9e-05	0.00013	0.0002	-2e-05	-3e-05	0	5
22267	8e-05	1e-05	-9e-05	-0.00022	-0.00013	-7e-05	-5e-05	-5e-05	5
22268	8e-05	1e-05	-9e-05	-0.00022	-0.00013	-7e-05	-5e-05	-5e-05	5
22269	8e-05	1e-05	-9e-05	-0.00022	-0.00013	-7e-05	-5e-05	-5e-05	5
22270	8e-05	1e-05	-9e-05	-0.00022	-0.00013	-7e-05	-5e-05	-5e-05	5
22271	8e-05	1e-05	-9e-05	-0.00022	-0.00013	-7e-05	-5e-05	-5e-05	5
22272	8e-05	1e-05	-9e-05	-0.00022	-0.00013	-7e-05	-5e-05	-5e-05	5
22273	8e-05	1e-05	-9e-05	-0.00022	-0.00013	-7e-05	-5e-05	-5e-05	5
22274	8e-05	1e-05	-9e-05	-0.00022	-0.00013	-7e-05	-5e-05	-5e-05	5
22275	8e-05	1e-05	-9e-05	-0.00022	-0.00013	-7e-05	-5e-05	-5e-05	5
22276	-6e-05	-2e-05	-4e-05	0.00013	-0.00013	-8e-05	-1e-05	6e-05	5
22277	-6e-05	-2e-05	-4e-05	0.00013	-0.00013	-8e-05	-1e-05	6e-05	5
22278	-6e-05	-2e-05	-4e-05	0.00013	-0.00013	-8e-05	-1e-05	6e-05	5
22279	-6e-05	-2e-05	-4e-05	0.00013	-0.00013	-8e-05	-1e-05	6e-05	5
22280	-6e-05	-2e-05	-4e-05	0.00013	-0.00013	-8e-05	-1e-05	6e-05	5
22281	-6e-05	-2e-05	-4e-05	0.00013	-0.00013	-8e-05	-1e-05	6e-05	5
22282	-6e-05	-2e-05	-4e-05	0.00013	-0.00013	-8e-05	-1e-05	6e-05	5
22283	-6e-05	-2e-05	-4e-05	0.00013	-0.00013	-8e-05	-1e-05	6e-05	5
22284	-6e-05	-2e-05	-4e-05	0.00013	-0.00013	-8e-05	-1e-05	6e-05	5
22285	-6e-05	-2e-05	-4e-05	0.00013	-0.00013	-8e-05	-1e-05	6e-05	5
22287	-6e-05	-2e-05	-4e-05	0.00013	-0.00013	-8e-05	-1e-05	6e-05	5
22290	-6e-05	-2e-05	-4e-05	0.00013	-0.00013	-8e-05	-1e-05	6e-05	5
22291	2e-05	-6e-05	-7e-05	-0.00014	-5e-05	0.00015	2e-05	-1e-05	5
22292	2e-05	-6e-05	-7e-05	-0.00014	-5e-05	0.00015	2e-05	-1e-05	5
22293	-0.00017	-3e-05	-5e-05	-9e-05	-1e-05	8e-05	-2e-05	-4e-05	5
22294	-0.00017	-3e-05	-5e-05	-9e-05	-1e-05	8e-05	-2e-05	-4e-05	5
22295	-0.00017	-3e-05	-5e-05	-9e-05	-1e-05	8e-05	-2e-05	-4e-05	5
22296	-0.00017	-3e-05	-5e-05	-9e-05	-1e-05	8e-05	-2e-05	-4e-05	5
22297	-0.00017	-3e-05	-5e-05	-9e-05	-1e-05	8e-05	-2e-05	-4e-05	5
22298	-0.00017	-3e-05	-5e-05	-9e-05	-1e-05	8e-05	-2e-05	-4e-05	5
22299	-0.00017	-3e-05	-5e-05	-9e-05	-1e-05	8e-05	-2e-05	-4e-05	5
22300	-0.00017	-3e-05	-5e-05	-9e-05	-1e-05	8e-05	-2e-05	-4e-05	5
22301	-0.00017	-3e-05	-5e-05	-9e-05	-1e-05	8e-05	-2e-05	-4e-05	5
22302	-0.00017	-3e-05	-5e-05	-9e-05	-1e-05	8e-05	-2e-05	-4e-05	5
22303	-0.00017	-3e-05	-5e-05	-9e-05	-1e-05	8e-05	-2e-05	-4e-05	5
22304	-0.00017	-3e-05	-5e-05	-9e-05	-1e-05	8e-05	-2e-05	-4e-05	5
22305	-0.00017	-3e-05	-5e-05	-9e-05	-1e-05	8e-05	-2e-05	-4e-05	5
22306	-0.00017	-3e-05	-5e-05	-9e-05	-1e-05	8e-05	-2e-05	-4e-05	5
22307	-0.00017	-3e-05	-5e-05	-9e-05	-1e-05	8e-05	-2e-05	-4e-05	5
22308	-0.00017	-3e-05	-5e-05	-9e-05	-1e-05	8e-05	-2e-05	-4e-05	5
22309	-0.00017	-3e-05	-5e-05	-9e-05	-1e-05	8e-05	-2e-05	-4e-05	5
22310	-0.00017	-3e-05	-5e-05	-9e-05	-1e-05	8e-05	-2e-05	-4e-05	5
22311	-0.00017	-3e-05	-5e-05	-9e-05	-1e-05	8e-05	-2e-05	-4e-05	5
22312	-0.00017	-3e-05	-5e-05	-9e-05	-1e-05	8e-05	-2e-05	-4e-05	5
22313	-0.00017	-3e-05	-5e-05	-9e-05	-1e-05	8e-05	-2e-05	-4e-05	5
22314	-6e-05	3e-05	-2e-05	-0.00011	-0.00018	-6e-05	-3e-05	-6e-05	5
22315	-6e-05	3e-05	-2e-05	-0.00011	-0.00018	-6e-05	-3e-05	-6e-05	5
22316	-0.00011	-0.0001	-2e-05	0	0	2e-05	-1e-05	-4e-05	5
22317	-0.00011	-0.0001	-2e-05	0	0	2e-05	-1e-05	-4e-05	5
22318	-0.00011	-0.0001	-2e-05	0	0	2e-05	-1e-05	-4e-05	5
22319	-0.00011	-0.0001	-2e-05	0	0	2e-05	-1e-05	-4e-05	5
22320	-0.00011	-0.0001	-2e-05	0	0	2e-05	-1e-05	-4e-05	5
22321	-0.00011	-0.0001	-2e-05	0	0	2e-05	-1e-05	-4e-05	5
22322	-0.00011	-0.0001	-2e-05	0	0	2e-05	-1e-05	-4e-05	5
22323	-0.00011	-0.0001	-2e-05	0	0	2e-05	-1e-05	-4e-05	5
22324	-0.00011	-0.0001	-2e-05	0	0	2e-05	-1e-05	-4e-05	5
22325	-0.00011	-0.0001	-2e-05	0	0	2e-05	-1e-05	-4e-05	5
22326	-0.00011	-0.0001	-2e-05	0	0	2e-05	-1e-05	-4e-05	5
22327	-0.00011	-0.0001	-2e-05	0	0	2e-05	-1e-05	-4e-05	5
22328	-0.00014	-0.00012	-0.00011	7e-05	-3e-05	-2e-05	-4e-05	-4e-05	5
22329	-0.00014	-0.00012	-0.00011	7e-05	-3e-05	-2e-05	-4e-05	-4e-05	5
22330	-0.00014	-0.00012	-0.00011	7e-05	-3e-05	-2e-05	-4e-05	-4e-05	5
22331	-0.00014	-0.00012	-0.00011	7e-05	-3e-05	-2e-05	-4e-05	-4e-05	5
22332	-0.00014	-0.00012	-0.00011	7e-05	-3e-05	-2e-05	-4e-05	-4e-05	5
22333	-0.00014	-0.00012	-0.00011	7e-05	-3e-05	-2e-05	-4e-05	-4e-05	5
22334	-0.00014	-0.00012	-0.00011	7e-05	-3e-05	-2e-05	-4e-05	-4e-05	5
22335	-0.00014	-0.00012	-0.00011	7e-05	-3e-05	-2e-05	-4e-05	-4e-05	5
22337	0.0001	4e-05	0.00012	0.00034	1e-05	-9e-05	-3e-05	1e-05	5
22339	0.0001	4e-05	0.00012	0.00034	1e-05	-9e-05	-3e-05	1e-05	5
22340	0.0001	4e-05	0.00012	0.00034	1e-05	-9e-05	-3e-05	1e-05	5
22341	0.0001	4e-05	0.00012	0.00034	1e-05	-9e-05	-3e-05	1e-05	5
22342	0.0001	4e-05	0.00012	0.00034	1e-05	-9e-05	-3e-05	1e-05	5
22343	0.0001	4e-05	0.00012	0.00034	1e-05	-9e-05	-3e-05	1e-05	5
22344	0.0001	4e-05	0.00012	0.00034	1e-05	-9e-05	-3e-05	1e-05	5
22345	0.0001	4e-05	0.00012	0.00034	1e-05	-9e-05	-3e-05	1e-05	5
22346	0.0001	4e-05	0.00012	0.00034	1e-05	-9e-05	-3e-05	1e-05	5
22347	0.0001	4e-05	0.00012	0.00034	1e-05	-9e-05	-3e-05	1e-05	5
22348	0.0001	4e-05	0.00012	0.00034	1e-05	-9e-05	-3e-05	1e-05	5
22349	0.0001	4e-05	0.00012	0.00034	1e-05	-9e-05	-3e-05	1e-05	5
22350	0.0001	4e-05	0.00012	0.00034	1e-05	-9e-05	-3e-05	1e-05	5
22351	7e-05	2e-05	5e-05	0.0004	0.00025	0	-3e-05	5e-05	5
22352	7e-05	2e-05	5e-05	0.0004	0.00025	0	-3e-05	5e-05	5
22353	-1e-05	-5e-05	4e-05	1e-05	-0.00016	7e-05	3e-05	-1e-05	5
22354	-1e-05	-5e-05	4e-05	1e-05	-0.00016	7e-05	3e-05	-1e-05	5
22355	-1e-05	-5e-05	4e-05	1e-05	-0.00016	7e-05	3e-05	-1e-05	5
22356	-1e-05	-5e-05	4e-05	1e-05	-0.00016	7e-05	3e-05	-1e-05	5
22357	-1e-05	-5e-05	4e-05	1e-05	-0.00016	7e-05	3e-05	-1e-05	5
22358	-1e-05	-5e-05	4e-05	1e-05	-0.00016	7e-05	3e-05	-1e-05	5
22359	-1e-05	-5e-05	4e-05	1e-05	-0.00016	7e-05	3e-05	-1e-05	5
22360	-1e-05	-5e-05	4e-05	1e-05	-0.00016	7e-05	3e-05	-1e-05	5
22361	-1e-05	-5e-05	4e-05	1e-05	-0.00016	7e-05	3e-05	-1e-05	5
22362	-1e-05	-5e-05	4e-05	1e-05	-0.00016	7e-05	3e-05	-1e-05	5
22363	-1e-05	-5e-05	4e-05	1e-05	-0.00016	7e-05	3e-05	-1e-05	5
22364	-1e-05	-5e-05	4e-05	1e-05	-0.00016	7e-05	3e-05	-1e-05	5
22365	-1e-05	-5e-05	4e-05	1e-05	-0.00016	7e-05	3e-05	-1e-05	5
22366	-1e-05	-5e-05	4e-05	1e-05	-0.00016	7e-05	3e-05	-1e-05	5
22367	-1e-05	-5e-05	4e-05	1e-05	-0.00016	7e-05	3e-05	-1e-05	5
22368	-1e-05	-5e-05	4e-05	1e-05	-0.00016	7e-05	3e-05	-1e-05	5
22369	-1e-05	-5e-05	4e-05	1e-05	-0.00016	7e-05	3e-05	-1e-05	5
22370	-1e-05	-5e-05	4e-05	1e-05	-0.00016	7e-05	3e-05	-1e-05	5
22371	-1e-05	-5e-05	4e-05	1e-05	-0.00016	7e-05	3e-05	-1e-05	5
22372	-1e-05	-5e-05	4e-05	1e-05	-0.00016	7e-05	3e-05	-1e-05	5
22373	-1e-05	-5e-05	4e-05	1e-05	-0.00016	7e-05	3e-05	-1e-05	5
22374	-1e-05	-9e-05	-0.00014	-0.00016	-8e-05	9e-05	0	-4e-05	5
22375	0	1e-05	2e-05	0	-4e-05	-5e-05	0	0	5
22376	0	1e-05	2e-05	0	-4e-05	-5e-05	0	0	5
22377	0	1e-05	2e-05	0	-4e-05	-5e-05	0	0	5
22378	0	1e-05	2e-05	0	-4e-05	-5e-05	0	0	5
22379	0	1e-05	2e-05	0	-4e-05	-5e-05	0	0	5
22380	0	1e-05	2e-05	0	-4e-05	-5e-05	0	0	5
22381	0	1e-05	2e-05	0	-4e-05	-5e-05	0	0	5
22382	0	1e-05	2e-05	0	-4e-05	-5e-05	0	0	5
22383	0	1e-05	2e-05	0	-4e-05	-5e-05	0	0	5
22384	0	1e-05	2e-05	0	-4e-05	-5e-05	0	0	5
22385	0	1e-05	2e-05	0	-4e-05	-5e-05	0	0	5
22386	0	1e-05	2e-05	0	-4e-05	-5e-05	0	0	5
22389	-4e-05	3e-05	6e-05	-0.00018	-9e-05	-8e-05	-1e-05	1e-05	5
22390	-4e-05	3e-05	6e-05	-0.00018	-9e-05	-8e-05	-1e-05	1e-05	5
22391	-4e-05	3e-05	6e-05	-0.00018	-9e-05	-8e-05	-1e-05	1e-05	5
22392	-4e-05	3e-05	6e-05	-0.00018	-9e-05	-8e-05	-1e-05	1e-05	5
22393	-4e-05	3e-05	6e-05	-0.00018	-9e-05	-8e-05	-1e-05	1e-05	5
22394	-4e-05	3e-05	6e-05	-0.00018	-9e-05	-8e-05	-1e-05	1e-05	5
22395	-4e-05	3e-05	6e-05	-0.00018	-9e-05	-8e-05	-1e-05	1e-05	5
22396	0	0	1e-05	-0.00018	-8e-05	-1e-05	1e-05	-6e-05	5
22397	0	0	1e-05	-0.00018	-8e-05	-1e-05	1e-05	-6e-05	5
22398	0	0	1e-05	-0.00018	-8e-05	-1e-05	1e-05	-6e-05	5
22399	0	0	1e-05	-0.00018	-8e-05	-1e-05	1e-05	-6e-05	5
22400	0	0	1e-05	-0.00018	-8e-05	-1e-05	1e-05	-6e-05	5
22401	0	0	1e-05	-0.00018	-8e-05	-1e-05	1e-05	-6e-05	5
22402	0	0	1e-05	-0.00018	-8e-05	-1e-05	1e-05	-6e-05	5
22403	0	0	1e-05	-0.00018	-8e-05	-1e-05	1e-05	-6e-05	5
22404	0	0	1e-05	-0.00018	-8e-05	-1e-05	1e-05	-6e-05	5
22405	0	0	1e-05	-0.00018	-8e-05	-1e-05	1e-05	-6e-05	5
22406	0	0	1e-05	-0.00018	-8e-05	-1e-05	1e-05	-6e-05	5
22407	0	0	1e-05	-0.00018	-8e-05	-1e-05	1e-05	-6e-05	5
22408	0	0	1e-05	-0.00018	-8e-05	-1e-05	1e-05	-6e-05	5
22409	0	0	1e-05	-0.00018	-8e-05	-1e-05	1e-05	-6e-05	5
22410	0	0	1e-05	-0.00018	-8e-05	-1e-05	1e-05	-6e-05	5
22411	0	5e-05	4e-05	-0.0001	-0.00027	-5e-05	-3e-05	-1e-05	5
22412	0	5e-05	4e-05	-0.0001	-0.00027	-5e-05	-3e-05	-1e-05	5
22413	-1e-05	-6e-05	-0.00012	-0.00013	-6e-05	-2e-05	-3e-05	-3e-05	5
22414	-1e-05	-6e-05	-0.00012	-0.00013	-6e-05	-2e-05	-3e-05	-3e-05	5
22415	-1e-05	-6e-05	-0.00012	-0.00013	-6e-05	-2e-05	-3e-05	-3e-05	5
22416	-1e-05	-6e-05	-0.00012	-0.00013	-6e-05	-2e-05	-3e-05	-3e-05	5
22417	-1e-05	-6e-05	-0.00012	-0.00013	-6e-05	-2e-05	-3e-05	-3e-05	5
22418	-1e-05	-6e-05	-0.00012	-0.00013	-6e-05	-2e-05	-3e-05	-3e-05	5
22419	-1e-05	-6e-05	-0.00012	-0.00013	-6e-05	-2e-05	-3e-05	-3e-05	5
22420	-1e-05	-6e-05	-0.00012	-0.00013	-6e-05	-2e-05	-3e-05	-3e-05	5
22421	-1e-05	-6e-05	-0.00012	-0.00013	-6e-05	-2e-05	-3e-05	-3e-05	5
22422	-1e-05	-6e-05	-0.00012	-0.00013	-6e-05	-2e-05	-3e-05	-3e-05	5
22423	-1e-05	-6e-05	-0.00012	-0.00013	-6e-05	-2e-05	-3e-05	-3e-05	5
22424	-1e-05	-6e-05	-0.00012	-0.00013	-6e-05	-2e-05	-3e-05	-3e-05	5
22425	-1e-05	-6e-05	-0.00012	-0.00013	-6e-05	-2e-05	-3e-05	-3e-05	5
22426	-1e-05	-6e-05	-0.00012	-0.00013	-6e-05	-2e-05	-3e-05	-3e-05	5
22427	-1e-05	-6e-05	-0.00012	-0.00013	-6e-05	-2e-05	-3e-05	-3e-05	5
22428	-1e-05	-6e-05	-0.00012	-0.00013	-6e-05	-2e-05	-3e-05	-3e-05	5
22429	-1e-05	-6e-05	-0.00012	-0.00013	-6e-05	-2e-05	-3e-05	-3e-05	5
22430	-1e-05	-6e-05	-0.00012	-0.00013	-6e-05	-2e-05	-3e-05	-3e-05	5
22431	-1e-05	-6e-05	-0.00012	-0.00013	-6e-05	-2e-05	-3e-05	-3e-05	5
22432	-1e-05	-6e-05	-0.00012	-0.00013	-6e-05	-2e-05	-3e-05	-3e-05	5
22433	-1e-05	-6e-05	-0.00012	-0.00013	-6e-05	-2e-05	-3e-05	-3e-05	5
22434	-3e-05	0	4e-05	0.00051	0.00087	6e-05	-1e-05	-7e-05	5
22435	0.00018	7e-05	-6e-05	0.0001	0.00014	-4e-05	-1e-05	6e-05	5
22436	0.00018	7e-05	-6e-05	0.0001	0.00014	-4e-05	-1e-05	6e-05	5
22439	0.00018	7e-05	-6e-05	0.0001	0.00014	-4e-05	-1e-05	6e-05	5
22440	0.00018	7e-05	-6e-05	0.0001	0.00014	-4e-05	-1e-05	6e-05	5
22441	0.00018	7e-05	-6e-05	0.0001	0.00014	-4e-05	-1e-05	6e-05	5
22442	0.00018	7e-05	-6e-05	0.0001	0.00014	-4e-05	-1e-05	6e-05	5
22443	0.00018	7e-05	-6e-05	0.0001	0.00014	-4e-05	-1e-05	6e-05	5
22444	0.00018	7e-05	-6e-05	0.0001	0.00014	-4e-05	-1e-05	6e-05	5
22445	0.00018	7e-05	-6e-05	0.0001	0.00014	-4e-05	-1e-05	6e-05	5
22446	0.00018	7e-05	-6e-05	0.0001	0.00014	-4e-05	-1e-05	6e-05	5
22447	0.00018	7e-05	-6e-05	0.0001	0.00014	-4e-05	-1e-05	6e-05	5
22448	1e-05	-0.00014	-9e-05	-0.00053	-0.00043	-0.00017	-7e-05	-4e-05	5
22449	1e-05	-0.00014	-9e-05	-0.00053	-0.00043	-0.00017	-7e-05	-4e-05	5
22450	1e-05	-0.00014	-9e-05	-0.00053	-0.00043	-0.00017	-7e-05	-4e-05	5
22451	1e-05	-0.00014	-9e-05	-0.00053	-0.00043	-0.00017	-7e-05	-4e-05	5
22452	1e-05	-0.00014	-9e-05	-0.00053	-0.00043	-0.00017	-7e-05	-4e-05	5
22453	1e-05	-0.00014	-9e-05	-0.00053	-0.00043	-0.00017	-7e-05	-4e-05	5
22454	1e-05	-0.00014	-9e-05	-0.00053	-0.00043	-0.00017	-7e-05	-4e-05	5
22455	1e-05	-0.00014	-9e-05	-0.00053	-0.00043	-0.00017	-7e-05	-4e-05	5
22456	0.00016	3e-05	-5e-05	-0.00012	-0.00015	-8e-05	1e-05	0.0001	5
22457	0.00016	3e-05	-5e-05	-0.00012	-0.00015	-8e-05	1e-05	0.0001	5
22458	0.00016	3e-05	-5e-05	-0.00012	-0.00015	-8e-05	1e-05	0.0001	5
22459	0.00016	3e-05	-5e-05	-0.00012	-0.00015	-8e-05	1e-05	0.0001	5
22460	0.00016	3e-05	-5e-05	-0.00012	-0.00015	-8e-05	1e-05	0.0001	5
22461	0.00016	3e-05	-5e-05	-0.00012	-0.00015	-8e-05	1e-05	0.0001	5
22462	0.00016	3e-05	-5e-05	-0.00012	-0.00015	-8e-05	1e-05	0.0001	5
22463	0.00016	3e-05	-5e-05	-0.00012	-0.00015	-8e-05	1e-05	0.0001	5
22464	0.00016	3e-05	-5e-05	-0.00012	-0.00015	-8e-05	1e-05	0.0001	5
22465	0.00016	3e-05	-5e-05	-0.00012	-0.00015	-8e-05	1e-05	0.0001	5
22466	0.00016	3e-05	-5e-05	-0.00012	-0.00015	-8e-05	1e-05	0.0001	5
22467	0.00016	3e-05	-5e-05	-0.00012	-0.00015	-8e-05	1e-05	0.0001	5
22468	0.00016	3e-05	-5e-05	-0.00012	-0.00015	-8e-05	1e-05	0.0001	5
22469	0.00016	3e-05	-5e-05	-0.00012	-0.00015	-8e-05	1e-05	0.0001	5
22470	0.00016	3e-05	-5e-05	-0.00012	-0.00015	-8e-05	1e-05	0.0001	5
22471	-0.00013	1e-05	4e-05	0.00019	-4e-05	6e-05	1e-05	-3e-05	5
22472	-0.00013	1e-05	4e-05	0.00019	-4e-05	6e-05	1e-05	-3e-05	5
22473	0	-3e-05	1e-05	9e-05	-5e-05	-5e-05	0	3e-05	5
22474	0	-3e-05	1e-05	9e-05	-5e-05	-5e-05	0	3e-05	5
22475	0	-3e-05	1e-05	9e-05	-5e-05	-5e-05	0	3e-05	5
22476	0	-3e-05	1e-05	9e-05	-5e-05	-5e-05	0	3e-05	5
22478	0	-3e-05	1e-05	9e-05	-5e-05	-5e-05	0	3e-05	5
22479	0	-3e-05	1e-05	9e-05	-5e-05	-5e-05	0	3e-05	5
22480	0	-3e-05	1e-05	9e-05	-5e-05	-5e-05	0	3e-05	5
22481	0	-3e-05	1e-05	9e-05	-5e-05	-5e-05	0	3e-05	5
22482	0	-3e-05	1e-05	9e-05	-5e-05	-5e-05	0	3e-05	5
22483	0	-3e-05	1e-05	9e-05	-5e-05	-5e-05	0	3e-05	5
22484	0	-3e-05	1e-05	9e-05	-5e-05	-5e-05	0	3e-05	5
22485	0	-3e-05	1e-05	9e-05	-5e-05	-5e-05	0	3e-05	5
22487	0	-3e-05	1e-05	9e-05	-5e-05	-5e-05	0	3e-05	5
22489	0	-3e-05	1e-05	9e-05	-5e-05	-5e-05	0	3e-05	5
22490	0	-3e-05	1e-05	9e-05	-5e-05	-5e-05	0	3e-05	5
22491	0	-3e-05	1e-05	9e-05	-5e-05	-5e-05	0	3e-05	5
22492	0	-3e-05	1e-05	9e-05	-5e-05	-5e-05	0	3e-05	5
22493	0	-3e-05	1e-05	9e-05	-5e-05	-5e-05	0	3e-05	5
22494	9e-05	5e-05	5e-05	-8e-05	-5e-05	3e-05	2e-05	5e-05	5
22495	-3e-05	2e-05	6e-05	-0.00014	-7e-05	2e-05	2e-05	0	5
22496	-3e-05	2e-05	6e-05	-0.00014	-7e-05	2e-05	2e-05	0	5
22497	-3e-05	2e-05	6e-05	-0.00014	-7e-05	2e-05	2e-05	0	5
22498	-3e-05	2e-05	6e-05	-0.00014	-7e-05	2e-05	2e-05	0	5
22499	-3e-05	2e-05	6e-05	-0.00014	-7e-05	2e-05	2e-05	0	5
22500	-3e-05	2e-05	6e-05	-0.00014	-7e-05	2e-05	2e-05	0	5
22501	-3e-05	2e-05	6e-05	-0.00014	-7e-05	2e-05	2e-05	0	5
22502	-3e-05	2e-05	6e-05	-0.00014	-7e-05	2e-05	2e-05	0	5
22503	-3e-05	2e-05	6e-05	-0.00014	-7e-05	2e-05	2e-05	0	5
22504	-3e-05	2e-05	6e-05	-0.00014	-7e-05	2e-05	2e-05	0	5
22505	-3e-05	2e-05	6e-05	-0.00014	-7e-05	2e-05	2e-05	0	5
22506	-3e-05	2e-05	6e-05	-0.00014	-7e-05	2e-05	2e-05	0	5
22507	-4e-05	-2e-05	-7e-05	-0.00019	-0.0001	-2e-05	0	0	5
22508	-4e-05	-2e-05	-7e-05	-0.00019	-0.0001	-2e-05	0	0	5
22509	-4e-05	-2e-05	-7e-05	-0.00019	-0.0001	-2e-05	0	0	5
22510	-4e-05	-2e-05	-7e-05	-0.00019	-0.0001	-2e-05	0	0	5
22511	-4e-05	-2e-05	-7e-05	-0.00019	-0.0001	-2e-05	0	0	5
22512	-4e-05	-2e-05	-7e-05	-0.00019	-0.0001	-2e-05	0	0	5
22513	-4e-05	-2e-05	-7e-05	-0.00019	-0.0001	-2e-05	0	0	5
22514	-4e-05	-2e-05	-7e-05	-0.00019	-0.0001	-2e-05	0	0	5
22515	-4e-05	-2e-05	-7e-05	-0.00019	-0.0001	-2e-05	0	0	5
22516	-0.00011	-2e-05	-2e-05	1e-05	0.00027	5e-05	0	-8e-05	5
22518	-0.00011	-2e-05	-2e-05	1e-05	0.00027	5e-05	0	-8e-05	5
22519	-0.00011	-2e-05	-2e-05	1e-05	0.00027	5e-05	0	-8e-05	5
22520	-0.00011	-2e-05	-2e-05	1e-05	0.00027	5e-05	0	-8e-05	5
22521	-0.00011	-2e-05	-2e-05	1e-05	0.00027	5e-05	0	-8e-05	5
22522	-0.00011	-2e-05	-2e-05	1e-05	0.00027	5e-05	0	-8e-05	5
22523	-0.00011	-2e-05	-2e-05	1e-05	0.00027	5e-05	0	-8e-05	5
22524	-0.00011	-2e-05	-2e-05	1e-05	0.00027	5e-05	0	-8e-05	5
22525	-0.00011	-2e-05	-2e-05	1e-05	0.00027	5e-05	0	-8e-05	5
22526	-0.00011	-2e-05	-2e-05	1e-05	0.00027	5e-05	0	-8e-05	5
22527	-0.00011	-2e-05	-2e-05	1e-05	0.00027	5e-05	0	-8e-05	5
22528	-0.00011	-2e-05	-2e-05	1e-05	0.00027	5e-05	0	-8e-05	5
22529	-0.00011	-2e-05	-2e-05	1e-05	0.00027	5e-05	0	-8e-05	5
22530	-0.00011	-2e-05	-2e-05	1e-05	0.00027	5e-05	0	-8e-05	5
22531	0	7e-05	0.0001	-0.00032	-0.0002	1e-05	0	-4e-05	5
22532	0	7e-05	0.0001	-0.00032	-0.0002	1e-05	0	-4e-05	5
22533	-0.00012	-0.00012	-0.00018	0.00012	-9e-05	4e-05	-2e-05	-8e-05	5
22534	-0.00012	-0.00012	-0.00018	0.00012	-9e-05	4e-05	-2e-05	-8e-05	5
22535	-0.00012	-0.00012	-0.00018	0.00012	-9e-05	4e-05	-2e-05	-8e-05	5
22536	-0.00012	-0.00012	-0.00018	0.00012	-9e-05	4e-05	-2e-05	-8e-05	5
22538	-0.00012	-0.00012	-0.00018	0.00012	-9e-05	4e-05	-2e-05	-8e-05	5
22539	-0.00012	-0.00012	-0.00018	0.00012	-9e-05	4e-05	-2e-05	-8e-05	5
22540	-0.00012	-0.00012	-0.00018	0.00012	-9e-05	4e-05	-2e-05	-8e-05	5
22541	-0.00012	-0.00012	-0.00018	0.00012	-9e-05	4e-05	-2e-05	-8e-05	5
22542	-0.00012	-0.00012	-0.00018	0.00012	-9e-05	4e-05	-2e-05	-8e-05	5
22543	-0.00012	-0.00012	-0.00018	0.00012	-9e-05	4e-05	-2e-05	-8e-05	5
22544	-0.00012	-0.00012	-0.00018	0.00012	-9e-05	4e-05	-2e-05	-8e-05	5
22545	-0.00012	-0.00012	-0.00018	0.00012	-9e-05	4e-05	-2e-05	-8e-05	5
22546	-0.00012	-0.00012	-0.00018	0.00012	-9e-05	4e-05	-2e-05	-8e-05	5
22547	-0.00012	-0.00012	-0.00018	0.00012	-9e-05	4e-05	-2e-05	-8e-05	5
22548	-0.00012	-0.00012	-0.00018	0.00012	-9e-05	4e-05	-2e-05	-8e-05	5
22549	-0.00012	-0.00012	-0.00018	0.00012	-9e-05	4e-05	-2e-05	-8e-05	5
22550	-0.00012	-0.00012	-0.00018	0.00012	-9e-05	4e-05	-2e-05	-8e-05	5
22551	-0.00012	-0.00012	-0.00018	0.00012	-9e-05	4e-05	-2e-05	-8e-05	5
22552	-0.00012	-0.00012	-0.00018	0.00012	-9e-05	4e-05	-2e-05	-8e-05	5
22553	-0.00012	-0.00012	-0.00018	0.00012	-9e-05	4e-05	-2e-05	-8e-05	5
22554	-2e-05	0	-2e-05	7e-05	-8e-05	-0.0001	-4e-05	-5e-05	5
22555	-8e-05	3e-05	8e-05	-0.00031	-0.00019	-5e-05	-1e-05	3e-05	5
22556	-8e-05	3e-05	8e-05	-0.00031	-0.00019	-5e-05	-1e-05	3e-05	5
22557	-8e-05	3e-05	8e-05	-0.00031	-0.00019	-5e-05	-1e-05	3e-05	5
22558	-8e-05	3e-05	8e-05	-0.00031	-0.00019	-5e-05	-1e-05	3e-05	5
22559	-8e-05	3e-05	8e-05	-0.00031	-0.00019	-5e-05	-1e-05	3e-05	5
22560	-8e-05	3e-05	8e-05	-0.00031	-0.00019	-5e-05	-1e-05	3e-05	5
22561	-8e-05	3e-05	8e-05	-0.00031	-0.00019	-5e-05	-1e-05	3e-05	5
22562	-8e-05	3e-05	8e-05	-0.00031	-0.00019	-5e-05	-1e-05	3e-05	5
22563	-8e-05	3e-05	8e-05	-0.00031	-0.00019	-5e-05	-1e-05	3e-05	5
22564	-8e-05	3e-05	8e-05	-0.00031	-0.00019	-5e-05	-1e-05	3e-05	5
22565	-8e-05	3e-05	8e-05	-0.00031	-0.00019	-5e-05	-1e-05	3e-05	5
22566	-8e-05	3e-05	8e-05	-0.00031	-0.00019	-5e-05	-1e-05	3e-05	5
22567	-8e-05	3e-05	8e-05	-0.00031	-0.00019	-5e-05	-1e-05	3e-05	5
22568	4e-05	4e-05	2e-05	7e-05	0.00016	-4e-05	0	2e-05	5
22569	4e-05	4e-05	2e-05	7e-05	0.00016	-4e-05	0	2e-05	5
22570	4e-05	4e-05	2e-05	7e-05	0.00016	-4e-05	0	2e-05	5
22571	4e-05	4e-05	2e-05	7e-05	0.00016	-4e-05	0	2e-05	5
22572	4e-05	4e-05	2e-05	7e-05	0.00016	-4e-05	0	2e-05	5
22573	4e-05	4e-05	2e-05	7e-05	0.00016	-4e-05	0	2e-05	5
22574	4e-05	4e-05	2e-05	7e-05	0.00016	-4e-05	0	2e-05	5
22575	4e-05	4e-05	2e-05	7e-05	0.00016	-4e-05	0	2e-05	5
22576	-4e-05	-7e-05	-0.00019	-3e-05	2e-05	1e-05	1e-05	-6e-05	5
22577	-4e-05	-7e-05	-0.00019	-3e-05	2e-05	1e-05	1e-05	-6e-05	5
22578	-4e-05	-7e-05	-0.00019	-3e-05	2e-05	1e-05	1e-05	-6e-05	5
22579	-4e-05	-7e-05	-0.00019	-3e-05	2e-05	1e-05	1e-05	-6e-05	5
22580	-4e-05	-7e-05	-0.00019	-3e-05	2e-05	1e-05	1e-05	-6e-05	5
22581	-4e-05	-7e-05	-0.00019	-3e-05	2e-05	1e-05	1e-05	-6e-05	5
22582	-4e-05	-7e-05	-0.00019	-3e-05	2e-05	1e-05	1e-05	-6e-05	5
22583	-4e-05	-7e-05	-0.00019	-3e-05	2e-05	1e-05	1e-05	-6e-05	5
22584	-4e-05	-7e-05	-0.00019	-3e-05	2e-05	1e-05	1e-05	-6e-05	5
22585	-4e-05	-7e-05	-0.00019	-3e-05	2e-05	1e-05	1e-05	-6e-05	5
22586	-4e-05	-7e-05	-0.00019	-3e-05	2e-05	1e-05	1e-05	-6e-05	5
22588	-4e-05	-7e-05	-0.00019	-3e-05	2e-05	1e-05	1e-05	-6e-05	5
22589	-4e-05	-7e-05	-0.00019	-3e-05	2e-05	1e-05	1e-05	-6e-05	5
22590	-4e-05	-7e-05	-0.00019	-3e-05	2e-05	1e-05	1e-05	-6e-05	5
22591	-0.0001	-4e-05	-1e-05	5e-05	-4e-05	0	-2e-05	8e-05	5
22592	-0.0001	-4e-05	-1e-05	5e-05	-4e-05	0	-2e-05	8e-05	5
22593	4e-05	2e-05	7e-05	9e-05	-0.00018	4e-05	2e-05	6e-05	5
22594	4e-05	2e-05	7e-05	9e-05	-0.00018	4e-05	2e-05	6e-05	5
22595	4e-05	2e-05	7e-05	9e-05	-0.00018	4e-05	2e-05	6e-05	5
22596	4e-05	2e-05	7e-05	9e-05	-0.00018	4e-05	2e-05	6e-05	5
22597	4e-05	2e-05	7e-05	9e-05	-0.00018	4e-05	2e-05	6e-05	5
22598	4e-05	2e-05	7e-05	9e-05	-0.00018	4e-05	2e-05	6e-05	5
22599	4e-05	2e-05	7e-05	9e-05	-0.00018	4e-05	2e-05	6e-05	5
22600	4e-05	2e-05	7e-05	9e-05	-0.00018	4e-05	2e-05	6e-05	5
22601	4e-05	2e-05	7e-05	9e-05	-0.00018	4e-05	2e-05	6e-05	5
22602	4e-05	2e-05	7e-05	9e-05	-0.00018	4e-05	2e-05	6e-05	5
22603	4e-05	2e-05	7e-05	9e-05	-0.00018	4e-05	2e-05	6e-05	5
22604	4e-05	2e-05	7e-05	9e-05	-0.00018	4e-05	2e-05	6e-05	5
22605	4e-05	2e-05	7e-05	9e-05	-0.00018	4e-05	2e-05	6e-05	5
22606	4e-05	2e-05	7e-05	9e-05	-0.00018	4e-05	2e-05	6e-05	5
22607	4e-05	2e-05	7e-05	9e-05	-0.00018	4e-05	2e-05	6e-05	5
22608	4e-05	2e-05	7e-05	9e-05	-0.00018	4e-05	2e-05	6e-05	5
22609	4e-05	2e-05	7e-05	9e-05	-0.00018	4e-05	2e-05	6e-05	5
22610	4e-05	2e-05	7e-05	9e-05	-0.00018	4e-05	2e-05	6e-05	5
22611	4e-05	2e-05	7e-05	9e-05	-0.00018	4e-05	2e-05	6e-05	5
22612	4e-05	2e-05	7e-05	9e-05	-0.00018	4e-05	2e-05	6e-05	5
22613	4e-05	2e-05	7e-05	9e-05	-0.00018	4e-05	2e-05	6e-05	5
22614	-6e-05	-6e-05	-1e-05	0.00022	0.00035	0.00016	5e-05	-3e-05	5
22615	1e-05	1e-05	5e-05	-0.00015	6e-05	-7e-05	-6e-05	-5e-05	5
22618	1e-05	1e-05	5e-05	-0.00015	6e-05	-7e-05	-6e-05	-5e-05	5
22619	1e-05	1e-05	5e-05	-0.00015	6e-05	-7e-05	-6e-05	-5e-05	5
22620	1e-05	1e-05	5e-05	-0.00015	6e-05	-7e-05	-6e-05	-5e-05	5
22621	1e-05	1e-05	5e-05	-0.00015	6e-05	-7e-05	-6e-05	-5e-05	5
22622	1e-05	1e-05	5e-05	-0.00015	6e-05	-7e-05	-6e-05	-5e-05	5
22623	1e-05	1e-05	5e-05	-0.00015	6e-05	-7e-05	-6e-05	-5e-05	5
22624	1e-05	1e-05	5e-05	-0.00015	6e-05	-7e-05	-6e-05	-5e-05	5
22625	1e-05	1e-05	5e-05	-0.00015	6e-05	-7e-05	-6e-05	-5e-05	5
22626	1e-05	1e-05	5e-05	-0.00015	6e-05	-7e-05	-6e-05	-5e-05	5
22627	1e-05	1e-05	5e-05	-0.00015	6e-05	-7e-05	-6e-05	-5e-05	5
22628	1e-05	1e-05	5e-05	-0.00015	6e-05	-7e-05	-6e-05	-5e-05	5
22629	1e-05	1e-05	5e-05	-0.00015	6e-05	-7e-05	-6e-05	-5e-05	5
22630	1e-05	1e-05	5e-05	-0.00015	6e-05	-7e-05	-6e-05	-5e-05	5
22631	1e-05	1e-05	5e-05	-0.00015	6e-05	-7e-05	-6e-05	-5e-05	5
22632	1e-05	1e-05	5e-05	-0.00015	6e-05	-7e-05	-6e-05	-5e-05	5
22633	1e-05	1e-05	5e-05	-0.00015	6e-05	-7e-05	-6e-05	-5e-05	5
22634	1e-05	1e-05	5e-05	-0.00015	6e-05	-7e-05	-6e-05	-5e-05	5
22635	1e-05	1e-05	5e-05	-0.00015	6e-05	-7e-05	-6e-05	-5e-05	5
22636	-0.00024	-0.00012	-4e-05	7e-05	-7e-05	6e-05	-1e-05	-9e-05	5
22640	3e-05	5e-05	4e-05	-0.00021	-9e-05	4e-05	1e-05	-6e-05	5
22641	3e-05	5e-05	4e-05	-0.00021	-9e-05	4e-05	1e-05	-6e-05	5
22642	3e-05	5e-05	4e-05	-0.00021	-9e-05	4e-05	1e-05	-6e-05	5
22643	3e-05	5e-05	4e-05	-0.00021	-9e-05	4e-05	1e-05	-6e-05	5
22644	3e-05	5e-05	4e-05	-0.00021	-9e-05	4e-05	1e-05	-6e-05	5
22645	3e-05	5e-05	4e-05	-0.00021	-9e-05	4e-05	1e-05	-6e-05	5
22646	3e-05	5e-05	4e-05	-0.00021	-9e-05	4e-05	1e-05	-6e-05	5
22647	3e-05	5e-05	4e-05	-0.00021	-9e-05	4e-05	1e-05	-6e-05	5
22648	3e-05	5e-05	4e-05	-0.00021	-9e-05	4e-05	1e-05	-6e-05	5
22649	3e-05	5e-05	4e-05	-0.00021	-9e-05	4e-05	1e-05	-6e-05	5
22650	3e-05	5e-05	4e-05	-0.00021	-9e-05	4e-05	1e-05	-6e-05	5
22651	0.00011	2e-05	-6e-05	-0.00023	-9e-05	-8e-05	0	-2e-05	5
22652	0.00011	2e-05	-6e-05	-0.00023	-9e-05	-8e-05	0	-2e-05	5
22653	0	-4e-05	-0.00011	0.0001	3e-05	3e-05	-2e-05	1e-05	5
22654	0	-4e-05	-0.00011	0.0001	3e-05	3e-05	-2e-05	1e-05	5
22655	0	-4e-05	-0.00011	0.0001	3e-05	3e-05	-2e-05	1e-05	5
22656	0	-4e-05	-0.00011	0.0001	3e-05	3e-05	-2e-05	1e-05	5
22657	0	-4e-05	-0.00011	0.0001	3e-05	3e-05	-2e-05	1e-05	5
22658	0	-4e-05	-0.00011	0.0001	3e-05	3e-05	-2e-05	1e-05	5
22659	0	-4e-05	-0.00011	0.0001	3e-05	3e-05	-2e-05	1e-05	5
22660	0	-4e-05	-0.00011	0.0001	3e-05	3e-05	-2e-05	1e-05	5
22661	0	-4e-05	-0.00011	0.0001	3e-05	3e-05	-2e-05	1e-05	5
22662	0	-4e-05	-0.00011	0.0001	3e-05	3e-05	-2e-05	1e-05	5
22663	0	-4e-05	-0.00011	0.0001	3e-05	3e-05	-2e-05	1e-05	5
22664	0	-4e-05	-0.00011	0.0001	3e-05	3e-05	-2e-05	1e-05	5
22665	0	-4e-05	-0.00011	0.0001	3e-05	3e-05	-2e-05	1e-05	5
22666	0	-4e-05	-0.00011	0.0001	3e-05	3e-05	-2e-05	1e-05	5
22667	0	-4e-05	-0.00011	0.0001	3e-05	3e-05	-2e-05	1e-05	5
22668	0	-4e-05	-0.00011	0.0001	3e-05	3e-05	-2e-05	1e-05	5
22669	0	-4e-05	-0.00011	0.0001	3e-05	3e-05	-2e-05	1e-05	5
22670	0	-4e-05	-0.00011	0.0001	3e-05	3e-05	-2e-05	1e-05	5
22671	0	-4e-05	-0.00011	0.0001	3e-05	3e-05	-2e-05	1e-05	5
22672	0	-4e-05	-0.00011	0.0001	3e-05	3e-05	-2e-05	1e-05	5
22673	0	-4e-05	-0.00011	0.0001	3e-05	3e-05	-2e-05	1e-05	5
22674	5e-05	3e-05	4e-05	0.00026	0.00019	2e-05	0	1e-05	5
22675	1e-05	-7e-05	-0.00014	0	0.00013	-5e-05	-3e-05	0	5
22677	1e-05	-7e-05	-0.00014	0	0.00013	-5e-05	-3e-05	0	5
22678	1e-05	-7e-05	-0.00014	0	0.00013	-5e-05	-3e-05	0	5
22679	1e-05	-7e-05	-0.00014	0	0.00013	-5e-05	-3e-05	0	5
22680	1e-05	-7e-05	-0.00014	0	0.00013	-5e-05	-3e-05	0	5
22681	1e-05	-7e-05	-0.00014	0	0.00013	-5e-05	-3e-05	0	5
22682	1e-05	-7e-05	-0.00014	0	0.00013	-5e-05	-3e-05	0	5
22683	1e-05	-7e-05	-0.00014	0	0.00013	-5e-05	-3e-05	0	5
22684	1e-05	-7e-05	-0.00014	0	0.00013	-5e-05	-3e-05	0	5
22685	1e-05	-7e-05	-0.00014	0	0.00013	-5e-05	-3e-05	0	5
22686	1e-05	-7e-05	-0.00014	0	0.00013	-5e-05	-3e-05	0	5
22689	1e-05	-7e-05	-0.00014	0	0.00013	-5e-05	-3e-05	0	5
22690	1e-05	-7e-05	-0.00014	0	0.00013	-5e-05	-3e-05	0	5
22691	1e-05	-7e-05	-0.00014	0	0.00013	-5e-05	-3e-05	0	5
22692	1e-05	-7e-05	-0.00014	0	0.00013	-5e-05	-3e-05	0	5
22693	1e-05	-7e-05	-0.00014	0	0.00013	-5e-05	-3e-05	0	5
22694	1e-05	-7e-05	-0.00014	0	0.00013	-5e-05	-3e-05	0	5
22695	1e-05	-7e-05	-0.00014	0	0.00013	-5e-05	-3e-05	0	5
22696	1e-05	-2e-05	4e-05	0.00011	-1e-05	-2e-05	-3e-05	-3e-05	5
22697	1e-05	-2e-05	4e-05	0.00011	-1e-05	-2e-05	-3e-05	-3e-05	5
22698	-0.0002	-2e-05	0.00011	-0.00033	-0.0005	-0.00012	1e-05	2e-05	5
22699	-0.0002	-2e-05	0.00011	-0.00033	-0.0005	-0.00012	1e-05	2e-05	5
22700	-0.0002	-2e-05	0.00011	-0.00033	-0.0005	-0.00012	1e-05	2e-05	5
22701	-0.0002	-2e-05	0.00011	-0.00033	-0.0005	-0.00012	1e-05	2e-05	5
22702	-0.0002	-2e-05	0.00011	-0.00033	-0.0005	-0.00012	1e-05	2e-05	5
22703	-0.0002	-2e-05	0.00011	-0.00033	-0.0005	-0.00012	1e-05	2e-05	5
22704	-0.0002	-2e-05	0.00011	-0.00033	-0.0005	-0.00012	1e-05	2e-05	5
22705	-0.0002	-2e-05	0.00011	-0.00033	-0.0005	-0.00012	1e-05	2e-05	5
22706	-0.0002	-2e-05	0.00011	-0.00033	-0.0005	-0.00012	1e-05	2e-05	5
22707	-0.0002	-2e-05	0.00011	-0.00033	-0.0005	-0.00012	1e-05	2e-05	5
22708	-0.0002	-2e-05	0.00011	-0.00033	-0.0005	-0.00012	1e-05	2e-05	5
22709	-0.0002	-2e-05	0.00011	-0.00033	-0.0005	-0.00012	1e-05	2e-05	5
22710	-0.0002	-2e-05	0.00011	-0.00033	-0.0005	-0.00012	1e-05	2e-05	5
22711	-0.0002	-2e-05	0.00011	-0.00033	-0.0005	-0.00012	1e-05	2e-05	5
22712	3e-05	3e-05	1e-05	-1e-05	-6e-05	-5e-05	-2e-05	-2e-05	5
22713	3e-05	4e-05	0	-4e-05	-0.00019	-3e-05	0	-1e-05	5
22714	3e-05	4e-05	0	-4e-05	-0.00019	-3e-05	0	-1e-05	5
22715	3e-05	4e-05	0	-4e-05	-0.00019	-3e-05	0	-1e-05	5
22716	3e-05	4e-05	0	-4e-05	-0.00019	-3e-05	0	-1e-05	5
22717	3e-05	4e-05	0	-4e-05	-0.00019	-3e-05	0	-1e-05	5
22718	3e-05	4e-05	0	-4e-05	-0.00019	-3e-05	0	-1e-05	5
22719	3e-05	4e-05	0	-4e-05	-0.00019	-3e-05	0	-1e-05	5
22720	3e-05	4e-05	0	-4e-05	-0.00019	-3e-05	0	-1e-05	5
22721	3e-05	4e-05	0	-4e-05	-0.00019	-3e-05	0	-1e-05	5
22722	3e-05	4e-05	0	-4e-05	-0.00019	-3e-05	0	-1e-05	5
22723	3e-05	4e-05	0	-4e-05	-0.00019	-3e-05	0	-1e-05	5
22724	3e-05	4e-05	0	-4e-05	-0.00019	-3e-05	0	-1e-05	5
22725	3e-05	4e-05	0	-4e-05	-0.00019	-3e-05	0	-1e-05	5
22726	3e-05	4e-05	0	-4e-05	-0.00019	-3e-05	0	-1e-05	5
22727	3e-05	4e-05	0	-4e-05	-0.00019	-3e-05	0	-1e-05	5
22728	3e-05	4e-05	0	-4e-05	-0.00019	-3e-05	0	-1e-05	5
22729	3e-05	4e-05	0	-4e-05	-0.00019	-3e-05	0	-1e-05	5
22730	3e-05	4e-05	0	-4e-05	-0.00019	-3e-05	0	-1e-05	5
22731	3e-05	4e-05	0	-4e-05	-0.00019	-3e-05	0	-1e-05	5
22732	3e-05	4e-05	0	-4e-05	-0.00019	-3e-05	0	-1e-05	5
22733	3e-05	4e-05	0	-4e-05	-0.00019	-3e-05	0	-1e-05	5
22734	-5e-05	-2e-05	1e-05	-3e-05	4e-05	-3e-05	1e-05	-1e-05	5
22735	-1e-05	-1e-05	2e-05	0.00018	0.00036	-5e-05	-3e-05	-6e-05	5
22737	-1e-05	-1e-05	2e-05	0.00018	0.00036	-5e-05	-3e-05	-6e-05	5
22740	-1e-05	-1e-05	2e-05	0.00018	0.00036	-5e-05	-3e-05	-6e-05	5
22741	-1e-05	-1e-05	2e-05	0.00018	0.00036	-5e-05	-3e-05	-6e-05	5
22742	-1e-05	-1e-05	2e-05	0.00018	0.00036	-5e-05	-3e-05	-6e-05	5
22743	-1e-05	-1e-05	2e-05	0.00018	0.00036	-5e-05	-3e-05	-6e-05	5
22744	-1e-05	-1e-05	2e-05	0.00018	0.00036	-5e-05	-3e-05	-6e-05	5
22745	-1e-05	-1e-05	2e-05	0.00018	0.00036	-5e-05	-3e-05	-6e-05	5
22746	-1e-05	-1e-05	2e-05	0.00018	0.00036	-5e-05	-3e-05	-6e-05	5
22747	-1e-05	-1e-05	2e-05	0.00018	0.00036	-5e-05	-3e-05	-6e-05	5
22748	-1e-05	-1e-05	2e-05	0.00018	0.00036	-5e-05	-3e-05	-6e-05	5
22749	-1e-05	-1e-05	2e-05	0.00018	0.00036	-5e-05	-3e-05	-6e-05	5
22750	-1e-05	-1e-05	2e-05	0.00018	0.00036	-5e-05	-3e-05	-6e-05	5
22751	-1e-05	-1e-05	2e-05	0.00018	0.00036	-5e-05	-3e-05	-6e-05	5
22752	-1e-05	-1e-05	2e-05	0.00018	0.00036	-5e-05	-3e-05	-6e-05	5
22753	-1e-05	-1e-05	2e-05	0.00018	0.00036	-5e-05	-3e-05	-6e-05	5
22754	-1e-05	-1e-05	2e-05	0.00018	0.00036	-5e-05	-3e-05	-6e-05	5
22755	-1e-05	-1e-05	2e-05	0.00018	0.00036	-5e-05	-3e-05	-6e-05	5
22756	1e-05	-1e-05	0	-7e-05	2e-05	-6e-05	-3e-05	4e-05	5
22757	1e-05	-1e-05	0	-7e-05	2e-05	-6e-05	-3e-05	4e-05	5
22758	1e-05	-1e-05	0	-7e-05	2e-05	-6e-05	-3e-05	4e-05	5
22759	-3e-05	-4e-05	4e-05	0	0	0.00025	6e-05	0	5
22760	-3e-05	-4e-05	4e-05	0	0	0.00025	6e-05	0	5
22761	-3e-05	-4e-05	4e-05	0	0	0.00025	6e-05	0	5
22762	-3e-05	-4e-05	4e-05	0	0	0.00025	6e-05	0	5
22763	-3e-05	-4e-05	4e-05	0	0	0.00025	6e-05	0	5
22764	-3e-05	-4e-05	4e-05	0	0	0.00025	6e-05	0	5
22765	-3e-05	-4e-05	4e-05	0	0	0.00025	6e-05	0	5
22766	-3e-05	-4e-05	4e-05	0	0	0.00025	6e-05	0	5
22767	-3e-05	-4e-05	4e-05	0	0	0.00025	6e-05	0	5
22768	-3e-05	-4e-05	4e-05	0	0	0.00025	6e-05	0	5
22769	-3e-05	-4e-05	4e-05	0	0	0.00025	6e-05	0	5
22770	-3e-05	-4e-05	4e-05	0	0	0.00025	6e-05	0	5
22771	5e-05	1e-05	-3e-05	-0.00012	-8e-05	-3e-05	-1e-05	-1e-05	5
22772	-3e-05	-1e-05	-7e-05	-7e-05	-0.00021	-4e-05	-3e-05	-2e-05	5
22773	-3e-05	-1e-05	-7e-05	-7e-05	-0.00021	-4e-05	-3e-05	-2e-05	5
22774	-3e-05	-1e-05	-7e-05	-7e-05	-0.00021	-4e-05	-3e-05	-2e-05	5
22775	-3e-05	-1e-05	-7e-05	-7e-05	-0.00021	-4e-05	-3e-05	-2e-05	5
22776	-3e-05	-1e-05	-7e-05	-7e-05	-0.00021	-4e-05	-3e-05	-2e-05	5
22777	0.00011	0	7e-05	0.00017	8e-05	-1e-05	2e-05	-1e-05	5
22779	0.00011	0	7e-05	0.00017	8e-05	-1e-05	2e-05	-1e-05	5
22780	0.00011	0	7e-05	0.00017	8e-05	-1e-05	2e-05	-1e-05	5
22781	0.00011	0	7e-05	0.00017	8e-05	-1e-05	2e-05	-1e-05	5
22782	0.00011	0	7e-05	0.00017	8e-05	-1e-05	2e-05	-1e-05	5
22783	0.00011	0	7e-05	0.00017	8e-05	-1e-05	2e-05	-1e-05	5
22784	0.00011	0	7e-05	0.00017	8e-05	-1e-05	2e-05	-1e-05	5
22785	0.00011	0	7e-05	0.00017	8e-05	-1e-05	2e-05	-1e-05	5
22786	0.00011	0	7e-05	0.00017	8e-05	-1e-05	2e-05	-1e-05	5
22789	0.00011	0	7e-05	0.00017	8e-05	-1e-05	2e-05	-1e-05	5
22790	0.00011	0	7e-05	0.00017	8e-05	-1e-05	2e-05	-1e-05	5
22791	0.00011	0	7e-05	0.00017	8e-05	-1e-05	2e-05	-1e-05	5
22792	0.00011	0	7e-05	0.00017	8e-05	-1e-05	2e-05	-1e-05	5
22793	0.00011	0	7e-05	0.00017	8e-05	-1e-05	2e-05	-1e-05	5
22794	2e-05	-3e-05	5e-05	-9e-05	-7e-05	-3e-05	-4e-05	-8e-05	5
22795	-0.00011	-3e-05	-3e-05	-7e-05	0.00012	-5e-05	-1e-05	-1e-05	5
22797	-0.00011	-3e-05	-3e-05	-7e-05	0.00012	-5e-05	-1e-05	-1e-05	5
22798	-0.00011	-3e-05	-3e-05	-7e-05	0.00012	-5e-05	-1e-05	-1e-05	5
22799	-0.00011	-3e-05	-3e-05	-7e-05	0.00012	-5e-05	-1e-05	-1e-05	5
22800	-0.00011	-3e-05	-3e-05	-7e-05	0.00012	-5e-05	-1e-05	-1e-05	5
22801	-0.00011	-3e-05	-3e-05	-7e-05	0.00012	-5e-05	-1e-05	-1e-05	5
22802	-0.00011	-3e-05	-3e-05	-7e-05	0.00012	-5e-05	-1e-05	-1e-05	5
22803	-0.00011	-3e-05	-3e-05	-7e-05	0.00012	-5e-05	-1e-05	-1e-05	5
22804	-0.00011	-3e-05	-3e-05	-7e-05	0.00012	-5e-05	-1e-05	-1e-05	5
22805	-0.00011	-3e-05	-3e-05	-7e-05	0.00012	-5e-05	-1e-05	-1e-05	5
22806	-0.00011	-3e-05	-3e-05	-7e-05	0.00012	-5e-05	-1e-05	-1e-05	5
22807	-0.00011	-3e-05	-3e-05	-7e-05	0.00012	-5e-05	-1e-05	-1e-05	5
22808	-0.00011	-3e-05	-3e-05	-7e-05	0.00012	-5e-05	-1e-05	-1e-05	5
22809	-0.00011	-3e-05	-3e-05	-7e-05	0.00012	-5e-05	-1e-05	-1e-05	5
22810	-0.00011	-3e-05	-3e-05	-7e-05	0.00012	-5e-05	-1e-05	-1e-05	5
22811	-0.00011	-3e-05	-3e-05	-7e-05	0.00012	-5e-05	-1e-05	-1e-05	5
22812	-0.00011	-3e-05	-3e-05	-7e-05	0.00012	-5e-05	-1e-05	-1e-05	5
22813	-0.00011	-3e-05	-3e-05	-7e-05	0.00012	-5e-05	-1e-05	-1e-05	5
22814	-0.00011	-3e-05	-3e-05	-7e-05	0.00012	-5e-05	-1e-05	-1e-05	5
22815	-0.00011	-3e-05	-3e-05	-7e-05	0.00012	-5e-05	-1e-05	-1e-05	5
22816	-3e-05	4e-05	6e-05	0.00042	-1e-05	-2e-05	0	-4e-05	5
22817	-3e-05	4e-05	6e-05	0.00042	-1e-05	-2e-05	0	-4e-05	5
22818	-5e-05	1e-05	-6e-05	-2e-05	-4e-05	-2e-05	-6e-05	-6e-05	5
22819	-5e-05	1e-05	-6e-05	-2e-05	-4e-05	-2e-05	-6e-05	-6e-05	5
22820	-5e-05	1e-05	-6e-05	-2e-05	-4e-05	-2e-05	-6e-05	-6e-05	5
22821	-5e-05	1e-05	-6e-05	-2e-05	-4e-05	-2e-05	-6e-05	-6e-05	5
22822	-5e-05	1e-05	-6e-05	-2e-05	-4e-05	-2e-05	-6e-05	-6e-05	5
22823	-5e-05	1e-05	-6e-05	-2e-05	-4e-05	-2e-05	-6e-05	-6e-05	5
22824	-5e-05	1e-05	-6e-05	-2e-05	-4e-05	-2e-05	-6e-05	-6e-05	5
22825	-5e-05	1e-05	-6e-05	-2e-05	-4e-05	-2e-05	-6e-05	-6e-05	5
22826	-5e-05	1e-05	-6e-05	-2e-05	-4e-05	-2e-05	-6e-05	-6e-05	5
22827	-5e-05	1e-05	-6e-05	-2e-05	-4e-05	-2e-05	-6e-05	-6e-05	5
22828	-5e-05	1e-05	-6e-05	-2e-05	-4e-05	-2e-05	-6e-05	-6e-05	5
22829	-5e-05	1e-05	-6e-05	-2e-05	-4e-05	-2e-05	-6e-05	-6e-05	5
22830	8e-05	2e-05	-2e-05	3e-05	5e-05	6e-05	0	4e-05	5
22831	-0.0001	-6e-05	7e-05	-0.00017	0.00013	4e-05	-2e-05	5e-05	5
22832	-0.0001	-6e-05	7e-05	-0.00017	0.00013	4e-05	-2e-05	5e-05	5
22833	-0.0001	-6e-05	7e-05	-0.00017	0.00013	4e-05	-2e-05	5e-05	5
22834	-0.0001	-6e-05	7e-05	-0.00017	0.00013	4e-05	-2e-05	5e-05	5
22835	-0.0001	-6e-05	7e-05	-0.00017	0.00013	4e-05	-2e-05	5e-05	5
22836	-0.0001	-6e-05	7e-05	-0.00017	0.00013	4e-05	-2e-05	5e-05	5
22839	0	-5e-05	-8e-05	-3e-05	-4e-05	-1e-05	-2e-05	-1e-05	5
22840	0	-5e-05	-8e-05	-3e-05	-4e-05	-1e-05	-2e-05	-1e-05	5
22841	0	-5e-05	-8e-05	-3e-05	-4e-05	-1e-05	-2e-05	-1e-05	5
22842	0	-5e-05	-8e-05	-3e-05	-4e-05	-1e-05	-2e-05	-1e-05	5
22843	0	-5e-05	-8e-05	-3e-05	-4e-05	-1e-05	-2e-05	-1e-05	5
22844	0	-5e-05	-8e-05	-3e-05	-4e-05	-1e-05	-2e-05	-1e-05	5
22845	0	-5e-05	-8e-05	-3e-05	-4e-05	-1e-05	-2e-05	-1e-05	5
22846	0	-5e-05	-8e-05	-3e-05	-4e-05	-1e-05	-2e-05	-1e-05	5
22847	0	-5e-05	-8e-05	-3e-05	-4e-05	-1e-05	-2e-05	-1e-05	5
22848	0	-5e-05	-8e-05	-3e-05	-4e-05	-1e-05	-2e-05	-1e-05	5
22849	0	-5e-05	-8e-05	-3e-05	-4e-05	-1e-05	-2e-05	-1e-05	5
22850	0	-5e-05	-8e-05	-3e-05	-4e-05	-1e-05	-2e-05	-1e-05	5
22851	0	-5e-05	-8e-05	-3e-05	-4e-05	-1e-05	-2e-05	-1e-05	5
22852	0	-5e-05	-8e-05	-3e-05	-4e-05	-1e-05	-2e-05	-1e-05	5
22853	0	-5e-05	-8e-05	-3e-05	-4e-05	-1e-05	-2e-05	-1e-05	5
22854	9e-05	7e-05	-3e-05	-8e-05	-3e-05	0	3e-05	4e-05	5
22855	-9e-05	-9e-05	-3e-05	0.00012	0.0001	-3e-05	-3e-05	-2e-05	5
22856	-9e-05	-9e-05	-3e-05	0.00012	0.0001	-3e-05	-3e-05	-2e-05	5
22857	-9e-05	-9e-05	-3e-05	0.00012	0.0001	-3e-05	-3e-05	-2e-05	5
22858	-9e-05	-9e-05	-3e-05	0.00012	0.0001	-3e-05	-3e-05	-2e-05	5
22859	-9e-05	-9e-05	-3e-05	0.00012	0.0001	-3e-05	-3e-05	-2e-05	5
22860	-9e-05	-9e-05	-3e-05	0.00012	0.0001	-3e-05	-3e-05	-2e-05	5
22861	-9e-05	-9e-05	-3e-05	0.00012	0.0001	-3e-05	-3e-05	-2e-05	5
22862	-9e-05	-9e-05	-3e-05	0.00012	0.0001	-3e-05	-3e-05	-2e-05	5
22863	-9e-05	-9e-05	-3e-05	0.00012	0.0001	-3e-05	-3e-05	-2e-05	5
22864	-9e-05	-9e-05	-3e-05	0.00012	0.0001	-3e-05	-3e-05	-2e-05	5
22865	-9e-05	-9e-05	-3e-05	0.00012	0.0001	-3e-05	-3e-05	-2e-05	5
22866	-9e-05	-9e-05	-3e-05	0.00012	0.0001	-3e-05	-3e-05	-2e-05	5
22867	-9e-05	-9e-05	-3e-05	0.00012	0.0001	-3e-05	-3e-05	-2e-05	5
22868	-9e-05	-9e-05	-3e-05	0.00012	0.0001	-3e-05	-3e-05	-2e-05	5
22869	-9e-05	-9e-05	-3e-05	0.00012	0.0001	-3e-05	-3e-05	-2e-05	5
22870	-9e-05	-9e-05	-3e-05	0.00012	0.0001	-3e-05	-3e-05	-2e-05	5
22871	-9e-05	-9e-05	-3e-05	0.00012	0.0001	-3e-05	-3e-05	-2e-05	5
22872	-9e-05	-9e-05	-3e-05	0.00012	0.0001	-3e-05	-3e-05	-2e-05	5
22873	-9e-05	-9e-05	-3e-05	0.00012	0.0001	-3e-05	-3e-05	-2e-05	5
22874	-9e-05	-9e-05	-3e-05	0.00012	0.0001	-3e-05	-3e-05	-2e-05	5
22875	-9e-05	-9e-05	-3e-05	0.00012	0.0001	-3e-05	-3e-05	-2e-05	5
22876	3e-05	-2e-05	1e-05	-7e-05	-0.00017	6e-05	2e-05	4e-05	5
22877	3e-05	-2e-05	1e-05	-7e-05	-0.00017	6e-05	2e-05	4e-05	5
22878	5e-05	8e-05	0.00014	0.00025	6e-05	3e-05	2e-05	3e-05	5
22879	5e-05	8e-05	0.00014	0.00025	6e-05	3e-05	2e-05	3e-05	5
22880	5e-05	8e-05	0.00014	0.00025	6e-05	3e-05	2e-05	3e-05	5
22881	5e-05	8e-05	0.00014	0.00025	6e-05	3e-05	2e-05	3e-05	5
22882	5e-05	8e-05	0.00014	0.00025	6e-05	3e-05	2e-05	3e-05	5
22883	5e-05	8e-05	0.00014	0.00025	6e-05	3e-05	2e-05	3e-05	5
22884	5e-05	8e-05	0.00014	0.00025	6e-05	3e-05	2e-05	3e-05	5
22885	5e-05	8e-05	0.00014	0.00025	6e-05	3e-05	2e-05	3e-05	5
22886	5e-05	8e-05	0.00014	0.00025	6e-05	3e-05	2e-05	3e-05	5
22890	5e-05	8e-05	0.00014	0.00025	6e-05	3e-05	2e-05	3e-05	5
22891	1e-05	0	-4e-05	-4e-05	1e-05	0	2e-05	3e-05	5
22892	1e-05	0	-4e-05	-4e-05	1e-05	0	2e-05	3e-05	5
22893	1e-05	0	-4e-05	-4e-05	1e-05	0	2e-05	3e-05	5
22894	1e-05	0	-4e-05	-4e-05	1e-05	0	2e-05	3e-05	5
22895	1e-05	0	-4e-05	-4e-05	1e-05	0	2e-05	3e-05	5
22896	1e-05	0	-4e-05	-4e-05	1e-05	0	2e-05	3e-05	5
22897	-8e-05	-7e-05	0	0.00017	0.0003	-8e-05	-3e-05	-4e-05	5
22898	-8e-05	-7e-05	0	0.00017	0.0003	-8e-05	-3e-05	-4e-05	5
22899	-8e-05	-7e-05	0	0.00017	0.0003	-8e-05	-3e-05	-4e-05	5
22900	-8e-05	-7e-05	0	0.00017	0.0003	-8e-05	-3e-05	-4e-05	5
22901	-8e-05	-7e-05	0	0.00017	0.0003	-8e-05	-3e-05	-4e-05	5
22902	-8e-05	-7e-05	0	0.00017	0.0003	-8e-05	-3e-05	-4e-05	5
22903	-8e-05	-7e-05	0	0.00017	0.0003	-8e-05	-3e-05	-4e-05	5
22904	-8e-05	-7e-05	0	0.00017	0.0003	-8e-05	-3e-05	-4e-05	5
22905	-8e-05	-7e-05	0	0.00017	0.0003	-8e-05	-3e-05	-4e-05	5
22906	-8e-05	-7e-05	0	0.00017	0.0003	-8e-05	-3e-05	-4e-05	5
22907	-8e-05	-7e-05	0	0.00017	0.0003	-8e-05	-3e-05	-4e-05	5
22908	-8e-05	-7e-05	0	0.00017	0.0003	-8e-05	-3e-05	-4e-05	5
22909	-8e-05	-7e-05	0	0.00017	0.0003	-8e-05	-3e-05	-4e-05	5
22910	-8e-05	-7e-05	0	0.00017	0.0003	-8e-05	-3e-05	-4e-05	5
22911	-8e-05	-7e-05	0	0.00017	0.0003	-8e-05	-3e-05	-4e-05	5
22912	-8e-05	-7e-05	0	0.00017	0.0003	-8e-05	-3e-05	-4e-05	5
22913	-8e-05	-7e-05	0	0.00017	0.0003	-8e-05	-3e-05	-4e-05	5
22914	-4e-05	-3e-05	1e-05	0.00025	0.00037	-5e-05	-7e-05	-0.00021	5
22915	-0.00015	-2e-05	2e-05	0.0002	0.00016	4e-05	3e-05	-9e-05	5
22916	-0.00015	-2e-05	2e-05	0.0002	0.00016	4e-05	3e-05	-9e-05	5
22917	-0.00015	-2e-05	2e-05	0.0002	0.00016	4e-05	3e-05	-9e-05	5
22918	-0.00015	-2e-05	2e-05	0.0002	0.00016	4e-05	3e-05	-9e-05	5
22919	-0.00015	-2e-05	2e-05	0.0002	0.00016	4e-05	3e-05	-9e-05	5
22920	-0.00015	-2e-05	2e-05	0.0002	0.00016	4e-05	3e-05	-9e-05	5
22921	-0.00015	-2e-05	2e-05	0.0002	0.00016	4e-05	3e-05	-9e-05	5
22922	-0.00015	-2e-05	2e-05	0.0002	0.00016	4e-05	3e-05	-9e-05	5
22923	-0.00015	-2e-05	2e-05	0.0002	0.00016	4e-05	3e-05	-9e-05	5
22924	-0.00015	-2e-05	2e-05	0.0002	0.00016	4e-05	3e-05	-9e-05	5
22925	-0.00015	-2e-05	2e-05	0.0002	0.00016	4e-05	3e-05	-9e-05	5
22926	-0.00015	-2e-05	2e-05	0.0002	0.00016	4e-05	3e-05	-9e-05	5
22927	-0.00015	-2e-05	2e-05	0.0002	0.00016	4e-05	3e-05	-9e-05	5
22928	-0.00015	-2e-05	2e-05	0.0002	0.00016	4e-05	3e-05	-9e-05	5
22929	-0.00015	-2e-05	2e-05	0.0002	0.00016	4e-05	3e-05	-9e-05	5
22930	-0.00015	-2e-05	2e-05	0.0002	0.00016	4e-05	3e-05	-9e-05	5
22931	-0.00015	-2e-05	2e-05	0.0002	0.00016	4e-05	3e-05	-9e-05	5
22932	-0.00015	-2e-05	2e-05	0.0002	0.00016	4e-05	3e-05	-9e-05	5
22933	-0.00015	-2e-05	2e-05	0.0002	0.00016	4e-05	3e-05	-9e-05	5
22934	-0.00015	-2e-05	2e-05	0.0002	0.00016	4e-05	3e-05	-9e-05	5
22935	-0.00015	-2e-05	2e-05	0.0002	0.00016	4e-05	3e-05	-9e-05	5
22937	8e-05	-7e-05	-0.00028	-0.00029	-0.00019	-5e-05	0	3e-05	5
22940	0.00011	1e-05	-0.0001	-5e-05	-0.00015	-4e-05	-5e-05	2e-05	5
22941	0.00011	1e-05	-0.0001	-5e-05	-0.00015	-4e-05	-5e-05	2e-05	5
22942	0.00011	1e-05	-0.0001	-5e-05	-0.00015	-4e-05	-5e-05	2e-05	5
22943	0.00011	1e-05	-0.0001	-5e-05	-0.00015	-4e-05	-5e-05	2e-05	5
22944	0.00011	1e-05	-0.0001	-5e-05	-0.00015	-4e-05	-5e-05	2e-05	5
22945	0.00011	1e-05	-0.0001	-5e-05	-0.00015	-4e-05	-5e-05	2e-05	5
22946	0.00011	1e-05	-0.0001	-5e-05	-0.00015	-4e-05	-5e-05	2e-05	5
22947	0.00011	1e-05	-0.0001	-5e-05	-0.00015	-4e-05	-5e-05	2e-05	5
22948	0.00011	1e-05	-0.0001	-5e-05	-0.00015	-4e-05	-5e-05	2e-05	5
22949	0.00011	1e-05	-0.0001	-5e-05	-0.00015	-4e-05	-5e-05	2e-05	5
22950	0.00011	1e-05	-0.0001	-5e-05	-0.00015	-4e-05	-5e-05	2e-05	5
22951	1e-05	2e-05	-3e-05	-0.00018	-0.00017	-2e-05	-1e-05	3e-05	5
22952	1e-05	2e-05	-3e-05	-0.00018	-0.00017	-2e-05	-1e-05	3e-05	5
22953	1e-05	2e-05	-3e-05	-0.00018	-0.00017	-2e-05	-1e-05	3e-05	5
22954	1e-05	2e-05	-3e-05	-0.00018	-0.00017	-2e-05	-1e-05	3e-05	5
22955	1e-05	2e-05	-3e-05	-0.00018	-0.00017	-2e-05	-1e-05	3e-05	5
22956	1e-05	2e-05	-3e-05	-0.00018	-0.00017	-2e-05	-1e-05	3e-05	5
22957	9e-05	8e-05	-1e-05	-0.00018	-0.00041	6e-05	8e-05	0.00012	5
22958	9e-05	8e-05	-1e-05	-0.00018	-0.00041	6e-05	8e-05	0.00012	5
22959	9e-05	8e-05	-1e-05	-0.00018	-0.00041	6e-05	8e-05	0.00012	5
22960	9e-05	8e-05	-1e-05	-0.00018	-0.00041	6e-05	8e-05	0.00012	5
22961	9e-05	8e-05	-1e-05	-0.00018	-0.00041	6e-05	8e-05	0.00012	5
22962	9e-05	8e-05	-1e-05	-0.00018	-0.00041	6e-05	8e-05	0.00012	5
22963	9e-05	8e-05	-1e-05	-0.00018	-0.00041	6e-05	8e-05	0.00012	5
22964	9e-05	8e-05	-1e-05	-0.00018	-0.00041	6e-05	8e-05	0.00012	5
22965	9e-05	8e-05	-1e-05	-0.00018	-0.00041	6e-05	8e-05	0.00012	5
22966	9e-05	8e-05	-1e-05	-0.00018	-0.00041	6e-05	8e-05	0.00012	5
22967	9e-05	8e-05	-1e-05	-0.00018	-0.00041	6e-05	8e-05	0.00012	5
22968	9e-05	8e-05	-1e-05	-0.00018	-0.00041	6e-05	8e-05	0.00012	5
22969	9e-05	8e-05	-1e-05	-0.00018	-0.00041	6e-05	8e-05	0.00012	5
22970	9e-05	8e-05	-1e-05	-0.00018	-0.00041	6e-05	8e-05	0.00012	5
22971	9e-05	8e-05	-1e-05	-0.00018	-0.00041	6e-05	8e-05	0.00012	5
22972	9e-05	8e-05	-1e-05	-0.00018	-0.00041	6e-05	8e-05	0.00012	5
22973	9e-05	8e-05	-1e-05	-0.00018	-0.00041	6e-05	8e-05	0.00012	5
22974	-5e-05	-1e-05	7e-05	0.0001	4e-05	-1e-05	-3e-05	4e-05	5
22975	1e-05	-1e-05	0.0001	-0.00011	2e-05	0.0001	-2e-05	-0.00011	5
22976	1e-05	-1e-05	0.0001	-0.00011	2e-05	0.0001	-2e-05	-0.00011	5
22977	1e-05	-1e-05	0.0001	-0.00011	2e-05	0.0001	-2e-05	-0.00011	5
22978	1e-05	-1e-05	0.0001	-0.00011	2e-05	0.0001	-2e-05	-0.00011	5
22979	1e-05	-1e-05	0.0001	-0.00011	2e-05	0.0001	-2e-05	-0.00011	5
22980	1e-05	-1e-05	0.0001	-0.00011	2e-05	0.0001	-2e-05	-0.00011	5
22981	1e-05	-1e-05	0.0001	-0.00011	2e-05	0.0001	-2e-05	-0.00011	5
22982	1e-05	-1e-05	0.0001	-0.00011	2e-05	0.0001	-2e-05	-0.00011	5
22983	1e-05	-1e-05	0.0001	-0.00011	2e-05	0.0001	-2e-05	-0.00011	5
22984	1e-05	-1e-05	0.0001	-0.00011	2e-05	0.0001	-2e-05	-0.00011	5
22985	1e-05	-1e-05	0.0001	-0.00011	2e-05	0.0001	-2e-05	-0.00011	5
22986	1e-05	-1e-05	0.0001	-0.00011	2e-05	0.0001	-2e-05	-0.00011	5
22989	1e-05	-1e-05	0.0001	-0.00011	2e-05	0.0001	-2e-05	-0.00011	5
22990	1e-05	-1e-05	0.0001	-0.00011	2e-05	0.0001	-2e-05	-0.00011	5
22991	1e-05	-1e-05	0.0001	-0.00011	2e-05	0.0001	-2e-05	-0.00011	5
22992	1e-05	-1e-05	0.0001	-0.00011	2e-05	0.0001	-2e-05	-0.00011	5
22993	1e-05	-1e-05	0.0001	-0.00011	2e-05	0.0001	-2e-05	-0.00011	5
22994	1e-05	-1e-05	0.0001	-0.00011	2e-05	0.0001	-2e-05	-0.00011	5
22995	1e-05	-1e-05	0.0001	-0.00011	2e-05	0.0001	-2e-05	-0.00011	5
22996	-6e-05	-6e-05	-5e-05	-0.0001	1e-05	-3e-05	-5e-05	-5e-05	5
22997	-6e-05	-6e-05	-5e-05	-0.0001	1e-05	-3e-05	-5e-05	-5e-05	5
22998	9e-05	4e-05	0.0001	0.00038	0.00027	-8e-05	-1e-05	0.0001	5
22999	9e-05	4e-05	0.0001	0.00038	0.00027	-8e-05	-1e-05	0.0001	5
23000	9e-05	4e-05	0.0001	0.00038	0.00027	-8e-05	-1e-05	0.0001	5
23001	9e-05	4e-05	0.0001	0.00038	0.00027	-8e-05	-1e-05	0.0001	5
23002	9e-05	4e-05	0.0001	0.00038	0.00027	-8e-05	-1e-05	0.0001	5
23003	9e-05	4e-05	0.0001	0.00038	0.00027	-8e-05	-1e-05	0.0001	5
23004	9e-05	4e-05	0.0001	0.00038	0.00027	-8e-05	-1e-05	0.0001	5
23005	9e-05	4e-05	0.0001	0.00038	0.00027	-8e-05	-1e-05	0.0001	5
23006	9e-05	4e-05	0.0001	0.00038	0.00027	-8e-05	-1e-05	0.0001	5
23007	9e-05	4e-05	0.0001	0.00038	0.00027	-8e-05	-1e-05	0.0001	5
23008	9e-05	4e-05	0.0001	0.00038	0.00027	-8e-05	-1e-05	0.0001	5
23009	9e-05	4e-05	0.0001	0.00038	0.00027	-8e-05	-1e-05	0.0001	5
23010	4e-05	6e-05	6e-05	-0.00028	-0.0002	-9e-05	-2e-05	-6e-05	5
23011	-4e-05	0	-0.00012	-0.00028	-0.00016	-5e-05	-1e-05	-3e-05	5
23012	-4e-05	0	-0.00012	-0.00028	-0.00016	-5e-05	-1e-05	-3e-05	5
23013	-4e-05	0	-0.00012	-0.00028	-0.00016	-5e-05	-1e-05	-3e-05	5
23014	-4e-05	0	-0.00012	-0.00028	-0.00016	-5e-05	-1e-05	-3e-05	5
23015	-4e-05	0	-0.00012	-0.00028	-0.00016	-5e-05	-1e-05	-3e-05	5
23016	-4e-05	0	-0.00012	-0.00028	-0.00016	-5e-05	-1e-05	-3e-05	5
23017	-7e-05	-7e-05	-5e-05	-0.00015	-0.00012	-9e-05	-4e-05	-6e-05	5
23018	-7e-05	-7e-05	-5e-05	-0.00015	-0.00012	-9e-05	-4e-05	-6e-05	5
23019	-7e-05	-7e-05	-5e-05	-0.00015	-0.00012	-9e-05	-4e-05	-6e-05	5
23020	-7e-05	-7e-05	-5e-05	-0.00015	-0.00012	-9e-05	-4e-05	-6e-05	5
23021	-7e-05	-7e-05	-5e-05	-0.00015	-0.00012	-9e-05	-4e-05	-6e-05	5
23022	-7e-05	-7e-05	-5e-05	-0.00015	-0.00012	-9e-05	-4e-05	-6e-05	5
23023	-7e-05	-7e-05	-5e-05	-0.00015	-0.00012	-9e-05	-4e-05	-6e-05	5
23024	-7e-05	-7e-05	-5e-05	-0.00015	-0.00012	-9e-05	-4e-05	-6e-05	5
23025	-7e-05	-7e-05	-5e-05	-0.00015	-0.00012	-9e-05	-4e-05	-6e-05	5
23026	-7e-05	-7e-05	-5e-05	-0.00015	-0.00012	-9e-05	-4e-05	-6e-05	5
23027	-7e-05	-7e-05	-5e-05	-0.00015	-0.00012	-9e-05	-4e-05	-6e-05	5
23028	-7e-05	-7e-05	-5e-05	-0.00015	-0.00012	-9e-05	-4e-05	-6e-05	5
23029	-7e-05	-7e-05	-5e-05	-0.00015	-0.00012	-9e-05	-4e-05	-6e-05	5
23030	-7e-05	-7e-05	-5e-05	-0.00015	-0.00012	-9e-05	-4e-05	-6e-05	5
23031	-7e-05	-7e-05	-5e-05	-0.00015	-0.00012	-9e-05	-4e-05	-6e-05	5
23032	-7e-05	-7e-05	-5e-05	-0.00015	-0.00012	-9e-05	-4e-05	-6e-05	5
23033	-7e-05	-7e-05	-5e-05	-0.00015	-0.00012	-9e-05	-4e-05	-6e-05	5
23034	3e-05	5e-05	8e-05	0.00026	4e-05	5e-05	3e-05	-1e-05	5
23035	6e-05	7e-05	6e-05	0.00021	0.00028	6e-05	2e-05	1e-05	5
23037	6e-05	7e-05	6e-05	0.00021	0.00028	6e-05	2e-05	1e-05	5
23040	6e-05	7e-05	6e-05	0.00021	0.00028	6e-05	2e-05	1e-05	5
23041	6e-05	7e-05	6e-05	0.00021	0.00028	6e-05	2e-05	1e-05	5
23042	6e-05	7e-05	6e-05	0.00021	0.00028	6e-05	2e-05	1e-05	5
23043	6e-05	7e-05	6e-05	0.00021	0.00028	6e-05	2e-05	1e-05	5
23044	6e-05	7e-05	6e-05	0.00021	0.00028	6e-05	2e-05	1e-05	5
23045	6e-05	7e-05	6e-05	0.00021	0.00028	6e-05	2e-05	1e-05	5
23046	6e-05	7e-05	6e-05	0.00021	0.00028	6e-05	2e-05	1e-05	5
23047	6e-05	7e-05	6e-05	0.00021	0.00028	6e-05	2e-05	1e-05	5
23048	6e-05	7e-05	6e-05	0.00021	0.00028	6e-05	2e-05	1e-05	5
23049	6e-05	7e-05	6e-05	0.00021	0.00028	6e-05	2e-05	1e-05	5
23050	6e-05	7e-05	6e-05	0.00021	0.00028	6e-05	2e-05	1e-05	5
23051	6e-05	7e-05	6e-05	0.00021	0.00028	6e-05	2e-05	1e-05	5
23052	6e-05	7e-05	6e-05	0.00021	0.00028	6e-05	2e-05	1e-05	5
23053	6e-05	7e-05	6e-05	0.00021	0.00028	6e-05	2e-05	1e-05	5
23054	6e-05	7e-05	6e-05	0.00021	0.00028	6e-05	2e-05	1e-05	5
23055	6e-05	7e-05	6e-05	0.00021	0.00028	6e-05	2e-05	1e-05	5
23056	-6e-05	5e-05	-5e-05	-0.00012	0.00011	-3e-05	-1e-05	-1e-05	5
23057	-6e-05	5e-05	-5e-05	-0.00012	0.00011	-3e-05	-1e-05	-1e-05	5
23058	-4e-05	-6e-05	0	8e-05	7e-05	2e-05	-1e-05	-4e-05	5
23059	-4e-05	-6e-05	0	8e-05	7e-05	2e-05	-1e-05	-4e-05	5
23060	-4e-05	-6e-05	0	8e-05	7e-05	2e-05	-1e-05	-4e-05	5
23061	-4e-05	-6e-05	0	8e-05	7e-05	2e-05	-1e-05	-4e-05	5
23062	-4e-05	-6e-05	0	8e-05	7e-05	2e-05	-1e-05	-4e-05	5
23063	-4e-05	-6e-05	0	8e-05	7e-05	2e-05	-1e-05	-4e-05	5
23064	-4e-05	-6e-05	0	8e-05	7e-05	2e-05	-1e-05	-4e-05	5
23065	-4e-05	-6e-05	0	8e-05	7e-05	2e-05	-1e-05	-4e-05	5
23066	-4e-05	-6e-05	0	8e-05	7e-05	2e-05	-1e-05	-4e-05	5
23067	-4e-05	-6e-05	0	8e-05	7e-05	2e-05	-1e-05	-4e-05	5
23068	-4e-05	-6e-05	0	8e-05	7e-05	2e-05	-1e-05	-4e-05	5
23069	-4e-05	-6e-05	0	8e-05	7e-05	2e-05	-1e-05	-4e-05	5
23070	-4e-05	-6e-05	0	8e-05	7e-05	2e-05	-1e-05	-4e-05	5
23071	-6e-05	-0.00015	-7e-05	-0.00019	-8e-05	1e-05	1e-05	4e-05	5
23072	-6e-05	-0.00015	-7e-05	-0.00019	-8e-05	1e-05	1e-05	4e-05	5
23073	-6e-05	-0.00015	-7e-05	-0.00019	-8e-05	1e-05	1e-05	4e-05	5
23074	-6e-05	-0.00015	-7e-05	-0.00019	-8e-05	1e-05	1e-05	4e-05	5
23075	-6e-05	-0.00015	-7e-05	-0.00019	-8e-05	1e-05	1e-05	4e-05	5
23076	-6e-05	-0.00015	-7e-05	-0.00019	-8e-05	1e-05	1e-05	4e-05	5
23077	-0.0001	1e-05	-2e-05	-2e-05	-2e-05	-4e-05	-4e-05	-3e-05	5
23078	-0.0001	1e-05	-2e-05	-2e-05	-2e-05	-4e-05	-4e-05	-3e-05	5
23079	-0.0001	1e-05	-2e-05	-2e-05	-2e-05	-4e-05	-4e-05	-3e-05	5
23080	-0.0001	1e-05	-2e-05	-2e-05	-2e-05	-4e-05	-4e-05	-3e-05	5
23081	-0.0001	1e-05	-2e-05	-2e-05	-2e-05	-4e-05	-4e-05	-3e-05	5
23082	-0.0001	1e-05	-2e-05	-2e-05	-2e-05	-4e-05	-4e-05	-3e-05	5
23083	-0.0001	1e-05	-2e-05	-2e-05	-2e-05	-4e-05	-4e-05	-3e-05	5
23084	-0.0001	1e-05	-2e-05	-2e-05	-2e-05	-4e-05	-4e-05	-3e-05	5
23085	-0.0001	1e-05	-2e-05	-2e-05	-2e-05	-4e-05	-4e-05	-3e-05	5
23086	-0.0001	1e-05	-2e-05	-2e-05	-2e-05	-4e-05	-4e-05	-3e-05	5
23089	-0.0001	1e-05	-2e-05	-2e-05	-2e-05	-4e-05	-4e-05	-3e-05	5
23090	-0.0001	1e-05	-2e-05	-2e-05	-2e-05	-4e-05	-4e-05	-3e-05	5
23091	-0.0001	1e-05	-2e-05	-2e-05	-2e-05	-4e-05	-4e-05	-3e-05	5
23092	-0.0001	1e-05	-2e-05	-2e-05	-2e-05	-4e-05	-4e-05	-3e-05	5
23093	-0.0001	1e-05	-2e-05	-2e-05	-2e-05	-4e-05	-4e-05	-3e-05	5
23094	8e-05	8e-05	0.00014	0.00011	-0.0003	0	1e-05	-2e-05	5
23095	-0.00015	-0.00015	-0.00013	-0.00033	-0.00041	-8e-05	-3e-05	-3e-05	5
23096	-0.00015	-0.00015	-0.00013	-0.00033	-0.00041	-8e-05	-3e-05	-3e-05	5
23097	-0.00015	-0.00015	-0.00013	-0.00033	-0.00041	-8e-05	-3e-05	-3e-05	5
23098	-0.00015	-0.00015	-0.00013	-0.00033	-0.00041	-8e-05	-3e-05	-3e-05	5
23099	-0.00015	-0.00015	-0.00013	-0.00033	-0.00041	-8e-05	-3e-05	-3e-05	5
23100	-0.00015	-0.00015	-0.00013	-0.00033	-0.00041	-8e-05	-3e-05	-3e-05	5
23101	-0.00015	-0.00015	-0.00013	-0.00033	-0.00041	-8e-05	-3e-05	-3e-05	5
23102	-0.00015	-0.00015	-0.00013	-0.00033	-0.00041	-8e-05	-3e-05	-3e-05	5
23103	-0.00015	-0.00015	-0.00013	-0.00033	-0.00041	-8e-05	-3e-05	-3e-05	5
23104	-0.00015	-0.00015	-0.00013	-0.00033	-0.00041	-8e-05	-3e-05	-3e-05	5
23105	-0.00015	-0.00015	-0.00013	-0.00033	-0.00041	-8e-05	-3e-05	-3e-05	5
23106	-0.00015	-0.00015	-0.00013	-0.00033	-0.00041	-8e-05	-3e-05	-3e-05	5
23107	-0.00015	-0.00015	-0.00013	-0.00033	-0.00041	-8e-05	-3e-05	-3e-05	5
23108	-0.00015	-0.00015	-0.00013	-0.00033	-0.00041	-8e-05	-3e-05	-3e-05	5
23109	-0.00015	-0.00015	-0.00013	-0.00033	-0.00041	-8e-05	-3e-05	-3e-05	5
23110	-0.00015	-0.00015	-0.00013	-0.00033	-0.00041	-8e-05	-3e-05	-3e-05	5
23111	-0.00015	-0.00015	-0.00013	-0.00033	-0.00041	-8e-05	-3e-05	-3e-05	5
23112	-0.00015	-0.00015	-0.00013	-0.00033	-0.00041	-8e-05	-3e-05	-3e-05	5
23113	-0.00015	-0.00015	-0.00013	-0.00033	-0.00041	-8e-05	-3e-05	-3e-05	5
23114	-0.00015	-0.00015	-0.00013	-0.00033	-0.00041	-8e-05	-3e-05	-3e-05	5
23115	-0.00015	-0.00015	-0.00013	-0.00033	-0.00041	-8e-05	-3e-05	-3e-05	5
23116	4e-05	-1e-05	-2e-05	3e-05	-8e-05	6e-05	-1e-05	8e-05	5
23117	4e-05	-1e-05	-2e-05	3e-05	-8e-05	6e-05	-1e-05	8e-05	5
23118	1e-05	9e-05	4e-05	-0.00019	-0.00012	-4e-05	1e-05	0.00011	5
23119	1e-05	9e-05	4e-05	-0.00019	-0.00012	-4e-05	1e-05	0.00011	5
23120	1e-05	9e-05	4e-05	-0.00019	-0.00012	-4e-05	1e-05	0.00011	5
23121	1e-05	9e-05	4e-05	-0.00019	-0.00012	-4e-05	1e-05	0.00011	5
23122	1e-05	9e-05	4e-05	-0.00019	-0.00012	-4e-05	1e-05	0.00011	5
23123	1e-05	9e-05	4e-05	-0.00019	-0.00012	-4e-05	1e-05	0.00011	5
23124	1e-05	9e-05	4e-05	-0.00019	-0.00012	-4e-05	1e-05	0.00011	5
23125	1e-05	9e-05	4e-05	-0.00019	-0.00012	-4e-05	1e-05	0.00011	5
23126	1e-05	9e-05	4e-05	-0.00019	-0.00012	-4e-05	1e-05	0.00011	5
23127	1e-05	9e-05	4e-05	-0.00019	-0.00012	-4e-05	1e-05	0.00011	5
23128	1e-05	9e-05	4e-05	-0.00019	-0.00012	-4e-05	1e-05	0.00011	5
23129	1e-05	9e-05	4e-05	-0.00019	-0.00012	-4e-05	1e-05	0.00011	5
23130	0	-5e-05	8e-05	0.00053	-7e-05	0.0001	5e-05	1e-05	5
23131	0	-5e-05	8e-05	0.00053	-7e-05	0.0001	5e-05	1e-05	5
23132	0	-5e-05	8e-05	0.00053	-7e-05	0.0001	5e-05	1e-05	5
23133	0	-5e-05	8e-05	0.00053	-7e-05	0.0001	5e-05	1e-05	5
23134	0	-5e-05	8e-05	0.00053	-7e-05	0.0001	5e-05	1e-05	5
23135	0	-5e-05	8e-05	0.00053	-7e-05	0.0001	5e-05	1e-05	5
23136	0	-5e-05	8e-05	0.00053	-7e-05	0.0001	5e-05	1e-05	5
23139	4e-05	-8e-05	-8e-05	-4e-05	0.00011	1e-05	-2e-05	4e-05	5
23141	4e-05	-8e-05	-8e-05	-4e-05	0.00011	1e-05	-2e-05	4e-05	5
23142	4e-05	-8e-05	-8e-05	-4e-05	0.00011	1e-05	-2e-05	4e-05	5
23143	4e-05	-8e-05	-8e-05	-4e-05	0.00011	1e-05	-2e-05	4e-05	5
23144	4e-05	-8e-05	-8e-05	-4e-05	0.00011	1e-05	-2e-05	4e-05	5
23145	4e-05	-8e-05	-8e-05	-4e-05	0.00011	1e-05	-2e-05	4e-05	5
23146	4e-05	-8e-05	-8e-05	-4e-05	0.00011	1e-05	-2e-05	4e-05	5
23147	4e-05	-8e-05	-8e-05	-4e-05	0.00011	1e-05	-2e-05	4e-05	5
23148	4e-05	-8e-05	-8e-05	-4e-05	0.00011	1e-05	-2e-05	4e-05	5
23149	4e-05	-8e-05	-8e-05	-4e-05	0.00011	1e-05	-2e-05	4e-05	5
23150	4e-05	-8e-05	-8e-05	-4e-05	0.00011	1e-05	-2e-05	4e-05	5
23151	4e-05	-8e-05	-8e-05	-4e-05	0.00011	1e-05	-2e-05	4e-05	5
23152	4e-05	-8e-05	-8e-05	-4e-05	0.00011	1e-05	-2e-05	4e-05	5
23153	4e-05	-8e-05	-8e-05	-4e-05	0.00011	1e-05	-2e-05	4e-05	5
23154	7e-05	0	-4e-05	-2e-05	9e-05	-6e-05	-2e-05	1e-05	5
23155	-0.00011	1e-05	0	-0.00013	-0.00011	2e-05	-1e-05	3e-05	5
23156	-3e-05	-4e-05	0	0.00028	0.00023	7e-05	3e-05	1e-05	5
23157	-3e-05	-4e-05	0	0.00028	0.00023	7e-05	3e-05	1e-05	5
23158	-3e-05	-4e-05	0	0.00028	0.00023	7e-05	3e-05	1e-05	5
23159	-3e-05	-4e-05	0	0.00028	0.00023	7e-05	3e-05	1e-05	5
23160	-3e-05	-4e-05	0	0.00028	0.00023	7e-05	3e-05	1e-05	5
23161	-3e-05	-4e-05	0	0.00028	0.00023	7e-05	3e-05	1e-05	5
23162	-3e-05	-4e-05	0	0.00028	0.00023	7e-05	3e-05	1e-05	5
23163	-3e-05	-4e-05	0	0.00028	0.00023	7e-05	3e-05	1e-05	5
23164	-3e-05	-4e-05	0	0.00028	0.00023	7e-05	3e-05	1e-05	5
23165	-3e-05	-4e-05	0	0.00028	0.00023	7e-05	3e-05	1e-05	5
23166	-3e-05	-4e-05	0	0.00028	0.00023	7e-05	3e-05	1e-05	5
23167	-3e-05	-4e-05	0	0.00028	0.00023	7e-05	3e-05	1e-05	5
23168	-3e-05	-4e-05	0	0.00028	0.00023	7e-05	3e-05	1e-05	5
23169	-3e-05	-4e-05	0	0.00028	0.00023	7e-05	3e-05	1e-05	5
23170	-3e-05	-4e-05	0	0.00028	0.00023	7e-05	3e-05	1e-05	5
23171	-3e-05	-4e-05	0	0.00028	0.00023	7e-05	3e-05	1e-05	5
23172	-3e-05	-4e-05	0	0.00028	0.00023	7e-05	3e-05	1e-05	5
23173	-3e-05	-4e-05	0	0.00028	0.00023	7e-05	3e-05	1e-05	5
23174	-3e-05	-4e-05	0	0.00028	0.00023	7e-05	3e-05	1e-05	5
23175	-3e-05	-4e-05	0	0.00028	0.00023	7e-05	3e-05	1e-05	5
23176	-8e-05	0	5e-05	5e-05	0.00024	4e-05	0	-2e-05	5
23177	-8e-05	0	5e-05	5e-05	0.00024	4e-05	0	-2e-05	5
23178	0.00012	3e-05	-2e-05	-0.00011	-0.00015	-2e-05	-3e-05	2e-05	5
23179	0.00012	3e-05	-2e-05	-0.00011	-0.00015	-2e-05	-3e-05	2e-05	5
23180	0.00012	3e-05	-2e-05	-0.00011	-0.00015	-2e-05	-3e-05	2e-05	5
23181	0.00012	3e-05	-2e-05	-0.00011	-0.00015	-2e-05	-3e-05	2e-05	5
23182	0.00012	3e-05	-2e-05	-0.00011	-0.00015	-2e-05	-3e-05	2e-05	5
23183	0.00012	3e-05	-2e-05	-0.00011	-0.00015	-2e-05	-3e-05	2e-05	5
23184	0.00012	3e-05	-2e-05	-0.00011	-0.00015	-2e-05	-3e-05	2e-05	5
23185	0.00012	3e-05	-2e-05	-0.00011	-0.00015	-2e-05	-3e-05	2e-05	5
23186	0.00012	3e-05	-2e-05	-0.00011	-0.00015	-2e-05	-3e-05	2e-05	5
23188	0.00012	3e-05	-2e-05	-0.00011	-0.00015	-2e-05	-3e-05	2e-05	5
23190	0.00012	3e-05	-2e-05	-0.00011	-0.00015	-2e-05	-3e-05	2e-05	5
23191	6e-05	5e-05	0.00014	0.00028	0.00027	-2e-05	-3e-05	-5e-05	5
23192	6e-05	5e-05	0.00014	0.00028	0.00027	-2e-05	-3e-05	-5e-05	5
23193	6e-05	5e-05	0.00014	0.00028	0.00027	-2e-05	-3e-05	-5e-05	5
23194	6e-05	5e-05	0.00014	0.00028	0.00027	-2e-05	-3e-05	-5e-05	5
23195	6e-05	5e-05	0.00014	0.00028	0.00027	-2e-05	-3e-05	-5e-05	5
23196	6e-05	5e-05	0.00014	0.00028	0.00027	-2e-05	-3e-05	-5e-05	5
23197	6e-05	5e-05	0.00014	0.00028	0.00027	-2e-05	-3e-05	-5e-05	5
23198	6e-05	5e-05	0.00014	0.00028	0.00027	-2e-05	-3e-05	-5e-05	5
23199	-6e-05	-5e-05	-4e-05	0.00014	0.0001	0.0001	3e-05	-3e-05	5
23200	-6e-05	-5e-05	-4e-05	0.00014	0.0001	0.0001	3e-05	-3e-05	5
23201	-6e-05	-5e-05	-4e-05	0.00014	0.0001	0.0001	3e-05	-3e-05	5
23202	-6e-05	-5e-05	-4e-05	0.00014	0.0001	0.0001	3e-05	-3e-05	5
23203	-6e-05	-5e-05	-4e-05	0.00014	0.0001	0.0001	3e-05	-3e-05	5
23204	-6e-05	-5e-05	-4e-05	0.00014	0.0001	0.0001	3e-05	-3e-05	5
23205	-6e-05	-5e-05	-4e-05	0.00014	0.0001	0.0001	3e-05	-3e-05	5
23206	-6e-05	-5e-05	-4e-05	0.00014	0.0001	0.0001	3e-05	-3e-05	5
23207	-6e-05	-5e-05	-4e-05	0.00014	0.0001	0.0001	3e-05	-3e-05	5
23208	-6e-05	-5e-05	-4e-05	0.00014	0.0001	0.0001	3e-05	-3e-05	5
23209	-6e-05	-5e-05	-4e-05	0.00014	0.0001	0.0001	3e-05	-3e-05	5
23210	-6e-05	-5e-05	-4e-05	0.00014	0.0001	0.0001	3e-05	-3e-05	5
23211	-6e-05	-5e-05	-4e-05	0.00014	0.0001	0.0001	3e-05	-3e-05	5
23212	-6e-05	-5e-05	-4e-05	0.00014	0.0001	0.0001	3e-05	-3e-05	5
23213	-6e-05	-5e-05	-4e-05	0.00014	0.0001	0.0001	3e-05	-3e-05	5
23214	0	-2e-05	-9e-05	-0.00015	0.00014	-5e-05	-2e-05	-1e-05	5
23215	4e-05	-3e-05	2e-05	9e-05	0.00011	-7e-05	-4e-05	-3e-05	5
23216	4e-05	-3e-05	2e-05	9e-05	0.00011	-7e-05	-4e-05	-3e-05	5
23217	4e-05	-3e-05	2e-05	9e-05	0.00011	-7e-05	-4e-05	-3e-05	5
23218	4e-05	-3e-05	2e-05	9e-05	0.00011	-7e-05	-4e-05	-3e-05	5
23219	4e-05	-3e-05	2e-05	9e-05	0.00011	-7e-05	-4e-05	-3e-05	5
23220	4e-05	-3e-05	2e-05	9e-05	0.00011	-7e-05	-4e-05	-3e-05	5
23221	4e-05	-3e-05	2e-05	9e-05	0.00011	-7e-05	-4e-05	-3e-05	5
23222	4e-05	-3e-05	2e-05	9e-05	0.00011	-7e-05	-4e-05	-3e-05	5
23223	4e-05	-3e-05	2e-05	9e-05	0.00011	-7e-05	-4e-05	-3e-05	5
23224	4e-05	-3e-05	2e-05	9e-05	0.00011	-7e-05	-4e-05	-3e-05	5
23225	4e-05	-3e-05	2e-05	9e-05	0.00011	-7e-05	-4e-05	-3e-05	5
23226	4e-05	-3e-05	2e-05	9e-05	0.00011	-7e-05	-4e-05	-3e-05	5
23227	4e-05	-3e-05	2e-05	9e-05	0.00011	-7e-05	-4e-05	-3e-05	5
23228	4e-05	-3e-05	2e-05	9e-05	0.00011	-7e-05	-4e-05	-3e-05	5
23229	4e-05	-3e-05	2e-05	9e-05	0.00011	-7e-05	-4e-05	-3e-05	5
23230	4e-05	-3e-05	2e-05	9e-05	0.00011	-7e-05	-4e-05	-3e-05	5
23231	4e-05	-3e-05	2e-05	9e-05	0.00011	-7e-05	-4e-05	-3e-05	5
23232	4e-05	-3e-05	2e-05	9e-05	0.00011	-7e-05	-4e-05	-3e-05	5
23233	4e-05	-3e-05	2e-05	9e-05	0.00011	-7e-05	-4e-05	-3e-05	5
23234	4e-05	-3e-05	2e-05	9e-05	0.00011	-7e-05	-4e-05	-3e-05	5
23235	4e-05	-3e-05	2e-05	9e-05	0.00011	-7e-05	-4e-05	-3e-05	5
23236	-0.00014	-4e-05	-2e-05	-0.0001	0.00014	-2e-05	-1e-05	-5e-05	5
23239	0.00013	7e-05	0	-0.00014	-1e-05	-2e-05	2e-05	2e-05	5
23240	0.00013	7e-05	0	-0.00014	-1e-05	-2e-05	2e-05	2e-05	5
23241	0.00013	7e-05	0	-0.00014	-1e-05	-2e-05	2e-05	2e-05	5
23242	0.00013	7e-05	0	-0.00014	-1e-05	-2e-05	2e-05	2e-05	5
23243	0.00013	7e-05	0	-0.00014	-1e-05	-2e-05	2e-05	2e-05	5
23244	0.00013	7e-05	0	-0.00014	-1e-05	-2e-05	2e-05	2e-05	5
23245	0.00013	7e-05	0	-0.00014	-1e-05	-2e-05	2e-05	2e-05	5
23246	0.00013	7e-05	0	-0.00014	-1e-05	-2e-05	2e-05	2e-05	5
23247	0.00013	7e-05	0	-0.00014	-1e-05	-2e-05	2e-05	2e-05	5
23248	0.00013	7e-05	0	-0.00014	-1e-05	-2e-05	2e-05	2e-05	5
23249	0.00013	7e-05	0	-0.00014	-1e-05	-2e-05	2e-05	2e-05	5
23250	-0.00022	-6e-05	-5e-05	-3e-05	1e-05	-1e-05	-3e-05	-0.00011	5
23251	-0.00022	-6e-05	-5e-05	-3e-05	1e-05	-1e-05	-3e-05	-0.00011	5
23252	-0.00022	-6e-05	-5e-05	-3e-05	1e-05	-1e-05	-3e-05	-0.00011	5
23253	-0.00022	-6e-05	-5e-05	-3e-05	1e-05	-1e-05	-3e-05	-0.00011	5
23254	-0.00022	-6e-05	-5e-05	-3e-05	1e-05	-1e-05	-3e-05	-0.00011	5
23255	-0.00022	-6e-05	-5e-05	-3e-05	1e-05	-1e-05	-3e-05	-0.00011	5
23256	-0.00022	-6e-05	-5e-05	-3e-05	1e-05	-1e-05	-3e-05	-0.00011	5
23257	-0.00022	-6e-05	-5e-05	-3e-05	1e-05	-1e-05	-3e-05	-0.00011	5
23258	-0.00022	-6e-05	-5e-05	-3e-05	1e-05	-1e-05	-3e-05	-0.00011	5
23259	2e-05	1e-05	-3e-05	-5e-05	-5e-05	-6e-05	-1e-05	-1e-05	5
23260	2e-05	1e-05	-3e-05	-5e-05	-5e-05	-6e-05	-1e-05	-1e-05	5
23261	2e-05	1e-05	-3e-05	-5e-05	-5e-05	-6e-05	-1e-05	-1e-05	5
23262	2e-05	1e-05	-3e-05	-5e-05	-5e-05	-6e-05	-1e-05	-1e-05	5
23263	2e-05	1e-05	-3e-05	-5e-05	-5e-05	-6e-05	-1e-05	-1e-05	5
23264	2e-05	1e-05	-3e-05	-5e-05	-5e-05	-6e-05	-1e-05	-1e-05	5
23265	2e-05	1e-05	-3e-05	-5e-05	-5e-05	-6e-05	-1e-05	-1e-05	5
23266	2e-05	1e-05	-3e-05	-5e-05	-5e-05	-6e-05	-1e-05	-1e-05	5
23267	2e-05	1e-05	-3e-05	-5e-05	-5e-05	-6e-05	-1e-05	-1e-05	5
23268	2e-05	1e-05	-3e-05	-5e-05	-5e-05	-6e-05	-1e-05	-1e-05	5
23269	2e-05	1e-05	-3e-05	-5e-05	-5e-05	-6e-05	-1e-05	-1e-05	5
23270	2e-05	1e-05	-3e-05	-5e-05	-5e-05	-6e-05	-1e-05	-1e-05	5
23271	2e-05	1e-05	-3e-05	-5e-05	-5e-05	-6e-05	-1e-05	-1e-05	5
23272	2e-05	1e-05	-3e-05	-5e-05	-5e-05	-6e-05	-1e-05	-1e-05	5
23273	2e-05	1e-05	-3e-05	-5e-05	-5e-05	-6e-05	-1e-05	-1e-05	5
23274	7e-05	0	-8e-05	-0.00018	-0.00023	-6e-05	-3e-05	3e-05	5
23275	-5e-05	1e-05	5e-05	5e-05	6e-05	2e-05	-3e-05	-2e-05	5
23276	-5e-05	1e-05	5e-05	5e-05	6e-05	2e-05	-3e-05	-2e-05	5
23277	-5e-05	1e-05	5e-05	5e-05	6e-05	2e-05	-3e-05	-2e-05	5
23278	-5e-05	1e-05	5e-05	5e-05	6e-05	2e-05	-3e-05	-2e-05	5
23279	-5e-05	1e-05	5e-05	5e-05	6e-05	2e-05	-3e-05	-2e-05	5
23280	-5e-05	1e-05	5e-05	5e-05	6e-05	2e-05	-3e-05	-2e-05	5
23281	-5e-05	1e-05	5e-05	5e-05	6e-05	2e-05	-3e-05	-2e-05	5
23282	-5e-05	1e-05	5e-05	5e-05	6e-05	2e-05	-3e-05	-2e-05	5
23283	-5e-05	1e-05	5e-05	5e-05	6e-05	2e-05	-3e-05	-2e-05	5
23284	-5e-05	1e-05	5e-05	5e-05	6e-05	2e-05	-3e-05	-2e-05	5
23285	-5e-05	1e-05	5e-05	5e-05	6e-05	2e-05	-3e-05	-2e-05	5
23286	-5e-05	1e-05	5e-05	5e-05	6e-05	2e-05	-3e-05	-2e-05	5
23289	-5e-05	1e-05	5e-05	5e-05	6e-05	2e-05	-3e-05	-2e-05	5
23290	-5e-05	1e-05	5e-05	5e-05	6e-05	2e-05	-3e-05	-2e-05	5
23291	-5e-05	1e-05	5e-05	5e-05	6e-05	2e-05	-3e-05	-2e-05	5
23292	-5e-05	1e-05	5e-05	5e-05	6e-05	2e-05	-3e-05	-2e-05	5
23293	-5e-05	1e-05	5e-05	5e-05	6e-05	2e-05	-3e-05	-2e-05	5
23294	-5e-05	1e-05	5e-05	5e-05	6e-05	2e-05	-3e-05	-2e-05	5
23295	-5e-05	1e-05	5e-05	5e-05	6e-05	2e-05	-3e-05	-2e-05	5
23296	7e-05	1e-05	-1e-05	-0.00016	-0.00026	-7e-05	-3e-05	1e-05	5
23297	7e-05	1e-05	-1e-05	-0.00016	-0.00026	-7e-05	-3e-05	1e-05	5
23298	9e-05	0.00011	-1e-05	-0.00048	-0.00047	-7e-05	2e-05	4e-05	5
23299	9e-05	0.00011	-1e-05	-0.00048	-0.00047	-7e-05	2e-05	4e-05	5
23300	9e-05	0.00011	-1e-05	-0.00048	-0.00047	-7e-05	2e-05	4e-05	5
23301	9e-05	0.00011	-1e-05	-0.00048	-0.00047	-7e-05	2e-05	4e-05	5
23302	9e-05	0.00011	-1e-05	-0.00048	-0.00047	-7e-05	2e-05	4e-05	5
23303	9e-05	0.00011	-1e-05	-0.00048	-0.00047	-7e-05	2e-05	4e-05	5
23304	9e-05	0.00011	-1e-05	-0.00048	-0.00047	-7e-05	2e-05	4e-05	5
23305	9e-05	0.00011	-1e-05	-0.00048	-0.00047	-7e-05	2e-05	4e-05	5
23306	9e-05	0.00011	-1e-05	-0.00048	-0.00047	-7e-05	2e-05	4e-05	5
23307	9e-05	0.00011	-1e-05	-0.00048	-0.00047	-7e-05	2e-05	4e-05	5
23308	9e-05	0.00011	-1e-05	-0.00048	-0.00047	-7e-05	2e-05	4e-05	5
23309	9e-05	0.00011	-1e-05	-0.00048	-0.00047	-7e-05	2e-05	4e-05	5
23310	-5e-05	-0.0001	-6e-05	0.00024	0.00017	1e-05	-2e-05	-3e-05	5
23311	-5e-05	-0.0001	-6e-05	0.00024	0.00017	1e-05	-2e-05	-3e-05	5
23312	-5e-05	-0.0001	-6e-05	0.00024	0.00017	1e-05	-2e-05	-3e-05	5
23313	-5e-05	-0.0001	-6e-05	0.00024	0.00017	1e-05	-2e-05	-3e-05	5
23314	-5e-05	-0.0001	-6e-05	0.00024	0.00017	1e-05	-2e-05	-3e-05	5
23315	-5e-05	-0.0001	-6e-05	0.00024	0.00017	1e-05	-2e-05	-3e-05	5
23316	-5e-05	-0.0001	-6e-05	0.00024	0.00017	1e-05	-2e-05	-3e-05	5
23317	-5e-05	-0.0001	-6e-05	0.00024	0.00017	1e-05	-2e-05	-3e-05	5
23318	-5e-05	-0.0001	-6e-05	0.00024	0.00017	1e-05	-2e-05	-3e-05	5
23319	1e-05	0	-1e-05	-0.00043	-0.00014	-2e-05	-5e-05	-5e-05	5
23320	1e-05	0	-1e-05	-0.00043	-0.00014	-2e-05	-5e-05	-5e-05	5
23321	1e-05	0	-1e-05	-0.00043	-0.00014	-2e-05	-5e-05	-5e-05	5
23322	1e-05	0	-1e-05	-0.00043	-0.00014	-2e-05	-5e-05	-5e-05	5
23323	1e-05	0	-1e-05	-0.00043	-0.00014	-2e-05	-5e-05	-5e-05	5
23324	1e-05	0	-1e-05	-0.00043	-0.00014	-2e-05	-5e-05	-5e-05	5
23325	1e-05	0	-1e-05	-0.00043	-0.00014	-2e-05	-5e-05	-5e-05	5
23326	1e-05	0	-1e-05	-0.00043	-0.00014	-2e-05	-5e-05	-5e-05	5
23327	1e-05	0	-1e-05	-0.00043	-0.00014	-2e-05	-5e-05	-5e-05	5
23328	1e-05	0	-1e-05	-0.00043	-0.00014	-2e-05	-5e-05	-5e-05	5
23329	1e-05	0	-1e-05	-0.00043	-0.00014	-2e-05	-5e-05	-5e-05	5
23330	1e-05	0	-1e-05	-0.00043	-0.00014	-2e-05	-5e-05	-5e-05	5
23331	1e-05	0	-1e-05	-0.00043	-0.00014	-2e-05	-5e-05	-5e-05	5
23332	1e-05	0	-1e-05	-0.00043	-0.00014	-2e-05	-5e-05	-5e-05	5
23333	1e-05	0	-1e-05	-0.00043	-0.00014	-2e-05	-5e-05	-5e-05	5
23334	0.00018	6e-05	2e-05	-0.00028	-0.00026	8e-05	3e-05	2e-05	5
23335	0.00018	6e-05	2e-05	-0.00028	-0.00026	8e-05	3e-05	2e-05	5
23336	-2e-05	-9e-05	-0.00011	-9e-05	-0.00012	-3e-05	-2e-05	-2e-05	5
23338	-2e-05	-9e-05	-0.00011	-9e-05	-0.00012	-3e-05	-2e-05	-2e-05	5
23340	-2e-05	-9e-05	-0.00011	-9e-05	-0.00012	-3e-05	-2e-05	-2e-05	5
23341	-2e-05	-9e-05	-0.00011	-9e-05	-0.00012	-3e-05	-2e-05	-2e-05	5
23342	-2e-05	-9e-05	-0.00011	-9e-05	-0.00012	-3e-05	-2e-05	-2e-05	5
23343	-2e-05	-9e-05	-0.00011	-9e-05	-0.00012	-3e-05	-2e-05	-2e-05	5
23344	-2e-05	-9e-05	-0.00011	-9e-05	-0.00012	-3e-05	-2e-05	-2e-05	5
23345	-2e-05	-9e-05	-0.00011	-9e-05	-0.00012	-3e-05	-2e-05	-2e-05	5
23346	-2e-05	-9e-05	-0.00011	-9e-05	-0.00012	-3e-05	-2e-05	-2e-05	5
23347	-2e-05	-9e-05	-0.00011	-9e-05	-0.00012	-3e-05	-2e-05	-2e-05	5
23348	-2e-05	-9e-05	-0.00011	-9e-05	-0.00012	-3e-05	-2e-05	-2e-05	5
23349	-2e-05	-9e-05	-0.00011	-9e-05	-0.00012	-3e-05	-2e-05	-2e-05	5
23350	-2e-05	-9e-05	-0.00011	-9e-05	-0.00012	-3e-05	-2e-05	-2e-05	5
23351	-2e-05	-9e-05	-0.00011	-9e-05	-0.00012	-3e-05	-2e-05	-2e-05	5
23352	-2e-05	-9e-05	-0.00011	-9e-05	-0.00012	-3e-05	-2e-05	-2e-05	5
23353	-2e-05	-9e-05	-0.00011	-9e-05	-0.00012	-3e-05	-2e-05	-2e-05	5
23354	-2e-05	-9e-05	-0.00011	-9e-05	-0.00012	-3e-05	-2e-05	-2e-05	5
23355	-2e-05	-9e-05	-0.00011	-9e-05	-0.00012	-3e-05	-2e-05	-2e-05	5
23356	9e-05	2e-05	2e-05	6e-05	0.00012	0	-1e-05	-1e-05	5
23357	9e-05	2e-05	2e-05	6e-05	0.00012	0	-1e-05	-1e-05	5
23358	-3e-05	0	-2e-05	0.00013	-1e-05	3e-05	-1e-05	0	5
23359	-3e-05	0	-2e-05	0.00013	-1e-05	3e-05	-1e-05	0	5
23360	-3e-05	0	-2e-05	0.00013	-1e-05	3e-05	-1e-05	0	5
23361	-3e-05	0	-2e-05	0.00013	-1e-05	3e-05	-1e-05	0	5
23362	-3e-05	0	-2e-05	0.00013	-1e-05	3e-05	-1e-05	0	5
23363	-3e-05	0	-2e-05	0.00013	-1e-05	3e-05	-1e-05	0	5
23364	-3e-05	0	-2e-05	0.00013	-1e-05	3e-05	-1e-05	0	5
23365	-3e-05	0	-2e-05	0.00013	-1e-05	3e-05	-1e-05	0	5
23366	-3e-05	0	-2e-05	0.00013	-1e-05	3e-05	-1e-05	0	5
23367	-3e-05	0	-2e-05	0.00013	-1e-05	3e-05	-1e-05	0	5
23368	-3e-05	0	-2e-05	0.00013	-1e-05	3e-05	-1e-05	0	5
23369	-3e-05	0	-2e-05	0.00013	-1e-05	3e-05	-1e-05	0	5
23370	-7e-05	-5e-05	-6e-05	-0.00035	-0.00013	-6e-05	-2e-05	-4e-05	5
23371	-7e-05	-5e-05	-6e-05	-0.00035	-0.00013	-6e-05	-2e-05	-4e-05	5
23372	-7e-05	-5e-05	-6e-05	-0.00035	-0.00013	-6e-05	-2e-05	-4e-05	5
23373	-7e-05	-5e-05	-6e-05	-0.00035	-0.00013	-6e-05	-2e-05	-4e-05	5
23374	-7e-05	-5e-05	-6e-05	-0.00035	-0.00013	-6e-05	-2e-05	-4e-05	5
23375	-7e-05	-5e-05	-6e-05	-0.00035	-0.00013	-6e-05	-2e-05	-4e-05	5
23376	-7e-05	-5e-05	-6e-05	-0.00035	-0.00013	-6e-05	-2e-05	-4e-05	5
23377	-7e-05	-5e-05	-6e-05	-0.00035	-0.00013	-6e-05	-2e-05	-4e-05	5
23378	-7e-05	-5e-05	-6e-05	-0.00035	-0.00013	-6e-05	-2e-05	-4e-05	5
23379	-7e-05	-5e-05	-0.00015	-0.00018	8e-05	2e-05	2e-05	-6e-05	5
23380	-7e-05	-5e-05	-0.00015	-0.00018	8e-05	2e-05	2e-05	-6e-05	5
23381	-7e-05	-5e-05	-0.00015	-0.00018	8e-05	2e-05	2e-05	-6e-05	5
23382	-7e-05	-5e-05	-0.00015	-0.00018	8e-05	2e-05	2e-05	-6e-05	5
23383	-7e-05	-5e-05	-0.00015	-0.00018	8e-05	2e-05	2e-05	-6e-05	5
23384	-7e-05	-5e-05	-0.00015	-0.00018	8e-05	2e-05	2e-05	-6e-05	5
23385	-7e-05	-5e-05	-0.00015	-0.00018	8e-05	2e-05	2e-05	-6e-05	5
23386	-7e-05	-5e-05	-0.00015	-0.00018	8e-05	2e-05	2e-05	-6e-05	5
23389	-7e-05	-5e-05	-0.00015	-0.00018	8e-05	2e-05	2e-05	-6e-05	5
23390	-7e-05	-5e-05	-0.00015	-0.00018	8e-05	2e-05	2e-05	-6e-05	5
23391	-7e-05	-5e-05	-0.00015	-0.00018	8e-05	2e-05	2e-05	-6e-05	5
23392	-7e-05	-5e-05	-0.00015	-0.00018	8e-05	2e-05	2e-05	-6e-05	5
23393	-7e-05	-5e-05	-0.00015	-0.00018	8e-05	2e-05	2e-05	-6e-05	5
23394	-0.0001	-1e-05	0	0.0001	-0.00023	-6e-05	-3e-05	-1e-05	5
23395	-6e-05	-8e-05	-4e-05	0.00036	0.00015	1e-05	0	-2e-05	5
23396	-6e-05	-8e-05	-4e-05	0.00036	0.00015	1e-05	0	-2e-05	5
23397	-6e-05	-8e-05	-4e-05	0.00036	0.00015	1e-05	0	-2e-05	5
23398	-6e-05	-8e-05	-4e-05	0.00036	0.00015	1e-05	0	-2e-05	5
23399	-6e-05	-8e-05	-4e-05	0.00036	0.00015	1e-05	0	-2e-05	5
23400	-6e-05	-8e-05	-4e-05	0.00036	0.00015	1e-05	0	-2e-05	5
23401	-6e-05	-8e-05	-4e-05	0.00036	0.00015	1e-05	0	-2e-05	5
23402	-6e-05	-8e-05	-4e-05	0.00036	0.00015	1e-05	0	-2e-05	5
23403	-6e-05	-8e-05	-4e-05	0.00036	0.00015	1e-05	0	-2e-05	5
23404	-6e-05	-8e-05	-4e-05	0.00036	0.00015	1e-05	0	-2e-05	5
23405	-6e-05	-8e-05	-4e-05	0.00036	0.00015	1e-05	0	-2e-05	5
23406	-6e-05	-8e-05	-4e-05	0.00036	0.00015	1e-05	0	-2e-05	5
23407	-6e-05	-8e-05	-4e-05	0.00036	0.00015	1e-05	0	-2e-05	5
23408	-6e-05	-8e-05	-4e-05	0.00036	0.00015	1e-05	0	-2e-05	5
23409	-6e-05	-8e-05	-4e-05	0.00036	0.00015	1e-05	0	-2e-05	5
23410	-6e-05	-8e-05	-4e-05	0.00036	0.00015	1e-05	0	-2e-05	5
23411	-6e-05	-8e-05	-4e-05	0.00036	0.00015	1e-05	0	-2e-05	5
23412	-6e-05	-8e-05	-4e-05	0.00036	0.00015	1e-05	0	-2e-05	5
23413	-6e-05	-8e-05	-4e-05	0.00036	0.00015	1e-05	0	-2e-05	5
23414	-6e-05	-8e-05	-4e-05	0.00036	0.00015	1e-05	0	-2e-05	5
23415	3e-05	0	-4e-05	-0.00017	-0.00013	-7e-05	-2e-05	0	5
23416	3e-05	0	-4e-05	-0.00017	-0.00013	-7e-05	-2e-05	0	5
23417	3e-05	0	-4e-05	-0.00017	-0.00013	-7e-05	-2e-05	0	5
23418	3e-05	0	-4e-05	-0.00017	-0.00013	-7e-05	-2e-05	0	5
23419	3e-05	0	-4e-05	-0.00017	-0.00013	-7e-05	-2e-05	0	5
23420	3e-05	0	-4e-05	-0.00017	-0.00013	-7e-05	-2e-05	0	5
23421	3e-05	0	-4e-05	-0.00017	-0.00013	-7e-05	-2e-05	0	5
23422	3e-05	0	-4e-05	-0.00017	-0.00013	-7e-05	-2e-05	0	5
23423	0.0001	0.0001	6e-05	0	0.00017	2e-05	2e-05	2e-05	5
23424	-0.0001	-7e-05	4e-05	0.00011	-0.00011	-2e-05	2e-05	1e-05	5
23425	-0.0001	-7e-05	4e-05	0.00011	-0.00011	-2e-05	2e-05	1e-05	5
23426	-0.0001	-7e-05	4e-05	0.00011	-0.00011	-2e-05	2e-05	1e-05	5
23427	-0.0001	-7e-05	4e-05	0.00011	-0.00011	-2e-05	2e-05	1e-05	5
23428	-0.0001	-7e-05	4e-05	0.00011	-0.00011	-2e-05	2e-05	1e-05	5
23430	1e-05	1e-05	7e-05	-8e-05	-0.0001	2e-05	0	0	5
23431	1e-05	1e-05	7e-05	-8e-05	-0.0001	2e-05	0	0	5
23432	1e-05	1e-05	7e-05	-8e-05	-0.0001	2e-05	0	0	5
23433	1e-05	1e-05	7e-05	-8e-05	-0.0001	2e-05	0	0	5
23434	1e-05	1e-05	7e-05	-8e-05	-0.0001	2e-05	0	0	5
23435	1e-05	1e-05	7e-05	-8e-05	-0.0001	2e-05	0	0	5
23436	1e-05	1e-05	7e-05	-8e-05	-0.0001	2e-05	0	0	5
23439	3e-05	2e-05	-4e-05	0.0001	0.00018	-4e-05	-4e-05	-7e-05	5
23440	3e-05	2e-05	-4e-05	0.0001	0.00018	-4e-05	-4e-05	-7e-05	5
23441	3e-05	2e-05	-4e-05	0.0001	0.00018	-4e-05	-4e-05	-7e-05	5
23442	3e-05	2e-05	-4e-05	0.0001	0.00018	-4e-05	-4e-05	-7e-05	5
23443	3e-05	2e-05	-4e-05	0.0001	0.00018	-4e-05	-4e-05	-7e-05	5
23444	3e-05	2e-05	-4e-05	0.0001	0.00018	-4e-05	-4e-05	-7e-05	5
23445	3e-05	2e-05	-4e-05	0.0001	0.00018	-4e-05	-4e-05	-7e-05	5
23446	3e-05	2e-05	-4e-05	0.0001	0.00018	-4e-05	-4e-05	-7e-05	5
23447	3e-05	2e-05	-4e-05	0.0001	0.00018	-4e-05	-4e-05	-7e-05	5
23448	3e-05	2e-05	-4e-05	0.0001	0.00018	-4e-05	-4e-05	-7e-05	5
23449	3e-05	2e-05	-4e-05	0.0001	0.00018	-4e-05	-4e-05	-7e-05	5
23450	3e-05	2e-05	-4e-05	0.0001	0.00018	-4e-05	-4e-05	-7e-05	5
23451	3e-05	2e-05	-4e-05	0.0001	0.00018	-4e-05	-4e-05	-7e-05	5
23452	3e-05	2e-05	-4e-05	0.0001	0.00018	-4e-05	-4e-05	-7e-05	5
23453	3e-05	2e-05	-4e-05	0.0001	0.00018	-4e-05	-4e-05	-7e-05	5
23454	-3e-05	-2e-05	-0.00014	0.0002	0.0006	-5e-05	-6e-05	2e-05	5
23455	1e-05	-4e-05	6e-05	9e-05	-4e-05	0	-2e-05	-8e-05	5
23456	1e-05	-4e-05	6e-05	9e-05	-4e-05	0	-2e-05	-8e-05	5
23457	1e-05	-4e-05	6e-05	9e-05	-4e-05	0	-2e-05	-8e-05	5
23458	1e-05	-4e-05	6e-05	9e-05	-4e-05	0	-2e-05	-8e-05	5
23459	1e-05	-4e-05	6e-05	9e-05	-4e-05	0	-2e-05	-8e-05	5
23460	1e-05	-4e-05	6e-05	9e-05	-4e-05	0	-2e-05	-8e-05	5
23461	1e-05	-4e-05	6e-05	9e-05	-4e-05	0	-2e-05	-8e-05	5
23462	1e-05	-4e-05	6e-05	9e-05	-4e-05	0	-2e-05	-8e-05	5
23463	1e-05	-4e-05	6e-05	9e-05	-4e-05	0	-2e-05	-8e-05	5
23464	1e-05	-4e-05	6e-05	9e-05	-4e-05	0	-2e-05	-8e-05	5
23465	1e-05	-4e-05	6e-05	9e-05	-4e-05	0	-2e-05	-8e-05	5
23466	1e-05	-4e-05	6e-05	9e-05	-4e-05	0	-2e-05	-8e-05	5
23467	1e-05	-4e-05	6e-05	9e-05	-4e-05	0	-2e-05	-8e-05	5
23468	1e-05	-4e-05	6e-05	9e-05	-4e-05	0	-2e-05	-8e-05	5
23469	1e-05	-4e-05	6e-05	9e-05	-4e-05	0	-2e-05	-8e-05	5
23470	1e-05	-4e-05	6e-05	9e-05	-4e-05	0	-2e-05	-8e-05	5
23471	1e-05	-4e-05	6e-05	9e-05	-4e-05	0	-2e-05	-8e-05	5
23472	1e-05	-4e-05	6e-05	9e-05	-4e-05	0	-2e-05	-8e-05	5
23473	1e-05	-4e-05	6e-05	9e-05	-4e-05	0	-2e-05	-8e-05	5
23474	1e-05	-4e-05	6e-05	9e-05	-4e-05	0	-2e-05	-8e-05	5
23475	1e-05	-4e-05	6e-05	9e-05	-4e-05	0	-2e-05	-8e-05	5
23476	-7e-05	1e-05	5e-05	1e-05	4e-05	2e-05	4e-05	1e-05	5
23477	0.0001	2e-05	-1e-05	0.00023	-7e-05	-3e-05	-2e-05	-3e-05	5
23478	3e-05	2e-05	4e-05	1e-05	6e-05	-2e-05	-1e-05	5e-05	5
23479	3e-05	2e-05	4e-05	1e-05	6e-05	-2e-05	-1e-05	5e-05	5
23480	3e-05	2e-05	4e-05	1e-05	6e-05	-2e-05	-1e-05	5e-05	5
23481	3e-05	2e-05	4e-05	1e-05	6e-05	-2e-05	-1e-05	5e-05	5
23482	3e-05	2e-05	4e-05	1e-05	6e-05	-2e-05	-1e-05	5e-05	5
23483	3e-05	2e-05	4e-05	1e-05	6e-05	-2e-05	-1e-05	5e-05	5
23484	3e-05	2e-05	4e-05	1e-05	6e-05	-2e-05	-1e-05	5e-05	5
23485	3e-05	2e-05	4e-05	1e-05	6e-05	-2e-05	-1e-05	5e-05	5
23486	3e-05	2e-05	4e-05	1e-05	6e-05	-2e-05	-1e-05	5e-05	5
23489	3e-05	2e-05	4e-05	1e-05	6e-05	-2e-05	-1e-05	5e-05	5
23490	3e-05	2e-05	4e-05	1e-05	6e-05	-2e-05	-1e-05	5e-05	5
23491	-5e-05	-2e-05	8e-05	4e-05	-0.00013	1e-05	3e-05	-3e-05	5
23492	-5e-05	-2e-05	8e-05	4e-05	-0.00013	1e-05	3e-05	-3e-05	5
23493	-5e-05	-2e-05	8e-05	4e-05	-0.00013	1e-05	3e-05	-3e-05	5
23494	-5e-05	-2e-05	8e-05	4e-05	-0.00013	1e-05	3e-05	-3e-05	5
23495	-5e-05	-2e-05	8e-05	4e-05	-0.00013	1e-05	3e-05	-3e-05	5
23496	-5e-05	-2e-05	8e-05	4e-05	-0.00013	1e-05	3e-05	-3e-05	5
23497	-5e-05	-2e-05	8e-05	4e-05	-0.00013	1e-05	3e-05	-3e-05	5
23498	-5e-05	-2e-05	8e-05	4e-05	-0.00013	1e-05	3e-05	-3e-05	5
23499	2e-05	3e-05	-1e-05	-0.0001	-4e-05	4e-05	1e-05	0	5
23500	2e-05	3e-05	-1e-05	-0.0001	-4e-05	4e-05	1e-05	0	5
23501	2e-05	3e-05	-1e-05	-0.0001	-4e-05	4e-05	1e-05	0	5
23502	2e-05	3e-05	-1e-05	-0.0001	-4e-05	4e-05	1e-05	0	5
23503	2e-05	3e-05	-1e-05	-0.0001	-4e-05	4e-05	1e-05	0	5
23504	2e-05	3e-05	-1e-05	-0.0001	-4e-05	4e-05	1e-05	0	5
23505	2e-05	3e-05	-1e-05	-0.0001	-4e-05	4e-05	1e-05	0	5
23506	2e-05	3e-05	-1e-05	-0.0001	-4e-05	4e-05	1e-05	0	5
23507	2e-05	3e-05	-1e-05	-0.0001	-4e-05	4e-05	1e-05	0	5
23508	2e-05	3e-05	-1e-05	-0.0001	-4e-05	4e-05	1e-05	0	5
23509	2e-05	3e-05	-1e-05	-0.0001	-4e-05	4e-05	1e-05	0	5
23510	2e-05	3e-05	-1e-05	-0.0001	-4e-05	4e-05	1e-05	0	5
23511	2e-05	3e-05	-1e-05	-0.0001	-4e-05	4e-05	1e-05	0	5
23512	2e-05	3e-05	-1e-05	-0.0001	-4e-05	4e-05	1e-05	0	5
23513	2e-05	3e-05	-1e-05	-0.0001	-4e-05	4e-05	1e-05	0	5
23514	0	-1e-05	-6e-05	-8e-05	-6e-05	-3e-05	2e-05	4e-05	5
23515	-9e-05	-9e-05	-5e-05	-1e-05	4e-05	-6e-05	-4e-05	1e-05	5
23516	-9e-05	-9e-05	-5e-05	-1e-05	4e-05	-6e-05	-4e-05	1e-05	5
23517	-9e-05	-9e-05	-5e-05	-1e-05	4e-05	-6e-05	-4e-05	1e-05	5
23518	-9e-05	-9e-05	-5e-05	-1e-05	4e-05	-6e-05	-4e-05	1e-05	5
23519	-9e-05	-9e-05	-5e-05	-1e-05	4e-05	-6e-05	-4e-05	1e-05	5
23520	-9e-05	-9e-05	-5e-05	-1e-05	4e-05	-6e-05	-4e-05	1e-05	5
23521	-9e-05	-9e-05	-5e-05	-1e-05	4e-05	-6e-05	-4e-05	1e-05	5
23522	-9e-05	-9e-05	-5e-05	-1e-05	4e-05	-6e-05	-4e-05	1e-05	5
23523	-9e-05	-9e-05	-5e-05	-1e-05	4e-05	-6e-05	-4e-05	1e-05	5
23524	-9e-05	-9e-05	-5e-05	-1e-05	4e-05	-6e-05	-4e-05	1e-05	5
23525	-9e-05	-9e-05	-5e-05	-1e-05	4e-05	-6e-05	-4e-05	1e-05	5
23526	-9e-05	-9e-05	-5e-05	-1e-05	4e-05	-6e-05	-4e-05	1e-05	5
23527	-9e-05	-9e-05	-5e-05	-1e-05	4e-05	-6e-05	-4e-05	1e-05	5
23528	-9e-05	-9e-05	-5e-05	-1e-05	4e-05	-6e-05	-4e-05	1e-05	5
23529	-9e-05	-9e-05	-5e-05	-1e-05	4e-05	-6e-05	-4e-05	1e-05	5
23530	-9e-05	-9e-05	-5e-05	-1e-05	4e-05	-6e-05	-4e-05	1e-05	5
23531	-9e-05	-9e-05	-5e-05	-1e-05	4e-05	-6e-05	-4e-05	1e-05	5
23532	-9e-05	-9e-05	-5e-05	-1e-05	4e-05	-6e-05	-4e-05	1e-05	5
23533	-9e-05	-9e-05	-5e-05	-1e-05	4e-05	-6e-05	-4e-05	1e-05	5
23534	-9e-05	-9e-05	-5e-05	-1e-05	4e-05	-6e-05	-4e-05	1e-05	5
23535	-9e-05	-9e-05	-5e-05	-1e-05	4e-05	-6e-05	-4e-05	1e-05	5
23536	6e-05	-2e-05	-1e-05	3e-05	-4e-05	1e-05	1e-05	-2e-05	5
23538	6e-05	-2e-05	-1e-05	3e-05	-4e-05	1e-05	1e-05	-2e-05	5
23540	6e-05	-2e-05	-1e-05	3e-05	-4e-05	1e-05	1e-05	-2e-05	5
23541	6e-05	-2e-05	-1e-05	3e-05	-4e-05	1e-05	1e-05	-2e-05	5
23542	4e-05	3e-05	4e-05	2e-05	-7e-05	-7e-05	-4e-05	-5e-05	5
23543	2e-05	-1e-05	-0.00011	-0.00013	-0.0001	-4e-05	-2e-05	2e-05	5
23544	2e-05	-1e-05	-0.00011	-0.00013	-0.0001	-4e-05	-2e-05	2e-05	5
23545	2e-05	-1e-05	-0.00011	-0.00013	-0.0001	-4e-05	-2e-05	2e-05	5
23546	2e-05	-1e-05	-0.00011	-0.00013	-0.0001	-4e-05	-2e-05	2e-05	5
23547	2e-05	-1e-05	-0.00011	-0.00013	-0.0001	-4e-05	-2e-05	2e-05	5
23548	2e-05	-1e-05	-0.00011	-0.00013	-0.0001	-4e-05	-2e-05	2e-05	5
23549	2e-05	-1e-05	-0.00011	-0.00013	-0.0001	-4e-05	-2e-05	2e-05	5
23550	2e-05	-1e-05	-0.00011	-0.00013	-0.0001	-4e-05	-2e-05	2e-05	5
23551	2e-05	-1e-05	-0.00011	-0.00013	-0.0001	-4e-05	-2e-05	2e-05	5
23552	2e-05	-1e-05	-0.00011	-0.00013	-0.0001	-4e-05	-2e-05	2e-05	5
23553	2e-05	-1e-05	-0.00011	-0.00013	-0.0001	-4e-05	-2e-05	2e-05	5
23554	2e-05	-1e-05	-0.00011	-0.00013	-0.0001	-4e-05	-2e-05	2e-05	5
23555	2e-05	-1e-05	-0.00011	-0.00013	-0.0001	-4e-05	-2e-05	2e-05	5
23556	2e-05	-1e-05	-0.00011	-0.00013	-0.0001	-4e-05	-2e-05	2e-05	5
23557	2e-05	-1e-05	-0.00011	-0.00013	-0.0001	-4e-05	-2e-05	2e-05	5
23558	2e-05	-1e-05	-0.00011	-0.00013	-0.0001	-4e-05	-2e-05	2e-05	5
23559	-1e-05	-3e-05	0	0.00011	4e-05	9e-05	0	-4e-05	5
23560	7e-05	6e-05	6e-05	0.00016	-1e-05	1e-05	3e-05	2e-05	5
23561	7e-05	6e-05	6e-05	0.00016	-1e-05	1e-05	3e-05	2e-05	5
23562	7e-05	6e-05	6e-05	0.00016	-1e-05	1e-05	3e-05	2e-05	5
23563	7e-05	6e-05	6e-05	0.00016	-1e-05	1e-05	3e-05	2e-05	5
23564	7e-05	6e-05	6e-05	0.00016	-1e-05	1e-05	3e-05	2e-05	5
23565	7e-05	6e-05	6e-05	0.00016	-1e-05	1e-05	3e-05	2e-05	5
23566	7e-05	6e-05	6e-05	0.00016	-1e-05	1e-05	3e-05	2e-05	5
23567	7e-05	6e-05	6e-05	0.00016	-1e-05	1e-05	3e-05	2e-05	5
23568	7e-05	6e-05	6e-05	0.00016	-1e-05	1e-05	3e-05	2e-05	5
23570	7e-05	6e-05	6e-05	0.00016	-1e-05	1e-05	3e-05	2e-05	5
23571	7e-05	6e-05	6e-05	0.00016	-1e-05	1e-05	3e-05	2e-05	5
23572	7e-05	6e-05	6e-05	0.00016	-1e-05	1e-05	3e-05	2e-05	5
23573	7e-05	6e-05	6e-05	0.00016	-1e-05	1e-05	3e-05	2e-05	5
23574	-4e-05	-1e-05	3e-05	-8e-05	0.00017	-5e-05	-4e-05	-5e-05	5
23575	-0.00019	-5e-05	8e-05	0.00012	0.00011	8e-05	0	-4e-05	5
23576	-0.00019	-5e-05	8e-05	0.00012	0.00011	8e-05	0	-4e-05	5
23577	-0.00019	-5e-05	8e-05	0.00012	0.00011	8e-05	0	-4e-05	5
23578	-0.00019	-5e-05	8e-05	0.00012	0.00011	8e-05	0	-4e-05	5
23579	-0.00019	-5e-05	8e-05	0.00012	0.00011	8e-05	0	-4e-05	5
23580	-0.00019	-5e-05	8e-05	0.00012	0.00011	8e-05	0	-4e-05	5
23581	-0.00019	-5e-05	8e-05	0.00012	0.00011	8e-05	0	-4e-05	5
23582	-0.00019	-5e-05	8e-05	0.00012	0.00011	8e-05	0	-4e-05	5
23583	-0.00019	-5e-05	8e-05	0.00012	0.00011	8e-05	0	-4e-05	5
23584	-0.00019	-5e-05	8e-05	0.00012	0.00011	8e-05	0	-4e-05	5
23585	-0.00019	-5e-05	8e-05	0.00012	0.00011	8e-05	0	-4e-05	5
23586	-0.00019	-5e-05	8e-05	0.00012	0.00011	8e-05	0	-4e-05	5
23588	-0.00019	-5e-05	8e-05	0.00012	0.00011	8e-05	0	-4e-05	5
23589	-0.00019	-5e-05	8e-05	0.00012	0.00011	8e-05	0	-4e-05	5
23590	-0.00019	-5e-05	8e-05	0.00012	0.00011	8e-05	0	-4e-05	5
23591	-0.00019	-5e-05	8e-05	0.00012	0.00011	8e-05	0	-4e-05	5
23592	-0.00019	-5e-05	8e-05	0.00012	0.00011	8e-05	0	-4e-05	5
23593	-0.00019	-5e-05	8e-05	0.00012	0.00011	8e-05	0	-4e-05	5
23594	-0.00019	-5e-05	8e-05	0.00012	0.00011	8e-05	0	-4e-05	5
23595	-0.00019	-5e-05	8e-05	0.00012	0.00011	8e-05	0	-4e-05	5
23596	-8e-05	-3e-05	0	-5e-05	0.00017	2e-05	0	-1e-05	5
23597	0.0001	1e-05	-0.00015	-2e-05	-0.00016	-9e-05	-4e-05	0	5
23598	-0.00016	-3e-05	-1e-05	-0.00027	-6e-05	-3e-05	1e-05	-3e-05	5
23599	-0.00016	-3e-05	-1e-05	-0.00027	-6e-05	-3e-05	1e-05	-3e-05	5
23600	-0.00016	-3e-05	-1e-05	-0.00027	-6e-05	-3e-05	1e-05	-3e-05	5
23601	-0.00016	-3e-05	-1e-05	-0.00027	-6e-05	-3e-05	1e-05	-3e-05	5
23602	-0.00016	-3e-05	-1e-05	-0.00027	-6e-05	-3e-05	1e-05	-3e-05	5
23603	-0.00016	-3e-05	-1e-05	-0.00027	-6e-05	-3e-05	1e-05	-3e-05	5
23604	-0.00016	-3e-05	-1e-05	-0.00027	-6e-05	-3e-05	1e-05	-3e-05	5
23605	-0.00016	-3e-05	-1e-05	-0.00027	-6e-05	-3e-05	1e-05	-3e-05	5
23606	-0.00016	-3e-05	-1e-05	-0.00027	-6e-05	-3e-05	1e-05	-3e-05	5
23607	-0.00016	-3e-05	-1e-05	-0.00027	-6e-05	-3e-05	1e-05	-3e-05	5
23608	-0.00016	-3e-05	-1e-05	-0.00027	-6e-05	-3e-05	1e-05	-3e-05	5
23609	-0.00016	-3e-05	-1e-05	-0.00027	-6e-05	-3e-05	1e-05	-3e-05	5
23610	-0.00016	-3e-05	-1e-05	-0.00027	-6e-05	-3e-05	1e-05	-3e-05	5
23611	-0.00016	-3e-05	-1e-05	-0.00027	-6e-05	-3e-05	1e-05	-3e-05	5
23612	-0.00016	-3e-05	-1e-05	-0.00027	-6e-05	-3e-05	1e-05	-3e-05	5
23613	-0.00016	-3e-05	-1e-05	-0.00027	-6e-05	-3e-05	1e-05	-3e-05	5
23614	-0.00016	-3e-05	-1e-05	-0.00027	-6e-05	-3e-05	1e-05	-3e-05	5
23615	-0.00016	-3e-05	-1e-05	-0.00027	-6e-05	-3e-05	1e-05	-3e-05	5
23616	-0.00016	-3e-05	-1e-05	-0.00027	-6e-05	-3e-05	1e-05	-3e-05	5
23617	-0.00016	-3e-05	-1e-05	-0.00027	-6e-05	-3e-05	1e-05	-3e-05	5
23618	-0.00016	-3e-05	-1e-05	-0.00027	-6e-05	-3e-05	1e-05	-3e-05	5
23619	-7e-05	-0.00011	-0.0001	0.00021	6e-05	1e-05	2e-05	1e-05	5
23620	2e-05	2e-05	0	0	-8e-05	-5e-05	-3e-05	0	5
23621	2e-05	2e-05	0	0	-8e-05	-5e-05	-3e-05	0	5
23622	2e-05	2e-05	0	0	-8e-05	-5e-05	-3e-05	0	5
23623	2e-05	2e-05	0	0	-8e-05	-5e-05	-3e-05	0	5
23624	2e-05	2e-05	0	0	-8e-05	-5e-05	-3e-05	0	5
23625	2e-05	2e-05	0	0	-8e-05	-5e-05	-3e-05	0	5
23626	2e-05	2e-05	0	0	-8e-05	-5e-05	-3e-05	0	5
23627	2e-05	2e-05	0	0	-8e-05	-5e-05	-3e-05	0	5
23628	2e-05	2e-05	0	0	-8e-05	-5e-05	-3e-05	0	5
23629	2e-05	2e-05	0	0	-8e-05	-5e-05	-3e-05	0	5
23630	2e-05	2e-05	0	0	-8e-05	-5e-05	-3e-05	0	5
23631	2e-05	2e-05	0	0	-8e-05	-5e-05	-3e-05	0	5
23632	2e-05	2e-05	0	0	-8e-05	-5e-05	-3e-05	0	5
23633	2e-05	2e-05	0	0	-8e-05	-5e-05	-3e-05	0	5
23634	-2e-05	0	3e-05	0	0.00013	-6e-05	-2e-05	-1e-05	5
23635	4e-05	0	-0.0001	-0.00032	-4e-05	-1e-05	-5e-05	-0.00012	5
23636	4e-05	0	-0.0001	-0.00032	-4e-05	-1e-05	-5e-05	-0.00012	5
23638	4e-05	0	-0.0001	-0.00032	-4e-05	-1e-05	-5e-05	-0.00012	5
23640	4e-05	0	-0.0001	-0.00032	-4e-05	-1e-05	-5e-05	-0.00012	5
23641	4e-05	0	-0.0001	-0.00032	-4e-05	-1e-05	-5e-05	-0.00012	5
23642	4e-05	0	-0.0001	-0.00032	-4e-05	-1e-05	-5e-05	-0.00012	5
23643	4e-05	0	-0.0001	-0.00032	-4e-05	-1e-05	-5e-05	-0.00012	5
23644	4e-05	0	-0.0001	-0.00032	-4e-05	-1e-05	-5e-05	-0.00012	5
23645	4e-05	0	-0.0001	-0.00032	-4e-05	-1e-05	-5e-05	-0.00012	5
23646	4e-05	0	-0.0001	-0.00032	-4e-05	-1e-05	-5e-05	-0.00012	5
23647	4e-05	0	-0.0001	-0.00032	-4e-05	-1e-05	-5e-05	-0.00012	5
23648	4e-05	0	-0.0001	-0.00032	-4e-05	-1e-05	-5e-05	-0.00012	5
23649	4e-05	0	-0.0001	-0.00032	-4e-05	-1e-05	-5e-05	-0.00012	5
23650	4e-05	0	-0.0001	-0.00032	-4e-05	-1e-05	-5e-05	-0.00012	5
23651	4e-05	0	-0.0001	-0.00032	-4e-05	-1e-05	-5e-05	-0.00012	5
23652	4e-05	0	-0.0001	-0.00032	-4e-05	-1e-05	-5e-05	-0.00012	5
23653	4e-05	0	-0.0001	-0.00032	-4e-05	-1e-05	-5e-05	-0.00012	5
23654	4e-05	0	-0.0001	-0.00032	-4e-05	-1e-05	-5e-05	-0.00012	5
23655	4e-05	0	-0.0001	-0.00032	-4e-05	-1e-05	-5e-05	-0.00012	5
23656	0	1e-05	-1e-05	5e-05	6e-05	1e-05	-1e-05	-1e-05	5
23657	0	1e-05	-1e-05	5e-05	6e-05	1e-05	-1e-05	-1e-05	5
23658	1e-05	-1e-05	-6e-05	7e-05	6e-05	-2e-05	-3e-05	0	5
23659	1e-05	-1e-05	-6e-05	7e-05	6e-05	-2e-05	-3e-05	0	5
23660	1e-05	-1e-05	-6e-05	7e-05	6e-05	-2e-05	-3e-05	0	5
23661	1e-05	-1e-05	-6e-05	7e-05	6e-05	-2e-05	-3e-05	0	5
23662	1e-05	-1e-05	-6e-05	7e-05	6e-05	-2e-05	-3e-05	0	5
23663	1e-05	-1e-05	-6e-05	7e-05	6e-05	-2e-05	-3e-05	0	5
23664	1e-05	-1e-05	-6e-05	7e-05	6e-05	-2e-05	-3e-05	0	5
23665	1e-05	-1e-05	-6e-05	7e-05	6e-05	-2e-05	-3e-05	0	5
23666	1e-05	-1e-05	-6e-05	7e-05	6e-05	-2e-05	-3e-05	0	5
23667	1e-05	-1e-05	-6e-05	7e-05	6e-05	-2e-05	-3e-05	0	5
23668	1e-05	-1e-05	-6e-05	7e-05	6e-05	-2e-05	-3e-05	0	5
23669	1e-05	-1e-05	-6e-05	7e-05	6e-05	-2e-05	-3e-05	0	5
23670	1e-05	-1e-05	-6e-05	7e-05	6e-05	-2e-05	-3e-05	0	5
23671	1e-05	-1e-05	-6e-05	7e-05	6e-05	-2e-05	-3e-05	0	5
23672	1e-05	-1e-05	-6e-05	7e-05	6e-05	-2e-05	-3e-05	0	5
23673	1e-05	-1e-05	-6e-05	7e-05	6e-05	-2e-05	-3e-05	0	5
23674	1e-05	-1e-05	-6e-05	7e-05	6e-05	-2e-05	-3e-05	0	5
23675	1e-05	-1e-05	-6e-05	7e-05	6e-05	-2e-05	-3e-05	0	5
23676	1e-05	-1e-05	-6e-05	7e-05	6e-05	-2e-05	-3e-05	0	5
23677	1e-05	-1e-05	-6e-05	7e-05	6e-05	-2e-05	-3e-05	0	5
23678	1e-05	-1e-05	-6e-05	7e-05	6e-05	-2e-05	-3e-05	0	5
23679	-0.00011	-9e-05	-2e-05	-7e-05	-0.00014	1e-05	-1e-05	-2e-05	5
23680	5e-05	-9e-05	-3e-05	-0.00013	-0.00013	5e-05	1e-05	-2e-05	5
23681	5e-05	-9e-05	-3e-05	-0.00013	-0.00013	5e-05	1e-05	-2e-05	5
23682	5e-05	-9e-05	-3e-05	-0.00013	-0.00013	5e-05	1e-05	-2e-05	5
23683	5e-05	-9e-05	-3e-05	-0.00013	-0.00013	5e-05	1e-05	-2e-05	5
23684	5e-05	-9e-05	-3e-05	-0.00013	-0.00013	5e-05	1e-05	-2e-05	5
23685	5e-05	-9e-05	-3e-05	-0.00013	-0.00013	5e-05	1e-05	-2e-05	5
23686	5e-05	-9e-05	-3e-05	-0.00013	-0.00013	5e-05	1e-05	-2e-05	5
23688	5e-05	-9e-05	-3e-05	-0.00013	-0.00013	5e-05	1e-05	-2e-05	5
23689	5e-05	-9e-05	-3e-05	-0.00013	-0.00013	5e-05	1e-05	-2e-05	5
23690	5e-05	-9e-05	-3e-05	-0.00013	-0.00013	5e-05	1e-05	-2e-05	5
23691	5e-05	-9e-05	-3e-05	-0.00013	-0.00013	5e-05	1e-05	-2e-05	5
23692	5e-05	-9e-05	-3e-05	-0.00013	-0.00013	5e-05	1e-05	-2e-05	5
23693	5e-05	-9e-05	-3e-05	-0.00013	-0.00013	5e-05	1e-05	-2e-05	5
23694	9e-05	-1e-05	-0.0001	-0.00013	4e-05	1e-05	-4e-05	2e-05	5
23695	1e-05	4e-05	9e-05	-3e-05	8e-05	2e-05	-3e-05	-6e-05	5
23696	1e-05	4e-05	9e-05	-3e-05	8e-05	2e-05	-3e-05	-6e-05	5
23697	1e-05	4e-05	9e-05	-3e-05	8e-05	2e-05	-3e-05	-6e-05	5
23698	1e-05	4e-05	9e-05	-3e-05	8e-05	2e-05	-3e-05	-6e-05	5
23699	1e-05	4e-05	9e-05	-3e-05	8e-05	2e-05	-3e-05	-6e-05	5
23700	1e-05	4e-05	9e-05	-3e-05	8e-05	2e-05	-3e-05	-6e-05	5
23701	1e-05	4e-05	9e-05	-3e-05	8e-05	2e-05	-3e-05	-6e-05	5
23702	1e-05	4e-05	9e-05	-3e-05	8e-05	2e-05	-3e-05	-6e-05	5
23703	1e-05	4e-05	9e-05	-3e-05	8e-05	2e-05	-3e-05	-6e-05	5
23704	1e-05	4e-05	9e-05	-3e-05	8e-05	2e-05	-3e-05	-6e-05	5
23705	1e-05	4e-05	9e-05	-3e-05	8e-05	2e-05	-3e-05	-6e-05	5
23706	1e-05	4e-05	9e-05	-3e-05	8e-05	2e-05	-3e-05	-6e-05	5
23707	1e-05	4e-05	9e-05	-3e-05	8e-05	2e-05	-3e-05	-6e-05	5
23708	1e-05	4e-05	9e-05	-3e-05	8e-05	2e-05	-3e-05	-6e-05	5
23709	1e-05	4e-05	9e-05	-3e-05	8e-05	2e-05	-3e-05	-6e-05	5
23710	1e-05	4e-05	9e-05	-3e-05	8e-05	2e-05	-3e-05	-6e-05	5
23711	1e-05	4e-05	9e-05	-3e-05	8e-05	2e-05	-3e-05	-6e-05	5
23712	1e-05	4e-05	9e-05	-3e-05	8e-05	2e-05	-3e-05	-6e-05	5
23713	1e-05	4e-05	9e-05	-3e-05	8e-05	2e-05	-3e-05	-6e-05	5
23714	1e-05	4e-05	9e-05	-3e-05	8e-05	2e-05	-3e-05	-6e-05	5
23715	1e-05	4e-05	9e-05	-3e-05	8e-05	2e-05	-3e-05	-6e-05	5
23716	-3e-05	4e-05	0.0001	-9e-05	-0.00023	-3e-05	-4e-05	-4e-05	5
23717	-3e-05	4e-05	0.0001	-9e-05	-0.00023	-3e-05	-4e-05	-4e-05	5
23718	-2e-05	-1e-05	-9e-05	-7e-05	-0.00018	-8e-05	-1e-05	4e-05	5
23719	-2e-05	-1e-05	-9e-05	-7e-05	-0.00018	-8e-05	-1e-05	4e-05	5
23720	-2e-05	-1e-05	-9e-05	-7e-05	-0.00018	-8e-05	-1e-05	4e-05	5
23721	-2e-05	-1e-05	-9e-05	-7e-05	-0.00018	-8e-05	-1e-05	4e-05	5
23722	-2e-05	-1e-05	-9e-05	-7e-05	-0.00018	-8e-05	-1e-05	4e-05	5
23723	-2e-05	-1e-05	-9e-05	-7e-05	-0.00018	-8e-05	-1e-05	4e-05	5
23724	-2e-05	-1e-05	-9e-05	-7e-05	-0.00018	-8e-05	-1e-05	4e-05	5
23725	-2e-05	-1e-05	-9e-05	-7e-05	-0.00018	-8e-05	-1e-05	4e-05	5
23726	-2e-05	-1e-05	-9e-05	-7e-05	-0.00018	-8e-05	-1e-05	4e-05	5
23727	-2e-05	-1e-05	-9e-05	-7e-05	-0.00018	-8e-05	-1e-05	4e-05	5
23728	-2e-05	-1e-05	-9e-05	-7e-05	-0.00018	-8e-05	-1e-05	4e-05	5
23729	-2e-05	-1e-05	-9e-05	-7e-05	-0.00018	-8e-05	-1e-05	4e-05	5
23730	-2e-05	-1e-05	-9e-05	-7e-05	-0.00018	-8e-05	-1e-05	4e-05	5
23731	-2e-05	-1e-05	-9e-05	-7e-05	-0.00018	-8e-05	-1e-05	4e-05	5
23732	-2e-05	-1e-05	-9e-05	-7e-05	-0.00018	-8e-05	-1e-05	4e-05	5
23733	-2e-05	-1e-05	-9e-05	-7e-05	-0.00018	-8e-05	-1e-05	4e-05	5
23734	-2e-05	-1e-05	-9e-05	-7e-05	-0.00018	-8e-05	-1e-05	4e-05	5
23735	-2e-05	-1e-05	-9e-05	-7e-05	-0.00018	-8e-05	-1e-05	4e-05	5
23736	-2e-05	-1e-05	-9e-05	-7e-05	-0.00018	-8e-05	-1e-05	4e-05	5
23739	6e-05	-1e-05	-0.0001	-4e-05	2e-05	-5e-05	2e-05	3e-05	5
23740	-3e-05	-3e-05	-3e-05	-9e-05	-6e-05	-6e-05	1e-05	-3e-05	5
23741	-3e-05	-3e-05	-3e-05	-9e-05	-6e-05	-6e-05	1e-05	-3e-05	5
23742	-1e-05	6e-05	0.0001	2e-05	-0.00014	-1e-05	-2e-05	0	5
23743	-1e-05	6e-05	0.0001	2e-05	-0.00014	-1e-05	-2e-05	0	5
23744	-1e-05	6e-05	0.0001	2e-05	-0.00014	-1e-05	-2e-05	0	5
23745	-1e-05	6e-05	0.0001	2e-05	-0.00014	-1e-05	-2e-05	0	5
23746	-1e-05	6e-05	0.0001	2e-05	-0.00014	-1e-05	-2e-05	0	5
23747	-1e-05	6e-05	0.0001	2e-05	-0.00014	-1e-05	-2e-05	0	5
23748	-1e-05	6e-05	0.0001	2e-05	-0.00014	-1e-05	-2e-05	0	5
23749	-1e-05	6e-05	0.0001	2e-05	-0.00014	-1e-05	-2e-05	0	5
23750	-1e-05	6e-05	0.0001	2e-05	-0.00014	-1e-05	-2e-05	0	5
23751	-1e-05	6e-05	0.0001	2e-05	-0.00014	-1e-05	-2e-05	0	5
23752	-1e-05	6e-05	0.0001	2e-05	-0.00014	-1e-05	-2e-05	0	5
23753	-0.00013	-6e-05	9e-05	-7e-05	-3e-05	0.00012	5e-05	-6e-05	5
23754	-0.00013	-6e-05	9e-05	-7e-05	-3e-05	0.00012	5e-05	-6e-05	5
23755	-0.00013	-6e-05	9e-05	-7e-05	-3e-05	0.00012	5e-05	-6e-05	5
23756	-0.00013	-6e-05	9e-05	-7e-05	-3e-05	0.00012	5e-05	-6e-05	5
23757	-0.00013	-6e-05	9e-05	-7e-05	-3e-05	0.00012	5e-05	-6e-05	5
23758	-0.00013	-6e-05	9e-05	-7e-05	-3e-05	0.00012	5e-05	-6e-05	5
23759	-0.00013	-6e-05	9e-05	-7e-05	-3e-05	0.00012	5e-05	-6e-05	5
23760	-0.00011	-2e-05	0	0.00021	0.00018	5e-05	3e-05	1e-05	5
23761	-0.00011	-2e-05	0	0.00021	0.00018	5e-05	3e-05	1e-05	5
23762	-0.00011	-2e-05	0	0.00021	0.00018	5e-05	3e-05	1e-05	5
23763	-0.00011	-2e-05	0	0.00021	0.00018	5e-05	3e-05	1e-05	5
23764	-0.00011	-2e-05	0	0.00021	0.00018	5e-05	3e-05	1e-05	5
23765	-0.00011	-2e-05	0	0.00021	0.00018	5e-05	3e-05	1e-05	5
23766	-0.00011	-2e-05	0	0.00021	0.00018	5e-05	3e-05	1e-05	5
23767	-0.00011	-2e-05	0	0.00021	0.00018	5e-05	3e-05	1e-05	5
23768	-0.00011	-2e-05	0	0.00021	0.00018	5e-05	3e-05	1e-05	5
23769	-0.00011	-2e-05	0	0.00021	0.00018	5e-05	3e-05	1e-05	5
23770	-0.00011	-2e-05	0	0.00021	0.00018	5e-05	3e-05	1e-05	5
23771	-0.00011	-2e-05	0	0.00021	0.00018	5e-05	3e-05	1e-05	5
23772	-0.00011	-2e-05	0	0.00021	0.00018	5e-05	3e-05	1e-05	5
23773	-0.00011	-2e-05	0	0.00021	0.00018	5e-05	3e-05	1e-05	5
23774	-0.00011	-2e-05	0	0.00021	0.00018	5e-05	3e-05	1e-05	5
23775	-0.00011	-2e-05	0	0.00021	0.00018	5e-05	3e-05	1e-05	5
23776	0.00011	-6e-05	-0.00015	-0.00021	-0.00026	-0.00012	-4e-05	2e-05	5
23777	0.00011	-6e-05	-0.00015	-0.00021	-0.00026	-0.00012	-4e-05	2e-05	5
23778	0.00015	0.0001	6e-05	0.00013	1e-05	-4e-05	1e-05	4e-05	5
23779	0.00015	0.0001	6e-05	0.00013	1e-05	-4e-05	1e-05	4e-05	5
23780	0.00015	0.0001	6e-05	0.00013	1e-05	-4e-05	1e-05	4e-05	5
23781	0.00015	0.0001	6e-05	0.00013	1e-05	-4e-05	1e-05	4e-05	5
23782	0.00015	0.0001	6e-05	0.00013	1e-05	-4e-05	1e-05	4e-05	5
23783	0.00015	0.0001	6e-05	0.00013	1e-05	-4e-05	1e-05	4e-05	5
23784	0.00015	0.0001	6e-05	0.00013	1e-05	-4e-05	1e-05	4e-05	5
23785	0.00015	0.0001	6e-05	0.00013	1e-05	-4e-05	1e-05	4e-05	5
23786	0.00015	0.0001	6e-05	0.00013	1e-05	-4e-05	1e-05	4e-05	5
23788	0.00015	0.0001	6e-05	0.00013	1e-05	-4e-05	1e-05	4e-05	5
23789	0.00015	0.0001	6e-05	0.00013	1e-05	-4e-05	1e-05	4e-05	5
23790	0.00015	0.0001	6e-05	0.00013	1e-05	-4e-05	1e-05	4e-05	5
23791	0.00015	0.0001	6e-05	0.00013	1e-05	-4e-05	1e-05	4e-05	5
23792	0.00015	0.0001	6e-05	0.00013	1e-05	-4e-05	1e-05	4e-05	5
23793	0.00015	0.0001	6e-05	0.00013	1e-05	-4e-05	1e-05	4e-05	5
23794	0.00015	0.0001	6e-05	0.00013	1e-05	-4e-05	1e-05	4e-05	5
23795	0.00015	0.0001	6e-05	0.00013	1e-05	-4e-05	1e-05	4e-05	5
23796	0.00015	0.0001	6e-05	0.00013	1e-05	-4e-05	1e-05	4e-05	5
23797	0.00015	0.0001	6e-05	0.00013	1e-05	-4e-05	1e-05	4e-05	5
23798	0.00015	0.0001	6e-05	0.00013	1e-05	-4e-05	1e-05	4e-05	5
23799	6e-05	0.0001	5e-05	1e-05	0.00016	7e-05	0	-1e-05	5
23800	-6e-05	-9e-05	-7e-05	-0.00012	-0.00025	-2e-05	1e-05	-1e-05	5
23801	-6e-05	-9e-05	-7e-05	-0.00012	-0.00025	-2e-05	1e-05	-1e-05	5
23802	-6e-05	-9e-05	-7e-05	-0.00012	-0.00025	-2e-05	1e-05	-1e-05	5
23804	-6e-05	-9e-05	-7e-05	-0.00012	-0.00025	-2e-05	1e-05	-1e-05	5
23805	-6e-05	-9e-05	-7e-05	-0.00012	-0.00025	-2e-05	1e-05	-1e-05	5
23806	-6e-05	-9e-05	-7e-05	-0.00012	-0.00025	-2e-05	1e-05	-1e-05	5
23807	-6e-05	-9e-05	-7e-05	-0.00012	-0.00025	-2e-05	1e-05	-1e-05	5
23808	-6e-05	-9e-05	-7e-05	-0.00012	-0.00025	-2e-05	1e-05	-1e-05	5
23809	-6e-05	-9e-05	-7e-05	-0.00012	-0.00025	-2e-05	1e-05	-1e-05	5
23810	-6e-05	-9e-05	-7e-05	-0.00012	-0.00025	-2e-05	1e-05	-1e-05	5
23811	-6e-05	-9e-05	-7e-05	-0.00012	-0.00025	-2e-05	1e-05	-1e-05	5
23812	-6e-05	-9e-05	-7e-05	-0.00012	-0.00025	-2e-05	1e-05	-1e-05	5
23813	-5e-05	-1e-05	2e-05	-0.00021	-0.00039	-0.00011	-1e-05	0	5
23814	-5e-05	-1e-05	2e-05	-0.00021	-0.00039	-0.00011	-1e-05	0	5
23815	-5e-05	-1e-05	2e-05	-0.00021	-0.00039	-0.00011	-1e-05	0	5
23816	-5e-05	-1e-05	2e-05	-0.00021	-0.00039	-0.00011	-1e-05	0	5
23817	-5e-05	-1e-05	2e-05	-0.00021	-0.00039	-0.00011	-1e-05	0	5
23818	-5e-05	-1e-05	2e-05	-0.00021	-0.00039	-0.00011	-1e-05	0	5
23819	-5e-05	-1e-05	2e-05	-0.00021	-0.00039	-0.00011	-1e-05	0	5
23820	4e-05	1e-05	0.00011	0.00022	0.00018	-1e-05	-1e-05	2e-05	5
23821	4e-05	1e-05	0.00011	0.00022	0.00018	-1e-05	-1e-05	2e-05	5
23822	4e-05	1e-05	0.00011	0.00022	0.00018	-1e-05	-1e-05	2e-05	5
23823	4e-05	1e-05	0.00011	0.00022	0.00018	-1e-05	-1e-05	2e-05	5
23824	4e-05	1e-05	0.00011	0.00022	0.00018	-1e-05	-1e-05	2e-05	5
23825	4e-05	1e-05	0.00011	0.00022	0.00018	-1e-05	-1e-05	2e-05	5
23826	4e-05	1e-05	0.00011	0.00022	0.00018	-1e-05	-1e-05	2e-05	5
23827	4e-05	1e-05	0.00011	0.00022	0.00018	-1e-05	-1e-05	2e-05	5
23828	4e-05	1e-05	0.00011	0.00022	0.00018	-1e-05	-1e-05	2e-05	5
23829	4e-05	1e-05	0.00011	0.00022	0.00018	-1e-05	-1e-05	2e-05	5
23830	4e-05	1e-05	0.00011	0.00022	0.00018	-1e-05	-1e-05	2e-05	5
23831	4e-05	1e-05	0.00011	0.00022	0.00018	-1e-05	-1e-05	2e-05	5
23832	4e-05	1e-05	0.00011	0.00022	0.00018	-1e-05	-1e-05	2e-05	5
23833	4e-05	1e-05	0.00011	0.00022	0.00018	-1e-05	-1e-05	2e-05	5
23834	4e-05	1e-05	0.00011	0.00022	0.00018	-1e-05	-1e-05	2e-05	5
23835	4e-05	1e-05	0.00011	0.00022	0.00018	-1e-05	-1e-05	2e-05	5
23836	-7e-05	1e-05	8e-05	0.00039	0.00056	0.00012	2e-05	-2e-05	5
23839	-6e-05	-4e-05	-0.00013	-0.00031	-0.00031	-0.00014	-2e-05	-3e-05	5
23840	-6e-05	-4e-05	-0.00013	-0.00031	-0.00031	-0.00014	-2e-05	-3e-05	5
23841	-6e-05	-4e-05	-0.00013	-0.00031	-0.00031	-0.00014	-2e-05	-3e-05	5
23842	-6e-05	-4e-05	-0.00013	-0.00031	-0.00031	-0.00014	-2e-05	-3e-05	5
23843	-6e-05	-4e-05	-0.00013	-0.00031	-0.00031	-0.00014	-2e-05	-3e-05	5
23844	-6e-05	-4e-05	-0.00013	-0.00031	-0.00031	-0.00014	-2e-05	-3e-05	5
23845	-6e-05	-4e-05	-0.00013	-0.00031	-0.00031	-0.00014	-2e-05	-3e-05	5
23846	-6e-05	-4e-05	-0.00013	-0.00031	-0.00031	-0.00014	-2e-05	-3e-05	5
23847	-6e-05	-4e-05	-0.00013	-0.00031	-0.00031	-0.00014	-2e-05	-3e-05	5
23848	-6e-05	-4e-05	-0.00013	-0.00031	-0.00031	-0.00014	-2e-05	-3e-05	5
23849	-6e-05	-4e-05	-0.00013	-0.00031	-0.00031	-0.00014	-2e-05	-3e-05	5
23850	-6e-05	-4e-05	-0.00013	-0.00031	-0.00031	-0.00014	-2e-05	-3e-05	5
23851	-6e-05	-4e-05	-0.00013	-0.00031	-0.00031	-0.00014	-2e-05	-3e-05	5
23852	-6e-05	-4e-05	-0.00013	-0.00031	-0.00031	-0.00014	-2e-05	-3e-05	5
23853	-6e-05	-4e-05	-0.00013	-0.00031	-0.00031	-0.00014	-2e-05	-3e-05	5
23854	-6e-05	-4e-05	-0.00013	-0.00031	-0.00031	-0.00014	-2e-05	-3e-05	5
23855	-6e-05	-4e-05	-0.00013	-0.00031	-0.00031	-0.00014	-2e-05	-3e-05	5
23856	-6e-05	-4e-05	-0.00013	-0.00031	-0.00031	-0.00014	-2e-05	-3e-05	5
23857	-6e-05	-4e-05	-0.00013	-0.00031	-0.00031	-0.00014	-2e-05	-3e-05	5
23858	-6e-05	-4e-05	-0.00013	-0.00031	-0.00031	-0.00014	-2e-05	-3e-05	5
23859	6e-05	1e-05	-8e-05	-0.00026	-4e-05	-9e-05	-4e-05	0	5
23860	0.00013	7e-05	0	-3e-05	6e-05	-1e-05	-1e-05	1e-05	5
23861	0.00013	7e-05	0	-3e-05	6e-05	-1e-05	-1e-05	1e-05	5
23862	0.00013	7e-05	0	-3e-05	6e-05	-1e-05	-1e-05	1e-05	5
23863	0.00013	7e-05	0	-3e-05	6e-05	-1e-05	-1e-05	1e-05	5
23864	0.00013	7e-05	0	-3e-05	6e-05	-1e-05	-1e-05	1e-05	5
23865	0.00013	7e-05	0	-3e-05	6e-05	-1e-05	-1e-05	1e-05	5
23866	0.00013	7e-05	0	-3e-05	6e-05	-1e-05	-1e-05	1e-05	5
23867	0.00013	7e-05	0	-3e-05	6e-05	-1e-05	-1e-05	1e-05	5
23868	0.00013	7e-05	0	-3e-05	6e-05	-1e-05	-1e-05	1e-05	5
23869	0.00013	7e-05	0	-3e-05	6e-05	-1e-05	-1e-05	1e-05	5
23870	0.00013	7e-05	0	-3e-05	6e-05	-1e-05	-1e-05	1e-05	5
23871	0.00013	7e-05	0	-3e-05	6e-05	-1e-05	-1e-05	1e-05	5
23872	0.00013	7e-05	0	-3e-05	6e-05	-1e-05	-1e-05	1e-05	5
23873	3e-05	7e-05	5e-05	-3e-05	-0.0002	-3e-05	-1e-05	4e-05	5
23874	3e-05	7e-05	5e-05	-3e-05	-0.0002	-3e-05	-1e-05	4e-05	5
23875	3e-05	7e-05	5e-05	-3e-05	-0.0002	-3e-05	-1e-05	4e-05	5
23876	3e-05	7e-05	5e-05	-3e-05	-0.0002	-3e-05	-1e-05	4e-05	5
23877	3e-05	7e-05	5e-05	-3e-05	-0.0002	-3e-05	-1e-05	4e-05	5
23878	3e-05	7e-05	5e-05	-3e-05	-0.0002	-3e-05	-1e-05	4e-05	5
23879	3e-05	7e-05	5e-05	-3e-05	-0.0002	-3e-05	-1e-05	4e-05	5
23880	5e-05	5e-05	2e-05	0.00017	0.00015	-1e-05	-1e-05	1e-05	5
23881	5e-05	5e-05	2e-05	0.00017	0.00015	-1e-05	-1e-05	1e-05	5
23882	5e-05	5e-05	2e-05	0.00017	0.00015	-1e-05	-1e-05	1e-05	5
23883	5e-05	5e-05	2e-05	0.00017	0.00015	-1e-05	-1e-05	1e-05	5
23884	5e-05	5e-05	2e-05	0.00017	0.00015	-1e-05	-1e-05	1e-05	5
23885	5e-05	5e-05	2e-05	0.00017	0.00015	-1e-05	-1e-05	1e-05	5
23886	5e-05	5e-05	2e-05	0.00017	0.00015	-1e-05	-1e-05	1e-05	5
23888	5e-05	5e-05	2e-05	0.00017	0.00015	-1e-05	-1e-05	1e-05	5
23890	5e-05	5e-05	2e-05	0.00017	0.00015	-1e-05	-1e-05	1e-05	5
23891	5e-05	5e-05	2e-05	0.00017	0.00015	-1e-05	-1e-05	1e-05	5
23892	5e-05	5e-05	2e-05	0.00017	0.00015	-1e-05	-1e-05	1e-05	5
23893	5e-05	5e-05	2e-05	0.00017	0.00015	-1e-05	-1e-05	1e-05	5
23894	5e-05	5e-05	2e-05	0.00017	0.00015	-1e-05	-1e-05	1e-05	5
23895	5e-05	5e-05	2e-05	0.00017	0.00015	-1e-05	-1e-05	1e-05	5
23896	-3e-05	0	0	0.00012	-0.00012	9e-05	3e-05	-6e-05	5
23897	-3e-05	0	0	0.00012	-0.00012	9e-05	3e-05	-6e-05	5
23898	-4e-05	-3e-05	3e-05	-0.00011	6e-05	2e-05	1e-05	1e-05	5
23899	-4e-05	-3e-05	3e-05	-0.00011	6e-05	2e-05	1e-05	1e-05	5
23900	-4e-05	-3e-05	3e-05	-0.00011	6e-05	2e-05	1e-05	1e-05	5
23901	-4e-05	-3e-05	3e-05	-0.00011	6e-05	2e-05	1e-05	1e-05	5
23902	-4e-05	-3e-05	3e-05	-0.00011	6e-05	2e-05	1e-05	1e-05	5
23903	-4e-05	-3e-05	3e-05	-0.00011	6e-05	2e-05	1e-05	1e-05	5
23904	-4e-05	-3e-05	3e-05	-0.00011	6e-05	2e-05	1e-05	1e-05	5
23905	-4e-05	-3e-05	3e-05	-0.00011	6e-05	2e-05	1e-05	1e-05	5
23906	-4e-05	-3e-05	3e-05	-0.00011	6e-05	2e-05	1e-05	1e-05	5
23907	-4e-05	-3e-05	3e-05	-0.00011	6e-05	2e-05	1e-05	1e-05	5
23908	-4e-05	-3e-05	3e-05	-0.00011	6e-05	2e-05	1e-05	1e-05	5
23909	-4e-05	-3e-05	3e-05	-0.00011	6e-05	2e-05	1e-05	1e-05	5
23910	-4e-05	-3e-05	3e-05	-0.00011	6e-05	2e-05	1e-05	1e-05	5
23911	-4e-05	-3e-05	3e-05	-0.00011	6e-05	2e-05	1e-05	1e-05	5
23912	-4e-05	-3e-05	3e-05	-0.00011	6e-05	2e-05	1e-05	1e-05	5
23913	-4e-05	-3e-05	3e-05	-0.00011	6e-05	2e-05	1e-05	1e-05	5
23914	-4e-05	-3e-05	3e-05	-0.00011	6e-05	2e-05	1e-05	1e-05	5
23915	-4e-05	-3e-05	3e-05	-0.00011	6e-05	2e-05	1e-05	1e-05	5
23916	-4e-05	-3e-05	3e-05	-0.00011	6e-05	2e-05	1e-05	1e-05	5
23917	-4e-05	-3e-05	3e-05	-0.00011	6e-05	2e-05	1e-05	1e-05	5
23918	-4e-05	-3e-05	3e-05	-0.00011	6e-05	2e-05	1e-05	1e-05	5
23919	-7e-05	-2e-05	5e-05	5e-05	3e-05	-5e-05	-3e-05	-1e-05	5
23920	-6e-05	-7e-05	1e-05	2e-05	-2e-05	-2e-05	-6e-05	-7e-05	5
23921	-6e-05	-7e-05	1e-05	2e-05	-2e-05	-2e-05	-6e-05	-7e-05	5
23922	-6e-05	-7e-05	1e-05	2e-05	-2e-05	-2e-05	-6e-05	-7e-05	5
23923	-6e-05	-7e-05	1e-05	2e-05	-2e-05	-2e-05	-6e-05	-7e-05	5
23924	-6e-05	-7e-05	1e-05	2e-05	-2e-05	-2e-05	-6e-05	-7e-05	5
23925	-6e-05	-7e-05	1e-05	2e-05	-2e-05	-2e-05	-6e-05	-7e-05	5
23926	-6e-05	-7e-05	1e-05	2e-05	-2e-05	-2e-05	-6e-05	-7e-05	5
23927	-6e-05	-7e-05	1e-05	2e-05	-2e-05	-2e-05	-6e-05	-7e-05	5
23928	-6e-05	-7e-05	1e-05	2e-05	-2e-05	-2e-05	-6e-05	-7e-05	5
23929	-6e-05	-7e-05	1e-05	2e-05	-2e-05	-2e-05	-6e-05	-7e-05	5
23930	-6e-05	-7e-05	1e-05	2e-05	-2e-05	-2e-05	-6e-05	-7e-05	5
23931	-6e-05	-7e-05	1e-05	2e-05	-2e-05	-2e-05	-6e-05	-7e-05	5
23932	-6e-05	-7e-05	1e-05	2e-05	-2e-05	-2e-05	-6e-05	-7e-05	5
23933	-8e-05	-7e-05	-0.00012	0	0.0003	-2e-05	-2e-05	2e-05	5
23934	-8e-05	-7e-05	-0.00012	0	0.0003	-2e-05	-2e-05	2e-05	5
23935	-8e-05	-7e-05	-0.00012	0	0.0003	-2e-05	-2e-05	2e-05	5
23936	-8e-05	-7e-05	-0.00012	0	0.0003	-2e-05	-2e-05	2e-05	5
23938	-8e-05	-7e-05	-0.00012	0	0.0003	-2e-05	-2e-05	2e-05	5
23939	-8e-05	-7e-05	-0.00012	0	0.0003	-2e-05	-2e-05	2e-05	5
23940	-1e-05	2e-05	-7e-05	0.0001	0.00028	1e-05	-2e-05	-2e-05	5
23941	-1e-05	2e-05	-7e-05	0.0001	0.00028	1e-05	-2e-05	-2e-05	5
23942	-1e-05	2e-05	-7e-05	0.0001	0.00028	1e-05	-2e-05	-2e-05	5
23943	-1e-05	2e-05	-7e-05	0.0001	0.00028	1e-05	-2e-05	-2e-05	5
23944	-1e-05	2e-05	-7e-05	0.0001	0.00028	1e-05	-2e-05	-2e-05	5
23945	-1e-05	2e-05	-7e-05	0.0001	0.00028	1e-05	-2e-05	-2e-05	5
23946	-1e-05	2e-05	-7e-05	0.0001	0.00028	1e-05	-2e-05	-2e-05	5
23947	-1e-05	2e-05	-7e-05	0.0001	0.00028	1e-05	-2e-05	-2e-05	5
23948	-1e-05	2e-05	-7e-05	0.0001	0.00028	1e-05	-2e-05	-2e-05	5
23949	-1e-05	2e-05	-7e-05	0.0001	0.00028	1e-05	-2e-05	-2e-05	5
23950	-1e-05	2e-05	-7e-05	0.0001	0.00028	1e-05	-2e-05	-2e-05	5
23951	-1e-05	2e-05	-7e-05	0.0001	0.00028	1e-05	-2e-05	-2e-05	5
23952	-1e-05	2e-05	-7e-05	0.0001	0.00028	1e-05	-2e-05	-2e-05	5
23953	-1e-05	2e-05	-7e-05	0.0001	0.00028	1e-05	-2e-05	-2e-05	5
23954	-1e-05	2e-05	-7e-05	0.0001	0.00028	1e-05	-2e-05	-2e-05	5
23955	-1e-05	2e-05	-7e-05	0.0001	0.00028	1e-05	-2e-05	-2e-05	5
23956	-3e-05	-0.0001	-5e-05	0.00025	0.00014	0.00011	2e-05	-3e-05	5
23957	-3e-05	-0.0001	-5e-05	0.00025	0.00014	0.00011	2e-05	-3e-05	5
23958	0.00017	0.0001	8e-05	-3e-05	-0.00024	-8e-05	-2e-05	1e-05	5
23959	-4e-05	-1e-05	-1e-05	0.00017	0.0001	1e-05	-3e-05	1e-05	5
23960	-4e-05	-1e-05	-1e-05	0.00017	0.0001	1e-05	-3e-05	1e-05	5
23961	-4e-05	-1e-05	-1e-05	0.00017	0.0001	1e-05	-3e-05	1e-05	5
23962	-4e-05	-1e-05	-1e-05	0.00017	0.0001	1e-05	-3e-05	1e-05	5
23963	-4e-05	-1e-05	-1e-05	0.00017	0.0001	1e-05	-3e-05	1e-05	5
23964	-4e-05	-1e-05	-1e-05	0.00017	0.0001	1e-05	-3e-05	1e-05	5
23965	-4e-05	-1e-05	-1e-05	0.00017	0.0001	1e-05	-3e-05	1e-05	5
23966	-4e-05	-1e-05	-1e-05	0.00017	0.0001	1e-05	-3e-05	1e-05	5
23967	-4e-05	-1e-05	-1e-05	0.00017	0.0001	1e-05	-3e-05	1e-05	5
23968	-4e-05	-1e-05	-1e-05	0.00017	0.0001	1e-05	-3e-05	1e-05	5
23969	-4e-05	-1e-05	-1e-05	0.00017	0.0001	1e-05	-3e-05	1e-05	5
23970	-4e-05	-1e-05	-1e-05	0.00017	0.0001	1e-05	-3e-05	1e-05	5
23971	-4e-05	-1e-05	-1e-05	0.00017	0.0001	1e-05	-3e-05	1e-05	5
23972	-4e-05	-1e-05	-1e-05	0.00017	0.0001	1e-05	-3e-05	1e-05	5
23973	-4e-05	-1e-05	-1e-05	0.00017	0.0001	1e-05	-3e-05	1e-05	5
23974	-4e-05	-1e-05	-1e-05	0.00017	0.0001	1e-05	-3e-05	1e-05	5
23975	-4e-05	-1e-05	-1e-05	0.00017	0.0001	1e-05	-3e-05	1e-05	5
23976	-4e-05	-1e-05	-1e-05	0.00017	0.0001	1e-05	-3e-05	1e-05	5
23977	-4e-05	-1e-05	-1e-05	0.00017	0.0001	1e-05	-3e-05	1e-05	5
23978	-4e-05	-1e-05	-1e-05	0.00017	0.0001	1e-05	-3e-05	1e-05	5
23979	-1e-05	4e-05	2e-05	-0.00011	-0.00016	-8e-05	-1e-05	4e-05	5
23980	-1e-05	4e-05	2e-05	-0.00011	-0.00016	-8e-05	-1e-05	4e-05	5
23981	5e-05	5e-05	6e-05	-0.00014	-0.00035	-5e-05	3e-05	6e-05	5
23982	5e-05	5e-05	6e-05	-0.00014	-0.00035	-5e-05	3e-05	6e-05	5
23983	5e-05	5e-05	6e-05	-0.00014	-0.00035	-5e-05	3e-05	6e-05	5
23984	5e-05	5e-05	6e-05	-0.00014	-0.00035	-5e-05	3e-05	6e-05	5
23985	5e-05	5e-05	6e-05	-0.00014	-0.00035	-5e-05	3e-05	6e-05	5
23986	5e-05	5e-05	6e-05	-0.00014	-0.00035	-5e-05	3e-05	6e-05	5
23988	5e-05	5e-05	6e-05	-0.00014	-0.00035	-5e-05	3e-05	6e-05	5
23989	5e-05	5e-05	6e-05	-0.00014	-0.00035	-5e-05	3e-05	6e-05	5
23990	5e-05	5e-05	6e-05	-0.00014	-0.00035	-5e-05	3e-05	6e-05	5
23991	5e-05	5e-05	6e-05	-0.00014	-0.00035	-5e-05	3e-05	6e-05	5
23992	5e-05	5e-05	6e-05	-0.00014	-0.00035	-5e-05	3e-05	6e-05	5
23993	4e-05	-1e-05	-2e-05	8e-05	-0.00022	-5e-05	-1e-05	3e-05	5
23994	4e-05	-1e-05	-2e-05	8e-05	-0.00022	-5e-05	-1e-05	3e-05	5
23995	4e-05	-1e-05	-2e-05	8e-05	-0.00022	-5e-05	-1e-05	3e-05	5
23996	4e-05	-1e-05	-2e-05	8e-05	-0.00022	-5e-05	-1e-05	3e-05	5
23997	4e-05	-1e-05	-2e-05	8e-05	-0.00022	-5e-05	-1e-05	3e-05	5
23998	4e-05	-1e-05	-2e-05	8e-05	-0.00022	-5e-05	-1e-05	3e-05	5
23999	4e-05	-1e-05	-2e-05	8e-05	-0.00022	-5e-05	-1e-05	3e-05	5
24000	-2e-05	-4e-05	-1e-05	0.00016	0.00056	0.00014	-1e-05	-4e-05	5
24001	-2e-05	-4e-05	-1e-05	0.00016	0.00056	0.00014	-1e-05	-4e-05	5
24002	-2e-05	-4e-05	-1e-05	0.00016	0.00056	0.00014	-1e-05	-4e-05	5
24003	-2e-05	-4e-05	-1e-05	0.00016	0.00056	0.00014	-1e-05	-4e-05	5
24004	-2e-05	-4e-05	-1e-05	0.00016	0.00056	0.00014	-1e-05	-4e-05	5
24005	-2e-05	-4e-05	-1e-05	0.00016	0.00056	0.00014	-1e-05	-4e-05	5
24006	-2e-05	-4e-05	-1e-05	0.00016	0.00056	0.00014	-1e-05	-4e-05	5
24007	-2e-05	-4e-05	-1e-05	0.00016	0.00056	0.00014	-1e-05	-4e-05	5
24008	-2e-05	-4e-05	-1e-05	0.00016	0.00056	0.00014	-1e-05	-4e-05	5
24009	-2e-05	-4e-05	-1e-05	0.00016	0.00056	0.00014	-1e-05	-4e-05	5
24010	-2e-05	-4e-05	-1e-05	0.00016	0.00056	0.00014	-1e-05	-4e-05	5
24011	-2e-05	-4e-05	-1e-05	0.00016	0.00056	0.00014	-1e-05	-4e-05	5
24012	-2e-05	-4e-05	-1e-05	0.00016	0.00056	0.00014	-1e-05	-4e-05	5
24013	-2e-05	-4e-05	-1e-05	0.00016	0.00056	0.00014	-1e-05	-4e-05	5
24014	-2e-05	-4e-05	-1e-05	0.00016	0.00056	0.00014	-1e-05	-4e-05	5
24015	-2e-05	-4e-05	-1e-05	0.00016	0.00056	0.00014	-1e-05	-4e-05	5
24016	-1e-05	-1e-05	-8e-05	-8e-05	1e-05	3e-05	1e-05	-1e-05	5
24017	-1e-05	-1e-05	-8e-05	-8e-05	1e-05	3e-05	1e-05	-1e-05	5
24018	0	2e-05	9e-05	1e-05	8e-05	0.0001	8e-05	0	5
24019	0	2e-05	9e-05	1e-05	8e-05	0.0001	8e-05	0	5
24020	0	2e-05	9e-05	1e-05	8e-05	0.0001	8e-05	0	5
24021	0	2e-05	9e-05	1e-05	8e-05	0.0001	8e-05	0	5
24022	0	2e-05	9e-05	1e-05	8e-05	0.0001	8e-05	0	5
24023	0	2e-05	9e-05	1e-05	8e-05	0.0001	8e-05	0	5
24024	0	2e-05	9e-05	1e-05	8e-05	0.0001	8e-05	0	5
24025	0	2e-05	9e-05	1e-05	8e-05	0.0001	8e-05	0	5
24026	0	2e-05	9e-05	1e-05	8e-05	0.0001	8e-05	0	5
24027	0	2e-05	9e-05	1e-05	8e-05	0.0001	8e-05	0	5
24028	0	2e-05	9e-05	1e-05	8e-05	0.0001	8e-05	0	5
24029	0	2e-05	9e-05	1e-05	8e-05	0.0001	8e-05	0	5
24030	0	2e-05	9e-05	1e-05	8e-05	0.0001	8e-05	0	5
24031	0	2e-05	9e-05	1e-05	8e-05	0.0001	8e-05	0	5
24032	0	2e-05	9e-05	1e-05	8e-05	0.0001	8e-05	0	5
24033	0	2e-05	9e-05	1e-05	8e-05	0.0001	8e-05	0	5
24034	0	2e-05	9e-05	1e-05	8e-05	0.0001	8e-05	0	5
24035	0	2e-05	9e-05	1e-05	8e-05	0.0001	8e-05	0	5
24036	0	2e-05	9e-05	1e-05	8e-05	0.0001	8e-05	0	5
24039	0.00013	5e-05	2e-05	2e-05	0	2e-05	-1e-05	0	5
24040	-1e-05	-8e-05	-5e-05	0	-3e-05	-0.0001	-6e-05	-4e-05	5
24041	-1e-05	-8e-05	-5e-05	0	-3e-05	-0.0001	-6e-05	-4e-05	5
24042	-1e-05	-8e-05	-5e-05	0	-3e-05	-0.0001	-6e-05	-4e-05	5
24043	-1e-05	-8e-05	-5e-05	0	-3e-05	-0.0001	-6e-05	-4e-05	5
24044	-1e-05	-8e-05	-5e-05	0	-3e-05	-0.0001	-6e-05	-4e-05	5
24045	-1e-05	-8e-05	-5e-05	0	-3e-05	-0.0001	-6e-05	-4e-05	5
24046	-1e-05	-8e-05	-5e-05	0	-3e-05	-0.0001	-6e-05	-4e-05	5
24047	-1e-05	-8e-05	-5e-05	0	-3e-05	-0.0001	-6e-05	-4e-05	5
24048	-1e-05	-8e-05	-5e-05	0	-3e-05	-0.0001	-6e-05	-4e-05	5
24049	-1e-05	-8e-05	-5e-05	0	-3e-05	-0.0001	-6e-05	-4e-05	5
24050	-1e-05	-8e-05	-5e-05	0	-3e-05	-0.0001	-6e-05	-4e-05	5
24051	-1e-05	-8e-05	-5e-05	0	-3e-05	-0.0001	-6e-05	-4e-05	5
24052	5e-05	-7e-05	-1e-05	-4e-05	-0.00047	-6e-05	-2e-05	-4e-05	5
24053	5e-05	-7e-05	-1e-05	-4e-05	-0.00047	-6e-05	-2e-05	-4e-05	5
24054	5e-05	-7e-05	-1e-05	-4e-05	-0.00047	-6e-05	-2e-05	-4e-05	5
24055	5e-05	-7e-05	-1e-05	-4e-05	-0.00047	-6e-05	-2e-05	-4e-05	5
24056	5e-05	-7e-05	-1e-05	-4e-05	-0.00047	-6e-05	-2e-05	-4e-05	5
24057	5e-05	-7e-05	-1e-05	-4e-05	-0.00047	-6e-05	-2e-05	-4e-05	5
24058	5e-05	-7e-05	-1e-05	-4e-05	-0.00047	-6e-05	-2e-05	-4e-05	5
24059	5e-05	-7e-05	-1e-05	-4e-05	-0.00047	-6e-05	-2e-05	-4e-05	5
24060	5e-05	-7e-05	-1e-05	-4e-05	-0.00047	-6e-05	-2e-05	-4e-05	5
24061	-1e-05	-1e-05	-1e-05	9e-05	-6e-05	5e-05	1e-05	-1e-05	5
24062	-1e-05	-1e-05	-1e-05	9e-05	-6e-05	5e-05	1e-05	-1e-05	5
24063	-1e-05	-1e-05	-1e-05	9e-05	-6e-05	5e-05	1e-05	-1e-05	5
24064	-1e-05	-1e-05	-1e-05	9e-05	-6e-05	5e-05	1e-05	-1e-05	5
24065	-1e-05	-1e-05	-1e-05	9e-05	-6e-05	5e-05	1e-05	-1e-05	5
24066	-1e-05	-1e-05	-1e-05	9e-05	-6e-05	5e-05	1e-05	-1e-05	5
24067	-1e-05	-1e-05	-1e-05	9e-05	-6e-05	5e-05	1e-05	-1e-05	5
24068	-1e-05	-1e-05	-1e-05	9e-05	-6e-05	5e-05	1e-05	-1e-05	5
24069	-1e-05	-1e-05	-1e-05	9e-05	-6e-05	5e-05	1e-05	-1e-05	5
24070	-1e-05	-1e-05	-1e-05	9e-05	-6e-05	5e-05	1e-05	-1e-05	5
24071	-1e-05	-1e-05	-1e-05	9e-05	-6e-05	5e-05	1e-05	-1e-05	5
24072	-1e-05	-1e-05	-1e-05	9e-05	-6e-05	5e-05	1e-05	-1e-05	5
24073	-1e-05	-1e-05	-1e-05	9e-05	-6e-05	5e-05	1e-05	-1e-05	5
24074	-1e-05	-1e-05	-1e-05	9e-05	-6e-05	5e-05	1e-05	-1e-05	5
24075	-1e-05	-1e-05	-1e-05	9e-05	-6e-05	5e-05	1e-05	-1e-05	5
24076	8e-05	8e-05	6e-05	-0.0001	-9e-05	1e-05	1e-05	2e-05	5
24077	8e-05	8e-05	6e-05	-0.0001	-9e-05	1e-05	1e-05	2e-05	5
24078	-4e-05	0	3e-05	0.00011	-1e-05	-9e-05	-3e-05	-2e-05	5
24079	-4e-05	0	3e-05	0.00011	-1e-05	-9e-05	-3e-05	-2e-05	5
24080	-4e-05	0	3e-05	0.00011	-1e-05	-9e-05	-3e-05	-2e-05	5
24081	-4e-05	0	3e-05	0.00011	-1e-05	-9e-05	-3e-05	-2e-05	5
24082	-4e-05	0	3e-05	0.00011	-1e-05	-9e-05	-3e-05	-2e-05	5
24083	-4e-05	0	3e-05	0.00011	-1e-05	-9e-05	-3e-05	-2e-05	5
24084	-4e-05	0	3e-05	0.00011	-1e-05	-9e-05	-3e-05	-2e-05	5
24085	-4e-05	0	3e-05	0.00011	-1e-05	-9e-05	-3e-05	-2e-05	5
24086	-4e-05	0	3e-05	0.00011	-1e-05	-9e-05	-3e-05	-2e-05	5
24089	-4e-05	0	3e-05	0.00011	-1e-05	-9e-05	-3e-05	-2e-05	5
24090	-4e-05	0	3e-05	0.00011	-1e-05	-9e-05	-3e-05	-2e-05	5
24091	-4e-05	0	3e-05	0.00011	-1e-05	-9e-05	-3e-05	-2e-05	5
24092	-4e-05	0	3e-05	0.00011	-1e-05	-9e-05	-3e-05	-2e-05	5
24093	-4e-05	0	3e-05	0.00011	-1e-05	-9e-05	-3e-05	-2e-05	5
24094	-4e-05	0	3e-05	0.00011	-1e-05	-9e-05	-3e-05	-2e-05	5
24095	-4e-05	0	3e-05	0.00011	-1e-05	-9e-05	-3e-05	-2e-05	5
24096	-4e-05	0	3e-05	0.00011	-1e-05	-9e-05	-3e-05	-2e-05	5
24097	-4e-05	0	3e-05	0.00011	-1e-05	-9e-05	-3e-05	-2e-05	5
24098	8e-05	4e-05	7e-05	-1e-05	2e-05	-7e-05	-3e-05	2e-05	5
24099	-1e-05	-1e-05	-4e-05	-1e-05	-0.0001	7e-05	4e-05	-1e-05	5
24100	-1e-05	-1e-05	-4e-05	-1e-05	-0.0001	7e-05	4e-05	-1e-05	5
24101	-1e-05	-1e-05	-4e-05	-1e-05	-0.0001	7e-05	4e-05	-1e-05	5
24102	-1e-05	-1e-05	-4e-05	-1e-05	-0.0001	7e-05	4e-05	-1e-05	5
24103	-1e-05	-1e-05	-4e-05	-1e-05	-0.0001	7e-05	4e-05	-1e-05	5
24104	-1e-05	-1e-05	-4e-05	-1e-05	-0.0001	7e-05	4e-05	-1e-05	5
24105	-1e-05	-1e-05	-4e-05	-1e-05	-0.0001	7e-05	4e-05	-1e-05	5
24106	-1e-05	-1e-05	-4e-05	-1e-05	-0.0001	7e-05	4e-05	-1e-05	5
24107	-1e-05	-1e-05	-4e-05	-1e-05	-0.0001	7e-05	4e-05	-1e-05	5
24108	-1e-05	-1e-05	-4e-05	-1e-05	-0.0001	7e-05	4e-05	-1e-05	5
24109	-1e-05	-1e-05	-4e-05	-1e-05	-0.0001	7e-05	4e-05	-1e-05	5
24110	-1e-05	-1e-05	-4e-05	-1e-05	-0.0001	7e-05	4e-05	-1e-05	5
24111	-1e-05	-1e-05	-4e-05	-1e-05	-0.0001	7e-05	4e-05	-1e-05	5
24112	-1e-05	-1e-05	-4e-05	-1e-05	-0.0001	7e-05	4e-05	-1e-05	5
24113	-1e-05	-1e-05	-4e-05	-1e-05	-0.0001	7e-05	4e-05	-1e-05	5
24114	-1e-05	-1e-05	-4e-05	-1e-05	-0.0001	7e-05	4e-05	-1e-05	5
24115	-1e-05	-1e-05	-4e-05	-1e-05	-0.0001	7e-05	4e-05	-1e-05	5
24116	-1e-05	-1e-05	-4e-05	-1e-05	-0.0001	7e-05	4e-05	-1e-05	5
24117	-1e-05	-1e-05	-4e-05	-1e-05	-0.0001	7e-05	4e-05	-1e-05	5
24118	-1e-05	-1e-05	-4e-05	-1e-05	-0.0001	7e-05	4e-05	-1e-05	5
24119	-1e-05	-1e-05	-4e-05	-1e-05	-0.0001	7e-05	4e-05	-1e-05	5
24120	-1e-05	-1e-05	-4e-05	-1e-05	-0.0001	7e-05	4e-05	-1e-05	5
24121	1e-05	-2e-05	-0.0001	-0.00017	-2e-05	-9e-05	-3e-05	1e-05	5
24122	5e-05	-2e-05	-6e-05	-6e-05	-0.00028	-8e-05	-2e-05	0	5
24123	5e-05	-2e-05	-6e-05	-6e-05	-0.00028	-8e-05	-2e-05	0	5
24124	5e-05	-2e-05	-6e-05	-6e-05	-0.00028	-8e-05	-2e-05	0	5
24125	5e-05	-2e-05	-6e-05	-6e-05	-0.00028	-8e-05	-2e-05	0	5
24126	5e-05	-2e-05	-6e-05	-6e-05	-0.00028	-8e-05	-2e-05	0	5
24127	5e-05	-2e-05	-6e-05	-6e-05	-0.00028	-8e-05	-2e-05	0	5
