9231	-0.00013	-0.00013	-1e-05	-5e-05	-0.00018	-0.0002	-2e-05	-0.00012	3
9232	-0.00013	-0.00013	-1e-05	-5e-05	-0.00018	-0.0002	-2e-05	-0.00012	3
9233	-0.00013	-0.00013	-1e-05	-5e-05	-0.00018	-0.0002	-2e-05	-0.00012	3
9234	-0.00013	-0.00013	-1e-05	-5e-05	-0.00018	-0.0002	-2e-05	-0.00012	3
9235	-0.00013	-0.00013	-1e-05	-5e-05	-0.00018	-0.0002	-2e-05	-0.00012	3
9237	-0.00013	-0.00013	-1e-05	-5e-05	-0.00018	-0.0002	-2e-05	-0.00012	3
9240	-0.00013	-0.00013	-1e-05	-5e-05	-0.00018	-0.0002	-2e-05	-0.00012	3
9241	-0.00013	-0.00013	-1e-05	-5e-05	-0.00018	-0.0002	-2e-05	-0.00012	3
9242	-0.00013	-0.00013	-1e-05	-5e-05	-0.00018	-0.0002	-2e-05	-0.00012	3
9243	-0.00013	-0.00013	-1e-05	-5e-05	-0.00018	-0.0002	-2e-05	-0.00012	3
9244	-0.00027	-0.00037	7e-05	-2e-05	-9e-05	-0.00012	-0.00017	-0.00012	3
9245	-0.00019	-0.00081	-0.00018	1e-05	0.00051	0.00056	3e-05	-0.00013	3
9246	-0.00019	-0.00081	-0.00018	1e-05	0.00051	0.00056	3e-05	-0.00013	3
9247	-0.00019	-0.00081	-0.00018	1e-05	0.00051	0.00056	3e-05	-0.00013	3
9248	-0.00019	-0.00081	-0.00018	1e-05	0.00051	0.00056	3e-05	-0.00013	3
9249	-0.00019	-0.00081	-0.00018	1e-05	0.00051	0.00056	3e-05	-0.00013	3
9250	-0.00019	-0.00081	-0.00018	1e-05	0.00051	0.00056	3e-05	-0.00013	3
9251	-0.00019	-0.00081	-0.00018	1e-05	0.00051	0.00056	3e-05	-0.00013	3
9252	-0.00019	-0.00081	-0.00018	1e-05	0.00051	0.00056	3e-05	-0.00013	3
9253	-0.00019	-0.00081	-0.00018	1e-05	0.00051	0.00056	3e-05	-0.00013	3
9254	-0.00019	-0.00081	-0.00018	1e-05	0.00051	0.00056	3e-05	-0.00013	3
9255	-0.00019	-0.00081	-0.00018	1e-05	0.00051	0.00056	3e-05	-0.00013	3
9256	-0.00019	-0.00081	-0.00018	1e-05	0.00051	0.00056	3e-05	-0.00013	3
9257	-0.00019	-0.00081	-0.00018	1e-05	0.00051	0.00056	3e-05	-0.00013	3
9258	2e-05	0.00013	-0.00014	-6e-05	5e-05	2e-05	-0.00016	0.00015	3
9259	2e-05	0.00013	-0.00014	-6e-05	5e-05	2e-05	-0.00016	0.00015	3
9260	-8e-05	-0.00025	-3e-05	-5e-05	-5e-05	0.00012	-0.00014	0.00015	3
9261	-8e-05	-0.00025	-3e-05	-5e-05	-5e-05	0.00012	-0.00014	0.00015	3
9262	-8e-05	-0.00025	-3e-05	-5e-05	-5e-05	0.00012	-0.00014	0.00015	3
9263	-8e-05	-0.00025	-3e-05	-5e-05	-5e-05	0.00012	-0.00014	0.00015	3
9264	-8e-05	-0.00025	-3e-05	-5e-05	-5e-05	0.00012	-0.00014	0.00015	3
9265	-8e-05	-0.00025	-3e-05	-5e-05	-5e-05	0.00012	-0.00014	0.00015	3
9266	-8e-05	-0.00025	-3e-05	-5e-05	-5e-05	0.00012	-0.00014	0.00015	3
9267	-8e-05	-0.00025	-3e-05	-5e-05	-5e-05	0.00012	-0.00014	0.00015	3
9268	-8e-05	-0.00025	-3e-05	-5e-05	-5e-05	0.00012	-0.00014	0.00015	3
9269	-8e-05	-0.00025	-3e-05	-5e-05	-5e-05	0.00012	-0.00014	0.00015	3
9270	-8e-05	-0.00025	-3e-05	-5e-05	-5e-05	0.00012	-0.00014	0.00015	3
9271	-8e-05	-0.00025	-3e-05	-5e-05	-5e-05	0.00012	-0.00014	0.00015	3
9272	-8e-05	-0.00025	-3e-05	-5e-05	-5e-05	0.00012	-0.00014	0.00015	3
9273	-8e-05	-0.00025	-3e-05	-5e-05	-5e-05	0.00012	-0.00014	0.00015	3
9274	-8e-05	-0.00025	-3e-05	-5e-05	-5e-05	0.00012	-0.00014	0.00015	3
9275	-8e-05	-0.00025	-3e-05	-5e-05	-5e-05	0.00012	-0.00014	0.00015	3
9276	-8e-05	-0.00025	-3e-05	-5e-05	-5e-05	0.00012	-0.00014	0.00015	3
9277	-8e-05	-0.00025	-3e-05	-5e-05	-5e-05	0.00012	-0.00014	0.00015	3
9278	-8e-05	-0.00025	-3e-05	-5e-05	-5e-05	0.00012	-0.00014	0.00015	3
9279	-8e-05	-0.00025	-3e-05	-5e-05	-5e-05	0.00012	-0.00014	0.00015	3
9280	-2e-05	0.00058	2e-05	7e-05	0.00019	0.00026	2e-05	-0.0002	3
9281	-2e-05	0.00058	2e-05	7e-05	0.00019	0.00026	2e-05	-0.0002	3
9282	-2e-05	0.00058	2e-05	7e-05	0.00019	0.00026	2e-05	-0.0002	3
9283	-2e-05	0.00058	2e-05	7e-05	0.00019	0.00026	2e-05	-0.0002	3
9284	-2e-05	0.00058	2e-05	7e-05	0.00019	0.00026	2e-05	-0.0002	3
9285	-2e-05	0.00058	2e-05	7e-05	0.00019	0.00026	2e-05	-0.0002	3
9286	-2e-05	0.00058	2e-05	7e-05	0.00019	0.00026	2e-05	-0.0002	3
9289	-0.00027	0.00043	-2e-05	-3e-05	-0.00035	-0.00024	-4e-05	0.00015	3
9290	-0.00027	0.00043	-2e-05	-3e-05	-0.00035	-0.00024	-4e-05	0.00015	3
9291	-0.00027	0.00043	-2e-05	-3e-05	-0.00035	-0.00024	-4e-05	0.00015	3
9292	-0.00027	0.00043	-2e-05	-3e-05	-0.00035	-0.00024	-4e-05	0.00015	3
9293	-0.00027	0.00043	-2e-05	-3e-05	-0.00035	-0.00024	-4e-05	0.00015	3
9294	-0.00027	0.00043	-2e-05	-3e-05	-0.00035	-0.00024	-4e-05	0.00015	3
9295	-0.00027	0.00043	-2e-05	-3e-05	-0.00035	-0.00024	-4e-05	0.00015	3
9296	-0.00027	0.00043	-2e-05	-3e-05	-0.00035	-0.00024	-4e-05	0.00015	3
9297	-0.00027	0.00043	-2e-05	-3e-05	-0.00035	-0.00024	-4e-05	0.00015	3
9298	-0.00027	0.00043	-2e-05	-3e-05	-0.00035	-0.00024	-4e-05	0.00015	3
9299	-0.00027	0.00043	-2e-05	-3e-05	-0.00035	-0.00024	-4e-05	0.00015	3
9300	-0.00027	0.00043	-2e-05	-3e-05	-0.00035	-0.00024	-4e-05	0.00015	3
9301	-0.00027	0.00043	-2e-05	-3e-05	-0.00035	-0.00024	-4e-05	0.00015	3
9302	-0.00027	0.00043	-2e-05	-3e-05	-0.00035	-0.00024	-4e-05	0.00015	3
9303	3e-05	0.00015	-1e-05	-2e-05	-0.00019	0.00014	-7e-05	-1e-05	3
9304	-9e-05	-4e-05	-2e-05	0	0.00026	0.0003	0.0001	1e-05	3
9305	2e-05	0.00071	8e-05	-2e-05	5e-05	-0.00032	-0.00021	0.00024	3
9306	2e-05	0.00071	8e-05	-2e-05	5e-05	-0.00032	-0.00021	0.00024	3
9307	2e-05	0.00071	8e-05	-2e-05	5e-05	-0.00032	-0.00021	0.00024	3
9308	2e-05	0.00071	8e-05	-2e-05	5e-05	-0.00032	-0.00021	0.00024	3
9309	2e-05	0.00071	8e-05	-2e-05	5e-05	-0.00032	-0.00021	0.00024	3
9310	2e-05	0.00071	8e-05	-2e-05	5e-05	-0.00032	-0.00021	0.00024	3
9311	2e-05	0.00071	8e-05	-2e-05	5e-05	-0.00032	-0.00021	0.00024	3
9312	2e-05	0.00071	8e-05	-2e-05	5e-05	-0.00032	-0.00021	0.00024	3
9313	2e-05	0.00071	8e-05	-2e-05	5e-05	-0.00032	-0.00021	0.00024	3
9314	2e-05	0.00071	8e-05	-2e-05	5e-05	-0.00032	-0.00021	0.00024	3
9315	2e-05	0.00071	8e-05	-2e-05	5e-05	-0.00032	-0.00021	0.00024	3
9316	2e-05	0.00071	8e-05	-2e-05	5e-05	-0.00032	-0.00021	0.00024	3
9317	2e-05	0.00071	8e-05	-2e-05	5e-05	-0.00032	-0.00021	0.00024	3
9318	3e-05	0.00013	-8e-05	-8e-05	-0.00015	-0.00033	-8e-05	0.00017	3
9319	9e-05	0.00032	7e-05	3e-05	8e-05	0.00015	0.00021	5e-05	3
9320	-3e-05	-0.00026	1e-05	7e-05	-1e-05	-0.00013	-1e-05	0.00014	3
9321	-3e-05	-0.00026	1e-05	7e-05	-1e-05	-0.00013	-1e-05	0.00014	3
9322	-3e-05	-0.00026	1e-05	7e-05	-1e-05	-0.00013	-1e-05	0.00014	3
9323	-3e-05	-0.00026	1e-05	7e-05	-1e-05	-0.00013	-1e-05	0.00014	3
9324	-3e-05	-0.00026	1e-05	7e-05	-1e-05	-0.00013	-1e-05	0.00014	3
9325	-3e-05	-0.00026	1e-05	7e-05	-1e-05	-0.00013	-1e-05	0.00014	3
9326	-3e-05	-0.00026	1e-05	7e-05	-1e-05	-0.00013	-1e-05	0.00014	3
9327	-3e-05	-0.00026	1e-05	7e-05	-1e-05	-0.00013	-1e-05	0.00014	3
9328	-3e-05	-0.00026	1e-05	7e-05	-1e-05	-0.00013	-1e-05	0.00014	3
9329	-3e-05	-0.00026	1e-05	7e-05	-1e-05	-0.00013	-1e-05	0.00014	3
9330	-3e-05	-0.00026	1e-05	7e-05	-1e-05	-0.00013	-1e-05	0.00014	3
9331	-3e-05	-0.00026	1e-05	7e-05	-1e-05	-0.00013	-1e-05	0.00014	3
9332	-3e-05	-0.00026	1e-05	7e-05	-1e-05	-0.00013	-1e-05	0.00014	3
9333	-3e-05	-0.00026	1e-05	7e-05	-1e-05	-0.00013	-1e-05	0.00014	3
9334	-3e-05	-0.00026	1e-05	7e-05	-1e-05	-0.00013	-1e-05	0.00014	3
9335	-3e-05	-0.00026	1e-05	7e-05	-1e-05	-0.00013	-1e-05	0.00014	3
9336	-3e-05	-0.00026	1e-05	7e-05	-1e-05	-0.00013	-1e-05	0.00014	3
9338	-3e-05	-0.00026	1e-05	7e-05	-1e-05	-0.00013	-1e-05	0.00014	3
9339	-3e-05	-0.00026	1e-05	7e-05	-1e-05	-0.00013	-1e-05	0.00014	3
9340	-3e-05	-0.00026	1e-05	7e-05	-1e-05	-0.00013	-1e-05	0.00014	3
9341	0.00024	-2e-05	-5e-05	2e-05	-3e-05	7e-05	6e-05	0.00014	3
9342	8e-05	0.00026	7e-05	-4e-05	-0.00028	-0.00035	-2e-05	0.00053	3
9343	8e-05	0.00026	7e-05	-4e-05	-0.00028	-0.00035	-2e-05	0.00053	3
9344	8e-05	0.00026	7e-05	-4e-05	-0.00028	-0.00035	-2e-05	0.00053	3
9345	8e-05	0.00026	7e-05	-4e-05	-0.00028	-0.00035	-2e-05	0.00053	3
9346	8e-05	0.00026	7e-05	-4e-05	-0.00028	-0.00035	-2e-05	0.00053	3
9347	8e-05	0.00026	7e-05	-4e-05	-0.00028	-0.00035	-2e-05	0.00053	3
9348	8e-05	0.00026	7e-05	-4e-05	-0.00028	-0.00035	-2e-05	0.00053	3
9349	8e-05	0.00026	7e-05	-4e-05	-0.00028	-0.00035	-2e-05	0.00053	3
9350	8e-05	0.00026	7e-05	-4e-05	-0.00028	-0.00035	-2e-05	0.00053	3
9351	8e-05	0.00026	7e-05	-4e-05	-0.00028	-0.00035	-2e-05	0.00053	3
9352	8e-05	0.00026	7e-05	-4e-05	-0.00028	-0.00035	-2e-05	0.00053	3
9353	8e-05	0.00026	7e-05	-4e-05	-0.00028	-0.00035	-2e-05	0.00053	3
9354	8e-05	0.00026	7e-05	-4e-05	-0.00028	-0.00035	-2e-05	0.00053	3
9355	8e-05	0.00026	7e-05	-4e-05	-0.00028	-0.00035	-2e-05	0.00053	3
9356	8e-05	0.00026	7e-05	-4e-05	-0.00028	-0.00035	-2e-05	0.00053	3
9357	8e-05	0.00026	7e-05	-4e-05	-0.00028	-0.00035	-2e-05	0.00053	3
9358	8e-05	0.00026	7e-05	-4e-05	-0.00028	-0.00035	-2e-05	0.00053	3
9359	8e-05	0.00026	7e-05	-4e-05	-0.00028	-0.00035	-2e-05	0.00053	3
9360	8e-05	0.00026	7e-05	-4e-05	-0.00028	-0.00035	-2e-05	0.00053	3
9361	8e-05	0.00026	7e-05	-4e-05	-0.00028	-0.00035	-2e-05	0.00053	3
9362	8e-05	0.00026	7e-05	-4e-05	-0.00028	-0.00035	-2e-05	0.00053	3
9363	8e-05	0.00026	7e-05	-4e-05	-0.00028	-0.00035	-2e-05	0.00053	3
9364	8e-05	0.00026	7e-05	-4e-05	-0.00028	-0.00035	-2e-05	0.00053	3
9365	0.0002	7e-05	5e-05	-1e-05	7e-05	0.00038	0.00019	0.00015	3
9366	0.00014	-0.00026	0	-4e-05	0	0.00027	0.00011	-0.00019	3
9367	0.00014	-0.00026	0	-4e-05	0	0.00027	0.00011	-0.00019	3
9368	0.00014	-0.00026	0	-4e-05	0	0.00027	0.00011	-0.00019	3
9369	0.00014	-0.00026	0	-4e-05	0	0.00027	0.00011	-0.00019	3
9370	0.00014	-0.00026	0	-4e-05	0	0.00027	0.00011	-0.00019	3
9371	0.00014	-0.00026	0	-4e-05	0	0.00027	0.00011	-0.00019	3
9372	0.00014	-0.00026	0	-4e-05	0	0.00027	0.00011	-0.00019	3
9373	0.00014	-0.00026	0	-4e-05	0	0.00027	0.00011	-0.00019	3
9374	0.00014	-0.00026	0	-4e-05	0	0.00027	0.00011	-0.00019	3
9375	0.00014	-0.00026	0	-4e-05	0	0.00027	0.00011	-0.00019	3
9376	0.00014	-0.00026	0	-4e-05	0	0.00027	0.00011	-0.00019	3
9377	-5e-05	-0.00056	-0.00015	-5e-05	-3e-05	6e-05	-9e-05	5e-05	3
9378	-5e-05	-0.00056	-0.00015	-5e-05	-3e-05	6e-05	-9e-05	5e-05	3
9379	-5e-05	-0.00056	-0.00015	-5e-05	-3e-05	6e-05	-9e-05	5e-05	3
9380	-5e-05	-0.00056	-0.00015	-5e-05	-3e-05	6e-05	-9e-05	5e-05	3
9381	-5e-05	-0.00056	-0.00015	-5e-05	-3e-05	6e-05	-9e-05	5e-05	3
9382	-5e-05	-0.00056	-0.00015	-5e-05	-3e-05	6e-05	-9e-05	5e-05	3
9383	-5e-05	-0.00056	-0.00015	-5e-05	-3e-05	6e-05	-9e-05	5e-05	3
9384	8e-05	0.0001	0.00015	0	-1e-05	-0.00018	-6e-05	-0.00015	3
9385	8e-05	0.0001	0.00015	0	-1e-05	-0.00018	-6e-05	-0.00015	3
9386	8e-05	0.0001	0.00015	0	-1e-05	-0.00018	-6e-05	-0.00015	3
9388	8e-05	0.0001	0.00015	0	-1e-05	-0.00018	-6e-05	-0.00015	3
9390	8e-05	0.0001	0.00015	0	-1e-05	-0.00018	-6e-05	-0.00015	3
9391	8e-05	0.0001	0.00015	0	-1e-05	-0.00018	-6e-05	-0.00015	3
9392	8e-05	0.0001	0.00015	0	-1e-05	-0.00018	-6e-05	-0.00015	3
9393	8e-05	0.0001	0.00015	0	-1e-05	-0.00018	-6e-05	-0.00015	3
9394	8e-05	0.0001	0.00015	0	-1e-05	-0.00018	-6e-05	-0.00015	3
9395	8e-05	0.0001	0.00015	0	-1e-05	-0.00018	-6e-05	-0.00015	3
9396	8e-05	0.0001	0.00015	0	-1e-05	-0.00018	-6e-05	-0.00015	3
9397	8e-05	0.0001	0.00015	0	-1e-05	-0.00018	-6e-05	-0.00015	3
9398	8e-05	0.0001	0.00015	0	-1e-05	-0.00018	-6e-05	-0.00015	3
9399	8e-05	0.0001	0.00015	0	-1e-05	-0.00018	-6e-05	-0.00015	3
9400	8e-05	0.0001	0.00015	0	-1e-05	-0.00018	-6e-05	-0.00015	3
9401	-0.00011	-0.00021	0.00011	6e-05	0.00056	0.00051	0.00012	-0.0001	3
9402	-0.00011	-0.00021	0.00011	6e-05	0.00056	0.00051	0.00012	-0.0001	3
9403	-7e-05	-0.00038	-6e-05	-2e-05	-3e-05	-7e-05	3e-05	-0.00013	3
9404	-7e-05	-0.00038	-6e-05	-2e-05	-3e-05	-7e-05	3e-05	-0.00013	3
9405	-7e-05	-0.00038	-6e-05	-2e-05	-3e-05	-7e-05	3e-05	-0.00013	3
9406	-7e-05	-0.00038	-6e-05	-2e-05	-3e-05	-7e-05	3e-05	-0.00013	3
9407	-7e-05	-0.00038	-6e-05	-2e-05	-3e-05	-7e-05	3e-05	-0.00013	3
9408	-7e-05	-0.00038	-6e-05	-2e-05	-3e-05	-7e-05	3e-05	-0.00013	3
9409	-7e-05	-0.00038	-6e-05	-2e-05	-3e-05	-7e-05	3e-05	-0.00013	3
9410	-7e-05	-0.00038	-6e-05	-2e-05	-3e-05	-7e-05	3e-05	-0.00013	3
9411	-7e-05	-0.00038	-6e-05	-2e-05	-3e-05	-7e-05	3e-05	-0.00013	3
9412	-7e-05	-0.00038	-6e-05	-2e-05	-3e-05	-7e-05	3e-05	-0.00013	3
9413	-7e-05	-0.00038	-6e-05	-2e-05	-3e-05	-7e-05	3e-05	-0.00013	3
9414	-7e-05	-0.00038	-6e-05	-2e-05	-3e-05	-7e-05	3e-05	-0.00013	3
9415	-7e-05	-0.00038	-6e-05	-2e-05	-3e-05	-7e-05	3e-05	-0.00013	3
9416	-7e-05	-0.00038	-6e-05	-2e-05	-3e-05	-7e-05	3e-05	-0.00013	3
9417	-7e-05	-0.00038	-6e-05	-2e-05	-3e-05	-7e-05	3e-05	-0.00013	3
9418	-7e-05	-0.00038	-6e-05	-2e-05	-3e-05	-7e-05	3e-05	-0.00013	3
9419	-7e-05	-0.00038	-6e-05	-2e-05	-3e-05	-7e-05	3e-05	-0.00013	3
9420	-7e-05	-0.00038	-6e-05	-2e-05	-3e-05	-7e-05	3e-05	-0.00013	3
9421	-7e-05	-0.00038	-6e-05	-2e-05	-3e-05	-7e-05	3e-05	-0.00013	3
9422	-7e-05	-0.00038	-6e-05	-2e-05	-3e-05	-7e-05	3e-05	-0.00013	3
9423	-0.00013	-0.00033	-0.00029	-4e-05	-3e-05	4e-05	3e-05	-0.00013	3
9424	-3e-05	-6e-05	5e-05	-4e-05	-9e-05	-3e-05	-0.00018	0.0003	3
9425	-4e-05	0.00031	2e-05	0	0.00011	0.00021	0.00016	-0.00049	3
9426	-4e-05	0.00031	2e-05	0	0.00011	0.00021	0.00016	-0.00049	3
9427	-4e-05	0.00031	2e-05	0	0.00011	0.00021	0.00016	-0.00049	3
9428	-4e-05	0.00031	2e-05	0	0.00011	0.00021	0.00016	-0.00049	3
9429	-4e-05	0.00031	2e-05	0	0.00011	0.00021	0.00016	-0.00049	3
9430	-4e-05	0.00031	2e-05	0	0.00011	0.00021	0.00016	-0.00049	3
9431	-4e-05	0.00031	2e-05	0	0.00011	0.00021	0.00016	-0.00049	3
9432	-4e-05	0.00031	2e-05	0	0.00011	0.00021	0.00016	-0.00049	3
9433	-4e-05	0.00031	2e-05	0	0.00011	0.00021	0.00016	-0.00049	3
9434	-4e-05	0.00031	2e-05	0	0.00011	0.00021	0.00016	-0.00049	3
9435	-4e-05	0.00031	2e-05	0	0.00011	0.00021	0.00016	-0.00049	3
9436	-4e-05	0.00031	2e-05	0	0.00011	0.00021	0.00016	-0.00049	3
9439	-6e-05	-0.00022	-4e-05	1e-05	0.00028	0.00014	0	-4e-05	3
9440	-6e-05	-0.00022	-4e-05	1e-05	0.00028	0.00014	0	-4e-05	3
9441	-6e-05	-0.00022	-4e-05	1e-05	0.00028	0.00014	0	-4e-05	3
9442	-6e-05	-0.00022	-4e-05	1e-05	0.00028	0.00014	0	-4e-05	3
9443	-6e-05	-0.00022	-4e-05	1e-05	0.00028	0.00014	0	-4e-05	3
9444	-4e-05	-0.00024	-6e-05	-4e-05	-9e-05	7e-05	-5e-05	3e-05	3
9445	-4e-05	-0.00024	-6e-05	-4e-05	-9e-05	7e-05	-5e-05	3e-05	3
9446	-4e-05	-0.00024	-6e-05	-4e-05	-9e-05	7e-05	-5e-05	3e-05	3
9447	-4e-05	-0.00024	-6e-05	-4e-05	-9e-05	7e-05	-5e-05	3e-05	3
9448	-4e-05	-0.00024	-6e-05	-4e-05	-9e-05	7e-05	-5e-05	3e-05	3
9449	-4e-05	-0.00024	-6e-05	-4e-05	-9e-05	7e-05	-5e-05	3e-05	3
9450	-4e-05	-0.00024	-6e-05	-4e-05	-9e-05	7e-05	-5e-05	3e-05	3
9451	-4e-05	-0.00024	-6e-05	-4e-05	-9e-05	7e-05	-5e-05	3e-05	3
9452	-4e-05	-0.00024	-6e-05	-4e-05	-9e-05	7e-05	-5e-05	3e-05	3
9453	-4e-05	-0.00024	-6e-05	-4e-05	-9e-05	7e-05	-5e-05	3e-05	3
9454	-4e-05	-0.00024	-6e-05	-4e-05	-9e-05	7e-05	-5e-05	3e-05	3
9455	-4e-05	-0.00024	-6e-05	-4e-05	-9e-05	7e-05	-5e-05	3e-05	3
9456	-4e-05	-0.00024	-6e-05	-4e-05	-9e-05	7e-05	-5e-05	3e-05	3
9457	-4e-05	-0.00024	-6e-05	-4e-05	-9e-05	7e-05	-5e-05	3e-05	3
9458	-4e-05	-0.00024	-6e-05	-4e-05	-9e-05	7e-05	-5e-05	3e-05	3
9459	-4e-05	-0.00024	-6e-05	-4e-05	-9e-05	7e-05	-5e-05	3e-05	3
9460	-4e-05	-0.00024	-6e-05	-4e-05	-9e-05	7e-05	-5e-05	3e-05	3
9461	-5e-05	-0.00048	3e-05	2e-05	-0.00027	-0.00036	-0.0001	-7e-05	3
9462	2e-05	0	-1e-05	-1e-05	-0.0001	-0.00016	-5e-05	7e-05	3
9463	2e-05	0	-1e-05	-1e-05	-0.0001	-0.00016	-5e-05	7e-05	3
9464	2e-05	0	-1e-05	-1e-05	-0.0001	-0.00016	-5e-05	7e-05	3
9465	2e-05	0	-1e-05	-1e-05	-0.0001	-0.00016	-5e-05	7e-05	3
9466	2e-05	0	-1e-05	-1e-05	-0.0001	-0.00016	-5e-05	7e-05	3
9467	2e-05	0	-1e-05	-1e-05	-0.0001	-0.00016	-5e-05	7e-05	3
9468	2e-05	0	-1e-05	-1e-05	-0.0001	-0.00016	-5e-05	7e-05	3
9469	2e-05	0	-1e-05	-1e-05	-0.0001	-0.00016	-5e-05	7e-05	3
9470	2e-05	0	-1e-05	-1e-05	-0.0001	-0.00016	-5e-05	7e-05	3
9471	2e-05	0	-1e-05	-1e-05	-0.0001	-0.00016	-5e-05	7e-05	3
9472	2e-05	0	-1e-05	-1e-05	-0.0001	-0.00016	-5e-05	7e-05	3
9473	2e-05	0	-1e-05	-1e-05	-0.0001	-0.00016	-5e-05	7e-05	3
9474	2e-05	0	-1e-05	-1e-05	-0.0001	-0.00016	-5e-05	7e-05	3
9475	2e-05	0	-1e-05	-1e-05	-0.0001	-0.00016	-5e-05	7e-05	3
9476	2e-05	0	-1e-05	-1e-05	-0.0001	-0.00016	-5e-05	7e-05	3
9477	2e-05	0	-1e-05	-1e-05	-0.0001	-0.00016	-5e-05	7e-05	3
9478	2e-05	0	-1e-05	-1e-05	-0.0001	-0.00016	-5e-05	7e-05	3
9479	2e-05	0	-1e-05	-1e-05	-0.0001	-0.00016	-5e-05	7e-05	3
9480	2e-05	0	-1e-05	-1e-05	-0.0001	-0.00016	-5e-05	7e-05	3
9481	2e-05	0	-1e-05	-1e-05	-0.0001	-0.00016	-5e-05	7e-05	3
9482	2e-05	0	-1e-05	-1e-05	-0.0001	-0.00016	-5e-05	7e-05	3
9483	-0.0003	0.00015	7e-05	2e-05	0.00031	0.00028	-3e-05	0.00011	3
9484	-0.0003	0.00015	7e-05	2e-05	0.00031	0.00028	-3e-05	0.00011	3
9485	3e-05	-3e-05	-0.00016	-7e-05	-9e-05	-0.00051	-9e-05	-0.0001	3
9486	3e-05	-3e-05	-0.00016	-7e-05	-9e-05	-0.00051	-9e-05	-0.0001	3
9489	3e-05	-3e-05	-0.00016	-7e-05	-9e-05	-0.00051	-9e-05	-0.0001	3
9490	3e-05	-3e-05	-0.00016	-7e-05	-9e-05	-0.00051	-9e-05	-0.0001	3
9491	3e-05	-3e-05	-0.00016	-7e-05	-9e-05	-0.00051	-9e-05	-0.0001	3
9492	3e-05	-3e-05	-0.00016	-7e-05	-9e-05	-0.00051	-9e-05	-0.0001	3
9493	3e-05	-3e-05	-0.00016	-7e-05	-9e-05	-0.00051	-9e-05	-0.0001	3
9494	3e-05	-3e-05	-0.00016	-7e-05	-9e-05	-0.00051	-9e-05	-0.0001	3
9496	3e-05	-3e-05	-0.00016	-7e-05	-9e-05	-0.00051	-9e-05	-0.0001	3
9497	3e-05	-3e-05	-0.00016	-7e-05	-9e-05	-0.00051	-9e-05	-0.0001	3
9498	-0.00014	-0.00047	2e-05	-4e-05	-0.00024	0.00011	2e-05	-8e-05	3
9499	6e-05	0.00014	-4e-05	-8e-05	-0.00037	-0.00023	-6e-05	-9e-05	3
9501	6e-05	0.00014	-4e-05	-8e-05	-0.00037	-0.00023	-6e-05	-9e-05	3
9502	6e-05	0.00014	-4e-05	-8e-05	-0.00037	-0.00023	-6e-05	-9e-05	3
9503	6e-05	0.00014	-4e-05	-8e-05	-0.00037	-0.00023	-6e-05	-9e-05	3
9504	-0.00018	0.00023	-3e-05	-6e-05	-0.00017	-0.0002	1e-05	-0.00012	3
9505	-0.00018	0.00023	-3e-05	-6e-05	-0.00017	-0.0002	1e-05	-0.00012	3
9506	-0.00018	0.00023	-3e-05	-6e-05	-0.00017	-0.0002	1e-05	-0.00012	3
9507	-0.00018	0.00023	-3e-05	-6e-05	-0.00017	-0.0002	1e-05	-0.00012	3
9508	-0.00018	0.00023	-3e-05	-6e-05	-0.00017	-0.0002	1e-05	-0.00012	3
9509	-0.00018	0.00023	-3e-05	-6e-05	-0.00017	-0.0002	1e-05	-0.00012	3
9510	-0.00018	0.00023	-3e-05	-6e-05	-0.00017	-0.0002	1e-05	-0.00012	3
9511	-0.00018	0.00023	-3e-05	-6e-05	-0.00017	-0.0002	1e-05	-0.00012	3
9512	-0.00018	0.00023	-3e-05	-6e-05	-0.00017	-0.0002	1e-05	-0.00012	3
9513	-0.00018	0.00023	-3e-05	-6e-05	-0.00017	-0.0002	1e-05	-0.00012	3
9514	-0.00018	0.00023	-3e-05	-6e-05	-0.00017	-0.0002	1e-05	-0.00012	3
9515	-0.00018	0.00023	-3e-05	-6e-05	-0.00017	-0.0002	1e-05	-0.00012	3
9516	-0.00018	0.00023	-3e-05	-6e-05	-0.00017	-0.0002	1e-05	-0.00012	3
9517	-0.00018	0.00023	-3e-05	-6e-05	-0.00017	-0.0002	1e-05	-0.00012	3
9518	-0.00018	0.00023	-3e-05	-6e-05	-0.00017	-0.0002	1e-05	-0.00012	3
9519	-0.00018	0.00023	-3e-05	-6e-05	-0.00017	-0.0002	1e-05	-0.00012	3
9520	-0.00018	0.00023	-3e-05	-6e-05	-0.00017	-0.0002	1e-05	-0.00012	3
9521	-0.00018	0.00023	-3e-05	-6e-05	-0.00017	-0.0002	1e-05	-0.00012	3
9522	-7e-05	0.00024	1e-05	3e-05	0.0001	0.00012	1e-05	0.00025	3
9523	-7e-05	0.00024	1e-05	3e-05	0.0001	0.00012	1e-05	0.00025	3
9524	-7e-05	0.00024	1e-05	3e-05	0.0001	0.00012	1e-05	0.00025	3
9525	-7e-05	0.00024	1e-05	3e-05	0.0001	0.00012	1e-05	0.00025	3
9526	-7e-05	0.00024	1e-05	3e-05	0.0001	0.00012	1e-05	0.00025	3
9527	9e-05	3e-05	-4e-05	-4e-05	-0.00013	8e-05	5e-05	-5e-05	3
9528	9e-05	3e-05	-4e-05	-4e-05	-0.00013	8e-05	5e-05	-5e-05	3
9529	9e-05	3e-05	-4e-05	-4e-05	-0.00013	8e-05	5e-05	-5e-05	3
9530	9e-05	3e-05	-4e-05	-4e-05	-0.00013	8e-05	5e-05	-5e-05	3
9531	9e-05	3e-05	-4e-05	-4e-05	-0.00013	8e-05	5e-05	-5e-05	3
9532	9e-05	3e-05	-4e-05	-4e-05	-0.00013	8e-05	5e-05	-5e-05	3
9533	9e-05	3e-05	-4e-05	-4e-05	-0.00013	8e-05	5e-05	-5e-05	3
9534	9e-05	3e-05	-4e-05	-4e-05	-0.00013	8e-05	5e-05	-5e-05	3
9535	9e-05	3e-05	-4e-05	-4e-05	-0.00013	8e-05	5e-05	-5e-05	3
9536	9e-05	3e-05	-4e-05	-4e-05	-0.00013	8e-05	5e-05	-5e-05	3
9539	9e-05	3e-05	-4e-05	-4e-05	-0.00013	8e-05	5e-05	-5e-05	3
9541	9e-05	3e-05	-4e-05	-4e-05	-0.00013	8e-05	5e-05	-5e-05	3
9542	9e-05	3e-05	-4e-05	-4e-05	-0.00013	8e-05	5e-05	-5e-05	3
9543	8e-05	-0.0004	7e-05	-1e-05	3e-05	-0.00023	0.00021	-0.00023	3
9544	8e-05	-0.0004	7e-05	-1e-05	3e-05	-0.00023	0.00021	-0.00023	3
9545	-0.00015	-0.00013	-7e-05	2e-05	3e-05	0	-0.00011	-7e-05	3
9546	-0.00015	-0.00013	-7e-05	2e-05	3e-05	0	-0.00011	-7e-05	3
9547	-0.00015	-0.00013	-7e-05	2e-05	3e-05	0	-0.00011	-7e-05	3
9548	-0.00015	-0.00013	-7e-05	2e-05	3e-05	0	-0.00011	-7e-05	3
9549	-0.00015	-0.00013	-7e-05	2e-05	3e-05	0	-0.00011	-7e-05	3
9550	-0.00015	-0.00013	-7e-05	2e-05	3e-05	0	-0.00011	-7e-05	3
9551	-0.00015	-0.00013	-7e-05	2e-05	3e-05	0	-0.00011	-7e-05	3
9552	-0.00015	-0.00013	-7e-05	2e-05	3e-05	0	-0.00011	-7e-05	3
9553	-0.00015	-0.00013	-7e-05	2e-05	3e-05	0	-0.00011	-7e-05	3
9554	-0.00015	-0.00013	-7e-05	2e-05	3e-05	0	-0.00011	-7e-05	3
9555	-0.00015	-0.00013	-7e-05	2e-05	3e-05	0	-0.00011	-7e-05	3
9556	-0.00015	-0.00013	-7e-05	2e-05	3e-05	0	-0.00011	-7e-05	3
9557	-0.00015	-0.00013	-7e-05	2e-05	3e-05	0	-0.00011	-7e-05	3
9558	-0.00015	-0.00013	-7e-05	2e-05	3e-05	0	-0.00011	-7e-05	3
9559	-0.00015	-0.00013	-7e-05	2e-05	3e-05	0	-0.00011	-7e-05	3
9560	-0.00015	-0.00013	-7e-05	2e-05	3e-05	0	-0.00011	-7e-05	3
9561	-0.00015	-0.00013	-7e-05	2e-05	3e-05	0	-0.00011	-7e-05	3
9562	-0.00015	-0.00013	-7e-05	2e-05	3e-05	0	-0.00011	-7e-05	3
9563	-0.00015	-0.00013	-7e-05	2e-05	3e-05	0	-0.00011	-7e-05	3
9564	-0.00015	-0.00013	-7e-05	2e-05	3e-05	0	-0.00011	-7e-05	3
9566	-0.00015	-0.00013	-7e-05	2e-05	3e-05	0	-0.00011	-7e-05	3
9567	-0.00015	-0.00013	-7e-05	2e-05	3e-05	0	-0.00011	-7e-05	3
9568	-0.00015	-0.00013	-7e-05	2e-05	3e-05	0	-0.00011	-7e-05	3
9569	0	-0.00015	-1e-05	2e-05	0.00013	0.0001	-9e-05	-0.0001	3
9570	0	-0.00015	-1e-05	2e-05	0.00013	0.0001	-9e-05	-0.0001	3
9571	0	-0.00015	-1e-05	2e-05	0.00013	0.0001	-9e-05	-0.0001	3
9572	0	-0.00015	-1e-05	2e-05	0.00013	0.0001	-9e-05	-0.0001	3
9573	0	-0.00015	-1e-05	2e-05	0.00013	0.0001	-9e-05	-0.0001	3
9574	0	-0.00015	-1e-05	2e-05	0.00013	0.0001	-9e-05	-0.0001	3
9575	0	-0.00015	-1e-05	2e-05	0.00013	0.0001	-9e-05	-0.0001	3
9576	0	-0.00015	-1e-05	2e-05	0.00013	0.0001	-9e-05	-0.0001	3
9577	0	-0.00015	-1e-05	2e-05	0.00013	0.0001	-9e-05	-0.0001	3
9578	0	-0.00015	-1e-05	2e-05	0.00013	0.0001	-9e-05	-0.0001	3
9579	0	-0.00015	-1e-05	2e-05	0.00013	0.0001	-9e-05	-0.0001	3
9580	6e-05	-0.00015	1e-05	6e-05	0.00031	0.00018	0.00025	0.00037	3
9581	0.0001	0.00013	-6e-05	-4e-05	-0.00012	-8e-05	5e-05	0.00061	3
9583	3e-05	-7e-05	3e-05	1e-05	6e-05	0.00021	-6e-05	5e-05	3
9584	3e-05	-7e-05	3e-05	1e-05	6e-05	0.00021	-6e-05	5e-05	3
9585	3e-05	-7e-05	3e-05	1e-05	6e-05	0.00021	-6e-05	5e-05	3
9586	3e-05	-7e-05	3e-05	1e-05	6e-05	0.00021	-6e-05	5e-05	3
9589	3e-05	-7e-05	3e-05	1e-05	6e-05	0.00021	-6e-05	5e-05	3
9590	3e-05	-7e-05	3e-05	1e-05	6e-05	0.00021	-6e-05	5e-05	3
9591	3e-05	-7e-05	3e-05	1e-05	6e-05	0.00021	-6e-05	5e-05	3
9592	3e-05	-7e-05	3e-05	1e-05	6e-05	0.00021	-6e-05	5e-05	3
9593	3e-05	-7e-05	3e-05	1e-05	6e-05	0.00021	-6e-05	5e-05	3
9594	3e-05	-7e-05	3e-05	1e-05	6e-05	0.00021	-6e-05	5e-05	3
9595	3e-05	-7e-05	3e-05	1e-05	6e-05	0.00021	-6e-05	5e-05	3
9596	3e-05	-7e-05	3e-05	1e-05	6e-05	0.00021	-6e-05	5e-05	3
9597	3e-05	-7e-05	3e-05	1e-05	6e-05	0.00021	-6e-05	5e-05	3
9598	3e-05	-7e-05	3e-05	1e-05	6e-05	0.00021	-6e-05	5e-05	3
9599	3e-05	-7e-05	3e-05	1e-05	6e-05	0.00021	-6e-05	5e-05	3
9600	3e-05	-7e-05	3e-05	1e-05	6e-05	0.00021	-6e-05	5e-05	3
9601	3e-05	-7e-05	3e-05	1e-05	6e-05	0.00021	-6e-05	5e-05	3
9602	3e-05	-7e-05	3e-05	1e-05	6e-05	0.00021	-6e-05	5e-05	3
9603	0.00024	-0.00024	1e-05	-3e-05	3e-05	2e-05	7e-05	8e-05	3
9604	0.00024	-0.00024	1e-05	-3e-05	3e-05	2e-05	7e-05	8e-05	3
9605	-0.00017	0.00036	2e-05	-1e-05	-7e-05	-0.00036	-0.00011	0.00028	3
9606	-0.00017	0.00036	2e-05	-1e-05	-7e-05	-0.00036	-0.00011	0.00028	3
9607	-0.00017	0.00036	2e-05	-1e-05	-7e-05	-0.00036	-0.00011	0.00028	3
9608	-0.00017	0.00036	2e-05	-1e-05	-7e-05	-0.00036	-0.00011	0.00028	3
9609	-0.00017	0.00036	2e-05	-1e-05	-7e-05	-0.00036	-0.00011	0.00028	3
9610	-0.00017	0.00036	2e-05	-1e-05	-7e-05	-0.00036	-0.00011	0.00028	3
9611	-0.00017	0.00036	2e-05	-1e-05	-7e-05	-0.00036	-0.00011	0.00028	3
9612	-0.00017	0.00036	2e-05	-1e-05	-7e-05	-0.00036	-0.00011	0.00028	3
9613	-0.00017	0.00036	2e-05	-1e-05	-7e-05	-0.00036	-0.00011	0.00028	3
9614	-0.00017	0.00036	2e-05	-1e-05	-7e-05	-0.00036	-0.00011	0.00028	3
9615	-0.00017	0.00036	2e-05	-1e-05	-7e-05	-0.00036	-0.00011	0.00028	3
9616	-0.00017	0.00036	2e-05	-1e-05	-7e-05	-0.00036	-0.00011	0.00028	3
9617	-0.00017	0.00036	2e-05	-1e-05	-7e-05	-0.00036	-0.00011	0.00028	3
9618	-6e-05	0.00024	0	-7e-05	-0.00023	-0.00023	-6e-05	-0.00028	3
9619	-6e-05	0.00024	0	-7e-05	-0.00023	-0.00023	-6e-05	-0.00028	3
9620	-6e-05	0.00024	0	-7e-05	-0.00023	-0.00023	-6e-05	-0.00028	3
9621	-6e-05	0.00024	0	-7e-05	-0.00023	-0.00023	-6e-05	-0.00028	3
9622	-6e-05	0.00024	0	-7e-05	-0.00023	-0.00023	-6e-05	-0.00028	3
9623	-6e-05	0.00024	0	-7e-05	-0.00023	-0.00023	-6e-05	-0.00028	3
9624	-6e-05	0.00024	0	-7e-05	-0.00023	-0.00023	-6e-05	-0.00028	3
9625	-6e-05	0.00024	0	-7e-05	-0.00023	-0.00023	-6e-05	-0.00028	3
9626	-6e-05	0.00024	0	-7e-05	-0.00023	-0.00023	-6e-05	-0.00028	3
9627	-6e-05	0.00024	0	-7e-05	-0.00023	-0.00023	-6e-05	-0.00028	3
9628	-6e-05	0.00024	0	-7e-05	-0.00023	-0.00023	-6e-05	-0.00028	3
9629	-6e-05	0.00024	0	-7e-05	-0.00023	-0.00023	-6e-05	-0.00028	3
9630	-6e-05	0.00024	0	-7e-05	-0.00023	-0.00023	-6e-05	-0.00028	3
9631	-6e-05	0.00024	0	-7e-05	-0.00023	-0.00023	-6e-05	-0.00028	3
9632	-6e-05	0.00024	0	-7e-05	-0.00023	-0.00023	-6e-05	-0.00028	3
9633	0.00018	2e-05	4e-05	4e-05	0.00046	0.00071	0.00014	-0.00025	3
9634	0.00018	2e-05	4e-05	4e-05	0.00046	0.00071	0.00014	-0.00025	3
9635	0.00018	2e-05	4e-05	4e-05	0.00046	0.00071	0.00014	-0.00025	3
9636	0.00018	2e-05	4e-05	4e-05	0.00046	0.00071	0.00014	-0.00025	3
9638	0.00018	2e-05	4e-05	4e-05	0.00046	0.00071	0.00014	-0.00025	3
9640	0.00018	2e-05	4e-05	4e-05	0.00046	0.00071	0.00014	-0.00025	3
9641	0.00018	2e-05	4e-05	4e-05	0.00046	0.00071	0.00014	-0.00025	3
9642	0.00018	2e-05	4e-05	4e-05	0.00046	0.00071	0.00014	-0.00025	3
9643	0.00018	2e-05	4e-05	4e-05	0.00046	0.00071	0.00014	-0.00025	3
9644	0.00018	2e-05	4e-05	4e-05	0.00046	0.00071	0.00014	-0.00025	3
9645	0.00018	2e-05	4e-05	4e-05	0.00046	0.00071	0.00014	-0.00025	3
9646	0.00018	2e-05	4e-05	4e-05	0.00046	0.00071	0.00014	-0.00025	3
9647	0.00018	2e-05	4e-05	4e-05	0.00046	0.00071	0.00014	-0.00025	3
9648	0.00018	2e-05	4e-05	4e-05	0.00046	0.00071	0.00014	-0.00025	3
9649	-3e-05	2e-05	4e-05	2e-05	-0.0002	2e-05	-0.00011	-0.00013	3
9650	-2e-05	0.0001	0	-5e-05	-7e-05	-0.00033	1e-05	-0.0001	3
9651	-2e-05	0.0001	0	-5e-05	-7e-05	-0.00033	1e-05	-0.0001	3
9652	-2e-05	0.0001	0	-5e-05	-7e-05	-0.00033	1e-05	-0.0001	3
9653	-2e-05	0.0001	0	-5e-05	-7e-05	-0.00033	1e-05	-0.0001	3
9654	-2e-05	0.0001	0	-5e-05	-7e-05	-0.00033	1e-05	-0.0001	3
9655	-2e-05	0.0001	0	-5e-05	-7e-05	-0.00033	1e-05	-0.0001	3
9656	-2e-05	0.0001	0	-5e-05	-7e-05	-0.00033	1e-05	-0.0001	3
9657	-2e-05	0.0001	0	-5e-05	-7e-05	-0.00033	1e-05	-0.0001	3
9658	-2e-05	0.0001	0	-5e-05	-7e-05	-0.00033	1e-05	-0.0001	3
9659	-2e-05	0.0001	0	-5e-05	-7e-05	-0.00033	1e-05	-0.0001	3
9660	-2e-05	0.0001	0	-5e-05	-7e-05	-0.00033	1e-05	-0.0001	3
9661	-2e-05	0.0001	0	-5e-05	-7e-05	-0.00033	1e-05	-0.0001	3
9662	-2e-05	0.0001	0	-5e-05	-7e-05	-0.00033	1e-05	-0.0001	3
9663	-0.00025	-9e-05	5e-05	5e-05	0.0005	0.00018	3e-05	-0.00021	3
9665	-0.00018	-0.00028	-8e-05	-4e-05	-0.00011	-9e-05	5e-05	-0.00027	3
9666	-0.00018	-0.00028	-8e-05	-4e-05	-0.00011	-9e-05	5e-05	-0.00027	3
9667	-0.00018	-0.00028	-8e-05	-4e-05	-0.00011	-9e-05	5e-05	-0.00027	3
9668	-0.00018	-0.00028	-8e-05	-4e-05	-0.00011	-9e-05	5e-05	-0.00027	3
9669	-0.00018	-0.00028	-8e-05	-4e-05	-0.00011	-9e-05	5e-05	-0.00027	3
9670	-0.00018	-0.00028	-8e-05	-4e-05	-0.00011	-9e-05	5e-05	-0.00027	3
9671	-0.00018	-0.00028	-8e-05	-4e-05	-0.00011	-9e-05	5e-05	-0.00027	3
9672	-0.00018	-0.00028	-8e-05	-4e-05	-0.00011	-9e-05	5e-05	-0.00027	3
9673	-0.00018	-0.00028	-8e-05	-4e-05	-0.00011	-9e-05	5e-05	-0.00027	3
9674	-0.00018	-0.00028	-8e-05	-4e-05	-0.00011	-9e-05	5e-05	-0.00027	3
9675	-0.00018	-0.00028	-8e-05	-4e-05	-0.00011	-9e-05	5e-05	-0.00027	3
9676	-0.00018	-0.00028	-8e-05	-4e-05	-0.00011	-9e-05	5e-05	-0.00027	3
9677	-0.00018	-0.00028	-8e-05	-4e-05	-0.00011	-9e-05	5e-05	-0.00027	3
9678	-0.00018	-0.00028	-8e-05	-4e-05	-0.00011	-9e-05	5e-05	-0.00027	3
9679	-0.00018	-0.00028	-8e-05	-4e-05	-0.00011	-9e-05	5e-05	-0.00027	3
9680	-0.00018	-0.00028	-8e-05	-4e-05	-0.00011	-9e-05	5e-05	-0.00027	3
9681	-0.00018	-0.00028	-8e-05	-4e-05	-0.00011	-9e-05	5e-05	-0.00027	3
9682	-0.00018	-0.00028	-8e-05	-4e-05	-0.00011	-9e-05	5e-05	-0.00027	3
9683	-0.00018	-0.00028	-8e-05	-4e-05	-0.00011	-9e-05	5e-05	-0.00027	3
9684	-0.00018	-0.00028	-8e-05	-4e-05	-0.00011	-9e-05	5e-05	-0.00027	3
9685	-0.00018	-0.00028	-8e-05	-4e-05	-0.00011	-9e-05	5e-05	-0.00027	3
9686	7e-05	9e-05	0	-5e-05	-1e-05	0.00015	-9e-05	0.00027	3
9689	-0.00028	0.00015	-4e-05	-3e-05	-2e-05	9e-05	7e-05	0	3
9690	-0.00028	0.00015	-4e-05	-3e-05	-2e-05	9e-05	7e-05	0	3
9691	-0.00028	0.00015	-4e-05	-3e-05	-2e-05	9e-05	7e-05	0	3
9692	-0.00028	0.00015	-4e-05	-3e-05	-2e-05	9e-05	7e-05	0	3
9693	-0.00028	0.00015	-4e-05	-3e-05	-2e-05	9e-05	7e-05	0	3
9694	-0.00028	0.00015	-4e-05	-3e-05	-2e-05	9e-05	7e-05	0	3
9695	-0.00028	0.00015	-4e-05	-3e-05	-2e-05	9e-05	7e-05	0	3
9696	-0.00028	0.00015	-4e-05	-3e-05	-2e-05	9e-05	7e-05	0	3
9697	-0.00028	0.00015	-4e-05	-3e-05	-2e-05	9e-05	7e-05	0	3
9698	-0.00028	0.00015	-4e-05	-3e-05	-2e-05	9e-05	7e-05	0	3
9699	-0.00028	0.00015	-4e-05	-3e-05	-2e-05	9e-05	7e-05	0	3
9700	-0.00028	0.00015	-4e-05	-3e-05	-2e-05	9e-05	7e-05	0	3
9701	-0.00028	0.00015	-4e-05	-3e-05	-2e-05	9e-05	7e-05	0	3
9702	-0.00028	0.00015	-4e-05	-3e-05	-2e-05	9e-05	7e-05	0	3
9703	-0.00028	0.00015	-4e-05	-3e-05	-2e-05	9e-05	7e-05	0	3
9704	-0.00028	0.00015	-4e-05	-3e-05	-2e-05	9e-05	7e-05	0	3
9705	-0.00028	0.00015	-4e-05	-3e-05	-2e-05	9e-05	7e-05	0	3
9706	-0.00028	0.00015	-4e-05	-3e-05	-2e-05	9e-05	7e-05	0	3
9707	-0.00028	0.00015	-4e-05	-3e-05	-2e-05	9e-05	7e-05	0	3
9708	0.0001	-0.0003	-4e-05	-1e-05	-5e-05	-3e-05	1e-05	3e-05	3
9709	0.0001	-0.0003	-4e-05	-1e-05	-5e-05	-3e-05	1e-05	3e-05	3
9710	8e-05	-0.00017	5e-05	3e-05	0.00044	0.00032	3e-05	3e-05	3
9711	8e-05	-0.00017	5e-05	3e-05	0.00044	0.00032	3e-05	3e-05	3
9712	8e-05	-0.00017	5e-05	3e-05	0.00044	0.00032	3e-05	3e-05	3
9713	8e-05	-0.00017	5e-05	3e-05	0.00044	0.00032	3e-05	3e-05	3
9714	8e-05	-0.00017	5e-05	3e-05	0.00044	0.00032	3e-05	3e-05	3
9715	8e-05	-0.00017	5e-05	3e-05	0.00044	0.00032	3e-05	3e-05	3
9716	8e-05	-0.00017	5e-05	3e-05	0.00044	0.00032	3e-05	3e-05	3
9717	8e-05	-0.00017	5e-05	3e-05	0.00044	0.00032	3e-05	3e-05	3
9718	8e-05	-0.00017	5e-05	3e-05	0.00044	0.00032	3e-05	3e-05	3
9719	8e-05	-0.00017	5e-05	3e-05	0.00044	0.00032	3e-05	3e-05	3
9720	8e-05	-0.00017	5e-05	3e-05	0.00044	0.00032	3e-05	3e-05	3
9721	8e-05	-0.00017	5e-05	3e-05	0.00044	0.00032	3e-05	3e-05	3
9722	8e-05	-0.00017	5e-05	3e-05	0.00044	0.00032	3e-05	3e-05	3
9723	-3e-05	0.00022	2e-05	3e-05	-4e-05	-8e-05	-6e-05	0.00012	3
9724	-3e-05	0.00022	2e-05	3e-05	-4e-05	-8e-05	-6e-05	0.00012	3
9725	5e-05	-0.0002	-0.0001	-3e-05	-0.00015	-8e-05	0.0001	0.00031	3
9726	5e-05	-0.0002	-0.0001	-3e-05	-0.00015	-8e-05	0.0001	0.00031	3
9727	5e-05	-0.0002	-0.0001	-3e-05	-0.00015	-8e-05	0.0001	0.00031	3
9728	5e-05	-0.0002	-0.0001	-3e-05	-0.00015	-8e-05	0.0001	0.00031	3
9729	5e-05	-0.0002	-0.0001	-3e-05	-0.00015	-8e-05	0.0001	0.00031	3
9730	5e-05	-0.0002	-0.0001	-3e-05	-0.00015	-8e-05	0.0001	0.00031	3
9731	5e-05	-0.0002	-0.0001	-3e-05	-0.00015	-8e-05	0.0001	0.00031	3
9732	5e-05	-0.0002	-0.0001	-3e-05	-0.00015	-8e-05	0.0001	0.00031	3
9733	5e-05	-0.0002	-0.0001	-3e-05	-0.00015	-8e-05	0.0001	0.00031	3
9734	5e-05	-0.0002	-0.0001	-3e-05	-0.00015	-8e-05	0.0001	0.00031	3
9735	5e-05	-0.0002	-0.0001	-3e-05	-0.00015	-8e-05	0.0001	0.00031	3
9736	5e-05	-0.0002	-0.0001	-3e-05	-0.00015	-8e-05	0.0001	0.00031	3
9738	5e-05	-0.0002	-0.0001	-3e-05	-0.00015	-8e-05	0.0001	0.00031	3
9739	5e-05	-0.0002	-0.0001	-3e-05	-0.00015	-8e-05	0.0001	0.00031	3
9740	5e-05	-0.0002	-0.0001	-3e-05	-0.00015	-8e-05	0.0001	0.00031	3
9741	5e-05	-0.0002	-0.0001	-3e-05	-0.00015	-8e-05	0.0001	0.00031	3
9742	5e-05	-0.0002	-0.0001	-3e-05	-0.00015	-8e-05	0.0001	0.00031	3
9743	5e-05	-0.0002	-0.0001	-3e-05	-0.00015	-8e-05	0.0001	0.00031	3
9744	5e-05	-0.0002	-0.0001	-3e-05	-0.00015	-8e-05	0.0001	0.00031	3
9745	5e-05	-0.0002	-0.0001	-3e-05	-0.00015	-8e-05	0.0001	0.00031	3
9746	-0.00013	1e-05	-6e-05	3e-05	0.00023	0.00023	-4e-05	-0.00018	3
9747	-6e-05	-0.00036	-0.00015	-2e-05	-4e-05	0.00011	2e-05	-7e-05	3
9748	-6e-05	-0.00036	-0.00015	-2e-05	-4e-05	0.00011	2e-05	-7e-05	3
9749	-6e-05	-0.00036	-0.00015	-2e-05	-4e-05	0.00011	2e-05	-7e-05	3
9750	-6e-05	-0.00036	-0.00015	-2e-05	-4e-05	0.00011	2e-05	-7e-05	3
9751	-6e-05	-0.00036	-0.00015	-2e-05	-4e-05	0.00011	2e-05	-7e-05	3
9752	-6e-05	-0.00036	-0.00015	-2e-05	-4e-05	0.00011	2e-05	-7e-05	3
9753	-6e-05	-0.00036	-0.00015	-2e-05	-4e-05	0.00011	2e-05	-7e-05	3
9754	-6e-05	-0.00036	-0.00015	-2e-05	-4e-05	0.00011	2e-05	-7e-05	3
9755	-6e-05	-0.00036	-0.00015	-2e-05	-4e-05	0.00011	2e-05	-7e-05	3
9756	-6e-05	-0.00036	-0.00015	-2e-05	-4e-05	0.00011	2e-05	-7e-05	3
9757	-6e-05	-0.00036	-0.00015	-2e-05	-4e-05	0.00011	2e-05	-7e-05	3
9758	-6e-05	-0.00036	-0.00015	-2e-05	-4e-05	0.00011	2e-05	-7e-05	3
9759	-6e-05	-0.00036	-0.00015	-2e-05	-4e-05	0.00011	2e-05	-7e-05	3
9760	-6e-05	-0.00036	-0.00015	-2e-05	-4e-05	0.00011	2e-05	-7e-05	3
9761	3e-05	0	-6e-05	-7e-05	-0.00042	-0.00049	-0.00012	0.00012	3
9762	0.00013	0.00025	0.00011	5e-05	-1e-05	0.00023	-0.00012	-2e-05	3
9764	0.00013	0.00025	0.00011	5e-05	-1e-05	0.00023	-0.00012	-2e-05	3
9765	0.00013	0.00025	0.00011	5e-05	-1e-05	0.00023	-0.00012	-2e-05	3
9766	0.00013	0.00025	0.00011	5e-05	-1e-05	0.00023	-0.00012	-2e-05	3
9767	0.00013	0.00025	0.00011	5e-05	-1e-05	0.00023	-0.00012	-2e-05	3
9768	0.00013	0.00025	0.00011	5e-05	-1e-05	0.00023	-0.00012	-2e-05	3
9769	0.00013	0.00025	0.00011	5e-05	-1e-05	0.00023	-0.00012	-2e-05	3
9770	0.00013	0.00025	0.00011	5e-05	-1e-05	0.00023	-0.00012	-2e-05	3
9771	0.00013	0.00025	0.00011	5e-05	-1e-05	0.00023	-0.00012	-2e-05	3
9772	0.00013	0.00025	0.00011	5e-05	-1e-05	0.00023	-0.00012	-2e-05	3
9773	0.00013	0.00025	0.00011	5e-05	-1e-05	0.00023	-0.00012	-2e-05	3
9774	0.00013	0.00025	0.00011	5e-05	-1e-05	0.00023	-0.00012	-2e-05	3
9775	0.00013	0.00025	0.00011	5e-05	-1e-05	0.00023	-0.00012	-2e-05	3
9776	0.00013	0.00025	0.00011	5e-05	-1e-05	0.00023	-0.00012	-2e-05	3
9777	0.00013	0.00025	0.00011	5e-05	-1e-05	0.00023	-0.00012	-2e-05	3
9778	0.00013	0.00025	0.00011	5e-05	-1e-05	0.00023	-0.00012	-2e-05	3
9779	0.00013	0.00025	0.00011	5e-05	-1e-05	0.00023	-0.00012	-2e-05	3
9780	0.00013	0.00025	0.00011	5e-05	-1e-05	0.00023	-0.00012	-2e-05	3
9781	0.00013	0.00025	0.00011	5e-05	-1e-05	0.00023	-0.00012	-2e-05	3
9782	0.00013	0.00025	0.00011	5e-05	-1e-05	0.00023	-0.00012	-2e-05	3
9783	0	-8e-05	-4e-05	-5e-05	-8e-05	-0.00022	5e-05	0.00016	3
9784	1e-05	-0.0002	6e-05	1e-05	-0.00014	-9e-05	5e-05	0.00016	3
9785	8e-05	-6e-05	0.0001	3e-05	-9e-05	-0.00013	-9e-05	-9e-05	3
9786	8e-05	-6e-05	0.0001	3e-05	-9e-05	-0.00013	-9e-05	-9e-05	3
9788	8e-05	-6e-05	0.0001	3e-05	-9e-05	-0.00013	-9e-05	-9e-05	3
9790	8e-05	-6e-05	0.0001	3e-05	-9e-05	-0.00013	-9e-05	-9e-05	3
9791	8e-05	-6e-05	0.0001	3e-05	-9e-05	-0.00013	-9e-05	-9e-05	3
9792	8e-05	-6e-05	0.0001	3e-05	-9e-05	-0.00013	-9e-05	-9e-05	3
9793	8e-05	-6e-05	0.0001	3e-05	-9e-05	-0.00013	-9e-05	-9e-05	3
9794	8e-05	-6e-05	0.0001	3e-05	-9e-05	-0.00013	-9e-05	-9e-05	3
9795	8e-05	-6e-05	0.0001	3e-05	-9e-05	-0.00013	-9e-05	-9e-05	3
9796	8e-05	-6e-05	0.0001	3e-05	-9e-05	-0.00013	-9e-05	-9e-05	3
9797	6e-05	-0.00014	3e-05	-1e-05	0.00027	-1e-05	0	9e-05	3
9798	6e-05	-0.00014	3e-05	-1e-05	0.00027	-1e-05	0	9e-05	3
9799	6e-05	-0.00014	3e-05	-1e-05	0.00027	-1e-05	0	9e-05	3
9800	6e-05	-0.00014	3e-05	-1e-05	0.00027	-1e-05	0	9e-05	3
9801	6e-05	-0.00014	3e-05	-1e-05	0.00027	-1e-05	0	9e-05	3
9802	6e-05	-0.00014	3e-05	-1e-05	0.00027	-1e-05	0	9e-05	3
9803	6e-05	-0.00014	3e-05	-1e-05	0.00027	-1e-05	0	9e-05	3
9804	6e-05	-0.00014	3e-05	-1e-05	0.00027	-1e-05	0	9e-05	3
9805	6e-05	-0.00014	3e-05	-1e-05	0.00027	-1e-05	0	9e-05	3
9806	0.00041	-0.00032	-3e-05	-2e-05	5e-05	0	3e-05	0.00032	3
9807	0.00041	-0.00032	-3e-05	-2e-05	5e-05	0	3e-05	0.00032	3
9808	0.00041	-0.00032	-3e-05	-2e-05	5e-05	0	3e-05	0.00032	3
9809	0.00041	-0.00032	-3e-05	-2e-05	5e-05	0	3e-05	0.00032	3
9810	0.00041	-0.00032	-3e-05	-2e-05	5e-05	0	3e-05	0.00032	3
9811	0.00041	-0.00032	-3e-05	-2e-05	5e-05	0	3e-05	0.00032	3
9812	0.00041	-0.00032	-3e-05	-2e-05	5e-05	0	3e-05	0.00032	3
9813	0.00041	-0.00032	-3e-05	-2e-05	5e-05	0	3e-05	0.00032	3
9814	0.00041	-0.00032	-3e-05	-2e-05	5e-05	0	3e-05	0.00032	3
9815	0.00041	-0.00032	-3e-05	-2e-05	5e-05	0	3e-05	0.00032	3
9816	0.00041	-0.00032	-3e-05	-2e-05	5e-05	0	3e-05	0.00032	3
9817	0.00041	-0.00032	-3e-05	-2e-05	5e-05	0	3e-05	0.00032	3
9818	0.00041	-0.00032	-3e-05	-2e-05	5e-05	0	3e-05	0.00032	3
9819	0.00041	-0.00032	-3e-05	-2e-05	5e-05	0	3e-05	0.00032	3
9820	0.00041	-0.00032	-3e-05	-2e-05	5e-05	0	3e-05	0.00032	3
9821	0.0001	0.00026	-2e-05	-4e-05	-8e-05	5e-05	8e-05	-9e-05	3
9822	4e-05	0.00026	0.00017	8e-05	1e-05	-0.00011	-6e-05	8e-05	3
9823	4e-05	0.00026	0.00017	8e-05	1e-05	-0.00011	-6e-05	8e-05	3
9824	4e-05	0.00026	0.00017	8e-05	1e-05	-0.00011	-6e-05	8e-05	3
9825	4e-05	0.00026	0.00017	8e-05	1e-05	-0.00011	-6e-05	8e-05	3
9826	4e-05	0.00026	0.00017	8e-05	1e-05	-0.00011	-6e-05	8e-05	3
9827	4e-05	0.00026	0.00017	8e-05	1e-05	-0.00011	-6e-05	8e-05	3
9828	4e-05	0.00026	0.00017	8e-05	1e-05	-0.00011	-6e-05	8e-05	3
9829	4e-05	0.00026	0.00017	8e-05	1e-05	-0.00011	-6e-05	8e-05	3
9830	4e-05	0.00026	0.00017	8e-05	1e-05	-0.00011	-6e-05	8e-05	3
9831	4e-05	0.00026	0.00017	8e-05	1e-05	-0.00011	-6e-05	8e-05	3
9832	4e-05	0.00026	0.00017	8e-05	1e-05	-0.00011	-6e-05	8e-05	3
9833	4e-05	0.00026	0.00017	8e-05	1e-05	-0.00011	-6e-05	8e-05	3
9834	4e-05	0.00026	0.00017	8e-05	1e-05	-0.00011	-6e-05	8e-05	3
9835	4e-05	0.00026	0.00017	8e-05	1e-05	-0.00011	-6e-05	8e-05	3
9836	4e-05	0.00026	0.00017	8e-05	1e-05	-0.00011	-6e-05	8e-05	3
9838	4e-05	0.00026	0.00017	8e-05	1e-05	-0.00011	-6e-05	8e-05	3
9840	4e-05	0.00026	0.00017	8e-05	1e-05	-0.00011	-6e-05	8e-05	3
9841	4e-05	0.00026	0.00017	8e-05	1e-05	-0.00011	-6e-05	8e-05	3
9842	4e-05	0.00026	0.00017	8e-05	1e-05	-0.00011	-6e-05	8e-05	3
9843	-9e-05	0.00026	1e-05	-3e-05	-0.00017	-0.00018	-8e-05	-2e-05	3
9844	-8e-05	-0.00021	-3e-05	0	-3e-05	-2e-05	-8e-05	-9e-05	3
9845	0.00025	0.00102	0.00018	-4e-05	-0.00024	-9e-05	1e-05	-0.00019	3
9846	0.00025	0.00102	0.00018	-4e-05	-0.00024	-9e-05	1e-05	-0.00019	3
9847	0.00025	0.00102	0.00018	-4e-05	-0.00024	-9e-05	1e-05	-0.00019	3
9848	0.00025	0.00102	0.00018	-4e-05	-0.00024	-9e-05	1e-05	-0.00019	3
9849	0.00025	0.00102	0.00018	-4e-05	-0.00024	-9e-05	1e-05	-0.00019	3
9850	0.00025	0.00102	0.00018	-4e-05	-0.00024	-9e-05	1e-05	-0.00019	3
9851	0.00025	0.00102	0.00018	-4e-05	-0.00024	-9e-05	1e-05	-0.00019	3
9852	0.00025	0.00102	0.00018	-4e-05	-0.00024	-9e-05	1e-05	-0.00019	3
9853	0.00025	0.00102	0.00018	-4e-05	-0.00024	-9e-05	1e-05	-0.00019	3
9854	0.00025	0.00102	0.00018	-4e-05	-0.00024	-9e-05	1e-05	-0.00019	3
9855	0.00025	0.00102	0.00018	-4e-05	-0.00024	-9e-05	1e-05	-0.00019	3
9856	0.00025	0.00102	0.00018	-4e-05	-0.00024	-9e-05	1e-05	-0.00019	3
9857	0.00011	0.0007	0	1e-05	0	9e-05	9e-05	0.00031	3
9858	0.00011	0.0007	0	1e-05	0	9e-05	9e-05	0.00031	3
9859	0.00011	0.0007	0	1e-05	0	9e-05	9e-05	0.00031	3
9860	0.00011	0.0007	0	1e-05	0	9e-05	9e-05	0.00031	3
9861	0.00011	0.0007	0	1e-05	0	9e-05	9e-05	0.00031	3
9862	0.00011	0.0007	0	1e-05	0	9e-05	9e-05	0.00031	3
9863	0.00011	0.0007	0	1e-05	0	9e-05	9e-05	0.00031	3
9864	0.00011	0.0007	0	1e-05	0	9e-05	9e-05	0.00031	3
9865	0.00011	0.0007	0	1e-05	0	9e-05	9e-05	0.00031	3
9866	0.00011	0.0007	0	1e-05	0	9e-05	9e-05	0.00031	3
9867	0.00011	0.0007	0	1e-05	0	9e-05	9e-05	0.00031	3
9868	0.00011	0.0007	0	1e-05	0	9e-05	9e-05	0.00031	3
9869	0.00011	0.0007	0	1e-05	0	9e-05	9e-05	0.00031	3
9870	0.00011	0.0007	0	1e-05	0	9e-05	9e-05	0.00031	3
9871	0.00011	0.0007	0	1e-05	0	9e-05	9e-05	0.00031	3
9872	0.00011	0.0007	0	1e-05	0	9e-05	9e-05	0.00031	3
9873	-0.00033	-0.00048	-0.00021	-0.00013	-0.00027	1e-05	-4e-05	-0.00019	3
9874	-0.00033	-0.00048	-0.00021	-0.00013	-0.00027	1e-05	-4e-05	-0.00019	3
9875	-0.00033	-0.00048	-0.00021	-0.00013	-0.00027	1e-05	-4e-05	-0.00019	3
9876	-0.00033	-0.00048	-0.00021	-0.00013	-0.00027	1e-05	-4e-05	-0.00019	3
9877	-0.00033	-0.00048	-0.00021	-0.00013	-0.00027	1e-05	-4e-05	-0.00019	3
9878	-0.00033	-0.00048	-0.00021	-0.00013	-0.00027	1e-05	-4e-05	-0.00019	3
9879	-0.00033	-0.00048	-0.00021	-0.00013	-0.00027	1e-05	-4e-05	-0.00019	3
9880	-0.00033	-0.00048	-0.00021	-0.00013	-0.00027	1e-05	-4e-05	-0.00019	3
9881	-2e-05	0.00013	0.00012	4e-05	-0.0001	-3e-05	-5e-05	-0.00046	3
9882	-3e-05	-0.00019	-9e-05	2e-05	0.00043	0.0002	-2e-05	0.00022	3
9883	-3e-05	-0.00019	-9e-05	2e-05	0.00043	0.0002	-2e-05	0.00022	3
9884	-3e-05	-0.00019	-9e-05	2e-05	0.00043	0.0002	-2e-05	0.00022	3
9885	-3e-05	-0.00019	-9e-05	2e-05	0.00043	0.0002	-2e-05	0.00022	3
9886	-3e-05	-0.00019	-9e-05	2e-05	0.00043	0.0002	-2e-05	0.00022	3
9889	-3e-05	-0.00019	-9e-05	2e-05	0.00043	0.0002	-2e-05	0.00022	3
9890	-3e-05	-0.00019	-9e-05	2e-05	0.00043	0.0002	-2e-05	0.00022	3
9891	-3e-05	-0.00019	-9e-05	2e-05	0.00043	0.0002	-2e-05	0.00022	3
9892	-3e-05	-0.00019	-9e-05	2e-05	0.00043	0.0002	-2e-05	0.00022	3
9893	-3e-05	-0.00019	-9e-05	2e-05	0.00043	0.0002	-2e-05	0.00022	3
9894	-3e-05	-0.00019	-9e-05	2e-05	0.00043	0.0002	-2e-05	0.00022	3
9895	-3e-05	-0.00019	-9e-05	2e-05	0.00043	0.0002	-2e-05	0.00022	3
9896	-3e-05	-0.00019	-9e-05	2e-05	0.00043	0.0002	-2e-05	0.00022	3
9897	-3e-05	-0.00019	-9e-05	2e-05	0.00043	0.0002	-2e-05	0.00022	3
9898	-3e-05	-0.00019	-9e-05	2e-05	0.00043	0.0002	-2e-05	0.00022	3
9899	-3e-05	-0.00019	-9e-05	2e-05	0.00043	0.0002	-2e-05	0.00022	3
9900	-3e-05	-0.00019	-9e-05	2e-05	0.00043	0.0002	-2e-05	0.00022	3
9901	-3e-05	-0.00019	-9e-05	2e-05	0.00043	0.0002	-2e-05	0.00022	3
9902	-3e-05	-0.00019	-9e-05	2e-05	0.00043	0.0002	-2e-05	0.00022	3
9903	-3e-05	-0.00019	-9e-05	2e-05	0.00043	0.0002	-2e-05	0.00022	3
9904	-3e-05	-0.00019	-9e-05	2e-05	0.00043	0.0002	-2e-05	0.00022	3
9905	-3e-05	-0.00019	-9e-05	2e-05	0.00043	0.0002	-2e-05	0.00022	3
9906	-3e-05	-0.00019	-9e-05	2e-05	0.00043	0.0002	-2e-05	0.00022	3
9907	-3e-05	-0.00019	-9e-05	2e-05	0.00043	0.0002	-2e-05	0.00022	3
9908	-3e-05	-0.00019	-9e-05	2e-05	0.00043	0.0002	-2e-05	0.00022	3
9909	-3e-05	-0.00019	-9e-05	2e-05	0.00043	0.0002	-2e-05	0.00022	3
9910	-3e-05	-0.00019	-9e-05	2e-05	0.00043	0.0002	-2e-05	0.00022	3
9911	-7e-05	0.00019	4e-05	0	0.00014	-0.0003	-0.00013	-0.0001	3
9912	-0.00019	0.00034	-7e-05	1e-05	4e-05	-1e-05	3e-05	-0.00048	3
9913	-0.00019	0.00034	-7e-05	1e-05	4e-05	-1e-05	3e-05	-0.00048	3
9914	-0.00019	0.00034	-7e-05	1e-05	4e-05	-1e-05	3e-05	-0.00048	3
9915	-0.00019	0.00034	-7e-05	1e-05	4e-05	-1e-05	3e-05	-0.00048	3
9916	-0.00019	0.00034	-7e-05	1e-05	4e-05	-1e-05	3e-05	-0.00048	3
9917	-0.00019	0.00034	-7e-05	1e-05	4e-05	-1e-05	3e-05	-0.00048	3
9918	-0.00019	0.00034	-7e-05	1e-05	4e-05	-1e-05	3e-05	-0.00048	3
9919	-0.00019	0.00034	-7e-05	1e-05	4e-05	-1e-05	3e-05	-0.00048	3
9920	-0.00019	0.00034	-7e-05	1e-05	4e-05	-1e-05	3e-05	-0.00048	3
9921	-0.00019	0.00034	-7e-05	1e-05	4e-05	-1e-05	3e-05	-0.00048	3
9922	-0.00019	0.00034	-7e-05	1e-05	4e-05	-1e-05	3e-05	-0.00048	3
9923	-0.00019	0.00034	-7e-05	1e-05	4e-05	-1e-05	3e-05	-0.00048	3
9924	-0.00019	0.00034	-7e-05	1e-05	4e-05	-1e-05	3e-05	-0.00048	3
9925	-0.00019	0.00034	-7e-05	1e-05	4e-05	-1e-05	3e-05	-0.00048	3
9926	4e-05	0.0002	-1e-05	-8e-05	-9e-05	0.00018	3e-05	0.0001	3
9927	-6e-05	0.00033	2e-05	-1e-05	-9e-05	3e-05	0.00012	0.0002	3
9928	-6e-05	0.00033	2e-05	-1e-05	-9e-05	3e-05	0.00012	0.0002	3
9929	-6e-05	0.00033	2e-05	-1e-05	-9e-05	3e-05	0.00012	0.0002	3
9930	-6e-05	0.00033	2e-05	-1e-05	-9e-05	3e-05	0.00012	0.0002	3
9931	-6e-05	0.00033	2e-05	-1e-05	-9e-05	3e-05	0.00012	0.0002	3
9932	-6e-05	0.00033	2e-05	-1e-05	-9e-05	3e-05	0.00012	0.0002	3
9933	-6e-05	0.00033	2e-05	-1e-05	-9e-05	3e-05	0.00012	0.0002	3
9934	-6e-05	0.00033	2e-05	-1e-05	-9e-05	3e-05	0.00012	0.0002	3
9935	-6e-05	0.00033	2e-05	-1e-05	-9e-05	3e-05	0.00012	0.0002	3
9936	-6e-05	0.00033	2e-05	-1e-05	-9e-05	3e-05	0.00012	0.0002	3
9940	-6e-05	0.00033	2e-05	-1e-05	-9e-05	3e-05	0.00012	0.0002	3
9941	7e-05	-0.00032	6e-05	2e-05	0	0.00045	-2e-05	8e-05	3
9942	-3e-05	-0.00017	-4e-05	-5e-05	-0.00017	6e-05	0.00014	0	3
9943	5e-05	5e-05	0.00019	4e-05	-2e-05	-8e-05	1e-05	3e-05	3
9944	5e-05	5e-05	0.00019	4e-05	-2e-05	-8e-05	1e-05	3e-05	3
9945	5e-05	5e-05	0.00019	4e-05	-2e-05	-8e-05	1e-05	3e-05	3
9946	5e-05	5e-05	0.00019	4e-05	-2e-05	-8e-05	1e-05	3e-05	3
9947	5e-05	5e-05	0.00019	4e-05	-2e-05	-8e-05	1e-05	3e-05	3
9948	5e-05	5e-05	0.00019	4e-05	-2e-05	-8e-05	1e-05	3e-05	3
9949	5e-05	5e-05	0.00019	4e-05	-2e-05	-8e-05	1e-05	3e-05	3
9950	5e-05	5e-05	0.00019	4e-05	-2e-05	-8e-05	1e-05	3e-05	3
9951	5e-05	5e-05	0.00019	4e-05	-2e-05	-8e-05	1e-05	3e-05	3
9952	5e-05	5e-05	0.00019	4e-05	-2e-05	-8e-05	1e-05	3e-05	3
9953	5e-05	5e-05	0.00019	4e-05	-2e-05	-8e-05	1e-05	3e-05	3
9954	5e-05	5e-05	0.00019	4e-05	-2e-05	-8e-05	1e-05	3e-05	3
9955	5e-05	5e-05	0.00019	4e-05	-2e-05	-8e-05	1e-05	3e-05	3
9956	5e-05	5e-05	0.00019	4e-05	-2e-05	-8e-05	1e-05	3e-05	3
9957	5e-05	5e-05	0.00019	4e-05	-2e-05	-8e-05	1e-05	3e-05	3
9958	5e-05	5e-05	0.00019	4e-05	-2e-05	-8e-05	1e-05	3e-05	3
9959	5e-05	5e-05	0.00019	4e-05	-2e-05	-8e-05	1e-05	3e-05	3
9960	5e-05	5e-05	0.00019	4e-05	-2e-05	-8e-05	1e-05	3e-05	3
9961	5e-05	5e-05	0.00019	4e-05	-2e-05	-8e-05	1e-05	3e-05	3
9962	5e-05	5e-05	0.00019	4e-05	-2e-05	-8e-05	1e-05	3e-05	3
9963	-5e-05	0.00052	-0.0001	3e-05	5e-05	0.00017	0.0001	-0.00029	3
9964	0.00015	-0.00066	-0.00016	-5e-05	5e-05	2e-05	-5e-05	0.00013	3
9965	0.00015	-0.00066	-0.00016	-5e-05	5e-05	2e-05	-5e-05	0.00013	3
9966	0.00015	-0.00066	-0.00016	-5e-05	5e-05	2e-05	-5e-05	0.00013	3
9967	0.00015	-0.00066	-0.00016	-5e-05	5e-05	2e-05	-5e-05	0.00013	3
9968	0.00015	-0.00066	-0.00016	-5e-05	5e-05	2e-05	-5e-05	0.00013	3
9969	0	0.0005	0	-1e-05	1e-05	-9e-05	-0.00017	-0.00013	3
9970	0	0.0005	0	-1e-05	1e-05	-9e-05	-0.00017	-0.00013	3
9971	0	0.0005	0	-1e-05	1e-05	-9e-05	-0.00017	-0.00013	3
9972	0	0.0005	0	-1e-05	1e-05	-9e-05	-0.00017	-0.00013	3
9973	0	0.0005	0	-1e-05	1e-05	-9e-05	-0.00017	-0.00013	3
9974	0	0.0005	0	-1e-05	1e-05	-9e-05	-0.00017	-0.00013	3
9975	0	0.0005	0	-1e-05	1e-05	-9e-05	-0.00017	-0.00013	3
9976	0	0.0005	0	-1e-05	1e-05	-9e-05	-0.00017	-0.00013	3
9977	-0.00018	0.00039	-0.00012	-0.0001	-0.00024	-0.00016	8e-05	-0.00018	3
9978	-0.00018	0.00039	-0.00012	-0.0001	-0.00024	-0.00016	8e-05	-0.00018	3
9979	-0.00018	0.00039	-0.00012	-0.0001	-0.00024	-0.00016	8e-05	-0.00018	3
9980	-0.00018	0.00039	-0.00012	-0.0001	-0.00024	-0.00016	8e-05	-0.00018	3
9981	-0.00018	0.00039	-0.00012	-0.0001	-0.00024	-0.00016	8e-05	-0.00018	3
9982	-0.00018	0.00039	-0.00012	-0.0001	-0.00024	-0.00016	8e-05	-0.00018	3
9983	-0.00018	0.00039	-0.00012	-0.0001	-0.00024	-0.00016	8e-05	-0.00018	3
9984	-0.00018	0.00039	-0.00012	-0.0001	-0.00024	-0.00016	8e-05	-0.00018	3
9985	-0.00018	0.00039	-0.00012	-0.0001	-0.00024	-0.00016	8e-05	-0.00018	3
9986	8e-05	-0.0006	-1e-05	-4e-05	-0.00029	0.00014	6e-05	-0.00018	3
9989	8e-05	-0.0006	-1e-05	-4e-05	-0.00029	0.00014	6e-05	-0.00018	3
9990	8e-05	-0.0006	-1e-05	-4e-05	-0.00029	0.00014	6e-05	-0.00018	3
9991	8e-05	-0.0006	-1e-05	-4e-05	-0.00029	0.00014	6e-05	-0.00018	3
9992	8e-05	-0.0006	-1e-05	-4e-05	-0.00029	0.00014	6e-05	-0.00018	3
9993	8e-05	-0.0006	-1e-05	-4e-05	-0.00029	0.00014	6e-05	-0.00018	3
9994	8e-05	-0.0006	-1e-05	-4e-05	-0.00029	0.00014	6e-05	-0.00018	3
9995	8e-05	-0.0006	-1e-05	-4e-05	-0.00029	0.00014	6e-05	-0.00018	3
9996	8e-05	-0.0006	-1e-05	-4e-05	-0.00029	0.00014	6e-05	-0.00018	3
9997	8e-05	-0.0006	-1e-05	-4e-05	-0.00029	0.00014	6e-05	-0.00018	3
9998	8e-05	-0.0006	-1e-05	-4e-05	-0.00029	0.00014	6e-05	-0.00018	3
9999	8e-05	-0.0006	-1e-05	-4e-05	-0.00029	0.00014	6e-05	-0.00018	3
10000	8e-05	-0.0006	-1e-05	-4e-05	-0.00029	0.00014	6e-05	-0.00018	3
10001	-0.00025	-0.0001	-0.0002	-4e-05	0.00013	-9e-05	-0.00019	-0.0002	3
10002	0	0.00051	-2e-05	-2e-05	-0.00033	-0.00056	-0.00011	7e-05	3
10003	0	0.00051	-2e-05	-2e-05	-0.00033	-0.00056	-0.00011	7e-05	3
10004	0	0.00051	-2e-05	-2e-05	-0.00033	-0.00056	-0.00011	7e-05	3
10005	0	0.00051	-2e-05	-2e-05	-0.00033	-0.00056	-0.00011	7e-05	3
10006	0	0.00051	-2e-05	-2e-05	-0.00033	-0.00056	-0.00011	7e-05	3
10007	0	0.00051	-2e-05	-2e-05	-0.00033	-0.00056	-0.00011	7e-05	3
10008	0	0.00051	-2e-05	-2e-05	-0.00033	-0.00056	-0.00011	7e-05	3
10009	0	0.00051	-2e-05	-2e-05	-0.00033	-0.00056	-0.00011	7e-05	3
10010	0	0.00051	-2e-05	-2e-05	-0.00033	-0.00056	-0.00011	7e-05	3
10011	0	0.00051	-2e-05	-2e-05	-0.00033	-0.00056	-0.00011	7e-05	3
10012	0	0.00051	-2e-05	-2e-05	-0.00033	-0.00056	-0.00011	7e-05	3
10013	0	0.00051	-2e-05	-2e-05	-0.00033	-0.00056	-0.00011	7e-05	3
10014	0	0.00051	-2e-05	-2e-05	-0.00033	-0.00056	-0.00011	7e-05	3
10015	0	0.00051	-2e-05	-2e-05	-0.00033	-0.00056	-0.00011	7e-05	3
10016	0	0.00051	-2e-05	-2e-05	-0.00033	-0.00056	-0.00011	7e-05	3
10017	0	0.00051	-2e-05	-2e-05	-0.00033	-0.00056	-0.00011	7e-05	3
10018	0	0.00051	-2e-05	-2e-05	-0.00033	-0.00056	-0.00011	7e-05	3
10019	0	0.00051	-2e-05	-2e-05	-0.00033	-0.00056	-0.00011	7e-05	3
10020	0	0.00051	-2e-05	-2e-05	-0.00033	-0.00056	-0.00011	7e-05	3
10021	0	0.00051	-2e-05	-2e-05	-0.00033	-0.00056	-0.00011	7e-05	3
10022	0	0.00051	-2e-05	-2e-05	-0.00033	-0.00056	-0.00011	7e-05	3
10023	9e-05	-6e-05	-2e-05	0.0001	0.00064	0.00092	0.0002	6e-05	3
10024	9e-05	-6e-05	-2e-05	0.0001	0.00064	0.00092	0.0002	6e-05	3
10025	-4e-05	-0.00092	-7e-05	-3e-05	-4e-05	-0.00022	-4e-05	2e-05	3
10026	-4e-05	-0.00092	-7e-05	-3e-05	-4e-05	-0.00022	-4e-05	2e-05	3
10027	-4e-05	-0.00092	-7e-05	-3e-05	-4e-05	-0.00022	-4e-05	2e-05	3
10028	-4e-05	-0.00092	-7e-05	-3e-05	-4e-05	-0.00022	-4e-05	2e-05	3
10029	-4e-05	-0.00092	-7e-05	-3e-05	-4e-05	-0.00022	-4e-05	2e-05	3
10030	-4e-05	-0.00092	-7e-05	-3e-05	-4e-05	-0.00022	-4e-05	2e-05	3
10031	-4e-05	-0.00092	-7e-05	-3e-05	-4e-05	-0.00022	-4e-05	2e-05	3
10034	-4e-05	-0.00092	-7e-05	-3e-05	-4e-05	-0.00022	-4e-05	2e-05	3
10035	-4e-05	-0.00092	-7e-05	-3e-05	-4e-05	-0.00022	-4e-05	2e-05	3
10044	-6e-05	-0.00019	3e-05	0	-0.00021	-0.00028	3e-05	4e-05	3
10045	-6e-05	-0.00019	3e-05	0	-0.00021	-0.00028	3e-05	4e-05	3
10046	-6e-05	-0.00014	-0.00017	-7e-05	0.0002	0.00021	0.0001	0.00023	3
10047	-6e-05	-0.00014	-0.00017	-7e-05	0.0002	0.00021	0.0001	0.00023	3
10048	-6e-05	-0.00014	-0.00017	-7e-05	0.0002	0.00021	0.0001	0.00023	3
10049	-6e-05	-0.00014	-0.00017	-7e-05	0.0002	0.00021	0.0001	0.00023	3
10050	-6e-05	-0.00014	-0.00017	-7e-05	0.0002	0.00021	0.0001	0.00023	3
10051	-6e-05	-0.00014	-0.00017	-7e-05	0.0002	0.00021	0.0001	0.00023	3
10052	-6e-05	-0.00014	-0.00017	-7e-05	0.0002	0.00021	0.0001	0.00023	3
10053	-6e-05	-0.00014	-0.00017	-7e-05	0.0002	0.00021	0.0001	0.00023	3
10054	-6e-05	-0.00014	-0.00017	-7e-05	0.0002	0.00021	0.0001	0.00023	3
10055	-6e-05	-0.00014	-0.00017	-7e-05	0.0002	0.00021	0.0001	0.00023	3
10056	-6e-05	-0.00014	-0.00017	-7e-05	0.0002	0.00021	0.0001	0.00023	3
10057	-6e-05	-0.00014	-0.00017	-7e-05	0.0002	0.00021	0.0001	0.00023	3
10058	-6e-05	-0.00014	-0.00017	-7e-05	0.0002	0.00021	0.0001	0.00023	3
10059	-6e-05	-0.00014	-0.00017	-7e-05	0.0002	0.00021	0.0001	0.00023	3
10060	-7e-05	-0.0009	-1e-05	-5e-05	-0.00042	-0.00022	1e-05	-0.0001	3
10061	-3e-05	0.00042	2e-05	1e-05	0.00018	6e-05	-0.00011	-3e-05	3
10062	-5e-05	-1e-05	4e-05	-1e-05	-3e-05	0.0001	-0.00011	-7e-05	3
10063	-5e-05	-1e-05	4e-05	-1e-05	-3e-05	0.0001	-0.00011	-7e-05	3
10064	-5e-05	-1e-05	4e-05	-1e-05	-3e-05	0.0001	-0.00011	-7e-05	3
10065	-5e-05	-1e-05	4e-05	-1e-05	-3e-05	0.0001	-0.00011	-7e-05	3
10066	-5e-05	-1e-05	4e-05	-1e-05	-3e-05	0.0001	-0.00011	-7e-05	3
10067	-5e-05	-1e-05	4e-05	-1e-05	-3e-05	0.0001	-0.00011	-7e-05	3
10068	-5e-05	-1e-05	4e-05	-1e-05	-3e-05	0.0001	-0.00011	-7e-05	3
10069	-5e-05	-1e-05	4e-05	-1e-05	-3e-05	0.0001	-0.00011	-7e-05	3
10070	-5e-05	-1e-05	4e-05	-1e-05	-3e-05	0.0001	-0.00011	-7e-05	3
10071	-5e-05	-1e-05	4e-05	-1e-05	-3e-05	0.0001	-0.00011	-7e-05	3
10072	-5e-05	-1e-05	4e-05	-1e-05	-3e-05	0.0001	-0.00011	-7e-05	3
10073	-5e-05	-1e-05	4e-05	-1e-05	-3e-05	0.0001	-0.00011	-7e-05	3
10074	-5e-05	-1e-05	4e-05	-1e-05	-3e-05	0.0001	-0.00011	-7e-05	3
10075	-5e-05	-1e-05	4e-05	-1e-05	-3e-05	0.0001	-0.00011	-7e-05	3
10076	-5e-05	-1e-05	4e-05	-1e-05	-3e-05	0.0001	-0.00011	-7e-05	3
10077	-5e-05	-1e-05	4e-05	-1e-05	-3e-05	0.0001	-0.00011	-7e-05	3
10078	-5e-05	-1e-05	4e-05	-1e-05	-3e-05	0.0001	-0.00011	-7e-05	3
10079	-5e-05	-1e-05	4e-05	-1e-05	-3e-05	0.0001	-0.00011	-7e-05	3
10080	-5e-05	-1e-05	4e-05	-1e-05	-3e-05	0.0001	-0.00011	-7e-05	3
10081	-5e-05	-1e-05	4e-05	-1e-05	-3e-05	0.0001	-0.00011	-7e-05	3
10082	-5e-05	-1e-05	4e-05	-1e-05	-3e-05	0.0001	-0.00011	-7e-05	3
10083	-5e-05	-1e-05	4e-05	-1e-05	-3e-05	0.0001	-0.00011	-7e-05	3
10084	0.00012	-0.00015	-2e-05	-4e-05	-0.00014	-9e-05	-3e-05	6e-05	3
10085	-3e-05	8e-05	1e-05	-1e-05	-1e-05	-9e-05	7e-05	0	3
10086	-3e-05	8e-05	1e-05	-1e-05	-1e-05	-9e-05	7e-05	0	3
10089	-3e-05	8e-05	1e-05	-1e-05	-1e-05	-9e-05	7e-05	0	3
10090	-3e-05	8e-05	1e-05	-1e-05	-1e-05	-9e-05	7e-05	0	3
10091	-3e-05	8e-05	1e-05	-1e-05	-1e-05	-9e-05	7e-05	0	3
10092	-3e-05	8e-05	1e-05	-1e-05	-1e-05	-9e-05	7e-05	0	3
10093	-3e-05	8e-05	1e-05	-1e-05	-1e-05	-9e-05	7e-05	0	3
10094	-3e-05	8e-05	1e-05	-1e-05	-1e-05	-9e-05	7e-05	0	3
10095	-3e-05	8e-05	1e-05	-1e-05	-1e-05	-9e-05	7e-05	0	3
10096	-3e-05	8e-05	1e-05	-1e-05	-1e-05	-9e-05	7e-05	0	3
10097	0.00011	0.00011	-1e-05	2e-05	-2e-05	5e-05	0.00011	-8e-05	3
10098	0.00011	0.00011	-1e-05	2e-05	-2e-05	5e-05	0.00011	-8e-05	3
10099	0.00011	0.00011	-1e-05	2e-05	-2e-05	5e-05	0.00011	-8e-05	3
10100	0.00011	0.00011	-1e-05	2e-05	-2e-05	5e-05	0.00011	-8e-05	3
10101	0.00011	0.00011	-1e-05	2e-05	-2e-05	5e-05	0.00011	-8e-05	3
10102	0.00011	0.00011	-1e-05	2e-05	-2e-05	5e-05	0.00011	-8e-05	3
10103	0.00011	0.00011	-1e-05	2e-05	-2e-05	5e-05	0.00011	-8e-05	3
10104	0.00011	0.00011	-1e-05	2e-05	-2e-05	5e-05	0.00011	-8e-05	3
10105	0.00011	0.00011	-1e-05	2e-05	-2e-05	5e-05	0.00011	-8e-05	3
10106	-0.00025	-0.00014	-0.00026	-3e-05	-4e-05	9e-05	3e-05	-0.00025	3
10107	-0.00025	-0.00014	-0.00026	-3e-05	-4e-05	9e-05	3e-05	-0.00025	3
10108	-0.00025	-0.00014	-0.00026	-3e-05	-4e-05	9e-05	3e-05	-0.00025	3
10109	-0.00025	-0.00014	-0.00026	-3e-05	-4e-05	9e-05	3e-05	-0.00025	3
10110	-0.00025	-0.00014	-0.00026	-3e-05	-4e-05	9e-05	3e-05	-0.00025	3
10111	-0.00025	-0.00014	-0.00026	-3e-05	-4e-05	9e-05	3e-05	-0.00025	3
10112	-0.00025	-0.00014	-0.00026	-3e-05	-4e-05	9e-05	3e-05	-0.00025	3
10113	-0.00025	-0.00014	-0.00026	-3e-05	-4e-05	9e-05	3e-05	-0.00025	3
10114	-0.00025	-0.00014	-0.00026	-3e-05	-4e-05	9e-05	3e-05	-0.00025	3
10115	-0.00025	-0.00014	-0.00026	-3e-05	-4e-05	9e-05	3e-05	-0.00025	3
10116	-0.00025	-0.00014	-0.00026	-3e-05	-4e-05	9e-05	3e-05	-0.00025	3
10117	-0.00025	-0.00014	-0.00026	-3e-05	-4e-05	9e-05	3e-05	-0.00025	3
10118	-0.00025	-0.00014	-0.00026	-3e-05	-4e-05	9e-05	3e-05	-0.00025	3
10119	-0.00025	-0.00014	-0.00026	-3e-05	-4e-05	9e-05	3e-05	-0.00025	3
10120	4e-05	-5e-05	-7e-05	-6e-05	-0.00024	-0.00042	-9e-05	0.0003	3
10121	4e-05	-5e-05	-7e-05	-6e-05	-0.00024	-0.00042	-9e-05	0.0003	3
10122	4e-05	-5e-05	-7e-05	-6e-05	-0.00024	-0.00042	-9e-05	0.0003	3
10123	4e-05	-5e-05	-7e-05	-6e-05	-0.00024	-0.00042	-9e-05	0.0003	3
10124	4e-05	-5e-05	-7e-05	-6e-05	-0.00024	-0.00042	-9e-05	0.0003	3
10125	4e-05	-5e-05	-7e-05	-6e-05	-0.00024	-0.00042	-9e-05	0.0003	3
10126	4e-05	-5e-05	-7e-05	-6e-05	-0.00024	-0.00042	-9e-05	0.0003	3
10127	4e-05	-5e-05	-7e-05	-6e-05	-0.00024	-0.00042	-9e-05	0.0003	3
10128	1e-05	-3e-05	-1e-05	-3e-05	5e-05	8e-05	-3e-05	0	3
10129	1e-05	-3e-05	-1e-05	-3e-05	5e-05	8e-05	-3e-05	0	3
10130	1e-05	-3e-05	-1e-05	-3e-05	5e-05	8e-05	-3e-05	0	3
10131	1e-05	-3e-05	-1e-05	-3e-05	5e-05	8e-05	-3e-05	0	3
10132	1e-05	-3e-05	-1e-05	-3e-05	5e-05	8e-05	-3e-05	0	3
10133	1e-05	-3e-05	-1e-05	-3e-05	5e-05	8e-05	-3e-05	0	3
10134	1e-05	-3e-05	-1e-05	-3e-05	5e-05	8e-05	-3e-05	0	3
10135	1e-05	-3e-05	-1e-05	-3e-05	5e-05	8e-05	-3e-05	0	3
10136	1e-05	-3e-05	-1e-05	-3e-05	5e-05	8e-05	-3e-05	0	3
10138	1e-05	-3e-05	-1e-05	-3e-05	5e-05	8e-05	-3e-05	0	3
10140	1e-05	-3e-05	-1e-05	-3e-05	5e-05	8e-05	-3e-05	0	3
10141	1e-05	-3e-05	-1e-05	-3e-05	5e-05	8e-05	-3e-05	0	3
10142	1e-05	-3e-05	-1e-05	-3e-05	5e-05	8e-05	-3e-05	0	3
10143	-8e-05	-4e-05	-8e-05	-8e-05	-0.00024	-0.00016	-4e-05	-9e-05	3
10144	-8e-05	-4e-05	-8e-05	-8e-05	-0.00024	-0.00016	-4e-05	-9e-05	3
10145	-4e-05	-0.00061	-5e-05	3e-05	0.00025	0.00015	-3e-05	0.00016	3
10146	-4e-05	-0.00061	-5e-05	3e-05	0.00025	0.00015	-3e-05	0.00016	3
10147	-4e-05	-0.00061	-5e-05	3e-05	0.00025	0.00015	-3e-05	0.00016	3
10148	-4e-05	-0.00061	-5e-05	3e-05	0.00025	0.00015	-3e-05	0.00016	3
10149	-4e-05	-0.00061	-5e-05	3e-05	0.00025	0.00015	-3e-05	0.00016	3
10150	-4e-05	-0.00061	-5e-05	3e-05	0.00025	0.00015	-3e-05	0.00016	3
10151	-4e-05	-0.00061	-5e-05	3e-05	0.00025	0.00015	-3e-05	0.00016	3
10152	-4e-05	-0.00061	-5e-05	3e-05	0.00025	0.00015	-3e-05	0.00016	3
10153	-4e-05	-0.00061	-5e-05	3e-05	0.00025	0.00015	-3e-05	0.00016	3
10154	-4e-05	-0.00061	-5e-05	3e-05	0.00025	0.00015	-3e-05	0.00016	3
10155	-4e-05	-0.00061	-5e-05	3e-05	0.00025	0.00015	-3e-05	0.00016	3
10156	-4e-05	-0.00061	-5e-05	3e-05	0.00025	0.00015	-3e-05	0.00016	3
10157	-4e-05	-0.00061	-5e-05	3e-05	0.00025	0.00015	-3e-05	0.00016	3
10158	-4e-05	-0.00061	-5e-05	3e-05	0.00025	0.00015	-3e-05	0.00016	3
10159	-4e-05	-0.00061	-5e-05	3e-05	0.00025	0.00015	-3e-05	0.00016	3
10160	-4e-05	-0.00061	-5e-05	3e-05	0.00025	0.00015	-3e-05	0.00016	3
10161	-4e-05	-0.00061	-5e-05	3e-05	0.00025	0.00015	-3e-05	0.00016	3
10162	-4e-05	-0.00061	-5e-05	3e-05	0.00025	0.00015	-3e-05	0.00016	3
10163	-4e-05	-0.00061	-5e-05	3e-05	0.00025	0.00015	-3e-05	0.00016	3
10164	-4e-05	-0.00061	-5e-05	3e-05	0.00025	0.00015	-3e-05	0.00016	3
10165	-4e-05	-0.00061	-5e-05	3e-05	0.00025	0.00015	-3e-05	0.00016	3
10166	-0.00024	-0.00042	-9e-05	-6e-05	-0.00037	-0.00029	2e-05	1e-05	3
10167	-0.00024	-0.00042	-9e-05	-6e-05	-0.00037	-0.00029	2e-05	1e-05	3
10168	-5e-05	0.00011	0.00012	1e-05	0.0003	0.00022	0.00015	0.00025	3
10169	-5e-05	0.00011	0.00012	1e-05	0.0003	0.00022	0.00015	0.00025	3
10170	-5e-05	0.00011	0.00012	1e-05	0.0003	0.00022	0.00015	0.00025	3
10171	-5e-05	0.00011	0.00012	1e-05	0.0003	0.00022	0.00015	0.00025	3
10172	-5e-05	0.00011	0.00012	1e-05	0.0003	0.00022	0.00015	0.00025	3
10173	-5e-05	0.00011	0.00012	1e-05	0.0003	0.00022	0.00015	0.00025	3
10174	-5e-05	0.00011	0.00012	1e-05	0.0003	0.00022	0.00015	0.00025	3
10175	-5e-05	0.00011	0.00012	1e-05	0.0003	0.00022	0.00015	0.00025	3
10176	-5e-05	0.00011	0.00012	1e-05	0.0003	0.00022	0.00015	0.00025	3
10177	-5e-05	0.00011	0.00012	1e-05	0.0003	0.00022	0.00015	0.00025	3
10178	-5e-05	0.00011	0.00012	1e-05	0.0003	0.00022	0.00015	0.00025	3
10179	-5e-05	0.00011	0.00012	1e-05	0.0003	0.00022	0.00015	0.00025	3
10180	-5e-05	0.00011	0.00012	1e-05	0.0003	0.00022	0.00015	0.00025	3
10181	9e-05	0.00047	0.00014	3e-05	0.0003	-8e-05	-5e-05	2e-05	3
10182	-1e-05	6e-05	-9e-05	-3e-05	7e-05	0.00039	-4e-05	8e-05	3
10183	-1e-05	6e-05	-9e-05	-3e-05	7e-05	0.00039	-4e-05	8e-05	3
10184	-1e-05	6e-05	-9e-05	-3e-05	7e-05	0.00039	-4e-05	8e-05	3
10185	-1e-05	6e-05	-9e-05	-3e-05	7e-05	0.00039	-4e-05	8e-05	3
10186	-1e-05	6e-05	-9e-05	-3e-05	7e-05	0.00039	-4e-05	8e-05	3
10188	-1e-05	6e-05	-9e-05	-3e-05	7e-05	0.00039	-4e-05	8e-05	3
10190	-1e-05	6e-05	-9e-05	-3e-05	7e-05	0.00039	-4e-05	8e-05	3
10191	-1e-05	6e-05	-9e-05	-3e-05	7e-05	0.00039	-4e-05	8e-05	3
10192	-1e-05	6e-05	-9e-05	-3e-05	7e-05	0.00039	-4e-05	8e-05	3
10193	-1e-05	6e-05	-9e-05	-3e-05	7e-05	0.00039	-4e-05	8e-05	3
10194	-1e-05	6e-05	-9e-05	-3e-05	7e-05	0.00039	-4e-05	8e-05	3
10195	-1e-05	6e-05	-9e-05	-3e-05	7e-05	0.00039	-4e-05	8e-05	3
10196	-1e-05	6e-05	-9e-05	-3e-05	7e-05	0.00039	-4e-05	8e-05	3
10197	-1e-05	6e-05	-9e-05	-3e-05	7e-05	0.00039	-4e-05	8e-05	3
10198	-1e-05	6e-05	-9e-05	-3e-05	7e-05	0.00039	-4e-05	8e-05	3
10199	-1e-05	6e-05	-9e-05	-3e-05	7e-05	0.00039	-4e-05	8e-05	3
10200	-1e-05	6e-05	-9e-05	-3e-05	7e-05	0.00039	-4e-05	8e-05	3
10201	-1e-05	6e-05	-9e-05	-3e-05	7e-05	0.00039	-4e-05	8e-05	3
10202	-1e-05	6e-05	-9e-05	-3e-05	7e-05	0.00039	-4e-05	8e-05	3
10203	1e-05	0.00016	0.00013	0	0.00014	0.00011	5e-05	0.00014	3
10204	1e-05	0.00016	0.00013	0	0.00014	0.00011	5e-05	0.00014	3
10205	-3e-05	-0.00022	0.0002	6e-05	0.00013	-7e-05	3e-05	5e-05	3
10206	-3e-05	-0.00022	0.0002	6e-05	0.00013	-7e-05	3e-05	5e-05	3
10207	-3e-05	-0.00022	0.0002	6e-05	0.00013	-7e-05	3e-05	5e-05	3
10208	-3e-05	-0.00022	0.0002	6e-05	0.00013	-7e-05	3e-05	5e-05	3
10209	-3e-05	-0.00022	0.0002	6e-05	0.00013	-7e-05	3e-05	5e-05	3
10210	-3e-05	-0.00022	0.0002	6e-05	0.00013	-7e-05	3e-05	5e-05	3
10211	-3e-05	-0.00022	0.0002	6e-05	0.00013	-7e-05	3e-05	5e-05	3
10212	-3e-05	-0.00022	0.0002	6e-05	0.00013	-7e-05	3e-05	5e-05	3
10213	-3e-05	-0.00022	0.0002	6e-05	0.00013	-7e-05	3e-05	5e-05	3
10214	-3e-05	-0.00022	0.0002	6e-05	0.00013	-7e-05	3e-05	5e-05	3
10215	-3e-05	-0.00022	0.0002	6e-05	0.00013	-7e-05	3e-05	5e-05	3
10216	-3e-05	-0.00022	0.0002	6e-05	0.00013	-7e-05	3e-05	5e-05	3
10217	-3e-05	-0.00022	0.0002	6e-05	0.00013	-7e-05	3e-05	5e-05	3
10218	-3e-05	-0.00022	0.0002	6e-05	0.00013	-7e-05	3e-05	5e-05	3
10219	-3e-05	-0.00022	0.0002	6e-05	0.00013	-7e-05	3e-05	5e-05	3
10220	-3e-05	-0.00022	0.0002	6e-05	0.00013	-7e-05	3e-05	5e-05	3
10221	-3e-05	-0.00022	0.0002	6e-05	0.00013	-7e-05	3e-05	5e-05	3
10222	-3e-05	-0.00022	0.0002	6e-05	0.00013	-7e-05	3e-05	5e-05	3
10223	-3e-05	-0.00022	0.0002	6e-05	0.00013	-7e-05	3e-05	5e-05	3
10224	-3e-05	-0.00022	0.0002	6e-05	0.00013	-7e-05	3e-05	5e-05	3
10225	-3e-05	-0.00022	0.0002	6e-05	0.00013	-7e-05	3e-05	5e-05	3
10226	7e-05	-4e-05	3e-05	-1e-05	-0.00012	0.00017	-0.00015	-0.00011	3
10227	0.0002	0.00067	0.0002	0.00013	0.00034	1e-05	-3e-05	0.00019	3
10228	0.0002	0.00067	0.0002	0.00013	0.00034	1e-05	-3e-05	0.00019	3
10229	0.0002	0.00067	0.0002	0.00013	0.00034	1e-05	-3e-05	0.00019	3
10230	0.0002	0.00067	0.0002	0.00013	0.00034	1e-05	-3e-05	0.00019	3
10231	0.0002	0.00067	0.0002	0.00013	0.00034	1e-05	-3e-05	0.00019	3
10232	0.0002	0.00067	0.0002	0.00013	0.00034	1e-05	-3e-05	0.00019	3
10233	0.0002	0.00067	0.0002	0.00013	0.00034	1e-05	-3e-05	0.00019	3
10234	0.0002	0.00067	0.0002	0.00013	0.00034	1e-05	-3e-05	0.00019	3
10235	0.0002	0.00067	0.0002	0.00013	0.00034	1e-05	-3e-05	0.00019	3
10236	0.0002	0.00067	0.0002	0.00013	0.00034	1e-05	-3e-05	0.00019	3
10239	0.0002	0.00067	0.0002	0.00013	0.00034	1e-05	-3e-05	0.00019	3
10240	0.0002	0.00067	0.0002	0.00013	0.00034	1e-05	-3e-05	0.00019	3
10241	3e-05	-0.00016	7e-05	-2e-05	4e-05	-0.00041	1e-05	-0.00011	3
10242	0.00014	-0.0002	2e-05	0	5e-05	-0.00013	-5e-05	-0.00012	3
10243	0.00014	-0.0002	2e-05	0	5e-05	-0.00013	-5e-05	-0.00012	3
10244	0.00014	-0.0002	2e-05	0	5e-05	-0.00013	-5e-05	-0.00012	3
10245	0.00014	-0.0002	2e-05	0	5e-05	-0.00013	-5e-05	-0.00012	3
10246	0.00014	-0.0002	2e-05	0	5e-05	-0.00013	-5e-05	-0.00012	3
10247	0.00014	-0.0002	2e-05	0	5e-05	-0.00013	-5e-05	-0.00012	3
10248	0.00014	-0.0002	2e-05	0	5e-05	-0.00013	-5e-05	-0.00012	3
10249	0.00014	-0.0002	2e-05	0	5e-05	-0.00013	-5e-05	-0.00012	3
10250	0.00014	-0.0002	2e-05	0	5e-05	-0.00013	-5e-05	-0.00012	3
10251	0.00014	-0.0002	2e-05	0	5e-05	-0.00013	-5e-05	-0.00012	3
10252	0.00014	-0.0002	2e-05	0	5e-05	-0.00013	-5e-05	-0.00012	3
10253	0.00014	-0.0002	2e-05	0	5e-05	-0.00013	-5e-05	-0.00012	3
10254	0.00014	-0.0002	2e-05	0	5e-05	-0.00013	-5e-05	-0.00012	3
10255	0.00014	-0.0002	2e-05	0	5e-05	-0.00013	-5e-05	-0.00012	3
10256	0.00014	-0.0002	2e-05	0	5e-05	-0.00013	-5e-05	-0.00012	3
10257	0.00014	-0.0002	2e-05	0	5e-05	-0.00013	-5e-05	-0.00012	3
10258	0.00014	-0.0002	2e-05	0	5e-05	-0.00013	-5e-05	-0.00012	3
10259	0.00014	-0.0002	2e-05	0	5e-05	-0.00013	-5e-05	-0.00012	3
10260	0.00014	-0.0002	2e-05	0	5e-05	-0.00013	-5e-05	-0.00012	3
10261	0.00014	-0.0002	2e-05	0	5e-05	-0.00013	-5e-05	-0.00012	3
10262	0.00014	-0.0002	2e-05	0	5e-05	-0.00013	-5e-05	-0.00012	3
10263	5e-05	0.00056	2e-05	2e-05	7e-05	0.00021	-3e-05	-1e-05	3
10264	5e-05	0.00056	2e-05	2e-05	7e-05	0.00021	-3e-05	-1e-05	3
10265	0	-0.00018	-7e-05	-7e-05	-4e-05	0.00033	3e-05	-0.00012	3
10266	0	-0.00018	-7e-05	-7e-05	-4e-05	0.00033	3e-05	-0.00012	3
10268	0	-0.00018	-7e-05	-7e-05	-4e-05	0.00033	3e-05	-0.00012	3
10269	0	-0.00018	-7e-05	-7e-05	-4e-05	0.00033	3e-05	-0.00012	3
10270	0	-0.00018	-7e-05	-7e-05	-4e-05	0.00033	3e-05	-0.00012	3
10271	0	-0.00018	-7e-05	-7e-05	-4e-05	0.00033	3e-05	-0.00012	3
10272	0	-0.00018	-7e-05	-7e-05	-4e-05	0.00033	3e-05	-0.00012	3
10273	0	-0.00018	-7e-05	-7e-05	-4e-05	0.00033	3e-05	-0.00012	3
10274	0	-0.00018	-7e-05	-7e-05	-4e-05	0.00033	3e-05	-0.00012	3
10275	0	-0.00018	-7e-05	-7e-05	-4e-05	0.00033	3e-05	-0.00012	3
10276	0	-0.00018	-7e-05	-7e-05	-4e-05	0.00033	3e-05	-0.00012	3
10277	0	-0.00018	-7e-05	-7e-05	-4e-05	0.00033	3e-05	-0.00012	3
10278	0	-0.00018	-7e-05	-7e-05	-4e-05	0.00033	3e-05	-0.00012	3
10279	0	-0.00018	-7e-05	-7e-05	-4e-05	0.00033	3e-05	-0.00012	3
10280	0	-0.00018	-7e-05	-7e-05	-4e-05	0.00033	3e-05	-0.00012	3
10281	0	-0.00018	-7e-05	-7e-05	-4e-05	0.00033	3e-05	-0.00012	3
10282	0	-0.00018	-7e-05	-7e-05	-4e-05	0.00033	3e-05	-0.00012	3
10283	0	-0.00018	-7e-05	-7e-05	-4e-05	0.00033	3e-05	-0.00012	3
10284	0	-0.00018	-7e-05	-7e-05	-4e-05	0.00033	3e-05	-0.00012	3
10285	0	-0.00018	-7e-05	-7e-05	-4e-05	0.00033	3e-05	-0.00012	3
10286	-6e-05	-0.00058	-1e-05	1e-05	0	8e-05	6e-05	1e-05	3
10289	-0.00019	-0.00025	-0.00013	-1e-05	-0.00011	-0.00028	-3e-05	-7e-05	3
10290	-0.00019	-0.00025	-0.00013	-1e-05	-0.00011	-0.00028	-3e-05	-7e-05	3
10291	-0.00019	-0.00025	-0.00013	-1e-05	-0.00011	-0.00028	-3e-05	-7e-05	3
10292	-0.00019	-0.00025	-0.00013	-1e-05	-0.00011	-0.00028	-3e-05	-7e-05	3
10293	-0.00019	-0.00025	-0.00013	-1e-05	-0.00011	-0.00028	-3e-05	-7e-05	3
10294	-0.00019	-0.00025	-0.00013	-1e-05	-0.00011	-0.00028	-3e-05	-7e-05	3
10295	-0.00019	-0.00025	-0.00013	-1e-05	-0.00011	-0.00028	-3e-05	-7e-05	3
10296	-0.00019	-0.00025	-0.00013	-1e-05	-0.00011	-0.00028	-3e-05	-7e-05	3
10297	-0.00019	-0.00025	-0.00013	-1e-05	-0.00011	-0.00028	-3e-05	-7e-05	3
10298	-0.00019	-0.00025	-0.00013	-1e-05	-0.00011	-0.00028	-3e-05	-7e-05	3
10299	-0.00019	-0.00025	-0.00013	-1e-05	-0.00011	-0.00028	-3e-05	-7e-05	3
10300	-5e-05	3e-05	-9e-05	-4e-05	-0.00014	0.00017	-0.0001	-0.00028	3
10301	6e-05	0.00014	3e-05	3e-05	-0.00016	-9e-05	0.00012	0.00015	3
10302	6e-05	0.00014	3e-05	3e-05	-0.00016	-9e-05	0.00012	0.00015	3
10303	6e-05	0.00014	3e-05	3e-05	-0.00016	-9e-05	0.00012	0.00015	3
10304	6e-05	0.00014	3e-05	3e-05	-0.00016	-9e-05	0.00012	0.00015	3
10305	6e-05	0.00014	3e-05	3e-05	-0.00016	-9e-05	0.00012	0.00015	3
10306	6e-05	0.00014	3e-05	3e-05	-0.00016	-9e-05	0.00012	0.00015	3
10307	0.00026	5e-05	2e-05	-7e-05	2e-05	-3e-05	5e-05	0.00032	3
10308	0.00026	5e-05	2e-05	-7e-05	2e-05	-3e-05	5e-05	0.00032	3
10309	0.00026	5e-05	2e-05	-7e-05	2e-05	-3e-05	5e-05	0.00032	3
10310	0.00026	5e-05	2e-05	-7e-05	2e-05	-3e-05	5e-05	0.00032	3
10311	0.00026	5e-05	2e-05	-7e-05	2e-05	-3e-05	5e-05	0.00032	3
10312	0.00026	5e-05	2e-05	-7e-05	2e-05	-3e-05	5e-05	0.00032	3
10313	0.00026	5e-05	2e-05	-7e-05	2e-05	-3e-05	5e-05	0.00032	3
10314	0.00026	5e-05	2e-05	-7e-05	2e-05	-3e-05	5e-05	0.00032	3
10315	0.00026	5e-05	2e-05	-7e-05	2e-05	-3e-05	5e-05	0.00032	3
10316	0.00026	5e-05	2e-05	-7e-05	2e-05	-3e-05	5e-05	0.00032	3
10317	0.00026	5e-05	2e-05	-7e-05	2e-05	-3e-05	5e-05	0.00032	3
10318	0.00026	5e-05	2e-05	-7e-05	2e-05	-3e-05	5e-05	0.00032	3
10319	0.00026	5e-05	2e-05	-7e-05	2e-05	-3e-05	5e-05	0.00032	3
10320	0.00026	5e-05	2e-05	-7e-05	2e-05	-3e-05	5e-05	0.00032	3
10321	0.00026	5e-05	2e-05	-7e-05	2e-05	-3e-05	5e-05	0.00032	3
10322	0.00026	5e-05	2e-05	-7e-05	2e-05	-3e-05	5e-05	0.00032	3
10323	-5e-05	-0.00026	3e-05	0	1e-05	-0.00013	-4e-05	-0.00049	3
10324	-5e-05	-0.00026	3e-05	0	1e-05	-0.00013	-4e-05	-0.00049	3
10325	-0.0001	-0.00014	4e-05	-3e-05	-0.00047	-0.00011	-0.00012	0.00029	3
10326	-0.0001	-0.00014	4e-05	-3e-05	-0.00047	-0.00011	-0.00012	0.00029	3
10327	-0.0001	-0.00014	4e-05	-3e-05	-0.00047	-0.00011	-0.00012	0.00029	3
10328	-0.0001	-0.00014	4e-05	-3e-05	-0.00047	-0.00011	-0.00012	0.00029	3
10329	-0.0001	-0.00014	4e-05	-3e-05	-0.00047	-0.00011	-0.00012	0.00029	3
10330	-0.0001	-0.00014	4e-05	-3e-05	-0.00047	-0.00011	-0.00012	0.00029	3
10331	-0.0001	-0.00014	4e-05	-3e-05	-0.00047	-0.00011	-0.00012	0.00029	3
10332	-0.0001	-0.00014	4e-05	-3e-05	-0.00047	-0.00011	-0.00012	0.00029	3
10333	-0.0001	-0.00014	4e-05	-3e-05	-0.00047	-0.00011	-0.00012	0.00029	3
10334	-0.0001	-0.00014	4e-05	-3e-05	-0.00047	-0.00011	-0.00012	0.00029	3
10335	-0.0001	-0.00014	4e-05	-3e-05	-0.00047	-0.00011	-0.00012	0.00029	3
10336	-0.0001	-0.00014	4e-05	-3e-05	-0.00047	-0.00011	-0.00012	0.00029	3
10339	-0.0001	-0.00014	4e-05	-3e-05	-0.00047	-0.00011	-0.00012	0.00029	3
10340	-0.0001	-0.00014	4e-05	-3e-05	-0.00047	-0.00011	-0.00012	0.00029	3
10341	-0.0001	-0.00014	4e-05	-3e-05	-0.00047	-0.00011	-0.00012	0.00029	3
10342	-0.0001	-0.00014	4e-05	-3e-05	-0.00047	-0.00011	-0.00012	0.00029	3
10343	-0.0001	-0.00014	4e-05	-3e-05	-0.00047	-0.00011	-0.00012	0.00029	3
10344	-0.0001	-0.00014	4e-05	-3e-05	-0.00047	-0.00011	-0.00012	0.00029	3
10345	-2e-05	8e-05	-5e-05	-4e-05	8e-05	0.00011	-6e-05	0.00011	3
10346	-2e-05	8e-05	-5e-05	-4e-05	8e-05	0.00011	-6e-05	0.00011	3
10347	-2e-05	8e-05	-5e-05	-4e-05	8e-05	0.00011	-6e-05	0.00011	3
10348	-2e-05	8e-05	-5e-05	-4e-05	8e-05	0.00011	-6e-05	0.00011	3
10349	-2e-05	8e-05	-5e-05	-4e-05	8e-05	0.00011	-6e-05	0.00011	3
10350	-2e-05	8e-05	-5e-05	-4e-05	8e-05	0.00011	-6e-05	0.00011	3
10351	-2e-05	8e-05	-5e-05	-4e-05	8e-05	0.00011	-6e-05	0.00011	3
10352	6e-05	0.00016	7e-05	1e-05	-0.00021	0.0002	-6e-05	-0.00015	3
10353	6e-05	0.00016	7e-05	1e-05	-0.00021	0.0002	-6e-05	-0.00015	3
10354	6e-05	0.00016	7e-05	1e-05	-0.00021	0.0002	-6e-05	-0.00015	3
10355	6e-05	0.00016	7e-05	1e-05	-0.00021	0.0002	-6e-05	-0.00015	3
10356	6e-05	0.00016	7e-05	1e-05	-0.00021	0.0002	-6e-05	-0.00015	3
10357	6e-05	0.00016	7e-05	1e-05	-0.00021	0.0002	-6e-05	-0.00015	3
10358	6e-05	0.00016	7e-05	1e-05	-0.00021	0.0002	-6e-05	-0.00015	3
10359	6e-05	0.00016	7e-05	1e-05	-0.00021	0.0002	-6e-05	-0.00015	3
10360	-0.00014	0.00011	-0.00012	-2e-05	0.00024	0.00034	6e-05	-3e-05	3
10361	-0.00014	0.00011	-0.00012	-2e-05	0.00024	0.00034	6e-05	-3e-05	3
10362	-0.00014	0.00011	-0.00012	-2e-05	0.00024	0.00034	6e-05	-3e-05	3
10363	-0.00014	0.00011	-0.00012	-2e-05	0.00024	0.00034	6e-05	-3e-05	3
10364	-0.00014	0.00011	-0.00012	-2e-05	0.00024	0.00034	6e-05	-3e-05	3
10365	-0.00014	0.00011	-0.00012	-2e-05	0.00024	0.00034	6e-05	-3e-05	3
10366	-0.00014	0.00011	-0.00012	-2e-05	0.00024	0.00034	6e-05	-3e-05	3
10367	0.00014	0.00024	0.0001	4e-05	0.00013	0	6e-05	-0.00017	3
10368	0.00014	0.00024	0.0001	4e-05	0.00013	0	6e-05	-0.00017	3
10369	0.00014	0.00024	0.0001	4e-05	0.00013	0	6e-05	-0.00017	3
10370	0.00014	0.00024	0.0001	4e-05	0.00013	0	6e-05	-0.00017	3
10371	0.00014	0.00024	0.0001	4e-05	0.00013	0	6e-05	-0.00017	3
10372	0.00014	0.00024	0.0001	4e-05	0.00013	0	6e-05	-0.00017	3
10373	0.00014	0.00024	0.0001	4e-05	0.00013	0	6e-05	-0.00017	3
10374	0.00014	0.00024	0.0001	4e-05	0.00013	0	6e-05	-0.00017	3
10375	0.00014	0.00024	0.0001	4e-05	0.00013	0	6e-05	-0.00017	3
10376	0.00014	0.00024	0.0001	4e-05	0.00013	0	6e-05	-0.00017	3
10377	0.00014	0.00024	0.0001	4e-05	0.00013	0	6e-05	-0.00017	3
10378	0.00014	0.00024	0.0001	4e-05	0.00013	0	6e-05	-0.00017	3
10379	0.00014	0.00024	0.0001	4e-05	0.00013	0	6e-05	-0.00017	3
10380	0.00014	0.00024	0.0001	4e-05	0.00013	0	6e-05	-0.00017	3
10381	0.00014	0.00024	0.0001	4e-05	0.00013	0	6e-05	-0.00017	3
10382	0.00014	0.00024	0.0001	4e-05	0.00013	0	6e-05	-0.00017	3
10383	0.00011	0.00015	9e-05	1e-05	-0.0001	0.00033	-1e-05	-0.00016	3
10384	0.00011	0.00015	9e-05	1e-05	-0.0001	0.00033	-1e-05	-0.00016	3
10385	0.00018	3e-05	-0.00012	0	-0.00022	-0.00015	1e-05	0.00029	3
10386	0	-0.00039	-5e-05	-6e-05	-3e-05	-7e-05	2e-05	0.00038	3
10389	0	-0.00039	-5e-05	-6e-05	-3e-05	-7e-05	2e-05	0.00038	3
10390	0	-0.00039	-5e-05	-6e-05	-3e-05	-7e-05	2e-05	0.00038	3
10391	0	-0.00039	-5e-05	-6e-05	-3e-05	-7e-05	2e-05	0.00038	3
10392	0	-0.00039	-5e-05	-6e-05	-3e-05	-7e-05	2e-05	0.00038	3
10393	0	-0.00039	-5e-05	-6e-05	-3e-05	-7e-05	2e-05	0.00038	3
10394	0	-0.00039	-5e-05	-6e-05	-3e-05	-7e-05	2e-05	0.00038	3
10395	0	-0.00039	-5e-05	-6e-05	-3e-05	-7e-05	2e-05	0.00038	3
10396	0	-0.00039	-5e-05	-6e-05	-3e-05	-7e-05	2e-05	0.00038	3
10397	0	-0.00039	-5e-05	-6e-05	-3e-05	-7e-05	2e-05	0.00038	3
10398	0	-0.00039	-5e-05	-6e-05	-3e-05	-7e-05	2e-05	0.00038	3
10399	0	-0.00039	-5e-05	-6e-05	-3e-05	-7e-05	2e-05	0.00038	3
10400	0	-0.00039	-5e-05	-6e-05	-3e-05	-7e-05	2e-05	0.00038	3
10401	0	-0.00039	-5e-05	-6e-05	-3e-05	-7e-05	2e-05	0.00038	3
10402	0	-0.00039	-5e-05	-6e-05	-3e-05	-7e-05	2e-05	0.00038	3
10403	0	-0.00039	-5e-05	-6e-05	-3e-05	-7e-05	2e-05	0.00038	3
10404	0	-0.00039	-5e-05	-6e-05	-3e-05	-7e-05	2e-05	0.00038	3
10405	0	-0.00039	-5e-05	-6e-05	-3e-05	-7e-05	2e-05	0.00038	3
10406	-0.00017	-0.00049	-0.00023	-7e-05	-0.00022	-0.00036	-1e-05	-0.00064	3
10407	-7e-05	2e-05	-6e-05	1e-05	0.00029	-0.00012	7e-05	-0.00011	3
10408	-7e-05	2e-05	-6e-05	1e-05	0.00029	-0.00012	7e-05	-0.00011	3
10409	-7e-05	2e-05	-6e-05	1e-05	0.00029	-0.00012	7e-05	-0.00011	3
10410	-7e-05	2e-05	-6e-05	1e-05	0.00029	-0.00012	7e-05	-0.00011	3
10411	-7e-05	2e-05	-6e-05	1e-05	0.00029	-0.00012	7e-05	-0.00011	3
10412	-7e-05	2e-05	-6e-05	1e-05	0.00029	-0.00012	7e-05	-0.00011	3
10413	-7e-05	2e-05	-6e-05	1e-05	0.00029	-0.00012	7e-05	-0.00011	3
10414	-7e-05	2e-05	-6e-05	1e-05	0.00029	-0.00012	7e-05	-0.00011	3
10415	-7e-05	2e-05	-6e-05	1e-05	0.00029	-0.00012	7e-05	-0.00011	3
10416	-7e-05	2e-05	-6e-05	1e-05	0.00029	-0.00012	7e-05	-0.00011	3
10417	-7e-05	2e-05	-6e-05	1e-05	0.00029	-0.00012	7e-05	-0.00011	3
10418	-7e-05	2e-05	-6e-05	1e-05	0.00029	-0.00012	7e-05	-0.00011	3
10419	-7e-05	2e-05	-6e-05	1e-05	0.00029	-0.00012	7e-05	-0.00011	3
10420	-7e-05	2e-05	-6e-05	1e-05	0.00029	-0.00012	7e-05	-0.00011	3
10421	-7e-05	2e-05	-6e-05	1e-05	0.00029	-0.00012	7e-05	-0.00011	3
10422	-7e-05	2e-05	-6e-05	1e-05	0.00029	-0.00012	7e-05	-0.00011	3
10423	-7e-05	2e-05	-6e-05	1e-05	0.00029	-0.00012	7e-05	-0.00011	3
10424	-7e-05	2e-05	-6e-05	1e-05	0.00029	-0.00012	7e-05	-0.00011	3
10425	-7e-05	2e-05	-6e-05	1e-05	0.00029	-0.00012	7e-05	-0.00011	3
10426	-7e-05	2e-05	-6e-05	1e-05	0.00029	-0.00012	7e-05	-0.00011	3
10427	-7e-05	2e-05	-6e-05	1e-05	0.00029	-0.00012	7e-05	-0.00011	3
10428	-7e-05	0.00043	-5e-05	-1e-05	-6e-05	-0.00024	-0.00013	0.00015	3
10429	-7e-05	0.00043	-5e-05	-1e-05	-6e-05	-0.00024	-0.00013	0.00015	3
10430	-4e-05	0.00011	-0.0001	-1e-05	-0.00035	-0.00083	-0.00022	-0.00022	3
10431	-4e-05	0.00011	-0.0001	-1e-05	-0.00035	-0.00083	-0.00022	-0.00022	3
10432	-4e-05	0.00011	-0.0001	-1e-05	-0.00035	-0.00083	-0.00022	-0.00022	3
10433	-4e-05	0.00011	-0.0001	-1e-05	-0.00035	-0.00083	-0.00022	-0.00022	3
10434	-4e-05	0.00011	-0.0001	-1e-05	-0.00035	-0.00083	-0.00022	-0.00022	3
10435	-4e-05	0.00011	-0.0001	-1e-05	-0.00035	-0.00083	-0.00022	-0.00022	3
10436	-4e-05	0.00011	-0.0001	-1e-05	-0.00035	-0.00083	-0.00022	-0.00022	3
10439	-4e-05	0.00011	-0.0001	-1e-05	-0.00035	-0.00083	-0.00022	-0.00022	3
10440	-4e-05	0.00011	-0.0001	-1e-05	-0.00035	-0.00083	-0.00022	-0.00022	3
10441	-4e-05	0.00011	-0.0001	-1e-05	-0.00035	-0.00083	-0.00022	-0.00022	3
10442	-4e-05	0.00011	-0.0001	-1e-05	-0.00035	-0.00083	-0.00022	-0.00022	3
10443	2e-05	0.00018	3e-05	-3e-05	-3e-05	-9e-05	-1e-05	7e-05	3
10444	-0.0001	-0.00015	-0.0002	-3e-05	7e-05	0.0003	0.00011	0.00018	3
10445	-3e-05	-0.0001	-6e-05	-7e-05	-0.00051	-0.00034	-0.0001	-6e-05	3
10446	-3e-05	-0.0001	-6e-05	-7e-05	-0.00051	-0.00034	-0.0001	-6e-05	3
10447	-3e-05	-0.0001	-6e-05	-7e-05	-0.00051	-0.00034	-0.0001	-6e-05	3
10448	-3e-05	-0.0001	-6e-05	-7e-05	-0.00051	-0.00034	-0.0001	-6e-05	3
10449	-3e-05	-0.0001	-6e-05	-7e-05	-0.00051	-0.00034	-0.0001	-6e-05	3
10450	-3e-05	-0.0001	-6e-05	-7e-05	-0.00051	-0.00034	-0.0001	-6e-05	3
10451	-3e-05	-0.0001	-6e-05	-7e-05	-0.00051	-0.00034	-0.0001	-6e-05	3
10452	-3e-05	-0.0001	-6e-05	-7e-05	-0.00051	-0.00034	-0.0001	-6e-05	3
10453	-3e-05	-0.0001	-6e-05	-7e-05	-0.00051	-0.00034	-0.0001	-6e-05	3
10454	-3e-05	-0.0001	-6e-05	-7e-05	-0.00051	-0.00034	-0.0001	-6e-05	3
10455	-3e-05	-0.0001	-6e-05	-7e-05	-0.00051	-0.00034	-0.0001	-6e-05	3
10456	-3e-05	-0.0001	-6e-05	-7e-05	-0.00051	-0.00034	-0.0001	-6e-05	3
10457	-3e-05	-0.0001	-6e-05	-7e-05	-0.00051	-0.00034	-0.0001	-6e-05	3
10458	-3e-05	-0.0001	-6e-05	-7e-05	-0.00051	-0.00034	-0.0001	-6e-05	3
10459	-3e-05	-0.0001	-6e-05	-7e-05	-0.00051	-0.00034	-0.0001	-6e-05	3
10460	-3e-05	-0.0001	-6e-05	-7e-05	-0.00051	-0.00034	-0.0001	-6e-05	3
10461	-3e-05	-0.0001	-6e-05	-7e-05	-0.00051	-0.00034	-0.0001	-6e-05	3
10462	-3e-05	-0.0001	-6e-05	-7e-05	-0.00051	-0.00034	-0.0001	-6e-05	3
10463	-3e-05	-0.0001	-6e-05	-7e-05	-0.00051	-0.00034	-0.0001	-6e-05	3
10464	-3e-05	-0.0001	-6e-05	-7e-05	-0.00051	-0.00034	-0.0001	-6e-05	3
10465	-3e-05	-0.0001	-6e-05	-7e-05	-0.00051	-0.00034	-0.0001	-6e-05	3
10466	-0.00014	-0.00043	5e-05	-2e-05	-0.00017	0.00013	-1e-05	0.0001	3
10467	5e-05	5e-05	-1e-05	4e-05	0.00059	0.0003	-1e-05	0	3
10468	5e-05	5e-05	-1e-05	4e-05	0.00059	0.0003	-1e-05	0	3
10469	5e-05	5e-05	-1e-05	4e-05	0.00059	0.0003	-1e-05	0	3
10470	5e-05	5e-05	-1e-05	4e-05	0.00059	0.0003	-1e-05	0	3
10471	5e-05	5e-05	-1e-05	4e-05	0.00059	0.0003	-1e-05	0	3
10472	5e-05	5e-05	-1e-05	4e-05	0.00059	0.0003	-1e-05	0	3
10473	5e-05	5e-05	-1e-05	4e-05	0.00059	0.0003	-1e-05	0	3
10474	5e-05	5e-05	-1e-05	4e-05	0.00059	0.0003	-1e-05	0	3
10475	5e-05	5e-05	-1e-05	4e-05	0.00059	0.0003	-1e-05	0	3
10476	5e-05	5e-05	-1e-05	4e-05	0.00059	0.0003	-1e-05	0	3
10477	5e-05	5e-05	-1e-05	4e-05	0.00059	0.0003	-1e-05	0	3
10478	5e-05	5e-05	-1e-05	4e-05	0.00059	0.0003	-1e-05	0	3
10479	5e-05	5e-05	-1e-05	4e-05	0.00059	0.0003	-1e-05	0	3
10480	5e-05	5e-05	-1e-05	4e-05	0.00059	0.0003	-1e-05	0	3
10481	0.00011	0.00015	9e-05	0	0.0001	-0.0003	-5e-05	0.00026	3
10482	0.00011	0.00015	9e-05	0	0.0001	-0.0003	-5e-05	0.00026	3
10483	0.00011	0.00015	9e-05	0	0.0001	-0.0003	-5e-05	0.00026	3
10484	0.00011	0.00015	9e-05	0	0.0001	-0.0003	-5e-05	0.00026	3
10485	0.00011	0.00015	9e-05	0	0.0001	-0.0003	-5e-05	0.00026	3
10487	-0.00022	0.0003	-9e-05	-7e-05	-0.00023	9e-05	8e-05	-0.00015	3
10490	-0.00022	0.0003	-9e-05	-7e-05	-0.00023	9e-05	8e-05	-0.00015	3
10491	-0.00022	0.0003	-9e-05	-7e-05	-0.00023	9e-05	8e-05	-0.00015	3
10492	-0.00022	0.0003	-9e-05	-7e-05	-0.00023	9e-05	8e-05	-0.00015	3
10493	-0.00022	0.0003	-9e-05	-7e-05	-0.00023	9e-05	8e-05	-0.00015	3
10494	-0.00022	0.0003	-9e-05	-7e-05	-0.00023	9e-05	8e-05	-0.00015	3
10495	-0.00022	0.0003	-9e-05	-7e-05	-0.00023	9e-05	8e-05	-0.00015	3
10496	-0.00022	0.0003	-9e-05	-7e-05	-0.00023	9e-05	8e-05	-0.00015	3
10497	-0.00022	0.0003	-9e-05	-7e-05	-0.00023	9e-05	8e-05	-0.00015	3
10498	-0.00022	0.0003	-9e-05	-7e-05	-0.00023	9e-05	8e-05	-0.00015	3
10499	-0.00022	0.0003	-9e-05	-7e-05	-0.00023	9e-05	8e-05	-0.00015	3
10500	-0.00022	0.0003	-9e-05	-7e-05	-0.00023	9e-05	8e-05	-0.00015	3
10501	-0.00022	0.0003	-9e-05	-7e-05	-0.00023	9e-05	8e-05	-0.00015	3
10502	-0.00022	0.0003	-9e-05	-7e-05	-0.00023	9e-05	8e-05	-0.00015	3
10503	0.00012	0.00011	4e-05	1e-05	-0.0001	7e-05	-4e-05	0.00017	3
10504	0.00012	0.00011	4e-05	1e-05	-0.0001	7e-05	-4e-05	0.00017	3
10505	-9e-05	-0.00023	-0.00016	-0.0001	-0.00052	-0.00026	-0.00014	-0.00022	3
10506	-9e-05	-0.00023	-0.00016	-0.0001	-0.00052	-0.00026	-0.00014	-0.00022	3
10507	-9e-05	-0.00023	-0.00016	-0.0001	-0.00052	-0.00026	-0.00014	-0.00022	3
10508	-9e-05	-0.00023	-0.00016	-0.0001	-0.00052	-0.00026	-0.00014	-0.00022	3
10509	-9e-05	-0.00023	-0.00016	-0.0001	-0.00052	-0.00026	-0.00014	-0.00022	3
10510	-9e-05	-0.00023	-0.00016	-0.0001	-0.00052	-0.00026	-0.00014	-0.00022	3
10511	-9e-05	-0.00023	-0.00016	-0.0001	-0.00052	-0.00026	-0.00014	-0.00022	3
10512	-9e-05	-0.00023	-0.00016	-0.0001	-0.00052	-0.00026	-0.00014	-0.00022	3
10513	-9e-05	-0.00023	-0.00016	-0.0001	-0.00052	-0.00026	-0.00014	-0.00022	3
10514	-9e-05	-0.00023	-0.00016	-0.0001	-0.00052	-0.00026	-0.00014	-0.00022	3
10515	-9e-05	-0.00023	-0.00016	-0.0001	-0.00052	-0.00026	-0.00014	-0.00022	3
10516	-9e-05	-0.00023	-0.00016	-0.0001	-0.00052	-0.00026	-0.00014	-0.00022	3
10517	-9e-05	-0.00023	-0.00016	-0.0001	-0.00052	-0.00026	-0.00014	-0.00022	3
10518	-9e-05	-0.00023	-0.00016	-0.0001	-0.00052	-0.00026	-0.00014	-0.00022	3
10519	-9e-05	-0.00023	-0.00016	-0.0001	-0.00052	-0.00026	-0.00014	-0.00022	3
10520	-9e-05	-0.00023	-0.00016	-0.0001	-0.00052	-0.00026	-0.00014	-0.00022	3
10521	-9e-05	-0.00023	-0.00016	-0.0001	-0.00052	-0.00026	-0.00014	-0.00022	3
10522	-9e-05	-0.00023	-0.00016	-0.0001	-0.00052	-0.00026	-0.00014	-0.00022	3
10523	-9e-05	-0.00023	-0.00016	-0.0001	-0.00052	-0.00026	-0.00014	-0.00022	3
10524	-9e-05	-0.00023	-0.00016	-0.0001	-0.00052	-0.00026	-0.00014	-0.00022	3
10525	-9e-05	-0.00023	-0.00016	-0.0001	-0.00052	-0.00026	-0.00014	-0.00022	3
10526	6e-05	-0.0001	0	4e-05	-0.00012	2e-05	2e-05	5e-05	3
10527	-8e-05	0.00039	6e-05	7e-05	0.00031	0.00025	6e-05	3e-05	3
10528	-8e-05	0.00039	6e-05	7e-05	0.00031	0.00025	6e-05	3e-05	3
10529	-8e-05	0.00039	6e-05	7e-05	0.00031	0.00025	6e-05	3e-05	3
10530	-8e-05	0.00039	6e-05	7e-05	0.00031	0.00025	6e-05	3e-05	3
10531	-8e-05	0.00039	6e-05	7e-05	0.00031	0.00025	6e-05	3e-05	3
10532	-8e-05	0.00039	6e-05	7e-05	0.00031	0.00025	6e-05	3e-05	3
10533	-8e-05	0.00039	6e-05	7e-05	0.00031	0.00025	6e-05	3e-05	3
10534	-8e-05	0.00039	6e-05	7e-05	0.00031	0.00025	6e-05	3e-05	3
10535	-8e-05	0.00039	6e-05	7e-05	0.00031	0.00025	6e-05	3e-05	3
10536	-8e-05	0.00039	6e-05	7e-05	0.00031	0.00025	6e-05	3e-05	3
10540	-8e-05	0.00039	6e-05	7e-05	0.00031	0.00025	6e-05	3e-05	3
10541	-4e-05	-0.00029	-0.00021	-5e-05	4e-05	7e-05	-4e-05	-3e-05	3
10542	-4e-05	-0.00029	-0.00021	-5e-05	4e-05	7e-05	-4e-05	-3e-05	3
10543	-4e-05	-0.00029	-0.00021	-5e-05	4e-05	7e-05	-4e-05	-3e-05	3
10544	-4e-05	-0.00029	-0.00021	-5e-05	4e-05	7e-05	-4e-05	-3e-05	3
10545	-4e-05	-0.00029	-0.00021	-5e-05	4e-05	7e-05	-4e-05	-3e-05	3
10546	-4e-05	-0.00029	-0.00021	-5e-05	4e-05	7e-05	-4e-05	-3e-05	3
10547	-7e-05	0.00038	-0.00017	-5e-05	-0.00011	2e-05	-0.00011	-5e-05	3
10548	-7e-05	0.00038	-0.00017	-5e-05	-0.00011	2e-05	-0.00011	-5e-05	3
10549	-7e-05	0.00038	-0.00017	-5e-05	-0.00011	2e-05	-0.00011	-5e-05	3
10550	-7e-05	0.00038	-0.00017	-5e-05	-0.00011	2e-05	-0.00011	-5e-05	3
10551	-7e-05	0.00038	-0.00017	-5e-05	-0.00011	2e-05	-0.00011	-5e-05	3
10552	-7e-05	0.00038	-0.00017	-5e-05	-0.00011	2e-05	-0.00011	-5e-05	3
10553	-7e-05	0.00038	-0.00017	-5e-05	-0.00011	2e-05	-0.00011	-5e-05	3
10554	-7e-05	0.00038	-0.00017	-5e-05	-0.00011	2e-05	-0.00011	-5e-05	3
10555	-7e-05	0.00038	-0.00017	-5e-05	-0.00011	2e-05	-0.00011	-5e-05	3
10556	-7e-05	0.00038	-0.00017	-5e-05	-0.00011	2e-05	-0.00011	-5e-05	3
10557	-7e-05	0.00038	-0.00017	-5e-05	-0.00011	2e-05	-0.00011	-5e-05	3
10558	-7e-05	0.00038	-0.00017	-5e-05	-0.00011	2e-05	-0.00011	-5e-05	3
10559	-7e-05	0.00038	-0.00017	-5e-05	-0.00011	2e-05	-0.00011	-5e-05	3
10560	-7e-05	0.00038	-0.00017	-5e-05	-0.00011	2e-05	-0.00011	-5e-05	3
10561	-7e-05	0.00038	-0.00017	-5e-05	-0.00011	2e-05	-0.00011	-5e-05	3
10562	-7e-05	0.00038	-0.00017	-5e-05	-0.00011	2e-05	-0.00011	-5e-05	3
10563	0.00021	0.00016	7e-05	1e-05	0.00011	0.00019	3e-05	-0.0003	3
10564	1e-05	0.00062	-4e-05	-2e-05	-0.00037	-0.00021	0	1e-05	3
10565	-1e-05	-0.00034	0.0001	6e-05	0.00023	-2e-05	5e-05	2e-05	3
10566	-1e-05	-0.00034	0.0001	6e-05	0.00023	-2e-05	5e-05	2e-05	3
10567	-1e-05	-0.00034	0.0001	6e-05	0.00023	-2e-05	5e-05	2e-05	3
10568	-1e-05	-0.00034	0.0001	6e-05	0.00023	-2e-05	5e-05	2e-05	3
10569	-1e-05	-0.00034	0.0001	6e-05	0.00023	-2e-05	5e-05	2e-05	3
10570	-1e-05	-0.00034	0.0001	6e-05	0.00023	-2e-05	5e-05	2e-05	3
10571	-1e-05	-0.00034	0.0001	6e-05	0.00023	-2e-05	5e-05	2e-05	3
10572	-1e-05	-0.00034	0.0001	6e-05	0.00023	-2e-05	5e-05	2e-05	3
10573	-1e-05	-0.00034	0.0001	6e-05	0.00023	-2e-05	5e-05	2e-05	3
10574	-1e-05	-0.00034	0.0001	6e-05	0.00023	-2e-05	5e-05	2e-05	3
10575	-1e-05	-0.00034	0.0001	6e-05	0.00023	-2e-05	5e-05	2e-05	3
10576	-1e-05	-0.00034	0.0001	6e-05	0.00023	-2e-05	5e-05	2e-05	3
10577	-1e-05	-0.00034	0.0001	6e-05	0.00023	-2e-05	5e-05	2e-05	3
10578	-1e-05	-0.00034	0.0001	6e-05	0.00023	-2e-05	5e-05	2e-05	3
10579	-1e-05	-0.00034	0.0001	6e-05	0.00023	-2e-05	5e-05	2e-05	3
10580	-1e-05	-0.00034	0.0001	6e-05	0.00023	-2e-05	5e-05	2e-05	3
10581	-1e-05	-0.00034	0.0001	6e-05	0.00023	-2e-05	5e-05	2e-05	3
10582	-1e-05	-0.00034	0.0001	6e-05	0.00023	-2e-05	5e-05	2e-05	3
10583	-1e-05	-0.00034	0.0001	6e-05	0.00023	-2e-05	5e-05	2e-05	3
10584	-1e-05	-0.00034	0.0001	6e-05	0.00023	-2e-05	5e-05	2e-05	3
10585	-1e-05	-0.00034	0.0001	6e-05	0.00023	-2e-05	5e-05	2e-05	3
10586	1e-05	7e-05	9e-05	-2e-05	-0.00016	-0.00016	-3e-05	-5e-05	3
10589	0.00016	-0.00071	-1e-05	0	0.00015	8e-05	6e-05	0.00012	3
10590	0.00016	-0.00071	-1e-05	0	0.00015	8e-05	6e-05	0.00012	3
10591	0.00016	-0.00071	-1e-05	0	0.00015	8e-05	6e-05	0.00012	3
10592	0.00016	-0.00071	-1e-05	0	0.00015	8e-05	6e-05	0.00012	3
10593	0.00016	-0.00071	-1e-05	0	0.00015	8e-05	6e-05	0.00012	3
10594	0.00016	-0.00071	-1e-05	0	0.00015	8e-05	6e-05	0.00012	3
10595	0.00016	-0.00071	-1e-05	0	0.00015	8e-05	6e-05	0.00012	3
10596	0.00016	-0.00071	-1e-05	0	0.00015	8e-05	6e-05	0.00012	3
10597	0.00016	-0.00071	-1e-05	0	0.00015	8e-05	6e-05	0.00012	3
10598	0.00016	-0.00071	-1e-05	0	0.00015	8e-05	6e-05	0.00012	3
10599	0.00016	-0.00071	-1e-05	0	0.00015	8e-05	6e-05	0.00012	3
10600	4e-05	-0.00064	0.0001	3e-05	0.00027	0.00076	0.00012	-2e-05	3
10601	4e-05	-0.00064	0.0001	3e-05	0.00027	0.00076	0.00012	-2e-05	3
10602	4e-05	-0.00064	0.0001	3e-05	0.00027	0.00076	0.00012	-2e-05	3
10603	4e-05	-0.00064	0.0001	3e-05	0.00027	0.00076	0.00012	-2e-05	3
10604	4e-05	-0.00064	0.0001	3e-05	0.00027	0.00076	0.00012	-2e-05	3
10605	4e-05	-0.00064	0.0001	3e-05	0.00027	0.00076	0.00012	-2e-05	3
10606	4e-05	-0.00064	0.0001	3e-05	0.00027	0.00076	0.00012	-2e-05	3
10607	0.00013	-1e-05	-2e-05	-2e-05	-8e-05	-9e-05	0.00011	0.00011	3
10608	0.00013	-1e-05	-2e-05	-2e-05	-8e-05	-9e-05	0.00011	0.00011	3
10609	0.00013	-1e-05	-2e-05	-2e-05	-8e-05	-9e-05	0.00011	0.00011	3
10610	0.00013	-1e-05	-2e-05	-2e-05	-8e-05	-9e-05	0.00011	0.00011	3
10611	0.00013	-1e-05	-2e-05	-2e-05	-8e-05	-9e-05	0.00011	0.00011	3
10612	0.00013	-1e-05	-2e-05	-2e-05	-8e-05	-9e-05	0.00011	0.00011	3
10613	0.00013	-1e-05	-2e-05	-2e-05	-8e-05	-9e-05	0.00011	0.00011	3
10614	0.00013	-1e-05	-2e-05	-2e-05	-8e-05	-9e-05	0.00011	0.00011	3
10615	0.00013	-1e-05	-2e-05	-2e-05	-8e-05	-9e-05	0.00011	0.00011	3
10616	0.00013	-1e-05	-2e-05	-2e-05	-8e-05	-9e-05	0.00011	0.00011	3
10617	0.00013	-1e-05	-2e-05	-2e-05	-8e-05	-9e-05	0.00011	0.00011	3
10618	0.00013	-1e-05	-2e-05	-2e-05	-8e-05	-9e-05	0.00011	0.00011	3
10619	0.00013	-1e-05	-2e-05	-2e-05	-8e-05	-9e-05	0.00011	0.00011	3
10620	0.00013	-1e-05	-2e-05	-2e-05	-8e-05	-9e-05	0.00011	0.00011	3
10621	0.00013	-1e-05	-2e-05	-2e-05	-8e-05	-9e-05	0.00011	0.00011	3
10622	0.00013	-1e-05	-2e-05	-2e-05	-8e-05	-9e-05	0.00011	0.00011	3
10623	0.00013	-1e-05	-2e-05	-2e-05	-8e-05	-9e-05	0.00011	0.00011	3
10624	0.00013	-1e-05	-2e-05	-2e-05	-8e-05	-9e-05	0.00011	0.00011	3
10625	0.00013	-1e-05	-2e-05	-2e-05	-8e-05	-9e-05	0.00011	0.00011	3
10626	0.00013	-1e-05	-2e-05	-2e-05	-8e-05	-9e-05	0.00011	0.00011	3
10627	0.00013	-1e-05	-2e-05	-2e-05	-8e-05	-9e-05	0.00011	0.00011	3
10628	0.00013	-1e-05	-2e-05	-2e-05	-8e-05	-9e-05	0.00011	0.00011	3
10629	0.00013	-1e-05	-2e-05	-2e-05	-8e-05	-9e-05	0.00011	0.00011	3
10630	-2e-05	9e-05	-1e-05	4e-05	0.00014	7e-05	0	0	3
10631	-0.00011	-0.00024	8e-05	3e-05	9e-05	-0.0001	-3e-05	-0.00012	3
10632	-0.00025	-8e-05	-2e-05	-9e-05	-0.0003	0	-8e-05	0	3
10633	-0.00025	-8e-05	-2e-05	-9e-05	-0.0003	0	-8e-05	0	3
10634	-0.00025	-8e-05	-2e-05	-9e-05	-0.0003	0	-8e-05	0	3
10635	-0.00025	-8e-05	-2e-05	-9e-05	-0.0003	0	-8e-05	0	3
10636	-0.00025	-8e-05	-2e-05	-9e-05	-0.0003	0	-8e-05	0	3
10638	-0.00025	-8e-05	-2e-05	-9e-05	-0.0003	0	-8e-05	0	3
10639	-0.00025	-8e-05	-2e-05	-9e-05	-0.0003	0	-8e-05	0	3
10640	-0.00025	-8e-05	-2e-05	-9e-05	-0.0003	0	-8e-05	0	3
10641	-0.00025	-8e-05	-2e-05	-9e-05	-0.0003	0	-8e-05	0	3
10642	-0.00025	-8e-05	-2e-05	-9e-05	-0.0003	0	-8e-05	0	3
10643	-0.00025	-8e-05	-2e-05	-9e-05	-0.0003	0	-8e-05	0	3
10644	-0.00025	-8e-05	-2e-05	-9e-05	-0.0003	0	-8e-05	0	3
10645	-0.00025	-8e-05	-2e-05	-9e-05	-0.0003	0	-8e-05	0	3
10646	1e-05	0.00017	-8e-05	-5e-05	-2e-05	-0.00015	3e-05	-7e-05	3
10647	-8e-05	8e-05	-0.00014	-4e-05	-0.00015	-0.00023	5e-05	2e-05	3
10648	-8e-05	8e-05	-0.00014	-4e-05	-0.00015	-0.00023	5e-05	2e-05	3
10649	-8e-05	8e-05	-0.00014	-4e-05	-0.00015	-0.00023	5e-05	2e-05	3
10650	-8e-05	8e-05	-0.00014	-4e-05	-0.00015	-0.00023	5e-05	2e-05	3
10651	-8e-05	8e-05	-0.00014	-4e-05	-0.00015	-0.00023	5e-05	2e-05	3
10652	-8e-05	8e-05	-0.00014	-4e-05	-0.00015	-0.00023	5e-05	2e-05	3
10653	-8e-05	8e-05	-0.00014	-4e-05	-0.00015	-0.00023	5e-05	2e-05	3
10654	-8e-05	8e-05	-0.00014	-4e-05	-0.00015	-0.00023	5e-05	2e-05	3
10655	-8e-05	8e-05	-0.00014	-4e-05	-0.00015	-0.00023	5e-05	2e-05	3
10656	-8e-05	8e-05	-0.00014	-4e-05	-0.00015	-0.00023	5e-05	2e-05	3
10657	-8e-05	8e-05	-0.00014	-4e-05	-0.00015	-0.00023	5e-05	2e-05	3
10658	-8e-05	8e-05	-0.00014	-4e-05	-0.00015	-0.00023	5e-05	2e-05	3
10659	9e-05	0.0003	0.00014	2e-05	6e-05	0.00018	9e-05	0.00013	3
10660	9e-05	0.0003	0.00014	2e-05	6e-05	0.00018	9e-05	0.00013	3
10661	9e-05	0.0003	0.00014	2e-05	6e-05	0.00018	9e-05	0.00013	3
10662	9e-05	0.0003	0.00014	2e-05	6e-05	0.00018	9e-05	0.00013	3
10663	9e-05	0.0003	0.00014	2e-05	6e-05	0.00018	9e-05	0.00013	3
10664	9e-05	0.0003	0.00014	2e-05	6e-05	0.00018	9e-05	0.00013	3
10665	9e-05	0.0003	0.00014	2e-05	6e-05	0.00018	9e-05	0.00013	3
10666	9e-05	0.0003	0.00014	2e-05	6e-05	0.00018	9e-05	0.00013	3
10667	9e-05	0.0003	0.00014	2e-05	6e-05	0.00018	9e-05	0.00013	3
10668	3e-05	0.00049	0.00012	5e-05	0.00042	0.00022	0.0001	-0.0001	3
10669	3e-05	0.00049	0.00012	5e-05	0.00042	0.00022	0.0001	-0.0001	3
10670	3e-05	0.00049	0.00012	5e-05	0.00042	0.00022	0.0001	-0.0001	3
10671	3e-05	0.00049	0.00012	5e-05	0.00042	0.00022	0.0001	-0.0001	3
10672	3e-05	0.00049	0.00012	5e-05	0.00042	0.00022	0.0001	-0.0001	3
10673	3e-05	0.00049	0.00012	5e-05	0.00042	0.00022	0.0001	-0.0001	3
10674	3e-05	0.00049	0.00012	5e-05	0.00042	0.00022	0.0001	-0.0001	3
10675	3e-05	0.00049	0.00012	5e-05	0.00042	0.00022	0.0001	-0.0001	3
10676	3e-05	0.00049	0.00012	5e-05	0.00042	0.00022	0.0001	-0.0001	3
10677	3e-05	0.00049	0.00012	5e-05	0.00042	0.00022	0.0001	-0.0001	3
10678	3e-05	0.00049	0.00012	5e-05	0.00042	0.00022	0.0001	-0.0001	3
10679	3e-05	0.00049	0.00012	5e-05	0.00042	0.00022	0.0001	-0.0001	3
10680	3e-05	0.00049	0.00012	5e-05	0.00042	0.00022	0.0001	-0.0001	3
10681	3e-05	0.00049	0.00012	5e-05	0.00042	0.00022	0.0001	-0.0001	3
10682	3e-05	0.00049	0.00012	5e-05	0.00042	0.00022	0.0001	-0.0001	3
10683	1e-05	5e-05	-0.00015	-0.00012	-0.00019	-0.00068	-0.00014	8e-05	3
10684	1e-05	5e-05	-0.00015	-0.00012	-0.00019	-0.00068	-0.00014	8e-05	3
10685	8e-05	-0.00011	0	-2e-05	-0.00016	0.0004	-2e-05	-0.0001	3
10686	8e-05	-0.00011	0	-2e-05	-0.00016	0.0004	-2e-05	-0.0001	3
10689	8e-05	-0.00011	0	-2e-05	-0.00016	0.0004	-2e-05	-0.0001	3
10690	8e-05	-0.00011	0	-2e-05	-0.00016	0.0004	-2e-05	-0.0001	3
10691	8e-05	-0.00011	0	-2e-05	-0.00016	0.0004	-2e-05	-0.0001	3
10692	8e-05	-0.00011	0	-2e-05	-0.00016	0.0004	-2e-05	-0.0001	3
10693	8e-05	-0.00011	0	-2e-05	-0.00016	0.0004	-2e-05	-0.0001	3
10694	8e-05	-0.00011	0	-2e-05	-0.00016	0.0004	-2e-05	-0.0001	3
10695	8e-05	-0.00011	0	-2e-05	-0.00016	0.0004	-2e-05	-0.0001	3
10696	8e-05	-0.00011	0	-2e-05	-0.00016	0.0004	-2e-05	-0.0001	3
10697	8e-05	-0.00011	0	-2e-05	-0.00016	0.0004	-2e-05	-0.0001	3
10698	8e-05	-0.00011	0	-2e-05	-0.00016	0.0004	-2e-05	-0.0001	3
10699	8e-05	-0.00011	0	-2e-05	-0.00016	0.0004	-2e-05	-0.0001	3
10700	8e-05	-0.00011	0	-2e-05	-0.00016	0.0004	-2e-05	-0.0001	3
10701	8e-05	-0.00011	0	-2e-05	-0.00016	0.0004	-2e-05	-0.0001	3
10702	8e-05	-0.00011	0	-2e-05	-0.00016	0.0004	-2e-05	-0.0001	3
10703	8e-05	-0.00011	0	-2e-05	-0.00016	0.0004	-2e-05	-0.0001	3
10704	8e-05	-0.00011	0	-2e-05	-0.00016	0.0004	-2e-05	-0.0001	3
10705	8e-05	-0.00011	0	-2e-05	-0.00016	0.0004	-2e-05	-0.0001	3
10706	0.0001	-7e-05	5e-05	8e-05	0.0002	8e-05	0	-0.0004	3
10707	4e-05	-0.00038	0.00016	1e-05	0.00012	0	2e-05	5e-05	3
10708	4e-05	-0.00038	0.00016	1e-05	0.00012	0	2e-05	5e-05	3
10709	4e-05	-0.00038	0.00016	1e-05	0.00012	0	2e-05	5e-05	3
10710	4e-05	-0.00038	0.00016	1e-05	0.00012	0	2e-05	5e-05	3
10711	4e-05	-0.00038	0.00016	1e-05	0.00012	0	2e-05	5e-05	3
10712	4e-05	-0.00038	0.00016	1e-05	0.00012	0	2e-05	5e-05	3
10713	4e-05	-0.00038	0.00016	1e-05	0.00012	0	2e-05	5e-05	3
10714	4e-05	-0.00038	0.00016	1e-05	0.00012	0	2e-05	5e-05	3
10715	4e-05	-0.00038	0.00016	1e-05	0.00012	0	2e-05	5e-05	3
10716	4e-05	-0.00038	0.00016	1e-05	0.00012	0	2e-05	5e-05	3
10717	4e-05	-0.00038	0.00016	1e-05	0.00012	0	2e-05	5e-05	3
10718	4e-05	-0.00038	0.00016	1e-05	0.00012	0	2e-05	5e-05	3
10719	-6e-05	0.00045	9e-05	-3e-05	-0.00019	-8e-05	-6e-05	-4e-05	3
10720	-0.00021	-0.00104	-0.00018	-0.00011	-0.00013	-0.00034	-0.00013	-0.00014	3
10721	-0.00021	-0.00104	-0.00018	-0.00011	-0.00013	-0.00034	-0.00013	-0.00014	3
10722	-0.00021	-0.00104	-0.00018	-0.00011	-0.00013	-0.00034	-0.00013	-0.00014	3
10723	-0.00021	-0.00104	-0.00018	-0.00011	-0.00013	-0.00034	-0.00013	-0.00014	3
10724	-0.00021	-0.00104	-0.00018	-0.00011	-0.00013	-0.00034	-0.00013	-0.00014	3
10725	-0.00021	-0.00104	-0.00018	-0.00011	-0.00013	-0.00034	-0.00013	-0.00014	3
10726	-0.00021	-0.00104	-0.00018	-0.00011	-0.00013	-0.00034	-0.00013	-0.00014	3
10727	-0.00021	-0.00104	-0.00018	-0.00011	-0.00013	-0.00034	-0.00013	-0.00014	3
10728	-0.00021	-0.00104	-0.00018	-0.00011	-0.00013	-0.00034	-0.00013	-0.00014	3
10729	8e-05	0.00026	0.00014	2e-05	2e-05	5e-05	3e-05	0	3
10730	8e-05	0.00026	0.00014	2e-05	2e-05	5e-05	3e-05	0	3
10731	8e-05	0.00026	0.00014	2e-05	2e-05	5e-05	3e-05	0	3
10732	8e-05	0.00026	0.00014	2e-05	2e-05	5e-05	3e-05	0	3
10733	8e-05	0.00026	0.00014	2e-05	2e-05	5e-05	3e-05	0	3
10734	8e-05	0.00026	0.00014	2e-05	2e-05	5e-05	3e-05	0	3
10735	8e-05	0.00026	0.00014	2e-05	2e-05	5e-05	3e-05	0	3
10736	8e-05	0.00026	0.00014	2e-05	2e-05	5e-05	3e-05	0	3
10740	8e-05	0.00026	0.00014	2e-05	2e-05	5e-05	3e-05	0	3
10741	8e-05	0.00026	0.00014	2e-05	2e-05	5e-05	3e-05	0	3
10742	8e-05	0.00026	0.00014	2e-05	2e-05	5e-05	3e-05	0	3
10743	0.00011	-0.00011	0.00021	9e-05	0.00017	-3e-05	-2e-05	0.00015	3
10744	0.00011	-0.00011	0.00021	9e-05	0.00017	-3e-05	-2e-05	0.00015	3
10745	0	0.00018	-0.00013	-2e-05	-0.0001	-0.00027	-3e-05	-3e-05	3
10746	0	0.00018	-0.00013	-2e-05	-0.0001	-0.00027	-3e-05	-3e-05	3
10747	0	0.00018	-0.00013	-2e-05	-0.0001	-0.00027	-3e-05	-3e-05	3
10748	0	0.00018	-0.00013	-2e-05	-0.0001	-0.00027	-3e-05	-3e-05	3
10749	0	0.00018	-0.00013	-2e-05	-0.0001	-0.00027	-3e-05	-3e-05	3
10750	0	0.00018	-0.00013	-2e-05	-0.0001	-0.00027	-3e-05	-3e-05	3
10751	0	0.00018	-0.00013	-2e-05	-0.0001	-0.00027	-3e-05	-3e-05	3
10752	0	0.00018	-0.00013	-2e-05	-0.0001	-0.00027	-3e-05	-3e-05	3
10753	0	0.00018	-0.00013	-2e-05	-0.0001	-0.00027	-3e-05	-3e-05	3
10754	0	0.00018	-0.00013	-2e-05	-0.0001	-0.00027	-3e-05	-3e-05	3
10755	0	0.00018	-0.00013	-2e-05	-0.0001	-0.00027	-3e-05	-3e-05	3
10756	0	0.00018	-0.00013	-2e-05	-0.0001	-0.00027	-3e-05	-3e-05	3
10757	0	0.00018	-0.00013	-2e-05	-0.0001	-0.00027	-3e-05	-3e-05	3
10758	0	0.00018	-0.00013	-2e-05	-0.0001	-0.00027	-3e-05	-3e-05	3
10759	0	0.00018	-0.00013	-2e-05	-0.0001	-0.00027	-3e-05	-3e-05	3
10760	0	0.00018	-0.00013	-2e-05	-0.0001	-0.00027	-3e-05	-3e-05	3
10761	0	0.00018	-0.00013	-2e-05	-0.0001	-0.00027	-3e-05	-3e-05	3
10762	0	0.00018	-0.00013	-2e-05	-0.0001	-0.00027	-3e-05	-3e-05	3
10763	0	0.00018	-0.00013	-2e-05	-0.0001	-0.00027	-3e-05	-3e-05	3
10764	0	0.00018	-0.00013	-2e-05	-0.0001	-0.00027	-3e-05	-3e-05	3
10765	8e-05	0.00048	0	3e-05	0.00015	0.00023	8e-05	7e-05	3
10766	8e-05	0.00048	0	3e-05	0.00015	0.00023	8e-05	7e-05	3
10767	3e-05	-0.00028	-4e-05	3e-05	-0.00013	4e-05	-4e-05	-7e-05	3
10768	3e-05	-0.00028	-4e-05	3e-05	-0.00013	4e-05	-4e-05	-7e-05	3
10769	3e-05	-0.00028	-4e-05	3e-05	-0.00013	4e-05	-4e-05	-7e-05	3
10770	3e-05	-0.00028	-4e-05	3e-05	-0.00013	4e-05	-4e-05	-7e-05	3
10771	3e-05	-0.00028	-4e-05	3e-05	-0.00013	4e-05	-4e-05	-7e-05	3
10772	3e-05	-0.00028	-4e-05	3e-05	-0.00013	4e-05	-4e-05	-7e-05	3
10773	3e-05	-0.00028	-4e-05	3e-05	-0.00013	4e-05	-4e-05	-7e-05	3
10774	3e-05	-0.00028	-4e-05	3e-05	-0.00013	4e-05	-4e-05	-7e-05	3
10775	3e-05	-0.00028	-4e-05	3e-05	-0.00013	4e-05	-4e-05	-7e-05	3
10776	3e-05	-0.00028	-4e-05	3e-05	-0.00013	4e-05	-4e-05	-7e-05	3
10777	3e-05	-0.00028	-4e-05	3e-05	-0.00013	4e-05	-4e-05	-7e-05	3
10778	3e-05	-0.00028	-4e-05	3e-05	-0.00013	4e-05	-4e-05	-7e-05	3
10779	-8e-05	3e-05	-7e-05	4e-05	0.00034	0.00028	0	0.00022	3
10780	-8e-05	3e-05	-7e-05	4e-05	0.00034	0.00028	0	0.00022	3
10781	-8e-05	3e-05	-7e-05	4e-05	0.00034	0.00028	0	0.00022	3
10782	-8e-05	3e-05	-7e-05	4e-05	0.00034	0.00028	0	0.00022	3
10783	-8e-05	3e-05	-7e-05	4e-05	0.00034	0.00028	0	0.00022	3
10784	-8e-05	3e-05	-7e-05	4e-05	0.00034	0.00028	0	0.00022	3
10785	-8e-05	3e-05	-7e-05	4e-05	0.00034	0.00028	0	0.00022	3
10787	-8e-05	3e-05	-7e-05	4e-05	0.00034	0.00028	0	0.00022	3
10789	-0.00022	-0.00053	0.00024	4e-05	3e-05	-0.00041	-0.00012	-0.00011	3
10790	-0.00022	-0.00053	0.00024	4e-05	3e-05	-0.00041	-0.00012	-0.00011	3
10791	-0.00022	-0.00053	0.00024	4e-05	3e-05	-0.00041	-0.00012	-0.00011	3
10792	-0.00022	-0.00053	0.00024	4e-05	3e-05	-0.00041	-0.00012	-0.00011	3
10793	-0.00022	-0.00053	0.00024	4e-05	3e-05	-0.00041	-0.00012	-0.00011	3
10794	-0.00022	-0.00053	0.00024	4e-05	3e-05	-0.00041	-0.00012	-0.00011	3
10795	-0.00022	-0.00053	0.00024	4e-05	3e-05	-0.00041	-0.00012	-0.00011	3
10796	-0.00022	-0.00053	0.00024	4e-05	3e-05	-0.00041	-0.00012	-0.00011	3
10797	-0.00022	-0.00053	0.00024	4e-05	3e-05	-0.00041	-0.00012	-0.00011	3
10798	-0.00022	-0.00053	0.00024	4e-05	3e-05	-0.00041	-0.00012	-0.00011	3
10799	-0.00022	-0.00053	0.00024	4e-05	3e-05	-0.00041	-0.00012	-0.00011	3
10800	-0.00022	-0.00053	0.00024	4e-05	3e-05	-0.00041	-0.00012	-0.00011	3
10801	-0.00022	-0.00053	0.00024	4e-05	3e-05	-0.00041	-0.00012	-0.00011	3
10802	-0.00022	-0.00053	0.00024	4e-05	3e-05	-0.00041	-0.00012	-0.00011	3
10803	-0.00023	-0.0003	-1e-05	-9e-05	-0.00041	-0.00025	-0.00011	-8e-05	3
10804	-6e-05	0.0001	-8e-05	1e-05	-4e-05	0.00013	-1e-05	-0.00028	3
10805	-4e-05	-0.00034	-0.00012	5e-05	0.00032	-0.00021	-6e-05	0.00025	3
10806	-4e-05	-0.00034	-0.00012	5e-05	0.00032	-0.00021	-6e-05	0.00025	3
10807	-4e-05	-0.00034	-0.00012	5e-05	0.00032	-0.00021	-6e-05	0.00025	3
10808	-4e-05	-0.00034	-0.00012	5e-05	0.00032	-0.00021	-6e-05	0.00025	3
10809	-4e-05	-0.00034	-0.00012	5e-05	0.00032	-0.00021	-6e-05	0.00025	3
10810	-4e-05	-0.00034	-0.00012	5e-05	0.00032	-0.00021	-6e-05	0.00025	3
10811	-4e-05	-0.00034	-0.00012	5e-05	0.00032	-0.00021	-6e-05	0.00025	3
10812	-4e-05	-0.00034	-0.00012	5e-05	0.00032	-0.00021	-6e-05	0.00025	3
10813	-4e-05	-0.00034	-0.00012	5e-05	0.00032	-0.00021	-6e-05	0.00025	3
10814	-4e-05	-0.00034	-0.00012	5e-05	0.00032	-0.00021	-6e-05	0.00025	3
10815	-4e-05	-0.00034	-0.00012	5e-05	0.00032	-0.00021	-6e-05	0.00025	3
10816	-4e-05	-0.00034	-0.00012	5e-05	0.00032	-0.00021	-6e-05	0.00025	3
10817	-4e-05	-0.00034	-0.00012	5e-05	0.00032	-0.00021	-6e-05	0.00025	3
10818	-4e-05	-0.00034	-0.00012	5e-05	0.00032	-0.00021	-6e-05	0.00025	3
10819	-4e-05	-0.00034	-0.00012	5e-05	0.00032	-0.00021	-6e-05	0.00025	3
10820	-4e-05	-0.00034	-0.00012	5e-05	0.00032	-0.00021	-6e-05	0.00025	3
10821	-4e-05	-0.00034	-0.00012	5e-05	0.00032	-0.00021	-6e-05	0.00025	3
10822	-4e-05	-0.00034	-0.00012	5e-05	0.00032	-0.00021	-6e-05	0.00025	3
10823	-4e-05	-0.00034	-0.00012	5e-05	0.00032	-0.00021	-6e-05	0.00025	3
10824	-4e-05	-0.00034	-0.00012	5e-05	0.00032	-0.00021	-6e-05	0.00025	3
10825	-7e-05	0.00047	-2e-05	-7e-05	-0.00025	-0.00031	-3e-05	-0.00024	3
10826	0.00024	0.00057	0.00013	0.0001	0.00028	0.00039	8e-05	8e-05	3
10827	5e-05	0.00028	-0.0001	-4e-05	3e-05	-0.00021	-0.0001	-8e-05	3
10828	5e-05	0.00028	-0.0001	-4e-05	3e-05	-0.00021	-0.0001	-8e-05	3
10829	5e-05	0.00028	-0.0001	-4e-05	3e-05	-0.00021	-0.0001	-8e-05	3
10830	5e-05	0.00028	-0.0001	-4e-05	3e-05	-0.00021	-0.0001	-8e-05	3
10831	5e-05	0.00028	-0.0001	-4e-05	3e-05	-0.00021	-0.0001	-8e-05	3
10832	5e-05	0.00028	-0.0001	-4e-05	3e-05	-0.00021	-0.0001	-8e-05	3
10833	5e-05	0.00028	-0.0001	-4e-05	3e-05	-0.00021	-0.0001	-8e-05	3
10834	5e-05	0.00028	-0.0001	-4e-05	3e-05	-0.00021	-0.0001	-8e-05	3
10835	5e-05	0.00028	-0.0001	-4e-05	3e-05	-0.00021	-0.0001	-8e-05	3
10837	5e-05	0.00028	-0.0001	-4e-05	3e-05	-0.00021	-0.0001	-8e-05	3
38576	-0.00014	0.00098	-0.00026	-3e-05	0	0.00031	-2e-05	0.00021	3
38577	-0.00014	0.00098	-0.00026	-3e-05	0	0.00031	-2e-05	0.00021	3
38578	-0.00014	0.00098	-0.00026	-3e-05	0	0.00031	-2e-05	0.00021	3
38579	-0.00014	0.00098	-0.00026	-3e-05	0	0.00031	-2e-05	0.00021	3
38580	-0.00014	0.00098	-0.00026	-3e-05	0	0.00031	-2e-05	0.00021	3
38581	-0.00014	0.00098	-0.00026	-3e-05	0	0.00031	-2e-05	0.00021	3
38582	-0.00014	0.00098	-0.00026	-3e-05	0	0.00031	-2e-05	0.00021	3
38583	-0.00014	0.00098	-0.00026	-3e-05	0	0.00031	-2e-05	0.00021	3
38584	-0.00014	0.00098	-0.00026	-3e-05	0	0.00031	-2e-05	0.00021	3
38585	-0.00014	0.00098	-0.00026	-3e-05	0	0.00031	-2e-05	0.00021	3
38586	-0.00014	0.00098	-0.00026	-3e-05	0	0.00031	-2e-05	0.00021	3
38588	-0.00014	0.00098	-0.00026	-3e-05	0	0.00031	-2e-05	0.00021	3
38589	-0.00014	0.00098	-0.00026	-3e-05	0	0.00031	-2e-05	0.00021	3
38590	-0.00014	0.00098	-0.00026	-3e-05	0	0.00031	-2e-05	0.00021	3
38591	-0.00014	0.00098	-0.00026	-3e-05	0	0.00031	-2e-05	0.00021	3
38592	-0.00014	0.00098	-0.00026	-3e-05	0	0.00031	-2e-05	0.00021	3
38593	-0.00014	0.00098	-0.00026	-3e-05	0	0.00031	-2e-05	0.00021	3
38594	-0.00014	0.00098	-0.00026	-3e-05	0	0.00031	-2e-05	0.00021	3
38595	-0.00014	0.00098	-0.00026	-3e-05	0	0.00031	-2e-05	0.00021	3
38596	-0.00014	0.00098	-0.00026	-3e-05	0	0.00031	-2e-05	0.00021	3
38597	-0.00014	0.00098	-0.00026	-3e-05	0	0.00031	-2e-05	0.00021	3
38598	-0.00014	0.00098	-0.00026	-3e-05	0	0.00031	-2e-05	0.00021	3
38599	0.00023	0.00127	0.00035	9e-05	-0.00018	-0.00015	-1e-05	7e-05	3
38600	0.00011	0.00028	-7e-05	-1e-05	2e-05	-0.00026	4e-05	0.00034	3
38601	0.00011	0.00028	-7e-05	-1e-05	2e-05	-0.00026	4e-05	0.00034	3
38602	0.00011	0.00028	-7e-05	-1e-05	2e-05	-0.00026	4e-05	0.00034	3
38603	0.00011	0.00028	-7e-05	-1e-05	2e-05	-0.00026	4e-05	0.00034	3
38604	0.00011	0.00028	-7e-05	-1e-05	2e-05	-0.00026	4e-05	0.00034	3
38605	0.00011	0.00028	-7e-05	-1e-05	2e-05	-0.00026	4e-05	0.00034	3
38606	0.00011	0.00028	-7e-05	-1e-05	2e-05	-0.00026	4e-05	0.00034	3
38607	0.00011	0.00028	-7e-05	-1e-05	2e-05	-0.00026	4e-05	0.00034	3
38608	0.00011	0.00028	-7e-05	-1e-05	2e-05	-0.00026	4e-05	0.00034	3
38609	0.00011	0.00028	-7e-05	-1e-05	2e-05	-0.00026	4e-05	0.00034	3
38610	0.00011	0.00028	-7e-05	-1e-05	2e-05	-0.00026	4e-05	0.00034	3
38611	0.00011	0.00028	-7e-05	-1e-05	2e-05	-0.00026	4e-05	0.00034	3
38612	0.00011	0.00028	-7e-05	-1e-05	2e-05	-0.00026	4e-05	0.00034	3
38613	0.00011	0.00028	-7e-05	-1e-05	2e-05	-0.00026	4e-05	0.00034	3
38614	0.00011	0.00028	-7e-05	-1e-05	2e-05	-0.00026	4e-05	0.00034	3
38615	0.00011	0.00028	-7e-05	-1e-05	2e-05	-0.00026	4e-05	0.00034	3
38616	0.00011	0.00028	-7e-05	-1e-05	2e-05	-0.00026	4e-05	0.00034	3
38617	0.00011	0.00028	-7e-05	-1e-05	2e-05	-0.00026	4e-05	0.00034	3
38618	0.00011	0.00028	-7e-05	-1e-05	2e-05	-0.00026	4e-05	0.00034	3
38619	0.00011	0.00028	-7e-05	-1e-05	2e-05	-0.00026	4e-05	0.00034	3
38620	0.00011	0.00028	-7e-05	-1e-05	2e-05	-0.00026	4e-05	0.00034	3
38621	0.00014	0.00127	-0.00018	-6e-05	7e-05	9e-05	-9e-05	-0.00018	3
38622	3e-05	0.00022	0.00018	2e-05	2e-05	0.00018	-5e-05	0.00014	3
38623	3e-05	0.00022	0.00018	2e-05	2e-05	0.00018	-5e-05	0.00014	3
38624	3e-05	0.00022	0.00018	2e-05	2e-05	0.00018	-5e-05	0.00014	3
38625	3e-05	0.00022	0.00018	2e-05	2e-05	0.00018	-5e-05	0.00014	3
38626	3e-05	0.00022	0.00018	2e-05	2e-05	0.00018	-5e-05	0.00014	3
38627	3e-05	0.00022	0.00018	2e-05	2e-05	0.00018	-5e-05	0.00014	3
38628	3e-05	0.00022	0.00018	2e-05	2e-05	0.00018	-5e-05	0.00014	3
38629	3e-05	0.00022	0.00018	2e-05	2e-05	0.00018	-5e-05	0.00014	3
38630	3e-05	0.00022	0.00018	2e-05	2e-05	0.00018	-5e-05	0.00014	3
38631	3e-05	0.00022	0.00018	2e-05	2e-05	0.00018	-5e-05	0.00014	3
38632	3e-05	0.00022	0.00018	2e-05	2e-05	0.00018	-5e-05	0.00014	3
38633	3e-05	0.00022	0.00018	2e-05	2e-05	0.00018	-5e-05	0.00014	3
38634	3e-05	0.00022	0.00018	2e-05	2e-05	0.00018	-5e-05	0.00014	3
38635	0.00056	0.00074	0.00036	0.0001	3e-05	-0.00023	0	0.00015	3
38636	0.00044	-0.00079	-3e-05	8e-05	0.00045	0.00069	0.00016	0.00014	3
38638	0.00044	-0.00079	-3e-05	8e-05	0.00045	0.00069	0.00016	0.00014	3
38639	0.00044	-0.00079	-3e-05	8e-05	0.00045	0.00069	0.00016	0.00014	3
38640	0.00044	-0.00079	-3e-05	8e-05	0.00045	0.00069	0.00016	0.00014	3
38641	0.00044	-0.00079	-3e-05	8e-05	0.00045	0.00069	0.00016	0.00014	3
38642	0.00044	-0.00079	-3e-05	8e-05	0.00045	0.00069	0.00016	0.00014	3
38643	0.00044	-0.00079	-3e-05	8e-05	0.00045	0.00069	0.00016	0.00014	3
38644	0.00044	-0.00079	-3e-05	8e-05	0.00045	0.00069	0.00016	0.00014	3
38645	0.00044	-0.00079	-3e-05	8e-05	0.00045	0.00069	0.00016	0.00014	3
38646	0.00044	-0.00079	-3e-05	8e-05	0.00045	0.00069	0.00016	0.00014	3
38647	0.00044	-0.00079	-3e-05	8e-05	0.00045	0.00069	0.00016	0.00014	3
38648	0.00044	-0.00079	-3e-05	8e-05	0.00045	0.00069	0.00016	0.00014	3
38649	0.00044	-0.00079	-3e-05	8e-05	0.00045	0.00069	0.00016	0.00014	3
38650	0.00044	-0.00079	-3e-05	8e-05	0.00045	0.00069	0.00016	0.00014	3
38651	0.00044	-0.00079	-3e-05	8e-05	0.00045	0.00069	0.00016	0.00014	3
38652	0.00044	-0.00079	-3e-05	8e-05	0.00045	0.00069	0.00016	0.00014	3
38653	0.00044	-0.00079	-3e-05	8e-05	0.00045	0.00069	0.00016	0.00014	3
38654	0.00044	-0.00079	-3e-05	8e-05	0.00045	0.00069	0.00016	0.00014	3
38655	0.00044	-0.00079	-3e-05	8e-05	0.00045	0.00069	0.00016	0.00014	3
38656	0.00044	-0.00079	-3e-05	8e-05	0.00045	0.00069	0.00016	0.00014	3
38657	0.00044	-0.00079	-3e-05	8e-05	0.00045	0.00069	0.00016	0.00014	3
38658	0.00044	-0.00079	-3e-05	8e-05	0.00045	0.00069	0.00016	0.00014	3
38659	-8e-05	0.00083	0.00016	-6e-05	-0.00016	-0.00018	-0.00014	0.00019	3
38660	-8e-05	0.00083	0.00016	-6e-05	-0.00016	-0.00018	-0.00014	0.00019	3
38661	-8e-05	0.00083	0.00016	-6e-05	-0.00016	-0.00018	-0.00014	0.00019	3
38662	-8e-05	0.00083	0.00016	-6e-05	-0.00016	-0.00018	-0.00014	0.00019	3
38663	-8e-05	0.00083	0.00016	-6e-05	-0.00016	-0.00018	-0.00014	0.00019	3
38664	-8e-05	0.00083	0.00016	-6e-05	-0.00016	-0.00018	-0.00014	0.00019	3
38665	-8e-05	0.00083	0.00016	-6e-05	-0.00016	-0.00018	-0.00014	0.00019	3
38666	-8e-05	0.00083	0.00016	-6e-05	-0.00016	-0.00018	-0.00014	0.00019	3
38667	-8e-05	0.00083	0.00016	-6e-05	-0.00016	-0.00018	-0.00014	0.00019	3
38668	-8e-05	0.00083	0.00016	-6e-05	-0.00016	-0.00018	-0.00014	0.00019	3
38669	-8e-05	0.00083	0.00016	-6e-05	-0.00016	-0.00018	-0.00014	0.00019	3
38670	-8e-05	0.00083	0.00016	-6e-05	-0.00016	-0.00018	-0.00014	0.00019	3
38671	-8e-05	0.00083	0.00016	-6e-05	-0.00016	-0.00018	-0.00014	0.00019	3
38672	-8e-05	0.00083	0.00016	-6e-05	-0.00016	-0.00018	-0.00014	0.00019	3
38673	-8e-05	0.00083	0.00016	-6e-05	-0.00016	-0.00018	-0.00014	0.00019	3
38674	-8e-05	0.00083	0.00016	-6e-05	-0.00016	-0.00018	-0.00014	0.00019	3
38675	-8e-05	0.00083	0.00016	-6e-05	-0.00016	-0.00018	-0.00014	0.00019	3
38676	-8e-05	0.00083	0.00016	-6e-05	-0.00016	-0.00018	-0.00014	0.00019	3
38677	-8e-05	0.00083	0.00016	-6e-05	-0.00016	-0.00018	-0.00014	0.00019	3
38678	-8e-05	0.00083	0.00016	-6e-05	-0.00016	-0.00018	-0.00014	0.00019	3
38679	-8e-05	0.00083	0.00016	-6e-05	-0.00016	-0.00018	-0.00014	0.00019	3
38680	-8e-05	0.00083	0.00016	-6e-05	-0.00016	-0.00018	-0.00014	0.00019	3
38681	-0.00013	-0.00089	0	1e-05	0.00012	0.00029	-4e-05	-0.00012	3
38682	-0.00019	-0.00059	-7e-05	-3e-05	-0.00022	-0.00026	-1e-05	5e-05	3
38683	-0.00019	-0.00059	-7e-05	-3e-05	-0.00022	-0.00026	-1e-05	5e-05	3
38684	-0.00019	-0.00059	-7e-05	-3e-05	-0.00022	-0.00026	-1e-05	5e-05	3
38685	-0.00019	-0.00059	-7e-05	-3e-05	-0.00022	-0.00026	-1e-05	5e-05	3
38686	-0.00019	-0.00059	-7e-05	-3e-05	-0.00022	-0.00026	-1e-05	5e-05	3
38688	-0.00019	-0.00059	-7e-05	-3e-05	-0.00022	-0.00026	-1e-05	5e-05	3
38689	-0.00019	-0.00059	-7e-05	-3e-05	-0.00022	-0.00026	-1e-05	5e-05	3
38690	-0.00019	-0.00059	-7e-05	-3e-05	-0.00022	-0.00026	-1e-05	5e-05	3
38691	-0.00019	-0.00059	-7e-05	-3e-05	-0.00022	-0.00026	-1e-05	5e-05	3
38692	-0.00019	-0.00059	-7e-05	-3e-05	-0.00022	-0.00026	-1e-05	5e-05	3
38693	-0.00019	-0.00059	-7e-05	-3e-05	-0.00022	-0.00026	-1e-05	5e-05	3
38694	-0.00019	-0.00059	-7e-05	-3e-05	-0.00022	-0.00026	-1e-05	5e-05	3
38695	-0.00019	-0.00059	-7e-05	-3e-05	-0.00022	-0.00026	-1e-05	5e-05	3
38696	-0.0001	-0.00041	3e-05	-2e-05	-0.00012	-8e-05	-0.0002	-9e-05	3
38697	-0.0001	-0.00041	3e-05	-2e-05	-0.00012	-8e-05	-0.0002	-9e-05	3
38698	-0.0001	-0.00041	3e-05	-2e-05	-0.00012	-8e-05	-0.0002	-9e-05	3
38699	-0.0001	-0.00041	3e-05	-2e-05	-0.00012	-8e-05	-0.0002	-9e-05	3
38700	-0.0001	-0.00041	3e-05	-2e-05	-0.00012	-8e-05	-0.0002	-9e-05	3
38701	-0.0001	-0.00041	3e-05	-2e-05	-0.00012	-8e-05	-0.0002	-9e-05	3
38702	-0.0001	-0.00041	3e-05	-2e-05	-0.00012	-8e-05	-0.0002	-9e-05	3
38703	-0.0001	-0.00041	3e-05	-2e-05	-0.00012	-8e-05	-0.0002	-9e-05	3
38704	-0.0001	-0.00041	3e-05	-2e-05	-0.00012	-8e-05	-0.0002	-9e-05	3
38705	-0.0001	-0.00041	3e-05	-2e-05	-0.00012	-8e-05	-0.0002	-9e-05	3
38706	-0.0001	-0.00041	3e-05	-2e-05	-0.00012	-8e-05	-0.0002	-9e-05	3
38707	-0.0001	-0.00041	3e-05	-2e-05	-0.00012	-8e-05	-0.0002	-9e-05	3
38708	-0.0001	-0.00041	3e-05	-2e-05	-0.00012	-8e-05	-0.0002	-9e-05	3
38709	-0.0001	-0.00041	3e-05	-2e-05	-0.00012	-8e-05	-0.0002	-9e-05	3
38710	-0.0001	-0.00041	3e-05	-2e-05	-0.00012	-8e-05	-0.0002	-9e-05	3
38711	-0.0001	-0.00041	3e-05	-2e-05	-0.00012	-8e-05	-0.0002	-9e-05	3
38712	-0.0001	-0.00041	3e-05	-2e-05	-0.00012	-8e-05	-0.0002	-9e-05	3
38713	-0.0001	-0.00041	3e-05	-2e-05	-0.00012	-8e-05	-0.0002	-9e-05	3
38714	-0.0001	-0.00041	3e-05	-2e-05	-0.00012	-8e-05	-0.0002	-9e-05	3
38715	-0.0001	-0.00041	3e-05	-2e-05	-0.00012	-8e-05	-0.0002	-9e-05	3
38716	-0.0001	-0.00041	3e-05	-2e-05	-0.00012	-8e-05	-0.0002	-9e-05	3
38717	-0.0001	-0.00041	3e-05	-2e-05	-0.00012	-8e-05	-0.0002	-9e-05	3
38718	-0.0001	-0.00041	3e-05	-2e-05	-0.00012	-8e-05	-0.0002	-9e-05	3
38719	3e-05	0.0008	-6e-05	1e-05	-7e-05	-0.00014	3e-05	-0.00013	3
38720	3e-05	0.0008	-6e-05	1e-05	-7e-05	-0.00014	3e-05	-0.00013	3
38721	3e-05	0.0008	-6e-05	1e-05	-7e-05	-0.00014	3e-05	-0.00013	3
38722	3e-05	0.0008	-6e-05	1e-05	-7e-05	-0.00014	3e-05	-0.00013	3
38723	3e-05	0.0008	-6e-05	1e-05	-7e-05	-0.00014	3e-05	-0.00013	3
38724	3e-05	0.0008	-6e-05	1e-05	-7e-05	-0.00014	3e-05	-0.00013	3
38725	3e-05	0.0008	-6e-05	1e-05	-7e-05	-0.00014	3e-05	-0.00013	3
38726	3e-05	0.0008	-6e-05	1e-05	-7e-05	-0.00014	3e-05	-0.00013	3
38727	3e-05	0.0008	-6e-05	1e-05	-7e-05	-0.00014	3e-05	-0.00013	3
38728	3e-05	0.0008	-6e-05	1e-05	-7e-05	-0.00014	3e-05	-0.00013	3
38729	3e-05	0.0008	-6e-05	1e-05	-7e-05	-0.00014	3e-05	-0.00013	3
38730	3e-05	0.0008	-6e-05	1e-05	-7e-05	-0.00014	3e-05	-0.00013	3
38731	3e-05	0.0008	-6e-05	1e-05	-7e-05	-0.00014	3e-05	-0.00013	3
38732	3e-05	0.0008	-6e-05	1e-05	-7e-05	-0.00014	3e-05	-0.00013	3
38733	3e-05	0.0008	-6e-05	1e-05	-7e-05	-0.00014	3e-05	-0.00013	3
38734	3e-05	0.0008	-6e-05	1e-05	-7e-05	-0.00014	3e-05	-0.00013	3
38735	3e-05	0.0008	-6e-05	1e-05	-7e-05	-0.00014	3e-05	-0.00013	3
38736	3e-05	0.0008	-6e-05	1e-05	-7e-05	-0.00014	3e-05	-0.00013	3
38738	3e-05	0.0008	-6e-05	1e-05	-7e-05	-0.00014	3e-05	-0.00013	3
38739	3e-05	0.0008	-6e-05	1e-05	-7e-05	-0.00014	3e-05	-0.00013	3
38740	3e-05	0.0008	-6e-05	1e-05	-7e-05	-0.00014	3e-05	-0.00013	3
38741	-0.00069	-0.00041	0.00011	-5e-05	4e-05	0	4e-05	-0.00028	3
38742	0.00017	0.0005	0.00011	0	5e-05	-0.00022	0	-0.00039	3
38743	0.00017	0.0005	0.00011	0	5e-05	-0.00022	0	-0.00039	3
38744	0.00017	0.0005	0.00011	0	5e-05	-0.00022	0	-0.00039	3
38745	0.00017	0.0005	0.00011	0	5e-05	-0.00022	0	-0.00039	3
38746	0.00017	0.0005	0.00011	0	5e-05	-0.00022	0	-0.00039	3
38747	0.00017	0.0005	0.00011	0	5e-05	-0.00022	0	-0.00039	3
38748	0.00017	0.0005	0.00011	0	5e-05	-0.00022	0	-0.00039	3
38749	0.00017	0.0005	0.00011	0	5e-05	-0.00022	0	-0.00039	3
38750	0.00017	0.0005	0.00011	0	5e-05	-0.00022	0	-0.00039	3
38751	0.00017	0.0005	0.00011	0	5e-05	-0.00022	0	-0.00039	3
38752	0.00017	0.0005	0.00011	0	5e-05	-0.00022	0	-0.00039	3
38753	0.00017	0.0005	0.00011	0	5e-05	-0.00022	0	-0.00039	3
38754	0.00017	0.0005	0.00011	0	5e-05	-0.00022	0	-0.00039	3
38755	0.00017	0.0005	0.00011	0	5e-05	-0.00022	0	-0.00039	3
38756	0	-0.0008	0.0001	2e-05	-8e-05	-3e-05	7e-05	3e-05	3
38757	0	-0.0008	0.0001	2e-05	-8e-05	-3e-05	7e-05	3e-05	3
38758	0	-0.0008	0.0001	2e-05	-8e-05	-3e-05	7e-05	3e-05	3
38759	0	-0.0008	0.0001	2e-05	-8e-05	-3e-05	7e-05	3e-05	3
38760	0	-0.0008	0.0001	2e-05	-8e-05	-3e-05	7e-05	3e-05	3
38761	0	-0.0008	0.0001	2e-05	-8e-05	-3e-05	7e-05	3e-05	3
38762	0	-0.0008	0.0001	2e-05	-8e-05	-3e-05	7e-05	3e-05	3
38763	0	-0.0008	0.0001	2e-05	-8e-05	-3e-05	7e-05	3e-05	3
38764	0	-0.0008	0.0001	2e-05	-8e-05	-3e-05	7e-05	3e-05	3
38765	0	-0.0008	0.0001	2e-05	-8e-05	-3e-05	7e-05	3e-05	3
38766	0	-0.0008	0.0001	2e-05	-8e-05	-3e-05	7e-05	3e-05	3
38767	0	-0.0008	0.0001	2e-05	-8e-05	-3e-05	7e-05	3e-05	3
38768	0	-0.0008	0.0001	2e-05	-8e-05	-3e-05	7e-05	3e-05	3
38769	0	-0.0008	0.0001	2e-05	-8e-05	-3e-05	7e-05	3e-05	3
38770	0	-0.0008	0.0001	2e-05	-8e-05	-3e-05	7e-05	3e-05	3
38771	0	-0.0008	0.0001	2e-05	-8e-05	-3e-05	7e-05	3e-05	3
38772	0	-0.0008	0.0001	2e-05	-8e-05	-3e-05	7e-05	3e-05	3
38773	0	-0.0008	0.0001	2e-05	-8e-05	-3e-05	7e-05	3e-05	3
38774	0	-0.0008	0.0001	2e-05	-8e-05	-3e-05	7e-05	3e-05	3
38775	0	-0.0008	0.0001	2e-05	-8e-05	-3e-05	7e-05	3e-05	3
38776	0	-0.0008	0.0001	2e-05	-8e-05	-3e-05	7e-05	3e-05	3
38777	0	-0.0008	0.0001	2e-05	-8e-05	-3e-05	7e-05	3e-05	3
38778	0	-0.0008	0.0001	2e-05	-8e-05	-3e-05	7e-05	3e-05	3
38779	-0.00035	-0.00048	7e-05	-2e-05	-2e-05	-4e-05	-9e-05	-0.00073	3
38780	-0.00035	-0.00048	7e-05	-2e-05	-2e-05	-4e-05	-9e-05	-0.00073	3
38781	-0.00035	-0.00048	7e-05	-2e-05	-2e-05	-4e-05	-9e-05	-0.00073	3
38782	-0.00035	-0.00048	7e-05	-2e-05	-2e-05	-4e-05	-9e-05	-0.00073	3
38783	-0.00035	-0.00048	7e-05	-2e-05	-2e-05	-4e-05	-9e-05	-0.00073	3
38784	-0.00035	-0.00048	7e-05	-2e-05	-2e-05	-4e-05	-9e-05	-0.00073	3
38785	-0.00035	-0.00048	7e-05	-2e-05	-2e-05	-4e-05	-9e-05	-0.00073	3
38786	-0.00035	-0.00048	7e-05	-2e-05	-2e-05	-4e-05	-9e-05	-0.00073	3
38788	-0.00035	-0.00048	7e-05	-2e-05	-2e-05	-4e-05	-9e-05	-0.00073	3
38789	-0.00035	-0.00048	7e-05	-2e-05	-2e-05	-4e-05	-9e-05	-0.00073	3
38790	-0.00035	-0.00048	7e-05	-2e-05	-2e-05	-4e-05	-9e-05	-0.00073	3
38791	-0.00035	-0.00048	7e-05	-2e-05	-2e-05	-4e-05	-9e-05	-0.00073	3
38792	-0.00035	-0.00048	7e-05	-2e-05	-2e-05	-4e-05	-9e-05	-0.00073	3
38793	-0.00035	-0.00048	7e-05	-2e-05	-2e-05	-4e-05	-9e-05	-0.00073	3
38794	-0.00035	-0.00048	7e-05	-2e-05	-2e-05	-4e-05	-9e-05	-0.00073	3
38795	-0.00035	-0.00048	7e-05	-2e-05	-2e-05	-4e-05	-9e-05	-0.00073	3
38796	-0.00035	-0.00048	7e-05	-2e-05	-2e-05	-4e-05	-9e-05	-0.00073	3
38797	-0.00035	-0.00048	7e-05	-2e-05	-2e-05	-4e-05	-9e-05	-0.00073	3
38798	-0.00035	-0.00048	7e-05	-2e-05	-2e-05	-4e-05	-9e-05	-0.00073	3
38799	-0.00035	-0.00048	7e-05	-2e-05	-2e-05	-4e-05	-9e-05	-0.00073	3
38800	-0.00035	-0.00048	7e-05	-2e-05	-2e-05	-4e-05	-9e-05	-0.00073	3
38801	9e-05	-0.00096	3e-05	-2e-05	-5e-05	-0.0001	0.00015	0.00025	3
38802	-0.00014	3e-05	-0.00014	0	1e-05	0.00031	0.00014	0.00025	3
38803	-0.00014	3e-05	-0.00014	0	1e-05	0.00031	0.00014	0.00025	3
38804	-0.00014	3e-05	-0.00014	0	1e-05	0.00031	0.00014	0.00025	3
38805	-0.00014	3e-05	-0.00014	0	1e-05	0.00031	0.00014	0.00025	3
38806	-0.00014	3e-05	-0.00014	0	1e-05	0.00031	0.00014	0.00025	3
38807	-0.00014	3e-05	-0.00014	0	1e-05	0.00031	0.00014	0.00025	3
38808	-0.00014	3e-05	-0.00014	0	1e-05	0.00031	0.00014	0.00025	3
38809	-0.00014	3e-05	-0.00014	0	1e-05	0.00031	0.00014	0.00025	3
38810	-0.00014	3e-05	-0.00014	0	1e-05	0.00031	0.00014	0.00025	3
38811	-0.00014	3e-05	-0.00014	0	1e-05	0.00031	0.00014	0.00025	3
38812	-0.00014	3e-05	-0.00014	0	1e-05	0.00031	0.00014	0.00025	3
38813	-0.00014	3e-05	-0.00014	0	1e-05	0.00031	0.00014	0.00025	3
38814	-0.00014	3e-05	-0.00014	0	1e-05	0.00031	0.00014	0.00025	3
38815	-1e-05	-0.0001	0.00023	4e-05	0.00011	9e-05	-1e-05	-0.0003	3
38816	-1e-05	-0.0001	0.00023	4e-05	0.00011	9e-05	-1e-05	-0.0003	3
38817	0.00013	-0.00088	-0.00012	-0.0001	-0.00029	-0.00028	6e-05	0.00012	3
38818	0.00013	-0.00088	-0.00012	-0.0001	-0.00029	-0.00028	6e-05	0.00012	3
38819	0.00013	-0.00088	-0.00012	-0.0001	-0.00029	-0.00028	6e-05	0.00012	3
38820	0.00013	-0.00088	-0.00012	-0.0001	-0.00029	-0.00028	6e-05	0.00012	3
38821	0.00013	-0.00088	-0.00012	-0.0001	-0.00029	-0.00028	6e-05	0.00012	3
38822	0.00013	-0.00088	-0.00012	-0.0001	-0.00029	-0.00028	6e-05	0.00012	3
38823	0.00013	-0.00088	-0.00012	-0.0001	-0.00029	-0.00028	6e-05	0.00012	3
38824	0.00013	-0.00088	-0.00012	-0.0001	-0.00029	-0.00028	6e-05	0.00012	3
38825	0.00013	-0.00088	-0.00012	-0.0001	-0.00029	-0.00028	6e-05	0.00012	3
38826	0.00013	-0.00088	-0.00012	-0.0001	-0.00029	-0.00028	6e-05	0.00012	3
38827	0.00013	-0.00088	-0.00012	-0.0001	-0.00029	-0.00028	6e-05	0.00012	3
38828	0.00013	-0.00088	-0.00012	-0.0001	-0.00029	-0.00028	6e-05	0.00012	3
38829	0.00013	-0.00088	-0.00012	-0.0001	-0.00029	-0.00028	6e-05	0.00012	3
38830	0.00013	-0.00088	-0.00012	-0.0001	-0.00029	-0.00028	6e-05	0.00012	3
38831	0.00013	-0.00088	-0.00012	-0.0001	-0.00029	-0.00028	6e-05	0.00012	3
38832	0.00013	-0.00088	-0.00012	-0.0001	-0.00029	-0.00028	6e-05	0.00012	3
38833	0.00013	-0.00088	-0.00012	-0.0001	-0.00029	-0.00028	6e-05	0.00012	3
38834	0.00013	-0.00088	-0.00012	-0.0001	-0.00029	-0.00028	6e-05	0.00012	3
38835	0.00013	-0.00088	-0.00012	-0.0001	-0.00029	-0.00028	6e-05	0.00012	3
38836	0.00013	-0.00088	-0.00012	-0.0001	-0.00029	-0.00028	6e-05	0.00012	3
38838	-6e-05	0.00071	7e-05	7e-05	0.00074	0.00065	0.0001	-5e-05	3
38839	0.00019	0.00017	0.00014	5e-05	-7e-05	0.00021	-5e-05	0.00023	3
38840	0.00019	0.00017	0.00014	5e-05	-7e-05	0.00021	-5e-05	0.00023	3
38841	0.00019	0.00017	0.00014	5e-05	-7e-05	0.00021	-5e-05	0.00023	3
38842	0.00019	0.00017	0.00014	5e-05	-7e-05	0.00021	-5e-05	0.00023	3
38843	0.00019	0.00017	0.00014	5e-05	-7e-05	0.00021	-5e-05	0.00023	3
38844	0.00019	0.00017	0.00014	5e-05	-7e-05	0.00021	-5e-05	0.00023	3
38845	0.00019	0.00017	0.00014	5e-05	-7e-05	0.00021	-5e-05	0.00023	3
38846	0.00019	0.00017	0.00014	5e-05	-7e-05	0.00021	-5e-05	0.00023	3
38847	0.00019	0.00017	0.00014	5e-05	-7e-05	0.00021	-5e-05	0.00023	3
38848	0.00019	0.00017	0.00014	5e-05	-7e-05	0.00021	-5e-05	0.00023	3
38849	0.00019	0.00017	0.00014	5e-05	-7e-05	0.00021	-5e-05	0.00023	3
38850	0.00019	0.00017	0.00014	5e-05	-7e-05	0.00021	-5e-05	0.00023	3
38851	0.00019	0.00017	0.00014	5e-05	-7e-05	0.00021	-5e-05	0.00023	3
38852	0.00019	0.00017	0.00014	5e-05	-7e-05	0.00021	-5e-05	0.00023	3
38853	0.00019	0.00017	0.00014	5e-05	-7e-05	0.00021	-5e-05	0.00023	3
38854	0.00019	0.00017	0.00014	5e-05	-7e-05	0.00021	-5e-05	0.00023	3
38855	0.00019	0.00017	0.00014	5e-05	-7e-05	0.00021	-5e-05	0.00023	3
38856	0.00019	0.00017	0.00014	5e-05	-7e-05	0.00021	-5e-05	0.00023	3
38857	0.00019	0.00017	0.00014	5e-05	-7e-05	0.00021	-5e-05	0.00023	3
38858	0.00019	0.00017	0.00014	5e-05	-7e-05	0.00021	-5e-05	0.00023	3
38859	0.00019	0.00017	0.00014	5e-05	-7e-05	0.00021	-5e-05	0.00023	3
38860	0.00019	0.00017	0.00014	5e-05	-7e-05	0.00021	-5e-05	0.00023	3
38861	0.00031	0.00019	0.00023	8e-05	-0.00015	-2e-05	0.00012	0.00016	3
38862	5e-05	0.00057	-0.0001	-8e-05	6e-05	-0.00022	2e-05	1e-05	3
38863	5e-05	0.00057	-0.0001	-8e-05	6e-05	-0.00022	2e-05	1e-05	3
38864	5e-05	0.00057	-0.0001	-8e-05	6e-05	-0.00022	2e-05	1e-05	3
38865	5e-05	0.00057	-0.0001	-8e-05	6e-05	-0.00022	2e-05	1e-05	3
38866	5e-05	0.00057	-0.0001	-8e-05	6e-05	-0.00022	2e-05	1e-05	3
38867	5e-05	0.00057	-0.0001	-8e-05	6e-05	-0.00022	2e-05	1e-05	3
38868	5e-05	0.00057	-0.0001	-8e-05	6e-05	-0.00022	2e-05	1e-05	3
38869	5e-05	0.00057	-0.0001	-8e-05	6e-05	-0.00022	2e-05	1e-05	3
38870	5e-05	0.00057	-0.0001	-8e-05	6e-05	-0.00022	2e-05	1e-05	3
38871	5e-05	0.00057	-0.0001	-8e-05	6e-05	-0.00022	2e-05	1e-05	3
38872	5e-05	0.00057	-0.0001	-8e-05	6e-05	-0.00022	2e-05	1e-05	3
38873	5e-05	0.00057	-0.0001	-8e-05	6e-05	-0.00022	2e-05	1e-05	3
38874	5e-05	0.00057	-0.0001	-8e-05	6e-05	-0.00022	2e-05	1e-05	3
38875	0.0003	0.00016	2e-05	1e-05	-0.0001	0.00061	0.00018	2e-05	3
38876	-0.0001	0.0003	-5e-05	-6e-05	-9e-05	0.00026	-3e-05	-0.00017	3
38877	-0.0001	0.0003	-5e-05	-6e-05	-9e-05	0.00026	-3e-05	-0.00017	3
38878	-0.0001	0.0003	-5e-05	-6e-05	-9e-05	0.00026	-3e-05	-0.00017	3
38879	-0.0001	0.0003	-5e-05	-6e-05	-9e-05	0.00026	-3e-05	-0.00017	3
38880	-0.0001	0.0003	-5e-05	-6e-05	-9e-05	0.00026	-3e-05	-0.00017	3
38881	-0.0001	0.0003	-5e-05	-6e-05	-9e-05	0.00026	-3e-05	-0.00017	3
38882	-0.0001	0.0003	-5e-05	-6e-05	-9e-05	0.00026	-3e-05	-0.00017	3
38883	-0.0001	0.0003	-5e-05	-6e-05	-9e-05	0.00026	-3e-05	-0.00017	3
38884	-0.0001	0.0003	-5e-05	-6e-05	-9e-05	0.00026	-3e-05	-0.00017	3
38885	-0.0001	0.0003	-5e-05	-6e-05	-9e-05	0.00026	-3e-05	-0.00017	3
38886	-0.0001	0.0003	-5e-05	-6e-05	-9e-05	0.00026	-3e-05	-0.00017	3
38888	-0.0001	0.0003	-5e-05	-6e-05	-9e-05	0.00026	-3e-05	-0.00017	3
38889	-0.0001	0.0003	-5e-05	-6e-05	-9e-05	0.00026	-3e-05	-0.00017	3
38890	-0.0001	0.0003	-5e-05	-6e-05	-9e-05	0.00026	-3e-05	-0.00017	3
