6149	7e-05	-8e-05	-0.0001	-0.00012	-0.00011	-5e-05	3e-05	0	2
6150	7e-05	-8e-05	-0.0001	-0.00012	-0.00011	-5e-05	3e-05	0	2
6151	7e-05	-8e-05	-0.0001	-0.00012	-0.00011	-5e-05	3e-05	0	2
6152	7e-05	-8e-05	-0.0001	-0.00012	-0.00011	-5e-05	3e-05	0	2
6153	7e-05	-8e-05	-0.0001	-0.00012	-0.00011	-5e-05	3e-05	0	2
6154	7e-05	-2e-05	-6e-05	-4e-05	-1e-05	2e-05	0.00018	-6e-05	2
6155	7e-05	-2e-05	-6e-05	-4e-05	-1e-05	2e-05	0.00018	-6e-05	2
6156	-7e-05	7e-05	-1e-05	-7e-05	-0.00012	-4e-05	5e-05	3e-05	2
6157	-7e-05	7e-05	-1e-05	-7e-05	-0.00012	-4e-05	5e-05	3e-05	2
6158	-7e-05	7e-05	-1e-05	-7e-05	-0.00012	-4e-05	5e-05	3e-05	2
6159	-7e-05	7e-05	-1e-05	-7e-05	-0.00012	-4e-05	5e-05	3e-05	2
6160	-7e-05	7e-05	-1e-05	-7e-05	-0.00012	-4e-05	5e-05	3e-05	2
6161	-7e-05	7e-05	-1e-05	-7e-05	-0.00012	-4e-05	5e-05	3e-05	2
6162	-7e-05	7e-05	-1e-05	-7e-05	-0.00012	-4e-05	5e-05	3e-05	2
6163	-7e-05	7e-05	-1e-05	-7e-05	-0.00012	-4e-05	5e-05	3e-05	2
6164	-7e-05	7e-05	-1e-05	-7e-05	-0.00012	-4e-05	5e-05	3e-05	2
6165	-7e-05	7e-05	-1e-05	-7e-05	-0.00012	-4e-05	5e-05	3e-05	2
6166	-7e-05	7e-05	-1e-05	-7e-05	-0.00012	-4e-05	5e-05	3e-05	2
6167	-7e-05	7e-05	-1e-05	-7e-05	-0.00012	-4e-05	5e-05	3e-05	2
6168	-5e-05	-4e-05	-1e-05	0.0002	-4e-05	-8e-05	-0.00018	-7e-05	2
6169	-5e-05	-4e-05	-1e-05	0.0002	-4e-05	-8e-05	-0.00018	-7e-05	2
6170	-5e-05	-4e-05	-1e-05	0.0002	-4e-05	-8e-05	-0.00018	-7e-05	2
6171	-5e-05	-4e-05	-1e-05	0.0002	-4e-05	-8e-05	-0.00018	-7e-05	2
6172	-5e-05	-4e-05	-1e-05	0.0002	-4e-05	-8e-05	-0.00018	-7e-05	2
6173	-5e-05	-4e-05	-1e-05	0.0002	-4e-05	-8e-05	-0.00018	-7e-05	2
6174	-5e-05	-4e-05	-1e-05	0.0002	-4e-05	-8e-05	-0.00018	-7e-05	2
6175	4e-05	0.00012	0.00016	0.00067	0.00015	-2e-05	-4e-05	-1e-05	2
6176	4e-05	0.00012	0.00016	0.00067	0.00015	-2e-05	-4e-05	-1e-05	2
6177	4e-05	0.00012	0.00016	0.00067	0.00015	-2e-05	-4e-05	-1e-05	2
6178	4e-05	0.00012	0.00016	0.00067	0.00015	-2e-05	-4e-05	-1e-05	2
6179	4e-05	0.00012	0.00016	0.00067	0.00015	-2e-05	-4e-05	-1e-05	2
6180	4e-05	0.00012	0.00016	0.00067	0.00015	-2e-05	-4e-05	-1e-05	2
6181	4e-05	0.00012	0.00016	0.00067	0.00015	-2e-05	-4e-05	-1e-05	2
6182	4e-05	0.00012	0.00016	0.00067	0.00015	-2e-05	-4e-05	-1e-05	2
6183	4e-05	0.00012	0.00016	0.00067	0.00015	-2e-05	-4e-05	-1e-05	2
6184	4e-05	0.00012	0.00016	0.00067	0.00015	-2e-05	-4e-05	-1e-05	2
6185	4e-05	0.00012	0.00016	0.00067	0.00015	-2e-05	-4e-05	-1e-05	2
6186	4e-05	0.00012	0.00016	0.00067	0.00015	-2e-05	-4e-05	-1e-05	2
6188	4e-05	0.00012	0.00016	0.00067	0.00015	-2e-05	-4e-05	-1e-05	2
6189	4e-05	0.00012	0.00016	0.00067	0.00015	-2e-05	-4e-05	-1e-05	2
6190	4e-05	0.00012	0.00016	0.00067	0.00015	-2e-05	-4e-05	-1e-05	2
6191	-9e-05	-3e-05	-1e-05	1e-05	3e-05	0	-0.00012	-4e-05	2
6192	-9e-05	-3e-05	-1e-05	1e-05	3e-05	0	-0.00012	-4e-05	2
6193	-4e-05	-3e-05	-0.0001	-0.00029	8e-05	-6e-05	-7e-05	-3e-05	2
6194	-4e-05	-3e-05	-0.0001	-0.00029	8e-05	-6e-05	-7e-05	-3e-05	2
6195	-4e-05	-3e-05	-0.0001	-0.00029	8e-05	-6e-05	-7e-05	-3e-05	2
6196	-4e-05	-3e-05	-0.0001	-0.00029	8e-05	-6e-05	-7e-05	-3e-05	2
6197	-4e-05	-3e-05	-0.0001	-0.00029	8e-05	-6e-05	-7e-05	-3e-05	2
6198	-4e-05	-3e-05	-0.0001	-0.00029	8e-05	-6e-05	-7e-05	-3e-05	2
6199	-4e-05	-3e-05	-0.0001	-0.00029	8e-05	-6e-05	-7e-05	-3e-05	2
6200	-4e-05	-3e-05	-0.0001	-0.00029	8e-05	-6e-05	-7e-05	-3e-05	2
6201	-4e-05	-3e-05	-0.0001	-0.00029	8e-05	-6e-05	-7e-05	-3e-05	2
6202	-4e-05	-3e-05	-0.0001	-0.00029	8e-05	-6e-05	-7e-05	-3e-05	2
6203	-4e-05	-3e-05	-0.0001	-0.00029	8e-05	-6e-05	-7e-05	-3e-05	2
6204	-4e-05	-3e-05	-0.0001	-0.00029	8e-05	-6e-05	-7e-05	-3e-05	2
6205	-4e-05	-3e-05	-0.0001	-0.00029	8e-05	-6e-05	-7e-05	-3e-05	2
6206	-4e-05	-3e-05	-0.0001	-0.00029	8e-05	-6e-05	-7e-05	-3e-05	2
6207	-4e-05	-3e-05	-0.0001	-0.00029	8e-05	-6e-05	-7e-05	-3e-05	2
6208	-4e-05	-3e-05	-0.0001	-0.00029	8e-05	-6e-05	-7e-05	-3e-05	2
6209	-4e-05	-3e-05	-0.0001	-0.00029	8e-05	-6e-05	-7e-05	-3e-05	2
6210	-4e-05	-3e-05	-0.0001	-0.00029	8e-05	-6e-05	-7e-05	-3e-05	2
6211	-4e-05	-3e-05	-0.0001	-0.00029	8e-05	-6e-05	-7e-05	-3e-05	2
6212	-4e-05	-3e-05	-0.0001	-0.00029	8e-05	-6e-05	-7e-05	-3e-05	2
6213	-4e-05	-3e-05	-0.0001	-0.00029	8e-05	-6e-05	-7e-05	-3e-05	2
6214	-4e-05	-3e-05	-0.0001	-0.00029	8e-05	-6e-05	-7e-05	-3e-05	2
6215	-4e-05	-3e-05	-0.0001	-0.00029	8e-05	-6e-05	-7e-05	-3e-05	2
6216	-4e-05	-3e-05	-0.0001	-0.00029	8e-05	-6e-05	-7e-05	-3e-05	2
6217	-4e-05	-3e-05	-0.0001	-0.00029	8e-05	-6e-05	-7e-05	-3e-05	2
6218	-4e-05	-3e-05	-0.0001	-0.00029	8e-05	-6e-05	-7e-05	-3e-05	2
6219	-4e-05	-3e-05	-0.0001	-0.00029	8e-05	-6e-05	-7e-05	-3e-05	2
6220	-4e-05	-3e-05	-0.0001	-0.00029	8e-05	-6e-05	-7e-05	-3e-05	2
6221	0.0001	0.00014	9e-05	0.00015	-6e-05	-8e-05	0.00013	0	2
6222	0.0001	0.00014	9e-05	0.00015	-6e-05	-8e-05	0.00013	0	2
6223	2e-05	6e-05	2e-05	7e-05	7e-05	0	-8e-05	3e-05	2
6224	2e-05	6e-05	2e-05	7e-05	7e-05	0	-8e-05	3e-05	2
6225	2e-05	6e-05	2e-05	7e-05	7e-05	0	-8e-05	3e-05	2
6226	2e-05	6e-05	2e-05	7e-05	7e-05	0	-8e-05	3e-05	2
6227	2e-05	6e-05	2e-05	7e-05	7e-05	0	-8e-05	3e-05	2
6228	-2e-05	7e-05	4e-05	7e-05	-3e-05	-4e-05	-0.00015	4e-05	2
6229	-2e-05	7e-05	4e-05	7e-05	-3e-05	-4e-05	-0.00015	4e-05	2
6230	-2e-05	7e-05	4e-05	7e-05	-3e-05	-4e-05	-0.00015	4e-05	2
6231	-2e-05	7e-05	4e-05	7e-05	-3e-05	-4e-05	-0.00015	4e-05	2
6232	-2e-05	7e-05	4e-05	7e-05	-3e-05	-4e-05	-0.00015	4e-05	2
6233	-2e-05	7e-05	4e-05	7e-05	-3e-05	-4e-05	-0.00015	4e-05	2
6234	-2e-05	7e-05	4e-05	7e-05	-3e-05	-4e-05	-0.00015	4e-05	2
6235	-2e-05	7e-05	4e-05	7e-05	-3e-05	-4e-05	-0.00015	4e-05	2
6236	-2e-05	7e-05	4e-05	7e-05	-3e-05	-4e-05	-0.00015	4e-05	2
6238	0	-0.00042	-1e-05	5e-05	-0.0001	-7e-05	-2e-05	-5e-05	2
6239	0	-0.00042	-1e-05	5e-05	-0.0001	-7e-05	-2e-05	-5e-05	2
6240	0	-0.00042	-1e-05	5e-05	-0.0001	-7e-05	-2e-05	-5e-05	2
6241	0	-0.00042	-1e-05	5e-05	-0.0001	-7e-05	-2e-05	-5e-05	2
6242	0	-0.00042	-1e-05	5e-05	-0.0001	-7e-05	-2e-05	-5e-05	2
6243	0	-0.00042	-1e-05	5e-05	-0.0001	-7e-05	-2e-05	-5e-05	2
6244	0	-0.00042	-1e-05	5e-05	-0.0001	-7e-05	-2e-05	-5e-05	2
6245	0	-0.00042	-1e-05	5e-05	-0.0001	-7e-05	-2e-05	-5e-05	2
6246	0	-0.00042	-1e-05	5e-05	-0.0001	-7e-05	-2e-05	-5e-05	2
6247	0	-0.00042	-1e-05	5e-05	-0.0001	-7e-05	-2e-05	-5e-05	2
6248	0	-0.00042	-1e-05	5e-05	-0.0001	-7e-05	-2e-05	-5e-05	2
6249	0	-0.00042	-1e-05	5e-05	-0.0001	-7e-05	-2e-05	-5e-05	2
6250	0	-0.00042	-1e-05	5e-05	-0.0001	-7e-05	-2e-05	-5e-05	2
6251	-0.0002	-0.00017	-2e-05	6e-05	6e-05	2e-05	1e-05	-2e-05	2
6252	-0.0002	-0.00017	-2e-05	6e-05	6e-05	2e-05	1e-05	-2e-05	2
6253	-6e-05	2e-05	4e-05	0.00036	0.00015	7e-05	6e-05	0	2
6254	-6e-05	2e-05	4e-05	0.00036	0.00015	7e-05	6e-05	0	2
6255	-6e-05	2e-05	4e-05	0.00036	0.00015	7e-05	6e-05	0	2
6256	-6e-05	2e-05	4e-05	0.00036	0.00015	7e-05	6e-05	0	2
6257	-6e-05	2e-05	4e-05	0.00036	0.00015	7e-05	6e-05	0	2
6258	-6e-05	2e-05	4e-05	0.00036	0.00015	7e-05	6e-05	0	2
6259	-6e-05	2e-05	4e-05	0.00036	0.00015	7e-05	6e-05	0	2
6260	-6e-05	2e-05	4e-05	0.00036	0.00015	7e-05	6e-05	0	2
6261	-6e-05	2e-05	4e-05	0.00036	0.00015	7e-05	6e-05	0	2
6262	-6e-05	2e-05	4e-05	0.00036	0.00015	7e-05	6e-05	0	2
6263	-6e-05	2e-05	4e-05	0.00036	0.00015	7e-05	6e-05	0	2
6264	-6e-05	2e-05	4e-05	0.00036	0.00015	7e-05	6e-05	0	2
6265	-6e-05	2e-05	4e-05	0.00036	0.00015	7e-05	6e-05	0	2
6266	-6e-05	2e-05	4e-05	0.00036	0.00015	7e-05	6e-05	0	2
6267	-6e-05	2e-05	4e-05	0.00036	0.00015	7e-05	6e-05	0	2
6268	-6e-05	2e-05	4e-05	0.00036	0.00015	7e-05	6e-05	0	2
6269	-6e-05	2e-05	4e-05	0.00036	0.00015	7e-05	6e-05	0	2
6270	-6e-05	2e-05	4e-05	0.00036	0.00015	7e-05	6e-05	0	2
6271	-6e-05	2e-05	4e-05	0.00036	0.00015	7e-05	6e-05	0	2
6272	-6e-05	2e-05	4e-05	0.00036	0.00015	7e-05	6e-05	0	2
6273	-6e-05	2e-05	4e-05	0.00036	0.00015	7e-05	6e-05	0	2
6274	9e-05	1e-05	1e-05	0.00011	-6e-05	-2e-05	-6e-05	0	2
6275	-0.00014	-0.00028	-4e-05	-0.0001	6e-05	-2e-05	-0.00018	0	2
6276	1e-05	0.00012	5e-05	0.00015	2e-05	0.00012	0.00022	5e-05	2
6277	1e-05	0.00012	5e-05	0.00015	2e-05	0.00012	0.00022	5e-05	2
6278	1e-05	0.00012	5e-05	0.00015	2e-05	0.00012	0.00022	5e-05	2
6279	1e-05	0.00012	5e-05	0.00015	2e-05	0.00012	0.00022	5e-05	2
6280	1e-05	0.00012	5e-05	0.00015	2e-05	0.00012	0.00022	5e-05	2
6281	1e-05	0.00012	5e-05	0.00015	2e-05	0.00012	0.00022	5e-05	2
6282	1e-05	0.00012	5e-05	0.00015	2e-05	0.00012	0.00022	5e-05	2
6283	1e-05	0.00012	5e-05	0.00015	2e-05	0.00012	0.00022	5e-05	2
6284	1e-05	0.00012	5e-05	0.00015	2e-05	0.00012	0.00022	5e-05	2
6285	1e-05	0.00012	5e-05	0.00015	2e-05	0.00012	0.00022	5e-05	2
6286	1e-05	0.00012	5e-05	0.00015	2e-05	0.00012	0.00022	5e-05	2
6288	1e-05	0.00012	5e-05	0.00015	2e-05	0.00012	0.00022	5e-05	2
6289	-7e-05	-4e-05	-0.00019	-0.00067	-5e-05	1e-05	-4e-05	-5e-05	2
6290	-7e-05	-4e-05	-0.00019	-0.00067	-5e-05	1e-05	-4e-05	-5e-05	2
6291	-7e-05	-4e-05	-0.00019	-0.00067	-5e-05	1e-05	-4e-05	-5e-05	2
6292	-7e-05	-4e-05	-0.00019	-0.00067	-5e-05	1e-05	-4e-05	-5e-05	2
6293	-7e-05	-4e-05	-0.00019	-0.00067	-5e-05	1e-05	-4e-05	-5e-05	2
6294	-7e-05	-4e-05	-0.00019	-0.00067	-5e-05	1e-05	-4e-05	-5e-05	2
6295	-7e-05	-4e-05	-0.00019	-0.00067	-5e-05	1e-05	-4e-05	-5e-05	2
6296	-7e-05	-4e-05	-0.00019	-0.00067	-5e-05	1e-05	-4e-05	-5e-05	2
6297	2e-05	-5e-05	-0.0003	-0.0009	-0.00022	2e-05	-0.0001	0	2
6298	2e-05	-5e-05	-0.0003	-0.0009	-0.00022	2e-05	-0.0001	0	2
6299	2e-05	-5e-05	-0.0003	-0.0009	-0.00022	2e-05	-0.0001	0	2
6300	2e-05	-5e-05	-0.0003	-0.0009	-0.00022	2e-05	-0.0001	0	2
6301	2e-05	-5e-05	-0.0003	-0.0009	-0.00022	2e-05	-0.0001	0	2
6302	2e-05	-5e-05	-0.0003	-0.0009	-0.00022	2e-05	-0.0001	0	2
6303	2e-05	-5e-05	-0.0003	-0.0009	-0.00022	2e-05	-0.0001	0	2
6304	2e-05	-5e-05	-0.0003	-0.0009	-0.00022	2e-05	-0.0001	0	2
6305	2e-05	-5e-05	-0.0003	-0.0009	-0.00022	2e-05	-0.0001	0	2
6306	2e-05	-5e-05	-0.0003	-0.0009	-0.00022	2e-05	-0.0001	0	2
6307	2e-05	-5e-05	-0.0003	-0.0009	-0.00022	2e-05	-0.0001	0	2
6308	2e-05	-5e-05	-0.0003	-0.0009	-0.00022	2e-05	-0.0001	0	2
6309	2e-05	-5e-05	-0.0003	-0.0009	-0.00022	2e-05	-0.0001	0	2
6310	2e-05	-5e-05	-0.0003	-0.0009	-0.00022	2e-05	-0.0001	0	2
6311	-5e-05	-4e-05	0	7e-05	5e-05	0	-4e-05	3e-05	2
6312	-5e-05	-4e-05	0	7e-05	5e-05	0	-4e-05	3e-05	2
6313	-9e-05	3e-05	2e-05	-3e-05	0	-7e-05	-0.00014	-9e-05	2
6314	-9e-05	3e-05	2e-05	-3e-05	0	-7e-05	-0.00014	-9e-05	2
6315	-9e-05	3e-05	2e-05	-3e-05	0	-7e-05	-0.00014	-9e-05	2
6316	-9e-05	3e-05	2e-05	-3e-05	0	-7e-05	-0.00014	-9e-05	2
6317	-9e-05	3e-05	2e-05	-3e-05	0	-7e-05	-0.00014	-9e-05	2
6318	-9e-05	3e-05	2e-05	-3e-05	0	-7e-05	-0.00014	-9e-05	2
6319	-9e-05	3e-05	2e-05	-3e-05	0	-7e-05	-0.00014	-9e-05	2
6320	-9e-05	3e-05	2e-05	-3e-05	0	-7e-05	-0.00014	-9e-05	2
6321	-9e-05	3e-05	2e-05	-3e-05	0	-7e-05	-0.00014	-9e-05	2
6322	-9e-05	3e-05	2e-05	-3e-05	0	-7e-05	-0.00014	-9e-05	2
6323	-9e-05	3e-05	2e-05	-3e-05	0	-7e-05	-0.00014	-9e-05	2
6324	-9e-05	3e-05	2e-05	-3e-05	0	-7e-05	-0.00014	-9e-05	2
6325	-9e-05	3e-05	2e-05	-3e-05	0	-7e-05	-0.00014	-9e-05	2
6326	-9e-05	3e-05	2e-05	-3e-05	0	-7e-05	-0.00014	-9e-05	2
6327	-9e-05	3e-05	2e-05	-3e-05	0	-7e-05	-0.00014	-9e-05	2
6328	-9e-05	3e-05	2e-05	-3e-05	0	-7e-05	-0.00014	-9e-05	2
6329	-9e-05	3e-05	2e-05	-3e-05	0	-7e-05	-0.00014	-9e-05	2
6330	-9e-05	3e-05	2e-05	-3e-05	0	-7e-05	-0.00014	-9e-05	2
6331	-9e-05	3e-05	2e-05	-3e-05	0	-7e-05	-0.00014	-9e-05	2
6332	-9e-05	3e-05	2e-05	-3e-05	0	-7e-05	-0.00014	-9e-05	2
6333	-9e-05	3e-05	2e-05	-3e-05	0	-7e-05	-0.00014	-9e-05	2
6334	-8e-05	-0.00036	-5e-05	-0.00011	0.00015	3e-05	0.00017	2e-05	2
6335	-8e-05	-0.00036	-5e-05	-0.00011	0.00015	3e-05	0.00017	2e-05	2
6336	-2e-05	9e-05	5e-05	9e-05	-2e-05	2e-05	0.00027	-1e-05	2
6338	-2e-05	9e-05	5e-05	9e-05	-2e-05	2e-05	0.00027	-1e-05	2
6339	-2e-05	9e-05	5e-05	9e-05	-2e-05	2e-05	0.00027	-1e-05	2
6340	-2e-05	9e-05	5e-05	9e-05	-2e-05	2e-05	0.00027	-1e-05	2
6341	-2e-05	9e-05	5e-05	9e-05	-2e-05	2e-05	0.00027	-1e-05	2
6342	-2e-05	9e-05	5e-05	9e-05	-2e-05	2e-05	0.00027	-1e-05	2
6343	-2e-05	9e-05	5e-05	9e-05	-2e-05	2e-05	0.00027	-1e-05	2
6344	-2e-05	9e-05	5e-05	9e-05	-2e-05	2e-05	0.00027	-1e-05	2
6345	-2e-05	9e-05	5e-05	9e-05	-2e-05	2e-05	0.00027	-1e-05	2
6346	-2e-05	9e-05	5e-05	9e-05	-2e-05	2e-05	0.00027	-1e-05	2
6347	-2e-05	9e-05	5e-05	9e-05	-2e-05	2e-05	0.00027	-1e-05	2
6348	3e-05	0.00012	-0.00013	-7e-05	-0.00026	-6e-05	-9e-05	-4e-05	2
6349	3e-05	0.00012	-0.00013	-7e-05	-0.00026	-6e-05	-9e-05	-4e-05	2
6350	3e-05	0.00012	-0.00013	-7e-05	-0.00026	-6e-05	-9e-05	-4e-05	2
6351	3e-05	0.00012	-0.00013	-7e-05	-0.00026	-6e-05	-9e-05	-4e-05	2
6352	3e-05	0.00012	-0.00013	-7e-05	-0.00026	-6e-05	-9e-05	-4e-05	2
6353	3e-05	0.00012	-0.00013	-7e-05	-0.00026	-6e-05	-9e-05	-4e-05	2
6354	3e-05	0.00012	-0.00013	-7e-05	-0.00026	-6e-05	-9e-05	-4e-05	2
6355	3e-05	0.00012	-0.00013	-7e-05	-0.00026	-6e-05	-9e-05	-4e-05	2
6356	0	-7e-05	-7e-05	-0.00066	-0.00012	3e-05	-4e-05	2e-05	2
6357	-2e-05	4e-05	-9e-05	7e-05	5e-05	0	-7e-05	3e-05	2
6358	-2e-05	4e-05	-9e-05	7e-05	5e-05	0	-7e-05	3e-05	2
6359	-2e-05	4e-05	-9e-05	7e-05	5e-05	0	-7e-05	3e-05	2
6360	-2e-05	4e-05	-9e-05	7e-05	5e-05	0	-7e-05	3e-05	2
6361	-2e-05	4e-05	-9e-05	7e-05	5e-05	0	-7e-05	3e-05	2
6362	-2e-05	4e-05	-9e-05	7e-05	5e-05	0	-7e-05	3e-05	2
6363	-2e-05	4e-05	-9e-05	7e-05	5e-05	0	-7e-05	3e-05	2
6364	-2e-05	4e-05	-9e-05	7e-05	5e-05	0	-7e-05	3e-05	2
6365	-2e-05	4e-05	-9e-05	7e-05	5e-05	0	-7e-05	3e-05	2
6366	-2e-05	4e-05	-9e-05	7e-05	5e-05	0	-7e-05	3e-05	2
6367	-2e-05	4e-05	-9e-05	7e-05	5e-05	0	-7e-05	3e-05	2
6368	-2e-05	4e-05	-9e-05	7e-05	5e-05	0	-7e-05	3e-05	2
6369	-2e-05	4e-05	-9e-05	7e-05	5e-05	0	-7e-05	3e-05	2
6370	-2e-05	4e-05	-9e-05	7e-05	5e-05	0	-7e-05	3e-05	2
6371	-2e-05	4e-05	-9e-05	7e-05	5e-05	0	-7e-05	3e-05	2
6372	-2e-05	4e-05	-9e-05	7e-05	5e-05	0	-7e-05	3e-05	2
6373	-2e-05	4e-05	-9e-05	7e-05	5e-05	0	-7e-05	3e-05	2
6374	-2e-05	4e-05	-9e-05	7e-05	5e-05	0	-7e-05	3e-05	2
6375	-2e-05	4e-05	-9e-05	7e-05	5e-05	0	-7e-05	3e-05	2
6376	-2e-05	4e-05	-9e-05	7e-05	5e-05	0	-7e-05	3e-05	2
6377	-2e-05	4e-05	-9e-05	7e-05	5e-05	0	-7e-05	3e-05	2
6378	-2e-05	4e-05	-9e-05	7e-05	5e-05	0	-7e-05	3e-05	2
6379	2e-05	0.00014	-4e-05	0.0001	8e-05	3e-05	0.00024	4e-05	2
6380	2e-05	0.00014	-4e-05	0.0001	8e-05	3e-05	0.00024	4e-05	2
6381	2e-05	8e-05	7e-05	8e-05	-4e-05	-7e-05	-0.00022	-0.00011	2
6383	2e-05	8e-05	7e-05	8e-05	-4e-05	-7e-05	-0.00022	-0.00011	2
6384	2e-05	8e-05	7e-05	8e-05	-4e-05	-7e-05	-0.00022	-0.00011	2
6385	2e-05	8e-05	7e-05	8e-05	-4e-05	-7e-05	-0.00022	-0.00011	2
6386	2e-05	8e-05	7e-05	8e-05	-4e-05	-7e-05	-0.00022	-0.00011	2
6388	2e-05	8e-05	7e-05	8e-05	-4e-05	-7e-05	-0.00022	-0.00011	2
6389	2e-05	8e-05	7e-05	8e-05	-4e-05	-7e-05	-0.00022	-0.00011	2
6390	2e-05	8e-05	7e-05	8e-05	-4e-05	-7e-05	-0.00022	-0.00011	2
6391	2e-05	8e-05	7e-05	8e-05	-4e-05	-7e-05	-0.00022	-0.00011	2
6392	2e-05	8e-05	7e-05	8e-05	-4e-05	-7e-05	-0.00022	-0.00011	2
6393	2e-05	8e-05	7e-05	8e-05	-4e-05	-7e-05	-0.00022	-0.00011	2
6394	1e-05	-0.0001	6e-05	-0.00018	-9e-05	8e-05	1e-05	4e-05	2
6395	1e-05	-0.0001	6e-05	-0.00018	-9e-05	8e-05	1e-05	4e-05	2
6396	-6e-05	-0.00014	-0.00011	-0.00012	7e-05	3e-05	1e-05	3e-05	2
6397	-6e-05	-0.00014	-0.00011	-0.00012	7e-05	3e-05	1e-05	3e-05	2
6398	-6e-05	-0.00014	-0.00011	-0.00012	7e-05	3e-05	1e-05	3e-05	2
6399	-6e-05	-0.00014	-0.00011	-0.00012	7e-05	3e-05	1e-05	3e-05	2
6400	-6e-05	-0.00014	-0.00011	-0.00012	7e-05	3e-05	1e-05	3e-05	2
6401	-6e-05	-0.00014	-0.00011	-0.00012	7e-05	3e-05	1e-05	3e-05	2
6402	-6e-05	-0.00014	-0.00011	-0.00012	7e-05	3e-05	1e-05	3e-05	2
6403	-6e-05	-0.00014	-0.00011	-0.00012	7e-05	3e-05	1e-05	3e-05	2
6404	-6e-05	-0.00014	-0.00011	-0.00012	7e-05	3e-05	1e-05	3e-05	2
6405	-6e-05	-0.00014	-0.00011	-0.00012	7e-05	3e-05	1e-05	3e-05	2
6406	-6e-05	-0.00014	-0.00011	-0.00012	7e-05	3e-05	1e-05	3e-05	2
6407	-6e-05	3e-05	4e-05	0.00011	-3e-05	0	-0.0001	-9e-05	2
6408	0	-3e-05	8e-05	0.00021	-1e-05	-7e-05	-5e-05	6e-05	2
6409	0	-3e-05	8e-05	0.00021	-1e-05	-7e-05	-5e-05	6e-05	2
6410	0	-3e-05	8e-05	0.00021	-1e-05	-7e-05	-5e-05	6e-05	2
6411	0	-3e-05	8e-05	0.00021	-1e-05	-7e-05	-5e-05	6e-05	2
6412	0	-3e-05	8e-05	0.00021	-1e-05	-7e-05	-5e-05	6e-05	2
6413	0	-3e-05	8e-05	0.00021	-1e-05	-7e-05	-5e-05	6e-05	2
6414	0	-3e-05	8e-05	0.00021	-1e-05	-7e-05	-5e-05	6e-05	2
6415	0	-3e-05	8e-05	0.00021	-1e-05	-7e-05	-5e-05	6e-05	2
6416	0	-3e-05	8e-05	0.00021	-1e-05	-7e-05	-5e-05	6e-05	2
6417	-1e-05	4e-05	0.00015	0.00035	0.00016	-4e-05	-0.00012	-5e-05	2
6418	-1e-05	4e-05	0.00015	0.00035	0.00016	-4e-05	-0.00012	-5e-05	2
6419	-1e-05	4e-05	0.00015	0.00035	0.00016	-4e-05	-0.00012	-5e-05	2
6420	-1e-05	4e-05	0.00015	0.00035	0.00016	-4e-05	-0.00012	-5e-05	2
6421	-1e-05	4e-05	0.00015	0.00035	0.00016	-4e-05	-0.00012	-5e-05	2
6422	-1e-05	4e-05	0.00015	0.00035	0.00016	-4e-05	-0.00012	-5e-05	2
6423	-1e-05	4e-05	0.00015	0.00035	0.00016	-4e-05	-0.00012	-5e-05	2
6424	-1e-05	4e-05	0.00015	0.00035	0.00016	-4e-05	-0.00012	-5e-05	2
6425	-1e-05	4e-05	0.00015	0.00035	0.00016	-4e-05	-0.00012	-5e-05	2
6426	-1e-05	4e-05	0.00015	0.00035	0.00016	-4e-05	-0.00012	-5e-05	2
6427	-1e-05	4e-05	0.00015	0.00035	0.00016	-4e-05	-0.00012	-5e-05	2
6428	-1e-05	4e-05	0.00015	0.00035	0.00016	-4e-05	-0.00012	-5e-05	2
6429	-1e-05	4e-05	0.00015	0.00035	0.00016	-4e-05	-0.00012	-5e-05	2
6430	-1e-05	4e-05	0.00015	0.00035	0.00016	-4e-05	-0.00012	-5e-05	2
6431	3e-05	-0.00017	4e-05	4e-05	0	-4e-05	-0.00021	-1e-05	2
6432	3e-05	-0.00017	4e-05	4e-05	0	-4e-05	-0.00021	-1e-05	2
6433	8e-05	8e-05	-6e-05	-0.00046	-6e-05	-0.00011	-0.00024	-2e-05	2
6434	8e-05	8e-05	-6e-05	-0.00046	-6e-05	-0.00011	-0.00024	-2e-05	2
6435	8e-05	8e-05	-6e-05	-0.00046	-6e-05	-0.00011	-0.00024	-2e-05	2
6436	8e-05	8e-05	-6e-05	-0.00046	-6e-05	-0.00011	-0.00024	-2e-05	2
6438	8e-05	8e-05	-6e-05	-0.00046	-6e-05	-0.00011	-0.00024	-2e-05	2
6439	8e-05	8e-05	-6e-05	-0.00046	-6e-05	-0.00011	-0.00024	-2e-05	2
6440	8e-05	8e-05	-6e-05	-0.00046	-6e-05	-0.00011	-0.00024	-2e-05	2
6441	8e-05	8e-05	-6e-05	-0.00046	-6e-05	-0.00011	-0.00024	-2e-05	2
6442	8e-05	8e-05	-6e-05	-0.00046	-6e-05	-0.00011	-0.00024	-2e-05	2
6443	8e-05	8e-05	-6e-05	-0.00046	-6e-05	-0.00011	-0.00024	-2e-05	2
6444	8e-05	8e-05	-6e-05	-0.00046	-6e-05	-0.00011	-0.00024	-2e-05	2
6445	8e-05	8e-05	-6e-05	-0.00046	-6e-05	-0.00011	-0.00024	-2e-05	2
6446	8e-05	8e-05	-6e-05	-0.00046	-6e-05	-0.00011	-0.00024	-2e-05	2
6447	8e-05	8e-05	-6e-05	-0.00046	-6e-05	-0.00011	-0.00024	-2e-05	2
6448	8e-05	8e-05	-6e-05	-0.00046	-6e-05	-0.00011	-0.00024	-2e-05	2
6449	8e-05	8e-05	-6e-05	-0.00046	-6e-05	-0.00011	-0.00024	-2e-05	2
6450	8e-05	8e-05	-6e-05	-0.00046	-6e-05	-0.00011	-0.00024	-2e-05	2
6451	8e-05	8e-05	-6e-05	-0.00046	-6e-05	-0.00011	-0.00024	-2e-05	2
6452	8e-05	8e-05	-6e-05	-0.00046	-6e-05	-0.00011	-0.00024	-2e-05	2
6453	8e-05	8e-05	-6e-05	-0.00046	-6e-05	-0.00011	-0.00024	-2e-05	2
6454	7e-05	0.0001	-2e-05	-5e-05	-3e-05	2e-05	-3e-05	0	2
6455	7e-05	0.0001	-2e-05	-5e-05	-3e-05	2e-05	-3e-05	0	2
6456	-0.0001	-0.0001	0	3e-05	-5e-05	-3e-05	0.00011	-4e-05	2
6457	-0.0001	-0.0001	0	3e-05	-5e-05	-3e-05	0.00011	-4e-05	2
6458	-0.0001	-0.0001	0	3e-05	-5e-05	-3e-05	0.00011	-4e-05	2
6459	-0.0001	-0.0001	0	3e-05	-5e-05	-3e-05	0.00011	-4e-05	2
6460	-0.0001	-0.0001	0	3e-05	-5e-05	-3e-05	0.00011	-4e-05	2
6461	-0.0001	-0.0001	0	3e-05	-5e-05	-3e-05	0.00011	-4e-05	2
6462	-0.0001	-0.0001	0	3e-05	-5e-05	-3e-05	0.00011	-4e-05	2
6463	-0.0001	-0.0001	0	3e-05	-5e-05	-3e-05	0.00011	-4e-05	2
6464	-0.0001	-0.0001	0	3e-05	-5e-05	-3e-05	0.00011	-4e-05	2
6465	-0.0001	-0.0001	0	3e-05	-5e-05	-3e-05	0.00011	-4e-05	2
6466	-0.0001	-0.0001	0	3e-05	-5e-05	-3e-05	0.00011	-4e-05	2
6467	-0.0001	-0.0001	0	3e-05	-5e-05	-3e-05	0.00011	-4e-05	2
6468	-0.00021	-0.00011	-9e-05	-0.00011	-5e-05	-6e-05	-0.00024	-0.00017	2
6469	-0.00021	-0.00011	-9e-05	-0.00011	-5e-05	-6e-05	-0.00024	-0.00017	2
6470	-0.00021	-0.00011	-9e-05	-0.00011	-5e-05	-6e-05	-0.00024	-0.00017	2
6471	-0.00021	-0.00011	-9e-05	-0.00011	-5e-05	-6e-05	-0.00024	-0.00017	2
6472	-0.00021	-0.00011	-9e-05	-0.00011	-5e-05	-6e-05	-0.00024	-0.00017	2
6473	-0.00021	-0.00011	-9e-05	-0.00011	-5e-05	-6e-05	-0.00024	-0.00017	2
6474	-0.00021	-0.00011	-9e-05	-0.00011	-5e-05	-6e-05	-0.00024	-0.00017	2
6475	-0.00021	-0.00011	-9e-05	-0.00011	-5e-05	-6e-05	-0.00024	-0.00017	2
6476	-0.00021	-0.00011	-9e-05	-0.00011	-5e-05	-6e-05	-0.00024	-0.00017	2
6477	-8e-05	-0.00013	-0.00013	-2e-05	0	0	2e-05	-2e-05	2
6478	-8e-05	-0.00013	-0.00013	-2e-05	0	0	2e-05	-2e-05	2
6479	-8e-05	-0.00013	-0.00013	-2e-05	0	0	2e-05	-2e-05	2
6480	-8e-05	-0.00013	-0.00013	-2e-05	0	0	2e-05	-2e-05	2
6481	-8e-05	-0.00013	-0.00013	-2e-05	0	0	2e-05	-2e-05	2
6482	-8e-05	-0.00013	-0.00013	-2e-05	0	0	2e-05	-2e-05	2
6483	-8e-05	-0.00013	-0.00013	-2e-05	0	0	2e-05	-2e-05	2
6484	-8e-05	-0.00013	-0.00013	-2e-05	0	0	2e-05	-2e-05	2
6485	-8e-05	-0.00013	-0.00013	-2e-05	0	0	2e-05	-2e-05	2
6486	-8e-05	-0.00013	-0.00013	-2e-05	0	0	2e-05	-2e-05	2
6488	-8e-05	-0.00013	-0.00013	-2e-05	0	0	2e-05	-2e-05	2
6489	-8e-05	-0.00013	-0.00013	-2e-05	0	0	2e-05	-2e-05	2
6490	-8e-05	-0.00013	-0.00013	-2e-05	0	0	2e-05	-2e-05	2
6491	0.00013	0.00019	0	0.00024	0.00027	-1e-05	5e-05	1e-05	2
6492	0.00013	0.00019	0	0.00024	0.00027	-1e-05	5e-05	1e-05	2
6493	0	7e-05	0	-0.00021	-0.00013	7e-05	0	1e-05	2
6494	0	7e-05	0	-0.00021	-0.00013	7e-05	0	1e-05	2
6495	0	7e-05	0	-0.00021	-0.00013	7e-05	0	1e-05	2
6496	0	7e-05	0	-0.00021	-0.00013	7e-05	0	1e-05	2
6497	0	7e-05	0	-0.00021	-0.00013	7e-05	0	1e-05	2
6498	0	7e-05	0	-0.00021	-0.00013	7e-05	0	1e-05	2
6499	0	7e-05	0	-0.00021	-0.00013	7e-05	0	1e-05	2
6500	0	7e-05	0	-0.00021	-0.00013	7e-05	0	1e-05	2
6501	0	7e-05	0	-0.00021	-0.00013	7e-05	0	1e-05	2
6502	0	7e-05	0	-0.00021	-0.00013	7e-05	0	1e-05	2
6503	0	7e-05	0	-0.00021	-0.00013	7e-05	0	1e-05	2
6504	0	7e-05	0	-0.00021	-0.00013	7e-05	0	1e-05	2
6505	0	7e-05	0	-0.00021	-0.00013	7e-05	0	1e-05	2
6506	0	7e-05	0	-0.00021	-0.00013	7e-05	0	1e-05	2
6507	0	7e-05	0	-0.00021	-0.00013	7e-05	0	1e-05	2
6508	0	7e-05	0	-0.00021	-0.00013	7e-05	0	1e-05	2
6509	0	7e-05	0	-0.00021	-0.00013	7e-05	0	1e-05	2
6510	0	7e-05	0	-0.00021	-0.00013	7e-05	0	1e-05	2
6511	0	7e-05	0	-0.00021	-0.00013	7e-05	0	1e-05	2
6512	0	7e-05	0	-0.00021	-0.00013	7e-05	0	1e-05	2
6513	0	7e-05	0	-0.00021	-0.00013	7e-05	0	1e-05	2
6514	2e-05	-0.00011	-3e-05	-0.00019	-0.00016	-6e-05	-6e-05	-3e-05	2
6515	2e-05	-0.00011	-3e-05	-0.00019	-0.00016	-6e-05	-6e-05	-3e-05	2
6516	-1e-05	-2e-05	-7e-05	-0.00028	-0.00014	-2e-05	-2e-05	-6e-05	2
6517	-1e-05	-2e-05	-7e-05	-0.00028	-0.00014	-2e-05	-2e-05	-6e-05	2
6518	-1e-05	-2e-05	-7e-05	-0.00028	-0.00014	-2e-05	-2e-05	-6e-05	2
6519	-1e-05	-2e-05	-7e-05	-0.00028	-0.00014	-2e-05	-2e-05	-6e-05	2
6520	-1e-05	-2e-05	-7e-05	-0.00028	-0.00014	-2e-05	-2e-05	-6e-05	2
6521	-1e-05	-2e-05	-7e-05	-0.00028	-0.00014	-2e-05	-2e-05	-6e-05	2
6522	-1e-05	-2e-05	-7e-05	-0.00028	-0.00014	-2e-05	-2e-05	-6e-05	2
6523	-1e-05	-2e-05	-7e-05	-0.00028	-0.00014	-2e-05	-2e-05	-6e-05	2
6524	-1e-05	-2e-05	-7e-05	-0.00028	-0.00014	-2e-05	-2e-05	-6e-05	2
6525	-1e-05	-2e-05	-7e-05	-0.00028	-0.00014	-2e-05	-2e-05	-6e-05	2
6526	-1e-05	-2e-05	-7e-05	-0.00028	-0.00014	-2e-05	-2e-05	-6e-05	2
6527	-1e-05	-2e-05	-7e-05	-0.00028	-0.00014	-2e-05	-2e-05	-6e-05	2
6528	4e-05	0.00027	0.00019	0.00035	1e-05	4e-05	0.00014	6e-05	2
6529	4e-05	0.00027	0.00019	0.00035	1e-05	4e-05	0.00014	6e-05	2
6530	4e-05	0.00027	0.00019	0.00035	1e-05	4e-05	0.00014	6e-05	2
6531	4e-05	0.00027	0.00019	0.00035	1e-05	4e-05	0.00014	6e-05	2
6532	4e-05	0.00027	0.00019	0.00035	1e-05	4e-05	0.00014	6e-05	2
6533	4e-05	0.00027	0.00019	0.00035	1e-05	4e-05	0.00014	6e-05	2
6534	4e-05	0.00027	0.00019	0.00035	1e-05	4e-05	0.00014	6e-05	2
6535	4e-05	0.00027	0.00019	0.00035	1e-05	4e-05	0.00014	6e-05	2
6536	4e-05	0.00027	0.00019	0.00035	1e-05	4e-05	0.00014	6e-05	2
6538	0.00011	1e-05	6e-05	0.00033	8e-05	6e-05	5e-05	3e-05	2
6539	0.00011	1e-05	6e-05	0.00033	8e-05	6e-05	5e-05	3e-05	2
6540	0.00011	1e-05	6e-05	0.00033	8e-05	6e-05	5e-05	3e-05	2
6541	0.00011	1e-05	6e-05	0.00033	8e-05	6e-05	5e-05	3e-05	2
6542	0.00011	1e-05	6e-05	0.00033	8e-05	6e-05	5e-05	3e-05	2
6543	0.00011	1e-05	6e-05	0.00033	8e-05	6e-05	5e-05	3e-05	2
6544	0.00011	1e-05	6e-05	0.00033	8e-05	6e-05	5e-05	3e-05	2
6545	0.00011	1e-05	6e-05	0.00033	8e-05	6e-05	5e-05	3e-05	2
6546	0.00011	1e-05	6e-05	0.00033	8e-05	6e-05	5e-05	3e-05	2
6547	0.00011	1e-05	6e-05	0.00033	8e-05	6e-05	5e-05	3e-05	2
6548	0.00011	1e-05	6e-05	0.00033	8e-05	6e-05	5e-05	3e-05	2
6549	0.00011	1e-05	6e-05	0.00033	8e-05	6e-05	5e-05	3e-05	2
6550	0.00011	1e-05	6e-05	0.00033	8e-05	6e-05	5e-05	3e-05	2
6551	0.00011	1e-05	6e-05	0.00033	8e-05	6e-05	5e-05	3e-05	2
6552	-3e-05	-5e-05	-0.0001	6e-05	1e-05	0	-4e-05	-3e-05	2
6553	-9e-05	5e-05	5e-05	-0.00016	-0.00023	-6e-05	2e-05	1e-05	2
6554	-9e-05	5e-05	5e-05	-0.00016	-0.00023	-6e-05	2e-05	1e-05	2
6555	-9e-05	5e-05	5e-05	-0.00016	-0.00023	-6e-05	2e-05	1e-05	2
6556	-9e-05	5e-05	5e-05	-0.00016	-0.00023	-6e-05	2e-05	1e-05	2
6557	-9e-05	5e-05	5e-05	-0.00016	-0.00023	-6e-05	2e-05	1e-05	2
6558	-9e-05	5e-05	5e-05	-0.00016	-0.00023	-6e-05	2e-05	1e-05	2
6559	-9e-05	5e-05	5e-05	-0.00016	-0.00023	-6e-05	2e-05	1e-05	2
6560	-9e-05	5e-05	5e-05	-0.00016	-0.00023	-6e-05	2e-05	1e-05	2
6561	-9e-05	5e-05	5e-05	-0.00016	-0.00023	-6e-05	2e-05	1e-05	2
6562	-9e-05	5e-05	5e-05	-0.00016	-0.00023	-6e-05	2e-05	1e-05	2
6563	-9e-05	5e-05	5e-05	-0.00016	-0.00023	-6e-05	2e-05	1e-05	2
6564	-9e-05	5e-05	5e-05	-0.00016	-0.00023	-6e-05	2e-05	1e-05	2
6565	-9e-05	5e-05	5e-05	-0.00016	-0.00023	-6e-05	2e-05	1e-05	2
6566	-9e-05	5e-05	5e-05	-0.00016	-0.00023	-6e-05	2e-05	1e-05	2
6567	-9e-05	5e-05	5e-05	-0.00016	-0.00023	-6e-05	2e-05	1e-05	2
6568	-9e-05	5e-05	5e-05	-0.00016	-0.00023	-6e-05	2e-05	1e-05	2
6569	-9e-05	5e-05	5e-05	-0.00016	-0.00023	-6e-05	2e-05	1e-05	2
6570	-9e-05	5e-05	5e-05	-0.00016	-0.00023	-6e-05	2e-05	1e-05	2
6571	-9e-05	5e-05	5e-05	-0.00016	-0.00023	-6e-05	2e-05	1e-05	2
6572	-9e-05	5e-05	5e-05	-0.00016	-0.00023	-6e-05	2e-05	1e-05	2
6573	-9e-05	5e-05	5e-05	-0.00016	-0.00023	-6e-05	2e-05	1e-05	2
6574	-1e-05	-6e-05	0	-2e-05	3e-05	5e-05	-3e-05	-4e-05	2
6575	-1e-05	-6e-05	0	-2e-05	3e-05	5e-05	-3e-05	-4e-05	2
6576	-2e-05	-1e-05	-0.00021	-0.00078	-7e-05	5e-05	-3e-05	-2e-05	2
6577	-2e-05	-1e-05	-0.00021	-0.00078	-7e-05	5e-05	-3e-05	-2e-05	2
6578	-2e-05	-1e-05	-0.00021	-0.00078	-7e-05	5e-05	-3e-05	-2e-05	2
6579	-2e-05	-1e-05	-0.00021	-0.00078	-7e-05	5e-05	-3e-05	-2e-05	2
6580	-2e-05	-1e-05	-0.00021	-0.00078	-7e-05	5e-05	-3e-05	-2e-05	2
6581	-2e-05	-1e-05	-0.00021	-0.00078	-7e-05	5e-05	-3e-05	-2e-05	2
6582	-2e-05	-1e-05	-0.00021	-0.00078	-7e-05	5e-05	-3e-05	-2e-05	2
6583	-2e-05	-1e-05	-0.00021	-0.00078	-7e-05	5e-05	-3e-05	-2e-05	2
6584	-2e-05	-1e-05	-0.00021	-0.00078	-7e-05	5e-05	-3e-05	-2e-05	2
6585	-2e-05	-1e-05	-0.00021	-0.00078	-7e-05	5e-05	-3e-05	-2e-05	2
6586	-2e-05	-1e-05	-0.00021	-0.00078	-7e-05	5e-05	-3e-05	-2e-05	2
6588	-8e-05	5e-05	2e-05	-9e-05	-0.00011	-7e-05	-7e-05	-7e-05	2
6589	-8e-05	5e-05	2e-05	-9e-05	-0.00011	-7e-05	-7e-05	-7e-05	2
6590	-8e-05	5e-05	2e-05	-9e-05	-0.00011	-7e-05	-7e-05	-7e-05	2
6591	-8e-05	5e-05	2e-05	-9e-05	-0.00011	-7e-05	-7e-05	-7e-05	2
6592	-8e-05	5e-05	2e-05	-9e-05	-0.00011	-7e-05	-7e-05	-7e-05	2
6593	-8e-05	5e-05	2e-05	-9e-05	-0.00011	-7e-05	-7e-05	-7e-05	2
6594	-8e-05	5e-05	2e-05	-9e-05	-0.00011	-7e-05	-7e-05	-7e-05	2
6595	-8e-05	5e-05	2e-05	-9e-05	-0.00011	-7e-05	-7e-05	-7e-05	2
6596	-8e-05	5e-05	2e-05	-9e-05	-0.00011	-7e-05	-7e-05	-7e-05	2
6597	-3e-05	-7e-05	-0.00011	-0.00045	-0.0002	-6e-05	0	-7e-05	2
6598	-3e-05	-7e-05	-0.00011	-0.00045	-0.0002	-6e-05	0	-7e-05	2
6599	-3e-05	-7e-05	-0.00011	-0.00045	-0.0002	-6e-05	0	-7e-05	2
6600	-3e-05	-7e-05	-0.00011	-0.00045	-0.0002	-6e-05	0	-7e-05	2
6601	-3e-05	-7e-05	-0.00011	-0.00045	-0.0002	-6e-05	0	-7e-05	2
6602	-3e-05	-7e-05	-0.00011	-0.00045	-0.0002	-6e-05	0	-7e-05	2
6603	-3e-05	-7e-05	-0.00011	-0.00045	-0.0002	-6e-05	0	-7e-05	2
6604	-3e-05	-7e-05	-0.00011	-0.00045	-0.0002	-6e-05	0	-7e-05	2
6605	-3e-05	-7e-05	-0.00011	-0.00045	-0.0002	-6e-05	0	-7e-05	2
6606	-3e-05	-7e-05	-0.00011	-0.00045	-0.0002	-6e-05	0	-7e-05	2
6607	-3e-05	-7e-05	-0.00011	-0.00045	-0.0002	-6e-05	0	-7e-05	2
6608	-3e-05	-7e-05	-0.00011	-0.00045	-0.0002	-6e-05	0	-7e-05	2
6609	-3e-05	-7e-05	-0.00011	-0.00045	-0.0002	-6e-05	0	-7e-05	2
6610	-3e-05	-7e-05	-0.00011	-0.00045	-0.0002	-6e-05	0	-7e-05	2
6611	-9e-05	-0.00012	6e-05	-8e-05	3e-05	-5e-05	-0.00024	-1e-05	2
6612	-6e-05	0.00012	-6e-05	-4e-05	3e-05	5e-05	0.0001	-3e-05	2
6613	6e-05	3e-05	0.0002	0.00048	5e-05	2e-05	9e-05	6e-05	2
6614	6e-05	3e-05	0.0002	0.00048	5e-05	2e-05	9e-05	6e-05	2
6615	6e-05	3e-05	0.0002	0.00048	5e-05	2e-05	9e-05	6e-05	2
6616	6e-05	3e-05	0.0002	0.00048	5e-05	2e-05	9e-05	6e-05	2
6617	6e-05	3e-05	0.0002	0.00048	5e-05	2e-05	9e-05	6e-05	2
6618	6e-05	3e-05	0.0002	0.00048	5e-05	2e-05	9e-05	6e-05	2
6619	6e-05	3e-05	0.0002	0.00048	5e-05	2e-05	9e-05	6e-05	2
6620	6e-05	3e-05	0.0002	0.00048	5e-05	2e-05	9e-05	6e-05	2
6621	6e-05	3e-05	0.0002	0.00048	5e-05	2e-05	9e-05	6e-05	2
6622	6e-05	3e-05	0.0002	0.00048	5e-05	2e-05	9e-05	6e-05	2
6623	6e-05	3e-05	0.0002	0.00048	5e-05	2e-05	9e-05	6e-05	2
6624	6e-05	3e-05	0.0002	0.00048	5e-05	2e-05	9e-05	6e-05	2
6625	6e-05	3e-05	0.0002	0.00048	5e-05	2e-05	9e-05	6e-05	2
6626	6e-05	3e-05	0.0002	0.00048	5e-05	2e-05	9e-05	6e-05	2
6627	6e-05	3e-05	0.0002	0.00048	5e-05	2e-05	9e-05	6e-05	2
6628	6e-05	3e-05	0.0002	0.00048	5e-05	2e-05	9e-05	6e-05	2
6629	6e-05	3e-05	0.0002	0.00048	5e-05	2e-05	9e-05	6e-05	2
6630	6e-05	3e-05	0.0002	0.00048	5e-05	2e-05	9e-05	6e-05	2
6631	6e-05	3e-05	0.0002	0.00048	5e-05	2e-05	9e-05	6e-05	2
6632	6e-05	3e-05	0.0002	0.00048	5e-05	2e-05	9e-05	6e-05	2
6633	6e-05	3e-05	0.0002	0.00048	5e-05	2e-05	9e-05	6e-05	2
6634	8e-05	0.0001	-0.00012	-0.00019	-0.0001	-4e-05	-3e-05	1e-05	2
6635	-2e-05	-1e-05	2e-05	1e-05	-4e-05	5e-05	0.00015	0	2
6636	1e-05	3e-05	0.0001	0.00042	6e-05	-7e-05	-6e-05	0	2
6638	1e-05	3e-05	0.0001	0.00042	6e-05	-7e-05	-6e-05	0	2
6639	1e-05	3e-05	0.0001	0.00042	6e-05	-7e-05	-6e-05	0	2
6640	1e-05	3e-05	0.0001	0.00042	6e-05	-7e-05	-6e-05	0	2
6641	1e-05	3e-05	0.0001	0.00042	6e-05	-7e-05	-6e-05	0	2
6642	1e-05	3e-05	0.0001	0.00042	6e-05	-7e-05	-6e-05	0	2
6643	1e-05	3e-05	0.0001	0.00042	6e-05	-7e-05	-6e-05	0	2
6644	1e-05	3e-05	0.0001	0.00042	6e-05	-7e-05	-6e-05	0	2
6645	1e-05	3e-05	0.0001	0.00042	6e-05	-7e-05	-6e-05	0	2
6646	1e-05	3e-05	0.0001	0.00042	6e-05	-7e-05	-6e-05	0	2
6647	1e-05	3e-05	0.0001	0.00042	6e-05	-7e-05	-6e-05	0	2
6648	1e-05	3e-05	0.0001	0.00042	6e-05	-7e-05	-6e-05	0	2
6649	1e-05	3e-05	0.0001	0.00042	6e-05	-7e-05	-6e-05	0	2
6650	1e-05	3e-05	0.0001	0.00042	6e-05	-7e-05	-6e-05	0	2
6651	1e-05	3e-05	0.0001	0.00042	6e-05	-7e-05	-6e-05	0	2
6652	1e-05	3e-05	0.0001	0.00042	6e-05	-7e-05	-6e-05	0	2
6653	1e-05	3e-05	0.0001	0.00042	6e-05	-7e-05	-6e-05	0	2
6654	1e-05	3e-05	0.0001	0.00042	6e-05	-7e-05	-6e-05	0	2
6655	1e-05	3e-05	0.0001	0.00042	6e-05	-7e-05	-6e-05	0	2
6656	1e-05	3e-05	0.0001	0.00042	6e-05	-7e-05	-6e-05	0	2
6657	0	-3e-05	-0.00011	-0.00042	-0.00012	0	-9e-05	-3e-05	2
6658	3e-05	3e-05	0.00011	0.00062	0.00014	-1e-05	0.00012	6e-05	2
6659	3e-05	3e-05	0.00011	0.00062	0.00014	-1e-05	0.00012	6e-05	2
6660	3e-05	3e-05	0.00011	0.00062	0.00014	-1e-05	0.00012	6e-05	2
6661	3e-05	3e-05	0.00011	0.00062	0.00014	-1e-05	0.00012	6e-05	2
6662	3e-05	3e-05	0.00011	0.00062	0.00014	-1e-05	0.00012	6e-05	2
6663	3e-05	3e-05	0.00011	0.00062	0.00014	-1e-05	0.00012	6e-05	2
6664	3e-05	3e-05	0.00011	0.00062	0.00014	-1e-05	0.00012	6e-05	2
6665	3e-05	3e-05	0.00011	0.00062	0.00014	-1e-05	0.00012	6e-05	2
6666	3e-05	3e-05	0.00011	0.00062	0.00014	-1e-05	0.00012	6e-05	2
6667	3e-05	3e-05	0.00011	0.00062	0.00014	-1e-05	0.00012	6e-05	2
6668	3e-05	3e-05	0.00011	0.00062	0.00014	-1e-05	0.00012	6e-05	2
6669	3e-05	3e-05	0.00011	0.00062	0.00014	-1e-05	0.00012	6e-05	2
6670	3e-05	3e-05	0.00011	0.00062	0.00014	-1e-05	0.00012	6e-05	2
6671	-6e-05	0.00011	-0.00017	-0.0009	-0.00012	-5e-05	-0.00025	-0.00015	2
6672	-5e-05	-0.00013	0.0001	0.00026	2e-05	-4e-05	8e-05	3e-05	2
6673	-4e-05	-5e-05	-7e-05	0.0001	0.0001	-0.0001	-0.00021	-4e-05	2
6674	-4e-05	-5e-05	-7e-05	0.0001	0.0001	-0.0001	-0.00021	-4e-05	2
6675	-4e-05	-5e-05	-7e-05	0.0001	0.0001	-0.0001	-0.00021	-4e-05	2
6676	-4e-05	-5e-05	-7e-05	0.0001	0.0001	-0.0001	-0.00021	-4e-05	2
6677	-4e-05	-5e-05	-7e-05	0.0001	0.0001	-0.0001	-0.00021	-4e-05	2
6678	-4e-05	-5e-05	-7e-05	0.0001	0.0001	-0.0001	-0.00021	-4e-05	2
6679	-4e-05	-5e-05	-7e-05	0.0001	0.0001	-0.0001	-0.00021	-4e-05	2
6680	-4e-05	-5e-05	-7e-05	0.0001	0.0001	-0.0001	-0.00021	-4e-05	2
6681	-4e-05	-5e-05	-7e-05	0.0001	0.0001	-0.0001	-0.00021	-4e-05	2
6682	-4e-05	-5e-05	-7e-05	0.0001	0.0001	-0.0001	-0.00021	-4e-05	2
6683	-4e-05	-5e-05	-7e-05	0.0001	0.0001	-0.0001	-0.00021	-4e-05	2
6684	-4e-05	-5e-05	-7e-05	0.0001	0.0001	-0.0001	-0.00021	-4e-05	2
6685	-4e-05	-5e-05	-7e-05	0.0001	0.0001	-0.0001	-0.00021	-4e-05	2
6687	-4e-05	-5e-05	-7e-05	0.0001	0.0001	-0.0001	-0.00021	-4e-05	2
6689	-4e-05	-5e-05	-7e-05	0.0001	0.0001	-0.0001	-0.00021	-4e-05	2
6690	-4e-05	-5e-05	-7e-05	0.0001	0.0001	-0.0001	-0.00021	-4e-05	2
6691	-4e-05	-5e-05	-7e-05	0.0001	0.0001	-0.0001	-0.00021	-4e-05	2
6692	-4e-05	-5e-05	-7e-05	0.0001	0.0001	-0.0001	-0.00021	-4e-05	2
6693	-4e-05	-5e-05	-7e-05	0.0001	0.0001	-0.0001	-0.00021	-4e-05	2
6694	1e-05	-3e-05	0.0001	0.00026	0.0001	4e-05	-0.00013	1e-05	2
6695	-2e-05	-0.00016	-7e-05	6e-05	2e-05	-1e-05	6e-05	-1e-05	2
6696	-2e-05	-0.00016	-7e-05	6e-05	2e-05	-1e-05	6e-05	-1e-05	2
6697	-2e-05	-0.00016	-7e-05	6e-05	2e-05	-1e-05	6e-05	-1e-05	2
6698	-2e-05	-0.00016	-7e-05	6e-05	2e-05	-1e-05	6e-05	-1e-05	2
6699	-2e-05	-0.00016	-7e-05	6e-05	2e-05	-1e-05	6e-05	-1e-05	2
6700	-2e-05	-0.00016	-7e-05	6e-05	2e-05	-1e-05	6e-05	-1e-05	2
6701	-2e-05	-0.00016	-7e-05	6e-05	2e-05	-1e-05	6e-05	-1e-05	2
6702	-2e-05	-0.00016	-7e-05	6e-05	2e-05	-1e-05	6e-05	-1e-05	2
6703	-2e-05	-0.00016	-7e-05	6e-05	2e-05	-1e-05	6e-05	-1e-05	2
6704	-2e-05	-0.00016	-7e-05	6e-05	2e-05	-1e-05	6e-05	-1e-05	2
6705	-2e-05	-0.00016	-7e-05	6e-05	2e-05	-1e-05	6e-05	-1e-05	2
6706	-2e-05	-0.00016	-7e-05	6e-05	2e-05	-1e-05	6e-05	-1e-05	2
6707	-2e-05	-0.00016	-7e-05	6e-05	2e-05	-1e-05	6e-05	-1e-05	2
6708	-2e-05	-0.00016	-7e-05	6e-05	2e-05	-1e-05	6e-05	-1e-05	2
6709	-2e-05	-0.00016	-7e-05	6e-05	2e-05	-1e-05	6e-05	-1e-05	2
6710	-2e-05	-0.00016	-7e-05	6e-05	2e-05	-1e-05	6e-05	-1e-05	2
6711	-2e-05	-0.00016	-7e-05	6e-05	2e-05	-1e-05	6e-05	-1e-05	2
6712	-2e-05	-0.00016	-7e-05	6e-05	2e-05	-1e-05	6e-05	-1e-05	2
6713	-2e-05	-0.00016	-7e-05	6e-05	2e-05	-1e-05	6e-05	-1e-05	2
6714	-2e-05	-0.00016	-7e-05	6e-05	2e-05	-1e-05	6e-05	-1e-05	2
6715	-2e-05	-0.00016	-7e-05	6e-05	2e-05	-1e-05	6e-05	-1e-05	2
6716	-2e-05	-5e-05	-2e-05	2e-05	-0.00018	-2e-05	-2e-05	1e-05	2
6717	1e-05	-0.00013	-0.00018	-0.00038	4e-05	-2e-05	-5e-05	-2e-05	2
6718	6e-05	0.00025	-1e-05	-8e-05	3e-05	2e-05	-0.00014	-1e-05	2
6719	6e-05	0.00025	-1e-05	-8e-05	3e-05	2e-05	-0.00014	-1e-05	2
6720	6e-05	0.00025	-1e-05	-8e-05	3e-05	2e-05	-0.00014	-1e-05	2
6721	6e-05	0.00025	-1e-05	-8e-05	3e-05	2e-05	-0.00014	-1e-05	2
6722	6e-05	0.00025	-1e-05	-8e-05	3e-05	2e-05	-0.00014	-1e-05	2
6723	6e-05	0.00025	-1e-05	-8e-05	3e-05	2e-05	-0.00014	-1e-05	2
6724	6e-05	0.00025	-1e-05	-8e-05	3e-05	2e-05	-0.00014	-1e-05	2
6725	6e-05	0.00025	-1e-05	-8e-05	3e-05	2e-05	-0.00014	-1e-05	2
6726	6e-05	0.00025	-1e-05	-8e-05	3e-05	2e-05	-0.00014	-1e-05	2
6727	6e-05	0.00025	-1e-05	-8e-05	3e-05	2e-05	-0.00014	-1e-05	2
6728	6e-05	0.00025	-1e-05	-8e-05	3e-05	2e-05	-0.00014	-1e-05	2
6729	6e-05	0.00025	-1e-05	-8e-05	3e-05	2e-05	-0.00014	-1e-05	2
6730	6e-05	0.00025	-1e-05	-8e-05	3e-05	2e-05	-0.00014	-1e-05	2
6731	-2e-05	-2e-05	4e-05	0.00022	-0.0001	-5e-05	6e-05	1e-05	2
6732	-2e-05	-2e-05	4e-05	0.00022	-0.0001	-5e-05	6e-05	1e-05	2
6733	-8e-05	-6e-05	0.00018	0.0006	0.00018	-2e-05	-5e-05	1e-05	2
6734	-8e-05	-6e-05	0.00018	0.0006	0.00018	-2e-05	-5e-05	1e-05	2
6735	-8e-05	-6e-05	0.00018	0.0006	0.00018	-2e-05	-5e-05	1e-05	2
6737	-8e-05	-6e-05	0.00018	0.0006	0.00018	-2e-05	-5e-05	1e-05	2
6739	-8e-05	-6e-05	0.00018	0.0006	0.00018	-2e-05	-5e-05	1e-05	2
6740	-8e-05	-6e-05	0.00018	0.0006	0.00018	-2e-05	-5e-05	1e-05	2
6741	-8e-05	-6e-05	0.00018	0.0006	0.00018	-2e-05	-5e-05	1e-05	2
6742	-8e-05	-6e-05	0.00018	0.0006	0.00018	-2e-05	-5e-05	1e-05	2
6743	-8e-05	-6e-05	0.00018	0.0006	0.00018	-2e-05	-5e-05	1e-05	2
6744	-8e-05	-6e-05	0.00018	0.0006	0.00018	-2e-05	-5e-05	1e-05	2
6745	-8e-05	-6e-05	0.00018	0.0006	0.00018	-2e-05	-5e-05	1e-05	2
6746	-8e-05	-6e-05	0.00018	0.0006	0.00018	-2e-05	-5e-05	1e-05	2
6747	-8e-05	-6e-05	0.00018	0.0006	0.00018	-2e-05	-5e-05	1e-05	2
6748	-8e-05	-6e-05	0.00018	0.0006	0.00018	-2e-05	-5e-05	1e-05	2
6749	-8e-05	-6e-05	0.00018	0.0006	0.00018	-2e-05	-5e-05	1e-05	2
6750	-8e-05	-6e-05	0.00018	0.0006	0.00018	-2e-05	-5e-05	1e-05	2
6751	-8e-05	-6e-05	0.00018	0.0006	0.00018	-2e-05	-5e-05	1e-05	2
6752	-8e-05	-6e-05	0.00018	0.0006	0.00018	-2e-05	-5e-05	1e-05	2
6753	-8e-05	-6e-05	0.00018	0.0006	0.00018	-2e-05	-5e-05	1e-05	2
6754	8e-05	0.00011	8e-05	9e-05	5e-05	-5e-05	1e-05	3e-05	2
6755	6e-05	3e-05	6e-05	0.00017	-3e-05	2e-05	0	1e-05	2
6756	6e-05	3e-05	6e-05	0.00017	-3e-05	2e-05	0	1e-05	2
6757	6e-05	3e-05	6e-05	0.00017	-3e-05	2e-05	0	1e-05	2
6758	6e-05	3e-05	6e-05	0.00017	-3e-05	2e-05	0	1e-05	2
6759	6e-05	3e-05	6e-05	0.00017	-3e-05	2e-05	0	1e-05	2
6760	6e-05	3e-05	6e-05	0.00017	-3e-05	2e-05	0	1e-05	2
6761	6e-05	3e-05	6e-05	0.00017	-3e-05	2e-05	0	1e-05	2
6762	6e-05	3e-05	6e-05	0.00017	-3e-05	2e-05	0	1e-05	2
6763	6e-05	3e-05	6e-05	0.00017	-3e-05	2e-05	0	1e-05	2
6764	6e-05	3e-05	6e-05	0.00017	-3e-05	2e-05	0	1e-05	2
6765	6e-05	3e-05	6e-05	0.00017	-3e-05	2e-05	0	1e-05	2
6766	6e-05	3e-05	6e-05	0.00017	-3e-05	2e-05	0	1e-05	2
6767	6e-05	3e-05	6e-05	0.00017	-3e-05	2e-05	0	1e-05	2
6768	6e-05	3e-05	6e-05	0.00017	-3e-05	2e-05	0	1e-05	2
6769	6e-05	3e-05	6e-05	0.00017	-3e-05	2e-05	0	1e-05	2
6770	6e-05	3e-05	6e-05	0.00017	-3e-05	2e-05	0	1e-05	2
6771	6e-05	3e-05	6e-05	0.00017	-3e-05	2e-05	0	1e-05	2
6772	6e-05	3e-05	6e-05	0.00017	-3e-05	2e-05	0	1e-05	2
6773	6e-05	3e-05	6e-05	0.00017	-3e-05	2e-05	0	1e-05	2
6774	6e-05	3e-05	6e-05	0.00017	-3e-05	2e-05	0	1e-05	2
6775	6e-05	3e-05	6e-05	0.00017	-3e-05	2e-05	0	1e-05	2
6776	0	9e-05	5e-05	0.00014	0.00019	2e-05	-5e-05	-2e-05	2
6777	-2e-05	-0.00012	-2e-05	0.00018	3e-05	-5e-05	0.00018	3e-05	2
6778	7e-05	7e-05	-8e-05	-0.00018	-5e-05	-1e-05	8e-05	2e-05	2
6779	7e-05	7e-05	-8e-05	-0.00018	-5e-05	-1e-05	8e-05	2e-05	2
6780	7e-05	7e-05	-8e-05	-0.00018	-5e-05	-1e-05	8e-05	2e-05	2
6781	7e-05	7e-05	-8e-05	-0.00018	-5e-05	-1e-05	8e-05	2e-05	2
6782	7e-05	7e-05	-8e-05	-0.00018	-5e-05	-1e-05	8e-05	2e-05	2
6783	7e-05	7e-05	-8e-05	-0.00018	-5e-05	-1e-05	8e-05	2e-05	2
6784	7e-05	7e-05	-8e-05	-0.00018	-5e-05	-1e-05	8e-05	2e-05	2
6785	7e-05	7e-05	-8e-05	-0.00018	-5e-05	-1e-05	8e-05	2e-05	2
6787	7e-05	7e-05	-8e-05	-0.00018	-5e-05	-1e-05	8e-05	2e-05	2
6789	7e-05	7e-05	-8e-05	-0.00018	-5e-05	-1e-05	8e-05	2e-05	2
6790	7e-05	7e-05	-8e-05	-0.00018	-5e-05	-1e-05	8e-05	2e-05	2
6791	7e-05	7e-05	-8e-05	-0.00018	-5e-05	-1e-05	8e-05	2e-05	2
6792	-2e-05	-7e-05	-0.0002	-0.00072	-0.00017	-3e-05	-9e-05	-5e-05	2
6793	-3e-05	7e-05	6e-05	0.00017	-5e-05	-1e-05	0.00042	5e-05	2
6794	-3e-05	7e-05	6e-05	0.00017	-5e-05	-1e-05	0.00042	5e-05	2
6795	-3e-05	7e-05	6e-05	0.00017	-5e-05	-1e-05	0.00042	5e-05	2
6796	-3e-05	7e-05	6e-05	0.00017	-5e-05	-1e-05	0.00042	5e-05	2
6797	-3e-05	7e-05	6e-05	0.00017	-5e-05	-1e-05	0.00042	5e-05	2
6798	-3e-05	7e-05	6e-05	0.00017	-5e-05	-1e-05	0.00042	5e-05	2
6799	-3e-05	7e-05	6e-05	0.00017	-5e-05	-1e-05	0.00042	5e-05	2
6800	-3e-05	7e-05	6e-05	0.00017	-5e-05	-1e-05	0.00042	5e-05	2
6801	-3e-05	7e-05	6e-05	0.00017	-5e-05	-1e-05	0.00042	5e-05	2
6802	-3e-05	7e-05	6e-05	0.00017	-5e-05	-1e-05	0.00042	5e-05	2
6803	-3e-05	7e-05	6e-05	0.00017	-5e-05	-1e-05	0.00042	5e-05	2
6804	-3e-05	7e-05	6e-05	0.00017	-5e-05	-1e-05	0.00042	5e-05	2
6805	-3e-05	7e-05	6e-05	0.00017	-5e-05	-1e-05	0.00042	5e-05	2
6806	-3e-05	7e-05	6e-05	0.00017	-5e-05	-1e-05	0.00042	5e-05	2
6807	-3e-05	7e-05	6e-05	0.00017	-5e-05	-1e-05	0.00042	5e-05	2
6808	-3e-05	7e-05	6e-05	0.00017	-5e-05	-1e-05	0.00042	5e-05	2
6809	-3e-05	7e-05	6e-05	0.00017	-5e-05	-1e-05	0.00042	5e-05	2
6810	-3e-05	7e-05	6e-05	0.00017	-5e-05	-1e-05	0.00042	5e-05	2
6811	-3e-05	7e-05	6e-05	0.00017	-5e-05	-1e-05	0.00042	5e-05	2
6812	-3e-05	7e-05	6e-05	0.00017	-5e-05	-1e-05	0.00042	5e-05	2
6813	-3e-05	7e-05	6e-05	0.00017	-5e-05	-1e-05	0.00042	5e-05	2
6814	-5e-05	-7e-05	-2e-05	-0.00011	-9e-05	-0.00012	-0.00012	-1e-05	2
6815	-5e-05	-7e-05	-2e-05	-0.00011	-9e-05	-0.00012	-0.00012	-1e-05	2
6816	6e-05	3e-05	1e-05	-0.0001	-1e-05	2e-05	-0.00017	-4e-05	2
6817	6e-05	3e-05	1e-05	-0.0001	-1e-05	2e-05	-0.00017	-4e-05	2
6818	6e-05	3e-05	1e-05	-0.0001	-1e-05	2e-05	-0.00017	-4e-05	2
6819	6e-05	3e-05	1e-05	-0.0001	-1e-05	2e-05	-0.00017	-4e-05	2
6820	6e-05	3e-05	1e-05	-0.0001	-1e-05	2e-05	-0.00017	-4e-05	2
6821	6e-05	3e-05	1e-05	-0.0001	-1e-05	2e-05	-0.00017	-4e-05	2
6822	6e-05	3e-05	1e-05	-0.0001	-1e-05	2e-05	-0.00017	-4e-05	2
6823	6e-05	3e-05	1e-05	-0.0001	-1e-05	2e-05	-0.00017	-4e-05	2
6824	6e-05	3e-05	1e-05	-0.0001	-1e-05	2e-05	-0.00017	-4e-05	2
6825	6e-05	3e-05	1e-05	-0.0001	-1e-05	2e-05	-0.00017	-4e-05	2
6826	6e-05	3e-05	1e-05	-0.0001	-1e-05	2e-05	-0.00017	-4e-05	2
6827	6e-05	3e-05	1e-05	-0.0001	-1e-05	2e-05	-0.00017	-4e-05	2
6828	6e-05	3e-05	1e-05	-0.0001	-1e-05	2e-05	-0.00017	-4e-05	2
6829	6e-05	3e-05	1e-05	-0.0001	-1e-05	2e-05	-0.00017	-4e-05	2
6830	6e-05	3e-05	1e-05	-0.0001	-1e-05	2e-05	-0.00017	-4e-05	2
6831	6e-05	3e-05	1e-05	-0.0001	-1e-05	2e-05	-0.00017	-4e-05	2
6832	6e-05	3e-05	1e-05	-0.0001	-1e-05	2e-05	-0.00017	-4e-05	2
6833	6e-05	3e-05	1e-05	-0.0001	-1e-05	2e-05	-0.00017	-4e-05	2
6834	6e-05	3e-05	1e-05	-0.0001	-1e-05	2e-05	-0.00017	-4e-05	2
6835	6e-05	3e-05	1e-05	-0.0001	-1e-05	2e-05	-0.00017	-4e-05	2
6836	6e-05	3e-05	1e-05	-0.0001	-1e-05	2e-05	-0.00017	-4e-05	2
6839	-0.0001	-0.00013	0	0.00013	0	-5e-05	1e-05	-7e-05	2
6840	-0.0001	-0.00013	0	0.00013	0	-5e-05	1e-05	-7e-05	2
6841	-0.0001	-0.00013	0	0.00013	0	-5e-05	1e-05	-7e-05	2
6842	-0.0001	-0.00013	0	0.00013	0	-5e-05	1e-05	-7e-05	2
6843	-0.0001	-0.00013	0	0.00013	0	-5e-05	1e-05	-7e-05	2
6844	-0.0001	-0.00013	0	0.00013	0	-5e-05	1e-05	-7e-05	2
6845	-0.0001	-0.00013	0	0.00013	0	-5e-05	1e-05	-7e-05	2
6846	-0.0001	-0.00013	0	0.00013	0	-5e-05	1e-05	-7e-05	2
6847	-0.0001	-0.00013	0	0.00013	0	-5e-05	1e-05	-7e-05	2
6848	-0.0001	-0.00013	0	0.00013	0	-5e-05	1e-05	-7e-05	2
6849	-0.0001	-0.00013	0	0.00013	0	-5e-05	1e-05	-7e-05	2
6850	-0.0001	-0.00013	0	0.00013	0	-5e-05	1e-05	-7e-05	2
6851	4e-05	3e-05	6e-05	9e-05	-0.0001	-4e-05	-0.00012	-3e-05	2
6852	4e-05	3e-05	6e-05	9e-05	-0.0001	-4e-05	-0.00012	-3e-05	2
6853	4e-05	3e-05	6e-05	9e-05	-0.0001	-4e-05	-0.00012	-3e-05	2
6854	4e-05	3e-05	6e-05	9e-05	-0.0001	-4e-05	-0.00012	-3e-05	2
6855	4e-05	3e-05	6e-05	9e-05	-0.0001	-4e-05	-0.00012	-3e-05	2
6856	4e-05	3e-05	6e-05	9e-05	-0.0001	-4e-05	-0.00012	-3e-05	2
6857	-3e-05	-5e-05	-4e-05	0.00022	1e-05	-7e-05	8e-05	-3e-05	2
6858	-7e-05	-0.00022	-2e-05	-0.0003	-6e-05	2e-05	-5e-05	-4e-05	2
6859	-7e-05	-0.00022	-2e-05	-0.0003	-6e-05	2e-05	-5e-05	-4e-05	2
6860	-7e-05	-0.00022	-2e-05	-0.0003	-6e-05	2e-05	-5e-05	-4e-05	2
6861	-7e-05	-0.00022	-2e-05	-0.0003	-6e-05	2e-05	-5e-05	-4e-05	2
6862	-7e-05	-0.00022	-2e-05	-0.0003	-6e-05	2e-05	-5e-05	-4e-05	2
6863	-7e-05	-0.00022	-2e-05	-0.0003	-6e-05	2e-05	-5e-05	-4e-05	2
6864	-7e-05	-0.00022	-2e-05	-0.0003	-6e-05	2e-05	-5e-05	-4e-05	2
6865	-7e-05	-0.00022	-2e-05	-0.0003	-6e-05	2e-05	-5e-05	-4e-05	2
6866	-7e-05	-0.00022	-2e-05	-0.0003	-6e-05	2e-05	-5e-05	-4e-05	2
6867	-7e-05	-0.00022	-2e-05	-0.0003	-6e-05	2e-05	-5e-05	-4e-05	2
6868	-7e-05	-0.00022	-2e-05	-0.0003	-6e-05	2e-05	-5e-05	-4e-05	2
6869	-7e-05	-0.00022	-2e-05	-0.0003	-6e-05	2e-05	-5e-05	-4e-05	2
6870	-7e-05	-0.00022	-2e-05	-0.0003	-6e-05	2e-05	-5e-05	-4e-05	2
6871	-7e-05	-0.00022	-2e-05	-0.0003	-6e-05	2e-05	-5e-05	-4e-05	2
6872	-7e-05	-0.00022	-2e-05	-0.0003	-6e-05	2e-05	-5e-05	-4e-05	2
6873	-7e-05	-0.00022	-2e-05	-0.0003	-6e-05	2e-05	-5e-05	-4e-05	2
6874	-5e-05	-0.00015	-6e-05	-0.0001	9e-05	0.0001	3e-05	-3e-05	2
6875	-5e-05	-0.00015	-6e-05	-0.0001	9e-05	0.0001	3e-05	-3e-05	2
6876	-0.0001	4e-05	-4e-05	-8e-05	-1e-05	-2e-05	-3e-05	-7e-05	2
6877	-0.0001	4e-05	-4e-05	-8e-05	-1e-05	-2e-05	-3e-05	-7e-05	2
6878	-0.0001	4e-05	-4e-05	-8e-05	-1e-05	-2e-05	-3e-05	-7e-05	2
6879	-0.0001	4e-05	-4e-05	-8e-05	-1e-05	-2e-05	-3e-05	-7e-05	2
6880	-0.0001	4e-05	-4e-05	-8e-05	-1e-05	-2e-05	-3e-05	-7e-05	2
6881	-0.0001	4e-05	-4e-05	-8e-05	-1e-05	-2e-05	-3e-05	-7e-05	2
6882	-0.0001	4e-05	-4e-05	-8e-05	-1e-05	-2e-05	-3e-05	-7e-05	2
6883	-0.0001	4e-05	-4e-05	-8e-05	-1e-05	-2e-05	-3e-05	-7e-05	2
6884	-0.0001	4e-05	-4e-05	-8e-05	-1e-05	-2e-05	-3e-05	-7e-05	2
6885	-0.0001	4e-05	-4e-05	-8e-05	-1e-05	-2e-05	-3e-05	-7e-05	2
6886	-0.0001	4e-05	-4e-05	-8e-05	-1e-05	-2e-05	-3e-05	-7e-05	2
6888	-0.0001	4e-05	-4e-05	-8e-05	-1e-05	-2e-05	-3e-05	-7e-05	2
6889	-0.0001	4e-05	-4e-05	-8e-05	-1e-05	-2e-05	-3e-05	-7e-05	2
6890	-0.0001	4e-05	-4e-05	-8e-05	-1e-05	-2e-05	-3e-05	-7e-05	2
6891	-0.0001	4e-05	-4e-05	-8e-05	-1e-05	-2e-05	-3e-05	-7e-05	2
6892	-0.0001	4e-05	-4e-05	-8e-05	-1e-05	-2e-05	-3e-05	-7e-05	2
6893	-0.0001	4e-05	-4e-05	-8e-05	-1e-05	-2e-05	-3e-05	-7e-05	2
6894	-0.0001	4e-05	-4e-05	-8e-05	-1e-05	-2e-05	-3e-05	-7e-05	2
6895	-0.0001	4e-05	-4e-05	-8e-05	-1e-05	-2e-05	-3e-05	-7e-05	2
6896	5e-05	5e-05	-5e-05	-7e-05	-7e-05	-6e-05	-3e-05	0	2
6897	-6e-05	-9e-05	-4e-05	1e-05	0	0	-0.00013	-6e-05	2
6898	-5e-05	-0.00012	-8e-05	-0.00021	-0.0001	0	6e-05	8e-05	2
6899	-5e-05	-0.00012	-8e-05	-0.00021	-0.0001	0	6e-05	8e-05	2
6900	-5e-05	-0.00012	-8e-05	-0.00021	-0.0001	0	6e-05	8e-05	2
6901	-5e-05	-0.00012	-8e-05	-0.00021	-0.0001	0	6e-05	8e-05	2
6902	-5e-05	-0.00012	-8e-05	-0.00021	-0.0001	0	6e-05	8e-05	2
6903	-5e-05	-0.00012	-8e-05	-0.00021	-0.0001	0	6e-05	8e-05	2
6904	-5e-05	-0.00012	-8e-05	-0.00021	-0.0001	0	6e-05	8e-05	2
6905	-5e-05	-0.00012	-8e-05	-0.00021	-0.0001	0	6e-05	8e-05	2
6906	-5e-05	-0.00012	-8e-05	-0.00021	-0.0001	0	6e-05	8e-05	2
6907	-5e-05	-0.00012	-8e-05	-0.00021	-0.0001	0	6e-05	8e-05	2
6908	-5e-05	-0.00012	-8e-05	-0.00021	-0.0001	0	6e-05	8e-05	2
6909	-5e-05	-0.00012	-8e-05	-0.00021	-0.0001	0	6e-05	8e-05	2
6910	-5e-05	-0.00012	-8e-05	-0.00021	-0.0001	0	6e-05	8e-05	2
6911	7e-05	-1e-05	-0.00016	-0.0006	4e-05	3e-05	-0.00024	-8e-05	2
6912	7e-05	-1e-05	-0.00016	-0.0006	4e-05	3e-05	-0.00024	-8e-05	2
6913	7e-05	-1e-05	-0.00016	-0.0006	4e-05	3e-05	-0.00024	-8e-05	2
6914	7e-05	-1e-05	-0.00016	-0.0006	4e-05	3e-05	-0.00024	-8e-05	2
6915	7e-05	-1e-05	-0.00016	-0.0006	4e-05	3e-05	-0.00024	-8e-05	2
6916	7e-05	-1e-05	-0.00016	-0.0006	4e-05	3e-05	-0.00024	-8e-05	2
6917	-7e-05	-8e-05	-5e-05	0.00022	-1e-05	-6e-05	-1e-05	-4e-05	2
6918	6e-05	5e-05	-0.00017	-0.0006	-9e-05	1e-05	-3e-05	2e-05	2
6919	6e-05	5e-05	-0.00017	-0.0006	-9e-05	1e-05	-3e-05	2e-05	2
6920	6e-05	5e-05	-0.00017	-0.0006	-9e-05	1e-05	-3e-05	2e-05	2
6921	6e-05	5e-05	-0.00017	-0.0006	-9e-05	1e-05	-3e-05	2e-05	2
6922	6e-05	5e-05	-0.00017	-0.0006	-9e-05	1e-05	-3e-05	2e-05	2
6923	6e-05	5e-05	-0.00017	-0.0006	-9e-05	1e-05	-3e-05	2e-05	2
6924	6e-05	5e-05	-0.00017	-0.0006	-9e-05	1e-05	-3e-05	2e-05	2
6925	6e-05	5e-05	-0.00017	-0.0006	-9e-05	1e-05	-3e-05	2e-05	2
6926	6e-05	5e-05	-0.00017	-0.0006	-9e-05	1e-05	-3e-05	2e-05	2
6927	6e-05	5e-05	-0.00017	-0.0006	-9e-05	1e-05	-3e-05	2e-05	2
6928	6e-05	5e-05	-0.00017	-0.0006	-9e-05	1e-05	-3e-05	2e-05	2
6929	6e-05	5e-05	-0.00017	-0.0006	-9e-05	1e-05	-3e-05	2e-05	2
6930	6e-05	5e-05	-0.00017	-0.0006	-9e-05	1e-05	-3e-05	2e-05	2
6931	6e-05	5e-05	-0.00017	-0.0006	-9e-05	1e-05	-3e-05	2e-05	2
6932	6e-05	5e-05	-0.00017	-0.0006	-9e-05	1e-05	-3e-05	2e-05	2
6933	6e-05	5e-05	-0.00017	-0.0006	-9e-05	1e-05	-3e-05	2e-05	2
6934	0	5e-05	-0.00013	-0.00037	-6e-05	4e-05	-2e-05	2e-05	2
6935	-0.0001	-0.0001	2e-05	9e-05	2e-05	-8e-05	-0.0002	-5e-05	2
6936	-4e-05	-6e-05	2e-05	0.00015	4e-05	6e-05	3e-05	-1e-05	2
6938	-4e-05	-6e-05	2e-05	0.00015	4e-05	6e-05	3e-05	-1e-05	2
6939	-4e-05	-6e-05	2e-05	0.00015	4e-05	6e-05	3e-05	-1e-05	2
6940	-4e-05	-6e-05	2e-05	0.00015	4e-05	6e-05	3e-05	-1e-05	2
6941	-4e-05	-6e-05	2e-05	0.00015	4e-05	6e-05	3e-05	-1e-05	2
6942	-4e-05	-6e-05	2e-05	0.00015	4e-05	6e-05	3e-05	-1e-05	2
6943	-4e-05	-6e-05	2e-05	0.00015	4e-05	6e-05	3e-05	-1e-05	2
6944	-4e-05	-6e-05	2e-05	0.00015	4e-05	6e-05	3e-05	-1e-05	2
6945	-4e-05	-6e-05	2e-05	0.00015	4e-05	6e-05	3e-05	-1e-05	2
6946	-4e-05	-6e-05	2e-05	0.00015	4e-05	6e-05	3e-05	-1e-05	2
6947	-4e-05	-6e-05	2e-05	0.00015	4e-05	6e-05	3e-05	-1e-05	2
6948	-4e-05	-6e-05	2e-05	0.00015	4e-05	6e-05	3e-05	-1e-05	2
6949	-4e-05	-6e-05	2e-05	0.00015	4e-05	6e-05	3e-05	-1e-05	2
6950	-4e-05	-6e-05	2e-05	0.00015	4e-05	6e-05	3e-05	-1e-05	2
6951	-4e-05	-6e-05	2e-05	0.00015	4e-05	6e-05	3e-05	-1e-05	2
6952	-4e-05	-6e-05	2e-05	0.00015	4e-05	6e-05	3e-05	-1e-05	2
6953	-4e-05	-6e-05	2e-05	0.00015	4e-05	6e-05	3e-05	-1e-05	2
6954	-4e-05	-6e-05	2e-05	0.00015	4e-05	6e-05	3e-05	-1e-05	2
6955	-4e-05	-6e-05	2e-05	0.00015	4e-05	6e-05	3e-05	-1e-05	2
6956	4e-05	0.00011	-3e-05	-0.00018	-0.00012	0	2e-05	3e-05	2
6957	-1e-05	2e-05	-1e-05	0.00034	0.00019	4e-05	0.00017	4e-05	2
6958	-1e-05	-4e-05	-0.00018	-0.00058	-0.00012	1e-05	0.00017	-7e-05	2
6959	-1e-05	-4e-05	-0.00018	-0.00058	-0.00012	1e-05	0.00017	-7e-05	2
6960	-1e-05	-4e-05	-0.00018	-0.00058	-0.00012	1e-05	0.00017	-7e-05	2
6961	-1e-05	-4e-05	-0.00018	-0.00058	-0.00012	1e-05	0.00017	-7e-05	2
6962	-1e-05	-4e-05	-0.00018	-0.00058	-0.00012	1e-05	0.00017	-7e-05	2
6963	-1e-05	-4e-05	-0.00018	-0.00058	-0.00012	1e-05	0.00017	-7e-05	2
6964	-1e-05	-4e-05	-0.00018	-0.00058	-0.00012	1e-05	0.00017	-7e-05	2
6965	-1e-05	-4e-05	-0.00018	-0.00058	-0.00012	1e-05	0.00017	-7e-05	2
6966	-1e-05	-4e-05	-0.00018	-0.00058	-0.00012	1e-05	0.00017	-7e-05	2
6967	-1e-05	-4e-05	-0.00018	-0.00058	-0.00012	1e-05	0.00017	-7e-05	2
6968	-1e-05	-4e-05	-0.00018	-0.00058	-0.00012	1e-05	0.00017	-7e-05	2
6969	-1e-05	-4e-05	-0.00018	-0.00058	-0.00012	1e-05	0.00017	-7e-05	2
6970	-1e-05	-4e-05	-0.00018	-0.00058	-0.00012	1e-05	0.00017	-7e-05	2
6971	-1e-05	-4e-05	-0.00018	-0.00058	-0.00012	1e-05	0.00017	-7e-05	2
6972	-2e-05	6e-05	9e-05	0.0003	-5e-05	-2e-05	4e-05	7e-05	2
6973	-2e-05	6e-05	9e-05	0.0003	-5e-05	-2e-05	4e-05	7e-05	2
6974	-2e-05	6e-05	9e-05	0.0003	-5e-05	-2e-05	4e-05	7e-05	2
6975	-2e-05	6e-05	9e-05	0.0003	-5e-05	-2e-05	4e-05	7e-05	2
6976	-2e-05	6e-05	9e-05	0.0003	-5e-05	-2e-05	4e-05	7e-05	2
6977	-2e-05	6e-05	9e-05	0.0003	-5e-05	-2e-05	4e-05	7e-05	2
6978	6e-05	-3e-05	-2e-05	0.00015	7e-05	-3e-05	-0.00013	-1e-05	2
6979	6e-05	-3e-05	-2e-05	0.00015	7e-05	-3e-05	-0.00013	-1e-05	2
6980	6e-05	-3e-05	-2e-05	0.00015	7e-05	-3e-05	-0.00013	-1e-05	2
6981	6e-05	-3e-05	-2e-05	0.00015	7e-05	-3e-05	-0.00013	-1e-05	2
6982	6e-05	-3e-05	-2e-05	0.00015	7e-05	-3e-05	-0.00013	-1e-05	2
6983	6e-05	-3e-05	-2e-05	0.00015	7e-05	-3e-05	-0.00013	-1e-05	2
6984	6e-05	-3e-05	-2e-05	0.00015	7e-05	-3e-05	-0.00013	-1e-05	2
6985	6e-05	-3e-05	-2e-05	0.00015	7e-05	-3e-05	-0.00013	-1e-05	2
6986	6e-05	-3e-05	-2e-05	0.00015	7e-05	-3e-05	-0.00013	-1e-05	2
6988	6e-05	-3e-05	-2e-05	0.00015	7e-05	-3e-05	-0.00013	-1e-05	2
6989	6e-05	-3e-05	-2e-05	0.00015	7e-05	-3e-05	-0.00013	-1e-05	2
6990	6e-05	-3e-05	-2e-05	0.00015	7e-05	-3e-05	-0.00013	-1e-05	2
6991	6e-05	-3e-05	-2e-05	0.00015	7e-05	-3e-05	-0.00013	-1e-05	2
6992	6e-05	-3e-05	-2e-05	0.00015	7e-05	-3e-05	-0.00013	-1e-05	2
6993	6e-05	-3e-05	-2e-05	0.00015	7e-05	-3e-05	-0.00013	-1e-05	2
6994	-3e-05	0.0001	7e-05	0.0001	0	0	0.00013	3e-05	2
6995	-3e-05	0.0001	7e-05	0.0001	0	0	0.00013	3e-05	2
6996	-1e-05	0.00011	0.00016	0.00026	-8e-05	-4e-05	-9e-05	-1e-05	2
6997	-1e-05	0.00011	0.00016	0.00026	-8e-05	-4e-05	-9e-05	-1e-05	2
6998	-1e-05	0.00011	0.00016	0.00026	-8e-05	-4e-05	-9e-05	-1e-05	2
6999	-1e-05	0.00011	0.00016	0.00026	-8e-05	-4e-05	-9e-05	-1e-05	2
7000	-1e-05	0.00011	0.00016	0.00026	-8e-05	-4e-05	-9e-05	-1e-05	2
7001	-1e-05	0.00011	0.00016	0.00026	-8e-05	-4e-05	-9e-05	-1e-05	2
7002	-1e-05	0.00011	0.00016	0.00026	-8e-05	-4e-05	-9e-05	-1e-05	2
7003	-1e-05	0.00011	0.00016	0.00026	-8e-05	-4e-05	-9e-05	-1e-05	2
7004	-1e-05	0.00011	0.00016	0.00026	-8e-05	-4e-05	-9e-05	-1e-05	2
7005	-1e-05	0.00011	0.00016	0.00026	-8e-05	-4e-05	-9e-05	-1e-05	2
7006	-1e-05	0.00011	0.00016	0.00026	-8e-05	-4e-05	-9e-05	-1e-05	2
7007	-1e-05	0.00011	0.00016	0.00026	-8e-05	-4e-05	-9e-05	-1e-05	2
7008	-1e-05	0.00011	0.00016	0.00026	-8e-05	-4e-05	-9e-05	-1e-05	2
7009	-1e-05	0.00011	0.00016	0.00026	-8e-05	-4e-05	-9e-05	-1e-05	2
7010	-1e-05	0.00011	0.00016	0.00026	-8e-05	-4e-05	-9e-05	-1e-05	2
7011	-1e-05	0.00011	0.00016	0.00026	-8e-05	-4e-05	-9e-05	-1e-05	2
7012	-1e-05	0.00011	0.00016	0.00026	-8e-05	-4e-05	-9e-05	-1e-05	2
7013	-1e-05	0.00011	0.00016	0.00026	-8e-05	-4e-05	-9e-05	-1e-05	2
7014	-1e-05	0.00011	0.00016	0.00026	-8e-05	-4e-05	-9e-05	-1e-05	2
7015	-1e-05	0.00011	0.00016	0.00026	-8e-05	-4e-05	-9e-05	-1e-05	2
7016	-1e-05	0.00011	0.00016	0.00026	-8e-05	-4e-05	-9e-05	-1e-05	2
7017	-2e-05	6e-05	-1e-05	-0.00028	-0.00011	-1e-05	4e-05	4e-05	2
7018	0	1e-05	0.00011	0.00017	8e-05	7e-05	-0.00011	-2e-05	2
7019	0	1e-05	0.00011	0.00017	8e-05	7e-05	-0.00011	-2e-05	2
7021	0	1e-05	0.00011	0.00017	8e-05	7e-05	-0.00011	-2e-05	2
7022	0	1e-05	0.00011	0.00017	8e-05	7e-05	-0.00011	-2e-05	2
7023	0	1e-05	0.00011	0.00017	8e-05	7e-05	-0.00011	-2e-05	2
7024	0	1e-05	0.00011	0.00017	8e-05	7e-05	-0.00011	-2e-05	2
7025	0	1e-05	0.00011	0.00017	8e-05	7e-05	-0.00011	-2e-05	2
7026	0	1e-05	0.00011	0.00017	8e-05	7e-05	-0.00011	-2e-05	2
7027	0	1e-05	0.00011	0.00017	8e-05	7e-05	-0.00011	-2e-05	2
7028	0	1e-05	0.00011	0.00017	8e-05	7e-05	-0.00011	-2e-05	2
7029	0	1e-05	0.00011	0.00017	8e-05	7e-05	-0.00011	-2e-05	2
7030	0	1e-05	0.00011	0.00017	8e-05	7e-05	-0.00011	-2e-05	2
7031	2e-05	-2e-05	1e-05	-0.00023	-1e-05	-1e-05	7e-05	4e-05	2
7032	2e-05	-2e-05	1e-05	-0.00023	-1e-05	-1e-05	7e-05	4e-05	2
7033	2e-05	-2e-05	1e-05	-0.00023	-1e-05	-1e-05	7e-05	4e-05	2
7034	2e-05	-2e-05	1e-05	-0.00023	-1e-05	-1e-05	7e-05	4e-05	2
7035	2e-05	-2e-05	1e-05	-0.00023	-1e-05	-1e-05	7e-05	4e-05	2
7036	2e-05	-2e-05	1e-05	-0.00023	-1e-05	-1e-05	7e-05	4e-05	2
7039	-5e-05	-0.00025	-0.00014	1e-05	-1e-05	-4e-05	6e-05	3e-05	2
7040	-5e-05	-0.00025	-0.00014	1e-05	-1e-05	-4e-05	6e-05	3e-05	2
7041	-5e-05	-0.00025	-0.00014	1e-05	-1e-05	-4e-05	6e-05	3e-05	2
7042	-5e-05	-0.00025	-0.00014	1e-05	-1e-05	-4e-05	6e-05	3e-05	2
7043	-5e-05	-0.00025	-0.00014	1e-05	-1e-05	-4e-05	6e-05	3e-05	2
7044	-5e-05	-0.00025	-0.00014	1e-05	-1e-05	-4e-05	6e-05	3e-05	2
7045	-5e-05	-0.00025	-0.00014	1e-05	-1e-05	-4e-05	6e-05	3e-05	2
7046	-5e-05	-0.00025	-0.00014	1e-05	-1e-05	-4e-05	6e-05	3e-05	2
7047	-5e-05	-0.00025	-0.00014	1e-05	-1e-05	-4e-05	6e-05	3e-05	2
7048	-5e-05	-0.00025	-0.00014	1e-05	-1e-05	-4e-05	6e-05	3e-05	2
7049	-5e-05	-0.00025	-0.00014	1e-05	-1e-05	-4e-05	6e-05	3e-05	2
7050	-5e-05	-0.00025	-0.00014	1e-05	-1e-05	-4e-05	6e-05	3e-05	2
7051	-5e-05	-0.00025	-0.00014	1e-05	-1e-05	-4e-05	6e-05	3e-05	2
7052	-5e-05	-0.00025	-0.00014	1e-05	-1e-05	-4e-05	6e-05	3e-05	2
7053	-5e-05	-0.00025	-0.00014	1e-05	-1e-05	-4e-05	6e-05	3e-05	2
7054	-5e-05	-0.00025	-0.00014	1e-05	-1e-05	-4e-05	6e-05	3e-05	2
7055	0.00011	0.0001	5e-05	0.00017	0.00014	5e-05	-1e-05	-2e-05	2
7056	6e-05	0.00013	1e-05	0.00021	4e-05	-5e-05	-0.00019	-2e-05	2
7057	6e-05	0.00013	1e-05	0.00021	4e-05	-5e-05	-0.00019	-2e-05	2
7058	6e-05	0.00013	1e-05	0.00021	4e-05	-5e-05	-0.00019	-2e-05	2
7059	6e-05	0.00013	1e-05	0.00021	4e-05	-5e-05	-0.00019	-2e-05	2
7060	6e-05	0.00013	1e-05	0.00021	4e-05	-5e-05	-0.00019	-2e-05	2
7061	6e-05	0.00013	1e-05	0.00021	4e-05	-5e-05	-0.00019	-2e-05	2
7062	6e-05	0.00013	1e-05	0.00021	4e-05	-5e-05	-0.00019	-2e-05	2
7063	6e-05	0.00013	1e-05	0.00021	4e-05	-5e-05	-0.00019	-2e-05	2
7064	6e-05	0.00013	1e-05	0.00021	4e-05	-5e-05	-0.00019	-2e-05	2
7065	6e-05	0.00013	1e-05	0.00021	4e-05	-5e-05	-0.00019	-2e-05	2
7066	6e-05	0.00013	1e-05	0.00021	4e-05	-5e-05	-0.00019	-2e-05	2
7067	6e-05	0.00013	1e-05	0.00021	4e-05	-5e-05	-0.00019	-2e-05	2
7068	6e-05	0.00013	1e-05	0.00021	4e-05	-5e-05	-0.00019	-2e-05	2
7069	6e-05	0.00013	1e-05	0.00021	4e-05	-5e-05	-0.00019	-2e-05	2
7070	6e-05	0.00013	1e-05	0.00021	4e-05	-5e-05	-0.00019	-2e-05	2
7071	6e-05	0.00013	1e-05	0.00021	4e-05	-5e-05	-0.00019	-2e-05	2
7072	6e-05	0.00013	1e-05	0.00021	4e-05	-5e-05	-0.00019	-2e-05	2
7073	6e-05	0.00013	1e-05	0.00021	4e-05	-5e-05	-0.00019	-2e-05	2
7074	6e-05	0.00013	1e-05	0.00021	4e-05	-5e-05	-0.00019	-2e-05	2
7075	6e-05	0.00013	1e-05	0.00021	4e-05	-5e-05	-0.00019	-2e-05	2
7076	5e-05	3e-05	6e-05	0.00057	7e-05	-0.00011	-0.00028	-0.00016	2
7077	5e-05	3e-05	6e-05	0.00057	7e-05	-0.00011	-0.00028	-0.00016	2
7078	-1e-05	-6e-05	-0.00013	-0.00019	0.0001	0	-1e-05	9e-05	2
7079	-1e-05	-6e-05	-0.00013	-0.00019	0.0001	0	-1e-05	9e-05	2
7080	-1e-05	-6e-05	-0.00013	-0.00019	0.0001	0	-1e-05	9e-05	2
7081	-1e-05	-6e-05	-0.00013	-0.00019	0.0001	0	-1e-05	9e-05	2
7082	-1e-05	-6e-05	-0.00013	-0.00019	0.0001	0	-1e-05	9e-05	2
7083	-1e-05	-6e-05	-0.00013	-0.00019	0.0001	0	-1e-05	9e-05	2
7084	-1e-05	-6e-05	-0.00013	-0.00019	0.0001	0	-1e-05	9e-05	2
7085	-1e-05	-6e-05	-0.00013	-0.00019	0.0001	0	-1e-05	9e-05	2
7086	-1e-05	-6e-05	-0.00013	-0.00019	0.0001	0	-1e-05	9e-05	2
7088	-1e-05	-6e-05	-0.00013	-0.00019	0.0001	0	-1e-05	9e-05	2
7090	-1e-05	-6e-05	-0.00013	-0.00019	0.0001	0	-1e-05	9e-05	2
7091	2e-05	0.00025	7e-05	0.00015	0.00013	5e-05	0.00011	6e-05	2
7092	2e-05	0.00025	7e-05	0.00015	0.00013	5e-05	0.00011	6e-05	2
7093	2e-05	0.00025	7e-05	0.00015	0.00013	5e-05	0.00011	6e-05	2
7094	2e-05	0.00025	7e-05	0.00015	0.00013	5e-05	0.00011	6e-05	2
7095	2e-05	0.00025	7e-05	0.00015	0.00013	5e-05	0.00011	6e-05	2
7096	2e-05	0.00025	7e-05	0.00015	0.00013	5e-05	0.00011	6e-05	2
7097	2e-05	0.00025	7e-05	0.00015	0.00013	5e-05	0.00011	6e-05	2
7098	0	3e-05	-8e-05	-0.00015	-3e-05	-6e-05	-0.00015	-7e-05	2
7099	0	3e-05	-8e-05	-0.00015	-3e-05	-6e-05	-0.00015	-7e-05	2
7100	0	3e-05	-8e-05	-0.00015	-3e-05	-6e-05	-0.00015	-7e-05	2
7101	0	3e-05	-8e-05	-0.00015	-3e-05	-6e-05	-0.00015	-7e-05	2
7102	0	3e-05	-8e-05	-0.00015	-3e-05	-6e-05	-0.00015	-7e-05	2
7103	0	3e-05	-8e-05	-0.00015	-3e-05	-6e-05	-0.00015	-7e-05	2
7104	0	3e-05	-8e-05	-0.00015	-3e-05	-6e-05	-0.00015	-7e-05	2
7105	0	3e-05	-8e-05	-0.00015	-3e-05	-6e-05	-0.00015	-7e-05	2
7106	0	3e-05	-8e-05	-0.00015	-3e-05	-6e-05	-0.00015	-7e-05	2
7107	0	3e-05	-8e-05	-0.00015	-3e-05	-6e-05	-0.00015	-7e-05	2
7108	0	3e-05	-8e-05	-0.00015	-3e-05	-6e-05	-0.00015	-7e-05	2
7109	0	3e-05	-8e-05	-0.00015	-3e-05	-6e-05	-0.00015	-7e-05	2
7110	0	3e-05	-8e-05	-0.00015	-3e-05	-6e-05	-0.00015	-7e-05	2
7111	0	3e-05	-8e-05	-0.00015	-3e-05	-6e-05	-0.00015	-7e-05	2
7112	0	3e-05	-8e-05	-0.00015	-3e-05	-6e-05	-0.00015	-7e-05	2
7113	0	3e-05	-8e-05	-0.00015	-3e-05	-6e-05	-0.00015	-7e-05	2
7114	-0.00012	3e-05	-0.00012	-0.0002	2e-05	4e-05	4e-05	-1e-05	2
7115	-0.00012	3e-05	-0.00012	-0.0002	2e-05	4e-05	4e-05	-1e-05	2
7116	3e-05	-2e-05	4e-05	-5e-05	-6e-05	1e-05	8e-05	1e-05	2
7117	3e-05	-2e-05	4e-05	-5e-05	-6e-05	1e-05	8e-05	1e-05	2
7118	3e-05	-2e-05	4e-05	-5e-05	-6e-05	1e-05	8e-05	1e-05	2
7119	3e-05	-2e-05	4e-05	-5e-05	-6e-05	1e-05	8e-05	1e-05	2
7120	3e-05	-2e-05	4e-05	-5e-05	-6e-05	1e-05	8e-05	1e-05	2
7121	3e-05	-2e-05	4e-05	-5e-05	-6e-05	1e-05	8e-05	1e-05	2
7122	3e-05	-2e-05	4e-05	-5e-05	-6e-05	1e-05	8e-05	1e-05	2
7123	3e-05	-2e-05	4e-05	-5e-05	-6e-05	1e-05	8e-05	1e-05	2
7124	3e-05	-2e-05	4e-05	-5e-05	-6e-05	1e-05	8e-05	1e-05	2
7125	3e-05	-2e-05	4e-05	-5e-05	-6e-05	1e-05	8e-05	1e-05	2
7126	3e-05	-2e-05	4e-05	-5e-05	-6e-05	1e-05	8e-05	1e-05	2
7127	3e-05	-2e-05	4e-05	-5e-05	-6e-05	1e-05	8e-05	1e-05	2
7128	3e-05	-2e-05	4e-05	-5e-05	-6e-05	1e-05	8e-05	1e-05	2
7129	3e-05	-2e-05	4e-05	-5e-05	-6e-05	1e-05	8e-05	1e-05	2
7130	3e-05	-2e-05	4e-05	-5e-05	-6e-05	1e-05	8e-05	1e-05	2
7131	3e-05	-2e-05	4e-05	-5e-05	-6e-05	1e-05	8e-05	1e-05	2
7132	3e-05	-2e-05	4e-05	-5e-05	-6e-05	1e-05	8e-05	1e-05	2
7133	3e-05	-2e-05	4e-05	-5e-05	-6e-05	1e-05	8e-05	1e-05	2
7134	3e-05	-2e-05	4e-05	-5e-05	-6e-05	1e-05	8e-05	1e-05	2
7135	3e-05	-2e-05	4e-05	-5e-05	-6e-05	1e-05	8e-05	1e-05	2
7136	-1e-05	-6e-05	6e-05	0.00026	-0.00015	-7e-05	-1e-05	-6e-05	2
7139	-0.00013	-0.00014	-1e-05	8e-05	0.00011	0	-0.00019	-9e-05	2
7140	-0.00013	-0.00014	-1e-05	8e-05	0.00011	0	-0.00019	-9e-05	2
7141	-0.00013	-0.00014	-1e-05	8e-05	0.00011	0	-0.00019	-9e-05	2
7142	-0.00013	-0.00014	-1e-05	8e-05	0.00011	0	-0.00019	-9e-05	2
7143	-0.00013	-0.00014	-1e-05	8e-05	0.00011	0	-0.00019	-9e-05	2
7144	-0.00013	-0.00014	-1e-05	8e-05	0.00011	0	-0.00019	-9e-05	2
7145	-0.00013	-0.00014	-1e-05	8e-05	0.00011	0	-0.00019	-9e-05	2
7146	-0.00013	-0.00014	-1e-05	8e-05	0.00011	0	-0.00019	-9e-05	2
7147	-0.00013	-0.00014	-1e-05	8e-05	0.00011	0	-0.00019	-9e-05	2
7148	-0.00013	-0.00014	-1e-05	8e-05	0.00011	0	-0.00019	-9e-05	2
7149	-0.00013	-0.00014	-1e-05	8e-05	0.00011	0	-0.00019	-9e-05	2
7150	-1e-05	-0.00011	-4e-05	0.00013	3e-05	2e-05	1e-05	-1e-05	2
7151	-1e-05	-0.00011	-4e-05	0.00013	3e-05	2e-05	1e-05	-1e-05	2
7152	-1e-05	-0.00011	-4e-05	0.00013	3e-05	2e-05	1e-05	-1e-05	2
7153	-1e-05	-0.00011	-4e-05	0.00013	3e-05	2e-05	1e-05	-1e-05	2
7154	-1e-05	-0.00011	-4e-05	0.00013	3e-05	2e-05	1e-05	-1e-05	2
7155	-1e-05	-0.00011	-4e-05	0.00013	3e-05	2e-05	1e-05	-1e-05	2
7156	-1e-05	-0.00011	-4e-05	0.00013	3e-05	2e-05	1e-05	-1e-05	2
7157	-1e-05	-0.00011	-4e-05	0.00013	3e-05	2e-05	1e-05	-1e-05	2
7158	-1e-05	-0.00011	-4e-05	0.00013	3e-05	2e-05	1e-05	-1e-05	2
7159	-4e-05	5e-05	9e-05	0.00021	-3e-05	1e-05	0.0001	-2e-05	2
7160	-4e-05	5e-05	9e-05	0.00021	-3e-05	1e-05	0.0001	-2e-05	2
7161	-4e-05	5e-05	9e-05	0.00021	-3e-05	1e-05	0.0001	-2e-05	2
7162	-4e-05	5e-05	9e-05	0.00021	-3e-05	1e-05	0.0001	-2e-05	2
7163	-4e-05	5e-05	9e-05	0.00021	-3e-05	1e-05	0.0001	-2e-05	2
7164	-4e-05	5e-05	9e-05	0.00021	-3e-05	1e-05	0.0001	-2e-05	2
7165	-4e-05	5e-05	9e-05	0.00021	-3e-05	1e-05	0.0001	-2e-05	2
7166	-4e-05	5e-05	9e-05	0.00021	-3e-05	1e-05	0.0001	-2e-05	2
7167	-4e-05	5e-05	9e-05	0.00021	-3e-05	1e-05	0.0001	-2e-05	2
7168	-4e-05	5e-05	9e-05	0.00021	-3e-05	1e-05	0.0001	-2e-05	2
7169	-4e-05	5e-05	9e-05	0.00021	-3e-05	1e-05	0.0001	-2e-05	2
7170	-4e-05	5e-05	9e-05	0.00021	-3e-05	1e-05	0.0001	-2e-05	2
7171	-4e-05	5e-05	9e-05	0.00021	-3e-05	1e-05	0.0001	-2e-05	2
7172	-4e-05	5e-05	9e-05	0.00021	-3e-05	1e-05	0.0001	-2e-05	2
7173	-4e-05	5e-05	9e-05	0.00021	-3e-05	1e-05	0.0001	-2e-05	2
7174	-1e-05	1e-05	9e-05	0.00042	-3e-05	-3e-05	-5e-05	-5e-05	2
7175	-7e-05	-0.00014	-0.00036	-0.00046	0.00013	1e-05	-2e-05	2e-05	2
7176	-2e-05	1e-05	-4e-05	-6e-05	-0.00017	-3e-05	-9e-05	-4e-05	2
7177	-2e-05	1e-05	-4e-05	-6e-05	-0.00017	-3e-05	-9e-05	-4e-05	2
7178	-2e-05	1e-05	-4e-05	-6e-05	-0.00017	-3e-05	-9e-05	-4e-05	2
7179	-2e-05	1e-05	-4e-05	-6e-05	-0.00017	-3e-05	-9e-05	-4e-05	2
7180	-2e-05	1e-05	-4e-05	-6e-05	-0.00017	-3e-05	-9e-05	-4e-05	2
7181	-2e-05	1e-05	-4e-05	-6e-05	-0.00017	-3e-05	-9e-05	-4e-05	2
7182	-2e-05	1e-05	-4e-05	-6e-05	-0.00017	-3e-05	-9e-05	-4e-05	2
7183	-2e-05	1e-05	-4e-05	-6e-05	-0.00017	-3e-05	-9e-05	-4e-05	2
7184	-2e-05	1e-05	-4e-05	-6e-05	-0.00017	-3e-05	-9e-05	-4e-05	2
7185	-2e-05	1e-05	-4e-05	-6e-05	-0.00017	-3e-05	-9e-05	-4e-05	2
7186	-2e-05	1e-05	-4e-05	-6e-05	-0.00017	-3e-05	-9e-05	-4e-05	2
7189	-2e-05	1e-05	-4e-05	-6e-05	-0.00017	-3e-05	-9e-05	-4e-05	2
7190	-2e-05	1e-05	-4e-05	-6e-05	-0.00017	-3e-05	-9e-05	-4e-05	2
7191	-2e-05	1e-05	-4e-05	-6e-05	-0.00017	-3e-05	-9e-05	-4e-05	2
7192	-2e-05	1e-05	-4e-05	-6e-05	-0.00017	-3e-05	-9e-05	-4e-05	2
7193	-2e-05	1e-05	-4e-05	-6e-05	-0.00017	-3e-05	-9e-05	-4e-05	2
7194	-2e-05	1e-05	-4e-05	-6e-05	-0.00017	-3e-05	-9e-05	-4e-05	2
7195	-2e-05	1e-05	-4e-05	-6e-05	-0.00017	-3e-05	-9e-05	-4e-05	2
7196	0	8e-05	3e-05	0.00012	-3e-05	-4e-05	-0.00012	1e-05	2
7197	-5e-05	-0.00015	-7e-05	-0.00019	-8e-05	1e-05	0.00014	-3e-05	2
7198	-5e-05	-0.0001	-7e-05	-0.00013	-6e-05	-3e-05	7e-05	3e-05	2
7199	-5e-05	-0.0001	-7e-05	-0.00013	-6e-05	-3e-05	7e-05	3e-05	2
7200	-5e-05	-0.0001	-7e-05	-0.00013	-6e-05	-3e-05	7e-05	3e-05	2
7201	-5e-05	-0.0001	-7e-05	-0.00013	-6e-05	-3e-05	7e-05	3e-05	2
7202	-5e-05	-0.0001	-7e-05	-0.00013	-6e-05	-3e-05	7e-05	3e-05	2
7203	-5e-05	-0.0001	-7e-05	-0.00013	-6e-05	-3e-05	7e-05	3e-05	2
7204	-5e-05	-0.0001	-7e-05	-0.00013	-6e-05	-3e-05	7e-05	3e-05	2
7205	-5e-05	-0.0001	-7e-05	-0.00013	-6e-05	-3e-05	7e-05	3e-05	2
7206	-5e-05	-0.0001	-7e-05	-0.00013	-6e-05	-3e-05	7e-05	3e-05	2
7207	-5e-05	-0.0001	-7e-05	-0.00013	-6e-05	-3e-05	7e-05	3e-05	2
7208	-5e-05	-0.0001	-7e-05	-0.00013	-6e-05	-3e-05	7e-05	3e-05	2
7209	-5e-05	-0.0001	-7e-05	-0.00013	-6e-05	-3e-05	7e-05	3e-05	2
7210	-1e-05	-2e-05	9e-05	0.00029	6e-05	-5e-05	-0.00017	2e-05	2
7211	-1e-05	-2e-05	9e-05	0.00029	6e-05	-5e-05	-0.00017	2e-05	2
7212	-1e-05	-2e-05	9e-05	0.00029	6e-05	-5e-05	-0.00017	2e-05	2
7213	-1e-05	-2e-05	9e-05	0.00029	6e-05	-5e-05	-0.00017	2e-05	2
7214	-1e-05	-2e-05	9e-05	0.00029	6e-05	-5e-05	-0.00017	2e-05	2
7215	-1e-05	-2e-05	9e-05	0.00029	6e-05	-5e-05	-0.00017	2e-05	2
7216	-1e-05	-2e-05	9e-05	0.00029	6e-05	-5e-05	-0.00017	2e-05	2
7217	-1e-05	-2e-05	9e-05	0.00029	6e-05	-5e-05	-0.00017	2e-05	2
7218	-1e-05	-2e-05	9e-05	0.00029	6e-05	-5e-05	-0.00017	2e-05	2
7219	6e-05	0.00018	6e-05	-4e-05	1e-05	-4e-05	0	3e-05	2
7220	6e-05	0.00018	6e-05	-4e-05	1e-05	-4e-05	0	3e-05	2
7221	6e-05	0.00018	6e-05	-4e-05	1e-05	-4e-05	0	3e-05	2
7222	6e-05	0.00018	6e-05	-4e-05	1e-05	-4e-05	0	3e-05	2
7223	6e-05	0.00018	6e-05	-4e-05	1e-05	-4e-05	0	3e-05	2
7224	6e-05	0.00018	6e-05	-4e-05	1e-05	-4e-05	0	3e-05	2
7225	6e-05	0.00018	6e-05	-4e-05	1e-05	-4e-05	0	3e-05	2
7226	6e-05	0.00018	6e-05	-4e-05	1e-05	-4e-05	0	3e-05	2
7227	6e-05	0.00018	6e-05	-4e-05	1e-05	-4e-05	0	3e-05	2
7228	6e-05	0.00018	6e-05	-4e-05	1e-05	-4e-05	0	3e-05	2
7229	6e-05	0.00018	6e-05	-4e-05	1e-05	-4e-05	0	3e-05	2
7230	6e-05	0.00018	6e-05	-4e-05	1e-05	-4e-05	0	3e-05	2
7231	6e-05	0.00018	6e-05	-4e-05	1e-05	-4e-05	0	3e-05	2
7232	6e-05	0.00018	6e-05	-4e-05	1e-05	-4e-05	0	3e-05	2
7233	6e-05	0.00018	6e-05	-4e-05	1e-05	-4e-05	0	3e-05	2
7234	-0.00011	-0.00023	-0.00019	-0.00079	3e-05	5e-05	4e-05	-3e-05	2
7235	-0.00011	-0.00023	-0.00019	-0.00079	3e-05	5e-05	4e-05	-3e-05	2
7236	-3e-05	-8e-05	-7e-05	-0.00027	-0.00019	-1e-05	-7e-05	6e-05	2
7239	-3e-05	-8e-05	-7e-05	-0.00027	-0.00019	-1e-05	-7e-05	6e-05	2
7240	-3e-05	-8e-05	-7e-05	-0.00027	-0.00019	-1e-05	-7e-05	6e-05	2
7241	-3e-05	-8e-05	-7e-05	-0.00027	-0.00019	-1e-05	-7e-05	6e-05	2
7242	-3e-05	-8e-05	-7e-05	-0.00027	-0.00019	-1e-05	-7e-05	6e-05	2
7243	-3e-05	-8e-05	-7e-05	-0.00027	-0.00019	-1e-05	-7e-05	6e-05	2
7244	-3e-05	-8e-05	-7e-05	-0.00027	-0.00019	-1e-05	-7e-05	6e-05	2
7245	-3e-05	-8e-05	-7e-05	-0.00027	-0.00019	-1e-05	-7e-05	6e-05	2
7246	-3e-05	-8e-05	-7e-05	-0.00027	-0.00019	-1e-05	-7e-05	6e-05	2
7247	-3e-05	-8e-05	-7e-05	-0.00027	-0.00019	-1e-05	-7e-05	6e-05	2
7248	-3e-05	-8e-05	-7e-05	-0.00027	-0.00019	-1e-05	-7e-05	6e-05	2
7249	-3e-05	-8e-05	-7e-05	-0.00027	-0.00019	-1e-05	-7e-05	6e-05	2
7250	-3e-05	-8e-05	-7e-05	-0.00027	-0.00019	-1e-05	-7e-05	6e-05	2
7251	-3e-05	-8e-05	-7e-05	-0.00027	-0.00019	-1e-05	-7e-05	6e-05	2
7252	-3e-05	-8e-05	-7e-05	-0.00027	-0.00019	-1e-05	-7e-05	6e-05	2
7253	-3e-05	-8e-05	-7e-05	-0.00027	-0.00019	-1e-05	-7e-05	6e-05	2
7254	-3e-05	-8e-05	-7e-05	-0.00027	-0.00019	-1e-05	-7e-05	6e-05	2
7255	-3e-05	-8e-05	-7e-05	-0.00027	-0.00019	-1e-05	-7e-05	6e-05	2
7256	1e-05	-7e-05	5e-05	1e-05	0	-2e-05	-6e-05	2e-05	2
7257	6e-05	0.00012	-5e-05	-9e-05	4e-05	4e-05	-0.0001	-1e-05	2
7258	0	-4e-05	4e-05	0.00031	1e-05	-1e-05	4e-05	-1e-05	2
7259	0	-4e-05	4e-05	0.00031	1e-05	-1e-05	4e-05	-1e-05	2
7260	0	-4e-05	4e-05	0.00031	1e-05	-1e-05	4e-05	-1e-05	2
7261	0	-4e-05	4e-05	0.00031	1e-05	-1e-05	4e-05	-1e-05	2
7262	0	-4e-05	4e-05	0.00031	1e-05	-1e-05	4e-05	-1e-05	2
7263	0	-4e-05	4e-05	0.00031	1e-05	-1e-05	4e-05	-1e-05	2
7264	0	-4e-05	4e-05	0.00031	1e-05	-1e-05	4e-05	-1e-05	2
7265	0	-4e-05	4e-05	0.00031	1e-05	-1e-05	4e-05	-1e-05	2
7266	0	-4e-05	4e-05	0.00031	1e-05	-1e-05	4e-05	-1e-05	2
7267	0	-4e-05	4e-05	0.00031	1e-05	-1e-05	4e-05	-1e-05	2
7268	0	-4e-05	4e-05	0.00031	1e-05	-1e-05	4e-05	-1e-05	2
7269	0	-4e-05	4e-05	0.00031	1e-05	-1e-05	4e-05	-1e-05	2
7270	4e-05	-3e-05	1e-05	6e-05	6e-05	-1e-05	-6e-05	2e-05	2
7271	4e-05	-3e-05	1e-05	6e-05	6e-05	-1e-05	-6e-05	2e-05	2
7272	4e-05	-3e-05	1e-05	6e-05	6e-05	-1e-05	-6e-05	2e-05	2
7273	4e-05	-3e-05	1e-05	6e-05	6e-05	-1e-05	-6e-05	2e-05	2
7274	4e-05	-3e-05	1e-05	6e-05	6e-05	-1e-05	-6e-05	2e-05	2
7275	4e-05	-3e-05	1e-05	6e-05	6e-05	-1e-05	-6e-05	2e-05	2
7276	4e-05	-3e-05	1e-05	6e-05	6e-05	-1e-05	-6e-05	2e-05	2
7277	4e-05	-3e-05	1e-05	6e-05	6e-05	-1e-05	-6e-05	2e-05	2
7278	4e-05	-3e-05	1e-05	6e-05	6e-05	-1e-05	-6e-05	2e-05	2
7279	2e-05	5e-05	0.00013	0.0004	0.00011	1e-05	5e-05	-2e-05	2
7280	2e-05	5e-05	0.00013	0.0004	0.00011	1e-05	5e-05	-2e-05	2
7281	2e-05	5e-05	0.00013	0.0004	0.00011	1e-05	5e-05	-2e-05	2
7282	2e-05	5e-05	0.00013	0.0004	0.00011	1e-05	5e-05	-2e-05	2
7283	2e-05	5e-05	0.00013	0.0004	0.00011	1e-05	5e-05	-2e-05	2
7284	2e-05	5e-05	0.00013	0.0004	0.00011	1e-05	5e-05	-2e-05	2
7285	2e-05	5e-05	0.00013	0.0004	0.00011	1e-05	5e-05	-2e-05	2
7286	2e-05	5e-05	0.00013	0.0004	0.00011	1e-05	5e-05	-2e-05	2
7289	2e-05	5e-05	0.00013	0.0004	0.00011	1e-05	5e-05	-2e-05	2
7290	2e-05	5e-05	0.00013	0.0004	0.00011	1e-05	5e-05	-2e-05	2
7291	2e-05	5e-05	0.00013	0.0004	0.00011	1e-05	5e-05	-2e-05	2
7292	2e-05	5e-05	0.00013	0.0004	0.00011	1e-05	5e-05	-2e-05	2
7293	2e-05	5e-05	0.00013	0.0004	0.00011	1e-05	5e-05	-2e-05	2
7294	8e-05	6e-05	7e-05	0.00012	0	5e-05	0.00035	7e-05	2
7295	8e-05	6e-05	7e-05	0.00012	0	5e-05	0.00035	7e-05	2
7296	6e-05	9e-05	4e-05	0.00013	4e-05	2e-05	1e-05	1e-05	2
7297	6e-05	9e-05	4e-05	0.00013	4e-05	2e-05	1e-05	1e-05	2
7298	6e-05	9e-05	4e-05	0.00013	4e-05	2e-05	1e-05	1e-05	2
7299	6e-05	9e-05	4e-05	0.00013	4e-05	2e-05	1e-05	1e-05	2
7300	6e-05	9e-05	4e-05	0.00013	4e-05	2e-05	1e-05	1e-05	2
7301	6e-05	9e-05	4e-05	0.00013	4e-05	2e-05	1e-05	1e-05	2
7302	6e-05	9e-05	4e-05	0.00013	4e-05	2e-05	1e-05	1e-05	2
7303	6e-05	9e-05	4e-05	0.00013	4e-05	2e-05	1e-05	1e-05	2
7304	6e-05	9e-05	4e-05	0.00013	4e-05	2e-05	1e-05	1e-05	2
7305	6e-05	9e-05	4e-05	0.00013	4e-05	2e-05	1e-05	1e-05	2
7306	6e-05	9e-05	4e-05	0.00013	4e-05	2e-05	1e-05	1e-05	2
7307	6e-05	9e-05	4e-05	0.00013	4e-05	2e-05	1e-05	1e-05	2
7308	6e-05	9e-05	4e-05	0.00013	4e-05	2e-05	1e-05	1e-05	2
7309	6e-05	9e-05	4e-05	0.00013	4e-05	2e-05	1e-05	1e-05	2
7310	6e-05	9e-05	4e-05	0.00013	4e-05	2e-05	1e-05	1e-05	2
7311	6e-05	9e-05	4e-05	0.00013	4e-05	2e-05	1e-05	1e-05	2
7312	6e-05	9e-05	4e-05	0.00013	4e-05	2e-05	1e-05	1e-05	2
7313	6e-05	9e-05	4e-05	0.00013	4e-05	2e-05	1e-05	1e-05	2
7314	6e-05	9e-05	4e-05	0.00013	4e-05	2e-05	1e-05	1e-05	2
7315	6e-05	9e-05	4e-05	0.00013	4e-05	2e-05	1e-05	1e-05	2
7316	-2e-05	0	-4e-05	-9e-05	-1e-05	-1e-05	-0.00015	-1e-05	2
7317	-2e-05	0	-4e-05	-9e-05	-1e-05	-1e-05	-0.00015	-1e-05	2
7318	3e-05	-3e-05	3e-05	9e-05	0.00011	0	9e-05	0	2
7319	3e-05	-3e-05	3e-05	9e-05	0.00011	0	9e-05	0	2
7320	3e-05	-3e-05	3e-05	9e-05	0.00011	0	9e-05	0	2
7321	3e-05	-3e-05	3e-05	9e-05	0.00011	0	9e-05	0	2
7322	3e-05	-3e-05	3e-05	9e-05	0.00011	0	9e-05	0	2
7323	3e-05	-3e-05	3e-05	9e-05	0.00011	0	9e-05	0	2
7324	3e-05	-3e-05	3e-05	9e-05	0.00011	0	9e-05	0	2
7325	3e-05	-3e-05	3e-05	9e-05	0.00011	0	9e-05	0	2
7326	3e-05	-3e-05	3e-05	9e-05	0.00011	0	9e-05	0	2
7327	3e-05	-3e-05	3e-05	9e-05	0.00011	0	9e-05	0	2
7328	3e-05	-3e-05	3e-05	9e-05	0.00011	0	9e-05	0	2
7329	3e-05	-3e-05	3e-05	9e-05	0.00011	0	9e-05	0	2
7330	3e-05	-3e-05	3e-05	9e-05	0.00011	0	9e-05	0	2
7331	-2e-05	-1e-05	-2e-05	-0.00032	-0.00018	-7e-05	-5e-05	-5e-05	2
7332	-2e-05	-1e-05	-2e-05	-0.00032	-0.00018	-7e-05	-5e-05	-5e-05	2
7333	-2e-05	-1e-05	-2e-05	-0.00032	-0.00018	-7e-05	-5e-05	-5e-05	2
7334	-2e-05	-1e-05	-2e-05	-0.00032	-0.00018	-7e-05	-5e-05	-5e-05	2
7335	-2e-05	-1e-05	-2e-05	-0.00032	-0.00018	-7e-05	-5e-05	-5e-05	2
7336	-2e-05	-1e-05	-2e-05	-0.00032	-0.00018	-7e-05	-5e-05	-5e-05	2
7338	-2e-05	-1e-05	-2e-05	-0.00032	-0.00018	-7e-05	-5e-05	-5e-05	2
7339	-6e-05	-7e-05	-7e-05	-0.0001	2e-05	-4e-05	-6e-05	-3e-05	2
7340	-6e-05	-7e-05	-7e-05	-0.0001	2e-05	-4e-05	-6e-05	-3e-05	2
7341	-6e-05	-7e-05	-7e-05	-0.0001	2e-05	-4e-05	-6e-05	-3e-05	2
7342	-6e-05	-7e-05	-7e-05	-0.0001	2e-05	-4e-05	-6e-05	-3e-05	2
7343	-6e-05	-7e-05	-7e-05	-0.0001	2e-05	-4e-05	-6e-05	-3e-05	2
7344	-6e-05	-7e-05	-7e-05	-0.0001	2e-05	-4e-05	-6e-05	-3e-05	2
7345	-6e-05	-7e-05	-7e-05	-0.0001	2e-05	-4e-05	-6e-05	-3e-05	2
7346	-6e-05	-7e-05	-7e-05	-0.0001	2e-05	-4e-05	-6e-05	-3e-05	2
7347	-6e-05	-7e-05	-7e-05	-0.0001	2e-05	-4e-05	-6e-05	-3e-05	2
7348	-6e-05	-7e-05	-7e-05	-0.0001	2e-05	-4e-05	-6e-05	-3e-05	2
7349	-6e-05	-7e-05	-7e-05	-0.0001	2e-05	-4e-05	-6e-05	-3e-05	2
7350	-6e-05	-7e-05	-7e-05	-0.0001	2e-05	-4e-05	-6e-05	-3e-05	2
7351	-6e-05	-7e-05	-7e-05	-0.0001	2e-05	-4e-05	-6e-05	-3e-05	2
7352	-6e-05	-7e-05	-7e-05	-0.0001	2e-05	-4e-05	-6e-05	-3e-05	2
7353	-6e-05	-7e-05	-7e-05	-0.0001	2e-05	-4e-05	-6e-05	-3e-05	2
7354	5e-05	-3e-05	2e-05	0.0001	-1e-05	-1e-05	-0.00014	-2e-05	2
7355	-5e-05	4e-05	0.00012	0.00023	2e-05	-4e-05	-5e-05	-3e-05	2
7356	7e-05	1e-05	-4e-05	-0.00022	0	9e-05	0.00013	0.00011	2
7357	7e-05	1e-05	-4e-05	-0.00022	0	9e-05	0.00013	0.00011	2
7358	7e-05	1e-05	-4e-05	-0.00022	0	9e-05	0.00013	0.00011	2
7359	7e-05	1e-05	-4e-05	-0.00022	0	9e-05	0.00013	0.00011	2
7360	7e-05	1e-05	-4e-05	-0.00022	0	9e-05	0.00013	0.00011	2
7361	7e-05	1e-05	-4e-05	-0.00022	0	9e-05	0.00013	0.00011	2
7362	7e-05	1e-05	-4e-05	-0.00022	0	9e-05	0.00013	0.00011	2
7363	7e-05	1e-05	-4e-05	-0.00022	0	9e-05	0.00013	0.00011	2
7364	7e-05	1e-05	-4e-05	-0.00022	0	9e-05	0.00013	0.00011	2
7365	7e-05	1e-05	-4e-05	-0.00022	0	9e-05	0.00013	0.00011	2
7366	7e-05	1e-05	-4e-05	-0.00022	0	9e-05	0.00013	0.00011	2
7367	7e-05	1e-05	-4e-05	-0.00022	0	9e-05	0.00013	0.00011	2
7368	7e-05	1e-05	-4e-05	-0.00022	0	9e-05	0.00013	0.00011	2
7369	7e-05	1e-05	-4e-05	-0.00022	0	9e-05	0.00013	0.00011	2
7370	7e-05	1e-05	-4e-05	-0.00022	0	9e-05	0.00013	0.00011	2
7371	7e-05	1e-05	-4e-05	-0.00022	0	9e-05	0.00013	0.00011	2
7372	7e-05	1e-05	-4e-05	-0.00022	0	9e-05	0.00013	0.00011	2
7373	7e-05	1e-05	-4e-05	-0.00022	0	9e-05	0.00013	0.00011	2
7374	7e-05	1e-05	-4e-05	-0.00022	0	9e-05	0.00013	0.00011	2
7375	7e-05	1e-05	-4e-05	-0.00022	0	9e-05	0.00013	0.00011	2
7376	-8e-05	-0.00022	-4e-05	1e-05	-9e-05	1e-05	7e-05	2e-05	2
7377	-8e-05	-0.00022	-4e-05	1e-05	-9e-05	1e-05	7e-05	2e-05	2
7378	-8e-05	0.0001	-3e-05	9e-05	-8e-05	-3e-05	0.00015	0	2
7379	-8e-05	0.0001	-3e-05	9e-05	-8e-05	-3e-05	0.00015	0	2
7380	-8e-05	0.0001	-3e-05	9e-05	-8e-05	-3e-05	0.00015	0	2
7381	-8e-05	0.0001	-3e-05	9e-05	-8e-05	-3e-05	0.00015	0	2
7382	-8e-05	0.0001	-3e-05	9e-05	-8e-05	-3e-05	0.00015	0	2
7383	-8e-05	0.0001	-3e-05	9e-05	-8e-05	-3e-05	0.00015	0	2
7384	-8e-05	0.0001	-3e-05	9e-05	-8e-05	-3e-05	0.00015	0	2
7385	-8e-05	0.0001	-3e-05	9e-05	-8e-05	-3e-05	0.00015	0	2
7386	-8e-05	0.0001	-3e-05	9e-05	-8e-05	-3e-05	0.00015	0	2
7388	-8e-05	0.0001	-3e-05	9e-05	-8e-05	-3e-05	0.00015	0	2
7389	-8e-05	0.0001	-3e-05	9e-05	-8e-05	-3e-05	0.00015	0	2
7390	-3e-05	-4e-05	-5e-05	4e-05	2e-05	-1e-05	-5e-05	-1e-05	2
7391	-3e-05	-4e-05	-5e-05	4e-05	2e-05	-1e-05	-5e-05	-1e-05	2
7392	-3e-05	-4e-05	-5e-05	4e-05	2e-05	-1e-05	-5e-05	-1e-05	2
7393	-3e-05	-4e-05	-5e-05	4e-05	2e-05	-1e-05	-5e-05	-1e-05	2
7394	-3e-05	-4e-05	-5e-05	4e-05	2e-05	-1e-05	-5e-05	-1e-05	2
7395	-3e-05	-4e-05	-5e-05	4e-05	2e-05	-1e-05	-5e-05	-1e-05	2
7396	-3e-05	-4e-05	-5e-05	4e-05	2e-05	-1e-05	-5e-05	-1e-05	2
7397	-3e-05	-4e-05	-5e-05	4e-05	2e-05	-1e-05	-5e-05	-1e-05	2
7398	-3e-05	-4e-05	-5e-05	4e-05	2e-05	-1e-05	-5e-05	-1e-05	2
7399	7e-05	0.00025	-4e-05	-2e-05	-9e-05	-6e-05	-0.00025	-2e-05	2
7400	7e-05	0.00025	-4e-05	-2e-05	-9e-05	-6e-05	-0.00025	-2e-05	2
7401	7e-05	0.00025	-4e-05	-2e-05	-9e-05	-6e-05	-0.00025	-2e-05	2
7402	7e-05	0.00025	-4e-05	-2e-05	-9e-05	-6e-05	-0.00025	-2e-05	2
7403	7e-05	0.00025	-4e-05	-2e-05	-9e-05	-6e-05	-0.00025	-2e-05	2
7404	7e-05	0.00025	-4e-05	-2e-05	-9e-05	-6e-05	-0.00025	-2e-05	2
7405	7e-05	0.00025	-4e-05	-2e-05	-9e-05	-6e-05	-0.00025	-2e-05	2
7406	7e-05	0.00025	-4e-05	-2e-05	-9e-05	-6e-05	-0.00025	-2e-05	2
7407	7e-05	0.00025	-4e-05	-2e-05	-9e-05	-6e-05	-0.00025	-2e-05	2
7408	7e-05	0.00025	-4e-05	-2e-05	-9e-05	-6e-05	-0.00025	-2e-05	2
7409	7e-05	0.00025	-4e-05	-2e-05	-9e-05	-6e-05	-0.00025	-2e-05	2
7410	7e-05	0.00025	-4e-05	-2e-05	-9e-05	-6e-05	-0.00025	-2e-05	2
7411	7e-05	0.00025	-4e-05	-2e-05	-9e-05	-6e-05	-0.00025	-2e-05	2
7412	7e-05	0.00025	-4e-05	-2e-05	-9e-05	-6e-05	-0.00025	-2e-05	2
7413	7e-05	0.00025	-4e-05	-2e-05	-9e-05	-6e-05	-0.00025	-2e-05	2
7414	-4e-05	5e-05	0.0001	0.0003	-3e-05	2e-05	-5e-05	-3e-05	2
7415	-6e-05	1e-05	6e-05	0.0003	-1e-05	2e-05	2e-05	0	2
7416	-4e-05	-0.00011	-0.00017	-0.00061	3e-05	5e-05	-8e-05	-6e-05	2
7417	-4e-05	-0.00011	-0.00017	-0.00061	3e-05	5e-05	-8e-05	-6e-05	2
7418	-4e-05	-0.00011	-0.00017	-0.00061	3e-05	5e-05	-8e-05	-6e-05	2
7419	-4e-05	-0.00011	-0.00017	-0.00061	3e-05	5e-05	-8e-05	-6e-05	2
7420	-4e-05	-0.00011	-0.00017	-0.00061	3e-05	5e-05	-8e-05	-6e-05	2
7421	-4e-05	-0.00011	-0.00017	-0.00061	3e-05	5e-05	-8e-05	-6e-05	2
7422	-4e-05	-0.00011	-0.00017	-0.00061	3e-05	5e-05	-8e-05	-6e-05	2
7423	-4e-05	-0.00011	-0.00017	-0.00061	3e-05	5e-05	-8e-05	-6e-05	2
7424	-4e-05	-0.00011	-0.00017	-0.00061	3e-05	5e-05	-8e-05	-6e-05	2
7425	-4e-05	-0.00011	-0.00017	-0.00061	3e-05	5e-05	-8e-05	-6e-05	2
7426	-4e-05	-0.00011	-0.00017	-0.00061	3e-05	5e-05	-8e-05	-6e-05	2
7427	-4e-05	-0.00011	-0.00017	-0.00061	3e-05	5e-05	-8e-05	-6e-05	2
7428	-4e-05	-0.00011	-0.00017	-0.00061	3e-05	5e-05	-8e-05	-6e-05	2
7429	-4e-05	-0.00011	-0.00017	-0.00061	3e-05	5e-05	-8e-05	-6e-05	2
7430	-4e-05	-0.00011	-0.00017	-0.00061	3e-05	5e-05	-8e-05	-6e-05	2
7431	-4e-05	-0.00011	-0.00017	-0.00061	3e-05	5e-05	-8e-05	-6e-05	2
7432	-4e-05	-0.00011	-0.00017	-0.00061	3e-05	5e-05	-8e-05	-6e-05	2
7433	-4e-05	-0.00011	-0.00017	-0.00061	3e-05	5e-05	-8e-05	-6e-05	2
7434	-4e-05	-0.00011	-0.00017	-0.00061	3e-05	5e-05	-8e-05	-6e-05	2
7435	-4e-05	-0.00011	-0.00017	-0.00061	3e-05	5e-05	-8e-05	-6e-05	2
7436	6e-05	-1e-05	0	0.00012	7e-05	1e-05	-1e-05	2e-05	2
7438	-4e-05	-5e-05	0.0001	0.00048	1e-05	-3e-05	-2e-05	-5e-05	2
7439	-4e-05	-5e-05	0.0001	0.00048	1e-05	-3e-05	-2e-05	-5e-05	2
7440	-4e-05	-5e-05	0.0001	0.00048	1e-05	-3e-05	-2e-05	-5e-05	2
7441	-4e-05	-5e-05	0.0001	0.00048	1e-05	-3e-05	-2e-05	-5e-05	2
7442	-4e-05	-5e-05	0.0001	0.00048	1e-05	-3e-05	-2e-05	-5e-05	2
7443	-4e-05	-5e-05	0.0001	0.00048	1e-05	-3e-05	-2e-05	-5e-05	2
7444	-4e-05	-5e-05	0.0001	0.00048	1e-05	-3e-05	-2e-05	-5e-05	2
7445	-4e-05	-5e-05	0.0001	0.00048	1e-05	-3e-05	-2e-05	-5e-05	2
7446	-4e-05	-5e-05	0.0001	0.00048	1e-05	-3e-05	-2e-05	-5e-05	2
7447	-4e-05	-5e-05	0.0001	0.00048	1e-05	-3e-05	-2e-05	-5e-05	2
7448	-4e-05	-5e-05	0.0001	0.00048	1e-05	-3e-05	-2e-05	-5e-05	2
7449	-4e-05	-5e-05	0.0001	0.00048	1e-05	-3e-05	-2e-05	-5e-05	2
7450	7e-05	0.00017	1e-05	-0.0001	-1e-05	5e-05	9e-05	5e-05	2
7451	7e-05	0.00017	1e-05	-0.0001	-1e-05	5e-05	9e-05	5e-05	2
7452	7e-05	0.00017	1e-05	-0.0001	-1e-05	5e-05	9e-05	5e-05	2
7453	7e-05	0.00017	1e-05	-0.0001	-1e-05	5e-05	9e-05	5e-05	2
7454	7e-05	0.00017	1e-05	-0.0001	-1e-05	5e-05	9e-05	5e-05	2
7455	7e-05	0.00017	1e-05	-0.0001	-1e-05	5e-05	9e-05	5e-05	2
7456	7e-05	0.00017	1e-05	-0.0001	-1e-05	5e-05	9e-05	5e-05	2
7457	7e-05	0.00017	1e-05	-0.0001	-1e-05	5e-05	9e-05	5e-05	2
7458	7e-05	0.00017	1e-05	-0.0001	-1e-05	5e-05	9e-05	5e-05	2
7459	-0.00013	-0.00031	-6e-05	4e-05	8e-05	1e-05	-0.00013	-0.00016	2
7460	-0.00013	-0.00031	-6e-05	4e-05	8e-05	1e-05	-0.00013	-0.00016	2
7461	-0.00013	-0.00031	-6e-05	4e-05	8e-05	1e-05	-0.00013	-0.00016	2
7462	-0.00013	-0.00031	-6e-05	4e-05	8e-05	1e-05	-0.00013	-0.00016	2
7463	-0.00013	-0.00031	-6e-05	4e-05	8e-05	1e-05	-0.00013	-0.00016	2
7464	-0.00013	-0.00031	-6e-05	4e-05	8e-05	1e-05	-0.00013	-0.00016	2
7465	-0.00013	-0.00031	-6e-05	4e-05	8e-05	1e-05	-0.00013	-0.00016	2
7466	-0.00013	-0.00031	-6e-05	4e-05	8e-05	1e-05	-0.00013	-0.00016	2
7467	-0.00013	-0.00031	-6e-05	4e-05	8e-05	1e-05	-0.00013	-0.00016	2
7468	-0.00013	-0.00031	-6e-05	4e-05	8e-05	1e-05	-0.00013	-0.00016	2
7469	-0.00013	-0.00031	-6e-05	4e-05	8e-05	1e-05	-0.00013	-0.00016	2
7470	-0.00013	-0.00031	-6e-05	4e-05	8e-05	1e-05	-0.00013	-0.00016	2
7471	-0.00013	-0.00031	-6e-05	4e-05	8e-05	1e-05	-0.00013	-0.00016	2
7472	-0.00013	-0.00031	-6e-05	4e-05	8e-05	1e-05	-0.00013	-0.00016	2
7473	-0.00013	-0.00031	-6e-05	4e-05	8e-05	1e-05	-0.00013	-0.00016	2
7474	3e-05	4e-05	1e-05	2e-05	0	-0.0001	-8e-05	-2e-05	2
7475	3e-05	4e-05	1e-05	2e-05	0	-0.0001	-8e-05	-2e-05	2
7476	8e-05	6e-05	7e-05	2e-05	-4e-05	-5e-05	-7e-05	-3e-05	2
7477	8e-05	6e-05	7e-05	2e-05	-4e-05	-5e-05	-7e-05	-3e-05	2
7478	8e-05	6e-05	7e-05	2e-05	-4e-05	-5e-05	-7e-05	-3e-05	2
7479	8e-05	6e-05	7e-05	2e-05	-4e-05	-5e-05	-7e-05	-3e-05	2
7480	8e-05	6e-05	7e-05	2e-05	-4e-05	-5e-05	-7e-05	-3e-05	2
7481	8e-05	6e-05	7e-05	2e-05	-4e-05	-5e-05	-7e-05	-3e-05	2
7482	8e-05	6e-05	7e-05	2e-05	-4e-05	-5e-05	-7e-05	-3e-05	2
7483	8e-05	6e-05	7e-05	2e-05	-4e-05	-5e-05	-7e-05	-3e-05	2
7484	8e-05	6e-05	7e-05	2e-05	-4e-05	-5e-05	-7e-05	-3e-05	2
7485	8e-05	6e-05	7e-05	2e-05	-4e-05	-5e-05	-7e-05	-3e-05	2
7486	8e-05	6e-05	7e-05	2e-05	-4e-05	-5e-05	-7e-05	-3e-05	2
7488	8e-05	6e-05	7e-05	2e-05	-4e-05	-5e-05	-7e-05	-3e-05	2
7489	8e-05	6e-05	7e-05	2e-05	-4e-05	-5e-05	-7e-05	-3e-05	2
7490	8e-05	6e-05	7e-05	2e-05	-4e-05	-5e-05	-7e-05	-3e-05	2
7491	8e-05	6e-05	7e-05	2e-05	-4e-05	-5e-05	-7e-05	-3e-05	2
7492	8e-05	6e-05	7e-05	2e-05	-4e-05	-5e-05	-7e-05	-3e-05	2
7493	8e-05	6e-05	7e-05	2e-05	-4e-05	-5e-05	-7e-05	-3e-05	2
7494	8e-05	6e-05	7e-05	2e-05	-4e-05	-5e-05	-7e-05	-3e-05	2
7495	8e-05	6e-05	7e-05	2e-05	-4e-05	-5e-05	-7e-05	-3e-05	2
7496	-2e-05	-2e-05	0	0.00017	0.00012	-6e-05	2e-05	-1e-05	2
7497	-2e-05	-2e-05	0	0.00017	0.00012	-6e-05	2e-05	-1e-05	2
7498	0	3e-05	5e-05	0.00017	0	-5e-05	9e-05	1e-05	2
7499	0	3e-05	5e-05	0.00017	0	-5e-05	9e-05	1e-05	2
7500	0	3e-05	5e-05	0.00017	0	-5e-05	9e-05	1e-05	2
7501	0	3e-05	5e-05	0.00017	0	-5e-05	9e-05	1e-05	2
7502	0	3e-05	5e-05	0.00017	0	-5e-05	9e-05	1e-05	2
7503	0	3e-05	5e-05	0.00017	0	-5e-05	9e-05	1e-05	2
7504	0	3e-05	5e-05	0.00017	0	-5e-05	9e-05	1e-05	2
7505	0	3e-05	5e-05	0.00017	0	-5e-05	9e-05	1e-05	2
7506	0	3e-05	5e-05	0.00017	0	-5e-05	9e-05	1e-05	2
7507	0	3e-05	5e-05	0.00017	0	-5e-05	9e-05	1e-05	2
7508	0	3e-05	5e-05	0.00017	0	-5e-05	9e-05	1e-05	2
7509	0	3e-05	5e-05	0.00017	0	-5e-05	9e-05	1e-05	2
7510	1e-05	-2e-05	-3e-05	-5e-05	-9e-05	-5e-05	1e-05	-3e-05	2
7511	1e-05	-2e-05	-3e-05	-5e-05	-9e-05	-5e-05	1e-05	-3e-05	2
7512	1e-05	-2e-05	-3e-05	-5e-05	-9e-05	-5e-05	1e-05	-3e-05	2
7513	1e-05	-2e-05	-3e-05	-5e-05	-9e-05	-5e-05	1e-05	-3e-05	2
7514	1e-05	-2e-05	-3e-05	-5e-05	-9e-05	-5e-05	1e-05	-3e-05	2
7515	1e-05	-2e-05	-3e-05	-5e-05	-9e-05	-5e-05	1e-05	-3e-05	2
7516	1e-05	-2e-05	-3e-05	-5e-05	-9e-05	-5e-05	1e-05	-3e-05	2
7517	1e-05	-2e-05	-3e-05	-5e-05	-9e-05	-5e-05	1e-05	-3e-05	2
7518	1e-05	-2e-05	-3e-05	-5e-05	-9e-05	-5e-05	1e-05	-3e-05	2
7519	0	-4e-05	3e-05	0.00016	4e-05	1e-05	5e-05	-6e-05	2
7520	0	-4e-05	3e-05	0.00016	4e-05	1e-05	5e-05	-6e-05	2
7521	0	-4e-05	3e-05	0.00016	4e-05	1e-05	5e-05	-6e-05	2
7522	0	-4e-05	3e-05	0.00016	4e-05	1e-05	5e-05	-6e-05	2
7523	0	-4e-05	3e-05	0.00016	4e-05	1e-05	5e-05	-6e-05	2
7524	0	-4e-05	3e-05	0.00016	4e-05	1e-05	5e-05	-6e-05	2
7525	0	-4e-05	3e-05	0.00016	4e-05	1e-05	5e-05	-6e-05	2
7526	0	-4e-05	3e-05	0.00016	4e-05	1e-05	5e-05	-6e-05	2
7527	0	-4e-05	3e-05	0.00016	4e-05	1e-05	5e-05	-6e-05	2
7528	0	-4e-05	3e-05	0.00016	4e-05	1e-05	5e-05	-6e-05	2
7529	0	-4e-05	3e-05	0.00016	4e-05	1e-05	5e-05	-6e-05	2
7530	0	-4e-05	3e-05	0.00016	4e-05	1e-05	5e-05	-6e-05	2
7531	0	-4e-05	3e-05	0.00016	4e-05	1e-05	5e-05	-6e-05	2
7532	0	-4e-05	3e-05	0.00016	4e-05	1e-05	5e-05	-6e-05	2
7533	0	-4e-05	3e-05	0.00016	4e-05	1e-05	5e-05	-6e-05	2
7534	-1e-05	-3e-05	-0.00014	-0.00037	0.0001	1e-05	-9e-05	-4e-05	2
7535	-1e-05	-3e-05	-0.00014	-0.00037	0.0001	1e-05	-9e-05	-4e-05	2
7536	3e-05	3e-05	-3e-05	-0.00025	-0.00011	-6e-05	-5e-05	5e-05	2
7538	3e-05	3e-05	-3e-05	-0.00025	-0.00011	-6e-05	-5e-05	5e-05	2
7539	3e-05	3e-05	-3e-05	-0.00025	-0.00011	-6e-05	-5e-05	5e-05	2
7540	3e-05	3e-05	-3e-05	-0.00025	-0.00011	-6e-05	-5e-05	5e-05	2
7541	3e-05	3e-05	-3e-05	-0.00025	-0.00011	-6e-05	-5e-05	5e-05	2
7542	3e-05	3e-05	-3e-05	-0.00025	-0.00011	-6e-05	-5e-05	5e-05	2
7543	3e-05	3e-05	-3e-05	-0.00025	-0.00011	-6e-05	-5e-05	5e-05	2
7544	3e-05	3e-05	-3e-05	-0.00025	-0.00011	-6e-05	-5e-05	5e-05	2
7545	3e-05	3e-05	-3e-05	-0.00025	-0.00011	-6e-05	-5e-05	5e-05	2
7546	3e-05	3e-05	-3e-05	-0.00025	-0.00011	-6e-05	-5e-05	5e-05	2
7547	3e-05	3e-05	-3e-05	-0.00025	-0.00011	-6e-05	-5e-05	5e-05	2
7548	3e-05	3e-05	-3e-05	-0.00025	-0.00011	-6e-05	-5e-05	5e-05	2
7549	3e-05	3e-05	-3e-05	-0.00025	-0.00011	-6e-05	-5e-05	5e-05	2
7550	3e-05	3e-05	-3e-05	-0.00025	-0.00011	-6e-05	-5e-05	5e-05	2
7551	3e-05	3e-05	-3e-05	-0.00025	-0.00011	-6e-05	-5e-05	5e-05	2
7552	3e-05	3e-05	-3e-05	-0.00025	-0.00011	-6e-05	-5e-05	5e-05	2
7553	3e-05	3e-05	-3e-05	-0.00025	-0.00011	-6e-05	-5e-05	5e-05	2
7554	3e-05	3e-05	-3e-05	-0.00025	-0.00011	-6e-05	-5e-05	5e-05	2
7555	3e-05	3e-05	-3e-05	-0.00025	-0.00011	-6e-05	-5e-05	5e-05	2
7556	1e-05	5e-05	0.00011	0.00025	3e-05	-1e-05	0.00016	2e-05	2
7557	-7e-05	-4e-05	-4e-05	-0.00021	-8e-05	0	0.00017	6e-05	2
7558	-6e-05	-1e-05	-8e-05	-0.00017	-0.00017	0	-7e-05	0	2
7559	-6e-05	-1e-05	-8e-05	-0.00017	-0.00017	0	-7e-05	0	2
7560	-6e-05	-1e-05	-8e-05	-0.00017	-0.00017	0	-7e-05	0	2
7561	-6e-05	-1e-05	-8e-05	-0.00017	-0.00017	0	-7e-05	0	2
7562	-6e-05	-1e-05	-8e-05	-0.00017	-0.00017	0	-7e-05	0	2
7563	-6e-05	-1e-05	-8e-05	-0.00017	-0.00017	0	-7e-05	0	2
7564	-6e-05	-1e-05	-8e-05	-0.00017	-0.00017	0	-7e-05	0	2
7565	-6e-05	-1e-05	-8e-05	-0.00017	-0.00017	0	-7e-05	0	2
7566	-6e-05	-1e-05	-8e-05	-0.00017	-0.00017	0	-7e-05	0	2
7567	-6e-05	-1e-05	-8e-05	-0.00017	-0.00017	0	-7e-05	0	2
7568	-6e-05	-1e-05	-8e-05	-0.00017	-0.00017	0	-7e-05	0	2
7569	-6e-05	-1e-05	-8e-05	-0.00017	-0.00017	0	-7e-05	0	2
7570	1e-05	8e-05	-3e-05	1e-05	-3e-05	-5e-05	-9e-05	-5e-05	2
7571	1e-05	8e-05	-3e-05	1e-05	-3e-05	-5e-05	-9e-05	-5e-05	2
7572	1e-05	8e-05	-3e-05	1e-05	-3e-05	-5e-05	-9e-05	-5e-05	2
7573	1e-05	8e-05	-3e-05	1e-05	-3e-05	-5e-05	-9e-05	-5e-05	2
7574	1e-05	8e-05	-3e-05	1e-05	-3e-05	-5e-05	-9e-05	-5e-05	2
7575	1e-05	8e-05	-3e-05	1e-05	-3e-05	-5e-05	-9e-05	-5e-05	2
7576	1e-05	8e-05	-3e-05	1e-05	-3e-05	-5e-05	-9e-05	-5e-05	2
7577	1e-05	8e-05	-3e-05	1e-05	-3e-05	-5e-05	-9e-05	-5e-05	2
7578	1e-05	8e-05	-3e-05	1e-05	-3e-05	-5e-05	-9e-05	-5e-05	2
7579	-7e-05	-4e-05	9e-05	0.00013	8e-05	-6e-05	-7e-05	-3e-05	2
7580	-7e-05	-4e-05	9e-05	0.00013	8e-05	-6e-05	-7e-05	-3e-05	2
7581	-7e-05	-4e-05	9e-05	0.00013	8e-05	-6e-05	-7e-05	-3e-05	2
7582	-7e-05	-4e-05	9e-05	0.00013	8e-05	-6e-05	-7e-05	-3e-05	2
7583	-7e-05	-4e-05	9e-05	0.00013	8e-05	-6e-05	-7e-05	-3e-05	2
7584	-7e-05	-4e-05	9e-05	0.00013	8e-05	-6e-05	-7e-05	-3e-05	2
7585	-7e-05	-4e-05	9e-05	0.00013	8e-05	-6e-05	-7e-05	-3e-05	2
7586	-7e-05	-4e-05	9e-05	0.00013	8e-05	-6e-05	-7e-05	-3e-05	2
7588	-7e-05	-4e-05	9e-05	0.00013	8e-05	-6e-05	-7e-05	-3e-05	2
7589	-7e-05	-4e-05	9e-05	0.00013	8e-05	-6e-05	-7e-05	-3e-05	2
7590	-7e-05	-4e-05	9e-05	0.00013	8e-05	-6e-05	-7e-05	-3e-05	2
7591	-7e-05	-4e-05	9e-05	0.00013	8e-05	-6e-05	-7e-05	-3e-05	2
7592	-7e-05	-4e-05	9e-05	0.00013	8e-05	-6e-05	-7e-05	-3e-05	2
7593	-7e-05	-4e-05	9e-05	0.00013	8e-05	-6e-05	-7e-05	-3e-05	2
7594	0	1e-05	-1e-05	-0.00014	-7e-05	5e-05	-3e-05	-4e-05	2
7595	0	1e-05	-1e-05	-0.00014	-7e-05	5e-05	-3e-05	-4e-05	2
7596	-1e-05	-6e-05	-0.00016	-6e-05	-7e-05	-6e-05	-0.00012	2e-05	2
7597	-1e-05	-6e-05	-0.00016	-6e-05	-7e-05	-6e-05	-0.00012	2e-05	2
7598	-1e-05	-6e-05	-0.00016	-6e-05	-7e-05	-6e-05	-0.00012	2e-05	2
7599	-1e-05	-6e-05	-0.00016	-6e-05	-7e-05	-6e-05	-0.00012	2e-05	2
7600	-1e-05	-6e-05	-0.00016	-6e-05	-7e-05	-6e-05	-0.00012	2e-05	2
7601	-1e-05	-6e-05	-0.00016	-6e-05	-7e-05	-6e-05	-0.00012	2e-05	2
7602	-1e-05	-6e-05	-0.00016	-6e-05	-7e-05	-6e-05	-0.00012	2e-05	2
7603	-1e-05	-6e-05	-0.00016	-6e-05	-7e-05	-6e-05	-0.00012	2e-05	2
7604	-1e-05	-6e-05	-0.00016	-6e-05	-7e-05	-6e-05	-0.00012	2e-05	2
7605	-1e-05	-6e-05	-0.00016	-6e-05	-7e-05	-6e-05	-0.00012	2e-05	2
7606	-1e-05	-6e-05	-0.00016	-6e-05	-7e-05	-6e-05	-0.00012	2e-05	2
7607	-1e-05	-6e-05	-0.00016	-6e-05	-7e-05	-6e-05	-0.00012	2e-05	2
7608	-1e-05	-6e-05	-0.00016	-6e-05	-7e-05	-6e-05	-0.00012	2e-05	2
7609	-1e-05	-6e-05	-0.00016	-6e-05	-7e-05	-6e-05	-0.00012	2e-05	2
7610	-1e-05	-6e-05	-0.00016	-6e-05	-7e-05	-6e-05	-0.00012	2e-05	2
7611	-1e-05	-6e-05	-0.00016	-6e-05	-7e-05	-6e-05	-0.00012	2e-05	2
7612	-1e-05	-6e-05	-0.00016	-6e-05	-7e-05	-6e-05	-0.00012	2e-05	2
7613	-1e-05	-6e-05	-0.00016	-6e-05	-7e-05	-6e-05	-0.00012	2e-05	2
7614	-1e-05	-6e-05	-0.00016	-6e-05	-7e-05	-6e-05	-0.00012	2e-05	2
7615	-1e-05	-6e-05	-0.00016	-6e-05	-7e-05	-6e-05	-0.00012	2e-05	2
7616	-7e-05	-0.00011	-2e-05	-3e-05	0	-6e-05	-7e-05	-4e-05	2
7617	-7e-05	-0.00011	-2e-05	-3e-05	0	-6e-05	-7e-05	-4e-05	2
7618	-4e-05	-8e-05	-0.00027	-0.00063	-5e-05	1e-05	-1e-05	-7e-05	2
7619	-4e-05	-8e-05	-0.00027	-0.00063	-5e-05	1e-05	-1e-05	-7e-05	2
7620	-4e-05	-8e-05	-0.00027	-0.00063	-5e-05	1e-05	-1e-05	-7e-05	2
7621	-4e-05	-8e-05	-0.00027	-0.00063	-5e-05	1e-05	-1e-05	-7e-05	2
7622	-4e-05	-8e-05	-0.00027	-0.00063	-5e-05	1e-05	-1e-05	-7e-05	2
7623	-4e-05	-8e-05	-0.00027	-0.00063	-5e-05	1e-05	-1e-05	-7e-05	2
7624	-4e-05	-8e-05	-0.00027	-0.00063	-5e-05	1e-05	-1e-05	-7e-05	2
7625	-4e-05	-8e-05	-0.00027	-0.00063	-5e-05	1e-05	-1e-05	-7e-05	2
7626	-4e-05	-8e-05	-0.00027	-0.00063	-5e-05	1e-05	-1e-05	-7e-05	2
7627	-4e-05	-8e-05	-0.00027	-0.00063	-5e-05	1e-05	-1e-05	-7e-05	2
7628	-4e-05	-8e-05	-0.00027	-0.00063	-5e-05	1e-05	-1e-05	-7e-05	2
7629	-4e-05	-8e-05	-0.00027	-0.00063	-5e-05	1e-05	-1e-05	-7e-05	2
7630	-4e-05	-8e-05	-0.00027	-0.00063	-5e-05	1e-05	-1e-05	-7e-05	2
7631	-4e-05	-8e-05	-0.00027	-0.00063	-5e-05	1e-05	-1e-05	-7e-05	2
7632	-4e-05	-8e-05	-0.00027	-0.00063	-5e-05	1e-05	-1e-05	-7e-05	2
7633	-4e-05	-8e-05	-0.00027	-0.00063	-5e-05	1e-05	-1e-05	-7e-05	2
7634	-4e-05	-8e-05	-0.00027	-0.00063	-5e-05	1e-05	-1e-05	-7e-05	2
7635	-4e-05	-8e-05	-0.00027	-0.00063	-5e-05	1e-05	-1e-05	-7e-05	2
7636	-4e-05	-8e-05	-0.00027	-0.00063	-5e-05	1e-05	-1e-05	-7e-05	2
7638	-4e-05	-8e-05	-0.00027	-0.00063	-5e-05	1e-05	-1e-05	-7e-05	2
7639	-4e-05	-8e-05	-0.00027	-0.00063	-5e-05	1e-05	-1e-05	-7e-05	2
7640	-1e-05	0.00017	1e-05	0.00024	0.00011	6e-05	-7e-05	2e-05	2
7641	6e-05	0.0001	-2e-05	-0.0004	-0.00014	-2e-05	0.00012	-3e-05	2
7642	6e-05	0.0001	-2e-05	-0.0004	-0.00014	-2e-05	0.00012	-3e-05	2
7643	6e-05	0.0001	-2e-05	-0.0004	-0.00014	-2e-05	0.00012	-3e-05	2
7644	6e-05	0.0001	-2e-05	-0.0004	-0.00014	-2e-05	0.00012	-3e-05	2
7645	6e-05	0.0001	-2e-05	-0.0004	-0.00014	-2e-05	0.00012	-3e-05	2
7646	6e-05	0.0001	-2e-05	-0.0004	-0.00014	-2e-05	0.00012	-3e-05	2
7647	6e-05	0.0001	-2e-05	-0.0004	-0.00014	-2e-05	0.00012	-3e-05	2
7648	6e-05	0.0001	-2e-05	-0.0004	-0.00014	-2e-05	0.00012	-3e-05	2
7649	6e-05	0.0001	-2e-05	-0.0004	-0.00014	-2e-05	0.00012	-3e-05	2
7650	6e-05	0.0001	-2e-05	-0.0004	-0.00014	-2e-05	0.00012	-3e-05	2
7651	6e-05	0.0001	-2e-05	-0.0004	-0.00014	-2e-05	0.00012	-3e-05	2
7652	6e-05	0.0001	-2e-05	-0.0004	-0.00014	-2e-05	0.00012	-3e-05	2
7653	6e-05	0.0001	-2e-05	-0.0004	-0.00014	-2e-05	0.00012	-3e-05	2
7654	-3e-05	1e-05	4e-05	3e-05	-4e-05	-1e-05	-2e-05	-2e-05	2
7655	-2e-05	-1e-05	-0.00011	-0.00017	-5e-05	-8e-05	6e-05	-3e-05	2
7656	1e-05	0.00013	0.00012	0.00035	0.00012	0.00011	2e-05	1e-05	2
7657	1e-05	0.00013	0.00012	0.00035	0.00012	0.00011	2e-05	1e-05	2
7658	1e-05	0.00013	0.00012	0.00035	0.00012	0.00011	2e-05	1e-05	2
7659	1e-05	0.00013	0.00012	0.00035	0.00012	0.00011	2e-05	1e-05	2
7660	1e-05	0.00013	0.00012	0.00035	0.00012	0.00011	2e-05	1e-05	2
7661	1e-05	0.00013	0.00012	0.00035	0.00012	0.00011	2e-05	1e-05	2
7662	1e-05	0.00013	0.00012	0.00035	0.00012	0.00011	2e-05	1e-05	2
7663	1e-05	0.00013	0.00012	0.00035	0.00012	0.00011	2e-05	1e-05	2
7664	1e-05	0.00013	0.00012	0.00035	0.00012	0.00011	2e-05	1e-05	2
7665	1e-05	0.00013	0.00012	0.00035	0.00012	0.00011	2e-05	1e-05	2
7666	1e-05	0.00013	0.00012	0.00035	0.00012	0.00011	2e-05	1e-05	2
7667	1e-05	0.00013	0.00012	0.00035	0.00012	0.00011	2e-05	1e-05	2
7668	1e-05	0.00013	0.00012	0.00035	0.00012	0.00011	2e-05	1e-05	2
7669	1e-05	0.00013	0.00012	0.00035	0.00012	0.00011	2e-05	1e-05	2
7670	1e-05	0.00013	0.00012	0.00035	0.00012	0.00011	2e-05	1e-05	2
7671	1e-05	0.00013	0.00012	0.00035	0.00012	0.00011	2e-05	1e-05	2
7672	1e-05	0.00013	0.00012	0.00035	0.00012	0.00011	2e-05	1e-05	2
7673	1e-05	0.00013	0.00012	0.00035	0.00012	0.00011	2e-05	1e-05	2
7674	1e-05	0.00013	0.00012	0.00035	0.00012	0.00011	2e-05	1e-05	2
7675	1e-05	0.00013	0.00012	0.00035	0.00012	0.00011	2e-05	1e-05	2
7676	7e-05	7e-05	0.0001	0.00033	0.0001	-2e-05	0.0002	6e-05	2
7677	-4e-05	-5e-05	-0.00011	-0.00015	-0.0001	-1e-05	-7e-05	-3e-05	2
7678	-6e-05	-0.00014	2e-05	0.0001	8e-05	8e-05	8e-05	0	2
7679	-6e-05	-0.00014	2e-05	0.0001	8e-05	8e-05	8e-05	0	2
7680	-6e-05	-0.00014	2e-05	0.0001	8e-05	8e-05	8e-05	0	2
7681	-6e-05	-0.00014	2e-05	0.0001	8e-05	8e-05	8e-05	0	2
7682	-6e-05	-0.00014	2e-05	0.0001	8e-05	8e-05	8e-05	0	2
7683	-6e-05	-0.00014	2e-05	0.0001	8e-05	8e-05	8e-05	0	2
7684	-6e-05	-0.00014	2e-05	0.0001	8e-05	8e-05	8e-05	0	2
7685	-6e-05	-0.00014	2e-05	0.0001	8e-05	8e-05	8e-05	0	2
7686	-6e-05	-0.00014	2e-05	0.0001	8e-05	8e-05	8e-05	0	2
7688	-6e-05	-0.00014	2e-05	0.0001	8e-05	8e-05	8e-05	0	2
7689	-6e-05	-0.00014	2e-05	0.0001	8e-05	8e-05	8e-05	0	2
7690	-6e-05	-0.00014	2e-05	0.0001	8e-05	8e-05	8e-05	0	2
7691	-6e-05	-0.00014	2e-05	0.0001	8e-05	8e-05	8e-05	0	2
7692	-6e-05	-0.00014	2e-05	0.0001	8e-05	8e-05	8e-05	0	2
7693	-6e-05	-0.00014	2e-05	0.0001	8e-05	8e-05	8e-05	0	2
7694	-6e-05	-0.00014	2e-05	0.0001	8e-05	8e-05	8e-05	0	2
7695	-6e-05	-0.00014	2e-05	0.0001	8e-05	8e-05	8e-05	0	2
7696	-6e-05	-0.00014	2e-05	0.0001	8e-05	8e-05	8e-05	0	2
7697	-6e-05	-0.00014	2e-05	0.0001	8e-05	8e-05	8e-05	0	2
7698	-6e-05	-0.00014	2e-05	0.0001	8e-05	8e-05	8e-05	0	2
7699	2e-05	0	0.0001	0.00015	0	-2e-05	-5e-05	0	2
7700	2e-05	0	0.0001	0.00015	0	-2e-05	-5e-05	0	2
7701	4e-05	-1e-05	0.00011	0.0003	6e-05	1e-05	8e-05	1e-05	2
7702	4e-05	-1e-05	0.00011	0.0003	6e-05	1e-05	8e-05	1e-05	2
7703	4e-05	-1e-05	0.00011	0.0003	6e-05	1e-05	8e-05	1e-05	2
7704	4e-05	-1e-05	0.00011	0.0003	6e-05	1e-05	8e-05	1e-05	2
7705	4e-05	-1e-05	0.00011	0.0003	6e-05	1e-05	8e-05	1e-05	2
7706	4e-05	-1e-05	0.00011	0.0003	6e-05	1e-05	8e-05	1e-05	2
7707	4e-05	-1e-05	0.00011	0.0003	6e-05	1e-05	8e-05	1e-05	2
7708	4e-05	-1e-05	0.00011	0.0003	6e-05	1e-05	8e-05	1e-05	2
7709	4e-05	-1e-05	0.00011	0.0003	6e-05	1e-05	8e-05	1e-05	2
7710	4e-05	-1e-05	0.00011	0.0003	6e-05	1e-05	8e-05	1e-05	2
7711	4e-05	-1e-05	0.00011	0.0003	6e-05	1e-05	8e-05	1e-05	2
7712	4e-05	-1e-05	0.00011	0.0003	6e-05	1e-05	8e-05	1e-05	2
7713	4e-05	-1e-05	0.00011	0.0003	6e-05	1e-05	8e-05	1e-05	2
7714	4e-05	-1e-05	0.00011	0.0003	6e-05	1e-05	8e-05	1e-05	2
7715	1e-05	5e-05	-2e-05	-7e-05	-5e-05	-3e-05	-3e-05	-1e-05	2
7716	6e-05	4e-05	5e-05	0.0002	0.00018	3e-05	6e-05	5e-05	2
7717	6e-05	4e-05	5e-05	0.0002	0.00018	3e-05	6e-05	5e-05	2
7718	6e-05	4e-05	5e-05	0.0002	0.00018	3e-05	6e-05	5e-05	2
7719	6e-05	4e-05	5e-05	0.0002	0.00018	3e-05	6e-05	5e-05	2
7720	6e-05	4e-05	5e-05	0.0002	0.00018	3e-05	6e-05	5e-05	2
7721	6e-05	4e-05	5e-05	0.0002	0.00018	3e-05	6e-05	5e-05	2
7722	6e-05	4e-05	5e-05	0.0002	0.00018	3e-05	6e-05	5e-05	2
7723	6e-05	4e-05	5e-05	0.0002	0.00018	3e-05	6e-05	5e-05	2
7725	6e-05	4e-05	5e-05	0.0002	0.00018	3e-05	6e-05	5e-05	2
7726	6e-05	4e-05	5e-05	0.0002	0.00018	3e-05	6e-05	5e-05	2
7727	6e-05	4e-05	5e-05	0.0002	0.00018	3e-05	6e-05	5e-05	2
7728	6e-05	4e-05	5e-05	0.0002	0.00018	3e-05	6e-05	5e-05	2
7729	6e-05	4e-05	5e-05	0.0002	0.00018	3e-05	6e-05	5e-05	2
7730	6e-05	4e-05	5e-05	0.0002	0.00018	3e-05	6e-05	5e-05	2
7731	6e-05	4e-05	5e-05	0.0002	0.00018	3e-05	6e-05	5e-05	2
7732	6e-05	4e-05	5e-05	0.0002	0.00018	3e-05	6e-05	5e-05	2
7733	6e-05	4e-05	5e-05	0.0002	0.00018	3e-05	6e-05	5e-05	2
7734	6e-05	4e-05	5e-05	0.0002	0.00018	3e-05	6e-05	5e-05	2
7735	6e-05	4e-05	5e-05	0.0002	0.00018	3e-05	6e-05	5e-05	2
7736	2e-05	-0.0001	-8e-05	0.00035	9e-05	-4e-05	6e-05	1e-05	2
7739	0	0	2e-05	6e-05	-2e-05	-9e-05	-0.00019	-5e-05	2
7740	0	0	2e-05	6e-05	-2e-05	-9e-05	-0.00019	-5e-05	2
7741	0	0	2e-05	6e-05	-2e-05	-9e-05	-0.00019	-5e-05	2
7742	0	0	2e-05	6e-05	-2e-05	-9e-05	-0.00019	-5e-05	2
7743	0	0	2e-05	6e-05	-2e-05	-9e-05	-0.00019	-5e-05	2
7744	0	0	2e-05	6e-05	-2e-05	-9e-05	-0.00019	-5e-05	2
7745	0	0	2e-05	6e-05	-2e-05	-9e-05	-0.00019	-5e-05	2
7746	0	0	2e-05	6e-05	-2e-05	-9e-05	-0.00019	-5e-05	2
7747	0	0	2e-05	6e-05	-2e-05	-9e-05	-0.00019	-5e-05	2
7748	0	0	2e-05	6e-05	-2e-05	-9e-05	-0.00019	-5e-05	2
7749	0	0	2e-05	6e-05	-2e-05	-9e-05	-0.00019	-5e-05	2
7750	0	0	2e-05	6e-05	-2e-05	-9e-05	-0.00019	-5e-05	2
7751	0	0	2e-05	6e-05	-2e-05	-9e-05	-0.00019	-5e-05	2
7752	0	0	2e-05	6e-05	-2e-05	-9e-05	-0.00019	-5e-05	2
7753	0	0	2e-05	6e-05	-2e-05	-9e-05	-0.00019	-5e-05	2
7754	0	0	2e-05	6e-05	-2e-05	-9e-05	-0.00019	-5e-05	2
7755	0	0	2e-05	6e-05	-2e-05	-9e-05	-0.00019	-5e-05	2
7756	0	0	2e-05	6e-05	-2e-05	-9e-05	-0.00019	-5e-05	2
7757	0	0	2e-05	6e-05	-2e-05	-9e-05	-0.00019	-5e-05	2
7758	0	0	2e-05	6e-05	-2e-05	-9e-05	-0.00019	-5e-05	2
7759	0	0	2e-05	6e-05	-2e-05	-9e-05	-0.00019	-5e-05	2
7760	0	0	2e-05	6e-05	-2e-05	-9e-05	-0.00019	-5e-05	2
7761	0	0	2e-05	6e-05	-2e-05	-9e-05	-0.00019	-5e-05	2
7762	0	0	2e-05	6e-05	-2e-05	-9e-05	-0.00019	-5e-05	2
7763	0	0	2e-05	6e-05	-2e-05	-9e-05	-0.00019	-5e-05	2
7764	0	0	2e-05	6e-05	-2e-05	-9e-05	-0.00019	-5e-05	2
7765	0	0	2e-05	6e-05	-2e-05	-9e-05	-0.00019	-5e-05	2
7766	-7e-05	-0.0003	-0.00013	-0.00035	-3e-05	5e-05	0.0001	-9e-05	2
7767	-7e-05	-0.0003	-0.00013	-0.00035	-3e-05	5e-05	0.0001	-9e-05	2
7768	-7e-05	2e-05	4e-05	4e-05	-0.0001	-8e-05	-5e-05	0	2
7769	-7e-05	2e-05	4e-05	4e-05	-0.0001	-8e-05	-5e-05	0	2
7770	-7e-05	2e-05	4e-05	4e-05	-0.0001	-8e-05	-5e-05	0	2
7771	-7e-05	2e-05	4e-05	4e-05	-0.0001	-8e-05	-5e-05	0	2
7772	-7e-05	2e-05	4e-05	4e-05	-0.0001	-8e-05	-5e-05	0	2
7773	4e-05	6e-05	2e-05	8e-05	0.00017	1e-05	-5e-05	-4e-05	2
7774	-4e-05	0.0001	2e-05	1e-05	9e-05	2e-05	-3e-05	-3e-05	2
7775	-4e-05	0.0001	2e-05	1e-05	9e-05	2e-05	-3e-05	-3e-05	2
7776	-4e-05	0.0001	2e-05	1e-05	9e-05	2e-05	-3e-05	-3e-05	2
7777	-4e-05	0.0001	2e-05	1e-05	9e-05	2e-05	-3e-05	-3e-05	2
7778	-4e-05	0.0001	2e-05	1e-05	9e-05	2e-05	-3e-05	-3e-05	2
7779	-4e-05	0.0001	2e-05	1e-05	9e-05	2e-05	-3e-05	-3e-05	2
7780	-6e-05	-4e-05	-6e-05	-0.00022	-4e-05	-1e-05	3e-05	-5e-05	2
7781	-6e-05	-4e-05	-6e-05	-0.00022	-4e-05	-1e-05	3e-05	-5e-05	2
7782	-6e-05	-4e-05	-6e-05	-0.00022	-4e-05	-1e-05	3e-05	-5e-05	2
7783	-6e-05	-4e-05	-6e-05	-0.00022	-4e-05	-1e-05	3e-05	-5e-05	2
7784	-6e-05	-4e-05	-6e-05	-0.00022	-4e-05	-1e-05	3e-05	-5e-05	2
7785	-6e-05	-4e-05	-6e-05	-0.00022	-4e-05	-1e-05	3e-05	-5e-05	2
7786	-6e-05	-4e-05	-6e-05	-0.00022	-4e-05	-1e-05	3e-05	-5e-05	2
7788	-6e-05	-4e-05	-6e-05	-0.00022	-4e-05	-1e-05	3e-05	-5e-05	2
7789	-6e-05	-4e-05	-6e-05	-0.00022	-4e-05	-1e-05	3e-05	-5e-05	2
7790	-6e-05	-4e-05	-6e-05	-0.00022	-4e-05	-1e-05	3e-05	-5e-05	2
7791	-6e-05	-4e-05	-6e-05	-0.00022	-4e-05	-1e-05	3e-05	-5e-05	2
7792	-6e-05	-4e-05	-6e-05	-0.00022	-4e-05	-1e-05	3e-05	-5e-05	2
7793	-6e-05	-4e-05	-6e-05	-0.00022	-4e-05	-1e-05	3e-05	-5e-05	2
7794	-6e-05	-4e-05	-6e-05	-0.00022	-4e-05	-1e-05	3e-05	-5e-05	2
7795	-6e-05	-4e-05	-6e-05	-0.00022	-4e-05	-1e-05	3e-05	-5e-05	2
7796	1e-05	-0.00018	-2e-05	0.00012	0	-4e-05	-3e-05	3e-05	2
7797	1e-05	8e-05	0.00015	0.00044	2e-05	-2e-05	3e-05	-1e-05	2
7798	-1e-05	-6e-05	-3e-05	0.00013	-7e-05	-1e-05	-8e-05	1e-05	2
7799	-1e-05	-6e-05	-3e-05	0.00013	-7e-05	-1e-05	-8e-05	1e-05	2
7800	-1e-05	-6e-05	-3e-05	0.00013	-7e-05	-1e-05	-8e-05	1e-05	2
7801	-1e-05	-6e-05	-3e-05	0.00013	-7e-05	-1e-05	-8e-05	1e-05	2
7802	-1e-05	-6e-05	-3e-05	0.00013	-7e-05	-1e-05	-8e-05	1e-05	2
7803	-1e-05	-6e-05	-3e-05	0.00013	-7e-05	-1e-05	-8e-05	1e-05	2
7804	-1e-05	-6e-05	-3e-05	0.00013	-7e-05	-1e-05	-8e-05	1e-05	2
7805	-1e-05	-6e-05	-3e-05	0.00013	-7e-05	-1e-05	-8e-05	1e-05	2
7806	-1e-05	-6e-05	-3e-05	0.00013	-7e-05	-1e-05	-8e-05	1e-05	2
7807	-1e-05	-6e-05	-3e-05	0.00013	-7e-05	-1e-05	-8e-05	1e-05	2
7808	-1e-05	-6e-05	-3e-05	0.00013	-7e-05	-1e-05	-8e-05	1e-05	2
7809	-1e-05	-6e-05	-3e-05	0.00013	-7e-05	-1e-05	-8e-05	1e-05	2
7810	-1e-05	-6e-05	-3e-05	0.00013	-7e-05	-1e-05	-8e-05	1e-05	2
7811	-1e-05	-6e-05	-3e-05	0.00013	-7e-05	-1e-05	-8e-05	1e-05	2
7812	-1e-05	-6e-05	-3e-05	0.00013	-7e-05	-1e-05	-8e-05	1e-05	2
7813	-1e-05	-6e-05	-3e-05	0.00013	-7e-05	-1e-05	-8e-05	1e-05	2
7814	-1e-05	-6e-05	-3e-05	0.00013	-7e-05	-1e-05	-8e-05	1e-05	2
7815	-1e-05	-6e-05	-3e-05	0.00013	-7e-05	-1e-05	-8e-05	1e-05	2
7816	-1e-05	-6e-05	-3e-05	0.00013	-7e-05	-1e-05	-8e-05	1e-05	2
7817	-1e-05	-6e-05	-3e-05	0.00013	-7e-05	-1e-05	-8e-05	1e-05	2
7818	-1e-05	-6e-05	-3e-05	0.00013	-7e-05	-1e-05	-8e-05	1e-05	2
7819	-5e-05	-0.00031	-7e-05	-0.00013	-0.0001	4e-05	1e-05	1e-05	2
7820	-3e-05	0.00014	9e-05	0.00027	9e-05	0	-0.00011	-7e-05	2
7821	0	2e-05	-0.0001	-4e-05	7e-05	0	1e-05	-2e-05	2
7822	0	2e-05	-0.0001	-4e-05	7e-05	0	1e-05	-2e-05	2
7823	0	2e-05	-0.0001	-4e-05	7e-05	0	1e-05	-2e-05	2
7824	0	2e-05	-0.0001	-4e-05	7e-05	0	1e-05	-2e-05	2
7825	0	2e-05	-0.0001	-4e-05	7e-05	0	1e-05	-2e-05	2
7826	0	2e-05	-0.0001	-4e-05	7e-05	0	1e-05	-2e-05	2
7827	0	2e-05	-0.0001	-4e-05	7e-05	0	1e-05	-2e-05	2
7828	0	2e-05	-0.0001	-4e-05	7e-05	0	1e-05	-2e-05	2
7829	0	2e-05	-0.0001	-4e-05	7e-05	0	1e-05	-2e-05	2
7830	0	2e-05	-0.0001	-4e-05	7e-05	0	1e-05	-2e-05	2
7831	0	2e-05	-0.0001	-4e-05	7e-05	0	1e-05	-2e-05	2
7832	0	2e-05	-0.0001	-4e-05	7e-05	0	1e-05	-2e-05	2
7833	2e-05	6e-05	-8e-05	-0.0004	-0.0001	-1e-05	-0.00016	-3e-05	2
7834	2e-05	6e-05	-8e-05	-0.0004	-0.0001	-1e-05	-0.00016	-3e-05	2
7835	2e-05	6e-05	-8e-05	-0.0004	-0.0001	-1e-05	-0.00016	-3e-05	2
7836	2e-05	6e-05	-8e-05	-0.0004	-0.0001	-1e-05	-0.00016	-3e-05	2
7838	2e-05	6e-05	-8e-05	-0.0004	-0.0001	-1e-05	-0.00016	-3e-05	2
7839	2e-05	6e-05	-8e-05	-0.0004	-0.0001	-1e-05	-0.00016	-3e-05	2
7840	-2e-05	-0.00013	0.00013	0.00035	0.00018	-5e-05	-6e-05	1e-05	2
7841	-2e-05	-0.00013	0.00013	0.00035	0.00018	-5e-05	-6e-05	1e-05	2
7842	-2e-05	-0.00013	0.00013	0.00035	0.00018	-5e-05	-6e-05	1e-05	2
7843	-2e-05	-0.00013	0.00013	0.00035	0.00018	-5e-05	-6e-05	1e-05	2
7844	-2e-05	-0.00013	0.00013	0.00035	0.00018	-5e-05	-6e-05	1e-05	2
7845	-2e-05	-0.00013	0.00013	0.00035	0.00018	-5e-05	-6e-05	1e-05	2
7846	-2e-05	-0.00013	0.00013	0.00035	0.00018	-5e-05	-6e-05	1e-05	2
7847	-2e-05	-0.00013	0.00013	0.00035	0.00018	-5e-05	-6e-05	1e-05	2
7848	-2e-05	-0.00013	0.00013	0.00035	0.00018	-5e-05	-6e-05	1e-05	2
7849	-2e-05	-0.00013	0.00013	0.00035	0.00018	-5e-05	-6e-05	1e-05	2
7850	-2e-05	-0.00013	0.00013	0.00035	0.00018	-5e-05	-6e-05	1e-05	2
7851	-2e-05	-0.00013	0.00013	0.00035	0.00018	-5e-05	-6e-05	1e-05	2
39366	0.00012	0.0001	-6e-05	-0.00017	0	0.00014	0.00013	2e-05	2
39367	0.00012	0.0001	-6e-05	-0.00017	0	0.00014	0.00013	2e-05	2
39368	0.00012	0.0001	-6e-05	-0.00017	0	0.00014	0.00013	2e-05	2
39369	0.00012	0.0001	-6e-05	-0.00017	0	0.00014	0.00013	2e-05	2
39370	0.00012	0.0001	-6e-05	-0.00017	0	0.00014	0.00013	2e-05	2
39371	-2e-05	-7e-05	-2e-05	0.00015	0.00012	4e-05	-4e-05	6e-05	2
39372	-2e-05	-7e-05	-2e-05	0.00015	0.00012	4e-05	-4e-05	6e-05	2
39373	-2e-05	-7e-05	-2e-05	0.00015	0.00012	4e-05	-4e-05	6e-05	2
39374	-2e-05	-7e-05	-2e-05	0.00015	0.00012	4e-05	-4e-05	6e-05	2
39375	-2e-05	-7e-05	-2e-05	0.00015	0.00012	4e-05	-4e-05	6e-05	2
39376	-2e-05	-7e-05	-2e-05	0.00015	0.00012	4e-05	-4e-05	6e-05	2
39377	-2e-05	-7e-05	-2e-05	0.00015	0.00012	4e-05	-4e-05	6e-05	2
39378	-2e-05	-7e-05	-2e-05	0.00015	0.00012	4e-05	-4e-05	6e-05	2
39379	-2e-05	-7e-05	-2e-05	0.00015	0.00012	4e-05	-4e-05	6e-05	2
39380	-3e-05	-7e-05	0	0.00034	0.00016	0	-5e-05	0	2
39381	4e-05	-2e-05	-1e-05	-0.0001	-5e-05	0	-3e-05	-6e-05	2
39382	4e-05	-2e-05	-1e-05	-0.0001	-5e-05	0	-3e-05	-6e-05	2
39383	4e-05	-2e-05	-1e-05	-0.0001	-5e-05	0	-3e-05	-6e-05	2
39384	4e-05	-2e-05	-1e-05	-0.0001	-5e-05	0	-3e-05	-6e-05	2
39385	4e-05	-2e-05	-1e-05	-0.0001	-5e-05	0	-3e-05	-6e-05	2
39386	4e-05	-2e-05	-1e-05	-0.0001	-5e-05	0	-3e-05	-6e-05	2
39388	4e-05	-2e-05	-1e-05	-0.0001	-5e-05	0	-3e-05	-6e-05	2
39389	4e-05	-2e-05	-1e-05	-0.0001	-5e-05	0	-3e-05	-6e-05	2
39390	4e-05	-2e-05	-1e-05	-0.0001	-5e-05	0	-3e-05	-6e-05	2
39391	4e-05	-2e-05	-1e-05	-0.0001	-5e-05	0	-3e-05	-6e-05	2
39392	4e-05	-2e-05	-1e-05	-0.0001	-5e-05	0	-3e-05	-6e-05	2
39393	4e-05	-2e-05	-1e-05	-0.0001	-5e-05	0	-3e-05	-6e-05	2
39394	4e-05	-2e-05	-1e-05	-0.0001	-5e-05	0	-3e-05	-6e-05	2
39395	4e-05	-2e-05	-1e-05	-0.0001	-5e-05	0	-3e-05	-6e-05	2
39396	4e-05	-2e-05	-1e-05	-0.0001	-5e-05	0	-3e-05	-6e-05	2
39397	4e-05	-2e-05	-1e-05	-0.0001	-5e-05	0	-3e-05	-6e-05	2
39398	4e-05	-2e-05	-1e-05	-0.0001	-5e-05	0	-3e-05	-6e-05	2
39399	4e-05	-2e-05	-1e-05	-0.0001	-5e-05	0	-3e-05	-6e-05	2
39400	4e-05	-2e-05	-1e-05	-0.0001	-5e-05	0	-3e-05	-6e-05	2
39401	4e-05	-2e-05	-1e-05	-0.0001	-5e-05	0	-3e-05	-6e-05	2
39402	4e-05	-2e-05	-1e-05	-0.0001	-5e-05	0	-3e-05	-6e-05	2
39403	4e-05	-2e-05	-1e-05	-0.0001	-5e-05	0	-3e-05	-6e-05	2
39404	4e-05	-2e-05	-1e-05	-0.0001	-5e-05	0	-3e-05	-6e-05	2
39405	4e-05	-2e-05	-1e-05	-0.0001	-5e-05	0	-3e-05	-6e-05	2
39406	4e-05	-2e-05	-1e-05	-0.0001	-5e-05	0	-3e-05	-6e-05	2
39407	4e-05	-2e-05	-1e-05	-0.0001	-5e-05	0	-3e-05	-6e-05	2
39408	4e-05	-2e-05	-1e-05	-0.0001	-5e-05	0	-3e-05	-6e-05	2
39409	4e-05	-2e-05	-1e-05	-0.0001	-5e-05	0	-3e-05	-6e-05	2
39410	4e-05	-2e-05	-1e-05	-0.0001	-5e-05	0	-3e-05	-6e-05	2
39411	0	5e-05	8e-05	0.00031	7e-05	-4e-05	0.00036	2e-05	2
39412	-1e-05	1e-05	3e-05	-2e-05	3e-05	-9e-05	-0.0002	-9e-05	2
39413	-1e-05	1e-05	3e-05	-2e-05	3e-05	-9e-05	-0.0002	-9e-05	2
39414	-1e-05	1e-05	3e-05	-2e-05	3e-05	-9e-05	-0.0002	-9e-05	2
39415	-6e-05	0	1e-05	-0.00017	-1e-05	-2e-05	2e-05	2e-05	2
39416	0.0001	8e-05	0.00013	5e-05	-0.00014	-2e-05	-7e-05	-3e-05	2
39417	0.0001	8e-05	0.00013	5e-05	-0.00014	-2e-05	-7e-05	-3e-05	2
39418	0.0001	8e-05	0.00013	5e-05	-0.00014	-2e-05	-7e-05	-3e-05	2
39419	0.0001	8e-05	0.00013	5e-05	-0.00014	-2e-05	-7e-05	-3e-05	2
39420	0.0001	8e-05	0.00013	5e-05	-0.00014	-2e-05	-7e-05	-3e-05	2
39421	0.0001	8e-05	0.00013	5e-05	-0.00014	-2e-05	-7e-05	-3e-05	2
39422	0.0001	8e-05	0.00013	5e-05	-0.00014	-2e-05	-7e-05	-3e-05	2
39423	0.0001	8e-05	0.00013	5e-05	-0.00014	-2e-05	-7e-05	-3e-05	2
39424	3e-05	6e-05	1e-05	-0.0001	-6e-05	-0.0001	4e-05	-4e-05	2
39425	3e-05	6e-05	1e-05	-0.0001	-6e-05	-0.0001	4e-05	-4e-05	2
39426	3e-05	6e-05	1e-05	-0.0001	-6e-05	-0.0001	4e-05	-4e-05	2
39427	3e-05	6e-05	1e-05	-0.0001	-6e-05	-0.0001	4e-05	-4e-05	2
39428	3e-05	6e-05	1e-05	-0.0001	-6e-05	-0.0001	4e-05	-4e-05	2
39429	3e-05	6e-05	1e-05	-0.0001	-6e-05	-0.0001	4e-05	-4e-05	2
39430	3e-05	6e-05	1e-05	-0.0001	-6e-05	-0.0001	4e-05	-4e-05	2
39431	3e-05	6e-05	1e-05	-0.0001	-6e-05	-0.0001	4e-05	-4e-05	2
39432	3e-05	6e-05	1e-05	-0.0001	-6e-05	-0.0001	4e-05	-4e-05	2
39433	3e-05	6e-05	1e-05	-0.0001	-6e-05	-0.0001	4e-05	-4e-05	2
39434	3e-05	6e-05	1e-05	-0.0001	-6e-05	-0.0001	4e-05	-4e-05	2
39435	3e-05	6e-05	1e-05	-0.0001	-6e-05	-0.0001	4e-05	-4e-05	2
39436	3e-05	6e-05	1e-05	-0.0001	-6e-05	-0.0001	4e-05	-4e-05	2
39438	3e-05	6e-05	1e-05	-0.0001	-6e-05	-0.0001	4e-05	-4e-05	2
39439	3e-05	6e-05	1e-05	-0.0001	-6e-05	-0.0001	4e-05	-4e-05	2
39440	3e-05	6e-05	1e-05	-0.0001	-6e-05	-0.0001	4e-05	-4e-05	2
39441	3e-05	6e-05	1e-05	-0.0001	-6e-05	-0.0001	4e-05	-4e-05	2
39442	3e-05	6e-05	1e-05	-0.0001	-6e-05	-0.0001	4e-05	-4e-05	2
39443	3e-05	6e-05	1e-05	-0.0001	-6e-05	-0.0001	4e-05	-4e-05	2
39444	3e-05	6e-05	1e-05	-0.0001	-6e-05	-0.0001	4e-05	-4e-05	2
39445	3e-05	6e-05	1e-05	-0.0001	-6e-05	-0.0001	4e-05	-4e-05	2
39446	3e-05	6e-05	1e-05	-0.0001	-6e-05	-0.0001	4e-05	-4e-05	2
39447	3e-05	6e-05	1e-05	-0.0001	-6e-05	-0.0001	4e-05	-4e-05	2
39448	-4e-05	-0.00013	9e-05	0.00045	0.00025	-9e-05	-9e-05	0	2
39449	-4e-05	-7e-05	-0.00017	-0.0001	-0.00012	-5e-05	-0.00016	-0.00012	2
39450	-4e-05	-7e-05	-0.00017	-0.0001	-0.00012	-5e-05	-0.00016	-0.00012	2
39451	-4e-05	-7e-05	-0.00017	-0.0001	-0.00012	-5e-05	-0.00016	-0.00012	2
39452	-4e-05	-7e-05	-0.00017	-0.0001	-0.00012	-5e-05	-0.00016	-0.00012	2
39453	-4e-05	-7e-05	-0.00017	-0.0001	-0.00012	-5e-05	-0.00016	-0.00012	2
39454	-4e-05	-7e-05	-0.00017	-0.0001	-0.00012	-5e-05	-0.00016	-0.00012	2
39455	-4e-05	-7e-05	-0.00017	-0.0001	-0.00012	-5e-05	-0.00016	-0.00012	2
39456	-4e-05	-7e-05	-0.00017	-0.0001	-0.00012	-5e-05	-0.00016	-0.00012	2
39457	-4e-05	-7e-05	-0.00017	-0.0001	-0.00012	-5e-05	-0.00016	-0.00012	2
39458	-4e-05	-7e-05	-0.00017	-0.0001	-0.00012	-5e-05	-0.00016	-0.00012	2
39459	-4e-05	-7e-05	-0.00017	-0.0001	-0.00012	-5e-05	-0.00016	-0.00012	2
39460	-4e-05	-7e-05	-0.00017	-0.0001	-0.00012	-5e-05	-0.00016	-0.00012	2
39461	-4e-05	-7e-05	-0.00017	-0.0001	-0.00012	-5e-05	-0.00016	-0.00012	2
39462	-4e-05	-7e-05	-0.00017	-0.0001	-0.00012	-5e-05	-0.00016	-0.00012	2
39463	-4e-05	-7e-05	-0.00017	-0.0001	-0.00012	-5e-05	-0.00016	-0.00012	2
39464	-4e-05	-7e-05	-0.00017	-0.0001	-0.00012	-5e-05	-0.00016	-0.00012	2
39465	-4e-05	-7e-05	-0.00017	-0.0001	-0.00012	-5e-05	-0.00016	-0.00012	2
39466	-4e-05	-7e-05	-0.00017	-0.0001	-0.00012	-5e-05	-0.00016	-0.00012	2
39467	-4e-05	-7e-05	-0.00017	-0.0001	-0.00012	-5e-05	-0.00016	-0.00012	2
39468	-4e-05	-7e-05	-0.00017	-0.0001	-0.00012	-5e-05	-0.00016	-0.00012	2
39469	-4e-05	-7e-05	-0.00017	-0.0001	-0.00012	-5e-05	-0.00016	-0.00012	2
39470	-4e-05	-7e-05	-0.00017	-0.0001	-0.00012	-5e-05	-0.00016	-0.00012	2
39471	-4e-05	-7e-05	-0.00017	-0.0001	-0.00012	-5e-05	-0.00016	-0.00012	2
39472	-4e-05	-7e-05	-0.00017	-0.0001	-0.00012	-5e-05	-0.00016	-0.00012	2
39473	-4e-05	-7e-05	-0.00017	-0.0001	-0.00012	-5e-05	-0.00016	-0.00012	2
39474	-4e-05	-7e-05	-0.00017	-0.0001	-0.00012	-5e-05	-0.00016	-0.00012	2
39475	-4e-05	-7e-05	-0.00017	-0.0001	-0.00012	-5e-05	-0.00016	-0.00012	2
39476	-4e-05	-7e-05	-0.00017	-0.0001	-0.00012	-5e-05	-0.00016	-0.00012	2
39477	-4e-05	-7e-05	-0.00017	-0.0001	-0.00012	-5e-05	-0.00016	-0.00012	2
39478	-6e-05	3e-05	0.00014	0.0001	2e-05	9e-05	3e-05	7e-05	2
39479	0.0001	7e-05	4e-05	9e-05	8e-05	0	0.0001	1e-05	2
39480	-6e-05	-8e-05	4e-05	0.00028	4e-05	4e-05	0.00013	2e-05	2
39481	-6e-05	-8e-05	4e-05	0.00028	4e-05	4e-05	0.00013	2e-05	2
39482	-6e-05	-8e-05	4e-05	0.00028	4e-05	4e-05	0.00013	2e-05	2
39483	-6e-05	-8e-05	4e-05	0.00028	4e-05	4e-05	0.00013	2e-05	2
39484	-9e-05	0	3e-05	0.00012	0	5e-05	8e-05	-5e-05	2
39485	-9e-05	0	3e-05	0.00012	0	5e-05	8e-05	-5e-05	2
39486	-9e-05	0	3e-05	0.00012	0	5e-05	8e-05	-5e-05	2
39488	-9e-05	0	3e-05	0.00012	0	5e-05	8e-05	-5e-05	2
39489	-9e-05	0	3e-05	0.00012	0	5e-05	8e-05	-5e-05	2
39490	-9e-05	0	3e-05	0.00012	0	5e-05	8e-05	-5e-05	2
39491	-9e-05	0	3e-05	0.00012	0	5e-05	8e-05	-5e-05	2
39492	-9e-05	0	3e-05	0.00012	0	5e-05	8e-05	-5e-05	2
39493	-9e-05	0	3e-05	0.00012	0	5e-05	8e-05	-5e-05	2
39494	-9e-05	0	3e-05	0.00012	0	5e-05	8e-05	-5e-05	2
39495	-9e-05	0	3e-05	0.00012	0	5e-05	8e-05	-5e-05	2
39496	-9e-05	0	3e-05	0.00012	0	5e-05	8e-05	-5e-05	2
39497	-9e-05	0	3e-05	0.00012	0	5e-05	8e-05	-5e-05	2
39498	-9e-05	0	3e-05	0.00012	0	5e-05	8e-05	-5e-05	2
39499	-9e-05	0	3e-05	0.00012	0	5e-05	8e-05	-5e-05	2
39500	-9e-05	0	3e-05	0.00012	0	5e-05	8e-05	-5e-05	2
39501	-9e-05	0	3e-05	0.00012	0	5e-05	8e-05	-5e-05	2
39502	-9e-05	0	3e-05	0.00012	0	5e-05	8e-05	-5e-05	2
39503	-9e-05	0	3e-05	0.00012	0	5e-05	8e-05	-5e-05	2
39504	-9e-05	0	3e-05	0.00012	0	5e-05	8e-05	-5e-05	2
39505	-9e-05	0	3e-05	0.00012	0	5e-05	8e-05	-5e-05	2
39506	-9e-05	0	3e-05	0.00012	0	5e-05	8e-05	-5e-05	2
39507	-9e-05	0	3e-05	0.00012	0	5e-05	8e-05	-5e-05	2
39508	4e-05	-0.00018	-1e-05	-0.00034	-0.00017	-0.00011	-0.00024	-5e-05	2
39509	-0.00016	-5e-05	5e-05	0.00024	3e-05	5e-05	0.00027	3e-05	2
39510	-0.00016	-5e-05	5e-05	0.00024	3e-05	5e-05	0.00027	3e-05	2
39511	-0.00016	-5e-05	5e-05	0.00024	3e-05	5e-05	0.00027	3e-05	2
39512	-0.00016	-5e-05	5e-05	0.00024	3e-05	5e-05	0.00027	3e-05	2
39513	-0.00016	-5e-05	5e-05	0.00024	3e-05	5e-05	0.00027	3e-05	2
39514	-0.00016	-5e-05	5e-05	0.00024	3e-05	5e-05	0.00027	3e-05	2
39515	-0.00016	-5e-05	5e-05	0.00024	3e-05	5e-05	0.00027	3e-05	2
39516	-0.00016	-5e-05	5e-05	0.00024	3e-05	5e-05	0.00027	3e-05	2
39517	-0.00016	-5e-05	5e-05	0.00024	3e-05	5e-05	0.00027	3e-05	2
39518	-0.00016	-5e-05	5e-05	0.00024	3e-05	5e-05	0.00027	3e-05	2
39519	-0.00016	-5e-05	5e-05	0.00024	3e-05	5e-05	0.00027	3e-05	2
39520	-0.00016	-5e-05	5e-05	0.00024	3e-05	5e-05	0.00027	3e-05	2
39521	-0.00016	-5e-05	5e-05	0.00024	3e-05	5e-05	0.00027	3e-05	2
39522	3e-05	7e-05	4e-05	-0.00011	-3e-05	-4e-05	-0.00016	-1e-05	2
39523	3e-05	1e-05	0.00012	0.00021	0.00017	2e-05	-3e-05	-2e-05	2
39524	3e-05	1e-05	0.00012	0.00021	0.00017	2e-05	-3e-05	-2e-05	2
39525	3e-05	1e-05	0.00012	0.00021	0.00017	2e-05	-3e-05	-2e-05	2
39526	3e-05	1e-05	0.00012	0.00021	0.00017	2e-05	-3e-05	-2e-05	2
39527	3e-05	1e-05	0.00012	0.00021	0.00017	2e-05	-3e-05	-2e-05	2
39528	3e-05	1e-05	0.00012	0.00021	0.00017	2e-05	-3e-05	-2e-05	2
39529	3e-05	1e-05	0.00012	0.00021	0.00017	2e-05	-3e-05	-2e-05	2
39530	3e-05	1e-05	0.00012	0.00021	0.00017	2e-05	-3e-05	-2e-05	2
39531	3e-05	1e-05	0.00012	0.00021	0.00017	2e-05	-3e-05	-2e-05	2
39532	3e-05	1e-05	0.00012	0.00021	0.00017	2e-05	-3e-05	-2e-05	2
39534	3e-05	1e-05	0.00012	0.00021	0.00017	2e-05	-3e-05	-2e-05	2
39535	3e-05	1e-05	0.00012	0.00021	0.00017	2e-05	-3e-05	-2e-05	2
39536	3e-05	1e-05	0.00012	0.00021	0.00017	2e-05	-3e-05	-2e-05	2
39538	3e-05	1e-05	0.00012	0.00021	0.00017	2e-05	-3e-05	-2e-05	2
39539	3e-05	1e-05	0.00012	0.00021	0.00017	2e-05	-3e-05	-2e-05	2
39540	3e-05	1e-05	0.00012	0.00021	0.00017	2e-05	-3e-05	-2e-05	2
39541	3e-05	1e-05	0.00012	0.00021	0.00017	2e-05	-3e-05	-2e-05	2
39542	3e-05	1e-05	0.00012	0.00021	0.00017	2e-05	-3e-05	-2e-05	2
39543	3e-05	1e-05	0.00012	0.00021	0.00017	2e-05	-3e-05	-2e-05	2
39544	3e-05	1e-05	0.00012	0.00021	0.00017	2e-05	-3e-05	-2e-05	2
39545	-6e-05	-6e-05	-4e-05	5e-05	-7e-05	0	0.00013	-7e-05	2
39546	-6e-05	-6e-05	-4e-05	5e-05	-7e-05	0	0.00013	-7e-05	2
39547	-6e-05	-6e-05	-4e-05	5e-05	-7e-05	0	0.00013	-7e-05	2
39548	-6e-05	-6e-05	-4e-05	5e-05	-7e-05	0	0.00013	-7e-05	2
39549	-6e-05	-6e-05	-4e-05	5e-05	-7e-05	0	0.00013	-7e-05	2
39550	-6e-05	-6e-05	-4e-05	5e-05	-7e-05	0	0.00013	-7e-05	2
39551	-6e-05	-6e-05	-4e-05	5e-05	-7e-05	0	0.00013	-7e-05	2
39552	-6e-05	-6e-05	-4e-05	5e-05	-7e-05	0	0.00013	-7e-05	2
39553	-6e-05	-6e-05	-4e-05	5e-05	-7e-05	0	0.00013	-7e-05	2
39554	-6e-05	-6e-05	-4e-05	5e-05	-7e-05	0	0.00013	-7e-05	2
39555	-6e-05	-6e-05	-4e-05	5e-05	-7e-05	0	0.00013	-7e-05	2
39556	-6e-05	-6e-05	-4e-05	5e-05	-7e-05	0	0.00013	-7e-05	2
39557	-6e-05	-6e-05	-4e-05	5e-05	-7e-05	0	0.00013	-7e-05	2
39558	-6e-05	-6e-05	-4e-05	5e-05	-7e-05	0	0.00013	-7e-05	2
39559	9e-05	8e-05	6e-05	0.00021	0.00012	0.00011	9e-05	0.00017	2
39560	-0.00015	-5e-05	-0.00017	-0.00038	-0.0001	-7e-05	-2e-05	-0.00016	2
39561	-0.00015	-5e-05	-0.00017	-0.00038	-0.0001	-7e-05	-2e-05	-0.00016	2
39562	-0.00015	-5e-05	-0.00017	-0.00038	-0.0001	-7e-05	-2e-05	-0.00016	2
39563	-0.00015	-5e-05	-0.00017	-0.00038	-0.0001	-7e-05	-2e-05	-0.00016	2
39564	-0.00015	-5e-05	-0.00017	-0.00038	-0.0001	-7e-05	-2e-05	-0.00016	2
39565	-0.00015	-5e-05	-0.00017	-0.00038	-0.0001	-7e-05	-2e-05	-0.00016	2
39566	-0.00015	-5e-05	-0.00017	-0.00038	-0.0001	-7e-05	-2e-05	-0.00016	2
39567	-0.00015	-5e-05	-0.00017	-0.00038	-0.0001	-7e-05	-2e-05	-0.00016	2
39568	-0.00015	-5e-05	-0.00017	-0.00038	-0.0001	-7e-05	-2e-05	-0.00016	2
39569	-0.00015	-5e-05	-0.00017	-0.00038	-0.0001	-7e-05	-2e-05	-0.00016	2
39570	-0.00015	-5e-05	-0.00017	-0.00038	-0.0001	-7e-05	-2e-05	-0.00016	2
39571	-0.00015	-5e-05	-0.00017	-0.00038	-0.0001	-7e-05	-2e-05	-0.00016	2
39572	-0.00015	-5e-05	-0.00017	-0.00038	-0.0001	-7e-05	-2e-05	-0.00016	2
39573	-0.00015	-5e-05	-0.00017	-0.00038	-0.0001	-7e-05	-2e-05	-0.00016	2
39574	-0.00015	-5e-05	-0.00017	-0.00038	-0.0001	-7e-05	-2e-05	-0.00016	2
39575	-0.00015	-5e-05	-0.00017	-0.00038	-0.0001	-7e-05	-2e-05	-0.00016	2
39576	-0.00015	-5e-05	-0.00017	-0.00038	-0.0001	-7e-05	-2e-05	-0.00016	2
39577	-0.00015	-5e-05	-0.00017	-0.00038	-0.0001	-7e-05	-2e-05	-0.00016	2
39578	-0.00015	-5e-05	-0.00017	-0.00038	-0.0001	-7e-05	-2e-05	-0.00016	2
39579	-0.00015	-5e-05	-0.00017	-0.00038	-0.0001	-7e-05	-2e-05	-0.00016	2
39580	-0.00015	-5e-05	-0.00017	-0.00038	-0.0001	-7e-05	-2e-05	-0.00016	2
39581	-0.00015	-5e-05	-0.00017	-0.00038	-0.0001	-7e-05	-2e-05	-0.00016	2
39582	-0.00015	-5e-05	-0.00017	-0.00038	-0.0001	-7e-05	-2e-05	-0.00016	2
39583	-1e-05	-3e-05	-5e-05	0.00027	3e-05	0	-0.00011	-9e-05	2
39584	4e-05	3e-05	-0.0001	-0.00012	-5e-05	6e-05	2e-05	0.00011	2
39585	4e-05	3e-05	-0.0001	-0.00012	-5e-05	6e-05	2e-05	0.00011	2
39586	4e-05	3e-05	-0.0001	-0.00012	-5e-05	6e-05	2e-05	0.00011	2
39588	4e-05	3e-05	-0.0001	-0.00012	-5e-05	6e-05	2e-05	0.00011	2
39589	4e-05	3e-05	-0.0001	-0.00012	-5e-05	6e-05	2e-05	0.00011	2
39590	4e-05	3e-05	-0.0001	-0.00012	-5e-05	6e-05	2e-05	0.00011	2
39591	4e-05	3e-05	-0.0001	-0.00012	-5e-05	6e-05	2e-05	0.00011	2
39592	4e-05	3e-05	-0.0001	-0.00012	-5e-05	6e-05	2e-05	0.00011	2
39593	4e-05	3e-05	-0.0001	-0.00012	-5e-05	6e-05	2e-05	0.00011	2
39594	4e-05	3e-05	-0.0001	-0.00012	-5e-05	6e-05	2e-05	0.00011	2
39595	4e-05	3e-05	-0.0001	-0.00012	-5e-05	6e-05	2e-05	0.00011	2
39596	0	2e-05	0	0	2e-05	-5e-05	6e-05	-7e-05	2
39597	0	2e-05	0	0	2e-05	-5e-05	6e-05	-7e-05	2
39598	0	2e-05	0	0	2e-05	-5e-05	6e-05	-7e-05	2
39599	0	2e-05	0	0	2e-05	-5e-05	6e-05	-7e-05	2
39600	0	2e-05	0	0	2e-05	-5e-05	6e-05	-7e-05	2
39601	0	2e-05	0	0	2e-05	-5e-05	6e-05	-7e-05	2
39602	0	2e-05	0	0	2e-05	-5e-05	6e-05	-7e-05	2
39603	0	2e-05	0	0	2e-05	-5e-05	6e-05	-7e-05	2
39604	0	2e-05	0	0	2e-05	-5e-05	6e-05	-7e-05	2
39605	0	2e-05	0	0	2e-05	-5e-05	6e-05	-7e-05	2
39606	0	2e-05	0	0	2e-05	-5e-05	6e-05	-7e-05	2
39607	0	2e-05	0	0	2e-05	-5e-05	6e-05	-7e-05	2
39608	0	2e-05	0	0	2e-05	-5e-05	6e-05	-7e-05	2
39609	0	2e-05	0	0	2e-05	-5e-05	6e-05	-7e-05	2
39610	0	2e-05	0	0	2e-05	-5e-05	6e-05	-7e-05	2
39611	-0.00015	-0.00017	-8e-05	0.0002	-0.00012	-0.00012	-0.00022	-1e-05	2
39612	-0.00015	-0.00017	-8e-05	0.0002	-0.00012	-0.00012	-0.00022	-1e-05	2
39613	-0.00015	-0.00017	-8e-05	0.0002	-0.00012	-0.00012	-0.00022	-1e-05	2
39614	-0.00015	-0.00017	-8e-05	0.0002	-0.00012	-0.00012	-0.00022	-1e-05	2
39615	-0.00015	-0.00017	-8e-05	0.0002	-0.00012	-0.00012	-0.00022	-1e-05	2
39616	-0.00015	-0.00017	-8e-05	0.0002	-0.00012	-0.00012	-0.00022	-1e-05	2
39617	-0.00015	-0.00017	-8e-05	0.0002	-0.00012	-0.00012	-0.00022	-1e-05	2
39618	-0.00015	-0.00017	-8e-05	0.0002	-0.00012	-0.00012	-0.00022	-1e-05	2
39619	-0.00013	-0.00011	-0.00029	-0.00044	-5e-05	3e-05	0.0001	-6e-05	2
39620	0.00012	0.00011	0.00013	0.00018	8e-05	0	-4e-05	0.00011	2
39621	0.00012	0.00011	0.00013	0.00018	8e-05	0	-4e-05	0.00011	2
39622	0.00012	0.00011	0.00013	0.00018	8e-05	0	-4e-05	0.00011	2
39623	0.00012	0.00011	0.00013	0.00018	8e-05	0	-4e-05	0.00011	2
39624	0.00012	0.00011	0.00013	0.00018	8e-05	0	-4e-05	0.00011	2
39625	0.00012	0.00011	0.00013	0.00018	8e-05	0	-4e-05	0.00011	2
39626	0.00012	0.00011	0.00013	0.00018	8e-05	0	-4e-05	0.00011	2
39627	0.00012	0.00011	0.00013	0.00018	8e-05	0	-4e-05	0.00011	2
39628	0.00012	0.00011	0.00013	0.00018	8e-05	0	-4e-05	0.00011	2
39629	0.00012	0.00011	0.00013	0.00018	8e-05	0	-4e-05	0.00011	2
39630	0.00012	0.00011	0.00013	0.00018	8e-05	0	-4e-05	0.00011	2
39631	0.00012	0.00011	0.00013	0.00018	8e-05	0	-4e-05	0.00011	2
39632	0.00012	0.00011	0.00013	0.00018	8e-05	0	-4e-05	0.00011	2
39633	0.00012	0.00011	0.00013	0.00018	8e-05	0	-4e-05	0.00011	2
39634	0.00012	0.00011	0.00013	0.00018	8e-05	0	-4e-05	0.00011	2
39635	0.00012	0.00011	0.00013	0.00018	8e-05	0	-4e-05	0.00011	2
39636	0.00012	0.00011	0.00013	0.00018	8e-05	0	-4e-05	0.00011	2
39638	0.00012	0.00011	0.00013	0.00018	8e-05	0	-4e-05	0.00011	2
39639	0.00012	0.00011	0.00013	0.00018	8e-05	0	-4e-05	0.00011	2
39640	0.00012	0.00011	0.00013	0.00018	8e-05	0	-4e-05	0.00011	2
39641	0.00012	0.00011	0.00013	0.00018	8e-05	0	-4e-05	0.00011	2
39642	0.00012	0.00011	0.00013	0.00018	8e-05	0	-4e-05	0.00011	2
39643	0.00012	0.00011	0.00013	0.00018	8e-05	0	-4e-05	0.00011	2
39644	0.00012	0.00011	0.00013	0.00018	8e-05	0	-4e-05	0.00011	2
39645	0.00012	0.00011	0.00013	0.00018	8e-05	0	-4e-05	0.00011	2
39646	0.00012	0.00011	0.00013	0.00018	8e-05	0	-4e-05	0.00011	2
39647	0.00012	0.00011	0.00013	0.00018	8e-05	0	-4e-05	0.00011	2
39648	0.00012	0.00011	0.00013	0.00018	8e-05	0	-4e-05	0.00011	2
39649	0.00012	0.00011	0.00013	0.00018	8e-05	0	-4e-05	0.00011	2
39650	6e-05	7e-05	2e-05	7e-05	4e-05	6e-05	5e-05	0	2
39651	-1e-05	-1e-05	-0.00017	-0.0004	-4e-05	0	-0.00014	-8e-05	2
39652	-1e-05	-1e-05	-0.00017	-0.0004	-4e-05	0	-0.00014	-8e-05	2
39653	-1e-05	-1e-05	-0.00017	-0.0004	-4e-05	0	-0.00014	-8e-05	2
39654	-1e-05	-1e-05	-0.00017	-0.0004	-4e-05	0	-0.00014	-8e-05	2
39655	-1e-05	-1e-05	-0.00017	-0.0004	-4e-05	0	-0.00014	-8e-05	2
39656	2e-05	1e-05	1e-05	-7e-05	0	0	-0.0001	-1e-05	2
39657	2e-05	1e-05	1e-05	-7e-05	0	0	-0.0001	-1e-05	2
39658	2e-05	1e-05	1e-05	-7e-05	0	0	-0.0001	-1e-05	2
39659	2e-05	1e-05	1e-05	-7e-05	0	0	-0.0001	-1e-05	2
39660	2e-05	1e-05	1e-05	-7e-05	0	0	-0.0001	-1e-05	2
39661	2e-05	1e-05	1e-05	-7e-05	0	0	-0.0001	-1e-05	2
39662	2e-05	1e-05	1e-05	-7e-05	0	0	-0.0001	-1e-05	2
39663	2e-05	1e-05	1e-05	-7e-05	0	0	-0.0001	-1e-05	2
39664	2e-05	0	-0.00014	-0.00038	2e-05	3e-05	0.0001	-6e-05	2
39665	2e-05	0	-0.00014	-0.00038	2e-05	3e-05	0.0001	-6e-05	2
39666	2e-05	0	-0.00014	-0.00038	2e-05	3e-05	0.0001	-6e-05	2
39667	2e-05	0	-0.00014	-0.00038	2e-05	3e-05	0.0001	-6e-05	2
39668	2e-05	0	-0.00014	-0.00038	2e-05	3e-05	0.0001	-6e-05	2
39669	2e-05	0	-0.00014	-0.00038	2e-05	3e-05	0.0001	-6e-05	2
39670	2e-05	0	-0.00014	-0.00038	2e-05	3e-05	0.0001	-6e-05	2
39671	2e-05	0	-0.00014	-0.00038	2e-05	3e-05	0.0001	-6e-05	2
