17566	-9e-05	-0.0001	-7e-05	0.00015	8e-05	-0.00046	-8e-05	-8e-05	4
17567	-9e-05	-0.0001	-7e-05	0.00015	8e-05	-0.00046	-8e-05	-8e-05	4
17568	-9e-05	-0.0001	-7e-05	0.00015	8e-05	-0.00046	-8e-05	-8e-05	4
17569	-9e-05	-0.0001	-7e-05	0.00015	8e-05	-0.00046	-8e-05	-8e-05	4
17570	-9e-05	-0.0001	-7e-05	0.00015	8e-05	-0.00046	-8e-05	-8e-05	4
17571	-9e-05	-0.0001	-7e-05	0.00015	8e-05	-0.00046	-8e-05	-8e-05	4
17572	-9e-05	-0.0001	-7e-05	0.00015	8e-05	-0.00046	-8e-05	-8e-05	4
17573	-9e-05	-0.0001	-7e-05	0.00015	8e-05	-0.00046	-8e-05	-8e-05	4
17574	-9e-05	-0.0001	-7e-05	0.00015	8e-05	-0.00046	-8e-05	-8e-05	4
17575	-9e-05	-0.0001	-7e-05	0.00015	8e-05	-0.00046	-8e-05	-8e-05	4
17576	-9e-05	-0.0001	-7e-05	0.00015	8e-05	-0.00046	-8e-05	-8e-05	4
17577	-9e-05	-0.0001	-7e-05	0.00015	8e-05	-0.00046	-8e-05	-8e-05	4
17578	-9e-05	-0.0001	-7e-05	0.00015	8e-05	-0.00046	-8e-05	-8e-05	4
17579	-9e-05	-0.0001	-7e-05	0.00015	8e-05	-0.00046	-8e-05	-8e-05	4
17580	-9e-05	-0.0001	-7e-05	0.00015	8e-05	-0.00046	-8e-05	-8e-05	4
17581	-9e-05	-0.0001	-7e-05	0.00015	8e-05	-0.00046	-8e-05	-8e-05	4
17582	-9e-05	-0.0001	-7e-05	0.00015	8e-05	-0.00046	-8e-05	-8e-05	4
17583	-9e-05	-0.0001	-7e-05	0.00015	8e-05	-0.00046	-8e-05	-8e-05	4
17584	-9e-05	-0.0001	-7e-05	0.00015	8e-05	-0.00046	-8e-05	-8e-05	4
17585	-6e-05	-0.00013	-0.00037	-0.00058	0.00011	0.00047	-6e-05	-9e-05	4
17586	-0.00013	-0.00012	-0.00012	0.00026	-0.00021	-0.00051	-0.00022	-0.00012	4
17588	-0.00013	-0.00012	-0.00012	0.00026	-0.00021	-0.00051	-0.00022	-0.00012	4
17589	-0.00013	-0.00012	-0.00012	0.00026	-0.00021	-0.00051	-0.00022	-0.00012	4
17590	-0.00013	-0.00012	-0.00012	0.00026	-0.00021	-0.00051	-0.00022	-0.00012	4
17591	-0.00013	-0.00012	-0.00012	0.00026	-0.00021	-0.00051	-0.00022	-0.00012	4
17592	-0.00013	-0.00012	-0.00012	0.00026	-0.00021	-0.00051	-0.00022	-0.00012	4
17593	-0.00013	-0.00012	-0.00012	0.00026	-0.00021	-0.00051	-0.00022	-0.00012	4
17594	-0.00013	-0.00012	-0.00012	0.00026	-0.00021	-0.00051	-0.00022	-0.00012	4
17595	-0.00013	-0.00012	-0.00012	0.00026	-0.00021	-0.00051	-0.00022	-0.00012	4
17596	-0.00013	-0.00012	-0.00012	0.00026	-0.00021	-0.00051	-0.00022	-0.00012	4
17597	-0.00013	-0.00012	-0.00012	0.00026	-0.00021	-0.00051	-0.00022	-0.00012	4
17598	-1e-05	-1e-05	6e-05	-5e-05	0.00072	0.00055	0.00015	-2e-05	4
17599	-1e-05	-1e-05	6e-05	-5e-05	0.00072	0.00055	0.00015	-2e-05	4
17600	-1e-05	-1e-05	6e-05	-5e-05	0.00072	0.00055	0.00015	-2e-05	4
17601	-1e-05	-1e-05	6e-05	-5e-05	0.00072	0.00055	0.00015	-2e-05	4
17602	-1e-05	-1e-05	6e-05	-5e-05	0.00072	0.00055	0.00015	-2e-05	4
17603	-1e-05	-1e-05	6e-05	-5e-05	0.00072	0.00055	0.00015	-2e-05	4
17604	-1e-05	-1e-05	6e-05	-5e-05	0.00072	0.00055	0.00015	-2e-05	4
17605	-1e-05	-1e-05	6e-05	-5e-05	0.00072	0.00055	0.00015	-2e-05	4
17606	-1e-05	-1e-05	6e-05	-5e-05	0.00072	0.00055	0.00015	-2e-05	4
17607	-5e-05	-4e-05	2e-05	0.00027	-3e-05	-0.0003	-6e-05	-6e-05	4
17608	-5e-05	-4e-05	2e-05	0.00027	-3e-05	-0.0003	-6e-05	-6e-05	4
17609	-5e-05	-4e-05	2e-05	0.00027	-3e-05	-0.0003	-6e-05	-6e-05	4
17610	-5e-05	-4e-05	2e-05	0.00027	-3e-05	-0.0003	-6e-05	-6e-05	4
17611	-5e-05	-4e-05	2e-05	0.00027	-3e-05	-0.0003	-6e-05	-6e-05	4
17614	-5e-05	-4e-05	2e-05	0.00027	-3e-05	-0.0003	-6e-05	-6e-05	4
17615	-5e-05	-4e-05	2e-05	0.00027	-3e-05	-0.0003	-6e-05	-6e-05	4
17616	-5e-05	-4e-05	2e-05	0.00027	-3e-05	-0.0003	-6e-05	-6e-05	4
17617	-5e-05	-4e-05	2e-05	0.00027	-3e-05	-0.0003	-6e-05	-6e-05	4
17618	-5e-05	-4e-05	2e-05	0.00027	-3e-05	-0.0003	-6e-05	-6e-05	4
17619	-5e-05	-4e-05	2e-05	0.00027	-3e-05	-0.0003	-6e-05	-6e-05	4
17620	-5e-05	-4e-05	2e-05	0.00027	-3e-05	-0.0003	-6e-05	-6e-05	4
17621	-5e-05	-4e-05	2e-05	0.00027	-3e-05	-0.0003	-6e-05	-6e-05	4
17622	2e-05	4e-05	0.00016	0.00086	0.0006	0.00017	0.00014	7e-05	4
17623	2e-05	4e-05	0.00016	0.00086	0.0006	0.00017	0.00014	7e-05	4
17624	2e-05	4e-05	4e-05	-0.00041	-0.0001	-0.00025	-0.0001	3e-05	4
17625	2e-05	4e-05	4e-05	-0.00041	-0.0001	-0.00025	-0.0001	3e-05	4
17626	2e-05	4e-05	4e-05	-0.00041	-0.0001	-0.00025	-0.0001	3e-05	4
17627	2e-05	4e-05	4e-05	-0.00041	-0.0001	-0.00025	-0.0001	3e-05	4
17628	2e-05	4e-05	4e-05	-0.00041	-0.0001	-0.00025	-0.0001	3e-05	4
17629	2e-05	4e-05	4e-05	-0.00041	-0.0001	-0.00025	-0.0001	3e-05	4
17630	2e-05	4e-05	4e-05	-0.00041	-0.0001	-0.00025	-0.0001	3e-05	4
17631	2e-05	4e-05	4e-05	-0.00041	-0.0001	-0.00025	-0.0001	3e-05	4
17632	2e-05	4e-05	4e-05	-0.00041	-0.0001	-0.00025	-0.0001	3e-05	4
17633	2e-05	4e-05	4e-05	-0.00041	-0.0001	-0.00025	-0.0001	3e-05	4
17634	2e-05	4e-05	4e-05	-0.00041	-0.0001	-0.00025	-0.0001	3e-05	4
17635	2e-05	4e-05	4e-05	-0.00041	-0.0001	-0.00025	-0.0001	3e-05	4
17636	2e-05	4e-05	4e-05	-0.00041	-0.0001	-0.00025	-0.0001	3e-05	4
17638	2e-05	4e-05	4e-05	-0.00041	-0.0001	-0.00025	-0.0001	3e-05	4
17639	2e-05	4e-05	4e-05	-0.00041	-0.0001	-0.00025	-0.0001	3e-05	4
17640	2e-05	4e-05	4e-05	-0.00041	-0.0001	-0.00025	-0.0001	3e-05	4
17641	2e-05	4e-05	4e-05	-0.00041	-0.0001	-0.00025	-0.0001	3e-05	4
17642	2e-05	4e-05	4e-05	-0.00041	-0.0001	-0.00025	-0.0001	3e-05	4
17643	2e-05	4e-05	4e-05	-0.00041	-0.0001	-0.00025	-0.0001	3e-05	4
17644	-6e-05	-4e-05	-0.00016	-0.00048	-4e-05	-0.00024	-0.00013	-7e-05	4
17645	9e-05	0.00011	0.0002	-4e-05	-0.00083	-0.00016	0.00019	0.00011	4
17646	1e-05	-2e-05	-4e-05	-6e-05	-0.00063	0.00084	1e-05	-5e-05	4
17647	1e-05	-2e-05	-4e-05	-6e-05	-0.00063	0.00084	1e-05	-5e-05	4
17648	1e-05	-2e-05	-4e-05	-6e-05	-0.00063	0.00084	1e-05	-5e-05	4
17649	1e-05	-2e-05	-4e-05	-6e-05	-0.00063	0.00084	1e-05	-5e-05	4
17650	1e-05	-2e-05	-4e-05	-6e-05	-0.00063	0.00084	1e-05	-5e-05	4
17651	1e-05	-2e-05	-4e-05	-6e-05	-0.00063	0.00084	1e-05	-5e-05	4
17652	1e-05	-2e-05	-4e-05	-6e-05	-0.00063	0.00084	1e-05	-5e-05	4
17653	1e-05	-2e-05	-4e-05	-6e-05	-0.00063	0.00084	1e-05	-5e-05	4
17654	1e-05	-2e-05	-4e-05	-6e-05	-0.00063	0.00084	1e-05	-5e-05	4
17655	1e-05	-2e-05	-4e-05	-6e-05	-0.00063	0.00084	1e-05	-5e-05	4
17656	1e-05	-2e-05	-4e-05	-6e-05	-0.00063	0.00084	1e-05	-5e-05	4
17657	1e-05	-2e-05	-4e-05	-6e-05	-0.00063	0.00084	1e-05	-5e-05	4
17658	1e-05	-2e-05	-4e-05	-6e-05	-0.00063	0.00084	1e-05	-5e-05	4
17659	3e-05	2e-05	-5e-05	0.00024	0.00071	-3e-05	1e-05	2e-05	4
17660	3e-05	2e-05	-5e-05	0.00024	0.00071	-3e-05	1e-05	2e-05	4
17661	3e-05	2e-05	-5e-05	0.00024	0.00071	-3e-05	1e-05	2e-05	4
17662	3e-05	2e-05	-5e-05	0.00024	0.00071	-3e-05	1e-05	2e-05	4
17663	3e-05	2e-05	-5e-05	0.00024	0.00071	-3e-05	1e-05	2e-05	4
17664	3e-05	2e-05	-5e-05	0.00024	0.00071	-3e-05	1e-05	2e-05	4
17665	3e-05	2e-05	-5e-05	0.00024	0.00071	-3e-05	1e-05	2e-05	4
17666	-2e-05	1e-05	4e-05	0.00023	-0.00023	0	-1e-05	-4e-05	4
17667	3e-05	-1e-05	-9e-05	-0.00049	0.00024	0.00042	0.00021	7e-05	4
17668	3e-05	-1e-05	-9e-05	-0.00049	0.00024	0.00042	0.00021	7e-05	4
17669	3e-05	-1e-05	-9e-05	-0.00049	0.00024	0.00042	0.00021	7e-05	4
17670	3e-05	-1e-05	-9e-05	-0.00049	0.00024	0.00042	0.00021	7e-05	4
17671	3e-05	-1e-05	-9e-05	-0.00049	0.00024	0.00042	0.00021	7e-05	4
17672	3e-05	-1e-05	-9e-05	-0.00049	0.00024	0.00042	0.00021	7e-05	4
17673	3e-05	-1e-05	-9e-05	-0.00049	0.00024	0.00042	0.00021	7e-05	4
17674	3e-05	-1e-05	-9e-05	-0.00049	0.00024	0.00042	0.00021	7e-05	4
17675	3e-05	-1e-05	-9e-05	-0.00049	0.00024	0.00042	0.00021	7e-05	4
17676	3e-05	-1e-05	-9e-05	-0.00049	0.00024	0.00042	0.00021	7e-05	4
17677	3e-05	-1e-05	-9e-05	-0.00049	0.00024	0.00042	0.00021	7e-05	4
17678	3e-05	-1e-05	-9e-05	-0.00049	0.00024	0.00042	0.00021	7e-05	4
17679	3e-05	-1e-05	-9e-05	-0.00049	0.00024	0.00042	0.00021	7e-05	4
17680	3e-05	-1e-05	-9e-05	-0.00049	0.00024	0.00042	0.00021	7e-05	4
17681	3e-05	-1e-05	-9e-05	-0.00049	0.00024	0.00042	0.00021	7e-05	4
17682	0.00013	0.00016	0.00024	-0.0001	-0.00105	0.00031	0.0002	0.0002	4
17683	-0.0001	-0.00012	-0.00018	-9e-05	-0.00018	-0.00027	-0.00045	-0.00019	4
17684	1e-05	2e-05	3e-05	0.00023	-0.00042	0.00022	0.00015	4e-05	4
17685	1e-05	2e-05	3e-05	0.00023	-0.00042	0.00022	0.00015	4e-05	4
17686	1e-05	2e-05	3e-05	0.00023	-0.00042	0.00022	0.00015	4e-05	4
17688	1e-05	2e-05	3e-05	0.00023	-0.00042	0.00022	0.00015	4e-05	4
17689	1e-05	2e-05	3e-05	0.00023	-0.00042	0.00022	0.00015	4e-05	4
17690	1e-05	2e-05	3e-05	0.00023	-0.00042	0.00022	0.00015	4e-05	4
17691	1e-05	2e-05	3e-05	0.00023	-0.00042	0.00022	0.00015	4e-05	4
17692	1e-05	2e-05	3e-05	0.00023	-0.00042	0.00022	0.00015	4e-05	4
17693	1e-05	2e-05	3e-05	0.00023	-0.00042	0.00022	0.00015	4e-05	4
17694	1e-05	2e-05	3e-05	0.00023	-0.00042	0.00022	0.00015	4e-05	4
17695	1e-05	2e-05	3e-05	0.00023	-0.00042	0.00022	0.00015	4e-05	4
17696	1e-05	2e-05	3e-05	0.00023	-0.00042	0.00022	0.00015	4e-05	4
17697	1e-05	2e-05	3e-05	0.00023	-0.00042	0.00022	0.00015	4e-05	4
17698	1e-05	2e-05	3e-05	0.00023	-0.00042	0.00022	0.00015	4e-05	4
17699	1e-05	2e-05	3e-05	0.00023	-0.00042	0.00022	0.00015	4e-05	4
17700	1e-05	2e-05	3e-05	0.00023	-0.00042	0.00022	0.00015	4e-05	4
17701	1e-05	2e-05	3e-05	0.00023	-0.00042	0.00022	0.00015	4e-05	4
17702	1e-05	2e-05	3e-05	0.00023	-0.00042	0.00022	0.00015	4e-05	4
17703	1e-05	2e-05	3e-05	0.00023	-0.00042	0.00022	0.00015	4e-05	4
17704	-1e-05	-6e-05	-0.00014	-0.0003	-0.00037	-0.00048	-0.00012	-2e-05	4
17705	-6e-05	-4e-05	5e-05	0.00033	0.00051	-4e-05	-0.00014	-9e-05	4
17706	-3e-05	-6e-05	-0.00027	-0.00064	0.00052	-0.0007	-0.0001	1e-05	4
17707	-3e-05	-6e-05	-0.00027	-0.00064	0.00052	-0.0007	-0.0001	1e-05	4
17708	-3e-05	-6e-05	-0.00027	-0.00064	0.00052	-0.0007	-0.0001	1e-05	4
17709	-3e-05	-6e-05	-0.00027	-0.00064	0.00052	-0.0007	-0.0001	1e-05	4
17710	-3e-05	-6e-05	-0.00027	-0.00064	0.00052	-0.0007	-0.0001	1e-05	4
17711	-3e-05	-6e-05	-0.00027	-0.00064	0.00052	-0.0007	-0.0001	1e-05	4
17712	-3e-05	-6e-05	-0.00027	-0.00064	0.00052	-0.0007	-0.0001	1e-05	4
17713	-3e-05	-6e-05	-0.00027	-0.00064	0.00052	-0.0007	-0.0001	1e-05	4
17714	-3e-05	-6e-05	-0.00027	-0.00064	0.00052	-0.0007	-0.0001	1e-05	4
17715	-3e-05	-6e-05	-0.00027	-0.00064	0.00052	-0.0007	-0.0001	1e-05	4
17716	-3e-05	-6e-05	-0.00027	-0.00064	0.00052	-0.0007	-0.0001	1e-05	4
17717	-3e-05	-6e-05	-0.00027	-0.00064	0.00052	-0.0007	-0.0001	1e-05	4
17718	-5e-05	-2e-05	0.00023	0.00071	0.00032	0.00038	-5e-05	-0.0001	4
17719	-5e-05	-2e-05	0.00023	0.00071	0.00032	0.00038	-5e-05	-0.0001	4
17720	-5e-05	-2e-05	0.00023	0.00071	0.00032	0.00038	-5e-05	-0.0001	4
17721	-5e-05	-2e-05	0.00023	0.00071	0.00032	0.00038	-5e-05	-0.0001	4
17722	-5e-05	-2e-05	0.00023	0.00071	0.00032	0.00038	-5e-05	-0.0001	4
17723	-5e-05	-2e-05	0.00023	0.00071	0.00032	0.00038	-5e-05	-0.0001	4
17724	-5e-05	-2e-05	0.00023	0.00071	0.00032	0.00038	-5e-05	-0.0001	4
17725	-5e-05	-2e-05	0.00023	0.00071	0.00032	0.00038	-5e-05	-0.0001	4
17726	-5e-05	-2e-05	0.00023	0.00071	0.00032	0.00038	-5e-05	-0.0001	4
17727	-0.0001	-9e-05	3e-05	0.00062	0.00017	0.00032	-0.00032	-0.00019	4
17728	-0.0001	-9e-05	3e-05	0.00062	0.00017	0.00032	-0.00032	-0.00019	4
17729	-0.0001	-9e-05	3e-05	0.00062	0.00017	0.00032	-0.00032	-0.00019	4
17730	-0.0001	-9e-05	3e-05	0.00062	0.00017	0.00032	-0.00032	-0.00019	4
17731	-0.0001	-9e-05	3e-05	0.00062	0.00017	0.00032	-0.00032	-0.00019	4
17732	-0.0001	-9e-05	3e-05	0.00062	0.00017	0.00032	-0.00032	-0.00019	4
17733	-0.0001	-9e-05	3e-05	0.00062	0.00017	0.00032	-0.00032	-0.00019	4
17734	-0.0001	-9e-05	3e-05	0.00062	0.00017	0.00032	-0.00032	-0.00019	4
17735	-0.0001	-9e-05	3e-05	0.00062	0.00017	0.00032	-0.00032	-0.00019	4
17736	-0.0001	-9e-05	3e-05	0.00062	0.00017	0.00032	-0.00032	-0.00019	4
17738	-0.0001	-9e-05	3e-05	0.00062	0.00017	0.00032	-0.00032	-0.00019	4
17739	-0.0001	-9e-05	3e-05	0.00062	0.00017	0.00032	-0.00032	-0.00019	4
17740	-0.0001	-9e-05	3e-05	0.00062	0.00017	0.00032	-0.00032	-0.00019	4
17741	-0.0001	-9e-05	3e-05	0.00062	0.00017	0.00032	-0.00032	-0.00019	4
17742	2e-05	2e-05	0.0001	0.0005	0.00086	0.00012	0.00019	6e-05	4
17743	-4e-05	-2e-05	2e-05	-0.00011	-0.00115	-0.00046	-0.00018	-6e-05	4
17744	3e-05	4e-05	0.00012	0.00033	0.00087	-2e-05	1e-05	3e-05	4
17745	3e-05	4e-05	0.00012	0.00033	0.00087	-2e-05	1e-05	3e-05	4
17746	3e-05	4e-05	0.00012	0.00033	0.00087	-2e-05	1e-05	3e-05	4
17747	3e-05	4e-05	0.00012	0.00033	0.00087	-2e-05	1e-05	3e-05	4
17748	3e-05	4e-05	0.00012	0.00033	0.00087	-2e-05	1e-05	3e-05	4
17749	3e-05	4e-05	0.00012	0.00033	0.00087	-2e-05	1e-05	3e-05	4
17750	3e-05	4e-05	0.00012	0.00033	0.00087	-2e-05	1e-05	3e-05	4
17751	3e-05	4e-05	0.00012	0.00033	0.00087	-2e-05	1e-05	3e-05	4
17752	3e-05	4e-05	0.00012	0.00033	0.00087	-2e-05	1e-05	3e-05	4
17753	3e-05	4e-05	0.00012	0.00033	0.00087	-2e-05	1e-05	3e-05	4
17754	3e-05	4e-05	0.00012	0.00033	0.00087	-2e-05	1e-05	3e-05	4
17755	3e-05	4e-05	0.00012	0.00033	0.00087	-2e-05	1e-05	3e-05	4
17756	3e-05	4e-05	0.00012	0.00033	0.00087	-2e-05	1e-05	3e-05	4
17757	3e-05	4e-05	0.00012	0.00033	0.00087	-2e-05	1e-05	3e-05	4
17758	3e-05	4e-05	0.00012	0.00033	0.00087	-2e-05	1e-05	3e-05	4
17759	3e-05	4e-05	0.00012	0.00033	0.00087	-2e-05	1e-05	3e-05	4
17760	3e-05	4e-05	0.00012	0.00033	0.00087	-2e-05	1e-05	3e-05	4
17761	3e-05	4e-05	0.00012	0.00033	0.00087	-2e-05	1e-05	3e-05	4
17762	3e-05	4e-05	0.00012	0.00033	0.00087	-2e-05	1e-05	3e-05	4
17763	3e-05	4e-05	0.00012	0.00033	0.00087	-2e-05	1e-05	3e-05	4
17764	3e-05	4e-05	0.00012	0.00033	0.00087	-2e-05	1e-05	3e-05	4
17765	0	-2e-05	7e-05	0.00036	-0.00018	0.00058	0.00011	-1e-05	4
17766	-0.00011	-0.00011	-0.00016	-8e-05	0.00013	0.00019	6e-05	-9e-05	4
17767	-0.00011	-0.00011	-0.00016	-8e-05	0.00013	0.00019	6e-05	-9e-05	4
17768	-0.00011	-0.00011	-0.00016	-8e-05	0.00013	0.00019	6e-05	-9e-05	4
17769	-0.00011	-0.00011	-0.00016	-8e-05	0.00013	0.00019	6e-05	-9e-05	4
17770	-0.00011	-0.00011	-0.00016	-8e-05	0.00013	0.00019	6e-05	-9e-05	4
17771	-0.00011	-0.00011	-0.00016	-8e-05	0.00013	0.00019	6e-05	-9e-05	4
17772	-0.00011	-0.00011	-0.00016	-8e-05	0.00013	0.00019	6e-05	-9e-05	4
17773	-0.00011	-0.00011	-0.00016	-8e-05	0.00013	0.00019	6e-05	-9e-05	4
17774	-0.00011	-0.00011	-0.00016	-8e-05	0.00013	0.00019	6e-05	-9e-05	4
17775	-0.00011	-0.00011	-0.00016	-8e-05	0.00013	0.00019	6e-05	-9e-05	4
17776	-0.00011	-0.00011	-0.00016	-8e-05	0.00013	0.00019	6e-05	-9e-05	4
17777	-0.00011	-0.00011	-0.00016	-8e-05	0.00013	0.00019	6e-05	-9e-05	4
17778	-4e-05	-8e-05	-0.00014	-7e-05	0.00075	0.00064	4e-05	-1e-05	4
17779	-4e-05	-8e-05	-0.00014	-7e-05	0.00075	0.00064	4e-05	-1e-05	4
17780	-4e-05	-8e-05	-0.00014	-7e-05	0.00075	0.00064	4e-05	-1e-05	4
17781	-4e-05	-8e-05	-0.00014	-7e-05	0.00075	0.00064	4e-05	-1e-05	4
17782	-4e-05	-8e-05	-0.00014	-7e-05	0.00075	0.00064	4e-05	-1e-05	4
17783	-4e-05	-8e-05	-0.00014	-7e-05	0.00075	0.00064	4e-05	-1e-05	4
17784	-4e-05	-8e-05	-0.00014	-7e-05	0.00075	0.00064	4e-05	-1e-05	4
17785	-4e-05	-8e-05	-0.00014	-7e-05	0.00075	0.00064	4e-05	-1e-05	4
17786	-4e-05	-8e-05	-0.00014	-7e-05	0.00075	0.00064	4e-05	-1e-05	4
17788	-4e-05	-8e-05	-0.00014	-7e-05	0.00075	0.00064	4e-05	-1e-05	4
17789	-4e-05	-8e-05	-0.00014	-7e-05	0.00075	0.00064	4e-05	-1e-05	4
17790	-4e-05	-8e-05	-0.00014	-7e-05	0.00075	0.00064	4e-05	-1e-05	4
17791	-4e-05	-8e-05	-0.00014	-7e-05	0.00075	0.00064	4e-05	-1e-05	4
17792	-4e-05	-8e-05	-0.00014	-7e-05	0.00075	0.00064	4e-05	-1e-05	4
17793	-4e-05	-8e-05	-0.00014	-7e-05	0.00075	0.00064	4e-05	-1e-05	4
17794	-4e-05	-8e-05	-0.00014	-7e-05	0.00075	0.00064	4e-05	-1e-05	4
17795	-2e-05	0	1e-05	2e-05	7e-05	-0.00014	-0.00011	-3e-05	4
17796	-2e-05	0	1e-05	2e-05	7e-05	-0.00014	-0.00011	-3e-05	4
17797	-2e-05	0	1e-05	2e-05	7e-05	-0.00014	-0.00011	-3e-05	4
17798	-2e-05	0	1e-05	2e-05	7e-05	-0.00014	-0.00011	-3e-05	4
17799	-2e-05	0	1e-05	2e-05	7e-05	-0.00014	-0.00011	-3e-05	4
17800	-2e-05	0	1e-05	2e-05	7e-05	-0.00014	-0.00011	-3e-05	4
17801	-2e-05	0	1e-05	2e-05	7e-05	-0.00014	-0.00011	-3e-05	4
17802	6e-05	3e-05	-9e-05	-0.00032	-0.0002	0.00035	0.00015	9e-05	4
17803	2e-05	6e-05	8e-05	-7e-05	-0.0002	-0.00061	-6e-05	2e-05	4
17804	0	-1e-05	-1e-05	-4e-05	-0.00036	-0.00012	5e-05	4e-05	4
17805	0	-1e-05	-1e-05	-4e-05	-0.00036	-0.00012	5e-05	4e-05	4
17806	0	-1e-05	-1e-05	-4e-05	-0.00036	-0.00012	5e-05	4e-05	4
17807	0	-1e-05	-1e-05	-4e-05	-0.00036	-0.00012	5e-05	4e-05	4
17808	0	-1e-05	-1e-05	-4e-05	-0.00036	-0.00012	5e-05	4e-05	4
17809	0	-1e-05	-1e-05	-4e-05	-0.00036	-0.00012	5e-05	4e-05	4
17810	0	-1e-05	-1e-05	-4e-05	-0.00036	-0.00012	5e-05	4e-05	4
17811	0	-1e-05	-1e-05	-4e-05	-0.00036	-0.00012	5e-05	4e-05	4
17812	0	-1e-05	-1e-05	-4e-05	-0.00036	-0.00012	5e-05	4e-05	4
17813	0	-1e-05	-1e-05	-4e-05	-0.00036	-0.00012	5e-05	4e-05	4
17814	0	-1e-05	-1e-05	-4e-05	-0.00036	-0.00012	5e-05	4e-05	4
17815	0	-1e-05	-1e-05	-4e-05	-0.00036	-0.00012	5e-05	4e-05	4
17816	0	-1e-05	-1e-05	-4e-05	-0.00036	-0.00012	5e-05	4e-05	4
17817	0	-1e-05	-1e-05	-4e-05	-0.00036	-0.00012	5e-05	4e-05	4
17818	0	-1e-05	-1e-05	-4e-05	-0.00036	-0.00012	5e-05	4e-05	4
17819	0	-1e-05	-1e-05	-4e-05	-0.00036	-0.00012	5e-05	4e-05	4
17820	0	-1e-05	-1e-05	-4e-05	-0.00036	-0.00012	5e-05	4e-05	4
17821	0	-1e-05	-1e-05	-4e-05	-0.00036	-0.00012	5e-05	4e-05	4
17822	0	-1e-05	-1e-05	-4e-05	-0.00036	-0.00012	5e-05	4e-05	4
17823	0	-1e-05	-1e-05	-4e-05	-0.00036	-0.00012	5e-05	4e-05	4
17824	-4e-05	-6e-05	-0.00028	-0.00076	-0.00058	-0.00079	-0.00017	-1e-05	4
17825	-4e-05	-6e-05	-0.00028	-0.00076	-0.00058	-0.00079	-0.00017	-1e-05	4
17826	-1e-05	-2e-05	5e-05	9e-05	-0.00038	4e-05	5e-05	-1e-05	4
17827	-1e-05	-2e-05	5e-05	9e-05	-0.00038	4e-05	5e-05	-1e-05	4
17828	-1e-05	-2e-05	5e-05	9e-05	-0.00038	4e-05	5e-05	-1e-05	4
17829	-1e-05	-2e-05	5e-05	9e-05	-0.00038	4e-05	5e-05	-1e-05	4
17830	-1e-05	-2e-05	5e-05	9e-05	-0.00038	4e-05	5e-05	-1e-05	4
17831	-1e-05	-2e-05	5e-05	9e-05	-0.00038	4e-05	5e-05	-1e-05	4
17832	-1e-05	-2e-05	5e-05	9e-05	-0.00038	4e-05	5e-05	-1e-05	4
17833	-1e-05	-2e-05	5e-05	9e-05	-0.00038	4e-05	5e-05	-1e-05	4
17834	-1e-05	-2e-05	5e-05	9e-05	-0.00038	4e-05	5e-05	-1e-05	4
17835	-1e-05	-2e-05	5e-05	9e-05	-0.00038	4e-05	5e-05	-1e-05	4
17836	-1e-05	-2e-05	5e-05	9e-05	-0.00038	4e-05	5e-05	-1e-05	4
17838	0	2e-05	8e-05	-6e-05	0.00032	0.00026	0.00011	5e-05	4
17839	0	2e-05	8e-05	-6e-05	0.00032	0.00026	0.00011	5e-05	4
17840	0	2e-05	8e-05	-6e-05	0.00032	0.00026	0.00011	5e-05	4
17841	0	2e-05	8e-05	-6e-05	0.00032	0.00026	0.00011	5e-05	4
17842	0	2e-05	8e-05	-6e-05	0.00032	0.00026	0.00011	5e-05	4
17843	0	2e-05	8e-05	-6e-05	0.00032	0.00026	0.00011	5e-05	4
17844	0	2e-05	8e-05	-6e-05	0.00032	0.00026	0.00011	5e-05	4
17845	0	2e-05	8e-05	-6e-05	0.00032	0.00026	0.00011	5e-05	4
17846	0	2e-05	8e-05	-6e-05	0.00032	0.00026	0.00011	5e-05	4
17847	4e-05	3e-05	0.0001	0.0003	0.00012	0.00017	3e-05	0	4
17848	4e-05	3e-05	0.0001	0.0003	0.00012	0.00017	3e-05	0	4
17849	4e-05	3e-05	0.0001	0.0003	0.00012	0.00017	3e-05	0	4
17850	4e-05	3e-05	0.0001	0.0003	0.00012	0.00017	3e-05	0	4
17851	4e-05	3e-05	0.0001	0.0003	0.00012	0.00017	3e-05	0	4
17852	4e-05	3e-05	0.0001	0.0003	0.00012	0.00017	3e-05	0	4
17853	4e-05	3e-05	0.0001	0.0003	0.00012	0.00017	3e-05	0	4
17854	4e-05	3e-05	0.0001	0.0003	0.00012	0.00017	3e-05	0	4
17855	4e-05	3e-05	0.0001	0.0003	0.00012	0.00017	3e-05	0	4
17856	4e-05	3e-05	0.0001	0.0003	0.00012	0.00017	3e-05	0	4
17857	4e-05	3e-05	0.0001	0.0003	0.00012	0.00017	3e-05	0	4
17858	4e-05	3e-05	0.0001	0.0003	0.00012	0.00017	3e-05	0	4
17859	4e-05	3e-05	0.0001	0.0003	0.00012	0.00017	3e-05	0	4
17860	4e-05	3e-05	0.0001	0.0003	0.00012	0.00017	3e-05	0	4
17861	4e-05	3e-05	0.0001	0.0003	0.00012	0.00017	3e-05	0	4
17862	-0.00011	-0.00012	-0.0002	-0.00011	-0.00096	-7e-05	-0.00011	-0.00012	4
17863	1e-05	4e-05	7e-05	9e-05	0.00037	0.00041	9e-05	3e-05	4
17864	3e-05	6e-05	0.00017	0.0004	-0.00042	2e-05	-2e-05	4e-05	4
17865	3e-05	6e-05	0.00017	0.0004	-0.00042	2e-05	-2e-05	4e-05	4
17866	3e-05	6e-05	0.00017	0.0004	-0.00042	2e-05	-2e-05	4e-05	4
17867	3e-05	6e-05	0.00017	0.0004	-0.00042	2e-05	-2e-05	4e-05	4
17868	3e-05	6e-05	0.00017	0.0004	-0.00042	2e-05	-2e-05	4e-05	4
17869	3e-05	6e-05	0.00017	0.0004	-0.00042	2e-05	-2e-05	4e-05	4
17870	3e-05	6e-05	0.00017	0.0004	-0.00042	2e-05	-2e-05	4e-05	4
17871	3e-05	6e-05	0.00017	0.0004	-0.00042	2e-05	-2e-05	4e-05	4
17872	3e-05	6e-05	0.00017	0.0004	-0.00042	2e-05	-2e-05	4e-05	4
17873	3e-05	6e-05	0.00017	0.0004	-0.00042	2e-05	-2e-05	4e-05	4
17874	3e-05	6e-05	0.00017	0.0004	-0.00042	2e-05	-2e-05	4e-05	4
17875	3e-05	6e-05	0.00017	0.0004	-0.00042	2e-05	-2e-05	4e-05	4
17876	3e-05	6e-05	0.00017	0.0004	-0.00042	2e-05	-2e-05	4e-05	4
17877	3e-05	6e-05	0.00017	0.0004	-0.00042	2e-05	-2e-05	4e-05	4
17878	3e-05	6e-05	0.00017	0.0004	-0.00042	2e-05	-2e-05	4e-05	4
17879	3e-05	6e-05	0.00017	0.0004	-0.00042	2e-05	-2e-05	4e-05	4
17880	3e-05	6e-05	0.00017	0.0004	-0.00042	2e-05	-2e-05	4e-05	4
17881	3e-05	6e-05	0.00017	0.0004	-0.00042	2e-05	-2e-05	4e-05	4
17882	3e-05	6e-05	0.00017	0.0004	-0.00042	2e-05	-2e-05	4e-05	4
17883	3e-05	6e-05	0.00017	0.0004	-0.00042	2e-05	-2e-05	4e-05	4
17884	-7e-05	-9e-05	-0.00026	-0.0001	-0.00075	0.00033	0.00013	-3e-05	4
17885	3e-05	2e-05	7e-05	-4e-05	0.00018	-4e-05	-4e-05	2e-05	4
17886	-3e-05	1e-05	0.0001	0.0005	0.00082	-0.00038	-0.00011	-6e-05	4
17888	-3e-05	1e-05	0.0001	0.0005	0.00082	-0.00038	-0.00011	-6e-05	4
17889	-3e-05	1e-05	0.0001	0.0005	0.00082	-0.00038	-0.00011	-6e-05	4
17890	-3e-05	1e-05	0.0001	0.0005	0.00082	-0.00038	-0.00011	-6e-05	4
17891	-3e-05	1e-05	0.0001	0.0005	0.00082	-0.00038	-0.00011	-6e-05	4
17892	-3e-05	1e-05	0.0001	0.0005	0.00082	-0.00038	-0.00011	-6e-05	4
17893	-3e-05	1e-05	0.0001	0.0005	0.00082	-0.00038	-0.00011	-6e-05	4
17894	-3e-05	1e-05	0.0001	0.0005	0.00082	-0.00038	-0.00011	-6e-05	4
17895	-3e-05	1e-05	0.0001	0.0005	0.00082	-0.00038	-0.00011	-6e-05	4
17896	-3e-05	1e-05	0.0001	0.0005	0.00082	-0.00038	-0.00011	-6e-05	4
17897	-3e-05	1e-05	0.0001	0.0005	0.00082	-0.00038	-0.00011	-6e-05	4
17898	-3e-05	1e-05	0.0001	0.0005	0.00082	-0.00038	-0.00011	-6e-05	4
17899	-3e-05	1e-05	0.0001	0.0005	0.00082	-0.00038	-0.00011	-6e-05	4
17900	-3e-05	1e-05	0.0001	0.0005	0.00082	-0.00038	-0.00011	-6e-05	4
17901	-3e-05	1e-05	0.0001	0.0005	0.00082	-0.00038	-0.00011	-6e-05	4
17902	-3e-05	1e-05	0.0001	0.0005	0.00082	-0.00038	-0.00011	-6e-05	4
17903	-3e-05	1e-05	0.0001	0.0005	0.00082	-0.00038	-0.00011	-6e-05	4
17904	-3e-05	1e-05	0.0001	0.0005	0.00082	-0.00038	-0.00011	-6e-05	4
17905	-3e-05	1e-05	0.0001	0.0005	0.00082	-0.00038	-0.00011	-6e-05	4
17906	-3e-05	1e-05	0.0001	0.0005	0.00082	-0.00038	-0.00011	-6e-05	4
17907	-3e-05	1e-05	0.0001	0.0005	0.00082	-0.00038	-0.00011	-6e-05	4
17908	-5e-05	-3e-05	-9e-05	-0.00055	-0.00102	-0.00057	-9e-05	-5e-05	4
17909	-5e-05	-3e-05	-9e-05	-0.00055	-0.00102	-0.00057	-9e-05	-5e-05	4
17910	0.00011	6e-05	6e-05	-0.00014	0.00093	0.0008	0.00032	0.00012	4
17911	0.00011	6e-05	6e-05	-0.00014	0.00093	0.0008	0.00032	0.00012	4
17912	0.00011	6e-05	6e-05	-0.00014	0.00093	0.0008	0.00032	0.00012	4
17913	0.00011	6e-05	6e-05	-0.00014	0.00093	0.0008	0.00032	0.00012	4
17914	0.00011	6e-05	6e-05	-0.00014	0.00093	0.0008	0.00032	0.00012	4
17915	0.00011	6e-05	6e-05	-0.00014	0.00093	0.0008	0.00032	0.00012	4
17916	0.00011	6e-05	6e-05	-0.00014	0.00093	0.0008	0.00032	0.00012	4
17917	0.00011	6e-05	6e-05	-0.00014	0.00093	0.0008	0.00032	0.00012	4
17918	0.00011	6e-05	6e-05	-0.00014	0.00093	0.0008	0.00032	0.00012	4
17919	0.00011	6e-05	6e-05	-0.00014	0.00093	0.0008	0.00032	0.00012	4
17920	0.00011	6e-05	6e-05	-0.00014	0.00093	0.0008	0.00032	0.00012	4
17921	0.00011	6e-05	6e-05	-0.00014	0.00093	0.0008	0.00032	0.00012	4
17922	8e-05	5e-05	0	-0.00039	-0.00092	-0.00017	6e-05	0.0001	4
17923	5e-05	6e-05	0.00017	0.00012	0.00031	-1e-05	0	0	4
17924	-1e-05	-4e-05	-0.00011	-0.00041	-0.0005	0.00038	0	-1e-05	4
17925	-1e-05	-4e-05	-0.00011	-0.00041	-0.0005	0.00038	0	-1e-05	4
17926	-1e-05	-4e-05	-0.00011	-0.00041	-0.0005	0.00038	0	-1e-05	4
17927	-1e-05	-4e-05	-0.00011	-0.00041	-0.0005	0.00038	0	-1e-05	4
17928	-1e-05	-4e-05	-0.00011	-0.00041	-0.0005	0.00038	0	-1e-05	4
17929	-1e-05	-4e-05	-0.00011	-0.00041	-0.0005	0.00038	0	-1e-05	4
17930	-1e-05	-4e-05	-0.00011	-0.00041	-0.0005	0.00038	0	-1e-05	4
17931	-1e-05	-4e-05	-0.00011	-0.00041	-0.0005	0.00038	0	-1e-05	4
17932	-1e-05	-4e-05	-0.00011	-0.00041	-0.0005	0.00038	0	-1e-05	4
17933	-1e-05	-4e-05	-0.00011	-0.00041	-0.0005	0.00038	0	-1e-05	4
17934	-1e-05	-4e-05	-0.00011	-0.00041	-0.0005	0.00038	0	-1e-05	4
17935	-1e-05	-4e-05	-0.00011	-0.00041	-0.0005	0.00038	0	-1e-05	4
17936	-1e-05	-4e-05	-0.00011	-0.00041	-0.0005	0.00038	0	-1e-05	4
17938	-1e-05	-4e-05	-0.00011	-0.00041	-0.0005	0.00038	0	-1e-05	4
17939	-1e-05	-4e-05	-0.00011	-0.00041	-0.0005	0.00038	0	-1e-05	4
17940	-1e-05	-4e-05	-0.00011	-0.00041	-0.0005	0.00038	0	-1e-05	4
17941	-1e-05	-4e-05	-0.00011	-0.00041	-0.0005	0.00038	0	-1e-05	4
17942	-1e-05	-4e-05	-0.00011	-0.00041	-0.0005	0.00038	0	-1e-05	4
17943	-1e-05	-4e-05	-0.00011	-0.00041	-0.0005	0.00038	0	-1e-05	4
17944	0.00017	0.00015	0.00018	-1e-05	0.00063	0.00088	0.00039	0.00019	4
17945	-4e-05	-6e-05	3e-05	0.00072	0.00084	0.00025	3e-05	-4e-05	4
17946	-5e-05	-7e-05	-0.0001	-0.00024	-0.00104	-0.00023	-6e-05	-1e-05	4
17947	-5e-05	-7e-05	-0.0001	-0.00024	-0.00104	-0.00023	-6e-05	-1e-05	4
17948	-5e-05	-7e-05	-0.0001	-0.00024	-0.00104	-0.00023	-6e-05	-1e-05	4
17949	-5e-05	-7e-05	-0.0001	-0.00024	-0.00104	-0.00023	-6e-05	-1e-05	4
17950	-5e-05	-7e-05	-0.0001	-0.00024	-0.00104	-0.00023	-6e-05	-1e-05	4
17951	-5e-05	-7e-05	-0.0001	-0.00024	-0.00104	-0.00023	-6e-05	-1e-05	4
17952	-5e-05	-7e-05	-0.0001	-0.00024	-0.00104	-0.00023	-6e-05	-1e-05	4
17953	-5e-05	-7e-05	-0.0001	-0.00024	-0.00104	-0.00023	-6e-05	-1e-05	4
17954	-5e-05	-7e-05	-0.0001	-0.00024	-0.00104	-0.00023	-6e-05	-1e-05	4
17955	-5e-05	-7e-05	-0.0001	-0.00024	-0.00104	-0.00023	-6e-05	-1e-05	4
17956	-5e-05	-7e-05	-0.0001	-0.00024	-0.00104	-0.00023	-6e-05	-1e-05	4
17957	-5e-05	-7e-05	-0.0001	-0.00024	-0.00104	-0.00023	-6e-05	-1e-05	4
17958	-5e-05	-7e-05	-0.0001	-0.00024	-0.00104	-0.00023	-6e-05	-1e-05	4
17959	-5e-05	-7e-05	-0.0001	-0.00024	-0.00104	-0.00023	-6e-05	-1e-05	4
17960	-5e-05	-7e-05	-0.0001	-0.00024	-0.00104	-0.00023	-6e-05	-1e-05	4
17961	-5e-05	-7e-05	-0.0001	-0.00024	-0.00104	-0.00023	-6e-05	-1e-05	4
17962	-5e-05	-7e-05	-0.0001	-0.00024	-0.00104	-0.00023	-6e-05	-1e-05	4
17963	-5e-05	-7e-05	-0.0001	-0.00024	-0.00104	-0.00023	-6e-05	-1e-05	4
17964	-5e-05	-7e-05	-0.0001	-0.00024	-0.00104	-0.00023	-6e-05	-1e-05	4
17965	-5e-05	-7e-05	-0.0001	-0.00024	-0.00104	-0.00023	-6e-05	-1e-05	4
17966	-5e-05	-7e-05	-0.0001	-0.00024	-0.00104	-0.00023	-6e-05	-1e-05	4
17967	9e-05	0.00016	0.0002	8e-05	0.00043	-6e-05	3e-05	7e-05	4
17968	9e-05	0.00016	0.0002	8e-05	0.00043	-6e-05	3e-05	7e-05	4
17969	3e-05	4e-05	-4e-05	-0.00037	-0.00048	-0.00045	-2e-05	5e-05	4
17970	3e-05	4e-05	-4e-05	-0.00037	-0.00048	-0.00045	-2e-05	5e-05	4
17971	3e-05	4e-05	-4e-05	-0.00037	-0.00048	-0.00045	-2e-05	5e-05	4
17972	3e-05	4e-05	-4e-05	-0.00037	-0.00048	-0.00045	-2e-05	5e-05	4
17973	3e-05	4e-05	-4e-05	-0.00037	-0.00048	-0.00045	-2e-05	5e-05	4
17974	3e-05	4e-05	-4e-05	-0.00037	-0.00048	-0.00045	-2e-05	5e-05	4
17975	3e-05	4e-05	-4e-05	-0.00037	-0.00048	-0.00045	-2e-05	5e-05	4
17976	3e-05	4e-05	-4e-05	-0.00037	-0.00048	-0.00045	-2e-05	5e-05	4
17977	3e-05	4e-05	-4e-05	-0.00037	-0.00048	-0.00045	-2e-05	5e-05	4
17978	3e-05	4e-05	-4e-05	-0.00037	-0.00048	-0.00045	-2e-05	5e-05	4
17979	3e-05	4e-05	-4e-05	-0.00037	-0.00048	-0.00045	-2e-05	5e-05	4
17980	3e-05	4e-05	-4e-05	-0.00037	-0.00048	-0.00045	-2e-05	5e-05	4
17981	3e-05	4e-05	-4e-05	-0.00037	-0.00048	-0.00045	-2e-05	5e-05	4
17982	2e-05	1e-05	-1e-05	-8e-05	0.00034	-0.00083	-4e-05	1e-05	4
17983	-3e-05	2e-05	9e-05	2e-05	-0.0005	0.00057	-2e-05	-2e-05	4
17984	-2e-05	-5e-05	-0.00012	-9e-05	0.00085	3e-05	-7e-05	-4e-05	4
17985	-2e-05	-5e-05	-0.00012	-9e-05	0.00085	3e-05	-7e-05	-4e-05	4
17986	-2e-05	-5e-05	-0.00012	-9e-05	0.00085	3e-05	-7e-05	-4e-05	4
17988	-2e-05	-5e-05	-0.00012	-9e-05	0.00085	3e-05	-7e-05	-4e-05	4
17989	-2e-05	-5e-05	-0.00012	-9e-05	0.00085	3e-05	-7e-05	-4e-05	4
17990	-2e-05	-5e-05	-0.00012	-9e-05	0.00085	3e-05	-7e-05	-4e-05	4
17991	-2e-05	-5e-05	-0.00012	-9e-05	0.00085	3e-05	-7e-05	-4e-05	4
17992	-2e-05	-5e-05	-0.00012	-9e-05	0.00085	3e-05	-7e-05	-4e-05	4
17993	-2e-05	-5e-05	-0.00012	-9e-05	0.00085	3e-05	-7e-05	-4e-05	4
17994	-2e-05	-5e-05	-0.00012	-9e-05	0.00085	3e-05	-7e-05	-4e-05	4
17995	-2e-05	-5e-05	-0.00012	-9e-05	0.00085	3e-05	-7e-05	-4e-05	4
17996	-2e-05	-5e-05	-0.00012	-9e-05	0.00085	3e-05	-7e-05	-4e-05	4
17997	-2e-05	-5e-05	-0.00012	-9e-05	0.00085	3e-05	-7e-05	-4e-05	4
17998	-2e-05	-5e-05	-0.00012	-9e-05	0.00085	3e-05	-7e-05	-4e-05	4
17999	-2e-05	-5e-05	-0.00012	-9e-05	0.00085	3e-05	-7e-05	-4e-05	4
18000	-2e-05	-5e-05	-0.00012	-9e-05	0.00085	3e-05	-7e-05	-4e-05	4
18001	-2e-05	-5e-05	-0.00012	-9e-05	0.00085	3e-05	-7e-05	-4e-05	4
18002	-2e-05	-5e-05	-0.00012	-9e-05	0.00085	3e-05	-7e-05	-4e-05	4
18003	-2e-05	-5e-05	-0.00012	-9e-05	0.00085	3e-05	-7e-05	-4e-05	4
18004	-1e-05	4e-05	6e-05	9e-05	0.00067	-0.00021	0.00012	-3e-05	4
18005	-1e-05	-7e-05	-0.0001	-0.00038	-0.00085	0.00045	1e-05	-4e-05	4
18006	-5e-05	-3e-05	-4e-05	0.00036	0.00032	-9e-05	7e-05	-2e-05	4
18007	-5e-05	-3e-05	-4e-05	0.00036	0.00032	-9e-05	7e-05	-2e-05	4
18008	-5e-05	-3e-05	-4e-05	0.00036	0.00032	-9e-05	7e-05	-2e-05	4
18009	-5e-05	-3e-05	-4e-05	0.00036	0.00032	-9e-05	7e-05	-2e-05	4
18010	-5e-05	-3e-05	-4e-05	0.00036	0.00032	-9e-05	7e-05	-2e-05	4
18011	-5e-05	-3e-05	-4e-05	0.00036	0.00032	-9e-05	7e-05	-2e-05	4
18012	-5e-05	-3e-05	-4e-05	0.00036	0.00032	-9e-05	7e-05	-2e-05	4
18013	-5e-05	-3e-05	-4e-05	0.00036	0.00032	-9e-05	7e-05	-2e-05	4
18014	-5e-05	-3e-05	-4e-05	0.00036	0.00032	-9e-05	7e-05	-2e-05	4
18015	-5e-05	-3e-05	-4e-05	0.00036	0.00032	-9e-05	7e-05	-2e-05	4
18016	-5e-05	-3e-05	-4e-05	0.00036	0.00032	-9e-05	7e-05	-2e-05	4
18017	-5e-05	-3e-05	-4e-05	0.00036	0.00032	-9e-05	7e-05	-2e-05	4
18018	-0.00011	-9e-05	-0.00018	-0.00024	-0.00046	-0.00019	-0.00029	-0.00013	4
18019	-0.00011	-9e-05	-0.00018	-0.00024	-0.00046	-0.00019	-0.00029	-0.00013	4
18020	-0.00011	-9e-05	-0.00018	-0.00024	-0.00046	-0.00019	-0.00029	-0.00013	4
18021	-0.00011	-9e-05	-0.00018	-0.00024	-0.00046	-0.00019	-0.00029	-0.00013	4
18022	-0.00011	-9e-05	-0.00018	-0.00024	-0.00046	-0.00019	-0.00029	-0.00013	4
18023	-0.00011	-9e-05	-0.00018	-0.00024	-0.00046	-0.00019	-0.00029	-0.00013	4
18024	-0.00011	-9e-05	-0.00018	-0.00024	-0.00046	-0.00019	-0.00029	-0.00013	4
18025	-0.00011	-9e-05	-0.00018	-0.00024	-0.00046	-0.00019	-0.00029	-0.00013	4
18026	-0.00011	-9e-05	-0.00018	-0.00024	-0.00046	-0.00019	-0.00029	-0.00013	4
18027	-4e-05	-6e-05	-5e-05	-9e-05	-0.00037	-8e-05	-0.00011	-7e-05	4
18028	-4e-05	-6e-05	-5e-05	-9e-05	-0.00037	-8e-05	-0.00011	-7e-05	4
18029	-4e-05	-6e-05	-5e-05	-9e-05	-0.00037	-8e-05	-0.00011	-7e-05	4
18030	-4e-05	-6e-05	-5e-05	-9e-05	-0.00037	-8e-05	-0.00011	-7e-05	4
18031	-4e-05	-6e-05	-5e-05	-9e-05	-0.00037	-8e-05	-0.00011	-7e-05	4
18032	-4e-05	-6e-05	-5e-05	-9e-05	-0.00037	-8e-05	-0.00011	-7e-05	4
18033	-4e-05	-6e-05	-5e-05	-9e-05	-0.00037	-8e-05	-0.00011	-7e-05	4
18034	-4e-05	-6e-05	-5e-05	-9e-05	-0.00037	-8e-05	-0.00011	-7e-05	4
18035	-4e-05	-6e-05	-5e-05	-9e-05	-0.00037	-8e-05	-0.00011	-7e-05	4
18036	-4e-05	-6e-05	-5e-05	-9e-05	-0.00037	-8e-05	-0.00011	-7e-05	4
18038	-4e-05	-6e-05	-5e-05	-9e-05	-0.00037	-8e-05	-0.00011	-7e-05	4
18039	-4e-05	-6e-05	-5e-05	-9e-05	-0.00037	-8e-05	-0.00011	-7e-05	4
18040	-4e-05	-6e-05	-5e-05	-9e-05	-0.00037	-8e-05	-0.00011	-7e-05	4
18041	-4e-05	-6e-05	-5e-05	-9e-05	-0.00037	-8e-05	-0.00011	-7e-05	4
18042	-4e-05	-6e-05	-5e-05	-9e-05	-0.00037	-8e-05	-0.00011	-7e-05	4
18043	-4e-05	-4e-05	-5e-05	-8e-05	-0.00069	0.00016	-0.00018	-5e-05	4
18044	4e-05	5e-05	-2e-05	0.00021	0.00012	0.00032	0.00037	9e-05	4
18045	4e-05	5e-05	-2e-05	0.00021	0.00012	0.00032	0.00037	9e-05	4
18046	4e-05	5e-05	-2e-05	0.00021	0.00012	0.00032	0.00037	9e-05	4
18047	4e-05	5e-05	-2e-05	0.00021	0.00012	0.00032	0.00037	9e-05	4
18048	4e-05	5e-05	-2e-05	0.00021	0.00012	0.00032	0.00037	9e-05	4
18049	4e-05	5e-05	-2e-05	0.00021	0.00012	0.00032	0.00037	9e-05	4
18050	4e-05	5e-05	-2e-05	0.00021	0.00012	0.00032	0.00037	9e-05	4
18051	4e-05	5e-05	-2e-05	0.00021	0.00012	0.00032	0.00037	9e-05	4
18052	4e-05	5e-05	-2e-05	0.00021	0.00012	0.00032	0.00037	9e-05	4
18053	4e-05	5e-05	-2e-05	0.00021	0.00012	0.00032	0.00037	9e-05	4
18054	4e-05	5e-05	-2e-05	0.00021	0.00012	0.00032	0.00037	9e-05	4
18055	4e-05	5e-05	-2e-05	0.00021	0.00012	0.00032	0.00037	9e-05	4
18056	4e-05	5e-05	-2e-05	0.00021	0.00012	0.00032	0.00037	9e-05	4
18057	4e-05	5e-05	-2e-05	0.00021	0.00012	0.00032	0.00037	9e-05	4
18058	4e-05	5e-05	-2e-05	0.00021	0.00012	0.00032	0.00037	9e-05	4
18059	4e-05	5e-05	-2e-05	0.00021	0.00012	0.00032	0.00037	9e-05	4
18060	4e-05	5e-05	-2e-05	0.00021	0.00012	0.00032	0.00037	9e-05	4
18061	4e-05	5e-05	-2e-05	0.00021	0.00012	0.00032	0.00037	9e-05	4
18062	4e-05	5e-05	-2e-05	0.00021	0.00012	0.00032	0.00037	9e-05	4
18063	4e-05	5e-05	-2e-05	0.00021	0.00012	0.00032	0.00037	9e-05	4
18064	-9e-05	-0.00014	-0.00021	-0.00031	0.00072	-0.0003	-0.00022	-0.00012	4
18065	0	-1e-05	-2e-05	0.00012	0.00055	0.00029	8e-05	2e-05	4
18066	3e-05	3e-05	8e-05	8e-05	0.00014	0.00022	1e-05	1e-05	4
18067	3e-05	3e-05	8e-05	8e-05	0.00014	0.00022	1e-05	1e-05	4
18068	3e-05	3e-05	8e-05	8e-05	0.00014	0.00022	1e-05	1e-05	4
18069	3e-05	3e-05	8e-05	8e-05	0.00014	0.00022	1e-05	1e-05	4
18070	3e-05	3e-05	8e-05	8e-05	0.00014	0.00022	1e-05	1e-05	4
18071	3e-05	3e-05	8e-05	8e-05	0.00014	0.00022	1e-05	1e-05	4
18072	3e-05	3e-05	8e-05	8e-05	0.00014	0.00022	1e-05	1e-05	4
18073	3e-05	3e-05	8e-05	8e-05	0.00014	0.00022	1e-05	1e-05	4
18074	3e-05	3e-05	8e-05	8e-05	0.00014	0.00022	1e-05	1e-05	4
18075	3e-05	3e-05	8e-05	8e-05	0.00014	0.00022	1e-05	1e-05	4
18076	3e-05	3e-05	8e-05	8e-05	0.00014	0.00022	1e-05	1e-05	4
18077	3e-05	3e-05	8e-05	8e-05	0.00014	0.00022	1e-05	1e-05	4
18078	3e-05	3e-05	8e-05	8e-05	0.00014	0.00022	1e-05	1e-05	4
18079	3e-05	3e-05	8e-05	8e-05	0.00014	0.00022	1e-05	1e-05	4
18080	3e-05	3e-05	8e-05	8e-05	0.00014	0.00022	1e-05	1e-05	4
18081	3e-05	3e-05	8e-05	8e-05	0.00014	0.00022	1e-05	1e-05	4
18082	3e-05	3e-05	8e-05	8e-05	0.00014	0.00022	1e-05	1e-05	4
18083	3e-05	3e-05	8e-05	8e-05	0.00014	0.00022	1e-05	1e-05	4
18084	3e-05	3e-05	8e-05	8e-05	0.00014	0.00022	1e-05	1e-05	4
18085	3e-05	3e-05	8e-05	8e-05	0.00014	0.00022	1e-05	1e-05	4
18086	3e-05	3e-05	8e-05	8e-05	0.00014	0.00022	1e-05	1e-05	4
18089	0	0	3e-05	0	-0.0008	0.00075	0.00012	0	4
18090	0	0	3e-05	0	-0.0008	0.00075	0.00012	0	4
18091	0	0	3e-05	0	-0.0008	0.00075	0.00012	0	4
18092	0	0	3e-05	0	-0.0008	0.00075	0.00012	0	4
18093	0	0	3e-05	0	-0.0008	0.00075	0.00012	0	4
18094	0	0	3e-05	0	-0.0008	0.00075	0.00012	0	4
18095	0	0	3e-05	0	-0.0008	0.00075	0.00012	0	4
18096	0	0	3e-05	0	-0.0008	0.00075	0.00012	0	4
18097	0	0	3e-05	0	-0.0008	0.00075	0.00012	0	4
18098	0	0	3e-05	0	-0.0008	0.00075	0.00012	0	4
18099	0	0	3e-05	0	-0.0008	0.00075	0.00012	0	4
18100	0	0	3e-05	0	-0.0008	0.00075	0.00012	0	4
18101	0	0	3e-05	0	-0.0008	0.00075	0.00012	0	4
18102	-3e-05	-3e-05	-1e-05	0.00038	0.00058	-0.00049	-0.00011	-5e-05	4
18103	-5e-05	-4e-05	-3e-05	6e-05	-0.00052	-0.00039	0	-3e-05	4
18104	6e-05	7e-05	0.00013	5e-05	0.00048	5e-05	-3e-05	4e-05	4
18105	6e-05	7e-05	0.00013	5e-05	0.00048	5e-05	-3e-05	4e-05	4
18106	6e-05	7e-05	0.00013	5e-05	0.00048	5e-05	-3e-05	4e-05	4
18107	6e-05	7e-05	0.00013	5e-05	0.00048	5e-05	-3e-05	4e-05	4
18108	6e-05	7e-05	0.00013	5e-05	0.00048	5e-05	-3e-05	4e-05	4
18109	6e-05	7e-05	0.00013	5e-05	0.00048	5e-05	-3e-05	4e-05	4
18110	6e-05	7e-05	0.00013	5e-05	0.00048	5e-05	-3e-05	4e-05	4
18111	6e-05	7e-05	0.00013	5e-05	0.00048	5e-05	-3e-05	4e-05	4
18112	6e-05	7e-05	0.00013	5e-05	0.00048	5e-05	-3e-05	4e-05	4
18113	6e-05	7e-05	0.00013	5e-05	0.00048	5e-05	-3e-05	4e-05	4
18114	6e-05	7e-05	0.00013	5e-05	0.00048	5e-05	-3e-05	4e-05	4
18115	6e-05	7e-05	0.00013	5e-05	0.00048	5e-05	-3e-05	4e-05	4
18116	6e-05	7e-05	0.00013	5e-05	0.00048	5e-05	-3e-05	4e-05	4
18117	6e-05	7e-05	0.00013	5e-05	0.00048	5e-05	-3e-05	4e-05	4
18118	6e-05	7e-05	0.00013	5e-05	0.00048	5e-05	-3e-05	4e-05	4
18119	6e-05	7e-05	0.00013	5e-05	0.00048	5e-05	-3e-05	4e-05	4
18120	6e-05	7e-05	0.00013	5e-05	0.00048	5e-05	-3e-05	4e-05	4
18121	6e-05	7e-05	0.00013	5e-05	0.00048	5e-05	-3e-05	4e-05	4
18122	6e-05	7e-05	0.00013	5e-05	0.00048	5e-05	-3e-05	4e-05	4
18123	6e-05	7e-05	0.00013	5e-05	0.00048	5e-05	-3e-05	4e-05	4
18124	1e-05	0	2e-05	0.00016	4e-05	0.00017	0.00015	5e-05	4
18125	-0.00014	-0.00015	-0.00017	-7e-05	0.00064	-0.00039	-0.00023	-0.00017	4
18126	-4e-05	-5e-05	-0.00012	-0.00031	-0.00011	-0.00046	-0.00012	-6e-05	4
18127	-4e-05	-5e-05	-0.00012	-0.00031	-0.00011	-0.00046	-0.00012	-6e-05	4
18129	-4e-05	-5e-05	-0.00012	-0.00031	-0.00011	-0.00046	-0.00012	-6e-05	4
18130	-4e-05	-5e-05	-0.00012	-0.00031	-0.00011	-0.00046	-0.00012	-6e-05	4
18131	-4e-05	-5e-05	-0.00012	-0.00031	-0.00011	-0.00046	-0.00012	-6e-05	4
18132	-4e-05	-5e-05	-0.00012	-0.00031	-0.00011	-0.00046	-0.00012	-6e-05	4
18133	-4e-05	-5e-05	-0.00012	-0.00031	-0.00011	-0.00046	-0.00012	-6e-05	4
18134	-4e-05	-5e-05	-0.00012	-0.00031	-0.00011	-0.00046	-0.00012	-6e-05	4
18135	-4e-05	-5e-05	-0.00012	-0.00031	-0.00011	-0.00046	-0.00012	-6e-05	4
18136	-4e-05	-5e-05	-0.00012	-0.00031	-0.00011	-0.00046	-0.00012	-6e-05	4
18138	-4e-05	-5e-05	-0.00012	-0.00031	-0.00011	-0.00046	-0.00012	-6e-05	4
18139	-4e-05	-5e-05	-0.00012	-0.00031	-0.00011	-0.00046	-0.00012	-6e-05	4
18140	-4e-05	-5e-05	-0.00012	-0.00031	-0.00011	-0.00046	-0.00012	-6e-05	4
18141	-4e-05	-5e-05	-0.00012	-0.00031	-0.00011	-0.00046	-0.00012	-6e-05	4
18142	-4e-05	-5e-05	-0.00012	-0.00031	-0.00011	-0.00046	-0.00012	-6e-05	4
18143	-4e-05	-5e-05	-0.00012	-0.00031	-0.00011	-0.00046	-0.00012	-6e-05	4
18144	-4e-05	-5e-05	-0.00012	-0.00031	-0.00011	-0.00046	-0.00012	-6e-05	4
18145	-4e-05	-5e-05	-0.00012	-0.00031	-0.00011	-0.00046	-0.00012	-6e-05	4
18146	-4e-05	-5e-05	-0.00012	-0.00031	-0.00011	-0.00046	-0.00012	-6e-05	4
18147	-4e-05	-5e-05	-0.00012	-0.00031	-0.00011	-0.00046	-0.00012	-6e-05	4
18148	-4e-05	-5e-05	-0.00012	-0.00031	-0.00011	-0.00046	-0.00012	-6e-05	4
18149	-4e-05	-5e-05	-0.00012	-0.00031	-0.00011	-0.00046	-0.00012	-6e-05	4
18150	-4e-05	-5e-05	-0.00012	-0.00031	-0.00011	-0.00046	-0.00012	-6e-05	4
18151	-4e-05	-5e-05	-0.00012	-0.00031	-0.00011	-0.00046	-0.00012	-6e-05	4
18152	-4e-05	-5e-05	-0.00012	-0.00031	-0.00011	-0.00046	-0.00012	-6e-05	4
18153	-4e-05	-5e-05	-0.00012	-0.00031	-0.00011	-0.00046	-0.00012	-6e-05	4
18154	-2e-05	0	8e-05	0.00026	0.00102	0.00061	0.00018	1e-05	4
18155	2e-05	2e-05	-3e-05	-0.00016	-3e-05	-0.00015	2e-05	3e-05	4
18156	0	4e-05	0.00018	0.00053	1e-05	0.00067	0.0001	0	4
18157	0	4e-05	0.00018	0.00053	1e-05	0.00067	0.0001	0	4
18158	0	4e-05	0.00018	0.00053	1e-05	0.00067	0.0001	0	4
18159	0	4e-05	0.00018	0.00053	1e-05	0.00067	0.0001	0	4
18160	0	4e-05	0.00018	0.00053	1e-05	0.00067	0.0001	0	4
18161	0	4e-05	0.00018	0.00053	1e-05	0.00067	0.0001	0	4
18162	-1e-05	-2e-05	1e-05	-0.0002	-0.00086	0.00063	0.0002	1e-05	4
18163	-1e-05	-2e-05	1e-05	-0.0002	-0.00086	0.00063	0.0002	1e-05	4
18164	-0.00011	-5e-05	-7e-05	-0.00014	-0.00091	-0.00042	-0.00014	-0.0001	4
18165	-0.00011	-5e-05	-7e-05	-0.00014	-0.00091	-0.00042	-0.00014	-0.0001	4
18166	-0.00011	-5e-05	-7e-05	-0.00014	-0.00091	-0.00042	-0.00014	-0.0001	4
18167	-0.00011	-5e-05	-7e-05	-0.00014	-0.00091	-0.00042	-0.00014	-0.0001	4
18168	-0.00011	-5e-05	-7e-05	-0.00014	-0.00091	-0.00042	-0.00014	-0.0001	4
18169	-0.00011	-5e-05	-7e-05	-0.00014	-0.00091	-0.00042	-0.00014	-0.0001	4
18170	-0.00011	-5e-05	-7e-05	-0.00014	-0.00091	-0.00042	-0.00014	-0.0001	4
18171	-0.00011	-5e-05	-7e-05	-0.00014	-0.00091	-0.00042	-0.00014	-0.0001	4
18172	-0.00011	-5e-05	-7e-05	-0.00014	-0.00091	-0.00042	-0.00014	-0.0001	4
18173	-0.00011	-5e-05	-7e-05	-0.00014	-0.00091	-0.00042	-0.00014	-0.0001	4
18174	-0.00011	-5e-05	-7e-05	-0.00014	-0.00091	-0.00042	-0.00014	-0.0001	4
18175	-0.00011	-5e-05	-7e-05	-0.00014	-0.00091	-0.00042	-0.00014	-0.0001	4
18176	-0.00011	-5e-05	-7e-05	-0.00014	-0.00091	-0.00042	-0.00014	-0.0001	4
18177	-0.00011	-5e-05	-7e-05	-0.00014	-0.00091	-0.00042	-0.00014	-0.0001	4
18178	-0.00011	-5e-05	-7e-05	-0.00014	-0.00091	-0.00042	-0.00014	-0.0001	4
18179	-0.00011	-5e-05	-7e-05	-0.00014	-0.00091	-0.00042	-0.00014	-0.0001	4
18180	-0.00011	-5e-05	-7e-05	-0.00014	-0.00091	-0.00042	-0.00014	-0.0001	4
18181	-0.00011	-5e-05	-7e-05	-0.00014	-0.00091	-0.00042	-0.00014	-0.0001	4
18182	-0.00011	-5e-05	-7e-05	-0.00014	-0.00091	-0.00042	-0.00014	-0.0001	4
18183	-0.00011	-5e-05	-7e-05	-0.00014	-0.00091	-0.00042	-0.00014	-0.0001	4
18184	7e-05	7e-05	-2e-05	-0.00014	-0.00087	-0.00034	0.00019	0.00014	4
18185	7e-05	7e-05	-2e-05	-0.00014	-0.00087	-0.00034	0.00019	0.00014	4
18186	-1e-05	-3e-05	-7e-05	0.00014	6e-05	-0.00098	-0.00021	-4e-05	4
18188	-1e-05	-3e-05	-7e-05	0.00014	6e-05	-0.00098	-0.00021	-4e-05	4
18189	-1e-05	-3e-05	-7e-05	0.00014	6e-05	-0.00098	-0.00021	-4e-05	4
18190	-1e-05	-3e-05	-7e-05	0.00014	6e-05	-0.00098	-0.00021	-4e-05	4
18191	-1e-05	-3e-05	-7e-05	0.00014	6e-05	-0.00098	-0.00021	-4e-05	4
18192	-1e-05	-3e-05	-7e-05	0.00014	6e-05	-0.00098	-0.00021	-4e-05	4
18193	-1e-05	-3e-05	-7e-05	0.00014	6e-05	-0.00098	-0.00021	-4e-05	4
18194	-1e-05	-3e-05	-7e-05	0.00014	6e-05	-0.00098	-0.00021	-4e-05	4
18195	-1e-05	-3e-05	-7e-05	0.00014	6e-05	-0.00098	-0.00021	-4e-05	4
18196	-1e-05	-3e-05	-7e-05	0.00014	6e-05	-0.00098	-0.00021	-4e-05	4
18197	-1e-05	-3e-05	-7e-05	0.00014	6e-05	-0.00098	-0.00021	-4e-05	4
18198	-1e-05	-3e-05	-7e-05	0.00014	6e-05	-0.00098	-0.00021	-4e-05	4
18199	-1e-05	-3e-05	-7e-05	0.00014	6e-05	-0.00098	-0.00021	-4e-05	4
18200	-1e-05	-3e-05	-7e-05	0.00014	6e-05	-0.00098	-0.00021	-4e-05	4
18201	-1e-05	-3e-05	-7e-05	0.00014	6e-05	-0.00098	-0.00021	-4e-05	4
18202	-1e-05	-3e-05	-7e-05	0.00014	6e-05	-0.00098	-0.00021	-4e-05	4
18203	-1e-05	-3e-05	-7e-05	0.00014	6e-05	-0.00098	-0.00021	-4e-05	4
18204	-1e-05	-3e-05	-7e-05	0.00014	6e-05	-0.00098	-0.00021	-4e-05	4
18205	-1e-05	-3e-05	-7e-05	0.00014	6e-05	-0.00098	-0.00021	-4e-05	4
18206	-1e-05	-3e-05	-7e-05	0.00014	6e-05	-0.00098	-0.00021	-4e-05	4
18207	0	-1e-05	-4e-05	-0.00027	-0.00051	-0.0008	-0.00015	-3e-05	4
18208	2e-05	-2e-05	-3e-05	0.00014	0.00012	0.00021	0.00023	4e-05	4
18209	7e-05	8e-05	0.00012	-0.00027	-0.00087	0.00011	8e-05	9e-05	4
18210	7e-05	8e-05	0.00012	-0.00027	-0.00087	0.00011	8e-05	9e-05	4
18211	7e-05	8e-05	0.00012	-0.00027	-0.00087	0.00011	8e-05	9e-05	4
18212	7e-05	8e-05	0.00012	-0.00027	-0.00087	0.00011	8e-05	9e-05	4
18213	7e-05	8e-05	0.00012	-0.00027	-0.00087	0.00011	8e-05	9e-05	4
18214	7e-05	8e-05	0.00012	-0.00027	-0.00087	0.00011	8e-05	9e-05	4
18215	7e-05	8e-05	0.00012	-0.00027	-0.00087	0.00011	8e-05	9e-05	4
18216	7e-05	8e-05	0.00012	-0.00027	-0.00087	0.00011	8e-05	9e-05	4
18217	7e-05	8e-05	0.00012	-0.00027	-0.00087	0.00011	8e-05	9e-05	4
18218	7e-05	8e-05	0.00012	-0.00027	-0.00087	0.00011	8e-05	9e-05	4
18219	7e-05	8e-05	0.00012	-0.00027	-0.00087	0.00011	8e-05	9e-05	4
18220	7e-05	8e-05	0.00012	-0.00027	-0.00087	0.00011	8e-05	9e-05	4
18221	-5e-05	-3e-05	-4e-05	-1e-05	-0.00025	-0.00065	-0.00018	-8e-05	4
18222	-5e-05	-3e-05	-4e-05	-1e-05	-0.00025	-0.00065	-0.00018	-8e-05	4
18223	-5e-05	-3e-05	-4e-05	-1e-05	-0.00025	-0.00065	-0.00018	-8e-05	4
18224	-5e-05	-3e-05	-4e-05	-1e-05	-0.00025	-0.00065	-0.00018	-8e-05	4
18225	-5e-05	-3e-05	-4e-05	-1e-05	-0.00025	-0.00065	-0.00018	-8e-05	4
18226	-5e-05	-3e-05	-4e-05	-1e-05	-0.00025	-0.00065	-0.00018	-8e-05	4
18227	-5e-05	-3e-05	-4e-05	-1e-05	-0.00025	-0.00065	-0.00018	-8e-05	4
18228	-9e-05	-9e-05	-0.00012	0.00018	-0.00014	-0.00045	-0.00018	-0.00012	4
18229	-9e-05	-9e-05	-0.00012	0.00018	-0.00014	-0.00045	-0.00018	-0.00012	4
18230	-9e-05	-9e-05	-0.00012	0.00018	-0.00014	-0.00045	-0.00018	-0.00012	4
18231	-9e-05	-9e-05	-0.00012	0.00018	-0.00014	-0.00045	-0.00018	-0.00012	4
18232	-9e-05	-9e-05	-0.00012	0.00018	-0.00014	-0.00045	-0.00018	-0.00012	4
18233	-9e-05	-9e-05	-0.00012	0.00018	-0.00014	-0.00045	-0.00018	-0.00012	4
18234	-9e-05	-9e-05	-0.00012	0.00018	-0.00014	-0.00045	-0.00018	-0.00012	4
18235	-9e-05	-9e-05	-0.00012	0.00018	-0.00014	-0.00045	-0.00018	-0.00012	4
18236	-9e-05	-9e-05	-0.00012	0.00018	-0.00014	-0.00045	-0.00018	-0.00012	4
18238	-9e-05	-9e-05	-0.00012	0.00018	-0.00014	-0.00045	-0.00018	-0.00012	4
18239	-9e-05	-9e-05	-0.00012	0.00018	-0.00014	-0.00045	-0.00018	-0.00012	4
18240	-9e-05	-9e-05	-0.00012	0.00018	-0.00014	-0.00045	-0.00018	-0.00012	4
18241	-9e-05	-9e-05	-0.00012	0.00018	-0.00014	-0.00045	-0.00018	-0.00012	4
18242	-9e-05	-9e-05	-0.00012	0.00018	-0.00014	-0.00045	-0.00018	-0.00012	4
18243	-9e-05	-9e-05	-0.00012	0.00018	-0.00014	-0.00045	-0.00018	-0.00012	4
18244	8e-05	0.00012	0.00028	0.00055	0.00053	0.00082	0.00022	6e-05	4
18245	-4e-05	-8e-05	-0.00022	-0.00048	0.00017	-0.00041	-0.00015	-6e-05	4
18246	-3e-05	0	7e-05	0.00016	0.00014	0.00015	-0.00016	-5e-05	4
18247	-3e-05	0	7e-05	0.00016	0.00014	0.00015	-0.00016	-5e-05	4
18248	-3e-05	0	7e-05	0.00016	0.00014	0.00015	-0.00016	-5e-05	4
18249	-3e-05	0	7e-05	0.00016	0.00014	0.00015	-0.00016	-5e-05	4
18250	-3e-05	0	7e-05	0.00016	0.00014	0.00015	-0.00016	-5e-05	4
18251	-3e-05	0	7e-05	0.00016	0.00014	0.00015	-0.00016	-5e-05	4
18252	-3e-05	0	7e-05	0.00016	0.00014	0.00015	-0.00016	-5e-05	4
18253	-3e-05	0	7e-05	0.00016	0.00014	0.00015	-0.00016	-5e-05	4
18254	-3e-05	0	7e-05	0.00016	0.00014	0.00015	-0.00016	-5e-05	4
18255	-3e-05	0	7e-05	0.00016	0.00014	0.00015	-0.00016	-5e-05	4
18256	-3e-05	0	7e-05	0.00016	0.00014	0.00015	-0.00016	-5e-05	4
18257	-3e-05	0	7e-05	0.00016	0.00014	0.00015	-0.00016	-5e-05	4
18258	-3e-05	0	7e-05	0.00016	0.00014	0.00015	-0.00016	-5e-05	4
18259	-3e-05	0	7e-05	0.00016	0.00014	0.00015	-0.00016	-5e-05	4
18260	-3e-05	0	7e-05	0.00016	0.00014	0.00015	-0.00016	-5e-05	4
18261	-3e-05	0	7e-05	0.00016	0.00014	0.00015	-0.00016	-5e-05	4
18262	-3e-05	0	7e-05	0.00016	0.00014	0.00015	-0.00016	-5e-05	4
18263	-3e-05	0	7e-05	0.00016	0.00014	0.00015	-0.00016	-5e-05	4
18264	-3e-05	0	7e-05	0.00016	0.00014	0.00015	-0.00016	-5e-05	4
18265	-3e-05	0	7e-05	0.00016	0.00014	0.00015	-0.00016	-5e-05	4
18266	-3e-05	0	7e-05	0.00016	0.00014	0.00015	-0.00016	-5e-05	4
18267	0	2e-05	0.00015	0.00063	0.00053	-0.00018	-7e-05	-3e-05	4
18268	1e-05	-2e-05	-5e-05	-4e-05	0.00025	-8e-05	-5e-05	1e-05	4
18269	1e-05	-2e-05	-5e-05	-4e-05	0.00025	-8e-05	-5e-05	1e-05	4
18270	1e-05	-2e-05	-5e-05	-4e-05	0.00025	-8e-05	-5e-05	1e-05	4
18271	1e-05	-2e-05	-5e-05	-4e-05	0.00025	-8e-05	-5e-05	1e-05	4
18272	1e-05	-2e-05	-5e-05	-4e-05	0.00025	-8e-05	-5e-05	1e-05	4
18273	1e-05	-2e-05	-5e-05	-4e-05	0.00025	-8e-05	-5e-05	1e-05	4
18274	1e-05	-2e-05	-5e-05	-4e-05	0.00025	-8e-05	-5e-05	1e-05	4
18275	1e-05	-2e-05	-5e-05	-4e-05	0.00025	-8e-05	-5e-05	1e-05	4
18276	1e-05	-2e-05	-5e-05	-4e-05	0.00025	-8e-05	-5e-05	1e-05	4
18277	1e-05	-2e-05	-5e-05	-4e-05	0.00025	-8e-05	-5e-05	1e-05	4
18278	1e-05	-2e-05	-5e-05	-4e-05	0.00025	-8e-05	-5e-05	1e-05	4
18279	1e-05	-2e-05	-5e-05	-4e-05	0.00025	-8e-05	-5e-05	1e-05	4
18280	1e-05	-2e-05	-5e-05	-4e-05	0.00025	-8e-05	-5e-05	1e-05	4
18281	4e-05	1e-05	8e-05	0.00026	8e-05	0.00043	8e-05	3e-05	4
18282	4e-05	1e-05	8e-05	0.00026	8e-05	0.00043	8e-05	3e-05	4
18283	4e-05	1e-05	8e-05	0.00026	8e-05	0.00043	8e-05	3e-05	4
18284	4e-05	1e-05	8e-05	0.00026	8e-05	0.00043	8e-05	3e-05	4
18285	4e-05	1e-05	8e-05	0.00026	8e-05	0.00043	8e-05	3e-05	4
18286	4e-05	1e-05	8e-05	0.00026	8e-05	0.00043	8e-05	3e-05	4
18288	5e-05	5e-05	8e-05	-1e-05	-0.00018	0.00026	0.0001	9e-05	4
18289	5e-05	5e-05	8e-05	-1e-05	-0.00018	0.00026	0.0001	9e-05	4
18290	5e-05	5e-05	8e-05	-1e-05	-0.00018	0.00026	0.0001	9e-05	4
18291	5e-05	5e-05	8e-05	-1e-05	-0.00018	0.00026	0.0001	9e-05	4
18292	5e-05	5e-05	8e-05	-1e-05	-0.00018	0.00026	0.0001	9e-05	4
18293	5e-05	5e-05	8e-05	-1e-05	-0.00018	0.00026	0.0001	9e-05	4
18294	5e-05	5e-05	8e-05	-1e-05	-0.00018	0.00026	0.0001	9e-05	4
18295	5e-05	5e-05	8e-05	-1e-05	-0.00018	0.00026	0.0001	9e-05	4
18296	5e-05	5e-05	8e-05	-1e-05	-0.00018	0.00026	0.0001	9e-05	4
18297	5e-05	5e-05	8e-05	-1e-05	-0.00018	0.00026	0.0001	9e-05	4
18298	5e-05	5e-05	8e-05	-1e-05	-0.00018	0.00026	0.0001	9e-05	4
18299	5e-05	5e-05	8e-05	-1e-05	-0.00018	0.00026	0.0001	9e-05	4
18300	5e-05	5e-05	8e-05	-1e-05	-0.00018	0.00026	0.0001	9e-05	4
18301	5e-05	5e-05	8e-05	-1e-05	-0.00018	0.00026	0.0001	9e-05	4
18302	5e-05	5e-05	8e-05	-1e-05	-0.00018	0.00026	0.0001	9e-05	4
18303	5e-05	5e-05	8e-05	-1e-05	-0.00018	0.00026	0.0001	9e-05	4
18304	-6e-05	-7e-05	-0.00028	-0.0005	-0.00021	-0.00031	-7e-05	-3e-05	4
18305	2e-05	3e-05	1e-05	-8e-05	-0.00032	-0.00024	-1e-05	4e-05	4
18306	-1e-05	-1e-05	5e-05	0.00021	0.00114	0.00013	-3e-05	-2e-05	4
18307	-1e-05	-1e-05	5e-05	0.00021	0.00114	0.00013	-3e-05	-2e-05	4
18308	-1e-05	-1e-05	5e-05	0.00021	0.00114	0.00013	-3e-05	-2e-05	4
18309	-1e-05	-1e-05	5e-05	0.00021	0.00114	0.00013	-3e-05	-2e-05	4
18310	-1e-05	-1e-05	5e-05	0.00021	0.00114	0.00013	-3e-05	-2e-05	4
18311	-1e-05	-1e-05	5e-05	0.00021	0.00114	0.00013	-3e-05	-2e-05	4
18312	-1e-05	-1e-05	5e-05	0.00021	0.00114	0.00013	-3e-05	-2e-05	4
18313	-1e-05	-1e-05	5e-05	0.00021	0.00114	0.00013	-3e-05	-2e-05	4
18314	-1e-05	-1e-05	5e-05	0.00021	0.00114	0.00013	-3e-05	-2e-05	4
18315	-1e-05	-1e-05	5e-05	0.00021	0.00114	0.00013	-3e-05	-2e-05	4
18316	-1e-05	-1e-05	5e-05	0.00021	0.00114	0.00013	-3e-05	-2e-05	4
18317	-1e-05	-1e-05	5e-05	0.00021	0.00114	0.00013	-3e-05	-2e-05	4
18318	-1e-05	-1e-05	5e-05	0.00021	0.00114	0.00013	-3e-05	-2e-05	4
18319	-1e-05	-1e-05	5e-05	0.00021	0.00114	0.00013	-3e-05	-2e-05	4
18320	-1e-05	-1e-05	5e-05	0.00021	0.00114	0.00013	-3e-05	-2e-05	4
18321	-1e-05	-1e-05	5e-05	0.00021	0.00114	0.00013	-3e-05	-2e-05	4
18322	-1e-05	-1e-05	5e-05	0.00021	0.00114	0.00013	-3e-05	-2e-05	4
18323	-1e-05	-1e-05	5e-05	0.00021	0.00114	0.00013	-3e-05	-2e-05	4
18324	-1e-05	-1e-05	5e-05	0.00021	0.00114	0.00013	-3e-05	-2e-05	4
18325	-1e-05	-1e-05	5e-05	0.00021	0.00114	0.00013	-3e-05	-2e-05	4
18326	-1e-05	-1e-05	5e-05	0.00021	0.00114	0.00013	-3e-05	-2e-05	4
18327	-4e-05	-4e-05	-2e-05	-1e-05	0.00023	-0.00046	-9e-05	-2e-05	4
18328	5e-05	-2e-05	0	0.00058	0.00096	0.00042	0.00035	8e-05	4
18329	-7e-05	-7e-05	-9e-05	0.00012	0.0005	-0.00053	-0.00026	-0.00012	4
18330	-7e-05	-7e-05	-9e-05	0.00012	0.0005	-0.00053	-0.00026	-0.00012	4
18331	-7e-05	-7e-05	-9e-05	0.00012	0.0005	-0.00053	-0.00026	-0.00012	4
18332	-7e-05	-7e-05	-9e-05	0.00012	0.0005	-0.00053	-0.00026	-0.00012	4
18333	-7e-05	-7e-05	-9e-05	0.00012	0.0005	-0.00053	-0.00026	-0.00012	4
18334	-7e-05	-7e-05	-9e-05	0.00012	0.0005	-0.00053	-0.00026	-0.00012	4
18335	-7e-05	-7e-05	-9e-05	0.00012	0.0005	-0.00053	-0.00026	-0.00012	4
18336	-7e-05	-7e-05	-9e-05	0.00012	0.0005	-0.00053	-0.00026	-0.00012	4
18338	-7e-05	-7e-05	-9e-05	0.00012	0.0005	-0.00053	-0.00026	-0.00012	4
18339	-7e-05	-7e-05	-9e-05	0.00012	0.0005	-0.00053	-0.00026	-0.00012	4
18340	-7e-05	-7e-05	-9e-05	0.00012	0.0005	-0.00053	-0.00026	-0.00012	4
18341	-1e-05	-1e-05	4e-05	6e-05	-0.00036	0.00046	0.00011	1e-05	4
18342	-1e-05	-1e-05	4e-05	6e-05	-0.00036	0.00046	0.00011	1e-05	4
18343	-1e-05	-1e-05	4e-05	6e-05	-0.00036	0.00046	0.00011	1e-05	4
18344	-1e-05	-1e-05	4e-05	6e-05	-0.00036	0.00046	0.00011	1e-05	4
18345	-1e-05	-1e-05	4e-05	6e-05	-0.00036	0.00046	0.00011	1e-05	4
18346	-1e-05	-1e-05	4e-05	6e-05	-0.00036	0.00046	0.00011	1e-05	4
18347	-1e-05	-1e-05	4e-05	6e-05	-0.00036	0.00046	0.00011	1e-05	4
18348	-1e-05	-0.0001	-0.00037	-0.00054	0.00015	-6e-05	0.00011	1e-05	4
18349	-1e-05	-0.0001	-0.00037	-0.00054	0.00015	-6e-05	0.00011	1e-05	4
18350	-1e-05	-0.0001	-0.00037	-0.00054	0.00015	-6e-05	0.00011	1e-05	4
18351	-1e-05	-0.0001	-0.00037	-0.00054	0.00015	-6e-05	0.00011	1e-05	4
18352	-1e-05	-0.0001	-0.00037	-0.00054	0.00015	-6e-05	0.00011	1e-05	4
18353	-1e-05	-0.0001	-0.00037	-0.00054	0.00015	-6e-05	0.00011	1e-05	4
18354	-1e-05	-0.0001	-0.00037	-0.00054	0.00015	-6e-05	0.00011	1e-05	4
18355	-1e-05	-0.0001	-0.00037	-0.00054	0.00015	-6e-05	0.00011	1e-05	4
18356	-1e-05	-0.0001	-0.00037	-0.00054	0.00015	-6e-05	0.00011	1e-05	4
18357	-1e-05	-0.0001	-0.00037	-0.00054	0.00015	-6e-05	0.00011	1e-05	4
18358	-1e-05	-0.0001	-0.00037	-0.00054	0.00015	-6e-05	0.00011	1e-05	4
18359	-1e-05	-0.0001	-0.00037	-0.00054	0.00015	-6e-05	0.00011	1e-05	4
18360	-1e-05	-0.0001	-0.00037	-0.00054	0.00015	-6e-05	0.00011	1e-05	4
18361	-1e-05	-0.0001	-0.00037	-0.00054	0.00015	-6e-05	0.00011	1e-05	4
18362	-1e-05	-0.0001	-0.00037	-0.00054	0.00015	-6e-05	0.00011	1e-05	4
18363	-1e-05	-0.0001	-0.00037	-0.00054	0.00015	-6e-05	0.00011	1e-05	4
18364	2e-05	3e-05	0.00015	0.00031	-0.00043	0.00027	3e-05	1e-05	4
18365	-3e-05	-3e-05	-4e-05	-0.00018	0.00015	0.00059	-5e-05	-5e-05	4
18366	3e-05	-2e-05	-0.00012	-0.00032	-0.00037	-0.00034	6e-05	5e-05	4
18367	3e-05	-2e-05	-0.00012	-0.00032	-0.00037	-0.00034	6e-05	5e-05	4
18368	3e-05	-2e-05	-0.00012	-0.00032	-0.00037	-0.00034	6e-05	5e-05	4
18369	3e-05	-2e-05	-0.00012	-0.00032	-0.00037	-0.00034	6e-05	5e-05	4
18370	3e-05	-2e-05	-0.00012	-0.00032	-0.00037	-0.00034	6e-05	5e-05	4
18371	3e-05	-2e-05	-0.00012	-0.00032	-0.00037	-0.00034	6e-05	5e-05	4
18372	3e-05	-2e-05	-0.00012	-0.00032	-0.00037	-0.00034	6e-05	5e-05	4
18373	3e-05	-2e-05	-0.00012	-0.00032	-0.00037	-0.00034	6e-05	5e-05	4
18374	3e-05	-2e-05	-0.00012	-0.00032	-0.00037	-0.00034	6e-05	5e-05	4
18375	3e-05	-2e-05	-0.00012	-0.00032	-0.00037	-0.00034	6e-05	5e-05	4
18376	3e-05	-2e-05	-0.00012	-0.00032	-0.00037	-0.00034	6e-05	5e-05	4
18377	3e-05	-2e-05	-0.00012	-0.00032	-0.00037	-0.00034	6e-05	5e-05	4
18378	3e-05	-2e-05	-0.00012	-0.00032	-0.00037	-0.00034	6e-05	5e-05	4
18379	3e-05	-2e-05	-0.00012	-0.00032	-0.00037	-0.00034	6e-05	5e-05	4
18380	3e-05	-2e-05	-0.00012	-0.00032	-0.00037	-0.00034	6e-05	5e-05	4
18381	3e-05	-2e-05	-0.00012	-0.00032	-0.00037	-0.00034	6e-05	5e-05	4
18382	3e-05	-2e-05	-0.00012	-0.00032	-0.00037	-0.00034	6e-05	5e-05	4
18383	3e-05	-2e-05	-0.00012	-0.00032	-0.00037	-0.00034	6e-05	5e-05	4
18384	3e-05	-2e-05	-0.00012	-0.00032	-0.00037	-0.00034	6e-05	5e-05	4
18385	3e-05	-2e-05	-0.00012	-0.00032	-0.00037	-0.00034	6e-05	5e-05	4
18386	3e-05	-2e-05	-0.00012	-0.00032	-0.00037	-0.00034	6e-05	5e-05	4
18388	-1e-05	-1e-05	-4e-05	4e-05	0.00031	0.00039	-5e-05	-2e-05	4
18389	-1e-05	0	-1e-05	-0.00047	-0.00052	-0.00026	5e-05	2e-05	4
18390	-1e-05	0	-1e-05	-0.00047	-0.00052	-0.00026	5e-05	2e-05	4
18391	-1e-05	0	-1e-05	-0.00047	-0.00052	-0.00026	5e-05	2e-05	4
18392	-1e-05	0	-1e-05	-0.00047	-0.00052	-0.00026	5e-05	2e-05	4
18393	-1e-05	0	-1e-05	-0.00047	-0.00052	-0.00026	5e-05	2e-05	4
18394	-1e-05	0	-1e-05	-0.00047	-0.00052	-0.00026	5e-05	2e-05	4
18395	-1e-05	0	-1e-05	-0.00047	-0.00052	-0.00026	5e-05	2e-05	4
18396	-1e-05	0	-1e-05	-0.00047	-0.00052	-0.00026	5e-05	2e-05	4
18397	-1e-05	0	-1e-05	-0.00047	-0.00052	-0.00026	5e-05	2e-05	4
18398	-1e-05	0	-1e-05	-0.00047	-0.00052	-0.00026	5e-05	2e-05	4
18399	-1e-05	0	-1e-05	-0.00047	-0.00052	-0.00026	5e-05	2e-05	4
18400	-1e-05	0	-1e-05	-0.00047	-0.00052	-0.00026	5e-05	2e-05	4
18401	1e-05	-3e-05	2e-05	3e-05	0.00077	0.00076	0.00015	2e-05	4
18402	1e-05	-3e-05	2e-05	3e-05	0.00077	0.00076	0.00015	2e-05	4
18403	1e-05	-3e-05	2e-05	3e-05	0.00077	0.00076	0.00015	2e-05	4
18404	1e-05	-3e-05	2e-05	3e-05	0.00077	0.00076	0.00015	2e-05	4
18405	1e-05	-3e-05	2e-05	3e-05	0.00077	0.00076	0.00015	2e-05	4
18406	1e-05	-3e-05	2e-05	3e-05	0.00077	0.00076	0.00015	2e-05	4
18407	1e-05	-3e-05	2e-05	3e-05	0.00077	0.00076	0.00015	2e-05	4
18408	-2e-05	5e-05	0.00011	0.00033	0.0005	-0.00057	-0.00019	-5e-05	4
18409	-2e-05	5e-05	0.00011	0.00033	0.0005	-0.00057	-0.00019	-5e-05	4
18410	-2e-05	5e-05	0.00011	0.00033	0.0005	-0.00057	-0.00019	-5e-05	4
18411	-2e-05	5e-05	0.00011	0.00033	0.0005	-0.00057	-0.00019	-5e-05	4
18412	-2e-05	5e-05	0.00011	0.00033	0.0005	-0.00057	-0.00019	-5e-05	4
18413	-2e-05	5e-05	0.00011	0.00033	0.0005	-0.00057	-0.00019	-5e-05	4
18414	-2e-05	5e-05	0.00011	0.00033	0.0005	-0.00057	-0.00019	-5e-05	4
18415	-2e-05	5e-05	0.00011	0.00033	0.0005	-0.00057	-0.00019	-5e-05	4
18416	-2e-05	5e-05	0.00011	0.00033	0.0005	-0.00057	-0.00019	-5e-05	4
18417	-2e-05	5e-05	0.00011	0.00033	0.0005	-0.00057	-0.00019	-5e-05	4
18418	-2e-05	5e-05	0.00011	0.00033	0.0005	-0.00057	-0.00019	-5e-05	4
18419	-2e-05	5e-05	0.00011	0.00033	0.0005	-0.00057	-0.00019	-5e-05	4
18420	-2e-05	5e-05	0.00011	0.00033	0.0005	-0.00057	-0.00019	-5e-05	4
18421	-2e-05	5e-05	0.00011	0.00033	0.0005	-0.00057	-0.00019	-5e-05	4
18422	-2e-05	5e-05	0.00011	0.00033	0.0005	-0.00057	-0.00019	-5e-05	4
18423	-2e-05	5e-05	0.00011	0.00033	0.0005	-0.00057	-0.00019	-5e-05	4
18424	-3e-05	-9e-05	-0.00023	-0.00037	0.0004	3e-05	-0.00018	-5e-05	4
18425	9e-05	0.00011	0.00013	-0.00011	-0.00071	0.00021	0.00026	0.00014	4
18426	5e-05	6e-05	0.00013	0.0001	0.00036	0.00105	0.00016	5e-05	4
18427	5e-05	6e-05	0.00013	0.0001	0.00036	0.00105	0.00016	5e-05	4
18428	5e-05	6e-05	0.00013	0.0001	0.00036	0.00105	0.00016	5e-05	4
18429	5e-05	6e-05	0.00013	0.0001	0.00036	0.00105	0.00016	5e-05	4
18430	5e-05	6e-05	0.00013	0.0001	0.00036	0.00105	0.00016	5e-05	4
18431	5e-05	6e-05	0.00013	0.0001	0.00036	0.00105	0.00016	5e-05	4
18432	5e-05	6e-05	0.00013	0.0001	0.00036	0.00105	0.00016	5e-05	4
18433	5e-05	6e-05	0.00013	0.0001	0.00036	0.00105	0.00016	5e-05	4
18434	5e-05	6e-05	0.00013	0.0001	0.00036	0.00105	0.00016	5e-05	4
18435	5e-05	6e-05	0.00013	0.0001	0.00036	0.00105	0.00016	5e-05	4
18436	5e-05	6e-05	0.00013	0.0001	0.00036	0.00105	0.00016	5e-05	4
18438	5e-05	6e-05	0.00013	0.0001	0.00036	0.00105	0.00016	5e-05	4
18439	5e-05	6e-05	0.00013	0.0001	0.00036	0.00105	0.00016	5e-05	4
18440	5e-05	6e-05	0.00013	0.0001	0.00036	0.00105	0.00016	5e-05	4
18441	5e-05	6e-05	0.00013	0.0001	0.00036	0.00105	0.00016	5e-05	4
18442	5e-05	6e-05	0.00013	0.0001	0.00036	0.00105	0.00016	5e-05	4
18443	5e-05	6e-05	0.00013	0.0001	0.00036	0.00105	0.00016	5e-05	4
18444	5e-05	6e-05	0.00013	0.0001	0.00036	0.00105	0.00016	5e-05	4
18445	5e-05	6e-05	0.00013	0.0001	0.00036	0.00105	0.00016	5e-05	4
18446	5e-05	6e-05	0.00013	0.0001	0.00036	0.00105	0.00016	5e-05	4
18447	-5e-05	-5e-05	-2e-05	0.00029	0.00057	0.00015	-3e-05	-6e-05	4
18448	4e-05	6e-05	7e-05	-7e-05	0.00012	0.0001	4e-05	6e-05	4
18449	-1e-05	-1e-05	3e-05	0.0002	0.00019	0.00032	0.0001	1e-05	4
18450	-1e-05	-1e-05	3e-05	0.0002	0.00019	0.00032	0.0001	1e-05	4
18451	-1e-05	-1e-05	3e-05	0.0002	0.00019	0.00032	0.0001	1e-05	4
18452	-1e-05	-1e-05	3e-05	0.0002	0.00019	0.00032	0.0001	1e-05	4
18453	-1e-05	-1e-05	3e-05	0.0002	0.00019	0.00032	0.0001	1e-05	4
18454	-1e-05	-1e-05	3e-05	0.0002	0.00019	0.00032	0.0001	1e-05	4
18455	-1e-05	-1e-05	3e-05	0.0002	0.00019	0.00032	0.0001	1e-05	4
18456	-1e-05	-1e-05	3e-05	0.0002	0.00019	0.00032	0.0001	1e-05	4
18457	-1e-05	-1e-05	3e-05	0.0002	0.00019	0.00032	0.0001	1e-05	4
18458	-1e-05	-1e-05	3e-05	0.0002	0.00019	0.00032	0.0001	1e-05	4
18459	-1e-05	-1e-05	3e-05	0.0002	0.00019	0.00032	0.0001	1e-05	4
18460	-1e-05	-1e-05	3e-05	0.0002	0.00019	0.00032	0.0001	1e-05	4
18461	-1e-05	-1e-05	3e-05	0.0002	0.00019	0.00032	0.0001	1e-05	4
18462	0	-1e-05	-2e-05	2e-05	-0.00034	0.0003	-2e-05	0	4
18463	0	-1e-05	-2e-05	2e-05	-0.00034	0.0003	-2e-05	0	4
18464	0	-1e-05	-2e-05	2e-05	-0.00034	0.0003	-2e-05	0	4
18465	0	-1e-05	-2e-05	2e-05	-0.00034	0.0003	-2e-05	0	4
18466	0	-1e-05	-2e-05	2e-05	-0.00034	0.0003	-2e-05	0	4
18467	0	-1e-05	-2e-05	2e-05	-0.00034	0.0003	-2e-05	0	4
18468	-8e-05	-8e-05	-0.0001	-0.00025	-0.00024	-0.00091	-0.00028	-0.0001	4
18469	-8e-05	-8e-05	-0.0001	-0.00025	-0.00024	-0.00091	-0.00028	-0.0001	4
18470	-8e-05	-8e-05	-0.0001	-0.00025	-0.00024	-0.00091	-0.00028	-0.0001	4
18471	-8e-05	-8e-05	-0.0001	-0.00025	-0.00024	-0.00091	-0.00028	-0.0001	4
18472	-8e-05	-8e-05	-0.0001	-0.00025	-0.00024	-0.00091	-0.00028	-0.0001	4
18473	-8e-05	-8e-05	-0.0001	-0.00025	-0.00024	-0.00091	-0.00028	-0.0001	4
18474	-8e-05	-8e-05	-0.0001	-0.00025	-0.00024	-0.00091	-0.00028	-0.0001	4
18475	-8e-05	-8e-05	-0.0001	-0.00025	-0.00024	-0.00091	-0.00028	-0.0001	4
18476	-8e-05	-8e-05	-0.0001	-0.00025	-0.00024	-0.00091	-0.00028	-0.0001	4
18477	-8e-05	-8e-05	-0.0001	-0.00025	-0.00024	-0.00091	-0.00028	-0.0001	4
18478	-8e-05	-8e-05	-0.0001	-0.00025	-0.00024	-0.00091	-0.00028	-0.0001	4
18479	-8e-05	-8e-05	-0.0001	-0.00025	-0.00024	-0.00091	-0.00028	-0.0001	4
18480	-8e-05	-8e-05	-0.0001	-0.00025	-0.00024	-0.00091	-0.00028	-0.0001	4
18481	-8e-05	-8e-05	-0.0001	-0.00025	-0.00024	-0.00091	-0.00028	-0.0001	4
18482	-8e-05	-8e-05	-0.0001	-0.00025	-0.00024	-0.00091	-0.00028	-0.0001	4
18483	-8e-05	-8e-05	-0.0001	-0.00025	-0.00024	-0.00091	-0.00028	-0.0001	4
18484	-9e-05	-0.00012	-0.00013	-0.00014	-0.00038	-0.00053	-1e-05	-6e-05	4
18485	-9e-05	-0.00012	-0.00013	-0.00014	-0.00038	-0.00053	-1e-05	-6e-05	4
18486	-9e-05	-0.00011	-0.0001	0.00045	0.00013	0.00077	-3e-05	-0.00012	4
18488	-9e-05	-0.00011	-0.0001	0.00045	0.00013	0.00077	-3e-05	-0.00012	4
18489	-9e-05	-0.00011	-0.0001	0.00045	0.00013	0.00077	-3e-05	-0.00012	4
18490	-9e-05	-0.00011	-0.0001	0.00045	0.00013	0.00077	-3e-05	-0.00012	4
18491	-9e-05	-0.00011	-0.0001	0.00045	0.00013	0.00077	-3e-05	-0.00012	4
18492	-9e-05	-0.00011	-0.0001	0.00045	0.00013	0.00077	-3e-05	-0.00012	4
18493	-9e-05	-0.00011	-0.0001	0.00045	0.00013	0.00077	-3e-05	-0.00012	4
18494	-9e-05	-0.00011	-0.0001	0.00045	0.00013	0.00077	-3e-05	-0.00012	4
18495	-9e-05	-0.00011	-0.0001	0.00045	0.00013	0.00077	-3e-05	-0.00012	4
18496	-9e-05	-0.00011	-0.0001	0.00045	0.00013	0.00077	-3e-05	-0.00012	4
18497	-9e-05	-0.00011	-0.0001	0.00045	0.00013	0.00077	-3e-05	-0.00012	4
18498	-9e-05	-0.00011	-0.0001	0.00045	0.00013	0.00077	-3e-05	-0.00012	4
18499	-9e-05	-0.00011	-0.0001	0.00045	0.00013	0.00077	-3e-05	-0.00012	4
18500	-9e-05	-0.00011	-0.0001	0.00045	0.00013	0.00077	-3e-05	-0.00012	4
18501	-9e-05	-0.00011	-0.0001	0.00045	0.00013	0.00077	-3e-05	-0.00012	4
18502	-9e-05	-0.00011	-0.0001	0.00045	0.00013	0.00077	-3e-05	-0.00012	4
18503	-9e-05	-0.00011	-0.0001	0.00045	0.00013	0.00077	-3e-05	-0.00012	4
18504	-9e-05	-0.00011	-0.0001	0.00045	0.00013	0.00077	-3e-05	-0.00012	4
18505	-9e-05	-0.00011	-0.0001	0.00045	0.00013	0.00077	-3e-05	-0.00012	4
18506	-9e-05	-0.00011	-0.0001	0.00045	0.00013	0.00077	-3e-05	-0.00012	4
18507	-2e-05	-2e-05	-0.00011	-0.00024	8e-05	-1e-05	-0.00011	-4e-05	4
18508	-2e-05	-2e-05	-0.00011	-0.00024	8e-05	-1e-05	-0.00011	-4e-05	4
18509	-8e-05	-0.0001	-0.00012	-0.00027	0.00039	6e-05	-9e-05	-6e-05	4
18510	-8e-05	-0.0001	-0.00012	-0.00027	0.00039	6e-05	-9e-05	-6e-05	4
18511	-8e-05	-0.0001	-0.00012	-0.00027	0.00039	6e-05	-9e-05	-6e-05	4
18512	-8e-05	-0.0001	-0.00012	-0.00027	0.00039	6e-05	-9e-05	-6e-05	4
18513	-8e-05	-0.0001	-0.00012	-0.00027	0.00039	6e-05	-9e-05	-6e-05	4
18514	-8e-05	-0.0001	-0.00012	-0.00027	0.00039	6e-05	-9e-05	-6e-05	4
18515	-8e-05	-0.0001	-0.00012	-0.00027	0.00039	6e-05	-9e-05	-6e-05	4
18516	-8e-05	-0.0001	-0.00012	-0.00027	0.00039	6e-05	-9e-05	-6e-05	4
18517	-8e-05	-0.0001	-0.00012	-0.00027	0.00039	6e-05	-9e-05	-6e-05	4
18518	-8e-05	-0.0001	-0.00012	-0.00027	0.00039	6e-05	-9e-05	-6e-05	4
18519	-8e-05	-0.0001	-0.00012	-0.00027	0.00039	6e-05	-9e-05	-6e-05	4
18520	-8e-05	-0.0001	-0.00012	-0.00027	0.00039	6e-05	-9e-05	-6e-05	4
18521	-8e-05	-0.0001	-0.00012	-0.00027	0.00039	6e-05	-9e-05	-6e-05	4
18522	1e-05	-4e-05	-4e-05	-1e-05	-5e-05	-0.00045	4e-05	4e-05	4
18523	1e-05	-4e-05	-4e-05	-1e-05	-5e-05	-0.00045	4e-05	4e-05	4
18524	1e-05	-4e-05	-4e-05	-1e-05	-5e-05	-0.00045	4e-05	4e-05	4
18525	1e-05	-4e-05	-4e-05	-1e-05	-5e-05	-0.00045	4e-05	4e-05	4
18526	1e-05	-4e-05	-4e-05	-1e-05	-5e-05	-0.00045	4e-05	4e-05	4
18527	1e-05	-4e-05	-4e-05	-1e-05	-5e-05	-0.00045	4e-05	4e-05	4
18528	1e-05	-4e-05	-4e-05	-1e-05	-5e-05	-0.00045	4e-05	4e-05	4
18529	9e-05	8e-05	7e-05	-2e-05	-0.00019	-0.0003	-2e-05	0.00011	4
18530	9e-05	8e-05	7e-05	-2e-05	-0.00019	-0.0003	-2e-05	0.00011	4
18531	9e-05	8e-05	7e-05	-2e-05	-0.00019	-0.0003	-2e-05	0.00011	4
18532	9e-05	8e-05	7e-05	-2e-05	-0.00019	-0.0003	-2e-05	0.00011	4
18533	9e-05	8e-05	7e-05	-2e-05	-0.00019	-0.0003	-2e-05	0.00011	4
18534	9e-05	8e-05	7e-05	-2e-05	-0.00019	-0.0003	-2e-05	0.00011	4
18535	9e-05	8e-05	7e-05	-2e-05	-0.00019	-0.0003	-2e-05	0.00011	4
18536	9e-05	8e-05	7e-05	-2e-05	-0.00019	-0.0003	-2e-05	0.00011	4
18538	9e-05	8e-05	7e-05	-2e-05	-0.00019	-0.0003	-2e-05	0.00011	4
18539	9e-05	8e-05	7e-05	-2e-05	-0.00019	-0.0003	-2e-05	0.00011	4
18540	9e-05	8e-05	7e-05	-2e-05	-0.00019	-0.0003	-2e-05	0.00011	4
18541	9e-05	8e-05	7e-05	-2e-05	-0.00019	-0.0003	-2e-05	0.00011	4
18542	9e-05	8e-05	7e-05	-2e-05	-0.00019	-0.0003	-2e-05	0.00011	4
18543	9e-05	8e-05	7e-05	-2e-05	-0.00019	-0.0003	-2e-05	0.00011	4
18544	-3e-05	-6e-05	-4e-05	5e-05	0.00077	1e-05	-0.0001	-4e-05	4
18545	2e-05	4e-05	0.00018	0.00011	0.00017	-0.00027	0	-3e-05	4
18546	2e-05	4e-05	0.00018	0.00011	0.00017	-0.00027	0	-3e-05	4
18547	2e-05	4e-05	0.00018	0.00011	0.00017	-0.00027	0	-3e-05	4
18548	2e-05	4e-05	0.00018	0.00011	0.00017	-0.00027	0	-3e-05	4
18549	2e-05	4e-05	0.00018	0.00011	0.00017	-0.00027	0	-3e-05	4
18550	2e-05	4e-05	0.00018	0.00011	0.00017	-0.00027	0	-3e-05	4
18551	2e-05	4e-05	0.00018	0.00011	0.00017	-0.00027	0	-3e-05	4
18552	2e-05	4e-05	0.00018	0.00011	0.00017	-0.00027	0	-3e-05	4
18553	2e-05	4e-05	0.00018	0.00011	0.00017	-0.00027	0	-3e-05	4
18554	2e-05	4e-05	0.00018	0.00011	0.00017	-0.00027	0	-3e-05	4
18555	2e-05	4e-05	0.00018	0.00011	0.00017	-0.00027	0	-3e-05	4
18556	2e-05	4e-05	0.00018	0.00011	0.00017	-0.00027	0	-3e-05	4
18557	2e-05	4e-05	0.00018	0.00011	0.00017	-0.00027	0	-3e-05	4
18558	2e-05	4e-05	0.00018	0.00011	0.00017	-0.00027	0	-3e-05	4
18559	2e-05	4e-05	0.00018	0.00011	0.00017	-0.00027	0	-3e-05	4
18560	2e-05	4e-05	0.00018	0.00011	0.00017	-0.00027	0	-3e-05	4
18561	2e-05	4e-05	0.00018	0.00011	0.00017	-0.00027	0	-3e-05	4
18562	2e-05	4e-05	0.00018	0.00011	0.00017	-0.00027	0	-3e-05	4
18563	2e-05	4e-05	0.00018	0.00011	0.00017	-0.00027	0	-3e-05	4
18564	2e-05	4e-05	0.00018	0.00011	0.00017	-0.00027	0	-3e-05	4
18565	2e-05	4e-05	0.00018	0.00011	0.00017	-0.00027	0	-3e-05	4
18566	-8e-05	-3e-05	5e-05	0.00054	0.00031	-0.00039	-3e-05	-9e-05	4
18567	9e-05	0.00013	0.00025	0.00026	-0.00015	0.00098	0.00028	0.00015	4
18568	9e-05	0.00013	0.00025	0.00026	-0.00015	0.00098	0.00028	0.00015	4
18569	9e-05	0.00013	0.00025	0.00026	-0.00015	0.00098	0.00028	0.00015	4
18570	9e-05	0.00013	0.00025	0.00026	-0.00015	0.00098	0.00028	0.00015	4
18571	9e-05	0.00013	0.00025	0.00026	-0.00015	0.00098	0.00028	0.00015	4
18572	9e-05	0.00013	0.00025	0.00026	-0.00015	0.00098	0.00028	0.00015	4
18573	9e-05	0.00013	0.00025	0.00026	-0.00015	0.00098	0.00028	0.00015	4
18574	9e-05	0.00013	0.00025	0.00026	-0.00015	0.00098	0.00028	0.00015	4
18575	9e-05	0.00013	0.00025	0.00026	-0.00015	0.00098	0.00028	0.00015	4
18576	9e-05	0.00013	0.00025	0.00026	-0.00015	0.00098	0.00028	0.00015	4
18577	9e-05	0.00013	0.00025	0.00026	-0.00015	0.00098	0.00028	0.00015	4
18578	9e-05	0.00013	0.00025	0.00026	-0.00015	0.00098	0.00028	0.00015	4
18579	9e-05	0.00013	0.00025	0.00026	-0.00015	0.00098	0.00028	0.00015	4
18580	9e-05	0.00013	0.00025	0.00026	-0.00015	0.00098	0.00028	0.00015	4
18581	6e-05	8e-05	0.00011	-1e-05	0.00031	0.00068	0.00036	8e-05	4
18582	6e-05	8e-05	0.00011	-1e-05	0.00031	0.00068	0.00036	8e-05	4
18583	6e-05	8e-05	0.00011	-1e-05	0.00031	0.00068	0.00036	8e-05	4
18584	6e-05	8e-05	0.00011	-1e-05	0.00031	0.00068	0.00036	8e-05	4
18585	6e-05	8e-05	0.00011	-1e-05	0.00031	0.00068	0.00036	8e-05	4
18586	6e-05	8e-05	0.00011	-1e-05	0.00031	0.00068	0.00036	8e-05	4
18588	6e-05	8e-05	0.00011	-1e-05	0.00031	0.00068	0.00036	8e-05	4
18589	-1e-05	-3e-05	-9e-05	-0.00035	-0.00055	0.00016	6e-05	-3e-05	4
18590	-1e-05	-3e-05	-9e-05	-0.00035	-0.00055	0.00016	6e-05	-3e-05	4
18591	-1e-05	-3e-05	-9e-05	-0.00035	-0.00055	0.00016	6e-05	-3e-05	4
18592	-1e-05	-3e-05	-9e-05	-0.00035	-0.00055	0.00016	6e-05	-3e-05	4
18593	-1e-05	-3e-05	-9e-05	-0.00035	-0.00055	0.00016	6e-05	-3e-05	4
18594	-1e-05	-3e-05	-9e-05	-0.00035	-0.00055	0.00016	6e-05	-3e-05	4
18595	-1e-05	-3e-05	-9e-05	-0.00035	-0.00055	0.00016	6e-05	-3e-05	4
18596	-1e-05	-3e-05	-9e-05	-0.00035	-0.00055	0.00016	6e-05	-3e-05	4
18597	-1e-05	-3e-05	-9e-05	-0.00035	-0.00055	0.00016	6e-05	-3e-05	4
18598	-1e-05	-3e-05	-9e-05	-0.00035	-0.00055	0.00016	6e-05	-3e-05	4
18599	-1e-05	-3e-05	-9e-05	-0.00035	-0.00055	0.00016	6e-05	-3e-05	4
18600	-1e-05	-3e-05	-9e-05	-0.00035	-0.00055	0.00016	6e-05	-3e-05	4
18601	-1e-05	-3e-05	-9e-05	-0.00035	-0.00055	0.00016	6e-05	-3e-05	4
18602	-1e-05	-3e-05	-9e-05	-0.00035	-0.00055	0.00016	6e-05	-3e-05	4
18603	-1e-05	-3e-05	-9e-05	-0.00035	-0.00055	0.00016	6e-05	-3e-05	4
18604	-1e-05	2e-05	0	-7e-05	-0.00044	-0.00014	1e-05	2e-05	4
18605	-1e-05	-4e-05	-3e-05	-2e-05	6e-05	0.00033	4e-05	0	4
18606	-1e-05	-4e-05	-3e-05	-2e-05	6e-05	0.00033	4e-05	0	4
18607	-1e-05	-4e-05	-3e-05	-2e-05	6e-05	0.00033	4e-05	0	4
18608	-1e-05	-4e-05	-3e-05	-2e-05	6e-05	0.00033	4e-05	0	4
18609	-1e-05	-4e-05	-3e-05	-2e-05	6e-05	0.00033	4e-05	0	4
18610	-1e-05	-4e-05	-3e-05	-2e-05	6e-05	0.00033	4e-05	0	4
18611	-1e-05	-4e-05	-3e-05	-2e-05	6e-05	0.00033	4e-05	0	4
18612	-1e-05	-4e-05	-3e-05	-2e-05	6e-05	0.00033	4e-05	0	4
18613	-1e-05	-4e-05	-3e-05	-2e-05	6e-05	0.00033	4e-05	0	4
18614	-1e-05	-4e-05	-3e-05	-2e-05	6e-05	0.00033	4e-05	0	4
18615	-1e-05	-4e-05	-3e-05	-2e-05	6e-05	0.00033	4e-05	0	4
18616	-1e-05	-4e-05	-3e-05	-2e-05	6e-05	0.00033	4e-05	0	4
18617	-1e-05	-4e-05	-3e-05	-2e-05	6e-05	0.00033	4e-05	0	4
18618	-1e-05	-4e-05	-3e-05	-2e-05	6e-05	0.00033	4e-05	0	4
18619	-1e-05	-4e-05	-3e-05	-2e-05	6e-05	0.00033	4e-05	0	4
18620	-1e-05	-4e-05	-3e-05	-2e-05	6e-05	0.00033	4e-05	0	4
18621	-1e-05	-4e-05	-3e-05	-2e-05	6e-05	0.00033	4e-05	0	4
18622	-1e-05	-4e-05	-3e-05	-2e-05	6e-05	0.00033	4e-05	0	4
18623	-1e-05	-4e-05	-3e-05	-2e-05	6e-05	0.00033	4e-05	0	4
18624	-1e-05	-4e-05	-3e-05	-2e-05	6e-05	0.00033	4e-05	0	4
18625	-1e-05	-4e-05	-3e-05	-2e-05	6e-05	0.00033	4e-05	0	4
18626	-1e-05	2e-05	0.00015	0.00084	0.00093	0.00021	0.0001	-3e-05	4
18627	-8e-05	-9e-05	-0.00017	-0.00021	-0.00039	-0.00071	-0.00018	-7e-05	4
18628	-8e-05	-9e-05	-0.00017	-0.00021	-0.00039	-0.00071	-0.00018	-7e-05	4
18629	-8e-05	-9e-05	-0.00017	-0.00021	-0.00039	-0.00071	-0.00018	-7e-05	4
18630	-8e-05	-9e-05	-0.00017	-0.00021	-0.00039	-0.00071	-0.00018	-7e-05	4
18631	-8e-05	-9e-05	-0.00017	-0.00021	-0.00039	-0.00071	-0.00018	-7e-05	4
18632	-8e-05	-9e-05	-0.00017	-0.00021	-0.00039	-0.00071	-0.00018	-7e-05	4
18633	-8e-05	-9e-05	-0.00017	-0.00021	-0.00039	-0.00071	-0.00018	-7e-05	4
18634	-8e-05	-9e-05	-0.00017	-0.00021	-0.00039	-0.00071	-0.00018	-7e-05	4
18635	-8e-05	-9e-05	-0.00017	-0.00021	-0.00039	-0.00071	-0.00018	-7e-05	4
18636	-8e-05	-9e-05	-0.00017	-0.00021	-0.00039	-0.00071	-0.00018	-7e-05	4
18638	-8e-05	-9e-05	-0.00017	-0.00021	-0.00039	-0.00071	-0.00018	-7e-05	4
18639	-8e-05	-9e-05	-0.00017	-0.00021	-0.00039	-0.00071	-0.00018	-7e-05	4
18640	-8e-05	-9e-05	-0.00017	-0.00021	-0.00039	-0.00071	-0.00018	-7e-05	4
18641	6e-05	9e-05	0.0002	0.00058	0.00068	0.00026	0.00014	6e-05	4
18642	6e-05	9e-05	0.0002	0.00058	0.00068	0.00026	0.00014	6e-05	4
18643	6e-05	9e-05	0.0002	0.00058	0.00068	0.00026	0.00014	6e-05	4
18644	6e-05	9e-05	0.0002	0.00058	0.00068	0.00026	0.00014	6e-05	4
18645	6e-05	9e-05	0.0002	0.00058	0.00068	0.00026	0.00014	6e-05	4
18646	6e-05	9e-05	0.0002	0.00058	0.00068	0.00026	0.00014	6e-05	4
18647	6e-05	9e-05	0.0002	0.00058	0.00068	0.00026	0.00014	6e-05	4
18648	6e-05	9e-05	0.0002	0.00058	0.00068	0.00026	0.00014	6e-05	4
18649	-3e-05	-6e-05	-0.0002	-0.0006	-0.00097	-0.0003	1e-05	-5e-05	4
18650	-3e-05	-6e-05	-0.0002	-0.0006	-0.00097	-0.0003	1e-05	-5e-05	4
18651	-3e-05	-6e-05	-0.0002	-0.0006	-0.00097	-0.0003	1e-05	-5e-05	4
18652	-3e-05	-6e-05	-0.0002	-0.0006	-0.00097	-0.0003	1e-05	-5e-05	4
18653	-3e-05	-6e-05	-0.0002	-0.0006	-0.00097	-0.0003	1e-05	-5e-05	4
18654	-3e-05	-6e-05	-0.0002	-0.0006	-0.00097	-0.0003	1e-05	-5e-05	4
18655	-3e-05	-6e-05	-0.0002	-0.0006	-0.00097	-0.0003	1e-05	-5e-05	4
18656	-3e-05	-6e-05	-0.0002	-0.0006	-0.00097	-0.0003	1e-05	-5e-05	4
18657	-3e-05	-6e-05	-0.0002	-0.0006	-0.00097	-0.0003	1e-05	-5e-05	4
18658	-3e-05	-6e-05	-0.0002	-0.0006	-0.00097	-0.0003	1e-05	-5e-05	4
18659	-3e-05	-6e-05	-0.0002	-0.0006	-0.00097	-0.0003	1e-05	-5e-05	4
18660	-3e-05	-6e-05	-0.0002	-0.0006	-0.00097	-0.0003	1e-05	-5e-05	4
18661	-3e-05	-6e-05	-0.0002	-0.0006	-0.00097	-0.0003	1e-05	-5e-05	4
18662	-3e-05	-6e-05	-0.0002	-0.0006	-0.00097	-0.0003	1e-05	-5e-05	4
18663	-3e-05	-6e-05	-0.0002	-0.0006	-0.00097	-0.0003	1e-05	-5e-05	4
18664	-5e-05	-8e-05	-8e-05	0.00027	0.00071	-0.00016	-0.00022	-0.0001	4
18665	1e-05	5e-05	0.0001	0.0001	0.00018	-0.0007	-0.00017	-3e-05	4
18666	1e-05	5e-05	0.0001	0.0001	0.00018	-0.0007	-0.00017	-3e-05	4
18667	1e-05	5e-05	0.0001	0.0001	0.00018	-0.0007	-0.00017	-3e-05	4
18668	1e-05	5e-05	0.0001	0.0001	0.00018	-0.0007	-0.00017	-3e-05	4
18669	1e-05	5e-05	0.0001	0.0001	0.00018	-0.0007	-0.00017	-3e-05	4
18670	1e-05	5e-05	0.0001	0.0001	0.00018	-0.0007	-0.00017	-3e-05	4
18671	1e-05	5e-05	0.0001	0.0001	0.00018	-0.0007	-0.00017	-3e-05	4
18672	1e-05	5e-05	0.0001	0.0001	0.00018	-0.0007	-0.00017	-3e-05	4
18673	1e-05	5e-05	0.0001	0.0001	0.00018	-0.0007	-0.00017	-3e-05	4
18674	1e-05	5e-05	0.0001	0.0001	0.00018	-0.0007	-0.00017	-3e-05	4
18675	1e-05	5e-05	0.0001	0.0001	0.00018	-0.0007	-0.00017	-3e-05	4
18676	1e-05	5e-05	0.0001	0.0001	0.00018	-0.0007	-0.00017	-3e-05	4
18677	1e-05	5e-05	0.0001	0.0001	0.00018	-0.0007	-0.00017	-3e-05	4
18678	1e-05	5e-05	0.0001	0.0001	0.00018	-0.0007	-0.00017	-3e-05	4
18679	1e-05	5e-05	0.0001	0.0001	0.00018	-0.0007	-0.00017	-3e-05	4
18680	1e-05	5e-05	0.0001	0.0001	0.00018	-0.0007	-0.00017	-3e-05	4
18681	1e-05	5e-05	0.0001	0.0001	0.00018	-0.0007	-0.00017	-3e-05	4
18682	1e-05	5e-05	0.0001	0.0001	0.00018	-0.0007	-0.00017	-3e-05	4
18683	1e-05	5e-05	0.0001	0.0001	0.00018	-0.0007	-0.00017	-3e-05	4
18684	1e-05	5e-05	0.0001	0.0001	0.00018	-0.0007	-0.00017	-3e-05	4
18685	1e-05	5e-05	0.0001	0.0001	0.00018	-0.0007	-0.00017	-3e-05	4
18686	-7e-05	-7e-05	-9e-05	-0.00012	-0.00028	-0.00021	-6e-05	-7e-05	4
18688	0	5e-05	0.00013	0.00033	0.00027	9e-05	-4e-05	-2e-05	4
18689	0	5e-05	0.00013	0.00033	0.00027	9e-05	-4e-05	-2e-05	4
18690	0	5e-05	0.00013	0.00033	0.00027	9e-05	-4e-05	-2e-05	4
18691	0	5e-05	0.00013	0.00033	0.00027	9e-05	-4e-05	-2e-05	4
18692	0	5e-05	0.00013	0.00033	0.00027	9e-05	-4e-05	-2e-05	4
18693	0	5e-05	0.00013	0.00033	0.00027	9e-05	-4e-05	-2e-05	4
18694	0	5e-05	0.00013	0.00033	0.00027	9e-05	-4e-05	-2e-05	4
18695	0	5e-05	0.00013	0.00033	0.00027	9e-05	-4e-05	-2e-05	4
18696	0	5e-05	0.00013	0.00033	0.00027	9e-05	-4e-05	-2e-05	4
18697	0	5e-05	0.00013	0.00033	0.00027	9e-05	-4e-05	-2e-05	4
18698	0	5e-05	0.00013	0.00033	0.00027	9e-05	-4e-05	-2e-05	4
18699	0	5e-05	0.00013	0.00033	0.00027	9e-05	-4e-05	-2e-05	4
18700	0	5e-05	0.00013	0.00033	0.00027	9e-05	-4e-05	-2e-05	4
18701	0	7e-05	0.0001	0.00042	0.00039	0.00049	8e-05	6e-05	4
18702	0	7e-05	0.0001	0.00042	0.00039	0.00049	8e-05	6e-05	4
18703	0	7e-05	0.0001	0.00042	0.00039	0.00049	8e-05	6e-05	4
18704	0	7e-05	0.0001	0.00042	0.00039	0.00049	8e-05	6e-05	4
18705	0	7e-05	0.0001	0.00042	0.00039	0.00049	8e-05	6e-05	4
18706	0	7e-05	0.0001	0.00042	0.00039	0.00049	8e-05	6e-05	4
18707	0	7e-05	0.0001	0.00042	0.00039	0.00049	8e-05	6e-05	4
18708	0	7e-05	0.0001	0.00042	0.00039	0.00049	8e-05	6e-05	4
18709	2e-05	2e-05	7e-05	0.00047	0.00115	0	5e-05	5e-05	4
18710	2e-05	2e-05	7e-05	0.00047	0.00115	0	5e-05	5e-05	4
18711	2e-05	2e-05	7e-05	0.00047	0.00115	0	5e-05	5e-05	4
18712	2e-05	2e-05	7e-05	0.00047	0.00115	0	5e-05	5e-05	4
18713	2e-05	2e-05	7e-05	0.00047	0.00115	0	5e-05	5e-05	4
18714	2e-05	2e-05	7e-05	0.00047	0.00115	0	5e-05	5e-05	4
18715	2e-05	2e-05	7e-05	0.00047	0.00115	0	5e-05	5e-05	4
18716	2e-05	2e-05	7e-05	0.00047	0.00115	0	5e-05	5e-05	4
18717	2e-05	2e-05	7e-05	0.00047	0.00115	0	5e-05	5e-05	4
18718	2e-05	2e-05	7e-05	0.00047	0.00115	0	5e-05	5e-05	4
18719	2e-05	2e-05	7e-05	0.00047	0.00115	0	5e-05	5e-05	4
18720	2e-05	2e-05	7e-05	0.00047	0.00115	0	5e-05	5e-05	4
18721	2e-05	2e-05	7e-05	0.00047	0.00115	0	5e-05	5e-05	4
18722	2e-05	2e-05	7e-05	0.00047	0.00115	0	5e-05	5e-05	4
18723	2e-05	2e-05	7e-05	0.00047	0.00115	0	5e-05	5e-05	4
18724	-4e-05	-4e-05	4e-05	0.00022	3e-05	-0.00061	-0.00027	-0.00011	4
18725	0	-2e-05	-7e-05	1e-05	-8e-05	0.00033	5e-05	0	4
18726	0	-2e-05	-7e-05	1e-05	-8e-05	0.00033	5e-05	0	4
18727	0	-2e-05	-7e-05	1e-05	-8e-05	0.00033	5e-05	0	4
18728	0	-2e-05	-7e-05	1e-05	-8e-05	0.00033	5e-05	0	4
18729	0	-2e-05	-7e-05	1e-05	-8e-05	0.00033	5e-05	0	4
18730	0	-2e-05	-7e-05	1e-05	-8e-05	0.00033	5e-05	0	4
18731	0	-2e-05	-7e-05	1e-05	-8e-05	0.00033	5e-05	0	4
18732	0	-2e-05	-7e-05	1e-05	-8e-05	0.00033	5e-05	0	4
18733	0	-2e-05	-7e-05	1e-05	-8e-05	0.00033	5e-05	0	4
18734	0	-2e-05	-7e-05	1e-05	-8e-05	0.00033	5e-05	0	4
18735	0	-2e-05	-7e-05	1e-05	-8e-05	0.00033	5e-05	0	4
18736	0	-2e-05	-7e-05	1e-05	-8e-05	0.00033	5e-05	0	4
18738	0	-2e-05	-7e-05	1e-05	-8e-05	0.00033	5e-05	0	4
18739	0	-2e-05	-7e-05	1e-05	-8e-05	0.00033	5e-05	0	4
18740	0	-2e-05	-7e-05	1e-05	-8e-05	0.00033	5e-05	0	4
18741	0	-2e-05	-7e-05	1e-05	-8e-05	0.00033	5e-05	0	4
18742	0	-2e-05	-7e-05	1e-05	-8e-05	0.00033	5e-05	0	4
18743	0	-2e-05	-7e-05	1e-05	-8e-05	0.00033	5e-05	0	4
18744	0	-2e-05	-7e-05	1e-05	-8e-05	0.00033	5e-05	0	4
18745	0	-2e-05	-7e-05	1e-05	-8e-05	0.00033	5e-05	0	4
18746	1e-05	-3e-05	-3e-05	-0.00016	-0.00045	-0.00055	-0.00021	-3e-05	4
18747	-7e-05	-7e-05	-1e-05	0	-0.00049	-0.00045	-0.00015	-7e-05	4
18748	-7e-05	-7e-05	-1e-05	0	-0.00049	-0.00045	-0.00015	-7e-05	4
18749	-7e-05	-7e-05	-1e-05	0	-0.00049	-0.00045	-0.00015	-7e-05	4
18750	-7e-05	-7e-05	-1e-05	0	-0.00049	-0.00045	-0.00015	-7e-05	4
18751	-7e-05	-7e-05	-1e-05	0	-0.00049	-0.00045	-0.00015	-7e-05	4
18752	-7e-05	-7e-05	-1e-05	0	-0.00049	-0.00045	-0.00015	-7e-05	4
18753	-7e-05	-7e-05	-1e-05	0	-0.00049	-0.00045	-0.00015	-7e-05	4
18754	-7e-05	-7e-05	-1e-05	0	-0.00049	-0.00045	-0.00015	-7e-05	4
18755	-7e-05	-7e-05	-1e-05	0	-0.00049	-0.00045	-0.00015	-7e-05	4
18756	-7e-05	-7e-05	-1e-05	0	-0.00049	-0.00045	-0.00015	-7e-05	4
18757	-7e-05	-7e-05	-1e-05	0	-0.00049	-0.00045	-0.00015	-7e-05	4
18758	-7e-05	-7e-05	-1e-05	0	-0.00049	-0.00045	-0.00015	-7e-05	4
18759	-7e-05	-7e-05	-1e-05	0	-0.00049	-0.00045	-0.00015	-7e-05	4
18760	-6e-05	-0.0001	-0.00013	6e-05	3e-05	-0.00048	0.00011	0	4
18761	-2e-05	-2e-05	0	7e-05	0.00014	0.00047	-0.00011	-7e-05	4
18762	-2e-05	-2e-05	0	7e-05	0.00014	0.00047	-0.00011	-7e-05	4
18763	-2e-05	-2e-05	0	7e-05	0.00014	0.00047	-0.00011	-7e-05	4
18764	-2e-05	-2e-05	0	7e-05	0.00014	0.00047	-0.00011	-7e-05	4
18765	-2e-05	-2e-05	0	7e-05	0.00014	0.00047	-0.00011	-7e-05	4
18766	-2e-05	-2e-05	0	7e-05	0.00014	0.00047	-0.00011	-7e-05	4
18767	-2e-05	-2e-05	0	7e-05	0.00014	0.00047	-0.00011	-7e-05	4
18768	-2e-05	-2e-05	0	7e-05	0.00014	0.00047	-0.00011	-7e-05	4
18769	0.00016	0.00017	0.00027	0.00039	0.00081	0.00064	0.0004	0.00019	4
18770	0.00016	0.00017	0.00027	0.00039	0.00081	0.00064	0.0004	0.00019	4
18771	0.00016	0.00017	0.00027	0.00039	0.00081	0.00064	0.0004	0.00019	4
18772	0.00016	0.00017	0.00027	0.00039	0.00081	0.00064	0.0004	0.00019	4
18773	0.00016	0.00017	0.00027	0.00039	0.00081	0.00064	0.0004	0.00019	4
18774	0.00016	0.00017	0.00027	0.00039	0.00081	0.00064	0.0004	0.00019	4
18775	0.00016	0.00017	0.00027	0.00039	0.00081	0.00064	0.0004	0.00019	4
18776	0.00016	0.00017	0.00027	0.00039	0.00081	0.00064	0.0004	0.00019	4
18777	0.00016	0.00017	0.00027	0.00039	0.00081	0.00064	0.0004	0.00019	4
18778	0.00016	0.00017	0.00027	0.00039	0.00081	0.00064	0.0004	0.00019	4
18779	0.00016	0.00017	0.00027	0.00039	0.00081	0.00064	0.0004	0.00019	4
18780	0.00016	0.00017	0.00027	0.00039	0.00081	0.00064	0.0004	0.00019	4
18781	0.00016	0.00017	0.00027	0.00039	0.00081	0.00064	0.0004	0.00019	4
18782	0.00016	0.00017	0.00027	0.00039	0.00081	0.00064	0.0004	0.00019	4
18783	0.00016	0.00017	0.00027	0.00039	0.00081	0.00064	0.0004	0.00019	4
18784	8e-05	0.0001	4e-05	-0.00047	-0.00095	-0.00015	0.00038	0.00016	4
18785	8e-05	0.0001	4e-05	-0.00047	-0.00095	-0.00015	0.00038	0.00016	4
18786	8e-05	0.0001	4e-05	-0.00047	-0.00095	-0.00015	0.00038	0.00016	4
18788	8e-05	0.0001	4e-05	-0.00047	-0.00095	-0.00015	0.00038	0.00016	4
18789	8e-05	0.0001	4e-05	-0.00047	-0.00095	-0.00015	0.00038	0.00016	4
18790	8e-05	0.0001	4e-05	-0.00047	-0.00095	-0.00015	0.00038	0.00016	4
18791	8e-05	0.0001	4e-05	-0.00047	-0.00095	-0.00015	0.00038	0.00016	4
18792	8e-05	0.0001	4e-05	-0.00047	-0.00095	-0.00015	0.00038	0.00016	4
18793	8e-05	0.0001	4e-05	-0.00047	-0.00095	-0.00015	0.00038	0.00016	4
18794	8e-05	0.0001	4e-05	-0.00047	-0.00095	-0.00015	0.00038	0.00016	4
18795	8e-05	0.0001	4e-05	-0.00047	-0.00095	-0.00015	0.00038	0.00016	4
18796	8e-05	0.0001	4e-05	-0.00047	-0.00095	-0.00015	0.00038	0.00016	4
18797	8e-05	0.0001	4e-05	-0.00047	-0.00095	-0.00015	0.00038	0.00016	4
18798	8e-05	0.0001	4e-05	-0.00047	-0.00095	-0.00015	0.00038	0.00016	4
18799	8e-05	0.0001	4e-05	-0.00047	-0.00095	-0.00015	0.00038	0.00016	4
18800	8e-05	0.0001	4e-05	-0.00047	-0.00095	-0.00015	0.00038	0.00016	4
18801	8e-05	0.0001	4e-05	-0.00047	-0.00095	-0.00015	0.00038	0.00016	4
18802	8e-05	0.0001	4e-05	-0.00047	-0.00095	-0.00015	0.00038	0.00016	4
18803	8e-05	0.0001	4e-05	-0.00047	-0.00095	-0.00015	0.00038	0.00016	4
18804	8e-05	0.0001	4e-05	-0.00047	-0.00095	-0.00015	0.00038	0.00016	4
18805	8e-05	0.0001	4e-05	-0.00047	-0.00095	-0.00015	0.00038	0.00016	4
18806	-7e-05	-8e-05	-0.00013	-0.0004	-0.00051	0.00032	-0.00015	-9e-05	4
18807	-4e-05	-2e-05	-1e-05	0.00016	0.00034	8e-05	-0.00025	-8e-05	4
18808	-4e-05	-2e-05	-1e-05	0.00016	0.00034	8e-05	-0.00025	-8e-05	4
18809	-4e-05	-2e-05	-1e-05	0.00016	0.00034	8e-05	-0.00025	-8e-05	4
18810	-4e-05	-2e-05	-1e-05	0.00016	0.00034	8e-05	-0.00025	-8e-05	4
18811	-4e-05	-2e-05	-1e-05	0.00016	0.00034	8e-05	-0.00025	-8e-05	4
18812	-4e-05	-2e-05	-1e-05	0.00016	0.00034	8e-05	-0.00025	-8e-05	4
18813	-4e-05	-2e-05	-1e-05	0.00016	0.00034	8e-05	-0.00025	-8e-05	4
18814	-4e-05	-2e-05	-1e-05	0.00016	0.00034	8e-05	-0.00025	-8e-05	4
18815	-4e-05	-2e-05	-1e-05	0.00016	0.00034	8e-05	-0.00025	-8e-05	4
18816	-4e-05	-2e-05	-1e-05	0.00016	0.00034	8e-05	-0.00025	-8e-05	4
18817	-4e-05	-2e-05	-1e-05	0.00016	0.00034	8e-05	-0.00025	-8e-05	4
18818	-4e-05	-2e-05	-1e-05	0.00016	0.00034	8e-05	-0.00025	-8e-05	4
18819	-4e-05	-2e-05	-1e-05	0.00016	0.00034	8e-05	-0.00025	-8e-05	4
18820	-4e-05	-2e-05	-1e-05	0.00016	0.00034	8e-05	-0.00025	-8e-05	4
18821	0	-3e-05	-1e-05	-0.00015	-0.00031	-0.00039	5e-05	2e-05	4
18822	0	-3e-05	-1e-05	-0.00015	-0.00031	-0.00039	5e-05	2e-05	4
18823	0	-3e-05	-1e-05	-0.00015	-0.00031	-0.00039	5e-05	2e-05	4
18824	0	-3e-05	-1e-05	-0.00015	-0.00031	-0.00039	5e-05	2e-05	4
18825	0	-3e-05	-1e-05	-0.00015	-0.00031	-0.00039	5e-05	2e-05	4
18826	0	-3e-05	-1e-05	-0.00015	-0.00031	-0.00039	5e-05	2e-05	4
18827	0	-3e-05	-1e-05	-0.00015	-0.00031	-0.00039	5e-05	2e-05	4
18828	0	-3e-05	-1e-05	-0.00015	-0.00031	-0.00039	5e-05	2e-05	4
18829	-1e-05	-3e-05	6e-05	0.00052	0.0012	0.00113	0.00011	0	4
18830	-1e-05	-3e-05	6e-05	0.00052	0.0012	0.00113	0.00011	0	4
18831	-1e-05	-3e-05	6e-05	0.00052	0.0012	0.00113	0.00011	0	4
18832	-1e-05	-3e-05	6e-05	0.00052	0.0012	0.00113	0.00011	0	4
18833	-1e-05	-3e-05	6e-05	0.00052	0.0012	0.00113	0.00011	0	4
18834	-1e-05	-3e-05	6e-05	0.00052	0.0012	0.00113	0.00011	0	4
18835	-1e-05	-3e-05	6e-05	0.00052	0.0012	0.00113	0.00011	0	4
18836	-1e-05	-3e-05	6e-05	0.00052	0.0012	0.00113	0.00011	0	4
18838	-1e-05	-3e-05	6e-05	0.00052	0.0012	0.00113	0.00011	0	4
18839	-1e-05	-3e-05	6e-05	0.00052	0.0012	0.00113	0.00011	0	4
18840	-1e-05	-3e-05	6e-05	0.00052	0.0012	0.00113	0.00011	0	4
18841	-1e-05	-3e-05	6e-05	0.00052	0.0012	0.00113	0.00011	0	4
18842	-1e-05	-3e-05	6e-05	0.00052	0.0012	0.00113	0.00011	0	4
18843	-1e-05	-3e-05	6e-05	0.00052	0.0012	0.00113	0.00011	0	4
18844	0.00017	0.00017	5e-05	-0.00061	-0.00091	0.00033	0.00049	0.00027	4
18845	-2e-05	-3e-05	-3e-05	7e-05	-0.00035	-0.00061	-5e-05	-2e-05	4
18846	-2e-05	-3e-05	-3e-05	7e-05	-0.00035	-0.00061	-5e-05	-2e-05	4
18847	-2e-05	-3e-05	-3e-05	7e-05	-0.00035	-0.00061	-5e-05	-2e-05	4
18848	-2e-05	-3e-05	-3e-05	7e-05	-0.00035	-0.00061	-5e-05	-2e-05	4
18849	-2e-05	-3e-05	-3e-05	7e-05	-0.00035	-0.00061	-5e-05	-2e-05	4
18850	-2e-05	-3e-05	-3e-05	7e-05	-0.00035	-0.00061	-5e-05	-2e-05	4
18851	-2e-05	-3e-05	-3e-05	7e-05	-0.00035	-0.00061	-5e-05	-2e-05	4
18852	-2e-05	-3e-05	-3e-05	7e-05	-0.00035	-0.00061	-5e-05	-2e-05	4
18853	-2e-05	-3e-05	-3e-05	7e-05	-0.00035	-0.00061	-5e-05	-2e-05	4
18854	-2e-05	-3e-05	-3e-05	7e-05	-0.00035	-0.00061	-5e-05	-2e-05	4
18855	-2e-05	-3e-05	-3e-05	7e-05	-0.00035	-0.00061	-5e-05	-2e-05	4
18856	-2e-05	-3e-05	-3e-05	7e-05	-0.00035	-0.00061	-5e-05	-2e-05	4
18857	-2e-05	-3e-05	-3e-05	7e-05	-0.00035	-0.00061	-5e-05	-2e-05	4
18858	-2e-05	-3e-05	-3e-05	7e-05	-0.00035	-0.00061	-5e-05	-2e-05	4
18859	-2e-05	-3e-05	-3e-05	7e-05	-0.00035	-0.00061	-5e-05	-2e-05	4
18860	-2e-05	-3e-05	-3e-05	7e-05	-0.00035	-0.00061	-5e-05	-2e-05	4
18861	-2e-05	-3e-05	-3e-05	7e-05	-0.00035	-0.00061	-5e-05	-2e-05	4
18862	-2e-05	-3e-05	-3e-05	7e-05	-0.00035	-0.00061	-5e-05	-2e-05	4
18863	-2e-05	-3e-05	-3e-05	7e-05	-0.00035	-0.00061	-5e-05	-2e-05	4
18864	-2e-05	-3e-05	-3e-05	7e-05	-0.00035	-0.00061	-5e-05	-2e-05	4
18865	-2e-05	-3e-05	-3e-05	7e-05	-0.00035	-0.00061	-5e-05	-2e-05	4
18866	-4e-05	-5e-05	-2e-05	3e-05	0.00058	-0.00052	-0.00013	-7e-05	4
18867	5e-05	1e-05	-0.00018	-0.00072	-0.00027	0.0001	0.00025	8e-05	4
18868	5e-05	1e-05	-0.00018	-0.00072	-0.00027	0.0001	0.00025	8e-05	4
18869	5e-05	1e-05	-0.00018	-0.00072	-0.00027	0.0001	0.00025	8e-05	4
18870	5e-05	1e-05	-0.00018	-0.00072	-0.00027	0.0001	0.00025	8e-05	4
18871	5e-05	1e-05	-0.00018	-0.00072	-0.00027	0.0001	0.00025	8e-05	4
18872	5e-05	1e-05	-0.00018	-0.00072	-0.00027	0.0001	0.00025	8e-05	4
18873	5e-05	1e-05	-0.00018	-0.00072	-0.00027	0.0001	0.00025	8e-05	4
18874	5e-05	1e-05	-0.00018	-0.00072	-0.00027	0.0001	0.00025	8e-05	4
18875	5e-05	1e-05	-0.00018	-0.00072	-0.00027	0.0001	0.00025	8e-05	4
18876	5e-05	1e-05	-0.00018	-0.00072	-0.00027	0.0001	0.00025	8e-05	4
18877	5e-05	1e-05	-0.00018	-0.00072	-0.00027	0.0001	0.00025	8e-05	4
18878	5e-05	1e-05	-0.00018	-0.00072	-0.00027	0.0001	0.00025	8e-05	4
18879	5e-05	1e-05	-0.00018	-0.00072	-0.00027	0.0001	0.00025	8e-05	4
18880	5e-05	1e-05	-0.00018	-0.00072	-0.00027	0.0001	0.00025	8e-05	4
18881	-4e-05	-4e-05	1e-05	-0.0002	-0.00055	-0.00044	-8e-05	-4e-05	4
18882	-4e-05	-4e-05	1e-05	-0.0002	-0.00055	-0.00044	-8e-05	-4e-05	4
18883	-4e-05	-4e-05	1e-05	-0.0002	-0.00055	-0.00044	-8e-05	-4e-05	4
18884	-4e-05	-4e-05	1e-05	-0.0002	-0.00055	-0.00044	-8e-05	-4e-05	4
18885	-4e-05	-4e-05	1e-05	-0.0002	-0.00055	-0.00044	-8e-05	-4e-05	4
18886	-4e-05	-4e-05	1e-05	-0.0002	-0.00055	-0.00044	-8e-05	-4e-05	4
18888	-4e-05	-4e-05	1e-05	-0.0002	-0.00055	-0.00044	-8e-05	-4e-05	4
18889	1e-05	5e-05	0.00018	0.00048	-0.00034	-0.00031	-0.00011	0	4
18890	1e-05	5e-05	0.00018	0.00048	-0.00034	-0.00031	-0.00011	0	4
18891	1e-05	5e-05	0.00018	0.00048	-0.00034	-0.00031	-0.00011	0	4
18892	1e-05	5e-05	0.00018	0.00048	-0.00034	-0.00031	-0.00011	0	4
18893	1e-05	5e-05	0.00018	0.00048	-0.00034	-0.00031	-0.00011	0	4
18894	1e-05	5e-05	0.00018	0.00048	-0.00034	-0.00031	-0.00011	0	4
18895	1e-05	5e-05	0.00018	0.00048	-0.00034	-0.00031	-0.00011	0	4
18896	1e-05	5e-05	0.00018	0.00048	-0.00034	-0.00031	-0.00011	0	4
18897	1e-05	5e-05	0.00018	0.00048	-0.00034	-0.00031	-0.00011	0	4
18898	1e-05	5e-05	0.00018	0.00048	-0.00034	-0.00031	-0.00011	0	4
18899	1e-05	5e-05	0.00018	0.00048	-0.00034	-0.00031	-0.00011	0	4
18900	1e-05	5e-05	0.00018	0.00048	-0.00034	-0.00031	-0.00011	0	4
18901	1e-05	5e-05	0.00018	0.00048	-0.00034	-0.00031	-0.00011	0	4
18902	1e-05	5e-05	0.00018	0.00048	-0.00034	-0.00031	-0.00011	0	4
18903	1e-05	5e-05	0.00018	0.00048	-0.00034	-0.00031	-0.00011	0	4
18904	-2e-05	-2e-05	-2e-05	-0.00044	-0.00051	-0.0003	-5e-05	-2e-05	4
18905	-7e-05	-0.00013	-0.00021	-7e-05	-0.00013	-5e-05	-0.00025	-0.00018	4
18906	-7e-05	-0.00013	-0.00021	-7e-05	-0.00013	-5e-05	-0.00025	-0.00018	4
18907	-7e-05	-0.00013	-0.00021	-7e-05	-0.00013	-5e-05	-0.00025	-0.00018	4
18908	-7e-05	-0.00013	-0.00021	-7e-05	-0.00013	-5e-05	-0.00025	-0.00018	4
18909	-7e-05	-0.00013	-0.00021	-7e-05	-0.00013	-5e-05	-0.00025	-0.00018	4
18910	-7e-05	-0.00013	-0.00021	-7e-05	-0.00013	-5e-05	-0.00025	-0.00018	4
18911	-7e-05	-0.00013	-0.00021	-7e-05	-0.00013	-5e-05	-0.00025	-0.00018	4
18912	-7e-05	-0.00013	-0.00021	-7e-05	-0.00013	-5e-05	-0.00025	-0.00018	4
18913	-7e-05	-0.00013	-0.00021	-7e-05	-0.00013	-5e-05	-0.00025	-0.00018	4
18914	-7e-05	-0.00013	-0.00021	-7e-05	-0.00013	-5e-05	-0.00025	-0.00018	4
18915	-7e-05	-0.00013	-0.00021	-7e-05	-0.00013	-5e-05	-0.00025	-0.00018	4
18916	-7e-05	-0.00013	-0.00021	-7e-05	-0.00013	-5e-05	-0.00025	-0.00018	4
18917	-7e-05	-0.00013	-0.00021	-7e-05	-0.00013	-5e-05	-0.00025	-0.00018	4
18918	-7e-05	-0.00013	-0.00021	-7e-05	-0.00013	-5e-05	-0.00025	-0.00018	4
18919	-7e-05	-0.00013	-0.00021	-7e-05	-0.00013	-5e-05	-0.00025	-0.00018	4
18920	-7e-05	-0.00013	-0.00021	-7e-05	-0.00013	-5e-05	-0.00025	-0.00018	4
18921	-7e-05	-0.00013	-0.00021	-7e-05	-0.00013	-5e-05	-0.00025	-0.00018	4
18922	-7e-05	-0.00013	-0.00021	-7e-05	-0.00013	-5e-05	-0.00025	-0.00018	4
18923	-7e-05	-0.00013	-0.00021	-7e-05	-0.00013	-5e-05	-0.00025	-0.00018	4
18924	-7e-05	-0.00013	-0.00021	-7e-05	-0.00013	-5e-05	-0.00025	-0.00018	4
18925	-7e-05	-0.00013	-0.00021	-7e-05	-0.00013	-5e-05	-0.00025	-0.00018	4
18926	-5e-05	-7e-05	-5e-05	-1e-05	-0.00014	-0.0002	-7e-05	-9e-05	4
18927	-8e-05	-5e-05	-0.0001	-6e-05	0.00031	-4e-05	-0.00022	-0.00013	4
18928	-8e-05	-5e-05	-0.0001	-6e-05	0.00031	-4e-05	-0.00022	-0.00013	4
18929	-8e-05	-5e-05	-0.0001	-6e-05	0.00031	-4e-05	-0.00022	-0.00013	4
18930	-8e-05	-5e-05	-0.0001	-6e-05	0.00031	-4e-05	-0.00022	-0.00013	4
18931	-8e-05	-5e-05	-0.0001	-6e-05	0.00031	-4e-05	-0.00022	-0.00013	4
18932	-8e-05	-5e-05	-0.0001	-6e-05	0.00031	-4e-05	-0.00022	-0.00013	4
18933	-8e-05	-5e-05	-0.0001	-6e-05	0.00031	-4e-05	-0.00022	-0.00013	4
18934	-8e-05	-5e-05	-0.0001	-6e-05	0.00031	-4e-05	-0.00022	-0.00013	4
18935	-8e-05	-5e-05	-0.0001	-6e-05	0.00031	-4e-05	-0.00022	-0.00013	4
18936	-8e-05	-5e-05	-0.0001	-6e-05	0.00031	-4e-05	-0.00022	-0.00013	4
18938	-8e-05	-5e-05	-0.0001	-6e-05	0.00031	-4e-05	-0.00022	-0.00013	4
18939	-8e-05	-5e-05	-0.0001	-6e-05	0.00031	-4e-05	-0.00022	-0.00013	4
18940	-8e-05	-5e-05	-0.0001	-6e-05	0.00031	-4e-05	-0.00022	-0.00013	4
18941	4e-05	6e-05	9e-05	0.00014	0.00088	0.00056	0.0001	1e-05	4
18942	4e-05	6e-05	9e-05	0.00014	0.00088	0.00056	0.0001	1e-05	4
18943	4e-05	6e-05	9e-05	0.00014	0.00088	0.00056	0.0001	1e-05	4
18944	4e-05	6e-05	9e-05	0.00014	0.00088	0.00056	0.0001	1e-05	4
18945	4e-05	6e-05	9e-05	0.00014	0.00088	0.00056	0.0001	1e-05	4
18946	4e-05	6e-05	9e-05	0.00014	0.00088	0.00056	0.0001	1e-05	4
18947	4e-05	6e-05	9e-05	0.00014	0.00088	0.00056	0.0001	1e-05	4
18948	4e-05	6e-05	9e-05	0.00014	0.00088	0.00056	0.0001	1e-05	4
18949	-2e-05	0	8e-05	-7e-05	-0.00044	-0.00019	-7e-05	-2e-05	4
18950	-2e-05	0	8e-05	-7e-05	-0.00044	-0.00019	-7e-05	-2e-05	4
18951	-2e-05	0	8e-05	-7e-05	-0.00044	-0.00019	-7e-05	-2e-05	4
18952	-2e-05	0	8e-05	-7e-05	-0.00044	-0.00019	-7e-05	-2e-05	4
18953	-2e-05	0	8e-05	-7e-05	-0.00044	-0.00019	-7e-05	-2e-05	4
18954	-2e-05	0	8e-05	-7e-05	-0.00044	-0.00019	-7e-05	-2e-05	4
18955	-2e-05	0	8e-05	-7e-05	-0.00044	-0.00019	-7e-05	-2e-05	4
18956	-2e-05	0	8e-05	-7e-05	-0.00044	-0.00019	-7e-05	-2e-05	4
18957	-2e-05	0	8e-05	-7e-05	-0.00044	-0.00019	-7e-05	-2e-05	4
18958	-2e-05	0	8e-05	-7e-05	-0.00044	-0.00019	-7e-05	-2e-05	4
18959	-2e-05	0	8e-05	-7e-05	-0.00044	-0.00019	-7e-05	-2e-05	4
18960	-2e-05	0	8e-05	-7e-05	-0.00044	-0.00019	-7e-05	-2e-05	4
18961	-2e-05	0	8e-05	-7e-05	-0.00044	-0.00019	-7e-05	-2e-05	4
18962	-2e-05	0	8e-05	-7e-05	-0.00044	-0.00019	-7e-05	-2e-05	4
18963	-2e-05	0	8e-05	-7e-05	-0.00044	-0.00019	-7e-05	-2e-05	4
18964	-3e-05	0	-1e-05	-0.00037	-0.00038	0.00021	4e-05	-2e-05	4
18965	-6e-05	-9e-05	-4e-05	0.00037	5e-05	-0.0003	-0.0001	-5e-05	4
18966	-6e-05	-9e-05	-4e-05	0.00037	5e-05	-0.0003	-0.0001	-5e-05	4
18967	-6e-05	-9e-05	-4e-05	0.00037	5e-05	-0.0003	-0.0001	-5e-05	4
18968	-6e-05	-9e-05	-4e-05	0.00037	5e-05	-0.0003	-0.0001	-5e-05	4
18969	-6e-05	-9e-05	-4e-05	0.00037	5e-05	-0.0003	-0.0001	-5e-05	4
18970	-6e-05	-9e-05	-4e-05	0.00037	5e-05	-0.0003	-0.0001	-5e-05	4
18971	-6e-05	-9e-05	-4e-05	0.00037	5e-05	-0.0003	-0.0001	-5e-05	4
18972	-6e-05	-9e-05	-4e-05	0.00037	5e-05	-0.0003	-0.0001	-5e-05	4
18973	-6e-05	-9e-05	-4e-05	0.00037	5e-05	-0.0003	-0.0001	-5e-05	4
18974	-6e-05	-9e-05	-4e-05	0.00037	5e-05	-0.0003	-0.0001	-5e-05	4
18975	-6e-05	-9e-05	-4e-05	0.00037	5e-05	-0.0003	-0.0001	-5e-05	4
18976	-6e-05	-9e-05	-4e-05	0.00037	5e-05	-0.0003	-0.0001	-5e-05	4
18977	-6e-05	-9e-05	-4e-05	0.00037	5e-05	-0.0003	-0.0001	-5e-05	4
18978	-6e-05	-9e-05	-4e-05	0.00037	5e-05	-0.0003	-0.0001	-5e-05	4
18979	-6e-05	-9e-05	-4e-05	0.00037	5e-05	-0.0003	-0.0001	-5e-05	4
18980	-6e-05	-9e-05	-4e-05	0.00037	5e-05	-0.0003	-0.0001	-5e-05	4
18981	-6e-05	-9e-05	-4e-05	0.00037	5e-05	-0.0003	-0.0001	-5e-05	4
18982	-6e-05	-9e-05	-4e-05	0.00037	5e-05	-0.0003	-0.0001	-5e-05	4
18983	-6e-05	-9e-05	-4e-05	0.00037	5e-05	-0.0003	-0.0001	-5e-05	4
18984	-6e-05	-9e-05	-4e-05	0.00037	5e-05	-0.0003	-0.0001	-5e-05	4
18985	-6e-05	-9e-05	-4e-05	0.00037	5e-05	-0.0003	-0.0001	-5e-05	4
18986	-6e-05	-9e-05	-4e-05	0.00037	5e-05	-0.0003	-0.0001	-5e-05	4
18988	-8e-05	-8e-05	-8e-05	8e-05	-0.0001	-0.0003	-0.00014	-6e-05	4
18989	-8e-05	-8e-05	-8e-05	8e-05	-0.0001	-0.0003	-0.00014	-6e-05	4
18990	-8e-05	-8e-05	-8e-05	8e-05	-0.0001	-0.0003	-0.00014	-6e-05	4
18991	-8e-05	-8e-05	-8e-05	8e-05	-0.0001	-0.0003	-0.00014	-6e-05	4
18992	-8e-05	-8e-05	-8e-05	8e-05	-0.0001	-0.0003	-0.00014	-6e-05	4
18993	-8e-05	-8e-05	-8e-05	8e-05	-0.0001	-0.0003	-0.00014	-6e-05	4
18994	-8e-05	-8e-05	-8e-05	8e-05	-0.0001	-0.0003	-0.00014	-6e-05	4
18995	-8e-05	-8e-05	-8e-05	8e-05	-0.0001	-0.0003	-0.00014	-6e-05	4
18996	-8e-05	-8e-05	-8e-05	8e-05	-0.0001	-0.0003	-0.00014	-6e-05	4
18997	-8e-05	-8e-05	-8e-05	8e-05	-0.0001	-0.0003	-0.00014	-6e-05	4
18998	-8e-05	-8e-05	-8e-05	8e-05	-0.0001	-0.0003	-0.00014	-6e-05	4
18999	-8e-05	-8e-05	-8e-05	8e-05	-0.0001	-0.0003	-0.00014	-6e-05	4
19000	-8e-05	-8e-05	-8e-05	8e-05	-0.0001	-0.0003	-0.00014	-6e-05	4
19001	-8e-05	-8e-05	-8e-05	8e-05	-0.0001	-0.0003	-0.00014	-6e-05	4
19002	-8e-05	-8e-05	-8e-05	8e-05	-0.0001	-0.0003	-0.00014	-6e-05	4
19003	-8e-05	-8e-05	-8e-05	8e-05	-0.0001	-0.0003	-0.00014	-6e-05	4
19004	-8e-05	-8e-05	-8e-05	8e-05	-0.0001	-0.0003	-0.00014	-6e-05	4
19005	-8e-05	-8e-05	-8e-05	8e-05	-0.0001	-0.0003	-0.00014	-6e-05	4
19006	-8e-05	-8e-05	-8e-05	8e-05	-0.0001	-0.0003	-0.00014	-6e-05	4
19007	-8e-05	-8e-05	-8e-05	8e-05	-0.0001	-0.0003	-0.00014	-6e-05	4
19008	-8e-05	-8e-05	-8e-05	8e-05	-0.0001	-0.0003	-0.00014	-6e-05	4
19009	-0.00011	-0.00014	-0.00021	-0.0002	-0.00068	-0.00025	-7e-05	-0.00011	4
19010	0.00019	0.00025	0.00027	-0.00035	-0.00094	0.00076	0.00041	0.00025	4
19011	0.00019	0.00025	0.00027	-0.00035	-0.00094	0.00076	0.00041	0.00025	4
19012	0.00019	0.00025	0.00027	-0.00035	-0.00094	0.00076	0.00041	0.00025	4
19013	0.00019	0.00025	0.00027	-0.00035	-0.00094	0.00076	0.00041	0.00025	4
19014	0.00019	0.00025	0.00027	-0.00035	-0.00094	0.00076	0.00041	0.00025	4
19015	0.00019	0.00025	0.00027	-0.00035	-0.00094	0.00076	0.00041	0.00025	4
19016	0.00019	0.00025	0.00027	-0.00035	-0.00094	0.00076	0.00041	0.00025	4
19017	0.00019	0.00025	0.00027	-0.00035	-0.00094	0.00076	0.00041	0.00025	4
19018	0.00019	0.00025	0.00027	-0.00035	-0.00094	0.00076	0.00041	0.00025	4
19019	0.00019	0.00025	0.00027	-0.00035	-0.00094	0.00076	0.00041	0.00025	4
19020	0.00019	0.00025	0.00027	-0.00035	-0.00094	0.00076	0.00041	0.00025	4
19021	0.00019	0.00025	0.00027	-0.00035	-0.00094	0.00076	0.00041	0.00025	4
19022	0.00019	0.00025	0.00027	-0.00035	-0.00094	0.00076	0.00041	0.00025	4
19023	0.00019	0.00025	0.00027	-0.00035	-0.00094	0.00076	0.00041	0.00025	4
19024	0	2e-05	-3e-05	-0.00039	0.00041	-0.00055	-0.00022	-2e-05	4
19025	-5e-05	-7e-05	-2e-05	0.00024	0.00055	-0.00026	5e-05	-4e-05	4
19026	-5e-05	-7e-05	-2e-05	0.00024	0.00055	-0.00026	5e-05	-4e-05	4
19027	-5e-05	-7e-05	-2e-05	0.00024	0.00055	-0.00026	5e-05	-4e-05	4
19028	-5e-05	-7e-05	-2e-05	0.00024	0.00055	-0.00026	5e-05	-4e-05	4
19029	-5e-05	-7e-05	-2e-05	0.00024	0.00055	-0.00026	5e-05	-4e-05	4
19030	-5e-05	-7e-05	-2e-05	0.00024	0.00055	-0.00026	5e-05	-4e-05	4
19031	-5e-05	-7e-05	-2e-05	0.00024	0.00055	-0.00026	5e-05	-4e-05	4
19032	-5e-05	-7e-05	-2e-05	0.00024	0.00055	-0.00026	5e-05	-4e-05	4
19033	-5e-05	-7e-05	-2e-05	0.00024	0.00055	-0.00026	5e-05	-4e-05	4
19034	-5e-05	-7e-05	-2e-05	0.00024	0.00055	-0.00026	5e-05	-4e-05	4
19035	-5e-05	-7e-05	-2e-05	0.00024	0.00055	-0.00026	5e-05	-4e-05	4
19036	-5e-05	-7e-05	-2e-05	0.00024	0.00055	-0.00026	5e-05	-4e-05	4
19038	-5e-05	-7e-05	-2e-05	0.00024	0.00055	-0.00026	5e-05	-4e-05	4
19039	-5e-05	-7e-05	-2e-05	0.00024	0.00055	-0.00026	5e-05	-4e-05	4
19040	-5e-05	-7e-05	-2e-05	0.00024	0.00055	-0.00026	5e-05	-4e-05	4
19041	-5e-05	-7e-05	-2e-05	0.00024	0.00055	-0.00026	5e-05	-4e-05	4
19042	-5e-05	-7e-05	-2e-05	0.00024	0.00055	-0.00026	5e-05	-4e-05	4
19043	-5e-05	-7e-05	-2e-05	0.00024	0.00055	-0.00026	5e-05	-4e-05	4
19044	-5e-05	-7e-05	-2e-05	0.00024	0.00055	-0.00026	5e-05	-4e-05	4
19045	-5e-05	-7e-05	-2e-05	0.00024	0.00055	-0.00026	5e-05	-4e-05	4
19046	-5e-05	-7e-05	-2e-05	0.00024	0.00055	-0.00026	5e-05	-4e-05	4
19047	0.00011	0.00011	0.00012	0.00034	0.00059	0.00043	0.00018	0.00011	4
19048	0.00011	0.00011	0.00012	0.00034	0.00059	0.00043	0.00018	0.00011	4
19049	0.00011	0.00011	0.00012	0.00034	0.00059	0.00043	0.00018	0.00011	4
19050	0.00011	0.00011	0.00012	0.00034	0.00059	0.00043	0.00018	0.00011	4
19051	0.00011	0.00011	0.00012	0.00034	0.00059	0.00043	0.00018	0.00011	4
19052	0.00011	0.00011	0.00012	0.00034	0.00059	0.00043	0.00018	0.00011	4
19053	0.00011	0.00011	0.00012	0.00034	0.00059	0.00043	0.00018	0.00011	4
19054	0.00011	0.00011	0.00012	0.00034	0.00059	0.00043	0.00018	0.00011	4
19055	0.00011	0.00011	0.00012	0.00034	0.00059	0.00043	0.00018	0.00011	4
19056	0.00011	0.00011	0.00012	0.00034	0.00059	0.00043	0.00018	0.00011	4
19057	0.00011	0.00011	0.00012	0.00034	0.00059	0.00043	0.00018	0.00011	4
19058	0.00011	0.00011	0.00012	0.00034	0.00059	0.00043	0.00018	0.00011	4
19059	0.00011	0.00011	0.00012	0.00034	0.00059	0.00043	0.00018	0.00011	4
19060	0.00011	0.00011	0.00012	0.00034	0.00059	0.00043	0.00018	0.00011	4
19061	0.00011	0.00011	0.00012	0.00034	0.00059	0.00043	0.00018	0.00011	4
19062	0.00011	0.00011	0.00012	0.00034	0.00059	0.00043	0.00018	0.00011	4
19063	0.00011	0.00011	0.00012	0.00034	0.00059	0.00043	0.00018	0.00011	4
19064	0.00011	0.00011	0.00012	0.00034	0.00059	0.00043	0.00018	0.00011	4
19065	0.00011	0.00011	0.00012	0.00034	0.00059	0.00043	0.00018	0.00011	4
19066	0.00011	0.00011	0.00012	0.00034	0.00059	0.00043	0.00018	0.00011	4
19067	0.00011	0.00011	0.00012	0.00034	0.00059	0.00043	0.00018	0.00011	4
19068	0.00011	0.00011	0.00012	0.00034	0.00059	0.00043	0.00018	0.00011	4
19069	6e-05	8e-05	0.00015	0.00048	1e-05	0.00019	-3e-05	-4e-05	4
19070	-0.00012	-0.00013	-7e-05	0.00019	0.00076	0.00019	-0.00017	-0.00016	4
19071	-0.00012	-0.00013	-7e-05	0.00019	0.00076	0.00019	-0.00017	-0.00016	4
19072	-0.00012	-0.00013	-7e-05	0.00019	0.00076	0.00019	-0.00017	-0.00016	4
19073	-0.00012	-0.00013	-7e-05	0.00019	0.00076	0.00019	-0.00017	-0.00016	4
19074	-0.00012	-0.00013	-7e-05	0.00019	0.00076	0.00019	-0.00017	-0.00016	4
19075	-0.00012	-0.00013	-7e-05	0.00019	0.00076	0.00019	-0.00017	-0.00016	4
19076	-0.00012	-0.00013	-7e-05	0.00019	0.00076	0.00019	-0.00017	-0.00016	4
19077	-0.00012	-0.00013	-7e-05	0.00019	0.00076	0.00019	-0.00017	-0.00016	4
19078	-0.00012	-0.00013	-7e-05	0.00019	0.00076	0.00019	-0.00017	-0.00016	4
19079	-0.00012	-0.00013	-7e-05	0.00019	0.00076	0.00019	-0.00017	-0.00016	4
19080	-0.00012	-0.00013	-7e-05	0.00019	0.00076	0.00019	-0.00017	-0.00016	4
19081	-0.00012	-0.00013	-7e-05	0.00019	0.00076	0.00019	-0.00017	-0.00016	4
19082	-0.00012	-0.00013	-7e-05	0.00019	0.00076	0.00019	-0.00017	-0.00016	4
19083	-0.00012	-0.00013	-7e-05	0.00019	0.00076	0.00019	-0.00017	-0.00016	4
19084	0	2e-05	0.00014	0.00073	0.00127	0.00039	9e-05	-3e-05	4
19085	0.00019	0.0002	0.00017	-0.00047	-0.00128	0.00013	0.00055	0.00033	4
19086	0.00019	0.0002	0.00017	-0.00047	-0.00128	0.00013	0.00055	0.00033	4
19088	0.00019	0.0002	0.00017	-0.00047	-0.00128	0.00013	0.00055	0.00033	4
19089	0.00019	0.0002	0.00017	-0.00047	-0.00128	0.00013	0.00055	0.00033	4
19090	0.00019	0.0002	0.00017	-0.00047	-0.00128	0.00013	0.00055	0.00033	4
19091	0.00019	0.0002	0.00017	-0.00047	-0.00128	0.00013	0.00055	0.00033	4
19092	0.00019	0.0002	0.00017	-0.00047	-0.00128	0.00013	0.00055	0.00033	4
19093	0.00019	0.0002	0.00017	-0.00047	-0.00128	0.00013	0.00055	0.00033	4
19094	0.00019	0.0002	0.00017	-0.00047	-0.00128	0.00013	0.00055	0.00033	4
19095	0.00019	0.0002	0.00017	-0.00047	-0.00128	0.00013	0.00055	0.00033	4
19096	0.00019	0.0002	0.00017	-0.00047	-0.00128	0.00013	0.00055	0.00033	4
19097	0.00019	0.0002	0.00017	-0.00047	-0.00128	0.00013	0.00055	0.00033	4
19098	0.00019	0.0002	0.00017	-0.00047	-0.00128	0.00013	0.00055	0.00033	4
19099	0.00019	0.0002	0.00017	-0.00047	-0.00128	0.00013	0.00055	0.00033	4
19100	0.00019	0.0002	0.00017	-0.00047	-0.00128	0.00013	0.00055	0.00033	4
19101	0.00019	0.0002	0.00017	-0.00047	-0.00128	0.00013	0.00055	0.00033	4
19102	0.00019	0.0002	0.00017	-0.00047	-0.00128	0.00013	0.00055	0.00033	4
19103	0.00019	0.0002	0.00017	-0.00047	-0.00128	0.00013	0.00055	0.00033	4
19104	0.00019	0.0002	0.00017	-0.00047	-0.00128	0.00013	0.00055	0.00033	4
19105	0.00019	0.0002	0.00017	-0.00047	-0.00128	0.00013	0.00055	0.00033	4
19106	0.00016	0.00011	8e-05	-0.00055	-0.00103	0.00036	0.00039	0.00034	4
19107	-8e-05	-7e-05	-0.00012	-0.00033	-0.00079	-0.0008	-6e-05	-6e-05	4
19108	-8e-05	-7e-05	-0.00012	-0.00033	-0.00079	-0.0008	-6e-05	-6e-05	4
19109	-8e-05	-7e-05	-0.00012	-0.00033	-0.00079	-0.0008	-6e-05	-6e-05	4
19110	-8e-05	-7e-05	-0.00012	-0.00033	-0.00079	-0.0008	-6e-05	-6e-05	4
19111	-8e-05	-7e-05	-0.00012	-0.00033	-0.00079	-0.0008	-6e-05	-6e-05	4
19112	-8e-05	-7e-05	-0.00012	-0.00033	-0.00079	-0.0008	-6e-05	-6e-05	4
19113	-8e-05	-7e-05	-0.00012	-0.00033	-0.00079	-0.0008	-6e-05	-6e-05	4
19114	-8e-05	-7e-05	-0.00012	-0.00033	-0.00079	-0.0008	-6e-05	-6e-05	4
19115	-8e-05	-7e-05	-0.00012	-0.00033	-0.00079	-0.0008	-6e-05	-6e-05	4
19116	-8e-05	-7e-05	-0.00012	-0.00033	-0.00079	-0.0008	-6e-05	-6e-05	4
19117	-8e-05	-7e-05	-0.00012	-0.00033	-0.00079	-0.0008	-6e-05	-6e-05	4
19118	-8e-05	-7e-05	-0.00012	-0.00033	-0.00079	-0.0008	-6e-05	-6e-05	4
19119	-8e-05	-7e-05	-0.00012	-0.00033	-0.00079	-0.0008	-6e-05	-6e-05	4
19120	-8e-05	-7e-05	-0.00012	-0.00033	-0.00079	-0.0008	-6e-05	-6e-05	4
19121	-8e-05	-7e-05	-0.00012	-0.00033	-0.00079	-0.0008	-6e-05	-6e-05	4
19122	-8e-05	-7e-05	-0.00012	-0.00033	-0.00079	-0.0008	-6e-05	-6e-05	4
19123	-8e-05	-7e-05	-0.00012	-0.00033	-0.00079	-0.0008	-6e-05	-6e-05	4
19124	-8e-05	-7e-05	-0.00012	-0.00033	-0.00079	-0.0008	-6e-05	-6e-05	4
19125	-8e-05	-7e-05	-0.00012	-0.00033	-0.00079	-0.0008	-6e-05	-6e-05	4
19126	-8e-05	-7e-05	-0.00012	-0.00033	-0.00079	-0.0008	-6e-05	-6e-05	4
19127	-8e-05	-7e-05	-0.00012	-0.00033	-0.00079	-0.0008	-6e-05	-6e-05	4
19128	-8e-05	-7e-05	-0.00012	-0.00033	-0.00079	-0.0008	-6e-05	-6e-05	4
19129	0.00014	0.00017	0.00019	-0.00024	0.00127	-0.00049	0.00013	0.00022	4
19130	-0.00012	-0.00013	-9e-05	0.00032	-0.00061	-0.0004	-0.0003	-0.00022	4
19131	-0.00012	-0.00013	-9e-05	0.00032	-0.00061	-0.0004	-0.0003	-0.00022	4
19132	-0.00012	-0.00013	-9e-05	0.00032	-0.00061	-0.0004	-0.0003	-0.00022	4
19133	-0.00012	-0.00013	-9e-05	0.00032	-0.00061	-0.0004	-0.0003	-0.00022	4
19134	-0.00012	-0.00013	-9e-05	0.00032	-0.00061	-0.0004	-0.0003	-0.00022	4
19135	-0.00012	-0.00013	-9e-05	0.00032	-0.00061	-0.0004	-0.0003	-0.00022	4
19136	-0.00012	-0.00013	-9e-05	0.00032	-0.00061	-0.0004	-0.0003	-0.00022	4
19138	-0.00012	-0.00013	-9e-05	0.00032	-0.00061	-0.0004	-0.0003	-0.00022	4
19139	-0.00012	-0.00013	-9e-05	0.00032	-0.00061	-0.0004	-0.0003	-0.00022	4
19140	-0.00012	-0.00013	-9e-05	0.00032	-0.00061	-0.0004	-0.0003	-0.00022	4
19141	-0.00012	-0.00013	-9e-05	0.00032	-0.00061	-0.0004	-0.0003	-0.00022	4
19142	-0.00012	-0.00013	-9e-05	0.00032	-0.00061	-0.0004	-0.0003	-0.00022	4
19143	-0.00012	-0.00013	-9e-05	0.00032	-0.00061	-0.0004	-0.0003	-0.00022	4
19144	-0.00024	-0.0003	-0.00048	-0.00075	-0.001	-0.00072	-0.00061	-0.00032	4
19145	-0.00024	-0.0003	-0.00048	-0.00075	-0.001	-0.00072	-0.00061	-0.00032	4
19146	-0.00024	-0.0003	-0.00048	-0.00075	-0.001	-0.00072	-0.00061	-0.00032	4
19147	-0.00024	-0.0003	-0.00048	-0.00075	-0.001	-0.00072	-0.00061	-0.00032	4
19148	-0.00024	-0.0003	-0.00048	-0.00075	-0.001	-0.00072	-0.00061	-0.00032	4
19149	-0.00024	-0.0003	-0.00048	-0.00075	-0.001	-0.00072	-0.00061	-0.00032	4
19150	-0.00024	-0.0003	-0.00048	-0.00075	-0.001	-0.00072	-0.00061	-0.00032	4
19151	-0.00024	-0.0003	-0.00048	-0.00075	-0.001	-0.00072	-0.00061	-0.00032	4
19152	-0.00024	-0.0003	-0.00048	-0.00075	-0.001	-0.00072	-0.00061	-0.00032	4
19153	-0.00024	-0.0003	-0.00048	-0.00075	-0.001	-0.00072	-0.00061	-0.00032	4
19154	-0.00024	-0.0003	-0.00048	-0.00075	-0.001	-0.00072	-0.00061	-0.00032	4
19155	-0.00024	-0.0003	-0.00048	-0.00075	-0.001	-0.00072	-0.00061	-0.00032	4
19156	-0.00024	-0.0003	-0.00048	-0.00075	-0.001	-0.00072	-0.00061	-0.00032	4
19157	-0.00024	-0.0003	-0.00048	-0.00075	-0.001	-0.00072	-0.00061	-0.00032	4
19158	-0.00024	-0.0003	-0.00048	-0.00075	-0.001	-0.00072	-0.00061	-0.00032	4
19159	-0.00024	-0.0003	-0.00048	-0.00075	-0.001	-0.00072	-0.00061	-0.00032	4
19160	-0.00024	-0.0003	-0.00048	-0.00075	-0.001	-0.00072	-0.00061	-0.00032	4
19161	-0.00024	-0.0003	-0.00048	-0.00075	-0.001	-0.00072	-0.00061	-0.00032	4
19162	-0.00024	-0.0003	-0.00048	-0.00075	-0.001	-0.00072	-0.00061	-0.00032	4
19163	-0.00024	-0.0003	-0.00048	-0.00075	-0.001	-0.00072	-0.00061	-0.00032	4
19164	-0.00024	-0.0003	-0.00048	-0.00075	-0.001	-0.00072	-0.00061	-0.00032	4
19165	-0.00024	-0.0003	-0.00048	-0.00075	-0.001	-0.00072	-0.00061	-0.00032	4
19166	5e-05	8e-05	0.00022	0.00054	0.00079	0.00052	0.00023	8e-05	4
19167	0.00022	0.00024	0.00016	-0.00044	0.00037	0.00085	0.00039	0.00028	4
19168	0.00022	0.00024	0.00016	-0.00044	0.00037	0.00085	0.00039	0.00028	4
19169	0.00022	0.00024	0.00016	-0.00044	0.00037	0.00085	0.00039	0.00028	4
19170	0.00022	0.00024	0.00016	-0.00044	0.00037	0.00085	0.00039	0.00028	4
19171	0.00022	0.00024	0.00016	-0.00044	0.00037	0.00085	0.00039	0.00028	4
19172	0.00022	0.00024	0.00016	-0.00044	0.00037	0.00085	0.00039	0.00028	4
19173	0.00022	0.00024	0.00016	-0.00044	0.00037	0.00085	0.00039	0.00028	4
19174	0.00022	0.00024	0.00016	-0.00044	0.00037	0.00085	0.00039	0.00028	4
19175	0.00022	0.00024	0.00016	-0.00044	0.00037	0.00085	0.00039	0.00028	4
19176	0.00022	0.00024	0.00016	-0.00044	0.00037	0.00085	0.00039	0.00028	4
19177	0.00022	0.00024	0.00016	-0.00044	0.00037	0.00085	0.00039	0.00028	4
19178	0.00022	0.00024	0.00016	-0.00044	0.00037	0.00085	0.00039	0.00028	4
19179	0.00022	0.00024	0.00016	-0.00044	0.00037	0.00085	0.00039	0.00028	4
19180	0.00022	0.00024	0.00016	-0.00044	0.00037	0.00085	0.00039	0.00028	4
19181	0.00022	0.00024	0.00016	-0.00044	0.00037	0.00085	0.00039	0.00028	4
19182	0.00022	0.00024	0.00016	-0.00044	0.00037	0.00085	0.00039	0.00028	4
19183	0.00022	0.00024	0.00016	-0.00044	0.00037	0.00085	0.00039	0.00028	4
19184	0.00022	0.00024	0.00016	-0.00044	0.00037	0.00085	0.00039	0.00028	4
19185	0.00022	0.00024	0.00016	-0.00044	0.00037	0.00085	0.00039	0.00028	4
19186	0.00022	0.00024	0.00016	-0.00044	0.00037	0.00085	0.00039	0.00028	4
19188	0.00022	0.00024	0.00016	-0.00044	0.00037	0.00085	0.00039	0.00028	4
19189	-0.00026	-0.00023	-0.00032	-0.00012	-0.00031	-0.00012	-0.00071	-0.0004	4
19190	-5e-05	-8e-05	-0.0001	-0.00038	-0.00053	-0.00085	-0.00018	-0.00011	4
19191	-5e-05	-8e-05	-0.0001	-0.00038	-0.00053	-0.00085	-0.00018	-0.00011	4
19192	-5e-05	-8e-05	-0.0001	-0.00038	-0.00053	-0.00085	-0.00018	-0.00011	4
19193	-5e-05	-8e-05	-0.0001	-0.00038	-0.00053	-0.00085	-0.00018	-0.00011	4
19194	-5e-05	-8e-05	-0.0001	-0.00038	-0.00053	-0.00085	-0.00018	-0.00011	4
19195	-5e-05	-8e-05	-0.0001	-0.00038	-0.00053	-0.00085	-0.00018	-0.00011	4
19196	-5e-05	-8e-05	-0.0001	-0.00038	-0.00053	-0.00085	-0.00018	-0.00011	4
19197	-5e-05	-8e-05	-0.0001	-0.00038	-0.00053	-0.00085	-0.00018	-0.00011	4
19198	-5e-05	-8e-05	-0.0001	-0.00038	-0.00053	-0.00085	-0.00018	-0.00011	4
19199	-5e-05	-8e-05	-0.0001	-0.00038	-0.00053	-0.00085	-0.00018	-0.00011	4
19200	-5e-05	-8e-05	-0.0001	-0.00038	-0.00053	-0.00085	-0.00018	-0.00011	4
19201	-5e-05	-8e-05	-0.0001	-0.00038	-0.00053	-0.00085	-0.00018	-0.00011	4
19202	-5e-05	-8e-05	-0.0001	-0.00038	-0.00053	-0.00085	-0.00018	-0.00011	4
19203	-5e-05	-8e-05	-0.0001	-0.00038	-0.00053	-0.00085	-0.00018	-0.00011	4
19204	-9e-05	-0.00012	-3e-05	0.0004	0.00032	-0.00025	-0.00033	-0.00015	4
19205	-9e-05	-0.00012	-3e-05	0.0004	0.00032	-0.00025	-0.00033	-0.00015	4
19206	-9e-05	-0.00012	-3e-05	0.0004	0.00032	-0.00025	-0.00033	-0.00015	4
19207	-9e-05	-0.00012	-3e-05	0.0004	0.00032	-0.00025	-0.00033	-0.00015	4
19208	-9e-05	-0.00012	-3e-05	0.0004	0.00032	-0.00025	-0.00033	-0.00015	4
19209	-9e-05	-0.00012	-3e-05	0.0004	0.00032	-0.00025	-0.00033	-0.00015	4
19210	-9e-05	-0.00012	-3e-05	0.0004	0.00032	-0.00025	-0.00033	-0.00015	4
19211	-9e-05	-0.00012	-3e-05	0.0004	0.00032	-0.00025	-0.00033	-0.00015	4
19212	-9e-05	-0.00012	-3e-05	0.0004	0.00032	-0.00025	-0.00033	-0.00015	4
19213	-9e-05	-0.00012	-3e-05	0.0004	0.00032	-0.00025	-0.00033	-0.00015	4
19214	-9e-05	-0.00012	-3e-05	0.0004	0.00032	-0.00025	-0.00033	-0.00015	4
19215	-9e-05	-0.00012	-3e-05	0.0004	0.00032	-0.00025	-0.00033	-0.00015	4
19216	-9e-05	-0.00012	-3e-05	0.0004	0.00032	-0.00025	-0.00033	-0.00015	4
19217	-9e-05	-0.00012	-3e-05	0.0004	0.00032	-0.00025	-0.00033	-0.00015	4
19218	-9e-05	-0.00012	-3e-05	0.0004	0.00032	-0.00025	-0.00033	-0.00015	4
19219	-9e-05	-0.00012	-3e-05	0.0004	0.00032	-0.00025	-0.00033	-0.00015	4
19220	-9e-05	-0.00012	-3e-05	0.0004	0.00032	-0.00025	-0.00033	-0.00015	4
19221	-9e-05	-0.00012	-3e-05	0.0004	0.00032	-0.00025	-0.00033	-0.00015	4
19222	-9e-05	-0.00012	-3e-05	0.0004	0.00032	-0.00025	-0.00033	-0.00015	4
19223	-9e-05	-0.00012	-3e-05	0.0004	0.00032	-0.00025	-0.00033	-0.00015	4
19224	-9e-05	-0.00012	-3e-05	0.0004	0.00032	-0.00025	-0.00033	-0.00015	4
19225	-9e-05	-0.00012	-3e-05	0.0004	0.00032	-0.00025	-0.00033	-0.00015	4
19226	-0.00014	-0.00016	-0.00027	-0.0004	-0.00065	-0.00116	-0.00045	-0.00025	4
19227	0.00016	0.00019	0.00014	-9e-05	0.00126	0.00123	0.00075	0.00028	4
19228	0.00016	0.00019	0.00014	-9e-05	0.00126	0.00123	0.00075	0.00028	4
19229	0.00016	0.00019	0.00014	-9e-05	0.00126	0.00123	0.00075	0.00028	4
19230	0.00016	0.00019	0.00014	-9e-05	0.00126	0.00123	0.00075	0.00028	4
19231	0.00016	0.00019	0.00014	-9e-05	0.00126	0.00123	0.00075	0.00028	4
19232	0.00016	0.00019	0.00014	-9e-05	0.00126	0.00123	0.00075	0.00028	4
19233	0.00016	0.00019	0.00014	-9e-05	0.00126	0.00123	0.00075	0.00028	4
19234	0.00016	0.00019	0.00014	-9e-05	0.00126	0.00123	0.00075	0.00028	4
19235	0.00016	0.00019	0.00014	-9e-05	0.00126	0.00123	0.00075	0.00028	4
19236	0.00016	0.00019	0.00014	-9e-05	0.00126	0.00123	0.00075	0.00028	4
19238	0.00016	0.00019	0.00014	-9e-05	0.00126	0.00123	0.00075	0.00028	4
19239	0.00016	0.00019	0.00014	-9e-05	0.00126	0.00123	0.00075	0.00028	4
19240	0.00016	0.00019	0.00014	-9e-05	0.00126	0.00123	0.00075	0.00028	4
19241	0.00016	0.00019	0.00014	-9e-05	0.00126	0.00123	0.00075	0.00028	4
19242	0.00016	0.00019	0.00014	-9e-05	0.00126	0.00123	0.00075	0.00028	4
19243	0.00016	0.00019	0.00014	-9e-05	0.00126	0.00123	0.00075	0.00028	4
19244	0.00016	0.00019	0.00014	-9e-05	0.00126	0.00123	0.00075	0.00028	4
19245	0.00016	0.00019	0.00014	-9e-05	0.00126	0.00123	0.00075	0.00028	4
19246	0.00016	0.00019	0.00014	-9e-05	0.00126	0.00123	0.00075	0.00028	4
19247	0.00016	0.00019	0.00014	-9e-05	0.00126	0.00123	0.00075	0.00028	4
19248	0.00016	0.00019	0.00014	-9e-05	0.00126	0.00123	0.00075	0.00028	4
19249	-0.00012	-8e-05	-2e-05	-3e-05	0.00035	0.00039	1e-05	-3e-05	4
19250	-0.0002	-0.00019	-0.00023	-0.00025	0.00012	-0.00012	-0.00062	-0.00031	4
19251	-0.0002	-0.00019	-0.00023	-0.00025	0.00012	-0.00012	-0.00062	-0.00031	4
19252	-0.0002	-0.00019	-0.00023	-0.00025	0.00012	-0.00012	-0.00062	-0.00031	4
19253	-0.0002	-0.00019	-0.00023	-0.00025	0.00012	-0.00012	-0.00062	-0.00031	4
19254	-0.0002	-0.00019	-0.00023	-0.00025	0.00012	-0.00012	-0.00062	-0.00031	4
19255	-0.0002	-0.00019	-0.00023	-0.00025	0.00012	-0.00012	-0.00062	-0.00031	4
19256	-0.0002	-0.00019	-0.00023	-0.00025	0.00012	-0.00012	-0.00062	-0.00031	4
19257	-0.0002	-0.00019	-0.00023	-0.00025	0.00012	-0.00012	-0.00062	-0.00031	4
19258	-0.0002	-0.00019	-0.00023	-0.00025	0.00012	-0.00012	-0.00062	-0.00031	4
19259	-0.0002	-0.00019	-0.00023	-0.00025	0.00012	-0.00012	-0.00062	-0.00031	4
19260	-0.0002	-0.00019	-0.00023	-0.00025	0.00012	-0.00012	-0.00062	-0.00031	4
19261	-0.0002	-0.00019	-0.00023	-0.00025	0.00012	-0.00012	-0.00062	-0.00031	4
19262	-0.0002	-0.00019	-0.00023	-0.00025	0.00012	-0.00012	-0.00062	-0.00031	4
19263	-0.0002	-0.00019	-0.00023	-0.00025	0.00012	-0.00012	-0.00062	-0.00031	4
19264	-0.0002	-0.00019	-0.00023	-0.00025	0.00012	-0.00012	-0.00062	-0.00031	4
19265	-0.00016	-0.00019	-0.00014	0.00034	-0.00042	-0.00045	-0.00014	-0.00018	4
19266	-0.00016	-0.00019	-0.00014	0.00034	-0.00042	-0.00045	-0.00014	-0.00018	4
19267	-0.00016	-0.00019	-0.00014	0.00034	-0.00042	-0.00045	-0.00014	-0.00018	4
19268	-0.00016	-0.00019	-0.00014	0.00034	-0.00042	-0.00045	-0.00014	-0.00018	4
19269	-0.00016	-0.00019	-0.00014	0.00034	-0.00042	-0.00045	-0.00014	-0.00018	4
19270	-0.00016	-0.00019	-0.00014	0.00034	-0.00042	-0.00045	-0.00014	-0.00018	4
19271	-0.00016	-0.00019	-0.00014	0.00034	-0.00042	-0.00045	-0.00014	-0.00018	4
19272	-0.00016	-0.00019	-0.00014	0.00034	-0.00042	-0.00045	-0.00014	-0.00018	4
19273	-0.00016	-0.00019	-0.00014	0.00034	-0.00042	-0.00045	-0.00014	-0.00018	4
19274	-0.00016	-0.00019	-0.00014	0.00034	-0.00042	-0.00045	-0.00014	-0.00018	4
19275	-0.00016	-0.00019	-0.00014	0.00034	-0.00042	-0.00045	-0.00014	-0.00018	4
19276	-0.00016	-0.00019	-0.00014	0.00034	-0.00042	-0.00045	-0.00014	-0.00018	4
19277	-0.00016	-0.00019	-0.00014	0.00034	-0.00042	-0.00045	-0.00014	-0.00018	4
19278	-0.00016	-0.00019	-0.00014	0.00034	-0.00042	-0.00045	-0.00014	-0.00018	4
19279	-0.00016	-0.00019	-0.00014	0.00034	-0.00042	-0.00045	-0.00014	-0.00018	4
19280	-0.00016	-0.00019	-0.00014	0.00034	-0.00042	-0.00045	-0.00014	-0.00018	4
19281	-0.00016	-0.00019	-0.00014	0.00034	-0.00042	-0.00045	-0.00014	-0.00018	4
19282	-0.00016	-0.00019	-0.00014	0.00034	-0.00042	-0.00045	-0.00014	-0.00018	4
19283	-0.00016	-0.00019	-0.00014	0.00034	-0.00042	-0.00045	-0.00014	-0.00018	4
19284	-0.00016	-0.00019	-0.00014	0.00034	-0.00042	-0.00045	-0.00014	-0.00018	4
19285	-0.00016	-0.00019	-0.00014	0.00034	-0.00042	-0.00045	-0.00014	-0.00018	4
19286	-0.00011	-0.00012	-0.0002	-0.00041	-0.00128	-0.00089	-0.00024	-0.00016	4
19288	-0.0001	-0.00016	-0.00018	-0.00014	-0.00085	-0.00015	-0.00023	-0.00012	4
19289	-0.0001	-0.00016	-0.00018	-0.00014	-0.00085	-0.00015	-0.00023	-0.00012	4
19290	-0.0001	-0.00016	-0.00018	-0.00014	-0.00085	-0.00015	-0.00023	-0.00012	4
19291	-0.0001	-0.00016	-0.00018	-0.00014	-0.00085	-0.00015	-0.00023	-0.00012	4
19292	-0.0001	-0.00016	-0.00018	-0.00014	-0.00085	-0.00015	-0.00023	-0.00012	4
19293	-0.0001	-0.00016	-0.00018	-0.00014	-0.00085	-0.00015	-0.00023	-0.00012	4
19294	-0.0001	-0.00016	-0.00018	-0.00014	-0.00085	-0.00015	-0.00023	-0.00012	4
19295	-0.0001	-0.00016	-0.00018	-0.00014	-0.00085	-0.00015	-0.00023	-0.00012	4
19296	-0.0001	-0.00016	-0.00018	-0.00014	-0.00085	-0.00015	-0.00023	-0.00012	4
19297	-0.0001	-0.00016	-0.00018	-0.00014	-0.00085	-0.00015	-0.00023	-0.00012	4
19298	-0.0001	-0.00016	-0.00018	-0.00014	-0.00085	-0.00015	-0.00023	-0.00012	4
19299	-0.0001	-0.00016	-0.00018	-0.00014	-0.00085	-0.00015	-0.00023	-0.00012	4
19300	-0.0001	-0.00016	-0.00018	-0.00014	-0.00085	-0.00015	-0.00023	-0.00012	4
19301	-0.0001	-0.00016	-0.00018	-0.00014	-0.00085	-0.00015	-0.00023	-0.00012	4
19302	-0.0001	-0.00016	-0.00018	-0.00014	-0.00085	-0.00015	-0.00023	-0.00012	4
19303	-0.0001	-0.00016	-0.00018	-0.00014	-0.00085	-0.00015	-0.00023	-0.00012	4
19304	-0.0001	-0.00016	-0.00018	-0.00014	-0.00085	-0.00015	-0.00023	-0.00012	4
19305	-0.0001	-0.00016	-0.00018	-0.00014	-0.00085	-0.00015	-0.00023	-0.00012	4
19306	-0.0001	-0.00016	-0.00018	-0.00014	-0.00085	-0.00015	-0.00023	-0.00012	4
19307	-0.0001	-0.00016	-0.00018	-0.00014	-0.00085	-0.00015	-0.00023	-0.00012	4
19308	-0.0001	-0.00016	-0.00018	-0.00014	-0.00085	-0.00015	-0.00023	-0.00012	4
19309	5e-05	1e-05	6e-05	0.00014	6e-05	0.00028	0.00012	7e-05	4
19310	0.00014	0.00017	0.00021	0.00035	-0.00012	0.00018	0.00035	0.00021	4
19311	0.00014	0.00017	0.00021	0.00035	-0.00012	0.00018	0.00035	0.00021	4
19312	0.00014	0.00017	0.00021	0.00035	-0.00012	0.00018	0.00035	0.00021	4
19314	0.00014	0.00017	0.00021	0.00035	-0.00012	0.00018	0.00035	0.00021	4
19315	0.00014	0.00017	0.00021	0.00035	-0.00012	0.00018	0.00035	0.00021	4
19316	0.00014	0.00017	0.00021	0.00035	-0.00012	0.00018	0.00035	0.00021	4
19317	0.00014	0.00017	0.00021	0.00035	-0.00012	0.00018	0.00035	0.00021	4
19318	0.00014	0.00017	0.00021	0.00035	-0.00012	0.00018	0.00035	0.00021	4
19319	0.00014	0.00017	0.00021	0.00035	-0.00012	0.00018	0.00035	0.00021	4
19320	0.00014	0.00017	0.00021	0.00035	-0.00012	0.00018	0.00035	0.00021	4
19321	0.00014	0.00017	0.00021	0.00035	-0.00012	0.00018	0.00035	0.00021	4
19322	0.00014	0.00017	0.00021	0.00035	-0.00012	0.00018	0.00035	0.00021	4
19323	0.00014	0.00017	0.00021	0.00035	-0.00012	0.00018	0.00035	0.00021	4
19324	0.00011	0.00015	0.00026	0.00058	0.00047	-0.00022	6e-05	0.0001	4
19325	0.00011	0.00015	0.00026	0.00058	0.00047	-0.00022	6e-05	0.0001	4
19326	0.00011	0.00015	0.00026	0.00058	0.00047	-0.00022	6e-05	0.0001	4
19327	0.00011	0.00015	0.00026	0.00058	0.00047	-0.00022	6e-05	0.0001	4
19328	0.00011	0.00015	0.00026	0.00058	0.00047	-0.00022	6e-05	0.0001	4
19329	0.00011	0.00015	0.00026	0.00058	0.00047	-0.00022	6e-05	0.0001	4
19330	0.00011	0.00015	0.00026	0.00058	0.00047	-0.00022	6e-05	0.0001	4
19331	0.00011	0.00015	0.00026	0.00058	0.00047	-0.00022	6e-05	0.0001	4
19332	0.00011	0.00015	0.00026	0.00058	0.00047	-0.00022	6e-05	0.0001	4
19333	0.00011	0.00015	0.00026	0.00058	0.00047	-0.00022	6e-05	0.0001	4
19334	0.00011	0.00015	0.00026	0.00058	0.00047	-0.00022	6e-05	0.0001	4
19335	0.00011	0.00015	0.00026	0.00058	0.00047	-0.00022	6e-05	0.0001	4
19336	0.00011	0.00015	0.00026	0.00058	0.00047	-0.00022	6e-05	0.0001	4
19338	0.00011	0.00015	0.00026	0.00058	0.00047	-0.00022	6e-05	0.0001	4
19339	0.00011	0.00015	0.00026	0.00058	0.00047	-0.00022	6e-05	0.0001	4
19340	0.00011	0.00015	0.00026	0.00058	0.00047	-0.00022	6e-05	0.0001	4
19341	0.00011	0.00015	0.00026	0.00058	0.00047	-0.00022	6e-05	0.0001	4
19342	0.00011	0.00015	0.00026	0.00058	0.00047	-0.00022	6e-05	0.0001	4
19343	0.00011	0.00015	0.00026	0.00058	0.00047	-0.00022	6e-05	0.0001	4
19344	0.00011	0.00015	0.00026	0.00058	0.00047	-0.00022	6e-05	0.0001	4
19345	0.00011	0.00015	0.00026	0.00058	0.00047	-0.00022	6e-05	0.0001	4
19346	0.00011	0.00015	0.00026	0.00058	0.00047	-0.00022	6e-05	0.0001	4
19347	-4e-05	-9e-05	-4e-05	-0.00011	-0.00043	-0.00012	-0.00019	-3e-05	4
19348	-4e-05	-9e-05	-4e-05	-0.00011	-0.00043	-0.00012	-0.00019	-3e-05	4
19349	-4e-05	-9e-05	-4e-05	-0.00011	-0.00043	-0.00012	-0.00019	-3e-05	4
19350	-4e-05	-9e-05	-4e-05	-0.00011	-0.00043	-0.00012	-0.00019	-3e-05	4
19351	-4e-05	-9e-05	-4e-05	-0.00011	-0.00043	-0.00012	-0.00019	-3e-05	4
19352	-4e-05	-9e-05	-4e-05	-0.00011	-0.00043	-0.00012	-0.00019	-3e-05	4
19353	-4e-05	-9e-05	-4e-05	-0.00011	-0.00043	-0.00012	-0.00019	-3e-05	4
19354	3e-05	2e-05	-7e-05	-0.00018	-0.00019	0.00043	0.00022	0.00012	4
19355	3e-05	2e-05	-7e-05	-0.00018	-0.00019	0.00043	0.00022	0.00012	4
19356	3e-05	2e-05	-7e-05	-0.00018	-0.00019	0.00043	0.00022	0.00012	4
19357	3e-05	2e-05	-7e-05	-0.00018	-0.00019	0.00043	0.00022	0.00012	4
19358	3e-05	2e-05	-7e-05	-0.00018	-0.00019	0.00043	0.00022	0.00012	4
19359	3e-05	2e-05	-7e-05	-0.00018	-0.00019	0.00043	0.00022	0.00012	4
19360	3e-05	2e-05	-7e-05	-0.00018	-0.00019	0.00043	0.00022	0.00012	4
19361	3e-05	2e-05	-7e-05	-0.00018	-0.00019	0.00043	0.00022	0.00012	4
19362	3e-05	2e-05	-7e-05	-0.00018	-0.00019	0.00043	0.00022	0.00012	4
19363	3e-05	2e-05	-7e-05	-0.00018	-0.00019	0.00043	0.00022	0.00012	4
19364	3e-05	2e-05	-7e-05	-0.00018	-0.00019	0.00043	0.00022	0.00012	4
50054	-2e-05	-2e-05	1e-05	-0.00019	0.00028	3e-05	-0.00011	-7e-05	4
50055	-2e-05	-2e-05	1e-05	-0.00019	0.00028	3e-05	-0.00011	-7e-05	4
50056	-2e-05	-2e-05	1e-05	-0.00019	0.00028	3e-05	-0.00011	-7e-05	4
50057	-2e-05	-2e-05	1e-05	-0.00019	0.00028	3e-05	-0.00011	-7e-05	4
50058	-0.00014	-0.00011	4e-05	0.00044	0.00025	-0.00102	-0.0003	-0.00016	4
50059	-0.00014	-0.00011	4e-05	0.00044	0.00025	-0.00102	-0.0003	-0.00016	4
50060	-0.00014	-0.00011	4e-05	0.00044	0.00025	-0.00102	-0.0003	-0.00016	4
50061	-0.00014	-0.00011	4e-05	0.00044	0.00025	-0.00102	-0.0003	-0.00016	4
50062	-0.00014	-0.00011	4e-05	0.00044	0.00025	-0.00102	-0.0003	-0.00016	4
50063	-0.00014	-0.00011	4e-05	0.00044	0.00025	-0.00102	-0.0003	-0.00016	4
50064	-0.00014	-0.00011	4e-05	0.00044	0.00025	-0.00102	-0.0003	-0.00016	4
50065	-0.00014	-0.00011	4e-05	0.00044	0.00025	-0.00102	-0.0003	-0.00016	4
50066	-4e-05	-8e-05	-4e-05	0.00045	0.00092	-0.00042	-0.00033	-0.00018	4
50067	-3e-05	-9e-05	-0.00015	9e-05	0.00034	-0.00015	-0.00015	-7e-05	4
50068	-3e-05	-9e-05	-0.00015	9e-05	0.00034	-0.00015	-0.00015	-7e-05	4
50069	-3e-05	-9e-05	-0.00015	9e-05	0.00034	-0.00015	-0.00015	-7e-05	4
50070	-3e-05	-9e-05	-0.00015	9e-05	0.00034	-0.00015	-0.00015	-7e-05	4
50071	-3e-05	-9e-05	-0.00015	9e-05	0.00034	-0.00015	-0.00015	-7e-05	4
50072	-3e-05	-9e-05	-0.00015	9e-05	0.00034	-0.00015	-0.00015	-7e-05	4
