6318	0	1e-05	0.00017	-0.00019	-7e-05	0.00012	-8e-05	1e-05	2
6319	0	1e-05	0.00017	-0.00019	-7e-05	0.00012	-8e-05	1e-05	2
6320	0	1e-05	0.00017	-0.00019	-7e-05	0.00012	-8e-05	1e-05	2
6321	0	1e-05	0.00017	-0.00019	-7e-05	0.00012	-8e-05	1e-05	2
6322	0	1e-05	0.00017	-0.00019	-7e-05	0.00012	-8e-05	1e-05	2
6323	0	2e-05	8e-05	1e-05	8e-05	0.0001	4e-05	-3e-05	2
6324	-1e-05	1e-05	-0.00013	-0.00045	-0.00022	0.00048	9e-05	-4e-05	2
6325	-1e-05	1e-05	-0.00013	-0.00045	-0.00022	0.00048	9e-05	-4e-05	2
6326	-1e-05	1e-05	-0.00013	-0.00045	-0.00022	0.00048	9e-05	-4e-05	2
6327	-1e-05	1e-05	-0.00013	-0.00045	-0.00022	0.00048	9e-05	-4e-05	2
6328	-1e-05	1e-05	-0.00013	-0.00045	-0.00022	0.00048	9e-05	-4e-05	2
6329	-1e-05	1e-05	-0.00013	-0.00045	-0.00022	0.00048	9e-05	-4e-05	2
6330	-1e-05	1e-05	-0.00013	-0.00045	-0.00022	0.00048	9e-05	-4e-05	2
6331	-1e-05	1e-05	-0.00013	-0.00045	-0.00022	0.00048	9e-05	-4e-05	2
6332	-1e-05	1e-05	-0.00013	-0.00045	-0.00022	0.00048	9e-05	-4e-05	2
6333	-1e-05	1e-05	-0.00013	-0.00045	-0.00022	0.00048	9e-05	-4e-05	2
6334	-1e-05	1e-05	-0.00013	-0.00045	-0.00022	0.00048	9e-05	-4e-05	2
6335	-1e-05	1e-05	-0.00013	-0.00045	-0.00022	0.00048	9e-05	-4e-05	2
6336	-1e-05	1e-05	-0.00013	-0.00045	-0.00022	0.00048	9e-05	-4e-05	2
6339	-1e-05	1e-05	-0.00013	-0.00045	-0.00022	0.00048	9e-05	-4e-05	2
6340	-1e-05	1e-05	-0.00013	-0.00045	-0.00022	0.00048	9e-05	-4e-05	2
6341	-1e-05	1e-05	-0.00013	-0.00045	-0.00022	0.00048	9e-05	-4e-05	2
6342	-1e-05	1e-05	-0.00013	-0.00045	-0.00022	0.00048	9e-05	-4e-05	2
6343	-1e-05	1e-05	-0.00013	-0.00045	-0.00022	0.00048	9e-05	-4e-05	2
6344	-1e-05	1e-05	-0.00013	-0.00045	-0.00022	0.00048	9e-05	-4e-05	2
6345	-1e-05	1e-05	-0.00013	-0.00045	-0.00022	0.00048	9e-05	-4e-05	2
6346	-4e-05	-6e-05	-0.00017	-0.00016	-0.00022	-0.00091	-9e-05	-8e-05	2
6347	3e-05	9e-05	-4e-05	-0.00036	-0.00021	0.00012	0.0001	3e-05	2
6348	3e-05	9e-05	-4e-05	-0.00036	-0.00021	0.00012	0.0001	3e-05	2
6349	3e-05	9e-05	-4e-05	-0.00036	-0.00021	0.00012	0.0001	3e-05	2
6350	3e-05	9e-05	-4e-05	-0.00036	-0.00021	0.00012	0.0001	3e-05	2
6351	3e-05	9e-05	-4e-05	-0.00036	-0.00021	0.00012	0.0001	3e-05	2
6352	3e-05	9e-05	-4e-05	-0.00036	-0.00021	0.00012	0.0001	3e-05	2
6353	3e-05	9e-05	-4e-05	-0.00036	-0.00021	0.00012	0.0001	3e-05	2
6354	3e-05	9e-05	-4e-05	-0.00036	-0.00021	0.00012	0.0001	3e-05	2
6355	3e-05	9e-05	-4e-05	-0.00036	-0.00021	0.00012	0.0001	3e-05	2
6356	3e-05	9e-05	-4e-05	-0.00036	-0.00021	0.00012	0.0001	3e-05	2
6357	3e-05	9e-05	-4e-05	-0.00036	-0.00021	0.00012	0.0001	3e-05	2
6358	3e-05	9e-05	-4e-05	-0.00036	-0.00021	0.00012	0.0001	3e-05	2
6359	3e-05	9e-05	-4e-05	-0.00036	-0.00021	0.00012	0.0001	3e-05	2
6360	3e-05	9e-05	-4e-05	-0.00036	-0.00021	0.00012	0.0001	3e-05	2
6361	3e-05	9e-05	-4e-05	-0.00036	-0.00021	0.00012	0.0001	3e-05	2
6362	3e-05	9e-05	-4e-05	-0.00036	-0.00021	0.00012	0.0001	3e-05	2
6363	3e-05	9e-05	-4e-05	-0.00036	-0.00021	0.00012	0.0001	3e-05	2
6364	3e-05	9e-05	-4e-05	-0.00036	-0.00021	0.00012	0.0001	3e-05	2
6365	3e-05	9e-05	-4e-05	-0.00036	-0.00021	0.00012	0.0001	3e-05	2
6366	3e-05	9e-05	-4e-05	-0.00036	-0.00021	0.00012	0.0001	3e-05	2
6367	3e-05	9e-05	-4e-05	-0.00036	-0.00021	0.00012	0.0001	3e-05	2
6368	3e-05	9e-05	-4e-05	-0.00036	-0.00021	0.00012	0.0001	3e-05	2
6369	2e-05	7e-05	0.00018	0.00021	8e-05	-0.00071	-0.00019	-0.00011	2
6370	2e-05	7e-05	0.00018	0.00021	8e-05	-0.00071	-0.00019	-0.00011	2
6371	2e-05	7e-05	0.00018	0.00021	8e-05	-0.00071	-0.00019	-0.00011	2
6372	2e-05	7e-05	0.00018	0.00021	8e-05	-0.00071	-0.00019	-0.00011	2
6373	2e-05	7e-05	0.00018	0.00021	8e-05	-0.00071	-0.00019	-0.00011	2
6374	2e-05	7e-05	0.00018	0.00021	8e-05	-0.00071	-0.00019	-0.00011	2
6375	2e-05	7e-05	0.00018	0.00021	8e-05	-0.00071	-0.00019	-0.00011	2
6376	2e-05	7e-05	0.00018	0.00021	8e-05	-0.00071	-0.00019	-0.00011	2
6377	2e-05	7e-05	0.00018	0.00021	8e-05	-0.00071	-0.00019	-0.00011	2
6378	2e-05	7e-05	0.00018	0.00021	8e-05	-0.00071	-0.00019	-0.00011	2
6379	2e-05	7e-05	0.00018	0.00021	8e-05	-0.00071	-0.00019	-0.00011	2
6380	2e-05	7e-05	0.00018	0.00021	8e-05	-0.00071	-0.00019	-0.00011	2
6381	2e-05	7e-05	0.00018	0.00021	8e-05	-0.00071	-0.00019	-0.00011	2
6382	2e-05	7e-05	0.00018	0.00021	8e-05	-0.00071	-0.00019	-0.00011	2
6383	2e-05	7e-05	0.00018	0.00021	8e-05	-0.00071	-0.00019	-0.00011	2
6384	-2e-05	-8e-05	-0.00016	-6e-05	-0.00032	-0.00109	-0.0003	-0.00017	2
6385	-3e-05	0	0	7e-05	0.00049	0.00105	0.00014	3e-05	2
6386	-3e-05	0	0	7e-05	0.00049	0.00105	0.00014	3e-05	2
6388	-3e-05	0	0	7e-05	0.00049	0.00105	0.00014	3e-05	2
6389	-3e-05	0	0	7e-05	0.00049	0.00105	0.00014	3e-05	2
6390	-3e-05	0	0	7e-05	0.00049	0.00105	0.00014	3e-05	2
6391	-3e-05	0	0	7e-05	0.00049	0.00105	0.00014	3e-05	2
6392	-3e-05	0	0	7e-05	0.00049	0.00105	0.00014	3e-05	2
6393	-3e-05	0	0	7e-05	0.00049	0.00105	0.00014	3e-05	2
6394	-3e-05	0	0	7e-05	0.00049	0.00105	0.00014	3e-05	2
6395	-3e-05	0	0	7e-05	0.00049	0.00105	0.00014	3e-05	2
6396	-3e-05	0	0	7e-05	0.00049	0.00105	0.00014	3e-05	2
6397	-3e-05	0	0	7e-05	0.00049	0.00105	0.00014	3e-05	2
6398	-3e-05	0	0	7e-05	0.00049	0.00105	0.00014	3e-05	2
6399	-3e-05	0	0	7e-05	0.00049	0.00105	0.00014	3e-05	2
6400	-3e-05	0	0	7e-05	0.00049	0.00105	0.00014	3e-05	2
6401	-3e-05	0	0	7e-05	0.00049	0.00105	0.00014	3e-05	2
6402	-3e-05	0	0	7e-05	0.00049	0.00105	0.00014	3e-05	2
6403	-3e-05	0	0	7e-05	0.00049	0.00105	0.00014	3e-05	2
6404	-3e-05	0	0	7e-05	0.00049	0.00105	0.00014	3e-05	2
6405	-3e-05	0	0	7e-05	0.00049	0.00105	0.00014	3e-05	2
6406	4e-05	3e-05	-0.0002	-6e-05	-0.00011	-0.00049	-1e-05	0.00014	2
6407	-1e-05	-5e-05	-1e-05	-0.00019	-7e-05	5e-05	0.00013	0.00014	2
6408	-1e-05	-5e-05	-1e-05	-0.00019	-7e-05	5e-05	0.00013	0.00014	2
6409	-1e-05	-5e-05	-1e-05	-0.00019	-7e-05	5e-05	0.00013	0.00014	2
6410	-1e-05	-5e-05	-1e-05	-0.00019	-7e-05	5e-05	0.00013	0.00014	2
6411	-1e-05	-5e-05	-1e-05	-0.00019	-7e-05	5e-05	0.00013	0.00014	2
6412	-1e-05	-5e-05	-1e-05	-0.00019	-7e-05	5e-05	0.00013	0.00014	2
6413	-1e-05	-5e-05	-1e-05	-0.00019	-7e-05	5e-05	0.00013	0.00014	2
6414	-1e-05	-5e-05	-1e-05	-0.00019	-7e-05	5e-05	0.00013	0.00014	2
6415	-1e-05	-5e-05	-1e-05	-0.00019	-7e-05	5e-05	0.00013	0.00014	2
6416	-1e-05	-5e-05	-1e-05	-0.00019	-7e-05	5e-05	0.00013	0.00014	2
6417	-1e-05	-5e-05	-1e-05	-0.00019	-7e-05	5e-05	0.00013	0.00014	2
6418	-1e-05	-5e-05	-1e-05	-0.00019	-7e-05	5e-05	0.00013	0.00014	2
6419	-1e-05	-5e-05	-1e-05	-0.00019	-7e-05	5e-05	0.00013	0.00014	2
6420	-1e-05	-5e-05	-1e-05	-0.00019	-7e-05	5e-05	0.00013	0.00014	2
6421	-1e-05	-5e-05	-1e-05	-0.00019	-7e-05	5e-05	0.00013	0.00014	2
6422	-1e-05	-5e-05	-1e-05	-0.00019	-7e-05	5e-05	0.00013	0.00014	2
6423	-1e-05	-5e-05	-1e-05	-0.00019	-7e-05	5e-05	0.00013	0.00014	2
6424	-1e-05	-5e-05	-1e-05	-0.00019	-7e-05	5e-05	0.00013	0.00014	2
6425	-1e-05	-5e-05	-1e-05	-0.00019	-7e-05	5e-05	0.00013	0.00014	2
6426	-1e-05	-5e-05	-1e-05	-0.00019	-7e-05	5e-05	0.00013	0.00014	2
6427	-1e-05	-5e-05	-1e-05	-0.00019	-7e-05	5e-05	0.00013	0.00014	2
6428	-1e-05	-5e-05	-1e-05	-0.00019	-7e-05	5e-05	0.00013	0.00014	2
6429	2e-05	4e-05	3e-05	0.00011	-0.00014	-0.00013	-9e-05	-3e-05	2
6430	2e-05	4e-05	3e-05	0.00011	-0.00014	-0.00013	-9e-05	-3e-05	2
6431	2e-05	4e-05	3e-05	0.00011	-0.00014	-0.00013	-9e-05	-3e-05	2
6432	2e-05	4e-05	3e-05	0.00011	-0.00014	-0.00013	-9e-05	-3e-05	2
6433	2e-05	4e-05	3e-05	0.00011	-0.00014	-0.00013	-9e-05	-3e-05	2
6434	2e-05	4e-05	3e-05	0.00011	-0.00014	-0.00013	-9e-05	-3e-05	2
6435	2e-05	4e-05	3e-05	0.00011	-0.00014	-0.00013	-9e-05	-3e-05	2
6436	2e-05	4e-05	3e-05	0.00011	-0.00014	-0.00013	-9e-05	-3e-05	2
6439	2e-05	4e-05	3e-05	0.00011	-0.00014	-0.00013	-9e-05	-3e-05	2
6440	2e-05	4e-05	3e-05	0.00011	-0.00014	-0.00013	-9e-05	-3e-05	2
6441	2e-05	4e-05	3e-05	0.00011	-0.00014	-0.00013	-9e-05	-3e-05	2
6442	2e-05	4e-05	3e-05	0.00011	-0.00014	-0.00013	-9e-05	-3e-05	2
6443	2e-05	4e-05	3e-05	0.00011	-0.00014	-0.00013	-9e-05	-3e-05	2
6444	-0.0001	-0.00021	-0.00023	0.00044	0.00031	0.0004	-0.00018	-3e-05	2
6445	-0.0001	-0.00021	-0.00023	0.00044	0.00031	0.0004	-0.00018	-3e-05	2
6446	-0.0001	-0.00021	-0.00023	0.00044	0.00031	0.0004	-0.00018	-3e-05	2
6447	-0.0001	-0.00021	-0.00023	0.00044	0.00031	0.0004	-0.00018	-3e-05	2
6448	-0.0001	-0.00021	-0.00023	0.00044	0.00031	0.0004	-0.00018	-3e-05	2
6449	-0.0001	-0.00021	-0.00023	0.00044	0.00031	0.0004	-0.00018	-3e-05	2
6450	-0.0001	-0.00021	-0.00023	0.00044	0.00031	0.0004	-0.00018	-3e-05	2
6451	-0.0001	-0.00021	-0.00023	0.00044	0.00031	0.0004	-0.00018	-3e-05	2
6452	-0.0001	-0.00021	-0.00023	0.00044	0.00031	0.0004	-0.00018	-3e-05	2
6453	-0.0001	-0.00021	-0.00023	0.00044	0.00031	0.0004	-0.00018	-3e-05	2
6454	-0.0001	-0.00021	-0.00023	0.00044	0.00031	0.0004	-0.00018	-3e-05	2
6455	-0.0001	-0.00021	-0.00023	0.00044	0.00031	0.0004	-0.00018	-3e-05	2
6456	-0.0001	-0.00021	-0.00023	0.00044	0.00031	0.0004	-0.00018	-3e-05	2
6457	-0.0001	-0.00021	-0.00023	0.00044	0.00031	0.0004	-0.00018	-3e-05	2
6458	-0.0001	-0.00021	-0.00023	0.00044	0.00031	0.0004	-0.00018	-3e-05	2
6459	-0.0001	-0.00021	-0.00023	0.00044	0.00031	0.0004	-0.00018	-3e-05	2
6460	-0.0001	-0.00021	-0.00023	0.00044	0.00031	0.0004	-0.00018	-3e-05	2
6461	-0.0001	-0.00021	-0.00023	0.00044	0.00031	0.0004	-0.00018	-3e-05	2
6462	-0.0001	-0.00021	-0.00023	0.00044	0.00031	0.0004	-0.00018	-3e-05	2
6463	-0.0001	-0.00021	-0.00023	0.00044	0.00031	0.0004	-0.00018	-3e-05	2
6464	-0.0001	-0.00021	-0.00023	0.00044	0.00031	0.0004	-0.00018	-3e-05	2
6465	-0.0001	-0.00021	-0.00023	0.00044	0.00031	0.0004	-0.00018	-3e-05	2
6466	-1e-05	-1e-05	-0.00013	-0.00014	-0.00014	0.00019	-4e-05	-7e-05	2
6467	-3e-05	-5e-05	0.00014	3e-05	-0.0005	-0.00121	-0.00022	-0.00016	2
6468	-3e-05	-5e-05	0.00014	3e-05	-0.0005	-0.00121	-0.00022	-0.00016	2
6469	-3e-05	-5e-05	0.00014	3e-05	-0.0005	-0.00121	-0.00022	-0.00016	2
6470	-3e-05	-5e-05	0.00014	3e-05	-0.0005	-0.00121	-0.00022	-0.00016	2
6471	-3e-05	-5e-05	0.00014	3e-05	-0.0005	-0.00121	-0.00022	-0.00016	2
6472	-3e-05	-5e-05	0.00014	3e-05	-0.0005	-0.00121	-0.00022	-0.00016	2
6473	-3e-05	-5e-05	0.00014	3e-05	-0.0005	-0.00121	-0.00022	-0.00016	2
6474	-3e-05	-5e-05	0.00014	3e-05	-0.0005	-0.00121	-0.00022	-0.00016	2
6475	-3e-05	-5e-05	0.00014	3e-05	-0.0005	-0.00121	-0.00022	-0.00016	2
6476	-3e-05	-5e-05	0.00014	3e-05	-0.0005	-0.00121	-0.00022	-0.00016	2
6477	-3e-05	-5e-05	0.00014	3e-05	-0.0005	-0.00121	-0.00022	-0.00016	2
6478	-3e-05	-5e-05	0.00014	3e-05	-0.0005	-0.00121	-0.00022	-0.00016	2
6479	-3e-05	-5e-05	0.00014	3e-05	-0.0005	-0.00121	-0.00022	-0.00016	2
6480	-3e-05	-5e-05	0.00014	3e-05	-0.0005	-0.00121	-0.00022	-0.00016	2
6481	-3e-05	-5e-05	0.00014	3e-05	-0.0005	-0.00121	-0.00022	-0.00016	2
6482	-3e-05	-5e-05	0.00014	3e-05	-0.0005	-0.00121	-0.00022	-0.00016	2
6483	-3e-05	-5e-05	0.00014	3e-05	-0.0005	-0.00121	-0.00022	-0.00016	2
6484	-3e-05	-5e-05	0.00014	3e-05	-0.0005	-0.00121	-0.00022	-0.00016	2
6485	-3e-05	-5e-05	0.00014	3e-05	-0.0005	-0.00121	-0.00022	-0.00016	2
6486	-3e-05	-5e-05	0.00014	3e-05	-0.0005	-0.00121	-0.00022	-0.00016	2
6489	-2e-05	-1e-05	1e-05	-1e-05	-9e-05	-0.00078	-0.00014	3e-05	2
6490	9e-05	0	0.00012	0.0002	1e-05	-0.00013	4e-05	0.0001	2
6491	9e-05	0	0.00012	0.0002	1e-05	-0.00013	4e-05	0.0001	2
6492	9e-05	0	0.00012	0.0002	1e-05	-0.00013	4e-05	0.0001	2
6493	9e-05	0	0.00012	0.0002	1e-05	-0.00013	4e-05	0.0001	2
6494	9e-05	0	0.00012	0.0002	1e-05	-0.00013	4e-05	0.0001	2
6495	9e-05	0	0.00012	0.0002	1e-05	-0.00013	4e-05	0.0001	2
6496	9e-05	0	0.00012	0.0002	1e-05	-0.00013	4e-05	0.0001	2
6497	9e-05	0	0.00012	0.0002	1e-05	-0.00013	4e-05	0.0001	2
6498	9e-05	0	0.00012	0.0002	1e-05	-0.00013	4e-05	0.0001	2
6499	9e-05	0	0.00012	0.0002	1e-05	-0.00013	4e-05	0.0001	2
6500	9e-05	0	0.00012	0.0002	1e-05	-0.00013	4e-05	0.0001	2
6501	9e-05	0	0.00012	0.0002	1e-05	-0.00013	4e-05	0.0001	2
6502	9e-05	0	0.00012	0.0002	1e-05	-0.00013	4e-05	0.0001	2
6503	6e-05	2e-05	0.00011	8e-05	0	3e-05	-1e-05	-4e-05	2
6504	-5e-05	-4e-05	-0.00011	-0.00016	7e-05	0.00069	0.00028	2e-05	2
6505	-5e-05	-4e-05	-0.00011	-0.00016	7e-05	0.00069	0.00028	2e-05	2
6506	-5e-05	-4e-05	-0.00011	-0.00016	7e-05	0.00069	0.00028	2e-05	2
6507	-5e-05	-4e-05	-0.00011	-0.00016	7e-05	0.00069	0.00028	2e-05	2
6508	-5e-05	-4e-05	-0.00011	-0.00016	7e-05	0.00069	0.00028	2e-05	2
6509	-5e-05	-4e-05	-0.00011	-0.00016	7e-05	0.00069	0.00028	2e-05	2
6510	-5e-05	-4e-05	-0.00011	-0.00016	7e-05	0.00069	0.00028	2e-05	2
6511	-5e-05	-4e-05	-0.00011	-0.00016	7e-05	0.00069	0.00028	2e-05	2
6512	-5e-05	-4e-05	-0.00011	-0.00016	7e-05	0.00069	0.00028	2e-05	2
6513	-5e-05	-4e-05	-0.00011	-0.00016	7e-05	0.00069	0.00028	2e-05	2
6514	-5e-05	-4e-05	-0.00011	-0.00016	7e-05	0.00069	0.00028	2e-05	2
6515	-5e-05	-4e-05	-0.00011	-0.00016	7e-05	0.00069	0.00028	2e-05	2
6516	-5e-05	-4e-05	-0.00011	-0.00016	7e-05	0.00069	0.00028	2e-05	2
6517	-5e-05	-4e-05	-0.00011	-0.00016	7e-05	0.00069	0.00028	2e-05	2
6518	-5e-05	-4e-05	-0.00011	-0.00016	7e-05	0.00069	0.00028	2e-05	2
6519	-5e-05	-4e-05	-0.00011	-0.00016	7e-05	0.00069	0.00028	2e-05	2
6520	-5e-05	-4e-05	-0.00011	-0.00016	7e-05	0.00069	0.00028	2e-05	2
6521	-5e-05	-4e-05	-0.00011	-0.00016	7e-05	0.00069	0.00028	2e-05	2
6522	-5e-05	-4e-05	-0.00011	-0.00016	7e-05	0.00069	0.00028	2e-05	2
6523	-5e-05	-4e-05	-0.00011	-0.00016	7e-05	0.00069	0.00028	2e-05	2
6524	-5e-05	-4e-05	-0.00011	-0.00016	7e-05	0.00069	0.00028	2e-05	2
6525	-5e-05	-4e-05	-0.00011	-0.00016	7e-05	0.00069	0.00028	2e-05	2
6526	-3e-05	-6e-05	-0.0002	0	-0.00012	-0.0006	-0.00011	-8e-05	2
6527	7e-05	5e-05	-0.00011	-0.0003	-5e-05	-0.00077	-3e-05	5e-05	2
6528	7e-05	5e-05	-0.00011	-0.0003	-5e-05	-0.00077	-3e-05	5e-05	2
6529	7e-05	5e-05	-0.00011	-0.0003	-5e-05	-0.00077	-3e-05	5e-05	2
6530	7e-05	5e-05	-0.00011	-0.0003	-5e-05	-0.00077	-3e-05	5e-05	2
6531	7e-05	5e-05	-0.00011	-0.0003	-5e-05	-0.00077	-3e-05	5e-05	2
6532	7e-05	5e-05	-0.00011	-0.0003	-5e-05	-0.00077	-3e-05	5e-05	2
6533	7e-05	5e-05	-0.00011	-0.0003	-5e-05	-0.00077	-3e-05	5e-05	2
6534	7e-05	5e-05	-0.00011	-0.0003	-5e-05	-0.00077	-3e-05	5e-05	2
6535	7e-05	5e-05	-0.00011	-0.0003	-5e-05	-0.00077	-3e-05	5e-05	2
6536	7e-05	5e-05	-0.00011	-0.0003	-5e-05	-0.00077	-3e-05	5e-05	2
6538	7e-05	5e-05	-0.00011	-0.0003	-5e-05	-0.00077	-3e-05	5e-05	2
6539	7e-05	5e-05	-0.00011	-0.0003	-5e-05	-0.00077	-3e-05	5e-05	2
6540	7e-05	5e-05	-0.00011	-0.0003	-5e-05	-0.00077	-3e-05	5e-05	2
6541	7e-05	5e-05	-0.00011	-0.0003	-5e-05	-0.00077	-3e-05	5e-05	2
6542	7e-05	5e-05	-0.00011	-0.0003	-5e-05	-0.00077	-3e-05	5e-05	2
6543	7e-05	5e-05	-0.00011	-0.0003	-5e-05	-0.00077	-3e-05	5e-05	2
6544	7e-05	5e-05	-0.00011	-0.0003	-5e-05	-0.00077	-3e-05	5e-05	2
6545	7e-05	5e-05	-0.00011	-0.0003	-5e-05	-0.00077	-3e-05	5e-05	2
6546	7e-05	5e-05	-0.00011	-0.0003	-5e-05	-0.00077	-3e-05	5e-05	2
6547	7e-05	5e-05	-0.00011	-0.0003	-5e-05	-0.00077	-3e-05	5e-05	2
6548	7e-05	5e-05	-0.00011	-0.0003	-5e-05	-0.00077	-3e-05	5e-05	2
6549	-4e-05	0	-9e-05	-8e-05	0.00039	0.00074	0.00018	0.00015	2
6550	2e-05	2e-05	4e-05	0.00018	-7e-05	-0.00067	-0.00015	-0.00011	2
6551	2e-05	2e-05	4e-05	0.00018	-7e-05	-0.00067	-0.00015	-0.00011	2
6552	2e-05	2e-05	4e-05	0.00018	-7e-05	-0.00067	-0.00015	-0.00011	2
6553	2e-05	2e-05	4e-05	0.00018	-7e-05	-0.00067	-0.00015	-0.00011	2
6554	2e-05	2e-05	4e-05	0.00018	-7e-05	-0.00067	-0.00015	-0.00011	2
6555	2e-05	2e-05	4e-05	0.00018	-7e-05	-0.00067	-0.00015	-0.00011	2
6556	2e-05	2e-05	4e-05	0.00018	-7e-05	-0.00067	-0.00015	-0.00011	2
6557	2e-05	2e-05	4e-05	0.00018	-7e-05	-0.00067	-0.00015	-0.00011	2
6558	2e-05	2e-05	4e-05	0.00018	-7e-05	-0.00067	-0.00015	-0.00011	2
6559	2e-05	2e-05	4e-05	0.00018	-7e-05	-0.00067	-0.00015	-0.00011	2
6560	2e-05	2e-05	4e-05	0.00018	-7e-05	-0.00067	-0.00015	-0.00011	2
6561	2e-05	2e-05	4e-05	0.00018	-7e-05	-0.00067	-0.00015	-0.00011	2
6562	2e-05	2e-05	4e-05	0.00018	-7e-05	-0.00067	-0.00015	-0.00011	2
6563	1e-05	2e-05	0.00022	0.00013	0.0002	-0.00022	3e-05	4e-05	2
6564	-4e-05	-7e-05	-2e-05	0.00012	0.00012	0.00047	1e-05	-1e-05	2
6565	-4e-05	-7e-05	-2e-05	0.00012	0.00012	0.00047	1e-05	-1e-05	2
6566	-4e-05	-7e-05	-2e-05	0.00012	0.00012	0.00047	1e-05	-1e-05	2
6567	-4e-05	-7e-05	-2e-05	0.00012	0.00012	0.00047	1e-05	-1e-05	2
6568	-4e-05	-7e-05	-2e-05	0.00012	0.00012	0.00047	1e-05	-1e-05	2
6569	-4e-05	-7e-05	-2e-05	0.00012	0.00012	0.00047	1e-05	-1e-05	2
6570	-4e-05	-7e-05	-2e-05	0.00012	0.00012	0.00047	1e-05	-1e-05	2
6571	-4e-05	-7e-05	-2e-05	0.00012	0.00012	0.00047	1e-05	-1e-05	2
6572	-4e-05	-7e-05	-2e-05	0.00012	0.00012	0.00047	1e-05	-1e-05	2
6573	-4e-05	-7e-05	-2e-05	0.00012	0.00012	0.00047	1e-05	-1e-05	2
6574	-4e-05	-7e-05	-2e-05	0.00012	0.00012	0.00047	1e-05	-1e-05	2
6575	-4e-05	-7e-05	-2e-05	0.00012	0.00012	0.00047	1e-05	-1e-05	2
6576	-4e-05	-7e-05	-2e-05	0.00012	0.00012	0.00047	1e-05	-1e-05	2
6577	-4e-05	-7e-05	-2e-05	0.00012	0.00012	0.00047	1e-05	-1e-05	2
6578	-4e-05	-7e-05	-2e-05	0.00012	0.00012	0.00047	1e-05	-1e-05	2
6579	-4e-05	-7e-05	-2e-05	0.00012	0.00012	0.00047	1e-05	-1e-05	2
6580	-4e-05	-7e-05	-2e-05	0.00012	0.00012	0.00047	1e-05	-1e-05	2
6581	-4e-05	-7e-05	-2e-05	0.00012	0.00012	0.00047	1e-05	-1e-05	2
6582	-4e-05	-7e-05	-2e-05	0.00012	0.00012	0.00047	1e-05	-1e-05	2
6583	-4e-05	-7e-05	-2e-05	0.00012	0.00012	0.00047	1e-05	-1e-05	2
6584	-4e-05	-7e-05	-2e-05	0.00012	0.00012	0.00047	1e-05	-1e-05	2
6585	-1e-05	-3e-05	-0.00013	-0.00017	-0.00015	-0.00019	-0.00015	1e-05	2
6586	-1e-05	-3e-05	-0.00013	-0.00017	-0.00015	-0.00019	-0.00015	1e-05	2
6588	-1e-05	-3e-05	-0.00013	-0.00017	-0.00015	-0.00019	-0.00015	1e-05	2
6589	-1e-05	-3e-05	-0.00013	-0.00017	-0.00015	-0.00019	-0.00015	1e-05	2
6590	-1e-05	-3e-05	-0.00013	-0.00017	-0.00015	-0.00019	-0.00015	1e-05	2
6591	-1e-05	-3e-05	-0.00013	-0.00017	-0.00015	-0.00019	-0.00015	1e-05	2
6592	-1e-05	-3e-05	-0.00013	-0.00017	-0.00015	-0.00019	-0.00015	1e-05	2
6593	-1e-05	2e-05	1e-05	-3e-05	-0.00026	-0.00084	-0.00015	-0.00013	2
6594	-1e-05	2e-05	1e-05	-3e-05	-0.00026	-0.00084	-0.00015	-0.00013	2
6595	-1e-05	2e-05	1e-05	-3e-05	-0.00026	-0.00084	-0.00015	-0.00013	2
6596	-1e-05	2e-05	1e-05	-3e-05	-0.00026	-0.00084	-0.00015	-0.00013	2
6597	-1e-05	2e-05	1e-05	-3e-05	-0.00026	-0.00084	-0.00015	-0.00013	2
6598	-1e-05	2e-05	1e-05	-3e-05	-0.00026	-0.00084	-0.00015	-0.00013	2
6599	-1e-05	2e-05	1e-05	-3e-05	-0.00026	-0.00084	-0.00015	-0.00013	2
6600	-1e-05	2e-05	1e-05	-3e-05	-0.00026	-0.00084	-0.00015	-0.00013	2
6601	-1e-05	2e-05	1e-05	-3e-05	-0.00026	-0.00084	-0.00015	-0.00013	2
6602	-1e-05	2e-05	1e-05	-3e-05	-0.00026	-0.00084	-0.00015	-0.00013	2
6603	-1e-05	2e-05	1e-05	-3e-05	-0.00026	-0.00084	-0.00015	-0.00013	2
6604	-1e-05	2e-05	1e-05	-3e-05	-0.00026	-0.00084	-0.00015	-0.00013	2
6605	-1e-05	2e-05	1e-05	-3e-05	-0.00026	-0.00084	-0.00015	-0.00013	2
6606	-1e-05	2e-05	1e-05	-3e-05	-0.00026	-0.00084	-0.00015	-0.00013	2
6607	-1e-05	2e-05	1e-05	-3e-05	-0.00026	-0.00084	-0.00015	-0.00013	2
6608	-1e-05	2e-05	1e-05	-3e-05	-0.00026	-0.00084	-0.00015	-0.00013	2
6609	-1e-05	2e-05	1e-05	-3e-05	-0.00026	-0.00084	-0.00015	-0.00013	2
6610	-1e-05	2e-05	1e-05	-3e-05	-0.00026	-0.00084	-0.00015	-0.00013	2
6611	-1e-05	2e-05	1e-05	-3e-05	-0.00026	-0.00084	-0.00015	-0.00013	2
6612	-1e-05	2e-05	1e-05	-3e-05	-0.00026	-0.00084	-0.00015	-0.00013	2
6613	-1e-05	2e-05	1e-05	-3e-05	-0.00026	-0.00084	-0.00015	-0.00013	2
6614	-1e-05	2e-05	1e-05	-3e-05	-0.00026	-0.00084	-0.00015	-0.00013	2
6615	-1e-05	2e-05	1e-05	-3e-05	-0.00026	-0.00084	-0.00015	-0.00013	2
6616	-2e-05	-9e-05	-2e-05	0.00012	-6e-05	0.0003	4e-05	-1e-05	2
6617	-4e-05	1e-05	2e-05	-0.00011	8e-05	0.00056	3e-05	0	2
6618	-4e-05	1e-05	2e-05	-0.00011	8e-05	0.00056	3e-05	0	2
6619	-4e-05	1e-05	2e-05	-0.00011	8e-05	0.00056	3e-05	0	2
6620	-4e-05	1e-05	2e-05	-0.00011	8e-05	0.00056	3e-05	0	2
6621	-4e-05	1e-05	2e-05	-0.00011	8e-05	0.00056	3e-05	0	2
6622	-4e-05	1e-05	2e-05	-0.00011	8e-05	0.00056	3e-05	0	2
6623	3e-05	3e-05	0.00012	-1e-05	9e-05	0.00039	0.00031	4e-05	2
6624	0	1e-05	0.00012	0.0002	0.00055	0.00071	0.00017	9e-05	2
6625	0	1e-05	0.00012	0.0002	0.00055	0.00071	0.00017	9e-05	2
6626	0	1e-05	0.00012	0.0002	0.00055	0.00071	0.00017	9e-05	2
6627	0	1e-05	0.00012	0.0002	0.00055	0.00071	0.00017	9e-05	2
6628	0	1e-05	0.00012	0.0002	0.00055	0.00071	0.00017	9e-05	2
6629	0	1e-05	0.00012	0.0002	0.00055	0.00071	0.00017	9e-05	2
6630	0	1e-05	0.00012	0.0002	0.00055	0.00071	0.00017	9e-05	2
6631	0	1e-05	0.00012	0.0002	0.00055	0.00071	0.00017	9e-05	2
6632	0	1e-05	0.00012	0.0002	0.00055	0.00071	0.00017	9e-05	2
6633	0	1e-05	0.00012	0.0002	0.00055	0.00071	0.00017	9e-05	2
6634	0	1e-05	0.00012	0.0002	0.00055	0.00071	0.00017	9e-05	2
6635	0	1e-05	0.00012	0.0002	0.00055	0.00071	0.00017	9e-05	2
6636	0	1e-05	0.00012	0.0002	0.00055	0.00071	0.00017	9e-05	2
6639	0	1e-05	0.00012	0.0002	0.00055	0.00071	0.00017	9e-05	2
6640	0	1e-05	0.00012	0.0002	0.00055	0.00071	0.00017	9e-05	2
6641	0	1e-05	0.00012	0.0002	0.00055	0.00071	0.00017	9e-05	2
6642	0	1e-05	0.00012	0.0002	0.00055	0.00071	0.00017	9e-05	2
6643	0	1e-05	0.00012	0.0002	0.00055	0.00071	0.00017	9e-05	2
6644	0	1e-05	0.00012	0.0002	0.00055	0.00071	0.00017	9e-05	2
6645	0	1e-05	0.00012	0.0002	0.00055	0.00071	0.00017	9e-05	2
6646	0	1e-05	0.00012	0.0002	0.00055	0.00071	0.00017	9e-05	2
6647	0	-2e-05	1e-05	0.0002	1e-05	-0.00046	-0.00012	1e-05	2
6648	-3e-05	-2e-05	2e-05	0.00013	-0.00014	-0.00013	-4e-05	1e-05	2
6649	-3e-05	-2e-05	2e-05	0.00013	-0.00014	-0.00013	-4e-05	1e-05	2
6650	-3e-05	-2e-05	2e-05	0.00013	-0.00014	-0.00013	-4e-05	1e-05	2
6651	-3e-05	-2e-05	2e-05	0.00013	-0.00014	-0.00013	-4e-05	1e-05	2
6652	-3e-05	-2e-05	2e-05	0.00013	-0.00014	-0.00013	-4e-05	1e-05	2
6653	-3e-05	-2e-05	2e-05	0.00013	-0.00014	-0.00013	-4e-05	1e-05	2
6654	-3e-05	-2e-05	2e-05	0.00013	-0.00014	-0.00013	-4e-05	1e-05	2
6655	-3e-05	-2e-05	2e-05	0.00013	-0.00014	-0.00013	-4e-05	1e-05	2
6656	-3e-05	-2e-05	2e-05	0.00013	-0.00014	-0.00013	-4e-05	1e-05	2
6657	-3e-05	-2e-05	2e-05	0.00013	-0.00014	-0.00013	-4e-05	1e-05	2
6658	-3e-05	-2e-05	2e-05	0.00013	-0.00014	-0.00013	-4e-05	1e-05	2
6659	-3e-05	-2e-05	2e-05	0.00013	-0.00014	-0.00013	-4e-05	1e-05	2
6660	-3e-05	-2e-05	2e-05	0.00013	-0.00014	-0.00013	-4e-05	1e-05	2
6661	-3e-05	-2e-05	2e-05	0.00013	-0.00014	-0.00013	-4e-05	1e-05	2
6662	-3e-05	-2e-05	2e-05	0.00013	-0.00014	-0.00013	-4e-05	1e-05	2
6663	-3e-05	-2e-05	2e-05	0.00013	-0.00014	-0.00013	-4e-05	1e-05	2
6664	-3e-05	-2e-05	2e-05	0.00013	-0.00014	-0.00013	-4e-05	1e-05	2
6665	-3e-05	-2e-05	2e-05	0.00013	-0.00014	-0.00013	-4e-05	1e-05	2
6666	-3e-05	-2e-05	2e-05	0.00013	-0.00014	-0.00013	-4e-05	1e-05	2
6667	-3e-05	-2e-05	2e-05	0.00013	-0.00014	-0.00013	-4e-05	1e-05	2
6668	-3e-05	-2e-05	2e-05	0.00013	-0.00014	-0.00013	-4e-05	1e-05	2
6669	0	-1e-05	-5e-05	-0.00034	-0.00013	-2e-05	-1e-05	0	2
6670	0	-1e-05	-5e-05	-0.00034	-0.00013	-2e-05	-1e-05	0	2
6671	0	-1e-05	-5e-05	-0.00034	-0.00013	-2e-05	-1e-05	0	2
6672	0	-1e-05	-5e-05	-0.00034	-0.00013	-2e-05	-1e-05	0	2
6673	0	-1e-05	-5e-05	-0.00034	-0.00013	-2e-05	-1e-05	0	2
6674	0	-1e-05	-5e-05	-0.00034	-0.00013	-2e-05	-1e-05	0	2
6675	0	-1e-05	-5e-05	-0.00034	-0.00013	-2e-05	-1e-05	0	2
6676	0	-1e-05	-5e-05	-0.00034	-0.00013	-2e-05	-1e-05	0	2
6677	0	-1e-05	-5e-05	-0.00034	-0.00013	-2e-05	-1e-05	0	2
6678	0	-1e-05	-5e-05	-0.00034	-0.00013	-2e-05	-1e-05	0	2
6679	0	-1e-05	-5e-05	-0.00034	-0.00013	-2e-05	-1e-05	0	2
6680	0	-1e-05	-5e-05	-0.00034	-0.00013	-2e-05	-1e-05	0	2
6681	0	-1e-05	-5e-05	-0.00034	-0.00013	-2e-05	-1e-05	0	2
6682	0	-1e-05	-5e-05	-0.00034	-0.00013	-2e-05	-1e-05	0	2
6683	0	-1e-05	-5e-05	-0.00034	-0.00013	-2e-05	-1e-05	0	2
6684	-4e-05	-1e-05	-7e-05	-0.00017	-0.00012	-1e-05	2e-05	-5e-05	2
6685	-4e-05	-1e-05	-7e-05	-0.00017	-0.00012	-1e-05	2e-05	-5e-05	2
6686	-4e-05	-1e-05	-7e-05	-0.00017	-0.00012	-1e-05	2e-05	-5e-05	2
6688	-4e-05	-1e-05	-7e-05	-0.00017	-0.00012	-1e-05	2e-05	-5e-05	2
6689	-4e-05	-1e-05	-7e-05	-0.00017	-0.00012	-1e-05	2e-05	-5e-05	2
6690	-4e-05	-1e-05	-7e-05	-0.00017	-0.00012	-1e-05	2e-05	-5e-05	2
6691	-4e-05	-1e-05	-7e-05	-0.00017	-0.00012	-1e-05	2e-05	-5e-05	2
6692	-4e-05	-1e-05	-7e-05	-0.00017	-0.00012	-1e-05	2e-05	-5e-05	2
6693	-4e-05	-1e-05	-7e-05	-0.00017	-0.00012	-1e-05	2e-05	-5e-05	2
6694	-4e-05	-1e-05	-7e-05	-0.00017	-0.00012	-1e-05	2e-05	-5e-05	2
6695	-4e-05	-1e-05	-7e-05	-0.00017	-0.00012	-1e-05	2e-05	-5e-05	2
6696	-4e-05	-1e-05	-7e-05	-0.00017	-0.00012	-1e-05	2e-05	-5e-05	2
6697	-4e-05	-1e-05	-7e-05	-0.00017	-0.00012	-1e-05	2e-05	-5e-05	2
6698	-4e-05	-1e-05	-7e-05	-0.00017	-0.00012	-1e-05	2e-05	-5e-05	2
6699	-4e-05	-1e-05	-7e-05	-0.00017	-0.00012	-1e-05	2e-05	-5e-05	2
6700	-4e-05	-1e-05	-7e-05	-0.00017	-0.00012	-1e-05	2e-05	-5e-05	2
6701	-4e-05	-1e-05	-7e-05	-0.00017	-0.00012	-1e-05	2e-05	-5e-05	2
6702	-4e-05	-1e-05	-7e-05	-0.00017	-0.00012	-1e-05	2e-05	-5e-05	2
6703	-4e-05	-1e-05	-7e-05	-0.00017	-0.00012	-1e-05	2e-05	-5e-05	2
6704	-4e-05	-1e-05	-7e-05	-0.00017	-0.00012	-1e-05	2e-05	-5e-05	2
6705	-4e-05	-1e-05	-7e-05	-0.00017	-0.00012	-1e-05	2e-05	-5e-05	2
6706	6e-05	4e-05	-0.00017	-5e-05	4e-05	-1e-05	-0.00017	-2e-05	2
6707	0.0001	7e-05	0.00016	8e-05	0.00016	-7e-05	-1e-05	0.00022	2
6708	0.0001	7e-05	0.00016	8e-05	0.00016	-7e-05	-1e-05	0.00022	2
6709	0.0001	7e-05	0.00016	8e-05	0.00016	-7e-05	-1e-05	0.00022	2
6710	0.0001	7e-05	0.00016	8e-05	0.00016	-7e-05	-1e-05	0.00022	2
6711	0.0001	7e-05	0.00016	8e-05	0.00016	-7e-05	-1e-05	0.00022	2
6712	0.0001	7e-05	0.00016	8e-05	0.00016	-7e-05	-1e-05	0.00022	2
6713	0.0001	7e-05	0.00016	8e-05	0.00016	-7e-05	-1e-05	0.00022	2
6714	0.0001	7e-05	0.00016	8e-05	0.00016	-7e-05	-1e-05	0.00022	2
6715	0.0001	7e-05	0.00016	8e-05	0.00016	-7e-05	-1e-05	0.00022	2
6716	0.0001	7e-05	0.00016	8e-05	0.00016	-7e-05	-1e-05	0.00022	2
6717	0.0001	7e-05	0.00016	8e-05	0.00016	-7e-05	-1e-05	0.00022	2
6718	0.0001	7e-05	0.00016	8e-05	0.00016	-7e-05	-1e-05	0.00022	2
6719	0.0001	7e-05	0.00016	8e-05	0.00016	-7e-05	-1e-05	0.00022	2
6720	0.0001	7e-05	0.00016	8e-05	0.00016	-7e-05	-1e-05	0.00022	2
6721	0.0001	7e-05	0.00016	8e-05	0.00016	-7e-05	-1e-05	0.00022	2
6722	0.0001	7e-05	0.00016	8e-05	0.00016	-7e-05	-1e-05	0.00022	2
6723	0.0001	7e-05	0.00016	8e-05	0.00016	-7e-05	-1e-05	0.00022	2
6724	0.0001	7e-05	0.00016	8e-05	0.00016	-7e-05	-1e-05	0.00022	2
6725	0.0001	7e-05	0.00016	8e-05	0.00016	-7e-05	-1e-05	0.00022	2
6726	0.0001	7e-05	0.00016	8e-05	0.00016	-7e-05	-1e-05	0.00022	2
6727	0.0001	7e-05	0.00016	8e-05	0.00016	-7e-05	-1e-05	0.00022	2
6728	0.0001	7e-05	0.00016	8e-05	0.00016	-7e-05	-1e-05	0.00022	2
6729	-4e-05	-0.00012	-0.00025	-0.00014	-0.00016	-0.00034	-2e-05	-9e-05	2
6730	-4e-05	-0.00012	-0.00025	-0.00014	-0.00016	-0.00034	-2e-05	-9e-05	2
6731	-4e-05	-0.00012	-0.00025	-0.00014	-0.00016	-0.00034	-2e-05	-9e-05	2
6732	-4e-05	-0.00012	-0.00025	-0.00014	-0.00016	-0.00034	-2e-05	-9e-05	2
6733	-4e-05	-0.00012	-0.00025	-0.00014	-0.00016	-0.00034	-2e-05	-9e-05	2
6734	-4e-05	-0.00012	-0.00025	-0.00014	-0.00016	-0.00034	-2e-05	-9e-05	2
6735	-4e-05	-0.00012	-0.00025	-0.00014	-0.00016	-0.00034	-2e-05	-9e-05	2
6736	-4e-05	-0.00012	-0.00025	-0.00014	-0.00016	-0.00034	-2e-05	-9e-05	2
6738	-4e-05	-0.00012	-0.00025	-0.00014	-0.00016	-0.00034	-2e-05	-9e-05	2
6739	-4e-05	-0.00012	-0.00025	-0.00014	-0.00016	-0.00034	-2e-05	-9e-05	2
6740	-4e-05	-0.00012	-0.00025	-0.00014	-0.00016	-0.00034	-2e-05	-9e-05	2
6741	-4e-05	-0.00012	-0.00025	-0.00014	-0.00016	-0.00034	-2e-05	-9e-05	2
6742	-4e-05	-0.00012	-0.00025	-0.00014	-0.00016	-0.00034	-2e-05	-9e-05	2
6743	-4e-05	-0.00012	-0.00025	-0.00014	-0.00016	-0.00034	-2e-05	-9e-05	2
6744	-4e-05	-0.00012	-0.00025	-0.00014	-0.00016	-0.00034	-2e-05	-9e-05	2
6745	-4e-05	-0.00012	-0.00025	-0.00014	-0.00016	-0.00034	-2e-05	-9e-05	2
6746	-4e-05	-0.00012	-0.00025	-0.00014	-0.00016	-0.00034	-2e-05	-9e-05	2
6747	-4e-05	-0.00012	-0.00025	-0.00014	-0.00016	-0.00034	-2e-05	-9e-05	2
6748	-4e-05	-0.00012	-0.00025	-0.00014	-0.00016	-0.00034	-2e-05	-9e-05	2
6749	-4e-05	-0.00012	-0.00025	-0.00014	-0.00016	-0.00034	-2e-05	-9e-05	2
6750	-4e-05	-0.00012	-0.00025	-0.00014	-0.00016	-0.00034	-2e-05	-9e-05	2
6751	-4e-05	-0.00012	-0.00025	-0.00014	-0.00016	-0.00034	-2e-05	-9e-05	2
6752	-7e-05	-6e-05	-0.0001	3e-05	1e-05	7e-05	2e-05	-6e-05	2
6753	-7e-05	-6e-05	-0.0001	3e-05	1e-05	7e-05	2e-05	-6e-05	2
6754	-7e-05	-6e-05	-0.0001	3e-05	1e-05	7e-05	2e-05	-6e-05	2
6755	-7e-05	-6e-05	-0.0001	3e-05	1e-05	7e-05	2e-05	-6e-05	2
6756	-7e-05	-6e-05	-0.0001	3e-05	1e-05	7e-05	2e-05	-6e-05	2
6757	-7e-05	-6e-05	-0.0001	3e-05	1e-05	7e-05	2e-05	-6e-05	2
6758	-7e-05	-6e-05	-0.0001	3e-05	1e-05	7e-05	2e-05	-6e-05	2
6759	-7e-05	-6e-05	-0.0001	3e-05	1e-05	7e-05	2e-05	-6e-05	2
6760	-7e-05	-6e-05	-0.0001	3e-05	1e-05	7e-05	2e-05	-6e-05	2
6761	-7e-05	-6e-05	-0.0001	3e-05	1e-05	7e-05	2e-05	-6e-05	2
6762	-7e-05	-6e-05	-0.0001	3e-05	1e-05	7e-05	2e-05	-6e-05	2
6763	-7e-05	-6e-05	-0.0001	3e-05	1e-05	7e-05	2e-05	-6e-05	2
6764	-7e-05	-6e-05	-0.0001	3e-05	1e-05	7e-05	2e-05	-6e-05	2
6765	-7e-05	-6e-05	-0.0001	3e-05	1e-05	7e-05	2e-05	-6e-05	2
6766	-7e-05	-6e-05	-0.0001	3e-05	1e-05	7e-05	2e-05	-6e-05	2
6767	-7e-05	-6e-05	-0.0001	3e-05	1e-05	7e-05	2e-05	-6e-05	2
6768	-7e-05	-6e-05	-0.0001	3e-05	1e-05	7e-05	2e-05	-6e-05	2
6769	-7e-05	-6e-05	-0.0001	3e-05	1e-05	7e-05	2e-05	-6e-05	2
6770	-7e-05	-6e-05	-0.0001	3e-05	1e-05	7e-05	2e-05	-6e-05	2
6771	-7e-05	-6e-05	-0.0001	3e-05	1e-05	7e-05	2e-05	-6e-05	2
6772	-7e-05	-6e-05	-0.0001	3e-05	1e-05	7e-05	2e-05	-6e-05	2
6773	-7e-05	-6e-05	-0.0001	3e-05	1e-05	7e-05	2e-05	-6e-05	2
6774	-6e-05	-9e-05	-0.00017	0.00021	0.00046	0.00032	0.00016	8e-05	2
6775	6e-05	1e-05	6e-05	0.00024	5e-05	-0.00047	1e-05	0.00019	2
6776	6e-05	1e-05	6e-05	0.00024	5e-05	-0.00047	1e-05	0.00019	2
6777	6e-05	1e-05	6e-05	0.00024	5e-05	-0.00047	1e-05	0.00019	2
6778	6e-05	1e-05	6e-05	0.00024	5e-05	-0.00047	1e-05	0.00019	2
6779	6e-05	1e-05	6e-05	0.00024	5e-05	-0.00047	1e-05	0.00019	2
6780	6e-05	1e-05	6e-05	0.00024	5e-05	-0.00047	1e-05	0.00019	2
6781	6e-05	1e-05	6e-05	0.00024	5e-05	-0.00047	1e-05	0.00019	2
6782	6e-05	1e-05	6e-05	0.00024	5e-05	-0.00047	1e-05	0.00019	2
6783	6e-05	1e-05	6e-05	0.00024	5e-05	-0.00047	1e-05	0.00019	2
6784	6e-05	1e-05	6e-05	0.00024	5e-05	-0.00047	1e-05	0.00019	2
6785	6e-05	1e-05	6e-05	0.00024	5e-05	-0.00047	1e-05	0.00019	2
6786	6e-05	1e-05	6e-05	0.00024	5e-05	-0.00047	1e-05	0.00019	2
6788	6e-05	1e-05	6e-05	0.00024	5e-05	-0.00047	1e-05	0.00019	2
6789	6e-05	1e-05	6e-05	0.00024	5e-05	-0.00047	1e-05	0.00019	2
6790	6e-05	1e-05	6e-05	0.00024	5e-05	-0.00047	1e-05	0.00019	2
6791	6e-05	1e-05	6e-05	0.00024	5e-05	-0.00047	1e-05	0.00019	2
6792	6e-05	1e-05	6e-05	0.00024	5e-05	-0.00047	1e-05	0.00019	2
6793	6e-05	1e-05	6e-05	0.00024	5e-05	-0.00047	1e-05	0.00019	2
6794	6e-05	1e-05	6e-05	0.00024	5e-05	-0.00047	1e-05	0.00019	2
6795	6e-05	1e-05	6e-05	0.00024	5e-05	-0.00047	1e-05	0.00019	2
6796	6e-05	1e-05	6e-05	0.00024	5e-05	-0.00047	1e-05	0.00019	2
6797	2e-05	1e-05	5e-05	-2e-05	-5e-05	-8e-05	-0.00013	3e-05	2
6798	2e-05	1e-05	5e-05	-2e-05	-5e-05	-8e-05	-0.00013	3e-05	2
6799	2e-05	1e-05	5e-05	-2e-05	-5e-05	-8e-05	-0.00013	3e-05	2
6800	2e-05	1e-05	5e-05	-2e-05	-5e-05	-8e-05	-0.00013	3e-05	2
6801	2e-05	1e-05	5e-05	-2e-05	-5e-05	-8e-05	-0.00013	3e-05	2
6802	2e-05	1e-05	5e-05	-2e-05	-5e-05	-8e-05	-0.00013	3e-05	2
6803	-4e-05	0	-8e-05	-0.00012	-8e-05	5e-05	-6e-05	-0.00011	2
6804	-1e-05	0	-1e-05	-0.0001	3e-05	0.00086	0.00018	0.0001	2
6805	-1e-05	0	-1e-05	-0.0001	3e-05	0.00086	0.00018	0.0001	2
6806	-1e-05	0	-1e-05	-0.0001	3e-05	0.00086	0.00018	0.0001	2
6807	-1e-05	0	-1e-05	-0.0001	3e-05	0.00086	0.00018	0.0001	2
6808	-1e-05	0	-1e-05	-0.0001	3e-05	0.00086	0.00018	0.0001	2
6809	-1e-05	0	-1e-05	-0.0001	3e-05	0.00086	0.00018	0.0001	2
6810	-1e-05	0	-1e-05	-0.0001	3e-05	0.00086	0.00018	0.0001	2
6811	-6e-05	-0.00012	-0.0001	0.00029	3e-05	4e-05	-1e-05	-0.0001	2
6812	-6e-05	-0.00012	-0.0001	0.00029	3e-05	4e-05	-1e-05	-0.0001	2
6813	-6e-05	-0.00012	-0.0001	0.00029	3e-05	4e-05	-1e-05	-0.0001	2
6814	-6e-05	-0.00012	-0.0001	0.00029	3e-05	4e-05	-1e-05	-0.0001	2
6815	-6e-05	-0.00012	-0.0001	0.00029	3e-05	4e-05	-1e-05	-0.0001	2
6816	-6e-05	-0.00012	-0.0001	0.00029	3e-05	4e-05	-1e-05	-0.0001	2
6817	-6e-05	-0.00012	-0.0001	0.00029	3e-05	4e-05	-1e-05	-0.0001	2
6818	-6e-05	-0.00012	-0.0001	0.00029	3e-05	4e-05	-1e-05	-0.0001	2
6819	-6e-05	-0.00012	-0.0001	0.00029	3e-05	4e-05	-1e-05	-0.0001	2
6820	-6e-05	-0.00012	-0.0001	0.00029	3e-05	4e-05	-1e-05	-0.0001	2
6821	-6e-05	-0.00012	-0.0001	0.00029	3e-05	4e-05	-1e-05	-0.0001	2
6822	-6e-05	-0.00012	-0.0001	0.00029	3e-05	4e-05	-1e-05	-0.0001	2
6823	-6e-05	-0.00012	-0.0001	0.00029	3e-05	4e-05	-1e-05	-0.0001	2
6824	-6e-05	-0.00012	-0.0001	0.00029	3e-05	4e-05	-1e-05	-0.0001	2
6825	-6e-05	-0.00012	-0.0001	0.00029	3e-05	4e-05	-1e-05	-0.0001	2
6826	-6e-05	-5e-05	0.00011	0.00021	0.0001	0.00054	6e-05	6e-05	2
6827	-6e-05	-5e-05	0.00011	0.00021	0.0001	0.00054	6e-05	6e-05	2
6828	-3e-05	3e-05	-0.0001	-0.00026	-0.00017	-0.0002	0	3e-05	2
6829	-3e-05	3e-05	-0.0001	-0.00026	-0.00017	-0.0002	0	3e-05	2
6830	-3e-05	3e-05	-0.0001	-0.00026	-0.00017	-0.0002	0	3e-05	2
6831	-3e-05	3e-05	-0.0001	-0.00026	-0.00017	-0.0002	0	3e-05	2
6832	-3e-05	3e-05	-0.0001	-0.00026	-0.00017	-0.0002	0	3e-05	2
6833	-3e-05	3e-05	-0.0001	-0.00026	-0.00017	-0.0002	0	3e-05	2
6834	-3e-05	3e-05	-0.0001	-0.00026	-0.00017	-0.0002	0	3e-05	2
6835	-3e-05	3e-05	-0.0001	-0.00026	-0.00017	-0.0002	0	3e-05	2
6836	-3e-05	3e-05	-0.0001	-0.00026	-0.00017	-0.0002	0	3e-05	2
6838	-3e-05	3e-05	-0.0001	-0.00026	-0.00017	-0.0002	0	3e-05	2
6839	-3e-05	3e-05	-0.0001	-0.00026	-0.00017	-0.0002	0	3e-05	2
6840	-3e-05	3e-05	-0.0001	-0.00026	-0.00017	-0.0002	0	3e-05	2
6841	-3e-05	3e-05	-0.0001	-0.00026	-0.00017	-0.0002	0	3e-05	2
6842	-3e-05	3e-05	-0.0001	-0.00026	-0.00017	-0.0002	0	3e-05	2
6843	-3e-05	3e-05	-0.0001	-0.00026	-0.00017	-0.0002	0	3e-05	2
6844	-3e-05	3e-05	-0.0001	-0.00026	-0.00017	-0.0002	0	3e-05	2
6845	-3e-05	3e-05	-0.0001	-0.00026	-0.00017	-0.0002	0	3e-05	2
6846	-3e-05	3e-05	-0.0001	-0.00026	-0.00017	-0.0002	0	3e-05	2
6847	-3e-05	3e-05	-0.0001	-0.00026	-0.00017	-0.0002	0	3e-05	2
6848	-3e-05	3e-05	-0.0001	-0.00026	-0.00017	-0.0002	0	3e-05	2
6849	-3e-05	3e-05	-0.0001	-0.00026	-0.00017	-0.0002	0	3e-05	2
6850	-3e-05	3e-05	-0.0001	-0.00026	-0.00017	-0.0002	0	3e-05	2
6851	-3e-05	3e-05	-0.0001	-0.00026	-0.00017	-0.0002	0	3e-05	2
6852	-3e-05	3e-05	-0.0001	-0.00026	-0.00017	-0.0002	0	3e-05	2
6853	-3e-05	3e-05	-0.0001	-0.00026	-0.00017	-0.0002	0	3e-05	2
6854	-3e-05	3e-05	-0.0001	-0.00026	-0.00017	-0.0002	0	3e-05	2
6855	-3e-05	3e-05	-0.0001	-0.00026	-0.00017	-0.0002	0	3e-05	2
6856	-3e-05	3e-05	-0.0001	-0.00026	-0.00017	-0.0002	0	3e-05	2
6857	-3e-05	3e-05	-0.0001	-0.00026	-0.00017	-0.0002	0	3e-05	2
6858	-3e-05	3e-05	-0.0001	-0.00026	-0.00017	-0.0002	0	3e-05	2
6859	-3e-05	3e-05	-0.0001	-0.00026	-0.00017	-0.0002	0	3e-05	2
6860	-3e-05	3e-05	-0.0001	-0.00026	-0.00017	-0.0002	0	3e-05	2
6861	-3e-05	3e-05	-0.0001	-0.00026	-0.00017	-0.0002	0	3e-05	2
6862	-3e-05	3e-05	-0.0001	-0.00026	-0.00017	-0.0002	0	3e-05	2
6863	-3e-05	3e-05	-0.0001	-0.00026	-0.00017	-0.0002	0	3e-05	2
6864	-3e-05	3e-05	-0.0001	-0.00026	-0.00017	-0.0002	0	3e-05	2
6865	-3e-05	3e-05	-0.0001	-0.00026	-0.00017	-0.0002	0	3e-05	2
6866	-3e-05	3e-05	-0.0001	-0.00026	-0.00017	-0.0002	0	3e-05	2
6867	-3e-05	3e-05	-0.0001	-0.00026	-0.00017	-0.0002	0	3e-05	2
6868	-3e-05	3e-05	-0.0001	-0.00026	-0.00017	-0.0002	0	3e-05	2
6869	-3e-05	3e-05	-0.0001	-0.00026	-0.00017	-0.0002	0	3e-05	2
6870	-3e-05	3e-05	-0.0001	-0.00026	-0.00017	-0.0002	0	3e-05	2
6871	-3e-05	3e-05	-0.0001	-0.00026	-0.00017	-0.0002	0	3e-05	2
6872	-6e-05	-0.00014	-0.00012	0.00019	-4e-05	-0.00039	-9e-05	-9e-05	2
6873	0	1e-05	0.00011	8e-05	0.00029	-2e-05	0.00017	7e-05	2
6874	-4e-05	-1e-05	0.00034	0.00046	0.00037	0.00054	8e-05	-7e-05	2
6875	-6e-05	-9e-05	-9e-05	1e-05	4e-05	0.0008	-0.0001	-4e-05	2
6876	-6e-05	-9e-05	-9e-05	1e-05	4e-05	0.0008	-0.0001	-4e-05	2
6877	-6e-05	-9e-05	-9e-05	1e-05	4e-05	0.0008	-0.0001	-4e-05	2
6878	-6e-05	-9e-05	-9e-05	1e-05	4e-05	0.0008	-0.0001	-4e-05	2
6879	1e-05	3e-05	-1e-05	-0.00022	-8e-05	-0.00032	-0.00016	8e-05	2
6880	1e-05	3e-05	-1e-05	-0.00022	-8e-05	-0.00032	-0.00016	8e-05	2
6881	1e-05	3e-05	-1e-05	-0.00022	-8e-05	-0.00032	-0.00016	8e-05	2
6882	1e-05	3e-05	-1e-05	-0.00022	-8e-05	-0.00032	-0.00016	8e-05	2
6883	1e-05	3e-05	-1e-05	-0.00022	-8e-05	-0.00032	-0.00016	8e-05	2
6884	1e-05	3e-05	-1e-05	-0.00022	-8e-05	-0.00032	-0.00016	8e-05	2
6885	1e-05	3e-05	-1e-05	-0.00022	-8e-05	-0.00032	-0.00016	8e-05	2
6886	1e-05	3e-05	-1e-05	-0.00022	-8e-05	-0.00032	-0.00016	8e-05	2
6888	1e-05	3e-05	-1e-05	-0.00022	-8e-05	-0.00032	-0.00016	8e-05	2
6889	1e-05	3e-05	-1e-05	-0.00022	-8e-05	-0.00032	-0.00016	8e-05	2
6890	1e-05	3e-05	-1e-05	-0.00022	-8e-05	-0.00032	-0.00016	8e-05	2
6891	1e-05	3e-05	-1e-05	-0.00022	-8e-05	-0.00032	-0.00016	8e-05	2
6892	1e-05	3e-05	-1e-05	-0.00022	-8e-05	-0.00032	-0.00016	8e-05	2
6893	1e-05	3e-05	-1e-05	-0.00022	-8e-05	-0.00032	-0.00016	8e-05	2
6894	-2e-05	-1e-05	8e-05	4e-05	-0.00018	-0.00062	-0.00012	-9e-05	2
6895	6e-05	5e-05	-1e-05	-4e-05	7e-05	0.00069	9e-05	-1e-05	2
6896	6e-05	5e-05	-1e-05	-4e-05	7e-05	0.00069	9e-05	-1e-05	2
6897	6e-05	5e-05	-1e-05	-4e-05	7e-05	0.00069	9e-05	-1e-05	2
6898	6e-05	5e-05	-1e-05	-4e-05	7e-05	0.00069	9e-05	-1e-05	2
6899	6e-05	5e-05	-1e-05	-4e-05	7e-05	0.00069	9e-05	-1e-05	2
6900	6e-05	5e-05	-1e-05	-4e-05	7e-05	0.00069	9e-05	-1e-05	2
6901	6e-05	5e-05	-1e-05	-4e-05	7e-05	0.00069	9e-05	-1e-05	2
6902	6e-05	5e-05	-1e-05	-4e-05	7e-05	0.00069	9e-05	-1e-05	2
6903	6e-05	5e-05	-1e-05	-4e-05	7e-05	0.00069	9e-05	-1e-05	2
6904	6e-05	5e-05	-1e-05	-4e-05	7e-05	0.00069	9e-05	-1e-05	2
6905	6e-05	5e-05	-1e-05	-4e-05	7e-05	0.00069	9e-05	-1e-05	2
6906	6e-05	5e-05	-1e-05	-4e-05	7e-05	0.00069	9e-05	-1e-05	2
6907	6e-05	5e-05	-1e-05	-4e-05	7e-05	0.00069	9e-05	-1e-05	2
6908	6e-05	5e-05	-1e-05	-4e-05	7e-05	0.00069	9e-05	-1e-05	2
6909	6e-05	5e-05	-1e-05	-4e-05	7e-05	0.00069	9e-05	-1e-05	2
6910	6e-05	5e-05	-1e-05	-4e-05	7e-05	0.00069	9e-05	-1e-05	2
6911	6e-05	5e-05	-1e-05	-4e-05	7e-05	0.00069	9e-05	-1e-05	2
6912	6e-05	5e-05	-1e-05	-4e-05	7e-05	0.00069	9e-05	-1e-05	2
6913	6e-05	5e-05	-1e-05	-4e-05	7e-05	0.00069	9e-05	-1e-05	2
6914	6e-05	5e-05	-1e-05	-4e-05	7e-05	0.00069	9e-05	-1e-05	2
6915	6e-05	5e-05	-1e-05	-4e-05	7e-05	0.00069	9e-05	-1e-05	2
6916	-4e-05	-4e-05	-0.00028	-0.00027	-9e-05	-1e-05	0	-1e-05	2
6917	-4e-05	-4e-05	-0.00028	-0.00027	-9e-05	-1e-05	0	-1e-05	2
6918	1e-05	3e-05	0.00012	-8e-05	-3e-05	-0.00018	4e-05	0	2
6919	1e-05	3e-05	0.00012	-8e-05	-3e-05	-0.00018	4e-05	0	2
6920	1e-05	3e-05	0.00012	-8e-05	-3e-05	-0.00018	4e-05	0	2
6921	1e-05	3e-05	0.00012	-8e-05	-3e-05	-0.00018	4e-05	0	2
6922	-2e-05	1e-05	-0.00022	-0.00028	-3e-05	0.00034	0.00018	6e-05	2
6923	-1e-05	-8e-05	4e-05	0.00045	-0.00011	-0.00029	7e-05	-3e-05	2
6924	-1e-05	-8e-05	4e-05	0.00045	-0.00011	-0.00029	7e-05	-3e-05	2
6925	-1e-05	-8e-05	4e-05	0.00045	-0.00011	-0.00029	7e-05	-3e-05	2
6926	-1e-05	-8e-05	4e-05	0.00045	-0.00011	-0.00029	7e-05	-3e-05	2
6927	-1e-05	-8e-05	4e-05	0.00045	-0.00011	-0.00029	7e-05	-3e-05	2
6928	-1e-05	-8e-05	4e-05	0.00045	-0.00011	-0.00029	7e-05	-3e-05	2
6929	-1e-05	-8e-05	4e-05	0.00045	-0.00011	-0.00029	7e-05	-3e-05	2
6930	-1e-05	-8e-05	4e-05	0.00045	-0.00011	-0.00029	7e-05	-3e-05	2
6931	-1e-05	-8e-05	4e-05	0.00045	-0.00011	-0.00029	7e-05	-3e-05	2
6932	-1e-05	-8e-05	4e-05	0.00045	-0.00011	-0.00029	7e-05	-3e-05	2
6933	-1e-05	-8e-05	4e-05	0.00045	-0.00011	-0.00029	7e-05	-3e-05	2
6934	-1e-05	-8e-05	4e-05	0.00045	-0.00011	-0.00029	7e-05	-3e-05	2
6935	-1e-05	-8e-05	4e-05	0.00045	-0.00011	-0.00029	7e-05	-3e-05	2
6936	-1e-05	-8e-05	4e-05	0.00045	-0.00011	-0.00029	7e-05	-3e-05	2
6939	1e-05	6e-05	-1e-05	-0.00033	-0.0003	-0.00048	-0.0001	-0.00012	2
6940	1e-05	6e-05	-1e-05	-0.00033	-0.0003	-0.00048	-0.0001	-0.00012	2
6941	1e-05	6e-05	-1e-05	-0.00033	-0.0003	-0.00048	-0.0001	-0.00012	2
6942	1e-05	6e-05	-1e-05	-0.00033	-0.0003	-0.00048	-0.0001	-0.00012	2
6943	1e-05	6e-05	-1e-05	-0.00033	-0.0003	-0.00048	-0.0001	-0.00012	2
6944	1e-05	6e-05	-1e-05	-0.00033	-0.0003	-0.00048	-0.0001	-0.00012	2
6945	1e-05	6e-05	-1e-05	-0.00033	-0.0003	-0.00048	-0.0001	-0.00012	2
6946	1e-05	-5e-05	-6e-05	0.00043	0.00039	0.00032	9e-05	-1e-05	2
6947	1e-05	-5e-05	-6e-05	0.00043	0.00039	0.00032	9e-05	-1e-05	2
6948	0	0	0	-0.00015	5e-05	0.00026	0.0002	5e-05	2
6949	0	0	0	-0.00015	5e-05	0.00026	0.0002	5e-05	2
6950	0	0	0	-0.00015	5e-05	0.00026	0.0002	5e-05	2
6951	0	0	0	-0.00015	5e-05	0.00026	0.0002	5e-05	2
6952	0	0	0	-0.00015	5e-05	0.00026	0.0002	5e-05	2
6953	0	0	0	-0.00015	5e-05	0.00026	0.0002	5e-05	2
6954	0	0	0	-0.00015	5e-05	0.00026	0.0002	5e-05	2
6955	0	0	0	-0.00015	5e-05	0.00026	0.0002	5e-05	2
6956	0	0	0	-0.00015	5e-05	0.00026	0.0002	5e-05	2
6957	0	0	0	-0.00015	5e-05	0.00026	0.0002	5e-05	2
6958	0	0	0	-0.00015	5e-05	0.00026	0.0002	5e-05	2
6959	0	0	0	-0.00015	5e-05	0.00026	0.0002	5e-05	2
6960	0	0	0	-0.00015	5e-05	0.00026	0.0002	5e-05	2
6961	0	0	0	-0.00015	5e-05	0.00026	0.0002	5e-05	2
6962	0	0	0	-0.00015	5e-05	0.00026	0.0002	5e-05	2
6963	0	0	0	-0.00015	5e-05	0.00026	0.0002	5e-05	2
6964	0	0	0	-0.00015	5e-05	0.00026	0.0002	5e-05	2
6965	0	0	0	-0.00015	5e-05	0.00026	0.0002	5e-05	2
6966	0	0	0	-0.00015	5e-05	0.00026	0.0002	5e-05	2
6967	0	0	0	-0.00015	5e-05	0.00026	0.0002	5e-05	2
6968	0	5e-05	6e-05	-0.00014	-4e-05	-0.00058	-0.00021	-0.00012	2
6969	-4e-05	-0.0001	-0.00011	-9e-05	-0.00011	-0.00026	-0.00012	-3e-05	2
6970	-2e-05	1e-05	-0.00018	-0.00018	-0.0001	0	-6e-05	6e-05	2
6971	-2e-05	1e-05	-0.00018	-0.00018	-0.0001	0	-6e-05	6e-05	2
6972	-2e-05	1e-05	-0.00018	-0.00018	-0.0001	0	-6e-05	6e-05	2
6973	-2e-05	1e-05	-0.00018	-0.00018	-0.0001	0	-6e-05	6e-05	2
6974	-2e-05	1e-05	-0.00018	-0.00018	-0.0001	0	-6e-05	6e-05	2
6975	-2e-05	1e-05	-0.00018	-0.00018	-0.0001	0	-6e-05	6e-05	2
6976	-2e-05	1e-05	-0.00018	-0.00018	-0.0001	0	-6e-05	6e-05	2
6977	-2e-05	1e-05	-0.00018	-0.00018	-0.0001	0	-6e-05	6e-05	2
6978	-2e-05	1e-05	-0.00018	-0.00018	-0.0001	0	-6e-05	6e-05	2
6979	-2e-05	1e-05	-0.00018	-0.00018	-0.0001	0	-6e-05	6e-05	2
6980	-2e-05	1e-05	-0.00018	-0.00018	-0.0001	0	-6e-05	6e-05	2
6981	-2e-05	1e-05	-0.00018	-0.00018	-0.0001	0	-6e-05	6e-05	2
6982	-2e-05	1e-05	-0.00018	-0.00018	-0.0001	0	-6e-05	6e-05	2
6983	1e-05	5e-05	0.0001	-5e-05	6e-05	-0.00025	3e-05	1e-05	2
6984	1e-05	5e-05	0.0001	-5e-05	6e-05	-0.00025	3e-05	1e-05	2
6985	1e-05	5e-05	0.0001	-5e-05	6e-05	-0.00025	3e-05	1e-05	2
6986	1e-05	5e-05	0.0001	-5e-05	6e-05	-0.00025	3e-05	1e-05	2
6988	1e-05	5e-05	0.0001	-5e-05	6e-05	-0.00025	3e-05	1e-05	2
6989	1e-05	5e-05	0.0001	-5e-05	6e-05	-0.00025	3e-05	1e-05	2
6990	1e-05	5e-05	0.0001	-5e-05	6e-05	-0.00025	3e-05	1e-05	2
6991	-3e-05	-8e-05	-1e-05	0.00017	-7e-05	0.00015	7e-05	-3e-05	2
6992	-3e-05	-8e-05	-1e-05	0.00017	-7e-05	0.00015	7e-05	-3e-05	2
6993	-3e-05	-8e-05	-1e-05	0.00017	-7e-05	0.00015	7e-05	-3e-05	2
6994	-3e-05	-8e-05	-1e-05	0.00017	-7e-05	0.00015	7e-05	-3e-05	2
6995	-3e-05	-8e-05	-1e-05	0.00017	-7e-05	0.00015	7e-05	-3e-05	2
6996	-3e-05	-8e-05	-1e-05	0.00017	-7e-05	0.00015	7e-05	-3e-05	2
6997	-3e-05	-8e-05	-1e-05	0.00017	-7e-05	0.00015	7e-05	-3e-05	2
6998	-3e-05	-8e-05	-1e-05	0.00017	-7e-05	0.00015	7e-05	-3e-05	2
6999	-3e-05	-8e-05	-1e-05	0.00017	-7e-05	0.00015	7e-05	-3e-05	2
7000	-3e-05	-8e-05	-1e-05	0.00017	-7e-05	0.00015	7e-05	-3e-05	2
7001	-3e-05	-8e-05	-1e-05	0.00017	-7e-05	0.00015	7e-05	-3e-05	2
7002	-3e-05	-8e-05	-1e-05	0.00017	-7e-05	0.00015	7e-05	-3e-05	2
7003	-3e-05	-8e-05	-1e-05	0.00017	-7e-05	0.00015	7e-05	-3e-05	2
7004	-3e-05	-8e-05	-1e-05	0.00017	-7e-05	0.00015	7e-05	-3e-05	2
7005	-3e-05	-8e-05	-1e-05	0.00017	-7e-05	0.00015	7e-05	-3e-05	2
7006	-3e-05	-8e-05	-1e-05	0.00017	-7e-05	0.00015	7e-05	-3e-05	2
7007	-3e-05	-8e-05	-1e-05	0.00017	-7e-05	0.00015	7e-05	-3e-05	2
7008	-3e-05	-8e-05	-1e-05	0.00017	-7e-05	0.00015	7e-05	-3e-05	2
7009	-3e-05	-8e-05	-1e-05	0.00017	-7e-05	0.00015	7e-05	-3e-05	2
7010	-3e-05	-8e-05	-1e-05	0.00017	-7e-05	0.00015	7e-05	-3e-05	2
7011	-3e-05	-8e-05	-1e-05	0.00017	-7e-05	0.00015	7e-05	-3e-05	2
7012	-3e-05	-8e-05	-1e-05	0.00017	-7e-05	0.00015	7e-05	-3e-05	2
7013	-3e-05	-8e-05	-1e-05	0.00017	-7e-05	0.00015	7e-05	-3e-05	2
7014	-3e-05	-8e-05	-1e-05	0.00017	-7e-05	0.00015	7e-05	-3e-05	2
7015	-3e-05	-8e-05	-1e-05	0.00017	-7e-05	0.00015	7e-05	-3e-05	2
7016	-3e-05	-8e-05	-1e-05	0.00017	-7e-05	0.00015	7e-05	-3e-05	2
7017	-3e-05	-8e-05	-1e-05	0.00017	-7e-05	0.00015	7e-05	-3e-05	2
7018	-3e-05	-8e-05	-1e-05	0.00017	-7e-05	0.00015	7e-05	-3e-05	2
7019	-3e-05	-8e-05	-1e-05	0.00017	-7e-05	0.00015	7e-05	-3e-05	2
7020	-3e-05	-8e-05	-1e-05	0.00017	-7e-05	0.00015	7e-05	-3e-05	2
7021	-3e-05	-8e-05	-1e-05	0.00017	-7e-05	0.00015	7e-05	-3e-05	2
7022	-3e-05	-8e-05	-1e-05	0.00017	-7e-05	0.00015	7e-05	-3e-05	2
7023	-3e-05	-8e-05	-1e-05	0.00017	-7e-05	0.00015	7e-05	-3e-05	2
7024	-3e-05	-8e-05	-1e-05	0.00017	-7e-05	0.00015	7e-05	-3e-05	2
7025	-3e-05	-8e-05	-1e-05	0.00017	-7e-05	0.00015	7e-05	-3e-05	2
7026	-3e-05	-8e-05	-1e-05	0.00017	-7e-05	0.00015	7e-05	-3e-05	2
7027	-3e-05	-8e-05	-1e-05	0.00017	-7e-05	0.00015	7e-05	-3e-05	2
7028	-3e-05	-8e-05	-1e-05	0.00017	-7e-05	0.00015	7e-05	-3e-05	2
7029	-3e-05	-8e-05	-1e-05	0.00017	-7e-05	0.00015	7e-05	-3e-05	2
7030	-3e-05	-8e-05	-1e-05	0.00017	-7e-05	0.00015	7e-05	-3e-05	2
7031	-3e-05	-8e-05	-1e-05	0.00017	-7e-05	0.00015	7e-05	-3e-05	2
7032	-3e-05	-8e-05	-1e-05	0.00017	-7e-05	0.00015	7e-05	-3e-05	2
7033	-3e-05	-8e-05	-1e-05	0.00017	-7e-05	0.00015	7e-05	-3e-05	2
7034	-3e-05	-8e-05	-1e-05	0.00017	-7e-05	0.00015	7e-05	-3e-05	2
7035	-3e-05	-8e-05	-1e-05	0.00017	-7e-05	0.00015	7e-05	-3e-05	2
7036	-3e-05	-8e-05	-1e-05	0.00017	-7e-05	0.00015	7e-05	-3e-05	2
7038	-3e-05	-8e-05	-1e-05	0.00017	-7e-05	0.00015	7e-05	-3e-05	2
7039	0	3e-05	0.00012	7e-05	-0.00012	-0.00036	-9e-05	-2e-05	2
7040	0	-2e-05	1e-05	-0.0001	-2e-05	0.00015	-1e-05	-3e-05	2
7041	-6e-05	-9e-05	-7e-05	0	-7e-05	-7e-05	-0.00011	-0.0001	2
7042	-6e-05	-9e-05	-7e-05	0	-7e-05	-7e-05	-0.00011	-0.0001	2
7043	-6e-05	-9e-05	-7e-05	0	-7e-05	-7e-05	-0.00011	-0.0001	2
7044	-6e-05	-9e-05	-7e-05	0	-7e-05	-7e-05	-0.00011	-0.0001	2
7045	-1e-05	-3e-05	-0.00017	-0.00022	-0.00022	-0.00035	3e-05	1e-05	2
7046	0	1e-05	0	-4e-05	1e-05	0.00019	-1e-05	-5e-05	2
7047	0	1e-05	0	-4e-05	1e-05	0.00019	-1e-05	-5e-05	2
7048	-2e-05	3e-05	8e-05	-4e-05	3e-05	-0.00012	-6e-05	-1e-05	2
7049	-2e-05	3e-05	8e-05	-4e-05	3e-05	-0.00012	-6e-05	-1e-05	2
7050	-2e-05	3e-05	8e-05	-4e-05	3e-05	-0.00012	-6e-05	-1e-05	2
7051	2e-05	4e-05	8e-05	-2e-05	6e-05	-0.00012	-1e-05	1e-05	2
7052	2e-05	4e-05	8e-05	-2e-05	6e-05	-0.00012	-1e-05	1e-05	2
7053	2e-05	4e-05	8e-05	-2e-05	6e-05	-0.00012	-1e-05	1e-05	2
7054	2e-05	4e-05	8e-05	-2e-05	6e-05	-0.00012	-1e-05	1e-05	2
7055	2e-05	4e-05	8e-05	-2e-05	6e-05	-0.00012	-1e-05	1e-05	2
7056	2e-05	4e-05	8e-05	-2e-05	6e-05	-0.00012	-1e-05	1e-05	2
7057	2e-05	6e-05	-0.0001	-0.00024	5e-05	0.00085	7e-05	2e-05	2
7058	2e-05	6e-05	-0.0001	-0.00024	5e-05	0.00085	7e-05	2e-05	2
7059	2e-05	6e-05	-0.0001	-0.00024	5e-05	0.00085	7e-05	2e-05	2
7060	2e-05	6e-05	-0.0001	-0.00024	5e-05	0.00085	7e-05	2e-05	2
7061	2e-05	6e-05	-0.0001	-0.00024	5e-05	0.00085	7e-05	2e-05	2
7062	2e-05	6e-05	-0.0001	-0.00024	5e-05	0.00085	7e-05	2e-05	2
7063	2e-05	6e-05	-0.0001	-0.00024	5e-05	0.00085	7e-05	2e-05	2
7064	2e-05	6e-05	-0.0001	-0.00024	5e-05	0.00085	7e-05	2e-05	2
7065	2e-05	6e-05	-0.0001	-0.00024	5e-05	0.00085	7e-05	2e-05	2
7066	-3e-05	-2e-05	-0.0001	-6e-05	3e-05	-0.00024	0	0	2
7067	-3e-05	-2e-05	-0.0001	-6e-05	3e-05	-0.00024	0	0	2
7068	-3e-05	-2e-05	-0.0001	-6e-05	3e-05	-0.00024	0	0	2
7069	-3e-05	-2e-05	-0.0001	-6e-05	3e-05	-0.00024	0	0	2
7070	-3e-05	-2e-05	-0.0001	-6e-05	3e-05	-0.00024	0	0	2
7071	-3e-05	-2e-05	-0.0001	-6e-05	3e-05	-0.00024	0	0	2
7072	-3e-05	-2e-05	-0.0001	-6e-05	3e-05	-0.00024	0	0	2
7073	-3e-05	-2e-05	-0.0001	-6e-05	3e-05	-0.00024	0	0	2
7074	-3e-05	-2e-05	-0.0001	-6e-05	3e-05	-0.00024	0	0	2
7075	-3e-05	-2e-05	-0.0001	-6e-05	3e-05	-0.00024	0	0	2
7076	-3e-05	-2e-05	-0.0001	-6e-05	3e-05	-0.00024	0	0	2
7077	-3e-05	-2e-05	-0.0001	-6e-05	3e-05	-0.00024	0	0	2
7078	-3e-05	-2e-05	-0.0001	-6e-05	3e-05	-0.00024	0	0	2
7079	-3e-05	-2e-05	-0.0001	-6e-05	3e-05	-0.00024	0	0	2
7080	-3e-05	-2e-05	-0.0001	-6e-05	3e-05	-0.00024	0	0	2
7081	-1e-05	3e-05	-3e-05	-7e-05	0.00024	0.00069	0.00018	4e-05	2
7082	6e-05	5e-05	0.00033	0.00034	0	-0.00024	-0.00011	3e-05	2
7083	6e-05	5e-05	0.00033	0.00034	0	-0.00024	-0.00011	3e-05	2
7084	6e-05	5e-05	0.00033	0.00034	0	-0.00024	-0.00011	3e-05	2
7085	6e-05	5e-05	0.00033	0.00034	0	-0.00024	-0.00011	3e-05	2
7086	6e-05	5e-05	0.00033	0.00034	0	-0.00024	-0.00011	3e-05	2
7088	6e-05	5e-05	0.00033	0.00034	0	-0.00024	-0.00011	3e-05	2
7089	6e-05	5e-05	0.00033	0.00034	0	-0.00024	-0.00011	3e-05	2
7090	6e-05	5e-05	0.00033	0.00034	0	-0.00024	-0.00011	3e-05	2
7091	6e-05	5e-05	0.00033	0.00034	0	-0.00024	-0.00011	3e-05	2
7092	6e-05	5e-05	0.00033	0.00034	0	-0.00024	-0.00011	3e-05	2
7093	6e-05	5e-05	0.00033	0.00034	0	-0.00024	-0.00011	3e-05	2
7094	6e-05	5e-05	0.00033	0.00034	0	-0.00024	-0.00011	3e-05	2
7095	6e-05	5e-05	0.00033	0.00034	0	-0.00024	-0.00011	3e-05	2
7096	6e-05	5e-05	0.00033	0.00034	0	-0.00024	-0.00011	3e-05	2
7097	6e-05	5e-05	0.00033	0.00034	0	-0.00024	-0.00011	3e-05	2
7098	6e-05	5e-05	0.00033	0.00034	0	-0.00024	-0.00011	3e-05	2
7099	6e-05	5e-05	0.00033	0.00034	0	-0.00024	-0.00011	3e-05	2
7100	6e-05	5e-05	0.00033	0.00034	0	-0.00024	-0.00011	3e-05	2
7101	6e-05	5e-05	0.00033	0.00034	0	-0.00024	-0.00011	3e-05	2
7102	6e-05	5e-05	0.00033	0.00034	0	-0.00024	-0.00011	3e-05	2
7103	-1e-05	2e-05	0.0001	2e-05	7e-05	-0.00077	-0.00019	-1e-05	2
7104	-1e-05	-3e-05	-0.00015	-7e-05	6e-05	8e-05	8e-05	2e-05	2
7105	-1e-05	-3e-05	-0.00015	-7e-05	6e-05	8e-05	8e-05	2e-05	2
7106	-1e-05	-3e-05	-0.00015	-7e-05	6e-05	8e-05	8e-05	2e-05	2
7107	-1e-05	-3e-05	-0.00015	-7e-05	6e-05	8e-05	8e-05	2e-05	2
7108	-1e-05	-3e-05	-0.00015	-7e-05	6e-05	8e-05	8e-05	2e-05	2
7109	-1e-05	-3e-05	-0.00015	-7e-05	6e-05	8e-05	8e-05	2e-05	2
7110	-1e-05	-3e-05	-0.00015	-7e-05	6e-05	8e-05	8e-05	2e-05	2
7111	-1e-05	-3e-05	-0.00015	-7e-05	6e-05	8e-05	8e-05	2e-05	2
7112	-1e-05	-3e-05	-0.00015	-7e-05	6e-05	8e-05	8e-05	2e-05	2
7113	-1e-05	-3e-05	-0.00015	-7e-05	6e-05	8e-05	8e-05	2e-05	2
7114	-1e-05	-3e-05	-0.00015	-7e-05	6e-05	8e-05	8e-05	2e-05	2
7115	-1e-05	-3e-05	-0.00015	-7e-05	6e-05	8e-05	8e-05	2e-05	2
7116	-1e-05	-3e-05	-0.00015	-7e-05	6e-05	8e-05	8e-05	2e-05	2
7117	-1e-05	-3e-05	-0.00015	-7e-05	6e-05	8e-05	8e-05	2e-05	2
7118	-1e-05	-3e-05	-0.00015	-7e-05	6e-05	8e-05	8e-05	2e-05	2
7119	-1e-05	-3e-05	-0.00015	-7e-05	6e-05	8e-05	8e-05	2e-05	2
7120	-1e-05	-3e-05	-0.00015	-7e-05	6e-05	8e-05	8e-05	2e-05	2
7121	-1e-05	-3e-05	-0.00015	-7e-05	6e-05	8e-05	8e-05	2e-05	2
7122	-1e-05	-3e-05	-0.00015	-7e-05	6e-05	8e-05	8e-05	2e-05	2
7123	-1e-05	-3e-05	-0.00015	-7e-05	6e-05	8e-05	8e-05	2e-05	2
7124	-1e-05	-3e-05	-0.00015	-7e-05	6e-05	8e-05	8e-05	2e-05	2
7125	-1e-05	-3e-05	-0.00015	-7e-05	6e-05	8e-05	8e-05	2e-05	2
7126	-1e-05	-3e-05	-0.00015	-7e-05	6e-05	8e-05	8e-05	2e-05	2
7127	-4e-05	-0.00012	-5e-05	9e-05	-6e-05	9e-05	-5e-05	-2e-05	2
7128	1e-05	0	-2e-05	-5e-05	-5e-05	0	1e-05	0	2
7129	1e-05	0	-2e-05	-5e-05	-5e-05	0	1e-05	0	2
7130	1e-05	0	-2e-05	-5e-05	-5e-05	0	1e-05	0	2
7131	1e-05	0	-2e-05	-5e-05	-5e-05	0	1e-05	0	2
7132	1e-05	0	-2e-05	-5e-05	-5e-05	0	1e-05	0	2
7133	1e-05	0	-2e-05	-5e-05	-5e-05	0	1e-05	0	2
7134	1e-05	0	-2e-05	-5e-05	-5e-05	0	1e-05	0	2
7135	1e-05	0	-2e-05	-5e-05	-5e-05	0	1e-05	0	2
7136	1e-05	0	-2e-05	-5e-05	-5e-05	0	1e-05	0	2
7138	1e-05	0	-2e-05	-5e-05	-5e-05	0	1e-05	0	2
7139	1e-05	0	-2e-05	-5e-05	-5e-05	0	1e-05	0	2
7140	1e-05	0	-2e-05	-5e-05	-5e-05	0	1e-05	0	2
7141	1e-05	0	-2e-05	-5e-05	-5e-05	0	1e-05	0	2
7142	1e-05	0	-2e-05	-5e-05	-5e-05	0	1e-05	0	2
7143	1e-05	0	-2e-05	-5e-05	-5e-05	0	1e-05	0	2
7144	1e-05	0	-2e-05	-5e-05	-5e-05	0	1e-05	0	2
7145	1e-05	0	-2e-05	-5e-05	-5e-05	0	1e-05	0	2
7146	1e-05	0	-2e-05	-5e-05	-5e-05	0	1e-05	0	2
7147	1e-05	0	-2e-05	-5e-05	-5e-05	0	1e-05	0	2
7148	-2e-05	2e-05	-8e-05	-0.00018	2e-05	0.0006	0.00023	0.00011	2
7149	-2e-05	2e-05	-8e-05	-0.00018	2e-05	0.0006	0.00023	0.00011	2
7150	-1e-05	3e-05	1e-05	-4e-05	-0.00024	-0.00055	-5e-05	-1e-05	2
7151	-1e-05	3e-05	1e-05	-4e-05	-0.00024	-0.00055	-5e-05	-1e-05	2
7152	-1e-05	3e-05	1e-05	-4e-05	-0.00024	-0.00055	-5e-05	-1e-05	2
7153	-1e-05	3e-05	1e-05	-4e-05	-0.00024	-0.00055	-5e-05	-1e-05	2
7154	-1e-05	3e-05	1e-05	-4e-05	-0.00024	-0.00055	-5e-05	-1e-05	2
7155	2e-05	3e-05	3e-05	-5e-05	-0.00021	-0.00023	-0.0001	3e-05	2
7156	2e-05	3e-05	3e-05	-5e-05	-0.00021	-0.00023	-0.0001	3e-05	2
7157	2e-05	3e-05	3e-05	-5e-05	-0.00021	-0.00023	-0.0001	3e-05	2
7158	2e-05	3e-05	3e-05	-5e-05	-0.00021	-0.00023	-0.0001	3e-05	2
7159	2e-05	3e-05	3e-05	-5e-05	-0.00021	-0.00023	-0.0001	3e-05	2
7160	2e-05	3e-05	3e-05	-5e-05	-0.00021	-0.00023	-0.0001	3e-05	2
7161	2e-05	3e-05	3e-05	-5e-05	-0.00021	-0.00023	-0.0001	3e-05	2
7162	-2e-05	-1e-05	0	-6e-05	2e-05	-4e-05	-3e-05	-2e-05	2
7163	2e-05	-2e-05	-5e-05	-0.00011	-6e-05	7e-05	1e-05	-2e-05	2
7164	2e-05	-2e-05	-5e-05	-0.00011	-6e-05	7e-05	1e-05	-2e-05	2
7165	2e-05	-2e-05	-5e-05	-0.00011	-6e-05	7e-05	1e-05	-2e-05	2
7166	2e-05	-2e-05	-5e-05	-0.00011	-6e-05	7e-05	1e-05	-2e-05	2
7167	2e-05	-2e-05	-5e-05	-0.00011	-6e-05	7e-05	1e-05	-2e-05	2
7168	2e-05	-2e-05	-5e-05	-0.00011	-6e-05	7e-05	1e-05	-2e-05	2
7169	2e-05	-2e-05	-5e-05	-0.00011	-6e-05	7e-05	1e-05	-2e-05	2
7170	2e-05	-2e-05	-5e-05	-0.00011	-6e-05	7e-05	1e-05	-2e-05	2
7171	2e-05	-2e-05	-5e-05	-0.00011	-6e-05	7e-05	1e-05	-2e-05	2
7172	2e-05	-2e-05	-5e-05	-0.00011	-6e-05	7e-05	1e-05	-2e-05	2
7173	2e-05	-2e-05	-5e-05	-0.00011	-6e-05	7e-05	1e-05	-2e-05	2
7174	2e-05	-2e-05	-5e-05	-0.00011	-6e-05	7e-05	1e-05	-2e-05	2
7175	2e-05	-2e-05	-5e-05	-0.00011	-6e-05	7e-05	1e-05	-2e-05	2
7176	2e-05	-2e-05	-5e-05	-0.00011	-6e-05	7e-05	1e-05	-2e-05	2
7177	2e-05	1e-05	0	1e-05	-0.00011	-9e-05	8e-05	-1e-05	2
7178	-3e-05	-1e-05	0.00015	9e-05	0.00011	0.00025	3e-05	-1e-05	2
7179	-3e-05	-1e-05	0.00015	9e-05	0.00011	0.00025	3e-05	-1e-05	2
7180	-3e-05	-1e-05	0.00015	9e-05	0.00011	0.00025	3e-05	-1e-05	2
7181	-3e-05	-1e-05	0.00015	9e-05	0.00011	0.00025	3e-05	-1e-05	2
7182	-3e-05	-1e-05	0.00015	9e-05	0.00011	0.00025	3e-05	-1e-05	2
7183	-3e-05	-1e-05	0.00015	9e-05	0.00011	0.00025	3e-05	-1e-05	2
7184	-3e-05	-1e-05	0.00015	9e-05	0.00011	0.00025	3e-05	-1e-05	2
7185	-3e-05	-1e-05	0.00015	9e-05	0.00011	0.00025	3e-05	-1e-05	2
7186	-3e-05	-1e-05	0.00015	9e-05	0.00011	0.00025	3e-05	-1e-05	2
7188	-6e-05	-0.00011	0	0.00021	0.00014	3e-05	0.00011	-6e-05	2
7189	-6e-05	-0.00011	0	0.00021	0.00014	3e-05	0.00011	-6e-05	2
7190	-6e-05	-0.00011	0	0.00021	0.00014	3e-05	0.00011	-6e-05	2
7191	-6e-05	-0.00011	0	0.00021	0.00014	3e-05	0.00011	-6e-05	2
7192	-6e-05	-0.00011	0	0.00021	0.00014	3e-05	0.00011	-6e-05	2
7193	-6e-05	-0.00011	0	0.00021	0.00014	3e-05	0.00011	-6e-05	2
7194	-6e-05	-0.00011	0	0.00021	0.00014	3e-05	0.00011	-6e-05	2
7195	-6e-05	-0.00011	0	0.00021	0.00014	3e-05	0.00011	-6e-05	2
7196	-6e-05	-0.00011	0	0.00021	0.00014	3e-05	0.00011	-6e-05	2
7197	-6e-05	-0.00011	0	0.00021	0.00014	3e-05	0.00011	-6e-05	2
7198	-6e-05	-0.00011	0	0.00021	0.00014	3e-05	0.00011	-6e-05	2
7199	-6e-05	-0.00011	0	0.00021	0.00014	3e-05	0.00011	-6e-05	2
7200	-6e-05	-0.00011	0	0.00021	0.00014	3e-05	0.00011	-6e-05	2
7201	-2e-05	2e-05	-9e-05	-0.0002	-3e-05	-0.00026	-7e-05	-3e-05	2
7202	-2e-05	2e-05	-9e-05	-0.0002	-3e-05	-0.00026	-7e-05	-3e-05	2
7203	-2e-05	2e-05	-9e-05	-0.0002	-3e-05	-0.00026	-7e-05	-3e-05	2
7204	-2e-05	2e-05	-9e-05	-0.0002	-3e-05	-0.00026	-7e-05	-3e-05	2
7205	-2e-05	2e-05	-9e-05	-0.0002	-3e-05	-0.00026	-7e-05	-3e-05	2
7206	-2e-05	2e-05	-9e-05	-0.0002	-3e-05	-0.00026	-7e-05	-3e-05	2
7207	-2e-05	2e-05	-9e-05	-0.0002	-3e-05	-0.00026	-7e-05	-3e-05	2
7208	-2e-05	2e-05	-9e-05	-0.0002	-3e-05	-0.00026	-7e-05	-3e-05	2
7209	-2e-05	2e-05	-9e-05	-0.0002	-3e-05	-0.00026	-7e-05	-3e-05	2
7210	-2e-05	2e-05	-9e-05	-0.0002	-3e-05	-0.00026	-7e-05	-3e-05	2
7211	-2e-05	2e-05	-9e-05	-0.0002	-3e-05	-0.00026	-7e-05	-3e-05	2
7212	-2e-05	2e-05	-9e-05	-0.0002	-3e-05	-0.00026	-7e-05	-3e-05	2
7213	-2e-05	2e-05	-9e-05	-0.0002	-3e-05	-0.00026	-7e-05	-3e-05	2
7214	-2e-05	2e-05	-9e-05	-0.0002	-3e-05	-0.00026	-7e-05	-3e-05	2
7215	-3e-05	-4e-05	-0.00011	-8e-05	6e-05	0.00011	0.00011	2e-05	2
7216	-3e-05	-4e-05	-0.00011	-8e-05	6e-05	0.00011	0.00011	2e-05	2
7217	-3e-05	-4e-05	-0.00011	-8e-05	6e-05	0.00011	0.00011	2e-05	2
7218	-3e-05	-4e-05	-0.00011	-8e-05	6e-05	0.00011	0.00011	2e-05	2
7219	-3e-05	-4e-05	-0.00011	-8e-05	6e-05	0.00011	0.00011	2e-05	2
7220	-3e-05	-4e-05	-0.00011	-8e-05	6e-05	0.00011	0.00011	2e-05	2
7221	-3e-05	-4e-05	-0.00011	-8e-05	6e-05	0.00011	0.00011	2e-05	2
7222	-3e-05	-7e-05	-4e-05	6e-05	0.00022	0.00032	1e-05	2e-05	2
7223	-3e-05	-7e-05	-4e-05	6e-05	0.00022	0.00032	1e-05	2e-05	2
7224	-3e-05	-7e-05	-4e-05	6e-05	0.00022	0.00032	1e-05	2e-05	2
7225	-3e-05	-7e-05	-4e-05	6e-05	0.00022	0.00032	1e-05	2e-05	2
7226	-3e-05	-7e-05	-4e-05	6e-05	0.00022	0.00032	1e-05	2e-05	2
7227	-3e-05	-7e-05	-4e-05	6e-05	0.00022	0.00032	1e-05	2e-05	2
7228	-3e-05	-7e-05	-4e-05	6e-05	0.00022	0.00032	1e-05	2e-05	2
7229	-3e-05	-7e-05	-4e-05	6e-05	0.00022	0.00032	1e-05	2e-05	2
7230	-3e-05	-7e-05	-4e-05	6e-05	0.00022	0.00032	1e-05	2e-05	2
7231	-3e-05	-7e-05	-4e-05	6e-05	0.00022	0.00032	1e-05	2e-05	2
7232	-3e-05	-7e-05	-4e-05	6e-05	0.00022	0.00032	1e-05	2e-05	2
7233	-3e-05	-7e-05	-4e-05	6e-05	0.00022	0.00032	1e-05	2e-05	2
7234	-3e-05	-7e-05	-4e-05	6e-05	0.00022	0.00032	1e-05	2e-05	2
7235	-3e-05	-7e-05	-4e-05	6e-05	0.00022	0.00032	1e-05	2e-05	2
7236	-3e-05	-7e-05	-4e-05	6e-05	0.00022	0.00032	1e-05	2e-05	2
7238	-2e-05	2e-05	-7e-05	-0.00022	0	0.00032	0.0001	-4e-05	2
7239	-2e-05	2e-05	-7e-05	-0.00022	0	0.00032	0.0001	-4e-05	2
7240	-2e-05	2e-05	-7e-05	-0.00022	0	0.00032	0.0001	-4e-05	2
7241	-2e-05	2e-05	-7e-05	-0.00022	0	0.00032	0.0001	-4e-05	2
7242	-2e-05	2e-05	-7e-05	-0.00022	0	0.00032	0.0001	-4e-05	2
7243	-2e-05	2e-05	-7e-05	-0.00022	0	0.00032	0.0001	-4e-05	2
7244	-2e-05	2e-05	-7e-05	-0.00022	0	0.00032	0.0001	-4e-05	2
7245	-2e-05	2e-05	-7e-05	-0.00022	0	0.00032	0.0001	-4e-05	2
7246	-3e-05	-5e-05	-0.00018	-1e-05	3e-05	0.00014	-1e-05	1e-05	2
7247	-3e-05	-5e-05	-0.00018	-1e-05	3e-05	0.00014	-1e-05	1e-05	2
7248	-3e-05	-5e-05	-0.00018	-1e-05	3e-05	0.00014	-1e-05	1e-05	2
7249	-3e-05	-5e-05	-0.00018	-1e-05	3e-05	0.00014	-1e-05	1e-05	2
7250	-3e-05	-5e-05	-0.00018	-1e-05	3e-05	0.00014	-1e-05	1e-05	2
7251	-3e-05	-5e-05	-0.00018	-1e-05	3e-05	0.00014	-1e-05	1e-05	2
7252	-3e-05	-5e-05	-0.00018	-1e-05	3e-05	0.00014	-1e-05	1e-05	2
7253	-3e-05	-5e-05	-0.00018	-1e-05	3e-05	0.00014	-1e-05	1e-05	2
7254	-3e-05	-5e-05	-0.00018	-1e-05	3e-05	0.00014	-1e-05	1e-05	2
7255	-3e-05	-5e-05	-0.00018	-1e-05	3e-05	0.00014	-1e-05	1e-05	2
7256	-3e-05	-5e-05	-0.00018	-1e-05	3e-05	0.00014	-1e-05	1e-05	2
7257	-3e-05	-5e-05	-0.00018	-1e-05	3e-05	0.00014	-1e-05	1e-05	2
7258	-3e-05	-5e-05	-0.00018	-1e-05	3e-05	0.00014	-1e-05	1e-05	2
7259	-3e-05	-5e-05	-0.00018	-1e-05	3e-05	0.00014	-1e-05	1e-05	2
7260	2e-05	3e-05	0.00017	5e-05	-7e-05	-1e-05	2e-05	4e-05	2
7261	-1e-05	0	2e-05	-2e-05	5e-05	0.00016	0	0	2
7262	-1e-05	0	2e-05	-2e-05	5e-05	0.00016	0	0	2
7263	-1e-05	0	2e-05	-2e-05	5e-05	0.00016	0	0	2
7264	-1e-05	0	2e-05	-2e-05	5e-05	0.00016	0	0	2
7265	-1e-05	0	2e-05	-2e-05	5e-05	0.00016	0	0	2
7266	-1e-05	0	2e-05	-2e-05	5e-05	0.00016	0	0	2
7267	-1e-05	0	2e-05	-2e-05	5e-05	0.00016	0	0	2
7268	-1e-05	0	2e-05	-2e-05	5e-05	0.00016	0	0	2
7269	-1e-05	0	2e-05	-2e-05	5e-05	0.00016	0	0	2
7270	-1e-05	0	2e-05	-2e-05	5e-05	0.00016	0	0	2
7271	-1e-05	0	2e-05	-2e-05	5e-05	0.00016	0	0	2
7272	-1e-05	0	2e-05	-2e-05	5e-05	0.00016	0	0	2
7273	-1e-05	0	2e-05	-2e-05	5e-05	0.00016	0	0	2
7274	-1e-05	0	2e-05	-2e-05	5e-05	0.00016	0	0	2
7275	-1e-05	0	2e-05	-2e-05	5e-05	0.00016	0	0	2
7276	-1e-05	0	2e-05	-2e-05	5e-05	0.00016	0	0	2
7277	-1e-05	0	2e-05	-2e-05	5e-05	0.00016	0	0	2
7278	-1e-05	0	2e-05	-2e-05	5e-05	0.00016	0	0	2
7279	-1e-05	0	2e-05	-2e-05	5e-05	0.00016	0	0	2
7280	-1e-05	0	2e-05	-2e-05	5e-05	0.00016	0	0	2
7281	-1e-05	0	2e-05	-2e-05	5e-05	0.00016	0	0	2
7282	-1e-05	0	2e-05	-2e-05	5e-05	0.00016	0	0	2
7283	-3e-05	-7e-05	-9e-05	0.00031	0.0001	0.00042	1e-05	1e-05	2
7284	1e-05	3e-05	0.00017	3e-05	-0.0001	-0.00035	-0.00015	-3e-05	2
7285	1e-05	3e-05	0.00017	3e-05	-0.0001	-0.00035	-0.00015	-3e-05	2
7286	1e-05	3e-05	0.00017	3e-05	-0.0001	-0.00035	-0.00015	-3e-05	2
7289	1e-05	3e-05	0.00017	3e-05	-0.0001	-0.00035	-0.00015	-3e-05	2
7290	1e-05	3e-05	0.00017	3e-05	-0.0001	-0.00035	-0.00015	-3e-05	2
7291	1e-05	3e-05	0.00017	3e-05	-0.0001	-0.00035	-0.00015	-3e-05	2
7292	1e-05	3e-05	0.00017	3e-05	-0.0001	-0.00035	-0.00015	-3e-05	2
7293	1e-05	3e-05	0.00017	3e-05	-0.0001	-0.00035	-0.00015	-3e-05	2
7294	1e-05	3e-05	0.00017	3e-05	-0.0001	-0.00035	-0.00015	-3e-05	2
7295	1e-05	3e-05	0.00017	3e-05	-0.0001	-0.00035	-0.00015	-3e-05	2
7296	1e-05	3e-05	0.00017	3e-05	-0.0001	-0.00035	-0.00015	-3e-05	2
7297	1e-05	1e-05	0.00042	0.00053	-4e-05	-0.00017	-4e-05	-3e-05	2
7298	1e-05	1e-05	0.00042	0.00053	-4e-05	-0.00017	-4e-05	-3e-05	2
7299	1e-05	1e-05	0.00042	0.00053	-4e-05	-0.00017	-4e-05	-3e-05	2
7300	1e-05	1e-05	0.00042	0.00053	-4e-05	-0.00017	-4e-05	-3e-05	2
7301	1e-05	1e-05	0.00042	0.00053	-4e-05	-0.00017	-4e-05	-3e-05	2
7302	1e-05	1e-05	0.00042	0.00053	-4e-05	-0.00017	-4e-05	-3e-05	2
7303	1e-05	1e-05	0.00042	0.00053	-4e-05	-0.00017	-4e-05	-3e-05	2
7304	1e-05	1e-05	0.00042	0.00053	-4e-05	-0.00017	-4e-05	-3e-05	2
7305	1e-05	1e-05	0.00042	0.00053	-4e-05	-0.00017	-4e-05	-3e-05	2
7306	-2e-05	-3e-05	5e-05	0.00023	-3e-05	0.00053	7e-05	0	2
7308	-2e-05	-3e-05	5e-05	0.00023	-3e-05	0.00053	7e-05	0	2
7309	-2e-05	-3e-05	5e-05	0.00023	-3e-05	0.00053	7e-05	0	2
7310	-2e-05	-3e-05	5e-05	0.00023	-3e-05	0.00053	7e-05	0	2
7311	-2e-05	-3e-05	5e-05	0.00023	-3e-05	0.00053	7e-05	0	2
7312	-2e-05	-3e-05	5e-05	0.00023	-3e-05	0.00053	7e-05	0	2
7313	-2e-05	-3e-05	5e-05	0.00023	-3e-05	0.00053	7e-05	0	2
7314	-2e-05	-3e-05	5e-05	0.00023	-3e-05	0.00053	7e-05	0	2
7315	-2e-05	-3e-05	5e-05	0.00023	-3e-05	0.00053	7e-05	0	2
7316	-2e-05	-3e-05	5e-05	0.00023	-3e-05	0.00053	7e-05	0	2
7317	-2e-05	-3e-05	5e-05	0.00023	-3e-05	0.00053	7e-05	0	2
7318	-2e-05	-3e-05	5e-05	0.00023	-3e-05	0.00053	7e-05	0	2
7319	-2e-05	-3e-05	5e-05	0.00023	-3e-05	0.00053	7e-05	0	2
7320	-3e-05	-8e-05	-8e-05	-0.00015	0.00011	-4e-05	-2e-05	-5e-05	2
7321	-2e-05	0	-5e-05	-0.00014	-7e-05	0.00019	-2e-05	1e-05	2
7322	-2e-05	0	-5e-05	-0.00014	-7e-05	0.00019	-2e-05	1e-05	2
7323	-2e-05	0	-5e-05	-0.00014	-7e-05	0.00019	-2e-05	1e-05	2
7324	-2e-05	0	-5e-05	-0.00014	-7e-05	0.00019	-2e-05	1e-05	2
7325	-2e-05	0	-5e-05	-0.00014	-7e-05	0.00019	-2e-05	1e-05	2
7326	-2e-05	0	-5e-05	-0.00014	-7e-05	0.00019	-2e-05	1e-05	2
7327	-2e-05	0	-5e-05	-0.00014	-7e-05	0.00019	-2e-05	1e-05	2
7329	-2e-05	0	-5e-05	-0.00014	-7e-05	0.00019	-2e-05	1e-05	2
7330	-2e-05	0	-5e-05	-0.00014	-7e-05	0.00019	-2e-05	1e-05	2
7331	-2e-05	0	-5e-05	-0.00014	-7e-05	0.00019	-2e-05	1e-05	2
7332	-2e-05	0	-5e-05	-0.00014	-7e-05	0.00019	-2e-05	1e-05	2
7333	-2e-05	0	-5e-05	-0.00014	-7e-05	0.00019	-2e-05	1e-05	2
7334	-2e-05	0	-5e-05	-0.00014	-7e-05	0.00019	-2e-05	1e-05	2
7335	2e-05	1e-05	-3e-05	-0.00012	-0.00016	-0.00016	0	1e-05	2
7336	2e-05	1e-05	-3e-05	-0.00012	-0.00016	-0.00016	0	1e-05	2
7338	2e-05	1e-05	-3e-05	-0.00012	-0.00016	-0.00016	0	1e-05	2
7339	2e-05	1e-05	-3e-05	-0.00012	-0.00016	-0.00016	0	1e-05	2
7340	2e-05	1e-05	-3e-05	-0.00012	-0.00016	-0.00016	0	1e-05	2
7341	2e-05	1e-05	-3e-05	-0.00012	-0.00016	-0.00016	0	1e-05	2
7342	0	4e-05	6e-05	8e-05	0.00012	1e-05	2e-05	-5e-05	2
7343	1e-05	2e-05	-5e-05	6e-05	-3e-05	-0.00028	-2e-05	-8e-05	2
7344	1e-05	2e-05	-5e-05	6e-05	-3e-05	-0.00028	-2e-05	-8e-05	2
7345	1e-05	2e-05	-5e-05	6e-05	-3e-05	-0.00028	-2e-05	-8e-05	2
7346	1e-05	2e-05	-5e-05	6e-05	-3e-05	-0.00028	-2e-05	-8e-05	2
7347	1e-05	2e-05	-5e-05	6e-05	-3e-05	-0.00028	-2e-05	-8e-05	2
7348	1e-05	2e-05	-5e-05	6e-05	-3e-05	-0.00028	-2e-05	-8e-05	2
7349	1e-05	2e-05	-5e-05	6e-05	-3e-05	-0.00028	-2e-05	-8e-05	2
7350	1e-05	2e-05	-5e-05	6e-05	-3e-05	-0.00028	-2e-05	-8e-05	2
7351	1e-05	2e-05	-5e-05	6e-05	-3e-05	-0.00028	-2e-05	-8e-05	2
7352	1e-05	2e-05	-5e-05	6e-05	-3e-05	-0.00028	-2e-05	-8e-05	2
7353	1e-05	2e-05	-5e-05	6e-05	-3e-05	-0.00028	-2e-05	-8e-05	2
7354	1e-05	2e-05	-5e-05	6e-05	-3e-05	-0.00028	-2e-05	-8e-05	2
7355	1e-05	2e-05	-5e-05	6e-05	-3e-05	-0.00028	-2e-05	-8e-05	2
7356	1e-05	2e-05	-5e-05	6e-05	-3e-05	-0.00028	-2e-05	-8e-05	2
7357	-3e-05	-4e-05	0	-8e-05	-9e-05	-7e-05	-3e-05	-8e-05	2
7358	-3e-05	-4e-05	0	-8e-05	-9e-05	-7e-05	-3e-05	-8e-05	2
7359	-3e-05	-4e-05	0	-8e-05	-9e-05	-7e-05	-3e-05	-8e-05	2
7360	-3e-05	-4e-05	0	-8e-05	-9e-05	-7e-05	-3e-05	-8e-05	2
7361	-3e-05	-4e-05	0	-8e-05	-9e-05	-7e-05	-3e-05	-8e-05	2
7362	-3e-05	-4e-05	0	-8e-05	-9e-05	-7e-05	-3e-05	-8e-05	2
7363	-3e-05	-4e-05	0	-8e-05	-9e-05	-7e-05	-3e-05	-8e-05	2
7364	-3e-05	-4e-05	0	-8e-05	-9e-05	-7e-05	-3e-05	-8e-05	2
7365	-3e-05	-4e-05	0	-8e-05	-9e-05	-7e-05	-3e-05	-8e-05	2
7366	-1e-05	0	-0.00015	-0.00019	1e-05	0.00031	3e-05	0	2
7367	-1e-05	0	-0.00015	-0.00019	1e-05	0.00031	3e-05	0	2
7368	-1e-05	0	-0.00015	-0.00019	1e-05	0.00031	3e-05	0	2
7369	-1e-05	0	-0.00015	-0.00019	1e-05	0.00031	3e-05	0	2
7370	-1e-05	0	-0.00015	-0.00019	1e-05	0.00031	3e-05	0	2
7371	-1e-05	0	-0.00015	-0.00019	1e-05	0.00031	3e-05	0	2
7372	-1e-05	0	-0.00015	-0.00019	1e-05	0.00031	3e-05	0	2
7373	-1e-05	0	-0.00015	-0.00019	1e-05	0.00031	3e-05	0	2
7374	-1e-05	0	-0.00015	-0.00019	1e-05	0.00031	3e-05	0	2
7375	-1e-05	0	-0.00015	-0.00019	1e-05	0.00031	3e-05	0	2
7376	-1e-05	0	-0.00015	-0.00019	1e-05	0.00031	3e-05	0	2
7377	-1e-05	0	-0.00015	-0.00019	1e-05	0.00031	3e-05	0	2
7378	-1e-05	0	-0.00015	-0.00019	1e-05	0.00031	3e-05	0	2
7379	-1e-05	0	-0.00015	-0.00019	1e-05	0.00031	3e-05	0	2
7380	-1e-05	0	-0.00015	-0.00019	1e-05	0.00031	3e-05	0	2
7381	-1e-05	0	-0.00015	-0.00019	1e-05	0.00031	3e-05	0	2
7382	-1e-05	0	-0.00015	-0.00019	1e-05	0.00031	3e-05	0	2
7383	-1e-05	0	-0.00015	-0.00019	1e-05	0.00031	3e-05	0	2
7384	-1e-05	0	-0.00015	-0.00019	1e-05	0.00031	3e-05	0	2
7385	-1e-05	0	-0.00015	-0.00019	1e-05	0.00031	3e-05	0	2
7386	-1e-05	0	-0.00015	-0.00019	1e-05	0.00031	3e-05	0	2
7388	-1e-05	0	-0.00015	-0.00019	1e-05	0.00031	3e-05	0	2
7389	-7e-05	-8e-05	-4e-05	4e-05	9e-05	0.00018	4e-05	1e-05	2
7390	-7e-05	-8e-05	-4e-05	4e-05	9e-05	0.00018	4e-05	1e-05	2
7391	-7e-05	-8e-05	-4e-05	4e-05	9e-05	0.00018	4e-05	1e-05	2
7392	-7e-05	-8e-05	-4e-05	4e-05	9e-05	0.00018	4e-05	1e-05	2
7393	-7e-05	-8e-05	-4e-05	4e-05	9e-05	0.00018	4e-05	1e-05	2
7394	-7e-05	-8e-05	-4e-05	4e-05	9e-05	0.00018	4e-05	1e-05	2
7395	-7e-05	-8e-05	-4e-05	4e-05	9e-05	0.00018	4e-05	1e-05	2
7396	-7e-05	-8e-05	-4e-05	4e-05	9e-05	0.00018	4e-05	1e-05	2
7397	-7e-05	-8e-05	-4e-05	4e-05	9e-05	0.00018	4e-05	1e-05	2
7398	-7e-05	-8e-05	-4e-05	4e-05	9e-05	0.00018	4e-05	1e-05	2
7399	-7e-05	-8e-05	-4e-05	4e-05	9e-05	0.00018	4e-05	1e-05	2
7400	-7e-05	-8e-05	-4e-05	4e-05	9e-05	0.00018	4e-05	1e-05	2
7401	-7e-05	-8e-05	-4e-05	4e-05	9e-05	0.00018	4e-05	1e-05	2
7402	-7e-05	-8e-05	-4e-05	4e-05	9e-05	0.00018	4e-05	1e-05	2
7403	-3e-05	-3e-05	0.00012	1e-05	0.00015	1e-05	-2e-05	1e-05	2
7404	-3e-05	-3e-05	0.00012	1e-05	0.00015	1e-05	-2e-05	1e-05	2
7405	-3e-05	-3e-05	0.00012	1e-05	0.00015	1e-05	-2e-05	1e-05	2
7406	-3e-05	-3e-05	0.00012	1e-05	0.00015	1e-05	-2e-05	1e-05	2
7407	-3e-05	-3e-05	0.00012	1e-05	0.00015	1e-05	-2e-05	1e-05	2
7408	-3e-05	-3e-05	0.00012	1e-05	0.00015	1e-05	-2e-05	1e-05	2
7409	-3e-05	-3e-05	0.00012	1e-05	0.00015	1e-05	-2e-05	1e-05	2
7410	5e-05	5e-05	-0.00031	-0.00041	-6e-05	0.00024	-5e-05	-3e-05	2
7411	5e-05	5e-05	-0.00031	-0.00041	-6e-05	0.00024	-5e-05	-3e-05	2
7412	5e-05	5e-05	-0.00031	-0.00041	-6e-05	0.00024	-5e-05	-3e-05	2
7413	5e-05	5e-05	-0.00031	-0.00041	-6e-05	0.00024	-5e-05	-3e-05	2
7414	5e-05	5e-05	-0.00031	-0.00041	-6e-05	0.00024	-5e-05	-3e-05	2
7415	5e-05	5e-05	-0.00031	-0.00041	-6e-05	0.00024	-5e-05	-3e-05	2
7416	5e-05	5e-05	-0.00031	-0.00041	-6e-05	0.00024	-5e-05	-3e-05	2
7417	-4e-05	-8e-05	-0.0001	-0.00013	7e-05	-0.00021	-5e-05	-4e-05	2
7418	-4e-05	-8e-05	-0.0001	-0.00013	7e-05	-0.00021	-5e-05	-4e-05	2
7419	-4e-05	-8e-05	-0.0001	-0.00013	7e-05	-0.00021	-5e-05	-4e-05	2
7420	-4e-05	-8e-05	-0.0001	-0.00013	7e-05	-0.00021	-5e-05	-4e-05	2
7421	-4e-05	-8e-05	-0.0001	-0.00013	7e-05	-0.00021	-5e-05	-4e-05	2
7422	-4e-05	-8e-05	-0.0001	-0.00013	7e-05	-0.00021	-5e-05	-4e-05	2
7423	-4e-05	-8e-05	-0.0001	-0.00013	7e-05	-0.00021	-5e-05	-4e-05	2
7424	-4e-05	-8e-05	-0.0001	-0.00013	7e-05	-0.00021	-5e-05	-4e-05	2
7425	3e-05	2e-05	-3e-05	-1e-05	-0.00017	-0.00018	4e-05	-1e-05	2
7426	-2e-05	-2e-05	6e-05	-5e-05	0.00013	-0.00026	-3e-05	0	2
7428	-2e-05	-2e-05	6e-05	-5e-05	0.00013	-0.00026	-3e-05	0	2
7429	-2e-05	-2e-05	6e-05	-5e-05	0.00013	-0.00026	-3e-05	0	2
7430	-2e-05	-2e-05	6e-05	-5e-05	0.00013	-0.00026	-3e-05	0	2
7431	-2e-05	-2e-05	6e-05	-5e-05	0.00013	-0.00026	-3e-05	0	2
7432	-2e-05	-2e-05	6e-05	-5e-05	0.00013	-0.00026	-3e-05	0	2
7433	-2e-05	-2e-05	6e-05	-5e-05	0.00013	-0.00026	-3e-05	0	2
7434	-2e-05	-2e-05	6e-05	-5e-05	0.00013	-0.00026	-3e-05	0	2
7435	-2e-05	-2e-05	6e-05	-5e-05	0.00013	-0.00026	-3e-05	0	2
7436	-2e-05	-2e-05	6e-05	-5e-05	0.00013	-0.00026	-3e-05	0	2
7438	-2e-05	-2e-05	6e-05	-5e-05	0.00013	-0.00026	-3e-05	0	2
7439	-2e-05	-2e-05	6e-05	-5e-05	0.00013	-0.00026	-3e-05	0	2
7440	-2e-05	-2e-05	6e-05	-5e-05	0.00013	-0.00026	-3e-05	0	2
7441	-2e-05	-2e-05	6e-05	-5e-05	0.00013	-0.00026	-3e-05	0	2
7442	-2e-05	-2e-05	6e-05	-5e-05	0.00013	-0.00026	-3e-05	0	2
7443	-2e-05	-2e-05	6e-05	-5e-05	0.00013	-0.00026	-3e-05	0	2
7444	-2e-05	-2e-05	6e-05	-5e-05	0.00013	-0.00026	-3e-05	0	2
7445	-2e-05	-2e-05	6e-05	-5e-05	0.00013	-0.00026	-3e-05	0	2
7446	-2e-05	-2e-05	6e-05	-5e-05	0.00013	-0.00026	-3e-05	0	2
7447	-2e-05	-2e-05	6e-05	-5e-05	0.00013	-0.00026	-3e-05	0	2
7448	-2e-05	-2e-05	6e-05	-5e-05	0.00013	-0.00026	-3e-05	0	2
7449	3e-05	3e-05	-5e-05	-9e-05	1e-05	0.00012	7e-05	-1e-05	2
7450	-3e-05	2e-05	-5e-05	-8e-05	-0.0001	-0.00052	-6e-05	-5e-05	2
7452	-3e-05	2e-05	-5e-05	-8e-05	-0.0001	-0.00052	-6e-05	-5e-05	2
7453	-3e-05	2e-05	-5e-05	-8e-05	-0.0001	-0.00052	-6e-05	-5e-05	2
7454	-3e-05	2e-05	-5e-05	-8e-05	-0.0001	-0.00052	-6e-05	-5e-05	2
7455	-2e-05	3e-05	0.00018	0.00015	0.00013	-1e-05	-0.00011	-5e-05	2
7456	-2e-05	3e-05	0.00018	0.00015	0.00013	-1e-05	-0.00011	-5e-05	2
7457	-2e-05	3e-05	0.00018	0.00015	0.00013	-1e-05	-0.00011	-5e-05	2
7458	-2e-05	3e-05	0.00018	0.00015	0.00013	-1e-05	-0.00011	-5e-05	2
7459	-2e-05	3e-05	0.00018	0.00015	0.00013	-1e-05	-0.00011	-5e-05	2
7460	-2e-05	3e-05	0.00018	0.00015	0.00013	-1e-05	-0.00011	-5e-05	2
7461	-2e-05	3e-05	0.00018	0.00015	0.00013	-1e-05	-0.00011	-5e-05	2
7462	-2e-05	3e-05	0.00018	0.00015	0.00013	-1e-05	-0.00011	-5e-05	2
7463	-2e-05	3e-05	0.00018	0.00015	0.00013	-1e-05	-0.00011	-5e-05	2
7464	-2e-05	3e-05	0.00018	0.00015	0.00013	-1e-05	-0.00011	-5e-05	2
7465	-2e-05	3e-05	0.00018	0.00015	0.00013	-1e-05	-0.00011	-5e-05	2
7466	-2e-05	3e-05	0.00018	0.00015	0.00013	-1e-05	-0.00011	-5e-05	2
7467	-2e-05	3e-05	0.00018	0.00015	0.00013	-1e-05	-0.00011	-5e-05	2
7468	-2e-05	3e-05	0.00018	0.00015	0.00013	-1e-05	-0.00011	-5e-05	2
7469	-2e-05	3e-05	0.00018	0.00015	0.00013	-1e-05	-0.00011	-5e-05	2
7470	-2e-05	3e-05	0.00018	0.00015	0.00013	-1e-05	-0.00011	-5e-05	2
7471	2e-05	2e-05	5e-05	8e-05	-6e-05	0.00016	6e-05	2e-05	2
7472	2e-05	2e-05	5e-05	8e-05	-6e-05	0.00016	6e-05	2e-05	2
7473	2e-05	2e-05	5e-05	8e-05	-6e-05	0.00016	6e-05	2e-05	2
7474	2e-05	2e-05	5e-05	8e-05	-6e-05	0.00016	6e-05	2e-05	2
7475	2e-05	2e-05	5e-05	8e-05	-6e-05	0.00016	6e-05	2e-05	2
7476	2e-05	2e-05	5e-05	8e-05	-6e-05	0.00016	6e-05	2e-05	2
7477	2e-05	2e-05	5e-05	8e-05	-6e-05	0.00016	6e-05	2e-05	2
7478	2e-05	2e-05	5e-05	8e-05	-6e-05	0.00016	6e-05	2e-05	2
7479	2e-05	2e-05	5e-05	8e-05	-6e-05	0.00016	6e-05	2e-05	2
7480	2e-05	2e-05	5e-05	8e-05	-6e-05	0.00016	6e-05	2e-05	2
7481	2e-05	2e-05	5e-05	8e-05	-6e-05	0.00016	6e-05	2e-05	2
7482	2e-05	2e-05	5e-05	8e-05	-6e-05	0.00016	6e-05	2e-05	2
7483	2e-05	2e-05	5e-05	8e-05	-6e-05	0.00016	6e-05	2e-05	2
7484	2e-05	2e-05	5e-05	8e-05	-6e-05	0.00016	6e-05	2e-05	2
7485	2e-05	2e-05	5e-05	8e-05	-6e-05	0.00016	6e-05	2e-05	2
7486	2e-05	2e-05	5e-05	8e-05	-6e-05	0.00016	6e-05	2e-05	2
7488	3e-05	-1e-05	-0.00029	-0.0002	-0.0001	-0.00035	-6e-05	4e-05	2
7489	3e-05	-1e-05	-0.00029	-0.0002	-0.0001	-0.00035	-6e-05	4e-05	2
7490	3e-05	-1e-05	-0.00029	-0.0002	-0.0001	-0.00035	-6e-05	4e-05	2
7491	3e-05	-1e-05	-0.00029	-0.0002	-0.0001	-0.00035	-6e-05	4e-05	2
7492	-1e-05	-2e-05	4e-05	-0.00013	-9e-05	-0.00015	-3e-05	2e-05	2
7493	-1e-05	-2e-05	4e-05	-0.00013	-9e-05	-0.00015	-3e-05	2e-05	2
7494	-1e-05	-2e-05	4e-05	-0.00013	-9e-05	-0.00015	-3e-05	2e-05	2
7495	-1e-05	-2e-05	4e-05	-0.00013	-9e-05	-0.00015	-3e-05	2e-05	2
7496	-1e-05	-2e-05	4e-05	-0.00013	-9e-05	-0.00015	-3e-05	2e-05	2
7497	-1e-05	-2e-05	4e-05	-0.00013	-9e-05	-0.00015	-3e-05	2e-05	2
7498	-1e-05	-2e-05	4e-05	-0.00013	-9e-05	-0.00015	-3e-05	2e-05	2
7499	-1e-05	-2e-05	4e-05	-0.00013	-9e-05	-0.00015	-3e-05	2e-05	2
7500	-1e-05	-2e-05	4e-05	-0.00013	-9e-05	-0.00015	-3e-05	2e-05	2
7501	-1e-05	-2e-05	4e-05	-0.00013	-9e-05	-0.00015	-3e-05	2e-05	2
7502	-1e-05	-2e-05	4e-05	-0.00013	-9e-05	-0.00015	-3e-05	2e-05	2
7503	-1e-05	-2e-05	4e-05	-0.00013	-9e-05	-0.00015	-3e-05	2e-05	2
7504	-1e-05	-2e-05	4e-05	-0.00013	-9e-05	-0.00015	-3e-05	2e-05	2
7505	-1e-05	-2e-05	4e-05	-0.00013	-9e-05	-0.00015	-3e-05	2e-05	2
7506	-1e-05	-2e-05	4e-05	-0.00013	-9e-05	-0.00015	-3e-05	2e-05	2
7507	-1e-05	-2e-05	4e-05	-0.00013	-9e-05	-0.00015	-3e-05	2e-05	2
7508	-1e-05	-2e-05	4e-05	-0.00013	-9e-05	-0.00015	-3e-05	2e-05	2
7509	-7e-05	-7e-05	-9e-05	7e-05	0.00011	0.00049	0.00011	-1e-05	2
7510	-3e-05	-0.00012	3e-05	0.00032	0.00018	0.00028	0.00016	3e-05	2
7511	-3e-05	-0.00012	3e-05	0.00032	0.00018	0.00028	0.00016	3e-05	2
7512	-3e-05	-0.00012	3e-05	0.00032	0.00018	0.00028	0.00016	3e-05	2
7513	-3e-05	-0.00012	3e-05	0.00032	0.00018	0.00028	0.00016	3e-05	2
7514	-3e-05	-0.00012	3e-05	0.00032	0.00018	0.00028	0.00016	3e-05	2
7515	-3e-05	-0.00012	3e-05	0.00032	0.00018	0.00028	0.00016	3e-05	2
7516	-3e-05	-0.00012	3e-05	0.00032	0.00018	0.00028	0.00016	3e-05	2
7517	-3e-05	-0.00012	3e-05	0.00032	0.00018	0.00028	0.00016	3e-05	2
7518	-3e-05	-0.00012	3e-05	0.00032	0.00018	0.00028	0.00016	3e-05	2
7519	-3e-05	-0.00012	3e-05	0.00032	0.00018	0.00028	0.00016	3e-05	2
7520	-3e-05	-0.00012	3e-05	0.00032	0.00018	0.00028	0.00016	3e-05	2
7521	-3e-05	-0.00012	3e-05	0.00032	0.00018	0.00028	0.00016	3e-05	2
7522	-3e-05	-0.00012	3e-05	0.00032	0.00018	0.00028	0.00016	3e-05	2
7523	-3e-05	-0.00012	3e-05	0.00032	0.00018	0.00028	0.00016	3e-05	2
7524	-3e-05	-0.00012	3e-05	0.00032	0.00018	0.00028	0.00016	3e-05	2
7525	-3e-05	-0.00012	3e-05	0.00032	0.00018	0.00028	0.00016	3e-05	2
7526	-3e-05	-0.00012	3e-05	0.00032	0.00018	0.00028	0.00016	3e-05	2
7527	-3e-05	-0.00012	3e-05	0.00032	0.00018	0.00028	0.00016	3e-05	2
7528	-3e-05	-0.00012	3e-05	0.00032	0.00018	0.00028	0.00016	3e-05	2
7529	-3e-05	-0.00012	3e-05	0.00032	0.00018	0.00028	0.00016	3e-05	2
7530	-3e-05	-0.00012	3e-05	0.00032	0.00018	0.00028	0.00016	3e-05	2
7531	-3e-05	-0.00012	3e-05	0.00032	0.00018	0.00028	0.00016	3e-05	2
7532	-2e-05	-5e-05	-0.0001	-4e-05	-9e-05	-0.00012	-5e-05	-1e-05	2
7533	-2e-05	-5e-05	-0.0001	-4e-05	-9e-05	-0.00012	-5e-05	-1e-05	2
7534	-2e-05	-5e-05	-0.0001	-4e-05	-9e-05	-0.00012	-5e-05	-1e-05	2
7535	-2e-05	-5e-05	-0.0001	-4e-05	-9e-05	-0.00012	-5e-05	-1e-05	2
7536	-2e-05	-5e-05	-0.0001	-4e-05	-9e-05	-0.00012	-5e-05	-1e-05	2
7538	-3e-05	-1e-05	3e-05	1e-05	-7e-05	2e-05	2e-05	-1e-05	2
7539	-3e-05	-1e-05	3e-05	1e-05	-7e-05	2e-05	2e-05	-1e-05	2
7540	-3e-05	-1e-05	3e-05	1e-05	-7e-05	2e-05	2e-05	-1e-05	2
7541	-3e-05	-1e-05	3e-05	1e-05	-7e-05	2e-05	2e-05	-1e-05	2
7542	-3e-05	-1e-05	3e-05	1e-05	-7e-05	2e-05	2e-05	-1e-05	2
7543	-3e-05	-1e-05	3e-05	1e-05	-7e-05	2e-05	2e-05	-1e-05	2
7544	-3e-05	-1e-05	3e-05	1e-05	-7e-05	2e-05	2e-05	-1e-05	2
7545	-3e-05	-1e-05	3e-05	1e-05	-7e-05	2e-05	2e-05	-1e-05	2
7546	2e-05	2e-05	1e-05	-7e-05	2e-05	0.00029	7e-05	5e-05	2
7547	2e-05	2e-05	1e-05	-7e-05	2e-05	0.00029	7e-05	5e-05	2
7548	1e-05	-4e-05	0	8e-05	-2e-05	-0.00016	-0.00012	-5e-05	2
7549	1e-05	-4e-05	0	8e-05	-2e-05	-0.00016	-0.00012	-5e-05	2
7550	1e-05	-4e-05	0	8e-05	-2e-05	-0.00016	-0.00012	-5e-05	2
7551	1e-05	-4e-05	0	8e-05	-2e-05	-0.00016	-0.00012	-5e-05	2
7552	1e-05	-4e-05	0	8e-05	-2e-05	-0.00016	-0.00012	-5e-05	2
7553	1e-05	-4e-05	0	8e-05	-2e-05	-0.00016	-0.00012	-5e-05	2
7554	1e-05	-4e-05	0	8e-05	-2e-05	-0.00016	-0.00012	-5e-05	2
7555	1e-05	-4e-05	0	8e-05	-2e-05	-0.00016	-0.00012	-5e-05	2
7556	1e-05	-4e-05	0	8e-05	-2e-05	-0.00016	-0.00012	-5e-05	2
7557	1e-05	-4e-05	0	8e-05	-2e-05	-0.00016	-0.00012	-5e-05	2
7558	1e-05	-4e-05	0	8e-05	-2e-05	-0.00016	-0.00012	-5e-05	2
7559	1e-05	-4e-05	0	8e-05	-2e-05	-0.00016	-0.00012	-5e-05	2
7560	1e-05	-4e-05	0	8e-05	-2e-05	-0.00016	-0.00012	-5e-05	2
7561	1e-05	-4e-05	0	8e-05	-2e-05	-0.00016	-0.00012	-5e-05	2
7562	1e-05	-4e-05	0	8e-05	-2e-05	-0.00016	-0.00012	-5e-05	2
7563	1e-05	-4e-05	0	8e-05	-2e-05	-0.00016	-0.00012	-5e-05	2
7564	1e-05	-4e-05	0	8e-05	-2e-05	-0.00016	-0.00012	-5e-05	2
7565	1e-05	-4e-05	0	8e-05	-2e-05	-0.00016	-0.00012	-5e-05	2
7566	1e-05	-4e-05	0	8e-05	-2e-05	-0.00016	-0.00012	-5e-05	2
7567	1e-05	-4e-05	0	8e-05	-2e-05	-0.00016	-0.00012	-5e-05	2
7568	1e-05	-4e-05	0	8e-05	-2e-05	-0.00016	-0.00012	-5e-05	2
7569	-2e-05	3e-05	1e-05	-3e-05	-0.00017	-0.00018	0	-2e-05	2
7570	-2e-05	3e-05	1e-05	-3e-05	-0.00017	-0.00018	0	-2e-05	2
7571	1e-05	6e-05	0.0001	-1e-05	2e-05	-0.00015	1e-05	7e-05	2
7572	1e-05	6e-05	0.0001	-1e-05	2e-05	-0.00015	1e-05	7e-05	2
7573	1e-05	6e-05	0.0001	-1e-05	2e-05	-0.00015	1e-05	7e-05	2
7574	1e-05	6e-05	0.0001	-1e-05	2e-05	-0.00015	1e-05	7e-05	2
7575	1e-05	6e-05	0.0001	-1e-05	2e-05	-0.00015	1e-05	7e-05	2
7576	1e-05	6e-05	0.0001	-1e-05	2e-05	-0.00015	1e-05	7e-05	2
7577	1e-05	6e-05	0.0001	-1e-05	2e-05	-0.00015	1e-05	7e-05	2
7578	1e-05	6e-05	0.0001	-1e-05	2e-05	-0.00015	1e-05	7e-05	2
7579	1e-05	6e-05	0.0001	-1e-05	2e-05	-0.00015	1e-05	7e-05	2
7580	1e-05	6e-05	0.0001	-1e-05	2e-05	-0.00015	1e-05	7e-05	2
7581	1e-05	6e-05	0.0001	-1e-05	2e-05	-0.00015	1e-05	7e-05	2
7582	1e-05	6e-05	0.0001	-1e-05	2e-05	-0.00015	1e-05	7e-05	2
7583	1e-05	6e-05	0.0001	-1e-05	2e-05	-0.00015	1e-05	7e-05	2
7584	1e-05	6e-05	0.0001	-1e-05	2e-05	-0.00015	1e-05	7e-05	2
7585	1e-05	6e-05	0.0001	-1e-05	2e-05	-0.00015	1e-05	7e-05	2
7586	1e-05	6e-05	0.0001	-1e-05	2e-05	-0.00015	1e-05	7e-05	2
7588	1e-05	6e-05	0.0001	-1e-05	2e-05	-0.00015	1e-05	7e-05	2
7589	1e-05	6e-05	0.0001	-1e-05	2e-05	-0.00015	1e-05	7e-05	2
7590	1e-05	6e-05	0.0001	-1e-05	2e-05	-0.00015	1e-05	7e-05	2
7591	-3e-05	-6e-05	-0.0001	-4e-05	-3e-05	-0.00017	-5e-05	-2e-05	2
7592	-1e-05	-4e-05	-0.00021	3e-05	0	-1e-05	-4e-05	-6e-05	2
7593	-3e-05	-3e-05	-8e-05	-0.0001	-5e-05	-4e-05	-9e-05	-9e-05	2
7594	-3e-05	-3e-05	-8e-05	-0.0001	-5e-05	-4e-05	-9e-05	-9e-05	2
7595	-3e-05	-3e-05	-8e-05	-0.0001	-5e-05	-4e-05	-9e-05	-9e-05	2
7596	-3e-05	-3e-05	-8e-05	-0.0001	-5e-05	-4e-05	-9e-05	-9e-05	2
7597	-3e-05	-3e-05	-8e-05	-0.0001	-5e-05	-4e-05	-9e-05	-9e-05	2
7598	-3e-05	-3e-05	-8e-05	-0.0001	-5e-05	-4e-05	-9e-05	-9e-05	2
7599	-3e-05	-3e-05	-8e-05	-0.0001	-5e-05	-4e-05	-9e-05	-9e-05	2
7600	-3e-05	-3e-05	-8e-05	-0.0001	-5e-05	-4e-05	-9e-05	-9e-05	2
7601	-3e-05	-3e-05	-8e-05	-0.0001	-5e-05	-4e-05	-9e-05	-9e-05	2
7602	-3e-05	-3e-05	-8e-05	-0.0001	-5e-05	-4e-05	-9e-05	-9e-05	2
7603	-3e-05	-3e-05	-8e-05	-0.0001	-5e-05	-4e-05	-9e-05	-9e-05	2
7604	-3e-05	-3e-05	-8e-05	-0.0001	-5e-05	-4e-05	-9e-05	-9e-05	2
7605	-3e-05	-3e-05	-8e-05	-0.0001	-5e-05	-4e-05	-9e-05	-9e-05	2
7606	0	-1e-05	0.00012	3e-05	-6e-05	0.00022	0.00014	3e-05	2
7607	0	-1e-05	0.00012	3e-05	-6e-05	0.00022	0.00014	3e-05	2
7608	0	-1e-05	0.00011	0.00018	7e-05	-8e-05	-9e-05	-6e-05	2
7609	0	-1e-05	0.00011	0.00018	7e-05	-8e-05	-9e-05	-6e-05	2
7610	0	-1e-05	0.00011	0.00018	7e-05	-8e-05	-9e-05	-6e-05	2
7611	0	-1e-05	0.00011	0.00018	7e-05	-8e-05	-9e-05	-6e-05	2
7612	0	-1e-05	0.00011	0.00018	7e-05	-8e-05	-9e-05	-6e-05	2
7613	0	-1e-05	0.00011	0.00018	7e-05	-8e-05	-9e-05	-6e-05	2
7614	0	-1e-05	0.00011	0.00018	7e-05	-8e-05	-9e-05	-6e-05	2
7615	0	-1e-05	0.00011	0.00018	7e-05	-8e-05	-9e-05	-6e-05	2
7616	0	-1e-05	0.00011	0.00018	7e-05	-8e-05	-9e-05	-6e-05	2
7617	0	-1e-05	0.00011	0.00018	7e-05	-8e-05	-9e-05	-6e-05	2
7618	0	-1e-05	0.00011	0.00018	7e-05	-8e-05	-9e-05	-6e-05	2
7619	0	-1e-05	0.00011	0.00018	7e-05	-8e-05	-9e-05	-6e-05	2
7620	0	-1e-05	0.00011	0.00018	7e-05	-8e-05	-9e-05	-6e-05	2
7621	0	-1e-05	0.00011	0.00018	7e-05	-8e-05	-9e-05	-6e-05	2
7622	0	-1e-05	0.00011	0.00018	7e-05	-8e-05	-9e-05	-6e-05	2
7623	0	-1e-05	0.00011	0.00018	7e-05	-8e-05	-9e-05	-6e-05	2
7624	0	-1e-05	0.00011	0.00018	7e-05	-8e-05	-9e-05	-6e-05	2
7625	0	-1e-05	0.00011	0.00018	7e-05	-8e-05	-9e-05	-6e-05	2
7626	0	-1e-05	0.00011	0.00018	7e-05	-8e-05	-9e-05	-6e-05	2
7627	0	-1e-05	0.00011	0.00018	7e-05	-8e-05	-9e-05	-6e-05	2
7628	0	-1e-05	0.00011	0.00018	7e-05	-8e-05	-9e-05	-6e-05	2
7629	-2e-05	-5e-05	-5e-05	-6e-05	-5e-05	-0.0004	-0.00014	-4e-05	2
7630	-3e-05	-2e-05	2e-05	-3e-05	0	-0.00013	-2e-05	-9e-05	2
7631	-3e-05	-2e-05	2e-05	-3e-05	0	-0.00013	-2e-05	-9e-05	2
7632	-3e-05	-2e-05	2e-05	-3e-05	0	-0.00013	-2e-05	-9e-05	2
7633	-3e-05	-2e-05	2e-05	-3e-05	0	-0.00013	-2e-05	-9e-05	2
7634	-3e-05	-2e-05	2e-05	-3e-05	0	-0.00013	-2e-05	-9e-05	2
7635	-3e-05	-2e-05	2e-05	-3e-05	0	-0.00013	-2e-05	-9e-05	2
7636	-3e-05	-2e-05	2e-05	-3e-05	0	-0.00013	-2e-05	-9e-05	2
7638	-3e-05	-2e-05	2e-05	-3e-05	0	-0.00013	-2e-05	-9e-05	2
7639	-3e-05	-2e-05	2e-05	-3e-05	0	-0.00013	-2e-05	-9e-05	2
7640	-3e-05	-2e-05	2e-05	-3e-05	0	-0.00013	-2e-05	-9e-05	2
7641	-3e-05	-2e-05	2e-05	-3e-05	0	-0.00013	-2e-05	-9e-05	2
7642	-3e-05	-2e-05	2e-05	-3e-05	0	-0.00013	-2e-05	-9e-05	2
7643	-3e-05	-2e-05	2e-05	-3e-05	0	-0.00013	-2e-05	-9e-05	2
7644	-3e-05	-2e-05	2e-05	-3e-05	0	-0.00013	-2e-05	-9e-05	2
7645	-3e-05	-2e-05	2e-05	-3e-05	0	-0.00013	-2e-05	-9e-05	2
7646	-3e-05	-2e-05	2e-05	-3e-05	0	-0.00013	-2e-05	-9e-05	2
7647	-3e-05	-2e-05	2e-05	-3e-05	0	-0.00013	-2e-05	-9e-05	2
7648	-3e-05	-2e-05	2e-05	-3e-05	0	-0.00013	-2e-05	-9e-05	2
7649	-3e-05	-2e-05	2e-05	-3e-05	0	-0.00013	-2e-05	-9e-05	2
7650	-3e-05	-2e-05	2e-05	-3e-05	0	-0.00013	-2e-05	-9e-05	2
7651	0	4e-05	4e-05	1e-05	-8e-05	-0.00037	-0.00017	-5e-05	2
7652	0	4e-05	4e-05	1e-05	-8e-05	-0.00037	-0.00017	-5e-05	2
7653	-2e-05	-5e-05	-8e-05	9e-05	3e-05	-6e-05	-4e-05	-7e-05	2
7654	-2e-05	-5e-05	-8e-05	9e-05	3e-05	-6e-05	-4e-05	-7e-05	2
7655	-2e-05	-5e-05	-8e-05	9e-05	3e-05	-6e-05	-4e-05	-7e-05	2
7656	-2e-05	-5e-05	-8e-05	9e-05	3e-05	-6e-05	-4e-05	-7e-05	2
7657	-2e-05	-5e-05	-8e-05	9e-05	3e-05	-6e-05	-4e-05	-7e-05	2
7658	-2e-05	-5e-05	-8e-05	9e-05	3e-05	-6e-05	-4e-05	-7e-05	2
7659	-2e-05	-5e-05	-8e-05	9e-05	3e-05	-6e-05	-4e-05	-7e-05	2
7660	-2e-05	-5e-05	-8e-05	9e-05	3e-05	-6e-05	-4e-05	-7e-05	2
7661	-2e-05	-5e-05	-8e-05	9e-05	3e-05	-6e-05	-4e-05	-7e-05	2
7662	-2e-05	-5e-05	-8e-05	9e-05	3e-05	-6e-05	-4e-05	-7e-05	2
7663	-2e-05	-5e-05	-8e-05	9e-05	3e-05	-6e-05	-4e-05	-7e-05	2
7665	-2e-05	-5e-05	-8e-05	9e-05	3e-05	-6e-05	-4e-05	-7e-05	2
7666	1e-05	4e-05	4e-05	-0.00019	-6e-05	-9e-05	2e-05	2e-05	2
7667	1e-05	4e-05	4e-05	-0.00019	-6e-05	-9e-05	2e-05	2e-05	2
7668	1e-05	4e-05	4e-05	-0.00019	-6e-05	-9e-05	2e-05	2e-05	2
7669	1e-05	4e-05	4e-05	-0.00019	-6e-05	-9e-05	2e-05	2e-05	2
7670	1e-05	4e-05	4e-05	-0.00019	-6e-05	-9e-05	2e-05	2e-05	2
7671	1e-05	4e-05	4e-05	-0.00019	-6e-05	-9e-05	2e-05	2e-05	2
7672	-2e-05	1e-05	-1e-05	-0.0002	-0.00024	0.00018	3e-05	-2e-05	2
7674	-2e-05	1e-05	-1e-05	-0.0002	-0.00024	0.00018	3e-05	-2e-05	2
7675	-2e-05	1e-05	-1e-05	-0.0002	-0.00024	0.00018	3e-05	-2e-05	2
7676	-2e-05	1e-05	-1e-05	-0.0002	-0.00024	0.00018	3e-05	-2e-05	2
7677	-2e-05	1e-05	-1e-05	-0.0002	-0.00024	0.00018	3e-05	-2e-05	2
7678	-2e-05	1e-05	-1e-05	-0.0002	-0.00024	0.00018	3e-05	-2e-05	2
7679	-2e-05	1e-05	-1e-05	-0.0002	-0.00024	0.00018	3e-05	-2e-05	2
7680	-2e-05	1e-05	-1e-05	-0.0002	-0.00024	0.00018	3e-05	-2e-05	2
7681	-2e-05	1e-05	-1e-05	-0.0002	-0.00024	0.00018	3e-05	-2e-05	2
7682	-2e-05	1e-05	-1e-05	-0.0002	-0.00024	0.00018	3e-05	-2e-05	2
7683	-2e-05	1e-05	-1e-05	-0.0002	-0.00024	0.00018	3e-05	-2e-05	2
7684	-2e-05	1e-05	-1e-05	-0.0002	-0.00024	0.00018	3e-05	-2e-05	2
7685	-2e-05	1e-05	-1e-05	-0.0002	-0.00024	0.00018	3e-05	-2e-05	2
7686	-2e-05	1e-05	-1e-05	-0.0002	-0.00024	0.00018	3e-05	-2e-05	2
7688	-2e-05	1e-05	-1e-05	-0.0002	-0.00024	0.00018	3e-05	-2e-05	2
7689	-2e-05	-1e-05	0.00014	0.00014	1e-05	-5e-05	1e-05	3e-05	2
7690	3e-05	-3e-05	-9e-05	9e-05	4e-05	-0.00014	-2e-05	8e-05	2
7691	3e-05	-3e-05	-9e-05	9e-05	4e-05	-0.00014	-2e-05	8e-05	2
7692	3e-05	-3e-05	-9e-05	9e-05	4e-05	-0.00014	-2e-05	8e-05	2
7693	3e-05	-3e-05	-9e-05	9e-05	4e-05	-0.00014	-2e-05	8e-05	2
7694	3e-05	-3e-05	-9e-05	9e-05	4e-05	-0.00014	-2e-05	8e-05	2
7695	3e-05	-3e-05	-9e-05	9e-05	4e-05	-0.00014	-2e-05	8e-05	2
7696	3e-05	-3e-05	-9e-05	9e-05	4e-05	-0.00014	-2e-05	8e-05	2
7697	3e-05	-3e-05	-9e-05	9e-05	4e-05	-0.00014	-2e-05	8e-05	2
7698	3e-05	-3e-05	-9e-05	9e-05	4e-05	-0.00014	-2e-05	8e-05	2
7699	3e-05	-3e-05	-9e-05	9e-05	4e-05	-0.00014	-2e-05	8e-05	2
7700	3e-05	-3e-05	-9e-05	9e-05	4e-05	-0.00014	-2e-05	8e-05	2
7701	3e-05	-3e-05	-9e-05	9e-05	4e-05	-0.00014	-2e-05	8e-05	2
7702	3e-05	-3e-05	-9e-05	9e-05	4e-05	-0.00014	-2e-05	8e-05	2
7703	3e-05	-3e-05	-9e-05	9e-05	4e-05	-0.00014	-2e-05	8e-05	2
7704	3e-05	-3e-05	-9e-05	9e-05	4e-05	-0.00014	-2e-05	8e-05	2
7705	3e-05	-3e-05	-9e-05	9e-05	4e-05	-0.00014	-2e-05	8e-05	2
7706	3e-05	-3e-05	-9e-05	9e-05	4e-05	-0.00014	-2e-05	8e-05	2
7707	3e-05	-3e-05	-9e-05	9e-05	4e-05	-0.00014	-2e-05	8e-05	2
7708	3e-05	-3e-05	-9e-05	9e-05	4e-05	-0.00014	-2e-05	8e-05	2
7709	3e-05	-3e-05	-9e-05	9e-05	4e-05	-0.00014	-2e-05	8e-05	2
7710	3e-05	-3e-05	-9e-05	9e-05	4e-05	-0.00014	-2e-05	8e-05	2
7711	1e-05	-1e-05	-9e-05	-0.00014	-0.00019	-0.00054	-0.00016	-0.00013	2
7712	1e-05	-1e-05	-9e-05	-0.00014	-0.00019	-0.00054	-0.00016	-0.00013	2
7713	2e-05	4e-05	0	-4e-05	-7e-05	-0.00023	-0.00012	-3e-05	2
7714	2e-05	4e-05	0	-4e-05	-7e-05	-0.00023	-0.00012	-3e-05	2
7715	2e-05	4e-05	0	-4e-05	-7e-05	-0.00023	-0.00012	-3e-05	2
7716	2e-05	4e-05	0	-4e-05	-7e-05	-0.00023	-0.00012	-3e-05	2
7717	2e-05	4e-05	0	-4e-05	-7e-05	-0.00023	-0.00012	-3e-05	2
7718	2e-05	4e-05	0	-4e-05	-7e-05	-0.00023	-0.00012	-3e-05	2
7719	2e-05	4e-05	0	-4e-05	-7e-05	-0.00023	-0.00012	-3e-05	2
7720	2e-05	4e-05	0	-4e-05	-7e-05	-0.00023	-0.00012	-3e-05	2
7721	2e-05	4e-05	0	-4e-05	-7e-05	-0.00023	-0.00012	-3e-05	2
7722	2e-05	4e-05	0	-4e-05	-7e-05	-0.00023	-0.00012	-3e-05	2
7723	2e-05	4e-05	0	-4e-05	-7e-05	-0.00023	-0.00012	-3e-05	2
7724	2e-05	4e-05	0	-4e-05	-7e-05	-0.00023	-0.00012	-3e-05	2
7725	2e-05	4e-05	0	-4e-05	-7e-05	-0.00023	-0.00012	-3e-05	2
7726	-4e-05	-4e-05	0	-3e-05	-3e-05	-8e-05	-6e-05	-5e-05	2
7727	-4e-05	-4e-05	0	-3e-05	-3e-05	-8e-05	-6e-05	-5e-05	2
7728	-4e-05	-4e-05	0	-3e-05	-3e-05	-8e-05	-6e-05	-5e-05	2
7729	-4e-05	-4e-05	0	-3e-05	-3e-05	-8e-05	-6e-05	-5e-05	2
7730	-4e-05	-4e-05	0	-3e-05	-3e-05	-8e-05	-6e-05	-5e-05	2
7731	-4e-05	-4e-05	0	-3e-05	-3e-05	-8e-05	-6e-05	-5e-05	2
7732	1e-05	1e-05	3e-05	-2e-05	3e-05	0.00024	9e-05	4e-05	2
7733	1e-05	1e-05	3e-05	-2e-05	3e-05	0.00024	9e-05	4e-05	2
7734	1e-05	1e-05	3e-05	-2e-05	3e-05	0.00024	9e-05	4e-05	2
7735	1e-05	1e-05	3e-05	-2e-05	3e-05	0.00024	9e-05	4e-05	2
7736	1e-05	1e-05	3e-05	-2e-05	3e-05	0.00024	9e-05	4e-05	2
7738	1e-05	1e-05	3e-05	-2e-05	3e-05	0.00024	9e-05	4e-05	2
7739	1e-05	1e-05	3e-05	-2e-05	3e-05	0.00024	9e-05	4e-05	2
7740	1e-05	1e-05	3e-05	-2e-05	3e-05	0.00024	9e-05	4e-05	2
7741	1e-05	1e-05	3e-05	-2e-05	3e-05	0.00024	9e-05	4e-05	2
7742	1e-05	1e-05	3e-05	-2e-05	3e-05	0.00024	9e-05	4e-05	2
7743	1e-05	1e-05	3e-05	-2e-05	3e-05	0.00024	9e-05	4e-05	2
7744	1e-05	1e-05	3e-05	-2e-05	3e-05	0.00024	9e-05	4e-05	2
7745	1e-05	1e-05	3e-05	-2e-05	3e-05	0.00024	9e-05	4e-05	2
7746	1e-05	1e-05	3e-05	-2e-05	3e-05	0.00024	9e-05	4e-05	2
7747	1e-05	1e-05	3e-05	-2e-05	3e-05	0.00024	9e-05	4e-05	2
7748	1e-05	1e-05	3e-05	-2e-05	3e-05	0.00024	9e-05	4e-05	2
7749	0	0	-8e-05	-5e-05	-3e-05	0.00024	6e-05	4e-05	2
7750	-2e-05	1e-05	2e-05	-0.00021	3e-05	0.00018	2e-05	-1e-05	2
7751	-2e-05	1e-05	2e-05	-0.00021	3e-05	0.00018	2e-05	-1e-05	2
7752	-2e-05	1e-05	2e-05	-0.00021	3e-05	0.00018	2e-05	-1e-05	2
7753	-2e-05	1e-05	2e-05	-0.00021	3e-05	0.00018	2e-05	-1e-05	2
7754	-2e-05	1e-05	2e-05	-0.00021	3e-05	0.00018	2e-05	-1e-05	2
7755	-2e-05	1e-05	2e-05	-0.00021	3e-05	0.00018	2e-05	-1e-05	2
7756	-2e-05	1e-05	2e-05	-0.00021	3e-05	0.00018	2e-05	-1e-05	2
7757	-2e-05	1e-05	2e-05	-0.00021	3e-05	0.00018	2e-05	-1e-05	2
7758	-2e-05	1e-05	2e-05	-0.00021	3e-05	0.00018	2e-05	-1e-05	2
7759	-2e-05	1e-05	2e-05	-0.00021	3e-05	0.00018	2e-05	-1e-05	2
7760	-2e-05	1e-05	2e-05	-0.00021	3e-05	0.00018	2e-05	-1e-05	2
7761	-2e-05	1e-05	2e-05	-0.00021	3e-05	0.00018	2e-05	-1e-05	2
7762	-2e-05	1e-05	2e-05	-0.00021	3e-05	0.00018	2e-05	-1e-05	2
7763	-2e-05	1e-05	2e-05	-0.00021	3e-05	0.00018	2e-05	-1e-05	2
7764	-2e-05	1e-05	2e-05	-0.00021	3e-05	0.00018	2e-05	-1e-05	2
7765	-2e-05	1e-05	2e-05	-0.00021	3e-05	0.00018	2e-05	-1e-05	2
7766	-2e-05	1e-05	2e-05	-0.00021	3e-05	0.00018	2e-05	-1e-05	2
7767	-2e-05	1e-05	2e-05	-0.00021	3e-05	0.00018	2e-05	-1e-05	2
7768	-2e-05	1e-05	2e-05	-0.00021	3e-05	0.00018	2e-05	-1e-05	2
7769	-2e-05	1e-05	2e-05	-0.00021	3e-05	0.00018	2e-05	-1e-05	2
7770	-2e-05	1e-05	2e-05	-0.00021	3e-05	0.00018	2e-05	-1e-05	2
7771	-2e-05	1e-05	2e-05	-0.00021	3e-05	0.00018	2e-05	-1e-05	2
7772	0	1e-05	-0.00014	8e-05	8e-05	3e-05	-3e-05	1e-05	2
7773	-2e-05	2e-05	0.0001	5e-05	-4e-05	-7e-05	1e-05	-1e-05	2
7774	-2e-05	2e-05	0.0001	5e-05	-4e-05	-7e-05	1e-05	-1e-05	2
7775	-2e-05	2e-05	0.0001	5e-05	-4e-05	-7e-05	1e-05	-1e-05	2
7776	-2e-05	2e-05	0.0001	5e-05	-4e-05	-7e-05	1e-05	-1e-05	2
7777	-2e-05	2e-05	0.0001	5e-05	-4e-05	-7e-05	1e-05	-1e-05	2
7778	-2e-05	2e-05	0.0001	5e-05	-4e-05	-7e-05	1e-05	-1e-05	2
7779	-2e-05	2e-05	0.0001	5e-05	-4e-05	-7e-05	1e-05	-1e-05	2
7780	-2e-05	2e-05	0.0001	5e-05	-4e-05	-7e-05	1e-05	-1e-05	2
7781	-2e-05	2e-05	0.0001	5e-05	-4e-05	-7e-05	1e-05	-1e-05	2
7782	-2e-05	2e-05	0.0001	5e-05	-4e-05	-7e-05	1e-05	-1e-05	2
7783	-2e-05	2e-05	0.0001	5e-05	-4e-05	-7e-05	1e-05	-1e-05	2
7784	-2e-05	2e-05	0.0001	5e-05	-4e-05	-7e-05	1e-05	-1e-05	2
7785	-2e-05	2e-05	0.0001	5e-05	-4e-05	-7e-05	1e-05	-1e-05	2
7786	1e-05	6e-05	0.00021	-4e-05	9e-05	0.00045	5e-05	1e-05	2
7788	1e-05	6e-05	0.00021	-4e-05	9e-05	0.00045	5e-05	1e-05	2
7789	1e-05	6e-05	0.00021	-4e-05	9e-05	0.00045	5e-05	1e-05	2
7790	1e-05	6e-05	0.00021	-4e-05	9e-05	0.00045	5e-05	1e-05	2
7791	1e-05	6e-05	0.00021	-4e-05	9e-05	0.00045	5e-05	1e-05	2
7792	-1e-05	-3e-05	-3e-05	-0.0001	-0.0001	2e-05	-4e-05	-4e-05	2
7793	0	-1e-05	1e-05	2e-05	-4e-05	-9e-05	0	5e-05	2
7794	0	-1e-05	1e-05	2e-05	-4e-05	-9e-05	0	5e-05	2
7795	0	-1e-05	1e-05	2e-05	-4e-05	-9e-05	0	5e-05	2
7796	0	-1e-05	1e-05	2e-05	-4e-05	-9e-05	0	5e-05	2
7797	0	-1e-05	1e-05	2e-05	-4e-05	-9e-05	0	5e-05	2
7798	0	-1e-05	1e-05	2e-05	-4e-05	-9e-05	0	5e-05	2
7799	0	-1e-05	1e-05	2e-05	-4e-05	-9e-05	0	5e-05	2
7800	0	-1e-05	1e-05	2e-05	-4e-05	-9e-05	0	5e-05	2
7801	0	-1e-05	1e-05	2e-05	-4e-05	-9e-05	0	5e-05	2
7802	0	-1e-05	1e-05	2e-05	-4e-05	-9e-05	0	5e-05	2
7803	0	-1e-05	1e-05	2e-05	-4e-05	-9e-05	0	5e-05	2
7804	0	-1e-05	1e-05	2e-05	-4e-05	-9e-05	0	5e-05	2
7805	0	-1e-05	1e-05	2e-05	-4e-05	-9e-05	0	5e-05	2
7806	0	-1e-05	1e-05	2e-05	-4e-05	-9e-05	0	5e-05	2
7807	0	-1e-05	1e-05	2e-05	-4e-05	-9e-05	0	5e-05	2
7808	0	-1e-05	1e-05	2e-05	-4e-05	-9e-05	0	5e-05	2
7809	0	-1e-05	1e-05	2e-05	-4e-05	-9e-05	0	5e-05	2
7810	-4e-05	-5e-05	4e-05	0.00016	0.00021	0.00029	0.00013	0	2
7811	-4e-05	1e-05	-0.0001	-0.00014	-0.0001	-0.0001	-0.00019	-9e-05	2
7812	-4e-05	1e-05	-0.0001	-0.00014	-0.0001	-0.0001	-0.00019	-9e-05	2
7813	-4e-05	1e-05	-0.0001	-0.00014	-0.0001	-0.0001	-0.00019	-9e-05	2
7814	-4e-05	1e-05	-0.0001	-0.00014	-0.0001	-0.0001	-0.00019	-9e-05	2
7815	-4e-05	1e-05	-0.0001	-0.00014	-0.0001	-0.0001	-0.00019	-9e-05	2
7816	-4e-05	1e-05	-0.0001	-0.00014	-0.0001	-0.0001	-0.00019	-9e-05	2
7817	-4e-05	1e-05	-0.0001	-0.00014	-0.0001	-0.0001	-0.00019	-9e-05	2
7818	-4e-05	1e-05	-0.0001	-0.00014	-0.0001	-0.0001	-0.00019	-9e-05	2
7819	-4e-05	1e-05	-0.0001	-0.00014	-0.0001	-0.0001	-0.00019	-9e-05	2
7820	-4e-05	1e-05	-0.0001	-0.00014	-0.0001	-0.0001	-0.00019	-9e-05	2
7821	-4e-05	1e-05	-0.0001	-0.00014	-0.0001	-0.0001	-0.00019	-9e-05	2
7822	-4e-05	1e-05	-0.0001	-0.00014	-0.0001	-0.0001	-0.00019	-9e-05	2
7823	-4e-05	1e-05	-0.0001	-0.00014	-0.0001	-0.0001	-0.00019	-9e-05	2
7824	-4e-05	1e-05	-0.0001	-0.00014	-0.0001	-0.0001	-0.00019	-9e-05	2
7825	-4e-05	1e-05	-0.0001	-0.00014	-0.0001	-0.0001	-0.00019	-9e-05	2
7826	-4e-05	1e-05	-0.0001	-0.00014	-0.0001	-0.0001	-0.00019	-9e-05	2
7827	-4e-05	1e-05	-0.0001	-0.00014	-0.0001	-0.0001	-0.00019	-9e-05	2
7828	-4e-05	1e-05	-0.0001	-0.00014	-0.0001	-0.0001	-0.00019	-9e-05	2
7829	-4e-05	1e-05	-0.0001	-0.00014	-0.0001	-0.0001	-0.00019	-9e-05	2
7830	-4e-05	1e-05	-0.0001	-0.00014	-0.0001	-0.0001	-0.00019	-9e-05	2
7831	-1e-05	-6e-05	-3e-05	0.00011	2e-05	-0.00016	2e-05	0	2
7832	-1e-05	-6e-05	-3e-05	0.00011	2e-05	-0.00016	2e-05	0	2
7833	-1e-05	-4e-05	-9e-05	4e-05	9e-05	-2e-05	2e-05	1e-05	2
7834	-1e-05	-4e-05	-9e-05	4e-05	9e-05	-2e-05	2e-05	1e-05	2
7835	-1e-05	-4e-05	-9e-05	4e-05	9e-05	-2e-05	2e-05	1e-05	2
7836	-1e-05	-4e-05	-9e-05	4e-05	9e-05	-2e-05	2e-05	1e-05	2
7838	-1e-05	-4e-05	-9e-05	4e-05	9e-05	-2e-05	2e-05	1e-05	2
7839	-1e-05	-4e-05	-9e-05	4e-05	9e-05	-2e-05	2e-05	1e-05	2
7840	-1e-05	-4e-05	-9e-05	4e-05	9e-05	-2e-05	2e-05	1e-05	2
7841	-1e-05	-4e-05	-9e-05	4e-05	9e-05	-2e-05	2e-05	1e-05	2
7842	-1e-05	-4e-05	-9e-05	4e-05	9e-05	-2e-05	2e-05	1e-05	2
7843	-1e-05	-4e-05	-9e-05	4e-05	9e-05	-2e-05	2e-05	1e-05	2
7844	-1e-05	-4e-05	-9e-05	4e-05	9e-05	-2e-05	2e-05	1e-05	2
7845	-1e-05	-4e-05	-9e-05	4e-05	9e-05	-2e-05	2e-05	1e-05	2
7846	-1e-05	-4e-05	-9e-05	4e-05	9e-05	-2e-05	2e-05	1e-05	2
7847	-1e-05	-4e-05	-9e-05	4e-05	9e-05	-2e-05	2e-05	1e-05	2
7848	-1e-05	-4e-05	-9e-05	4e-05	9e-05	-2e-05	2e-05	1e-05	2
7849	-1e-05	-4e-05	-9e-05	4e-05	9e-05	-2e-05	2e-05	1e-05	2
7850	-1e-05	-4e-05	-9e-05	4e-05	9e-05	-2e-05	2e-05	1e-05	2
7851	-1e-05	-4e-05	-9e-05	4e-05	9e-05	-2e-05	2e-05	1e-05	2
7852	-1e-05	-4e-05	-9e-05	4e-05	9e-05	-2e-05	2e-05	1e-05	2
7853	-1e-05	-4e-05	-9e-05	4e-05	9e-05	-2e-05	2e-05	1e-05	2
7854	0	2e-05	0.00015	0.00015	0.0001	0.0001	-6e-05	-8e-05	2
7855	1e-05	3e-05	0.00029	0.00011	5e-05	0.00029	8e-05	-1e-05	2
7856	1e-05	3e-05	0.00029	0.00011	5e-05	0.00029	8e-05	-1e-05	2
7857	1e-05	3e-05	0.00029	0.00011	5e-05	0.00029	8e-05	-1e-05	2
7858	1e-05	3e-05	0.00029	0.00011	5e-05	0.00029	8e-05	-1e-05	2
7859	1e-05	3e-05	0.00029	0.00011	5e-05	0.00029	8e-05	-1e-05	2
7860	1e-05	3e-05	0.00029	0.00011	5e-05	0.00029	8e-05	-1e-05	2
7861	1e-05	3e-05	0.00029	0.00011	5e-05	0.00029	8e-05	-1e-05	2
7862	1e-05	3e-05	0.00029	0.00011	5e-05	0.00029	8e-05	-1e-05	2
7863	1e-05	3e-05	0.00029	0.00011	5e-05	0.00029	8e-05	-1e-05	2
7864	1e-05	3e-05	0.00029	0.00011	5e-05	0.00029	8e-05	-1e-05	2
7865	1e-05	3e-05	0.00029	0.00011	5e-05	0.00029	8e-05	-1e-05	2
7866	1e-05	3e-05	0.00029	0.00011	5e-05	0.00029	8e-05	-1e-05	2
7867	1e-05	3e-05	0.00029	0.00011	5e-05	0.00029	8e-05	-1e-05	2
7868	1e-05	3e-05	0.00029	0.00011	5e-05	0.00029	8e-05	-1e-05	2
7869	-1e-05	-9e-05	-0.00022	-0.00012	4e-05	5e-05	2e-05	3e-05	2
7870	-1e-05	-9e-05	-0.00022	-0.00012	4e-05	5e-05	2e-05	3e-05	2
7871	-1e-05	1e-05	-4e-05	-9e-05	-8e-05	-0.00013	2e-05	1e-05	2
7872	-1e-05	1e-05	-4e-05	-9e-05	-8e-05	-0.00013	2e-05	1e-05	2
7873	-1e-05	1e-05	-4e-05	-9e-05	-8e-05	-0.00013	2e-05	1e-05	2
7874	-1e-05	1e-05	-4e-05	-9e-05	-8e-05	-0.00013	2e-05	1e-05	2
7875	-1e-05	1e-05	-4e-05	-9e-05	-8e-05	-0.00013	2e-05	1e-05	2
7876	-1e-05	1e-05	-4e-05	-9e-05	-8e-05	-0.00013	2e-05	1e-05	2
7877	-1e-05	1e-05	-4e-05	-9e-05	-8e-05	-0.00013	2e-05	1e-05	2
7878	-1e-05	1e-05	-4e-05	-9e-05	-8e-05	-0.00013	2e-05	1e-05	2
7879	-1e-05	1e-05	-4e-05	-9e-05	-8e-05	-0.00013	2e-05	1e-05	2
7880	-1e-05	1e-05	-4e-05	-9e-05	-8e-05	-0.00013	2e-05	1e-05	2
7881	-1e-05	1e-05	-4e-05	-9e-05	-8e-05	-0.00013	2e-05	1e-05	2
7882	-1e-05	1e-05	-4e-05	-9e-05	-8e-05	-0.00013	2e-05	1e-05	2
7883	-1e-05	1e-05	-4e-05	-9e-05	-8e-05	-0.00013	2e-05	1e-05	2
7884	-1e-05	1e-05	-4e-05	-9e-05	-8e-05	-0.00013	2e-05	1e-05	2
7885	-1e-05	1e-05	-4e-05	-9e-05	-8e-05	-0.00013	2e-05	1e-05	2
7886	-1e-05	1e-05	-4e-05	-9e-05	-8e-05	-0.00013	2e-05	1e-05	2
7888	-1e-05	1e-05	-4e-05	-9e-05	-8e-05	-0.00013	2e-05	1e-05	2
7889	-1e-05	1e-05	-4e-05	-9e-05	-8e-05	-0.00013	2e-05	1e-05	2
7890	-1e-05	1e-05	-4e-05	-9e-05	-8e-05	-0.00013	2e-05	1e-05	2
7891	2e-05	2e-05	0	-0.00021	-7e-05	9e-05	0	0	2
7892	2e-05	2e-05	0	-0.00021	-7e-05	9e-05	0	0	2
7893	-3e-05	-4e-05	-0.00015	-5e-05	-1e-05	-0.00041	-0.00012	-6e-05	2
7894	-3e-05	-4e-05	-0.00015	-5e-05	-1e-05	-0.00041	-0.00012	-6e-05	2
7895	-3e-05	-4e-05	-0.00015	-5e-05	-1e-05	-0.00041	-0.00012	-6e-05	2
7896	-3e-05	-4e-05	-0.00015	-5e-05	-1e-05	-0.00041	-0.00012	-6e-05	2
7897	-3e-05	-4e-05	-0.00015	-5e-05	-1e-05	-0.00041	-0.00012	-6e-05	2
7898	-3e-05	-4e-05	-0.00015	-5e-05	-1e-05	-0.00041	-0.00012	-6e-05	2
7899	-3e-05	-4e-05	-0.00015	-5e-05	-1e-05	-0.00041	-0.00012	-6e-05	2
7900	-3e-05	-4e-05	-0.00015	-5e-05	-1e-05	-0.00041	-0.00012	-6e-05	2
7901	-3e-05	-4e-05	-0.00015	-5e-05	-1e-05	-0.00041	-0.00012	-6e-05	2
7902	-3e-05	-4e-05	-0.00015	-5e-05	-1e-05	-0.00041	-0.00012	-6e-05	2
7903	-3e-05	-4e-05	-0.00015	-5e-05	-1e-05	-0.00041	-0.00012	-6e-05	2
7904	-3e-05	-4e-05	-0.00015	-5e-05	-1e-05	-0.00041	-0.00012	-6e-05	2
7905	-3e-05	-4e-05	-0.00015	-5e-05	-1e-05	-0.00041	-0.00012	-6e-05	2
7906	-1e-05	-5e-05	-5e-05	9e-05	-0.00013	-0.00011	-4e-05	1e-05	2
7907	-1e-05	-5e-05	-5e-05	9e-05	-0.00013	-0.00011	-4e-05	1e-05	2
7908	-1e-05	-5e-05	-5e-05	9e-05	-0.00013	-0.00011	-4e-05	1e-05	2
7909	-1e-05	-5e-05	-5e-05	9e-05	-0.00013	-0.00011	-4e-05	1e-05	2
7910	-1e-05	-5e-05	-5e-05	9e-05	-0.00013	-0.00011	-4e-05	1e-05	2
7911	-1e-05	-5e-05	-5e-05	9e-05	-0.00013	-0.00011	-4e-05	1e-05	2
7912	3e-05	2e-05	5e-05	0.00012	3e-05	-0.00011	0	1e-05	2
7913	3e-05	2e-05	5e-05	0.00012	3e-05	-0.00011	0	1e-05	2
7914	3e-05	2e-05	5e-05	0.00012	3e-05	-0.00011	0	1e-05	2
7915	3e-05	2e-05	5e-05	0.00012	3e-05	-0.00011	0	1e-05	2
7916	3e-05	2e-05	5e-05	0.00012	3e-05	-0.00011	0	1e-05	2
7917	3e-05	2e-05	5e-05	0.00012	3e-05	-0.00011	0	1e-05	2
7918	3e-05	2e-05	5e-05	0.00012	3e-05	-0.00011	0	1e-05	2
7919	3e-05	2e-05	5e-05	0.00012	3e-05	-0.00011	0	1e-05	2
7920	3e-05	2e-05	5e-05	0.00012	3e-05	-0.00011	0	1e-05	2
7921	3e-05	2e-05	5e-05	0.00012	3e-05	-0.00011	0	1e-05	2
7922	3e-05	2e-05	5e-05	0.00012	3e-05	-0.00011	0	1e-05	2
7923	3e-05	2e-05	5e-05	0.00012	3e-05	-0.00011	0	1e-05	2
7924	3e-05	2e-05	5e-05	0.00012	3e-05	-0.00011	0	1e-05	2
7925	3e-05	2e-05	5e-05	0.00012	3e-05	-0.00011	0	1e-05	2
7926	3e-05	2e-05	5e-05	0.00012	3e-05	-0.00011	0	1e-05	2
7927	3e-05	2e-05	5e-05	0.00012	3e-05	-0.00011	0	1e-05	2
7928	3e-05	2e-05	5e-05	0.00012	3e-05	-0.00011	0	1e-05	2
7929	3e-05	2e-05	5e-05	0.00012	3e-05	-0.00011	0	1e-05	2
7930	3e-05	2e-05	5e-05	0.00012	3e-05	-0.00011	0	1e-05	2
7931	3e-05	2e-05	5e-05	0.00012	3e-05	-0.00011	0	1e-05	2
7932	3e-05	2e-05	5e-05	0.00012	3e-05	-0.00011	0	1e-05	2
7933	3e-05	2e-05	5e-05	0.00012	3e-05	-0.00011	0	1e-05	2
7934	3e-05	2e-05	5e-05	0.00012	3e-05	-0.00011	0	1e-05	2
7935	3e-05	2e-05	5e-05	0.00012	3e-05	-0.00011	0	1e-05	2
7936	-1e-05	8e-05	0.00017	6e-05	6e-05	0.00014	0	-1e-05	2
7938	-1e-05	8e-05	0.00017	6e-05	6e-05	0.00014	0	-1e-05	2
7939	-5e-05	-8e-05	0.00014	0.00015	0	0.0002	-2e-05	-1e-05	2
7940	-5e-05	-8e-05	0.00014	0.00015	0	0.0002	-2e-05	-1e-05	2
7941	-5e-05	-8e-05	0.00014	0.00015	0	0.0002	-2e-05	-1e-05	2
7942	-5e-05	-8e-05	0.00014	0.00015	0	0.0002	-2e-05	-1e-05	2
7943	-5e-05	-8e-05	0.00014	0.00015	0	0.0002	-2e-05	-1e-05	2
7944	-5e-05	-8e-05	0.00014	0.00015	0	0.0002	-2e-05	-1e-05	2
7945	-5e-05	-8e-05	0.00014	0.00015	0	0.0002	-2e-05	-1e-05	2
7946	-5e-05	-8e-05	0.00014	0.00015	0	0.0002	-2e-05	-1e-05	2
7947	-5e-05	-8e-05	0.00014	0.00015	0	0.0002	-2e-05	-1e-05	2
7948	-5e-05	-8e-05	0.00014	0.00015	0	0.0002	-2e-05	-1e-05	2
7949	-5e-05	-8e-05	0.00014	0.00015	0	0.0002	-2e-05	-1e-05	2
7950	-5e-05	-8e-05	0.00014	0.00015	0	0.0002	-2e-05	-1e-05	2
7951	-5e-05	-8e-05	0.00014	0.00015	0	0.0002	-2e-05	-1e-05	2
7952	2e-05	4e-05	4e-05	-5e-05	-0.00012	-0.00022	1e-05	2e-05	2
7953	2e-05	4e-05	4e-05	-5e-05	-0.00012	-0.00022	1e-05	2e-05	2
7954	2e-05	4e-05	4e-05	-5e-05	-0.00012	-0.00022	1e-05	2e-05	2
7955	2e-05	4e-05	4e-05	-5e-05	-0.00012	-0.00022	1e-05	2e-05	2
7956	2e-05	4e-05	4e-05	-5e-05	-0.00012	-0.00022	1e-05	2e-05	2
7957	2e-05	4e-05	4e-05	-5e-05	-0.00012	-0.00022	1e-05	2e-05	2
7958	2e-05	4e-05	4e-05	-5e-05	-0.00012	-0.00022	1e-05	2e-05	2
7959	2e-05	4e-05	4e-05	-5e-05	-0.00012	-0.00022	1e-05	2e-05	2
7960	2e-05	4e-05	4e-05	-5e-05	-0.00012	-0.00022	1e-05	2e-05	2
7961	2e-05	4e-05	4e-05	-5e-05	-0.00012	-0.00022	1e-05	2e-05	2
7962	2e-05	4e-05	4e-05	-5e-05	-0.00012	-0.00022	1e-05	2e-05	2
7963	2e-05	4e-05	4e-05	-5e-05	-0.00012	-0.00022	1e-05	2e-05	2
7964	2e-05	4e-05	4e-05	-5e-05	-0.00012	-0.00022	1e-05	2e-05	2
7965	-4e-05	-2e-05	-8e-05	-0.00014	-2e-05	0.00031	6e-05	-1e-05	2
7966	-3e-05	-3e-05	-3e-05	-2e-05	2e-05	0.00021	4e-05	-1e-05	2
7967	-3e-05	-3e-05	-3e-05	-2e-05	2e-05	0.00021	4e-05	-1e-05	2
7968	-3e-05	-3e-05	-3e-05	-2e-05	2e-05	0.00021	4e-05	-1e-05	2
7969	-3e-05	-3e-05	-3e-05	-2e-05	2e-05	0.00021	4e-05	-1e-05	2
7970	-3e-05	-3e-05	-3e-05	-2e-05	2e-05	0.00021	4e-05	-1e-05	2
7971	-3e-05	-3e-05	-3e-05	-2e-05	2e-05	0.00021	4e-05	-1e-05	2
7972	-3e-05	-3e-05	-3e-05	-2e-05	2e-05	0.00021	4e-05	-1e-05	2
7973	-3e-05	-3e-05	-3e-05	-2e-05	2e-05	0.00021	4e-05	-1e-05	2
7974	-3e-05	-3e-05	-3e-05	-2e-05	2e-05	0.00021	4e-05	-1e-05	2
7975	-3e-05	-3e-05	-3e-05	-2e-05	2e-05	0.00021	4e-05	-1e-05	2
7976	-3e-05	-3e-05	-3e-05	-2e-05	2e-05	0.00021	4e-05	-1e-05	2
7977	-3e-05	-3e-05	-3e-05	-2e-05	2e-05	0.00021	4e-05	-1e-05	2
7978	-3e-05	-3e-05	-3e-05	-2e-05	2e-05	0.00021	4e-05	-1e-05	2
7979	-3e-05	-3e-05	-3e-05	-2e-05	2e-05	0.00021	4e-05	-1e-05	2
7980	-3e-05	-3e-05	-3e-05	-2e-05	2e-05	0.00021	4e-05	-1e-05	2
7981	-1e-05	-7e-05	-0.00011	-4e-05	-5e-05	5e-05	3e-05	4e-05	2
7982	-1e-05	-7e-05	-0.00011	-4e-05	-5e-05	5e-05	3e-05	4e-05	2
7983	-1e-05	-7e-05	-0.00011	-4e-05	-5e-05	5e-05	3e-05	4e-05	2
7984	-1e-05	-7e-05	-0.00011	-4e-05	-5e-05	5e-05	3e-05	4e-05	2
7985	-1e-05	-7e-05	-0.00011	-4e-05	-5e-05	5e-05	3e-05	4e-05	2
7986	-1e-05	-7e-05	-0.00011	-4e-05	-5e-05	5e-05	3e-05	4e-05	2
7988	-1e-05	-7e-05	-0.00011	-4e-05	-5e-05	5e-05	3e-05	4e-05	2
7989	-1e-05	-1e-05	-2e-05	-7e-05	-8e-05	-0.00024	-7e-05	-6e-05	2
7990	0	3e-05	0.00011	0.00013	6e-05	4e-05	1e-05	-4e-05	2
7991	0	3e-05	0.00011	0.00013	6e-05	4e-05	1e-05	-4e-05	2
7992	0	3e-05	0.00011	0.00013	6e-05	4e-05	1e-05	-4e-05	2
7993	0	3e-05	0.00011	0.00013	6e-05	4e-05	1e-05	-4e-05	2
7994	0	3e-05	0.00011	0.00013	6e-05	4e-05	1e-05	-4e-05	2
7995	0	3e-05	0.00011	0.00013	6e-05	4e-05	1e-05	-4e-05	2
7996	0	3e-05	0.00011	0.00013	6e-05	4e-05	1e-05	-4e-05	2
7997	0	3e-05	0.00011	0.00013	6e-05	4e-05	1e-05	-4e-05	2
7998	0	3e-05	0.00011	0.00013	6e-05	4e-05	1e-05	-4e-05	2
7999	0	3e-05	0.00011	0.00013	6e-05	4e-05	1e-05	-4e-05	2
8000	0	3e-05	0.00011	0.00013	6e-05	4e-05	1e-05	-4e-05	2
8001	0	3e-05	0.00011	0.00013	6e-05	4e-05	1e-05	-4e-05	2
8002	0	3e-05	0.00011	0.00013	6e-05	4e-05	1e-05	-4e-05	2
8003	0	3e-05	0.00011	0.00013	6e-05	4e-05	1e-05	-4e-05	2
8004	0	3e-05	0.00011	0.00013	6e-05	4e-05	1e-05	-4e-05	2
8005	0	3e-05	0.00011	0.00013	6e-05	4e-05	1e-05	-4e-05	2
8006	0	3e-05	0.00011	0.00013	6e-05	4e-05	1e-05	-4e-05	2
8007	0	3e-05	0.00011	0.00013	6e-05	4e-05	1e-05	-4e-05	2
8008	0	3e-05	0.00011	0.00013	6e-05	4e-05	1e-05	-4e-05	2
8009	0	3e-05	0.00011	0.00013	6e-05	4e-05	1e-05	-4e-05	2
8010	0	3e-05	0.00011	0.00013	6e-05	4e-05	1e-05	-4e-05	2
8011	-3e-05	-9e-05	-0.00033	0.00013	-2e-05	4e-05	2e-05	-2e-05	2
8012	-3e-05	-9e-05	-0.00033	0.00013	-2e-05	4e-05	2e-05	-2e-05	2
8013	2e-05	3e-05	4e-05	-0.00014	-1e-05	4e-05	6e-05	1e-05	2
8014	2e-05	3e-05	4e-05	-0.00014	-1e-05	4e-05	6e-05	1e-05	2
8015	2e-05	3e-05	4e-05	-0.00014	-1e-05	4e-05	6e-05	1e-05	2
8016	2e-05	3e-05	4e-05	-0.00014	-1e-05	4e-05	6e-05	1e-05	2
8017	2e-05	3e-05	4e-05	-0.00014	-1e-05	4e-05	6e-05	1e-05	2
8018	2e-05	3e-05	4e-05	-0.00014	-1e-05	4e-05	6e-05	1e-05	2
8019	2e-05	3e-05	4e-05	-0.00014	-1e-05	4e-05	6e-05	1e-05	2
8020	2e-05	3e-05	4e-05	-0.00014	-1e-05	4e-05	6e-05	1e-05	2
8021	2e-05	3e-05	4e-05	-0.00014	-1e-05	4e-05	6e-05	1e-05	2
8022	2e-05	3e-05	4e-05	-0.00014	-1e-05	4e-05	6e-05	1e-05	2
8023	2e-05	3e-05	4e-05	-0.00014	-1e-05	4e-05	6e-05	1e-05	2
8024	2e-05	3e-05	4e-05	-0.00014	-1e-05	4e-05	6e-05	1e-05	2
8025	1e-05	4e-05	0.00019	0.00027	0.00016	-8e-05	-5e-05	-1e-05	2
8026	0	-3e-05	-3e-05	-0.00015	-4e-05	-0.0003	-8e-05	0	2
8027	0	-3e-05	-3e-05	-0.00015	-4e-05	-0.0003	-8e-05	0	2
8028	0	-3e-05	-3e-05	-0.00015	-4e-05	-0.0003	-8e-05	0	2
8029	0	-3e-05	-3e-05	-0.00015	-4e-05	-0.0003	-8e-05	0	2
8030	0	-3e-05	-3e-05	-0.00015	-4e-05	-0.0003	-8e-05	0	2
8031	0	-3e-05	-3e-05	-0.00015	-4e-05	-0.0003	-8e-05	0	2
8032	0	-3e-05	-3e-05	-0.00015	-4e-05	-0.0003	-8e-05	0	2
8033	0	-3e-05	-3e-05	-0.00015	-4e-05	-0.0003	-8e-05	0	2
8034	-2e-05	0	-2e-05	-4e-05	8e-05	-0.00015	-0.00011	-5e-05	2
8035	-2e-05	0	-2e-05	-4e-05	8e-05	-0.00015	-0.00011	-5e-05	2
8036	-2e-05	0	-2e-05	-4e-05	8e-05	-0.00015	-0.00011	-5e-05	2
8038	-2e-05	0	-2e-05	-4e-05	8e-05	-0.00015	-0.00011	-5e-05	2
8039	-2e-05	0	-2e-05	-4e-05	8e-05	-0.00015	-0.00011	-5e-05	2
8040	-2e-05	0	-2e-05	-4e-05	8e-05	-0.00015	-0.00011	-5e-05	2
8041	-2e-05	0	-2e-05	-4e-05	8e-05	-0.00015	-0.00011	-5e-05	2
8042	-2e-05	0	-2e-05	-4e-05	8e-05	-0.00015	-0.00011	-5e-05	2
8043	-2e-05	0	-2e-05	-4e-05	8e-05	-0.00015	-0.00011	-5e-05	2
8044	-2e-05	0	-2e-05	-4e-05	8e-05	-0.00015	-0.00011	-5e-05	2
8045	-2e-05	0	-2e-05	-4e-05	8e-05	-0.00015	-0.00011	-5e-05	2
8046	-2e-05	0	-2e-05	-4e-05	8e-05	-0.00015	-0.00011	-5e-05	2
8047	-2e-05	0	-2e-05	-4e-05	8e-05	-0.00015	-0.00011	-5e-05	2
8048	-2e-05	0	-2e-05	-4e-05	8e-05	-0.00015	-0.00011	-5e-05	2
8049	3e-05	4e-05	0.00024	0.00024	0.00022	0.00023	4e-05	3e-05	2
8050	3e-05	4e-05	0.00024	0.00024	0.00022	0.00023	4e-05	3e-05	2
8051	-1e-05	-6e-05	-7e-05	9e-05	0.00016	0.00065	0.0001	8e-05	2
8052	-1e-05	-6e-05	-7e-05	9e-05	0.00016	0.00065	0.0001	8e-05	2
8053	-1e-05	-6e-05	-7e-05	9e-05	0.00016	0.00065	0.0001	8e-05	2
8054	-1e-05	-6e-05	-7e-05	9e-05	0.00016	0.00065	0.0001	8e-05	2
8055	-1e-05	-6e-05	-7e-05	9e-05	0.00016	0.00065	0.0001	8e-05	2
8056	-1e-05	-6e-05	-7e-05	9e-05	0.00016	0.00065	0.0001	8e-05	2
8057	-1e-05	-6e-05	-7e-05	9e-05	0.00016	0.00065	0.0001	8e-05	2
8058	-1e-05	-6e-05	-7e-05	9e-05	0.00016	0.00065	0.0001	8e-05	2
8059	-1e-05	-6e-05	-7e-05	9e-05	0.00016	0.00065	0.0001	8e-05	2
8060	-1e-05	-6e-05	-7e-05	9e-05	0.00016	0.00065	0.0001	8e-05	2
8061	-1e-05	-6e-05	-7e-05	9e-05	0.00016	0.00065	0.0001	8e-05	2
8062	-1e-05	-6e-05	-7e-05	9e-05	0.00016	0.00065	0.0001	8e-05	2
8063	-1e-05	-6e-05	-7e-05	9e-05	0.00016	0.00065	0.0001	8e-05	2
8064	-1e-05	-6e-05	-7e-05	9e-05	0.00016	0.00065	0.0001	8e-05	2
8065	-1e-05	-6e-05	-7e-05	9e-05	0.00016	0.00065	0.0001	8e-05	2
8066	-1e-05	-6e-05	-7e-05	9e-05	0.00016	0.00065	0.0001	8e-05	2
8067	-1e-05	-6e-05	-7e-05	9e-05	0.00016	0.00065	0.0001	8e-05	2
8068	-1e-05	-6e-05	-7e-05	9e-05	0.00016	0.00065	0.0001	8e-05	2
8069	-1e-05	-6e-05	-7e-05	9e-05	0.00016	0.00065	0.0001	8e-05	2
8070	-1e-05	-6e-05	-7e-05	9e-05	0.00016	0.00065	0.0001	8e-05	2
8071	-1e-05	-6e-05	-7e-05	9e-05	0.00016	0.00065	0.0001	8e-05	2
8072	-4e-05	0	8e-05	8e-05	6e-05	0.00029	0.00016	0.0001	2
8073	-3e-05	3e-05	-5e-05	-9e-05	-4e-05	-2e-05	1e-05	2e-05	2
8074	-3e-05	3e-05	-5e-05	-9e-05	-4e-05	-2e-05	1e-05	2e-05	2
8075	-3e-05	3e-05	-5e-05	-9e-05	-4e-05	-2e-05	1e-05	2e-05	2
8076	-3e-05	3e-05	-5e-05	-9e-05	-4e-05	-2e-05	1e-05	2e-05	2
8077	-3e-05	3e-05	-5e-05	-9e-05	-4e-05	-2e-05	1e-05	2e-05	2
8078	-3e-05	3e-05	-5e-05	-9e-05	-4e-05	-2e-05	1e-05	2e-05	2
8079	-3e-05	3e-05	-5e-05	-9e-05	-4e-05	-2e-05	1e-05	2e-05	2
8080	-3e-05	3e-05	-5e-05	-9e-05	-4e-05	-2e-05	1e-05	2e-05	2
8081	-3e-05	3e-05	-5e-05	-9e-05	-4e-05	-2e-05	1e-05	2e-05	2
8082	-3e-05	3e-05	-5e-05	-9e-05	-4e-05	-2e-05	1e-05	2e-05	2
8083	-3e-05	3e-05	-5e-05	-9e-05	-4e-05	-2e-05	1e-05	2e-05	2
8084	-3e-05	3e-05	-5e-05	-9e-05	-4e-05	-2e-05	1e-05	2e-05	2
8085	-1e-05	-2e-05	-4e-05	-5e-05	-3e-05	0.00023	-3e-05	1e-05	2
8086	-1e-05	-2e-05	-4e-05	-5e-05	-3e-05	0.00023	-3e-05	1e-05	2
8088	-1e-05	-2e-05	-4e-05	-5e-05	-3e-05	0.00023	-3e-05	1e-05	2
8089	-1e-05	-2e-05	-4e-05	-5e-05	-3e-05	0.00023	-3e-05	1e-05	2
8090	-1e-05	-2e-05	-4e-05	-5e-05	-3e-05	0.00023	-3e-05	1e-05	2
8091	-1e-05	-2e-05	-4e-05	-5e-05	-3e-05	0.00023	-3e-05	1e-05	2
8092	-1e-05	-2e-05	-4e-05	-5e-05	-3e-05	0.00023	-3e-05	1e-05	2
8093	-1e-05	-2e-05	-4e-05	-5e-05	-3e-05	0.00023	-3e-05	1e-05	2
47254	-4e-05	-6e-05	-0.00016	-0.00014	-0.00011	-0.00011	-9e-05	-6e-05	2
47255	-4e-05	-6e-05	-0.00016	-0.00014	-0.00011	-0.00011	-9e-05	-6e-05	2
47256	-4e-05	-6e-05	-0.00016	-0.00014	-0.00011	-0.00011	-9e-05	-6e-05	2
47257	-4e-05	-6e-05	-0.00016	-0.00014	-0.00011	-0.00011	-9e-05	-6e-05	2
47258	-4e-05	-6e-05	-0.00016	-0.00014	-0.00011	-0.00011	-9e-05	-6e-05	2
47259	-4e-05	-6e-05	-0.00016	-0.00014	-0.00011	-0.00011	-9e-05	-6e-05	2
47260	-4e-05	-6e-05	-0.00016	-0.00014	-0.00011	-0.00011	-9e-05	-6e-05	2
47261	-4e-05	-6e-05	-0.00016	-0.00014	-0.00011	-0.00011	-9e-05	-6e-05	2
47262	-4e-05	-6e-05	-0.00016	-0.00014	-0.00011	-0.00011	-9e-05	-6e-05	2
47263	-4e-05	-6e-05	-0.00016	-0.00014	-0.00011	-0.00011	-9e-05	-6e-05	2
47264	-4e-05	-6e-05	-0.00016	-0.00014	-0.00011	-0.00011	-9e-05	-6e-05	2
47265	-4e-05	-6e-05	-0.00016	-0.00014	-0.00011	-0.00011	-9e-05	-6e-05	2
47266	-4e-05	-6e-05	-0.00016	-0.00014	-0.00011	-0.00011	-9e-05	-6e-05	2
47267	-4e-05	-6e-05	-0.00016	-0.00014	-0.00011	-0.00011	-9e-05	-6e-05	2
47268	-4e-05	-6e-05	-0.00016	-0.00014	-0.00011	-0.00011	-9e-05	-6e-05	2
47269	-4e-05	-6e-05	-0.00016	-0.00014	-0.00011	-0.00011	-9e-05	-6e-05	2
47270	-4e-05	-6e-05	-0.00016	-0.00014	-0.00011	-0.00011	-9e-05	-6e-05	2
47271	-4e-05	-6e-05	-0.00016	-0.00014	-0.00011	-0.00011	-9e-05	-6e-05	2
47272	-4e-05	-6e-05	-0.00016	-0.00014	-0.00011	-0.00011	-9e-05	-6e-05	2
47273	-2e-05	-5e-05	-6e-05	-1e-05	-2e-05	-2e-05	-1e-05	-2e-05	2
47274	0	-7e-05	-0.00014	-2e-05	1e-05	0.00038	0.0001	7e-05	2
47275	0	-7e-05	-0.00014	-2e-05	1e-05	0.00038	0.0001	7e-05	2
47276	0	-7e-05	-0.00014	-2e-05	1e-05	0.00038	0.0001	7e-05	2
47277	0	-7e-05	-0.00014	-2e-05	1e-05	0.00038	0.0001	7e-05	2
47278	0	-7e-05	-0.00014	-2e-05	1e-05	0.00038	0.0001	7e-05	2
47279	0	-7e-05	-0.00014	-2e-05	1e-05	0.00038	0.0001	7e-05	2
47280	0	-7e-05	-0.00014	-2e-05	1e-05	0.00038	0.0001	7e-05	2
47281	0	-7e-05	-0.00014	-2e-05	1e-05	0.00038	0.0001	7e-05	2
47282	0	-7e-05	-0.00014	-2e-05	1e-05	0.00038	0.0001	7e-05	2
47283	0	-7e-05	-0.00014	-2e-05	1e-05	0.00038	0.0001	7e-05	2
47284	0	-7e-05	-0.00014	-2e-05	1e-05	0.00038	0.0001	7e-05	2
47285	0	-7e-05	-0.00014	-2e-05	1e-05	0.00038	0.0001	7e-05	2
47286	0	-7e-05	-0.00014	-2e-05	1e-05	0.00038	0.0001	7e-05	2
47288	-2e-05	-4e-05	0.00015	0.00022	-8e-05	9e-05	3e-05	-1e-05	2
47289	-2e-05	-4e-05	0.00015	0.00022	-8e-05	9e-05	3e-05	-1e-05	2
47290	-2e-05	-4e-05	0.00015	0.00022	-8e-05	9e-05	3e-05	-1e-05	2
47291	-2e-05	-4e-05	0.00015	0.00022	-8e-05	9e-05	3e-05	-1e-05	2
47292	-2e-05	-4e-05	0.00015	0.00022	-8e-05	9e-05	3e-05	-1e-05	2
47293	-2e-05	-4e-05	0.00015	0.00022	-8e-05	9e-05	3e-05	-1e-05	2
47294	-2e-05	-4e-05	0.00015	0.00022	-8e-05	9e-05	3e-05	-1e-05	2
47295	-2e-05	-4e-05	0.00015	0.00022	-8e-05	9e-05	3e-05	-1e-05	2
47296	-2e-05	-4e-05	0.00015	0.00022	-8e-05	9e-05	3e-05	-1e-05	2
47297	-2e-05	-1e-05	4e-05	-3e-05	-2e-05	3e-05	1e-05	-4e-05	2
47299	-2e-05	-1e-05	4e-05	-3e-05	-2e-05	3e-05	1e-05	-4e-05	2
47300	-2e-05	-1e-05	4e-05	-3e-05	-2e-05	3e-05	1e-05	-4e-05	2
47301	-2e-05	-1e-05	4e-05	-3e-05	-2e-05	3e-05	1e-05	-4e-05	2
47302	-2e-05	-1e-05	4e-05	-3e-05	-2e-05	3e-05	1e-05	-4e-05	2
47303	-2e-05	-1e-05	4e-05	-3e-05	-2e-05	3e-05	1e-05	-4e-05	2
47304	-2e-05	-1e-05	4e-05	-3e-05	-2e-05	3e-05	1e-05	-4e-05	2
47305	-2e-05	-1e-05	4e-05	-3e-05	-2e-05	3e-05	1e-05	-4e-05	2
47306	-2e-05	-1e-05	4e-05	-3e-05	-2e-05	3e-05	1e-05	-4e-05	2
47307	-2e-05	-1e-05	4e-05	-3e-05	-2e-05	3e-05	1e-05	-4e-05	2
47308	-2e-05	-1e-05	4e-05	-3e-05	-2e-05	3e-05	1e-05	-4e-05	2
47309	-2e-05	-1e-05	4e-05	-3e-05	-2e-05	3e-05	1e-05	-4e-05	2
47310	-2e-05	-1e-05	4e-05	-3e-05	-2e-05	3e-05	1e-05	-4e-05	2
47311	1e-05	0	-0.00024	-0.00011	0	0.00024	7e-05	-1e-05	2
47312	1e-05	0	-0.00024	-0.00011	0	0.00024	7e-05	-1e-05	2
47313	1e-05	0	-0.00024	-0.00011	0	0.00024	7e-05	-1e-05	2
47314	1e-05	0	-0.00024	-0.00011	0	0.00024	7e-05	-1e-05	2
47315	1e-05	0	-0.00024	-0.00011	0	0.00024	7e-05	-1e-05	2
47316	1e-05	0	-0.00024	-0.00011	0	0.00024	7e-05	-1e-05	2
47317	1e-05	0	-0.00024	-0.00011	0	0.00024	7e-05	-1e-05	2
47318	1e-05	0	-0.00024	-0.00011	0	0.00024	7e-05	-1e-05	2
47319	1e-05	0	-0.00024	-0.00011	0	0.00024	7e-05	-1e-05	2
47320	1e-05	0	-0.00024	-0.00011	0	0.00024	7e-05	-1e-05	2
47321	1e-05	0	-0.00024	-0.00011	0	0.00024	7e-05	-1e-05	2
47322	1e-05	0	-0.00024	-0.00011	0	0.00024	7e-05	-1e-05	2
47323	1e-05	0	-0.00024	-0.00011	0	0.00024	7e-05	-1e-05	2
47324	1e-05	0	-0.00024	-0.00011	0	0.00024	7e-05	-1e-05	2
47325	1e-05	0	-0.00024	-0.00011	0	0.00024	7e-05	-1e-05	2
47326	1e-05	0	-0.00024	-0.00011	0	0.00024	7e-05	-1e-05	2
47327	1e-05	0	-0.00024	-0.00011	0	0.00024	7e-05	-1e-05	2
47328	1e-05	0	-0.00024	-0.00011	0	0.00024	7e-05	-1e-05	2
47329	1e-05	0	-0.00024	-0.00011	0	0.00024	7e-05	-1e-05	2
47330	1e-05	0	-0.00024	-0.00011	0	0.00024	7e-05	-1e-05	2
47331	1e-05	0	-0.00024	-0.00011	0	0.00024	7e-05	-1e-05	2
47332	1e-05	0	-0.00024	-0.00011	0	0.00024	7e-05	-1e-05	2
47333	-1e-05	1e-05	-3e-05	-0.00011	9e-05	0.00032	9e-05	0	2
47334	0	1e-05	3e-05	-7e-05	8e-05	0.00042	5e-05	3e-05	2
47335	0	1e-05	3e-05	-7e-05	8e-05	0.00042	5e-05	3e-05	2
47336	0	1e-05	3e-05	-7e-05	8e-05	0.00042	5e-05	3e-05	2
47338	0	1e-05	3e-05	-7e-05	8e-05	0.00042	5e-05	3e-05	2
47339	0	1e-05	3e-05	-7e-05	8e-05	0.00042	5e-05	3e-05	2
47340	0	1e-05	3e-05	-7e-05	8e-05	0.00042	5e-05	3e-05	2
47341	0	1e-05	3e-05	-7e-05	8e-05	0.00042	5e-05	3e-05	2
47342	0	1e-05	3e-05	-7e-05	8e-05	0.00042	5e-05	3e-05	2
47343	0	1e-05	3e-05	-7e-05	8e-05	0.00042	5e-05	3e-05	2
47344	0	1e-05	3e-05	-7e-05	8e-05	0.00042	5e-05	3e-05	2
47345	0	1e-05	3e-05	-7e-05	8e-05	0.00042	5e-05	3e-05	2
47346	0	1e-05	3e-05	-7e-05	8e-05	0.00042	5e-05	3e-05	2
47347	0	1e-05	3e-05	-7e-05	8e-05	0.00042	5e-05	3e-05	2
47348	2e-05	2e-05	8e-05	0.00011	4e-05	-0.00056	-0.00011	-6e-05	2
47349	2e-05	2e-05	8e-05	0.00011	4e-05	-0.00056	-0.00011	-6e-05	2
47350	2e-05	2e-05	8e-05	0.00011	4e-05	-0.00056	-0.00011	-6e-05	2
47351	2e-05	2e-05	8e-05	0.00011	4e-05	-0.00056	-0.00011	-6e-05	2
47352	2e-05	2e-05	8e-05	0.00011	4e-05	-0.00056	-0.00011	-6e-05	2
47353	2e-05	2e-05	8e-05	0.00011	4e-05	-0.00056	-0.00011	-6e-05	2
47354	2e-05	2e-05	8e-05	0.00011	4e-05	-0.00056	-0.00011	-6e-05	2
47355	2e-05	2e-05	8e-05	0.00011	4e-05	-0.00056	-0.00011	-6e-05	2
47356	-3e-05	2e-05	0.00012	5e-05	0.0001	9e-05	3e-05	-1e-05	2
47357	-3e-05	2e-05	0.00012	5e-05	0.0001	9e-05	3e-05	-1e-05	2
47358	-3e-05	2e-05	0.00012	5e-05	0.0001	9e-05	3e-05	-1e-05	2
47359	-3e-05	2e-05	0.00012	5e-05	0.0001	9e-05	3e-05	-1e-05	2
47360	-3e-05	2e-05	0.00012	5e-05	0.0001	9e-05	3e-05	-1e-05	2
47361	-3e-05	2e-05	0.00012	5e-05	0.0001	9e-05	3e-05	-1e-05	2
47362	-3e-05	2e-05	0.00012	5e-05	0.0001	9e-05	3e-05	-1e-05	2
47363	-3e-05	2e-05	0.00012	5e-05	0.0001	9e-05	3e-05	-1e-05	2
47364	-3e-05	2e-05	0.00012	5e-05	0.0001	9e-05	3e-05	-1e-05	2
47365	-3e-05	2e-05	0.00012	5e-05	0.0001	9e-05	3e-05	-1e-05	2
47366	-3e-05	2e-05	0.00012	5e-05	0.0001	9e-05	3e-05	-1e-05	2
47367	-3e-05	2e-05	0.00012	5e-05	0.0001	9e-05	3e-05	-1e-05	2
47368	-3e-05	2e-05	0.00012	5e-05	0.0001	9e-05	3e-05	-1e-05	2
47369	-3e-05	2e-05	0.00012	5e-05	0.0001	9e-05	3e-05	-1e-05	2
47370	-3e-05	2e-05	0.00012	5e-05	0.0001	9e-05	3e-05	-1e-05	2
47371	2e-05	5e-05	6e-05	0.00013	8e-05	-0.00038	4e-05	4e-05	2
47372	-1e-05	-8e-05	-0.00026	-0.00021	-2e-05	-0.00035	-0.00015	-3e-05	2
47373	-1e-05	-8e-05	-0.00026	-0.00021	-2e-05	-0.00035	-0.00015	-3e-05	2
47374	-1e-05	-8e-05	-0.00026	-0.00021	-2e-05	-0.00035	-0.00015	-3e-05	2
47375	-1e-05	-8e-05	-0.00026	-0.00021	-2e-05	-0.00035	-0.00015	-3e-05	2
47376	-1e-05	-8e-05	-0.00026	-0.00021	-2e-05	-0.00035	-0.00015	-3e-05	2
47377	-1e-05	-8e-05	-0.00026	-0.00021	-2e-05	-0.00035	-0.00015	-3e-05	2
47378	-1e-05	-8e-05	-0.00026	-0.00021	-2e-05	-0.00035	-0.00015	-3e-05	2
47379	-1e-05	-8e-05	-0.00026	-0.00021	-2e-05	-0.00035	-0.00015	-3e-05	2
47380	-1e-05	-8e-05	-0.00026	-0.00021	-2e-05	-0.00035	-0.00015	-3e-05	2
47381	-1e-05	-8e-05	-0.00026	-0.00021	-2e-05	-0.00035	-0.00015	-3e-05	2
47382	-1e-05	-8e-05	-0.00026	-0.00021	-2e-05	-0.00035	-0.00015	-3e-05	2
47383	-1e-05	-8e-05	-0.00026	-0.00021	-2e-05	-0.00035	-0.00015	-3e-05	2
47384	-1e-05	-8e-05	-0.00026	-0.00021	-2e-05	-0.00035	-0.00015	-3e-05	2
47385	-1e-05	-8e-05	-0.00026	-0.00021	-2e-05	-0.00035	-0.00015	-3e-05	2
47386	-1e-05	-8e-05	-0.00026	-0.00021	-2e-05	-0.00035	-0.00015	-3e-05	2
47388	-1e-05	-8e-05	-0.00026	-0.00021	-2e-05	-0.00035	-0.00015	-3e-05	2
47389	-1e-05	-8e-05	-0.00026	-0.00021	-2e-05	-0.00035	-0.00015	-3e-05	2
47390	-1e-05	-8e-05	-0.00026	-0.00021	-2e-05	-0.00035	-0.00015	-3e-05	2
47391	-1e-05	-8e-05	-0.00026	-0.00021	-2e-05	-0.00035	-0.00015	-3e-05	2
47392	-1e-05	-8e-05	-0.00026	-0.00021	-2e-05	-0.00035	-0.00015	-3e-05	2
47393	-4e-05	-1e-05	6e-05	-5e-05	-0.00012	4e-05	-5e-05	-7e-05	2
47394	-1e-05	2e-05	0.00012	9e-05	4e-05	-0.0003	-2e-05	-1e-05	2
47395	-1e-05	2e-05	0.00012	9e-05	4e-05	-0.0003	-2e-05	-1e-05	2
47396	-1e-05	2e-05	0.00012	9e-05	4e-05	-0.0003	-2e-05	-1e-05	2
47397	-1e-05	2e-05	0.00012	9e-05	4e-05	-0.0003	-2e-05	-1e-05	2
47398	-1e-05	2e-05	0.00012	9e-05	4e-05	-0.0003	-2e-05	-1e-05	2
47399	-1e-05	2e-05	0.00012	9e-05	4e-05	-0.0003	-2e-05	-1e-05	2
47400	-1e-05	2e-05	0.00012	9e-05	4e-05	-0.0003	-2e-05	-1e-05	2
47401	-1e-05	2e-05	0.00012	9e-05	4e-05	-0.0003	-2e-05	-1e-05	2
47402	-1e-05	2e-05	0.00012	9e-05	4e-05	-0.0003	-2e-05	-1e-05	2
47403	-1e-05	2e-05	0.00012	9e-05	4e-05	-0.0003	-2e-05	-1e-05	2
47404	-1e-05	2e-05	0.00012	9e-05	4e-05	-0.0003	-2e-05	-1e-05	2
47405	-1e-05	2e-05	0.00012	9e-05	4e-05	-0.0003	-2e-05	-1e-05	2
47406	-1e-05	2e-05	0.00012	9e-05	4e-05	-0.0003	-2e-05	-1e-05	2
47407	-1e-05	2e-05	0.00012	9e-05	4e-05	-0.0003	-2e-05	-1e-05	2
47408	-1e-05	2e-05	0.00012	9e-05	4e-05	-0.0003	-2e-05	-1e-05	2
47409	-1e-05	2e-05	0.00012	9e-05	4e-05	-0.0003	-2e-05	-1e-05	2
47410	-1e-05	2e-05	0.00012	9e-05	4e-05	-0.0003	-2e-05	-1e-05	2
47411	-1e-05	2e-05	0.00012	9e-05	4e-05	-0.0003	-2e-05	-1e-05	2
47412	-1e-05	2e-05	0.00012	9e-05	4e-05	-0.0003	-2e-05	-1e-05	2
47413	-1e-05	2e-05	0.00012	9e-05	4e-05	-0.0003	-2e-05	-1e-05	2
47414	-1e-05	2e-05	0.00012	9e-05	4e-05	-0.0003	-2e-05	-1e-05	2
47415	-1e-05	2e-05	0.00012	9e-05	4e-05	-0.0003	-2e-05	-1e-05	2
47416	-1e-05	2e-05	0.00012	9e-05	4e-05	-0.0003	-2e-05	-1e-05	2
47417	2e-05	4e-05	0.00015	6e-05	-3e-05	-0.00012	-6e-05	-3e-05	2
47418	2e-05	4e-05	0.00015	6e-05	-3e-05	-0.00012	-6e-05	-3e-05	2
47419	2e-05	4e-05	0.00015	6e-05	-3e-05	-0.00012	-6e-05	-3e-05	2
47420	2e-05	4e-05	0.00015	6e-05	-3e-05	-0.00012	-6e-05	-3e-05	2
47421	2e-05	4e-05	0.00015	6e-05	-3e-05	-0.00012	-6e-05	-3e-05	2
47422	2e-05	4e-05	0.00015	6e-05	-3e-05	-0.00012	-6e-05	-3e-05	2
47423	2e-05	4e-05	0.00015	6e-05	-3e-05	-0.00012	-6e-05	-3e-05	2
47424	2e-05	4e-05	0.00015	6e-05	-3e-05	-0.00012	-6e-05	-3e-05	2
47425	2e-05	4e-05	0.00015	6e-05	-3e-05	-0.00012	-6e-05	-3e-05	2
47426	2e-05	4e-05	0.00015	6e-05	-3e-05	-0.00012	-6e-05	-3e-05	2
47427	2e-05	4e-05	0.00015	6e-05	-3e-05	-0.00012	-6e-05	-3e-05	2
47428	2e-05	4e-05	0.00015	6e-05	-3e-05	-0.00012	-6e-05	-3e-05	2
47429	2e-05	4e-05	0.00015	6e-05	-3e-05	-0.00012	-6e-05	-3e-05	2
47430	2e-05	4e-05	0.00015	6e-05	-3e-05	-0.00012	-6e-05	-3e-05	2
47431	-1e-05	-3e-05	-0.00016	4e-05	-4e-05	-0.0001	-4e-05	-3e-05	2
47432	1e-05	-1e-05	-5e-05	-7e-05	-9e-05	-0.00055	-0.00012	2e-05	2
47433	1e-05	-1e-05	-5e-05	-7e-05	-9e-05	-0.00055	-0.00012	2e-05	2
47434	1e-05	-1e-05	-5e-05	-7e-05	-9e-05	-0.00055	-0.00012	2e-05	2
47435	1e-05	-1e-05	-5e-05	-7e-05	-9e-05	-0.00055	-0.00012	2e-05	2
47436	1e-05	-1e-05	-5e-05	-7e-05	-9e-05	-0.00055	-0.00012	2e-05	2
47438	1e-05	-1e-05	-5e-05	-7e-05	-9e-05	-0.00055	-0.00012	2e-05	2
47439	1e-05	-1e-05	-5e-05	-7e-05	-9e-05	-0.00055	-0.00012	2e-05	2
47440	1e-05	-1e-05	-5e-05	-7e-05	-9e-05	-0.00055	-0.00012	2e-05	2
47441	1e-05	-1e-05	-5e-05	-7e-05	-9e-05	-0.00055	-0.00012	2e-05	2
47442	1e-05	-1e-05	-5e-05	-7e-05	-9e-05	-0.00055	-0.00012	2e-05	2
47443	1e-05	-1e-05	-5e-05	-7e-05	-9e-05	-0.00055	-0.00012	2e-05	2
47444	1e-05	-1e-05	-5e-05	-7e-05	-9e-05	-0.00055	-0.00012	2e-05	2
47445	1e-05	-1e-05	-5e-05	-7e-05	-9e-05	-0.00055	-0.00012	2e-05	2
47446	1e-05	-1e-05	-5e-05	-7e-05	-9e-05	-0.00055	-0.00012	2e-05	2
47447	1e-05	-1e-05	-5e-05	-7e-05	-9e-05	-0.00055	-0.00012	2e-05	2
47448	1e-05	-1e-05	-5e-05	-7e-05	-9e-05	-0.00055	-0.00012	2e-05	2
47449	1e-05	-1e-05	-5e-05	-7e-05	-9e-05	-0.00055	-0.00012	2e-05	2
47450	1e-05	-1e-05	-5e-05	-7e-05	-9e-05	-0.00055	-0.00012	2e-05	2
47451	1e-05	-1e-05	-5e-05	-7e-05	-9e-05	-0.00055	-0.00012	2e-05	2
47452	1e-05	-1e-05	-5e-05	-7e-05	-9e-05	-0.00055	-0.00012	2e-05	2
47453	0	-8e-05	-6e-05	0.00011	0.00016	-0.00014	-7e-05	1e-05	2
47454	-1e-05	3e-05	-5e-05	-3e-05	0.00018	0.00024	2e-05	-1e-05	2
47455	-1e-05	3e-05	-5e-05	-3e-05	0.00018	0.00024	2e-05	-1e-05	2
47456	-1e-05	3e-05	-5e-05	-3e-05	0.00018	0.00024	2e-05	-1e-05	2
47457	-1e-05	3e-05	-5e-05	-3e-05	0.00018	0.00024	2e-05	-1e-05	2
47458	-1e-05	3e-05	-5e-05	-3e-05	0.00018	0.00024	2e-05	-1e-05	2
47459	-1e-05	3e-05	-5e-05	-3e-05	0.00018	0.00024	2e-05	-1e-05	2
47460	-1e-05	3e-05	-5e-05	-3e-05	0.00018	0.00024	2e-05	-1e-05	2
47461	-1e-05	3e-05	-5e-05	-3e-05	0.00018	0.00024	2e-05	-1e-05	2
