4678	-0.00022	-2e-05	1e-05	-7e-05	7e-05	0.00075	0.00024	-0.00013	2
4679	-0.00022	-2e-05	1e-05	-7e-05	7e-05	0.00075	0.00024	-0.00013	2
4680	-0.00022	-2e-05	1e-05	-7e-05	7e-05	0.00075	0.00024	-0.00013	2
4681	-0.00022	-2e-05	1e-05	-7e-05	7e-05	0.00075	0.00024	-0.00013	2
4683	-0.00022	-2e-05	1e-05	-7e-05	7e-05	0.00075	0.00024	-0.00013	2
4684	-0.00022	-2e-05	1e-05	-7e-05	7e-05	0.00075	0.00024	-0.00013	2
4685	-0.00022	-2e-05	1e-05	-7e-05	7e-05	0.00075	0.00024	-0.00013	2
4687	-0.00022	-2e-05	1e-05	-7e-05	7e-05	0.00075	0.00024	-0.00013	2
4689	-0.00022	-2e-05	1e-05	-7e-05	7e-05	0.00075	0.00024	-0.00013	2
4690	0.00011	-4e-05	-0.00036	-0.00111	0.0003	0.00093	0.00127	4e-05	2
4691	-0.00015	-1e-05	7e-05	1e-05	-0.00011	-0.00041	-0.00059	5e-05	2
4692	-0.00015	-1e-05	7e-05	1e-05	-0.00011	-0.00041	-0.00059	5e-05	2
4693	-0.00015	-1e-05	7e-05	1e-05	-0.00011	-0.00041	-0.00059	5e-05	2
4694	-0.00015	-1e-05	7e-05	1e-05	-0.00011	-0.00041	-0.00059	5e-05	2
4695	-0.00015	-1e-05	7e-05	1e-05	-0.00011	-0.00041	-0.00059	5e-05	2
4696	-0.00015	-1e-05	7e-05	1e-05	-0.00011	-0.00041	-0.00059	5e-05	2
4697	-0.00015	-1e-05	7e-05	1e-05	-0.00011	-0.00041	-0.00059	5e-05	2
4698	-0.00015	-1e-05	7e-05	1e-05	-0.00011	-0.00041	-0.00059	5e-05	2
4699	-0.00015	-1e-05	7e-05	1e-05	-0.00011	-0.00041	-0.00059	5e-05	2
4700	-0.00015	-1e-05	7e-05	1e-05	-0.00011	-0.00041	-0.00059	5e-05	2
4701	-0.00015	-1e-05	7e-05	1e-05	-0.00011	-0.00041	-0.00059	5e-05	2
4702	-0.00015	-1e-05	7e-05	1e-05	-0.00011	-0.00041	-0.00059	5e-05	2
4703	-0.00015	-1e-05	7e-05	1e-05	-0.00011	-0.00041	-0.00059	5e-05	2
4704	-3e-05	-0.00015	-0.00048	-0.00116	-0.00025	-0.00042	-0.0001	-6e-05	2
4705	0.00011	4e-05	0.00011	0	0.00012	0.00035	0.00091	0.00016	2
4706	0.00011	4e-05	0.00011	0	0.00012	0.00035	0.00091	0.00016	2
4707	0.00011	4e-05	0.00011	0	0.00012	0.00035	0.00091	0.00016	2
4708	0.00011	4e-05	0.00011	0	0.00012	0.00035	0.00091	0.00016	2
4709	0.00011	4e-05	0.00011	0	0.00012	0.00035	0.00091	0.00016	2
4710	0.00011	4e-05	0.00011	0	0.00012	0.00035	0.00091	0.00016	2
4711	0.00011	4e-05	0.00011	0	0.00012	0.00035	0.00091	0.00016	2
4712	0.00011	4e-05	0.00011	0	0.00012	0.00035	0.00091	0.00016	2
4713	0.00011	4e-05	0.00011	0	0.00012	0.00035	0.00091	0.00016	2
4714	0.00011	4e-05	0.00011	0	0.00012	0.00035	0.00091	0.00016	2
4715	0.00011	4e-05	0.00011	0	0.00012	0.00035	0.00091	0.00016	2
4716	0.00011	4e-05	0.00011	0	0.00012	0.00035	0.00091	0.00016	2
4717	0.00011	4e-05	0.00011	0	0.00012	0.00035	0.00091	0.00016	2
4718	0.00011	4e-05	0.00011	0	0.00012	0.00035	0.00091	0.00016	2
4719	0.00011	4e-05	0.00011	0	0.00012	0.00035	0.00091	0.00016	2
4720	0.00011	4e-05	0.00011	0	0.00012	0.00035	0.00091	0.00016	2
4721	0.00011	4e-05	0.00011	0	0.00012	0.00035	0.00091	0.00016	2
4722	0.00011	4e-05	0.00011	0	0.00012	0.00035	0.00091	0.00016	2
4723	0.00011	4e-05	0.00011	0	0.00012	0.00035	0.00091	0.00016	2
4724	0.00011	4e-05	0.00011	0	0.00012	0.00035	0.00091	0.00016	2
4725	0.00011	4e-05	0.00011	0	0.00012	0.00035	0.00091	0.00016	2
4726	0.00011	4e-05	0.00011	0	0.00012	0.00035	0.00091	0.00016	2
4727	-0.0001	-0.00013	-0.00026	-0.00081	-3e-05	0.00015	-7e-05	-0.00013	2
4728	-0.0001	-0.00013	-0.00026	-0.00081	-3e-05	0.00015	-7e-05	-0.00013	2
4729	-0.0001	-0.00013	-0.00026	-0.00081	-3e-05	0.00015	-7e-05	-0.00013	2
4730	-0.0001	-0.00013	-0.00026	-0.00081	-3e-05	0.00015	-7e-05	-0.00013	2
4731	-0.0001	-0.00013	-0.00026	-0.00081	-3e-05	0.00015	-7e-05	-0.00013	2
4732	-0.0001	-0.00013	-0.00026	-0.00081	-3e-05	0.00015	-7e-05	-0.00013	2
4733	-0.0001	-0.00013	-0.00026	-0.00081	-3e-05	0.00015	-7e-05	-0.00013	2
4734	-0.0001	-0.00013	-0.00026	-0.00081	-3e-05	0.00015	-7e-05	-0.00013	2
4735	-0.0001	-0.00013	-0.00026	-0.00081	-3e-05	0.00015	-7e-05	-0.00013	2
4737	-0.0001	-0.00013	-0.00026	-0.00081	-3e-05	0.00015	-7e-05	-0.00013	2
4739	-0.0001	-0.00013	-0.00026	-0.00081	-3e-05	0.00015	-7e-05	-0.00013	2
4740	-0.0001	-0.00013	-0.00026	-0.00081	-3e-05	0.00015	-7e-05	-0.00013	2
4741	-0.0001	-0.00013	-0.00026	-0.00081	-3e-05	0.00015	-7e-05	-0.00013	2
4743	-0.0001	-0.00013	-0.00026	-0.00081	-3e-05	0.00015	-7e-05	-0.00013	2
4744	-0.0001	-0.00013	-0.00026	-0.00081	-3e-05	0.00015	-7e-05	-0.00013	2
4745	-0.0001	-0.00013	-0.00026	-0.00081	-3e-05	0.00015	-7e-05	-0.00013	2
4746	-0.0001	-0.00013	-0.00026	-0.00081	-3e-05	0.00015	-7e-05	-0.00013	2
4747	-0.0001	-0.00013	-0.00026	-0.00081	-3e-05	0.00015	-7e-05	-0.00013	2
4748	-0.0001	-0.00013	-0.00026	-0.00081	-3e-05	0.00015	-7e-05	-0.00013	2
4749	-0.0001	-0.00013	-0.00026	-0.00081	-3e-05	0.00015	-7e-05	-0.00013	2
4750	-1e-05	0	0.00013	0.00011	-9e-05	0.0006	0.00039	-2e-05	2
4751	-1e-05	0	0.00013	0.00011	-9e-05	0.0006	0.00039	-2e-05	2
4752	-1e-05	0	0.00013	0.00011	-9e-05	0.0006	0.00039	-2e-05	2
4753	-1e-05	0	0.00013	0.00011	-9e-05	0.0006	0.00039	-2e-05	2
4754	-1e-05	0	0.00013	0.00011	-9e-05	0.0006	0.00039	-2e-05	2
4755	-1e-05	0	0.00013	0.00011	-9e-05	0.0006	0.00039	-2e-05	2
4756	-1e-05	0	0.00013	0.00011	-9e-05	0.0006	0.00039	-2e-05	2
4757	-1e-05	0	0.00013	0.00011	-9e-05	0.0006	0.00039	-2e-05	2
4758	-1e-05	0	0.00013	0.00011	-9e-05	0.0006	0.00039	-2e-05	2
4759	-1e-05	0	0.00013	0.00011	-9e-05	0.0006	0.00039	-2e-05	2
4760	-1e-05	0	0.00013	0.00011	-9e-05	0.0006	0.00039	-2e-05	2
4761	-1e-05	0	0.00013	0.00011	-9e-05	0.0006	0.00039	-2e-05	2
4762	-1e-05	0	0.00013	0.00011	-9e-05	0.0006	0.00039	-2e-05	2
4763	-1e-05	0	0.00013	0.00011	-9e-05	0.0006	0.00039	-2e-05	2
4764	-0.00014	-4e-05	4e-05	-2e-05	0	0.00023	0.00066	0.00019	2
4765	-0.00031	-5e-05	-0.00016	-0.00066	-0.00021	-0.00066	-0.00128	-0.00041	2
4766	-0.00031	-5e-05	-0.00016	-0.00066	-0.00021	-0.00066	-0.00128	-0.00041	2
4767	-0.00031	-5e-05	-0.00016	-0.00066	-0.00021	-0.00066	-0.00128	-0.00041	2
4768	-0.00031	-5e-05	-0.00016	-0.00066	-0.00021	-0.00066	-0.00128	-0.00041	2
4769	-0.00031	-5e-05	-0.00016	-0.00066	-0.00021	-0.00066	-0.00128	-0.00041	2
4770	-0.00031	-5e-05	-0.00016	-0.00066	-0.00021	-0.00066	-0.00128	-0.00041	2
4771	-0.00031	-5e-05	-0.00016	-0.00066	-0.00021	-0.00066	-0.00128	-0.00041	2
4772	-0.00031	-5e-05	-0.00016	-0.00066	-0.00021	-0.00066	-0.00128	-0.00041	2
4773	-0.00031	-5e-05	-0.00016	-0.00066	-0.00021	-0.00066	-0.00128	-0.00041	2
4774	-0.00031	-5e-05	-0.00016	-0.00066	-0.00021	-0.00066	-0.00128	-0.00041	2
4775	-0.00031	-5e-05	-0.00016	-0.00066	-0.00021	-0.00066	-0.00128	-0.00041	2
4776	-0.00031	-5e-05	-0.00016	-0.00066	-0.00021	-0.00066	-0.00128	-0.00041	2
4777	-0.00031	-5e-05	-0.00016	-0.00066	-0.00021	-0.00066	-0.00128	-0.00041	2
4778	-0.00031	-5e-05	-0.00016	-0.00066	-0.00021	-0.00066	-0.00128	-0.00041	2
4779	-0.00031	-5e-05	-0.00016	-0.00066	-0.00021	-0.00066	-0.00128	-0.00041	2
4780	-0.00031	-5e-05	-0.00016	-0.00066	-0.00021	-0.00066	-0.00128	-0.00041	2
4781	-0.00031	-5e-05	-0.00016	-0.00066	-0.00021	-0.00066	-0.00128	-0.00041	2
4782	-0.00031	-5e-05	-0.00016	-0.00066	-0.00021	-0.00066	-0.00128	-0.00041	2
4783	-0.00031	-5e-05	-0.00016	-0.00066	-0.00021	-0.00066	-0.00128	-0.00041	2
4784	-0.00031	-5e-05	-0.00016	-0.00066	-0.00021	-0.00066	-0.00128	-0.00041	2
4785	-0.00031	-5e-05	-0.00016	-0.00066	-0.00021	-0.00066	-0.00128	-0.00041	2
4787	-0.00031	-5e-05	-0.00016	-0.00066	-0.00021	-0.00066	-0.00128	-0.00041	2
4789	-1e-05	-0.0001	-0.00023	-0.00021	-0.00013	0.00023	0.00084	0.00011	2
4790	-1e-05	-0.0001	-0.00023	-0.00021	-0.00013	0.00023	0.00084	0.00011	2
4791	-1e-05	-0.0001	-0.00023	-0.00021	-0.00013	0.00023	0.00084	0.00011	2
4793	-1e-05	-0.0001	-0.00023	-0.00021	-0.00013	0.00023	0.00084	0.00011	2
4794	-1e-05	-0.0001	-0.00023	-0.00021	-0.00013	0.00023	0.00084	0.00011	2
4795	-1e-05	-0.0001	-0.00023	-0.00021	-0.00013	0.00023	0.00084	0.00011	2
4796	-1e-05	-0.0001	-0.00023	-0.00021	-0.00013	0.00023	0.00084	0.00011	2
4797	-1e-05	-0.0001	-0.00023	-0.00021	-0.00013	0.00023	0.00084	0.00011	2
4798	-1e-05	-0.0001	-0.00023	-0.00021	-0.00013	0.00023	0.00084	0.00011	2
4799	-1e-05	-0.0001	-0.00023	-0.00021	-0.00013	0.00023	0.00084	0.00011	2
4800	-1e-05	-0.0001	-0.00023	-0.00021	-0.00013	0.00023	0.00084	0.00011	2
4802	-1e-05	-0.0001	-0.00023	-0.00021	-0.00013	0.00023	0.00084	0.00011	2
4803	-1e-05	-0.0001	-0.00023	-0.00021	-0.00013	0.00023	0.00084	0.00011	2
4804	-1e-05	-0.0001	-0.00023	-0.00021	-0.00013	0.00023	0.00084	0.00011	2
4805	-1e-05	-0.0001	-0.00023	-0.00021	-0.00013	0.00023	0.00084	0.00011	2
4806	-1e-05	-0.0001	-0.00023	-0.00021	-0.00013	0.00023	0.00084	0.00011	2
4807	-1e-05	-0.0001	-0.00023	-0.00021	-0.00013	0.00023	0.00084	0.00011	2
4808	-1e-05	-0.0001	-0.00023	-0.00021	-0.00013	0.00023	0.00084	0.00011	2
4809	-1e-05	-0.0001	-0.00023	-0.00021	-0.00013	0.00023	0.00084	0.00011	2
4810	-1e-05	-0.0001	-0.00023	-0.00021	-0.00013	0.00023	0.00084	0.00011	2
4811	-0.00014	2e-05	-1e-05	0.00041	9e-05	-7e-05	-6e-05	-0.00041	2
4812	-0.00014	2e-05	-1e-05	0.00041	9e-05	-7e-05	-6e-05	-0.00041	2
4814	-0.00014	2e-05	-1e-05	0.00041	9e-05	-7e-05	-6e-05	-0.00041	2
4815	-0.00014	2e-05	-1e-05	0.00041	9e-05	-7e-05	-6e-05	-0.00041	2
4816	-0.00014	2e-05	-1e-05	0.00041	9e-05	-7e-05	-6e-05	-0.00041	2
4817	-0.00014	2e-05	-1e-05	0.00041	9e-05	-7e-05	-6e-05	-0.00041	2
4818	-0.00014	2e-05	-1e-05	0.00041	9e-05	-7e-05	-6e-05	-0.00041	2
4819	-0.00014	2e-05	-1e-05	0.00041	9e-05	-7e-05	-6e-05	-0.00041	2
4820	-0.00014	2e-05	-1e-05	0.00041	9e-05	-7e-05	-6e-05	-0.00041	2
4821	-0.00014	2e-05	-1e-05	0.00041	9e-05	-7e-05	-6e-05	-0.00041	2
4822	-0.00014	2e-05	-1e-05	0.00041	9e-05	-7e-05	-6e-05	-0.00041	2
4823	-0.00014	2e-05	-1e-05	0.00041	9e-05	-7e-05	-6e-05	-0.00041	2
4824	-0.00014	2e-05	-1e-05	0.00041	9e-05	-7e-05	-6e-05	-0.00041	2
4825	0.00032	0.00014	0.00032	0.00036	0.00011	0.00055	0.00011	-1e-05	2
4826	0.00011	-2e-05	6e-05	0.00067	0.00011	-2e-05	0.00091	0.00057	2
4827	0.00011	-2e-05	6e-05	0.00067	0.00011	-2e-05	0.00091	0.00057	2
4828	0.00011	-2e-05	6e-05	0.00067	0.00011	-2e-05	0.00091	0.00057	2
4829	0.00011	-2e-05	6e-05	0.00067	0.00011	-2e-05	0.00091	0.00057	2
4830	0.00011	-2e-05	6e-05	0.00067	0.00011	-2e-05	0.00091	0.00057	2
4831	0.00011	-2e-05	6e-05	0.00067	0.00011	-2e-05	0.00091	0.00057	2
4832	0.00011	-2e-05	6e-05	0.00067	0.00011	-2e-05	0.00091	0.00057	2
4833	0.00011	-2e-05	6e-05	0.00067	0.00011	-2e-05	0.00091	0.00057	2
4834	0.00011	-2e-05	6e-05	0.00067	0.00011	-2e-05	0.00091	0.00057	2
4835	0.00011	-2e-05	6e-05	0.00067	0.00011	-2e-05	0.00091	0.00057	2
4836	0.00011	-2e-05	6e-05	0.00067	0.00011	-2e-05	0.00091	0.00057	2
4839	0.00011	-2e-05	6e-05	0.00067	0.00011	-2e-05	0.00091	0.00057	2
4840	0.00011	-2e-05	6e-05	0.00067	0.00011	-2e-05	0.00091	0.00057	2
4841	0.00011	-2e-05	6e-05	0.00067	0.00011	-2e-05	0.00091	0.00057	2
4842	0.00011	-2e-05	6e-05	0.00067	0.00011	-2e-05	0.00091	0.00057	2
4844	0.00011	-2e-05	6e-05	0.00067	0.00011	-2e-05	0.00091	0.00057	2
4845	0.00011	-2e-05	6e-05	0.00067	0.00011	-2e-05	0.00091	0.00057	2
4846	0.00011	-2e-05	6e-05	0.00067	0.00011	-2e-05	0.00091	0.00057	2
4847	0.00011	-2e-05	6e-05	0.00067	0.00011	-2e-05	0.00091	0.00057	2
4848	0.00022	6e-05	0.00029	0.0004	9e-05	0	0.00038	0.00046	2
4849	0.00022	6e-05	0.00029	0.0004	9e-05	0	0.00038	0.00046	2
4850	0.00022	6e-05	0.00029	0.0004	9e-05	0	0.00038	0.00046	2
4851	0.00022	6e-05	0.00029	0.0004	9e-05	0	0.00038	0.00046	2
4852	0.00022	6e-05	0.00029	0.0004	9e-05	0	0.00038	0.00046	2
4853	0.00022	6e-05	0.00029	0.0004	9e-05	0	0.00038	0.00046	2
4854	0.00022	6e-05	0.00029	0.0004	9e-05	0	0.00038	0.00046	2
4855	0.00022	6e-05	0.00029	0.0004	9e-05	0	0.00038	0.00046	2
4856	0.00022	6e-05	0.00029	0.0004	9e-05	0	0.00038	0.00046	2
4857	0.00022	6e-05	0.00029	0.0004	9e-05	0	0.00038	0.00046	2
4858	0.00022	6e-05	0.00029	0.0004	9e-05	0	0.00038	0.00046	2
4860	0.00022	6e-05	0.00029	0.0004	9e-05	0	0.00038	0.00046	2
4861	0.00022	6e-05	0.00029	0.0004	9e-05	0	0.00038	0.00046	2
4862	0.00022	6e-05	0.00029	0.0004	9e-05	0	0.00038	0.00046	2
4863	0.00022	6e-05	0.00029	0.0004	9e-05	0	0.00038	0.00046	2
4864	0.00022	6e-05	0.00029	0.0004	9e-05	0	0.00038	0.00046	2
4865	0.00022	6e-05	0.00029	0.0004	9e-05	0	0.00038	0.00046	2
4866	0.00022	6e-05	0.00029	0.0004	9e-05	0	0.00038	0.00046	2
4867	0.00022	6e-05	0.00029	0.0004	9e-05	0	0.00038	0.00046	2
4868	0.00022	6e-05	0.00029	0.0004	9e-05	0	0.00038	0.00046	2
4869	0.00022	6e-05	0.00029	0.0004	9e-05	0	0.00038	0.00046	2
4870	0.00022	6e-05	0.00029	0.0004	9e-05	0	0.00038	0.00046	2
4871	0.00022	6e-05	0.00029	0.0004	9e-05	0	0.00038	0.00046	2
4872	0.00022	6e-05	0.00029	0.0004	9e-05	0	0.00038	0.00046	2
4873	0.00022	6e-05	0.00029	0.0004	9e-05	0	0.00038	0.00046	2
4874	0.00022	6e-05	0.00029	0.0004	9e-05	0	0.00038	0.00046	2
4875	0.00022	6e-05	0.00029	0.0004	9e-05	0	0.00038	0.00046	2
4876	0.00022	6e-05	0.00029	0.0004	9e-05	0	0.00038	0.00046	2
4877	0.00022	6e-05	0.00029	0.0004	9e-05	0	0.00038	0.00046	2
4878	-9e-05	-0.00014	-0.00049	-0.00072	-1e-05	-0.00049	-0.00128	-4e-05	2
4879	0.00027	7e-05	0.00029	0.00103	0.00011	-0.00025	0.00066	0.00043	2
4880	0.00027	7e-05	0.00029	0.00103	0.00011	-0.00025	0.00066	0.00043	2
4881	0.00027	7e-05	0.00029	0.00103	0.00011	-0.00025	0.00066	0.00043	2
4882	0.00027	7e-05	0.00029	0.00103	0.00011	-0.00025	0.00066	0.00043	2
4883	0.00027	7e-05	0.00029	0.00103	0.00011	-0.00025	0.00066	0.00043	2
4884	0.00027	7e-05	0.00029	0.00103	0.00011	-0.00025	0.00066	0.00043	2
4885	0.00027	7e-05	0.00029	0.00103	0.00011	-0.00025	0.00066	0.00043	2
4886	0.00027	7e-05	0.00029	0.00103	0.00011	-0.00025	0.00066	0.00043	2
4889	0.00027	7e-05	0.00029	0.00103	0.00011	-0.00025	0.00066	0.00043	2
4890	0.00027	7e-05	0.00029	0.00103	0.00011	-0.00025	0.00066	0.00043	2
4891	0.00027	7e-05	0.00029	0.00103	0.00011	-0.00025	0.00066	0.00043	2
4892	0.00027	7e-05	0.00029	0.00103	0.00011	-0.00025	0.00066	0.00043	2
4893	-0.00023	-5e-05	0.0001	-0.0004	1e-05	0.00038	-0.00016	-0.00057	2
4894	-1e-05	-1e-05	9e-05	0.00044	-2e-05	-0.00056	-0.00095	0	2
4895	-1e-05	-1e-05	9e-05	0.00044	-2e-05	-0.00056	-0.00095	0	2
4896	-1e-05	-1e-05	9e-05	0.00044	-2e-05	-0.00056	-0.00095	0	2
4897	-1e-05	-1e-05	9e-05	0.00044	-2e-05	-0.00056	-0.00095	0	2
4898	-1e-05	-1e-05	9e-05	0.00044	-2e-05	-0.00056	-0.00095	0	2
4899	-1e-05	-1e-05	9e-05	0.00044	-2e-05	-0.00056	-0.00095	0	2
4900	-1e-05	-1e-05	9e-05	0.00044	-2e-05	-0.00056	-0.00095	0	2
4901	-1e-05	-1e-05	9e-05	0.00044	-2e-05	-0.00056	-0.00095	0	2
4902	-1e-05	-1e-05	9e-05	0.00044	-2e-05	-0.00056	-0.00095	0	2
4903	-1e-05	-1e-05	9e-05	0.00044	-2e-05	-0.00056	-0.00095	0	2
4904	-1e-05	-1e-05	9e-05	0.00044	-2e-05	-0.00056	-0.00095	0	2
4905	-1e-05	-1e-05	9e-05	0.00044	-2e-05	-0.00056	-0.00095	0	2
4906	-1e-05	-1e-05	9e-05	0.00044	-2e-05	-0.00056	-0.00095	0	2
4907	-1e-05	-1e-05	9e-05	0.00044	-2e-05	-0.00056	-0.00095	0	2
4908	-3e-05	-3e-05	-1e-05	-0.00022	-0.00018	-0.00015	-0.00128	-0.00032	2
4909	0.00018	5e-05	-0.00017	-0.00022	5e-05	0.00057	-0.00101	0.00023	2
4910	0.00018	5e-05	-0.00017	-0.00022	5e-05	0.00057	-0.00101	0.00023	2
4911	0.00018	5e-05	-0.00017	-0.00022	5e-05	0.00057	-0.00101	0.00023	2
4912	0.00018	5e-05	-0.00017	-0.00022	5e-05	0.00057	-0.00101	0.00023	2
4913	0.00018	5e-05	-0.00017	-0.00022	5e-05	0.00057	-0.00101	0.00023	2
4914	0.00018	5e-05	-0.00017	-0.00022	5e-05	0.00057	-0.00101	0.00023	2
4915	0.00018	5e-05	-0.00017	-0.00022	5e-05	0.00057	-0.00101	0.00023	2
4916	0.00018	5e-05	-0.00017	-0.00022	5e-05	0.00057	-0.00101	0.00023	2
4917	0.00018	5e-05	-0.00017	-0.00022	5e-05	0.00057	-0.00101	0.00023	2
4918	0.00018	5e-05	-0.00017	-0.00022	5e-05	0.00057	-0.00101	0.00023	2
4919	0.00018	5e-05	-0.00017	-0.00022	5e-05	0.00057	-0.00101	0.00023	2
4920	0.00018	5e-05	-0.00017	-0.00022	5e-05	0.00057	-0.00101	0.00023	2
4921	0.00018	5e-05	-0.00017	-0.00022	5e-05	0.00057	-0.00101	0.00023	2
4922	0.00018	5e-05	-0.00017	-0.00022	5e-05	0.00057	-0.00101	0.00023	2
4923	0.00018	5e-05	-0.00017	-0.00022	5e-05	0.00057	-0.00101	0.00023	2
4924	0.00018	5e-05	-0.00017	-0.00022	5e-05	0.00057	-0.00101	0.00023	2
4925	0.00018	5e-05	-0.00017	-0.00022	5e-05	0.00057	-0.00101	0.00023	2
4926	0.00018	5e-05	-0.00017	-0.00022	5e-05	0.00057	-0.00101	0.00023	2
4927	0.00018	5e-05	-0.00017	-0.00022	5e-05	0.00057	-0.00101	0.00023	2
4928	0.00018	5e-05	-0.00017	-0.00022	5e-05	0.00057	-0.00101	0.00023	2
4929	0.00018	5e-05	-0.00017	-0.00022	5e-05	0.00057	-0.00101	0.00023	2
4930	0.00018	5e-05	-0.00017	-0.00022	5e-05	0.00057	-0.00101	0.00023	2
4931	-1e-05	-3e-05	-0.00028	-0.00052	0	0.00016	0.00028	-3e-05	2
4932	-1e-05	-3e-05	-0.00028	-0.00052	0	0.00016	0.00028	-3e-05	2
4933	-1e-05	-3e-05	-0.00028	-0.00052	0	0.00016	0.00028	-3e-05	2
4934	-1e-05	-3e-05	-0.00028	-0.00052	0	0.00016	0.00028	-3e-05	2
4935	-1e-05	-3e-05	-0.00028	-0.00052	0	0.00016	0.00028	-3e-05	2
4936	-1e-05	-3e-05	-0.00028	-0.00052	0	0.00016	0.00028	-3e-05	2
4939	-1e-05	-3e-05	-0.00028	-0.00052	0	0.00016	0.00028	-3e-05	2
4940	-1e-05	-3e-05	-0.00028	-0.00052	0	0.00016	0.00028	-3e-05	2
4941	-1e-05	-3e-05	-0.00028	-0.00052	0	0.00016	0.00028	-3e-05	2
4942	-1e-05	-3e-05	-0.00028	-0.00052	0	0.00016	0.00028	-3e-05	2
4943	-1e-05	-3e-05	-0.00028	-0.00052	0	0.00016	0.00028	-3e-05	2
4944	-1e-05	-3e-05	-0.00028	-0.00052	0	0.00016	0.00028	-3e-05	2
4945	-9e-05	-4e-05	-0.00034	-0.00057	5e-05	0.00086	0.00073	7e-05	2
4946	-0.00012	5e-05	0.00024	-0.00055	-5e-05	0.00039	0.00027	-0.00022	2
4947	-0.00012	5e-05	0.00024	-0.00055	-5e-05	0.00039	0.00027	-0.00022	2
4948	-0.00012	5e-05	0.00024	-0.00055	-5e-05	0.00039	0.00027	-0.00022	2
4949	-0.00012	5e-05	0.00024	-0.00055	-5e-05	0.00039	0.00027	-0.00022	2
4950	-0.00012	5e-05	0.00024	-0.00055	-5e-05	0.00039	0.00027	-0.00022	2
4951	-0.00012	5e-05	0.00024	-0.00055	-5e-05	0.00039	0.00027	-0.00022	2
4952	-0.00012	5e-05	0.00024	-0.00055	-5e-05	0.00039	0.00027	-0.00022	2
4953	-0.00012	5e-05	0.00024	-0.00055	-5e-05	0.00039	0.00027	-0.00022	2
4954	-0.00012	5e-05	0.00024	-0.00055	-5e-05	0.00039	0.00027	-0.00022	2
4955	-0.00012	5e-05	0.00024	-0.00055	-5e-05	0.00039	0.00027	-0.00022	2
4956	-0.00012	5e-05	0.00024	-0.00055	-5e-05	0.00039	0.00027	-0.00022	2
4957	-0.00012	5e-05	0.00024	-0.00055	-5e-05	0.00039	0.00027	-0.00022	2
4958	-0.00012	5e-05	0.00024	-0.00055	-5e-05	0.00039	0.00027	-0.00022	2
4959	-0.00012	5e-05	0.00024	-0.00055	-5e-05	0.00039	0.00027	-0.00022	2
4960	-0.00012	5e-05	0.00024	-0.00055	-5e-05	0.00039	0.00027	-0.00022	2
4961	-0.00012	5e-05	0.00024	-0.00055	-5e-05	0.00039	0.00027	-0.00022	2
4962	-0.00012	5e-05	0.00024	-0.00055	-5e-05	0.00039	0.00027	-0.00022	2
4964	-0.00012	5e-05	0.00024	-0.00055	-5e-05	0.00039	0.00027	-0.00022	2
4965	-0.00012	5e-05	0.00024	-0.00055	-5e-05	0.00039	0.00027	-0.00022	2
4966	-0.00012	5e-05	0.00024	-0.00055	-5e-05	0.00039	0.00027	-0.00022	2
4967	-2e-05	-5e-05	-0.00025	0.00047	3e-05	1e-05	0.00127	0.00047	2
4968	7e-05	-3e-05	9e-05	0.0005	-0.00012	-0.00025	-0.0011	-0.00016	2
4969	7e-05	-3e-05	9e-05	0.0005	-0.00012	-0.00025	-0.0011	-0.00016	2
4970	7e-05	-3e-05	9e-05	0.0005	-0.00012	-0.00025	-0.0011	-0.00016	2
4971	7e-05	-3e-05	9e-05	0.0005	-0.00012	-0.00025	-0.0011	-0.00016	2
4972	7e-05	-3e-05	9e-05	0.0005	-0.00012	-0.00025	-0.0011	-0.00016	2
4973	7e-05	-3e-05	9e-05	0.0005	-0.00012	-0.00025	-0.0011	-0.00016	2
4974	7e-05	-3e-05	9e-05	0.0005	-0.00012	-0.00025	-0.0011	-0.00016	2
4975	7e-05	-3e-05	9e-05	0.0005	-0.00012	-0.00025	-0.0011	-0.00016	2
4976	7e-05	-3e-05	9e-05	0.0005	-0.00012	-0.00025	-0.0011	-0.00016	2
4977	7e-05	-3e-05	9e-05	0.0005	-0.00012	-0.00025	-0.0011	-0.00016	2
4978	7e-05	-3e-05	9e-05	0.0005	-0.00012	-0.00025	-0.0011	-0.00016	2
4979	7e-05	-3e-05	9e-05	0.0005	-0.00012	-0.00025	-0.0011	-0.00016	2
4980	7e-05	-3e-05	9e-05	0.0005	-0.00012	-0.00025	-0.0011	-0.00016	2
4981	7e-05	-3e-05	9e-05	0.0005	-0.00012	-0.00025	-0.0011	-0.00016	2
4982	7e-05	-3e-05	9e-05	0.0005	-0.00012	-0.00025	-0.0011	-0.00016	2
4983	7e-05	-3e-05	9e-05	0.0005	-0.00012	-0.00025	-0.0011	-0.00016	2
4984	7e-05	-3e-05	9e-05	0.0005	-0.00012	-0.00025	-0.0011	-0.00016	2
4985	7e-05	-3e-05	9e-05	0.0005	-0.00012	-0.00025	-0.0011	-0.00016	2
4986	7e-05	-3e-05	9e-05	0.0005	-0.00012	-0.00025	-0.0011	-0.00016	2
4988	7e-05	-3e-05	9e-05	0.0005	-0.00012	-0.00025	-0.0011	-0.00016	2
4989	7e-05	-3e-05	9e-05	0.0005	-0.00012	-0.00025	-0.0011	-0.00016	2
4990	7e-05	-3e-05	9e-05	0.0005	-0.00012	-0.00025	-0.0011	-0.00016	2
4991	-0.00011	-3e-05	-0.00022	-0.00035	8e-05	0.00055	-0.0006	-7e-05	2
4992	-0.00011	-3e-05	-0.00022	-0.00035	8e-05	0.00055	-0.0006	-7e-05	2
4993	-0.00011	-3e-05	-0.00022	-0.00035	8e-05	0.00055	-0.0006	-7e-05	2
4994	-0.00011	-3e-05	-0.00022	-0.00035	8e-05	0.00055	-0.0006	-7e-05	2
4995	-0.00011	-3e-05	-0.00022	-0.00035	8e-05	0.00055	-0.0006	-7e-05	2
4996	-0.00011	-3e-05	-0.00022	-0.00035	8e-05	0.00055	-0.0006	-7e-05	2
4997	-0.00011	-3e-05	-0.00022	-0.00035	8e-05	0.00055	-0.0006	-7e-05	2
4998	-0.00011	-3e-05	-0.00022	-0.00035	8e-05	0.00055	-0.0006	-7e-05	2
4999	-0.00011	-3e-05	-0.00022	-0.00035	8e-05	0.00055	-0.0006	-7e-05	2
5000	-0.00011	-3e-05	-0.00022	-0.00035	8e-05	0.00055	-0.0006	-7e-05	2
5001	-0.00011	-3e-05	-0.00022	-0.00035	8e-05	0.00055	-0.0006	-7e-05	2
5002	-0.00011	-3e-05	-0.00022	-0.00035	8e-05	0.00055	-0.0006	-7e-05	2
5003	-0.00011	-3e-05	-0.00022	-0.00035	8e-05	0.00055	-0.0006	-7e-05	2
5004	-0.00011	-3e-05	-0.00022	-0.00035	8e-05	0.00055	-0.0006	-7e-05	2
5005	0.00011	-3e-05	0.00016	0.00049	-9e-05	-0.00055	-0.00079	0.00025	2
5006	0.00012	-2e-05	0.00022	-0.00027	-0.00026	-0.00111	-0.001	5e-05	2
5007	0.00012	-2e-05	0.00022	-0.00027	-0.00026	-0.00111	-0.001	5e-05	2
5008	0.00012	-2e-05	0.00022	-0.00027	-0.00026	-0.00111	-0.001	5e-05	2
5009	0.00012	-2e-05	0.00022	-0.00027	-0.00026	-0.00111	-0.001	5e-05	2
5010	0.00012	-2e-05	0.00022	-0.00027	-0.00026	-0.00111	-0.001	5e-05	2
5011	0.00012	-2e-05	0.00022	-0.00027	-0.00026	-0.00111	-0.001	5e-05	2
5012	0.00012	-2e-05	0.00022	-0.00027	-0.00026	-0.00111	-0.001	5e-05	2
5013	0.00012	-2e-05	0.00022	-0.00027	-0.00026	-0.00111	-0.001	5e-05	2
5014	0.00012	-2e-05	0.00022	-0.00027	-0.00026	-0.00111	-0.001	5e-05	2
5015	0.00012	-2e-05	0.00022	-0.00027	-0.00026	-0.00111	-0.001	5e-05	2
5016	0.00012	-2e-05	0.00022	-0.00027	-0.00026	-0.00111	-0.001	5e-05	2
5017	0.00012	-2e-05	0.00022	-0.00027	-0.00026	-0.00111	-0.001	5e-05	2
5018	0.00012	-2e-05	0.00022	-0.00027	-0.00026	-0.00111	-0.001	5e-05	2
5019	0.00012	-2e-05	0.00022	-0.00027	-0.00026	-0.00111	-0.001	5e-05	2
5020	0.00012	-2e-05	0.00022	-0.00027	-0.00026	-0.00111	-0.001	5e-05	2
5021	0.00012	-2e-05	0.00022	-0.00027	-0.00026	-0.00111	-0.001	5e-05	2
5022	0.00012	-2e-05	0.00022	-0.00027	-0.00026	-0.00111	-0.001	5e-05	2
5023	0.00012	-2e-05	0.00022	-0.00027	-0.00026	-0.00111	-0.001	5e-05	2
5024	0.00012	-2e-05	0.00022	-0.00027	-0.00026	-0.00111	-0.001	5e-05	2
5025	0.00012	-2e-05	0.00022	-0.00027	-0.00026	-0.00111	-0.001	5e-05	2
5026	0.00012	-2e-05	0.00022	-0.00027	-0.00026	-0.00111	-0.001	5e-05	2
5027	2e-05	-4e-05	-0.00042	-0.00034	0.00029	0.00081	0.00095	0.00016	2
5028	-0.00013	-2e-05	-0.00014	-0.00073	-9e-05	-0.00053	0.00034	-0.00025	2
5029	-0.00013	-2e-05	-0.00014	-0.00073	-9e-05	-0.00053	0.00034	-0.00025	2
5030	-0.00013	-2e-05	-0.00014	-0.00073	-9e-05	-0.00053	0.00034	-0.00025	2
5031	-0.00013	-2e-05	-0.00014	-0.00073	-9e-05	-0.00053	0.00034	-0.00025	2
5033	-0.00013	-2e-05	-0.00014	-0.00073	-9e-05	-0.00053	0.00034	-0.00025	2
5034	-0.00013	-2e-05	-0.00014	-0.00073	-9e-05	-0.00053	0.00034	-0.00025	2
5036	-0.00013	-2e-05	-0.00014	-0.00073	-9e-05	-0.00053	0.00034	-0.00025	2
5037	-0.00013	-2e-05	-0.00014	-0.00073	-9e-05	-0.00053	0.00034	-0.00025	2
5038	-0.00013	-2e-05	-0.00014	-0.00073	-9e-05	-0.00053	0.00034	-0.00025	2
5039	-0.00013	-2e-05	-0.00014	-0.00073	-9e-05	-0.00053	0.00034	-0.00025	2
5040	-0.00013	-2e-05	-0.00014	-0.00073	-9e-05	-0.00053	0.00034	-0.00025	2
5041	-0.00013	-2e-05	-0.00014	-0.00073	-9e-05	-0.00053	0.00034	-0.00025	2
5042	-0.00013	-2e-05	-0.00014	-0.00073	-9e-05	-0.00053	0.00034	-0.00025	2
5043	-0.00013	-2e-05	-0.00014	-0.00073	-9e-05	-0.00053	0.00034	-0.00025	2
5044	-0.00013	-2e-05	-0.00014	-0.00073	-9e-05	-0.00053	0.00034	-0.00025	2
5045	-0.00013	-2e-05	-0.00014	-0.00073	-9e-05	-0.00053	0.00034	-0.00025	2
5046	-0.00013	-2e-05	-0.00014	-0.00073	-9e-05	-0.00053	0.00034	-0.00025	2
5047	-0.00013	-2e-05	-0.00014	-0.00073	-9e-05	-0.00053	0.00034	-0.00025	2
5048	-0.00013	-2e-05	-0.00014	-0.00073	-9e-05	-0.00053	0.00034	-0.00025	2
5049	-0.00013	-2e-05	-0.00014	-0.00073	-9e-05	-0.00053	0.00034	-0.00025	2
5050	-0.00013	-2e-05	-0.00014	-0.00073	-9e-05	-0.00053	0.00034	-0.00025	2
5051	1e-05	-6e-05	-0.00012	0.0006	-3e-05	-0.00097	-0.00039	0.00013	2
5052	1e-05	-6e-05	-0.00012	0.0006	-3e-05	-0.00097	-0.00039	0.00013	2
5054	1e-05	-6e-05	-0.00012	0.0006	-3e-05	-0.00097	-0.00039	0.00013	2
5055	1e-05	-6e-05	-0.00012	0.0006	-3e-05	-0.00097	-0.00039	0.00013	2
5056	1e-05	-6e-05	-0.00012	0.0006	-3e-05	-0.00097	-0.00039	0.00013	2
5057	1e-05	-6e-05	-0.00012	0.0006	-3e-05	-0.00097	-0.00039	0.00013	2
5058	1e-05	-6e-05	-0.00012	0.0006	-3e-05	-0.00097	-0.00039	0.00013	2
5059	1e-05	-6e-05	-0.00012	0.0006	-3e-05	-0.00097	-0.00039	0.00013	2
5060	1e-05	-6e-05	-0.00012	0.0006	-3e-05	-0.00097	-0.00039	0.00013	2
5061	1e-05	-6e-05	-0.00012	0.0006	-3e-05	-0.00097	-0.00039	0.00013	2
5062	1e-05	-6e-05	-0.00012	0.0006	-3e-05	-0.00097	-0.00039	0.00013	2
5063	1e-05	-6e-05	-0.00012	0.0006	-3e-05	-0.00097	-0.00039	0.00013	2
5064	1e-05	-6e-05	-0.00012	0.0006	-3e-05	-0.00097	-0.00039	0.00013	2
5065	0.00021	0	-0.00022	-1e-05	-3e-05	0.00046	0.00101	0.00032	2
5066	-0.00014	-2e-05	4e-05	-5e-05	-4e-05	7e-05	0.00092	-0.00015	2
5067	-0.00014	-2e-05	4e-05	-5e-05	-4e-05	7e-05	0.00092	-0.00015	2
5068	-0.00014	-2e-05	4e-05	-5e-05	-4e-05	7e-05	0.00092	-0.00015	2
5069	-0.00014	-2e-05	4e-05	-5e-05	-4e-05	7e-05	0.00092	-0.00015	2
5070	-0.00014	-2e-05	4e-05	-5e-05	-4e-05	7e-05	0.00092	-0.00015	2
5071	-0.00014	-2e-05	4e-05	-5e-05	-4e-05	7e-05	0.00092	-0.00015	2
5072	-0.00014	-2e-05	4e-05	-5e-05	-4e-05	7e-05	0.00092	-0.00015	2
5073	-0.00014	-2e-05	4e-05	-5e-05	-4e-05	7e-05	0.00092	-0.00015	2
5074	-0.00014	-2e-05	4e-05	-5e-05	-4e-05	7e-05	0.00092	-0.00015	2
5075	-0.00014	-2e-05	4e-05	-5e-05	-4e-05	7e-05	0.00092	-0.00015	2
5076	-0.00014	-2e-05	4e-05	-5e-05	-4e-05	7e-05	0.00092	-0.00015	2
5077	-0.00014	-2e-05	4e-05	-5e-05	-4e-05	7e-05	0.00092	-0.00015	2
5078	-0.00014	-2e-05	4e-05	-5e-05	-4e-05	7e-05	0.00092	-0.00015	2
5079	-0.00014	-2e-05	4e-05	-5e-05	-4e-05	7e-05	0.00092	-0.00015	2
5080	-0.00014	-2e-05	4e-05	-5e-05	-4e-05	7e-05	0.00092	-0.00015	2
5081	-0.00014	-2e-05	4e-05	-5e-05	-4e-05	7e-05	0.00092	-0.00015	2
5082	-0.00014	-2e-05	4e-05	-5e-05	-4e-05	7e-05	0.00092	-0.00015	2
5083	-0.00014	-2e-05	4e-05	-5e-05	-4e-05	7e-05	0.00092	-0.00015	2
5084	-0.00014	-2e-05	4e-05	-5e-05	-4e-05	7e-05	0.00092	-0.00015	2
5085	-0.00014	-2e-05	4e-05	-5e-05	-4e-05	7e-05	0.00092	-0.00015	2
5086	-0.00014	-2e-05	4e-05	-5e-05	-4e-05	7e-05	0.00092	-0.00015	2
5089	-5e-05	-8e-05	-0.00035	-0.00056	0.0001	-0.00018	-0.0005	-9e-05	2
5090	-5e-05	-8e-05	-0.00035	-0.00056	0.0001	-0.00018	-0.0005	-9e-05	2
5091	-5e-05	-8e-05	-0.00035	-0.00056	0.0001	-0.00018	-0.0005	-9e-05	2
5092	-5e-05	-8e-05	-0.00035	-0.00056	0.0001	-0.00018	-0.0005	-9e-05	2
5093	-5e-05	-8e-05	-0.00035	-0.00056	0.0001	-0.00018	-0.0005	-9e-05	2
5094	-5e-05	-8e-05	-0.00035	-0.00056	0.0001	-0.00018	-0.0005	-9e-05	2
5095	-5e-05	-8e-05	-0.00035	-0.00056	0.0001	-0.00018	-0.0005	-9e-05	2
5096	-5e-05	-8e-05	-0.00035	-0.00056	0.0001	-0.00018	-0.0005	-9e-05	2
5097	-5e-05	-8e-05	-0.00035	-0.00056	0.0001	-0.00018	-0.0005	-9e-05	2
5098	-5e-05	-8e-05	-0.00035	-0.00056	0.0001	-0.00018	-0.0005	-9e-05	2
5099	-5e-05	-8e-05	-0.00035	-0.00056	0.0001	-0.00018	-0.0005	-9e-05	2
5100	-5e-05	-8e-05	-0.00035	-0.00056	0.0001	-0.00018	-0.0005	-9e-05	2
5101	-5e-05	-8e-05	-0.00035	-0.00056	0.0001	-0.00018	-0.0005	-9e-05	2
5102	-5e-05	-8e-05	-0.00035	-0.00056	0.0001	-0.00018	-0.0005	-9e-05	2
5103	-5e-05	-8e-05	-0.00035	-0.00056	0.0001	-0.00018	-0.0005	-9e-05	2
5104	-5e-05	-8e-05	-0.00035	-0.00056	0.0001	-0.00018	-0.0005	-9e-05	2
5105	-5e-05	-8e-05	-0.00035	-0.00056	0.0001	-0.00018	-0.0005	-9e-05	2
5106	-5e-05	-8e-05	-0.00035	-0.00056	0.0001	-0.00018	-0.0005	-9e-05	2
5107	-5e-05	-8e-05	-0.00035	-0.00056	0.0001	-0.00018	-0.0005	-9e-05	2
5108	-5e-05	-8e-05	-0.00035	-0.00056	0.0001	-0.00018	-0.0005	-9e-05	2
5109	-5e-05	-8e-05	-0.00035	-0.00056	0.0001	-0.00018	-0.0005	-9e-05	2
5110	-5e-05	-8e-05	-0.00035	-0.00056	0.0001	-0.00018	-0.0005	-9e-05	2
5111	-8e-05	1e-05	-3e-05	-0.00042	-0.00011	-0.00026	-0.00048	-0.00042	2
5112	-8e-05	1e-05	-3e-05	-0.00042	-0.00011	-0.00026	-0.00048	-0.00042	2
5113	-8e-05	1e-05	-3e-05	-0.00042	-0.00011	-0.00026	-0.00048	-0.00042	2
5114	-8e-05	1e-05	-3e-05	-0.00042	-0.00011	-0.00026	-0.00048	-0.00042	2
5115	-8e-05	1e-05	-3e-05	-0.00042	-0.00011	-0.00026	-0.00048	-0.00042	2
5116	-8e-05	1e-05	-3e-05	-0.00042	-0.00011	-0.00026	-0.00048	-0.00042	2
5117	-8e-05	1e-05	-3e-05	-0.00042	-0.00011	-0.00026	-0.00048	-0.00042	2
5118	-8e-05	1e-05	-3e-05	-0.00042	-0.00011	-0.00026	-0.00048	-0.00042	2
5119	-8e-05	1e-05	-3e-05	-0.00042	-0.00011	-0.00026	-0.00048	-0.00042	2
5120	-8e-05	1e-05	-3e-05	-0.00042	-0.00011	-0.00026	-0.00048	-0.00042	2
5121	-8e-05	1e-05	-3e-05	-0.00042	-0.00011	-0.00026	-0.00048	-0.00042	2
5122	-8e-05	1e-05	-3e-05	-0.00042	-0.00011	-0.00026	-0.00048	-0.00042	2
5123	-8e-05	1e-05	-3e-05	-0.00042	-0.00011	-0.00026	-0.00048	-0.00042	2
5124	-8e-05	1e-05	-3e-05	-0.00042	-0.00011	-0.00026	-0.00048	-0.00042	2
5125	0	0	4e-05	0.00015	0.0001	-0.00011	-0.00053	-0.0002	2
5126	-0.00011	2e-05	0.00013	0.0001	-0.00013	-1e-05	0.00029	0.00016	2
5127	-0.00011	2e-05	0.00013	0.0001	-0.00013	-1e-05	0.00029	0.00016	2
5128	-0.00011	2e-05	0.00013	0.0001	-0.00013	-1e-05	0.00029	0.00016	2
5129	-0.00011	2e-05	0.00013	0.0001	-0.00013	-1e-05	0.00029	0.00016	2
5130	-0.00011	2e-05	0.00013	0.0001	-0.00013	-1e-05	0.00029	0.00016	2
5131	-0.00011	2e-05	0.00013	0.0001	-0.00013	-1e-05	0.00029	0.00016	2
5132	-0.00011	2e-05	0.00013	0.0001	-0.00013	-1e-05	0.00029	0.00016	2
5133	-0.00011	2e-05	0.00013	0.0001	-0.00013	-1e-05	0.00029	0.00016	2
5134	-0.00011	2e-05	0.00013	0.0001	-0.00013	-1e-05	0.00029	0.00016	2
5135	-0.00011	2e-05	0.00013	0.0001	-0.00013	-1e-05	0.00029	0.00016	2
5136	-0.00011	2e-05	0.00013	0.0001	-0.00013	-1e-05	0.00029	0.00016	2
5138	-0.00011	2e-05	0.00013	0.0001	-0.00013	-1e-05	0.00029	0.00016	2
5140	-0.00011	2e-05	0.00013	0.0001	-0.00013	-1e-05	0.00029	0.00016	2
5141	-0.00011	2e-05	0.00013	0.0001	-0.00013	-1e-05	0.00029	0.00016	2
5142	-0.00011	2e-05	0.00013	0.0001	-0.00013	-1e-05	0.00029	0.00016	2
5143	-0.00011	2e-05	0.00013	0.0001	-0.00013	-1e-05	0.00029	0.00016	2
5144	-0.00011	2e-05	0.00013	0.0001	-0.00013	-1e-05	0.00029	0.00016	2
5145	-0.00011	2e-05	0.00013	0.0001	-0.00013	-1e-05	0.00029	0.00016	2
5146	-0.00011	2e-05	0.00013	0.0001	-0.00013	-1e-05	0.00029	0.00016	2
5147	0	-0.00011	-0.00032	-0.00061	0	8e-05	-0.00023	-0.00027	2
5148	-0.0001	-3e-05	-8e-05	-0.00078	-1e-05	8e-05	0.00036	-3e-05	2
5149	-0.0001	-3e-05	-8e-05	-0.00078	-1e-05	8e-05	0.00036	-3e-05	2
5150	-0.0001	-3e-05	-8e-05	-0.00078	-1e-05	8e-05	0.00036	-3e-05	2
5151	-0.0001	-3e-05	-8e-05	-0.00078	-1e-05	8e-05	0.00036	-3e-05	2
5152	-0.0001	-3e-05	-8e-05	-0.00078	-1e-05	8e-05	0.00036	-3e-05	2
5153	-0.0001	-3e-05	-8e-05	-0.00078	-1e-05	8e-05	0.00036	-3e-05	2
5154	-0.0001	-3e-05	-8e-05	-0.00078	-1e-05	8e-05	0.00036	-3e-05	2
5155	-0.0001	-3e-05	-8e-05	-0.00078	-1e-05	8e-05	0.00036	-3e-05	2
5156	-0.0001	-3e-05	-8e-05	-0.00078	-1e-05	8e-05	0.00036	-3e-05	2
5157	-0.0001	-3e-05	-8e-05	-0.00078	-1e-05	8e-05	0.00036	-3e-05	2
5158	-0.0001	-3e-05	-8e-05	-0.00078	-1e-05	8e-05	0.00036	-3e-05	2
5159	-0.0001	-3e-05	-8e-05	-0.00078	-1e-05	8e-05	0.00036	-3e-05	2
5160	-0.0001	-3e-05	-8e-05	-0.00078	-1e-05	8e-05	0.00036	-3e-05	2
5161	-0.0001	-3e-05	-8e-05	-0.00078	-1e-05	8e-05	0.00036	-3e-05	2
5162	-0.0001	-3e-05	-8e-05	-0.00078	-1e-05	8e-05	0.00036	-3e-05	2
5163	-0.0001	-3e-05	-8e-05	-0.00078	-1e-05	8e-05	0.00036	-3e-05	2
5164	-0.0001	-3e-05	-8e-05	-0.00078	-1e-05	8e-05	0.00036	-3e-05	2
5165	-0.0001	-3e-05	-8e-05	-0.00078	-1e-05	8e-05	0.00036	-3e-05	2
5166	-0.0001	-3e-05	-8e-05	-0.00078	-1e-05	8e-05	0.00036	-3e-05	2
5167	-0.0001	-3e-05	-8e-05	-0.00078	-1e-05	8e-05	0.00036	-3e-05	2
5168	-0.0001	-3e-05	-8e-05	-0.00078	-1e-05	8e-05	0.00036	-3e-05	2
5169	-0.0001	-3e-05	-8e-05	-0.00078	-1e-05	8e-05	0.00036	-3e-05	2
5170	-0.0001	-3e-05	-8e-05	-0.00078	-1e-05	8e-05	0.00036	-3e-05	2
5171	0.00023	2e-05	0.0001	0.00062	4e-05	2e-05	0.0006	0.00045	2
5172	0.00023	2e-05	0.0001	0.00062	4e-05	2e-05	0.0006	0.00045	2
5173	0.00023	2e-05	0.0001	0.00062	4e-05	2e-05	0.0006	0.00045	2
5174	0.00023	2e-05	0.0001	0.00062	4e-05	2e-05	0.0006	0.00045	2
5175	0.00023	2e-05	0.0001	0.00062	4e-05	2e-05	0.0006	0.00045	2
5176	0.00023	2e-05	0.0001	0.00062	4e-05	2e-05	0.0006	0.00045	2
5177	0.00023	2e-05	0.0001	0.00062	4e-05	2e-05	0.0006	0.00045	2
5178	0.00023	2e-05	0.0001	0.00062	4e-05	2e-05	0.0006	0.00045	2
5179	0.00023	2e-05	0.0001	0.00062	4e-05	2e-05	0.0006	0.00045	2
5180	0.00023	2e-05	0.0001	0.00062	4e-05	2e-05	0.0006	0.00045	2
5181	0.00023	2e-05	0.0001	0.00062	4e-05	2e-05	0.0006	0.00045	2
5182	0.00023	2e-05	0.0001	0.00062	4e-05	2e-05	0.0006	0.00045	2
5183	0.00023	2e-05	0.0001	0.00062	4e-05	2e-05	0.0006	0.00045	2
5184	0.00023	2e-05	0.0001	0.00062	4e-05	2e-05	0.0006	0.00045	2
5185	-0.00016	0	0.00023	0.00018	4e-05	-0.00046	-0.00101	8e-05	2
5186	0.00032	0.00013	5e-05	-0.00013	0.00014	0.00034	0.00125	0.00029	2
5188	0.00011	7e-05	6e-05	0.00049	-0.00018	-6e-05	-0.00077	-0.0002	2
5189	0.00011	7e-05	6e-05	0.00049	-0.00018	-6e-05	-0.00077	-0.0002	2
5190	0.00011	7e-05	6e-05	0.00049	-0.00018	-6e-05	-0.00077	-0.0002	2
5191	0.00011	7e-05	6e-05	0.00049	-0.00018	-6e-05	-0.00077	-0.0002	2
5192	0.00011	7e-05	6e-05	0.00049	-0.00018	-6e-05	-0.00077	-0.0002	2
5193	0.00011	7e-05	6e-05	0.00049	-0.00018	-6e-05	-0.00077	-0.0002	2
5194	0.00011	7e-05	6e-05	0.00049	-0.00018	-6e-05	-0.00077	-0.0002	2
5195	0.00011	7e-05	6e-05	0.00049	-0.00018	-6e-05	-0.00077	-0.0002	2
5196	0.00011	7e-05	6e-05	0.00049	-0.00018	-6e-05	-0.00077	-0.0002	2
5197	0.00011	7e-05	6e-05	0.00049	-0.00018	-6e-05	-0.00077	-0.0002	2
5198	0.00011	7e-05	6e-05	0.00049	-0.00018	-6e-05	-0.00077	-0.0002	2
5199	0.00011	7e-05	6e-05	0.00049	-0.00018	-6e-05	-0.00077	-0.0002	2
5200	0.00011	7e-05	6e-05	0.00049	-0.00018	-6e-05	-0.00077	-0.0002	2
5201	0.00011	7e-05	6e-05	0.00049	-0.00018	-6e-05	-0.00077	-0.0002	2
5202	0.00011	7e-05	6e-05	0.00049	-0.00018	-6e-05	-0.00077	-0.0002	2
5203	0.00011	7e-05	6e-05	0.00049	-0.00018	-6e-05	-0.00077	-0.0002	2
5204	0.00011	7e-05	6e-05	0.00049	-0.00018	-6e-05	-0.00077	-0.0002	2
5205	0.00011	7e-05	6e-05	0.00049	-0.00018	-6e-05	-0.00077	-0.0002	2
5206	0.00011	7e-05	6e-05	0.00049	-0.00018	-6e-05	-0.00077	-0.0002	2
5207	0.00011	7e-05	6e-05	0.00049	-0.00018	-6e-05	-0.00077	-0.0002	2
5208	-9e-05	-5e-05	0.00034	-6e-05	-3e-05	-0.00035	-0.00047	-0.00032	2
5209	-9e-05	-5e-05	0.00034	-6e-05	-3e-05	-0.00035	-0.00047	-0.00032	2
5210	-9e-05	-5e-05	0.00034	-6e-05	-3e-05	-0.00035	-0.00047	-0.00032	2
5211	-9e-05	-5e-05	0.00034	-6e-05	-3e-05	-0.00035	-0.00047	-0.00032	2
5212	-9e-05	-5e-05	0.00034	-6e-05	-3e-05	-0.00035	-0.00047	-0.00032	2
5213	-9e-05	-5e-05	0.00034	-6e-05	-3e-05	-0.00035	-0.00047	-0.00032	2
5214	-9e-05	-5e-05	0.00034	-6e-05	-3e-05	-0.00035	-0.00047	-0.00032	2
5215	-9e-05	-5e-05	0.00034	-6e-05	-3e-05	-0.00035	-0.00047	-0.00032	2
5216	-9e-05	-5e-05	0.00034	-6e-05	-3e-05	-0.00035	-0.00047	-0.00032	2
5217	-9e-05	-5e-05	0.00034	-6e-05	-3e-05	-0.00035	-0.00047	-0.00032	2
5218	-9e-05	-5e-05	0.00034	-6e-05	-3e-05	-0.00035	-0.00047	-0.00032	2
5219	-9e-05	-5e-05	0.00034	-6e-05	-3e-05	-0.00035	-0.00047	-0.00032	2
5220	-9e-05	-5e-05	0.00034	-6e-05	-3e-05	-0.00035	-0.00047	-0.00032	2
5221	-9e-05	-5e-05	0.00034	-6e-05	-3e-05	-0.00035	-0.00047	-0.00032	2
5222	-9e-05	-5e-05	0.00034	-6e-05	-3e-05	-0.00035	-0.00047	-0.00032	2
5223	-9e-05	-5e-05	0.00034	-6e-05	-3e-05	-0.00035	-0.00047	-0.00032	2
5224	-9e-05	-5e-05	0.00034	-6e-05	-3e-05	-0.00035	-0.00047	-0.00032	2
5225	-9e-05	-5e-05	0.00034	-6e-05	-3e-05	-0.00035	-0.00047	-0.00032	2
5226	-9e-05	-5e-05	0.00034	-6e-05	-3e-05	-0.00035	-0.00047	-0.00032	2
5227	-9e-05	-5e-05	0.00034	-6e-05	-3e-05	-0.00035	-0.00047	-0.00032	2
5228	-9e-05	-5e-05	0.00034	-6e-05	-3e-05	-0.00035	-0.00047	-0.00032	2
5229	-9e-05	-5e-05	0.00034	-6e-05	-3e-05	-0.00035	-0.00047	-0.00032	2
5230	-9e-05	-5e-05	0.00034	-6e-05	-3e-05	-0.00035	-0.00047	-0.00032	2
5231	-0.00028	-0.00022	-0.00043	-0.00058	-0.00014	-0.00051	-0.00066	-0.00038	2
5232	-0.00028	-0.00022	-0.00043	-0.00058	-0.00014	-0.00051	-0.00066	-0.00038	2
5233	-0.00028	-0.00022	-0.00043	-0.00058	-0.00014	-0.00051	-0.00066	-0.00038	2
5234	-0.00028	-0.00022	-0.00043	-0.00058	-0.00014	-0.00051	-0.00066	-0.00038	2
5235	-0.00028	-0.00022	-0.00043	-0.00058	-0.00014	-0.00051	-0.00066	-0.00038	2
5236	-0.00028	-0.00022	-0.00043	-0.00058	-0.00014	-0.00051	-0.00066	-0.00038	2
5238	-0.00028	-0.00022	-0.00043	-0.00058	-0.00014	-0.00051	-0.00066	-0.00038	2
5239	-0.00028	-0.00022	-0.00043	-0.00058	-0.00014	-0.00051	-0.00066	-0.00038	2
5240	-0.00028	-0.00022	-0.00043	-0.00058	-0.00014	-0.00051	-0.00066	-0.00038	2
5241	-0.00028	-0.00022	-0.00043	-0.00058	-0.00014	-0.00051	-0.00066	-0.00038	2
5242	-0.00028	-0.00022	-0.00043	-0.00058	-0.00014	-0.00051	-0.00066	-0.00038	2
5243	-0.00028	-0.00022	-0.00043	-0.00058	-0.00014	-0.00051	-0.00066	-0.00038	2
5244	-0.00028	-0.00022	-0.00043	-0.00058	-0.00014	-0.00051	-0.00066	-0.00038	2
5245	7e-05	0.00013	0.00028	0.00056	7e-05	-0.00102	1e-05	0.00015	2
5246	0.0001	-1e-05	2e-05	0.0005	-1e-05	-0.00073	0.00049	0.00039	2
5247	0.0001	-1e-05	2e-05	0.0005	-1e-05	-0.00073	0.00049	0.00039	2
5248	0.0001	-1e-05	2e-05	0.0005	-1e-05	-0.00073	0.00049	0.00039	2
5249	0.0001	-1e-05	2e-05	0.0005	-1e-05	-0.00073	0.00049	0.00039	2
5250	0.0001	-1e-05	2e-05	0.0005	-1e-05	-0.00073	0.00049	0.00039	2
5251	0.0001	-1e-05	2e-05	0.0005	-1e-05	-0.00073	0.00049	0.00039	2
5252	0.0001	-1e-05	2e-05	0.0005	-1e-05	-0.00073	0.00049	0.00039	2
5253	0.0001	-1e-05	2e-05	0.0005	-1e-05	-0.00073	0.00049	0.00039	2
5254	0.0001	-1e-05	2e-05	0.0005	-1e-05	-0.00073	0.00049	0.00039	2
5255	0.0001	-1e-05	2e-05	0.0005	-1e-05	-0.00073	0.00049	0.00039	2
5256	0.0001	-1e-05	2e-05	0.0005	-1e-05	-0.00073	0.00049	0.00039	2
5257	0.0001	-1e-05	2e-05	0.0005	-1e-05	-0.00073	0.00049	0.00039	2
5258	0.0001	-1e-05	2e-05	0.0005	-1e-05	-0.00073	0.00049	0.00039	2
5259	0.0001	-1e-05	2e-05	0.0005	-1e-05	-0.00073	0.00049	0.00039	2
5260	0.0001	-1e-05	2e-05	0.0005	-1e-05	-0.00073	0.00049	0.00039	2
5261	0.0001	-1e-05	2e-05	0.0005	-1e-05	-0.00073	0.00049	0.00039	2
5262	0.0001	-1e-05	2e-05	0.0005	-1e-05	-0.00073	0.00049	0.00039	2
5263	0.0001	-1e-05	2e-05	0.0005	-1e-05	-0.00073	0.00049	0.00039	2
5264	0.0001	-1e-05	2e-05	0.0005	-1e-05	-0.00073	0.00049	0.00039	2
5265	0.0001	-1e-05	2e-05	0.0005	-1e-05	-0.00073	0.00049	0.00039	2
5266	0.0001	-1e-05	2e-05	0.0005	-1e-05	-0.00073	0.00049	0.00039	2
5267	-0.0001	-6e-05	-0.00012	0.00043	8e-05	-6e-05	0.00054	0.00011	2
5268	1e-05	3e-05	4e-05	0.00016	0.00018	0.00086	-0.00033	-0.00012	2
5269	1e-05	3e-05	4e-05	0.00016	0.00018	0.00086	-0.00033	-0.00012	2
5270	1e-05	3e-05	4e-05	0.00016	0.00018	0.00086	-0.00033	-0.00012	2
5271	1e-05	3e-05	4e-05	0.00016	0.00018	0.00086	-0.00033	-0.00012	2
5272	1e-05	3e-05	4e-05	0.00016	0.00018	0.00086	-0.00033	-0.00012	2
5273	1e-05	3e-05	4e-05	0.00016	0.00018	0.00086	-0.00033	-0.00012	2
5274	1e-05	3e-05	4e-05	0.00016	0.00018	0.00086	-0.00033	-0.00012	2
5275	1e-05	3e-05	4e-05	0.00016	0.00018	0.00086	-0.00033	-0.00012	2
5276	1e-05	3e-05	4e-05	0.00016	0.00018	0.00086	-0.00033	-0.00012	2
5277	1e-05	3e-05	4e-05	0.00016	0.00018	0.00086	-0.00033	-0.00012	2
5278	1e-05	3e-05	4e-05	0.00016	0.00018	0.00086	-0.00033	-0.00012	2
5279	1e-05	3e-05	4e-05	0.00016	0.00018	0.00086	-0.00033	-0.00012	2
5280	1e-05	3e-05	4e-05	0.00016	0.00018	0.00086	-0.00033	-0.00012	2
5281	1e-05	3e-05	4e-05	0.00016	0.00018	0.00086	-0.00033	-0.00012	2
5282	1e-05	3e-05	4e-05	0.00016	0.00018	0.00086	-0.00033	-0.00012	2
5283	1e-05	3e-05	4e-05	0.00016	0.00018	0.00086	-0.00033	-0.00012	2
5284	1e-05	3e-05	4e-05	0.00016	0.00018	0.00086	-0.00033	-0.00012	2
5285	1e-05	3e-05	4e-05	0.00016	0.00018	0.00086	-0.00033	-0.00012	2
5286	1e-05	3e-05	4e-05	0.00016	0.00018	0.00086	-0.00033	-0.00012	2
5288	1e-05	3e-05	4e-05	0.00016	0.00018	0.00086	-0.00033	-0.00012	2
5289	1e-05	3e-05	4e-05	0.00016	0.00018	0.00086	-0.00033	-0.00012	2
5290	1e-05	3e-05	4e-05	0.00016	0.00018	0.00086	-0.00033	-0.00012	2
5291	0.00026	-7e-05	-0.00024	2e-05	1e-05	0.00031	-6e-05	0.00019	2
5292	0.00026	-7e-05	-0.00024	2e-05	1e-05	0.00031	-6e-05	0.00019	2
5293	0.00026	-7e-05	-0.00024	2e-05	1e-05	0.00031	-6e-05	0.00019	2
5294	0.00026	-7e-05	-0.00024	2e-05	1e-05	0.00031	-6e-05	0.00019	2
5295	0.00026	-7e-05	-0.00024	2e-05	1e-05	0.00031	-6e-05	0.00019	2
5296	0.00026	-7e-05	-0.00024	2e-05	1e-05	0.00031	-6e-05	0.00019	2
5297	0.00026	-7e-05	-0.00024	2e-05	1e-05	0.00031	-6e-05	0.00019	2
5298	0.00026	-7e-05	-0.00024	2e-05	1e-05	0.00031	-6e-05	0.00019	2
5299	0.00026	-7e-05	-0.00024	2e-05	1e-05	0.00031	-6e-05	0.00019	2
5300	0.00026	-7e-05	-0.00024	2e-05	1e-05	0.00031	-6e-05	0.00019	2
5301	0.00026	-7e-05	-0.00024	2e-05	1e-05	0.00031	-6e-05	0.00019	2
5302	0.00026	-7e-05	-0.00024	2e-05	1e-05	0.00031	-6e-05	0.00019	2
5303	0.00026	-7e-05	-0.00024	2e-05	1e-05	0.00031	-6e-05	0.00019	2
5304	0.00026	-7e-05	-0.00024	2e-05	1e-05	0.00031	-6e-05	0.00019	2
5305	-0.00032	-9e-05	-0.00022	-0.00045	-0.00013	3e-05	-0.00026	-0.00058	2
5306	1e-05	-3e-05	0.0002	0.00054	-0.00015	-0.00062	-0.00098	0.00011	2
5307	8e-05	0.0001	5e-05	-0.00015	0.0003	0.00079	0.00127	0.00017	2
5308	8e-05	0.0001	5e-05	-0.00015	0.0003	0.00079	0.00127	0.00017	2
5309	8e-05	0.0001	5e-05	-0.00015	0.0003	0.00079	0.00127	0.00017	2
5310	8e-05	0.0001	5e-05	-0.00015	0.0003	0.00079	0.00127	0.00017	2
5311	8e-05	0.0001	5e-05	-0.00015	0.0003	0.00079	0.00127	0.00017	2
5312	8e-05	0.0001	5e-05	-0.00015	0.0003	0.00079	0.00127	0.00017	2
5313	8e-05	0.0001	5e-05	-0.00015	0.0003	0.00079	0.00127	0.00017	2
5314	8e-05	0.0001	5e-05	-0.00015	0.0003	0.00079	0.00127	0.00017	2
5315	8e-05	0.0001	5e-05	-0.00015	0.0003	0.00079	0.00127	0.00017	2
5316	8e-05	0.0001	5e-05	-0.00015	0.0003	0.00079	0.00127	0.00017	2
5317	8e-05	0.0001	5e-05	-0.00015	0.0003	0.00079	0.00127	0.00017	2
5318	8e-05	0.0001	5e-05	-0.00015	0.0003	0.00079	0.00127	0.00017	2
5319	8e-05	0.0001	5e-05	-0.00015	0.0003	0.00079	0.00127	0.00017	2
5320	8e-05	0.0001	5e-05	-0.00015	0.0003	0.00079	0.00127	0.00017	2
5321	8e-05	0.0001	5e-05	-0.00015	0.0003	0.00079	0.00127	0.00017	2
5322	8e-05	0.0001	5e-05	-0.00015	0.0003	0.00079	0.00127	0.00017	2
5323	8e-05	0.0001	5e-05	-0.00015	0.0003	0.00079	0.00127	0.00017	2
5324	8e-05	0.0001	5e-05	-0.00015	0.0003	0.00079	0.00127	0.00017	2
5325	8e-05	0.0001	5e-05	-0.00015	0.0003	0.00079	0.00127	0.00017	2
5326	8e-05	0.0001	5e-05	-0.00015	0.0003	0.00079	0.00127	0.00017	2
5327	8e-05	0.0001	5e-05	-0.00015	0.0003	0.00079	0.00127	0.00017	2
5328	-0.0001	-3e-05	4e-05	-0.00041	-2e-05	-0.00068	-0.00086	-0.00018	2
5329	-1e-05	-1e-05	5e-05	0.00036	0.00016	0.00066	0.0008	0.00017	2
5330	-1e-05	-1e-05	5e-05	0.00036	0.00016	0.00066	0.0008	0.00017	2
5331	-1e-05	-1e-05	5e-05	0.00036	0.00016	0.00066	0.0008	0.00017	2
5332	-1e-05	-1e-05	5e-05	0.00036	0.00016	0.00066	0.0008	0.00017	2
5333	-1e-05	-1e-05	5e-05	0.00036	0.00016	0.00066	0.0008	0.00017	2
5334	-1e-05	-1e-05	5e-05	0.00036	0.00016	0.00066	0.0008	0.00017	2
5335	-1e-05	-1e-05	5e-05	0.00036	0.00016	0.00066	0.0008	0.00017	2
5336	-1e-05	-1e-05	5e-05	0.00036	0.00016	0.00066	0.0008	0.00017	2
5338	-1e-05	-1e-05	5e-05	0.00036	0.00016	0.00066	0.0008	0.00017	2
5339	-1e-05	-1e-05	5e-05	0.00036	0.00016	0.00066	0.0008	0.00017	2
5340	-1e-05	-1e-05	5e-05	0.00036	0.00016	0.00066	0.0008	0.00017	2
5341	-1e-05	-1e-05	5e-05	0.00036	0.00016	0.00066	0.0008	0.00017	2
5342	-1e-05	-1e-05	5e-05	0.00036	0.00016	0.00066	0.0008	0.00017	2
5344	-1e-05	-1e-05	5e-05	0.00036	0.00016	0.00066	0.0008	0.00017	2
5345	-1e-05	-1e-05	5e-05	0.00036	0.00016	0.00066	0.0008	0.00017	2
5346	-1e-05	-1e-05	5e-05	0.00036	0.00016	0.00066	0.0008	0.00017	2
5347	-1e-05	-1e-05	5e-05	0.00036	0.00016	0.00066	0.0008	0.00017	2
5348	-1e-05	-1e-05	5e-05	0.00036	0.00016	0.00066	0.0008	0.00017	2
5349	-1e-05	-1e-05	5e-05	0.00036	0.00016	0.00066	0.0008	0.00017	2
5350	-1e-05	-1e-05	5e-05	0.00036	0.00016	0.00066	0.0008	0.00017	2
5351	-4e-05	-1e-05	0.00035	0.00078	-0.00038	-0.0009	-0.00106	-0.00026	2
5352	-4e-05	-1e-05	0.00035	0.00078	-0.00038	-0.0009	-0.00106	-0.00026	2
5353	-4e-05	-1e-05	0.00035	0.00078	-0.00038	-0.0009	-0.00106	-0.00026	2
5354	-4e-05	-1e-05	0.00035	0.00078	-0.00038	-0.0009	-0.00106	-0.00026	2
5355	-4e-05	-1e-05	0.00035	0.00078	-0.00038	-0.0009	-0.00106	-0.00026	2
5356	-4e-05	-1e-05	0.00035	0.00078	-0.00038	-0.0009	-0.00106	-0.00026	2
5357	-4e-05	-1e-05	0.00035	0.00078	-0.00038	-0.0009	-0.00106	-0.00026	2
5358	-4e-05	-1e-05	0.00035	0.00078	-0.00038	-0.0009	-0.00106	-0.00026	2
5359	-4e-05	-1e-05	0.00035	0.00078	-0.00038	-0.0009	-0.00106	-0.00026	2
5360	-4e-05	-1e-05	0.00035	0.00078	-0.00038	-0.0009	-0.00106	-0.00026	2
5361	-4e-05	-1e-05	0.00035	0.00078	-0.00038	-0.0009	-0.00106	-0.00026	2
5362	-4e-05	-1e-05	0.00035	0.00078	-0.00038	-0.0009	-0.00106	-0.00026	2
5363	-4e-05	-1e-05	0.00035	0.00078	-0.00038	-0.0009	-0.00106	-0.00026	2
5364	-4e-05	-1e-05	0.00035	0.00078	-0.00038	-0.0009	-0.00106	-0.00026	2
5365	8e-05	3e-05	0.00019	0.00071	-3e-05	-2e-05	-0.00021	8e-05	2
5366	-0.0001	1e-05	-5e-05	0.00011	9e-05	-0.00047	-0.00098	-0.00029	2
5367	-0.0001	1e-05	-5e-05	0.00011	9e-05	-0.00047	-0.00098	-0.00029	2
5368	-0.0001	1e-05	-5e-05	0.00011	9e-05	-0.00047	-0.00098	-0.00029	2
5369	-0.0001	1e-05	-5e-05	0.00011	9e-05	-0.00047	-0.00098	-0.00029	2
5370	-0.0001	1e-05	-5e-05	0.00011	9e-05	-0.00047	-0.00098	-0.00029	2
5371	-0.0001	1e-05	-5e-05	0.00011	9e-05	-0.00047	-0.00098	-0.00029	2
5372	-0.0001	1e-05	-5e-05	0.00011	9e-05	-0.00047	-0.00098	-0.00029	2
5374	-0.0001	1e-05	-5e-05	0.00011	9e-05	-0.00047	-0.00098	-0.00029	2
5375	-0.0001	1e-05	-5e-05	0.00011	9e-05	-0.00047	-0.00098	-0.00029	2
5376	-0.0001	1e-05	-5e-05	0.00011	9e-05	-0.00047	-0.00098	-0.00029	2
5377	-0.0001	1e-05	-5e-05	0.00011	9e-05	-0.00047	-0.00098	-0.00029	2
5378	-0.0001	1e-05	-5e-05	0.00011	9e-05	-0.00047	-0.00098	-0.00029	2
5379	-0.0001	1e-05	-5e-05	0.00011	9e-05	-0.00047	-0.00098	-0.00029	2
5380	-0.0001	1e-05	-5e-05	0.00011	9e-05	-0.00047	-0.00098	-0.00029	2
5381	-0.0001	1e-05	-5e-05	0.00011	9e-05	-0.00047	-0.00098	-0.00029	2
5382	-0.0001	1e-05	-5e-05	0.00011	9e-05	-0.00047	-0.00098	-0.00029	2
5383	-0.0001	1e-05	-5e-05	0.00011	9e-05	-0.00047	-0.00098	-0.00029	2
5384	-0.0001	1e-05	-5e-05	0.00011	9e-05	-0.00047	-0.00098	-0.00029	2
5385	-0.0001	1e-05	-5e-05	0.00011	9e-05	-0.00047	-0.00098	-0.00029	2
5386	-0.0001	1e-05	-5e-05	0.00011	9e-05	-0.00047	-0.00098	-0.00029	2
5389	0.00021	3e-05	0.00011	0.00019	1e-05	-0.00015	0.00048	0.00033	2
5390	0.00021	3e-05	0.00011	0.00019	1e-05	-0.00015	0.00048	0.00033	2
5391	0.00021	3e-05	0.00011	0.00019	1e-05	-0.00015	0.00048	0.00033	2
5392	0.00021	3e-05	0.00011	0.00019	1e-05	-0.00015	0.00048	0.00033	2
5394	0.00021	3e-05	0.00011	0.00019	1e-05	-0.00015	0.00048	0.00033	2
5395	0.00021	3e-05	0.00011	0.00019	1e-05	-0.00015	0.00048	0.00033	2
5396	0.00021	3e-05	0.00011	0.00019	1e-05	-0.00015	0.00048	0.00033	2
5397	0.00021	3e-05	0.00011	0.00019	1e-05	-0.00015	0.00048	0.00033	2
5398	0.00021	3e-05	0.00011	0.00019	1e-05	-0.00015	0.00048	0.00033	2
5399	0.00021	3e-05	0.00011	0.00019	1e-05	-0.00015	0.00048	0.00033	2
5400	0.00021	3e-05	0.00011	0.00019	1e-05	-0.00015	0.00048	0.00033	2
5401	0.00021	3e-05	0.00011	0.00019	1e-05	-0.00015	0.00048	0.00033	2
5402	0.00021	3e-05	0.00011	0.00019	1e-05	-0.00015	0.00048	0.00033	2
5403	0.00021	3e-05	0.00011	0.00019	1e-05	-0.00015	0.00048	0.00033	2
5404	0.00021	3e-05	0.00011	0.00019	1e-05	-0.00015	0.00048	0.00033	2
5405	0.00021	3e-05	0.00011	0.00019	1e-05	-0.00015	0.00048	0.00033	2
5406	0.00021	3e-05	0.00011	0.00019	1e-05	-0.00015	0.00048	0.00033	2
5407	0.00021	3e-05	0.00011	0.00019	1e-05	-0.00015	0.00048	0.00033	2
5408	0.00021	3e-05	0.00011	0.00019	1e-05	-0.00015	0.00048	0.00033	2
5409	0.00021	3e-05	0.00011	0.00019	1e-05	-0.00015	0.00048	0.00033	2
5410	0.00021	3e-05	0.00011	0.00019	1e-05	-0.00015	0.00048	0.00033	2
5411	-0.00012	-0.00013	-0.00033	-0.00113	-0.00018	-4e-05	6e-05	-0.00051	2
5412	0.00016	1e-05	1e-05	-8e-05	2e-05	0.00053	0.00062	0.00037	2
5413	0.00016	1e-05	1e-05	-8e-05	2e-05	0.00053	0.00062	0.00037	2
5414	0.00016	1e-05	1e-05	-8e-05	2e-05	0.00053	0.00062	0.00037	2
5415	0.00016	1e-05	1e-05	-8e-05	2e-05	0.00053	0.00062	0.00037	2
5416	0.00016	1e-05	1e-05	-8e-05	2e-05	0.00053	0.00062	0.00037	2
5417	0.00016	1e-05	1e-05	-8e-05	2e-05	0.00053	0.00062	0.00037	2
5418	0.00016	1e-05	1e-05	-8e-05	2e-05	0.00053	0.00062	0.00037	2
5419	0.00016	1e-05	1e-05	-8e-05	2e-05	0.00053	0.00062	0.00037	2
5420	0.00016	1e-05	1e-05	-8e-05	2e-05	0.00053	0.00062	0.00037	2
5421	0.00016	1e-05	1e-05	-8e-05	2e-05	0.00053	0.00062	0.00037	2
5422	0.00016	1e-05	1e-05	-8e-05	2e-05	0.00053	0.00062	0.00037	2
5423	0.00016	1e-05	1e-05	-8e-05	2e-05	0.00053	0.00062	0.00037	2
5424	0.00016	1e-05	1e-05	-8e-05	2e-05	0.00053	0.00062	0.00037	2
5425	0.00016	1e-05	1e-05	-8e-05	2e-05	0.00053	0.00062	0.00037	2
5426	0.00016	1e-05	1e-05	-8e-05	2e-05	0.00053	0.00062	0.00037	2
5427	0.00016	1e-05	1e-05	-8e-05	2e-05	0.00053	0.00062	0.00037	2
5428	0.00016	1e-05	1e-05	-8e-05	2e-05	0.00053	0.00062	0.00037	2
5429	0.00016	1e-05	1e-05	-8e-05	2e-05	0.00053	0.00062	0.00037	2
5430	0.00016	1e-05	1e-05	-8e-05	2e-05	0.00053	0.00062	0.00037	2
5431	0.00016	1e-05	1e-05	-8e-05	2e-05	0.00053	0.00062	0.00037	2
5432	0.00016	1e-05	1e-05	-8e-05	2e-05	0.00053	0.00062	0.00037	2
5433	0.00028	9e-05	0.00021	0.00037	5e-05	-0.00045	-0.00092	0.00052	2
5434	-8e-05	-7e-05	-0.00029	-0.00101	-5e-05	-0.00018	-0.00033	-0.00011	2
5435	-8e-05	-7e-05	-0.00029	-0.00101	-5e-05	-0.00018	-0.00033	-0.00011	2
5436	-8e-05	-7e-05	-0.00029	-0.00101	-5e-05	-0.00018	-0.00033	-0.00011	2
5438	-8e-05	-7e-05	-0.00029	-0.00101	-5e-05	-0.00018	-0.00033	-0.00011	2
5439	-8e-05	-7e-05	-0.00029	-0.00101	-5e-05	-0.00018	-0.00033	-0.00011	2
5440	-8e-05	-7e-05	-0.00029	-0.00101	-5e-05	-0.00018	-0.00033	-0.00011	2
5441	-8e-05	-7e-05	-0.00029	-0.00101	-5e-05	-0.00018	-0.00033	-0.00011	2
5442	-8e-05	-7e-05	-0.00029	-0.00101	-5e-05	-0.00018	-0.00033	-0.00011	2
5443	-8e-05	-7e-05	-0.00029	-0.00101	-5e-05	-0.00018	-0.00033	-0.00011	2
5444	-8e-05	-7e-05	-0.00029	-0.00101	-5e-05	-0.00018	-0.00033	-0.00011	2
5445	-8e-05	-7e-05	-0.00029	-0.00101	-5e-05	-0.00018	-0.00033	-0.00011	2
5446	-8e-05	-7e-05	-0.00029	-0.00101	-5e-05	-0.00018	-0.00033	-0.00011	2
5447	-8e-05	-7e-05	-0.00029	-0.00101	-5e-05	-0.00018	-0.00033	-0.00011	2
5448	0.00019	0.00013	9e-05	-0.00032	0.00036	-3e-05	0.00086	0.00068	2
5449	-0.0001	-3e-05	-0.00035	-0.00012	0.00024	0.00014	0.00062	0.0001	2
5450	-0.0001	-3e-05	-0.00035	-0.00012	0.00024	0.00014	0.00062	0.0001	2
5451	-0.0001	-3e-05	-0.00035	-0.00012	0.00024	0.00014	0.00062	0.0001	2
5452	-0.0001	-3e-05	-0.00035	-0.00012	0.00024	0.00014	0.00062	0.0001	2
5453	-0.0001	-3e-05	-0.00035	-0.00012	0.00024	0.00014	0.00062	0.0001	2
5454	-0.0001	-3e-05	-0.00035	-0.00012	0.00024	0.00014	0.00062	0.0001	2
5455	-0.0001	-3e-05	-0.00035	-0.00012	0.00024	0.00014	0.00062	0.0001	2
5456	-0.0001	-3e-05	-0.00035	-0.00012	0.00024	0.00014	0.00062	0.0001	2
5457	-0.0001	-3e-05	-0.00035	-0.00012	0.00024	0.00014	0.00062	0.0001	2
5458	-0.0001	-3e-05	-0.00035	-0.00012	0.00024	0.00014	0.00062	0.0001	2
5459	-0.0001	-3e-05	-0.00035	-0.00012	0.00024	0.00014	0.00062	0.0001	2
5460	-0.0001	-3e-05	-0.00035	-0.00012	0.00024	0.00014	0.00062	0.0001	2
5461	-0.0001	-3e-05	-0.00035	-0.00012	0.00024	0.00014	0.00062	0.0001	2
5462	-0.0001	-3e-05	-0.00035	-0.00012	0.00024	0.00014	0.00062	0.0001	2
5463	-0.0001	-3e-05	-0.00035	-0.00012	0.00024	0.00014	0.00062	0.0001	2
5464	-0.0001	-3e-05	-0.00035	-0.00012	0.00024	0.00014	0.00062	0.0001	2
5465	-0.0001	-3e-05	-0.00035	-0.00012	0.00024	0.00014	0.00062	0.0001	2
5466	-0.0001	-3e-05	-0.00035	-0.00012	0.00024	0.00014	0.00062	0.0001	2
5467	-0.0001	-3e-05	-0.00035	-0.00012	0.00024	0.00014	0.00062	0.0001	2
5468	-0.0001	-3e-05	-0.00035	-0.00012	0.00024	0.00014	0.00062	0.0001	2
5469	-0.0001	-3e-05	-0.00035	-0.00012	0.00024	0.00014	0.00062	0.0001	2
5470	-0.0001	-3e-05	-0.00035	-0.00012	0.00024	0.00014	0.00062	0.0001	2
5471	-0.0001	-3e-05	-0.00035	-0.00012	0.00024	0.00014	0.00062	0.0001	2
5472	-0.0001	-3e-05	-0.00035	-0.00012	0.00024	0.00014	0.00062	0.0001	2
5473	-0.0001	-3e-05	-0.00035	-0.00012	0.00024	0.00014	0.00062	0.0001	2
5474	-0.0001	-3e-05	-0.00035	-0.00012	0.00024	0.00014	0.00062	0.0001	2
5475	-0.0001	-3e-05	-0.00035	-0.00012	0.00024	0.00014	0.00062	0.0001	2
5476	-0.0001	-3e-05	-0.00035	-0.00012	0.00024	0.00014	0.00062	0.0001	2
5477	-0.0001	-3e-05	-0.00035	-0.00012	0.00024	0.00014	0.00062	0.0001	2
5478	-5e-05	-3e-05	5e-05	-3e-05	-0.00017	-0.00029	-0.00082	-0.00036	2
5479	-0.00046	-7e-05	0.00019	0.00017	-0.00015	-8e-05	-0.00048	-0.00064	2
5480	-0.00046	-7e-05	0.00019	0.00017	-0.00015	-8e-05	-0.00048	-0.00064	2
5481	-0.00046	-7e-05	0.00019	0.00017	-0.00015	-8e-05	-0.00048	-0.00064	2
5482	-0.00046	-7e-05	0.00019	0.00017	-0.00015	-8e-05	-0.00048	-0.00064	2
5483	-0.00046	-7e-05	0.00019	0.00017	-0.00015	-8e-05	-0.00048	-0.00064	2
5484	-0.00046	-7e-05	0.00019	0.00017	-0.00015	-8e-05	-0.00048	-0.00064	2
5485	-0.00046	-7e-05	0.00019	0.00017	-0.00015	-8e-05	-0.00048	-0.00064	2
5486	-0.00046	-7e-05	0.00019	0.00017	-0.00015	-8e-05	-0.00048	-0.00064	2
5488	-0.00046	-7e-05	0.00019	0.00017	-0.00015	-8e-05	-0.00048	-0.00064	2
5489	-0.00046	-7e-05	0.00019	0.00017	-0.00015	-8e-05	-0.00048	-0.00064	2
5490	-0.00046	-7e-05	0.00019	0.00017	-0.00015	-8e-05	-0.00048	-0.00064	2
5491	-0.00046	-7e-05	0.00019	0.00017	-0.00015	-8e-05	-0.00048	-0.00064	2
5492	-0.00046	-7e-05	0.00019	0.00017	-0.00015	-8e-05	-0.00048	-0.00064	2
5493	-3e-05	-7e-05	-0.00011	-0.00031	0.00018	-0.00072	-0.00042	-9e-05	2
5494	-0.00014	-0.0001	-0.00032	-0.00028	-3e-05	-0.00058	-0.00128	-0.00031	2
5495	-0.00014	-0.0001	-0.00032	-0.00028	-3e-05	-0.00058	-0.00128	-0.00031	2
5496	-0.00014	-0.0001	-0.00032	-0.00028	-3e-05	-0.00058	-0.00128	-0.00031	2
5497	-0.00014	-0.0001	-0.00032	-0.00028	-3e-05	-0.00058	-0.00128	-0.00031	2
5498	-0.00014	-0.0001	-0.00032	-0.00028	-3e-05	-0.00058	-0.00128	-0.00031	2
5499	-0.00014	-0.0001	-0.00032	-0.00028	-3e-05	-0.00058	-0.00128	-0.00031	2
5500	-0.00014	-0.0001	-0.00032	-0.00028	-3e-05	-0.00058	-0.00128	-0.00031	2
5501	-0.00014	-0.0001	-0.00032	-0.00028	-3e-05	-0.00058	-0.00128	-0.00031	2
5502	-0.00014	-0.0001	-0.00032	-0.00028	-3e-05	-0.00058	-0.00128	-0.00031	2
5503	-0.00014	-0.0001	-0.00032	-0.00028	-3e-05	-0.00058	-0.00128	-0.00031	2
5504	-0.00014	-0.0001	-0.00032	-0.00028	-3e-05	-0.00058	-0.00128	-0.00031	2
5505	-0.00014	-0.0001	-0.00032	-0.00028	-3e-05	-0.00058	-0.00128	-0.00031	2
5506	-0.00014	-0.0001	-0.00032	-0.00028	-3e-05	-0.00058	-0.00128	-0.00031	2
5507	-0.00014	-0.0001	-0.00032	-0.00028	-3e-05	-0.00058	-0.00128	-0.00031	2
5508	0.00017	7e-05	-7e-05	0.00052	4e-05	-0.00037	-0.00037	-0.00041	2
5509	0.00021	-5e-05	-0.0001	-0.00023	-8e-05	8e-05	0.00033	0.00043	2
5510	0.00021	-5e-05	-0.0001	-0.00023	-8e-05	8e-05	0.00033	0.00043	2
5511	0.00021	-5e-05	-0.0001	-0.00023	-8e-05	8e-05	0.00033	0.00043	2
5512	0.00021	-5e-05	-0.0001	-0.00023	-8e-05	8e-05	0.00033	0.00043	2
5513	0.00021	-5e-05	-0.0001	-0.00023	-8e-05	8e-05	0.00033	0.00043	2
5514	0.00021	-5e-05	-0.0001	-0.00023	-8e-05	8e-05	0.00033	0.00043	2
5515	0.00021	-5e-05	-0.0001	-0.00023	-8e-05	8e-05	0.00033	0.00043	2
5516	0.00021	-5e-05	-0.0001	-0.00023	-8e-05	8e-05	0.00033	0.00043	2
5517	0.00021	-5e-05	-0.0001	-0.00023	-8e-05	8e-05	0.00033	0.00043	2
5518	0.00021	-5e-05	-0.0001	-0.00023	-8e-05	8e-05	0.00033	0.00043	2
5519	0.00021	-5e-05	-0.0001	-0.00023	-8e-05	8e-05	0.00033	0.00043	2
5520	0.00021	-5e-05	-0.0001	-0.00023	-8e-05	8e-05	0.00033	0.00043	2
5521	0.00021	-5e-05	-0.0001	-0.00023	-8e-05	8e-05	0.00033	0.00043	2
5522	0.00021	-5e-05	-0.0001	-0.00023	-8e-05	8e-05	0.00033	0.00043	2
5523	0.00021	-5e-05	-0.0001	-0.00023	-8e-05	8e-05	0.00033	0.00043	2
5524	0.00021	-5e-05	-0.0001	-0.00023	-8e-05	8e-05	0.00033	0.00043	2
5525	0.00021	-5e-05	-0.0001	-0.00023	-8e-05	8e-05	0.00033	0.00043	2
5526	0.00021	-5e-05	-0.0001	-0.00023	-8e-05	8e-05	0.00033	0.00043	2
5527	0.00021	-5e-05	-0.0001	-0.00023	-8e-05	8e-05	0.00033	0.00043	2
5528	0.00021	-5e-05	-0.0001	-0.00023	-8e-05	8e-05	0.00033	0.00043	2
5529	0.00021	-5e-05	-0.0001	-0.00023	-8e-05	8e-05	0.00033	0.00043	2
5530	0.00021	-5e-05	-0.0001	-0.00023	-8e-05	8e-05	0.00033	0.00043	2
5531	-0.0001	3e-05	0.00018	-0.00011	-0.0001	0.00013	0.00031	-0.00021	2
5532	-0.0001	3e-05	0.00018	-0.00011	-0.0001	0.00013	0.00031	-0.00021	2
5533	-0.0001	3e-05	0.00018	-0.00011	-0.0001	0.00013	0.00031	-0.00021	2
5534	-0.0001	3e-05	0.00018	-0.00011	-0.0001	0.00013	0.00031	-0.00021	2
5535	-0.0001	3e-05	0.00018	-0.00011	-0.0001	0.00013	0.00031	-0.00021	2
5536	-0.0001	3e-05	0.00018	-0.00011	-0.0001	0.00013	0.00031	-0.00021	2
5538	-0.0001	3e-05	0.00018	-0.00011	-0.0001	0.00013	0.00031	-0.00021	2
5539	-0.0001	3e-05	0.00018	-0.00011	-0.0001	0.00013	0.00031	-0.00021	2
5540	-0.0001	3e-05	0.00018	-0.00011	-0.0001	0.00013	0.00031	-0.00021	2
5541	-0.0001	3e-05	0.00018	-0.00011	-0.0001	0.00013	0.00031	-0.00021	2
5542	-0.0001	3e-05	0.00018	-0.00011	-0.0001	0.00013	0.00031	-0.00021	2
5543	-0.0001	3e-05	0.00018	-0.00011	-0.0001	0.00013	0.00031	-0.00021	2
5544	-9e-05	-9e-05	-8e-05	7e-05	-5e-05	-0.0001	-1e-05	-0.00014	2
5545	-9e-05	-9e-05	-8e-05	7e-05	-5e-05	-0.0001	-1e-05	-0.00014	2
5546	-9e-05	-9e-05	-8e-05	7e-05	-5e-05	-0.0001	-1e-05	-0.00014	2
5547	-9e-05	-9e-05	-8e-05	7e-05	-5e-05	-0.0001	-1e-05	-0.00014	2
5548	-9e-05	-9e-05	-8e-05	7e-05	-5e-05	-0.0001	-1e-05	-0.00014	2
5549	-9e-05	-9e-05	-8e-05	7e-05	-5e-05	-0.0001	-1e-05	-0.00014	2
5550	-9e-05	-9e-05	-8e-05	7e-05	-5e-05	-0.0001	-1e-05	-0.00014	2
5551	-9e-05	-9e-05	-8e-05	7e-05	-5e-05	-0.0001	-1e-05	-0.00014	2
5552	-3e-05	9e-05	0.00012	0.00075	6e-05	-9e-05	-0.00077	6e-05	2
5553	-3e-05	9e-05	0.00012	0.00075	6e-05	-9e-05	-0.00077	6e-05	2
5554	-3e-05	9e-05	0.00012	0.00075	6e-05	-9e-05	-0.00077	6e-05	2
5555	-3e-05	9e-05	0.00012	0.00075	6e-05	-9e-05	-0.00077	6e-05	2
5556	-3e-05	9e-05	0.00012	0.00075	6e-05	-9e-05	-0.00077	6e-05	2
5557	-3e-05	9e-05	0.00012	0.00075	6e-05	-9e-05	-0.00077	6e-05	2
5558	-3e-05	9e-05	0.00012	0.00075	6e-05	-9e-05	-0.00077	6e-05	2
5559	-3e-05	9e-05	0.00012	0.00075	6e-05	-9e-05	-0.00077	6e-05	2
5560	-3e-05	9e-05	0.00012	0.00075	6e-05	-9e-05	-0.00077	6e-05	2
5561	-3e-05	9e-05	0.00012	0.00075	6e-05	-9e-05	-0.00077	6e-05	2
5562	-3e-05	9e-05	0.00012	0.00075	6e-05	-9e-05	-0.00077	6e-05	2
5564	-3e-05	9e-05	0.00012	0.00075	6e-05	-9e-05	-0.00077	6e-05	2
5565	-3e-05	9e-05	0.00012	0.00075	6e-05	-9e-05	-0.00077	6e-05	2
5566	-3e-05	9e-05	0.00012	0.00075	6e-05	-9e-05	-0.00077	6e-05	2
5567	-3e-05	9e-05	0.00012	0.00075	6e-05	-9e-05	-0.00077	6e-05	2
5568	8e-05	4e-05	0.0001	-6e-05	-0.00014	8e-05	0.00029	0.0003	2
5569	8e-05	4e-05	0.0001	-6e-05	-0.00014	8e-05	0.00029	0.0003	2
5570	8e-05	4e-05	0.0001	-6e-05	-0.00014	8e-05	0.00029	0.0003	2
5571	8e-05	4e-05	0.0001	-6e-05	-0.00014	8e-05	0.00029	0.0003	2
5572	8e-05	4e-05	0.0001	-6e-05	-0.00014	8e-05	0.00029	0.0003	2
5573	8e-05	4e-05	0.0001	-6e-05	-0.00014	8e-05	0.00029	0.0003	2
5574	8e-05	4e-05	0.0001	-6e-05	-0.00014	8e-05	0.00029	0.0003	2
5575	8e-05	4e-05	0.0001	-6e-05	-0.00014	8e-05	0.00029	0.0003	2
5576	8e-05	4e-05	0.0001	-6e-05	-0.00014	8e-05	0.00029	0.0003	2
5577	8e-05	4e-05	0.0001	-6e-05	-0.00014	8e-05	0.00029	0.0003	2
5578	8e-05	4e-05	0.0001	-6e-05	-0.00014	8e-05	0.00029	0.0003	2
5579	8e-05	4e-05	0.0001	-6e-05	-0.00014	8e-05	0.00029	0.0003	2
5580	8e-05	4e-05	0.0001	-6e-05	-0.00014	8e-05	0.00029	0.0003	2
5581	8e-05	4e-05	0.0001	-6e-05	-0.00014	8e-05	0.00029	0.0003	2
5582	8e-05	4e-05	0.0001	-6e-05	-0.00014	8e-05	0.00029	0.0003	2
5583	8e-05	4e-05	0.0001	-6e-05	-0.00014	8e-05	0.00029	0.0003	2
5584	8e-05	4e-05	0.0001	-6e-05	-0.00014	8e-05	0.00029	0.0003	2
5585	8e-05	4e-05	0.0001	-6e-05	-0.00014	8e-05	0.00029	0.0003	2
5586	8e-05	4e-05	0.0001	-6e-05	-0.00014	8e-05	0.00029	0.0003	2
5588	8e-05	4e-05	0.0001	-6e-05	-0.00014	8e-05	0.00029	0.0003	2
5589	8e-05	4e-05	0.0001	-6e-05	-0.00014	8e-05	0.00029	0.0003	2
5590	8e-05	4e-05	0.0001	-6e-05	-0.00014	8e-05	0.00029	0.0003	2
5591	-9e-05	-6e-05	-4e-05	6e-05	0	-0.00029	-0.00118	-0.0003	2
5592	-0.00017	-6e-05	-0.00014	0.00014	4e-05	0.00014	0.0007	-0.00016	2
5593	-0.00017	-6e-05	-0.00014	0.00014	4e-05	0.00014	0.0007	-0.00016	2
5594	-0.00017	-6e-05	-0.00014	0.00014	4e-05	0.00014	0.0007	-0.00016	2
5595	-0.00017	-6e-05	-0.00014	0.00014	4e-05	0.00014	0.0007	-0.00016	2
5596	-0.00017	-6e-05	-0.00014	0.00014	4e-05	0.00014	0.0007	-0.00016	2
5597	-0.00017	-6e-05	-0.00014	0.00014	4e-05	0.00014	0.0007	-0.00016	2
5598	-0.00017	-6e-05	-0.00014	0.00014	4e-05	0.00014	0.0007	-0.00016	2
5599	-0.00017	-6e-05	-0.00014	0.00014	4e-05	0.00014	0.0007	-0.00016	2
5600	-0.00017	-6e-05	-0.00014	0.00014	4e-05	0.00014	0.0007	-0.00016	2
5601	-0.00017	-6e-05	-0.00014	0.00014	4e-05	0.00014	0.0007	-0.00016	2
5602	-0.00017	-6e-05	-0.00014	0.00014	4e-05	0.00014	0.0007	-0.00016	2
5603	-0.00017	-6e-05	-0.00014	0.00014	4e-05	0.00014	0.0007	-0.00016	2
5604	-1e-05	-0.0001	-0.00011	3e-05	1e-05	-4e-05	-0.00083	-0.00013	2
5605	-1e-05	-0.0001	-0.00011	3e-05	1e-05	-4e-05	-0.00083	-0.00013	2
5606	-1e-05	-0.0001	-0.00011	3e-05	1e-05	-4e-05	-0.00083	-0.00013	2
5608	-1e-05	-0.0001	-0.00011	3e-05	1e-05	-4e-05	-0.00083	-0.00013	2
5609	-1e-05	-0.0001	-0.00011	3e-05	1e-05	-4e-05	-0.00083	-0.00013	2
5610	-1e-05	-0.0001	-0.00011	3e-05	1e-05	-4e-05	-0.00083	-0.00013	2
5611	-1e-05	-0.0001	-0.00011	3e-05	1e-05	-4e-05	-0.00083	-0.00013	2
5612	0.00013	4e-05	0.00028	0.00063	0	-0.00046	-0.00046	-6e-05	2
5613	0.00013	4e-05	0.00028	0.00063	0	-0.00046	-0.00046	-6e-05	2
5614	0.00013	4e-05	0.00028	0.00063	0	-0.00046	-0.00046	-6e-05	2
5615	0.00013	4e-05	0.00028	0.00063	0	-0.00046	-0.00046	-6e-05	2
5616	0.00013	4e-05	0.00028	0.00063	0	-0.00046	-0.00046	-6e-05	2
5617	0.00013	4e-05	0.00028	0.00063	0	-0.00046	-0.00046	-6e-05	2
5618	0.00013	4e-05	0.00028	0.00063	0	-0.00046	-0.00046	-6e-05	2
5619	0.00013	4e-05	0.00028	0.00063	0	-0.00046	-0.00046	-6e-05	2
5620	0.00013	4e-05	0.00028	0.00063	0	-0.00046	-0.00046	-6e-05	2
5621	0.00013	4e-05	0.00028	0.00063	0	-0.00046	-0.00046	-6e-05	2
5622	0.00013	4e-05	0.00028	0.00063	0	-0.00046	-0.00046	-6e-05	2
5623	0.00013	4e-05	0.00028	0.00063	0	-0.00046	-0.00046	-6e-05	2
5624	0.00013	4e-05	0.00028	0.00063	0	-0.00046	-0.00046	-6e-05	2
5625	0.00013	4e-05	0.00028	0.00063	0	-0.00046	-0.00046	-6e-05	2
5626	0.00013	4e-05	0.00028	0.00063	0	-0.00046	-0.00046	-6e-05	2
5627	-0.0001	-0.00012	-0.00024	0.00031	3e-05	-0.00051	0.00029	-0.00018	2
5628	0.00025	0.00012	8e-05	0.00043	0.00012	0.00022	0.00062	5e-05	2
5629	0.00025	0.00012	8e-05	0.00043	0.00012	0.00022	0.00062	5e-05	2
5630	0.00025	0.00012	8e-05	0.00043	0.00012	0.00022	0.00062	5e-05	2
5631	0.00025	0.00012	8e-05	0.00043	0.00012	0.00022	0.00062	5e-05	2
5632	0.00025	0.00012	8e-05	0.00043	0.00012	0.00022	0.00062	5e-05	2
5633	0.00025	0.00012	8e-05	0.00043	0.00012	0.00022	0.00062	5e-05	2
5634	0.00025	0.00012	8e-05	0.00043	0.00012	0.00022	0.00062	5e-05	2
5635	0.00025	0.00012	8e-05	0.00043	0.00012	0.00022	0.00062	5e-05	2
5636	0.00025	0.00012	8e-05	0.00043	0.00012	0.00022	0.00062	5e-05	2
5638	0.00025	0.00012	8e-05	0.00043	0.00012	0.00022	0.00062	5e-05	2
5639	0.00025	0.00012	8e-05	0.00043	0.00012	0.00022	0.00062	5e-05	2
5640	0.00025	0.00012	8e-05	0.00043	0.00012	0.00022	0.00062	5e-05	2
5641	0.00025	0.00012	8e-05	0.00043	0.00012	0.00022	0.00062	5e-05	2
5642	0.00025	0.00012	8e-05	0.00043	0.00012	0.00022	0.00062	5e-05	2
5643	0.00025	0.00012	8e-05	0.00043	0.00012	0.00022	0.00062	5e-05	2
5644	0.00025	0.00012	8e-05	0.00043	0.00012	0.00022	0.00062	5e-05	2
5645	0.00025	0.00012	8e-05	0.00043	0.00012	0.00022	0.00062	5e-05	2
5646	0.00025	0.00012	8e-05	0.00043	0.00012	0.00022	0.00062	5e-05	2
5647	0.00025	0.00012	8e-05	0.00043	0.00012	0.00022	0.00062	5e-05	2
5648	0.00025	0.00012	8e-05	0.00043	0.00012	0.00022	0.00062	5e-05	2
5649	0.00025	0.00012	8e-05	0.00043	0.00012	0.00022	0.00062	5e-05	2
5650	0.00025	0.00012	8e-05	0.00043	0.00012	0.00022	0.00062	5e-05	2
5651	-9e-05	-0.00018	-0.00039	-0.00099	-0.00015	-0.00016	-0.0002	-9e-05	2
5652	-9e-05	-0.00018	-0.00039	-0.00099	-0.00015	-0.00016	-0.0002	-9e-05	2
5653	-9e-05	-0.00018	-0.00039	-0.00099	-0.00015	-0.00016	-0.0002	-9e-05	2
5654	-9e-05	-0.00018	-0.00039	-0.00099	-0.00015	-0.00016	-0.0002	-9e-05	2
5655	-9e-05	-0.00018	-0.00039	-0.00099	-0.00015	-0.00016	-0.0002	-9e-05	2
5656	-9e-05	-0.00018	-0.00039	-0.00099	-0.00015	-0.00016	-0.0002	-9e-05	2
5657	-9e-05	-0.00018	-0.00039	-0.00099	-0.00015	-0.00016	-0.0002	-9e-05	2
5658	-9e-05	-0.00018	-0.00039	-0.00099	-0.00015	-0.00016	-0.0002	-9e-05	2
5659	-9e-05	-0.00018	-0.00039	-0.00099	-0.00015	-0.00016	-0.0002	-9e-05	2
5660	-9e-05	-0.00018	-0.00039	-0.00099	-0.00015	-0.00016	-0.0002	-9e-05	2
5661	-9e-05	-0.00018	-0.00039	-0.00099	-0.00015	-0.00016	-0.0002	-9e-05	2
5662	-9e-05	-0.00018	-0.00039	-0.00099	-0.00015	-0.00016	-0.0002	-9e-05	2
5663	-9e-05	-0.00018	-0.00039	-0.00099	-0.00015	-0.00016	-0.0002	-9e-05	2
5664	7e-05	1e-05	-0.00013	-0.00063	-0.00038	-0.00013	0.00017	0.00021	2
5665	7e-05	1e-05	-0.00013	-0.00063	-0.00038	-0.00013	0.00017	0.00021	2
5666	7e-05	1e-05	-0.00013	-0.00063	-0.00038	-0.00013	0.00017	0.00021	2
5667	7e-05	1e-05	-0.00013	-0.00063	-0.00038	-0.00013	0.00017	0.00021	2
5668	7e-05	1e-05	-0.00013	-0.00063	-0.00038	-0.00013	0.00017	0.00021	2
5669	7e-05	1e-05	-0.00013	-0.00063	-0.00038	-0.00013	0.00017	0.00021	2
5670	7e-05	1e-05	-0.00013	-0.00063	-0.00038	-0.00013	0.00017	0.00021	2
5671	7e-05	1e-05	-0.00013	-0.00063	-0.00038	-0.00013	0.00017	0.00021	2
5672	7e-05	1e-05	-0.00013	-0.00063	-0.00038	-0.00013	0.00017	0.00021	2
5673	0.00026	4e-05	0.00011	-0.00034	1e-05	0.00017	0.00056	0.00061	2
5675	0.00026	4e-05	0.00011	-0.00034	1e-05	0.00017	0.00056	0.00061	2
5676	0.00026	4e-05	0.00011	-0.00034	1e-05	0.00017	0.00056	0.00061	2
5677	0.00026	4e-05	0.00011	-0.00034	1e-05	0.00017	0.00056	0.00061	2
5678	0.00026	4e-05	0.00011	-0.00034	1e-05	0.00017	0.00056	0.00061	2
5679	0.00026	4e-05	0.00011	-0.00034	1e-05	0.00017	0.00056	0.00061	2
5680	0.00026	4e-05	0.00011	-0.00034	1e-05	0.00017	0.00056	0.00061	2
5681	0.00026	4e-05	0.00011	-0.00034	1e-05	0.00017	0.00056	0.00061	2
5682	0.00026	4e-05	0.00011	-0.00034	1e-05	0.00017	0.00056	0.00061	2
5683	0.00026	4e-05	0.00011	-0.00034	1e-05	0.00017	0.00056	0.00061	2
5684	0.00026	4e-05	0.00011	-0.00034	1e-05	0.00017	0.00056	0.00061	2
5685	0.00026	4e-05	0.00011	-0.00034	1e-05	0.00017	0.00056	0.00061	2
5686	0.00026	4e-05	0.00011	-0.00034	1e-05	0.00017	0.00056	0.00061	2
5689	-0.0001	4e-05	5e-05	7e-05	0.00018	1e-05	-0.00107	-0.00053	2
5690	-0.0001	4e-05	5e-05	7e-05	0.00018	1e-05	-0.00107	-0.00053	2
5691	-0.0001	4e-05	5e-05	7e-05	0.00018	1e-05	-0.00107	-0.00053	2
5692	-0.0001	4e-05	5e-05	7e-05	0.00018	1e-05	-0.00107	-0.00053	2
5693	-0.0001	4e-05	5e-05	7e-05	0.00018	1e-05	-0.00107	-0.00053	2
5694	-0.0001	4e-05	5e-05	7e-05	0.00018	1e-05	-0.00107	-0.00053	2
5695	-0.0001	4e-05	5e-05	7e-05	0.00018	1e-05	-0.00107	-0.00053	2
5696	-0.0001	4e-05	5e-05	7e-05	0.00018	1e-05	-0.00107	-0.00053	2
5697	-0.0001	4e-05	5e-05	7e-05	0.00018	1e-05	-0.00107	-0.00053	2
5698	-0.0001	4e-05	5e-05	7e-05	0.00018	1e-05	-0.00107	-0.00053	2
5699	-0.0001	4e-05	5e-05	7e-05	0.00018	1e-05	-0.00107	-0.00053	2
5700	-0.0001	4e-05	5e-05	7e-05	0.00018	1e-05	-0.00107	-0.00053	2
5701	-0.0001	4e-05	5e-05	7e-05	0.00018	1e-05	-0.00107	-0.00053	2
5702	-0.0001	4e-05	5e-05	7e-05	0.00018	1e-05	-0.00107	-0.00053	2
5703	-0.0001	4e-05	5e-05	7e-05	0.00018	1e-05	-0.00107	-0.00053	2
5704	-0.0001	4e-05	5e-05	7e-05	0.00018	1e-05	-0.00107	-0.00053	2
5705	-0.0001	4e-05	5e-05	7e-05	0.00018	1e-05	-0.00107	-0.00053	2
5706	-0.0001	4e-05	5e-05	7e-05	0.00018	1e-05	-0.00107	-0.00053	2
5707	-0.0001	4e-05	5e-05	7e-05	0.00018	1e-05	-0.00107	-0.00053	2
5708	-0.0001	4e-05	5e-05	7e-05	0.00018	1e-05	-0.00107	-0.00053	2
5709	-0.0001	4e-05	5e-05	7e-05	0.00018	1e-05	-0.00107	-0.00053	2
5710	-0.0001	4e-05	5e-05	7e-05	0.00018	1e-05	-0.00107	-0.00053	2
5711	0.00019	2e-05	-7e-05	-0.00022	4e-05	-0.0001	0.00025	0.00038	2
5712	-4e-05	2e-05	0.00014	-0.00014	-0.00012	-0.00028	-0.00053	3e-05	2
5713	-4e-05	2e-05	0.00014	-0.00014	-0.00012	-0.00028	-0.00053	3e-05	2
5714	-4e-05	2e-05	0.00014	-0.00014	-0.00012	-0.00028	-0.00053	3e-05	2
5715	-4e-05	2e-05	0.00014	-0.00014	-0.00012	-0.00028	-0.00053	3e-05	2
5716	-4e-05	2e-05	0.00014	-0.00014	-0.00012	-0.00028	-0.00053	3e-05	2
5717	-4e-05	2e-05	0.00014	-0.00014	-0.00012	-0.00028	-0.00053	3e-05	2
5718	-4e-05	2e-05	0.00014	-0.00014	-0.00012	-0.00028	-0.00053	3e-05	2
5719	-4e-05	2e-05	0.00014	-0.00014	-0.00012	-0.00028	-0.00053	3e-05	2
5720	-4e-05	2e-05	0.00014	-0.00014	-0.00012	-0.00028	-0.00053	3e-05	2
5721	-4e-05	2e-05	0.00014	-0.00014	-0.00012	-0.00028	-0.00053	3e-05	2
5722	-4e-05	2e-05	0.00014	-0.00014	-0.00012	-0.00028	-0.00053	3e-05	2
5723	-4e-05	2e-05	0.00014	-0.00014	-0.00012	-0.00028	-0.00053	3e-05	2
5724	-4e-05	2e-05	0.00014	-0.00014	-0.00012	-0.00028	-0.00053	3e-05	2
5725	0.00016	2e-05	0.0001	0	-0.00031	-0.00018	0.00018	0.00039	2
5726	0.00016	2e-05	0.0001	0	-0.00031	-0.00018	0.00018	0.00039	2
5727	0.00016	2e-05	0.0001	0	-0.00031	-0.00018	0.00018	0.00039	2
5728	0.00016	2e-05	0.0001	0	-0.00031	-0.00018	0.00018	0.00039	2
5729	0.00016	2e-05	0.0001	0	-0.00031	-0.00018	0.00018	0.00039	2
5730	0.00016	2e-05	0.0001	0	-0.00031	-0.00018	0.00018	0.00039	2
5731	0.00016	2e-05	0.0001	0	-0.00031	-0.00018	0.00018	0.00039	2
5732	0.00016	2e-05	0.0001	0	-0.00031	-0.00018	0.00018	0.00039	2
5733	0.00016	2e-05	0.0001	0	-0.00031	-0.00018	0.00018	0.00039	2
5734	0.00016	2e-05	0.0001	0	-0.00031	-0.00018	0.00018	0.00039	2
5735	0.00016	2e-05	0.0001	0	-0.00031	-0.00018	0.00018	0.00039	2
5736	0.00016	2e-05	0.0001	0	-0.00031	-0.00018	0.00018	0.00039	2
5738	0.00016	2e-05	0.0001	0	-0.00031	-0.00018	0.00018	0.00039	2
5739	0.00016	2e-05	0.0001	0	-0.00031	-0.00018	0.00018	0.00039	2
5740	-0.0002	-3e-05	0.00014	0.00067	0	0.00046	-0.0001	-0.0001	2
5741	-0.0002	-3e-05	0.00014	0.00067	0	0.00046	-0.0001	-0.0001	2
5742	-0.0002	-3e-05	0.00014	0.00067	0	0.00046	-0.0001	-0.0001	2
5743	-0.0002	-3e-05	0.00014	0.00067	0	0.00046	-0.0001	-0.0001	2
5744	-0.0002	-3e-05	0.00014	0.00067	0	0.00046	-0.0001	-0.0001	2
5745	-0.0002	-3e-05	0.00014	0.00067	0	0.00046	-0.0001	-0.0001	2
5746	-0.0002	-3e-05	0.00014	0.00067	0	0.00046	-0.0001	-0.0001	2
5747	-0.0002	-3e-05	0.00014	0.00067	0	0.00046	-0.0001	-0.0001	2
5748	-0.0002	-3e-05	0.00014	0.00067	0	0.00046	-0.0001	-0.0001	2
5749	-0.0002	-3e-05	0.00014	0.00067	0	0.00046	-0.0001	-0.0001	2
5750	-0.0002	-3e-05	0.00014	0.00067	0	0.00046	-0.0001	-0.0001	2
5751	-0.0002	-3e-05	0.00014	0.00067	0	0.00046	-0.0001	-0.0001	2
5752	-0.0002	-3e-05	0.00014	0.00067	0	0.00046	-0.0001	-0.0001	2
5753	-0.0002	-3e-05	0.00014	0.00067	0	0.00046	-0.0001	-0.0001	2
5754	-0.0002	-3e-05	0.00014	0.00067	0	0.00046	-0.0001	-0.0001	2
5755	-0.0002	-3e-05	0.00014	0.00067	0	0.00046	-0.0001	-0.0001	2
5756	-2e-05	4e-05	3e-05	-0.0001	-0.0001	0.00069	-0.00043	-0.00019	2
5757	-2e-05	4e-05	3e-05	-0.0001	-0.0001	0.00069	-0.00043	-0.00019	2
5758	-2e-05	4e-05	3e-05	-0.0001	-0.0001	0.00069	-0.00043	-0.00019	2
5759	-2e-05	4e-05	3e-05	-0.0001	-0.0001	0.00069	-0.00043	-0.00019	2
5760	-2e-05	4e-05	3e-05	-0.0001	-0.0001	0.00069	-0.00043	-0.00019	2
5761	-2e-05	4e-05	3e-05	-0.0001	-0.0001	0.00069	-0.00043	-0.00019	2
5762	-2e-05	4e-05	3e-05	-0.0001	-0.0001	0.00069	-0.00043	-0.00019	2
5764	-2e-05	4e-05	3e-05	-0.0001	-0.0001	0.00069	-0.00043	-0.00019	2
5765	-2e-05	4e-05	3e-05	-0.0001	-0.0001	0.00069	-0.00043	-0.00019	2
5766	-2e-05	4e-05	3e-05	-0.0001	-0.0001	0.00069	-0.00043	-0.00019	2
5767	-2e-05	4e-05	3e-05	-0.0001	-0.0001	0.00069	-0.00043	-0.00019	2
5768	-2e-05	4e-05	3e-05	-0.0001	-0.0001	0.00069	-0.00043	-0.00019	2
5769	-2e-05	4e-05	3e-05	-0.0001	-0.0001	0.00069	-0.00043	-0.00019	2
5770	-2e-05	4e-05	3e-05	-0.0001	-0.0001	0.00069	-0.00043	-0.00019	2
5771	-1e-05	-5e-05	-9e-05	-0.00015	-0.00016	-4e-05	-7e-05	9e-05	2
5772	9e-05	-1e-05	-0.00022	-0.00061	0.0002	0.0006	0.00123	0.00039	2
5773	9e-05	-1e-05	-0.00022	-0.00061	0.0002	0.0006	0.00123	0.00039	2
5774	9e-05	-1e-05	-0.00022	-0.00061	0.0002	0.0006	0.00123	0.00039	2
5775	9e-05	-1e-05	-0.00022	-0.00061	0.0002	0.0006	0.00123	0.00039	2
5776	9e-05	-1e-05	-0.00022	-0.00061	0.0002	0.0006	0.00123	0.00039	2
5777	9e-05	-1e-05	-0.00022	-0.00061	0.0002	0.0006	0.00123	0.00039	2
5778	9e-05	-1e-05	-0.00022	-0.00061	0.0002	0.0006	0.00123	0.00039	2
5779	9e-05	-1e-05	-0.00022	-0.00061	0.0002	0.0006	0.00123	0.00039	2
5780	9e-05	-1e-05	-0.00022	-0.00061	0.0002	0.0006	0.00123	0.00039	2
5781	9e-05	-1e-05	-0.00022	-0.00061	0.0002	0.0006	0.00123	0.00039	2
5782	9e-05	-1e-05	-0.00022	-0.00061	0.0002	0.0006	0.00123	0.00039	2
5783	9e-05	-1e-05	-0.00022	-0.00061	0.0002	0.0006	0.00123	0.00039	2
5784	1e-05	3e-05	8e-05	0.00054	9e-05	-9e-05	1e-05	4e-05	2
5785	1e-05	3e-05	8e-05	0.00054	9e-05	-9e-05	1e-05	4e-05	2
5786	1e-05	3e-05	8e-05	0.00054	9e-05	-9e-05	1e-05	4e-05	2
5788	1e-05	3e-05	8e-05	0.00054	9e-05	-9e-05	1e-05	4e-05	2
5789	1e-05	3e-05	8e-05	0.00054	9e-05	-9e-05	1e-05	4e-05	2
5790	1e-05	3e-05	8e-05	0.00054	9e-05	-9e-05	1e-05	4e-05	2
5791	1e-05	3e-05	8e-05	0.00054	9e-05	-9e-05	1e-05	4e-05	2
5792	2e-05	-2e-05	-8e-05	-0.00031	-0.0001	-0.00055	-0.00039	0.00011	2
5793	0.00017	1e-05	-9e-05	-0.0001	2e-05	0.00037	0.00102	0.00054	2
5794	0.00017	1e-05	-9e-05	-0.0001	2e-05	0.00037	0.00102	0.00054	2
5795	0.00017	1e-05	-9e-05	-0.0001	2e-05	0.00037	0.00102	0.00054	2
5796	0.00017	1e-05	-9e-05	-0.0001	2e-05	0.00037	0.00102	0.00054	2
5797	0.00017	1e-05	-9e-05	-0.0001	2e-05	0.00037	0.00102	0.00054	2
5798	0.00017	1e-05	-9e-05	-0.0001	2e-05	0.00037	0.00102	0.00054	2
5799	0.00017	1e-05	-9e-05	-0.0001	2e-05	0.00037	0.00102	0.00054	2
5800	0.00017	1e-05	-9e-05	-0.0001	2e-05	0.00037	0.00102	0.00054	2
5801	0.00017	1e-05	-9e-05	-0.0001	2e-05	0.00037	0.00102	0.00054	2
5802	0.00017	1e-05	-9e-05	-0.0001	2e-05	0.00037	0.00102	0.00054	2
5803	0.00017	1e-05	-9e-05	-0.0001	2e-05	0.00037	0.00102	0.00054	2
5804	0.00017	1e-05	-9e-05	-0.0001	2e-05	0.00037	0.00102	0.00054	2
5805	0.00017	1e-05	-9e-05	-0.0001	2e-05	0.00037	0.00102	0.00054	2
5806	0.00017	1e-05	-9e-05	-0.0001	2e-05	0.00037	0.00102	0.00054	2
5807	0.00017	1e-05	-9e-05	-0.0001	2e-05	0.00037	0.00102	0.00054	2
5808	-0.00011	4e-05	0.00026	0.00047	5e-05	0.00048	-0.00064	-0.0006	2
5809	-4e-05	-0.0001	-0.00011	7e-05	-3e-05	-0.00061	-0.00047	-9e-05	2
5810	-4e-05	-0.0001	-0.00011	7e-05	-3e-05	-0.00061	-0.00047	-9e-05	2
5811	-4e-05	-0.0001	-0.00011	7e-05	-3e-05	-0.00061	-0.00047	-9e-05	2
5812	-4e-05	-0.0001	-0.00011	7e-05	-3e-05	-0.00061	-0.00047	-9e-05	2
5813	-4e-05	-0.0001	-0.00011	7e-05	-3e-05	-0.00061	-0.00047	-9e-05	2
5814	-4e-05	-0.0001	-0.00011	7e-05	-3e-05	-0.00061	-0.00047	-9e-05	2
5815	-4e-05	-0.0001	-0.00011	7e-05	-3e-05	-0.00061	-0.00047	-9e-05	2
5816	-4e-05	-0.0001	-0.00011	7e-05	-3e-05	-0.00061	-0.00047	-9e-05	2
5817	-4e-05	-0.0001	-0.00011	7e-05	-3e-05	-0.00061	-0.00047	-9e-05	2
5818	-4e-05	-0.0001	-0.00011	7e-05	-3e-05	-0.00061	-0.00047	-9e-05	2
5819	-4e-05	-0.0001	-0.00011	7e-05	-3e-05	-0.00061	-0.00047	-9e-05	2
5820	-4e-05	-0.0001	-0.00011	7e-05	-3e-05	-0.00061	-0.00047	-9e-05	2
5821	-4e-05	-0.0001	-0.00011	7e-05	-3e-05	-0.00061	-0.00047	-9e-05	2
5822	-4e-05	-0.0001	-0.00011	7e-05	-3e-05	-0.00061	-0.00047	-9e-05	2
5823	-4e-05	-0.0001	-0.00011	7e-05	-3e-05	-0.00061	-0.00047	-9e-05	2
5824	-4e-05	-0.0001	-0.00011	7e-05	-3e-05	-0.00061	-0.00047	-9e-05	2
5825	-4e-05	-0.0001	-0.00011	7e-05	-3e-05	-0.00061	-0.00047	-9e-05	2
5826	-4e-05	-0.0001	-0.00011	7e-05	-3e-05	-0.00061	-0.00047	-9e-05	2
5827	-4e-05	-0.0001	-0.00011	7e-05	-3e-05	-0.00061	-0.00047	-9e-05	2
5828	-4e-05	-0.0001	-0.00011	7e-05	-3e-05	-0.00061	-0.00047	-9e-05	2
5829	-4e-05	-0.0001	-0.00011	7e-05	-3e-05	-0.00061	-0.00047	-9e-05	2
5830	-4e-05	-0.0001	-0.00011	7e-05	-3e-05	-0.00061	-0.00047	-9e-05	2
5831	8e-05	2e-05	-1e-05	0.00042	0.00011	-0.00052	-0.00128	-0.00022	2
5832	-2e-05	-2e-05	-8e-05	-0.00012	-3e-05	0.00021	0.00098	0.0001	2
5833	-2e-05	-2e-05	-8e-05	-0.00012	-3e-05	0.00021	0.00098	0.0001	2
5834	-2e-05	-2e-05	-8e-05	-0.00012	-3e-05	0.00021	0.00098	0.0001	2
5835	-2e-05	-2e-05	-8e-05	-0.00012	-3e-05	0.00021	0.00098	0.0001	2
5836	-2e-05	-2e-05	-8e-05	-0.00012	-3e-05	0.00021	0.00098	0.0001	2
5838	-2e-05	-2e-05	-8e-05	-0.00012	-3e-05	0.00021	0.00098	0.0001	2
5839	-2e-05	-2e-05	-8e-05	-0.00012	-3e-05	0.00021	0.00098	0.0001	2
5840	-2e-05	-2e-05	-8e-05	-0.00012	-3e-05	0.00021	0.00098	0.0001	2
5842	-2e-05	-2e-05	-8e-05	-0.00012	-3e-05	0.00021	0.00098	0.0001	2
5843	-2e-05	-2e-05	-8e-05	-0.00012	-3e-05	0.00021	0.00098	0.0001	2
5844	-2e-05	-2e-05	-8e-05	-0.00012	-3e-05	0.00021	0.00098	0.0001	2
5845	-2e-05	-2e-05	-8e-05	-0.00012	-3e-05	0.00021	0.00098	0.0001	2
5846	-2e-05	-2e-05	-8e-05	-0.00012	-3e-05	0.00021	0.00098	0.0001	2
5847	-2e-05	-2e-05	-8e-05	-0.00012	-3e-05	0.00021	0.00098	0.0001	2
5848	-2e-05	-2e-05	-8e-05	-0.00012	-3e-05	0.00021	0.00098	0.0001	2
5849	-2e-05	-2e-05	-8e-05	-0.00012	-3e-05	0.00021	0.00098	0.0001	2
5850	-2e-05	-2e-05	-8e-05	-0.00012	-3e-05	0.00021	0.00098	0.0001	2
5851	-2e-05	-2e-05	-8e-05	-0.00012	-3e-05	0.00021	0.00098	0.0001	2
5852	-2e-05	-2e-05	-8e-05	-0.00012	-3e-05	0.00021	0.00098	0.0001	2
5853	1e-05	1e-05	5e-05	1e-05	-0.00017	-0.00049	-0.00027	0.00011	2
5854	-0.00025	-6e-05	-3e-05	0.00018	1e-05	-0.00029	-0.00034	-0.00048	2
5855	-0.00025	-6e-05	-3e-05	0.00018	1e-05	-0.00029	-0.00034	-0.00048	2
5856	-0.00025	-6e-05	-3e-05	0.00018	1e-05	-0.00029	-0.00034	-0.00048	2
5857	-0.00025	-6e-05	-3e-05	0.00018	1e-05	-0.00029	-0.00034	-0.00048	2
5858	-0.00025	-6e-05	-3e-05	0.00018	1e-05	-0.00029	-0.00034	-0.00048	2
5859	-0.00025	-6e-05	-3e-05	0.00018	1e-05	-0.00029	-0.00034	-0.00048	2
5860	-0.00025	-6e-05	-3e-05	0.00018	1e-05	-0.00029	-0.00034	-0.00048	2
5861	-0.00025	-6e-05	-3e-05	0.00018	1e-05	-0.00029	-0.00034	-0.00048	2
5862	-0.00025	-6e-05	-3e-05	0.00018	1e-05	-0.00029	-0.00034	-0.00048	2
5863	-0.00025	-6e-05	-3e-05	0.00018	1e-05	-0.00029	-0.00034	-0.00048	2
5864	-0.00025	-6e-05	-3e-05	0.00018	1e-05	-0.00029	-0.00034	-0.00048	2
5865	-0.00025	-6e-05	-3e-05	0.00018	1e-05	-0.00029	-0.00034	-0.00048	2
5866	-0.00025	-6e-05	-3e-05	0.00018	1e-05	-0.00029	-0.00034	-0.00048	2
5867	0	2e-05	8e-05	-0.00026	-0.00016	4e-05	0.00073	0.00015	2
5868	0	2e-05	0.00012	0.00023	0.00011	-0.0004	-1e-05	3e-05	2
5869	0	2e-05	0.00012	0.00023	0.00011	-0.0004	-1e-05	3e-05	2
5870	0	2e-05	0.00012	0.00023	0.00011	-0.0004	-1e-05	3e-05	2
5871	0	2e-05	0.00012	0.00023	0.00011	-0.0004	-1e-05	3e-05	2
5872	0	2e-05	0.00012	0.00023	0.00011	-0.0004	-1e-05	3e-05	2
5873	0	2e-05	0.00012	0.00023	0.00011	-0.0004	-1e-05	3e-05	2
5874	0	2e-05	0.00012	0.00023	0.00011	-0.0004	-1e-05	3e-05	2
5875	0	2e-05	0.00012	0.00023	0.00011	-0.0004	-1e-05	3e-05	2
5876	0	2e-05	0.00012	0.00023	0.00011	-0.0004	-1e-05	3e-05	2
5877	0	2e-05	0.00012	0.00023	0.00011	-0.0004	-1e-05	3e-05	2
5878	0	2e-05	0.00012	0.00023	0.00011	-0.0004	-1e-05	3e-05	2
5879	0	2e-05	0.00012	0.00023	0.00011	-0.0004	-1e-05	3e-05	2
5880	0	2e-05	0.00012	0.00023	0.00011	-0.0004	-1e-05	3e-05	2
5881	0	2e-05	0.00012	0.00023	0.00011	-0.0004	-1e-05	3e-05	2
5882	0	2e-05	0.00012	0.00023	0.00011	-0.0004	-1e-05	3e-05	2
5883	0	2e-05	0.00012	0.00023	0.00011	-0.0004	-1e-05	3e-05	2
5884	0	2e-05	0.00012	0.00023	0.00011	-0.0004	-1e-05	3e-05	2
5885	0	2e-05	0.00012	0.00023	0.00011	-0.0004	-1e-05	3e-05	2
5886	0	2e-05	0.00012	0.00023	0.00011	-0.0004	-1e-05	3e-05	2
5888	0	2e-05	0.00012	0.00023	0.00011	-0.0004	-1e-05	3e-05	2
5889	0	2e-05	0.00012	0.00023	0.00011	-0.0004	-1e-05	3e-05	2
5890	0	2e-05	0.00012	0.00023	0.00011	-0.0004	-1e-05	3e-05	2
5891	0	2e-05	0.00012	0.00023	0.00011	-0.0004	-1e-05	3e-05	2
5892	0.00014	3e-05	3e-05	-0.00027	-2e-05	-0.00013	-0.00066	0.00026	2
5893	0.00014	3e-05	3e-05	-0.00027	-2e-05	-0.00013	-0.00066	0.00026	2
5894	0.00014	3e-05	3e-05	-0.00027	-2e-05	-0.00013	-0.00066	0.00026	2
5895	0.00014	3e-05	3e-05	-0.00027	-2e-05	-0.00013	-0.00066	0.00026	2
5896	0.00014	3e-05	3e-05	-0.00027	-2e-05	-0.00013	-0.00066	0.00026	2
5897	0.00014	3e-05	3e-05	-0.00027	-2e-05	-0.00013	-0.00066	0.00026	2
5898	0.00014	3e-05	3e-05	-0.00027	-2e-05	-0.00013	-0.00066	0.00026	2
5899	0.00014	3e-05	3e-05	-0.00027	-2e-05	-0.00013	-0.00066	0.00026	2
5900	0.00014	3e-05	3e-05	-0.00027	-2e-05	-0.00013	-0.00066	0.00026	2
5901	0.00014	3e-05	3e-05	-0.00027	-2e-05	-0.00013	-0.00066	0.00026	2
5902	0.00014	3e-05	3e-05	-0.00027	-2e-05	-0.00013	-0.00066	0.00026	2
5903	0.00014	3e-05	3e-05	-0.00027	-2e-05	-0.00013	-0.00066	0.00026	2
5904	0.00014	3e-05	3e-05	-0.00027	-2e-05	-0.00013	-0.00066	0.00026	2
5905	0.00014	3e-05	3e-05	-0.00027	-2e-05	-0.00013	-0.00066	0.00026	2
5906	0.00014	3e-05	3e-05	-0.00027	-2e-05	-0.00013	-0.00066	0.00026	2
5907	0.00014	3e-05	3e-05	-0.00027	-2e-05	-0.00013	-0.00066	0.00026	2
5908	0.00014	3e-05	3e-05	-0.00027	-2e-05	-0.00013	-0.00066	0.00026	2
5909	0.00014	3e-05	3e-05	-0.00027	-2e-05	-0.00013	-0.00066	0.00026	2
5910	0.00014	3e-05	3e-05	-0.00027	-2e-05	-0.00013	-0.00066	0.00026	2
5911	0.00014	3e-05	3e-05	-0.00027	-2e-05	-0.00013	-0.00066	0.00026	2
5912	0.00014	3e-05	3e-05	-0.00027	-2e-05	-0.00013	-0.00066	0.00026	2
5913	6e-05	4e-05	0.00026	0.00103	3e-05	-0.00021	-0.00051	-2e-05	2
5914	-5e-05	7e-05	6e-05	0.00022	-8e-05	-0.00036	0.00015	2e-05	2
5915	-5e-05	7e-05	6e-05	0.00022	-8e-05	-0.00036	0.00015	2e-05	2
5916	-5e-05	7e-05	6e-05	0.00022	-8e-05	-0.00036	0.00015	2e-05	2
5917	-5e-05	7e-05	6e-05	0.00022	-8e-05	-0.00036	0.00015	2e-05	2
5918	-5e-05	7e-05	6e-05	0.00022	-8e-05	-0.00036	0.00015	2e-05	2
5919	-5e-05	7e-05	6e-05	0.00022	-8e-05	-0.00036	0.00015	2e-05	2
5920	-5e-05	7e-05	6e-05	0.00022	-8e-05	-0.00036	0.00015	2e-05	2
5921	-5e-05	7e-05	6e-05	0.00022	-8e-05	-0.00036	0.00015	2e-05	2
5922	-5e-05	7e-05	6e-05	0.00022	-8e-05	-0.00036	0.00015	2e-05	2
5923	-5e-05	7e-05	6e-05	0.00022	-8e-05	-0.00036	0.00015	2e-05	2
5924	-5e-05	7e-05	6e-05	0.00022	-8e-05	-0.00036	0.00015	2e-05	2
5925	-5e-05	7e-05	6e-05	0.00022	-8e-05	-0.00036	0.00015	2e-05	2
5926	-5e-05	7e-05	6e-05	0.00022	-8e-05	-0.00036	0.00015	2e-05	2
5927	-8e-05	-3e-05	0.00015	0.00028	9e-05	-9e-05	-0.00084	-0.00036	2
5928	-0.00012	-1e-05	-1e-05	-7e-05	-7e-05	-0.00027	-0.00031	-0.00049	2
5929	-0.00012	-1e-05	-1e-05	-7e-05	-7e-05	-0.00027	-0.00031	-0.00049	2
5930	-0.00012	-1e-05	-1e-05	-7e-05	-7e-05	-0.00027	-0.00031	-0.00049	2
5931	-0.00012	-1e-05	-1e-05	-7e-05	-7e-05	-0.00027	-0.00031	-0.00049	2
5932	-0.00012	-1e-05	-1e-05	-7e-05	-7e-05	-0.00027	-0.00031	-0.00049	2
5933	-0.00012	-1e-05	-1e-05	-7e-05	-7e-05	-0.00027	-0.00031	-0.00049	2
5934	-0.00012	-1e-05	-1e-05	-7e-05	-7e-05	-0.00027	-0.00031	-0.00049	2
5935	-0.00012	-1e-05	-1e-05	-7e-05	-7e-05	-0.00027	-0.00031	-0.00049	2
5936	-0.00012	-1e-05	-1e-05	-7e-05	-7e-05	-0.00027	-0.00031	-0.00049	2
5938	-0.00012	-1e-05	-1e-05	-7e-05	-7e-05	-0.00027	-0.00031	-0.00049	2
5939	-0.00012	-1e-05	-1e-05	-7e-05	-7e-05	-0.00027	-0.00031	-0.00049	2
5940	-0.00012	-1e-05	-1e-05	-7e-05	-7e-05	-0.00027	-0.00031	-0.00049	2
5941	-0.00012	-1e-05	-1e-05	-7e-05	-7e-05	-0.00027	-0.00031	-0.00049	2
5942	-0.00012	-1e-05	-1e-05	-7e-05	-7e-05	-0.00027	-0.00031	-0.00049	2
5943	-0.00012	-1e-05	-1e-05	-7e-05	-7e-05	-0.00027	-0.00031	-0.00049	2
5944	-0.00012	-1e-05	-1e-05	-7e-05	-7e-05	-0.00027	-0.00031	-0.00049	2
5945	-0.00012	-1e-05	-1e-05	-7e-05	-7e-05	-0.00027	-0.00031	-0.00049	2
5946	-0.00012	-1e-05	-1e-05	-7e-05	-7e-05	-0.00027	-0.00031	-0.00049	2
5947	-0.00012	-1e-05	-1e-05	-7e-05	-7e-05	-0.00027	-0.00031	-0.00049	2
5948	-0.00012	-1e-05	-1e-05	-7e-05	-7e-05	-0.00027	-0.00031	-0.00049	2
5949	-0.00012	-1e-05	-1e-05	-7e-05	-7e-05	-0.00027	-0.00031	-0.00049	2
5950	-0.00012	-1e-05	-1e-05	-7e-05	-7e-05	-0.00027	-0.00031	-0.00049	2
5951	-6e-05	3e-05	0.00014	0.00036	-3e-05	-0.00021	0.00079	0.00016	2
5952	-6e-05	3e-05	0.00014	0.00036	-3e-05	-0.00021	0.00079	0.00016	2
5953	-6e-05	3e-05	0.00014	0.00036	-3e-05	-0.00021	0.00079	0.00016	2
5954	-6e-05	3e-05	0.00014	0.00036	-3e-05	-0.00021	0.00079	0.00016	2
5955	-6e-05	3e-05	0.00014	0.00036	-3e-05	-0.00021	0.00079	0.00016	2
5956	-6e-05	3e-05	0.00014	0.00036	-3e-05	-0.00021	0.00079	0.00016	2
5957	-6e-05	3e-05	0.00014	0.00036	-3e-05	-0.00021	0.00079	0.00016	2
5958	-6e-05	3e-05	0.00014	0.00036	-3e-05	-0.00021	0.00079	0.00016	2
5959	-6e-05	3e-05	0.00014	0.00036	-3e-05	-0.00021	0.00079	0.00016	2
5960	-6e-05	3e-05	0.00014	0.00036	-3e-05	-0.00021	0.00079	0.00016	2
5961	-6e-05	3e-05	0.00014	0.00036	-3e-05	-0.00021	0.00079	0.00016	2
5962	-6e-05	3e-05	0.00014	0.00036	-3e-05	-0.00021	0.00079	0.00016	2
5963	-6e-05	3e-05	0.00014	0.00036	-3e-05	-0.00021	0.00079	0.00016	2
5964	-6e-05	3e-05	0.00014	0.00036	-3e-05	-0.00021	0.00079	0.00016	2
5965	-6e-05	3e-05	0.00014	0.00036	-3e-05	-0.00021	0.00079	0.00016	2
5966	-6e-05	3e-05	0.00014	0.00036	-3e-05	-0.00021	0.00079	0.00016	2
5967	-6e-05	3e-05	0.00014	0.00036	-3e-05	-0.00021	0.00079	0.00016	2
5968	-6e-05	3e-05	0.00014	0.00036	-3e-05	-0.00021	0.00079	0.00016	2
5969	-6e-05	3e-05	0.00014	0.00036	-3e-05	-0.00021	0.00079	0.00016	2
5970	-6e-05	3e-05	0.00014	0.00036	-3e-05	-0.00021	0.00079	0.00016	2
5971	-6e-05	3e-05	0.00014	0.00036	-3e-05	-0.00021	0.00079	0.00016	2
5972	-6e-05	3e-05	0.00014	0.00036	-3e-05	-0.00021	0.00079	0.00016	2
5973	-0.00016	1e-05	5e-05	-0.00015	6e-05	-0.00041	-0.00056	-0.0003	2
5974	-0.00023	-0.00014	-0.0003	-0.00047	-0.00011	-0.00026	-0.00016	-0.00041	2
5975	-0.00023	-0.00014	-0.0003	-0.00047	-0.00011	-0.00026	-0.00016	-0.00041	2
5976	-0.00023	-0.00014	-0.0003	-0.00047	-0.00011	-0.00026	-0.00016	-0.00041	2
5977	-0.00023	-0.00014	-0.0003	-0.00047	-0.00011	-0.00026	-0.00016	-0.00041	2
5978	-0.00023	-0.00014	-0.0003	-0.00047	-0.00011	-0.00026	-0.00016	-0.00041	2
5979	-0.00023	-0.00014	-0.0003	-0.00047	-0.00011	-0.00026	-0.00016	-0.00041	2
5980	-0.00023	-0.00014	-0.0003	-0.00047	-0.00011	-0.00026	-0.00016	-0.00041	2
5981	-0.00023	-0.00014	-0.0003	-0.00047	-0.00011	-0.00026	-0.00016	-0.00041	2
5982	-0.00023	-0.00014	-0.0003	-0.00047	-0.00011	-0.00026	-0.00016	-0.00041	2
5983	-0.00023	-0.00014	-0.0003	-0.00047	-0.00011	-0.00026	-0.00016	-0.00041	2
5984	-0.00023	-0.00014	-0.0003	-0.00047	-0.00011	-0.00026	-0.00016	-0.00041	2
5985	-0.00023	-0.00014	-0.0003	-0.00047	-0.00011	-0.00026	-0.00016	-0.00041	2
5986	-0.00023	-0.00014	-0.0003	-0.00047	-0.00011	-0.00026	-0.00016	-0.00041	2
5989	9e-05	3e-05	8e-05	0.00027	0.00011	0.00037	-9e-05	-9e-05	2
5990	9e-05	3e-05	8e-05	0.00027	0.00011	0.00037	-9e-05	-9e-05	2
5991	9e-05	3e-05	8e-05	0.00027	0.00011	0.00037	-9e-05	-9e-05	2
5992	9e-05	3e-05	8e-05	0.00027	0.00011	0.00037	-9e-05	-9e-05	2
5993	9e-05	3e-05	8e-05	0.00027	0.00011	0.00037	-9e-05	-9e-05	2
5994	9e-05	3e-05	8e-05	0.00027	0.00011	0.00037	-9e-05	-9e-05	2
5995	9e-05	3e-05	8e-05	0.00027	0.00011	0.00037	-9e-05	-9e-05	2
5996	9e-05	3e-05	8e-05	0.00027	0.00011	0.00037	-9e-05	-9e-05	2
5997	9e-05	3e-05	8e-05	0.00027	0.00011	0.00037	-9e-05	-9e-05	2
5998	9e-05	3e-05	8e-05	0.00027	0.00011	0.00037	-9e-05	-9e-05	2
5999	9e-05	3e-05	8e-05	0.00027	0.00011	0.00037	-9e-05	-9e-05	2
6000	9e-05	3e-05	8e-05	0.00027	0.00011	0.00037	-9e-05	-9e-05	2
6001	9e-05	3e-05	8e-05	0.00027	0.00011	0.00037	-9e-05	-9e-05	2
6002	9e-05	3e-05	8e-05	0.00027	0.00011	0.00037	-9e-05	-9e-05	2
6003	9e-05	3e-05	8e-05	0.00027	0.00011	0.00037	-9e-05	-9e-05	2
6004	9e-05	3e-05	8e-05	0.00027	0.00011	0.00037	-9e-05	-9e-05	2
6005	9e-05	3e-05	8e-05	0.00027	0.00011	0.00037	-9e-05	-9e-05	2
6006	9e-05	3e-05	8e-05	0.00027	0.00011	0.00037	-9e-05	-9e-05	2
6007	9e-05	3e-05	8e-05	0.00027	0.00011	0.00037	-9e-05	-9e-05	2
6008	9e-05	3e-05	8e-05	0.00027	0.00011	0.00037	-9e-05	-9e-05	2
6009	9e-05	3e-05	8e-05	0.00027	0.00011	0.00037	-9e-05	-9e-05	2
6010	9e-05	3e-05	8e-05	0.00027	0.00011	0.00037	-9e-05	-9e-05	2
6011	-2e-05	-7e-05	-0.00042	-0.00128	-0.00018	0.00015	0.0001	-6e-05	2
6012	0.00011	1e-05	-7e-05	-0.00014	3e-05	-0.00023	-0.00079	8e-05	2
6013	0.00011	1e-05	-7e-05	-0.00014	3e-05	-0.00023	-0.00079	8e-05	2
6014	0.00011	1e-05	-7e-05	-0.00014	3e-05	-0.00023	-0.00079	8e-05	2
6015	0.00011	1e-05	-7e-05	-0.00014	3e-05	-0.00023	-0.00079	8e-05	2
6016	0.00011	1e-05	-7e-05	-0.00014	3e-05	-0.00023	-0.00079	8e-05	2
6017	0.00011	1e-05	-7e-05	-0.00014	3e-05	-0.00023	-0.00079	8e-05	2
6018	0.00011	1e-05	-7e-05	-0.00014	3e-05	-0.00023	-0.00079	8e-05	2
6019	0.00011	1e-05	-7e-05	-0.00014	3e-05	-0.00023	-0.00079	8e-05	2
6020	0.00011	1e-05	-7e-05	-0.00014	3e-05	-0.00023	-0.00079	8e-05	2
6021	0.00011	1e-05	-7e-05	-0.00014	3e-05	-0.00023	-0.00079	8e-05	2
6022	0.00011	1e-05	-7e-05	-0.00014	3e-05	-0.00023	-0.00079	8e-05	2
6023	0.00011	1e-05	-7e-05	-0.00014	3e-05	-0.00023	-0.00079	8e-05	2
6024	0.00011	1e-05	-7e-05	-0.00014	3e-05	-0.00023	-0.00079	8e-05	2
6025	0.00011	1e-05	-7e-05	-0.00014	3e-05	-0.00023	-0.00079	8e-05	2
6026	0.00011	1e-05	-7e-05	-0.00014	3e-05	-0.00023	-0.00079	8e-05	2
6027	0.00011	1e-05	-7e-05	-0.00014	3e-05	-0.00023	-0.00079	8e-05	2
6028	0.00011	1e-05	-7e-05	-0.00014	3e-05	-0.00023	-0.00079	8e-05	2
6029	0.00011	1e-05	-7e-05	-0.00014	3e-05	-0.00023	-0.00079	8e-05	2
6030	0.00011	1e-05	-7e-05	-0.00014	3e-05	-0.00023	-0.00079	8e-05	2
6031	0.00011	1e-05	-7e-05	-0.00014	3e-05	-0.00023	-0.00079	8e-05	2
6032	0.00011	1e-05	-7e-05	-0.00014	3e-05	-0.00023	-0.00079	8e-05	2
6033	0.00011	1e-05	-7e-05	-0.00014	3e-05	-0.00023	-0.00079	8e-05	2
6034	0.0001	-2e-05	2e-05	9e-05	-9e-05	0	-0.00021	8e-05	2
6035	0.0001	-2e-05	2e-05	9e-05	-9e-05	0	-0.00021	8e-05	2
6036	0.0001	-2e-05	2e-05	9e-05	-9e-05	0	-0.00021	8e-05	2
6038	0.0001	-2e-05	2e-05	9e-05	-9e-05	0	-0.00021	8e-05	2
6039	0.0001	-2e-05	2e-05	9e-05	-9e-05	0	-0.00021	8e-05	2
6040	0.0001	-2e-05	2e-05	9e-05	-9e-05	0	-0.00021	8e-05	2
6041	0.0001	-2e-05	2e-05	9e-05	-9e-05	0	-0.00021	8e-05	2
6042	0.0001	-2e-05	2e-05	9e-05	-9e-05	0	-0.00021	8e-05	2
6043	0.0001	-2e-05	2e-05	9e-05	-9e-05	0	-0.00021	8e-05	2
6044	0.0001	-2e-05	2e-05	9e-05	-9e-05	0	-0.00021	8e-05	2
6045	0.0001	-2e-05	2e-05	9e-05	-9e-05	0	-0.00021	8e-05	2
6046	0.0001	-2e-05	2e-05	9e-05	-9e-05	0	-0.00021	8e-05	2
6047	0.0001	-2e-05	2e-05	9e-05	-9e-05	0	-0.00021	8e-05	2
6048	0.00015	2e-05	-8e-05	-0.00071	-0.00016	0.0005	0.00061	0.00015	2
6049	0.00015	2e-05	-8e-05	-0.00071	-0.00016	0.0005	0.00061	0.00015	2
6050	0.00015	2e-05	-8e-05	-0.00071	-0.00016	0.0005	0.00061	0.00015	2
6051	0.00015	2e-05	-8e-05	-0.00071	-0.00016	0.0005	0.00061	0.00015	2
6052	0.00015	2e-05	-8e-05	-0.00071	-0.00016	0.0005	0.00061	0.00015	2
6053	0.00015	2e-05	-8e-05	-0.00071	-0.00016	0.0005	0.00061	0.00015	2
6054	0.00015	2e-05	-8e-05	-0.00071	-0.00016	0.0005	0.00061	0.00015	2
6055	0.00015	2e-05	-8e-05	-0.00071	-0.00016	0.0005	0.00061	0.00015	2
6056	0.00015	2e-05	-8e-05	-0.00071	-0.00016	0.0005	0.00061	0.00015	2
6057	0.00015	2e-05	-8e-05	-0.00071	-0.00016	0.0005	0.00061	0.00015	2
6058	0.00015	2e-05	-8e-05	-0.00071	-0.00016	0.0005	0.00061	0.00015	2
6059	0.00015	2e-05	-8e-05	-0.00071	-0.00016	0.0005	0.00061	0.00015	2
6060	0.00015	2e-05	-8e-05	-0.00071	-0.00016	0.0005	0.00061	0.00015	2
6061	0.00015	2e-05	-8e-05	-0.00071	-0.00016	0.0005	0.00061	0.00015	2
6062	0.00015	2e-05	-8e-05	-0.00071	-0.00016	0.0005	0.00061	0.00015	2
6064	0.00015	2e-05	-8e-05	-0.00071	-0.00016	0.0005	0.00061	0.00015	2
6065	0.00015	2e-05	-8e-05	-0.00071	-0.00016	0.0005	0.00061	0.00015	2
6066	0.00015	2e-05	-8e-05	-0.00071	-0.00016	0.0005	0.00061	0.00015	2
6067	0.00015	2e-05	-8e-05	-0.00071	-0.00016	0.0005	0.00061	0.00015	2
6068	0.00015	2e-05	-8e-05	-0.00071	-0.00016	0.0005	0.00061	0.00015	2
6069	0.00015	2e-05	-8e-05	-0.00071	-0.00016	0.0005	0.00061	0.00015	2
6070	0.00015	2e-05	-8e-05	-0.00071	-0.00016	0.0005	0.00061	0.00015	2
6071	7e-05	1e-05	1e-05	3e-05	-0.00011	0.00017	-0.00034	0.00015	2
6072	-0.00016	4e-05	0.00031	0.00065	1e-05	-7e-05	-0.00028	-0.00018	2
6073	-0.00016	4e-05	0.00031	0.00065	1e-05	-7e-05	-0.00028	-0.00018	2
6074	-0.00016	4e-05	0.00031	0.00065	1e-05	-7e-05	-0.00028	-0.00018	2
6075	-0.00016	4e-05	0.00031	0.00065	1e-05	-7e-05	-0.00028	-0.00018	2
6076	-0.00016	4e-05	0.00031	0.00065	1e-05	-7e-05	-0.00028	-0.00018	2
6077	-0.00016	4e-05	0.00031	0.00065	1e-05	-7e-05	-0.00028	-0.00018	2
6078	-0.00016	4e-05	0.00031	0.00065	1e-05	-7e-05	-0.00028	-0.00018	2
6079	-0.00016	4e-05	0.00031	0.00065	1e-05	-7e-05	-0.00028	-0.00018	2
6080	-0.00016	4e-05	0.00031	0.00065	1e-05	-7e-05	-0.00028	-0.00018	2
6081	-0.00016	4e-05	0.00031	0.00065	1e-05	-7e-05	-0.00028	-0.00018	2
6082	-0.00016	4e-05	0.00031	0.00065	1e-05	-7e-05	-0.00028	-0.00018	2
6083	-0.00016	4e-05	0.00031	0.00065	1e-05	-7e-05	-0.00028	-0.00018	2
6084	-0.00016	4e-05	0.00031	0.00065	1e-05	-7e-05	-0.00028	-0.00018	2
6085	-0.00016	4e-05	0.00031	0.00065	1e-05	-7e-05	-0.00028	-0.00018	2
6086	-0.00016	4e-05	0.00031	0.00065	1e-05	-7e-05	-0.00028	-0.00018	2
6088	-0.00016	4e-05	0.00031	0.00065	1e-05	-7e-05	-0.00028	-0.00018	2
6089	-0.00016	4e-05	0.00031	0.00065	1e-05	-7e-05	-0.00028	-0.00018	2
6090	-0.00016	4e-05	0.00031	0.00065	1e-05	-7e-05	-0.00028	-0.00018	2
6091	-0.00016	4e-05	0.00031	0.00065	1e-05	-7e-05	-0.00028	-0.00018	2
6092	-0.00016	4e-05	0.00031	0.00065	1e-05	-7e-05	-0.00028	-0.00018	2
6093	0.0001	4e-05	0.0001	0.00015	5e-05	-9e-05	0.00054	0.00015	2
6094	-1e-05	3e-05	1e-05	0.00019	9e-05	-0.00042	-5e-05	-0.00011	2
6095	-1e-05	3e-05	1e-05	0.00019	9e-05	-0.00042	-5e-05	-0.00011	2
6096	-1e-05	3e-05	1e-05	0.00019	9e-05	-0.00042	-5e-05	-0.00011	2
6097	-1e-05	3e-05	1e-05	0.00019	9e-05	-0.00042	-5e-05	-0.00011	2
6098	-1e-05	3e-05	1e-05	0.00019	9e-05	-0.00042	-5e-05	-0.00011	2
6099	-1e-05	3e-05	1e-05	0.00019	9e-05	-0.00042	-5e-05	-0.00011	2
6100	-1e-05	3e-05	1e-05	0.00019	9e-05	-0.00042	-5e-05	-0.00011	2
6101	-1e-05	3e-05	1e-05	0.00019	9e-05	-0.00042	-5e-05	-0.00011	2
6102	-1e-05	3e-05	1e-05	0.00019	9e-05	-0.00042	-5e-05	-0.00011	2
6103	-1e-05	3e-05	1e-05	0.00019	9e-05	-0.00042	-5e-05	-0.00011	2
6104	-1e-05	3e-05	1e-05	0.00019	9e-05	-0.00042	-5e-05	-0.00011	2
6105	-1e-05	3e-05	1e-05	0.00019	9e-05	-0.00042	-5e-05	-0.00011	2
6106	-1e-05	3e-05	1e-05	0.00019	9e-05	-0.00042	-5e-05	-0.00011	2
6107	2e-05	0	5e-05	-0.00038	3e-05	-0.00025	-0.00012	-0.0001	2
6108	1e-05	7e-05	-9e-05	-0.00058	9e-05	0.00016	-7e-05	-3e-05	2
6109	1e-05	7e-05	-9e-05	-0.00058	9e-05	0.00016	-7e-05	-3e-05	2
6110	1e-05	7e-05	-9e-05	-0.00058	9e-05	0.00016	-7e-05	-3e-05	2
6111	1e-05	7e-05	-9e-05	-0.00058	9e-05	0.00016	-7e-05	-3e-05	2
6112	1e-05	7e-05	-9e-05	-0.00058	9e-05	0.00016	-7e-05	-3e-05	2
6113	1e-05	7e-05	-9e-05	-0.00058	9e-05	0.00016	-7e-05	-3e-05	2
6114	1e-05	7e-05	-9e-05	-0.00058	9e-05	0.00016	-7e-05	-3e-05	2
6115	1e-05	7e-05	-9e-05	-0.00058	9e-05	0.00016	-7e-05	-3e-05	2
6116	1e-05	7e-05	-9e-05	-0.00058	9e-05	0.00016	-7e-05	-3e-05	2
6117	1e-05	7e-05	-9e-05	-0.00058	9e-05	0.00016	-7e-05	-3e-05	2
6118	1e-05	7e-05	-9e-05	-0.00058	9e-05	0.00016	-7e-05	-3e-05	2
6119	1e-05	7e-05	-9e-05	-0.00058	9e-05	0.00016	-7e-05	-3e-05	2
6120	1e-05	7e-05	-9e-05	-0.00058	9e-05	0.00016	-7e-05	-3e-05	2
6121	1e-05	7e-05	-9e-05	-0.00058	9e-05	0.00016	-7e-05	-3e-05	2
6122	1e-05	7e-05	-9e-05	-0.00058	9e-05	0.00016	-7e-05	-3e-05	2
6123	1e-05	7e-05	-9e-05	-0.00058	9e-05	0.00016	-7e-05	-3e-05	2
6124	1e-05	7e-05	-9e-05	-0.00058	9e-05	0.00016	-7e-05	-3e-05	2
6125	1e-05	7e-05	-9e-05	-0.00058	9e-05	0.00016	-7e-05	-3e-05	2
6126	1e-05	7e-05	-9e-05	-0.00058	9e-05	0.00016	-7e-05	-3e-05	2
6127	1e-05	7e-05	-9e-05	-0.00058	9e-05	0.00016	-7e-05	-3e-05	2
6128	1e-05	7e-05	-9e-05	-0.00058	9e-05	0.00016	-7e-05	-3e-05	2
6129	1e-05	7e-05	-9e-05	-0.00058	9e-05	0.00016	-7e-05	-3e-05	2
6130	1e-05	7e-05	-9e-05	-0.00058	9e-05	0.00016	-7e-05	-3e-05	2
6131	0.00011	0	-6e-05	-7e-05	-1e-05	0.0001	0.00032	0.00022	2
6132	0.00011	0	-6e-05	-7e-05	-1e-05	0.0001	0.00032	0.00022	2
6133	0.00011	0	-6e-05	-7e-05	-1e-05	0.0001	0.00032	0.00022	2
6134	0.00011	0	-6e-05	-7e-05	-1e-05	0.0001	0.00032	0.00022	2
6135	0.00011	0	-6e-05	-7e-05	-1e-05	0.0001	0.00032	0.00022	2
6136	0.00011	0	-6e-05	-7e-05	-1e-05	0.0001	0.00032	0.00022	2
6138	0.00011	0	-6e-05	-7e-05	-1e-05	0.0001	0.00032	0.00022	2
6139	0.00011	0	-6e-05	-7e-05	-1e-05	0.0001	0.00032	0.00022	2
6140	0.00011	0	-6e-05	-7e-05	-1e-05	0.0001	0.00032	0.00022	2
6141	0.00011	0	-6e-05	-7e-05	-1e-05	0.0001	0.00032	0.00022	2
6142	0.00011	0	-6e-05	-7e-05	-1e-05	0.0001	0.00032	0.00022	2
6143	0.00011	0	-6e-05	-7e-05	-1e-05	0.0001	0.00032	0.00022	2
6144	0.00011	0	-6e-05	-7e-05	-1e-05	0.0001	0.00032	0.00022	2
6145	0.00011	0	-6e-05	-7e-05	-1e-05	0.0001	0.00032	0.00022	2
6146	0.00011	0	-6e-05	-7e-05	-1e-05	0.0001	0.00032	0.00022	2
6147	0.00011	0	-6e-05	-7e-05	-1e-05	0.0001	0.00032	0.00022	2
6148	0.00011	0	-6e-05	-7e-05	-1e-05	0.0001	0.00032	0.00022	2
6149	0.00011	0	-6e-05	-7e-05	-1e-05	0.0001	0.00032	0.00022	2
6150	0.00011	0	-6e-05	-7e-05	-1e-05	0.0001	0.00032	0.00022	2
6151	0.00011	0	-6e-05	-7e-05	-1e-05	0.0001	0.00032	0.00022	2
6152	0.00011	0	-6e-05	-7e-05	-1e-05	0.0001	0.00032	0.00022	2
6153	-0.00011	2e-05	-1e-05	0.00018	1e-05	0.00024	0.00065	-3e-05	2
6154	-1e-05	-1e-05	0.00015	0.00049	-4e-05	-0.00023	-0.00018	-0.00014	2
6155	-1e-05	-1e-05	0.00015	0.00049	-4e-05	-0.00023	-0.00018	-0.00014	2
6156	-1e-05	-1e-05	0.00015	0.00049	-4e-05	-0.00023	-0.00018	-0.00014	2
6157	-1e-05	-1e-05	0.00015	0.00049	-4e-05	-0.00023	-0.00018	-0.00014	2
6158	-1e-05	-1e-05	0.00015	0.00049	-4e-05	-0.00023	-0.00018	-0.00014	2
6159	-1e-05	-1e-05	0.00015	0.00049	-4e-05	-0.00023	-0.00018	-0.00014	2
6160	-1e-05	-1e-05	0.00015	0.00049	-4e-05	-0.00023	-0.00018	-0.00014	2
6161	-1e-05	-1e-05	0.00015	0.00049	-4e-05	-0.00023	-0.00018	-0.00014	2
6162	-1e-05	-1e-05	0.00015	0.00049	-4e-05	-0.00023	-0.00018	-0.00014	2
6163	-1e-05	-1e-05	0.00015	0.00049	-4e-05	-0.00023	-0.00018	-0.00014	2
6164	-1e-05	-1e-05	0.00015	0.00049	-4e-05	-0.00023	-0.00018	-0.00014	2
6165	-1e-05	-1e-05	0.00015	0.00049	-4e-05	-0.00023	-0.00018	-0.00014	2
6166	-1e-05	-1e-05	0.00015	0.00049	-4e-05	-0.00023	-0.00018	-0.00014	2
6167	3e-05	-5e-05	-0.00013	-0.00061	7e-05	4e-05	4e-05	0.00014	2
6168	-3e-05	-4e-05	-0.00011	-0.00101	-0.00012	-0.00028	-0.00045	0	2
6169	-3e-05	-4e-05	-0.00011	-0.00101	-0.00012	-0.00028	-0.00045	0	2
6170	-3e-05	-4e-05	-0.00011	-0.00101	-0.00012	-0.00028	-0.00045	0	2
6171	-3e-05	-4e-05	-0.00011	-0.00101	-0.00012	-0.00028	-0.00045	0	2
6172	-3e-05	-4e-05	-0.00011	-0.00101	-0.00012	-0.00028	-0.00045	0	2
6173	-3e-05	-4e-05	-0.00011	-0.00101	-0.00012	-0.00028	-0.00045	0	2
6174	-3e-05	-4e-05	-0.00011	-0.00101	-0.00012	-0.00028	-0.00045	0	2
6175	-3e-05	-4e-05	-0.00011	-0.00101	-0.00012	-0.00028	-0.00045	0	2
6176	-3e-05	-4e-05	-0.00011	-0.00101	-0.00012	-0.00028	-0.00045	0	2
6177	-3e-05	-4e-05	-0.00011	-0.00101	-0.00012	-0.00028	-0.00045	0	2
6178	-3e-05	-4e-05	-0.00011	-0.00101	-0.00012	-0.00028	-0.00045	0	2
6179	-3e-05	-4e-05	-0.00011	-0.00101	-0.00012	-0.00028	-0.00045	0	2
6180	-3e-05	-4e-05	-0.00011	-0.00101	-0.00012	-0.00028	-0.00045	0	2
6181	-3e-05	-4e-05	-0.00011	-0.00101	-0.00012	-0.00028	-0.00045	0	2
6182	-3e-05	-4e-05	-0.00011	-0.00101	-0.00012	-0.00028	-0.00045	0	2
6183	-3e-05	-4e-05	-0.00011	-0.00101	-0.00012	-0.00028	-0.00045	0	2
6184	-3e-05	-4e-05	-0.00011	-0.00101	-0.00012	-0.00028	-0.00045	0	2
6185	-3e-05	-4e-05	-0.00011	-0.00101	-0.00012	-0.00028	-0.00045	0	2
6186	-3e-05	-4e-05	-0.00011	-0.00101	-0.00012	-0.00028	-0.00045	0	2
6188	-3e-05	-4e-05	-0.00011	-0.00101	-0.00012	-0.00028	-0.00045	0	2
6189	-3e-05	-4e-05	-0.00011	-0.00101	-0.00012	-0.00028	-0.00045	0	2
6190	-3e-05	-4e-05	-0.00011	-0.00101	-0.00012	-0.00028	-0.00045	0	2
6191	-5e-05	-0.0001	-0.00033	-0.0004	-8e-05	6e-05	-2e-05	5e-05	2
6192	-5e-05	-0.0001	-0.00033	-0.0004	-8e-05	6e-05	-2e-05	5e-05	2
6193	-5e-05	-0.0001	-0.00033	-0.0004	-8e-05	6e-05	-2e-05	5e-05	2
6194	-5e-05	-0.0001	-0.00033	-0.0004	-8e-05	6e-05	-2e-05	5e-05	2
6195	-5e-05	-0.0001	-0.00033	-0.0004	-8e-05	6e-05	-2e-05	5e-05	2
6196	-5e-05	-0.0001	-0.00033	-0.0004	-8e-05	6e-05	-2e-05	5e-05	2
6197	-5e-05	-0.0001	-0.00033	-0.0004	-8e-05	6e-05	-2e-05	5e-05	2
6198	-5e-05	-0.0001	-0.00033	-0.0004	-8e-05	6e-05	-2e-05	5e-05	2
6199	-5e-05	-0.0001	-0.00033	-0.0004	-8e-05	6e-05	-2e-05	5e-05	2
6200	-5e-05	-0.0001	-0.00033	-0.0004	-8e-05	6e-05	-2e-05	5e-05	2
6201	-5e-05	-0.0001	-0.00033	-0.0004	-8e-05	6e-05	-2e-05	5e-05	2
6202	-5e-05	-0.0001	-0.00033	-0.0004	-8e-05	6e-05	-2e-05	5e-05	2
6203	-5e-05	-0.0001	-0.00033	-0.0004	-8e-05	6e-05	-2e-05	5e-05	2
6204	-5e-05	-0.0001	-0.00033	-0.0004	-8e-05	6e-05	-2e-05	5e-05	2
6205	-5e-05	-0.0001	-0.00033	-0.0004	-8e-05	6e-05	-2e-05	5e-05	2
6206	-5e-05	-0.0001	-0.00033	-0.0004	-8e-05	6e-05	-2e-05	5e-05	2
6207	-5e-05	-0.0001	-0.00033	-0.0004	-8e-05	6e-05	-2e-05	5e-05	2
6208	-5e-05	-0.0001	-0.00033	-0.0004	-8e-05	6e-05	-2e-05	5e-05	2
6209	-5e-05	-0.0001	-0.00033	-0.0004	-8e-05	6e-05	-2e-05	5e-05	2
6210	-5e-05	-0.0001	-0.00033	-0.0004	-8e-05	6e-05	-2e-05	5e-05	2
6211	-5e-05	-0.0001	-0.00033	-0.0004	-8e-05	6e-05	-2e-05	5e-05	2
6212	-5e-05	-0.0001	-0.00033	-0.0004	-8e-05	6e-05	-2e-05	5e-05	2
6213	-0.00035	0	-5e-05	0	3e-05	-0.00029	-0.00018	-0.00017	2
6214	0.00018	0	2e-05	0.00054	0	0.00016	-0.00079	0.00016	2
6215	0.00018	0	2e-05	0.00054	0	0.00016	-0.00079	0.00016	2
6216	0.00018	0	2e-05	0.00054	0	0.00016	-0.00079	0.00016	2
6217	0.00018	0	2e-05	0.00054	0	0.00016	-0.00079	0.00016	2
6218	0.00018	0	2e-05	0.00054	0	0.00016	-0.00079	0.00016	2
6219	0.00018	0	2e-05	0.00054	0	0.00016	-0.00079	0.00016	2
6220	0.00018	0	2e-05	0.00054	0	0.00016	-0.00079	0.00016	2
6221	0.00018	0	2e-05	0.00054	0	0.00016	-0.00079	0.00016	2
6222	0.00018	0	2e-05	0.00054	0	0.00016	-0.00079	0.00016	2
6223	0.00018	0	2e-05	0.00054	0	0.00016	-0.00079	0.00016	2
6225	0.00018	0	2e-05	0.00054	0	0.00016	-0.00079	0.00016	2
6226	0.00018	0	2e-05	0.00054	0	0.00016	-0.00079	0.00016	2
6227	0.0001	1e-05	-0.0001	-4e-05	5e-05	0.00018	0.00023	0.00011	2
6228	0.0001	1e-05	-0.0001	-4e-05	5e-05	0.00018	0.00023	0.00011	2
6229	0.0001	1e-05	-0.0001	-4e-05	5e-05	0.00018	0.00023	0.00011	2
6230	0.0001	1e-05	-0.0001	-4e-05	5e-05	0.00018	0.00023	0.00011	2
6231	0.0001	1e-05	-0.0001	-4e-05	5e-05	0.00018	0.00023	0.00011	2
6232	0.0001	1e-05	-0.0001	-4e-05	5e-05	0.00018	0.00023	0.00011	2
6233	0.0001	1e-05	-0.0001	-4e-05	5e-05	0.00018	0.00023	0.00011	2
6234	0.0001	1e-05	-0.0001	-4e-05	5e-05	0.00018	0.00023	0.00011	2
6235	0.0001	1e-05	-0.0001	-4e-05	5e-05	0.00018	0.00023	0.00011	2
6236	-0.00023	-2e-05	3e-05	-0.00021	-6e-05	6e-05	0.00114	-0.00025	2
6238	-0.00023	-2e-05	3e-05	-0.00021	-6e-05	6e-05	0.00114	-0.00025	2
6239	-0.00023	-2e-05	3e-05	-0.00021	-6e-05	6e-05	0.00114	-0.00025	2
6240	-0.00023	-2e-05	3e-05	-0.00021	-6e-05	6e-05	0.00114	-0.00025	2
6241	-0.00023	-2e-05	3e-05	-0.00021	-6e-05	6e-05	0.00114	-0.00025	2
6242	-0.00023	-2e-05	3e-05	-0.00021	-6e-05	6e-05	0.00114	-0.00025	2
6243	-0.00023	-2e-05	3e-05	-0.00021	-6e-05	6e-05	0.00114	-0.00025	2
6244	-0.00023	-2e-05	3e-05	-0.00021	-6e-05	6e-05	0.00114	-0.00025	2
6245	-0.00023	-2e-05	3e-05	-0.00021	-6e-05	6e-05	0.00114	-0.00025	2
6246	-0.00023	-2e-05	3e-05	-0.00021	-6e-05	6e-05	0.00114	-0.00025	2
6247	-0.00023	-2e-05	3e-05	-0.00021	-6e-05	6e-05	0.00114	-0.00025	2
6248	-0.00023	-2e-05	3e-05	-0.00021	-6e-05	6e-05	0.00114	-0.00025	2
6249	-0.00023	-2e-05	3e-05	-0.00021	-6e-05	6e-05	0.00114	-0.00025	2
6250	-0.00023	-2e-05	3e-05	-0.00021	-6e-05	6e-05	0.00114	-0.00025	2
6251	0	-8e-05	-0.00024	-0.00067	-5e-05	2e-05	0.00071	2e-05	2
6252	-3e-05	2e-05	0.0001	0.00051	4e-05	-0.00012	0.00017	0.00025	2
6253	-3e-05	2e-05	0.0001	0.00051	4e-05	-0.00012	0.00017	0.00025	2
6254	-3e-05	2e-05	0.0001	0.00051	4e-05	-0.00012	0.00017	0.00025	2
6255	-3e-05	2e-05	0.0001	0.00051	4e-05	-0.00012	0.00017	0.00025	2
6256	-3e-05	2e-05	0.0001	0.00051	4e-05	-0.00012	0.00017	0.00025	2
6257	-3e-05	2e-05	0.0001	0.00051	4e-05	-0.00012	0.00017	0.00025	2
6258	-3e-05	2e-05	0.0001	0.00051	4e-05	-0.00012	0.00017	0.00025	2
6259	-3e-05	2e-05	0.0001	0.00051	4e-05	-0.00012	0.00017	0.00025	2
6260	-3e-05	2e-05	0.0001	0.00051	4e-05	-0.00012	0.00017	0.00025	2
6261	-3e-05	2e-05	0.0001	0.00051	4e-05	-0.00012	0.00017	0.00025	2
6262	-3e-05	2e-05	0.0001	0.00051	4e-05	-0.00012	0.00017	0.00025	2
6263	-3e-05	2e-05	0.0001	0.00051	4e-05	-0.00012	0.00017	0.00025	2
6264	-3e-05	2e-05	0.0001	0.00051	4e-05	-0.00012	0.00017	0.00025	2
6265	-3e-05	2e-05	0.0001	0.00051	4e-05	-0.00012	0.00017	0.00025	2
6266	-3e-05	2e-05	0.0001	0.00051	4e-05	-0.00012	0.00017	0.00025	2
6267	-3e-05	2e-05	0.0001	0.00051	4e-05	-0.00012	0.00017	0.00025	2
6268	-3e-05	2e-05	0.0001	0.00051	4e-05	-0.00012	0.00017	0.00025	2
6269	-3e-05	2e-05	0.0001	0.00051	4e-05	-0.00012	0.00017	0.00025	2
6270	-3e-05	2e-05	0.0001	0.00051	4e-05	-0.00012	0.00017	0.00025	2
6271	-3e-05	2e-05	0.0001	0.00051	4e-05	-0.00012	0.00017	0.00025	2
6272	-3e-05	2e-05	0.0001	0.00051	4e-05	-0.00012	0.00017	0.00025	2
6273	3e-05	-2e-05	-0.00019	-0.00023	-0.00017	-0.00058	-0.00015	5e-05	2
6274	3e-05	-2e-05	-0.00019	-0.00023	-0.00017	-0.00058	-0.00015	5e-05	2
6275	-8e-05	1e-05	0.00036	0.00051	0	-0.0002	0	6e-05	2
6276	-8e-05	1e-05	0.00036	0.00051	0	-0.0002	0	6e-05	2
6277	-8e-05	1e-05	0.00036	0.00051	0	-0.0002	0	6e-05	2
6278	-8e-05	1e-05	0.00036	0.00051	0	-0.0002	0	6e-05	2
6279	-8e-05	1e-05	0.00036	0.00051	0	-0.0002	0	6e-05	2
6280	-8e-05	1e-05	0.00036	0.00051	0	-0.0002	0	6e-05	2
6281	-8e-05	1e-05	0.00036	0.00051	0	-0.0002	0	6e-05	2
6282	-8e-05	1e-05	0.00036	0.00051	0	-0.0002	0	6e-05	2
6283	-8e-05	1e-05	0.00036	0.00051	0	-0.0002	0	6e-05	2
6284	-8e-05	1e-05	0.00036	0.00051	0	-0.0002	0	6e-05	2
6285	-8e-05	1e-05	0.00036	0.00051	0	-0.0002	0	6e-05	2
6286	-8e-05	1e-05	0.00036	0.00051	0	-0.0002	0	6e-05	2
6288	7e-05	-2e-05	-5e-05	0.00099	8e-05	0.00046	0.00041	0.00022	2
6289	7e-05	-2e-05	-5e-05	0.00099	8e-05	0.00046	0.00041	0.00022	2
6290	7e-05	-2e-05	-5e-05	0.00099	8e-05	0.00046	0.00041	0.00022	2
6291	7e-05	-2e-05	-5e-05	0.00099	8e-05	0.00046	0.00041	0.00022	2
6292	7e-05	-2e-05	-5e-05	0.00099	8e-05	0.00046	0.00041	0.00022	2
6293	7e-05	-2e-05	-5e-05	0.00099	8e-05	0.00046	0.00041	0.00022	2
6294	7e-05	-2e-05	-5e-05	0.00099	8e-05	0.00046	0.00041	0.00022	2
6295	7e-05	-2e-05	-5e-05	0.00099	8e-05	0.00046	0.00041	0.00022	2
6296	-8e-05	0	0.00011	-0.00018	-0.0001	-0.00026	0.00012	-0.00021	2
6297	-8e-05	0	0.00011	-0.00018	-0.0001	-0.00026	0.00012	-0.00021	2
6298	-8e-05	0	0.00011	-0.00018	-0.0001	-0.00026	0.00012	-0.00021	2
6299	-8e-05	0	0.00011	-0.00018	-0.0001	-0.00026	0.00012	-0.00021	2
6300	-8e-05	0	0.00011	-0.00018	-0.0001	-0.00026	0.00012	-0.00021	2
6301	-8e-05	0	0.00011	-0.00018	-0.0001	-0.00026	0.00012	-0.00021	2
6302	-8e-05	0	0.00011	-0.00018	-0.0001	-0.00026	0.00012	-0.00021	2
6303	-8e-05	0	0.00011	-0.00018	-0.0001	-0.00026	0.00012	-0.00021	2
6304	-8e-05	0	0.00011	-0.00018	-0.0001	-0.00026	0.00012	-0.00021	2
6305	-8e-05	0	0.00011	-0.00018	-0.0001	-0.00026	0.00012	-0.00021	2
6306	-8e-05	0	0.00011	-0.00018	-0.0001	-0.00026	0.00012	-0.00021	2
6307	-8e-05	0	0.00011	-0.00018	-0.0001	-0.00026	0.00012	-0.00021	2
6308	-8e-05	0	0.00011	-0.00018	-0.0001	-0.00026	0.00012	-0.00021	2
6309	-8e-05	0	0.00011	-0.00018	-0.0001	-0.00026	0.00012	-0.00021	2
6310	-8e-05	0	0.00011	-0.00018	-0.0001	-0.00026	0.00012	-0.00021	2
6311	-0.00014	5e-05	0.00024	0.001	0.00026	7e-05	0.00064	0.00022	2
6312	0.00018	0	-0.00018	-0.00122	-0.00014	8e-05	0.00025	-0.00011	2
6313	6e-05	-1e-05	-1e-05	0.00033	9e-05	0.00031	-5e-05	-5e-05	2
6314	6e-05	-1e-05	-1e-05	0.00033	9e-05	0.00031	-5e-05	-5e-05	2
6315	6e-05	-1e-05	-1e-05	0.00033	9e-05	0.00031	-5e-05	-5e-05	2
6316	6e-05	-1e-05	-1e-05	0.00033	9e-05	0.00031	-5e-05	-5e-05	2
6317	6e-05	-1e-05	-1e-05	0.00033	9e-05	0.00031	-5e-05	-5e-05	2
6318	6e-05	-1e-05	-1e-05	0.00033	9e-05	0.00031	-5e-05	-5e-05	2
6319	6e-05	-1e-05	-1e-05	0.00033	9e-05	0.00031	-5e-05	-5e-05	2
6320	6e-05	-1e-05	-1e-05	0.00033	9e-05	0.00031	-5e-05	-5e-05	2
6321	6e-05	-1e-05	-1e-05	0.00033	9e-05	0.00031	-5e-05	-5e-05	2
6322	6e-05	-1e-05	-1e-05	0.00033	9e-05	0.00031	-5e-05	-5e-05	2
6323	6e-05	-1e-05	-1e-05	0.00033	9e-05	0.00031	-5e-05	-5e-05	2
6324	6e-05	-1e-05	-1e-05	0.00033	9e-05	0.00031	-5e-05	-5e-05	2
6325	6e-05	-1e-05	-1e-05	0.00033	9e-05	0.00031	-5e-05	-5e-05	2
6326	6e-05	-1e-05	-1e-05	0.00033	9e-05	0.00031	-5e-05	-5e-05	2
6327	6e-05	-1e-05	-1e-05	0.00033	9e-05	0.00031	-5e-05	-5e-05	2
6328	6e-05	-1e-05	-1e-05	0.00033	9e-05	0.00031	-5e-05	-5e-05	2
6329	6e-05	-1e-05	-1e-05	0.00033	9e-05	0.00031	-5e-05	-5e-05	2
6330	6e-05	-1e-05	-1e-05	0.00033	9e-05	0.00031	-5e-05	-5e-05	2
6331	6e-05	-1e-05	-1e-05	0.00033	9e-05	0.00031	-5e-05	-5e-05	2
6332	6e-05	-1e-05	-1e-05	0.00033	9e-05	0.00031	-5e-05	-5e-05	2
6333	6e-05	-1e-05	-1e-05	0.00033	9e-05	0.00031	-5e-05	-5e-05	2
6334	6e-05	-1e-05	-1e-05	0.00033	9e-05	0.00031	-5e-05	-5e-05	2
6335	6e-05	-1e-05	-1e-05	0.00033	9e-05	0.00031	-5e-05	-5e-05	2
6336	6e-05	-1e-05	-1e-05	0.00033	9e-05	0.00031	-5e-05	-5e-05	2
6338	6e-05	-1e-05	-1e-05	0.00033	9e-05	0.00031	-5e-05	-5e-05	2
6339	6e-05	-1e-05	-1e-05	0.00033	9e-05	0.00031	-5e-05	-5e-05	2
6340	6e-05	-1e-05	-1e-05	0.00033	9e-05	0.00031	-5e-05	-5e-05	2
6341	-0.00011	-6e-05	-0.0001	0.00016	5e-05	-0.00036	-0.00092	-5e-05	2
6342	-7e-05	-5e-05	-0.00015	0.0001	5e-05	0.00013	-0.00111	-0.00015	2
6343	-7e-05	-5e-05	-0.00015	0.0001	5e-05	0.00013	-0.00111	-0.00015	2
6344	-7e-05	-5e-05	-0.00015	0.0001	5e-05	0.00013	-0.00111	-0.00015	2
6345	-7e-05	-5e-05	-0.00015	0.0001	5e-05	0.00013	-0.00111	-0.00015	2
6346	-7e-05	-5e-05	-0.00015	0.0001	5e-05	0.00013	-0.00111	-0.00015	2
6347	-0.00015	4e-05	0.00015	0.00021	-4e-05	-0.00015	-6e-05	-0.00019	2
6348	-0.00015	4e-05	0.00015	0.00021	-4e-05	-0.00015	-6e-05	-0.00019	2
6349	-0.00015	4e-05	0.00015	0.00021	-4e-05	-0.00015	-6e-05	-0.00019	2
6350	-0.00015	4e-05	0.00015	0.00021	-4e-05	-0.00015	-6e-05	-0.00019	2
6351	-0.00015	4e-05	0.00015	0.00021	-4e-05	-0.00015	-6e-05	-0.00019	2
6352	-0.00015	4e-05	0.00015	0.00021	-4e-05	-0.00015	-6e-05	-0.00019	2
6353	-0.00015	4e-05	0.00015	0.00021	-4e-05	-0.00015	-6e-05	-0.00019	2
6354	-0.00015	4e-05	0.00015	0.00021	-4e-05	-0.00015	-6e-05	-0.00019	2
6355	-0.00015	4e-05	0.00015	0.00021	-4e-05	-0.00015	-6e-05	-0.00019	2
6356	0.00011	-7e-05	-0.00038	-0.00062	-0.00016	-0.00028	-0.00059	5e-05	2
6357	0.00011	-7e-05	-0.00038	-0.00062	-0.00016	-0.00028	-0.00059	5e-05	2
6358	0.00011	-7e-05	-0.00038	-0.00062	-0.00016	-0.00028	-0.00059	5e-05	2
6359	0.00011	-7e-05	-0.00038	-0.00062	-0.00016	-0.00028	-0.00059	5e-05	2
6360	0.00011	-7e-05	-0.00038	-0.00062	-0.00016	-0.00028	-0.00059	5e-05	2
6361	0.00011	-7e-05	-0.00038	-0.00062	-0.00016	-0.00028	-0.00059	5e-05	2
6362	0.00011	-7e-05	-0.00038	-0.00062	-0.00016	-0.00028	-0.00059	5e-05	2
6363	0.00011	-7e-05	-0.00038	-0.00062	-0.00016	-0.00028	-0.00059	5e-05	2
6364	0.00011	-7e-05	-0.00038	-0.00062	-0.00016	-0.00028	-0.00059	5e-05	2
6365	0.00011	-7e-05	-0.00038	-0.00062	-0.00016	-0.00028	-0.00059	5e-05	2
6366	0.00011	-7e-05	-0.00038	-0.00062	-0.00016	-0.00028	-0.00059	5e-05	2
6367	0.00011	-7e-05	-0.00038	-0.00062	-0.00016	-0.00028	-0.00059	5e-05	2
6368	0.00011	-7e-05	-0.00038	-0.00062	-0.00016	-0.00028	-0.00059	5e-05	2
6369	0.00011	-7e-05	-0.00038	-0.00062	-0.00016	-0.00028	-0.00059	5e-05	2
6370	0.00011	-7e-05	-0.00038	-0.00062	-0.00016	-0.00028	-0.00059	5e-05	2
6371	-0.00019	1e-05	0.00015	0.00023	8e-05	0.00041	0.00027	-9e-05	2
6372	-0.00019	1e-05	0.00015	0.00023	8e-05	0.00041	0.00027	-9e-05	2
6373	3e-05	-4e-05	0	0.00028	0.00015	4e-05	0.00024	-5e-05	2
6374	3e-05	-4e-05	0	0.00028	0.00015	4e-05	0.00024	-5e-05	2
6375	3e-05	-4e-05	0	0.00028	0.00015	4e-05	0.00024	-5e-05	2
6376	3e-05	-4e-05	0	0.00028	0.00015	4e-05	0.00024	-5e-05	2
6377	3e-05	-4e-05	0	0.00028	0.00015	4e-05	0.00024	-5e-05	2
6378	3e-05	-4e-05	0	0.00028	0.00015	4e-05	0.00024	-5e-05	2
6379	3e-05	-4e-05	0	0.00028	0.00015	4e-05	0.00024	-5e-05	2
6380	3e-05	-4e-05	0	0.00028	0.00015	4e-05	0.00024	-5e-05	2
6381	3e-05	-4e-05	0	0.00028	0.00015	4e-05	0.00024	-5e-05	2
6382	3e-05	-4e-05	0	0.00028	0.00015	4e-05	0.00024	-5e-05	2
6383	3e-05	-4e-05	0	0.00028	0.00015	4e-05	0.00024	-5e-05	2
6384	3e-05	-4e-05	0	0.00028	0.00015	4e-05	0.00024	-5e-05	2
6385	3e-05	-4e-05	0	0.00028	0.00015	4e-05	0.00024	-5e-05	2
6386	3e-05	-4e-05	0	0.00028	0.00015	4e-05	0.00024	-5e-05	2
6388	3e-05	-4e-05	0	0.00028	0.00015	4e-05	0.00024	-5e-05	2
6389	3e-05	-4e-05	0	0.00028	0.00015	4e-05	0.00024	-5e-05	2
33592	0.00021	1e-05	7e-05	0.00041	4e-05	-0.0005	-0.00086	-4e-05	2
33593	0.00021	1e-05	7e-05	0.00041	4e-05	-0.0005	-0.00086	-4e-05	2
33594	0.00021	1e-05	7e-05	0.00041	4e-05	-0.0005	-0.00086	-4e-05	2
33595	0.00021	1e-05	7e-05	0.00041	4e-05	-0.0005	-0.00086	-4e-05	2
33596	0.00021	1e-05	7e-05	0.00041	4e-05	-0.0005	-0.00086	-4e-05	2
33597	0.00021	1e-05	7e-05	0.00041	4e-05	-0.0005	-0.00086	-4e-05	2
33598	0.00021	1e-05	7e-05	0.00041	4e-05	-0.0005	-0.00086	-4e-05	2
33599	0.00021	1e-05	7e-05	0.00041	4e-05	-0.0005	-0.00086	-4e-05	2
33600	0.00021	1e-05	7e-05	0.00041	4e-05	-0.0005	-0.00086	-4e-05	2
33601	0.00021	1e-05	7e-05	0.00041	4e-05	-0.0005	-0.00086	-4e-05	2
33602	0.00021	1e-05	7e-05	0.00041	4e-05	-0.0005	-0.00086	-4e-05	2
33603	0	4e-05	0.00032	0.00041	0.00012	0.00048	0.00107	0.00027	2
33604	0	4e-05	0.00032	0.00041	0.00012	0.00048	0.00107	0.00027	2
33605	0	4e-05	0.00032	0.00041	0.00012	0.00048	0.00107	0.00027	2
33606	8e-05	-2e-05	-2e-05	0.00048	-0.00034	0.0007	-0.00055	-5e-05	2
33607	8e-05	-2e-05	-2e-05	0.00048	-0.00034	0.0007	-0.00055	-5e-05	2
33608	8e-05	-2e-05	-2e-05	0.00048	-0.00034	0.0007	-0.00055	-5e-05	2
33609	8e-05	-2e-05	-2e-05	0.00048	-0.00034	0.0007	-0.00055	-5e-05	2
33610	8e-05	-2e-05	-2e-05	0.00048	-0.00034	0.0007	-0.00055	-5e-05	2
33611	8e-05	-2e-05	-2e-05	0.00048	-0.00034	0.0007	-0.00055	-5e-05	2
33612	8e-05	-2e-05	-2e-05	0.00048	-0.00034	0.0007	-0.00055	-5e-05	2
33613	8e-05	-2e-05	-2e-05	0.00048	-0.00034	0.0007	-0.00055	-5e-05	2
33614	8e-05	-2e-05	-2e-05	0.00048	-0.00034	0.0007	-0.00055	-5e-05	2
33615	8e-05	-2e-05	-2e-05	0.00048	-0.00034	0.0007	-0.00055	-5e-05	2
33616	8e-05	-2e-05	-2e-05	0.00048	-0.00034	0.0007	-0.00055	-5e-05	2
33617	8e-05	-2e-05	-2e-05	0.00048	-0.00034	0.0007	-0.00055	-5e-05	2
33618	8e-05	-2e-05	-2e-05	0.00048	-0.00034	0.0007	-0.00055	-5e-05	2
33619	8e-05	-2e-05	-2e-05	0.00048	-0.00034	0.0007	-0.00055	-5e-05	2
33620	8e-05	-2e-05	-2e-05	0.00048	-0.00034	0.0007	-0.00055	-5e-05	2
33621	8e-05	-2e-05	-2e-05	0.00048	-0.00034	0.0007	-0.00055	-5e-05	2
33622	8e-05	-2e-05	-2e-05	0.00048	-0.00034	0.0007	-0.00055	-5e-05	2
33623	8e-05	-2e-05	-2e-05	0.00048	-0.00034	0.0007	-0.00055	-5e-05	2
33624	8e-05	-2e-05	-2e-05	0.00048	-0.00034	0.0007	-0.00055	-5e-05	2
33625	8e-05	-2e-05	-2e-05	0.00048	-0.00034	0.0007	-0.00055	-5e-05	2
33626	0.00024	0	0	0.00025	0.00053	0.0002	-0.00076	-0.00033	2
33627	-9e-05	0.00011	0.00012	9e-05	0.00012	-0.00066	-0.00037	-0.00037	2
33628	-9e-05	0.00011	0.00012	9e-05	0.00012	-0.00066	-0.00037	-0.00037	2
33629	-9e-05	0.00011	0.00012	9e-05	0.00012	-0.00066	-0.00037	-0.00037	2
33630	-9e-05	0.00011	0.00012	9e-05	0.00012	-0.00066	-0.00037	-0.00037	2
33631	-9e-05	0.00011	0.00012	9e-05	0.00012	-0.00066	-0.00037	-0.00037	2
33632	-9e-05	0.00011	0.00012	9e-05	0.00012	-0.00066	-0.00037	-0.00037	2
33633	-9e-05	0.00011	0.00012	9e-05	0.00012	-0.00066	-0.00037	-0.00037	2
33634	-9e-05	0.00011	0.00012	9e-05	0.00012	-0.00066	-0.00037	-0.00037	2
33635	-9e-05	0.00011	0.00012	9e-05	0.00012	-0.00066	-0.00037	-0.00037	2
33636	-9e-05	0.00011	0.00012	9e-05	0.00012	-0.00066	-0.00037	-0.00037	2
33639	-9e-05	0.00011	0.00012	9e-05	0.00012	-0.00066	-0.00037	-0.00037	2
33640	-9e-05	0.00011	0.00012	9e-05	0.00012	-0.00066	-0.00037	-0.00037	2
33641	-9e-05	0.00011	0.00012	9e-05	0.00012	-0.00066	-0.00037	-0.00037	2
33642	-9e-05	0.00011	0.00012	9e-05	0.00012	-0.00066	-0.00037	-0.00037	2
33643	-9e-05	0.00011	0.00012	9e-05	0.00012	-0.00066	-0.00037	-0.00037	2
33644	-9e-05	0.00011	0.00012	9e-05	0.00012	-0.00066	-0.00037	-0.00037	2
33645	-9e-05	0.00011	0.00012	9e-05	0.00012	-0.00066	-0.00037	-0.00037	2
33646	-9e-05	0.00011	0.00012	9e-05	0.00012	-0.00066	-0.00037	-0.00037	2
33647	-9e-05	0.00011	0.00012	9e-05	0.00012	-0.00066	-0.00037	-0.00037	2
33648	4e-05	-2e-05	-0.00036	-0.00051	-0.00031	0.00019	0.00046	0.00042	2
33649	4e-05	-2e-05	-0.00036	-0.00051	-0.00031	0.00019	0.00046	0.00042	2
33650	-8e-05	-1e-05	0	-0.00017	0.0001	-0.00038	-0.00051	-0.00023	2
33651	-8e-05	-1e-05	0	-0.00017	0.0001	-0.00038	-0.00051	-0.00023	2
33652	-8e-05	-1e-05	0	-0.00017	0.0001	-0.00038	-0.00051	-0.00023	2
33653	-8e-05	-1e-05	0	-0.00017	0.0001	-0.00038	-0.00051	-0.00023	2
33654	-8e-05	-1e-05	0	-0.00017	0.0001	-0.00038	-0.00051	-0.00023	2
33655	-8e-05	-1e-05	0	-0.00017	0.0001	-0.00038	-0.00051	-0.00023	2
33656	-8e-05	-1e-05	0	-0.00017	0.0001	-0.00038	-0.00051	-0.00023	2
33657	-8e-05	-1e-05	0	-0.00017	0.0001	-0.00038	-0.00051	-0.00023	2
33658	-8e-05	-1e-05	0	-0.00017	0.0001	-0.00038	-0.00051	-0.00023	2
33659	-8e-05	-1e-05	0	-0.00017	0.0001	-0.00038	-0.00051	-0.00023	2
33660	-8e-05	-1e-05	0	-0.00017	0.0001	-0.00038	-0.00051	-0.00023	2
33661	-8e-05	-1e-05	0	-0.00017	0.0001	-0.00038	-0.00051	-0.00023	2
33662	-8e-05	-1e-05	0	-0.00017	0.0001	-0.00038	-0.00051	-0.00023	2
33663	-0.00019	-5e-05	-5e-05	-0.00025	0	9e-05	0.00024	-0.0001	2
33664	-0.00019	-5e-05	-5e-05	-0.00025	0	9e-05	0.00024	-0.0001	2
33665	0.00036	4e-05	0.00025	0.00046	2e-05	0.00102	0.00113	0.00053	2
33666	0.00036	4e-05	0.00025	0.00046	2e-05	0.00102	0.00113	0.00053	2
33667	0.00036	4e-05	0.00025	0.00046	2e-05	0.00102	0.00113	0.00053	2
33668	0.00036	4e-05	0.00025	0.00046	2e-05	0.00102	0.00113	0.00053	2
33669	0.00036	4e-05	0.00025	0.00046	2e-05	0.00102	0.00113	0.00053	2
33670	0.00036	4e-05	0.00025	0.00046	2e-05	0.00102	0.00113	0.00053	2
33671	0.00036	4e-05	0.00025	0.00046	2e-05	0.00102	0.00113	0.00053	2
33672	0.00036	4e-05	0.00025	0.00046	2e-05	0.00102	0.00113	0.00053	2
33673	0.00036	4e-05	0.00025	0.00046	2e-05	0.00102	0.00113	0.00053	2
33674	0.00036	4e-05	0.00025	0.00046	2e-05	0.00102	0.00113	0.00053	2
33675	0.00036	4e-05	0.00025	0.00046	2e-05	0.00102	0.00113	0.00053	2
33676	0.00036	4e-05	0.00025	0.00046	2e-05	0.00102	0.00113	0.00053	2
33677	0.00036	4e-05	0.00025	0.00046	2e-05	0.00102	0.00113	0.00053	2
33678	0.00036	4e-05	0.00025	0.00046	2e-05	0.00102	0.00113	0.00053	2
33679	0.00036	4e-05	0.00025	0.00046	2e-05	0.00102	0.00113	0.00053	2
33680	0.00036	4e-05	0.00025	0.00046	2e-05	0.00102	0.00113	0.00053	2
33681	0.00036	4e-05	0.00025	0.00046	2e-05	0.00102	0.00113	0.00053	2
33682	0.00036	4e-05	0.00025	0.00046	2e-05	0.00102	0.00113	0.00053	2
33683	0.00036	4e-05	0.00025	0.00046	2e-05	0.00102	0.00113	0.00053	2
33684	0.00036	4e-05	0.00025	0.00046	2e-05	0.00102	0.00113	0.00053	2
33685	0.00036	4e-05	0.00025	0.00046	2e-05	0.00102	0.00113	0.00053	2
33686	-0.00065	-9e-05	-0.00016	-0.00048	-0.00024	-0.00078	-0.00064	-0.00063	2
33690	-0.00041	-0.00015	-0.00014	-0.0005	0.00017	0.00029	-0.00072	-0.0002	2
33691	-0.00041	-0.00015	-0.00014	-0.0005	0.00017	0.00029	-0.00072	-0.0002	2
33692	-0.00041	-0.00015	-0.00014	-0.0005	0.00017	0.00029	-0.00072	-0.0002	2
33693	-0.00041	-0.00015	-0.00014	-0.0005	0.00017	0.00029	-0.00072	-0.0002	2
33694	-0.00041	-0.00015	-0.00014	-0.0005	0.00017	0.00029	-0.00072	-0.0002	2
33695	-0.00041	-0.00015	-0.00014	-0.0005	0.00017	0.00029	-0.00072	-0.0002	2
33696	-0.00041	-0.00015	-0.00014	-0.0005	0.00017	0.00029	-0.00072	-0.0002	2
33697	-0.00041	-0.00015	-0.00014	-0.0005	0.00017	0.00029	-0.00072	-0.0002	2
33698	-0.00041	-0.00015	-0.00014	-0.0005	0.00017	0.00029	-0.00072	-0.0002	2
33699	-0.00041	-0.00015	-0.00014	-0.0005	0.00017	0.00029	-0.00072	-0.0002	2
33700	0.00018	1e-05	-4e-05	0.00046	5e-05	0.00039	0.00016	0.0002	2
33701	0.00018	1e-05	-4e-05	0.00046	5e-05	0.00039	0.00016	0.0002	2
33702	0.00018	1e-05	-4e-05	0.00046	5e-05	0.00039	0.00016	0.0002	2
33703	0.00018	1e-05	-4e-05	0.00046	5e-05	0.00039	0.00016	0.0002	2
33704	0.00018	1e-05	-4e-05	0.00046	5e-05	0.00039	0.00016	0.0002	2
33705	0.00018	1e-05	-4e-05	0.00046	5e-05	0.00039	0.00016	0.0002	2
33706	0.00018	1e-05	-4e-05	0.00046	5e-05	0.00039	0.00016	0.0002	2
33707	0.00042	0.00023	0.00041	0.00023	3e-05	-0.00036	-0.00054	0.00025	2
33708	0.00042	0.00023	0.00041	0.00023	3e-05	-0.00036	-0.00054	0.00025	2
33709	0.00042	0.00023	0.00041	0.00023	3e-05	-0.00036	-0.00054	0.00025	2
33710	0.00042	0.00023	0.00041	0.00023	3e-05	-0.00036	-0.00054	0.00025	2
33711	0.00042	0.00023	0.00041	0.00023	3e-05	-0.00036	-0.00054	0.00025	2
33712	0.00042	0.00023	0.00041	0.00023	3e-05	-0.00036	-0.00054	0.00025	2
33713	0.00042	0.00023	0.00041	0.00023	3e-05	-0.00036	-0.00054	0.00025	2
33714	0.00042	0.00023	0.00041	0.00023	3e-05	-0.00036	-0.00054	0.00025	2
33715	0.00042	0.00023	0.00041	0.00023	3e-05	-0.00036	-0.00054	0.00025	2
33716	0.00042	0.00023	0.00041	0.00023	3e-05	-0.00036	-0.00054	0.00025	2
33717	0.00042	0.00023	0.00041	0.00023	3e-05	-0.00036	-0.00054	0.00025	2
33718	0.00042	0.00023	0.00041	0.00023	3e-05	-0.00036	-0.00054	0.00025	2
33719	0.00042	0.00023	0.00041	0.00023	3e-05	-0.00036	-0.00054	0.00025	2
33720	0.00042	0.00023	0.00041	0.00023	3e-05	-0.00036	-0.00054	0.00025	2
33721	0.00042	0.00023	0.00041	0.00023	3e-05	-0.00036	-0.00054	0.00025	2
33722	0.00042	0.00023	0.00041	0.00023	3e-05	-0.00036	-0.00054	0.00025	2
33723	0.00042	0.00023	0.00041	0.00023	3e-05	-0.00036	-0.00054	0.00025	2
33724	0.00018	3e-05	-2e-05	0.00031	7e-05	0.00041	0.00035	0.00019	2
33725	0.00031	1e-05	-2e-05	0.00021	-0.00027	0.00022	0.00036	0.0004	2
33726	0.00031	1e-05	-2e-05	0.00021	-0.00027	0.00022	0.00036	0.0004	2
33727	0.00031	1e-05	-2e-05	0.00021	-0.00027	0.00022	0.00036	0.0004	2
33728	0.00031	1e-05	-2e-05	0.00021	-0.00027	0.00022	0.00036	0.0004	2
