8607	-0.00013	2e-05	2e-05	1e-05	0.00014	0.00021	0.00011	-0.0001	3
8608	-0.00013	2e-05	2e-05	1e-05	0.00014	0.00021	0.00011	-0.0001	3
8609	-0.00013	2e-05	2e-05	1e-05	0.00014	0.00021	0.00011	-0.0001	3
8610	-0.00013	2e-05	2e-05	1e-05	0.00014	0.00021	0.00011	-0.0001	3
8611	-0.00013	2e-05	2e-05	1e-05	0.00014	0.00021	0.00011	-0.0001	3
8612	0.00022	0.00018	-1e-05	-0.00016	-0.00038	-0.00018	0.00045	0.00027	3
8613	0.00022	0.00018	-1e-05	-0.00016	-0.00038	-0.00018	0.00045	0.00027	3
8614	0.00022	0.00018	-1e-05	-0.00016	-0.00038	-0.00018	0.00045	0.00027	3
8615	0.00022	0.00018	-1e-05	-0.00016	-0.00038	-0.00018	0.00045	0.00027	3
8616	0.00022	0.00018	-1e-05	-0.00016	-0.00038	-0.00018	0.00045	0.00027	3
8617	0.00022	0.00018	-1e-05	-0.00016	-0.00038	-0.00018	0.00045	0.00027	3
8618	0.00022	0.00018	-1e-05	-0.00016	-0.00038	-0.00018	0.00045	0.00027	3
8619	0.00022	0.00018	-1e-05	-0.00016	-0.00038	-0.00018	0.00045	0.00027	3
8620	0.00022	0.00018	-1e-05	-0.00016	-0.00038	-0.00018	0.00045	0.00027	3
8621	8e-05	-0.00014	-6e-05	-0.00016	-0.00029	-0.00026	-0.00012	0.00021	3
8622	0.00015	4e-05	-0.00011	-9e-05	-1e-05	0.0001	0.00024	-0.00033	3
8623	0.00015	4e-05	-0.00011	-9e-05	-1e-05	0.0001	0.00024	-0.00033	3
8624	0.00015	4e-05	-0.00011	-9e-05	-1e-05	0.0001	0.00024	-0.00033	3
8625	0.00015	4e-05	-0.00011	-9e-05	-1e-05	0.0001	0.00024	-0.00033	3
8626	0.00015	4e-05	-0.00011	-9e-05	-1e-05	0.0001	0.00024	-0.00033	3
8627	0.00015	4e-05	-0.00011	-9e-05	-1e-05	0.0001	0.00024	-0.00033	3
8628	0.00015	4e-05	-0.00011	-9e-05	-1e-05	0.0001	0.00024	-0.00033	3
8629	0.00015	4e-05	-0.00011	-9e-05	-1e-05	0.0001	0.00024	-0.00033	3
8630	0.00015	4e-05	-0.00011	-9e-05	-1e-05	0.0001	0.00024	-0.00033	3
8631	0.00015	4e-05	-0.00011	-9e-05	-1e-05	0.0001	0.00024	-0.00033	3
8632	0.00015	4e-05	-0.00011	-9e-05	-1e-05	0.0001	0.00024	-0.00033	3
8633	0.00015	4e-05	-0.00011	-9e-05	-1e-05	0.0001	0.00024	-0.00033	3
8634	0.00015	4e-05	-0.00011	-9e-05	-1e-05	0.0001	0.00024	-0.00033	3
8635	0.00015	4e-05	-0.00011	-9e-05	-1e-05	0.0001	0.00024	-0.00033	3
8636	0.00015	4e-05	-0.00011	-9e-05	-1e-05	0.0001	0.00024	-0.00033	3
8638	0.00015	4e-05	-0.00011	-9e-05	-1e-05	0.0001	0.00024	-0.00033	3
8639	0.00015	4e-05	-0.00011	-9e-05	-1e-05	0.0001	0.00024	-0.00033	3
8640	0.00015	4e-05	-0.00011	-9e-05	-1e-05	0.0001	0.00024	-0.00033	3
8641	0.00015	4e-05	-0.00011	-9e-05	-1e-05	0.0001	0.00024	-0.00033	3
8642	0.00015	4e-05	-0.00011	-9e-05	-1e-05	0.0001	0.00024	-0.00033	3
8643	0.00014	0.00012	-4e-05	-0.00014	-0.00019	-8e-05	-0.00043	-8e-05	3
8644	0.00014	0.00012	-4e-05	-0.00014	-0.00019	-8e-05	-0.00043	-8e-05	3
8645	-7e-05	-8e-05	-8e-05	1e-05	0.00024	-0.0001	-5e-05	8e-05	3
8646	-7e-05	-8e-05	-8e-05	1e-05	0.00024	-0.0001	-5e-05	8e-05	3
8647	-7e-05	-8e-05	-8e-05	1e-05	0.00024	-0.0001	-5e-05	8e-05	3
8648	-7e-05	-8e-05	-8e-05	1e-05	0.00024	-0.0001	-5e-05	8e-05	3
8649	-7e-05	-8e-05	-8e-05	1e-05	0.00024	-0.0001	-5e-05	8e-05	3
8650	-7e-05	-8e-05	-8e-05	1e-05	0.00024	-0.0001	-5e-05	8e-05	3
8651	-7e-05	-8e-05	-8e-05	1e-05	0.00024	-0.0001	-5e-05	8e-05	3
8652	-7e-05	-8e-05	-8e-05	1e-05	0.00024	-0.0001	-5e-05	8e-05	3
8653	-7e-05	-8e-05	-8e-05	1e-05	0.00024	-0.0001	-5e-05	8e-05	3
8654	-7e-05	-8e-05	-8e-05	1e-05	0.00024	-0.0001	-5e-05	8e-05	3
8655	-7e-05	-8e-05	-8e-05	1e-05	0.00024	-0.0001	-5e-05	8e-05	3
8656	-7e-05	-8e-05	-8e-05	1e-05	0.00024	-0.0001	-5e-05	8e-05	3
8657	-7e-05	-8e-05	-8e-05	1e-05	0.00024	-0.0001	-5e-05	8e-05	3
8658	-7e-05	-8e-05	-8e-05	1e-05	0.00024	-0.0001	-5e-05	8e-05	3
8659	-7e-05	-8e-05	-8e-05	1e-05	0.00024	-0.0001	-5e-05	8e-05	3
8660	-7e-05	-8e-05	-8e-05	1e-05	0.00024	-0.0001	-5e-05	8e-05	3
8661	-7e-05	-8e-05	-8e-05	1e-05	0.00024	-0.0001	-5e-05	8e-05	3
8662	-7e-05	-8e-05	-8e-05	1e-05	0.00024	-0.0001	-5e-05	8e-05	3
8663	-7e-05	-8e-05	-8e-05	1e-05	0.00024	-0.0001	-5e-05	8e-05	3
8664	-7e-05	-8e-05	-8e-05	1e-05	0.00024	-0.0001	-5e-05	8e-05	3
8665	-7e-05	-8e-05	-8e-05	1e-05	0.00024	-0.0001	-5e-05	8e-05	3
8666	2e-05	-8e-05	-9e-05	-4e-05	-0.00014	3e-05	-0.0005	-0.00028	3
8667	2e-05	-8e-05	-9e-05	-4e-05	-0.00014	3e-05	-0.0005	-0.00028	3
8668	-0.00049	0.0002	0.00012	9e-05	-6e-05	8e-05	-0.00013	-0.00015	3
8669	-0.00049	0.0002	0.00012	9e-05	-6e-05	8e-05	-0.00013	-0.00015	3
8670	-0.00049	0.0002	0.00012	9e-05	-6e-05	8e-05	-0.00013	-0.00015	3
8671	-0.00049	0.0002	0.00012	9e-05	-6e-05	8e-05	-0.00013	-0.00015	3
8672	-0.00049	0.0002	0.00012	9e-05	-6e-05	8e-05	-0.00013	-0.00015	3
8673	-0.00049	0.0002	0.00012	9e-05	-6e-05	8e-05	-0.00013	-0.00015	3
8674	-0.00049	0.0002	0.00012	9e-05	-6e-05	8e-05	-0.00013	-0.00015	3
8675	-0.00049	0.0002	0.00012	9e-05	-6e-05	8e-05	-0.00013	-0.00015	3
8676	-0.00049	0.0002	0.00012	9e-05	-6e-05	8e-05	-0.00013	-0.00015	3
8677	-0.00049	0.0002	0.00012	9e-05	-6e-05	8e-05	-0.00013	-0.00015	3
8678	-0.00049	0.0002	0.00012	9e-05	-6e-05	8e-05	-0.00013	-0.00015	3
8679	-0.00049	0.0002	0.00012	9e-05	-6e-05	8e-05	-0.00013	-0.00015	3
8680	-0.00049	0.0002	0.00012	9e-05	-6e-05	8e-05	-0.00013	-0.00015	3
8681	-0.00036	-0.0003	1e-05	-0.00011	-8e-05	5e-05	0.00025	-0.00046	3
8682	-0.00037	-0.00013	7e-05	9e-05	0.00026	0.00015	1e-05	-0.00021	3
8683	-0.00037	-0.00013	7e-05	9e-05	0.00026	0.00015	1e-05	-0.00021	3
8684	-0.00037	-0.00013	7e-05	9e-05	0.00026	0.00015	1e-05	-0.00021	3
8685	-0.00037	-0.00013	7e-05	9e-05	0.00026	0.00015	1e-05	-0.00021	3
8686	-0.00037	-0.00013	7e-05	9e-05	0.00026	0.00015	1e-05	-0.00021	3
8688	-0.00037	-0.00013	7e-05	9e-05	0.00026	0.00015	1e-05	-0.00021	3
8689	-0.00037	-0.00013	7e-05	9e-05	0.00026	0.00015	1e-05	-0.00021	3
8690	-0.00037	-0.00013	7e-05	9e-05	0.00026	0.00015	1e-05	-0.00021	3
8691	-0.00037	-0.00013	7e-05	9e-05	0.00026	0.00015	1e-05	-0.00021	3
8692	-0.00037	-0.00013	7e-05	9e-05	0.00026	0.00015	1e-05	-0.00021	3
8693	-0.00037	-0.00013	7e-05	9e-05	0.00026	0.00015	1e-05	-0.00021	3
8694	-0.00037	-0.00013	7e-05	9e-05	0.00026	0.00015	1e-05	-0.00021	3
8695	-0.00037	-0.00013	7e-05	9e-05	0.00026	0.00015	1e-05	-0.00021	3
8696	-0.00037	-0.00013	7e-05	9e-05	0.00026	0.00015	1e-05	-0.00021	3
8697	-0.00037	-0.00013	7e-05	9e-05	0.00026	0.00015	1e-05	-0.00021	3
8698	-0.00037	-0.00013	7e-05	9e-05	0.00026	0.00015	1e-05	-0.00021	3
8699	-0.00037	-0.00013	7e-05	9e-05	0.00026	0.00015	1e-05	-0.00021	3
8700	-0.00037	-0.00013	7e-05	9e-05	0.00026	0.00015	1e-05	-0.00021	3
8701	-0.00037	-0.00013	7e-05	9e-05	0.00026	0.00015	1e-05	-0.00021	3
8702	-0.00037	-0.00013	7e-05	9e-05	0.00026	0.00015	1e-05	-0.00021	3
8703	-0.00037	-0.00013	7e-05	9e-05	0.00026	0.00015	1e-05	-0.00021	3
8704	0.00034	0.00029	0	-0.00012	-0.00029	-3e-05	0.00022	-0.00012	3
8705	-0.00011	-0.00013	-2e-05	6e-05	0.00016	0.00014	0.00024	-0.00014	3
8706	-0.00011	-0.00013	-2e-05	6e-05	0.00016	0.00014	0.00024	-0.00014	3
8707	-0.00011	-0.00013	-2e-05	6e-05	0.00016	0.00014	0.00024	-0.00014	3
8708	-0.00011	-0.00013	-2e-05	6e-05	0.00016	0.00014	0.00024	-0.00014	3
8709	-0.00011	-0.00013	-2e-05	6e-05	0.00016	0.00014	0.00024	-0.00014	3
8710	-0.00011	-0.00013	-2e-05	6e-05	0.00016	0.00014	0.00024	-0.00014	3
8711	-0.00011	-0.00013	-2e-05	6e-05	0.00016	0.00014	0.00024	-0.00014	3
8712	-0.00011	-0.00013	-2e-05	6e-05	0.00016	0.00014	0.00024	-0.00014	3
8713	-0.00011	-0.00013	-2e-05	6e-05	0.00016	0.00014	0.00024	-0.00014	3
8714	-0.00011	-0.00013	-2e-05	6e-05	0.00016	0.00014	0.00024	-0.00014	3
8715	-0.00011	-0.00013	-2e-05	6e-05	0.00016	0.00014	0.00024	-0.00014	3
8716	-0.00011	-0.00013	-2e-05	6e-05	0.00016	0.00014	0.00024	-0.00014	3
8717	-0.00011	-0.00013	-2e-05	6e-05	0.00016	0.00014	0.00024	-0.00014	3
8718	-0.00011	-0.00013	-2e-05	6e-05	0.00016	0.00014	0.00024	-0.00014	3
8719	-0.00011	-0.00013	-2e-05	6e-05	0.00016	0.00014	0.00024	-0.00014	3
8720	-0.00011	-0.00013	-2e-05	6e-05	0.00016	0.00014	0.00024	-0.00014	3
8721	-0.00011	-0.00013	-2e-05	6e-05	0.00016	0.00014	0.00024	-0.00014	3
8722	-0.00011	-0.00013	-2e-05	6e-05	0.00016	0.00014	0.00024	-0.00014	3
8723	-0.00011	-0.00013	-2e-05	6e-05	0.00016	0.00014	0.00024	-0.00014	3
8724	-0.00011	-0.00013	-2e-05	6e-05	0.00016	0.00014	0.00024	-0.00014	3
8725	-0.00011	-0.00013	-2e-05	6e-05	0.00016	0.00014	0.00024	-0.00014	3
8726	0.00041	9e-05	-4e-05	-4e-05	-9e-05	-2e-05	0.00028	0.00029	3
8727	-0.00027	-8e-05	-2e-05	-0.0002	-0.00036	-2e-05	0.00026	-0.00019	3
8728	-0.00027	-8e-05	-2e-05	-0.0002	-0.00036	-2e-05	0.00026	-0.00019	3
8729	-0.00027	-8e-05	-2e-05	-0.0002	-0.00036	-2e-05	0.00026	-0.00019	3
8730	-0.00027	-8e-05	-2e-05	-0.0002	-0.00036	-2e-05	0.00026	-0.00019	3
8731	-0.00027	-8e-05	-2e-05	-0.0002	-0.00036	-2e-05	0.00026	-0.00019	3
8732	-0.00027	-8e-05	-2e-05	-0.0002	-0.00036	-2e-05	0.00026	-0.00019	3
8733	-0.00027	-8e-05	-2e-05	-0.0002	-0.00036	-2e-05	0.00026	-0.00019	3
8734	-0.00027	-8e-05	-2e-05	-0.0002	-0.00036	-2e-05	0.00026	-0.00019	3
8735	-0.00027	-8e-05	-2e-05	-0.0002	-0.00036	-2e-05	0.00026	-0.00019	3
8736	-0.00027	-8e-05	-2e-05	-0.0002	-0.00036	-2e-05	0.00026	-0.00019	3
8738	-0.00027	-8e-05	-2e-05	-0.0002	-0.00036	-2e-05	0.00026	-0.00019	3
8739	-0.00027	-8e-05	-2e-05	-0.0002	-0.00036	-2e-05	0.00026	-0.00019	3
8740	-0.00027	-8e-05	-2e-05	-0.0002	-0.00036	-2e-05	0.00026	-0.00019	3
8741	-0.00027	-8e-05	-2e-05	-0.0002	-0.00036	-2e-05	0.00026	-0.00019	3
8742	-0.00027	-8e-05	-2e-05	-0.0002	-0.00036	-2e-05	0.00026	-0.00019	3
8743	-0.00027	-8e-05	-2e-05	-0.0002	-0.00036	-2e-05	0.00026	-0.00019	3
8744	-0.00027	-8e-05	-2e-05	-0.0002	-0.00036	-2e-05	0.00026	-0.00019	3
8745	-0.00027	-8e-05	-2e-05	-0.0002	-0.00036	-2e-05	0.00026	-0.00019	3
8746	-0.00027	-8e-05	-2e-05	-0.0002	-0.00036	-2e-05	0.00026	-0.00019	3
8747	-0.00027	-8e-05	-2e-05	-0.0002	-0.00036	-2e-05	0.00026	-0.00019	3
8748	-0.00027	-8e-05	-2e-05	-0.0002	-0.00036	-2e-05	0.00026	-0.00019	3
8749	-0.00051	0.00019	0.0001	0.00018	0.00022	9e-05	-7e-05	-3e-05	3
8750	0.00015	0.00011	3e-05	8e-05	0.00015	-1e-05	2e-05	0.00026	3
8751	0.00015	0.00011	3e-05	8e-05	0.00015	-1e-05	2e-05	0.00026	3
8752	0.00015	0.00011	3e-05	8e-05	0.00015	-1e-05	2e-05	0.00026	3
8753	0.00015	0.00011	3e-05	8e-05	0.00015	-1e-05	2e-05	0.00026	3
8754	0.00015	0.00011	3e-05	8e-05	0.00015	-1e-05	2e-05	0.00026	3
8755	0.00015	0.00011	3e-05	8e-05	0.00015	-1e-05	2e-05	0.00026	3
8756	0.00015	0.00011	3e-05	8e-05	0.00015	-1e-05	2e-05	0.00026	3
8757	0.00015	0.00011	3e-05	8e-05	0.00015	-1e-05	2e-05	0.00026	3
8758	0.00015	0.00011	3e-05	8e-05	0.00015	-1e-05	2e-05	0.00026	3
8759	0.00015	0.00011	3e-05	8e-05	0.00015	-1e-05	2e-05	0.00026	3
8760	0.00015	0.00011	3e-05	8e-05	0.00015	-1e-05	2e-05	0.00026	3
8761	0.00015	0.00011	3e-05	8e-05	0.00015	-1e-05	2e-05	0.00026	3
8762	0.00015	0.00011	3e-05	8e-05	0.00015	-1e-05	2e-05	0.00026	3
8763	0.00045	0.00011	-5e-05	0.0001	0.00025	0.00019	0.00012	0.00036	3
8764	0.00045	0.00011	-5e-05	0.0001	0.00025	0.00019	0.00012	0.00036	3
8765	-0.00016	-4e-05	4e-05	-0.0001	-0.00023	4e-05	-0.00011	0.00013	3
8766	-0.00016	-4e-05	4e-05	-0.0001	-0.00023	4e-05	-0.00011	0.00013	3
8767	-0.00016	-4e-05	4e-05	-0.0001	-0.00023	4e-05	-0.00011	0.00013	3
8768	-0.00016	-4e-05	4e-05	-0.0001	-0.00023	4e-05	-0.00011	0.00013	3
8769	-0.00016	-4e-05	4e-05	-0.0001	-0.00023	4e-05	-0.00011	0.00013	3
8770	-0.00016	-4e-05	4e-05	-0.0001	-0.00023	4e-05	-0.00011	0.00013	3
8771	-0.00016	-4e-05	4e-05	-0.0001	-0.00023	4e-05	-0.00011	0.00013	3
8772	-0.00016	-4e-05	4e-05	-0.0001	-0.00023	4e-05	-0.00011	0.00013	3
8773	-0.00016	-4e-05	4e-05	-0.0001	-0.00023	4e-05	-0.00011	0.00013	3
8774	-0.00016	-4e-05	4e-05	-0.0001	-0.00023	4e-05	-0.00011	0.00013	3
8775	-0.00016	-4e-05	4e-05	-0.0001	-0.00023	4e-05	-0.00011	0.00013	3
8776	-0.00016	-4e-05	4e-05	-0.0001	-0.00023	4e-05	-0.00011	0.00013	3
8777	-0.00016	-4e-05	4e-05	-0.0001	-0.00023	4e-05	-0.00011	0.00013	3
8778	-0.00016	-4e-05	4e-05	-0.0001	-0.00023	4e-05	-0.00011	0.00013	3
8779	-0.00016	-4e-05	4e-05	-0.0001	-0.00023	4e-05	-0.00011	0.00013	3
8780	-0.00016	-4e-05	4e-05	-0.0001	-0.00023	4e-05	-0.00011	0.00013	3
8781	-0.00016	-4e-05	4e-05	-0.0001	-0.00023	4e-05	-0.00011	0.00013	3
8782	-0.00016	-4e-05	4e-05	-0.0001	-0.00023	4e-05	-0.00011	0.00013	3
8783	-0.00016	-4e-05	4e-05	-0.0001	-0.00023	4e-05	-0.00011	0.00013	3
8784	-0.00016	-4e-05	4e-05	-0.0001	-0.00023	4e-05	-0.00011	0.00013	3
8785	-0.00016	-4e-05	4e-05	-0.0001	-0.00023	4e-05	-0.00011	0.00013	3
8786	-0.00016	-4e-05	4e-05	-0.0001	-0.00023	4e-05	-0.00011	0.00013	3
8788	-3e-05	0.00014	0	-0.0002	-0.00012	0.00015	3e-05	-0.0001	3
8789	-0.00014	2e-05	2e-05	8e-05	0.00012	7e-05	-0.00014	-0.00051	3
8790	-0.00014	2e-05	2e-05	8e-05	0.00012	7e-05	-0.00014	-0.00051	3
8791	-0.00014	2e-05	2e-05	8e-05	0.00012	7e-05	-0.00014	-0.00051	3
8792	-0.00014	2e-05	2e-05	8e-05	0.00012	7e-05	-0.00014	-0.00051	3
8793	-0.00014	2e-05	2e-05	8e-05	0.00012	7e-05	-0.00014	-0.00051	3
8794	-0.00014	2e-05	2e-05	8e-05	0.00012	7e-05	-0.00014	-0.00051	3
8795	-0.00014	2e-05	2e-05	8e-05	0.00012	7e-05	-0.00014	-0.00051	3
8796	-0.00014	2e-05	2e-05	8e-05	0.00012	7e-05	-0.00014	-0.00051	3
8797	-0.00014	2e-05	2e-05	8e-05	0.00012	7e-05	-0.00014	-0.00051	3
8798	-0.00014	2e-05	2e-05	8e-05	0.00012	7e-05	-0.00014	-0.00051	3
8799	-0.00014	2e-05	2e-05	8e-05	0.00012	7e-05	-0.00014	-0.00051	3
8800	-0.00014	2e-05	2e-05	8e-05	0.00012	7e-05	-0.00014	-0.00051	3
8801	-0.00014	2e-05	2e-05	8e-05	0.00012	7e-05	-0.00014	-0.00051	3
8802	-0.00014	2e-05	2e-05	8e-05	0.00012	7e-05	-0.00014	-0.00051	3
8803	-0.00014	2e-05	2e-05	8e-05	0.00012	7e-05	-0.00014	-0.00051	3
8804	-0.00014	2e-05	2e-05	8e-05	0.00012	7e-05	-0.00014	-0.00051	3
8805	-0.00014	2e-05	2e-05	8e-05	0.00012	7e-05	-0.00014	-0.00051	3
8806	-0.00014	2e-05	2e-05	8e-05	0.00012	7e-05	-0.00014	-0.00051	3
8807	-0.00014	2e-05	2e-05	8e-05	0.00012	7e-05	-0.00014	-0.00051	3
8808	7e-05	0	-3e-05	-0.00017	-0.00048	-0.00021	-4e-05	-7e-05	3
8809	7e-05	0	-3e-05	-0.00017	-0.00048	-0.00021	-4e-05	-7e-05	3
8810	0.00028	-1e-05	-1e-05	-6e-05	-0.00017	-0.00032	-0.00018	0.00016	3
8811	0.00028	-1e-05	-1e-05	-6e-05	-0.00017	-0.00032	-0.00018	0.00016	3
8812	0.00028	-1e-05	-1e-05	-6e-05	-0.00017	-0.00032	-0.00018	0.00016	3
8813	0.00028	-1e-05	-1e-05	-6e-05	-0.00017	-0.00032	-0.00018	0.00016	3
8814	0.00028	-1e-05	-1e-05	-6e-05	-0.00017	-0.00032	-0.00018	0.00016	3
8815	0.00028	-1e-05	-1e-05	-6e-05	-0.00017	-0.00032	-0.00018	0.00016	3
8816	0.00028	-1e-05	-1e-05	-6e-05	-0.00017	-0.00032	-0.00018	0.00016	3
8817	0.00028	-1e-05	-1e-05	-6e-05	-0.00017	-0.00032	-0.00018	0.00016	3
8818	0.00028	-1e-05	-1e-05	-6e-05	-0.00017	-0.00032	-0.00018	0.00016	3
8819	0.00028	-1e-05	-1e-05	-6e-05	-0.00017	-0.00032	-0.00018	0.00016	3
8820	0.00028	-1e-05	-1e-05	-6e-05	-0.00017	-0.00032	-0.00018	0.00016	3
8821	0.00028	-1e-05	-1e-05	-6e-05	-0.00017	-0.00032	-0.00018	0.00016	3
8822	0.00028	-1e-05	-1e-05	-6e-05	-0.00017	-0.00032	-0.00018	0.00016	3
8823	6e-05	-0.00014	2e-05	7e-05	7e-05	0.00021	-5e-05	7e-05	3
8824	6e-05	-0.00014	2e-05	7e-05	7e-05	0.00021	-5e-05	7e-05	3
8825	-1e-05	-0.00022	0	-0.0001	-5e-05	0.00012	-0.00036	-0.00045	3
8826	-1e-05	-0.00022	0	-0.0001	-5e-05	0.00012	-0.00036	-0.00045	3
8827	-1e-05	-0.00022	0	-0.0001	-5e-05	0.00012	-0.00036	-0.00045	3
8828	-1e-05	-0.00022	0	-0.0001	-5e-05	0.00012	-0.00036	-0.00045	3
8829	-1e-05	-0.00022	0	-0.0001	-5e-05	0.00012	-0.00036	-0.00045	3
8830	-1e-05	-0.00022	0	-0.0001	-5e-05	0.00012	-0.00036	-0.00045	3
8831	-1e-05	-0.00022	0	-0.0001	-5e-05	0.00012	-0.00036	-0.00045	3
8832	-1e-05	-0.00022	0	-0.0001	-5e-05	0.00012	-0.00036	-0.00045	3
8833	-1e-05	-0.00022	0	-0.0001	-5e-05	0.00012	-0.00036	-0.00045	3
8834	-1e-05	-0.00022	0	-0.0001	-5e-05	0.00012	-0.00036	-0.00045	3
8835	-1e-05	-0.00022	0	-0.0001	-5e-05	0.00012	-0.00036	-0.00045	3
8836	-1e-05	-0.00022	0	-0.0001	-5e-05	0.00012	-0.00036	-0.00045	3
8838	-1e-05	-0.00022	0	-0.0001	-5e-05	0.00012	-0.00036	-0.00045	3
8839	-1e-05	-0.00022	0	-0.0001	-5e-05	0.00012	-0.00036	-0.00045	3
8840	-1e-05	-0.00022	0	-0.0001	-5e-05	0.00012	-0.00036	-0.00045	3
8841	-1e-05	-0.00022	0	-0.0001	-5e-05	0.00012	-0.00036	-0.00045	3
8842	-1e-05	-0.00022	0	-0.0001	-5e-05	0.00012	-0.00036	-0.00045	3
8843	-1e-05	-0.00022	0	-0.0001	-5e-05	0.00012	-0.00036	-0.00045	3
8844	-1e-05	-0.00022	0	-0.0001	-5e-05	0.00012	-0.00036	-0.00045	3
8845	-1e-05	-0.00022	0	-0.0001	-5e-05	0.00012	-0.00036	-0.00045	3
8846	0.00024	5e-05	-3e-05	9e-05	0.00023	1e-05	0.00031	3e-05	3
8847	-4e-05	0	-8e-05	4e-05	0.00013	-5e-05	-2e-05	-5e-05	3
8848	-4e-05	0	-8e-05	4e-05	0.00013	-5e-05	-2e-05	-5e-05	3
8849	-4e-05	0	-8e-05	4e-05	0.00013	-5e-05	-2e-05	-5e-05	3
8850	-4e-05	0	-8e-05	4e-05	0.00013	-5e-05	-2e-05	-5e-05	3
8851	-4e-05	0	-8e-05	4e-05	0.00013	-5e-05	-2e-05	-5e-05	3
8852	-4e-05	0	-8e-05	4e-05	0.00013	-5e-05	-2e-05	-5e-05	3
8853	-4e-05	0	-8e-05	4e-05	0.00013	-5e-05	-2e-05	-5e-05	3
8854	-4e-05	0	-8e-05	4e-05	0.00013	-5e-05	-2e-05	-5e-05	3
8855	-4e-05	0	-8e-05	4e-05	0.00013	-5e-05	-2e-05	-5e-05	3
8856	-4e-05	0	-8e-05	4e-05	0.00013	-5e-05	-2e-05	-5e-05	3
8857	-4e-05	0	-8e-05	4e-05	0.00013	-5e-05	-2e-05	-5e-05	3
8858	-4e-05	0	-8e-05	4e-05	0.00013	-5e-05	-2e-05	-5e-05	3
8859	-4e-05	0	-8e-05	4e-05	0.00013	-5e-05	-2e-05	-5e-05	3
8860	8e-05	7e-05	5e-05	6e-05	0.00016	9e-05	0.00021	0.00021	3
8861	8e-05	7e-05	5e-05	6e-05	0.00016	9e-05	0.00021	0.00021	3
8862	8e-05	7e-05	5e-05	6e-05	0.00016	9e-05	0.00021	0.00021	3
8863	8e-05	7e-05	5e-05	6e-05	0.00016	9e-05	0.00021	0.00021	3
8864	8e-05	7e-05	5e-05	6e-05	0.00016	9e-05	0.00021	0.00021	3
8865	8e-05	7e-05	5e-05	6e-05	0.00016	9e-05	0.00021	0.00021	3
8866	8e-05	7e-05	5e-05	6e-05	0.00016	9e-05	0.00021	0.00021	3
8867	0.00031	0.00014	2e-05	9e-05	8e-05	-0.00015	0.00044	0.00058	3
8868	0.00031	0.00014	2e-05	9e-05	8e-05	-0.00015	0.00044	0.00058	3
8869	0.00031	0.00014	2e-05	9e-05	8e-05	-0.00015	0.00044	0.00058	3
8870	0.00031	0.00014	2e-05	9e-05	8e-05	-0.00015	0.00044	0.00058	3
8871	0.00031	0.00014	2e-05	9e-05	8e-05	-0.00015	0.00044	0.00058	3
8872	0.00031	0.00014	2e-05	9e-05	8e-05	-0.00015	0.00044	0.00058	3
8873	0.00031	0.00014	2e-05	9e-05	8e-05	-0.00015	0.00044	0.00058	3
8874	0.00031	0.00014	2e-05	9e-05	8e-05	-0.00015	0.00044	0.00058	3
8875	0.00031	0.00014	2e-05	9e-05	8e-05	-0.00015	0.00044	0.00058	3
8876	0.00031	0.00014	2e-05	9e-05	8e-05	-0.00015	0.00044	0.00058	3
8877	0.00031	0.00014	2e-05	9e-05	8e-05	-0.00015	0.00044	0.00058	3
8878	0.00031	0.00014	2e-05	9e-05	8e-05	-0.00015	0.00044	0.00058	3
8879	0.00031	0.00014	2e-05	9e-05	8e-05	-0.00015	0.00044	0.00058	3
8880	0.00031	0.00014	2e-05	9e-05	8e-05	-0.00015	0.00044	0.00058	3
8881	0.00031	0.00014	2e-05	9e-05	8e-05	-0.00015	0.00044	0.00058	3
8882	0.00031	0.00014	2e-05	9e-05	8e-05	-0.00015	0.00044	0.00058	3
8883	0.00031	0.00014	2e-05	9e-05	8e-05	-0.00015	0.00044	0.00058	3
8884	0.00031	0.00014	2e-05	9e-05	8e-05	-0.00015	0.00044	0.00058	3
8885	0.00031	0.00014	2e-05	9e-05	8e-05	-0.00015	0.00044	0.00058	3
8886	0.00031	0.00014	2e-05	9e-05	8e-05	-0.00015	0.00044	0.00058	3
8888	0.00031	0.00014	2e-05	9e-05	8e-05	-0.00015	0.00044	0.00058	3
8889	0.00031	0.00014	2e-05	9e-05	8e-05	-0.00015	0.00044	0.00058	3
8890	0.00031	0.00014	2e-05	9e-05	8e-05	-0.00015	0.00044	0.00058	3
8891	0.00017	3e-05	-1e-05	0.00014	0.00033	0.00028	-0.00016	-0.00022	3
8892	0.00025	3e-05	2e-05	0.00021	0.00025	0.00012	0.00041	7e-05	3
8893	0.00025	3e-05	2e-05	0.00021	0.00025	0.00012	0.00041	7e-05	3
8894	0.00025	3e-05	2e-05	0.00021	0.00025	0.00012	0.00041	7e-05	3
8895	0.00025	3e-05	2e-05	0.00021	0.00025	0.00012	0.00041	7e-05	3
8896	0.00025	3e-05	2e-05	0.00021	0.00025	0.00012	0.00041	7e-05	3
8897	0.00025	3e-05	2e-05	0.00021	0.00025	0.00012	0.00041	7e-05	3
8898	0.00025	3e-05	2e-05	0.00021	0.00025	0.00012	0.00041	7e-05	3
8899	0.00025	3e-05	2e-05	0.00021	0.00025	0.00012	0.00041	7e-05	3
8900	0.00025	3e-05	2e-05	0.00021	0.00025	0.00012	0.00041	7e-05	3
8901	0.00025	3e-05	2e-05	0.00021	0.00025	0.00012	0.00041	7e-05	3
8902	0.00025	3e-05	2e-05	0.00021	0.00025	0.00012	0.00041	7e-05	3
8903	0.00025	3e-05	2e-05	0.00021	0.00025	0.00012	0.00041	7e-05	3
8904	0.00025	3e-05	2e-05	0.00021	0.00025	0.00012	0.00041	7e-05	3
8905	0.00025	3e-05	2e-05	0.00021	0.00025	0.00012	0.00041	7e-05	3
8906	-4e-05	-0.0001	0	-8e-05	-0.00012	-0.0002	5e-05	1e-05	3
8907	-0.00017	-0.0001	0	-6e-05	-7e-05	0.00017	-0.00012	-0.00021	3
8908	-0.00017	-0.0001	0	-6e-05	-7e-05	0.00017	-0.00012	-0.00021	3
8909	-0.00017	-0.0001	0	-6e-05	-7e-05	0.00017	-0.00012	-0.00021	3
8910	-0.00017	-0.0001	0	-6e-05	-7e-05	0.00017	-0.00012	-0.00021	3
8911	-0.00017	-0.0001	0	-6e-05	-7e-05	0.00017	-0.00012	-0.00021	3
8912	-0.00017	-0.0001	0	-6e-05	-7e-05	0.00017	-0.00012	-0.00021	3
8913	-0.00017	-0.0001	0	-6e-05	-7e-05	0.00017	-0.00012	-0.00021	3
8914	-0.00017	-0.0001	0	-6e-05	-7e-05	0.00017	-0.00012	-0.00021	3
8915	-0.00017	-0.0001	0	-6e-05	-7e-05	0.00017	-0.00012	-0.00021	3
8916	-0.00017	-0.0001	0	-6e-05	-7e-05	0.00017	-0.00012	-0.00021	3
8917	-0.00017	-0.0001	0	-6e-05	-7e-05	0.00017	-0.00012	-0.00021	3
8918	-0.00017	-0.0001	0	-6e-05	-7e-05	0.00017	-0.00012	-0.00021	3
8919	-0.00017	-0.0001	0	-6e-05	-7e-05	0.00017	-0.00012	-0.00021	3
8920	-0.00015	1e-05	-1e-05	-9e-05	-3e-05	-0.00023	-0.00033	-0.00017	3
8921	-0.00015	1e-05	-1e-05	-9e-05	-3e-05	-0.00023	-0.00033	-0.00017	3
8922	-0.00015	1e-05	-1e-05	-9e-05	-3e-05	-0.00023	-0.00033	-0.00017	3
8923	-0.00015	1e-05	-1e-05	-9e-05	-3e-05	-0.00023	-0.00033	-0.00017	3
8924	-0.00015	1e-05	-1e-05	-9e-05	-3e-05	-0.00023	-0.00033	-0.00017	3
8925	-0.00015	1e-05	-1e-05	-9e-05	-3e-05	-0.00023	-0.00033	-0.00017	3
8926	-0.00015	1e-05	-1e-05	-9e-05	-3e-05	-0.00023	-0.00033	-0.00017	3
8927	-0.00015	1e-05	-1e-05	-9e-05	-3e-05	-0.00023	-0.00033	-0.00017	3
8928	-0.00015	1e-05	-1e-05	-9e-05	-3e-05	-0.00023	-0.00033	-0.00017	3
8929	-0.00015	1e-05	-1e-05	-9e-05	-3e-05	-0.00023	-0.00033	-0.00017	3
8930	-0.00015	1e-05	-1e-05	-9e-05	-3e-05	-0.00023	-0.00033	-0.00017	3
8931	-0.00015	1e-05	-1e-05	-9e-05	-3e-05	-0.00023	-0.00033	-0.00017	3
8932	-0.00015	1e-05	-1e-05	-9e-05	-3e-05	-0.00023	-0.00033	-0.00017	3
8933	-0.00015	1e-05	-1e-05	-9e-05	-3e-05	-0.00023	-0.00033	-0.00017	3
8934	-0.00016	-3e-05	3e-05	-0.00018	-0.00031	-0.00012	-0.00016	0.00039	3
8935	-0.00016	-3e-05	3e-05	-0.00018	-0.00031	-0.00012	-0.00016	0.00039	3
8936	-0.00016	-3e-05	3e-05	-0.00018	-0.00031	-0.00012	-0.00016	0.00039	3
8938	-0.00016	-3e-05	3e-05	-0.00018	-0.00031	-0.00012	-0.00016	0.00039	3
8939	-0.00016	-3e-05	3e-05	-0.00018	-0.00031	-0.00012	-0.00016	0.00039	3
8940	-0.00016	-3e-05	3e-05	-0.00018	-0.00031	-0.00012	-0.00016	0.00039	3
8941	-0.00016	-3e-05	3e-05	-0.00018	-0.00031	-0.00012	-0.00016	0.00039	3
8942	-0.00016	-3e-05	3e-05	-0.00018	-0.00031	-0.00012	-0.00016	0.00039	3
8943	-0.00042	-0.00014	-6e-05	-0.00015	-0.00056	-0.00031	-0.00033	9e-05	3
8944	-0.00042	-0.00014	-6e-05	-0.00015	-0.00056	-0.00031	-0.00033	9e-05	3
8945	0.00016	0.00012	2e-05	-4e-05	-0.00018	-0.00013	-0.00022	8e-05	3
8946	0.00016	0.00012	2e-05	-4e-05	-0.00018	-0.00013	-0.00022	8e-05	3
8947	0.00016	0.00012	2e-05	-4e-05	-0.00018	-0.00013	-0.00022	8e-05	3
8948	0.00016	0.00012	2e-05	-4e-05	-0.00018	-0.00013	-0.00022	8e-05	3
8949	0.00016	0.00012	2e-05	-4e-05	-0.00018	-0.00013	-0.00022	8e-05	3
8950	0.00016	0.00012	2e-05	-4e-05	-0.00018	-0.00013	-0.00022	8e-05	3
8951	0.00016	0.00012	2e-05	-4e-05	-0.00018	-0.00013	-0.00022	8e-05	3
8952	0.00016	0.00012	2e-05	-4e-05	-0.00018	-0.00013	-0.00022	8e-05	3
8953	0.00016	0.00012	2e-05	-4e-05	-0.00018	-0.00013	-0.00022	8e-05	3
8954	0.00016	0.00012	2e-05	-4e-05	-0.00018	-0.00013	-0.00022	8e-05	3
8955	0.00016	0.00012	2e-05	-4e-05	-0.00018	-0.00013	-0.00022	8e-05	3
8956	0.00016	0.00012	2e-05	-4e-05	-0.00018	-0.00013	-0.00022	8e-05	3
8957	0.00016	0.00012	2e-05	-4e-05	-0.00018	-0.00013	-0.00022	8e-05	3
8958	0.00016	0.00012	2e-05	-4e-05	-0.00018	-0.00013	-0.00022	8e-05	3
8959	0.00016	0.00012	2e-05	-4e-05	-0.00018	-0.00013	-0.00022	8e-05	3
8960	0.00016	0.00012	2e-05	-4e-05	-0.00018	-0.00013	-0.00022	8e-05	3
8961	0.00016	0.00012	2e-05	-4e-05	-0.00018	-0.00013	-0.00022	8e-05	3
8962	0.00016	0.00012	2e-05	-4e-05	-0.00018	-0.00013	-0.00022	8e-05	3
8963	0.00016	0.00012	2e-05	-4e-05	-0.00018	-0.00013	-0.00022	8e-05	3
8964	0.00016	0.00012	2e-05	-4e-05	-0.00018	-0.00013	-0.00022	8e-05	3
8965	0.00016	0.00012	2e-05	-4e-05	-0.00018	-0.00013	-0.00022	8e-05	3
8966	0.00019	6e-05	-0.00012	-7e-05	1e-05	-0.00018	-0.00031	-9e-05	3
8967	2e-05	3e-05	1e-05	4e-05	0.00016	9e-05	-6e-05	2e-05	3
8968	4e-05	-2e-05	-2e-05	-0.00012	-0.00018	0	-1e-05	-0.00011	3
8969	4e-05	-2e-05	-2e-05	-0.00012	-0.00018	0	-1e-05	-0.00011	3
8970	4e-05	-2e-05	-2e-05	-0.00012	-0.00018	0	-1e-05	-0.00011	3
8971	4e-05	-2e-05	-2e-05	-0.00012	-0.00018	0	-1e-05	-0.00011	3
8972	4e-05	-2e-05	-2e-05	-0.00012	-0.00018	0	-1e-05	-0.00011	3
8973	4e-05	-2e-05	-2e-05	-0.00012	-0.00018	0	-1e-05	-0.00011	3
8974	4e-05	-2e-05	-2e-05	-0.00012	-0.00018	0	-1e-05	-0.00011	3
8975	4e-05	-2e-05	-2e-05	-0.00012	-0.00018	0	-1e-05	-0.00011	3
8976	4e-05	-2e-05	-2e-05	-0.00012	-0.00018	0	-1e-05	-0.00011	3
8977	4e-05	-2e-05	-2e-05	-0.00012	-0.00018	0	-1e-05	-0.00011	3
8978	4e-05	-2e-05	-2e-05	-0.00012	-0.00018	0	-1e-05	-0.00011	3
8979	7e-05	-4e-05	-3e-05	-0.00013	-0.0002	5e-05	0.00017	-0.00012	3
8980	7e-05	-4e-05	-3e-05	-0.00013	-0.0002	5e-05	0.00017	-0.00012	3
8981	7e-05	-4e-05	-3e-05	-0.00013	-0.0002	5e-05	0.00017	-0.00012	3
8982	7e-05	-4e-05	-3e-05	-0.00013	-0.0002	5e-05	0.00017	-0.00012	3
8983	7e-05	-4e-05	-3e-05	-0.00013	-0.0002	5e-05	0.00017	-0.00012	3
8984	7e-05	-4e-05	-3e-05	-0.00013	-0.0002	5e-05	0.00017	-0.00012	3
8985	7e-05	-4e-05	-3e-05	-0.00013	-0.0002	5e-05	0.00017	-0.00012	3
8986	7e-05	-4e-05	-3e-05	-0.00013	-0.0002	5e-05	0.00017	-0.00012	3
8988	7e-05	-4e-05	-3e-05	-0.00013	-0.0002	5e-05	0.00017	-0.00012	3
8989	-0.00019	-0.00015	-0.00011	-0.00023	-8e-05	-0.0002	-0.00039	-0.00026	3
8990	-0.00019	-0.00015	-0.00011	-0.00023	-8e-05	-0.0002	-0.00039	-0.00026	3
8991	-0.00019	-0.00015	-0.00011	-0.00023	-8e-05	-0.0002	-0.00039	-0.00026	3
8992	-0.00019	-0.00015	-0.00011	-0.00023	-8e-05	-0.0002	-0.00039	-0.00026	3
8993	-0.00019	-0.00015	-0.00011	-0.00023	-8e-05	-0.0002	-0.00039	-0.00026	3
8994	-0.00019	-0.00015	-0.00011	-0.00023	-8e-05	-0.0002	-0.00039	-0.00026	3
8995	-0.00019	-0.00015	-0.00011	-0.00023	-8e-05	-0.0002	-0.00039	-0.00026	3
8996	-0.00019	-0.00015	-0.00011	-0.00023	-8e-05	-0.0002	-0.00039	-0.00026	3
8997	-0.00019	-0.00015	-0.00011	-0.00023	-8e-05	-0.0002	-0.00039	-0.00026	3
8998	-0.00019	-0.00015	-0.00011	-0.00023	-8e-05	-0.0002	-0.00039	-0.00026	3
8999	-0.00019	-0.00015	-0.00011	-0.00023	-8e-05	-0.0002	-0.00039	-0.00026	3
9000	-0.00019	-0.00015	-0.00011	-0.00023	-8e-05	-0.0002	-0.00039	-0.00026	3
9001	-0.00019	-0.00015	-0.00011	-0.00023	-8e-05	-0.0002	-0.00039	-0.00026	3
9002	-0.00019	-0.00015	-0.00011	-0.00023	-8e-05	-0.0002	-0.00039	-0.00026	3
9003	-0.0003	-0.00036	-8e-05	-6e-05	1e-05	-8e-05	-0.00027	-0.00024	3
9004	-0.0003	-0.00036	-8e-05	-6e-05	1e-05	-8e-05	-0.00027	-0.00024	3
9005	0.00026	4e-05	-6e-05	7e-05	4e-05	-0.00017	-7e-05	-0.0001	3
9006	0.00026	4e-05	-6e-05	7e-05	4e-05	-0.00017	-7e-05	-0.0001	3
9007	0.00026	4e-05	-6e-05	7e-05	4e-05	-0.00017	-7e-05	-0.0001	3
9008	0.00026	4e-05	-6e-05	7e-05	4e-05	-0.00017	-7e-05	-0.0001	3
9009	0.00026	4e-05	-6e-05	7e-05	4e-05	-0.00017	-7e-05	-0.0001	3
9010	0.00026	4e-05	-6e-05	7e-05	4e-05	-0.00017	-7e-05	-0.0001	3
9011	0.00026	4e-05	-6e-05	7e-05	4e-05	-0.00017	-7e-05	-0.0001	3
9012	0.00026	4e-05	-6e-05	7e-05	4e-05	-0.00017	-7e-05	-0.0001	3
9013	0.00026	4e-05	-6e-05	7e-05	4e-05	-0.00017	-7e-05	-0.0001	3
9014	0.00026	4e-05	-6e-05	7e-05	4e-05	-0.00017	-7e-05	-0.0001	3
9015	0.00026	4e-05	-6e-05	7e-05	4e-05	-0.00017	-7e-05	-0.0001	3
9016	0.00026	4e-05	-6e-05	7e-05	4e-05	-0.00017	-7e-05	-0.0001	3
9017	0.00026	4e-05	-6e-05	7e-05	4e-05	-0.00017	-7e-05	-0.0001	3
9018	0.00026	4e-05	-6e-05	7e-05	4e-05	-0.00017	-7e-05	-0.0001	3
9019	0.00026	4e-05	-6e-05	7e-05	4e-05	-0.00017	-7e-05	-0.0001	3
9020	0.00026	4e-05	-6e-05	7e-05	4e-05	-0.00017	-7e-05	-0.0001	3
9021	0.00026	4e-05	-6e-05	7e-05	4e-05	-0.00017	-7e-05	-0.0001	3
9022	0.00026	4e-05	-6e-05	7e-05	4e-05	-0.00017	-7e-05	-0.0001	3
9023	0.00026	4e-05	-6e-05	7e-05	4e-05	-0.00017	-7e-05	-0.0001	3
9024	0.00026	4e-05	-6e-05	7e-05	4e-05	-0.00017	-7e-05	-0.0001	3
9025	0.00026	4e-05	-6e-05	7e-05	4e-05	-0.00017	-7e-05	-0.0001	3
9026	-0.0002	-0.00014	7e-05	-6e-05	-0.00013	1e-05	-1e-05	0.00035	3
9027	-0.0002	-0.00014	7e-05	-6e-05	-0.00013	1e-05	-1e-05	0.00035	3
9028	-1e-05	-0.00014	-9e-05	-5e-05	-0.0001	6e-05	0.00018	0.00033	3
9029	-1e-05	-0.00014	-9e-05	-5e-05	-0.0001	6e-05	0.00018	0.00033	3
9030	-1e-05	-0.00014	-9e-05	-5e-05	-0.0001	6e-05	0.00018	0.00033	3
9031	-1e-05	-0.00014	-9e-05	-5e-05	-0.0001	6e-05	0.00018	0.00033	3
9032	-1e-05	-0.00014	-9e-05	-5e-05	-0.0001	6e-05	0.00018	0.00033	3
9033	-1e-05	-0.00014	-9e-05	-5e-05	-0.0001	6e-05	0.00018	0.00033	3
9034	-1e-05	-0.00014	-9e-05	-5e-05	-0.0001	6e-05	0.00018	0.00033	3
9035	-1e-05	-0.00014	-9e-05	-5e-05	-0.0001	6e-05	0.00018	0.00033	3
9036	-1e-05	-0.00014	-9e-05	-5e-05	-0.0001	6e-05	0.00018	0.00033	3
9038	-1e-05	-0.00014	-9e-05	-5e-05	-0.0001	6e-05	0.00018	0.00033	3
9039	-1e-05	-0.00014	-9e-05	-5e-05	-0.0001	6e-05	0.00018	0.00033	3
9040	0.00016	4e-05	-1e-05	7e-05	0.00017	0	-2e-05	-0.00016	3
9041	0.00016	4e-05	-1e-05	7e-05	0.00017	0	-2e-05	-0.00016	3
9042	0.00016	4e-05	-1e-05	7e-05	0.00017	0	-2e-05	-0.00016	3
9043	0.00016	4e-05	-1e-05	7e-05	0.00017	0	-2e-05	-0.00016	3
9044	0.00016	4e-05	-1e-05	7e-05	0.00017	0	-2e-05	-0.00016	3
9045	0.00016	4e-05	-1e-05	7e-05	0.00017	0	-2e-05	-0.00016	3
9046	0.00016	4e-05	-1e-05	7e-05	0.00017	0	-2e-05	-0.00016	3
9047	0	-3e-05	6e-05	-8e-05	-0.00029	-0.00021	-0.0004	0.00024	3
9048	0	-3e-05	6e-05	-8e-05	-0.00029	-0.00021	-0.0004	0.00024	3
9049	0	-3e-05	6e-05	-8e-05	-0.00029	-0.00021	-0.0004	0.00024	3
9050	0	-3e-05	6e-05	-8e-05	-0.00029	-0.00021	-0.0004	0.00024	3
9051	0	-3e-05	6e-05	-8e-05	-0.00029	-0.00021	-0.0004	0.00024	3
9052	0	-3e-05	6e-05	-8e-05	-0.00029	-0.00021	-0.0004	0.00024	3
9053	0	-3e-05	6e-05	-8e-05	-0.00029	-0.00021	-0.0004	0.00024	3
9054	0	-3e-05	6e-05	-8e-05	-0.00029	-0.00021	-0.0004	0.00024	3
9055	0	-3e-05	6e-05	-8e-05	-0.00029	-0.00021	-0.0004	0.00024	3
9056	0	-3e-05	6e-05	-8e-05	-0.00029	-0.00021	-0.0004	0.00024	3
9057	0	-3e-05	6e-05	-8e-05	-0.00029	-0.00021	-0.0004	0.00024	3
9058	0	-3e-05	6e-05	-8e-05	-0.00029	-0.00021	-0.0004	0.00024	3
9059	0	-3e-05	6e-05	-8e-05	-0.00029	-0.00021	-0.0004	0.00024	3
9060	0	-3e-05	6e-05	-8e-05	-0.00029	-0.00021	-0.0004	0.00024	3
9061	0	-3e-05	6e-05	-8e-05	-0.00029	-0.00021	-0.0004	0.00024	3
9062	8e-05	0.00026	-1e-05	6e-05	0.00024	5e-05	-0.00018	-2e-05	3
9063	8e-05	0.00026	-1e-05	6e-05	0.00024	5e-05	-0.00018	-2e-05	3
9064	8e-05	0.00026	-1e-05	6e-05	0.00024	5e-05	-0.00018	-2e-05	3
9065	8e-05	0.00026	-1e-05	6e-05	0.00024	5e-05	-0.00018	-2e-05	3
9066	8e-05	0.00026	-1e-05	6e-05	0.00024	5e-05	-0.00018	-2e-05	3
9067	8e-05	0.00026	-1e-05	6e-05	0.00024	5e-05	-0.00018	-2e-05	3
9068	8e-05	0.00026	-1e-05	6e-05	0.00024	5e-05	-0.00018	-2e-05	3
9069	8e-05	0.00026	-1e-05	6e-05	0.00024	5e-05	-0.00018	-2e-05	3
9070	8e-05	0.00026	-1e-05	6e-05	0.00024	5e-05	-0.00018	-2e-05	3
9071	-0.00032	-0.00029	-0.00014	8e-05	0.0001	7e-05	-3e-05	1e-05	3
9072	-0.00032	-0.00029	-0.00014	8e-05	0.0001	7e-05	-3e-05	1e-05	3
9073	-0.00032	-0.00029	-0.00014	8e-05	0.0001	7e-05	-3e-05	1e-05	3
9074	-0.00032	-0.00029	-0.00014	8e-05	0.0001	7e-05	-3e-05	1e-05	3
9075	-0.00032	-0.00029	-0.00014	8e-05	0.0001	7e-05	-3e-05	1e-05	3
9076	-0.00032	-0.00029	-0.00014	8e-05	0.0001	7e-05	-3e-05	1e-05	3
9077	-0.00032	-0.00029	-0.00014	8e-05	0.0001	7e-05	-3e-05	1e-05	3
9078	-0.00032	-0.00029	-0.00014	8e-05	0.0001	7e-05	-3e-05	1e-05	3
9079	-0.00032	-0.00029	-0.00014	8e-05	0.0001	7e-05	-3e-05	1e-05	3
9080	-0.00032	-0.00029	-0.00014	8e-05	0.0001	7e-05	-3e-05	1e-05	3
9081	-0.00032	-0.00029	-0.00014	8e-05	0.0001	7e-05	-3e-05	1e-05	3
9082	-0.00032	-0.00029	-0.00014	8e-05	0.0001	7e-05	-3e-05	1e-05	3
9083	-0.00032	-0.00029	-0.00014	8e-05	0.0001	7e-05	-3e-05	1e-05	3
9084	-0.00032	-0.00029	-0.00014	8e-05	0.0001	7e-05	-3e-05	1e-05	3
9085	-0.00032	-0.00029	-0.00014	8e-05	0.0001	7e-05	-3e-05	1e-05	3
9086	0.00046	0.00016	7e-05	5e-05	0.00015	5e-05	0.00012	0.00015	3
9088	-5e-05	6e-05	-1e-05	-0.00013	-0.00035	-4e-05	0.00028	-1e-05	3
9089	-5e-05	6e-05	-1e-05	-0.00013	-0.00035	-4e-05	0.00028	-1e-05	3
9090	-5e-05	6e-05	-1e-05	-0.00013	-0.00035	-4e-05	0.00028	-1e-05	3
9091	-5e-05	6e-05	-1e-05	-0.00013	-0.00035	-4e-05	0.00028	-1e-05	3
9092	-5e-05	6e-05	-1e-05	-0.00013	-0.00035	-4e-05	0.00028	-1e-05	3
9093	-5e-05	6e-05	-1e-05	-0.00013	-0.00035	-4e-05	0.00028	-1e-05	3
9094	-5e-05	6e-05	-1e-05	-0.00013	-0.00035	-4e-05	0.00028	-1e-05	3
9095	-5e-05	6e-05	-1e-05	-0.00013	-0.00035	-4e-05	0.00028	-1e-05	3
9096	-5e-05	6e-05	-1e-05	-0.00013	-0.00035	-4e-05	0.00028	-1e-05	3
9097	-5e-05	6e-05	-1e-05	-0.00013	-0.00035	-4e-05	0.00028	-1e-05	3
9098	-5e-05	6e-05	-1e-05	-0.00013	-0.00035	-4e-05	0.00028	-1e-05	3
9099	-3e-05	5e-05	0.00011	0.00015	8e-05	2e-05	8e-05	0.00041	3
9100	-3e-05	5e-05	0.00011	0.00015	8e-05	2e-05	8e-05	0.00041	3
9101	-3e-05	5e-05	0.00011	0.00015	8e-05	2e-05	8e-05	0.00041	3
9102	-3e-05	5e-05	0.00011	0.00015	8e-05	2e-05	8e-05	0.00041	3
9103	-3e-05	5e-05	0.00011	0.00015	8e-05	2e-05	8e-05	0.00041	3
9104	-3e-05	5e-05	0.00011	0.00015	8e-05	2e-05	8e-05	0.00041	3
9105	-3e-05	5e-05	0.00011	0.00015	8e-05	2e-05	8e-05	0.00041	3
9106	-3e-05	5e-05	0.00011	0.00015	8e-05	2e-05	8e-05	0.00041	3
9107	-3e-05	5e-05	0.00011	0.00015	8e-05	2e-05	8e-05	0.00041	3
9108	0.00047	0.00025	5e-05	6e-05	6e-05	-1e-05	0.0002	0.00053	3
9109	0.00047	0.00025	5e-05	6e-05	6e-05	-1e-05	0.0002	0.00053	3
9110	0.00047	0.00025	5e-05	6e-05	6e-05	-1e-05	0.0002	0.00053	3
9111	0.00047	0.00025	5e-05	6e-05	6e-05	-1e-05	0.0002	0.00053	3
9112	0.00047	0.00025	5e-05	6e-05	6e-05	-1e-05	0.0002	0.00053	3
9113	0.00047	0.00025	5e-05	6e-05	6e-05	-1e-05	0.0002	0.00053	3
9114	0.00047	0.00025	5e-05	6e-05	6e-05	-1e-05	0.0002	0.00053	3
9115	0.00047	0.00025	5e-05	6e-05	6e-05	-1e-05	0.0002	0.00053	3
9116	0.00047	0.00025	5e-05	6e-05	6e-05	-1e-05	0.0002	0.00053	3
9117	0.00047	0.00025	5e-05	6e-05	6e-05	-1e-05	0.0002	0.00053	3
9118	0.00047	0.00025	5e-05	6e-05	6e-05	-1e-05	0.0002	0.00053	3
9119	0.00047	0.00025	5e-05	6e-05	6e-05	-1e-05	0.0002	0.00053	3
9120	0.00047	0.00025	5e-05	6e-05	6e-05	-1e-05	0.0002	0.00053	3
9121	0.00047	0.00025	5e-05	6e-05	6e-05	-1e-05	0.0002	0.00053	3
9122	0.00047	0.00025	5e-05	6e-05	6e-05	-1e-05	0.0002	0.00053	3
9123	0.00024	0.00019	9e-05	0.00018	0.00027	0.0002	0.00031	9e-05	3
9124	0.00024	0.00019	9e-05	0.00018	0.00027	0.0002	0.00031	9e-05	3
9125	-0.0001	-0.00016	2e-05	1e-05	6e-05	5e-05	-0.00013	-0.00019	3
9126	-0.0001	-0.00016	2e-05	1e-05	6e-05	5e-05	-0.00013	-0.00019	3
9127	-0.0001	-0.00016	2e-05	1e-05	6e-05	5e-05	-0.00013	-0.00019	3
9128	-0.0001	-0.00016	2e-05	1e-05	6e-05	5e-05	-0.00013	-0.00019	3
9129	-0.0001	-0.00016	2e-05	1e-05	6e-05	5e-05	-0.00013	-0.00019	3
9130	-0.0001	-0.00016	2e-05	1e-05	6e-05	5e-05	-0.00013	-0.00019	3
9131	-0.0001	-0.00016	2e-05	1e-05	6e-05	5e-05	-0.00013	-0.00019	3
9132	-0.0001	-0.00016	2e-05	1e-05	6e-05	5e-05	-0.00013	-0.00019	3
9133	-0.0001	-0.00016	2e-05	1e-05	6e-05	5e-05	-0.00013	-0.00019	3
9134	-0.0001	-0.00016	2e-05	1e-05	6e-05	5e-05	-0.00013	-0.00019	3
9135	-0.0001	-0.00016	2e-05	1e-05	6e-05	5e-05	-0.00013	-0.00019	3
9136	-0.0001	-0.00016	2e-05	1e-05	6e-05	5e-05	-0.00013	-0.00019	3
9138	-0.0001	-0.00016	2e-05	1e-05	6e-05	5e-05	-0.00013	-0.00019	3
9139	-0.0001	-0.00016	2e-05	1e-05	6e-05	5e-05	-0.00013	-0.00019	3
9140	-0.0001	-0.00016	2e-05	1e-05	6e-05	5e-05	-0.00013	-0.00019	3
9141	-0.0001	-0.00016	2e-05	1e-05	6e-05	5e-05	-0.00013	-0.00019	3
9142	-0.0001	-0.00016	2e-05	1e-05	6e-05	5e-05	-0.00013	-0.00019	3
9143	-0.0001	-0.00016	2e-05	1e-05	6e-05	5e-05	-0.00013	-0.00019	3
9144	-0.0001	-0.00016	2e-05	1e-05	6e-05	5e-05	-0.00013	-0.00019	3
9145	-0.0001	-0.00016	2e-05	1e-05	6e-05	5e-05	-0.00013	-0.00019	3
9146	-4e-05	-9e-05	-0.00011	-0.00021	-0.00048	-0.00025	-0.00017	0.00014	3
9147	-9e-05	0.00014	7e-05	0.00012	0.00028	0.00017	0.00042	-0.00012	3
9148	-9e-05	0.00014	7e-05	0.00012	0.00028	0.00017	0.00042	-0.00012	3
9149	-9e-05	0.00014	7e-05	0.00012	0.00028	0.00017	0.00042	-0.00012	3
9150	-9e-05	0.00014	7e-05	0.00012	0.00028	0.00017	0.00042	-0.00012	3
9151	-9e-05	0.00014	7e-05	0.00012	0.00028	0.00017	0.00042	-0.00012	3
9152	-9e-05	0.00014	7e-05	0.00012	0.00028	0.00017	0.00042	-0.00012	3
9153	-9e-05	0.00014	7e-05	0.00012	0.00028	0.00017	0.00042	-0.00012	3
9154	-9e-05	0.00014	7e-05	0.00012	0.00028	0.00017	0.00042	-0.00012	3
9155	-9e-05	0.00014	7e-05	0.00012	0.00028	0.00017	0.00042	-0.00012	3
9156	-9e-05	0.00014	7e-05	0.00012	0.00028	0.00017	0.00042	-0.00012	3
9157	-9e-05	0.00014	7e-05	0.00012	0.00028	0.00017	0.00042	-0.00012	3
9158	-9e-05	0.00014	7e-05	0.00012	0.00028	0.00017	0.00042	-0.00012	3
9159	-9e-05	0.00014	7e-05	0.00012	0.00028	0.00017	0.00042	-0.00012	3
9160	9e-05	-3e-05	-0.00011	-0.00015	-0.00025	-7e-05	-1e-05	0.0002	3
9161	9e-05	-3e-05	-0.00011	-0.00015	-0.00025	-7e-05	-1e-05	0.0002	3
9162	9e-05	-3e-05	-0.00011	-0.00015	-0.00025	-7e-05	-1e-05	0.0002	3
9163	9e-05	-3e-05	-0.00011	-0.00015	-0.00025	-7e-05	-1e-05	0.0002	3
9164	9e-05	-3e-05	-0.00011	-0.00015	-0.00025	-7e-05	-1e-05	0.0002	3
9165	9e-05	-3e-05	-0.00011	-0.00015	-0.00025	-7e-05	-1e-05	0.0002	3
9166	9e-05	-3e-05	-0.00011	-0.00015	-0.00025	-7e-05	-1e-05	0.0002	3
9167	9e-05	-3e-05	-0.00011	-0.00015	-0.00025	-7e-05	-1e-05	0.0002	3
9168	9e-05	-3e-05	-0.00011	-0.00015	-0.00025	-7e-05	-1e-05	0.0002	3
9169	0.00037	4e-05	-5e-05	4e-05	0.00012	-0.00019	1e-05	0.00023	3
9170	0.00037	4e-05	-5e-05	4e-05	0.00012	-0.00019	1e-05	0.00023	3
9171	0.00037	4e-05	-5e-05	4e-05	0.00012	-0.00019	1e-05	0.00023	3
9172	0.00037	4e-05	-5e-05	4e-05	0.00012	-0.00019	1e-05	0.00023	3
9173	0.00037	4e-05	-5e-05	4e-05	0.00012	-0.00019	1e-05	0.00023	3
9174	0.00037	4e-05	-5e-05	4e-05	0.00012	-0.00019	1e-05	0.00023	3
9175	0.00037	4e-05	-5e-05	4e-05	0.00012	-0.00019	1e-05	0.00023	3
9176	0.00037	4e-05	-5e-05	4e-05	0.00012	-0.00019	1e-05	0.00023	3
9177	0.00037	4e-05	-5e-05	4e-05	0.00012	-0.00019	1e-05	0.00023	3
9178	0.00037	4e-05	-5e-05	4e-05	0.00012	-0.00019	1e-05	0.00023	3
9179	0.00037	4e-05	-5e-05	4e-05	0.00012	-0.00019	1e-05	0.00023	3
9180	0.00037	4e-05	-5e-05	4e-05	0.00012	-0.00019	1e-05	0.00023	3
9181	0.00037	4e-05	-5e-05	4e-05	0.00012	-0.00019	1e-05	0.00023	3
9182	0.00037	4e-05	-5e-05	4e-05	0.00012	-0.00019	1e-05	0.00023	3
9183	-0.00014	-0.00016	-0.00011	0	0	-7e-05	8e-05	-4e-05	3
9184	-0.00014	-0.00016	-0.00011	0	0	-7e-05	8e-05	-4e-05	3
9185	-0.00013	-6e-05	-4e-05	-0.00018	-0.00021	-0.00012	-7e-05	-0.00026	3
9186	-0.00013	-6e-05	-4e-05	-0.00018	-0.00021	-0.00012	-7e-05	-0.00026	3
9188	-0.00013	-6e-05	-4e-05	-0.00018	-0.00021	-0.00012	-7e-05	-0.00026	3
9189	-0.00013	-6e-05	-4e-05	-0.00018	-0.00021	-0.00012	-7e-05	-0.00026	3
9190	-0.00013	-6e-05	-4e-05	-0.00018	-0.00021	-0.00012	-7e-05	-0.00026	3
9191	-0.00013	-6e-05	-4e-05	-0.00018	-0.00021	-0.00012	-7e-05	-0.00026	3
9192	-0.00013	-6e-05	-4e-05	-0.00018	-0.00021	-0.00012	-7e-05	-0.00026	3
9193	-0.00013	-6e-05	-4e-05	-0.00018	-0.00021	-0.00012	-7e-05	-0.00026	3
9194	-0.00013	-6e-05	-4e-05	-0.00018	-0.00021	-0.00012	-7e-05	-0.00026	3
9195	-0.00013	-6e-05	-4e-05	-0.00018	-0.00021	-0.00012	-7e-05	-0.00026	3
9196	-0.00013	-6e-05	-4e-05	-0.00018	-0.00021	-0.00012	-7e-05	-0.00026	3
9197	-0.00013	-6e-05	-4e-05	-0.00018	-0.00021	-0.00012	-7e-05	-0.00026	3
9198	-0.00013	-6e-05	-4e-05	-0.00018	-0.00021	-0.00012	-7e-05	-0.00026	3
9199	-0.00013	-6e-05	-4e-05	-0.00018	-0.00021	-0.00012	-7e-05	-0.00026	3
9200	-0.00013	-6e-05	-4e-05	-0.00018	-0.00021	-0.00012	-7e-05	-0.00026	3
9201	-0.00013	-6e-05	-4e-05	-0.00018	-0.00021	-0.00012	-7e-05	-0.00026	3
9202	-0.00013	-6e-05	-4e-05	-0.00018	-0.00021	-0.00012	-7e-05	-0.00026	3
9203	-0.00013	-6e-05	-4e-05	-0.00018	-0.00021	-0.00012	-7e-05	-0.00026	3
9204	-0.00013	-6e-05	-4e-05	-0.00018	-0.00021	-0.00012	-7e-05	-0.00026	3
9205	-0.00013	-6e-05	-4e-05	-0.00018	-0.00021	-0.00012	-7e-05	-0.00026	3
9206	4e-05	6e-05	-5e-05	-0.0001	-0.00023	-0.00013	0.00041	-0.00018	3
9207	4e-05	6e-05	-5e-05	-0.0001	-0.00023	-0.00013	0.00041	-0.00018	3
9208	-0.00022	-0.00013	-2e-05	0.00011	0.00043	0.00043	-0.00014	-0.00027	3
9209	-0.00022	-0.00013	-2e-05	0.00011	0.00043	0.00043	-0.00014	-0.00027	3
9210	-0.00022	-0.00013	-2e-05	0.00011	0.00043	0.00043	-0.00014	-0.00027	3
9211	-0.00022	-0.00013	-2e-05	0.00011	0.00043	0.00043	-0.00014	-0.00027	3
9212	-0.00022	-0.00013	-2e-05	0.00011	0.00043	0.00043	-0.00014	-0.00027	3
9213	-0.00022	-0.00013	-2e-05	0.00011	0.00043	0.00043	-0.00014	-0.00027	3
9214	-0.00022	-0.00013	-2e-05	0.00011	0.00043	0.00043	-0.00014	-0.00027	3
9215	-0.00022	-0.00013	-2e-05	0.00011	0.00043	0.00043	-0.00014	-0.00027	3
9216	-0.00022	-0.00013	-2e-05	0.00011	0.00043	0.00043	-0.00014	-0.00027	3
9217	-0.00022	-0.00013	-2e-05	0.00011	0.00043	0.00043	-0.00014	-0.00027	3
9218	-0.00022	-0.00013	-2e-05	0.00011	0.00043	0.00043	-0.00014	-0.00027	3
9219	1e-05	0.00015	5e-05	3e-05	-0.00029	-0.00016	-0.00017	-0.00018	3
9220	9e-05	5e-05	2e-05	-9e-05	-0.00012	-1e-05	-1e-05	-0.00013	3
9221	9e-05	5e-05	2e-05	-9e-05	-0.00012	-1e-05	-1e-05	-0.00013	3
9222	9e-05	5e-05	2e-05	-9e-05	-0.00012	-1e-05	-1e-05	-0.00013	3
9223	9e-05	5e-05	2e-05	-9e-05	-0.00012	-1e-05	-1e-05	-0.00013	3
9224	9e-05	5e-05	2e-05	-9e-05	-0.00012	-1e-05	-1e-05	-0.00013	3
9225	9e-05	5e-05	2e-05	-9e-05	-0.00012	-1e-05	-1e-05	-0.00013	3
9226	9e-05	5e-05	2e-05	-9e-05	-0.00012	-1e-05	-1e-05	-0.00013	3
9227	9e-05	5e-05	2e-05	-9e-05	-0.00012	-1e-05	-1e-05	-0.00013	3
9228	0.00012	0.00015	6e-05	3e-05	-8e-05	0.00011	0.00013	3e-05	3
9229	0.00012	0.00015	6e-05	3e-05	-8e-05	0.00011	0.00013	3e-05	3
9230	0.00012	0.00015	6e-05	3e-05	-8e-05	0.00011	0.00013	3e-05	3
9231	0.00012	0.00015	6e-05	3e-05	-8e-05	0.00011	0.00013	3e-05	3
9232	0.00012	0.00015	6e-05	3e-05	-8e-05	0.00011	0.00013	3e-05	3
9233	0.00012	0.00015	6e-05	3e-05	-8e-05	0.00011	0.00013	3e-05	3
9234	0.00012	0.00015	6e-05	3e-05	-8e-05	0.00011	0.00013	3e-05	3
9235	0.00012	0.00015	6e-05	3e-05	-8e-05	0.00011	0.00013	3e-05	3
9236	0.00012	0.00015	6e-05	3e-05	-8e-05	0.00011	0.00013	3e-05	3
9238	0.00012	0.00015	6e-05	3e-05	-8e-05	0.00011	0.00013	3e-05	3
9239	0.00012	0.00015	6e-05	3e-05	-8e-05	0.00011	0.00013	3e-05	3
9240	0.00012	0.00015	6e-05	3e-05	-8e-05	0.00011	0.00013	3e-05	3
9241	0.00012	0.00015	6e-05	3e-05	-8e-05	0.00011	0.00013	3e-05	3
9242	0.00012	0.00015	6e-05	3e-05	-8e-05	0.00011	0.00013	3e-05	3
9243	-0.00023	-9e-05	6e-05	4e-05	0.0001	7e-05	1e-05	-0.00014	3
9244	-0.00023	-9e-05	6e-05	4e-05	0.0001	7e-05	1e-05	-0.00014	3
9245	6e-05	-0.0001	-5e-05	-0.00015	-0.00014	-8e-05	-8e-05	9e-05	3
9246	6e-05	-0.0001	-5e-05	-0.00015	-0.00014	-8e-05	-8e-05	9e-05	3
9247	6e-05	-0.0001	-5e-05	-0.00015	-0.00014	-8e-05	-8e-05	9e-05	3
9248	6e-05	-0.0001	-5e-05	-0.00015	-0.00014	-8e-05	-8e-05	9e-05	3
9249	6e-05	-0.0001	-5e-05	-0.00015	-0.00014	-8e-05	-8e-05	9e-05	3
9250	6e-05	-0.0001	-5e-05	-0.00015	-0.00014	-8e-05	-8e-05	9e-05	3
9251	6e-05	-0.0001	-5e-05	-0.00015	-0.00014	-8e-05	-8e-05	9e-05	3
9252	6e-05	-0.0001	-5e-05	-0.00015	-0.00014	-8e-05	-8e-05	9e-05	3
9253	6e-05	-0.0001	-5e-05	-0.00015	-0.00014	-8e-05	-8e-05	9e-05	3
9254	6e-05	-0.0001	-5e-05	-0.00015	-0.00014	-8e-05	-8e-05	9e-05	3
9255	6e-05	-0.0001	-5e-05	-0.00015	-0.00014	-8e-05	-8e-05	9e-05	3
9256	6e-05	-0.0001	-5e-05	-0.00015	-0.00014	-8e-05	-8e-05	9e-05	3
9257	6e-05	-0.0001	-5e-05	-0.00015	-0.00014	-8e-05	-8e-05	9e-05	3
9258	6e-05	-0.0001	-5e-05	-0.00015	-0.00014	-8e-05	-8e-05	9e-05	3
9259	6e-05	-0.0001	-5e-05	-0.00015	-0.00014	-8e-05	-8e-05	9e-05	3
9260	6e-05	-0.0001	-5e-05	-0.00015	-0.00014	-8e-05	-8e-05	9e-05	3
9261	6e-05	-0.0001	-5e-05	-0.00015	-0.00014	-8e-05	-8e-05	9e-05	3
9262	6e-05	-0.0001	-5e-05	-0.00015	-0.00014	-8e-05	-8e-05	9e-05	3
9263	6e-05	-0.0001	-5e-05	-0.00015	-0.00014	-8e-05	-8e-05	9e-05	3
9264	6e-05	-0.0001	-5e-05	-0.00015	-0.00014	-8e-05	-8e-05	9e-05	3
9265	6e-05	-0.0001	-5e-05	-0.00015	-0.00014	-8e-05	-8e-05	9e-05	3
9266	-0.00022	2e-05	-5e-05	-8e-05	-4e-05	2e-05	8e-05	-6e-05	3
9267	6e-05	6e-05	-6e-05	-2e-05	-0.00015	-8e-05	-0.00011	-0.0002	3
9268	6e-05	6e-05	-6e-05	-2e-05	-0.00015	-8e-05	-0.00011	-0.0002	3
9269	6e-05	6e-05	-6e-05	-2e-05	-0.00015	-8e-05	-0.00011	-0.0002	3
9270	6e-05	6e-05	-6e-05	-2e-05	-0.00015	-8e-05	-0.00011	-0.0002	3
9271	6e-05	6e-05	-6e-05	-2e-05	-0.00015	-8e-05	-0.00011	-0.0002	3
9272	6e-05	6e-05	-6e-05	-2e-05	-0.00015	-8e-05	-0.00011	-0.0002	3
9273	6e-05	6e-05	-6e-05	-2e-05	-0.00015	-8e-05	-0.00011	-0.0002	3
9274	6e-05	6e-05	-6e-05	-2e-05	-0.00015	-8e-05	-0.00011	-0.0002	3
9275	6e-05	6e-05	-6e-05	-2e-05	-0.00015	-8e-05	-0.00011	-0.0002	3
9276	6e-05	6e-05	-6e-05	-2e-05	-0.00015	-8e-05	-0.00011	-0.0002	3
9277	6e-05	6e-05	-6e-05	-2e-05	-0.00015	-8e-05	-0.00011	-0.0002	3
9278	6e-05	6e-05	-6e-05	-2e-05	-0.00015	-8e-05	-0.00011	-0.0002	3
9279	-0.0002	-0.00021	-0.0001	-6e-05	-3e-05	-0.00017	-0.00016	0.00021	3
9280	-0.0002	-0.00021	-0.0001	-6e-05	-3e-05	-0.00017	-0.00016	0.00021	3
9281	-0.0002	-0.00021	-0.0001	-6e-05	-3e-05	-0.00017	-0.00016	0.00021	3
9282	-0.0002	-0.00021	-0.0001	-6e-05	-3e-05	-0.00017	-0.00016	0.00021	3
9283	-0.0002	-0.00021	-0.0001	-6e-05	-3e-05	-0.00017	-0.00016	0.00021	3
9284	-0.0002	-0.00021	-0.0001	-6e-05	-3e-05	-0.00017	-0.00016	0.00021	3
9285	-0.0002	-0.00021	-0.0001	-6e-05	-3e-05	-0.00017	-0.00016	0.00021	3
9286	-0.0002	-0.00021	-0.0001	-6e-05	-3e-05	-0.00017	-0.00016	0.00021	3
9288	-0.0002	-0.00021	-0.0001	-6e-05	-3e-05	-0.00017	-0.00016	0.00021	3
9289	-0.00034	6e-05	8e-05	0.00015	4e-05	0.00015	-0.00011	-2e-05	3
9290	-0.00034	6e-05	8e-05	0.00015	4e-05	0.00015	-0.00011	-2e-05	3
9291	-0.00034	6e-05	8e-05	0.00015	4e-05	0.00015	-0.00011	-2e-05	3
9292	-0.00034	6e-05	8e-05	0.00015	4e-05	0.00015	-0.00011	-2e-05	3
9293	-0.00034	6e-05	8e-05	0.00015	4e-05	0.00015	-0.00011	-2e-05	3
9294	-0.00034	6e-05	8e-05	0.00015	4e-05	0.00015	-0.00011	-2e-05	3
9295	-0.00034	6e-05	8e-05	0.00015	4e-05	0.00015	-0.00011	-2e-05	3
9296	-0.00034	6e-05	8e-05	0.00015	4e-05	0.00015	-0.00011	-2e-05	3
9297	-0.00034	6e-05	8e-05	0.00015	4e-05	0.00015	-0.00011	-2e-05	3
9298	-0.00034	6e-05	8e-05	0.00015	4e-05	0.00015	-0.00011	-2e-05	3
9299	-0.00034	6e-05	8e-05	0.00015	4e-05	0.00015	-0.00011	-2e-05	3
9300	-0.00034	6e-05	8e-05	0.00015	4e-05	0.00015	-0.00011	-2e-05	3
9301	-0.00034	6e-05	8e-05	0.00015	4e-05	0.00015	-0.00011	-2e-05	3
9302	-0.00034	6e-05	8e-05	0.00015	4e-05	0.00015	-0.00011	-2e-05	3
9303	-0.00034	6e-05	8e-05	0.00015	4e-05	0.00015	-0.00011	-2e-05	3
9304	0.0002	7e-05	0.0001	0.00021	0.00014	0	-0.0003	0	3
9305	-0.00014	-0.00015	-6e-05	4e-05	0.00019	-0.0002	-0.00031	-9e-05	3
9306	-0.00014	-0.00015	-6e-05	4e-05	0.00019	-0.0002	-0.00031	-9e-05	3
9307	-0.00014	-0.00015	-6e-05	4e-05	0.00019	-0.0002	-0.00031	-9e-05	3
9308	-0.00014	-0.00015	-6e-05	4e-05	0.00019	-0.0002	-0.00031	-9e-05	3
9309	-0.00014	-0.00015	-6e-05	4e-05	0.00019	-0.0002	-0.00031	-9e-05	3
9310	-0.00014	-0.00015	-6e-05	4e-05	0.00019	-0.0002	-0.00031	-9e-05	3
9311	-0.00014	-0.00015	-6e-05	4e-05	0.00019	-0.0002	-0.00031	-9e-05	3
9312	-0.00014	-0.00015	-6e-05	4e-05	0.00019	-0.0002	-0.00031	-9e-05	3
9313	-0.00014	-0.00015	-6e-05	4e-05	0.00019	-0.0002	-0.00031	-9e-05	3
9314	-0.00014	-0.00015	-6e-05	4e-05	0.00019	-0.0002	-0.00031	-9e-05	3
9315	-0.00014	-0.00015	-6e-05	4e-05	0.00019	-0.0002	-0.00031	-9e-05	3
9316	-0.00014	-0.00015	-6e-05	4e-05	0.00019	-0.0002	-0.00031	-9e-05	3
9317	-0.00014	-0.00015	-6e-05	4e-05	0.00019	-0.0002	-0.00031	-9e-05	3
9318	-0.00014	-0.00015	-6e-05	4e-05	0.00019	-0.0002	-0.00031	-9e-05	3
9319	-0.00014	-0.00015	-6e-05	4e-05	0.00019	-0.0002	-0.00031	-9e-05	3
9320	-0.00014	-0.00015	-6e-05	4e-05	0.00019	-0.0002	-0.00031	-9e-05	3
9321	-0.00014	-0.00015	-6e-05	4e-05	0.00019	-0.0002	-0.00031	-9e-05	3
9322	-0.00014	-0.00015	-6e-05	4e-05	0.00019	-0.0002	-0.00031	-9e-05	3
9323	-0.00014	-0.00015	-6e-05	4e-05	0.00019	-0.0002	-0.00031	-9e-05	3
9324	-0.00014	-0.00015	-6e-05	4e-05	0.00019	-0.0002	-0.00031	-9e-05	3
9325	0.0001	0.00016	3e-05	-5e-05	-0.00012	-0.00012	-0.00011	-1e-05	3
9326	6e-05	1e-05	4e-05	3e-05	-3e-05	0.0002	-6e-05	-0.00018	3
9327	0.00021	-3e-05	-3e-05	5e-05	-0.00021	-0.00025	-0.0001	0	3
9328	0.00021	-3e-05	-3e-05	5e-05	-0.00021	-0.00025	-0.0001	0	3
9329	0.00021	-3e-05	-3e-05	5e-05	-0.00021	-0.00025	-0.0001	0	3
9330	0.00021	-3e-05	-3e-05	5e-05	-0.00021	-0.00025	-0.0001	0	3
9331	0.00021	-3e-05	-3e-05	5e-05	-0.00021	-0.00025	-0.0001	0	3
9332	0.00021	-3e-05	-3e-05	5e-05	-0.00021	-0.00025	-0.0001	0	3
9333	0.00021	-3e-05	-3e-05	5e-05	-0.00021	-0.00025	-0.0001	0	3
9334	0.00021	-3e-05	-3e-05	5e-05	-0.00021	-0.00025	-0.0001	0	3
9335	0.00021	-3e-05	-3e-05	5e-05	-0.00021	-0.00025	-0.0001	0	3
9336	0.00021	-3e-05	-3e-05	5e-05	-0.00021	-0.00025	-0.0001	0	3
9338	0.00021	-3e-05	-3e-05	5e-05	-0.00021	-0.00025	-0.0001	0	3
9339	0.00021	-3e-05	-3e-05	5e-05	-0.00021	-0.00025	-0.0001	0	3
9340	0.00021	-3e-05	-3e-05	5e-05	-0.00021	-0.00025	-0.0001	0	3
9341	0.00021	-3e-05	-3e-05	5e-05	-0.00021	-0.00025	-0.0001	0	3
9342	0.00021	-3e-05	-3e-05	5e-05	-0.00021	-0.00025	-0.0001	0	3
9343	0.00021	-3e-05	-3e-05	5e-05	-0.00021	-0.00025	-0.0001	0	3
9344	0.00021	-3e-05	-3e-05	5e-05	-0.00021	-0.00025	-0.0001	0	3
9345	0.00021	-3e-05	-3e-05	5e-05	-0.00021	-0.00025	-0.0001	0	3
9346	0.00021	-3e-05	-3e-05	5e-05	-0.00021	-0.00025	-0.0001	0	3
9347	0.00021	-3e-05	-3e-05	5e-05	-0.00021	-0.00025	-0.0001	0	3
9348	0.00022	4e-05	-6e-05	-0.0001	5e-05	-2e-05	-0.0001	-0.00017	3
9349	0.00022	4e-05	-6e-05	-0.0001	5e-05	-2e-05	-0.0001	-0.00017	3
9350	8e-05	0.00025	6e-05	-8e-05	-0.00012	9e-05	0.00019	0.0001	3
9351	8e-05	0.00025	6e-05	-8e-05	-0.00012	9e-05	0.00019	0.0001	3
9352	8e-05	0.00025	6e-05	-8e-05	-0.00012	9e-05	0.00019	0.0001	3
9353	8e-05	0.00025	6e-05	-8e-05	-0.00012	9e-05	0.00019	0.0001	3
9354	8e-05	0.00025	6e-05	-8e-05	-0.00012	9e-05	0.00019	0.0001	3
9355	8e-05	0.00025	6e-05	-8e-05	-0.00012	9e-05	0.00019	0.0001	3
9356	8e-05	0.00025	6e-05	-8e-05	-0.00012	9e-05	0.00019	0.0001	3
9357	8e-05	0.00025	6e-05	-8e-05	-0.00012	9e-05	0.00019	0.0001	3
9358	8e-05	0.00025	6e-05	-8e-05	-0.00012	9e-05	0.00019	0.0001	3
9359	8e-05	0.00025	6e-05	-8e-05	-0.00012	9e-05	0.00019	0.0001	3
9360	8e-05	0.00025	6e-05	-8e-05	-0.00012	9e-05	0.00019	0.0001	3
9361	8e-05	0.00025	6e-05	-8e-05	-0.00012	9e-05	0.00019	0.0001	3
9362	8e-05	0.00025	6e-05	-8e-05	-0.00012	9e-05	0.00019	0.0001	3
9363	-3e-05	-8e-05	-1e-05	-0.00013	-0.00014	9e-05	-0.0001	-6e-05	3
9364	-3e-05	-8e-05	-1e-05	-0.00013	-0.00014	9e-05	-0.0001	-6e-05	3
9365	-0.00022	-7e-05	0	0.00014	0.00024	-4e-05	-0.00033	-0.00029	3
9366	-0.00022	-7e-05	0	0.00014	0.00024	-4e-05	-0.00033	-0.00029	3
9367	-0.00022	-7e-05	0	0.00014	0.00024	-4e-05	-0.00033	-0.00029	3
9368	-0.00022	-7e-05	0	0.00014	0.00024	-4e-05	-0.00033	-0.00029	3
9369	-0.00022	-7e-05	0	0.00014	0.00024	-4e-05	-0.00033	-0.00029	3
9370	-0.00022	-7e-05	0	0.00014	0.00024	-4e-05	-0.00033	-0.00029	3
9371	-0.00022	-7e-05	0	0.00014	0.00024	-4e-05	-0.00033	-0.00029	3
9372	-0.00022	-7e-05	0	0.00014	0.00024	-4e-05	-0.00033	-0.00029	3
9373	-0.00022	-7e-05	0	0.00014	0.00024	-4e-05	-0.00033	-0.00029	3
9374	-0.00022	-7e-05	0	0.00014	0.00024	-4e-05	-0.00033	-0.00029	3
9375	-0.00022	-7e-05	0	0.00014	0.00024	-4e-05	-0.00033	-0.00029	3
9376	-0.00022	-7e-05	0	0.00014	0.00024	-4e-05	-0.00033	-0.00029	3
9377	-0.00022	-7e-05	0	0.00014	0.00024	-4e-05	-0.00033	-0.00029	3
9379	-0.00022	-7e-05	0	0.00014	0.00024	-4e-05	-0.00033	-0.00029	3
9380	-0.00022	-7e-05	0	0.00014	0.00024	-4e-05	-0.00033	-0.00029	3
9381	-0.00022	-7e-05	0	0.00014	0.00024	-4e-05	-0.00033	-0.00029	3
9382	-0.00022	-7e-05	0	0.00014	0.00024	-4e-05	-0.00033	-0.00029	3
9383	-0.00022	-7e-05	0	0.00014	0.00024	-4e-05	-0.00033	-0.00029	3
9384	-0.00022	-7e-05	0	0.00014	0.00024	-4e-05	-0.00033	-0.00029	3
9385	-0.00022	-7e-05	0	0.00014	0.00024	-4e-05	-0.00033	-0.00029	3
9386	-0.00022	-7e-05	0	0.00014	0.00024	-4e-05	-0.00033	-0.00029	3
9388	-0.00022	-7e-05	0	0.00014	0.00024	-4e-05	-0.00033	-0.00029	3
9389	-0.00022	-7e-05	0	0.00014	0.00024	-4e-05	-0.00033	-0.00029	3
9390	-0.00022	-7e-05	0	0.00014	0.00024	-4e-05	-0.00033	-0.00029	3
9391	-0.00022	-7e-05	0	0.00014	0.00024	-4e-05	-0.00033	-0.00029	3
9392	-0.00022	-7e-05	0	0.00014	0.00024	-4e-05	-0.00033	-0.00029	3
9393	0.00021	0.00011	0	-2e-05	9e-05	6e-05	-5e-05	0	3
9394	-0.00029	-4e-05	1e-05	0	7e-05	5e-05	-0.00016	-0.00018	3
9395	-0.00029	-4e-05	1e-05	0	7e-05	5e-05	-0.00016	-0.00018	3
9396	-0.00029	-4e-05	1e-05	0	7e-05	5e-05	-0.00016	-0.00018	3
9397	-0.00029	-4e-05	1e-05	0	7e-05	5e-05	-0.00016	-0.00018	3
9398	-0.00029	-4e-05	1e-05	0	7e-05	5e-05	-0.00016	-0.00018	3
9399	-0.00029	-4e-05	1e-05	0	7e-05	5e-05	-0.00016	-0.00018	3
9400	-0.00011	-0.00019	-2e-05	5e-05	1e-05	-7e-05	5e-05	0.00017	3
9401	-6e-05	-7e-05	-1e-05	-3e-05	-3e-05	-0.00012	-1e-05	-0.00016	3
9402	-6e-05	-7e-05	-1e-05	-3e-05	-3e-05	-0.00012	-1e-05	-0.00016	3
9403	-6e-05	-7e-05	-1e-05	-3e-05	-3e-05	-0.00012	-1e-05	-0.00016	3
9404	-6e-05	-7e-05	-1e-05	-3e-05	-3e-05	-0.00012	-1e-05	-0.00016	3
9405	-6e-05	-7e-05	-1e-05	-3e-05	-3e-05	-0.00012	-1e-05	-0.00016	3
9406	-6e-05	-7e-05	-1e-05	-3e-05	-3e-05	-0.00012	-1e-05	-0.00016	3
9407	-6e-05	-7e-05	-1e-05	-3e-05	-3e-05	-0.00012	-1e-05	-0.00016	3
9408	0.00028	8e-05	-1e-05	0.00011	0.00057	7e-05	0.00042	4e-05	3
9409	0.00028	8e-05	-1e-05	0.00011	0.00057	7e-05	0.00042	4e-05	3
9410	0.00028	8e-05	-1e-05	0.00011	0.00057	7e-05	0.00042	4e-05	3
9411	0.00028	8e-05	-1e-05	0.00011	0.00057	7e-05	0.00042	4e-05	3
9412	0.00028	8e-05	-1e-05	0.00011	0.00057	7e-05	0.00042	4e-05	3
9413	0.00028	8e-05	-1e-05	0.00011	0.00057	7e-05	0.00042	4e-05	3
9414	0.00028	8e-05	-1e-05	0.00011	0.00057	7e-05	0.00042	4e-05	3
9415	0.00028	8e-05	-1e-05	0.00011	0.00057	7e-05	0.00042	4e-05	3
9416	0.00028	8e-05	-1e-05	0.00011	0.00057	7e-05	0.00042	4e-05	3
9417	0.00028	8e-05	-1e-05	0.00011	0.00057	7e-05	0.00042	4e-05	3
9418	0.00028	8e-05	-1e-05	0.00011	0.00057	7e-05	0.00042	4e-05	3
9419	0.00028	8e-05	-1e-05	0.00011	0.00057	7e-05	0.00042	4e-05	3
9420	0.00028	8e-05	-1e-05	0.00011	0.00057	7e-05	0.00042	4e-05	3
9421	0.00028	8e-05	-1e-05	0.00011	0.00057	7e-05	0.00042	4e-05	3
9422	0.00028	8e-05	-1e-05	0.00011	0.00057	7e-05	0.00042	4e-05	3
9423	-6e-05	-7e-05	-8e-05	0.00012	0.00016	-2e-05	0.0001	-8e-05	3
9424	3e-05	-2e-05	5e-05	8e-05	3e-05	-1e-05	0.00016	0.00021	3
9425	3e-05	-2e-05	5e-05	8e-05	3e-05	-1e-05	0.00016	0.00021	3
9426	3e-05	-2e-05	5e-05	8e-05	3e-05	-1e-05	0.00016	0.00021	3
9427	3e-05	-2e-05	5e-05	8e-05	3e-05	-1e-05	0.00016	0.00021	3
9428	3e-05	-2e-05	5e-05	8e-05	3e-05	-1e-05	0.00016	0.00021	3
9429	3e-05	-2e-05	5e-05	8e-05	3e-05	-1e-05	0.00016	0.00021	3
9430	3e-05	-2e-05	5e-05	8e-05	3e-05	-1e-05	0.00016	0.00021	3
9431	3e-05	-2e-05	5e-05	8e-05	3e-05	-1e-05	0.00016	0.00021	3
9432	3e-05	-2e-05	5e-05	8e-05	3e-05	-1e-05	0.00016	0.00021	3
9433	3e-05	-2e-05	5e-05	8e-05	3e-05	-1e-05	0.00016	0.00021	3
9434	3e-05	-2e-05	5e-05	8e-05	3e-05	-1e-05	0.00016	0.00021	3
9435	3e-05	-2e-05	5e-05	8e-05	3e-05	-1e-05	0.00016	0.00021	3
9437	-9e-05	-3e-05	0	-8e-05	-0.00018	0.00011	0.00014	0.0001	3
9439	-9e-05	-3e-05	0	-8e-05	-0.00018	0.00011	0.00014	0.0001	3
9440	-9e-05	-3e-05	0	-8e-05	-0.00018	0.00011	0.00014	0.0001	3
9441	-9e-05	-3e-05	0	-8e-05	-0.00018	0.00011	0.00014	0.0001	3
9442	-9e-05	-3e-05	0	-8e-05	-0.00018	0.00011	0.00014	0.0001	3
9443	-9e-05	-3e-05	0	-8e-05	-0.00018	0.00011	0.00014	0.0001	3
9444	-9e-05	-3e-05	0	-8e-05	-0.00018	0.00011	0.00014	0.0001	3
9445	0.00058	7e-05	-0.00014	-0.00015	-0.00021	-0.0001	-0.00017	0.00032	3
9446	-0.00025	-0.00011	4e-05	8e-05	0.00013	9e-05	0.00027	0.00016	3
9447	-7e-05	5e-05	7e-05	5e-05	-1e-05	0.00019	0.00038	5e-05	3
9448	-7e-05	5e-05	7e-05	5e-05	-1e-05	0.00019	0.00038	5e-05	3
9449	-7e-05	5e-05	7e-05	5e-05	-1e-05	0.00019	0.00038	5e-05	3
9450	-7e-05	5e-05	7e-05	5e-05	-1e-05	0.00019	0.00038	5e-05	3
9451	-7e-05	5e-05	7e-05	5e-05	-1e-05	0.00019	0.00038	5e-05	3
9452	-7e-05	5e-05	7e-05	5e-05	-1e-05	0.00019	0.00038	5e-05	3
9453	-7e-05	5e-05	7e-05	5e-05	-1e-05	0.00019	0.00038	5e-05	3
9454	-7e-05	5e-05	7e-05	5e-05	-1e-05	0.00019	0.00038	5e-05	3
9455	-7e-05	5e-05	7e-05	5e-05	-1e-05	0.00019	0.00038	5e-05	3
9456	-7e-05	5e-05	7e-05	5e-05	-1e-05	0.00019	0.00038	5e-05	3
9457	-7e-05	5e-05	7e-05	5e-05	-1e-05	0.00019	0.00038	5e-05	3
9458	-7e-05	5e-05	7e-05	5e-05	-1e-05	0.00019	0.00038	5e-05	3
9459	-5e-05	5e-05	-5e-05	-5e-05	-0.00023	0.00018	0.00011	0.00012	3
9460	-5e-05	5e-05	-5e-05	-5e-05	-0.00023	0.00018	0.00011	0.00012	3
9461	-5e-05	5e-05	-5e-05	-5e-05	-0.00023	0.00018	0.00011	0.00012	3
9462	-5e-05	5e-05	-5e-05	-5e-05	-0.00023	0.00018	0.00011	0.00012	3
9463	-5e-05	5e-05	-5e-05	-5e-05	-0.00023	0.00018	0.00011	0.00012	3
9464	-5e-05	5e-05	-5e-05	-5e-05	-0.00023	0.00018	0.00011	0.00012	3
9465	-5e-05	5e-05	-5e-05	-5e-05	-0.00023	0.00018	0.00011	0.00012	3
9466	-5e-05	5e-05	-5e-05	-5e-05	-0.00023	0.00018	0.00011	0.00012	3
9467	-5e-05	5e-05	-5e-05	-5e-05	-0.00023	0.00018	0.00011	0.00012	3
9468	-5e-05	5e-05	-5e-05	-5e-05	-0.00023	0.00018	0.00011	0.00012	3
9469	-5e-05	5e-05	-5e-05	-5e-05	-0.00023	0.00018	0.00011	0.00012	3
9470	-5e-05	5e-05	-5e-05	-5e-05	-0.00023	0.00018	0.00011	0.00012	3
9471	-5e-05	5e-05	-5e-05	-5e-05	-0.00023	0.00018	0.00011	0.00012	3
9472	-5e-05	5e-05	-5e-05	-5e-05	-0.00023	0.00018	0.00011	0.00012	3
9473	-5e-05	5e-05	-5e-05	-5e-05	-0.00023	0.00018	0.00011	0.00012	3
9474	-5e-05	5e-05	-5e-05	-5e-05	-0.00023	0.00018	0.00011	0.00012	3
9475	0.00011	0.00013	0.00013	0.00033	0.00049	0.00014	0.00029	0.00012	3
9476	-0.00012	-0.00017	-9e-05	-4e-05	7e-05	0.00015	-0.00021	-2e-05	3
9477	-0.00012	-0.00017	-9e-05	-4e-05	7e-05	0.00015	-0.00021	-2e-05	3
9478	-0.00012	-0.00017	-9e-05	-4e-05	7e-05	0.00015	-0.00021	-2e-05	3
9479	-0.00012	-0.00017	-9e-05	-4e-05	7e-05	0.00015	-0.00021	-2e-05	3
9480	-0.00012	-0.00017	-9e-05	-4e-05	7e-05	0.00015	-0.00021	-2e-05	3
9481	-0.00012	-0.00017	-9e-05	-4e-05	7e-05	0.00015	-0.00021	-2e-05	3
9482	0.00028	0.0001	-4e-05	-9e-05	-0.00012	-0.00012	-5e-05	-0.0001	3
9483	0.00028	0.0001	-4e-05	-9e-05	-0.00012	-0.00012	-5e-05	-0.0001	3
9484	0.00028	0.0001	-4e-05	-9e-05	-0.00012	-0.00012	-5e-05	-0.0001	3
9485	0.00028	0.0001	-4e-05	-9e-05	-0.00012	-0.00012	-5e-05	-0.0001	3
9487	0.00028	0.0001	-4e-05	-9e-05	-0.00012	-0.00012	-5e-05	-0.0001	3
9489	0.0002	6e-05	0.00014	0.00034	0.00055	0.0003	-7e-05	9e-05	3
9490	-3e-05	-0.00012	-2e-05	-7e-05	-0.00011	-8e-05	-0.00021	-6e-05	3
9491	-3e-05	-0.00012	-2e-05	-7e-05	-0.00011	-8e-05	-0.00021	-6e-05	3
9492	-3e-05	-0.00012	-2e-05	-7e-05	-0.00011	-8e-05	-0.00021	-6e-05	3
9493	-3e-05	-0.00012	-2e-05	-7e-05	-0.00011	-8e-05	-0.00021	-6e-05	3
9494	-3e-05	-0.00012	-2e-05	-7e-05	-0.00011	-8e-05	-0.00021	-6e-05	3
9495	-3e-05	-0.00012	-2e-05	-7e-05	-0.00011	-8e-05	-0.00021	-6e-05	3
9496	-3e-05	-0.00012	-2e-05	-7e-05	-0.00011	-8e-05	-0.00021	-6e-05	3
9497	-3e-05	-0.00012	-2e-05	-7e-05	-0.00011	-8e-05	-0.00021	-6e-05	3
9498	-3e-05	-0.00012	-2e-05	-7e-05	-0.00011	-8e-05	-0.00021	-6e-05	3
9499	-3e-05	-0.00012	-2e-05	-7e-05	-0.00011	-8e-05	-0.00021	-6e-05	3
9500	-3e-05	-0.00012	-2e-05	-7e-05	-0.00011	-8e-05	-0.00021	-6e-05	3
9501	-3e-05	-0.00012	-2e-05	-7e-05	-0.00011	-8e-05	-0.00021	-6e-05	3
9502	-3e-05	-0.00012	-2e-05	-7e-05	-0.00011	-8e-05	-0.00021	-6e-05	3
9503	-3e-05	-0.00012	-2e-05	-7e-05	-0.00011	-8e-05	-0.00021	-6e-05	3
9504	-3e-05	-0.00012	-2e-05	-7e-05	-0.00011	-8e-05	-0.00021	-6e-05	3
9505	-0.00027	0	-1e-05	-0.00014	-0.00016	-5e-05	5e-05	-0.00032	3
9506	6e-05	4e-05	-3e-05	0.0001	0.00022	-0.00012	-1e-05	-0.00016	3
9507	-0.00036	2e-05	7e-05	9e-05	0.00012	0.00013	0.00013	-0.00025	3
9508	-0.00036	2e-05	7e-05	9e-05	0.00012	0.00013	0.00013	-0.00025	3
9509	-0.00036	2e-05	7e-05	9e-05	0.00012	0.00013	0.00013	-0.00025	3
9510	-0.00036	2e-05	7e-05	9e-05	0.00012	0.00013	0.00013	-0.00025	3
9511	-0.00036	2e-05	7e-05	9e-05	0.00012	0.00013	0.00013	-0.00025	3
9512	-0.00036	2e-05	7e-05	9e-05	0.00012	0.00013	0.00013	-0.00025	3
9513	-0.00036	2e-05	7e-05	9e-05	0.00012	0.00013	0.00013	-0.00025	3
9514	-0.00036	2e-05	7e-05	9e-05	0.00012	0.00013	0.00013	-0.00025	3
9515	-0.00036	2e-05	7e-05	9e-05	0.00012	0.00013	0.00013	-0.00025	3
9516	-0.00036	2e-05	7e-05	9e-05	0.00012	0.00013	0.00013	-0.00025	3
9517	-0.00036	2e-05	7e-05	9e-05	0.00012	0.00013	0.00013	-0.00025	3
9518	-0.00036	2e-05	7e-05	9e-05	0.00012	0.00013	0.00013	-0.00025	3
9519	-0.00036	2e-05	7e-05	9e-05	0.00012	0.00013	0.00013	-0.00025	3
9520	-0.00036	2e-05	7e-05	9e-05	0.00012	0.00013	0.00013	-0.00025	3
9521	-0.00036	2e-05	7e-05	9e-05	0.00012	0.00013	0.00013	-0.00025	3
9522	-0.00036	2e-05	7e-05	9e-05	0.00012	0.00013	0.00013	-0.00025	3
9523	-0.00036	2e-05	7e-05	9e-05	0.00012	0.00013	0.00013	-0.00025	3
9524	-0.00036	2e-05	7e-05	9e-05	0.00012	0.00013	0.00013	-0.00025	3
9525	-0.00036	2e-05	7e-05	9e-05	0.00012	0.00013	0.00013	-0.00025	3
9526	-0.00036	2e-05	7e-05	9e-05	0.00012	0.00013	0.00013	-0.00025	3
9527	-0.00036	2e-05	7e-05	9e-05	0.00012	0.00013	0.00013	-0.00025	3
9528	-0.00036	2e-05	7e-05	9e-05	0.00012	0.00013	0.00013	-0.00025	3
9529	-0.00036	2e-05	7e-05	9e-05	0.00012	0.00013	0.00013	-0.00025	3
9530	-0.00036	2e-05	7e-05	9e-05	0.00012	0.00013	0.00013	-0.00025	3
9531	-0.00036	2e-05	7e-05	9e-05	0.00012	0.00013	0.00013	-0.00025	3
9532	-0.00036	2e-05	7e-05	9e-05	0.00012	0.00013	0.00013	-0.00025	3
9533	-0.00036	2e-05	7e-05	9e-05	0.00012	0.00013	0.00013	-0.00025	3
9534	-0.00036	2e-05	7e-05	9e-05	0.00012	0.00013	0.00013	-0.00025	3
9535	-0.00036	2e-05	7e-05	9e-05	0.00012	0.00013	0.00013	-0.00025	3
9537	5e-05	0.0001	5e-05	0.00021	0.00029	-7e-05	-0.00063	-0.00057	3
9539	0.00019	1e-05	-2e-05	-5e-05	-4e-05	-7e-05	-0.00018	4e-05	3
9540	0.00019	1e-05	-2e-05	-5e-05	-4e-05	-7e-05	-0.00018	4e-05	3
9541	0.00019	1e-05	-2e-05	-5e-05	-4e-05	-7e-05	-0.00018	4e-05	3
9542	0.00019	1e-05	-2e-05	-5e-05	-4e-05	-7e-05	-0.00018	4e-05	3
9543	-5e-05	-6e-05	-6e-05	-8e-05	-0.00018	0	6e-05	-2e-05	3
9544	-5e-05	-6e-05	-6e-05	-8e-05	-0.00018	0	6e-05	-2e-05	3
9545	0.00032	0.0002	2e-05	-1e-05	-0.00016	-4e-05	-0.00016	0.00029	3
9546	0.00032	0.0002	2e-05	-1e-05	-0.00016	-4e-05	-0.00016	0.00029	3
9547	0.00032	0.0002	2e-05	-1e-05	-0.00016	-4e-05	-0.00016	0.00029	3
9548	0.00032	0.0002	2e-05	-1e-05	-0.00016	-4e-05	-0.00016	0.00029	3
9549	0.00032	0.0002	2e-05	-1e-05	-0.00016	-4e-05	-0.00016	0.00029	3
9550	0.00032	0.0002	2e-05	-1e-05	-0.00016	-4e-05	-0.00016	0.00029	3
9551	0.00032	0.0002	2e-05	-1e-05	-0.00016	-4e-05	-0.00016	0.00029	3
9552	0.00032	0.0002	2e-05	-1e-05	-0.00016	-4e-05	-0.00016	0.00029	3
9553	0.00032	0.0002	2e-05	-1e-05	-0.00016	-4e-05	-0.00016	0.00029	3
9554	0.00032	0.0002	2e-05	-1e-05	-0.00016	-4e-05	-0.00016	0.00029	3
9555	0.00032	0.0002	2e-05	-1e-05	-0.00016	-4e-05	-0.00016	0.00029	3
9556	0.00032	0.0002	2e-05	-1e-05	-0.00016	-4e-05	-0.00016	0.00029	3
9557	0.00032	0.0002	2e-05	-1e-05	-0.00016	-4e-05	-0.00016	0.00029	3
9558	0.00032	0.0002	2e-05	-1e-05	-0.00016	-4e-05	-0.00016	0.00029	3
9559	0.00032	0.0002	2e-05	-1e-05	-0.00016	-4e-05	-0.00016	0.00029	3
9560	0.00032	0.0002	2e-05	-1e-05	-0.00016	-4e-05	-0.00016	0.00029	3
9561	0.00032	0.0002	2e-05	-1e-05	-0.00016	-4e-05	-0.00016	0.00029	3
9562	0.00032	0.0002	2e-05	-1e-05	-0.00016	-4e-05	-0.00016	0.00029	3
9563	0.00032	0.0002	2e-05	-1e-05	-0.00016	-4e-05	-0.00016	0.00029	3
9564	0.00032	0.0002	2e-05	-1e-05	-0.00016	-4e-05	-0.00016	0.00029	3
9565	-3e-05	2e-05	1e-05	-0.0001	-0.00017	-0.00015	-1e-05	-0.00021	3
9566	-5e-05	-6e-05	-3e-05	4e-05	0.0001	6e-05	0.00013	0.00026	3
9567	-9e-05	-0.00018	-6e-05	0	0.00012	-9e-05	-5e-05	-0.00012	3
9568	-9e-05	-0.00018	-6e-05	0	0.00012	-9e-05	-5e-05	-0.00012	3
9569	-9e-05	-0.00018	-6e-05	0	0.00012	-9e-05	-5e-05	-0.00012	3
9570	-9e-05	-0.00018	-6e-05	0	0.00012	-9e-05	-5e-05	-0.00012	3
9571	-9e-05	-0.00018	-6e-05	0	0.00012	-9e-05	-5e-05	-0.00012	3
9572	-9e-05	-0.00018	-6e-05	0	0.00012	-9e-05	-5e-05	-0.00012	3
9573	-9e-05	-0.00018	-6e-05	0	0.00012	-9e-05	-5e-05	-0.00012	3
9574	-9e-05	-0.00018	-6e-05	0	0.00012	-9e-05	-5e-05	-0.00012	3
9575	-9e-05	-0.00018	-6e-05	0	0.00012	-9e-05	-5e-05	-0.00012	3
9576	-9e-05	-0.00018	-6e-05	0	0.00012	-9e-05	-5e-05	-0.00012	3
9577	-9e-05	-0.00018	-6e-05	0	0.00012	-9e-05	-5e-05	-0.00012	3
9578	-9e-05	-0.00018	-6e-05	0	0.00012	-9e-05	-5e-05	-0.00012	3
9579	-9e-05	-0.00018	-6e-05	0	0.00012	-9e-05	-5e-05	-0.00012	3
9580	-9e-05	-0.00018	-6e-05	0	0.00012	-9e-05	-5e-05	-0.00012	3
9581	-9e-05	-0.00018	-6e-05	0	0.00012	-9e-05	-5e-05	-0.00012	3
9582	-9e-05	-0.00018	-6e-05	0	0.00012	-9e-05	-5e-05	-0.00012	3
9583	-9e-05	-0.00018	-6e-05	0	0.00012	-9e-05	-5e-05	-0.00012	3
9584	-9e-05	-0.00018	-6e-05	0	0.00012	-9e-05	-5e-05	-0.00012	3
9585	-9e-05	-0.00018	-6e-05	0	0.00012	-9e-05	-5e-05	-0.00012	3
9587	-9e-05	-0.00018	-6e-05	0	0.00012	-9e-05	-5e-05	-0.00012	3
9589	0	9e-05	2e-05	-5e-05	6e-05	7e-05	0.00022	-2e-05	3
9590	-0.00015	-5e-05	7e-05	7e-05	0.00027	0.00012	0.00072	0.00036	3
9591	-0.00015	-5e-05	7e-05	7e-05	0.00027	0.00012	0.00072	0.00036	3
9592	-0.00015	-5e-05	7e-05	7e-05	0.00027	0.00012	0.00072	0.00036	3
9593	-0.00015	-5e-05	7e-05	7e-05	0.00027	0.00012	0.00072	0.00036	3
9594	-0.00015	-5e-05	7e-05	7e-05	0.00027	0.00012	0.00072	0.00036	3
9595	-0.00015	-5e-05	7e-05	7e-05	0.00027	0.00012	0.00072	0.00036	3
9596	-0.00015	-5e-05	7e-05	7e-05	0.00027	0.00012	0.00072	0.00036	3
9597	-0.00015	-5e-05	7e-05	7e-05	0.00027	0.00012	0.00072	0.00036	3
9598	-0.00015	-5e-05	7e-05	7e-05	0.00027	0.00012	0.00072	0.00036	3
9599	-0.00015	-5e-05	7e-05	7e-05	0.00027	0.00012	0.00072	0.00036	3
9600	-0.00015	-5e-05	7e-05	7e-05	0.00027	0.00012	0.00072	0.00036	3
9601	-0.00015	-5e-05	7e-05	7e-05	0.00027	0.00012	0.00072	0.00036	3
9602	-0.00015	-5e-05	7e-05	7e-05	0.00027	0.00012	0.00072	0.00036	3
9603	0.00016	-0.00012	-0.00016	-0.00026	-0.00041	-0.00016	-9e-05	-3e-05	3
9604	0.00016	-0.00012	-0.00016	-0.00026	-0.00041	-0.00016	-9e-05	-3e-05	3
9605	0.00012	6e-05	4e-05	0.00014	0.0004	-3e-05	0.0001	9e-05	3
9606	0.00012	6e-05	4e-05	0.00014	0.0004	-3e-05	0.0001	9e-05	3
9607	0.00012	6e-05	4e-05	0.00014	0.0004	-3e-05	0.0001	9e-05	3
9608	0.00012	6e-05	4e-05	0.00014	0.0004	-3e-05	0.0001	9e-05	3
9609	0.00012	6e-05	4e-05	0.00014	0.0004	-3e-05	0.0001	9e-05	3
9610	0.00012	6e-05	4e-05	0.00014	0.0004	-3e-05	0.0001	9e-05	3
9611	0.00012	6e-05	4e-05	0.00014	0.0004	-3e-05	0.0001	9e-05	3
9612	0.00012	6e-05	4e-05	0.00014	0.0004	-3e-05	0.0001	9e-05	3
9613	0.00012	6e-05	4e-05	0.00014	0.0004	-3e-05	0.0001	9e-05	3
9614	0.00012	6e-05	4e-05	0.00014	0.0004	-3e-05	0.0001	9e-05	3
9615	0.00012	6e-05	4e-05	0.00014	0.0004	-3e-05	0.0001	9e-05	3
9616	0.00012	6e-05	4e-05	0.00014	0.0004	-3e-05	0.0001	9e-05	3
9617	0.00012	6e-05	4e-05	0.00014	0.0004	-3e-05	0.0001	9e-05	3
9618	0.00012	6e-05	4e-05	0.00014	0.0004	-3e-05	0.0001	9e-05	3
9619	0.00012	6e-05	4e-05	0.00014	0.0004	-3e-05	0.0001	9e-05	3
9620	0.00012	6e-05	4e-05	0.00014	0.0004	-3e-05	0.0001	9e-05	3
9621	0.00012	6e-05	4e-05	0.00014	0.0004	-3e-05	0.0001	9e-05	3
9622	0.00012	6e-05	4e-05	0.00014	0.0004	-3e-05	0.0001	9e-05	3
9623	0.00012	6e-05	4e-05	0.00014	0.0004	-3e-05	0.0001	9e-05	3
9624	0.00012	6e-05	4e-05	0.00014	0.0004	-3e-05	0.0001	9e-05	3
9625	0.0001	3e-05	3e-05	-5e-05	-0.0001	0.0001	-9e-05	0.00016	3
9626	-0.00021	-2e-05	3e-05	0.00017	0.00046	1e-05	0.00016	-5e-05	3
9627	6e-05	7e-05	-5e-05	-6e-05	-0.00021	1e-05	-0.00031	-7e-05	3
9628	6e-05	7e-05	-5e-05	-6e-05	-0.00021	1e-05	-0.00031	-7e-05	3
9629	6e-05	7e-05	-5e-05	-6e-05	-0.00021	1e-05	-0.00031	-7e-05	3
9630	6e-05	7e-05	-5e-05	-6e-05	-0.00021	1e-05	-0.00031	-7e-05	3
9631	6e-05	7e-05	-5e-05	-6e-05	-0.00021	1e-05	-0.00031	-7e-05	3
9632	6e-05	7e-05	-5e-05	-6e-05	-0.00021	1e-05	-0.00031	-7e-05	3
9633	6e-05	7e-05	-5e-05	-6e-05	-0.00021	1e-05	-0.00031	-7e-05	3
9634	6e-05	7e-05	-5e-05	-6e-05	-0.00021	1e-05	-0.00031	-7e-05	3
9635	6e-05	7e-05	-5e-05	-6e-05	-0.00021	1e-05	-0.00031	-7e-05	3
9637	6e-05	7e-05	-5e-05	-6e-05	-0.00021	1e-05	-0.00031	-7e-05	3
9639	6e-05	7e-05	-5e-05	-6e-05	-0.00021	1e-05	-0.00031	-7e-05	3
9640	6e-05	7e-05	-5e-05	-6e-05	-0.00021	1e-05	-0.00031	-7e-05	3
9641	6e-05	7e-05	-5e-05	-6e-05	-0.00021	1e-05	-0.00031	-7e-05	3
9642	6e-05	7e-05	-5e-05	-6e-05	-0.00021	1e-05	-0.00031	-7e-05	3
9643	6e-05	7e-05	-5e-05	-6e-05	-0.00021	1e-05	-0.00031	-7e-05	3
9644	6e-05	7e-05	-5e-05	-6e-05	-0.00021	1e-05	-0.00031	-7e-05	3
9645	6e-05	7e-05	-5e-05	-6e-05	-0.00021	1e-05	-0.00031	-7e-05	3
9646	6e-05	7e-05	-5e-05	-6e-05	-0.00021	1e-05	-0.00031	-7e-05	3
9647	6e-05	7e-05	-5e-05	-6e-05	-0.00021	1e-05	-0.00031	-7e-05	3
9648	0.00016	6e-05	-8e-05	-0.0001	-0.00025	-4e-05	0	-1e-05	3
9649	0.00016	6e-05	-8e-05	-0.0001	-0.00025	-4e-05	0	-1e-05	3
9650	0.00013	-6e-05	-6e-05	-0.00011	-0.00019	-0.00013	-6e-05	0	3
9651	0.00013	-6e-05	-6e-05	-0.00011	-0.00019	-0.00013	-6e-05	0	3
9652	0.00013	-6e-05	-6e-05	-0.00011	-0.00019	-0.00013	-6e-05	0	3
9653	0.00013	-6e-05	-6e-05	-0.00011	-0.00019	-0.00013	-6e-05	0	3
9654	0.00013	-6e-05	-6e-05	-0.00011	-0.00019	-0.00013	-6e-05	0	3
9655	0.00013	-6e-05	-6e-05	-0.00011	-0.00019	-0.00013	-6e-05	0	3
9656	0.00013	-6e-05	-6e-05	-0.00011	-0.00019	-0.00013	-6e-05	0	3
9657	0.00013	-6e-05	-6e-05	-0.00011	-0.00019	-0.00013	-6e-05	0	3
9658	0.00013	-6e-05	-6e-05	-0.00011	-0.00019	-0.00013	-6e-05	0	3
9659	0.00013	-6e-05	-6e-05	-0.00011	-0.00019	-0.00013	-6e-05	0	3
9660	0.00013	-6e-05	-6e-05	-0.00011	-0.00019	-0.00013	-6e-05	0	3
9661	0.00013	-6e-05	-6e-05	-0.00011	-0.00019	-0.00013	-6e-05	0	3
9662	-0.00036	-7e-05	7e-05	-0.00013	-0.00033	2e-05	0.00019	-8e-05	3
9663	-0.00036	-7e-05	7e-05	-0.00013	-0.00033	2e-05	0.00019	-8e-05	3
9664	-0.00036	-7e-05	7e-05	-0.00013	-0.00033	2e-05	0.00019	-8e-05	3
9665	-0.00036	-7e-05	7e-05	-0.00013	-0.00033	2e-05	0.00019	-8e-05	3
9666	-0.00036	-7e-05	7e-05	-0.00013	-0.00033	2e-05	0.00019	-8e-05	3
9667	-0.00036	-7e-05	7e-05	-0.00013	-0.00033	2e-05	0.00019	-8e-05	3
9668	-0.00036	-7e-05	7e-05	-0.00013	-0.00033	2e-05	0.00019	-8e-05	3
9669	-0.00036	-7e-05	7e-05	-0.00013	-0.00033	2e-05	0.00019	-8e-05	3
9670	-0.00036	-7e-05	7e-05	-0.00013	-0.00033	2e-05	0.00019	-8e-05	3
9671	-8e-05	-1e-05	-1e-05	-0.00011	-0.00023	1e-05	-0.00011	-0.00027	3
9673	-8e-05	-1e-05	-1e-05	-0.00011	-0.00023	1e-05	-0.00011	-0.00027	3
9674	-8e-05	-1e-05	-1e-05	-0.00011	-0.00023	1e-05	-0.00011	-0.00027	3
9675	-8e-05	-1e-05	-1e-05	-0.00011	-0.00023	1e-05	-0.00011	-0.00027	3
9676	-8e-05	-1e-05	-1e-05	-0.00011	-0.00023	1e-05	-0.00011	-0.00027	3
9677	-8e-05	-1e-05	-1e-05	-0.00011	-0.00023	1e-05	-0.00011	-0.00027	3
9678	-8e-05	-1e-05	-1e-05	-0.00011	-0.00023	1e-05	-0.00011	-0.00027	3
9679	-8e-05	-1e-05	-1e-05	-0.00011	-0.00023	1e-05	-0.00011	-0.00027	3
9680	-8e-05	-1e-05	-1e-05	-0.00011	-0.00023	1e-05	-0.00011	-0.00027	3
9681	-8e-05	-1e-05	-1e-05	-0.00011	-0.00023	1e-05	-0.00011	-0.00027	3
9682	-8e-05	-1e-05	-1e-05	-0.00011	-0.00023	1e-05	-0.00011	-0.00027	3
9683	-8e-05	-1e-05	-1e-05	-0.00011	-0.00023	1e-05	-0.00011	-0.00027	3
9684	-8e-05	-1e-05	-1e-05	-0.00011	-0.00023	1e-05	-0.00011	-0.00027	3
9685	-0.0002	-8e-05	-5e-05	-5e-05	-8e-05	2e-05	0.00023	-0.00022	3
9687	-6e-05	2e-05	1e-05	0	6e-05	3e-05	-0.0003	0.00015	3
9689	7e-05	3e-05	-6e-05	-0.0002	-0.00024	-0.00014	-0.0002	-7e-05	3
9690	7e-05	3e-05	-6e-05	-0.0002	-0.00024	-0.00014	-0.0002	-7e-05	3
9691	7e-05	3e-05	-6e-05	-0.0002	-0.00024	-0.00014	-0.0002	-7e-05	3
9692	7e-05	3e-05	-6e-05	-0.0002	-0.00024	-0.00014	-0.0002	-7e-05	3
9693	7e-05	3e-05	-6e-05	-0.0002	-0.00024	-0.00014	-0.0002	-7e-05	3
9694	7e-05	3e-05	-6e-05	-0.0002	-0.00024	-0.00014	-0.0002	-7e-05	3
9695	7e-05	3e-05	-6e-05	-0.0002	-0.00024	-0.00014	-0.0002	-7e-05	3
9696	7e-05	3e-05	-6e-05	-0.0002	-0.00024	-0.00014	-0.0002	-7e-05	3
9697	7e-05	3e-05	-6e-05	-0.0002	-0.00024	-0.00014	-0.0002	-7e-05	3
9698	7e-05	3e-05	-6e-05	-0.0002	-0.00024	-0.00014	-0.0002	-7e-05	3
9699	7e-05	3e-05	-6e-05	-0.0002	-0.00024	-0.00014	-0.0002	-7e-05	3
9700	7e-05	3e-05	-6e-05	-0.0002	-0.00024	-0.00014	-0.0002	-7e-05	3
9701	7e-05	3e-05	-6e-05	-0.0002	-0.00024	-0.00014	-0.0002	-7e-05	3
9702	7e-05	3e-05	-6e-05	-0.0002	-0.00024	-0.00014	-0.0002	-7e-05	3
9703	7e-05	3e-05	-6e-05	-0.0002	-0.00024	-0.00014	-0.0002	-7e-05	3
9704	7e-05	3e-05	-6e-05	-0.0002	-0.00024	-0.00014	-0.0002	-7e-05	3
9705	7e-05	3e-05	-6e-05	-0.0002	-0.00024	-0.00014	-0.0002	-7e-05	3
9706	7e-05	3e-05	-6e-05	-0.0002	-0.00024	-0.00014	-0.0002	-7e-05	3
9707	7e-05	3e-05	-6e-05	-0.0002	-0.00024	-0.00014	-0.0002	-7e-05	3
9708	-0.00017	8e-05	4e-05	0.00017	0.0003	5e-05	0.00043	0.00018	3
9709	-0.00017	8e-05	4e-05	0.00017	0.0003	5e-05	0.00043	0.00018	3
9710	-5e-05	-3e-05	3e-05	8e-05	0.0003	-4e-05	-0.00013	-1e-05	3
9711	-5e-05	-3e-05	3e-05	8e-05	0.0003	-4e-05	-0.00013	-1e-05	3
9712	-5e-05	-3e-05	3e-05	8e-05	0.0003	-4e-05	-0.00013	-1e-05	3
9713	-5e-05	-3e-05	3e-05	8e-05	0.0003	-4e-05	-0.00013	-1e-05	3
9714	-5e-05	-3e-05	3e-05	8e-05	0.0003	-4e-05	-0.00013	-1e-05	3
9715	-5e-05	-3e-05	3e-05	8e-05	0.0003	-4e-05	-0.00013	-1e-05	3
9716	-5e-05	-3e-05	3e-05	8e-05	0.0003	-4e-05	-0.00013	-1e-05	3
9717	-5e-05	-3e-05	3e-05	8e-05	0.0003	-4e-05	-0.00013	-1e-05	3
9718	-5e-05	-3e-05	3e-05	8e-05	0.0003	-4e-05	-0.00013	-1e-05	3
9719	-5e-05	-3e-05	3e-05	8e-05	0.0003	-4e-05	-0.00013	-1e-05	3
9720	-5e-05	-3e-05	3e-05	8e-05	0.0003	-4e-05	-0.00013	-1e-05	3
9721	-5e-05	-3e-05	3e-05	8e-05	0.0003	-4e-05	-0.00013	-1e-05	3
9722	-5e-05	-3e-05	3e-05	8e-05	0.0003	-4e-05	-0.00013	-1e-05	3
9723	0.00014	2e-05	-5e-05	-9e-05	-0.00018	-0.00012	-4e-05	-2e-05	3
9724	0.00014	2e-05	-5e-05	-9e-05	-0.00018	-0.00012	-4e-05	-2e-05	3
9725	0.00014	2e-05	-5e-05	-9e-05	-0.00018	-0.00012	-4e-05	-2e-05	3
9726	0.00014	2e-05	-5e-05	-9e-05	-0.00018	-0.00012	-4e-05	-2e-05	3
9727	0.00014	2e-05	-5e-05	-9e-05	-0.00018	-0.00012	-4e-05	-2e-05	3
9728	0.00014	2e-05	-5e-05	-9e-05	-0.00018	-0.00012	-4e-05	-2e-05	3
9729	6e-05	-3e-05	-2e-05	0.00014	0.00034	0.00019	0.00028	0.00012	3
9730	6e-05	-3e-05	-2e-05	0.00014	0.00034	0.00019	0.00028	0.00012	3
9731	6e-05	-3e-05	-2e-05	0.00014	0.00034	0.00019	0.00028	0.00012	3
9732	6e-05	-3e-05	-2e-05	0.00014	0.00034	0.00019	0.00028	0.00012	3
9733	6e-05	-3e-05	-2e-05	0.00014	0.00034	0.00019	0.00028	0.00012	3
9734	6e-05	-3e-05	-2e-05	0.00014	0.00034	0.00019	0.00028	0.00012	3
9735	6e-05	-3e-05	-2e-05	0.00014	0.00034	0.00019	0.00028	0.00012	3
9736	6e-05	-3e-05	-2e-05	0.00014	0.00034	0.00019	0.00028	0.00012	3
9738	6e-05	-3e-05	-2e-05	0.00014	0.00034	0.00019	0.00028	0.00012	3
9740	6e-05	-3e-05	-2e-05	0.00014	0.00034	0.00019	0.00028	0.00012	3
9741	6e-05	-3e-05	-2e-05	0.00014	0.00034	0.00019	0.00028	0.00012	3
9742	6e-05	-3e-05	-2e-05	0.00014	0.00034	0.00019	0.00028	0.00012	3
9743	6e-05	-3e-05	-2e-05	0.00014	0.00034	0.00019	0.00028	0.00012	3
9744	6e-05	-3e-05	-2e-05	0.00014	0.00034	0.00019	0.00028	0.00012	3
9745	6e-05	-3e-05	-2e-05	0.00014	0.00034	0.00019	0.00028	0.00012	3
9746	6e-05	-3e-05	-2e-05	0.00014	0.00034	0.00019	0.00028	0.00012	3
9747	6e-05	-3e-05	-2e-05	0.00014	0.00034	0.00019	0.00028	0.00012	3
9748	6e-05	-3e-05	-2e-05	0.00014	0.00034	0.00019	0.00028	0.00012	3
9749	6e-05	-3e-05	-2e-05	0.00014	0.00034	0.00019	0.00028	0.00012	3
9750	6e-05	-3e-05	-2e-05	0.00014	0.00034	0.00019	0.00028	0.00012	3
9751	6e-05	-3e-05	-2e-05	0.00014	0.00034	0.00019	0.00028	0.00012	3
9752	6e-05	-3e-05	-2e-05	0.00014	0.00034	0.00019	0.00028	0.00012	3
9753	6e-05	-3e-05	-2e-05	0.00014	0.00034	0.00019	0.00028	0.00012	3
9754	0.00022	-0.00017	1e-05	-2e-05	-3e-05	-0.00011	-0.00022	-8e-05	3
9755	-0.00021	-0.00022	-0.00013	-0.00018	-0.00034	-0.00016	-0.00026	-7e-05	3
9756	-0.00021	-0.00022	-0.00013	-0.00018	-0.00034	-0.00016	-0.00026	-7e-05	3
9757	-0.00021	-0.00022	-0.00013	-0.00018	-0.00034	-0.00016	-0.00026	-7e-05	3
9758	-0.00021	-0.00022	-0.00013	-0.00018	-0.00034	-0.00016	-0.00026	-7e-05	3
9759	-0.00021	-0.00022	-0.00013	-0.00018	-0.00034	-0.00016	-0.00026	-7e-05	3
9760	-0.00021	-0.00022	-0.00013	-0.00018	-0.00034	-0.00016	-0.00026	-7e-05	3
9761	-0.00021	-0.00022	-0.00013	-0.00018	-0.00034	-0.00016	-0.00026	-7e-05	3
9762	-0.00021	-0.00022	-0.00013	-0.00018	-0.00034	-0.00016	-0.00026	-7e-05	3
9763	-0.00021	-0.00022	-0.00013	-0.00018	-0.00034	-0.00016	-0.00026	-7e-05	3
9764	-0.00021	-0.00022	-0.00013	-0.00018	-0.00034	-0.00016	-0.00026	-7e-05	3
9765	-0.00021	-0.00022	-0.00013	-0.00018	-0.00034	-0.00016	-0.00026	-7e-05	3
9766	-0.00021	-0.00022	-0.00013	-0.00018	-0.00034	-0.00016	-0.00026	-7e-05	3
9767	-0.00021	-0.00022	-0.00013	-0.00018	-0.00034	-0.00016	-0.00026	-7e-05	3
9768	-0.00025	0.00019	-3e-05	-6e-05	-0.00011	2e-05	-0.00022	-0.00027	3
9769	-0.00025	0.00019	-3e-05	-6e-05	-0.00011	2e-05	-0.00022	-0.00027	3
9770	0.00015	0.00012	6e-05	6e-05	0.00016	2e-05	0.00016	0.00027	3
9771	0.00015	0.00012	6e-05	6e-05	0.00016	2e-05	0.00016	0.00027	3
9772	0.00015	0.00012	6e-05	6e-05	0.00016	2e-05	0.00016	0.00027	3
9773	0.00015	0.00012	6e-05	6e-05	0.00016	2e-05	0.00016	0.00027	3
9774	0.00015	0.00012	6e-05	6e-05	0.00016	2e-05	0.00016	0.00027	3
9775	0.00015	0.00012	6e-05	6e-05	0.00016	2e-05	0.00016	0.00027	3
9776	0.00015	0.00012	6e-05	6e-05	0.00016	2e-05	0.00016	0.00027	3
9777	0.00015	0.00012	6e-05	6e-05	0.00016	2e-05	0.00016	0.00027	3
9778	0.00015	0.00012	6e-05	6e-05	0.00016	2e-05	0.00016	0.00027	3
9779	0.00015	0.00012	6e-05	6e-05	0.00016	2e-05	0.00016	0.00027	3
9780	0.00015	0.00012	6e-05	6e-05	0.00016	2e-05	0.00016	0.00027	3
9781	0.00015	0.00012	6e-05	6e-05	0.00016	2e-05	0.00016	0.00027	3
9782	0.00022	8e-05	3e-05	8e-05	0.00012	0.00013	-4e-05	-2e-05	3
9783	0.00022	8e-05	3e-05	8e-05	0.00012	0.00013	-4e-05	-2e-05	3
9784	0.00022	8e-05	3e-05	8e-05	0.00012	0.00013	-4e-05	-2e-05	3
9785	0.00022	8e-05	3e-05	8e-05	0.00012	0.00013	-4e-05	-2e-05	3
9786	0.00022	8e-05	3e-05	8e-05	0.00012	0.00013	-4e-05	-2e-05	3
9789	0.00022	8e-05	3e-05	8e-05	0.00012	0.00013	-4e-05	-2e-05	3
9790	0.00022	8e-05	3e-05	8e-05	0.00012	0.00013	-4e-05	-2e-05	3
9791	0.00022	8e-05	3e-05	8e-05	0.00012	0.00013	-4e-05	-2e-05	3
9792	0.00022	8e-05	3e-05	8e-05	0.00012	0.00013	-4e-05	-2e-05	3
9793	0.00022	8e-05	3e-05	8e-05	0.00012	0.00013	-4e-05	-2e-05	3
9794	0.00022	8e-05	3e-05	8e-05	0.00012	0.00013	-4e-05	-2e-05	3
9795	0.00022	8e-05	3e-05	8e-05	0.00012	0.00013	-4e-05	-2e-05	3
9796	0.00022	8e-05	3e-05	8e-05	0.00012	0.00013	-4e-05	-2e-05	3
9797	-5e-05	-5e-05	-6e-05	-0.00012	-0.00018	-0.0001	-0.00016	-0.00028	3
9798	-5e-05	-5e-05	-6e-05	-0.00012	-0.00018	-0.0001	-0.00016	-0.00028	3
9799	-5e-05	-5e-05	-6e-05	-0.00012	-0.00018	-0.0001	-0.00016	-0.00028	3
9800	-5e-05	-5e-05	-6e-05	-0.00012	-0.00018	-0.0001	-0.00016	-0.00028	3
9801	-5e-05	-5e-05	-6e-05	-0.00012	-0.00018	-0.0001	-0.00016	-0.00028	3
9802	-5e-05	-5e-05	-6e-05	-0.00012	-0.00018	-0.0001	-0.00016	-0.00028	3
9803	-5e-05	-5e-05	-6e-05	-0.00012	-0.00018	-0.0001	-0.00016	-0.00028	3
9804	-5e-05	-5e-05	-6e-05	-0.00012	-0.00018	-0.0001	-0.00016	-0.00028	3
9805	-5e-05	-5e-05	-6e-05	-0.00012	-0.00018	-0.0001	-0.00016	-0.00028	3
9806	-5e-05	-5e-05	-6e-05	-0.00012	-0.00018	-0.0001	-0.00016	-0.00028	3
9807	-5e-05	-5e-05	-6e-05	-0.00012	-0.00018	-0.0001	-0.00016	-0.00028	3
9808	-5e-05	-5e-05	-6e-05	-0.00012	-0.00018	-0.0001	-0.00016	-0.00028	3
9809	-5e-05	-5e-05	-6e-05	-0.00012	-0.00018	-0.0001	-0.00016	-0.00028	3
9810	-5e-05	-5e-05	-6e-05	-0.00012	-0.00018	-0.0001	-0.00016	-0.00028	3
9811	-5e-05	-5e-05	-6e-05	-0.00012	-0.00018	-0.0001	-0.00016	-0.00028	3
9812	-5e-05	-5e-05	-6e-05	-0.00012	-0.00018	-0.0001	-0.00016	-0.00028	3
9813	-0.00017	-7e-05	0	8e-05	0.00013	1e-05	-0.00014	-5e-05	3
9814	-0.00017	-7e-05	0	8e-05	0.00013	1e-05	-0.00014	-5e-05	3
9815	-0.00035	-8e-05	-3e-05	-6e-05	-0.00024	-0.0001	-0.00015	-0.0003	3
9816	-0.00035	-8e-05	-3e-05	-6e-05	-0.00024	-0.0001	-0.00015	-0.0003	3
9817	-0.00035	-8e-05	-3e-05	-6e-05	-0.00024	-0.0001	-0.00015	-0.0003	3
9818	-0.00035	-8e-05	-3e-05	-6e-05	-0.00024	-0.0001	-0.00015	-0.0003	3
9819	-0.00035	-8e-05	-3e-05	-6e-05	-0.00024	-0.0001	-0.00015	-0.0003	3
9820	-0.00035	-8e-05	-3e-05	-6e-05	-0.00024	-0.0001	-0.00015	-0.0003	3
9821	-0.00035	-8e-05	-3e-05	-6e-05	-0.00024	-0.0001	-0.00015	-0.0003	3
9822	-0.00035	-8e-05	-3e-05	-6e-05	-0.00024	-0.0001	-0.00015	-0.0003	3
9823	-0.00035	-8e-05	-3e-05	-6e-05	-0.00024	-0.0001	-0.00015	-0.0003	3
9824	-0.00035	-8e-05	-3e-05	-6e-05	-0.00024	-0.0001	-0.00015	-0.0003	3
9825	-0.00035	-8e-05	-3e-05	-6e-05	-0.00024	-0.0001	-0.00015	-0.0003	3
9826	-0.00035	-8e-05	-3e-05	-6e-05	-0.00024	-0.0001	-0.00015	-0.0003	3
9827	-0.00035	-8e-05	-3e-05	-6e-05	-0.00024	-0.0001	-0.00015	-0.0003	3
9828	-0.0003	-0.0002	0	2e-05	-1e-05	3e-05	1e-05	-7e-05	3
9829	-0.0003	-0.0002	0	2e-05	-1e-05	3e-05	1e-05	-7e-05	3
9830	-9e-05	-3e-05	-6e-05	0	-0.00012	-1e-05	-3e-05	-0.00022	3
9831	-9e-05	-3e-05	-6e-05	0	-0.00012	-1e-05	-3e-05	-0.00022	3
9832	-9e-05	-3e-05	-6e-05	0	-0.00012	-1e-05	-3e-05	-0.00022	3
9833	-9e-05	-3e-05	-6e-05	0	-0.00012	-1e-05	-3e-05	-0.00022	3
9834	-9e-05	-3e-05	-6e-05	0	-0.00012	-1e-05	-3e-05	-0.00022	3
9835	-9e-05	-3e-05	-6e-05	0	-0.00012	-1e-05	-3e-05	-0.00022	3
9836	-9e-05	-3e-05	-6e-05	0	-0.00012	-1e-05	-3e-05	-0.00022	3
9838	-9e-05	-3e-05	-6e-05	0	-0.00012	-1e-05	-3e-05	-0.00022	3
9839	-9e-05	-3e-05	-6e-05	0	-0.00012	-1e-05	-3e-05	-0.00022	3
9840	-9e-05	-3e-05	-6e-05	0	-0.00012	-1e-05	-3e-05	-0.00022	3
9841	-9e-05	-3e-05	-6e-05	0	-0.00012	-1e-05	-3e-05	-0.00022	3
9842	0.00015	-9e-05	3e-05	-0.0001	-0.00012	-2e-05	-8e-05	0.00013	3
9843	0.00015	-9e-05	3e-05	-0.0001	-0.00012	-2e-05	-8e-05	0.00013	3
9844	0.00015	-9e-05	3e-05	-0.0001	-0.00012	-2e-05	-8e-05	0.00013	3
9845	0.00015	-9e-05	3e-05	-0.0001	-0.00012	-2e-05	-8e-05	0.00013	3
9846	0.00015	-9e-05	3e-05	-0.0001	-0.00012	-2e-05	-8e-05	0.00013	3
9847	0.00015	-9e-05	3e-05	-0.0001	-0.00012	-2e-05	-8e-05	0.00013	3
9848	0.00015	-9e-05	3e-05	-0.0001	-0.00012	-2e-05	-8e-05	0.00013	3
9849	0.00015	-9e-05	3e-05	-0.0001	-0.00012	-2e-05	-8e-05	0.00013	3
9850	0.00015	-9e-05	3e-05	-0.0001	-0.00012	-2e-05	-8e-05	0.00013	3
9851	0.00015	-9e-05	3e-05	-0.0001	-0.00012	-2e-05	-8e-05	0.00013	3
9852	0.00015	-9e-05	3e-05	-0.0001	-0.00012	-2e-05	-8e-05	0.00013	3
9853	0.00015	-9e-05	3e-05	-0.0001	-0.00012	-2e-05	-8e-05	0.00013	3
9854	0.00015	-9e-05	3e-05	-0.0001	-0.00012	-2e-05	-8e-05	0.00013	3
9855	0.00015	-9e-05	3e-05	-0.0001	-0.00012	-2e-05	-8e-05	0.00013	3
9856	0.00015	-9e-05	3e-05	-0.0001	-0.00012	-2e-05	-8e-05	0.00013	3
9857	0.00019	1e-05	5e-05	1e-05	5e-05	0.00013	0.00011	0.00025	3
9858	0.00019	1e-05	5e-05	1e-05	5e-05	0.00013	0.00011	0.00025	3
9859	0.00019	1e-05	5e-05	1e-05	5e-05	0.00013	0.00011	0.00025	3
9860	0.00019	1e-05	5e-05	1e-05	5e-05	0.00013	0.00011	0.00025	3
9861	0.00019	1e-05	5e-05	1e-05	5e-05	0.00013	0.00011	0.00025	3
9862	0.00019	1e-05	5e-05	1e-05	5e-05	0.00013	0.00011	0.00025	3
9863	0.00019	1e-05	5e-05	1e-05	5e-05	0.00013	0.00011	0.00025	3
9864	0.00019	1e-05	5e-05	1e-05	5e-05	0.00013	0.00011	0.00025	3
9865	0.00017	6e-05	-6e-05	-8e-05	-0.00013	-3e-05	0.00013	-2e-05	3
9866	-0.00035	1e-05	-4e-05	-3e-05	1e-05	0	4e-05	-0.00015	3
9867	0.00021	-5e-05	-0.00013	-7e-05	-4e-05	-9e-05	5e-05	0.00015	3
9868	0.00021	-5e-05	-0.00013	-7e-05	-4e-05	-9e-05	5e-05	0.00015	3
9869	0.00021	-5e-05	-0.00013	-7e-05	-4e-05	-9e-05	5e-05	0.00015	3
9870	0.00021	-5e-05	-0.00013	-7e-05	-4e-05	-9e-05	5e-05	0.00015	3
9871	0.00021	-5e-05	-0.00013	-7e-05	-4e-05	-9e-05	5e-05	0.00015	3
9872	0.00021	-5e-05	-0.00013	-7e-05	-4e-05	-9e-05	5e-05	0.00015	3
9873	0.00021	-5e-05	-0.00013	-7e-05	-4e-05	-9e-05	5e-05	0.00015	3
9874	0.00021	-5e-05	-0.00013	-7e-05	-4e-05	-9e-05	5e-05	0.00015	3
9875	0.00021	-5e-05	-0.00013	-7e-05	-4e-05	-9e-05	5e-05	0.00015	3
9876	0.00021	-5e-05	-0.00013	-7e-05	-4e-05	-9e-05	5e-05	0.00015	3
9877	0.00021	-5e-05	-0.00013	-7e-05	-4e-05	-9e-05	5e-05	0.00015	3
9878	0.00021	-5e-05	-0.00013	-7e-05	-4e-05	-9e-05	5e-05	0.00015	3
9879	0.00021	-5e-05	-0.00013	-7e-05	-4e-05	-9e-05	5e-05	0.00015	3
9880	0.00021	-5e-05	-0.00013	-7e-05	-4e-05	-9e-05	5e-05	0.00015	3
9881	0.00021	-5e-05	-0.00013	-7e-05	-4e-05	-9e-05	5e-05	0.00015	3
9882	0.00021	-5e-05	-0.00013	-7e-05	-4e-05	-9e-05	5e-05	0.00015	3
9883	0.00021	-5e-05	-0.00013	-7e-05	-4e-05	-9e-05	5e-05	0.00015	3
9884	0.00021	-5e-05	-0.00013	-7e-05	-4e-05	-9e-05	5e-05	0.00015	3
9885	0.00021	-5e-05	-0.00013	-7e-05	-4e-05	-9e-05	5e-05	0.00015	3
9886	0.00021	-5e-05	-0.00013	-7e-05	-4e-05	-9e-05	5e-05	0.00015	3
9888	0.00021	-5e-05	-0.00013	-7e-05	-4e-05	-9e-05	5e-05	0.00015	3
9889	0.0002	0.00014	8e-05	1e-05	9e-05	-6e-05	0.00022	-2e-05	3
9890	-2e-05	3e-05	-2e-05	4e-05	4e-05	-7e-05	6e-05	0.00012	3
9892	-2e-05	3e-05	-2e-05	4e-05	4e-05	-7e-05	6e-05	0.00012	3
9893	-2e-05	3e-05	-2e-05	4e-05	4e-05	-7e-05	6e-05	0.00012	3
9894	-2e-05	3e-05	-2e-05	4e-05	4e-05	-7e-05	6e-05	0.00012	3
9895	-2e-05	3e-05	-2e-05	4e-05	4e-05	-7e-05	6e-05	0.00012	3
9896	-2e-05	3e-05	-2e-05	4e-05	4e-05	-7e-05	6e-05	0.00012	3
9897	-2e-05	3e-05	-2e-05	4e-05	4e-05	-7e-05	6e-05	0.00012	3
9898	-2e-05	3e-05	-2e-05	4e-05	4e-05	-7e-05	6e-05	0.00012	3
9899	-2e-05	3e-05	-2e-05	4e-05	4e-05	-7e-05	6e-05	0.00012	3
9900	-2e-05	3e-05	-2e-05	4e-05	4e-05	-7e-05	6e-05	0.00012	3
9901	-2e-05	3e-05	-2e-05	4e-05	4e-05	-7e-05	6e-05	0.00012	3
9902	-2e-05	3e-05	-2e-05	4e-05	4e-05	-7e-05	6e-05	0.00012	3
9903	0.00011	3e-05	-3e-05	-6e-05	-0.00016	-2e-05	5e-05	5e-05	3
9904	0.00011	3e-05	-3e-05	-6e-05	-0.00016	-2e-05	5e-05	5e-05	3
9905	0.00011	3e-05	-3e-05	-6e-05	-0.00016	-2e-05	5e-05	5e-05	3
9906	0.00011	3e-05	-3e-05	-6e-05	-0.00016	-2e-05	5e-05	5e-05	3
9907	0.00011	3e-05	-3e-05	-6e-05	-0.00016	-2e-05	5e-05	5e-05	3
9908	0.00011	3e-05	-3e-05	-6e-05	-0.00016	-2e-05	5e-05	5e-05	3
9909	6e-05	0.00017	7e-05	0.00015	0.00016	9e-05	3e-05	-7e-05	3
9910	6e-05	0.00017	7e-05	0.00015	0.00016	9e-05	3e-05	-7e-05	3
9911	6e-05	0.00017	7e-05	0.00015	0.00016	9e-05	3e-05	-7e-05	3
9912	6e-05	0.00017	7e-05	0.00015	0.00016	9e-05	3e-05	-7e-05	3
9913	6e-05	0.00017	7e-05	0.00015	0.00016	9e-05	3e-05	-7e-05	3
9914	6e-05	0.00017	7e-05	0.00015	0.00016	9e-05	3e-05	-7e-05	3
9915	6e-05	0.00017	7e-05	0.00015	0.00016	9e-05	3e-05	-7e-05	3
9916	6e-05	0.00017	7e-05	0.00015	0.00016	9e-05	3e-05	-7e-05	3
9917	6e-05	0.00017	7e-05	0.00015	0.00016	9e-05	3e-05	-7e-05	3
9918	6e-05	0.00017	7e-05	0.00015	0.00016	9e-05	3e-05	-7e-05	3
9919	6e-05	0.00017	7e-05	0.00015	0.00016	9e-05	3e-05	-7e-05	3
9920	6e-05	0.00017	7e-05	0.00015	0.00016	9e-05	3e-05	-7e-05	3
9921	6e-05	0.00017	7e-05	0.00015	0.00016	9e-05	3e-05	-7e-05	3
9922	6e-05	0.00017	7e-05	0.00015	0.00016	9e-05	3e-05	-7e-05	3
9923	6e-05	0.00017	7e-05	0.00015	0.00016	9e-05	3e-05	-7e-05	3
9924	6e-05	0.00017	7e-05	0.00015	0.00016	9e-05	3e-05	-7e-05	3
9925	0.00029	0	-6e-05	-0.00013	-0.0003	-0.00015	1e-05	8e-05	3
9926	-5e-05	-0.00015	-1e-05	3e-05	6e-05	0.00017	0.00029	2e-05	3
9927	-0.00043	-8e-05	0	-0.00012	-0.00039	-0.00017	-5e-05	0.00012	3
9928	-0.00043	-8e-05	0	-0.00012	-0.00039	-0.00017	-5e-05	0.00012	3
9929	-0.00043	-8e-05	0	-0.00012	-0.00039	-0.00017	-5e-05	0.00012	3
9930	-0.00043	-8e-05	0	-0.00012	-0.00039	-0.00017	-5e-05	0.00012	3
9931	-0.00043	-8e-05	0	-0.00012	-0.00039	-0.00017	-5e-05	0.00012	3
9932	-0.00043	-8e-05	0	-0.00012	-0.00039	-0.00017	-5e-05	0.00012	3
9933	-0.00043	-8e-05	0	-0.00012	-0.00039	-0.00017	-5e-05	0.00012	3
9934	-0.00043	-8e-05	0	-0.00012	-0.00039	-0.00017	-5e-05	0.00012	3
9935	-0.00043	-8e-05	0	-0.00012	-0.00039	-0.00017	-5e-05	0.00012	3
9936	-0.00043	-8e-05	0	-0.00012	-0.00039	-0.00017	-5e-05	0.00012	3
9938	-0.00043	-8e-05	0	-0.00012	-0.00039	-0.00017	-5e-05	0.00012	3
9939	-0.00043	-8e-05	0	-0.00012	-0.00039	-0.00017	-5e-05	0.00012	3
9940	-0.00043	-8e-05	0	-0.00012	-0.00039	-0.00017	-5e-05	0.00012	3
9941	-0.00043	-8e-05	0	-0.00012	-0.00039	-0.00017	-5e-05	0.00012	3
9942	-0.00043	-8e-05	0	-0.00012	-0.00039	-0.00017	-5e-05	0.00012	3
9943	-0.00043	-8e-05	0	-0.00012	-0.00039	-0.00017	-5e-05	0.00012	3
9944	-0.00043	-8e-05	0	-0.00012	-0.00039	-0.00017	-5e-05	0.00012	3
9945	-0.00043	-8e-05	0	-0.00012	-0.00039	-0.00017	-5e-05	0.00012	3
9946	-0.00043	-8e-05	0	-0.00012	-0.00039	-0.00017	-5e-05	0.00012	3
9947	-0.00043	-8e-05	0	-0.00012	-0.00039	-0.00017	-5e-05	0.00012	3
9948	3e-05	-1e-05	-4e-05	7e-05	0.0002	4e-05	-0.0001	-0.00014	3
9949	0.00014	6e-05	2e-05	8e-05	0.00011	3e-05	2e-05	-4e-05	3
9950	-0.00031	-0.00012	3e-05	-0.00012	-0.00022	-8e-05	-0.00016	-0.00017	3
9951	-0.00031	-0.00012	3e-05	-0.00012	-0.00022	-8e-05	-0.00016	-0.00017	3
9952	-0.00031	-0.00012	3e-05	-0.00012	-0.00022	-8e-05	-0.00016	-0.00017	3
9953	-0.00031	-0.00012	3e-05	-0.00012	-0.00022	-8e-05	-0.00016	-0.00017	3
9954	-0.00031	-0.00012	3e-05	-0.00012	-0.00022	-8e-05	-0.00016	-0.00017	3
9955	-0.00031	-0.00012	3e-05	-0.00012	-0.00022	-8e-05	-0.00016	-0.00017	3
9956	-0.00031	-0.00012	3e-05	-0.00012	-0.00022	-8e-05	-0.00016	-0.00017	3
9957	-0.00031	-0.00012	3e-05	-0.00012	-0.00022	-8e-05	-0.00016	-0.00017	3
9958	-0.00031	-0.00012	3e-05	-0.00012	-0.00022	-8e-05	-0.00016	-0.00017	3
9959	-0.00031	-0.00012	3e-05	-0.00012	-0.00022	-8e-05	-0.00016	-0.00017	3
9960	-0.00031	-0.00012	3e-05	-0.00012	-0.00022	-8e-05	-0.00016	-0.00017	3
9961	-0.00031	-0.00012	3e-05	-0.00012	-0.00022	-8e-05	-0.00016	-0.00017	3
9962	-0.00011	0	-4e-05	0.0001	0.00032	-1e-05	-0.0001	-0.0001	3
9963	-0.00011	0	-4e-05	0.0001	0.00032	-1e-05	-0.0001	-0.0001	3
9964	-0.00011	0	-4e-05	0.0001	0.00032	-1e-05	-0.0001	-0.0001	3
9965	-0.00011	0	-4e-05	0.0001	0.00032	-1e-05	-0.0001	-0.0001	3
9966	-0.00011	0	-4e-05	0.0001	0.00032	-1e-05	-0.0001	-0.0001	3
9967	-0.00011	0	-4e-05	0.0001	0.00032	-1e-05	-0.0001	-0.0001	3
9968	-0.00011	0	-4e-05	0.0001	0.00032	-1e-05	-0.0001	-0.0001	3
9969	0.00013	8e-05	3e-05	2e-05	4e-05	-0.00013	-0.00013	-0.00015	3
9970	0.00013	8e-05	3e-05	2e-05	4e-05	-0.00013	-0.00013	-0.00015	3
9971	0.00013	8e-05	3e-05	2e-05	4e-05	-0.00013	-0.00013	-0.00015	3
9972	0.00013	8e-05	3e-05	2e-05	4e-05	-0.00013	-0.00013	-0.00015	3
9973	0.00013	8e-05	3e-05	2e-05	4e-05	-0.00013	-0.00013	-0.00015	3
9974	0.00013	8e-05	3e-05	2e-05	4e-05	-0.00013	-0.00013	-0.00015	3
9975	0.00013	8e-05	3e-05	2e-05	4e-05	-0.00013	-0.00013	-0.00015	3
9976	0.00013	8e-05	3e-05	2e-05	4e-05	-0.00013	-0.00013	-0.00015	3
9977	0.00013	8e-05	3e-05	2e-05	4e-05	-0.00013	-0.00013	-0.00015	3
9978	0.00013	8e-05	3e-05	2e-05	4e-05	-0.00013	-0.00013	-0.00015	3
9979	0.00013	8e-05	3e-05	2e-05	4e-05	-0.00013	-0.00013	-0.00015	3
9980	0.00013	8e-05	3e-05	2e-05	4e-05	-0.00013	-0.00013	-0.00015	3
9981	0.00013	8e-05	3e-05	2e-05	4e-05	-0.00013	-0.00013	-0.00015	3
9982	0.00013	8e-05	3e-05	2e-05	4e-05	-0.00013	-0.00013	-0.00015	3
9983	0.00013	8e-05	3e-05	2e-05	4e-05	-0.00013	-0.00013	-0.00015	3
9984	0.00013	8e-05	3e-05	2e-05	4e-05	-0.00013	-0.00013	-0.00015	3
9985	0.00013	8e-05	3e-05	2e-05	4e-05	-0.00013	-0.00013	-0.00015	3
9986	0.00013	8e-05	3e-05	2e-05	4e-05	-0.00013	-0.00013	-0.00015	3
9989	0.00013	8e-05	3e-05	2e-05	4e-05	-0.00013	-0.00013	-0.00015	3
9990	0.00013	8e-05	3e-05	2e-05	4e-05	-0.00013	-0.00013	-0.00015	3
9991	0.00013	8e-05	3e-05	2e-05	4e-05	-0.00013	-0.00013	-0.00015	3
9992	0.00013	8e-05	3e-05	2e-05	4e-05	-0.00013	-0.00013	-0.00015	3
9993	-1e-05	-2e-05	-7e-05	-0.00012	-0.00013	0	0.00016	6e-05	3
9994	3e-05	1e-05	1e-05	-9e-05	-0.00028	-4e-05	2e-05	-6e-05	3
9995	0.0001	8e-05	-0.00012	-0.00016	-0.00021	0	9e-05	-0.00027	3
9996	0.0001	8e-05	-0.00012	-0.00016	-0.00021	0	9e-05	-0.00027	3
9997	0.0001	8e-05	-0.00012	-0.00016	-0.00021	0	9e-05	-0.00027	3
9998	0.0001	8e-05	-0.00012	-0.00016	-0.00021	0	9e-05	-0.00027	3
9999	0.0001	8e-05	-0.00012	-0.00016	-0.00021	0	9e-05	-0.00027	3
10000	0.0001	8e-05	-0.00012	-0.00016	-0.00021	0	9e-05	-0.00027	3
10001	0.0001	8e-05	-0.00012	-0.00016	-0.00021	0	9e-05	-0.00027	3
10002	0.0001	8e-05	-0.00012	-0.00016	-0.00021	0	9e-05	-0.00027	3
10003	0.0001	8e-05	-0.00012	-0.00016	-0.00021	0	9e-05	-0.00027	3
10004	0.0001	8e-05	-0.00012	-0.00016	-0.00021	0	9e-05	-0.00027	3
10005	0.0001	8e-05	-0.00012	-0.00016	-0.00021	0	9e-05	-0.00027	3
10006	0.0001	8e-05	-0.00012	-0.00016	-0.00021	0	9e-05	-0.00027	3
10007	0.0001	8e-05	-0.00012	-0.00016	-0.00021	0	9e-05	-0.00027	3
10008	0.00016	1e-05	2e-05	0.00012	0.00045	0.00016	0.0001	0.00018	3
10009	0.00016	1e-05	2e-05	0.00012	0.00045	0.00016	0.0001	0.00018	3
10010	3e-05	-0.0001	3e-05	5e-05	0.00012	3e-05	0.00035	0.00019	3
10011	3e-05	-0.0001	3e-05	5e-05	0.00012	3e-05	0.00035	0.00019	3
10012	3e-05	-0.0001	3e-05	5e-05	0.00012	3e-05	0.00035	0.00019	3
10013	3e-05	-0.0001	3e-05	5e-05	0.00012	3e-05	0.00035	0.00019	3
10014	3e-05	-0.0001	3e-05	5e-05	0.00012	3e-05	0.00035	0.00019	3
10015	3e-05	-0.0001	3e-05	5e-05	0.00012	3e-05	0.00035	0.00019	3
10016	3e-05	-0.0001	3e-05	5e-05	0.00012	3e-05	0.00035	0.00019	3
10017	3e-05	-0.0001	3e-05	5e-05	0.00012	3e-05	0.00035	0.00019	3
10018	3e-05	-0.0001	3e-05	5e-05	0.00012	3e-05	0.00035	0.00019	3
10019	3e-05	-0.0001	3e-05	5e-05	0.00012	3e-05	0.00035	0.00019	3
10020	3e-05	-0.0001	3e-05	5e-05	0.00012	3e-05	0.00035	0.00019	3
10021	3e-05	-0.0001	3e-05	5e-05	0.00012	3e-05	0.00035	0.00019	3
10022	3e-05	-0.0001	3e-05	5e-05	0.00012	3e-05	0.00035	0.00019	3
10023	3e-05	-0.0001	3e-05	5e-05	0.00012	3e-05	0.00035	0.00019	3
10024	3e-05	-0.0001	3e-05	5e-05	0.00012	3e-05	0.00035	0.00019	3
10025	3e-05	-0.0001	3e-05	5e-05	0.00012	3e-05	0.00035	0.00019	3
10026	3e-05	-0.0001	3e-05	5e-05	0.00012	3e-05	0.00035	0.00019	3
10027	3e-05	-0.0001	3e-05	5e-05	0.00012	3e-05	0.00035	0.00019	3
10028	3e-05	-0.0001	3e-05	5e-05	0.00012	3e-05	0.00035	0.00019	3
10029	3e-05	-0.0001	3e-05	5e-05	0.00012	3e-05	0.00035	0.00019	3
10030	3e-05	-0.0001	3e-05	5e-05	0.00012	3e-05	0.00035	0.00019	3
10031	3e-05	-0.0001	3e-05	5e-05	0.00012	3e-05	0.00035	0.00019	3
10033	3e-05	-0.0001	3e-05	5e-05	0.00012	3e-05	0.00035	0.00019	3
10034	3e-05	-0.0001	3e-05	5e-05	0.00012	3e-05	0.00035	0.00019	3
10035	3e-05	-0.0001	3e-05	5e-05	0.00012	3e-05	0.00035	0.00019	3
10043	0.0001	5e-05	1e-05	-3e-05	-0.00011	-3e-05	-0.00022	-6e-05	3
10045	0.0001	5e-05	1e-05	-3e-05	-0.00011	-3e-05	-0.00022	-6e-05	3
10046	0.00027	1e-05	-4e-05	-5e-05	-0.00012	-0.00019	-0.00012	7e-05	3
10047	0.00014	0.00013	0	-8e-05	-0.00019	-5e-05	-0.00033	-5e-05	3
10048	0.00014	0.00013	0	-8e-05	-0.00019	-5e-05	-0.00033	-5e-05	3
10049	0.00014	0.00013	0	-8e-05	-0.00019	-5e-05	-0.00033	-5e-05	3
10050	0.00014	0.00013	0	-8e-05	-0.00019	-5e-05	-0.00033	-5e-05	3
10051	0.00014	0.00013	0	-8e-05	-0.00019	-5e-05	-0.00033	-5e-05	3
10052	0.00014	0.00013	0	-8e-05	-0.00019	-5e-05	-0.00033	-5e-05	3
10053	0.00014	0.00013	0	-8e-05	-0.00019	-5e-05	-0.00033	-5e-05	3
10054	0.00014	0.00013	0	-8e-05	-0.00019	-5e-05	-0.00033	-5e-05	3
10055	0.00014	0.00013	0	-8e-05	-0.00019	-5e-05	-0.00033	-5e-05	3
10056	0.00014	0.00013	0	-8e-05	-0.00019	-5e-05	-0.00033	-5e-05	3
10057	0.00014	0.00013	0	-8e-05	-0.00019	-5e-05	-0.00033	-5e-05	3
10058	0.00014	0.00013	0	-8e-05	-0.00019	-5e-05	-0.00033	-5e-05	3
10059	0.00014	0.00013	0	-8e-05	-0.00019	-5e-05	-0.00033	-5e-05	3
10060	0.00014	0.00013	0	-8e-05	-0.00019	-5e-05	-0.00033	-5e-05	3
10061	0.00014	0.00013	0	-8e-05	-0.00019	-5e-05	-0.00033	-5e-05	3
10062	0.00014	0.00013	0	-8e-05	-0.00019	-5e-05	-0.00033	-5e-05	3
10063	0.00014	0.00013	0	-8e-05	-0.00019	-5e-05	-0.00033	-5e-05	3
10064	0.00014	0.00013	0	-8e-05	-0.00019	-5e-05	-0.00033	-5e-05	3
10065	0.00014	0.00013	0	-8e-05	-0.00019	-5e-05	-0.00033	-5e-05	3
10066	0.00014	0.00013	0	-8e-05	-0.00019	-5e-05	-0.00033	-5e-05	3
10067	0.00014	0.00013	0	-8e-05	-0.00019	-5e-05	-0.00033	-5e-05	3
10068	0.00014	0.00013	0	-8e-05	-0.00019	-5e-05	-0.00033	-5e-05	3
10069	3e-05	-7e-05	0	4e-05	-1e-05	7e-05	5e-05	0.00021	3
10070	-0.0001	-0.00011	-0.00012	-3e-05	-0.00012	-5e-05	-0.00018	-7e-05	3
10071	-0.0001	-0.00011	-0.00012	-3e-05	-0.00012	-5e-05	-0.00018	-7e-05	3
10072	-0.0001	-0.00011	-0.00012	-3e-05	-0.00012	-5e-05	-0.00018	-7e-05	3
10073	-0.0001	-0.00011	-0.00012	-3e-05	-0.00012	-5e-05	-0.00018	-7e-05	3
10074	-0.0001	-0.00011	-0.00012	-3e-05	-0.00012	-5e-05	-0.00018	-7e-05	3
10075	-0.0001	-0.00011	-0.00012	-3e-05	-0.00012	-5e-05	-0.00018	-7e-05	3
10076	-0.0001	-0.00011	-0.00012	-3e-05	-0.00012	-5e-05	-0.00018	-7e-05	3
10077	-0.0001	-0.00011	-0.00012	-3e-05	-0.00012	-5e-05	-0.00018	-7e-05	3
10078	-0.0001	-0.00011	-0.00012	-3e-05	-0.00012	-5e-05	-0.00018	-7e-05	3
10079	-0.0001	-0.00011	-0.00012	-3e-05	-0.00012	-5e-05	-0.00018	-7e-05	3
10080	-0.0001	-0.00011	-0.00012	-3e-05	-0.00012	-5e-05	-0.00018	-7e-05	3
10081	-0.0001	-0.00011	-0.00012	-3e-05	-0.00012	-5e-05	-0.00018	-7e-05	3
10082	-0.0001	-0.00011	-0.00012	-3e-05	-0.00012	-5e-05	-0.00018	-7e-05	3
10083	-0.0001	-0.00011	-0.00012	-3e-05	-0.00012	-5e-05	-0.00018	-7e-05	3
10084	-0.0001	-0.00011	-0.00012	-3e-05	-0.00012	-5e-05	-0.00018	-7e-05	3
10085	-0.0001	-0.00011	-0.00012	-3e-05	-0.00012	-5e-05	-0.00018	-7e-05	3
10086	-0.0001	-0.00011	-0.00012	-3e-05	-0.00012	-5e-05	-0.00018	-7e-05	3
10089	-0.0001	-0.00011	-0.00012	-3e-05	-0.00012	-5e-05	-0.00018	-7e-05	3
10090	3e-05	-0.00018	-4e-05	-3e-05	-9e-05	-2e-05	1e-05	0.0002	3
10091	0.00015	2e-05	-3e-05	-0.0001	-0.00024	-0.00018	-6e-05	-5e-05	3
10092	0.00019	6e-05	0.0001	0.00018	0.00022	3e-05	-1e-05	0.0001	3
10093	0.00019	6e-05	0.0001	0.00018	0.00022	3e-05	-1e-05	0.0001	3
10094	0.00019	6e-05	0.0001	0.00018	0.00022	3e-05	-1e-05	0.0001	3
10095	0.00019	6e-05	0.0001	0.00018	0.00022	3e-05	-1e-05	0.0001	3
10096	0.00019	6e-05	0.0001	0.00018	0.00022	3e-05	-1e-05	0.0001	3
10097	0.00019	6e-05	0.0001	0.00018	0.00022	3e-05	-1e-05	0.0001	3
10098	0.00019	6e-05	0.0001	0.00018	0.00022	3e-05	-1e-05	0.0001	3
10099	0.00019	6e-05	0.0001	0.00018	0.00022	3e-05	-1e-05	0.0001	3
10100	0.00019	6e-05	0.0001	0.00018	0.00022	3e-05	-1e-05	0.0001	3
10101	0.00019	6e-05	0.0001	0.00018	0.00022	3e-05	-1e-05	0.0001	3
10102	0.00019	6e-05	0.0001	0.00018	0.00022	3e-05	-1e-05	0.0001	3
10103	0.00019	6e-05	0.0001	0.00018	0.00022	3e-05	-1e-05	0.0001	3
10104	0.00019	6e-05	0.0001	0.00018	0.00022	3e-05	-1e-05	0.0001	3
10105	0.00011	0.00013	2e-05	-1e-05	0	8e-05	0.00014	-1e-05	3
10106	-0.00015	-0.00012	1e-05	5e-05	0.00023	-4e-05	-0.00031	-6e-05	3
10107	-7e-05	-9e-05	-4e-05	5e-05	7e-05	4e-05	0.00015	-8e-05	3
10108	-7e-05	-9e-05	-4e-05	5e-05	7e-05	4e-05	0.00015	-8e-05	3
10109	-7e-05	-9e-05	-4e-05	5e-05	7e-05	4e-05	0.00015	-8e-05	3
10110	-7e-05	-9e-05	-4e-05	5e-05	7e-05	4e-05	0.00015	-8e-05	3
10111	-7e-05	-9e-05	-4e-05	5e-05	7e-05	4e-05	0.00015	-8e-05	3
10112	-7e-05	-9e-05	-4e-05	5e-05	7e-05	4e-05	0.00015	-8e-05	3
10113	-7e-05	-9e-05	-4e-05	5e-05	7e-05	4e-05	0.00015	-8e-05	3
10114	-7e-05	-9e-05	-4e-05	5e-05	7e-05	4e-05	0.00015	-8e-05	3
10115	-7e-05	-9e-05	-4e-05	5e-05	7e-05	4e-05	0.00015	-8e-05	3
10116	-7e-05	-9e-05	-4e-05	5e-05	7e-05	4e-05	0.00015	-8e-05	3
10117	-7e-05	-9e-05	-4e-05	5e-05	7e-05	4e-05	0.00015	-8e-05	3
10118	-7e-05	-9e-05	-4e-05	5e-05	7e-05	4e-05	0.00015	-8e-05	3
10119	-7e-05	-9e-05	-4e-05	5e-05	7e-05	4e-05	0.00015	-8e-05	3
10120	-7e-05	-9e-05	-4e-05	5e-05	7e-05	4e-05	0.00015	-8e-05	3
10121	-7e-05	-9e-05	-4e-05	5e-05	7e-05	4e-05	0.00015	-8e-05	3
10122	-7e-05	-9e-05	-4e-05	5e-05	7e-05	4e-05	0.00015	-8e-05	3
10123	-7e-05	-9e-05	-4e-05	5e-05	7e-05	4e-05	0.00015	-8e-05	3
10124	-7e-05	-9e-05	-4e-05	5e-05	7e-05	4e-05	0.00015	-8e-05	3
10125	-7e-05	-9e-05	-4e-05	5e-05	7e-05	4e-05	0.00015	-8e-05	3
10126	-7e-05	-9e-05	-4e-05	5e-05	7e-05	4e-05	0.00015	-8e-05	3
10127	-7e-05	-9e-05	-4e-05	5e-05	7e-05	4e-05	0.00015	-8e-05	3
10128	-7e-05	-9e-05	-4e-05	5e-05	7e-05	4e-05	0.00015	-8e-05	3
10129	-7e-05	-9e-05	-4e-05	5e-05	7e-05	4e-05	0.00015	-8e-05	3
10130	-7e-05	-9e-05	-4e-05	5e-05	7e-05	4e-05	0.00015	-8e-05	3
10131	-7e-05	-9e-05	-4e-05	5e-05	7e-05	4e-05	0.00015	-8e-05	3
10132	-7e-05	-9e-05	-4e-05	5e-05	7e-05	4e-05	0.00015	-8e-05	3
10133	-7e-05	-9e-05	-4e-05	5e-05	7e-05	4e-05	0.00015	-8e-05	3
10134	-7e-05	-9e-05	-4e-05	5e-05	7e-05	4e-05	0.00015	-8e-05	3
10135	6e-05	-1e-05	-1e-05	5e-05	0.00025	7e-05	-0.0001	0.0002	3
10136	6e-05	-1e-05	-1e-05	5e-05	0.00025	7e-05	-0.0001	0.0002	3
10138	-4e-05	0	2e-05	-0.00011	-0.00024	-6e-05	-5e-05	3e-05	3
10139	-4e-05	0	2e-05	-0.00011	-0.00024	-6e-05	-5e-05	3e-05	3
10140	-4e-05	0	2e-05	-0.00011	-0.00024	-6e-05	-5e-05	3e-05	3
10141	-4e-05	0	2e-05	-0.00011	-0.00024	-6e-05	-5e-05	3e-05	3
10142	-0.00015	-9e-05	-5e-05	-0.00016	-0.00032	-0.0002	-0.00027	7e-05	3
10143	-0.00015	-9e-05	-5e-05	-0.00016	-0.00032	-0.0002	-0.00027	7e-05	3
10144	-0.00015	-9e-05	-5e-05	-0.00016	-0.00032	-0.0002	-0.00027	7e-05	3
10145	-0.00015	-9e-05	-5e-05	-0.00016	-0.00032	-0.0002	-0.00027	7e-05	3
10146	-0.00015	-9e-05	-5e-05	-0.00016	-0.00032	-0.0002	-0.00027	7e-05	3
10147	-0.00015	-9e-05	-5e-05	-0.00016	-0.00032	-0.0002	-0.00027	7e-05	3
10148	-0.00015	-9e-05	-5e-05	-0.00016	-0.00032	-0.0002	-0.00027	7e-05	3
10149	-0.00015	-9e-05	-5e-05	-0.00016	-0.00032	-0.0002	-0.00027	7e-05	3
10150	-0.00015	-9e-05	-5e-05	-0.00016	-0.00032	-0.0002	-0.00027	7e-05	3
10151	-0.00027	-8e-05	-4e-05	-7e-05	0	-0.0002	-0.0002	-4e-05	3
10152	-0.00027	-8e-05	-4e-05	-7e-05	0	-0.0002	-0.0002	-4e-05	3
10153	-0.00027	-8e-05	-4e-05	-7e-05	0	-0.0002	-0.0002	-4e-05	3
10154	-0.00027	-8e-05	-4e-05	-7e-05	0	-0.0002	-0.0002	-4e-05	3
10155	-0.00027	-8e-05	-4e-05	-7e-05	0	-0.0002	-0.0002	-4e-05	3
10156	-0.00027	-8e-05	-4e-05	-7e-05	0	-0.0002	-0.0002	-4e-05	3
10157	-0.00027	-8e-05	-4e-05	-7e-05	0	-0.0002	-0.0002	-4e-05	3
10158	-0.00027	-8e-05	-4e-05	-7e-05	0	-0.0002	-0.0002	-4e-05	3
10159	-0.00027	-8e-05	-4e-05	-7e-05	0	-0.0002	-0.0002	-4e-05	3
10160	-0.00027	-8e-05	-4e-05	-7e-05	0	-0.0002	-0.0002	-4e-05	3
10161	-0.00027	-8e-05	-4e-05	-7e-05	0	-0.0002	-0.0002	-4e-05	3
10162	-0.00027	-8e-05	-4e-05	-7e-05	0	-0.0002	-0.0002	-4e-05	3
10163	-0.00027	-8e-05	-4e-05	-7e-05	0	-0.0002	-0.0002	-4e-05	3
10164	-0.00027	-8e-05	-4e-05	-7e-05	0	-0.0002	-0.0002	-4e-05	3
10165	-0.00027	-8e-05	-4e-05	-7e-05	0	-0.0002	-0.0002	-4e-05	3
10166	-3e-05	-0.00011	-6e-05	-7e-05	-0.00013	-8e-05	2e-05	-0.00016	3
10167	-3e-05	-0.00011	-6e-05	-7e-05	-0.00013	-8e-05	2e-05	-0.00016	3
10168	-0.00013	-0.00012	1e-05	0.00011	0.00041	8e-05	8e-05	0.00029	3
10169	-0.00013	-0.00012	1e-05	0.00011	0.00041	8e-05	8e-05	0.00029	3
10170	-0.00013	-0.00012	1e-05	0.00011	0.00041	8e-05	8e-05	0.00029	3
10171	-0.00013	-0.00012	1e-05	0.00011	0.00041	8e-05	8e-05	0.00029	3
10172	-0.00013	-0.00012	1e-05	0.00011	0.00041	8e-05	8e-05	0.00029	3
10173	-0.00013	-0.00012	1e-05	0.00011	0.00041	8e-05	8e-05	0.00029	3
10174	-0.00013	-0.00012	1e-05	0.00011	0.00041	8e-05	8e-05	0.00029	3
10175	-0.00013	-0.00012	1e-05	0.00011	0.00041	8e-05	8e-05	0.00029	3
10176	-0.00013	-0.00012	1e-05	0.00011	0.00041	8e-05	8e-05	0.00029	3
10177	-0.00013	-0.00012	1e-05	0.00011	0.00041	8e-05	8e-05	0.00029	3
10178	-0.00013	-0.00012	1e-05	0.00011	0.00041	8e-05	8e-05	0.00029	3
10179	-0.00013	-0.00012	1e-05	0.00011	0.00041	8e-05	8e-05	0.00029	3
10180	-0.00013	-0.00012	1e-05	0.00011	0.00041	8e-05	8e-05	0.00029	3
10181	-0.00013	-0.00012	1e-05	0.00011	0.00041	8e-05	8e-05	0.00029	3
10182	-0.00013	-0.00012	1e-05	0.00011	0.00041	8e-05	8e-05	0.00029	3
10183	-0.00013	-0.00012	1e-05	0.00011	0.00041	8e-05	8e-05	0.00029	3
10184	-0.00013	-0.00012	1e-05	0.00011	0.00041	8e-05	8e-05	0.00029	3
10185	-0.00013	-0.00012	1e-05	0.00011	0.00041	8e-05	8e-05	0.00029	3
10186	-0.00013	-0.00012	1e-05	0.00011	0.00041	8e-05	8e-05	0.00029	3
10189	-0.0001	2e-05	0	0.00015	0.00014	0.00019	3e-05	-0.00012	3
10190	-0.0001	2e-05	0	0.00015	0.00014	0.00019	3e-05	-0.00012	3
10191	-0.0001	2e-05	0	0.00015	0.00014	0.00019	3e-05	-0.00012	3
10192	-0.0001	2e-05	0	0.00015	0.00014	0.00019	3e-05	-0.00012	3
10193	-0.0001	2e-05	0	0.00015	0.00014	0.00019	3e-05	-0.00012	3
10194	-5e-05	-1e-05	3e-05	-3e-05	-0.00019	6e-05	5e-05	0.00012	3
10195	-5e-05	-1e-05	3e-05	-3e-05	-0.00019	6e-05	5e-05	0.00012	3
10196	-5e-05	-1e-05	3e-05	-3e-05	-0.00019	6e-05	5e-05	0.00012	3
10197	-5e-05	-1e-05	3e-05	-3e-05	-0.00019	6e-05	5e-05	0.00012	3
10198	-5e-05	-1e-05	3e-05	-3e-05	-0.00019	6e-05	5e-05	0.00012	3
10199	-5e-05	-1e-05	3e-05	-3e-05	-0.00019	6e-05	5e-05	0.00012	3
10200	-5e-05	-1e-05	3e-05	-3e-05	-0.00019	6e-05	5e-05	0.00012	3
10201	-5e-05	-1e-05	3e-05	-3e-05	-0.00019	6e-05	5e-05	0.00012	3
10202	8e-05	8e-05	8e-05	-0.00013	-0.00019	-6e-05	2e-05	0.0001	3
10203	8e-05	8e-05	8e-05	-0.00013	-0.00019	-6e-05	2e-05	0.0001	3
10204	8e-05	8e-05	8e-05	-0.00013	-0.00019	-6e-05	2e-05	0.0001	3
10205	8e-05	8e-05	8e-05	-0.00013	-0.00019	-6e-05	2e-05	0.0001	3
10206	8e-05	8e-05	8e-05	-0.00013	-0.00019	-6e-05	2e-05	0.0001	3
10207	8e-05	8e-05	8e-05	-0.00013	-0.00019	-6e-05	2e-05	0.0001	3
10208	8e-05	8e-05	8e-05	-0.00013	-0.00019	-6e-05	2e-05	0.0001	3
10209	8e-05	8e-05	8e-05	-0.00013	-0.00019	-6e-05	2e-05	0.0001	3
10210	8e-05	8e-05	8e-05	-0.00013	-0.00019	-6e-05	2e-05	0.0001	3
10211	0.00023	0.00014	-3e-05	-0.00014	-7e-05	-2e-05	0.00011	-8e-05	3
10212	0.00023	0.00014	-3e-05	-0.00014	-7e-05	-2e-05	0.00011	-8e-05	3
10213	0.00023	0.00014	-3e-05	-0.00014	-7e-05	-2e-05	0.00011	-8e-05	3
10214	0.00023	0.00014	-3e-05	-0.00014	-7e-05	-2e-05	0.00011	-8e-05	3
10215	0.00023	0.00014	-3e-05	-0.00014	-7e-05	-2e-05	0.00011	-8e-05	3
10216	0.00023	0.00014	-3e-05	-0.00014	-7e-05	-2e-05	0.00011	-8e-05	3
10217	0.00023	0.00014	-3e-05	-0.00014	-7e-05	-2e-05	0.00011	-8e-05	3
10218	0.00023	0.00014	-3e-05	-0.00014	-7e-05	-2e-05	0.00011	-8e-05	3
10219	0.00023	0.00014	-3e-05	-0.00014	-7e-05	-2e-05	0.00011	-8e-05	3
10220	0.00023	0.00014	-3e-05	-0.00014	-7e-05	-2e-05	0.00011	-8e-05	3
10221	0.00023	0.00014	-3e-05	-0.00014	-7e-05	-2e-05	0.00011	-8e-05	3
10222	0.00023	0.00014	-3e-05	-0.00014	-7e-05	-2e-05	0.00011	-8e-05	3
10223	0.00023	0.00014	-3e-05	-0.00014	-7e-05	-2e-05	0.00011	-8e-05	3
10224	0.00023	0.00014	-3e-05	-0.00014	-7e-05	-2e-05	0.00011	-8e-05	3
10225	-2e-05	4e-05	4e-05	2e-05	0.00013	8e-05	5e-05	3e-05	3
10226	-2e-05	4e-05	4e-05	2e-05	0.00013	8e-05	5e-05	3e-05	3
10227	4e-05	6e-05	-7e-05	-0.00013	-0.00029	-0.00014	-0.00021	-0.0002	3
10228	4e-05	6e-05	-7e-05	-0.00013	-0.00029	-0.00014	-0.00021	-0.0002	3
10229	4e-05	6e-05	-7e-05	-0.00013	-0.00029	-0.00014	-0.00021	-0.0002	3
10230	4e-05	6e-05	-7e-05	-0.00013	-0.00029	-0.00014	-0.00021	-0.0002	3
10231	4e-05	6e-05	-7e-05	-0.00013	-0.00029	-0.00014	-0.00021	-0.0002	3
10232	4e-05	6e-05	-7e-05	-0.00013	-0.00029	-0.00014	-0.00021	-0.0002	3
10233	4e-05	6e-05	-7e-05	-0.00013	-0.00029	-0.00014	-0.00021	-0.0002	3
10234	4e-05	6e-05	-7e-05	-0.00013	-0.00029	-0.00014	-0.00021	-0.0002	3
10235	4e-05	6e-05	-7e-05	-0.00013	-0.00029	-0.00014	-0.00021	-0.0002	3
10236	4e-05	6e-05	-7e-05	-0.00013	-0.00029	-0.00014	-0.00021	-0.0002	3
10238	4e-05	6e-05	-7e-05	-0.00013	-0.00029	-0.00014	-0.00021	-0.0002	3
10239	4e-05	6e-05	-7e-05	-0.00013	-0.00029	-0.00014	-0.00021	-0.0002	3
10240	4e-05	6e-05	-7e-05	-0.00013	-0.00029	-0.00014	-0.00021	-0.0002	3
10241	4e-05	6e-05	-7e-05	-0.00013	-0.00029	-0.00014	-0.00021	-0.0002	3
10242	4e-05	6e-05	-7e-05	-0.00013	-0.00029	-0.00014	-0.00021	-0.0002	3
10243	4e-05	6e-05	-7e-05	-0.00013	-0.00029	-0.00014	-0.00021	-0.0002	3
10244	4e-05	6e-05	-7e-05	-0.00013	-0.00029	-0.00014	-0.00021	-0.0002	3
10245	4e-05	6e-05	-7e-05	-0.00013	-0.00029	-0.00014	-0.00021	-0.0002	3
10246	4e-05	6e-05	-7e-05	-0.00013	-0.00029	-0.00014	-0.00021	-0.0002	3
10247	4e-05	6e-05	-7e-05	-0.00013	-0.00029	-0.00014	-0.00021	-0.0002	3
10248	-0.00025	-2e-05	-4e-05	-5e-05	-6e-05	-4e-05	0.00013	-8e-05	3
10249	-0.00025	-2e-05	-4e-05	-5e-05	-6e-05	-4e-05	0.00013	-8e-05	3
10250	0	-3e-05	-4e-05	0	-0.0001	7e-05	7e-05	-7e-05	3
10251	0	-3e-05	-4e-05	0	-0.0001	7e-05	7e-05	-7e-05	3
10252	0	-3e-05	-4e-05	0	-0.0001	7e-05	7e-05	-7e-05	3
10253	0	-3e-05	-4e-05	0	-0.0001	7e-05	7e-05	-7e-05	3
10254	0	-3e-05	-4e-05	0	-0.0001	7e-05	7e-05	-7e-05	3
10255	0	-3e-05	-4e-05	0	-0.0001	7e-05	7e-05	-7e-05	3
10256	0	-3e-05	-4e-05	0	-0.0001	7e-05	7e-05	-7e-05	3
10257	0	-3e-05	-4e-05	0	-0.0001	7e-05	7e-05	-7e-05	3
10258	0	-3e-05	-4e-05	0	-0.0001	7e-05	7e-05	-7e-05	3
10259	0	-3e-05	-4e-05	0	-0.0001	7e-05	7e-05	-7e-05	3
10260	0	-3e-05	-4e-05	0	-0.0001	7e-05	7e-05	-7e-05	3
10261	0	-3e-05	-4e-05	0	-0.0001	7e-05	7e-05	-7e-05	3
10262	0	-3e-05	-4e-05	0	-0.0001	7e-05	7e-05	-7e-05	3
10263	0	-3e-05	-4e-05	0	-0.0001	7e-05	7e-05	-7e-05	3
10264	0	-3e-05	-4e-05	0	-0.0001	7e-05	7e-05	-7e-05	3
10265	0	-3e-05	-4e-05	0	-0.0001	7e-05	7e-05	-7e-05	3
10266	0	-3e-05	-4e-05	0	-0.0001	7e-05	7e-05	-7e-05	3
10268	0	-3e-05	-4e-05	0	-0.0001	7e-05	7e-05	-7e-05	3
10269	0	-3e-05	-4e-05	0	-0.0001	7e-05	7e-05	-7e-05	3
10270	0	-3e-05	-4e-05	0	-0.0001	7e-05	7e-05	-7e-05	3
10271	-0.00011	-7e-05	0	-2e-05	-8e-05	-0.00011	-0.00022	0	3
10272	-0.00011	-7e-05	0	-2e-05	-8e-05	-0.00011	-0.00022	0	3
10273	2e-05	-8e-05	3e-05	6e-05	6e-05	0.00023	0.0003	-4e-05	3
10274	2e-05	-8e-05	3e-05	6e-05	6e-05	0.00023	0.0003	-4e-05	3
10275	2e-05	-8e-05	3e-05	6e-05	6e-05	0.00023	0.0003	-4e-05	3
10276	2e-05	-8e-05	3e-05	6e-05	6e-05	0.00023	0.0003	-4e-05	3
10277	2e-05	-8e-05	3e-05	6e-05	6e-05	0.00023	0.0003	-4e-05	3
10278	2e-05	-8e-05	3e-05	6e-05	6e-05	0.00023	0.0003	-4e-05	3
10279	2e-05	-8e-05	3e-05	6e-05	6e-05	0.00023	0.0003	-4e-05	3
10280	2e-05	-8e-05	3e-05	6e-05	6e-05	0.00023	0.0003	-4e-05	3
10281	2e-05	-8e-05	3e-05	6e-05	6e-05	0.00023	0.0003	-4e-05	3
10282	2e-05	-8e-05	3e-05	6e-05	6e-05	0.00023	0.0003	-4e-05	3
10283	2e-05	-8e-05	3e-05	6e-05	6e-05	0.00023	0.0003	-4e-05	3
10284	2e-05	-8e-05	3e-05	6e-05	6e-05	0.00023	0.0003	-4e-05	3
10285	-0.00013	-9e-05	-2e-05	7e-05	0.00013	9e-05	0.0002	-0.00011	3
10286	-0.00013	-9e-05	-2e-05	7e-05	0.00013	9e-05	0.0002	-0.00011	3
10289	-7e-05	-4e-05	3e-05	-7e-05	-3e-05	-2e-05	0.00023	0.00017	3
10290	-7e-05	-4e-05	3e-05	-7e-05	-3e-05	-2e-05	0.00023	0.00017	3
10291	-7e-05	-4e-05	3e-05	-7e-05	-3e-05	-2e-05	0.00023	0.00017	3
10292	-7e-05	-4e-05	3e-05	-7e-05	-3e-05	-2e-05	0.00023	0.00017	3
10293	-7e-05	-4e-05	3e-05	-7e-05	-3e-05	-2e-05	0.00023	0.00017	3
10294	-7e-05	-4e-05	3e-05	-7e-05	-3e-05	-2e-05	0.00023	0.00017	3
10295	-7e-05	-4e-05	3e-05	-7e-05	-3e-05	-2e-05	0.00023	0.00017	3
10296	-7e-05	-4e-05	3e-05	-7e-05	-3e-05	-2e-05	0.00023	0.00017	3
10297	-7e-05	-4e-05	3e-05	-7e-05	-3e-05	-2e-05	0.00023	0.00017	3
10298	-7e-05	-4e-05	3e-05	-7e-05	-3e-05	-2e-05	0.00023	0.00017	3
10299	-7e-05	-4e-05	3e-05	-7e-05	-3e-05	-2e-05	0.00023	0.00017	3
10300	-7e-05	-4e-05	3e-05	-7e-05	-3e-05	-2e-05	0.00023	0.00017	3
10301	-7e-05	-4e-05	3e-05	-7e-05	-3e-05	-2e-05	0.00023	0.00017	3
10302	-7e-05	-4e-05	3e-05	-7e-05	-3e-05	-2e-05	0.00023	0.00017	3
10303	-7e-05	-4e-05	3e-05	-7e-05	-3e-05	-2e-05	0.00023	0.00017	3
10304	-7e-05	-4e-05	3e-05	-7e-05	-3e-05	-2e-05	0.00023	0.00017	3
10305	-7e-05	-4e-05	3e-05	-7e-05	-3e-05	-2e-05	0.00023	0.00017	3
10306	-7e-05	-4e-05	3e-05	-7e-05	-3e-05	-2e-05	0.00023	0.00017	3
10307	-7e-05	-4e-05	3e-05	-7e-05	-3e-05	-2e-05	0.00023	0.00017	3
10308	-7e-05	-4e-05	3e-05	-7e-05	-3e-05	-2e-05	0.00023	0.00017	3
10309	9e-05	5e-05	-9e-05	-0.0001	-5e-05	-0.0001	-0.00032	-6e-05	3
10310	-4e-05	0	3e-05	0.0003	0.00063	0.00014	0.0001	0.00019	3
10311	-4e-05	0	3e-05	0.0003	0.00063	0.00014	0.0001	0.00019	3
10312	-4e-05	0	3e-05	0.0003	0.00063	0.00014	0.0001	0.00019	3
10313	-4e-05	0	3e-05	0.0003	0.00063	0.00014	0.0001	0.00019	3
10314	-4e-05	0	3e-05	0.0003	0.00063	0.00014	0.0001	0.00019	3
10315	-4e-05	0	3e-05	0.0003	0.00063	0.00014	0.0001	0.00019	3
10316	-4e-05	0	3e-05	0.0003	0.00063	0.00014	0.0001	0.00019	3
10317	-4e-05	0	3e-05	0.0003	0.00063	0.00014	0.0001	0.00019	3
10318	-4e-05	0	3e-05	0.0003	0.00063	0.00014	0.0001	0.00019	3
10319	-4e-05	0	3e-05	0.0003	0.00063	0.00014	0.0001	0.00019	3
10320	-4e-05	0	3e-05	0.0003	0.00063	0.00014	0.0001	0.00019	3
10321	-4e-05	0	3e-05	0.0003	0.00063	0.00014	0.0001	0.00019	3
10322	-6e-05	2e-05	9e-05	0.00027	0.00049	-2e-05	-0.00016	-0.0002	3
10323	-6e-05	2e-05	9e-05	0.00027	0.00049	-2e-05	-0.00016	-0.0002	3
10324	-6e-05	2e-05	9e-05	0.00027	0.00049	-2e-05	-0.00016	-0.0002	3
10325	-6e-05	2e-05	9e-05	0.00027	0.00049	-2e-05	-0.00016	-0.0002	3
10326	-6e-05	2e-05	9e-05	0.00027	0.00049	-2e-05	-0.00016	-0.0002	3
10327	-6e-05	2e-05	9e-05	0.00027	0.00049	-2e-05	-0.00016	-0.0002	3
10328	-6e-05	2e-05	9e-05	0.00027	0.00049	-2e-05	-0.00016	-0.0002	3
10329	-6e-05	2e-05	9e-05	0.00027	0.00049	-2e-05	-0.00016	-0.0002	3
10330	-6e-05	2e-05	9e-05	0.00027	0.00049	-2e-05	-0.00016	-0.0002	3
10331	0	1e-05	1e-05	-0.00011	-0.0002	-3e-05	-0.00018	-0.00028	3
10332	0	1e-05	1e-05	-0.00011	-0.0002	-3e-05	-0.00018	-0.00028	3
10333	0	1e-05	1e-05	-0.00011	-0.0002	-3e-05	-0.00018	-0.00028	3
10334	0	1e-05	1e-05	-0.00011	-0.0002	-3e-05	-0.00018	-0.00028	3
10335	0	1e-05	1e-05	-0.00011	-0.0002	-3e-05	-0.00018	-0.00028	3
10336	0	1e-05	1e-05	-0.00011	-0.0002	-3e-05	-0.00018	-0.00028	3
10338	0	1e-05	1e-05	-0.00011	-0.0002	-3e-05	-0.00018	-0.00028	3
10339	0	1e-05	1e-05	-0.00011	-0.0002	-3e-05	-0.00018	-0.00028	3
10340	0	1e-05	1e-05	-0.00011	-0.0002	-3e-05	-0.00018	-0.00028	3
10341	0	1e-05	1e-05	-0.00011	-0.0002	-3e-05	-0.00018	-0.00028	3
10342	0	1e-05	1e-05	-0.00011	-0.0002	-3e-05	-0.00018	-0.00028	3
10343	0	1e-05	1e-05	-0.00011	-0.0002	-3e-05	-0.00018	-0.00028	3
10344	0	1e-05	1e-05	-0.00011	-0.0002	-3e-05	-0.00018	-0.00028	3
10345	0.0003	0.00011	-7e-05	-5e-05	-0.00015	-0.00011	-5e-05	0.00017	3
10346	0.0003	0.00011	-7e-05	-5e-05	-0.00015	-0.00011	-5e-05	0.00017	3
10347	2e-05	1e-05	1e-05	-0.00013	-0.00021	-2e-05	0.00013	5e-05	3
10348	2e-05	1e-05	1e-05	-0.00013	-0.00021	-2e-05	0.00013	5e-05	3
10349	2e-05	1e-05	1e-05	-0.00013	-0.00021	-2e-05	0.00013	5e-05	3
10350	2e-05	1e-05	1e-05	-0.00013	-0.00021	-2e-05	0.00013	5e-05	3
10351	2e-05	1e-05	1e-05	-0.00013	-0.00021	-2e-05	0.00013	5e-05	3
10352	2e-05	1e-05	1e-05	-0.00013	-0.00021	-2e-05	0.00013	5e-05	3
10353	2e-05	1e-05	1e-05	-0.00013	-0.00021	-2e-05	0.00013	5e-05	3
10354	2e-05	1e-05	1e-05	-0.00013	-0.00021	-2e-05	0.00013	5e-05	3
10355	2e-05	1e-05	1e-05	-0.00013	-0.00021	-2e-05	0.00013	5e-05	3
10356	2e-05	1e-05	1e-05	-0.00013	-0.00021	-2e-05	0.00013	5e-05	3
10357	2e-05	1e-05	1e-05	-0.00013	-0.00021	-2e-05	0.00013	5e-05	3
10358	2e-05	1e-05	1e-05	-0.00013	-0.00021	-2e-05	0.00013	5e-05	3
10359	2e-05	1e-05	1e-05	-0.00013	-0.00021	-2e-05	0.00013	5e-05	3
10360	2e-05	1e-05	1e-05	-0.00013	-0.00021	-2e-05	0.00013	5e-05	3
10361	2e-05	1e-05	1e-05	-0.00013	-0.00021	-2e-05	0.00013	5e-05	3
10362	2e-05	1e-05	1e-05	-0.00013	-0.00021	-2e-05	0.00013	5e-05	3
10363	2e-05	1e-05	1e-05	-0.00013	-0.00021	-2e-05	0.00013	5e-05	3
10364	2e-05	1e-05	1e-05	-0.00013	-0.00021	-2e-05	0.00013	5e-05	3
10365	2e-05	1e-05	1e-05	-0.00013	-0.00021	-2e-05	0.00013	5e-05	3
10366	2e-05	1e-05	1e-05	-0.00013	-0.00021	-2e-05	0.00013	5e-05	3
10367	2e-05	1e-05	1e-05	-0.00013	-0.00021	-2e-05	0.00013	5e-05	3
10368	0.00017	7e-05	5e-05	0.00024	0.00037	9e-05	0.00034	0.00012	3
10369	-6e-05	1e-05	6e-05	0	5e-05	0.00016	0.00011	0.0001	3
10370	0.0001	-8e-05	-8e-05	-9e-05	-0.00016	-0.00014	-0.00024	0.00011	3
10371	0.0001	-8e-05	-8e-05	-9e-05	-0.00016	-0.00014	-0.00024	0.00011	3
10372	0.0001	-8e-05	-8e-05	-9e-05	-0.00016	-0.00014	-0.00024	0.00011	3
10373	0.0001	-8e-05	-8e-05	-9e-05	-0.00016	-0.00014	-0.00024	0.00011	3
10374	0.0001	-8e-05	-8e-05	-9e-05	-0.00016	-0.00014	-0.00024	0.00011	3
10375	0.0001	-8e-05	-8e-05	-9e-05	-0.00016	-0.00014	-0.00024	0.00011	3
10376	0.0001	-8e-05	-8e-05	-9e-05	-0.00016	-0.00014	-0.00024	0.00011	3
10377	0.0001	-8e-05	-8e-05	-9e-05	-0.00016	-0.00014	-0.00024	0.00011	3
10378	0.0001	-8e-05	-8e-05	-9e-05	-0.00016	-0.00014	-0.00024	0.00011	3
10379	0.0001	-8e-05	-8e-05	-9e-05	-0.00016	-0.00014	-0.00024	0.00011	3
10380	0.0001	-8e-05	-8e-05	-9e-05	-0.00016	-0.00014	-0.00024	0.00011	3
10381	0.0001	-8e-05	-8e-05	-9e-05	-0.00016	-0.00014	-0.00024	0.00011	3
10382	4e-05	-5e-05	-7e-05	7e-05	3e-05	-2e-05	7e-05	0.00011	3
10383	4e-05	-5e-05	-7e-05	7e-05	3e-05	-2e-05	7e-05	0.00011	3
10384	4e-05	-5e-05	-7e-05	7e-05	3e-05	-2e-05	7e-05	0.00011	3
10385	4e-05	-5e-05	-7e-05	7e-05	3e-05	-2e-05	7e-05	0.00011	3
10386	4e-05	-5e-05	-7e-05	7e-05	3e-05	-2e-05	7e-05	0.00011	3
10388	4e-05	-5e-05	-7e-05	7e-05	3e-05	-2e-05	7e-05	0.00011	3
10389	4e-05	-5e-05	-7e-05	7e-05	3e-05	-2e-05	7e-05	0.00011	3
10390	4e-05	-5e-05	-7e-05	7e-05	3e-05	-2e-05	7e-05	0.00011	3
10391	3e-05	0.00016	7e-05	8e-05	2e-05	3e-05	0.00019	0.0001	3
10392	3e-05	0.00016	7e-05	8e-05	2e-05	3e-05	0.00019	0.0001	3
10393	3e-05	0.00016	7e-05	8e-05	2e-05	3e-05	0.00019	0.0001	3
10394	3e-05	0.00016	7e-05	8e-05	2e-05	3e-05	0.00019	0.0001	3
10395	3e-05	0.00016	7e-05	8e-05	2e-05	3e-05	0.00019	0.0001	3
10396	3e-05	0.00016	7e-05	8e-05	2e-05	3e-05	0.00019	0.0001	3
10397	3e-05	0.00016	7e-05	8e-05	2e-05	3e-05	0.00019	0.0001	3
10398	3e-05	0.00016	7e-05	8e-05	2e-05	3e-05	0.00019	0.0001	3
10399	3e-05	0.00016	7e-05	8e-05	2e-05	3e-05	0.00019	0.0001	3
10400	3e-05	0.00016	7e-05	8e-05	2e-05	3e-05	0.00019	0.0001	3
10401	3e-05	0.00016	7e-05	8e-05	2e-05	3e-05	0.00019	0.0001	3
10402	3e-05	0.00016	7e-05	8e-05	2e-05	3e-05	0.00019	0.0001	3
10403	3e-05	0.00016	7e-05	8e-05	2e-05	3e-05	0.00019	0.0001	3
10404	3e-05	0.00016	7e-05	8e-05	2e-05	3e-05	0.00019	0.0001	3
10405	3e-05	0.00016	7e-05	8e-05	2e-05	3e-05	0.00019	0.0001	3
10406	3e-05	0.00016	7e-05	8e-05	2e-05	3e-05	0.00019	0.0001	3
10407	3e-05	0.00016	7e-05	8e-05	2e-05	3e-05	0.00019	0.0001	3
10408	3e-05	0.00016	7e-05	8e-05	2e-05	3e-05	0.00019	0.0001	3
10409	3e-05	0.00016	7e-05	8e-05	2e-05	3e-05	0.00019	0.0001	3
10410	3e-05	0.00016	7e-05	8e-05	2e-05	3e-05	0.00019	0.0001	3
10411	3e-05	0.00016	7e-05	8e-05	2e-05	3e-05	0.00019	0.0001	3
10412	3e-05	0.00016	7e-05	8e-05	2e-05	3e-05	0.00019	0.0001	3
10413	-0.00027	-0.00011	5e-05	-1e-05	-0.00016	-8e-05	0.00012	-7e-05	3
35079	0.00019	0.00017	0	4e-05	0.00026	-4e-05	5e-05	-5e-05	3
35080	0.00019	0.00017	0	4e-05	0.00026	-4e-05	5e-05	-5e-05	3
35081	0.00019	0.00017	0	4e-05	0.00026	-4e-05	5e-05	-5e-05	3
35082	0.00019	0.00017	0	4e-05	0.00026	-4e-05	5e-05	-5e-05	3
35083	0.00019	0.00017	0	4e-05	0.00026	-4e-05	5e-05	-5e-05	3
35084	0.00019	0.00017	0	4e-05	0.00026	-4e-05	5e-05	-5e-05	3
35085	0.00019	0.00017	0	4e-05	0.00026	-4e-05	5e-05	-5e-05	3
35086	0.00019	0.00017	0	4e-05	0.00026	-4e-05	5e-05	-5e-05	3
35088	3e-05	-8e-05	5e-05	0.00015	0.00019	-0.00011	-0.00017	0.00027	3
35089	3e-05	-8e-05	5e-05	0.00015	0.00019	-0.00011	-0.00017	0.00027	3
35090	3e-05	-8e-05	5e-05	0.00015	0.00019	-0.00011	-0.00017	0.00027	3
35091	3e-05	-8e-05	5e-05	0.00015	0.00019	-0.00011	-0.00017	0.00027	3
35092	3e-05	-8e-05	5e-05	0.00015	0.00019	-0.00011	-0.00017	0.00027	3
35093	3e-05	-8e-05	5e-05	0.00015	0.00019	-0.00011	-0.00017	0.00027	3
35094	3e-05	-8e-05	5e-05	0.00015	0.00019	-0.00011	-0.00017	0.00027	3
35095	3e-05	-8e-05	5e-05	0.00015	0.00019	-0.00011	-0.00017	0.00027	3
35096	-0.00035	-9e-05	4e-05	-2e-05	3e-05	-5e-05	0.00024	-5e-05	3
35097	-0.00035	-9e-05	4e-05	-2e-05	3e-05	-5e-05	0.00024	-5e-05	3
35098	-0.00035	-9e-05	4e-05	-2e-05	3e-05	-5e-05	0.00024	-5e-05	3
35099	-0.00035	-9e-05	4e-05	-2e-05	3e-05	-5e-05	0.00024	-5e-05	3
35100	-0.00035	-9e-05	4e-05	-2e-05	3e-05	-5e-05	0.00024	-5e-05	3
35101	-0.00035	-9e-05	4e-05	-2e-05	3e-05	-5e-05	0.00024	-5e-05	3
35102	-0.00035	-9e-05	4e-05	-2e-05	3e-05	-5e-05	0.00024	-5e-05	3
35103	-0.00035	-9e-05	4e-05	-2e-05	3e-05	-5e-05	0.00024	-5e-05	3
35104	-0.00035	-9e-05	4e-05	-2e-05	3e-05	-5e-05	0.00024	-5e-05	3
35105	-0.00035	-9e-05	4e-05	-2e-05	3e-05	-5e-05	0.00024	-5e-05	3
35106	-0.00035	-9e-05	4e-05	-2e-05	3e-05	-5e-05	0.00024	-5e-05	3
35107	-0.00035	-9e-05	4e-05	-2e-05	3e-05	-5e-05	0.00024	-5e-05	3
35108	-0.00035	-9e-05	4e-05	-2e-05	3e-05	-5e-05	0.00024	-5e-05	3
35109	-0.00035	-9e-05	4e-05	-2e-05	3e-05	-5e-05	0.00024	-5e-05	3
35110	0.00046	0.00017	-2e-05	-7e-05	-0.00012	-0.00012	-0.0003	8e-05	3
35111	-0.00048	0.00011	4e-05	4e-05	0.00014	0.00016	0.00026	-0.00039	3
35112	-0.00039	-0.00015	-2e-05	-9e-05	-0.0001	-0.00014	-0.00025	1e-05	3
35113	-0.00039	-0.00015	-2e-05	-9e-05	-0.0001	-0.00014	-0.00025	1e-05	3
35114	-0.00039	-0.00015	-2e-05	-9e-05	-0.0001	-0.00014	-0.00025	1e-05	3
35115	-0.00039	-0.00015	-2e-05	-9e-05	-0.0001	-0.00014	-0.00025	1e-05	3
35116	-0.00039	-0.00015	-2e-05	-9e-05	-0.0001	-0.00014	-0.00025	1e-05	3
35117	-0.00039	-0.00015	-2e-05	-9e-05	-0.0001	-0.00014	-0.00025	1e-05	3
35118	-0.00039	-0.00015	-2e-05	-9e-05	-0.0001	-0.00014	-0.00025	1e-05	3
35119	-0.00039	-0.00015	-2e-05	-9e-05	-0.0001	-0.00014	-0.00025	1e-05	3
35120	-0.00039	-0.00015	-2e-05	-9e-05	-0.0001	-0.00014	-0.00025	1e-05	3
35121	-0.00039	-0.00015	-2e-05	-9e-05	-0.0001	-0.00014	-0.00025	1e-05	3
35122	-0.00039	-0.00015	-2e-05	-9e-05	-0.0001	-0.00014	-0.00025	1e-05	3
35123	-0.00039	-0.00015	-2e-05	-9e-05	-0.0001	-0.00014	-0.00025	1e-05	3
35124	-0.00039	-0.00015	-2e-05	-9e-05	-0.0001	-0.00014	-0.00025	1e-05	3
35125	-0.00039	-0.00015	-2e-05	-9e-05	-0.0001	-0.00014	-0.00025	1e-05	3
35126	-0.00039	-0.00015	-2e-05	-9e-05	-0.0001	-0.00014	-0.00025	1e-05	3
35127	-0.00039	-0.00015	-2e-05	-9e-05	-0.0001	-0.00014	-0.00025	1e-05	3
35128	-0.00039	-0.00015	-2e-05	-9e-05	-0.0001	-0.00014	-0.00025	1e-05	3
35129	-0.00039	-0.00015	-2e-05	-9e-05	-0.0001	-0.00014	-0.00025	1e-05	3
35130	-0.00039	-0.00015	-2e-05	-9e-05	-0.0001	-0.00014	-0.00025	1e-05	3
35131	-0.00039	-0.00015	-2e-05	-9e-05	-0.0001	-0.00014	-0.00025	1e-05	3
35132	-0.00039	-0.00015	-2e-05	-9e-05	-0.0001	-0.00014	-0.00025	1e-05	3
35133	-0.00029	-0.00021	1e-05	-8e-05	-5e-05	0	-9e-05	-2e-05	3
35134	0.00022	-3e-05	0	-2e-05	0.00023	0.00011	0.00037	0.00027	3
35135	0.00016	0.00014	-4e-05	6e-05	3e-05	-9e-05	-8e-05	2e-05	3
35136	0.00016	0.00014	-4e-05	6e-05	3e-05	-9e-05	-8e-05	2e-05	3
35138	0.00016	0.00014	-4e-05	6e-05	3e-05	-9e-05	-8e-05	2e-05	3
35139	0.00016	0.00014	-4e-05	6e-05	3e-05	-9e-05	-8e-05	2e-05	3
35140	0.00016	0.00014	-4e-05	6e-05	3e-05	-9e-05	-8e-05	2e-05	3
35141	0.00016	0.00014	-4e-05	6e-05	3e-05	-9e-05	-8e-05	2e-05	3
35142	0.00016	0.00014	-4e-05	6e-05	3e-05	-9e-05	-8e-05	2e-05	3
35143	0.00016	0.00014	-4e-05	6e-05	3e-05	-9e-05	-8e-05	2e-05	3
35144	0.00016	0.00014	-4e-05	6e-05	3e-05	-9e-05	-8e-05	2e-05	3
35145	0.00016	0.00014	-4e-05	6e-05	3e-05	-9e-05	-8e-05	2e-05	3
35146	0.00016	0.00014	-4e-05	6e-05	3e-05	-9e-05	-8e-05	2e-05	3
35147	0.00017	0.00018	-1e-05	-0.0001	-0.00017	8e-05	-4e-05	4e-05	3
35148	0.00017	0.00018	-1e-05	-0.0001	-0.00017	8e-05	-4e-05	4e-05	3
35149	0.00017	0.00018	-1e-05	-0.0001	-0.00017	8e-05	-4e-05	4e-05	3
35150	0.00017	0.00018	-1e-05	-0.0001	-0.00017	8e-05	-4e-05	4e-05	3
