5359	-9e-05	-7e-05	-0.00022	-0.00014	-8e-05	-0.00028	-0.00022	-0.00014	2
5360	-9e-05	-7e-05	-0.00022	-0.00014	-8e-05	-0.00028	-0.00022	-0.00014	2
5361	-9e-05	-7e-05	-0.00022	-0.00014	-8e-05	-0.00028	-0.00022	-0.00014	2
5362	-9e-05	-7e-05	-0.00022	-0.00014	-8e-05	-0.00028	-0.00022	-0.00014	2
5363	-9e-05	-7e-05	-0.00022	-0.00014	-8e-05	-0.00028	-0.00022	-0.00014	2
5364	-9e-05	-7e-05	-0.00022	-0.00014	-8e-05	-0.00028	-0.00022	-0.00014	2
5365	-9e-05	-7e-05	-0.00022	-0.00014	-8e-05	-0.00028	-0.00022	-0.00014	2
5366	-9e-05	-7e-05	-0.00022	-0.00014	-8e-05	-0.00028	-0.00022	-0.00014	2
5367	-9e-05	-7e-05	-0.00022	-0.00014	-8e-05	-0.00028	-0.00022	-0.00014	2
5368	-9e-05	-7e-05	-0.00022	-0.00014	-8e-05	-0.00028	-0.00022	-0.00014	2
5369	-9e-05	-7e-05	-0.00022	-0.00014	-8e-05	-0.00028	-0.00022	-0.00014	2
5370	-9e-05	-7e-05	-0.00022	-0.00014	-8e-05	-0.00028	-0.00022	-0.00014	2
5371	-9e-05	-7e-05	-0.00022	-0.00014	-8e-05	-0.00028	-0.00022	-0.00014	2
5372	4e-05	7e-05	0.00018	-2e-05	0.00012	0.00023	0.00016	8e-05	2
5373	4e-05	7e-05	0.00018	-2e-05	0.00012	0.00023	0.00016	8e-05	2
5374	4e-05	7e-05	0.00018	-2e-05	0.00012	0.00023	0.00016	8e-05	2
5375	4e-05	7e-05	0.00018	-2e-05	0.00012	0.00023	0.00016	8e-05	2
5376	4e-05	7e-05	0.00018	-2e-05	0.00012	0.00023	0.00016	8e-05	2
5377	4e-05	7e-05	0.00018	-2e-05	0.00012	0.00023	0.00016	8e-05	2
5378	5e-05	0.00014	0.00027	0.00021	3e-05	1e-05	0.0001	0.00013	2
5379	5e-05	0.00014	0.00027	0.00021	3e-05	1e-05	0.0001	0.00013	2
5380	5e-05	0.00014	0.00027	0.00021	3e-05	1e-05	0.0001	0.00013	2
5381	5e-05	0.00014	0.00027	0.00021	3e-05	1e-05	0.0001	0.00013	2
5382	5e-05	0.00014	0.00027	0.00021	3e-05	1e-05	0.0001	0.00013	2
5383	5e-05	0.00014	0.00027	0.00021	3e-05	1e-05	0.0001	0.00013	2
5384	5e-05	0.00014	0.00027	0.00021	3e-05	1e-05	0.0001	0.00013	2
5385	5e-05	0.00014	0.00027	0.00021	3e-05	1e-05	0.0001	0.00013	2
5387	5e-05	0.00014	0.00027	0.00021	3e-05	1e-05	0.0001	0.00013	2
5390	5e-05	0.00014	0.00027	0.00021	3e-05	1e-05	0.0001	0.00013	2
5391	5e-05	0.00014	0.00027	0.00021	3e-05	1e-05	0.0001	0.00013	2
5392	5e-05	0.00014	0.00027	0.00021	3e-05	1e-05	0.0001	0.00013	2
5393	5e-05	0.00014	0.00027	0.00021	3e-05	1e-05	0.0001	0.00013	2
5394	-0.0001	-0.00011	-0.0001	-0.0002	-4e-05	0.0001	-3e-05	3e-05	2
5395	-0.0001	-0.00011	-0.0001	-0.0002	-4e-05	0.0001	-3e-05	3e-05	2
5396	6e-05	-1e-05	-3e-05	0.0001	7e-05	0.00039	8e-05	0.0002	2
5397	6e-05	-1e-05	-3e-05	0.0001	7e-05	0.00039	8e-05	0.0002	2
5399	6e-05	-1e-05	-3e-05	0.0001	7e-05	0.00039	8e-05	0.0002	2
5400	6e-05	-1e-05	-3e-05	0.0001	7e-05	0.00039	8e-05	0.0002	2
5401	6e-05	-1e-05	-3e-05	0.0001	7e-05	0.00039	8e-05	0.0002	2
5402	6e-05	-1e-05	-3e-05	0.0001	7e-05	0.00039	8e-05	0.0002	2
5403	6e-05	-1e-05	-3e-05	0.0001	7e-05	0.00039	8e-05	0.0002	2
5404	6e-05	-1e-05	-3e-05	0.0001	7e-05	0.00039	8e-05	0.0002	2
5405	6e-05	-1e-05	-3e-05	0.0001	7e-05	0.00039	8e-05	0.0002	2
5406	6e-05	-1e-05	-3e-05	0.0001	7e-05	0.00039	8e-05	0.0002	2
5407	6e-05	-1e-05	-3e-05	0.0001	7e-05	0.00039	8e-05	0.0002	2
5408	-8e-05	-5e-05	1e-05	0.00016	-4e-05	-0.00013	7e-05	-6e-05	2
5409	-8e-05	-5e-05	1e-05	0.00016	-4e-05	-0.00013	7e-05	-6e-05	2
5410	-8e-05	-5e-05	1e-05	0.00016	-4e-05	-0.00013	7e-05	-6e-05	2
5411	-8e-05	-5e-05	1e-05	0.00016	-4e-05	-0.00013	7e-05	-6e-05	2
5412	-8e-05	-5e-05	1e-05	0.00016	-4e-05	-0.00013	7e-05	-6e-05	2
5413	-8e-05	-5e-05	1e-05	0.00016	-4e-05	-0.00013	7e-05	-6e-05	2
5414	-8e-05	-5e-05	1e-05	0.00016	-4e-05	-0.00013	7e-05	-6e-05	2
5415	-8e-05	-5e-05	1e-05	0.00016	-4e-05	-0.00013	7e-05	-6e-05	2
5416	-8e-05	-5e-05	1e-05	0.00016	-4e-05	-0.00013	7e-05	-6e-05	2
5417	-0.0001	0	0.0004	0.00017	-9e-05	-0.00022	-5e-05	6e-05	2
5418	-0.0001	0	0.0004	0.00017	-9e-05	-0.00022	-5e-05	6e-05	2
5419	-0.0001	0	0.0004	0.00017	-9e-05	-0.00022	-5e-05	6e-05	2
5420	-0.0001	0	0.0004	0.00017	-9e-05	-0.00022	-5e-05	6e-05	2
5421	-0.0001	0	0.0004	0.00017	-9e-05	-0.00022	-5e-05	6e-05	2
5422	-0.0001	0	0.0004	0.00017	-9e-05	-0.00022	-5e-05	6e-05	2
5423	-0.0001	0	0.0004	0.00017	-9e-05	-0.00022	-5e-05	6e-05	2
5424	-0.0001	0	0.0004	0.00017	-9e-05	-0.00022	-5e-05	6e-05	2
5425	-0.0001	0	0.0004	0.00017	-9e-05	-0.00022	-5e-05	6e-05	2
5426	-0.0001	0	0.0004	0.00017	-9e-05	-0.00022	-5e-05	6e-05	2
5427	-0.0001	0	0.0004	0.00017	-9e-05	-0.00022	-5e-05	6e-05	2
5428	-0.0001	0	0.0004	0.00017	-9e-05	-0.00022	-5e-05	6e-05	2
5429	-0.0001	0	0.0004	0.00017	-9e-05	-0.00022	-5e-05	6e-05	2
5430	-0.0001	0	0.0004	0.00017	-9e-05	-0.00022	-5e-05	6e-05	2
5431	-0.0001	0	0.0004	0.00017	-9e-05	-0.00022	-5e-05	6e-05	2
5432	-9e-05	7e-05	0.00022	-0.00012	-0.0001	-0.00012	-1e-05	0	2
5433	3e-05	-6e-05	-4e-05	9e-05	-7e-05	-0.00019	-6e-05	-3e-05	2
5434	2e-05	-1e-05	0.00014	6e-05	3e-05	-0.0001	4e-05	0	2
5435	2e-05	-1e-05	0.00014	6e-05	3e-05	-0.0001	4e-05	0	2
5436	2e-05	-1e-05	0.00014	6e-05	3e-05	-0.0001	4e-05	0	2
5438	2e-05	-1e-05	0.00014	6e-05	3e-05	-0.0001	4e-05	0	2
5439	2e-05	-1e-05	0.00014	6e-05	3e-05	-0.0001	4e-05	0	2
5440	2e-05	-1e-05	0.00014	6e-05	3e-05	-0.0001	4e-05	0	2
5441	2e-05	-1e-05	0.00014	6e-05	3e-05	-0.0001	4e-05	0	2
5442	2e-05	-1e-05	0.00014	6e-05	3e-05	-0.0001	4e-05	0	2
5443	2e-05	-1e-05	0.00014	6e-05	3e-05	-0.0001	4e-05	0	2
5444	2e-05	-1e-05	0.00014	6e-05	3e-05	-0.0001	4e-05	0	2
5445	2e-05	-1e-05	0.00014	6e-05	3e-05	-0.0001	4e-05	0	2
5446	2e-05	-1e-05	0.00014	6e-05	3e-05	-0.0001	4e-05	0	2
5447	2e-05	-1e-05	0.00014	6e-05	3e-05	-0.0001	4e-05	0	2
5448	2e-05	-1e-05	0.00014	6e-05	3e-05	-0.0001	4e-05	0	2
5449	2e-05	-1e-05	0.00014	6e-05	3e-05	-0.0001	4e-05	0	2
5450	2e-05	-1e-05	0.00014	6e-05	3e-05	-0.0001	4e-05	0	2
5451	2e-05	-1e-05	0.00014	6e-05	3e-05	-0.0001	4e-05	0	2
5452	2e-05	-1e-05	0.00014	6e-05	3e-05	-0.0001	4e-05	0	2
5453	2e-05	-1e-05	0.00014	6e-05	3e-05	-0.0001	4e-05	0	2
5454	-9e-05	-1e-05	3e-05	-3e-05	-2e-05	-9e-05	-4e-05	-2e-05	2
5455	0.00014	0.00014	0.00011	5e-05	0	-4e-05	1e-05	1e-05	2
5456	-0.00011	-6e-05	-4e-05	0.00011	-8e-05	-0.00015	-6e-05	7e-05	2
5457	-0.00011	-6e-05	-4e-05	0.00011	-8e-05	-0.00015	-6e-05	7e-05	2
5458	-0.00011	-6e-05	-4e-05	0.00011	-8e-05	-0.00015	-6e-05	7e-05	2
5459	-0.00011	-6e-05	-4e-05	0.00011	-8e-05	-0.00015	-6e-05	7e-05	2
5460	-0.00011	-6e-05	-4e-05	0.00011	-8e-05	-0.00015	-6e-05	7e-05	2
5461	-0.00011	-6e-05	-4e-05	0.00011	-8e-05	-0.00015	-6e-05	7e-05	2
5462	-0.00011	-6e-05	-4e-05	0.00011	-8e-05	-0.00015	-6e-05	7e-05	2
5463	-0.00011	-6e-05	-4e-05	0.00011	-8e-05	-0.00015	-6e-05	7e-05	2
5464	-0.00011	-6e-05	-4e-05	0.00011	-8e-05	-0.00015	-6e-05	7e-05	2
5465	-0.00011	-6e-05	-4e-05	0.00011	-8e-05	-0.00015	-6e-05	7e-05	2
5466	-0.00011	-6e-05	-4e-05	0.00011	-8e-05	-0.00015	-6e-05	7e-05	2
5467	-0.00011	-6e-05	-4e-05	0.00011	-8e-05	-0.00015	-6e-05	7e-05	2
5468	-2e-05	-0.0001	-0.00016	-0.00022	-2e-05	8e-05	-0.00015	4e-05	2
5469	-2e-05	-0.0001	-0.00016	-0.00022	-2e-05	8e-05	-0.00015	4e-05	2
5470	-2e-05	-0.0001	-0.00016	-0.00022	-2e-05	8e-05	-0.00015	4e-05	2
5471	-2e-05	-0.0001	-0.00016	-0.00022	-2e-05	8e-05	-0.00015	4e-05	2
5472	-2e-05	-0.0001	-0.00016	-0.00022	-2e-05	8e-05	-0.00015	4e-05	2
5473	-2e-05	-0.0001	-0.00016	-0.00022	-2e-05	8e-05	-0.00015	4e-05	2
5474	-2e-05	-0.0001	-0.00016	-0.00022	-2e-05	8e-05	-0.00015	4e-05	2
5475	-2e-05	-0.0001	-0.00016	-0.00022	-2e-05	8e-05	-0.00015	4e-05	2
5476	-2e-05	-0.0001	-0.00016	-0.00022	-2e-05	8e-05	-0.00015	4e-05	2
5477	0.00012	8e-05	3e-05	0	4e-05	2e-05	-1e-05	8e-05	2
5478	0.00012	8e-05	3e-05	0	4e-05	2e-05	-1e-05	8e-05	2
5479	0.00012	8e-05	3e-05	0	4e-05	2e-05	-1e-05	8e-05	2
5480	0.00012	8e-05	3e-05	0	4e-05	2e-05	-1e-05	8e-05	2
5481	0.00012	8e-05	3e-05	0	4e-05	2e-05	-1e-05	8e-05	2
5482	0.00012	8e-05	3e-05	0	4e-05	2e-05	-1e-05	8e-05	2
5483	0.00012	8e-05	3e-05	0	4e-05	2e-05	-1e-05	8e-05	2
5484	0.00012	8e-05	3e-05	0	4e-05	2e-05	-1e-05	8e-05	2
5485	0.00012	8e-05	3e-05	0	4e-05	2e-05	-1e-05	8e-05	2
5486	0.00012	8e-05	3e-05	0	4e-05	2e-05	-1e-05	8e-05	2
5488	0.00012	8e-05	3e-05	0	4e-05	2e-05	-1e-05	8e-05	2
5489	0.00012	8e-05	3e-05	0	4e-05	2e-05	-1e-05	8e-05	2
5490	0.00012	8e-05	3e-05	0	4e-05	2e-05	-1e-05	8e-05	2
5491	0.00012	8e-05	3e-05	0	4e-05	2e-05	-1e-05	8e-05	2
5492	-1e-05	-2e-05	-9e-05	-6e-05	4e-05	-4e-05	-0.00018	-4e-05	2
5493	-1e-05	-2e-05	-9e-05	-6e-05	4e-05	-4e-05	-0.00018	-4e-05	2
5494	-0.00012	1e-05	0.00029	0.00018	2e-05	0.0001	-0.00012	-9e-05	2
5495	-0.00012	1e-05	0.00029	0.00018	2e-05	0.0001	-0.00012	-9e-05	2
5496	-0.00012	1e-05	0.00029	0.00018	2e-05	0.0001	-0.00012	-9e-05	2
5497	-0.00012	1e-05	0.00029	0.00018	2e-05	0.0001	-0.00012	-9e-05	2
5498	-0.00012	1e-05	0.00029	0.00018	2e-05	0.0001	-0.00012	-9e-05	2
5499	-0.00012	1e-05	0.00029	0.00018	2e-05	0.0001	-0.00012	-9e-05	2
5500	-0.00012	1e-05	0.00029	0.00018	2e-05	0.0001	-0.00012	-9e-05	2
5501	-0.00012	1e-05	0.00029	0.00018	2e-05	0.0001	-0.00012	-9e-05	2
5502	-0.00012	1e-05	0.00029	0.00018	2e-05	0.0001	-0.00012	-9e-05	2
5503	-0.00012	1e-05	0.00029	0.00018	2e-05	0.0001	-0.00012	-9e-05	2
5504	-0.00012	1e-05	0.00029	0.00018	2e-05	0.0001	-0.00012	-9e-05	2
5505	-0.00012	1e-05	0.00029	0.00018	2e-05	0.0001	-0.00012	-9e-05	2
5506	-0.00012	1e-05	0.00029	0.00018	2e-05	0.0001	-0.00012	-9e-05	2
5507	-0.00012	1e-05	0.00029	0.00018	2e-05	0.0001	-0.00012	-9e-05	2
5508	-0.00012	1e-05	0.00029	0.00018	2e-05	0.0001	-0.00012	-9e-05	2
5509	-0.00012	1e-05	0.00029	0.00018	2e-05	0.0001	-0.00012	-9e-05	2
5510	-0.00012	1e-05	0.00029	0.00018	2e-05	0.0001	-0.00012	-9e-05	2
5511	-0.00012	1e-05	0.00029	0.00018	2e-05	0.0001	-0.00012	-9e-05	2
5512	-0.00012	1e-05	0.00029	0.00018	2e-05	0.0001	-0.00012	-9e-05	2
5513	-0.00012	1e-05	0.00029	0.00018	2e-05	0.0001	-0.00012	-9e-05	2
5514	-0.0001	2e-05	0.00014	-3e-05	0	-4e-05	4e-05	-4e-05	2
5515	-0.0001	2e-05	0.00014	-3e-05	0	-4e-05	4e-05	-4e-05	2
5516	3e-05	0.0001	0.00017	0.00021	-3e-05	4e-05	8e-05	-6e-05	2
5517	3e-05	0.0001	0.00017	0.00021	-3e-05	4e-05	8e-05	-6e-05	2
5518	3e-05	0.0001	0.00017	0.00021	-3e-05	4e-05	8e-05	-6e-05	2
5519	3e-05	0.0001	0.00017	0.00021	-3e-05	4e-05	8e-05	-6e-05	2
5520	3e-05	0.0001	0.00017	0.00021	-3e-05	4e-05	8e-05	-6e-05	2
5521	3e-05	0.0001	0.00017	0.00021	-3e-05	4e-05	8e-05	-6e-05	2
5522	3e-05	0.0001	0.00017	0.00021	-3e-05	4e-05	8e-05	-6e-05	2
5523	3e-05	0.0001	0.00017	0.00021	-3e-05	4e-05	8e-05	-6e-05	2
5524	3e-05	0.0001	0.00017	0.00021	-3e-05	4e-05	8e-05	-6e-05	2
5525	3e-05	0.0001	0.00017	0.00021	-3e-05	4e-05	8e-05	-6e-05	2
5526	3e-05	0.0001	0.00017	0.00021	-3e-05	4e-05	8e-05	-6e-05	2
5527	3e-05	0.0001	0.00017	0.00021	-3e-05	4e-05	8e-05	-6e-05	2
5528	-2e-05	-5e-05	-0.00012	-0.0003	-0.00011	-0.00021	-6e-05	0	2
5529	-2e-05	-5e-05	-0.00012	-0.0003	-0.00011	-0.00021	-6e-05	0	2
5530	-2e-05	-5e-05	-0.00012	-0.0003	-0.00011	-0.00021	-6e-05	0	2
5531	-2e-05	-5e-05	-0.00012	-0.0003	-0.00011	-0.00021	-6e-05	0	2
5532	-2e-05	-5e-05	-0.00012	-0.0003	-0.00011	-0.00021	-6e-05	0	2
5533	-2e-05	-5e-05	-0.00012	-0.0003	-0.00011	-0.00021	-6e-05	0	2
5534	-2e-05	-5e-05	-0.00012	-0.0003	-0.00011	-0.00021	-6e-05	0	2
5535	-2e-05	-5e-05	-0.00012	-0.0003	-0.00011	-0.00021	-6e-05	0	2
5537	-3e-05	4e-05	2e-05	6e-05	-2e-05	-0.00027	-7e-05	-7e-05	2
5539	-3e-05	4e-05	2e-05	6e-05	-2e-05	-0.00027	-7e-05	-7e-05	2
5541	-3e-05	4e-05	2e-05	6e-05	-2e-05	-0.00027	-7e-05	-7e-05	2
5542	-3e-05	4e-05	2e-05	6e-05	-2e-05	-0.00027	-7e-05	-7e-05	2
5543	-3e-05	4e-05	2e-05	6e-05	-2e-05	-0.00027	-7e-05	-7e-05	2
5544	-3e-05	4e-05	2e-05	6e-05	-2e-05	-0.00027	-7e-05	-7e-05	2
5545	-3e-05	4e-05	2e-05	6e-05	-2e-05	-0.00027	-7e-05	-7e-05	2
5546	-3e-05	4e-05	2e-05	6e-05	-2e-05	-0.00027	-7e-05	-7e-05	2
5547	-3e-05	4e-05	2e-05	6e-05	-2e-05	-0.00027	-7e-05	-7e-05	2
5548	-3e-05	4e-05	2e-05	6e-05	-2e-05	-0.00027	-7e-05	-7e-05	2
5549	-3e-05	4e-05	2e-05	6e-05	-2e-05	-0.00027	-7e-05	-7e-05	2
5550	-3e-05	4e-05	2e-05	6e-05	-2e-05	-0.00027	-7e-05	-7e-05	2
5551	-3e-05	4e-05	2e-05	6e-05	-2e-05	-0.00027	-7e-05	-7e-05	2
5552	0.0001	7e-05	0.00021	0.00018	-1e-05	0.00012	-5e-05	-0.00012	2
5553	0.0001	7e-05	0.00021	0.00018	-1e-05	0.00012	-5e-05	-0.00012	2
5554	3e-05	-5e-05	-0.00014	-4e-05	2e-05	-8e-05	9e-05	2e-05	2
5555	3e-05	-5e-05	-0.00014	-4e-05	2e-05	-8e-05	9e-05	2e-05	2
5556	3e-05	-5e-05	-0.00014	-4e-05	2e-05	-8e-05	9e-05	2e-05	2
5557	3e-05	-5e-05	-0.00014	-4e-05	2e-05	-8e-05	9e-05	2e-05	2
5558	3e-05	-5e-05	-0.00014	-4e-05	2e-05	-8e-05	9e-05	2e-05	2
5559	3e-05	-5e-05	-0.00014	-4e-05	2e-05	-8e-05	9e-05	2e-05	2
5560	3e-05	-5e-05	-0.00014	-4e-05	2e-05	-8e-05	9e-05	2e-05	2
5561	3e-05	-5e-05	-0.00014	-4e-05	2e-05	-8e-05	9e-05	2e-05	2
5562	3e-05	-5e-05	-0.00014	-4e-05	2e-05	-8e-05	9e-05	2e-05	2
5563	3e-05	-5e-05	-0.00014	-4e-05	2e-05	-8e-05	9e-05	2e-05	2
5564	3e-05	-5e-05	-0.00014	-4e-05	2e-05	-8e-05	9e-05	2e-05	2
5565	3e-05	-5e-05	-0.00014	-4e-05	2e-05	-8e-05	9e-05	2e-05	2
5566	3e-05	-5e-05	-0.00014	-4e-05	2e-05	-8e-05	9e-05	2e-05	2
5567	3e-05	-5e-05	-0.00014	-4e-05	2e-05	-8e-05	9e-05	2e-05	2
5568	3e-05	-5e-05	-0.00014	-4e-05	2e-05	-8e-05	9e-05	2e-05	2
5569	3e-05	-5e-05	-0.00014	-4e-05	2e-05	-8e-05	9e-05	2e-05	2
5570	3e-05	-5e-05	-0.00014	-4e-05	2e-05	-8e-05	9e-05	2e-05	2
5571	3e-05	-5e-05	-0.00014	-4e-05	2e-05	-8e-05	9e-05	2e-05	2
5572	3e-05	-5e-05	-0.00014	-4e-05	2e-05	-8e-05	9e-05	2e-05	2
5573	3e-05	-5e-05	-0.00014	-4e-05	2e-05	-8e-05	9e-05	2e-05	2
5574	-7e-05	4e-05	0.00013	2e-05	2e-05	0.00022	1e-05	4e-05	2
5575	0	-1e-05	5e-05	7e-05	-4e-05	-0.00032	5e-05	-0.00011	2
5576	6e-05	-5e-05	-0.00023	-5e-05	-3e-05	-9e-05	-4e-05	-7e-05	2
5577	6e-05	-5e-05	-0.00023	-5e-05	-3e-05	-9e-05	-4e-05	-7e-05	2
5578	6e-05	-5e-05	-0.00023	-5e-05	-3e-05	-9e-05	-4e-05	-7e-05	2
5579	6e-05	-5e-05	-0.00023	-5e-05	-3e-05	-9e-05	-4e-05	-7e-05	2
5580	6e-05	-5e-05	-0.00023	-5e-05	-3e-05	-9e-05	-4e-05	-7e-05	2
5581	6e-05	-5e-05	-0.00023	-5e-05	-3e-05	-9e-05	-4e-05	-7e-05	2
5582	6e-05	-5e-05	-0.00023	-5e-05	-3e-05	-9e-05	-4e-05	-7e-05	2
5583	6e-05	-5e-05	-0.00023	-5e-05	-3e-05	-9e-05	-4e-05	-7e-05	2
5584	6e-05	-5e-05	-0.00023	-5e-05	-3e-05	-9e-05	-4e-05	-7e-05	2
5585	6e-05	-5e-05	-0.00023	-5e-05	-3e-05	-9e-05	-4e-05	-7e-05	2
5586	6e-05	-5e-05	-0.00023	-5e-05	-3e-05	-9e-05	-4e-05	-7e-05	2
5590	-0.0001	-2e-05	-0.00014	-0.00011	-0.0001	7e-05	0	6e-05	2
5591	-0.0001	-2e-05	-0.00014	-0.00011	-0.0001	7e-05	0	6e-05	2
5592	-0.0001	-2e-05	-0.00014	-0.00011	-0.0001	7e-05	0	6e-05	2
5593	-0.0001	-2e-05	-0.00014	-0.00011	-0.0001	7e-05	0	6e-05	2
5594	-0.0001	-2e-05	-0.00014	-0.00011	-0.0001	7e-05	0	6e-05	2
5595	-0.0001	-2e-05	-0.00014	-0.00011	-0.0001	7e-05	0	6e-05	2
5596	-0.0001	-2e-05	-0.00014	-0.00011	-0.0001	7e-05	0	6e-05	2
5597	0.00016	2e-05	7e-05	-0.00014	-9e-05	-7e-05	0.00019	-0.0001	2
5598	0.00016	2e-05	7e-05	-0.00014	-9e-05	-7e-05	0.00019	-0.0001	2
5599	0.00016	2e-05	7e-05	-0.00014	-9e-05	-7e-05	0.00019	-0.0001	2
5600	0.00016	2e-05	7e-05	-0.00014	-9e-05	-7e-05	0.00019	-0.0001	2
5601	0.00016	2e-05	7e-05	-0.00014	-9e-05	-7e-05	0.00019	-0.0001	2
5602	0.00016	2e-05	7e-05	-0.00014	-9e-05	-7e-05	0.00019	-0.0001	2
5603	0.00016	2e-05	7e-05	-0.00014	-9e-05	-7e-05	0.00019	-0.0001	2
5604	0.00016	2e-05	7e-05	-0.00014	-9e-05	-7e-05	0.00019	-0.0001	2
5605	0.00016	2e-05	7e-05	-0.00014	-9e-05	-7e-05	0.00019	-0.0001	2
5606	0.00016	2e-05	7e-05	-0.00014	-9e-05	-7e-05	0.00019	-0.0001	2
5607	0.00016	2e-05	7e-05	-0.00014	-9e-05	-7e-05	0.00019	-0.0001	2
5608	0.00016	2e-05	7e-05	-0.00014	-9e-05	-7e-05	0.00019	-0.0001	2
5609	0.00016	2e-05	7e-05	-0.00014	-9e-05	-7e-05	0.00019	-0.0001	2
5610	0.00016	2e-05	7e-05	-0.00014	-9e-05	-7e-05	0.00019	-0.0001	2
5611	0.00016	2e-05	7e-05	-0.00014	-9e-05	-7e-05	0.00019	-0.0001	2
5612	-2e-05	7e-05	0.00016	0.00028	-1e-05	-9e-05	5e-05	-5e-05	2
5613	-2e-05	7e-05	0.00016	0.00028	-1e-05	-9e-05	5e-05	-5e-05	2
5614	-1e-05	-6e-05	-9e-05	-0.00019	1e-05	0	-5e-05	0.00011	2
5615	-1e-05	-6e-05	-9e-05	-0.00019	1e-05	0	-5e-05	0.00011	2
5616	-1e-05	-6e-05	-9e-05	-0.00019	1e-05	0	-5e-05	0.00011	2
5617	-1e-05	-6e-05	-9e-05	-0.00019	1e-05	0	-5e-05	0.00011	2
5618	-1e-05	-6e-05	-9e-05	-0.00019	1e-05	0	-5e-05	0.00011	2
5619	-1e-05	-6e-05	-9e-05	-0.00019	1e-05	0	-5e-05	0.00011	2
5620	-1e-05	-6e-05	-9e-05	-0.00019	1e-05	0	-5e-05	0.00011	2
5621	-1e-05	-6e-05	-9e-05	-0.00019	1e-05	0	-5e-05	0.00011	2
5622	-1e-05	-6e-05	-9e-05	-0.00019	1e-05	0	-5e-05	0.00011	2
5623	-1e-05	-6e-05	-9e-05	-0.00019	1e-05	0	-5e-05	0.00011	2
5624	-1e-05	-6e-05	-9e-05	-0.00019	1e-05	0	-5e-05	0.00011	2
5625	-1e-05	-6e-05	-9e-05	-0.00019	1e-05	0	-5e-05	0.00011	2
5626	-1e-05	-6e-05	-9e-05	-0.00019	1e-05	0	-5e-05	0.00011	2
5627	-1e-05	-6e-05	-9e-05	-0.00019	1e-05	0	-5e-05	0.00011	2
5628	-1e-05	-6e-05	-9e-05	-0.00019	1e-05	0	-5e-05	0.00011	2
5629	-1e-05	-6e-05	-9e-05	-0.00019	1e-05	0	-5e-05	0.00011	2
5630	-1e-05	-6e-05	-9e-05	-0.00019	1e-05	0	-5e-05	0.00011	2
5631	-1e-05	-6e-05	-9e-05	-0.00019	1e-05	0	-5e-05	0.00011	2
5632	-1e-05	-6e-05	-9e-05	-0.00019	1e-05	0	-5e-05	0.00011	2
5633	-1e-05	-6e-05	-9e-05	-0.00019	1e-05	0	-5e-05	0.00011	2
5634	-0.00012	-6e-05	-0.00011	-0.00015	1e-05	0.00017	7e-05	-5e-05	2
5635	-0.00012	-6e-05	-0.00011	-0.00015	1e-05	0.00017	7e-05	-5e-05	2
5636	-0.00012	-6e-05	-0.00011	-0.00015	1e-05	0.00017	7e-05	-5e-05	2
5639	-5e-05	5e-05	-5e-05	-9e-05	-0.00011	-0.00025	-8e-05	1e-05	2
5640	-5e-05	5e-05	-5e-05	-9e-05	-0.00011	-0.00025	-8e-05	1e-05	2
5641	-5e-05	5e-05	-5e-05	-9e-05	-0.00011	-0.00025	-8e-05	1e-05	2
5642	-5e-05	5e-05	-5e-05	-9e-05	-0.00011	-0.00025	-8e-05	1e-05	2
5643	-5e-05	5e-05	-5e-05	-9e-05	-0.00011	-0.00025	-8e-05	1e-05	2
5644	-5e-05	5e-05	-5e-05	-9e-05	-0.00011	-0.00025	-8e-05	1e-05	2
5645	-5e-05	5e-05	-5e-05	-9e-05	-0.00011	-0.00025	-8e-05	1e-05	2
5646	-5e-05	5e-05	-5e-05	-9e-05	-0.00011	-0.00025	-8e-05	1e-05	2
5647	-5e-05	5e-05	-5e-05	-9e-05	-0.00011	-0.00025	-8e-05	1e-05	2
5648	0	-1e-05	2e-05	0.0001	4e-05	-0.00017	-5e-05	-9e-05	2
5649	0	-1e-05	2e-05	0.0001	4e-05	-0.00017	-5e-05	-9e-05	2
5650	0	-1e-05	2e-05	0.0001	4e-05	-0.00017	-5e-05	-9e-05	2
5651	0	-1e-05	2e-05	0.0001	4e-05	-0.00017	-5e-05	-9e-05	2
5652	0	-1e-05	2e-05	0.0001	4e-05	-0.00017	-5e-05	-9e-05	2
5653	0	-1e-05	2e-05	0.0001	4e-05	-0.00017	-5e-05	-9e-05	2
5654	0	-1e-05	2e-05	0.0001	4e-05	-0.00017	-5e-05	-9e-05	2
5655	0	-1e-05	2e-05	0.0001	4e-05	-0.00017	-5e-05	-9e-05	2
5656	0	-1e-05	2e-05	0.0001	4e-05	-0.00017	-5e-05	-9e-05	2
5657	-1e-05	3e-05	5e-05	2e-05	0	0.00021	-3e-05	1e-05	2
5658	-1e-05	3e-05	5e-05	2e-05	0	0.00021	-3e-05	1e-05	2
5659	-1e-05	3e-05	5e-05	2e-05	0	0.00021	-3e-05	1e-05	2
5660	-1e-05	3e-05	5e-05	2e-05	0	0.00021	-3e-05	1e-05	2
5661	-1e-05	3e-05	5e-05	2e-05	0	0.00021	-3e-05	1e-05	2
5662	-1e-05	3e-05	5e-05	2e-05	0	0.00021	-3e-05	1e-05	2
5663	-1e-05	3e-05	5e-05	2e-05	0	0.00021	-3e-05	1e-05	2
5664	-1e-05	3e-05	5e-05	2e-05	0	0.00021	-3e-05	1e-05	2
5665	-1e-05	3e-05	5e-05	2e-05	0	0.00021	-3e-05	1e-05	2
5666	-1e-05	3e-05	5e-05	2e-05	0	0.00021	-3e-05	1e-05	2
5667	-1e-05	3e-05	5e-05	2e-05	0	0.00021	-3e-05	1e-05	2
5668	-1e-05	3e-05	5e-05	2e-05	0	0.00021	-3e-05	1e-05	2
5669	-1e-05	3e-05	5e-05	2e-05	0	0.00021	-3e-05	1e-05	2
5670	-1e-05	3e-05	5e-05	2e-05	0	0.00021	-3e-05	1e-05	2
5671	-1e-05	3e-05	5e-05	2e-05	0	0.00021	-3e-05	1e-05	2
5672	-3e-05	-5e-05	-0.00016	-5e-05	0	-0.00012	5e-05	-2e-05	2
5673	-6e-05	-5e-05	-7e-05	-0.00011	2e-05	4e-05	1e-05	-0.0001	2
5674	-6e-05	-5e-05	-7e-05	-0.00011	2e-05	4e-05	1e-05	-0.0001	2
5675	-6e-05	-5e-05	-7e-05	-0.00011	2e-05	4e-05	1e-05	-0.0001	2
5676	-6e-05	-5e-05	-7e-05	-0.00011	2e-05	4e-05	1e-05	-0.0001	2
5677	-6e-05	-5e-05	-7e-05	-0.00011	2e-05	4e-05	1e-05	-0.0001	2
5678	-6e-05	-5e-05	-7e-05	-0.00011	2e-05	4e-05	1e-05	-0.0001	2
5679	-6e-05	-5e-05	-7e-05	-0.00011	2e-05	4e-05	1e-05	-0.0001	2
5680	-6e-05	-5e-05	-7e-05	-0.00011	2e-05	4e-05	1e-05	-0.0001	2
5681	-6e-05	-5e-05	-7e-05	-0.00011	2e-05	4e-05	1e-05	-0.0001	2
5682	-6e-05	-5e-05	-7e-05	-0.00011	2e-05	4e-05	1e-05	-0.0001	2
5683	-6e-05	-5e-05	-7e-05	-0.00011	2e-05	4e-05	1e-05	-0.0001	2
5684	-6e-05	-5e-05	-7e-05	-0.00011	2e-05	4e-05	1e-05	-0.0001	2
5685	-6e-05	-5e-05	-7e-05	-0.00011	2e-05	4e-05	1e-05	-0.0001	2
5686	-6e-05	-5e-05	-7e-05	-0.00011	2e-05	4e-05	1e-05	-0.0001	2
5688	-6e-05	-5e-05	-7e-05	-0.00011	2e-05	4e-05	1e-05	-0.0001	2
5689	-6e-05	-5e-05	-7e-05	-0.00011	2e-05	4e-05	1e-05	-0.0001	2
5690	-6e-05	-5e-05	-7e-05	-0.00011	2e-05	4e-05	1e-05	-0.0001	2
5691	-6e-05	-5e-05	-7e-05	-0.00011	2e-05	4e-05	1e-05	-0.0001	2
5692	-6e-05	-5e-05	-7e-05	-0.00011	2e-05	4e-05	1e-05	-0.0001	2
5693	-6e-05	-5e-05	-7e-05	-0.00011	2e-05	4e-05	1e-05	-0.0001	2
5694	8e-05	-5e-05	3e-05	3e-05	-6e-05	0.00011	-0.0001	-1e-05	2
5695	8e-05	-5e-05	3e-05	3e-05	-6e-05	0.00011	-0.0001	-1e-05	2
5696	-6e-05	-6e-05	-0.00016	-0.00011	4e-05	0.00015	0.00011	4e-05	2
5697	-6e-05	-6e-05	-0.00016	-0.00011	4e-05	0.00015	0.00011	4e-05	2
5698	-6e-05	-6e-05	-0.00016	-0.00011	4e-05	0.00015	0.00011	4e-05	2
5699	-6e-05	-6e-05	-0.00016	-0.00011	4e-05	0.00015	0.00011	4e-05	2
5700	-6e-05	-6e-05	-0.00016	-0.00011	4e-05	0.00015	0.00011	4e-05	2
5701	-6e-05	-6e-05	-0.00016	-0.00011	4e-05	0.00015	0.00011	4e-05	2
5702	-6e-05	-6e-05	-0.00016	-0.00011	4e-05	0.00015	0.00011	4e-05	2
5703	-6e-05	-6e-05	-0.00016	-0.00011	4e-05	0.00015	0.00011	4e-05	2
5704	-6e-05	-6e-05	-0.00016	-0.00011	4e-05	0.00015	0.00011	4e-05	2
5705	-6e-05	-6e-05	-0.00016	-0.00011	4e-05	0.00015	0.00011	4e-05	2
5706	-6e-05	-6e-05	-0.00016	-0.00011	4e-05	0.00015	0.00011	4e-05	2
5707	-6e-05	-6e-05	-0.00016	-0.00011	4e-05	0.00015	0.00011	4e-05	2
5708	-6e-05	-6e-05	-0.00016	-0.00011	4e-05	0.00015	0.00011	4e-05	2
5709	-6e-05	-6e-05	-0.00016	-0.00011	4e-05	0.00015	0.00011	4e-05	2
5710	-6e-05	-6e-05	-0.00016	-0.00011	4e-05	0.00015	0.00011	4e-05	2
5711	-6e-05	-6e-05	-0.00016	-0.00011	4e-05	0.00015	0.00011	4e-05	2
5712	-6e-05	-6e-05	-0.00016	-0.00011	4e-05	0.00015	0.00011	4e-05	2
5713	-6e-05	-6e-05	-0.00016	-0.00011	4e-05	0.00015	0.00011	4e-05	2
5714	-6e-05	-6e-05	-0.00016	-0.00011	4e-05	0.00015	0.00011	4e-05	2
5715	-6e-05	-6e-05	-0.00016	-0.00011	4e-05	0.00015	0.00011	4e-05	2
5716	-6e-05	-6e-05	-0.00016	-0.00011	4e-05	0.00015	0.00011	4e-05	2
5717	6e-05	4e-05	0	7e-05	2e-05	0.00016	-5e-05	-8e-05	2
5718	-9e-05	-5e-05	5e-05	9e-05	-5e-05	-2e-05	-0.00013	-0.00011	2
5719	-9e-05	-5e-05	5e-05	9e-05	-5e-05	-2e-05	-0.00013	-0.00011	2
5720	-9e-05	-5e-05	5e-05	9e-05	-5e-05	-2e-05	-0.00013	-0.00011	2
5721	-9e-05	-5e-05	5e-05	9e-05	-5e-05	-2e-05	-0.00013	-0.00011	2
5722	-9e-05	-5e-05	5e-05	9e-05	-5e-05	-2e-05	-0.00013	-0.00011	2
5723	-9e-05	-5e-05	5e-05	9e-05	-5e-05	-2e-05	-0.00013	-0.00011	2
5724	-9e-05	-5e-05	5e-05	9e-05	-5e-05	-2e-05	-0.00013	-0.00011	2
5725	-9e-05	-5e-05	5e-05	9e-05	-5e-05	-2e-05	-0.00013	-0.00011	2
5726	-9e-05	-5e-05	5e-05	9e-05	-5e-05	-2e-05	-0.00013	-0.00011	2
5727	-9e-05	-5e-05	5e-05	9e-05	-5e-05	-2e-05	-0.00013	-0.00011	2
5728	-9e-05	-5e-05	5e-05	9e-05	-5e-05	-2e-05	-0.00013	-0.00011	2
5729	-9e-05	-5e-05	5e-05	9e-05	-5e-05	-2e-05	-0.00013	-0.00011	2
5730	-9e-05	-5e-05	5e-05	9e-05	-5e-05	-2e-05	-0.00013	-0.00011	2
5731	-4e-05	-8e-05	-0.00023	-0.00013	-1e-05	3e-05	4e-05	7e-05	2
5732	-4e-05	-8e-05	-0.00023	-0.00013	-1e-05	3e-05	4e-05	7e-05	2
5733	-4e-05	-8e-05	-0.00023	-0.00013	-1e-05	3e-05	4e-05	7e-05	2
5734	-4e-05	-8e-05	-0.00023	-0.00013	-1e-05	3e-05	4e-05	7e-05	2
5735	-4e-05	-8e-05	-0.00023	-0.00013	-1e-05	3e-05	4e-05	7e-05	2
5736	-4e-05	-8e-05	-0.00023	-0.00013	-1e-05	3e-05	4e-05	7e-05	2
5739	5e-05	-0.00013	-0.00061	-0.00015	7e-05	-4e-05	2e-05	-2e-05	2
5740	5e-05	-0.00013	-0.00061	-0.00015	7e-05	-4e-05	2e-05	-2e-05	2
5741	5e-05	-0.00013	-0.00061	-0.00015	7e-05	-4e-05	2e-05	-2e-05	2
5742	5e-05	-0.00013	-0.00061	-0.00015	7e-05	-4e-05	2e-05	-2e-05	2
5743	5e-05	-0.00013	-0.00061	-0.00015	7e-05	-4e-05	2e-05	-2e-05	2
5744	5e-05	-0.00013	-0.00061	-0.00015	7e-05	-4e-05	2e-05	-2e-05	2
5745	5e-05	-0.00013	-0.00061	-0.00015	7e-05	-4e-05	2e-05	-2e-05	2
5746	5e-05	-0.00013	-0.00061	-0.00015	7e-05	-4e-05	2e-05	-2e-05	2
5747	5e-05	-0.00013	-0.00061	-0.00015	7e-05	-4e-05	2e-05	-2e-05	2
5748	5e-05	-0.00013	-0.00061	-0.00015	7e-05	-4e-05	2e-05	-2e-05	2
5749	5e-05	-0.00013	-0.00061	-0.00015	7e-05	-4e-05	2e-05	-2e-05	2
5750	5e-05	-0.00013	-0.00061	-0.00015	7e-05	-4e-05	2e-05	-2e-05	2
5751	5e-05	-0.00013	-0.00061	-0.00015	7e-05	-4e-05	2e-05	-2e-05	2
5752	5e-05	-0.00013	-0.00061	-0.00015	7e-05	-4e-05	2e-05	-2e-05	2
5753	5e-05	-0.00013	-0.00061	-0.00015	7e-05	-4e-05	2e-05	-2e-05	2
5754	3e-05	3e-05	6e-05	0	2e-05	-0.00021	-7e-05	6e-05	2
5755	3e-05	3e-05	6e-05	0	2e-05	-0.00021	-7e-05	6e-05	2
5756	-4e-05	1e-05	7e-05	2e-05	-3e-05	-0.00012	-2e-05	-1e-05	2
5757	-4e-05	1e-05	7e-05	2e-05	-3e-05	-0.00012	-2e-05	-1e-05	2
5758	-4e-05	1e-05	7e-05	2e-05	-3e-05	-0.00012	-2e-05	-1e-05	2
5759	-4e-05	1e-05	7e-05	2e-05	-3e-05	-0.00012	-2e-05	-1e-05	2
5760	-4e-05	1e-05	7e-05	2e-05	-3e-05	-0.00012	-2e-05	-1e-05	2
5761	-4e-05	1e-05	7e-05	2e-05	-3e-05	-0.00012	-2e-05	-1e-05	2
5762	-4e-05	1e-05	7e-05	2e-05	-3e-05	-0.00012	-2e-05	-1e-05	2
5763	-4e-05	1e-05	7e-05	2e-05	-3e-05	-0.00012	-2e-05	-1e-05	2
5764	-4e-05	1e-05	7e-05	2e-05	-3e-05	-0.00012	-2e-05	-1e-05	2
5765	-4e-05	1e-05	7e-05	2e-05	-3e-05	-0.00012	-2e-05	-1e-05	2
5766	-4e-05	1e-05	7e-05	2e-05	-3e-05	-0.00012	-2e-05	-1e-05	2
5767	-4e-05	1e-05	7e-05	2e-05	-3e-05	-0.00012	-2e-05	-1e-05	2
5768	-4e-05	1e-05	7e-05	2e-05	-3e-05	-0.00012	-2e-05	-1e-05	2
5769	-4e-05	1e-05	7e-05	2e-05	-3e-05	-0.00012	-2e-05	-1e-05	2
5770	-4e-05	1e-05	7e-05	2e-05	-3e-05	-0.00012	-2e-05	-1e-05	2
5771	-4e-05	1e-05	7e-05	2e-05	-3e-05	-0.00012	-2e-05	-1e-05	2
5772	-4e-05	1e-05	7e-05	2e-05	-3e-05	-0.00012	-2e-05	-1e-05	2
5773	-4e-05	1e-05	7e-05	2e-05	-3e-05	-0.00012	-2e-05	-1e-05	2
5774	-4e-05	1e-05	7e-05	2e-05	-3e-05	-0.00012	-2e-05	-1e-05	2
5775	-4e-05	1e-05	7e-05	2e-05	-3e-05	-0.00012	-2e-05	-1e-05	2
5776	-4e-05	1e-05	7e-05	2e-05	-3e-05	-0.00012	-2e-05	-1e-05	2
5777	0	0	5e-05	8e-05	5e-05	9e-05	4e-05	6e-05	2
5778	-6e-05	1e-05	1e-05	-8e-05	0	-0.00012	1e-05	-0.0001	2
5779	0	-7e-05	-0.00018	-8e-05	8e-05	0.00024	-6e-05	-8e-05	2
5780	0	-7e-05	-0.00018	-8e-05	8e-05	0.00024	-6e-05	-8e-05	2
5781	0	-7e-05	-0.00018	-8e-05	8e-05	0.00024	-6e-05	-8e-05	2
5782	0	-7e-05	-0.00018	-8e-05	8e-05	0.00024	-6e-05	-8e-05	2
5783	0	-7e-05	-0.00018	-8e-05	8e-05	0.00024	-6e-05	-8e-05	2
5784	0	-7e-05	-0.00018	-8e-05	8e-05	0.00024	-6e-05	-8e-05	2
5785	0	-7e-05	-0.00018	-8e-05	8e-05	0.00024	-6e-05	-8e-05	2
5786	0	-7e-05	-0.00018	-8e-05	8e-05	0.00024	-6e-05	-8e-05	2
5789	0	-7e-05	-0.00018	-8e-05	8e-05	0.00024	-6e-05	-8e-05	2
5790	0	-7e-05	-0.00018	-8e-05	8e-05	0.00024	-6e-05	-8e-05	2
5791	0	-7e-05	-0.00018	-8e-05	8e-05	0.00024	-6e-05	-8e-05	2
5792	0	-7e-05	-0.00018	-8e-05	8e-05	0.00024	-6e-05	-8e-05	2
5793	0	-7e-05	-0.00018	-8e-05	8e-05	0.00024	-6e-05	-8e-05	2
5794	0	-7e-05	-0.00018	-8e-05	8e-05	0.00024	-6e-05	-8e-05	2
5795	0	-7e-05	-0.00018	-8e-05	8e-05	0.00024	-6e-05	-8e-05	2
5796	0	-7e-05	-0.00018	-8e-05	8e-05	0.00024	-6e-05	-8e-05	2
5797	0	-7e-05	-0.00018	-8e-05	8e-05	0.00024	-6e-05	-8e-05	2
5798	0	-7e-05	-0.00018	-8e-05	8e-05	0.00024	-6e-05	-8e-05	2
5799	-0.00011	-2e-05	0.00017	0.0001	1e-05	4e-05	4e-05	-8e-05	2
5800	-0.00011	-2e-05	0.00017	0.0001	1e-05	4e-05	4e-05	-8e-05	2
5801	0	7e-05	0.00025	0.00014	2e-05	0.00011	-6e-05	-3e-05	2
5802	0	7e-05	0.00025	0.00014	2e-05	0.00011	-6e-05	-3e-05	2
5803	0	7e-05	0.00025	0.00014	2e-05	0.00011	-6e-05	-3e-05	2
5804	0	7e-05	0.00025	0.00014	2e-05	0.00011	-6e-05	-3e-05	2
5805	0	7e-05	0.00025	0.00014	2e-05	0.00011	-6e-05	-3e-05	2
5806	0	7e-05	0.00025	0.00014	2e-05	0.00011	-6e-05	-3e-05	2
5807	0	7e-05	0.00025	0.00014	2e-05	0.00011	-6e-05	-3e-05	2
5808	0	7e-05	0.00025	0.00014	2e-05	0.00011	-6e-05	-3e-05	2
5809	0	7e-05	0.00025	0.00014	2e-05	0.00011	-6e-05	-3e-05	2
5810	0	7e-05	0.00025	0.00014	2e-05	0.00011	-6e-05	-3e-05	2
5811	0	7e-05	0.00025	0.00014	2e-05	0.00011	-6e-05	-3e-05	2
5812	0	7e-05	0.00025	0.00014	2e-05	0.00011	-6e-05	-3e-05	2
5813	0	7e-05	0.00025	0.00014	2e-05	0.00011	-6e-05	-3e-05	2
5814	-3e-05	-2e-05	-0.00033	-0.00037	0	0	8e-05	3e-05	2
5815	-3e-05	-2e-05	-0.00033	-0.00037	0	0	8e-05	3e-05	2
5816	-5e-05	4e-05	7e-05	5e-05	-5e-05	-0.00022	-7e-05	-3e-05	2
5817	-5e-05	4e-05	7e-05	5e-05	-5e-05	-0.00022	-7e-05	-3e-05	2
5818	-5e-05	4e-05	7e-05	5e-05	-5e-05	-0.00022	-7e-05	-3e-05	2
5819	-5e-05	4e-05	7e-05	5e-05	-5e-05	-0.00022	-7e-05	-3e-05	2
5820	-5e-05	4e-05	7e-05	5e-05	-5e-05	-0.00022	-7e-05	-3e-05	2
5821	-5e-05	4e-05	7e-05	5e-05	-5e-05	-0.00022	-7e-05	-3e-05	2
5822	-5e-05	4e-05	7e-05	5e-05	-5e-05	-0.00022	-7e-05	-3e-05	2
5823	-5e-05	4e-05	7e-05	5e-05	-5e-05	-0.00022	-7e-05	-3e-05	2
5824	-5e-05	4e-05	7e-05	5e-05	-5e-05	-0.00022	-7e-05	-3e-05	2
5825	-5e-05	4e-05	7e-05	5e-05	-5e-05	-0.00022	-7e-05	-3e-05	2
5826	-5e-05	4e-05	7e-05	5e-05	-5e-05	-0.00022	-7e-05	-3e-05	2
5827	-5e-05	4e-05	7e-05	5e-05	-5e-05	-0.00022	-7e-05	-3e-05	2
5828	-5e-05	4e-05	7e-05	5e-05	-5e-05	-0.00022	-7e-05	-3e-05	2
5829	-5e-05	4e-05	7e-05	5e-05	-5e-05	-0.00022	-7e-05	-3e-05	2
5830	-5e-05	4e-05	7e-05	5e-05	-5e-05	-0.00022	-7e-05	-3e-05	2
5831	-5e-05	4e-05	7e-05	5e-05	-5e-05	-0.00022	-7e-05	-3e-05	2
5832	-5e-05	4e-05	7e-05	5e-05	-5e-05	-0.00022	-7e-05	-3e-05	2
5833	-5e-05	4e-05	7e-05	5e-05	-5e-05	-0.00022	-7e-05	-3e-05	2
5834	-5e-05	4e-05	7e-05	5e-05	-5e-05	-0.00022	-7e-05	-3e-05	2
5835	-5e-05	4e-05	7e-05	5e-05	-5e-05	-0.00022	-7e-05	-3e-05	2
5836	-5e-05	4e-05	7e-05	5e-05	-5e-05	-0.00022	-7e-05	-3e-05	2
5839	0	0	0	0.00017	1e-05	1e-05	0	1e-05	2
5840	0	-3e-05	0.00013	-7e-05	-4e-05	-2e-05	-6e-05	7e-05	2
5841	0	-3e-05	0.00013	-7e-05	-4e-05	-2e-05	-6e-05	7e-05	2
5842	0	-3e-05	0.00013	-7e-05	-4e-05	-2e-05	-6e-05	7e-05	2
5843	0	-3e-05	0.00013	-7e-05	-4e-05	-2e-05	-6e-05	7e-05	2
5844	0	-3e-05	0.00013	-7e-05	-4e-05	-2e-05	-6e-05	7e-05	2
5845	0	-3e-05	0.00013	-7e-05	-4e-05	-2e-05	-6e-05	7e-05	2
5846	0	-3e-05	0.00013	-7e-05	-4e-05	-2e-05	-6e-05	7e-05	2
5847	0	-3e-05	0.00013	-7e-05	-4e-05	-2e-05	-6e-05	7e-05	2
5848	0	-3e-05	0.00013	-7e-05	-4e-05	-2e-05	-6e-05	7e-05	2
5849	0	-3e-05	0.00013	-7e-05	-4e-05	-2e-05	-6e-05	7e-05	2
5850	0	-3e-05	0.00013	-7e-05	-4e-05	-2e-05	-6e-05	7e-05	2
5851	-6e-05	3e-05	0.00016	0.00012	3e-05	9e-05	0	-1e-05	2
5852	-6e-05	3e-05	0.00016	0.00012	3e-05	9e-05	0	-1e-05	2
5853	-6e-05	3e-05	0.00016	0.00012	3e-05	9e-05	0	-1e-05	2
5854	-6e-05	3e-05	0.00016	0.00012	3e-05	9e-05	0	-1e-05	2
5855	-6e-05	3e-05	0.00016	0.00012	3e-05	9e-05	0	-1e-05	2
5856	-6e-05	3e-05	0.00016	0.00012	3e-05	9e-05	0	-1e-05	2
5857	-6e-05	3e-05	0.00016	0.00012	3e-05	9e-05	0	-1e-05	2
5858	2e-05	4e-05	0.00015	8e-05	2e-05	5e-05	9e-05	8e-05	2
5859	2e-05	4e-05	0.00015	8e-05	2e-05	5e-05	9e-05	8e-05	2
5860	2e-05	4e-05	0.00015	8e-05	2e-05	5e-05	9e-05	8e-05	2
5861	2e-05	4e-05	0.00015	8e-05	2e-05	5e-05	9e-05	8e-05	2
5862	2e-05	4e-05	0.00015	8e-05	2e-05	5e-05	9e-05	8e-05	2
5863	2e-05	4e-05	0.00015	8e-05	2e-05	5e-05	9e-05	8e-05	2
5864	2e-05	4e-05	0.00015	8e-05	2e-05	5e-05	9e-05	8e-05	2
5865	2e-05	4e-05	0.00015	8e-05	2e-05	5e-05	9e-05	8e-05	2
5866	2e-05	4e-05	0.00015	8e-05	2e-05	5e-05	9e-05	8e-05	2
5867	2e-05	4e-05	0.00015	8e-05	2e-05	5e-05	9e-05	8e-05	2
5868	2e-05	4e-05	0.00015	8e-05	2e-05	5e-05	9e-05	8e-05	2
5869	2e-05	4e-05	0.00015	8e-05	2e-05	5e-05	9e-05	8e-05	2
5870	2e-05	4e-05	0.00015	8e-05	2e-05	5e-05	9e-05	8e-05	2
5871	2e-05	4e-05	0.00015	8e-05	2e-05	5e-05	9e-05	8e-05	2
5872	2e-05	4e-05	0.00015	8e-05	2e-05	5e-05	9e-05	8e-05	2
5873	2e-05	4e-05	0.00015	8e-05	2e-05	5e-05	9e-05	8e-05	2
5874	8e-05	3e-05	6e-05	-5e-05	-2e-05	-9e-05	-4e-05	5e-05	2
5875	8e-05	3e-05	6e-05	-5e-05	-2e-05	-9e-05	-4e-05	5e-05	2
5876	0.00011	-1e-05	-8e-05	-4e-05	-3e-05	-6e-05	0	-1e-05	2
5877	0.00011	-1e-05	-8e-05	-4e-05	-3e-05	-6e-05	0	-1e-05	2
5878	0.00011	-1e-05	-8e-05	-4e-05	-3e-05	-6e-05	0	-1e-05	2
5879	0.00011	-1e-05	-8e-05	-4e-05	-3e-05	-6e-05	0	-1e-05	2
5880	0.00011	-1e-05	-8e-05	-4e-05	-3e-05	-6e-05	0	-1e-05	2
5881	0.00011	-1e-05	-8e-05	-4e-05	-3e-05	-6e-05	0	-1e-05	2
5882	0.00011	-1e-05	-8e-05	-4e-05	-3e-05	-6e-05	0	-1e-05	2
5883	0.00011	-1e-05	-8e-05	-4e-05	-3e-05	-6e-05	0	-1e-05	2
5884	0.00011	-1e-05	-8e-05	-4e-05	-3e-05	-6e-05	0	-1e-05	2
5885	0.00011	-1e-05	-8e-05	-4e-05	-3e-05	-6e-05	0	-1e-05	2
5886	0.00011	-1e-05	-8e-05	-4e-05	-3e-05	-6e-05	0	-1e-05	2
5889	0.00011	-1e-05	-8e-05	-4e-05	-3e-05	-6e-05	0	-1e-05	2
5890	0.00011	-1e-05	-8e-05	-4e-05	-3e-05	-6e-05	0	-1e-05	2
5891	0.00011	-1e-05	-8e-05	-4e-05	-3e-05	-6e-05	0	-1e-05	2
5892	0.00011	-1e-05	-8e-05	-4e-05	-3e-05	-6e-05	0	-1e-05	2
5893	0.00011	-1e-05	-8e-05	-4e-05	-3e-05	-6e-05	0	-1e-05	2
5894	0.00011	-1e-05	-8e-05	-4e-05	-3e-05	-6e-05	0	-1e-05	2
5895	0.00011	-1e-05	-8e-05	-4e-05	-3e-05	-6e-05	0	-1e-05	2
5896	0.00011	-1e-05	-8e-05	-4e-05	-3e-05	-6e-05	0	-1e-05	2
5897	-7e-05	-0.0001	-0.0001	-1e-05	-2e-05	5e-05	2e-05	-3e-05	2
5898	-4e-05	1e-05	9e-05	6e-05	-4e-05	-0.0001	1e-05	-5e-05	2
5899	-4e-05	1e-05	0.00018	5e-05	-2e-05	9e-05	-7e-05	2e-05	2
5900	-4e-05	1e-05	0.00018	5e-05	-2e-05	9e-05	-7e-05	2e-05	2
5901	-4e-05	1e-05	0.00018	5e-05	-2e-05	9e-05	-7e-05	2e-05	2
5902	-4e-05	1e-05	0.00018	5e-05	-2e-05	9e-05	-7e-05	2e-05	2
5903	-4e-05	1e-05	0.00018	5e-05	-2e-05	9e-05	-7e-05	2e-05	2
5904	-4e-05	1e-05	0.00018	5e-05	-2e-05	9e-05	-7e-05	2e-05	2
5905	-4e-05	1e-05	0.00018	5e-05	-2e-05	9e-05	-7e-05	2e-05	2
5906	-4e-05	1e-05	0.00018	5e-05	-2e-05	9e-05	-7e-05	2e-05	2
5907	-4e-05	1e-05	0.00018	5e-05	-2e-05	9e-05	-7e-05	2e-05	2
5908	-4e-05	1e-05	0.00018	5e-05	-2e-05	9e-05	-7e-05	2e-05	2
5909	-4e-05	1e-05	0.00018	5e-05	-2e-05	9e-05	-7e-05	2e-05	2
5910	-4e-05	1e-05	0.00018	5e-05	-2e-05	9e-05	-7e-05	2e-05	2
5911	1e-05	1e-05	0.00025	0.00012	-1e-05	0.00022	4e-05	6e-05	2
5912	1e-05	1e-05	0.00025	0.00012	-1e-05	0.00022	4e-05	6e-05	2
5913	1e-05	1e-05	0.00025	0.00012	-1e-05	0.00022	4e-05	6e-05	2
5914	1e-05	1e-05	0.00025	0.00012	-1e-05	0.00022	4e-05	6e-05	2
5915	1e-05	1e-05	0.00025	0.00012	-1e-05	0.00022	4e-05	6e-05	2
5916	1e-05	1e-05	0.00025	0.00012	-1e-05	0.00022	4e-05	6e-05	2
5917	1e-05	1e-05	0.00025	0.00012	-1e-05	0.00022	4e-05	6e-05	2
5918	-3e-05	-1e-05	-6e-05	-0.00011	0	0.00015	8e-05	-0.00017	2
5919	-3e-05	-1e-05	-6e-05	-0.00011	0	0.00015	8e-05	-0.00017	2
5920	-3e-05	-1e-05	-6e-05	-0.00011	0	0.00015	8e-05	-0.00017	2
5921	-3e-05	-1e-05	-6e-05	-0.00011	0	0.00015	8e-05	-0.00017	2
5922	-3e-05	-1e-05	-6e-05	-0.00011	0	0.00015	8e-05	-0.00017	2
5923	-3e-05	-1e-05	-6e-05	-0.00011	0	0.00015	8e-05	-0.00017	2
5924	-3e-05	-1e-05	-6e-05	-0.00011	0	0.00015	8e-05	-0.00017	2
5925	-3e-05	-1e-05	-6e-05	-0.00011	0	0.00015	8e-05	-0.00017	2
5926	-3e-05	-1e-05	-6e-05	-0.00011	0	0.00015	8e-05	-0.00017	2
5927	-3e-05	-1e-05	-6e-05	-0.00011	0	0.00015	8e-05	-0.00017	2
5928	-3e-05	-1e-05	-6e-05	-0.00011	0	0.00015	8e-05	-0.00017	2
5929	-3e-05	-1e-05	-6e-05	-0.00011	0	0.00015	8e-05	-0.00017	2
5930	-3e-05	-1e-05	-6e-05	-0.00011	0	0.00015	8e-05	-0.00017	2
5931	-3e-05	-1e-05	-6e-05	-0.00011	0	0.00015	8e-05	-0.00017	2
5932	-3e-05	-1e-05	-6e-05	-0.00011	0	0.00015	8e-05	-0.00017	2
5933	-3e-05	-1e-05	-6e-05	-0.00011	0	0.00015	8e-05	-0.00017	2
5934	-3e-05	-1e-05	-6e-05	-0.00011	0	0.00015	8e-05	-0.00017	2
5935	-3e-05	-1e-05	-6e-05	-0.00011	0	0.00015	8e-05	-0.00017	2
5936	-3e-05	-1e-05	-6e-05	-0.00011	0	0.00015	8e-05	-0.00017	2
5939	-3e-05	-1e-05	-6e-05	-0.00011	0	0.00015	8e-05	-0.00017	2
5940	-3e-05	-1e-05	-6e-05	-0.00011	0	0.00015	8e-05	-0.00017	2
5941	-3e-05	-1e-05	-6e-05	-0.00011	0	0.00015	8e-05	-0.00017	2
5942	0.0001	-2e-05	-0.00038	-1e-05	5e-05	-2e-05	-9e-05	-5e-05	2
5943	-3e-05	2e-05	9e-05	-0.00011	-3e-05	-1e-05	1e-05	1e-05	2
5944	-3e-05	2e-05	9e-05	-0.00011	-3e-05	-1e-05	1e-05	1e-05	2
5945	-3e-05	2e-05	9e-05	-0.00011	-3e-05	-1e-05	1e-05	1e-05	2
5946	-3e-05	2e-05	9e-05	-0.00011	-3e-05	-1e-05	1e-05	1e-05	2
5947	-3e-05	2e-05	9e-05	-0.00011	-3e-05	-1e-05	1e-05	1e-05	2
5948	-3e-05	2e-05	9e-05	-0.00011	-3e-05	-1e-05	1e-05	1e-05	2
5949	-3e-05	2e-05	9e-05	-0.00011	-3e-05	-1e-05	1e-05	1e-05	2
5950	-3e-05	2e-05	9e-05	-0.00011	-3e-05	-1e-05	1e-05	1e-05	2
5951	-3e-05	2e-05	9e-05	-0.00011	-3e-05	-1e-05	1e-05	1e-05	2
5952	-3e-05	2e-05	9e-05	-0.00011	-3e-05	-1e-05	1e-05	1e-05	2
5953	-3e-05	2e-05	9e-05	-0.00011	-3e-05	-1e-05	1e-05	1e-05	2
5954	-3e-05	2e-05	9e-05	-0.00011	-3e-05	-1e-05	1e-05	1e-05	2
5955	-3e-05	2e-05	9e-05	-0.00011	-3e-05	-1e-05	1e-05	1e-05	2
5956	-3e-05	2e-05	9e-05	-0.00011	-3e-05	-1e-05	1e-05	1e-05	2
5957	-3e-05	2e-05	9e-05	-0.00011	-3e-05	-1e-05	1e-05	1e-05	2
5958	-3e-05	2e-05	9e-05	-0.00011	-3e-05	-1e-05	1e-05	1e-05	2
5959	-3e-05	2e-05	9e-05	-0.00011	-3e-05	-1e-05	1e-05	1e-05	2
5960	-3e-05	2e-05	9e-05	-0.00011	-3e-05	-1e-05	1e-05	1e-05	2
5961	-3e-05	2e-05	9e-05	-0.00011	-3e-05	-1e-05	1e-05	1e-05	2
5962	-3e-05	2e-05	9e-05	-0.00011	-3e-05	-1e-05	1e-05	1e-05	2
5963	-3e-05	2e-05	9e-05	-0.00011	-3e-05	-1e-05	1e-05	1e-05	2
5964	0	-5e-05	-3e-05	-0.0001	-0.0001	-7e-05	8e-05	0.00014	2
5965	0	-5e-05	-3e-05	-0.0001	-0.0001	-7e-05	8e-05	0.00014	2
5966	-0.00014	-7e-05	2e-05	8e-05	-0.00012	6e-05	-1e-05	-0.00021	2
5967	-0.00014	-7e-05	2e-05	8e-05	-0.00012	6e-05	-1e-05	-0.00021	2
5968	-0.00014	-7e-05	2e-05	8e-05	-0.00012	6e-05	-1e-05	-0.00021	2
5969	-0.00014	-7e-05	2e-05	8e-05	-0.00012	6e-05	-1e-05	-0.00021	2
5970	-0.00014	-7e-05	2e-05	8e-05	-0.00012	6e-05	-1e-05	-0.00021	2
5971	-0.00014	-7e-05	2e-05	8e-05	-0.00012	6e-05	-1e-05	-0.00021	2
5972	-0.00015	2e-05	0.00025	7e-05	-5e-05	4e-05	0.0001	9e-05	2
5973	-0.00015	2e-05	0.00025	7e-05	-5e-05	4e-05	0.0001	9e-05	2
5974	-0.00015	2e-05	0.00025	7e-05	-5e-05	4e-05	0.0001	9e-05	2
5975	-0.00015	2e-05	0.00025	7e-05	-5e-05	4e-05	0.0001	9e-05	2
5976	-0.00015	2e-05	0.00025	7e-05	-5e-05	4e-05	0.0001	9e-05	2
5977	-0.00015	2e-05	0.00025	7e-05	-5e-05	4e-05	0.0001	9e-05	2
5978	2e-05	1e-05	5e-05	-4e-05	-1e-05	-0.00023	0	-7e-05	2
5979	2e-05	1e-05	5e-05	-4e-05	-1e-05	-0.00023	0	-7e-05	2
5980	2e-05	1e-05	5e-05	-4e-05	-1e-05	-0.00023	0	-7e-05	2
5981	2e-05	1e-05	5e-05	-4e-05	-1e-05	-0.00023	0	-7e-05	2
5982	2e-05	1e-05	5e-05	-4e-05	-1e-05	-0.00023	0	-7e-05	2
5983	2e-05	1e-05	5e-05	-4e-05	-1e-05	-0.00023	0	-7e-05	2
5984	2e-05	1e-05	5e-05	-4e-05	-1e-05	-0.00023	0	-7e-05	2
5985	2e-05	1e-05	5e-05	-4e-05	-1e-05	-0.00023	0	-7e-05	2
5986	2e-05	1e-05	5e-05	-4e-05	-1e-05	-0.00023	0	-7e-05	2
5989	2e-05	1e-05	5e-05	-4e-05	-1e-05	-0.00023	0	-7e-05	2
5990	2e-05	1e-05	5e-05	-4e-05	-1e-05	-0.00023	0	-7e-05	2
5991	2e-05	1e-05	5e-05	-4e-05	-1e-05	-0.00023	0	-7e-05	2
5992	2e-05	1e-05	5e-05	-4e-05	-1e-05	-0.00023	0	-7e-05	2
5993	2e-05	1e-05	5e-05	-4e-05	-1e-05	-0.00023	0	-7e-05	2
5994	-0.00011	6e-05	0.00021	-8e-05	0	-0.00016	1e-05	-0.0001	2
5995	-0.00011	6e-05	0.00021	-8e-05	0	-0.00016	1e-05	-0.0001	2
5996	7e-05	0.00011	8e-05	-0.00012	-8e-05	-0.00061	-0.00014	0.00013	2
5997	7e-05	0.00011	8e-05	-0.00012	-8e-05	-0.00061	-0.00014	0.00013	2
5998	7e-05	0.00011	8e-05	-0.00012	-8e-05	-0.00061	-0.00014	0.00013	2
5999	7e-05	0.00011	8e-05	-0.00012	-8e-05	-0.00061	-0.00014	0.00013	2
6000	7e-05	0.00011	8e-05	-0.00012	-8e-05	-0.00061	-0.00014	0.00013	2
6001	7e-05	0.00011	8e-05	-0.00012	-8e-05	-0.00061	-0.00014	0.00013	2
6002	7e-05	0.00011	8e-05	-0.00012	-8e-05	-0.00061	-0.00014	0.00013	2
6003	7e-05	0.00011	8e-05	-0.00012	-8e-05	-0.00061	-0.00014	0.00013	2
6004	7e-05	0.00011	8e-05	-0.00012	-8e-05	-0.00061	-0.00014	0.00013	2
6005	7e-05	0.00011	8e-05	-0.00012	-8e-05	-0.00061	-0.00014	0.00013	2
6006	7e-05	0.00011	8e-05	-0.00012	-8e-05	-0.00061	-0.00014	0.00013	2
6007	7e-05	0.00011	8e-05	-0.00012	-8e-05	-0.00061	-0.00014	0.00013	2
6008	7e-05	0.00011	8e-05	-0.00012	-8e-05	-0.00061	-0.00014	0.00013	2
6009	7e-05	0.00011	8e-05	-0.00012	-8e-05	-0.00061	-0.00014	0.00013	2
6010	7e-05	0.00011	8e-05	-0.00012	-8e-05	-0.00061	-0.00014	0.00013	2
6011	7e-05	0.00011	8e-05	-0.00012	-8e-05	-0.00061	-0.00014	0.00013	2
6012	7e-05	0.00011	8e-05	-0.00012	-8e-05	-0.00061	-0.00014	0.00013	2
6013	7e-05	0.00011	8e-05	-0.00012	-8e-05	-0.00061	-0.00014	0.00013	2
6014	7e-05	0.00011	8e-05	-0.00012	-8e-05	-0.00061	-0.00014	0.00013	2
6015	7e-05	0.00011	8e-05	-0.00012	-8e-05	-0.00061	-0.00014	0.00013	2
6016	7e-05	0.00011	8e-05	-0.00012	-8e-05	-0.00061	-0.00014	0.00013	2
6017	-5e-05	-1e-05	1e-05	0.00011	0	-0.00023	-5e-05	-6e-05	2
6019	-5e-05	-1e-05	1e-05	0.00011	0	-0.00023	-5e-05	-6e-05	2
6020	-5e-05	-1e-05	1e-05	0.00011	0	-0.00023	-5e-05	-6e-05	2
6021	-5e-05	-1e-05	1e-05	0.00011	0	-0.00023	-5e-05	-6e-05	2
6022	-5e-05	-1e-05	1e-05	0.00011	0	-0.00023	-5e-05	-6e-05	2
6023	-0.00016	-0.00014	-0.00035	1e-05	6e-05	0.00011	-0.00011	-4e-05	2
6024	-0.00016	-0.00014	-0.00035	1e-05	6e-05	0.00011	-0.00011	-4e-05	2
6025	-0.00016	-0.00014	-0.00035	1e-05	6e-05	0.00011	-0.00011	-4e-05	2
6026	-0.00016	-0.00014	-0.00035	1e-05	6e-05	0.00011	-0.00011	-4e-05	2
6027	-0.00016	-0.00014	-0.00035	1e-05	6e-05	0.00011	-0.00011	-4e-05	2
6028	-0.00016	-0.00014	-0.00035	1e-05	6e-05	0.00011	-0.00011	-4e-05	2
6029	-0.00016	-0.00014	-0.00035	1e-05	6e-05	0.00011	-0.00011	-4e-05	2
6030	-0.00016	-0.00014	-0.00035	1e-05	6e-05	0.00011	-0.00011	-4e-05	2
6031	-0.00016	-0.00014	-0.00035	1e-05	6e-05	0.00011	-0.00011	-4e-05	2
6032	-0.00016	-0.00014	-0.00035	1e-05	6e-05	0.00011	-0.00011	-4e-05	2
6033	-0.00016	-0.00014	-0.00035	1e-05	6e-05	0.00011	-0.00011	-4e-05	2
6034	-0.00016	-0.00014	-0.00035	1e-05	6e-05	0.00011	-0.00011	-4e-05	2
6035	-0.00016	-0.00014	-0.00035	1e-05	6e-05	0.00011	-0.00011	-4e-05	2
6036	-0.00016	-0.00014	-0.00035	1e-05	6e-05	0.00011	-0.00011	-4e-05	2
6038	-0.00016	-0.00014	-0.00035	1e-05	6e-05	0.00011	-0.00011	-4e-05	2
6039	-0.00016	-0.00014	-0.00035	1e-05	6e-05	0.00011	-0.00011	-4e-05	2
6040	0.0001	6e-05	6e-05	5e-05	-8e-05	-0.00023	0	-0.00018	2
6041	-4e-05	-3e-05	3e-05	-0.0001	-2e-05	4e-05	-0.00011	9e-05	2
6042	-4e-05	-3e-05	3e-05	-0.0001	-2e-05	4e-05	-0.00011	9e-05	2
6043	-4e-05	-3e-05	3e-05	-0.0001	-2e-05	4e-05	-0.00011	9e-05	2
6044	-4e-05	-3e-05	3e-05	-0.0001	-2e-05	4e-05	-0.00011	9e-05	2
6045	2e-05	-5e-05	-0.00012	-3e-05	3e-05	-1e-05	-5e-05	5e-05	2
6046	-0.00014	-9e-05	4e-05	-4e-05	-5e-05	0.00015	2e-05	-0.0001	2
6047	-0.00014	-9e-05	4e-05	-4e-05	-5e-05	0.00015	2e-05	-0.0001	2
6048	-0.00014	-9e-05	4e-05	-4e-05	-5e-05	0.00015	2e-05	-0.0001	2
6049	-0.00014	-9e-05	4e-05	-4e-05	-5e-05	0.00015	2e-05	-0.0001	2
6050	-0.00014	-9e-05	4e-05	-4e-05	-5e-05	0.00015	2e-05	-0.0001	2
6051	-0.00014	-9e-05	4e-05	-4e-05	-5e-05	0.00015	2e-05	-0.0001	2
6052	-0.00014	-9e-05	4e-05	-4e-05	-5e-05	0.00015	2e-05	-0.0001	2
6053	-0.00014	-9e-05	4e-05	-4e-05	-5e-05	0.00015	2e-05	-0.0001	2
6054	-2e-05	-2e-05	4e-05	0	0	0	-5e-05	-0.00024	2
6056	0.00013	-1e-05	-0.00029	-0.00018	0.0001	0.00012	5e-05	7e-05	2
6058	0.00013	-1e-05	-0.00029	-0.00018	0.0001	0.00012	5e-05	7e-05	2
6059	0.00013	-1e-05	-0.00029	-0.00018	0.0001	0.00012	5e-05	7e-05	2
6060	0.00013	-1e-05	-0.00029	-0.00018	0.0001	0.00012	5e-05	7e-05	2
6061	0.00013	-1e-05	-0.00029	-0.00018	0.0001	0.00012	5e-05	7e-05	2
6062	0.00013	-1e-05	-0.00029	-0.00018	0.0001	0.00012	5e-05	7e-05	2
6063	0.00013	-1e-05	-0.00029	-0.00018	0.0001	0.00012	5e-05	7e-05	2
6064	0.00013	-1e-05	-0.00029	-0.00018	0.0001	0.00012	5e-05	7e-05	2
6065	0.00013	-1e-05	-0.00029	-0.00018	0.0001	0.00012	5e-05	7e-05	2
6066	0.00013	-1e-05	-0.00029	-0.00018	0.0001	0.00012	5e-05	7e-05	2
6067	0.00013	-1e-05	-0.00029	-0.00018	0.0001	0.00012	5e-05	7e-05	2
6068	0.00013	-1e-05	-0.00029	-0.00018	0.0001	0.00012	5e-05	7e-05	2
6069	0.00013	-1e-05	-0.00029	-0.00018	0.0001	0.00012	5e-05	7e-05	2
6070	0.00013	-1e-05	-0.00029	-0.00018	0.0001	0.00012	5e-05	7e-05	2
6071	0.00013	-1e-05	-0.00029	-0.00018	0.0001	0.00012	5e-05	7e-05	2
6072	0.00013	-1e-05	-0.00029	-0.00018	0.0001	0.00012	5e-05	7e-05	2
6073	0.00013	-1e-05	-0.00029	-0.00018	0.0001	0.00012	5e-05	7e-05	2
6074	0.00013	-1e-05	-0.00029	-0.00018	0.0001	0.00012	5e-05	7e-05	2
6075	0.00013	-1e-05	-0.00029	-0.00018	0.0001	0.00012	5e-05	7e-05	2
6076	0.00013	-1e-05	-0.00029	-0.00018	0.0001	0.00012	5e-05	7e-05	2
6077	2e-05	-3e-05	-9e-05	0.00014	0.00012	8e-05	-6e-05	0.00013	2
6078	-1e-05	1e-05	9e-05	5e-05	4e-05	0.0001	-4e-05	0.00024	2
6079	-1e-05	1e-05	9e-05	5e-05	4e-05	0.0001	-4e-05	0.00024	2
6080	-1e-05	1e-05	9e-05	5e-05	4e-05	0.0001	-4e-05	0.00024	2
6081	-1e-05	1e-05	9e-05	5e-05	4e-05	0.0001	-4e-05	0.00024	2
6082	-1e-05	1e-05	9e-05	5e-05	4e-05	0.0001	-4e-05	0.00024	2
6083	-1e-05	1e-05	9e-05	5e-05	4e-05	0.0001	-4e-05	0.00024	2
6084	-1e-05	1e-05	9e-05	5e-05	4e-05	0.0001	-4e-05	0.00024	2
6085	-1e-05	1e-05	9e-05	5e-05	4e-05	0.0001	-4e-05	0.00024	2
6086	-1e-05	1e-05	9e-05	5e-05	4e-05	0.0001	-4e-05	0.00024	2
6088	-1e-05	1e-05	9e-05	5e-05	4e-05	0.0001	-4e-05	0.00024	2
6090	-1e-05	1e-05	9e-05	5e-05	4e-05	0.0001	-4e-05	0.00024	2
6091	-1e-05	1e-05	9e-05	5e-05	4e-05	0.0001	-4e-05	0.00024	2
6092	-1e-05	1e-05	9e-05	5e-05	4e-05	0.0001	-4e-05	0.00024	2
6093	-1e-05	1e-05	9e-05	5e-05	4e-05	0.0001	-4e-05	0.00024	2
6094	-1e-05	1e-05	9e-05	5e-05	4e-05	0.0001	-4e-05	0.00024	2
6095	-1e-05	1e-05	9e-05	5e-05	4e-05	0.0001	-4e-05	0.00024	2
6096	-1e-05	1e-05	9e-05	5e-05	4e-05	0.0001	-4e-05	0.00024	2
6097	-1e-05	1e-05	9e-05	5e-05	4e-05	0.0001	-4e-05	0.00024	2
6098	-1e-05	1e-05	9e-05	5e-05	4e-05	0.0001	-4e-05	0.00024	2
6099	-0.00018	-0.0001	-0.00017	-0.00015	-6e-05	-9e-05	2e-05	-2e-05	2
6100	-0.00018	-0.0001	-0.00017	-0.00015	-6e-05	-9e-05	2e-05	-2e-05	2
6101	2e-05	6e-05	0.00016	0.00021	1e-05	2e-05	-1e-05	2e-05	2
6102	2e-05	6e-05	0.00016	0.00021	1e-05	2e-05	-1e-05	2e-05	2
6103	2e-05	6e-05	0.00016	0.00021	1e-05	2e-05	-1e-05	2e-05	2
6104	2e-05	6e-05	0.00016	0.00021	1e-05	2e-05	-1e-05	2e-05	2
6105	2e-05	6e-05	0.00016	0.00021	1e-05	2e-05	-1e-05	2e-05	2
6106	2e-05	6e-05	0.00016	0.00021	1e-05	2e-05	-1e-05	2e-05	2
6107	2e-05	6e-05	0.00016	0.00021	1e-05	2e-05	-1e-05	2e-05	2
6108	2e-05	6e-05	0.00016	0.00021	1e-05	2e-05	-1e-05	2e-05	2
6109	2e-05	6e-05	0.00016	0.00021	1e-05	2e-05	-1e-05	2e-05	2
6110	2e-05	6e-05	0.00016	0.00021	1e-05	2e-05	-1e-05	2e-05	2
6111	2e-05	6e-05	0.00016	0.00021	1e-05	2e-05	-1e-05	2e-05	2
6112	2e-05	6e-05	0.00016	0.00021	1e-05	2e-05	-1e-05	2e-05	2
6113	2e-05	6e-05	0.00016	0.00021	1e-05	2e-05	-1e-05	2e-05	2
6114	0.0001	-3e-05	-2e-05	6e-05	0	0.0001	1e-05	1e-05	2
6115	0.0001	-3e-05	-2e-05	6e-05	0	0.0001	1e-05	1e-05	2
6116	-8e-05	-3e-05	-4e-05	6e-05	0	1e-05	4e-05	-3e-05	2
6117	-8e-05	-3e-05	-4e-05	6e-05	0	1e-05	4e-05	-3e-05	2
6118	-8e-05	-3e-05	-4e-05	6e-05	0	1e-05	4e-05	-3e-05	2
6119	-8e-05	-3e-05	-4e-05	6e-05	0	1e-05	4e-05	-3e-05	2
6120	-8e-05	-3e-05	-4e-05	6e-05	0	1e-05	4e-05	-3e-05	2
6121	-8e-05	-3e-05	-4e-05	6e-05	0	1e-05	4e-05	-3e-05	2
6122	-8e-05	-3e-05	-4e-05	6e-05	0	1e-05	4e-05	-3e-05	2
6123	-8e-05	-3e-05	-4e-05	6e-05	0	1e-05	4e-05	-3e-05	2
6124	-8e-05	-3e-05	-4e-05	6e-05	0	1e-05	4e-05	-3e-05	2
6125	-8e-05	-3e-05	-4e-05	6e-05	0	1e-05	4e-05	-3e-05	2
6126	-8e-05	-3e-05	-4e-05	6e-05	0	1e-05	4e-05	-3e-05	2
6127	-8e-05	-3e-05	-4e-05	6e-05	0	1e-05	4e-05	-3e-05	2
6128	-8e-05	-3e-05	-4e-05	6e-05	0	1e-05	4e-05	-3e-05	2
6129	-8e-05	-3e-05	-4e-05	6e-05	0	1e-05	4e-05	-3e-05	2
6130	-8e-05	-3e-05	-4e-05	6e-05	0	1e-05	4e-05	-3e-05	2
6131	-8e-05	-3e-05	-4e-05	6e-05	0	1e-05	4e-05	-3e-05	2
6132	-8e-05	-3e-05	-4e-05	6e-05	0	1e-05	4e-05	-3e-05	2
6133	-8e-05	-3e-05	-4e-05	6e-05	0	1e-05	4e-05	-3e-05	2
6134	-8e-05	-3e-05	-4e-05	6e-05	0	1e-05	4e-05	-3e-05	2
6135	-8e-05	-3e-05	-4e-05	6e-05	0	1e-05	4e-05	-3e-05	2
6136	-8e-05	-3e-05	-4e-05	6e-05	0	1e-05	4e-05	-3e-05	2
6139	-4e-05	-7e-05	-0.00015	0	-1e-05	4e-05	2e-05	1e-05	2
6140	-4e-05	-7e-05	-0.00015	0	-1e-05	4e-05	2e-05	1e-05	2
6141	-4e-05	-7e-05	-0.00015	0	-1e-05	4e-05	2e-05	1e-05	2
6142	-4e-05	-7e-05	-0.00015	0	-1e-05	4e-05	2e-05	1e-05	2
6143	-4e-05	-7e-05	-0.00015	0	-1e-05	4e-05	2e-05	1e-05	2
6144	-4e-05	-7e-05	-0.00015	0	-1e-05	4e-05	2e-05	1e-05	2
6145	-4e-05	-7e-05	-0.00015	0	-1e-05	4e-05	2e-05	1e-05	2
6146	-4e-05	-7e-05	-0.00015	0	-1e-05	4e-05	2e-05	1e-05	2
6147	-4e-05	-7e-05	-0.00015	0	-1e-05	4e-05	2e-05	1e-05	2
6148	-4e-05	-7e-05	-0.00015	0	-1e-05	4e-05	2e-05	1e-05	2
6149	-4e-05	-7e-05	-0.00015	0	-1e-05	4e-05	2e-05	1e-05	2
6150	-4e-05	-7e-05	-0.00015	0	-1e-05	4e-05	2e-05	1e-05	2
6151	-2e-05	-8e-05	-7e-05	-2e-05	-7e-05	0.00011	-3e-05	-0.00011	2
6152	-2e-05	-8e-05	-7e-05	-2e-05	-7e-05	0.00011	-3e-05	-0.00011	2
6153	-2e-05	-8e-05	-7e-05	-2e-05	-7e-05	0.00011	-3e-05	-0.00011	2
6154	-2e-05	-8e-05	-7e-05	-2e-05	-7e-05	0.00011	-3e-05	-0.00011	2
6155	-2e-05	-8e-05	-7e-05	-2e-05	-7e-05	0.00011	-3e-05	-0.00011	2
6156	-2e-05	-8e-05	-7e-05	-2e-05	-7e-05	0.00011	-3e-05	-0.00011	2
6157	-2e-05	-8e-05	-7e-05	-2e-05	-7e-05	0.00011	-3e-05	-0.00011	2
6158	6e-05	3e-05	-6e-05	-9e-05	-5e-05	-6e-05	-8e-05	-2e-05	2
6159	6e-05	3e-05	-6e-05	-9e-05	-5e-05	-6e-05	-8e-05	-2e-05	2
6160	6e-05	3e-05	-6e-05	-9e-05	-5e-05	-6e-05	-8e-05	-2e-05	2
6161	6e-05	3e-05	-6e-05	-9e-05	-5e-05	-6e-05	-8e-05	-2e-05	2
6162	6e-05	3e-05	-6e-05	-9e-05	-5e-05	-6e-05	-8e-05	-2e-05	2
6163	6e-05	3e-05	-6e-05	-9e-05	-5e-05	-6e-05	-8e-05	-2e-05	2
6164	6e-05	3e-05	-6e-05	-9e-05	-5e-05	-6e-05	-8e-05	-2e-05	2
6165	6e-05	3e-05	-6e-05	-9e-05	-5e-05	-6e-05	-8e-05	-2e-05	2
6166	6e-05	3e-05	-6e-05	-9e-05	-5e-05	-6e-05	-8e-05	-2e-05	2
6167	6e-05	3e-05	-6e-05	-9e-05	-5e-05	-6e-05	-8e-05	-2e-05	2
6168	6e-05	3e-05	-6e-05	-9e-05	-5e-05	-6e-05	-8e-05	-2e-05	2
6169	6e-05	3e-05	-6e-05	-9e-05	-5e-05	-6e-05	-8e-05	-2e-05	2
6170	6e-05	3e-05	-6e-05	-9e-05	-5e-05	-6e-05	-8e-05	-2e-05	2
6171	6e-05	3e-05	-6e-05	-9e-05	-5e-05	-6e-05	-8e-05	-2e-05	2
6172	6e-05	3e-05	-6e-05	-9e-05	-5e-05	-6e-05	-8e-05	-2e-05	2
6173	6e-05	3e-05	-6e-05	-9e-05	-5e-05	-6e-05	-8e-05	-2e-05	2
6174	0.00012	0.00013	0.00032	0.00013	5e-05	-1e-05	0.00012	6e-05	2
6175	0.00012	0.00013	0.00032	0.00013	5e-05	-1e-05	0.00012	6e-05	2
6176	-7e-05	-1e-05	1e-05	-8e-05	-6e-05	-0.00012	6e-05	-8e-05	2
6177	-7e-05	-1e-05	1e-05	-8e-05	-6e-05	-0.00012	6e-05	-8e-05	2
6178	-7e-05	-1e-05	1e-05	-8e-05	-6e-05	-0.00012	6e-05	-8e-05	2
6179	-7e-05	-1e-05	1e-05	-8e-05	-6e-05	-0.00012	6e-05	-8e-05	2
6180	-7e-05	-1e-05	1e-05	-8e-05	-6e-05	-0.00012	6e-05	-8e-05	2
6181	-7e-05	-1e-05	1e-05	-8e-05	-6e-05	-0.00012	6e-05	-8e-05	2
6182	-7e-05	-1e-05	1e-05	-8e-05	-6e-05	-0.00012	6e-05	-8e-05	2
6183	-7e-05	-1e-05	1e-05	-8e-05	-6e-05	-0.00012	6e-05	-8e-05	2
6184	-7e-05	-1e-05	1e-05	-8e-05	-6e-05	-0.00012	6e-05	-8e-05	2
6185	-7e-05	-1e-05	1e-05	-8e-05	-6e-05	-0.00012	6e-05	-8e-05	2
6186	-7e-05	-1e-05	1e-05	-8e-05	-6e-05	-0.00012	6e-05	-8e-05	2
6188	-7e-05	-1e-05	1e-05	-8e-05	-6e-05	-0.00012	6e-05	-8e-05	2
6189	-7e-05	-1e-05	1e-05	-8e-05	-6e-05	-0.00012	6e-05	-8e-05	2
6190	-7e-05	-1e-05	1e-05	-8e-05	-6e-05	-0.00012	6e-05	-8e-05	2
6191	-7e-05	-1e-05	1e-05	-8e-05	-6e-05	-0.00012	6e-05	-8e-05	2
6192	-7e-05	-1e-05	1e-05	-8e-05	-6e-05	-0.00012	6e-05	-8e-05	2
6193	-7e-05	-1e-05	1e-05	-8e-05	-6e-05	-0.00012	6e-05	-8e-05	2
6194	-7e-05	-1e-05	1e-05	-8e-05	-6e-05	-0.00012	6e-05	-8e-05	2
6195	-7e-05	-1e-05	1e-05	-8e-05	-6e-05	-0.00012	6e-05	-8e-05	2
6196	-7e-05	-1e-05	1e-05	-8e-05	-6e-05	-0.00012	6e-05	-8e-05	2
6197	-1e-05	1e-05	0.00011	5e-05	3e-05	0.00015	0.00013	0.00023	2
6198	6e-05	6e-05	0.00013	0.00014	-5e-05	-0.0003	-7e-05	2e-05	2
6199	6e-05	6e-05	0.00013	0.00014	-5e-05	-0.0003	-7e-05	2e-05	2
6200	6e-05	6e-05	0.00013	0.00014	-5e-05	-0.0003	-7e-05	2e-05	2
6201	6e-05	6e-05	0.00013	0.00014	-5e-05	-0.0003	-7e-05	2e-05	2
6202	6e-05	6e-05	0.00013	0.00014	-5e-05	-0.0003	-7e-05	2e-05	2
6203	6e-05	6e-05	0.00013	0.00014	-5e-05	-0.0003	-7e-05	2e-05	2
6204	6e-05	6e-05	0.00013	0.00014	-5e-05	-0.0003	-7e-05	2e-05	2
6205	6e-05	6e-05	0.00013	0.00014	-5e-05	-0.0003	-7e-05	2e-05	2
6206	6e-05	6e-05	0.00013	0.00014	-5e-05	-0.0003	-7e-05	2e-05	2
6207	6e-05	6e-05	0.00013	0.00014	-5e-05	-0.0003	-7e-05	2e-05	2
6208	6e-05	6e-05	0.00013	0.00014	-5e-05	-0.0003	-7e-05	2e-05	2
6209	6e-05	6e-05	0.00013	0.00014	-5e-05	-0.0003	-7e-05	2e-05	2
6210	6e-05	6e-05	0.00013	0.00014	-5e-05	-0.0003	-7e-05	2e-05	2
6211	-0.0001	-3e-05	-9e-05	5e-05	8e-05	-0.00014	-4e-05	-5e-05	2
6212	-0.0001	-3e-05	-9e-05	5e-05	8e-05	-0.00014	-4e-05	-5e-05	2
6213	-0.0001	-3e-05	-9e-05	5e-05	8e-05	-0.00014	-4e-05	-5e-05	2
6214	-0.0001	-3e-05	-9e-05	5e-05	8e-05	-0.00014	-4e-05	-5e-05	2
6215	-0.0001	-3e-05	-9e-05	5e-05	8e-05	-0.00014	-4e-05	-5e-05	2
6216	-0.0001	-3e-05	-9e-05	5e-05	8e-05	-0.00014	-4e-05	-5e-05	2
6217	-0.0001	-3e-05	-9e-05	5e-05	8e-05	-0.00014	-4e-05	-5e-05	2
6218	-0.0001	-3e-05	-9e-05	5e-05	8e-05	-0.00014	-4e-05	-5e-05	2
6219	0	-0.00013	-0.00031	-0.00018	-1e-05	0.00024	0.00016	0.00022	2
6220	0	-0.00013	-0.00031	-0.00018	-1e-05	0.00024	0.00016	0.00022	2
6221	0	-0.00013	-0.00031	-0.00018	-1e-05	0.00024	0.00016	0.00022	2
6222	0	-0.00013	-0.00031	-0.00018	-1e-05	0.00024	0.00016	0.00022	2
6223	0	-0.00013	-0.00031	-0.00018	-1e-05	0.00024	0.00016	0.00022	2
6224	0	-0.00013	-0.00031	-0.00018	-1e-05	0.00024	0.00016	0.00022	2
6225	0	-0.00013	-0.00031	-0.00018	-1e-05	0.00024	0.00016	0.00022	2
6226	0	-0.00013	-0.00031	-0.00018	-1e-05	0.00024	0.00016	0.00022	2
6227	0	-0.00013	-0.00031	-0.00018	-1e-05	0.00024	0.00016	0.00022	2
6228	0	-0.00013	-0.00031	-0.00018	-1e-05	0.00024	0.00016	0.00022	2
6229	0	-0.00013	-0.00031	-0.00018	-1e-05	0.00024	0.00016	0.00022	2
6230	0	-0.00013	-0.00031	-0.00018	-1e-05	0.00024	0.00016	0.00022	2
6231	0	-0.00013	-0.00031	-0.00018	-1e-05	0.00024	0.00016	0.00022	2
6232	0	-0.00013	-0.00031	-0.00018	-1e-05	0.00024	0.00016	0.00022	2
6233	-5e-05	-1e-05	-3e-05	0.00018	0.00013	0.00013	0	5e-05	2
6234	0.00019	0.0001	0.00019	5e-05	-8e-05	1e-05	-0.00013	-9e-05	2
6235	0.00019	0.0001	0.00019	5e-05	-8e-05	1e-05	-0.00013	-9e-05	2
6236	0.00019	0.0001	0.00019	5e-05	-8e-05	1e-05	-0.00013	-9e-05	2
6238	0.00019	0.0001	0.00019	5e-05	-8e-05	1e-05	-0.00013	-9e-05	2
6239	0.00019	0.0001	0.00019	5e-05	-8e-05	1e-05	-0.00013	-9e-05	2
6240	0.00019	0.0001	0.00019	5e-05	-8e-05	1e-05	-0.00013	-9e-05	2
6242	0.00019	0.0001	0.00019	5e-05	-8e-05	1e-05	-0.00013	-9e-05	2
6243	0.00017	7e-05	0.00015	0.00026	1e-05	-0.00013	-0.00012	-6e-05	2
6244	0.00017	7e-05	0.00015	0.00026	1e-05	-0.00013	-0.00012	-6e-05	2
6245	0.00017	7e-05	0.00015	0.00026	1e-05	-0.00013	-0.00012	-6e-05	2
6246	0.00017	7e-05	0.00015	0.00026	1e-05	-0.00013	-0.00012	-6e-05	2
6247	0.00017	7e-05	0.00015	0.00026	1e-05	-0.00013	-0.00012	-6e-05	2
6248	0.00017	7e-05	0.00015	0.00026	1e-05	-0.00013	-0.00012	-6e-05	2
6249	0.00017	7e-05	0.00015	0.00026	1e-05	-0.00013	-0.00012	-6e-05	2
6250	0.00017	7e-05	0.00015	0.00026	1e-05	-0.00013	-0.00012	-6e-05	2
6251	0.00017	7e-05	0.00015	0.00026	1e-05	-0.00013	-0.00012	-6e-05	2
6252	0.00017	7e-05	0.00015	0.00026	1e-05	-0.00013	-0.00012	-6e-05	2
6253	0.00017	7e-05	0.00015	0.00026	1e-05	-0.00013	-0.00012	-6e-05	2
6254	0.00017	7e-05	0.00015	0.00026	1e-05	-0.00013	-0.00012	-6e-05	2
6255	0.00017	7e-05	0.00015	0.00026	1e-05	-0.00013	-0.00012	-6e-05	2
6256	0.00017	7e-05	0.00015	0.00026	1e-05	-0.00013	-0.00012	-6e-05	2
6257	-0.00011	-5e-05	1e-05	1e-05	-2e-05	0.00012	-2e-05	0	2
6258	5e-05	3e-05	2e-05	-0.00011	-7e-05	-5e-05	-9e-05	-0.00024	2
6259	5e-05	3e-05	2e-05	-0.00011	-7e-05	-5e-05	-9e-05	-0.00024	2
6260	5e-05	3e-05	2e-05	-0.00011	-7e-05	-5e-05	-9e-05	-0.00024	2
6261	5e-05	3e-05	2e-05	-0.00011	-7e-05	-5e-05	-9e-05	-0.00024	2
6262	5e-05	3e-05	2e-05	-0.00011	-7e-05	-5e-05	-9e-05	-0.00024	2
6263	5e-05	3e-05	2e-05	-0.00011	-7e-05	-5e-05	-9e-05	-0.00024	2
6264	5e-05	3e-05	2e-05	-0.00011	-7e-05	-5e-05	-9e-05	-0.00024	2
6265	5e-05	3e-05	2e-05	-0.00011	-7e-05	-5e-05	-9e-05	-0.00024	2
6266	5e-05	3e-05	2e-05	-0.00011	-7e-05	-5e-05	-9e-05	-0.00024	2
6267	5e-05	3e-05	2e-05	-0.00011	-7e-05	-5e-05	-9e-05	-0.00024	2
6268	5e-05	3e-05	2e-05	-0.00011	-7e-05	-5e-05	-9e-05	-0.00024	2
6269	5e-05	3e-05	2e-05	-0.00011	-7e-05	-5e-05	-9e-05	-0.00024	2
6270	1e-05	-1e-05	-0.0001	1e-05	-8e-05	-0.00024	-0.00014	-5e-05	2
6271	1e-05	-1e-05	-0.0001	1e-05	-8e-05	-0.00024	-0.00014	-5e-05	2
6273	1e-05	-1e-05	-0.0001	1e-05	-8e-05	-0.00024	-0.00014	-5e-05	2
6274	1e-05	-1e-05	-0.0001	1e-05	-8e-05	-0.00024	-0.00014	-5e-05	2
6275	1e-05	-1e-05	-0.0001	1e-05	-8e-05	-0.00024	-0.00014	-5e-05	2
6276	1e-05	-1e-05	-0.0001	1e-05	-8e-05	-0.00024	-0.00014	-5e-05	2
6277	1e-05	-1e-05	-0.0001	1e-05	-8e-05	-0.00024	-0.00014	-5e-05	2
6278	1e-05	-1e-05	-0.0001	1e-05	-8e-05	-0.00024	-0.00014	-5e-05	2
6279	3e-05	5e-05	0.00019	0.00012	-1e-05	0.0001	4e-05	6e-05	2
6280	-6e-05	-0.0001	-0.00034	-0.00025	5e-05	-5e-05	-3e-05	6e-05	2
6281	-6e-05	-0.0001	-0.00034	-0.00025	5e-05	-5e-05	-3e-05	6e-05	2
6282	-6e-05	-0.0001	-0.00034	-0.00025	5e-05	-5e-05	-3e-05	6e-05	2
6283	-6e-05	-0.0001	-0.00034	-0.00025	5e-05	-5e-05	-3e-05	6e-05	2
6284	-6e-05	-0.0001	-0.00034	-0.00025	5e-05	-5e-05	-3e-05	6e-05	2
6285	-6e-05	-0.0001	-0.00034	-0.00025	5e-05	-5e-05	-3e-05	6e-05	2
6286	-6e-05	-0.0001	-0.00034	-0.00025	5e-05	-5e-05	-3e-05	6e-05	2
6289	-6e-05	-0.0001	-0.00034	-0.00025	5e-05	-5e-05	-3e-05	6e-05	2
6290	-6e-05	-0.0001	-0.00034	-0.00025	5e-05	-5e-05	-3e-05	6e-05	2
6291	-6e-05	-0.0001	-0.00034	-0.00025	5e-05	-5e-05	-3e-05	6e-05	2
6292	-6e-05	-0.0001	-0.00034	-0.00025	5e-05	-5e-05	-3e-05	6e-05	2
6293	-6e-05	-0.0001	-0.00034	-0.00025	5e-05	-5e-05	-3e-05	6e-05	2
6294	-6e-05	-0.0001	-0.00034	-0.00025	5e-05	-5e-05	-3e-05	6e-05	2
6295	-6e-05	-0.0001	-0.00034	-0.00025	5e-05	-5e-05	-3e-05	6e-05	2
6296	-6e-05	-0.0001	-0.00034	-0.00025	5e-05	-5e-05	-3e-05	6e-05	2
6297	-6e-05	-0.0001	-0.00034	-0.00025	5e-05	-5e-05	-3e-05	6e-05	2
6298	-6e-05	-0.0001	-0.00034	-0.00025	5e-05	-5e-05	-3e-05	6e-05	2
6300	-6e-05	-0.0001	-0.00034	-0.00025	5e-05	-5e-05	-3e-05	6e-05	2
6301	-6e-05	-0.0001	-0.00034	-0.00025	5e-05	-5e-05	-3e-05	6e-05	2
6302	0.00013	-9e-05	-0.00035	-0.0003	-5e-05	-3e-05	-3e-05	2e-05	2
6303	1e-05	0.00012	0.00028	9e-05	-6e-05	8e-05	0.00011	0.00017	2
6304	1e-05	0.00012	0.00028	9e-05	-6e-05	8e-05	0.00011	0.00017	2
6305	1e-05	0.00012	0.00028	9e-05	-6e-05	8e-05	0.00011	0.00017	2
6306	1e-05	0.00012	0.00028	9e-05	-6e-05	8e-05	0.00011	0.00017	2
6307	1e-05	0.00012	0.00028	9e-05	-6e-05	8e-05	0.00011	0.00017	2
6309	1e-05	0.00012	0.00028	9e-05	-6e-05	8e-05	0.00011	0.00017	2
6310	1e-05	0.00012	0.00028	9e-05	-6e-05	8e-05	0.00011	0.00017	2
6311	1e-05	0.00012	0.00028	9e-05	-6e-05	8e-05	0.00011	0.00017	2
6312	1e-05	0.00012	0.00028	9e-05	-6e-05	8e-05	0.00011	0.00017	2
6313	1e-05	0.00012	0.00028	9e-05	-6e-05	8e-05	0.00011	0.00017	2
6314	1e-05	0.00012	0.00028	9e-05	-6e-05	8e-05	0.00011	0.00017	2
6315	1e-05	0.00012	0.00028	9e-05	-6e-05	8e-05	0.00011	0.00017	2
6316	1e-05	0.00012	0.00028	9e-05	-6e-05	8e-05	0.00011	0.00017	2
6317	-0.0001	-4e-05	-2e-05	1e-05	-1e-05	0.00015	2e-05	3e-05	2
6318	-0.0001	-4e-05	-2e-05	1e-05	-1e-05	0.00015	2e-05	3e-05	2
6319	-0.0001	-4e-05	-2e-05	1e-05	-1e-05	0.00015	2e-05	3e-05	2
6320	-0.0001	-4e-05	-2e-05	1e-05	-1e-05	0.00015	2e-05	3e-05	2
6321	-0.0001	-4e-05	-2e-05	1e-05	-1e-05	0.00015	2e-05	3e-05	2
6322	-0.0001	-4e-05	-2e-05	1e-05	-1e-05	0.00015	2e-05	3e-05	2
6323	-0.0001	-4e-05	-2e-05	1e-05	-1e-05	0.00015	2e-05	3e-05	2
6324	-1e-05	-6e-05	-0.00022	-0.00019	1e-05	3e-05	5e-05	-0.00011	2
6325	-1e-05	-6e-05	-0.00022	-0.00019	1e-05	3e-05	5e-05	-0.00011	2
6326	-1e-05	-6e-05	-0.00022	-0.00019	1e-05	3e-05	5e-05	-0.00011	2
6327	-1e-05	-6e-05	-0.00022	-0.00019	1e-05	3e-05	5e-05	-0.00011	2
6328	-1e-05	-6e-05	-0.00022	-0.00019	1e-05	3e-05	5e-05	-0.00011	2
6329	-1e-05	-6e-05	-0.00022	-0.00019	1e-05	3e-05	5e-05	-0.00011	2
6330	6e-05	5e-05	4e-05	0.0001	-2e-05	-0.00039	-0.00017	-0.00012	2
6331	6e-05	5e-05	4e-05	0.0001	-2e-05	-0.00039	-0.00017	-0.00012	2
6332	6e-05	5e-05	4e-05	0.0001	-2e-05	-0.00039	-0.00017	-0.00012	2
6333	6e-05	5e-05	4e-05	0.0001	-2e-05	-0.00039	-0.00017	-0.00012	2
6334	6e-05	5e-05	4e-05	0.0001	-2e-05	-0.00039	-0.00017	-0.00012	2
6335	6e-05	5e-05	4e-05	0.0001	-2e-05	-0.00039	-0.00017	-0.00012	2
6336	6e-05	5e-05	4e-05	0.0001	-2e-05	-0.00039	-0.00017	-0.00012	2
6338	6e-05	5e-05	4e-05	0.0001	-2e-05	-0.00039	-0.00017	-0.00012	2
6340	6e-05	5e-05	4e-05	0.0001	-2e-05	-0.00039	-0.00017	-0.00012	2
6341	-1e-05	1e-05	8e-05	-7e-05	-1e-05	-8e-05	-4e-05	0	2
6342	-1e-05	1e-05	8e-05	-7e-05	-1e-05	-8e-05	-4e-05	0	2
6343	-1e-05	1e-05	8e-05	-7e-05	-1e-05	-8e-05	-4e-05	0	2
6344	-1e-05	1e-05	8e-05	-7e-05	-1e-05	-8e-05	-4e-05	0	2
6345	-1e-05	1e-05	8e-05	-7e-05	-1e-05	-8e-05	-4e-05	0	2
6346	-1e-05	1e-05	8e-05	-7e-05	-1e-05	-8e-05	-4e-05	0	2
6347	-1e-05	1e-05	8e-05	-7e-05	-1e-05	-8e-05	-4e-05	0	2
6348	-1e-05	1e-05	8e-05	-7e-05	-1e-05	-8e-05	-4e-05	0	2
6349	-1e-05	1e-05	8e-05	-7e-05	-1e-05	-8e-05	-4e-05	0	2
6350	-1e-05	1e-05	8e-05	-7e-05	-1e-05	-8e-05	-4e-05	0	2
6351	-1e-05	1e-05	8e-05	-7e-05	-1e-05	-8e-05	-4e-05	0	2
6352	-1e-05	1e-05	8e-05	-7e-05	-1e-05	-8e-05	-4e-05	0	2
6353	-1e-05	1e-05	8e-05	-7e-05	-1e-05	-8e-05	-4e-05	0	2
6354	-4e-05	-1e-05	-2e-05	-5e-05	3e-05	-5e-05	-4e-05	-0.0001	2
6355	-4e-05	-1e-05	-2e-05	-5e-05	3e-05	-5e-05	-4e-05	-0.0001	2
6356	-4e-05	-1e-05	-2e-05	-5e-05	3e-05	-5e-05	-4e-05	-0.0001	2
6357	-3e-05	-9e-05	-9e-05	-5e-05	0	3e-05	-1e-05	-0.00011	2
6358	-3e-05	-9e-05	-9e-05	-5e-05	0	3e-05	-1e-05	-0.00011	2
6359	-3e-05	-9e-05	-9e-05	-5e-05	0	3e-05	-1e-05	-0.00011	2
6360	-3e-05	-9e-05	-9e-05	-5e-05	0	3e-05	-1e-05	-0.00011	2
6361	-3e-05	-9e-05	-9e-05	-5e-05	0	3e-05	-1e-05	-0.00011	2
6362	-3e-05	-9e-05	-9e-05	-5e-05	0	3e-05	-1e-05	-0.00011	2
6363	-3e-05	-9e-05	-9e-05	-5e-05	0	3e-05	-1e-05	-0.00011	2
6364	-3e-05	-9e-05	-9e-05	-5e-05	0	3e-05	-1e-05	-0.00011	2
6365	-3e-05	-9e-05	-9e-05	-5e-05	0	3e-05	-1e-05	-0.00011	2
6366	-3e-05	-9e-05	-9e-05	-5e-05	0	3e-05	-1e-05	-0.00011	2
6367	-3e-05	-9e-05	-9e-05	-5e-05	0	3e-05	-1e-05	-0.00011	2
6368	-3e-05	-9e-05	-9e-05	-5e-05	0	3e-05	-1e-05	-0.00011	2
6369	-3e-05	-9e-05	-9e-05	-5e-05	0	3e-05	-1e-05	-0.00011	2
6370	-3e-05	-9e-05	-9e-05	-5e-05	0	3e-05	-1e-05	-0.00011	2
6371	-3e-05	-9e-05	-9e-05	-5e-05	0	3e-05	-1e-05	-0.00011	2
6372	-3e-05	-9e-05	-9e-05	-5e-05	0	3e-05	-1e-05	-0.00011	2
6373	-3e-05	-9e-05	-9e-05	-5e-05	0	3e-05	-1e-05	-0.00011	2
6374	-3e-05	-9e-05	-9e-05	-5e-05	0	3e-05	-1e-05	-0.00011	2
6375	-3e-05	-9e-05	-9e-05	-5e-05	0	3e-05	-1e-05	-0.00011	2
6376	-3e-05	-9e-05	-9e-05	-5e-05	0	3e-05	-1e-05	-0.00011	2
6377	-0.00017	-0.0001	-0.00024	-0.00024	-6e-05	-3e-05	3e-05	1e-05	2
6378	-0.00017	-0.0001	-0.00024	-0.00024	-6e-05	-3e-05	3e-05	1e-05	2
6379	0	-0.00012	-0.0002	8e-05	1e-05	0.00013	5e-05	-0.00021	2
6380	0	-0.00012	-0.0002	8e-05	1e-05	0.00013	5e-05	-0.00021	2
6381	0	-0.00012	-0.0002	8e-05	1e-05	0.00013	5e-05	-0.00021	2
6382	0	-0.00012	-0.0002	8e-05	1e-05	0.00013	5e-05	-0.00021	2
6383	0	-0.00012	-0.0002	8e-05	1e-05	0.00013	5e-05	-0.00021	2
6384	0	-0.00012	-0.0002	8e-05	1e-05	0.00013	5e-05	-0.00021	2
6385	0	-0.00012	-0.0002	8e-05	1e-05	0.00013	5e-05	-0.00021	2
6386	0	-0.00012	-0.0002	8e-05	1e-05	0.00013	5e-05	-0.00021	2
6388	0	-0.00012	-0.0002	8e-05	1e-05	0.00013	5e-05	-0.00021	2
6389	0	-0.00012	-0.0002	8e-05	1e-05	0.00013	5e-05	-0.00021	2
6390	0	-0.00012	-0.0002	8e-05	1e-05	0.00013	5e-05	-0.00021	2
6392	5e-05	4e-05	6e-05	1e-05	-5e-05	-0.00014	-0.00011	2e-05	2
6393	1e-05	3e-05	0.00012	0.00016	5e-05	0.00022	9e-05	-2e-05	2
6394	1e-05	3e-05	0.00012	0.00016	5e-05	0.00022	9e-05	-2e-05	2
6395	1e-05	3e-05	0.00012	0.00016	5e-05	0.00022	9e-05	-2e-05	2
6396	1e-05	3e-05	0.00012	0.00016	5e-05	0.00022	9e-05	-2e-05	2
6397	1e-05	3e-05	0.00012	0.00016	5e-05	0.00022	9e-05	-2e-05	2
6398	1e-05	3e-05	0.00012	0.00016	5e-05	0.00022	9e-05	-2e-05	2
6399	-0.00012	-2e-05	6e-05	0.00016	-2e-05	-1e-05	-5e-05	3e-05	2
6400	-0.00012	-2e-05	6e-05	0.00016	-2e-05	-1e-05	-5e-05	3e-05	2
6401	-0.00012	-2e-05	6e-05	0.00016	-2e-05	-1e-05	-5e-05	3e-05	2
6402	-0.00012	-2e-05	6e-05	0.00016	-2e-05	-1e-05	-5e-05	3e-05	2
6403	-0.00012	-2e-05	6e-05	0.00016	-2e-05	-1e-05	-5e-05	3e-05	2
6404	-0.00012	-2e-05	6e-05	0.00016	-2e-05	-1e-05	-5e-05	3e-05	2
6405	-0.00012	-2e-05	6e-05	0.00016	-2e-05	-1e-05	-5e-05	3e-05	2
6406	-0.00012	-2e-05	6e-05	0.00016	-2e-05	-1e-05	-5e-05	3e-05	2
6407	-0.00012	-2e-05	6e-05	0.00016	-2e-05	-1e-05	-5e-05	3e-05	2
6408	-0.00012	-2e-05	6e-05	0.00016	-2e-05	-1e-05	-5e-05	3e-05	2
6409	-0.00012	-2e-05	6e-05	0.00016	-2e-05	-1e-05	-5e-05	3e-05	2
6410	-0.00012	-2e-05	6e-05	0.00016	-2e-05	-1e-05	-5e-05	3e-05	2
6411	-0.00012	-2e-05	6e-05	0.00016	-2e-05	-1e-05	-5e-05	3e-05	2
6412	-0.00012	-2e-05	6e-05	0.00016	-2e-05	-1e-05	-5e-05	3e-05	2
6413	-0.00012	-2e-05	6e-05	0.00016	-2e-05	-1e-05	-5e-05	3e-05	2
6414	-8e-05	-0.00015	-0.00038	-0.00022	1e-05	4e-05	9e-05	-0.00012	2
6415	-8e-05	-0.00015	-0.00038	-0.00022	1e-05	4e-05	9e-05	-0.00012	2
6416	-1e-05	0.0001	0.00024	3e-05	-2e-05	-0.00022	-6e-05	0.00011	2
6417	-1e-05	0.0001	0.00024	3e-05	-2e-05	-0.00022	-6e-05	0.00011	2
6418	-1e-05	0.0001	0.00024	3e-05	-2e-05	-0.00022	-6e-05	0.00011	2
6419	-1e-05	0.0001	0.00024	3e-05	-2e-05	-0.00022	-6e-05	0.00011	2
6420	-1e-05	0.0001	0.00024	3e-05	-2e-05	-0.00022	-6e-05	0.00011	2
6421	-1e-05	0.0001	0.00024	3e-05	-2e-05	-0.00022	-6e-05	0.00011	2
6422	-1e-05	0.0001	0.00024	3e-05	-2e-05	-0.00022	-6e-05	0.00011	2
6423	-1e-05	0.0001	0.00024	3e-05	-2e-05	-0.00022	-6e-05	0.00011	2
6424	-1e-05	0.0001	0.00024	3e-05	-2e-05	-0.00022	-6e-05	0.00011	2
6425	-1e-05	0.0001	0.00024	3e-05	-2e-05	-0.00022	-6e-05	0.00011	2
6426	-1e-05	0.0001	0.00024	3e-05	-2e-05	-0.00022	-6e-05	0.00011	2
6427	-1e-05	0.0001	0.00024	3e-05	-2e-05	-0.00022	-6e-05	0.00011	2
6429	-1e-05	0.0001	0.00024	3e-05	-2e-05	-0.00022	-6e-05	0.00011	2
6430	-1e-05	0.0001	0.00024	3e-05	-2e-05	-0.00022	-6e-05	0.00011	2
6431	-1e-05	0.0001	0.00024	3e-05	-2e-05	-0.00022	-6e-05	0.00011	2
6432	-1e-05	0.0001	0.00024	3e-05	-2e-05	-0.00022	-6e-05	0.00011	2
6433	-1e-05	0.0001	0.00024	3e-05	-2e-05	-0.00022	-6e-05	0.00011	2
6434	-1e-05	0.0001	0.00024	3e-05	-2e-05	-0.00022	-6e-05	0.00011	2
6435	-1e-05	0.0001	0.00024	3e-05	-2e-05	-0.00022	-6e-05	0.00011	2
6436	-1e-05	0.0001	0.00024	3e-05	-2e-05	-0.00022	-6e-05	0.00011	2
6438	-6e-05	2e-05	0.00013	5e-05	-6e-05	-0.00022	-6e-05	5e-05	2
6439	-4e-05	-3e-05	0	-4e-05	0	-3e-05	-7e-05	-8e-05	2
6440	-4e-05	-3e-05	0	-4e-05	0	-3e-05	-7e-05	-8e-05	2
6441	-4e-05	-3e-05	0	-4e-05	0	-3e-05	-7e-05	-8e-05	2
6442	-4e-05	-3e-05	0	-4e-05	0	-3e-05	-7e-05	-8e-05	2
6443	-4e-05	-3e-05	0	-4e-05	0	-3e-05	-7e-05	-8e-05	2
6444	-4e-05	-3e-05	0	-4e-05	0	-3e-05	-7e-05	-8e-05	2
6445	-4e-05	-3e-05	0	-4e-05	0	-3e-05	-7e-05	-8e-05	2
6446	-4e-05	-3e-05	0	-4e-05	0	-3e-05	-7e-05	-8e-05	2
6447	-4e-05	-3e-05	0	-4e-05	0	-3e-05	-7e-05	-8e-05	2
6448	-4e-05	-3e-05	0	-4e-05	0	-3e-05	-7e-05	-8e-05	2
6449	-4e-05	-3e-05	0	-4e-05	0	-3e-05	-7e-05	-8e-05	2
6450	3e-05	0	-0.00013	-0.00019	-3e-05	-5e-05	9e-05	7e-05	2
6451	-3e-05	3e-05	0.00015	0.00013	2e-05	0.00028	-5e-05	-0.00016	2
6452	-3e-05	3e-05	0.00015	0.00013	2e-05	0.00028	-5e-05	-0.00016	2
6453	-3e-05	3e-05	0.00015	0.00013	2e-05	0.00028	-5e-05	-0.00016	2
6454	-3e-05	3e-05	0.00015	0.00013	2e-05	0.00028	-5e-05	-0.00016	2
6455	-3e-05	3e-05	0.00015	0.00013	2e-05	0.00028	-5e-05	-0.00016	2
6456	-3e-05	3e-05	0.00015	0.00013	2e-05	0.00028	-5e-05	-0.00016	2
6457	-3e-05	3e-05	0.00015	0.00013	2e-05	0.00028	-5e-05	-0.00016	2
6458	-3e-05	3e-05	0.00015	0.00013	2e-05	0.00028	-5e-05	-0.00016	2
6459	-3e-05	3e-05	0.00015	0.00013	2e-05	0.00028	-5e-05	-0.00016	2
6460	-3e-05	3e-05	0.00015	0.00013	2e-05	0.00028	-5e-05	-0.00016	2
6461	-3e-05	3e-05	0.00015	0.00013	2e-05	0.00028	-5e-05	-0.00016	2
6462	-3e-05	3e-05	0.00015	0.00013	2e-05	0.00028	-5e-05	-0.00016	2
6463	-3e-05	3e-05	0.00015	0.00013	2e-05	0.00028	-5e-05	-0.00016	2
6464	-3e-05	3e-05	0.00015	0.00013	2e-05	0.00028	-5e-05	-0.00016	2
6465	-3e-05	3e-05	0.00015	0.00013	2e-05	0.00028	-5e-05	-0.00016	2
6466	-3e-05	3e-05	0.00015	0.00013	2e-05	0.00028	-5e-05	-0.00016	2
6467	6e-05	3e-05	0.0001	-3e-05	-4e-05	-9e-05	7e-05	0.00011	2
6468	6e-05	3e-05	0.0001	-3e-05	-4e-05	-9e-05	7e-05	0.00011	2
6469	6e-05	3e-05	0.0001	-3e-05	-4e-05	-9e-05	7e-05	0.00011	2
6470	6e-05	3e-05	0.0001	-3e-05	-4e-05	-9e-05	7e-05	0.00011	2
6471	6e-05	3e-05	0.0001	-3e-05	-4e-05	-9e-05	7e-05	0.00011	2
6472	6e-05	3e-05	0.0001	-3e-05	-4e-05	-9e-05	7e-05	0.00011	2
6473	6e-05	3e-05	0.0001	-3e-05	-4e-05	-9e-05	7e-05	0.00011	2
6474	6e-05	3e-05	0.0001	-3e-05	-4e-05	-9e-05	7e-05	0.00011	2
6475	5e-05	2e-05	5e-05	2e-05	1e-05	-1e-05	4e-05	3e-05	2
6476	5e-05	2e-05	5e-05	2e-05	1e-05	-1e-05	4e-05	3e-05	2
6477	5e-05	2e-05	5e-05	2e-05	1e-05	-1e-05	4e-05	3e-05	2
6478	5e-05	2e-05	5e-05	2e-05	1e-05	-1e-05	4e-05	3e-05	2
6479	5e-05	2e-05	5e-05	2e-05	1e-05	-1e-05	4e-05	3e-05	2
6480	5e-05	2e-05	5e-05	2e-05	1e-05	-1e-05	4e-05	3e-05	2
6481	5e-05	2e-05	5e-05	2e-05	1e-05	-1e-05	4e-05	3e-05	2
6482	5e-05	2e-05	5e-05	2e-05	1e-05	-1e-05	4e-05	3e-05	2
6483	5e-05	2e-05	5e-05	2e-05	1e-05	-1e-05	4e-05	3e-05	2
6484	5e-05	2e-05	5e-05	2e-05	1e-05	-1e-05	4e-05	3e-05	2
6485	5e-05	2e-05	5e-05	2e-05	1e-05	-1e-05	4e-05	3e-05	2
6486	5e-05	2e-05	5e-05	2e-05	1e-05	-1e-05	4e-05	3e-05	2
6489	1e-05	-2e-05	-7e-05	-2e-05	5e-05	2e-05	-1e-05	6e-05	2
6490	1e-05	-2e-05	-7e-05	-2e-05	5e-05	2e-05	-1e-05	6e-05	2
6491	1e-05	-2e-05	-7e-05	-2e-05	5e-05	2e-05	-1e-05	6e-05	2
6492	1e-05	-2e-05	-7e-05	-2e-05	5e-05	2e-05	-1e-05	6e-05	2
6493	1e-05	-2e-05	-7e-05	-2e-05	5e-05	2e-05	-1e-05	6e-05	2
6494	1e-05	-2e-05	-7e-05	-2e-05	5e-05	2e-05	-1e-05	6e-05	2
6495	1e-05	-2e-05	-7e-05	-2e-05	5e-05	2e-05	-1e-05	6e-05	2
6496	1e-05	-2e-05	-7e-05	-2e-05	5e-05	2e-05	-1e-05	6e-05	2
6497	-9e-05	2e-05	0.00016	0.00021	-2e-05	-2e-05	-2e-05	2e-05	2
6498	-3e-05	2e-05	0.00017	0.00012	0.00011	0.00017	8e-05	2e-05	2
6499	-3e-05	2e-05	0.00017	0.00012	0.00011	0.00017	8e-05	2e-05	2
6500	-3e-05	2e-05	0.00017	0.00012	0.00011	0.00017	8e-05	2e-05	2
6501	-3e-05	2e-05	0.00017	0.00012	0.00011	0.00017	8e-05	2e-05	2
6502	-3e-05	2e-05	0.00017	0.00012	0.00011	0.00017	8e-05	2e-05	2
6503	-3e-05	2e-05	0.00017	0.00012	0.00011	0.00017	8e-05	2e-05	2
6504	-3e-05	2e-05	0.00017	0.00012	0.00011	0.00017	8e-05	2e-05	2
6505	-3e-05	2e-05	0.00017	0.00012	0.00011	0.00017	8e-05	2e-05	2
6506	-3e-05	2e-05	0.00017	0.00012	0.00011	0.00017	8e-05	2e-05	2
6507	-3e-05	2e-05	0.00017	0.00012	0.00011	0.00017	8e-05	2e-05	2
6508	-3e-05	2e-05	0.00017	0.00012	0.00011	0.00017	8e-05	2e-05	2
6509	-3e-05	2e-05	0.00017	0.00012	0.00011	0.00017	8e-05	2e-05	2
6510	-3e-05	2e-05	0.00017	0.00012	0.00011	0.00017	8e-05	2e-05	2
6511	-3e-05	2e-05	0.00017	0.00012	0.00011	0.00017	8e-05	2e-05	2
6512	-3e-05	2e-05	0.00017	0.00012	0.00011	0.00017	8e-05	2e-05	2
6513	-3e-05	2e-05	0.00017	0.00012	0.00011	0.00017	8e-05	2e-05	2
6514	-3e-05	2e-05	0.00017	0.00012	0.00011	0.00017	8e-05	2e-05	2
6515	-3e-05	2e-05	0.00017	0.00012	0.00011	0.00017	8e-05	2e-05	2
6516	-3e-05	2e-05	0.00017	0.00012	0.00011	0.00017	8e-05	2e-05	2
6517	-3e-05	2e-05	0.00017	0.00012	0.00011	0.00017	8e-05	2e-05	2
6518	-3e-05	2e-05	0.00017	0.00012	0.00011	0.00017	8e-05	2e-05	2
6519	8e-05	9e-05	8e-05	9e-05	3e-05	-7e-05	4e-05	5e-05	2
6520	8e-05	9e-05	8e-05	9e-05	3e-05	-7e-05	4e-05	5e-05	2
6521	-0.00012	-4e-05	2e-05	-9e-05	-6e-05	0.00024	3e-05	7e-05	2
6522	-0.00012	-4e-05	2e-05	-9e-05	-6e-05	0.00024	3e-05	7e-05	2
6523	-0.00012	-4e-05	2e-05	-9e-05	-6e-05	0.00024	3e-05	7e-05	2
6524	-0.00012	-4e-05	2e-05	-9e-05	-6e-05	0.00024	3e-05	7e-05	2
6525	-0.00012	-4e-05	2e-05	-9e-05	-6e-05	0.00024	3e-05	7e-05	2
6526	-0.00012	-4e-05	2e-05	-9e-05	-6e-05	0.00024	3e-05	7e-05	2
6527	-0.00012	-4e-05	2e-05	-9e-05	-6e-05	0.00024	3e-05	7e-05	2
6528	-0.00012	-4e-05	2e-05	-9e-05	-6e-05	0.00024	3e-05	7e-05	2
6529	-0.00012	-4e-05	2e-05	-9e-05	-6e-05	0.00024	3e-05	7e-05	2
6530	-0.00012	-4e-05	2e-05	-9e-05	-6e-05	0.00024	3e-05	7e-05	2
6531	-0.00012	-4e-05	2e-05	-9e-05	-6e-05	0.00024	3e-05	7e-05	2
6532	-0.00012	-4e-05	2e-05	-9e-05	-6e-05	0.00024	3e-05	7e-05	2
6533	-0.00012	-4e-05	2e-05	-9e-05	-6e-05	0.00024	3e-05	7e-05	2
6534	-5e-05	-1e-05	6e-05	-5e-05	-3e-05	-0.00018	-5e-05	-4e-05	2
6535	-5e-05	-1e-05	6e-05	-5e-05	-3e-05	-0.00018	-5e-05	-4e-05	2
6536	-3e-05	-3e-05	-9e-05	1e-05	-4e-05	-7e-05	-3e-05	0.00011	2
6538	-3e-05	-3e-05	-9e-05	1e-05	-4e-05	-7e-05	-3e-05	0.00011	2
6539	-3e-05	-3e-05	-9e-05	1e-05	-4e-05	-7e-05	-3e-05	0.00011	2
6540	-3e-05	-3e-05	-9e-05	1e-05	-4e-05	-7e-05	-3e-05	0.00011	2
6541	-3e-05	-3e-05	-9e-05	1e-05	-4e-05	-7e-05	-3e-05	0.00011	2
6542	-3e-05	-3e-05	-9e-05	1e-05	-4e-05	-7e-05	-3e-05	0.00011	2
6543	-3e-05	-3e-05	-9e-05	1e-05	-4e-05	-7e-05	-3e-05	0.00011	2
6544	-3e-05	-3e-05	-9e-05	1e-05	-4e-05	-7e-05	-3e-05	0.00011	2
6545	-3e-05	-3e-05	-9e-05	1e-05	-4e-05	-7e-05	-3e-05	0.00011	2
6546	-3e-05	-3e-05	-9e-05	1e-05	-4e-05	-7e-05	-3e-05	0.00011	2
6547	-3e-05	-3e-05	-9e-05	1e-05	-4e-05	-7e-05	-3e-05	0.00011	2
6548	-3e-05	-3e-05	-9e-05	1e-05	-4e-05	-7e-05	-3e-05	0.00011	2
6549	-3e-05	-3e-05	-9e-05	1e-05	-4e-05	-7e-05	-3e-05	0.00011	2
6550	-3e-05	-3e-05	-9e-05	1e-05	-4e-05	-7e-05	-3e-05	0.00011	2
6551	-3e-05	-3e-05	-9e-05	1e-05	-4e-05	-7e-05	-3e-05	0.00011	2
6552	-3e-05	-3e-05	-9e-05	1e-05	-4e-05	-7e-05	-3e-05	0.00011	2
6553	-3e-05	-3e-05	-9e-05	1e-05	-4e-05	-7e-05	-3e-05	0.00011	2
6554	-3e-05	-3e-05	-9e-05	1e-05	-4e-05	-7e-05	-3e-05	0.00011	2
6555	-3e-05	-3e-05	-9e-05	1e-05	-4e-05	-7e-05	-3e-05	0.00011	2
6556	-3e-05	-3e-05	-9e-05	1e-05	-4e-05	-7e-05	-3e-05	0.00011	2
6557	-3e-05	-3e-05	-9e-05	1e-05	-4e-05	-7e-05	-3e-05	0.00011	2
6558	7e-05	0.0001	0.00028	0.00019	2e-05	2e-05	4e-05	-4e-05	2
6559	0.00013	-1e-05	-0.00015	0	-3e-05	-6e-05	-9e-05	-0.0002	2
6560	0.00013	-1e-05	-0.00015	0	-3e-05	-6e-05	-9e-05	-0.0002	2
6561	0.00013	-1e-05	-0.00015	0	-3e-05	-6e-05	-9e-05	-0.0002	2
6562	0.00013	-1e-05	-0.00015	0	-3e-05	-6e-05	-9e-05	-0.0002	2
6563	0.00013	-1e-05	-0.00015	0	-3e-05	-6e-05	-9e-05	-0.0002	2
6564	0.00013	-1e-05	-0.00015	0	-3e-05	-6e-05	-9e-05	-0.0002	2
6565	0.00013	-1e-05	-0.00015	0	-3e-05	-6e-05	-9e-05	-0.0002	2
6566	0.00013	-1e-05	-0.00015	0	-3e-05	-6e-05	-9e-05	-0.0002	2
6567	0.00013	-1e-05	-0.00015	0	-3e-05	-6e-05	-9e-05	-0.0002	2
6569	0.00013	-1e-05	-0.00015	0	-3e-05	-6e-05	-9e-05	-0.0002	2
6570	0.00013	-1e-05	-0.00015	0	-3e-05	-6e-05	-9e-05	-0.0002	2
6571	0.00013	-1e-05	-0.00015	0	-3e-05	-6e-05	-9e-05	-0.0002	2
6572	0.00013	-1e-05	-0.00015	0	-3e-05	-6e-05	-9e-05	-0.0002	2
6573	0.00013	-1e-05	-0.00015	0	-3e-05	-6e-05	-9e-05	-0.0002	2
6574	0.00013	-1e-05	-0.00015	0	-3e-05	-6e-05	-9e-05	-0.0002	2
6575	0.00013	-1e-05	-0.00015	0	-3e-05	-6e-05	-9e-05	-0.0002	2
6576	0.00013	-1e-05	-0.00015	0	-3e-05	-6e-05	-9e-05	-0.0002	2
6577	0.00013	-1e-05	-0.00015	0	-3e-05	-6e-05	-9e-05	-0.0002	2
6578	0.00013	-1e-05	-0.00015	0	-3e-05	-6e-05	-9e-05	-0.0002	2
6579	0	-1e-05	2e-05	-7e-05	-4e-05	2e-05	5e-05	0.00024	2
6580	0	-1e-05	2e-05	-7e-05	-4e-05	2e-05	5e-05	0.00024	2
6581	0.00012	0.00011	0.00017	0.00022	0	-1e-05	-9e-05	-0.0001	2
6582	0.00012	0.00011	0.00017	0.00022	0	-1e-05	-9e-05	-0.0001	2
6583	0.00012	0.00011	0.00017	0.00022	0	-1e-05	-9e-05	-0.0001	2
6584	0.00012	0.00011	0.00017	0.00022	0	-1e-05	-9e-05	-0.0001	2
6585	0.00012	0.00011	0.00017	0.00022	0	-1e-05	-9e-05	-0.0001	2
6586	0.00012	0.00011	0.00017	0.00022	0	-1e-05	-9e-05	-0.0001	2
6588	0.00012	0.00011	0.00017	0.00022	0	-1e-05	-9e-05	-0.0001	2
6589	0.00012	0.00011	0.00017	0.00022	0	-1e-05	-9e-05	-0.0001	2
6590	0.00012	0.00011	0.00017	0.00022	0	-1e-05	-9e-05	-0.0001	2
6591	0.00012	0.00011	0.00017	0.00022	0	-1e-05	-9e-05	-0.0001	2
6592	0.00012	0.00011	0.00017	0.00022	0	-1e-05	-9e-05	-0.0001	2
6593	0.00012	0.00011	0.00017	0.00022	0	-1e-05	-9e-05	-0.0001	2
6594	-4e-05	-6e-05	-0.0001	-3e-05	1e-05	-6e-05	0	4e-05	2
6595	-7e-05	-6e-05	1e-05	-4e-05	-3e-05	7e-05	-1e-05	-0.00012	2
6596	-1e-05	6e-05	0.00012	0	2e-05	-0.0001	-2e-05	7e-05	2
6597	-1e-05	6e-05	0.00012	0	2e-05	-0.0001	-2e-05	7e-05	2
6598	-1e-05	6e-05	0.00012	0	2e-05	-0.0001	-2e-05	7e-05	2
6599	-1e-05	6e-05	0.00012	0	2e-05	-0.0001	-2e-05	7e-05	2
6600	-1e-05	6e-05	0.00012	0	2e-05	-0.0001	-2e-05	7e-05	2
6601	-1e-05	6e-05	0.00012	0	2e-05	-0.0001	-2e-05	7e-05	2
6602	-1e-05	6e-05	0.00012	0	2e-05	-0.0001	-2e-05	7e-05	2
6603	-1e-05	6e-05	0.00012	0	2e-05	-0.0001	-2e-05	7e-05	2
6604	-1e-05	6e-05	0.00012	0	2e-05	-0.0001	-2e-05	7e-05	2
6605	-1e-05	6e-05	0.00012	0	2e-05	-0.0001	-2e-05	7e-05	2
6606	-1e-05	6e-05	0.00012	0	2e-05	-0.0001	-2e-05	7e-05	2
6607	-1e-05	6e-05	0.00012	0	2e-05	-0.0001	-2e-05	7e-05	2
6608	-1e-05	6e-05	0.00012	0	2e-05	-0.0001	-2e-05	7e-05	2
6609	-1e-05	6e-05	0.00012	0	2e-05	-0.0001	-2e-05	7e-05	2
6610	-1e-05	6e-05	0.00012	0	2e-05	-0.0001	-2e-05	7e-05	2
6611	-1e-05	6e-05	0.00012	0	2e-05	-0.0001	-2e-05	7e-05	2
6612	-1e-05	6e-05	0.00012	0	2e-05	-0.0001	-2e-05	7e-05	2
6613	-1e-05	6e-05	0.00012	0	2e-05	-0.0001	-2e-05	7e-05	2
6614	-1e-05	6e-05	0.00012	0	2e-05	-0.0001	-2e-05	7e-05	2
6615	-1e-05	6e-05	0.00012	0	2e-05	-0.0001	-2e-05	7e-05	2
6616	-1e-05	6e-05	0.00012	0	2e-05	-0.0001	-2e-05	7e-05	2
6617	-5e-05	0	9e-05	5e-05	5e-05	7e-05	-2e-05	1e-05	2
6618	-5e-05	0	9e-05	5e-05	5e-05	7e-05	-2e-05	1e-05	2
6619	-5e-05	0	9e-05	5e-05	5e-05	7e-05	-2e-05	1e-05	2
6620	-5e-05	0	9e-05	5e-05	5e-05	7e-05	-2e-05	1e-05	2
6621	-5e-05	0	9e-05	5e-05	5e-05	7e-05	-2e-05	1e-05	2
6622	-5e-05	0	9e-05	5e-05	5e-05	7e-05	-2e-05	1e-05	2
6623	-5e-05	0	9e-05	5e-05	5e-05	7e-05	-2e-05	1e-05	2
6624	-5e-05	0	9e-05	5e-05	5e-05	7e-05	-2e-05	1e-05	2
6625	-5e-05	0	9e-05	5e-05	5e-05	7e-05	-2e-05	1e-05	2
6626	-5e-05	0	9e-05	5e-05	5e-05	7e-05	-2e-05	1e-05	2
6627	-5e-05	0	9e-05	5e-05	5e-05	7e-05	-2e-05	1e-05	2
6628	-5e-05	0	9e-05	5e-05	5e-05	7e-05	-2e-05	1e-05	2
6629	-5e-05	0	9e-05	5e-05	5e-05	7e-05	-2e-05	1e-05	2
6630	-5e-05	0	9e-05	5e-05	5e-05	7e-05	-2e-05	1e-05	2
6631	-0.0001	-9e-05	-0.00027	-0.00017	3e-05	0.00015	1e-05	-0.00027	2
6632	2e-05	4e-05	0	-4e-05	-3e-05	-1e-05	-2e-05	3e-05	2
6633	2e-05	4e-05	0	-4e-05	-3e-05	-1e-05	-2e-05	3e-05	2
6634	2e-05	4e-05	0	-4e-05	-3e-05	-1e-05	-2e-05	3e-05	2
6635	2e-05	4e-05	0	-4e-05	-3e-05	-1e-05	-2e-05	3e-05	2
6636	2e-05	4e-05	0	-4e-05	-3e-05	-1e-05	-2e-05	3e-05	2
6638	2e-05	4e-05	0	-4e-05	-3e-05	-1e-05	-2e-05	3e-05	2
6639	-0.00018	-0.00011	-2e-05	-3e-05	-7e-05	0	-4e-05	1e-05	2
6640	-0.00018	-0.00011	-2e-05	-3e-05	-7e-05	0	-4e-05	1e-05	2
6641	-0.00018	-0.00011	-2e-05	-3e-05	-7e-05	0	-4e-05	1e-05	2
6642	-0.00018	-0.00011	-2e-05	-3e-05	-7e-05	0	-4e-05	1e-05	2
6643	-0.00018	-0.00011	-2e-05	-3e-05	-7e-05	0	-4e-05	1e-05	2
6644	-0.00018	-0.00011	-2e-05	-3e-05	-7e-05	0	-4e-05	1e-05	2
6645	-0.00018	-0.00011	-2e-05	-3e-05	-7e-05	0	-4e-05	1e-05	2
6646	-0.00018	-0.00011	-2e-05	-3e-05	-7e-05	0	-4e-05	1e-05	2
6647	-0.00018	-0.00011	-2e-05	-3e-05	-7e-05	0	-4e-05	1e-05	2
6648	-0.00018	-0.00011	-2e-05	-3e-05	-7e-05	0	-4e-05	1e-05	2
6649	-0.00018	-0.00011	-2e-05	-3e-05	-7e-05	0	-4e-05	1e-05	2
6650	-0.00018	-0.00011	-2e-05	-3e-05	-7e-05	0	-4e-05	1e-05	2
6651	-0.00018	-0.00011	-2e-05	-3e-05	-7e-05	0	-4e-05	1e-05	2
6652	-0.00018	-0.00011	-2e-05	-3e-05	-7e-05	0	-4e-05	1e-05	2
6653	-0.00018	-0.00011	-2e-05	-3e-05	-7e-05	0	-4e-05	1e-05	2
6654	-8e-05	-7e-05	-4e-05	-9e-05	-8e-05	-8e-05	3e-05	5e-05	2
6655	-8e-05	-7e-05	-4e-05	-9e-05	-8e-05	-8e-05	3e-05	5e-05	2
6656	6e-05	6e-05	0.00016	-3e-05	-4e-05	0	6e-05	9e-05	2
6657	6e-05	6e-05	0.00016	-3e-05	-4e-05	0	6e-05	9e-05	2
6658	6e-05	6e-05	0.00016	-3e-05	-4e-05	0	6e-05	9e-05	2
6659	6e-05	6e-05	0.00016	-3e-05	-4e-05	0	6e-05	9e-05	2
6660	6e-05	6e-05	0.00016	-3e-05	-4e-05	0	6e-05	9e-05	2
6661	6e-05	6e-05	0.00016	-3e-05	-4e-05	0	6e-05	9e-05	2
6662	6e-05	6e-05	0.00016	-3e-05	-4e-05	0	6e-05	9e-05	2
6663	6e-05	6e-05	0.00016	-3e-05	-4e-05	0	6e-05	9e-05	2
6664	6e-05	6e-05	0.00016	-3e-05	-4e-05	0	6e-05	9e-05	2
6665	6e-05	6e-05	0.00016	-3e-05	-4e-05	0	6e-05	9e-05	2
6666	6e-05	6e-05	0.00016	-3e-05	-4e-05	0	6e-05	9e-05	2
6667	6e-05	6e-05	0.00016	-3e-05	-4e-05	0	6e-05	9e-05	2
6668	6e-05	6e-05	0.00016	-3e-05	-4e-05	0	6e-05	9e-05	2
6669	6e-05	6e-05	0.00016	-3e-05	-4e-05	0	6e-05	9e-05	2
6670	6e-05	6e-05	0.00016	-3e-05	-4e-05	0	6e-05	9e-05	2
6671	6e-05	6e-05	0.00016	-3e-05	-4e-05	0	6e-05	9e-05	2
6672	6e-05	6e-05	0.00016	-3e-05	-4e-05	0	6e-05	9e-05	2
6673	6e-05	6e-05	0.00016	-3e-05	-4e-05	0	6e-05	9e-05	2
6674	6e-05	6e-05	0.00016	-3e-05	-4e-05	0	6e-05	9e-05	2
6675	6e-05	6e-05	0.00016	-3e-05	-4e-05	0	6e-05	9e-05	2
6676	6e-05	6e-05	0.00016	-3e-05	-4e-05	0	6e-05	9e-05	2
6677	0.00011	4e-05	-1e-05	-1e-05	8e-05	-9e-05	-0.00015	-0.00012	2
6678	0	-6e-05	-0.0003	-0.0001	-8e-05	-0.00015	-0.00011	-3e-05	2
6679	0	-6e-05	-0.0003	-0.0001	-8e-05	-0.00015	-0.00011	-3e-05	2
6680	0	-6e-05	-0.0003	-0.0001	-8e-05	-0.00015	-0.00011	-3e-05	2
6681	0	-6e-05	-0.0003	-0.0001	-8e-05	-0.00015	-0.00011	-3e-05	2
6682	0	-6e-05	-0.0003	-0.0001	-8e-05	-0.00015	-0.00011	-3e-05	2
6683	0	-6e-05	-0.0003	-0.0001	-8e-05	-0.00015	-0.00011	-3e-05	2
6684	0	-6e-05	-0.0003	-0.0001	-8e-05	-0.00015	-0.00011	-3e-05	2
6685	0	-6e-05	-0.0003	-0.0001	-8e-05	-0.00015	-0.00011	-3e-05	2
6686	0	-6e-05	-0.0003	-0.0001	-8e-05	-0.00015	-0.00011	-3e-05	2
6688	0	-6e-05	-0.0003	-0.0001	-8e-05	-0.00015	-0.00011	-3e-05	2
6689	0	-6e-05	-0.0003	-0.0001	-8e-05	-0.00015	-0.00011	-3e-05	2
6690	0	-6e-05	-0.0003	-0.0001	-8e-05	-0.00015	-0.00011	-3e-05	2
6691	0	-6e-05	-0.0003	-0.0001	-8e-05	-0.00015	-0.00011	-3e-05	2
6692	0	-6e-05	-0.0003	-0.0001	-8e-05	-0.00015	-0.00011	-3e-05	2
6693	0	-6e-05	-0.0003	-0.0001	-8e-05	-0.00015	-0.00011	-3e-05	2
6694	0	-6e-05	-0.0003	-0.0001	-8e-05	-0.00015	-0.00011	-3e-05	2
6695	0	-6e-05	-0.0003	-0.0001	-8e-05	-0.00015	-0.00011	-3e-05	2
6696	0	-6e-05	-0.0003	-0.0001	-8e-05	-0.00015	-0.00011	-3e-05	2
6697	0	-6e-05	-0.0003	-0.0001	-8e-05	-0.00015	-0.00011	-3e-05	2
6698	0	-6e-05	-0.0003	-0.0001	-8e-05	-0.00015	-0.00011	-3e-05	2
6699	0.00024	6e-05	-4e-05	7e-05	4e-05	0.00018	0.00022	0.00024	2
6700	0.00024	6e-05	-4e-05	7e-05	4e-05	0.00018	0.00022	0.00024	2
6701	0.00013	8e-05	0.00015	0.00014	8e-05	0.00021	0.00018	0.00023	2
6702	0.00013	8e-05	0.00015	0.00014	8e-05	0.00021	0.00018	0.00023	2
6703	0.00013	8e-05	0.00015	0.00014	8e-05	0.00021	0.00018	0.00023	2
6704	0.00013	8e-05	0.00015	0.00014	8e-05	0.00021	0.00018	0.00023	2
6705	0.00013	8e-05	0.00015	0.00014	8e-05	0.00021	0.00018	0.00023	2
6706	0.00013	8e-05	0.00015	0.00014	8e-05	0.00021	0.00018	0.00023	2
6707	0.00013	8e-05	0.00015	0.00014	8e-05	0.00021	0.00018	0.00023	2
6708	0.00013	8e-05	0.00015	0.00014	8e-05	0.00021	0.00018	0.00023	2
6709	0.00013	8e-05	0.00015	0.00014	8e-05	0.00021	0.00018	0.00023	2
6710	0.00013	8e-05	0.00015	0.00014	8e-05	0.00021	0.00018	0.00023	2
6711	0.00013	8e-05	0.00015	0.00014	8e-05	0.00021	0.00018	0.00023	2
6712	0.00013	8e-05	0.00015	0.00014	8e-05	0.00021	0.00018	0.00023	2
6713	0.00013	8e-05	0.00015	0.00014	8e-05	0.00021	0.00018	0.00023	2
6714	0	-2e-05	-9e-05	-2e-05	-4e-05	-5e-05	-1e-05	-2e-05	2
6715	0	-2e-05	-9e-05	-2e-05	-4e-05	-5e-05	-1e-05	-2e-05	2
6716	7e-05	-0.00014	-0.00028	-0.00011	-4e-05	6e-05	1e-05	0.00037	2
6717	7e-05	-0.00014	-0.00028	-0.00011	-4e-05	6e-05	1e-05	0.00037	2
6718	7e-05	-0.00014	-0.00028	-0.00011	-4e-05	6e-05	1e-05	0.00037	2
6719	7e-05	-0.00014	-0.00028	-0.00011	-4e-05	6e-05	1e-05	0.00037	2
6720	7e-05	-0.00014	-0.00028	-0.00011	-4e-05	6e-05	1e-05	0.00037	2
6721	7e-05	-0.00014	-0.00028	-0.00011	-4e-05	6e-05	1e-05	0.00037	2
6722	7e-05	-0.00014	-0.00028	-0.00011	-4e-05	6e-05	1e-05	0.00037	2
6723	7e-05	-0.00014	-0.00028	-0.00011	-4e-05	6e-05	1e-05	0.00037	2
6724	7e-05	-0.00014	-0.00028	-0.00011	-4e-05	6e-05	1e-05	0.00037	2
6725	7e-05	-0.00014	-0.00028	-0.00011	-4e-05	6e-05	1e-05	0.00037	2
6726	7e-05	-0.00014	-0.00028	-0.00011	-4e-05	6e-05	1e-05	0.00037	2
6727	7e-05	-0.00014	-0.00028	-0.00011	-4e-05	6e-05	1e-05	0.00037	2
6728	7e-05	-0.00014	-0.00028	-0.00011	-4e-05	6e-05	1e-05	0.00037	2
6729	7e-05	-0.00014	-0.00028	-0.00011	-4e-05	6e-05	1e-05	0.00037	2
6730	7e-05	-0.00014	-0.00028	-0.00011	-4e-05	6e-05	1e-05	0.00037	2
6731	7e-05	-0.00014	-0.00028	-0.00011	-4e-05	6e-05	1e-05	0.00037	2
6732	7e-05	-0.00014	-0.00028	-0.00011	-4e-05	6e-05	1e-05	0.00037	2
6733	7e-05	-0.00014	-0.00028	-0.00011	-4e-05	6e-05	1e-05	0.00037	2
6734	7e-05	-0.00014	-0.00028	-0.00011	-4e-05	6e-05	1e-05	0.00037	2
6735	7e-05	-0.00014	-0.00028	-0.00011	-4e-05	6e-05	1e-05	0.00037	2
6736	7e-05	-0.00014	-0.00028	-0.00011	-4e-05	6e-05	1e-05	0.00037	2
6738	-3e-05	-1e-05	-4e-05	-2e-05	-3e-05	-6e-05	-0.00011	-8e-05	2
6739	-0.00012	-1e-05	4e-05	-5e-05	1e-05	-6e-05	-5e-05	-7e-05	2
6740	-0.00012	-1e-05	4e-05	-5e-05	1e-05	-6e-05	-5e-05	-7e-05	2
6741	-0.00012	-1e-05	4e-05	-5e-05	1e-05	-6e-05	-5e-05	-7e-05	2
6742	-0.00012	-1e-05	4e-05	-5e-05	1e-05	-6e-05	-5e-05	-7e-05	2
6743	-0.00012	-1e-05	4e-05	-5e-05	1e-05	-6e-05	-5e-05	-7e-05	2
6744	-0.00012	-1e-05	4e-05	-5e-05	1e-05	-6e-05	-5e-05	-7e-05	2
6745	-0.00012	-1e-05	4e-05	-5e-05	1e-05	-6e-05	-5e-05	-7e-05	2
6746	-0.00012	-1e-05	4e-05	-5e-05	1e-05	-6e-05	-5e-05	-7e-05	2
6747	-0.00012	-1e-05	4e-05	-5e-05	1e-05	-6e-05	-5e-05	-7e-05	2
6748	-0.00012	-1e-05	4e-05	-5e-05	1e-05	-6e-05	-5e-05	-7e-05	2
6749	-0.00012	-1e-05	4e-05	-5e-05	1e-05	-6e-05	-5e-05	-7e-05	2
6750	-0.00012	-1e-05	4e-05	-5e-05	1e-05	-6e-05	-5e-05	-7e-05	2
6751	-0.00012	-1e-05	4e-05	-5e-05	1e-05	-6e-05	-5e-05	-7e-05	2
6752	-0.00012	-1e-05	4e-05	-5e-05	1e-05	-6e-05	-5e-05	-7e-05	2
6753	-0.00012	-1e-05	4e-05	-5e-05	1e-05	-6e-05	-5e-05	-7e-05	2
6754	-0.00012	-1e-05	4e-05	-5e-05	1e-05	-6e-05	-5e-05	-7e-05	2
6755	-0.00012	-1e-05	4e-05	-5e-05	1e-05	-6e-05	-5e-05	-7e-05	2
6756	-0.00012	-1e-05	4e-05	-5e-05	1e-05	-6e-05	-5e-05	-7e-05	2
6757	-0.00012	-1e-05	4e-05	-5e-05	1e-05	-6e-05	-5e-05	-7e-05	2
6758	-0.00012	-1e-05	4e-05	-5e-05	1e-05	-6e-05	-5e-05	-7e-05	2
6759	-0.00017	-0.00012	-0.00022	-0.00013	-5e-05	4e-05	-5e-05	-7e-05	2
6760	-0.00017	-0.00012	-0.00022	-0.00013	-5e-05	4e-05	-5e-05	-7e-05	2
6761	2e-05	9e-05	0.00012	0.00013	1e-05	-5e-05	0	1e-05	2
6762	2e-05	9e-05	0.00012	0.00013	1e-05	-5e-05	0	1e-05	2
6763	2e-05	9e-05	0.00012	0.00013	1e-05	-5e-05	0	1e-05	2
6764	2e-05	9e-05	0.00012	0.00013	1e-05	-5e-05	0	1e-05	2
6765	2e-05	9e-05	0.00012	0.00013	1e-05	-5e-05	0	1e-05	2
6766	2e-05	9e-05	0.00012	0.00013	1e-05	-5e-05	0	1e-05	2
6767	2e-05	9e-05	0.00012	0.00013	1e-05	-5e-05	0	1e-05	2
6768	2e-05	9e-05	0.00012	0.00013	1e-05	-5e-05	0	1e-05	2
6769	2e-05	9e-05	0.00012	0.00013	1e-05	-5e-05	0	1e-05	2
6770	2e-05	9e-05	0.00012	0.00013	1e-05	-5e-05	0	1e-05	2
6771	2e-05	9e-05	0.00012	0.00013	1e-05	-5e-05	0	1e-05	2
6772	2e-05	9e-05	0.00012	0.00013	1e-05	-5e-05	0	1e-05	2
6773	0	7e-05	0.00016	0.00021	2e-05	-5e-05	0.00011	-1e-05	2
6774	0	7e-05	0.00016	0.00021	2e-05	-5e-05	0.00011	-1e-05	2
6775	0	7e-05	0.00016	0.00021	2e-05	-5e-05	0.00011	-1e-05	2
6776	0	7e-05	0.00016	0.00021	2e-05	-5e-05	0.00011	-1e-05	2
6777	0	7e-05	0.00016	0.00021	2e-05	-5e-05	0.00011	-1e-05	2
6778	0	7e-05	0.00016	0.00021	2e-05	-5e-05	0.00011	-1e-05	2
6779	0	7e-05	0.00016	0.00021	2e-05	-5e-05	0.00011	-1e-05	2
6780	0	7e-05	0.00016	0.00021	2e-05	-5e-05	0.00011	-1e-05	2
6781	0	7e-05	0.00016	0.00021	2e-05	-5e-05	0.00011	-1e-05	2
6782	-0.00035	-0.00012	-5e-05	-0.00017	-5e-05	-1e-05	-6e-05	-0.00037	2
6783	-0.00035	-0.00012	-5e-05	-0.00017	-5e-05	-1e-05	-6e-05	-0.00037	2
6784	-0.00035	-0.00012	-5e-05	-0.00017	-5e-05	-1e-05	-6e-05	-0.00037	2
6785	-0.00035	-0.00012	-5e-05	-0.00017	-5e-05	-1e-05	-6e-05	-0.00037	2
6786	-0.00035	-0.00012	-5e-05	-0.00017	-5e-05	-1e-05	-6e-05	-0.00037	2
6788	-0.00035	-0.00012	-5e-05	-0.00017	-5e-05	-1e-05	-6e-05	-0.00037	2
6789	-0.00035	-0.00012	-5e-05	-0.00017	-5e-05	-1e-05	-6e-05	-0.00037	2
6790	-0.00035	-0.00012	-5e-05	-0.00017	-5e-05	-1e-05	-6e-05	-0.00037	2
6791	-0.00035	-0.00012	-5e-05	-0.00017	-5e-05	-1e-05	-6e-05	-0.00037	2
6792	-0.00035	-0.00012	-5e-05	-0.00017	-5e-05	-1e-05	-6e-05	-0.00037	2
6793	-0.00035	-0.00012	-5e-05	-0.00017	-5e-05	-1e-05	-6e-05	-0.00037	2
6794	-0.00035	-0.00012	-5e-05	-0.00017	-5e-05	-1e-05	-6e-05	-0.00037	2
6795	-0.00035	-0.00012	-5e-05	-0.00017	-5e-05	-1e-05	-6e-05	-0.00037	2
6796	-0.00035	-0.00012	-5e-05	-0.00017	-5e-05	-1e-05	-6e-05	-0.00037	2
6797	2e-05	4e-05	3e-05	-6e-05	-8e-05	-0.00012	-0.00014	1e-05	2
28846	3e-05	0.00013	0.00041	0.00027	1e-05	-0.00012	2e-05	-4e-05	2
28847	3e-05	0.00013	0.00041	0.00027	1e-05	-0.00012	2e-05	-4e-05	2
28848	3e-05	0.00013	0.00041	0.00027	1e-05	-0.00012	2e-05	-4e-05	2
28849	3e-05	0.00013	0.00041	0.00027	1e-05	-0.00012	2e-05	-4e-05	2
28850	3e-05	0.00013	0.00041	0.00027	1e-05	-0.00012	2e-05	-4e-05	2
28851	3e-05	0.00013	0.00041	0.00027	1e-05	-0.00012	2e-05	-4e-05	2
28852	3e-05	0.00013	0.00041	0.00027	1e-05	-0.00012	2e-05	-4e-05	2
28853	3e-05	0.00013	0.00041	0.00027	1e-05	-0.00012	2e-05	-4e-05	2
28854	3e-05	0.00013	0.00041	0.00027	1e-05	-0.00012	2e-05	-4e-05	2
28855	3e-05	0.00013	0.00041	0.00027	1e-05	-0.00012	2e-05	-4e-05	2
28856	3e-05	0.00013	0.00041	0.00027	1e-05	-0.00012	2e-05	-4e-05	2
28857	3e-05	0.00013	0.00041	0.00027	1e-05	-0.00012	2e-05	-4e-05	2
28858	3e-05	0.00013	0.00041	0.00027	1e-05	-0.00012	2e-05	-4e-05	2
28859	3e-05	0.00013	0.00041	0.00027	1e-05	-0.00012	2e-05	-4e-05	2
28860	3e-05	0.00013	0.00041	0.00027	1e-05	-0.00012	2e-05	-4e-05	2
28861	3e-05	0.00013	0.00041	0.00027	1e-05	-0.00012	2e-05	-4e-05	2
28862	3e-05	0.00013	0.00041	0.00027	1e-05	-0.00012	2e-05	-4e-05	2
28863	-0.00026	-6e-05	-2e-05	2e-05	0.0001	1e-05	-0.00011	-3e-05	2
28864	-0.00026	-6e-05	-2e-05	2e-05	0.0001	1e-05	-0.00011	-3e-05	2
28865	-0.00026	-6e-05	-2e-05	2e-05	0.0001	1e-05	-0.00011	-3e-05	2
28866	-0.00026	-6e-05	-2e-05	2e-05	0.0001	1e-05	-0.00011	-3e-05	2
28867	-0.00026	-6e-05	-2e-05	2e-05	0.0001	1e-05	-0.00011	-3e-05	2
28868	-0.00026	-6e-05	-2e-05	2e-05	0.0001	1e-05	-0.00011	-3e-05	2
28870	-0.00026	-6e-05	-2e-05	2e-05	0.0001	1e-05	-0.00011	-3e-05	2
28871	-0.00026	-6e-05	-2e-05	2e-05	0.0001	1e-05	-0.00011	-3e-05	2
28872	-0.00026	-6e-05	-2e-05	2e-05	0.0001	1e-05	-0.00011	-3e-05	2
28873	-0.00026	-6e-05	-2e-05	2e-05	0.0001	1e-05	-0.00011	-3e-05	2
28874	-0.00026	-6e-05	-2e-05	2e-05	0.0001	1e-05	-0.00011	-3e-05	2
28875	-0.00026	-6e-05	-2e-05	2e-05	0.0001	1e-05	-0.00011	-3e-05	2
28876	-0.00026	-6e-05	-2e-05	2e-05	0.0001	1e-05	-0.00011	-3e-05	2
28877	-0.00026	-6e-05	-2e-05	2e-05	0.0001	1e-05	-0.00011	-3e-05	2
28878	-0.00013	-7e-05	-0.00021	-0.00039	-3e-05	-0.00026	-0.00016	-0.00016	2
28879	8e-05	-5e-05	-1e-05	-9e-05	-1e-05	0.00048	0.00015	-5e-05	2
28880	8e-05	-5e-05	-1e-05	-9e-05	-1e-05	0.00048	0.00015	-5e-05	2
28881	8e-05	-5e-05	-1e-05	-9e-05	-1e-05	0.00048	0.00015	-5e-05	2
28882	8e-05	-5e-05	-1e-05	-9e-05	-1e-05	0.00048	0.00015	-5e-05	2
28883	8e-05	-5e-05	-1e-05	-9e-05	-1e-05	0.00048	0.00015	-5e-05	2
28884	8e-05	-5e-05	-1e-05	-9e-05	-1e-05	0.00048	0.00015	-5e-05	2
28885	8e-05	-5e-05	-1e-05	-9e-05	-1e-05	0.00048	0.00015	-5e-05	2
28886	8e-05	-5e-05	-1e-05	-9e-05	-1e-05	0.00048	0.00015	-5e-05	2
28891	8e-05	-5e-05	-1e-05	-9e-05	-1e-05	0.00048	0.00015	-5e-05	2
28892	-8e-05	8e-05	0.00019	0.00013	2e-05	-0.00027	-0.00019	-0.00013	2
28893	-5e-05	1e-05	-3e-05	-0.0003	8e-05	-5e-05	-6e-05	8e-05	2
28894	-5e-05	1e-05	-3e-05	-0.0003	8e-05	-5e-05	-6e-05	8e-05	2
28895	-5e-05	1e-05	-3e-05	-0.0003	8e-05	-5e-05	-6e-05	8e-05	2
28896	-5e-05	1e-05	-3e-05	-0.0003	8e-05	-5e-05	-6e-05	8e-05	2
28897	-5e-05	1e-05	-3e-05	-0.0003	8e-05	-5e-05	-6e-05	8e-05	2
28898	-5e-05	1e-05	-3e-05	-0.0003	8e-05	-5e-05	-6e-05	8e-05	2
28899	-5e-05	1e-05	-3e-05	-0.0003	8e-05	-5e-05	-6e-05	8e-05	2
28900	-5e-05	1e-05	-3e-05	-0.0003	8e-05	-5e-05	-6e-05	8e-05	2
28901	-5e-05	1e-05	-3e-05	-0.0003	8e-05	-5e-05	-6e-05	8e-05	2
28902	-5e-05	1e-05	-3e-05	-0.0003	8e-05	-5e-05	-6e-05	8e-05	2
28903	-5e-05	1e-05	-3e-05	-0.0003	8e-05	-5e-05	-6e-05	8e-05	2
28904	-5e-05	1e-05	-3e-05	-0.0003	8e-05	-5e-05	-6e-05	8e-05	2
28905	-5e-05	1e-05	-3e-05	-0.0003	8e-05	-5e-05	-6e-05	8e-05	2
28906	-5e-05	1e-05	-3e-05	-0.0003	8e-05	-5e-05	-6e-05	8e-05	2
28907	-5e-05	1e-05	-3e-05	-0.0003	8e-05	-5e-05	-6e-05	8e-05	2
28909	-5e-05	1e-05	-3e-05	-0.0003	8e-05	-5e-05	-6e-05	8e-05	2
28910	-5e-05	1e-05	-3e-05	-0.0003	8e-05	-5e-05	-6e-05	8e-05	2
28911	-5e-05	1e-05	-3e-05	-0.0003	8e-05	-5e-05	-6e-05	8e-05	2
28912	-5e-05	1e-05	-3e-05	-0.0003	8e-05	-5e-05	-6e-05	8e-05	2
28913	-5e-05	1e-05	-3e-05	-0.0003	8e-05	-5e-05	-6e-05	8e-05	2
28914	-5e-05	1e-05	-3e-05	-0.0003	8e-05	-5e-05	-6e-05	8e-05	2
28915	0.00014	0.00014	0.00025	0.00013	0	0.00018	0.00018	0.00024	2
28916	-4e-05	-7e-05	-0.0004	4e-05	3e-05	-0.00045	-5e-05	-5e-05	2
28917	-4e-05	-7e-05	-0.0004	4e-05	3e-05	-0.00045	-5e-05	-5e-05	2
28918	-4e-05	-7e-05	-0.0004	4e-05	3e-05	-0.00045	-5e-05	-5e-05	2
28919	-4e-05	-7e-05	-0.0004	4e-05	3e-05	-0.00045	-5e-05	-5e-05	2
28920	-4e-05	-7e-05	-0.0004	4e-05	3e-05	-0.00045	-5e-05	-5e-05	2
28922	-4e-05	-7e-05	-0.0004	4e-05	3e-05	-0.00045	-5e-05	-5e-05	2
28923	-4e-05	-7e-05	-0.0004	4e-05	3e-05	-0.00045	-5e-05	-5e-05	2
28924	-4e-05	-7e-05	-0.0004	4e-05	3e-05	-0.00045	-5e-05	-5e-05	2
28925	-4e-05	-7e-05	-0.0004	4e-05	3e-05	-0.00045	-5e-05	-5e-05	2
28926	-4e-05	-7e-05	-0.0004	4e-05	3e-05	-0.00045	-5e-05	-5e-05	2
28927	-4e-05	-7e-05	-0.0004	4e-05	3e-05	-0.00045	-5e-05	-5e-05	2
28928	-4e-05	-7e-05	-0.0004	4e-05	3e-05	-0.00045	-5e-05	-5e-05	2
28929	-4e-05	-7e-05	-0.0004	4e-05	3e-05	-0.00045	-5e-05	-5e-05	2
28930	-4e-05	-7e-05	-0.0004	4e-05	3e-05	-0.00045	-5e-05	-5e-05	2
28931	-4e-05	-7e-05	-0.0004	4e-05	3e-05	-0.00045	-5e-05	-5e-05	2
28932	-4e-05	-7e-05	-0.0004	4e-05	3e-05	-0.00045	-5e-05	-5e-05	2
28933	-4e-05	-7e-05	-0.0004	4e-05	3e-05	-0.00045	-5e-05	-5e-05	2
28934	-4e-05	-7e-05	-0.0004	4e-05	3e-05	-0.00045	-5e-05	-5e-05	2
28935	-4e-05	-7e-05	-0.0004	4e-05	3e-05	-0.00045	-5e-05	-5e-05	2
28937	-4e-05	-7e-05	-0.0004	4e-05	3e-05	-0.00045	-5e-05	-5e-05	2
28941	0.00024	0.0001	0.00033	-4e-05	-7e-05	-7e-05	-0.0001	0.00014	2
28942	0.00024	0.0001	0.00033	-4e-05	-7e-05	-7e-05	-0.0001	0.00014	2
28943	0.00024	0.0001	0.00033	-4e-05	-7e-05	-7e-05	-0.0001	0.00014	2
28944	0.00024	0.0001	0.00033	-4e-05	-7e-05	-7e-05	-0.0001	0.00014	2
28945	0.00024	0.0001	0.00033	-4e-05	-7e-05	-7e-05	-0.0001	0.00014	2
28946	0.00024	0.0001	0.00033	-4e-05	-7e-05	-7e-05	-0.0001	0.00014	2
28947	0.00024	0.0001	0.00033	-4e-05	-7e-05	-7e-05	-0.0001	0.00014	2
28948	0.00024	0.0001	0.00033	-4e-05	-7e-05	-7e-05	-0.0001	0.00014	2
28949	0.00024	0.0001	0.00033	-4e-05	-7e-05	-7e-05	-0.0001	0.00014	2
28950	0.00024	0.0001	0.00033	-4e-05	-7e-05	-7e-05	-0.0001	0.00014	2
28951	0.00024	0.0001	0.00033	-4e-05	-7e-05	-7e-05	-0.0001	0.00014	2
28952	-7e-05	0	8e-05	1e-05	-5e-05	-0.00016	7e-05	0.0002	2
28953	0.0002	-9e-05	-0.00021	0.00011	0.00012	0.00011	9e-05	-0.00012	2
28956	0.0002	-9e-05	-0.00021	0.00011	0.00012	0.00011	9e-05	-0.00012	2
28957	0	4e-05	0.00021	-0.00012	-7e-05	-0.00012	-3e-05	0.00048	2
28958	-2e-05	4e-05	-1e-05	-3e-05	-1e-05	2e-05	-4e-05	-0.0002	2
28959	-2e-05	4e-05	-1e-05	-3e-05	-1e-05	2e-05	-4e-05	-0.0002	2
28960	-2e-05	4e-05	-1e-05	-3e-05	-1e-05	2e-05	-4e-05	-0.0002	2
28961	-2e-05	4e-05	-1e-05	-3e-05	-1e-05	2e-05	-4e-05	-0.0002	2
28962	-2e-05	4e-05	-1e-05	-3e-05	-1e-05	2e-05	-4e-05	-0.0002	2
28963	-2e-05	4e-05	-1e-05	-3e-05	-1e-05	2e-05	-4e-05	-0.0002	2
28964	-2e-05	4e-05	-1e-05	-3e-05	-1e-05	2e-05	-4e-05	-0.0002	2
28965	-2e-05	4e-05	-1e-05	-3e-05	-1e-05	2e-05	-4e-05	-0.0002	2
28966	-2e-05	4e-05	-1e-05	-3e-05	-1e-05	2e-05	-4e-05	-0.0002	2
28967	-2e-05	4e-05	-1e-05	-3e-05	-1e-05	2e-05	-4e-05	-0.0002	2
28968	-2e-05	4e-05	-1e-05	-3e-05	-1e-05	2e-05	-4e-05	-0.0002	2
28971	-2e-05	4e-05	-1e-05	-3e-05	-1e-05	2e-05	-4e-05	-0.0002	2
28972	-2e-05	4e-05	-1e-05	-3e-05	-1e-05	2e-05	-4e-05	-0.0002	2
28973	-2e-05	4e-05	-1e-05	-3e-05	-1e-05	2e-05	-4e-05	-0.0002	2
28974	2e-05	-4e-05	-0.00024	6e-05	0.00018	0.00062	0.00045	-6e-05	2
28975	-0.00012	3e-05	0.00022	0.00021	-1e-05	8e-05	-0.0001	-0.0003	2
28976	-0.00012	3e-05	0.00022	0.00021	-1e-05	8e-05	-0.0001	-0.0003	2
28977	-0.00012	3e-05	0.00022	0.00021	-1e-05	8e-05	-0.0001	-0.0003	2
28978	-0.00012	3e-05	0.00022	0.00021	-1e-05	8e-05	-0.0001	-0.0003	2
28979	-0.00012	3e-05	0.00022	0.00021	-1e-05	8e-05	-0.0001	-0.0003	2
28980	-0.00012	3e-05	0.00022	0.00021	-1e-05	8e-05	-0.0001	-0.0003	2
28981	-0.00012	3e-05	0.00022	0.00021	-1e-05	8e-05	-0.0001	-0.0003	2
28982	-0.00012	3e-05	0.00022	0.00021	-1e-05	8e-05	-0.0001	-0.0003	2
28983	-0.00012	3e-05	0.00022	0.00021	-1e-05	8e-05	-0.0001	-0.0003	2
28984	-0.00012	3e-05	0.00022	0.00021	-1e-05	8e-05	-0.0001	-0.0003	2
28985	-0.00012	3e-05	0.00022	0.00021	-1e-05	8e-05	-0.0001	-0.0003	2
28987	-0.00012	3e-05	0.00022	0.00021	-1e-05	8e-05	-0.0001	-0.0003	2
28991	-0.00012	3e-05	0.00022	0.00021	-1e-05	8e-05	-0.0001	-0.0003	2
28992	-0.00012	3e-05	0.00022	0.00021	-1e-05	8e-05	-0.0001	-0.0003	2
28993	-0.00012	3e-05	0.00022	0.00021	-1e-05	8e-05	-0.0001	-0.0003	2
28994	-0.00012	3e-05	0.00022	0.00021	-1e-05	8e-05	-0.0001	-0.0003	2
28995	-0.00012	3e-05	0.00022	0.00021	-1e-05	8e-05	-0.0001	-0.0003	2
28996	-0.00012	3e-05	0.00022	0.00021	-1e-05	8e-05	-0.0001	-0.0003	2
28997	-0.00012	3e-05	0.00022	0.00021	-1e-05	8e-05	-0.0001	-0.0003	2
28998	-0.0002	-0.00024	-0.00061	0.0001	-0.00011	0.00016	0.00024	-0.00022	2
28999	2e-05	3e-05	-5e-05	0.00013	-2e-05	-0.0001	7e-05	7e-05	2
29000	2e-05	3e-05	-5e-05	0.00013	-2e-05	-0.0001	7e-05	7e-05	2
29001	2e-05	3e-05	-5e-05	0.00013	-2e-05	-0.0001	7e-05	7e-05	2
29002	2e-05	3e-05	-5e-05	0.00013	-2e-05	-0.0001	7e-05	7e-05	2
29004	2e-05	3e-05	-5e-05	0.00013	-2e-05	-0.0001	7e-05	7e-05	2
29005	2e-05	3e-05	-5e-05	0.00013	-2e-05	-0.0001	7e-05	7e-05	2
29006	2e-05	3e-05	-5e-05	0.00013	-2e-05	-0.0001	7e-05	7e-05	2
29007	2e-05	3e-05	-5e-05	0.00013	-2e-05	-0.0001	7e-05	7e-05	2
29008	2e-05	3e-05	-5e-05	0.00013	-2e-05	-0.0001	7e-05	7e-05	2
29009	2e-05	3e-05	-5e-05	0.00013	-2e-05	-0.0001	7e-05	7e-05	2
29010	2e-05	3e-05	-5e-05	0.00013	-2e-05	-0.0001	7e-05	7e-05	2
29011	2e-05	3e-05	-5e-05	0.00013	-2e-05	-0.0001	7e-05	7e-05	2
29012	-0.00013	1e-05	0.00053	7e-05	-0.00012	-0.00013	-4e-05	-0.00017	2
29013	-0.00014	8e-05	0.0003	8e-05	-3e-05	-0.00011	0.00016	6e-05	2
29014	-0.00014	8e-05	0.0003	8e-05	-3e-05	-0.00011	0.00016	6e-05	2
29015	-0.00014	8e-05	0.0003	8e-05	-3e-05	-0.00011	0.00016	6e-05	2
29016	-0.00014	8e-05	0.0003	8e-05	-3e-05	-0.00011	0.00016	6e-05	2
29017	-0.00014	8e-05	0.0003	8e-05	-3e-05	-0.00011	0.00016	6e-05	2
29018	-0.00014	8e-05	0.0003	8e-05	-3e-05	-0.00011	0.00016	6e-05	2
29019	-0.00014	8e-05	0.0003	8e-05	-3e-05	-0.00011	0.00016	6e-05	2
29021	-0.00014	8e-05	0.0003	8e-05	-3e-05	-0.00011	0.00016	6e-05	2
29022	-0.00014	8e-05	0.0003	8e-05	-3e-05	-0.00011	0.00016	6e-05	2
29023	-0.00014	8e-05	0.0003	8e-05	-3e-05	-0.00011	0.00016	6e-05	2
29024	-0.00014	8e-05	0.0003	8e-05	-3e-05	-0.00011	0.00016	6e-05	2
29025	-0.00014	8e-05	0.0003	8e-05	-3e-05	-0.00011	0.00016	6e-05	2
29026	-0.00014	8e-05	0.0003	8e-05	-3e-05	-0.00011	0.00016	6e-05	2
29027	-0.00014	8e-05	0.0003	8e-05	-3e-05	-0.00011	0.00016	6e-05	2
29028	-0.00014	8e-05	0.0003	8e-05	-3e-05	-0.00011	0.00016	6e-05	2
29029	-0.00014	8e-05	0.0003	8e-05	-3e-05	-0.00011	0.00016	6e-05	2
29030	-0.00014	8e-05	0.0003	8e-05	-3e-05	-0.00011	0.00016	6e-05	2
29031	-0.00014	8e-05	0.0003	8e-05	-3e-05	-0.00011	0.00016	6e-05	2
29032	-0.00014	8e-05	0.0003	8e-05	-3e-05	-0.00011	0.00016	6e-05	2
29033	-0.00014	8e-05	0.0003	8e-05	-3e-05	-0.00011	0.00016	6e-05	2
29034	-0.0002	-0.00011	-0.0004	-0.00019	0	-2e-05	-9e-05	-1e-05	2
29035	8e-05	-3e-05	-0.00032	-0.00011	8e-05	-3e-05	-4e-05	0.00013	2
29037	8e-05	-3e-05	-0.00032	-0.00011	8e-05	-3e-05	-4e-05	0.00013	2
29041	8e-05	-3e-05	-0.00032	-0.00011	8e-05	-3e-05	-4e-05	0.00013	2
29042	8e-05	-3e-05	-0.00032	-0.00011	8e-05	-3e-05	-4e-05	0.00013	2
29043	8e-05	-3e-05	-0.00032	-0.00011	8e-05	-3e-05	-4e-05	0.00013	2
29044	8e-05	-3e-05	-0.00032	-0.00011	8e-05	-3e-05	-4e-05	0.00013	2
29045	8e-05	-3e-05	-0.00032	-0.00011	8e-05	-3e-05	-4e-05	0.00013	2
29046	8e-05	-3e-05	-0.00032	-0.00011	8e-05	-3e-05	-4e-05	0.00013	2
29047	8e-05	-3e-05	-0.00032	-0.00011	8e-05	-3e-05	-4e-05	0.00013	2
29048	8e-05	-3e-05	-0.00032	-0.00011	8e-05	-3e-05	-4e-05	0.00013	2
29049	8e-05	-3e-05	-0.00032	-0.00011	8e-05	-3e-05	-4e-05	0.00013	2
29050	8e-05	-3e-05	-0.00032	-0.00011	8e-05	-3e-05	-4e-05	0.00013	2
29051	8e-05	-3e-05	-0.00032	-0.00011	8e-05	-3e-05	-4e-05	0.00013	2
29052	8e-05	-3e-05	-0.00032	-0.00011	8e-05	-3e-05	-4e-05	0.00013	2
29054	8e-05	-3e-05	-0.00032	-0.00011	8e-05	-3e-05	-4e-05	0.00013	2
29055	8e-05	-3e-05	-0.00032	-0.00011	8e-05	-3e-05	-4e-05	0.00013	2
29056	8e-05	-3e-05	-0.00032	-0.00011	8e-05	-3e-05	-4e-05	0.00013	2
29057	8e-05	-3e-05	-0.00032	-0.00011	8e-05	-3e-05	-4e-05	0.00013	2
29058	3e-05	0	-0.00011	-6e-05	-7e-05	-3e-05	-0.00012	-0.00028	2
29059	-0.00013	-0.00013	-0.00023	1e-05	-3e-05	-0.00015	-2e-05	4e-05	2
29060	-0.00013	-0.00013	-0.00023	1e-05	-3e-05	-0.00015	-2e-05	4e-05	2
29061	-0.00013	-0.00013	-0.00023	1e-05	-3e-05	-0.00015	-2e-05	4e-05	2
29062	-0.00013	-0.00013	-0.00023	1e-05	-3e-05	-0.00015	-2e-05	4e-05	2
29063	-0.00013	-0.00013	-0.00023	1e-05	-3e-05	-0.00015	-2e-05	4e-05	2
29064	-0.00013	-0.00013	-0.00023	1e-05	-3e-05	-0.00015	-2e-05	4e-05	2
29065	-0.00013	-0.00013	-0.00023	1e-05	-3e-05	-0.00015	-2e-05	4e-05	2
29066	-0.00013	-0.00013	-0.00023	1e-05	-3e-05	-0.00015	-2e-05	4e-05	2
29067	-0.00013	-0.00013	-0.00023	1e-05	-3e-05	-0.00015	-2e-05	4e-05	2
29068	-0.00013	-0.00013	-0.00023	1e-05	-3e-05	-0.00015	-2e-05	4e-05	2
29069	-0.00013	-0.00013	-0.00023	1e-05	-3e-05	-0.00015	-2e-05	4e-05	2
29070	-0.00013	-0.00013	-0.00023	1e-05	-3e-05	-0.00015	-2e-05	4e-05	2
29071	-0.00013	-0.00013	-0.00023	1e-05	-3e-05	-0.00015	-2e-05	4e-05	2
29072	-0.00013	-0.00013	-0.00023	1e-05	-3e-05	-0.00015	-2e-05	4e-05	2
29073	-0.00013	-0.00013	-0.00023	1e-05	-3e-05	-0.00015	-2e-05	4e-05	2
29074	-0.00013	-0.00013	-0.00023	1e-05	-3e-05	-0.00015	-2e-05	4e-05	2
29075	-0.00013	-0.00013	-0.00023	1e-05	-3e-05	-0.00015	-2e-05	4e-05	2
29076	-0.00013	-0.00013	-0.00023	1e-05	-3e-05	-0.00015	-2e-05	4e-05	2
29077	-0.00013	-0.00013	-0.00023	1e-05	-3e-05	-0.00015	-2e-05	4e-05	2
29078	-0.00013	-0.00013	-0.00023	1e-05	-3e-05	-0.00015	-2e-05	4e-05	2
29079	-0.00013	-0.00013	-0.00023	1e-05	-3e-05	-0.00015	-2e-05	4e-05	2
29080	-5e-05	-9e-05	-6e-05	-0.00021	-3e-05	0.00023	-0.00011	-6e-05	2
29081	-6e-05	-4e-05	5e-05	-2e-05	1e-05	0.00015	-3e-05	9e-05	2
29082	-6e-05	-4e-05	5e-05	-2e-05	1e-05	0.00015	-3e-05	9e-05	2
29083	-6e-05	-4e-05	5e-05	-2e-05	1e-05	0.00015	-3e-05	9e-05	2
29084	-6e-05	-4e-05	5e-05	-2e-05	1e-05	0.00015	-3e-05	9e-05	2
29085	-6e-05	-4e-05	5e-05	-2e-05	1e-05	0.00015	-3e-05	9e-05	2
29087	-6e-05	-4e-05	5e-05	-2e-05	1e-05	0.00015	-3e-05	9e-05	2
29092	-6e-05	-4e-05	5e-05	-2e-05	1e-05	0.00015	-3e-05	9e-05	2
29093	-6e-05	-4e-05	5e-05	-2e-05	1e-05	0.00015	-3e-05	9e-05	2
29094	-6e-05	-4e-05	5e-05	-2e-05	1e-05	0.00015	-3e-05	9e-05	2
29095	1e-05	1e-05	0.00013	-1e-05	4e-05	1e-05	0	-4e-05	2
29096	1e-05	1e-05	0.00013	-1e-05	4e-05	1e-05	0	-4e-05	2
29097	1e-05	1e-05	0.00013	-1e-05	4e-05	1e-05	0	-4e-05	2
29098	1e-05	1e-05	0.00013	-1e-05	4e-05	1e-05	0	-4e-05	2
29099	1e-05	1e-05	0.00013	-1e-05	4e-05	1e-05	0	-4e-05	2
29100	1e-05	1e-05	0.00013	-1e-05	4e-05	1e-05	0	-4e-05	2
29101	1e-05	1e-05	0.00013	-1e-05	4e-05	1e-05	0	-4e-05	2
29102	1e-05	1e-05	0.00013	-1e-05	4e-05	1e-05	0	-4e-05	2
29103	-3e-05	-0.0001	-0.00014	-0.0001	-0.00017	-0.00012	-9e-05	-5e-05	2
29105	-3e-05	-0.0001	-0.00014	-0.0001	-0.00017	-0.00012	-9e-05	-5e-05	2
29106	-3e-05	-0.0001	-0.00014	-0.0001	-0.00017	-0.00012	-9e-05	-5e-05	2
29107	-3e-05	-0.0001	-0.00014	-0.0001	-0.00017	-0.00012	-9e-05	-5e-05	2
29108	-3e-05	-0.0001	-0.00014	-0.0001	-0.00017	-0.00012	-9e-05	-5e-05	2
29109	-3e-05	-0.0001	-0.00014	-0.0001	-0.00017	-0.00012	-9e-05	-5e-05	2
29110	-3e-05	-0.0001	-0.00014	-0.0001	-0.00017	-0.00012	-9e-05	-5e-05	2
29111	-3e-05	-0.0001	-0.00014	-0.0001	-0.00017	-0.00012	-9e-05	-5e-05	2
29112	-3e-05	-0.0001	-0.00014	-0.0001	-0.00017	-0.00012	-9e-05	-5e-05	2
29113	-3e-05	-0.0001	-0.00014	-0.0001	-0.00017	-0.00012	-9e-05	-5e-05	2
29114	-3e-05	-0.0001	-0.00014	-0.0001	-0.00017	-0.00012	-9e-05	-5e-05	2
29115	-3e-05	-0.0001	-0.00014	-0.0001	-0.00017	-0.00012	-9e-05	-5e-05	2
29116	-3e-05	-0.0001	-0.00014	-0.0001	-0.00017	-0.00012	-9e-05	-5e-05	2
29117	-3e-05	-0.0001	-0.00014	-0.0001	-0.00017	-0.00012	-9e-05	-5e-05	2
29118	0.00027	0.00013	0.00022	5e-05	2e-05	-0.0001	3e-05	0.00011	2
29119	0.00027	0.00013	0.00022	5e-05	2e-05	-0.0001	3e-05	0.00011	2
29120	0.00027	0.00013	0.00022	5e-05	2e-05	-0.0001	3e-05	0.00011	2
29122	0.00027	0.00013	0.00022	5e-05	2e-05	-0.0001	3e-05	0.00011	2
29123	0.00027	0.00013	0.00022	5e-05	2e-05	-0.0001	3e-05	0.00011	2
29124	0.00027	0.00013	0.00022	5e-05	2e-05	-0.0001	3e-05	0.00011	2
29125	0.00027	0.00013	0.00022	5e-05	2e-05	-0.0001	3e-05	0.00011	2
29126	0.00027	0.00013	0.00022	5e-05	2e-05	-0.0001	3e-05	0.00011	2
29127	0.00027	0.00013	0.00022	5e-05	2e-05	-0.0001	3e-05	0.00011	2
29128	0.00027	0.00013	0.00022	5e-05	2e-05	-0.0001	3e-05	0.00011	2
29129	0.00027	0.00013	0.00022	5e-05	2e-05	-0.0001	3e-05	0.00011	2
29130	0.00027	0.00013	0.00022	5e-05	2e-05	-0.0001	3e-05	0.00011	2
29131	0.0001	6e-05	0.00011	6e-05	-2e-05	-0.0002	-7e-05	8e-05	2
29132	0.0001	6e-05	0.00011	6e-05	-2e-05	-0.0002	-7e-05	8e-05	2
29133	0.0001	6e-05	0.00011	6e-05	-2e-05	-0.0002	-7e-05	8e-05	2
29134	0.0001	6e-05	0.00011	6e-05	-2e-05	-0.0002	-7e-05	8e-05	2
29135	0.0001	6e-05	0.00011	6e-05	-2e-05	-0.0002	-7e-05	8e-05	2
29136	0.0001	6e-05	0.00011	6e-05	-2e-05	-0.0002	-7e-05	8e-05	2
29141	0.0001	6e-05	0.00011	6e-05	-2e-05	-0.0002	-7e-05	8e-05	2
29144	-8e-05	0	-2e-05	-3e-05	2e-05	0.00016	4e-05	-9e-05	2
29145	-8e-05	0	-2e-05	-3e-05	2e-05	0.00016	4e-05	-9e-05	2
29146	-8e-05	0	-2e-05	-3e-05	2e-05	0.00016	4e-05	-9e-05	2
29147	-8e-05	0	-2e-05	-3e-05	2e-05	0.00016	4e-05	-9e-05	2
29148	-8e-05	0	-2e-05	-3e-05	2e-05	0.00016	4e-05	-9e-05	2
29149	-8e-05	0	-2e-05	-3e-05	2e-05	0.00016	4e-05	-9e-05	2
29150	-8e-05	0	-2e-05	-3e-05	2e-05	0.00016	4e-05	-9e-05	2
29151	-8e-05	0	-2e-05	-3e-05	2e-05	0.00016	4e-05	-9e-05	2
29152	-8e-05	0	-2e-05	-3e-05	2e-05	0.00016	4e-05	-9e-05	2
29153	-8e-05	0	-2e-05	-3e-05	2e-05	0.00016	4e-05	-9e-05	2
29156	-6e-05	-0.00015	-0.00015	-6e-05	-0.00011	-0.00041	-0.00022	1e-05	2
29157	0.00012	3e-05	-1e-05	-0.00017	-5e-05	4e-05	-3e-05	-0.00018	2
29158	0.00012	3e-05	-1e-05	-0.00017	-5e-05	4e-05	-3e-05	-0.00018	2
29159	0.00012	3e-05	-1e-05	-0.00017	-5e-05	4e-05	-3e-05	-0.00018	2
29160	0.00012	3e-05	-1e-05	-0.00017	-5e-05	4e-05	-3e-05	-0.00018	2
29161	0.00012	3e-05	-1e-05	-0.00017	-5e-05	4e-05	-3e-05	-0.00018	2
29162	0.00012	3e-05	-1e-05	-0.00017	-5e-05	4e-05	-3e-05	-0.00018	2
29163	0.00012	3e-05	-1e-05	-0.00017	-5e-05	4e-05	-3e-05	-0.00018	2
29164	0.00012	3e-05	-1e-05	-0.00017	-5e-05	4e-05	-3e-05	-0.00018	2
29165	0.00012	3e-05	-1e-05	-0.00017	-5e-05	4e-05	-3e-05	-0.00018	2
29166	0.00012	3e-05	-1e-05	-0.00017	-5e-05	4e-05	-3e-05	-0.00018	2
29167	0.00012	3e-05	-1e-05	-0.00017	-5e-05	4e-05	-3e-05	-0.00018	2
29168	0.00012	3e-05	-1e-05	-0.00017	-5e-05	4e-05	-3e-05	-0.00018	2
29169	0.00012	3e-05	-1e-05	-0.00017	-5e-05	4e-05	-3e-05	-0.00018	2
29170	0.00012	3e-05	-1e-05	-0.00017	-5e-05	4e-05	-3e-05	-0.00018	2
29171	0.00012	3e-05	-1e-05	-0.00017	-5e-05	4e-05	-3e-05	-0.00018	2
29172	0.00012	3e-05	-1e-05	-0.00017	-5e-05	4e-05	-3e-05	-0.00018	2
29173	0.00012	3e-05	-1e-05	-0.00017	-5e-05	4e-05	-3e-05	-0.00018	2
29174	0.00012	3e-05	-1e-05	-0.00017	-5e-05	4e-05	-3e-05	-0.00018	2
29175	0.00012	3e-05	-1e-05	-0.00017	-5e-05	4e-05	-3e-05	-0.00018	2
29176	0.00012	3e-05	-1e-05	-0.00017	-5e-05	4e-05	-3e-05	-0.00018	2
29177	0.00012	3e-05	-1e-05	-0.00017	-5e-05	4e-05	-3e-05	-0.00018	2
29178	0.00012	3e-05	-1e-05	-0.00017	-5e-05	4e-05	-3e-05	-0.00018	2
29179	4e-05	-3e-05	-0.00027	-8e-05	0	0.00043	0.00015	5e-05	2
29180	-0.00012	-7e-05	-7e-05	-2e-05	-2e-05	-0.00015	6e-05	1e-05	2
29181	-0.00012	-7e-05	-7e-05	-2e-05	-2e-05	-0.00015	6e-05	1e-05	2
29182	-0.00012	-7e-05	-7e-05	-2e-05	-2e-05	-0.00015	6e-05	1e-05	2
29183	-0.00012	-7e-05	-7e-05	-2e-05	-2e-05	-0.00015	6e-05	1e-05	2
29184	-0.00012	-7e-05	-7e-05	-2e-05	-2e-05	-0.00015	6e-05	1e-05	2
29185	-0.00012	-7e-05	-7e-05	-2e-05	-2e-05	-0.00015	6e-05	1e-05	2
29186	-0.00012	-7e-05	-7e-05	-2e-05	-2e-05	-0.00015	6e-05	1e-05	2
29190	-0.00012	-7e-05	-7e-05	-2e-05	-2e-05	-0.00015	6e-05	1e-05	2
29192	-0.00012	-7e-05	-7e-05	-2e-05	-2e-05	-0.00015	6e-05	1e-05	2
29193	-0.00012	-7e-05	-7e-05	-2e-05	-2e-05	-0.00015	6e-05	1e-05	2
29194	-0.00012	-7e-05	-7e-05	-2e-05	-2e-05	-0.00015	6e-05	1e-05	2
29195	-0.00012	-7e-05	-7e-05	-2e-05	-2e-05	-0.00015	6e-05	1e-05	2
29196	-0.00012	-7e-05	-7e-05	-2e-05	-2e-05	-0.00015	6e-05	1e-05	2
29197	-0.00012	-7e-05	-7e-05	-2e-05	-2e-05	-0.00015	6e-05	1e-05	2
29198	-0.00012	-7e-05	-7e-05	-2e-05	-2e-05	-0.00015	6e-05	1e-05	2
29199	-0.00012	-7e-05	-7e-05	-2e-05	-2e-05	-0.00015	6e-05	1e-05	2
29200	-0.00012	-7e-05	-7e-05	-2e-05	-2e-05	-0.00015	6e-05	1e-05	2
29201	-0.00012	-7e-05	-7e-05	-2e-05	-2e-05	-0.00015	6e-05	1e-05	2
29202	0.00014	-5e-05	0	2e-05	-4e-05	-2e-05	-0.00025	0.00011	2
29203	0.00014	-5e-05	0	2e-05	-4e-05	-2e-05	-0.00025	0.00011	2
29204	0.00014	-5e-05	0	2e-05	-4e-05	-2e-05	-0.00025	0.00011	2
29205	0.00014	-5e-05	0	2e-05	-4e-05	-2e-05	-0.00025	0.00011	2
29206	0.00014	-5e-05	0	2e-05	-4e-05	-2e-05	-0.00025	0.00011	2
29207	0.00014	-5e-05	0	2e-05	-4e-05	-2e-05	-0.00025	0.00011	2
29209	0.00014	-5e-05	0	2e-05	-4e-05	-2e-05	-0.00025	0.00011	2
29211	0.00014	-5e-05	0	2e-05	-4e-05	-2e-05	-0.00025	0.00011	2
29212	0.00014	-5e-05	0	2e-05	-4e-05	-2e-05	-0.00025	0.00011	2
29213	0.00014	-5e-05	0	2e-05	-4e-05	-2e-05	-0.00025	0.00011	2
29214	0.00014	-5e-05	0	2e-05	-4e-05	-2e-05	-0.00025	0.00011	2
29215	-1e-05	3e-05	-0.0002	-0.00017	-2e-05	-0.00017	8e-05	6e-05	2
29216	1e-05	-2e-05	-0.00019	-0.00019	1e-05	0.00011	5e-05	-4e-05	2
29217	1e-05	-2e-05	-0.00019	-0.00019	1e-05	0.00011	5e-05	-4e-05	2
29218	1e-05	-2e-05	-0.00019	-0.00019	1e-05	0.00011	5e-05	-4e-05	2
29219	1e-05	-2e-05	-0.00019	-0.00019	1e-05	0.00011	5e-05	-4e-05	2
29220	1e-05	-2e-05	-0.00019	-0.00019	1e-05	0.00011	5e-05	-4e-05	2
29222	1e-05	-2e-05	-0.00019	-0.00019	1e-05	0.00011	5e-05	-4e-05	2
29223	1e-05	-2e-05	-0.00019	-0.00019	1e-05	0.00011	5e-05	-4e-05	2
29224	1e-05	-2e-05	-0.00019	-0.00019	1e-05	0.00011	5e-05	-4e-05	2
29225	1e-05	-2e-05	-0.00019	-0.00019	1e-05	0.00011	5e-05	-4e-05	2
29226	1e-05	-2e-05	-0.00019	-0.00019	1e-05	0.00011	5e-05	-4e-05	2
29227	1e-05	-2e-05	-0.00019	-0.00019	1e-05	0.00011	5e-05	-4e-05	2
29228	1e-05	-2e-05	-0.00019	-0.00019	1e-05	0.00011	5e-05	-4e-05	2
29229	1e-05	-2e-05	-0.00019	-0.00019	1e-05	0.00011	5e-05	-4e-05	2
29230	1e-05	-2e-05	-0.00019	-0.00019	1e-05	0.00011	5e-05	-4e-05	2
29231	1e-05	-2e-05	-0.00019	-0.00019	1e-05	0.00011	5e-05	-4e-05	2
29232	1e-05	-2e-05	-0.00019	-0.00019	1e-05	0.00011	5e-05	-4e-05	2
29233	1e-05	-2e-05	-0.00019	-0.00019	1e-05	0.00011	5e-05	-4e-05	2
29234	1e-05	-2e-05	-0.00019	-0.00019	1e-05	0.00011	5e-05	-4e-05	2
29235	1e-05	-2e-05	-0.00019	-0.00019	1e-05	0.00011	5e-05	-4e-05	2
29236	1e-05	-2e-05	-0.00019	-0.00019	1e-05	0.00011	5e-05	-4e-05	2
29240	1e-05	-2e-05	-0.00019	-0.00019	1e-05	0.00011	5e-05	-4e-05	2
29243	-1e-05	-6e-05	-2e-05	0.00017	2e-05	7e-05	-8e-05	-3e-05	2
29244	-1e-05	-6e-05	-2e-05	0.00017	2e-05	7e-05	-8e-05	-3e-05	2
29245	-1e-05	-6e-05	-2e-05	0.00017	2e-05	7e-05	-8e-05	-3e-05	2
29246	-1e-05	-6e-05	-2e-05	0.00017	2e-05	7e-05	-8e-05	-3e-05	2
29247	-1e-05	-6e-05	-2e-05	0.00017	2e-05	7e-05	-8e-05	-3e-05	2
29248	-1e-05	-6e-05	-2e-05	0.00017	2e-05	7e-05	-8e-05	-3e-05	2
29249	-1e-05	-6e-05	-2e-05	0.00017	2e-05	7e-05	-8e-05	-3e-05	2
29250	-1e-05	-6e-05	-2e-05	0.00017	2e-05	7e-05	-8e-05	-3e-05	2
29251	-1e-05	-6e-05	-2e-05	0.00017	2e-05	7e-05	-8e-05	-3e-05	2
29252	-1e-05	-6e-05	-2e-05	0.00017	2e-05	7e-05	-8e-05	-3e-05	2
29253	0.0001	0.0001	0.00023	3e-05	-0.0001	-2e-05	0	0	2
29255	0.0001	0.0001	0.00023	3e-05	-0.0001	-2e-05	0	0	2
29256	0.0001	0.0001	0.00023	3e-05	-0.0001	-2e-05	0	0	2
29257	0.0001	0.0001	0.00023	3e-05	-0.0001	-2e-05	0	0	2
29258	0.0001	0.0001	0.00023	3e-05	-0.0001	-2e-05	0	0	2
29259	0.0001	0.0001	0.00023	3e-05	-0.0001	-2e-05	0	0	2
29260	0	-0.0001	-0.00021	-0.00018	-6e-05	0.00045	0.00011	7e-05	2
29261	0	-0.0001	-0.00021	-0.00018	-6e-05	0.00045	0.00011	7e-05	2
29262	0	-0.0001	-0.00021	-0.00018	-6e-05	0.00045	0.00011	7e-05	2
29263	0	-0.0001	-0.00021	-0.00018	-6e-05	0.00045	0.00011	7e-05	2
29264	0	-0.0001	-0.00021	-0.00018	-6e-05	0.00045	0.00011	7e-05	2
29265	0	-0.0001	-0.00021	-0.00018	-6e-05	0.00045	0.00011	7e-05	2
29266	0	-0.0001	-0.00021	-0.00018	-6e-05	0.00045	0.00011	7e-05	2
29267	0	-0.0001	-0.00021	-0.00018	-6e-05	0.00045	0.00011	7e-05	2
29268	0	-0.0001	-0.00021	-0.00018	-6e-05	0.00045	0.00011	7e-05	2
29269	0	-0.0001	-0.00021	-0.00018	-6e-05	0.00045	0.00011	7e-05	2
29270	0	-0.0001	-0.00021	-0.00018	-6e-05	0.00045	0.00011	7e-05	2
29271	0	-0.0001	-0.00021	-0.00018	-6e-05	0.00045	0.00011	7e-05	2
29272	0	-0.0001	-0.00021	-0.00018	-6e-05	0.00045	0.00011	7e-05	2
29273	0	-0.0001	-0.00021	-0.00018	-6e-05	0.00045	0.00011	7e-05	2
29274	0	-0.0001	-0.00021	-0.00018	-6e-05	0.00045	0.00011	7e-05	2
29275	0	-0.0001	-0.00021	-0.00018	-6e-05	0.00045	0.00011	7e-05	2
29276	0	-0.0001	-0.00021	-0.00018	-6e-05	0.00045	0.00011	7e-05	2
29278	0	-0.0001	-0.00021	-0.00018	-6e-05	0.00045	0.00011	7e-05	2
29279	-5e-05	4e-05	0.00011	2e-05	-1e-05	0.00013	2e-05	-6e-05	2
29280	-5e-05	4e-05	0.00011	2e-05	-1e-05	0.00013	2e-05	-6e-05	2
29281	-5e-05	4e-05	0.00011	2e-05	-1e-05	0.00013	2e-05	-6e-05	2
29282	-5e-05	4e-05	0.00011	2e-05	-1e-05	0.00013	2e-05	-6e-05	2
29283	-5e-05	4e-05	0.00011	2e-05	-1e-05	0.00013	2e-05	-6e-05	2
29284	-5e-05	4e-05	0.00011	2e-05	-1e-05	0.00013	2e-05	-6e-05	2
29285	-5e-05	4e-05	0.00011	2e-05	-1e-05	0.00013	2e-05	-6e-05	2
29286	-5e-05	4e-05	0.00011	2e-05	-1e-05	0.00013	2e-05	-6e-05	2
29290	-5e-05	4e-05	0.00011	2e-05	-1e-05	0.00013	2e-05	-6e-05	2
29292	-5e-05	4e-05	0.00011	2e-05	-1e-05	0.00013	2e-05	-6e-05	2
29293	-5e-05	4e-05	0.00011	2e-05	-1e-05	0.00013	2e-05	-6e-05	2
29294	-5e-05	4e-05	0.00011	2e-05	-1e-05	0.00013	2e-05	-6e-05	2
29295	-5e-05	4e-05	0.00011	2e-05	-1e-05	0.00013	2e-05	-6e-05	2
29296	-5e-05	4e-05	0.00011	2e-05	-1e-05	0.00013	2e-05	-6e-05	2
29297	-5e-05	4e-05	0.00011	2e-05	-1e-05	0.00013	2e-05	-6e-05	2
29298	-5e-05	4e-05	0.00011	2e-05	-1e-05	0.00013	2e-05	-6e-05	2
29299	-5e-05	4e-05	0.00011	2e-05	-1e-05	0.00013	2e-05	-6e-05	2
29300	-5e-05	4e-05	0.00011	2e-05	-1e-05	0.00013	2e-05	-6e-05	2
29301	-5e-05	4e-05	0.00011	2e-05	-1e-05	0.00013	2e-05	-6e-05	2
29302	-5e-05	4e-05	0.00011	2e-05	-1e-05	0.00013	2e-05	-6e-05	2
29303	-5e-05	4e-05	0.00011	2e-05	-1e-05	0.00013	2e-05	-6e-05	2
29305	-5e-05	4e-05	0.00011	2e-05	-1e-05	0.00013	2e-05	-6e-05	2
29306	-5e-05	4e-05	0.00011	2e-05	-1e-05	0.00013	2e-05	-6e-05	2
29307	-5e-05	4e-05	0.00011	2e-05	-1e-05	0.00013	2e-05	-6e-05	2
29308	-5e-05	4e-05	0.00011	2e-05	-1e-05	0.00013	2e-05	-6e-05	2
29309	-5e-05	4e-05	0.00011	2e-05	-1e-05	0.00013	2e-05	-6e-05	2
29310	-5e-05	4e-05	0.00011	2e-05	-1e-05	0.00013	2e-05	-6e-05	2
29311	-5e-05	4e-05	0.00011	2e-05	-1e-05	0.00013	2e-05	-6e-05	2
29312	-5e-05	4e-05	0.00011	2e-05	-1e-05	0.00013	2e-05	-6e-05	2
29313	-0.00014	-0.00016	-0.00031	-0.00017	-1e-05	0.00013	1e-05	-0.0002	2
29314	6e-05	-0.0001	-0.00045	-0.0001	-2e-05	-0.00016	-0.00017	1e-05	2
29315	6e-05	-0.0001	-0.00045	-0.0001	-2e-05	-0.00016	-0.00017	1e-05	2
29316	-0.00011	-9e-05	-0.00011	-9e-05	0	-2e-05	-0.0001	-0.00012	2
29317	-0.00011	-9e-05	-0.00011	-9e-05	0	-2e-05	-0.0001	-0.00012	2
29318	-0.00011	-9e-05	-0.00011	-9e-05	0	-2e-05	-0.0001	-0.00012	2
29319	-0.00011	-9e-05	-0.00011	-9e-05	0	-2e-05	-0.0001	-0.00012	2
29320	-6e-05	-2e-05	0.00015	1e-05	-6e-05	-0.00013	1e-05	-5e-05	2
29322	-6e-05	-2e-05	0.00015	1e-05	-6e-05	-0.00013	1e-05	-5e-05	2
29323	-6e-05	-2e-05	0.00015	1e-05	-6e-05	-0.00013	1e-05	-5e-05	2
29324	-6e-05	-2e-05	0.00015	1e-05	-6e-05	-0.00013	1e-05	-5e-05	2
29325	-6e-05	-2e-05	0.00015	1e-05	-6e-05	-0.00013	1e-05	-5e-05	2
29326	-6e-05	-2e-05	0.00015	1e-05	-6e-05	-0.00013	1e-05	-5e-05	2
29327	-6e-05	-2e-05	0.00015	1e-05	-6e-05	-0.00013	1e-05	-5e-05	2
29328	-6e-05	-2e-05	0.00015	1e-05	-6e-05	-0.00013	1e-05	-5e-05	2
29329	-6e-05	-2e-05	0.00015	1e-05	-6e-05	-0.00013	1e-05	-5e-05	2
29330	-6e-05	-2e-05	0.00015	1e-05	-6e-05	-0.00013	1e-05	-5e-05	2
29331	-6e-05	-2e-05	0.00015	1e-05	-6e-05	-0.00013	1e-05	-5e-05	2
29332	-6e-05	-2e-05	0.00015	1e-05	-6e-05	-0.00013	1e-05	-5e-05	2
29333	-6e-05	-2e-05	0.00015	1e-05	-6e-05	-0.00013	1e-05	-5e-05	2
29334	-1e-05	-9e-05	-0.00025	-0.00013	-5e-05	0.00015	6e-05	-4e-05	2
29335	0	5e-05	0.00025	7e-05	-3e-05	0.00012	5e-05	5e-05	2
29336	0	5e-05	0.00025	7e-05	-3e-05	0.00012	5e-05	5e-05	2
29340	0	5e-05	0.00025	7e-05	-3e-05	0.00012	5e-05	5e-05	2
29342	0	5e-05	0.00025	7e-05	-3e-05	0.00012	5e-05	5e-05	2
29343	0	5e-05	0.00025	7e-05	-3e-05	0.00012	5e-05	5e-05	2
29344	0	5e-05	0.00025	7e-05	-3e-05	0.00012	5e-05	5e-05	2
29345	0	5e-05	0.00025	7e-05	-3e-05	0.00012	5e-05	5e-05	2
29346	0	5e-05	0.00025	7e-05	-3e-05	0.00012	5e-05	5e-05	2
29347	0	5e-05	0.00025	7e-05	-3e-05	0.00012	5e-05	5e-05	2
29348	0	5e-05	0.00025	7e-05	-3e-05	0.00012	5e-05	5e-05	2
29349	0	5e-05	0.00025	7e-05	-3e-05	0.00012	5e-05	5e-05	2
29350	0	5e-05	0.00025	7e-05	-3e-05	0.00012	5e-05	5e-05	2
29351	0	5e-05	0.00025	7e-05	-3e-05	0.00012	5e-05	5e-05	2
29352	0	5e-05	0.00025	7e-05	-3e-05	0.00012	5e-05	5e-05	2
29353	0	5e-05	0.00025	7e-05	-3e-05	0.00012	5e-05	5e-05	2
29354	0	5e-05	0.00025	7e-05	-3e-05	0.00012	5e-05	5e-05	2
29355	0	5e-05	0.00025	7e-05	-3e-05	0.00012	5e-05	5e-05	2
29356	0	5e-05	0.00025	7e-05	-3e-05	0.00012	5e-05	5e-05	2
29357	0	5e-05	0.00025	7e-05	-3e-05	0.00012	5e-05	5e-05	2
29358	0	5e-05	0.00025	7e-05	-3e-05	0.00012	5e-05	5e-05	2
29359	0	5e-05	0.00025	7e-05	-3e-05	0.00012	5e-05	5e-05	2
29360	0	5e-05	0.00025	7e-05	-3e-05	0.00012	5e-05	5e-05	2
29361	0	5e-05	0.00025	7e-05	-3e-05	0.00012	5e-05	5e-05	2
29362	0	5e-05	0.00025	7e-05	-3e-05	0.00012	5e-05	5e-05	2
29363	0	5e-05	0.00025	7e-05	-3e-05	0.00012	5e-05	5e-05	2
29364	0	5e-05	0.00025	7e-05	-3e-05	0.00012	5e-05	5e-05	2
29365	0	5e-05	0.00025	7e-05	-3e-05	0.00012	5e-05	5e-05	2
29366	0	5e-05	0.00025	7e-05	-3e-05	0.00012	5e-05	5e-05	2
29367	-0.00018	-3e-05	-8e-05	-1e-05	0	-0.00017	-7e-05	-0.00024	2
29368	-0.00018	-3e-05	-8e-05	-1e-05	0	-0.00017	-7e-05	-0.00024	2
29369	-0.00018	-3e-05	-8e-05	-1e-05	0	-0.00017	-7e-05	-0.00024	2
29370	-0.00018	-3e-05	-8e-05	-1e-05	0	-0.00017	-7e-05	-0.00024	2
29371	-0.00018	-3e-05	-8e-05	-1e-05	0	-0.00017	-7e-05	-0.00024	2
29372	-0.00018	-3e-05	-8e-05	-1e-05	0	-0.00017	-7e-05	-0.00024	2
29373	-0.00018	-3e-05	-8e-05	-1e-05	0	-0.00017	-7e-05	-0.00024	2
29374	-0.00018	-3e-05	-8e-05	-1e-05	0	-0.00017	-7e-05	-0.00024	2
29375	-0.00018	-3e-05	-8e-05	-1e-05	0	-0.00017	-7e-05	-0.00024	2
29376	-0.00018	-3e-05	-8e-05	-1e-05	0	-0.00017	-7e-05	-0.00024	2
29377	-0.00018	-3e-05	-8e-05	-1e-05	0	-0.00017	-7e-05	-0.00024	2
29378	-0.00018	-3e-05	-8e-05	-1e-05	0	-0.00017	-7e-05	-0.00024	2
29379	-0.00018	-3e-05	-8e-05	-1e-05	0	-0.00017	-7e-05	-0.00024	2
29380	-0.00018	-3e-05	-8e-05	-1e-05	0	-0.00017	-7e-05	-0.00024	2
29381	-0.00018	-3e-05	-8e-05	-1e-05	0	-0.00017	-7e-05	-0.00024	2
29382	-0.00018	-3e-05	-8e-05	-1e-05	0	-0.00017	-7e-05	-0.00024	2
29383	-0.00018	-3e-05	-8e-05	-1e-05	0	-0.00017	-7e-05	-0.00024	2
29384	-0.00018	-3e-05	-8e-05	-1e-05	0	-0.00017	-7e-05	-0.00024	2
29385	-0.00018	-3e-05	-8e-05	-1e-05	0	-0.00017	-7e-05	-0.00024	2
29386	-0.00018	-3e-05	-8e-05	-1e-05	0	-0.00017	-7e-05	-0.00024	2
29391	4e-05	-2e-05	-2e-05	0.00012	3e-05	-0.00019	3e-05	0.00015	2
29392	4e-05	-2e-05	-2e-05	0.00012	3e-05	-0.00019	3e-05	0.00015	2
29393	4e-05	-2e-05	-2e-05	0.00012	3e-05	-0.00019	3e-05	0.00015	2
29394	3e-05	6e-05	-2e-05	0	1e-05	-4e-05	-3e-05	2e-05	2
29395	5e-05	2e-05	1e-05	0.0001	0	-0.00019	-2e-05	0	2
29396	5e-05	2e-05	1e-05	0.0001	0	-0.00019	-2e-05	0	2
29397	5e-05	2e-05	1e-05	0.0001	0	-0.00019	-2e-05	0	2
29398	5e-05	2e-05	1e-05	0.0001	0	-0.00019	-2e-05	0	2
29399	5e-05	2e-05	1e-05	0.0001	0	-0.00019	-2e-05	0	2
29400	5e-05	2e-05	1e-05	0.0001	0	-0.00019	-2e-05	0	2
29401	5e-05	2e-05	1e-05	0.0001	0	-0.00019	-2e-05	0	2
29402	5e-05	2e-05	1e-05	0.0001	0	-0.00019	-2e-05	0	2
29403	5e-05	2e-05	1e-05	0.0001	0	-0.00019	-2e-05	0	2
29404	5e-05	2e-05	1e-05	0.0001	0	-0.00019	-2e-05	0	2
29405	5e-05	2e-05	1e-05	0.0001	0	-0.00019	-2e-05	0	2
29406	5e-05	2e-05	1e-05	0.0001	0	-0.00019	-2e-05	0	2
29407	5e-05	2e-05	1e-05	0.0001	0	-0.00019	-2e-05	0	2
29408	5e-05	2e-05	1e-05	0.0001	0	-0.00019	-2e-05	0	2
29409	5e-05	2e-05	1e-05	0.0001	0	-0.00019	-2e-05	0	2
29410	5e-05	2e-05	1e-05	0.0001	0	-0.00019	-2e-05	0	2
29411	5e-05	2e-05	1e-05	0.0001	0	-0.00019	-2e-05	0	2
29412	5e-05	2e-05	1e-05	0.0001	0	-0.00019	-2e-05	0	2
29413	5e-05	2e-05	1e-05	0.0001	0	-0.00019	-2e-05	0	2
29414	5e-05	2e-05	1e-05	0.0001	0	-0.00019	-2e-05	0	2
29415	5e-05	2e-05	1e-05	0.0001	0	-0.00019	-2e-05	0	2
29416	5e-05	2e-05	1e-05	0.0001	0	-0.00019	-2e-05	0	2
29417	5e-05	2e-05	1e-05	0.0001	0	-0.00019	-2e-05	0	2
29418	1e-05	0.0001	7e-05	-0.00014	0	-0.00012	-7e-05	6e-05	2
29419	1e-05	0.0001	7e-05	-0.00014	0	-0.00012	-7e-05	6e-05	2
29420	1e-05	0.0001	7e-05	-0.00014	0	-0.00012	-7e-05	6e-05	2
29421	1e-05	0.0001	7e-05	-0.00014	0	-0.00012	-7e-05	6e-05	2
29422	1e-05	0.0001	7e-05	-0.00014	0	-0.00012	-7e-05	6e-05	2
29423	1e-05	0.0001	7e-05	-0.00014	0	-0.00012	-7e-05	6e-05	2
29424	1e-05	0.0001	7e-05	-0.00014	0	-0.00012	-7e-05	6e-05	2
29425	1e-05	0.0001	7e-05	-0.00014	0	-0.00012	-7e-05	6e-05	2
29426	1e-05	0.0001	7e-05	-0.00014	0	-0.00012	-7e-05	6e-05	2
29427	1e-05	0.0001	7e-05	-0.00014	0	-0.00012	-7e-05	6e-05	2
29428	1e-05	0.0001	7e-05	-0.00014	0	-0.00012	-7e-05	6e-05	2
29429	1e-05	0.0001	7e-05	-0.00014	0	-0.00012	-7e-05	6e-05	2
29430	1e-05	0.0001	7e-05	-0.00014	0	-0.00012	-7e-05	6e-05	2
29431	8e-05	-0.00012	-4e-05	2e-05	5e-05	0.00017	-0.00012	-0.00011	2
29432	8e-05	-0.00012	-4e-05	2e-05	5e-05	0.00017	-0.00012	-0.00011	2
29433	8e-05	-0.00012	-4e-05	2e-05	5e-05	0.00017	-0.00012	-0.00011	2
29434	8e-05	-0.00012	-4e-05	2e-05	5e-05	0.00017	-0.00012	-0.00011	2
29435	8e-05	-0.00012	-4e-05	2e-05	5e-05	0.00017	-0.00012	-0.00011	2
29436	8e-05	-0.00012	-4e-05	2e-05	5e-05	0.00017	-0.00012	-0.00011	2
29438	8e-05	-0.00012	-4e-05	2e-05	5e-05	0.00017	-0.00012	-0.00011	2
29439	-0.00011	-7e-05	-0.00016	-3e-05	-4e-05	3e-05	-4e-05	1e-05	2
29440	-0.00014	-0.00017	-0.00018	-5e-05	-1e-05	0.00013	-5e-05	-0.0002	2
29441	-0.00014	-0.00017	-0.00018	-5e-05	-1e-05	0.00013	-5e-05	-0.0002	2
29442	-0.00014	-0.00017	-0.00018	-5e-05	-1e-05	0.00013	-5e-05	-0.0002	2
29443	-0.00014	-0.00017	-0.00018	-5e-05	-1e-05	0.00013	-5e-05	-0.0002	2
29444	-0.00014	-0.00017	-0.00018	-5e-05	-1e-05	0.00013	-5e-05	-0.0002	2
29445	-0.00014	-0.00017	-0.00018	-5e-05	-1e-05	0.00013	-5e-05	-0.0002	2
29446	-0.00014	-0.00017	-0.00018	-5e-05	-1e-05	0.00013	-5e-05	-0.0002	2
29447	-0.00014	-0.00017	-0.00018	-5e-05	-1e-05	0.00013	-5e-05	-0.0002	2
