13920	-1e-05	-8e-05	-1e-05	-5e-05	0.00018	-0.00022	-0.00028	-0.00012	4
13921	-1e-05	-8e-05	-1e-05	-5e-05	0.00018	-0.00022	-0.00028	-0.00012	4
13922	-1e-05	-8e-05	-1e-05	-5e-05	0.00018	-0.00022	-0.00028	-0.00012	4
13923	-1e-05	-8e-05	-1e-05	-5e-05	0.00018	-0.00022	-0.00028	-0.00012	4
13924	-1e-05	-8e-05	-1e-05	-5e-05	0.00018	-0.00022	-0.00028	-0.00012	4
13925	-1e-05	-8e-05	-1e-05	-5e-05	0.00018	-0.00022	-0.00028	-0.00012	4
13926	-1e-05	-8e-05	-1e-05	-5e-05	0.00018	-0.00022	-0.00028	-0.00012	4
13927	-1e-05	-8e-05	-1e-05	-5e-05	0.00018	-0.00022	-0.00028	-0.00012	4
13928	-1e-05	-8e-05	-1e-05	-5e-05	0.00018	-0.00022	-0.00028	-0.00012	4
13929	-1e-05	-8e-05	-1e-05	-5e-05	0.00018	-0.00022	-0.00028	-0.00012	4
13930	-1e-05	-8e-05	-1e-05	-5e-05	0.00018	-0.00022	-0.00028	-0.00012	4
13931	-1e-05	-8e-05	-1e-05	-5e-05	0.00018	-0.00022	-0.00028	-0.00012	4
13932	-1e-05	-8e-05	-1e-05	-5e-05	0.00018	-0.00022	-0.00028	-0.00012	4
13933	-1e-05	-8e-05	-1e-05	-5e-05	0.00018	-0.00022	-0.00028	-0.00012	4
13934	-1e-05	-8e-05	-1e-05	-5e-05	0.00018	-0.00022	-0.00028	-0.00012	4
13935	-1e-05	-8e-05	-1e-05	-5e-05	0.00018	-0.00022	-0.00028	-0.00012	4
13936	-1e-05	-8e-05	-1e-05	-5e-05	0.00018	-0.00022	-0.00028	-0.00012	4
13938	-1e-05	-8e-05	-1e-05	-5e-05	0.00018	-0.00022	-0.00028	-0.00012	4
13939	9e-05	0.00014	0.00027	0.00101	0.00047	0.00041	0.00022	0.0001	4
13940	9e-05	0.00014	0.00027	0.00101	0.00047	0.00041	0.00022	0.0001	4
13941	9e-05	0.00014	0.00027	0.00101	0.00047	0.00041	0.00022	0.0001	4
13942	9e-05	0.00014	0.00027	0.00101	0.00047	0.00041	0.00022	0.0001	4
13943	9e-05	0.00014	0.00027	0.00101	0.00047	0.00041	0.00022	0.0001	4
13944	9e-05	0.00014	0.00027	0.00101	0.00047	0.00041	0.00022	0.0001	4
13945	9e-05	0.00014	0.00027	0.00101	0.00047	0.00041	0.00022	0.0001	4
13946	9e-05	0.00014	0.00027	0.00101	0.00047	0.00041	0.00022	0.0001	4
13947	9e-05	0.00014	0.00027	0.00101	0.00047	0.00041	0.00022	0.0001	4
13948	9e-05	0.00014	0.00027	0.00101	0.00047	0.00041	0.00022	0.0001	4
13950	9e-05	0.00014	0.00027	0.00101	0.00047	0.00041	0.00022	0.0001	4
13951	9e-05	0.00014	0.00027	0.00101	0.00047	0.00041	0.00022	0.0001	4
13952	9e-05	0.00014	0.00027	0.00101	0.00047	0.00041	0.00022	0.0001	4
13953	9e-05	0.00014	0.00027	0.00101	0.00047	0.00041	0.00022	0.0001	4
13954	9e-05	0.00014	0.00027	0.00101	0.00047	0.00041	0.00022	0.0001	4
13955	9e-05	0.00014	0.00027	0.00101	0.00047	0.00041	0.00022	0.0001	4
13956	9e-05	0.00014	0.00027	0.00101	0.00047	0.00041	0.00022	0.0001	4
13957	9e-05	0.00014	0.00027	0.00101	0.00047	0.00041	0.00022	0.0001	4
13958	9e-05	0.00014	0.00027	0.00101	0.00047	0.00041	0.00022	0.0001	4
13959	9e-05	0.00014	0.00027	0.00101	0.00047	0.00041	0.00022	0.0001	4
13960	0.0002	0.00017	0.00024	9e-05	-0.00015	-5e-05	-6e-05	0.00015	4
13961	-0.00022	-0.00029	-0.00053	-0.00117	-0.00033	-0.00015	-6e-05	-0.00029	4
13962	-0.00022	-0.00029	-0.00053	-0.00117	-0.00033	-0.00015	-6e-05	-0.00029	4
13963	-0.00022	-0.00029	-0.00053	-0.00117	-0.00033	-0.00015	-6e-05	-0.00029	4
13964	-0.00022	-0.00029	-0.00053	-0.00117	-0.00033	-0.00015	-6e-05	-0.00029	4
13965	-0.00022	-0.00029	-0.00053	-0.00117	-0.00033	-0.00015	-6e-05	-0.00029	4
13966	-0.00022	-0.00029	-0.00053	-0.00117	-0.00033	-0.00015	-6e-05	-0.00029	4
13967	-0.00022	-0.00029	-0.00053	-0.00117	-0.00033	-0.00015	-6e-05	-0.00029	4
13968	-0.00022	-0.00029	-0.00053	-0.00117	-0.00033	-0.00015	-6e-05	-0.00029	4
13969	-0.00022	-0.00029	-0.00053	-0.00117	-0.00033	-0.00015	-6e-05	-0.00029	4
13970	-0.00022	-0.00029	-0.00053	-0.00117	-0.00033	-0.00015	-6e-05	-0.00029	4
13971	-0.00022	-0.00029	-0.00053	-0.00117	-0.00033	-0.00015	-6e-05	-0.00029	4
13972	-0.00022	-0.00029	-0.00053	-0.00117	-0.00033	-0.00015	-6e-05	-0.00029	4
13973	-0.00022	-0.00029	-0.00053	-0.00117	-0.00033	-0.00015	-6e-05	-0.00029	4
13974	-0.00022	-0.00029	-0.00053	-0.00117	-0.00033	-0.00015	-6e-05	-0.00029	4
13975	5e-05	0.00013	0.00024	0.00019	-0.0003	2e-05	-9e-05	8e-05	4
13976	-0.0001	-0.00018	-0.0002	0.0003	-8e-05	-7e-05	-3e-05	-0.0001	4
13977	-0.0001	-0.00018	-0.0002	0.0003	-8e-05	-7e-05	-3e-05	-0.0001	4
13978	-0.0001	-0.00018	-0.0002	0.0003	-8e-05	-7e-05	-3e-05	-0.0001	4
13979	-0.0001	-0.00018	-0.0002	0.0003	-8e-05	-7e-05	-3e-05	-0.0001	4
13980	-0.0001	-0.00018	-0.0002	0.0003	-8e-05	-7e-05	-3e-05	-0.0001	4
13981	-0.0001	-0.00018	-0.0002	0.0003	-8e-05	-7e-05	-3e-05	-0.0001	4
13982	-0.00018	0	1e-05	6e-05	-0.00059	-0.00011	4e-05	-1e-05	4
13983	-0.00018	0	1e-05	6e-05	-0.00059	-0.00011	4e-05	-1e-05	4
13984	-0.00018	0	1e-05	6e-05	-0.00059	-0.00011	4e-05	-1e-05	4
13985	-0.00018	0	1e-05	6e-05	-0.00059	-0.00011	4e-05	-1e-05	4
13986	-0.00018	0	1e-05	6e-05	-0.00059	-0.00011	4e-05	-1e-05	4
13988	-0.00018	0	1e-05	6e-05	-0.00059	-0.00011	4e-05	-1e-05	4
13989	-0.00018	0	1e-05	6e-05	-0.00059	-0.00011	4e-05	-1e-05	4
13990	-0.00018	0	1e-05	6e-05	-0.00059	-0.00011	4e-05	-1e-05	4
13991	-0.00018	0	1e-05	6e-05	-0.00059	-0.00011	4e-05	-1e-05	4
13992	-0.00018	0	1e-05	6e-05	-0.00059	-0.00011	4e-05	-1e-05	4
13993	-0.00018	0	1e-05	6e-05	-0.00059	-0.00011	4e-05	-1e-05	4
13994	-0.00018	0	1e-05	6e-05	-0.00059	-0.00011	4e-05	-1e-05	4
13995	-0.00018	0	1e-05	6e-05	-0.00059	-0.00011	4e-05	-1e-05	4
13996	-0.00018	0	1e-05	6e-05	-0.00059	-0.00011	4e-05	-1e-05	4
13997	-0.00018	0	1e-05	6e-05	-0.00059	-0.00011	4e-05	-1e-05	4
13998	0.00019	2e-05	4e-05	-0.00047	0.00028	0.00011	0	0.00027	4
13999	0.00019	2e-05	4e-05	-0.00047	0.00028	0.00011	0	0.00027	4
14000	0.00019	2e-05	4e-05	-0.00047	0.00028	0.00011	0	0.00027	4
14001	0.00019	2e-05	4e-05	-0.00047	0.00028	0.00011	0	0.00027	4
14002	0.00019	2e-05	4e-05	-0.00047	0.00028	0.00011	0	0.00027	4
14003	0.00019	2e-05	4e-05	-0.00047	0.00028	0.00011	0	0.00027	4
14004	0.00019	2e-05	4e-05	-0.00047	0.00028	0.00011	0	0.00027	4
14005	0.00019	2e-05	4e-05	-0.00047	0.00028	0.00011	0	0.00027	4
14006	0.00019	2e-05	4e-05	-0.00047	0.00028	0.00011	0	0.00027	4
14007	0.00019	2e-05	4e-05	-0.00047	0.00028	0.00011	0	0.00027	4
14008	0.00019	2e-05	4e-05	-0.00047	0.00028	0.00011	0	0.00027	4
14009	0.00019	2e-05	4e-05	-0.00047	0.00028	0.00011	0	0.00027	4
14010	0.00019	2e-05	4e-05	-0.00047	0.00028	0.00011	0	0.00027	4
14011	0.00019	2e-05	4e-05	-0.00047	0.00028	0.00011	0	0.00027	4
14012	7e-05	0.00021	0.00022	0.00095	0.00032	-0.0001	9e-05	8e-05	4
14013	7e-05	0.00021	0.00022	0.00095	0.00032	-0.0001	9e-05	8e-05	4
14014	7e-05	0.00021	0.00022	0.00095	0.00032	-0.0001	9e-05	8e-05	4
14015	7e-05	0.00021	0.00022	0.00095	0.00032	-0.0001	9e-05	8e-05	4
14016	7e-05	0.00021	0.00022	0.00095	0.00032	-0.0001	9e-05	8e-05	4
14017	7e-05	0.00021	0.00022	0.00095	0.00032	-0.0001	9e-05	8e-05	4
14018	7e-05	0.00021	0.00022	0.00095	0.00032	-0.0001	9e-05	8e-05	4
14019	-0.00015	-0.00017	-0.00027	-0.00062	-0.00052	-0.00052	-0.00022	-0.00031	4
14020	-0.00015	-0.00017	-0.00027	-0.00062	-0.00052	-0.00052	-0.00022	-0.00031	4
14021	-0.00015	-0.00017	-0.00027	-0.00062	-0.00052	-0.00052	-0.00022	-0.00031	4
14022	-0.00015	-0.00017	-0.00027	-0.00062	-0.00052	-0.00052	-0.00022	-0.00031	4
14023	-0.00015	-0.00017	-0.00027	-0.00062	-0.00052	-0.00052	-0.00022	-0.00031	4
14024	-0.00015	-0.00017	-0.00027	-0.00062	-0.00052	-0.00052	-0.00022	-0.00031	4
14025	-0.00015	-0.00017	-0.00027	-0.00062	-0.00052	-0.00052	-0.00022	-0.00031	4
14026	-0.00015	-0.00017	-0.00027	-0.00062	-0.00052	-0.00052	-0.00022	-0.00031	4
14027	-0.00015	-0.00017	-0.00027	-0.00062	-0.00052	-0.00052	-0.00022	-0.00031	4
14028	-0.00015	-0.00017	-0.00027	-0.00062	-0.00052	-0.00052	-0.00022	-0.00031	4
14029	-0.00015	-0.00017	-0.00027	-0.00062	-0.00052	-0.00052	-0.00022	-0.00031	4
14030	-0.00015	-0.00017	-0.00027	-0.00062	-0.00052	-0.00052	-0.00022	-0.00031	4
14031	-0.00015	-0.00017	-0.00027	-0.00062	-0.00052	-0.00052	-0.00022	-0.00031	4
14032	-0.00015	-0.00017	-0.00027	-0.00062	-0.00052	-0.00052	-0.00022	-0.00031	4
14033	-0.00015	-0.00017	-0.00027	-0.00062	-0.00052	-0.00052	-0.00022	-0.00031	4
14034	-7e-05	-8e-05	-0.0002	-0.00085	-0.00014	-5e-05	2e-05	-1e-05	4
14035	-0.00011	-0.00012	-0.00022	-0.00051	-0.00073	-0.00039	-9e-05	-0.00017	4
14036	-0.00011	-0.00012	-0.00022	-0.00051	-0.00073	-0.00039	-9e-05	-0.00017	4
14038	-0.00011	-0.00012	-0.00022	-0.00051	-0.00073	-0.00039	-9e-05	-0.00017	4
14039	-0.00011	-0.00012	-0.00022	-0.00051	-0.00073	-0.00039	-9e-05	-0.00017	4
14040	-0.00011	-0.00012	-0.00022	-0.00051	-0.00073	-0.00039	-9e-05	-0.00017	4
14041	-0.00011	-0.00012	-0.00022	-0.00051	-0.00073	-0.00039	-9e-05	-0.00017	4
14042	-0.00011	-0.00012	-0.00022	-0.00051	-0.00073	-0.00039	-9e-05	-0.00017	4
14043	-0.00011	-0.00012	-0.00022	-0.00051	-0.00073	-0.00039	-9e-05	-0.00017	4
14044	-0.00011	-0.00012	-0.00022	-0.00051	-0.00073	-0.00039	-9e-05	-0.00017	4
14045	-0.00011	-0.00012	-0.00022	-0.00051	-0.00073	-0.00039	-9e-05	-0.00017	4
14046	-0.00011	-0.00012	-0.00022	-0.00051	-0.00073	-0.00039	-9e-05	-0.00017	4
14047	-0.00011	-0.00012	-0.00022	-0.00051	-0.00073	-0.00039	-9e-05	-0.00017	4
14048	-0.00011	-0.00012	-0.00022	-0.00051	-0.00073	-0.00039	-9e-05	-0.00017	4
14049	-0.00011	-0.00012	-0.00022	-0.00051	-0.00073	-0.00039	-9e-05	-0.00017	4
14050	-0.00011	-0.00012	-0.00022	-0.00051	-0.00073	-0.00039	-9e-05	-0.00017	4
14051	-0.00011	-0.00012	-0.00022	-0.00051	-0.00073	-0.00039	-9e-05	-0.00017	4
14052	-0.00011	-0.00012	-0.00022	-0.00051	-0.00073	-0.00039	-9e-05	-0.00017	4
14053	-0.00011	-0.00012	-0.00022	-0.00051	-0.00073	-0.00039	-9e-05	-0.00017	4
14054	-0.00011	-0.00012	-0.00022	-0.00051	-0.00073	-0.00039	-9e-05	-0.00017	4
14055	-0.00011	-0.00012	-0.00022	-0.00051	-0.00073	-0.00039	-9e-05	-0.00017	4
14056	-0.00011	-0.00012	-0.00022	-0.00051	-0.00073	-0.00039	-9e-05	-0.00017	4
14057	-0.00011	-0.00012	-0.00022	-0.00051	-0.00073	-0.00039	-9e-05	-0.00017	4
14058	0.00011	0.00023	0.0005	0.00127	0.00111	0.00044	0.00021	0.00016	4
14059	0.00011	0.00023	0.0005	0.00127	0.00111	0.00044	0.00021	0.00016	4
14060	0.00011	0.00023	0.0005	0.00127	0.00111	0.00044	0.00021	0.00016	4
14061	0.00011	0.00023	0.0005	0.00127	0.00111	0.00044	0.00021	0.00016	4
14062	0.00011	0.00023	0.0005	0.00127	0.00111	0.00044	0.00021	0.00016	4
14063	0.00011	0.00023	0.0005	0.00127	0.00111	0.00044	0.00021	0.00016	4
14064	0.00011	0.00023	0.0005	0.00127	0.00111	0.00044	0.00021	0.00016	4
14065	0.00011	0.00023	0.0005	0.00127	0.00111	0.00044	0.00021	0.00016	4
14066	0.00011	0.00023	0.0005	0.00127	0.00111	0.00044	0.00021	0.00016	4
14067	0.00011	0.00023	0.0005	0.00127	0.00111	0.00044	0.00021	0.00016	4
14068	0.00011	0.00023	0.0005	0.00127	0.00111	0.00044	0.00021	0.00016	4
14070	0.00011	0.00023	0.0005	0.00127	0.00111	0.00044	0.00021	0.00016	4
14071	0.00011	0.00023	0.0005	0.00127	0.00111	0.00044	0.00021	0.00016	4
14072	0.00011	0.00023	0.0005	0.00127	0.00111	0.00044	0.00021	0.00016	4
14073	0.00011	0.00023	0.0005	0.00127	0.00111	0.00044	0.00021	0.00016	4
14074	0.00011	0.00023	0.0005	0.00127	0.00111	0.00044	0.00021	0.00016	4
14075	0.00011	0.00023	0.0005	0.00127	0.00111	0.00044	0.00021	0.00016	4
14076	0.00011	0.00023	0.0005	0.00127	0.00111	0.00044	0.00021	0.00016	4
14077	0.00011	0.00023	0.0005	0.00127	0.00111	0.00044	0.00021	0.00016	4
14078	0.00011	0.00023	0.0005	0.00127	0.00111	0.00044	0.00021	0.00016	4
14079	0.00011	0.00023	0.0005	0.00127	0.00111	0.00044	0.00021	0.00016	4
14080	0.00011	0.00023	0.0005	0.00127	0.00111	0.00044	0.00021	0.00016	4
14081	0.00011	0.00023	0.0005	0.00127	0.00111	0.00044	0.00021	0.00016	4
14082	0.00011	0.00023	0.0005	0.00127	0.00111	0.00044	0.00021	0.00016	4
14083	0.00011	0.00023	0.0005	0.00127	0.00111	0.00044	0.00021	0.00016	4
14084	0.00011	0.00023	0.0005	0.00127	0.00111	0.00044	0.00021	0.00016	4
14085	0.00011	0.00023	0.0005	0.00127	0.00111	0.00044	0.00021	0.00016	4
14086	0.00011	0.00023	0.0005	0.00127	0.00111	0.00044	0.00021	0.00016	4
14088	6e-05	0.00014	0.00034	0.00013	-0.00037	5e-05	5e-05	-6e-05	4
14089	6e-05	0.00014	0.00034	0.00013	-0.00037	5e-05	5e-05	-6e-05	4
14090	6e-05	0.00014	0.00034	0.00013	-0.00037	5e-05	5e-05	-6e-05	4
14091	6e-05	0.00014	0.00034	0.00013	-0.00037	5e-05	5e-05	-6e-05	4
14092	6e-05	0.00014	0.00034	0.00013	-0.00037	5e-05	5e-05	-6e-05	4
14093	6e-05	0.00014	0.00034	0.00013	-0.00037	5e-05	5e-05	-6e-05	4
14094	6e-05	0.00014	0.00034	0.00013	-0.00037	5e-05	5e-05	-6e-05	4
14095	6e-05	0.00014	0.00034	0.00013	-0.00037	5e-05	5e-05	-6e-05	4
14096	5e-05	-5e-05	-0.00011	-0.00051	-0.0003	0.00014	0.00011	0.00016	4
14097	0	2e-05	-0.0001	-0.00058	0.00051	2e-05	-5e-05	-0.00021	4
14098	0	7e-05	8e-05	0.00013	-0.00037	-0.0001	-0.0001	-0.00011	4
14099	0	7e-05	8e-05	0.00013	-0.00037	-0.0001	-0.0001	-0.00011	4
14100	0	7e-05	8e-05	0.00013	-0.00037	-0.0001	-0.0001	-0.00011	4
14101	0	7e-05	8e-05	0.00013	-0.00037	-0.0001	-0.0001	-0.00011	4
14102	0	7e-05	8e-05	0.00013	-0.00037	-0.0001	-0.0001	-0.00011	4
14103	0	7e-05	8e-05	0.00013	-0.00037	-0.0001	-0.0001	-0.00011	4
14104	0	7e-05	8e-05	0.00013	-0.00037	-0.0001	-0.0001	-0.00011	4
14105	0	7e-05	8e-05	0.00013	-0.00037	-0.0001	-0.0001	-0.00011	4
14106	0	7e-05	8e-05	0.00013	-0.00037	-0.0001	-0.0001	-0.00011	4
14107	0	7e-05	8e-05	0.00013	-0.00037	-0.0001	-0.0001	-0.00011	4
14108	0	7e-05	8e-05	0.00013	-0.00037	-0.0001	-0.0001	-0.00011	4
14109	0	7e-05	8e-05	0.00013	-0.00037	-0.0001	-0.0001	-0.00011	4
14110	0	7e-05	8e-05	0.00013	-0.00037	-0.0001	-0.0001	-0.00011	4
14111	0	7e-05	8e-05	0.00013	-0.00037	-0.0001	-0.0001	-0.00011	4
14112	0	7e-05	8e-05	0.00013	-0.00037	-0.0001	-0.0001	-0.00011	4
14113	0	7e-05	8e-05	0.00013	-0.00037	-0.0001	-0.0001	-0.00011	4
14114	0	7e-05	8e-05	0.00013	-0.00037	-0.0001	-0.0001	-0.00011	4
14115	0	7e-05	8e-05	0.00013	-0.00037	-0.0001	-0.0001	-0.00011	4
14116	0	7e-05	8e-05	0.00013	-0.00037	-0.0001	-0.0001	-0.00011	4
14117	0	7e-05	8e-05	0.00013	-0.00037	-0.0001	-0.0001	-0.00011	4
14118	0	7e-05	8e-05	0.00013	-0.00037	-0.0001	-0.0001	-0.00011	4
14119	0	7e-05	8e-05	0.00013	-0.00037	-0.0001	-0.0001	-0.00011	4
14120	0	7e-05	8e-05	0.00013	-0.00037	-0.0001	-0.0001	-0.00011	4
14121	0	7e-05	8e-05	0.00013	-0.00037	-0.0001	-0.0001	-0.00011	4
14122	0	7e-05	8e-05	0.00013	-0.00037	-0.0001	-0.0001	-0.00011	4
14123	0	7e-05	8e-05	0.00013	-0.00037	-0.0001	-0.0001	-0.00011	4
14124	0	7e-05	8e-05	0.00013	-0.00037	-0.0001	-0.0001	-0.00011	4
14125	-2e-05	-7e-05	-4e-05	-0.00032	-0.00013	0.00026	-5e-05	-1e-05	4
14126	-1e-05	-7e-05	-0.00011	0.00011	-4e-05	-3e-05	-0.00012	-5e-05	4
14127	-1e-05	-7e-05	-0.00011	0.00011	-4e-05	-3e-05	-0.00012	-5e-05	4
14128	-1e-05	-7e-05	-0.00011	0.00011	-4e-05	-3e-05	-0.00012	-5e-05	4
14129	-1e-05	-7e-05	-0.00011	0.00011	-4e-05	-3e-05	-0.00012	-5e-05	4
14130	-1e-05	-7e-05	-0.00011	0.00011	-4e-05	-3e-05	-0.00012	-5e-05	4
14131	-1e-05	-2e-05	2e-05	0.0006	5e-05	-4e-05	-5e-05	-5e-05	4
14132	-1e-05	-2e-05	2e-05	0.0006	5e-05	-4e-05	-5e-05	-5e-05	4
14133	-1e-05	-2e-05	2e-05	0.0006	5e-05	-4e-05	-5e-05	-5e-05	4
14134	-1e-05	-2e-05	2e-05	0.0006	5e-05	-4e-05	-5e-05	-5e-05	4
14135	-1e-05	-2e-05	2e-05	0.0006	5e-05	-4e-05	-5e-05	-5e-05	4
14136	-1e-05	-2e-05	2e-05	0.0006	5e-05	-4e-05	-5e-05	-5e-05	4
14138	-1e-05	-2e-05	2e-05	0.0006	5e-05	-4e-05	-5e-05	-5e-05	4
14139	-1e-05	-2e-05	2e-05	0.0006	5e-05	-4e-05	-5e-05	-5e-05	4
14140	-1e-05	-2e-05	2e-05	0.0006	5e-05	-4e-05	-5e-05	-5e-05	4
14141	-1e-05	-2e-05	2e-05	0.0006	5e-05	-4e-05	-5e-05	-5e-05	4
14142	-1e-05	-2e-05	2e-05	0.0006	5e-05	-4e-05	-5e-05	-5e-05	4
14143	-1e-05	-2e-05	2e-05	0.0006	5e-05	-4e-05	-5e-05	-5e-05	4
14144	-1e-05	-2e-05	2e-05	0.0006	5e-05	-4e-05	-5e-05	-5e-05	4
14145	-1e-05	-2e-05	2e-05	0.0006	5e-05	-4e-05	-5e-05	-5e-05	4
14146	-1e-05	-2e-05	2e-05	0.0006	5e-05	-4e-05	-5e-05	-5e-05	4
14147	8e-05	4e-05	-0.0001	-0.00086	-0.0003	-4e-05	1e-05	6e-05	4
14148	8e-05	4e-05	-0.0001	-0.00086	-0.0003	-4e-05	1e-05	6e-05	4
14149	8e-05	4e-05	-0.0001	-0.00086	-0.0003	-4e-05	1e-05	6e-05	4
14150	8e-05	4e-05	-0.0001	-0.00086	-0.0003	-4e-05	1e-05	6e-05	4
14151	8e-05	4e-05	-0.0001	-0.00086	-0.0003	-4e-05	1e-05	6e-05	4
14152	8e-05	4e-05	-0.0001	-0.00086	-0.0003	-4e-05	1e-05	6e-05	4
14153	8e-05	4e-05	-0.0001	-0.00086	-0.0003	-4e-05	1e-05	6e-05	4
14154	-0.00012	-0.00012	-0.00019	-0.00061	2e-05	7e-05	-4e-05	-0.00015	4
14155	0.00014	0.00017	0.00034	0.0004	-0.00021	0.00048	0.00036	0.00033	4
14156	0.00014	0.00017	0.00034	0.0004	-0.00021	0.00048	0.00036	0.00033	4
14157	0.00014	0.00017	0.00034	0.0004	-0.00021	0.00048	0.00036	0.00033	4
14158	0.00014	0.00017	0.00034	0.0004	-0.00021	0.00048	0.00036	0.00033	4
14159	0.00014	0.00017	0.00034	0.0004	-0.00021	0.00048	0.00036	0.00033	4
14160	0.00014	0.00017	0.00034	0.0004	-0.00021	0.00048	0.00036	0.00033	4
14161	0.00014	0.00017	0.00034	0.0004	-0.00021	0.00048	0.00036	0.00033	4
14162	0.00014	0.00017	0.00034	0.0004	-0.00021	0.00048	0.00036	0.00033	4
14163	0.00014	0.00017	0.00034	0.0004	-0.00021	0.00048	0.00036	0.00033	4
14164	0.00014	0.00017	0.00034	0.0004	-0.00021	0.00048	0.00036	0.00033	4
14165	0.00014	0.00017	0.00034	0.0004	-0.00021	0.00048	0.00036	0.00033	4
14166	0.00014	0.00017	0.00034	0.0004	-0.00021	0.00048	0.00036	0.00033	4
14167	0.00014	0.00017	0.00034	0.0004	-0.00021	0.00048	0.00036	0.00033	4
14168	0.00014	0.00017	0.00034	0.0004	-0.00021	0.00048	0.00036	0.00033	4
14169	0.00014	0.00017	0.00034	0.0004	-0.00021	0.00048	0.00036	0.00033	4
14170	0.00014	0.00017	0.00034	0.0004	-0.00021	0.00048	0.00036	0.00033	4
14171	0.00014	0.00017	0.00034	0.0004	-0.00021	0.00048	0.00036	0.00033	4
14172	0.00014	0.00017	0.00034	0.0004	-0.00021	0.00048	0.00036	0.00033	4
14173	0.00014	0.00017	0.00034	0.0004	-0.00021	0.00048	0.00036	0.00033	4
14174	0.00014	0.00017	0.00034	0.0004	-0.00021	0.00048	0.00036	0.00033	4
14175	0.00014	0.00017	0.00034	0.0004	-0.00021	0.00048	0.00036	0.00033	4
14176	0.00014	0.00017	0.00034	0.0004	-0.00021	0.00048	0.00036	0.00033	4
14177	0.00014	0.00017	0.00034	0.0004	-0.00021	0.00048	0.00036	0.00033	4
14178	-7e-05	-1e-05	-3e-05	0.00024	0.00062	-8e-05	-6e-05	-0.00013	4
14179	-7e-05	-1e-05	-3e-05	0.00024	0.00062	-8e-05	-6e-05	-0.00013	4
14180	-7e-05	-1e-05	-3e-05	0.00024	0.00062	-8e-05	-6e-05	-0.00013	4
14181	-7e-05	-1e-05	-3e-05	0.00024	0.00062	-8e-05	-6e-05	-0.00013	4
14182	-7e-05	-1e-05	-3e-05	0.00024	0.00062	-8e-05	-6e-05	-0.00013	4
14183	-7e-05	-1e-05	-3e-05	0.00024	0.00062	-8e-05	-6e-05	-0.00013	4
14184	-7e-05	-1e-05	-3e-05	0.00024	0.00062	-8e-05	-6e-05	-0.00013	4
14185	-7e-05	-1e-05	-3e-05	0.00024	0.00062	-8e-05	-6e-05	-0.00013	4
14186	-7e-05	-1e-05	-3e-05	0.00024	0.00062	-8e-05	-6e-05	-0.00013	4
14188	-7e-05	-1e-05	-3e-05	0.00024	0.00062	-8e-05	-6e-05	-0.00013	4
14189	-7e-05	-1e-05	-3e-05	0.00024	0.00062	-8e-05	-6e-05	-0.00013	4
14190	-7e-05	-1e-05	-3e-05	0.00024	0.00062	-8e-05	-6e-05	-0.00013	4
14191	-7e-05	-1e-05	-3e-05	0.00024	0.00062	-8e-05	-6e-05	-0.00013	4
14192	-7e-05	-1e-05	-3e-05	0.00024	0.00062	-8e-05	-6e-05	-0.00013	4
14193	-7e-05	-1e-05	-3e-05	0.00024	0.00062	-8e-05	-6e-05	-0.00013	4
14194	-7e-05	-1e-05	-3e-05	0.00024	0.00062	-8e-05	-6e-05	-0.00013	4
14195	-7e-05	-1e-05	-3e-05	0.00024	0.00062	-8e-05	-6e-05	-0.00013	4
14196	-7e-05	-1e-05	-3e-05	0.00024	0.00062	-8e-05	-6e-05	-0.00013	4
14197	-7e-05	-1e-05	-3e-05	0.00024	0.00062	-8e-05	-6e-05	-0.00013	4
14199	-7e-05	-1e-05	-3e-05	0.00024	0.00062	-8e-05	-6e-05	-0.00013	4
14200	-7e-05	-1e-05	-3e-05	0.00024	0.00062	-8e-05	-6e-05	-0.00013	4
14201	-2e-05	1e-05	-1e-05	-0.00028	-0.00022	-0.00041	-0.00011	2e-05	4
14202	-2e-05	1e-05	-1e-05	-0.00028	-0.00022	-0.00041	-0.00011	2e-05	4
14203	-2e-05	1e-05	-1e-05	-0.00028	-0.00022	-0.00041	-0.00011	2e-05	4
14204	-2e-05	1e-05	-1e-05	-0.00028	-0.00022	-0.00041	-0.00011	2e-05	4
14205	-2e-05	1e-05	-1e-05	-0.00028	-0.00022	-0.00041	-0.00011	2e-05	4
14206	-2e-05	1e-05	-1e-05	-0.00028	-0.00022	-0.00041	-0.00011	2e-05	4
14207	-2e-05	1e-05	-1e-05	-0.00028	-0.00022	-0.00041	-0.00011	2e-05	4
14208	-2e-05	1e-05	-1e-05	-0.00028	-0.00022	-0.00041	-0.00011	2e-05	4
14209	-2e-05	1e-05	-1e-05	-0.00028	-0.00022	-0.00041	-0.00011	2e-05	4
14210	-2e-05	1e-05	-1e-05	-0.00028	-0.00022	-0.00041	-0.00011	2e-05	4
14211	-2e-05	1e-05	-1e-05	-0.00028	-0.00022	-0.00041	-0.00011	2e-05	4
14212	-2e-05	1e-05	-1e-05	-0.00028	-0.00022	-0.00041	-0.00011	2e-05	4
14213	-2e-05	1e-05	-1e-05	-0.00028	-0.00022	-0.00041	-0.00011	2e-05	4
14214	-5e-05	-7e-05	-0.00011	-0.00045	-0.00059	-0.00032	-1e-05	-0.00011	4
14215	9e-05	0.00013	0.00013	-5e-05	-0.00041	3e-05	0.00012	6e-05	4
14216	9e-05	0.00013	0.00013	-5e-05	-0.00041	3e-05	0.00012	6e-05	4
14217	9e-05	0.00013	0.00013	-5e-05	-0.00041	3e-05	0.00012	6e-05	4
14218	9e-05	0.00013	0.00013	-5e-05	-0.00041	3e-05	0.00012	6e-05	4
14219	9e-05	0.00013	0.00013	-5e-05	-0.00041	3e-05	0.00012	6e-05	4
14220	9e-05	0.00013	0.00013	-5e-05	-0.00041	3e-05	0.00012	6e-05	4
14221	9e-05	0.00013	0.00013	-5e-05	-0.00041	3e-05	0.00012	6e-05	4
14222	9e-05	0.00013	0.00013	-5e-05	-0.00041	3e-05	0.00012	6e-05	4
14223	9e-05	0.00013	0.00013	-5e-05	-0.00041	3e-05	0.00012	6e-05	4
14224	9e-05	0.00013	0.00013	-5e-05	-0.00041	3e-05	0.00012	6e-05	4
14225	9e-05	0.00013	0.00013	-5e-05	-0.00041	3e-05	0.00012	6e-05	4
14226	9e-05	0.00013	0.00013	-5e-05	-0.00041	3e-05	0.00012	6e-05	4
14227	9e-05	0.00013	0.00013	-5e-05	-0.00041	3e-05	0.00012	6e-05	4
14228	9e-05	0.00013	0.00013	-5e-05	-0.00041	3e-05	0.00012	6e-05	4
14229	9e-05	0.00013	0.00013	-5e-05	-0.00041	3e-05	0.00012	6e-05	4
14230	9e-05	0.00013	0.00013	-5e-05	-0.00041	3e-05	0.00012	6e-05	4
14231	9e-05	0.00013	0.00013	-5e-05	-0.00041	3e-05	0.00012	6e-05	4
14232	9e-05	0.00013	0.00013	-5e-05	-0.00041	3e-05	0.00012	6e-05	4
14233	9e-05	0.00013	0.00013	-5e-05	-0.00041	3e-05	0.00012	6e-05	4
14234	9e-05	0.00013	0.00013	-5e-05	-0.00041	3e-05	0.00012	6e-05	4
14235	9e-05	0.00013	0.00013	-5e-05	-0.00041	3e-05	0.00012	6e-05	4
14236	9e-05	0.00013	0.00013	-5e-05	-0.00041	3e-05	0.00012	6e-05	4
14238	1e-05	0	5e-05	0.00019	0.00016	5e-05	5e-05	2e-05	4
14239	4e-05	0.00013	0.00019	0.00035	-0.0002	0.00019	8e-05	-3e-05	4
14240	4e-05	0.00013	0.00019	0.00035	-0.0002	0.00019	8e-05	-3e-05	4
14241	4e-05	0.00013	0.00019	0.00035	-0.0002	0.00019	8e-05	-3e-05	4
14242	4e-05	0.00013	0.00019	0.00035	-0.0002	0.00019	8e-05	-3e-05	4
14243	4e-05	0.00013	0.00019	0.00035	-0.0002	0.00019	8e-05	-3e-05	4
14244	4e-05	0.00013	0.00019	0.00035	-0.0002	0.00019	8e-05	-3e-05	4
14246	4e-05	0.00013	0.00019	0.00035	-0.0002	0.00019	8e-05	-3e-05	4
14247	4e-05	0.00013	0.00019	0.00035	-0.0002	0.00019	8e-05	-3e-05	4
14248	4e-05	0.00013	0.00019	0.00035	-0.0002	0.00019	8e-05	-3e-05	4
14249	4e-05	0.00013	0.00019	0.00035	-0.0002	0.00019	8e-05	-3e-05	4
14250	4e-05	0.00013	0.00019	0.00035	-0.0002	0.00019	8e-05	-3e-05	4
14251	4e-05	0.00013	0.00019	0.00035	-0.0002	0.00019	8e-05	-3e-05	4
14252	4e-05	0.00013	0.00019	0.00035	-0.0002	0.00019	8e-05	-3e-05	4
14253	4e-05	0.00013	0.00019	0.00035	-0.0002	0.00019	8e-05	-3e-05	4
14254	4e-05	0.00013	0.00019	0.00035	-0.0002	0.00019	8e-05	-3e-05	4
14255	4e-05	0.00013	0.00019	0.00035	-0.0002	0.00019	8e-05	-3e-05	4
14256	4e-05	0.00013	0.00019	0.00035	-0.0002	0.00019	8e-05	-3e-05	4
14257	4e-05	0.00013	0.00019	0.00035	-0.0002	0.00019	8e-05	-3e-05	4
14258	4e-05	0.00013	0.00019	0.00035	-0.0002	0.00019	8e-05	-3e-05	4
14259	4e-05	0.00013	0.00019	0.00035	-0.0002	0.00019	8e-05	-3e-05	4
14260	1e-05	-2e-05	6e-05	0.00027	-0.00031	-0.00018	-0.00015	-0.00025	4
14261	-4e-05	-0.0001	-0.00014	-0.00051	0.00012	8e-05	1e-05	2e-05	4
14262	-4e-05	-0.0001	-0.00014	-0.00051	0.00012	8e-05	1e-05	2e-05	4
14263	-4e-05	-0.0001	-0.00014	-0.00051	0.00012	8e-05	1e-05	2e-05	4
14264	-4e-05	-0.0001	-0.00014	-0.00051	0.00012	8e-05	1e-05	2e-05	4
14265	-4e-05	-0.0001	-0.00014	-0.00051	0.00012	8e-05	1e-05	2e-05	4
14266	-4e-05	-0.0001	-0.00014	-0.00051	0.00012	8e-05	1e-05	2e-05	4
14267	-4e-05	-0.0001	-0.00014	-0.00051	0.00012	8e-05	1e-05	2e-05	4
14268	-4e-05	-0.0001	-0.00014	-0.00051	0.00012	8e-05	1e-05	2e-05	4
14269	-4e-05	-0.0001	-0.00014	-0.00051	0.00012	8e-05	1e-05	2e-05	4
14270	-4e-05	-0.0001	-0.00014	-0.00051	0.00012	8e-05	1e-05	2e-05	4
14271	-4e-05	-0.0001	-0.00014	-0.00051	0.00012	8e-05	1e-05	2e-05	4
14272	-4e-05	-0.0001	-0.00014	-0.00051	0.00012	8e-05	1e-05	2e-05	4
14273	-4e-05	-0.0001	-0.00014	-0.00051	0.00012	8e-05	1e-05	2e-05	4
14274	-1e-05	-2e-05	8e-05	0.0008	0.00054	0.00029	1e-05	-5e-05	4
14275	-3e-05	-6e-05	-5e-05	4e-05	0.00094	0.00056	4e-05	-3e-05	4
14276	-3e-05	-6e-05	-5e-05	4e-05	0.00094	0.00056	4e-05	-3e-05	4
14277	-3e-05	-6e-05	-5e-05	4e-05	0.00094	0.00056	4e-05	-3e-05	4
14278	-3e-05	-6e-05	-5e-05	4e-05	0.00094	0.00056	4e-05	-3e-05	4
14279	-3e-05	-6e-05	-5e-05	4e-05	0.00094	0.00056	4e-05	-3e-05	4
14280	-3e-05	-6e-05	-5e-05	4e-05	0.00094	0.00056	4e-05	-3e-05	4
14281	-3e-05	-6e-05	-5e-05	4e-05	0.00094	0.00056	4e-05	-3e-05	4
14282	-3e-05	-6e-05	-5e-05	4e-05	0.00094	0.00056	4e-05	-3e-05	4
14283	-3e-05	-6e-05	-5e-05	4e-05	0.00094	0.00056	4e-05	-3e-05	4
14284	-3e-05	-6e-05	-5e-05	4e-05	0.00094	0.00056	4e-05	-3e-05	4
14285	-3e-05	-6e-05	-5e-05	4e-05	0.00094	0.00056	4e-05	-3e-05	4
14286	-3e-05	-6e-05	-5e-05	4e-05	0.00094	0.00056	4e-05	-3e-05	4
14288	-3e-05	-6e-05	-5e-05	4e-05	0.00094	0.00056	4e-05	-3e-05	4
14289	-3e-05	-6e-05	-5e-05	4e-05	0.00094	0.00056	4e-05	-3e-05	4
14290	-3e-05	-6e-05	-5e-05	4e-05	0.00094	0.00056	4e-05	-3e-05	4
14291	-3e-05	-6e-05	-5e-05	4e-05	0.00094	0.00056	4e-05	-3e-05	4
14292	-3e-05	-6e-05	-5e-05	4e-05	0.00094	0.00056	4e-05	-3e-05	4
14293	-3e-05	-6e-05	-5e-05	4e-05	0.00094	0.00056	4e-05	-3e-05	4
14294	-3e-05	-6e-05	-5e-05	4e-05	0.00094	0.00056	4e-05	-3e-05	4
14295	-3e-05	-6e-05	-5e-05	4e-05	0.00094	0.00056	4e-05	-3e-05	4
14296	-3e-05	-6e-05	-5e-05	4e-05	0.00094	0.00056	4e-05	-3e-05	4
14297	3e-05	4e-05	7e-05	0.00034	-2e-05	0.0002	0.00015	0.0001	4
14298	-5e-05	-7e-05	-0.0001	-0.00084	-0.00057	-1e-05	0.0001	-2e-05	4
14299	-5e-05	-7e-05	-0.0001	-0.00084	-0.00057	-1e-05	0.0001	-2e-05	4
14300	-5e-05	-7e-05	-0.0001	-0.00084	-0.00057	-1e-05	0.0001	-2e-05	4
14301	-5e-05	-7e-05	-0.0001	-0.00084	-0.00057	-1e-05	0.0001	-2e-05	4
14302	-5e-05	-7e-05	-0.0001	-0.00084	-0.00057	-1e-05	0.0001	-2e-05	4
14303	-5e-05	-7e-05	-0.0001	-0.00084	-0.00057	-1e-05	0.0001	-2e-05	4
14304	-5e-05	-7e-05	-0.0001	-0.00084	-0.00057	-1e-05	0.0001	-2e-05	4
14305	-5e-05	-7e-05	-0.0001	-0.00084	-0.00057	-1e-05	0.0001	-2e-05	4
14306	-5e-05	-7e-05	-0.0001	-0.00084	-0.00057	-1e-05	0.0001	-2e-05	4
14307	-5e-05	-7e-05	-0.0001	-0.00084	-0.00057	-1e-05	0.0001	-2e-05	4
14308	-5e-05	-7e-05	-0.0001	-0.00084	-0.00057	-1e-05	0.0001	-2e-05	4
14309	-5e-05	-7e-05	-0.0001	-0.00084	-0.00057	-1e-05	0.0001	-2e-05	4
14310	-5e-05	-7e-05	-0.0001	-0.00084	-0.00057	-1e-05	0.0001	-2e-05	4
14311	-5e-05	-7e-05	-0.0001	-0.00084	-0.00057	-1e-05	0.0001	-2e-05	4
14312	-5e-05	-7e-05	-0.0001	-0.00084	-0.00057	-1e-05	0.0001	-2e-05	4
14313	-5e-05	-7e-05	-0.0001	-0.00084	-0.00057	-1e-05	0.0001	-2e-05	4
14314	-5e-05	-7e-05	-0.0001	-0.00084	-0.00057	-1e-05	0.0001	-2e-05	4
14315	-5e-05	-7e-05	-0.0001	-0.00084	-0.00057	-1e-05	0.0001	-2e-05	4
14316	-5e-05	-7e-05	-0.0001	-0.00084	-0.00057	-1e-05	0.0001	-2e-05	4
14317	-5e-05	-7e-05	-0.0001	-0.00084	-0.00057	-1e-05	0.0001	-2e-05	4
14318	-5e-05	-7e-05	-0.0001	-0.00084	-0.00057	-1e-05	0.0001	-2e-05	4
14319	-5e-05	-7e-05	-0.0001	-0.00084	-0.00057	-1e-05	0.0001	-2e-05	4
14320	-2e-05	1e-05	2e-05	-0.00056	-5e-05	-0.00027	-0.00017	-0.00023	4
14321	-0.00011	-0.00012	-0.00015	0	-7e-05	-0.00018	-9e-05	-5e-05	4
14322	-0.00011	-0.00012	-0.00015	0	-7e-05	-0.00018	-9e-05	-5e-05	4
14323	-0.00011	-0.00012	-0.00015	0	-7e-05	-0.00018	-9e-05	-5e-05	4
14324	-0.00011	-0.00012	-0.00015	0	-7e-05	-0.00018	-9e-05	-5e-05	4
14325	-0.00011	-0.00012	-0.00015	0	-7e-05	-0.00018	-9e-05	-5e-05	4
14326	-0.00011	-0.00012	-0.00015	0	-7e-05	-0.00018	-9e-05	-5e-05	4
14327	-0.00011	-0.00012	-0.00015	0	-7e-05	-0.00018	-9e-05	-5e-05	4
14328	-0.00011	-0.00012	-0.00015	0	-7e-05	-0.00018	-9e-05	-5e-05	4
14329	-0.00011	-0.00012	-0.00015	0	-7e-05	-0.00018	-9e-05	-5e-05	4
14330	-0.00011	-0.00012	-0.00015	0	-7e-05	-0.00018	-9e-05	-5e-05	4
14331	-0.00011	-0.00012	-0.00015	0	-7e-05	-0.00018	-9e-05	-5e-05	4
14332	-0.00011	-0.00012	-0.00015	0	-7e-05	-0.00018	-9e-05	-5e-05	4
14333	-0.00011	-0.00012	-0.00015	0	-7e-05	-0.00018	-9e-05	-5e-05	4
14334	-0.00011	-2e-05	-0.00016	-0.00024	-0.00055	-0.00026	0	1e-05	4
14335	-2e-05	-8e-05	-0.00021	-0.00091	0.00025	4e-05	7e-05	3e-05	4
14336	-2e-05	-8e-05	-0.00021	-0.00091	0.00025	4e-05	7e-05	3e-05	4
14338	-2e-05	-8e-05	-0.00021	-0.00091	0.00025	4e-05	7e-05	3e-05	4
14339	-2e-05	-8e-05	-0.00021	-0.00091	0.00025	4e-05	7e-05	3e-05	4
14340	-2e-05	-8e-05	-0.00021	-0.00091	0.00025	4e-05	7e-05	3e-05	4
14341	-2e-05	-8e-05	-0.00021	-0.00091	0.00025	4e-05	7e-05	3e-05	4
14342	-2e-05	-8e-05	-0.00021	-0.00091	0.00025	4e-05	7e-05	3e-05	4
14343	-2e-05	-8e-05	-0.00021	-0.00091	0.00025	4e-05	7e-05	3e-05	4
14344	-2e-05	-8e-05	-0.00021	-0.00091	0.00025	4e-05	7e-05	3e-05	4
14345	-2e-05	-8e-05	-0.00021	-0.00091	0.00025	4e-05	7e-05	3e-05	4
14346	-2e-05	-8e-05	-0.00021	-0.00091	0.00025	4e-05	7e-05	3e-05	4
14347	-2e-05	-8e-05	-0.00021	-0.00091	0.00025	4e-05	7e-05	3e-05	4
14348	-2e-05	-8e-05	-0.00021	-0.00091	0.00025	4e-05	7e-05	3e-05	4
14349	-2e-05	-8e-05	-0.00021	-0.00091	0.00025	4e-05	7e-05	3e-05	4
14350	-2e-05	-8e-05	-0.00021	-0.00091	0.00025	4e-05	7e-05	3e-05	4
14351	-2e-05	-8e-05	-0.00021	-0.00091	0.00025	4e-05	7e-05	3e-05	4
14352	-2e-05	-8e-05	-0.00021	-0.00091	0.00025	4e-05	7e-05	3e-05	4
14353	-2e-05	-8e-05	-0.00021	-0.00091	0.00025	4e-05	7e-05	3e-05	4
14354	-2e-05	-8e-05	-0.00021	-0.00091	0.00025	4e-05	7e-05	3e-05	4
14355	-2e-05	-8e-05	-0.00021	-0.00091	0.00025	4e-05	7e-05	3e-05	4
14356	-2e-05	-8e-05	-0.00021	-0.00091	0.00025	4e-05	7e-05	3e-05	4
14357	-2e-05	-8e-05	-0.00021	-0.00091	0.00025	4e-05	7e-05	3e-05	4
14358	3e-05	9e-05	0.00024	0.00127	1e-05	-0.00018	-2e-05	0.00015	4
14359	3e-05	9e-05	0.00024	0.00127	1e-05	-0.00018	-2e-05	0.00015	4
14360	3e-05	9e-05	0.00024	0.00127	1e-05	-0.00018	-2e-05	0.00015	4
14361	3e-05	9e-05	0.00024	0.00127	1e-05	-0.00018	-2e-05	0.00015	4
14362	3e-05	9e-05	0.00024	0.00127	1e-05	-0.00018	-2e-05	0.00015	4
14363	3e-05	9e-05	0.00024	0.00127	1e-05	-0.00018	-2e-05	0.00015	4
14364	3e-05	9e-05	0.00024	0.00127	1e-05	-0.00018	-2e-05	0.00015	4
14365	3e-05	9e-05	0.00024	0.00127	1e-05	-0.00018	-2e-05	0.00015	4
14366	3e-05	9e-05	0.00024	0.00127	1e-05	-0.00018	-2e-05	0.00015	4
14367	3e-05	9e-05	0.00024	0.00127	1e-05	-0.00018	-2e-05	0.00015	4
14368	3e-05	9e-05	0.00024	0.00127	1e-05	-0.00018	-2e-05	0.00015	4
14369	3e-05	9e-05	0.00024	0.00127	1e-05	-0.00018	-2e-05	0.00015	4
14370	3e-05	9e-05	0.00024	0.00127	1e-05	-0.00018	-2e-05	0.00015	4
14371	3e-05	9e-05	0.00024	0.00127	1e-05	-0.00018	-2e-05	0.00015	4
14372	3e-05	9e-05	0.00024	0.00127	1e-05	-0.00018	-2e-05	0.00015	4
14373	3e-05	9e-05	0.00024	0.00127	1e-05	-0.00018	-2e-05	0.00015	4
14374	3e-05	9e-05	0.00024	0.00127	1e-05	-0.00018	-2e-05	0.00015	4
14375	3e-05	9e-05	0.00024	0.00127	1e-05	-0.00018	-2e-05	0.00015	4
14376	3e-05	9e-05	0.00024	0.00127	1e-05	-0.00018	-2e-05	0.00015	4
14377	3e-05	9e-05	0.00024	0.00127	1e-05	-0.00018	-2e-05	0.00015	4
14378	3e-05	9e-05	0.00024	0.00127	1e-05	-0.00018	-2e-05	0.00015	4
14379	3e-05	9e-05	0.00024	0.00127	1e-05	-0.00018	-2e-05	0.00015	4
14380	2e-05	1e-05	8e-05	0.00019	-0.00032	-9e-05	6e-05	-0.00011	4
14381	2e-05	0	-7e-05	-0.0002	0.00025	8e-05	0	1e-05	4
14382	2e-05	0	-7e-05	-0.0002	0.00025	8e-05	0	1e-05	4
14383	2e-05	0	-7e-05	-0.0002	0.00025	8e-05	0	1e-05	4
14384	2e-05	0	-7e-05	-0.0002	0.00025	8e-05	0	1e-05	4
14385	2e-05	0	-7e-05	-0.0002	0.00025	8e-05	0	1e-05	4
14386	2e-05	0	-7e-05	-0.0002	0.00025	8e-05	0	1e-05	4
14389	2e-05	0	-7e-05	-0.0002	0.00025	8e-05	0	1e-05	4
14390	2e-05	0	-7e-05	-0.0002	0.00025	8e-05	0	1e-05	4
14391	2e-05	0	-7e-05	-0.0002	0.00025	8e-05	0	1e-05	4
14392	2e-05	0	-7e-05	-0.0002	0.00025	8e-05	0	1e-05	4
14393	2e-05	0	-7e-05	-0.0002	0.00025	8e-05	0	1e-05	4
14394	2e-05	0	-7e-05	-0.0002	0.00025	8e-05	0	1e-05	4
14395	7e-05	5e-05	3e-05	0.00031	0.00028	-0.00012	0.00025	0.00037	4
14396	-1e-05	1e-05	0.00012	0.0005	0.00011	2e-05	-4e-05	-0.00011	4
14397	-1e-05	1e-05	0.00012	0.0005	0.00011	2e-05	-4e-05	-0.00011	4
14398	-1e-05	1e-05	0.00012	0.0005	0.00011	2e-05	-4e-05	-0.00011	4
14399	-1e-05	1e-05	0.00012	0.0005	0.00011	2e-05	-4e-05	-0.00011	4
14400	-1e-05	1e-05	0.00012	0.0005	0.00011	2e-05	-4e-05	-0.00011	4
14401	-1e-05	1e-05	0.00012	0.0005	0.00011	2e-05	-4e-05	-0.00011	4
14402	-1e-05	1e-05	0.00012	0.0005	0.00011	2e-05	-4e-05	-0.00011	4
14403	-1e-05	1e-05	0.00012	0.0005	0.00011	2e-05	-4e-05	-0.00011	4
14404	-1e-05	1e-05	0.00012	0.0005	0.00011	2e-05	-4e-05	-0.00011	4
14405	-1e-05	1e-05	0.00012	0.0005	0.00011	2e-05	-4e-05	-0.00011	4
14406	-1e-05	1e-05	0.00012	0.0005	0.00011	2e-05	-4e-05	-0.00011	4
14407	-1e-05	1e-05	0.00012	0.0005	0.00011	2e-05	-4e-05	-0.00011	4
14408	-1e-05	1e-05	0.00012	0.0005	0.00011	2e-05	-4e-05	-0.00011	4
14409	-1e-05	1e-05	0.00012	0.0005	0.00011	2e-05	-4e-05	-0.00011	4
14410	-1e-05	1e-05	0.00012	0.0005	0.00011	2e-05	-4e-05	-0.00011	4
14411	-1e-05	1e-05	0.00012	0.0005	0.00011	2e-05	-4e-05	-0.00011	4
14412	-1e-05	1e-05	0.00012	0.0005	0.00011	2e-05	-4e-05	-0.00011	4
14413	-1e-05	1e-05	0.00012	0.0005	0.00011	2e-05	-4e-05	-0.00011	4
14414	-1e-05	1e-05	0.00012	0.0005	0.00011	2e-05	-4e-05	-0.00011	4
14415	-1e-05	1e-05	0.00012	0.0005	0.00011	2e-05	-4e-05	-0.00011	4
14416	-1e-05	1e-05	0.00012	0.0005	0.00011	2e-05	-4e-05	-0.00011	4
14417	-1e-05	1e-05	0.00012	0.0005	0.00011	2e-05	-4e-05	-0.00011	4
14418	0	5e-05	-6e-05	-0.00047	-2e-05	3e-05	3e-05	7e-05	4
14420	-8e-05	-0.00016	-0.00015	0.0003	0.00039	3e-05	-9e-05	5e-05	4
14421	-8e-05	-0.00016	-0.00015	0.0003	0.00039	3e-05	-9e-05	5e-05	4
14422	-8e-05	-0.00016	-0.00015	0.0003	0.00039	3e-05	-9e-05	5e-05	4
14423	-8e-05	-0.00016	-0.00015	0.0003	0.00039	3e-05	-9e-05	5e-05	4
14424	-8e-05	-0.00016	-0.00015	0.0003	0.00039	3e-05	-9e-05	5e-05	4
14425	-8e-05	-0.00016	-0.00015	0.0003	0.00039	3e-05	-9e-05	5e-05	4
14426	-8e-05	-0.00016	-0.00015	0.0003	0.00039	3e-05	-9e-05	5e-05	4
14427	-8e-05	-0.00016	-0.00015	0.0003	0.00039	3e-05	-9e-05	5e-05	4
14428	-8e-05	-0.00016	-0.00015	0.0003	0.00039	3e-05	-9e-05	5e-05	4
14429	-8e-05	-0.00016	-0.00015	0.0003	0.00039	3e-05	-9e-05	5e-05	4
14430	-8e-05	-0.00016	-0.00015	0.0003	0.00039	3e-05	-9e-05	5e-05	4
14431	-8e-05	-0.00016	-0.00015	0.0003	0.00039	3e-05	-9e-05	5e-05	4
14432	-8e-05	-0.00016	-0.00015	0.0003	0.00039	3e-05	-9e-05	5e-05	4
14433	-8e-05	-0.00016	-0.00015	0.0003	0.00039	3e-05	-9e-05	5e-05	4
14434	-8e-05	-0.00016	-0.00015	0.0003	0.00039	3e-05	-9e-05	5e-05	4
14435	-8e-05	-0.00016	-0.00015	0.0003	0.00039	3e-05	-9e-05	5e-05	4
14436	-8e-05	-0.00016	-0.00015	0.0003	0.00039	3e-05	-9e-05	5e-05	4
14438	-8e-05	-0.00016	-0.00015	0.0003	0.00039	3e-05	-9e-05	5e-05	4
14439	-8e-05	-0.00016	-0.00015	0.0003	0.00039	3e-05	-9e-05	5e-05	4
14440	0	2e-05	1e-05	-0.0002	-0.00022	-8e-05	-7e-05	4e-05	4
14441	0	2e-05	1e-05	-0.0002	-0.00022	-8e-05	-7e-05	4e-05	4
14442	-2e-05	-1e-05	1e-05	-9e-05	-0.00018	-5e-05	-0.00012	-0.00012	4
14443	-2e-05	-1e-05	1e-05	-9e-05	-0.00018	-5e-05	-0.00012	-0.00012	4
14444	-2e-05	-1e-05	1e-05	-9e-05	-0.00018	-5e-05	-0.00012	-0.00012	4
14445	-2e-05	-1e-05	1e-05	-9e-05	-0.00018	-5e-05	-0.00012	-0.00012	4
14446	-2e-05	-1e-05	1e-05	-9e-05	-0.00018	-5e-05	-0.00012	-0.00012	4
14447	-2e-05	-1e-05	1e-05	-9e-05	-0.00018	-5e-05	-0.00012	-0.00012	4
14448	-2e-05	-1e-05	1e-05	-9e-05	-0.00018	-5e-05	-0.00012	-0.00012	4
14449	-2e-05	-1e-05	1e-05	-9e-05	-0.00018	-5e-05	-0.00012	-0.00012	4
14450	-2e-05	-1e-05	1e-05	-9e-05	-0.00018	-5e-05	-0.00012	-0.00012	4
14451	-2e-05	-1e-05	1e-05	-9e-05	-0.00018	-5e-05	-0.00012	-0.00012	4
14452	-2e-05	-1e-05	1e-05	-9e-05	-0.00018	-5e-05	-0.00012	-0.00012	4
14453	2e-05	-2e-05	-3e-05	0.00021	-0.00021	-5e-05	-9e-05	0	4
14454	-1e-05	-1e-05	-0.00011	-0.00045	-0.00016	-0.00011	-8e-05	1e-05	4
14455	-1e-05	-1e-05	-0.00011	-0.00045	-0.00016	-0.00011	-8e-05	1e-05	4
14456	-1e-05	-1e-05	-0.00011	-0.00045	-0.00016	-0.00011	-8e-05	1e-05	4
14457	-1e-05	-1e-05	-0.00011	-0.00045	-0.00016	-0.00011	-8e-05	1e-05	4
14458	-1e-05	-1e-05	-0.00011	-0.00045	-0.00016	-0.00011	-8e-05	1e-05	4
14459	-1e-05	-1e-05	-0.00011	-0.00045	-0.00016	-0.00011	-8e-05	1e-05	4
14460	-1e-05	-1e-05	-0.00011	-0.00045	-0.00016	-0.00011	-8e-05	1e-05	4
14461	-1e-05	-1e-05	-0.00011	-0.00045	-0.00016	-0.00011	-8e-05	1e-05	4
14462	-1e-05	-1e-05	-0.00011	-0.00045	-0.00016	-0.00011	-8e-05	1e-05	4
14463	0	-1e-05	-9e-05	-0.00036	-0.00025	-0.00011	-6e-05	-3e-05	4
14464	0	-1e-05	-9e-05	-0.00036	-0.00025	-0.00011	-6e-05	-3e-05	4
14465	0	-1e-05	-9e-05	-0.00036	-0.00025	-0.00011	-6e-05	-3e-05	4
14466	0	-1e-05	-9e-05	-0.00036	-0.00025	-0.00011	-6e-05	-3e-05	4
14467	0	-1e-05	-9e-05	-0.00036	-0.00025	-0.00011	-6e-05	-3e-05	4
14468	0	-1e-05	-9e-05	-0.00036	-0.00025	-0.00011	-6e-05	-3e-05	4
14469	0	-1e-05	-9e-05	-0.00036	-0.00025	-0.00011	-6e-05	-3e-05	4
14470	0	-1e-05	-9e-05	-0.00036	-0.00025	-0.00011	-6e-05	-3e-05	4
14471	0	-1e-05	-9e-05	-0.00036	-0.00025	-0.00011	-6e-05	-3e-05	4
14472	0	-1e-05	-9e-05	-0.00036	-0.00025	-0.00011	-6e-05	-3e-05	4
14473	0	-1e-05	-9e-05	-0.00036	-0.00025	-0.00011	-6e-05	-3e-05	4
14474	0	-1e-05	-9e-05	-0.00036	-0.00025	-0.00011	-6e-05	-3e-05	4
14475	0	-1e-05	-9e-05	-0.00036	-0.00025	-0.00011	-6e-05	-3e-05	4
14476	0	-1e-05	-9e-05	-0.00036	-0.00025	-0.00011	-6e-05	-3e-05	4
14477	-5e-05	-0.00011	-0.00016	-0.00062	-0.00015	-0.00022	0.0001	-0.00012	4
14478	-2e-05	-8e-05	-9e-05	-0.00018	0.00086	-8e-05	2e-05	0.00016	4
14479	-0.0001	-7e-05	-5e-05	0.00034	-0.00026	-0.00012	-0.00022	-0.00027	4
14480	2e-05	-4e-05	-0.0001	-0.00038	-0.00031	-8e-05	4e-05	1e-05	4
14481	2e-05	-4e-05	-0.0001	-0.00038	-0.00031	-8e-05	4e-05	1e-05	4
14482	2e-05	-4e-05	-0.0001	-0.00038	-0.00031	-8e-05	4e-05	1e-05	4
14483	2e-05	-4e-05	-0.0001	-0.00038	-0.00031	-8e-05	4e-05	1e-05	4
14484	2e-05	-4e-05	-0.0001	-0.00038	-0.00031	-8e-05	4e-05	1e-05	4
14485	2e-05	-4e-05	-0.0001	-0.00038	-0.00031	-8e-05	4e-05	1e-05	4
14486	2e-05	-4e-05	-0.0001	-0.00038	-0.00031	-8e-05	4e-05	1e-05	4
14488	2e-05	-4e-05	-0.0001	-0.00038	-0.00031	-8e-05	4e-05	1e-05	4
14489	2e-05	-4e-05	-0.0001	-0.00038	-0.00031	-8e-05	4e-05	1e-05	4
14490	2e-05	-4e-05	-0.0001	-0.00038	-0.00031	-8e-05	4e-05	1e-05	4
14491	2e-05	-4e-05	-0.0001	-0.00038	-0.00031	-8e-05	4e-05	1e-05	4
14492	2e-05	-4e-05	-0.0001	-0.00038	-0.00031	-8e-05	4e-05	1e-05	4
14493	2e-05	-4e-05	-0.0001	-0.00038	-0.00031	-8e-05	4e-05	1e-05	4
14494	2e-05	-4e-05	-0.0001	-0.00038	-0.00031	-8e-05	4e-05	1e-05	4
14495	2e-05	-4e-05	-0.0001	-0.00038	-0.00031	-8e-05	4e-05	1e-05	4
14496	2e-05	-4e-05	-0.0001	-0.00038	-0.00031	-8e-05	4e-05	1e-05	4
14497	2e-05	-4e-05	-0.0001	-0.00038	-0.00031	-8e-05	4e-05	1e-05	4
14498	2e-05	-4e-05	-0.0001	-0.00038	-0.00031	-8e-05	4e-05	1e-05	4
14499	2e-05	-4e-05	-0.0001	-0.00038	-0.00031	-8e-05	4e-05	1e-05	4
14500	0	0	-3e-05	7e-05	-8e-05	0.00012	-0.00013	-0.00015	4
14501	0	0	-3e-05	7e-05	-8e-05	0.00012	-0.00013	-0.00015	4
14502	-5e-05	0	1e-05	0.00034	0.0002	-3e-05	1e-05	-0.0001	4
14503	-5e-05	0	1e-05	0.00034	0.0002	-3e-05	1e-05	-0.0001	4
14504	-5e-05	0	1e-05	0.00034	0.0002	-3e-05	1e-05	-0.0001	4
14505	-5e-05	0	1e-05	0.00034	0.0002	-3e-05	1e-05	-0.0001	4
14506	-5e-05	0	1e-05	0.00034	0.0002	-3e-05	1e-05	-0.0001	4
14507	-5e-05	0	1e-05	0.00034	0.0002	-3e-05	1e-05	-0.0001	4
14508	-5e-05	0	1e-05	0.00034	0.0002	-3e-05	1e-05	-0.0001	4
14509	-5e-05	0	1e-05	0.00034	0.0002	-3e-05	1e-05	-0.0001	4
14510	-5e-05	0	1e-05	0.00034	0.0002	-3e-05	1e-05	-0.0001	4
14511	-5e-05	0	1e-05	0.00034	0.0002	-3e-05	1e-05	-0.0001	4
14512	-5e-05	0	1e-05	0.00034	0.0002	-3e-05	1e-05	-0.0001	4
14513	-5e-05	0	1e-05	0.00034	0.0002	-3e-05	1e-05	-0.0001	4
14514	6e-05	0.00014	0.00029	0.0008	-0.00043	-0.00024	-0.00038	-7e-05	4
14515	6e-05	0.00014	0.00029	0.0008	-0.00043	-0.00024	-0.00038	-7e-05	4
14516	6e-05	0.00014	0.00029	0.0008	-0.00043	-0.00024	-0.00038	-7e-05	4
14517	6e-05	0.00014	0.00029	0.0008	-0.00043	-0.00024	-0.00038	-7e-05	4
14518	6e-05	0.00014	0.00029	0.0008	-0.00043	-0.00024	-0.00038	-7e-05	4
14519	6e-05	0.00014	0.00029	0.0008	-0.00043	-0.00024	-0.00038	-7e-05	4
14520	6e-05	0.00014	0.00029	0.0008	-0.00043	-0.00024	-0.00038	-7e-05	4
14521	6e-05	0.00014	0.00029	0.0008	-0.00043	-0.00024	-0.00038	-7e-05	4
14522	6e-05	0.00014	0.00029	0.0008	-0.00043	-0.00024	-0.00038	-7e-05	4
14523	-3e-05	-7e-05	-7e-05	-0.00016	0.00015	-0.00021	3e-05	-8e-05	4
14524	-3e-05	-7e-05	-7e-05	-0.00016	0.00015	-0.00021	3e-05	-8e-05	4
14525	-3e-05	-7e-05	-7e-05	-0.00016	0.00015	-0.00021	3e-05	-8e-05	4
14527	-3e-05	-7e-05	-7e-05	-0.00016	0.00015	-0.00021	3e-05	-8e-05	4
14528	-3e-05	-7e-05	-7e-05	-0.00016	0.00015	-0.00021	3e-05	-8e-05	4
14529	-3e-05	-7e-05	-7e-05	-0.00016	0.00015	-0.00021	3e-05	-8e-05	4
14530	-3e-05	-7e-05	-7e-05	-0.00016	0.00015	-0.00021	3e-05	-8e-05	4
14531	-3e-05	-7e-05	-7e-05	-0.00016	0.00015	-0.00021	3e-05	-8e-05	4
14532	-3e-05	-7e-05	-7e-05	-0.00016	0.00015	-0.00021	3e-05	-8e-05	4
14533	-3e-05	-7e-05	-7e-05	-0.00016	0.00015	-0.00021	3e-05	-8e-05	4
14534	-3e-05	-7e-05	-7e-05	-0.00016	0.00015	-0.00021	3e-05	-8e-05	4
14535	-3e-05	-7e-05	-7e-05	-0.00016	0.00015	-0.00021	3e-05	-8e-05	4
14536	-3e-05	-7e-05	-7e-05	-0.00016	0.00015	-0.00021	3e-05	-8e-05	4
14538	-9e-05	-0.00012	-0.00012	-0.00022	0.00029	-7e-05	2e-05	-6e-05	4
14539	0	0	4e-05	0.00019	-0.0004	-4e-05	-0.00014	1e-05	4
14540	0	0	4e-05	0.00019	-0.0004	-4e-05	-0.00014	1e-05	4
14541	0	0	4e-05	0.00019	-0.0004	-4e-05	-0.00014	1e-05	4
14542	0	0	4e-05	0.00019	-0.0004	-4e-05	-0.00014	1e-05	4
14543	0	0	4e-05	0.00019	-0.0004	-4e-05	-0.00014	1e-05	4
14544	0	0	4e-05	0.00019	-0.0004	-4e-05	-0.00014	1e-05	4
14545	0	0	4e-05	0.00019	-0.0004	-4e-05	-0.00014	1e-05	4
14546	0	0	4e-05	0.00019	-0.0004	-4e-05	-0.00014	1e-05	4
14547	0	0	4e-05	0.00019	-0.0004	-4e-05	-0.00014	1e-05	4
14548	0	0	4e-05	0.00019	-0.0004	-4e-05	-0.00014	1e-05	4
14549	0	0	4e-05	0.00019	-0.0004	-4e-05	-0.00014	1e-05	4
14550	0	0	4e-05	0.00019	-0.0004	-4e-05	-0.00014	1e-05	4
14551	0	0	4e-05	0.00019	-0.0004	-4e-05	-0.00014	1e-05	4
14552	0	0	4e-05	0.00019	-0.0004	-4e-05	-0.00014	1e-05	4
14553	0	0	4e-05	0.00019	-0.0004	-4e-05	-0.00014	1e-05	4
14554	0	0	4e-05	0.00019	-0.0004	-4e-05	-0.00014	1e-05	4
14555	0	0	4e-05	0.00019	-0.0004	-4e-05	-0.00014	1e-05	4
14556	0	0	4e-05	0.00019	-0.0004	-4e-05	-0.00014	1e-05	4
14557	0	0	4e-05	0.00019	-0.0004	-4e-05	-0.00014	1e-05	4
14558	0	0	4e-05	0.00019	-0.0004	-4e-05	-0.00014	1e-05	4
14559	0	0	4e-05	0.00019	-0.0004	-4e-05	-0.00014	1e-05	4
14560	0	0	4e-05	0.00019	-0.0004	-4e-05	-0.00014	1e-05	4
14561	0	0	4e-05	0.00019	-0.0004	-4e-05	-0.00014	1e-05	4
14562	0	0	4e-05	0.00019	-0.0004	-4e-05	-0.00014	1e-05	4
14563	0	0	4e-05	0.00019	-0.0004	-4e-05	-0.00014	1e-05	4
14564	0	0	4e-05	0.00019	-0.0004	-4e-05	-0.00014	1e-05	4
14565	0	0	4e-05	0.00019	-0.0004	-4e-05	-0.00014	1e-05	4
14566	0	0	4e-05	0.00019	-0.0004	-4e-05	-0.00014	1e-05	4
14567	0	0	4e-05	0.00019	-0.0004	-4e-05	-0.00014	1e-05	4
14568	-2e-05	-4e-05	-7e-05	6e-05	-0.00031	-0.00013	-1e-05	-5e-05	4
14569	9e-05	0.00016	0.00011	-0.0001	-5e-05	0.00012	0.00031	0.00014	4
14570	-5e-05	-0.00013	-0.0002	-0.00067	-0.00043	-0.00012	4e-05	-4e-05	4
14571	-5e-05	-0.00013	-0.0002	-0.00067	-0.00043	-0.00012	4e-05	-4e-05	4
14572	-5e-05	-0.00013	-0.0002	-0.00067	-0.00043	-0.00012	4e-05	-4e-05	4
14573	-5e-05	-0.00013	-0.0002	-0.00067	-0.00043	-0.00012	4e-05	-4e-05	4
14574	-3e-05	-0.00014	-8e-05	-0.00019	-0.00051	-2e-05	-4e-05	-0.0001	4
14575	-3e-05	-0.00014	-8e-05	-0.00019	-0.00051	-2e-05	-4e-05	-0.0001	4
14576	-3e-05	-0.00014	-8e-05	-0.00019	-0.00051	-2e-05	-4e-05	-0.0001	4
14577	-3e-05	-0.00014	-8e-05	-0.00019	-0.00051	-2e-05	-4e-05	-0.0001	4
14578	-3e-05	-0.00014	-8e-05	-0.00019	-0.00051	-2e-05	-4e-05	-0.0001	4
14579	-3e-05	-0.00014	-8e-05	-0.00019	-0.00051	-2e-05	-4e-05	-0.0001	4
14580	-3e-05	-0.00014	-8e-05	-0.00019	-0.00051	-2e-05	-4e-05	-0.0001	4
14581	2e-05	9e-05	0.00011	-0.00028	-5e-05	-7e-05	-3e-05	1e-05	4
14582	2e-05	9e-05	0.00011	-0.00028	-5e-05	-7e-05	-3e-05	1e-05	4
14583	2e-05	9e-05	0.00011	-0.00028	-5e-05	-7e-05	-3e-05	1e-05	4
14584	2e-05	9e-05	0.00011	-0.00028	-5e-05	-7e-05	-3e-05	1e-05	4
14585	2e-05	9e-05	0.00011	-0.00028	-5e-05	-7e-05	-3e-05	1e-05	4
14586	2e-05	9e-05	0.00011	-0.00028	-5e-05	-7e-05	-3e-05	1e-05	4
14588	2e-05	9e-05	0.00011	-0.00028	-5e-05	-7e-05	-3e-05	1e-05	4
14589	2e-05	9e-05	0.00011	-0.00028	-5e-05	-7e-05	-3e-05	1e-05	4
14590	2e-05	9e-05	0.00011	-0.00028	-5e-05	-7e-05	-3e-05	1e-05	4
14591	2e-05	9e-05	0.00011	-0.00028	-5e-05	-7e-05	-3e-05	1e-05	4
14592	2e-05	9e-05	0.00011	-0.00028	-5e-05	-7e-05	-3e-05	1e-05	4
14593	2e-05	9e-05	0.00011	-0.00028	-5e-05	-7e-05	-3e-05	1e-05	4
14594	2e-05	9e-05	0.00011	-0.00028	-5e-05	-7e-05	-3e-05	1e-05	4
14595	2e-05	9e-05	0.00011	-0.00028	-5e-05	-7e-05	-3e-05	1e-05	4
14596	2e-05	9e-05	0.00011	-0.00028	-5e-05	-7e-05	-3e-05	1e-05	4
14597	2e-05	9e-05	0.00011	-0.00028	-5e-05	-7e-05	-3e-05	1e-05	4
14598	-0.00014	-0.00014	-4e-05	0.0005	0.00017	1e-05	-0.00015	-0.00023	4
14599	-8e-05	-5e-05	-3e-05	0.00018	0.00036	-8e-05	-4e-05	-9e-05	4
14600	-8e-05	-5e-05	-3e-05	0.00018	0.00036	-8e-05	-4e-05	-9e-05	4
14601	-8e-05	-5e-05	-3e-05	0.00018	0.00036	-8e-05	-4e-05	-9e-05	4
14602	-8e-05	-5e-05	-3e-05	0.00018	0.00036	-8e-05	-4e-05	-9e-05	4
14603	-8e-05	-5e-05	-3e-05	0.00018	0.00036	-8e-05	-4e-05	-9e-05	4
14604	-8e-05	-5e-05	-3e-05	0.00018	0.00036	-8e-05	-4e-05	-9e-05	4
14605	-8e-05	-5e-05	-3e-05	0.00018	0.00036	-8e-05	-4e-05	-9e-05	4
14606	-8e-05	-5e-05	-3e-05	0.00018	0.00036	-8e-05	-4e-05	-9e-05	4
14607	-8e-05	-5e-05	-3e-05	0.00018	0.00036	-8e-05	-4e-05	-9e-05	4
14608	-8e-05	-5e-05	-3e-05	0.00018	0.00036	-8e-05	-4e-05	-9e-05	4
14609	-8e-05	-5e-05	-3e-05	0.00018	0.00036	-8e-05	-4e-05	-9e-05	4
14610	-8e-05	-5e-05	-3e-05	0.00018	0.00036	-8e-05	-4e-05	-9e-05	4
14611	-8e-05	-5e-05	-3e-05	0.00018	0.00036	-8e-05	-4e-05	-9e-05	4
14612	-8e-05	-5e-05	-3e-05	0.00018	0.00036	-8e-05	-4e-05	-9e-05	4
14613	-8e-05	-5e-05	-3e-05	0.00018	0.00036	-8e-05	-4e-05	-9e-05	4
14614	-8e-05	-5e-05	-3e-05	0.00018	0.00036	-8e-05	-4e-05	-9e-05	4
14615	-8e-05	-5e-05	-3e-05	0.00018	0.00036	-8e-05	-4e-05	-9e-05	4
14616	-8e-05	-5e-05	-3e-05	0.00018	0.00036	-8e-05	-4e-05	-9e-05	4
14617	-8e-05	-5e-05	-3e-05	0.00018	0.00036	-8e-05	-4e-05	-9e-05	4
14618	-8e-05	-5e-05	-3e-05	0.00018	0.00036	-8e-05	-4e-05	-9e-05	4
14619	-8e-05	-5e-05	-3e-05	0.00018	0.00036	-8e-05	-4e-05	-9e-05	4
14620	-6e-05	-3e-05	-2e-05	5e-05	6e-05	0.00021	7e-05	0	4
14621	-6e-05	-3e-05	-2e-05	5e-05	6e-05	0.00021	7e-05	0	4
14622	-6e-05	-3e-05	-2e-05	5e-05	6e-05	0.00021	7e-05	0	4
14623	-6e-05	-3e-05	-2e-05	5e-05	6e-05	0.00021	7e-05	0	4
14624	-6e-05	-3e-05	-2e-05	5e-05	6e-05	0.00021	7e-05	0	4
14625	-6e-05	-3e-05	-2e-05	5e-05	6e-05	0.00021	7e-05	0	4
14626	-6e-05	-3e-05	-2e-05	5e-05	6e-05	0.00021	7e-05	0	4
14627	-6e-05	-3e-05	-2e-05	5e-05	6e-05	0.00021	7e-05	0	4
14628	2e-05	5e-05	7e-05	0.00031	0.00023	0.00023	-0.00011	0	4
14629	2e-05	5e-05	7e-05	0.00031	0.00023	0.00023	-0.00011	0	4
14630	2e-05	5e-05	7e-05	0.00031	0.00023	0.00023	-0.00011	0	4
14631	2e-05	5e-05	7e-05	0.00031	0.00023	0.00023	-0.00011	0	4
14632	2e-05	5e-05	7e-05	0.00031	0.00023	0.00023	-0.00011	0	4
14633	2e-05	5e-05	7e-05	0.00031	0.00023	0.00023	-0.00011	0	4
14634	6e-05	0.0001	9e-05	3e-05	0.00034	0.0001	-3e-05	-0.00014	4
14635	6e-05	0.0001	9e-05	3e-05	0.00034	0.0001	-3e-05	-0.00014	4
14636	6e-05	0.0001	9e-05	3e-05	0.00034	0.0001	-3e-05	-0.00014	4
14638	6e-05	0.0001	9e-05	3e-05	0.00034	0.0001	-3e-05	-0.00014	4
14639	6e-05	0.0001	9e-05	3e-05	0.00034	0.0001	-3e-05	-0.00014	4
14640	6e-05	0.0001	9e-05	3e-05	0.00034	0.0001	-3e-05	-0.00014	4
14641	1e-05	6e-05	2e-05	-0.00039	0.00037	0.00048	5e-05	-0.00018	4
14642	1e-05	6e-05	2e-05	-0.00039	0.00037	0.00048	5e-05	-0.00018	4
14643	1e-05	6e-05	2e-05	-0.00039	0.00037	0.00048	5e-05	-0.00018	4
14644	1e-05	6e-05	2e-05	-0.00039	0.00037	0.00048	5e-05	-0.00018	4
14645	1e-05	6e-05	2e-05	-0.00039	0.00037	0.00048	5e-05	-0.00018	4
14646	1e-05	6e-05	2e-05	-0.00039	0.00037	0.00048	5e-05	-0.00018	4
14647	1e-05	6e-05	2e-05	-0.00039	0.00037	0.00048	5e-05	-0.00018	4
14648	1e-05	6e-05	2e-05	-0.00039	0.00037	0.00048	5e-05	-0.00018	4
14649	1e-05	6e-05	2e-05	-0.00039	0.00037	0.00048	5e-05	-0.00018	4
14650	1e-05	6e-05	2e-05	-0.00039	0.00037	0.00048	5e-05	-0.00018	4
14651	1e-05	6e-05	2e-05	-0.00039	0.00037	0.00048	5e-05	-0.00018	4
14652	1e-05	6e-05	2e-05	-0.00039	0.00037	0.00048	5e-05	-0.00018	4
14653	1e-05	6e-05	2e-05	-0.00039	0.00037	0.00048	5e-05	-0.00018	4
14654	1e-05	6e-05	2e-05	-0.00039	0.00037	0.00048	5e-05	-0.00018	4
14655	1e-05	6e-05	2e-05	-0.00039	0.00037	0.00048	5e-05	-0.00018	4
14656	1e-05	6e-05	2e-05	-0.00039	0.00037	0.00048	5e-05	-0.00018	4
14657	3e-05	8e-05	0.00017	5e-05	0.00028	0.00026	0.00015	6e-05	4
14658	3e-05	-4e-05	-8e-05	2e-05	-0.00028	-0.00036	-0.00014	-1e-05	4
14659	0	0	-9e-05	-0.00056	-0.00024	-0.00023	0	6e-05	4
14660	0	0	-9e-05	-0.00056	-0.00024	-0.00023	0	6e-05	4
14661	0	0	-9e-05	-0.00056	-0.00024	-0.00023	0	6e-05	4
14662	0	0	-9e-05	-0.00056	-0.00024	-0.00023	0	6e-05	4
14663	0	0	-9e-05	-0.00056	-0.00024	-0.00023	0	6e-05	4
14664	0	0	-9e-05	-0.00056	-0.00024	-0.00023	0	6e-05	4
14665	0	0	-9e-05	-0.00056	-0.00024	-0.00023	0	6e-05	4
14666	0	0	-9e-05	-0.00056	-0.00024	-0.00023	0	6e-05	4
14667	0	0	-9e-05	-0.00056	-0.00024	-0.00023	0	6e-05	4
14668	0	0	-9e-05	-0.00056	-0.00024	-0.00023	0	6e-05	4
14669	0	0	-9e-05	-0.00056	-0.00024	-0.00023	0	6e-05	4
14670	0	0	-9e-05	-0.00056	-0.00024	-0.00023	0	6e-05	4
14671	0	0	-9e-05	-0.00056	-0.00024	-0.00023	0	6e-05	4
14672	0	0	-9e-05	-0.00056	-0.00024	-0.00023	0	6e-05	4
14673	0	0	-9e-05	-0.00056	-0.00024	-0.00023	0	6e-05	4
14674	0	0	-9e-05	-0.00056	-0.00024	-0.00023	0	6e-05	4
14675	0	0	-9e-05	-0.00056	-0.00024	-0.00023	0	6e-05	4
14676	0	0	-9e-05	-0.00056	-0.00024	-0.00023	0	6e-05	4
14677	0	0	-9e-05	-0.00056	-0.00024	-0.00023	0	6e-05	4
14678	0	0	-9e-05	-0.00056	-0.00024	-0.00023	0	6e-05	4
14679	0	0	-9e-05	-0.00056	-0.00024	-0.00023	0	6e-05	4
14680	0	0	-9e-05	-0.00056	-0.00024	-0.00023	0	6e-05	4
14681	1e-05	0	-0.00012	-0.00042	-9e-05	0	0.00011	0.00012	4
14682	-5e-05	-7e-05	6e-05	0.00071	0.00019	9e-05	6e-05	4e-05	4
14683	-5e-05	-7e-05	6e-05	0.00071	0.00019	9e-05	6e-05	4e-05	4
14684	-5e-05	-7e-05	6e-05	0.00071	0.00019	9e-05	6e-05	4e-05	4
14685	-5e-05	-7e-05	6e-05	0.00071	0.00019	9e-05	6e-05	4e-05	4
14687	-5e-05	-7e-05	6e-05	0.00071	0.00019	9e-05	6e-05	4e-05	4
14689	-5e-05	-7e-05	6e-05	0.00071	0.00019	9e-05	6e-05	4e-05	4
14690	-5e-05	-7e-05	6e-05	0.00071	0.00019	9e-05	6e-05	4e-05	4
14691	-5e-05	-7e-05	6e-05	0.00071	0.00019	9e-05	6e-05	4e-05	4
14692	-5e-05	-7e-05	6e-05	0.00071	0.00019	9e-05	6e-05	4e-05	4
14693	-5e-05	-7e-05	6e-05	0.00071	0.00019	9e-05	6e-05	4e-05	4
14694	-4e-05	0	-5e-05	-0.0001	-0.00033	-0.00013	-9e-05	-0.00011	4
14695	-4e-05	0	-5e-05	-0.0001	-0.00033	-0.00013	-9e-05	-0.00011	4
14696	-4e-05	0	-5e-05	-0.0001	-0.00033	-0.00013	-9e-05	-0.00011	4
14697	-4e-05	0	-5e-05	-0.0001	-0.00033	-0.00013	-9e-05	-0.00011	4
14698	-4e-05	0	-5e-05	-0.0001	-0.00033	-0.00013	-9e-05	-0.00011	4
14699	-4e-05	0	-5e-05	-0.0001	-0.00033	-0.00013	-9e-05	-0.00011	4
14700	-4e-05	0	-5e-05	-0.0001	-0.00033	-0.00013	-9e-05	-0.00011	4
14701	3e-05	-3e-05	7e-05	0.00047	0.00045	0.00014	3e-05	2e-05	4
14702	3e-05	-3e-05	7e-05	0.00047	0.00045	0.00014	3e-05	2e-05	4
14703	3e-05	-3e-05	7e-05	0.00047	0.00045	0.00014	3e-05	2e-05	4
14704	3e-05	-3e-05	7e-05	0.00047	0.00045	0.00014	3e-05	2e-05	4
14705	3e-05	-3e-05	7e-05	0.00047	0.00045	0.00014	3e-05	2e-05	4
14706	3e-05	-3e-05	7e-05	0.00047	0.00045	0.00014	3e-05	2e-05	4
14707	3e-05	-3e-05	7e-05	0.00047	0.00045	0.00014	3e-05	2e-05	4
14708	3e-05	-3e-05	7e-05	0.00047	0.00045	0.00014	3e-05	2e-05	4
14709	3e-05	-3e-05	7e-05	0.00047	0.00045	0.00014	3e-05	2e-05	4
14710	3e-05	-3e-05	7e-05	0.00047	0.00045	0.00014	3e-05	2e-05	4
14711	3e-05	-3e-05	7e-05	0.00047	0.00045	0.00014	3e-05	2e-05	4
14712	3e-05	-3e-05	7e-05	0.00047	0.00045	0.00014	3e-05	2e-05	4
14713	3e-05	-3e-05	7e-05	0.00047	0.00045	0.00014	3e-05	2e-05	4
14714	3e-05	-3e-05	7e-05	0.00047	0.00045	0.00014	3e-05	2e-05	4
14715	3e-05	-3e-05	7e-05	0.00047	0.00045	0.00014	3e-05	2e-05	4
14716	3e-05	-3e-05	7e-05	0.00047	0.00045	0.00014	3e-05	2e-05	4
14717	3e-05	-3e-05	7e-05	0.00047	0.00045	0.00014	3e-05	2e-05	4
14718	-1e-05	-5e-05	-8e-05	-0.00012	-0.00019	2e-05	3e-05	2e-05	4
14719	-1e-05	-5e-05	-8e-05	-0.00012	-0.00019	2e-05	3e-05	2e-05	4
14720	4e-05	4e-05	3e-05	-0.00034	-0.00026	-5e-05	6e-05	0.0001	4
14721	4e-05	4e-05	3e-05	-0.00034	-0.00026	-5e-05	6e-05	0.0001	4
14722	4e-05	4e-05	3e-05	-0.00034	-0.00026	-5e-05	6e-05	0.0001	4
14723	4e-05	4e-05	3e-05	-0.00034	-0.00026	-5e-05	6e-05	0.0001	4
14724	4e-05	4e-05	3e-05	-0.00034	-0.00026	-5e-05	6e-05	0.0001	4
14725	4e-05	4e-05	3e-05	-0.00034	-0.00026	-5e-05	6e-05	0.0001	4
14726	4e-05	4e-05	3e-05	-0.00034	-0.00026	-5e-05	6e-05	0.0001	4
14727	4e-05	4e-05	3e-05	-0.00034	-0.00026	-5e-05	6e-05	0.0001	4
14728	4e-05	4e-05	3e-05	-0.00034	-0.00026	-5e-05	6e-05	0.0001	4
14729	4e-05	4e-05	3e-05	-0.00034	-0.00026	-5e-05	6e-05	0.0001	4
14730	4e-05	4e-05	3e-05	-0.00034	-0.00026	-5e-05	6e-05	0.0001	4
14731	4e-05	4e-05	3e-05	-0.00034	-0.00026	-5e-05	6e-05	0.0001	4
14732	4e-05	4e-05	3e-05	-0.00034	-0.00026	-5e-05	6e-05	0.0001	4
14733	4e-05	4e-05	3e-05	-0.00034	-0.00026	-5e-05	6e-05	0.0001	4
14734	4e-05	4e-05	3e-05	-0.00034	-0.00026	-5e-05	6e-05	0.0001	4
14735	4e-05	4e-05	3e-05	-0.00034	-0.00026	-5e-05	6e-05	0.0001	4
14737	4e-05	4e-05	3e-05	-0.00034	-0.00026	-5e-05	6e-05	0.0001	4
14739	4e-05	4e-05	3e-05	-0.00034	-0.00026	-5e-05	6e-05	0.0001	4
14740	3e-05	5e-05	1e-05	-7e-05	0.0001	3e-05	3e-05	0.00027	4
14741	3e-05	5e-05	1e-05	-7e-05	0.0001	3e-05	3e-05	0.00027	4
14742	-3e-05	-5e-05	-5e-05	-0.00013	-0.0004	-9e-05	-4e-05	4e-05	4
14743	-3e-05	-5e-05	-5e-05	-0.00013	-0.0004	-9e-05	-4e-05	4e-05	4
14744	-3e-05	-5e-05	-5e-05	-0.00013	-0.0004	-9e-05	-4e-05	4e-05	4
14745	-3e-05	-5e-05	-5e-05	-0.00013	-0.0004	-9e-05	-4e-05	4e-05	4
14746	-3e-05	-5e-05	-5e-05	-0.00013	-0.0004	-9e-05	-4e-05	4e-05	4
14747	-3e-05	-5e-05	-5e-05	-0.00013	-0.0004	-9e-05	-4e-05	4e-05	4
14748	-3e-05	-5e-05	-5e-05	-0.00013	-0.0004	-9e-05	-4e-05	4e-05	4
14749	-3e-05	-5e-05	-5e-05	-0.00013	-0.0004	-9e-05	-4e-05	4e-05	4
14750	-3e-05	-5e-05	-5e-05	-0.00013	-0.0004	-9e-05	-4e-05	4e-05	4
14751	-3e-05	-5e-05	-5e-05	-0.00013	-0.0004	-9e-05	-4e-05	4e-05	4
14752	-3e-05	-5e-05	-5e-05	-0.00013	-0.0004	-9e-05	-4e-05	4e-05	4
14753	-3e-05	-5e-05	-5e-05	-0.00013	-0.0004	-9e-05	-4e-05	4e-05	4
14754	2e-05	4e-05	0.00012	1e-05	0.00027	0.00012	7e-05	-2e-05	4
14755	2e-05	4e-05	0.00012	1e-05	0.00027	0.00012	7e-05	-2e-05	4
14756	2e-05	4e-05	0.00012	1e-05	0.00027	0.00012	7e-05	-2e-05	4
14757	2e-05	4e-05	0.00012	1e-05	0.00027	0.00012	7e-05	-2e-05	4
14758	2e-05	4e-05	0.00012	1e-05	0.00027	0.00012	7e-05	-2e-05	4
14759	2e-05	4e-05	0.00012	1e-05	0.00027	0.00012	7e-05	-2e-05	4
14760	2e-05	4e-05	0.00012	1e-05	0.00027	0.00012	7e-05	-2e-05	4
14761	2e-05	4e-05	0.00012	1e-05	0.00027	0.00012	7e-05	-2e-05	4
14762	2e-05	4e-05	0.00012	1e-05	0.00027	0.00012	7e-05	-2e-05	4
14763	-3e-05	-6e-05	1e-05	0.00031	-0.00021	-0.00017	-0.00011	-5e-05	4
14764	-3e-05	-6e-05	1e-05	0.00031	-0.00021	-0.00017	-0.00011	-5e-05	4
14765	-3e-05	-6e-05	1e-05	0.00031	-0.00021	-0.00017	-0.00011	-5e-05	4
14766	-3e-05	-6e-05	1e-05	0.00031	-0.00021	-0.00017	-0.00011	-5e-05	4
14767	-3e-05	-6e-05	1e-05	0.00031	-0.00021	-0.00017	-0.00011	-5e-05	4
14768	-3e-05	-6e-05	1e-05	0.00031	-0.00021	-0.00017	-0.00011	-5e-05	4
14769	-3e-05	-6e-05	1e-05	0.00031	-0.00021	-0.00017	-0.00011	-5e-05	4
14770	-3e-05	-6e-05	1e-05	0.00031	-0.00021	-0.00017	-0.00011	-5e-05	4
14771	-3e-05	-6e-05	1e-05	0.00031	-0.00021	-0.00017	-0.00011	-5e-05	4
14772	-3e-05	-6e-05	1e-05	0.00031	-0.00021	-0.00017	-0.00011	-5e-05	4
14773	-3e-05	-6e-05	1e-05	0.00031	-0.00021	-0.00017	-0.00011	-5e-05	4
14774	-3e-05	-6e-05	1e-05	0.00031	-0.00021	-0.00017	-0.00011	-5e-05	4
14775	-3e-05	-6e-05	1e-05	0.00031	-0.00021	-0.00017	-0.00011	-5e-05	4
14776	-3e-05	-6e-05	1e-05	0.00031	-0.00021	-0.00017	-0.00011	-5e-05	4
14777	-3e-05	-6e-05	1e-05	0.00031	-0.00021	-0.00017	-0.00011	-5e-05	4
14778	-5e-05	-7e-05	-7e-05	-0.00019	-0.00025	-1e-05	-6e-05	-0.00012	4
14779	4e-05	5e-05	-5e-05	-0.00027	-0.00019	-9e-05	4e-05	8e-05	4
14780	4e-05	5e-05	-5e-05	-0.00027	-0.00019	-9e-05	4e-05	8e-05	4
14781	4e-05	5e-05	-5e-05	-0.00027	-0.00019	-9e-05	4e-05	8e-05	4
14782	4e-05	5e-05	-5e-05	-0.00027	-0.00019	-9e-05	4e-05	8e-05	4
14783	4e-05	5e-05	-5e-05	-0.00027	-0.00019	-9e-05	4e-05	8e-05	4
14784	4e-05	5e-05	-5e-05	-0.00027	-0.00019	-9e-05	4e-05	8e-05	4
14785	4e-05	5e-05	-5e-05	-0.00027	-0.00019	-9e-05	4e-05	8e-05	4
14786	4e-05	5e-05	-5e-05	-0.00027	-0.00019	-9e-05	4e-05	8e-05	4
14789	4e-05	5e-05	-5e-05	-0.00027	-0.00019	-9e-05	4e-05	8e-05	4
14790	4e-05	5e-05	-5e-05	-0.00027	-0.00019	-9e-05	4e-05	8e-05	4
14791	4e-05	5e-05	-5e-05	-0.00027	-0.00019	-9e-05	4e-05	8e-05	4
14792	4e-05	5e-05	-5e-05	-0.00027	-0.00019	-9e-05	4e-05	8e-05	4
14793	4e-05	5e-05	-5e-05	-0.00027	-0.00019	-9e-05	4e-05	8e-05	4
14794	4e-05	5e-05	-5e-05	-0.00027	-0.00019	-9e-05	4e-05	8e-05	4
14795	4e-05	5e-05	-5e-05	-0.00027	-0.00019	-9e-05	4e-05	8e-05	4
14796	4e-05	5e-05	-5e-05	-0.00027	-0.00019	-9e-05	4e-05	8e-05	4
14797	4e-05	5e-05	-5e-05	-0.00027	-0.00019	-9e-05	4e-05	8e-05	4
14798	4e-05	5e-05	-5e-05	-0.00027	-0.00019	-9e-05	4e-05	8e-05	4
14799	4e-05	5e-05	-5e-05	-0.00027	-0.00019	-9e-05	4e-05	8e-05	4
14800	-4e-05	-6e-05	-8e-05	-0.00025	-0.00053	-0.00031	-6e-05	-2e-05	4
14801	-4e-05	-6e-05	-8e-05	-0.00025	-0.00053	-0.00031	-6e-05	-2e-05	4
14802	-2e-05	-5e-05	-7e-05	0.00011	-0.00046	-0.00023	-5e-05	-6e-05	4
14803	-2e-05	-5e-05	-7e-05	0.00011	-0.00046	-0.00023	-5e-05	-6e-05	4
14804	-2e-05	-5e-05	-7e-05	0.00011	-0.00046	-0.00023	-5e-05	-6e-05	4
14805	-2e-05	-5e-05	-7e-05	0.00011	-0.00046	-0.00023	-5e-05	-6e-05	4
14806	-2e-05	-5e-05	-7e-05	0.00011	-0.00046	-0.00023	-5e-05	-6e-05	4
14807	-2e-05	-5e-05	-7e-05	0.00011	-0.00046	-0.00023	-5e-05	-6e-05	4
14808	-2e-05	-5e-05	-7e-05	0.00011	-0.00046	-0.00023	-5e-05	-6e-05	4
14809	-2e-05	-5e-05	-7e-05	0.00011	-0.00046	-0.00023	-5e-05	-6e-05	4
14810	-2e-05	-5e-05	-7e-05	0.00011	-0.00046	-0.00023	-5e-05	-6e-05	4
14811	-2e-05	-5e-05	-7e-05	0.00011	-0.00046	-0.00023	-5e-05	-6e-05	4
14812	-2e-05	-5e-05	-7e-05	0.00011	-0.00046	-0.00023	-5e-05	-6e-05	4
14813	-2e-05	-5e-05	-7e-05	0.00011	-0.00046	-0.00023	-5e-05	-6e-05	4
14814	-5e-05	-6e-05	-2e-05	2e-05	0.00075	1e-05	-8e-05	-9e-05	4
14815	-5e-05	-6e-05	-2e-05	2e-05	0.00075	1e-05	-8e-05	-9e-05	4
14816	-5e-05	-6e-05	-2e-05	2e-05	0.00075	1e-05	-8e-05	-9e-05	4
14817	-5e-05	-6e-05	-2e-05	2e-05	0.00075	1e-05	-8e-05	-9e-05	4
14818	-5e-05	-6e-05	-2e-05	2e-05	0.00075	1e-05	-8e-05	-9e-05	4
14819	-5e-05	-6e-05	-2e-05	2e-05	0.00075	1e-05	-8e-05	-9e-05	4
14820	-5e-05	-6e-05	-2e-05	2e-05	0.00075	1e-05	-8e-05	-9e-05	4
14821	-5e-05	-6e-05	-2e-05	2e-05	0.00075	1e-05	-8e-05	-9e-05	4
14822	-5e-05	-6e-05	-2e-05	2e-05	0.00075	1e-05	-8e-05	-9e-05	4
14823	2e-05	0.00012	0.0001	-0.00039	-0.00062	-0.00021	-8e-05	-7e-05	4
14824	2e-05	0.00012	0.0001	-0.00039	-0.00062	-0.00021	-8e-05	-7e-05	4
14825	2e-05	0.00012	0.0001	-0.00039	-0.00062	-0.00021	-8e-05	-7e-05	4
14826	2e-05	0.00012	0.0001	-0.00039	-0.00062	-0.00021	-8e-05	-7e-05	4
14827	2e-05	0.00012	0.0001	-0.00039	-0.00062	-0.00021	-8e-05	-7e-05	4
14828	2e-05	0.00012	0.0001	-0.00039	-0.00062	-0.00021	-8e-05	-7e-05	4
14829	2e-05	0.00012	0.0001	-0.00039	-0.00062	-0.00021	-8e-05	-7e-05	4
14830	2e-05	0.00012	0.0001	-0.00039	-0.00062	-0.00021	-8e-05	-7e-05	4
14831	2e-05	0.00012	0.0001	-0.00039	-0.00062	-0.00021	-8e-05	-7e-05	4
14832	2e-05	0.00012	0.0001	-0.00039	-0.00062	-0.00021	-8e-05	-7e-05	4
14833	2e-05	0.00012	0.0001	-0.00039	-0.00062	-0.00021	-8e-05	-7e-05	4
14834	2e-05	0.00012	0.0001	-0.00039	-0.00062	-0.00021	-8e-05	-7e-05	4
14835	2e-05	0.00012	0.0001	-0.00039	-0.00062	-0.00021	-8e-05	-7e-05	4
14836	2e-05	0.00012	0.0001	-0.00039	-0.00062	-0.00021	-8e-05	-7e-05	4
14839	2e-05	0.00012	0.0001	-0.00039	-0.00062	-0.00021	-8e-05	-7e-05	4
14840	2e-05	0.00012	0.0001	-0.00039	-0.00062	-0.00021	-8e-05	-7e-05	4
14841	2e-05	0.00012	0.0001	-0.00039	-0.00062	-0.00021	-8e-05	-7e-05	4
14842	2e-05	0.00012	0.0001	-0.00039	-0.00062	-0.00021	-8e-05	-7e-05	4
14843	2e-05	0.00012	0.0001	-0.00039	-0.00062	-0.00021	-8e-05	-7e-05	4
14844	2e-05	0.00012	0.0001	-0.00039	-0.00062	-0.00021	-8e-05	-7e-05	4
14845	1e-05	-0.0001	-7e-05	-1e-05	-6e-05	0.00011	-0.00017	-0.0002	4
14846	1e-05	-0.0001	-7e-05	-1e-05	-6e-05	0.00011	-0.00017	-0.0002	4
14847	-3e-05	-7e-05	6e-05	0.00013	-0.00027	6e-05	-5e-05	-0.0001	4
14848	-3e-05	-7e-05	6e-05	0.00013	-0.00027	6e-05	-5e-05	-0.0001	4
14849	-3e-05	-7e-05	6e-05	0.00013	-0.00027	6e-05	-5e-05	-0.0001	4
14850	-3e-05	-7e-05	6e-05	0.00013	-0.00027	6e-05	-5e-05	-0.0001	4
14851	-3e-05	-7e-05	6e-05	0.00013	-0.00027	6e-05	-5e-05	-0.0001	4
14852	-3e-05	-7e-05	6e-05	0.00013	-0.00027	6e-05	-5e-05	-0.0001	4
14853	-3e-05	-7e-05	6e-05	0.00013	-0.00027	6e-05	-5e-05	-0.0001	4
14854	-3e-05	-7e-05	6e-05	0.00013	-0.00027	6e-05	-5e-05	-0.0001	4
14855	-3e-05	-7e-05	6e-05	0.00013	-0.00027	6e-05	-5e-05	-0.0001	4
14856	-3e-05	-7e-05	6e-05	0.00013	-0.00027	6e-05	-5e-05	-0.0001	4
14857	-3e-05	-7e-05	6e-05	0.00013	-0.00027	6e-05	-5e-05	-0.0001	4
14858	-3e-05	-7e-05	6e-05	0.00013	-0.00027	6e-05	-5e-05	-0.0001	4
14859	-3e-05	-7e-05	6e-05	0.00013	-0.00027	6e-05	-5e-05	-0.0001	4
14860	2e-05	8e-05	0.00027	0.00077	-0.00016	9e-05	0	2e-05	4
14861	2e-05	8e-05	0.00027	0.00077	-0.00016	9e-05	0	2e-05	4
14862	1e-05	4e-05	-4e-05	0.00015	0.00026	1e-05	4e-05	-2e-05	4
14863	1e-05	4e-05	-4e-05	0.00015	0.00026	1e-05	4e-05	-2e-05	4
14864	1e-05	4e-05	-4e-05	0.00015	0.00026	1e-05	4e-05	-2e-05	4
14865	1e-05	4e-05	-4e-05	0.00015	0.00026	1e-05	4e-05	-2e-05	4
14866	1e-05	4e-05	-4e-05	0.00015	0.00026	1e-05	4e-05	-2e-05	4
14867	1e-05	4e-05	-4e-05	0.00015	0.00026	1e-05	4e-05	-2e-05	4
14868	1e-05	4e-05	-4e-05	0.00015	0.00026	1e-05	4e-05	-2e-05	4
14869	1e-05	4e-05	-4e-05	0.00015	0.00026	1e-05	4e-05	-2e-05	4
14870	1e-05	4e-05	-4e-05	0.00015	0.00026	1e-05	4e-05	-2e-05	4
14871	1e-05	4e-05	-4e-05	0.00015	0.00026	1e-05	4e-05	-2e-05	4
14872	1e-05	4e-05	-4e-05	0.00015	0.00026	1e-05	4e-05	-2e-05	4
14873	1e-05	4e-05	-4e-05	0.00015	0.00026	1e-05	4e-05	-2e-05	4
14874	0	1e-05	1e-05	0.00031	0.00022	-0.00027	4e-05	3e-05	4
14875	0	1e-05	1e-05	0.00031	0.00022	-0.00027	4e-05	3e-05	4
14876	0	1e-05	1e-05	0.00031	0.00022	-0.00027	4e-05	3e-05	4
14877	0	1e-05	1e-05	0.00031	0.00022	-0.00027	4e-05	3e-05	4
14878	0	1e-05	1e-05	0.00031	0.00022	-0.00027	4e-05	3e-05	4
14879	0	1e-05	1e-05	0.00031	0.00022	-0.00027	4e-05	3e-05	4
14880	0	1e-05	1e-05	0.00031	0.00022	-0.00027	4e-05	3e-05	4
14881	0	1e-05	1e-05	0.00031	0.00022	-0.00027	4e-05	3e-05	4
14882	0	1e-05	1e-05	0.00031	0.00022	-0.00027	4e-05	3e-05	4
14883	-2e-05	-6e-05	3e-05	0.00093	0.00072	0.00021	3e-05	-0.00016	4
14884	-2e-05	-6e-05	3e-05	0.00093	0.00072	0.00021	3e-05	-0.00016	4
14885	-2e-05	-6e-05	3e-05	0.00093	0.00072	0.00021	3e-05	-0.00016	4
14886	-2e-05	-6e-05	3e-05	0.00093	0.00072	0.00021	3e-05	-0.00016	4
14889	-2e-05	-6e-05	3e-05	0.00093	0.00072	0.00021	3e-05	-0.00016	4
14890	-2e-05	-6e-05	3e-05	0.00093	0.00072	0.00021	3e-05	-0.00016	4
14891	-2e-05	-6e-05	3e-05	0.00093	0.00072	0.00021	3e-05	-0.00016	4
14892	-2e-05	-6e-05	3e-05	0.00093	0.00072	0.00021	3e-05	-0.00016	4
14893	-2e-05	-6e-05	3e-05	0.00093	0.00072	0.00021	3e-05	-0.00016	4
14894	-2e-05	-6e-05	3e-05	0.00093	0.00072	0.00021	3e-05	-0.00016	4
14895	-2e-05	-6e-05	3e-05	0.00093	0.00072	0.00021	3e-05	-0.00016	4
14896	-2e-05	-6e-05	3e-05	0.00093	0.00072	0.00021	3e-05	-0.00016	4
14897	-6e-05	-0.00012	-0.00026	-0.00113	-0.00028	0.0001	0.00017	0.00041	4
14898	4e-05	4e-05	0.00013	-0.00016	-0.00038	5e-05	8e-05	-7e-05	4
14899	0.00014	0.00019	5e-05	-0.00019	0.00038	0.00012	-3e-05	3e-05	4
14901	0.00014	0.00019	5e-05	-0.00019	0.00038	0.00012	-3e-05	3e-05	4
14902	0.00014	0.00019	5e-05	-0.00019	0.00038	0.00012	-3e-05	3e-05	4
14903	0.00014	0.00019	5e-05	-0.00019	0.00038	0.00012	-3e-05	3e-05	4
14904	0.00014	0.00019	5e-05	-0.00019	0.00038	0.00012	-3e-05	3e-05	4
14905	0.00014	0.00019	5e-05	-0.00019	0.00038	0.00012	-3e-05	3e-05	4
14906	0.00014	0.00019	5e-05	-0.00019	0.00038	0.00012	-3e-05	3e-05	4
14907	0.00014	0.00019	5e-05	-0.00019	0.00038	0.00012	-3e-05	3e-05	4
14908	0.00014	0.00019	5e-05	-0.00019	0.00038	0.00012	-3e-05	3e-05	4
14909	0.00014	0.00019	5e-05	-0.00019	0.00038	0.00012	-3e-05	3e-05	4
14910	0.00014	0.00019	5e-05	-0.00019	0.00038	0.00012	-3e-05	3e-05	4
14911	0.00014	0.00019	5e-05	-0.00019	0.00038	0.00012	-3e-05	3e-05	4
14912	0.00014	0.00019	5e-05	-0.00019	0.00038	0.00012	-3e-05	3e-05	4
14913	0.00014	0.00019	5e-05	-0.00019	0.00038	0.00012	-3e-05	3e-05	4
14914	0.00014	0.00019	5e-05	-0.00019	0.00038	0.00012	-3e-05	3e-05	4
14915	0.00014	0.00019	5e-05	-0.00019	0.00038	0.00012	-3e-05	3e-05	4
14916	0.00014	0.00019	5e-05	-0.00019	0.00038	0.00012	-3e-05	3e-05	4
14917	0.00014	0.00019	5e-05	-0.00019	0.00038	0.00012	-3e-05	3e-05	4
14918	0.00014	0.00019	5e-05	-0.00019	0.00038	0.00012	-3e-05	3e-05	4
14919	0.00014	0.00019	5e-05	-0.00019	0.00038	0.00012	-3e-05	3e-05	4
14920	-0.0001	-0.00014	-0.00024	-0.00046	-0.00064	-7e-05	-0.00018	-0.00012	4
14921	-0.0001	-0.00014	-0.00024	-0.00046	-0.00064	-7e-05	-0.00018	-0.00012	4
14922	1e-05	2e-05	5e-05	-0.00032	-0.00016	0	0	-1e-05	4
14923	1e-05	2e-05	5e-05	-0.00032	-0.00016	0	0	-1e-05	4
14924	1e-05	2e-05	5e-05	-0.00032	-0.00016	0	0	-1e-05	4
14925	1e-05	2e-05	5e-05	-0.00032	-0.00016	0	0	-1e-05	4
14926	1e-05	2e-05	5e-05	-0.00032	-0.00016	0	0	-1e-05	4
14927	1e-05	2e-05	5e-05	-0.00032	-0.00016	0	0	-1e-05	4
14928	1e-05	2e-05	5e-05	-0.00032	-0.00016	0	0	-1e-05	4
14929	1e-05	2e-05	5e-05	-0.00032	-0.00016	0	0	-1e-05	4
14930	1e-05	2e-05	5e-05	-0.00032	-0.00016	0	0	-1e-05	4
14931	1e-05	2e-05	5e-05	-0.00032	-0.00016	0	0	-1e-05	4
14932	1e-05	2e-05	5e-05	-0.00032	-0.00016	0	0	-1e-05	4
14933	1e-05	2e-05	5e-05	-0.00032	-0.00016	0	0	-1e-05	4
14934	-6e-05	-0.00011	-0.00022	-0.0007	-0.00061	-8e-05	3e-05	-2e-05	4
14935	-6e-05	-0.00011	-0.00022	-0.0007	-0.00061	-8e-05	3e-05	-2e-05	4
14936	-6e-05	-0.00011	-0.00022	-0.0007	-0.00061	-8e-05	3e-05	-2e-05	4
14938	-6e-05	-0.00011	-0.00022	-0.0007	-0.00061	-8e-05	3e-05	-2e-05	4
14939	-6e-05	-0.00011	-0.00022	-0.0007	-0.00061	-8e-05	3e-05	-2e-05	4
14940	-6e-05	-0.00011	-0.00022	-0.0007	-0.00061	-8e-05	3e-05	-2e-05	4
14941	-6e-05	-0.00011	-0.00022	-0.0007	-0.00061	-8e-05	3e-05	-2e-05	4
14942	-6e-05	-0.00011	-0.00022	-0.0007	-0.00061	-8e-05	3e-05	-2e-05	4
14943	-8e-05	-0.0001	-9e-05	-6e-05	0.00017	-8e-05	-1e-05	6e-05	4
14944	-8e-05	-0.0001	-9e-05	-6e-05	0.00017	-8e-05	-1e-05	6e-05	4
14945	-8e-05	-0.0001	-9e-05	-6e-05	0.00017	-8e-05	-1e-05	6e-05	4
14946	-8e-05	-0.0001	-9e-05	-6e-05	0.00017	-8e-05	-1e-05	6e-05	4
14947	-8e-05	-0.0001	-9e-05	-6e-05	0.00017	-8e-05	-1e-05	6e-05	4
14948	-8e-05	-0.0001	-9e-05	-6e-05	0.00017	-8e-05	-1e-05	6e-05	4
14949	-8e-05	-0.0001	-9e-05	-6e-05	0.00017	-8e-05	-1e-05	6e-05	4
14950	-8e-05	-0.0001	-9e-05	-6e-05	0.00017	-8e-05	-1e-05	6e-05	4
14951	-8e-05	-0.0001	-9e-05	-6e-05	0.00017	-8e-05	-1e-05	6e-05	4
14952	-8e-05	-0.0001	-9e-05	-6e-05	0.00017	-8e-05	-1e-05	6e-05	4
14953	-8e-05	-0.0001	-9e-05	-6e-05	0.00017	-8e-05	-1e-05	6e-05	4
14954	-8e-05	-0.0001	-9e-05	-6e-05	0.00017	-8e-05	-1e-05	6e-05	4
14955	-8e-05	-0.0001	-9e-05	-6e-05	0.00017	-8e-05	-1e-05	6e-05	4
14956	-8e-05	-0.0001	-9e-05	-6e-05	0.00017	-8e-05	-1e-05	6e-05	4
14957	-8e-05	-0.0001	-9e-05	-6e-05	0.00017	-8e-05	-1e-05	6e-05	4
14958	2e-05	1e-05	4e-05	0.00016	0.0006	9e-05	0	2e-05	4
14959	-1e-05	4e-05	8e-05	-0.00017	-6e-05	0.0002	0.00013	7e-05	4
14960	-1e-05	4e-05	8e-05	-0.00017	-6e-05	0.0002	0.00013	7e-05	4
14961	-1e-05	4e-05	8e-05	-0.00017	-6e-05	0.0002	0.00013	7e-05	4
14962	-1e-05	4e-05	8e-05	-0.00017	-6e-05	0.0002	0.00013	7e-05	4
14963	-1e-05	4e-05	8e-05	-0.00017	-6e-05	0.0002	0.00013	7e-05	4
14964	-1e-05	4e-05	8e-05	-0.00017	-6e-05	0.0002	0.00013	7e-05	4
14965	-1e-05	4e-05	8e-05	-0.00017	-6e-05	0.0002	0.00013	7e-05	4
14966	-1e-05	4e-05	8e-05	-0.00017	-6e-05	0.0002	0.00013	7e-05	4
14967	-1e-05	4e-05	8e-05	-0.00017	-6e-05	0.0002	0.00013	7e-05	4
14969	-1e-05	4e-05	8e-05	-0.00017	-6e-05	0.0002	0.00013	7e-05	4
14970	-1e-05	4e-05	8e-05	-0.00017	-6e-05	0.0002	0.00013	7e-05	4
14971	-1e-05	4e-05	8e-05	-0.00017	-6e-05	0.0002	0.00013	7e-05	4
14972	-1e-05	4e-05	8e-05	-0.00017	-6e-05	0.0002	0.00013	7e-05	4
14973	-1e-05	4e-05	8e-05	-0.00017	-6e-05	0.0002	0.00013	7e-05	4
14974	-1e-05	4e-05	8e-05	-0.00017	-6e-05	0.0002	0.00013	7e-05	4
14975	-1e-05	4e-05	8e-05	-0.00017	-6e-05	0.0002	0.00013	7e-05	4
14976	-1e-05	4e-05	8e-05	-0.00017	-6e-05	0.0002	0.00013	7e-05	4
14977	-1e-05	4e-05	8e-05	-0.00017	-6e-05	0.0002	0.00013	7e-05	4
14978	-1e-05	4e-05	8e-05	-0.00017	-6e-05	0.0002	0.00013	7e-05	4
14979	-1e-05	4e-05	8e-05	-0.00017	-6e-05	0.0002	0.00013	7e-05	4
14980	1e-05	6e-05	0.00012	0.00087	0.00085	7e-05	0.00015	0.00013	4
14981	0.0001	0.00011	0.00016	-1e-05	0.00032	0.00014	-5e-05	-3e-05	4
14982	-7e-05	-6e-05	-0.00011	5e-05	-4e-05	7e-05	-1e-05	-0.0001	4
14983	-7e-05	-6e-05	-0.00011	5e-05	-4e-05	7e-05	-1e-05	-0.0001	4
14984	-7e-05	-6e-05	-0.00011	5e-05	-4e-05	7e-05	-1e-05	-0.0001	4
14985	-7e-05	-6e-05	-0.00011	5e-05	-4e-05	7e-05	-1e-05	-0.0001	4
14986	-7e-05	-6e-05	-0.00011	5e-05	-4e-05	7e-05	-1e-05	-0.0001	4
14988	-7e-05	-6e-05	-0.00011	5e-05	-4e-05	7e-05	-1e-05	-0.0001	4
14989	-7e-05	-6e-05	-0.00011	5e-05	-4e-05	7e-05	-1e-05	-0.0001	4
14990	-7e-05	-6e-05	-0.00011	5e-05	-4e-05	7e-05	-1e-05	-0.0001	4
14991	-7e-05	-6e-05	-0.00011	5e-05	-4e-05	7e-05	-1e-05	-0.0001	4
14992	-7e-05	-6e-05	-0.00011	5e-05	-4e-05	7e-05	-1e-05	-0.0001	4
14993	-7e-05	-6e-05	-0.00011	5e-05	-4e-05	7e-05	-1e-05	-0.0001	4
14994	-6e-05	-1e-05	-0.00012	-0.0003	-0.00067	-0.00037	-7e-05	-0.00027	4
14995	-6e-05	-1e-05	-0.00012	-0.0003	-0.00067	-0.00037	-7e-05	-0.00027	4
14996	-6e-05	-1e-05	-0.00012	-0.0003	-0.00067	-0.00037	-7e-05	-0.00027	4
14997	-6e-05	-1e-05	-0.00012	-0.0003	-0.00067	-0.00037	-7e-05	-0.00027	4
14998	-6e-05	-1e-05	-0.00012	-0.0003	-0.00067	-0.00037	-7e-05	-0.00027	4
14999	-6e-05	-1e-05	-0.00012	-0.0003	-0.00067	-0.00037	-7e-05	-0.00027	4
15000	-6e-05	-1e-05	-0.00012	-0.0003	-0.00067	-0.00037	-7e-05	-0.00027	4
15001	-6e-05	-1e-05	-0.00012	-0.0003	-0.00067	-0.00037	-7e-05	-0.00027	4
15002	-6e-05	-1e-05	-0.00012	-0.0003	-0.00067	-0.00037	-7e-05	-0.00027	4
15003	2e-05	-2e-05	2e-05	0.00015	-1e-05	8e-05	-3e-05	1e-05	4
15004	0	-4e-05	-1e-05	-0.00019	0.00015	0.00011	0.00017	0.00011	4
15005	0	-4e-05	-1e-05	-0.00019	0.00015	0.00011	0.00017	0.00011	4
15006	0	-4e-05	-1e-05	-0.00019	0.00015	0.00011	0.00017	0.00011	4
15007	0	-4e-05	-1e-05	-0.00019	0.00015	0.00011	0.00017	0.00011	4
15008	0	-4e-05	-1e-05	-0.00019	0.00015	0.00011	0.00017	0.00011	4
15009	0	-4e-05	-1e-05	-0.00019	0.00015	0.00011	0.00017	0.00011	4
15010	0	-4e-05	-1e-05	-0.00019	0.00015	0.00011	0.00017	0.00011	4
15011	0	-4e-05	-1e-05	-0.00019	0.00015	0.00011	0.00017	0.00011	4
15012	0	-4e-05	-1e-05	-0.00019	0.00015	0.00011	0.00017	0.00011	4
15013	0	-4e-05	-1e-05	-0.00019	0.00015	0.00011	0.00017	0.00011	4
15014	0	-4e-05	-1e-05	-0.00019	0.00015	0.00011	0.00017	0.00011	4
15015	0	-4e-05	-1e-05	-0.00019	0.00015	0.00011	0.00017	0.00011	4
15016	0	-4e-05	-1e-05	-0.00019	0.00015	0.00011	0.00017	0.00011	4
15017	-6e-05	-3e-05	-6e-05	0.00022	5e-05	0	-0.00011	-0.00024	4
15018	-4e-05	-8e-05	-7e-05	9e-05	0.00043	-0.00013	1e-05	9e-05	4
15019	2e-05	0	-3e-05	0.00019	0.00033	0.00013	-0.00011	-0.00023	4
15020	2e-05	0	-3e-05	0.00019	0.00033	0.00013	-0.00011	-0.00023	4
15021	2e-05	0	-3e-05	0.00019	0.00033	0.00013	-0.00011	-0.00023	4
15022	2e-05	0	-3e-05	0.00019	0.00033	0.00013	-0.00011	-0.00023	4
15023	2e-05	0	-3e-05	0.00019	0.00033	0.00013	-0.00011	-0.00023	4
15024	2e-05	0	-3e-05	0.00019	0.00033	0.00013	-0.00011	-0.00023	4
15025	2e-05	0	-3e-05	0.00019	0.00033	0.00013	-0.00011	-0.00023	4
15026	2e-05	0	-3e-05	0.00019	0.00033	0.00013	-0.00011	-0.00023	4
15027	2e-05	0	-3e-05	0.00019	0.00033	0.00013	-0.00011	-0.00023	4
15028	2e-05	0	-3e-05	0.00019	0.00033	0.00013	-0.00011	-0.00023	4
15029	2e-05	0	-3e-05	0.00019	0.00033	0.00013	-0.00011	-0.00023	4
15030	2e-05	0	-3e-05	0.00019	0.00033	0.00013	-0.00011	-0.00023	4
15031	2e-05	0	-3e-05	0.00019	0.00033	0.00013	-0.00011	-0.00023	4
15033	2e-05	0	-3e-05	0.00019	0.00033	0.00013	-0.00011	-0.00023	4
15034	2e-05	0	-3e-05	0.00019	0.00033	0.00013	-0.00011	-0.00023	4
15035	2e-05	0	-3e-05	0.00019	0.00033	0.00013	-0.00011	-0.00023	4
15037	2e-05	0	-3e-05	0.00019	0.00033	0.00013	-0.00011	-0.00023	4
15039	2e-05	0	-3e-05	0.00019	0.00033	0.00013	-0.00011	-0.00023	4
15040	2e-05	0	-3e-05	0.00019	0.00033	0.00013	-0.00011	-0.00023	4
15041	2e-05	0	-3e-05	0.00019	0.00033	0.00013	-0.00011	-0.00023	4
15042	-4e-05	-0.00016	-0.00017	-0.00034	-8e-05	-3e-05	5e-05	-5e-05	4
15043	-4e-05	-0.00016	-0.00017	-0.00034	-8e-05	-3e-05	5e-05	-5e-05	4
15044	-4e-05	-0.00016	-0.00017	-0.00034	-8e-05	-3e-05	5e-05	-5e-05	4
15045	-4e-05	-0.00016	-0.00017	-0.00034	-8e-05	-3e-05	5e-05	-5e-05	4
15046	-4e-05	-0.00016	-0.00017	-0.00034	-8e-05	-3e-05	5e-05	-5e-05	4
15047	-4e-05	-0.00016	-0.00017	-0.00034	-8e-05	-3e-05	5e-05	-5e-05	4
15048	-4e-05	-0.00016	-0.00017	-0.00034	-8e-05	-3e-05	5e-05	-5e-05	4
15049	-4e-05	-0.00016	-0.00017	-0.00034	-8e-05	-3e-05	5e-05	-5e-05	4
15050	-4e-05	-0.00016	-0.00017	-0.00034	-8e-05	-3e-05	5e-05	-5e-05	4
15051	-4e-05	-0.00016	-0.00017	-0.00034	-8e-05	-3e-05	5e-05	-5e-05	4
15052	-4e-05	-0.00016	-0.00017	-0.00034	-8e-05	-3e-05	5e-05	-5e-05	4
15053	-4e-05	-0.00016	-0.00017	-0.00034	-8e-05	-3e-05	5e-05	-5e-05	4
15054	0.00013	0.00014	0.00023	0.0003	0.0001	0.00036	0.00018	0.0005	4
15055	0.00013	0.00014	0.00023	0.0003	0.0001	0.00036	0.00018	0.0005	4
15056	0.00013	0.00014	0.00023	0.0003	0.0001	0.00036	0.00018	0.0005	4
15057	0.00013	0.00014	0.00023	0.0003	0.0001	0.00036	0.00018	0.0005	4
15058	0.00013	0.00014	0.00023	0.0003	0.0001	0.00036	0.00018	0.0005	4
15059	0.00013	0.00014	0.00023	0.0003	0.0001	0.00036	0.00018	0.0005	4
15060	0.00013	0.00014	0.00023	0.0003	0.0001	0.00036	0.00018	0.0005	4
15061	0.00013	0.00014	0.00023	0.0003	0.0001	0.00036	0.00018	0.0005	4
15062	0.00013	0.00014	0.00023	0.0003	0.0001	0.00036	0.00018	0.0005	4
15063	-2e-05	0	1e-05	0.00031	-0.00038	-0.00018	-4e-05	1e-05	4
15064	-2e-05	0	1e-05	0.00031	-0.00038	-0.00018	-4e-05	1e-05	4
15065	-2e-05	0	1e-05	0.00031	-0.00038	-0.00018	-4e-05	1e-05	4
15066	-2e-05	0	1e-05	0.00031	-0.00038	-0.00018	-4e-05	1e-05	4
15067	-2e-05	0	1e-05	0.00031	-0.00038	-0.00018	-4e-05	1e-05	4
15068	-2e-05	0	1e-05	0.00031	-0.00038	-0.00018	-4e-05	1e-05	4
15069	-2e-05	0	1e-05	0.00031	-0.00038	-0.00018	-4e-05	1e-05	4
15071	-2e-05	0	1e-05	0.00031	-0.00038	-0.00018	-4e-05	1e-05	4
15072	-2e-05	0	1e-05	0.00031	-0.00038	-0.00018	-4e-05	1e-05	4
15073	-2e-05	0	1e-05	0.00031	-0.00038	-0.00018	-4e-05	1e-05	4
15074	-2e-05	0	1e-05	0.00031	-0.00038	-0.00018	-4e-05	1e-05	4
15075	-2e-05	0	1e-05	0.00031	-0.00038	-0.00018	-4e-05	1e-05	4
15076	-2e-05	0	1e-05	0.00031	-0.00038	-0.00018	-4e-05	1e-05	4
15077	-2e-05	0	1e-05	0.00031	-0.00038	-0.00018	-4e-05	1e-05	4
15078	2e-05	0	-3e-05	-0.00025	-0.00048	-9e-05	0	-5e-05	4
15079	-2e-05	-4e-05	0	8e-05	3e-05	-0.0001	-4e-05	0.00012	4
15080	-2e-05	-4e-05	0	8e-05	3e-05	-0.0001	-4e-05	0.00012	4
15081	-2e-05	-4e-05	0	8e-05	3e-05	-0.0001	-4e-05	0.00012	4
15082	-2e-05	-4e-05	0	8e-05	3e-05	-0.0001	-4e-05	0.00012	4
15083	-2e-05	-4e-05	0	8e-05	3e-05	-0.0001	-4e-05	0.00012	4
15084	-2e-05	-4e-05	0	8e-05	3e-05	-0.0001	-4e-05	0.00012	4
15085	-2e-05	-4e-05	0	8e-05	3e-05	-0.0001	-4e-05	0.00012	4
15087	-2e-05	-4e-05	0	8e-05	3e-05	-0.0001	-4e-05	0.00012	4
15089	-2e-05	-4e-05	0	8e-05	3e-05	-0.0001	-4e-05	0.00012	4
15091	-2e-05	-4e-05	0	8e-05	3e-05	-0.0001	-4e-05	0.00012	4
15092	-2e-05	-4e-05	0	8e-05	3e-05	-0.0001	-4e-05	0.00012	4
15093	-2e-05	-4e-05	0	8e-05	3e-05	-0.0001	-4e-05	0.00012	4
15094	-2e-05	-4e-05	0	8e-05	3e-05	-0.0001	-4e-05	0.00012	4
15095	-2e-05	-4e-05	0	8e-05	3e-05	-0.0001	-4e-05	0.00012	4
15096	-2e-05	-4e-05	0	8e-05	3e-05	-0.0001	-4e-05	0.00012	4
15097	-2e-05	-4e-05	0	8e-05	3e-05	-0.0001	-4e-05	0.00012	4
15098	-2e-05	-4e-05	0	8e-05	3e-05	-0.0001	-4e-05	0.00012	4
15099	-2e-05	-4e-05	0	8e-05	3e-05	-0.0001	-4e-05	0.00012	4
15100	-7e-05	-0.00013	-0.0003	-0.00072	0.00016	3e-05	4e-05	-0.00023	4
15101	-7e-05	-0.00013	-0.0003	-0.00072	0.00016	3e-05	4e-05	-0.00023	4
15102	-2e-05	-1e-05	9e-05	0.00058	-7e-05	-8e-05	-8e-05	-9e-05	4
15103	-2e-05	-1e-05	9e-05	0.00058	-7e-05	-8e-05	-8e-05	-9e-05	4
15104	-2e-05	-1e-05	9e-05	0.00058	-7e-05	-8e-05	-8e-05	-9e-05	4
15105	-2e-05	-1e-05	9e-05	0.00058	-7e-05	-8e-05	-8e-05	-9e-05	4
15106	-2e-05	-1e-05	9e-05	0.00058	-7e-05	-8e-05	-8e-05	-9e-05	4
15107	-2e-05	-1e-05	9e-05	0.00058	-7e-05	-8e-05	-8e-05	-9e-05	4
15108	-2e-05	-1e-05	9e-05	0.00058	-7e-05	-8e-05	-8e-05	-9e-05	4
15109	-2e-05	-1e-05	9e-05	0.00058	-7e-05	-8e-05	-8e-05	-9e-05	4
15110	-2e-05	-1e-05	9e-05	0.00058	-7e-05	-8e-05	-8e-05	-9e-05	4
15111	-2e-05	-1e-05	9e-05	0.00058	-7e-05	-8e-05	-8e-05	-9e-05	4
15112	-2e-05	-1e-05	9e-05	0.00058	-7e-05	-8e-05	-8e-05	-9e-05	4
15113	-2e-05	-1e-05	9e-05	0.00058	-7e-05	-8e-05	-8e-05	-9e-05	4
15114	-3e-05	5e-05	7e-05	0.00049	6e-05	0.00021	0.0002	-1e-05	4
15115	-3e-05	5e-05	7e-05	0.00049	6e-05	0.00021	0.0002	-1e-05	4
15116	-3e-05	5e-05	7e-05	0.00049	6e-05	0.00021	0.0002	-1e-05	4
15117	-3e-05	5e-05	7e-05	0.00049	6e-05	0.00021	0.0002	-1e-05	4
15118	-3e-05	5e-05	7e-05	0.00049	6e-05	0.00021	0.0002	-1e-05	4
15119	-3e-05	5e-05	7e-05	0.00049	6e-05	0.00021	0.0002	-1e-05	4
15120	-3e-05	5e-05	7e-05	0.00049	6e-05	0.00021	0.0002	-1e-05	4
15121	-3e-05	5e-05	7e-05	0.00049	6e-05	0.00021	0.0002	-1e-05	4
15122	-3e-05	5e-05	7e-05	0.00049	6e-05	0.00021	0.0002	-1e-05	4
15123	3e-05	5e-05	5e-05	0.00038	0.00048	0.0001	7e-05	0.0001	4
15124	3e-05	5e-05	5e-05	0.00038	0.00048	0.0001	7e-05	0.0001	4
15125	3e-05	5e-05	5e-05	0.00038	0.00048	0.0001	7e-05	0.0001	4
15126	3e-05	5e-05	5e-05	0.00038	0.00048	0.0001	7e-05	0.0001	4
15127	3e-05	5e-05	5e-05	0.00038	0.00048	0.0001	7e-05	0.0001	4
15128	3e-05	5e-05	5e-05	0.00038	0.00048	0.0001	7e-05	0.0001	4
15129	3e-05	5e-05	5e-05	0.00038	0.00048	0.0001	7e-05	0.0001	4
15130	3e-05	5e-05	5e-05	0.00038	0.00048	0.0001	7e-05	0.0001	4
15131	3e-05	5e-05	5e-05	0.00038	0.00048	0.0001	7e-05	0.0001	4
15132	3e-05	5e-05	5e-05	0.00038	0.00048	0.0001	7e-05	0.0001	4
15133	3e-05	5e-05	5e-05	0.00038	0.00048	0.0001	7e-05	0.0001	4
15134	3e-05	5e-05	5e-05	0.00038	0.00048	0.0001	7e-05	0.0001	4
15135	3e-05	5e-05	5e-05	0.00038	0.00048	0.0001	7e-05	0.0001	4
15136	3e-05	5e-05	5e-05	0.00038	0.00048	0.0001	7e-05	0.0001	4
15139	1e-05	-3e-05	-9e-05	-0.00032	-0.00059	-0.00011	-2e-05	-0.0001	4
15140	1e-05	-3e-05	-9e-05	-0.00032	-0.00059	-0.00011	-2e-05	-0.0001	4
15141	1e-05	-3e-05	-9e-05	-0.00032	-0.00059	-0.00011	-2e-05	-0.0001	4
15142	1e-05	-3e-05	-9e-05	-0.00032	-0.00059	-0.00011	-2e-05	-0.0001	4
15143	1e-05	-3e-05	-9e-05	-0.00032	-0.00059	-0.00011	-2e-05	-0.0001	4
15144	1e-05	-3e-05	-9e-05	-0.00032	-0.00059	-0.00011	-2e-05	-0.0001	4
15145	1e-05	-3e-05	-9e-05	-0.00032	-0.00059	-0.00011	-2e-05	-0.0001	4
15146	1e-05	-3e-05	-9e-05	-0.00032	-0.00059	-0.00011	-2e-05	-0.0001	4
15147	1e-05	-3e-05	-9e-05	-0.00032	-0.00059	-0.00011	-2e-05	-0.0001	4
15148	1e-05	-3e-05	-9e-05	-0.00032	-0.00059	-0.00011	-2e-05	-0.0001	4
15149	1e-05	-3e-05	-9e-05	-0.00032	-0.00059	-0.00011	-2e-05	-0.0001	4
15150	1e-05	-3e-05	-9e-05	-0.00032	-0.00059	-0.00011	-2e-05	-0.0001	4
15151	1e-05	-3e-05	-9e-05	-0.00032	-0.00059	-0.00011	-2e-05	-0.0001	4
15152	1e-05	-3e-05	-9e-05	-0.00032	-0.00059	-0.00011	-2e-05	-0.0001	4
15153	1e-05	-3e-05	-9e-05	-0.00032	-0.00059	-0.00011	-2e-05	-0.0001	4
15154	1e-05	-3e-05	-9e-05	-0.00032	-0.00059	-0.00011	-2e-05	-0.0001	4
15155	1e-05	-3e-05	-9e-05	-0.00032	-0.00059	-0.00011	-2e-05	-0.0001	4
15156	1e-05	-3e-05	-9e-05	-0.00032	-0.00059	-0.00011	-2e-05	-0.0001	4
15157	1e-05	-3e-05	-9e-05	-0.00032	-0.00059	-0.00011	-2e-05	-0.0001	4
15158	1e-05	-3e-05	-9e-05	-0.00032	-0.00059	-0.00011	-2e-05	-0.0001	4
15159	1e-05	-3e-05	-9e-05	-0.00032	-0.00059	-0.00011	-2e-05	-0.0001	4
15160	4e-05	0.00011	0.00025	0.00031	0.00019	-8e-05	-4e-05	-0.00012	4
15161	4e-05	0.00011	0.00025	0.00031	0.00019	-8e-05	-4e-05	-0.00012	4
15162	-7e-05	-6e-05	-8e-05	-0.00061	-0.00025	-0.00025	-0.00013	-0.00013	4
15163	-7e-05	-6e-05	-8e-05	-0.00061	-0.00025	-0.00025	-0.00013	-0.00013	4
15164	-7e-05	-6e-05	-8e-05	-0.00061	-0.00025	-0.00025	-0.00013	-0.00013	4
15165	-7e-05	-6e-05	-8e-05	-0.00061	-0.00025	-0.00025	-0.00013	-0.00013	4
15166	-7e-05	-6e-05	-8e-05	-0.00061	-0.00025	-0.00025	-0.00013	-0.00013	4
15167	-7e-05	-6e-05	-8e-05	-0.00061	-0.00025	-0.00025	-0.00013	-0.00013	4
15168	-7e-05	-6e-05	-8e-05	-0.00061	-0.00025	-0.00025	-0.00013	-0.00013	4
15169	-7e-05	-6e-05	-8e-05	-0.00061	-0.00025	-0.00025	-0.00013	-0.00013	4
15170	-7e-05	-6e-05	-8e-05	-0.00061	-0.00025	-0.00025	-0.00013	-0.00013	4
15171	-7e-05	-6e-05	-8e-05	-0.00061	-0.00025	-0.00025	-0.00013	-0.00013	4
15172	-7e-05	-6e-05	-8e-05	-0.00061	-0.00025	-0.00025	-0.00013	-0.00013	4
15173	-7e-05	-6e-05	-8e-05	-0.00061	-0.00025	-0.00025	-0.00013	-0.00013	4
15174	-7e-05	-6e-05	-8e-05	-0.00061	-0.00025	-0.00025	-0.00013	-0.00013	4
15175	-7e-05	-6e-05	-8e-05	-0.00061	-0.00025	-0.00025	-0.00013	-0.00013	4
15176	-7e-05	-6e-05	-8e-05	-0.00061	-0.00025	-0.00025	-0.00013	-0.00013	4
15177	-7e-05	-6e-05	-8e-05	-0.00061	-0.00025	-0.00025	-0.00013	-0.00013	4
15179	-7e-05	-6e-05	-8e-05	-0.00061	-0.00025	-0.00025	-0.00013	-0.00013	4
15180	-7e-05	-6e-05	-8e-05	-0.00061	-0.00025	-0.00025	-0.00013	-0.00013	4
15181	-7e-05	-6e-05	-8e-05	-0.00061	-0.00025	-0.00025	-0.00013	-0.00013	4
15182	-7e-05	-6e-05	-8e-05	-0.00061	-0.00025	-0.00025	-0.00013	-0.00013	4
15183	-4e-05	-9e-05	-0.00014	-0.00052	-0.00044	-3e-05	-6e-05	9e-05	4
15184	4e-05	4e-05	0.0001	6e-05	0.00089	0.00064	0.00016	0.00017	4
15185	4e-05	4e-05	0.0001	6e-05	0.00089	0.00064	0.00016	0.00017	4
15186	4e-05	4e-05	0.0001	6e-05	0.00089	0.00064	0.00016	0.00017	4
15189	4e-05	4e-05	0.0001	6e-05	0.00089	0.00064	0.00016	0.00017	4
15190	4e-05	4e-05	0.0001	6e-05	0.00089	0.00064	0.00016	0.00017	4
15191	4e-05	4e-05	0.0001	6e-05	0.00089	0.00064	0.00016	0.00017	4
15192	4e-05	4e-05	0.0001	6e-05	0.00089	0.00064	0.00016	0.00017	4
15193	4e-05	4e-05	0.0001	6e-05	0.00089	0.00064	0.00016	0.00017	4
15194	4e-05	4e-05	0.0001	6e-05	0.00089	0.00064	0.00016	0.00017	4
15195	4e-05	4e-05	0.0001	6e-05	0.00089	0.00064	0.00016	0.00017	4
15196	4e-05	4e-05	0.0001	6e-05	0.00089	0.00064	0.00016	0.00017	4
15197	-1e-05	3e-05	-8e-05	-0.00057	-0.00015	-0.00018	-0.00016	2e-05	4
15198	-1e-05	3e-05	-8e-05	-0.00057	-0.00015	-0.00018	-0.00016	2e-05	4
15199	-1e-05	3e-05	-8e-05	-0.00057	-0.00015	-0.00018	-0.00016	2e-05	4
15200	-1e-05	3e-05	-8e-05	-0.00057	-0.00015	-0.00018	-0.00016	2e-05	4
15201	-1e-05	3e-05	-8e-05	-0.00057	-0.00015	-0.00018	-0.00016	2e-05	4
15202	-1e-05	3e-05	-8e-05	-0.00057	-0.00015	-0.00018	-0.00016	2e-05	4
15203	-1e-05	3e-05	-8e-05	-0.00057	-0.00015	-0.00018	-0.00016	2e-05	4
15204	-1e-05	3e-05	-8e-05	-0.00057	-0.00015	-0.00018	-0.00016	2e-05	4
15205	2e-05	-2e-05	3e-05	3e-05	0.00017	-2e-05	7e-05	5e-05	4
15206	-5e-05	-0.00012	-0.00018	-0.00021	-0.00037	5e-05	0.0001	3e-05	4
15207	-5e-05	-0.00012	-0.00018	-0.00021	-0.00037	5e-05	0.0001	3e-05	4
15208	-5e-05	-0.00012	-0.00018	-0.00021	-0.00037	5e-05	0.0001	3e-05	4
15209	-5e-05	-0.00012	-0.00018	-0.00021	-0.00037	5e-05	0.0001	3e-05	4
15210	-5e-05	-0.00012	-0.00018	-0.00021	-0.00037	5e-05	0.0001	3e-05	4
15211	-5e-05	-0.00012	-0.00018	-0.00021	-0.00037	5e-05	0.0001	3e-05	4
15212	-5e-05	-0.00012	-0.00018	-0.00021	-0.00037	5e-05	0.0001	3e-05	4
15213	-5e-05	-0.00012	-0.00018	-0.00021	-0.00037	5e-05	0.0001	3e-05	4
15214	-5e-05	-0.00012	-0.00018	-0.00021	-0.00037	5e-05	0.0001	3e-05	4
15215	-5e-05	-0.00012	-0.00018	-0.00021	-0.00037	5e-05	0.0001	3e-05	4
15216	-5e-05	-0.00012	-0.00018	-0.00021	-0.00037	5e-05	0.0001	3e-05	4
15217	-5e-05	-0.00012	-0.00018	-0.00021	-0.00037	5e-05	0.0001	3e-05	4
15218	-5e-05	-0.00012	-0.00018	-0.00021	-0.00037	5e-05	0.0001	3e-05	4
15219	-5e-05	-0.00012	-0.00018	-0.00021	-0.00037	5e-05	0.0001	3e-05	4
15220	2e-05	-1e-05	-3e-05	0.00015	0.00017	9e-05	0	-6e-05	4
15221	2e-05	-1e-05	-3e-05	0.00015	0.00017	9e-05	0	-6e-05	4
15222	4e-05	5e-05	0.00016	0.00033	-0.0003	-0.00034	0	0.00012	4
15223	4e-05	5e-05	0.00016	0.00033	-0.0003	-0.00034	0	0.00012	4
15224	4e-05	5e-05	0.00016	0.00033	-0.0003	-0.00034	0	0.00012	4
15225	4e-05	5e-05	0.00016	0.00033	-0.0003	-0.00034	0	0.00012	4
15226	4e-05	5e-05	0.00016	0.00033	-0.0003	-0.00034	0	0.00012	4
15227	4e-05	5e-05	0.00016	0.00033	-0.0003	-0.00034	0	0.00012	4
15229	4e-05	5e-05	0.00016	0.00033	-0.0003	-0.00034	0	0.00012	4
15230	4e-05	5e-05	0.00016	0.00033	-0.0003	-0.00034	0	0.00012	4
15231	4e-05	5e-05	0.00016	0.00033	-0.0003	-0.00034	0	0.00012	4
15232	4e-05	5e-05	0.00016	0.00033	-0.0003	-0.00034	0	0.00012	4
15233	4e-05	5e-05	0.00016	0.00033	-0.0003	-0.00034	0	0.00012	4
15234	4e-05	5e-05	0.00016	0.00033	-0.0003	-0.00034	0	0.00012	4
15235	4e-05	5e-05	0.00016	0.00033	-0.0003	-0.00034	0	0.00012	4
15236	4e-05	5e-05	0.00016	0.00033	-0.0003	-0.00034	0	0.00012	4
15238	4e-05	5e-05	0.00016	0.00033	-0.0003	-0.00034	0	0.00012	4
15240	4e-05	5e-05	0.00016	0.00033	-0.0003	-0.00034	0	0.00012	4
15241	4e-05	5e-05	0.00016	0.00033	-0.0003	-0.00034	0	0.00012	4
15242	4e-05	5e-05	0.00016	0.00033	-0.0003	-0.00034	0	0.00012	4
15243	-1e-05	-1e-05	1e-05	5e-05	-0.00051	4e-05	0	-3e-05	4
15244	-6e-05	-0.00013	-8e-05	0.00018	-8e-05	0.00012	0.00011	-1e-05	4
15245	-6e-05	-0.00013	-8e-05	0.00018	-8e-05	0.00012	0.00011	-1e-05	4
15246	-6e-05	-0.00013	-8e-05	0.00018	-8e-05	0.00012	0.00011	-1e-05	4
15247	-6e-05	-0.00013	-8e-05	0.00018	-8e-05	0.00012	0.00011	-1e-05	4
15248	-6e-05	-0.00013	-8e-05	0.00018	-8e-05	0.00012	0.00011	-1e-05	4
15249	-6e-05	-0.00013	-8e-05	0.00018	-8e-05	0.00012	0.00011	-1e-05	4
15250	-6e-05	-0.00013	-8e-05	0.00018	-8e-05	0.00012	0.00011	-1e-05	4
15251	-6e-05	-0.00013	-8e-05	0.00018	-8e-05	0.00012	0.00011	-1e-05	4
15252	-6e-05	-0.00013	-8e-05	0.00018	-8e-05	0.00012	0.00011	-1e-05	4
15253	-6e-05	-0.00013	-8e-05	0.00018	-8e-05	0.00012	0.00011	-1e-05	4
15254	-6e-05	-0.00013	-8e-05	0.00018	-8e-05	0.00012	0.00011	-1e-05	4
15255	-6e-05	-0.00013	-8e-05	0.00018	-8e-05	0.00012	0.00011	-1e-05	4
15256	-6e-05	-0.00013	-8e-05	0.00018	-8e-05	0.00012	0.00011	-1e-05	4
15257	-6e-05	-0.00013	-8e-05	0.00018	-8e-05	0.00012	0.00011	-1e-05	4
15258	8e-05	0.00013	0.00038	0.00082	0.00058	0.00029	2e-05	-0.00011	4
15259	-4e-05	3e-05	0	-0.00043	-2e-05	-0.00018	-5e-05	-8e-05	4
15260	-4e-05	3e-05	0	-0.00043	-2e-05	-0.00018	-5e-05	-8e-05	4
15261	-4e-05	3e-05	0	-0.00043	-2e-05	-0.00018	-5e-05	-8e-05	4
15262	-4e-05	3e-05	0	-0.00043	-2e-05	-0.00018	-5e-05	-8e-05	4
15263	-4e-05	3e-05	0	-0.00043	-2e-05	-0.00018	-5e-05	-8e-05	4
15264	-4e-05	3e-05	0	-0.00043	-2e-05	-0.00018	-5e-05	-8e-05	4
15265	-4e-05	3e-05	0	-0.00043	-2e-05	-0.00018	-5e-05	-8e-05	4
15266	-4e-05	3e-05	0	-0.00043	-2e-05	-0.00018	-5e-05	-8e-05	4
15267	-4e-05	3e-05	0	-0.00043	-2e-05	-0.00018	-5e-05	-8e-05	4
15268	-4e-05	3e-05	0	-0.00043	-2e-05	-0.00018	-5e-05	-8e-05	4
15269	-4e-05	3e-05	0	-0.00043	-2e-05	-0.00018	-5e-05	-8e-05	4
15270	-4e-05	3e-05	0	-0.00043	-2e-05	-0.00018	-5e-05	-8e-05	4
15271	-4e-05	3e-05	0	-0.00043	-2e-05	-0.00018	-5e-05	-8e-05	4
15272	-4e-05	3e-05	0	-0.00043	-2e-05	-0.00018	-5e-05	-8e-05	4
15273	-4e-05	3e-05	0	-0.00043	-2e-05	-0.00018	-5e-05	-8e-05	4
15274	-4e-05	3e-05	0	-0.00043	-2e-05	-0.00018	-5e-05	-8e-05	4
15275	-4e-05	3e-05	0	-0.00043	-2e-05	-0.00018	-5e-05	-8e-05	4
15276	-4e-05	3e-05	0	-0.00043	-2e-05	-0.00018	-5e-05	-8e-05	4
15277	-4e-05	3e-05	0	-0.00043	-2e-05	-0.00018	-5e-05	-8e-05	4
15278	-4e-05	3e-05	0	-0.00043	-2e-05	-0.00018	-5e-05	-8e-05	4
15279	-4e-05	3e-05	0	-0.00043	-2e-05	-0.00018	-5e-05	-8e-05	4
15280	-7e-05	-7e-05	-0.00015	-1e-05	4e-05	-7e-05	-7e-05	-9e-05	4
15281	-7e-05	-7e-05	-0.00015	-1e-05	4e-05	-7e-05	-7e-05	-9e-05	4
15282	-1e-05	-1e-05	3e-05	0.0004	0.00042	-0.00023	-1e-05	0	4
15283	-1e-05	-1e-05	3e-05	0.0004	0.00042	-0.00023	-1e-05	0	4
15284	-1e-05	-1e-05	3e-05	0.0004	0.00042	-0.00023	-1e-05	0	4
15285	-1e-05	-1e-05	3e-05	0.0004	0.00042	-0.00023	-1e-05	0	4
15286	-1e-05	-1e-05	3e-05	0.0004	0.00042	-0.00023	-1e-05	0	4
15289	-1e-05	-1e-05	3e-05	0.0004	0.00042	-0.00023	-1e-05	0	4
15290	-1e-05	-1e-05	3e-05	0.0004	0.00042	-0.00023	-1e-05	0	4
15291	-1e-05	-1e-05	3e-05	0.0004	0.00042	-0.00023	-1e-05	0	4
15292	-1e-05	-1e-05	3e-05	0.0004	0.00042	-0.00023	-1e-05	0	4
15293	-1e-05	-1e-05	3e-05	0.0004	0.00042	-0.00023	-1e-05	0	4
15294	-1e-05	-1e-05	3e-05	0.0004	0.00042	-0.00023	-1e-05	0	4
15295	-1e-05	-1e-05	3e-05	0.0004	0.00042	-0.00023	-1e-05	0	4
15296	-1e-05	-1e-05	3e-05	0.0004	0.00042	-0.00023	-1e-05	0	4
15297	-1e-05	-1e-05	3e-05	0.0004	0.00042	-0.00023	-1e-05	0	4
15299	-1e-05	-1e-05	3e-05	0.0004	0.00042	-0.00023	-1e-05	0	4
15300	-1e-05	-1e-05	3e-05	0.0004	0.00042	-0.00023	-1e-05	0	4
15301	-1e-05	-1e-05	3e-05	0.0004	0.00042	-0.00023	-1e-05	0	4
15302	-1e-05	-1e-05	3e-05	0.0004	0.00042	-0.00023	-1e-05	0	4
15303	6e-05	6e-05	7e-05	0.00021	0.00034	0.0001	7e-05	0.00013	4
15304	6e-05	6e-05	7e-05	0.00021	0.00034	0.0001	7e-05	0.00013	4
15305	-3e-05	-3e-05	-0.0001	-0.00013	-0.00047	-0.00015	-0.00019	-7e-05	4
15306	-3e-05	-3e-05	-0.0001	-0.00013	-0.00047	-0.00015	-0.00019	-7e-05	4
15307	-3e-05	-3e-05	-0.0001	-0.00013	-0.00047	-0.00015	-0.00019	-7e-05	4
15308	-3e-05	-3e-05	-0.0001	-0.00013	-0.00047	-0.00015	-0.00019	-7e-05	4
15309	-3e-05	-3e-05	-0.0001	-0.00013	-0.00047	-0.00015	-0.00019	-7e-05	4
15310	-3e-05	-3e-05	-0.0001	-0.00013	-0.00047	-0.00015	-0.00019	-7e-05	4
15311	-3e-05	-3e-05	-0.0001	-0.00013	-0.00047	-0.00015	-0.00019	-7e-05	4
15312	-3e-05	-3e-05	-0.0001	-0.00013	-0.00047	-0.00015	-0.00019	-7e-05	4
15313	-3e-05	-3e-05	-0.0001	-0.00013	-0.00047	-0.00015	-0.00019	-7e-05	4
15314	-3e-05	-3e-05	-0.0001	-0.00013	-0.00047	-0.00015	-0.00019	-7e-05	4
15315	-3e-05	-3e-05	-0.0001	-0.00013	-0.00047	-0.00015	-0.00019	-7e-05	4
15316	-3e-05	-3e-05	-0.0001	-0.00013	-0.00047	-0.00015	-0.00019	-7e-05	4
15317	-3e-05	-5e-05	1e-05	0.0001	-0.00025	-0.00018	-2e-05	-4e-05	4
15318	-4e-05	-9e-05	-0.00012	0.00012	-0.0003	-0.00013	-9e-05	-2e-05	4
15319	8e-05	0.00011	9e-05	-0.00039	0.00012	0.00037	8e-05	0.0001	4
15320	8e-05	0.00011	9e-05	-0.00039	0.00012	0.00037	8e-05	0.0001	4
15321	8e-05	0.00011	9e-05	-0.00039	0.00012	0.00037	8e-05	0.0001	4
15322	8e-05	0.00011	9e-05	-0.00039	0.00012	0.00037	8e-05	0.0001	4
15323	8e-05	0.00011	9e-05	-0.00039	0.00012	0.00037	8e-05	0.0001	4
15324	8e-05	0.00011	9e-05	-0.00039	0.00012	0.00037	8e-05	0.0001	4
15325	8e-05	0.00011	9e-05	-0.00039	0.00012	0.00037	8e-05	0.0001	4
15326	8e-05	0.00011	9e-05	-0.00039	0.00012	0.00037	8e-05	0.0001	4
15327	8e-05	0.00011	9e-05	-0.00039	0.00012	0.00037	8e-05	0.0001	4
15329	8e-05	0.00011	9e-05	-0.00039	0.00012	0.00037	8e-05	0.0001	4
15330	8e-05	0.00011	9e-05	-0.00039	0.00012	0.00037	8e-05	0.0001	4
15331	8e-05	0.00011	9e-05	-0.00039	0.00012	0.00037	8e-05	0.0001	4
15332	8e-05	0.00011	9e-05	-0.00039	0.00012	0.00037	8e-05	0.0001	4
15333	8e-05	0.00011	9e-05	-0.00039	0.00012	0.00037	8e-05	0.0001	4
15334	8e-05	0.00011	9e-05	-0.00039	0.00012	0.00037	8e-05	0.0001	4
15335	8e-05	0.00011	9e-05	-0.00039	0.00012	0.00037	8e-05	0.0001	4
15336	8e-05	0.00011	9e-05	-0.00039	0.00012	0.00037	8e-05	0.0001	4
15339	8e-05	0.00011	9e-05	-0.00039	0.00012	0.00037	8e-05	0.0001	4
15340	8e-05	0.00011	9e-05	-0.00039	0.00012	0.00037	8e-05	0.0001	4
15341	4e-05	3e-05	-1e-05	-0.00012	-0.00029	6e-05	-3e-05	3e-05	4
15342	4e-05	3e-05	-1e-05	-0.00012	-0.00029	6e-05	-3e-05	3e-05	4
15343	4e-05	3e-05	-1e-05	-0.00012	-0.00029	6e-05	-3e-05	3e-05	4
15344	4e-05	3e-05	-1e-05	-0.00012	-0.00029	6e-05	-3e-05	3e-05	4
15345	4e-05	3e-05	-1e-05	-0.00012	-0.00029	6e-05	-3e-05	3e-05	4
15346	4e-05	3e-05	-1e-05	-0.00012	-0.00029	6e-05	-3e-05	3e-05	4
15347	4e-05	3e-05	-1e-05	-0.00012	-0.00029	6e-05	-3e-05	3e-05	4
15348	-0.00017	2e-05	6e-05	0.00012	0.00023	-0.0001	-0.00011	-6e-05	4
15349	-0.00017	2e-05	6e-05	0.00012	0.00023	-0.0001	-0.00011	-6e-05	4
15350	-0.00017	2e-05	6e-05	0.00012	0.00023	-0.0001	-0.00011	-6e-05	4
15351	-0.00017	2e-05	6e-05	0.00012	0.00023	-0.0001	-0.00011	-6e-05	4
15352	-0.00017	2e-05	6e-05	0.00012	0.00023	-0.0001	-0.00011	-6e-05	4
15353	-0.00017	2e-05	6e-05	0.00012	0.00023	-0.0001	-0.00011	-6e-05	4
15354	-0.00017	2e-05	6e-05	0.00012	0.00023	-0.0001	-0.00011	-6e-05	4
15355	-0.00017	2e-05	6e-05	0.00012	0.00023	-0.0001	-0.00011	-6e-05	4
15356	-0.00017	2e-05	6e-05	0.00012	0.00023	-0.0001	-0.00011	-6e-05	4
15357	-0.00017	2e-05	6e-05	0.00012	0.00023	-0.0001	-0.00011	-6e-05	4
15358	-0.00017	2e-05	6e-05	0.00012	0.00023	-0.0001	-0.00011	-6e-05	4
15359	-0.00017	2e-05	6e-05	0.00012	0.00023	-0.0001	-0.00011	-6e-05	4
15360	-0.00017	2e-05	6e-05	0.00012	0.00023	-0.0001	-0.00011	-6e-05	4
15361	-0.00017	2e-05	6e-05	0.00012	0.00023	-0.0001	-0.00011	-6e-05	4
15362	1e-05	1e-05	-0.00013	-0.00093	-0.0002	0.00019	7e-05	-4e-05	4
15363	-4e-05	3e-05	4e-05	-1e-05	0.00052	8e-05	0.00012	5e-05	4
15364	1e-05	-6e-05	-0.00014	6e-05	-3e-05	-1e-05	-7e-05	1e-05	4
15365	1e-05	-6e-05	-0.00014	6e-05	-3e-05	-1e-05	-7e-05	1e-05	4
15366	1e-05	-6e-05	-0.00014	6e-05	-3e-05	-1e-05	-7e-05	1e-05	4
15367	1e-05	-6e-05	-0.00014	6e-05	-3e-05	-1e-05	-7e-05	1e-05	4
15369	1e-05	-6e-05	-0.00014	6e-05	-3e-05	-1e-05	-7e-05	1e-05	4
15370	1e-05	-6e-05	-0.00014	6e-05	-3e-05	-1e-05	-7e-05	1e-05	4
15371	1e-05	-6e-05	-0.00014	6e-05	-3e-05	-1e-05	-7e-05	1e-05	4
15372	1e-05	-6e-05	-0.00014	6e-05	-3e-05	-1e-05	-7e-05	1e-05	4
15373	1e-05	-6e-05	-0.00014	6e-05	-3e-05	-1e-05	-7e-05	1e-05	4
15374	1e-05	-6e-05	-0.00014	6e-05	-3e-05	-1e-05	-7e-05	1e-05	4
15375	1e-05	-6e-05	-0.00014	6e-05	-3e-05	-1e-05	-7e-05	1e-05	4
15376	1e-05	-6e-05	-0.00014	6e-05	-3e-05	-1e-05	-7e-05	1e-05	4
15377	-3e-05	5e-05	6e-05	0.0003	0.0003	0.00032	7e-05	-8e-05	4
15378	-3e-05	5e-05	6e-05	0.0003	0.0003	0.00032	7e-05	-8e-05	4
15379	-3e-05	5e-05	6e-05	0.0003	0.0003	0.00032	7e-05	-8e-05	4
15380	-3e-05	5e-05	6e-05	0.0003	0.0003	0.00032	7e-05	-8e-05	4
15381	-3e-05	5e-05	6e-05	0.0003	0.0003	0.00032	7e-05	-8e-05	4
15382	-3e-05	5e-05	6e-05	0.0003	0.0003	0.00032	7e-05	-8e-05	4
15383	-3e-05	5e-05	6e-05	0.0003	0.0003	0.00032	7e-05	-8e-05	4
15384	-5e-05	-4e-05	-0.0001	-0.00043	-0.00048	-0.00047	-9e-05	-4e-05	4
15385	-5e-05	-4e-05	-0.0001	-0.00043	-0.00048	-0.00047	-9e-05	-4e-05	4
15386	-5e-05	-4e-05	-0.0001	-0.00043	-0.00048	-0.00047	-9e-05	-4e-05	4
15389	-5e-05	-4e-05	-0.0001	-0.00043	-0.00048	-0.00047	-9e-05	-4e-05	4
15390	-5e-05	-4e-05	-0.0001	-0.00043	-0.00048	-0.00047	-9e-05	-4e-05	4
15391	-5e-05	-4e-05	-0.0001	-0.00043	-0.00048	-0.00047	-9e-05	-4e-05	4
15392	-5e-05	-4e-05	-0.0001	-0.00043	-0.00048	-0.00047	-9e-05	-4e-05	4
15393	-5e-05	-4e-05	-0.0001	-0.00043	-0.00048	-0.00047	-9e-05	-4e-05	4
15394	-5e-05	-4e-05	-0.0001	-0.00043	-0.00048	-0.00047	-9e-05	-4e-05	4
15395	-5e-05	-4e-05	-0.0001	-0.00043	-0.00048	-0.00047	-9e-05	-4e-05	4
15396	-5e-05	-4e-05	-0.0001	-0.00043	-0.00048	-0.00047	-9e-05	-4e-05	4
15397	-5e-05	-4e-05	-0.0001	-0.00043	-0.00048	-0.00047	-9e-05	-4e-05	4
15398	-5e-05	-4e-05	-0.0001	-0.00043	-0.00048	-0.00047	-9e-05	-4e-05	4
15399	-5e-05	-4e-05	-0.0001	-0.00043	-0.00048	-0.00047	-9e-05	-4e-05	4
15400	-4e-05	-8e-05	-0.0001	-0.00063	-0.00053	-0.00028	-0.00012	1e-05	4
15401	-4e-05	-8e-05	-0.0001	-0.00063	-0.00053	-0.00028	-0.00012	1e-05	4
15402	6e-05	6e-05	0.00022	0.00127	0.00082	0.00011	-2e-05	2e-05	4
15403	6e-05	6e-05	0.00022	0.00127	0.00082	0.00011	-2e-05	2e-05	4
15404	6e-05	6e-05	0.00022	0.00127	0.00082	0.00011	-2e-05	2e-05	4
15405	6e-05	6e-05	0.00022	0.00127	0.00082	0.00011	-2e-05	2e-05	4
15406	6e-05	6e-05	0.00022	0.00127	0.00082	0.00011	-2e-05	2e-05	4
15407	6e-05	6e-05	0.00022	0.00127	0.00082	0.00011	-2e-05	2e-05	4
15408	6e-05	6e-05	0.00022	0.00127	0.00082	0.00011	-2e-05	2e-05	4
15409	6e-05	6e-05	0.00022	0.00127	0.00082	0.00011	-2e-05	2e-05	4
15410	6e-05	6e-05	0.00022	0.00127	0.00082	0.00011	-2e-05	2e-05	4
15411	6e-05	6e-05	0.00022	0.00127	0.00082	0.00011	-2e-05	2e-05	4
15413	6e-05	6e-05	0.00022	0.00127	0.00082	0.00011	-2e-05	2e-05	4
15415	6e-05	6e-05	0.00022	0.00127	0.00082	0.00011	-2e-05	2e-05	4
15416	6e-05	6e-05	0.00022	0.00127	0.00082	0.00011	-2e-05	2e-05	4
15417	6e-05	6e-05	0.00022	0.00127	0.00082	0.00011	-2e-05	2e-05	4
15418	6e-05	6e-05	0.00022	0.00127	0.00082	0.00011	-2e-05	2e-05	4
15419	6e-05	6e-05	0.00022	0.00127	0.00082	0.00011	-2e-05	2e-05	4
15420	6e-05	6e-05	0.00022	0.00127	0.00082	0.00011	-2e-05	2e-05	4
15421	6e-05	6e-05	0.00022	0.00127	0.00082	0.00011	-2e-05	2e-05	4
15422	6e-05	6e-05	0.00022	0.00127	0.00082	0.00011	-2e-05	2e-05	4
15423	0	-8e-05	-0.00015	-0.00041	-0.00033	-0.00021	-8e-05	1e-05	4
15424	0.00018	0.00025	0.00037	0.00014	3e-05	0.00055	0.00021	0.00021	4
15425	0.00018	0.00025	0.00037	0.00014	3e-05	0.00055	0.00021	0.00021	4
15426	0.00018	0.00025	0.00037	0.00014	3e-05	0.00055	0.00021	0.00021	4
15427	0.00018	0.00025	0.00037	0.00014	3e-05	0.00055	0.00021	0.00021	4
15428	0.00018	0.00025	0.00037	0.00014	3e-05	0.00055	0.00021	0.00021	4
15429	0.00018	0.00025	0.00037	0.00014	3e-05	0.00055	0.00021	0.00021	4
15430	0.00018	0.00025	0.00037	0.00014	3e-05	0.00055	0.00021	0.00021	4
15431	0.00018	0.00025	0.00037	0.00014	3e-05	0.00055	0.00021	0.00021	4
15432	0.00018	0.00025	0.00037	0.00014	3e-05	0.00055	0.00021	0.00021	4
15433	0.00018	0.00025	0.00037	0.00014	3e-05	0.00055	0.00021	0.00021	4
15434	0.00018	0.00025	0.00037	0.00014	3e-05	0.00055	0.00021	0.00021	4
15435	0.00018	0.00025	0.00037	0.00014	3e-05	0.00055	0.00021	0.00021	4
15436	0.00018	0.00025	0.00037	0.00014	3e-05	0.00055	0.00021	0.00021	4
15439	-8e-05	-6e-05	-0.00012	-0.00044	-5e-05	-5e-05	3e-05	-6e-05	4
15440	-8e-05	-6e-05	-0.00012	-0.00044	-5e-05	-5e-05	3e-05	-6e-05	4
15441	-8e-05	-6e-05	-0.00012	-0.00044	-5e-05	-5e-05	3e-05	-6e-05	4
15442	-8e-05	-6e-05	-0.00012	-0.00044	-5e-05	-5e-05	3e-05	-6e-05	4
15443	-8e-05	-6e-05	-0.00012	-0.00044	-5e-05	-5e-05	3e-05	-6e-05	4
15444	2e-05	1e-05	0	-1e-05	0.00012	0	3e-05	8e-05	4
15445	2e-05	1e-05	0	-1e-05	0.00012	0	3e-05	8e-05	4
15446	2e-05	1e-05	0	-1e-05	0.00012	0	3e-05	8e-05	4
15447	2e-05	1e-05	0	-1e-05	0.00012	0	3e-05	8e-05	4
15448	2e-05	1e-05	0	-1e-05	0.00012	0	3e-05	8e-05	4
15449	2e-05	1e-05	0	-1e-05	0.00012	0	3e-05	8e-05	4
15450	2e-05	1e-05	0	-1e-05	0.00012	0	3e-05	8e-05	4
15451	2e-05	1e-05	0	-1e-05	0.00012	0	3e-05	8e-05	4
15452	2e-05	1e-05	0	-1e-05	0.00012	0	3e-05	8e-05	4
15453	2e-05	1e-05	0	-1e-05	0.00012	0	3e-05	8e-05	4
15454	2e-05	1e-05	0	-1e-05	0.00012	0	3e-05	8e-05	4
15455	2e-05	1e-05	0	-1e-05	0.00012	0	3e-05	8e-05	4
15456	2e-05	1e-05	0	-1e-05	0.00012	0	3e-05	8e-05	4
15457	2e-05	1e-05	0	-1e-05	0.00012	0	3e-05	8e-05	4
15458	2e-05	1e-05	0	-1e-05	0.00012	0	3e-05	8e-05	4
15459	2e-05	1e-05	0	-1e-05	0.00012	0	3e-05	8e-05	4
15460	0.00012	0.00011	0.00011	-5e-05	-0.00074	-0.00018	7e-05	0.00017	4
15461	0.00012	0.00011	0.00011	-5e-05	-0.00074	-0.00018	7e-05	0.00017	4
15462	-4e-05	-0.00017	-0.00022	-0.00048	-0.00021	8e-05	5e-05	-2e-05	4
15463	-4e-05	-0.00017	-0.00022	-0.00048	-0.00021	8e-05	5e-05	-2e-05	4
15464	-4e-05	-0.00017	-0.00022	-0.00048	-0.00021	8e-05	5e-05	-2e-05	4
15465	-4e-05	-0.00017	-0.00022	-0.00048	-0.00021	8e-05	5e-05	-2e-05	4
15466	-4e-05	-0.00017	-0.00022	-0.00048	-0.00021	8e-05	5e-05	-2e-05	4
15467	-4e-05	-0.00017	-0.00022	-0.00048	-0.00021	8e-05	5e-05	-2e-05	4
15468	-4e-05	-0.00017	-0.00022	-0.00048	-0.00021	8e-05	5e-05	-2e-05	4
15469	-4e-05	-0.00017	-0.00022	-0.00048	-0.00021	8e-05	5e-05	-2e-05	4
15470	-4e-05	-0.00017	-0.00022	-0.00048	-0.00021	8e-05	5e-05	-2e-05	4
15471	-4e-05	-0.00017	-0.00022	-0.00048	-0.00021	8e-05	5e-05	-2e-05	4
15472	-4e-05	-0.00017	-0.00022	-0.00048	-0.00021	8e-05	5e-05	-2e-05	4
15473	-4e-05	-0.00017	-0.00022	-0.00048	-0.00021	8e-05	5e-05	-2e-05	4
15474	-4e-05	-0.00017	-0.00022	-0.00048	-0.00021	8e-05	5e-05	-2e-05	4
15475	-4e-05	-0.00017	-0.00022	-0.00048	-0.00021	8e-05	5e-05	-2e-05	4
15476	-4e-05	-0.00017	-0.00022	-0.00048	-0.00021	8e-05	5e-05	-2e-05	4
15477	-4e-05	-0.00017	-0.00022	-0.00048	-0.00021	8e-05	5e-05	-2e-05	4
15478	-4e-05	-0.00017	-0.00022	-0.00048	-0.00021	8e-05	5e-05	-2e-05	4
15479	-4e-05	-0.00017	-0.00022	-0.00048	-0.00021	8e-05	5e-05	-2e-05	4
15480	-4e-05	-0.00017	-0.00022	-0.00048	-0.00021	8e-05	5e-05	-2e-05	4
15481	-4e-05	-0.00017	-0.00022	-0.00048	-0.00021	8e-05	5e-05	-2e-05	4
15482	-0.00011	-0.00015	-0.00017	-0.00017	-3e-05	-2e-05	9e-05	-8e-05	4
15483	-0.00011	-0.00015	-0.00017	-0.00017	-3e-05	-2e-05	9e-05	-8e-05	4
15484	-9e-05	-0.00012	-0.00014	-0.00038	-0.00067	-0.00029	-0.00017	-0.00014	4
15485	-9e-05	-0.00012	-0.00014	-0.00038	-0.00067	-0.00029	-0.00017	-0.00014	4
15486	-9e-05	-0.00012	-0.00014	-0.00038	-0.00067	-0.00029	-0.00017	-0.00014	4
15488	-9e-05	-0.00012	-0.00014	-0.00038	-0.00067	-0.00029	-0.00017	-0.00014	4
15489	-9e-05	-0.00012	-0.00014	-0.00038	-0.00067	-0.00029	-0.00017	-0.00014	4
15490	-9e-05	-0.00012	-0.00014	-0.00038	-0.00067	-0.00029	-0.00017	-0.00014	4
15491	-9e-05	-0.00012	-0.00014	-0.00038	-0.00067	-0.00029	-0.00017	-0.00014	4
15492	-9e-05	-0.00012	-0.00014	-0.00038	-0.00067	-0.00029	-0.00017	-0.00014	4
15493	-9e-05	-0.00012	-0.00014	-0.00038	-0.00067	-0.00029	-0.00017	-0.00014	4
15494	-9e-05	-0.00012	-0.00014	-0.00038	-0.00067	-0.00029	-0.00017	-0.00014	4
15495	-9e-05	-0.00012	-0.00014	-0.00038	-0.00067	-0.00029	-0.00017	-0.00014	4
15496	8e-05	8e-05	0.00011	0.00016	0.00016	0.00015	-1e-05	-7e-05	4
15497	8e-05	8e-05	0.00011	0.00016	0.00016	0.00015	-1e-05	-7e-05	4
15498	8e-05	8e-05	0.00011	0.00016	0.00016	0.00015	-1e-05	-7e-05	4
15499	8e-05	8e-05	0.00011	0.00016	0.00016	0.00015	-1e-05	-7e-05	4
15500	8e-05	8e-05	0.00011	0.00016	0.00016	0.00015	-1e-05	-7e-05	4
15501	8e-05	8e-05	0.00011	0.00016	0.00016	0.00015	-1e-05	-7e-05	4
15502	8e-05	8e-05	0.00011	0.00016	0.00016	0.00015	-1e-05	-7e-05	4
15503	8e-05	8e-05	0.00011	0.00016	0.00016	0.00015	-1e-05	-7e-05	4
15504	8e-05	8e-05	0.00011	0.00016	0.00016	0.00015	-1e-05	-7e-05	4
15505	5e-05	-3e-05	-0.00012	-0.00078	-0.00039	-0.00015	-1e-05	0.0001	4
15506	5e-05	-3e-05	-0.00012	-0.00078	-0.00039	-0.00015	-1e-05	0.0001	4
15507	5e-05	-3e-05	-0.00012	-0.00078	-0.00039	-0.00015	-1e-05	0.0001	4
15508	5e-05	-3e-05	-0.00012	-0.00078	-0.00039	-0.00015	-1e-05	0.0001	4
15509	5e-05	-3e-05	-0.00012	-0.00078	-0.00039	-0.00015	-1e-05	0.0001	4
15510	5e-05	-3e-05	-0.00012	-0.00078	-0.00039	-0.00015	-1e-05	0.0001	4
15511	5e-05	-3e-05	-0.00012	-0.00078	-0.00039	-0.00015	-1e-05	0.0001	4
15512	5e-05	-3e-05	-0.00012	-0.00078	-0.00039	-0.00015	-1e-05	0.0001	4
15513	5e-05	-3e-05	-0.00012	-0.00078	-0.00039	-0.00015	-1e-05	0.0001	4
15514	5e-05	-3e-05	-0.00012	-0.00078	-0.00039	-0.00015	-1e-05	0.0001	4
15515	5e-05	-3e-05	-0.00012	-0.00078	-0.00039	-0.00015	-1e-05	0.0001	4
15516	5e-05	-3e-05	-0.00012	-0.00078	-0.00039	-0.00015	-1e-05	0.0001	4
15517	5e-05	-3e-05	-0.00012	-0.00078	-0.00039	-0.00015	-1e-05	0.0001	4
15518	5e-05	-3e-05	-0.00012	-0.00078	-0.00039	-0.00015	-1e-05	0.0001	4
15519	5e-05	-3e-05	-0.00012	-0.00078	-0.00039	-0.00015	-1e-05	0.0001	4
15520	5e-05	2e-05	-2e-05	-0.00016	-0.00014	-4e-05	2e-05	3e-05	4
15521	-6e-05	-0.00012	-0.00019	0.0001	-0.00025	-0.00011	-0.00014	-0.00012	4
15522	-6e-05	-0.00012	-0.00019	0.0001	-0.00025	-0.00011	-0.00014	-0.00012	4
15523	-6e-05	-0.00012	-0.00019	0.0001	-0.00025	-0.00011	-0.00014	-0.00012	4
15524	-6e-05	-0.00012	-0.00019	0.0001	-0.00025	-0.00011	-0.00014	-0.00012	4
15525	-6e-05	-0.00012	-0.00019	0.0001	-0.00025	-0.00011	-0.00014	-0.00012	4
15526	-6e-05	-0.00012	-0.00019	0.0001	-0.00025	-0.00011	-0.00014	-0.00012	4
15527	-6e-05	-0.00012	-0.00019	0.0001	-0.00025	-0.00011	-0.00014	-0.00012	4
15528	-6e-05	-0.00012	-0.00019	0.0001	-0.00025	-0.00011	-0.00014	-0.00012	4
15529	-6e-05	-0.00012	-0.00019	0.0001	-0.00025	-0.00011	-0.00014	-0.00012	4
15530	-6e-05	-0.00012	-0.00019	0.0001	-0.00025	-0.00011	-0.00014	-0.00012	4
15531	-6e-05	-0.00012	-0.00019	0.0001	-0.00025	-0.00011	-0.00014	-0.00012	4
15532	-6e-05	-0.00012	-0.00019	0.0001	-0.00025	-0.00011	-0.00014	-0.00012	4
15533	-6e-05	-0.00012	-0.00019	0.0001	-0.00025	-0.00011	-0.00014	-0.00012	4
15534	-6e-05	-0.00012	-0.00019	0.0001	-0.00025	-0.00011	-0.00014	-0.00012	4
15535	-6e-05	-0.00012	-0.00019	0.0001	-0.00025	-0.00011	-0.00014	-0.00012	4
15536	-6e-05	-0.00012	-0.00019	0.0001	-0.00025	-0.00011	-0.00014	-0.00012	4
15538	-6e-05	-0.00012	-0.00019	0.0001	-0.00025	-0.00011	-0.00014	-0.00012	4
15539	-6e-05	-0.00012	-0.00019	0.0001	-0.00025	-0.00011	-0.00014	-0.00012	4
15540	-6e-05	-0.00012	-0.00019	0.0001	-0.00025	-0.00011	-0.00014	-0.00012	4
15541	-6e-05	-0.00012	-0.00019	0.0001	-0.00025	-0.00011	-0.00014	-0.00012	4
15542	-8e-05	1e-05	-2e-05	6e-05	0.0005	-2e-05	-3e-05	-9e-05	4
15543	-8e-05	1e-05	-2e-05	6e-05	0.0005	-2e-05	-3e-05	-9e-05	4
15544	-4e-05	-7e-05	-8e-05	0.00021	0.0001	8e-05	-3e-05	-0.00012	4
15545	-4e-05	-7e-05	-8e-05	0.00021	0.0001	8e-05	-3e-05	-0.00012	4
15546	-4e-05	-7e-05	-8e-05	0.00021	0.0001	8e-05	-3e-05	-0.00012	4
15547	-4e-05	-7e-05	-8e-05	0.00021	0.0001	8e-05	-3e-05	-0.00012	4
15548	-4e-05	-7e-05	-8e-05	0.00021	0.0001	8e-05	-3e-05	-0.00012	4
15549	-4e-05	-7e-05	-8e-05	0.00021	0.0001	8e-05	-3e-05	-0.00012	4
15550	-4e-05	-7e-05	-8e-05	0.00021	0.0001	8e-05	-3e-05	-0.00012	4
15551	-4e-05	-7e-05	-8e-05	0.00021	0.0001	8e-05	-3e-05	-0.00012	4
15552	-4e-05	-7e-05	-8e-05	0.00021	0.0001	8e-05	-3e-05	-0.00012	4
15553	-4e-05	-7e-05	-8e-05	0.00021	0.0001	8e-05	-3e-05	-0.00012	4
15554	-4e-05	-7e-05	-8e-05	0.00021	0.0001	8e-05	-3e-05	-0.00012	4
15555	-4e-05	-7e-05	-8e-05	0.00021	0.0001	8e-05	-3e-05	-0.00012	4
15556	-4e-05	-7e-05	-8e-05	0.00021	0.0001	8e-05	-3e-05	-0.00012	4
15557	-9e-05	-0.00012	-0.00022	-0.00037	-0.00048	-0.00031	-0.00014	-7e-05	4
15558	-9e-05	-0.00012	-0.00022	-0.00037	-0.00048	-0.00031	-0.00014	-7e-05	4
15559	-9e-05	-0.00012	-0.00022	-0.00037	-0.00048	-0.00031	-0.00014	-7e-05	4
15560	-9e-05	-0.00012	-0.00022	-0.00037	-0.00048	-0.00031	-0.00014	-7e-05	4
15561	-9e-05	-0.00012	-0.00022	-0.00037	-0.00048	-0.00031	-0.00014	-7e-05	4
15562	-9e-05	-0.00012	-0.00022	-0.00037	-0.00048	-0.00031	-0.00014	-7e-05	4
15563	-9e-05	-0.00012	-0.00022	-0.00037	-0.00048	-0.00031	-0.00014	-7e-05	4
15564	0.00021	0.00033	0.00051	0.00072	0.00033	0.00032	0.00019	0.00017	4
15565	0.00021	0.00033	0.00051	0.00072	0.00033	0.00032	0.00019	0.00017	4
15566	0.00021	0.00033	0.00051	0.00072	0.00033	0.00032	0.00019	0.00017	4
15567	0.00021	0.00033	0.00051	0.00072	0.00033	0.00032	0.00019	0.00017	4
15568	0.00021	0.00033	0.00051	0.00072	0.00033	0.00032	0.00019	0.00017	4
15569	0.00021	0.00033	0.00051	0.00072	0.00033	0.00032	0.00019	0.00017	4
15570	0.00021	0.00033	0.00051	0.00072	0.00033	0.00032	0.00019	0.00017	4
15571	0.00021	0.00033	0.00051	0.00072	0.00033	0.00032	0.00019	0.00017	4
15572	0.00021	0.00033	0.00051	0.00072	0.00033	0.00032	0.00019	0.00017	4
15573	0.00021	0.00033	0.00051	0.00072	0.00033	0.00032	0.00019	0.00017	4
15574	0.00021	0.00033	0.00051	0.00072	0.00033	0.00032	0.00019	0.00017	4
15575	0.00021	0.00033	0.00051	0.00072	0.00033	0.00032	0.00019	0.00017	4
15576	0.00021	0.00033	0.00051	0.00072	0.00033	0.00032	0.00019	0.00017	4
15577	0.00021	0.00033	0.00051	0.00072	0.00033	0.00032	0.00019	0.00017	4
15578	0.00021	0.00033	0.00051	0.00072	0.00033	0.00032	0.00019	0.00017	4
15579	0.00021	0.00033	0.00051	0.00072	0.00033	0.00032	0.00019	0.00017	4
15580	-7e-05	-0.00011	-6e-05	8e-05	0.00021	-0.00013	-0.00022	-0.00012	4
15581	-6e-05	-9e-05	-0.0001	-3e-05	-0.00027	-0.00023	-9e-05	0	4
15582	-6e-05	-9e-05	-0.0001	-3e-05	-0.00027	-0.00023	-9e-05	0	4
15583	-6e-05	-9e-05	-0.0001	-3e-05	-0.00027	-0.00023	-9e-05	0	4
15584	-6e-05	-9e-05	-0.0001	-3e-05	-0.00027	-0.00023	-9e-05	0	4
15585	-6e-05	-9e-05	-0.0001	-3e-05	-0.00027	-0.00023	-9e-05	0	4
15586	-6e-05	-9e-05	-0.0001	-3e-05	-0.00027	-0.00023	-9e-05	0	4
15588	-6e-05	-9e-05	-0.0001	-3e-05	-0.00027	-0.00023	-9e-05	0	4
15589	-6e-05	-9e-05	-0.0001	-3e-05	-0.00027	-0.00023	-9e-05	0	4
15590	-6e-05	-9e-05	-0.0001	-3e-05	-0.00027	-0.00023	-9e-05	0	4
15591	-6e-05	-9e-05	-0.0001	-3e-05	-0.00027	-0.00023	-9e-05	0	4
15592	-6e-05	-9e-05	-0.0001	-3e-05	-0.00027	-0.00023	-9e-05	0	4
15593	-6e-05	-9e-05	-0.0001	-3e-05	-0.00027	-0.00023	-9e-05	0	4
15594	-6e-05	-9e-05	-0.0001	-3e-05	-0.00027	-0.00023	-9e-05	0	4
15595	-6e-05	-9e-05	-0.0001	-3e-05	-0.00027	-0.00023	-9e-05	0	4
15596	-6e-05	-9e-05	-0.0001	-3e-05	-0.00027	-0.00023	-9e-05	0	4
15597	-6e-05	-9e-05	-0.0001	-3e-05	-0.00027	-0.00023	-9e-05	0	4
15598	-6e-05	-9e-05	-0.0001	-3e-05	-0.00027	-0.00023	-9e-05	0	4
15599	-6e-05	-9e-05	-0.0001	-3e-05	-0.00027	-0.00023	-9e-05	0	4
15600	-6e-05	-9e-05	-0.0001	-3e-05	-0.00027	-0.00023	-9e-05	0	4
15601	-6e-05	-9e-05	-0.0001	-3e-05	-0.00027	-0.00023	-9e-05	0	4
15602	9e-05	6e-05	0.0001	-5e-05	-0.00029	3e-05	-3e-05	5e-05	4
15603	9e-05	6e-05	0.0001	-5e-05	-0.00029	3e-05	-3e-05	5e-05	4
15604	-0.00012	-0.00013	-0.00018	0.00027	-5e-05	-0.00024	-0.00017	-0.00021	4
15605	-0.00012	-0.00013	-0.00018	0.00027	-5e-05	-0.00024	-0.00017	-0.00021	4
15606	-0.00012	-0.00013	-0.00018	0.00027	-5e-05	-0.00024	-0.00017	-0.00021	4
15607	-0.00012	-0.00013	-0.00018	0.00027	-5e-05	-0.00024	-0.00017	-0.00021	4
15608	-0.00012	-0.00013	-0.00018	0.00027	-5e-05	-0.00024	-0.00017	-0.00021	4
15609	-0.00012	-0.00013	-0.00018	0.00027	-5e-05	-0.00024	-0.00017	-0.00021	4
15610	-0.00012	-0.00013	-0.00018	0.00027	-5e-05	-0.00024	-0.00017	-0.00021	4
15611	-0.00012	-0.00013	-0.00018	0.00027	-5e-05	-0.00024	-0.00017	-0.00021	4
15612	-0.00012	-0.00013	-0.00018	0.00027	-5e-05	-0.00024	-0.00017	-0.00021	4
15613	-0.00012	-0.00013	-0.00018	0.00027	-5e-05	-0.00024	-0.00017	-0.00021	4
15614	-0.00012	-0.00013	-0.00018	0.00027	-5e-05	-0.00024	-0.00017	-0.00021	4
15615	-0.00012	-0.00013	-0.00018	0.00027	-5e-05	-0.00024	-0.00017	-0.00021	4
15616	-0.00012	-0.00013	-0.00018	0.00027	-5e-05	-0.00024	-0.00017	-0.00021	4
15617	-4e-05	-8e-05	-9e-05	0.00024	-7e-05	0.0001	3e-05	-2e-05	4
15618	-4e-05	-8e-05	-9e-05	0.00024	-7e-05	0.0001	3e-05	-2e-05	4
15619	-4e-05	-8e-05	-9e-05	0.00024	-7e-05	0.0001	3e-05	-2e-05	4
15620	-4e-05	-8e-05	-9e-05	0.00024	-7e-05	0.0001	3e-05	-2e-05	4
15621	-4e-05	-8e-05	-9e-05	0.00024	-7e-05	0.0001	3e-05	-2e-05	4
15622	-4e-05	-8e-05	-9e-05	0.00024	-7e-05	0.0001	3e-05	-2e-05	4
15623	-4e-05	-8e-05	-9e-05	0.00024	-7e-05	0.0001	3e-05	-2e-05	4
15624	-5e-05	-8e-05	-0.00012	-0.00035	5e-05	-8e-05	-6e-05	-9e-05	4
15625	-5e-05	-8e-05	-0.00012	-0.00035	5e-05	-8e-05	-6e-05	-9e-05	4
15626	-5e-05	-8e-05	-0.00012	-0.00035	5e-05	-8e-05	-6e-05	-9e-05	4
15627	-5e-05	-8e-05	-0.00012	-0.00035	5e-05	-8e-05	-6e-05	-9e-05	4
15628	-5e-05	-8e-05	-0.00012	-0.00035	5e-05	-8e-05	-6e-05	-9e-05	4
15629	-5e-05	-8e-05	-0.00012	-0.00035	5e-05	-8e-05	-6e-05	-9e-05	4
15630	-5e-05	-8e-05	-0.00012	-0.00035	5e-05	-8e-05	-6e-05	-9e-05	4
15631	-5e-05	-8e-05	-0.00012	-0.00035	5e-05	-8e-05	-6e-05	-9e-05	4
15632	-5e-05	-8e-05	-0.00012	-0.00035	5e-05	-8e-05	-6e-05	-9e-05	4
15633	-5e-05	-8e-05	-0.00012	-0.00035	5e-05	-8e-05	-6e-05	-9e-05	4
15634	-5e-05	-8e-05	-0.00012	-0.00035	5e-05	-8e-05	-6e-05	-9e-05	4
15635	-5e-05	-8e-05	-0.00012	-0.00035	5e-05	-8e-05	-6e-05	-9e-05	4
15636	-5e-05	-8e-05	-0.00012	-0.00035	5e-05	-8e-05	-6e-05	-9e-05	4
15638	-5e-05	-8e-05	-0.00012	-0.00035	5e-05	-8e-05	-6e-05	-9e-05	4
15639	-5e-05	-8e-05	-0.00012	-0.00035	5e-05	-8e-05	-6e-05	-9e-05	4
15640	6e-05	0.00014	0.00019	0.00072	0.00014	0.00028	0.00016	0.0001	4
15641	-2e-05	-5e-05	0	-0.00018	0.00039	-3e-05	-1e-05	-7e-05	4
15642	4e-05	8e-05	0.0002	0.00076	0.00088	0.0004	0.00011	0.00014	4
15643	4e-05	8e-05	0.0002	0.00076	0.00088	0.0004	0.00011	0.00014	4
15644	4e-05	8e-05	0.0002	0.00076	0.00088	0.0004	0.00011	0.00014	4
15645	4e-05	8e-05	0.0002	0.00076	0.00088	0.0004	0.00011	0.00014	4
15646	4e-05	8e-05	0.0002	0.00076	0.00088	0.0004	0.00011	0.00014	4
15647	4e-05	8e-05	0.0002	0.00076	0.00088	0.0004	0.00011	0.00014	4
15648	4e-05	8e-05	0.0002	0.00076	0.00088	0.0004	0.00011	0.00014	4
15649	4e-05	8e-05	0.0002	0.00076	0.00088	0.0004	0.00011	0.00014	4
15650	4e-05	8e-05	0.0002	0.00076	0.00088	0.0004	0.00011	0.00014	4
15651	4e-05	8e-05	0.0002	0.00076	0.00088	0.0004	0.00011	0.00014	4
15652	4e-05	8e-05	0.0002	0.00076	0.00088	0.0004	0.00011	0.00014	4
15653	4e-05	8e-05	0.0002	0.00076	0.00088	0.0004	0.00011	0.00014	4
15654	4e-05	8e-05	0.0002	0.00076	0.00088	0.0004	0.00011	0.00014	4
15655	4e-05	8e-05	0.0002	0.00076	0.00088	0.0004	0.00011	0.00014	4
15656	4e-05	8e-05	0.0002	0.00076	0.00088	0.0004	0.00011	0.00014	4
15657	4e-05	8e-05	0.0002	0.00076	0.00088	0.0004	0.00011	0.00014	4
15658	4e-05	8e-05	0.0002	0.00076	0.00088	0.0004	0.00011	0.00014	4
15659	4e-05	8e-05	0.0002	0.00076	0.00088	0.0004	0.00011	0.00014	4
15660	4e-05	8e-05	0.0002	0.00076	0.00088	0.0004	0.00011	0.00014	4
15661	4e-05	8e-05	0.0002	0.00076	0.00088	0.0004	0.00011	0.00014	4
15662	-0.00012	-0.00013	-0.00012	3e-05	-0.00027	-0.00025	-2e-05	-8e-05	4
15663	-0.00012	-0.00013	-0.00012	3e-05	-0.00027	-0.00025	-2e-05	-8e-05	4
15664	4e-05	7e-05	0.00011	-3e-05	-5e-05	6e-05	5e-05	9e-05	4
15665	4e-05	7e-05	0.00011	-3e-05	-5e-05	6e-05	5e-05	9e-05	4
15666	4e-05	7e-05	0.00011	-3e-05	-5e-05	6e-05	5e-05	9e-05	4
15667	4e-05	7e-05	0.00011	-3e-05	-5e-05	6e-05	5e-05	9e-05	4
15668	4e-05	7e-05	0.00011	-3e-05	-5e-05	6e-05	5e-05	9e-05	4
15669	4e-05	7e-05	0.00011	-3e-05	-5e-05	6e-05	5e-05	9e-05	4
15670	4e-05	7e-05	0.00011	-3e-05	-5e-05	6e-05	5e-05	9e-05	4
15671	4e-05	7e-05	0.00011	-3e-05	-5e-05	6e-05	5e-05	9e-05	4
15672	4e-05	7e-05	0.00011	-3e-05	-5e-05	6e-05	5e-05	9e-05	4
15673	4e-05	7e-05	0.00011	-3e-05	-5e-05	6e-05	5e-05	9e-05	4
15674	4e-05	7e-05	0.00011	-3e-05	-5e-05	6e-05	5e-05	9e-05	4
15675	4e-05	7e-05	0.00011	-3e-05	-5e-05	6e-05	5e-05	9e-05	4
15676	-8e-05	-9e-05	1e-05	0.00021	0.00078	0.00027	-9e-05	-4e-05	4
15677	-8e-05	-9e-05	1e-05	0.00021	0.00078	0.00027	-9e-05	-4e-05	4
15678	-8e-05	-9e-05	1e-05	0.00021	0.00078	0.00027	-9e-05	-4e-05	4
15679	-8e-05	-9e-05	1e-05	0.00021	0.00078	0.00027	-9e-05	-4e-05	4
15680	-8e-05	-9e-05	1e-05	0.00021	0.00078	0.00027	-9e-05	-4e-05	4
15681	-8e-05	-9e-05	1e-05	0.00021	0.00078	0.00027	-9e-05	-4e-05	4
15682	-8e-05	-9e-05	1e-05	0.00021	0.00078	0.00027	-9e-05	-4e-05	4
15683	-8e-05	-9e-05	1e-05	0.00021	0.00078	0.00027	-9e-05	-4e-05	4
15684	-8e-05	-9e-05	1e-05	0.00021	0.00078	0.00027	-9e-05	-4e-05	4
15685	-2e-05	0	-0.00011	-0.00054	-0.00052	-0.0001	-5e-05	-4e-05	4
15686	-2e-05	0	-0.00011	-0.00054	-0.00052	-0.0001	-5e-05	-4e-05	4
15688	-2e-05	0	-0.00011	-0.00054	-0.00052	-0.0001	-5e-05	-4e-05	4
15689	-2e-05	0	-0.00011	-0.00054	-0.00052	-0.0001	-5e-05	-4e-05	4
15690	-2e-05	0	-0.00011	-0.00054	-0.00052	-0.0001	-5e-05	-4e-05	4
15691	-2e-05	0	-0.00011	-0.00054	-0.00052	-0.0001	-5e-05	-4e-05	4
15692	-2e-05	0	-0.00011	-0.00054	-0.00052	-0.0001	-5e-05	-4e-05	4
15693	-2e-05	0	-0.00011	-0.00054	-0.00052	-0.0001	-5e-05	-4e-05	4
15694	-2e-05	0	-0.00011	-0.00054	-0.00052	-0.0001	-5e-05	-4e-05	4
15695	-2e-05	0	-0.00011	-0.00054	-0.00052	-0.0001	-5e-05	-4e-05	4
15696	-2e-05	0	-0.00011	-0.00054	-0.00052	-0.0001	-5e-05	-4e-05	4
15697	-2e-05	0	-0.00011	-0.00054	-0.00052	-0.0001	-5e-05	-4e-05	4
15698	-2e-05	0	-0.00011	-0.00054	-0.00052	-0.0001	-5e-05	-4e-05	4
15699	-2e-05	0	-0.00011	-0.00054	-0.00052	-0.0001	-5e-05	-4e-05	4
15700	4e-05	0.00013	0.00012	0.00034	0.0002	-0.00011	-4e-05	6e-05	4
15701	-4e-05	-7e-05	-9e-05	-0.00062	-0.0002	0.00018	6e-05	-3e-05	4
15702	4e-05	5e-05	0	-0.00042	-0.00024	0.00019	2e-05	-2e-05	4
15703	4e-05	5e-05	0	-0.00042	-0.00024	0.00019	2e-05	-2e-05	4
15704	4e-05	5e-05	0	-0.00042	-0.00024	0.00019	2e-05	-2e-05	4
15705	4e-05	5e-05	0	-0.00042	-0.00024	0.00019	2e-05	-2e-05	4
15706	4e-05	5e-05	0	-0.00042	-0.00024	0.00019	2e-05	-2e-05	4
15707	4e-05	5e-05	0	-0.00042	-0.00024	0.00019	2e-05	-2e-05	4
15708	4e-05	5e-05	0	-0.00042	-0.00024	0.00019	2e-05	-2e-05	4
15709	4e-05	5e-05	0	-0.00042	-0.00024	0.00019	2e-05	-2e-05	4
15710	4e-05	5e-05	0	-0.00042	-0.00024	0.00019	2e-05	-2e-05	4
15711	4e-05	5e-05	0	-0.00042	-0.00024	0.00019	2e-05	-2e-05	4
15712	4e-05	5e-05	0	-0.00042	-0.00024	0.00019	2e-05	-2e-05	4
15713	4e-05	5e-05	0	-0.00042	-0.00024	0.00019	2e-05	-2e-05	4
15714	4e-05	5e-05	0	-0.00042	-0.00024	0.00019	2e-05	-2e-05	4
15715	4e-05	5e-05	0	-0.00042	-0.00024	0.00019	2e-05	-2e-05	4
15716	4e-05	5e-05	0	-0.00042	-0.00024	0.00019	2e-05	-2e-05	4
15717	4e-05	5e-05	0	-0.00042	-0.00024	0.00019	2e-05	-2e-05	4
15718	4e-05	5e-05	0	-0.00042	-0.00024	0.00019	2e-05	-2e-05	4
15719	4e-05	5e-05	0	-0.00042	-0.00024	0.00019	2e-05	-2e-05	4
15720	4e-05	5e-05	0	-0.00042	-0.00024	0.00019	2e-05	-2e-05	4
15721	4e-05	5e-05	0	-0.00042	-0.00024	0.00019	2e-05	-2e-05	4
15722	-5e-05	-0.00015	-0.00016	-0.00025	-0.00036	-7e-05	-3e-05	-9e-05	4
15723	-5e-05	-0.00015	-0.00016	-0.00025	-0.00036	-7e-05	-3e-05	-9e-05	4
15724	4e-05	5e-05	0	-0.00049	-0.00065	-0.00014	-2e-05	1e-05	4
15725	4e-05	5e-05	0	-0.00049	-0.00065	-0.00014	-2e-05	1e-05	4
15726	4e-05	5e-05	0	-0.00049	-0.00065	-0.00014	-2e-05	1e-05	4
15727	4e-05	5e-05	0	-0.00049	-0.00065	-0.00014	-2e-05	1e-05	4
15728	4e-05	5e-05	0	-0.00049	-0.00065	-0.00014	-2e-05	1e-05	4
15729	4e-05	5e-05	0	-0.00049	-0.00065	-0.00014	-2e-05	1e-05	4
15730	4e-05	5e-05	0	-0.00049	-0.00065	-0.00014	-2e-05	1e-05	4
15731	4e-05	5e-05	0	-0.00049	-0.00065	-0.00014	-2e-05	1e-05	4
15732	4e-05	5e-05	0	-0.00049	-0.00065	-0.00014	-2e-05	1e-05	4
15733	4e-05	5e-05	0	-0.00049	-0.00065	-0.00014	-2e-05	1e-05	4
15734	4e-05	5e-05	0	-0.00049	-0.00065	-0.00014	-2e-05	1e-05	4
15735	4e-05	5e-05	0	-0.00049	-0.00065	-0.00014	-2e-05	1e-05	4
15736	4e-05	6e-05	9e-05	-1e-05	0.00033	0.00013	-3e-05	4e-05	4
15738	4e-05	6e-05	9e-05	-1e-05	0.00033	0.00013	-3e-05	4e-05	4
15739	4e-05	6e-05	9e-05	-1e-05	0.00033	0.00013	-3e-05	4e-05	4
15740	4e-05	6e-05	9e-05	-1e-05	0.00033	0.00013	-3e-05	4e-05	4
15741	4e-05	6e-05	9e-05	-1e-05	0.00033	0.00013	-3e-05	4e-05	4
15742	4e-05	6e-05	9e-05	-1e-05	0.00033	0.00013	-3e-05	4e-05	4
15743	4e-05	6e-05	9e-05	-1e-05	0.00033	0.00013	-3e-05	4e-05	4
15744	4e-05	6e-05	9e-05	-1e-05	0.00033	0.00013	-3e-05	4e-05	4
15745	3e-05	8e-05	0.00017	0.00089	0.00066	-9e-05	-0.00013	-0.00017	4
15746	3e-05	8e-05	0.00017	0.00089	0.00066	-9e-05	-0.00013	-0.00017	4
15747	3e-05	8e-05	0.00017	0.00089	0.00066	-9e-05	-0.00013	-0.00017	4
15748	3e-05	8e-05	0.00017	0.00089	0.00066	-9e-05	-0.00013	-0.00017	4
15749	3e-05	8e-05	0.00017	0.00089	0.00066	-9e-05	-0.00013	-0.00017	4
15750	3e-05	8e-05	0.00017	0.00089	0.00066	-9e-05	-0.00013	-0.00017	4
15751	3e-05	8e-05	0.00017	0.00089	0.00066	-9e-05	-0.00013	-0.00017	4
15752	3e-05	8e-05	0.00017	0.00089	0.00066	-9e-05	-0.00013	-0.00017	4
15753	3e-05	8e-05	0.00017	0.00089	0.00066	-9e-05	-0.00013	-0.00017	4
15754	3e-05	8e-05	0.00017	0.00089	0.00066	-9e-05	-0.00013	-0.00017	4
15755	3e-05	8e-05	0.00017	0.00089	0.00066	-9e-05	-0.00013	-0.00017	4
15756	3e-05	8e-05	0.00017	0.00089	0.00066	-9e-05	-0.00013	-0.00017	4
15757	3e-05	8e-05	0.00017	0.00089	0.00066	-9e-05	-0.00013	-0.00017	4
15758	3e-05	8e-05	0.00017	0.00089	0.00066	-9e-05	-0.00013	-0.00017	4
15759	3e-05	8e-05	0.00017	0.00089	0.00066	-9e-05	-0.00013	-0.00017	4
15760	2e-05	6e-05	0	-0.00031	-0.00038	6e-05	-9e-05	-4e-05	4
15761	2e-05	6e-05	0	-0.00031	-0.00038	6e-05	-9e-05	-4e-05	4
15762	-1e-05	0	-6e-05	-0.00028	-0.00028	-4e-05	5e-05	8e-05	4
15763	-1e-05	0	-6e-05	-0.00028	-0.00028	-4e-05	5e-05	8e-05	4
15764	-1e-05	0	-6e-05	-0.00028	-0.00028	-4e-05	5e-05	8e-05	4
15765	-1e-05	0	-6e-05	-0.00028	-0.00028	-4e-05	5e-05	8e-05	4
15766	-1e-05	0	-6e-05	-0.00028	-0.00028	-4e-05	5e-05	8e-05	4
15767	-1e-05	0	-6e-05	-0.00028	-0.00028	-4e-05	5e-05	8e-05	4
15768	-1e-05	0	-6e-05	-0.00028	-0.00028	-4e-05	5e-05	8e-05	4
15769	-1e-05	0	-6e-05	-0.00028	-0.00028	-4e-05	5e-05	8e-05	4
15770	-1e-05	0	-6e-05	-0.00028	-0.00028	-4e-05	5e-05	8e-05	4
15771	-1e-05	0	-6e-05	-0.00028	-0.00028	-4e-05	5e-05	8e-05	4
15772	-1e-05	0	-6e-05	-0.00028	-0.00028	-4e-05	5e-05	8e-05	4
15773	-1e-05	0	-6e-05	-0.00028	-0.00028	-4e-05	5e-05	8e-05	4
15774	-1e-05	0	-6e-05	-0.00028	-0.00028	-4e-05	5e-05	8e-05	4
15775	-1e-05	0	-6e-05	-0.00028	-0.00028	-4e-05	5e-05	8e-05	4
15776	-1e-05	0	-6e-05	-0.00028	-0.00028	-4e-05	5e-05	8e-05	4
15777	-1e-05	0	-6e-05	-0.00028	-0.00028	-4e-05	5e-05	8e-05	4
15778	-1e-05	0	-6e-05	-0.00028	-0.00028	-4e-05	5e-05	8e-05	4
15779	-1e-05	0	-6e-05	-0.00028	-0.00028	-4e-05	5e-05	8e-05	4
15780	-1e-05	0	-6e-05	-0.00028	-0.00028	-4e-05	5e-05	8e-05	4
15781	-1e-05	0	-6e-05	-0.00028	-0.00028	-4e-05	5e-05	8e-05	4
15782	2e-05	3e-05	0.00015	0.00084	-0.0001	-2e-05	4e-05	3e-05	4
15783	2e-05	3e-05	0.00015	0.00084	-0.0001	-2e-05	4e-05	3e-05	4
15784	-4e-05	-2e-05	-3e-05	-3e-05	-9e-05	-4e-05	-2e-05	-4e-05	4
15785	-4e-05	-2e-05	-3e-05	-3e-05	-9e-05	-4e-05	-2e-05	-4e-05	4
15786	-4e-05	-2e-05	-3e-05	-3e-05	-9e-05	-4e-05	-2e-05	-4e-05	4
15788	-4e-05	-2e-05	-3e-05	-3e-05	-9e-05	-4e-05	-2e-05	-4e-05	4
15789	-4e-05	-2e-05	-3e-05	-3e-05	-9e-05	-4e-05	-2e-05	-4e-05	4
15790	-4e-05	-2e-05	-3e-05	-3e-05	-9e-05	-4e-05	-2e-05	-4e-05	4
15791	-4e-05	-2e-05	-3e-05	-3e-05	-9e-05	-4e-05	-2e-05	-4e-05	4
15792	-4e-05	-2e-05	-3e-05	-3e-05	-9e-05	-4e-05	-2e-05	-4e-05	4
15793	-4e-05	-2e-05	-3e-05	-3e-05	-9e-05	-4e-05	-2e-05	-4e-05	4
15794	-4e-05	-2e-05	-3e-05	-3e-05	-9e-05	-4e-05	-2e-05	-4e-05	4
15795	-4e-05	-2e-05	-3e-05	-3e-05	-9e-05	-4e-05	-2e-05	-4e-05	4
15796	-0.00011	-0.00013	-0.00015	-0.00052	-0.00037	-0.00028	-0.0001	-0.00028	4
15797	-0.00011	-0.00013	-0.00015	-0.00052	-0.00037	-0.00028	-0.0001	-0.00028	4
15798	-0.00011	-0.00013	-0.00015	-0.00052	-0.00037	-0.00028	-0.0001	-0.00028	4
15799	-0.00011	-0.00013	-0.00015	-0.00052	-0.00037	-0.00028	-0.0001	-0.00028	4
15800	-0.00011	-0.00013	-0.00015	-0.00052	-0.00037	-0.00028	-0.0001	-0.00028	4
15801	-0.00011	-0.00013	-0.00015	-0.00052	-0.00037	-0.00028	-0.0001	-0.00028	4
