6919	-2e-05	-0.00011	-1e-05	5e-05	0.00039	0.00025	0.00015	-0.0001	2
6920	-2e-05	-0.00011	-1e-05	5e-05	0.00039	0.00025	0.00015	-0.0001	2
6921	-2e-05	-0.00011	-1e-05	5e-05	0.00039	0.00025	0.00015	-0.0001	2
6922	-0.00017	-0.00029	0.0001	0.00011	-0.00029	-7e-05	-0.00026	-0.00018	2
6923	-0.00017	-0.00029	0.0001	0.00011	-0.00029	-7e-05	-0.00026	-0.00018	2
6924	-0.00017	-0.00029	0.0001	0.00011	-0.00029	-7e-05	-0.00026	-0.00018	2
6925	-0.00017	-0.00029	0.0001	0.00011	-0.00029	-7e-05	-0.00026	-0.00018	2
6926	-0.00017	-0.00029	0.0001	0.00011	-0.00029	-7e-05	-0.00026	-0.00018	2
6927	-0.00017	-0.00029	0.0001	0.00011	-0.00029	-7e-05	-0.00026	-0.00018	2
6928	6e-05	0	8e-05	0.00033	7e-05	3e-05	-0.00051	-0.0002	2
6929	6e-05	0	8e-05	0.00033	7e-05	3e-05	-0.00051	-0.0002	2
6930	6e-05	0	8e-05	0.00033	7e-05	3e-05	-0.00051	-0.0002	2
6931	6e-05	0	8e-05	0.00033	7e-05	3e-05	-0.00051	-0.0002	2
6932	6e-05	0	8e-05	0.00033	7e-05	3e-05	-0.00051	-0.0002	2
6933	6e-05	0	8e-05	0.00033	7e-05	3e-05	-0.00051	-0.0002	2
6934	6e-05	0	8e-05	0.00033	7e-05	3e-05	-0.00051	-0.0002	2
6935	6e-05	0	8e-05	0.00033	7e-05	3e-05	-0.00051	-0.0002	2
6936	6e-05	0	8e-05	0.00033	7e-05	3e-05	-0.00051	-0.0002	2
6939	6e-05	0	8e-05	0.00033	7e-05	3e-05	-0.00051	-0.0002	2
6940	6e-05	0	8e-05	0.00033	7e-05	3e-05	-0.00051	-0.0002	2
6941	6e-05	0	8e-05	0.00033	7e-05	3e-05	-0.00051	-0.0002	2
6942	6e-05	0	8e-05	0.00033	7e-05	3e-05	-0.00051	-0.0002	2
6943	6e-05	0	8e-05	0.00033	7e-05	3e-05	-0.00051	-0.0002	2
6944	-0.00015	0.00015	7e-05	0.00011	4e-05	0.00023	0.00025	0.0001	2
6945	-0.00015	0.00015	7e-05	0.00011	4e-05	0.00023	0.00025	0.0001	2
6946	2e-05	7e-05	0.00017	0.00024	-4e-05	-0.00022	-0.00018	1e-05	2
6947	2e-05	7e-05	0.00017	0.00024	-4e-05	-0.00022	-0.00018	1e-05	2
6948	2e-05	7e-05	0.00017	0.00024	-4e-05	-0.00022	-0.00018	1e-05	2
6949	2e-05	7e-05	0.00017	0.00024	-4e-05	-0.00022	-0.00018	1e-05	2
6950	2e-05	7e-05	0.00017	0.00024	-4e-05	-0.00022	-0.00018	1e-05	2
6951	2e-05	7e-05	0.00017	0.00024	-4e-05	-0.00022	-0.00018	1e-05	2
6952	2e-05	7e-05	0.00017	0.00024	-4e-05	-0.00022	-0.00018	1e-05	2
6953	2e-05	7e-05	0.00017	0.00024	-4e-05	-0.00022	-0.00018	1e-05	2
6954	2e-05	7e-05	0.00017	0.00024	-4e-05	-0.00022	-0.00018	1e-05	2
6955	2e-05	7e-05	0.00017	0.00024	-4e-05	-0.00022	-0.00018	1e-05	2
6956	2e-05	7e-05	0.00017	0.00024	-4e-05	-0.00022	-0.00018	1e-05	2
6957	2e-05	7e-05	0.00017	0.00024	-4e-05	-0.00022	-0.00018	1e-05	2
6958	2e-05	7e-05	0.00017	0.00024	-4e-05	-0.00022	-0.00018	1e-05	2
6959	2e-05	7e-05	0.00017	0.00024	-4e-05	-0.00022	-0.00018	1e-05	2
6960	2e-05	7e-05	0.00017	0.00024	-4e-05	-0.00022	-0.00018	1e-05	2
6961	2e-05	7e-05	0.00017	0.00024	-4e-05	-0.00022	-0.00018	1e-05	2
6962	2e-05	7e-05	0.00017	0.00024	-4e-05	-0.00022	-0.00018	1e-05	2
6963	2e-05	7e-05	0.00017	0.00024	-4e-05	-0.00022	-0.00018	1e-05	2
6964	2e-05	7e-05	0.00017	0.00024	-4e-05	-0.00022	-0.00018	1e-05	2
6965	2e-05	7e-05	0.00017	0.00024	-4e-05	-0.00022	-0.00018	1e-05	2
6966	-0.00023	-0.0002	-0.00014	1e-05	-0.00034	-0.00035	-0.00025	-0.00013	2
6967	7e-05	0.00024	4e-05	-5e-05	3e-05	0.00037	0.0005	0.00011	2
6968	2e-05	-0.00011	8e-05	0.00025	2e-05	4e-05	-0.00036	9e-05	2
6969	2e-05	-0.00011	8e-05	0.00025	2e-05	4e-05	-0.00036	9e-05	2
6970	2e-05	-0.00011	8e-05	0.00025	2e-05	4e-05	-0.00036	9e-05	2
6971	2e-05	-0.00011	8e-05	0.00025	2e-05	4e-05	-0.00036	9e-05	2
6972	2e-05	-0.00011	8e-05	0.00025	2e-05	4e-05	-0.00036	9e-05	2
6973	2e-05	-0.00011	8e-05	0.00025	2e-05	4e-05	-0.00036	9e-05	2
6974	2e-05	-0.00011	8e-05	0.00025	2e-05	4e-05	-0.00036	9e-05	2
6975	2e-05	-0.00011	8e-05	0.00025	2e-05	4e-05	-0.00036	9e-05	2
6976	2e-05	-0.00011	8e-05	0.00025	2e-05	4e-05	-0.00036	9e-05	2
6977	2e-05	-0.00011	8e-05	0.00025	2e-05	4e-05	-0.00036	9e-05	2
6978	2e-05	-0.00011	8e-05	0.00025	2e-05	4e-05	-0.00036	9e-05	2
6979	2e-05	-0.00011	8e-05	0.00025	2e-05	4e-05	-0.00036	9e-05	2
6980	2e-05	-0.00011	8e-05	0.00025	2e-05	4e-05	-0.00036	9e-05	2
6981	-2e-05	0.00021	0.00015	-0.00044	-0.00023	-0.0001	-0.00027	9e-05	2
6982	-2e-05	0.00021	0.00015	-0.00044	-0.00023	-0.0001	-0.00027	9e-05	2
6983	-2e-05	0.00021	0.00015	-0.00044	-0.00023	-0.0001	-0.00027	9e-05	2
6984	-2e-05	0.00021	0.00015	-0.00044	-0.00023	-0.0001	-0.00027	9e-05	2
6985	-2e-05	0.00021	0.00015	-0.00044	-0.00023	-0.0001	-0.00027	9e-05	2
6986	-2e-05	0.00021	0.00015	-0.00044	-0.00023	-0.0001	-0.00027	9e-05	2
6988	-2e-05	0.00021	0.00015	-0.00044	-0.00023	-0.0001	-0.00027	9e-05	2
6989	-2e-05	0.00021	0.00015	-0.00044	-0.00023	-0.0001	-0.00027	9e-05	2
6990	-2e-05	0.00021	0.00015	-0.00044	-0.00023	-0.0001	-0.00027	9e-05	2
6991	-2e-05	0.00021	0.00015	-0.00044	-0.00023	-0.0001	-0.00027	9e-05	2
6992	-2e-05	0.00021	0.00015	-0.00044	-0.00023	-0.0001	-0.00027	9e-05	2
6993	-2e-05	0.00021	0.00015	-0.00044	-0.00023	-0.0001	-0.00027	9e-05	2
6994	-2e-05	0.00021	0.00015	-0.00044	-0.00023	-0.0001	-0.00027	9e-05	2
6995	-2e-05	0.00021	0.00015	-0.00044	-0.00023	-0.0001	-0.00027	9e-05	2
6996	-2e-05	0.00021	0.00015	-0.00044	-0.00023	-0.0001	-0.00027	9e-05	2
6997	-1e-05	-1e-05	-6e-05	0.0001	3e-05	-1e-05	-8e-05	0	2
6998	-1e-05	-1e-05	-6e-05	0.0001	3e-05	-1e-05	-8e-05	0	2
6999	-1e-05	-1e-05	-6e-05	0.0001	3e-05	-1e-05	-8e-05	0	2
7000	-1e-05	-1e-05	-6e-05	0.0001	3e-05	-1e-05	-8e-05	0	2
7001	-1e-05	-1e-05	-6e-05	0.0001	3e-05	-1e-05	-8e-05	0	2
7002	-1e-05	-1e-05	-6e-05	0.0001	3e-05	-1e-05	-8e-05	0	2
7003	-1e-05	-1e-05	-6e-05	0.0001	3e-05	-1e-05	-8e-05	0	2
7004	0.00013	-0.00047	-0.00011	1e-05	-8e-05	-0.00038	-0.00035	5e-05	2
7005	0.00013	-0.00047	-0.00011	1e-05	-8e-05	-0.00038	-0.00035	5e-05	2
7006	9e-05	4e-05	8e-05	0.00019	-0.0001	-2e-05	-0.00023	0.00024	2
7007	9e-05	4e-05	8e-05	0.00019	-0.0001	-2e-05	-0.00023	0.00024	2
7008	9e-05	4e-05	8e-05	0.00019	-0.0001	-2e-05	-0.00023	0.00024	2
7009	9e-05	4e-05	8e-05	0.00019	-0.0001	-2e-05	-0.00023	0.00024	2
7010	9e-05	4e-05	8e-05	0.00019	-0.0001	-2e-05	-0.00023	0.00024	2
7011	9e-05	4e-05	8e-05	0.00019	-0.0001	-2e-05	-0.00023	0.00024	2
7012	9e-05	4e-05	8e-05	0.00019	-0.0001	-2e-05	-0.00023	0.00024	2
7013	9e-05	4e-05	8e-05	0.00019	-0.0001	-2e-05	-0.00023	0.00024	2
7014	9e-05	4e-05	8e-05	0.00019	-0.0001	-2e-05	-0.00023	0.00024	2
7015	9e-05	4e-05	8e-05	0.00019	-0.0001	-2e-05	-0.00023	0.00024	2
7016	9e-05	4e-05	8e-05	0.00019	-0.0001	-2e-05	-0.00023	0.00024	2
7017	9e-05	4e-05	8e-05	0.00019	-0.0001	-2e-05	-0.00023	0.00024	2
7018	9e-05	4e-05	8e-05	0.00019	-0.0001	-2e-05	-0.00023	0.00024	2
7019	9e-05	4e-05	8e-05	0.00019	-0.0001	-2e-05	-0.00023	0.00024	2
7020	9e-05	4e-05	8e-05	0.00019	-0.0001	-2e-05	-0.00023	0.00024	2
7021	9e-05	4e-05	8e-05	0.00019	-0.0001	-2e-05	-0.00023	0.00024	2
7022	9e-05	4e-05	8e-05	0.00019	-0.0001	-2e-05	-0.00023	0.00024	2
7023	9e-05	4e-05	8e-05	0.00019	-0.0001	-2e-05	-0.00023	0.00024	2
7024	9e-05	4e-05	8e-05	0.00019	-0.0001	-2e-05	-0.00023	0.00024	2
7025	9e-05	4e-05	8e-05	0.00019	-0.0001	-2e-05	-0.00023	0.00024	2
7026	9e-05	4e-05	8e-05	0.00019	-0.0001	-2e-05	-0.00023	0.00024	2
7027	0.00015	0.00015	0.00017	0.00012	2e-05	1e-05	0.00054	7e-05	2
7028	-2e-05	0.00013	-0.00019	-0.00019	-0.0002	-4e-05	0.00014	-2e-05	2
7029	-2e-05	0.00013	-0.00019	-0.00019	-0.0002	-4e-05	0.00014	-2e-05	2
7030	-2e-05	0.00013	-0.00019	-0.00019	-0.0002	-4e-05	0.00014	-2e-05	2
7031	-2e-05	0.00013	-0.00019	-0.00019	-0.0002	-4e-05	0.00014	-2e-05	2
7032	-2e-05	0.00013	-0.00019	-0.00019	-0.0002	-4e-05	0.00014	-2e-05	2
7033	-2e-05	0.00013	-0.00019	-0.00019	-0.0002	-4e-05	0.00014	-2e-05	2
7034	-2e-05	0.00013	-0.00019	-0.00019	-0.0002	-4e-05	0.00014	-2e-05	2
7035	-2e-05	0.00013	-0.00019	-0.00019	-0.0002	-4e-05	0.00014	-2e-05	2
7036	-2e-05	0.00013	-0.00019	-0.00019	-0.0002	-4e-05	0.00014	-2e-05	2
7038	-2e-05	0.00013	-0.00019	-0.00019	-0.0002	-4e-05	0.00014	-2e-05	2
7039	-2e-05	0.00013	-0.00019	-0.00019	-0.0002	-4e-05	0.00014	-2e-05	2
7040	-2e-05	0.00013	-0.00019	-0.00019	-0.0002	-4e-05	0.00014	-2e-05	2
7041	2e-05	0	-0.00016	0.00032	0.0002	-9e-05	-0.00019	7e-05	2
7042	2e-05	0	-0.00016	0.00032	0.0002	-9e-05	-0.00019	7e-05	2
7043	2e-05	0	-0.00016	0.00032	0.0002	-9e-05	-0.00019	7e-05	2
7044	2e-05	0	-0.00016	0.00032	0.0002	-9e-05	-0.00019	7e-05	2
7045	2e-05	0	-0.00016	0.00032	0.0002	-9e-05	-0.00019	7e-05	2
7046	2e-05	0	-0.00016	0.00032	0.0002	-9e-05	-0.00019	7e-05	2
7047	2e-05	0	-0.00016	0.00032	0.0002	-9e-05	-0.00019	7e-05	2
7048	-5e-05	0.00023	-9e-05	-0.00025	-0.00017	2e-05	0.00011	-0.0001	2
7049	-5e-05	0.00023	-9e-05	-0.00025	-0.00017	2e-05	0.00011	-0.0001	2
7050	-5e-05	0.00023	-9e-05	-0.00025	-0.00017	2e-05	0.00011	-0.0001	2
7051	-5e-05	0.00023	-9e-05	-0.00025	-0.00017	2e-05	0.00011	-0.0001	2
7052	-5e-05	0.00023	-9e-05	-0.00025	-0.00017	2e-05	0.00011	-0.0001	2
7053	-5e-05	0.00023	-9e-05	-0.00025	-0.00017	2e-05	0.00011	-0.0001	2
7054	-5e-05	0.00023	-9e-05	-0.00025	-0.00017	2e-05	0.00011	-0.0001	2
7055	-5e-05	0.00023	-9e-05	-0.00025	-0.00017	2e-05	0.00011	-0.0001	2
7056	-5e-05	0.00023	-9e-05	-0.00025	-0.00017	2e-05	0.00011	-0.0001	2
7057	-5e-05	0.00023	-9e-05	-0.00025	-0.00017	2e-05	0.00011	-0.0001	2
7058	-5e-05	0.00023	-9e-05	-0.00025	-0.00017	2e-05	0.00011	-0.0001	2
7059	-5e-05	0.00023	-9e-05	-0.00025	-0.00017	2e-05	0.00011	-0.0001	2
7060	-5e-05	0.00023	-9e-05	-0.00025	-0.00017	2e-05	0.00011	-0.0001	2
7061	-5e-05	0.00023	-9e-05	-0.00025	-0.00017	2e-05	0.00011	-0.0001	2
7062	-5e-05	0.00023	-9e-05	-0.00025	-0.00017	2e-05	0.00011	-0.0001	2
7063	-5e-05	0.00023	-9e-05	-0.00025	-0.00017	2e-05	0.00011	-0.0001	2
7064	-6e-05	-0.00038	2e-05	0.00017	-0.00022	-0.0001	-0.0001	-0.00032	2
7065	-6e-05	-0.00038	2e-05	0.00017	-0.00022	-0.0001	-0.0001	-0.00032	2
7066	0.00027	9e-05	6e-05	5e-05	0.00015	0.00023	0.00014	0.00023	2
7067	0.00027	9e-05	6e-05	5e-05	0.00015	0.00023	0.00014	0.00023	2
7068	0.00027	9e-05	6e-05	5e-05	0.00015	0.00023	0.00014	0.00023	2
7069	0.00027	9e-05	6e-05	5e-05	0.00015	0.00023	0.00014	0.00023	2
7070	0.00027	9e-05	6e-05	5e-05	0.00015	0.00023	0.00014	0.00023	2
7071	0.00027	9e-05	6e-05	5e-05	0.00015	0.00023	0.00014	0.00023	2
7072	0.00027	9e-05	6e-05	5e-05	0.00015	0.00023	0.00014	0.00023	2
7073	0.00027	9e-05	6e-05	5e-05	0.00015	0.00023	0.00014	0.00023	2
7074	0.00027	9e-05	6e-05	5e-05	0.00015	0.00023	0.00014	0.00023	2
7075	0.00027	9e-05	6e-05	5e-05	0.00015	0.00023	0.00014	0.00023	2
7076	0.00027	9e-05	6e-05	5e-05	0.00015	0.00023	0.00014	0.00023	2
7077	0.00027	9e-05	6e-05	5e-05	0.00015	0.00023	0.00014	0.00023	2
7078	0.00027	9e-05	6e-05	5e-05	0.00015	0.00023	0.00014	0.00023	2
7079	0.00027	9e-05	6e-05	5e-05	0.00015	0.00023	0.00014	0.00023	2
7080	0.00027	9e-05	6e-05	5e-05	0.00015	0.00023	0.00014	0.00023	2
7081	0.00027	9e-05	6e-05	5e-05	0.00015	0.00023	0.00014	0.00023	2
7082	0.00027	9e-05	6e-05	5e-05	0.00015	0.00023	0.00014	0.00023	2
7083	0.00027	9e-05	6e-05	5e-05	0.00015	0.00023	0.00014	0.00023	2
7084	0.00027	9e-05	6e-05	5e-05	0.00015	0.00023	0.00014	0.00023	2
7085	0.00027	9e-05	6e-05	5e-05	0.00015	0.00023	0.00014	0.00023	2
7086	-0.00018	-0.00018	-0.00024	-0.00018	-0.00012	-0.00016	0.00044	-0.00013	2
7089	0.00019	0.00012	0.00016	-0.00014	6e-05	8e-05	0.00033	0	2
7090	0.00019	0.00012	0.00016	-0.00014	6e-05	8e-05	0.00033	0	2
7091	0.00019	0.00012	0.00016	-0.00014	6e-05	8e-05	0.00033	0	2
7092	0.00019	0.00012	0.00016	-0.00014	6e-05	8e-05	0.00033	0	2
7093	0.00019	0.00012	0.00016	-0.00014	6e-05	8e-05	0.00033	0	2
7094	0.00019	0.00012	0.00016	-0.00014	6e-05	8e-05	0.00033	0	2
7095	0.00019	0.00012	0.00016	-0.00014	6e-05	8e-05	0.00033	0	2
7096	0.00019	0.00012	0.00016	-0.00014	6e-05	8e-05	0.00033	0	2
7097	0.00019	0.00012	0.00016	-0.00014	6e-05	8e-05	0.00033	0	2
7098	0.00019	0.00012	0.00016	-0.00014	6e-05	8e-05	0.00033	0	2
7099	0.00019	0.00012	0.00016	-0.00014	6e-05	8e-05	0.00033	0	2
7100	8e-05	0.00043	8e-05	0.00024	0.00027	0.0003	3e-05	7e-05	2
7101	8e-05	0.00043	8e-05	0.00024	0.00027	0.0003	3e-05	7e-05	2
7102	8e-05	0.00043	8e-05	0.00024	0.00027	0.0003	3e-05	7e-05	2
7103	8e-05	0.00043	8e-05	0.00024	0.00027	0.0003	3e-05	7e-05	2
7104	8e-05	0.00043	8e-05	0.00024	0.00027	0.0003	3e-05	7e-05	2
7105	8e-05	0.00043	8e-05	0.00024	0.00027	0.0003	3e-05	7e-05	2
7106	8e-05	0.00043	8e-05	0.00024	0.00027	0.0003	3e-05	7e-05	2
7107	8e-05	0.00043	8e-05	0.00024	0.00027	0.0003	3e-05	7e-05	2
7108	8e-05	0.00043	8e-05	0.00024	0.00027	0.0003	3e-05	7e-05	2
7109	-0.00012	4e-05	-8e-05	5e-05	-0.00011	-0.00056	-0.00099	-0.00028	2
7110	-0.00012	4e-05	-8e-05	5e-05	-0.00011	-0.00056	-0.00099	-0.00028	2
7111	-0.00012	4e-05	-8e-05	5e-05	-0.00011	-0.00056	-0.00099	-0.00028	2
7112	-0.00012	4e-05	-8e-05	5e-05	-0.00011	-0.00056	-0.00099	-0.00028	2
7113	-0.00012	4e-05	-8e-05	5e-05	-0.00011	-0.00056	-0.00099	-0.00028	2
7114	-0.00012	4e-05	-8e-05	5e-05	-0.00011	-0.00056	-0.00099	-0.00028	2
7115	-0.00012	4e-05	-8e-05	5e-05	-0.00011	-0.00056	-0.00099	-0.00028	2
7116	-0.00012	4e-05	-8e-05	5e-05	-0.00011	-0.00056	-0.00099	-0.00028	2
7117	-0.00012	4e-05	-8e-05	5e-05	-0.00011	-0.00056	-0.00099	-0.00028	2
7118	-0.00012	4e-05	-8e-05	5e-05	-0.00011	-0.00056	-0.00099	-0.00028	2
7119	-0.00012	4e-05	-8e-05	5e-05	-0.00011	-0.00056	-0.00099	-0.00028	2
7120	-0.00012	4e-05	-8e-05	5e-05	-0.00011	-0.00056	-0.00099	-0.00028	2
7121	-0.00012	4e-05	-8e-05	5e-05	-0.00011	-0.00056	-0.00099	-0.00028	2
7122	-0.00012	4e-05	-8e-05	5e-05	-0.00011	-0.00056	-0.00099	-0.00028	2
7123	-0.00012	4e-05	-8e-05	5e-05	-0.00011	-0.00056	-0.00099	-0.00028	2
7124	5e-05	0.00014	-1e-05	8e-05	6e-05	-7e-05	-0.00033	-4e-05	2
7125	5e-05	0.00014	-1e-05	8e-05	6e-05	-7e-05	-0.00033	-4e-05	2
7126	-0.0001	-0.00029	0	0.00033	5e-05	8e-05	9e-05	-8e-05	2
7127	-0.0001	-0.00029	0	0.00033	5e-05	8e-05	9e-05	-8e-05	2
7128	-0.0001	-0.00029	0	0.00033	5e-05	8e-05	9e-05	-8e-05	2
7129	-0.0001	-0.00029	0	0.00033	5e-05	8e-05	9e-05	-8e-05	2
7130	-0.0001	-0.00029	0	0.00033	5e-05	8e-05	9e-05	-8e-05	2
7131	-0.0001	-0.00029	0	0.00033	5e-05	8e-05	9e-05	-8e-05	2
7132	-0.0001	-0.00029	0	0.00033	5e-05	8e-05	9e-05	-8e-05	2
7133	-0.0001	-0.00029	0	0.00033	5e-05	8e-05	9e-05	-8e-05	2
7134	-0.0001	-0.00029	0	0.00033	5e-05	8e-05	9e-05	-8e-05	2
7135	-0.0001	-0.00029	0	0.00033	5e-05	8e-05	9e-05	-8e-05	2
7136	-0.0001	-0.00029	0	0.00033	5e-05	8e-05	9e-05	-8e-05	2
7139	-0.0001	-0.00029	0	0.00033	5e-05	8e-05	9e-05	-8e-05	2
7140	-0.0001	-0.00029	0	0.00033	5e-05	8e-05	9e-05	-8e-05	2
7141	-0.0001	-0.00029	0	0.00033	5e-05	8e-05	9e-05	-8e-05	2
7142	-0.0001	-0.00029	0	0.00033	5e-05	8e-05	9e-05	-8e-05	2
7143	-0.0001	-0.00029	0	0.00033	5e-05	8e-05	9e-05	-8e-05	2
7144	-0.0001	-0.00029	0	0.00033	5e-05	8e-05	9e-05	-8e-05	2
7145	-0.0001	-0.00029	0	0.00033	5e-05	8e-05	9e-05	-8e-05	2
7146	-0.0001	-0.00029	0	0.00033	5e-05	8e-05	9e-05	-8e-05	2
7147	-0.0001	-0.00029	0	0.00033	5e-05	8e-05	9e-05	-8e-05	2
7148	-0.0001	-0.00029	0	0.00033	5e-05	8e-05	9e-05	-8e-05	2
7149	-0.0001	-0.00029	0	0.00033	5e-05	8e-05	9e-05	-8e-05	2
7150	-0.0001	-0.00029	0	0.00033	5e-05	8e-05	9e-05	-8e-05	2
7151	-0.0001	-0.00029	0	0.00033	5e-05	8e-05	9e-05	-8e-05	2
7152	-0.0001	-0.00029	0	0.00033	5e-05	8e-05	9e-05	-8e-05	2
7153	-0.0001	-0.00029	0	0.00033	5e-05	8e-05	9e-05	-8e-05	2
7154	-0.0001	-0.00029	0	0.00033	5e-05	8e-05	9e-05	-8e-05	2
7155	-0.00012	0.00012	-2e-05	-7e-05	7e-05	0.00016	-4e-05	9e-05	2
7156	0.00027	-0.00019	2e-05	0.00012	-9e-05	0.00016	0.00056	0.00019	2
7157	0.00027	-0.00019	2e-05	0.00012	-9e-05	0.00016	0.00056	0.00019	2
7158	0.00027	-0.00019	2e-05	0.00012	-9e-05	0.00016	0.00056	0.00019	2
7159	0.00027	-0.00019	2e-05	0.00012	-9e-05	0.00016	0.00056	0.00019	2
7160	-0.00016	6e-05	-6e-05	-0.00025	-0.00016	-0.00013	0.00021	-0.00012	2
7161	-0.00016	6e-05	-6e-05	-0.00025	-0.00016	-0.00013	0.00021	-0.00012	2
7162	-0.00016	6e-05	-6e-05	-0.00025	-0.00016	-0.00013	0.00021	-0.00012	2
7163	-0.00016	6e-05	-6e-05	-0.00025	-0.00016	-0.00013	0.00021	-0.00012	2
7164	-0.00016	6e-05	-6e-05	-0.00025	-0.00016	-0.00013	0.00021	-0.00012	2
7165	-0.00016	6e-05	-6e-05	-0.00025	-0.00016	-0.00013	0.00021	-0.00012	2
7166	-0.00016	6e-05	-6e-05	-0.00025	-0.00016	-0.00013	0.00021	-0.00012	2
7167	-0.00016	6e-05	-6e-05	-0.00025	-0.00016	-0.00013	0.00021	-0.00012	2
7168	-0.00016	6e-05	-6e-05	-0.00025	-0.00016	-0.00013	0.00021	-0.00012	2
7169	0.00013	0.00025	-7e-05	-8e-05	4e-05	-0.00021	0.00015	0.00012	2
7170	0.00013	0.00025	-7e-05	-8e-05	4e-05	-0.00021	0.00015	0.00012	2
7171	0.00013	0.00025	-7e-05	-8e-05	4e-05	-0.00021	0.00015	0.00012	2
7172	0.00013	0.00025	-7e-05	-8e-05	4e-05	-0.00021	0.00015	0.00012	2
7173	0.00013	0.00025	-7e-05	-8e-05	4e-05	-0.00021	0.00015	0.00012	2
7174	0.00013	0.00025	-7e-05	-8e-05	4e-05	-0.00021	0.00015	0.00012	2
7175	0.00013	0.00025	-7e-05	-8e-05	4e-05	-0.00021	0.00015	0.00012	2
7176	0.00013	0.00025	-7e-05	-8e-05	4e-05	-0.00021	0.00015	0.00012	2
7177	0.00013	0.00025	-7e-05	-8e-05	4e-05	-0.00021	0.00015	0.00012	2
7178	0.00013	0.00025	-7e-05	-8e-05	4e-05	-0.00021	0.00015	0.00012	2
7179	0.00013	0.00025	-7e-05	-8e-05	4e-05	-0.00021	0.00015	0.00012	2
7180	0.00013	0.00025	-7e-05	-8e-05	4e-05	-0.00021	0.00015	0.00012	2
7181	0.00013	0.00025	-7e-05	-8e-05	4e-05	-0.00021	0.00015	0.00012	2
7182	0.00013	0.00025	-7e-05	-8e-05	4e-05	-0.00021	0.00015	0.00012	2
7183	0.00013	0.00025	-7e-05	-8e-05	4e-05	-0.00021	0.00015	0.00012	2
7184	-0.00024	-0.00015	-0.00018	5e-05	-0.00018	-6e-05	-0.0002	-0.00017	2
7185	-3e-05	-0.00041	-5e-05	-0.00016	0.00021	0.00012	-5e-05	-2e-05	2
7186	-0.00024	0.00015	0.00029	0.00027	-4e-05	0.00025	-0.00013	5e-05	2
7189	-0.00024	0.00015	0.00029	0.00027	-4e-05	0.00025	-0.00013	5e-05	2
7190	-0.00024	0.00015	0.00029	0.00027	-4e-05	0.00025	-0.00013	5e-05	2
7191	-0.00024	0.00015	0.00029	0.00027	-4e-05	0.00025	-0.00013	5e-05	2
7192	-0.00024	0.00015	0.00029	0.00027	-4e-05	0.00025	-0.00013	5e-05	2
7193	-0.00024	0.00015	0.00029	0.00027	-4e-05	0.00025	-0.00013	5e-05	2
7194	-0.00024	0.00015	0.00029	0.00027	-4e-05	0.00025	-0.00013	5e-05	2
7195	-0.00024	0.00015	0.00029	0.00027	-4e-05	0.00025	-0.00013	5e-05	2
7196	-0.00024	0.00015	0.00029	0.00027	-4e-05	0.00025	-0.00013	5e-05	2
7197	-0.00024	0.00015	0.00029	0.00027	-4e-05	0.00025	-0.00013	5e-05	2
7198	-0.00024	0.00015	0.00029	0.00027	-4e-05	0.00025	-0.00013	5e-05	2
7199	-0.00024	0.00015	0.00029	0.00027	-4e-05	0.00025	-0.00013	5e-05	2
7200	-0.00024	0.00015	0.00029	0.00027	-4e-05	0.00025	-0.00013	5e-05	2
7201	-0.00024	0.00015	0.00029	0.00027	-4e-05	0.00025	-0.00013	5e-05	2
7202	-0.00024	0.00015	0.00029	0.00027	-4e-05	0.00025	-0.00013	5e-05	2
7203	-0.00024	0.00015	0.00029	0.00027	-4e-05	0.00025	-0.00013	5e-05	2
7204	-0.00024	0.00015	0.00029	0.00027	-4e-05	0.00025	-0.00013	5e-05	2
7205	-0.00024	0.00015	0.00029	0.00027	-4e-05	0.00025	-0.00013	5e-05	2
7206	-0.00013	-0.00018	0	1e-05	0.00011	-5e-05	0.00026	7e-05	2
7207	0.00019	0.00034	0.00017	0.00022	0.00027	8e-05	-0.00033	-0.00016	2
7208	0.00018	0.00028	-0.0001	-0.00018	-0.00035	-4e-05	0.00021	-3e-05	2
7209	0.00018	0.00028	-0.0001	-0.00018	-0.00035	-4e-05	0.00021	-3e-05	2
7210	0.00018	0.00028	-0.0001	-0.00018	-0.00035	-4e-05	0.00021	-3e-05	2
7211	0.00018	0.00028	-0.0001	-0.00018	-0.00035	-4e-05	0.00021	-3e-05	2
7212	0.00018	0.00028	-0.0001	-0.00018	-0.00035	-4e-05	0.00021	-3e-05	2
7213	0.00018	0.00028	-0.0001	-0.00018	-0.00035	-4e-05	0.00021	-3e-05	2
7214	0.00018	0.00028	-0.0001	-0.00018	-0.00035	-4e-05	0.00021	-3e-05	2
7215	0.00018	0.00028	-0.0001	-0.00018	-0.00035	-4e-05	0.00021	-3e-05	2
7216	0.00018	0.00028	-0.0001	-0.00018	-0.00035	-4e-05	0.00021	-3e-05	2
7217	0.00018	0.00028	-0.0001	-0.00018	-0.00035	-4e-05	0.00021	-3e-05	2
7218	0.00018	0.00028	-0.0001	-0.00018	-0.00035	-4e-05	0.00021	-3e-05	2
7219	0.00018	0.00028	-0.0001	-0.00018	-0.00035	-4e-05	0.00021	-3e-05	2
7220	-0.00028	-0.00023	-0.00023	-0.00019	-0.0001	-0.00015	0.00029	1e-05	2
7221	-0.00028	-0.00023	-0.00023	-0.00019	-0.0001	-0.00015	0.00029	1e-05	2
7222	-0.00028	-0.00023	-0.00023	-0.00019	-0.0001	-0.00015	0.00029	1e-05	2
7223	-0.00028	-0.00023	-0.00023	-0.00019	-0.0001	-0.00015	0.00029	1e-05	2
7224	-0.00028	-0.00023	-0.00023	-0.00019	-0.0001	-0.00015	0.00029	1e-05	2
7225	-0.00028	-0.00023	-0.00023	-0.00019	-0.0001	-0.00015	0.00029	1e-05	2
7226	-0.00028	-0.00023	-0.00023	-0.00019	-0.0001	-0.00015	0.00029	1e-05	2
7227	-0.00028	-0.00023	-0.00023	-0.00019	-0.0001	-0.00015	0.00029	1e-05	2
7228	-0.00028	-0.00023	-0.00023	-0.00019	-0.0001	-0.00015	0.00029	1e-05	2
7229	-0.00033	-0.00021	-0.00034	-0.00036	-0.00033	-0.00019	-0.00012	-0.00022	2
7230	-0.00033	-0.00021	-0.00034	-0.00036	-0.00033	-0.00019	-0.00012	-0.00022	2
7231	-0.00033	-0.00021	-0.00034	-0.00036	-0.00033	-0.00019	-0.00012	-0.00022	2
7232	-0.00033	-0.00021	-0.00034	-0.00036	-0.00033	-0.00019	-0.00012	-0.00022	2
7233	-0.00033	-0.00021	-0.00034	-0.00036	-0.00033	-0.00019	-0.00012	-0.00022	2
7234	-0.00033	-0.00021	-0.00034	-0.00036	-0.00033	-0.00019	-0.00012	-0.00022	2
7235	-0.00033	-0.00021	-0.00034	-0.00036	-0.00033	-0.00019	-0.00012	-0.00022	2
7236	-0.00033	-0.00021	-0.00034	-0.00036	-0.00033	-0.00019	-0.00012	-0.00022	2
7239	-0.00033	-0.00021	-0.00034	-0.00036	-0.00033	-0.00019	-0.00012	-0.00022	2
7240	-0.00033	-0.00021	-0.00034	-0.00036	-0.00033	-0.00019	-0.00012	-0.00022	2
7241	-0.00033	-0.00021	-0.00034	-0.00036	-0.00033	-0.00019	-0.00012	-0.00022	2
7242	-0.00033	-0.00021	-0.00034	-0.00036	-0.00033	-0.00019	-0.00012	-0.00022	2
7243	-0.00033	-0.00021	-0.00034	-0.00036	-0.00033	-0.00019	-0.00012	-0.00022	2
7244	0.00012	-3e-05	8e-05	0.00021	0.00015	-1e-05	-0.00063	-3e-05	2
7245	0.00012	-3e-05	8e-05	0.00021	0.00015	-1e-05	-0.00063	-3e-05	2
7246	-0.00028	-0.00037	0.0001	7e-05	3e-05	2e-05	-0.00055	-0.00031	2
7247	-0.00028	-0.00037	0.0001	7e-05	3e-05	2e-05	-0.00055	-0.00031	2
7248	-0.00028	-0.00037	0.0001	7e-05	3e-05	2e-05	-0.00055	-0.00031	2
7249	-0.00028	-0.00037	0.0001	7e-05	3e-05	2e-05	-0.00055	-0.00031	2
7250	-0.00028	-0.00037	0.0001	7e-05	3e-05	2e-05	-0.00055	-0.00031	2
7251	-0.00028	-0.00037	0.0001	7e-05	3e-05	2e-05	-0.00055	-0.00031	2
7252	-0.00028	-0.00037	0.0001	7e-05	3e-05	2e-05	-0.00055	-0.00031	2
7253	-0.00028	-0.00037	0.0001	7e-05	3e-05	2e-05	-0.00055	-0.00031	2
7254	-0.00028	-0.00037	0.0001	7e-05	3e-05	2e-05	-0.00055	-0.00031	2
7255	-0.00028	-0.00037	0.0001	7e-05	3e-05	2e-05	-0.00055	-0.00031	2
7256	-0.00028	-0.00037	0.0001	7e-05	3e-05	2e-05	-0.00055	-0.00031	2
7257	-0.00028	-0.00037	0.0001	7e-05	3e-05	2e-05	-0.00055	-0.00031	2
7258	-0.00028	-0.00037	0.0001	7e-05	3e-05	2e-05	-0.00055	-0.00031	2
7259	-0.00028	-0.00037	0.0001	7e-05	3e-05	2e-05	-0.00055	-0.00031	2
7260	-0.00028	-0.00037	0.0001	7e-05	3e-05	2e-05	-0.00055	-0.00031	2
7261	-0.00028	-0.00037	0.0001	7e-05	3e-05	2e-05	-0.00055	-0.00031	2
7262	-0.00028	-0.00037	0.0001	7e-05	3e-05	2e-05	-0.00055	-0.00031	2
7263	-0.00028	-0.00037	0.0001	7e-05	3e-05	2e-05	-0.00055	-0.00031	2
7264	-0.00028	-0.00037	0.0001	7e-05	3e-05	2e-05	-0.00055	-0.00031	2
7265	-0.00028	-0.00037	0.0001	7e-05	3e-05	2e-05	-0.00055	-0.00031	2
7266	-0.00028	-0.00037	0.0001	7e-05	3e-05	2e-05	-0.00055	-0.00031	2
7267	0.00039	0	-0.00012	-0.00019	-0.0002	-0.00014	0.00023	2e-05	2
7268	0.00039	0	-0.00012	-0.00019	-0.0002	-0.00014	0.00023	2e-05	2
7269	-0.00012	-0.00025	-6e-05	0	0.00037	0.00019	-0.00016	-2e-05	2
7270	-0.00012	-0.00025	-6e-05	0	0.00037	0.00019	-0.00016	-2e-05	2
7271	-0.00012	-0.00025	-6e-05	0	0.00037	0.00019	-0.00016	-2e-05	2
7272	-0.00012	-0.00025	-6e-05	0	0.00037	0.00019	-0.00016	-2e-05	2
7273	-0.00012	-0.00025	-6e-05	0	0.00037	0.00019	-0.00016	-2e-05	2
7274	-0.00012	-0.00025	-6e-05	0	0.00037	0.00019	-0.00016	-2e-05	2
7275	-0.00012	-0.00025	-6e-05	0	0.00037	0.00019	-0.00016	-2e-05	2
7276	-0.00012	-0.00025	-6e-05	0	0.00037	0.00019	-0.00016	-2e-05	2
7277	-0.00012	-0.00025	-6e-05	0	0.00037	0.00019	-0.00016	-2e-05	2
7278	-0.00012	-0.00025	-6e-05	0	0.00037	0.00019	-0.00016	-2e-05	2
7279	-0.00012	-0.00025	-6e-05	0	0.00037	0.00019	-0.00016	-2e-05	2
7280	0.00018	-0.00012	-0.00029	-0.00033	-0.0003	-0.00015	0.00037	8e-05	2
7281	0.00018	-0.00012	-0.00029	-0.00033	-0.0003	-0.00015	0.00037	8e-05	2
7282	0.00018	-0.00012	-0.00029	-0.00033	-0.0003	-0.00015	0.00037	8e-05	2
7283	0.00018	-0.00012	-0.00029	-0.00033	-0.0003	-0.00015	0.00037	8e-05	2
7284	0.00018	-0.00012	-0.00029	-0.00033	-0.0003	-0.00015	0.00037	8e-05	2
7285	0.00018	-0.00012	-0.00029	-0.00033	-0.0003	-0.00015	0.00037	8e-05	2
7286	0.00018	-0.00012	-0.00029	-0.00033	-0.0003	-0.00015	0.00037	8e-05	2
7289	0.00018	-0.00012	-0.00029	-0.00033	-0.0003	-0.00015	0.00037	8e-05	2
7290	0.00018	-0.00012	-0.00029	-0.00033	-0.0003	-0.00015	0.00037	8e-05	2
7291	0.00018	-0.00012	-0.00029	-0.00033	-0.0003	-0.00015	0.00037	8e-05	2
7292	0.00018	-0.00012	-0.00029	-0.00033	-0.0003	-0.00015	0.00037	8e-05	2
7293	0.00018	-0.00012	-0.00029	-0.00033	-0.0003	-0.00015	0.00037	8e-05	2
7294	0.00018	-0.00012	-0.00029	-0.00033	-0.0003	-0.00015	0.00037	8e-05	2
7295	0.00018	-0.00012	-0.00029	-0.00033	-0.0003	-0.00015	0.00037	8e-05	2
7296	0.00018	-0.00012	-0.00029	-0.00033	-0.0003	-0.00015	0.00037	8e-05	2
7297	-2e-05	0.00022	0.00015	0	2e-05	-6e-05	0.00017	4e-05	2
7298	-2e-05	0.00022	0.00015	0	2e-05	-6e-05	0.00017	4e-05	2
7299	-2e-05	0.00022	0.00015	0	2e-05	-6e-05	0.00017	4e-05	2
7300	-2e-05	0.00022	0.00015	0	2e-05	-6e-05	0.00017	4e-05	2
7301	-2e-05	0.00022	0.00015	0	2e-05	-6e-05	0.00017	4e-05	2
7302	-2e-05	0.00022	0.00015	0	2e-05	-6e-05	0.00017	4e-05	2
7303	-2e-05	0.00022	0.00015	0	2e-05	-6e-05	0.00017	4e-05	2
7304	6e-05	-4e-05	-9e-05	-0.00013	5e-05	8e-05	0.00011	5e-05	2
7305	6e-05	-4e-05	-9e-05	-0.00013	5e-05	8e-05	0.00011	5e-05	2
7306	-0.00024	-7e-05	0.0003	0.00029	0.00023	-5e-05	7e-05	-0.00015	2
7307	-0.00024	-7e-05	0.0003	0.00029	0.00023	-5e-05	7e-05	-0.00015	2
7308	-0.00024	-7e-05	0.0003	0.00029	0.00023	-5e-05	7e-05	-0.00015	2
7309	-0.00024	-7e-05	0.0003	0.00029	0.00023	-5e-05	7e-05	-0.00015	2
7310	-0.00024	-7e-05	0.0003	0.00029	0.00023	-5e-05	7e-05	-0.00015	2
7311	-0.00024	-7e-05	0.0003	0.00029	0.00023	-5e-05	7e-05	-0.00015	2
7312	-0.00024	-7e-05	0.0003	0.00029	0.00023	-5e-05	7e-05	-0.00015	2
7313	-0.00024	-7e-05	0.0003	0.00029	0.00023	-5e-05	7e-05	-0.00015	2
7314	-0.00024	-7e-05	0.0003	0.00029	0.00023	-5e-05	7e-05	-0.00015	2
7315	-0.00024	-7e-05	0.0003	0.00029	0.00023	-5e-05	7e-05	-0.00015	2
7316	-0.00024	-7e-05	0.0003	0.00029	0.00023	-5e-05	7e-05	-0.00015	2
7317	-0.00024	-7e-05	0.0003	0.00029	0.00023	-5e-05	7e-05	-0.00015	2
7318	-0.00024	-7e-05	0.0003	0.00029	0.00023	-5e-05	7e-05	-0.00015	2
7319	-0.00024	-7e-05	0.0003	0.00029	0.00023	-5e-05	7e-05	-0.00015	2
7320	-0.00024	-7e-05	0.0003	0.00029	0.00023	-5e-05	7e-05	-0.00015	2
7321	-0.00024	-7e-05	0.0003	0.00029	0.00023	-5e-05	7e-05	-0.00015	2
7322	-0.00024	-7e-05	0.0003	0.00029	0.00023	-5e-05	7e-05	-0.00015	2
7323	-0.00024	-7e-05	0.0003	0.00029	0.00023	-5e-05	7e-05	-0.00015	2
7324	-0.00024	-7e-05	0.0003	0.00029	0.00023	-5e-05	7e-05	-0.00015	2
7325	-0.00024	-7e-05	0.0003	0.00029	0.00023	-5e-05	7e-05	-0.00015	2
7326	6e-05	3e-05	-0.00022	-0.00033	-0.00017	-1e-05	7e-05	7e-05	2
7327	-0.00011	-0.00012	-0.00019	-0.00018	-0.00021	-0.00022	-0.00025	-0.00023	2
7328	-8e-05	-0.00015	-4e-05	-6e-05	-0.0002	-0.0001	-0.00016	3e-05	2
7329	-8e-05	-0.00015	-4e-05	-6e-05	-0.0002	-0.0001	-0.00016	3e-05	2
7330	-8e-05	-0.00015	-4e-05	-6e-05	-0.0002	-0.0001	-0.00016	3e-05	2
7331	-8e-05	-0.00015	-4e-05	-6e-05	-0.0002	-0.0001	-0.00016	3e-05	2
7332	-8e-05	-0.00015	-4e-05	-6e-05	-0.0002	-0.0001	-0.00016	3e-05	2
7333	-8e-05	-0.00015	-4e-05	-6e-05	-0.0002	-0.0001	-0.00016	3e-05	2
7334	-8e-05	-0.00015	-4e-05	-6e-05	-0.0002	-0.0001	-0.00016	3e-05	2
7335	-8e-05	-0.00015	-4e-05	-6e-05	-0.0002	-0.0001	-0.00016	3e-05	2
7336	-8e-05	-0.00015	-4e-05	-6e-05	-0.0002	-0.0001	-0.00016	3e-05	2
7338	-8e-05	-0.00015	-4e-05	-6e-05	-0.0002	-0.0001	-0.00016	3e-05	2
7339	-8e-05	-0.00015	-4e-05	-6e-05	-0.0002	-0.0001	-0.00016	3e-05	2
7340	-0.00025	5e-05	0.00011	0.00018	-3e-05	-0.00017	-0.00073	-0.00026	2
7341	-0.00025	5e-05	0.00011	0.00018	-3e-05	-0.00017	-0.00073	-0.00026	2
7342	-0.00025	5e-05	0.00011	0.00018	-3e-05	-0.00017	-0.00073	-0.00026	2
7343	-0.00025	5e-05	0.00011	0.00018	-3e-05	-0.00017	-0.00073	-0.00026	2
7344	-0.00025	5e-05	0.00011	0.00018	-3e-05	-0.00017	-0.00073	-0.00026	2
7345	-0.00025	5e-05	0.00011	0.00018	-3e-05	-0.00017	-0.00073	-0.00026	2
7346	-0.00025	5e-05	0.00011	0.00018	-3e-05	-0.00017	-0.00073	-0.00026	2
7347	-0.00025	5e-05	0.00011	0.00018	-3e-05	-0.00017	-0.00073	-0.00026	2
7348	-0.00025	5e-05	0.00011	0.00018	-3e-05	-0.00017	-0.00073	-0.00026	2
7349	4e-05	-0.00041	-3e-05	0.00014	0.00049	0.00049	0.00125	0.00027	2
7350	4e-05	-0.00041	-3e-05	0.00014	0.00049	0.00049	0.00125	0.00027	2
7351	4e-05	-0.00041	-3e-05	0.00014	0.00049	0.00049	0.00125	0.00027	2
7352	4e-05	-0.00041	-3e-05	0.00014	0.00049	0.00049	0.00125	0.00027	2
7353	4e-05	-0.00041	-3e-05	0.00014	0.00049	0.00049	0.00125	0.00027	2
7354	4e-05	-0.00041	-3e-05	0.00014	0.00049	0.00049	0.00125	0.00027	2
7355	4e-05	-0.00041	-3e-05	0.00014	0.00049	0.00049	0.00125	0.00027	2
7356	4e-05	-0.00041	-3e-05	0.00014	0.00049	0.00049	0.00125	0.00027	2
7357	4e-05	-0.00041	-3e-05	0.00014	0.00049	0.00049	0.00125	0.00027	2
7358	4e-05	-0.00041	-3e-05	0.00014	0.00049	0.00049	0.00125	0.00027	2
7359	4e-05	-0.00041	-3e-05	0.00014	0.00049	0.00049	0.00125	0.00027	2
7360	4e-05	-0.00041	-3e-05	0.00014	0.00049	0.00049	0.00125	0.00027	2
7361	4e-05	-0.00041	-3e-05	0.00014	0.00049	0.00049	0.00125	0.00027	2
7362	4e-05	-0.00041	-3e-05	0.00014	0.00049	0.00049	0.00125	0.00027	2
7363	4e-05	-0.00041	-3e-05	0.00014	0.00049	0.00049	0.00125	0.00027	2
7364	3e-05	0.00013	8e-05	-3e-05	-0.00049	1e-05	0.00015	8e-05	2
7365	3e-05	0.00013	8e-05	-3e-05	-0.00049	1e-05	0.00015	8e-05	2
7366	0.00012	3e-05	-4e-05	2e-05	-0.0002	-6e-05	-0.00011	5e-05	2
7367	0.00012	3e-05	-4e-05	2e-05	-0.0002	-6e-05	-0.00011	5e-05	2
7368	0.00012	3e-05	-4e-05	2e-05	-0.0002	-6e-05	-0.00011	5e-05	2
7369	0.00012	3e-05	-4e-05	2e-05	-0.0002	-6e-05	-0.00011	5e-05	2
7370	0.00012	3e-05	-4e-05	2e-05	-0.0002	-6e-05	-0.00011	5e-05	2
7371	0.00012	3e-05	-4e-05	2e-05	-0.0002	-6e-05	-0.00011	5e-05	2
7372	0.00012	3e-05	-4e-05	2e-05	-0.0002	-6e-05	-0.00011	5e-05	2
7373	0.00012	3e-05	-4e-05	2e-05	-0.0002	-6e-05	-0.00011	5e-05	2
7374	0.00012	3e-05	-4e-05	2e-05	-0.0002	-6e-05	-0.00011	5e-05	2
7375	0.00012	3e-05	-4e-05	2e-05	-0.0002	-6e-05	-0.00011	5e-05	2
7376	0.00012	3e-05	-4e-05	2e-05	-0.0002	-6e-05	-0.00011	5e-05	2
7377	0.00012	3e-05	-4e-05	2e-05	-0.0002	-6e-05	-0.00011	5e-05	2
7378	0.00012	3e-05	-4e-05	2e-05	-0.0002	-6e-05	-0.00011	5e-05	2
7379	0.00012	3e-05	-4e-05	2e-05	-0.0002	-6e-05	-0.00011	5e-05	2
7380	0.00012	3e-05	-4e-05	2e-05	-0.0002	-6e-05	-0.00011	5e-05	2
7381	0.00012	3e-05	-4e-05	2e-05	-0.0002	-6e-05	-0.00011	5e-05	2
7382	0.00012	3e-05	-4e-05	2e-05	-0.0002	-6e-05	-0.00011	5e-05	2
7383	0.00012	3e-05	-4e-05	2e-05	-0.0002	-6e-05	-0.00011	5e-05	2
7384	0.00012	3e-05	-4e-05	2e-05	-0.0002	-6e-05	-0.00011	5e-05	2
7385	0.00012	3e-05	-4e-05	2e-05	-0.0002	-6e-05	-0.00011	5e-05	2
7386	0.00012	3e-05	-4e-05	2e-05	-0.0002	-6e-05	-0.00011	5e-05	2
7389	3e-05	0.00015	-2e-05	-3e-05	-6e-05	0.0004	0.00016	8e-05	2
7390	3e-05	0.00015	-2e-05	-3e-05	-6e-05	0.0004	0.00016	8e-05	2
7391	3e-05	0.00015	-2e-05	-3e-05	-6e-05	0.0004	0.00016	8e-05	2
7392	3e-05	0.00015	-2e-05	-3e-05	-6e-05	0.0004	0.00016	8e-05	2
7393	3e-05	0.00015	-2e-05	-3e-05	-6e-05	0.0004	0.00016	8e-05	2
7394	3e-05	0.00015	-2e-05	-3e-05	-6e-05	0.0004	0.00016	8e-05	2
7395	3e-05	0.00015	-2e-05	-3e-05	-6e-05	0.0004	0.00016	8e-05	2
7396	3e-05	0.00015	-2e-05	-3e-05	-6e-05	0.0004	0.00016	8e-05	2
7397	3e-05	0.00015	-2e-05	-3e-05	-6e-05	0.0004	0.00016	8e-05	2
7398	3e-05	0.00015	-2e-05	-3e-05	-6e-05	0.0004	0.00016	8e-05	2
7399	3e-05	0.00015	-2e-05	-3e-05	-6e-05	0.0004	0.00016	8e-05	2
7400	0.00034	0.00025	0.00018	-1e-05	0.00021	0.0002	0.00042	0.00018	2
7401	0.00034	0.00025	0.00018	-1e-05	0.00021	0.0002	0.00042	0.00018	2
7402	0.00034	0.00025	0.00018	-1e-05	0.00021	0.0002	0.00042	0.00018	2
7403	0.00034	0.00025	0.00018	-1e-05	0.00021	0.0002	0.00042	0.00018	2
7404	0.00034	0.00025	0.00018	-1e-05	0.00021	0.0002	0.00042	0.00018	2
7405	0.00034	0.00025	0.00018	-1e-05	0.00021	0.0002	0.00042	0.00018	2
7406	0.00034	0.00025	0.00018	-1e-05	0.00021	0.0002	0.00042	0.00018	2
7407	0.00034	0.00025	0.00018	-1e-05	0.00021	0.0002	0.00042	0.00018	2
7408	0.00034	0.00025	0.00018	-1e-05	0.00021	0.0002	0.00042	0.00018	2
7409	0.00015	3e-05	-0.00015	-0.00017	3e-05	-6e-05	9e-05	3e-05	2
7410	0.00015	3e-05	-0.00015	-0.00017	3e-05	-6e-05	9e-05	3e-05	2
7411	0.00015	3e-05	-0.00015	-0.00017	3e-05	-6e-05	9e-05	3e-05	2
7412	0.00015	3e-05	-0.00015	-0.00017	3e-05	-6e-05	9e-05	3e-05	2
7413	0.00015	3e-05	-0.00015	-0.00017	3e-05	-6e-05	9e-05	3e-05	2
7414	0.00015	3e-05	-0.00015	-0.00017	3e-05	-6e-05	9e-05	3e-05	2
7415	0.00015	3e-05	-0.00015	-0.00017	3e-05	-6e-05	9e-05	3e-05	2
7416	0.00015	3e-05	-0.00015	-0.00017	3e-05	-6e-05	9e-05	3e-05	2
7417	0.00015	3e-05	-0.00015	-0.00017	3e-05	-6e-05	9e-05	3e-05	2
7418	0.00015	3e-05	-0.00015	-0.00017	3e-05	-6e-05	9e-05	3e-05	2
7419	0.00015	3e-05	-0.00015	-0.00017	3e-05	-6e-05	9e-05	3e-05	2
7420	0.00015	3e-05	-0.00015	-0.00017	3e-05	-6e-05	9e-05	3e-05	2
7421	0.00015	3e-05	-0.00015	-0.00017	3e-05	-6e-05	9e-05	3e-05	2
7422	0.00015	3e-05	-0.00015	-0.00017	3e-05	-6e-05	9e-05	3e-05	2
7423	0.00015	3e-05	-0.00015	-0.00017	3e-05	-6e-05	9e-05	3e-05	2
7424	0.00015	3e-05	-0.00015	-0.00017	3e-05	-6e-05	9e-05	3e-05	2
7425	0.00015	3e-05	-0.00015	-0.00017	3e-05	-6e-05	9e-05	3e-05	2
7426	0.00015	3e-05	-0.00015	-0.00017	3e-05	-6e-05	9e-05	3e-05	2
7427	0.00015	3e-05	-0.00015	-0.00017	3e-05	-6e-05	9e-05	3e-05	2
7428	0.00015	3e-05	-0.00015	-0.00017	3e-05	-6e-05	9e-05	3e-05	2
7429	0.00015	3e-05	-0.00015	-0.00017	3e-05	-6e-05	9e-05	3e-05	2
7430	0.00015	3e-05	-0.00015	-0.00017	3e-05	-6e-05	9e-05	3e-05	2
7431	0.00015	3e-05	-0.00015	-0.00017	3e-05	-6e-05	9e-05	3e-05	2
7432	0.00019	0.00031	3e-05	-2e-05	0.00011	0.00025	0.00048	0.0002	2
7433	0	0.00014	-0.00023	-0.00019	-9e-05	-0.00012	-0.00029	-5e-05	2
7434	0	0.00014	-0.00023	-0.00019	-9e-05	-0.00012	-0.00029	-5e-05	2
7435	0	0.00014	-0.00023	-0.00019	-9e-05	-0.00012	-0.00029	-5e-05	2
7436	0	0.00014	-0.00023	-0.00019	-9e-05	-0.00012	-0.00029	-5e-05	2
7438	0	0.00014	-0.00023	-0.00019	-9e-05	-0.00012	-0.00029	-5e-05	2
7439	0	0.00014	-0.00023	-0.00019	-9e-05	-0.00012	-0.00029	-5e-05	2
7440	0	0.00014	-0.00023	-0.00019	-9e-05	-0.00012	-0.00029	-5e-05	2
7441	0	0.00014	-0.00023	-0.00019	-9e-05	-0.00012	-0.00029	-5e-05	2
7442	0	0.00014	-0.00023	-0.00019	-9e-05	-0.00012	-0.00029	-5e-05	2
7443	0	0.00014	-0.00023	-0.00019	-9e-05	-0.00012	-0.00029	-5e-05	2
7444	0	0.00014	-0.00023	-0.00019	-9e-05	-0.00012	-0.00029	-5e-05	2
7445	0	0.00014	-0.00023	-0.00019	-9e-05	-0.00012	-0.00029	-5e-05	2
7446	0	0.00014	-0.00023	-0.00019	-9e-05	-0.00012	-0.00029	-5e-05	2
7447	2e-05	1e-05	0.00011	9e-05	0.00043	-4e-05	-0.00014	6e-05	2
7448	2e-05	1e-05	0.00011	9e-05	0.00043	-4e-05	-0.00014	6e-05	2
7449	3e-05	0.00022	0.00012	-0.00023	-0.00014	-9e-05	-0.00031	-5e-05	2
7450	3e-05	0.00022	0.00012	-0.00023	-0.00014	-9e-05	-0.00031	-5e-05	2
7451	3e-05	0.00022	0.00012	-0.00023	-0.00014	-9e-05	-0.00031	-5e-05	2
7452	3e-05	0.00022	0.00012	-0.00023	-0.00014	-9e-05	-0.00031	-5e-05	2
7453	3e-05	0.00022	0.00012	-0.00023	-0.00014	-9e-05	-0.00031	-5e-05	2
7454	3e-05	0.00022	0.00012	-0.00023	-0.00014	-9e-05	-0.00031	-5e-05	2
7455	3e-05	0.00022	0.00012	-0.00023	-0.00014	-9e-05	-0.00031	-5e-05	2
7456	3e-05	0.00022	0.00012	-0.00023	-0.00014	-9e-05	-0.00031	-5e-05	2
7457	3e-05	0.00022	0.00012	-0.00023	-0.00014	-9e-05	-0.00031	-5e-05	2
7458	3e-05	0.00022	0.00012	-0.00023	-0.00014	-9e-05	-0.00031	-5e-05	2
7459	3e-05	0.00022	0.00012	-0.00023	-0.00014	-9e-05	-0.00031	-5e-05	2
7460	3e-05	0.00022	0.00012	-0.00023	-0.00014	-9e-05	-0.00031	-5e-05	2
7461	-0.0003	-0.00052	-4e-05	-9e-05	-5e-05	3e-05	0.00026	-6e-05	2
7462	-0.0003	-0.00052	-4e-05	-9e-05	-5e-05	3e-05	0.00026	-6e-05	2
7463	-0.0003	-0.00052	-4e-05	-9e-05	-5e-05	3e-05	0.00026	-6e-05	2
7464	-0.0003	-0.00052	-4e-05	-9e-05	-5e-05	3e-05	0.00026	-6e-05	2
7465	-0.0003	-0.00052	-4e-05	-9e-05	-5e-05	3e-05	0.00026	-6e-05	2
7466	-0.0003	-0.00052	-4e-05	-9e-05	-5e-05	3e-05	0.00026	-6e-05	2
7467	-0.0003	-0.00052	-4e-05	-9e-05	-5e-05	3e-05	0.00026	-6e-05	2
7468	-0.0003	-0.00052	-4e-05	-9e-05	-5e-05	3e-05	0.00026	-6e-05	2
7469	-0.00026	-7e-05	6e-05	0.00013	0.00022	-0.0001	-0.00013	-0.00011	2
7470	-0.00026	-7e-05	6e-05	0.00013	0.00022	-0.0001	-0.00013	-0.00011	2
7471	-0.00026	-7e-05	6e-05	0.00013	0.00022	-0.0001	-0.00013	-0.00011	2
7472	-0.00026	-7e-05	6e-05	0.00013	0.00022	-0.0001	-0.00013	-0.00011	2
7473	-0.00026	-7e-05	6e-05	0.00013	0.00022	-0.0001	-0.00013	-0.00011	2
7474	-0.00026	-7e-05	6e-05	0.00013	0.00022	-0.0001	-0.00013	-0.00011	2
7475	-0.00026	-7e-05	6e-05	0.00013	0.00022	-0.0001	-0.00013	-0.00011	2
7476	-0.00026	-7e-05	6e-05	0.00013	0.00022	-0.0001	-0.00013	-0.00011	2
7477	-0.00026	-7e-05	6e-05	0.00013	0.00022	-0.0001	-0.00013	-0.00011	2
7478	-0.00026	-7e-05	6e-05	0.00013	0.00022	-0.0001	-0.00013	-0.00011	2
7479	-0.00026	-7e-05	6e-05	0.00013	0.00022	-0.0001	-0.00013	-0.00011	2
7480	-0.00026	-7e-05	6e-05	0.00013	0.00022	-0.0001	-0.00013	-0.00011	2
7481	-0.00026	-7e-05	6e-05	0.00013	0.00022	-0.0001	-0.00013	-0.00011	2
7482	-0.00026	-7e-05	6e-05	0.00013	0.00022	-0.0001	-0.00013	-0.00011	2
7483	-0.00026	-7e-05	6e-05	0.00013	0.00022	-0.0001	-0.00013	-0.00011	2
7484	-0.00026	-7e-05	6e-05	0.00013	0.00022	-0.0001	-0.00013	-0.00011	2
7485	-0.00026	-7e-05	6e-05	0.00013	0.00022	-0.0001	-0.00013	-0.00011	2
7486	-0.00026	-7e-05	6e-05	0.00013	0.00022	-0.0001	-0.00013	-0.00011	2
7488	-0.00026	-7e-05	6e-05	0.00013	0.00022	-0.0001	-0.00013	-0.00011	2
7490	-0.00026	-7e-05	6e-05	0.00013	0.00022	-0.0001	-0.00013	-0.00011	2
7491	0.00022	0.00029	0	1e-05	-0.0002	-0.00015	-0.00019	-6e-05	2
7492	-0.00044	-6e-05	-0.00013	8e-05	-0.00012	-0.00017	-0.00017	-0.00015	2
7493	0.00025	-5e-05	4e-05	1e-05	-0.00013	-8e-05	-0.00015	-5e-05	2
7494	0.00025	-5e-05	4e-05	1e-05	-0.00013	-8e-05	-0.00015	-5e-05	2
7495	0.00025	-5e-05	4e-05	1e-05	-0.00013	-8e-05	-0.00015	-5e-05	2
7496	0.00025	-5e-05	4e-05	1e-05	-0.00013	-8e-05	-0.00015	-5e-05	2
7497	0.00025	-5e-05	4e-05	1e-05	-0.00013	-8e-05	-0.00015	-5e-05	2
7498	0.00025	-5e-05	4e-05	1e-05	-0.00013	-8e-05	-0.00015	-5e-05	2
7499	0.00025	-5e-05	4e-05	1e-05	-0.00013	-8e-05	-0.00015	-5e-05	2
7500	0.00025	-5e-05	4e-05	1e-05	-0.00013	-8e-05	-0.00015	-5e-05	2
7501	0.00025	-5e-05	4e-05	1e-05	-0.00013	-8e-05	-0.00015	-5e-05	2
7502	0.00025	-5e-05	4e-05	1e-05	-0.00013	-8e-05	-0.00015	-5e-05	2
7503	0.00025	-5e-05	4e-05	1e-05	-0.00013	-8e-05	-0.00015	-5e-05	2
7504	0.00025	-5e-05	4e-05	1e-05	-0.00013	-8e-05	-0.00015	-5e-05	2
7505	0.00025	-5e-05	4e-05	1e-05	-0.00013	-8e-05	-0.00015	-5e-05	2
7506	0.00025	-5e-05	4e-05	1e-05	-0.00013	-8e-05	-0.00015	-5e-05	2
7507	0.00025	-5e-05	4e-05	1e-05	-0.00013	-8e-05	-0.00015	-5e-05	2
7508	0.00025	-5e-05	4e-05	1e-05	-0.00013	-8e-05	-0.00015	-5e-05	2
7509	0.00025	-5e-05	4e-05	1e-05	-0.00013	-8e-05	-0.00015	-5e-05	2
7510	0.00025	-5e-05	4e-05	1e-05	-0.00013	-8e-05	-0.00015	-5e-05	2
7511	0.00025	-5e-05	4e-05	1e-05	-0.00013	-8e-05	-0.00015	-5e-05	2
7512	0.00025	-5e-05	4e-05	1e-05	-0.00013	-8e-05	-0.00015	-5e-05	2
7513	0.00025	-5e-05	4e-05	1e-05	-0.00013	-8e-05	-0.00015	-5e-05	2
7514	0.00025	-5e-05	4e-05	1e-05	-0.00013	-8e-05	-0.00015	-5e-05	2
7515	0.00025	-5e-05	4e-05	1e-05	-0.00013	-8e-05	-0.00015	-5e-05	2
7516	0.00025	-5e-05	4e-05	1e-05	-0.00013	-8e-05	-0.00015	-5e-05	2
7517	0.00025	-5e-05	4e-05	1e-05	-0.00013	-8e-05	-0.00015	-5e-05	2
7518	0.00025	-5e-05	4e-05	1e-05	-0.00013	-8e-05	-0.00015	-5e-05	2
7519	0.00025	-5e-05	4e-05	1e-05	-0.00013	-8e-05	-0.00015	-5e-05	2
7520	0.00025	-5e-05	4e-05	1e-05	-0.00013	-8e-05	-0.00015	-5e-05	2
7521	-4e-05	0.00018	0.00021	0.00014	0.00042	0.00018	6e-05	3e-05	2
7522	2e-05	0.00037	-0.00023	-7e-05	-0.00042	-0.00027	-0.00013	-5e-05	2
7523	0.0002	7e-05	-0.00012	4e-05	-0.00025	-0.0001	-0.00042	-0.00011	2
7524	0.0002	7e-05	-0.00012	4e-05	-0.00025	-0.0001	-0.00042	-0.00011	2
7525	0.0002	7e-05	-0.00012	4e-05	-0.00025	-0.0001	-0.00042	-0.00011	2
7526	0.0002	7e-05	-0.00012	4e-05	-0.00025	-0.0001	-0.00042	-0.00011	2
7527	0.0002	7e-05	-0.00012	4e-05	-0.00025	-0.0001	-0.00042	-0.00011	2
7528	0.0002	7e-05	-0.00012	4e-05	-0.00025	-0.0001	-0.00042	-0.00011	2
7529	-0.0001	-0.00033	-5e-05	1e-05	2e-05	-7e-05	-0.00036	-0.00011	2
7530	-0.0002	-4e-05	-0.00017	1e-05	-0.00013	-0.00017	-0.00024	-0.00015	2
7531	0.00046	0.0001	0.00027	0.00028	0.00025	0.00048	0.00047	0.0003	2
7532	0.00046	0.0001	0.00027	0.00028	0.00025	0.00048	0.00047	0.0003	2
7533	0.00046	0.0001	0.00027	0.00028	0.00025	0.00048	0.00047	0.0003	2
7534	0.00046	0.0001	0.00027	0.00028	0.00025	0.00048	0.00047	0.0003	2
7535	0.00046	0.0001	0.00027	0.00028	0.00025	0.00048	0.00047	0.0003	2
7536	0.00046	0.0001	0.00027	0.00028	0.00025	0.00048	0.00047	0.0003	2
7538	0.00046	0.0001	0.00027	0.00028	0.00025	0.00048	0.00047	0.0003	2
7539	0.00046	0.0001	0.00027	0.00028	0.00025	0.00048	0.00047	0.0003	2
7540	0.00046	0.0001	0.00027	0.00028	0.00025	0.00048	0.00047	0.0003	2
7541	0.00046	0.0001	0.00027	0.00028	0.00025	0.00048	0.00047	0.0003	2
7542	0.00046	0.0001	0.00027	0.00028	0.00025	0.00048	0.00047	0.0003	2
7543	0.00046	0.0001	0.00027	0.00028	0.00025	0.00048	0.00047	0.0003	2
7544	0.00046	0.0001	0.00027	0.00028	0.00025	0.00048	0.00047	0.0003	2
7545	0.00046	0.0001	0.00027	0.00028	0.00025	0.00048	0.00047	0.0003	2
7546	0.00046	0.0001	0.00027	0.00028	0.00025	0.00048	0.00047	0.0003	2
7547	0.00046	0.0001	0.00027	0.00028	0.00025	0.00048	0.00047	0.0003	2
7548	0.00046	0.0001	0.00027	0.00028	0.00025	0.00048	0.00047	0.0003	2
7549	0.00046	0.0001	0.00027	0.00028	0.00025	0.00048	0.00047	0.0003	2
7550	0.00046	0.0001	0.00027	0.00028	0.00025	0.00048	0.00047	0.0003	2
7551	0.00046	0.0001	0.00027	0.00028	0.00025	0.00048	0.00047	0.0003	2
7552	3e-05	0.00018	9e-05	-0.00016	0.00011	-4e-05	-0.00034	0	2
7553	3e-05	0.00018	9e-05	-0.00016	0.00011	-4e-05	-0.00034	0	2
7554	-0.0001	0.00015	-2e-05	2e-05	-0.00017	-0.00024	4e-05	2e-05	2
7555	-0.0001	0.00015	-2e-05	2e-05	-0.00017	-0.00024	4e-05	2e-05	2
7556	-0.0001	0.00015	-2e-05	2e-05	-0.00017	-0.00024	4e-05	2e-05	2
7557	-0.0001	0.00015	-2e-05	2e-05	-0.00017	-0.00024	4e-05	2e-05	2
7558	-0.0001	0.00015	-2e-05	2e-05	-0.00017	-0.00024	4e-05	2e-05	2
7559	-0.0001	0.00015	-2e-05	2e-05	-0.00017	-0.00024	4e-05	2e-05	2
7560	-0.0001	0.00015	-2e-05	2e-05	-0.00017	-0.00024	4e-05	2e-05	2
7561	-0.0001	0.00015	-2e-05	2e-05	-0.00017	-0.00024	4e-05	2e-05	2
7562	-0.0001	0.00015	-2e-05	2e-05	-0.00017	-0.00024	4e-05	2e-05	2
7563	-0.0001	0.00015	-2e-05	2e-05	-0.00017	-0.00024	4e-05	2e-05	2
7564	-0.0001	0.00015	-2e-05	2e-05	-0.00017	-0.00024	4e-05	2e-05	2
7565	-0.0001	0.00015	-2e-05	2e-05	-0.00017	-0.00024	4e-05	2e-05	2
7566	-0.0001	0.00015	-2e-05	2e-05	-0.00017	-0.00024	4e-05	2e-05	2
7567	-0.0001	0.00015	-2e-05	2e-05	-0.00017	-0.00024	4e-05	2e-05	2
7568	-0.0001	0.00015	-2e-05	2e-05	-0.00017	-0.00024	4e-05	2e-05	2
7569	-0.0001	0.00015	-2e-05	2e-05	-0.00017	-0.00024	4e-05	2e-05	2
7570	-0.0001	0.00015	-2e-05	2e-05	-0.00017	-0.00024	4e-05	2e-05	2
7571	-0.0001	0.00015	-2e-05	2e-05	-0.00017	-0.00024	4e-05	2e-05	2
7572	-0.0001	0.00015	-2e-05	2e-05	-0.00017	-0.00024	4e-05	2e-05	2
7573	-0.0001	0.00015	-2e-05	2e-05	-0.00017	-0.00024	4e-05	2e-05	2
7574	-0.0001	0.00015	-2e-05	2e-05	-0.00017	-0.00024	4e-05	2e-05	2
7575	-0.0001	0.00015	-2e-05	2e-05	-0.00017	-0.00024	4e-05	2e-05	2
7576	-0.0001	0.00015	-2e-05	2e-05	-0.00017	-0.00024	4e-05	2e-05	2
7577	-0.0001	0.00015	-2e-05	2e-05	-0.00017	-0.00024	4e-05	2e-05	2
7578	-0.0001	0.00015	-2e-05	2e-05	-0.00017	-0.00024	4e-05	2e-05	2
7579	-0.0001	0.00015	-2e-05	2e-05	-0.00017	-0.00024	4e-05	2e-05	2
7580	-0.0001	0.00015	-2e-05	2e-05	-0.00017	-0.00024	4e-05	2e-05	2
7581	1e-05	-0.00033	-0.00014	-0.00012	5e-05	7e-05	-0.0001	2e-05	2
7582	0.00026	9e-05	-0.00018	-0.00032	-0.00034	-0.00011	0.00017	3e-05	2
7583	-0.00035	-2e-05	-1e-05	-0.00017	0.00011	-3e-05	5e-05	-0.00017	2
7584	-0.00035	-2e-05	-1e-05	-0.00017	0.00011	-3e-05	5e-05	-0.00017	2
7585	-0.00035	-2e-05	-1e-05	-0.00017	0.00011	-3e-05	5e-05	-0.00017	2
7586	-0.00035	-2e-05	-1e-05	-0.00017	0.00011	-3e-05	5e-05	-0.00017	2
7588	-0.00035	-2e-05	-1e-05	-0.00017	0.00011	-3e-05	5e-05	-0.00017	2
7589	-0.00035	-2e-05	-1e-05	-0.00017	0.00011	-3e-05	5e-05	-0.00017	2
7590	4e-05	-0.0001	0.00011	0.00012	0.00016	-0.0001	0.00019	-3e-05	2
7591	-7e-05	-0.00021	-7e-05	-3e-05	5e-05	-0.00014	5e-05	-2e-05	2
7593	-7e-05	-0.00021	-7e-05	-3e-05	5e-05	-0.00014	5e-05	-2e-05	2
7594	-7e-05	-0.00021	-7e-05	-3e-05	5e-05	-0.00014	5e-05	-2e-05	2
7595	-7e-05	-0.00021	-7e-05	-3e-05	5e-05	-0.00014	5e-05	-2e-05	2
7596	-7e-05	-0.00021	-7e-05	-3e-05	5e-05	-0.00014	5e-05	-2e-05	2
7597	-7e-05	-0.00021	-7e-05	-3e-05	5e-05	-0.00014	5e-05	-2e-05	2
7598	-7e-05	-0.00021	-7e-05	-3e-05	5e-05	-0.00014	5e-05	-2e-05	2
7599	-7e-05	-0.00021	-7e-05	-3e-05	5e-05	-0.00014	5e-05	-2e-05	2
7600	-7e-05	-0.00021	-7e-05	-3e-05	5e-05	-0.00014	5e-05	-2e-05	2
7601	-7e-05	-0.00021	-7e-05	-3e-05	5e-05	-0.00014	5e-05	-2e-05	2
7602	-7e-05	-0.00021	-7e-05	-3e-05	5e-05	-0.00014	5e-05	-2e-05	2
7603	-7e-05	-0.00021	-7e-05	-3e-05	5e-05	-0.00014	5e-05	-2e-05	2
7604	-7e-05	-0.00021	-7e-05	-3e-05	5e-05	-0.00014	5e-05	-2e-05	2
7605	-7e-05	-0.00021	-7e-05	-3e-05	5e-05	-0.00014	5e-05	-2e-05	2
7606	-7e-05	-0.00021	-7e-05	-3e-05	5e-05	-0.00014	5e-05	-2e-05	2
7607	-7e-05	-0.00021	-7e-05	-3e-05	5e-05	-0.00014	5e-05	-2e-05	2
7608	-7e-05	-0.00021	-7e-05	-3e-05	5e-05	-0.00014	5e-05	-2e-05	2
7609	-7e-05	-0.00021	-7e-05	-3e-05	5e-05	-0.00014	5e-05	-2e-05	2
7610	-7e-05	-0.00021	-7e-05	-3e-05	5e-05	-0.00014	5e-05	-2e-05	2
7611	-7e-05	-0.00021	-7e-05	-3e-05	5e-05	-0.00014	5e-05	-2e-05	2
7612	0.0001	0.00029	0.00011	2e-05	-0.00026	0	4e-05	5e-05	2
7613	0.00011	0.00012	0.00021	9e-05	-0.00015	-2e-05	5e-05	-4e-05	2
7614	-5e-05	-0.00017	-0.00027	-2e-05	0.0001	-9e-05	-4e-05	2e-05	2
7615	-5e-05	-0.00017	-0.00027	-2e-05	0.0001	-9e-05	-4e-05	2e-05	2
7616	-5e-05	-0.00017	-0.00027	-2e-05	0.0001	-9e-05	-4e-05	2e-05	2
7617	-5e-05	-0.00017	-0.00027	-2e-05	0.0001	-9e-05	-4e-05	2e-05	2
7618	-5e-05	-0.00017	-0.00027	-2e-05	0.0001	-9e-05	-4e-05	2e-05	2
7619	-5e-05	-0.00017	-0.00027	-2e-05	0.0001	-9e-05	-4e-05	2e-05	2
7620	-5e-05	-0.00017	-0.00027	-2e-05	0.0001	-9e-05	-4e-05	2e-05	2
7621	-5e-05	-0.00017	-0.00027	-2e-05	0.0001	-9e-05	-4e-05	2e-05	2
7622	-5e-05	-0.00017	-0.00027	-2e-05	0.0001	-9e-05	-4e-05	2e-05	2
7623	-5e-05	-0.00017	-0.00027	-2e-05	0.0001	-9e-05	-4e-05	2e-05	2
7624	-5e-05	-0.00017	-0.00027	-2e-05	0.0001	-9e-05	-4e-05	2e-05	2
7625	-5e-05	-0.00017	-0.00027	-2e-05	0.0001	-9e-05	-4e-05	2e-05	2
7626	-0.00028	0	0.00015	-7e-05	0.00013	7e-05	-0.00014	-5e-05	2
7627	0	-0.00018	0	4e-05	-0.00011	-0.00015	-0.00028	-2e-05	2
7628	-0.00019	-9e-05	-8e-05	2e-05	-0.00033	-4e-05	0.0001	-6e-05	2
7629	-0.00019	-9e-05	-8e-05	2e-05	-0.00033	-4e-05	0.0001	-6e-05	2
7630	-0.00019	-9e-05	-8e-05	2e-05	-0.00033	-4e-05	0.0001	-6e-05	2
7631	-0.00019	-9e-05	-8e-05	2e-05	-0.00033	-4e-05	0.0001	-6e-05	2
7632	-0.00019	-9e-05	-8e-05	2e-05	-0.00033	-4e-05	0.0001	-6e-05	2
7633	-0.00019	-9e-05	-8e-05	2e-05	-0.00033	-4e-05	0.0001	-6e-05	2
7634	-0.00019	-9e-05	-8e-05	2e-05	-0.00033	-4e-05	0.0001	-6e-05	2
7635	-0.00019	-9e-05	-8e-05	2e-05	-0.00033	-4e-05	0.0001	-6e-05	2
7636	-0.00019	-9e-05	-8e-05	2e-05	-0.00033	-4e-05	0.0001	-6e-05	2
7638	-0.00019	-9e-05	-8e-05	2e-05	-0.00033	-4e-05	0.0001	-6e-05	2
7639	-0.00019	-9e-05	-8e-05	2e-05	-0.00033	-4e-05	0.0001	-6e-05	2
7640	-0.00019	-9e-05	-8e-05	2e-05	-0.00033	-4e-05	0.0001	-6e-05	2
7641	-0.00019	-9e-05	-8e-05	2e-05	-0.00033	-4e-05	0.0001	-6e-05	2
7642	-0.00019	-9e-05	-8e-05	2e-05	-0.00033	-4e-05	0.0001	-6e-05	2
7643	-0.00019	-9e-05	-8e-05	2e-05	-0.00033	-4e-05	0.0001	-6e-05	2
7644	-0.00019	-9e-05	-8e-05	2e-05	-0.00033	-4e-05	0.0001	-6e-05	2
7645	-0.00019	-9e-05	-8e-05	2e-05	-0.00033	-4e-05	0.0001	-6e-05	2
7646	-0.00019	-9e-05	-8e-05	2e-05	-0.00033	-4e-05	0.0001	-6e-05	2
7647	-0.00019	-9e-05	-8e-05	2e-05	-0.00033	-4e-05	0.0001	-6e-05	2
7648	-0.00019	-9e-05	-8e-05	2e-05	-0.00033	-4e-05	0.0001	-6e-05	2
7649	-6e-05	-0.00041	-0.00015	0.0001	7e-05	6e-05	0.0001	0	2
7650	-6e-05	-0.00041	-0.00015	0.0001	7e-05	6e-05	0.0001	0	2
7651	-8e-05	-0.00019	-3e-05	0.00032	0.00043	0.00028	0.00022	7e-05	2
7652	-8e-05	-0.00019	-3e-05	0.00032	0.00043	0.00028	0.00022	7e-05	2
7653	-8e-05	-0.00019	-3e-05	0.00032	0.00043	0.00028	0.00022	7e-05	2
7654	-8e-05	-0.00019	-3e-05	0.00032	0.00043	0.00028	0.00022	7e-05	2
7655	-8e-05	-0.00019	-3e-05	0.00032	0.00043	0.00028	0.00022	7e-05	2
7656	-8e-05	-0.00019	-3e-05	0.00032	0.00043	0.00028	0.00022	7e-05	2
7657	-8e-05	-0.00019	-3e-05	0.00032	0.00043	0.00028	0.00022	7e-05	2
7658	-8e-05	-0.00019	-3e-05	0.00032	0.00043	0.00028	0.00022	7e-05	2
7659	-8e-05	-0.00019	-3e-05	0.00032	0.00043	0.00028	0.00022	7e-05	2
7660	-8e-05	-0.00019	-3e-05	0.00032	0.00043	0.00028	0.00022	7e-05	2
7661	-8e-05	-0.00019	-3e-05	0.00032	0.00043	0.00028	0.00022	7e-05	2
7662	-8e-05	-0.00019	-3e-05	0.00032	0.00043	0.00028	0.00022	7e-05	2
7663	-8e-05	-0.00019	-3e-05	0.00032	0.00043	0.00028	0.00022	7e-05	2
7664	0.00014	0.00024	7e-05	7e-05	0.00017	-0.00017	-5e-05	3e-05	2
7665	0.00014	0.00024	7e-05	7e-05	0.00017	-0.00017	-5e-05	3e-05	2
7666	0.00014	0.00024	7e-05	7e-05	0.00017	-0.00017	-5e-05	3e-05	2
7667	0.00014	0.00024	7e-05	7e-05	0.00017	-0.00017	-5e-05	3e-05	2
7668	0.00014	0.00024	7e-05	7e-05	0.00017	-0.00017	-5e-05	3e-05	2
7669	0.00014	0.00024	7e-05	7e-05	0.00017	-0.00017	-5e-05	3e-05	2
7670	0.00014	0.00024	7e-05	7e-05	0.00017	-0.00017	-5e-05	3e-05	2
7671	0.00014	0.00024	7e-05	7e-05	0.00017	-0.00017	-5e-05	3e-05	2
7672	0.00014	0.00024	7e-05	7e-05	0.00017	-0.00017	-5e-05	3e-05	2
7673	0.00014	0.00024	7e-05	7e-05	0.00017	-0.00017	-5e-05	3e-05	2
7674	0.00014	0.00024	7e-05	7e-05	0.00017	-0.00017	-5e-05	3e-05	2
7675	0.00014	0.00024	7e-05	7e-05	0.00017	-0.00017	-5e-05	3e-05	2
7676	0.00014	0.00024	7e-05	7e-05	0.00017	-0.00017	-5e-05	3e-05	2
7677	0.00014	0.00024	7e-05	7e-05	0.00017	-0.00017	-5e-05	3e-05	2
7678	-2e-05	-9e-05	-6e-05	0.00013	3e-05	-1e-05	0.00016	0.0001	2
7679	-2e-05	-9e-05	-6e-05	0.00013	3e-05	-1e-05	0.00016	0.0001	2
7680	-2e-05	-9e-05	-6e-05	0.00013	3e-05	-1e-05	0.00016	0.0001	2
7681	-2e-05	-9e-05	-6e-05	0.00013	3e-05	-1e-05	0.00016	0.0001	2
7682	-2e-05	-9e-05	-6e-05	0.00013	3e-05	-1e-05	0.00016	0.0001	2
7683	-2e-05	-9e-05	-6e-05	0.00013	3e-05	-1e-05	0.00016	0.0001	2
7684	-2e-05	-9e-05	-6e-05	0.00013	3e-05	-1e-05	0.00016	0.0001	2
7685	-2e-05	-9e-05	-6e-05	0.00013	3e-05	-1e-05	0.00016	0.0001	2
7686	-2e-05	-9e-05	-6e-05	0.00013	3e-05	-1e-05	0.00016	0.0001	2
7688	0.0001	0.00027	3e-05	-0.00013	-0.00013	1e-05	0.00035	0.00019	2
7689	0.00012	0.00023	0.0002	-0.00014	-0.00026	-0.00031	-0.00025	1e-05	2
7690	0.00012	0.00023	0.0002	-0.00014	-0.00026	-0.00031	-0.00025	1e-05	2
7691	0.00012	0.00023	0.0002	-0.00014	-0.00026	-0.00031	-0.00025	1e-05	2
7692	0.00012	0.00023	0.0002	-0.00014	-0.00026	-0.00031	-0.00025	1e-05	2
7693	0.00012	0.00023	0.0002	-0.00014	-0.00026	-0.00031	-0.00025	1e-05	2
7694	0.00012	0.00023	0.0002	-0.00014	-0.00026	-0.00031	-0.00025	1e-05	2
7695	0.00012	0.00023	0.0002	-0.00014	-0.00026	-0.00031	-0.00025	1e-05	2
7696	0.00012	0.00023	0.0002	-0.00014	-0.00026	-0.00031	-0.00025	1e-05	2
7697	0.00012	0.00023	0.0002	-0.00014	-0.00026	-0.00031	-0.00025	1e-05	2
7698	0.00012	0.00023	0.0002	-0.00014	-0.00026	-0.00031	-0.00025	1e-05	2
7699	0.00012	0.00023	0.0002	-0.00014	-0.00026	-0.00031	-0.00025	1e-05	2
7700	0.00012	0.00023	0.0002	-0.00014	-0.00026	-0.00031	-0.00025	1e-05	2
7701	0.00012	0.00023	0.0002	-0.00014	-0.00026	-0.00031	-0.00025	1e-05	2
7702	0.00012	0.00023	0.0002	-0.00014	-0.00026	-0.00031	-0.00025	1e-05	2
7703	0.00012	0.00023	0.0002	-0.00014	-0.00026	-0.00031	-0.00025	1e-05	2
7704	0.00012	0.00023	0.0002	-0.00014	-0.00026	-0.00031	-0.00025	1e-05	2
7705	0.00012	0.00023	0.0002	-0.00014	-0.00026	-0.00031	-0.00025	1e-05	2
7706	0.00012	0.00023	0.0002	-0.00014	-0.00026	-0.00031	-0.00025	1e-05	2
7707	0.00012	0.00023	0.0002	-0.00014	-0.00026	-0.00031	-0.00025	1e-05	2
7708	0.00012	0.00023	0.0002	-0.00014	-0.00026	-0.00031	-0.00025	1e-05	2
7709	-0.0003	-0.00018	-0.00011	1e-05	0.00018	-1e-05	-0.00018	1e-05	2
7710	0.00023	0.00033	0.00013	0.0001	-0.00018	7e-05	0.00033	2e-05	2
7711	-0.00041	-0.00027	-8e-05	2e-05	-0.00028	-2e-05	-0.00043	-0.00016	2
7712	-0.00041	-0.00027	-8e-05	2e-05	-0.00028	-2e-05	-0.00043	-0.00016	2
7713	-0.00041	-0.00027	-8e-05	2e-05	-0.00028	-2e-05	-0.00043	-0.00016	2
7714	-0.00041	-0.00027	-8e-05	2e-05	-0.00028	-2e-05	-0.00043	-0.00016	2
7715	-0.00041	-0.00027	-8e-05	2e-05	-0.00028	-2e-05	-0.00043	-0.00016	2
7716	-0.00041	-0.00027	-8e-05	2e-05	-0.00028	-2e-05	-0.00043	-0.00016	2
7717	-0.00041	-0.00027	-8e-05	2e-05	-0.00028	-2e-05	-0.00043	-0.00016	2
7718	-0.00041	-0.00027	-8e-05	2e-05	-0.00028	-2e-05	-0.00043	-0.00016	2
7719	-0.00041	-0.00027	-8e-05	2e-05	-0.00028	-2e-05	-0.00043	-0.00016	2
7720	-0.00041	-0.00027	-8e-05	2e-05	-0.00028	-2e-05	-0.00043	-0.00016	2
7721	-0.00041	-0.00027	-8e-05	2e-05	-0.00028	-2e-05	-0.00043	-0.00016	2
7722	-0.00041	-0.00027	-8e-05	2e-05	-0.00028	-2e-05	-0.00043	-0.00016	2
7723	-2e-05	-4e-05	-5e-05	-6e-05	-5e-05	-0.00011	-0.00011	-7e-05	2
7724	-2e-05	-4e-05	-5e-05	-6e-05	-5e-05	-0.00011	-0.00011	-7e-05	2
7725	-2e-05	-4e-05	-5e-05	-6e-05	-5e-05	-0.00011	-0.00011	-7e-05	2
7726	-2e-05	-4e-05	-5e-05	-6e-05	-5e-05	-0.00011	-0.00011	-7e-05	2
7727	-2e-05	-4e-05	-5e-05	-6e-05	-5e-05	-0.00011	-0.00011	-7e-05	2
7728	-2e-05	-4e-05	-5e-05	-6e-05	-5e-05	-0.00011	-0.00011	-7e-05	2
7729	-2e-05	-4e-05	-5e-05	-6e-05	-5e-05	-0.00011	-0.00011	-7e-05	2
7730	-2e-05	-4e-05	-5e-05	-6e-05	-5e-05	-0.00011	-0.00011	-7e-05	2
7731	-2e-05	-4e-05	-5e-05	-6e-05	-5e-05	-0.00011	-0.00011	-7e-05	2
7732	-2e-05	-4e-05	-5e-05	-6e-05	-5e-05	-0.00011	-0.00011	-7e-05	2
7733	-2e-05	-4e-05	-5e-05	-6e-05	-5e-05	-0.00011	-0.00011	-7e-05	2
7734	-2e-05	-4e-05	-5e-05	-6e-05	-5e-05	-0.00011	-0.00011	-7e-05	2
7735	-2e-05	-4e-05	-5e-05	-6e-05	-5e-05	-0.00011	-0.00011	-7e-05	2
7736	-2e-05	-4e-05	-5e-05	-6e-05	-5e-05	-0.00011	-0.00011	-7e-05	2
7738	9e-05	0.0001	-0.00018	-0.00052	-3e-05	7e-05	6e-05	1e-05	2
7740	9e-05	0.0001	-0.00018	-0.00052	-3e-05	7e-05	6e-05	1e-05	2
7741	9e-05	0.0001	-0.00018	-0.00052	-3e-05	7e-05	6e-05	1e-05	2
7742	9e-05	0.0001	-0.00018	-0.00052	-3e-05	7e-05	6e-05	1e-05	2
7743	9e-05	0.0001	-0.00018	-0.00052	-3e-05	7e-05	6e-05	1e-05	2
7744	9e-05	0.0001	-0.00018	-0.00052	-3e-05	7e-05	6e-05	1e-05	2
7745	9e-05	0.0001	-0.00018	-0.00052	-3e-05	7e-05	6e-05	1e-05	2
7746	-0.0002	-0.00036	0.00018	0.00037	7e-05	-0.0002	-0.00043	-0.00014	2
7747	0.00026	0.00026	3e-05	-4e-05	0.00011	-2e-05	-6e-05	-5e-05	2
7748	0	-0.00017	2e-05	0.0001	0.00026	0.00012	0.00011	9e-05	2
7749	0	-0.00017	2e-05	0.0001	0.00026	0.00012	0.00011	9e-05	2
7750	0	-0.00017	2e-05	0.0001	0.00026	0.00012	0.00011	9e-05	2
7751	0	-0.00017	2e-05	0.0001	0.00026	0.00012	0.00011	9e-05	2
7752	0	-0.00017	2e-05	0.0001	0.00026	0.00012	0.00011	9e-05	2
7753	0	-0.00017	2e-05	0.0001	0.00026	0.00012	0.00011	9e-05	2
7754	0	-0.00017	2e-05	0.0001	0.00026	0.00012	0.00011	9e-05	2
7755	0	-0.00017	2e-05	0.0001	0.00026	0.00012	0.00011	9e-05	2
7756	0	-0.00017	2e-05	0.0001	0.00026	0.00012	0.00011	9e-05	2
7757	0	-0.00017	2e-05	0.0001	0.00026	0.00012	0.00011	9e-05	2
7758	0	-0.00017	2e-05	0.0001	0.00026	0.00012	0.00011	9e-05	2
7759	0	-0.00017	2e-05	0.0001	0.00026	0.00012	0.00011	9e-05	2
7760	0	-0.00017	2e-05	0.0001	0.00026	0.00012	0.00011	9e-05	2
7761	0	-0.00017	2e-05	0.0001	0.00026	0.00012	0.00011	9e-05	2
7762	0	-0.00017	2e-05	0.0001	0.00026	0.00012	0.00011	9e-05	2
7763	0	-0.00017	2e-05	0.0001	0.00026	0.00012	0.00011	9e-05	2
7764	0	-0.00017	2e-05	0.0001	0.00026	0.00012	0.00011	9e-05	2
7765	0	-0.00017	2e-05	0.0001	0.00026	0.00012	0.00011	9e-05	2
7766	0	-0.00017	2e-05	0.0001	0.00026	0.00012	0.00011	9e-05	2
7767	0	-0.00017	2e-05	0.0001	0.00026	0.00012	0.00011	9e-05	2
7768	0	-0.00017	2e-05	0.0001	0.00026	0.00012	0.00011	9e-05	2
7769	-0.00019	-0.00019	-9e-05	-2e-05	-0.00049	-0.0002	4e-05	-0.0001	2
7770	0.00014	0.00022	0.00019	-2e-05	0.00031	-0.00016	-0.00034	-1e-05	2
7771	-0.00015	-0.00045	9e-05	0.00015	0.00054	0.00013	-0.0003	-0.00011	2
7772	-0.00015	-0.00045	9e-05	0.00015	0.00054	0.00013	-0.0003	-0.00011	2
7773	-0.00015	-0.00045	9e-05	0.00015	0.00054	0.00013	-0.0003	-0.00011	2
7774	-0.00015	-0.00045	9e-05	0.00015	0.00054	0.00013	-0.0003	-0.00011	2
7775	-0.00015	-0.00045	9e-05	0.00015	0.00054	0.00013	-0.0003	-0.00011	2
7776	-0.00015	-0.00045	9e-05	0.00015	0.00054	0.00013	-0.0003	-0.00011	2
7777	-0.00015	-0.00045	9e-05	0.00015	0.00054	0.00013	-0.0003	-0.00011	2
7778	-0.00015	-0.00045	9e-05	0.00015	0.00054	0.00013	-0.0003	-0.00011	2
7779	-0.00015	-0.00045	9e-05	0.00015	0.00054	0.00013	-0.0003	-0.00011	2
7780	-0.00015	-0.00045	9e-05	0.00015	0.00054	0.00013	-0.0003	-0.00011	2
7781	-0.00015	-0.00045	9e-05	0.00015	0.00054	0.00013	-0.0003	-0.00011	2
7782	-0.00015	-0.00045	9e-05	0.00015	0.00054	0.00013	-0.0003	-0.00011	2
7783	-0.00015	-0.00045	9e-05	0.00015	0.00054	0.00013	-0.0003	-0.00011	2
7784	-0.00015	-0.00045	9e-05	0.00015	0.00054	0.00013	-0.0003	-0.00011	2
7785	-0.00015	-0.00045	9e-05	0.00015	0.00054	0.00013	-0.0003	-0.00011	2
7786	-0.00015	-0.00045	9e-05	0.00015	0.00054	0.00013	-0.0003	-0.00011	2
7788	-0.00015	-0.00045	9e-05	0.00015	0.00054	0.00013	-0.0003	-0.00011	2
7789	-0.00015	-0.00045	9e-05	0.00015	0.00054	0.00013	-0.0003	-0.00011	2
7790	-0.00015	-0.00045	9e-05	0.00015	0.00054	0.00013	-0.0003	-0.00011	2
7791	-0.00015	-0.00045	9e-05	0.00015	0.00054	0.00013	-0.0003	-0.00011	2
7792	-0.00015	-0.00045	9e-05	0.00015	0.00054	0.00013	-0.0003	-0.00011	2
7793	-0.00015	-0.00045	9e-05	0.00015	0.00054	0.00013	-0.0003	-0.00011	2
7794	-0.00015	-0.00045	9e-05	0.00015	0.00054	0.00013	-0.0003	-0.00011	2
7795	-0.00015	-0.00045	9e-05	0.00015	0.00054	0.00013	-0.0003	-0.00011	2
7796	-0.00015	-0.00045	9e-05	0.00015	0.00054	0.00013	-0.0003	-0.00011	2
7797	-0.00015	-0.00045	9e-05	0.00015	0.00054	0.00013	-0.0003	-0.00011	2
7798	-0.00015	-0.00045	9e-05	0.00015	0.00054	0.00013	-0.0003	-0.00011	2
7799	6e-05	7e-05	7e-05	-3e-05	-0.00027	0.00011	0.00018	2e-05	2
7800	6e-05	7e-05	7e-05	-3e-05	-0.00027	0.00011	0.00018	2e-05	2
7801	4e-05	0.00036	-5e-05	4e-05	-9e-05	-4e-05	9e-05	-4e-05	2
7802	4e-05	0.00036	-5e-05	4e-05	-9e-05	-4e-05	9e-05	-4e-05	2
7803	4e-05	0.00036	-5e-05	4e-05	-9e-05	-4e-05	9e-05	-4e-05	2
7804	4e-05	0.00036	-5e-05	4e-05	-9e-05	-4e-05	9e-05	-4e-05	2
7805	4e-05	0.00036	-5e-05	4e-05	-9e-05	-4e-05	9e-05	-4e-05	2
7806	0	-0.00012	8e-05	0.00011	-5e-05	-3e-05	-0.00024	0	2
7807	7e-05	-0.00022	-0.00015	0.00018	0.00038	-0.00014	-8e-05	-0.00013	2
7808	9e-05	-7e-05	4e-05	6e-05	-0.00021	-0.00013	-0.00019	0	2
7809	9e-05	-7e-05	4e-05	6e-05	-0.00021	-0.00013	-0.00019	0	2
7810	9e-05	-7e-05	4e-05	6e-05	-0.00021	-0.00013	-0.00019	0	2
7811	9e-05	-7e-05	4e-05	6e-05	-0.00021	-0.00013	-0.00019	0	2
7812	9e-05	-7e-05	4e-05	6e-05	-0.00021	-0.00013	-0.00019	0	2
7813	9e-05	-7e-05	4e-05	6e-05	-0.00021	-0.00013	-0.00019	0	2
7814	9e-05	-7e-05	4e-05	6e-05	-0.00021	-0.00013	-0.00019	0	2
7815	9e-05	-7e-05	4e-05	6e-05	-0.00021	-0.00013	-0.00019	0	2
7816	9e-05	-7e-05	4e-05	6e-05	-0.00021	-0.00013	-0.00019	0	2
7817	9e-05	-7e-05	4e-05	6e-05	-0.00021	-0.00013	-0.00019	0	2
7818	9e-05	-7e-05	4e-05	6e-05	-0.00021	-0.00013	-0.00019	0	2
7819	9e-05	-7e-05	4e-05	6e-05	-0.00021	-0.00013	-0.00019	0	2
7820	9e-05	-7e-05	4e-05	6e-05	-0.00021	-0.00013	-0.00019	0	2
7821	9e-05	-7e-05	4e-05	6e-05	-0.00021	-0.00013	-0.00019	0	2
7822	9e-05	-7e-05	4e-05	6e-05	-0.00021	-0.00013	-0.00019	0	2
7823	9e-05	-7e-05	4e-05	6e-05	-0.00021	-0.00013	-0.00019	0	2
7824	9e-05	-7e-05	4e-05	6e-05	-0.00021	-0.00013	-0.00019	0	2
7825	9e-05	-7e-05	4e-05	6e-05	-0.00021	-0.00013	-0.00019	0	2
7826	9e-05	-7e-05	4e-05	6e-05	-0.00021	-0.00013	-0.00019	0	2
7827	9e-05	-7e-05	4e-05	6e-05	-0.00021	-0.00013	-0.00019	0	2
7828	9e-05	-7e-05	4e-05	6e-05	-0.00021	-0.00013	-0.00019	0	2
7829	9e-05	-7e-05	4e-05	6e-05	-0.00021	-0.00013	-0.00019	0	2
7830	-0.00041	-0.00023	-6e-05	0.00026	3e-05	7e-05	-4e-05	7e-05	2
7831	-0.00041	-0.00023	-6e-05	0.00026	3e-05	7e-05	-4e-05	7e-05	2
7832	0.00016	5e-05	-0.00013	-0.00019	-0.00017	9e-05	0.00039	0.00025	2
7833	0.00016	5e-05	-0.00013	-0.00019	-0.00017	9e-05	0.00039	0.00025	2
7834	0.00016	5e-05	-0.00013	-0.00019	-0.00017	9e-05	0.00039	0.00025	2
7835	0.00016	5e-05	-0.00013	-0.00019	-0.00017	9e-05	0.00039	0.00025	2
7836	0.00016	5e-05	-0.00013	-0.00019	-0.00017	9e-05	0.00039	0.00025	2
7838	0.00016	5e-05	-0.00013	-0.00019	-0.00017	9e-05	0.00039	0.00025	2
7839	0.00016	5e-05	-0.00013	-0.00019	-0.00017	9e-05	0.00039	0.00025	2
7840	0.00016	5e-05	-0.00013	-0.00019	-0.00017	9e-05	0.00039	0.00025	2
7841	0.00016	5e-05	-0.00013	-0.00019	-0.00017	9e-05	0.00039	0.00025	2
7842	0.00016	5e-05	-0.00013	-0.00019	-0.00017	9e-05	0.00039	0.00025	2
7843	0.00016	5e-05	-0.00013	-0.00019	-0.00017	9e-05	0.00039	0.00025	2
7844	0.00016	5e-05	-0.00013	-0.00019	-0.00017	9e-05	0.00039	0.00025	2
7845	0.00016	5e-05	-0.00013	-0.00019	-0.00017	9e-05	0.00039	0.00025	2
7846	0.00016	5e-05	-0.00013	-0.00019	-0.00017	9e-05	0.00039	0.00025	2
7847	0.00016	5e-05	-0.00013	-0.00019	-0.00017	9e-05	0.00039	0.00025	2
7848	0.00016	5e-05	-0.00013	-0.00019	-0.00017	9e-05	0.00039	0.00025	2
7849	0.00016	5e-05	-0.00013	-0.00019	-0.00017	9e-05	0.00039	0.00025	2
7850	0.00016	5e-05	-0.00013	-0.00019	-0.00017	9e-05	0.00039	0.00025	2
7851	0.00016	5e-05	-0.00013	-0.00019	-0.00017	9e-05	0.00039	0.00025	2
7852	0.00016	5e-05	-0.00013	-0.00019	-0.00017	9e-05	0.00039	0.00025	2
7853	0.00016	5e-05	-0.00013	-0.00019	-0.00017	9e-05	0.00039	0.00025	2
7854	0.00016	5e-05	-0.00013	-0.00019	-0.00017	9e-05	0.00039	0.00025	2
7855	0.00016	5e-05	-0.00013	-0.00019	-0.00017	9e-05	0.00039	0.00025	2
7856	0.00016	5e-05	-0.00013	-0.00019	-0.00017	9e-05	0.00039	0.00025	2
7857	0.00016	5e-05	-0.00013	-0.00019	-0.00017	9e-05	0.00039	0.00025	2
7858	0.00016	5e-05	-0.00013	-0.00019	-0.00017	9e-05	0.00039	0.00025	2
7859	-7e-05	0	-4e-05	0.00014	4e-05	-0.00025	-0.00044	-5e-05	2
7860	-0.00054	-0.00061	0	-8e-05	0.00013	0.00051	0.00029	-0.00011	2
7861	-7e-05	0.00036	5e-05	-0.0001	3e-05	-0.00012	7e-05	1e-05	2
7862	-7e-05	0.00036	5e-05	-0.0001	3e-05	-0.00012	7e-05	1e-05	2
7863	-7e-05	0.00036	5e-05	-0.0001	3e-05	-0.00012	7e-05	1e-05	2
7864	-7e-05	0.00036	5e-05	-0.0001	3e-05	-0.00012	7e-05	1e-05	2
7865	-7e-05	0.00036	5e-05	-0.0001	3e-05	-0.00012	7e-05	1e-05	2
7866	6e-05	0.00012	-3e-05	-0.00016	-2e-05	2e-05	6e-05	5e-05	2
7867	6e-05	0.00012	-3e-05	-0.00016	-2e-05	2e-05	6e-05	5e-05	2
7868	0.0001	0.00023	-7e-05	0	0.00012	-5e-05	0.00014	-3e-05	2
7869	0.0001	0.00023	-7e-05	0	0.00012	-5e-05	0.00014	-3e-05	2
7870	0.0001	0.00023	-7e-05	0	0.00012	-5e-05	0.00014	-3e-05	2
7871	0.0001	0.00023	-7e-05	0	0.00012	-5e-05	0.00014	-3e-05	2
7872	0.0001	0.00023	-7e-05	0	0.00012	-5e-05	0.00014	-3e-05	2
7873	0.0001	0.00023	-7e-05	0	0.00012	-5e-05	0.00014	-3e-05	2
7874	0.0001	0.00023	-7e-05	0	0.00012	-5e-05	0.00014	-3e-05	2
7875	0.0001	0.00023	-7e-05	0	0.00012	-5e-05	0.00014	-3e-05	2
7876	0.0001	0.00023	-7e-05	0	0.00012	-5e-05	0.00014	-3e-05	2
7877	0.0001	0.00023	-7e-05	0	0.00012	-5e-05	0.00014	-3e-05	2
7878	0.0001	0.00023	-7e-05	0	0.00012	-5e-05	0.00014	-3e-05	2
7879	0.0001	0.00023	-7e-05	0	0.00012	-5e-05	0.00014	-3e-05	2
7880	0.0001	0.00023	-7e-05	0	0.00012	-5e-05	0.00014	-3e-05	2
7881	0.0001	0.00023	-7e-05	0	0.00012	-5e-05	0.00014	-3e-05	2
7882	0.0001	0.00023	-7e-05	0	0.00012	-5e-05	0.00014	-3e-05	2
7883	0.0001	0.00023	-7e-05	0	0.00012	-5e-05	0.00014	-3e-05	2
7884	0.0001	0.00023	-7e-05	0	0.00012	-5e-05	0.00014	-3e-05	2
7885	0.0001	0.00023	-7e-05	0	0.00012	-5e-05	0.00014	-3e-05	2
7886	0.0001	0.00023	-7e-05	0	0.00012	-5e-05	0.00014	-3e-05	2
7888	0.0001	0.00023	-7e-05	0	0.00012	-5e-05	0.00014	-3e-05	2
7889	-0.00012	6e-05	0.00011	4e-05	-0.00012	2e-05	6e-05	6e-05	2
7890	-0.00012	6e-05	0.00011	4e-05	-0.00012	2e-05	6e-05	6e-05	2
7891	-0.00012	6e-05	0.00011	4e-05	-0.00012	2e-05	6e-05	6e-05	2
7892	-0.00012	6e-05	0.00011	4e-05	-0.00012	2e-05	6e-05	6e-05	2
7893	-0.00012	6e-05	0.00011	4e-05	-0.00012	2e-05	6e-05	6e-05	2
7894	-0.00012	6e-05	0.00011	4e-05	-0.00012	2e-05	6e-05	6e-05	2
7895	0.00021	0.00021	1e-05	-5e-05	-0.00015	7e-05	-5e-05	3e-05	2
7896	0.00021	0.00021	1e-05	-5e-05	-0.00015	7e-05	-5e-05	3e-05	2
7897	0.00021	0.00021	1e-05	-5e-05	-0.00015	7e-05	-5e-05	3e-05	2
7898	0.00021	0.00021	1e-05	-5e-05	-0.00015	7e-05	-5e-05	3e-05	2
7899	0.00021	0.00021	1e-05	-5e-05	-0.00015	7e-05	-5e-05	3e-05	2
7900	0.00021	0.00021	1e-05	-5e-05	-0.00015	7e-05	-5e-05	3e-05	2
7901	0.00021	0.00021	1e-05	-5e-05	-0.00015	7e-05	-5e-05	3e-05	2
7902	0.00021	0.00021	1e-05	-5e-05	-0.00015	7e-05	-5e-05	3e-05	2
7903	7e-05	0.00026	-5e-05	-0.00044	-0.0001	-0.00016	-0.0003	-0.00021	2
7904	7e-05	0.00026	-5e-05	-0.00044	-0.0001	-0.00016	-0.0003	-0.00021	2
7905	7e-05	0.00026	-5e-05	-0.00044	-0.0001	-0.00016	-0.0003	-0.00021	2
7906	7e-05	0.00026	-5e-05	-0.00044	-0.0001	-0.00016	-0.0003	-0.00021	2
7907	7e-05	0.00026	-5e-05	-0.00044	-0.0001	-0.00016	-0.0003	-0.00021	2
7908	7e-05	0.00026	-5e-05	-0.00044	-0.0001	-0.00016	-0.0003	-0.00021	2
7909	7e-05	0.00026	-5e-05	-0.00044	-0.0001	-0.00016	-0.0003	-0.00021	2
7910	-6e-05	-0.00069	-4e-05	0.00018	0.00025	0.00017	-0.00029	-6e-05	2
7911	-6e-05	-0.00069	-4e-05	0.00018	0.00025	0.00017	-0.00029	-6e-05	2
7912	-6e-05	-0.00069	-4e-05	0.00018	0.00025	0.00017	-0.00029	-6e-05	2
7913	-6e-05	-0.00069	-4e-05	0.00018	0.00025	0.00017	-0.00029	-6e-05	2
7914	-6e-05	-0.00069	-4e-05	0.00018	0.00025	0.00017	-0.00029	-6e-05	2
7915	-6e-05	-0.00069	-4e-05	0.00018	0.00025	0.00017	-0.00029	-6e-05	2
7916	-6e-05	-0.00069	-4e-05	0.00018	0.00025	0.00017	-0.00029	-6e-05	2
7917	-6e-05	-0.00069	-4e-05	0.00018	0.00025	0.00017	-0.00029	-6e-05	2
7918	-6e-05	-0.00069	-4e-05	0.00018	0.00025	0.00017	-0.00029	-6e-05	2
7919	-6e-05	-0.00069	-4e-05	0.00018	0.00025	0.00017	-0.00029	-6e-05	2
7920	-6e-05	-0.00069	-4e-05	0.00018	0.00025	0.00017	-0.00029	-6e-05	2
7921	-6e-05	-0.00069	-4e-05	0.00018	0.00025	0.00017	-0.00029	-6e-05	2
7922	-6e-05	-0.00069	-4e-05	0.00018	0.00025	0.00017	-0.00029	-6e-05	2
7923	-6e-05	-0.00069	-4e-05	0.00018	0.00025	0.00017	-0.00029	-6e-05	2
7924	-6e-05	-0.00069	-4e-05	0.00018	0.00025	0.00017	-0.00029	-6e-05	2
7925	-6e-05	-0.00069	-4e-05	0.00018	0.00025	0.00017	-0.00029	-6e-05	2
7926	-0.00014	0.00013	-0.00015	-0.0001	-2e-05	-7e-05	-4e-05	3e-05	2
7927	0.00028	0.0004	8e-05	-0.00012	-0.00034	-2e-05	0	0	2
7928	-0.00027	-4e-05	-5e-05	-0.00012	-0.00026	-0.00035	-0.00022	-0.0001	2
7929	-0.00027	-4e-05	-5e-05	-0.00012	-0.00026	-0.00035	-0.00022	-0.0001	2
7930	-0.00027	-4e-05	-5e-05	-0.00012	-0.00026	-0.00035	-0.00022	-0.0001	2
7931	-0.00027	-4e-05	-5e-05	-0.00012	-0.00026	-0.00035	-0.00022	-0.0001	2
7932	-0.00027	-4e-05	-5e-05	-0.00012	-0.00026	-0.00035	-0.00022	-0.0001	2
7933	-0.00027	-4e-05	-5e-05	-0.00012	-0.00026	-0.00035	-0.00022	-0.0001	2
7934	-0.00027	-4e-05	-5e-05	-0.00012	-0.00026	-0.00035	-0.00022	-0.0001	2
7935	-0.00027	-4e-05	-5e-05	-0.00012	-0.00026	-0.00035	-0.00022	-0.0001	2
7936	-0.00027	-4e-05	-5e-05	-0.00012	-0.00026	-0.00035	-0.00022	-0.0001	2
7938	-0.00027	-4e-05	-5e-05	-0.00012	-0.00026	-0.00035	-0.00022	-0.0001	2
7939	-0.00027	-4e-05	-5e-05	-0.00012	-0.00026	-0.00035	-0.00022	-0.0001	2
7940	-0.00027	-4e-05	-5e-05	-0.00012	-0.00026	-0.00035	-0.00022	-0.0001	2
7941	-0.00027	-4e-05	-5e-05	-0.00012	-0.00026	-0.00035	-0.00022	-0.0001	2
7942	-0.00027	-4e-05	-5e-05	-0.00012	-0.00026	-0.00035	-0.00022	-0.0001	2
7943	-0.00027	-4e-05	-5e-05	-0.00012	-0.00026	-0.00035	-0.00022	-0.0001	2
7944	-0.00027	-4e-05	-5e-05	-0.00012	-0.00026	-0.00035	-0.00022	-0.0001	2
7945	-0.00027	-4e-05	-5e-05	-0.00012	-0.00026	-0.00035	-0.00022	-0.0001	2
7946	-0.00027	-4e-05	-5e-05	-0.00012	-0.00026	-0.00035	-0.00022	-0.0001	2
7947	-0.00027	-4e-05	-5e-05	-0.00012	-0.00026	-0.00035	-0.00022	-0.0001	2
7948	-0.00027	-4e-05	-5e-05	-0.00012	-0.00026	-0.00035	-0.00022	-0.0001	2
7949	-0.00027	-4e-05	-5e-05	-0.00012	-0.00026	-0.00035	-0.00022	-0.0001	2
7950	-0.00027	-4e-05	-5e-05	-0.00012	-0.00026	-0.00035	-0.00022	-0.0001	2
7951	-0.00027	-4e-05	-5e-05	-0.00012	-0.00026	-0.00035	-0.00022	-0.0001	2
7952	-0.00027	-4e-05	-5e-05	-0.00012	-0.00026	-0.00035	-0.00022	-0.0001	2
7953	-0.00027	-4e-05	-5e-05	-0.00012	-0.00026	-0.00035	-0.00022	-0.0001	2
7954	-0.00027	-4e-05	-5e-05	-0.00012	-0.00026	-0.00035	-0.00022	-0.0001	2
7955	-0.00027	-4e-05	-5e-05	-0.00012	-0.00026	-0.00035	-0.00022	-0.0001	2
7956	0.0003	2e-05	9e-05	0.00052	0.00033	2e-05	-0.00018	-4e-05	2
7957	-0.00026	-0.00012	-0.00033	-0.00091	-0.0001	9e-05	0.00026	-0.00011	2
7958	-6e-05	0.00016	0.00019	0.00015	0.00038	-9e-05	-0.0003	-0.00016	2
7959	-6e-05	0.00016	0.00019	0.00015	0.00038	-9e-05	-0.0003	-0.00016	2
7960	-6e-05	0.00016	0.00019	0.00015	0.00038	-9e-05	-0.0003	-0.00016	2
7961	-6e-05	0.00016	0.00019	0.00015	0.00038	-9e-05	-0.0003	-0.00016	2
7962	-6e-05	0.00016	0.00019	0.00015	0.00038	-9e-05	-0.0003	-0.00016	2
7963	5e-05	-6e-05	-1e-05	0.00022	-0.00024	-2e-05	0.00015	3e-05	2
7964	5e-05	-6e-05	-1e-05	0.00022	-0.00024	-2e-05	0.00015	3e-05	2
7965	5e-05	-6e-05	-1e-05	0.00022	-0.00024	-2e-05	0.00015	3e-05	2
7966	5e-05	-6e-05	-1e-05	0.00022	-0.00024	-2e-05	0.00015	3e-05	2
7967	5e-05	-6e-05	-1e-05	0.00022	-0.00024	-2e-05	0.00015	3e-05	2
7968	5e-05	-6e-05	-1e-05	0.00022	-0.00024	-2e-05	0.00015	3e-05	2
7969	5e-05	-6e-05	-1e-05	0.00022	-0.00024	-2e-05	0.00015	3e-05	2
7970	0.00018	0.00014	-0.00013	-8e-05	-7e-05	-2e-05	0.00026	7e-05	2
7971	0.00018	0.00014	-0.00013	-8e-05	-7e-05	-2e-05	0.00026	7e-05	2
7972	0.00018	0.00014	-0.00013	-8e-05	-7e-05	-2e-05	0.00026	7e-05	2
7973	0.00018	0.00014	-0.00013	-8e-05	-7e-05	-2e-05	0.00026	7e-05	2
7974	0.00018	0.00014	-0.00013	-8e-05	-7e-05	-2e-05	0.00026	7e-05	2
7975	0.00018	0.00014	-0.00013	-8e-05	-7e-05	-2e-05	0.00026	7e-05	2
7976	0.00018	0.00014	-0.00013	-8e-05	-7e-05	-2e-05	0.00026	7e-05	2
7977	0.00018	0.00014	-0.00013	-8e-05	-7e-05	-2e-05	0.00026	7e-05	2
7978	0.00018	0.00014	-0.00013	-8e-05	-7e-05	-2e-05	0.00026	7e-05	2
7979	0.00018	0.00014	-0.00013	-8e-05	-7e-05	-2e-05	0.00026	7e-05	2
7980	0.00018	0.00014	-0.00013	-8e-05	-7e-05	-2e-05	0.00026	7e-05	2
7981	0.00018	0.00014	-0.00013	-8e-05	-7e-05	-2e-05	0.00026	7e-05	2
7982	0.00018	0.00014	-0.00013	-8e-05	-7e-05	-2e-05	0.00026	7e-05	2
7983	0.00018	0.00014	-0.00013	-8e-05	-7e-05	-2e-05	0.00026	7e-05	2
7984	0.00018	0.00014	-0.00013	-8e-05	-7e-05	-2e-05	0.00026	7e-05	2
7985	0.00018	0.00014	-0.00013	-8e-05	-7e-05	-2e-05	0.00026	7e-05	2
7986	0.00018	0.00014	-0.00013	-8e-05	-7e-05	-2e-05	0.00026	7e-05	2
7988	0.00013	0.0003	0.00011	0.0002	-3e-05	0	5e-05	0.0001	2
7989	0.00013	0.0003	0.00011	0.0002	-3e-05	0	5e-05	0.0001	2
7990	0.00013	0.0003	0.00011	0.0002	-3e-05	0	5e-05	0.0001	2
7991	0.00013	0.0003	0.00011	0.0002	-3e-05	0	5e-05	0.0001	2
7992	0.00013	0.0003	0.00011	0.0002	-3e-05	0	5e-05	0.0001	2
7993	0.00013	0.0003	0.00011	0.0002	-3e-05	0	5e-05	0.0001	2
7994	0.00013	0.0003	0.00011	0.0002	-3e-05	0	5e-05	0.0001	2
7995	0.00013	0.0003	0.00011	0.0002	-3e-05	0	5e-05	0.0001	2
7996	0.00013	0.0003	0.00011	0.0002	-3e-05	0	5e-05	0.0001	2
7997	0.00013	0.0003	0.00011	0.0002	-3e-05	0	5e-05	0.0001	2
7998	0.00013	0.0003	0.00011	0.0002	-3e-05	0	5e-05	0.0001	2
7999	0.00013	0.0003	0.00011	0.0002	-3e-05	0	5e-05	0.0001	2
8000	0.00013	0.0003	0.00011	0.0002	-3e-05	0	5e-05	0.0001	2
8001	0.00013	0.0003	0.00011	0.0002	-3e-05	0	5e-05	0.0001	2
8002	0.00013	0.0003	0.00011	0.0002	-3e-05	0	5e-05	0.0001	2
8003	0.00013	0.0003	0.00011	0.0002	-3e-05	0	5e-05	0.0001	2
8004	0.00013	0.0003	0.00011	0.0002	-3e-05	0	5e-05	0.0001	2
8005	0.00013	0.0003	0.00011	0.0002	-3e-05	0	5e-05	0.0001	2
8006	0.00013	0.0003	0.00011	0.0002	-3e-05	0	5e-05	0.0001	2
8007	0.00013	0.0003	0.00011	0.0002	-3e-05	0	5e-05	0.0001	2
8008	0.00013	0.0003	0.00011	0.0002	-3e-05	0	5e-05	0.0001	2
8009	0.00017	-0.00018	9e-05	0.00015	-0.0002	-5e-05	0.00022	5e-05	2
8010	0.00017	-0.00018	9e-05	0.00015	-0.0002	-5e-05	0.00022	5e-05	2
8011	0.00017	-0.00018	9e-05	0.00015	-0.0002	-5e-05	0.00022	5e-05	2
8012	0.00017	-0.00018	9e-05	0.00015	-0.0002	-5e-05	0.00022	5e-05	2
8013	0.00017	-0.00018	9e-05	0.00015	-0.0002	-5e-05	0.00022	5e-05	2
8014	0.00017	-0.00018	9e-05	0.00015	-0.0002	-5e-05	0.00022	5e-05	2
8015	-8e-05	0.00022	-0.00013	-0.00028	6e-05	-0.00028	-0.00024	-8e-05	2
8016	-8e-05	0.00022	-0.00013	-0.00028	6e-05	-0.00028	-0.00024	-8e-05	2
8017	-8e-05	0.00022	-0.00013	-0.00028	6e-05	-0.00028	-0.00024	-8e-05	2
8018	-8e-05	0.00022	-0.00013	-0.00028	6e-05	-0.00028	-0.00024	-8e-05	2
8019	-8e-05	0.00022	-0.00013	-0.00028	6e-05	-0.00028	-0.00024	-8e-05	2
8020	-8e-05	0.00022	-0.00013	-0.00028	6e-05	-0.00028	-0.00024	-8e-05	2
8021	-8e-05	0.00022	-0.00013	-0.00028	6e-05	-0.00028	-0.00024	-8e-05	2
8022	-8e-05	0.00022	-0.00013	-0.00028	6e-05	-0.00028	-0.00024	-8e-05	2
8023	0.0001	-0.00014	0.00011	0.00017	-1e-05	0.00049	0.00022	0.00021	2
8024	0.0001	-0.00014	0.00011	0.00017	-1e-05	0.00049	0.00022	0.00021	2
8025	0.0001	-0.00014	0.00011	0.00017	-1e-05	0.00049	0.00022	0.00021	2
8026	0.0001	-0.00014	0.00011	0.00017	-1e-05	0.00049	0.00022	0.00021	2
8027	0.0001	-0.00014	0.00011	0.00017	-1e-05	0.00049	0.00022	0.00021	2
8028	0.0001	-0.00014	0.00011	0.00017	-1e-05	0.00049	0.00022	0.00021	2
8029	0.0001	-0.00014	0.00011	0.00017	-1e-05	0.00049	0.00022	0.00021	2
8030	0.0001	-0.00014	0.00011	0.00017	-1e-05	0.00049	0.00022	0.00021	2
8031	0.0001	-0.00014	0.00011	0.00017	-1e-05	0.00049	0.00022	0.00021	2
8032	0	-0.00013	3e-05	-0.0001	8e-05	0.00021	0.00026	-6e-05	2
8033	0	-0.00013	3e-05	-0.0001	8e-05	0.00021	0.00026	-6e-05	2
8034	0	-0.00013	3e-05	-0.0001	8e-05	0.00021	0.00026	-6e-05	2
8035	0	-0.00013	3e-05	-0.0001	8e-05	0.00021	0.00026	-6e-05	2
8036	0	-0.00013	3e-05	-0.0001	8e-05	0.00021	0.00026	-6e-05	2
8038	0	-0.00013	3e-05	-0.0001	8e-05	0.00021	0.00026	-6e-05	2
8039	0	-0.00013	3e-05	-0.0001	8e-05	0.00021	0.00026	-6e-05	2
8040	0	-0.00013	3e-05	-0.0001	8e-05	0.00021	0.00026	-6e-05	2
8041	0	-0.00013	3e-05	-0.0001	8e-05	0.00021	0.00026	-6e-05	2
8042	0	-0.00013	3e-05	-0.0001	8e-05	0.00021	0.00026	-6e-05	2
8043	0	-0.00013	3e-05	-0.0001	8e-05	0.00021	0.00026	-6e-05	2
8044	0	-0.00013	3e-05	-0.0001	8e-05	0.00021	0.00026	-6e-05	2
8045	0	-0.00013	3e-05	-0.0001	8e-05	0.00021	0.00026	-6e-05	2
8046	0.0002	0.00026	0.00014	0.00018	0.00036	0.00029	0.00018	0.00016	2
8047	-0.00011	-3e-05	-0.00016	5e-05	4e-05	-0.0001	-0.00031	-0.00011	2
8048	3e-05	3e-05	-0.00013	-0.00035	-0.00029	0.00021	0.00019	-4e-05	2
8049	3e-05	3e-05	-0.00013	-0.00035	-0.00029	0.00021	0.00019	-4e-05	2
8050	3e-05	3e-05	-0.00013	-0.00035	-0.00029	0.00021	0.00019	-4e-05	2
8051	3e-05	3e-05	-0.00013	-0.00035	-0.00029	0.00021	0.00019	-4e-05	2
8052	3e-05	3e-05	-0.00013	-0.00035	-0.00029	0.00021	0.00019	-4e-05	2
8053	3e-05	3e-05	-0.00013	-0.00035	-0.00029	0.00021	0.00019	-4e-05	2
8054	3e-05	3e-05	-0.00013	-0.00035	-0.00029	0.00021	0.00019	-4e-05	2
8055	3e-05	3e-05	-0.00013	-0.00035	-0.00029	0.00021	0.00019	-4e-05	2
8056	3e-05	3e-05	-0.00013	-0.00035	-0.00029	0.00021	0.00019	-4e-05	2
8057	3e-05	3e-05	-0.00013	-0.00035	-0.00029	0.00021	0.00019	-4e-05	2
8058	3e-05	3e-05	-0.00013	-0.00035	-0.00029	0.00021	0.00019	-4e-05	2
8059	3e-05	3e-05	-0.00013	-0.00035	-0.00029	0.00021	0.00019	-4e-05	2
8060	3e-05	3e-05	-0.00013	-0.00035	-0.00029	0.00021	0.00019	-4e-05	2
8061	3e-05	3e-05	-0.00013	-0.00035	-0.00029	0.00021	0.00019	-4e-05	2
8062	3e-05	3e-05	-0.00013	-0.00035	-0.00029	0.00021	0.00019	-4e-05	2
8063	3e-05	3e-05	-0.00013	-0.00035	-0.00029	0.00021	0.00019	-4e-05	2
8064	3e-05	3e-05	-0.00013	-0.00035	-0.00029	0.00021	0.00019	-4e-05	2
8065	3e-05	3e-05	-0.00013	-0.00035	-0.00029	0.00021	0.00019	-4e-05	2
8066	3e-05	3e-05	-0.00013	-0.00035	-0.00029	0.00021	0.00019	-4e-05	2
8067	3e-05	3e-05	-0.00013	-0.00035	-0.00029	0.00021	0.00019	-4e-05	2
8068	3e-05	3e-05	-0.00013	-0.00035	-0.00029	0.00021	0.00019	-4e-05	2
8069	-2e-05	-0.00021	6e-05	-3e-05	-5e-05	-6e-05	0.00029	5e-05	2
8070	-2e-05	-0.00021	6e-05	-3e-05	-5e-05	-6e-05	0.00029	5e-05	2
8071	0	-6e-05	-6e-05	-0.00064	-0.00025	-0.00016	-0.00015	1e-05	2
8072	0	-6e-05	-6e-05	-0.00064	-0.00025	-0.00016	-0.00015	1e-05	2
8073	0	-6e-05	-6e-05	-0.00064	-0.00025	-0.00016	-0.00015	1e-05	2
8074	0	-6e-05	-6e-05	-0.00064	-0.00025	-0.00016	-0.00015	1e-05	2
8075	0	-6e-05	-6e-05	-0.00064	-0.00025	-0.00016	-0.00015	1e-05	2
8076	0	-6e-05	-6e-05	-0.00064	-0.00025	-0.00016	-0.00015	1e-05	2
8077	0	-6e-05	-6e-05	-0.00064	-0.00025	-0.00016	-0.00015	1e-05	2
8078	0	-6e-05	-6e-05	-0.00064	-0.00025	-0.00016	-0.00015	1e-05	2
8079	0	-6e-05	-6e-05	-0.00064	-0.00025	-0.00016	-0.00015	1e-05	2
8080	0	-6e-05	-6e-05	-0.00064	-0.00025	-0.00016	-0.00015	1e-05	2
8081	0	-6e-05	-6e-05	-0.00064	-0.00025	-0.00016	-0.00015	1e-05	2
8082	0	-6e-05	-6e-05	-0.00064	-0.00025	-0.00016	-0.00015	1e-05	2
8083	-7e-05	1e-05	-6e-05	1e-05	-0.0001	-0.00027	-0.00038	5e-05	2
8084	-7e-05	1e-05	-6e-05	1e-05	-0.0001	-0.00027	-0.00038	5e-05	2
8085	-7e-05	1e-05	-6e-05	1e-05	-0.0001	-0.00027	-0.00038	5e-05	2
8086	-7e-05	1e-05	-6e-05	1e-05	-0.0001	-0.00027	-0.00038	5e-05	2
8088	-7e-05	1e-05	-6e-05	1e-05	-0.0001	-0.00027	-0.00038	5e-05	2
8089	-7e-05	1e-05	-6e-05	1e-05	-0.0001	-0.00027	-0.00038	5e-05	2
8090	-7e-05	1e-05	-6e-05	1e-05	-0.0001	-0.00027	-0.00038	5e-05	2
8091	-7e-05	1e-05	-6e-05	1e-05	-0.0001	-0.00027	-0.00038	5e-05	2
8092	-7e-05	1e-05	-6e-05	1e-05	-0.0001	-0.00027	-0.00038	5e-05	2
8093	-7e-05	1e-05	-6e-05	1e-05	-0.0001	-0.00027	-0.00038	5e-05	2
8094	-7e-05	1e-05	-6e-05	1e-05	-0.0001	-0.00027	-0.00038	5e-05	2
8095	-7e-05	1e-05	-6e-05	1e-05	-0.0001	-0.00027	-0.00038	5e-05	2
8096	-7e-05	1e-05	-6e-05	1e-05	-0.0001	-0.00027	-0.00038	5e-05	2
8097	-7e-05	1e-05	-6e-05	1e-05	-0.0001	-0.00027	-0.00038	5e-05	2
8098	-7e-05	1e-05	-6e-05	1e-05	-0.0001	-0.00027	-0.00038	5e-05	2
8099	0.00013	-0.00013	0.0003	0.00044	-0.00012	-0.00017	-5e-05	0.00019	2
8100	0.00013	-0.00013	0.0003	0.00044	-0.00012	-0.00017	-5e-05	0.00019	2
8101	0.00013	-0.00013	0.0003	0.00044	-0.00012	-0.00017	-5e-05	0.00019	2
8102	0.00013	-0.00013	0.0003	0.00044	-0.00012	-0.00017	-5e-05	0.00019	2
8103	0.00013	-0.00013	0.0003	0.00044	-0.00012	-0.00017	-5e-05	0.00019	2
8104	0.00013	-0.00013	0.0003	0.00044	-0.00012	-0.00017	-5e-05	0.00019	2
8105	0.00013	-0.00013	0.0003	0.00044	-0.00012	-0.00017	-5e-05	0.00019	2
8106	2e-05	9e-05	-3e-05	-1e-05	-0.00018	-8e-05	-1e-05	-6e-05	2
8107	2e-05	9e-05	-3e-05	-1e-05	-0.00018	-8e-05	-1e-05	-6e-05	2
8108	0.00036	0.00025	0.00013	6e-05	0.00022	0.00044	0.00089	0.00027	2
8109	0.00036	0.00025	0.00013	6e-05	0.00022	0.00044	0.00089	0.00027	2
8110	0.00036	0.00025	0.00013	6e-05	0.00022	0.00044	0.00089	0.00027	2
8111	0.00036	0.00025	0.00013	6e-05	0.00022	0.00044	0.00089	0.00027	2
8112	0.00036	0.00025	0.00013	6e-05	0.00022	0.00044	0.00089	0.00027	2
8113	0.00036	0.00025	0.00013	6e-05	0.00022	0.00044	0.00089	0.00027	2
8114	0.00036	0.00025	0.00013	6e-05	0.00022	0.00044	0.00089	0.00027	2
8115	0.00036	0.00025	0.00013	6e-05	0.00022	0.00044	0.00089	0.00027	2
8116	0.00036	0.00025	0.00013	6e-05	0.00022	0.00044	0.00089	0.00027	2
8117	0.00036	0.00025	0.00013	6e-05	0.00022	0.00044	0.00089	0.00027	2
8118	0.00036	0.00025	0.00013	6e-05	0.00022	0.00044	0.00089	0.00027	2
8119	0.00036	0.00025	0.00013	6e-05	0.00022	0.00044	0.00089	0.00027	2
8120	0.00036	0.00025	0.00013	6e-05	0.00022	0.00044	0.00089	0.00027	2
8121	0.00036	0.00025	0.00013	6e-05	0.00022	0.00044	0.00089	0.00027	2
8122	0.00036	0.00025	0.00013	6e-05	0.00022	0.00044	0.00089	0.00027	2
8123	0.00036	0.00025	0.00013	6e-05	0.00022	0.00044	0.00089	0.00027	2
8124	0.00036	0.00025	0.00013	6e-05	0.00022	0.00044	0.00089	0.00027	2
8125	0.00036	0.00025	0.00013	6e-05	0.00022	0.00044	0.00089	0.00027	2
8126	0.00036	0.00025	0.00013	6e-05	0.00022	0.00044	0.00089	0.00027	2
8127	0.00036	0.00025	0.00013	6e-05	0.00022	0.00044	0.00089	0.00027	2
8128	0.00036	0.00025	0.00013	6e-05	0.00022	0.00044	0.00089	0.00027	2
8129	0.00036	0.00025	0.00013	6e-05	0.00022	0.00044	0.00089	0.00027	2
8130	-0.00012	-0.00014	-2e-05	-0.00019	-0.0001	-0.00025	-0.00083	-0.0004	2
8131	-0.00064	-0.00014	-0.00018	-0.00029	-0.00041	-0.0003	0.00035	-0.00023	2
8132	-0.00064	-0.00014	-0.00018	-0.00029	-0.00041	-0.0003	0.00035	-0.00023	2
8133	-0.00064	-0.00014	-0.00018	-0.00029	-0.00041	-0.0003	0.00035	-0.00023	2
8134	-0.00064	-0.00014	-0.00018	-0.00029	-0.00041	-0.0003	0.00035	-0.00023	2
8135	-0.00064	-0.00014	-0.00018	-0.00029	-0.00041	-0.0003	0.00035	-0.00023	2
8136	-0.00064	-0.00014	-0.00018	-0.00029	-0.00041	-0.0003	0.00035	-0.00023	2
8138	-0.00064	-0.00014	-0.00018	-0.00029	-0.00041	-0.0003	0.00035	-0.00023	2
8139	-0.00064	-0.00014	-0.00018	-0.00029	-0.00041	-0.0003	0.00035	-0.00023	2
8140	-0.00064	-0.00014	-0.00018	-0.00029	-0.00041	-0.0003	0.00035	-0.00023	2
8141	-0.00064	-0.00014	-0.00018	-0.00029	-0.00041	-0.0003	0.00035	-0.00023	2
8142	-0.00064	-0.00014	-0.00018	-0.00029	-0.00041	-0.0003	0.00035	-0.00023	2
8143	5e-05	0.00011	0.00015	0.00014	0.00011	0.00022	0.00075	0.00035	2
8144	5e-05	0.00011	0.00015	0.00014	0.00011	0.00022	0.00075	0.00035	2
8145	5e-05	0.00011	0.00015	0.00014	0.00011	0.00022	0.00075	0.00035	2
8146	5e-05	0.00011	0.00015	0.00014	0.00011	0.00022	0.00075	0.00035	2
8147	5e-05	0.00011	0.00015	0.00014	0.00011	0.00022	0.00075	0.00035	2
8148	5e-05	0.00011	0.00015	0.00014	0.00011	0.00022	0.00075	0.00035	2
8149	5e-05	0.00011	0.00015	0.00014	0.00011	0.00022	0.00075	0.00035	2
8150	5e-05	0.00011	0.00015	0.00014	0.00011	0.00022	0.00075	0.00035	2
8151	5e-05	0.00011	0.00015	0.00014	0.00011	0.00022	0.00075	0.00035	2
8152	-0.00017	-0.00015	-0.00014	-8e-05	-0.00013	-0.00018	-0.00044	-0.00017	2
8153	-0.00017	-0.00015	-0.00014	-8e-05	-0.00013	-0.00018	-0.00044	-0.00017	2
8154	-0.00017	-0.00015	-0.00014	-8e-05	-0.00013	-0.00018	-0.00044	-0.00017	2
8155	-0.00017	-0.00015	-0.00014	-8e-05	-0.00013	-0.00018	-0.00044	-0.00017	2
8156	-0.00017	-0.00015	-0.00014	-8e-05	-0.00013	-0.00018	-0.00044	-0.00017	2
8157	-0.00017	-0.00015	-0.00014	-8e-05	-0.00013	-0.00018	-0.00044	-0.00017	2
8158	-0.00017	-0.00015	-0.00014	-8e-05	-0.00013	-0.00018	-0.00044	-0.00017	2
8159	-0.00017	-0.00015	-0.00014	-8e-05	-0.00013	-0.00018	-0.00044	-0.00017	2
8160	-0.00017	-0.00015	-0.00014	-8e-05	-0.00013	-0.00018	-0.00044	-0.00017	2
8161	-0.00017	-0.00015	-0.00014	-8e-05	-0.00013	-0.00018	-0.00044	-0.00017	2
8162	-0.00017	-0.00015	-0.00014	-8e-05	-0.00013	-0.00018	-0.00044	-0.00017	2
8163	-0.00017	-0.00015	-0.00014	-8e-05	-0.00013	-0.00018	-0.00044	-0.00017	2
8164	-0.00017	-0.00015	-0.00014	-8e-05	-0.00013	-0.00018	-0.00044	-0.00017	2
8165	-0.00017	-0.00015	-0.00014	-8e-05	-0.00013	-0.00018	-0.00044	-0.00017	2
8166	8e-05	5e-05	4e-05	2e-05	0.00012	4e-05	-3e-05	0.00016	2
8167	-3e-05	8e-05	-0.00015	0	-1e-05	0.00015	4e-05	-7e-05	2
8168	-0.00042	-0.0001	0.00013	0.00012	-0.00011	-0.00021	-0.00049	-0.00016	2
8169	-0.00042	-0.0001	0.00013	0.00012	-0.00011	-0.00021	-0.00049	-0.00016	2
8170	-0.00042	-0.0001	0.00013	0.00012	-0.00011	-0.00021	-0.00049	-0.00016	2
8171	-0.00042	-0.0001	0.00013	0.00012	-0.00011	-0.00021	-0.00049	-0.00016	2
8172	-0.00042	-0.0001	0.00013	0.00012	-0.00011	-0.00021	-0.00049	-0.00016	2
8173	-0.00042	-0.0001	0.00013	0.00012	-0.00011	-0.00021	-0.00049	-0.00016	2
8174	-0.00042	-0.0001	0.00013	0.00012	-0.00011	-0.00021	-0.00049	-0.00016	2
8175	-0.00042	-0.0001	0.00013	0.00012	-0.00011	-0.00021	-0.00049	-0.00016	2
8176	-0.00042	-0.0001	0.00013	0.00012	-0.00011	-0.00021	-0.00049	-0.00016	2
8177	-0.00042	-0.0001	0.00013	0.00012	-0.00011	-0.00021	-0.00049	-0.00016	2
8178	-0.00042	-0.0001	0.00013	0.00012	-0.00011	-0.00021	-0.00049	-0.00016	2
8179	-0.00042	-0.0001	0.00013	0.00012	-0.00011	-0.00021	-0.00049	-0.00016	2
8180	-0.00042	-0.0001	0.00013	0.00012	-0.00011	-0.00021	-0.00049	-0.00016	2
8181	-0.00042	-0.0001	0.00013	0.00012	-0.00011	-0.00021	-0.00049	-0.00016	2
8182	-0.00042	-0.0001	0.00013	0.00012	-0.00011	-0.00021	-0.00049	-0.00016	2
8183	-0.00042	-0.0001	0.00013	0.00012	-0.00011	-0.00021	-0.00049	-0.00016	2
8184	-0.00042	-0.0001	0.00013	0.00012	-0.00011	-0.00021	-0.00049	-0.00016	2
8185	-0.00042	-0.0001	0.00013	0.00012	-0.00011	-0.00021	-0.00049	-0.00016	2
8186	-0.00042	-0.0001	0.00013	0.00012	-0.00011	-0.00021	-0.00049	-0.00016	2
8188	-0.00042	-0.0001	0.00013	0.00012	-0.00011	-0.00021	-0.00049	-0.00016	2
8189	-0.00013	-0.00018	-0.0002	3e-05	-5e-05	-0.00014	-0.00045	-3e-05	2
8190	-0.00013	-0.00018	-0.0002	3e-05	-5e-05	-0.00014	-0.00045	-3e-05	2
8191	0.00027	0.00011	2e-05	-6e-05	-9e-05	2e-05	-0.00037	-3e-05	2
8192	0.00027	0.00011	2e-05	-6e-05	-9e-05	2e-05	-0.00037	-3e-05	2
8193	0.00027	0.00011	2e-05	-6e-05	-9e-05	2e-05	-0.00037	-3e-05	2
8194	0.00027	0.00011	2e-05	-6e-05	-9e-05	2e-05	-0.00037	-3e-05	2
8195	0.00027	0.00011	2e-05	-6e-05	-9e-05	2e-05	-0.00037	-3e-05	2
8196	0.00027	0.00011	2e-05	-6e-05	-9e-05	2e-05	-0.00037	-3e-05	2
8197	0.00027	0.00011	2e-05	-6e-05	-9e-05	2e-05	-0.00037	-3e-05	2
8198	0.00027	0.00011	2e-05	-6e-05	-9e-05	2e-05	-0.00037	-3e-05	2
8199	0.00027	0.00011	2e-05	-6e-05	-9e-05	2e-05	-0.00037	-3e-05	2
8200	0.00027	0.00011	2e-05	-6e-05	-9e-05	2e-05	-0.00037	-3e-05	2
8201	0.00027	0.00011	2e-05	-6e-05	-9e-05	2e-05	-0.00037	-3e-05	2
8202	0.00027	0.00011	2e-05	-6e-05	-9e-05	2e-05	-0.00037	-3e-05	2
8203	1e-05	-1e-05	-0.00011	0.00011	0.00016	0.00029	0.00062	0.00022	2
8204	1e-05	-1e-05	-0.00011	0.00011	0.00016	0.00029	0.00062	0.00022	2
8205	1e-05	-1e-05	-0.00011	0.00011	0.00016	0.00029	0.00062	0.00022	2
8206	1e-05	-1e-05	-0.00011	0.00011	0.00016	0.00029	0.00062	0.00022	2
8207	1e-05	-1e-05	-0.00011	0.00011	0.00016	0.00029	0.00062	0.00022	2
8208	1e-05	-1e-05	-0.00011	0.00011	0.00016	0.00029	0.00062	0.00022	2
8209	1e-05	-1e-05	-0.00011	0.00011	0.00016	0.00029	0.00062	0.00022	2
8210	1e-05	-1e-05	-0.00011	0.00011	0.00016	0.00029	0.00062	0.00022	2
8211	1e-05	-1e-05	-0.00011	0.00011	0.00016	0.00029	0.00062	0.00022	2
8212	0.00014	-0.00018	-0.00021	-0.00023	-0.00032	-7e-05	0.00023	-7e-05	2
8213	0.00014	-0.00018	-0.00021	-0.00023	-0.00032	-7e-05	0.00023	-7e-05	2
8214	0.00014	-0.00018	-0.00021	-0.00023	-0.00032	-7e-05	0.00023	-7e-05	2
8215	0.00014	-0.00018	-0.00021	-0.00023	-0.00032	-7e-05	0.00023	-7e-05	2
8216	0.00014	-0.00018	-0.00021	-0.00023	-0.00032	-7e-05	0.00023	-7e-05	2
8217	0.00014	-0.00018	-0.00021	-0.00023	-0.00032	-7e-05	0.00023	-7e-05	2
8218	0.00014	-0.00018	-0.00021	-0.00023	-0.00032	-7e-05	0.00023	-7e-05	2
8219	0.00014	-0.00018	-0.00021	-0.00023	-0.00032	-7e-05	0.00023	-7e-05	2
8220	0.00014	-0.00018	-0.00021	-0.00023	-0.00032	-7e-05	0.00023	-7e-05	2
8221	0.00014	-0.00018	-0.00021	-0.00023	-0.00032	-7e-05	0.00023	-7e-05	2
8222	0.00014	-0.00018	-0.00021	-0.00023	-0.00032	-7e-05	0.00023	-7e-05	2
8223	0.00014	-0.00018	-0.00021	-0.00023	-0.00032	-7e-05	0.00023	-7e-05	2
8224	0.00014	-0.00018	-0.00021	-0.00023	-0.00032	-7e-05	0.00023	-7e-05	2
8225	0.00014	-0.00018	-0.00021	-0.00023	-0.00032	-7e-05	0.00023	-7e-05	2
8226	0.00014	-0.00018	-0.00021	-0.00023	-0.00032	-7e-05	0.00023	-7e-05	2
8227	0.00014	-0.00018	-0.00021	-0.00023	-0.00032	-7e-05	0.00023	-7e-05	2
8228	0.00014	-0.00018	-0.00021	-0.00023	-0.00032	-7e-05	0.00023	-7e-05	2
8229	0.00014	-0.00018	-0.00021	-0.00023	-0.00032	-7e-05	0.00023	-7e-05	2
8230	0.00014	-0.00018	-0.00021	-0.00023	-0.00032	-7e-05	0.00023	-7e-05	2
8231	0.00014	-0.00018	-0.00021	-0.00023	-0.00032	-7e-05	0.00023	-7e-05	2
8232	0.00014	-0.00018	-0.00021	-0.00023	-0.00032	-7e-05	0.00023	-7e-05	2
8233	0.00014	-0.00018	-0.00021	-0.00023	-0.00032	-7e-05	0.00023	-7e-05	2
8234	-4e-05	-0.00025	0.00021	0.00017	-0.00029	-0.00025	-0.00021	6e-05	2
8235	-4e-05	-0.00025	0.00021	0.00017	-0.00029	-0.00025	-0.00021	6e-05	2
8236	4e-05	-0.00024	0.00018	0.00034	-0.0001	2e-05	-0.00022	8e-05	2
8238	4e-05	-0.00024	0.00018	0.00034	-0.0001	2e-05	-0.00022	8e-05	2
8239	4e-05	-0.00024	0.00018	0.00034	-0.0001	2e-05	-0.00022	8e-05	2
8240	4e-05	-0.00024	0.00018	0.00034	-0.0001	2e-05	-0.00022	8e-05	2
8241	4e-05	-0.00024	0.00018	0.00034	-0.0001	2e-05	-0.00022	8e-05	2
8242	4e-05	-0.00024	0.00018	0.00034	-0.0001	2e-05	-0.00022	8e-05	2
8243	4e-05	-0.00024	0.00018	0.00034	-0.0001	2e-05	-0.00022	8e-05	2
8244	4e-05	-0.00024	0.00018	0.00034	-0.0001	2e-05	-0.00022	8e-05	2
8245	4e-05	-0.00024	0.00018	0.00034	-0.0001	2e-05	-0.00022	8e-05	2
8246	4e-05	-0.00024	0.00018	0.00034	-0.0001	2e-05	-0.00022	8e-05	2
8247	4e-05	-0.00024	0.00018	0.00034	-0.0001	2e-05	-0.00022	8e-05	2
8248	4e-05	-0.00024	0.00018	0.00034	-0.0001	2e-05	-0.00022	8e-05	2
8249	0	2e-05	5e-05	-0.00011	-2e-05	-0.0001	-0.00053	-0.00023	2
8250	0	2e-05	5e-05	-0.00011	-2e-05	-0.0001	-0.00053	-0.00023	2
8251	-8e-05	7e-05	1e-05	0.00012	-0.00016	-0.00034	-0.00042	-0.00025	2
8252	-8e-05	7e-05	1e-05	0.00012	-0.00016	-0.00034	-0.00042	-0.00025	2
8253	-8e-05	7e-05	1e-05	0.00012	-0.00016	-0.00034	-0.00042	-0.00025	2
8254	-8e-05	7e-05	1e-05	0.00012	-0.00016	-0.00034	-0.00042	-0.00025	2
8255	-8e-05	7e-05	1e-05	0.00012	-0.00016	-0.00034	-0.00042	-0.00025	2
8256	-8e-05	7e-05	1e-05	0.00012	-0.00016	-0.00034	-0.00042	-0.00025	2
8257	-8e-05	7e-05	1e-05	0.00012	-0.00016	-0.00034	-0.00042	-0.00025	2
8258	-8e-05	7e-05	1e-05	0.00012	-0.00016	-0.00034	-0.00042	-0.00025	2
8259	-8e-05	7e-05	1e-05	0.00012	-0.00016	-0.00034	-0.00042	-0.00025	2
8260	-8e-05	7e-05	1e-05	0.00012	-0.00016	-0.00034	-0.00042	-0.00025	2
8261	-8e-05	7e-05	1e-05	0.00012	-0.00016	-0.00034	-0.00042	-0.00025	2
8262	-8e-05	7e-05	1e-05	0.00012	-0.00016	-0.00034	-0.00042	-0.00025	2
8263	-0.00017	0	0.00011	0.00023	3e-05	-9e-05	-0.00013	-0.00014	2
8264	-0.00017	0	0.00011	0.00023	3e-05	-9e-05	-0.00013	-0.00014	2
8265	-0.00017	0	0.00011	0.00023	3e-05	-9e-05	-0.00013	-0.00014	2
8266	-0.00017	0	0.00011	0.00023	3e-05	-9e-05	-0.00013	-0.00014	2
8267	-0.00017	0	0.00011	0.00023	3e-05	-9e-05	-0.00013	-0.00014	2
8268	-0.00017	0	0.00011	0.00023	3e-05	-9e-05	-0.00013	-0.00014	2
8269	-0.00017	0	0.00011	0.00023	3e-05	-9e-05	-0.00013	-0.00014	2
8270	-0.00017	0	0.00011	0.00023	3e-05	-9e-05	-0.00013	-0.00014	2
8271	-0.00017	0	0.00011	0.00023	3e-05	-9e-05	-0.00013	-0.00014	2
8272	0.00029	0.00036	4e-05	0.00021	0.00022	0.00034	0.0006	0.00035	2
8273	0.00029	0.00036	4e-05	0.00021	0.00022	0.00034	0.0006	0.00035	2
8274	0.00029	0.00036	4e-05	0.00021	0.00022	0.00034	0.0006	0.00035	2
8275	0.00029	0.00036	4e-05	0.00021	0.00022	0.00034	0.0006	0.00035	2
8276	0.00029	0.00036	4e-05	0.00021	0.00022	0.00034	0.0006	0.00035	2
8277	0.00029	0.00036	4e-05	0.00021	0.00022	0.00034	0.0006	0.00035	2
8278	0.00029	0.00036	4e-05	0.00021	0.00022	0.00034	0.0006	0.00035	2
8279	0.00029	0.00036	4e-05	0.00021	0.00022	0.00034	0.0006	0.00035	2
8280	0.00029	0.00036	4e-05	0.00021	0.00022	0.00034	0.0006	0.00035	2
8281	0.00029	0.00036	4e-05	0.00021	0.00022	0.00034	0.0006	0.00035	2
8282	0.00029	0.00036	4e-05	0.00021	0.00022	0.00034	0.0006	0.00035	2
8283	0.00029	0.00036	4e-05	0.00021	0.00022	0.00034	0.0006	0.00035	2
8284	0.00029	0.00036	4e-05	0.00021	0.00022	0.00034	0.0006	0.00035	2
8285	0.00029	0.00036	4e-05	0.00021	0.00022	0.00034	0.0006	0.00035	2
8286	-0.0001	-0.00019	2e-05	0.00016	0.00024	8e-05	0.00038	-1e-05	2
8288	-1e-05	5e-05	1e-05	6e-05	-7e-05	0.00049	0.00037	0.00016	2
8289	-1e-05	5e-05	1e-05	6e-05	-7e-05	0.00049	0.00037	0.00016	2
8290	-1e-05	5e-05	1e-05	6e-05	-7e-05	0.00049	0.00037	0.00016	2
8291	-1e-05	5e-05	1e-05	6e-05	-7e-05	0.00049	0.00037	0.00016	2
8292	-1e-05	5e-05	1e-05	6e-05	-7e-05	0.00049	0.00037	0.00016	2
8293	-1e-05	5e-05	1e-05	6e-05	-7e-05	0.00049	0.00037	0.00016	2
8294	-1e-05	5e-05	1e-05	6e-05	-7e-05	0.00049	0.00037	0.00016	2
8295	-1e-05	5e-05	1e-05	6e-05	-7e-05	0.00049	0.00037	0.00016	2
8296	-1e-05	5e-05	1e-05	6e-05	-7e-05	0.00049	0.00037	0.00016	2
8297	-1e-05	5e-05	1e-05	6e-05	-7e-05	0.00049	0.00037	0.00016	2
8298	-1e-05	5e-05	1e-05	6e-05	-7e-05	0.00049	0.00037	0.00016	2
8299	-1e-05	5e-05	1e-05	6e-05	-7e-05	0.00049	0.00037	0.00016	2
8300	-1e-05	5e-05	1e-05	6e-05	-7e-05	0.00049	0.00037	0.00016	2
8301	-1e-05	5e-05	1e-05	6e-05	-7e-05	0.00049	0.00037	0.00016	2
8302	-1e-05	5e-05	1e-05	6e-05	-7e-05	0.00049	0.00037	0.00016	2
8303	-1e-05	5e-05	1e-05	6e-05	-7e-05	0.00049	0.00037	0.00016	2
8304	-1e-05	5e-05	1e-05	6e-05	-7e-05	0.00049	0.00037	0.00016	2
8305	-1e-05	5e-05	1e-05	6e-05	-7e-05	0.00049	0.00037	0.00016	2
8306	-1e-05	5e-05	1e-05	6e-05	-7e-05	0.00049	0.00037	0.00016	2
8307	-1e-05	5e-05	1e-05	6e-05	-7e-05	0.00049	0.00037	0.00016	2
8308	-1e-05	5e-05	1e-05	6e-05	-7e-05	0.00049	0.00037	0.00016	2
8309	-7e-05	-0.00076	-0.00026	-0.00013	0.00017	-9e-05	-4e-05	4e-05	2
8310	-7e-05	-0.00076	-0.00026	-0.00013	0.00017	-9e-05	-4e-05	4e-05	2
8311	-7e-05	-0.00076	-0.00026	-0.00013	0.00017	-9e-05	-4e-05	4e-05	2
8312	-7e-05	-0.00076	-0.00026	-0.00013	0.00017	-9e-05	-4e-05	4e-05	2
8313	-7e-05	-0.00076	-0.00026	-0.00013	0.00017	-9e-05	-4e-05	4e-05	2
8314	-7e-05	-0.00076	-0.00026	-0.00013	0.00017	-9e-05	-4e-05	4e-05	2
8315	-7e-05	-0.00076	-0.00026	-0.00013	0.00017	-9e-05	-4e-05	4e-05	2
8316	-7e-05	-0.00076	-0.00026	-0.00013	0.00017	-9e-05	-4e-05	4e-05	2
8317	-7e-05	-0.00076	-0.00026	-0.00013	0.00017	-9e-05	-4e-05	4e-05	2
8318	-7e-05	-0.00076	-0.00026	-0.00013	0.00017	-9e-05	-4e-05	4e-05	2
8319	-7e-05	-0.00076	-0.00026	-0.00013	0.00017	-9e-05	-4e-05	4e-05	2
8320	-7e-05	-0.00076	-0.00026	-0.00013	0.00017	-9e-05	-4e-05	4e-05	2
8321	-7e-05	-0.00076	-0.00026	-0.00013	0.00017	-9e-05	-4e-05	4e-05	2
8322	-7e-05	-0.00076	-0.00026	-0.00013	0.00017	-9e-05	-4e-05	4e-05	2
8323	-7e-05	-0.00076	-0.00026	-0.00013	0.00017	-9e-05	-4e-05	4e-05	2
8324	-7e-05	-0.00076	-0.00026	-0.00013	0.00017	-9e-05	-4e-05	4e-05	2
8325	-7e-05	-0.00076	-0.00026	-0.00013	0.00017	-9e-05	-4e-05	4e-05	2
8326	-7e-05	-0.00076	-0.00026	-0.00013	0.00017	-9e-05	-4e-05	4e-05	2
8327	-7e-05	-0.00076	-0.00026	-0.00013	0.00017	-9e-05	-4e-05	4e-05	2
8328	-7e-05	-0.00076	-0.00026	-0.00013	0.00017	-9e-05	-4e-05	4e-05	2
8329	-7e-05	-0.00076	-0.00026	-0.00013	0.00017	-9e-05	-4e-05	4e-05	2
8330	-7e-05	-0.00076	-0.00026	-0.00013	0.00017	-9e-05	-4e-05	4e-05	2
8331	-6e-05	5e-05	4e-05	4e-05	-0.00017	-0.00011	5e-05	-4e-05	2
8332	0.00023	0.00025	-1e-05	-0.00015	-4e-05	3e-05	6e-05	-0.00011	2
8333	0.00023	0.00025	-1e-05	-0.00015	-4e-05	3e-05	6e-05	-0.00011	2
8334	0.00023	0.00025	-1e-05	-0.00015	-4e-05	3e-05	6e-05	-0.00011	2
8335	0.00023	0.00025	-1e-05	-0.00015	-4e-05	3e-05	6e-05	-0.00011	2
8336	0.00023	0.00025	-1e-05	-0.00015	-4e-05	3e-05	6e-05	-0.00011	2
8338	0.00023	0.00025	-1e-05	-0.00015	-4e-05	3e-05	6e-05	-0.00011	2
8339	0.00023	0.00025	-1e-05	-0.00015	-4e-05	3e-05	6e-05	-0.00011	2
8340	0.00023	0.00025	-1e-05	-0.00015	-4e-05	3e-05	6e-05	-0.00011	2
8341	0.00023	0.00025	-1e-05	-0.00015	-4e-05	3e-05	6e-05	-0.00011	2
8342	0.00023	0.00025	-1e-05	-0.00015	-4e-05	3e-05	6e-05	-0.00011	2
8343	0.00023	0.00025	-1e-05	-0.00015	-4e-05	3e-05	6e-05	-0.00011	2
8344	0.00023	0.00025	-1e-05	-0.00015	-4e-05	3e-05	6e-05	-0.00011	2
8345	0.00023	0.00025	-1e-05	-0.00015	-4e-05	3e-05	6e-05	-0.00011	2
8346	0	-0.00015	-3e-05	-7e-05	-0.00024	-0.00011	-0.00068	-5e-05	2
8347	0.0002	3e-05	8e-05	6e-05	0.00024	0.00015	-1e-05	6e-05	2
8348	0.0002	3e-05	8e-05	6e-05	0.00024	0.00015	-1e-05	6e-05	2
8349	0.0002	3e-05	8e-05	6e-05	0.00024	0.00015	-1e-05	6e-05	2
8350	0.0002	3e-05	8e-05	6e-05	0.00024	0.00015	-1e-05	6e-05	2
8351	0.0002	3e-05	8e-05	6e-05	0.00024	0.00015	-1e-05	6e-05	2
8352	0.0002	3e-05	8e-05	6e-05	0.00024	0.00015	-1e-05	6e-05	2
8353	0.0002	3e-05	8e-05	6e-05	0.00024	0.00015	-1e-05	6e-05	2
8354	0.0002	3e-05	8e-05	6e-05	0.00024	0.00015	-1e-05	6e-05	2
8355	0.0002	3e-05	8e-05	6e-05	0.00024	0.00015	-1e-05	6e-05	2
8356	0.0002	3e-05	8e-05	6e-05	0.00024	0.00015	-1e-05	6e-05	2
8357	0.0002	3e-05	8e-05	6e-05	0.00024	0.00015	-1e-05	6e-05	2
8358	0.0002	3e-05	8e-05	6e-05	0.00024	0.00015	-1e-05	6e-05	2
8359	0.0002	3e-05	8e-05	6e-05	0.00024	0.00015	-1e-05	6e-05	2
8360	0.0002	3e-05	8e-05	6e-05	0.00024	0.00015	-1e-05	6e-05	2
8361	0.0002	3e-05	8e-05	6e-05	0.00024	0.00015	-1e-05	6e-05	2
8362	0.0002	3e-05	8e-05	6e-05	0.00024	0.00015	-1e-05	6e-05	2
8363	0.0002	3e-05	8e-05	6e-05	0.00024	0.00015	-1e-05	6e-05	2
8364	0.0002	3e-05	8e-05	6e-05	0.00024	0.00015	-1e-05	6e-05	2
8365	0.0002	3e-05	8e-05	6e-05	0.00024	0.00015	-1e-05	6e-05	2
8366	0.0002	3e-05	8e-05	6e-05	0.00024	0.00015	-1e-05	6e-05	2
8367	0.0002	3e-05	8e-05	6e-05	0.00024	0.00015	-1e-05	6e-05	2
8368	0.0002	3e-05	8e-05	6e-05	0.00024	0.00015	-1e-05	6e-05	2
8369	0.0002	3e-05	8e-05	6e-05	0.00024	0.00015	-1e-05	6e-05	2
8370	0.0002	3e-05	8e-05	6e-05	0.00024	0.00015	-1e-05	6e-05	2
8371	0.0002	3e-05	8e-05	6e-05	0.00024	0.00015	-1e-05	6e-05	2
8372	0.0002	3e-05	8e-05	6e-05	0.00024	0.00015	-1e-05	6e-05	2
8373	0.0002	3e-05	8e-05	6e-05	0.00024	0.00015	-1e-05	6e-05	2
8374	0.0002	3e-05	8e-05	6e-05	0.00024	0.00015	-1e-05	6e-05	2
8375	0.0002	3e-05	8e-05	6e-05	0.00024	0.00015	-1e-05	6e-05	2
8376	0.00036	0.00053	0.00018	-4e-05	0.00038	-5e-05	-0.00015	1e-05	2
8377	-5e-05	0.00027	3e-05	-3e-05	-0.00023	-6e-05	0.00022	0.00016	2
8378	-5e-05	0.00027	3e-05	-3e-05	-0.00023	-6e-05	0.00022	0.00016	2
8379	-5e-05	0.00027	3e-05	-3e-05	-0.00023	-6e-05	0.00022	0.00016	2
8380	-5e-05	0.00027	3e-05	-3e-05	-0.00023	-6e-05	0.00022	0.00016	2
8381	-5e-05	0.00027	3e-05	-3e-05	-0.00023	-6e-05	0.00022	0.00016	2
8382	-5e-05	0.00027	3e-05	-3e-05	-0.00023	-6e-05	0.00022	0.00016	2
8383	-5e-05	0.00027	3e-05	-3e-05	-0.00023	-6e-05	0.00022	0.00016	2
8384	-5e-05	0.00027	3e-05	-3e-05	-0.00023	-6e-05	0.00022	0.00016	2
8386	-5e-05	0.00027	3e-05	-3e-05	-0.00023	-6e-05	0.00022	0.00016	2
8387	-5e-05	0.00027	3e-05	-3e-05	-0.00023	-6e-05	0.00022	0.00016	2
8388	-5e-05	0.00027	3e-05	-3e-05	-0.00023	-6e-05	0.00022	0.00016	2
8389	-5e-05	0.00027	3e-05	-3e-05	-0.00023	-6e-05	0.00022	0.00016	2
8390	-5e-05	0.00027	3e-05	-3e-05	-0.00023	-6e-05	0.00022	0.00016	2
8391	5e-05	0.00014	0.00015	0.00021	0.00025	6e-05	-3e-05	0.0001	2
8392	0.00021	0.0003	0.00015	0.0003	0.00052	-2e-05	-0.00027	-0.00013	2
8393	0.00021	0.0003	0.00015	0.0003	0.00052	-2e-05	-0.00027	-0.00013	2
8394	0.00021	0.0003	0.00015	0.0003	0.00052	-2e-05	-0.00027	-0.00013	2
8395	0.00021	0.0003	0.00015	0.0003	0.00052	-2e-05	-0.00027	-0.00013	2
8396	0.00021	0.0003	0.00015	0.0003	0.00052	-2e-05	-0.00027	-0.00013	2
8397	0.00021	0.0003	0.00015	0.0003	0.00052	-2e-05	-0.00027	-0.00013	2
8398	0.00021	0.0003	0.00015	0.0003	0.00052	-2e-05	-0.00027	-0.00013	2
8399	0.00021	0.0003	0.00015	0.0003	0.00052	-2e-05	-0.00027	-0.00013	2
8400	0.00021	0.0003	0.00015	0.0003	0.00052	-2e-05	-0.00027	-0.00013	2
8401	0.00021	0.0003	0.00015	0.0003	0.00052	-2e-05	-0.00027	-0.00013	2
8402	0.00021	0.0003	0.00015	0.0003	0.00052	-2e-05	-0.00027	-0.00013	2
8403	0.00021	0.0003	0.00015	0.0003	0.00052	-2e-05	-0.00027	-0.00013	2
8404	0.00021	0.0003	0.00015	0.0003	0.00052	-2e-05	-0.00027	-0.00013	2
8405	0.00021	0.0003	0.00015	0.0003	0.00052	-2e-05	-0.00027	-0.00013	2
8406	0.00021	0.0003	0.00015	0.0003	0.00052	-2e-05	-0.00027	-0.00013	2
8407	-0.00033	-0.00025	-0.00012	2e-05	-6e-05	-0.00015	-0.00033	-9e-05	2
8408	-0.00033	-0.00025	-0.00012	2e-05	-6e-05	-0.00015	-0.00033	-9e-05	2
8409	-0.00027	-0.0001	-4e-05	-4e-05	0.0003	-0.00028	-0.00029	-0.00024	2
8410	-0.00027	-0.0001	-4e-05	-4e-05	0.0003	-0.00028	-0.00029	-0.00024	2
8411	-0.00027	-0.0001	-4e-05	-4e-05	0.0003	-0.00028	-0.00029	-0.00024	2
8412	-0.00027	-0.0001	-4e-05	-4e-05	0.0003	-0.00028	-0.00029	-0.00024	2
8413	-0.00027	-0.0001	-4e-05	-4e-05	0.0003	-0.00028	-0.00029	-0.00024	2
8414	-0.00027	-0.0001	-4e-05	-4e-05	0.0003	-0.00028	-0.00029	-0.00024	2
8415	-0.00027	-0.0001	-4e-05	-4e-05	0.0003	-0.00028	-0.00029	-0.00024	2
8416	-0.00027	-0.0001	-4e-05	-4e-05	0.0003	-0.00028	-0.00029	-0.00024	2
8417	-0.00027	-0.0001	-4e-05	-4e-05	0.0003	-0.00028	-0.00029	-0.00024	2
8418	-0.00027	-0.0001	-4e-05	-4e-05	0.0003	-0.00028	-0.00029	-0.00024	2
8419	-0.00027	-0.0001	-4e-05	-4e-05	0.0003	-0.00028	-0.00029	-0.00024	2
8420	-0.00027	-0.0001	-4e-05	-4e-05	0.0003	-0.00028	-0.00029	-0.00024	2
8421	-0.00027	-0.0001	-4e-05	-4e-05	0.0003	-0.00028	-0.00029	-0.00024	2
8422	-0.00027	-0.0001	-4e-05	-4e-05	0.0003	-0.00028	-0.00029	-0.00024	2
8423	-0.00027	-0.0001	-4e-05	-4e-05	0.0003	-0.00028	-0.00029	-0.00024	2
8424	-0.00027	-0.0001	-4e-05	-4e-05	0.0003	-0.00028	-0.00029	-0.00024	2
8425	-0.00027	-0.0001	-4e-05	-4e-05	0.0003	-0.00028	-0.00029	-0.00024	2
8426	-0.00027	-0.0001	-4e-05	-4e-05	0.0003	-0.00028	-0.00029	-0.00024	2
8427	-0.00027	-0.0001	-4e-05	-4e-05	0.0003	-0.00028	-0.00029	-0.00024	2
8428	-0.00013	1e-05	-8e-05	5e-05	0.00015	-0.00027	-0.0004	-2e-05	2
8429	-0.00029	-4e-05	-2e-05	0.00024	-9e-05	9e-05	0.0002	-0.00016	2
8430	-0.00029	-4e-05	-2e-05	0.00024	-9e-05	9e-05	0.0002	-0.00016	2
8431	-0.00029	-4e-05	-2e-05	0.00024	-9e-05	9e-05	0.0002	-0.00016	2
8432	-0.00029	-4e-05	-2e-05	0.00024	-9e-05	9e-05	0.0002	-0.00016	2
8433	-0.00029	-4e-05	-2e-05	0.00024	-9e-05	9e-05	0.0002	-0.00016	2
8434	-0.00029	-4e-05	-2e-05	0.00024	-9e-05	9e-05	0.0002	-0.00016	2
8435	-0.00029	-4e-05	-2e-05	0.00024	-9e-05	9e-05	0.0002	-0.00016	2
8436	-0.00029	-4e-05	-2e-05	0.00024	-9e-05	9e-05	0.0002	-0.00016	2
8438	-0.00029	-4e-05	-2e-05	0.00024	-9e-05	9e-05	0.0002	-0.00016	2
8439	-0.00029	-4e-05	-2e-05	0.00024	-9e-05	9e-05	0.0002	-0.00016	2
8440	-0.00029	-4e-05	-2e-05	0.00024	-9e-05	9e-05	0.0002	-0.00016	2
8441	-0.00029	-4e-05	-2e-05	0.00024	-9e-05	9e-05	0.0002	-0.00016	2
8442	-0.00029	-4e-05	-2e-05	0.00024	-9e-05	9e-05	0.0002	-0.00016	2
8443	-0.00029	-4e-05	-2e-05	0.00024	-9e-05	9e-05	0.0002	-0.00016	2
8444	-0.00029	-4e-05	-2e-05	0.00024	-9e-05	9e-05	0.0002	-0.00016	2
8445	-0.00029	-4e-05	-2e-05	0.00024	-9e-05	9e-05	0.0002	-0.00016	2
8446	-0.00029	-4e-05	-2e-05	0.00024	-9e-05	9e-05	0.0002	-0.00016	2
8447	-0.00029	-4e-05	-2e-05	0.00024	-9e-05	9e-05	0.0002	-0.00016	2
8448	-0.00029	-4e-05	-2e-05	0.00024	-9e-05	9e-05	0.0002	-0.00016	2
8449	-0.00029	-4e-05	-2e-05	0.00024	-9e-05	9e-05	0.0002	-0.00016	2
8450	-0.00029	-4e-05	-2e-05	0.00024	-9e-05	9e-05	0.0002	-0.00016	2
8451	-0.00021	-0.00034	-0.00022	-0.00052	-0.00038	-0.00019	0.00025	-0.00011	2
8452	0	-0.00054	-0.00018	0.00016	-0.00031	-0.00034	-0.00024	1e-05	2
8453	0	-0.00054	-0.00018	0.00016	-0.00031	-0.00034	-0.00024	1e-05	2
8454	0	-0.00054	-0.00018	0.00016	-0.00031	-0.00034	-0.00024	1e-05	2
8455	0	-0.00054	-0.00018	0.00016	-0.00031	-0.00034	-0.00024	1e-05	2
8456	0	-0.00054	-0.00018	0.00016	-0.00031	-0.00034	-0.00024	1e-05	2
8457	0	-0.00054	-0.00018	0.00016	-0.00031	-0.00034	-0.00024	1e-05	2
8458	0	-0.00054	-0.00018	0.00016	-0.00031	-0.00034	-0.00024	1e-05	2
8459	0	-0.00054	-0.00018	0.00016	-0.00031	-0.00034	-0.00024	1e-05	2
8460	0	-0.00054	-0.00018	0.00016	-0.00031	-0.00034	-0.00024	1e-05	2
8461	0	-0.00054	-0.00018	0.00016	-0.00031	-0.00034	-0.00024	1e-05	2
8462	0	-0.00054	-0.00018	0.00016	-0.00031	-0.00034	-0.00024	1e-05	2
8463	0	-0.00054	-0.00018	0.00016	-0.00031	-0.00034	-0.00024	1e-05	2
8464	0	-0.00054	-0.00018	0.00016	-0.00031	-0.00034	-0.00024	1e-05	2
8465	0	-0.00054	-0.00018	0.00016	-0.00031	-0.00034	-0.00024	1e-05	2
8466	0.0001	-4e-05	0.00015	0.00031	0.00093	0.00029	-0.00043	0	2
8467	0.00029	-2e-05	3e-05	3e-05	-0.00011	0.00014	8e-05	0.00011	2
8468	0.00029	-2e-05	3e-05	3e-05	-0.00011	0.00014	8e-05	0.00011	2
8469	0.00029	-2e-05	3e-05	3e-05	-0.00011	0.00014	8e-05	0.00011	2
8470	0.00029	-2e-05	3e-05	3e-05	-0.00011	0.00014	8e-05	0.00011	2
8471	0.00029	-2e-05	3e-05	3e-05	-0.00011	0.00014	8e-05	0.00011	2
8472	0.00029	-2e-05	3e-05	3e-05	-0.00011	0.00014	8e-05	0.00011	2
8473	0.00029	-2e-05	3e-05	3e-05	-0.00011	0.00014	8e-05	0.00011	2
8474	0.00029	-2e-05	3e-05	3e-05	-0.00011	0.00014	8e-05	0.00011	2
8475	0.00029	-2e-05	3e-05	3e-05	-0.00011	0.00014	8e-05	0.00011	2
8476	0.00029	-2e-05	3e-05	3e-05	-0.00011	0.00014	8e-05	0.00011	2
8477	0.00029	-2e-05	3e-05	3e-05	-0.00011	0.00014	8e-05	0.00011	2
8478	0.00029	-2e-05	3e-05	3e-05	-0.00011	0.00014	8e-05	0.00011	2
8479	0.00029	-2e-05	3e-05	3e-05	-0.00011	0.00014	8e-05	0.00011	2
8480	0.00029	-2e-05	3e-05	3e-05	-0.00011	0.00014	8e-05	0.00011	2
8481	0.00029	-2e-05	3e-05	3e-05	-0.00011	0.00014	8e-05	0.00011	2
8482	0.00029	-2e-05	3e-05	3e-05	-0.00011	0.00014	8e-05	0.00011	2
8483	0.00029	-2e-05	3e-05	3e-05	-0.00011	0.00014	8e-05	0.00011	2
8484	0.00029	-2e-05	3e-05	3e-05	-0.00011	0.00014	8e-05	0.00011	2
8485	0.00029	-2e-05	3e-05	3e-05	-0.00011	0.00014	8e-05	0.00011	2
8486	0.00029	-2e-05	3e-05	3e-05	-0.00011	0.00014	8e-05	0.00011	2
8488	0.00029	-2e-05	3e-05	3e-05	-0.00011	0.00014	8e-05	0.00011	2
8489	-0.0001	0.0002	0.0001	-8e-05	-7e-05	-0.00012	0.00028	0.00015	2
8490	-0.0001	0.0002	0.0001	-8e-05	-7e-05	-0.00012	0.00028	0.00015	2
8491	-0.0001	0.0002	0.0001	-8e-05	-7e-05	-0.00012	0.00028	0.00015	2
8492	-0.0001	0.0002	0.0001	-8e-05	-7e-05	-0.00012	0.00028	0.00015	2
8493	-0.0001	0.0002	0.0001	-8e-05	-7e-05	-0.00012	0.00028	0.00015	2
8494	-0.0001	0.0002	0.0001	-8e-05	-7e-05	-0.00012	0.00028	0.00015	2
8495	-0.0001	0.0002	0.0001	-8e-05	-7e-05	-0.00012	0.00028	0.00015	2
8496	-0.0001	0.0002	0.0001	-8e-05	-7e-05	-0.00012	0.00028	0.00015	2
8497	-0.0001	0.0002	0.0001	-8e-05	-7e-05	-0.00012	0.00028	0.00015	2
8498	-0.0001	0.0002	0.0001	-8e-05	-7e-05	-0.00012	0.00028	0.00015	2
8499	-0.0001	0.0002	0.0001	-8e-05	-7e-05	-0.00012	0.00028	0.00015	2
8500	-0.0001	0.0002	0.0001	-8e-05	-7e-05	-0.00012	0.00028	0.00015	2
8501	-0.0001	0.0002	0.0001	-8e-05	-7e-05	-0.00012	0.00028	0.00015	2
8502	-0.0001	0.0002	0.0001	-8e-05	-7e-05	-0.00012	0.00028	0.00015	2
8503	-0.0001	0.0002	0.0001	-8e-05	-7e-05	-0.00012	0.00028	0.00015	2
8504	-0.0001	0.0002	0.0001	-8e-05	-7e-05	-0.00012	0.00028	0.00015	2
8505	-0.0001	0.0002	0.0001	-8e-05	-7e-05	-0.00012	0.00028	0.00015	2
8506	-0.0001	0.0002	0.0001	-8e-05	-7e-05	-0.00012	0.00028	0.00015	2
8507	-0.0001	0.0002	0.0001	-8e-05	-7e-05	-0.00012	0.00028	0.00015	2
8508	-0.0001	0.0002	0.0001	-8e-05	-7e-05	-0.00012	0.00028	0.00015	2
8509	-0.0001	0.0002	0.0001	-8e-05	-7e-05	-0.00012	0.00028	0.00015	2
8510	-0.0001	0.0002	0.0001	-8e-05	-7e-05	-0.00012	0.00028	0.00015	2
8511	-0.00019	9e-05	7e-05	0.00013	0.00024	5e-05	0.00016	-0.00012	2
8512	-0.00018	-0.00052	-6e-05	-5e-05	-0.00024	-0.00014	-0.00043	-0.00014	2
8513	-0.00018	-0.00052	-6e-05	-5e-05	-0.00024	-0.00014	-0.00043	-0.00014	2
8514	-0.00018	-0.00052	-6e-05	-5e-05	-0.00024	-0.00014	-0.00043	-0.00014	2
8515	-0.00018	-0.00052	-6e-05	-5e-05	-0.00024	-0.00014	-0.00043	-0.00014	2
8516	-0.00018	-0.00052	-6e-05	-5e-05	-0.00024	-0.00014	-0.00043	-0.00014	2
8517	-0.00018	-0.00052	-6e-05	-5e-05	-0.00024	-0.00014	-0.00043	-0.00014	2
8518	-0.00018	-0.00052	-6e-05	-5e-05	-0.00024	-0.00014	-0.00043	-0.00014	2
8519	-0.00018	-0.00052	-6e-05	-5e-05	-0.00024	-0.00014	-0.00043	-0.00014	2
8520	-0.00018	-0.00052	-6e-05	-5e-05	-0.00024	-0.00014	-0.00043	-0.00014	2
8521	-0.00018	-0.00052	-6e-05	-5e-05	-0.00024	-0.00014	-0.00043	-0.00014	2
8522	-0.00018	-0.00052	-6e-05	-5e-05	-0.00024	-0.00014	-0.00043	-0.00014	2
8523	-0.00018	-0.00052	-6e-05	-5e-05	-0.00024	-0.00014	-0.00043	-0.00014	2
8524	-0.00018	-0.00052	-6e-05	-5e-05	-0.00024	-0.00014	-0.00043	-0.00014	2
8525	-0.00018	-0.00052	-6e-05	-5e-05	-0.00024	-0.00014	-0.00043	-0.00014	2
8526	-5e-05	-0.00025	-0.0001	0.00022	-0.00022	0.00015	0.00034	0	2
8527	6e-05	0.00022	-1e-05	0	4e-05	-0.00014	-5e-05	-0.00015	2
8528	6e-05	0.00022	-1e-05	0	4e-05	-0.00014	-5e-05	-0.00015	2
8529	6e-05	0.00022	-1e-05	0	4e-05	-0.00014	-5e-05	-0.00015	2
8530	6e-05	0.00022	-1e-05	0	4e-05	-0.00014	-5e-05	-0.00015	2
8531	6e-05	0.00022	-1e-05	0	4e-05	-0.00014	-5e-05	-0.00015	2
8532	6e-05	0.00022	-1e-05	0	4e-05	-0.00014	-5e-05	-0.00015	2
8533	6e-05	0.00022	-1e-05	0	4e-05	-0.00014	-5e-05	-0.00015	2
8534	6e-05	0.00022	-1e-05	0	4e-05	-0.00014	-5e-05	-0.00015	2
8535	6e-05	0.00022	-1e-05	0	4e-05	-0.00014	-5e-05	-0.00015	2
8536	6e-05	0.00022	-1e-05	0	4e-05	-0.00014	-5e-05	-0.00015	2
8538	6e-05	0.00022	-1e-05	0	4e-05	-0.00014	-5e-05	-0.00015	2
8539	6e-05	0.00022	-1e-05	0	4e-05	-0.00014	-5e-05	-0.00015	2
8540	6e-05	0.00022	-1e-05	0	4e-05	-0.00014	-5e-05	-0.00015	2
8541	6e-05	0.00022	-1e-05	0	4e-05	-0.00014	-5e-05	-0.00015	2
8542	6e-05	0.00022	-1e-05	0	4e-05	-0.00014	-5e-05	-0.00015	2
8543	6e-05	0.00022	-1e-05	0	4e-05	-0.00014	-5e-05	-0.00015	2
8544	6e-05	0.00022	-1e-05	0	4e-05	-0.00014	-5e-05	-0.00015	2
8545	6e-05	0.00022	-1e-05	0	4e-05	-0.00014	-5e-05	-0.00015	2
8546	6e-05	0.00022	-1e-05	0	4e-05	-0.00014	-5e-05	-0.00015	2
8547	6e-05	0.00022	-1e-05	0	4e-05	-0.00014	-5e-05	-0.00015	2
8548	4e-05	9e-05	6e-05	-0.00013	-0.00038	-0.00028	-0.0002	-2e-05	2
8549	-3e-05	0.0001	-0.00019	-0.00013	4e-05	0.00011	-0.00014	8e-05	2
31599	6e-05	0.00028	0.00028	0.00024	-3e-05	-0.00011	0.00028	0.00022	2
31600	6e-05	0.00028	0.00028	0.00024	-3e-05	-0.00011	0.00028	0.00022	2
31601	6e-05	0.00028	0.00028	0.00024	-3e-05	-0.00011	0.00028	0.00022	2
31602	6e-05	0.00028	0.00028	0.00024	-3e-05	-0.00011	0.00028	0.00022	2
31603	6e-05	0.00028	0.00028	0.00024	-3e-05	-0.00011	0.00028	0.00022	2
31604	6e-05	0.00028	0.00028	0.00024	-3e-05	-0.00011	0.00028	0.00022	2
31605	6e-05	0.00028	0.00028	0.00024	-3e-05	-0.00011	0.00028	0.00022	2
31606	6e-05	0.00028	0.00028	0.00024	-3e-05	-0.00011	0.00028	0.00022	2
31607	6e-05	0.00028	0.00028	0.00024	-3e-05	-0.00011	0.00028	0.00022	2
31608	6e-05	0.00028	0.00028	0.00024	-3e-05	-0.00011	0.00028	0.00022	2
31609	6e-05	0.00028	0.00028	0.00024	-3e-05	-0.00011	0.00028	0.00022	2
31610	6e-05	0.00028	0.00028	0.00024	-3e-05	-0.00011	0.00028	0.00022	2
31611	6e-05	0.00028	0.00028	0.00024	-3e-05	-0.00011	0.00028	0.00022	2
31612	6e-05	0.00028	0.00028	0.00024	-3e-05	-0.00011	0.00028	0.00022	2
31613	6e-05	0.00028	0.00028	0.00024	-3e-05	-0.00011	0.00028	0.00022	2
31614	6e-05	0.00028	0.00028	0.00024	-3e-05	-0.00011	0.00028	0.00022	2
31615	6e-05	0.00028	0.00028	0.00024	-3e-05	-0.00011	0.00028	0.00022	2
31616	6e-05	0.00028	0.00028	0.00024	-3e-05	-0.00011	0.00028	0.00022	2
31617	6e-05	0.00028	0.00028	0.00024	-3e-05	-0.00011	0.00028	0.00022	2
31618	6e-05	0.00028	0.00028	0.00024	-3e-05	-0.00011	0.00028	0.00022	2
31619	6e-05	0.00028	0.00028	0.00024	-3e-05	-0.00011	0.00028	0.00022	2
31620	6e-05	0.00028	0.00028	0.00024	-3e-05	-0.00011	0.00028	0.00022	2
31621	6e-05	0.00028	0.00028	0.00024	-3e-05	-0.00011	0.00028	0.00022	2
31622	6e-05	0.00028	0.00028	0.00024	-3e-05	-0.00011	0.00028	0.00022	2
31623	6e-05	0.00028	0.00028	0.00024	-3e-05	-0.00011	0.00028	0.00022	2
31624	6e-05	0.00028	0.00028	0.00024	-3e-05	-0.00011	0.00028	0.00022	2
31625	6e-05	0.00028	0.00028	0.00024	-3e-05	-0.00011	0.00028	0.00022	2
31626	6e-05	0.00028	0.00028	0.00024	-3e-05	-0.00011	0.00028	0.00022	2
31627	6e-05	0.00028	0.00028	0.00024	-3e-05	-0.00011	0.00028	0.00022	2
31628	6e-05	0.00028	0.00028	0.00024	-3e-05	-0.00011	0.00028	0.00022	2
31630	6e-05	0.00028	0.00028	0.00024	-3e-05	-0.00011	0.00028	0.00022	2
31631	6e-05	0.00028	0.00028	0.00024	-3e-05	-0.00011	0.00028	0.00022	2
31632	6e-05	0.00028	0.00028	0.00024	-3e-05	-0.00011	0.00028	0.00022	2
31633	6e-05	0.00028	0.00028	0.00024	-3e-05	-0.00011	0.00028	0.00022	2
31634	6e-05	0.00028	0.00028	0.00024	-3e-05	-0.00011	0.00028	0.00022	2
31635	-3e-05	0.00023	0.00024	0.00042	0.00065	3e-05	-0.00074	-0.00021	2
31636	0.0005	0.00013	0.00022	0.0001	-0.00017	0.00053	0.00105	0.00053	2
31638	-0.00019	-0.00022	-0.0002	-0.00021	7e-05	1e-05	-0.00064	-0.00021	2
31640	-0.00019	-0.00022	-0.0002	-0.00021	7e-05	1e-05	-0.00064	-0.00021	2
31641	-0.00019	-0.00022	-0.0002	-0.00021	7e-05	1e-05	-0.00064	-0.00021	2
31642	-0.00019	-0.00022	-0.0002	-0.00021	7e-05	1e-05	-0.00064	-0.00021	2
31643	-0.00019	-0.00022	-0.0002	-0.00021	7e-05	1e-05	-0.00064	-0.00021	2
31644	-0.00019	-0.00022	-0.0002	-0.00021	7e-05	1e-05	-0.00064	-0.00021	2
31645	-0.00019	-0.00022	-0.0002	-0.00021	7e-05	1e-05	-0.00064	-0.00021	2
31646	-0.00019	-0.00022	-0.0002	-0.00021	7e-05	1e-05	-0.00064	-0.00021	2
31647	-0.00019	-0.00022	-0.0002	-0.00021	7e-05	1e-05	-0.00064	-0.00021	2
31648	-0.00019	-0.00022	-0.0002	-0.00021	7e-05	1e-05	-0.00064	-0.00021	2
31649	-0.00019	-0.00022	-0.0002	-0.00021	7e-05	1e-05	-0.00064	-0.00021	2
31650	-0.00019	-0.00022	-0.0002	-0.00021	7e-05	1e-05	-0.00064	-0.00021	2
31651	-0.00019	-0.00022	-0.0002	-0.00021	7e-05	1e-05	-0.00064	-0.00021	2
31652	-0.00019	-0.00022	-0.0002	-0.00021	7e-05	1e-05	-0.00064	-0.00021	2
31653	-0.00019	-0.00022	-0.0002	-0.00021	7e-05	1e-05	-0.00064	-0.00021	2
31654	-0.00019	-0.00022	-0.0002	-0.00021	7e-05	1e-05	-0.00064	-0.00021	2
31655	-0.00019	-0.00022	-0.0002	-0.00021	7e-05	1e-05	-0.00064	-0.00021	2
31656	-0.00019	-0.00022	-0.0002	-0.00021	7e-05	1e-05	-0.00064	-0.00021	2
31657	-0.00019	-0.00022	-0.0002	-0.00021	7e-05	1e-05	-0.00064	-0.00021	2
31658	-0.00019	-0.00022	-0.0002	-0.00021	7e-05	1e-05	-0.00064	-0.00021	2
31659	-0.00019	-0.00022	-0.0002	-0.00021	7e-05	1e-05	-0.00064	-0.00021	2
31660	-0.00019	-0.00022	-0.0002	-0.00021	7e-05	1e-05	-0.00064	-0.00021	2
31661	-0.00019	-0.00022	-0.0002	-0.00021	7e-05	1e-05	-0.00064	-0.00021	2
31662	-0.00019	-0.00022	-0.0002	-0.00021	7e-05	1e-05	-0.00064	-0.00021	2
31663	-0.00019	-0.00022	-0.0002	-0.00021	7e-05	1e-05	-0.00064	-0.00021	2
31664	-0.00019	-0.00022	-0.0002	-0.00021	7e-05	1e-05	-0.00064	-0.00021	2
31665	-0.00019	-0.00022	-0.0002	-0.00021	7e-05	1e-05	-0.00064	-0.00021	2
31666	0.00024	9e-05	1e-05	-0.00073	-0.0001	0.00076	0.0003	0.0003	2
31667	-4e-05	-2e-05	0.0003	0.00016	-9e-05	0	-3e-05	-2e-05	2
31668	-4e-05	-2e-05	0.0003	0.00016	-9e-05	0	-3e-05	-2e-05	2
31669	-4e-05	-2e-05	0.0003	0.00016	-9e-05	0	-3e-05	-2e-05	2
31670	-4e-05	-2e-05	0.0003	0.00016	-9e-05	0	-3e-05	-2e-05	2
31671	-4e-05	-2e-05	0.0003	0.00016	-9e-05	0	-3e-05	-2e-05	2
31672	0.00015	0.00014	-0.00026	0.00015	0.00015	-0.00029	-0.00041	-0.00025	2
31673	-8e-05	-6e-05	-0.00014	0.00017	4e-05	-4e-05	0.00033	-4e-05	2
31674	-8e-05	-6e-05	-0.00014	0.00017	4e-05	-4e-05	0.00033	-4e-05	2
31675	-0.00017	0.00017	0.00048	0.00057	-4e-05	0.00016	2e-05	0.00019	2
31676	-0.00017	0.00017	0.00048	0.00057	-4e-05	0.00016	2e-05	0.00019	2
31677	-0.00017	0.00017	0.00048	0.00057	-4e-05	0.00016	2e-05	0.00019	2
31678	-0.00017	0.00017	0.00048	0.00057	-4e-05	0.00016	2e-05	0.00019	2
31679	-0.00017	0.00017	0.00048	0.00057	-4e-05	0.00016	2e-05	0.00019	2
31680	-0.00017	0.00017	0.00048	0.00057	-4e-05	0.00016	2e-05	0.00019	2
31681	-0.00017	0.00017	0.00048	0.00057	-4e-05	0.00016	2e-05	0.00019	2
31682	-0.00017	0.00017	0.00048	0.00057	-4e-05	0.00016	2e-05	0.00019	2
31683	-0.00017	0.00017	0.00048	0.00057	-4e-05	0.00016	2e-05	0.00019	2
31684	-0.00017	0.00017	0.00048	0.00057	-4e-05	0.00016	2e-05	0.00019	2
31685	-0.00017	0.00017	0.00048	0.00057	-4e-05	0.00016	2e-05	0.00019	2
31686	-0.00017	0.00017	0.00048	0.00057	-4e-05	0.00016	2e-05	0.00019	2
31688	-0.00017	0.00017	0.00048	0.00057	-4e-05	0.00016	2e-05	0.00019	2
31689	-0.00017	0.00017	0.00048	0.00057	-4e-05	0.00016	2e-05	0.00019	2
31690	-0.00017	0.00017	0.00048	0.00057	-4e-05	0.00016	2e-05	0.00019	2
31691	-0.00017	0.00017	0.00048	0.00057	-4e-05	0.00016	2e-05	0.00019	2
31692	-0.00017	0.00017	0.00048	0.00057	-4e-05	0.00016	2e-05	0.00019	2
31693	-0.00017	0.00017	0.00048	0.00057	-4e-05	0.00016	2e-05	0.00019	2
31694	0.00038	0.00019	0.00047	0.00014	-0.00052	-1e-05	0.00023	0.00032	2
31695	-0.00048	-0.00022	-0.00049	0.00011	-2e-05	-0.00046	-0.00098	-0.00058	2
31696	-7e-05	-0.00013	-0.00021	2e-05	0.0002	-9e-05	-0.00038	0.00016	2
31697	-7e-05	-0.00013	-0.00021	2e-05	0.0002	-9e-05	-0.00038	0.00016	2
31698	-7e-05	-0.00013	-0.00021	2e-05	0.0002	-9e-05	-0.00038	0.00016	2
31699	-7e-05	-0.00013	-0.00021	2e-05	0.0002	-9e-05	-0.00038	0.00016	2
31700	-7e-05	-0.00013	-0.00021	2e-05	0.0002	-9e-05	-0.00038	0.00016	2
31701	-7e-05	-0.00013	-0.00021	2e-05	0.0002	-9e-05	-0.00038	0.00016	2
31702	-7e-05	-0.00013	-0.00021	2e-05	0.0002	-9e-05	-0.00038	0.00016	2
31703	-7e-05	-0.00013	-0.00021	2e-05	0.0002	-9e-05	-0.00038	0.00016	2
31704	-7e-05	-0.00013	-0.00021	2e-05	0.0002	-9e-05	-0.00038	0.00016	2
31705	-7e-05	-0.00013	-0.00021	2e-05	0.0002	-9e-05	-0.00038	0.00016	2
31706	-7e-05	-0.00013	-0.00021	2e-05	0.0002	-9e-05	-0.00038	0.00016	2
31707	-7e-05	-0.00013	-0.00021	2e-05	0.0002	-9e-05	-0.00038	0.00016	2
31708	-7e-05	-0.00013	-0.00021	2e-05	0.0002	-9e-05	-0.00038	0.00016	2
31709	-7e-05	-0.00013	-0.00021	2e-05	0.0002	-9e-05	-0.00038	0.00016	2
31710	-7e-05	-0.00013	-0.00021	2e-05	0.0002	-9e-05	-0.00038	0.00016	2
31711	-7e-05	-0.00013	-0.00021	2e-05	0.0002	-9e-05	-0.00038	0.00016	2
31712	-7e-05	-0.00013	-0.00021	2e-05	0.0002	-9e-05	-0.00038	0.00016	2
31713	-7e-05	-0.00013	-0.00021	2e-05	0.0002	-9e-05	-0.00038	0.00016	2
31714	-7e-05	-0.00013	-0.00021	2e-05	0.0002	-9e-05	-0.00038	0.00016	2
31715	-7e-05	-0.00013	-0.00021	2e-05	0.0002	-9e-05	-0.00038	0.00016	2
31716	-7e-05	-0.00013	-0.00021	2e-05	0.0002	-9e-05	-0.00038	0.00016	2
31717	-7e-05	-0.00013	-0.00021	2e-05	0.0002	-9e-05	-0.00038	0.00016	2
31718	-7e-05	-0.00013	-0.00021	2e-05	0.0002	-9e-05	-0.00038	0.00016	2
31719	-7e-05	-0.00013	-0.00021	2e-05	0.0002	-9e-05	-0.00038	0.00016	2
31720	-7e-05	-0.00013	-0.00021	2e-05	0.0002	-9e-05	-0.00038	0.00016	2
31721	-7e-05	-0.00013	-0.00021	2e-05	0.0002	-9e-05	-0.00038	0.00016	2
31722	-7e-05	-0.00013	-0.00021	2e-05	0.0002	-9e-05	-0.00038	0.00016	2
31723	-7e-05	-0.00013	-0.00021	2e-05	0.0002	-9e-05	-0.00038	0.00016	2
31724	7e-05	-8e-05	-0.00017	-0.00029	-0.00062	3e-05	-0.0001	-0.0001	2
31725	-0.00015	4e-05	8e-05	0.0002	0.00021	2e-05	-0.00025	-5e-05	2
31726	4e-05	0.00016	7e-05	3e-05	-0.00029	-0.0001	0.00019	8e-05	2
31727	4e-05	0.00016	7e-05	3e-05	-0.00029	-0.0001	0.00019	8e-05	2
31728	4e-05	0.00016	7e-05	3e-05	-0.00029	-0.0001	0.00019	8e-05	2
31729	4e-05	0.00016	7e-05	3e-05	-0.00029	-0.0001	0.00019	8e-05	2
31730	4e-05	0.00016	7e-05	3e-05	-0.00029	-0.0001	0.00019	8e-05	2
31731	-9e-05	9e-05	0.00031	0.00012	9e-05	0	-4e-05	2e-05	2
31732	-0.00016	4e-05	-0.00018	-0.00019	-9e-05	-0.00013	-0.00021	-6e-05	2
31733	-0.00016	4e-05	-0.00018	-0.00019	-9e-05	-0.00013	-0.00021	-6e-05	2
31734	-0.00016	4e-05	-0.00018	-0.00019	-9e-05	-0.00013	-0.00021	-6e-05	2
31735	-0.00016	4e-05	-0.00018	-0.00019	-9e-05	-0.00013	-0.00021	-6e-05	2
31736	-0.00016	4e-05	-0.00018	-0.00019	-9e-05	-0.00013	-0.00021	-6e-05	2
31738	-0.00016	4e-05	-0.00018	-0.00019	-9e-05	-0.00013	-0.00021	-6e-05	2
31739	-0.00016	4e-05	-0.00018	-0.00019	-9e-05	-0.00013	-0.00021	-6e-05	2
31740	-0.00016	4e-05	-0.00018	-0.00019	-9e-05	-0.00013	-0.00021	-6e-05	2
31741	-0.00016	4e-05	-0.00018	-0.00019	-9e-05	-0.00013	-0.00021	-6e-05	2
31742	-0.00016	4e-05	-0.00018	-0.00019	-9e-05	-0.00013	-0.00021	-6e-05	2
31743	-0.00016	4e-05	-0.00018	-0.00019	-9e-05	-0.00013	-0.00021	-6e-05	2
31744	-0.00016	4e-05	-0.00018	-0.00019	-9e-05	-0.00013	-0.00021	-6e-05	2
31745	-0.00016	4e-05	-0.00018	-0.00019	-9e-05	-0.00013	-0.00021	-6e-05	2
31746	-0.00016	4e-05	-0.00018	-0.00019	-9e-05	-0.00013	-0.00021	-6e-05	2
31747	-0.00016	4e-05	-0.00018	-0.00019	-9e-05	-0.00013	-0.00021	-6e-05	2
31748	-0.00016	4e-05	-0.00018	-0.00019	-9e-05	-0.00013	-0.00021	-6e-05	2
31749	-0.00016	4e-05	-0.00018	-0.00019	-9e-05	-0.00013	-0.00021	-6e-05	2
31750	-0.00016	4e-05	-0.00018	-0.00019	-9e-05	-0.00013	-0.00021	-6e-05	2
31751	-0.00016	4e-05	-0.00018	-0.00019	-9e-05	-0.00013	-0.00021	-6e-05	2
31752	-0.00016	4e-05	-0.00018	-0.00019	-9e-05	-0.00013	-0.00021	-6e-05	2
31753	-0.00016	4e-05	-0.00018	-0.00019	-9e-05	-0.00013	-0.00021	-6e-05	2
31754	-0.00016	4e-05	-0.00018	-0.00019	-9e-05	-0.00013	-0.00021	-6e-05	2
31755	-0.00016	4e-05	-0.00018	-0.00019	-9e-05	-0.00013	-0.00021	-6e-05	2
31756	-0.00016	4e-05	-0.00018	-0.00019	-9e-05	-0.00013	-0.00021	-6e-05	2
31757	0.00011	8e-05	-3e-05	-6e-05	0.00012	0.00035	0.00035	0.00011	2
31758	0.00011	8e-05	-3e-05	-6e-05	0.00012	0.00035	0.00035	0.00011	2
31759	0.00011	8e-05	-3e-05	-6e-05	0.00012	0.00035	0.00035	0.00011	2
31760	-5e-05	-0.00015	-0.0001	0.00019	0.00013	0.0002	0.0002	9e-05	2
31761	-5e-05	-0.00015	-0.0001	0.00019	0.00013	0.0002	0.0002	9e-05	2
31762	-5e-05	-0.00015	-0.0001	0.00019	0.00013	0.0002	0.0002	9e-05	2
31763	-5e-05	-0.00015	-0.0001	0.00019	0.00013	0.0002	0.0002	9e-05	2
31764	-5e-05	-0.00015	-0.0001	0.00019	0.00013	0.0002	0.0002	9e-05	2
31765	-5e-05	-0.00015	-0.0001	0.00019	0.00013	0.0002	0.0002	9e-05	2
31766	-5e-05	-0.00015	-0.0001	0.00019	0.00013	0.0002	0.0002	9e-05	2
31767	-5e-05	-0.00015	-0.0001	0.00019	0.00013	0.0002	0.0002	9e-05	2
31768	-5e-05	-0.00015	-0.0001	0.00019	0.00013	0.0002	0.0002	9e-05	2
31769	-5e-05	-0.00015	-0.0001	0.00019	0.00013	0.0002	0.0002	9e-05	2
31770	-5e-05	-0.00015	-0.0001	0.00019	0.00013	0.0002	0.0002	9e-05	2
31771	-5e-05	-0.00015	-0.0001	0.00019	0.00013	0.0002	0.0002	9e-05	2
31772	-5e-05	-0.00015	-0.0001	0.00019	0.00013	0.0002	0.0002	9e-05	2
31773	-5e-05	-0.00015	-0.0001	0.00019	0.00013	0.0002	0.0002	9e-05	2
31774	-5e-05	-0.00015	-0.0001	0.00019	0.00013	0.0002	0.0002	9e-05	2
31775	-5e-05	-0.00015	-0.0001	0.00019	0.00013	0.0002	0.0002	9e-05	2
31776	-5e-05	-0.00015	-0.0001	0.00019	0.00013	0.0002	0.0002	9e-05	2
31777	-5e-05	-0.00015	-0.0001	0.00019	0.00013	0.0002	0.0002	9e-05	2
31778	-5e-05	-0.00015	-0.0001	0.00019	0.00013	0.0002	0.0002	9e-05	2
31779	-5e-05	-0.00015	-0.0001	0.00019	0.00013	0.0002	0.0002	9e-05	2
31780	-5e-05	-0.00015	-0.0001	0.00019	0.00013	0.0002	0.0002	9e-05	2
31781	-5e-05	-0.00015	-0.0001	0.00019	0.00013	0.0002	0.0002	9e-05	2
31782	-5e-05	-0.00015	-0.0001	0.00019	0.00013	0.0002	0.0002	9e-05	2
31783	-5e-05	-0.00015	-0.0001	0.00019	0.00013	0.0002	0.0002	9e-05	2
31784	0.00011	0.00017	-0.00024	-0.00068	-0.00029	-2e-05	-0.00018	6e-05	2
31785	0.00011	0.00017	-0.00024	-0.00068	-0.00029	-2e-05	-0.00018	6e-05	2
31786	-4e-05	-9e-05	-0.00081	-0.00047	-9e-05	-0.00012	0.00018	-0.00019	2
31788	-4e-05	-9e-05	-0.00081	-0.00047	-9e-05	-0.00012	0.00018	-0.00019	2
31789	-4e-05	-9e-05	-0.00081	-0.00047	-9e-05	-0.00012	0.00018	-0.00019	2
31790	-4e-05	-9e-05	-0.00081	-0.00047	-9e-05	-0.00012	0.00018	-0.00019	2
31791	1e-05	0.00016	0.00015	-1e-05	7e-05	-6e-05	-0.00043	-0.0001	2
