16190	-7e-05	1e-05	0.00011	0.00012	0.00062	-4e-05	-0.00013	-7e-05	4
16191	-7e-05	1e-05	0.00011	0.00012	0.00062	-4e-05	-0.00013	-7e-05	4
16192	4e-05	2e-05	-0.00016	-0.00086	-0.00128	-0.00082	-9e-05	-1e-05	4
16193	-7e-05	3e-05	0.0003	0.00064	0.00094	-0.0002	-0.00018	-0.0001	4
16194	-8e-05	-0.00014	-0.00031	-0.00021	0.00094	0.00027	-1e-05	-6e-05	4
16195	-8e-05	-0.00014	-0.00031	-0.00021	0.00094	0.00027	-1e-05	-6e-05	4
16196	-8e-05	-0.00014	-0.00031	-0.00021	0.00094	0.00027	-1e-05	-6e-05	4
16197	-8e-05	-0.00014	-0.00031	-0.00021	0.00094	0.00027	-1e-05	-6e-05	4
16198	-8e-05	-0.00014	-0.00031	-0.00021	0.00094	0.00027	-1e-05	-6e-05	4
16199	-8e-05	-0.00014	-0.00031	-0.00021	0.00094	0.00027	-1e-05	-6e-05	4
16200	-8e-05	-0.00014	-0.00031	-0.00021	0.00094	0.00027	-1e-05	-6e-05	4
16201	-8e-05	-0.00014	-0.00031	-0.00021	0.00094	0.00027	-1e-05	-6e-05	4
16202	-8e-05	-0.00014	-0.00031	-0.00021	0.00094	0.00027	-1e-05	-6e-05	4
16203	-8e-05	-0.00014	-0.00031	-0.00021	0.00094	0.00027	-1e-05	-6e-05	4
16204	-8e-05	-0.00014	-0.00031	-0.00021	0.00094	0.00027	-1e-05	-6e-05	4
16205	-8e-05	-0.00014	-0.00031	-0.00021	0.00094	0.00027	-1e-05	-6e-05	4
16206	-8e-05	-0.00014	-0.00031	-0.00021	0.00094	0.00027	-1e-05	-6e-05	4
16207	-8e-05	-0.00014	-0.00031	-0.00021	0.00094	0.00027	-1e-05	-6e-05	4
16208	-8e-05	-0.00014	-0.00031	-0.00021	0.00094	0.00027	-1e-05	-6e-05	4
16209	-8e-05	-0.00014	-0.00031	-0.00021	0.00094	0.00027	-1e-05	-6e-05	4
16210	-8e-05	-0.00014	-0.00031	-0.00021	0.00094	0.00027	-1e-05	-6e-05	4
16211	-8e-05	-0.00014	-0.00031	-0.00021	0.00094	0.00027	-1e-05	-6e-05	4
16212	-8e-05	-0.00014	-0.00031	-0.00021	0.00094	0.00027	-1e-05	-6e-05	4
16213	-8e-05	-0.00014	-0.00031	-0.00021	0.00094	0.00027	-1e-05	-6e-05	4
16214	-0.00018	-0.00013	0.00032	0.00054	0.0003	0.00038	-0.00021	-0.00019	4
16215	-0.00018	-0.00013	0.00032	0.00054	0.0003	0.00038	-0.00021	-0.00019	4
16216	0.00011	4e-05	4e-05	7e-05	-0.00043	0.00022	6e-05	0.0001	4
16217	0.00011	4e-05	4e-05	7e-05	-0.00043	0.00022	6e-05	0.0001	4
16218	0.00011	4e-05	4e-05	7e-05	-0.00043	0.00022	6e-05	0.0001	4
16219	0.00011	4e-05	4e-05	7e-05	-0.00043	0.00022	6e-05	0.0001	4
16220	0.00011	4e-05	4e-05	7e-05	-0.00043	0.00022	6e-05	0.0001	4
16221	0.00011	4e-05	4e-05	7e-05	-0.00043	0.00022	6e-05	0.0001	4
16222	0.00011	4e-05	4e-05	7e-05	-0.00043	0.00022	6e-05	0.0001	4
16223	0.00011	4e-05	4e-05	7e-05	-0.00043	0.00022	6e-05	0.0001	4
16224	0.00011	4e-05	4e-05	7e-05	-0.00043	0.00022	6e-05	0.0001	4
16225	0.00011	4e-05	4e-05	7e-05	-0.00043	0.00022	6e-05	0.0001	4
16226	0.00011	4e-05	4e-05	7e-05	-0.00043	0.00022	6e-05	0.0001	4
16227	0.00011	4e-05	4e-05	7e-05	-0.00043	0.00022	6e-05	0.0001	4
16228	0.00011	4e-05	4e-05	7e-05	-0.00043	0.00022	6e-05	0.0001	4
16229	0	8e-05	0.00025	0.00077	-0.00047	-0.00054	-0.00023	-5e-05	4
16230	0	8e-05	0.00025	0.00077	-0.00047	-0.00054	-0.00023	-5e-05	4
16231	-7e-05	-7e-05	2e-05	-0.00037	-0.00043	-0.00031	-0.00013	-6e-05	4
16232	-7e-05	-7e-05	2e-05	-0.00037	-0.00043	-0.00031	-0.00013	-6e-05	4
16233	-7e-05	-7e-05	2e-05	-0.00037	-0.00043	-0.00031	-0.00013	-6e-05	4
16234	-7e-05	-7e-05	2e-05	-0.00037	-0.00043	-0.00031	-0.00013	-6e-05	4
16235	-7e-05	-7e-05	2e-05	-0.00037	-0.00043	-0.00031	-0.00013	-6e-05	4
16237	-7e-05	-7e-05	2e-05	-0.00037	-0.00043	-0.00031	-0.00013	-6e-05	4
16239	-7e-05	-7e-05	2e-05	-0.00037	-0.00043	-0.00031	-0.00013	-6e-05	4
16240	-7e-05	-7e-05	2e-05	-0.00037	-0.00043	-0.00031	-0.00013	-6e-05	4
16241	-7e-05	-7e-05	2e-05	-0.00037	-0.00043	-0.00031	-0.00013	-6e-05	4
16242	-7e-05	-7e-05	2e-05	-0.00037	-0.00043	-0.00031	-0.00013	-6e-05	4
16243	-7e-05	-7e-05	2e-05	-0.00037	-0.00043	-0.00031	-0.00013	-6e-05	4
16244	-7e-05	-7e-05	2e-05	-0.00037	-0.00043	-0.00031	-0.00013	-6e-05	4
16245	-7e-05	-7e-05	2e-05	-0.00037	-0.00043	-0.00031	-0.00013	-6e-05	4
16246	-7e-05	-7e-05	2e-05	-0.00037	-0.00043	-0.00031	-0.00013	-6e-05	4
16247	-7e-05	-7e-05	2e-05	-0.00037	-0.00043	-0.00031	-0.00013	-6e-05	4
16248	-7e-05	-7e-05	2e-05	-0.00037	-0.00043	-0.00031	-0.00013	-6e-05	4
16249	-7e-05	-7e-05	2e-05	-0.00037	-0.00043	-0.00031	-0.00013	-6e-05	4
16250	-7e-05	-7e-05	2e-05	-0.00037	-0.00043	-0.00031	-0.00013	-6e-05	4
16251	-2e-05	-9e-05	-0.00042	-0.00052	-0.00068	0.001	0.00035	0.0001	4
16252	-2e-05	-9e-05	-0.00042	-0.00052	-0.00068	0.001	0.00035	0.0001	4
16253	2e-05	2e-05	-0.00011	-0.00018	0.00037	0.0005	0.00018	6e-05	4
16254	2e-05	2e-05	-0.00011	-0.00018	0.00037	0.0005	0.00018	6e-05	4
16255	2e-05	2e-05	-0.00011	-0.00018	0.00037	0.0005	0.00018	6e-05	4
16256	2e-05	2e-05	-0.00011	-0.00018	0.00037	0.0005	0.00018	6e-05	4
16257	2e-05	2e-05	-0.00011	-0.00018	0.00037	0.0005	0.00018	6e-05	4
16258	2e-05	2e-05	-0.00011	-0.00018	0.00037	0.0005	0.00018	6e-05	4
16259	2e-05	2e-05	-0.00011	-0.00018	0.00037	0.0005	0.00018	6e-05	4
16260	2e-05	2e-05	-0.00011	-0.00018	0.00037	0.0005	0.00018	6e-05	4
16261	2e-05	2e-05	-0.00011	-0.00018	0.00037	0.0005	0.00018	6e-05	4
16262	2e-05	2e-05	-0.00011	-0.00018	0.00037	0.0005	0.00018	6e-05	4
16264	2e-05	2e-05	-0.00011	-0.00018	0.00037	0.0005	0.00018	6e-05	4
16265	7e-05	0.00014	0.00035	0.00046	-0.00069	0.00034	-2e-05	-1e-05	4
16266	-9e-05	-0.00011	-3e-05	3e-05	0.00092	0.00029	1e-05	-2e-05	4
16267	-9e-05	-0.00011	-3e-05	3e-05	0.00092	0.00029	1e-05	-2e-05	4
16268	-9e-05	-0.00011	-3e-05	3e-05	0.00092	0.00029	1e-05	-2e-05	4
16269	-9e-05	-0.00011	-3e-05	3e-05	0.00092	0.00029	1e-05	-2e-05	4
16270	-9e-05	-0.00011	-3e-05	3e-05	0.00092	0.00029	1e-05	-2e-05	4
16271	-9e-05	-0.00011	-3e-05	3e-05	0.00092	0.00029	1e-05	-2e-05	4
16272	3e-05	2e-05	-2e-05	0.00017	-0.00109	-0.00055	-5e-05	0	4
16273	3e-05	2e-05	-2e-05	0.00017	-0.00109	-0.00055	-5e-05	0	4
16274	3e-05	2e-05	-2e-05	0.00017	-0.00109	-0.00055	-5e-05	0	4
16275	3e-05	2e-05	-2e-05	0.00017	-0.00109	-0.00055	-5e-05	0	4
16276	3e-05	2e-05	-2e-05	0.00017	-0.00109	-0.00055	-5e-05	0	4
16277	3e-05	2e-05	-2e-05	0.00017	-0.00109	-0.00055	-5e-05	0	4
16278	3e-05	2e-05	-2e-05	0.00017	-0.00109	-0.00055	-5e-05	0	4
16279	3e-05	2e-05	-2e-05	0.00017	-0.00109	-0.00055	-5e-05	0	4
16280	3e-05	2e-05	-2e-05	0.00017	-0.00109	-0.00055	-5e-05	0	4
16281	3e-05	2e-05	-2e-05	0.00017	-0.00109	-0.00055	-5e-05	0	4
16282	3e-05	2e-05	-2e-05	0.00017	-0.00109	-0.00055	-5e-05	0	4
16283	3e-05	2e-05	-2e-05	0.00017	-0.00109	-0.00055	-5e-05	0	4
16284	3e-05	2e-05	-2e-05	0.00017	-0.00109	-0.00055	-5e-05	0	4
16285	3e-05	2e-05	-2e-05	0.00017	-0.00109	-0.00055	-5e-05	0	4
16287	3e-05	2e-05	-2e-05	0.00017	-0.00109	-0.00055	-5e-05	0	4
16289	3e-05	2e-05	-2e-05	0.00017	-0.00109	-0.00055	-5e-05	0	4
16290	3e-05	2e-05	-2e-05	0.00017	-0.00109	-0.00055	-5e-05	0	4
16291	3e-05	2e-05	-2e-05	0.00017	-0.00109	-0.00055	-5e-05	0	4
16292	3e-05	2e-05	-2e-05	0.00017	-0.00109	-0.00055	-5e-05	0	4
16293	3e-05	2e-05	-2e-05	0.00017	-0.00109	-0.00055	-5e-05	0	4
16294	3e-05	2e-05	-2e-05	0.00017	-0.00109	-0.00055	-5e-05	0	4
16295	3e-05	2e-05	-2e-05	0.00017	-0.00109	-0.00055	-5e-05	0	4
16296	1e-05	2e-05	-0.00013	-0.00051	0.00017	0.00069	0.00017	1e-05	4
16297	1e-05	2e-05	-0.00013	-0.00051	0.00017	0.00069	0.00017	1e-05	4
16298	-2e-05	-4e-05	0	0.00025	0.00016	-0.00052	5e-05	2e-05	4
16299	-2e-05	-4e-05	0	0.00025	0.00016	-0.00052	5e-05	2e-05	4
16300	-2e-05	-4e-05	0	0.00025	0.00016	-0.00052	5e-05	2e-05	4
16301	-2e-05	-4e-05	0	0.00025	0.00016	-0.00052	5e-05	2e-05	4
16302	-2e-05	-4e-05	0	0.00025	0.00016	-0.00052	5e-05	2e-05	4
16303	-2e-05	-4e-05	0	0.00025	0.00016	-0.00052	5e-05	2e-05	4
16304	-2e-05	-4e-05	0	0.00025	0.00016	-0.00052	5e-05	2e-05	4
16305	-2e-05	-4e-05	0	0.00025	0.00016	-0.00052	5e-05	2e-05	4
16306	-2e-05	-4e-05	0	0.00025	0.00016	-0.00052	5e-05	2e-05	4
16307	-2e-05	-4e-05	0	0.00025	0.00016	-0.00052	5e-05	2e-05	4
16308	-2e-05	-4e-05	0	0.00025	0.00016	-0.00052	5e-05	2e-05	4
16309	-2e-05	-4e-05	0	0.00025	0.00016	-0.00052	5e-05	2e-05	4
16310	-2e-05	-4e-05	0	0.00025	0.00016	-0.00052	5e-05	2e-05	4
16311	0.00014	8e-05	-0.00013	-0.00081	-0.0007	-0.00044	-4e-05	9e-05	4
16312	0.00014	8e-05	-0.00013	-0.00081	-0.0007	-0.00044	-4e-05	9e-05	4
16313	1e-05	7e-05	0.0001	1e-05	-0.00045	0.00043	8e-05	-2e-05	4
16314	1e-05	7e-05	0.0001	1e-05	-0.00045	0.00043	8e-05	-2e-05	4
16315	1e-05	7e-05	0.0001	1e-05	-0.00045	0.00043	8e-05	-2e-05	4
16316	1e-05	7e-05	0.0001	1e-05	-0.00045	0.00043	8e-05	-2e-05	4
16317	1e-05	7e-05	0.0001	1e-05	-0.00045	0.00043	8e-05	-2e-05	4
16318	1e-05	7e-05	0.0001	1e-05	-0.00045	0.00043	8e-05	-2e-05	4
16319	1e-05	7e-05	0.0001	1e-05	-0.00045	0.00043	8e-05	-2e-05	4
16320	1e-05	7e-05	0.0001	1e-05	-0.00045	0.00043	8e-05	-2e-05	4
16321	1e-05	7e-05	0.0001	1e-05	-0.00045	0.00043	8e-05	-2e-05	4
16323	1e-05	7e-05	0.0001	1e-05	-0.00045	0.00043	8e-05	-2e-05	4
16324	1e-05	7e-05	0.0001	1e-05	-0.00045	0.00043	8e-05	-2e-05	4
16325	1e-05	7e-05	0.0001	1e-05	-0.00045	0.00043	8e-05	-2e-05	4
16326	-3e-05	-9e-05	-0.00034	-0.00081	0.00027	0.00039	1e-05	3e-05	4
16327	-3e-05	-9e-05	-0.00034	-0.00081	0.00027	0.00039	1e-05	3e-05	4
16328	-3e-05	-9e-05	-0.00034	-0.00081	0.00027	0.00039	1e-05	3e-05	4
16329	-3e-05	-9e-05	-0.00034	-0.00081	0.00027	0.00039	1e-05	3e-05	4
16330	-3e-05	-9e-05	-0.00034	-0.00081	0.00027	0.00039	1e-05	3e-05	4
16331	-3e-05	-9e-05	-0.00034	-0.00081	0.00027	0.00039	1e-05	3e-05	4
16332	2e-05	-3e-05	-0.0001	0.00018	0.00106	-0.00018	-0.00013	-6e-05	4
16334	2e-05	-3e-05	-0.0001	0.00018	0.00106	-0.00018	-0.00013	-6e-05	4
16335	2e-05	-3e-05	-0.0001	0.00018	0.00106	-0.00018	-0.00013	-6e-05	4
16337	2e-05	-3e-05	-0.0001	0.00018	0.00106	-0.00018	-0.00013	-6e-05	4
16339	2e-05	-3e-05	-0.0001	0.00018	0.00106	-0.00018	-0.00013	-6e-05	4
16340	2e-05	-3e-05	-0.0001	0.00018	0.00106	-0.00018	-0.00013	-6e-05	4
16341	2e-05	-3e-05	-0.0001	0.00018	0.00106	-0.00018	-0.00013	-6e-05	4
16342	2e-05	-3e-05	-0.0001	0.00018	0.00106	-0.00018	-0.00013	-6e-05	4
16343	2e-05	-3e-05	-0.0001	0.00018	0.00106	-0.00018	-0.00013	-6e-05	4
16344	2e-05	-3e-05	-0.0001	0.00018	0.00106	-0.00018	-0.00013	-6e-05	4
16345	2e-05	-3e-05	-0.0001	0.00018	0.00106	-0.00018	-0.00013	-6e-05	4
16346	2e-05	-3e-05	-0.0001	0.00018	0.00106	-0.00018	-0.00013	-6e-05	4
16347	2e-05	-3e-05	-0.0001	0.00018	0.00106	-0.00018	-0.00013	-6e-05	4
16348	2e-05	-3e-05	-0.0001	0.00018	0.00106	-0.00018	-0.00013	-6e-05	4
16349	2e-05	-3e-05	-0.0001	0.00018	0.00106	-0.00018	-0.00013	-6e-05	4
16350	2e-05	-3e-05	-0.0001	0.00018	0.00106	-0.00018	-0.00013	-6e-05	4
16351	2e-05	-3e-05	-0.0001	0.00018	0.00106	-0.00018	-0.00013	-6e-05	4
16352	2e-05	-3e-05	-0.0001	0.00018	0.00106	-0.00018	-0.00013	-6e-05	4
16353	2e-05	-3e-05	-0.0001	0.00018	0.00106	-0.00018	-0.00013	-6e-05	4
16354	2e-05	-3e-05	-0.0001	0.00018	0.00106	-0.00018	-0.00013	-6e-05	4
16355	2e-05	-3e-05	-0.0001	0.00018	0.00106	-0.00018	-0.00013	-6e-05	4
16356	2e-05	-3e-05	-0.0001	0.00018	0.00106	-0.00018	-0.00013	-6e-05	4
16357	0.00012	0.00012	0.00027	0.00076	-0.00017	0.0001	-7e-05	-1e-05	4
16358	-5e-05	3e-05	0.00024	0.00029	-0.0003	-0.0005	-0.00031	-5e-05	4
16359	-5e-05	3e-05	0.00024	0.00029	-0.0003	-0.0005	-0.00031	-5e-05	4
16360	-5e-05	3e-05	0.00024	0.00029	-0.0003	-0.0005	-0.00031	-5e-05	4
16361	-5e-05	3e-05	0.00024	0.00029	-0.0003	-0.0005	-0.00031	-5e-05	4
16362	-5e-05	3e-05	0.00024	0.00029	-0.0003	-0.0005	-0.00031	-5e-05	4
16363	-5e-05	3e-05	0.00024	0.00029	-0.0003	-0.0005	-0.00031	-5e-05	4
16364	-5e-05	3e-05	0.00024	0.00029	-0.0003	-0.0005	-0.00031	-5e-05	4
16365	-5e-05	3e-05	0.00024	0.00029	-0.0003	-0.0005	-0.00031	-5e-05	4
16366	-5e-05	3e-05	0.00024	0.00029	-0.0003	-0.0005	-0.00031	-5e-05	4
16367	-5e-05	3e-05	0.00024	0.00029	-0.0003	-0.0005	-0.00031	-5e-05	4
16368	-5e-05	3e-05	0.00024	0.00029	-0.0003	-0.0005	-0.00031	-5e-05	4
16369	-5e-05	3e-05	0.00024	0.00029	-0.0003	-0.0005	-0.00031	-5e-05	4
16370	-5e-05	3e-05	0.00024	0.00029	-0.0003	-0.0005	-0.00031	-5e-05	4
16371	-0.00012	-0.00012	-0.00016	-0.00062	-0.0002	-0.00059	-0.00021	-0.00011	4
16372	-0.00012	-0.00012	-0.00016	-0.00062	-0.0002	-0.00059	-0.00021	-0.00011	4
16373	-0.00013	-0.00024	-0.00049	8e-05	-0.0004	0.00029	0	-0.0001	4
16374	-0.00013	-0.00024	-0.00049	8e-05	-0.0004	0.00029	0	-0.0001	4
16375	-0.00013	-0.00024	-0.00049	8e-05	-0.0004	0.00029	0	-0.0001	4
16376	-0.00013	-0.00024	-0.00049	8e-05	-0.0004	0.00029	0	-0.0001	4
16377	-0.00013	-0.00024	-0.00049	8e-05	-0.0004	0.00029	0	-0.0001	4
16378	-0.00013	-0.00024	-0.00049	8e-05	-0.0004	0.00029	0	-0.0001	4
16379	-0.00013	-0.00024	-0.00049	8e-05	-0.0004	0.00029	0	-0.0001	4
16380	-0.00013	-0.00024	-0.00049	8e-05	-0.0004	0.00029	0	-0.0001	4
16381	-0.00013	-0.00024	-0.00049	8e-05	-0.0004	0.00029	0	-0.0001	4
16382	-0.00013	-0.00024	-0.00049	8e-05	-0.0004	0.00029	0	-0.0001	4
16383	-0.00013	-0.00024	-0.00049	8e-05	-0.0004	0.00029	0	-0.0001	4
16384	-0.00013	-0.00024	-0.00049	8e-05	-0.0004	0.00029	0	-0.0001	4
16385	-9e-05	-8e-05	-0.00021	0.00021	0.0009	-0.0003	0.00012	-3e-05	4
16387	-9e-05	-8e-05	-0.00021	0.00021	0.0009	-0.0003	0.00012	-3e-05	4
16389	-9e-05	-8e-05	-0.00021	0.00021	0.0009	-0.0003	0.00012	-3e-05	4
16390	-9e-05	-8e-05	-0.00021	0.00021	0.0009	-0.0003	0.00012	-3e-05	4
16391	-9e-05	-8e-05	-0.00021	0.00021	0.0009	-0.0003	0.00012	-3e-05	4
16392	-9e-05	-8e-05	-0.00021	0.00021	0.0009	-0.0003	0.00012	-3e-05	4
16393	-9e-05	-8e-05	-0.00021	0.00021	0.0009	-0.0003	0.00012	-3e-05	4
16394	1e-05	5e-05	7e-05	-4e-05	0.00095	0.00092	0.00025	8e-05	4
16395	1e-05	5e-05	7e-05	-4e-05	0.00095	0.00092	0.00025	8e-05	4
16396	1e-05	5e-05	7e-05	-4e-05	0.00095	0.00092	0.00025	8e-05	4
16397	1e-05	5e-05	7e-05	-4e-05	0.00095	0.00092	0.00025	8e-05	4
16398	1e-05	5e-05	7e-05	-4e-05	0.00095	0.00092	0.00025	8e-05	4
16399	1e-05	5e-05	7e-05	-4e-05	0.00095	0.00092	0.00025	8e-05	4
16400	1e-05	5e-05	7e-05	-4e-05	0.00095	0.00092	0.00025	8e-05	4
16401	1e-05	5e-05	7e-05	-4e-05	0.00095	0.00092	0.00025	8e-05	4
16402	1e-05	5e-05	7e-05	-4e-05	0.00095	0.00092	0.00025	8e-05	4
16403	1e-05	5e-05	7e-05	-4e-05	0.00095	0.00092	0.00025	8e-05	4
16404	1e-05	5e-05	7e-05	-4e-05	0.00095	0.00092	0.00025	8e-05	4
16405	1e-05	5e-05	7e-05	-4e-05	0.00095	0.00092	0.00025	8e-05	4
16406	1e-05	5e-05	7e-05	-4e-05	0.00095	0.00092	0.00025	8e-05	4
16407	1e-05	5e-05	7e-05	-4e-05	0.00095	0.00092	0.00025	8e-05	4
16408	1e-05	5e-05	7e-05	-4e-05	0.00095	0.00092	0.00025	8e-05	4
16409	0	-6e-05	-8e-05	0.0002	-0.00019	0.00099	5e-05	2e-05	4
16410	0.00021	0.00024	0.00044	0.00037	0.0005	0	0.00034	0.00023	4
16411	0.00021	0.00024	0.00044	0.00037	0.0005	0	0.00034	0.00023	4
16412	0.00021	0.00024	0.00044	0.00037	0.0005	0	0.00034	0.00023	4
16413	0.00021	0.00024	0.00044	0.00037	0.0005	0	0.00034	0.00023	4
16414	0.00021	0.00024	0.00044	0.00037	0.0005	0	0.00034	0.00023	4
16415	0.00021	0.00024	0.00044	0.00037	0.0005	0	0.00034	0.00023	4
16416	0.00021	0.00024	0.00044	0.00037	0.0005	0	0.00034	0.00023	4
16417	0.00021	0.00024	0.00044	0.00037	0.0005	0	0.00034	0.00023	4
16418	0.00021	0.00024	0.00044	0.00037	0.0005	0	0.00034	0.00023	4
16419	0.00021	0.00024	0.00044	0.00037	0.0005	0	0.00034	0.00023	4
16420	0.00021	0.00024	0.00044	0.00037	0.0005	0	0.00034	0.00023	4
16421	0.00021	0.00024	0.00044	0.00037	0.0005	0	0.00034	0.00023	4
16422	0.00021	0.00024	0.00044	0.00037	0.0005	0	0.00034	0.00023	4
16423	0.00021	0.00024	0.00044	0.00037	0.0005	0	0.00034	0.00023	4
16424	0.00021	0.00024	0.00044	0.00037	0.0005	0	0.00034	0.00023	4
16425	0.00021	0.00024	0.00044	0.00037	0.0005	0	0.00034	0.00023	4
16426	0.00021	0.00024	0.00044	0.00037	0.0005	0	0.00034	0.00023	4
16427	0.00021	0.00024	0.00044	0.00037	0.0005	0	0.00034	0.00023	4
16428	0.00021	0.00024	0.00044	0.00037	0.0005	0	0.00034	0.00023	4
16429	0.00021	0.00024	0.00044	0.00037	0.0005	0	0.00034	0.00023	4
16430	0.00021	0.00024	0.00044	0.00037	0.0005	0	0.00034	0.00023	4
16431	0.00021	0.00024	0.00044	0.00037	0.0005	0	0.00034	0.00023	4
16432	-9e-05	-7e-05	4e-05	0.00034	0.00027	-0.00023	-9e-05	-9e-05	4
16433	0.0001	8e-05	5e-05	-0.00038	-0.00023	-0.00035	-0.0002	3e-05	4
16434	0.0001	8e-05	5e-05	-0.00038	-0.00023	-0.00035	-0.0002	3e-05	4
16435	0.0001	8e-05	5e-05	-0.00038	-0.00023	-0.00035	-0.0002	3e-05	4
16436	0.0001	8e-05	5e-05	-0.00038	-0.00023	-0.00035	-0.0002	3e-05	4
16438	0.0001	8e-05	5e-05	-0.00038	-0.00023	-0.00035	-0.0002	3e-05	4
16439	0.0001	8e-05	5e-05	-0.00038	-0.00023	-0.00035	-0.0002	3e-05	4
16440	0.0001	8e-05	5e-05	-0.00038	-0.00023	-0.00035	-0.0002	3e-05	4
16441	0.0001	8e-05	5e-05	-0.00038	-0.00023	-0.00035	-0.0002	3e-05	4
16442	0.0001	8e-05	5e-05	-0.00038	-0.00023	-0.00035	-0.0002	3e-05	4
16443	0.0001	8e-05	5e-05	-0.00038	-0.00023	-0.00035	-0.0002	3e-05	4
16444	0.0001	8e-05	5e-05	-0.00038	-0.00023	-0.00035	-0.0002	3e-05	4
16445	0.0001	8e-05	5e-05	-0.00038	-0.00023	-0.00035	-0.0002	3e-05	4
16446	0.0001	8e-05	5e-05	-0.00038	-0.00023	-0.00035	-0.0002	3e-05	4
16447	0.0001	8e-05	5e-05	-0.00038	-0.00023	-0.00035	-0.0002	3e-05	4
16448	0.0001	8e-05	5e-05	-0.00038	-0.00023	-0.00035	-0.0002	3e-05	4
16449	0.0001	8e-05	5e-05	-0.00038	-0.00023	-0.00035	-0.0002	3e-05	4
16450	0.0001	8e-05	5e-05	-0.00038	-0.00023	-0.00035	-0.0002	3e-05	4
16451	0.0001	8e-05	5e-05	-0.00038	-0.00023	-0.00035	-0.0002	3e-05	4
16452	0.0001	8e-05	5e-05	-0.00038	-0.00023	-0.00035	-0.0002	3e-05	4
16453	0.0001	8e-05	5e-05	-0.00038	-0.00023	-0.00035	-0.0002	3e-05	4
16454	0.0001	8e-05	5e-05	-0.00038	-0.00023	-0.00035	-0.0002	3e-05	4
16455	0.0001	8e-05	5e-05	-0.00038	-0.00023	-0.00035	-0.0002	3e-05	4
16456	0.0001	8e-05	5e-05	-0.00038	-0.00023	-0.00035	-0.0002	3e-05	4
16457	0.0001	8e-05	5e-05	-0.00038	-0.00023	-0.00035	-0.0002	3e-05	4
16458	0.0001	8e-05	5e-05	-0.00038	-0.00023	-0.00035	-0.0002	3e-05	4
16459	0.0001	8e-05	5e-05	-0.00038	-0.00023	-0.00035	-0.0002	3e-05	4
16460	0.0001	8e-05	5e-05	-0.00038	-0.00023	-0.00035	-0.0002	3e-05	4
16461	1e-05	0.00011	0.00043	0.00081	0.00073	0.00039	0.0002	8e-05	4
16462	1e-05	0.00011	0.00043	0.00081	0.00073	0.00039	0.0002	8e-05	4
16463	-0.00017	-0.00014	-0.00022	-7e-05	-5e-05	-0.00013	-0.00034	-0.00018	4
16464	-0.00017	-0.00014	-0.00022	-7e-05	-5e-05	-0.00013	-0.00034	-0.00018	4
16465	-0.00017	-0.00014	-0.00022	-7e-05	-5e-05	-0.00013	-0.00034	-0.00018	4
16466	-0.00017	-0.00014	-0.00022	-7e-05	-5e-05	-0.00013	-0.00034	-0.00018	4
16467	-0.00017	-0.00014	-0.00022	-7e-05	-5e-05	-0.00013	-0.00034	-0.00018	4
16468	3e-05	1e-05	3e-05	-0.0001	-4e-05	0.00028	0.00019	8e-05	4
16469	7e-05	9e-05	0.00033	8e-05	-0.00109	-0.00057	7e-05	4e-05	4
16470	7e-05	9e-05	0.00033	8e-05	-0.00109	-0.00057	7e-05	4e-05	4
16471	-0.00014	-0.00013	-8e-05	0.00011	-8e-05	-0.00027	-0.00015	-0.00012	4
16472	-0.00014	-0.00013	-8e-05	0.00011	-8e-05	-0.00027	-0.00015	-0.00012	4
16473	-0.00014	-0.00013	-8e-05	0.00011	-8e-05	-0.00027	-0.00015	-0.00012	4
16474	-0.00014	-0.00013	-8e-05	0.00011	-8e-05	-0.00027	-0.00015	-0.00012	4
16475	-0.00014	-0.00013	-8e-05	0.00011	-8e-05	-0.00027	-0.00015	-0.00012	4
16476	-0.00014	-0.00013	-8e-05	0.00011	-8e-05	-0.00027	-0.00015	-0.00012	4
16477	-0.00014	-0.00013	-8e-05	0.00011	-8e-05	-0.00027	-0.00015	-0.00012	4
16478	-0.00014	-0.00013	-8e-05	0.00011	-8e-05	-0.00027	-0.00015	-0.00012	4
16479	-0.00014	-0.00013	-8e-05	0.00011	-8e-05	-0.00027	-0.00015	-0.00012	4
16480	-0.00014	-0.00013	-8e-05	0.00011	-8e-05	-0.00027	-0.00015	-0.00012	4
16481	-0.00014	-0.00013	-8e-05	0.00011	-8e-05	-0.00027	-0.00015	-0.00012	4
16482	-0.00014	-0.00013	-8e-05	0.00011	-8e-05	-0.00027	-0.00015	-0.00012	4
16483	-0.00014	-0.00013	-8e-05	0.00011	-8e-05	-0.00027	-0.00015	-0.00012	4
16484	-0.00014	-0.00013	-8e-05	0.00011	-8e-05	-0.00027	-0.00015	-0.00012	4
16485	-0.00014	-0.00013	-8e-05	0.00011	-8e-05	-0.00027	-0.00015	-0.00012	4
16486	-0.00014	-0.00013	-8e-05	0.00011	-8e-05	-0.00027	-0.00015	-0.00012	4
16488	-0.00014	-0.00013	-8e-05	0.00011	-8e-05	-0.00027	-0.00015	-0.00012	4
16489	-0.00014	-0.00013	-8e-05	0.00011	-8e-05	-0.00027	-0.00015	-0.00012	4
16490	-0.00014	-0.00013	-8e-05	0.00011	-8e-05	-0.00027	-0.00015	-0.00012	4
16491	0.00012	3e-05	-5e-05	-0.00027	-0.00016	-0.00038	0.00028	0.00021	4
16492	0.00012	3e-05	-5e-05	-0.00027	-0.00016	-0.00038	0.00028	0.00021	4
16493	-0.00011	-5e-05	4e-05	0.00061	0.00089	0.00035	-1e-05	-0.00012	4
16494	-0.00011	-5e-05	4e-05	0.00061	0.00089	0.00035	-1e-05	-0.00012	4
16495	-0.00011	-5e-05	4e-05	0.00061	0.00089	0.00035	-1e-05	-0.00012	4
16496	-0.00011	-5e-05	4e-05	0.00061	0.00089	0.00035	-1e-05	-0.00012	4
16497	-0.00011	-5e-05	4e-05	0.00061	0.00089	0.00035	-1e-05	-0.00012	4
16498	-0.00011	-5e-05	4e-05	0.00061	0.00089	0.00035	-1e-05	-0.00012	4
16499	-0.00011	-5e-05	4e-05	0.00061	0.00089	0.00035	-1e-05	-0.00012	4
16500	-0.00011	-5e-05	4e-05	0.00061	0.00089	0.00035	-1e-05	-0.00012	4
16501	-0.00011	-5e-05	4e-05	0.00061	0.00089	0.00035	-1e-05	-0.00012	4
16502	-0.00011	-5e-05	4e-05	0.00061	0.00089	0.00035	-1e-05	-0.00012	4
16503	-0.00011	-5e-05	4e-05	0.00061	0.00089	0.00035	-1e-05	-0.00012	4
16504	-0.00011	-5e-05	4e-05	0.00061	0.00089	0.00035	-1e-05	-0.00012	4
16505	-0.00011	-5e-05	4e-05	0.00061	0.00089	0.00035	-1e-05	-0.00012	4
16506	-0.00011	-5e-05	4e-05	0.00061	0.00089	0.00035	-1e-05	-0.00012	4
16507	-0.00011	-5e-05	4e-05	0.00061	0.00089	0.00035	-1e-05	-0.00012	4
16508	-0.00011	-5e-05	4e-05	0.00061	0.00089	0.00035	-1e-05	-0.00012	4
16509	-0.00011	-5e-05	4e-05	0.00061	0.00089	0.00035	-1e-05	-0.00012	4
16510	-0.00011	-5e-05	4e-05	0.00061	0.00089	0.00035	-1e-05	-0.00012	4
16511	-0.00011	-5e-05	4e-05	0.00061	0.00089	0.00035	-1e-05	-0.00012	4
16512	-0.00011	-5e-05	4e-05	0.00061	0.00089	0.00035	-1e-05	-0.00012	4
16513	-0.00011	-5e-05	4e-05	0.00061	0.00089	0.00035	-1e-05	-0.00012	4
16514	-0.00011	-5e-05	4e-05	0.00061	0.00089	0.00035	-1e-05	-0.00012	4
16515	-0.00011	-5e-05	4e-05	0.00061	0.00089	0.00035	-1e-05	-0.00012	4
16516	-0.00011	-5e-05	4e-05	0.00061	0.00089	0.00035	-1e-05	-0.00012	4
16517	-0.00011	-5e-05	4e-05	0.00061	0.00089	0.00035	-1e-05	-0.00012	4
16518	-0.00011	-5e-05	4e-05	0.00061	0.00089	0.00035	-1e-05	-0.00012	4
16519	-0.00011	-5e-05	4e-05	0.00061	0.00089	0.00035	-1e-05	-0.00012	4
16520	-0.00011	-5e-05	4e-05	0.00061	0.00089	0.00035	-1e-05	-0.00012	4
16521	-6e-05	-0.00013	-0.00017	-1e-05	-0.00044	-0.0002	-0.00013	-8e-05	4
16522	-6e-05	-0.00013	-0.00017	-1e-05	-0.00044	-0.0002	-0.00013	-8e-05	4
16523	-7e-05	-0.0001	-0.00041	-0.00098	-0.00054	-9e-05	-4e-05	-6e-05	4
16524	-7e-05	-0.0001	-0.00041	-0.00098	-0.00054	-9e-05	-4e-05	-6e-05	4
16525	-7e-05	-0.0001	-0.00041	-0.00098	-0.00054	-9e-05	-4e-05	-6e-05	4
16526	-7e-05	-0.0001	-0.00041	-0.00098	-0.00054	-9e-05	-4e-05	-6e-05	4
16527	-7e-05	-0.0001	-0.00041	-0.00098	-0.00054	-9e-05	-4e-05	-6e-05	4
16528	-7e-05	-0.0001	-0.00041	-0.00098	-0.00054	-9e-05	-4e-05	-6e-05	4
16529	3e-05	-2e-05	-0.0003	-0.00079	-9e-05	-0.0001	-0.0001	-2e-05	4
16530	4e-05	5e-05	0.00014	-0.00028	-0.00123	0.00021	2e-05	7e-05	4
16531	4e-05	5e-05	0.00014	-0.00028	-0.00123	0.00021	2e-05	7e-05	4
16532	4e-05	5e-05	0.00014	-0.00028	-0.00123	0.00021	2e-05	7e-05	4
16533	4e-05	5e-05	0.00014	-0.00028	-0.00123	0.00021	2e-05	7e-05	4
16534	4e-05	5e-05	0.00014	-0.00028	-0.00123	0.00021	2e-05	7e-05	4
16535	4e-05	5e-05	0.00014	-0.00028	-0.00123	0.00021	2e-05	7e-05	4
16536	4e-05	5e-05	0.00014	-0.00028	-0.00123	0.00021	2e-05	7e-05	4
16538	4e-05	5e-05	0.00014	-0.00028	-0.00123	0.00021	2e-05	7e-05	4
16539	4e-05	5e-05	0.00014	-0.00028	-0.00123	0.00021	2e-05	7e-05	4
16540	4e-05	5e-05	0.00014	-0.00028	-0.00123	0.00021	2e-05	7e-05	4
16541	4e-05	5e-05	0.00014	-0.00028	-0.00123	0.00021	2e-05	7e-05	4
16542	4e-05	5e-05	0.00014	-0.00028	-0.00123	0.00021	2e-05	7e-05	4
16543	4e-05	5e-05	0.00014	-0.00028	-0.00123	0.00021	2e-05	7e-05	4
16544	4e-05	5e-05	0.00014	-0.00028	-0.00123	0.00021	2e-05	7e-05	4
16545	4e-05	5e-05	0.00014	-0.00028	-0.00123	0.00021	2e-05	7e-05	4
16546	4e-05	5e-05	0.00014	-0.00028	-0.00123	0.00021	2e-05	7e-05	4
16547	4e-05	5e-05	0.00014	-0.00028	-0.00123	0.00021	2e-05	7e-05	4
16548	4e-05	5e-05	0.00014	-0.00028	-0.00123	0.00021	2e-05	7e-05	4
16549	4e-05	5e-05	0.00014	-0.00028	-0.00123	0.00021	2e-05	7e-05	4
16550	4e-05	5e-05	0.00014	-0.00028	-0.00123	0.00021	2e-05	7e-05	4
16551	4e-05	5e-05	0.00014	-0.00028	-0.00123	0.00021	2e-05	7e-05	4
16552	-5e-05	-0.00011	-0.00033	-0.00022	-7e-05	-0.00054	-0.00013	-5e-05	4
16553	6e-05	0.00014	0.00043	-8e-05	-0.00052	-0.00031	-4e-05	3e-05	4
16554	6e-05	0.00014	0.00043	-8e-05	-0.00052	-0.00031	-4e-05	3e-05	4
16555	6e-05	0.00014	0.00043	-8e-05	-0.00052	-0.00031	-4e-05	3e-05	4
16556	6e-05	0.00014	0.00043	-8e-05	-0.00052	-0.00031	-4e-05	3e-05	4
16557	6e-05	0.00014	0.00043	-8e-05	-0.00052	-0.00031	-4e-05	3e-05	4
16558	6e-05	0.00014	0.00043	-8e-05	-0.00052	-0.00031	-4e-05	3e-05	4
16559	6e-05	0.00014	0.00043	-8e-05	-0.00052	-0.00031	-4e-05	3e-05	4
16560	6e-05	0.00014	0.00043	-8e-05	-0.00052	-0.00031	-4e-05	3e-05	4
16561	6e-05	0.00014	0.00043	-8e-05	-0.00052	-0.00031	-4e-05	3e-05	4
16562	6e-05	0.00014	0.00043	-8e-05	-0.00052	-0.00031	-4e-05	3e-05	4
16563	6e-05	0.00014	0.00043	-8e-05	-0.00052	-0.00031	-4e-05	3e-05	4
16564	6e-05	0.00014	0.00043	-8e-05	-0.00052	-0.00031	-4e-05	3e-05	4
16565	6e-05	0.00014	0.00043	-8e-05	-0.00052	-0.00031	-4e-05	3e-05	4
16566	-7e-05	-8e-05	-9e-05	0.00012	0.00016	-0.00019	-0.00019	-0.00011	4
16567	-7e-05	-8e-05	-9e-05	0.00012	0.00016	-0.00019	-0.00019	-0.00011	4
16568	-7e-05	-8e-05	-9e-05	0.00012	0.00016	-0.00019	-0.00019	-0.00011	4
16569	-7e-05	-8e-05	-9e-05	0.00012	0.00016	-0.00019	-0.00019	-0.00011	4
16570	-7e-05	-8e-05	-9e-05	0.00012	0.00016	-0.00019	-0.00019	-0.00011	4
16571	-7e-05	-8e-05	-9e-05	0.00012	0.00016	-0.00019	-0.00019	-0.00011	4
16572	5e-05	7e-05	2e-05	-0.00034	0.00058	-2e-05	0.00013	6e-05	4
16573	5e-05	7e-05	2e-05	-0.00034	0.00058	-2e-05	0.00013	6e-05	4
16574	5e-05	7e-05	2e-05	-0.00034	0.00058	-2e-05	0.00013	6e-05	4
16575	5e-05	7e-05	2e-05	-0.00034	0.00058	-2e-05	0.00013	6e-05	4
16576	5e-05	7e-05	2e-05	-0.00034	0.00058	-2e-05	0.00013	6e-05	4
16577	5e-05	7e-05	2e-05	-0.00034	0.00058	-2e-05	0.00013	6e-05	4
16578	5e-05	7e-05	2e-05	-0.00034	0.00058	-2e-05	0.00013	6e-05	4
16579	5e-05	7e-05	2e-05	-0.00034	0.00058	-2e-05	0.00013	6e-05	4
16580	5e-05	7e-05	2e-05	-0.00034	0.00058	-2e-05	0.00013	6e-05	4
16581	5e-05	7e-05	2e-05	-0.00034	0.00058	-2e-05	0.00013	6e-05	4
16582	5e-05	7e-05	2e-05	-0.00034	0.00058	-2e-05	0.00013	6e-05	4
16583	5e-05	7e-05	2e-05	-0.00034	0.00058	-2e-05	0.00013	6e-05	4
16584	5e-05	7e-05	2e-05	-0.00034	0.00058	-2e-05	0.00013	6e-05	4
16585	5e-05	7e-05	2e-05	-0.00034	0.00058	-2e-05	0.00013	6e-05	4
16586	5e-05	7e-05	2e-05	-0.00034	0.00058	-2e-05	0.00013	6e-05	4
16589	5e-05	0.00013	0.00022	8e-05	0.00043	0.00019	-1e-05	1e-05	4
16590	-3e-05	-1e-05	0.00012	0.00075	0.00072	0.0002	8e-05	0	4
16591	-3e-05	-1e-05	0.00012	0.00075	0.00072	0.0002	8e-05	0	4
16592	-3e-05	-1e-05	0.00012	0.00075	0.00072	0.0002	8e-05	0	4
16593	-3e-05	-1e-05	0.00012	0.00075	0.00072	0.0002	8e-05	0	4
16594	-3e-05	-1e-05	0.00012	0.00075	0.00072	0.0002	8e-05	0	4
16595	-3e-05	-1e-05	0.00012	0.00075	0.00072	0.0002	8e-05	0	4
16596	-3e-05	-1e-05	0.00012	0.00075	0.00072	0.0002	8e-05	0	4
16597	-3e-05	-1e-05	0.00012	0.00075	0.00072	0.0002	8e-05	0	4
16598	-3e-05	-1e-05	0.00012	0.00075	0.00072	0.0002	8e-05	0	4
16599	-3e-05	-1e-05	0.00012	0.00075	0.00072	0.0002	8e-05	0	4
16600	-3e-05	-1e-05	0.00012	0.00075	0.00072	0.0002	8e-05	0	4
16601	-3e-05	-1e-05	0.00012	0.00075	0.00072	0.0002	8e-05	0	4
16602	-3e-05	-1e-05	0.00012	0.00075	0.00072	0.0002	8e-05	0	4
16603	-3e-05	-1e-05	0.00012	0.00075	0.00072	0.0002	8e-05	0	4
16604	-3e-05	-1e-05	0.00012	0.00075	0.00072	0.0002	8e-05	0	4
16605	-3e-05	-1e-05	0.00012	0.00075	0.00072	0.0002	8e-05	0	4
16606	-3e-05	-1e-05	0.00012	0.00075	0.00072	0.0002	8e-05	0	4
16607	-3e-05	-1e-05	0.00012	0.00075	0.00072	0.0002	8e-05	0	4
16608	-3e-05	-1e-05	0.00012	0.00075	0.00072	0.0002	8e-05	0	4
16609	-3e-05	-1e-05	0.00012	0.00075	0.00072	0.0002	8e-05	0	4
16610	-3e-05	-1e-05	0.00012	0.00075	0.00072	0.0002	8e-05	0	4
16611	0.00015	7e-05	8e-05	0.0001	0.0006	-7e-05	0.00013	7e-05	4
16612	0.00015	7e-05	8e-05	0.0001	0.0006	-7e-05	0.00013	7e-05	4
16613	-5e-05	-6e-05	-0.00018	-0.00023	-0.00034	-0.00054	-0.00026	-0.0001	4
16614	-5e-05	-6e-05	-0.00018	-0.00023	-0.00034	-0.00054	-0.00026	-0.0001	4
16615	-5e-05	-6e-05	-0.00018	-0.00023	-0.00034	-0.00054	-0.00026	-0.0001	4
16616	-5e-05	-6e-05	-0.00018	-0.00023	-0.00034	-0.00054	-0.00026	-0.0001	4
16617	-5e-05	-6e-05	-0.00018	-0.00023	-0.00034	-0.00054	-0.00026	-0.0001	4
16618	-5e-05	-6e-05	-0.00018	-0.00023	-0.00034	-0.00054	-0.00026	-0.0001	4
16619	-5e-05	-6e-05	-0.00018	-0.00023	-0.00034	-0.00054	-0.00026	-0.0001	4
16620	-5e-05	-6e-05	-0.00018	-0.00023	-0.00034	-0.00054	-0.00026	-0.0001	4
16621	-5e-05	-6e-05	-0.00018	-0.00023	-0.00034	-0.00054	-0.00026	-0.0001	4
16622	-5e-05	-6e-05	-0.00018	-0.00023	-0.00034	-0.00054	-0.00026	-0.0001	4
16623	-5e-05	-6e-05	-0.00018	-0.00023	-0.00034	-0.00054	-0.00026	-0.0001	4
16624	-5e-05	-6e-05	-0.00018	-0.00023	-0.00034	-0.00054	-0.00026	-0.0001	4
16625	-5e-05	-6e-05	-0.00018	-0.00023	-0.00034	-0.00054	-0.00026	-0.0001	4
16626	-5e-05	-6e-05	-0.00018	-0.00023	-0.00034	-0.00054	-0.00026	-0.0001	4
16627	-5e-05	-6e-05	-0.00018	-0.00023	-0.00034	-0.00054	-0.00026	-0.0001	4
16628	-5e-05	-6e-05	-0.00018	-0.00023	-0.00034	-0.00054	-0.00026	-0.0001	4
16629	-5e-05	-6e-05	-0.00018	-0.00023	-0.00034	-0.00054	-0.00026	-0.0001	4
16630	-5e-05	-6e-05	-0.00018	-0.00023	-0.00034	-0.00054	-0.00026	-0.0001	4
16631	-5e-05	-6e-05	-0.00018	-0.00023	-0.00034	-0.00054	-0.00026	-0.0001	4
16632	-5e-05	-6e-05	-0.00018	-0.00023	-0.00034	-0.00054	-0.00026	-0.0001	4
16633	-5e-05	-6e-05	-0.00018	-0.00023	-0.00034	-0.00054	-0.00026	-0.0001	4
16634	6e-05	6e-05	0	-0.0005	-0.00016	0.0001	-7e-05	-3e-05	4
16635	6e-05	6e-05	0	-0.0005	-0.00016	0.0001	-7e-05	-3e-05	4
16636	6e-05	6e-05	0	-0.0005	-0.00016	0.0001	-7e-05	-3e-05	4
16639	6e-05	6e-05	0	-0.0005	-0.00016	0.0001	-7e-05	-3e-05	4
16640	-1e-05	-9e-05	-0.00024	-1e-05	-0.00041	-2e-05	-8e-05	-4e-05	4
16641	-1e-05	-9e-05	-0.00024	-1e-05	-0.00041	-2e-05	-8e-05	-4e-05	4
16642	-1e-05	-9e-05	-0.00024	-1e-05	-0.00041	-2e-05	-8e-05	-4e-05	4
16643	-1e-05	-9e-05	-0.00024	-1e-05	-0.00041	-2e-05	-8e-05	-4e-05	4
16644	-1e-05	-9e-05	-0.00024	-1e-05	-0.00041	-2e-05	-8e-05	-4e-05	4
16645	-1e-05	-9e-05	-0.00024	-1e-05	-0.00041	-2e-05	-8e-05	-4e-05	4
16646	-1e-05	-9e-05	-0.00024	-1e-05	-0.00041	-2e-05	-8e-05	-4e-05	4
16647	-1e-05	-9e-05	-0.00024	-1e-05	-0.00041	-2e-05	-8e-05	-4e-05	4
16648	5e-05	5e-05	-2e-05	0.00027	0.00033	0.00033	0.00011	7e-05	4
16649	-0.00014	-0.00011	-0.00013	-0.0007	-0.0007	-3e-05	-5e-05	-9e-05	4
16650	5e-05	-1e-05	0.00017	1e-05	0.00051	0.00074	0.00027	0.00013	4
16651	5e-05	-1e-05	0.00017	1e-05	0.00051	0.00074	0.00027	0.00013	4
16652	5e-05	-1e-05	0.00017	1e-05	0.00051	0.00074	0.00027	0.00013	4
16653	5e-05	-1e-05	0.00017	1e-05	0.00051	0.00074	0.00027	0.00013	4
16654	5e-05	-1e-05	0.00017	1e-05	0.00051	0.00074	0.00027	0.00013	4
16655	5e-05	-1e-05	0.00017	1e-05	0.00051	0.00074	0.00027	0.00013	4
16656	5e-05	-1e-05	0.00017	1e-05	0.00051	0.00074	0.00027	0.00013	4
16657	5e-05	-1e-05	0.00017	1e-05	0.00051	0.00074	0.00027	0.00013	4
16658	5e-05	-1e-05	0.00017	1e-05	0.00051	0.00074	0.00027	0.00013	4
16659	5e-05	-1e-05	0.00017	1e-05	0.00051	0.00074	0.00027	0.00013	4
16660	5e-05	-1e-05	0.00017	1e-05	0.00051	0.00074	0.00027	0.00013	4
16661	5e-05	-1e-05	0.00017	1e-05	0.00051	0.00074	0.00027	0.00013	4
16662	5e-05	-1e-05	0.00017	1e-05	0.00051	0.00074	0.00027	0.00013	4
16663	5e-05	-1e-05	0.00017	1e-05	0.00051	0.00074	0.00027	0.00013	4
16664	5e-05	-1e-05	0.00017	1e-05	0.00051	0.00074	0.00027	0.00013	4
16665	5e-05	-1e-05	0.00017	1e-05	0.00051	0.00074	0.00027	0.00013	4
16666	5e-05	-1e-05	0.00017	1e-05	0.00051	0.00074	0.00027	0.00013	4
16667	5e-05	-1e-05	0.00017	1e-05	0.00051	0.00074	0.00027	0.00013	4
16668	5e-05	-1e-05	0.00017	1e-05	0.00051	0.00074	0.00027	0.00013	4
16669	5e-05	-1e-05	0.00017	1e-05	0.00051	0.00074	0.00027	0.00013	4
16670	5e-05	-1e-05	0.00017	1e-05	0.00051	0.00074	0.00027	0.00013	4
16671	5e-05	-1e-05	0.00017	1e-05	0.00051	0.00074	0.00027	0.00013	4
16672	5e-05	-1e-05	0.00017	1e-05	0.00051	0.00074	0.00027	0.00013	4
16673	5e-05	-1e-05	0.00017	1e-05	0.00051	0.00074	0.00027	0.00013	4
16674	5e-05	-1e-05	0.00017	1e-05	0.00051	0.00074	0.00027	0.00013	4
16675	5e-05	-1e-05	0.00017	1e-05	0.00051	0.00074	0.00027	0.00013	4
16676	5e-05	-1e-05	0.00017	1e-05	0.00051	0.00074	0.00027	0.00013	4
16677	5e-05	-1e-05	0.00017	1e-05	0.00051	0.00074	0.00027	0.00013	4
16678	5e-05	-1e-05	0.00017	1e-05	0.00051	0.00074	0.00027	0.00013	4
16679	0	4e-05	-5e-05	8e-05	0.00031	0.00044	0.00017	4e-05	4
16680	1e-05	0.00015	0.00012	-0.00021	-0.00041	-0.0004	-0.00011	-3e-05	4
16681	1e-05	0.00015	0.00012	-0.00021	-0.00041	-0.0004	-0.00011	-3e-05	4
16682	1e-05	0.00015	0.00012	-0.00021	-0.00041	-0.0004	-0.00011	-3e-05	4
16683	1e-05	0.00015	0.00012	-0.00021	-0.00041	-0.0004	-0.00011	-3e-05	4
16684	1e-05	0.00015	0.00012	-0.00021	-0.00041	-0.0004	-0.00011	-3e-05	4
16685	1e-05	0.00015	0.00012	-0.00021	-0.00041	-0.0004	-0.00011	-3e-05	4
16686	1e-05	0.00015	0.00012	-0.00021	-0.00041	-0.0004	-0.00011	-3e-05	4
16689	1e-05	0.00015	0.00012	-0.00021	-0.00041	-0.0004	-0.00011	-3e-05	4
16690	1e-05	0.00015	0.00012	-0.00021	-0.00041	-0.0004	-0.00011	-3e-05	4
16691	1e-05	0.00015	0.00012	-0.00021	-0.00041	-0.0004	-0.00011	-3e-05	4
16692	1e-05	0.00015	0.00012	-0.00021	-0.00041	-0.0004	-0.00011	-3e-05	4
16693	1e-05	0.00015	0.00012	-0.00021	-0.00041	-0.0004	-0.00011	-3e-05	4
16694	1e-05	0.00015	0.00012	-0.00021	-0.00041	-0.0004	-0.00011	-3e-05	4
16695	1e-05	0.00015	0.00012	-0.00021	-0.00041	-0.0004	-0.00011	-3e-05	4
16696	1e-05	0.00015	0.00012	-0.00021	-0.00041	-0.0004	-0.00011	-3e-05	4
16697	1e-05	0.00015	0.00012	-0.00021	-0.00041	-0.0004	-0.00011	-3e-05	4
16698	1e-05	0.00015	0.00012	-0.00021	-0.00041	-0.0004	-0.00011	-3e-05	4
16699	1e-05	0.00015	0.00012	-0.00021	-0.00041	-0.0004	-0.00011	-3e-05	4
16700	1e-05	0.00015	0.00012	-0.00021	-0.00041	-0.0004	-0.00011	-3e-05	4
16701	1e-05	0.00015	0.00012	-0.00021	-0.00041	-0.0004	-0.00011	-3e-05	4
16702	1e-05	0.00015	0.00012	-0.00021	-0.00041	-0.0004	-0.00011	-3e-05	4
16703	1e-05	0.00015	0.00012	-0.00021	-0.00041	-0.0004	-0.00011	-3e-05	4
16704	1e-05	0.00015	0.00012	-0.00021	-0.00041	-0.0004	-0.00011	-3e-05	4
16705	1e-05	0.00015	0.00012	-0.00021	-0.00041	-0.0004	-0.00011	-3e-05	4
16706	1e-05	0.00015	0.00012	-0.00021	-0.00041	-0.0004	-0.00011	-3e-05	4
16707	1e-05	0.00015	0.00012	-0.00021	-0.00041	-0.0004	-0.00011	-3e-05	4
16708	1e-05	0.00015	0.00012	-0.00021	-0.00041	-0.0004	-0.00011	-3e-05	4
16709	1e-05	0.00015	0.00012	-0.00021	-0.00041	-0.0004	-0.00011	-3e-05	4
16710	-5e-05	-8e-05	-2e-05	4e-05	0.00013	5e-05	-6e-05	-6e-05	4
16711	-7e-05	-4e-05	3e-05	0.0006	4e-05	9e-05	0	-6e-05	4
16712	-2e-05	-2e-05	-7e-05	1e-05	-0.00019	-0.0006	-0.00012	-5e-05	4
16713	-2e-05	-2e-05	-7e-05	1e-05	-0.00019	-0.0006	-0.00012	-5e-05	4
16714	-2e-05	-2e-05	-7e-05	1e-05	-0.00019	-0.0006	-0.00012	-5e-05	4
16715	-2e-05	-2e-05	-7e-05	1e-05	-0.00019	-0.0006	-0.00012	-5e-05	4
16716	-2e-05	-2e-05	-7e-05	1e-05	-0.00019	-0.0006	-0.00012	-5e-05	4
16717	-3e-05	-8e-05	-0.00034	-0.00068	-0.00047	-0.0002	-0.00013	-3e-05	4
16718	-3e-05	-8e-05	-0.00034	-0.00068	-0.00047	-0.0002	-0.00013	-3e-05	4
16719	-3e-05	-8e-05	-0.00034	-0.00068	-0.00047	-0.0002	-0.00013	-3e-05	4
16720	-3e-05	-8e-05	-0.00034	-0.00068	-0.00047	-0.0002	-0.00013	-3e-05	4
16721	-3e-05	-8e-05	-0.00034	-0.00068	-0.00047	-0.0002	-0.00013	-3e-05	4
16722	-3e-05	-8e-05	-0.00034	-0.00068	-0.00047	-0.0002	-0.00013	-3e-05	4
16723	-3e-05	-8e-05	-0.00034	-0.00068	-0.00047	-0.0002	-0.00013	-3e-05	4
16724	-3e-05	-8e-05	-0.00034	-0.00068	-0.00047	-0.0002	-0.00013	-3e-05	4
16725	-3e-05	-8e-05	-0.00034	-0.00068	-0.00047	-0.0002	-0.00013	-3e-05	4
16726	-3e-05	-8e-05	-0.00034	-0.00068	-0.00047	-0.0002	-0.00013	-3e-05	4
16727	-3e-05	-8e-05	-0.00034	-0.00068	-0.00047	-0.0002	-0.00013	-3e-05	4
16728	-3e-05	-8e-05	-0.00034	-0.00068	-0.00047	-0.0002	-0.00013	-3e-05	4
16729	-3e-05	-8e-05	-0.00034	-0.00068	-0.00047	-0.0002	-0.00013	-3e-05	4
16730	-3e-05	-8e-05	-0.00034	-0.00068	-0.00047	-0.0002	-0.00013	-3e-05	4
16731	-3e-05	-8e-05	-0.00034	-0.00068	-0.00047	-0.0002	-0.00013	-3e-05	4
16732	-3e-05	-8e-05	-0.00034	-0.00068	-0.00047	-0.0002	-0.00013	-3e-05	4
16733	-3e-05	-8e-05	-0.00034	-0.00068	-0.00047	-0.0002	-0.00013	-3e-05	4
16734	-3e-05	-8e-05	-0.00034	-0.00068	-0.00047	-0.0002	-0.00013	-3e-05	4
16735	-3e-05	-8e-05	-0.00034	-0.00068	-0.00047	-0.0002	-0.00013	-3e-05	4
16736	-3e-05	-8e-05	-0.00034	-0.00068	-0.00047	-0.0002	-0.00013	-3e-05	4
16739	3e-05	7e-05	0.00018	0.00046	-1e-05	0.00075	0.00016	5e-05	4
16740	5e-05	1e-05	2e-05	-0.00019	0.00038	0.00014	0.00016	6e-05	4
16741	5e-05	1e-05	2e-05	-0.00019	0.00038	0.00014	0.00016	6e-05	4
16742	5e-05	1e-05	2e-05	-0.00019	0.00038	0.00014	0.00016	6e-05	4
16743	5e-05	1e-05	2e-05	-0.00019	0.00038	0.00014	0.00016	6e-05	4
16744	5e-05	1e-05	2e-05	-0.00019	0.00038	0.00014	0.00016	6e-05	4
16745	3e-05	3e-05	3e-05	0.00018	0.00025	2e-05	0.00012	6e-05	4
16746	3e-05	3e-05	3e-05	0.00018	0.00025	2e-05	0.00012	6e-05	4
16747	3e-05	3e-05	3e-05	0.00018	0.00025	2e-05	0.00012	6e-05	4
16748	3e-05	3e-05	3e-05	0.00018	0.00025	2e-05	0.00012	6e-05	4
16749	3e-05	3e-05	3e-05	0.00018	0.00025	2e-05	0.00012	6e-05	4
16750	3e-05	3e-05	3e-05	0.00018	0.00025	2e-05	0.00012	6e-05	4
16751	3e-05	3e-05	3e-05	0.00018	0.00025	2e-05	0.00012	6e-05	4
16752	3e-05	3e-05	3e-05	0.00018	0.00025	2e-05	0.00012	6e-05	4
16753	3e-05	3e-05	3e-05	0.00018	0.00025	2e-05	0.00012	6e-05	4
16754	3e-05	3e-05	3e-05	0.00018	0.00025	2e-05	0.00012	6e-05	4
16755	3e-05	3e-05	3e-05	0.00018	0.00025	2e-05	0.00012	6e-05	4
16756	3e-05	3e-05	3e-05	0.00018	0.00025	2e-05	0.00012	6e-05	4
16757	3e-05	3e-05	3e-05	0.00018	0.00025	2e-05	0.00012	6e-05	4
16758	3e-05	3e-05	3e-05	0.00018	0.00025	2e-05	0.00012	6e-05	4
16759	3e-05	3e-05	3e-05	0.00018	0.00025	2e-05	0.00012	6e-05	4
16760	3e-05	3e-05	3e-05	0.00018	0.00025	2e-05	0.00012	6e-05	4
16761	3e-05	3e-05	3e-05	0.00018	0.00025	2e-05	0.00012	6e-05	4
16762	3e-05	3e-05	3e-05	0.00018	0.00025	2e-05	0.00012	6e-05	4
16763	3e-05	3e-05	3e-05	0.00018	0.00025	2e-05	0.00012	6e-05	4
16764	3e-05	3e-05	3e-05	0.00018	0.00025	2e-05	0.00012	6e-05	4
16765	3e-05	3e-05	3e-05	0.00018	0.00025	2e-05	0.00012	6e-05	4
16766	3e-05	3e-05	3e-05	0.00018	0.00025	2e-05	0.00012	6e-05	4
16767	3e-05	3e-05	3e-05	0.00018	0.00025	2e-05	0.00012	6e-05	4
16768	3e-05	3e-05	3e-05	0.00018	0.00025	2e-05	0.00012	6e-05	4
16769	3e-05	3e-05	3e-05	0.00018	0.00025	2e-05	0.00012	6e-05	4
16770	3e-05	3e-05	3e-05	0.00018	0.00025	2e-05	0.00012	6e-05	4
16771	1e-05	1e-05	-0.0002	-0.00098	0.00012	-0.00021	0.00013	5e-05	4
16772	-5e-05	1e-05	4e-05	0.00018	-0.00037	6e-05	-5e-05	-2e-05	4
16773	-5e-05	1e-05	4e-05	0.00018	-0.00037	6e-05	-5e-05	-2e-05	4
16774	-5e-05	1e-05	4e-05	0.00018	-0.00037	6e-05	-5e-05	-2e-05	4
16775	-0.00016	-0.00025	-9e-05	0.00049	-0.00024	-0.0003	-5e-05	-0.00014	4
16776	-0.00016	-0.00025	-9e-05	0.00049	-0.00024	-0.0003	-5e-05	-0.00014	4
16777	-0.00016	-0.00025	-9e-05	0.00049	-0.00024	-0.0003	-5e-05	-0.00014	4
16778	-0.00016	-0.00025	-9e-05	0.00049	-0.00024	-0.0003	-5e-05	-0.00014	4
16779	-0.00016	-0.00025	-9e-05	0.00049	-0.00024	-0.0003	-5e-05	-0.00014	4
16780	-0.00016	-0.00025	-9e-05	0.00049	-0.00024	-0.0003	-5e-05	-0.00014	4
16781	-0.00016	-0.00025	-9e-05	0.00049	-0.00024	-0.0003	-5e-05	-0.00014	4
16782	-0.00016	-0.00025	-9e-05	0.00049	-0.00024	-0.0003	-5e-05	-0.00014	4
16783	-0.00016	-0.00025	-9e-05	0.00049	-0.00024	-0.0003	-5e-05	-0.00014	4
16784	-0.00016	-0.00025	-9e-05	0.00049	-0.00024	-0.0003	-5e-05	-0.00014	4
16785	-0.00016	-0.00025	-9e-05	0.00049	-0.00024	-0.0003	-5e-05	-0.00014	4
16786	-0.00016	-0.00025	-9e-05	0.00049	-0.00024	-0.0003	-5e-05	-0.00014	4
16789	-0.00016	-0.00025	-9e-05	0.00049	-0.00024	-0.0003	-5e-05	-0.00014	4
16790	-0.00016	-0.00025	-9e-05	0.00049	-0.00024	-0.0003	-5e-05	-0.00014	4
16791	-0.00016	-0.00025	-9e-05	0.00049	-0.00024	-0.0003	-5e-05	-0.00014	4
16792	-0.00016	-0.00025	-9e-05	0.00049	-0.00024	-0.0003	-5e-05	-0.00014	4
16793	-0.00016	-0.00025	-9e-05	0.00049	-0.00024	-0.0003	-5e-05	-0.00014	4
16794	-0.00016	-0.00025	-9e-05	0.00049	-0.00024	-0.0003	-5e-05	-0.00014	4
16795	-0.00016	-0.00025	-9e-05	0.00049	-0.00024	-0.0003	-5e-05	-0.00014	4
16796	-0.00016	-0.00025	-9e-05	0.00049	-0.00024	-0.0003	-5e-05	-0.00014	4
16797	-0.00016	-0.00025	-9e-05	0.00049	-0.00024	-0.0003	-5e-05	-0.00014	4
16798	-0.00016	-0.00025	-9e-05	0.00049	-0.00024	-0.0003	-5e-05	-0.00014	4
16799	-0.0001	-9e-05	-9e-05	-2e-05	7e-05	-0.00041	-0.00022	-0.00011	4
16800	0.00015	0.00015	1e-05	-0.00021	-0.00049	7e-05	0.00021	0.00015	4
16801	0.00015	0.00015	1e-05	-0.00021	-0.00049	7e-05	0.00021	0.00015	4
16802	0.00015	0.00015	1e-05	-0.00021	-0.00049	7e-05	0.00021	0.00015	4
16803	0.00015	0.00015	1e-05	-0.00021	-0.00049	7e-05	0.00021	0.00015	4
16804	0.00015	0.00015	1e-05	-0.00021	-0.00049	7e-05	0.00021	0.00015	4
16805	-6e-05	-0.00011	-0.00017	1e-05	4e-05	0.00034	8e-05	0	4
16806	-6e-05	-0.00011	-0.00017	1e-05	4e-05	0.00034	8e-05	0	4
16807	-6e-05	-0.00011	-0.00017	1e-05	4e-05	0.00034	8e-05	0	4
16808	-6e-05	-0.00011	-0.00017	1e-05	4e-05	0.00034	8e-05	0	4
16809	-6e-05	-0.00011	-0.00017	1e-05	4e-05	0.00034	8e-05	0	4
16810	-6e-05	-0.00011	-0.00017	1e-05	4e-05	0.00034	8e-05	0	4
16811	-6e-05	-0.00011	-0.00017	1e-05	4e-05	0.00034	8e-05	0	4
16812	-6e-05	-0.00011	-0.00017	1e-05	4e-05	0.00034	8e-05	0	4
16813	-6e-05	-0.00011	-0.00017	1e-05	4e-05	0.00034	8e-05	0	4
16814	1e-05	3e-05	0.0001	0.00028	0.00043	0.00063	8e-05	2e-05	4
16815	1e-05	3e-05	0.0001	0.00028	0.00043	0.00063	8e-05	2e-05	4
16816	1e-05	3e-05	0.0001	0.00028	0.00043	0.00063	8e-05	2e-05	4
16817	1e-05	3e-05	0.0001	0.00028	0.00043	0.00063	8e-05	2e-05	4
16818	1e-05	3e-05	0.0001	0.00028	0.00043	0.00063	8e-05	2e-05	4
16819	1e-05	3e-05	0.0001	0.00028	0.00043	0.00063	8e-05	2e-05	4
16820	1e-05	3e-05	0.0001	0.00028	0.00043	0.00063	8e-05	2e-05	4
16821	1e-05	3e-05	0.0001	0.00028	0.00043	0.00063	8e-05	2e-05	4
16822	1e-05	3e-05	0.0001	0.00028	0.00043	0.00063	8e-05	2e-05	4
16823	1e-05	3e-05	0.0001	0.00028	0.00043	0.00063	8e-05	2e-05	4
16824	1e-05	3e-05	0.0001	0.00028	0.00043	0.00063	8e-05	2e-05	4
16825	1e-05	3e-05	0.0001	0.00028	0.00043	0.00063	8e-05	2e-05	4
16826	1e-05	3e-05	0.0001	0.00028	0.00043	0.00063	8e-05	2e-05	4
16827	1e-05	3e-05	0.0001	0.00028	0.00043	0.00063	8e-05	2e-05	4
16828	-1e-05	-4e-05	-9e-05	-0.0001	-0.00112	-0.00039	-0.00017	-5e-05	4
16829	-8e-05	3e-05	5e-05	0.00055	0.00123	0.0001	0	-7e-05	4
16830	-3e-05	3e-05	0.0002	0.00066	0.00038	-0.00045	-0.00023	-0.0001	4
16831	-3e-05	3e-05	0.0002	0.00066	0.00038	-0.00045	-0.00023	-0.0001	4
16832	-3e-05	3e-05	0.0002	0.00066	0.00038	-0.00045	-0.00023	-0.0001	4
16833	-3e-05	3e-05	0.0002	0.00066	0.00038	-0.00045	-0.00023	-0.0001	4
16834	-3e-05	3e-05	0.0002	0.00066	0.00038	-0.00045	-0.00023	-0.0001	4
16835	-3e-05	3e-05	0.0002	0.00066	0.00038	-0.00045	-0.00023	-0.0001	4
16836	-3e-05	3e-05	0.0002	0.00066	0.00038	-0.00045	-0.00023	-0.0001	4
16839	-3e-05	3e-05	0.0002	0.00066	0.00038	-0.00045	-0.00023	-0.0001	4
16840	-3e-05	3e-05	0.0002	0.00066	0.00038	-0.00045	-0.00023	-0.0001	4
16841	-3e-05	3e-05	0.0002	0.00066	0.00038	-0.00045	-0.00023	-0.0001	4
16842	-3e-05	3e-05	0.0002	0.00066	0.00038	-0.00045	-0.00023	-0.0001	4
16843	-3e-05	3e-05	0.0002	0.00066	0.00038	-0.00045	-0.00023	-0.0001	4
16844	-3e-05	3e-05	0.0002	0.00066	0.00038	-0.00045	-0.00023	-0.0001	4
16845	-3e-05	3e-05	0.0002	0.00066	0.00038	-0.00045	-0.00023	-0.0001	4
16846	-3e-05	3e-05	0.0002	0.00066	0.00038	-0.00045	-0.00023	-0.0001	4
16847	-3e-05	3e-05	0.0002	0.00066	0.00038	-0.00045	-0.00023	-0.0001	4
16848	-3e-05	3e-05	0.0002	0.00066	0.00038	-0.00045	-0.00023	-0.0001	4
16849	-3e-05	3e-05	0.0002	0.00066	0.00038	-0.00045	-0.00023	-0.0001	4
16850	-3e-05	3e-05	0.0002	0.00066	0.00038	-0.00045	-0.00023	-0.0001	4
16851	7e-05	0.00013	0.00018	0.0001	0.00026	0.00023	0.00017	0.00011	4
16852	7e-05	0.00013	0.00018	0.0001	0.00026	0.00023	0.00017	0.00011	4
16853	-4e-05	3e-05	-0.00012	-0.00027	-0.00046	-0.00011	-0.00019	-9e-05	4
16854	-4e-05	3e-05	-0.00012	-0.00027	-0.00046	-0.00011	-0.00019	-9e-05	4
16855	-4e-05	3e-05	-0.00012	-0.00027	-0.00046	-0.00011	-0.00019	-9e-05	4
16856	-4e-05	3e-05	-0.00012	-0.00027	-0.00046	-0.00011	-0.00019	-9e-05	4
16857	-4e-05	3e-05	-0.00012	-0.00027	-0.00046	-0.00011	-0.00019	-9e-05	4
16858	-4e-05	3e-05	-0.00012	-0.00027	-0.00046	-0.00011	-0.00019	-9e-05	4
16859	-4e-05	3e-05	-0.00012	-0.00027	-0.00046	-0.00011	-0.00019	-9e-05	4
16860	-4e-05	3e-05	-0.00012	-0.00027	-0.00046	-0.00011	-0.00019	-9e-05	4
16861	-4e-05	3e-05	-0.00012	-0.00027	-0.00046	-0.00011	-0.00019	-9e-05	4
16862	-4e-05	3e-05	-0.00012	-0.00027	-0.00046	-0.00011	-0.00019	-9e-05	4
16863	-4e-05	3e-05	-0.00012	-0.00027	-0.00046	-0.00011	-0.00019	-9e-05	4
16864	-4e-05	3e-05	-0.00012	-0.00027	-0.00046	-0.00011	-0.00019	-9e-05	4
16865	-2e-05	-0.00013	-0.00022	-7e-05	2e-05	0.00051	0.00013	3e-05	4
16866	-2e-05	-0.00013	-0.00022	-7e-05	2e-05	0.00051	0.00013	3e-05	4
16867	-2e-05	-0.00013	-0.00022	-7e-05	2e-05	0.00051	0.00013	3e-05	4
16868	-2e-05	-0.00013	-0.00022	-7e-05	2e-05	0.00051	0.00013	3e-05	4
16869	-2e-05	-0.00013	-0.00022	-7e-05	2e-05	0.00051	0.00013	3e-05	4
16870	-2e-05	-0.00013	-0.00022	-7e-05	2e-05	0.00051	0.00013	3e-05	4
16871	-2e-05	-0.00013	-0.00022	-7e-05	2e-05	0.00051	0.00013	3e-05	4
16872	-2e-05	-0.00013	-0.00022	-7e-05	2e-05	0.00051	0.00013	3e-05	4
16873	-2e-05	-0.00013	-0.00022	-7e-05	2e-05	0.00051	0.00013	3e-05	4
16874	-2e-05	-0.00013	-0.00022	-7e-05	2e-05	0.00051	0.00013	3e-05	4
16875	-2e-05	-0.00013	-0.00022	-7e-05	2e-05	0.00051	0.00013	3e-05	4
16876	-2e-05	-0.00013	-0.00022	-7e-05	2e-05	0.00051	0.00013	3e-05	4
16877	-2e-05	-0.00013	-0.00022	-7e-05	2e-05	0.00051	0.00013	3e-05	4
16878	-2e-05	-0.00013	-0.00022	-7e-05	2e-05	0.00051	0.00013	3e-05	4
16879	-2e-05	-0.00013	-0.00022	-7e-05	2e-05	0.00051	0.00013	3e-05	4
16880	-2e-05	-0.00013	-0.00022	-7e-05	2e-05	0.00051	0.00013	3e-05	4
16881	0	-5e-05	-0.00022	-0.00035	-0.00032	0.0001	0.00013	5e-05	4
16882	0	-5e-05	-0.00022	-0.00035	-0.00032	0.0001	0.00013	5e-05	4
16883	0	-5e-05	-0.00022	-0.00035	-0.00032	0.0001	0.00013	5e-05	4
16884	0	-5e-05	-0.00022	-0.00035	-0.00032	0.0001	0.00013	5e-05	4
16885	0	-5e-05	-0.00022	-0.00035	-0.00032	0.0001	0.00013	5e-05	4
16886	0	-5e-05	-0.00022	-0.00035	-0.00032	0.0001	0.00013	5e-05	4
16889	-2e-05	4e-05	0.00026	0.00065	4e-05	-0.00034	-4e-05	-2e-05	4
16890	-4e-05	-9e-05	-0.00021	-3e-05	0.00045	0.00013	2e-05	-5e-05	4
16891	-4e-05	-9e-05	-0.00021	-3e-05	0.00045	0.00013	2e-05	-5e-05	4
16892	-4e-05	-9e-05	-0.00021	-3e-05	0.00045	0.00013	2e-05	-5e-05	4
16893	-4e-05	-9e-05	-0.00021	-3e-05	0.00045	0.00013	2e-05	-5e-05	4
16894	-4e-05	-9e-05	-0.00021	-3e-05	0.00045	0.00013	2e-05	-5e-05	4
16895	-4e-05	-9e-05	-0.00021	-3e-05	0.00045	0.00013	2e-05	-5e-05	4
16896	-4e-05	-9e-05	-0.00021	-3e-05	0.00045	0.00013	2e-05	-5e-05	4
16897	-4e-05	-9e-05	-0.00021	-3e-05	0.00045	0.00013	2e-05	-5e-05	4
16898	-4e-05	-9e-05	-0.00021	-3e-05	0.00045	0.00013	2e-05	-5e-05	4
16899	-4e-05	-9e-05	-0.00021	-3e-05	0.00045	0.00013	2e-05	-5e-05	4
16900	-4e-05	-9e-05	-0.00021	-3e-05	0.00045	0.00013	2e-05	-5e-05	4
16901	-4e-05	-9e-05	-0.00021	-3e-05	0.00045	0.00013	2e-05	-5e-05	4
16902	-4e-05	-9e-05	-0.00021	-3e-05	0.00045	0.00013	2e-05	-5e-05	4
16903	-4e-05	-9e-05	-0.00021	-3e-05	0.00045	0.00013	2e-05	-5e-05	4
16904	-4e-05	-9e-05	-0.00021	-3e-05	0.00045	0.00013	2e-05	-5e-05	4
16905	-4e-05	-9e-05	-0.00021	-3e-05	0.00045	0.00013	2e-05	-5e-05	4
16906	-4e-05	-9e-05	-0.00021	-3e-05	0.00045	0.00013	2e-05	-5e-05	4
16907	-4e-05	-9e-05	-0.00021	-3e-05	0.00045	0.00013	2e-05	-5e-05	4
16908	-4e-05	-9e-05	-0.00021	-3e-05	0.00045	0.00013	2e-05	-5e-05	4
16909	-4e-05	-9e-05	-0.00021	-3e-05	0.00045	0.00013	2e-05	-5e-05	4
16910	-4e-05	-9e-05	-0.00021	-3e-05	0.00045	0.00013	2e-05	-5e-05	4
16911	-6e-05	-9e-05	6e-05	0.00027	0.00046	0.00015	0.00014	-1e-05	4
16912	4e-05	4e-05	6e-05	9e-05	-0.00017	-0.00056	-0.00025	0	4
16913	0	-6e-05	5e-05	0.00022	0.00043	9e-05	0.00019	3e-05	4
16914	0	-6e-05	5e-05	0.00022	0.00043	9e-05	0.00019	3e-05	4
16915	0	-6e-05	5e-05	0.00022	0.00043	9e-05	0.00019	3e-05	4
16916	0	-6e-05	5e-05	0.00022	0.00043	9e-05	0.00019	3e-05	4
16917	0	-6e-05	5e-05	0.00022	0.00043	9e-05	0.00019	3e-05	4
16918	0	-6e-05	5e-05	0.00022	0.00043	9e-05	0.00019	3e-05	4
16919	0	-6e-05	5e-05	0.00022	0.00043	9e-05	0.00019	3e-05	4
16920	0	-6e-05	5e-05	0.00022	0.00043	9e-05	0.00019	3e-05	4
16921	0	-6e-05	5e-05	0.00022	0.00043	9e-05	0.00019	3e-05	4
16922	0	-6e-05	5e-05	0.00022	0.00043	9e-05	0.00019	3e-05	4
16923	0	-6e-05	5e-05	0.00022	0.00043	9e-05	0.00019	3e-05	4
16924	0	-6e-05	5e-05	0.00022	0.00043	9e-05	0.00019	3e-05	4
16925	8e-05	1e-05	-0.00011	-0.0003	0.00058	0.00096	0.0003	0.00015	4
16926	8e-05	1e-05	-0.00011	-0.0003	0.00058	0.00096	0.0003	0.00015	4
16927	8e-05	1e-05	-0.00011	-0.0003	0.00058	0.00096	0.0003	0.00015	4
16928	8e-05	1e-05	-0.00011	-0.0003	0.00058	0.00096	0.0003	0.00015	4
16929	8e-05	1e-05	-0.00011	-0.0003	0.00058	0.00096	0.0003	0.00015	4
16930	8e-05	1e-05	-0.00011	-0.0003	0.00058	0.00096	0.0003	0.00015	4
16931	8e-05	1e-05	-0.00011	-0.0003	0.00058	0.00096	0.0003	0.00015	4
16932	8e-05	1e-05	-0.00011	-0.0003	0.00058	0.00096	0.0003	0.00015	4
16933	8e-05	1e-05	-0.00011	-0.0003	0.00058	0.00096	0.0003	0.00015	4
16934	6e-05	0.00011	0.00012	0.0001	-0.00049	-0.0008	1e-05	4e-05	4
16935	1e-05	3e-05	6e-05	0.00023	-0.00036	0.00035	2e-05	4e-05	4
16936	1e-05	3e-05	6e-05	0.00023	-0.00036	0.00035	2e-05	4e-05	4
16938	1e-05	3e-05	6e-05	0.00023	-0.00036	0.00035	2e-05	4e-05	4
16939	1e-05	3e-05	6e-05	0.00023	-0.00036	0.00035	2e-05	4e-05	4
16940	1e-05	3e-05	6e-05	0.00023	-0.00036	0.00035	2e-05	4e-05	4
16941	1e-05	3e-05	6e-05	0.00023	-0.00036	0.00035	2e-05	4e-05	4
16942	1e-05	3e-05	6e-05	0.00023	-0.00036	0.00035	2e-05	4e-05	4
16943	1e-05	3e-05	6e-05	0.00023	-0.00036	0.00035	2e-05	4e-05	4
16944	1e-05	3e-05	6e-05	0.00023	-0.00036	0.00035	2e-05	4e-05	4
16945	1e-05	3e-05	6e-05	0.00023	-0.00036	0.00035	2e-05	4e-05	4
16946	1e-05	3e-05	6e-05	0.00023	-0.00036	0.00035	2e-05	4e-05	4
16947	1e-05	3e-05	6e-05	0.00023	-0.00036	0.00035	2e-05	4e-05	4
16948	1e-05	3e-05	6e-05	0.00023	-0.00036	0.00035	2e-05	4e-05	4
16949	5e-05	1e-05	0.00013	0	-0.00043	-0.0003	-4e-05	2e-05	4
16950	5e-05	1e-05	0.00013	0	-0.00043	-0.0003	-4e-05	2e-05	4
16951	-2e-05	2e-05	-0.0001	0.00017	0.00109	0.0003	3e-05	-4e-05	4
16952	-2e-05	2e-05	-0.0001	0.00017	0.00109	0.0003	3e-05	-4e-05	4
16953	-2e-05	2e-05	-0.0001	0.00017	0.00109	0.0003	3e-05	-4e-05	4
16954	-2e-05	2e-05	-0.0001	0.00017	0.00109	0.0003	3e-05	-4e-05	4
16955	-2e-05	2e-05	-0.0001	0.00017	0.00109	0.0003	3e-05	-4e-05	4
16956	-2e-05	2e-05	-0.0001	0.00017	0.00109	0.0003	3e-05	-4e-05	4
16957	-2e-05	2e-05	-0.0001	0.00017	0.00109	0.0003	3e-05	-4e-05	4
16958	-2e-05	2e-05	-0.0001	0.00017	0.00109	0.0003	3e-05	-4e-05	4
16959	-2e-05	2e-05	-0.0001	0.00017	0.00109	0.0003	3e-05	-4e-05	4
16960	-2e-05	2e-05	-0.0001	0.00017	0.00109	0.0003	3e-05	-4e-05	4
16961	-2e-05	2e-05	-0.0001	0.00017	0.00109	0.0003	3e-05	-4e-05	4
16962	-2e-05	2e-05	-0.0001	0.00017	0.00109	0.0003	3e-05	-4e-05	4
16963	-2e-05	2e-05	-0.0001	0.00017	0.00109	0.0003	3e-05	-4e-05	4
16964	-2e-05	2e-05	-0.0001	0.00017	0.00109	0.0003	3e-05	-4e-05	4
16965	-2e-05	2e-05	-0.0001	0.00017	0.00109	0.0003	3e-05	-4e-05	4
16966	-2e-05	2e-05	-0.0001	0.00017	0.00109	0.0003	3e-05	-4e-05	4
16967	-2e-05	2e-05	-0.0001	0.00017	0.00109	0.0003	3e-05	-4e-05	4
16968	-2e-05	2e-05	-0.0001	0.00017	0.00109	0.0003	3e-05	-4e-05	4
16969	-2e-05	2e-05	-0.0001	0.00017	0.00109	0.0003	3e-05	-4e-05	4
16970	-2e-05	2e-05	-0.0001	0.00017	0.00109	0.0003	3e-05	-4e-05	4
16971	-2e-05	2e-05	-0.0001	0.00017	0.00109	0.0003	3e-05	-4e-05	4
16972	-2e-05	2e-05	-0.0001	0.00017	0.00109	0.0003	3e-05	-4e-05	4
16973	-2e-05	2e-05	-0.0001	0.00017	0.00109	0.0003	3e-05	-4e-05	4
16974	-2e-05	2e-05	-0.0001	0.00017	0.00109	0.0003	3e-05	-4e-05	4
16975	-2e-05	2e-05	-0.0001	0.00017	0.00109	0.0003	3e-05	-4e-05	4
16976	-2e-05	2e-05	-0.0001	0.00017	0.00109	0.0003	3e-05	-4e-05	4
16977	-2e-05	2e-05	-0.0001	0.00017	0.00109	0.0003	3e-05	-4e-05	4
16978	-2e-05	2e-05	-0.0001	0.00017	0.00109	0.0003	3e-05	-4e-05	4
16979	-4e-05	-1e-05	6e-05	0.0003	-0.00079	-0.00025	-4e-05	-4e-05	4
16980	-4e-05	-1e-05	8e-05	0.0001	2e-05	-0.00041	-0.00028	-9e-05	4
16981	-4e-05	-1e-05	8e-05	0.0001	2e-05	-0.00041	-0.00028	-9e-05	4
16982	-4e-05	-1e-05	8e-05	0.0001	2e-05	-0.00041	-0.00028	-9e-05	4
16983	-4e-05	-1e-05	8e-05	0.0001	2e-05	-0.00041	-0.00028	-9e-05	4
16984	-4e-05	-1e-05	8e-05	0.0001	2e-05	-0.00041	-0.00028	-9e-05	4
16985	2e-05	-3e-05	-4e-05	-0.00017	0.00063	0.00022	0	1e-05	4
16986	2e-05	-3e-05	-4e-05	-0.00017	0.00063	0.00022	0	1e-05	4
16988	2e-05	-3e-05	-4e-05	-0.00017	0.00063	0.00022	0	1e-05	4
16989	2e-05	-3e-05	-4e-05	-0.00017	0.00063	0.00022	0	1e-05	4
16990	2e-05	-3e-05	-4e-05	-0.00017	0.00063	0.00022	0	1e-05	4
16991	2e-05	-3e-05	-4e-05	-0.00017	0.00063	0.00022	0	1e-05	4
16992	2e-05	-3e-05	-4e-05	-0.00017	0.00063	0.00022	0	1e-05	4
16993	2e-05	-3e-05	-4e-05	-0.00017	0.00063	0.00022	0	1e-05	4
16994	-9e-05	-8e-05	2e-05	0.00059	0.00052	-0.00044	-9e-05	-6e-05	4
16995	-9e-05	-8e-05	2e-05	0.00059	0.00052	-0.00044	-9e-05	-6e-05	4
16996	-9e-05	-8e-05	2e-05	0.00059	0.00052	-0.00044	-9e-05	-6e-05	4
16997	-9e-05	-8e-05	2e-05	0.00059	0.00052	-0.00044	-9e-05	-6e-05	4
16998	-9e-05	-8e-05	2e-05	0.00059	0.00052	-0.00044	-9e-05	-6e-05	4
16999	-9e-05	-8e-05	2e-05	0.00059	0.00052	-0.00044	-9e-05	-6e-05	4
17000	-9e-05	-8e-05	2e-05	0.00059	0.00052	-0.00044	-9e-05	-6e-05	4
17001	-9e-05	-8e-05	2e-05	0.00059	0.00052	-0.00044	-9e-05	-6e-05	4
17002	-9e-05	-8e-05	2e-05	0.00059	0.00052	-0.00044	-9e-05	-6e-05	4
17003	-9e-05	-8e-05	2e-05	0.00059	0.00052	-0.00044	-9e-05	-6e-05	4
17004	-9e-05	-8e-05	2e-05	0.00059	0.00052	-0.00044	-9e-05	-6e-05	4
17005	-9e-05	-8e-05	2e-05	0.00059	0.00052	-0.00044	-9e-05	-6e-05	4
17006	-9e-05	-8e-05	2e-05	0.00059	0.00052	-0.00044	-9e-05	-6e-05	4
17007	-9e-05	-8e-05	2e-05	0.00059	0.00052	-0.00044	-9e-05	-6e-05	4
17008	-9e-05	-8e-05	2e-05	0.00059	0.00052	-0.00044	-9e-05	-6e-05	4
17009	-9e-05	-8e-05	2e-05	0.00059	0.00052	-0.00044	-9e-05	-6e-05	4
17010	-9e-05	-8e-05	2e-05	0.00059	0.00052	-0.00044	-9e-05	-6e-05	4
17011	-9e-05	-8e-05	2e-05	0.00059	0.00052	-0.00044	-9e-05	-6e-05	4
17013	-9e-05	-8e-05	2e-05	0.00059	0.00052	-0.00044	-9e-05	-6e-05	4
17014	-9e-05	-8e-05	2e-05	0.00059	0.00052	-0.00044	-9e-05	-6e-05	4
17015	-9e-05	-8e-05	2e-05	0.00059	0.00052	-0.00044	-9e-05	-6e-05	4
17016	-0.00012	-0.00015	-0.00017	-0.00091	-4e-05	-2e-05	-9e-05	-9e-05	4
17017	-0.00012	-0.00015	-0.00017	-0.00091	-4e-05	-2e-05	-9e-05	-9e-05	4
17018	0	-1e-05	8e-05	9e-05	-0.0005	-0.00055	-0.0001	-4e-05	4
17019	0	-1e-05	8e-05	9e-05	-0.0005	-0.00055	-0.0001	-4e-05	4
17020	0	-1e-05	8e-05	9e-05	-0.0005	-0.00055	-0.0001	-4e-05	4
17021	0	-1e-05	8e-05	9e-05	-0.0005	-0.00055	-0.0001	-4e-05	4
17022	0	-1e-05	8e-05	9e-05	-0.0005	-0.00055	-0.0001	-4e-05	4
17023	0	-1e-05	8e-05	9e-05	-0.0005	-0.00055	-0.0001	-4e-05	4
17024	0	-1e-05	8e-05	9e-05	-0.0005	-0.00055	-0.0001	-4e-05	4
17025	0	-1e-05	8e-05	9e-05	-0.0005	-0.00055	-0.0001	-4e-05	4
17026	0	-1e-05	8e-05	9e-05	-0.0005	-0.00055	-0.0001	-4e-05	4
17027	0	-1e-05	8e-05	9e-05	-0.0005	-0.00055	-0.0001	-4e-05	4
17028	0	-1e-05	8e-05	9e-05	-0.0005	-0.00055	-0.0001	-4e-05	4
17029	0	-1e-05	8e-05	9e-05	-0.0005	-0.00055	-0.0001	-4e-05	4
17030	0	-1e-05	8e-05	9e-05	-0.0005	-0.00055	-0.0001	-4e-05	4
17031	0	-2e-05	-0.00017	-0.00013	6e-05	0.00021	0	1e-05	4
17032	-6e-05	-3e-05	-2e-05	0.00022	-0.0003	-0.00016	-5e-05	-6e-05	4
17033	-6e-05	-3e-05	-2e-05	0.00022	-0.0003	-0.00016	-5e-05	-6e-05	4
17034	-6e-05	-3e-05	-2e-05	0.00022	-0.0003	-0.00016	-5e-05	-6e-05	4
17035	-6e-05	-3e-05	-2e-05	0.00022	-0.0003	-0.00016	-5e-05	-6e-05	4
17036	-6e-05	-3e-05	-2e-05	0.00022	-0.0003	-0.00016	-5e-05	-6e-05	4
17038	-6e-05	-3e-05	-2e-05	0.00022	-0.0003	-0.00016	-5e-05	-6e-05	4
17039	-6e-05	-3e-05	-2e-05	0.00022	-0.0003	-0.00016	-5e-05	-6e-05	4
17040	-6e-05	-3e-05	-2e-05	0.00022	-0.0003	-0.00016	-5e-05	-6e-05	4
17041	-6e-05	-3e-05	-2e-05	0.00022	-0.0003	-0.00016	-5e-05	-6e-05	4
17042	-6e-05	-3e-05	-2e-05	0.00022	-0.0003	-0.00016	-5e-05	-6e-05	4
17043	-6e-05	-3e-05	-2e-05	0.00022	-0.0003	-0.00016	-5e-05	-6e-05	4
17044	-6e-05	-3e-05	-2e-05	0.00022	-0.0003	-0.00016	-5e-05	-6e-05	4
17045	9e-05	-1e-05	3e-05	-4e-05	-0.00068	-0.00047	1e-05	8e-05	4
17046	9e-05	-1e-05	3e-05	-4e-05	-0.00068	-0.00047	1e-05	8e-05	4
17047	9e-05	-1e-05	3e-05	-4e-05	-0.00068	-0.00047	1e-05	8e-05	4
17048	9e-05	-1e-05	3e-05	-4e-05	-0.00068	-0.00047	1e-05	8e-05	4
17049	9e-05	-1e-05	3e-05	-4e-05	-0.00068	-0.00047	1e-05	8e-05	4
17050	9e-05	-1e-05	3e-05	-4e-05	-0.00068	-0.00047	1e-05	8e-05	4
17051	9e-05	-1e-05	3e-05	-4e-05	-0.00068	-0.00047	1e-05	8e-05	4
17052	9e-05	-1e-05	3e-05	-4e-05	-0.00068	-0.00047	1e-05	8e-05	4
17053	5e-05	8e-05	6e-05	-5e-05	-0.00021	0.00014	7e-05	3e-05	4
17054	0	-1e-05	-0.0001	-0.00013	-0.00044	-0.00023	-0.00021	-9e-05	4
17055	-8e-05	-7e-05	-0.0001	-0.00011	0.00076	-8e-05	-0.00014	-7e-05	4
17056	-8e-05	-7e-05	-0.0001	-0.00011	0.00076	-8e-05	-0.00014	-7e-05	4
17057	-8e-05	-7e-05	-0.0001	-0.00011	0.00076	-8e-05	-0.00014	-7e-05	4
17058	-8e-05	-7e-05	-0.0001	-0.00011	0.00076	-8e-05	-0.00014	-7e-05	4
17059	-8e-05	-7e-05	-0.0001	-0.00011	0.00076	-8e-05	-0.00014	-7e-05	4
17060	-8e-05	-7e-05	-0.0001	-0.00011	0.00076	-8e-05	-0.00014	-7e-05	4
17061	-8e-05	-7e-05	-0.0001	-0.00011	0.00076	-8e-05	-0.00014	-7e-05	4
17062	-8e-05	-7e-05	-0.0001	-0.00011	0.00076	-8e-05	-0.00014	-7e-05	4
17063	-8e-05	-7e-05	-0.0001	-0.00011	0.00076	-8e-05	-0.00014	-7e-05	4
17064	-8e-05	-7e-05	-0.0001	-0.00011	0.00076	-8e-05	-0.00014	-7e-05	4
17065	-8e-05	-7e-05	-0.0001	-0.00011	0.00076	-8e-05	-0.00014	-7e-05	4
17066	-8e-05	-7e-05	-0.0001	-0.00011	0.00076	-8e-05	-0.00014	-7e-05	4
17067	-8e-05	-7e-05	-0.0001	-0.00011	0.00076	-8e-05	-0.00014	-7e-05	4
17068	-8e-05	-7e-05	-0.0001	-0.00011	0.00076	-8e-05	-0.00014	-7e-05	4
17069	-8e-05	-7e-05	-0.0001	-0.00011	0.00076	-8e-05	-0.00014	-7e-05	4
17070	-8e-05	-7e-05	-0.0001	-0.00011	0.00076	-8e-05	-0.00014	-7e-05	4
17071	-8e-05	-7e-05	-0.0001	-0.00011	0.00076	-8e-05	-0.00014	-7e-05	4
17072	-8e-05	-7e-05	-0.0001	-0.00011	0.00076	-8e-05	-0.00014	-7e-05	4
17073	-8e-05	-7e-05	-0.0001	-0.00011	0.00076	-8e-05	-0.00014	-7e-05	4
17074	-8e-05	-7e-05	-0.0001	-0.00011	0.00076	-8e-05	-0.00014	-7e-05	4
17075	-8e-05	-7e-05	-0.0001	-0.00011	0.00076	-8e-05	-0.00014	-7e-05	4
17076	-5e-05	-2e-05	2e-05	0.00028	9e-05	0	-0.00012	-7e-05	4
17077	-5e-05	-2e-05	2e-05	0.00028	9e-05	0	-0.00012	-7e-05	4
17078	-7e-05	-6e-05	-0.00015	-0.00046	-0.00015	-1e-05	-0.00011	-9e-05	4
17079	-7e-05	-6e-05	-0.00015	-0.00046	-0.00015	-1e-05	-0.00011	-9e-05	4
17080	-7e-05	-6e-05	-0.00015	-0.00046	-0.00015	-1e-05	-0.00011	-9e-05	4
17081	-7e-05	-6e-05	-0.00015	-0.00046	-0.00015	-1e-05	-0.00011	-9e-05	4
17082	-7e-05	-6e-05	-0.00015	-0.00046	-0.00015	-1e-05	-0.00011	-9e-05	4
17083	-7e-05	-6e-05	-0.00015	-0.00046	-0.00015	-1e-05	-0.00011	-9e-05	4
17084	-7e-05	-6e-05	-0.00015	-0.00046	-0.00015	-1e-05	-0.00011	-9e-05	4
17085	-7e-05	-6e-05	-0.00015	-0.00046	-0.00015	-1e-05	-0.00011	-9e-05	4
17086	-7e-05	-6e-05	-0.00015	-0.00046	-0.00015	-1e-05	-0.00011	-9e-05	4
17088	-7e-05	-6e-05	-0.00015	-0.00046	-0.00015	-1e-05	-0.00011	-9e-05	4
17089	-7e-05	-6e-05	-0.00015	-0.00046	-0.00015	-1e-05	-0.00011	-9e-05	4
17090	-7e-05	-6e-05	-0.00015	-0.00046	-0.00015	-1e-05	-0.00011	-9e-05	4
17091	-7e-05	-6e-05	-0.00015	-0.00046	-0.00015	-1e-05	-0.00011	-9e-05	4
17092	2e-05	8e-05	-2e-05	-8e-05	-0.0003	0.00034	4e-05	0	4
17093	3e-05	-6e-05	-2e-05	-0.00039	-0.00128	0.00012	0	4e-05	4
17094	3e-05	-6e-05	-2e-05	-0.00039	-0.00128	0.00012	0	4e-05	4
17095	3e-05	-6e-05	-2e-05	-0.00039	-0.00128	0.00012	0	4e-05	4
17096	3e-05	-6e-05	-2e-05	-0.00039	-0.00128	0.00012	0	4e-05	4
17097	3e-05	-6e-05	-2e-05	-0.00039	-0.00128	0.00012	0	4e-05	4
17098	3e-05	-6e-05	-2e-05	-0.00039	-0.00128	0.00012	0	4e-05	4
17099	3e-05	-6e-05	-2e-05	-0.00039	-0.00128	0.00012	0	4e-05	4
17100	3e-05	-6e-05	-2e-05	-0.00039	-0.00128	0.00012	0	4e-05	4
17101	3e-05	-6e-05	-2e-05	-0.00039	-0.00128	0.00012	0	4e-05	4
17102	3e-05	-6e-05	-2e-05	-0.00039	-0.00128	0.00012	0	4e-05	4
17103	3e-05	-6e-05	-2e-05	-0.00039	-0.00128	0.00012	0	4e-05	4
17104	3e-05	-6e-05	-2e-05	-0.00039	-0.00128	0.00012	0	4e-05	4
17105	3e-05	-6e-05	-2e-05	-0.00039	-0.00128	0.00012	0	4e-05	4
17106	3e-05	-6e-05	-2e-05	-0.00039	-0.00128	0.00012	0	4e-05	4
17107	3e-05	-6e-05	-2e-05	-0.00039	-0.00128	0.00012	0	4e-05	4
17108	3e-05	-6e-05	-2e-05	-0.00039	-0.00128	0.00012	0	4e-05	4
17109	3e-05	-6e-05	-2e-05	-0.00039	-0.00128	0.00012	0	4e-05	4
17110	3e-05	-6e-05	-2e-05	-0.00039	-0.00128	0.00012	0	4e-05	4
17111	3e-05	-6e-05	-2e-05	-0.00039	-0.00128	0.00012	0	4e-05	4
17112	3e-05	-6e-05	-2e-05	-0.00039	-0.00128	0.00012	0	4e-05	4
17113	0	4e-05	1e-05	0.00016	0.00021	-0.00068	-0.00023	-9e-05	4
17114	6e-05	9e-05	8e-05	0.00014	0.00029	0.00048	0.00035	0.00011	4
17115	2e-05	-1e-05	-0.00014	-0.00011	0.00023	0.00055	0.00029	0.00013	4
17116	2e-05	-1e-05	-0.00014	-0.00011	0.00023	0.00055	0.00029	0.00013	4
17117	2e-05	-1e-05	-0.00014	-0.00011	0.00023	0.00055	0.00029	0.00013	4
17118	2e-05	-1e-05	-0.00014	-0.00011	0.00023	0.00055	0.00029	0.00013	4
17119	2e-05	-1e-05	-0.00014	-0.00011	0.00023	0.00055	0.00029	0.00013	4
17120	2e-05	-1e-05	-0.00014	-0.00011	0.00023	0.00055	0.00029	0.00013	4
17121	2e-05	-1e-05	-0.00014	-0.00011	0.00023	0.00055	0.00029	0.00013	4
17122	2e-05	-1e-05	-0.00014	-0.00011	0.00023	0.00055	0.00029	0.00013	4
17123	2e-05	-1e-05	-0.00014	-0.00011	0.00023	0.00055	0.00029	0.00013	4
17124	2e-05	-1e-05	-0.00014	-0.00011	0.00023	0.00055	0.00029	0.00013	4
17125	2e-05	-1e-05	-0.00014	-0.00011	0.00023	0.00055	0.00029	0.00013	4
17126	2e-05	-1e-05	-0.00014	-0.00011	0.00023	0.00055	0.00029	0.00013	4
17127	2e-05	-1e-05	-0.00014	-0.00011	0.00023	0.00055	0.00029	0.00013	4
17128	-7e-05	-0.0001	-0.00016	1e-05	3e-05	-0.00031	-0.00023	-0.0001	4
17129	-5e-05	-4e-05	9e-05	0.00017	0.00022	-0.00023	-6e-05	-5e-05	4
17130	2e-05	6e-05	0.00024	0.00039	0.0006	-2e-05	0	0	4
17131	2e-05	6e-05	0.00024	0.00039	0.0006	-2e-05	0	0	4
17132	2e-05	6e-05	0.00024	0.00039	0.0006	-2e-05	0	0	4
17133	2e-05	6e-05	0.00024	0.00039	0.0006	-2e-05	0	0	4
17134	2e-05	6e-05	0.00024	0.00039	0.0006	-2e-05	0	0	4
17135	2e-05	6e-05	0.00024	0.00039	0.0006	-2e-05	0	0	4
17136	2e-05	6e-05	0.00024	0.00039	0.0006	-2e-05	0	0	4
17138	2e-05	6e-05	0.00024	0.00039	0.0006	-2e-05	0	0	4
17139	2e-05	6e-05	0.00024	0.00039	0.0006	-2e-05	0	0	4
17140	2e-05	6e-05	0.00024	0.00039	0.0006	-2e-05	0	0	4
17141	2e-05	6e-05	0.00024	0.00039	0.0006	-2e-05	0	0	4
17142	2e-05	6e-05	0.00024	0.00039	0.0006	-2e-05	0	0	4
17143	2e-05	6e-05	0.00024	0.00039	0.0006	-2e-05	0	0	4
17144	2e-05	6e-05	0.00024	0.00039	0.0006	-2e-05	0	0	4
17145	2e-05	6e-05	0.00024	0.00039	0.0006	-2e-05	0	0	4
17146	2e-05	6e-05	0.00024	0.00039	0.0006	-2e-05	0	0	4
17147	2e-05	6e-05	0.00024	0.00039	0.0006	-2e-05	0	0	4
17148	2e-05	6e-05	0.00024	0.00039	0.0006	-2e-05	0	0	4
17149	2e-05	6e-05	0.00024	0.00039	0.0006	-2e-05	0	0	4
17150	2e-05	6e-05	0.00024	0.00039	0.0006	-2e-05	0	0	4
17151	2e-05	6e-05	0.00024	0.00039	0.0006	-2e-05	0	0	4
17152	2e-05	6e-05	0.00024	0.00039	0.0006	-2e-05	0	0	4
17153	2e-05	6e-05	0.00024	0.00039	0.0006	-2e-05	0	0	4
17154	2e-05	6e-05	0.00024	0.00039	0.0006	-2e-05	0	0	4
17155	2e-05	6e-05	0.00024	0.00039	0.0006	-2e-05	0	0	4
17156	2e-05	6e-05	0.00024	0.00039	0.0006	-2e-05	0	0	4
17157	2e-05	6e-05	0.00024	0.00039	0.0006	-2e-05	0	0	4
17158	-9e-05	-9e-05	3e-05	0.00041	0.00067	0.00094	-5e-05	-3e-05	4
17159	0.00011	7e-05	-4e-05	-0.00027	-0.00128	-0.00087	0	7e-05	4
17160	-6e-05	3e-05	0.00012	2e-05	0.00047	-6e-05	-0.00018	-0.00011	4
17161	-6e-05	3e-05	0.00012	2e-05	0.00047	-6e-05	-0.00018	-0.00011	4
17162	-6e-05	3e-05	0.00012	2e-05	0.00047	-6e-05	-0.00018	-0.00011	4
17163	-6e-05	3e-05	0.00012	2e-05	0.00047	-6e-05	-0.00018	-0.00011	4
17164	-6e-05	3e-05	0.00012	2e-05	0.00047	-6e-05	-0.00018	-0.00011	4
17165	-6e-05	3e-05	0.00012	2e-05	0.00047	-6e-05	-0.00018	-0.00011	4
17166	-6e-05	3e-05	0.00012	2e-05	0.00047	-6e-05	-0.00018	-0.00011	4
17167	-6e-05	3e-05	0.00012	2e-05	0.00047	-6e-05	-0.00018	-0.00011	4
17168	-6e-05	3e-05	0.00012	2e-05	0.00047	-6e-05	-0.00018	-0.00011	4
17169	-6e-05	3e-05	0.00012	2e-05	0.00047	-6e-05	-0.00018	-0.00011	4
17170	-6e-05	3e-05	0.00012	2e-05	0.00047	-6e-05	-0.00018	-0.00011	4
17171	-6e-05	3e-05	0.00012	2e-05	0.00047	-6e-05	-0.00018	-0.00011	4
17172	-6e-05	3e-05	0.00012	2e-05	0.00047	-6e-05	-0.00018	-0.00011	4
17173	-0.0001	-0.0001	-0.00011	3e-05	0.00058	-0.00058	-0.00017	-9e-05	4
17174	-1e-05	-5e-05	-0.00011	-0.00018	0.00054	0.0007	0.00017	2e-05	4
17175	0.0001	0.00015	0.00024	-4e-05	-0.00041	0.0002	0.0001	6e-05	4
17176	0.0001	0.00015	0.00024	-4e-05	-0.00041	0.0002	0.0001	6e-05	4
17177	0.0001	0.00015	0.00024	-4e-05	-0.00041	0.0002	0.0001	6e-05	4
17178	0.0001	0.00015	0.00024	-4e-05	-0.00041	0.0002	0.0001	6e-05	4
17179	0.0001	0.00015	0.00024	-4e-05	-0.00041	0.0002	0.0001	6e-05	4
17180	0.0001	0.00015	0.00024	-4e-05	-0.00041	0.0002	0.0001	6e-05	4
17181	0.0001	0.00015	0.00024	-4e-05	-0.00041	0.0002	0.0001	6e-05	4
17182	0.0001	0.00015	0.00024	-4e-05	-0.00041	0.0002	0.0001	6e-05	4
17183	0.0001	0.00015	0.00024	-4e-05	-0.00041	0.0002	0.0001	6e-05	4
17184	0.0001	0.00015	0.00024	-4e-05	-0.00041	0.0002	0.0001	6e-05	4
17185	0.0001	0.00015	0.00024	-4e-05	-0.00041	0.0002	0.0001	6e-05	4
17186	0.0001	0.00015	0.00024	-4e-05	-0.00041	0.0002	0.0001	6e-05	4
17189	2e-05	-1e-05	-9e-05	-0.00029	-0.00058	-0.0001	-4e-05	1e-05	4
17190	2e-05	-1e-05	-9e-05	-0.00029	-0.00058	-0.0001	-4e-05	1e-05	4
17191	2e-05	-1e-05	-9e-05	-0.00029	-0.00058	-0.0001	-4e-05	1e-05	4
17192	2e-05	-1e-05	-9e-05	-0.00029	-0.00058	-0.0001	-4e-05	1e-05	4
17193	2e-05	-1e-05	-9e-05	-0.00029	-0.00058	-0.0001	-4e-05	1e-05	4
17194	2e-05	-1e-05	-9e-05	-0.00029	-0.00058	-0.0001	-4e-05	1e-05	4
17195	0.00012	0.00012	4e-05	-3e-05	0.00061	0.00066	0.00036	0.00014	4
17196	0.00012	0.00012	4e-05	-3e-05	0.00061	0.00066	0.00036	0.00014	4
17197	0.00012	0.00012	4e-05	-3e-05	0.00061	0.00066	0.00036	0.00014	4
17198	0.00012	0.00012	4e-05	-3e-05	0.00061	0.00066	0.00036	0.00014	4
17199	0.00012	0.00012	4e-05	-3e-05	0.00061	0.00066	0.00036	0.00014	4
17200	0.00012	0.00012	4e-05	-3e-05	0.00061	0.00066	0.00036	0.00014	4
17201	0.00012	0.00012	4e-05	-3e-05	0.00061	0.00066	0.00036	0.00014	4
17202	0.00012	0.00012	4e-05	-3e-05	0.00061	0.00066	0.00036	0.00014	4
17203	0.00012	0.00012	4e-05	-3e-05	0.00061	0.00066	0.00036	0.00014	4
17204	0.00012	0.00012	4e-05	-3e-05	0.00061	0.00066	0.00036	0.00014	4
17205	0.00012	0.00012	4e-05	-3e-05	0.00061	0.00066	0.00036	0.00014	4
17206	0.00012	0.00012	4e-05	-3e-05	0.00061	0.00066	0.00036	0.00014	4
17207	0.00012	0.00012	4e-05	-3e-05	0.00061	0.00066	0.00036	0.00014	4
17208	0.00012	0.00012	4e-05	-3e-05	0.00061	0.00066	0.00036	0.00014	4
17209	0.00012	0.00012	4e-05	-3e-05	0.00061	0.00066	0.00036	0.00014	4
17210	0.00012	0.00012	4e-05	-3e-05	0.00061	0.00066	0.00036	0.00014	4
17211	-2e-05	6e-05	0.00011	0.00047	-0.00022	0.00038	4e-05	2e-05	4
17212	-2e-05	6e-05	0.00011	0.00047	-0.00022	0.00038	4e-05	2e-05	4
17213	-0.00012	-0.00013	-0.00016	0.00021	0.00084	0.00012	-1e-05	-5e-05	4
17214	-0.00012	-0.00013	-0.00016	0.00021	0.00084	0.00012	-1e-05	-5e-05	4
17215	-0.00012	-0.00013	-0.00016	0.00021	0.00084	0.00012	-1e-05	-5e-05	4
17216	-0.00012	-0.00013	-0.00016	0.00021	0.00084	0.00012	-1e-05	-5e-05	4
17217	-0.00012	-0.00013	-0.00016	0.00021	0.00084	0.00012	-1e-05	-5e-05	4
17218	-0.00012	-0.00013	-0.00016	0.00021	0.00084	0.00012	-1e-05	-5e-05	4
17219	-0.00012	-0.00013	-0.00016	0.00021	0.00084	0.00012	-1e-05	-5e-05	4
17220	-0.00012	-0.00013	-0.00016	0.00021	0.00084	0.00012	-1e-05	-5e-05	4
17221	-0.00012	-0.00013	-0.00016	0.00021	0.00084	0.00012	-1e-05	-5e-05	4
17222	-0.00012	-0.00013	-0.00016	0.00021	0.00084	0.00012	-1e-05	-5e-05	4
17223	-0.00012	-0.00013	-0.00016	0.00021	0.00084	0.00012	-1e-05	-5e-05	4
17224	-0.00012	-0.00013	-0.00016	0.00021	0.00084	0.00012	-1e-05	-5e-05	4
17225	-0.00012	-0.00013	-0.00016	0.00021	0.00084	0.00012	-1e-05	-5e-05	4
17226	-0.00012	-0.00013	-0.00016	0.00021	0.00084	0.00012	-1e-05	-5e-05	4
17227	-0.00012	-0.00013	-0.00016	0.00021	0.00084	0.00012	-1e-05	-5e-05	4
17228	-0.00012	-0.00013	-0.00016	0.00021	0.00084	0.00012	-1e-05	-5e-05	4
17229	-0.00012	-0.00013	-0.00016	0.00021	0.00084	0.00012	-1e-05	-5e-05	4
17230	-0.00012	-0.00013	-0.00016	0.00021	0.00084	0.00012	-1e-05	-5e-05	4
17231	-0.00012	-0.00013	-0.00016	0.00021	0.00084	0.00012	-1e-05	-5e-05	4
17232	-0.00012	-0.00013	-0.00016	0.00021	0.00084	0.00012	-1e-05	-5e-05	4
17233	6e-05	4e-05	-7e-05	-0.00065	-0.00088	-0.00035	-5e-05	2e-05	4
17234	2e-05	2e-05	1e-05	-0.00011	3e-05	-0.00054	-2e-05	1e-05	4
17235	-1e-05	1e-05	6e-05	4e-05	-0.00109	5e-05	-2e-05	-5e-05	4
17236	-1e-05	1e-05	6e-05	4e-05	-0.00109	5e-05	-2e-05	-5e-05	4
17238	-1e-05	1e-05	6e-05	4e-05	-0.00109	5e-05	-2e-05	-5e-05	4
17239	-1e-05	1e-05	6e-05	4e-05	-0.00109	5e-05	-2e-05	-5e-05	4
17240	-1e-05	1e-05	6e-05	4e-05	-0.00109	5e-05	-2e-05	-5e-05	4
17241	-1e-05	1e-05	6e-05	4e-05	-0.00109	5e-05	-2e-05	-5e-05	4
17242	-1e-05	1e-05	6e-05	4e-05	-0.00109	5e-05	-2e-05	-5e-05	4
17243	-1e-05	1e-05	6e-05	4e-05	-0.00109	5e-05	-2e-05	-5e-05	4
17244	-1e-05	1e-05	6e-05	4e-05	-0.00109	5e-05	-2e-05	-5e-05	4
17245	-1e-05	1e-05	6e-05	4e-05	-0.00109	5e-05	-2e-05	-5e-05	4
17246	-1e-05	1e-05	6e-05	4e-05	-0.00109	5e-05	-2e-05	-5e-05	4
17247	-1e-05	1e-05	6e-05	4e-05	-0.00109	5e-05	-2e-05	-5e-05	4
17248	-1e-05	1e-05	6e-05	4e-05	-0.00109	5e-05	-2e-05	-5e-05	4
17249	-1e-05	1e-05	6e-05	4e-05	-0.00109	5e-05	-2e-05	-5e-05	4
17250	-1e-05	1e-05	6e-05	4e-05	-0.00109	5e-05	-2e-05	-5e-05	4
17251	-1e-05	1e-05	6e-05	4e-05	-0.00109	5e-05	-2e-05	-5e-05	4
17252	-1e-05	1e-05	6e-05	4e-05	-0.00109	5e-05	-2e-05	-5e-05	4
17253	-1e-05	1e-05	6e-05	4e-05	-0.00109	5e-05	-2e-05	-5e-05	4
17254	-1e-05	1e-05	6e-05	4e-05	-0.00109	5e-05	-2e-05	-5e-05	4
17255	-1e-05	1e-05	6e-05	4e-05	-0.00109	5e-05	-2e-05	-5e-05	4
17256	-1e-05	1e-05	6e-05	4e-05	-0.00109	5e-05	-2e-05	-5e-05	4
17257	-1e-05	1e-05	6e-05	4e-05	-0.00109	5e-05	-2e-05	-5e-05	4
17258	-1e-05	1e-05	6e-05	4e-05	-0.00109	5e-05	-2e-05	-5e-05	4
17259	-1e-05	1e-05	6e-05	4e-05	-0.00109	5e-05	-2e-05	-5e-05	4
17260	-1e-05	1e-05	6e-05	4e-05	-0.00109	5e-05	-2e-05	-5e-05	4
17261	-1e-05	1e-05	6e-05	4e-05	-0.00109	5e-05	-2e-05	-5e-05	4
17262	-1e-05	1e-05	6e-05	4e-05	-0.00109	5e-05	-2e-05	-5e-05	4
17263	-0.00013	-0.00018	-0.00011	1e-05	0.00126	-0.00026	-0.00013	-0.0001	4
17264	0.00021	0.00019	0.00024	0.00034	-0.00074	-0.0003	0	9e-05	4
17265	0	-2e-05	-1e-05	0.00015	-0.00039	-0.00069	-2e-05	1e-05	4
17266	0	-2e-05	-1e-05	0.00015	-0.00039	-0.00069	-2e-05	1e-05	4
17267	0	-2e-05	-1e-05	0.00015	-0.00039	-0.00069	-2e-05	1e-05	4
17268	0	-2e-05	-1e-05	0.00015	-0.00039	-0.00069	-2e-05	1e-05	4
17269	0	-2e-05	-1e-05	0.00015	-0.00039	-0.00069	-2e-05	1e-05	4
17270	0	-2e-05	-1e-05	0.00015	-0.00039	-0.00069	-2e-05	1e-05	4
17271	-8e-05	-0.00011	-0.0001	-0.00022	0.00035	-0.00043	-8e-05	-5e-05	4
17272	-8e-05	-0.00011	-0.0001	-0.00022	0.00035	-0.00043	-8e-05	-5e-05	4
17273	6e-05	9e-05	6e-05	-0.0001	-0.0002	0.00011	-1e-05	1e-05	4
17274	6e-05	9e-05	6e-05	-0.0001	-0.0002	0.00011	-1e-05	1e-05	4
17275	6e-05	9e-05	6e-05	-0.0001	-0.0002	0.00011	-1e-05	1e-05	4
17276	6e-05	9e-05	6e-05	-0.0001	-0.0002	0.00011	-1e-05	1e-05	4
17277	6e-05	9e-05	6e-05	-0.0001	-0.0002	0.00011	-1e-05	1e-05	4
17278	6e-05	9e-05	6e-05	-0.0001	-0.0002	0.00011	-1e-05	1e-05	4
17279	6e-05	9e-05	6e-05	-0.0001	-0.0002	0.00011	-1e-05	1e-05	4
17280	6e-05	9e-05	6e-05	-0.0001	-0.0002	0.00011	-1e-05	1e-05	4
17281	6e-05	9e-05	6e-05	-0.0001	-0.0002	0.00011	-1e-05	1e-05	4
17282	6e-05	9e-05	6e-05	-0.0001	-0.0002	0.00011	-1e-05	1e-05	4
17283	6e-05	9e-05	6e-05	-0.0001	-0.0002	0.00011	-1e-05	1e-05	4
17284	6e-05	9e-05	6e-05	-0.0001	-0.0002	0.00011	-1e-05	1e-05	4
17285	6e-05	9e-05	6e-05	-0.0001	-0.0002	0.00011	-1e-05	1e-05	4
17286	6e-05	9e-05	6e-05	-0.0001	-0.0002	0.00011	-1e-05	1e-05	4
17288	6e-05	9e-05	6e-05	-0.0001	-0.0002	0.00011	-1e-05	1e-05	4
17289	6e-05	9e-05	6e-05	-0.0001	-0.0002	0.00011	-1e-05	1e-05	4
17290	6e-05	9e-05	6e-05	-0.0001	-0.0002	0.00011	-1e-05	1e-05	4
17291	6e-05	9e-05	6e-05	-0.0001	-0.0002	0.00011	-1e-05	1e-05	4
17292	6e-05	9e-05	6e-05	-0.0001	-0.0002	0.00011	-1e-05	1e-05	4
17293	0.00011	0.00015	0.00026	0.00033	-0.00015	7e-05	0.00012	0.00011	4
17294	-0.00023	-0.00023	-0.00013	0.00053	0.00127	0.00062	4e-05	-0.00011	4
17295	-0.0001	-0.00017	-0.00033	-0.00016	0.00038	-0.00016	-0.00015	-0.0001	4
17296	-0.0001	-0.00017	-0.00033	-0.00016	0.00038	-0.00016	-0.00015	-0.0001	4
17297	-0.0001	-0.00017	-0.00033	-0.00016	0.00038	-0.00016	-0.00015	-0.0001	4
17298	-0.0001	-0.00017	-0.00033	-0.00016	0.00038	-0.00016	-0.00015	-0.0001	4
17299	-0.0001	-0.00017	-0.00033	-0.00016	0.00038	-0.00016	-0.00015	-0.0001	4
17300	-0.0001	-0.00017	-0.00033	-0.00016	0.00038	-0.00016	-0.00015	-0.0001	4
17301	-0.0001	-0.00017	-0.00033	-0.00016	0.00038	-0.00016	-0.00015	-0.0001	4
17302	-0.0001	-0.00017	-0.00033	-0.00016	0.00038	-0.00016	-0.00015	-0.0001	4
17303	-0.0001	-0.00017	-0.00033	-0.00016	0.00038	-0.00016	-0.00015	-0.0001	4
17304	-0.0001	-0.00017	-0.00033	-0.00016	0.00038	-0.00016	-0.00015	-0.0001	4
17305	-0.0001	-0.00017	-0.00033	-0.00016	0.00038	-0.00016	-0.00015	-0.0001	4
17306	-0.0001	-0.00017	-0.00033	-0.00016	0.00038	-0.00016	-0.00015	-0.0001	4
17307	-0.0001	-0.00017	-0.00033	-0.00016	0.00038	-0.00016	-0.00015	-0.0001	4
17308	-0.0001	-0.00017	-0.00033	-0.00016	0.00038	-0.00016	-0.00015	-0.0001	4
17309	-0.0001	-0.00017	-0.00033	-0.00016	0.00038	-0.00016	-0.00015	-0.0001	4
17310	-0.0001	-0.00017	-0.00033	-0.00016	0.00038	-0.00016	-0.00015	-0.0001	4
17311	-0.0001	-0.00017	-0.00033	-0.00016	0.00038	-0.00016	-0.00015	-0.0001	4
17312	-0.0001	-0.00017	-0.00033	-0.00016	0.00038	-0.00016	-0.00015	-0.0001	4
17313	-0.0001	-0.00017	-0.00033	-0.00016	0.00038	-0.00016	-0.00015	-0.0001	4
17314	-0.0001	-0.00017	-0.00033	-0.00016	0.00038	-0.00016	-0.00015	-0.0001	4
17315	-0.0001	-0.00017	-0.00033	-0.00016	0.00038	-0.00016	-0.00015	-0.0001	4
17316	-0.0001	-0.00017	-0.00033	-0.00016	0.00038	-0.00016	-0.00015	-0.0001	4
17317	-0.0001	-0.00017	-0.00033	-0.00016	0.00038	-0.00016	-0.00015	-0.0001	4
17318	-0.0001	-0.00017	-0.00033	-0.00016	0.00038	-0.00016	-0.00015	-0.0001	4
17319	-0.0001	-0.00017	-0.00033	-0.00016	0.00038	-0.00016	-0.00015	-0.0001	4
17320	-0.0001	-0.00017	-0.00033	-0.00016	0.00038	-0.00016	-0.00015	-0.0001	4
17321	-0.0001	-0.00017	-0.00033	-0.00016	0.00038	-0.00016	-0.00015	-0.0001	4
17322	-0.0001	-0.00017	-0.00033	-0.00016	0.00038	-0.00016	-0.00015	-0.0001	4
17323	4e-05	3e-05	-2e-05	-3e-05	0.00068	0.00055	0.00024	0.0001	4
17324	-8e-05	-6e-05	9e-05	0.00062	0.00035	-0.00013	-8e-05	-8e-05	4
17325	2e-05	5e-05	0.00019	0.00016	-0.00012	-0.0003	-6e-05	-1e-05	4
17326	2e-05	5e-05	0.00019	0.00016	-0.00012	-0.0003	-6e-05	-1e-05	4
17327	2e-05	5e-05	0.00019	0.00016	-0.00012	-0.0003	-6e-05	-1e-05	4
17328	2e-05	5e-05	0.00019	0.00016	-0.00012	-0.0003	-6e-05	-1e-05	4
17329	2e-05	5e-05	0.00019	0.00016	-0.00012	-0.0003	-6e-05	-1e-05	4
17330	2e-05	5e-05	0.00019	0.00016	-0.00012	-0.0003	-6e-05	-1e-05	4
17331	-4e-05	-0.0001	-0.0002	-0.00034	-0.00031	0.00031	2e-05	-3e-05	4
17332	-4e-05	-0.0001	-0.0002	-0.00034	-0.00031	0.00031	2e-05	-3e-05	4
17333	3e-05	-0.0001	-2e-05	-9e-05	-0.00013	-0.00038	-9e-05	1e-05	4
17334	3e-05	-0.0001	-2e-05	-9e-05	-0.00013	-0.00038	-9e-05	1e-05	4
17335	3e-05	-0.0001	-2e-05	-9e-05	-0.00013	-0.00038	-9e-05	1e-05	4
17336	3e-05	-0.0001	-2e-05	-9e-05	-0.00013	-0.00038	-9e-05	1e-05	4
17338	3e-05	-0.0001	-2e-05	-9e-05	-0.00013	-0.00038	-9e-05	1e-05	4
17339	3e-05	-0.0001	-2e-05	-9e-05	-0.00013	-0.00038	-9e-05	1e-05	4
17340	3e-05	-0.0001	-2e-05	-9e-05	-0.00013	-0.00038	-9e-05	1e-05	4
17341	3e-05	-0.0001	-2e-05	-9e-05	-0.00013	-0.00038	-9e-05	1e-05	4
17342	3e-05	-0.0001	-2e-05	-9e-05	-0.00013	-0.00038	-9e-05	1e-05	4
17343	3e-05	-0.0001	-2e-05	-9e-05	-0.00013	-0.00038	-9e-05	1e-05	4
17344	3e-05	-0.0001	-2e-05	-9e-05	-0.00013	-0.00038	-9e-05	1e-05	4
17345	3e-05	-0.0001	-2e-05	-9e-05	-0.00013	-0.00038	-9e-05	1e-05	4
17346	3e-05	-0.0001	-2e-05	-9e-05	-0.00013	-0.00038	-9e-05	1e-05	4
17347	3e-05	-0.0001	-2e-05	-9e-05	-0.00013	-0.00038	-9e-05	1e-05	4
17348	3e-05	-0.0001	-2e-05	-9e-05	-0.00013	-0.00038	-9e-05	1e-05	4
17349	3e-05	-0.0001	-2e-05	-9e-05	-0.00013	-0.00038	-9e-05	1e-05	4
17350	3e-05	-0.0001	-2e-05	-9e-05	-0.00013	-0.00038	-9e-05	1e-05	4
17351	3e-05	-0.0001	-2e-05	-9e-05	-0.00013	-0.00038	-9e-05	1e-05	4
17352	3e-05	-0.0001	-2e-05	-9e-05	-0.00013	-0.00038	-9e-05	1e-05	4
17353	0	5e-05	3e-05	0.00012	-0.00024	0.0005	0.00014	1e-05	4
17354	-0.00012	-0.00012	-0.00013	0.0001	-8e-05	-0.00021	-0.0001	-8e-05	4
17355	-5e-05	-0.00011	-0.00021	-0.00012	0.00118	0.00047	6e-05	-9e-05	4
17356	-5e-05	-0.00011	-0.00021	-0.00012	0.00118	0.00047	6e-05	-9e-05	4
17357	-5e-05	-0.00011	-0.00021	-0.00012	0.00118	0.00047	6e-05	-9e-05	4
17358	-5e-05	-0.00011	-0.00021	-0.00012	0.00118	0.00047	6e-05	-9e-05	4
17359	-5e-05	-0.00011	-0.00021	-0.00012	0.00118	0.00047	6e-05	-9e-05	4
17360	-5e-05	-0.00011	-0.00021	-0.00012	0.00118	0.00047	6e-05	-9e-05	4
17361	-5e-05	-0.00011	-0.00021	-0.00012	0.00118	0.00047	6e-05	-9e-05	4
17362	-5e-05	-0.00011	-0.00021	-0.00012	0.00118	0.00047	6e-05	-9e-05	4
17363	-5e-05	-0.00011	-0.00021	-0.00012	0.00118	0.00047	6e-05	-9e-05	4
17364	-5e-05	-0.00011	-0.00021	-0.00012	0.00118	0.00047	6e-05	-9e-05	4
17365	-5e-05	-0.00011	-0.00021	-0.00012	0.00118	0.00047	6e-05	-9e-05	4
17366	-5e-05	-0.00011	-0.00021	-0.00012	0.00118	0.00047	6e-05	-9e-05	4
17367	-5e-05	-0.00011	-0.00021	-0.00012	0.00118	0.00047	6e-05	-9e-05	4
17368	-0.0002	-0.00024	-0.00038	-0.00025	0.00011	4e-05	-0.00012	-0.00013	4
17369	-0.0002	-0.00024	-0.00038	-0.00025	0.00011	4e-05	-0.00012	-0.00013	4
17370	-0.0002	-0.00024	-0.00038	-0.00025	0.00011	4e-05	-0.00012	-0.00013	4
17371	-0.0002	-0.00024	-0.00038	-0.00025	0.00011	4e-05	-0.00012	-0.00013	4
17372	-0.0002	-0.00024	-0.00038	-0.00025	0.00011	4e-05	-0.00012	-0.00013	4
17373	-0.0002	-0.00024	-0.00038	-0.00025	0.00011	4e-05	-0.00012	-0.00013	4
17374	-0.0002	-0.00024	-0.00038	-0.00025	0.00011	4e-05	-0.00012	-0.00013	4
17375	-0.0002	-0.00024	-0.00038	-0.00025	0.00011	4e-05	-0.00012	-0.00013	4
17376	4e-05	0.00011	0.00016	2e-05	-0.00066	2e-05	0.0001	8e-05	4
17377	4e-05	0.00011	0.00016	2e-05	-0.00066	2e-05	0.0001	8e-05	4
17378	4e-05	0.00011	0.00016	2e-05	-0.00066	2e-05	0.0001	8e-05	4
17379	4e-05	0.00011	0.00016	2e-05	-0.00066	2e-05	0.0001	8e-05	4
17380	4e-05	0.00011	0.00016	2e-05	-0.00066	2e-05	0.0001	8e-05	4
17381	4e-05	0.00011	0.00016	2e-05	-0.00066	2e-05	0.0001	8e-05	4
17382	4e-05	0.00011	0.00016	2e-05	-0.00066	2e-05	0.0001	8e-05	4
17383	4e-05	0.00011	0.00016	2e-05	-0.00066	2e-05	0.0001	8e-05	4
17384	4e-05	0.00011	0.00016	2e-05	-0.00066	2e-05	0.0001	8e-05	4
17385	4e-05	0.00011	0.00016	2e-05	-0.00066	2e-05	0.0001	8e-05	4
17386	4e-05	0.00011	0.00016	2e-05	-0.00066	2e-05	0.0001	8e-05	4
17388	4e-05	0.00011	0.00016	2e-05	-0.00066	2e-05	0.0001	8e-05	4
17389	4e-05	0.00011	0.00016	2e-05	-0.00066	2e-05	0.0001	8e-05	4
17390	4e-05	0.00011	0.00016	2e-05	-0.00066	2e-05	0.0001	8e-05	4
17391	7e-05	9e-05	0.00018	-0.00025	0.00023	-0.00103	-0.00029	-2e-05	4
17392	7e-05	9e-05	0.00018	-0.00025	0.00023	-0.00103	-0.00029	-2e-05	4
17393	-4e-05	-5e-05	-0.00022	-0.00017	-0.00078	0.00025	6e-05	0	4
17394	-4e-05	-5e-05	-0.00022	-0.00017	-0.00078	0.00025	6e-05	0	4
17395	-4e-05	-5e-05	-0.00022	-0.00017	-0.00078	0.00025	6e-05	0	4
17396	-4e-05	-5e-05	-0.00022	-0.00017	-0.00078	0.00025	6e-05	0	4
17397	-4e-05	-5e-05	-0.00022	-0.00017	-0.00078	0.00025	6e-05	0	4
17398	-4e-05	-5e-05	-0.00022	-0.00017	-0.00078	0.00025	6e-05	0	4
17399	-4e-05	-5e-05	-0.00022	-0.00017	-0.00078	0.00025	6e-05	0	4
17400	-4e-05	-5e-05	-0.00022	-0.00017	-0.00078	0.00025	6e-05	0	4
17401	-4e-05	-5e-05	-0.00022	-0.00017	-0.00078	0.00025	6e-05	0	4
17402	-4e-05	-5e-05	-0.00022	-0.00017	-0.00078	0.00025	6e-05	0	4
17403	-4e-05	-5e-05	-0.00022	-0.00017	-0.00078	0.00025	6e-05	0	4
17404	-4e-05	-5e-05	-0.00022	-0.00017	-0.00078	0.00025	6e-05	0	4
17405	-4e-05	-5e-05	-0.00022	-0.00017	-0.00078	0.00025	6e-05	0	4
17406	-4e-05	-5e-05	-0.00022	-0.00017	-0.00078	0.00025	6e-05	0	4
17407	-4e-05	-5e-05	-0.00022	-0.00017	-0.00078	0.00025	6e-05	0	4
17408	-4e-05	-5e-05	-0.00022	-0.00017	-0.00078	0.00025	6e-05	0	4
17409	-4e-05	-5e-05	-0.00022	-0.00017	-0.00078	0.00025	6e-05	0	4
17410	-4e-05	-5e-05	-0.00022	-0.00017	-0.00078	0.00025	6e-05	0	4
17411	-4e-05	-5e-05	-0.00022	-0.00017	-0.00078	0.00025	6e-05	0	4
17412	-4e-05	-5e-05	-0.00022	-0.00017	-0.00078	0.00025	6e-05	0	4
17413	6e-05	2e-05	-5e-05	-0.00032	0.00044	0.0002	4e-05	5e-05	4
17414	-1e-05	-1e-05	6e-05	0.00027	0.00024	0.00055	5e-05	-1e-05	4
17415	0	4e-05	0.00019	0.00062	-0.00014	-0.00066	-0.00025	-6e-05	4
17416	0	4e-05	0.00019	0.00062	-0.00014	-0.00066	-0.00025	-6e-05	4
17417	0	4e-05	0.00019	0.00062	-0.00014	-0.00066	-0.00025	-6e-05	4
17418	0	4e-05	0.00019	0.00062	-0.00014	-0.00066	-0.00025	-6e-05	4
17419	0	4e-05	0.00019	0.00062	-0.00014	-0.00066	-0.00025	-6e-05	4
17420	0	4e-05	0.00019	0.00062	-0.00014	-0.00066	-0.00025	-6e-05	4
17421	0	4e-05	0.00019	0.00062	-0.00014	-0.00066	-0.00025	-6e-05	4
17422	0	4e-05	0.00019	0.00062	-0.00014	-0.00066	-0.00025	-6e-05	4
17423	0	4e-05	0.00019	0.00062	-0.00014	-0.00066	-0.00025	-6e-05	4
17424	0	4e-05	0.00019	0.00062	-0.00014	-0.00066	-0.00025	-6e-05	4
17425	0	4e-05	0.00019	0.00062	-0.00014	-0.00066	-0.00025	-6e-05	4
17426	0	4e-05	0.00019	0.00062	-0.00014	-0.00066	-0.00025	-6e-05	4
17427	0	4e-05	0.00019	0.00062	-0.00014	-0.00066	-0.00025	-6e-05	4
17428	0	4e-05	0.00019	0.00062	-0.00014	-0.00066	-0.00025	-6e-05	4
17429	0	4e-05	0.00019	0.00062	-0.00014	-0.00066	-0.00025	-6e-05	4
17430	0	4e-05	0.00019	0.00062	-0.00014	-0.00066	-0.00025	-6e-05	4
17431	0	4e-05	0.00019	0.00062	-0.00014	-0.00066	-0.00025	-6e-05	4
17432	0	4e-05	0.00019	0.00062	-0.00014	-0.00066	-0.00025	-6e-05	4
17433	0	4e-05	0.00019	0.00062	-0.00014	-0.00066	-0.00025	-6e-05	4
17434	0	4e-05	0.00019	0.00062	-0.00014	-0.00066	-0.00025	-6e-05	4
17435	0	4e-05	0.00019	0.00062	-0.00014	-0.00066	-0.00025	-6e-05	4
17436	0	4e-05	0.00019	0.00062	-0.00014	-0.00066	-0.00025	-6e-05	4
17438	0	4e-05	0.00019	0.00062	-0.00014	-0.00066	-0.00025	-6e-05	4
17439	0	4e-05	0.00019	0.00062	-0.00014	-0.00066	-0.00025	-6e-05	4
17440	0	4e-05	0.00019	0.00062	-0.00014	-0.00066	-0.00025	-6e-05	4
17441	0	4e-05	0.00019	0.00062	-0.00014	-0.00066	-0.00025	-6e-05	4
17442	0	4e-05	0.00019	0.00062	-0.00014	-0.00066	-0.00025	-6e-05	4
17443	0	4e-05	0.00019	0.00062	-0.00014	-0.00066	-0.00025	-6e-05	4
17444	0	4e-05	0.00019	0.00062	-0.00014	-0.00066	-0.00025	-6e-05	4
17445	0	4e-05	0.00019	0.00062	-0.00014	-0.00066	-0.00025	-6e-05	4
17446	0	4e-05	0.00019	0.00062	-0.00014	-0.00066	-0.00025	-6e-05	4
17447	0	4e-05	0.00019	0.00062	-0.00014	-0.00066	-0.00025	-6e-05	4
17448	0	4e-05	0.00019	0.00062	-0.00014	-0.00066	-0.00025	-6e-05	4
17449	0	4e-05	0.00019	0.00062	-0.00014	-0.00066	-0.00025	-6e-05	4
17450	0	4e-05	0.00019	0.00062	-0.00014	-0.00066	-0.00025	-6e-05	4
17451	0	4e-05	0.00019	0.00062	-0.00014	-0.00066	-0.00025	-6e-05	4
17452	3e-05	5e-05	4e-05	-0.00027	-0.00056	-0.00037	0.00012	5e-05	4
17453	3e-05	5e-05	4e-05	-0.00027	-0.00056	-0.00037	0.00012	5e-05	4
17454	3e-05	4e-05	-0.0001	-2e-05	-8e-05	0.00035	0.00011	2e-05	4
17455	0.0001	7e-05	0.00013	-1e-05	0.00023	-4e-05	-2e-05	6e-05	4
17456	0.0001	7e-05	0.00013	-1e-05	0.00023	-4e-05	-2e-05	6e-05	4
17457	0.0001	7e-05	0.00013	-1e-05	0.00023	-4e-05	-2e-05	6e-05	4
17458	0.0001	7e-05	0.00013	-1e-05	0.00023	-4e-05	-2e-05	6e-05	4
17459	0.0001	7e-05	0.00013	-1e-05	0.00023	-4e-05	-2e-05	6e-05	4
17460	0.0001	7e-05	0.00013	-1e-05	0.00023	-4e-05	-2e-05	6e-05	4
17461	0.0001	7e-05	0.00013	-1e-05	0.00023	-4e-05	-2e-05	6e-05	4
17462	0.0001	7e-05	0.00013	-1e-05	0.00023	-4e-05	-2e-05	6e-05	4
17463	0.0001	7e-05	0.00013	-1e-05	0.00023	-4e-05	-2e-05	6e-05	4
17464	0.0001	7e-05	0.00013	-1e-05	0.00023	-4e-05	-2e-05	6e-05	4
17465	0.0001	7e-05	0.00013	-1e-05	0.00023	-4e-05	-2e-05	6e-05	4
17466	0.0001	7e-05	0.00013	-1e-05	0.00023	-4e-05	-2e-05	6e-05	4
17467	0.0001	7e-05	0.00013	-1e-05	0.00023	-4e-05	-2e-05	6e-05	4
17468	0.0001	7e-05	0.00013	-1e-05	0.00023	-4e-05	-2e-05	6e-05	4
17469	0.0001	7e-05	0.00013	-1e-05	0.00023	-4e-05	-2e-05	6e-05	4
17470	0.0001	7e-05	0.00013	-1e-05	0.00023	-4e-05	-2e-05	6e-05	4
17471	0.0001	7e-05	0.00013	-1e-05	0.00023	-4e-05	-2e-05	6e-05	4
17472	0.0001	7e-05	0.00013	-1e-05	0.00023	-4e-05	-2e-05	6e-05	4
17473	0.0001	7e-05	0.00013	-1e-05	0.00023	-4e-05	-2e-05	6e-05	4
17474	0.0001	7e-05	0.00013	-1e-05	0.00023	-4e-05	-2e-05	6e-05	4
17475	0.0001	7e-05	0.00013	-1e-05	0.00023	-4e-05	-2e-05	6e-05	4
17476	0.0001	7e-05	0.00013	-1e-05	0.00023	-4e-05	-2e-05	6e-05	4
17477	0.0001	7e-05	0.00013	-1e-05	0.00023	-4e-05	-2e-05	6e-05	4
17478	0.0001	7e-05	0.00013	-1e-05	0.00023	-4e-05	-2e-05	6e-05	4
17479	0.0001	7e-05	0.00013	-1e-05	0.00023	-4e-05	-2e-05	6e-05	4
17480	0.0001	7e-05	0.00013	-1e-05	0.00023	-4e-05	-2e-05	6e-05	4
17481	0.0001	7e-05	0.00013	-1e-05	0.00023	-4e-05	-2e-05	6e-05	4
17482	0.0001	7e-05	0.00013	-1e-05	0.00023	-4e-05	-2e-05	6e-05	4
17483	-5e-05	-8e-05	-1e-05	0.00038	0.00028	-0.00018	7e-05	-4e-05	4
17484	2e-05	6e-05	-1e-05	-0.00025	-0.00019	0.00019	6e-05	2e-05	4
17485	2e-05	6e-05	-1e-05	-0.00025	-0.00019	0.00019	6e-05	2e-05	4
17486	2e-05	6e-05	-1e-05	-0.00025	-0.00019	0.00019	6e-05	2e-05	4
17488	2e-05	6e-05	-1e-05	-0.00025	-0.00019	0.00019	6e-05	2e-05	4
17489	2e-05	6e-05	-1e-05	-0.00025	-0.00019	0.00019	6e-05	2e-05	4
17490	2e-05	6e-05	-1e-05	-0.00025	-0.00019	0.00019	6e-05	2e-05	4
17491	2e-05	6e-05	-1e-05	-0.00025	-0.00019	0.00019	6e-05	2e-05	4
17492	2e-05	6e-05	-1e-05	-0.00025	-0.00019	0.00019	6e-05	2e-05	4
17493	2e-05	6e-05	-1e-05	-0.00025	-0.00019	0.00019	6e-05	2e-05	4
17494	2e-05	6e-05	-1e-05	-0.00025	-0.00019	0.00019	6e-05	2e-05	4
17495	2e-05	6e-05	-1e-05	-0.00025	-0.00019	0.00019	6e-05	2e-05	4
17496	2e-05	6e-05	-1e-05	-0.00025	-0.00019	0.00019	6e-05	2e-05	4
17497	2e-05	6e-05	-1e-05	-0.00025	-0.00019	0.00019	6e-05	2e-05	4
17498	2e-05	6e-05	-1e-05	-0.00025	-0.00019	0.00019	6e-05	2e-05	4
17499	2e-05	6e-05	-1e-05	-0.00025	-0.00019	0.00019	6e-05	2e-05	4
17500	2e-05	6e-05	-1e-05	-0.00025	-0.00019	0.00019	6e-05	2e-05	4
17501	2e-05	6e-05	-1e-05	-0.00025	-0.00019	0.00019	6e-05	2e-05	4
17502	2e-05	6e-05	-1e-05	-0.00025	-0.00019	0.00019	6e-05	2e-05	4
17503	2e-05	6e-05	-1e-05	-0.00025	-0.00019	0.00019	6e-05	2e-05	4
17504	2e-05	6e-05	-1e-05	-0.00025	-0.00019	0.00019	6e-05	2e-05	4
17505	2e-05	6e-05	-1e-05	-0.00025	-0.00019	0.00019	6e-05	2e-05	4
17506	2e-05	6e-05	-1e-05	-0.00025	-0.00019	0.00019	6e-05	2e-05	4
17507	2e-05	6e-05	-1e-05	-0.00025	-0.00019	0.00019	6e-05	2e-05	4
17508	2e-05	6e-05	-1e-05	-0.00025	-0.00019	0.00019	6e-05	2e-05	4
17509	2e-05	6e-05	-1e-05	-0.00025	-0.00019	0.00019	6e-05	2e-05	4
17510	2e-05	6e-05	-1e-05	-0.00025	-0.00019	0.00019	6e-05	2e-05	4
17511	2e-05	6e-05	-1e-05	-0.00025	-0.00019	0.00019	6e-05	2e-05	4
17512	-3e-05	-7e-05	-0.00015	-0.0004	0.00026	0.00012	-0.00011	-6e-05	4
17513	6e-05	4e-05	4e-05	-1e-05	-8e-05	0.00024	0.00013	7e-05	4
17514	6e-05	4e-05	4e-05	-1e-05	-8e-05	0.00024	0.00013	7e-05	4
17515	-2e-05	3e-05	5e-05	8e-05	-0.00024	-0.0002	-5e-05	-3e-05	4
17516	-2e-05	3e-05	5e-05	8e-05	-0.00024	-0.0002	-5e-05	-3e-05	4
17517	-2e-05	3e-05	5e-05	8e-05	-0.00024	-0.0002	-5e-05	-3e-05	4
17518	-2e-05	3e-05	5e-05	8e-05	-0.00024	-0.0002	-5e-05	-3e-05	4
17519	-7e-05	-9e-05	-0.00024	-0.00031	-0.0005	-0.0002	-1e-05	-1e-05	4
17520	-7e-05	-9e-05	-0.00024	-0.00031	-0.0005	-0.0002	-1e-05	-1e-05	4
17521	-8e-05	-4e-05	0	-0.00015	-0.00018	0.00038	6e-05	-2e-05	4
17522	-8e-05	-4e-05	0	-0.00015	-0.00018	0.00038	6e-05	-2e-05	4
17523	-8e-05	-4e-05	0	-0.00015	-0.00018	0.00038	6e-05	-2e-05	4
17524	-8e-05	-4e-05	0	-0.00015	-0.00018	0.00038	6e-05	-2e-05	4
17525	-8e-05	-4e-05	0	-0.00015	-0.00018	0.00038	6e-05	-2e-05	4
17526	-8e-05	-4e-05	0	-0.00015	-0.00018	0.00038	6e-05	-2e-05	4
17527	-8e-05	-4e-05	0	-0.00015	-0.00018	0.00038	6e-05	-2e-05	4
17528	-8e-05	-4e-05	0	-0.00015	-0.00018	0.00038	6e-05	-2e-05	4
17529	-8e-05	-4e-05	0	-0.00015	-0.00018	0.00038	6e-05	-2e-05	4
17530	-8e-05	-4e-05	0	-0.00015	-0.00018	0.00038	6e-05	-2e-05	4
17531	-8e-05	-4e-05	0	-0.00015	-0.00018	0.00038	6e-05	-2e-05	4
17532	-8e-05	-4e-05	0	-0.00015	-0.00018	0.00038	6e-05	-2e-05	4
17533	-8e-05	-4e-05	0	-0.00015	-0.00018	0.00038	6e-05	-2e-05	4
17534	-8e-05	-4e-05	0	-0.00015	-0.00018	0.00038	6e-05	-2e-05	4
17535	-8e-05	-4e-05	0	-0.00015	-0.00018	0.00038	6e-05	-2e-05	4
17536	-8e-05	-4e-05	0	-0.00015	-0.00018	0.00038	6e-05	-2e-05	4
17538	-8e-05	-4e-05	0	-0.00015	-0.00018	0.00038	6e-05	-2e-05	4
17539	-8e-05	-4e-05	0	-0.00015	-0.00018	0.00038	6e-05	-2e-05	4
17540	-8e-05	-4e-05	0	-0.00015	-0.00018	0.00038	6e-05	-2e-05	4
17541	7e-05	1e-05	-2e-05	4e-05	-0.00057	0.00013	4e-05	4e-05	4
17542	-1e-05	-1e-05	-2e-05	-0.00014	-0.00066	-0.00035	-0.00018	-8e-05	4
17543	2e-05	2e-05	-5e-05	1e-05	-0.00047	-0.00055	-0.00012	-5e-05	4
17544	2e-05	2e-05	-5e-05	1e-05	-0.00047	-0.00055	-0.00012	-5e-05	4
17545	2e-05	2e-05	-5e-05	1e-05	-0.00047	-0.00055	-0.00012	-5e-05	4
17546	2e-05	2e-05	-5e-05	1e-05	-0.00047	-0.00055	-0.00012	-5e-05	4
17547	-5e-05	-7e-05	-0.00023	-0.00023	0.00107	-6e-05	-6e-05	-3e-05	4
17548	-5e-05	-7e-05	-0.00023	-0.00023	0.00107	-6e-05	-6e-05	-3e-05	4
17549	-5e-05	-7e-05	-0.00023	-0.00023	0.00107	-6e-05	-6e-05	-3e-05	4
17550	-5e-05	-7e-05	-0.00023	-0.00023	0.00107	-6e-05	-6e-05	-3e-05	4
17551	-5e-05	-7e-05	-0.00023	-0.00023	0.00107	-6e-05	-6e-05	-3e-05	4
17552	-5e-05	-7e-05	-0.00023	-0.00023	0.00107	-6e-05	-6e-05	-3e-05	4
17553	-5e-05	-7e-05	-0.00023	-0.00023	0.00107	-6e-05	-6e-05	-3e-05	4
17554	-5e-05	-7e-05	-0.00023	-0.00023	0.00107	-6e-05	-6e-05	-3e-05	4
17555	-5e-05	-7e-05	-0.00023	-0.00023	0.00107	-6e-05	-6e-05	-3e-05	4
17556	-5e-05	-7e-05	-0.00023	-0.00023	0.00107	-6e-05	-6e-05	-3e-05	4
17557	-5e-05	-7e-05	-0.00023	-0.00023	0.00107	-6e-05	-6e-05	-3e-05	4
17558	-5e-05	-7e-05	-0.00023	-0.00023	0.00107	-6e-05	-6e-05	-3e-05	4
17559	-5e-05	-7e-05	-0.00023	-0.00023	0.00107	-6e-05	-6e-05	-3e-05	4
17560	-5e-05	-7e-05	-0.00023	-0.00023	0.00107	-6e-05	-6e-05	-3e-05	4
17561	-5e-05	-7e-05	-0.00023	-0.00023	0.00107	-6e-05	-6e-05	-3e-05	4
17562	-5e-05	-7e-05	-0.00023	-0.00023	0.00107	-6e-05	-6e-05	-3e-05	4
17563	-5e-05	-7e-05	-0.00023	-0.00023	0.00107	-6e-05	-6e-05	-3e-05	4
17564	-5e-05	-7e-05	-0.00023	-0.00023	0.00107	-6e-05	-6e-05	-3e-05	4
17565	-5e-05	-7e-05	-0.00023	-0.00023	0.00107	-6e-05	-6e-05	-3e-05	4
17566	-5e-05	-7e-05	-0.00023	-0.00023	0.00107	-6e-05	-6e-05	-3e-05	4
17567	-5e-05	-7e-05	-0.00023	-0.00023	0.00107	-6e-05	-6e-05	-3e-05	4
17568	-5e-05	-7e-05	-0.00023	-0.00023	0.00107	-6e-05	-6e-05	-3e-05	4
17569	-5e-05	-7e-05	-0.00023	-0.00023	0.00107	-6e-05	-6e-05	-3e-05	4
17570	-5e-05	-7e-05	-0.00023	-0.00023	0.00107	-6e-05	-6e-05	-3e-05	4
17571	-5e-05	-7e-05	-0.00023	-0.00023	0.00107	-6e-05	-6e-05	-3e-05	4
17572	-5e-05	-7e-05	-0.00023	-0.00023	0.00107	-6e-05	-6e-05	-3e-05	4
17573	2e-05	1e-05	0.00029	0.00017	0.00032	0.00012	1e-05	2e-05	4
17574	-2e-05	2e-05	0.00011	0.00032	0.00077	0.0001	-0.00016	-7e-05	4
17575	-2e-05	2e-05	0.00011	0.00032	0.00077	0.0001	-0.00016	-7e-05	4
17576	-2e-05	2e-05	0.00011	0.00032	0.00077	0.0001	-0.00016	-7e-05	4
17577	-5e-05	0.00011	7e-05	-0.00018	-0.00055	0.00021	-7e-05	-5e-05	4
17578	-5e-05	0.00011	7e-05	-0.00018	-0.00055	0.00021	-7e-05	-5e-05	4
17579	-5e-05	0.00011	7e-05	-0.00018	-0.00055	0.00021	-7e-05	-5e-05	4
17580	-5e-05	0.00011	7e-05	-0.00018	-0.00055	0.00021	-7e-05	-5e-05	4
17581	-5e-05	0.00011	7e-05	-0.00018	-0.00055	0.00021	-7e-05	-5e-05	4
17582	-5e-05	0.00011	7e-05	-0.00018	-0.00055	0.00021	-7e-05	-5e-05	4
17583	-5e-05	0.00011	7e-05	-0.00018	-0.00055	0.00021	-7e-05	-5e-05	4
17584	-5e-05	0.00011	7e-05	-0.00018	-0.00055	0.00021	-7e-05	-5e-05	4
17585	-5e-05	0.00011	7e-05	-0.00018	-0.00055	0.00021	-7e-05	-5e-05	4
17586	-5e-05	0.00011	7e-05	-0.00018	-0.00055	0.00021	-7e-05	-5e-05	4
17588	-5e-05	0.00011	7e-05	-0.00018	-0.00055	0.00021	-7e-05	-5e-05	4
17589	-5e-05	0.00011	7e-05	-0.00018	-0.00055	0.00021	-7e-05	-5e-05	4
17590	-5e-05	0.00011	7e-05	-0.00018	-0.00055	0.00021	-7e-05	-5e-05	4
17591	-5e-05	0.00011	7e-05	-0.00018	-0.00055	0.00021	-7e-05	-5e-05	4
17592	-5e-05	0.00011	7e-05	-0.00018	-0.00055	0.00021	-7e-05	-5e-05	4
17593	-5e-05	0.00011	7e-05	-0.00018	-0.00055	0.00021	-7e-05	-5e-05	4
17594	-5e-05	0.00011	7e-05	-0.00018	-0.00055	0.00021	-7e-05	-5e-05	4
17595	-5e-05	0.00011	7e-05	-0.00018	-0.00055	0.00021	-7e-05	-5e-05	4
17596	-5e-05	0.00011	7e-05	-0.00018	-0.00055	0.00021	-7e-05	-5e-05	4
17597	-5e-05	0.00011	7e-05	-0.00018	-0.00055	0.00021	-7e-05	-5e-05	4
17598	-5e-05	0.00011	7e-05	-0.00018	-0.00055	0.00021	-7e-05	-5e-05	4
17599	-5e-05	0.00011	7e-05	-0.00018	-0.00055	0.00021	-7e-05	-5e-05	4
17600	-5e-05	0.00011	7e-05	-0.00018	-0.00055	0.00021	-7e-05	-5e-05	4
17601	0.00015	1e-05	8e-05	0.00013	0.00038	-5e-05	-0.00012	-3e-05	4
17602	5e-05	3e-05	-2e-05	-0.00024	0.00016	0.00057	0.0003	0.00011	4
17603	-4e-05	-2e-05	0	-3e-05	-9e-05	0.00039	-2e-05	-3e-05	4
17604	-4e-05	-2e-05	0	-3e-05	-9e-05	0.00039	-2e-05	-3e-05	4
17605	-4e-05	-2e-05	0	-3e-05	-9e-05	0.00039	-2e-05	-3e-05	4
17606	-4e-05	-2e-05	0	-3e-05	-9e-05	0.00039	-2e-05	-3e-05	4
17607	-4e-05	-2e-05	0	-3e-05	-9e-05	0.00039	-2e-05	-3e-05	4
17608	-1e-05	-2e-05	-5e-05	-0.0003	-0.00048	-8e-05	0.00016	1e-05	4
17609	-1e-05	-2e-05	-5e-05	-0.0003	-0.00048	-8e-05	0.00016	1e-05	4
17610	-1e-05	-2e-05	-5e-05	-0.0003	-0.00048	-8e-05	0.00016	1e-05	4
17611	-1e-05	-2e-05	-5e-05	-0.0003	-0.00048	-8e-05	0.00016	1e-05	4
17612	-1e-05	-2e-05	-5e-05	-0.0003	-0.00048	-8e-05	0.00016	1e-05	4
17613	-1e-05	-2e-05	-5e-05	-0.0003	-0.00048	-8e-05	0.00016	1e-05	4
17614	-1e-05	-2e-05	-5e-05	-0.0003	-0.00048	-8e-05	0.00016	1e-05	4
17615	-1e-05	-2e-05	-5e-05	-0.0003	-0.00048	-8e-05	0.00016	1e-05	4
17616	-1e-05	-2e-05	-5e-05	-0.0003	-0.00048	-8e-05	0.00016	1e-05	4
17617	-1e-05	-2e-05	-5e-05	-0.0003	-0.00048	-8e-05	0.00016	1e-05	4
17618	-1e-05	-2e-05	-5e-05	-0.0003	-0.00048	-8e-05	0.00016	1e-05	4
17619	-1e-05	-2e-05	-5e-05	-0.0003	-0.00048	-8e-05	0.00016	1e-05	4
17620	-1e-05	-2e-05	-5e-05	-0.0003	-0.00048	-8e-05	0.00016	1e-05	4
17621	-1e-05	-2e-05	-5e-05	-0.0003	-0.00048	-8e-05	0.00016	1e-05	4
17622	-1e-05	-2e-05	-5e-05	-0.0003	-0.00048	-8e-05	0.00016	1e-05	4
17623	-1e-05	-2e-05	-5e-05	-0.0003	-0.00048	-8e-05	0.00016	1e-05	4
17624	-1e-05	-2e-05	-5e-05	-0.0003	-0.00048	-8e-05	0.00016	1e-05	4
17625	-1e-05	-2e-05	-5e-05	-0.0003	-0.00048	-8e-05	0.00016	1e-05	4
17626	-1e-05	-2e-05	-5e-05	-0.0003	-0.00048	-8e-05	0.00016	1e-05	4
17627	-1e-05	-2e-05	-5e-05	-0.0003	-0.00048	-8e-05	0.00016	1e-05	4
17628	-1e-05	-2e-05	-5e-05	-0.0003	-0.00048	-8e-05	0.00016	1e-05	4
17629	-1e-05	-2e-05	-5e-05	-0.0003	-0.00048	-8e-05	0.00016	1e-05	4
17630	-1e-05	-2e-05	-5e-05	-0.0003	-0.00048	-8e-05	0.00016	1e-05	4
17631	-1e-05	-2e-05	-5e-05	-0.0003	-0.00048	-8e-05	0.00016	1e-05	4
17632	-1e-05	-2e-05	-5e-05	-0.0003	-0.00048	-8e-05	0.00016	1e-05	4
17633	-2e-05	-3e-05	-6e-05	1e-05	0.00046	6e-05	8e-05	5e-05	4
17634	5e-05	-5e-05	-4e-05	9e-05	-0.0006	-0.00029	-0.0002	-6e-05	4
17635	5e-05	-5e-05	-4e-05	9e-05	-0.0006	-0.00029	-0.0002	-6e-05	4
17636	5e-05	-5e-05	-4e-05	9e-05	-0.0006	-0.00029	-0.0002	-6e-05	4
17638	-4e-05	-0.00014	-0.00013	-0.00025	0.00038	0.00029	7e-05	-4e-05	4
17639	-4e-05	-0.00014	-0.00013	-0.00025	0.00038	0.00029	7e-05	-4e-05	4
17640	-4e-05	-0.00014	-0.00013	-0.00025	0.00038	0.00029	7e-05	-4e-05	4
17641	-4e-05	-0.00014	-0.00013	-0.00025	0.00038	0.00029	7e-05	-4e-05	4
17642	-4e-05	-0.00014	-0.00013	-0.00025	0.00038	0.00029	7e-05	-4e-05	4
17643	-4e-05	-0.00014	-0.00013	-0.00025	0.00038	0.00029	7e-05	-4e-05	4
17644	-4e-05	-0.00014	-0.00013	-0.00025	0.00038	0.00029	7e-05	-4e-05	4
17645	-4e-05	-0.00014	-0.00013	-0.00025	0.00038	0.00029	7e-05	-4e-05	4
17646	-4e-05	-0.00014	-0.00013	-0.00025	0.00038	0.00029	7e-05	-4e-05	4
17647	-4e-05	-0.00014	-0.00013	-0.00025	0.00038	0.00029	7e-05	-4e-05	4
17648	-4e-05	-0.00014	-0.00013	-0.00025	0.00038	0.00029	7e-05	-4e-05	4
17649	-4e-05	-0.00014	-0.00013	-0.00025	0.00038	0.00029	7e-05	-4e-05	4
17650	-4e-05	-0.00014	-0.00013	-0.00025	0.00038	0.00029	7e-05	-4e-05	4
17651	-4e-05	-0.00014	-0.00013	-0.00025	0.00038	0.00029	7e-05	-4e-05	4
17652	-4e-05	-0.00014	-0.00013	-0.00025	0.00038	0.00029	7e-05	-4e-05	4
17653	-4e-05	-0.00014	-0.00013	-0.00025	0.00038	0.00029	7e-05	-4e-05	4
17654	-4e-05	-0.00014	-0.00013	-0.00025	0.00038	0.00029	7e-05	-4e-05	4
17655	-4e-05	-0.00014	-0.00013	-0.00025	0.00038	0.00029	7e-05	-4e-05	4
17656	-4e-05	-0.00014	-0.00013	-0.00025	0.00038	0.00029	7e-05	-4e-05	4
17657	-4e-05	-0.00014	-0.00013	-0.00025	0.00038	0.00029	7e-05	-4e-05	4
17658	-4e-05	-0.00014	-0.00013	-0.00025	0.00038	0.00029	7e-05	-4e-05	4
17659	-4e-05	-0.00014	-0.00013	-0.00025	0.00038	0.00029	7e-05	-4e-05	4
17660	-4e-05	-0.00014	-0.00013	-0.00025	0.00038	0.00029	7e-05	-4e-05	4
17661	5e-05	6e-05	-5e-05	0.00021	-0.00128	-0.00046	-5e-05	3e-05	4
17662	9e-05	0.0001	0.00013	-0.00031	0.00053	-6e-05	-5e-05	7e-05	4
17663	5e-05	1e-05	0	0.00032	-0.00049	-0.00036	-1e-05	4e-05	4
17664	5e-05	1e-05	0	0.00032	-0.00049	-0.00036	-1e-05	4e-05	4
17665	5e-05	1e-05	0	0.00032	-0.00049	-0.00036	-1e-05	4e-05	4
17666	5e-05	1e-05	0	0.00032	-0.00049	-0.00036	-1e-05	4e-05	4
17667	-6e-05	3e-05	0.0002	0.00058	0.00058	9e-05	-8e-05	-7e-05	4
17668	-6e-05	3e-05	0.0002	0.00058	0.00058	9e-05	-8e-05	-7e-05	4
17669	-6e-05	3e-05	0.0002	0.00058	0.00058	9e-05	-8e-05	-7e-05	4
17670	-6e-05	3e-05	0.0002	0.00058	0.00058	9e-05	-8e-05	-7e-05	4
17671	-6e-05	3e-05	0.0002	0.00058	0.00058	9e-05	-8e-05	-7e-05	4
17672	-6e-05	3e-05	0.0002	0.00058	0.00058	9e-05	-8e-05	-7e-05	4
17673	-6e-05	3e-05	0.0002	0.00058	0.00058	9e-05	-8e-05	-7e-05	4
17674	-6e-05	3e-05	0.0002	0.00058	0.00058	9e-05	-8e-05	-7e-05	4
17675	-6e-05	3e-05	0.0002	0.00058	0.00058	9e-05	-8e-05	-7e-05	4
17676	-6e-05	3e-05	0.0002	0.00058	0.00058	9e-05	-8e-05	-7e-05	4
17677	-6e-05	3e-05	0.0002	0.00058	0.00058	9e-05	-8e-05	-7e-05	4
17678	-6e-05	3e-05	0.0002	0.00058	0.00058	9e-05	-8e-05	-7e-05	4
17679	-6e-05	3e-05	0.0002	0.00058	0.00058	9e-05	-8e-05	-7e-05	4
17680	-6e-05	3e-05	0.0002	0.00058	0.00058	9e-05	-8e-05	-7e-05	4
17681	-6e-05	3e-05	0.0002	0.00058	0.00058	9e-05	-8e-05	-7e-05	4
17682	-6e-05	3e-05	0.0002	0.00058	0.00058	9e-05	-8e-05	-7e-05	4
17683	-6e-05	3e-05	0.0002	0.00058	0.00058	9e-05	-8e-05	-7e-05	4
17684	-6e-05	3e-05	0.0002	0.00058	0.00058	9e-05	-8e-05	-7e-05	4
17685	-6e-05	3e-05	0.0002	0.00058	0.00058	9e-05	-8e-05	-7e-05	4
17686	-6e-05	3e-05	0.0002	0.00058	0.00058	9e-05	-8e-05	-7e-05	4
17688	-6e-05	3e-05	0.0002	0.00058	0.00058	9e-05	-8e-05	-7e-05	4
17689	-6e-05	3e-05	0.0002	0.00058	0.00058	9e-05	-8e-05	-7e-05	4
17690	-6e-05	3e-05	0.0002	0.00058	0.00058	9e-05	-8e-05	-7e-05	4
17691	-6e-05	3e-05	0.0002	0.00058	0.00058	9e-05	-8e-05	-7e-05	4
17692	-6e-05	3e-05	0.0002	0.00058	0.00058	9e-05	-8e-05	-7e-05	4
17693	-6e-05	3e-05	0.0002	0.00058	0.00058	9e-05	-8e-05	-7e-05	4
17694	-6e-05	3e-05	0.0002	0.00058	0.00058	9e-05	-8e-05	-7e-05	4
17695	-6e-05	3e-05	0.0002	0.00058	0.00058	9e-05	-8e-05	-7e-05	4
17696	-6e-05	3e-05	0.0002	0.00058	0.00058	9e-05	-8e-05	-7e-05	4
17697	-6e-05	3e-05	0.0002	0.00058	0.00058	9e-05	-8e-05	-7e-05	4
17698	-6e-05	3e-05	0.0002	0.00058	0.00058	9e-05	-8e-05	-7e-05	4
17699	-6e-05	3e-05	0.0002	0.00058	0.00058	9e-05	-8e-05	-7e-05	4
17700	-6e-05	3e-05	0.0002	0.00058	0.00058	9e-05	-8e-05	-7e-05	4
17701	-0.00011	-6e-05	-0.00021	-0.00085	0.00045	0.00023	-0.00011	-8e-05	4
17702	7e-05	0.0001	0.00016	0.00017	0.00021	0.00022	0.00021	0.00014	4
17703	7e-05	0.0001	0.00016	0.00017	0.00021	0.00022	0.00021	0.00014	4
17704	7e-05	0.0001	0.00016	0.00017	0.00021	0.00022	0.00021	0.00014	4
17705	7e-05	0.0001	0.00016	0.00017	0.00021	0.00022	0.00021	0.00014	4
17706	7e-05	0.0001	0.00016	0.00017	0.00021	0.00022	0.00021	0.00014	4
17707	7e-05	0.0001	0.00016	0.00017	0.00021	0.00022	0.00021	0.00014	4
17708	7e-05	0.0001	0.00016	0.00017	0.00021	0.00022	0.00021	0.00014	4
17709	7e-05	0.0001	0.00016	0.00017	0.00021	0.00022	0.00021	0.00014	4
17710	7e-05	0.0001	0.00016	0.00017	0.00021	0.00022	0.00021	0.00014	4
17711	7e-05	0.0001	0.00016	0.00017	0.00021	0.00022	0.00021	0.00014	4
17712	7e-05	0.0001	0.00016	0.00017	0.00021	0.00022	0.00021	0.00014	4
17713	7e-05	0.0001	0.00016	0.00017	0.00021	0.00022	0.00021	0.00014	4
17714	7e-05	0.0001	0.00016	0.00017	0.00021	0.00022	0.00021	0.00014	4
17715	7e-05	0.0001	0.00016	0.00017	0.00021	0.00022	0.00021	0.00014	4
17716	7e-05	0.0001	0.00016	0.00017	0.00021	0.00022	0.00021	0.00014	4
17717	7e-05	0.0001	0.00016	0.00017	0.00021	0.00022	0.00021	0.00014	4
17718	7e-05	0.0001	0.00016	0.00017	0.00021	0.00022	0.00021	0.00014	4
17719	7e-05	0.0001	0.00016	0.00017	0.00021	0.00022	0.00021	0.00014	4
17720	7e-05	0.0001	0.00016	0.00017	0.00021	0.00022	0.00021	0.00014	4
17721	7e-05	0.0001	0.00016	0.00017	0.00021	0.00022	0.00021	0.00014	4
17722	7e-05	0.0001	0.00016	0.00017	0.00021	0.00022	0.00021	0.00014	4
17723	7e-05	0.0001	0.00016	0.00017	0.00021	0.00022	0.00021	0.00014	4
17724	7e-05	0.0001	0.00016	0.00017	0.00021	0.00022	0.00021	0.00014	4
17725	7e-05	0.0001	0.00016	0.00017	0.00021	0.00022	0.00021	0.00014	4
17726	7e-05	0.0001	0.00016	0.00017	0.00021	0.00022	0.00021	0.00014	4
17727	7e-05	0.0001	0.00016	0.00017	0.00021	0.00022	0.00021	0.00014	4
17728	7e-05	0.0001	0.00016	0.00017	0.00021	0.00022	0.00021	0.00014	4
17729	7e-05	0.0001	0.00016	0.00017	0.00021	0.00022	0.00021	0.00014	4
17730	-5e-05	-5e-05	-0.00018	-0.00029	-0.00035	1e-05	-2e-05	-5e-05	4
17731	1e-05	-5e-05	-0.00019	-0.00038	-0.00087	-0.00027	-0.00015	-7e-05	4
17732	0.00011	3e-05	0.00022	0.00041	0.00041	0.001	0.00045	0.00019	4
17733	0.00011	3e-05	0.00022	0.00041	0.00041	0.001	0.00045	0.00019	4
17734	0.00011	3e-05	0.00022	0.00041	0.00041	0.001	0.00045	0.00019	4
17735	0.00011	3e-05	0.00022	0.00041	0.00041	0.001	0.00045	0.00019	4
17736	0.00011	3e-05	0.00022	0.00041	0.00041	0.001	0.00045	0.00019	4
17738	0.00011	3e-05	0.00022	0.00041	0.00041	0.001	0.00045	0.00019	4
17739	0.00011	3e-05	0.00022	0.00041	0.00041	0.001	0.00045	0.00019	4
17740	0.00011	3e-05	0.00022	0.00041	0.00041	0.001	0.00045	0.00019	4
17741	0.00011	3e-05	0.00022	0.00041	0.00041	0.001	0.00045	0.00019	4
17742	0.00011	3e-05	0.00022	0.00041	0.00041	0.001	0.00045	0.00019	4
17743	0.00011	3e-05	0.00022	0.00041	0.00041	0.001	0.00045	0.00019	4
17744	0.00011	3e-05	0.00022	0.00041	0.00041	0.001	0.00045	0.00019	4
17745	0.00011	3e-05	0.00022	0.00041	0.00041	0.001	0.00045	0.00019	4
17746	0.00011	3e-05	0.00022	0.00041	0.00041	0.001	0.00045	0.00019	4
17747	0.00011	3e-05	0.00022	0.00041	0.00041	0.001	0.00045	0.00019	4
17748	0.00011	3e-05	0.00022	0.00041	0.00041	0.001	0.00045	0.00019	4
17749	0.00011	3e-05	0.00022	0.00041	0.00041	0.001	0.00045	0.00019	4
17750	0.00011	3e-05	0.00022	0.00041	0.00041	0.001	0.00045	0.00019	4
17751	0.00011	3e-05	0.00022	0.00041	0.00041	0.001	0.00045	0.00019	4
17752	0.00011	3e-05	0.00022	0.00041	0.00041	0.001	0.00045	0.00019	4
17753	0.00011	3e-05	0.00022	0.00041	0.00041	0.001	0.00045	0.00019	4
17754	0.00011	3e-05	0.00022	0.00041	0.00041	0.001	0.00045	0.00019	4
17755	0.00011	3e-05	0.00022	0.00041	0.00041	0.001	0.00045	0.00019	4
17756	0.00011	3e-05	0.00022	0.00041	0.00041	0.001	0.00045	0.00019	4
17757	0.00011	3e-05	0.00022	0.00041	0.00041	0.001	0.00045	0.00019	4
17758	0.00011	3e-05	0.00022	0.00041	0.00041	0.001	0.00045	0.00019	4
17759	0.00011	3e-05	0.00022	0.00041	0.00041	0.001	0.00045	0.00019	4
17760	-8e-05	1e-05	-1e-05	0.00078	0.00119	0.00045	0.00011	-5e-05	4
17761	0.00013	0.00014	0.00021	0.0003	-0.0005	-0.00036	0.00011	0.0001	4
17762	7e-05	3e-05	0.00016	-2e-05	-0.00064	-0.00031	-5e-05	3e-05	4
17764	7e-05	3e-05	0.00016	-2e-05	-0.00064	-0.00031	-5e-05	3e-05	4
17765	7e-05	3e-05	0.00016	-2e-05	-0.00064	-0.00031	-5e-05	3e-05	4
17766	7e-05	3e-05	0.00016	-2e-05	-0.00064	-0.00031	-5e-05	3e-05	4
17767	7e-05	3e-05	0.00016	-2e-05	-0.00064	-0.00031	-5e-05	3e-05	4
17768	7e-05	3e-05	0.00016	-2e-05	-0.00064	-0.00031	-5e-05	3e-05	4
17769	7e-05	3e-05	0.00016	-2e-05	-0.00064	-0.00031	-5e-05	3e-05	4
17770	7e-05	3e-05	0.00016	-2e-05	-0.00064	-0.00031	-5e-05	3e-05	4
17771	7e-05	3e-05	0.00016	-2e-05	-0.00064	-0.00031	-5e-05	3e-05	4
17772	7e-05	3e-05	0.00016	-2e-05	-0.00064	-0.00031	-5e-05	3e-05	4
17773	7e-05	3e-05	0.00016	-2e-05	-0.00064	-0.00031	-5e-05	3e-05	4
17774	7e-05	3e-05	0.00016	-2e-05	-0.00064	-0.00031	-5e-05	3e-05	4
17775	7e-05	3e-05	0.00016	-2e-05	-0.00064	-0.00031	-5e-05	3e-05	4
17776	7e-05	3e-05	0.00016	-2e-05	-0.00064	-0.00031	-5e-05	3e-05	4
17777	7e-05	3e-05	0.00016	-2e-05	-0.00064	-0.00031	-5e-05	3e-05	4
17778	7e-05	3e-05	0.00016	-2e-05	-0.00064	-0.00031	-5e-05	3e-05	4
17779	7e-05	3e-05	0.00016	-2e-05	-0.00064	-0.00031	-5e-05	3e-05	4
17780	7e-05	3e-05	0.00016	-2e-05	-0.00064	-0.00031	-5e-05	3e-05	4
17781	7e-05	3e-05	0.00016	-2e-05	-0.00064	-0.00031	-5e-05	3e-05	4
17782	7e-05	3e-05	0.00016	-2e-05	-0.00064	-0.00031	-5e-05	3e-05	4
17783	7e-05	3e-05	0.00016	-2e-05	-0.00064	-0.00031	-5e-05	3e-05	4
17784	7e-05	3e-05	0.00016	-2e-05	-0.00064	-0.00031	-5e-05	3e-05	4
17785	7e-05	3e-05	0.00016	-2e-05	-0.00064	-0.00031	-5e-05	3e-05	4
17786	7e-05	3e-05	0.00016	-2e-05	-0.00064	-0.00031	-5e-05	3e-05	4
17788	7e-05	3e-05	0.00016	-2e-05	-0.00064	-0.00031	-5e-05	3e-05	4
17789	7e-05	3e-05	0.00016	-2e-05	-0.00064	-0.00031	-5e-05	3e-05	4
17790	7e-05	3e-05	0.00016	-2e-05	-0.00064	-0.00031	-5e-05	3e-05	4
17792	-3e-05	-3e-05	2e-05	0.00021	0.00016	0.00027	7e-05	-1e-05	4
17794	-3e-05	-3e-05	2e-05	0.00021	0.00016	0.00027	7e-05	-1e-05	4
17795	-3e-05	-3e-05	2e-05	0.00021	0.00016	0.00027	7e-05	-1e-05	4
17796	-3e-05	-3e-05	2e-05	0.00021	0.00016	0.00027	7e-05	-1e-05	4
17797	-3e-05	-3e-05	2e-05	0.00021	0.00016	0.00027	7e-05	-1e-05	4
17798	-3e-05	-3e-05	2e-05	0.00021	0.00016	0.00027	7e-05	-1e-05	4
17799	-3e-05	-3e-05	2e-05	0.00021	0.00016	0.00027	7e-05	-1e-05	4
17800	-3e-05	-3e-05	2e-05	0.00021	0.00016	0.00027	7e-05	-1e-05	4
17801	-3e-05	-3e-05	2e-05	0.00021	0.00016	0.00027	7e-05	-1e-05	4
17802	-3e-05	-3e-05	2e-05	0.00021	0.00016	0.00027	7e-05	-1e-05	4
17803	-3e-05	-3e-05	2e-05	0.00021	0.00016	0.00027	7e-05	-1e-05	4
17804	-3e-05	-3e-05	2e-05	0.00021	0.00016	0.00027	7e-05	-1e-05	4
17805	-3e-05	-3e-05	2e-05	0.00021	0.00016	0.00027	7e-05	-1e-05	4
17806	-3e-05	-3e-05	2e-05	0.00021	0.00016	0.00027	7e-05	-1e-05	4
17807	-3e-05	-3e-05	2e-05	0.00021	0.00016	0.00027	7e-05	-1e-05	4
17808	-3e-05	-3e-05	2e-05	0.00021	0.00016	0.00027	7e-05	-1e-05	4
17809	-3e-05	-3e-05	2e-05	0.00021	0.00016	0.00027	7e-05	-1e-05	4
17810	-3e-05	-3e-05	2e-05	0.00021	0.00016	0.00027	7e-05	-1e-05	4
17811	-3e-05	-3e-05	2e-05	0.00021	0.00016	0.00027	7e-05	-1e-05	4
17812	-3e-05	-3e-05	2e-05	0.00021	0.00016	0.00027	7e-05	-1e-05	4
17813	-3e-05	-3e-05	2e-05	0.00021	0.00016	0.00027	7e-05	-1e-05	4
17814	-3e-05	-3e-05	2e-05	0.00021	0.00016	0.00027	7e-05	-1e-05	4
17815	-3e-05	-3e-05	2e-05	0.00021	0.00016	0.00027	7e-05	-1e-05	4
17816	-3e-05	-3e-05	2e-05	0.00021	0.00016	0.00027	7e-05	-1e-05	4
17817	-3e-05	-3e-05	2e-05	0.00021	0.00016	0.00027	7e-05	-1e-05	4
17818	-3e-05	-3e-05	2e-05	0.00021	0.00016	0.00027	7e-05	-1e-05	4
17819	-3e-05	-3e-05	2e-05	0.00021	0.00016	0.00027	7e-05	-1e-05	4
17820	3e-05	5e-05	0.00016	0.00037	-0.00049	-0.00059	-7e-05	0	4
17821	6e-05	9e-05	0.00017	0.00043	-0.00038	0.00012	0.00013	6e-05	4
17822	-7e-05	-3e-05	-4e-05	0.00033	0.00107	-0.00055	-0.00037	-0.00014	4
17823	-7e-05	-3e-05	-4e-05	0.00033	0.00107	-0.00055	-0.00037	-0.00014	4
17824	-7e-05	-3e-05	-4e-05	0.00033	0.00107	-0.00055	-0.00037	-0.00014	4
17825	-5e-05	1e-05	-3e-05	-0.00018	-0.00024	-0.00038	-0.00011	-5e-05	4
17826	-5e-05	1e-05	-3e-05	-0.00018	-0.00024	-0.00038	-0.00011	-5e-05	4
17827	-5e-05	1e-05	-3e-05	-0.00018	-0.00024	-0.00038	-0.00011	-5e-05	4
17828	-5e-05	1e-05	-3e-05	-0.00018	-0.00024	-0.00038	-0.00011	-5e-05	4
17829	-5e-05	1e-05	-3e-05	-0.00018	-0.00024	-0.00038	-0.00011	-5e-05	4
17830	-5e-05	1e-05	-3e-05	-0.00018	-0.00024	-0.00038	-0.00011	-5e-05	4
17831	-5e-05	1e-05	-3e-05	-0.00018	-0.00024	-0.00038	-0.00011	-5e-05	4
17832	-5e-05	1e-05	-3e-05	-0.00018	-0.00024	-0.00038	-0.00011	-5e-05	4
17833	-5e-05	1e-05	-3e-05	-0.00018	-0.00024	-0.00038	-0.00011	-5e-05	4
17834	-5e-05	1e-05	-3e-05	-0.00018	-0.00024	-0.00038	-0.00011	-5e-05	4
17835	-5e-05	1e-05	-3e-05	-0.00018	-0.00024	-0.00038	-0.00011	-5e-05	4
17836	-5e-05	1e-05	-3e-05	-0.00018	-0.00024	-0.00038	-0.00011	-5e-05	4
17838	-5e-05	1e-05	-3e-05	-0.00018	-0.00024	-0.00038	-0.00011	-5e-05	4
17839	-5e-05	1e-05	-3e-05	-0.00018	-0.00024	-0.00038	-0.00011	-5e-05	4
17840	-5e-05	1e-05	-3e-05	-0.00018	-0.00024	-0.00038	-0.00011	-5e-05	4
17841	-5e-05	1e-05	-3e-05	-0.00018	-0.00024	-0.00038	-0.00011	-5e-05	4
17842	-5e-05	1e-05	-3e-05	-0.00018	-0.00024	-0.00038	-0.00011	-5e-05	4
17843	-5e-05	1e-05	-3e-05	-0.00018	-0.00024	-0.00038	-0.00011	-5e-05	4
17844	-5e-05	1e-05	-3e-05	-0.00018	-0.00024	-0.00038	-0.00011	-5e-05	4
17845	-5e-05	1e-05	-3e-05	-0.00018	-0.00024	-0.00038	-0.00011	-5e-05	4
17846	-5e-05	1e-05	-3e-05	-0.00018	-0.00024	-0.00038	-0.00011	-5e-05	4
17847	-5e-05	1e-05	-3e-05	-0.00018	-0.00024	-0.00038	-0.00011	-5e-05	4
17848	-5e-05	1e-05	-3e-05	-0.00018	-0.00024	-0.00038	-0.00011	-5e-05	4
17849	-5e-05	1e-05	-3e-05	-0.00018	-0.00024	-0.00038	-0.00011	-5e-05	4
17850	-5e-05	1e-05	-3e-05	-0.00018	-0.00024	-0.00038	-0.00011	-5e-05	4
17851	1e-05	8e-05	0.00037	0.00103	0.00082	0.0005	4e-05	-1e-05	4
17852	-3e-05	-2e-05	-0.00014	-0.0003	-0.00029	-5e-05	-6e-05	-7e-05	4
17853	-3e-05	-2e-05	-0.00014	-0.0003	-0.00029	-5e-05	-6e-05	-7e-05	4
17854	-3e-05	-2e-05	-0.00014	-0.0003	-0.00029	-5e-05	-6e-05	-7e-05	4
17855	-3e-05	-2e-05	-0.00014	-0.0003	-0.00029	-5e-05	-6e-05	-7e-05	4
17856	-3e-05	-2e-05	-0.00014	-0.0003	-0.00029	-5e-05	-6e-05	-7e-05	4
17857	-3e-05	-2e-05	-0.00014	-0.0003	-0.00029	-5e-05	-6e-05	-7e-05	4
17858	-3e-05	-2e-05	-0.00014	-0.0003	-0.00029	-5e-05	-6e-05	-7e-05	4
17859	-3e-05	-2e-05	-0.00014	-0.0003	-0.00029	-5e-05	-6e-05	-7e-05	4
17860	-3e-05	-2e-05	-0.00014	-0.0003	-0.00029	-5e-05	-6e-05	-7e-05	4
17861	-3e-05	-2e-05	-0.00014	-0.0003	-0.00029	-5e-05	-6e-05	-7e-05	4
17862	-3e-05	-2e-05	-0.00014	-0.0003	-0.00029	-5e-05	-6e-05	-7e-05	4
17863	-3e-05	-2e-05	-0.00014	-0.0003	-0.00029	-5e-05	-6e-05	-7e-05	4
17864	-3e-05	-2e-05	-0.00014	-0.0003	-0.00029	-5e-05	-6e-05	-7e-05	4
17865	-3e-05	-2e-05	-0.00014	-0.0003	-0.00029	-5e-05	-6e-05	-7e-05	4
17866	-3e-05	-2e-05	-0.00014	-0.0003	-0.00029	-5e-05	-6e-05	-7e-05	4
17867	-3e-05	-2e-05	-0.00014	-0.0003	-0.00029	-5e-05	-6e-05	-7e-05	4
17868	-3e-05	-2e-05	-0.00014	-0.0003	-0.00029	-5e-05	-6e-05	-7e-05	4
17869	-3e-05	-2e-05	-0.00014	-0.0003	-0.00029	-5e-05	-6e-05	-7e-05	4
17870	-3e-05	-2e-05	-0.00014	-0.0003	-0.00029	-5e-05	-6e-05	-7e-05	4
17871	-3e-05	-2e-05	-0.00014	-0.0003	-0.00029	-5e-05	-6e-05	-7e-05	4
17872	-3e-05	-2e-05	-0.00014	-0.0003	-0.00029	-5e-05	-6e-05	-7e-05	4
17873	-3e-05	-2e-05	-0.00014	-0.0003	-0.00029	-5e-05	-6e-05	-7e-05	4
17874	-3e-05	-2e-05	-0.00014	-0.0003	-0.00029	-5e-05	-6e-05	-7e-05	4
17875	-3e-05	-2e-05	-0.00014	-0.0003	-0.00029	-5e-05	-6e-05	-7e-05	4
17876	-3e-05	-2e-05	-0.00014	-0.0003	-0.00029	-5e-05	-6e-05	-7e-05	4
17877	-3e-05	-2e-05	-0.00014	-0.0003	-0.00029	-5e-05	-6e-05	-7e-05	4
17878	-3e-05	-2e-05	-0.00014	-0.0003	-0.00029	-5e-05	-6e-05	-7e-05	4
17879	-3e-05	-2e-05	-0.00014	-0.0003	-0.00029	-5e-05	-6e-05	-7e-05	4
17880	-0.00015	-0.00014	-0.00022	-0.00047	-0.00034	-0.00018	-0.0001	-0.00012	4
17881	4e-05	-3e-05	-4e-05	-3e-05	3e-05	0.00035	0	4e-05	4
17882	2e-05	1e-05	-0.00015	-0.00016	-0.00034	0.00053	0.00017	3e-05	4
17884	2e-05	1e-05	-0.00015	-0.00016	-0.00034	0.00053	0.00017	3e-05	4
17885	2e-05	1e-05	-0.00015	-0.00016	-0.00034	0.00053	0.00017	3e-05	4
17886	1e-05	2e-05	0.00015	-0.0001	-0.00048	0.00032	-5e-05	-3e-05	4
17888	1e-05	2e-05	0.00015	-0.0001	-0.00048	0.00032	-5e-05	-3e-05	4
17889	1e-05	2e-05	0.00015	-0.0001	-0.00048	0.00032	-5e-05	-3e-05	4
17890	1e-05	2e-05	0.00015	-0.0001	-0.00048	0.00032	-5e-05	-3e-05	4
17891	1e-05	2e-05	0.00015	-0.0001	-0.00048	0.00032	-5e-05	-3e-05	4
17892	1e-05	2e-05	0.00015	-0.0001	-0.00048	0.00032	-5e-05	-3e-05	4
17893	1e-05	2e-05	0.00015	-0.0001	-0.00048	0.00032	-5e-05	-3e-05	4
17894	1e-05	2e-05	0.00015	-0.0001	-0.00048	0.00032	-5e-05	-3e-05	4
17895	1e-05	2e-05	0.00015	-0.0001	-0.00048	0.00032	-5e-05	-3e-05	4
17896	1e-05	2e-05	0.00015	-0.0001	-0.00048	0.00032	-5e-05	-3e-05	4
17897	1e-05	2e-05	0.00015	-0.0001	-0.00048	0.00032	-5e-05	-3e-05	4
17898	1e-05	2e-05	0.00015	-0.0001	-0.00048	0.00032	-5e-05	-3e-05	4
17899	1e-05	2e-05	0.00015	-0.0001	-0.00048	0.00032	-5e-05	-3e-05	4
17900	1e-05	2e-05	0.00015	-0.0001	-0.00048	0.00032	-5e-05	-3e-05	4
17901	1e-05	2e-05	0.00015	-0.0001	-0.00048	0.00032	-5e-05	-3e-05	4
17902	1e-05	2e-05	0.00015	-0.0001	-0.00048	0.00032	-5e-05	-3e-05	4
17903	1e-05	2e-05	0.00015	-0.0001	-0.00048	0.00032	-5e-05	-3e-05	4
17904	1e-05	2e-05	0.00015	-0.0001	-0.00048	0.00032	-5e-05	-3e-05	4
17905	1e-05	2e-05	0.00015	-0.0001	-0.00048	0.00032	-5e-05	-3e-05	4
17906	1e-05	2e-05	0.00015	-0.0001	-0.00048	0.00032	-5e-05	-3e-05	4
17907	1e-05	2e-05	0.00015	-0.0001	-0.00048	0.00032	-5e-05	-3e-05	4
17908	1e-05	2e-05	0.00015	-0.0001	-0.00048	0.00032	-5e-05	-3e-05	4
17909	1e-05	2e-05	0.00015	-0.0001	-0.00048	0.00032	-5e-05	-3e-05	4
17910	1e-05	2e-05	0.00015	-0.0001	-0.00048	0.00032	-5e-05	-3e-05	4
17911	0.00024	0.00019	0.00028	0.0002	-0.00027	0.00036	0.00036	0.00027	4
17912	0.00024	0.00019	0.00028	0.0002	-0.00027	0.00036	0.00036	0.00027	4
17913	0.00024	0.00019	0.00028	0.0002	-0.00027	0.00036	0.00036	0.00027	4
17914	0.00024	0.00019	0.00028	0.0002	-0.00027	0.00036	0.00036	0.00027	4
17915	0.00024	0.00019	0.00028	0.0002	-0.00027	0.00036	0.00036	0.00027	4
17916	0.00024	0.00019	0.00028	0.0002	-0.00027	0.00036	0.00036	0.00027	4
17917	-7e-05	-8e-05	-0.00034	-0.00057	9e-05	0.00091	0	-5e-05	4
17918	-6e-05	-1e-05	0.00011	0.00039	0.0002	-0.00028	4e-05	-2e-05	4
17919	8e-05	0.00011	0.00018	-1e-05	-0.00027	0.00014	-3e-05	6e-05	4
17920	8e-05	0.00011	0.00018	-1e-05	-0.00027	0.00014	-3e-05	6e-05	4
17921	8e-05	0.00011	0.00018	-1e-05	-0.00027	0.00014	-3e-05	6e-05	4
17922	8e-05	0.00011	0.00018	-1e-05	-0.00027	0.00014	-3e-05	6e-05	4
17923	8e-05	0.00011	0.00018	-1e-05	-0.00027	0.00014	-3e-05	6e-05	4
17924	8e-05	0.00011	0.00018	-1e-05	-0.00027	0.00014	-3e-05	6e-05	4
17925	8e-05	0.00011	0.00018	-1e-05	-0.00027	0.00014	-3e-05	6e-05	4
17926	8e-05	0.00011	0.00018	-1e-05	-0.00027	0.00014	-3e-05	6e-05	4
17927	8e-05	0.00011	0.00018	-1e-05	-0.00027	0.00014	-3e-05	6e-05	4
17928	8e-05	0.00011	0.00018	-1e-05	-0.00027	0.00014	-3e-05	6e-05	4
17929	8e-05	0.00011	0.00018	-1e-05	-0.00027	0.00014	-3e-05	6e-05	4
17930	8e-05	0.00011	0.00018	-1e-05	-0.00027	0.00014	-3e-05	6e-05	4
17931	8e-05	0.00011	0.00018	-1e-05	-0.00027	0.00014	-3e-05	6e-05	4
17932	8e-05	0.00011	0.00018	-1e-05	-0.00027	0.00014	-3e-05	6e-05	4
17933	8e-05	0.00011	0.00018	-1e-05	-0.00027	0.00014	-3e-05	6e-05	4
17934	8e-05	0.00011	0.00018	-1e-05	-0.00027	0.00014	-3e-05	6e-05	4
17935	8e-05	0.00011	0.00018	-1e-05	-0.00027	0.00014	-3e-05	6e-05	4
17936	8e-05	0.00011	0.00018	-1e-05	-0.00027	0.00014	-3e-05	6e-05	4
17938	-2e-05	-4e-05	-9e-05	0.00013	-0.00021	-0.00018	-0.0001	-2e-05	4
17939	-5e-05	-2e-05	0.0001	0.0003	5e-05	0.00021	1e-05	-3e-05	4
17940	5e-05	1e-05	1e-05	-0.00052	2e-05	4e-05	8e-05	6e-05	4
17941	5e-05	1e-05	1e-05	-0.00052	2e-05	4e-05	8e-05	6e-05	4
17942	5e-05	1e-05	1e-05	-0.00052	2e-05	4e-05	8e-05	6e-05	4
17943	5e-05	1e-05	1e-05	-0.00052	2e-05	4e-05	8e-05	6e-05	4
17944	5e-05	1e-05	1e-05	-0.00052	2e-05	4e-05	8e-05	6e-05	4
17945	5e-05	1e-05	1e-05	-0.00052	2e-05	4e-05	8e-05	6e-05	4
17946	5e-05	1e-05	1e-05	-0.00052	2e-05	4e-05	8e-05	6e-05	4
17947	5e-05	1e-05	1e-05	-0.00052	2e-05	4e-05	8e-05	6e-05	4
17948	5e-05	1e-05	1e-05	-0.00052	2e-05	4e-05	8e-05	6e-05	4
17949	5e-05	1e-05	1e-05	-0.00052	2e-05	4e-05	8e-05	6e-05	4
17950	5e-05	1e-05	1e-05	-0.00052	2e-05	4e-05	8e-05	6e-05	4
17951	5e-05	1e-05	1e-05	-0.00052	2e-05	4e-05	8e-05	6e-05	4
17952	5e-05	1e-05	1e-05	-0.00052	2e-05	4e-05	8e-05	6e-05	4
17953	5e-05	1e-05	1e-05	-0.00052	2e-05	4e-05	8e-05	6e-05	4
17954	5e-05	1e-05	1e-05	-0.00052	2e-05	4e-05	8e-05	6e-05	4
17955	5e-05	1e-05	1e-05	-0.00052	2e-05	4e-05	8e-05	6e-05	4
17956	5e-05	1e-05	1e-05	-0.00052	2e-05	4e-05	8e-05	6e-05	4
17957	5e-05	1e-05	1e-05	-0.00052	2e-05	4e-05	8e-05	6e-05	4
17958	5e-05	1e-05	1e-05	-0.00052	2e-05	4e-05	8e-05	6e-05	4
17959	5e-05	1e-05	1e-05	-0.00052	2e-05	4e-05	8e-05	6e-05	4
17960	5e-05	1e-05	1e-05	-0.00052	2e-05	4e-05	8e-05	6e-05	4
17961	5e-05	1e-05	1e-05	-0.00052	2e-05	4e-05	8e-05	6e-05	4
17962	5e-05	1e-05	1e-05	-0.00052	2e-05	4e-05	8e-05	6e-05	4
17963	5e-05	1e-05	1e-05	-0.00052	2e-05	4e-05	8e-05	6e-05	4
17964	5e-05	1e-05	1e-05	-0.00052	2e-05	4e-05	8e-05	6e-05	4
17965	5e-05	1e-05	1e-05	-0.00052	2e-05	4e-05	8e-05	6e-05	4
17966	5e-05	1e-05	1e-05	-0.00052	2e-05	4e-05	8e-05	6e-05	4
17967	5e-05	1e-05	1e-05	-0.00052	2e-05	4e-05	8e-05	6e-05	4
17968	-5e-05	0	7e-05	0.00043	0.00063	0.00017	-4e-05	-4e-05	4
17969	1e-05	8e-05	3e-05	0.00045	0.00052	-9e-05	-3e-05	3e-05	4
17970	4e-05	-2e-05	5e-05	0.00036	0.00098	0.00078	0.0002	0.0001	4
17971	4e-05	-2e-05	5e-05	0.00036	0.00098	0.00078	0.0002	0.0001	4
17972	4e-05	-2e-05	5e-05	0.00036	0.00098	0.00078	0.0002	0.0001	4
17973	4e-05	-2e-05	5e-05	0.00036	0.00098	0.00078	0.0002	0.0001	4
17974	4e-05	-2e-05	5e-05	0.00036	0.00098	0.00078	0.0002	0.0001	4
17975	4e-05	-2e-05	5e-05	0.00036	0.00098	0.00078	0.0002	0.0001	4
17976	-1e-05	4e-05	6e-05	0.00016	0.00036	-7e-05	0.00016	2e-05	4
17977	-1e-05	4e-05	6e-05	0.00016	0.00036	-7e-05	0.00016	2e-05	4
17978	-7e-05	-8e-05	-0.00032	-0.00071	-0.00089	-0.00044	-0.0002	-0.00011	4
17979	-7e-05	-8e-05	-0.00032	-0.00071	-0.00089	-0.00044	-0.0002	-0.00011	4
17980	-7e-05	-8e-05	-0.00032	-0.00071	-0.00089	-0.00044	-0.0002	-0.00011	4
17981	-7e-05	-8e-05	-0.00032	-0.00071	-0.00089	-0.00044	-0.0002	-0.00011	4
40223	-1e-05	-5e-05	-0.00018	-0.00081	2e-05	-0.00045	-3e-05	0	4
40224	-1e-05	-5e-05	-0.00018	-0.00081	2e-05	-0.00045	-3e-05	0	4
40225	-1e-05	-5e-05	-0.00018	-0.00081	2e-05	-0.00045	-3e-05	0	4
40226	-1e-05	-5e-05	-0.00018	-0.00081	2e-05	-0.00045	-3e-05	0	4
40227	-1e-05	-5e-05	-0.00018	-0.00081	2e-05	-0.00045	-3e-05	0	4
40228	-1e-05	-5e-05	-0.00018	-0.00081	2e-05	-0.00045	-3e-05	0	4
40229	-1e-05	-5e-05	-0.00018	-0.00081	2e-05	-0.00045	-3e-05	0	4
40230	1e-05	1e-05	1e-05	-0.00011	-0.00023	0.00054	0.00017	1e-05	4
40231	1e-05	1e-05	1e-05	-0.00011	-0.00023	0.00054	0.00017	1e-05	4
40232	-2e-05	1e-05	3e-05	0.00017	-0.0006	-0.0008	-0.00018	-3e-05	4
40233	-6e-05	-9e-05	-7e-05	0.00055	0	0.00033	-6e-05	-5e-05	4
40234	-6e-05	-9e-05	-7e-05	0.00055	0	0.00033	-6e-05	-5e-05	4
40235	-6e-05	-9e-05	-7e-05	0.00055	0	0.00033	-6e-05	-5e-05	4
40236	-6e-05	-9e-05	-7e-05	0.00055	0	0.00033	-6e-05	-5e-05	4
40238	-6e-05	-9e-05	-7e-05	0.00055	0	0.00033	-6e-05	-5e-05	4
40239	-6e-05	-9e-05	-7e-05	0.00055	0	0.00033	-6e-05	-5e-05	4
40240	-6e-05	-9e-05	-7e-05	0.00055	0	0.00033	-6e-05	-5e-05	4
40241	-6e-05	-9e-05	-7e-05	0.00055	0	0.00033	-6e-05	-5e-05	4
40242	-6e-05	-9e-05	-7e-05	0.00055	0	0.00033	-6e-05	-5e-05	4
40243	-6e-05	-9e-05	-7e-05	0.00055	0	0.00033	-6e-05	-5e-05	4
40244	-6e-05	-9e-05	-7e-05	0.00055	0	0.00033	-6e-05	-5e-05	4
40245	-6e-05	-9e-05	-7e-05	0.00055	0	0.00033	-6e-05	-5e-05	4
40246	-6e-05	-9e-05	-7e-05	0.00055	0	0.00033	-6e-05	-5e-05	4
40247	-6e-05	-9e-05	-7e-05	0.00055	0	0.00033	-6e-05	-5e-05	4
40248	-6e-05	-9e-05	-7e-05	0.00055	0	0.00033	-6e-05	-5e-05	4
40249	-6e-05	-9e-05	-7e-05	0.00055	0	0.00033	-6e-05	-5e-05	4
40250	-6e-05	-9e-05	-7e-05	0.00055	0	0.00033	-6e-05	-5e-05	4
40251	-6e-05	-9e-05	-7e-05	0.00055	0	0.00033	-6e-05	-5e-05	4
40252	-6e-05	-9e-05	-7e-05	0.00055	0	0.00033	-6e-05	-5e-05	4
40253	-6e-05	-9e-05	-7e-05	0.00055	0	0.00033	-6e-05	-5e-05	4
40254	-6e-05	-9e-05	-7e-05	0.00055	0	0.00033	-6e-05	-5e-05	4
40255	-6e-05	-9e-05	-7e-05	0.00055	0	0.00033	-6e-05	-5e-05	4
40256	-6e-05	-9e-05	-7e-05	0.00055	0	0.00033	-6e-05	-5e-05	4
40257	-6e-05	-9e-05	-7e-05	0.00055	0	0.00033	-6e-05	-5e-05	4
40258	-6e-05	-9e-05	-7e-05	0.00055	0	0.00033	-6e-05	-5e-05	4
40259	-5e-05	-4e-05	-6e-05	-0.00039	-2e-05	-0.00088	-0.00028	-6e-05	4
40260	-1e-05	-1e-05	-4e-05	0.00034	0.00055	0.00033	-6e-05	-7e-05	4
40261	-1e-05	-1e-05	-4e-05	0.00034	0.00055	0.00033	-6e-05	-7e-05	4
40262	-1e-05	-1e-05	-4e-05	0.00034	0.00055	0.00033	-6e-05	-7e-05	4
40263	-1e-05	-1e-05	-4e-05	0.00034	0.00055	0.00033	-6e-05	-7e-05	4
40264	-1e-05	-1e-05	-4e-05	0.00034	0.00055	0.00033	-6e-05	-7e-05	4
40265	-1e-05	-1e-05	-4e-05	0.00034	0.00055	0.00033	-6e-05	-7e-05	4
40266	-1e-05	-1e-05	-4e-05	0.00034	0.00055	0.00033	-6e-05	-7e-05	4
40267	-1e-05	-1e-05	-4e-05	0.00034	0.00055	0.00033	-6e-05	-7e-05	4
40268	-1e-05	-1e-05	-4e-05	0.00034	0.00055	0.00033	-6e-05	-7e-05	4
40269	-1e-05	-1e-05	-4e-05	0.00034	0.00055	0.00033	-6e-05	-7e-05	4
40270	-1e-05	-1e-05	-4e-05	0.00034	0.00055	0.00033	-6e-05	-7e-05	4
40271	-1e-05	-1e-05	-4e-05	0.00034	0.00055	0.00033	-6e-05	-7e-05	4
40272	-1e-05	-1e-05	-4e-05	0.00034	0.00055	0.00033	-6e-05	-7e-05	4
40273	-1e-05	-1e-05	-4e-05	0.00034	0.00055	0.00033	-6e-05	-7e-05	4
40274	-1e-05	-1e-05	-4e-05	0.00034	0.00055	0.00033	-6e-05	-7e-05	4
40275	-1e-05	-1e-05	-4e-05	0.00034	0.00055	0.00033	-6e-05	-7e-05	4
40276	-1e-05	-1e-05	-4e-05	0.00034	0.00055	0.00033	-6e-05	-7e-05	4
40277	-1e-05	-1e-05	-4e-05	0.00034	0.00055	0.00033	-6e-05	-7e-05	4
40278	-1e-05	-1e-05	-4e-05	0.00034	0.00055	0.00033	-6e-05	-7e-05	4
40279	-1e-05	-1e-05	-4e-05	0.00034	0.00055	0.00033	-6e-05	-7e-05	4
40280	-1e-05	-1e-05	-4e-05	0.00034	0.00055	0.00033	-6e-05	-7e-05	4
