20631	-0.00017	-0.00066	0.00012	-3e-05	-0.00099	-0.00027	-0.0001	-1e-05	5
20632	-0.00017	-0.00066	0.00012	-3e-05	-0.00099	-0.00027	-0.0001	-1e-05	5
20633	-0.00017	-0.00066	0.00012	-3e-05	-0.00099	-0.00027	-0.0001	-1e-05	5
20634	-0.00017	-0.00066	0.00012	-3e-05	-0.00099	-0.00027	-0.0001	-1e-05	5
20635	-0.00017	-0.00066	0.00012	-3e-05	-0.00099	-0.00027	-0.0001	-1e-05	5
20636	-0.00017	-0.00066	0.00012	-3e-05	-0.00099	-0.00027	-0.0001	-1e-05	5
20638	6e-05	0.00096	-2e-05	0.0002	0.00032	0.00029	0.0001	-2e-05	5
20639	4e-05	0.00019	-0.00016	-0.0001	-0.00041	-7e-05	-5e-05	1e-05	5
20640	0.00026	0.00031	0.00014	-7e-05	-0.00067	-0.00024	2e-05	6e-05	5
20641	0.00026	0.00031	0.00014	-7e-05	-0.00067	-0.00024	2e-05	6e-05	5
20642	0.00026	0.00031	0.00014	-7e-05	-0.00067	-0.00024	2e-05	6e-05	5
20643	0.00026	0.00031	0.00014	-7e-05	-0.00067	-0.00024	2e-05	6e-05	5
20644	0.00026	0.00031	0.00014	-7e-05	-0.00067	-0.00024	2e-05	6e-05	5
20645	0.00026	0.00031	0.00014	-7e-05	-0.00067	-0.00024	2e-05	6e-05	5
20646	0.00026	0.00031	0.00014	-7e-05	-0.00067	-0.00024	2e-05	6e-05	5
20647	0.00026	0.00031	0.00014	-7e-05	-0.00067	-0.00024	2e-05	6e-05	5
20648	0.00026	0.00031	0.00014	-7e-05	-0.00067	-0.00024	2e-05	6e-05	5
20649	0.00026	0.00031	0.00014	-7e-05	-0.00067	-0.00024	2e-05	6e-05	5
20650	0.00026	0.00031	0.00014	-7e-05	-0.00067	-0.00024	2e-05	6e-05	5
20651	0.00026	0.00031	0.00014	-7e-05	-0.00067	-0.00024	2e-05	6e-05	5
20652	0.00026	0.00031	0.00014	-7e-05	-0.00067	-0.00024	2e-05	6e-05	5
20653	0.00026	0.00031	0.00014	-7e-05	-0.00067	-0.00024	2e-05	6e-05	5
20654	0.00026	0.00031	0.00014	-7e-05	-0.00067	-0.00024	2e-05	6e-05	5
20655	0.00026	0.00031	0.00014	-7e-05	-0.00067	-0.00024	2e-05	6e-05	5
20656	0.00026	0.00031	0.00014	-7e-05	-0.00067	-0.00024	2e-05	6e-05	5
20657	0.00026	0.00031	0.00014	-7e-05	-0.00067	-0.00024	2e-05	6e-05	5
20658	0.00026	0.00031	0.00014	-7e-05	-0.00067	-0.00024	2e-05	6e-05	5
20659	0.00026	0.00031	0.00014	-7e-05	-0.00067	-0.00024	2e-05	6e-05	5
20660	0.00026	0.00031	0.00014	-7e-05	-0.00067	-0.00024	2e-05	6e-05	5
20661	-0.00016	-0.00078	-0.00017	-0.00028	-0.001	-0.00059	-0.00023	-3e-05	5
20662	0.00038	0.00058	8e-05	2e-05	0.00019	4e-05	-6e-05	-3e-05	5
20663	-0.0002	0.00033	5e-05	-0.0001	5e-05	-0.00015	-0.00013	-1e-05	5
20664	-0.0002	0.00033	5e-05	-0.0001	5e-05	-0.00015	-0.00013	-1e-05	5
20665	-0.0002	0.00033	5e-05	-0.0001	5e-05	-0.00015	-0.00013	-1e-05	5
20666	-0.0002	0.00033	5e-05	-0.0001	5e-05	-0.00015	-0.00013	-1e-05	5
20667	-0.0002	0.00033	5e-05	-0.0001	5e-05	-0.00015	-0.00013	-1e-05	5
20668	-0.0002	0.00033	5e-05	-0.0001	5e-05	-0.00015	-0.00013	-1e-05	5
20669	-0.0002	0.00033	5e-05	-0.0001	5e-05	-0.00015	-0.00013	-1e-05	5
20670	-0.0002	0.00033	5e-05	-0.0001	5e-05	-0.00015	-0.00013	-1e-05	5
20671	-0.0002	0.00033	5e-05	-0.0001	5e-05	-0.00015	-0.00013	-1e-05	5
20672	-0.0002	0.00033	5e-05	-0.0001	5e-05	-0.00015	-0.00013	-1e-05	5
20673	-0.0002	0.00033	5e-05	-0.0001	5e-05	-0.00015	-0.00013	-1e-05	5
20674	0.00013	-0.00087	-0.00014	-2e-05	0.00049	0.00043	0.00029	7e-05	5
20675	9e-05	0.00018	0.00022	0.00024	-0.00029	-0.00027	-8e-05	-4e-05	5
20676	9e-05	0.00018	0.00022	0.00024	-0.00029	-0.00027	-8e-05	-4e-05	5
20677	9e-05	0.00018	0.00022	0.00024	-0.00029	-0.00027	-8e-05	-4e-05	5
20678	9e-05	0.00018	0.00022	0.00024	-0.00029	-0.00027	-8e-05	-4e-05	5
20679	9e-05	0.00018	0.00022	0.00024	-0.00029	-0.00027	-8e-05	-4e-05	5
20680	9e-05	0.00018	0.00022	0.00024	-0.00029	-0.00027	-8e-05	-4e-05	5
20681	9e-05	0.00018	0.00022	0.00024	-0.00029	-0.00027	-8e-05	-4e-05	5
20682	9e-05	0.00018	0.00022	0.00024	-0.00029	-0.00027	-8e-05	-4e-05	5
20683	9e-05	0.00018	0.00022	0.00024	-0.00029	-0.00027	-8e-05	-4e-05	5
20684	0.00038	0.0011	0.00011	0.00028	0.0004	0.00056	0.00032	0.00016	5
20685	0.00038	0.0011	0.00011	0.00028	0.0004	0.00056	0.00032	0.00016	5
20686	0.00038	0.0011	0.00011	0.00028	0.0004	0.00056	0.00032	0.00016	5
20688	0.00038	0.0011	0.00011	0.00028	0.0004	0.00056	0.00032	0.00016	5
20689	0.00038	0.0011	0.00011	0.00028	0.0004	0.00056	0.00032	0.00016	5
20690	0.00038	0.0011	0.00011	0.00028	0.0004	0.00056	0.00032	0.00016	5
20691	0.00038	0.0011	0.00011	0.00028	0.0004	0.00056	0.00032	0.00016	5
20692	0.00038	0.0011	0.00011	0.00028	0.0004	0.00056	0.00032	0.00016	5
20693	0.00038	0.0011	0.00011	0.00028	0.0004	0.00056	0.00032	0.00016	5
20694	0.00038	0.0011	0.00011	0.00028	0.0004	0.00056	0.00032	0.00016	5
20695	0.00038	0.0011	0.00011	0.00028	0.0004	0.00056	0.00032	0.00016	5
20696	0.00038	0.0011	0.00011	0.00028	0.0004	0.00056	0.00032	0.00016	5
20697	0.00038	0.0011	0.00011	0.00028	0.0004	0.00056	0.00032	0.00016	5
20698	0.00011	-0.00067	-0.00013	-0.00022	-4e-05	-0.00014	-0.0002	-5e-05	5
20699	-3e-05	8e-05	8e-05	0.00013	0.00028	-0.00019	-8e-05	-8e-05	5
20700	8e-05	-4e-05	6e-05	0	0.00023	-0.00017	-5e-05	-0.0001	5
20701	8e-05	-4e-05	6e-05	0	0.00023	-0.00017	-5e-05	-0.0001	5
20702	8e-05	-4e-05	6e-05	0	0.00023	-0.00017	-5e-05	-0.0001	5
20703	8e-05	-4e-05	6e-05	0	0.00023	-0.00017	-5e-05	-0.0001	5
20704	8e-05	-4e-05	6e-05	0	0.00023	-0.00017	-5e-05	-0.0001	5
20705	8e-05	-4e-05	6e-05	0	0.00023	-0.00017	-5e-05	-0.0001	5
20706	8e-05	-4e-05	6e-05	0	0.00023	-0.00017	-5e-05	-0.0001	5
20707	8e-05	-4e-05	6e-05	0	0.00023	-0.00017	-5e-05	-0.0001	5
20708	8e-05	-4e-05	6e-05	0	0.00023	-0.00017	-5e-05	-0.0001	5
20709	8e-05	-4e-05	6e-05	0	0.00023	-0.00017	-5e-05	-0.0001	5
20710	8e-05	-4e-05	6e-05	0	0.00023	-0.00017	-5e-05	-0.0001	5
20711	8e-05	-4e-05	6e-05	0	0.00023	-0.00017	-5e-05	-0.0001	5
20712	8e-05	-4e-05	6e-05	0	0.00023	-0.00017	-5e-05	-0.0001	5
20713	8e-05	-4e-05	6e-05	0	0.00023	-0.00017	-5e-05	-0.0001	5
20714	8e-05	-4e-05	6e-05	0	0.00023	-0.00017	-5e-05	-0.0001	5
20715	8e-05	-4e-05	6e-05	0	0.00023	-0.00017	-5e-05	-0.0001	5
20716	8e-05	-4e-05	6e-05	0	0.00023	-0.00017	-5e-05	-0.0001	5
20717	8e-05	-4e-05	6e-05	0	0.00023	-0.00017	-5e-05	-0.0001	5
20718	8e-05	-4e-05	6e-05	0	0.00023	-0.00017	-5e-05	-0.0001	5
20719	8e-05	-4e-05	6e-05	0	0.00023	-0.00017	-5e-05	-0.0001	5
20720	8e-05	-4e-05	6e-05	0	0.00023	-0.00017	-5e-05	-0.0001	5
20721	-0.00017	-0.00049	-0.00012	-0.00021	0.00035	0.00049	0.00023	3e-05	5
20722	7e-05	0.00055	0.00015	0.00017	-0.00021	-0.00058	-0.0003	-5e-05	5
20723	-5e-05	-0.00038	3e-05	8e-05	0.00042	0.00046	0.00023	7e-05	5
20724	-5e-05	-0.00038	3e-05	8e-05	0.00042	0.00046	0.00023	7e-05	5
20725	-5e-05	-0.00038	3e-05	8e-05	0.00042	0.00046	0.00023	7e-05	5
20726	-5e-05	-0.00038	3e-05	8e-05	0.00042	0.00046	0.00023	7e-05	5
20727	-5e-05	-0.00038	3e-05	8e-05	0.00042	0.00046	0.00023	7e-05	5
20728	-5e-05	-0.00038	3e-05	8e-05	0.00042	0.00046	0.00023	7e-05	5
20729	-5e-05	-0.00038	3e-05	8e-05	0.00042	0.00046	0.00023	7e-05	5
20730	-5e-05	-0.00038	3e-05	8e-05	0.00042	0.00046	0.00023	7e-05	5
20731	-5e-05	-0.00038	3e-05	8e-05	0.00042	0.00046	0.00023	7e-05	5
20732	-5e-05	-0.00038	3e-05	8e-05	0.00042	0.00046	0.00023	7e-05	5
20733	-5e-05	-0.00038	3e-05	8e-05	0.00042	0.00046	0.00023	7e-05	5
20734	-5e-05	-0.00038	3e-05	8e-05	0.00042	0.00046	0.00023	7e-05	5
20735	-0.00076	-0.00013	-0.0002	-0.00015	0.00025	9e-05	-4e-05	-0.00023	5
20736	-0.00076	-0.00013	-0.0002	-0.00015	0.00025	9e-05	-4e-05	-0.00023	5
20738	-0.00076	-0.00013	-0.0002	-0.00015	0.00025	9e-05	-4e-05	-0.00023	5
20739	-0.00076	-0.00013	-0.0002	-0.00015	0.00025	9e-05	-4e-05	-0.00023	5
20740	-0.00076	-0.00013	-0.0002	-0.00015	0.00025	9e-05	-4e-05	-0.00023	5
20741	-0.00076	-0.00013	-0.0002	-0.00015	0.00025	9e-05	-4e-05	-0.00023	5
20742	-0.00076	-0.00013	-0.0002	-0.00015	0.00025	9e-05	-4e-05	-0.00023	5
20743	3e-05	-6e-05	0	0.00026	0.00015	0.00019	0.0001	1e-05	5
20744	-0.0001	-0.00019	-2e-05	-0.00042	-0.00064	-0.00018	-2e-05	2e-05	5
20745	-0.0001	-0.00019	-2e-05	-0.00042	-0.00064	-0.00018	-2e-05	2e-05	5
20746	-0.0001	-0.00019	-2e-05	-0.00042	-0.00064	-0.00018	-2e-05	2e-05	5
20747	-0.0001	-0.00019	-2e-05	-0.00042	-0.00064	-0.00018	-2e-05	2e-05	5
20748	-0.0001	-0.00019	-2e-05	-0.00042	-0.00064	-0.00018	-2e-05	2e-05	5
20749	-0.0001	-0.00019	-2e-05	-0.00042	-0.00064	-0.00018	-2e-05	2e-05	5
20750	-0.0001	-0.00019	-2e-05	-0.00042	-0.00064	-0.00018	-2e-05	2e-05	5
20751	-0.0001	-0.00019	-2e-05	-0.00042	-0.00064	-0.00018	-2e-05	2e-05	5
20752	-0.0001	-0.00019	-2e-05	-0.00042	-0.00064	-0.00018	-2e-05	2e-05	5
20753	-0.0001	-0.00019	-2e-05	-0.00042	-0.00064	-0.00018	-2e-05	2e-05	5
20754	-0.0001	-0.00019	-2e-05	-0.00042	-0.00064	-0.00018	-2e-05	2e-05	5
20755	-0.0001	-0.00019	-2e-05	-0.00042	-0.00064	-0.00018	-2e-05	2e-05	5
20756	-0.0001	-0.00019	-2e-05	-0.00042	-0.00064	-0.00018	-2e-05	2e-05	5
20757	-0.0001	-0.00019	-2e-05	-0.00042	-0.00064	-0.00018	-2e-05	2e-05	5
20758	-0.0001	-0.00019	-2e-05	-0.00042	-0.00064	-0.00018	-2e-05	2e-05	5
20759	-0.0001	-0.00019	-2e-05	-0.00042	-0.00064	-0.00018	-2e-05	2e-05	5
20760	-0.0001	-0.00019	-2e-05	-0.00042	-0.00064	-0.00018	-2e-05	2e-05	5
20761	-0.0001	-0.00019	-2e-05	-0.00042	-0.00064	-0.00018	-2e-05	2e-05	5
20762	-0.0001	-0.00019	-2e-05	-0.00042	-0.00064	-0.00018	-2e-05	2e-05	5
20763	-0.0001	-0.00019	-2e-05	-0.00042	-0.00064	-0.00018	-2e-05	2e-05	5
20764	-0.0001	-0.00019	-2e-05	-0.00042	-0.00064	-0.00018	-2e-05	2e-05	5
20765	-0.0001	-0.00019	-2e-05	-0.00042	-0.00064	-0.00018	-2e-05	2e-05	5
20766	0.00039	0.00094	0.00016	-7e-05	0.00024	-0.00018	-0.00012	0	5
20767	0.00039	0.00094	0.00016	-7e-05	0.00024	-0.00018	-0.00012	0	5
20768	-7e-05	-0.00081	-0.00018	0.00019	0.00026	0.00013	6e-05	0	5
20769	-7e-05	-0.00081	-0.00018	0.00019	0.00026	0.00013	6e-05	0	5
20770	-7e-05	-0.00081	-0.00018	0.00019	0.00026	0.00013	6e-05	0	5
20771	-7e-05	-0.00081	-0.00018	0.00019	0.00026	0.00013	6e-05	0	5
20772	-7e-05	-0.00081	-0.00018	0.00019	0.00026	0.00013	6e-05	0	5
20773	-7e-05	-0.00081	-0.00018	0.00019	0.00026	0.00013	6e-05	0	5
20774	-7e-05	-0.00081	-0.00018	0.00019	0.00026	0.00013	6e-05	0	5
20775	-7e-05	-0.00081	-0.00018	0.00019	0.00026	0.00013	6e-05	0	5
20776	-7e-05	-0.00081	-0.00018	0.00019	0.00026	0.00013	6e-05	0	5
20777	-7e-05	-0.00081	-0.00018	0.00019	0.00026	0.00013	6e-05	0	5
20778	-7e-05	-0.00081	-0.00018	0.00019	0.00026	0.00013	6e-05	0	5
20779	-7e-05	-0.00081	-0.00018	0.00019	0.00026	0.00013	6e-05	0	5
20780	-7e-05	-0.00081	-0.00018	0.00019	0.00026	0.00013	6e-05	0	5
20781	0.00021	0.00023	-9e-05	-0.00037	-0.00047	-0.00015	-0.00013	-1e-05	5
20782	0.00046	0.00101	0.00019	-0.00013	-0.00036	-1e-05	0.00011	9e-05	5
20783	0.00046	0.00101	0.00019	-0.00013	-0.00036	-1e-05	0.00011	9e-05	5
20784	0.00046	0.00101	0.00019	-0.00013	-0.00036	-1e-05	0.00011	9e-05	5
20785	0.00046	0.00101	0.00019	-0.00013	-0.00036	-1e-05	0.00011	9e-05	5
20786	0.00046	0.00101	0.00019	-0.00013	-0.00036	-1e-05	0.00011	9e-05	5
20788	0.00046	0.00101	0.00019	-0.00013	-0.00036	-1e-05	0.00011	9e-05	5
20789	0.00046	0.00101	0.00019	-0.00013	-0.00036	-1e-05	0.00011	9e-05	5
20790	0.00046	0.00101	0.00019	-0.00013	-0.00036	-1e-05	0.00011	9e-05	5
20791	0.00046	0.00101	0.00019	-0.00013	-0.00036	-1e-05	0.00011	9e-05	5
20792	0.00046	0.00101	0.00019	-0.00013	-0.00036	-1e-05	0.00011	9e-05	5
20793	0.00046	0.00101	0.00019	-0.00013	-0.00036	-1e-05	0.00011	9e-05	5
20794	0.00046	0.00101	0.00019	-0.00013	-0.00036	-1e-05	0.00011	9e-05	5
20795	0.00046	0.00101	0.00019	-0.00013	-0.00036	-1e-05	0.00011	9e-05	5
20796	0.00046	0.00101	0.00019	-0.00013	-0.00036	-1e-05	0.00011	9e-05	5
20797	0.00046	0.00101	0.00019	-0.00013	-0.00036	-1e-05	0.00011	9e-05	5
20798	0.00046	0.00101	0.00019	-0.00013	-0.00036	-1e-05	0.00011	9e-05	5
20799	0.00046	0.00101	0.00019	-0.00013	-0.00036	-1e-05	0.00011	9e-05	5
20800	0.00046	0.00101	0.00019	-0.00013	-0.00036	-1e-05	0.00011	9e-05	5
20801	0.00046	0.00101	0.00019	-0.00013	-0.00036	-1e-05	0.00011	9e-05	5
20802	0.00046	0.00101	0.00019	-0.00013	-0.00036	-1e-05	0.00011	9e-05	5
20803	0.00046	0.00101	0.00019	-0.00013	-0.00036	-1e-05	0.00011	9e-05	5
20804	0.00026	0.00065	0.00014	0.00016	0.00052	0.00013	7e-05	7e-05	5
20805	-0.00032	-0.00088	-0.00017	3e-05	0.00028	-0.0003	-0.00025	-0.00015	5
20806	-0.00032	-0.00088	-0.00017	3e-05	0.00028	-0.0003	-0.00025	-0.00015	5
20807	-0.00032	-0.00088	-0.00017	3e-05	0.00028	-0.0003	-0.00025	-0.00015	5
20808	-0.00032	-0.00088	-0.00017	3e-05	0.00028	-0.0003	-0.00025	-0.00015	5
20809	-0.00032	-0.00088	-0.00017	3e-05	0.00028	-0.0003	-0.00025	-0.00015	5
20810	-0.00032	-0.00088	-0.00017	3e-05	0.00028	-0.0003	-0.00025	-0.00015	5
20811	-0.00032	-0.00088	-0.00017	3e-05	0.00028	-0.0003	-0.00025	-0.00015	5
20812	-0.00032	-0.00088	-0.00017	3e-05	0.00028	-0.0003	-0.00025	-0.00015	5
20813	-0.00032	-0.00088	-0.00017	3e-05	0.00028	-0.0003	-0.00025	-0.00015	5
20814	-0.00032	-0.00088	-0.00017	3e-05	0.00028	-0.0003	-0.00025	-0.00015	5
20815	-0.00032	-0.00088	-0.00017	3e-05	0.00028	-0.0003	-0.00025	-0.00015	5
20816	-0.00032	-0.00088	-0.00017	3e-05	0.00028	-0.0003	-0.00025	-0.00015	5
20817	-0.00032	-0.00088	-0.00017	3e-05	0.00028	-0.0003	-0.00025	-0.00015	5
20818	0.00025	0.00102	0.00019	2e-05	-0.0004	3e-05	2e-05	-1e-05	5
20819	-0.00037	-0.00084	-3e-05	0.00018	0.00033	-0.00016	-0.00014	-9e-05	5
20820	0.0004	0.00043	5e-05	-0.0001	0.0006	-0.00016	-7e-05	0	5
20821	0.0004	0.00043	5e-05	-0.0001	0.0006	-0.00016	-7e-05	0	5
20822	0.0004	0.00043	5e-05	-0.0001	0.0006	-0.00016	-7e-05	0	5
20823	0.0004	0.00043	5e-05	-0.0001	0.0006	-0.00016	-7e-05	0	5
20824	0.0004	0.00043	5e-05	-0.0001	0.0006	-0.00016	-7e-05	0	5
20825	0.0004	0.00043	5e-05	-0.0001	0.0006	-0.00016	-7e-05	0	5
20826	0.0004	0.00043	5e-05	-0.0001	0.0006	-0.00016	-7e-05	0	5
20827	0.0004	0.00043	5e-05	-0.0001	0.0006	-0.00016	-7e-05	0	5
20828	0.0004	0.00043	5e-05	-0.0001	0.0006	-0.00016	-7e-05	0	5
20829	0.0004	0.00043	5e-05	-0.0001	0.0006	-0.00016	-7e-05	0	5
20830	0.0004	0.00043	5e-05	-0.0001	0.0006	-0.00016	-7e-05	0	5
20831	0.0004	0.00043	5e-05	-0.0001	0.0006	-0.00016	-7e-05	0	5
20832	0.0004	0.00043	5e-05	-0.0001	0.0006	-0.00016	-7e-05	0	5
20833	0.0004	0.00043	5e-05	-0.0001	0.0006	-0.00016	-7e-05	0	5
20834	0.0004	0.00043	5e-05	-0.0001	0.0006	-0.00016	-7e-05	0	5
20835	0.0004	0.00043	5e-05	-0.0001	0.0006	-0.00016	-7e-05	0	5
20836	0.0004	0.00043	5e-05	-0.0001	0.0006	-0.00016	-7e-05	0	5
20838	0.0004	0.00043	5e-05	-0.0001	0.0006	-0.00016	-7e-05	0	5
20839	0.0004	0.00043	5e-05	-0.0001	0.0006	-0.00016	-7e-05	0	5
20840	0.0004	0.00043	5e-05	-0.0001	0.0006	-0.00016	-7e-05	0	5
20841	-4e-05	-0.00068	7e-05	0.0002	0.00039	8e-05	3e-05	0.00011	5
20842	0.00039	0.00043	-9e-05	-0.00012	-0.00026	-3e-05	-4e-05	0	5
20843	-0.00049	0.00012	-4e-05	1e-05	-0.00033	-9e-05	-6e-05	-0.00019	5
20844	-0.00049	0.00012	-4e-05	1e-05	-0.00033	-9e-05	-6e-05	-0.00019	5
20845	-0.00049	0.00012	-4e-05	1e-05	-0.00033	-9e-05	-6e-05	-0.00019	5
20846	-0.00049	0.00012	-4e-05	1e-05	-0.00033	-9e-05	-6e-05	-0.00019	5
20847	-0.00049	0.00012	-4e-05	1e-05	-0.00033	-9e-05	-6e-05	-0.00019	5
20848	-0.00049	0.00012	-4e-05	1e-05	-0.00033	-9e-05	-6e-05	-0.00019	5
20849	-0.00049	0.00012	-4e-05	1e-05	-0.00033	-9e-05	-6e-05	-0.00019	5
20850	-0.00049	0.00012	-4e-05	1e-05	-0.00033	-9e-05	-6e-05	-0.00019	5
20851	-0.00049	0.00012	-4e-05	1e-05	-0.00033	-9e-05	-6e-05	-0.00019	5
20852	-0.00049	0.00012	-4e-05	1e-05	-0.00033	-9e-05	-6e-05	-0.00019	5
20853	-0.00049	0.00012	-4e-05	1e-05	-0.00033	-9e-05	-6e-05	-0.00019	5
20854	-0.00049	0.00012	-4e-05	1e-05	-0.00033	-9e-05	-6e-05	-0.00019	5
20855	-0.00049	0.00012	-4e-05	1e-05	-0.00033	-9e-05	-6e-05	-0.00019	5
20856	-0.00049	0.00012	-4e-05	1e-05	-0.00033	-9e-05	-6e-05	-0.00019	5
20857	-0.00049	0.00012	-4e-05	1e-05	-0.00033	-9e-05	-6e-05	-0.00019	5
20858	-0.00049	0.00012	-4e-05	1e-05	-0.00033	-9e-05	-6e-05	-0.00019	5
20859	-0.00049	0.00012	-4e-05	1e-05	-0.00033	-9e-05	-6e-05	-0.00019	5
20860	-0.00049	0.00012	-4e-05	1e-05	-0.00033	-9e-05	-6e-05	-0.00019	5
20861	-0.00049	0.00012	-4e-05	1e-05	-0.00033	-9e-05	-6e-05	-0.00019	5
20862	-0.00049	0.00012	-4e-05	1e-05	-0.00033	-9e-05	-6e-05	-0.00019	5
20863	-2e-05	0.0006	0.00011	0.00062	0.00018	-0.00014	-0.00011	-3e-05	5
20864	-2e-05	0.0006	0.00011	0.00062	0.00018	-0.00014	-0.00011	-3e-05	5
20865	-0.00071	-0.00076	6e-05	4e-05	-0.00062	-9e-05	-0.00013	-0.00016	5
20866	-0.00071	-0.00076	6e-05	4e-05	-0.00062	-9e-05	-0.00013	-0.00016	5
20867	-0.00071	-0.00076	6e-05	4e-05	-0.00062	-9e-05	-0.00013	-0.00016	5
20868	-0.00071	-0.00076	6e-05	4e-05	-0.00062	-9e-05	-0.00013	-0.00016	5
20869	-0.00071	-0.00076	6e-05	4e-05	-0.00062	-9e-05	-0.00013	-0.00016	5
20870	-0.00071	-0.00076	6e-05	4e-05	-0.00062	-9e-05	-0.00013	-0.00016	5
20871	-0.00071	-0.00076	6e-05	4e-05	-0.00062	-9e-05	-0.00013	-0.00016	5
20872	-0.00071	-0.00076	6e-05	4e-05	-0.00062	-9e-05	-0.00013	-0.00016	5
20873	-0.00071	-0.00076	6e-05	4e-05	-0.00062	-9e-05	-0.00013	-0.00016	5
20874	-0.00071	-0.00076	6e-05	4e-05	-0.00062	-9e-05	-0.00013	-0.00016	5
20875	-0.00071	-0.00076	6e-05	4e-05	-0.00062	-9e-05	-0.00013	-0.00016	5
20876	-0.00071	-0.00076	6e-05	4e-05	-0.00062	-9e-05	-0.00013	-0.00016	5
20877	-0.00071	-0.00076	6e-05	4e-05	-0.00062	-9e-05	-0.00013	-0.00016	5
20878	-0.0005	-0.00082	-0.00019	1e-05	0.00034	0.0006	0.00034	0.00014	5
20879	-0.0005	-0.00082	-0.00019	1e-05	0.00034	0.0006	0.00034	0.00014	5
20880	0.00041	0.00127	0.00012	0.00015	0.00025	-0.00026	-0.00014	3e-05	5
20881	0.00041	0.00127	0.00012	0.00015	0.00025	-0.00026	-0.00014	3e-05	5
20882	0.00041	0.00127	0.00012	0.00015	0.00025	-0.00026	-0.00014	3e-05	5
20883	0.00041	0.00127	0.00012	0.00015	0.00025	-0.00026	-0.00014	3e-05	5
20884	0.00041	0.00127	0.00012	0.00015	0.00025	-0.00026	-0.00014	3e-05	5
20885	0.00041	0.00127	0.00012	0.00015	0.00025	-0.00026	-0.00014	3e-05	5
20886	0.00041	0.00127	0.00012	0.00015	0.00025	-0.00026	-0.00014	3e-05	5
20888	0.00041	0.00127	0.00012	0.00015	0.00025	-0.00026	-0.00014	3e-05	5
20889	0.00041	0.00127	0.00012	0.00015	0.00025	-0.00026	-0.00014	3e-05	5
20890	0.00041	0.00127	0.00012	0.00015	0.00025	-0.00026	-0.00014	3e-05	5
20891	0.00041	0.00127	0.00012	0.00015	0.00025	-0.00026	-0.00014	3e-05	5
20892	0.00041	0.00127	0.00012	0.00015	0.00025	-0.00026	-0.00014	3e-05	5
20893	0.00041	0.00127	0.00012	0.00015	0.00025	-0.00026	-0.00014	3e-05	5
20894	0.00041	0.00127	0.00012	0.00015	0.00025	-0.00026	-0.00014	3e-05	5
20895	0.00041	0.00127	0.00012	0.00015	0.00025	-0.00026	-0.00014	3e-05	5
20896	0.00041	0.00127	0.00012	0.00015	0.00025	-0.00026	-0.00014	3e-05	5
20897	0.00041	0.00127	0.00012	0.00015	0.00025	-0.00026	-0.00014	3e-05	5
20898	0.00041	0.00127	0.00012	0.00015	0.00025	-0.00026	-0.00014	3e-05	5
20899	0.00041	0.00127	0.00012	0.00015	0.00025	-0.00026	-0.00014	3e-05	5
20900	0.00041	0.00127	0.00012	0.00015	0.00025	-0.00026	-0.00014	3e-05	5
20901	0.00039	0.00127	0.00019	-0.00021	-0.00011	-6e-05	1e-05	3e-05	5
20902	-0.00022	-0.00125	-0.00015	7e-05	-0.00033	-0.00027	-7e-05	-7e-05	5
20903	0.00025	0.00053	-0.00015	-0.00025	-6e-05	0.00026	0.00015	0.00013	5
20904	0.00025	0.00053	-0.00015	-0.00025	-6e-05	0.00026	0.00015	0.00013	5
20905	0.00025	0.00053	-0.00015	-0.00025	-6e-05	0.00026	0.00015	0.00013	5
20906	0.00025	0.00053	-0.00015	-0.00025	-6e-05	0.00026	0.00015	0.00013	5
20907	0.00025	0.00053	-0.00015	-0.00025	-6e-05	0.00026	0.00015	0.00013	5
20908	0.00025	0.00053	-0.00015	-0.00025	-6e-05	0.00026	0.00015	0.00013	5
20909	0.00025	0.00053	-0.00015	-0.00025	-6e-05	0.00026	0.00015	0.00013	5
20910	0.00025	0.00053	-0.00015	-0.00025	-6e-05	0.00026	0.00015	0.00013	5
20911	0.00025	0.00053	-0.00015	-0.00025	-6e-05	0.00026	0.00015	0.00013	5
20912	0.00025	0.00053	-0.00015	-0.00025	-6e-05	0.00026	0.00015	0.00013	5
20913	0.00025	0.00053	-0.00015	-0.00025	-6e-05	0.00026	0.00015	0.00013	5
20914	0.00025	0.00053	-0.00015	-0.00025	-6e-05	0.00026	0.00015	0.00013	5
20915	0.00025	0.00053	-0.00015	-0.00025	-6e-05	0.00026	0.00015	0.00013	5
20916	0.00025	0.00053	-0.00015	-0.00025	-6e-05	0.00026	0.00015	0.00013	5
20917	0.00025	0.00053	-0.00015	-0.00025	-6e-05	0.00026	0.00015	0.00013	5
20918	0.00025	0.00053	-0.00015	-0.00025	-6e-05	0.00026	0.00015	0.00013	5
20919	0.00025	0.00053	-0.00015	-0.00025	-6e-05	0.00026	0.00015	0.00013	5
20920	0.00025	0.00053	-0.00015	-0.00025	-6e-05	0.00026	0.00015	0.00013	5
20921	0.00025	0.00053	-0.00015	-0.00025	-6e-05	0.00026	0.00015	0.00013	5
20922	0.00025	0.00053	-0.00015	-0.00025	-6e-05	0.00026	0.00015	0.00013	5
20923	-0.00051	-0.00022	6e-05	0.00043	0.00019	7e-05	-0.00016	-0.00026	5
20924	0.00035	0.00015	-0.00017	-0.00022	-8e-05	9e-05	2e-05	7e-05	5
20925	0.00043	-1e-05	-0.00027	-0.00033	-0.00027	-0.00011	-7e-05	-2e-05	5
20926	0.00043	-1e-05	-0.00027	-0.00033	-0.00027	-0.00011	-7e-05	-2e-05	5
20927	0.00043	-1e-05	-0.00027	-0.00033	-0.00027	-0.00011	-7e-05	-2e-05	5
20928	0.00043	-1e-05	-0.00027	-0.00033	-0.00027	-0.00011	-7e-05	-2e-05	5
20929	0.00043	-1e-05	-0.00027	-0.00033	-0.00027	-0.00011	-7e-05	-2e-05	5
20930	0.00043	-1e-05	-0.00027	-0.00033	-0.00027	-0.00011	-7e-05	-2e-05	5
20931	0.00043	-1e-05	-0.00027	-0.00033	-0.00027	-0.00011	-7e-05	-2e-05	5
20932	0.00043	-1e-05	-0.00027	-0.00033	-0.00027	-0.00011	-7e-05	-2e-05	5
20933	0.00043	-1e-05	-0.00027	-0.00033	-0.00027	-0.00011	-7e-05	-2e-05	5
20934	0.00043	-1e-05	-0.00027	-0.00033	-0.00027	-0.00011	-7e-05	-2e-05	5
20935	0.00043	-1e-05	-0.00027	-0.00033	-0.00027	-0.00011	-7e-05	-2e-05	5
20936	0.00043	-1e-05	-0.00027	-0.00033	-0.00027	-0.00011	-7e-05	-2e-05	5
20938	-0.0001	-3e-05	-0.00011	-0.00044	-0.00019	8e-05	0	0	5
20939	4e-05	-0.00024	0	2e-05	-6e-05	-0.00026	-2e-05	-8e-05	5
20940	-0.00014	0.0001	-2e-05	0.00021	0.00042	-0.00016	-4e-05	0	5
20941	-0.00014	0.0001	-2e-05	0.00021	0.00042	-0.00016	-4e-05	0	5
20942	-0.00014	0.0001	-2e-05	0.00021	0.00042	-0.00016	-4e-05	0	5
20943	-0.00014	0.0001	-2e-05	0.00021	0.00042	-0.00016	-4e-05	0	5
20944	-0.00014	0.0001	-2e-05	0.00021	0.00042	-0.00016	-4e-05	0	5
20945	-0.00014	0.0001	-2e-05	0.00021	0.00042	-0.00016	-4e-05	0	5
20946	-0.00014	0.0001	-2e-05	0.00021	0.00042	-0.00016	-4e-05	0	5
20947	-0.00014	0.0001	-2e-05	0.00021	0.00042	-0.00016	-4e-05	0	5
20948	-0.00014	0.0001	-2e-05	0.00021	0.00042	-0.00016	-4e-05	0	5
20949	-0.00014	0.0001	-2e-05	0.00021	0.00042	-0.00016	-4e-05	0	5
20950	-0.00014	0.0001	-2e-05	0.00021	0.00042	-0.00016	-4e-05	0	5
20951	-0.00014	0.0001	-2e-05	0.00021	0.00042	-0.00016	-4e-05	0	5
20952	-0.00014	0.0001	-2e-05	0.00021	0.00042	-0.00016	-4e-05	0	5
20953	-0.00014	0.0001	-2e-05	0.00021	0.00042	-0.00016	-4e-05	0	5
20954	-0.00014	0.0001	-2e-05	0.00021	0.00042	-0.00016	-4e-05	0	5
20955	-0.00014	0.0001	-2e-05	0.00021	0.00042	-0.00016	-4e-05	0	5
20956	-0.00014	0.0001	-2e-05	0.00021	0.00042	-0.00016	-4e-05	0	5
20957	-0.00014	0.0001	-2e-05	0.00021	0.00042	-0.00016	-4e-05	0	5
20958	-0.00014	0.0001	-2e-05	0.00021	0.00042	-0.00016	-4e-05	0	5
20959	-0.00014	0.0001	-2e-05	0.00021	0.00042	-0.00016	-4e-05	0	5
20960	-0.00014	0.0001	-2e-05	0.00021	0.00042	-0.00016	-4e-05	0	5
20961	0.00043	0.00083	5e-05	-0.0002	-0.00125	-8e-05	3e-05	3e-05	5
20962	-0.00087	-0.00111	-9e-05	0.00018	0.00075	-0.00035	-0.00022	-0.00019	5
20963	-0.00036	0.00078	0.00014	0.00017	0.00079	0.00073	0.00033	0.0001	5
20964	-0.00036	0.00078	0.00014	0.00017	0.00079	0.00073	0.00033	0.0001	5
20965	-0.00036	0.00078	0.00014	0.00017	0.00079	0.00073	0.00033	0.0001	5
20966	-0.00036	0.00078	0.00014	0.00017	0.00079	0.00073	0.00033	0.0001	5
20967	-0.00036	0.00078	0.00014	0.00017	0.00079	0.00073	0.00033	0.0001	5
20968	-0.00036	0.00078	0.00014	0.00017	0.00079	0.00073	0.00033	0.0001	5
20969	-0.00036	0.00078	0.00014	0.00017	0.00079	0.00073	0.00033	0.0001	5
20970	-0.00036	0.00078	0.00014	0.00017	0.00079	0.00073	0.00033	0.0001	5
20971	-0.00036	0.00078	0.00014	0.00017	0.00079	0.00073	0.00033	0.0001	5
20972	-0.00036	0.00078	0.00014	0.00017	0.00079	0.00073	0.00033	0.0001	5
20973	-0.00036	0.00078	0.00014	0.00017	0.00079	0.00073	0.00033	0.0001	5
20974	-0.00036	0.00078	0.00014	0.00017	0.00079	0.00073	0.00033	0.0001	5
20975	-0.00036	0.00078	0.00014	0.00017	0.00079	0.00073	0.00033	0.0001	5
20976	-0.00036	0.00078	0.00014	0.00017	0.00079	0.00073	0.00033	0.0001	5
20977	-0.00036	0.00078	0.00014	0.00017	0.00079	0.00073	0.00033	0.0001	5
20978	-0.00036	0.00078	0.00014	0.00017	0.00079	0.00073	0.00033	0.0001	5
20979	-0.00036	0.00078	0.00014	0.00017	0.00079	0.00073	0.00033	0.0001	5
20980	-0.00036	0.00078	0.00014	0.00017	0.00079	0.00073	0.00033	0.0001	5
20981	-0.00036	0.00078	0.00014	0.00017	0.00079	0.00073	0.00033	0.0001	5
20982	-0.00036	0.00078	0.00014	0.00017	0.00079	0.00073	0.00033	0.0001	5
20983	-0.00036	0.00078	0.00014	0.00017	0.00079	0.00073	0.00033	0.0001	5
20984	-0.00027	0.0006	-8e-05	-0.0003	-0.0004	-0.00047	-0.00026	-0.00026	5
20985	-0.00037	-0.00119	-5e-05	0.00018	-0.00013	1e-05	-0.0001	-0.00016	5
20986	-0.00037	-0.00119	-5e-05	0.00018	-0.00013	1e-05	-0.0001	-0.00016	5
20989	-0.00037	-0.00119	-5e-05	0.00018	-0.00013	1e-05	-0.0001	-0.00016	5
20990	-0.00037	-0.00119	-5e-05	0.00018	-0.00013	1e-05	-0.0001	-0.00016	5
20991	-0.00037	-0.00119	-5e-05	0.00018	-0.00013	1e-05	-0.0001	-0.00016	5
20992	-0.00037	-0.00119	-5e-05	0.00018	-0.00013	1e-05	-0.0001	-0.00016	5
20993	-0.00037	-0.00119	-5e-05	0.00018	-0.00013	1e-05	-0.0001	-0.00016	5
20994	-0.00037	-0.00119	-5e-05	0.00018	-0.00013	1e-05	-0.0001	-0.00016	5
20995	-0.00037	-0.00119	-5e-05	0.00018	-0.00013	1e-05	-0.0001	-0.00016	5
20996	-0.00037	-0.00119	-5e-05	0.00018	-0.00013	1e-05	-0.0001	-0.00016	5
20997	-0.00037	-0.00119	-5e-05	0.00018	-0.00013	1e-05	-0.0001	-0.00016	5
20998	-2e-05	-0.0006	-9e-05	-0.00014	-0.00025	-0.0001	-7e-05	0	5
20999	-2e-05	-0.0006	-9e-05	-0.00014	-0.00025	-0.0001	-7e-05	0	5
21000	-2e-05	-0.0006	-9e-05	-0.00014	-0.00025	-0.0001	-7e-05	0	5
21001	-2e-05	-0.0006	-9e-05	-0.00014	-0.00025	-0.0001	-7e-05	0	5
21002	-2e-05	-0.0006	-9e-05	-0.00014	-0.00025	-0.0001	-7e-05	0	5
21003	-2e-05	-0.0006	-9e-05	-0.00014	-0.00025	-0.0001	-7e-05	0	5
21004	-2e-05	-0.0006	-9e-05	-0.00014	-0.00025	-0.0001	-7e-05	0	5
21005	2e-05	-0.00061	-3e-05	0.00012	-0.00044	-1e-05	7e-05	6e-05	5
21006	2e-05	-0.00061	-3e-05	0.00012	-0.00044	-1e-05	7e-05	6e-05	5
21007	2e-05	-0.00061	-3e-05	0.00012	-0.00044	-1e-05	7e-05	6e-05	5
21008	2e-05	-0.00061	-3e-05	0.00012	-0.00044	-1e-05	7e-05	6e-05	5
21009	2e-05	-0.00061	-3e-05	0.00012	-0.00044	-1e-05	7e-05	6e-05	5
21010	2e-05	-0.00061	-3e-05	0.00012	-0.00044	-1e-05	7e-05	6e-05	5
21011	2e-05	-0.00061	-3e-05	0.00012	-0.00044	-1e-05	7e-05	6e-05	5
21012	2e-05	-0.00061	-3e-05	0.00012	-0.00044	-1e-05	7e-05	6e-05	5
21013	2e-05	-0.00061	-3e-05	0.00012	-0.00044	-1e-05	7e-05	6e-05	5
21014	2e-05	-0.00061	-3e-05	0.00012	-0.00044	-1e-05	7e-05	6e-05	5
21015	2e-05	-0.00061	-3e-05	0.00012	-0.00044	-1e-05	7e-05	6e-05	5
21016	2e-05	-0.00061	-3e-05	0.00012	-0.00044	-1e-05	7e-05	6e-05	5
21017	2e-05	-0.00061	-3e-05	0.00012	-0.00044	-1e-05	7e-05	6e-05	5
21018	2e-05	-0.00061	-3e-05	0.00012	-0.00044	-1e-05	7e-05	6e-05	5
21019	2e-05	-0.00061	-3e-05	0.00012	-0.00044	-1e-05	7e-05	6e-05	5
21020	2e-05	-0.00061	-3e-05	0.00012	-0.00044	-1e-05	7e-05	6e-05	5
21021	0.00031	5e-05	-0.00013	-0.00021	4e-05	-0.00023	-8e-05	9e-05	5
21022	-0.00011	0	5e-05	-4e-05	-0.00027	-2e-05	-4e-05	-3e-05	5
21023	-0.00011	0	5e-05	-4e-05	-0.00027	-2e-05	-4e-05	-3e-05	5
21024	-0.00011	0	5e-05	-4e-05	-0.00027	-2e-05	-4e-05	-3e-05	5
21025	-0.00011	0	5e-05	-4e-05	-0.00027	-2e-05	-4e-05	-3e-05	5
21026	-0.00011	0	5e-05	-4e-05	-0.00027	-2e-05	-4e-05	-3e-05	5
21027	0.00057	0.00011	6e-05	0.00031	0.0008	0.00032	0.00015	6e-05	5
21028	-9e-05	0.00013	0.00022	0.00016	0.00011	-4e-05	-6e-05	2e-05	5
21029	-9e-05	0.00013	0.00022	0.00016	0.00011	-4e-05	-6e-05	2e-05	5
21030	-9e-05	0.00013	0.00022	0.00016	0.00011	-4e-05	-6e-05	2e-05	5
21031	-9e-05	0.00013	0.00022	0.00016	0.00011	-4e-05	-6e-05	2e-05	5
21032	-9e-05	0.00013	0.00022	0.00016	0.00011	-4e-05	-6e-05	2e-05	5
21033	-9e-05	0.00013	0.00022	0.00016	0.00011	-4e-05	-6e-05	2e-05	5
21034	-9e-05	0.00013	0.00022	0.00016	0.00011	-4e-05	-6e-05	2e-05	5
21035	-9e-05	0.00013	0.00022	0.00016	0.00011	-4e-05	-6e-05	2e-05	5
21036	-9e-05	0.00013	0.00022	0.00016	0.00011	-4e-05	-6e-05	2e-05	5
21040	-9e-05	0.00013	0.00022	0.00016	0.00011	-4e-05	-6e-05	2e-05	5
21041	-9e-05	0.00013	0.00022	0.00016	0.00011	-4e-05	-6e-05	2e-05	5
21042	-9e-05	0.00013	0.00022	0.00016	0.00011	-4e-05	-6e-05	2e-05	5
21043	-9e-05	0.00013	0.00022	0.00016	0.00011	-4e-05	-6e-05	2e-05	5
21044	6e-05	0.00075	0.0002	0.0004	-0.0002	-7e-05	3e-05	2e-05	5
21045	0.00042	-0.0003	5e-05	9e-05	0.00055	0.00018	0.00012	0.00014	5
21046	0.00042	-0.0003	5e-05	9e-05	0.00055	0.00018	0.00012	0.00014	5
21047	0.00042	-0.0003	5e-05	9e-05	0.00055	0.00018	0.00012	0.00014	5
21048	0.00042	-0.0003	5e-05	9e-05	0.00055	0.00018	0.00012	0.00014	5
21049	0.00042	-0.0003	5e-05	9e-05	0.00055	0.00018	0.00012	0.00014	5
21050	0.00042	-0.0003	5e-05	9e-05	0.00055	0.00018	0.00012	0.00014	5
21051	0.00042	-0.0003	5e-05	9e-05	0.00055	0.00018	0.00012	0.00014	5
21052	0.00042	-0.0003	5e-05	9e-05	0.00055	0.00018	0.00012	0.00014	5
21053	0.00042	-0.0003	5e-05	9e-05	0.00055	0.00018	0.00012	0.00014	5
21054	0.00042	-0.0003	5e-05	9e-05	0.00055	0.00018	0.00012	0.00014	5
21055	0.00042	-0.0003	5e-05	9e-05	0.00055	0.00018	0.00012	0.00014	5
21056	0.00042	-0.0003	5e-05	9e-05	0.00055	0.00018	0.00012	0.00014	5
21057	0.00042	-0.0003	5e-05	9e-05	0.00055	0.00018	0.00012	0.00014	5
21058	0.00034	0.00025	-3e-05	0	0.00081	0.00046	0.00014	0.00011	5
21059	0.00034	0.00025	-3e-05	0	0.00081	0.00046	0.00014	0.00011	5
21060	0.00034	0.00025	-3e-05	0	0.00081	0.00046	0.00014	0.00011	5
21061	0.00034	0.00025	-3e-05	0	0.00081	0.00046	0.00014	0.00011	5
21062	0.00034	0.00025	-3e-05	0	0.00081	0.00046	0.00014	0.00011	5
21063	0.00034	0.00025	-3e-05	0	0.00081	0.00046	0.00014	0.00011	5
21064	0.00034	0.00025	-3e-05	0	0.00081	0.00046	0.00014	0.00011	5
21065	0.00047	-0.00024	2e-05	0.00013	0.00045	0.0003	0.00019	5e-05	5
21066	0.00047	-0.00024	2e-05	0.00013	0.00045	0.0003	0.00019	5e-05	5
21067	0.00047	-0.00024	2e-05	0.00013	0.00045	0.0003	0.00019	5e-05	5
21068	0.00047	-0.00024	2e-05	0.00013	0.00045	0.0003	0.00019	5e-05	5
21069	0.00047	-0.00024	2e-05	0.00013	0.00045	0.0003	0.00019	5e-05	5
21070	0.00047	-0.00024	2e-05	0.00013	0.00045	0.0003	0.00019	5e-05	5
21071	0.00047	-0.00024	2e-05	0.00013	0.00045	0.0003	0.00019	5e-05	5
21072	0.00047	-0.00024	2e-05	0.00013	0.00045	0.0003	0.00019	5e-05	5
21073	0.00047	-0.00024	2e-05	0.00013	0.00045	0.0003	0.00019	5e-05	5
21074	0.00047	-0.00024	2e-05	0.00013	0.00045	0.0003	0.00019	5e-05	5
21075	0.00047	-0.00024	2e-05	0.00013	0.00045	0.0003	0.00019	5e-05	5
21076	0.00047	-0.00024	2e-05	0.00013	0.00045	0.0003	0.00019	5e-05	5
21077	0.00047	-0.00024	2e-05	0.00013	0.00045	0.0003	0.00019	5e-05	5
21078	0.00047	-0.00024	2e-05	0.00013	0.00045	0.0003	0.00019	5e-05	5
21079	0.00047	-0.00024	2e-05	0.00013	0.00045	0.0003	0.00019	5e-05	5
21080	0.00047	-0.00024	2e-05	0.00013	0.00045	0.0003	0.00019	5e-05	5
21081	-0.00042	-0.00072	-0.00015	-3e-05	0.00035	0.00017	1e-05	-8e-05	5
21082	-0.00042	-0.00072	-0.00015	-3e-05	0.00035	0.00017	1e-05	-8e-05	5
21083	-0.00041	0.00043	-9e-05	-0.00038	-0.00038	-0.00028	-0.00018	-0.00015	5
21084	-0.00041	0.00043	-9e-05	-0.00038	-0.00038	-0.00028	-0.00018	-0.00015	5
21085	-0.00041	0.00043	-9e-05	-0.00038	-0.00038	-0.00028	-0.00018	-0.00015	5
21087	-0.00041	0.00043	-9e-05	-0.00038	-0.00038	-0.00028	-0.00018	-0.00015	5
21090	-0.00041	0.00043	-9e-05	-0.00038	-0.00038	-0.00028	-0.00018	-0.00015	5
21091	-0.00041	0.00043	-9e-05	-0.00038	-0.00038	-0.00028	-0.00018	-0.00015	5
21092	-0.00041	0.00043	-9e-05	-0.00038	-0.00038	-0.00028	-0.00018	-0.00015	5
21093	-0.00041	0.00043	-9e-05	-0.00038	-0.00038	-0.00028	-0.00018	-0.00015	5
21094	-0.00041	0.00043	-9e-05	-0.00038	-0.00038	-0.00028	-0.00018	-0.00015	5
21095	-0.00041	0.00043	-9e-05	-0.00038	-0.00038	-0.00028	-0.00018	-0.00015	5
21096	-0.00041	0.00043	-9e-05	-0.00038	-0.00038	-0.00028	-0.00018	-0.00015	5
21097	-0.00041	0.00043	-9e-05	-0.00038	-0.00038	-0.00028	-0.00018	-0.00015	5
21098	-0.00041	0.00043	-9e-05	-0.00038	-0.00038	-0.00028	-0.00018	-0.00015	5
21099	-0.00041	0.00043	-9e-05	-0.00038	-0.00038	-0.00028	-0.00018	-0.00015	5
21100	-0.00041	0.00043	-9e-05	-0.00038	-0.00038	-0.00028	-0.00018	-0.00015	5
21101	-0.00041	0.00043	-9e-05	-0.00038	-0.00038	-0.00028	-0.00018	-0.00015	5
21102	-0.00041	0.00043	-9e-05	-0.00038	-0.00038	-0.00028	-0.00018	-0.00015	5
21103	-0.00041	0.00043	-9e-05	-0.00038	-0.00038	-0.00028	-0.00018	-0.00015	5
21104	1e-05	-0.00023	8e-05	0.0001	-0.00014	0.00031	0.0002	6e-05	5
21105	-0.00059	0.00021	-7e-05	3e-05	-0.00034	7e-05	3e-05	1e-05	5
21106	-0.00059	0.00021	-7e-05	3e-05	-0.00034	7e-05	3e-05	1e-05	5
21107	-0.00059	0.00021	-7e-05	3e-05	-0.00034	7e-05	3e-05	1e-05	5
21108	-0.00059	0.00021	-7e-05	3e-05	-0.00034	7e-05	3e-05	1e-05	5
21109	-0.00059	0.00021	-7e-05	3e-05	-0.00034	7e-05	3e-05	1e-05	5
21110	-0.00059	0.00021	-7e-05	3e-05	-0.00034	7e-05	3e-05	1e-05	5
21111	-0.00059	0.00021	-7e-05	3e-05	-0.00034	7e-05	3e-05	1e-05	5
21112	-0.00059	0.00021	-7e-05	3e-05	-0.00034	7e-05	3e-05	1e-05	5
21113	-0.00059	0.00021	-7e-05	3e-05	-0.00034	7e-05	3e-05	1e-05	5
21114	-0.00059	0.00021	-7e-05	3e-05	-0.00034	7e-05	3e-05	1e-05	5
21115	-0.00059	0.00021	-7e-05	3e-05	-0.00034	7e-05	3e-05	1e-05	5
21116	-0.00059	0.00021	-7e-05	3e-05	-0.00034	7e-05	3e-05	1e-05	5
21117	-0.00059	0.00021	-7e-05	3e-05	-0.00034	7e-05	3e-05	1e-05	5
21118	-7e-05	-0.00018	-0.00025	-0.00051	-0.00044	-0.0003	-0.00015	-4e-05	5
21120	-7e-05	-0.00018	-0.00025	-0.00051	-0.00044	-0.0003	-0.00015	-4e-05	5
21121	-7e-05	-0.00018	-0.00025	-0.00051	-0.00044	-0.0003	-0.00015	-4e-05	5
21122	-7e-05	-0.00018	-0.00025	-0.00051	-0.00044	-0.0003	-0.00015	-4e-05	5
21123	-7e-05	-0.00018	-0.00025	-0.00051	-0.00044	-0.0003	-0.00015	-4e-05	5
21124	-7e-05	-0.00018	-0.00025	-0.00051	-0.00044	-0.0003	-0.00015	-4e-05	5
21125	-5e-05	0.00053	0.00022	9e-05	0.00039	3e-05	3e-05	1e-05	5
21126	-5e-05	0.00053	0.00022	9e-05	0.00039	3e-05	3e-05	1e-05	5
21127	-5e-05	0.00053	0.00022	9e-05	0.00039	3e-05	3e-05	1e-05	5
21128	-5e-05	0.00053	0.00022	9e-05	0.00039	3e-05	3e-05	1e-05	5
21129	-5e-05	0.00053	0.00022	9e-05	0.00039	3e-05	3e-05	1e-05	5
21130	-5e-05	0.00053	0.00022	9e-05	0.00039	3e-05	3e-05	1e-05	5
21131	-5e-05	0.00053	0.00022	9e-05	0.00039	3e-05	3e-05	1e-05	5
21132	-5e-05	0.00053	0.00022	9e-05	0.00039	3e-05	3e-05	1e-05	5
21133	-5e-05	0.00053	0.00022	9e-05	0.00039	3e-05	3e-05	1e-05	5
21134	-5e-05	0.00053	0.00022	9e-05	0.00039	3e-05	3e-05	1e-05	5
21135	-5e-05	0.00053	0.00022	9e-05	0.00039	3e-05	3e-05	1e-05	5
21137	-5e-05	0.00053	0.00022	9e-05	0.00039	3e-05	3e-05	1e-05	5
21140	-5e-05	0.00053	0.00022	9e-05	0.00039	3e-05	3e-05	1e-05	5
21141	-0.00017	2e-05	-0.00033	-0.00017	-0.00015	1e-05	-0.00012	-0.00013	5
21142	0.00012	0.00077	4e-05	0.00025	-0.0001	-0.00015	-3e-05	-6e-05	5
21143	7e-05	-0.00043	-0.00018	-0.00028	-0.00021	-0.00052	-0.00023	-7e-05	5
21144	7e-05	-0.00043	-0.00018	-0.00028	-0.00021	-0.00052	-0.00023	-7e-05	5
21145	7e-05	-0.00043	-0.00018	-0.00028	-0.00021	-0.00052	-0.00023	-7e-05	5
21146	7e-05	-0.00043	-0.00018	-0.00028	-0.00021	-0.00052	-0.00023	-7e-05	5
21147	7e-05	-0.00043	-0.00018	-0.00028	-0.00021	-0.00052	-0.00023	-7e-05	5
21148	7e-05	-0.00043	-0.00018	-0.00028	-0.00021	-0.00052	-0.00023	-7e-05	5
21149	7e-05	-0.00043	-0.00018	-0.00028	-0.00021	-0.00052	-0.00023	-7e-05	5
21150	7e-05	-0.00043	-0.00018	-0.00028	-0.00021	-0.00052	-0.00023	-7e-05	5
21151	7e-05	-0.00043	-0.00018	-0.00028	-0.00021	-0.00052	-0.00023	-7e-05	5
21152	7e-05	-0.00043	-0.00018	-0.00028	-0.00021	-0.00052	-0.00023	-7e-05	5
21153	7e-05	-0.00043	-0.00018	-0.00028	-0.00021	-0.00052	-0.00023	-7e-05	5
21154	7e-05	-0.00043	-0.00018	-0.00028	-0.00021	-0.00052	-0.00023	-7e-05	5
21155	7e-05	-0.00043	-0.00018	-0.00028	-0.00021	-0.00052	-0.00023	-7e-05	5
21156	7e-05	-0.00043	-0.00018	-0.00028	-0.00021	-0.00052	-0.00023	-7e-05	5
21157	7e-05	-0.00043	-0.00018	-0.00028	-0.00021	-0.00052	-0.00023	-7e-05	5
21158	7e-05	-0.00043	-0.00018	-0.00028	-0.00021	-0.00052	-0.00023	-7e-05	5
21159	7e-05	-0.00043	-0.00018	-0.00028	-0.00021	-0.00052	-0.00023	-7e-05	5
21160	7e-05	-0.00043	-0.00018	-0.00028	-0.00021	-0.00052	-0.00023	-7e-05	5
21161	7e-05	-0.00043	-0.00018	-0.00028	-0.00021	-0.00052	-0.00023	-7e-05	5
21162	7e-05	-0.00043	-0.00018	-0.00028	-0.00021	-0.00052	-0.00023	-7e-05	5
21163	7e-05	-0.00043	-0.00018	-0.00028	-0.00021	-0.00052	-0.00023	-7e-05	5
21164	-0.00054	-0.00128	-0.00026	8e-05	5e-05	-0.00019	-0.00026	-0.00016	5
21165	-0.00054	-0.00128	-0.00026	8e-05	5e-05	-0.00019	-0.00026	-0.00016	5
21166	0.00028	-0.00056	-2e-05	0.00027	0.00095	0.00017	4e-05	7e-05	5
21167	0.00028	-0.00056	-2e-05	0.00027	0.00095	0.00017	4e-05	7e-05	5
21168	0.00028	-0.00056	-2e-05	0.00027	0.00095	0.00017	4e-05	7e-05	5
21169	0.00028	-0.00056	-2e-05	0.00027	0.00095	0.00017	4e-05	7e-05	5
21170	0.00028	-0.00056	-2e-05	0.00027	0.00095	0.00017	4e-05	7e-05	5
21171	0.00028	-0.00056	-2e-05	0.00027	0.00095	0.00017	4e-05	7e-05	5
21172	0.00028	-0.00056	-2e-05	0.00027	0.00095	0.00017	4e-05	7e-05	5
21173	0.00028	-0.00056	-2e-05	0.00027	0.00095	0.00017	4e-05	7e-05	5
21174	0.00028	-0.00056	-2e-05	0.00027	0.00095	0.00017	4e-05	7e-05	5
21175	0.00028	-0.00056	-2e-05	0.00027	0.00095	0.00017	4e-05	7e-05	5
21176	0.00028	-0.00056	-2e-05	0.00027	0.00095	0.00017	4e-05	7e-05	5
21177	0.00028	-0.00056	-2e-05	0.00027	0.00095	0.00017	4e-05	7e-05	5
21178	-1e-05	0.00035	-7e-05	-0.00037	0.00027	-0.00015	-7e-05	-3e-05	5
21179	-1e-05	0.00035	-7e-05	-0.00037	0.00027	-0.00015	-7e-05	-3e-05	5
21180	-1e-05	0.00035	-7e-05	-0.00037	0.00027	-0.00015	-7e-05	-3e-05	5
21181	-1e-05	0.00035	-7e-05	-0.00037	0.00027	-0.00015	-7e-05	-3e-05	5
21182	-1e-05	0.00035	-7e-05	-0.00037	0.00027	-0.00015	-7e-05	-3e-05	5
21183	-1e-05	0.00035	-7e-05	-0.00037	0.00027	-0.00015	-7e-05	-3e-05	5
21184	-1e-05	0.00035	-7e-05	-0.00037	0.00027	-0.00015	-7e-05	-3e-05	5
21185	1e-05	0.00078	-6e-05	-9e-05	-0.00062	-0.00034	-0.00016	-5e-05	5
21187	1e-05	0.00078	-6e-05	-9e-05	-0.00062	-0.00034	-0.00016	-5e-05	5
21189	1e-05	0.00078	-6e-05	-9e-05	-0.00062	-0.00034	-0.00016	-5e-05	5
21190	1e-05	0.00078	-6e-05	-9e-05	-0.00062	-0.00034	-0.00016	-5e-05	5
21191	1e-05	0.00078	-6e-05	-9e-05	-0.00062	-0.00034	-0.00016	-5e-05	5
21192	1e-05	0.00078	-6e-05	-9e-05	-0.00062	-0.00034	-0.00016	-5e-05	5
21193	1e-05	0.00078	-6e-05	-9e-05	-0.00062	-0.00034	-0.00016	-5e-05	5
21194	1e-05	0.00078	-6e-05	-9e-05	-0.00062	-0.00034	-0.00016	-5e-05	5
21195	1e-05	0.00078	-6e-05	-9e-05	-0.00062	-0.00034	-0.00016	-5e-05	5
21196	1e-05	0.00078	-6e-05	-9e-05	-0.00062	-0.00034	-0.00016	-5e-05	5
21197	1e-05	0.00078	-6e-05	-9e-05	-0.00062	-0.00034	-0.00016	-5e-05	5
21198	1e-05	0.00078	-6e-05	-9e-05	-0.00062	-0.00034	-0.00016	-5e-05	5
21199	1e-05	0.00078	-6e-05	-9e-05	-0.00062	-0.00034	-0.00016	-5e-05	5
21200	1e-05	0.00078	-6e-05	-9e-05	-0.00062	-0.00034	-0.00016	-5e-05	5
21201	0	0.0006	0.00017	0.00022	-0.0005	9e-05	7e-05	6e-05	5
21202	0	0.0006	0.00017	0.00022	-0.0005	9e-05	7e-05	6e-05	5
21203	0.00036	0.00013	0.00012	0.00029	0.00062	0.00044	0.00011	0.00025	5
21204	0.00036	0.00013	0.00012	0.00029	0.00062	0.00044	0.00011	0.00025	5
21205	0.00036	0.00013	0.00012	0.00029	0.00062	0.00044	0.00011	0.00025	5
21206	0.00036	0.00013	0.00012	0.00029	0.00062	0.00044	0.00011	0.00025	5
21207	0.00036	0.00013	0.00012	0.00029	0.00062	0.00044	0.00011	0.00025	5
21208	0.00036	0.00013	0.00012	0.00029	0.00062	0.00044	0.00011	0.00025	5
21209	0.00036	0.00013	0.00012	0.00029	0.00062	0.00044	0.00011	0.00025	5
21210	0.00036	0.00013	0.00012	0.00029	0.00062	0.00044	0.00011	0.00025	5
21211	0.00036	0.00013	0.00012	0.00029	0.00062	0.00044	0.00011	0.00025	5
21212	0.00036	0.00013	0.00012	0.00029	0.00062	0.00044	0.00011	0.00025	5
21213	0.00036	0.00013	0.00012	0.00029	0.00062	0.00044	0.00011	0.00025	5
21214	0.00036	0.00013	0.00012	0.00029	0.00062	0.00044	0.00011	0.00025	5
21215	0.00036	0.00013	0.00012	0.00029	0.00062	0.00044	0.00011	0.00025	5
21216	0.00036	0.00013	0.00012	0.00029	0.00062	0.00044	0.00011	0.00025	5
21217	0.00036	0.00013	0.00012	0.00029	0.00062	0.00044	0.00011	0.00025	5
21218	0.00036	0.00013	0.00012	0.00029	0.00062	0.00044	0.00011	0.00025	5
21219	0.00036	0.00013	0.00012	0.00029	0.00062	0.00044	0.00011	0.00025	5
21220	0.00036	0.00013	0.00012	0.00029	0.00062	0.00044	0.00011	0.00025	5
21221	0.00036	0.00013	0.00012	0.00029	0.00062	0.00044	0.00011	0.00025	5
21222	0.00036	0.00013	0.00012	0.00029	0.00062	0.00044	0.00011	0.00025	5
21223	0.00024	0.00052	-0.0001	-0.00057	-0.0009	-0.0002	-7e-05	-6e-05	5
21224	0.0002	0.00069	0.00023	0.00036	0.0006	-0.00038	-0.0002	-2e-05	5
21225	0.00021	0.00046	-6e-05	-9e-05	0.00017	-0.00011	-4e-05	-0.00017	5
21226	0.00021	0.00046	-6e-05	-9e-05	0.00017	-0.00011	-4e-05	-0.00017	5
21227	0.00021	0.00046	-6e-05	-9e-05	0.00017	-0.00011	-4e-05	-0.00017	5
21228	0.00021	0.00046	-6e-05	-9e-05	0.00017	-0.00011	-4e-05	-0.00017	5
21229	0.00021	0.00046	-6e-05	-9e-05	0.00017	-0.00011	-4e-05	-0.00017	5
21230	0.00021	0.00046	-6e-05	-9e-05	0.00017	-0.00011	-4e-05	-0.00017	5
21231	0.00021	0.00046	-6e-05	-9e-05	0.00017	-0.00011	-4e-05	-0.00017	5
21232	0.00021	0.00046	-6e-05	-9e-05	0.00017	-0.00011	-4e-05	-0.00017	5
21233	0.00021	0.00046	-6e-05	-9e-05	0.00017	-0.00011	-4e-05	-0.00017	5
21234	0.00021	0.00046	-6e-05	-9e-05	0.00017	-0.00011	-4e-05	-0.00017	5
21235	0.00021	0.00046	-6e-05	-9e-05	0.00017	-0.00011	-4e-05	-0.00017	5
21237	0.00021	0.00046	-6e-05	-9e-05	0.00017	-0.00011	-4e-05	-0.00017	5
21240	0.0004	3e-05	0.00023	0.00021	0.00018	0.00088	0.00045	0.00019	5
21241	0.0004	3e-05	0.00023	0.00021	0.00018	0.00088	0.00045	0.00019	5
21242	0.0004	3e-05	0.00023	0.00021	0.00018	0.00088	0.00045	0.00019	5
21243	0.0004	3e-05	0.00023	0.00021	0.00018	0.00088	0.00045	0.00019	5
21244	0.0004	3e-05	0.00023	0.00021	0.00018	0.00088	0.00045	0.00019	5
21245	-0.00027	-0.00032	4e-05	8e-05	-3e-05	-4e-05	0	-8e-05	5
21246	-0.00027	-0.00032	4e-05	8e-05	-3e-05	-4e-05	0	-8e-05	5
21247	-0.00027	-0.00032	4e-05	8e-05	-3e-05	-4e-05	0	-8e-05	5
21248	-0.00027	-0.00032	4e-05	8e-05	-3e-05	-4e-05	0	-8e-05	5
21249	-0.00027	-0.00032	4e-05	8e-05	-3e-05	-4e-05	0	-8e-05	5
21250	-0.00027	-0.00032	4e-05	8e-05	-3e-05	-4e-05	0	-8e-05	5
21251	-0.00027	-0.00032	4e-05	8e-05	-3e-05	-4e-05	0	-8e-05	5
21252	-0.00027	-0.00032	4e-05	8e-05	-3e-05	-4e-05	0	-8e-05	5
21253	-0.00027	-0.00032	4e-05	8e-05	-3e-05	-4e-05	0	-8e-05	5
21254	-0.00027	-0.00032	4e-05	8e-05	-3e-05	-4e-05	0	-8e-05	5
21255	-0.00027	-0.00032	4e-05	8e-05	-3e-05	-4e-05	0	-8e-05	5
21256	-0.00027	-0.00032	4e-05	8e-05	-3e-05	-4e-05	0	-8e-05	5
21257	-0.00027	-0.00032	4e-05	8e-05	-3e-05	-4e-05	0	-8e-05	5
21258	-0.00027	-0.00032	4e-05	8e-05	-3e-05	-4e-05	0	-8e-05	5
21259	-0.00027	-0.00032	4e-05	8e-05	-3e-05	-4e-05	0	-8e-05	5
21260	-0.00027	-0.00032	4e-05	8e-05	-3e-05	-4e-05	0	-8e-05	5
21261	0.0009	0.00028	4e-05	-0.00031	-0.00022	-0.00029	-3e-05	9e-05	5
21262	0.0009	0.00028	4e-05	-0.00031	-0.00022	-0.00029	-3e-05	9e-05	5
21263	-0.00067	-0.00128	-0.00021	-0.00015	-0.00061	4e-05	2e-05	-9e-05	5
21264	-0.00067	-0.00128	-0.00021	-0.00015	-0.00061	4e-05	2e-05	-9e-05	5
21265	-0.00067	-0.00128	-0.00021	-0.00015	-0.00061	4e-05	2e-05	-9e-05	5
21266	-0.00067	-0.00128	-0.00021	-0.00015	-0.00061	4e-05	2e-05	-9e-05	5
21267	-0.00067	-0.00128	-0.00021	-0.00015	-0.00061	4e-05	2e-05	-9e-05	5
21268	-0.00067	-0.00128	-0.00021	-0.00015	-0.00061	4e-05	2e-05	-9e-05	5
21269	-0.00067	-0.00128	-0.00021	-0.00015	-0.00061	4e-05	2e-05	-9e-05	5
21270	-0.00067	-0.00128	-0.00021	-0.00015	-0.00061	4e-05	2e-05	-9e-05	5
21271	-0.00067	-0.00128	-0.00021	-0.00015	-0.00061	4e-05	2e-05	-9e-05	5
21272	-0.00067	-0.00128	-0.00021	-0.00015	-0.00061	4e-05	2e-05	-9e-05	5
21273	-0.00067	-0.00128	-0.00021	-0.00015	-0.00061	4e-05	2e-05	-9e-05	5
21274	-0.00067	-0.00128	-0.00021	-0.00015	-0.00061	4e-05	2e-05	-9e-05	5
21275	-0.00067	-0.00128	-0.00021	-0.00015	-0.00061	4e-05	2e-05	-9e-05	5
21276	-0.00067	-0.00128	-0.00021	-0.00015	-0.00061	4e-05	2e-05	-9e-05	5
21277	-0.00067	-0.00128	-0.00021	-0.00015	-0.00061	4e-05	2e-05	-9e-05	5
21278	-0.00067	-0.00128	-0.00021	-0.00015	-0.00061	4e-05	2e-05	-9e-05	5
21279	-0.00067	-0.00128	-0.00021	-0.00015	-0.00061	4e-05	2e-05	-9e-05	5
21280	-0.00067	-0.00128	-0.00021	-0.00015	-0.00061	4e-05	2e-05	-9e-05	5
21281	-0.00067	-0.00128	-0.00021	-0.00015	-0.00061	4e-05	2e-05	-9e-05	5
21282	-0.00067	-0.00128	-0.00021	-0.00015	-0.00061	4e-05	2e-05	-9e-05	5
21283	-0.00067	-0.00128	-0.00021	-0.00015	-0.00061	4e-05	2e-05	-9e-05	5
21284	-0.00062	0.00088	0.00015	0.00015	0.00044	9e-05	-8e-05	-7e-05	5
21285	-0.00062	0.00088	0.00015	0.00015	0.00044	9e-05	-8e-05	-7e-05	5
21286	-0.00062	0.00088	0.00015	0.00015	0.00044	9e-05	-8e-05	-7e-05	5
21288	-0.00062	0.00088	0.00015	0.00015	0.00044	9e-05	-8e-05	-7e-05	5
21289	-0.00062	0.00088	0.00015	0.00015	0.00044	9e-05	-8e-05	-7e-05	5
21290	0.00021	0.00074	-0.00013	-0.00023	-8e-05	-0.00017	-9e-05	-7e-05	5
21291	0.00021	0.00074	-0.00013	-0.00023	-8e-05	-0.00017	-9e-05	-7e-05	5
21292	0.00021	0.00074	-0.00013	-0.00023	-8e-05	-0.00017	-9e-05	-7e-05	5
21293	0.00021	0.00074	-0.00013	-0.00023	-8e-05	-0.00017	-9e-05	-7e-05	5
21294	0.00021	0.00074	-0.00013	-0.00023	-8e-05	-0.00017	-9e-05	-7e-05	5
21295	0.00021	0.00074	-0.00013	-0.00023	-8e-05	-0.00017	-9e-05	-7e-05	5
21296	0.00021	0.00074	-0.00013	-0.00023	-8e-05	-0.00017	-9e-05	-7e-05	5
21297	9e-05	0.00031	-1e-05	0.00012	0.00048	-4e-05	-2e-05	7e-05	5
21298	9e-05	0.00031	-1e-05	0.00012	0.00048	-4e-05	-2e-05	7e-05	5
21299	9e-05	0.00031	-1e-05	0.00012	0.00048	-4e-05	-2e-05	7e-05	5
21300	9e-05	0.00031	-1e-05	0.00012	0.00048	-4e-05	-2e-05	7e-05	5
21301	9e-05	0.00031	-1e-05	0.00012	0.00048	-4e-05	-2e-05	7e-05	5
21302	9e-05	0.00031	-1e-05	0.00012	0.00048	-4e-05	-2e-05	7e-05	5
21303	9e-05	0.00031	-1e-05	0.00012	0.00048	-4e-05	-2e-05	7e-05	5
21304	9e-05	0.00031	-1e-05	0.00012	0.00048	-4e-05	-2e-05	7e-05	5
21305	9e-05	0.00031	-1e-05	0.00012	0.00048	-4e-05	-2e-05	7e-05	5
21306	0	0.00046	0.00017	5e-05	-0.00036	0.00011	8e-05	0.00011	5
21307	0	0.00046	0.00017	5e-05	-0.00036	0.00011	8e-05	0.00011	5
21308	0	0.00046	0.00017	5e-05	-0.00036	0.00011	8e-05	0.00011	5
21309	0	0.00046	0.00017	5e-05	-0.00036	0.00011	8e-05	0.00011	5
21310	0	0.00046	0.00017	5e-05	-0.00036	0.00011	8e-05	0.00011	5
21311	0	0.00046	0.00017	5e-05	-0.00036	0.00011	8e-05	0.00011	5
21312	0	0.00046	0.00017	5e-05	-0.00036	0.00011	8e-05	0.00011	5
21313	0	0.00046	0.00017	5e-05	-0.00036	0.00011	8e-05	0.00011	5
21314	0	0.00046	0.00017	5e-05	-0.00036	0.00011	8e-05	0.00011	5
21315	0	0.00046	0.00017	5e-05	-0.00036	0.00011	8e-05	0.00011	5
21316	0	0.00046	0.00017	5e-05	-0.00036	0.00011	8e-05	0.00011	5
21317	0	0.00046	0.00017	5e-05	-0.00036	0.00011	8e-05	0.00011	5
21318	0	0.00046	0.00017	5e-05	-0.00036	0.00011	8e-05	0.00011	5
21319	0	0.00046	0.00017	5e-05	-0.00036	0.00011	8e-05	0.00011	5
21320	0	0.00046	0.00017	5e-05	-0.00036	0.00011	8e-05	0.00011	5
21321	-0.00045	-0.00015	9e-05	0.00013	-0.00055	-0.00016	-8e-05	-0.00011	5
21322	0.00054	0.0005	-6e-05	-0.00028	-0.00081	-0.00029	-0.00012	2e-05	5
21323	0.00018	-0.00025	-7e-05	2e-05	0.00036	0.00058	0.00041	0.0002	5
21324	0.00018	-0.00025	-7e-05	2e-05	0.00036	0.00058	0.00041	0.0002	5
21325	0.00018	-0.00025	-7e-05	2e-05	0.00036	0.00058	0.00041	0.0002	5
21326	0.00018	-0.00025	-7e-05	2e-05	0.00036	0.00058	0.00041	0.0002	5
21327	0.00018	-0.00025	-7e-05	2e-05	0.00036	0.00058	0.00041	0.0002	5
21328	0.00018	-0.00025	-7e-05	2e-05	0.00036	0.00058	0.00041	0.0002	5
21329	0.00018	-0.00025	-7e-05	2e-05	0.00036	0.00058	0.00041	0.0002	5
21330	0.00018	-0.00025	-7e-05	2e-05	0.00036	0.00058	0.00041	0.0002	5
21331	0.00018	-0.00025	-7e-05	2e-05	0.00036	0.00058	0.00041	0.0002	5
21332	0.00018	-0.00025	-7e-05	2e-05	0.00036	0.00058	0.00041	0.0002	5
21333	0.00018	-0.00025	-7e-05	2e-05	0.00036	0.00058	0.00041	0.0002	5
21334	0.00018	-0.00025	-7e-05	2e-05	0.00036	0.00058	0.00041	0.0002	5
21335	0.00018	-0.00025	-7e-05	2e-05	0.00036	0.00058	0.00041	0.0002	5
21336	0.00018	-0.00025	-7e-05	2e-05	0.00036	0.00058	0.00041	0.0002	5
21338	0.00018	-0.00025	-7e-05	2e-05	0.00036	0.00058	0.00041	0.0002	5
21339	0.00018	-0.00025	-7e-05	2e-05	0.00036	0.00058	0.00041	0.0002	5
21340	0.00018	-0.00025	-7e-05	2e-05	0.00036	0.00058	0.00041	0.0002	5
21341	0.00018	-0.00025	-7e-05	2e-05	0.00036	0.00058	0.00041	0.0002	5
21342	0.00018	-0.00025	-7e-05	2e-05	0.00036	0.00058	0.00041	0.0002	5
21343	0.00018	-0.00025	-7e-05	2e-05	0.00036	0.00058	0.00041	0.0002	5
21344	-0.0006	-5e-05	-0.00017	-0.00017	0.00023	-0.00019	-0.00011	-7e-05	5
21345	-0.0006	-5e-05	-0.00017	-0.00017	0.00023	-0.00019	-0.00011	-7e-05	5
21346	-0.0006	-5e-05	-0.00017	-0.00017	0.00023	-0.00019	-0.00011	-7e-05	5
21347	-0.0006	-5e-05	-0.00017	-0.00017	0.00023	-0.00019	-0.00011	-7e-05	5
21348	-0.0006	-5e-05	-0.00017	-0.00017	0.00023	-0.00019	-0.00011	-7e-05	5
21349	-0.0006	-5e-05	-0.00017	-0.00017	0.00023	-0.00019	-0.00011	-7e-05	5
21350	0.0001	-0.00059	-0.0002	-0.00017	0.00051	-0.00016	-0.00013	2e-05	5
21351	0.0001	-0.00059	-0.0002	-0.00017	0.00051	-0.00016	-0.00013	2e-05	5
21352	0.0001	-0.00059	-0.0002	-0.00017	0.00051	-0.00016	-0.00013	2e-05	5
21353	0.0001	-0.00059	-0.0002	-0.00017	0.00051	-0.00016	-0.00013	2e-05	5
21354	0.0001	-0.00059	-0.0002	-0.00017	0.00051	-0.00016	-0.00013	2e-05	5
21355	0.0001	-0.00059	-0.0002	-0.00017	0.00051	-0.00016	-0.00013	2e-05	5
21356	0.0001	-0.00059	-0.0002	-0.00017	0.00051	-0.00016	-0.00013	2e-05	5
21357	0.00035	-0.00057	-9e-05	-0.00011	0.00012	0.00034	0.00017	0.00013	5
21358	0.00035	-0.00057	-9e-05	-0.00011	0.00012	0.00034	0.00017	0.00013	5
21359	0.00035	-0.00057	-9e-05	-0.00011	0.00012	0.00034	0.00017	0.00013	5
21360	0.00035	-0.00057	-9e-05	-0.00011	0.00012	0.00034	0.00017	0.00013	5
21362	0.00035	-0.00057	-9e-05	-0.00011	0.00012	0.00034	0.00017	0.00013	5
21363	0.00035	-0.00057	-9e-05	-0.00011	0.00012	0.00034	0.00017	0.00013	5
21364	0.00035	-0.00057	-9e-05	-0.00011	0.00012	0.00034	0.00017	0.00013	5
21365	0.00035	-0.00057	-9e-05	-0.00011	0.00012	0.00034	0.00017	0.00013	5
21366	0.00027	0.00028	-3e-05	-0.00012	-0.00089	-0.00037	-0.00019	2e-05	5
21367	0.00027	0.00028	-3e-05	-0.00012	-0.00089	-0.00037	-0.00019	2e-05	5
21368	0.00027	0.00028	-3e-05	-0.00012	-0.00089	-0.00037	-0.00019	2e-05	5
21369	0.00027	0.00028	-3e-05	-0.00012	-0.00089	-0.00037	-0.00019	2e-05	5
21370	0.00027	0.00028	-3e-05	-0.00012	-0.00089	-0.00037	-0.00019	2e-05	5
21371	0.00027	0.00028	-3e-05	-0.00012	-0.00089	-0.00037	-0.00019	2e-05	5
21372	0.00027	0.00028	-3e-05	-0.00012	-0.00089	-0.00037	-0.00019	2e-05	5
21373	0.00027	0.00028	-3e-05	-0.00012	-0.00089	-0.00037	-0.00019	2e-05	5
21374	0.00027	0.00028	-3e-05	-0.00012	-0.00089	-0.00037	-0.00019	2e-05	5
21375	0.00027	0.00028	-3e-05	-0.00012	-0.00089	-0.00037	-0.00019	2e-05	5
21376	0.00027	0.00028	-3e-05	-0.00012	-0.00089	-0.00037	-0.00019	2e-05	5
21377	0.00027	0.00028	-3e-05	-0.00012	-0.00089	-0.00037	-0.00019	2e-05	5
21378	0.00027	0.00028	-3e-05	-0.00012	-0.00089	-0.00037	-0.00019	2e-05	5
21379	0.00027	0.00028	-3e-05	-0.00012	-0.00089	-0.00037	-0.00019	2e-05	5
21380	0.00027	0.00028	-3e-05	-0.00012	-0.00089	-0.00037	-0.00019	2e-05	5
21381	0.00023	-0.00028	2e-05	0.00026	-0.00048	8e-05	-8e-05	-8e-05	5
21382	-0.00046	-0.00012	0.00017	0.00013	0.00014	-7e-05	-3e-05	-0.00026	5
21383	0.0009	2e-05	-6e-05	4e-05	-1e-05	0.00026	0.00011	0.00041	5
21384	0.0009	2e-05	-6e-05	4e-05	-1e-05	0.00026	0.00011	0.00041	5
21385	0.0009	2e-05	-6e-05	4e-05	-1e-05	0.00026	0.00011	0.00041	5
21386	0.0009	2e-05	-6e-05	4e-05	-1e-05	0.00026	0.00011	0.00041	5
21388	0.0009	2e-05	-6e-05	4e-05	-1e-05	0.00026	0.00011	0.00041	5
21389	0.0009	2e-05	-6e-05	4e-05	-1e-05	0.00026	0.00011	0.00041	5
21390	0.0009	2e-05	-6e-05	4e-05	-1e-05	0.00026	0.00011	0.00041	5
21391	0.0009	2e-05	-6e-05	4e-05	-1e-05	0.00026	0.00011	0.00041	5
21392	0.0009	2e-05	-6e-05	4e-05	-1e-05	0.00026	0.00011	0.00041	5
21393	0.0009	2e-05	-6e-05	4e-05	-1e-05	0.00026	0.00011	0.00041	5
21394	0.0009	2e-05	-6e-05	4e-05	-1e-05	0.00026	0.00011	0.00041	5
21396	0.0009	2e-05	-6e-05	4e-05	-1e-05	0.00026	0.00011	0.00041	5
21397	0.0009	2e-05	-6e-05	4e-05	-1e-05	0.00026	0.00011	0.00041	5
21398	0.0009	2e-05	-6e-05	4e-05	-1e-05	0.00026	0.00011	0.00041	5
21399	0.0009	2e-05	-6e-05	4e-05	-1e-05	0.00026	0.00011	0.00041	5
21400	0.0009	2e-05	-6e-05	4e-05	-1e-05	0.00026	0.00011	0.00041	5
21401	0.0009	2e-05	-6e-05	4e-05	-1e-05	0.00026	0.00011	0.00041	5
21402	0.0009	2e-05	-6e-05	4e-05	-1e-05	0.00026	0.00011	0.00041	5
21403	0.00058	-1e-05	-2e-05	-0.00016	0.0004	0.00036	0.00019	0.00018	5
21404	-0.00029	0.00025	3e-05	0.0002	0.00012	-8e-05	0.00016	-7e-05	5
21405	-0.00067	0.00025	-5e-05	-4e-05	-0.00043	-0.00044	-0.00028	-0.00032	5
21406	-0.00067	0.00025	-5e-05	-4e-05	-0.00043	-0.00044	-0.00028	-0.00032	5
21407	-0.00067	0.00025	-5e-05	-4e-05	-0.00043	-0.00044	-0.00028	-0.00032	5
21408	-0.00067	0.00025	-5e-05	-4e-05	-0.00043	-0.00044	-0.00028	-0.00032	5
21409	-0.00067	0.00025	-5e-05	-4e-05	-0.00043	-0.00044	-0.00028	-0.00032	5
21410	-0.00067	0.00025	-5e-05	-4e-05	-0.00043	-0.00044	-0.00028	-0.00032	5
21411	-0.00067	0.00025	-5e-05	-4e-05	-0.00043	-0.00044	-0.00028	-0.00032	5
21412	-0.00067	0.00025	-5e-05	-4e-05	-0.00043	-0.00044	-0.00028	-0.00032	5
21413	-0.00067	0.00025	-5e-05	-4e-05	-0.00043	-0.00044	-0.00028	-0.00032	5
21414	-0.00067	0.00025	-5e-05	-4e-05	-0.00043	-0.00044	-0.00028	-0.00032	5
21415	-0.00067	0.00025	-5e-05	-4e-05	-0.00043	-0.00044	-0.00028	-0.00032	5
21416	-0.00067	0.00025	-5e-05	-4e-05	-0.00043	-0.00044	-0.00028	-0.00032	5
21417	-0.0005	-0.00082	-0.00022	-0.00013	0.0003	0.0002	-2e-05	-0.00018	5
21418	-0.0005	-0.00082	-0.00022	-0.00013	0.0003	0.0002	-2e-05	-0.00018	5
21419	-0.0005	-0.00082	-0.00022	-0.00013	0.0003	0.0002	-2e-05	-0.00018	5
21420	-0.0005	-0.00082	-0.00022	-0.00013	0.0003	0.0002	-2e-05	-0.00018	5
21421	-0.0005	-0.00082	-0.00022	-0.00013	0.0003	0.0002	-2e-05	-0.00018	5
21422	-0.0005	-0.00082	-0.00022	-0.00013	0.0003	0.0002	-2e-05	-0.00018	5
21423	-0.0005	-0.00082	-0.00022	-0.00013	0.0003	0.0002	-2e-05	-0.00018	5
21424	-0.0005	-0.00082	-0.00022	-0.00013	0.0003	0.0002	-2e-05	-0.00018	5
21425	-0.0005	-0.00082	-0.00022	-0.00013	0.0003	0.0002	-2e-05	-0.00018	5
21426	-0.00056	-0.00104	-0.00011	0.00018	-0.00032	-0.00018	-0.00018	-0.00027	5
21427	-0.00056	-0.00104	-0.00011	0.00018	-0.00032	-0.00018	-0.00018	-0.00027	5
21428	-0.00056	-0.00104	-0.00011	0.00018	-0.00032	-0.00018	-0.00018	-0.00027	5
21429	-0.00056	-0.00104	-0.00011	0.00018	-0.00032	-0.00018	-0.00018	-0.00027	5
21430	-0.00056	-0.00104	-0.00011	0.00018	-0.00032	-0.00018	-0.00018	-0.00027	5
21431	-0.00056	-0.00104	-0.00011	0.00018	-0.00032	-0.00018	-0.00018	-0.00027	5
21432	-0.00056	-0.00104	-0.00011	0.00018	-0.00032	-0.00018	-0.00018	-0.00027	5
21433	-0.00056	-0.00104	-0.00011	0.00018	-0.00032	-0.00018	-0.00018	-0.00027	5
21434	-0.00056	-0.00104	-0.00011	0.00018	-0.00032	-0.00018	-0.00018	-0.00027	5
21435	-0.00056	-0.00104	-0.00011	0.00018	-0.00032	-0.00018	-0.00018	-0.00027	5
21436	-0.00056	-0.00104	-0.00011	0.00018	-0.00032	-0.00018	-0.00018	-0.00027	5
21438	-0.00056	-0.00104	-0.00011	0.00018	-0.00032	-0.00018	-0.00018	-0.00027	5
21439	-0.00056	-0.00104	-0.00011	0.00018	-0.00032	-0.00018	-0.00018	-0.00027	5
21440	-0.00056	-0.00104	-0.00011	0.00018	-0.00032	-0.00018	-0.00018	-0.00027	5
21441	-0.00034	-0.00091	-6e-05	-0.00015	-0.00028	0.00013	3e-05	-8e-05	5
21442	-0.00034	-0.00091	-6e-05	-0.00015	-0.00028	0.00013	3e-05	-8e-05	5
21443	-0.00064	-0.00057	0.00023	0.00013	-0.00014	-0.00018	-6e-05	-4e-05	5
21444	-0.00064	-0.00057	0.00023	0.00013	-0.00014	-0.00018	-6e-05	-4e-05	5
21445	-0.00064	-0.00057	0.00023	0.00013	-0.00014	-0.00018	-6e-05	-4e-05	5
21446	-0.00064	-0.00057	0.00023	0.00013	-0.00014	-0.00018	-6e-05	-4e-05	5
21447	-0.00064	-0.00057	0.00023	0.00013	-0.00014	-0.00018	-6e-05	-4e-05	5
21448	-0.00064	-0.00057	0.00023	0.00013	-0.00014	-0.00018	-6e-05	-4e-05	5
21449	-0.00064	-0.00057	0.00023	0.00013	-0.00014	-0.00018	-6e-05	-4e-05	5
21450	-0.00064	-0.00057	0.00023	0.00013	-0.00014	-0.00018	-6e-05	-4e-05	5
21451	-0.00064	-0.00057	0.00023	0.00013	-0.00014	-0.00018	-6e-05	-4e-05	5
21452	-0.00064	-0.00057	0.00023	0.00013	-0.00014	-0.00018	-6e-05	-4e-05	5
21453	-0.00064	-0.00057	0.00023	0.00013	-0.00014	-0.00018	-6e-05	-4e-05	5
21454	-0.00064	-0.00057	0.00023	0.00013	-0.00014	-0.00018	-6e-05	-4e-05	5
21455	-0.00064	-0.00057	0.00023	0.00013	-0.00014	-0.00018	-6e-05	-4e-05	5
21456	-0.00064	-0.00057	0.00023	0.00013	-0.00014	-0.00018	-6e-05	-4e-05	5
21457	-0.00064	-0.00057	0.00023	0.00013	-0.00014	-0.00018	-6e-05	-4e-05	5
21458	-0.00064	-0.00057	0.00023	0.00013	-0.00014	-0.00018	-6e-05	-4e-05	5
21459	-0.00064	-0.00057	0.00023	0.00013	-0.00014	-0.00018	-6e-05	-4e-05	5
21460	-0.00064	-0.00057	0.00023	0.00013	-0.00014	-0.00018	-6e-05	-4e-05	5
21461	-0.00064	-0.00057	0.00023	0.00013	-0.00014	-0.00018	-6e-05	-4e-05	5
21462	-0.00064	-0.00057	0.00023	0.00013	-0.00014	-0.00018	-6e-05	-4e-05	5
21463	0.00068	0.00041	4e-05	7e-05	-2e-05	0.00022	5e-05	0	5
21464	0.00054	0.00073	-0.00018	-0.00023	-0.0004	-0.00034	-0.0001	8e-05	5
21465	0.00048	0.0011	8e-05	-3e-05	0	-4e-05	0.00014	-4e-05	5
21466	0.00048	0.0011	8e-05	-3e-05	0	-4e-05	0.00014	-4e-05	5
21467	0.00048	0.0011	8e-05	-3e-05	0	-4e-05	0.00014	-4e-05	5
21468	0.00048	0.0011	8e-05	-3e-05	0	-4e-05	0.00014	-4e-05	5
21469	0.00048	0.0011	8e-05	-3e-05	0	-4e-05	0.00014	-4e-05	5
21470	0.00048	0.0011	8e-05	-3e-05	0	-4e-05	0.00014	-4e-05	5
21471	0.00048	0.0011	8e-05	-3e-05	0	-4e-05	0.00014	-4e-05	5
21472	0.00048	0.0011	8e-05	-3e-05	0	-4e-05	0.00014	-4e-05	5
21473	0.00048	0.0011	8e-05	-3e-05	0	-4e-05	0.00014	-4e-05	5
21474	0.00048	0.0011	8e-05	-3e-05	0	-4e-05	0.00014	-4e-05	5
21475	0.00048	0.0011	8e-05	-3e-05	0	-4e-05	0.00014	-4e-05	5
21476	0.00048	0.0011	8e-05	-3e-05	0	-4e-05	0.00014	-4e-05	5
21477	-5e-05	0.00011	-4e-05	-0.00042	0.00026	-0.00013	-0.00016	-3e-05	5
21478	-5e-05	0.00011	-4e-05	-0.00042	0.00026	-0.00013	-0.00016	-3e-05	5
21479	-5e-05	0.00011	-4e-05	-0.00042	0.00026	-0.00013	-0.00016	-3e-05	5
21480	-5e-05	0.00011	-4e-05	-0.00042	0.00026	-0.00013	-0.00016	-3e-05	5
21481	-5e-05	0.00011	-4e-05	-0.00042	0.00026	-0.00013	-0.00016	-3e-05	5
21482	-5e-05	0.00011	-4e-05	-0.00042	0.00026	-0.00013	-0.00016	-3e-05	5
21483	-5e-05	0.00011	-4e-05	-0.00042	0.00026	-0.00013	-0.00016	-3e-05	5
21484	-5e-05	0.00011	-4e-05	-0.00042	0.00026	-0.00013	-0.00016	-3e-05	5
21485	-5e-05	0.00011	-4e-05	-0.00042	0.00026	-0.00013	-0.00016	-3e-05	5
21487	0.00026	0.00051	-5e-05	1e-05	0.0007	0.00014	0	-2e-05	5
21490	0.00026	0.00051	-5e-05	1e-05	0.0007	0.00014	0	-2e-05	5
21491	0.00026	0.00051	-5e-05	1e-05	0.0007	0.00014	0	-2e-05	5
21492	0.00026	0.00051	-5e-05	1e-05	0.0007	0.00014	0	-2e-05	5
21493	0.00026	0.00051	-5e-05	1e-05	0.0007	0.00014	0	-2e-05	5
21494	0.00026	0.00051	-5e-05	1e-05	0.0007	0.00014	0	-2e-05	5
21495	0.00026	0.00051	-5e-05	1e-05	0.0007	0.00014	0	-2e-05	5
21496	0.00026	0.00051	-5e-05	1e-05	0.0007	0.00014	0	-2e-05	5
21497	0.00026	0.00051	-5e-05	1e-05	0.0007	0.00014	0	-2e-05	5
21498	0.00026	0.00051	-5e-05	1e-05	0.0007	0.00014	0	-2e-05	5
21499	0.00026	0.00051	-5e-05	1e-05	0.0007	0.00014	0	-2e-05	5
21500	0.00026	0.00051	-5e-05	1e-05	0.0007	0.00014	0	-2e-05	5
21501	-0.00024	0.00037	-8e-05	-0.00033	-2e-05	-0.00013	1e-05	-0.00011	5
21502	-0.00011	-0.00023	-0.00015	-0.00032	0.0002	8e-05	-2e-05	-5e-05	5
21503	-0.00046	-0.00033	-0.00014	-0.00015	-0.001	-0.00025	-0.0002	-0.00013	5
21504	-0.00046	-0.00033	-0.00014	-0.00015	-0.001	-0.00025	-0.0002	-0.00013	5
21505	-0.00046	-0.00033	-0.00014	-0.00015	-0.001	-0.00025	-0.0002	-0.00013	5
21506	-0.00046	-0.00033	-0.00014	-0.00015	-0.001	-0.00025	-0.0002	-0.00013	5
21507	-0.00046	-0.00033	-0.00014	-0.00015	-0.001	-0.00025	-0.0002	-0.00013	5
21508	-0.00046	-0.00033	-0.00014	-0.00015	-0.001	-0.00025	-0.0002	-0.00013	5
21509	-0.00046	-0.00033	-0.00014	-0.00015	-0.001	-0.00025	-0.0002	-0.00013	5
21511	-0.00046	-0.00033	-0.00014	-0.00015	-0.001	-0.00025	-0.0002	-0.00013	5
21512	-0.00046	-0.00033	-0.00014	-0.00015	-0.001	-0.00025	-0.0002	-0.00013	5
21513	-0.00046	-0.00033	-0.00014	-0.00015	-0.001	-0.00025	-0.0002	-0.00013	5
21514	-0.00046	-0.00033	-0.00014	-0.00015	-0.001	-0.00025	-0.0002	-0.00013	5
21515	-0.00046	-0.00033	-0.00014	-0.00015	-0.001	-0.00025	-0.0002	-0.00013	5
21516	-0.00046	-0.00033	-0.00014	-0.00015	-0.001	-0.00025	-0.0002	-0.00013	5
21517	-0.00046	-0.00033	-0.00014	-0.00015	-0.001	-0.00025	-0.0002	-0.00013	5
21518	-0.00046	-0.00033	-0.00014	-0.00015	-0.001	-0.00025	-0.0002	-0.00013	5
21519	-0.00046	-0.00033	-0.00014	-0.00015	-0.001	-0.00025	-0.0002	-0.00013	5
21520	-0.00046	-0.00033	-0.00014	-0.00015	-0.001	-0.00025	-0.0002	-0.00013	5
21521	-0.00046	-0.00033	-0.00014	-0.00015	-0.001	-0.00025	-0.0002	-0.00013	5
21522	-0.00046	-0.00033	-0.00014	-0.00015	-0.001	-0.00025	-0.0002	-0.00013	5
21523	0.0005	7e-05	0.00015	-3e-05	0.00026	0.00017	0.00016	0.00013	5
21524	0.00019	-0.00013	-5e-05	7e-05	-0.00032	-8e-05	0	3e-05	5
21525	-0.00092	-0.0001	-0.00016	-7e-05	-8e-05	8e-05	2e-05	-0.00013	5
21526	-0.00092	-0.0001	-0.00016	-7e-05	-8e-05	8e-05	2e-05	-0.00013	5
21527	-0.00092	-0.0001	-0.00016	-7e-05	-8e-05	8e-05	2e-05	-0.00013	5
21528	-0.00092	-0.0001	-0.00016	-7e-05	-8e-05	8e-05	2e-05	-0.00013	5
21529	-0.00092	-0.0001	-0.00016	-7e-05	-8e-05	8e-05	2e-05	-0.00013	5
21530	-0.00092	-0.0001	-0.00016	-7e-05	-8e-05	8e-05	2e-05	-0.00013	5
21531	-0.00092	-0.0001	-0.00016	-7e-05	-8e-05	8e-05	2e-05	-0.00013	5
21532	-0.00092	-0.0001	-0.00016	-7e-05	-8e-05	8e-05	2e-05	-0.00013	5
21533	-0.00092	-0.0001	-0.00016	-7e-05	-8e-05	8e-05	2e-05	-0.00013	5
21534	-0.00092	-0.0001	-0.00016	-7e-05	-8e-05	8e-05	2e-05	-0.00013	5
21535	-0.00092	-0.0001	-0.00016	-7e-05	-8e-05	8e-05	2e-05	-0.00013	5
21536	-0.00092	-0.0001	-0.00016	-7e-05	-8e-05	8e-05	2e-05	-0.00013	5
21539	-0.00092	-0.00053	-0.00012	0.00023	0.00088	0.00042	0.00016	-0.00034	5
21540	-0.00092	-0.00053	-0.00012	0.00023	0.00088	0.00042	0.00016	-0.00034	5
21541	-0.00092	-0.00053	-0.00012	0.00023	0.00088	0.00042	0.00016	-0.00034	5
21542	-0.00092	-0.00053	-0.00012	0.00023	0.00088	0.00042	0.00016	-0.00034	5
21543	-0.00092	-0.00053	-0.00012	0.00023	0.00088	0.00042	0.00016	-0.00034	5
21544	-0.00092	-0.00053	-0.00012	0.00023	0.00088	0.00042	0.00016	-0.00034	5
21545	-0.00092	-0.00053	-0.00012	0.00023	0.00088	0.00042	0.00016	-0.00034	5
21546	0.00036	0.00063	0.0001	-0.00013	-1e-05	0.00023	0.00027	0.00013	5
21547	0.00036	0.00063	0.0001	-0.00013	-1e-05	0.00023	0.00027	0.00013	5
21548	0.00036	0.00063	0.0001	-0.00013	-1e-05	0.00023	0.00027	0.00013	5
21549	0.00036	0.00063	0.0001	-0.00013	-1e-05	0.00023	0.00027	0.00013	5
21550	0.00036	0.00063	0.0001	-0.00013	-1e-05	0.00023	0.00027	0.00013	5
21551	0.00036	0.00063	0.0001	-0.00013	-1e-05	0.00023	0.00027	0.00013	5
21552	0.00036	0.00063	0.0001	-0.00013	-1e-05	0.00023	0.00027	0.00013	5
21553	0.00036	0.00063	0.0001	-0.00013	-1e-05	0.00023	0.00027	0.00013	5
21554	0.00036	0.00063	0.0001	-0.00013	-1e-05	0.00023	0.00027	0.00013	5
21555	0.00036	0.00063	0.0001	-0.00013	-1e-05	0.00023	0.00027	0.00013	5
21556	0.00036	0.00063	0.0001	-0.00013	-1e-05	0.00023	0.00027	0.00013	5
21557	0.00036	0.00063	0.0001	-0.00013	-1e-05	0.00023	0.00027	0.00013	5
21558	0.00036	0.00063	0.0001	-0.00013	-1e-05	0.00023	0.00027	0.00013	5
21559	0.00036	0.00063	0.0001	-0.00013	-1e-05	0.00023	0.00027	0.00013	5
21560	0.00036	0.00063	0.0001	-0.00013	-1e-05	0.00023	0.00027	0.00013	5
21561	-0.0005	0.00021	-0.00015	7e-05	-0.00028	-0.00018	-8e-05	-0.00024	5
21562	-0.00021	-0.0007	5e-05	0.00027	-0.00016	1e-05	6e-05	-0.00011	5
21563	7e-05	0	-7e-05	-0.00034	0.00088	3e-05	-4e-05	5e-05	5
21564	7e-05	0	-7e-05	-0.00034	0.00088	3e-05	-4e-05	5e-05	5
21565	7e-05	0	-7e-05	-0.00034	0.00088	3e-05	-4e-05	5e-05	5
21566	7e-05	0	-7e-05	-0.00034	0.00088	3e-05	-4e-05	5e-05	5
21567	7e-05	0	-7e-05	-0.00034	0.00088	3e-05	-4e-05	5e-05	5
21568	7e-05	0	-7e-05	-0.00034	0.00088	3e-05	-4e-05	5e-05	5
21569	7e-05	0	-7e-05	-0.00034	0.00088	3e-05	-4e-05	5e-05	5
21570	7e-05	0	-7e-05	-0.00034	0.00088	3e-05	-4e-05	5e-05	5
21571	7e-05	0	-7e-05	-0.00034	0.00088	3e-05	-4e-05	5e-05	5
21572	7e-05	0	-7e-05	-0.00034	0.00088	3e-05	-4e-05	5e-05	5
21573	7e-05	0	-7e-05	-0.00034	0.00088	3e-05	-4e-05	5e-05	5
21574	7e-05	0	-7e-05	-0.00034	0.00088	3e-05	-4e-05	5e-05	5
21575	7e-05	0	-7e-05	-0.00034	0.00088	3e-05	-4e-05	5e-05	5
21577	7e-05	0	-7e-05	-0.00034	0.00088	3e-05	-4e-05	5e-05	5
21578	7e-05	0	-7e-05	-0.00034	0.00088	3e-05	-4e-05	5e-05	5
21579	7e-05	0	-7e-05	-0.00034	0.00088	3e-05	-4e-05	5e-05	5
21580	7e-05	0	-7e-05	-0.00034	0.00088	3e-05	-4e-05	5e-05	5
21581	7e-05	0	-7e-05	-0.00034	0.00088	3e-05	-4e-05	5e-05	5
21582	7e-05	0	-7e-05	-0.00034	0.00088	3e-05	-4e-05	5e-05	5
21583	7e-05	0	-7e-05	-0.00034	0.00088	3e-05	-4e-05	5e-05	5
21584	7e-05	0	-7e-05	-0.00034	0.00088	3e-05	-4e-05	5e-05	5
21585	-0.00037	-0.00055	0.00017	0	8e-05	4e-05	0.0001	0.00013	5
21586	0.00043	0.00025	-0.00017	-1e-05	6e-05	5e-05	-8e-05	0.00015	5
21589	0.00043	0.00025	-0.00017	-1e-05	6e-05	5e-05	-8e-05	0.00015	5
21590	0.00043	0.00025	-0.00017	-1e-05	6e-05	5e-05	-8e-05	0.00015	5
21591	0.00043	0.00025	-0.00017	-1e-05	6e-05	5e-05	-8e-05	0.00015	5
21592	0.00043	0.00025	-0.00017	-1e-05	6e-05	5e-05	-8e-05	0.00015	5
21593	0.00043	0.00025	-0.00017	-1e-05	6e-05	5e-05	-8e-05	0.00015	5
21594	0.00043	0.00025	-0.00017	-1e-05	6e-05	5e-05	-8e-05	0.00015	5
21595	0.00043	0.00025	-0.00017	-1e-05	6e-05	5e-05	-8e-05	0.00015	5
21596	0.00043	0.00025	-0.00017	-1e-05	6e-05	5e-05	-8e-05	0.00015	5
21597	0.00043	0.00025	-0.00017	-1e-05	6e-05	5e-05	-8e-05	0.00015	5
21598	0.00039	0.0004	0.00011	-0.00025	-0.00066	-0.0001	0.00019	0.00036	5
21599	0.00039	0.0004	0.00011	-0.00025	-0.00066	-0.0001	0.00019	0.00036	5
21600	0.00039	0.0004	0.00011	-0.00025	-0.00066	-0.0001	0.00019	0.00036	5
21601	0.00039	0.0004	0.00011	-0.00025	-0.00066	-0.0001	0.00019	0.00036	5
21602	0.00039	0.0004	0.00011	-0.00025	-0.00066	-0.0001	0.00019	0.00036	5
21603	0.00039	0.0004	0.00011	-0.00025	-0.00066	-0.0001	0.00019	0.00036	5
21604	0.00039	0.0004	0.00011	-0.00025	-0.00066	-0.0001	0.00019	0.00036	5
21605	0.00039	0.0004	0.00011	-0.00025	-0.00066	-0.0001	0.00019	0.00036	5
21606	0.00039	0.0004	0.00011	-0.00025	-0.00066	-0.0001	0.00019	0.00036	5
21607	3e-05	0.00033	0.00028	0.00014	-0.00012	4e-05	-0.00015	-0.00018	5
21608	3e-05	0.00033	0.00028	0.00014	-0.00012	4e-05	-0.00015	-0.00018	5
21609	3e-05	0.00033	0.00028	0.00014	-0.00012	4e-05	-0.00015	-0.00018	5
21610	3e-05	0.00033	0.00028	0.00014	-0.00012	4e-05	-0.00015	-0.00018	5
21611	3e-05	0.00033	0.00028	0.00014	-0.00012	4e-05	-0.00015	-0.00018	5
21612	3e-05	0.00033	0.00028	0.00014	-0.00012	4e-05	-0.00015	-0.00018	5
21613	3e-05	0.00033	0.00028	0.00014	-0.00012	4e-05	-0.00015	-0.00018	5
21614	3e-05	0.00033	0.00028	0.00014	-0.00012	4e-05	-0.00015	-0.00018	5
21615	3e-05	0.00033	0.00028	0.00014	-0.00012	4e-05	-0.00015	-0.00018	5
21616	3e-05	0.00033	0.00028	0.00014	-0.00012	4e-05	-0.00015	-0.00018	5
21617	3e-05	0.00033	0.00028	0.00014	-0.00012	4e-05	-0.00015	-0.00018	5
21618	3e-05	0.00033	0.00028	0.00014	-0.00012	4e-05	-0.00015	-0.00018	5
21619	3e-05	0.00033	0.00028	0.00014	-0.00012	4e-05	-0.00015	-0.00018	5
21620	3e-05	0.00033	0.00028	0.00014	-0.00012	4e-05	-0.00015	-0.00018	5
21621	3e-05	0.00033	0.00028	0.00014	-0.00012	4e-05	-0.00015	-0.00018	5
21622	0.00057	0.00027	-8e-05	9e-05	0.0004	-3e-05	-0.0002	0.0001	5
21623	-0.00028	0.00015	0.00014	-0.00016	-0.00027	-0.0001	4e-05	-8e-05	5
21624	3e-05	0	5e-05	0.00058	0.0006	0.0003	0.00013	5e-05	5
21625	3e-05	0	5e-05	0.00058	0.0006	0.0003	0.00013	5e-05	5
21626	3e-05	0	5e-05	0.00058	0.0006	0.0003	0.00013	5e-05	5
21627	3e-05	0	5e-05	0.00058	0.0006	0.0003	0.00013	5e-05	5
21628	3e-05	0	5e-05	0.00058	0.0006	0.0003	0.00013	5e-05	5
21629	3e-05	0	5e-05	0.00058	0.0006	0.0003	0.00013	5e-05	5
21630	3e-05	0	5e-05	0.00058	0.0006	0.0003	0.00013	5e-05	5
21631	3e-05	0	5e-05	0.00058	0.0006	0.0003	0.00013	5e-05	5
21632	3e-05	0	5e-05	0.00058	0.0006	0.0003	0.00013	5e-05	5
21633	3e-05	0	5e-05	0.00058	0.0006	0.0003	0.00013	5e-05	5
21634	3e-05	0	5e-05	0.00058	0.0006	0.0003	0.00013	5e-05	5
21635	3e-05	0	5e-05	0.00058	0.0006	0.0003	0.00013	5e-05	5
21636	3e-05	0	5e-05	0.00058	0.0006	0.0003	0.00013	5e-05	5
21638	3e-05	0	5e-05	0.00058	0.0006	0.0003	0.00013	5e-05	5
21639	3e-05	0	5e-05	0.00058	0.0006	0.0003	0.00013	5e-05	5
21640	3e-05	0	5e-05	0.00058	0.0006	0.0003	0.00013	5e-05	5
21641	3e-05	0	5e-05	0.00058	0.0006	0.0003	0.00013	5e-05	5
21642	3e-05	0	5e-05	0.00058	0.0006	0.0003	0.00013	5e-05	5
21643	3e-05	0	5e-05	0.00058	0.0006	0.0003	0.00013	5e-05	5
21644	-3e-05	-1e-05	-0.00032	-0.00094	-0.0008	-0.00023	-8e-05	-1e-05	5
21645	0.00075	0.00068	8e-05	6e-05	0.00025	0.00014	0.00012	0.00053	5
21646	-0.00049	-0.00066	5e-05	5e-05	0.00023	8e-05	0	-1e-05	5
21647	-0.00049	-0.00066	5e-05	5e-05	0.00023	8e-05	0	-1e-05	5
21648	-0.00049	-0.00066	5e-05	5e-05	0.00023	8e-05	0	-1e-05	5
21649	-0.00049	-0.00066	5e-05	5e-05	0.00023	8e-05	0	-1e-05	5
21650	-0.00049	-0.00066	5e-05	5e-05	0.00023	8e-05	0	-1e-05	5
21651	-0.00049	-0.00066	5e-05	5e-05	0.00023	8e-05	0	-1e-05	5
21652	-0.00049	-0.00066	5e-05	5e-05	0.00023	8e-05	0	-1e-05	5
21653	-0.00049	-0.00066	5e-05	5e-05	0.00023	8e-05	0	-1e-05	5
21654	-0.00049	-0.00066	5e-05	5e-05	0.00023	8e-05	0	-1e-05	5
21655	-0.00049	-0.00066	5e-05	5e-05	0.00023	8e-05	0	-1e-05	5
21656	-0.00049	-0.00066	5e-05	5e-05	0.00023	8e-05	0	-1e-05	5
21657	-0.00049	-0.00066	5e-05	5e-05	0.00023	8e-05	0	-1e-05	5
21658	3e-05	-9e-05	1e-05	-0.00011	-0.00047	-2e-05	-6e-05	-6e-05	5
21659	3e-05	-9e-05	1e-05	-0.00011	-0.00047	-2e-05	-6e-05	-6e-05	5
21660	3e-05	-9e-05	1e-05	-0.00011	-0.00047	-2e-05	-6e-05	-6e-05	5
21661	3e-05	-9e-05	1e-05	-0.00011	-0.00047	-2e-05	-6e-05	-6e-05	5
21662	3e-05	-9e-05	1e-05	-0.00011	-0.00047	-2e-05	-6e-05	-6e-05	5
21663	3e-05	-9e-05	1e-05	-0.00011	-0.00047	-2e-05	-6e-05	-6e-05	5
21664	3e-05	-9e-05	1e-05	-0.00011	-0.00047	-2e-05	-6e-05	-6e-05	5
21665	3e-05	-9e-05	1e-05	-0.00011	-0.00047	-2e-05	-6e-05	-6e-05	5
21666	-0.00036	0.00017	-0.00023	-0.0002	-0.0004	-0.00024	-3e-05	-0.00015	5
21667	0.00019	0.00033	0.00016	0.00024	0.0004	1e-05	6e-05	-0.00014	5
21668	0.00019	0.00033	0.00016	0.00024	0.0004	1e-05	6e-05	-0.00014	5
21669	0.00019	0.00033	0.00016	0.00024	0.0004	1e-05	6e-05	-0.00014	5
21670	0.00019	0.00033	0.00016	0.00024	0.0004	1e-05	6e-05	-0.00014	5
21671	0.00019	0.00033	0.00016	0.00024	0.0004	1e-05	6e-05	-0.00014	5
21672	0.00019	0.00033	0.00016	0.00024	0.0004	1e-05	6e-05	-0.00014	5
21673	0.00019	0.00033	0.00016	0.00024	0.0004	1e-05	6e-05	-0.00014	5
21674	0.00019	0.00033	0.00016	0.00024	0.0004	1e-05	6e-05	-0.00014	5
21675	0.00019	0.00033	0.00016	0.00024	0.0004	1e-05	6e-05	-0.00014	5
21676	0.00019	0.00033	0.00016	0.00024	0.0004	1e-05	6e-05	-0.00014	5
21677	0.00019	0.00033	0.00016	0.00024	0.0004	1e-05	6e-05	-0.00014	5
21678	0.00019	0.00033	0.00016	0.00024	0.0004	1e-05	6e-05	-0.00014	5
21679	0.00019	0.00033	0.00016	0.00024	0.0004	1e-05	6e-05	-0.00014	5
21680	0.00019	0.00033	0.00016	0.00024	0.0004	1e-05	6e-05	-0.00014	5
21681	0.00019	0.00033	0.00016	0.00024	0.0004	1e-05	6e-05	-0.00014	5
21682	0.00048	1e-05	-4e-05	7e-05	-9e-05	0.00024	-1e-05	6e-05	5
21683	-0.00071	-0.00036	-0.0001	-0.00018	-0.00036	-0.00013	-0.00019	-0.00025	5
21684	0.00024	0.00069	0.00014	-0.0001	-0.00063	-0.00017	-3e-05	7e-05	5
21685	0.00024	0.00069	0.00014	-0.0001	-0.00063	-0.00017	-3e-05	7e-05	5
21686	0.00024	0.00069	0.00014	-0.0001	-0.00063	-0.00017	-3e-05	7e-05	5
21689	0.00024	0.00069	0.00014	-0.0001	-0.00063	-0.00017	-3e-05	7e-05	5
21690	0.00024	0.00069	0.00014	-0.0001	-0.00063	-0.00017	-3e-05	7e-05	5
21691	0.00024	0.00069	0.00014	-0.0001	-0.00063	-0.00017	-3e-05	7e-05	5
21692	0.00024	0.00069	0.00014	-0.0001	-0.00063	-0.00017	-3e-05	7e-05	5
21693	0.00024	0.00069	0.00014	-0.0001	-0.00063	-0.00017	-3e-05	7e-05	5
21694	0.00024	0.00069	0.00014	-0.0001	-0.00063	-0.00017	-3e-05	7e-05	5
21695	0.00024	0.00069	0.00014	-0.0001	-0.00063	-0.00017	-3e-05	7e-05	5
21696	0.00024	0.00069	0.00014	-0.0001	-0.00063	-0.00017	-3e-05	7e-05	5
21697	0.00024	0.00069	0.00014	-0.0001	-0.00063	-0.00017	-3e-05	7e-05	5
21698	0.00024	0.00069	0.00014	-0.0001	-0.00063	-0.00017	-3e-05	7e-05	5
21699	0.00024	0.00069	0.00014	-0.0001	-0.00063	-0.00017	-3e-05	7e-05	5
21700	0.00024	0.00069	0.00014	-0.0001	-0.00063	-0.00017	-3e-05	7e-05	5
21701	0.00024	0.00069	0.00014	-0.0001	-0.00063	-0.00017	-3e-05	7e-05	5
21702	0.00024	0.00069	0.00014	-0.0001	-0.00063	-0.00017	-3e-05	7e-05	5
21703	0.00024	0.00069	0.00014	-0.0001	-0.00063	-0.00017	-3e-05	7e-05	5
21704	-0.0008	-0.0009	-0.00015	0.00025	0.00079	0.00023	4e-05	-6e-05	5
21705	9e-05	-0.00052	-0.00022	-0.00038	5e-05	-9e-05	3e-05	0	5
21706	-0.00052	-0.00034	0	-0.00028	0.00017	-1e-05	-2e-05	-0.00019	5
21707	-0.00052	-0.00034	0	-0.00028	0.00017	-1e-05	-2e-05	-0.00019	5
21708	-0.00052	-0.00034	0	-0.00028	0.00017	-1e-05	-2e-05	-0.00019	5
21709	-0.00052	-0.00034	0	-0.00028	0.00017	-1e-05	-2e-05	-0.00019	5
21710	-0.00052	-0.00034	0	-0.00028	0.00017	-1e-05	-2e-05	-0.00019	5
21711	-0.00052	-0.00034	0	-0.00028	0.00017	-1e-05	-2e-05	-0.00019	5
21712	-0.00052	-0.00034	0	-0.00028	0.00017	-1e-05	-2e-05	-0.00019	5
21713	-0.00052	-0.00034	0	-0.00028	0.00017	-1e-05	-2e-05	-0.00019	5
21714	-0.00052	-0.00034	0	-0.00028	0.00017	-1e-05	-2e-05	-0.00019	5
21715	-0.00052	-0.00034	0	-0.00028	0.00017	-1e-05	-2e-05	-0.00019	5
21716	-0.00052	-0.00034	0	-0.00028	0.00017	-1e-05	-2e-05	-0.00019	5
21717	-0.00052	-0.00034	0	-0.00028	0.00017	-1e-05	-2e-05	-0.00019	5
21718	0.00015	0.00012	0.00011	0.00014	0.00046	0.00018	9e-05	0.00016	5
21719	0.00015	0.00012	0.00011	0.00014	0.00046	0.00018	9e-05	0.00016	5
21720	0.00015	0.00012	0.00011	0.00014	0.00046	0.00018	9e-05	0.00016	5
21721	0.00015	0.00012	0.00011	0.00014	0.00046	0.00018	9e-05	0.00016	5
21722	0.00015	0.00012	0.00011	0.00014	0.00046	0.00018	9e-05	0.00016	5
21723	0.00015	0.00012	0.00011	0.00014	0.00046	0.00018	9e-05	0.00016	5
21724	0.00015	0.00012	0.00011	0.00014	0.00046	0.00018	9e-05	0.00016	5
21725	0.00015	0.00012	0.00011	0.00014	0.00046	0.00018	9e-05	0.00016	5
21726	0.00015	0.00012	0.00011	0.00014	0.00046	0.00018	9e-05	0.00016	5
21727	9e-05	5e-05	8e-05	-6e-05	-0.00069	-0.00018	-8e-05	4e-05	5
21728	9e-05	5e-05	8e-05	-6e-05	-0.00069	-0.00018	-8e-05	4e-05	5
21729	9e-05	5e-05	8e-05	-6e-05	-0.00069	-0.00018	-8e-05	4e-05	5
21730	9e-05	5e-05	8e-05	-6e-05	-0.00069	-0.00018	-8e-05	4e-05	5
21731	9e-05	5e-05	8e-05	-6e-05	-0.00069	-0.00018	-8e-05	4e-05	5
21732	9e-05	5e-05	8e-05	-6e-05	-0.00069	-0.00018	-8e-05	4e-05	5
21733	9e-05	5e-05	8e-05	-6e-05	-0.00069	-0.00018	-8e-05	4e-05	5
21734	9e-05	5e-05	8e-05	-6e-05	-0.00069	-0.00018	-8e-05	4e-05	5
21735	9e-05	5e-05	8e-05	-6e-05	-0.00069	-0.00018	-8e-05	4e-05	5
21736	9e-05	5e-05	8e-05	-6e-05	-0.00069	-0.00018	-8e-05	4e-05	5
21739	9e-05	5e-05	8e-05	-6e-05	-0.00069	-0.00018	-8e-05	4e-05	5
21740	9e-05	5e-05	8e-05	-6e-05	-0.00069	-0.00018	-8e-05	4e-05	5
21741	9e-05	5e-05	8e-05	-6e-05	-0.00069	-0.00018	-8e-05	4e-05	5
21742	0.00065	-0.00052	-1e-05	0.00024	-0.00044	0.00015	6e-05	0.00018	5
21743	-0.00054	0.00035	0.00024	0.00013	6e-05	-0.0001	2e-05	-0.00015	5
21744	0.00013	4e-05	-1e-05	4e-05	-8e-05	-4e-05	0.00012	2e-05	5
21745	0.00013	4e-05	-1e-05	4e-05	-8e-05	-4e-05	0.00012	2e-05	5
21746	0.00013	4e-05	-1e-05	4e-05	-8e-05	-4e-05	0.00012	2e-05	5
21747	0.00013	4e-05	-1e-05	4e-05	-8e-05	-4e-05	0.00012	2e-05	5
21748	0.00013	4e-05	-1e-05	4e-05	-8e-05	-4e-05	0.00012	2e-05	5
21749	0.00013	4e-05	-1e-05	4e-05	-8e-05	-4e-05	0.00012	2e-05	5
21750	0.00013	4e-05	-1e-05	4e-05	-8e-05	-4e-05	0.00012	2e-05	5
21751	0.00013	4e-05	-1e-05	4e-05	-8e-05	-4e-05	0.00012	2e-05	5
21752	0.00013	4e-05	-1e-05	4e-05	-8e-05	-4e-05	0.00012	2e-05	5
21753	0.00013	4e-05	-1e-05	4e-05	-8e-05	-4e-05	0.00012	2e-05	5
21754	0.00013	4e-05	-1e-05	4e-05	-8e-05	-4e-05	0.00012	2e-05	5
21755	0.00013	4e-05	-1e-05	4e-05	-8e-05	-4e-05	0.00012	2e-05	5
21756	0.00013	4e-05	-1e-05	4e-05	-8e-05	-4e-05	0.00012	2e-05	5
21757	0.00013	4e-05	-1e-05	4e-05	-8e-05	-4e-05	0.00012	2e-05	5
21758	0.00013	4e-05	-1e-05	4e-05	-8e-05	-4e-05	0.00012	2e-05	5
21759	0.00013	4e-05	-1e-05	4e-05	-8e-05	-4e-05	0.00012	2e-05	5
21760	0.00013	4e-05	-1e-05	4e-05	-8e-05	-4e-05	0.00012	2e-05	5
21761	0.00013	4e-05	-1e-05	4e-05	-8e-05	-4e-05	0.00012	2e-05	5
21762	0.00013	4e-05	-1e-05	4e-05	-8e-05	-4e-05	0.00012	2e-05	5
21763	0.00013	4e-05	-1e-05	4e-05	-8e-05	-4e-05	0.00012	2e-05	5
21764	0.00035	0.00025	2e-05	-5e-05	0	0	-2e-05	9e-05	5
21765	-0.00025	-0.00019	-0.00016	0.00017	0.00054	0.00034	0.00014	-7e-05	5
21766	0.00046	0.00012	-0.00012	-0.00032	-0.00073	-0.0004	-0.00022	0.00035	5
21767	0.00046	0.00012	-0.00012	-0.00032	-0.00073	-0.0004	-0.00022	0.00035	5
21768	0.00046	0.00012	-0.00012	-0.00032	-0.00073	-0.0004	-0.00022	0.00035	5
21769	0.00046	0.00012	-0.00012	-0.00032	-0.00073	-0.0004	-0.00022	0.00035	5
21770	0.00046	0.00012	-0.00012	-0.00032	-0.00073	-0.0004	-0.00022	0.00035	5
21771	0.00046	0.00012	-0.00012	-0.00032	-0.00073	-0.0004	-0.00022	0.00035	5
21772	0.00046	0.00012	-0.00012	-0.00032	-0.00073	-0.0004	-0.00022	0.00035	5
21773	0.00046	0.00012	-0.00012	-0.00032	-0.00073	-0.0004	-0.00022	0.00035	5
21774	0.00046	0.00012	-0.00012	-0.00032	-0.00073	-0.0004	-0.00022	0.00035	5
21775	0.00046	0.00012	-0.00012	-0.00032	-0.00073	-0.0004	-0.00022	0.00035	5
21776	0.00046	0.00012	-0.00012	-0.00032	-0.00073	-0.0004	-0.00022	0.00035	5
21777	0.00046	0.00012	-0.00012	-0.00032	-0.00073	-0.0004	-0.00022	0.00035	5
21778	0.00046	0.00012	-0.00012	-0.00032	-0.00073	-0.0004	-0.00022	0.00035	5
21779	0.00046	0.00012	-0.00012	-0.00032	-0.00073	-0.0004	-0.00022	0.00035	5
21780	0.00046	0.00012	-0.00012	-0.00032	-0.00073	-0.0004	-0.00022	0.00035	5
21781	0.00046	0.00012	-0.00012	-0.00032	-0.00073	-0.0004	-0.00022	0.00035	5
21782	0.00046	0.00012	-0.00012	-0.00032	-0.00073	-0.0004	-0.00022	0.00035	5
21783	0.00046	0.00012	-0.00012	-0.00032	-0.00073	-0.0004	-0.00022	0.00035	5
21784	0.00046	0.00012	-0.00012	-0.00032	-0.00073	-0.0004	-0.00022	0.00035	5
21785	0.00046	0.00012	-0.00012	-0.00032	-0.00073	-0.0004	-0.00022	0.00035	5
21786	0.00046	0.00012	-0.00012	-0.00032	-0.00073	-0.0004	-0.00022	0.00035	5
21789	-5e-05	0.00056	2e-05	-0.00019	-0.00037	-0.00027	-7e-05	-7e-05	5
21790	-0.00026	-0.0002	-0.00011	4e-05	-0.00011	6e-05	0.00013	-0.00011	5
21791	-0.00026	-0.0002	-0.00011	4e-05	-0.00011	6e-05	0.00013	-0.00011	5
21792	-0.00026	-0.0002	-0.00011	4e-05	-0.00011	6e-05	0.00013	-0.00011	5
21793	-0.00026	-0.0002	-0.00011	4e-05	-0.00011	6e-05	0.00013	-0.00011	5
21794	-0.00026	-0.0002	-0.00011	4e-05	-0.00011	6e-05	0.00013	-0.00011	5
21795	-0.00026	-0.0002	-0.00011	4e-05	-0.00011	6e-05	0.00013	-0.00011	5
21796	-0.00026	-0.0002	-0.00011	4e-05	-0.00011	6e-05	0.00013	-0.00011	5
21797	-0.00026	-0.0002	-0.00011	4e-05	-0.00011	6e-05	0.00013	-0.00011	5
21798	-0.00026	-0.0002	-0.00011	4e-05	-0.00011	6e-05	0.00013	-0.00011	5
21799	-0.00026	-0.0002	-0.00011	4e-05	-0.00011	6e-05	0.00013	-0.00011	5
21800	-0.00026	-0.0002	-0.00011	4e-05	-0.00011	6e-05	0.00013	-0.00011	5
21801	-0.00026	-0.0002	-0.00011	4e-05	-0.00011	6e-05	0.00013	-0.00011	5
21802	1e-05	-8e-05	-0.00014	4e-05	0.00051	0.00011	3e-05	7e-05	5
21803	-9e-05	-0.00051	-0.00011	-0.00016	2e-05	-0.00014	-9e-05	-5e-05	5
21804	-8e-05	0.00028	0.0001	0.00012	8e-05	0.00015	4e-05	0	5
21805	-8e-05	0.00028	0.0001	0.00012	8e-05	0.00015	4e-05	0	5
21806	-8e-05	0.00028	0.0001	0.00012	8e-05	0.00015	4e-05	0	5
21807	-8e-05	0.00028	0.0001	0.00012	8e-05	0.00015	4e-05	0	5
21808	-8e-05	0.00028	0.0001	0.00012	8e-05	0.00015	4e-05	0	5
21809	-8e-05	0.00028	0.0001	0.00012	8e-05	0.00015	4e-05	0	5
21810	-8e-05	0.00028	0.0001	0.00012	8e-05	0.00015	4e-05	0	5
21811	-8e-05	0.00028	0.0001	0.00012	8e-05	0.00015	4e-05	0	5
21812	-8e-05	0.00028	0.0001	0.00012	8e-05	0.00015	4e-05	0	5
21813	-8e-05	0.00028	0.0001	0.00012	8e-05	0.00015	4e-05	0	5
21814	-8e-05	0.00028	0.0001	0.00012	8e-05	0.00015	4e-05	0	5
21815	-8e-05	0.00028	0.0001	0.00012	8e-05	0.00015	4e-05	0	5
21816	-8e-05	0.00028	0.0001	0.00012	8e-05	0.00015	4e-05	0	5
21817	-8e-05	0.00028	0.0001	0.00012	8e-05	0.00015	4e-05	0	5
21818	-8e-05	0.00028	0.0001	0.00012	8e-05	0.00015	4e-05	0	5
21819	-8e-05	0.00028	0.0001	0.00012	8e-05	0.00015	4e-05	0	5
21820	-8e-05	0.00028	0.0001	0.00012	8e-05	0.00015	4e-05	0	5
21821	-8e-05	0.00028	0.0001	0.00012	8e-05	0.00015	4e-05	0	5
21822	-8e-05	0.00028	0.0001	0.00012	8e-05	0.00015	4e-05	0	5
21823	-8e-05	0.00028	0.0001	0.00012	8e-05	0.00015	4e-05	0	5
21824	-0.00101	-0.00014	-0.00014	-0.00018	-0.00059	-0.00017	-0.00012	-0.00034	5
21825	0.0008	0.00098	0.00016	0.00023	0.00057	0.00019	0.00015	0.00015	5
21826	-0.0006	0.00012	-0.00026	-9e-05	0.00037	-0.00014	-0.00018	-0.00016	5
21827	-0.0006	0.00012	-0.00026	-9e-05	0.00037	-0.00014	-0.00018	-0.00016	5
21828	-0.0006	0.00012	-0.00026	-9e-05	0.00037	-0.00014	-0.00018	-0.00016	5
21829	-0.0006	0.00012	-0.00026	-9e-05	0.00037	-0.00014	-0.00018	-0.00016	5
21830	-0.0006	0.00012	-0.00026	-9e-05	0.00037	-0.00014	-0.00018	-0.00016	5
21831	-0.0006	0.00012	-0.00026	-9e-05	0.00037	-0.00014	-0.00018	-0.00016	5
21832	-0.0006	0.00012	-0.00026	-9e-05	0.00037	-0.00014	-0.00018	-0.00016	5
21833	-0.0006	0.00012	-0.00026	-9e-05	0.00037	-0.00014	-0.00018	-0.00016	5
21834	-0.0006	0.00012	-0.00026	-9e-05	0.00037	-0.00014	-0.00018	-0.00016	5
21835	-0.0006	0.00012	-0.00026	-9e-05	0.00037	-0.00014	-0.00018	-0.00016	5
21836	-0.0006	0.00012	-0.00026	-9e-05	0.00037	-0.00014	-0.00018	-0.00016	5
21838	-0.0006	0.00012	-0.00026	-9e-05	0.00037	-0.00014	-0.00018	-0.00016	5
21839	-0.0006	0.00012	-0.00026	-9e-05	0.00037	-0.00014	-0.00018	-0.00016	5
21840	-0.0006	0.00012	-0.00026	-9e-05	0.00037	-0.00014	-0.00018	-0.00016	5
21841	-0.0006	0.00012	-0.00026	-9e-05	0.00037	-0.00014	-0.00018	-0.00016	5
21842	-0.0006	0.00012	-0.00026	-9e-05	0.00037	-0.00014	-0.00018	-0.00016	5
21843	-0.0006	0.00012	-0.00026	-9e-05	0.00037	-0.00014	-0.00018	-0.00016	5
21844	-0.0006	0.00012	-0.00026	-9e-05	0.00037	-0.00014	-0.00018	-0.00016	5
21845	-0.0006	0.00012	-0.00026	-9e-05	0.00037	-0.00014	-0.00018	-0.00016	5
21846	-0.0006	0.00012	-0.00026	-9e-05	0.00037	-0.00014	-0.00018	-0.00016	5
21847	0.00017	0.00043	8e-05	3e-05	0.00011	-0.00013	-3e-05	-7e-05	5
21848	-6e-05	0.00023	-4e-05	-0.00017	-0.00065	9e-05	-1e-05	-5e-05	5
21849	0.00048	0.00038	0.00012	0.00015	0.00038	-2e-05	2e-05	0.00017	5
21850	0.00048	0.00038	0.00012	0.00015	0.00038	-2e-05	2e-05	0.00017	5
21851	0.00048	0.00038	0.00012	0.00015	0.00038	-2e-05	2e-05	0.00017	5
21852	0.00048	0.00038	0.00012	0.00015	0.00038	-2e-05	2e-05	0.00017	5
21853	0.00048	0.00038	0.00012	0.00015	0.00038	-2e-05	2e-05	0.00017	5
21854	0.00048	0.00038	0.00012	0.00015	0.00038	-2e-05	2e-05	0.00017	5
21855	0.00048	0.00038	0.00012	0.00015	0.00038	-2e-05	2e-05	0.00017	5
21856	0.00048	0.00038	0.00012	0.00015	0.00038	-2e-05	2e-05	0.00017	5
21857	0.00048	0.00038	0.00012	0.00015	0.00038	-2e-05	2e-05	0.00017	5
21858	0.00048	0.00038	0.00012	0.00015	0.00038	-2e-05	2e-05	0.00017	5
21859	0.00048	0.00038	0.00012	0.00015	0.00038	-2e-05	2e-05	0.00017	5
21860	0.00048	0.00038	0.00012	0.00015	0.00038	-2e-05	2e-05	0.00017	5
21861	0.00048	0.00038	0.00012	0.00015	0.00038	-2e-05	2e-05	0.00017	5
21862	-0.00059	0.0008	3e-05	-0.00028	-0.00047	-0.00029	-0.00023	-2e-05	5
21863	0.00043	-3e-05	0.00021	0.00024	0.00071	0.00034	0.00012	8e-05	5
21864	0.00011	-0.00013	-0.00022	-0.00015	-0.00035	-0.00017	5e-05	1e-05	5
21865	0.00011	-0.00013	-0.00022	-0.00015	-0.00035	-0.00017	5e-05	1e-05	5
21866	0.00011	-0.00013	-0.00022	-0.00015	-0.00035	-0.00017	5e-05	1e-05	5
21867	0.00011	-0.00013	-0.00022	-0.00015	-0.00035	-0.00017	5e-05	1e-05	5
21868	0.00011	-0.00013	-0.00022	-0.00015	-0.00035	-0.00017	5e-05	1e-05	5
21869	0.00011	-0.00013	-0.00022	-0.00015	-0.00035	-0.00017	5e-05	1e-05	5
21870	0.00011	-0.00013	-0.00022	-0.00015	-0.00035	-0.00017	5e-05	1e-05	5
21871	0.00011	-0.00013	-0.00022	-0.00015	-0.00035	-0.00017	5e-05	1e-05	5
21872	0.00011	-0.00013	-0.00022	-0.00015	-0.00035	-0.00017	5e-05	1e-05	5
21873	0.00011	-0.00013	-0.00022	-0.00015	-0.00035	-0.00017	5e-05	1e-05	5
21874	0.00011	-0.00013	-0.00022	-0.00015	-0.00035	-0.00017	5e-05	1e-05	5
21875	0.00011	-0.00013	-0.00022	-0.00015	-0.00035	-0.00017	5e-05	1e-05	5
21876	0.00011	-0.00013	-0.00022	-0.00015	-0.00035	-0.00017	5e-05	1e-05	5
21877	0.00011	-0.00013	-0.00022	-0.00015	-0.00035	-0.00017	5e-05	1e-05	5
21878	0.00011	-0.00013	-0.00022	-0.00015	-0.00035	-0.00017	5e-05	1e-05	5
21879	0.00011	-0.00013	-0.00022	-0.00015	-0.00035	-0.00017	5e-05	1e-05	5
21880	0.00011	-0.00013	-0.00022	-0.00015	-0.00035	-0.00017	5e-05	1e-05	5
21881	0.00011	-0.00013	-0.00022	-0.00015	-0.00035	-0.00017	5e-05	1e-05	5
21882	0.00011	-0.00013	-0.00022	-0.00015	-0.00035	-0.00017	5e-05	1e-05	5
21883	0.00011	-0.00013	-0.00022	-0.00015	-0.00035	-0.00017	5e-05	1e-05	5
21884	0.00021	0.00018	3e-05	5e-05	0.00027	-6e-05	-7e-05	4e-05	5
21885	4e-05	-0.00023	2e-05	-0.00017	-0.00065	-0.00011	-3e-05	-4e-05	5
21886	-5e-05	-0.0002	0.0001	0.00011	-0.00036	0.00014	-4e-05	-6e-05	5
21888	-5e-05	-0.0002	0.0001	0.00011	-0.00036	0.00014	-4e-05	-6e-05	5
21889	-5e-05	-0.0002	0.0001	0.00011	-0.00036	0.00014	-4e-05	-6e-05	5
21890	-5e-05	-0.0002	0.0001	0.00011	-0.00036	0.00014	-4e-05	-6e-05	5
21891	-5e-05	-0.0002	0.0001	0.00011	-0.00036	0.00014	-4e-05	-6e-05	5
21892	-5e-05	-0.0002	0.0001	0.00011	-0.00036	0.00014	-4e-05	-6e-05	5
21893	-5e-05	-0.0002	0.0001	0.00011	-0.00036	0.00014	-4e-05	-6e-05	5
21894	-5e-05	-0.0002	0.0001	0.00011	-0.00036	0.00014	-4e-05	-6e-05	5
21895	-5e-05	-0.0002	0.0001	0.00011	-0.00036	0.00014	-4e-05	-6e-05	5
21896	-5e-05	-0.0002	0.0001	0.00011	-0.00036	0.00014	-4e-05	-6e-05	5
21897	-5e-05	-0.0002	0.0001	0.00011	-0.00036	0.00014	-4e-05	-6e-05	5
21898	-5e-05	-0.0002	0.0001	0.00011	-0.00036	0.00014	-4e-05	-6e-05	5
21899	-5e-05	-0.0002	0.0001	0.00011	-0.00036	0.00014	-4e-05	-6e-05	5
21900	-5e-05	-0.0002	0.0001	0.00011	-0.00036	0.00014	-4e-05	-6e-05	5
21901	-5e-05	-0.0002	0.0001	0.00011	-0.00036	0.00014	-4e-05	-6e-05	5
21902	-5e-05	-0.0002	0.0001	0.00011	-0.00036	0.00014	-4e-05	-6e-05	5
21903	-5e-05	-0.0002	0.0001	0.00011	-0.00036	0.00014	-4e-05	-6e-05	5
21904	-5e-05	-0.0002	0.0001	0.00011	-0.00036	0.00014	-4e-05	-6e-05	5
21905	-5e-05	-0.0002	0.0001	0.00011	-0.00036	0.00014	-4e-05	-6e-05	5
21906	-5e-05	-0.0002	0.0001	0.00011	-0.00036	0.00014	-4e-05	-6e-05	5
21907	0.00028	0.00039	8e-05	-3e-05	0.0004	2e-05	-1e-05	0.00018	5
21908	6e-05	-0.00069	-0.00025	0	-0.00019	-0.00017	-0.00012	0.00016	5
21909	-0.00011	0.00016	0.00021	-0.00012	8e-05	7e-05	7e-05	-7e-05	5
21910	-0.00011	0.00016	0.00021	-0.00012	8e-05	7e-05	7e-05	-7e-05	5
21911	-0.00011	0.00016	0.00021	-0.00012	8e-05	7e-05	7e-05	-7e-05	5
21912	-0.00011	0.00016	0.00021	-0.00012	8e-05	7e-05	7e-05	-7e-05	5
21913	-0.00011	0.00016	0.00021	-0.00012	8e-05	7e-05	7e-05	-7e-05	5
21914	-0.00011	0.00016	0.00021	-0.00012	8e-05	7e-05	7e-05	-7e-05	5
21915	-0.00011	0.00016	0.00021	-0.00012	8e-05	7e-05	7e-05	-7e-05	5
21916	-0.00011	0.00016	0.00021	-0.00012	8e-05	7e-05	7e-05	-7e-05	5
21917	-0.00011	0.00016	0.00021	-0.00012	8e-05	7e-05	7e-05	-7e-05	5
21918	-0.00011	0.00016	0.00021	-0.00012	8e-05	7e-05	7e-05	-7e-05	5
21919	-0.00011	0.00016	0.00021	-0.00012	8e-05	7e-05	7e-05	-7e-05	5
21920	-0.00011	0.00016	0.00021	-0.00012	8e-05	7e-05	7e-05	-7e-05	5
21921	0.00085	3e-05	-9e-05	0.0002	0.00064	8e-05	-8e-05	0	5
21922	0.00085	3e-05	-9e-05	0.0002	0.00064	8e-05	-8e-05	0	5
21923	0.00085	3e-05	-9e-05	0.0002	0.00064	8e-05	-8e-05	0	5
21924	0.00085	3e-05	-9e-05	0.0002	0.00064	8e-05	-8e-05	0	5
21925	0.00085	3e-05	-9e-05	0.0002	0.00064	8e-05	-8e-05	0	5
21926	0.00085	3e-05	-9e-05	0.0002	0.00064	8e-05	-8e-05	0	5
21927	0.00085	3e-05	-9e-05	0.0002	0.00064	8e-05	-8e-05	0	5
21928	0.00085	-0.00037	-1e-05	0.00039	0.00089	0.00029	0.00012	0.00027	5
21929	0.00085	-0.00037	-1e-05	0.00039	0.00089	0.00029	0.00012	0.00027	5
21930	0.00085	-0.00037	-1e-05	0.00039	0.00089	0.00029	0.00012	0.00027	5
21931	0.00085	-0.00037	-1e-05	0.00039	0.00089	0.00029	0.00012	0.00027	5
21932	0.00085	-0.00037	-1e-05	0.00039	0.00089	0.00029	0.00012	0.00027	5
21933	0.00085	-0.00037	-1e-05	0.00039	0.00089	0.00029	0.00012	0.00027	5
21934	0.00085	-0.00037	-1e-05	0.00039	0.00089	0.00029	0.00012	0.00027	5
21935	0.00085	-0.00037	-1e-05	0.00039	0.00089	0.00029	0.00012	0.00027	5
21936	0.00085	-0.00037	-1e-05	0.00039	0.00089	0.00029	0.00012	0.00027	5
21938	0.00085	-0.00037	-1e-05	0.00039	0.00089	0.00029	0.00012	0.00027	5
21939	0.00085	-0.00037	-1e-05	0.00039	0.00089	0.00029	0.00012	0.00027	5
21940	0.00085	-0.00037	-1e-05	0.00039	0.00089	0.00029	0.00012	0.00027	5
21941	0.00085	-0.00037	-1e-05	0.00039	0.00089	0.00029	0.00012	0.00027	5
21942	0.00085	-0.00037	-1e-05	0.00039	0.00089	0.00029	0.00012	0.00027	5
21943	0.00085	-0.00037	-1e-05	0.00039	0.00089	0.00029	0.00012	0.00027	5
21944	3e-05	9e-05	0.00027	-0.00028	-0.00083	-4e-05	6e-05	3e-05	5
21945	-0.00053	2e-05	0.00014	0.00037	0.00085	5e-05	-0.00014	-0.00018	5
21946	0.00034	-0.00014	-7e-05	-0.00027	-0.00054	-0.00013	-6e-05	0.00032	5
21947	0.00034	-0.00014	-7e-05	-0.00027	-0.00054	-0.00013	-6e-05	0.00032	5
21948	0.00034	-0.00014	-7e-05	-0.00027	-0.00054	-0.00013	-6e-05	0.00032	5
21949	0.00034	-0.00014	-7e-05	-0.00027	-0.00054	-0.00013	-6e-05	0.00032	5
21950	0.00034	-0.00014	-7e-05	-0.00027	-0.00054	-0.00013	-6e-05	0.00032	5
21951	0.00034	-0.00014	-7e-05	-0.00027	-0.00054	-0.00013	-6e-05	0.00032	5
21952	0.00034	-0.00014	-7e-05	-0.00027	-0.00054	-0.00013	-6e-05	0.00032	5
21953	0.00034	-0.00014	-7e-05	-0.00027	-0.00054	-0.00013	-6e-05	0.00032	5
21954	0.00034	-0.00014	-7e-05	-0.00027	-0.00054	-0.00013	-6e-05	0.00032	5
21955	0.00034	-0.00014	-7e-05	-0.00027	-0.00054	-0.00013	-6e-05	0.00032	5
21956	0.00034	-0.00014	-7e-05	-0.00027	-0.00054	-0.00013	-6e-05	0.00032	5
21957	0.00034	-0.00014	-7e-05	-0.00027	-0.00054	-0.00013	-6e-05	0.00032	5
21958	0.00034	-0.00014	-7e-05	-0.00027	-0.00054	-0.00013	-6e-05	0.00032	5
21959	0.00034	-0.00014	-7e-05	-0.00027	-0.00054	-0.00013	-6e-05	0.00032	5
21960	0.00034	-0.00014	-7e-05	-0.00027	-0.00054	-0.00013	-6e-05	0.00032	5
21961	0.00034	-0.00014	-7e-05	-0.00027	-0.00054	-0.00013	-6e-05	0.00032	5
21962	0.00034	-0.00014	-7e-05	-0.00027	-0.00054	-0.00013	-6e-05	0.00032	5
21963	0.00034	-0.00014	-7e-05	-0.00027	-0.00054	-0.00013	-6e-05	0.00032	5
21964	0.00034	-0.00014	-7e-05	-0.00027	-0.00054	-0.00013	-6e-05	0.00032	5
21965	0.00034	-0.00014	-7e-05	-0.00027	-0.00054	-0.00013	-6e-05	0.00032	5
21966	0.00034	-0.00014	-7e-05	-0.00027	-0.00054	-0.00013	-6e-05	0.00032	5
21967	0.00083	-0.00017	9e-05	-8e-05	-0.0002	6e-05	1e-05	0.00033	5
21968	0	0.00014	1e-05	0.00017	0.00035	0.00013	0.00014	0.00016	5
21969	-0.00059	0.00026	-0.0002	-0.00016	-4e-05	-0.00015	-0.0002	-0.00037	5
21970	-0.00059	0.00026	-0.0002	-0.00016	-4e-05	-0.00015	-0.0002	-0.00037	5
21971	-0.00059	0.00026	-0.0002	-0.00016	-4e-05	-0.00015	-0.0002	-0.00037	5
21972	-0.00059	0.00026	-0.0002	-0.00016	-4e-05	-0.00015	-0.0002	-0.00037	5
21973	-0.00059	0.00026	-0.0002	-0.00016	-4e-05	-0.00015	-0.0002	-0.00037	5
21974	-0.00059	0.00026	-0.0002	-0.00016	-4e-05	-0.00015	-0.0002	-0.00037	5
21975	-0.00059	0.00026	-0.0002	-0.00016	-4e-05	-0.00015	-0.0002	-0.00037	5
21976	-0.00059	0.00026	-0.0002	-0.00016	-4e-05	-0.00015	-0.0002	-0.00037	5
21977	-0.00059	0.00026	-0.0002	-0.00016	-4e-05	-0.00015	-0.0002	-0.00037	5
21978	-0.00059	0.00026	-0.0002	-0.00016	-4e-05	-0.00015	-0.0002	-0.00037	5
21979	-0.00059	0.00026	-0.0002	-0.00016	-4e-05	-0.00015	-0.0002	-0.00037	5
21980	-0.00059	0.00026	-0.0002	-0.00016	-4e-05	-0.00015	-0.0002	-0.00037	5
21981	-0.00105	-0.00019	-0.00024	-0.00014	0.00032	1e-05	0.0001	-0.00012	5
21982	-0.00105	-0.00019	-0.00024	-0.00014	0.00032	1e-05	0.0001	-0.00012	5
21983	-0.00105	-0.00019	-0.00024	-0.00014	0.00032	1e-05	0.0001	-0.00012	5
21984	-0.00105	-0.00019	-0.00024	-0.00014	0.00032	1e-05	0.0001	-0.00012	5
21985	-0.00105	-0.00019	-0.00024	-0.00014	0.00032	1e-05	0.0001	-0.00012	5
21986	-0.00105	-0.00019	-0.00024	-0.00014	0.00032	1e-05	0.0001	-0.00012	5
21989	0.00012	-4e-05	0	-6e-05	-0.0002	-0.00018	1e-05	-1e-05	5
21990	0.00012	-4e-05	0	-6e-05	-0.0002	-0.00018	1e-05	-1e-05	5
21991	0.00012	-4e-05	0	-6e-05	-0.0002	-0.00018	1e-05	-1e-05	5
21992	0.00012	-4e-05	0	-6e-05	-0.0002	-0.00018	1e-05	-1e-05	5
21993	0.00012	-4e-05	0	-6e-05	-0.0002	-0.00018	1e-05	-1e-05	5
21994	0.00012	-4e-05	0	-6e-05	-0.0002	-0.00018	1e-05	-1e-05	5
21995	0.00012	-4e-05	0	-6e-05	-0.0002	-0.00018	1e-05	-1e-05	5
21996	0.00012	-4e-05	0	-6e-05	-0.0002	-0.00018	1e-05	-1e-05	5
21997	0.00012	-4e-05	0	-6e-05	-0.0002	-0.00018	1e-05	-1e-05	5
21998	0.00012	-4e-05	0	-6e-05	-0.0002	-0.00018	1e-05	-1e-05	5
21999	0.00012	-4e-05	0	-6e-05	-0.0002	-0.00018	1e-05	-1e-05	5
22000	0.00012	-4e-05	0	-6e-05	-0.0002	-0.00018	1e-05	-1e-05	5
22001	0.00012	-4e-05	0	-6e-05	-0.0002	-0.00018	1e-05	-1e-05	5
22002	0.00012	-4e-05	0	-6e-05	-0.0002	-0.00018	1e-05	-1e-05	5
22003	0.00012	-4e-05	0	-6e-05	-0.0002	-0.00018	1e-05	-1e-05	5
22004	0.00026	0	-0.00015	0.00023	0.00045	0.00038	9e-05	0.00019	5
22005	-0.00074	-0.00057	3e-05	-0.00029	-0.00048	-0.00027	-9e-05	-0.00014	5
22007	-0.00061	-0.00039	-0.00011	7e-05	0.00014	0.00028	0.00016	-0.00014	5
22008	-0.00061	-0.00039	-0.00011	7e-05	0.00014	0.00028	0.00016	-0.00014	5
22009	-0.00061	-0.00039	-0.00011	7e-05	0.00014	0.00028	0.00016	-0.00014	5
22010	-0.00061	-0.00039	-0.00011	7e-05	0.00014	0.00028	0.00016	-0.00014	5
22011	-0.00061	-0.00039	-0.00011	7e-05	0.00014	0.00028	0.00016	-0.00014	5
22012	-0.00061	-0.00039	-0.00011	7e-05	0.00014	0.00028	0.00016	-0.00014	5
22013	-0.00061	-0.00039	-0.00011	7e-05	0.00014	0.00028	0.00016	-0.00014	5
22014	-0.00061	-0.00039	-0.00011	7e-05	0.00014	0.00028	0.00016	-0.00014	5
22015	-0.00061	-0.00039	-0.00011	7e-05	0.00014	0.00028	0.00016	-0.00014	5
22016	-0.00061	-0.00039	-0.00011	7e-05	0.00014	0.00028	0.00016	-0.00014	5
22017	-0.00061	-0.00039	-0.00011	7e-05	0.00014	0.00028	0.00016	-0.00014	5
22018	-0.00061	-0.00039	-0.00011	7e-05	0.00014	0.00028	0.00016	-0.00014	5
22019	-0.00061	-0.00039	-0.00011	7e-05	0.00014	0.00028	0.00016	-0.00014	5
22020	-0.00061	-0.00039	-0.00011	7e-05	0.00014	0.00028	0.00016	-0.00014	5
22021	-0.00061	-0.00039	-0.00011	7e-05	0.00014	0.00028	0.00016	-0.00014	5
22022	-0.00061	-0.00039	-0.00011	7e-05	0.00014	0.00028	0.00016	-0.00014	5
22023	-0.00061	-0.00039	-0.00011	7e-05	0.00014	0.00028	0.00016	-0.00014	5
22024	-0.00061	-0.00039	-0.00011	7e-05	0.00014	0.00028	0.00016	-0.00014	5
22025	-0.00061	-0.00039	-0.00011	7e-05	0.00014	0.00028	0.00016	-0.00014	5
22026	-0.00061	-0.00039	-0.00011	7e-05	0.00014	0.00028	0.00016	-0.00014	5
22027	-0.00041	0.00028	-1e-05	0.00012	0.00043	-6e-05	-0.00013	-0.00011	5
22028	0.00022	-0.00045	-9e-05	-7e-05	-0.00058	6e-05	9e-05	0.00021	5
22029	-0.00031	-0.00015	-1e-05	-2e-05	0.00062	2e-05	-8e-05	-0.00016	5
22030	-0.00031	-0.00015	-1e-05	-2e-05	0.00062	2e-05	-8e-05	-0.00016	5
22031	-0.00031	-0.00015	-1e-05	-2e-05	0.00062	2e-05	-8e-05	-0.00016	5
22032	-0.00031	-0.00015	-1e-05	-2e-05	0.00062	2e-05	-8e-05	-0.00016	5
22033	-0.00031	-0.00015	-1e-05	-2e-05	0.00062	2e-05	-8e-05	-0.00016	5
22034	-0.00031	-0.00015	-1e-05	-2e-05	0.00062	2e-05	-8e-05	-0.00016	5
22035	-0.00031	-0.00015	-1e-05	-2e-05	0.00062	2e-05	-8e-05	-0.00016	5
22036	-0.00031	-0.00015	-1e-05	-2e-05	0.00062	2e-05	-8e-05	-0.00016	5
22038	-0.00031	-0.00015	-1e-05	-2e-05	0.00062	2e-05	-8e-05	-0.00016	5
22039	-0.00031	-0.00015	-1e-05	-2e-05	0.00062	2e-05	-8e-05	-0.00016	5
22040	-0.00031	-0.00015	-1e-05	-2e-05	0.00062	2e-05	-8e-05	-0.00016	5
22041	0.00047	0.00097	0.0001	-8e-05	0.00013	-7e-05	-5e-05	8e-05	5
22042	-0.00043	-0.00038	0	-0.00024	-0.00097	-2e-05	4e-05	-0.00015	5
22043	-0.00043	-0.00038	0	-0.00024	-0.00097	-2e-05	4e-05	-0.00015	5
22044	-0.00043	-0.00038	0	-0.00024	-0.00097	-2e-05	4e-05	-0.00015	5
22045	-0.00043	-0.00038	0	-0.00024	-0.00097	-2e-05	4e-05	-0.00015	5
22046	-0.00043	-0.00038	0	-0.00024	-0.00097	-2e-05	4e-05	-0.00015	5
22047	-0.00043	-0.00038	0	-0.00024	-0.00097	-2e-05	4e-05	-0.00015	5
22048	-0.00053	0.00016	-0.0001	-0.00034	-0.00041	-7e-05	-6e-05	-0.00019	5
22049	-0.00053	0.00016	-0.0001	-0.00034	-0.00041	-7e-05	-6e-05	-0.00019	5
22050	-0.00053	0.00016	-0.0001	-0.00034	-0.00041	-7e-05	-6e-05	-0.00019	5
22051	-0.00053	0.00016	-0.0001	-0.00034	-0.00041	-7e-05	-6e-05	-0.00019	5
22052	-0.00053	0.00016	-0.0001	-0.00034	-0.00041	-7e-05	-6e-05	-0.00019	5
22053	-0.00053	0.00016	-0.0001	-0.00034	-0.00041	-7e-05	-6e-05	-0.00019	5
22054	-0.00053	0.00016	-0.0001	-0.00034	-0.00041	-7e-05	-6e-05	-0.00019	5
22055	-0.00053	0.00016	-0.0001	-0.00034	-0.00041	-7e-05	-6e-05	-0.00019	5
22056	-0.00053	0.00016	-0.0001	-0.00034	-0.00041	-7e-05	-6e-05	-0.00019	5
22057	-0.00053	0.00016	-0.0001	-0.00034	-0.00041	-7e-05	-6e-05	-0.00019	5
22058	-0.00053	0.00016	-0.0001	-0.00034	-0.00041	-7e-05	-6e-05	-0.00019	5
22059	-0.00053	0.00016	-0.0001	-0.00034	-0.00041	-7e-05	-6e-05	-0.00019	5
22060	-0.00053	0.00016	-0.0001	-0.00034	-0.00041	-7e-05	-6e-05	-0.00019	5
22061	-0.00053	0.00016	-0.0001	-0.00034	-0.00041	-7e-05	-6e-05	-0.00019	5
22062	-0.00053	0.00016	-0.0001	-0.00034	-0.00041	-7e-05	-6e-05	-0.00019	5
22063	-0.00053	0.00016	-0.0001	-0.00034	-0.00041	-7e-05	-6e-05	-0.00019	5
22064	0.00024	0.0003	-2e-05	0.0002	0.00055	5e-05	8e-05	0.00016	5
22065	-7e-05	-4e-05	0.00014	4e-05	-0.00019	0.00011	0.00012	6e-05	5
22066	-8e-05	-0.00078	-8e-05	-2e-05	-0.00073	-0.00013	-7e-05	-4e-05	5
22067	-8e-05	-0.00078	-8e-05	-2e-05	-0.00073	-0.00013	-7e-05	-4e-05	5
22068	-8e-05	-0.00078	-8e-05	-2e-05	-0.00073	-0.00013	-7e-05	-4e-05	5
22069	-8e-05	-0.00078	-8e-05	-2e-05	-0.00073	-0.00013	-7e-05	-4e-05	5
22070	-8e-05	-0.00078	-8e-05	-2e-05	-0.00073	-0.00013	-7e-05	-4e-05	5
22071	-8e-05	-0.00078	-8e-05	-2e-05	-0.00073	-0.00013	-7e-05	-4e-05	5
22072	-8e-05	-0.00078	-8e-05	-2e-05	-0.00073	-0.00013	-7e-05	-4e-05	5
22073	-8e-05	-0.00078	-8e-05	-2e-05	-0.00073	-0.00013	-7e-05	-4e-05	5
22074	-8e-05	-0.00078	-8e-05	-2e-05	-0.00073	-0.00013	-7e-05	-4e-05	5
22075	-8e-05	-0.00078	-8e-05	-2e-05	-0.00073	-0.00013	-7e-05	-4e-05	5
22076	-8e-05	-0.00078	-8e-05	-2e-05	-0.00073	-0.00013	-7e-05	-4e-05	5
22077	-8e-05	-0.00078	-8e-05	-2e-05	-0.00073	-0.00013	-7e-05	-4e-05	5
22078	-8e-05	-0.00078	-8e-05	-2e-05	-0.00073	-0.00013	-7e-05	-4e-05	5
22079	-8e-05	-0.00078	-8e-05	-2e-05	-0.00073	-0.00013	-7e-05	-4e-05	5
22080	-8e-05	-0.00078	-8e-05	-2e-05	-0.00073	-0.00013	-7e-05	-4e-05	5
22081	-8e-05	-0.00078	-8e-05	-2e-05	-0.00073	-0.00013	-7e-05	-4e-05	5
22082	-8e-05	-0.00078	-8e-05	-2e-05	-0.00073	-0.00013	-7e-05	-4e-05	5
22083	-8e-05	-0.00078	-8e-05	-2e-05	-0.00073	-0.00013	-7e-05	-4e-05	5
22084	-8e-05	-0.00078	-8e-05	-2e-05	-0.00073	-0.00013	-7e-05	-4e-05	5
22085	-8e-05	-0.00078	-8e-05	-2e-05	-0.00073	-0.00013	-7e-05	-4e-05	5
22086	-8e-05	-0.00078	-8e-05	-2e-05	-0.00073	-0.00013	-7e-05	-4e-05	5
22088	-0.00014	0.00026	0.0001	-0.00013	-0.00034	-4e-05	2e-05	-0.00011	5
22089	-5e-05	-0.00072	-0.0004	-4e-05	0.00051	3e-05	-5e-05	-3e-05	5
22090	-5e-05	-0.00072	-0.0004	-4e-05	0.00051	3e-05	-5e-05	-3e-05	5
22091	-5e-05	-0.00072	-0.0004	-4e-05	0.00051	3e-05	-5e-05	-3e-05	5
22092	-5e-05	-0.00072	-0.0004	-4e-05	0.00051	3e-05	-5e-05	-3e-05	5
22093	-5e-05	-0.00072	-0.0004	-4e-05	0.00051	3e-05	-5e-05	-3e-05	5
22094	-5e-05	-0.00072	-0.0004	-4e-05	0.00051	3e-05	-5e-05	-3e-05	5
22095	-5e-05	-0.00072	-0.0004	-4e-05	0.00051	3e-05	-5e-05	-3e-05	5
22096	-5e-05	-0.00072	-0.0004	-4e-05	0.00051	3e-05	-5e-05	-3e-05	5
22097	-5e-05	-0.00072	-0.0004	-4e-05	0.00051	3e-05	-5e-05	-3e-05	5
22098	-5e-05	-0.00072	-0.0004	-4e-05	0.00051	3e-05	-5e-05	-3e-05	5
22099	-5e-05	-0.00072	-0.0004	-4e-05	0.00051	3e-05	-5e-05	-3e-05	5
22100	-5e-05	-0.00072	-0.0004	-4e-05	0.00051	3e-05	-5e-05	-3e-05	5
22101	-0.00031	0.00018	-0.00013	0.00024	0.00013	0.0001	5e-05	-3e-05	5
22102	-0.00031	0.00018	-0.00013	0.00024	0.00013	0.0001	5e-05	-3e-05	5
22103	-0.00031	0.00018	-0.00013	0.00024	0.00013	0.0001	5e-05	-3e-05	5
22104	-0.00031	0.00018	-0.00013	0.00024	0.00013	0.0001	5e-05	-3e-05	5
22105	-0.00031	0.00018	-0.00013	0.00024	0.00013	0.0001	5e-05	-3e-05	5
22106	-0.00031	0.00018	-0.00013	0.00024	0.00013	0.0001	5e-05	-3e-05	5
22107	-0.00031	0.00018	-0.00013	0.00024	0.00013	0.0001	5e-05	-3e-05	5
22108	-0.0002	0.00017	0.0001	8e-05	-0.00016	-2e-05	0	-8e-05	5
22109	-0.0002	0.00017	0.0001	8e-05	-0.00016	-2e-05	0	-8e-05	5
22110	-0.0002	0.00017	0.0001	8e-05	-0.00016	-2e-05	0	-8e-05	5
22112	-0.0002	0.00017	0.0001	8e-05	-0.00016	-2e-05	0	-8e-05	5
22113	-0.0002	0.00017	0.0001	8e-05	-0.00016	-2e-05	0	-8e-05	5
22114	-0.0002	0.00017	0.0001	8e-05	-0.00016	-2e-05	0	-8e-05	5
22115	-0.0002	0.00017	0.0001	8e-05	-0.00016	-2e-05	0	-8e-05	5
22116	-0.0002	0.00017	0.0001	8e-05	-0.00016	-2e-05	0	-8e-05	5
22117	-0.0002	0.00017	0.0001	8e-05	-0.00016	-2e-05	0	-8e-05	5
22118	-0.0002	0.00017	0.0001	8e-05	-0.00016	-2e-05	0	-8e-05	5
22119	-0.0002	0.00017	0.0001	8e-05	-0.00016	-2e-05	0	-8e-05	5
22120	-0.0002	0.00017	0.0001	8e-05	-0.00016	-2e-05	0	-8e-05	5
22121	-0.0002	0.00017	0.0001	8e-05	-0.00016	-2e-05	0	-8e-05	5
22122	-0.0002	0.00017	0.0001	8e-05	-0.00016	-2e-05	0	-8e-05	5
22123	-0.0002	0.00017	0.0001	8e-05	-0.00016	-2e-05	0	-8e-05	5
22124	0	-8e-05	-0.00026	-0.00033	-0.00069	-4e-05	-0.00011	2e-05	5
22125	0.00059	8e-05	0.00022	0.00033	0.00037	-0.0001	0.00014	-1e-05	5
22126	0.00014	0.00032	5e-05	-0.00021	-0.00079	-0.00032	-6e-05	4e-05	5
22127	0.00014	0.00032	5e-05	-0.00021	-0.00079	-0.00032	-6e-05	4e-05	5
22128	0.00014	0.00032	5e-05	-0.00021	-0.00079	-0.00032	-6e-05	4e-05	5
22129	0.00014	0.00032	5e-05	-0.00021	-0.00079	-0.00032	-6e-05	4e-05	5
22130	0.00014	0.00032	5e-05	-0.00021	-0.00079	-0.00032	-6e-05	4e-05	5
22131	0.00014	0.00032	5e-05	-0.00021	-0.00079	-0.00032	-6e-05	4e-05	5
22132	0.00014	0.00032	5e-05	-0.00021	-0.00079	-0.00032	-6e-05	4e-05	5
22133	0.00014	0.00032	5e-05	-0.00021	-0.00079	-0.00032	-6e-05	4e-05	5
22134	0.00014	0.00032	5e-05	-0.00021	-0.00079	-0.00032	-6e-05	4e-05	5
22135	0.00014	0.00032	5e-05	-0.00021	-0.00079	-0.00032	-6e-05	4e-05	5
22136	0.00014	0.00032	5e-05	-0.00021	-0.00079	-0.00032	-6e-05	4e-05	5
22138	0.00014	0.00032	5e-05	-0.00021	-0.00079	-0.00032	-6e-05	4e-05	5
22139	0.00014	0.00032	5e-05	-0.00021	-0.00079	-0.00032	-6e-05	4e-05	5
22140	0.00014	0.00032	5e-05	-0.00021	-0.00079	-0.00032	-6e-05	4e-05	5
22141	0.00014	0.00032	5e-05	-0.00021	-0.00079	-0.00032	-6e-05	4e-05	5
22142	0.00014	0.00032	5e-05	-0.00021	-0.00079	-0.00032	-6e-05	4e-05	5
22143	0.00014	0.00032	5e-05	-0.00021	-0.00079	-0.00032	-6e-05	4e-05	5
22144	0.00014	0.00032	5e-05	-0.00021	-0.00079	-0.00032	-6e-05	4e-05	5
22145	0.00014	0.00032	5e-05	-0.00021	-0.00079	-0.00032	-6e-05	4e-05	5
22146	0.00014	0.00032	5e-05	-0.00021	-0.00079	-0.00032	-6e-05	4e-05	5
22147	0.00014	0.00032	5e-05	-0.00021	-0.00079	-0.00032	-6e-05	4e-05	5
22148	0.00014	0.00032	5e-05	-0.00021	-0.00079	-0.00032	-6e-05	4e-05	5
22149	0.00014	0.00032	5e-05	-0.00021	-0.00079	-0.00032	-6e-05	4e-05	5
22150	0.00014	0.00032	5e-05	-0.00021	-0.00079	-0.00032	-6e-05	4e-05	5
22151	0.00014	0.00032	5e-05	-0.00021	-0.00079	-0.00032	-6e-05	4e-05	5
22152	0.00014	0.00032	5e-05	-0.00021	-0.00079	-0.00032	-6e-05	4e-05	5
22153	0.00014	0.00032	5e-05	-0.00021	-0.00079	-0.00032	-6e-05	4e-05	5
22154	-0.00084	-0.00011	-3e-05	0.00014	0.0002	0.0002	0	-0.00027	5
22155	0.00018	-0.00031	-4e-05	-0.00012	-0.00032	-5e-05	-0.0001	1e-05	5
22156	0.0001	0.0004	-3e-05	7e-05	0.0001	4e-05	-5e-05	-2e-05	5
22157	0.0001	0.0004	-3e-05	7e-05	0.0001	4e-05	-5e-05	-2e-05	5
22158	0.0001	0.0004	-3e-05	7e-05	0.0001	4e-05	-5e-05	-2e-05	5
22159	0.0001	0.0004	-3e-05	7e-05	0.0001	4e-05	-5e-05	-2e-05	5
22160	0.0001	0.0004	-3e-05	7e-05	0.0001	4e-05	-5e-05	-2e-05	5
22161	-3e-05	4e-05	-0.00015	6e-05	0.00018	-0.00012	-9e-05	-2e-05	5
22162	-3e-05	4e-05	-0.00015	6e-05	0.00018	-0.00012	-9e-05	-2e-05	5
22163	-3e-05	4e-05	-0.00015	6e-05	0.00018	-0.00012	-9e-05	-2e-05	5
22164	-3e-05	4e-05	-0.00015	6e-05	0.00018	-0.00012	-9e-05	-2e-05	5
22165	-3e-05	4e-05	-0.00015	6e-05	0.00018	-0.00012	-9e-05	-2e-05	5
22166	-3e-05	4e-05	-0.00015	6e-05	0.00018	-0.00012	-9e-05	-2e-05	5
22167	-3e-05	4e-05	-0.00015	6e-05	0.00018	-0.00012	-9e-05	-2e-05	5
22168	-0.00077	-0.00032	0.00011	-0.00024	-0.00042	-0.0001	-0.0001	-0.0002	5
22169	-0.00077	-0.00032	0.00011	-0.00024	-0.00042	-0.0001	-0.0001	-0.0002	5
22170	-0.00077	-0.00032	0.00011	-0.00024	-0.00042	-0.0001	-0.0001	-0.0002	5
22171	-0.00077	-0.00032	0.00011	-0.00024	-0.00042	-0.0001	-0.0001	-0.0002	5
22172	-0.00077	-0.00032	0.00011	-0.00024	-0.00042	-0.0001	-0.0001	-0.0002	5
22173	-0.00077	-0.00032	0.00011	-0.00024	-0.00042	-0.0001	-0.0001	-0.0002	5
22174	-0.00077	-0.00032	0.00011	-0.00024	-0.00042	-0.0001	-0.0001	-0.0002	5
22175	-0.00077	-0.00032	0.00011	-0.00024	-0.00042	-0.0001	-0.0001	-0.0002	5
22176	-0.00077	-0.00032	0.00011	-0.00024	-0.00042	-0.0001	-0.0001	-0.0002	5
22177	-0.00077	-0.00032	0.00011	-0.00024	-0.00042	-0.0001	-0.0001	-0.0002	5
22178	-0.00077	-0.00032	0.00011	-0.00024	-0.00042	-0.0001	-0.0001	-0.0002	5
22179	-0.00077	-0.00032	0.00011	-0.00024	-0.00042	-0.0001	-0.0001	-0.0002	5
22180	-0.00077	-0.00032	0.00011	-0.00024	-0.00042	-0.0001	-0.0001	-0.0002	5
22181	-0.00077	-0.00032	0.00011	-0.00024	-0.00042	-0.0001	-0.0001	-0.0002	5
22182	-0.00077	-0.00032	0.00011	-0.00024	-0.00042	-0.0001	-0.0001	-0.0002	5
22183	-0.00077	-0.00032	0.00011	-0.00024	-0.00042	-0.0001	-0.0001	-0.0002	5
22184	-0.00077	-0.00032	0.00011	-0.00024	-0.00042	-0.0001	-0.0001	-0.0002	5
22185	0.00017	-0.00034	-5e-05	7e-05	-7e-05	-1e-05	1e-05	5e-05	5
22186	0.00017	-0.00034	-5e-05	7e-05	-7e-05	-1e-05	1e-05	5e-05	5
22188	0.00025	-0.00032	0.00022	0.00027	0.00046	0.00017	0.00015	0.00013	5
22189	0.00025	-0.00032	0.00022	0.00027	0.00046	0.00017	0.00015	0.00013	5
22190	0.00025	-0.00032	0.00022	0.00027	0.00046	0.00017	0.00015	0.00013	5
22191	0.00025	-0.00032	0.00022	0.00027	0.00046	0.00017	0.00015	0.00013	5
22192	0.00025	-0.00032	0.00022	0.00027	0.00046	0.00017	0.00015	0.00013	5
22193	0.00025	-0.00032	0.00022	0.00027	0.00046	0.00017	0.00015	0.00013	5
22194	0.00025	-0.00032	0.00022	0.00027	0.00046	0.00017	0.00015	0.00013	5
22195	0.00025	-0.00032	0.00022	0.00027	0.00046	0.00017	0.00015	0.00013	5
22196	0.00025	-0.00032	0.00022	0.00027	0.00046	0.00017	0.00015	0.00013	5
22197	0.00025	-0.00032	0.00022	0.00027	0.00046	0.00017	0.00015	0.00013	5
22198	0.00025	-0.00032	0.00022	0.00027	0.00046	0.00017	0.00015	0.00013	5
22199	0.00025	-0.00032	0.00022	0.00027	0.00046	0.00017	0.00015	0.00013	5
22200	0.00025	-0.00032	0.00022	0.00027	0.00046	0.00017	0.00015	0.00013	5
22201	0.00025	-0.00032	0.00022	0.00027	0.00046	0.00017	0.00015	0.00013	5
22202	0.00025	-0.00032	0.00022	0.00027	0.00046	0.00017	0.00015	0.00013	5
22203	0.00025	-0.00032	0.00022	0.00027	0.00046	0.00017	0.00015	0.00013	5
22204	0.00025	-0.00032	0.00022	0.00027	0.00046	0.00017	0.00015	0.00013	5
22205	0.00025	-0.00032	0.00022	0.00027	0.00046	0.00017	0.00015	0.00013	5
22206	0.00025	-0.00032	0.00022	0.00027	0.00046	0.00017	0.00015	0.00013	5
22207	0.00025	-0.00032	0.00022	0.00027	0.00046	0.00017	0.00015	0.00013	5
22208	-0.00011	-0.00035	5e-05	-1e-05	-6e-05	-4e-05	-5e-05	-0.00013	5
22209	0.00026	-8e-05	-0.00013	-2e-05	0.00048	-5e-05	-6e-05	4e-05	5
22210	0.00026	-8e-05	-0.00013	-2e-05	0.00048	-5e-05	-6e-05	4e-05	5
22211	0.00026	-8e-05	-0.00013	-2e-05	0.00048	-5e-05	-6e-05	4e-05	5
22212	0.00026	-8e-05	-0.00013	-2e-05	0.00048	-5e-05	-6e-05	4e-05	5
22213	0.00026	-8e-05	-0.00013	-2e-05	0.00048	-5e-05	-6e-05	4e-05	5
22214	0.00026	-8e-05	-0.00013	-2e-05	0.00048	-5e-05	-6e-05	4e-05	5
22215	0.00026	-8e-05	-0.00013	-2e-05	0.00048	-5e-05	-6e-05	4e-05	5
22216	0.00026	-8e-05	-0.00013	-2e-05	0.00048	-5e-05	-6e-05	4e-05	5
22217	0.00026	-8e-05	-0.00013	-2e-05	0.00048	-5e-05	-6e-05	4e-05	5
22218	0.00026	-8e-05	-0.00013	-2e-05	0.00048	-5e-05	-6e-05	4e-05	5
22219	0.00026	-8e-05	-0.00013	-2e-05	0.00048	-5e-05	-6e-05	4e-05	5
22220	0.00026	-8e-05	-0.00013	-2e-05	0.00048	-5e-05	-6e-05	4e-05	5
22221	-0.0001	0.00046	0.00012	-9e-05	-0.00111	-0.00021	-7e-05	-5e-05	5
22222	-0.0001	0.00046	0.00012	-9e-05	-0.00111	-0.00021	-7e-05	-5e-05	5
22223	-0.0001	0.00046	0.00012	-9e-05	-0.00111	-0.00021	-7e-05	-5e-05	5
22224	-0.0001	0.00046	0.00012	-9e-05	-0.00111	-0.00021	-7e-05	-5e-05	5
22225	-0.0001	0.00046	0.00012	-9e-05	-0.00111	-0.00021	-7e-05	-5e-05	5
22226	-0.0001	0.00046	0.00012	-9e-05	-0.00111	-0.00021	-7e-05	-5e-05	5
22227	-0.0001	0.00046	0.00012	-9e-05	-0.00111	-0.00021	-7e-05	-5e-05	5
22228	0.0007	0.00015	3e-05	0.00012	0.00053	0.00022	0.00012	0.0001	5
22229	0.0007	0.00015	3e-05	0.00012	0.00053	0.00022	0.00012	0.0001	5
22230	0.0007	0.00015	3e-05	0.00012	0.00053	0.00022	0.00012	0.0001	5
22231	0.0007	0.00015	3e-05	0.00012	0.00053	0.00022	0.00012	0.0001	5
22232	0.0007	0.00015	3e-05	0.00012	0.00053	0.00022	0.00012	0.0001	5
22233	0.0007	0.00015	3e-05	0.00012	0.00053	0.00022	0.00012	0.0001	5
22234	0.0007	0.00015	3e-05	0.00012	0.00053	0.00022	0.00012	0.0001	5
22235	0.0007	0.00015	3e-05	0.00012	0.00053	0.00022	0.00012	0.0001	5
22236	0.0007	0.00015	3e-05	0.00012	0.00053	0.00022	0.00012	0.0001	5
22238	0.0007	0.00015	3e-05	0.00012	0.00053	0.00022	0.00012	0.0001	5
22239	0.0007	0.00015	3e-05	0.00012	0.00053	0.00022	0.00012	0.0001	5
22240	0.0007	0.00015	3e-05	0.00012	0.00053	0.00022	0.00012	0.0001	5
22241	0.0007	0.00015	3e-05	0.00012	0.00053	0.00022	0.00012	0.0001	5
22242	0.0007	0.00015	3e-05	0.00012	0.00053	0.00022	0.00012	0.0001	5
22243	0.0007	0.00015	3e-05	0.00012	0.00053	0.00022	0.00012	0.0001	5
22244	-0.00059	-0.00012	-5e-05	-0.00016	0.00014	-0.00022	-9e-05	-8e-05	5
22245	-0.0001	0.0001	-0.00019	6e-05	-0.00024	0	1e-05	-4e-05	5
22246	0.00015	-0.00048	2e-05	7e-05	-7e-05	-0.00017	-2e-05	0.00013	5
22247	0.00015	-0.00048	2e-05	7e-05	-7e-05	-0.00017	-2e-05	0.00013	5
22248	0.00015	-0.00048	2e-05	7e-05	-7e-05	-0.00017	-2e-05	0.00013	5
22249	0.00015	-0.00048	2e-05	7e-05	-7e-05	-0.00017	-2e-05	0.00013	5
22250	0.00015	-0.00048	2e-05	7e-05	-7e-05	-0.00017	-2e-05	0.00013	5
22251	0.00015	-0.00048	2e-05	7e-05	-7e-05	-0.00017	-2e-05	0.00013	5
22252	0.00015	-0.00048	2e-05	7e-05	-7e-05	-0.00017	-2e-05	0.00013	5
22253	0.00015	-0.00048	2e-05	7e-05	-7e-05	-0.00017	-2e-05	0.00013	5
22254	0.00015	-0.00048	2e-05	7e-05	-7e-05	-0.00017	-2e-05	0.00013	5
22255	0.00015	-0.00048	2e-05	7e-05	-7e-05	-0.00017	-2e-05	0.00013	5
22256	0.00015	-0.00048	2e-05	7e-05	-7e-05	-0.00017	-2e-05	0.00013	5
22257	0.00015	-0.00048	2e-05	7e-05	-7e-05	-0.00017	-2e-05	0.00013	5
22258	0.00015	-0.00048	2e-05	7e-05	-7e-05	-0.00017	-2e-05	0.00013	5
22259	0.00015	-0.00048	2e-05	7e-05	-7e-05	-0.00017	-2e-05	0.00013	5
22260	0.00015	-0.00048	2e-05	7e-05	-7e-05	-0.00017	-2e-05	0.00013	5
22261	0.00015	-0.00048	2e-05	7e-05	-7e-05	-0.00017	-2e-05	0.00013	5
22262	0.00015	-0.00048	2e-05	7e-05	-7e-05	-0.00017	-2e-05	0.00013	5
22263	0.00015	-0.00048	2e-05	7e-05	-7e-05	-0.00017	-2e-05	0.00013	5
22264	0.00015	-0.00048	2e-05	7e-05	-7e-05	-0.00017	-2e-05	0.00013	5
22265	0.00015	-0.00048	2e-05	7e-05	-7e-05	-0.00017	-2e-05	0.00013	5
22266	0.00015	-0.00048	2e-05	7e-05	-7e-05	-0.00017	-2e-05	0.00013	5
22267	-0.00016	0.00014	0.0001	-0.00016	-0.00064	-0.00017	-6e-05	5e-05	5
22268	-0.00046	-0.00032	-9e-05	3e-05	0.00079	-5e-05	-0.0001	-0.0002	5
22269	0.00036	0.00032	-9e-05	-8e-05	-0.00045	0	-0.00013	0	5
22270	0.00036	0.00032	-9e-05	-8e-05	-0.00045	0	-0.00013	0	5
22271	0.00036	0.00032	-9e-05	-8e-05	-0.00045	0	-0.00013	0	5
22272	0.00036	0.00032	-9e-05	-8e-05	-0.00045	0	-0.00013	0	5
22273	0.00036	0.00032	-9e-05	-8e-05	-0.00045	0	-0.00013	0	5
22274	0.00036	0.00032	-9e-05	-8e-05	-0.00045	0	-0.00013	0	5
22275	0.00036	0.00032	-9e-05	-8e-05	-0.00045	0	-0.00013	0	5
22276	0.00036	0.00032	-9e-05	-8e-05	-0.00045	0	-0.00013	0	5
22277	0.00036	0.00032	-9e-05	-8e-05	-0.00045	0	-0.00013	0	5
22278	0.00036	0.00032	-9e-05	-8e-05	-0.00045	0	-0.00013	0	5
22279	0.00036	0.00032	-9e-05	-8e-05	-0.00045	0	-0.00013	0	5
22280	0.00036	0.00032	-9e-05	-8e-05	-0.00045	0	-0.00013	0	5
22281	0.00036	0.00032	-9e-05	-8e-05	-0.00045	0	-0.00013	0	5
22282	0.00036	0.00032	-9e-05	-8e-05	-0.00045	0	-0.00013	0	5
22283	0.00036	0.00032	-9e-05	-8e-05	-0.00045	0	-0.00013	0	5
22284	0.00036	0.00032	-9e-05	-8e-05	-0.00045	0	-0.00013	0	5
22285	0.00036	0.00032	-9e-05	-8e-05	-0.00045	0	-0.00013	0	5
22286	0.00036	0.00032	-9e-05	-8e-05	-0.00045	0	-0.00013	0	5
22288	-0.00042	-3e-05	-0.00022	-0.00039	-0.00043	-0.00035	-8e-05	-0.00014	5
22290	0	-0.00053	-9e-05	0.00024	0.00105	0.00031	2e-05	2e-05	5
22291	0	-0.00053	-9e-05	0.00024	0.00105	0.00031	2e-05	2e-05	5
22292	-1e-05	-0.00023	0.00018	-7e-05	-0.00036	7e-05	0.00011	0.00014	5
22293	-1e-05	-0.00023	0.00018	-7e-05	-0.00036	7e-05	0.00011	0.00014	5
22294	-1e-05	-0.00023	0.00018	-7e-05	-0.00036	7e-05	0.00011	0.00014	5
22295	-1e-05	-0.00023	0.00018	-7e-05	-0.00036	7e-05	0.00011	0.00014	5
22296	-1e-05	-0.00023	0.00018	-7e-05	-0.00036	7e-05	0.00011	0.00014	5
22297	-1e-05	-0.00023	0.00018	-7e-05	-0.00036	7e-05	0.00011	0.00014	5
22298	-1e-05	-0.00023	0.00018	-7e-05	-0.00036	7e-05	0.00011	0.00014	5
22299	-1e-05	-0.00023	0.00018	-7e-05	-0.00036	7e-05	0.00011	0.00014	5
22300	-1e-05	-0.00023	0.00018	-7e-05	-0.00036	7e-05	0.00011	0.00014	5
22301	-1e-05	-0.00023	0.00018	-7e-05	-0.00036	7e-05	0.00011	0.00014	5
22302	-1e-05	-0.00023	0.00018	-7e-05	-0.00036	7e-05	0.00011	0.00014	5
22303	-1e-05	-0.00023	0.00018	-7e-05	-0.00036	7e-05	0.00011	0.00014	5
22304	-0.00014	-0.0004	-0.00034	-0.00018	-0.00034	-0.00011	-7e-05	-0.00014	5
22305	-0.00014	-0.0004	-0.00034	-0.00018	-0.00034	-0.00011	-7e-05	-0.00014	5
22306	-0.00025	-0.00079	-0.00012	-5e-05	0	-2e-05	-7e-05	-8e-05	5
22307	-0.00025	-0.00079	-0.00012	-5e-05	0	-2e-05	-7e-05	-8e-05	5
22308	-0.00025	-0.00079	-0.00012	-5e-05	0	-2e-05	-7e-05	-8e-05	5
22309	-0.00025	-0.00079	-0.00012	-5e-05	0	-2e-05	-7e-05	-8e-05	5
22310	-0.00025	-0.00079	-0.00012	-5e-05	0	-2e-05	-7e-05	-8e-05	5
22311	-0.00025	-0.00079	-0.00012	-5e-05	0	-2e-05	-7e-05	-8e-05	5
22312	-0.00025	-0.00079	-0.00012	-5e-05	0	-2e-05	-7e-05	-8e-05	5
22313	-0.00025	-0.00079	-0.00012	-5e-05	0	-2e-05	-7e-05	-8e-05	5
22314	-0.00025	-0.00079	-0.00012	-5e-05	0	-2e-05	-7e-05	-8e-05	5
22315	-0.00025	-0.00079	-0.00012	-5e-05	0	-2e-05	-7e-05	-8e-05	5
22316	-0.00025	-0.00079	-0.00012	-5e-05	0	-2e-05	-7e-05	-8e-05	5
22317	-0.00025	-0.00079	-0.00012	-5e-05	0	-2e-05	-7e-05	-8e-05	5
22318	-0.00025	-0.00079	-0.00012	-5e-05	0	-2e-05	-7e-05	-8e-05	5
22319	-0.00025	-0.00079	-0.00012	-5e-05	0	-2e-05	-7e-05	-8e-05	5
22320	-0.00025	-0.00079	-0.00012	-5e-05	0	-2e-05	-7e-05	-8e-05	5
22321	-0.00025	-0.00079	-0.00012	-5e-05	0	-2e-05	-7e-05	-8e-05	5
22322	-0.00025	-0.00079	-0.00012	-5e-05	0	-2e-05	-7e-05	-8e-05	5
22323	-0.00025	-0.00079	-0.00012	-5e-05	0	-2e-05	-7e-05	-8e-05	5
22324	-0.00025	-0.00079	-0.00012	-5e-05	0	-2e-05	-7e-05	-8e-05	5
22325	-0.00025	-0.00079	-0.00012	-5e-05	0	-2e-05	-7e-05	-8e-05	5
22326	-0.00025	-0.00079	-0.00012	-5e-05	0	-2e-05	-7e-05	-8e-05	5
22327	-0.0003	0.00039	0.0002	0	0.00036	5e-05	1e-05	-8e-05	5
22328	0.00056	-0.00031	0.00011	5e-05	-0.00018	0.00022	0.00021	0.00014	5
22329	4e-05	0.0005	-0.00018	-1e-05	-0.00011	-0.00017	-6e-05	-9e-05	5
22330	4e-05	0.0005	-0.00018	-1e-05	-0.00011	-0.00017	-6e-05	-9e-05	5
22331	4e-05	0.0005	-0.00018	-1e-05	-0.00011	-0.00017	-6e-05	-9e-05	5
22332	4e-05	0.0005	-0.00018	-1e-05	-0.00011	-0.00017	-6e-05	-9e-05	5
22333	4e-05	0.0005	-0.00018	-1e-05	-0.00011	-0.00017	-6e-05	-9e-05	5
22334	4e-05	0.0005	-0.00018	-1e-05	-0.00011	-0.00017	-6e-05	-9e-05	5
22335	4e-05	0.0005	-0.00018	-1e-05	-0.00011	-0.00017	-6e-05	-9e-05	5
22336	4e-05	0.0005	-0.00018	-1e-05	-0.00011	-0.00017	-6e-05	-9e-05	5
22338	4e-05	0.0005	-0.00018	-1e-05	-0.00011	-0.00017	-6e-05	-9e-05	5
22339	4e-05	0.0005	-0.00018	-1e-05	-0.00011	-0.00017	-6e-05	-9e-05	5
22340	4e-05	0.0005	-0.00018	-1e-05	-0.00011	-0.00017	-6e-05	-9e-05	5
22342	0.00062	-0.00021	-0.00012	-0.00013	-0.00046	-0.00017	-5e-05	2e-05	5
22343	0.00062	-0.00021	-0.00012	-0.00013	-0.00046	-0.00017	-5e-05	2e-05	5
22344	0.00062	-0.00021	-0.00012	-0.00013	-0.00046	-0.00017	-5e-05	2e-05	5
22345	0.00062	-0.00021	-0.00012	-0.00013	-0.00046	-0.00017	-5e-05	2e-05	5
22346	0.00062	-0.00021	-0.00012	-0.00013	-0.00046	-0.00017	-5e-05	2e-05	5
22347	0.00062	-0.00021	-0.00012	-0.00013	-0.00046	-0.00017	-5e-05	2e-05	5
22348	0.00062	-0.00021	-0.00012	-0.00013	-0.00046	-0.00017	-5e-05	2e-05	5
22349	-0.00028	0	3e-05	-0.00023	-0.00027	2e-05	5e-05	-1e-05	5
22350	-0.0002	5e-05	4e-05	0.00021	0.0006	2e-05	-4e-05	-0.00011	5
22351	-0.0002	5e-05	4e-05	0.00021	0.0006	2e-05	-4e-05	-0.00011	5
22352	-0.0002	5e-05	4e-05	0.00021	0.0006	2e-05	-4e-05	-0.00011	5
22353	-0.0002	5e-05	4e-05	0.00021	0.0006	2e-05	-4e-05	-0.00011	5
22354	-0.0002	5e-05	4e-05	0.00021	0.0006	2e-05	-4e-05	-0.00011	5
22355	-0.0002	5e-05	4e-05	0.00021	0.0006	2e-05	-4e-05	-0.00011	5
22356	-0.0002	5e-05	4e-05	0.00021	0.0006	2e-05	-4e-05	-0.00011	5
22357	-0.0002	5e-05	4e-05	0.00021	0.0006	2e-05	-4e-05	-0.00011	5
22358	-0.0002	5e-05	4e-05	0.00021	0.0006	2e-05	-4e-05	-0.00011	5
22359	-0.0002	5e-05	4e-05	0.00021	0.0006	2e-05	-4e-05	-0.00011	5
22360	-0.0002	5e-05	4e-05	0.00021	0.0006	2e-05	-4e-05	-0.00011	5
22361	-0.0002	5e-05	4e-05	0.00021	0.0006	2e-05	-4e-05	-0.00011	5
22362	-0.0002	5e-05	4e-05	0.00021	0.0006	2e-05	-4e-05	-0.00011	5
22363	-0.0002	5e-05	4e-05	0.00021	0.0006	2e-05	-4e-05	-0.00011	5
22364	-0.00019	-0.0002	-6e-05	-0.00031	-0.00064	-0.00012	-3e-05	-5e-05	5
22365	0.00036	7e-05	3e-05	7e-05	-0.00013	1e-05	-2e-05	9e-05	5
22366	-0.00064	-0.00039	0	0.0003	0.00054	0.00015	0.00013	0.00011	5
22367	-0.00064	-0.00039	0	0.0003	0.00054	0.00015	0.00013	0.00011	5
22368	-0.00064	-0.00039	0	0.0003	0.00054	0.00015	0.00013	0.00011	5
22369	-0.00064	-0.00039	0	0.0003	0.00054	0.00015	0.00013	0.00011	5
22370	-0.00064	-0.00039	0	0.0003	0.00054	0.00015	0.00013	0.00011	5
22371	-0.00064	-0.00039	0	0.0003	0.00054	0.00015	0.00013	0.00011	5
22372	-0.00064	-0.00039	0	0.0003	0.00054	0.00015	0.00013	0.00011	5
22373	-0.00064	-0.00039	0	0.0003	0.00054	0.00015	0.00013	0.00011	5
22374	-0.00064	-0.00039	0	0.0003	0.00054	0.00015	0.00013	0.00011	5
22375	-0.00064	-0.00039	0	0.0003	0.00054	0.00015	0.00013	0.00011	5
22376	-0.00064	-0.00039	0	0.0003	0.00054	0.00015	0.00013	0.00011	5
22377	-0.00064	-0.00039	0	0.0003	0.00054	0.00015	0.00013	0.00011	5
22378	-0.00064	-0.00039	0	0.0003	0.00054	0.00015	0.00013	0.00011	5
22379	-0.00064	-0.00039	0	0.0003	0.00054	0.00015	0.00013	0.00011	5
22380	-0.00064	-0.00039	0	0.0003	0.00054	0.00015	0.00013	0.00011	5
22381	-0.00064	-0.00039	0	0.0003	0.00054	0.00015	0.00013	0.00011	5
22382	-0.00064	-0.00039	0	0.0003	0.00054	0.00015	0.00013	0.00011	5
22383	-0.00064	-0.00039	0	0.0003	0.00054	0.00015	0.00013	0.00011	5
22384	-0.00064	-0.00039	0	0.0003	0.00054	0.00015	0.00013	0.00011	5
22385	-0.00064	-0.00039	0	0.0003	0.00054	0.00015	0.00013	0.00011	5
22386	-0.00064	-0.00039	0	0.0003	0.00054	0.00015	0.00013	0.00011	5
22389	-0.00037	0.0001	5e-05	-0.00029	-0.00022	-9e-05	-2e-05	-0.00014	5
22390	-0.00037	0.0001	5e-05	-0.00029	-0.00022	-9e-05	-2e-05	-0.00014	5
22391	-0.00037	0.0001	5e-05	-0.00029	-0.00022	-9e-05	-2e-05	-0.00014	5
22392	-0.00037	0.0001	5e-05	-0.00029	-0.00022	-9e-05	-2e-05	-0.00014	5
22393	-0.00037	0.0001	5e-05	-0.00029	-0.00022	-9e-05	-2e-05	-0.00014	5
22394	-0.00037	0.0001	5e-05	-0.00029	-0.00022	-9e-05	-2e-05	-0.00014	5
22395	-0.00037	0.0001	5e-05	-0.00029	-0.00022	-9e-05	-2e-05	-0.00014	5
22396	-0.00037	0.0001	5e-05	-0.00029	-0.00022	-9e-05	-2e-05	-0.00014	5
22397	-0.00037	0.0001	5e-05	-0.00029	-0.00022	-9e-05	-2e-05	-0.00014	5
22398	-0.00037	0.0001	5e-05	-0.00029	-0.00022	-9e-05	-2e-05	-0.00014	5
22399	-0.00037	0.0001	5e-05	-0.00029	-0.00022	-9e-05	-2e-05	-0.00014	5
22400	0.00039	0.0002	-0.00011	0.00015	0.00025	8e-05	7e-05	0.00018	5
22401	0.00011	-0.00027	-8e-05	-0.00019	-0.00026	-8e-05	-3e-05	2e-05	5
22402	0.00011	-0.00027	-8e-05	-0.00019	-0.00026	-8e-05	-3e-05	2e-05	5
22403	0.00011	-0.00027	-8e-05	-0.00019	-0.00026	-8e-05	-3e-05	2e-05	5
22404	0.00011	-0.00027	-8e-05	-0.00019	-0.00026	-8e-05	-3e-05	2e-05	5
22405	0.00011	-0.00027	-8e-05	-0.00019	-0.00026	-8e-05	-3e-05	2e-05	5
22406	0.00011	-0.00027	-8e-05	-0.00019	-0.00026	-8e-05	-3e-05	2e-05	5
22407	0.00011	-0.00027	-8e-05	-0.00019	-0.00026	-8e-05	-3e-05	2e-05	5
22408	0.00011	-0.00027	-8e-05	-0.00019	-0.00026	-8e-05	-3e-05	2e-05	5
22409	-0.00035	0	7e-05	0.00018	0.00035	9e-05	-4e-05	-3e-05	5
22410	0.00041	0.0005	-3e-05	-0.00011	4e-05	0	2e-05	-3e-05	5
22411	0.00041	0.0005	-3e-05	-0.00011	4e-05	0	2e-05	-3e-05	5
22412	0.00041	0.0005	-3e-05	-0.00011	4e-05	0	2e-05	-3e-05	5
22413	0.00041	0.0005	-3e-05	-0.00011	4e-05	0	2e-05	-3e-05	5
22414	0.00041	0.0005	-3e-05	-0.00011	4e-05	0	2e-05	-3e-05	5
22415	0.00041	0.0005	-3e-05	-0.00011	4e-05	0	2e-05	-3e-05	5
22416	0.00041	0.0005	-3e-05	-0.00011	4e-05	0	2e-05	-3e-05	5
22417	0.00041	0.0005	-3e-05	-0.00011	4e-05	0	2e-05	-3e-05	5
22418	0.00041	0.0005	-3e-05	-0.00011	4e-05	0	2e-05	-3e-05	5
22419	0.00041	0.0005	-3e-05	-0.00011	4e-05	0	2e-05	-3e-05	5
22420	0.00041	0.0005	-3e-05	-0.00011	4e-05	0	2e-05	-3e-05	5
22421	0.00041	0.0005	-3e-05	-0.00011	4e-05	0	2e-05	-3e-05	5
22422	0.00041	0.0005	-3e-05	-0.00011	4e-05	0	2e-05	-3e-05	5
22423	0.00041	0.0005	-3e-05	-0.00011	4e-05	0	2e-05	-3e-05	5
22424	0.00045	-0.00033	-5e-05	2e-05	-0.00032	8e-05	5e-05	0.00021	5
22425	0.00045	-0.00033	-5e-05	2e-05	-0.00032	8e-05	5e-05	0.00021	5
22426	0.00045	-0.00033	-5e-05	2e-05	-0.00032	8e-05	5e-05	0.00021	5
22427	0.00045	-0.00033	-5e-05	2e-05	-0.00032	8e-05	5e-05	0.00021	5
22428	0.00045	-0.00033	-5e-05	2e-05	-0.00032	8e-05	5e-05	0.00021	5
22429	0.00045	-0.00033	-5e-05	2e-05	-0.00032	8e-05	5e-05	0.00021	5
22430	-0.00018	-0.0005	-0.00017	-5e-05	0.00062	0.00021	0.0002	0	5
22431	-0.00015	0.00016	7e-05	7e-05	7e-05	4e-05	-4e-05	2e-05	5
22432	-0.00015	0.00016	7e-05	7e-05	7e-05	4e-05	-4e-05	2e-05	5
22433	-0.00015	0.00016	7e-05	7e-05	7e-05	4e-05	-4e-05	2e-05	5
22434	-0.00015	0.00016	7e-05	7e-05	7e-05	4e-05	-4e-05	2e-05	5
22435	-0.00015	0.00016	7e-05	7e-05	7e-05	4e-05	-4e-05	2e-05	5
