9968	-0.00024	-0.00013	-3e-05	-2e-05	-2e-05	3e-05	-5e-05	-0.00024	3
9969	-0.00024	-0.00013	-3e-05	-2e-05	-2e-05	3e-05	-5e-05	-0.00024	3
9970	-5e-05	-7e-05	-8e-05	-7e-05	-2e-05	-1e-05	4e-05	0.00016	3
9971	-5e-05	-7e-05	-8e-05	-7e-05	-2e-05	-1e-05	4e-05	0.00016	3
9972	-5e-05	-7e-05	-8e-05	-7e-05	-2e-05	-1e-05	4e-05	0.00016	3
9973	-5e-05	-7e-05	-8e-05	-7e-05	-2e-05	-1e-05	4e-05	0.00016	3
9974	-5e-05	-7e-05	-8e-05	-7e-05	-2e-05	-1e-05	4e-05	0.00016	3
9975	-5e-05	-7e-05	-8e-05	-7e-05	-2e-05	-1e-05	4e-05	0.00016	3
9976	-5e-05	-7e-05	-8e-05	-7e-05	-2e-05	-1e-05	4e-05	0.00016	3
9977	-5e-05	-7e-05	-8e-05	-7e-05	-2e-05	-1e-05	4e-05	0.00016	3
9978	-5e-05	-7e-05	-8e-05	-7e-05	-2e-05	-1e-05	4e-05	0.00016	3
9979	0.00014	0.0001	2e-05	1e-05	1e-05	2e-05	-4e-05	4e-05	3
9980	0.00014	0.0001	2e-05	1e-05	1e-05	2e-05	-4e-05	4e-05	3
9981	0.00014	0.0001	2e-05	1e-05	1e-05	2e-05	-4e-05	4e-05	3
9982	0.00014	0.0001	2e-05	1e-05	1e-05	2e-05	-4e-05	4e-05	3
9983	0.00014	0.0001	2e-05	1e-05	1e-05	2e-05	-4e-05	4e-05	3
9984	0.00014	0.0001	2e-05	1e-05	1e-05	2e-05	-4e-05	4e-05	3
9985	0.00014	0.0001	2e-05	1e-05	1e-05	2e-05	-4e-05	4e-05	3
9986	0.00014	0.0001	2e-05	1e-05	1e-05	2e-05	-4e-05	4e-05	3
9988	0.00014	0.0001	2e-05	1e-05	1e-05	2e-05	-4e-05	4e-05	3
9989	0.00014	0.0001	2e-05	1e-05	1e-05	2e-05	-4e-05	4e-05	3
9990	0.00014	0.0001	2e-05	1e-05	1e-05	2e-05	-4e-05	4e-05	3
9991	0.00014	0.0001	2e-05	1e-05	1e-05	2e-05	-4e-05	4e-05	3
9992	0.00014	0.0001	2e-05	1e-05	1e-05	2e-05	-4e-05	4e-05	3
9993	0.00014	0.0001	2e-05	1e-05	1e-05	2e-05	-4e-05	4e-05	3
9994	0.00014	0.0001	2e-05	1e-05	1e-05	2e-05	-4e-05	4e-05	3
9995	0.00014	0.0001	2e-05	1e-05	1e-05	2e-05	-4e-05	4e-05	3
9996	0.00014	0.0001	2e-05	1e-05	1e-05	2e-05	-4e-05	4e-05	3
9997	0.00014	0.0001	2e-05	1e-05	1e-05	2e-05	-4e-05	4e-05	3
9998	0.00014	0.0001	2e-05	1e-05	1e-05	2e-05	-4e-05	4e-05	3
9999	0.00014	0.0001	2e-05	1e-05	1e-05	2e-05	-4e-05	4e-05	3
10000	0.00014	0.0001	2e-05	1e-05	1e-05	2e-05	-4e-05	4e-05	3
10001	7e-05	5e-05	1e-05	-1e-05	-2e-05	-3e-05	-0.00016	0.00011	3
10002	7e-05	5e-05	1e-05	-1e-05	-2e-05	-3e-05	-0.00016	0.00011	3
10003	8e-05	-4e-05	-1e-05	-1e-05	3e-05	9e-05	-2e-05	-3e-05	3
10004	8e-05	-4e-05	-1e-05	-1e-05	3e-05	9e-05	-2e-05	-3e-05	3
10005	8e-05	-4e-05	-1e-05	-1e-05	3e-05	9e-05	-2e-05	-3e-05	3
10006	8e-05	-4e-05	-1e-05	-1e-05	3e-05	9e-05	-2e-05	-3e-05	3
10007	8e-05	-4e-05	-1e-05	-1e-05	3e-05	9e-05	-2e-05	-3e-05	3
10008	8e-05	-4e-05	-1e-05	-1e-05	3e-05	9e-05	-2e-05	-3e-05	3
10009	8e-05	-4e-05	-1e-05	-1e-05	3e-05	9e-05	-2e-05	-3e-05	3
10010	8e-05	-4e-05	-1e-05	-1e-05	3e-05	9e-05	-2e-05	-3e-05	3
10011	8e-05	-4e-05	-1e-05	-1e-05	3e-05	9e-05	-2e-05	-3e-05	3
10012	8e-05	-4e-05	-1e-05	-1e-05	3e-05	9e-05	-2e-05	-3e-05	3
10013	8e-05	-4e-05	-1e-05	-1e-05	3e-05	9e-05	-2e-05	-3e-05	3
10014	8e-05	-4e-05	-1e-05	-1e-05	3e-05	9e-05	-2e-05	-3e-05	3
10015	8e-05	-4e-05	-1e-05	-1e-05	3e-05	9e-05	-2e-05	-3e-05	3
10016	7e-05	0.0002	3e-05	4e-05	6e-05	4e-05	-7e-05	-0.00013	3
10017	7e-05	0.0002	3e-05	4e-05	6e-05	4e-05	-7e-05	-0.00013	3
10018	-2e-05	-0.0001	2e-05	3e-05	3e-05	1e-05	0.00023	0.00014	3
10019	-2e-05	-0.0001	2e-05	3e-05	3e-05	1e-05	0.00023	0.00014	3
10021	-2e-05	-0.0001	2e-05	3e-05	3e-05	1e-05	0.00023	0.00014	3
10022	-2e-05	-0.0001	2e-05	3e-05	3e-05	1e-05	0.00023	0.00014	3
10023	-2e-05	-0.0001	2e-05	3e-05	3e-05	1e-05	0.00023	0.00014	3
10024	-2e-05	-0.0001	2e-05	3e-05	3e-05	1e-05	0.00023	0.00014	3
10025	-2e-05	-0.0001	2e-05	3e-05	3e-05	1e-05	0.00023	0.00014	3
10026	-2e-05	-0.0001	2e-05	3e-05	3e-05	1e-05	0.00023	0.00014	3
10027	-2e-05	-0.0001	2e-05	3e-05	3e-05	1e-05	0.00023	0.00014	3
10028	-2e-05	-0.0001	2e-05	3e-05	3e-05	1e-05	0.00023	0.00014	3
10029	-2e-05	-0.0001	2e-05	3e-05	3e-05	1e-05	0.00023	0.00014	3
10030	-4e-05	-1e-05	-4e-05	-3e-05	-2e-05	-2e-05	-1e-05	-0.00011	3
10031	-4e-05	-1e-05	-4e-05	-3e-05	-2e-05	-2e-05	-1e-05	-0.00011	3
10033	-4e-05	-1e-05	-4e-05	-3e-05	-2e-05	-2e-05	-1e-05	-0.00011	3
10034	-4e-05	-1e-05	-4e-05	-3e-05	-2e-05	-2e-05	-1e-05	-0.00011	3
10035	-4e-05	-1e-05	-4e-05	-3e-05	-2e-05	-2e-05	-1e-05	-0.00011	3
10043	-4e-05	-1e-05	-4e-05	-3e-05	-2e-05	-2e-05	-1e-05	-0.00011	3
10044	-4e-05	-1e-05	-4e-05	-3e-05	-2e-05	-2e-05	-1e-05	-0.00011	3
10045	-4e-05	-1e-05	-4e-05	-3e-05	-2e-05	-2e-05	-1e-05	-0.00011	3
10046	-1e-05	7e-05	-1e-05	-5e-05	-5e-05	-1e-05	-2e-05	2e-05	3
10047	-1e-05	7e-05	-1e-05	-5e-05	-5e-05	-1e-05	-2e-05	2e-05	3
10048	-1e-05	7e-05	-1e-05	-5e-05	-5e-05	-1e-05	-2e-05	2e-05	3
10049	-1e-05	7e-05	-1e-05	-5e-05	-5e-05	-1e-05	-2e-05	2e-05	3
10050	-1e-05	7e-05	-1e-05	-5e-05	-5e-05	-1e-05	-2e-05	2e-05	3
10051	-1e-05	7e-05	-1e-05	-5e-05	-5e-05	-1e-05	-2e-05	2e-05	3
10052	-1e-05	7e-05	-1e-05	-5e-05	-5e-05	-1e-05	-2e-05	2e-05	3
10053	-1e-05	7e-05	-1e-05	-5e-05	-5e-05	-1e-05	-2e-05	2e-05	3
10054	-3e-05	0	1e-05	0	-2e-05	-3e-05	-0.00015	-0.0001	3
10055	5e-05	5e-05	-2e-05	-2e-05	-4e-05	-0.00014	-0.00013	-0.00011	3
10057	5e-05	5e-05	-2e-05	-2e-05	-4e-05	-0.00014	-0.00013	-0.00011	3
10058	5e-05	5e-05	-2e-05	-2e-05	-4e-05	-0.00014	-0.00013	-0.00011	3
10059	5e-05	5e-05	-2e-05	-2e-05	-4e-05	-0.00014	-0.00013	-0.00011	3
10060	5e-05	5e-05	-2e-05	-2e-05	-4e-05	-0.00014	-0.00013	-0.00011	3
10061	5e-05	5e-05	-2e-05	-2e-05	-4e-05	-0.00014	-0.00013	-0.00011	3
10062	5e-05	5e-05	-2e-05	-2e-05	-4e-05	-0.00014	-0.00013	-0.00011	3
10063	5e-05	5e-05	-2e-05	-2e-05	-4e-05	-0.00014	-0.00013	-0.00011	3
10064	5e-05	5e-05	-2e-05	-2e-05	-4e-05	-0.00014	-0.00013	-0.00011	3
10065	5e-05	5e-05	-2e-05	-2e-05	-4e-05	-0.00014	-0.00013	-0.00011	3
10066	5e-05	5e-05	-2e-05	-2e-05	-4e-05	-0.00014	-0.00013	-0.00011	3
10067	5e-05	5e-05	-2e-05	-2e-05	-4e-05	-0.00014	-0.00013	-0.00011	3
10068	5e-05	5e-05	-2e-05	-2e-05	-4e-05	-0.00014	-0.00013	-0.00011	3
10069	5e-05	5e-05	-2e-05	-2e-05	-4e-05	-0.00014	-0.00013	-0.00011	3
10070	5e-05	5e-05	-2e-05	-2e-05	-4e-05	-0.00014	-0.00013	-0.00011	3
10071	5e-05	5e-05	-2e-05	-2e-05	-4e-05	-0.00014	-0.00013	-0.00011	3
10072	5e-05	5e-05	-2e-05	-2e-05	-4e-05	-0.00014	-0.00013	-0.00011	3
10073	5e-05	5e-05	-2e-05	-2e-05	-4e-05	-0.00014	-0.00013	-0.00011	3
10074	5e-05	5e-05	-2e-05	-2e-05	-4e-05	-0.00014	-0.00013	-0.00011	3
10075	5e-05	5e-05	-2e-05	-2e-05	-4e-05	-0.00014	-0.00013	-0.00011	3
10076	-0.00013	-0.00015	-2e-05	-2e-05	-8e-05	-6e-05	-8e-05	-0.00025	3
10077	-0.00013	-0.00015	-2e-05	-2e-05	-8e-05	-6e-05	-8e-05	-0.00025	3
10078	4e-05	3e-05	1e-05	-1e-05	-5e-05	-2e-05	-2e-05	0.00016	3
10079	4e-05	3e-05	1e-05	-1e-05	-5e-05	-2e-05	-2e-05	0.00016	3
10080	4e-05	3e-05	1e-05	-1e-05	-5e-05	-2e-05	-2e-05	0.00016	3
10081	4e-05	3e-05	1e-05	-1e-05	-5e-05	-2e-05	-2e-05	0.00016	3
10082	4e-05	3e-05	1e-05	-1e-05	-5e-05	-2e-05	-2e-05	0.00016	3
10083	4e-05	3e-05	1e-05	-1e-05	-5e-05	-2e-05	-2e-05	0.00016	3
10084	4e-05	3e-05	1e-05	-1e-05	-5e-05	-2e-05	-2e-05	0.00016	3
10085	4e-05	3e-05	1e-05	-1e-05	-5e-05	-2e-05	-2e-05	0.00016	3
10086	4e-05	3e-05	1e-05	-1e-05	-5e-05	-2e-05	-2e-05	0.00016	3
10088	4e-05	3e-05	1e-05	-1e-05	-5e-05	-2e-05	-2e-05	0.00016	3
10089	4e-05	3e-05	1e-05	-1e-05	-5e-05	-2e-05	-2e-05	0.00016	3
10090	4e-05	-6e-05	-1e-05	-4e-05	-0.0001	-4e-05	0.00013	0.00012	3
10091	4e-05	-6e-05	-1e-05	-4e-05	-0.0001	-4e-05	0.00013	0.00012	3
10092	4e-05	-6e-05	-1e-05	-4e-05	-0.0001	-4e-05	0.00013	0.00012	3
10093	4e-05	-6e-05	-1e-05	-4e-05	-0.0001	-4e-05	0.00013	0.00012	3
10094	4e-05	-6e-05	-1e-05	-4e-05	-0.0001	-4e-05	0.00013	0.00012	3
10095	4e-05	-6e-05	-1e-05	-4e-05	-0.0001	-4e-05	0.00013	0.00012	3
10096	4e-05	-6e-05	-1e-05	-4e-05	-0.0001	-4e-05	0.00013	0.00012	3
10097	4e-05	-6e-05	-1e-05	-4e-05	-0.0001	-4e-05	0.00013	0.00012	3
10098	4e-05	-6e-05	-1e-05	-4e-05	-0.0001	-4e-05	0.00013	0.00012	3
10099	9e-05	6e-05	1e-05	0	-4e-05	-3e-05	7e-05	-0.00026	3
10100	9e-05	6e-05	1e-05	0	-4e-05	-3e-05	7e-05	-0.00026	3
10101	9e-05	6e-05	1e-05	0	-4e-05	-3e-05	7e-05	-0.00026	3
10102	9e-05	6e-05	1e-05	0	-4e-05	-3e-05	7e-05	-0.00026	3
10103	9e-05	6e-05	1e-05	0	-4e-05	-3e-05	7e-05	-0.00026	3
10104	9e-05	6e-05	1e-05	0	-4e-05	-3e-05	7e-05	-0.00026	3
10105	9e-05	6e-05	1e-05	0	-4e-05	-3e-05	7e-05	-0.00026	3
10106	9e-05	6e-05	1e-05	0	-4e-05	-3e-05	7e-05	-0.00026	3
10107	9e-05	6e-05	1e-05	0	-4e-05	-3e-05	7e-05	-0.00026	3
10108	9e-05	6e-05	1e-05	0	-4e-05	-3e-05	7e-05	-0.00026	3
10109	9e-05	6e-05	1e-05	0	-4e-05	-3e-05	7e-05	-0.00026	3
10110	9e-05	6e-05	1e-05	0	-4e-05	-3e-05	7e-05	-0.00026	3
10111	9e-05	6e-05	1e-05	0	-4e-05	-3e-05	7e-05	-0.00026	3
10112	9e-05	6e-05	1e-05	0	-4e-05	-3e-05	7e-05	-0.00026	3
10113	-7e-05	-0.0001	0	-1e-05	1e-05	-5e-05	-2e-05	0.00042	3
10114	0.00014	0.00018	-4e-05	-5e-05	-1e-05	8e-05	-0.0001	-0.00025	3
10115	0.00014	0.00018	-4e-05	-5e-05	-1e-05	8e-05	-0.0001	-0.00025	3
10116	1e-05	5e-05	5e-05	5e-05	3e-05	7e-05	0.00021	0.00012	3
10117	1e-05	5e-05	5e-05	5e-05	3e-05	7e-05	0.00021	0.00012	3
10118	1e-05	5e-05	5e-05	5e-05	3e-05	7e-05	0.00021	0.00012	3
10119	1e-05	5e-05	5e-05	5e-05	3e-05	7e-05	0.00021	0.00012	3
10120	1e-05	5e-05	5e-05	5e-05	3e-05	7e-05	0.00021	0.00012	3
10121	1e-05	5e-05	5e-05	5e-05	3e-05	7e-05	0.00021	0.00012	3
10122	1e-05	5e-05	5e-05	5e-05	3e-05	7e-05	0.00021	0.00012	3
10123	1e-05	5e-05	5e-05	5e-05	3e-05	7e-05	0.00021	0.00012	3
10124	1e-05	5e-05	5e-05	5e-05	3e-05	7e-05	0.00021	0.00012	3
10125	1e-05	5e-05	5e-05	5e-05	3e-05	7e-05	0.00021	0.00012	3
10126	1e-05	5e-05	5e-05	5e-05	3e-05	7e-05	0.00021	0.00012	3
10127	1e-05	5e-05	5e-05	5e-05	3e-05	7e-05	0.00021	0.00012	3
10128	1e-05	5e-05	5e-05	5e-05	3e-05	7e-05	0.00021	0.00012	3
10129	1e-05	5e-05	5e-05	5e-05	3e-05	7e-05	0.00021	0.00012	3
10130	1e-05	5e-05	5e-05	5e-05	3e-05	7e-05	0.00021	0.00012	3
10131	1e-05	5e-05	5e-05	5e-05	3e-05	7e-05	0.00021	0.00012	3
10132	1e-05	5e-05	5e-05	5e-05	3e-05	7e-05	0.00021	0.00012	3
10133	1e-05	5e-05	5e-05	5e-05	3e-05	7e-05	0.00021	0.00012	3
10134	1e-05	5e-05	5e-05	5e-05	3e-05	7e-05	0.00021	0.00012	3
10135	1e-05	5e-05	5e-05	5e-05	3e-05	7e-05	0.00021	0.00012	3
10136	1e-05	5e-05	5e-05	5e-05	3e-05	7e-05	0.00021	0.00012	3
10139	6e-05	1e-05	-4e-05	0	8e-05	4e-05	0.00017	0.0003	3
10140	6e-05	1e-05	-4e-05	0	8e-05	4e-05	0.00017	0.0003	3
10141	6e-05	1e-05	-4e-05	0	8e-05	4e-05	0.00017	0.0003	3
10142	6e-05	1e-05	-4e-05	0	8e-05	4e-05	0.00017	0.0003	3
10143	6e-05	1e-05	-4e-05	0	8e-05	4e-05	0.00017	0.0003	3
10144	0.0001	1e-05	0	1e-05	1e-05	1e-05	-0.00023	3e-05	3
10145	0.0001	1e-05	0	1e-05	1e-05	1e-05	-0.00023	3e-05	3
10146	0.0001	1e-05	0	1e-05	1e-05	1e-05	-0.00023	3e-05	3
10147	0.0001	1e-05	0	1e-05	1e-05	1e-05	-0.00023	3e-05	3
10148	0.0001	1e-05	0	1e-05	1e-05	1e-05	-0.00023	3e-05	3
10149	0.0001	1e-05	0	1e-05	1e-05	1e-05	-0.00023	3e-05	3
10150	1e-05	-4e-05	-3e-05	0	2e-05	5e-05	0.00015	0.0001	3
10151	1e-05	-4e-05	-3e-05	0	2e-05	5e-05	0.00015	0.0001	3
10152	1e-05	-4e-05	-3e-05	0	2e-05	5e-05	0.00015	0.0001	3
10153	1e-05	-4e-05	-3e-05	0	2e-05	5e-05	0.00015	0.0001	3
10154	1e-05	-4e-05	-3e-05	0	2e-05	5e-05	0.00015	0.0001	3
10155	1e-05	-4e-05	-3e-05	0	2e-05	5e-05	0.00015	0.0001	3
10156	1e-05	-4e-05	-3e-05	0	2e-05	5e-05	0.00015	0.0001	3
10157	1e-05	-4e-05	-3e-05	0	2e-05	5e-05	0.00015	0.0001	3
10158	1e-05	-4e-05	-3e-05	0	2e-05	5e-05	0.00015	0.0001	3
10159	0	-3e-05	-4e-05	-3e-05	1e-05	3e-05	-7e-05	1e-05	3
10160	0	-3e-05	-4e-05	-3e-05	1e-05	3e-05	-7e-05	1e-05	3
10161	0	-3e-05	-4e-05	-3e-05	1e-05	3e-05	-7e-05	1e-05	3
10162	0	-3e-05	-4e-05	-3e-05	1e-05	3e-05	-7e-05	1e-05	3
10163	0	-3e-05	-4e-05	-3e-05	1e-05	3e-05	-7e-05	1e-05	3
10164	0	-3e-05	-4e-05	-3e-05	1e-05	3e-05	-7e-05	1e-05	3
10165	0	-3e-05	-4e-05	-3e-05	1e-05	3e-05	-7e-05	1e-05	3
10166	0	-3e-05	-4e-05	-3e-05	1e-05	3e-05	-7e-05	1e-05	3
10167	0	-3e-05	-4e-05	-3e-05	1e-05	3e-05	-7e-05	1e-05	3
10168	0	-3e-05	-4e-05	-3e-05	1e-05	3e-05	-7e-05	1e-05	3
10169	0	-3e-05	-4e-05	-3e-05	1e-05	3e-05	-7e-05	1e-05	3
10170	0	-3e-05	-4e-05	-3e-05	1e-05	3e-05	-7e-05	1e-05	3
10171	0	-3e-05	-4e-05	-3e-05	1e-05	3e-05	-7e-05	1e-05	3
10172	0	-3e-05	-4e-05	-3e-05	1e-05	3e-05	-7e-05	1e-05	3
10173	-2e-05	-5e-05	-2e-05	-1e-05	2e-05	3e-05	-3e-05	-0.00013	3
10174	5e-05	9e-05	-1e-05	-2e-05	0	-9e-05	-0.00018	-5e-05	3
10175	-8e-05	-0.0001	-6e-05	-5e-05	-6e-05	-0.00011	-0.0001	0	3
10176	-8e-05	-0.0001	-6e-05	-5e-05	-6e-05	-0.00011	-0.0001	0	3
10177	-8e-05	-0.0001	-6e-05	-5e-05	-6e-05	-0.00011	-0.0001	0	3
10178	-8e-05	-0.0001	-6e-05	-5e-05	-6e-05	-0.00011	-0.0001	0	3
10179	-8e-05	-0.0001	-6e-05	-5e-05	-6e-05	-0.00011	-0.0001	0	3
10180	-8e-05	-0.0001	-6e-05	-5e-05	-6e-05	-0.00011	-0.0001	0	3
10181	-8e-05	-0.0001	-6e-05	-5e-05	-6e-05	-0.00011	-0.0001	0	3
10182	-8e-05	-0.0001	-6e-05	-5e-05	-6e-05	-0.00011	-0.0001	0	3
10183	-8e-05	-0.0001	-6e-05	-5e-05	-6e-05	-0.00011	-0.0001	0	3
10184	-8e-05	-0.0001	-6e-05	-5e-05	-6e-05	-0.00011	-0.0001	0	3
10185	-8e-05	-0.0001	-6e-05	-5e-05	-6e-05	-0.00011	-0.0001	0	3
10186	-8e-05	-0.0001	-6e-05	-5e-05	-6e-05	-0.00011	-0.0001	0	3
10188	-8e-05	-0.0001	-6e-05	-5e-05	-6e-05	-0.00011	-0.0001	0	3
10189	-8e-05	-0.0001	-6e-05	-5e-05	-6e-05	-0.00011	-0.0001	0	3
10190	-8e-05	-0.0001	-6e-05	-5e-05	-6e-05	-0.00011	-0.0001	0	3
10191	-8e-05	-0.0001	-6e-05	-5e-05	-6e-05	-0.00011	-0.0001	0	3
10192	-8e-05	-0.0001	-6e-05	-5e-05	-6e-05	-0.00011	-0.0001	0	3
10193	-8e-05	-0.0001	-6e-05	-5e-05	-6e-05	-0.00011	-0.0001	0	3
10194	-8e-05	-0.0001	-6e-05	-5e-05	-6e-05	-0.00011	-0.0001	0	3
10195	-8e-05	-0.0001	-6e-05	-5e-05	-6e-05	-0.00011	-0.0001	0	3
10196	-0.0002	-9e-05	1e-05	1e-05	1e-05	5e-05	3e-05	-5e-05	3
10197	-0.0002	-9e-05	1e-05	1e-05	1e-05	5e-05	3e-05	-5e-05	3
10198	7e-05	9e-05	4e-05	2e-05	-3e-05	-0.00018	0	0.0001	3
10199	7e-05	9e-05	4e-05	2e-05	-3e-05	-0.00018	0	0.0001	3
10200	7e-05	9e-05	4e-05	2e-05	-3e-05	-0.00018	0	0.0001	3
10201	7e-05	9e-05	4e-05	2e-05	-3e-05	-0.00018	0	0.0001	3
10202	7e-05	9e-05	4e-05	2e-05	-3e-05	-0.00018	0	0.0001	3
10203	7e-05	9e-05	4e-05	2e-05	-3e-05	-0.00018	0	0.0001	3
10204	7e-05	9e-05	4e-05	2e-05	-3e-05	-0.00018	0	0.0001	3
10205	7e-05	9e-05	4e-05	2e-05	-3e-05	-0.00018	0	0.0001	3
10206	7e-05	9e-05	4e-05	2e-05	-3e-05	-0.00018	0	0.0001	3
10207	7e-05	9e-05	4e-05	2e-05	-3e-05	-0.00018	0	0.0001	3
10208	7e-05	9e-05	4e-05	2e-05	-3e-05	-0.00018	0	0.0001	3
10209	7e-05	9e-05	4e-05	2e-05	-3e-05	-0.00018	0	0.0001	3
10210	8e-05	6e-05	-2e-05	-4e-05	-0.00012	-5e-05	0.00013	0.00024	3
10211	8e-05	6e-05	-2e-05	-4e-05	-0.00012	-5e-05	0.00013	0.00024	3
10212	8e-05	6e-05	-2e-05	-4e-05	-0.00012	-5e-05	0.00013	0.00024	3
10213	8e-05	6e-05	-2e-05	-4e-05	-0.00012	-5e-05	0.00013	0.00024	3
10214	8e-05	6e-05	-2e-05	-4e-05	-0.00012	-5e-05	0.00013	0.00024	3
10215	8e-05	6e-05	-2e-05	-4e-05	-0.00012	-5e-05	0.00013	0.00024	3
10216	8e-05	6e-05	-2e-05	-4e-05	-0.00012	-5e-05	0.00013	0.00024	3
10217	8e-05	6e-05	-2e-05	-4e-05	-0.00012	-5e-05	0.00013	0.00024	3
10218	8e-05	6e-05	-2e-05	-4e-05	-0.00012	-5e-05	0.00013	0.00024	3
10219	-4e-05	-7e-05	-4e-05	-4e-05	-1e-05	0.00011	2e-05	0.00018	3
10220	-4e-05	-7e-05	-4e-05	-4e-05	-1e-05	0.00011	2e-05	0.00018	3
10221	-4e-05	-7e-05	-4e-05	-4e-05	-1e-05	0.00011	2e-05	0.00018	3
10222	-4e-05	-7e-05	-4e-05	-4e-05	-1e-05	0.00011	2e-05	0.00018	3
10223	-4e-05	-7e-05	-4e-05	-4e-05	-1e-05	0.00011	2e-05	0.00018	3
10225	-4e-05	-7e-05	-4e-05	-4e-05	-1e-05	0.00011	2e-05	0.00018	3
10226	-4e-05	-7e-05	-4e-05	-4e-05	-1e-05	0.00011	2e-05	0.00018	3
10227	-4e-05	-7e-05	-4e-05	-4e-05	-1e-05	0.00011	2e-05	0.00018	3
10228	-4e-05	-7e-05	-4e-05	-4e-05	-1e-05	0.00011	2e-05	0.00018	3
10229	-4e-05	-7e-05	-4e-05	-4e-05	-1e-05	0.00011	2e-05	0.00018	3
10230	-4e-05	-7e-05	-4e-05	-4e-05	-1e-05	0.00011	2e-05	0.00018	3
10231	-4e-05	-7e-05	-4e-05	-4e-05	-1e-05	0.00011	2e-05	0.00018	3
10232	-4e-05	-7e-05	-4e-05	-4e-05	-1e-05	0.00011	2e-05	0.00018	3
10233	-7e-05	-2e-05	1e-05	-3e-05	-4e-05	-6e-05	0.00017	-0.00012	3
10234	-7e-05	-2e-05	1e-05	-3e-05	-4e-05	-6e-05	0.00017	-0.00012	3
10235	-7e-05	-2e-05	1e-05	-3e-05	-4e-05	-6e-05	0.00017	-0.00012	3
10236	-7e-05	-2e-05	1e-05	-3e-05	-4e-05	-6e-05	0.00017	-0.00012	3
10238	-7e-05	-2e-05	1e-05	-3e-05	-4e-05	-6e-05	0.00017	-0.00012	3
10239	-7e-05	-2e-05	1e-05	-3e-05	-4e-05	-6e-05	0.00017	-0.00012	3
10240	-5e-05	-2e-05	-3e-05	-1e-05	1e-05	-4e-05	-8e-05	4e-05	3
10241	-5e-05	-2e-05	-3e-05	-1e-05	1e-05	-4e-05	-8e-05	4e-05	3
10242	-5e-05	-2e-05	-3e-05	-1e-05	1e-05	-4e-05	-8e-05	4e-05	3
10243	-5e-05	-2e-05	-3e-05	-1e-05	1e-05	-4e-05	-8e-05	4e-05	3
10244	-5e-05	-2e-05	-3e-05	-1e-05	1e-05	-4e-05	-8e-05	4e-05	3
10245	-5e-05	-2e-05	-3e-05	-1e-05	1e-05	-4e-05	-8e-05	4e-05	3
10246	-5e-05	-2e-05	-3e-05	-1e-05	1e-05	-4e-05	-8e-05	4e-05	3
10247	-5e-05	-2e-05	-3e-05	-1e-05	1e-05	-4e-05	-8e-05	4e-05	3
10248	-5e-05	-2e-05	-3e-05	-1e-05	1e-05	-4e-05	-8e-05	4e-05	3
10249	-5e-05	-2e-05	-3e-05	-1e-05	1e-05	-4e-05	-8e-05	4e-05	3
10250	-5e-05	-2e-05	-3e-05	-1e-05	1e-05	-4e-05	-8e-05	4e-05	3
10251	-5e-05	-2e-05	-3e-05	-1e-05	1e-05	-4e-05	-8e-05	4e-05	3
10252	-5e-05	-2e-05	-3e-05	-1e-05	1e-05	-4e-05	-8e-05	4e-05	3
10253	-5e-05	-2e-05	-3e-05	-1e-05	1e-05	-4e-05	-8e-05	4e-05	3
10254	-5e-05	-2e-05	-3e-05	-1e-05	1e-05	-4e-05	-8e-05	4e-05	3
10255	-5e-05	-2e-05	-3e-05	-1e-05	1e-05	-4e-05	-8e-05	4e-05	3
10256	1e-05	-3e-05	0	1e-05	0	1e-05	-5e-05	2e-05	3
10257	1e-05	-3e-05	0	1e-05	0	1e-05	-5e-05	2e-05	3
10258	-4e-05	-7e-05	-1e-05	-2e-05	-2e-05	5e-05	-1e-05	-4e-05	3
10260	-4e-05	-7e-05	-1e-05	-2e-05	-2e-05	5e-05	-1e-05	-4e-05	3
10261	-4e-05	-7e-05	-1e-05	-2e-05	-2e-05	5e-05	-1e-05	-4e-05	3
10262	-4e-05	-7e-05	-1e-05	-2e-05	-2e-05	5e-05	-1e-05	-4e-05	3
10263	-4e-05	-7e-05	-1e-05	-2e-05	-2e-05	5e-05	-1e-05	-4e-05	3
10264	-4e-05	-7e-05	-1e-05	-2e-05	-2e-05	5e-05	-1e-05	-4e-05	3
10265	-4e-05	-7e-05	-1e-05	-2e-05	-2e-05	5e-05	-1e-05	-4e-05	3
10266	-4e-05	-7e-05	-1e-05	-2e-05	-2e-05	5e-05	-1e-05	-4e-05	3
10267	-4e-05	-7e-05	-1e-05	-2e-05	-2e-05	5e-05	-1e-05	-4e-05	3
10268	-4e-05	-7e-05	-1e-05	-2e-05	-2e-05	5e-05	-1e-05	-4e-05	3
10269	-4e-05	-7e-05	-1e-05	-2e-05	-2e-05	5e-05	-1e-05	-4e-05	3
10270	-4e-05	-7e-05	-1e-05	-2e-05	-2e-05	5e-05	-1e-05	-4e-05	3
10271	-4e-05	-7e-05	-1e-05	-2e-05	-2e-05	5e-05	-1e-05	-4e-05	3
10272	-4e-05	-7e-05	-1e-05	-2e-05	-2e-05	5e-05	-1e-05	-4e-05	3
10273	-4e-05	-7e-05	-1e-05	-2e-05	-2e-05	5e-05	-1e-05	-4e-05	3
10274	-4e-05	-7e-05	-1e-05	-2e-05	-2e-05	5e-05	-1e-05	-4e-05	3
10275	-4e-05	-7e-05	-1e-05	-2e-05	-2e-05	5e-05	-1e-05	-4e-05	3
10276	-4e-05	-7e-05	-1e-05	-2e-05	-2e-05	5e-05	-1e-05	-4e-05	3
10277	-4e-05	-7e-05	-1e-05	-2e-05	-2e-05	5e-05	-1e-05	-4e-05	3
10278	-4e-05	-7e-05	-1e-05	-2e-05	-2e-05	5e-05	-1e-05	-4e-05	3
10279	3e-05	1e-05	0	0	-2e-05	-8e-05	-2e-05	5e-05	3
10280	5e-05	0.00012	1e-05	-2e-05	-1e-05	5e-05	-2e-05	0	3
10281	5e-05	0.00012	1e-05	-2e-05	-1e-05	5e-05	-2e-05	0	3
10282	5e-05	0.00012	1e-05	-2e-05	-1e-05	5e-05	-2e-05	0	3
10283	5e-05	0.00012	1e-05	-2e-05	-1e-05	5e-05	-2e-05	0	3
10284	5e-05	0.00012	1e-05	-2e-05	-1e-05	5e-05	-2e-05	0	3
10285	5e-05	0.00012	1e-05	-2e-05	-1e-05	5e-05	-2e-05	0	3
10286	5e-05	0.00012	1e-05	-2e-05	-1e-05	5e-05	-2e-05	0	3
10288	5e-05	0.00012	1e-05	-2e-05	-1e-05	5e-05	-2e-05	0	3
10289	5e-05	0.00012	1e-05	-2e-05	-1e-05	5e-05	-2e-05	0	3
10290	5e-05	0.00012	1e-05	-2e-05	-1e-05	5e-05	-2e-05	0	3
10291	5e-05	0.00012	1e-05	-2e-05	-1e-05	5e-05	-2e-05	0	3
10292	5e-05	0.00012	1e-05	-2e-05	-1e-05	5e-05	-2e-05	0	3
10293	5e-05	0.00012	1e-05	-2e-05	-1e-05	5e-05	-2e-05	0	3
10294	-1e-05	2e-05	0	1e-05	4e-05	2e-05	0.00012	0	3
10295	-0.00011	-3e-05	-2e-05	-4e-05	-3e-05	4e-05	5e-05	4e-05	3
10296	-0.00011	-3e-05	-2e-05	-4e-05	-3e-05	4e-05	5e-05	4e-05	3
10297	-0.00011	-3e-05	-2e-05	-4e-05	-3e-05	4e-05	5e-05	4e-05	3
10298	-0.00011	-3e-05	-2e-05	-4e-05	-3e-05	4e-05	5e-05	4e-05	3
10299	-0.00011	-3e-05	-2e-05	-4e-05	-3e-05	4e-05	5e-05	4e-05	3
10300	-0.00011	-3e-05	-2e-05	-4e-05	-3e-05	4e-05	5e-05	4e-05	3
10301	-0.00011	-3e-05	-2e-05	-4e-05	-3e-05	4e-05	5e-05	4e-05	3
10302	-0.00011	-3e-05	-2e-05	-4e-05	-3e-05	4e-05	5e-05	4e-05	3
10303	-0.00011	-3e-05	-2e-05	-4e-05	-3e-05	4e-05	5e-05	4e-05	3
10304	-0.00011	-3e-05	-2e-05	-4e-05	-3e-05	4e-05	5e-05	4e-05	3
10305	-0.00011	-3e-05	-2e-05	-4e-05	-3e-05	4e-05	5e-05	4e-05	3
10306	-0.00011	-3e-05	-2e-05	-4e-05	-3e-05	4e-05	5e-05	4e-05	3
10307	-0.00011	-3e-05	-2e-05	-4e-05	-3e-05	4e-05	5e-05	4e-05	3
10308	-0.00011	-3e-05	-2e-05	-4e-05	-3e-05	4e-05	5e-05	4e-05	3
10309	-0.00011	-3e-05	-2e-05	-4e-05	-3e-05	4e-05	5e-05	4e-05	3
10310	-0.00011	-3e-05	-2e-05	-4e-05	-3e-05	4e-05	5e-05	4e-05	3
10311	-0.00011	-3e-05	-2e-05	-4e-05	-3e-05	4e-05	5e-05	4e-05	3
10312	-0.00011	-3e-05	-2e-05	-4e-05	-3e-05	4e-05	5e-05	4e-05	3
10313	-0.00011	-3e-05	-2e-05	-4e-05	-3e-05	4e-05	5e-05	4e-05	3
10314	-0.00011	-3e-05	-2e-05	-4e-05	-3e-05	4e-05	5e-05	4e-05	3
10315	-0.00011	-3e-05	-2e-05	-4e-05	-3e-05	4e-05	5e-05	4e-05	3
10316	-0.00011	-3e-05	-2e-05	-4e-05	-3e-05	4e-05	5e-05	4e-05	3
10317	-0.00011	-3e-05	-2e-05	-4e-05	-3e-05	4e-05	5e-05	4e-05	3
10318	-0.00011	-3e-05	-2e-05	-4e-05	-3e-05	4e-05	5e-05	4e-05	3
10319	-0.00011	-3e-05	-2e-05	-4e-05	-3e-05	4e-05	5e-05	4e-05	3
10320	-0.00011	-3e-05	-2e-05	-4e-05	-3e-05	4e-05	5e-05	4e-05	3
10321	-0.00011	-3e-05	-2e-05	-4e-05	-3e-05	4e-05	5e-05	4e-05	3
10322	-0.00011	-3e-05	-2e-05	-4e-05	-3e-05	4e-05	5e-05	4e-05	3
10323	-0.00011	-3e-05	-2e-05	-4e-05	-3e-05	4e-05	5e-05	4e-05	3
10324	2e-05	0.00018	6e-05	4e-05	0	0	-0.00011	0.0001	3
10325	0.0001	2e-05	4e-05	5e-05	3e-05	-6e-05	4e-05	6e-05	3
10326	0.0001	2e-05	4e-05	5e-05	3e-05	-6e-05	4e-05	6e-05	3
10327	0.0001	2e-05	4e-05	5e-05	3e-05	-6e-05	4e-05	6e-05	3
10328	0.0001	2e-05	4e-05	5e-05	3e-05	-6e-05	4e-05	6e-05	3
10329	0.0001	2e-05	4e-05	5e-05	3e-05	-6e-05	4e-05	6e-05	3
10330	0.0001	2e-05	4e-05	5e-05	3e-05	-6e-05	4e-05	6e-05	3
10331	0.0001	2e-05	4e-05	5e-05	3e-05	-6e-05	4e-05	6e-05	3
10332	0.0001	2e-05	4e-05	5e-05	3e-05	-6e-05	4e-05	6e-05	3
10333	0.0001	2e-05	4e-05	5e-05	3e-05	-6e-05	4e-05	6e-05	3
10334	0.0001	2e-05	4e-05	5e-05	3e-05	-6e-05	4e-05	6e-05	3
10335	0.0001	2e-05	4e-05	5e-05	3e-05	-6e-05	4e-05	6e-05	3
10336	0.0001	2e-05	4e-05	5e-05	3e-05	-6e-05	4e-05	6e-05	3
10338	0.0001	2e-05	4e-05	5e-05	3e-05	-6e-05	4e-05	6e-05	3
10339	9e-05	2e-05	-3e-05	-1e-05	5e-05	3e-05	-2e-05	-0.00015	3
10340	0	-3e-05	-2e-05	0	1e-05	0	0	-0.00013	3
10341	0	-3e-05	-2e-05	0	1e-05	0	0	-0.00013	3
10342	0	-3e-05	-2e-05	0	1e-05	0	0	-0.00013	3
10343	0	-3e-05	-2e-05	0	1e-05	0	0	-0.00013	3
10344	0	-3e-05	-2e-05	0	1e-05	0	0	-0.00013	3
10345	0	-3e-05	-2e-05	0	1e-05	0	0	-0.00013	3
10346	0	-3e-05	-2e-05	0	1e-05	0	0	-0.00013	3
10347	0	-3e-05	-2e-05	0	1e-05	0	0	-0.00013	3
10348	0	-3e-05	-2e-05	0	1e-05	0	0	-0.00013	3
10349	0	-3e-05	-2e-05	0	1e-05	0	0	-0.00013	3
10350	0	-3e-05	-2e-05	0	1e-05	0	0	-0.00013	3
10351	0	-3e-05	-2e-05	0	1e-05	0	0	-0.00013	3
10352	0	-3e-05	-2e-05	0	1e-05	0	0	-0.00013	3
10353	0	-3e-05	-2e-05	0	1e-05	0	0	-0.00013	3
10354	-0.00022	-0.00028	-5e-05	-2e-05	2e-05	-1e-05	-2e-05	-3e-05	3
10355	0	-3e-05	0	-1e-05	-3e-05	-6e-05	-0.00013	-2e-05	3
10356	0	-3e-05	0	-1e-05	-3e-05	-6e-05	-0.00013	-2e-05	3
10357	0	-3e-05	0	-1e-05	-3e-05	-6e-05	-0.00013	-2e-05	3
10358	0	-3e-05	0	-1e-05	-3e-05	-6e-05	-0.00013	-2e-05	3
10359	0	-3e-05	0	-1e-05	-3e-05	-6e-05	-0.00013	-2e-05	3
10360	0	-3e-05	0	-1e-05	-3e-05	-6e-05	-0.00013	-2e-05	3
10361	0	-3e-05	0	-1e-05	-3e-05	-6e-05	-0.00013	-2e-05	3
10362	0	-3e-05	0	-1e-05	-3e-05	-6e-05	-0.00013	-2e-05	3
10363	0	-3e-05	0	-1e-05	-3e-05	-6e-05	-0.00013	-2e-05	3
10365	0	-3e-05	0	-1e-05	-3e-05	-6e-05	-0.00013	-2e-05	3
10366	0	-3e-05	0	-1e-05	-3e-05	-6e-05	-0.00013	-2e-05	3
10367	0	-3e-05	0	-1e-05	-3e-05	-6e-05	-0.00013	-2e-05	3
10368	0	-3e-05	0	-1e-05	-3e-05	-6e-05	-0.00013	-2e-05	3
10369	0	-3e-05	0	-1e-05	-3e-05	-6e-05	-0.00013	-2e-05	3
10370	0	-3e-05	0	-1e-05	-3e-05	-6e-05	-0.00013	-2e-05	3
10371	0	-3e-05	0	-1e-05	-3e-05	-6e-05	-0.00013	-2e-05	3
10372	0	-3e-05	0	-1e-05	-3e-05	-6e-05	-0.00013	-2e-05	3
10373	0	-3e-05	0	-1e-05	-3e-05	-6e-05	-0.00013	-2e-05	3
10374	0	-3e-05	0	-1e-05	-3e-05	-6e-05	-0.00013	-2e-05	3
10375	0	-3e-05	0	-1e-05	-3e-05	-6e-05	-0.00013	-2e-05	3
10376	1e-05	-6e-05	-7e-05	-4e-05	-7e-05	-6e-05	-6e-05	-4e-05	3
10377	1e-05	-6e-05	-7e-05	-4e-05	-7e-05	-6e-05	-6e-05	-4e-05	3
10378	-0.00012	-6e-05	-2e-05	-1e-05	2e-05	-2e-05	-1e-05	-0.00013	3
10379	-0.00012	-6e-05	-2e-05	-1e-05	2e-05	-2e-05	-1e-05	-0.00013	3
10380	-0.00012	-6e-05	-2e-05	-1e-05	2e-05	-2e-05	-1e-05	-0.00013	3
10381	-0.00012	-6e-05	-2e-05	-1e-05	2e-05	-2e-05	-1e-05	-0.00013	3
10382	-0.00012	-6e-05	-2e-05	-1e-05	2e-05	-2e-05	-1e-05	-0.00013	3
10383	-0.00012	-6e-05	-2e-05	-1e-05	2e-05	-2e-05	-1e-05	-0.00013	3
10384	-0.00012	-6e-05	-2e-05	-1e-05	2e-05	-2e-05	-1e-05	-0.00013	3
10385	-0.00012	-6e-05	-2e-05	-1e-05	2e-05	-2e-05	-1e-05	-0.00013	3
10386	-0.00012	-6e-05	-2e-05	-1e-05	2e-05	-2e-05	-1e-05	-0.00013	3
10388	-0.00012	-6e-05	-2e-05	-1e-05	2e-05	-2e-05	-1e-05	-0.00013	3
10389	-0.00012	-6e-05	-2e-05	-1e-05	2e-05	-2e-05	-1e-05	-0.00013	3
10390	-0.00012	-6e-05	-2e-05	-1e-05	2e-05	-2e-05	-1e-05	-0.00013	3
10391	-0.00012	-6e-05	-2e-05	-1e-05	2e-05	-2e-05	-1e-05	-0.00013	3
10392	-0.00012	-6e-05	-2e-05	-1e-05	2e-05	-2e-05	-1e-05	-0.00013	3
10393	-0.00012	-6e-05	-2e-05	-1e-05	2e-05	-2e-05	-1e-05	-0.00013	3
10394	-0.00012	-6e-05	-2e-05	-1e-05	2e-05	-2e-05	-1e-05	-0.00013	3
10395	-0.00012	-6e-05	-2e-05	-1e-05	2e-05	-2e-05	-1e-05	-0.00013	3
10396	-0.00012	-6e-05	-2e-05	-1e-05	2e-05	-2e-05	-1e-05	-0.00013	3
10397	-0.00012	-6e-05	-2e-05	-1e-05	2e-05	-2e-05	-1e-05	-0.00013	3
10398	-0.00012	-6e-05	-2e-05	-1e-05	2e-05	-2e-05	-1e-05	-0.00013	3
10399	2e-05	5e-05	3e-05	-1e-05	-5e-05	-8e-05	-0.00012	0	3
10400	-5e-05	-0.00016	-4e-05	-1e-05	-5e-05	-4e-05	3e-05	7e-05	3
10401	-5e-05	-0.00016	-4e-05	-1e-05	-5e-05	-4e-05	3e-05	7e-05	3
10402	-5e-05	-0.00016	-4e-05	-1e-05	-5e-05	-4e-05	3e-05	7e-05	3
10403	-5e-05	-0.00016	-4e-05	-1e-05	-5e-05	-4e-05	3e-05	7e-05	3
10404	-5e-05	-0.00016	-4e-05	-1e-05	-5e-05	-4e-05	3e-05	7e-05	3
10405	-5e-05	-0.00016	-4e-05	-1e-05	-5e-05	-4e-05	3e-05	7e-05	3
10406	-5e-05	-0.00016	-4e-05	-1e-05	-5e-05	-4e-05	3e-05	7e-05	3
10407	-5e-05	-0.00016	-4e-05	-1e-05	-5e-05	-4e-05	3e-05	7e-05	3
10408	-5e-05	-0.00016	-4e-05	-1e-05	-5e-05	-4e-05	3e-05	7e-05	3
10410	-5e-05	-0.00016	-4e-05	-1e-05	-5e-05	-4e-05	3e-05	7e-05	3
10411	-5e-05	-0.00016	-4e-05	-1e-05	-5e-05	-4e-05	3e-05	7e-05	3
10412	-5e-05	-0.00016	-4e-05	-1e-05	-5e-05	-4e-05	3e-05	7e-05	3
10413	-5e-05	-0.00016	-4e-05	-1e-05	-5e-05	-4e-05	3e-05	7e-05	3
10414	0.0001	0.00015	0	-2e-05	-2e-05	-3e-05	-7e-05	-1e-05	3
10415	1e-05	7e-05	3e-05	2e-05	0	-3e-05	-1e-05	-7e-05	3
10416	1e-05	7e-05	3e-05	2e-05	0	-3e-05	-1e-05	-7e-05	3
10417	1e-05	7e-05	3e-05	2e-05	0	-3e-05	-1e-05	-7e-05	3
10418	1e-05	7e-05	3e-05	2e-05	0	-3e-05	-1e-05	-7e-05	3
10419	1e-05	7e-05	3e-05	2e-05	0	-3e-05	-1e-05	-7e-05	3
10420	1e-05	7e-05	3e-05	2e-05	0	-3e-05	-1e-05	-7e-05	3
10421	1e-05	7e-05	3e-05	2e-05	0	-3e-05	-1e-05	-7e-05	3
10422	1e-05	7e-05	3e-05	2e-05	0	-3e-05	-1e-05	-7e-05	3
10423	1e-05	7e-05	3e-05	2e-05	0	-3e-05	-1e-05	-7e-05	3
10424	1e-05	7e-05	3e-05	2e-05	0	-3e-05	-1e-05	-7e-05	3
10425	1e-05	7e-05	3e-05	2e-05	0	-3e-05	-1e-05	-7e-05	3
10426	1e-05	7e-05	3e-05	2e-05	0	-3e-05	-1e-05	-7e-05	3
10427	1e-05	7e-05	3e-05	2e-05	0	-3e-05	-1e-05	-7e-05	3
10428	1e-05	7e-05	3e-05	2e-05	0	-3e-05	-1e-05	-7e-05	3
10429	1e-05	7e-05	3e-05	2e-05	0	-3e-05	-1e-05	-7e-05	3
10430	1e-05	7e-05	3e-05	2e-05	0	-3e-05	-1e-05	-7e-05	3
10431	1e-05	7e-05	3e-05	2e-05	0	-3e-05	-1e-05	-7e-05	3
10432	1e-05	7e-05	3e-05	2e-05	0	-3e-05	-1e-05	-7e-05	3
10433	1e-05	7e-05	3e-05	2e-05	0	-3e-05	-1e-05	-7e-05	3
10434	1e-05	7e-05	3e-05	2e-05	0	-3e-05	-1e-05	-7e-05	3
10435	1e-05	7e-05	3e-05	2e-05	0	-3e-05	-1e-05	-7e-05	3
10436	1e-05	7e-05	3e-05	2e-05	0	-3e-05	-1e-05	-7e-05	3
10438	-2e-05	-2e-05	-1e-05	-1e-05	3e-05	3e-05	0.00023	6e-05	3
10439	-2e-05	-2e-05	-1e-05	-1e-05	3e-05	3e-05	0.00023	6e-05	3
10440	-2e-05	-2e-05	-1e-05	-1e-05	3e-05	3e-05	0.00023	6e-05	3
10441	-2e-05	-2e-05	-1e-05	-1e-05	3e-05	3e-05	0.00023	6e-05	3
10442	-2e-05	-2e-05	-1e-05	-1e-05	3e-05	3e-05	0.00023	6e-05	3
10443	-2e-05	-2e-05	-1e-05	-1e-05	3e-05	3e-05	0.00023	6e-05	3
10444	-2e-05	-2e-05	-1e-05	-1e-05	3e-05	3e-05	0.00023	6e-05	3
10445	-2e-05	-2e-05	-1e-05	-1e-05	3e-05	3e-05	0.00023	6e-05	3
10446	-2e-05	-2e-05	-1e-05	-1e-05	3e-05	3e-05	0.00023	6e-05	3
10447	-2e-05	-2e-05	-1e-05	-1e-05	3e-05	3e-05	0.00023	6e-05	3
10448	-2e-05	-2e-05	-1e-05	-1e-05	3e-05	3e-05	0.00023	6e-05	3
10449	-2e-05	-2e-05	-1e-05	-1e-05	3e-05	3e-05	0.00023	6e-05	3
10450	-2e-05	-2e-05	-1e-05	-1e-05	3e-05	3e-05	0.00023	6e-05	3
10451	-2e-05	-2e-05	-1e-05	-1e-05	3e-05	3e-05	0.00023	6e-05	3
10452	-2e-05	-2e-05	-1e-05	-1e-05	3e-05	3e-05	0.00023	6e-05	3
10453	-2e-05	-2e-05	-1e-05	-1e-05	3e-05	3e-05	0.00023	6e-05	3
10454	-2e-05	-2e-05	-1e-05	-1e-05	3e-05	3e-05	0.00023	6e-05	3
10455	-2e-05	-2e-05	-1e-05	-1e-05	3e-05	3e-05	0.00023	6e-05	3
10456	-2e-05	-2e-05	-1e-05	-1e-05	3e-05	3e-05	0.00023	6e-05	3
10457	-2e-05	-2e-05	-1e-05	-1e-05	3e-05	3e-05	0.00023	6e-05	3
10458	-2e-05	-2e-05	-1e-05	-1e-05	3e-05	3e-05	0.00023	6e-05	3
10459	-2e-05	-2e-05	-1e-05	-1e-05	3e-05	3e-05	0.00023	6e-05	3
10460	-2e-05	-2e-05	-1e-05	-1e-05	3e-05	3e-05	0.00023	6e-05	3
10461	-2e-05	-2e-05	-1e-05	-1e-05	3e-05	3e-05	0.00023	6e-05	3
10462	-2e-05	-2e-05	-1e-05	-1e-05	3e-05	3e-05	0.00023	6e-05	3
10463	-2e-05	-2e-05	-1e-05	-1e-05	3e-05	3e-05	0.00023	6e-05	3
10464	-2e-05	-2e-05	-1e-05	-1e-05	3e-05	3e-05	0.00023	6e-05	3
10465	-2e-05	-2e-05	-1e-05	-1e-05	3e-05	3e-05	0.00023	6e-05	3
10466	-6e-05	1e-05	3e-05	3e-05	-1e-05	1e-05	0.00015	9e-05	3
10467	-6e-05	1e-05	3e-05	3e-05	-1e-05	1e-05	0.00015	9e-05	3
10468	-3e-05	4e-05	-4e-05	-2e-05	0	-1e-05	-0.00014	-0.0001	3
10469	-3e-05	4e-05	-4e-05	-2e-05	0	-1e-05	-0.00014	-0.0001	3
10470	-3e-05	4e-05	-4e-05	-2e-05	0	-1e-05	-0.00014	-0.0001	3
10471	-3e-05	4e-05	-4e-05	-2e-05	0	-1e-05	-0.00014	-0.0001	3
10472	-3e-05	4e-05	-4e-05	-2e-05	0	-1e-05	-0.00014	-0.0001	3
10473	-1e-05	1e-05	-1e-05	0	0	-3e-05	-0.0001	-0.00022	3
10474	-1e-05	1e-05	-1e-05	0	0	-3e-05	-0.0001	-0.00022	3
10475	-1e-05	1e-05	-1e-05	0	0	-3e-05	-0.0001	-0.00022	3
10476	-1e-05	1e-05	-1e-05	0	0	-3e-05	-0.0001	-0.00022	3
10477	-1e-05	1e-05	-1e-05	0	0	-3e-05	-0.0001	-0.00022	3
10478	-1e-05	1e-05	-1e-05	0	0	-3e-05	-0.0001	-0.00022	3
10479	-1e-05	1e-05	-1e-05	0	0	-3e-05	-0.0001	-0.00022	3
10480	1e-05	-3e-05	-1e-05	-1e-05	-4e-05	-1e-05	3e-05	3e-05	3
10481	1e-05	-3e-05	-1e-05	-1e-05	-4e-05	-1e-05	3e-05	3e-05	3
10482	1e-05	-3e-05	-1e-05	-1e-05	-4e-05	-1e-05	3e-05	3e-05	3
10483	1e-05	-3e-05	-1e-05	-1e-05	-4e-05	-1e-05	3e-05	3e-05	3
10484	1e-05	-3e-05	-1e-05	-1e-05	-4e-05	-1e-05	3e-05	3e-05	3
10485	1e-05	-3e-05	-1e-05	-1e-05	-4e-05	-1e-05	3e-05	3e-05	3
10486	1e-05	-3e-05	-1e-05	-1e-05	-4e-05	-1e-05	3e-05	3e-05	3
10488	1e-05	-3e-05	-1e-05	-1e-05	-4e-05	-1e-05	3e-05	3e-05	3
10489	1e-05	-3e-05	-1e-05	-1e-05	-4e-05	-1e-05	3e-05	3e-05	3
10490	1e-05	-3e-05	-1e-05	-1e-05	-4e-05	-1e-05	3e-05	3e-05	3
10491	1e-05	-3e-05	-1e-05	-1e-05	-4e-05	-1e-05	3e-05	3e-05	3
10492	1e-05	-3e-05	-1e-05	-1e-05	-4e-05	-1e-05	3e-05	3e-05	3
10493	1e-05	-3e-05	-1e-05	-1e-05	-4e-05	-1e-05	3e-05	3e-05	3
10494	1e-05	-3e-05	-1e-05	-1e-05	-4e-05	-1e-05	3e-05	3e-05	3
10495	1e-05	-3e-05	-1e-05	-1e-05	-4e-05	-1e-05	3e-05	3e-05	3
10496	0.00013	8e-05	-4e-05	-3e-05	0	6e-05	0	-1e-05	3
10497	0.00013	8e-05	-4e-05	-3e-05	0	6e-05	0	-1e-05	3
10498	1e-05	-1e-05	-2e-05	-1e-05	-2e-05	-2e-05	-6e-05	-0.00011	3
10499	1e-05	-1e-05	-2e-05	-1e-05	-2e-05	-2e-05	-6e-05	-0.00011	3
10500	1e-05	-1e-05	-2e-05	-1e-05	-2e-05	-2e-05	-6e-05	-0.00011	3
10501	1e-05	-1e-05	-2e-05	-1e-05	-2e-05	-2e-05	-6e-05	-0.00011	3
10502	1e-05	-1e-05	-2e-05	-1e-05	-2e-05	-2e-05	-6e-05	-0.00011	3
10503	1e-05	-1e-05	-2e-05	-1e-05	-2e-05	-2e-05	-6e-05	-0.00011	3
10504	1e-05	-1e-05	-2e-05	-1e-05	-2e-05	-2e-05	-6e-05	-0.00011	3
10505	1e-05	-1e-05	-2e-05	-1e-05	-2e-05	-2e-05	-6e-05	-0.00011	3
10506	1e-05	-1e-05	-2e-05	-1e-05	-2e-05	-2e-05	-6e-05	-0.00011	3
10507	1e-05	-1e-05	-2e-05	-1e-05	-2e-05	-2e-05	-6e-05	-0.00011	3
10508	1e-05	-1e-05	-2e-05	-1e-05	-2e-05	-2e-05	-6e-05	-0.00011	3
10509	1e-05	-1e-05	-2e-05	-1e-05	-2e-05	-2e-05	-6e-05	-0.00011	3
10510	1e-05	-1e-05	-2e-05	-1e-05	-2e-05	-2e-05	-6e-05	-0.00011	3
10511	1e-05	-1e-05	-2e-05	-1e-05	-2e-05	-2e-05	-6e-05	-0.00011	3
10512	1e-05	-1e-05	-2e-05	-1e-05	-2e-05	-2e-05	-6e-05	-0.00011	3
10513	1e-05	-1e-05	-2e-05	-1e-05	-2e-05	-2e-05	-6e-05	-0.00011	3
10514	1e-05	-1e-05	-2e-05	-1e-05	-2e-05	-2e-05	-6e-05	-0.00011	3
10515	1e-05	-1e-05	-2e-05	-1e-05	-2e-05	-2e-05	-6e-05	-0.00011	3
10516	1e-05	-1e-05	-2e-05	-1e-05	-2e-05	-2e-05	-6e-05	-0.00011	3
10517	1e-05	-1e-05	-2e-05	-1e-05	-2e-05	-2e-05	-6e-05	-0.00011	3
10518	1e-05	-1e-05	-2e-05	-1e-05	-2e-05	-2e-05	-6e-05	-0.00011	3
10519	0	0	-2e-05	0	-2e-05	-9e-05	-0.00037	-0.00031	3
10520	2e-05	1e-05	0	-1e-05	-2e-05	-3e-05	-1e-05	-9e-05	3
10521	2e-05	1e-05	0	-1e-05	-2e-05	-3e-05	-1e-05	-9e-05	3
10522	2e-05	1e-05	0	-1e-05	-2e-05	-3e-05	-1e-05	-9e-05	3
10523	2e-05	1e-05	0	-1e-05	-2e-05	-3e-05	-1e-05	-9e-05	3
10524	2e-05	1e-05	0	-1e-05	-2e-05	-3e-05	-1e-05	-9e-05	3
10525	2e-05	1e-05	0	-1e-05	-2e-05	-3e-05	-1e-05	-9e-05	3
10526	2e-05	1e-05	0	-1e-05	-2e-05	-3e-05	-1e-05	-9e-05	3
10527	2e-05	1e-05	0	-1e-05	-2e-05	-3e-05	-1e-05	-9e-05	3
10528	2e-05	1e-05	0	-1e-05	-2e-05	-3e-05	-1e-05	-9e-05	3
10529	2e-05	1e-05	0	-1e-05	-2e-05	-3e-05	-1e-05	-9e-05	3
10530	2e-05	1e-05	0	-1e-05	-2e-05	-3e-05	-1e-05	-9e-05	3
10531	2e-05	1e-05	0	-1e-05	-2e-05	-3e-05	-1e-05	-9e-05	3
10532	2e-05	1e-05	0	-1e-05	-2e-05	-3e-05	-1e-05	-9e-05	3
10533	3e-05	-2e-05	1e-05	-1e-05	-3e-05	-0.00014	2e-05	0.00035	3
10534	3e-05	-2e-05	1e-05	-1e-05	-3e-05	-0.00014	2e-05	0.00035	3
10535	3e-05	-2e-05	1e-05	-1e-05	-3e-05	-0.00014	2e-05	0.00035	3
10536	3e-05	-2e-05	1e-05	-1e-05	-3e-05	-0.00014	2e-05	0.00035	3
10538	3e-05	-2e-05	1e-05	-1e-05	-3e-05	-0.00014	2e-05	0.00035	3
10539	3e-05	-2e-05	1e-05	-1e-05	-3e-05	-0.00014	2e-05	0.00035	3
10540	-6e-05	-4e-05	0	0	-5e-05	-1e-05	-3e-05	-6e-05	3
10541	-6e-05	-4e-05	0	0	-5e-05	-1e-05	-3e-05	-6e-05	3
10542	-6e-05	-4e-05	0	0	-5e-05	-1e-05	-3e-05	-6e-05	3
10543	-6e-05	-4e-05	0	0	-5e-05	-1e-05	-3e-05	-6e-05	3
10544	-6e-05	-4e-05	0	0	-5e-05	-1e-05	-3e-05	-6e-05	3
10545	-6e-05	-4e-05	0	0	-5e-05	-1e-05	-3e-05	-6e-05	3
10546	-6e-05	-4e-05	0	0	-5e-05	-1e-05	-3e-05	-6e-05	3
10547	-6e-05	-4e-05	0	0	-5e-05	-1e-05	-3e-05	-6e-05	3
10548	-6e-05	-4e-05	0	0	-5e-05	-1e-05	-3e-05	-6e-05	3
10549	-6e-05	-4e-05	0	0	-5e-05	-1e-05	-3e-05	-6e-05	3
10550	-6e-05	-4e-05	0	0	-5e-05	-1e-05	-3e-05	-6e-05	3
10552	-6e-05	-4e-05	0	0	-5e-05	-1e-05	-3e-05	-6e-05	3
10553	-6e-05	-4e-05	0	0	-5e-05	-1e-05	-3e-05	-6e-05	3
10554	-6e-05	-4e-05	0	0	-5e-05	-1e-05	-3e-05	-6e-05	3
10555	-6e-05	-4e-05	0	0	-5e-05	-1e-05	-3e-05	-6e-05	3
10556	-2e-05	-7e-05	-3e-05	-2e-05	-2e-05	0	-1e-05	4e-05	3
10557	-2e-05	-7e-05	-3e-05	-2e-05	-2e-05	0	-1e-05	4e-05	3
10558	-3e-05	-9e-05	-1e-05	1e-05	0	4e-05	-1e-05	-0.00011	3
10559	-3e-05	-9e-05	-1e-05	1e-05	0	4e-05	-1e-05	-0.00011	3
10560	-3e-05	-9e-05	-1e-05	1e-05	0	4e-05	-1e-05	-0.00011	3
10561	-3e-05	-9e-05	-1e-05	1e-05	0	4e-05	-1e-05	-0.00011	3
10562	-3e-05	-9e-05	-1e-05	1e-05	0	4e-05	-1e-05	-0.00011	3
10563	-3e-05	-9e-05	-1e-05	1e-05	0	4e-05	-1e-05	-0.00011	3
10564	-3e-05	-9e-05	-1e-05	1e-05	0	4e-05	-1e-05	-0.00011	3
10565	-3e-05	-9e-05	-1e-05	1e-05	0	4e-05	-1e-05	-0.00011	3
10566	-3e-05	-9e-05	-1e-05	1e-05	0	4e-05	-1e-05	-0.00011	3
10567	-3e-05	-9e-05	-1e-05	1e-05	0	4e-05	-1e-05	-0.00011	3
10568	-3e-05	-9e-05	-1e-05	1e-05	0	4e-05	-1e-05	-0.00011	3
10569	-3e-05	-9e-05	-1e-05	1e-05	0	4e-05	-1e-05	-0.00011	3
10570	-3e-05	-9e-05	-1e-05	1e-05	0	4e-05	-1e-05	-0.00011	3
10571	-3e-05	-9e-05	-1e-05	1e-05	0	4e-05	-1e-05	-0.00011	3
10572	-3e-05	-9e-05	-1e-05	1e-05	0	4e-05	-1e-05	-0.00011	3
10573	-3e-05	-9e-05	-1e-05	1e-05	0	4e-05	-1e-05	-0.00011	3
10574	-3e-05	-9e-05	-1e-05	1e-05	0	4e-05	-1e-05	-0.00011	3
10575	-3e-05	-9e-05	-1e-05	1e-05	0	4e-05	-1e-05	-0.00011	3
10576	-3e-05	-9e-05	-1e-05	1e-05	0	4e-05	-1e-05	-0.00011	3
10577	-3e-05	-9e-05	-1e-05	1e-05	0	4e-05	-1e-05	-0.00011	3
10578	-3e-05	-9e-05	-1e-05	1e-05	0	4e-05	-1e-05	-0.00011	3
10579	2e-05	-2e-05	-1e-05	-4e-05	0	-1e-05	1e-05	-4e-05	3
10580	0	1e-05	-1e-05	-3e-05	-3e-05	-4e-05	-5e-05	-4e-05	3
10581	0	1e-05	-1e-05	-3e-05	-3e-05	-4e-05	-5e-05	-4e-05	3
10582	0	1e-05	-1e-05	-3e-05	-3e-05	-4e-05	-5e-05	-4e-05	3
10583	0	1e-05	-1e-05	-3e-05	-3e-05	-4e-05	-5e-05	-4e-05	3
10584	0	1e-05	-1e-05	-3e-05	-3e-05	-4e-05	-5e-05	-4e-05	3
10585	0	1e-05	-1e-05	-3e-05	-3e-05	-4e-05	-5e-05	-4e-05	3
10586	0	1e-05	-1e-05	-3e-05	-3e-05	-4e-05	-5e-05	-4e-05	3
10588	0	1e-05	-1e-05	-3e-05	-3e-05	-4e-05	-5e-05	-4e-05	3
10589	0	1e-05	-1e-05	-3e-05	-3e-05	-4e-05	-5e-05	-4e-05	3
10590	0	1e-05	-1e-05	-3e-05	-3e-05	-4e-05	-5e-05	-4e-05	3
10591	0	1e-05	-1e-05	-3e-05	-3e-05	-4e-05	-5e-05	-4e-05	3
10592	0	1e-05	-1e-05	-3e-05	-3e-05	-4e-05	-5e-05	-4e-05	3
10593	0	1e-05	-1e-05	-3e-05	-3e-05	-4e-05	-5e-05	-4e-05	3
10594	0	1e-05	-1e-05	-3e-05	-3e-05	-4e-05	-5e-05	-4e-05	3
10595	0	1e-05	-1e-05	-3e-05	-3e-05	-4e-05	-5e-05	-4e-05	3
10596	0	1e-05	-1e-05	-3e-05	-3e-05	-4e-05	-5e-05	-4e-05	3
10597	0	1e-05	-1e-05	-3e-05	-3e-05	-4e-05	-5e-05	-4e-05	3
10598	0	1e-05	-1e-05	-3e-05	-3e-05	-4e-05	-5e-05	-4e-05	3
10599	0	1e-05	-1e-05	-3e-05	-3e-05	-4e-05	-5e-05	-4e-05	3
10600	0	1e-05	-1e-05	-3e-05	-3e-05	-4e-05	-5e-05	-4e-05	3
10601	-3e-05	-7e-05	1e-05	2e-05	-9e-05	-0.00014	0.00017	0.00028	3
10602	-3e-05	-7e-05	1e-05	2e-05	-9e-05	-0.00014	0.00017	0.00028	3
10603	-8e-05	-4e-05	-7e-05	-5e-05	-3e-05	-1e-05	-3e-05	-1e-05	3
10604	-8e-05	-4e-05	-7e-05	-5e-05	-3e-05	-1e-05	-3e-05	-1e-05	3
10605	-8e-05	-4e-05	-7e-05	-5e-05	-3e-05	-1e-05	-3e-05	-1e-05	3
10606	-8e-05	-4e-05	-7e-05	-5e-05	-3e-05	-1e-05	-3e-05	-1e-05	3
10607	-8e-05	-4e-05	-7e-05	-5e-05	-3e-05	-1e-05	-3e-05	-1e-05	3
10608	-8e-05	-4e-05	-7e-05	-5e-05	-3e-05	-1e-05	-3e-05	-1e-05	3
10609	-8e-05	-4e-05	-7e-05	-5e-05	-3e-05	-1e-05	-3e-05	-1e-05	3
10610	-8e-05	-4e-05	-7e-05	-5e-05	-3e-05	-1e-05	-3e-05	-1e-05	3
10611	-8e-05	-4e-05	-7e-05	-5e-05	-3e-05	-1e-05	-3e-05	-1e-05	3
10612	-8e-05	-4e-05	-7e-05	-5e-05	-3e-05	-1e-05	-3e-05	-1e-05	3
10613	-8e-05	-4e-05	-7e-05	-5e-05	-3e-05	-1e-05	-3e-05	-1e-05	3
10614	-8e-05	-4e-05	-7e-05	-5e-05	-3e-05	-1e-05	-3e-05	-1e-05	3
10615	-8e-05	-4e-05	-7e-05	-5e-05	-3e-05	-1e-05	-3e-05	-1e-05	3
10616	0.00011	0.00011	3e-05	2e-05	3e-05	2e-05	-1e-05	-4e-05	3
10617	0.00011	0.00011	3e-05	2e-05	3e-05	2e-05	-1e-05	-4e-05	3
10618	-0.00013	-0.00012	3e-05	-1e-05	0	-4e-05	-0.00013	-0.00012	3
10619	-0.00013	-0.00012	3e-05	-1e-05	0	-4e-05	-0.00013	-0.00012	3
10620	-0.00013	-0.00012	3e-05	-1e-05	0	-4e-05	-0.00013	-0.00012	3
10621	-0.00013	-0.00012	3e-05	-1e-05	0	-4e-05	-0.00013	-0.00012	3
10622	-0.00013	-0.00012	3e-05	-1e-05	0	-4e-05	-0.00013	-0.00012	3
10623	-0.00013	-0.00012	3e-05	-1e-05	0	-4e-05	-0.00013	-0.00012	3
10624	-0.00013	-0.00012	3e-05	-1e-05	0	-4e-05	-0.00013	-0.00012	3
10625	-0.00013	-0.00012	3e-05	-1e-05	0	-4e-05	-0.00013	-0.00012	3
10626	-0.00013	-0.00012	3e-05	-1e-05	0	-4e-05	-0.00013	-0.00012	3
10627	-0.00013	-0.00012	3e-05	-1e-05	0	-4e-05	-0.00013	-0.00012	3
10628	-0.00013	-0.00012	3e-05	-1e-05	0	-4e-05	-0.00013	-0.00012	3
10629	-0.00013	-0.00012	3e-05	-1e-05	0	-4e-05	-0.00013	-0.00012	3
10630	-0.00013	-0.00012	3e-05	-1e-05	0	-4e-05	-0.00013	-0.00012	3
10631	-0.00013	-0.00012	3e-05	-1e-05	0	-4e-05	-0.00013	-0.00012	3
10632	-0.00013	-0.00012	3e-05	-1e-05	0	-4e-05	-0.00013	-0.00012	3
10633	-0.00013	-0.00012	3e-05	-1e-05	0	-4e-05	-0.00013	-0.00012	3
10634	-0.00013	-0.00012	3e-05	-1e-05	0	-4e-05	-0.00013	-0.00012	3
10635	-0.00013	-0.00012	3e-05	-1e-05	0	-4e-05	-0.00013	-0.00012	3
10636	-0.00013	-0.00012	3e-05	-1e-05	0	-4e-05	-0.00013	-0.00012	3
10638	-2e-05	-5e-05	-4e-05	-3e-05	-4e-05	1e-05	-4e-05	-6e-05	3
10639	-2e-05	-5e-05	-4e-05	-3e-05	-4e-05	1e-05	-4e-05	-6e-05	3
10640	-2e-05	-5e-05	-4e-05	-3e-05	-4e-05	1e-05	-4e-05	-6e-05	3
10641	-2e-05	-5e-05	-4e-05	-3e-05	-4e-05	1e-05	-4e-05	-6e-05	3
10642	-2e-05	-5e-05	-4e-05	-3e-05	-4e-05	1e-05	-4e-05	-6e-05	3
10643	-2e-05	-5e-05	-4e-05	-3e-05	-4e-05	1e-05	-4e-05	-6e-05	3
10644	-2e-05	-5e-05	-4e-05	-3e-05	-4e-05	1e-05	-4e-05	-6e-05	3
10645	-2e-05	-5e-05	-4e-05	-3e-05	-4e-05	1e-05	-4e-05	-6e-05	3
10646	9e-05	9e-05	-3e-05	-4e-05	1e-05	4e-05	6e-05	0.0001	3
10647	9e-05	9e-05	-3e-05	-4e-05	1e-05	4e-05	6e-05	0.0001	3
10648	9e-05	9e-05	-3e-05	-4e-05	1e-05	4e-05	6e-05	0.0001	3
10649	9e-05	9e-05	-3e-05	-4e-05	1e-05	4e-05	6e-05	0.0001	3
10650	9e-05	9e-05	-3e-05	-4e-05	1e-05	4e-05	6e-05	0.0001	3
10651	9e-05	9e-05	-3e-05	-4e-05	1e-05	4e-05	6e-05	0.0001	3
10652	9e-05	9e-05	-3e-05	-4e-05	1e-05	4e-05	6e-05	0.0001	3
10653	-6e-05	-1e-05	1e-05	-1e-05	2e-05	2e-05	5e-05	7e-05	3
10654	-6e-05	-1e-05	1e-05	-1e-05	2e-05	2e-05	5e-05	7e-05	3
10655	-6e-05	-1e-05	1e-05	-1e-05	2e-05	2e-05	5e-05	7e-05	3
10656	-6e-05	-1e-05	1e-05	-1e-05	2e-05	2e-05	5e-05	7e-05	3
10657	-6e-05	-1e-05	1e-05	-1e-05	2e-05	2e-05	5e-05	7e-05	3
10658	-6e-05	-1e-05	1e-05	-1e-05	2e-05	2e-05	5e-05	7e-05	3
10659	-6e-05	-1e-05	1e-05	-1e-05	2e-05	2e-05	5e-05	7e-05	3
10660	7e-05	0.00011	1e-05	-1e-05	-5e-05	-6e-05	9e-05	4e-05	3
10661	7e-05	0.00011	1e-05	-1e-05	-5e-05	-6e-05	9e-05	4e-05	3
10662	7e-05	0.00011	1e-05	-1e-05	-5e-05	-6e-05	9e-05	4e-05	3
10663	7e-05	0.00011	1e-05	-1e-05	-5e-05	-6e-05	9e-05	4e-05	3
10664	7e-05	0.00011	1e-05	-1e-05	-5e-05	-6e-05	9e-05	4e-05	3
10665	7e-05	0.00011	1e-05	-1e-05	-5e-05	-6e-05	9e-05	4e-05	3
10666	7e-05	0.00011	1e-05	-1e-05	-5e-05	-6e-05	9e-05	4e-05	3
10667	7e-05	0.00011	1e-05	-1e-05	-5e-05	-6e-05	9e-05	4e-05	3
10668	7e-05	0.00011	1e-05	-1e-05	-5e-05	-6e-05	9e-05	4e-05	3
10669	7e-05	0.00011	1e-05	-1e-05	-5e-05	-6e-05	9e-05	4e-05	3
10670	7e-05	0.00011	1e-05	-1e-05	-5e-05	-6e-05	9e-05	4e-05	3
10671	7e-05	0.00011	1e-05	-1e-05	-5e-05	-6e-05	9e-05	4e-05	3
10672	7e-05	0.00011	1e-05	-1e-05	-5e-05	-6e-05	9e-05	4e-05	3
10673	7e-05	0.00011	1e-05	-1e-05	-5e-05	-6e-05	9e-05	4e-05	3
10674	7e-05	0.00011	1e-05	-1e-05	-5e-05	-6e-05	9e-05	4e-05	3
10675	7e-05	0.00011	1e-05	-1e-05	-5e-05	-6e-05	9e-05	4e-05	3
10676	-0.0001	-6e-05	-4e-05	-4e-05	-6e-05	1e-05	1e-05	-8e-05	3
10677	-0.0001	-6e-05	-4e-05	-4e-05	-6e-05	1e-05	1e-05	-8e-05	3
10678	8e-05	6e-05	1e-05	2e-05	1e-05	3e-05	-6e-05	-0.00011	3
10679	8e-05	6e-05	1e-05	2e-05	1e-05	3e-05	-6e-05	-0.00011	3
10680	8e-05	6e-05	1e-05	2e-05	1e-05	3e-05	-6e-05	-0.00011	3
10681	8e-05	6e-05	1e-05	2e-05	1e-05	3e-05	-6e-05	-0.00011	3
10682	8e-05	6e-05	1e-05	2e-05	1e-05	3e-05	-6e-05	-0.00011	3
10683	8e-05	6e-05	1e-05	2e-05	1e-05	3e-05	-6e-05	-0.00011	3
10684	8e-05	6e-05	1e-05	2e-05	1e-05	3e-05	-6e-05	-0.00011	3
10685	8e-05	6e-05	1e-05	2e-05	1e-05	3e-05	-6e-05	-0.00011	3
10686	8e-05	6e-05	1e-05	2e-05	1e-05	3e-05	-6e-05	-0.00011	3
10688	8e-05	6e-05	1e-05	2e-05	1e-05	3e-05	-6e-05	-0.00011	3
10689	8e-05	6e-05	1e-05	2e-05	1e-05	3e-05	-6e-05	-0.00011	3
10690	8e-05	6e-05	1e-05	2e-05	1e-05	3e-05	-6e-05	-0.00011	3
10691	8e-05	6e-05	1e-05	2e-05	1e-05	3e-05	-6e-05	-0.00011	3
10692	8e-05	6e-05	1e-05	2e-05	1e-05	3e-05	-6e-05	-0.00011	3
10693	8e-05	6e-05	1e-05	2e-05	1e-05	3e-05	-6e-05	-0.00011	3
10694	8e-05	6e-05	1e-05	2e-05	1e-05	3e-05	-6e-05	-0.00011	3
10695	8e-05	6e-05	1e-05	2e-05	1e-05	3e-05	-6e-05	-0.00011	3
10696	8e-05	6e-05	1e-05	2e-05	1e-05	3e-05	-6e-05	-0.00011	3
10697	8e-05	6e-05	1e-05	2e-05	1e-05	3e-05	-6e-05	-0.00011	3
10698	8e-05	6e-05	1e-05	2e-05	1e-05	3e-05	-6e-05	-0.00011	3
10699	0	-5e-05	2e-05	0	2e-05	-5e-05	3e-05	-0.0001	3
10700	-4e-05	-2e-05	-1e-05	0	0	4e-05	7e-05	2e-05	3
10701	-4e-05	-2e-05	-1e-05	0	0	4e-05	7e-05	2e-05	3
10702	-4e-05	-2e-05	-1e-05	0	0	4e-05	7e-05	2e-05	3
10703	-4e-05	-2e-05	-1e-05	0	0	4e-05	7e-05	2e-05	3
10704	-4e-05	-2e-05	-1e-05	0	0	4e-05	7e-05	2e-05	3
10705	-4e-05	-2e-05	-1e-05	0	0	4e-05	7e-05	2e-05	3
10706	-4e-05	-2e-05	-1e-05	0	0	4e-05	7e-05	2e-05	3
10707	-4e-05	-2e-05	-1e-05	0	0	4e-05	7e-05	2e-05	3
10708	-4e-05	-2e-05	-1e-05	0	0	4e-05	7e-05	2e-05	3
10709	-4e-05	-2e-05	-1e-05	0	0	4e-05	7e-05	2e-05	3
10710	-4e-05	-2e-05	-1e-05	0	0	4e-05	7e-05	2e-05	3
10711	-4e-05	-2e-05	-1e-05	0	0	4e-05	7e-05	2e-05	3
10712	-4e-05	-2e-05	-1e-05	0	0	4e-05	7e-05	2e-05	3
10713	5e-05	0.00011	-1e-05	0	1e-05	0	-2e-05	-2e-05	3
10714	5e-05	0.00011	-1e-05	0	1e-05	0	-2e-05	-2e-05	3
10715	5e-05	0.00011	-1e-05	0	1e-05	0	-2e-05	-2e-05	3
10716	5e-05	0.00011	-1e-05	0	1e-05	0	-2e-05	-2e-05	3
10717	5e-05	0.00011	-1e-05	0	1e-05	0	-2e-05	-2e-05	3
10718	5e-05	0.00011	-1e-05	0	1e-05	0	-2e-05	-2e-05	3
10719	5e-05	0.00011	-1e-05	0	1e-05	0	-2e-05	-2e-05	3
10720	-0.0001	-5e-05	-1e-05	-1e-05	0	4e-05	1e-05	3e-05	3
10721	-0.0001	-5e-05	-1e-05	-1e-05	0	4e-05	1e-05	3e-05	3
10722	-0.0001	-5e-05	-1e-05	-1e-05	0	4e-05	1e-05	3e-05	3
10723	-0.0001	-5e-05	-1e-05	-1e-05	0	4e-05	1e-05	3e-05	3
10724	-0.0001	-5e-05	-1e-05	-1e-05	0	4e-05	1e-05	3e-05	3
10725	-0.0001	-5e-05	-1e-05	-1e-05	0	4e-05	1e-05	3e-05	3
10726	-0.0001	-5e-05	-1e-05	-1e-05	0	4e-05	1e-05	3e-05	3
10727	-0.0001	-5e-05	-1e-05	-1e-05	0	4e-05	1e-05	3e-05	3
10728	-0.0001	-5e-05	-1e-05	-1e-05	0	4e-05	1e-05	3e-05	3
10729	-0.0001	-5e-05	-1e-05	-1e-05	0	4e-05	1e-05	3e-05	3
10730	-0.0001	-5e-05	-1e-05	-1e-05	0	4e-05	1e-05	3e-05	3
10731	-0.0001	-5e-05	-1e-05	-1e-05	0	4e-05	1e-05	3e-05	3
10732	-0.0001	-5e-05	-1e-05	-1e-05	0	4e-05	1e-05	3e-05	3
10733	-0.0001	-5e-05	-1e-05	-1e-05	0	4e-05	1e-05	3e-05	3
10734	-0.0001	-5e-05	-1e-05	-1e-05	0	4e-05	1e-05	3e-05	3
10735	-0.0001	-5e-05	-1e-05	-1e-05	0	4e-05	1e-05	3e-05	3
10736	-4e-05	1e-05	-3e-05	0	5e-05	4e-05	5e-05	1e-05	3
10739	-4e-05	1e-05	-3e-05	0	5e-05	4e-05	5e-05	1e-05	3
10740	-4e-05	1e-05	-3e-05	0	5e-05	4e-05	5e-05	1e-05	3
10741	-4e-05	1e-05	-3e-05	0	5e-05	4e-05	5e-05	1e-05	3
10742	-4e-05	1e-05	-3e-05	0	5e-05	4e-05	5e-05	1e-05	3
10743	0	2e-05	1e-05	-2e-05	-5e-05	-4e-05	-3e-05	0	3
10744	-1e-05	-0.00011	-4e-05	-3e-05	-7e-05	-8e-05	-0.00017	0.0001	3
10745	-1e-05	-0.00011	-4e-05	-3e-05	-7e-05	-8e-05	-0.00017	0.0001	3
10746	-1e-05	-0.00011	-4e-05	-3e-05	-7e-05	-8e-05	-0.00017	0.0001	3
10747	-1e-05	-0.00011	-4e-05	-3e-05	-7e-05	-8e-05	-0.00017	0.0001	3
10748	-1e-05	-0.00011	-4e-05	-3e-05	-7e-05	-8e-05	-0.00017	0.0001	3
10749	-1e-05	-0.00011	-4e-05	-3e-05	-7e-05	-8e-05	-0.00017	0.0001	3
10750	-1e-05	-0.00011	-4e-05	-3e-05	-7e-05	-8e-05	-0.00017	0.0001	3
10751	-1e-05	-0.00011	-4e-05	-3e-05	-7e-05	-8e-05	-0.00017	0.0001	3
10752	-1e-05	-0.00011	-4e-05	-3e-05	-7e-05	-8e-05	-0.00017	0.0001	3
10753	-1e-05	-0.00011	-4e-05	-3e-05	-7e-05	-8e-05	-0.00017	0.0001	3
10754	-1e-05	-0.00011	-4e-05	-3e-05	-7e-05	-8e-05	-0.00017	0.0001	3
10755	-1e-05	-0.00011	-4e-05	-3e-05	-7e-05	-8e-05	-0.00017	0.0001	3
10756	-1e-05	-0.00011	-4e-05	-3e-05	-7e-05	-8e-05	-0.00017	0.0001	3
10757	-1e-05	-0.00011	-4e-05	-3e-05	-7e-05	-8e-05	-0.00017	0.0001	3
10758	-1e-05	-0.00011	-4e-05	-3e-05	-7e-05	-8e-05	-0.00017	0.0001	3
10759	1e-05	4e-05	-9e-05	-8e-05	-3e-05	-1e-05	-2e-05	-2e-05	3
10760	1e-05	4e-05	-9e-05	-8e-05	-3e-05	-1e-05	-2e-05	-2e-05	3
10761	-2e-05	4e-05	0	-3e-05	-2e-05	-5e-05	0	-0.00013	3
10762	-2e-05	4e-05	0	-3e-05	-2e-05	-5e-05	0	-0.00013	3
10763	-2e-05	4e-05	0	-3e-05	-2e-05	-5e-05	0	-0.00013	3
10764	-2e-05	4e-05	0	-3e-05	-2e-05	-5e-05	0	-0.00013	3
10765	-2e-05	4e-05	0	-3e-05	-2e-05	-5e-05	0	-0.00013	3
10766	-2e-05	4e-05	0	-3e-05	-2e-05	-5e-05	0	-0.00013	3
10767	-2e-05	4e-05	0	-3e-05	-2e-05	-5e-05	0	-0.00013	3
10768	-2e-05	4e-05	0	-3e-05	-2e-05	-5e-05	0	-0.00013	3
10769	-2e-05	4e-05	0	-3e-05	-2e-05	-5e-05	0	-0.00013	3
10770	-2e-05	4e-05	0	-3e-05	-2e-05	-5e-05	0	-0.00013	3
10771	-2e-05	4e-05	0	-3e-05	-2e-05	-5e-05	0	-0.00013	3
10772	-2e-05	4e-05	0	-3e-05	-2e-05	-5e-05	0	-0.00013	3
10773	-2e-05	4e-05	0	-3e-05	-2e-05	-5e-05	0	-0.00013	3
10774	-2e-05	4e-05	0	-3e-05	-2e-05	-5e-05	0	-0.00013	3
10775	-2e-05	4e-05	0	-3e-05	-2e-05	-5e-05	0	-0.00013	3
10776	-2e-05	4e-05	0	-3e-05	-2e-05	-5e-05	0	-0.00013	3
10777	-2e-05	4e-05	0	-3e-05	-2e-05	-5e-05	0	-0.00013	3
10778	-2e-05	4e-05	0	-3e-05	-2e-05	-5e-05	0	-0.00013	3
10779	-2e-05	4e-05	0	-3e-05	-2e-05	-5e-05	0	-0.00013	3
10780	-2e-05	4e-05	0	-3e-05	-2e-05	-5e-05	0	-0.00013	3
10781	-2e-05	4e-05	0	-3e-05	-2e-05	-5e-05	0	-0.00013	3
10782	-2e-05	-2e-05	3e-05	3e-05	2e-05	6e-05	0	0	3
10783	-2e-05	-2e-05	3e-05	3e-05	2e-05	6e-05	0	0	3
10784	-2e-05	-2e-05	3e-05	3e-05	2e-05	6e-05	0	0	3
10785	-2e-05	-2e-05	3e-05	3e-05	2e-05	6e-05	0	0	3
10786	-2e-05	-2e-05	3e-05	3e-05	2e-05	6e-05	0	0	3
10789	-0.00014	-9e-05	1e-05	1e-05	-4e-05	-2e-05	-1e-05	-0.00018	3
10790	-0.00014	-9e-05	1e-05	1e-05	-4e-05	-2e-05	-1e-05	-0.00018	3
10791	-0.00014	-9e-05	1e-05	1e-05	-4e-05	-2e-05	-1e-05	-0.00018	3
10792	-0.00014	-9e-05	1e-05	1e-05	-4e-05	-2e-05	-1e-05	-0.00018	3
10793	-0.00014	-9e-05	1e-05	1e-05	-4e-05	-2e-05	-1e-05	-0.00018	3
10794	-0.00014	-9e-05	1e-05	1e-05	-4e-05	-2e-05	-1e-05	-0.00018	3
10795	-0.00014	-9e-05	1e-05	1e-05	-4e-05	-2e-05	-1e-05	-0.00018	3
10796	-2e-05	-3e-05	-2e-05	-2e-05	-4e-05	-4e-05	-6e-05	-1e-05	3
10797	-2e-05	-3e-05	-2e-05	-2e-05	-4e-05	-4e-05	-6e-05	-1e-05	3
10798	-3e-05	-0.00026	-5e-05	-1e-05	3e-05	-1e-05	-4e-05	0.00017	3
10799	-3e-05	-0.00026	-5e-05	-1e-05	3e-05	-1e-05	-4e-05	0.00017	3
10800	-3e-05	-0.00026	-5e-05	-1e-05	3e-05	-1e-05	-4e-05	0.00017	3
10801	-3e-05	-0.00026	-5e-05	-1e-05	3e-05	-1e-05	-4e-05	0.00017	3
10802	-3e-05	-0.00026	-5e-05	-1e-05	3e-05	-1e-05	-4e-05	0.00017	3
10803	-3e-05	-0.00026	-5e-05	-1e-05	3e-05	-1e-05	-4e-05	0.00017	3
10804	-3e-05	-0.00026	-5e-05	-1e-05	3e-05	-1e-05	-4e-05	0.00017	3
10805	-3e-05	-0.00026	-5e-05	-1e-05	3e-05	-1e-05	-4e-05	0.00017	3
10806	-3e-05	-0.00026	-5e-05	-1e-05	3e-05	-1e-05	-4e-05	0.00017	3
10807	-3e-05	-0.00026	-5e-05	-1e-05	3e-05	-1e-05	-4e-05	0.00017	3
10808	-3e-05	-0.00026	-5e-05	-1e-05	3e-05	-1e-05	-4e-05	0.00017	3
10809	-3e-05	-0.00026	-5e-05	-1e-05	3e-05	-1e-05	-4e-05	0.00017	3
10810	-3e-05	-0.00026	-5e-05	-1e-05	3e-05	-1e-05	-4e-05	0.00017	3
10811	-3e-05	-0.00026	-5e-05	-1e-05	3e-05	-1e-05	-4e-05	0.00017	3
10812	-3e-05	-0.00026	-5e-05	-1e-05	3e-05	-1e-05	-4e-05	0.00017	3
10813	-3e-05	-0.00026	-5e-05	-1e-05	3e-05	-1e-05	-4e-05	0.00017	3
10814	-3e-05	-0.00026	-5e-05	-1e-05	3e-05	-1e-05	-4e-05	0.00017	3
10815	-3e-05	-0.00026	-5e-05	-1e-05	3e-05	-1e-05	-4e-05	0.00017	3
10816	-3e-05	-0.00026	-5e-05	-1e-05	3e-05	-1e-05	-4e-05	0.00017	3
10817	-3e-05	-0.00026	-5e-05	-1e-05	3e-05	-1e-05	-4e-05	0.00017	3
10818	-3e-05	-0.00026	-5e-05	-1e-05	3e-05	-1e-05	-4e-05	0.00017	3
10819	7e-05	-8e-05	-1e-05	0	2e-05	5e-05	-1e-05	2e-05	3
10820	-5e-05	-2e-05	-2e-05	1e-05	7e-05	7e-05	-1e-05	7e-05	3
10821	-5e-05	-2e-05	-2e-05	1e-05	7e-05	7e-05	-1e-05	7e-05	3
10822	-5e-05	-2e-05	-2e-05	1e-05	7e-05	7e-05	-1e-05	7e-05	3
10823	-5e-05	-2e-05	-2e-05	1e-05	7e-05	7e-05	-1e-05	7e-05	3
10824	-5e-05	-2e-05	-2e-05	1e-05	7e-05	7e-05	-1e-05	7e-05	3
10825	-5e-05	-2e-05	-2e-05	1e-05	7e-05	7e-05	-1e-05	7e-05	3
10826	-5e-05	-2e-05	-2e-05	1e-05	7e-05	7e-05	-1e-05	7e-05	3
10827	-5e-05	-2e-05	-2e-05	1e-05	7e-05	7e-05	-1e-05	7e-05	3
10828	-5e-05	-2e-05	-2e-05	1e-05	7e-05	7e-05	-1e-05	7e-05	3
10829	-5e-05	-2e-05	-2e-05	1e-05	7e-05	7e-05	-1e-05	7e-05	3
10830	-5e-05	-2e-05	-2e-05	1e-05	7e-05	7e-05	-1e-05	7e-05	3
10831	-5e-05	-2e-05	-2e-05	1e-05	7e-05	7e-05	-1e-05	7e-05	3
10832	6e-05	-1e-05	2e-05	1e-05	-2e-05	-3e-05	-1e-05	1e-05	3
10833	6e-05	-1e-05	2e-05	1e-05	-2e-05	-3e-05	-1e-05	1e-05	3
10834	6e-05	-1e-05	2e-05	1e-05	-2e-05	-3e-05	-1e-05	1e-05	3
10835	6e-05	-1e-05	2e-05	1e-05	-2e-05	-3e-05	-1e-05	1e-05	3
10836	6e-05	-1e-05	2e-05	1e-05	-2e-05	-3e-05	-1e-05	1e-05	3
10838	6e-05	-1e-05	2e-05	1e-05	-2e-05	-3e-05	-1e-05	1e-05	3
10839	6e-05	-1e-05	2e-05	1e-05	-2e-05	-3e-05	-1e-05	1e-05	3
10840	6e-05	-1e-05	2e-05	1e-05	-2e-05	-3e-05	-1e-05	1e-05	3
10841	6e-05	8e-05	-2e-05	0	-1e-05	-9e-05	-2e-05	-9e-05	3
10842	6e-05	8e-05	-2e-05	0	-1e-05	-9e-05	-2e-05	-9e-05	3
10843	6e-05	8e-05	-2e-05	0	-1e-05	-9e-05	-2e-05	-9e-05	3
10844	6e-05	8e-05	-2e-05	0	-1e-05	-9e-05	-2e-05	-9e-05	3
10845	6e-05	8e-05	-2e-05	0	-1e-05	-9e-05	-2e-05	-9e-05	3
10846	6e-05	8e-05	-2e-05	0	-1e-05	-9e-05	-2e-05	-9e-05	3
10847	6e-05	8e-05	-2e-05	0	-1e-05	-9e-05	-2e-05	-9e-05	3
10848	6e-05	8e-05	-2e-05	0	-1e-05	-9e-05	-2e-05	-9e-05	3
10849	6e-05	8e-05	-2e-05	0	-1e-05	-9e-05	-2e-05	-9e-05	3
10850	6e-05	8e-05	-2e-05	0	-1e-05	-9e-05	-2e-05	-9e-05	3
10851	6e-05	8e-05	-2e-05	0	-1e-05	-9e-05	-2e-05	-9e-05	3
10852	6e-05	8e-05	-2e-05	0	-1e-05	-9e-05	-2e-05	-9e-05	3
10853	6e-05	8e-05	-2e-05	0	-1e-05	-9e-05	-2e-05	-9e-05	3
10854	6e-05	8e-05	-2e-05	0	-1e-05	-9e-05	-2e-05	-9e-05	3
10855	6e-05	8e-05	-2e-05	0	-1e-05	-9e-05	-2e-05	-9e-05	3
10856	-7e-05	5e-05	3e-05	3e-05	0	6e-05	1e-05	-9e-05	3
10857	-7e-05	5e-05	3e-05	3e-05	0	6e-05	1e-05	-9e-05	3
10858	2e-05	5e-05	-1e-05	-2e-05	-4e-05	-6e-05	-2e-05	-7e-05	3
10859	2e-05	5e-05	-1e-05	-2e-05	-4e-05	-6e-05	-2e-05	-7e-05	3
10860	2e-05	5e-05	-1e-05	-2e-05	-4e-05	-6e-05	-2e-05	-7e-05	3
10861	2e-05	5e-05	-1e-05	-2e-05	-4e-05	-6e-05	-2e-05	-7e-05	3
10862	2e-05	5e-05	-1e-05	-2e-05	-4e-05	-6e-05	-2e-05	-7e-05	3
10863	2e-05	5e-05	-1e-05	-2e-05	-4e-05	-6e-05	-2e-05	-7e-05	3
10864	2e-05	5e-05	-1e-05	-2e-05	-4e-05	-6e-05	-2e-05	-7e-05	3
10865	2e-05	5e-05	-1e-05	-2e-05	-4e-05	-6e-05	-2e-05	-7e-05	3
10866	2e-05	5e-05	-1e-05	-2e-05	-4e-05	-6e-05	-2e-05	-7e-05	3
10867	2e-05	5e-05	-1e-05	-2e-05	-4e-05	-6e-05	-2e-05	-7e-05	3
10868	2e-05	5e-05	-1e-05	-2e-05	-4e-05	-6e-05	-2e-05	-7e-05	3
10869	2e-05	5e-05	-1e-05	-2e-05	-4e-05	-6e-05	-2e-05	-7e-05	3
10870	2e-05	5e-05	-1e-05	-2e-05	-4e-05	-6e-05	-2e-05	-7e-05	3
10871	2e-05	5e-05	-1e-05	-2e-05	-4e-05	-6e-05	-2e-05	-7e-05	3
10872	2e-05	5e-05	-1e-05	-2e-05	-4e-05	-6e-05	-2e-05	-7e-05	3
10873	2e-05	5e-05	-1e-05	-2e-05	-4e-05	-6e-05	-2e-05	-7e-05	3
10874	2e-05	5e-05	-1e-05	-2e-05	-4e-05	-6e-05	-2e-05	-7e-05	3
10875	2e-05	5e-05	-1e-05	-2e-05	-4e-05	-6e-05	-2e-05	-7e-05	3
10876	2e-05	5e-05	-1e-05	-2e-05	-4e-05	-6e-05	-2e-05	-7e-05	3
10877	2e-05	5e-05	-1e-05	-2e-05	-4e-05	-6e-05	-2e-05	-7e-05	3
10878	-2e-05	0	0	0	3e-05	0.0001	5e-05	0.00011	3
10879	5e-05	1e-05	2e-05	3e-05	2e-05	5e-05	0.00014	0.00023	3
10880	0.00024	0.00019	1e-05	-1e-05	-1e-05	2e-05	2e-05	0.00041	3
10881	0.00024	0.00019	1e-05	-1e-05	-1e-05	2e-05	2e-05	0.00041	3
10882	0.00024	0.00019	1e-05	-1e-05	-1e-05	2e-05	2e-05	0.00041	3
10883	0.00024	0.00019	1e-05	-1e-05	-1e-05	2e-05	2e-05	0.00041	3
10884	0.00024	0.00019	1e-05	-1e-05	-1e-05	2e-05	2e-05	0.00041	3
10885	0.00024	0.00019	1e-05	-1e-05	-1e-05	2e-05	2e-05	0.00041	3
10886	0.00024	0.00019	1e-05	-1e-05	-1e-05	2e-05	2e-05	0.00041	3
10889	0.00024	0.00019	1e-05	-1e-05	-1e-05	2e-05	2e-05	0.00041	3
10890	0.00024	0.00019	1e-05	-1e-05	-1e-05	2e-05	2e-05	0.00041	3
10891	0.00024	0.00019	1e-05	-1e-05	-1e-05	2e-05	2e-05	0.00041	3
10892	0	1e-05	-1e-05	-4e-05	-6e-05	0	-7e-05	3e-05	3
10894	0	1e-05	-1e-05	-4e-05	-6e-05	0	-7e-05	3e-05	3
10895	0	1e-05	-1e-05	-4e-05	-6e-05	0	-7e-05	3e-05	3
10896	0	1e-05	-1e-05	-4e-05	-6e-05	0	-7e-05	3e-05	3
10897	0	1e-05	-1e-05	-4e-05	-6e-05	0	-7e-05	3e-05	3
10898	0	1e-05	-1e-05	-4e-05	-6e-05	0	-7e-05	3e-05	3
10899	0	1e-05	-1e-05	-4e-05	-6e-05	0	-7e-05	3e-05	3
10900	0	1e-05	-1e-05	-4e-05	-6e-05	0	-7e-05	3e-05	3
10901	-0.00014	-3e-05	-4e-05	-1e-05	-1e-05	0	2e-05	-0.0001	3
10902	-0.00014	-3e-05	-4e-05	-1e-05	-1e-05	0	2e-05	-0.0001	3
10903	-0.00014	-3e-05	-4e-05	-1e-05	-1e-05	0	2e-05	-0.0001	3
10904	-0.00014	-3e-05	-4e-05	-1e-05	-1e-05	0	2e-05	-0.0001	3
10905	-0.00014	-3e-05	-4e-05	-1e-05	-1e-05	0	2e-05	-0.0001	3
10906	-0.00014	-3e-05	-4e-05	-1e-05	-1e-05	0	2e-05	-0.0001	3
10907	-0.00014	-3e-05	-4e-05	-1e-05	-1e-05	0	2e-05	-0.0001	3
10908	-0.00014	-3e-05	-4e-05	-1e-05	-1e-05	0	2e-05	-0.0001	3
10909	-0.00014	-3e-05	-4e-05	-1e-05	-1e-05	0	2e-05	-0.0001	3
10910	-0.00014	-3e-05	-4e-05	-1e-05	-1e-05	0	2e-05	-0.0001	3
10911	-0.00014	-3e-05	-4e-05	-1e-05	-1e-05	0	2e-05	-0.0001	3
10912	-0.00014	-3e-05	-4e-05	-1e-05	-1e-05	0	2e-05	-0.0001	3
10913	-0.00014	-3e-05	-4e-05	-1e-05	-1e-05	0	2e-05	-0.0001	3
10914	-0.00014	-3e-05	-4e-05	-1e-05	-1e-05	0	2e-05	-0.0001	3
10915	-0.00014	-3e-05	-4e-05	-1e-05	-1e-05	0	2e-05	-0.0001	3
10916	-0.00014	-3e-05	-4e-05	-1e-05	-1e-05	0	2e-05	-0.0001	3
10917	-0.00011	-0.0001	-5e-05	-2e-05	-3e-05	-1e-05	0	-0.00025	3
10918	-0.00011	-0.0001	-5e-05	-2e-05	-3e-05	-1e-05	0	-0.00025	3
10919	-0.00011	-0.0001	-5e-05	-2e-05	-3e-05	-1e-05	0	-0.00025	3
10920	-0.00011	-0.0001	-5e-05	-2e-05	-3e-05	-1e-05	0	-0.00025	3
10921	-0.00011	-0.0001	-5e-05	-2e-05	-3e-05	-1e-05	0	-0.00025	3
10922	-7e-05	0	-3e-05	-2e-05	2e-05	2e-05	-0.00011	-6e-05	3
10923	-7e-05	0	-3e-05	-2e-05	2e-05	2e-05	-0.00011	-6e-05	3
10924	-7e-05	0	-3e-05	-2e-05	2e-05	2e-05	-0.00011	-6e-05	3
10926	-7e-05	0	-3e-05	-2e-05	2e-05	2e-05	-0.00011	-6e-05	3
10927	-7e-05	0	-3e-05	-2e-05	2e-05	2e-05	-0.00011	-6e-05	3
10928	-7e-05	0	-3e-05	-2e-05	2e-05	2e-05	-0.00011	-6e-05	3
10929	-7e-05	0	-3e-05	-2e-05	2e-05	2e-05	-0.00011	-6e-05	3
10930	-7e-05	0	-3e-05	-2e-05	2e-05	2e-05	-0.00011	-6e-05	3
10931	-7e-05	0	-3e-05	-2e-05	2e-05	2e-05	-0.00011	-6e-05	3
10932	-7e-05	0	-3e-05	-2e-05	2e-05	2e-05	-0.00011	-6e-05	3
10933	-7e-05	0	-3e-05	-2e-05	2e-05	2e-05	-0.00011	-6e-05	3
10934	-7e-05	0	-3e-05	-2e-05	2e-05	2e-05	-0.00011	-6e-05	3
10935	-7e-05	0	-3e-05	-2e-05	2e-05	2e-05	-0.00011	-6e-05	3
10936	-7e-05	0	-3e-05	-2e-05	2e-05	2e-05	-0.00011	-6e-05	3
10938	-7e-05	0	-3e-05	-2e-05	2e-05	2e-05	-0.00011	-6e-05	3
10939	-4e-05	1e-05	-2e-05	-1e-05	-1e-05	-1e-05	-3e-05	-0.0001	3
10940	0	-2e-05	-2e-05	-1e-05	1e-05	-2e-05	2e-05	-5e-05	3
10941	0	-2e-05	-2e-05	-1e-05	1e-05	-2e-05	2e-05	-5e-05	3
10942	0	-2e-05	-2e-05	-1e-05	1e-05	-2e-05	2e-05	-5e-05	3
10943	0	-2e-05	-2e-05	-1e-05	1e-05	-2e-05	2e-05	-5e-05	3
10944	0	-2e-05	-2e-05	-1e-05	1e-05	-2e-05	2e-05	-5e-05	3
10945	0	-2e-05	-2e-05	-1e-05	1e-05	-2e-05	2e-05	-5e-05	3
10946	0	-2e-05	-2e-05	-1e-05	1e-05	-2e-05	2e-05	-5e-05	3
10947	0	-2e-05	-2e-05	-1e-05	1e-05	-2e-05	2e-05	-5e-05	3
10948	0	-2e-05	-2e-05	-1e-05	1e-05	-2e-05	2e-05	-5e-05	3
10949	0	-2e-05	-2e-05	-1e-05	1e-05	-2e-05	2e-05	-5e-05	3
10950	0	-2e-05	-2e-05	-1e-05	1e-05	-2e-05	2e-05	-5e-05	3
10951	0	-2e-05	-2e-05	-1e-05	1e-05	-2e-05	2e-05	-5e-05	3
10952	-5e-05	-7e-05	1e-05	-1e-05	1e-05	-1e-05	0.0001	0.00017	3
10953	-5e-05	-7e-05	1e-05	-1e-05	1e-05	-1e-05	0.0001	0.00017	3
10954	-5e-05	-7e-05	1e-05	-1e-05	1e-05	-1e-05	0.0001	0.00017	3
10955	-5e-05	-7e-05	1e-05	-1e-05	1e-05	-1e-05	0.0001	0.00017	3
10956	-5e-05	-7e-05	1e-05	-1e-05	1e-05	-1e-05	0.0001	0.00017	3
10957	-5e-05	-7e-05	1e-05	-1e-05	1e-05	-1e-05	0.0001	0.00017	3
10958	-5e-05	-7e-05	1e-05	-1e-05	1e-05	-1e-05	0.0001	0.00017	3
10959	-5e-05	-7e-05	1e-05	-1e-05	1e-05	-1e-05	0.0001	0.00017	3
10960	-5e-05	-7e-05	1e-05	-1e-05	1e-05	-1e-05	0.0001	0.00017	3
10961	-5e-05	-7e-05	1e-05	-1e-05	1e-05	-1e-05	0.0001	0.00017	3
10962	-5e-05	-7e-05	1e-05	-1e-05	1e-05	-1e-05	0.0001	0.00017	3
10963	-5e-05	-7e-05	1e-05	-1e-05	1e-05	-1e-05	0.0001	0.00017	3
10964	-5e-05	-7e-05	1e-05	-1e-05	1e-05	-1e-05	0.0001	0.00017	3
10965	-5e-05	-7e-05	1e-05	-1e-05	1e-05	-1e-05	0.0001	0.00017	3
10966	-5e-05	-7e-05	1e-05	-1e-05	1e-05	-1e-05	0.0001	0.00017	3
10967	3e-05	0	-1e-05	-2e-05	-4e-05	-5e-05	0.00014	9e-05	3
10968	3e-05	0	-1e-05	-2e-05	-4e-05	-5e-05	0.00014	9e-05	3
10969	3e-05	0	-1e-05	-2e-05	-4e-05	-5e-05	0.00014	9e-05	3
10970	3e-05	0	-1e-05	-2e-05	-4e-05	-5e-05	0.00014	9e-05	3
10971	3e-05	0	-1e-05	-2e-05	-4e-05	-5e-05	0.00014	9e-05	3
10972	3e-05	0	-1e-05	-2e-05	-4e-05	-5e-05	0.00014	9e-05	3
10973	3e-05	0	-1e-05	-2e-05	-4e-05	-5e-05	0.00014	9e-05	3
10974	3e-05	0	-1e-05	-2e-05	-4e-05	-5e-05	0.00014	9e-05	3
10975	3e-05	0	-1e-05	-2e-05	-4e-05	-5e-05	0.00014	9e-05	3
10976	0.00012	-3e-05	-7e-05	-6e-05	1e-05	4e-05	2e-05	8e-05	3
10977	0.00012	-3e-05	-7e-05	-6e-05	1e-05	4e-05	2e-05	8e-05	3
10978	0	-3e-05	-3e-05	-3e-05	-0.0001	-4e-05	-2e-05	3e-05	3
10979	0	-3e-05	-3e-05	-3e-05	-0.0001	-4e-05	-2e-05	3e-05	3
10980	0	-3e-05	-3e-05	-3e-05	-0.0001	-4e-05	-2e-05	3e-05	3
10981	0	-3e-05	-3e-05	-3e-05	-0.0001	-4e-05	-2e-05	3e-05	3
10982	0	-3e-05	-3e-05	-3e-05	-0.0001	-4e-05	-2e-05	3e-05	3
10983	0	-3e-05	-3e-05	-3e-05	-0.0001	-4e-05	-2e-05	3e-05	3
10984	0	-3e-05	-3e-05	-3e-05	-0.0001	-4e-05	-2e-05	3e-05	3
10985	0	-3e-05	-3e-05	-3e-05	-0.0001	-4e-05	-2e-05	3e-05	3
10986	0	-3e-05	-3e-05	-3e-05	-0.0001	-4e-05	-2e-05	3e-05	3
10988	0	-3e-05	-3e-05	-3e-05	-0.0001	-4e-05	-2e-05	3e-05	3
10989	0	-3e-05	-3e-05	-3e-05	-0.0001	-4e-05	-2e-05	3e-05	3
10990	0	-3e-05	-3e-05	-3e-05	-0.0001	-4e-05	-2e-05	3e-05	3
10991	0	-3e-05	-3e-05	-3e-05	-0.0001	-4e-05	-2e-05	3e-05	3
10992	0	-3e-05	-3e-05	-3e-05	-0.0001	-4e-05	-2e-05	3e-05	3
10993	0	-3e-05	-3e-05	-3e-05	-0.0001	-4e-05	-2e-05	3e-05	3
10994	0	-3e-05	-3e-05	-3e-05	-0.0001	-4e-05	-2e-05	3e-05	3
10995	0	-3e-05	-3e-05	-3e-05	-0.0001	-4e-05	-2e-05	3e-05	3
10996	0	-3e-05	-3e-05	-3e-05	-0.0001	-4e-05	-2e-05	3e-05	3
10997	0	-3e-05	-3e-05	-3e-05	-0.0001	-4e-05	-2e-05	3e-05	3
10998	0	-3e-05	-3e-05	-3e-05	-0.0001	-4e-05	-2e-05	3e-05	3
10999	-3e-05	1e-05	0	-3e-05	-7e-05	-4e-05	-3e-05	-7e-05	3
11000	0.00012	2e-05	0	1e-05	-1e-05	2e-05	5e-05	-1e-05	3
11001	0.00012	2e-05	0	1e-05	-1e-05	2e-05	5e-05	-1e-05	3
11002	0.00012	2e-05	0	1e-05	-1e-05	2e-05	5e-05	-1e-05	3
11003	0.00012	2e-05	0	1e-05	-1e-05	2e-05	5e-05	-1e-05	3
11004	0.00012	2e-05	0	1e-05	-1e-05	2e-05	5e-05	-1e-05	3
11005	0.00012	2e-05	0	1e-05	-1e-05	2e-05	5e-05	-1e-05	3
11006	0.00012	2e-05	0	1e-05	-1e-05	2e-05	5e-05	-1e-05	3
11007	0.00012	2e-05	0	1e-05	-1e-05	2e-05	5e-05	-1e-05	3
11008	0.00012	2e-05	0	1e-05	-1e-05	2e-05	5e-05	-1e-05	3
11009	0.00012	2e-05	0	1e-05	-1e-05	2e-05	5e-05	-1e-05	3
11010	0.00012	2e-05	0	1e-05	-1e-05	2e-05	5e-05	-1e-05	3
11011	0.00012	2e-05	0	1e-05	-1e-05	2e-05	5e-05	-1e-05	3
11012	0.00012	2e-05	0	1e-05	-1e-05	2e-05	5e-05	-1e-05	3
11013	0.00012	2e-05	0	1e-05	-1e-05	2e-05	5e-05	-1e-05	3
11014	0.00012	2e-05	0	1e-05	-1e-05	2e-05	5e-05	-1e-05	3
11015	0.00012	2e-05	0	1e-05	-1e-05	2e-05	5e-05	-1e-05	3
11016	0.00012	2e-05	0	1e-05	-1e-05	2e-05	5e-05	-1e-05	3
11017	0.00012	2e-05	0	1e-05	-1e-05	2e-05	5e-05	-1e-05	3
11018	0.00012	2e-05	0	1e-05	-1e-05	2e-05	5e-05	-1e-05	3
11019	0.00012	2e-05	0	1e-05	-1e-05	2e-05	5e-05	-1e-05	3
11020	0.00012	2e-05	0	1e-05	-1e-05	2e-05	5e-05	-1e-05	3
11021	-1e-05	-0.00019	3e-05	3e-05	7e-05	8e-05	-0.00016	-3e-05	3
11022	4e-05	4e-05	-5e-05	-3e-05	-3e-05	-2e-05	-3e-05	3e-05	3
11023	-4e-05	2e-05	3e-05	1e-05	0	-1e-05	0	4e-05	3
11024	-4e-05	2e-05	3e-05	1e-05	0	-1e-05	0	4e-05	3
11025	-4e-05	2e-05	3e-05	1e-05	0	-1e-05	0	4e-05	3
11026	-4e-05	2e-05	3e-05	1e-05	0	-1e-05	0	4e-05	3
11027	-4e-05	2e-05	3e-05	1e-05	0	-1e-05	0	4e-05	3
11028	-4e-05	2e-05	3e-05	1e-05	0	-1e-05	0	4e-05	3
11029	-4e-05	2e-05	3e-05	1e-05	0	-1e-05	0	4e-05	3
11030	-4e-05	2e-05	3e-05	1e-05	0	-1e-05	0	4e-05	3
11031	-4e-05	2e-05	3e-05	1e-05	0	-1e-05	0	4e-05	3
11032	-4e-05	2e-05	3e-05	1e-05	0	-1e-05	0	4e-05	3
11033	-4e-05	2e-05	3e-05	1e-05	0	-1e-05	0	4e-05	3
11034	-4e-05	2e-05	3e-05	1e-05	0	-1e-05	0	4e-05	3
11035	-4e-05	2e-05	3e-05	1e-05	0	-1e-05	0	4e-05	3
11037	0	9e-05	0	-1e-05	-1e-05	-2e-05	1e-05	-8e-05	3
11039	1e-05	-3e-05	-1e-05	0	1e-05	2e-05	0	-7e-05	3
11040	1e-05	-3e-05	-1e-05	0	1e-05	2e-05	0	-7e-05	3
11041	1e-05	-3e-05	-1e-05	0	1e-05	2e-05	0	-7e-05	3
11042	1e-05	-3e-05	-1e-05	0	1e-05	2e-05	0	-7e-05	3
11043	1e-05	-3e-05	-1e-05	0	1e-05	2e-05	0	-7e-05	3
11044	1e-05	-3e-05	-1e-05	0	1e-05	2e-05	0	-7e-05	3
11045	1e-05	-3e-05	-1e-05	0	1e-05	2e-05	0	-7e-05	3
11046	1e-05	-3e-05	-1e-05	0	1e-05	2e-05	0	-7e-05	3
11047	1e-05	-3e-05	-1e-05	0	1e-05	2e-05	0	-7e-05	3
11048	1e-05	-3e-05	-1e-05	0	1e-05	2e-05	0	-7e-05	3
11049	1e-05	-3e-05	-1e-05	0	1e-05	2e-05	0	-7e-05	3
11050	1e-05	-3e-05	-1e-05	0	1e-05	2e-05	0	-7e-05	3
11051	1e-05	-3e-05	-1e-05	0	1e-05	2e-05	0	-7e-05	3
11052	1e-05	-3e-05	-1e-05	0	1e-05	2e-05	0	-7e-05	3
11053	1e-05	-3e-05	-1e-05	0	1e-05	2e-05	0	-7e-05	3
11054	1e-05	-3e-05	-1e-05	0	1e-05	2e-05	0	-7e-05	3
11055	1e-05	-3e-05	-1e-05	0	1e-05	2e-05	0	-7e-05	3
11056	1e-05	-3e-05	-1e-05	0	1e-05	2e-05	0	-7e-05	3
11057	1e-05	-3e-05	-1e-05	0	1e-05	2e-05	0	-7e-05	3
11058	1e-05	-3e-05	-1e-05	0	1e-05	2e-05	0	-7e-05	3
11059	1e-05	-3e-05	-1e-05	0	1e-05	2e-05	0	-7e-05	3
11060	1e-05	-3e-05	-1e-05	0	1e-05	2e-05	0	-7e-05	3
11061	1e-05	-3e-05	-1e-05	0	1e-05	2e-05	0	-7e-05	3
11062	1e-05	-3e-05	-1e-05	0	1e-05	2e-05	0	-7e-05	3
11063	1e-05	-3e-05	-1e-05	0	1e-05	2e-05	0	-7e-05	3
11064	1e-05	-3e-05	-1e-05	0	1e-05	2e-05	0	-7e-05	3
11065	1e-05	-3e-05	-1e-05	0	1e-05	2e-05	0	-7e-05	3
11066	1e-05	-3e-05	-1e-05	0	1e-05	2e-05	0	-7e-05	3
11067	1e-05	-3e-05	-1e-05	0	1e-05	2e-05	0	-7e-05	3
11068	1e-05	-3e-05	-1e-05	0	1e-05	2e-05	0	-7e-05	3
11069	1e-05	-3e-05	-1e-05	0	1e-05	2e-05	0	-7e-05	3
11070	1e-05	-3e-05	-1e-05	0	1e-05	2e-05	0	-7e-05	3
11071	1e-05	-3e-05	-1e-05	0	1e-05	2e-05	0	-7e-05	3
11072	1e-05	-3e-05	-1e-05	0	1e-05	2e-05	0	-7e-05	3
11073	1e-05	-3e-05	-1e-05	0	1e-05	2e-05	0	-7e-05	3
11074	-0.00011	5e-05	1e-05	0	-9e-05	-6e-05	0.0001	2e-05	3
11075	-0.00011	5e-05	1e-05	0	-9e-05	-6e-05	0.0001	2e-05	3
11076	0.00016	0.00017	-1e-05	-4e-05	-4e-05	-2e-05	-5e-05	-7e-05	3
11077	-0.00015	-0.00027	-6e-05	-4e-05	-2e-05	-0.00011	-4e-05	3e-05	3
11078	-0.00015	-0.00027	-6e-05	-4e-05	-2e-05	-0.00011	-4e-05	3e-05	3
11079	-0.00015	-0.00027	-6e-05	-4e-05	-2e-05	-0.00011	-4e-05	3e-05	3
11080	-0.00015	-0.00027	-6e-05	-4e-05	-2e-05	-0.00011	-4e-05	3e-05	3
11081	1e-05	1e-05	5e-05	3e-05	4e-05	0	-8e-05	-7e-05	3
11082	1e-05	1e-05	5e-05	3e-05	4e-05	0	-8e-05	-7e-05	3
11083	1e-05	1e-05	5e-05	3e-05	4e-05	0	-8e-05	-7e-05	3
11084	1e-05	1e-05	5e-05	3e-05	4e-05	0	-8e-05	-7e-05	3
11085	1e-05	1e-05	5e-05	3e-05	4e-05	0	-8e-05	-7e-05	3
11086	1e-05	1e-05	5e-05	3e-05	4e-05	0	-8e-05	-7e-05	3
11088	1e-05	1e-05	5e-05	3e-05	4e-05	0	-8e-05	-7e-05	3
11089	1e-05	1e-05	5e-05	3e-05	4e-05	0	-8e-05	-7e-05	3
11090	1e-05	1e-05	5e-05	3e-05	4e-05	0	-8e-05	-7e-05	3
11091	1e-05	1e-05	5e-05	3e-05	4e-05	0	-8e-05	-7e-05	3
11092	1e-05	1e-05	5e-05	3e-05	4e-05	0	-8e-05	-7e-05	3
11093	1e-05	1e-05	5e-05	3e-05	4e-05	0	-8e-05	-7e-05	3
11094	1e-05	1e-05	5e-05	3e-05	4e-05	0	-8e-05	-7e-05	3
11095	1e-05	1e-05	5e-05	3e-05	4e-05	0	-8e-05	-7e-05	3
11096	0	6e-05	1e-05	0	2e-05	0	2e-05	-5e-05	3
11097	0	6e-05	1e-05	0	2e-05	0	2e-05	-5e-05	3
11098	0	6e-05	1e-05	0	2e-05	0	2e-05	-5e-05	3
11099	0	6e-05	1e-05	0	2e-05	0	2e-05	-5e-05	3
11100	0	6e-05	1e-05	0	2e-05	0	2e-05	-5e-05	3
11101	0	6e-05	1e-05	0	2e-05	0	2e-05	-5e-05	3
11102	0	6e-05	1e-05	0	2e-05	0	2e-05	-5e-05	3
11103	0	6e-05	1e-05	0	2e-05	0	2e-05	-5e-05	3
11104	0	6e-05	1e-05	0	2e-05	0	2e-05	-5e-05	3
11105	0	6e-05	1e-05	0	2e-05	0	2e-05	-5e-05	3
11106	0	6e-05	1e-05	0	2e-05	0	2e-05	-5e-05	3
11107	0	6e-05	1e-05	0	2e-05	0	2e-05	-5e-05	3
11108	0	6e-05	1e-05	0	2e-05	0	2e-05	-5e-05	3
11109	0	6e-05	1e-05	0	2e-05	0	2e-05	-5e-05	3
11110	0	6e-05	1e-05	0	2e-05	0	2e-05	-5e-05	3
11112	6e-05	-7e-05	-4e-05	-3e-05	2e-05	6e-05	-3e-05	0.00013	3
11113	6e-05	-7e-05	-4e-05	-3e-05	2e-05	6e-05	-3e-05	0.00013	3
11114	6e-05	-7e-05	-4e-05	-3e-05	2e-05	6e-05	-3e-05	0.00013	3
11115	6e-05	-7e-05	-4e-05	-3e-05	2e-05	6e-05	-3e-05	0.00013	3
11116	6e-05	-7e-05	-4e-05	-3e-05	2e-05	6e-05	-3e-05	0.00013	3
11117	6e-05	-7e-05	-4e-05	-3e-05	2e-05	6e-05	-3e-05	0.00013	3
11118	-1e-05	4e-05	6e-05	4e-05	0	3e-05	-6e-05	-1e-05	3
11119	-9e-05	-8e-05	-5e-05	-2e-05	0	2e-05	2e-05	0.00012	3
11120	2e-05	0.00011	3e-05	2e-05	-2e-05	-3e-05	-6e-05	-0.00055	3
11121	2e-05	0.00011	3e-05	2e-05	-2e-05	-3e-05	-6e-05	-0.00055	3
11122	2e-05	0.00011	3e-05	2e-05	-2e-05	-3e-05	-6e-05	-0.00055	3
11123	2e-05	0.00011	3e-05	2e-05	-2e-05	-3e-05	-6e-05	-0.00055	3
11124	2e-05	0.00011	3e-05	2e-05	-2e-05	-3e-05	-6e-05	-0.00055	3
11125	2e-05	0.00011	3e-05	2e-05	-2e-05	-3e-05	-6e-05	-0.00055	3
11126	2e-05	0.00011	3e-05	2e-05	-2e-05	-3e-05	-6e-05	-0.00055	3
11127	2e-05	0.00011	3e-05	2e-05	-2e-05	-3e-05	-6e-05	-0.00055	3
11128	2e-05	0.00011	3e-05	2e-05	-2e-05	-3e-05	-6e-05	-0.00055	3
11129	2e-05	0.00011	3e-05	2e-05	-2e-05	-3e-05	-6e-05	-0.00055	3
11130	2e-05	0.00011	3e-05	2e-05	-2e-05	-3e-05	-6e-05	-0.00055	3
11131	2e-05	0.00011	3e-05	2e-05	-2e-05	-3e-05	-6e-05	-0.00055	3
11132	6e-05	0.00011	3e-05	2e-05	1e-05	3e-05	-1e-05	-1e-05	3
11133	6e-05	0.00011	3e-05	2e-05	1e-05	3e-05	-1e-05	-1e-05	3
11134	6e-05	0.00011	3e-05	2e-05	1e-05	3e-05	-1e-05	-1e-05	3
11135	6e-05	0.00011	3e-05	2e-05	1e-05	3e-05	-1e-05	-1e-05	3
11136	6e-05	0.00011	3e-05	2e-05	1e-05	3e-05	-1e-05	-1e-05	3
11138	6e-05	0.00011	3e-05	2e-05	1e-05	3e-05	-1e-05	-1e-05	3
11139	6e-05	0.00011	3e-05	2e-05	1e-05	3e-05	-1e-05	-1e-05	3
11140	6e-05	0.00011	3e-05	2e-05	1e-05	3e-05	-1e-05	-1e-05	3
11141	-6e-05	3e-05	1e-05	-1e-05	-3e-05	-4e-05	1e-05	3e-05	3
11142	-6e-05	3e-05	1e-05	-1e-05	-3e-05	-4e-05	1e-05	3e-05	3
11143	-6e-05	3e-05	1e-05	-1e-05	-3e-05	-4e-05	1e-05	3e-05	3
11144	-6e-05	3e-05	1e-05	-1e-05	-3e-05	-4e-05	1e-05	3e-05	3
11145	-6e-05	3e-05	1e-05	-1e-05	-3e-05	-4e-05	1e-05	3e-05	3
11146	-6e-05	3e-05	1e-05	-1e-05	-3e-05	-4e-05	1e-05	3e-05	3
11147	-6e-05	3e-05	1e-05	-1e-05	-3e-05	-4e-05	1e-05	3e-05	3
11148	-6e-05	3e-05	1e-05	-1e-05	-3e-05	-4e-05	1e-05	3e-05	3
11149	-6e-05	3e-05	1e-05	-1e-05	-3e-05	-4e-05	1e-05	3e-05	3
11150	-6e-05	3e-05	1e-05	-1e-05	-3e-05	-4e-05	1e-05	3e-05	3
11151	-6e-05	3e-05	1e-05	-1e-05	-3e-05	-4e-05	1e-05	3e-05	3
11152	-6e-05	3e-05	1e-05	-1e-05	-3e-05	-4e-05	1e-05	3e-05	3
11153	-6e-05	3e-05	1e-05	-1e-05	-3e-05	-4e-05	1e-05	3e-05	3
11154	-6e-05	3e-05	1e-05	-1e-05	-3e-05	-4e-05	1e-05	3e-05	3
11155	-6e-05	3e-05	1e-05	-1e-05	-3e-05	-4e-05	1e-05	3e-05	3
11156	5e-05	4e-05	0	0	0	-8e-05	-6e-05	-0.0001	3
11157	-4e-05	-9e-05	-3e-05	-3e-05	-1e-05	2e-05	4e-05	-2e-05	3
11158	3e-05	3e-05	-2e-05	0	-1e-05	-2e-05	3e-05	0.00012	3
11159	3e-05	3e-05	-2e-05	0	-1e-05	-2e-05	3e-05	0.00012	3
11160	3e-05	3e-05	-2e-05	0	-1e-05	-2e-05	3e-05	0.00012	3
11161	3e-05	3e-05	-2e-05	0	-1e-05	-2e-05	3e-05	0.00012	3
11162	3e-05	3e-05	-2e-05	0	-1e-05	-2e-05	3e-05	0.00012	3
11163	3e-05	3e-05	-2e-05	0	-1e-05	-2e-05	3e-05	0.00012	3
11164	3e-05	3e-05	-2e-05	0	-1e-05	-2e-05	3e-05	0.00012	3
11165	3e-05	3e-05	-2e-05	0	-1e-05	-2e-05	3e-05	0.00012	3
11166	3e-05	3e-05	-2e-05	0	-1e-05	-2e-05	3e-05	0.00012	3
11167	3e-05	3e-05	-2e-05	0	-1e-05	-2e-05	3e-05	0.00012	3
11168	3e-05	3e-05	-2e-05	0	-1e-05	-2e-05	3e-05	0.00012	3
11169	3e-05	3e-05	-2e-05	0	-1e-05	-2e-05	3e-05	0.00012	3
11170	3e-05	3e-05	-2e-05	0	-1e-05	-2e-05	3e-05	0.00012	3
11171	3e-05	3e-05	-2e-05	0	-1e-05	-2e-05	3e-05	0.00012	3
11172	3e-05	3e-05	-2e-05	0	-1e-05	-2e-05	3e-05	0.00012	3
11173	3e-05	3e-05	-2e-05	0	-1e-05	-2e-05	3e-05	0.00012	3
11174	3e-05	3e-05	-2e-05	0	-1e-05	-2e-05	3e-05	0.00012	3
11175	3e-05	3e-05	-2e-05	0	-1e-05	-2e-05	3e-05	0.00012	3
11176	3e-05	3e-05	-2e-05	0	-1e-05	-2e-05	3e-05	0.00012	3
11177	3e-05	3e-05	-2e-05	0	-1e-05	-2e-05	3e-05	0.00012	3
11178	3e-05	3e-05	-2e-05	0	-1e-05	-2e-05	3e-05	0.00012	3
11179	5e-05	5e-05	0	0	-2e-05	1e-05	7e-05	5e-05	3
11180	-0.00013	-2e-05	4e-05	3e-05	3e-05	4e-05	0.00018	6e-05	3
11181	-0.00013	-2e-05	4e-05	3e-05	3e-05	4e-05	0.00018	6e-05	3
11182	-0.00013	-2e-05	4e-05	3e-05	3e-05	4e-05	0.00018	6e-05	3
11183	-0.00013	-2e-05	4e-05	3e-05	3e-05	4e-05	0.00018	6e-05	3
11184	-0.00013	-2e-05	4e-05	3e-05	3e-05	4e-05	0.00018	6e-05	3
11185	-0.00013	-2e-05	4e-05	3e-05	3e-05	4e-05	0.00018	6e-05	3
11186	-0.00013	-2e-05	4e-05	3e-05	3e-05	4e-05	0.00018	6e-05	3
11188	-0.00013	-2e-05	4e-05	3e-05	3e-05	4e-05	0.00018	6e-05	3
11189	-0.00013	-2e-05	4e-05	3e-05	3e-05	4e-05	0.00018	6e-05	3
11190	-0.00013	-2e-05	4e-05	3e-05	3e-05	4e-05	0.00018	6e-05	3
11191	-0.00013	-2e-05	4e-05	3e-05	3e-05	4e-05	0.00018	6e-05	3
11192	-0.00013	-2e-05	4e-05	3e-05	3e-05	4e-05	0.00018	6e-05	3
11193	-0.00013	-2e-05	4e-05	3e-05	3e-05	4e-05	0.00018	6e-05	3
11194	-0.00013	-2e-05	4e-05	3e-05	3e-05	4e-05	0.00018	6e-05	3
11195	-0.00013	-2e-05	4e-05	3e-05	3e-05	4e-05	0.00018	6e-05	3
11196	-0.00013	-2e-05	4e-05	3e-05	3e-05	4e-05	0.00018	6e-05	3
11197	-0.00013	-2e-05	4e-05	3e-05	3e-05	4e-05	0.00018	6e-05	3
11198	-0.00013	-2e-05	4e-05	3e-05	3e-05	4e-05	0.00018	6e-05	3
11199	-0.00013	-2e-05	4e-05	3e-05	3e-05	4e-05	0.00018	6e-05	3
11200	-0.00013	-2e-05	4e-05	3e-05	3e-05	4e-05	0.00018	6e-05	3
11201	0.0001	0.00011	-2e-05	-3e-05	-3e-05	-4e-05	-6e-05	-0.0001	3
11202	-0.00017	-0.00017	-3e-05	0	-1e-05	3e-05	-3e-05	-7e-05	3
11203	-6e-05	-3e-05	1e-05	0	0	-2e-05	-5e-05	-2e-05	3
11204	-6e-05	-3e-05	1e-05	0	0	-2e-05	-5e-05	-2e-05	3
11205	-6e-05	-3e-05	1e-05	0	0	-2e-05	-5e-05	-2e-05	3
11206	-6e-05	-3e-05	1e-05	0	0	-2e-05	-5e-05	-2e-05	3
11207	-6e-05	-3e-05	1e-05	0	0	-2e-05	-5e-05	-2e-05	3
11208	-6e-05	-3e-05	1e-05	0	0	-2e-05	-5e-05	-2e-05	3
11209	-6e-05	-3e-05	1e-05	0	0	-2e-05	-5e-05	-2e-05	3
11210	-6e-05	-3e-05	1e-05	0	0	-2e-05	-5e-05	-2e-05	3
11211	-6e-05	-3e-05	1e-05	0	0	-2e-05	-5e-05	-2e-05	3
11212	-6e-05	-3e-05	1e-05	0	0	-2e-05	-5e-05	-2e-05	3
11213	-6e-05	-3e-05	1e-05	0	0	-2e-05	-5e-05	-2e-05	3
11214	-6e-05	-3e-05	1e-05	0	0	-2e-05	-5e-05	-2e-05	3
11215	-3e-05	5e-05	0	1e-05	2e-05	7e-05	8e-05	-0.00016	3
11216	-6e-05	-5e-05	-6e-05	-4e-05	-0.0001	-4e-05	-9e-05	-0.00013	3
11217	-6e-05	-5e-05	-6e-05	-4e-05	-0.0001	-4e-05	-9e-05	-0.00013	3
11218	-6e-05	-5e-05	-6e-05	-4e-05	-0.0001	-4e-05	-9e-05	-0.00013	3
11219	-6e-05	-5e-05	-6e-05	-4e-05	-0.0001	-4e-05	-9e-05	-0.00013	3
11220	-6e-05	-5e-05	-6e-05	-4e-05	-0.0001	-4e-05	-9e-05	-0.00013	3
11221	-6e-05	-5e-05	-6e-05	-4e-05	-0.0001	-4e-05	-9e-05	-0.00013	3
11222	-6e-05	-5e-05	-6e-05	-4e-05	-0.0001	-4e-05	-9e-05	-0.00013	3
11223	-6e-05	-5e-05	-6e-05	-4e-05	-0.0001	-4e-05	-9e-05	-0.00013	3
11224	-6e-05	-5e-05	-6e-05	-4e-05	-0.0001	-4e-05	-9e-05	-0.00013	3
11225	-6e-05	-5e-05	-6e-05	-4e-05	-0.0001	-4e-05	-9e-05	-0.00013	3
11226	-6e-05	-5e-05	-6e-05	-4e-05	-0.0001	-4e-05	-9e-05	-0.00013	3
11227	-6e-05	-5e-05	-6e-05	-4e-05	-0.0001	-4e-05	-9e-05	-0.00013	3
11228	-6e-05	-5e-05	-6e-05	-4e-05	-0.0001	-4e-05	-9e-05	-0.00013	3
11229	-6e-05	-5e-05	-6e-05	-4e-05	-0.0001	-4e-05	-9e-05	-0.00013	3
11230	-6e-05	-5e-05	-6e-05	-4e-05	-0.0001	-4e-05	-9e-05	-0.00013	3
11231	-6e-05	-5e-05	-6e-05	-4e-05	-0.0001	-4e-05	-9e-05	-0.00013	3
11232	-6e-05	-5e-05	-6e-05	-4e-05	-0.0001	-4e-05	-9e-05	-0.00013	3
11233	-6e-05	-5e-05	-6e-05	-4e-05	-0.0001	-4e-05	-9e-05	-0.00013	3
11234	-6e-05	-5e-05	-6e-05	-4e-05	-0.0001	-4e-05	-9e-05	-0.00013	3
11235	-6e-05	-5e-05	-6e-05	-4e-05	-0.0001	-4e-05	-9e-05	-0.00013	3
11236	-6e-05	-5e-05	-6e-05	-4e-05	-0.0001	-4e-05	-9e-05	-0.00013	3
11238	-8e-05	-4e-05	-2e-05	0	-3e-05	-2e-05	-7e-05	-1e-05	3
11239	-8e-05	-4e-05	-2e-05	0	-3e-05	-2e-05	-7e-05	-1e-05	3
11240	-8e-05	-4e-05	-2e-05	0	-3e-05	-2e-05	-7e-05	-1e-05	3
11241	-8e-05	-4e-05	-2e-05	0	-3e-05	-2e-05	-7e-05	-1e-05	3
11242	-8e-05	-4e-05	-2e-05	0	-3e-05	-2e-05	-7e-05	-1e-05	3
11243	-8e-05	-4e-05	-2e-05	0	-3e-05	-2e-05	-7e-05	-1e-05	3
11244	-8e-05	-4e-05	-2e-05	0	-3e-05	-2e-05	-7e-05	-1e-05	3
11245	-8e-05	-4e-05	-2e-05	0	-3e-05	-2e-05	-7e-05	-1e-05	3
11246	-5e-05	-6e-05	-1e-05	0	2e-05	2e-05	-8e-05	9e-05	3
11247	-5e-05	-6e-05	-1e-05	0	2e-05	2e-05	-8e-05	9e-05	3
11248	-5e-05	-6e-05	-1e-05	0	2e-05	2e-05	-8e-05	9e-05	3
11249	-5e-05	-6e-05	-1e-05	0	2e-05	2e-05	-8e-05	9e-05	3
11250	-5e-05	-6e-05	-1e-05	0	2e-05	2e-05	-8e-05	9e-05	3
11251	-5e-05	-6e-05	-1e-05	0	2e-05	2e-05	-8e-05	9e-05	3
11252	-5e-05	-6e-05	-1e-05	0	2e-05	2e-05	-8e-05	9e-05	3
11253	-5e-05	-6e-05	-1e-05	0	2e-05	2e-05	-8e-05	9e-05	3
11254	-5e-05	-6e-05	-1e-05	0	2e-05	2e-05	-8e-05	9e-05	3
11255	-5e-05	-6e-05	-1e-05	0	2e-05	2e-05	-8e-05	9e-05	3
11256	-5e-05	-6e-05	-1e-05	0	2e-05	2e-05	-8e-05	9e-05	3
11257	-5e-05	-6e-05	-1e-05	0	2e-05	2e-05	-8e-05	9e-05	3
11258	-5e-05	-6e-05	-1e-05	0	2e-05	2e-05	-8e-05	9e-05	3
11259	-5e-05	-6e-05	-1e-05	0	2e-05	2e-05	-8e-05	9e-05	3
11260	-0.00017	-0.0002	-4e-05	-2e-05	-3e-05	-8e-05	-6e-05	-0.00015	3
11261	0	1e-05	-1e-05	0	-1e-05	3e-05	1e-05	0.00011	3
11262	0	1e-05	-1e-05	0	-1e-05	3e-05	1e-05	0.00011	3
11263	0	1e-05	-1e-05	0	-1e-05	3e-05	1e-05	0.00011	3
11264	0	1e-05	-1e-05	0	-1e-05	3e-05	1e-05	0.00011	3
11265	0	1e-05	-1e-05	0	-1e-05	3e-05	1e-05	0.00011	3
11266	0	1e-05	-1e-05	0	-1e-05	3e-05	1e-05	0.00011	3
11267	0	1e-05	-1e-05	0	-1e-05	3e-05	1e-05	0.00011	3
11268	0	1e-05	-1e-05	0	-1e-05	3e-05	1e-05	0.00011	3
11269	0	1e-05	-1e-05	0	-1e-05	3e-05	1e-05	0.00011	3
11270	0	1e-05	-1e-05	0	-1e-05	3e-05	1e-05	0.00011	3
11271	0	1e-05	-1e-05	0	-1e-05	3e-05	1e-05	0.00011	3
11272	0	1e-05	-1e-05	0	-1e-05	3e-05	1e-05	0.00011	3
11273	0	1e-05	-1e-05	0	-1e-05	3e-05	1e-05	0.00011	3
11274	0	1e-05	-1e-05	0	-1e-05	3e-05	1e-05	0.00011	3
11275	0.0001	0.0001	-3e-05	0	3e-05	1e-05	-6e-05	4e-05	3
11276	4e-05	-2e-05	0	-2e-05	-4e-05	-9e-05	-3e-05	-6e-05	3
11277	4e-05	-2e-05	0	-2e-05	-4e-05	-9e-05	-3e-05	-6e-05	3
11278	4e-05	-2e-05	0	-2e-05	-4e-05	-9e-05	-3e-05	-6e-05	3
11279	4e-05	-2e-05	0	-2e-05	-4e-05	-9e-05	-3e-05	-6e-05	3
11280	4e-05	-2e-05	0	-2e-05	-4e-05	-9e-05	-3e-05	-6e-05	3
11281	4e-05	-2e-05	0	-2e-05	-4e-05	-9e-05	-3e-05	-6e-05	3
11282	4e-05	-2e-05	0	-2e-05	-4e-05	-9e-05	-3e-05	-6e-05	3
11283	4e-05	-2e-05	0	-2e-05	-4e-05	-9e-05	-3e-05	-6e-05	3
11284	4e-05	-2e-05	0	-2e-05	-4e-05	-9e-05	-3e-05	-6e-05	3
11285	4e-05	-2e-05	0	-2e-05	-4e-05	-9e-05	-3e-05	-6e-05	3
11286	4e-05	-2e-05	0	-2e-05	-4e-05	-9e-05	-3e-05	-6e-05	3
11288	4e-05	-2e-05	0	-2e-05	-4e-05	-9e-05	-3e-05	-6e-05	3
11289	4e-05	-2e-05	0	-2e-05	-4e-05	-9e-05	-3e-05	-6e-05	3
11290	4e-05	-2e-05	0	-2e-05	-4e-05	-9e-05	-3e-05	-6e-05	3
11291	4e-05	-2e-05	0	-2e-05	-4e-05	-9e-05	-3e-05	-6e-05	3
11292	4e-05	-2e-05	0	-2e-05	-4e-05	-9e-05	-3e-05	-6e-05	3
11293	4e-05	-2e-05	0	-2e-05	-4e-05	-9e-05	-3e-05	-6e-05	3
11294	4e-05	-2e-05	0	-2e-05	-4e-05	-9e-05	-3e-05	-6e-05	3
11295	4e-05	-2e-05	0	-2e-05	-4e-05	-9e-05	-3e-05	-6e-05	3
11296	4e-05	-2e-05	0	-2e-05	-4e-05	-9e-05	-3e-05	-6e-05	3
11297	4e-05	-2e-05	0	-2e-05	-4e-05	-9e-05	-3e-05	-6e-05	3
11298	4e-05	-2e-05	0	-2e-05	-4e-05	-9e-05	-3e-05	-6e-05	3
11299	4e-05	-2e-05	0	-2e-05	-4e-05	-9e-05	-3e-05	-6e-05	3
11300	6e-05	-5e-05	-6e-05	-6e-05	-2e-05	-0.00011	-5e-05	0.00011	3
11301	6e-05	-5e-05	-6e-05	-6e-05	-2e-05	-0.00011	-5e-05	0.00011	3
11302	6e-05	-5e-05	-6e-05	-6e-05	-2e-05	-0.00011	-5e-05	0.00011	3
11303	6e-05	-5e-05	-6e-05	-6e-05	-2e-05	-0.00011	-5e-05	0.00011	3
11304	6e-05	-5e-05	-6e-05	-6e-05	-2e-05	-0.00011	-5e-05	0.00011	3
11305	6e-05	-5e-05	-6e-05	-6e-05	-2e-05	-0.00011	-5e-05	0.00011	3
11306	6e-05	-5e-05	-6e-05	-6e-05	-2e-05	-0.00011	-5e-05	0.00011	3
11307	6e-05	-5e-05	-6e-05	-6e-05	-2e-05	-0.00011	-5e-05	0.00011	3
11308	6e-05	-5e-05	-6e-05	-6e-05	-2e-05	-0.00011	-5e-05	0.00011	3
11309	6e-05	-5e-05	-6e-05	-6e-05	-2e-05	-0.00011	-5e-05	0.00011	3
11310	6e-05	-5e-05	-6e-05	-6e-05	-2e-05	-0.00011	-5e-05	0.00011	3
11311	6e-05	-5e-05	-6e-05	-6e-05	-2e-05	-0.00011	-5e-05	0.00011	3
11312	6e-05	-5e-05	-6e-05	-6e-05	-2e-05	-0.00011	-5e-05	0.00011	3
11313	6e-05	-5e-05	-6e-05	-6e-05	-2e-05	-0.00011	-5e-05	0.00011	3
11314	6e-05	-5e-05	-6e-05	-6e-05	-2e-05	-0.00011	-5e-05	0.00011	3
11315	6e-05	-5e-05	-6e-05	-6e-05	-2e-05	-0.00011	-5e-05	0.00011	3
11316	6e-05	-5e-05	-6e-05	-6e-05	-2e-05	-0.00011	-5e-05	0.00011	3
11317	6e-05	-5e-05	-6e-05	-6e-05	-2e-05	-0.00011	-5e-05	0.00011	3
11318	6e-05	-5e-05	-6e-05	-6e-05	-2e-05	-0.00011	-5e-05	0.00011	3
11319	6e-05	-5e-05	-6e-05	-6e-05	-2e-05	-0.00011	-5e-05	0.00011	3
11320	-8e-05	-3e-05	0	0	3e-05	4e-05	-0.00012	-3e-05	3
11321	-2e-05	-2e-05	-3e-05	-4e-05	-3e-05	-5e-05	-7e-05	7e-05	3
11322	-2e-05	-2e-05	-3e-05	-4e-05	-3e-05	-5e-05	-7e-05	7e-05	3
11323	-2e-05	-2e-05	-3e-05	-4e-05	-3e-05	-5e-05	-7e-05	7e-05	3
11324	-2e-05	-2e-05	-3e-05	-4e-05	-3e-05	-5e-05	-7e-05	7e-05	3
11325	-2e-05	-2e-05	-3e-05	-4e-05	-3e-05	-5e-05	-7e-05	7e-05	3
11326	-2e-05	-2e-05	-3e-05	-4e-05	-3e-05	-5e-05	-7e-05	7e-05	3
11327	-2e-05	-2e-05	-3e-05	-4e-05	-3e-05	-5e-05	-7e-05	7e-05	3
11328	-2e-05	-2e-05	-3e-05	-4e-05	-3e-05	-5e-05	-7e-05	7e-05	3
11329	-2e-05	-2e-05	-3e-05	-4e-05	-3e-05	-5e-05	-7e-05	7e-05	3
11330	-2e-05	-2e-05	-3e-05	-4e-05	-3e-05	-5e-05	-7e-05	7e-05	3
11331	-2e-05	-2e-05	-3e-05	-4e-05	-3e-05	-5e-05	-7e-05	7e-05	3
11332	-2e-05	-2e-05	-3e-05	-4e-05	-3e-05	-5e-05	-7e-05	7e-05	3
11333	-2e-05	-2e-05	-3e-05	-4e-05	-3e-05	-5e-05	-7e-05	7e-05	3
11334	-2e-05	-2e-05	-3e-05	-4e-05	-3e-05	-5e-05	-7e-05	7e-05	3
11335	-7e-05	-9e-05	-7e-05	-4e-05	-3e-05	-2e-05	0	1e-05	3
11336	-7e-05	-9e-05	-7e-05	-4e-05	-3e-05	-2e-05	0	1e-05	3
11338	-7e-05	-9e-05	-7e-05	-4e-05	-3e-05	-2e-05	0	1e-05	3
11339	-7e-05	-9e-05	-7e-05	-4e-05	-3e-05	-2e-05	0	1e-05	3
11340	-7e-05	-9e-05	-7e-05	-4e-05	-3e-05	-2e-05	0	1e-05	3
11341	-7e-05	-9e-05	-7e-05	-4e-05	-3e-05	-2e-05	0	1e-05	3
11342	-7e-05	-9e-05	-7e-05	-4e-05	-3e-05	-2e-05	0	1e-05	3
11343	0	0	2e-05	1e-05	1e-05	9e-05	0.0001	2e-05	3
11344	0	0	2e-05	1e-05	1e-05	9e-05	0.0001	2e-05	3
11345	0	0	2e-05	1e-05	1e-05	9e-05	0.0001	2e-05	3
11346	0	0	2e-05	1e-05	1e-05	9e-05	0.0001	2e-05	3
11347	0	0	2e-05	1e-05	1e-05	9e-05	0.0001	2e-05	3
11348	0	0	2e-05	1e-05	1e-05	9e-05	0.0001	2e-05	3
11349	0	0	2e-05	1e-05	1e-05	9e-05	0.0001	2e-05	3
11350	0	0	2e-05	1e-05	1e-05	9e-05	0.0001	2e-05	3
11351	0	0	2e-05	1e-05	1e-05	9e-05	0.0001	2e-05	3
11352	0	0	2e-05	1e-05	1e-05	9e-05	0.0001	2e-05	3
11353	0	0	2e-05	1e-05	1e-05	9e-05	0.0001	2e-05	3
11354	0	0	2e-05	1e-05	1e-05	9e-05	0.0001	2e-05	3
11355	0	0	2e-05	1e-05	1e-05	9e-05	0.0001	2e-05	3
11356	0	0	2e-05	1e-05	1e-05	9e-05	0.0001	2e-05	3
11357	0	0	2e-05	1e-05	1e-05	9e-05	0.0001	2e-05	3
11358	0	0	2e-05	1e-05	1e-05	9e-05	0.0001	2e-05	3
11359	1e-05	2e-05	1e-05	1e-05	5e-05	3e-05	-2e-05	-5e-05	3
11360	-3e-05	-2e-05	-2e-05	-3e-05	-1e-05	-6e-05	-1e-05	-0.00018	3
11361	-3e-05	-2e-05	-2e-05	-3e-05	-1e-05	-6e-05	-1e-05	-0.00018	3
11362	-3e-05	-2e-05	-2e-05	-3e-05	-1e-05	-6e-05	-1e-05	-0.00018	3
11363	-3e-05	-2e-05	-2e-05	-3e-05	-1e-05	-6e-05	-1e-05	-0.00018	3
11364	-3e-05	-2e-05	-2e-05	-3e-05	-1e-05	-6e-05	-1e-05	-0.00018	3
11365	-3e-05	-2e-05	-2e-05	-3e-05	-1e-05	-6e-05	-1e-05	-0.00018	3
11366	-3e-05	-2e-05	-2e-05	-3e-05	-1e-05	-6e-05	-1e-05	-0.00018	3
11367	-3e-05	-2e-05	-2e-05	-3e-05	-1e-05	-6e-05	-1e-05	-0.00018	3
11368	-3e-05	-2e-05	-2e-05	-3e-05	-1e-05	-6e-05	-1e-05	-0.00018	3
11369	-3e-05	-2e-05	-2e-05	-3e-05	-1e-05	-6e-05	-1e-05	-0.00018	3
11370	-3e-05	-2e-05	-2e-05	-3e-05	-1e-05	-6e-05	-1e-05	-0.00018	3
11371	-3e-05	-2e-05	-2e-05	-3e-05	-1e-05	-6e-05	-1e-05	-0.00018	3
11372	-3e-05	-2e-05	-2e-05	-3e-05	-1e-05	-6e-05	-1e-05	-0.00018	3
11373	-3e-05	-2e-05	-2e-05	-3e-05	-1e-05	-6e-05	-1e-05	-0.00018	3
11374	-3e-05	-2e-05	-2e-05	-3e-05	-1e-05	-6e-05	-1e-05	-0.00018	3
11375	-3e-05	-2e-05	-2e-05	-3e-05	-1e-05	-6e-05	-1e-05	-0.00018	3
11376	-3e-05	-2e-05	-2e-05	-3e-05	-1e-05	-6e-05	-1e-05	-0.00018	3
11377	-3e-05	-2e-05	-2e-05	-3e-05	-1e-05	-6e-05	-1e-05	-0.00018	3
11378	-3e-05	-2e-05	-2e-05	-3e-05	-1e-05	-6e-05	-1e-05	-0.00018	3
11379	-3e-05	-2e-05	-2e-05	-3e-05	-1e-05	-6e-05	-1e-05	-0.00018	3
11380	-3e-05	-2e-05	-2e-05	-3e-05	-1e-05	-6e-05	-1e-05	-0.00018	3
11381	-3e-05	-2e-05	-2e-05	-3e-05	-1e-05	-6e-05	-1e-05	-0.00018	3
11382	-3e-05	-2e-05	-2e-05	-3e-05	-1e-05	-6e-05	-1e-05	-0.00018	3
11383	-3e-05	-2e-05	-2e-05	-3e-05	-1e-05	-6e-05	-1e-05	-0.00018	3
11384	-3e-05	-2e-05	-2e-05	-3e-05	-1e-05	-6e-05	-1e-05	-0.00018	3
11385	-3e-05	-2e-05	-2e-05	-3e-05	-1e-05	-6e-05	-1e-05	-0.00018	3
11386	-3e-05	-2e-05	-2e-05	-3e-05	-1e-05	-6e-05	-1e-05	-0.00018	3
11388	-6e-05	-5e-05	-3e-05	-3e-05	-7e-05	-6e-05	0.00017	0.00016	3
11389	6e-05	6e-05	-1e-05	-1e-05	-1e-05	2e-05	-1e-05	-8e-05	3
11390	6e-05	6e-05	-1e-05	-1e-05	-1e-05	2e-05	-1e-05	-8e-05	3
11392	6e-05	6e-05	-1e-05	-1e-05	-1e-05	2e-05	-1e-05	-8e-05	3
11393	6e-05	6e-05	-1e-05	-1e-05	-1e-05	2e-05	-1e-05	-8e-05	3
11394	6e-05	6e-05	-1e-05	-1e-05	-1e-05	2e-05	-1e-05	-8e-05	3
11395	6e-05	6e-05	-1e-05	-1e-05	-1e-05	2e-05	-1e-05	-8e-05	3
11396	-3e-05	-1e-05	1e-05	2e-05	3e-05	5e-05	0.00027	0.00028	3
11397	-3e-05	-1e-05	1e-05	2e-05	3e-05	5e-05	0.00027	0.00028	3
11398	-3e-05	-1e-05	1e-05	2e-05	3e-05	5e-05	0.00027	0.00028	3
11399	-3e-05	-1e-05	1e-05	2e-05	3e-05	5e-05	0.00027	0.00028	3
11400	-3e-05	-1e-05	1e-05	2e-05	3e-05	5e-05	0.00027	0.00028	3
11401	-3e-05	-1e-05	1e-05	2e-05	3e-05	5e-05	0.00027	0.00028	3
11402	-3e-05	-1e-05	1e-05	2e-05	3e-05	5e-05	0.00027	0.00028	3
11403	-3e-05	-1e-05	1e-05	2e-05	3e-05	5e-05	0.00027	0.00028	3
11404	-3e-05	-1e-05	1e-05	2e-05	3e-05	5e-05	0.00027	0.00028	3
11405	-3e-05	-1e-05	1e-05	2e-05	3e-05	5e-05	0.00027	0.00028	3
11406	-3e-05	-1e-05	1e-05	2e-05	3e-05	5e-05	0.00027	0.00028	3
11407	-3e-05	-1e-05	1e-05	2e-05	3e-05	5e-05	0.00027	0.00028	3
11408	-3e-05	-1e-05	1e-05	2e-05	3e-05	5e-05	0.00027	0.00028	3
11409	-3e-05	-1e-05	1e-05	2e-05	3e-05	5e-05	0.00027	0.00028	3
11410	-3e-05	-1e-05	1e-05	2e-05	3e-05	5e-05	0.00027	0.00028	3
11411	-3e-05	-1e-05	1e-05	2e-05	3e-05	5e-05	0.00027	0.00028	3
11412	-3e-05	-1e-05	1e-05	2e-05	3e-05	5e-05	0.00027	0.00028	3
11413	-3e-05	-1e-05	1e-05	2e-05	3e-05	5e-05	0.00027	0.00028	3
11414	-3e-05	-1e-05	1e-05	2e-05	3e-05	5e-05	0.00027	0.00028	3
11415	-3e-05	-1e-05	1e-05	2e-05	3e-05	5e-05	0.00027	0.00028	3
11416	-3e-05	-1e-05	1e-05	2e-05	3e-05	5e-05	0.00027	0.00028	3
11417	-3e-05	-1e-05	1e-05	2e-05	3e-05	5e-05	0.00027	0.00028	3
11418	-2e-05	-2e-05	-1e-05	-2e-05	-4e-05	-4e-05	-0.00014	-0.00011	3
11419	-6e-05	-0.0001	-0.00011	-7e-05	-2e-05	2e-05	-4e-05	-7e-05	3
11420	-6e-05	-0.0001	-0.00011	-7e-05	-2e-05	2e-05	-4e-05	-7e-05	3
11421	-6e-05	-0.0001	-0.00011	-7e-05	-2e-05	2e-05	-4e-05	-7e-05	3
11422	-6e-05	-0.0001	-0.00011	-7e-05	-2e-05	2e-05	-4e-05	-7e-05	3
11423	-6e-05	-0.0001	-0.00011	-7e-05	-2e-05	2e-05	-4e-05	-7e-05	3
11424	-6e-05	-0.0001	-0.00011	-7e-05	-2e-05	2e-05	-4e-05	-7e-05	3
11425	-6e-05	-0.0001	-0.00011	-7e-05	-2e-05	2e-05	-4e-05	-7e-05	3
11426	-6e-05	-0.0001	-0.00011	-7e-05	-2e-05	2e-05	-4e-05	-7e-05	3
11427	-6e-05	-0.0001	-0.00011	-7e-05	-2e-05	2e-05	-4e-05	-7e-05	3
11428	-6e-05	-0.0001	-0.00011	-7e-05	-2e-05	2e-05	-4e-05	-7e-05	3
11429	-6e-05	-0.0001	-0.00011	-7e-05	-2e-05	2e-05	-4e-05	-7e-05	3
11430	-6e-05	-0.0001	-0.00011	-7e-05	-2e-05	2e-05	-4e-05	-7e-05	3
11431	-6e-05	-0.0001	-0.00011	-7e-05	-2e-05	2e-05	-4e-05	-7e-05	3
11432	-6e-05	-0.0001	-0.00011	-7e-05	-2e-05	2e-05	-4e-05	-7e-05	3
11433	-6e-05	-0.0001	-0.00011	-7e-05	-2e-05	2e-05	-4e-05	-7e-05	3
11434	-6e-05	-0.0001	-0.00011	-7e-05	-2e-05	2e-05	-4e-05	-7e-05	3
11435	-6e-05	-0.0001	-0.00011	-7e-05	-2e-05	2e-05	-4e-05	-7e-05	3
11436	-6e-05	-0.0001	-0.00011	-7e-05	-2e-05	2e-05	-4e-05	-7e-05	3
11438	-6e-05	-0.0001	-0.00011	-7e-05	-2e-05	2e-05	-4e-05	-7e-05	3
11439	-6e-05	-0.0001	-0.00011	-7e-05	-2e-05	2e-05	-4e-05	-7e-05	3
11441	-0.00015	-0.00014	-1e-05	-1e-05	-7e-05	-0.0001	3e-05	-4e-05	3
11442	-0.0001	-0.00013	-3e-05	-1e-05	-3e-05	-6e-05	-0.0001	-6e-05	3
11443	-0.0001	-0.00013	-3e-05	-1e-05	-3e-05	-6e-05	-0.0001	-6e-05	3
11444	-0.0001	-0.00013	-3e-05	-1e-05	-3e-05	-6e-05	-0.0001	-6e-05	3
11445	-0.0001	-0.00013	-3e-05	-1e-05	-3e-05	-6e-05	-0.0001	-6e-05	3
11446	-0.0001	-0.00013	-3e-05	-1e-05	-3e-05	-6e-05	-0.0001	-6e-05	3
11447	-0.0001	-0.00013	-3e-05	-1e-05	-3e-05	-6e-05	-0.0001	-6e-05	3
11448	-0.0001	-0.00013	-3e-05	-1e-05	-3e-05	-6e-05	-0.0001	-6e-05	3
11449	-0.0001	-0.00013	-3e-05	-1e-05	-3e-05	-6e-05	-0.0001	-6e-05	3
11450	-0.0001	-0.00013	-3e-05	-1e-05	-3e-05	-6e-05	-0.0001	-6e-05	3
11451	-0.0001	-0.00013	-3e-05	-1e-05	-3e-05	-6e-05	-0.0001	-6e-05	3
11452	-0.0001	-0.00013	-3e-05	-1e-05	-3e-05	-6e-05	-0.0001	-6e-05	3
11453	-0.0001	-0.00013	-3e-05	-1e-05	-3e-05	-6e-05	-0.0001	-6e-05	3
11454	-0.0001	-0.00013	-3e-05	-1e-05	-3e-05	-6e-05	-0.0001	-6e-05	3
11455	0	0	-1e-05	-2e-05	-2e-05	-0.00014	-6e-05	-2e-05	3
11456	2e-05	3e-05	1e-05	-2e-05	-3e-05	3e-05	0	0	3
11457	2e-05	3e-05	1e-05	-2e-05	-3e-05	3e-05	0	0	3
11458	2e-05	3e-05	1e-05	-2e-05	-3e-05	3e-05	0	0	3
11459	2e-05	3e-05	1e-05	-2e-05	-3e-05	3e-05	0	0	3
11460	2e-05	3e-05	1e-05	-2e-05	-3e-05	3e-05	0	0	3
11461	2e-05	3e-05	1e-05	-2e-05	-3e-05	3e-05	0	0	3
11462	2e-05	3e-05	1e-05	-2e-05	-3e-05	3e-05	0	0	3
11463	2e-05	3e-05	1e-05	-2e-05	-3e-05	3e-05	0	0	3
11464	2e-05	3e-05	1e-05	-2e-05	-3e-05	3e-05	0	0	3
11465	2e-05	3e-05	1e-05	-2e-05	-3e-05	3e-05	0	0	3
11466	2e-05	3e-05	1e-05	-2e-05	-3e-05	3e-05	0	0	3
11467	2e-05	3e-05	1e-05	-2e-05	-3e-05	3e-05	0	0	3
11468	2e-05	3e-05	1e-05	-2e-05	-3e-05	3e-05	0	0	3
11469	2e-05	3e-05	1e-05	-2e-05	-3e-05	3e-05	0	0	3
11470	2e-05	3e-05	1e-05	-2e-05	-3e-05	3e-05	0	0	3
11471	2e-05	3e-05	1e-05	-2e-05	-3e-05	3e-05	0	0	3
11472	2e-05	3e-05	1e-05	-2e-05	-3e-05	3e-05	0	0	3
11473	2e-05	3e-05	1e-05	-2e-05	-3e-05	3e-05	0	0	3
11474	2e-05	3e-05	1e-05	-2e-05	-3e-05	3e-05	0	0	3
11475	2e-05	3e-05	1e-05	-2e-05	-3e-05	3e-05	0	0	3
11476	2e-05	3e-05	1e-05	-2e-05	-3e-05	3e-05	0	0	3
11477	2e-05	3e-05	1e-05	-2e-05	-3e-05	3e-05	0	0	3
11478	0	-8e-05	-3e-05	-3e-05	1e-05	7e-05	3e-05	2e-05	3
11479	8e-05	6e-05	5e-05	4e-05	8e-05	0.00018	3e-05	4e-05	3
11480	8e-05	6e-05	5e-05	4e-05	8e-05	0.00018	3e-05	4e-05	3
11481	8e-05	6e-05	5e-05	4e-05	8e-05	0.00018	3e-05	4e-05	3
11482	8e-05	6e-05	5e-05	4e-05	8e-05	0.00018	3e-05	4e-05	3
11483	8e-05	6e-05	5e-05	4e-05	8e-05	0.00018	3e-05	4e-05	3
11484	8e-05	6e-05	5e-05	4e-05	8e-05	0.00018	3e-05	4e-05	3
11485	8e-05	6e-05	5e-05	4e-05	8e-05	0.00018	3e-05	4e-05	3
11486	8e-05	6e-05	5e-05	4e-05	8e-05	0.00018	3e-05	4e-05	3
11490	8e-05	6e-05	5e-05	4e-05	8e-05	0.00018	3e-05	4e-05	3
11491	8e-05	6e-05	5e-05	4e-05	8e-05	0.00018	3e-05	4e-05	3
11492	8e-05	6e-05	5e-05	4e-05	8e-05	0.00018	3e-05	4e-05	3
11493	8e-05	6e-05	5e-05	4e-05	8e-05	0.00018	3e-05	4e-05	3
11494	8e-05	6e-05	5e-05	4e-05	8e-05	0.00018	3e-05	4e-05	3
11495	8e-05	6e-05	5e-05	4e-05	8e-05	0.00018	3e-05	4e-05	3
11496	8e-05	6e-05	5e-05	4e-05	8e-05	0.00018	3e-05	4e-05	3
11497	8e-05	6e-05	5e-05	4e-05	8e-05	0.00018	3e-05	4e-05	3
11498	8e-05	6e-05	5e-05	4e-05	8e-05	0.00018	3e-05	4e-05	3
11499	8e-05	6e-05	5e-05	4e-05	8e-05	0.00018	3e-05	4e-05	3
11500	-3e-05	3e-05	-1e-05	-2e-05	-3e-05	-1e-05	0.00012	3e-05	3
11501	-0.0001	-8e-05	-3e-05	-2e-05	-1e-05	-3e-05	3e-05	-0.00017	3
11502	-0.0001	-8e-05	-3e-05	-2e-05	-1e-05	-3e-05	3e-05	-0.00017	3
11503	-0.0001	-8e-05	-3e-05	-2e-05	-1e-05	-3e-05	3e-05	-0.00017	3
11504	-0.0001	-8e-05	-3e-05	-2e-05	-1e-05	-3e-05	3e-05	-0.00017	3
11505	-0.0001	-8e-05	-3e-05	-2e-05	-1e-05	-3e-05	3e-05	-0.00017	3
11506	-0.0001	-8e-05	-3e-05	-2e-05	-1e-05	-3e-05	3e-05	-0.00017	3
11507	-0.0001	-8e-05	-3e-05	-2e-05	-1e-05	-3e-05	3e-05	-0.00017	3
11508	-0.0001	-8e-05	-3e-05	-2e-05	-1e-05	-3e-05	3e-05	-0.00017	3
11509	-0.0001	-8e-05	-3e-05	-2e-05	-1e-05	-3e-05	3e-05	-0.00017	3
11510	-0.0001	-8e-05	-3e-05	-2e-05	-1e-05	-3e-05	3e-05	-0.00017	3
11511	-0.0001	-8e-05	-3e-05	-2e-05	-1e-05	-3e-05	3e-05	-0.00017	3
11512	-0.0001	-8e-05	-3e-05	-2e-05	-1e-05	-3e-05	3e-05	-0.00017	3
11513	-0.0001	-8e-05	-3e-05	-2e-05	-1e-05	-3e-05	3e-05	-0.00017	3
11514	-0.0001	-8e-05	-3e-05	-2e-05	-1e-05	-3e-05	3e-05	-0.00017	3
11515	-0.0001	-8e-05	-3e-05	-2e-05	-1e-05	-3e-05	3e-05	-0.00017	3
11516	-0.0001	-8e-05	-3e-05	-2e-05	-1e-05	-3e-05	3e-05	-0.00017	3
11517	-0.0001	-8e-05	-3e-05	-2e-05	-1e-05	-3e-05	3e-05	-0.00017	3
11518	-0.0001	-8e-05	-3e-05	-2e-05	-1e-05	-3e-05	3e-05	-0.00017	3
11519	-0.0001	-8e-05	-3e-05	-2e-05	-1e-05	-3e-05	3e-05	-0.00017	3
11520	-0.0001	-8e-05	-3e-05	-2e-05	-1e-05	-3e-05	3e-05	-0.00017	3
11521	-0.0001	-8e-05	-3e-05	-2e-05	-1e-05	-3e-05	3e-05	-0.00017	3
11522	-0.0001	-8e-05	-3e-05	-2e-05	-1e-05	-3e-05	3e-05	-0.00017	3
11523	9e-05	4e-05	-2e-05	-3e-05	-2e-05	1e-05	8e-05	0.0001	3
11524	3e-05	6e-05	3e-05	5e-05	2e-05	-1e-05	-2e-05	6e-05	3
11525	3e-05	6e-05	3e-05	5e-05	2e-05	-1e-05	-2e-05	6e-05	3
11526	3e-05	6e-05	3e-05	5e-05	2e-05	-1e-05	-2e-05	6e-05	3
11527	3e-05	6e-05	3e-05	5e-05	2e-05	-1e-05	-2e-05	6e-05	3
11528	3e-05	6e-05	3e-05	5e-05	2e-05	-1e-05	-2e-05	6e-05	3
11529	3e-05	6e-05	3e-05	5e-05	2e-05	-1e-05	-2e-05	6e-05	3
11530	3e-05	6e-05	3e-05	5e-05	2e-05	-1e-05	-2e-05	6e-05	3
11531	3e-05	6e-05	3e-05	5e-05	2e-05	-1e-05	-2e-05	6e-05	3
11532	3e-05	6e-05	3e-05	5e-05	2e-05	-1e-05	-2e-05	6e-05	3
11533	3e-05	6e-05	3e-05	5e-05	2e-05	-1e-05	-2e-05	6e-05	3
11534	3e-05	6e-05	3e-05	5e-05	2e-05	-1e-05	-2e-05	6e-05	3
11535	3e-05	6e-05	3e-05	5e-05	2e-05	-1e-05	-2e-05	6e-05	3
11536	3e-05	6e-05	3e-05	5e-05	2e-05	-1e-05	-2e-05	6e-05	3
11539	3e-05	0	-3e-05	-2e-05	-1e-05	-4e-05	-8e-05	-3e-05	3
11540	3e-05	0	-3e-05	-2e-05	-1e-05	-4e-05	-8e-05	-3e-05	3
11541	3e-05	0	-3e-05	-2e-05	-1e-05	-4e-05	-8e-05	-3e-05	3
11542	3e-05	0	-3e-05	-2e-05	-1e-05	-4e-05	-8e-05	-3e-05	3
11543	3e-05	0	-3e-05	-2e-05	-1e-05	-4e-05	-8e-05	-3e-05	3
11544	3e-05	0	-3e-05	-2e-05	-1e-05	-4e-05	-8e-05	-3e-05	3
11545	3e-05	0	-3e-05	-2e-05	-1e-05	-4e-05	-8e-05	-3e-05	3
11546	3e-05	0	-3e-05	-2e-05	-1e-05	-4e-05	-8e-05	-3e-05	3
11547	3e-05	0	-3e-05	-2e-05	-1e-05	-4e-05	-8e-05	-3e-05	3
11548	3e-05	0	-3e-05	-2e-05	-1e-05	-4e-05	-8e-05	-3e-05	3
11549	3e-05	0	-3e-05	-2e-05	-1e-05	-4e-05	-8e-05	-3e-05	3
11550	3e-05	0	-3e-05	-2e-05	-1e-05	-4e-05	-8e-05	-3e-05	3
11551	3e-05	0	-3e-05	-2e-05	-1e-05	-4e-05	-8e-05	-3e-05	3
11552	3e-05	0	-3e-05	-2e-05	-1e-05	-4e-05	-8e-05	-3e-05	3
11553	3e-05	0	-3e-05	-2e-05	-1e-05	-4e-05	-8e-05	-3e-05	3
11554	3e-05	0	-3e-05	-2e-05	-1e-05	-4e-05	-8e-05	-3e-05	3
11555	3e-05	0	-3e-05	-2e-05	-1e-05	-4e-05	-8e-05	-3e-05	3
11556	3e-05	0	-3e-05	-2e-05	-1e-05	-4e-05	-8e-05	-3e-05	3
11557	3e-05	0	-3e-05	-2e-05	-1e-05	-4e-05	-8e-05	-3e-05	3
11558	3e-05	0	-3e-05	-2e-05	-1e-05	-4e-05	-8e-05	-3e-05	3
11559	3e-05	0	-3e-05	-2e-05	-1e-05	-4e-05	-8e-05	-3e-05	3
11560	3e-05	0	-3e-05	-2e-05	-1e-05	-4e-05	-8e-05	-3e-05	3
11561	3e-05	0	-3e-05	-2e-05	-1e-05	-4e-05	-8e-05	-3e-05	3
11562	3e-05	0	-3e-05	-2e-05	-1e-05	-4e-05	-8e-05	-3e-05	3
11563	3e-05	0	-3e-05	-2e-05	-1e-05	-4e-05	-8e-05	-3e-05	3
11564	3e-05	0	-3e-05	-2e-05	-1e-05	-4e-05	-8e-05	-3e-05	3
11565	3e-05	0	-3e-05	-2e-05	-1e-05	-4e-05	-8e-05	-3e-05	3
11566	3e-05	0	-3e-05	-2e-05	-1e-05	-4e-05	-8e-05	-3e-05	3
11567	3e-05	0	-3e-05	-2e-05	-1e-05	-4e-05	-8e-05	-3e-05	3
11568	3e-05	0	-3e-05	-2e-05	-1e-05	-4e-05	-8e-05	-3e-05	3
11569	3e-05	0	-3e-05	-2e-05	-1e-05	-4e-05	-8e-05	-3e-05	3
11570	3e-05	0	-3e-05	-2e-05	-1e-05	-4e-05	-8e-05	-3e-05	3
11571	3e-05	0	-3e-05	-2e-05	-1e-05	-4e-05	-8e-05	-3e-05	3
11572	3e-05	0	-3e-05	-2e-05	-1e-05	-4e-05	-8e-05	-3e-05	3
11573	3e-05	0	-3e-05	-2e-05	-1e-05	-4e-05	-8e-05	-3e-05	3
11574	3e-05	0	-3e-05	-2e-05	-1e-05	-4e-05	-8e-05	-3e-05	3
11575	3e-05	0	-3e-05	-2e-05	-1e-05	-4e-05	-8e-05	-3e-05	3
11576	3e-05	0	-3e-05	-2e-05	-1e-05	-4e-05	-8e-05	-3e-05	3
11577	-2e-05	3e-05	0	1e-05	1e-05	1e-05	-8e-05	-0.0001	3
11578	-6e-05	2e-05	1e-05	-1e-05	-3e-05	-2e-05	-2e-05	2e-05	3
11579	-6e-05	2e-05	1e-05	-1e-05	-3e-05	-2e-05	-2e-05	2e-05	3
11580	-2e-05	1e-05	1e-05	3e-05	2e-05	3e-05	0	-4e-05	3
11582	-2e-05	1e-05	1e-05	3e-05	2e-05	3e-05	0	-4e-05	3
11583	-2e-05	0	-2e-05	1e-05	-4e-05	-4e-05	2e-05	1e-05	3
11584	-2e-05	0	-2e-05	1e-05	-4e-05	-4e-05	2e-05	1e-05	3
11585	-2e-05	0	-2e-05	1e-05	-4e-05	-4e-05	2e-05	1e-05	3
11586	-2e-05	0	-2e-05	1e-05	-4e-05	-4e-05	2e-05	1e-05	3
11589	-2e-05	0	-2e-05	1e-05	-4e-05	-4e-05	2e-05	1e-05	3
11590	-2e-05	0	-2e-05	1e-05	-4e-05	-4e-05	2e-05	1e-05	3
11591	-2e-05	0	-2e-05	1e-05	-4e-05	-4e-05	2e-05	1e-05	3
11592	-2e-05	0	-2e-05	1e-05	-4e-05	-4e-05	2e-05	1e-05	3
11593	-2e-05	0	-2e-05	1e-05	-4e-05	-4e-05	2e-05	1e-05	3
11594	-2e-05	0	-2e-05	1e-05	-4e-05	-4e-05	2e-05	1e-05	3
11595	-2e-05	0	-2e-05	1e-05	-4e-05	-4e-05	2e-05	1e-05	3
11596	-2e-05	0	-2e-05	1e-05	-4e-05	-4e-05	2e-05	1e-05	3
11597	-2e-05	0	-2e-05	1e-05	-4e-05	-4e-05	2e-05	1e-05	3
11598	2e-05	5e-05	1e-05	0	0	6e-05	-5e-05	0.00015	3
11599	7e-05	4e-05	-6e-05	-5e-05	-3e-05	-3e-05	-4e-05	-8e-05	3
11600	7e-05	4e-05	-6e-05	-5e-05	-3e-05	-3e-05	-4e-05	-8e-05	3
11601	7e-05	4e-05	-6e-05	-5e-05	-3e-05	-3e-05	-4e-05	-8e-05	3
11602	7e-05	4e-05	-6e-05	-5e-05	-3e-05	-3e-05	-4e-05	-8e-05	3
11603	7e-05	4e-05	-6e-05	-5e-05	-3e-05	-3e-05	-4e-05	-8e-05	3
11604	7e-05	4e-05	-6e-05	-5e-05	-3e-05	-3e-05	-4e-05	-8e-05	3
11605	7e-05	4e-05	-6e-05	-5e-05	-3e-05	-3e-05	-4e-05	-8e-05	3
11606	7e-05	4e-05	-6e-05	-5e-05	-3e-05	-3e-05	-4e-05	-8e-05	3
11607	7e-05	4e-05	-6e-05	-5e-05	-3e-05	-3e-05	-4e-05	-8e-05	3
11608	7e-05	4e-05	-6e-05	-5e-05	-3e-05	-3e-05	-4e-05	-8e-05	3
11609	7e-05	4e-05	-6e-05	-5e-05	-3e-05	-3e-05	-4e-05	-8e-05	3
11610	7e-05	4e-05	-6e-05	-5e-05	-3e-05	-3e-05	-4e-05	-8e-05	3
11611	7e-05	4e-05	-6e-05	-5e-05	-3e-05	-3e-05	-4e-05	-8e-05	3
11612	7e-05	4e-05	-6e-05	-5e-05	-3e-05	-3e-05	-4e-05	-8e-05	3
11613	7e-05	4e-05	-6e-05	-5e-05	-3e-05	-3e-05	-4e-05	-8e-05	3
11614	7e-05	4e-05	-6e-05	-5e-05	-3e-05	-3e-05	-4e-05	-8e-05	3
11615	7e-05	4e-05	-6e-05	-5e-05	-3e-05	-3e-05	-4e-05	-8e-05	3
11616	7e-05	4e-05	-6e-05	-5e-05	-3e-05	-3e-05	-4e-05	-8e-05	3
11617	7e-05	4e-05	-6e-05	-5e-05	-3e-05	-3e-05	-4e-05	-8e-05	3
11618	7e-05	4e-05	-6e-05	-5e-05	-3e-05	-3e-05	-4e-05	-8e-05	3
11619	7e-05	4e-05	-6e-05	-5e-05	-3e-05	-3e-05	-4e-05	-8e-05	3
11620	7e-05	4e-05	-6e-05	-5e-05	-3e-05	-3e-05	-4e-05	-8e-05	3
11621	7e-05	4e-05	-6e-05	-5e-05	-3e-05	-3e-05	-4e-05	-8e-05	3
11622	-6e-05	-5e-05	-2e-05	0	-2e-05	-1e-05	7e-05	1e-05	3
11623	-6e-05	-5e-05	-2e-05	0	-2e-05	-1e-05	7e-05	1e-05	3
11624	-6e-05	-5e-05	-2e-05	0	-2e-05	-1e-05	7e-05	1e-05	3
11625	-6e-05	-5e-05	-2e-05	0	-2e-05	-1e-05	7e-05	1e-05	3
11626	-6e-05	-5e-05	-2e-05	0	-2e-05	-1e-05	7e-05	1e-05	3
11627	-6e-05	-5e-05	-2e-05	0	-2e-05	-1e-05	7e-05	1e-05	3
11628	-6e-05	-5e-05	-2e-05	0	-2e-05	-1e-05	7e-05	1e-05	3
11629	-4e-05	-0.00016	-2e-05	-2e-05	-1e-05	-2e-05	-3e-05	0	3
11630	-4e-05	-0.00016	-2e-05	-2e-05	-1e-05	-2e-05	-3e-05	0	3
11631	-4e-05	-0.00016	-2e-05	-2e-05	-1e-05	-2e-05	-3e-05	0	3
11632	-4e-05	-0.00016	-2e-05	-2e-05	-1e-05	-2e-05	-3e-05	0	3
11633	-4e-05	-0.00016	-2e-05	-2e-05	-1e-05	-2e-05	-3e-05	0	3
11634	-4e-05	-0.00016	-2e-05	-2e-05	-1e-05	-2e-05	-3e-05	0	3
11635	8e-05	-9e-05	-1e-05	-3e-05	-1e-05	1e-05	0.00013	4e-05	3
11637	-4e-05	0	0	1e-05	2e-05	-8e-05	-0.00016	5e-05	3
11640	-4e-05	0	0	1e-05	2e-05	-8e-05	-0.00016	5e-05	3
11641	-4e-05	0	0	1e-05	2e-05	-8e-05	-0.00016	5e-05	3
11642	-4e-05	0	0	1e-05	2e-05	-8e-05	-0.00016	5e-05	3
11643	-4e-05	0	0	1e-05	2e-05	-8e-05	-0.00016	5e-05	3
11644	-4e-05	0	0	1e-05	2e-05	-8e-05	-0.00016	5e-05	3
11645	-4e-05	0	0	1e-05	2e-05	-8e-05	-0.00016	5e-05	3
11646	-4e-05	0	0	1e-05	2e-05	-8e-05	-0.00016	5e-05	3
11647	-4e-05	0	0	1e-05	2e-05	-8e-05	-0.00016	5e-05	3
11648	-4e-05	0	0	1e-05	2e-05	-8e-05	-0.00016	5e-05	3
11649	-4e-05	0	0	1e-05	2e-05	-8e-05	-0.00016	5e-05	3
11650	-4e-05	0	0	1e-05	2e-05	-8e-05	-0.00016	5e-05	3
11651	-4e-05	0	0	1e-05	2e-05	-8e-05	-0.00016	5e-05	3
11652	-4e-05	0	0	1e-05	2e-05	-8e-05	-0.00016	5e-05	3
11653	-4e-05	0	0	1e-05	2e-05	-8e-05	-0.00016	5e-05	3
11654	-4e-05	0	0	1e-05	2e-05	-8e-05	-0.00016	5e-05	3
11655	-4e-05	0	0	1e-05	2e-05	-8e-05	-0.00016	5e-05	3
11656	-4e-05	0	0	1e-05	2e-05	-8e-05	-0.00016	5e-05	3
11657	-4e-05	0	0	1e-05	2e-05	-8e-05	-0.00016	5e-05	3
11658	-4e-05	0	0	1e-05	2e-05	-8e-05	-0.00016	5e-05	3
11659	-4e-05	0	0	1e-05	2e-05	-8e-05	-0.00016	5e-05	3
11660	-4e-05	0	0	1e-05	2e-05	-8e-05	-0.00016	5e-05	3
11661	-4e-05	0	0	1e-05	2e-05	-8e-05	-0.00016	5e-05	3
11662	-4e-05	0	0	1e-05	2e-05	-8e-05	-0.00016	5e-05	3
11663	-4e-05	0	0	1e-05	2e-05	-8e-05	-0.00016	5e-05	3
11664	-4e-05	0	0	1e-05	2e-05	-8e-05	-0.00016	5e-05	3
11665	-4e-05	0	0	1e-05	2e-05	-8e-05	-0.00016	5e-05	3
11666	-5e-05	-1e-05	0	-1e-05	0	-7e-05	-0.00014	-6e-05	3
11667	2e-05	0	1e-05	-1e-05	0	-1e-05	0.00013	0.00028	3
11668	2e-05	0	1e-05	-1e-05	0	-1e-05	0.00013	0.00028	3
11669	2e-05	0	1e-05	-1e-05	0	-1e-05	0.00013	0.00028	3
11670	2e-05	0	1e-05	-1e-05	0	-1e-05	0.00013	0.00028	3
11671	2e-05	0	1e-05	-1e-05	0	-1e-05	0.00013	0.00028	3
11672	2e-05	0	1e-05	-1e-05	0	-1e-05	0.00013	0.00028	3
11673	2e-05	0	1e-05	-1e-05	0	-1e-05	0.00013	0.00028	3
11674	2e-05	0	1e-05	-1e-05	0	-1e-05	0.00013	0.00028	3
11675	2e-05	0	1e-05	-1e-05	0	-1e-05	0.00013	0.00028	3
11676	2e-05	0	1e-05	-1e-05	0	-1e-05	0.00013	0.00028	3
11677	2e-05	0	1e-05	-1e-05	0	-1e-05	0.00013	0.00028	3
11678	2e-05	0	1e-05	-1e-05	0	-1e-05	0.00013	0.00028	3
11679	2e-05	0	1e-05	-1e-05	0	-1e-05	0.00013	0.00028	3
11680	2e-05	0	1e-05	-1e-05	0	-1e-05	0.00013	0.00028	3
11681	4e-05	5e-05	3e-05	-1e-05	-2e-05	0	0.00016	0.00013	3
11682	4e-05	5e-05	3e-05	-1e-05	-2e-05	0	0.00016	0.00013	3
11683	4e-05	5e-05	3e-05	-1e-05	-2e-05	0	0.00016	0.00013	3
11684	4e-05	5e-05	3e-05	-1e-05	-2e-05	0	0.00016	0.00013	3
11685	4e-05	5e-05	3e-05	-1e-05	-2e-05	0	0.00016	0.00013	3
11686	4e-05	5e-05	3e-05	-1e-05	-2e-05	0	0.00016	0.00013	3
11689	4e-05	5e-05	3e-05	-1e-05	-2e-05	0	0.00016	0.00013	3
11690	4e-05	5e-05	3e-05	-1e-05	-2e-05	0	0.00016	0.00013	3
11691	4e-05	5e-05	3e-05	-1e-05	-2e-05	0	0.00016	0.00013	3
11692	4e-05	5e-05	3e-05	-1e-05	-2e-05	0	0.00016	0.00013	3
11693	4e-05	5e-05	3e-05	-1e-05	-2e-05	0	0.00016	0.00013	3
11694	4e-05	5e-05	3e-05	-1e-05	-2e-05	0	0.00016	0.00013	3
11695	-0.00013	-0.00011	-1e-05	0	5e-05	2e-05	0.0002	0.00018	3
11696	4e-05	0	-3e-05	-2e-05	-5e-05	-2e-05	-1e-05	0	3
11697	3e-05	-2e-05	0	1e-05	2e-05	-2e-05	0.0001	-2e-05	3
11698	3e-05	-2e-05	0	1e-05	2e-05	-2e-05	0.0001	-2e-05	3
11699	3e-05	-2e-05	0	1e-05	2e-05	-2e-05	0.0001	-2e-05	3
11700	3e-05	-2e-05	0	1e-05	2e-05	-2e-05	0.0001	-2e-05	3
11701	3e-05	-2e-05	0	1e-05	2e-05	-2e-05	0.0001	-2e-05	3
11702	3e-05	-2e-05	0	1e-05	2e-05	-2e-05	0.0001	-2e-05	3
11703	3e-05	-2e-05	0	1e-05	2e-05	-2e-05	0.0001	-2e-05	3
11704	3e-05	-2e-05	0	1e-05	2e-05	-2e-05	0.0001	-2e-05	3
11705	3e-05	-2e-05	0	1e-05	2e-05	-2e-05	0.0001	-2e-05	3
11706	3e-05	-2e-05	0	1e-05	2e-05	-2e-05	0.0001	-2e-05	3
11707	3e-05	-2e-05	0	1e-05	2e-05	-2e-05	0.0001	-2e-05	3
11708	3e-05	-2e-05	0	1e-05	2e-05	-2e-05	0.0001	-2e-05	3
11709	3e-05	-2e-05	0	1e-05	2e-05	-2e-05	0.0001	-2e-05	3
11710	3e-05	-2e-05	0	1e-05	2e-05	-2e-05	0.0001	-2e-05	3
11711	3e-05	-2e-05	0	1e-05	2e-05	-2e-05	0.0001	-2e-05	3
11712	3e-05	-2e-05	0	1e-05	2e-05	-2e-05	0.0001	-2e-05	3
11713	3e-05	-2e-05	0	1e-05	2e-05	-2e-05	0.0001	-2e-05	3
11714	3e-05	-2e-05	0	1e-05	2e-05	-2e-05	0.0001	-2e-05	3
11715	3e-05	-2e-05	0	1e-05	2e-05	-2e-05	0.0001	-2e-05	3
11716	3e-05	-2e-05	0	1e-05	2e-05	-2e-05	0.0001	-2e-05	3
11717	3e-05	-2e-05	0	1e-05	2e-05	-2e-05	0.0001	-2e-05	3
11718	-7e-05	0	-4e-05	-7e-05	-6e-05	-8e-05	-9e-05	-0.00018	3
11719	-3e-05	4e-05	-4e-05	-3e-05	-4e-05	-2e-05	-0.00016	-0.00026	3
11720	-3e-05	4e-05	-4e-05	-3e-05	-4e-05	-2e-05	-0.00016	-0.00026	3
11721	-3e-05	4e-05	-4e-05	-3e-05	-4e-05	-2e-05	-0.00016	-0.00026	3
11722	-3e-05	4e-05	-4e-05	-3e-05	-4e-05	-2e-05	-0.00016	-0.00026	3
11723	-3e-05	4e-05	-4e-05	-3e-05	-4e-05	-2e-05	-0.00016	-0.00026	3
11724	-3e-05	4e-05	-4e-05	-3e-05	-4e-05	-2e-05	-0.00016	-0.00026	3
11725	-3e-05	4e-05	-4e-05	-3e-05	-4e-05	-2e-05	-0.00016	-0.00026	3
11726	-3e-05	4e-05	-4e-05	-3e-05	-4e-05	-2e-05	-0.00016	-0.00026	3
11727	-3e-05	4e-05	-4e-05	-3e-05	-4e-05	-2e-05	-0.00016	-0.00026	3
11728	-3e-05	4e-05	-4e-05	-3e-05	-4e-05	-2e-05	-0.00016	-0.00026	3
11729	-3e-05	4e-05	-4e-05	-3e-05	-4e-05	-2e-05	-0.00016	-0.00026	3
11730	-3e-05	4e-05	-4e-05	-3e-05	-4e-05	-2e-05	-0.00016	-0.00026	3
11731	-3e-05	4e-05	-4e-05	-3e-05	-4e-05	-2e-05	-0.00016	-0.00026	3
11732	-3e-05	4e-05	-4e-05	-3e-05	-4e-05	-2e-05	-0.00016	-0.00026	3
11733	-3e-05	4e-05	-4e-05	-3e-05	-4e-05	-2e-05	-0.00016	-0.00026	3
11734	-3e-05	4e-05	-4e-05	-3e-05	-4e-05	-2e-05	-0.00016	-0.00026	3
11735	-3e-05	4e-05	-4e-05	-3e-05	-4e-05	-2e-05	-0.00016	-0.00026	3
11736	-3e-05	4e-05	-4e-05	-3e-05	-4e-05	-2e-05	-0.00016	-0.00026	3
11739	-3e-05	4e-05	-4e-05	-3e-05	-4e-05	-2e-05	-0.00016	-0.00026	3
11740	0	-6e-05	0	1e-05	0	1e-05	6e-05	5e-05	3
11741	-1e-05	-3e-05	-5e-05	-2e-05	-4e-05	0	0.00018	0.0001	3
11742	-1e-05	-3e-05	-5e-05	-2e-05	-4e-05	0	0.00018	0.0001	3
11743	-1e-05	-3e-05	-5e-05	-2e-05	-4e-05	0	0.00018	0.0001	3
11744	-1e-05	-3e-05	-5e-05	-2e-05	-4e-05	0	0.00018	0.0001	3
11745	-1e-05	-3e-05	-5e-05	-2e-05	-4e-05	0	0.00018	0.0001	3
11746	-1e-05	-3e-05	-5e-05	-2e-05	-4e-05	0	0.00018	0.0001	3
11747	-1e-05	-3e-05	-5e-05	-2e-05	-4e-05	0	0.00018	0.0001	3
11748	-1e-05	-3e-05	-5e-05	-2e-05	-4e-05	0	0.00018	0.0001	3
11749	-1e-05	-3e-05	-5e-05	-2e-05	-4e-05	0	0.00018	0.0001	3
11750	-1e-05	-3e-05	-5e-05	-2e-05	-4e-05	0	0.00018	0.0001	3
11751	-1e-05	-3e-05	-5e-05	-2e-05	-4e-05	0	0.00018	0.0001	3
11752	-1e-05	-3e-05	-5e-05	-2e-05	-4e-05	0	0.00018	0.0001	3
11753	-1e-05	-3e-05	-5e-05	-2e-05	-4e-05	0	0.00018	0.0001	3
11754	-1e-05	-3e-05	-5e-05	-2e-05	-4e-05	0	0.00018	0.0001	3
11755	9e-05	2e-05	1e-05	-1e-05	-3e-05	-4e-05	-4e-05	-2e-05	3
11756	8e-05	-4e-05	1e-05	4e-05	5e-05	1e-05	-0.00016	0	3
11757	8e-05	-4e-05	1e-05	4e-05	5e-05	1e-05	-0.00016	0	3
11758	8e-05	-4e-05	1e-05	4e-05	5e-05	1e-05	-0.00016	0	3
11759	8e-05	-4e-05	1e-05	4e-05	5e-05	1e-05	-0.00016	0	3
11760	8e-05	-4e-05	1e-05	4e-05	5e-05	1e-05	-0.00016	0	3
11761	8e-05	-4e-05	1e-05	4e-05	5e-05	1e-05	-0.00016	0	3
11762	8e-05	-4e-05	1e-05	4e-05	5e-05	1e-05	-0.00016	0	3
11763	8e-05	-4e-05	1e-05	4e-05	5e-05	1e-05	-0.00016	0	3
11764	8e-05	-4e-05	1e-05	4e-05	5e-05	1e-05	-0.00016	0	3
11765	8e-05	-4e-05	1e-05	4e-05	5e-05	1e-05	-0.00016	0	3
11766	8e-05	-4e-05	1e-05	4e-05	5e-05	1e-05	-0.00016	0	3
11767	8e-05	-4e-05	1e-05	4e-05	5e-05	1e-05	-0.00016	0	3
11768	8e-05	-4e-05	1e-05	4e-05	5e-05	1e-05	-0.00016	0	3
11769	8e-05	-4e-05	1e-05	4e-05	5e-05	1e-05	-0.00016	0	3
11770	8e-05	-4e-05	1e-05	4e-05	5e-05	1e-05	-0.00016	0	3
11771	8e-05	-4e-05	1e-05	4e-05	5e-05	1e-05	-0.00016	0	3
11772	8e-05	-4e-05	1e-05	4e-05	5e-05	1e-05	-0.00016	0	3
11773	8e-05	-4e-05	1e-05	4e-05	5e-05	1e-05	-0.00016	0	3
11774	8e-05	-4e-05	1e-05	4e-05	5e-05	1e-05	-0.00016	0	3
11775	8e-05	-4e-05	1e-05	4e-05	5e-05	1e-05	-0.00016	0	3
11776	8e-05	-4e-05	1e-05	4e-05	5e-05	1e-05	-0.00016	0	3
11777	8e-05	-4e-05	1e-05	4e-05	5e-05	1e-05	-0.00016	0	3
11778	-5e-05	-3e-05	-5e-05	-2e-05	-3e-05	-2e-05	-2e-05	-4e-05	3
11779	6e-05	9e-05	0	1e-05	-1e-05	-9e-05	-4e-05	-6e-05	3
11780	6e-05	9e-05	0	1e-05	-1e-05	-9e-05	-4e-05	-6e-05	3
11781	6e-05	9e-05	0	1e-05	-1e-05	-9e-05	-4e-05	-6e-05	3
11782	6e-05	9e-05	0	1e-05	-1e-05	-9e-05	-4e-05	-6e-05	3
11783	6e-05	9e-05	0	1e-05	-1e-05	-9e-05	-4e-05	-6e-05	3
11784	6e-05	9e-05	0	1e-05	-1e-05	-9e-05	-4e-05	-6e-05	3
11785	6e-05	9e-05	0	1e-05	-1e-05	-9e-05	-4e-05	-6e-05	3
11786	6e-05	9e-05	0	1e-05	-1e-05	-9e-05	-4e-05	-6e-05	3
11789	6e-05	9e-05	0	1e-05	-1e-05	-9e-05	-4e-05	-6e-05	3
11790	6e-05	9e-05	0	1e-05	-1e-05	-9e-05	-4e-05	-6e-05	3
11791	6e-05	9e-05	0	1e-05	-1e-05	-9e-05	-4e-05	-6e-05	3
11792	6e-05	9e-05	0	1e-05	-1e-05	-9e-05	-4e-05	-6e-05	3
11793	6e-05	9e-05	0	1e-05	-1e-05	-9e-05	-4e-05	-6e-05	3
11794	6e-05	9e-05	0	1e-05	-1e-05	-9e-05	-4e-05	-6e-05	3
11795	6e-05	9e-05	0	1e-05	-1e-05	-9e-05	-4e-05	-6e-05	3
11796	6e-05	9e-05	0	1e-05	-1e-05	-9e-05	-4e-05	-6e-05	3
11797	6e-05	9e-05	0	1e-05	-1e-05	-9e-05	-4e-05	-6e-05	3
11798	6e-05	9e-05	0	1e-05	-1e-05	-9e-05	-4e-05	-6e-05	3
11799	6e-05	9e-05	0	1e-05	-1e-05	-9e-05	-4e-05	-6e-05	3
11800	6e-05	9e-05	0	1e-05	-1e-05	-9e-05	-4e-05	-6e-05	3
11801	6e-05	9e-05	0	1e-05	-1e-05	-9e-05	-4e-05	-6e-05	3
11802	6e-05	9e-05	0	1e-05	-1e-05	-9e-05	-4e-05	-6e-05	3
11803	6e-05	9e-05	0	1e-05	-1e-05	-9e-05	-4e-05	-6e-05	3
11804	6e-05	9e-05	0	1e-05	-1e-05	-9e-05	-4e-05	-6e-05	3
11805	6e-05	9e-05	0	1e-05	-1e-05	-9e-05	-4e-05	-6e-05	3
11806	6e-05	9e-05	0	1e-05	-1e-05	-9e-05	-4e-05	-6e-05	3
11807	6e-05	9e-05	0	1e-05	-1e-05	-9e-05	-4e-05	-6e-05	3
11808	6e-05	9e-05	0	1e-05	-1e-05	-9e-05	-4e-05	-6e-05	3
11809	6e-05	9e-05	0	1e-05	-1e-05	-9e-05	-4e-05	-6e-05	3
11810	-5e-05	-5e-05	-2e-05	0	0	0	0.0001	-2e-05	3
11811	-6e-05	1e-05	2e-05	1e-05	0	4e-05	-0.0001	-3e-05	3
11812	-6e-05	1e-05	2e-05	1e-05	0	4e-05	-0.0001	-3e-05	3
11814	-6e-05	1e-05	2e-05	1e-05	0	4e-05	-0.0001	-3e-05	3
11815	-0.00018	-0.00017	1e-05	1e-05	0	-3e-05	7e-05	3e-05	3
11816	-6e-05	0	-3e-05	-2e-05	-1e-05	3e-05	-7e-05	-9e-05	3
11817	-6e-05	0	-3e-05	-2e-05	-1e-05	3e-05	-7e-05	-9e-05	3
11818	-6e-05	0	-3e-05	-2e-05	-1e-05	3e-05	-7e-05	-9e-05	3
11819	-6e-05	0	-3e-05	-2e-05	-1e-05	3e-05	-7e-05	-9e-05	3
11820	-6e-05	0	-3e-05	-2e-05	-1e-05	3e-05	-7e-05	-9e-05	3
11821	-6e-05	0	-3e-05	-2e-05	-1e-05	3e-05	-7e-05	-9e-05	3
11822	-6e-05	0	-3e-05	-2e-05	-1e-05	3e-05	-7e-05	-9e-05	3
11823	-6e-05	0	-3e-05	-2e-05	-1e-05	3e-05	-7e-05	-9e-05	3
11824	-6e-05	0	-3e-05	-2e-05	-1e-05	3e-05	-7e-05	-9e-05	3
11825	-6e-05	0	-3e-05	-2e-05	-1e-05	3e-05	-7e-05	-9e-05	3
11826	-6e-05	0	-3e-05	-2e-05	-1e-05	3e-05	-7e-05	-9e-05	3
11827	-6e-05	0	-3e-05	-2e-05	-1e-05	3e-05	-7e-05	-9e-05	3
11828	-6e-05	0	-3e-05	-2e-05	-1e-05	3e-05	-7e-05	-9e-05	3
11829	-6e-05	0	-3e-05	-2e-05	-1e-05	3e-05	-7e-05	-9e-05	3
11830	-6e-05	0	-3e-05	-2e-05	-1e-05	3e-05	-7e-05	-9e-05	3
11831	-6e-05	0	-3e-05	-2e-05	-1e-05	3e-05	-7e-05	-9e-05	3
11832	-6e-05	0	-3e-05	-2e-05	-1e-05	3e-05	-7e-05	-9e-05	3
11833	-6e-05	0	-3e-05	-2e-05	-1e-05	3e-05	-7e-05	-9e-05	3
11834	-6e-05	0	-3e-05	-2e-05	-1e-05	3e-05	-7e-05	-9e-05	3
11835	-6e-05	0	-3e-05	-2e-05	-1e-05	3e-05	-7e-05	-9e-05	3
11836	-6e-05	0	-3e-05	-2e-05	-1e-05	3e-05	-7e-05	-9e-05	3
11839	-6e-05	0	-3e-05	-2e-05	-1e-05	3e-05	-7e-05	-9e-05	3
11840	-6e-05	0	-3e-05	-2e-05	-1e-05	3e-05	-7e-05	-9e-05	3
11841	-6e-05	0	-3e-05	-2e-05	-1e-05	3e-05	-7e-05	-9e-05	3
11842	-6e-05	0	-3e-05	-2e-05	-1e-05	3e-05	-7e-05	-9e-05	3
11843	-6e-05	0	-3e-05	-2e-05	-1e-05	3e-05	-7e-05	-9e-05	3
11844	-6e-05	0	-3e-05	-2e-05	-1e-05	3e-05	-7e-05	-9e-05	3
11845	-6e-05	0	-3e-05	-2e-05	-1e-05	3e-05	-7e-05	-9e-05	3
11846	-6e-05	0	-3e-05	-2e-05	-1e-05	3e-05	-7e-05	-9e-05	3
11847	-6e-05	0	-3e-05	-2e-05	-1e-05	3e-05	-7e-05	-9e-05	3
11848	-6e-05	0	-3e-05	-2e-05	-1e-05	3e-05	-7e-05	-9e-05	3
11849	-6e-05	0	-3e-05	-2e-05	-1e-05	3e-05	-7e-05	-9e-05	3
11850	-6e-05	0	-3e-05	-2e-05	-1e-05	3e-05	-7e-05	-9e-05	3
11851	-6e-05	0	-3e-05	-2e-05	-1e-05	3e-05	-7e-05	-9e-05	3
11852	-6e-05	0	-3e-05	-2e-05	-1e-05	3e-05	-7e-05	-9e-05	3
11853	-6e-05	0	-3e-05	-2e-05	-1e-05	3e-05	-7e-05	-9e-05	3
11854	-9e-05	-0.0001	-4e-05	-4e-05	-6e-05	2e-05	-3e-05	-0.00011	3
11855	-9e-05	-0.0001	-4e-05	-4e-05	-6e-05	2e-05	-3e-05	-0.00011	3
11856	-9e-05	-0.0001	-4e-05	-4e-05	-6e-05	2e-05	-3e-05	-0.00011	3
11857	-9e-05	-0.0001	-4e-05	-4e-05	-6e-05	2e-05	-3e-05	-0.00011	3
11858	-9e-05	-0.0001	-4e-05	-4e-05	-6e-05	2e-05	-3e-05	-0.00011	3
11859	-9e-05	-0.0001	-4e-05	-4e-05	-6e-05	2e-05	-3e-05	-0.00011	3
11860	4e-05	1e-05	0	-1e-05	-2e-05	0.0001	8e-05	8e-05	3
11861	8e-05	8e-05	-1e-05	-2e-05	-1e-05	-4e-05	-3e-05	3e-05	3
11862	-5e-05	-3e-05	-5e-05	-4e-05	-1e-05	7e-05	-3e-05	-9e-05	3
11863	-5e-05	-3e-05	-5e-05	-4e-05	-1e-05	7e-05	-3e-05	-9e-05	3
11864	-5e-05	-3e-05	-5e-05	-4e-05	-1e-05	7e-05	-3e-05	-9e-05	3
11865	-5e-05	-3e-05	-5e-05	-4e-05	-1e-05	7e-05	-3e-05	-9e-05	3
11866	-5e-05	-3e-05	-5e-05	-4e-05	-1e-05	7e-05	-3e-05	-9e-05	3
11867	-5e-05	-3e-05	-5e-05	-4e-05	-1e-05	7e-05	-3e-05	-9e-05	3
11868	-5e-05	-3e-05	-5e-05	-4e-05	-1e-05	7e-05	-3e-05	-9e-05	3
11869	-5e-05	-3e-05	-5e-05	-4e-05	-1e-05	7e-05	-3e-05	-9e-05	3
11870	-5e-05	-3e-05	-5e-05	-4e-05	-1e-05	7e-05	-3e-05	-9e-05	3
11871	-5e-05	-3e-05	-5e-05	-4e-05	-1e-05	7e-05	-3e-05	-9e-05	3
11872	-5e-05	-3e-05	-5e-05	-4e-05	-1e-05	7e-05	-3e-05	-9e-05	3
11873	-5e-05	-3e-05	-5e-05	-4e-05	-1e-05	7e-05	-3e-05	-9e-05	3
11874	-5e-05	-3e-05	-5e-05	-4e-05	-1e-05	7e-05	-3e-05	-9e-05	3
11875	-2e-05	4e-05	3e-05	1e-05	-2e-05	-1e-05	2e-05	3e-05	3
11876	-2e-05	4e-05	3e-05	1e-05	-2e-05	-1e-05	2e-05	3e-05	3
11877	-2e-05	4e-05	3e-05	1e-05	-2e-05	-1e-05	2e-05	3e-05	3
11878	-2e-05	4e-05	3e-05	1e-05	-2e-05	-1e-05	2e-05	3e-05	3
11879	-2e-05	4e-05	3e-05	1e-05	-2e-05	-1e-05	2e-05	3e-05	3
11880	-2e-05	4e-05	3e-05	1e-05	-2e-05	-1e-05	2e-05	3e-05	3
11881	-2e-05	4e-05	3e-05	1e-05	-2e-05	-1e-05	2e-05	3e-05	3
11882	-2e-05	4e-05	3e-05	1e-05	-2e-05	-1e-05	2e-05	3e-05	3
11883	-2e-05	4e-05	3e-05	1e-05	-2e-05	-1e-05	2e-05	3e-05	3
11884	-2e-05	4e-05	3e-05	1e-05	-2e-05	-1e-05	2e-05	3e-05	3
11885	-2e-05	4e-05	3e-05	1e-05	-2e-05	-1e-05	2e-05	3e-05	3
11886	-2e-05	4e-05	3e-05	1e-05	-2e-05	-1e-05	2e-05	3e-05	3
11889	-2e-05	4e-05	3e-05	1e-05	-2e-05	-1e-05	2e-05	3e-05	3
11890	-2e-05	4e-05	3e-05	1e-05	-2e-05	-1e-05	2e-05	3e-05	3
11891	-2e-05	4e-05	3e-05	1e-05	-2e-05	-1e-05	2e-05	3e-05	3
11892	-2e-05	4e-05	3e-05	1e-05	-2e-05	-1e-05	2e-05	3e-05	3
11893	-2e-05	4e-05	3e-05	1e-05	-2e-05	-1e-05	2e-05	3e-05	3
11894	-2e-05	4e-05	3e-05	1e-05	-2e-05	-1e-05	2e-05	3e-05	3
11895	-2e-05	4e-05	3e-05	1e-05	-2e-05	-1e-05	2e-05	3e-05	3
11896	-2e-05	4e-05	3e-05	1e-05	-2e-05	-1e-05	2e-05	3e-05	3
11897	-2e-05	4e-05	3e-05	1e-05	-2e-05	-1e-05	2e-05	3e-05	3
11898	-2e-05	4e-05	3e-05	1e-05	-2e-05	-1e-05	2e-05	3e-05	3
11899	-2e-05	4e-05	3e-05	1e-05	-2e-05	-1e-05	2e-05	3e-05	3
11900	-4e-05	-0.00014	1e-05	2e-05	1e-05	-5e-05	4e-05	-4e-05	3
11901	5e-05	7e-05	-1e-05	-1e-05	-2e-05	2e-05	-4e-05	6e-05	3
11902	-4e-05	-2e-05	-4e-05	-4e-05	-7e-05	-9e-05	-0.00012	-9e-05	3
11903	-4e-05	-2e-05	-4e-05	-4e-05	-7e-05	-9e-05	-0.00012	-9e-05	3
11904	-4e-05	-2e-05	-4e-05	-4e-05	-7e-05	-9e-05	-0.00012	-9e-05	3
11905	-4e-05	-2e-05	-4e-05	-4e-05	-7e-05	-9e-05	-0.00012	-9e-05	3
11906	-4e-05	-2e-05	-4e-05	-4e-05	-7e-05	-9e-05	-0.00012	-9e-05	3
11907	-4e-05	-2e-05	-4e-05	-4e-05	-7e-05	-9e-05	-0.00012	-9e-05	3
11908	-4e-05	-2e-05	-4e-05	-4e-05	-7e-05	-9e-05	-0.00012	-9e-05	3
11909	-4e-05	-2e-05	-4e-05	-4e-05	-7e-05	-9e-05	-0.00012	-9e-05	3
11910	-4e-05	-2e-05	-4e-05	-4e-05	-7e-05	-9e-05	-0.00012	-9e-05	3
11911	-4e-05	-2e-05	-4e-05	-4e-05	-7e-05	-9e-05	-0.00012	-9e-05	3
11912	-4e-05	-2e-05	-4e-05	-4e-05	-7e-05	-9e-05	-0.00012	-9e-05	3
11913	-4e-05	-2e-05	-4e-05	-4e-05	-7e-05	-9e-05	-0.00012	-9e-05	3
11914	-4e-05	-2e-05	-4e-05	-4e-05	-7e-05	-9e-05	-0.00012	-9e-05	3
11915	-4e-05	-2e-05	-4e-05	-4e-05	-7e-05	-9e-05	-0.00012	-9e-05	3
11916	-4e-05	-2e-05	-4e-05	-4e-05	-7e-05	-9e-05	-0.00012	-9e-05	3
11917	-4e-05	-2e-05	-4e-05	-4e-05	-7e-05	-9e-05	-0.00012	-9e-05	3
11918	-4e-05	-2e-05	-4e-05	-4e-05	-7e-05	-9e-05	-0.00012	-9e-05	3
11919	-4e-05	-2e-05	-4e-05	-4e-05	-7e-05	-9e-05	-0.00012	-9e-05	3
11920	-4e-05	-8e-05	-1e-05	1e-05	2e-05	4e-05	5e-05	-1e-05	3
11921	-3e-05	4e-05	-1e-05	-3e-05	-1e-05	-3e-05	-5e-05	-6e-05	3
11922	-3e-05	4e-05	-1e-05	-3e-05	-1e-05	-3e-05	-5e-05	-6e-05	3
11923	-3e-05	4e-05	-1e-05	-3e-05	-1e-05	-3e-05	-5e-05	-6e-05	3
11924	-3e-05	4e-05	-1e-05	-3e-05	-1e-05	-3e-05	-5e-05	-6e-05	3
11925	-3e-05	4e-05	-1e-05	-3e-05	-1e-05	-3e-05	-5e-05	-6e-05	3
11926	-3e-05	4e-05	-1e-05	-3e-05	-1e-05	-3e-05	-5e-05	-6e-05	3
11927	-3e-05	4e-05	-1e-05	-3e-05	-1e-05	-3e-05	-5e-05	-6e-05	3
11928	-3e-05	4e-05	-1e-05	-3e-05	-1e-05	-3e-05	-5e-05	-6e-05	3
11929	-3e-05	4e-05	-1e-05	-3e-05	-1e-05	-3e-05	-5e-05	-6e-05	3
11930	-3e-05	4e-05	-1e-05	-3e-05	-1e-05	-3e-05	-5e-05	-6e-05	3
11931	-3e-05	4e-05	-1e-05	-3e-05	-1e-05	-3e-05	-5e-05	-6e-05	3
11932	-3e-05	4e-05	-1e-05	-3e-05	-1e-05	-3e-05	-5e-05	-6e-05	3
11933	-3e-05	4e-05	-1e-05	-3e-05	-1e-05	-3e-05	-5e-05	-6e-05	3
11934	-3e-05	4e-05	-1e-05	-3e-05	-1e-05	-3e-05	-5e-05	-6e-05	3
11935	-3e-05	4e-05	-1e-05	-3e-05	-1e-05	-3e-05	-5e-05	-6e-05	3
11936	-3e-05	4e-05	-1e-05	-3e-05	-1e-05	-3e-05	-5e-05	-6e-05	3
11939	-3e-05	4e-05	-1e-05	-3e-05	-1e-05	-3e-05	-5e-05	-6e-05	3
11940	-3e-05	4e-05	-1e-05	-3e-05	-1e-05	-3e-05	-5e-05	-6e-05	3
11941	-3e-05	4e-05	-1e-05	-3e-05	-1e-05	-3e-05	-5e-05	-6e-05	3
11942	-3e-05	4e-05	-1e-05	-3e-05	-1e-05	-3e-05	-5e-05	-6e-05	3
11943	-3e-05	4e-05	-1e-05	-3e-05	-1e-05	-3e-05	-5e-05	-6e-05	3
11944	-8e-05	-2e-05	2e-05	1e-05	-4e-05	-3e-05	0	-2e-05	3
11945	2e-05	3e-05	2e-05	0	-1e-05	0	-6e-05	1e-05	3
11946	2e-05	3e-05	2e-05	0	-1e-05	0	-6e-05	1e-05	3
11947	2e-05	3e-05	2e-05	0	-1e-05	0	-6e-05	1e-05	3
11948	2e-05	3e-05	2e-05	0	-1e-05	0	-6e-05	1e-05	3
11949	2e-05	3e-05	2e-05	0	-1e-05	0	-6e-05	1e-05	3
11950	2e-05	3e-05	2e-05	0	-1e-05	0	-6e-05	1e-05	3
11951	2e-05	3e-05	2e-05	0	-1e-05	0	-6e-05	1e-05	3
11952	2e-05	3e-05	2e-05	0	-1e-05	0	-6e-05	1e-05	3
11953	2e-05	3e-05	2e-05	0	-1e-05	0	-6e-05	1e-05	3
11954	2e-05	3e-05	2e-05	0	-1e-05	0	-6e-05	1e-05	3
11955	2e-05	3e-05	2e-05	0	-1e-05	0	-6e-05	1e-05	3
11956	2e-05	3e-05	2e-05	0	-1e-05	0	-6e-05	1e-05	3
11957	2e-05	3e-05	2e-05	0	-1e-05	0	-6e-05	1e-05	3
11958	2e-05	-1e-05	-4e-05	-3e-05	0	6e-05	1e-05	4e-05	3
11959	3e-05	6e-05	-1e-05	-1e-05	-3e-05	4e-05	-3e-05	-7e-05	3
11960	3e-05	6e-05	-1e-05	-1e-05	-3e-05	4e-05	-3e-05	-7e-05	3
11961	3e-05	6e-05	-1e-05	-1e-05	-3e-05	4e-05	-3e-05	-7e-05	3
11962	3e-05	6e-05	-1e-05	-1e-05	-3e-05	4e-05	-3e-05	-7e-05	3
11963	3e-05	6e-05	-1e-05	-1e-05	-3e-05	4e-05	-3e-05	-7e-05	3
11964	3e-05	6e-05	-1e-05	-1e-05	-3e-05	4e-05	-3e-05	-7e-05	3
11965	3e-05	6e-05	-1e-05	-1e-05	-3e-05	4e-05	-3e-05	-7e-05	3
11966	3e-05	6e-05	-1e-05	-1e-05	-3e-05	4e-05	-3e-05	-7e-05	3
11967	3e-05	6e-05	-1e-05	-1e-05	-3e-05	4e-05	-3e-05	-7e-05	3
11968	3e-05	6e-05	-1e-05	-1e-05	-3e-05	4e-05	-3e-05	-7e-05	3
11969	3e-05	6e-05	-1e-05	-1e-05	-3e-05	4e-05	-3e-05	-7e-05	3
11970	3e-05	6e-05	-1e-05	-1e-05	-3e-05	4e-05	-3e-05	-7e-05	3
11971	3e-05	6e-05	-1e-05	-1e-05	-3e-05	4e-05	-3e-05	-7e-05	3
11972	3e-05	6e-05	-1e-05	-1e-05	-3e-05	4e-05	-3e-05	-7e-05	3
11973	3e-05	6e-05	-1e-05	-1e-05	-3e-05	4e-05	-3e-05	-7e-05	3
11974	3e-05	6e-05	-1e-05	-1e-05	-3e-05	4e-05	-3e-05	-7e-05	3
11975	3e-05	6e-05	-1e-05	-1e-05	-3e-05	4e-05	-3e-05	-7e-05	3
11976	3e-05	6e-05	-1e-05	-1e-05	-3e-05	4e-05	-3e-05	-7e-05	3
11977	3e-05	6e-05	-1e-05	-1e-05	-3e-05	4e-05	-3e-05	-7e-05	3
11978	3e-05	6e-05	-1e-05	-1e-05	-3e-05	4e-05	-3e-05	-7e-05	3
11979	3e-05	6e-05	-1e-05	-1e-05	-3e-05	4e-05	-3e-05	-7e-05	3
11980	3e-05	6e-05	-1e-05	-1e-05	-3e-05	4e-05	-3e-05	-7e-05	3
11981	3e-05	6e-05	-1e-05	-1e-05	-3e-05	4e-05	-3e-05	-7e-05	3
11982	3e-05	6e-05	-1e-05	-1e-05	-3e-05	4e-05	-3e-05	-7e-05	3
11983	3e-05	6e-05	-1e-05	-1e-05	-3e-05	4e-05	-3e-05	-7e-05	3
11984	3e-05	6e-05	-1e-05	-1e-05	-3e-05	4e-05	-3e-05	-7e-05	3
11985	3e-05	6e-05	-1e-05	-1e-05	-3e-05	4e-05	-3e-05	-7e-05	3
11986	3e-05	6e-05	-1e-05	-1e-05	-3e-05	4e-05	-3e-05	-7e-05	3
11989	0.00014	4e-05	2e-05	2e-05	2e-05	0	6e-05	5e-05	3
11990	0.00014	4e-05	2e-05	2e-05	2e-05	0	6e-05	5e-05	3
11991	0.00014	4e-05	2e-05	2e-05	2e-05	0	6e-05	5e-05	3
11992	0.00014	4e-05	2e-05	2e-05	2e-05	0	6e-05	5e-05	3
11993	0.00014	4e-05	2e-05	2e-05	2e-05	0	6e-05	5e-05	3
11994	0.00014	4e-05	2e-05	2e-05	2e-05	0	6e-05	5e-05	3
11995	0.0001	3e-05	-7e-05	-5e-05	-1e-05	1e-05	-5e-05	-2e-05	3
11996	0.0001	3e-05	-7e-05	-5e-05	-1e-05	1e-05	-5e-05	-2e-05	3
11997	0.0001	3e-05	-7e-05	-5e-05	-1e-05	1e-05	-5e-05	-2e-05	3
11998	0.0001	3e-05	-7e-05	-5e-05	-1e-05	1e-05	-5e-05	-2e-05	3
11999	0.0001	3e-05	-7e-05	-5e-05	-1e-05	1e-05	-5e-05	-2e-05	3
12000	0.0001	3e-05	-7e-05	-5e-05	-1e-05	1e-05	-5e-05	-2e-05	3
12001	0.0001	3e-05	-7e-05	-5e-05	-1e-05	1e-05	-5e-05	-2e-05	3
12002	0.0001	3e-05	-7e-05	-5e-05	-1e-05	1e-05	-5e-05	-2e-05	3
12003	0	2e-05	3e-05	2e-05	-1e-05	-8e-05	-7e-05	-0.00011	3
12004	0	2e-05	3e-05	2e-05	-1e-05	-8e-05	-7e-05	-0.00011	3
12005	0	2e-05	3e-05	2e-05	-1e-05	-8e-05	-7e-05	-0.00011	3
12006	0	2e-05	3e-05	2e-05	-1e-05	-8e-05	-7e-05	-0.00011	3
12007	0	2e-05	3e-05	2e-05	-1e-05	-8e-05	-7e-05	-0.00011	3
12008	0	2e-05	3e-05	2e-05	-1e-05	-8e-05	-7e-05	-0.00011	3
12009	0	2e-05	3e-05	2e-05	-1e-05	-8e-05	-7e-05	-0.00011	3
12010	0	2e-05	3e-05	2e-05	-1e-05	-8e-05	-7e-05	-0.00011	3
12011	0	2e-05	3e-05	2e-05	-1e-05	-8e-05	-7e-05	-0.00011	3
12012	0	2e-05	3e-05	2e-05	-1e-05	-8e-05	-7e-05	-0.00011	3
12013	0	2e-05	3e-05	2e-05	-1e-05	-8e-05	-7e-05	-0.00011	3
12014	0	2e-05	3e-05	2e-05	-1e-05	-8e-05	-7e-05	-0.00011	3
12015	0	2e-05	3e-05	2e-05	-1e-05	-8e-05	-7e-05	-0.00011	3
12016	0	2e-05	3e-05	2e-05	-1e-05	-8e-05	-7e-05	-0.00011	3
12017	0	2e-05	3e-05	2e-05	-1e-05	-8e-05	-7e-05	-0.00011	3
12018	-1e-05	4e-05	2e-05	1e-05	-4e-05	-6e-05	-0.00011	-9e-05	3
12019	-7e-05	-3e-05	-2e-05	-2e-05	-2e-05	0	-4e-05	3e-05	3
12020	-7e-05	-3e-05	-2e-05	-2e-05	-2e-05	0	-4e-05	3e-05	3
12021	-7e-05	-3e-05	-2e-05	-2e-05	-2e-05	0	-4e-05	3e-05	3
12022	-7e-05	-3e-05	-2e-05	-2e-05	-2e-05	0	-4e-05	3e-05	3
12023	-7e-05	-3e-05	-2e-05	-2e-05	-2e-05	0	-4e-05	3e-05	3
12024	-7e-05	-3e-05	-2e-05	-2e-05	-2e-05	0	-4e-05	3e-05	3
12025	-7e-05	-3e-05	-2e-05	-2e-05	-2e-05	0	-4e-05	3e-05	3
12026	-7e-05	-3e-05	-2e-05	-2e-05	-2e-05	0	-4e-05	3e-05	3
12027	-7e-05	-3e-05	-2e-05	-2e-05	-2e-05	0	-4e-05	3e-05	3
12028	-7e-05	-3e-05	-2e-05	-2e-05	-2e-05	0	-4e-05	3e-05	3
12029	-7e-05	-3e-05	-2e-05	-2e-05	-2e-05	0	-4e-05	3e-05	3
12030	-7e-05	-3e-05	-2e-05	-2e-05	-2e-05	0	-4e-05	3e-05	3
12031	-7e-05	-3e-05	-2e-05	-2e-05	-2e-05	0	-4e-05	3e-05	3
12032	-7e-05	-3e-05	-2e-05	-2e-05	-2e-05	0	-4e-05	3e-05	3
12033	-7e-05	-3e-05	-2e-05	-2e-05	-2e-05	0	-4e-05	3e-05	3
12034	-7e-05	-3e-05	-2e-05	-2e-05	-2e-05	0	-4e-05	3e-05	3
12035	-7e-05	-3e-05	-2e-05	-2e-05	-2e-05	0	-4e-05	3e-05	3
12036	-7e-05	-3e-05	-2e-05	-2e-05	-2e-05	0	-4e-05	3e-05	3
12038	-7e-05	-3e-05	-2e-05	-2e-05	-2e-05	0	-4e-05	3e-05	3
12039	-7e-05	-3e-05	-2e-05	-2e-05	-2e-05	0	-4e-05	3e-05	3
12040	-7e-05	-3e-05	-2e-05	-2e-05	-2e-05	0	-4e-05	3e-05	3
12041	-5e-05	-1e-05	-3e-05	0	0	3e-05	-2e-05	-1e-05	3
12042	-5e-05	1e-05	-2e-05	-1e-05	0	0	3e-05	-0.00029	3
12043	-5e-05	1e-05	-2e-05	-1e-05	0	0	3e-05	-0.00029	3
12044	-5e-05	1e-05	-2e-05	-1e-05	0	0	3e-05	-0.00029	3
12045	-5e-05	1e-05	-2e-05	-1e-05	0	0	3e-05	-0.00029	3
12046	-5e-05	1e-05	-2e-05	-1e-05	0	0	3e-05	-0.00029	3
12047	-5e-05	1e-05	-2e-05	-1e-05	0	0	3e-05	-0.00029	3
12048	-5e-05	1e-05	-2e-05	-1e-05	0	0	3e-05	-0.00029	3
12049	-5e-05	1e-05	-2e-05	-1e-05	0	0	3e-05	-0.00029	3
12050	-5e-05	1e-05	-2e-05	-1e-05	0	0	3e-05	-0.00029	3
12051	-5e-05	1e-05	-2e-05	-1e-05	0	0	3e-05	-0.00029	3
12052	-5e-05	1e-05	-2e-05	-1e-05	0	0	3e-05	-0.00029	3
12053	-5e-05	1e-05	-2e-05	-1e-05	0	0	3e-05	-0.00029	3
12054	-5e-05	1e-05	-2e-05	-1e-05	0	0	3e-05	-0.00029	3
12055	-5e-05	-0.0001	-4e-05	-1e-05	0	1e-05	5e-05	-6e-05	3
12056	-5e-05	-0.0001	-4e-05	-1e-05	0	1e-05	5e-05	-6e-05	3
12057	-5e-05	-0.0001	-4e-05	-1e-05	0	1e-05	5e-05	-6e-05	3
12058	-5e-05	-0.0001	-4e-05	-1e-05	0	1e-05	5e-05	-6e-05	3
12059	-5e-05	-0.0001	-4e-05	-1e-05	0	1e-05	5e-05	-6e-05	3
12060	-5e-05	-0.0001	-4e-05	-1e-05	0	1e-05	5e-05	-6e-05	3
12061	-5e-05	-0.0001	-4e-05	-1e-05	0	1e-05	5e-05	-6e-05	3
12062	-5e-05	-0.0001	-4e-05	-1e-05	0	1e-05	5e-05	-6e-05	3
12063	0.0001	6e-05	1e-05	-2e-05	-1e-05	-1e-05	-8e-05	0.00012	3
12064	0.0001	6e-05	1e-05	-2e-05	-1e-05	-1e-05	-8e-05	0.00012	3
12065	0.0001	6e-05	1e-05	-2e-05	-1e-05	-1e-05	-8e-05	0.00012	3
12066	0.0001	6e-05	1e-05	-2e-05	-1e-05	-1e-05	-8e-05	0.00012	3
