14248	-0.00017	-1e-05	3e-05	0.0001	7e-05	-0.00046	8e-05	0.00012	4
14249	-0.00017	-1e-05	3e-05	0.0001	7e-05	-0.00046	8e-05	0.00012	4
14250	-0.00017	-1e-05	3e-05	0.0001	7e-05	-0.00046	8e-05	0.00012	4
14251	-0.00017	-1e-05	3e-05	0.0001	7e-05	-0.00046	8e-05	0.00012	4
14252	-0.00017	-1e-05	3e-05	0.0001	7e-05	-0.00046	8e-05	0.00012	4
14253	-0.00017	-1e-05	3e-05	0.0001	7e-05	-0.00046	8e-05	0.00012	4
14254	-0.00017	-1e-05	3e-05	0.0001	7e-05	-0.00046	8e-05	0.00012	4
14255	-0.00017	-1e-05	3e-05	0.0001	7e-05	-0.00046	8e-05	0.00012	4
14256	-0.00017	-1e-05	3e-05	0.0001	7e-05	-0.00046	8e-05	0.00012	4
14257	-0.00017	-1e-05	3e-05	0.0001	7e-05	-0.00046	8e-05	0.00012	4
14258	-0.00017	-1e-05	3e-05	0.0001	7e-05	-0.00046	8e-05	0.00012	4
14259	-0.00017	-1e-05	3e-05	0.0001	7e-05	-0.00046	8e-05	0.00012	4
14260	-0.00017	-1e-05	3e-05	0.0001	7e-05	-0.00046	8e-05	0.00012	4
14261	-0.00017	-1e-05	3e-05	0.0001	7e-05	-0.00046	8e-05	0.00012	4
14262	-0.00017	-1e-05	3e-05	0.0001	7e-05	-0.00046	8e-05	0.00012	4
14263	-0.00017	-1e-05	3e-05	0.0001	7e-05	-0.00046	8e-05	0.00012	4
14264	-0.00017	-1e-05	3e-05	0.0001	7e-05	-0.00046	8e-05	0.00012	4
14265	-0.00017	-1e-05	3e-05	0.0001	7e-05	-0.00046	8e-05	0.00012	4
14266	-0.00017	-1e-05	3e-05	0.0001	7e-05	-0.00046	8e-05	0.00012	4
14267	-0.00017	-1e-05	3e-05	0.0001	7e-05	-0.00046	8e-05	0.00012	4
14268	0.00011	-2e-05	-6e-05	7e-05	0.00018	0.00036	0.00016	0.00012	4
14269	-0.00042	-0.00014	4e-05	0.00011	0.00037	0.00031	7e-05	-0.00033	4
14270	3e-05	-0.00017	-7e-05	-0.0001	-0.00034	-0.00023	-0.00012	-0.00014	4
14271	3e-05	-0.00017	-7e-05	-0.0001	-0.00034	-0.00023	-0.00012	-0.00014	4
14272	3e-05	-0.00017	-7e-05	-0.0001	-0.00034	-0.00023	-0.00012	-0.00014	4
14273	3e-05	-0.00017	-7e-05	-0.0001	-0.00034	-0.00023	-0.00012	-0.00014	4
14274	3e-05	-0.00017	-7e-05	-0.0001	-0.00034	-0.00023	-0.00012	-0.00014	4
14275	3e-05	-0.00017	-7e-05	-0.0001	-0.00034	-0.00023	-0.00012	-0.00014	4
14276	3e-05	-0.00017	-7e-05	-0.0001	-0.00034	-0.00023	-0.00012	-0.00014	4
14277	3e-05	-0.00017	-7e-05	-0.0001	-0.00034	-0.00023	-0.00012	-0.00014	4
14278	3e-05	-0.00017	-7e-05	-0.0001	-0.00034	-0.00023	-0.00012	-0.00014	4
14279	3e-05	-0.00017	-7e-05	-0.0001	-0.00034	-0.00023	-0.00012	-0.00014	4
14280	3e-05	-0.00017	-7e-05	-0.0001	-0.00034	-0.00023	-0.00012	-0.00014	4
14281	3e-05	-0.00017	-7e-05	-0.0001	-0.00034	-0.00023	-0.00012	-0.00014	4
14282	3e-05	-0.00017	-7e-05	-0.0001	-0.00034	-0.00023	-0.00012	-0.00014	4
14283	-0.00038	-2e-05	2e-05	8e-05	0.00038	0.00047	-6e-05	-7e-05	4
14284	-0.00038	-2e-05	2e-05	8e-05	0.00038	0.00047	-6e-05	-7e-05	4
14285	-0.00038	-2e-05	2e-05	8e-05	0.00038	0.00047	-6e-05	-7e-05	4
14286	-0.00038	-2e-05	2e-05	8e-05	0.00038	0.00047	-6e-05	-7e-05	4
14288	-0.00038	-2e-05	2e-05	8e-05	0.00038	0.00047	-6e-05	-7e-05	4
14290	-0.00027	0.0001	8e-05	6e-05	-7e-05	-0.00045	-0.00026	0.00028	4
14291	-0.00027	0.0001	8e-05	6e-05	-7e-05	-0.00045	-0.00026	0.00028	4
14292	-0.00027	0.0001	8e-05	6e-05	-7e-05	-0.00045	-0.00026	0.00028	4
14293	-0.00027	0.0001	8e-05	6e-05	-7e-05	-0.00045	-0.00026	0.00028	4
14294	-0.00027	0.0001	8e-05	6e-05	-7e-05	-0.00045	-0.00026	0.00028	4
14295	-0.00027	0.0001	8e-05	6e-05	-7e-05	-0.00045	-0.00026	0.00028	4
14296	-0.00027	0.0001	8e-05	6e-05	-7e-05	-0.00045	-0.00026	0.00028	4
14297	-0.00027	0.0001	8e-05	6e-05	-7e-05	-0.00045	-0.00026	0.00028	4
14298	-0.00027	0.0001	8e-05	6e-05	-7e-05	-0.00045	-0.00026	0.00028	4
14299	-0.00027	0.0001	8e-05	6e-05	-7e-05	-0.00045	-0.00026	0.00028	4
14300	-0.00027	0.0001	8e-05	6e-05	-7e-05	-0.00045	-0.00026	0.00028	4
14301	-0.00027	0.0001	8e-05	6e-05	-7e-05	-0.00045	-0.00026	0.00028	4
14302	-0.00027	0.0001	8e-05	6e-05	-7e-05	-0.00045	-0.00026	0.00028	4
14303	-0.00027	0.0001	8e-05	6e-05	-7e-05	-0.00045	-0.00026	0.00028	4
14304	-0.00027	0.0001	8e-05	6e-05	-7e-05	-0.00045	-0.00026	0.00028	4
14305	-0.00027	0.0001	8e-05	6e-05	-7e-05	-0.00045	-0.00026	0.00028	4
14306	6e-05	-3e-05	-3e-05	-3e-05	0.00013	0.00038	0.00011	0.00013	4
14307	6e-05	-3e-05	-3e-05	-3e-05	0.00013	0.00038	0.00011	0.00013	4
14308	0.00014	0.00022	-6e-05	-0.00011	7e-05	0.00126	0.0002	-2e-05	4
14309	0.00014	0.00022	-6e-05	-0.00011	7e-05	0.00126	0.0002	-2e-05	4
14310	0.00014	0.00022	-6e-05	-0.00011	7e-05	0.00126	0.0002	-2e-05	4
14311	0.00014	0.00022	-6e-05	-0.00011	7e-05	0.00126	0.0002	-2e-05	4
14312	0.00014	0.00022	-6e-05	-0.00011	7e-05	0.00126	0.0002	-2e-05	4
14313	0.00014	0.00022	-6e-05	-0.00011	7e-05	0.00126	0.0002	-2e-05	4
14314	0.00014	0.00022	-6e-05	-0.00011	7e-05	0.00126	0.0002	-2e-05	4
14315	0.00014	0.00022	-6e-05	-0.00011	7e-05	0.00126	0.0002	-2e-05	4
14316	0.00014	0.00022	-6e-05	-0.00011	7e-05	0.00126	0.0002	-2e-05	4
14317	0.00014	0.00022	-6e-05	-0.00011	7e-05	0.00126	0.0002	-2e-05	4
14318	0.00014	0.00022	-6e-05	-0.00011	7e-05	0.00126	0.0002	-2e-05	4
14319	0.00014	0.00022	-6e-05	-0.00011	7e-05	0.00126	0.0002	-2e-05	4
14320	0.00014	0.00022	-6e-05	-0.00011	7e-05	0.00126	0.0002	-2e-05	4
14321	0.00014	0.00022	-6e-05	-0.00011	7e-05	0.00126	0.0002	-2e-05	4
14322	0.00014	0.00022	-6e-05	-0.00011	7e-05	0.00126	0.0002	-2e-05	4
14323	0.00014	0.00022	-6e-05	-0.00011	7e-05	0.00126	0.0002	-2e-05	4
14324	0.00014	0.00022	-6e-05	-0.00011	7e-05	0.00126	0.0002	-2e-05	4
14325	0.00014	0.00022	-6e-05	-0.00011	7e-05	0.00126	0.0002	-2e-05	4
14326	0.00014	0.00022	-6e-05	-0.00011	7e-05	0.00126	0.0002	-2e-05	4
14327	0.00014	0.00022	-6e-05	-0.00011	7e-05	0.00126	0.0002	-2e-05	4
14328	0	-7e-05	6e-05	-2e-05	-0.00022	-0.00057	-5e-05	-0.00037	4
14329	-5e-05	-5e-05	-8e-05	-6e-05	-0.00024	0	-0.0002	3e-05	4
14330	-0.00052	-0.00027	0	-3e-05	7e-05	0.00058	0.00022	-2e-05	4
14331	-0.00052	-0.00027	0	-3e-05	7e-05	0.00058	0.00022	-2e-05	4
14332	-0.00052	-0.00027	0	-3e-05	7e-05	0.00058	0.00022	-2e-05	4
14333	-0.00052	-0.00027	0	-3e-05	7e-05	0.00058	0.00022	-2e-05	4
14334	-0.00052	-0.00027	0	-3e-05	7e-05	0.00058	0.00022	-2e-05	4
14335	-0.00052	-0.00027	0	-3e-05	7e-05	0.00058	0.00022	-2e-05	4
14336	-0.00052	-0.00027	0	-3e-05	7e-05	0.00058	0.00022	-2e-05	4
14339	-0.00052	-0.00027	0	-3e-05	7e-05	0.00058	0.00022	-2e-05	4
14340	-0.00052	-0.00027	0	-3e-05	7e-05	0.00058	0.00022	-2e-05	4
14341	-0.00052	-0.00027	0	-3e-05	7e-05	0.00058	0.00022	-2e-05	4
14342	-0.00052	-0.00027	0	-3e-05	7e-05	0.00058	0.00022	-2e-05	4
14343	4e-05	-0.00011	-0.00011	-0.00015	-0.00033	-0.00016	2e-05	7e-05	4
14344	4e-05	-0.00011	-0.00011	-0.00015	-0.00033	-0.00016	2e-05	7e-05	4
14345	4e-05	-0.00011	-0.00011	-0.00015	-0.00033	-0.00016	2e-05	7e-05	4
14346	4e-05	-0.00011	-0.00011	-0.00015	-0.00033	-0.00016	2e-05	7e-05	4
14347	4e-05	-0.00011	-0.00011	-0.00015	-0.00033	-0.00016	2e-05	7e-05	4
14348	4e-05	-0.00011	-0.00011	-0.00015	-0.00033	-0.00016	2e-05	7e-05	4
14349	4e-05	-0.00011	-0.00011	-0.00015	-0.00033	-0.00016	2e-05	7e-05	4
14350	7e-05	2e-05	2e-05	7e-05	9e-05	-0.00049	-5e-05	-4e-05	4
14351	7e-05	2e-05	2e-05	7e-05	9e-05	-0.00049	-5e-05	-4e-05	4
14352	7e-05	2e-05	2e-05	7e-05	9e-05	-0.00049	-5e-05	-4e-05	4
14353	7e-05	2e-05	2e-05	7e-05	9e-05	-0.00049	-5e-05	-4e-05	4
14354	7e-05	2e-05	2e-05	7e-05	9e-05	-0.00049	-5e-05	-4e-05	4
14355	7e-05	2e-05	2e-05	7e-05	9e-05	-0.00049	-5e-05	-4e-05	4
14356	7e-05	2e-05	2e-05	7e-05	9e-05	-0.00049	-5e-05	-4e-05	4
14357	7e-05	2e-05	2e-05	7e-05	9e-05	-0.00049	-5e-05	-4e-05	4
14358	7e-05	2e-05	2e-05	7e-05	9e-05	-0.00049	-5e-05	-4e-05	4
14359	7e-05	2e-05	2e-05	7e-05	9e-05	-0.00049	-5e-05	-4e-05	4
14360	7e-05	2e-05	2e-05	7e-05	9e-05	-0.00049	-5e-05	-4e-05	4
14361	7e-05	2e-05	2e-05	7e-05	9e-05	-0.00049	-5e-05	-4e-05	4
14362	7e-05	2e-05	2e-05	7e-05	9e-05	-0.00049	-5e-05	-4e-05	4
14363	7e-05	2e-05	2e-05	7e-05	9e-05	-0.00049	-5e-05	-4e-05	4
14364	7e-05	2e-05	2e-05	7e-05	9e-05	-0.00049	-5e-05	-4e-05	4
14365	7e-05	2e-05	2e-05	7e-05	9e-05	-0.00049	-5e-05	-4e-05	4
14366	-8e-05	-0.00012	4e-05	3e-05	0.00028	0.00032	6e-05	0	4
14367	1e-05	5e-05	2e-05	-7e-05	-0.00019	0.00041	-7e-05	1e-05	4
14368	-7e-05	-9e-05	-0.00018	-0.00022	-0.0003	0.0001	-0.00018	-0.00023	4
14369	-7e-05	-9e-05	-0.00018	-0.00022	-0.0003	0.0001	-0.00018	-0.00023	4
14370	-7e-05	-9e-05	-0.00018	-0.00022	-0.0003	0.0001	-0.00018	-0.00023	4
14371	-7e-05	-9e-05	-0.00018	-0.00022	-0.0003	0.0001	-0.00018	-0.00023	4
14372	-7e-05	-9e-05	-0.00018	-0.00022	-0.0003	0.0001	-0.00018	-0.00023	4
14373	-7e-05	-9e-05	-0.00018	-0.00022	-0.0003	0.0001	-0.00018	-0.00023	4
14374	-7e-05	-9e-05	-0.00018	-0.00022	-0.0003	0.0001	-0.00018	-0.00023	4
14375	-7e-05	-9e-05	-0.00018	-0.00022	-0.0003	0.0001	-0.00018	-0.00023	4
14376	-7e-05	-9e-05	-0.00018	-0.00022	-0.0003	0.0001	-0.00018	-0.00023	4
14377	-7e-05	-9e-05	-0.00018	-0.00022	-0.0003	0.0001	-0.00018	-0.00023	4
14378	-7e-05	-9e-05	-0.00018	-0.00022	-0.0003	0.0001	-0.00018	-0.00023	4
14379	-7e-05	-9e-05	-0.00018	-0.00022	-0.0003	0.0001	-0.00018	-0.00023	4
14380	-7e-05	-9e-05	-0.00018	-0.00022	-0.0003	0.0001	-0.00018	-0.00023	4
14381	-7e-05	-9e-05	-0.00018	-0.00022	-0.0003	0.0001	-0.00018	-0.00023	4
14382	-7e-05	-9e-05	-0.00018	-0.00022	-0.0003	0.0001	-0.00018	-0.00023	4
14383	-7e-05	-9e-05	-0.00018	-0.00022	-0.0003	0.0001	-0.00018	-0.00023	4
14384	-7e-05	-9e-05	-0.00018	-0.00022	-0.0003	0.0001	-0.00018	-0.00023	4
14385	-7e-05	-9e-05	-0.00018	-0.00022	-0.0003	0.0001	-0.00018	-0.00023	4
14386	-7e-05	-9e-05	-0.00018	-0.00022	-0.0003	0.0001	-0.00018	-0.00023	4
14388	-7e-05	-9e-05	-0.00018	-0.00022	-0.0003	0.0001	-0.00018	-0.00023	4
14389	-7e-05	-9e-05	-0.00018	-0.00022	-0.0003	0.0001	-0.00018	-0.00023	4
14390	0.00029	0.00012	0.0001	6e-05	0.00012	-6e-05	-6e-05	-0.00035	4
14391	0.00029	0.00012	0.0001	6e-05	0.00012	-6e-05	-6e-05	-0.00035	4
14392	0.00029	0.00012	0.0001	6e-05	0.00012	-6e-05	-6e-05	-0.00035	4
14393	0.00029	0.00012	0.0001	6e-05	0.00012	-6e-05	-6e-05	-0.00035	4
14394	0.00029	0.00012	0.0001	6e-05	0.00012	-6e-05	-6e-05	-0.00035	4
14395	-2e-05	-8e-05	-6e-05	-4e-05	0.00011	-9e-05	0	3e-05	4
14396	-2e-05	-8e-05	-6e-05	-4e-05	0.00011	-9e-05	0	3e-05	4
14397	-2e-05	-8e-05	-6e-05	-4e-05	0.00011	-9e-05	0	3e-05	4
14398	-2e-05	-8e-05	-6e-05	-4e-05	0.00011	-9e-05	0	3e-05	4
14399	-2e-05	-8e-05	-6e-05	-4e-05	0.00011	-9e-05	0	3e-05	4
14400	-2e-05	-8e-05	-6e-05	-4e-05	0.00011	-9e-05	0	3e-05	4
14401	-2e-05	-8e-05	-6e-05	-4e-05	0.00011	-9e-05	0	3e-05	4
14402	-2e-05	-8e-05	-6e-05	-4e-05	0.00011	-9e-05	0	3e-05	4
14403	-0.00038	3e-05	0	0.0002	0.00065	0.00036	0.00027	0.00011	4
14404	-0.00038	3e-05	0	0.0002	0.00065	0.00036	0.00027	0.00011	4
14405	-0.00038	3e-05	0	0.0002	0.00065	0.00036	0.00027	0.00011	4
14406	-0.00038	3e-05	0	0.0002	0.00065	0.00036	0.00027	0.00011	4
14407	-0.00038	3e-05	0	0.0002	0.00065	0.00036	0.00027	0.00011	4
14408	-0.00038	3e-05	0	0.0002	0.00065	0.00036	0.00027	0.00011	4
14409	-0.00038	3e-05	0	0.0002	0.00065	0.00036	0.00027	0.00011	4
14410	0.00016	-8e-05	-7e-05	-2e-05	-0.00013	0.00011	-3e-05	-7e-05	4
14411	0.00016	-8e-05	-7e-05	-2e-05	-0.00013	0.00011	-3e-05	-7e-05	4
14412	0.00016	-8e-05	-7e-05	-2e-05	-0.00013	0.00011	-3e-05	-7e-05	4
14413	0.00016	-8e-05	-7e-05	-2e-05	-0.00013	0.00011	-3e-05	-7e-05	4
14414	0.00016	-8e-05	-7e-05	-2e-05	-0.00013	0.00011	-3e-05	-7e-05	4
14415	0.00016	-8e-05	-7e-05	-2e-05	-0.00013	0.00011	-3e-05	-7e-05	4
14416	0.00016	-8e-05	-7e-05	-2e-05	-0.00013	0.00011	-3e-05	-7e-05	4
14417	0.00016	-8e-05	-7e-05	-2e-05	-0.00013	0.00011	-3e-05	-7e-05	4
14418	0.00016	-8e-05	-7e-05	-2e-05	-0.00013	0.00011	-3e-05	-7e-05	4
14419	0.00016	-8e-05	-7e-05	-2e-05	-0.00013	0.00011	-3e-05	-7e-05	4
14420	0.00016	-8e-05	-7e-05	-2e-05	-0.00013	0.00011	-3e-05	-7e-05	4
14421	0.00016	-8e-05	-7e-05	-2e-05	-0.00013	0.00011	-3e-05	-7e-05	4
14422	0.00016	-8e-05	-7e-05	-2e-05	-0.00013	0.00011	-3e-05	-7e-05	4
14423	0.00016	-8e-05	-7e-05	-2e-05	-0.00013	0.00011	-3e-05	-7e-05	4
14424	0.00016	-8e-05	-7e-05	-2e-05	-0.00013	0.00011	-3e-05	-7e-05	4
14425	0.00016	-8e-05	-7e-05	-2e-05	-0.00013	0.00011	-3e-05	-7e-05	4
14426	-4e-05	2e-05	2e-05	-0.00012	-0.00026	2e-05	-5e-05	8e-05	4
14427	-4e-05	2e-05	2e-05	-0.00012	-0.00026	2e-05	-5e-05	8e-05	4
14428	1e-05	0.00013	3e-05	5e-05	2e-05	0.00045	-4e-05	-6e-05	4
14429	1e-05	0.00013	3e-05	5e-05	2e-05	0.00045	-4e-05	-6e-05	4
14430	1e-05	0.00013	3e-05	5e-05	2e-05	0.00045	-4e-05	-6e-05	4
14431	1e-05	0.00013	3e-05	5e-05	2e-05	0.00045	-4e-05	-6e-05	4
14432	1e-05	0.00013	3e-05	5e-05	2e-05	0.00045	-4e-05	-6e-05	4
14433	1e-05	0.00013	3e-05	5e-05	2e-05	0.00045	-4e-05	-6e-05	4
14434	1e-05	0.00013	3e-05	5e-05	2e-05	0.00045	-4e-05	-6e-05	4
14435	1e-05	0.00013	3e-05	5e-05	2e-05	0.00045	-4e-05	-6e-05	4
14436	1e-05	0.00013	3e-05	5e-05	2e-05	0.00045	-4e-05	-6e-05	4
14438	1e-05	0.00013	3e-05	5e-05	2e-05	0.00045	-4e-05	-6e-05	4
14439	1e-05	0.00013	3e-05	5e-05	2e-05	0.00045	-4e-05	-6e-05	4
14440	1e-05	0.00013	3e-05	5e-05	2e-05	0.00045	-4e-05	-6e-05	4
14441	1e-05	0.00013	3e-05	5e-05	2e-05	0.00045	-4e-05	-6e-05	4
14442	1e-05	0.00013	3e-05	5e-05	2e-05	0.00045	-4e-05	-6e-05	4
14443	1e-05	0.00013	3e-05	5e-05	2e-05	0.00045	-4e-05	-6e-05	4
14444	1e-05	0.00013	3e-05	5e-05	2e-05	0.00045	-4e-05	-6e-05	4
14445	1e-05	0.00013	3e-05	5e-05	2e-05	0.00045	-4e-05	-6e-05	4
14446	1e-05	0.00013	3e-05	5e-05	2e-05	0.00045	-4e-05	-6e-05	4
14447	1e-05	0.00013	3e-05	5e-05	2e-05	0.00045	-4e-05	-6e-05	4
14448	1e-05	0.00013	3e-05	5e-05	2e-05	0.00045	-4e-05	-6e-05	4
14449	4e-05	0.00012	2e-05	7e-05	0.00013	-0.00069	-0.00011	6e-05	4
14450	0	0.0001	5e-05	-2e-05	-0.00019	0.0001	-1e-05	3e-05	4
14451	0	0.0001	5e-05	-2e-05	-0.00019	0.0001	-1e-05	3e-05	4
14452	0	0.0001	5e-05	-2e-05	-0.00019	0.0001	-1e-05	3e-05	4
14453	0	0.0001	5e-05	-2e-05	-0.00019	0.0001	-1e-05	3e-05	4
14454	0	0.0001	5e-05	-2e-05	-0.00019	0.0001	-1e-05	3e-05	4
14455	0	0.0001	5e-05	-2e-05	-0.00019	0.0001	-1e-05	3e-05	4
14456	0	0.0001	5e-05	-2e-05	-0.00019	0.0001	-1e-05	3e-05	4
14457	0	0.0001	5e-05	-2e-05	-0.00019	0.0001	-1e-05	3e-05	4
14458	0	0.0001	5e-05	-2e-05	-0.00019	0.0001	-1e-05	3e-05	4
14459	0	0.0001	5e-05	-2e-05	-0.00019	0.0001	-1e-05	3e-05	4
14460	0	0.0001	5e-05	-2e-05	-0.00019	0.0001	-1e-05	3e-05	4
14461	0	0.0001	5e-05	-2e-05	-0.00019	0.0001	-1e-05	3e-05	4
14462	0	0.0001	5e-05	-2e-05	-0.00019	0.0001	-1e-05	3e-05	4
14463	0.00012	-5e-05	-7e-05	-7e-05	-1e-05	-0.00083	-0.0002	0.00017	4
14464	0.00012	-5e-05	-7e-05	-7e-05	-1e-05	-0.00083	-0.0002	0.00017	4
14465	0.00012	-5e-05	-7e-05	-7e-05	-1e-05	-0.00083	-0.0002	0.00017	4
14466	0.00012	-5e-05	-7e-05	-7e-05	-1e-05	-0.00083	-0.0002	0.00017	4
14467	0.00012	-5e-05	-7e-05	-7e-05	-1e-05	-0.00083	-0.0002	0.00017	4
14468	0.00012	-5e-05	-7e-05	-7e-05	-1e-05	-0.00083	-0.0002	0.00017	4
14469	0.00012	-5e-05	-7e-05	-7e-05	-1e-05	-0.00083	-0.0002	0.00017	4
14470	-4e-05	3e-05	1e-05	2e-05	0.0005	0.00022	8e-05	0.0001	4
14471	-4e-05	3e-05	1e-05	2e-05	0.0005	0.00022	8e-05	0.0001	4
14472	-4e-05	3e-05	1e-05	2e-05	0.0005	0.00022	8e-05	0.0001	4
14473	-4e-05	3e-05	1e-05	2e-05	0.0005	0.00022	8e-05	0.0001	4
14474	-4e-05	3e-05	1e-05	2e-05	0.0005	0.00022	8e-05	0.0001	4
14475	-4e-05	3e-05	1e-05	2e-05	0.0005	0.00022	8e-05	0.0001	4
14476	-4e-05	3e-05	1e-05	2e-05	0.0005	0.00022	8e-05	0.0001	4
14477	-4e-05	3e-05	1e-05	2e-05	0.0005	0.00022	8e-05	0.0001	4
14478	-4e-05	3e-05	1e-05	2e-05	0.0005	0.00022	8e-05	0.0001	4
14479	-4e-05	3e-05	1e-05	2e-05	0.0005	0.00022	8e-05	0.0001	4
14480	-4e-05	3e-05	1e-05	2e-05	0.0005	0.00022	8e-05	0.0001	4
14481	-4e-05	3e-05	1e-05	2e-05	0.0005	0.00022	8e-05	0.0001	4
14482	-4e-05	3e-05	1e-05	2e-05	0.0005	0.00022	8e-05	0.0001	4
14483	-4e-05	3e-05	1e-05	2e-05	0.0005	0.00022	8e-05	0.0001	4
14484	-4e-05	3e-05	1e-05	2e-05	0.0005	0.00022	8e-05	0.0001	4
14485	-4e-05	3e-05	1e-05	2e-05	0.0005	0.00022	8e-05	0.0001	4
14486	-4e-05	3e-05	1e-05	2e-05	0.0005	0.00022	8e-05	0.0001	4
14488	-4e-05	3e-05	1e-05	2e-05	0.0005	0.00022	8e-05	0.0001	4
14489	-4e-05	3e-05	1e-05	2e-05	0.0005	0.00022	8e-05	0.0001	4
14490	0.0001	2e-05	-0.0001	-5e-05	-0.00014	-0.0001	4e-05	-0.0001	4
14491	0.0001	2e-05	-0.0001	-5e-05	-0.00014	-0.0001	4e-05	-0.0001	4
14492	0.0001	2e-05	-0.0001	-5e-05	-0.00014	-0.0001	4e-05	-0.0001	4
14493	0.0001	2e-05	-0.0001	-5e-05	-0.00014	-0.0001	4e-05	-0.0001	4
14494	0.0001	2e-05	-0.0001	-5e-05	-0.00014	-0.0001	4e-05	-0.0001	4
14495	0.0001	2e-05	-0.0001	-5e-05	-0.00014	-0.0001	4e-05	-0.0001	4
14496	0.0001	2e-05	-0.0001	-5e-05	-0.00014	-0.0001	4e-05	-0.0001	4
14497	0.0001	2e-05	-0.0001	-5e-05	-0.00014	-0.0001	4e-05	-0.0001	4
14498	0.0001	2e-05	-0.0001	-5e-05	-0.00014	-0.0001	4e-05	-0.0001	4
14499	0.0001	2e-05	-0.0001	-5e-05	-0.00014	-0.0001	4e-05	-0.0001	4
14500	0.0001	2e-05	-0.0001	-5e-05	-0.00014	-0.0001	4e-05	-0.0001	4
14501	0.0001	2e-05	-0.0001	-5e-05	-0.00014	-0.0001	4e-05	-0.0001	4
14502	0.0001	2e-05	-0.0001	-5e-05	-0.00014	-0.0001	4e-05	-0.0001	4
14503	0.0001	2e-05	-0.0001	-5e-05	-0.00014	-0.0001	4e-05	-0.0001	4
14504	0.0001	2e-05	-0.0001	-5e-05	-0.00014	-0.0001	4e-05	-0.0001	4
14505	0.0001	2e-05	-0.0001	-5e-05	-0.00014	-0.0001	4e-05	-0.0001	4
14506	0.0001	2e-05	-0.0001	-5e-05	-0.00014	-0.0001	4e-05	-0.0001	4
14507	0.0001	2e-05	-0.0001	-5e-05	-0.00014	-0.0001	4e-05	-0.0001	4
14508	0	-5e-05	6e-05	0.00024	0.00048	0.00027	-5e-05	-4e-05	4
14509	0	-5e-05	6e-05	0.00024	0.00048	0.00027	-5e-05	-4e-05	4
14510	4e-05	-1e-05	4e-05	7e-05	0.00057	0.00022	8e-05	0	4
14511	4e-05	-1e-05	4e-05	7e-05	0.00057	0.00022	8e-05	0	4
14513	4e-05	-1e-05	4e-05	7e-05	0.00057	0.00022	8e-05	0	4
14514	4e-05	-1e-05	4e-05	7e-05	0.00057	0.00022	8e-05	0	4
14515	4e-05	-1e-05	4e-05	7e-05	0.00057	0.00022	8e-05	0	4
14516	4e-05	-1e-05	4e-05	7e-05	0.00057	0.00022	8e-05	0	4
14517	4e-05	-1e-05	4e-05	7e-05	0.00057	0.00022	8e-05	0	4
14518	4e-05	-1e-05	4e-05	7e-05	0.00057	0.00022	8e-05	0	4
14519	4e-05	-1e-05	4e-05	7e-05	0.00057	0.00022	8e-05	0	4
14520	4e-05	-1e-05	4e-05	7e-05	0.00057	0.00022	8e-05	0	4
14521	4e-05	-1e-05	4e-05	7e-05	0.00057	0.00022	8e-05	0	4
14522	4e-05	-1e-05	4e-05	7e-05	0.00057	0.00022	8e-05	0	4
14523	-7e-05	-5e-05	-8e-05	-0.00017	-0.00068	-0.00031	-0.00021	0	4
14524	-7e-05	-5e-05	-8e-05	-0.00017	-0.00068	-0.00031	-0.00021	0	4
14525	-7e-05	-5e-05	-8e-05	-0.00017	-0.00068	-0.00031	-0.00021	0	4
14526	-7e-05	-5e-05	-8e-05	-0.00017	-0.00068	-0.00031	-0.00021	0	4
14527	-7e-05	-5e-05	-8e-05	-0.00017	-0.00068	-0.00031	-0.00021	0	4
14528	-7e-05	-5e-05	-8e-05	-0.00017	-0.00068	-0.00031	-0.00021	0	4
14529	-9e-05	-0.00012	-7e-05	0.00012	0.0004	1e-05	-8e-05	-2e-05	4
14530	-5e-05	-1e-05	-1e-05	-0.00027	-0.00053	-0.00071	-0.00019	-2e-05	4
14531	-5e-05	-1e-05	-1e-05	-0.00027	-0.00053	-0.00071	-0.00019	-2e-05	4
14532	-5e-05	-1e-05	-1e-05	-0.00027	-0.00053	-0.00071	-0.00019	-2e-05	4
14533	-5e-05	-1e-05	-1e-05	-0.00027	-0.00053	-0.00071	-0.00019	-2e-05	4
14534	-5e-05	-1e-05	-1e-05	-0.00027	-0.00053	-0.00071	-0.00019	-2e-05	4
14535	-5e-05	-1e-05	-1e-05	-0.00027	-0.00053	-0.00071	-0.00019	-2e-05	4
14536	-5e-05	-1e-05	-1e-05	-0.00027	-0.00053	-0.00071	-0.00019	-2e-05	4
14538	-5e-05	-1e-05	-1e-05	-0.00027	-0.00053	-0.00071	-0.00019	-2e-05	4
14539	-5e-05	-1e-05	-1e-05	-0.00027	-0.00053	-0.00071	-0.00019	-2e-05	4
14540	-5e-05	-1e-05	-1e-05	-0.00027	-0.00053	-0.00071	-0.00019	-2e-05	4
14541	-5e-05	-1e-05	-1e-05	-0.00027	-0.00053	-0.00071	-0.00019	-2e-05	4
14542	-5e-05	-1e-05	-1e-05	-0.00027	-0.00053	-0.00071	-0.00019	-2e-05	4
14543	-5e-05	-1e-05	-1e-05	-0.00027	-0.00053	-0.00071	-0.00019	-2e-05	4
14544	-5e-05	-1e-05	-1e-05	-0.00027	-0.00053	-0.00071	-0.00019	-2e-05	4
14545	-5e-05	-1e-05	-1e-05	-0.00027	-0.00053	-0.00071	-0.00019	-2e-05	4
14546	-1e-05	-0.00011	-0.00016	-0.00018	-0.00014	0.00049	2e-05	0.00028	4
14547	-1e-05	-0.00011	-0.00016	-0.00018	-0.00014	0.00049	2e-05	0.00028	4
14548	0	-4e-05	-6e-05	0.00025	-0.0001	0.00026	-0.00028	-0.00012	4
14549	0	-4e-05	-6e-05	0.00025	-0.0001	0.00026	-0.00028	-0.00012	4
14550	0	-4e-05	-6e-05	0.00025	-0.0001	0.00026	-0.00028	-0.00012	4
14551	0	-4e-05	-6e-05	0.00025	-0.0001	0.00026	-0.00028	-0.00012	4
14552	0	-4e-05	-6e-05	0.00025	-0.0001	0.00026	-0.00028	-0.00012	4
14553	0	-4e-05	-6e-05	0.00025	-0.0001	0.00026	-0.00028	-0.00012	4
14554	0	-4e-05	-6e-05	0.00025	-0.0001	0.00026	-0.00028	-0.00012	4
14555	0	-4e-05	-6e-05	0.00025	-0.0001	0.00026	-0.00028	-0.00012	4
14556	0	-4e-05	-6e-05	0.00025	-0.0001	0.00026	-0.00028	-0.00012	4
14557	0	-4e-05	-6e-05	0.00025	-0.0001	0.00026	-0.00028	-0.00012	4
14558	0	-4e-05	-6e-05	0.00025	-0.0001	0.00026	-0.00028	-0.00012	4
14559	0	-4e-05	-6e-05	0.00025	-0.0001	0.00026	-0.00028	-0.00012	4
14560	0	-4e-05	-6e-05	0.00025	-0.0001	0.00026	-0.00028	-0.00012	4
14561	0	-4e-05	-6e-05	0.00025	-0.0001	0.00026	-0.00028	-0.00012	4
14562	0	-4e-05	-6e-05	0.00025	-0.0001	0.00026	-0.00028	-0.00012	4
14563	0	-4e-05	-6e-05	0.00025	-0.0001	0.00026	-0.00028	-0.00012	4
14564	0	-4e-05	-6e-05	0.00025	-0.0001	0.00026	-0.00028	-0.00012	4
14565	0	-4e-05	-6e-05	0.00025	-0.0001	0.00026	-0.00028	-0.00012	4
14566	0	-4e-05	-6e-05	0.00025	-0.0001	0.00026	-0.00028	-0.00012	4
14567	0	-4e-05	-6e-05	0.00025	-0.0001	0.00026	-0.00028	-0.00012	4
14568	4e-05	-1e-05	2e-05	-0.00032	-0.00032	-0.00024	-5e-05	3e-05	4
14569	-7e-05	0.00012	6e-05	-8e-05	-6e-05	-0.0001	-0.00032	-0.00076	4
14570	-6e-05	-0.0002	-6e-05	0.00016	-7e-05	0.001	-0.00026	8e-05	4
14571	-6e-05	-0.0002	-6e-05	0.00016	-7e-05	0.001	-0.00026	8e-05	4
14572	-6e-05	-0.0002	-6e-05	0.00016	-7e-05	0.001	-0.00026	8e-05	4
14573	-6e-05	-0.0002	-6e-05	0.00016	-7e-05	0.001	-0.00026	8e-05	4
14574	-6e-05	-0.0002	-6e-05	0.00016	-7e-05	0.001	-0.00026	8e-05	4
14575	-6e-05	-0.0002	-6e-05	0.00016	-7e-05	0.001	-0.00026	8e-05	4
14576	-6e-05	-0.0002	-6e-05	0.00016	-7e-05	0.001	-0.00026	8e-05	4
14577	-6e-05	-0.0002	-6e-05	0.00016	-7e-05	0.001	-0.00026	8e-05	4
14578	-6e-05	-0.0002	-6e-05	0.00016	-7e-05	0.001	-0.00026	8e-05	4
14579	-6e-05	-0.0002	-6e-05	0.00016	-7e-05	0.001	-0.00026	8e-05	4
14580	-6e-05	-0.0002	-6e-05	0.00016	-7e-05	0.001	-0.00026	8e-05	4
14581	-6e-05	-0.0002	-6e-05	0.00016	-7e-05	0.001	-0.00026	8e-05	4
14582	-6e-05	-0.0002	-6e-05	0.00016	-7e-05	0.001	-0.00026	8e-05	4
14583	-0.0001	-1e-05	-1e-05	-3e-05	-0.00021	-3e-05	0.00014	-0.00019	4
14584	-0.0001	-1e-05	-1e-05	-3e-05	-0.00021	-3e-05	0.00014	-0.00019	4
14585	-0.0001	-1e-05	-1e-05	-3e-05	-0.00021	-3e-05	0.00014	-0.00019	4
14586	-0.0001	-1e-05	-1e-05	-3e-05	-0.00021	-3e-05	0.00014	-0.00019	4
14588	-0.0001	-1e-05	-1e-05	-3e-05	-0.00021	-3e-05	0.00014	-0.00019	4
14589	-0.0001	-1e-05	-1e-05	-3e-05	-0.00021	-3e-05	0.00014	-0.00019	4
14590	-0.0001	-1e-05	-1e-05	-3e-05	-0.00021	-3e-05	0.00014	-0.00019	4
14591	7e-05	5e-05	8e-05	-9e-05	0.00024	0.00023	-2e-05	-6e-05	4
14592	7e-05	5e-05	8e-05	-9e-05	0.00024	0.00023	-2e-05	-6e-05	4
14593	7e-05	5e-05	8e-05	-9e-05	0.00024	0.00023	-2e-05	-6e-05	4
14594	7e-05	5e-05	8e-05	-9e-05	0.00024	0.00023	-2e-05	-6e-05	4
14595	7e-05	5e-05	8e-05	-9e-05	0.00024	0.00023	-2e-05	-6e-05	4
14596	7e-05	5e-05	8e-05	-9e-05	0.00024	0.00023	-2e-05	-6e-05	4
14597	7e-05	5e-05	8e-05	-9e-05	0.00024	0.00023	-2e-05	-6e-05	4
14598	7e-05	5e-05	8e-05	-9e-05	0.00024	0.00023	-2e-05	-6e-05	4
14599	7e-05	5e-05	8e-05	-9e-05	0.00024	0.00023	-2e-05	-6e-05	4
14600	7e-05	5e-05	8e-05	-9e-05	0.00024	0.00023	-2e-05	-6e-05	4
14601	7e-05	5e-05	8e-05	-9e-05	0.00024	0.00023	-2e-05	-6e-05	4
14602	7e-05	5e-05	8e-05	-9e-05	0.00024	0.00023	-2e-05	-6e-05	4
14603	7e-05	5e-05	8e-05	-9e-05	0.00024	0.00023	-2e-05	-6e-05	4
14604	7e-05	5e-05	8e-05	-9e-05	0.00024	0.00023	-2e-05	-6e-05	4
14605	7e-05	5e-05	8e-05	-9e-05	0.00024	0.00023	-2e-05	-6e-05	4
14606	7e-05	5e-05	8e-05	-9e-05	0.00024	0.00023	-2e-05	-6e-05	4
14607	8e-05	2e-05	0.00013	0.00023	-0.0003	-4e-05	0.00027	0.00029	4
14608	0	9e-05	7e-05	-0.00071	-0.00124	-0.00081	7e-05	3e-05	4
14609	0	9e-05	7e-05	-0.00071	-0.00124	-0.00081	7e-05	3e-05	4
14610	0	9e-05	7e-05	-0.00071	-0.00124	-0.00081	7e-05	3e-05	4
14611	0	9e-05	7e-05	-0.00071	-0.00124	-0.00081	7e-05	3e-05	4
14612	0	9e-05	7e-05	-0.00071	-0.00124	-0.00081	7e-05	3e-05	4
14613	0	9e-05	7e-05	-0.00071	-0.00124	-0.00081	7e-05	3e-05	4
14614	0	9e-05	7e-05	-0.00071	-0.00124	-0.00081	7e-05	3e-05	4
14615	0	9e-05	7e-05	-0.00071	-0.00124	-0.00081	7e-05	3e-05	4
14616	0	9e-05	7e-05	-0.00071	-0.00124	-0.00081	7e-05	3e-05	4
14617	0	9e-05	7e-05	-0.00071	-0.00124	-0.00081	7e-05	3e-05	4
14618	0	9e-05	7e-05	-0.00071	-0.00124	-0.00081	7e-05	3e-05	4
14619	0	9e-05	7e-05	-0.00071	-0.00124	-0.00081	7e-05	3e-05	4
14620	0	9e-05	7e-05	-0.00071	-0.00124	-0.00081	7e-05	3e-05	4
14621	0	9e-05	7e-05	-0.00071	-0.00124	-0.00081	7e-05	3e-05	4
14622	0	9e-05	7e-05	-0.00071	-0.00124	-0.00081	7e-05	3e-05	4
14623	0	9e-05	7e-05	-0.00071	-0.00124	-0.00081	7e-05	3e-05	4
14624	0	9e-05	7e-05	-0.00071	-0.00124	-0.00081	7e-05	3e-05	4
14625	0	9e-05	7e-05	-0.00071	-0.00124	-0.00081	7e-05	3e-05	4
14626	0	9e-05	7e-05	-0.00071	-0.00124	-0.00081	7e-05	3e-05	4
14627	0	9e-05	7e-05	-0.00071	-0.00124	-0.00081	7e-05	3e-05	4
14628	0	9e-05	7e-05	-0.00071	-0.00124	-0.00081	7e-05	3e-05	4
14629	0	9e-05	7e-05	-0.00071	-0.00124	-0.00081	7e-05	3e-05	4
14630	0	9e-05	7e-05	-0.00071	-0.00124	-0.00081	7e-05	3e-05	4
14631	0	9e-05	7e-05	-0.00071	-0.00124	-0.00081	7e-05	3e-05	4
14632	0	9e-05	7e-05	-0.00071	-0.00124	-0.00081	7e-05	3e-05	4
14633	0	9e-05	7e-05	-0.00071	-0.00124	-0.00081	7e-05	3e-05	4
14634	0	9e-05	7e-05	-0.00071	-0.00124	-0.00081	7e-05	3e-05	4
14635	0	9e-05	7e-05	-0.00071	-0.00124	-0.00081	7e-05	3e-05	4
14636	7e-05	0.00014	0.0002	8e-05	0.00038	0.00058	0.00048	3e-05	4
14638	0.00013	7e-05	-9e-05	0.00043	0.00039	0.00025	0.00036	0.00016	4
14639	0.00013	7e-05	-9e-05	0.00043	0.00039	0.00025	0.00036	0.00016	4
14640	0.00013	7e-05	-9e-05	0.00043	0.00039	0.00025	0.00036	0.00016	4
14641	0.00013	7e-05	-9e-05	0.00043	0.00039	0.00025	0.00036	0.00016	4
14642	-0.00023	-0.00026	-0.00033	-0.0006	-0.00069	-0.00128	-0.00057	-0.00026	4
14643	-0.00023	-0.00026	-0.00033	-0.0006	-0.00069	-0.00128	-0.00057	-0.00026	4
14644	-0.00023	-0.00026	-0.00033	-0.0006	-0.00069	-0.00128	-0.00057	-0.00026	4
14645	-0.00023	-0.00026	-0.00033	-0.0006	-0.00069	-0.00128	-0.00057	-0.00026	4
14646	-0.00023	-0.00026	-0.00033	-0.0006	-0.00069	-0.00128	-0.00057	-0.00026	4
14647	-0.00023	-0.00026	-0.00033	-0.0006	-0.00069	-0.00128	-0.00057	-0.00026	4
14648	-0.00023	-0.00026	-0.00033	-0.0006	-0.00069	-0.00128	-0.00057	-0.00026	4
14649	-0.00023	-0.00026	-0.00033	-0.0006	-0.00069	-0.00128	-0.00057	-0.00026	4
14650	-0.00023	-0.00026	-0.00033	-0.0006	-0.00069	-0.00128	-0.00057	-0.00026	4
14651	-3e-05	2e-05	8e-05	0.00018	-6e-05	-0.001	-1e-05	1e-05	4
14652	-3e-05	2e-05	8e-05	0.00018	-6e-05	-0.001	-1e-05	1e-05	4
14653	-3e-05	2e-05	8e-05	0.00018	-6e-05	-0.001	-1e-05	1e-05	4
14654	-3e-05	2e-05	8e-05	0.00018	-6e-05	-0.001	-1e-05	1e-05	4
14655	-3e-05	2e-05	8e-05	0.00018	-6e-05	-0.001	-1e-05	1e-05	4
14656	-3e-05	2e-05	8e-05	0.00018	-6e-05	-0.001	-1e-05	1e-05	4
14657	-3e-05	2e-05	8e-05	0.00018	-6e-05	-0.001	-1e-05	1e-05	4
14658	-3e-05	2e-05	8e-05	0.00018	-6e-05	-0.001	-1e-05	1e-05	4
14659	-3e-05	2e-05	8e-05	0.00018	-6e-05	-0.001	-1e-05	1e-05	4
14660	-3e-05	2e-05	8e-05	0.00018	-6e-05	-0.001	-1e-05	1e-05	4
14661	-3e-05	2e-05	8e-05	0.00018	-6e-05	-0.001	-1e-05	1e-05	4
14662	-3e-05	2e-05	8e-05	0.00018	-6e-05	-0.001	-1e-05	1e-05	4
14663	-3e-05	2e-05	8e-05	0.00018	-6e-05	-0.001	-1e-05	1e-05	4
14664	-3e-05	2e-05	8e-05	0.00018	-6e-05	-0.001	-1e-05	1e-05	4
14665	-3e-05	2e-05	8e-05	0.00018	-6e-05	-0.001	-1e-05	1e-05	4
14666	-3e-05	2e-05	8e-05	0.00018	-6e-05	-0.001	-1e-05	1e-05	4
14667	-3e-05	2e-05	8e-05	0.00018	-6e-05	-0.001	-1e-05	1e-05	4
14668	-3e-05	2e-05	8e-05	0.00018	-6e-05	-0.001	-1e-05	1e-05	4
14669	-3e-05	2e-05	8e-05	0.00018	-6e-05	-0.001	-1e-05	1e-05	4
14670	-3e-05	2e-05	8e-05	0.00018	-6e-05	-0.001	-1e-05	1e-05	4
14671	-3e-05	2e-05	8e-05	0.00018	-6e-05	-0.001	-1e-05	1e-05	4
14672	-1e-05	4e-05	0.00013	0.00054	0.00012	-0.00059	-6e-05	0.00014	4
14673	-8e-05	-2e-05	-0.00014	-0.00051	-0.00024	0.00015	-0.00012	8e-05	4
14674	-8e-05	-2e-05	-0.00014	-0.00051	-0.00024	0.00015	-0.00012	8e-05	4
14675	-8e-05	-2e-05	-0.00014	-0.00051	-0.00024	0.00015	-0.00012	8e-05	4
14676	-8e-05	-2e-05	-0.00014	-0.00051	-0.00024	0.00015	-0.00012	8e-05	4
14677	-8e-05	-2e-05	-0.00014	-0.00051	-0.00024	0.00015	-0.00012	8e-05	4
14678	-8e-05	-2e-05	-0.00014	-0.00051	-0.00024	0.00015	-0.00012	8e-05	4
14679	-8e-05	-2e-05	-0.00014	-0.00051	-0.00024	0.00015	-0.00012	8e-05	4
14680	-8e-05	-2e-05	-0.00014	-0.00051	-0.00024	0.00015	-0.00012	8e-05	4
14681	-6e-05	-8e-05	-2e-05	0.00017	-0.00025	0.0001	0.00031	-0.00017	4
14682	-6e-05	-8e-05	-2e-05	0.00017	-0.00025	0.0001	0.00031	-0.00017	4
14683	-6e-05	-8e-05	-2e-05	0.00017	-0.00025	0.0001	0.00031	-0.00017	4
14684	-6e-05	-8e-05	-2e-05	0.00017	-0.00025	0.0001	0.00031	-0.00017	4
14685	-6e-05	-8e-05	-2e-05	0.00017	-0.00025	0.0001	0.00031	-0.00017	4
14686	-6e-05	-8e-05	-2e-05	0.00017	-0.00025	0.0001	0.00031	-0.00017	4
14688	-6e-05	-8e-05	-2e-05	0.00017	-0.00025	0.0001	0.00031	-0.00017	4
14689	-3e-05	3e-05	0.00015	0.00019	-0.00031	0.00063	4e-05	0.00021	4
14690	-4e-05	1e-05	6e-05	-0.0001	-0.0006	-0.00075	0.00012	-0.00015	4
14691	-4e-05	1e-05	6e-05	-0.0001	-0.0006	-0.00075	0.00012	-0.00015	4
14692	-4e-05	1e-05	6e-05	-0.0001	-0.0006	-0.00075	0.00012	-0.00015	4
14693	-4e-05	1e-05	6e-05	-0.0001	-0.0006	-0.00075	0.00012	-0.00015	4
14694	-4e-05	1e-05	6e-05	-0.0001	-0.0006	-0.00075	0.00012	-0.00015	4
14695	-4e-05	1e-05	6e-05	-0.0001	-0.0006	-0.00075	0.00012	-0.00015	4
14696	-4e-05	1e-05	6e-05	-0.0001	-0.0006	-0.00075	0.00012	-0.00015	4
14697	-4e-05	1e-05	6e-05	-0.0001	-0.0006	-0.00075	0.00012	-0.00015	4
14698	-4e-05	1e-05	6e-05	-0.0001	-0.0006	-0.00075	0.00012	-0.00015	4
14699	-4e-05	1e-05	6e-05	-0.0001	-0.0006	-0.00075	0.00012	-0.00015	4
14700	-4e-05	1e-05	6e-05	-0.0001	-0.0006	-0.00075	0.00012	-0.00015	4
14701	-4e-05	1e-05	6e-05	-0.0001	-0.0006	-0.00075	0.00012	-0.00015	4
14702	-4e-05	-2e-05	-4e-05	-0.00042	1e-05	0.00036	0.00013	-0.00029	4
14703	-4e-05	-2e-05	-4e-05	-0.00042	1e-05	0.00036	0.00013	-0.00029	4
14704	-4e-05	-2e-05	-4e-05	-0.00042	1e-05	0.00036	0.00013	-0.00029	4
14705	-4e-05	-2e-05	-4e-05	-0.00042	1e-05	0.00036	0.00013	-0.00029	4
14706	-4e-05	-2e-05	-4e-05	-0.00042	1e-05	0.00036	0.00013	-0.00029	4
14707	-4e-05	-2e-05	-4e-05	-0.00042	1e-05	0.00036	0.00013	-0.00029	4
14708	-4e-05	-2e-05	-4e-05	-0.00042	1e-05	0.00036	0.00013	-0.00029	4
14709	-4e-05	-2e-05	-4e-05	-0.00042	1e-05	0.00036	0.00013	-0.00029	4
14710	-4e-05	-2e-05	-4e-05	-0.00042	1e-05	0.00036	0.00013	-0.00029	4
14711	-4e-05	-2e-05	-4e-05	-0.00042	1e-05	0.00036	0.00013	-0.00029	4
14712	-4e-05	-2e-05	-4e-05	-0.00042	1e-05	0.00036	0.00013	-0.00029	4
14713	-4e-05	-2e-05	-4e-05	-0.00042	1e-05	0.00036	0.00013	-0.00029	4
14714	-4e-05	-2e-05	-4e-05	-0.00042	1e-05	0.00036	0.00013	-0.00029	4
14715	-4e-05	-2e-05	-4e-05	-0.00042	1e-05	0.00036	0.00013	-0.00029	4
14716	-4e-05	-2e-05	-4e-05	-0.00042	1e-05	0.00036	0.00013	-0.00029	4
14717	-4e-05	-2e-05	-4e-05	-0.00042	1e-05	0.00036	0.00013	-0.00029	4
14718	-4e-05	-2e-05	-4e-05	-0.00042	1e-05	0.00036	0.00013	-0.00029	4
14719	-4e-05	-2e-05	-4e-05	-0.00042	1e-05	0.00036	0.00013	-0.00029	4
14720	-4e-05	-2e-05	-4e-05	-0.00042	1e-05	0.00036	0.00013	-0.00029	4
14721	-4e-05	-2e-05	-4e-05	-0.00042	1e-05	0.00036	0.00013	-0.00029	4
14722	-4e-05	-2e-05	-4e-05	-0.00042	1e-05	0.00036	0.00013	-0.00029	4
14723	-4e-05	-2e-05	-4e-05	-0.00042	1e-05	0.00036	0.00013	-0.00029	4
14724	-4e-05	-2e-05	-4e-05	-0.00042	1e-05	0.00036	0.00013	-0.00029	4
14725	-4e-05	-2e-05	-4e-05	-0.00042	1e-05	0.00036	0.00013	-0.00029	4
14726	-4e-05	-2e-05	-4e-05	-0.00042	1e-05	0.00036	0.00013	-0.00029	4
14727	5e-05	2e-05	2e-05	0.00049	0.0011	-0.00096	-0.00071	-2e-05	4
14728	6e-05	1e-05	-8e-05	-0.00064	-0.00047	0.00067	0.00036	0.00021	4
14729	5e-05	-8e-05	-5e-05	0.00027	0.00039	-0.00063	-5e-05	0.00013	4
14730	5e-05	-8e-05	-5e-05	0.00027	0.00039	-0.00063	-5e-05	0.00013	4
14731	5e-05	-8e-05	-5e-05	0.00027	0.00039	-0.00063	-5e-05	0.00013	4
14732	-0.00011	-0.0001	-5e-05	0.00043	0.0002	-0.00082	-0.00041	-0.00012	4
14733	-0.00011	-0.0001	-5e-05	0.00043	0.0002	-0.00082	-0.00041	-0.00012	4
14734	-0.00011	-0.0001	-5e-05	0.00043	0.0002	-0.00082	-0.00041	-0.00012	4
14735	-0.00011	-0.0001	-5e-05	0.00043	0.0002	-0.00082	-0.00041	-0.00012	4
14736	-0.00011	-0.0001	-5e-05	0.00043	0.0002	-0.00082	-0.00041	-0.00012	4
14738	-0.00011	-0.0001	-5e-05	0.00043	0.0002	-0.00082	-0.00041	-0.00012	4
14739	-0.00011	-0.0001	-5e-05	0.00043	0.0002	-0.00082	-0.00041	-0.00012	4
14740	-0.00011	-0.0001	-5e-05	0.00043	0.0002	-0.00082	-0.00041	-0.00012	4
14741	-0.00011	-0.0001	-5e-05	0.00043	0.0002	-0.00082	-0.00041	-0.00012	4
14742	-0.00011	-0.0001	-5e-05	0.00043	0.0002	-0.00082	-0.00041	-0.00012	4
14743	-0.00011	-0.0001	-5e-05	0.00043	0.0002	-0.00082	-0.00041	-0.00012	4
14744	-0.00011	-0.0001	-5e-05	0.00043	0.0002	-0.00082	-0.00041	-0.00012	4
14745	-0.00011	-0.0001	-5e-05	0.00043	0.0002	-0.00082	-0.00041	-0.00012	4
14747	-0.00011	-0.0001	-5e-05	0.00043	0.0002	-0.00082	-0.00041	-0.00012	4
14748	6e-05	0	-3e-05	-0.0004	0.00017	-0.00051	-0.00016	-7e-05	4
14749	6e-05	3e-05	4e-05	0.00011	-0.00057	-0.00061	-0.00032	-2e-05	4
14750	-4e-05	-7e-05	-0.00012	0.00029	0.00114	3e-05	0.0002	6e-05	4
14751	-4e-05	-7e-05	-0.00012	0.00029	0.00114	3e-05	0.0002	6e-05	4
14752	-4e-05	-7e-05	-0.00012	0.00029	0.00114	3e-05	0.0002	6e-05	4
14753	-4e-05	-7e-05	-0.00012	0.00029	0.00114	3e-05	0.0002	6e-05	4
14754	-4e-05	-7e-05	-0.00012	0.00029	0.00114	3e-05	0.0002	6e-05	4
14755	-4e-05	-7e-05	-0.00012	0.00029	0.00114	3e-05	0.0002	6e-05	4
14756	-4e-05	-7e-05	-0.00012	0.00029	0.00114	3e-05	0.0002	6e-05	4
14757	-4e-05	-7e-05	-0.00012	0.00029	0.00114	3e-05	0.0002	6e-05	4
14758	-4e-05	-7e-05	-0.00012	0.00029	0.00114	3e-05	0.0002	6e-05	4
14759	-4e-05	-7e-05	-0.00012	0.00029	0.00114	3e-05	0.0002	6e-05	4
14760	-4e-05	-7e-05	-0.00012	0.00029	0.00114	3e-05	0.0002	6e-05	4
14761	-4e-05	-7e-05	-0.00012	0.00029	0.00114	3e-05	0.0002	6e-05	4
14762	-4e-05	-7e-05	-0.00012	0.00029	0.00114	3e-05	0.0002	6e-05	4
14763	-4e-05	-7e-05	-0.00012	0.00029	0.00114	3e-05	0.0002	6e-05	4
14764	-4e-05	-7e-05	-0.00012	0.00029	0.00114	3e-05	0.0002	6e-05	4
14765	-4e-05	-7e-05	-0.00012	0.00029	0.00114	3e-05	0.0002	6e-05	4
14766	-4e-05	-7e-05	-0.00012	0.00029	0.00114	3e-05	0.0002	6e-05	4
14767	-4e-05	-7e-05	-0.00012	0.00029	0.00114	3e-05	0.0002	6e-05	4
14768	-4e-05	-7e-05	-0.00012	0.00029	0.00114	3e-05	0.0002	6e-05	4
14769	-4e-05	-7e-05	-0.00012	0.00029	0.00114	3e-05	0.0002	6e-05	4
14770	-4e-05	-7e-05	-0.00012	0.00029	0.00114	3e-05	0.0002	6e-05	4
14771	5e-05	9e-05	0.00011	0.00056	8e-05	-1e-05	-5e-05	9e-05	4
14772	0	0	0.00019	0.00052	0.00092	0.0008	6e-05	-7e-05	4
14774	0	0	0.00019	0.00052	0.00092	0.0008	6e-05	-7e-05	4
14775	0	0	0.00019	0.00052	0.00092	0.0008	6e-05	-7e-05	4
14776	0	0	0.00019	0.00052	0.00092	0.0008	6e-05	-7e-05	4
14777	0	0	0.00019	0.00052	0.00092	0.0008	6e-05	-7e-05	4
14778	0	0	0.00019	0.00052	0.00092	0.0008	6e-05	-7e-05	4
14779	0	0	0.00019	0.00052	0.00092	0.0008	6e-05	-7e-05	4
14780	0	0	0.00019	0.00052	0.00092	0.0008	6e-05	-7e-05	4
14781	0	0	0.00019	0.00052	0.00092	0.0008	6e-05	-7e-05	4
14782	0	0	0.00019	0.00052	0.00092	0.0008	6e-05	-7e-05	4
14783	0	0	0.00019	0.00052	0.00092	0.0008	6e-05	-7e-05	4
14784	0	0	0.00019	0.00052	0.00092	0.0008	6e-05	-7e-05	4
14785	0	0	0.00019	0.00052	0.00092	0.0008	6e-05	-7e-05	4
14786	-4e-05	-8e-05	-0.0001	0.00025	0	-0.00098	-0.00013	2e-05	4
14789	7e-05	0.00014	7e-05	-0.00023	-0.00018	-0.00014	-9e-05	2e-05	4
14790	7e-05	0.00014	7e-05	-0.00023	-0.00018	-0.00014	-9e-05	2e-05	4
14791	7e-05	0.00014	7e-05	-0.00023	-0.00018	-0.00014	-9e-05	2e-05	4
14792	7e-05	0.00014	7e-05	-0.00023	-0.00018	-0.00014	-9e-05	2e-05	4
14793	7e-05	0.00014	7e-05	-0.00023	-0.00018	-0.00014	-9e-05	2e-05	4
14794	7e-05	0.00014	7e-05	-0.00023	-0.00018	-0.00014	-9e-05	2e-05	4
14795	7e-05	0.00014	7e-05	-0.00023	-0.00018	-0.00014	-9e-05	2e-05	4
14796	7e-05	0.00014	7e-05	-0.00023	-0.00018	-0.00014	-9e-05	2e-05	4
14797	7e-05	0.00014	7e-05	-0.00023	-0.00018	-0.00014	-9e-05	2e-05	4
14798	7e-05	0.00014	7e-05	-0.00023	-0.00018	-0.00014	-9e-05	2e-05	4
14799	7e-05	0.00014	7e-05	-0.00023	-0.00018	-0.00014	-9e-05	2e-05	4
14800	7e-05	0.00014	7e-05	-0.00023	-0.00018	-0.00014	-9e-05	2e-05	4
14801	7e-05	0.00014	7e-05	-0.00023	-0.00018	-0.00014	-9e-05	2e-05	4
14802	7e-05	0.00014	7e-05	-0.00023	-0.00018	-0.00014	-9e-05	2e-05	4
14803	7e-05	0.00014	7e-05	-0.00023	-0.00018	-0.00014	-9e-05	2e-05	4
14804	7e-05	0.00014	7e-05	-0.00023	-0.00018	-0.00014	-9e-05	2e-05	4
14805	7e-05	0.00014	7e-05	-0.00023	-0.00018	-0.00014	-9e-05	2e-05	4
14806	7e-05	0.00014	7e-05	-0.00023	-0.00018	-0.00014	-9e-05	2e-05	4
14807	7e-05	0.00014	7e-05	-0.00023	-0.00018	-0.00014	-9e-05	2e-05	4
14808	7e-05	0.00014	7e-05	-0.00023	-0.00018	-0.00014	-9e-05	2e-05	4
14809	0	-7e-05	-0.00016	-0.00092	-0.00102	-0.0008	-0.00018	7e-05	4
14810	0	-2e-05	-8e-05	-0.00043	-0.0006	0.00047	-6e-05	-2e-05	4
14811	0	-2e-05	-8e-05	-0.00043	-0.0006	0.00047	-6e-05	-2e-05	4
14812	0	-2e-05	-8e-05	-0.00043	-0.0006	0.00047	-6e-05	-2e-05	4
14813	0	-2e-05	-8e-05	-0.00043	-0.0006	0.00047	-6e-05	-2e-05	4
14814	0	-2e-05	-8e-05	-0.00043	-0.0006	0.00047	-6e-05	-2e-05	4
14815	0	-2e-05	-8e-05	-0.00043	-0.0006	0.00047	-6e-05	-2e-05	4
14816	0	-2e-05	-8e-05	-0.00043	-0.0006	0.00047	-6e-05	-2e-05	4
14817	0	-2e-05	-8e-05	-0.00043	-0.0006	0.00047	-6e-05	-2e-05	4
14818	0	-2e-05	-8e-05	-0.00043	-0.0006	0.00047	-6e-05	-2e-05	4
14819	0	-2e-05	-8e-05	-0.00043	-0.0006	0.00047	-6e-05	-2e-05	4
14820	0	-2e-05	-8e-05	-0.00043	-0.0006	0.00047	-6e-05	-2e-05	4
14821	0	-2e-05	-8e-05	-0.00043	-0.0006	0.00047	-6e-05	-2e-05	4
14822	-4e-05	-4e-05	-7e-05	-0.00061	-0.00019	0.00048	0.00025	1e-05	4
14823	-4e-05	-4e-05	-7e-05	-0.00061	-0.00019	0.00048	0.00025	1e-05	4
14824	-4e-05	-4e-05	-7e-05	-0.00061	-0.00019	0.00048	0.00025	1e-05	4
14825	-4e-05	-4e-05	-7e-05	-0.00061	-0.00019	0.00048	0.00025	1e-05	4
14826	-4e-05	-4e-05	-7e-05	-0.00061	-0.00019	0.00048	0.00025	1e-05	4
14827	-4e-05	-4e-05	-7e-05	-0.00061	-0.00019	0.00048	0.00025	1e-05	4
14828	-4e-05	-4e-05	-7e-05	-0.00061	-0.00019	0.00048	0.00025	1e-05	4
14829	-4e-05	-4e-05	-7e-05	-0.00061	-0.00019	0.00048	0.00025	1e-05	4
14830	-4e-05	-4e-05	-7e-05	-0.00061	-0.00019	0.00048	0.00025	1e-05	4
14831	-9e-05	-0.00016	-0.00028	-0.00014	-3e-05	-0.0005	-6e-05	4e-05	4
14832	-9e-05	-0.00016	-0.00028	-0.00014	-3e-05	-0.0005	-6e-05	4e-05	4
14833	-9e-05	-0.00016	-0.00028	-0.00014	-3e-05	-0.0005	-6e-05	4e-05	4
14834	-9e-05	-0.00016	-0.00028	-0.00014	-3e-05	-0.0005	-6e-05	4e-05	4
14835	-9e-05	-0.00016	-0.00028	-0.00014	-3e-05	-0.0005	-6e-05	4e-05	4
14836	-9e-05	-0.00016	-0.00028	-0.00014	-3e-05	-0.0005	-6e-05	4e-05	4
14838	-9e-05	-0.00016	-0.00028	-0.00014	-3e-05	-0.0005	-6e-05	4e-05	4
14839	-9e-05	-0.00016	-0.00028	-0.00014	-3e-05	-0.0005	-6e-05	4e-05	4
14840	-9e-05	-0.00016	-0.00028	-0.00014	-3e-05	-0.0005	-6e-05	4e-05	4
14841	-9e-05	-0.00016	-0.00028	-0.00014	-3e-05	-0.0005	-6e-05	4e-05	4
14842	-9e-05	-0.00016	-0.00028	-0.00014	-3e-05	-0.0005	-6e-05	4e-05	4
14843	-9e-05	-0.00016	-0.00028	-0.00014	-3e-05	-0.0005	-6e-05	4e-05	4
14844	-9e-05	-0.00016	-0.00028	-0.00014	-3e-05	-0.0005	-6e-05	4e-05	4
14845	-9e-05	-0.00016	-0.00028	-0.00014	-3e-05	-0.0005	-6e-05	4e-05	4
14846	-9e-05	-0.00016	-0.00028	-0.00014	-3e-05	-0.0005	-6e-05	4e-05	4
14847	-9e-05	-0.00016	-0.00028	-0.00014	-3e-05	-0.0005	-6e-05	4e-05	4
14848	-9e-05	-0.00016	-0.00028	-0.00014	-3e-05	-0.0005	-6e-05	4e-05	4
14849	-9e-05	-0.00016	-0.00028	-0.00014	-3e-05	-0.0005	-6e-05	4e-05	4
14850	-9e-05	-0.00016	-0.00028	-0.00014	-3e-05	-0.0005	-6e-05	4e-05	4
14851	-9e-05	-0.00016	-0.00028	-0.00014	-3e-05	-0.0005	-6e-05	4e-05	4
14852	-9e-05	-0.00016	-0.00028	-0.00014	-3e-05	-0.0005	-6e-05	4e-05	4
14853	4e-05	-0.0002	-0.00017	0.0003	-0.00011	0.00058	0.00013	0.00038	4
14854	4e-05	4e-05	-9e-05	-0.00094	-0.00048	-0.00049	0.00023	-0.00012	4
14855	-5e-05	-0.00013	-0.0001	-0.00057	-0.00043	-0.00034	-0.00065	-0.00015	4
14856	-5e-05	-0.00013	-0.0001	-0.00057	-0.00043	-0.00034	-0.00065	-0.00015	4
14857	-5e-05	-0.00013	-0.0001	-0.00057	-0.00043	-0.00034	-0.00065	-0.00015	4
14858	-5e-05	-0.00013	-0.0001	-0.00057	-0.00043	-0.00034	-0.00065	-0.00015	4
14859	-5e-05	-0.00013	-0.0001	-0.00057	-0.00043	-0.00034	-0.00065	-0.00015	4
14860	-5e-05	-0.00013	-0.0001	-0.00057	-0.00043	-0.00034	-0.00065	-0.00015	4
14861	-5e-05	-0.00013	-0.0001	-0.00057	-0.00043	-0.00034	-0.00065	-0.00015	4
14862	-5e-05	-0.00013	-0.0001	-0.00057	-0.00043	-0.00034	-0.00065	-0.00015	4
14863	-5e-05	-0.00013	-0.0001	-0.00057	-0.00043	-0.00034	-0.00065	-0.00015	4
14864	-5e-05	-0.00013	-0.0001	-0.00057	-0.00043	-0.00034	-0.00065	-0.00015	4
14865	-5e-05	-0.00013	-0.0001	-0.00057	-0.00043	-0.00034	-0.00065	-0.00015	4
14866	-5e-05	-0.00013	-0.0001	-0.00057	-0.00043	-0.00034	-0.00065	-0.00015	4
14867	-5e-05	-0.00013	-0.0001	-0.00057	-0.00043	-0.00034	-0.00065	-0.00015	4
14868	-2e-05	9e-05	1e-05	0.00012	0.00028	0.00073	0.00014	-2e-05	4
14869	-2e-05	9e-05	1e-05	0.00012	0.00028	0.00073	0.00014	-2e-05	4
14870	-4e-05	-6e-05	-4e-05	0.00011	0.00092	-0.00055	-0.00031	-0.00032	4
14871	-4e-05	-6e-05	-4e-05	0.00011	0.00092	-0.00055	-0.00031	-0.00032	4
14872	-4e-05	-6e-05	-4e-05	0.00011	0.00092	-0.00055	-0.00031	-0.00032	4
14873	-4e-05	-6e-05	-4e-05	0.00011	0.00092	-0.00055	-0.00031	-0.00032	4
14874	-4e-05	-6e-05	-4e-05	0.00011	0.00092	-0.00055	-0.00031	-0.00032	4
14875	-4e-05	-6e-05	-4e-05	0.00011	0.00092	-0.00055	-0.00031	-0.00032	4
14876	-4e-05	-6e-05	-4e-05	0.00011	0.00092	-0.00055	-0.00031	-0.00032	4
14877	-4e-05	-6e-05	-4e-05	0.00011	0.00092	-0.00055	-0.00031	-0.00032	4
14878	-4e-05	-6e-05	-4e-05	0.00011	0.00092	-0.00055	-0.00031	-0.00032	4
14879	-4e-05	-6e-05	-4e-05	0.00011	0.00092	-0.00055	-0.00031	-0.00032	4
14880	-4e-05	-6e-05	-4e-05	0.00011	0.00092	-0.00055	-0.00031	-0.00032	4
14881	-4e-05	-6e-05	-4e-05	0.00011	0.00092	-0.00055	-0.00031	-0.00032	4
14882	0.0001	7e-05	0.00019	0.00024	0.00119	0.00055	0.00034	0.00018	4
14883	0.0001	7e-05	0.00019	0.00024	0.00119	0.00055	0.00034	0.00018	4
14884	0.0001	7e-05	0.00019	0.00024	0.00119	0.00055	0.00034	0.00018	4
14885	0.0001	7e-05	0.00019	0.00024	0.00119	0.00055	0.00034	0.00018	4
14886	0.0001	7e-05	0.00019	0.00024	0.00119	0.00055	0.00034	0.00018	4
14888	0.0001	7e-05	0.00019	0.00024	0.00119	0.00055	0.00034	0.00018	4
14889	0.0001	7e-05	0.00019	0.00024	0.00119	0.00055	0.00034	0.00018	4
14890	0.0001	7e-05	0.00019	0.00024	0.00119	0.00055	0.00034	0.00018	4
14891	0.0001	7e-05	0.00019	0.00024	0.00119	0.00055	0.00034	0.00018	4
14892	-2e-05	-2e-05	0.0001	5e-05	0.00085	0.00072	0.00019	5e-05	4
14893	-2e-05	-2e-05	0.0001	5e-05	0.00085	0.00072	0.00019	5e-05	4
14894	-2e-05	-2e-05	0.0001	5e-05	0.00085	0.00072	0.00019	5e-05	4
14895	-2e-05	-2e-05	0.0001	5e-05	0.00085	0.00072	0.00019	5e-05	4
14896	-2e-05	-2e-05	0.0001	5e-05	0.00085	0.00072	0.00019	5e-05	4
14897	-2e-05	-2e-05	0.0001	5e-05	0.00085	0.00072	0.00019	5e-05	4
14898	-2e-05	-2e-05	0.0001	5e-05	0.00085	0.00072	0.00019	5e-05	4
14899	-2e-05	-2e-05	0.0001	5e-05	0.00085	0.00072	0.00019	5e-05	4
14900	-2e-05	-2e-05	0.0001	5e-05	0.00085	0.00072	0.00019	5e-05	4
14901	-2e-05	-2e-05	0.0001	5e-05	0.00085	0.00072	0.00019	5e-05	4
14902	-2e-05	-2e-05	0.0001	5e-05	0.00085	0.00072	0.00019	5e-05	4
14903	-2e-05	-2e-05	0.0001	5e-05	0.00085	0.00072	0.00019	5e-05	4
14905	5e-05	9e-05	0.00016	0.00052	3e-05	0.00096	0.00028	9e-05	4
14906	5e-05	9e-05	0.00016	0.00052	3e-05	0.00096	0.00028	9e-05	4
14907	5e-05	9e-05	0.00016	0.00052	3e-05	0.00096	0.00028	9e-05	4
14908	5e-05	9e-05	0.00016	0.00052	3e-05	0.00096	0.00028	9e-05	4
14909	5e-05	9e-05	0.00016	0.00052	3e-05	0.00096	0.00028	9e-05	4
14910	5e-05	9e-05	0.00016	0.00052	3e-05	0.00096	0.00028	9e-05	4
14911	5e-05	9e-05	0.00016	0.00052	3e-05	0.00096	0.00028	9e-05	4
14912	0.00013	7e-05	0.00014	0.0007	0.00081	-0.00022	-5e-05	0.00035	4
14913	0.00013	7e-05	0.00014	0.0007	0.00081	-0.00022	-5e-05	0.00035	4
14914	0.00013	7e-05	0.00014	0.0007	0.00081	-0.00022	-5e-05	0.00035	4
14915	0.00013	7e-05	0.00014	0.0007	0.00081	-0.00022	-5e-05	0.00035	4
14916	0.00013	7e-05	0.00014	0.0007	0.00081	-0.00022	-5e-05	0.00035	4
14917	0.00013	7e-05	0.00014	0.0007	0.00081	-0.00022	-5e-05	0.00035	4
14918	0.00013	7e-05	0.00014	0.0007	0.00081	-0.00022	-5e-05	0.00035	4
14919	0.00013	7e-05	0.00014	0.0007	0.00081	-0.00022	-5e-05	0.00035	4
14920	0.00013	7e-05	0.00014	0.0007	0.00081	-0.00022	-5e-05	0.00035	4
14921	0.00013	7e-05	0.00014	0.0007	0.00081	-0.00022	-5e-05	0.00035	4
14922	0.00013	7e-05	0.00014	0.0007	0.00081	-0.00022	-5e-05	0.00035	4
14923	0.00013	7e-05	0.00014	0.0007	0.00081	-0.00022	-5e-05	0.00035	4
14924	0.00013	7e-05	0.00014	0.0007	0.00081	-0.00022	-5e-05	0.00035	4
14925	0.00013	7e-05	0.00014	0.0007	0.00081	-0.00022	-5e-05	0.00035	4
14926	0.00013	7e-05	0.00014	0.0007	0.00081	-0.00022	-5e-05	0.00035	4
14927	0.00013	7e-05	0.00014	0.0007	0.00081	-0.00022	-5e-05	0.00035	4
14928	0.00011	-5e-05	-0.00019	0.00032	6e-05	-0.00049	-0.0002	-0.00017	4
14929	0.00011	-5e-05	-0.00019	0.00032	6e-05	-0.00049	-0.0002	-0.00017	4
14930	0	0.00011	0.0001	-0.0004	-0.00128	-9e-05	0.00051	0.00055	4
14931	0	0.00011	0.0001	-0.0004	-0.00128	-9e-05	0.00051	0.00055	4
14932	0	0.00011	0.0001	-0.0004	-0.00128	-9e-05	0.00051	0.00055	4
14933	0	0.00011	0.0001	-0.0004	-0.00128	-9e-05	0.00051	0.00055	4
14934	0	0.00011	0.0001	-0.0004	-0.00128	-9e-05	0.00051	0.00055	4
14935	0	0.00011	0.0001	-0.0004	-0.00128	-9e-05	0.00051	0.00055	4
14936	0	0.00011	0.0001	-0.0004	-0.00128	-9e-05	0.00051	0.00055	4
14938	0	0.00011	0.0001	-0.0004	-0.00128	-9e-05	0.00051	0.00055	4
14939	0	0.00011	0.0001	-0.0004	-0.00128	-9e-05	0.00051	0.00055	4
14940	0	0.00011	0.0001	-0.0004	-0.00128	-9e-05	0.00051	0.00055	4
14941	0	0.00011	0.0001	-0.0004	-0.00128	-9e-05	0.00051	0.00055	4
14942	0	0.00011	0.0001	-0.0004	-0.00128	-9e-05	0.00051	0.00055	4
14943	0	0.00011	0.0001	-0.0004	-0.00128	-9e-05	0.00051	0.00055	4
14944	0	0.00011	0.0001	-0.0004	-0.00128	-9e-05	0.00051	0.00055	4
14945	0	0.00011	0.0001	-0.0004	-0.00128	-9e-05	0.00051	0.00055	4
14946	0	0.00011	0.0001	-0.0004	-0.00128	-9e-05	0.00051	0.00055	4
14947	0	0.00011	0.0001	-0.0004	-0.00128	-9e-05	0.00051	0.00055	4
14948	0	0.00011	0.0001	-0.0004	-0.00128	-9e-05	0.00051	0.00055	4
14949	0	0.00011	0.0001	-0.0004	-0.00128	-9e-05	0.00051	0.00055	4
14950	0	0.00011	0.0001	-0.0004	-0.00128	-9e-05	0.00051	0.00055	4
14951	-0.00018	-0.00016	-0.00015	-0.00024	-0.00017	-0.00066	-0.00021	-0.00019	4
14952	-0.00018	-0.00016	-0.00015	-0.00024	-0.00017	-0.00066	-0.00021	-0.00019	4
14953	6e-05	3e-05	6e-05	0.00027	-0.00034	-8e-05	-0.00027	0.00016	4
14954	6e-05	3e-05	6e-05	0.00027	-0.00034	-8e-05	-0.00027	0.00016	4
14955	6e-05	3e-05	6e-05	0.00027	-0.00034	-8e-05	-0.00027	0.00016	4
14956	6e-05	3e-05	6e-05	0.00027	-0.00034	-8e-05	-0.00027	0.00016	4
14957	6e-05	3e-05	6e-05	0.00027	-0.00034	-8e-05	-0.00027	0.00016	4
14958	6e-05	3e-05	6e-05	0.00027	-0.00034	-8e-05	-0.00027	0.00016	4
14959	6e-05	3e-05	6e-05	0.00027	-0.00034	-8e-05	-0.00027	0.00016	4
14960	6e-05	3e-05	6e-05	0.00027	-0.00034	-8e-05	-0.00027	0.00016	4
14961	6e-05	3e-05	6e-05	0.00027	-0.00034	-8e-05	-0.00027	0.00016	4
14962	6e-05	3e-05	6e-05	0.00027	-0.00034	-8e-05	-0.00027	0.00016	4
14963	6e-05	3e-05	6e-05	0.00027	-0.00034	-8e-05	-0.00027	0.00016	4
14964	6e-05	3e-05	6e-05	0.00027	-0.00034	-8e-05	-0.00027	0.00016	4
14965	2e-05	2e-05	0.00012	0.00036	-0.00018	0.00016	7e-05	0.0001	4
14966	2e-05	2e-05	0.00012	0.00036	-0.00018	0.00016	7e-05	0.0001	4
14967	2e-05	2e-05	0.00012	0.00036	-0.00018	0.00016	7e-05	0.0001	4
14968	2e-05	2e-05	0.00012	0.00036	-0.00018	0.00016	7e-05	0.0001	4
14969	2e-05	2e-05	0.00012	0.00036	-0.00018	0.00016	7e-05	0.0001	4
14970	2e-05	2e-05	0.00012	0.00036	-0.00018	0.00016	7e-05	0.0001	4
14971	2e-05	2e-05	0.00012	0.00036	-0.00018	0.00016	7e-05	0.0001	4
14972	-7e-05	-5e-05	0	0.00024	-0.00039	-3e-05	4e-05	-0.00027	4
14973	-7e-05	-5e-05	0	0.00024	-0.00039	-3e-05	4e-05	-0.00027	4
14974	-7e-05	-5e-05	0	0.00024	-0.00039	-3e-05	4e-05	-0.00027	4
14975	-7e-05	-5e-05	0	0.00024	-0.00039	-3e-05	4e-05	-0.00027	4
14976	-7e-05	-5e-05	0	0.00024	-0.00039	-3e-05	4e-05	-0.00027	4
14977	-7e-05	-5e-05	0	0.00024	-0.00039	-3e-05	4e-05	-0.00027	4
14978	-7e-05	-5e-05	0	0.00024	-0.00039	-3e-05	4e-05	-0.00027	4
14979	-7e-05	-5e-05	0	0.00024	-0.00039	-3e-05	4e-05	-0.00027	4
14980	-7e-05	-5e-05	0	0.00024	-0.00039	-3e-05	4e-05	-0.00027	4
14981	-7e-05	-5e-05	0	0.00024	-0.00039	-3e-05	4e-05	-0.00027	4
14982	-7e-05	-5e-05	0	0.00024	-0.00039	-3e-05	4e-05	-0.00027	4
14983	-7e-05	-5e-05	0	0.00024	-0.00039	-3e-05	4e-05	-0.00027	4
14984	-7e-05	-5e-05	0	0.00024	-0.00039	-3e-05	4e-05	-0.00027	4
14985	-7e-05	-5e-05	0	0.00024	-0.00039	-3e-05	4e-05	-0.00027	4
14986	-7e-05	-5e-05	0	0.00024	-0.00039	-3e-05	4e-05	-0.00027	4
14988	-7e-05	-5e-05	0	0.00024	-0.00039	-3e-05	4e-05	-0.00027	4
14989	-7e-05	-5e-05	0	0.00024	-0.00039	-3e-05	4e-05	-0.00027	4
14990	-7e-05	-5e-05	0	0.00024	-0.00039	-3e-05	4e-05	-0.00027	4
14991	-7e-05	-5e-05	0	0.00024	-0.00039	-3e-05	4e-05	-0.00027	4
14992	-7e-05	-5e-05	0	0.00024	-0.00039	-3e-05	4e-05	-0.00027	4
14993	-7e-05	-5e-05	0	0.00024	-0.00039	-3e-05	4e-05	-0.00027	4
14994	-7e-05	-5e-05	0	0.00024	-0.00039	-3e-05	4e-05	-0.00027	4
14995	-7e-05	-5e-05	0	0.00024	-0.00039	-3e-05	4e-05	-0.00027	4
14996	-1e-05	-4e-05	4e-05	0.00043	0.00028	-0.00016	-6e-05	-1e-05	4
14998	4e-05	0.00012	0.0002	0.00041	0.00062	-0.00035	2e-05	-4e-05	4
14999	4e-05	0.00012	0.0002	0.00041	0.00062	-0.00035	2e-05	-4e-05	4
15000	4e-05	0.00012	0.0002	0.00041	0.00062	-0.00035	2e-05	-4e-05	4
15001	4e-05	0.00012	0.0002	0.00041	0.00062	-0.00035	2e-05	-4e-05	4
15002	1e-05	6e-05	8e-05	-0.00027	0.00015	0.00098	0.0005	0.00026	4
15003	1e-05	6e-05	8e-05	-0.00027	0.00015	0.00098	0.0005	0.00026	4
15004	1e-05	6e-05	8e-05	-0.00027	0.00015	0.00098	0.0005	0.00026	4
15005	1e-05	6e-05	8e-05	-0.00027	0.00015	0.00098	0.0005	0.00026	4
15006	1e-05	6e-05	8e-05	-0.00027	0.00015	0.00098	0.0005	0.00026	4
15007	1e-05	6e-05	8e-05	-0.00027	0.00015	0.00098	0.0005	0.00026	4
15008	1e-05	6e-05	8e-05	-0.00027	0.00015	0.00098	0.0005	0.00026	4
15009	1e-05	6e-05	8e-05	-0.00027	0.00015	0.00098	0.0005	0.00026	4
15010	1e-05	6e-05	8e-05	-0.00027	0.00015	0.00098	0.0005	0.00026	4
15011	-4e-05	-6e-05	-0.00027	-0.0008	-0.00065	0.00031	-9e-05	-0.00024	4
15012	-4e-05	-6e-05	-0.00027	-0.0008	-0.00065	0.00031	-9e-05	-0.00024	4
15013	-4e-05	-6e-05	-0.00027	-0.0008	-0.00065	0.00031	-9e-05	-0.00024	4
15014	-4e-05	-6e-05	-0.00027	-0.0008	-0.00065	0.00031	-9e-05	-0.00024	4
15015	-4e-05	-6e-05	-0.00027	-0.0008	-0.00065	0.00031	-9e-05	-0.00024	4
15016	-4e-05	-6e-05	-0.00027	-0.0008	-0.00065	0.00031	-9e-05	-0.00024	4
15017	-4e-05	-6e-05	-0.00027	-0.0008	-0.00065	0.00031	-9e-05	-0.00024	4
15018	-4e-05	-6e-05	-0.00027	-0.0008	-0.00065	0.00031	-9e-05	-0.00024	4
15019	-4e-05	-6e-05	-0.00027	-0.0008	-0.00065	0.00031	-9e-05	-0.00024	4
15020	-4e-05	-6e-05	-0.00027	-0.0008	-0.00065	0.00031	-9e-05	-0.00024	4
15021	-4e-05	-6e-05	-0.00027	-0.0008	-0.00065	0.00031	-9e-05	-0.00024	4
15022	-4e-05	-6e-05	-0.00027	-0.0008	-0.00065	0.00031	-9e-05	-0.00024	4
15023	-4e-05	-6e-05	-0.00027	-0.0008	-0.00065	0.00031	-9e-05	-0.00024	4
15024	-4e-05	-6e-05	-0.00027	-0.0008	-0.00065	0.00031	-9e-05	-0.00024	4
15025	-0.0001	-6e-05	0	0.00047	0.0001	-0.00033	0.00012	0	4
15026	-0.0001	-6e-05	0	0.00047	0.0001	-0.00033	0.00012	0	4
15027	-0.0001	-6e-05	0	0.00047	0.0001	-0.00033	0.00012	0	4
15028	-0.0001	-6e-05	0	0.00047	0.0001	-0.00033	0.00012	0	4
15029	-0.0001	-6e-05	0	0.00047	0.0001	-0.00033	0.00012	0	4
15030	-0.0001	-6e-05	0	0.00047	0.0001	-0.00033	0.00012	0	4
15031	-0.0001	-6e-05	0	0.00047	0.0001	-0.00033	0.00012	0	4
15033	-0.0001	-6e-05	0	0.00047	0.0001	-0.00033	0.00012	0	4
15034	-0.0001	-6e-05	0	0.00047	0.0001	-0.00033	0.00012	0	4
15035	-0.0001	-6e-05	0	0.00047	0.0001	-0.00033	0.00012	0	4
15036	-0.0001	-6e-05	0	0.00047	0.0001	-0.00033	0.00012	0	4
15038	-0.0001	-6e-05	0	0.00047	0.0001	-0.00033	0.00012	0	4
15039	-0.0001	-6e-05	0	0.00047	0.0001	-0.00033	0.00012	0	4
15040	0.00013	0.00019	0.00024	0.00052	-0.00081	-0.00018	8e-05	0.00011	4
15041	0.00013	0.00019	0.00024	0.00052	-0.00081	-0.00018	8e-05	0.00011	4
15042	0.00013	0.00019	0.00024	0.00052	-0.00081	-0.00018	8e-05	0.00011	4
15043	0.00013	0.00019	0.00024	0.00052	-0.00081	-0.00018	8e-05	0.00011	4
15044	0.00013	0.00019	0.00024	0.00052	-0.00081	-0.00018	8e-05	0.00011	4
15045	0.00013	0.00019	0.00024	0.00052	-0.00081	-0.00018	8e-05	0.00011	4
15046	0.00013	0.00019	0.00024	0.00052	-0.00081	-0.00018	8e-05	0.00011	4
15047	0.00013	0.00019	0.00024	0.00052	-0.00081	-0.00018	8e-05	0.00011	4
15048	-3e-05	-8e-05	0	0.00064	0.00013	0.00084	0.00018	-5e-05	4
15049	-4e-05	-5e-05	-0.00011	-0.0002	1e-05	0.00061	-0.00011	-0.00019	4
15050	4e-05	6e-05	6e-05	-0.00013	-3e-05	-6e-05	0.00031	0.00011	4
15051	4e-05	6e-05	6e-05	-0.00013	-3e-05	-6e-05	0.00031	0.00011	4
15052	4e-05	6e-05	6e-05	-0.00013	-3e-05	-6e-05	0.00031	0.00011	4
15053	4e-05	6e-05	6e-05	-0.00013	-3e-05	-6e-05	0.00031	0.00011	4
15054	4e-05	6e-05	6e-05	-0.00013	-3e-05	-6e-05	0.00031	0.00011	4
15055	4e-05	6e-05	6e-05	-0.00013	-3e-05	-6e-05	0.00031	0.00011	4
15056	4e-05	6e-05	6e-05	-0.00013	-3e-05	-6e-05	0.00031	0.00011	4
15057	4e-05	6e-05	6e-05	-0.00013	-3e-05	-6e-05	0.00031	0.00011	4
15058	4e-05	6e-05	6e-05	-0.00013	-3e-05	-6e-05	0.00031	0.00011	4
15059	4e-05	6e-05	6e-05	-0.00013	-3e-05	-6e-05	0.00031	0.00011	4
15060	4e-05	6e-05	6e-05	-0.00013	-3e-05	-6e-05	0.00031	0.00011	4
15061	4e-05	6e-05	6e-05	-0.00013	-3e-05	-6e-05	0.00031	0.00011	4
15062	4e-05	6e-05	6e-05	-0.00013	-3e-05	-6e-05	0.00031	0.00011	4
15063	4e-05	6e-05	6e-05	-0.00013	-3e-05	-6e-05	0.00031	0.00011	4
15064	4e-05	6e-05	6e-05	-0.00013	-3e-05	-6e-05	0.00031	0.00011	4
15065	4e-05	6e-05	6e-05	-0.00013	-3e-05	-6e-05	0.00031	0.00011	4
15066	4e-05	6e-05	6e-05	-0.00013	-3e-05	-6e-05	0.00031	0.00011	4
15067	4e-05	6e-05	6e-05	-0.00013	-3e-05	-6e-05	0.00031	0.00011	4
15068	4e-05	6e-05	6e-05	-0.00013	-3e-05	-6e-05	0.00031	0.00011	4
15069	4e-05	6e-05	6e-05	-0.00013	-3e-05	-6e-05	0.00031	0.00011	4
15070	4e-05	6e-05	6e-05	-0.00013	-3e-05	-6e-05	0.00031	0.00011	4
15071	4e-05	1e-05	5e-05	-0.00011	-0.00032	-0.00044	5e-05	1e-05	4
15072	2e-05	2e-05	2e-05	-0.0001	-0.00033	-0.00017	1e-05	0	4
15073	-2e-05	-0.00012	-0.00012	-0.00014	0.00035	-0.00048	0.00015	-5e-05	4
15074	-2e-05	-0.00012	-0.00012	-0.00014	0.00035	-0.00048	0.00015	-5e-05	4
15075	-2e-05	-0.00012	-0.00012	-0.00014	0.00035	-0.00048	0.00015	-5e-05	4
15076	-2e-05	-0.00012	-0.00012	-0.00014	0.00035	-0.00048	0.00015	-5e-05	4
15077	-2e-05	-0.00012	-0.00012	-0.00014	0.00035	-0.00048	0.00015	-5e-05	4
15078	-2e-05	-0.00012	-0.00012	-0.00014	0.00035	-0.00048	0.00015	-5e-05	4
15079	-2e-05	-0.00012	-0.00012	-0.00014	0.00035	-0.00048	0.00015	-5e-05	4
15080	-2e-05	-0.00012	-0.00012	-0.00014	0.00035	-0.00048	0.00015	-5e-05	4
15081	-2e-05	-0.00012	-0.00012	-0.00014	0.00035	-0.00048	0.00015	-5e-05	4
15082	-2e-05	-0.00012	-0.00012	-0.00014	0.00035	-0.00048	0.00015	-5e-05	4
15083	-2e-05	-0.00012	-0.00012	-0.00014	0.00035	-0.00048	0.00015	-5e-05	4
15084	-2e-05	-0.00012	-0.00012	-0.00014	0.00035	-0.00048	0.00015	-5e-05	4
15085	-2e-05	-0.00012	-0.00012	-0.00014	0.00035	-0.00048	0.00015	-5e-05	4
15086	8e-05	6e-05	0.00014	0.00046	0.0012	0.00056	0.00011	9e-05	4
15088	8e-05	6e-05	0.00014	0.00046	0.0012	0.00056	0.00011	9e-05	4
15089	8e-05	6e-05	0.00014	0.00046	0.0012	0.00056	0.00011	9e-05	4
15090	8e-05	6e-05	0.00014	0.00046	0.0012	0.00056	0.00011	9e-05	4
15091	8e-05	6e-05	0.00014	0.00046	0.0012	0.00056	0.00011	9e-05	4
15092	-8e-05	-7e-05	-5e-05	0.00018	0.00037	0.00027	-0.0001	-0.00014	4
15093	-8e-05	-7e-05	-5e-05	0.00018	0.00037	0.00027	-0.0001	-0.00014	4
15094	-8e-05	-7e-05	-5e-05	0.00018	0.00037	0.00027	-0.0001	-0.00014	4
15095	-8e-05	-7e-05	-5e-05	0.00018	0.00037	0.00027	-0.0001	-0.00014	4
15096	-8e-05	-7e-05	-5e-05	0.00018	0.00037	0.00027	-0.0001	-0.00014	4
15097	-8e-05	-7e-05	-5e-05	0.00018	0.00037	0.00027	-0.0001	-0.00014	4
15098	-8e-05	-7e-05	-5e-05	0.00018	0.00037	0.00027	-0.0001	-0.00014	4
15099	-8e-05	-7e-05	-5e-05	0.00018	0.00037	0.00027	-0.0001	-0.00014	4
15100	-8e-05	-7e-05	-5e-05	0.00018	0.00037	0.00027	-0.0001	-0.00014	4
15101	-8e-05	-7e-05	-5e-05	0.00018	0.00037	0.00027	-0.0001	-0.00014	4
15102	-8e-05	-7e-05	-5e-05	0.00018	0.00037	0.00027	-0.0001	-0.00014	4
15103	-8e-05	-7e-05	-5e-05	0.00018	0.00037	0.00027	-0.0001	-0.00014	4
15104	-8e-05	-7e-05	-5e-05	0.00018	0.00037	0.00027	-0.0001	-0.00014	4
15105	-8e-05	-7e-05	-5e-05	0.00018	0.00037	0.00027	-0.0001	-0.00014	4
15106	-8e-05	-7e-05	-5e-05	0.00018	0.00037	0.00027	-0.0001	-0.00014	4
15107	-8e-05	-7e-05	-5e-05	0.00018	0.00037	0.00027	-0.0001	-0.00014	4
15108	-3e-05	6e-05	7e-05	-1e-05	7e-05	0.00045	-0.00021	-8e-05	4
15109	-4e-05	-3e-05	9e-05	0.00029	0.00058	-0.00033	0	0.00014	4
15110	-2e-05	-0.0001	-0.00011	-0.0005	0.0001	-0.00028	-0.00014	0.00012	4
15111	-2e-05	-0.0001	-0.00011	-0.0005	0.0001	-0.00028	-0.00014	0.00012	4
15112	-2e-05	-0.0001	-0.00011	-0.0005	0.0001	-0.00028	-0.00014	0.00012	4
15113	-2e-05	-0.0001	-0.00011	-0.0005	0.0001	-0.00028	-0.00014	0.00012	4
15114	-2e-05	-0.0001	-0.00011	-0.0005	0.0001	-0.00028	-0.00014	0.00012	4
15115	-2e-05	-0.0001	-0.00011	-0.0005	0.0001	-0.00028	-0.00014	0.00012	4
15116	-2e-05	-0.0001	-0.00011	-0.0005	0.0001	-0.00028	-0.00014	0.00012	4
15117	-2e-05	-0.0001	-0.00011	-0.0005	0.0001	-0.00028	-0.00014	0.00012	4
15118	-2e-05	-0.0001	-0.00011	-0.0005	0.0001	-0.00028	-0.00014	0.00012	4
15119	-2e-05	-0.0001	-0.00011	-0.0005	0.0001	-0.00028	-0.00014	0.00012	4
15120	-2e-05	-0.0001	-0.00011	-0.0005	0.0001	-0.00028	-0.00014	0.00012	4
15121	-2e-05	-0.0001	-0.00011	-0.0005	0.0001	-0.00028	-0.00014	0.00012	4
15122	-2e-05	-0.0001	-0.00011	-0.0005	0.0001	-0.00028	-0.00014	0.00012	4
15123	-2e-05	-0.0001	-0.00011	-0.0005	0.0001	-0.00028	-0.00014	0.00012	4
15124	-2e-05	-0.0001	-0.00011	-0.0005	0.0001	-0.00028	-0.00014	0.00012	4
15125	-2e-05	-0.0001	-0.00011	-0.0005	0.0001	-0.00028	-0.00014	0.00012	4
15126	-2e-05	-0.0001	-0.00011	-0.0005	0.0001	-0.00028	-0.00014	0.00012	4
15127	-2e-05	-0.0001	-0.00011	-0.0005	0.0001	-0.00028	-0.00014	0.00012	4
15128	-2e-05	-0.0001	-0.00011	-0.0005	0.0001	-0.00028	-0.00014	0.00012	4
15129	-2e-05	-0.0001	-0.00011	-0.0005	0.0001	-0.00028	-0.00014	0.00012	4
15130	-2e-05	-0.0001	-0.00011	-0.0005	0.0001	-0.00028	-0.00014	0.00012	4
15131	0	0	-7e-05	-0.00114	-0.00077	-0.00073	-0.00027	-7e-05	4
15132	-0.0001	-4e-05	4e-05	0.00073	0.00066	-7e-05	-0.00027	-0.00011	4
15133	-0.0001	-0.00011	-0.00019	-0.00056	-0.00069	-0.00079	-0.00021	-0.0001	4
15134	-0.0001	-0.00011	-0.00019	-0.00056	-0.00069	-0.00079	-0.00021	-0.0001	4
15135	-0.0001	-0.00011	-0.00019	-0.00056	-0.00069	-0.00079	-0.00021	-0.0001	4
15136	-0.0001	-0.00011	-0.00019	-0.00056	-0.00069	-0.00079	-0.00021	-0.0001	4
15138	-0.0001	-0.00011	-0.00019	-0.00056	-0.00069	-0.00079	-0.00021	-0.0001	4
15139	-0.0001	-0.00011	-0.00019	-0.00056	-0.00069	-0.00079	-0.00021	-0.0001	4
15140	-0.0001	-0.00011	-0.00019	-0.00056	-0.00069	-0.00079	-0.00021	-0.0001	4
15141	-0.0001	-0.00011	-0.00019	-0.00056	-0.00069	-0.00079	-0.00021	-0.0001	4
15142	-0.0001	-0.00011	-0.00019	-0.00056	-0.00069	-0.00079	-0.00021	-0.0001	4
15143	-0.0001	-0.00011	-0.00019	-0.00056	-0.00069	-0.00079	-0.00021	-0.0001	4
15144	-0.0001	-0.00011	-0.00019	-0.00056	-0.00069	-0.00079	-0.00021	-0.0001	4
15145	-0.0001	-0.00011	-0.00019	-0.00056	-0.00069	-0.00079	-0.00021	-0.0001	4
15146	3e-05	5e-05	5e-05	-0.0001	-0.00048	0.0006	6e-05	2e-05	4
15147	-5e-05	-5e-05	-3e-05	0.00032	0.0007	-2e-05	6e-05	-0.00013	4
15148	1e-05	1e-05	1e-05	-0.00013	-0.00023	0.00033	8e-05	-0.00018	4
15149	1e-05	1e-05	1e-05	-0.00013	-0.00023	0.00033	8e-05	-0.00018	4
15150	1e-05	1e-05	1e-05	-0.00013	-0.00023	0.00033	8e-05	-0.00018	4
15151	1e-05	1e-05	1e-05	-0.00013	-0.00023	0.00033	8e-05	-0.00018	4
15152	1e-05	1e-05	1e-05	-0.00013	-0.00023	0.00033	8e-05	-0.00018	4
15153	1e-05	1e-05	1e-05	-0.00013	-0.00023	0.00033	8e-05	-0.00018	4
15154	1e-05	1e-05	1e-05	-0.00013	-0.00023	0.00033	8e-05	-0.00018	4
15155	1e-05	1e-05	1e-05	-0.00013	-0.00023	0.00033	8e-05	-0.00018	4
15156	1e-05	1e-05	1e-05	-0.00013	-0.00023	0.00033	8e-05	-0.00018	4
15157	1e-05	1e-05	1e-05	-0.00013	-0.00023	0.00033	8e-05	-0.00018	4
15158	1e-05	1e-05	1e-05	-0.00013	-0.00023	0.00033	8e-05	-0.00018	4
15159	1e-05	1e-05	1e-05	-0.00013	-0.00023	0.00033	8e-05	-0.00018	4
15160	1e-05	1e-05	1e-05	-0.00013	-0.00023	0.00033	8e-05	-0.00018	4
15161	1e-05	1e-05	1e-05	-0.00013	-0.00023	0.00033	8e-05	-0.00018	4
15162	1e-05	1e-05	1e-05	-0.00013	-0.00023	0.00033	8e-05	-0.00018	4
15163	1e-05	1e-05	1e-05	-0.00013	-0.00023	0.00033	8e-05	-0.00018	4
15164	1e-05	1e-05	1e-05	-0.00013	-0.00023	0.00033	8e-05	-0.00018	4
15165	1e-05	1e-05	1e-05	-0.00013	-0.00023	0.00033	8e-05	-0.00018	4
15166	1e-05	1e-05	1e-05	-0.00013	-0.00023	0.00033	8e-05	-0.00018	4
15167	1e-05	1e-05	1e-05	-0.00013	-0.00023	0.00033	8e-05	-0.00018	4
15168	1e-05	1e-05	1e-05	-0.00013	-0.00023	0.00033	8e-05	-0.00018	4
15169	-6e-05	-7e-05	-4e-05	0.00033	0.00054	-0.00031	-0.00019	-0.0001	4
15170	-6e-05	-7e-05	-4e-05	0.00033	0.00054	-0.00031	-0.00019	-0.0001	4
15171	-6e-05	-7e-05	-4e-05	0.00033	0.00054	-0.00031	-0.00019	-0.0001	4
15172	-6e-05	-7e-05	-4e-05	0.00033	0.00054	-0.00031	-0.00019	-0.0001	4
15173	-6e-05	-7e-05	-4e-05	0.00033	0.00054	-0.00031	-0.00019	-0.0001	4
15174	-6e-05	-7e-05	-4e-05	0.00033	0.00054	-0.00031	-0.00019	-0.0001	4
15175	-9e-05	-0.00011	-8e-05	-2e-05	-0.00016	1e-05	-5e-05	-5e-05	4
15176	-9e-05	-0.00011	-8e-05	-2e-05	-0.00016	1e-05	-5e-05	-5e-05	4
15177	-9e-05	-0.00011	-8e-05	-2e-05	-0.00016	1e-05	-5e-05	-5e-05	4
15178	-9e-05	-0.00011	-8e-05	-2e-05	-0.00016	1e-05	-5e-05	-5e-05	4
15179	-9e-05	-0.00011	-8e-05	-2e-05	-0.00016	1e-05	-5e-05	-5e-05	4
15180	-9e-05	-0.00011	-8e-05	-2e-05	-0.00016	1e-05	-5e-05	-5e-05	4
15181	-9e-05	-0.00011	-8e-05	-2e-05	-0.00016	1e-05	-5e-05	-5e-05	4
15182	-9e-05	-0.00011	-8e-05	-2e-05	-0.00016	1e-05	-5e-05	-5e-05	4
15183	-9e-05	-0.00011	-8e-05	-2e-05	-0.00016	1e-05	-5e-05	-5e-05	4
15184	-9e-05	-0.00011	-8e-05	-2e-05	-0.00016	1e-05	-5e-05	-5e-05	4
15185	-9e-05	-0.00011	-8e-05	-2e-05	-0.00016	1e-05	-5e-05	-5e-05	4
15186	-9e-05	-0.00011	-8e-05	-2e-05	-0.00016	1e-05	-5e-05	-5e-05	4
15188	-9e-05	-0.00011	-8e-05	-2e-05	-0.00016	1e-05	-5e-05	-5e-05	4
15189	-9e-05	-0.00011	-8e-05	-2e-05	-0.00016	1e-05	-5e-05	-5e-05	4
15190	-9e-05	-0.00011	-8e-05	-2e-05	-0.00016	1e-05	-5e-05	-5e-05	4
15191	-6e-05	-9e-05	-8e-05	0.00019	0.0006	-0.00055	0.00018	0.00018	4
15192	-6e-05	-9e-05	-8e-05	0.00019	0.0006	-0.00055	0.00018	0.00018	4
15193	3e-05	7e-05	3e-05	-2e-05	8e-05	-8e-05	9e-05	-9e-05	4
15194	-0.00011	-2e-05	-2e-05	0.00025	0.00076	-0.00015	-0.00041	-0.00039	4
15195	-0.00011	-2e-05	-2e-05	0.00025	0.00076	-0.00015	-0.00041	-0.00039	4
15196	-0.00011	-2e-05	-2e-05	0.00025	0.00076	-0.00015	-0.00041	-0.00039	4
15197	-0.00011	-2e-05	-2e-05	0.00025	0.00076	-0.00015	-0.00041	-0.00039	4
15198	-0.00011	-2e-05	-2e-05	0.00025	0.00076	-0.00015	-0.00041	-0.00039	4
15199	-0.00011	-2e-05	-2e-05	0.00025	0.00076	-0.00015	-0.00041	-0.00039	4
15200	-0.00011	-2e-05	-2e-05	0.00025	0.00076	-0.00015	-0.00041	-0.00039	4
15201	-0.00011	-2e-05	-2e-05	0.00025	0.00076	-0.00015	-0.00041	-0.00039	4
15202	-0.00011	-2e-05	-2e-05	0.00025	0.00076	-0.00015	-0.00041	-0.00039	4
15203	-0.00011	-2e-05	-2e-05	0.00025	0.00076	-0.00015	-0.00041	-0.00039	4
15204	-0.00011	-2e-05	-2e-05	0.00025	0.00076	-0.00015	-0.00041	-0.00039	4
15205	-9e-05	-0.00012	-0.00011	0.00012	0.00025	-0.00094	-0.00035	-0.0002	4
15206	-9e-05	-0.00012	-0.00011	0.00012	0.00025	-0.00094	-0.00035	-0.0002	4
15207	-9e-05	-0.00012	-0.00011	0.00012	0.00025	-0.00094	-0.00035	-0.0002	4
15208	-9e-05	-0.00012	-0.00011	0.00012	0.00025	-0.00094	-0.00035	-0.0002	4
15209	-9e-05	-0.00012	-0.00011	0.00012	0.00025	-0.00094	-0.00035	-0.0002	4
15210	-9e-05	-0.00012	-0.00011	0.00012	0.00025	-0.00094	-0.00035	-0.0002	4
15211	-9e-05	-0.00012	-0.00011	0.00012	0.00025	-0.00094	-0.00035	-0.0002	4
15212	-2e-05	-3e-05	-2e-05	0.0001	-2e-05	-0.0005	0	-2e-05	4
15213	-2e-05	-3e-05	-2e-05	0.0001	-2e-05	-0.0005	0	-2e-05	4
15214	-2e-05	-3e-05	-2e-05	0.0001	-2e-05	-0.0005	0	-2e-05	4
15215	-2e-05	-3e-05	-2e-05	0.0001	-2e-05	-0.0005	0	-2e-05	4
15216	-2e-05	-3e-05	-2e-05	0.0001	-2e-05	-0.0005	0	-2e-05	4
15217	-2e-05	-3e-05	-2e-05	0.0001	-2e-05	-0.0005	0	-2e-05	4
15218	-2e-05	-3e-05	-2e-05	0.0001	-2e-05	-0.0005	0	-2e-05	4
15219	-2e-05	-3e-05	-2e-05	0.0001	-2e-05	-0.0005	0	-2e-05	4
15220	-2e-05	-3e-05	-2e-05	0.0001	-2e-05	-0.0005	0	-2e-05	4
15221	-2e-05	-3e-05	-2e-05	0.0001	-2e-05	-0.0005	0	-2e-05	4
15222	-2e-05	-3e-05	-2e-05	0.0001	-2e-05	-0.0005	0	-2e-05	4
15223	-2e-05	-3e-05	-2e-05	0.0001	-2e-05	-0.0005	0	-2e-05	4
15224	-2e-05	-3e-05	-2e-05	0.0001	-2e-05	-0.0005	0	-2e-05	4
15225	-2e-05	-3e-05	-2e-05	0.0001	-2e-05	-0.0005	0	-2e-05	4
15226	-2e-05	-3e-05	-2e-05	0.0001	-2e-05	-0.0005	0	-2e-05	4
15227	-2e-05	-3e-05	-2e-05	0.0001	-2e-05	-0.0005	0	-2e-05	4
15228	-2e-05	-3e-05	-2e-05	0.0001	-2e-05	-0.0005	0	-2e-05	4
15229	6e-05	0.0001	5e-05	4e-05	-0.00109	0.0004	-3e-05	-4e-05	4
15230	6e-05	0.0001	5e-05	4e-05	-0.00109	0.0004	-3e-05	-4e-05	4
15231	6e-05	0.0001	5e-05	4e-05	-0.00109	0.0004	-3e-05	-4e-05	4
15232	6e-05	0.0001	5e-05	4e-05	-0.00109	0.0004	-3e-05	-4e-05	4
15233	6e-05	0.0001	5e-05	4e-05	-0.00109	0.0004	-3e-05	-4e-05	4
15234	6e-05	0.0001	5e-05	4e-05	-0.00109	0.0004	-3e-05	-4e-05	4
15235	-4e-05	-4e-05	-2e-05	0.00015	0.00096	0.00038	-6e-05	-0.00012	4
15236	-4e-05	-4e-05	-2e-05	0.00015	0.00096	0.00038	-6e-05	-0.00012	4
15238	-4e-05	-4e-05	-2e-05	0.00015	0.00096	0.00038	-6e-05	-0.00012	4
15239	-4e-05	-4e-05	-2e-05	0.00015	0.00096	0.00038	-6e-05	-0.00012	4
15240	-4e-05	-4e-05	-2e-05	0.00015	0.00096	0.00038	-6e-05	-0.00012	4
15241	-4e-05	-4e-05	-2e-05	0.00015	0.00096	0.00038	-6e-05	-0.00012	4
15242	-4e-05	-4e-05	-2e-05	0.00015	0.00096	0.00038	-6e-05	-0.00012	4
15243	-4e-05	-4e-05	-2e-05	0.00015	0.00096	0.00038	-6e-05	-0.00012	4
15244	-4e-05	-4e-05	-2e-05	0.00015	0.00096	0.00038	-6e-05	-0.00012	4
15245	-4e-05	-4e-05	-2e-05	0.00015	0.00096	0.00038	-6e-05	-0.00012	4
15246	-4e-05	-4e-05	-2e-05	0.00015	0.00096	0.00038	-6e-05	-0.00012	4
15247	-4e-05	-4e-05	-2e-05	0.00015	0.00096	0.00038	-6e-05	-0.00012	4
15248	-4e-05	-4e-05	-2e-05	0.00015	0.00096	0.00038	-6e-05	-0.00012	4
15249	-4e-05	-4e-05	-2e-05	0.00015	0.00096	0.00038	-6e-05	-0.00012	4
15250	-4e-05	-4e-05	-2e-05	0.00015	0.00096	0.00038	-6e-05	-0.00012	4
15251	2e-05	9e-05	0.0001	8e-05	0.00013	-0.00026	0.00013	8e-05	4
15252	-6e-05	-8e-05	-0.00015	-0.0006	-0.00052	-5e-05	-0.00016	-5e-05	4
15253	1e-05	0	-1e-05	0.00026	0.00064	0.00079	8e-05	-1e-05	4
15254	1e-05	0	-1e-05	0.00026	0.00064	0.00079	8e-05	-1e-05	4
15255	1e-05	0	-1e-05	0.00026	0.00064	0.00079	8e-05	-1e-05	4
15256	1e-05	0	-1e-05	0.00026	0.00064	0.00079	8e-05	-1e-05	4
15257	1e-05	0	-1e-05	0.00026	0.00064	0.00079	8e-05	-1e-05	4
15258	1e-05	0	-1e-05	0.00026	0.00064	0.00079	8e-05	-1e-05	4
15259	1e-05	0	-1e-05	0.00026	0.00064	0.00079	8e-05	-1e-05	4
15260	1e-05	0	-1e-05	0.00026	0.00064	0.00079	8e-05	-1e-05	4
15261	1e-05	0	-1e-05	0.00026	0.00064	0.00079	8e-05	-1e-05	4
15262	1e-05	0	-1e-05	0.00026	0.00064	0.00079	8e-05	-1e-05	4
15263	1e-05	0	-1e-05	0.00026	0.00064	0.00079	8e-05	-1e-05	4
15264	1e-05	0	-1e-05	0.00026	0.00064	0.00079	8e-05	-1e-05	4
15265	1e-05	0	-1e-05	0.00026	0.00064	0.00079	8e-05	-1e-05	4
15266	1e-05	0	-1e-05	0.00026	0.00064	0.00079	8e-05	-1e-05	4
15267	1e-05	0	-1e-05	0.00026	0.00064	0.00079	8e-05	-1e-05	4
15268	1e-05	0	-1e-05	0.00026	0.00064	0.00079	8e-05	-1e-05	4
15269	1e-05	0	-1e-05	0.00026	0.00064	0.00079	8e-05	-1e-05	4
15270	1e-05	0	-1e-05	0.00026	0.00064	0.00079	8e-05	-1e-05	4
15271	1e-05	0	-1e-05	0.00026	0.00064	0.00079	8e-05	-1e-05	4
15272	1e-05	0	-1e-05	0.00026	0.00064	0.00079	8e-05	-1e-05	4
15273	0	-2e-05	-1e-05	-0.00024	0.00029	-0.00055	-0.00013	-3e-05	4
15274	6e-05	7e-05	4e-05	0.00014	-0.00068	0.00054	-6e-05	4e-05	4
15275	-6e-05	-6e-05	3e-05	0.00084	0.00083	0.00062	-0.00012	-9e-05	4
15276	-6e-05	-6e-05	3e-05	0.00084	0.00083	0.00062	-0.00012	-9e-05	4
15277	-6e-05	-6e-05	3e-05	0.00084	0.00083	0.00062	-0.00012	-9e-05	4
15278	-6e-05	-6e-05	3e-05	0.00084	0.00083	0.00062	-0.00012	-9e-05	4
15279	-6e-05	-6e-05	3e-05	0.00084	0.00083	0.00062	-0.00012	-9e-05	4
15280	-6e-05	-6e-05	3e-05	0.00084	0.00083	0.00062	-0.00012	-9e-05	4
15281	-6e-05	-6e-05	3e-05	0.00084	0.00083	0.00062	-0.00012	-9e-05	4
15282	-6e-05	-6e-05	3e-05	0.00084	0.00083	0.00062	-0.00012	-9e-05	4
15283	-6e-05	-6e-05	3e-05	0.00084	0.00083	0.00062	-0.00012	-9e-05	4
15284	-6e-05	-6e-05	3e-05	0.00084	0.00083	0.00062	-0.00012	-9e-05	4
15285	-6e-05	-6e-05	3e-05	0.00084	0.00083	0.00062	-0.00012	-9e-05	4
15286	-6e-05	-6e-05	3e-05	0.00084	0.00083	0.00062	-0.00012	-9e-05	4
15288	-6e-05	-6e-05	3e-05	0.00084	0.00083	0.00062	-0.00012	-9e-05	4
15289	0	-5e-05	-9e-05	-0.00043	3e-05	-0.0003	0.00017	6e-05	4
15290	4e-05	-3e-05	-8e-05	-0.00051	-0.00041	-0.00042	-0.00011	-0.0001	4
15291	4e-05	-3e-05	-8e-05	-0.00051	-0.00041	-0.00042	-0.00011	-0.0001	4
15292	4e-05	-3e-05	-8e-05	-0.00051	-0.00041	-0.00042	-0.00011	-0.0001	4
15293	4e-05	-3e-05	-8e-05	-0.00051	-0.00041	-0.00042	-0.00011	-0.0001	4
15294	4e-05	-3e-05	-8e-05	-0.00051	-0.00041	-0.00042	-0.00011	-0.0001	4
15295	4e-05	-3e-05	-8e-05	-0.00051	-0.00041	-0.00042	-0.00011	-0.0001	4
15296	4e-05	-3e-05	-8e-05	-0.00051	-0.00041	-0.00042	-0.00011	-0.0001	4
15297	4e-05	-3e-05	-8e-05	-0.00051	-0.00041	-0.00042	-0.00011	-0.0001	4
15298	4e-05	-3e-05	-8e-05	-0.00051	-0.00041	-0.00042	-0.00011	-0.0001	4
15299	4e-05	-3e-05	-8e-05	-0.00051	-0.00041	-0.00042	-0.00011	-0.0001	4
15300	4e-05	-3e-05	-8e-05	-0.00051	-0.00041	-0.00042	-0.00011	-0.0001	4
15301	4e-05	-3e-05	-8e-05	-0.00051	-0.00041	-0.00042	-0.00011	-0.0001	4
15302	4e-05	-3e-05	-8e-05	-0.00051	-0.00041	-0.00042	-0.00011	-0.0001	4
15303	4e-05	-3e-05	-8e-05	-0.00051	-0.00041	-0.00042	-0.00011	-0.0001	4
15304	4e-05	-3e-05	-8e-05	-0.00051	-0.00041	-0.00042	-0.00011	-0.0001	4
15305	4e-05	-3e-05	-8e-05	-0.00051	-0.00041	-0.00042	-0.00011	-0.0001	4
15306	4e-05	-3e-05	-8e-05	-0.00051	-0.00041	-0.00042	-0.00011	-0.0001	4
15307	4e-05	-3e-05	-8e-05	-0.00051	-0.00041	-0.00042	-0.00011	-0.0001	4
15308	4e-05	-3e-05	-8e-05	-0.00051	-0.00041	-0.00042	-0.00011	-0.0001	4
15309	4e-05	-3e-05	-8e-05	-0.00051	-0.00041	-0.00042	-0.00011	-0.0001	4
15310	4e-05	-3e-05	-8e-05	-0.00051	-0.00041	-0.00042	-0.00011	-0.0001	4
15311	4e-05	-3e-05	-8e-05	-0.00051	-0.00041	-0.00042	-0.00011	-0.0001	4
15312	4e-05	-3e-05	-8e-05	-0.00051	-0.00041	-0.00042	-0.00011	-0.0001	4
15313	4e-05	-3e-05	-8e-05	-0.00051	-0.00041	-0.00042	-0.00011	-0.0001	4
15314	4e-05	-3e-05	-8e-05	-0.00051	-0.00041	-0.00042	-0.00011	-0.0001	4
15315	4e-05	-3e-05	-8e-05	-0.00051	-0.00041	-0.00042	-0.00011	-0.0001	4
15316	4e-05	-3e-05	-8e-05	-0.00051	-0.00041	-0.00042	-0.00011	-0.0001	4
15317	4e-05	-3e-05	-8e-05	-0.00051	-0.00041	-0.00042	-0.00011	-0.0001	4
15318	0	4e-05	6e-05	0.00019	0.0004	0.00057	0.00016	-4e-05	4
15319	0	4e-05	6e-05	0.00019	0.0004	0.00057	0.00016	-4e-05	4
15320	-0.00011	-5e-05	-0.00011	-6e-05	0.00039	-0.00026	2e-05	-0.0001	4
15321	-0.00011	-5e-05	-0.00011	-6e-05	0.00039	-0.00026	2e-05	-0.0001	4
15322	-0.00011	-5e-05	-0.00011	-6e-05	0.00039	-0.00026	2e-05	-0.0001	4
15323	-0.00011	-5e-05	-0.00011	-6e-05	0.00039	-0.00026	2e-05	-0.0001	4
15324	-0.00011	-5e-05	-0.00011	-6e-05	0.00039	-0.00026	2e-05	-0.0001	4
15325	-3e-05	-5e-05	-5e-05	7e-05	0.0004	0.00078	2e-05	-2e-05	4
15326	-3e-05	-5e-05	-5e-05	7e-05	0.0004	0.00078	2e-05	-2e-05	4
15327	-3e-05	-5e-05	-5e-05	7e-05	0.0004	0.00078	2e-05	-2e-05	4
15328	-3e-05	-5e-05	-5e-05	7e-05	0.0004	0.00078	2e-05	-2e-05	4
15329	-3e-05	-5e-05	-5e-05	7e-05	0.0004	0.00078	2e-05	-2e-05	4
15330	-3e-05	-5e-05	-5e-05	7e-05	0.0004	0.00078	2e-05	-2e-05	4
15331	-3e-05	-5e-05	-5e-05	7e-05	0.0004	0.00078	2e-05	-2e-05	4
15332	1e-05	3e-05	2e-05	-0.00028	-0.0007	0.00034	0.0001	-0.00012	4
15333	1e-05	3e-05	2e-05	-0.00028	-0.0007	0.00034	0.0001	-0.00012	4
15334	1e-05	3e-05	2e-05	-0.00028	-0.0007	0.00034	0.0001	-0.00012	4
15335	1e-05	3e-05	2e-05	-0.00028	-0.0007	0.00034	0.0001	-0.00012	4
15336	1e-05	3e-05	2e-05	-0.00028	-0.0007	0.00034	0.0001	-0.00012	4
15338	1e-05	3e-05	2e-05	-0.00028	-0.0007	0.00034	0.0001	-0.00012	4
15339	1e-05	3e-05	2e-05	-0.00028	-0.0007	0.00034	0.0001	-0.00012	4
15340	1e-05	3e-05	2e-05	-0.00028	-0.0007	0.00034	0.0001	-0.00012	4
15341	1e-05	3e-05	2e-05	-0.00028	-0.0007	0.00034	0.0001	-0.00012	4
15342	1e-05	3e-05	2e-05	-0.00028	-0.0007	0.00034	0.0001	-0.00012	4
15343	1e-05	3e-05	2e-05	-0.00028	-0.0007	0.00034	0.0001	-0.00012	4
15344	1e-05	3e-05	2e-05	-0.00028	-0.0007	0.00034	0.0001	-0.00012	4
15345	1e-05	3e-05	2e-05	-0.00028	-0.0007	0.00034	0.0001	-0.00012	4
15346	1e-05	3e-05	2e-05	-0.00028	-0.0007	0.00034	0.0001	-0.00012	4
15347	1e-05	3e-05	2e-05	-0.00028	-0.0007	0.00034	0.0001	-0.00012	4
15348	-1e-05	-3e-05	-2e-05	0.00023	-0.00046	0	-8e-05	-0.00023	4
15349	-1e-05	-3e-05	-2e-05	0.00023	-0.00046	0	-8e-05	-0.00023	4
15350	2e-05	3e-05	2e-05	-0.0001	-0.00063	-0.00048	0.00015	0.00014	4
15351	2e-05	3e-05	2e-05	-0.0001	-0.00063	-0.00048	0.00015	0.00014	4
15352	2e-05	3e-05	2e-05	-0.0001	-0.00063	-0.00048	0.00015	0.00014	4
15353	2e-05	3e-05	2e-05	-0.0001	-0.00063	-0.00048	0.00015	0.00014	4
15354	2e-05	3e-05	2e-05	-0.0001	-0.00063	-0.00048	0.00015	0.00014	4
15355	2e-05	3e-05	2e-05	-0.0001	-0.00063	-0.00048	0.00015	0.00014	4
15356	2e-05	3e-05	2e-05	-0.0001	-0.00063	-0.00048	0.00015	0.00014	4
15357	2e-05	3e-05	2e-05	-0.0001	-0.00063	-0.00048	0.00015	0.00014	4
15358	2e-05	3e-05	2e-05	-0.0001	-0.00063	-0.00048	0.00015	0.00014	4
15359	2e-05	3e-05	2e-05	-0.0001	-0.00063	-0.00048	0.00015	0.00014	4
15360	2e-05	3e-05	2e-05	-0.0001	-0.00063	-0.00048	0.00015	0.00014	4
15361	2e-05	3e-05	2e-05	-0.0001	-0.00063	-0.00048	0.00015	0.00014	4
15362	2e-05	3e-05	2e-05	-0.0001	-0.00063	-0.00048	0.00015	0.00014	4
15363	2e-05	3e-05	2e-05	-0.0001	-0.00063	-0.00048	0.00015	0.00014	4
15364	2e-05	3e-05	2e-05	-0.0001	-0.00063	-0.00048	0.00015	0.00014	4
15365	2e-05	3e-05	2e-05	-0.0001	-0.00063	-0.00048	0.00015	0.00014	4
15366	2e-05	3e-05	2e-05	-0.0001	-0.00063	-0.00048	0.00015	0.00014	4
15367	2e-05	3e-05	2e-05	-0.0001	-0.00063	-0.00048	0.00015	0.00014	4
15368	2e-05	3e-05	2e-05	-0.0001	-0.00063	-0.00048	0.00015	0.00014	4
15369	2e-05	3e-05	2e-05	-0.0001	-0.00063	-0.00048	0.00015	0.00014	4
15370	2e-05	3e-05	2e-05	-0.0001	-0.00063	-0.00048	0.00015	0.00014	4
15371	1e-05	4e-05	0.00011	0.00034	0.00068	8e-05	4e-05	4e-05	4
15372	-6e-05	-5e-05	-7e-05	-0.00012	-0.00029	-0.00036	0.00011	-0.00011	4
15373	9e-05	0.0001	0.00013	0.00023	-0.00072	0.00029	7e-05	0.00016	4
15374	9e-05	0.0001	0.00013	0.00023	-0.00072	0.00029	7e-05	0.00016	4
15375	9e-05	0.0001	0.00013	0.00023	-0.00072	0.00029	7e-05	0.00016	4
15376	9e-05	0.0001	0.00013	0.00023	-0.00072	0.00029	7e-05	0.00016	4
15377	9e-05	0.0001	0.00013	0.00023	-0.00072	0.00029	7e-05	0.00016	4
15378	9e-05	0.0001	0.00013	0.00023	-0.00072	0.00029	7e-05	0.00016	4
15379	9e-05	0.0001	0.00013	0.00023	-0.00072	0.00029	7e-05	0.00016	4
15380	9e-05	0.0001	0.00013	0.00023	-0.00072	0.00029	7e-05	0.00016	4
15381	9e-05	0.0001	0.00013	0.00023	-0.00072	0.00029	7e-05	0.00016	4
15382	9e-05	0.0001	0.00013	0.00023	-0.00072	0.00029	7e-05	0.00016	4
15383	9e-05	0.0001	0.00013	0.00023	-0.00072	0.00029	7e-05	0.00016	4
15384	9e-05	0.0001	0.00013	0.00023	-0.00072	0.00029	7e-05	0.00016	4
15385	-2e-05	-6e-05	-0.00011	-0.00016	-0.00072	-0.00071	-0.00021	1e-05	4
15386	-2e-05	-6e-05	-0.00011	-0.00016	-0.00072	-0.00071	-0.00021	1e-05	4
15388	-2e-05	-6e-05	-0.00011	-0.00016	-0.00072	-0.00071	-0.00021	1e-05	4
15389	-2e-05	-6e-05	-0.00011	-0.00016	-0.00072	-0.00071	-0.00021	1e-05	4
15390	-2e-05	-6e-05	-0.00011	-0.00016	-0.00072	-0.00071	-0.00021	1e-05	4
15391	-2e-05	-6e-05	-0.00011	-0.00016	-0.00072	-0.00071	-0.00021	1e-05	4
15392	0	2e-05	2e-05	-0.00032	0.00016	-0.00011	-3e-05	-0.00015	4
15393	1e-05	1e-05	2e-05	3e-05	-0.00017	0.00012	1e-05	0.00011	4
15394	1e-05	1e-05	2e-05	3e-05	-0.00017	0.00012	1e-05	0.00011	4
15395	1e-05	1e-05	2e-05	3e-05	-0.00017	0.00012	1e-05	0.00011	4
15396	1e-05	1e-05	2e-05	3e-05	-0.00017	0.00012	1e-05	0.00011	4
15397	1e-05	1e-05	2e-05	3e-05	-0.00017	0.00012	1e-05	0.00011	4
15398	1e-05	1e-05	2e-05	3e-05	-0.00017	0.00012	1e-05	0.00011	4
15399	1e-05	1e-05	2e-05	3e-05	-0.00017	0.00012	1e-05	0.00011	4
15400	1e-05	1e-05	2e-05	3e-05	-0.00017	0.00012	1e-05	0.00011	4
15401	1e-05	1e-05	2e-05	3e-05	-0.00017	0.00012	1e-05	0.00011	4
15402	1e-05	1e-05	2e-05	3e-05	-0.00017	0.00012	1e-05	0.00011	4
15403	1e-05	1e-05	2e-05	3e-05	-0.00017	0.00012	1e-05	0.00011	4
15404	1e-05	1e-05	2e-05	3e-05	-0.00017	0.00012	1e-05	0.00011	4
15405	1e-05	1e-05	2e-05	3e-05	-0.00017	0.00012	1e-05	0.00011	4
15406	1e-05	1e-05	2e-05	3e-05	-0.00017	0.00012	1e-05	0.00011	4
15407	1e-05	1e-05	2e-05	3e-05	-0.00017	0.00012	1e-05	0.00011	4
15408	2e-05	-1e-05	-1e-05	6e-05	-0.0003	0.00032	-2e-05	-7e-05	4
15409	2e-05	-1e-05	-1e-05	6e-05	-0.0003	0.00032	-2e-05	-7e-05	4
15410	3e-05	-4e-05	-0.00013	-0.00029	2e-05	-0.00044	0.00011	7e-05	4
15411	3e-05	-4e-05	-0.00013	-0.00029	2e-05	-0.00044	0.00011	7e-05	4
15412	3e-05	-4e-05	-0.00013	-0.00029	2e-05	-0.00044	0.00011	7e-05	4
15413	3e-05	-4e-05	-0.00013	-0.00029	2e-05	-0.00044	0.00011	7e-05	4
15414	3e-05	-4e-05	-0.00013	-0.00029	2e-05	-0.00044	0.00011	7e-05	4
15415	3e-05	-4e-05	-0.00013	-0.00029	2e-05	-0.00044	0.00011	7e-05	4
15417	3e-05	-4e-05	-0.00013	-0.00029	2e-05	-0.00044	0.00011	7e-05	4
15418	3e-05	-4e-05	-0.00013	-0.00029	2e-05	-0.00044	0.00011	7e-05	4
15419	3e-05	-4e-05	-0.00013	-0.00029	2e-05	-0.00044	0.00011	7e-05	4
15420	3e-05	-4e-05	-0.00013	-0.00029	2e-05	-0.00044	0.00011	7e-05	4
15421	3e-05	-4e-05	-0.00013	-0.00029	2e-05	-0.00044	0.00011	7e-05	4
15422	3e-05	-4e-05	-0.00013	-0.00029	2e-05	-0.00044	0.00011	7e-05	4
15423	3e-05	-4e-05	-0.00013	-0.00029	2e-05	-0.00044	0.00011	7e-05	4
15424	3e-05	-4e-05	-0.00013	-0.00029	2e-05	-0.00044	0.00011	7e-05	4
15425	3e-05	-4e-05	-0.00013	-0.00029	2e-05	-0.00044	0.00011	7e-05	4
15426	3e-05	-4e-05	-0.00013	-0.00029	2e-05	-0.00044	0.00011	7e-05	4
15427	3e-05	-4e-05	-0.00013	-0.00029	2e-05	-0.00044	0.00011	7e-05	4
15428	3e-05	-4e-05	-0.00013	-0.00029	2e-05	-0.00044	0.00011	7e-05	4
15429	3e-05	-4e-05	-0.00013	-0.00029	2e-05	-0.00044	0.00011	7e-05	4
15430	3e-05	-4e-05	-0.00013	-0.00029	2e-05	-0.00044	0.00011	7e-05	4
15431	1e-05	-1e-05	-1e-05	-0.00022	0.00012	0	-8e-05	-2e-05	4
15432	7e-05	0.00013	0.00018	0.00059	-0.00021	0.00088	0.00021	0.00022	4
15433	4e-05	3e-05	0.0001	0.00014	0.00024	0.00047	0.00012	8e-05	4
15434	4e-05	3e-05	0.0001	0.00014	0.00024	0.00047	0.00012	8e-05	4
15435	4e-05	3e-05	0.0001	0.00014	0.00024	0.00047	0.00012	8e-05	4
15436	4e-05	3e-05	0.0001	0.00014	0.00024	0.00047	0.00012	8e-05	4
15438	4e-05	3e-05	0.0001	0.00014	0.00024	0.00047	0.00012	8e-05	4
15439	4e-05	3e-05	0.0001	0.00014	0.00024	0.00047	0.00012	8e-05	4
15440	4e-05	3e-05	0.0001	0.00014	0.00024	0.00047	0.00012	8e-05	4
15441	4e-05	3e-05	0.0001	0.00014	0.00024	0.00047	0.00012	8e-05	4
15442	4e-05	3e-05	0.0001	0.00014	0.00024	0.00047	0.00012	8e-05	4
15443	4e-05	3e-05	0.0001	0.00014	0.00024	0.00047	0.00012	8e-05	4
15444	4e-05	3e-05	0.0001	0.00014	0.00024	0.00047	0.00012	8e-05	4
15445	-2e-05	-4e-05	-6e-05	7e-05	0.0006	-0.00045	-0.00012	-1e-05	4
15446	-2e-05	-4e-05	-6e-05	7e-05	0.0006	-0.00045	-0.00012	-1e-05	4
15447	-2e-05	-4e-05	-6e-05	7e-05	0.0006	-0.00045	-0.00012	-1e-05	4
15448	-2e-05	-4e-05	-6e-05	7e-05	0.0006	-0.00045	-0.00012	-1e-05	4
15449	-2e-05	-4e-05	-6e-05	7e-05	0.0006	-0.00045	-0.00012	-1e-05	4
15450	-2e-05	-4e-05	-6e-05	7e-05	0.0006	-0.00045	-0.00012	-1e-05	4
15451	-2e-05	-4e-05	-6e-05	7e-05	0.0006	-0.00045	-0.00012	-1e-05	4
15452	-2e-05	-4e-05	-6e-05	7e-05	0.0006	-0.00045	-0.00012	-1e-05	4
15453	0	-5e-05	-4e-05	4e-05	0.00093	-0.00029	-0.00012	-0.0001	4
15454	5e-05	0.00012	0.00011	-3e-05	-0.00053	0.00021	4e-05	6e-05	4
15455	5e-05	0.00012	0.00011	-3e-05	-0.00053	0.00021	4e-05	6e-05	4
15456	5e-05	0.00012	0.00011	-3e-05	-0.00053	0.00021	4e-05	6e-05	4
15457	5e-05	0.00012	0.00011	-3e-05	-0.00053	0.00021	4e-05	6e-05	4
15458	5e-05	0.00012	0.00011	-3e-05	-0.00053	0.00021	4e-05	6e-05	4
15459	5e-05	0.00012	0.00011	-3e-05	-0.00053	0.00021	4e-05	6e-05	4
15460	5e-05	0.00012	0.00011	-3e-05	-0.00053	0.00021	4e-05	6e-05	4
15461	5e-05	0.00012	0.00011	-3e-05	-0.00053	0.00021	4e-05	6e-05	4
15462	5e-05	0.00012	0.00011	-3e-05	-0.00053	0.00021	4e-05	6e-05	4
15463	5e-05	0.00012	0.00011	-3e-05	-0.00053	0.00021	4e-05	6e-05	4
15464	5e-05	0.00012	0.00011	-3e-05	-0.00053	0.00021	4e-05	6e-05	4
15466	5e-05	0.00012	0.00011	-3e-05	-0.00053	0.00021	4e-05	6e-05	4
15467	5e-05	0.00012	0.00011	-3e-05	-0.00053	0.00021	4e-05	6e-05	4
15468	-2e-05	-2e-05	-6e-05	-0.00044	-0.00011	-0.00045	-5e-05	9e-05	4
15469	-2e-05	-2e-05	-6e-05	-0.00044	-0.00011	-0.00045	-5e-05	9e-05	4
15470	0	-6e-05	-1e-05	0.00027	0.0006	0.00032	1e-05	0.00011	4
15471	0	-6e-05	-1e-05	0.00027	0.0006	0.00032	1e-05	0.00011	4
15472	0	-6e-05	-1e-05	0.00027	0.0006	0.00032	1e-05	0.00011	4
15473	0	-6e-05	-1e-05	0.00027	0.0006	0.00032	1e-05	0.00011	4
15474	0	-6e-05	-1e-05	0.00027	0.0006	0.00032	1e-05	0.00011	4
15475	0	-6e-05	-1e-05	0.00027	0.0006	0.00032	1e-05	0.00011	4
15476	0	-6e-05	-1e-05	0.00027	0.0006	0.00032	1e-05	0.00011	4
15477	0	-6e-05	-1e-05	0.00027	0.0006	0.00032	1e-05	0.00011	4
15478	0	-6e-05	-1e-05	0.00027	0.0006	0.00032	1e-05	0.00011	4
15479	0	-6e-05	-1e-05	0.00027	0.0006	0.00032	1e-05	0.00011	4
15480	0	-6e-05	-1e-05	0.00027	0.0006	0.00032	1e-05	0.00011	4
15481	0	-6e-05	-1e-05	0.00027	0.0006	0.00032	1e-05	0.00011	4
15482	0	-6e-05	-1e-05	0.00027	0.0006	0.00032	1e-05	0.00011	4
15483	0	-6e-05	-1e-05	0.00027	0.0006	0.00032	1e-05	0.00011	4
15484	0	-6e-05	-1e-05	0.00027	0.0006	0.00032	1e-05	0.00011	4
15485	0	-6e-05	-1e-05	0.00027	0.0006	0.00032	1e-05	0.00011	4
15486	0	-6e-05	-1e-05	0.00027	0.0006	0.00032	1e-05	0.00011	4
15488	0	-6e-05	-1e-05	0.00027	0.0006	0.00032	1e-05	0.00011	4
15489	0	-6e-05	-1e-05	0.00027	0.0006	0.00032	1e-05	0.00011	4
15490	0	-6e-05	-1e-05	0.00027	0.0006	0.00032	1e-05	0.00011	4
15491	0	-6e-05	-1e-05	0.00027	0.0006	0.00032	1e-05	0.00011	4
15492	0	-6e-05	-1e-05	0.00027	0.0006	0.00032	1e-05	0.00011	4
15493	0	-6e-05	-1e-05	0.00027	0.0006	0.00032	1e-05	0.00011	4
15494	0	-6e-05	-1e-05	0.00027	0.0006	0.00032	1e-05	0.00011	4
15495	0	-6e-05	-1e-05	0.00027	0.0006	0.00032	1e-05	0.00011	4
15496	0	-6e-05	-1e-05	0.00027	0.0006	0.00032	1e-05	0.00011	4
15497	0	-6e-05	-1e-05	0.00027	0.0006	0.00032	1e-05	0.00011	4
15498	0	-6e-05	-1e-05	0.00027	0.0006	0.00032	1e-05	0.00011	4
15499	0	-6e-05	-1e-05	0.00027	0.0006	0.00032	1e-05	0.00011	4
15500	0	-6e-05	-1e-05	0.00027	0.0006	0.00032	1e-05	0.00011	4
15501	0	-6e-05	-1e-05	0.00027	0.0006	0.00032	1e-05	0.00011	4
15502	0	-6e-05	-1e-05	0.00027	0.0006	0.00032	1e-05	0.00011	4
15503	0	-6e-05	-1e-05	0.00027	0.0006	0.00032	1e-05	0.00011	4
15504	0	-6e-05	-1e-05	0.00027	0.0006	0.00032	1e-05	0.00011	4
15505	0	-6e-05	-1e-05	0.00027	0.0006	0.00032	1e-05	0.00011	4
15506	0	-6e-05	-1e-05	0.00027	0.0006	0.00032	1e-05	0.00011	4
15507	-4e-05	-5e-05	-6e-05	0	0.00015	-0.00011	-0.00022	-0.00037	4
15508	-4e-05	-5e-05	-6e-05	0	0.00015	-0.00011	-0.00022	-0.00037	4
15509	-1e-05	0	-3e-05	-0.00016	0.00012	-2e-05	2e-05	3e-05	4
15510	-7e-05	-7e-05	-8e-05	0.00035	3e-05	-0.00075	0.00026	5e-05	4
15511	-7e-05	-7e-05	-8e-05	0.00035	3e-05	-0.00075	0.00026	5e-05	4
15512	-7e-05	-7e-05	-8e-05	0.00035	3e-05	-0.00075	0.00026	5e-05	4
15513	-7e-05	-5e-05	-0.00012	-0.00014	0	4e-05	-0.00021	-0.00018	4
15514	4e-05	2e-05	3e-05	4e-05	-0.00067	-0.00054	-2e-05	-0.00012	4
15515	4e-05	2e-05	3e-05	4e-05	-0.00067	-0.00054	-2e-05	-0.00012	4
15516	4e-05	2e-05	3e-05	4e-05	-0.00067	-0.00054	-2e-05	-0.00012	4
15517	4e-05	2e-05	3e-05	4e-05	-0.00067	-0.00054	-2e-05	-0.00012	4
15518	4e-05	2e-05	3e-05	4e-05	-0.00067	-0.00054	-2e-05	-0.00012	4
15519	4e-05	2e-05	3e-05	4e-05	-0.00067	-0.00054	-2e-05	-0.00012	4
15520	4e-05	2e-05	3e-05	4e-05	-0.00067	-0.00054	-2e-05	-0.00012	4
15521	4e-05	2e-05	3e-05	4e-05	-0.00067	-0.00054	-2e-05	-0.00012	4
15522	4e-05	2e-05	3e-05	4e-05	-0.00067	-0.00054	-2e-05	-0.00012	4
15523	4e-05	2e-05	3e-05	4e-05	-0.00067	-0.00054	-2e-05	-0.00012	4
15524	4e-05	2e-05	3e-05	4e-05	-0.00067	-0.00054	-2e-05	-0.00012	4
15525	4e-05	2e-05	3e-05	4e-05	-0.00067	-0.00054	-2e-05	-0.00012	4
15526	4e-05	2e-05	3e-05	4e-05	-0.00067	-0.00054	-2e-05	-0.00012	4
15527	4e-05	2e-05	3e-05	4e-05	-0.00067	-0.00054	-2e-05	-0.00012	4
15528	1e-05	3e-05	4e-05	0	0.00017	0.00052	5e-05	3e-05	4
15529	1e-05	3e-05	4e-05	0	0.00017	0.00052	5e-05	3e-05	4
15530	-1e-05	-3e-05	3e-05	-0.00014	0.00027	0.0003	4e-05	4e-05	4
15531	-1e-05	-3e-05	3e-05	-0.00014	0.00027	0.0003	4e-05	4e-05	4
15532	-1e-05	-3e-05	3e-05	-0.00014	0.00027	0.0003	4e-05	4e-05	4
15533	-1e-05	-3e-05	3e-05	-0.00014	0.00027	0.0003	4e-05	4e-05	4
15534	-1e-05	-3e-05	3e-05	-0.00014	0.00027	0.0003	4e-05	4e-05	4
15535	-1e-05	-3e-05	3e-05	-0.00014	0.00027	0.0003	4e-05	4e-05	4
15536	-1e-05	-3e-05	3e-05	-0.00014	0.00027	0.0003	4e-05	4e-05	4
15538	-1e-05	-3e-05	3e-05	-0.00014	0.00027	0.0003	4e-05	4e-05	4
15539	-1e-05	-3e-05	3e-05	-0.00014	0.00027	0.0003	4e-05	4e-05	4
15540	-1e-05	-3e-05	3e-05	-0.00014	0.00027	0.0003	4e-05	4e-05	4
15541	-1e-05	-3e-05	3e-05	-0.00014	0.00027	0.0003	4e-05	4e-05	4
15542	-1e-05	-3e-05	3e-05	-0.00014	0.00027	0.0003	4e-05	4e-05	4
15543	-1e-05	-3e-05	3e-05	-0.00014	0.00027	0.0003	4e-05	4e-05	4
15544	-1e-05	-3e-05	3e-05	-0.00014	0.00027	0.0003	4e-05	4e-05	4
15545	-1e-05	-3e-05	3e-05	-0.00014	0.00027	0.0003	4e-05	4e-05	4
15546	-1e-05	-3e-05	3e-05	-0.00014	0.00027	0.0003	4e-05	4e-05	4
15547	-1e-05	-3e-05	3e-05	-0.00014	0.00027	0.0003	4e-05	4e-05	4
15548	-1e-05	-3e-05	3e-05	-0.00014	0.00027	0.0003	4e-05	4e-05	4
15549	-1e-05	-3e-05	3e-05	-0.00014	0.00027	0.0003	4e-05	4e-05	4
15550	-1e-05	-3e-05	3e-05	-0.00014	0.00027	0.0003	4e-05	4e-05	4
15551	-7e-05	-5e-05	0	-7e-05	-0.00046	-0.00032	-0.00026	-6e-05	4
15552	-7e-05	-5e-05	0	-7e-05	-0.00046	-0.00032	-0.00026	-6e-05	4
15553	3e-05	8e-05	0.00017	0.00045	4e-05	0.00096	0.00012	-1e-05	4
15554	3e-05	8e-05	0.00017	0.00045	4e-05	0.00096	0.00012	-1e-05	4
15555	3e-05	8e-05	0.00017	0.00045	4e-05	0.00096	0.00012	-1e-05	4
15556	3e-05	8e-05	0.00017	0.00045	4e-05	0.00096	0.00012	-1e-05	4
15557	3e-05	8e-05	0.00017	0.00045	4e-05	0.00096	0.00012	-1e-05	4
15558	3e-05	8e-05	0.00017	0.00045	4e-05	0.00096	0.00012	-1e-05	4
15559	3e-05	8e-05	0.00017	0.00045	4e-05	0.00096	0.00012	-1e-05	4
15560	3e-05	8e-05	0.00017	0.00045	4e-05	0.00096	0.00012	-1e-05	4
15561	3e-05	8e-05	0.00017	0.00045	4e-05	0.00096	0.00012	-1e-05	4
15562	3e-05	8e-05	0.00017	0.00045	4e-05	0.00096	0.00012	-1e-05	4
15563	3e-05	8e-05	0.00017	0.00045	4e-05	0.00096	0.00012	-1e-05	4
15564	3e-05	8e-05	0.00017	0.00045	4e-05	0.00096	0.00012	-1e-05	4
15565	-8e-05	-9e-05	-8e-05	7e-05	-0.00053	-6e-05	-0.00018	-0.00015	4
15566	-8e-05	-9e-05	-8e-05	7e-05	-0.00053	-6e-05	-0.00018	-0.00015	4
15567	-8e-05	-9e-05	-8e-05	7e-05	-0.00053	-6e-05	-0.00018	-0.00015	4
15568	-8e-05	-9e-05	-8e-05	7e-05	-0.00053	-6e-05	-0.00018	-0.00015	4
15569	-8e-05	-9e-05	-8e-05	7e-05	-0.00053	-6e-05	-0.00018	-0.00015	4
15570	-8e-05	-9e-05	-8e-05	7e-05	-0.00053	-6e-05	-0.00018	-0.00015	4
15571	-8e-05	-9e-05	-8e-05	7e-05	-0.00053	-6e-05	-0.00018	-0.00015	4
15572	-8e-05	-9e-05	-8e-05	7e-05	-0.00053	-6e-05	-0.00018	-0.00015	4
15573	-6e-05	-7e-05	-3e-05	4e-05	0.00013	-0.00041	-0.00022	-0.00015	4
15574	-6e-05	-7e-05	-3e-05	4e-05	0.00013	-0.00041	-0.00022	-0.00015	4
15575	-6e-05	-7e-05	-3e-05	4e-05	0.00013	-0.00041	-0.00022	-0.00015	4
15576	-6e-05	-7e-05	-3e-05	4e-05	0.00013	-0.00041	-0.00022	-0.00015	4
15577	-6e-05	-7e-05	-3e-05	4e-05	0.00013	-0.00041	-0.00022	-0.00015	4
15578	-6e-05	-7e-05	-3e-05	4e-05	0.00013	-0.00041	-0.00022	-0.00015	4
15579	-6e-05	-7e-05	-3e-05	4e-05	0.00013	-0.00041	-0.00022	-0.00015	4
15580	-6e-05	-7e-05	-3e-05	4e-05	0.00013	-0.00041	-0.00022	-0.00015	4
15581	-6e-05	-7e-05	-3e-05	4e-05	0.00013	-0.00041	-0.00022	-0.00015	4
15582	-6e-05	-7e-05	-3e-05	4e-05	0.00013	-0.00041	-0.00022	-0.00015	4
15583	-6e-05	-7e-05	-3e-05	4e-05	0.00013	-0.00041	-0.00022	-0.00015	4
15584	-6e-05	-7e-05	-3e-05	4e-05	0.00013	-0.00041	-0.00022	-0.00015	4
15585	-6e-05	-7e-05	-3e-05	4e-05	0.00013	-0.00041	-0.00022	-0.00015	4
15586	-6e-05	-7e-05	-3e-05	4e-05	0.00013	-0.00041	-0.00022	-0.00015	4
15588	-6e-05	-7e-05	-3e-05	4e-05	0.00013	-0.00041	-0.00022	-0.00015	4
15589	-6e-05	-7e-05	-3e-05	4e-05	0.00013	-0.00041	-0.00022	-0.00015	4
15590	-6e-05	-7e-05	-3e-05	4e-05	0.00013	-0.00041	-0.00022	-0.00015	4
15591	-6e-05	-7e-05	-3e-05	4e-05	0.00013	-0.00041	-0.00022	-0.00015	4
15592	-6e-05	-7e-05	-3e-05	4e-05	0.00013	-0.00041	-0.00022	-0.00015	4
15593	-6e-05	-7e-05	-3e-05	4e-05	0.00013	-0.00041	-0.00022	-0.00015	4
15594	-6e-05	-7e-05	-3e-05	4e-05	0.00013	-0.00041	-0.00022	-0.00015	4
15595	-6e-05	-7e-05	-3e-05	4e-05	0.00013	-0.00041	-0.00022	-0.00015	4
15596	-2e-05	-5e-05	0	0.00027	0.00061	0.00025	-0.00014	1e-05	4
15597	-7e-05	-7e-05	-0.0002	-0.00034	-0.00015	-0.00067	-0.00014	2e-05	4
15598	-7e-05	-7e-05	-0.0002	-0.00034	-0.00015	-0.00067	-0.00014	2e-05	4
15599	-7e-05	-7e-05	-0.0002	-0.00034	-0.00015	-0.00067	-0.00014	2e-05	4
15600	-7e-05	-7e-05	-0.0002	-0.00034	-0.00015	-0.00067	-0.00014	2e-05	4
15601	-7e-05	-7e-05	-0.0002	-0.00034	-0.00015	-0.00067	-0.00014	2e-05	4
15602	-7e-05	-7e-05	-0.0002	-0.00034	-0.00015	-0.00067	-0.00014	2e-05	4
15603	-7e-05	-7e-05	-0.0002	-0.00034	-0.00015	-0.00067	-0.00014	2e-05	4
15604	-7e-05	-7e-05	-0.0002	-0.00034	-0.00015	-0.00067	-0.00014	2e-05	4
15605	-7e-05	-7e-05	-0.0002	-0.00034	-0.00015	-0.00067	-0.00014	2e-05	4
15606	-7e-05	-7e-05	-0.0002	-0.00034	-0.00015	-0.00067	-0.00014	2e-05	4
15607	-7e-05	-7e-05	-0.0002	-0.00034	-0.00015	-0.00067	-0.00014	2e-05	4
15608	-7e-05	-7e-05	-0.0002	-0.00034	-0.00015	-0.00067	-0.00014	2e-05	4
15609	-7e-05	-7e-05	-0.0002	-0.00034	-0.00015	-0.00067	-0.00014	2e-05	4
15610	-7e-05	-7e-05	-0.0002	-0.00034	-0.00015	-0.00067	-0.00014	2e-05	4
15611	3e-05	3e-05	2e-05	-0.00016	9e-05	0.00017	0.0001	6e-05	4
15612	1e-05	1e-05	-2e-05	-0.00011	-0.00031	-0.00024	8e-05	-2e-05	4
15613	1e-05	1e-05	-2e-05	-0.00011	-0.00031	-0.00024	8e-05	-2e-05	4
15614	1e-05	1e-05	-2e-05	-0.00011	-0.00031	-0.00024	8e-05	-2e-05	4
15615	1e-05	1e-05	-2e-05	-0.00011	-0.00031	-0.00024	8e-05	-2e-05	4
15616	1e-05	1e-05	-2e-05	-0.00011	-0.00031	-0.00024	8e-05	-2e-05	4
15617	1e-05	1e-05	-2e-05	-0.00011	-0.00031	-0.00024	8e-05	-2e-05	4
15618	1e-05	1e-05	-2e-05	-0.00011	-0.00031	-0.00024	8e-05	-2e-05	4
15619	1e-05	1e-05	-2e-05	-0.00011	-0.00031	-0.00024	8e-05	-2e-05	4
15620	1e-05	1e-05	-2e-05	-0.00011	-0.00031	-0.00024	8e-05	-2e-05	4
15621	1e-05	1e-05	-2e-05	-0.00011	-0.00031	-0.00024	8e-05	-2e-05	4
15622	1e-05	1e-05	-2e-05	-0.00011	-0.00031	-0.00024	8e-05	-2e-05	4
15623	1e-05	1e-05	-2e-05	-0.00011	-0.00031	-0.00024	8e-05	-2e-05	4
15624	1e-05	0	0	-1e-05	0.00057	0.00025	-0.00011	-6e-05	4
15625	4e-05	-2e-05	-6e-05	-0.0005	-0.00046	-8e-05	0.00018	0.00018	4
15626	4e-05	-2e-05	-6e-05	-0.0005	-0.00046	-8e-05	0.00018	0.00018	4
15627	4e-05	-2e-05	-6e-05	-0.0005	-0.00046	-8e-05	0.00018	0.00018	4
15628	4e-05	-2e-05	-6e-05	-0.0005	-0.00046	-8e-05	0.00018	0.00018	4
15629	4e-05	-2e-05	-6e-05	-0.0005	-0.00046	-8e-05	0.00018	0.00018	4
15630	4e-05	-2e-05	-6e-05	-0.0005	-0.00046	-8e-05	0.00018	0.00018	4
15631	4e-05	-2e-05	-6e-05	-0.0005	-0.00046	-8e-05	0.00018	0.00018	4
15632	4e-05	-2e-05	-6e-05	-0.0005	-0.00046	-8e-05	0.00018	0.00018	4
15633	4e-05	-2e-05	-6e-05	-0.0005	-0.00046	-8e-05	0.00018	0.00018	4
15634	4e-05	-2e-05	-6e-05	-0.0005	-0.00046	-8e-05	0.00018	0.00018	4
15635	4e-05	-2e-05	-6e-05	-0.0005	-0.00046	-8e-05	0.00018	0.00018	4
15636	4e-05	-2e-05	-6e-05	-0.0005	-0.00046	-8e-05	0.00018	0.00018	4
15638	4e-05	-2e-05	-6e-05	-0.0005	-0.00046	-8e-05	0.00018	0.00018	4
15639	4e-05	-2e-05	-6e-05	-0.0005	-0.00046	-8e-05	0.00018	0.00018	4
15640	4e-05	-2e-05	-6e-05	-0.0005	-0.00046	-8e-05	0.00018	0.00018	4
15641	4e-05	-2e-05	-6e-05	-0.0005	-0.00046	-8e-05	0.00018	0.00018	4
15642	-4e-05	1e-05	-1e-05	-0.0002	-0.00043	-0.00017	5e-05	-4e-05	4
15643	-4e-05	1e-05	-1e-05	-0.0002	-0.00043	-0.00017	5e-05	-4e-05	4
15644	-4e-05	1e-05	-1e-05	-0.0002	-0.00043	-0.00017	5e-05	-4e-05	4
15645	-4e-05	1e-05	-1e-05	-0.0002	-0.00043	-0.00017	5e-05	-4e-05	4
15646	-4e-05	1e-05	-1e-05	-0.0002	-0.00043	-0.00017	5e-05	-4e-05	4
15647	-4e-05	1e-05	-1e-05	-0.0002	-0.00043	-0.00017	5e-05	-4e-05	4
15648	-1e-05	3e-05	-2e-05	1e-05	0.00014	0.00025	-8e-05	-0.0001	4
15649	-1e-05	3e-05	-2e-05	1e-05	0.00014	0.00025	-8e-05	-0.0001	4
15650	-2e-05	-7e-05	-2e-05	0.00013	0.00067	0.00032	-0.00012	-0.00011	4
15651	-2e-05	-7e-05	-2e-05	0.00013	0.00067	0.00032	-0.00012	-0.00011	4
15653	-2e-05	-7e-05	-2e-05	0.00013	0.00067	0.00032	-0.00012	-0.00011	4
15654	-2e-05	-7e-05	-2e-05	0.00013	0.00067	0.00032	-0.00012	-0.00011	4
15655	-2e-05	-7e-05	-2e-05	0.00013	0.00067	0.00032	-0.00012	-0.00011	4
15656	-2e-05	-7e-05	-2e-05	0.00013	0.00067	0.00032	-0.00012	-0.00011	4
15657	-2e-05	-7e-05	-2e-05	0.00013	0.00067	0.00032	-0.00012	-0.00011	4
15658	-2e-05	-7e-05	-2e-05	0.00013	0.00067	0.00032	-0.00012	-0.00011	4
15659	-2e-05	-7e-05	-2e-05	0.00013	0.00067	0.00032	-0.00012	-0.00011	4
15660	-2e-05	-7e-05	-2e-05	0.00013	0.00067	0.00032	-0.00012	-0.00011	4
15661	-2e-05	-7e-05	-2e-05	0.00013	0.00067	0.00032	-0.00012	-0.00011	4
15662	-2e-05	-7e-05	-2e-05	0.00013	0.00067	0.00032	-0.00012	-0.00011	4
15663	-2e-05	-7e-05	-2e-05	0.00013	0.00067	0.00032	-0.00012	-0.00011	4
15664	-2e-05	-7e-05	-2e-05	0.00013	0.00067	0.00032	-0.00012	-0.00011	4
15665	-2e-05	-7e-05	-2e-05	0.00013	0.00067	0.00032	-0.00012	-0.00011	4
15666	-2e-05	-7e-05	-2e-05	0.00013	0.00067	0.00032	-0.00012	-0.00011	4
15667	-2e-05	-7e-05	-2e-05	0.00013	0.00067	0.00032	-0.00012	-0.00011	4
15668	-2e-05	-7e-05	-2e-05	0.00013	0.00067	0.00032	-0.00012	-0.00011	4
15669	-2e-05	-7e-05	-2e-05	0.00013	0.00067	0.00032	-0.00012	-0.00011	4
15670	-2e-05	-7e-05	-2e-05	0.00013	0.00067	0.00032	-0.00012	-0.00011	4
15671	-3e-05	-4e-05	0	0.00035	-0.00013	-0.00025	-8e-05	0.00017	4
15672	-5e-05	-6e-05	-0.0001	-0.00025	-0.00027	-0.00055	-0.0001	5e-05	4
15673	-5e-05	-6e-05	-0.0001	-0.00025	-0.00027	-0.00055	-0.0001	5e-05	4
15674	-5e-05	-6e-05	-0.0001	-0.00025	-0.00027	-0.00055	-0.0001	5e-05	4
15675	-5e-05	-6e-05	-0.0001	-0.00025	-0.00027	-0.00055	-0.0001	5e-05	4
15676	-5e-05	-6e-05	-0.0001	-0.00025	-0.00027	-0.00055	-0.0001	5e-05	4
15677	-5e-05	-6e-05	-0.0001	-0.00025	-0.00027	-0.00055	-0.0001	5e-05	4
15678	-5e-05	-6e-05	-0.0001	-0.00025	-0.00027	-0.00055	-0.0001	5e-05	4
15679	-5e-05	-6e-05	-0.0001	-0.00025	-0.00027	-0.00055	-0.0001	5e-05	4
15680	-5e-05	-6e-05	-0.0001	-0.00025	-0.00027	-0.00055	-0.0001	5e-05	4
15681	-5e-05	-6e-05	-0.0001	-0.00025	-0.00027	-0.00055	-0.0001	5e-05	4
15682	-5e-05	-6e-05	-0.0001	-0.00025	-0.00027	-0.00055	-0.0001	5e-05	4
15683	-5e-05	-6e-05	-0.0001	-0.00025	-0.00027	-0.00055	-0.0001	5e-05	4
15684	-5e-05	-6e-05	-0.0001	-0.00025	-0.00027	-0.00055	-0.0001	5e-05	4
15685	-5e-05	-6e-05	-0.0001	-0.00025	-0.00027	-0.00055	-0.0001	5e-05	4
15686	-5e-05	-6e-05	-0.0001	-0.00025	-0.00027	-0.00055	-0.0001	5e-05	4
15688	-5e-05	-6e-05	-0.0001	-0.00025	-0.00027	-0.00055	-0.0001	5e-05	4
15689	-5e-05	-6e-05	-0.0001	-0.00025	-0.00027	-0.00055	-0.0001	5e-05	4
15690	-5e-05	-6e-05	-0.0001	-0.00025	-0.00027	-0.00055	-0.0001	5e-05	4
15691	-5e-05	-6e-05	-0.0001	-0.00025	-0.00027	-0.00055	-0.0001	5e-05	4
15692	-5e-05	-6e-05	-0.0001	-0.00025	-0.00027	-0.00055	-0.0001	5e-05	4
15693	-5e-05	-6e-05	-0.0001	-0.00025	-0.00027	-0.00055	-0.0001	5e-05	4
15694	0	1e-05	5e-05	6e-05	-0.00028	0.00064	0.0001	1e-05	4
15695	-1e-05	-3e-05	-2e-05	9e-05	2e-05	0.0004	-7e-05	-1e-05	4
15696	-1e-05	-3e-05	-2e-05	9e-05	2e-05	0.0004	-7e-05	-1e-05	4
15697	-1e-05	-3e-05	-2e-05	9e-05	2e-05	0.0004	-7e-05	-1e-05	4
15698	-1e-05	-3e-05	-2e-05	9e-05	2e-05	0.0004	-7e-05	-1e-05	4
15700	-1e-05	-3e-05	-2e-05	9e-05	2e-05	0.0004	-7e-05	-1e-05	4
15701	-1e-05	-3e-05	-2e-05	9e-05	2e-05	0.0004	-7e-05	-1e-05	4
15702	-1e-05	-3e-05	-2e-05	9e-05	2e-05	0.0004	-7e-05	-1e-05	4
15703	-1e-05	-3e-05	-2e-05	9e-05	2e-05	0.0004	-7e-05	-1e-05	4
15704	-1e-05	-3e-05	-2e-05	9e-05	2e-05	0.0004	-7e-05	-1e-05	4
15705	-1e-05	-3e-05	-2e-05	9e-05	2e-05	0.0004	-7e-05	-1e-05	4
15706	-1e-05	-3e-05	-2e-05	9e-05	2e-05	0.0004	-7e-05	-1e-05	4
15707	-1e-05	-3e-05	-2e-05	9e-05	2e-05	0.0004	-7e-05	-1e-05	4
15708	2e-05	3e-05	-2e-05	-0.00025	-0.0006	3e-05	-6e-05	-6e-05	4
15709	2e-05	3e-05	-2e-05	-0.00025	-0.0006	3e-05	-6e-05	-6e-05	4
15710	2e-05	3e-05	-2e-05	-0.00025	-0.0006	3e-05	-6e-05	-6e-05	4
15711	1e-05	1e-05	3e-05	0.00025	-0.00022	-7e-05	5e-05	-3e-05	4
15712	1e-05	1e-05	3e-05	0.00025	-0.00022	-7e-05	5e-05	-3e-05	4
15713	1e-05	1e-05	3e-05	0.00025	-0.00022	-7e-05	5e-05	-3e-05	4
15714	1e-05	1e-05	3e-05	0.00025	-0.00022	-7e-05	5e-05	-3e-05	4
15715	1e-05	1e-05	3e-05	0.00025	-0.00022	-7e-05	5e-05	-3e-05	4
15716	1e-05	1e-05	3e-05	0.00025	-0.00022	-7e-05	5e-05	-3e-05	4
15717	1e-05	1e-05	3e-05	0.00025	-0.00022	-7e-05	5e-05	-3e-05	4
15718	1e-05	1e-05	3e-05	0.00025	-0.00022	-7e-05	5e-05	-3e-05	4
15719	1e-05	1e-05	3e-05	0.00025	-0.00022	-7e-05	5e-05	-3e-05	4
15720	1e-05	1e-05	3e-05	0.00025	-0.00022	-7e-05	5e-05	-3e-05	4
15721	1e-05	1e-05	3e-05	0.00025	-0.00022	-7e-05	5e-05	-3e-05	4
15722	1e-05	1e-05	3e-05	0.00025	-0.00022	-7e-05	5e-05	-3e-05	4
15723	1e-05	1e-05	3e-05	0.00025	-0.00022	-7e-05	5e-05	-3e-05	4
15724	1e-05	1e-05	3e-05	0.00025	-0.00022	-7e-05	5e-05	-3e-05	4
15725	1e-05	1e-05	3e-05	0.00025	-0.00022	-7e-05	5e-05	-3e-05	4
15726	1e-05	1e-05	3e-05	0.00025	-0.00022	-7e-05	5e-05	-3e-05	4
15727	1e-05	1e-05	3e-05	0.00025	-0.00022	-7e-05	5e-05	-3e-05	4
15728	1e-05	1e-05	3e-05	0.00025	-0.00022	-7e-05	5e-05	-3e-05	4
15729	1e-05	1e-05	3e-05	0.00025	-0.00022	-7e-05	5e-05	-3e-05	4
15730	1e-05	1e-05	3e-05	0.00025	-0.00022	-7e-05	5e-05	-3e-05	4
15731	-3e-05	-6e-05	-0.00014	-0.00038	0.00021	0.00046	-3e-05	0.00018	4
15732	-3e-05	-6e-05	-0.00014	-0.00038	0.00021	0.00046	-3e-05	0.00018	4
15733	1e-05	2e-05	2e-05	-6e-05	-0.00026	0.00025	9e-05	2e-05	4
15734	1e-05	2e-05	2e-05	-6e-05	-0.00026	0.00025	9e-05	2e-05	4
15735	1e-05	2e-05	2e-05	-6e-05	-0.00026	0.00025	9e-05	2e-05	4
15736	1e-05	2e-05	2e-05	-6e-05	-0.00026	0.00025	9e-05	2e-05	4
15738	1e-05	2e-05	2e-05	-6e-05	-0.00026	0.00025	9e-05	2e-05	4
15739	1e-05	2e-05	2e-05	-6e-05	-0.00026	0.00025	9e-05	2e-05	4
15740	1e-05	2e-05	2e-05	-6e-05	-0.00026	0.00025	9e-05	2e-05	4
15741	1e-05	2e-05	2e-05	-6e-05	-0.00026	0.00025	9e-05	2e-05	4
15742	1e-05	2e-05	2e-05	-6e-05	-0.00026	0.00025	9e-05	2e-05	4
15743	1e-05	2e-05	2e-05	-6e-05	-0.00026	0.00025	9e-05	2e-05	4
15744	1e-05	2e-05	2e-05	-6e-05	-0.00026	0.00025	9e-05	2e-05	4
15745	0.00011	0.00015	8e-05	-0.00022	-6e-05	0.00034	0.00041	0.00021	4
15746	0.00011	0.00015	8e-05	-0.00022	-6e-05	0.00034	0.00041	0.00021	4
15747	0.00011	0.00015	8e-05	-0.00022	-6e-05	0.00034	0.00041	0.00021	4
15748	0.00011	0.00015	8e-05	-0.00022	-6e-05	0.00034	0.00041	0.00021	4
15749	0.00011	0.00015	8e-05	-0.00022	-6e-05	0.00034	0.00041	0.00021	4
15750	0.00011	0.00015	8e-05	-0.00022	-6e-05	0.00034	0.00041	0.00021	4
15751	0.00011	0.00015	8e-05	-0.00022	-6e-05	0.00034	0.00041	0.00021	4
15752	0.00011	0.00015	8e-05	-0.00022	-6e-05	0.00034	0.00041	0.00021	4
15753	-3e-05	0	-2e-05	-0.00036	-0.0005	-0.00072	-0.00012	-0.00013	4
15754	-3e-05	0	-2e-05	-0.00036	-0.0005	-0.00072	-0.00012	-0.00013	4
15755	-3e-05	0	-2e-05	-0.00036	-0.0005	-0.00072	-0.00012	-0.00013	4
15756	-3e-05	0	-2e-05	-0.00036	-0.0005	-0.00072	-0.00012	-0.00013	4
15757	-3e-05	0	-2e-05	-0.00036	-0.0005	-0.00072	-0.00012	-0.00013	4
15758	-3e-05	0	-2e-05	-0.00036	-0.0005	-0.00072	-0.00012	-0.00013	4
15759	-3e-05	0	-2e-05	-0.00036	-0.0005	-0.00072	-0.00012	-0.00013	4
15760	-3e-05	0	-2e-05	-0.00036	-0.0005	-0.00072	-0.00012	-0.00013	4
15761	-3e-05	0	-2e-05	-0.00036	-0.0005	-0.00072	-0.00012	-0.00013	4
15762	-3e-05	0	-2e-05	-0.00036	-0.0005	-0.00072	-0.00012	-0.00013	4
15763	-3e-05	0	-2e-05	-0.00036	-0.0005	-0.00072	-0.00012	-0.00013	4
15764	-3e-05	0	-2e-05	-0.00036	-0.0005	-0.00072	-0.00012	-0.00013	4
15765	-3e-05	0	-2e-05	-0.00036	-0.0005	-0.00072	-0.00012	-0.00013	4
15766	-3e-05	0	-2e-05	-0.00036	-0.0005	-0.00072	-0.00012	-0.00013	4
15767	-3e-05	0	-2e-05	-0.00036	-0.0005	-0.00072	-0.00012	-0.00013	4
15768	-8e-05	-0.00017	-0.00014	5e-05	0.0002	-0.00054	-0.00011	-4e-05	4
15769	-8e-05	-0.00017	-0.00014	5e-05	0.0002	-0.00054	-0.00011	-4e-05	4
15770	-8e-05	-0.00017	-0.00014	5e-05	0.0002	-0.00054	-0.00011	-4e-05	4
15771	-8e-05	-0.00017	-0.00014	5e-05	0.0002	-0.00054	-0.00011	-4e-05	4
15772	-8e-05	-0.00017	-0.00014	5e-05	0.0002	-0.00054	-0.00011	-4e-05	4
15773	-8e-05	-0.00017	-0.00014	5e-05	0.0002	-0.00054	-0.00011	-4e-05	4
15774	-8e-05	-0.00017	-0.00014	5e-05	0.0002	-0.00054	-0.00011	-4e-05	4
15775	-8e-05	-0.00017	-0.00014	5e-05	0.0002	-0.00054	-0.00011	-4e-05	4
15776	-8e-05	-0.00017	-0.00014	5e-05	0.0002	-0.00054	-0.00011	-4e-05	4
15777	-8e-05	-0.00017	-0.00014	5e-05	0.0002	-0.00054	-0.00011	-4e-05	4
15778	-8e-05	-0.00017	-0.00014	5e-05	0.0002	-0.00054	-0.00011	-4e-05	4
15779	-8e-05	-0.00017	-0.00014	5e-05	0.0002	-0.00054	-0.00011	-4e-05	4
15780	-8e-05	-0.00017	-0.00014	5e-05	0.0002	-0.00054	-0.00011	-4e-05	4
15781	-8e-05	-0.00017	-0.00014	5e-05	0.0002	-0.00054	-0.00011	-4e-05	4
15782	-8e-05	-0.00017	-0.00014	5e-05	0.0002	-0.00054	-0.00011	-4e-05	4
15783	-6e-05	-5e-05	-0.00011	-0.00038	-0.00052	-0.00077	0	-9e-05	4
15784	-6e-05	-5e-05	-0.00011	-0.00038	-0.00052	-0.00077	0	-9e-05	4
15785	-6e-05	-5e-05	-0.00011	-0.00038	-0.00052	-0.00077	0	-9e-05	4
15786	-6e-05	-5e-05	-0.00011	-0.00038	-0.00052	-0.00077	0	-9e-05	4
15788	-6e-05	-5e-05	-0.00011	-0.00038	-0.00052	-0.00077	0	-9e-05	4
15789	-6e-05	-5e-05	-0.00011	-0.00038	-0.00052	-0.00077	0	-9e-05	4
15790	-6e-05	-5e-05	-0.00011	-0.00038	-0.00052	-0.00077	0	-9e-05	4
15791	-2e-05	0.0001	9e-05	5e-05	-0.00023	0.00042	-9e-05	-0.00021	4
15792	-2e-05	0.0001	9e-05	5e-05	-0.00023	0.00042	-9e-05	-0.00021	4
15793	0	-1e-05	-2e-05	-0.00017	-6e-05	0.00053	-3e-05	5e-05	4
15794	0	-1e-05	-2e-05	-0.00017	-6e-05	0.00053	-3e-05	5e-05	4
15795	0	-1e-05	-2e-05	-0.00017	-6e-05	0.00053	-3e-05	5e-05	4
15796	0	-1e-05	-2e-05	-0.00017	-6e-05	0.00053	-3e-05	5e-05	4
15797	0	-1e-05	-2e-05	-0.00017	-6e-05	0.00053	-3e-05	5e-05	4
15798	0	-1e-05	-2e-05	-0.00017	-6e-05	0.00053	-3e-05	5e-05	4
15799	0	-1e-05	-2e-05	-0.00017	-6e-05	0.00053	-3e-05	5e-05	4
15800	0	-1e-05	-2e-05	-0.00017	-6e-05	0.00053	-3e-05	5e-05	4
15801	0	-1e-05	-2e-05	-0.00017	-6e-05	0.00053	-3e-05	5e-05	4
15802	0	-1e-05	-2e-05	-0.00017	-6e-05	0.00053	-3e-05	5e-05	4
15803	0	-1e-05	-2e-05	-0.00017	-6e-05	0.00053	-3e-05	5e-05	4
15804	-4e-05	-3e-05	-3e-05	3e-05	9e-05	-0.00082	-0.0002	-0.0001	4
15805	-2e-05	-7e-05	-1e-05	5e-05	2e-05	0.00053	0.00012	-6e-05	4
15806	-2e-05	-7e-05	-1e-05	5e-05	2e-05	0.00053	0.00012	-6e-05	4
15807	-2e-05	-7e-05	-1e-05	5e-05	2e-05	0.00053	0.00012	-6e-05	4
15808	-2e-05	-7e-05	-1e-05	5e-05	2e-05	0.00053	0.00012	-6e-05	4
15809	-2e-05	-7e-05	-1e-05	5e-05	2e-05	0.00053	0.00012	-6e-05	4
15810	-2e-05	-7e-05	-1e-05	5e-05	2e-05	0.00053	0.00012	-6e-05	4
15811	-2e-05	-7e-05	-1e-05	5e-05	2e-05	0.00053	0.00012	-6e-05	4
15812	-2e-05	-7e-05	-1e-05	5e-05	2e-05	0.00053	0.00012	-6e-05	4
15813	-2e-05	-7e-05	-1e-05	5e-05	2e-05	0.00053	0.00012	-6e-05	4
15814	-2e-05	-7e-05	-1e-05	5e-05	2e-05	0.00053	0.00012	-6e-05	4
15815	-2e-05	-7e-05	-1e-05	5e-05	2e-05	0.00053	0.00012	-6e-05	4
15816	-2e-05	-7e-05	-1e-05	5e-05	2e-05	0.00053	0.00012	-6e-05	4
15817	-2e-05	-7e-05	-1e-05	5e-05	2e-05	0.00053	0.00012	-6e-05	4
15818	-2e-05	-7e-05	-1e-05	5e-05	2e-05	0.00053	0.00012	-6e-05	4
15819	-2e-05	-7e-05	-1e-05	5e-05	2e-05	0.00053	0.00012	-6e-05	4
15820	-2e-05	-7e-05	-1e-05	5e-05	2e-05	0.00053	0.00012	-6e-05	4
15821	-2e-05	-7e-05	-1e-05	5e-05	2e-05	0.00053	0.00012	-6e-05	4
15822	-2e-05	-7e-05	-1e-05	5e-05	2e-05	0.00053	0.00012	-6e-05	4
15823	-2e-05	-7e-05	-1e-05	5e-05	2e-05	0.00053	0.00012	-6e-05	4
15824	-2e-05	-7e-05	-1e-05	5e-05	2e-05	0.00053	0.00012	-6e-05	4
15825	-2e-05	-7e-05	-1e-05	5e-05	2e-05	0.00053	0.00012	-6e-05	4
15826	-2e-05	-7e-05	-1e-05	5e-05	2e-05	0.00053	0.00012	-6e-05	4
15827	-2e-05	-7e-05	-1e-05	5e-05	2e-05	0.00053	0.00012	-6e-05	4
15828	-2e-05	-7e-05	-1e-05	5e-05	2e-05	0.00053	0.00012	-6e-05	4
15829	-2e-05	-3e-05	-3e-05	0.00017	0.00046	0.00046	-4e-05	-5e-05	4
15830	3e-05	2e-05	5e-05	4e-05	-0.00091	-0.00032	0.00015	0.00018	4
15831	3e-05	2e-05	5e-05	4e-05	-0.00091	-0.00032	0.00015	0.00018	4
15832	3e-05	2e-05	5e-05	4e-05	-0.00091	-0.00032	0.00015	0.00018	4
15833	3e-05	2e-05	5e-05	4e-05	-0.00091	-0.00032	0.00015	0.00018	4
15834	3e-05	2e-05	5e-05	4e-05	-0.00091	-0.00032	0.00015	0.00018	4
15835	3e-05	2e-05	5e-05	4e-05	-0.00091	-0.00032	0.00015	0.00018	4
15836	0.00012	4e-05	5e-05	0.00022	0.00035	0.00024	0.00035	0.00042	4
15838	0.00012	4e-05	5e-05	0.00022	0.00035	0.00024	0.00035	0.00042	4
15840	0.00012	4e-05	5e-05	0.00022	0.00035	0.00024	0.00035	0.00042	4
15841	0.00012	4e-05	5e-05	0.00022	0.00035	0.00024	0.00035	0.00042	4
15842	0.00012	4e-05	5e-05	0.00022	0.00035	0.00024	0.00035	0.00042	4
15843	0.00012	4e-05	5e-05	0.00022	0.00035	0.00024	0.00035	0.00042	4
15844	0.00012	4e-05	5e-05	0.00022	0.00035	0.00024	0.00035	0.00042	4
15845	0.00012	4e-05	5e-05	0.00022	0.00035	0.00024	0.00035	0.00042	4
15846	0.00012	4e-05	5e-05	0.00022	0.00035	0.00024	0.00035	0.00042	4
15847	0.00012	4e-05	5e-05	0.00022	0.00035	0.00024	0.00035	0.00042	4
15848	0.00012	4e-05	5e-05	0.00022	0.00035	0.00024	0.00035	0.00042	4
15849	0.00012	4e-05	5e-05	0.00022	0.00035	0.00024	0.00035	0.00042	4
15850	0.00012	4e-05	5e-05	0.00022	0.00035	0.00024	0.00035	0.00042	4
15851	-1e-05	-4e-05	-1e-05	4e-05	-0.00015	-0.00032	-4e-05	-4e-05	4
15852	1e-05	-4e-05	-4e-05	-0.00031	0.00026	-9e-05	2e-05	7e-05	4
15853	-3e-05	7e-05	0.00011	0.00018	-0.00029	-5e-05	-3e-05	-0.0001	4
15854	-3e-05	7e-05	0.00011	0.00018	-0.00029	-5e-05	-3e-05	-0.0001	4
15855	-3e-05	7e-05	0.00011	0.00018	-0.00029	-5e-05	-3e-05	-0.0001	4
15856	-3e-05	7e-05	0.00011	0.00018	-0.00029	-5e-05	-3e-05	-0.0001	4
15857	-3e-05	7e-05	0.00011	0.00018	-0.00029	-5e-05	-3e-05	-0.0001	4
15858	-3e-05	7e-05	0.00011	0.00018	-0.00029	-5e-05	-3e-05	-0.0001	4
15859	-3e-05	7e-05	0.00011	0.00018	-0.00029	-5e-05	-3e-05	-0.0001	4
15860	-3e-05	7e-05	0.00011	0.00018	-0.00029	-5e-05	-3e-05	-0.0001	4
15861	-3e-05	7e-05	0.00011	0.00018	-0.00029	-5e-05	-3e-05	-0.0001	4
15862	-3e-05	7e-05	0.00011	0.00018	-0.00029	-5e-05	-3e-05	-0.0001	4
15863	-3e-05	7e-05	0.00011	0.00018	-0.00029	-5e-05	-3e-05	-0.0001	4
15864	-3e-05	7e-05	0.00011	0.00018	-0.00029	-5e-05	-3e-05	-0.0001	4
15865	-3e-05	7e-05	0.00011	0.00018	-0.00029	-5e-05	-3e-05	-0.0001	4
15866	-3e-05	7e-05	0.00011	0.00018	-0.00029	-5e-05	-3e-05	-0.0001	4
15867	-3e-05	7e-05	0.00011	0.00018	-0.00029	-5e-05	-3e-05	-0.0001	4
15868	-3e-05	7e-05	0.00011	0.00018	-0.00029	-5e-05	-3e-05	-0.0001	4
15869	-3e-05	7e-05	0.00011	0.00018	-0.00029	-5e-05	-3e-05	-0.0001	4
15870	-3e-05	7e-05	0.00011	0.00018	-0.00029	-5e-05	-3e-05	-0.0001	4
15871	-3e-05	7e-05	0.00011	0.00018	-0.00029	-5e-05	-3e-05	-0.0001	4
15872	-3e-05	7e-05	0.00011	0.00018	-0.00029	-5e-05	-3e-05	-0.0001	4
15873	-2e-05	-0.0001	-8e-05	0.0001	0.00073	-0.0004	6e-05	3e-05	4
15874	-2e-05	-0.0001	-8e-05	0.0001	0.00073	-0.0004	6e-05	3e-05	4
15875	-4e-05	4e-05	0.0001	0.00047	0.00013	0.00036	-4e-05	-0.00014	4
15876	-4e-05	4e-05	0.0001	0.00047	0.00013	0.00036	-4e-05	-0.00014	4
15877	-4e-05	4e-05	0.0001	0.00047	0.00013	0.00036	-4e-05	-0.00014	4
15878	-4e-05	4e-05	0.0001	0.00047	0.00013	0.00036	-4e-05	-0.00014	4
15879	-4e-05	4e-05	0.0001	0.00047	0.00013	0.00036	-4e-05	-0.00014	4
15880	-4e-05	4e-05	0.0001	0.00047	0.00013	0.00036	-4e-05	-0.00014	4
15881	-4e-05	4e-05	0.0001	0.00047	0.00013	0.00036	-4e-05	-0.00014	4
15882	-4e-05	4e-05	0.0001	0.00047	0.00013	0.00036	-4e-05	-0.00014	4
15883	-4e-05	4e-05	0.0001	0.00047	0.00013	0.00036	-4e-05	-0.00014	4
15884	-4e-05	4e-05	0.0001	0.00047	0.00013	0.00036	-4e-05	-0.00014	4
15885	-4e-05	4e-05	0.0001	0.00047	0.00013	0.00036	-4e-05	-0.00014	4
15886	-4e-05	4e-05	0.0001	0.00047	0.00013	0.00036	-4e-05	-0.00014	4
15888	-4e-05	4e-05	0.0001	0.00047	0.00013	0.00036	-4e-05	-0.00014	4
15889	-3e-05	0	4e-05	0.00022	0.00058	-0.00011	-4e-05	3e-05	4
15890	-3e-05	-3e-05	-4e-05	1e-05	0.00074	8e-05	-7e-05	-6e-05	4
15891	-3e-05	-3e-05	-4e-05	1e-05	0.00074	8e-05	-7e-05	-6e-05	4
15892	-3e-05	-3e-05	-4e-05	1e-05	0.00074	8e-05	-7e-05	-6e-05	4
15893	-3e-05	-3e-05	-4e-05	1e-05	0.00074	8e-05	-7e-05	-6e-05	4
15894	-3e-05	-3e-05	-4e-05	1e-05	0.00074	8e-05	-7e-05	-6e-05	4
15895	-3e-05	-3e-05	-4e-05	1e-05	0.00074	8e-05	-7e-05	-6e-05	4
15896	-3e-05	-3e-05	-4e-05	1e-05	0.00074	8e-05	-7e-05	-6e-05	4
15897	-3e-05	-3e-05	-4e-05	1e-05	0.00074	8e-05	-7e-05	-6e-05	4
15898	-3e-05	-3e-05	-4e-05	1e-05	0.00074	8e-05	-7e-05	-6e-05	4
15899	-3e-05	-3e-05	-4e-05	1e-05	0.00074	8e-05	-7e-05	-6e-05	4
15900	-3e-05	-3e-05	-4e-05	1e-05	0.00074	8e-05	-7e-05	-6e-05	4
15901	-3e-05	-3e-05	-4e-05	1e-05	0.00074	8e-05	-7e-05	-6e-05	4
15902	-3e-05	-3e-05	-4e-05	1e-05	0.00074	8e-05	-7e-05	-6e-05	4
15903	-3e-05	-3e-05	-4e-05	1e-05	0.00074	8e-05	-7e-05	-6e-05	4
15904	-3e-05	-3e-05	-4e-05	1e-05	0.00074	8e-05	-7e-05	-6e-05	4
15905	-3e-05	-3e-05	-4e-05	1e-05	0.00074	8e-05	-7e-05	-6e-05	4
15906	-3e-05	-3e-05	-4e-05	1e-05	0.00074	8e-05	-7e-05	-6e-05	4
15907	-3e-05	-3e-05	-4e-05	1e-05	0.00074	8e-05	-7e-05	-6e-05	4
15908	-3e-05	-3e-05	-4e-05	1e-05	0.00074	8e-05	-7e-05	-6e-05	4
15909	-3e-05	-3e-05	-4e-05	1e-05	0.00074	8e-05	-7e-05	-6e-05	4
15910	-3e-05	-3e-05	-4e-05	1e-05	0.00074	8e-05	-7e-05	-6e-05	4
15911	-3e-05	-3e-05	-4e-05	1e-05	0.00074	8e-05	-7e-05	-6e-05	4
15912	-3e-05	-3e-05	-4e-05	1e-05	0.00074	8e-05	-7e-05	-6e-05	4
15913	-3e-05	-3e-05	-4e-05	1e-05	0.00074	8e-05	-7e-05	-6e-05	4
15914	-3e-05	-3e-05	-4e-05	1e-05	0.00074	8e-05	-7e-05	-6e-05	4
15915	-3e-05	-3e-05	-4e-05	1e-05	0.00074	8e-05	-7e-05	-6e-05	4
15916	-3e-05	-3e-05	-4e-05	1e-05	0.00074	8e-05	-7e-05	-6e-05	4
15917	-3e-05	-3e-05	-4e-05	1e-05	0.00074	8e-05	-7e-05	-6e-05	4
15918	1e-05	3e-05	-1e-05	-0.00026	-8e-05	5e-05	-0.00012	-0.00011	4
15919	1e-05	3e-05	-1e-05	-0.00026	-8e-05	5e-05	-0.00012	-0.00011	4
15920	-7e-05	-0.0001	-0.00012	-4e-05	0.00092	6e-05	-9e-05	4e-05	4
15921	-7e-05	-0.0001	-0.00012	-4e-05	0.00092	6e-05	-9e-05	4e-05	4
15922	-7e-05	-0.0001	-0.00012	-4e-05	0.00092	6e-05	-9e-05	4e-05	4
15923	-7e-05	-0.0001	-0.00012	-4e-05	0.00092	6e-05	-9e-05	4e-05	4
15924	5e-05	0.00013	0.00018	0.0003	-0.00029	0.00039	-7e-05	-0.00013	4
15925	-2e-05	3e-05	3e-05	0.00011	0.00063	0.00054	-1e-05	-7e-05	4
15926	-2e-05	3e-05	3e-05	0.00011	0.00063	0.00054	-1e-05	-7e-05	4
15927	-2e-05	3e-05	3e-05	0.00011	0.00063	0.00054	-1e-05	-7e-05	4
15928	-2e-05	3e-05	3e-05	0.00011	0.00063	0.00054	-1e-05	-7e-05	4
15929	-2e-05	3e-05	3e-05	0.00011	0.00063	0.00054	-1e-05	-7e-05	4
15930	-2e-05	3e-05	3e-05	0.00011	0.00063	0.00054	-1e-05	-7e-05	4
15931	-2e-05	3e-05	3e-05	0.00011	0.00063	0.00054	-1e-05	-7e-05	4
15932	-2e-05	3e-05	3e-05	0.00011	0.00063	0.00054	-1e-05	-7e-05	4
15933	-5e-05	-9e-05	-0.00011	-0.00024	-0.00029	-0.00076	-0.00019	-1e-05	4
15934	-5e-05	-9e-05	-0.00011	-0.00024	-0.00029	-0.00076	-0.00019	-1e-05	4
15935	-5e-05	-9e-05	-0.00011	-0.00024	-0.00029	-0.00076	-0.00019	-1e-05	4
15936	-5e-05	-9e-05	-0.00011	-0.00024	-0.00029	-0.00076	-0.00019	-1e-05	4
15938	-5e-05	-9e-05	-0.00011	-0.00024	-0.00029	-0.00076	-0.00019	-1e-05	4
15939	-5e-05	-9e-05	-0.00011	-0.00024	-0.00029	-0.00076	-0.00019	-1e-05	4
15940	-5e-05	-9e-05	-0.00011	-0.00024	-0.00029	-0.00076	-0.00019	-1e-05	4
15941	-5e-05	-9e-05	-0.00011	-0.00024	-0.00029	-0.00076	-0.00019	-1e-05	4
15942	-5e-05	-9e-05	-0.00011	-0.00024	-0.00029	-0.00076	-0.00019	-1e-05	4
15943	-5e-05	-9e-05	-0.00011	-0.00024	-0.00029	-0.00076	-0.00019	-1e-05	4
15944	-5e-05	-9e-05	-0.00011	-0.00024	-0.00029	-0.00076	-0.00019	-1e-05	4
15945	-5e-05	-9e-05	-0.00011	-0.00024	-0.00029	-0.00076	-0.00019	-1e-05	4
15946	-5e-05	-9e-05	-0.00011	-0.00024	-0.00029	-0.00076	-0.00019	-1e-05	4
15947	-5e-05	-9e-05	-0.00011	-0.00024	-0.00029	-0.00076	-0.00019	-1e-05	4
15948	-2e-05	-1e-05	-2e-05	-2e-05	0.00043	0.00022	-3e-05	-0.0001	4
15949	-2e-05	-1e-05	-2e-05	-2e-05	0.00043	0.00022	-3e-05	-0.0001	4
15950	-3e-05	-0.0001	-8e-05	-8e-05	-0.00028	7e-05	5e-05	1e-05	4
15951	-3e-05	-0.0001	-8e-05	-8e-05	-0.00028	7e-05	5e-05	1e-05	4
15952	-3e-05	-0.0001	-8e-05	-8e-05	-0.00028	7e-05	5e-05	1e-05	4
15953	-3e-05	-0.0001	-8e-05	-8e-05	-0.00028	7e-05	5e-05	1e-05	4
15954	-3e-05	-0.0001	-8e-05	-8e-05	-0.00028	7e-05	5e-05	1e-05	4
15955	-3e-05	-0.0001	-8e-05	-8e-05	-0.00028	7e-05	5e-05	1e-05	4
15956	-3e-05	-0.0001	-8e-05	-8e-05	-0.00028	7e-05	5e-05	1e-05	4
15957	-3e-05	-0.0001	-8e-05	-8e-05	-0.00028	7e-05	5e-05	1e-05	4
15958	-3e-05	-0.0001	-8e-05	-8e-05	-0.00028	7e-05	5e-05	1e-05	4
15959	-3e-05	-0.0001	-8e-05	-8e-05	-0.00028	7e-05	5e-05	1e-05	4
15960	-3e-05	-0.0001	-8e-05	-8e-05	-0.00028	7e-05	5e-05	1e-05	4
15962	-3e-05	-0.0001	-8e-05	-8e-05	-0.00028	7e-05	5e-05	1e-05	4
15963	-3e-05	-0.0001	-8e-05	-8e-05	-0.00028	7e-05	5e-05	1e-05	4
15964	-3e-05	-0.0001	-8e-05	-8e-05	-0.00028	7e-05	5e-05	1e-05	4
15965	-3e-05	-0.0001	-8e-05	-8e-05	-0.00028	7e-05	5e-05	1e-05	4
15966	-3e-05	-0.0001	-8e-05	-8e-05	-0.00028	7e-05	5e-05	1e-05	4
15967	-3e-05	-0.0001	-8e-05	-8e-05	-0.00028	7e-05	5e-05	1e-05	4
15968	-3e-05	-0.0001	-8e-05	-8e-05	-0.00028	7e-05	5e-05	1e-05	4
15969	-3e-05	-0.0001	-8e-05	-8e-05	-0.00028	7e-05	5e-05	1e-05	4
15970	-3e-05	-0.0001	-8e-05	-8e-05	-0.00028	7e-05	5e-05	1e-05	4
15971	3e-05	-1e-05	-4e-05	-0.0003	-0.00075	-0.00102	0.00016	0.00017	4
15972	3e-05	-1e-05	-4e-05	-0.0003	-0.00075	-0.00102	0.00016	0.00017	4
15973	7e-05	5e-05	5e-05	-6e-05	-0.00015	0.00025	-8e-05	0	4
15974	7e-05	5e-05	5e-05	-6e-05	-0.00015	0.00025	-8e-05	0	4
15975	7e-05	5e-05	5e-05	-6e-05	-0.00015	0.00025	-8e-05	0	4
15976	7e-05	5e-05	5e-05	-6e-05	-0.00015	0.00025	-8e-05	0	4
15977	7e-05	5e-05	5e-05	-6e-05	-0.00015	0.00025	-8e-05	0	4
15978	7e-05	5e-05	5e-05	-6e-05	-0.00015	0.00025	-8e-05	0	4
15979	7e-05	5e-05	5e-05	-6e-05	-0.00015	0.00025	-8e-05	0	4
15980	7e-05	5e-05	5e-05	-6e-05	-0.00015	0.00025	-8e-05	0	4
15981	7e-05	5e-05	5e-05	-6e-05	-0.00015	0.00025	-8e-05	0	4
15982	7e-05	5e-05	5e-05	-6e-05	-0.00015	0.00025	-8e-05	0	4
15983	7e-05	5e-05	5e-05	-6e-05	-0.00015	0.00025	-8e-05	0	4
15984	7e-05	5e-05	5e-05	-6e-05	-0.00015	0.00025	-8e-05	0	4
15985	1e-05	-1e-05	-2e-05	-7e-05	-0.0002	-8e-05	-8e-05	-3e-05	4
15986	1e-05	-1e-05	-2e-05	-7e-05	-0.0002	-8e-05	-8e-05	-3e-05	4
15988	1e-05	-1e-05	-2e-05	-7e-05	-0.0002	-8e-05	-8e-05	-3e-05	4
15989	1e-05	-1e-05	-2e-05	-7e-05	-0.0002	-8e-05	-8e-05	-3e-05	4
15990	1e-05	-1e-05	-2e-05	-7e-05	-0.0002	-8e-05	-8e-05	-3e-05	4
15991	1e-05	-1e-05	-2e-05	-7e-05	-0.0002	-8e-05	-8e-05	-3e-05	4
15992	1e-05	-1e-05	-2e-05	-7e-05	-0.0002	-8e-05	-8e-05	-3e-05	4
15993	-3e-05	-1e-05	0	9e-05	0.00039	-0.00066	-5e-05	-0.00012	4
15994	-3e-05	-1e-05	0	9e-05	0.00039	-0.00066	-5e-05	-0.00012	4
15995	-3e-05	-1e-05	0	9e-05	0.00039	-0.00066	-5e-05	-0.00012	4
15996	-3e-05	-1e-05	0	9e-05	0.00039	-0.00066	-5e-05	-0.00012	4
15997	-3e-05	-1e-05	0	9e-05	0.00039	-0.00066	-5e-05	-0.00012	4
15998	-3e-05	-1e-05	0	9e-05	0.00039	-0.00066	-5e-05	-0.00012	4
15999	-3e-05	-1e-05	0	9e-05	0.00039	-0.00066	-5e-05	-0.00012	4
16000	-3e-05	-1e-05	0	9e-05	0.00039	-0.00066	-5e-05	-0.00012	4
16001	-3e-05	-1e-05	0	9e-05	0.00039	-0.00066	-5e-05	-0.00012	4
16002	-3e-05	-1e-05	0	9e-05	0.00039	-0.00066	-5e-05	-0.00012	4
16003	-3e-05	-1e-05	0	9e-05	0.00039	-0.00066	-5e-05	-0.00012	4
16004	-3e-05	-1e-05	0	9e-05	0.00039	-0.00066	-5e-05	-0.00012	4
16005	-3e-05	-1e-05	0	9e-05	0.00039	-0.00066	-5e-05	-0.00012	4
16006	-3e-05	-1e-05	0	9e-05	0.00039	-0.00066	-5e-05	-0.00012	4
16007	-3e-05	-1e-05	0	9e-05	0.00039	-0.00066	-5e-05	-0.00012	4
16008	-2e-05	-1e-05	-2e-05	0.00016	0.00021	-4e-05	0.00011	0.00011	4
16009	-2e-05	-1e-05	-2e-05	0.00016	0.00021	-4e-05	0.00011	0.00011	4
16010	-1e-05	1e-05	-1e-05	-4e-05	-0.00021	-0.00092	0	0	4
16011	-1e-05	1e-05	-1e-05	-4e-05	-0.00021	-0.00092	0	0	4
16012	-1e-05	1e-05	-1e-05	-4e-05	-0.00021	-0.00092	0	0	4
16013	-1e-05	1e-05	-1e-05	-4e-05	-0.00021	-0.00092	0	0	4
16014	-1e-05	1e-05	-1e-05	-4e-05	-0.00021	-0.00092	0	0	4
16015	-1e-05	1e-05	-1e-05	-4e-05	-0.00021	-0.00092	0	0	4
16016	-1e-05	1e-05	-1e-05	-4e-05	-0.00021	-0.00092	0	0	4
16017	-1e-05	1e-05	-1e-05	-4e-05	-0.00021	-0.00092	0	0	4
16018	-1e-05	1e-05	-1e-05	-4e-05	-0.00021	-0.00092	0	0	4
16019	-1e-05	1e-05	-1e-05	-4e-05	-0.00021	-0.00092	0	0	4
16020	-1e-05	1e-05	-1e-05	-4e-05	-0.00021	-0.00092	0	0	4
16021	-1e-05	1e-05	-1e-05	-4e-05	-0.00021	-0.00092	0	0	4
16022	-1e-05	1e-05	-1e-05	-4e-05	-0.00021	-0.00092	0	0	4
16023	-1e-05	1e-05	-1e-05	-4e-05	-0.00021	-0.00092	0	0	4
16024	-1e-05	1e-05	-1e-05	-4e-05	-0.00021	-0.00092	0	0	4
16025	-1e-05	1e-05	-1e-05	-4e-05	-0.00021	-0.00092	0	0	4
16026	-1e-05	1e-05	-1e-05	-4e-05	-0.00021	-0.00092	0	0	4
16027	-1e-05	1e-05	-1e-05	-4e-05	-0.00021	-0.00092	0	0	4
16028	-1e-05	1e-05	-1e-05	-4e-05	-0.00021	-0.00092	0	0	4
16029	-1e-05	1e-05	-1e-05	-4e-05	-0.00021	-0.00092	0	0	4
16030	-1e-05	1e-05	-1e-05	-4e-05	-0.00021	-0.00092	0	0	4
16031	-7e-05	-3e-05	0	-0.00016	-0.00025	-0.00025	-0.00026	-0.00017	4
16032	-2e-05	-1e-05	0	0.00024	0.00019	0.00067	0	3e-05	4
16033	-2e-05	-1e-05	0	0.00024	0.00019	0.00067	0	3e-05	4
16034	-2e-05	-1e-05	0	0.00024	0.00019	0.00067	0	3e-05	4
16035	-2e-05	-1e-05	0	0.00024	0.00019	0.00067	0	3e-05	4
16036	-2e-05	-1e-05	0	0.00024	0.00019	0.00067	0	3e-05	4
16038	-2e-05	-1e-05	0	0.00024	0.00019	0.00067	0	3e-05	4
16039	-2e-05	-1e-05	0	0.00024	0.00019	0.00067	0	3e-05	4
16040	-2e-05	-1e-05	0	0.00024	0.00019	0.00067	0	3e-05	4
16041	-2e-05	-1e-05	0	0.00024	0.00019	0.00067	0	3e-05	4
16042	-2e-05	-1e-05	0	0.00024	0.00019	0.00067	0	3e-05	4
16043	-2e-05	-1e-05	0	0.00024	0.00019	0.00067	0	3e-05	4
16044	-2e-05	-1e-05	0	0.00024	0.00019	0.00067	0	3e-05	4
16045	-2e-05	-1e-05	0	0.00024	0.00019	0.00067	0	3e-05	4
16046	-2e-05	-1e-05	0	0.00024	0.00019	0.00067	0	3e-05	4
16047	-2e-05	-1e-05	0	0.00024	0.00019	0.00067	0	3e-05	4
16048	-2e-05	-1e-05	0	0.00024	0.00019	0.00067	0	3e-05	4
16049	-2e-05	-1e-05	0	0.00024	0.00019	0.00067	0	3e-05	4
16050	-2e-05	-1e-05	0	0.00024	0.00019	0.00067	0	3e-05	4
16051	-2e-05	-1e-05	0	0.00024	0.00019	0.00067	0	3e-05	4
16052	-2e-05	-1e-05	0	0.00024	0.00019	0.00067	0	3e-05	4
16053	-2e-05	-1e-05	0	0.00024	0.00019	0.00067	0	3e-05	4
16054	-2e-05	-1e-05	0	0.00024	0.00019	0.00067	0	3e-05	4
16055	-2e-05	-1e-05	0	0.00024	0.00019	0.00067	0	3e-05	4
16056	-2e-05	-1e-05	0	0.00024	0.00019	0.00067	0	3e-05	4
16057	-2e-05	-1e-05	0	0.00024	0.00019	0.00067	0	3e-05	4
16058	-2e-05	-1e-05	0	0.00024	0.00019	0.00067	0	3e-05	4
16059	-2e-05	-1e-05	0	0.00024	0.00019	0.00067	0	3e-05	4
16060	-2e-05	-1e-05	0	0.00024	0.00019	0.00067	0	3e-05	4
16061	-4e-05	1e-05	8e-05	0.00028	3e-05	0.00017	-9e-05	-6e-05	4
16062	-4e-05	1e-05	8e-05	0.00028	3e-05	0.00017	-9e-05	-6e-05	4
16063	-4e-05	1e-05	8e-05	0.00028	3e-05	0.00017	-9e-05	-6e-05	4
16064	-4e-05	1e-05	8e-05	0.00028	3e-05	0.00017	-9e-05	-6e-05	4
16065	-4e-05	1e-05	8e-05	0.00028	3e-05	0.00017	-9e-05	-6e-05	4
16066	-4e-05	1e-05	8e-05	0.00028	3e-05	0.00017	-9e-05	-6e-05	4
16067	-4e-05	1e-05	8e-05	0.00028	3e-05	0.00017	-9e-05	-6e-05	4
16068	-4e-05	1e-05	8e-05	0.00028	3e-05	0.00017	-9e-05	-6e-05	4
16069	0	-2e-05	2e-05	0.0003	0.00017	0.00027	-2e-05	7e-05	4
16070	3e-05	1e-05	-7e-05	-0.00031	-0.00052	7e-05	3e-05	-4e-05	4
16071	-1e-05	-6e-05	-6e-05	6e-05	0.00048	0.00069	8e-05	7e-05	4
16072	1e-05	-4e-05	-4e-05	0.00016	0.00028	0.00074	5e-05	-3e-05	4
16073	1e-05	-4e-05	-4e-05	0.00016	0.00028	0.00074	5e-05	-3e-05	4
16074	1e-05	-4e-05	-4e-05	0.00016	0.00028	0.00074	5e-05	-3e-05	4
16075	1e-05	-4e-05	-4e-05	0.00016	0.00028	0.00074	5e-05	-3e-05	4
16076	1e-05	-4e-05	-4e-05	0.00016	0.00028	0.00074	5e-05	-3e-05	4
16077	1e-05	-4e-05	-4e-05	0.00016	0.00028	0.00074	5e-05	-3e-05	4
16078	1e-05	-4e-05	-4e-05	0.00016	0.00028	0.00074	5e-05	-3e-05	4
16079	1e-05	-4e-05	-4e-05	0.00016	0.00028	0.00074	5e-05	-3e-05	4
16080	1e-05	-4e-05	-4e-05	0.00016	0.00028	0.00074	5e-05	-3e-05	4
16081	1e-05	-4e-05	-4e-05	0.00016	0.00028	0.00074	5e-05	-3e-05	4
16082	1e-05	-4e-05	-4e-05	0.00016	0.00028	0.00074	5e-05	-3e-05	4
16083	1e-05	-4e-05	-4e-05	0.00016	0.00028	0.00074	5e-05	-3e-05	4
16084	1e-05	-4e-05	-4e-05	0.00016	0.00028	0.00074	5e-05	-3e-05	4
16085	1e-05	-4e-05	-4e-05	0.00016	0.00028	0.00074	5e-05	-3e-05	4
16086	1e-05	-4e-05	-4e-05	0.00016	0.00028	0.00074	5e-05	-3e-05	4
16088	1e-05	-4e-05	-4e-05	0.00016	0.00028	0.00074	5e-05	-3e-05	4
16089	1e-05	-4e-05	-4e-05	0.00016	0.00028	0.00074	5e-05	-3e-05	4
16090	1e-05	-4e-05	-4e-05	0.00016	0.00028	0.00074	5e-05	-3e-05	4
16091	1e-05	-4e-05	-4e-05	0.00016	0.00028	0.00074	5e-05	-3e-05	4
16092	0	2e-05	8e-05	-1e-05	-0.00033	0.00022	5e-05	-2e-05	4
16093	1e-05	2e-05	0	-0.00011	-0.00028	-2e-05	-6e-05	-3e-05	4
16094	1e-05	2e-05	0	-0.00011	-0.00028	-2e-05	-6e-05	-3e-05	4
39912	-4e-05	0	-3e-05	-0.00023	-0.00049	-0.00021	-6e-05	-2e-05	4
39913	-4e-05	0	-3e-05	-0.00023	-0.00049	-0.00021	-6e-05	-2e-05	4
39914	-4e-05	0	-3e-05	-0.00023	-0.00049	-0.00021	-6e-05	-2e-05	4
39915	-4e-05	0	-3e-05	-0.00023	-0.00049	-0.00021	-6e-05	-2e-05	4
39916	-4e-05	0	-3e-05	-0.00023	-0.00049	-0.00021	-6e-05	-2e-05	4
39917	-6e-05	-5e-05	-9e-05	0.00015	-0.00013	-0.00056	-0.00011	-5e-05	4
39918	-6e-05	-5e-05	-9e-05	0.00015	-0.00013	-0.00056	-0.00011	-5e-05	4
39919	-6e-05	-5e-05	-9e-05	0.00015	-0.00013	-0.00056	-0.00011	-5e-05	4
39920	-6e-05	-5e-05	-9e-05	0.00015	-0.00013	-0.00056	-0.00011	-5e-05	4
39921	-6e-05	-5e-05	-9e-05	0.00015	-0.00013	-0.00056	-0.00011	-5e-05	4
39922	-6e-05	-5e-05	-9e-05	0.00015	-0.00013	-0.00056	-0.00011	-5e-05	4
39923	-6e-05	-5e-05	-9e-05	0.00015	-0.00013	-0.00056	-0.00011	-5e-05	4
