18055	-0.00024	-0.00029	-0.00029	-0.00042	-0.00049	-0.00085	-0.00055	-0.00032	4
18056	-0.00024	-0.00029	-0.00029	-0.00042	-0.00049	-0.00085	-0.00055	-0.00032	4
18057	-0.00024	-0.00029	-0.00029	-0.00042	-0.00049	-0.00085	-0.00055	-0.00032	4
18058	-0.00024	-0.00029	-0.00029	-0.00042	-0.00049	-0.00085	-0.00055	-0.00032	4
18059	-0.00024	-0.00029	-0.00029	-0.00042	-0.00049	-0.00085	-0.00055	-0.00032	4
18060	-0.00024	-0.00029	-0.00029	-0.00042	-0.00049	-0.00085	-0.00055	-0.00032	4
18061	-0.00024	-0.00029	-0.00029	-0.00042	-0.00049	-0.00085	-0.00055	-0.00032	4
18062	-0.00024	-0.00029	-0.00029	-0.00042	-0.00049	-0.00085	-0.00055	-0.00032	4
18063	-0.00024	-0.00029	-0.00029	-0.00042	-0.00049	-0.00085	-0.00055	-0.00032	4
18064	-0.00024	-0.00029	-0.00029	-0.00042	-0.00049	-0.00085	-0.00055	-0.00032	4
18065	-0.00024	-0.00029	-0.00029	-0.00042	-0.00049	-0.00085	-0.00055	-0.00032	4
18066	-0.00024	-0.00029	-0.00029	-0.00042	-0.00049	-0.00085	-0.00055	-0.00032	4
18067	-0.00024	-0.00029	-0.00029	-0.00042	-0.00049	-0.00085	-0.00055	-0.00032	4
18068	-0.00024	-0.00029	-0.00029	-0.00042	-0.00049	-0.00085	-0.00055	-0.00032	4
18069	-0.00024	-0.00029	-0.00029	-0.00042	-0.00049	-0.00085	-0.00055	-0.00032	4
18070	-0.00024	-0.00029	-0.00029	-0.00042	-0.00049	-0.00085	-0.00055	-0.00032	4
18071	-7e-05	-9e-05	-0.00013	0.00013	0.00059	-0.00011	-0.00022	-0.00012	4
18072	3e-05	5e-05	7e-05	0.00011	-4e-05	0.00036	0.00014	9e-05	4
18073	3e-05	5e-05	7e-05	0.00011	-4e-05	0.00036	0.00014	9e-05	4
18074	3e-05	5e-05	7e-05	0.00011	-4e-05	0.00036	0.00014	9e-05	4
18075	3e-05	5e-05	7e-05	0.00011	-4e-05	0.00036	0.00014	9e-05	4
18076	3e-05	5e-05	7e-05	0.00011	-4e-05	0.00036	0.00014	9e-05	4
18077	3e-05	5e-05	7e-05	0.00011	-4e-05	0.00036	0.00014	9e-05	4
18078	4e-05	5e-05	8e-05	-0.00011	-0.00026	-0.00041	4e-05	-1e-05	4
18079	0.00022	0.00029	0.00038	0.00028	-0.00042	-0.00043	0.00032	0.0002	4
18080	0.00022	0.00029	0.00038	0.00028	-0.00042	-0.00043	0.00032	0.0002	4
18081	0.00022	0.00029	0.00038	0.00028	-0.00042	-0.00043	0.00032	0.0002	4
18082	0.00022	0.00029	0.00038	0.00028	-0.00042	-0.00043	0.00032	0.0002	4
18083	-1e-05	2e-05	5e-05	-0.00021	-0.00051	0.00041	8e-05	6e-05	4
18084	-1e-05	2e-05	5e-05	-0.00021	-0.00051	0.00041	8e-05	6e-05	4
18086	-1e-05	2e-05	5e-05	-0.00021	-0.00051	0.00041	8e-05	6e-05	4
18087	-1e-05	2e-05	5e-05	-0.00021	-0.00051	0.00041	8e-05	6e-05	4
18088	-1e-05	2e-05	5e-05	-0.00021	-0.00051	0.00041	8e-05	6e-05	4
18089	-1e-05	2e-05	5e-05	-0.00021	-0.00051	0.00041	8e-05	6e-05	4
18090	2e-05	4e-05	0.0001	0.00015	-0.00018	0.00062	0.0001	-1e-05	4
18091	2e-05	4e-05	0.0001	0.00015	-0.00018	0.00062	0.0001	-1e-05	4
18092	2e-05	4e-05	0.0001	0.00015	-0.00018	0.00062	0.0001	-1e-05	4
18093	2e-05	4e-05	0.0001	0.00015	-0.00018	0.00062	0.0001	-1e-05	4
18094	2e-05	4e-05	0.0001	0.00015	-0.00018	0.00062	0.0001	-1e-05	4
18095	2e-05	4e-05	0.0001	0.00015	-0.00018	0.00062	0.0001	-1e-05	4
18096	2e-05	4e-05	0.0001	0.00015	-0.00018	0.00062	0.0001	-1e-05	4
18097	2e-05	4e-05	0.0001	0.00015	-0.00018	0.00062	0.0001	-1e-05	4
18098	2e-05	7e-05	0.00012	-0.00011	0.0004	0.00106	0.00021	2e-05	4
18099	-3e-05	2e-05	0.0001	0.00064	0.00127	-0.00036	2e-05	1e-05	4
18100	-1e-05	-3e-05	-5e-05	-0.00063	-0.00044	8e-05	-0.00012	-2e-05	4
18101	-1e-05	-3e-05	-5e-05	-0.00063	-0.00044	8e-05	-0.00012	-2e-05	4
18102	-1e-05	-3e-05	-5e-05	-0.00063	-0.00044	8e-05	-0.00012	-2e-05	4
18103	-1e-05	-3e-05	-5e-05	-0.00063	-0.00044	8e-05	-0.00012	-2e-05	4
18104	-1e-05	-3e-05	-5e-05	-0.00063	-0.00044	8e-05	-0.00012	-2e-05	4
18105	-1e-05	-3e-05	-5e-05	-0.00063	-0.00044	8e-05	-0.00012	-2e-05	4
18106	-1e-05	-3e-05	-5e-05	-0.00063	-0.00044	8e-05	-0.00012	-2e-05	4
18107	-1e-05	-3e-05	-5e-05	-0.00063	-0.00044	8e-05	-0.00012	-2e-05	4
18108	-1e-05	-3e-05	-5e-05	-0.00063	-0.00044	8e-05	-0.00012	-2e-05	4
18109	-1e-05	-3e-05	-5e-05	-0.00063	-0.00044	8e-05	-0.00012	-2e-05	4
18110	-1e-05	-3e-05	-5e-05	-0.00063	-0.00044	8e-05	-0.00012	-2e-05	4
18111	-1e-05	-3e-05	-5e-05	-0.00063	-0.00044	8e-05	-0.00012	-2e-05	4
18112	-1e-05	-3e-05	-5e-05	-0.00063	-0.00044	8e-05	-0.00012	-2e-05	4
18113	-1e-05	-3e-05	-5e-05	-0.00063	-0.00044	8e-05	-0.00012	-2e-05	4
18114	-1e-05	-3e-05	-5e-05	-0.00063	-0.00044	8e-05	-0.00012	-2e-05	4
18115	-1e-05	-3e-05	-5e-05	-0.00063	-0.00044	8e-05	-0.00012	-2e-05	4
18116	-1e-05	-3e-05	-5e-05	-0.00063	-0.00044	8e-05	-0.00012	-2e-05	4
18117	-1e-05	-3e-05	-5e-05	-0.00063	-0.00044	8e-05	-0.00012	-2e-05	4
18118	-1e-05	-3e-05	-5e-05	-0.00063	-0.00044	8e-05	-0.00012	-2e-05	4
18119	-1e-05	-3e-05	-5e-05	-0.00063	-0.00044	8e-05	-0.00012	-2e-05	4
18120	-1e-05	-3e-05	-5e-05	-0.00063	-0.00044	8e-05	-0.00012	-2e-05	4
18121	0.00011	0.00017	0.00013	0.00078	-0.00052	8e-05	0.00029	0.00011	4
18122	1e-05	1e-05	-1e-05	-0.00021	1e-05	0.00018	5e-05	2e-05	4
18123	7e-05	8e-05	0.00031	0.00031	0.00031	0.0004	6e-05	0.0001	4
18124	7e-05	8e-05	0.00031	0.00031	0.00031	0.0004	6e-05	0.0001	4
18125	7e-05	8e-05	0.00031	0.00031	0.00031	0.0004	6e-05	0.0001	4
18126	7e-05	8e-05	0.00031	0.00031	0.00031	0.0004	6e-05	0.0001	4
18127	7e-05	8e-05	0.00031	0.00031	0.00031	0.0004	6e-05	0.0001	4
18128	7e-05	8e-05	0.00031	0.00031	0.00031	0.0004	6e-05	0.0001	4
18129	7e-05	8e-05	0.00031	0.00031	0.00031	0.0004	6e-05	0.0001	4
18130	7e-05	8e-05	0.00031	0.00031	0.00031	0.0004	6e-05	0.0001	4
18131	7e-05	8e-05	0.00031	0.00031	0.00031	0.0004	6e-05	0.0001	4
18132	7e-05	8e-05	0.00031	0.00031	0.00031	0.0004	6e-05	0.0001	4
18133	7e-05	8e-05	0.00031	0.00031	0.00031	0.0004	6e-05	0.0001	4
18134	7e-05	8e-05	0.00031	0.00031	0.00031	0.0004	6e-05	0.0001	4
18135	-5e-05	-4e-05	-0.00016	0	-0.00051	0.00059	-7e-05	-7e-05	4
18136	-5e-05	-4e-05	-0.00016	0	-0.00051	0.00059	-7e-05	-7e-05	4
18139	-5e-05	-4e-05	-0.00016	0	-0.00051	0.00059	-7e-05	-7e-05	4
18140	-5e-05	-4e-05	-0.00016	0	-0.00051	0.00059	-7e-05	-7e-05	4
18141	-5e-05	-4e-05	-0.00016	0	-0.00051	0.00059	-7e-05	-7e-05	4
18142	-5e-05	-4e-05	-0.00016	0	-0.00051	0.00059	-7e-05	-7e-05	4
18143	0	-1e-05	1e-05	8e-05	-9e-05	-0.00064	-0.00011	0	4
18144	0.00015	0.00022	0.00022	0.00079	0.00027	0.00083	0.00037	0.00012	4
18145	0.00015	0.00022	0.00022	0.00079	0.00027	0.00083	0.00037	0.00012	4
18146	0.00015	0.00022	0.00022	0.00079	0.00027	0.00083	0.00037	0.00012	4
18147	0.00015	0.00022	0.00022	0.00079	0.00027	0.00083	0.00037	0.00012	4
18148	0.00015	0.00022	0.00022	0.00079	0.00027	0.00083	0.00037	0.00012	4
18149	0.00015	0.00022	0.00022	0.00079	0.00027	0.00083	0.00037	0.00012	4
18150	0.00015	0.00022	0.00022	0.00079	0.00027	0.00083	0.00037	0.00012	4
18151	0.00015	0.00022	0.00022	0.00079	0.00027	0.00083	0.00037	0.00012	4
18152	0.00015	0.00022	0.00022	0.00079	0.00027	0.00083	0.00037	0.00012	4
18153	0.00015	0.00022	0.00022	0.00079	0.00027	0.00083	0.00037	0.00012	4
18154	0.00015	0.00022	0.00022	0.00079	0.00027	0.00083	0.00037	0.00012	4
18155	0.00015	0.00022	0.00022	0.00079	0.00027	0.00083	0.00037	0.00012	4
18156	0.00015	0.00022	0.00022	0.00079	0.00027	0.00083	0.00037	0.00012	4
18157	0.00015	0.00022	0.00022	0.00079	0.00027	0.00083	0.00037	0.00012	4
18158	-4e-05	-4e-05	3e-05	-3e-05	0	-1e-05	-0.00017	-8e-05	4
18159	-8e-05	-0.00014	-0.00016	-0.00028	-0.00055	-0.00015	-5e-05	-4e-05	4
18160	-4e-05	-5e-05	-7e-05	-0.00025	-0.00088	-0.00084	-9e-05	-4e-05	4
18161	-4e-05	-5e-05	-7e-05	-0.00025	-0.00088	-0.00084	-9e-05	-4e-05	4
18162	-4e-05	-5e-05	-7e-05	-0.00025	-0.00088	-0.00084	-9e-05	-4e-05	4
18163	-4e-05	-5e-05	-7e-05	-0.00025	-0.00088	-0.00084	-9e-05	-4e-05	4
18164	-4e-05	-5e-05	-7e-05	-0.00025	-0.00088	-0.00084	-9e-05	-4e-05	4
18165	-4e-05	-5e-05	-7e-05	-0.00025	-0.00088	-0.00084	-9e-05	-4e-05	4
18166	-4e-05	-5e-05	-7e-05	-0.00025	-0.00088	-0.00084	-9e-05	-4e-05	4
18167	-4e-05	-5e-05	-7e-05	-0.00025	-0.00088	-0.00084	-9e-05	-4e-05	4
18168	-4e-05	-5e-05	-7e-05	-0.00025	-0.00088	-0.00084	-9e-05	-4e-05	4
18169	-4e-05	-5e-05	-7e-05	-0.00025	-0.00088	-0.00084	-9e-05	-4e-05	4
18170	-4e-05	-5e-05	-7e-05	-0.00025	-0.00088	-0.00084	-9e-05	-4e-05	4
18171	-4e-05	-5e-05	-7e-05	-0.00025	-0.00088	-0.00084	-9e-05	-4e-05	4
18172	-4e-05	-5e-05	-7e-05	-0.00025	-0.00088	-0.00084	-9e-05	-4e-05	4
18173	-4e-05	-5e-05	-7e-05	-0.00025	-0.00088	-0.00084	-9e-05	-4e-05	4
18174	-4e-05	-5e-05	-7e-05	-0.00025	-0.00088	-0.00084	-9e-05	-4e-05	4
18175	-4e-05	-5e-05	-7e-05	-0.00025	-0.00088	-0.00084	-9e-05	-4e-05	4
18176	-4e-05	-5e-05	-7e-05	-0.00025	-0.00088	-0.00084	-9e-05	-4e-05	4
18177	-4e-05	-5e-05	-7e-05	-0.00025	-0.00088	-0.00084	-9e-05	-4e-05	4
18178	-4e-05	-5e-05	-7e-05	-0.00025	-0.00088	-0.00084	-9e-05	-4e-05	4
18179	-4e-05	-5e-05	-7e-05	-0.00025	-0.00088	-0.00084	-9e-05	-4e-05	4
18180	-4e-05	-5e-05	-7e-05	-0.00025	-0.00088	-0.00084	-9e-05	-4e-05	4
18181	1e-05	3e-05	7e-05	-1e-05	-0.00035	-0.00053	-1e-05	1e-05	4
18182	-6e-05	-9e-05	-0.00011	0.00029	-0.00114	0.00014	-0.00012	-8e-05	4
18183	3e-05	4e-05	-3e-05	0.00013	0.00109	0.00032	6e-05	0	4
18184	3e-05	4e-05	-3e-05	0.00013	0.00109	0.00032	6e-05	0	4
18185	3e-05	4e-05	-3e-05	0.00013	0.00109	0.00032	6e-05	0	4
18186	3e-05	4e-05	-3e-05	0.00013	0.00109	0.00032	6e-05	0	4
18189	3e-05	4e-05	-3e-05	0.00013	0.00109	0.00032	6e-05	0	4
18190	3e-05	4e-05	-3e-05	0.00013	0.00109	0.00032	6e-05	0	4
18191	3e-05	4e-05	-3e-05	0.00013	0.00109	0.00032	6e-05	0	4
18192	3e-05	4e-05	-3e-05	0.00013	0.00109	0.00032	6e-05	0	4
18193	3e-05	4e-05	-3e-05	0.00013	0.00109	0.00032	6e-05	0	4
18194	3e-05	4e-05	-3e-05	0.00013	0.00109	0.00032	6e-05	0	4
18195	3e-05	4e-05	-3e-05	0.00013	0.00109	0.00032	6e-05	0	4
18196	3e-05	4e-05	-3e-05	0.00013	0.00109	0.00032	6e-05	0	4
18197	3e-05	4e-05	-3e-05	0.00013	0.00109	0.00032	6e-05	0	4
18198	3e-05	4e-05	-3e-05	0.00013	0.00109	0.00032	6e-05	0	4
18199	3e-05	4e-05	-3e-05	0.00013	0.00109	0.00032	6e-05	0	4
18200	3e-05	4e-05	-3e-05	0.00013	0.00109	0.00032	6e-05	0	4
18201	3e-05	4e-05	-3e-05	0.00013	0.00109	0.00032	6e-05	0	4
18202	3e-05	4e-05	-3e-05	0.00013	0.00109	0.00032	6e-05	0	4
18203	2e-05	0	-1e-05	-7e-05	-0.00049	7e-05	4e-05	3e-05	4
18204	-0.00013	-0.00016	-0.00019	0.00045	0.00086	-0.00038	-0.00029	-0.00018	4
18205	5e-05	6e-05	0.00017	0.00085	0.00109	0.00075	0.00012	2e-05	4
18206	5e-05	6e-05	0.00017	0.00085	0.00109	0.00075	0.00012	2e-05	4
18207	5e-05	6e-05	0.00017	0.00085	0.00109	0.00075	0.00012	2e-05	4
18208	5e-05	6e-05	0.00017	0.00085	0.00109	0.00075	0.00012	2e-05	4
18209	5e-05	6e-05	0.00017	0.00085	0.00109	0.00075	0.00012	2e-05	4
18210	5e-05	6e-05	0.00017	0.00085	0.00109	0.00075	0.00012	2e-05	4
18211	5e-05	6e-05	0.00017	0.00085	0.00109	0.00075	0.00012	2e-05	4
18212	5e-05	6e-05	0.00017	0.00085	0.00109	0.00075	0.00012	2e-05	4
18213	5e-05	6e-05	0.00017	0.00085	0.00109	0.00075	0.00012	2e-05	4
18214	5e-05	6e-05	0.00017	0.00085	0.00109	0.00075	0.00012	2e-05	4
18215	5e-05	6e-05	0.00017	0.00085	0.00109	0.00075	0.00012	2e-05	4
18216	5e-05	6e-05	0.00017	0.00085	0.00109	0.00075	0.00012	2e-05	4
18217	5e-05	6e-05	0.00017	0.00085	0.00109	0.00075	0.00012	2e-05	4
18218	5e-05	6e-05	0.00017	0.00085	0.00109	0.00075	0.00012	2e-05	4
18219	5e-05	6e-05	0.00017	0.00085	0.00109	0.00075	0.00012	2e-05	4
18220	5e-05	6e-05	0.00017	0.00085	0.00109	0.00075	0.00012	2e-05	4
18221	9e-05	7e-05	-5e-05	3e-05	-0.00047	0.0001	1e-05	0.00026	4
18222	9e-05	7e-05	-5e-05	3e-05	-0.00047	0.0001	1e-05	0.00026	4
18223	9e-05	7e-05	-5e-05	3e-05	-0.00047	0.0001	1e-05	0.00026	4
18224	9e-05	7e-05	-5e-05	3e-05	-0.00047	0.0001	1e-05	0.00026	4
18225	9e-05	7e-05	-5e-05	3e-05	-0.00047	0.0001	1e-05	0.00026	4
18226	9e-05	7e-05	-5e-05	3e-05	-0.00047	0.0001	1e-05	0.00026	4
18227	9e-05	7e-05	-5e-05	3e-05	-0.00047	0.0001	1e-05	0.00026	4
18228	9e-05	7e-05	-5e-05	3e-05	-0.00047	0.0001	1e-05	0.00026	4
18229	9e-05	7e-05	-5e-05	3e-05	-0.00047	0.0001	1e-05	0.00026	4
18230	9e-05	7e-05	-5e-05	3e-05	-0.00047	0.0001	1e-05	0.00026	4
18231	9e-05	7e-05	-5e-05	3e-05	-0.00047	0.0001	1e-05	0.00026	4
18232	9e-05	7e-05	-5e-05	3e-05	-0.00047	0.0001	1e-05	0.00026	4
18233	9e-05	7e-05	-5e-05	3e-05	-0.00047	0.0001	1e-05	0.00026	4
18234	9e-05	7e-05	-5e-05	3e-05	-0.00047	0.0001	1e-05	0.00026	4
18235	9e-05	7e-05	-5e-05	3e-05	-0.00047	0.0001	1e-05	0.00026	4
18237	9e-05	7e-05	-5e-05	3e-05	-0.00047	0.0001	1e-05	0.00026	4
18240	9e-05	7e-05	-5e-05	3e-05	-0.00047	0.0001	1e-05	0.00026	4
18241	9e-05	7e-05	-5e-05	3e-05	-0.00047	0.0001	1e-05	0.00026	4
18242	9e-05	7e-05	-5e-05	3e-05	-0.00047	0.0001	1e-05	0.00026	4
18243	9e-05	7e-05	-5e-05	3e-05	-0.00047	0.0001	1e-05	0.00026	4
18244	9e-05	7e-05	-5e-05	3e-05	-0.00047	0.0001	1e-05	0.00026	4
18245	9e-05	7e-05	-5e-05	3e-05	-0.00047	0.0001	1e-05	0.00026	4
18246	9e-05	7e-05	-5e-05	3e-05	-0.00047	0.0001	1e-05	0.00026	4
18247	9e-05	7e-05	-5e-05	3e-05	-0.00047	0.0001	1e-05	0.00026	4
18248	9e-05	7e-05	-5e-05	3e-05	-0.00047	0.0001	1e-05	0.00026	4
18249	0.00014	0.00021	0.00017	0.00072	-0.00071	0.00031	0.00014	0.00012	4
18250	0.00014	0.00021	0.00017	0.00072	-0.00071	0.00031	0.00014	0.00012	4
18251	0.00014	0.00021	0.00017	0.00072	-0.00071	0.00031	0.00014	0.00012	4
18252	0.00014	0.00021	0.00017	0.00072	-0.00071	0.00031	0.00014	0.00012	4
18253	0.00014	0.00021	0.00017	0.00072	-0.00071	0.00031	0.00014	0.00012	4
18254	0.00014	0.00021	0.00017	0.00072	-0.00071	0.00031	0.00014	0.00012	4
18255	0.00014	0.00021	0.00017	0.00072	-0.00071	0.00031	0.00014	0.00012	4
18256	0.00014	0.00021	0.00017	0.00072	-0.00071	0.00031	0.00014	0.00012	4
18257	0.00014	0.00021	0.00017	0.00072	-0.00071	0.00031	0.00014	0.00012	4
18258	0.00014	0.00021	0.00017	0.00072	-0.00071	0.00031	0.00014	0.00012	4
18259	0.00014	0.00021	0.00017	0.00072	-0.00071	0.00031	0.00014	0.00012	4
18260	0.00014	0.00021	0.00017	0.00072	-0.00071	0.00031	0.00014	0.00012	4
18261	0.00014	0.00021	0.00017	0.00072	-0.00071	0.00031	0.00014	0.00012	4
18262	0.00014	0.00021	0.00017	0.00072	-0.00071	0.00031	0.00014	0.00012	4
18263	0.00014	0.00021	0.00017	0.00072	-0.00071	0.00031	0.00014	0.00012	4
18264	0.00014	0.00021	0.00017	0.00072	-0.00071	0.00031	0.00014	0.00012	4
18265	0.00014	0.00021	0.00017	0.00072	-0.00071	0.00031	0.00014	0.00012	4
18266	0.00014	0.00021	0.00017	0.00072	-0.00071	0.00031	0.00014	0.00012	4
18267	0.00014	0.00021	0.00017	0.00072	-0.00071	0.00031	0.00014	0.00012	4
18268	0.00014	0.00021	0.00017	0.00072	-0.00071	0.00031	0.00014	0.00012	4
18269	0.00014	0.00021	0.00017	0.00072	-0.00071	0.00031	0.00014	0.00012	4
18270	0.00014	0.00021	0.00017	0.00072	-0.00071	0.00031	0.00014	0.00012	4
18271	0.00014	0.00021	0.00017	0.00072	-0.00071	0.00031	0.00014	0.00012	4
18272	0.00014	0.00021	0.00017	0.00072	-0.00071	0.00031	0.00014	0.00012	4
18273	0.00014	0.00021	0.00017	0.00072	-0.00071	0.00031	0.00014	0.00012	4
18274	0.00014	0.00021	0.00017	0.00072	-0.00071	0.00031	0.00014	0.00012	4
18275	0.00014	0.00021	0.00017	0.00072	-0.00071	0.00031	0.00014	0.00012	4
18276	0.00014	0.00021	0.00017	0.00072	-0.00071	0.00031	0.00014	0.00012	4
18277	0.00014	0.00021	0.00017	0.00072	-0.00071	0.00031	0.00014	0.00012	4
18278	0.00014	0.00021	0.00017	0.00072	-0.00071	0.00031	0.00014	0.00012	4
18279	0.00014	0.00021	0.00017	0.00072	-0.00071	0.00031	0.00014	0.00012	4
18280	0.00014	0.00021	0.00017	0.00072	-0.00071	0.00031	0.00014	0.00012	4
18281	0.00014	0.00021	0.00017	0.00072	-0.00071	0.00031	0.00014	0.00012	4
18282	0.00014	0.00021	0.00017	0.00072	-0.00071	0.00031	0.00014	0.00012	4
18283	0.00014	0.00021	0.00017	0.00072	-0.00071	0.00031	0.00014	0.00012	4
18284	0.00014	0.00021	0.00017	0.00072	-0.00071	0.00031	0.00014	0.00012	4
18285	0.00014	0.00021	0.00017	0.00072	-0.00071	0.00031	0.00014	0.00012	4
18287	0.00014	0.00021	0.00017	0.00072	-0.00071	0.00031	0.00014	0.00012	4
18290	0.00014	0.00021	0.00017	0.00072	-0.00071	0.00031	0.00014	0.00012	4
18291	0.00014	0.00021	0.00017	0.00072	-0.00071	0.00031	0.00014	0.00012	4
18292	0.00014	0.00021	0.00017	0.00072	-0.00071	0.00031	0.00014	0.00012	4
18293	0.00014	0.00021	0.00017	0.00072	-0.00071	0.00031	0.00014	0.00012	4
18294	0.00014	0.00021	0.00017	0.00072	-0.00071	0.00031	0.00014	0.00012	4
18295	0.00014	0.00021	0.00017	0.00072	-0.00071	0.00031	0.00014	0.00012	4
18296	0.00014	0.00021	0.00017	0.00072	-0.00071	0.00031	0.00014	0.00012	4
18297	0.00014	0.00021	0.00017	0.00072	-0.00071	0.00031	0.00014	0.00012	4
18298	0.00014	0.00021	0.00017	0.00072	-0.00071	0.00031	0.00014	0.00012	4
18299	0.00014	0.00021	0.00017	0.00072	-0.00071	0.00031	0.00014	0.00012	4
18300	0.00014	0.00021	0.00017	0.00072	-0.00071	0.00031	0.00014	0.00012	4
18301	0.00014	0.00021	0.00017	0.00072	-0.00071	0.00031	0.00014	0.00012	4
18302	0.00014	0.00021	0.00017	0.00072	-0.00071	0.00031	0.00014	0.00012	4
18303	0.00014	0.00021	0.00017	0.00072	-0.00071	0.00031	0.00014	0.00012	4
18304	0.00014	0.00021	0.00017	0.00072	-0.00071	0.00031	0.00014	0.00012	4
18305	0.00014	0.00021	0.00017	0.00072	-0.00071	0.00031	0.00014	0.00012	4
18306	0.00014	0.00021	0.00017	0.00072	-0.00071	0.00031	0.00014	0.00012	4
18307	0.00014	0.00021	0.00017	0.00072	-0.00071	0.00031	0.00014	0.00012	4
18308	0.00014	0.00021	0.00017	0.00072	-0.00071	0.00031	0.00014	0.00012	4
18309	0.00014	0.00021	0.00017	0.00072	-0.00071	0.00031	0.00014	0.00012	4
18310	0.00014	0.00021	0.00017	0.00072	-0.00071	0.00031	0.00014	0.00012	4
18311	0.00014	0.00021	0.00017	0.00072	-0.00071	0.00031	0.00014	0.00012	4
18312	0.00014	0.00021	0.00017	0.00072	-0.00071	0.00031	0.00014	0.00012	4
18313	0.00014	0.00021	0.00017	0.00072	-0.00071	0.00031	0.00014	0.00012	4
18314	0.00014	0.00021	0.00017	0.00072	-0.00071	0.00031	0.00014	0.00012	4
18315	0.00014	0.00021	0.00017	0.00072	-0.00071	0.00031	0.00014	0.00012	4
18316	0.00014	0.00021	0.00017	0.00072	-0.00071	0.00031	0.00014	0.00012	4
18317	0.00014	0.00021	0.00017	0.00072	-0.00071	0.00031	0.00014	0.00012	4
18318	0.00014	0.00021	0.00017	0.00072	-0.00071	0.00031	0.00014	0.00012	4
18320	0.00014	0.00021	0.00017	0.00072	-0.00071	0.00031	0.00014	0.00012	4
18321	0.00014	0.00021	0.00017	0.00072	-0.00071	0.00031	0.00014	0.00012	4
18322	0.00014	0.00021	0.00017	0.00072	-0.00071	0.00031	0.00014	0.00012	4
18323	0.00014	0.00021	0.00017	0.00072	-0.00071	0.00031	0.00014	0.00012	4
18324	0.00014	0.00021	0.00017	0.00072	-0.00071	0.00031	0.00014	0.00012	4
18325	0.00014	0.00021	0.00017	0.00072	-0.00071	0.00031	0.00014	0.00012	4
18326	0.00014	0.00021	0.00017	0.00072	-0.00071	0.00031	0.00014	0.00012	4
18327	0.00014	0.00021	0.00017	0.00072	-0.00071	0.00031	0.00014	0.00012	4
18328	0.00014	0.00021	0.00017	0.00072	-0.00071	0.00031	0.00014	0.00012	4
18329	0.00014	0.00021	0.00017	0.00072	-0.00071	0.00031	0.00014	0.00012	4
18330	0.00014	0.00021	0.00017	0.00072	-0.00071	0.00031	0.00014	0.00012	4
18331	0.00014	0.00021	0.00017	0.00072	-0.00071	0.00031	0.00014	0.00012	4
18332	0.00014	0.00021	0.00017	0.00072	-0.00071	0.00031	0.00014	0.00012	4
18333	0.00014	0.00021	0.00017	0.00072	-0.00071	0.00031	0.00014	0.00012	4
18334	0.00014	0.00021	0.00017	0.00072	-0.00071	0.00031	0.00014	0.00012	4
18335	0.00014	0.00021	0.00017	0.00072	-0.00071	0.00031	0.00014	0.00012	4
18337	0.00014	0.00021	0.00017	0.00072	-0.00071	0.00031	0.00014	0.00012	4
18340	0.00014	0.00021	0.00017	0.00072	-0.00071	0.00031	0.00014	0.00012	4
18341	0.00014	0.00021	0.00017	0.00072	-0.00071	0.00031	0.00014	0.00012	4
18342	0.00014	0.00021	0.00017	0.00072	-0.00071	0.00031	0.00014	0.00012	4
18343	0.00014	0.00021	0.00017	0.00072	-0.00071	0.00031	0.00014	0.00012	4
18344	0.00014	0.00021	0.00017	0.00072	-0.00071	0.00031	0.00014	0.00012	4
18345	0.00014	0.00021	0.00017	0.00072	-0.00071	0.00031	0.00014	0.00012	4
18346	0.00014	0.00021	0.00017	0.00072	-0.00071	0.00031	0.00014	0.00012	4
18347	-8e-05	-2e-05	3e-05	0.00028	-0.0004	-0.00066	-4e-05	-0.00013	4
18348	-7e-05	-0.00011	-0.0001	-0.0006	-0.00036	-0.00051	-0.00025	-0.00011	4
18349	-7e-05	-0.00011	-0.0001	-0.0006	-0.00036	-0.00051	-0.00025	-0.00011	4
18350	-7e-05	-0.00011	-0.0001	-0.0006	-0.00036	-0.00051	-0.00025	-0.00011	4
18351	-7e-05	-0.00011	-0.0001	-0.0006	-0.00036	-0.00051	-0.00025	-0.00011	4
18352	-7e-05	-0.00011	-0.0001	-0.0006	-0.00036	-0.00051	-0.00025	-0.00011	4
18353	-7e-05	-0.00011	-0.0001	-0.0006	-0.00036	-0.00051	-0.00025	-0.00011	4
18354	9e-05	0.00012	0.00014	0.00059	0.00099	0.00104	0.00019	0.00013	4
18355	-3e-05	-4e-05	3e-05	0.0009	0.00088	0.00052	9e-05	1e-05	4
18356	-3e-05	-4e-05	3e-05	0.0009	0.00088	0.00052	9e-05	1e-05	4
18357	-3e-05	-4e-05	3e-05	0.0009	0.00088	0.00052	9e-05	1e-05	4
18358	-3e-05	-4e-05	3e-05	0.0009	0.00088	0.00052	9e-05	1e-05	4
18359	-3e-05	-4e-05	3e-05	0.0009	0.00088	0.00052	9e-05	1e-05	4
18360	-3e-05	-4e-05	3e-05	0.0009	0.00088	0.00052	9e-05	1e-05	4
18361	-3e-05	-4e-05	3e-05	0.0009	0.00088	0.00052	9e-05	1e-05	4
18362	-3e-05	-4e-05	3e-05	0.0009	0.00088	0.00052	9e-05	1e-05	4
18363	-3e-05	-4e-05	3e-05	0.0009	0.00088	0.00052	9e-05	1e-05	4
18364	-3e-05	-4e-05	3e-05	0.0009	0.00088	0.00052	9e-05	1e-05	4
18365	-3e-05	-4e-05	3e-05	0.0009	0.00088	0.00052	9e-05	1e-05	4
18366	-3e-05	-4e-05	3e-05	0.0009	0.00088	0.00052	9e-05	1e-05	4
18367	-3e-05	-4e-05	3e-05	0.0009	0.00088	0.00052	9e-05	1e-05	4
18368	-3e-05	-4e-05	3e-05	0.0009	0.00088	0.00052	9e-05	1e-05	4
18369	-3e-05	-4e-05	3e-05	0.0009	0.00088	0.00052	9e-05	1e-05	4
18370	-3e-05	-4e-05	3e-05	0.0009	0.00088	0.00052	9e-05	1e-05	4
18371	-0.00012	-0.0002	-0.00027	0.00021	-0.00033	-0.0006	-0.00021	-8e-05	4
18372	4e-05	7e-05	-6e-05	0.00037	-0.00128	-0.00042	9e-05	3e-05	4
18373	4e-05	7e-05	-6e-05	0.00037	-0.00128	-0.00042	9e-05	3e-05	4
18374	-5e-05	-4e-05	0.0001	0.00032	0.00098	0.00015	-4e-05	-0.00011	4
18375	-6e-05	-5e-05	-2e-05	-0.00083	-0.001	-0.00032	-0.00023	-1e-05	4
18376	-6e-05	-5e-05	-2e-05	-0.00083	-0.001	-0.00032	-0.00023	-1e-05	4
18377	-6e-05	-5e-05	-2e-05	-0.00083	-0.001	-0.00032	-0.00023	-1e-05	4
18378	-6e-05	-5e-05	-2e-05	-0.00083	-0.001	-0.00032	-0.00023	-1e-05	4
18379	-6e-05	-5e-05	-2e-05	-0.00083	-0.001	-0.00032	-0.00023	-1e-05	4
18380	-6e-05	-5e-05	-2e-05	-0.00083	-0.001	-0.00032	-0.00023	-1e-05	4
18381	-6e-05	-5e-05	-2e-05	-0.00083	-0.001	-0.00032	-0.00023	-1e-05	4
18382	-6e-05	-5e-05	-2e-05	-0.00083	-0.001	-0.00032	-0.00023	-1e-05	4
18383	7e-05	8e-05	0.00015	-0.00013	-0.00079	2e-05	0.00011	0.0001	4
18384	7e-05	8e-05	0.00015	-0.00013	-0.00079	2e-05	0.00011	0.0001	4
18385	7e-05	8e-05	0.00015	-0.00013	-0.00079	2e-05	0.00011	0.0001	4
18387	7e-05	8e-05	0.00015	-0.00013	-0.00079	2e-05	0.00011	0.0001	4
18390	7e-05	8e-05	0.00015	-0.00013	-0.00079	2e-05	0.00011	0.0001	4
18391	7e-05	8e-05	0.00015	-0.00013	-0.00079	2e-05	0.00011	0.0001	4
18392	7e-05	8e-05	0.00015	-0.00013	-0.00079	2e-05	0.00011	0.0001	4
18393	7e-05	8e-05	0.00015	-0.00013	-0.00079	2e-05	0.00011	0.0001	4
18394	7e-05	8e-05	0.00015	-0.00013	-0.00079	2e-05	0.00011	0.0001	4
18395	7e-05	8e-05	0.00015	-0.00013	-0.00079	2e-05	0.00011	0.0001	4
18396	7e-05	8e-05	0.00015	-0.00013	-0.00079	2e-05	0.00011	0.0001	4
18397	7e-05	8e-05	0.00015	-0.00013	-0.00079	2e-05	0.00011	0.0001	4
18398	1e-05	2e-05	5e-05	0.00051	-0.00029	0.00077	9e-05	1e-05	4
18399	1e-05	2e-05	5e-05	0.00051	-0.00029	0.00077	9e-05	1e-05	4
18400	-3e-05	-3e-05	4e-05	0.00014	0.00083	1e-05	-4e-05	-6e-05	4
18401	-3e-05	-3e-05	4e-05	0.00014	0.00083	1e-05	-4e-05	-6e-05	4
18402	-3e-05	-3e-05	4e-05	0.00014	0.00083	1e-05	-4e-05	-6e-05	4
18403	-3e-05	-3e-05	4e-05	0.00014	0.00083	1e-05	-4e-05	-6e-05	4
18404	-3e-05	-3e-05	4e-05	0.00014	0.00083	1e-05	-4e-05	-6e-05	4
18405	-3e-05	-3e-05	4e-05	0.00014	0.00083	1e-05	-4e-05	-6e-05	4
18406	-3e-05	-3e-05	4e-05	0.00014	0.00083	1e-05	-4e-05	-6e-05	4
18407	-3e-05	-3e-05	4e-05	0.00014	0.00083	1e-05	-4e-05	-6e-05	4
18408	-3e-05	-3e-05	4e-05	0.00014	0.00083	1e-05	-4e-05	-6e-05	4
18409	-3e-05	-3e-05	4e-05	0.00014	0.00083	1e-05	-4e-05	-6e-05	4
18410	-3e-05	-3e-05	4e-05	0.00014	0.00083	1e-05	-4e-05	-6e-05	4
18411	-3e-05	-3e-05	4e-05	0.00014	0.00083	1e-05	-4e-05	-6e-05	4
18412	-3e-05	-3e-05	4e-05	0.00014	0.00083	1e-05	-4e-05	-6e-05	4
18413	-3e-05	-3e-05	4e-05	0.00014	0.00083	1e-05	-4e-05	-6e-05	4
18414	-3e-05	-3e-05	4e-05	0.00014	0.00083	1e-05	-4e-05	-6e-05	4
18415	-3e-05	-3e-05	4e-05	0.00014	0.00083	1e-05	-4e-05	-6e-05	4
18416	-3e-05	-3e-05	4e-05	0.00014	0.00083	1e-05	-4e-05	-6e-05	4
18417	-3e-05	-3e-05	4e-05	0.00014	0.00083	1e-05	-4e-05	-6e-05	4
18418	-3e-05	-3e-05	4e-05	0.00014	0.00083	1e-05	-4e-05	-6e-05	4
18419	-3e-05	-3e-05	4e-05	0.00014	0.00083	1e-05	-4e-05	-6e-05	4
18420	-3e-05	-3e-05	4e-05	0.00014	0.00083	1e-05	-4e-05	-6e-05	4
18421	-3e-05	-3e-05	4e-05	0.00014	0.00083	1e-05	-4e-05	-6e-05	4
18422	-5e-05	-0.00011	-8e-05	-0.00017	-0.00015	0.00048	0.00011	-1e-05	4
18423	-4e-05	-8e-05	-1e-05	0.00038	0.00021	0.00017	5e-05	-3e-05	4
18424	-4e-05	-8e-05	-1e-05	0.00038	0.00021	0.00017	5e-05	-3e-05	4
18425	-4e-05	-8e-05	-1e-05	0.00038	0.00021	0.00017	5e-05	-3e-05	4
18426	-4e-05	-8e-05	-1e-05	0.00038	0.00021	0.00017	5e-05	-3e-05	4
18427	-4e-05	-8e-05	-1e-05	0.00038	0.00021	0.00017	5e-05	-3e-05	4
18428	-4e-05	-8e-05	-1e-05	0.00038	0.00021	0.00017	5e-05	-3e-05	4
18429	-4e-05	-8e-05	-1e-05	0.00038	0.00021	0.00017	5e-05	-3e-05	4
18430	-4e-05	-8e-05	-1e-05	0.00038	0.00021	0.00017	5e-05	-3e-05	4
18431	-4e-05	-8e-05	-1e-05	0.00038	0.00021	0.00017	5e-05	-3e-05	4
18432	-4e-05	-8e-05	-1e-05	0.00038	0.00021	0.00017	5e-05	-3e-05	4
18433	-4e-05	-8e-05	-1e-05	0.00038	0.00021	0.00017	5e-05	-3e-05	4
18434	-4e-05	-8e-05	-1e-05	0.00038	0.00021	0.00017	5e-05	-3e-05	4
18435	-4e-05	-8e-05	-1e-05	0.00038	0.00021	0.00017	5e-05	-3e-05	4
18436	-4e-05	-8e-05	-1e-05	0.00038	0.00021	0.00017	5e-05	-3e-05	4
18439	-4e-05	-8e-05	-1e-05	0.00038	0.00021	0.00017	5e-05	-3e-05	4
18440	-4e-05	-8e-05	-1e-05	0.00038	0.00021	0.00017	5e-05	-3e-05	4
18441	-4e-05	-8e-05	-1e-05	0.00038	0.00021	0.00017	5e-05	-3e-05	4
18442	-4e-05	-8e-05	-1e-05	0.00038	0.00021	0.00017	5e-05	-3e-05	4
18443	-8e-05	-7e-05	-0.00014	-0.00044	-0.0002	-0.00057	-0.00014	-7e-05	4
18444	-8e-05	-7e-05	-0.00014	-0.00044	-0.0002	-0.00057	-0.00014	-7e-05	4
18445	-0.00013	-0.00014	-0.00015	-0.00071	-0.00105	-0.00075	-0.00027	-0.00017	4
18446	-0.00013	-0.00014	-0.00015	-0.00071	-0.00105	-0.00075	-0.00027	-0.00017	4
18447	-0.00013	-0.00014	-0.00015	-0.00071	-0.00105	-0.00075	-0.00027	-0.00017	4
18448	-0.00013	-0.00014	-0.00015	-0.00071	-0.00105	-0.00075	-0.00027	-0.00017	4
18449	-0.00013	-0.00014	-0.00015	-0.00071	-0.00105	-0.00075	-0.00027	-0.00017	4
18450	-0.00013	-0.00014	-0.00015	-0.00071	-0.00105	-0.00075	-0.00027	-0.00017	4
18451	-0.00013	-0.00014	-0.00015	-0.00071	-0.00105	-0.00075	-0.00027	-0.00017	4
18452	-0.00013	-0.00014	-0.00015	-0.00071	-0.00105	-0.00075	-0.00027	-0.00017	4
18453	-0.00013	-0.00014	-0.00015	-0.00071	-0.00105	-0.00075	-0.00027	-0.00017	4
18454	-0.00013	-0.00014	-0.00015	-0.00071	-0.00105	-0.00075	-0.00027	-0.00017	4
18455	-0.00013	-0.00014	-0.00015	-0.00071	-0.00105	-0.00075	-0.00027	-0.00017	4
18456	-0.00013	-0.00014	-0.00015	-0.00071	-0.00105	-0.00075	-0.00027	-0.00017	4
18457	-0.00013	-0.00014	-0.00015	-0.00071	-0.00105	-0.00075	-0.00027	-0.00017	4
18458	-0.0001	-0.00017	-0.00021	-0.00047	-0.00064	-0.00054	-8e-05	-0.00013	4
18459	-0.0001	-0.00017	-0.00021	-0.00047	-0.00064	-0.00054	-8e-05	-0.00013	4
18460	-4e-05	-4e-05	-0.00016	-0.00037	-0.0004	-0.0003	-0.00011	1e-05	4
18461	-4e-05	-4e-05	-0.00016	-0.00037	-0.0004	-0.0003	-0.00011	1e-05	4
18462	-4e-05	-4e-05	-0.00016	-0.00037	-0.0004	-0.0003	-0.00011	1e-05	4
18463	-4e-05	-4e-05	-0.00016	-0.00037	-0.0004	-0.0003	-0.00011	1e-05	4
18464	-4e-05	-4e-05	-0.00016	-0.00037	-0.0004	-0.0003	-0.00011	1e-05	4
18465	-4e-05	-4e-05	-0.00016	-0.00037	-0.0004	-0.0003	-0.00011	1e-05	4
18466	-4e-05	-4e-05	-0.00016	-0.00037	-0.0004	-0.0003	-0.00011	1e-05	4
18467	-4e-05	-4e-05	-0.00016	-0.00037	-0.0004	-0.0003	-0.00011	1e-05	4
18468	-4e-05	-4e-05	-0.00016	-0.00037	-0.0004	-0.0003	-0.00011	1e-05	4
18469	-4e-05	-4e-05	-0.00016	-0.00037	-0.0004	-0.0003	-0.00011	1e-05	4
18470	-4e-05	-4e-05	-0.00016	-0.00037	-0.0004	-0.0003	-0.00011	1e-05	4
18471	-4e-05	-4e-05	-0.00016	-0.00037	-0.0004	-0.0003	-0.00011	1e-05	4
18472	-4e-05	-4e-05	-0.00016	-0.00037	-0.0004	-0.0003	-0.00011	1e-05	4
18473	-4e-05	-4e-05	-0.00016	-0.00037	-0.0004	-0.0003	-0.00011	1e-05	4
18474	-4e-05	-4e-05	-0.00016	-0.00037	-0.0004	-0.0003	-0.00011	1e-05	4
18475	-4e-05	-4e-05	-0.00016	-0.00037	-0.0004	-0.0003	-0.00011	1e-05	4
18476	-4e-05	-4e-05	-0.00016	-0.00037	-0.0004	-0.0003	-0.00011	1e-05	4
18477	-4e-05	-4e-05	-0.00016	-0.00037	-0.0004	-0.0003	-0.00011	1e-05	4
18478	-4e-05	-4e-05	-0.00016	-0.00037	-0.0004	-0.0003	-0.00011	1e-05	4
18479	-4e-05	-4e-05	-0.00016	-0.00037	-0.0004	-0.0003	-0.00011	1e-05	4
18480	-4e-05	-4e-05	-0.00016	-0.00037	-0.0004	-0.0003	-0.00011	1e-05	4
18481	0.00015	0.00024	0.00029	0.00103	0.00057	0.00071	0.00029	0.00012	4
18482	-1e-05	-2e-05	4e-05	0.00015	6e-05	0.00022	9e-05	-3e-05	4
18483	-1e-05	-2e-05	4e-05	0.00015	6e-05	0.00022	9e-05	-3e-05	4
18484	-1e-05	-2e-05	4e-05	0.00015	6e-05	0.00022	9e-05	-3e-05	4
18485	-1e-05	-2e-05	4e-05	0.00015	6e-05	0.00022	9e-05	-3e-05	4
18486	-1e-05	-2e-05	4e-05	0.00015	6e-05	0.00022	9e-05	-3e-05	4
18488	-1e-05	-2e-05	4e-05	0.00015	6e-05	0.00022	9e-05	-3e-05	4
18489	-1e-05	-2e-05	4e-05	0.00015	6e-05	0.00022	9e-05	-3e-05	4
18490	-1e-05	-2e-05	4e-05	0.00015	6e-05	0.00022	9e-05	-3e-05	4
18491	-1e-05	-2e-05	4e-05	0.00015	6e-05	0.00022	9e-05	-3e-05	4
18492	-1e-05	-2e-05	4e-05	0.00015	6e-05	0.00022	9e-05	-3e-05	4
18493	-1e-05	-2e-05	4e-05	0.00015	6e-05	0.00022	9e-05	-3e-05	4
18494	-1e-05	-2e-05	4e-05	0.00015	6e-05	0.00022	9e-05	-3e-05	4
18495	-1e-05	-2e-05	4e-05	0.00015	6e-05	0.00022	9e-05	-3e-05	4
18496	-1e-05	-2e-05	4e-05	0.00015	6e-05	0.00022	9e-05	-3e-05	4
18497	-1e-05	-2e-05	4e-05	0.00015	6e-05	0.00022	9e-05	-3e-05	4
18498	-1e-05	-2e-05	4e-05	0.00015	6e-05	0.00022	9e-05	-3e-05	4
18499	-1e-05	-2e-05	4e-05	0.00015	6e-05	0.00022	9e-05	-3e-05	4
18500	-1e-05	-2e-05	4e-05	0.00015	6e-05	0.00022	9e-05	-3e-05	4
18501	-1e-05	-2e-05	4e-05	0.00015	6e-05	0.00022	9e-05	-3e-05	4
18502	-1e-05	-2e-05	4e-05	0.00015	6e-05	0.00022	9e-05	-3e-05	4
18503	6e-05	4e-05	-4e-05	-0.00067	-0.00036	0.00039	0.00013	8e-05	4
18504	6e-05	4e-05	-4e-05	-0.00067	-0.00036	0.00039	0.00013	8e-05	4
18505	0.00013	0.00012	0.00013	0.00013	0.00026	0.00053	0.00025	0.00013	4
18506	0.00013	0.00012	0.00013	0.00013	0.00026	0.00053	0.00025	0.00013	4
18507	0.00013	0.00012	0.00013	0.00013	0.00026	0.00053	0.00025	0.00013	4
18508	0.00013	0.00012	0.00013	0.00013	0.00026	0.00053	0.00025	0.00013	4
18509	0.00013	0.00012	0.00013	0.00013	0.00026	0.00053	0.00025	0.00013	4
18510	0.00013	0.00012	0.00013	0.00013	0.00026	0.00053	0.00025	0.00013	4
18511	0.00013	0.00012	0.00013	0.00013	0.00026	0.00053	0.00025	0.00013	4
18512	0.00013	0.00012	0.00013	0.00013	0.00026	0.00053	0.00025	0.00013	4
18513	0.00013	0.00012	0.00013	0.00013	0.00026	0.00053	0.00025	0.00013	4
18514	0.00013	0.00012	0.00013	0.00013	0.00026	0.00053	0.00025	0.00013	4
18515	0.00013	0.00012	0.00013	0.00013	0.00026	0.00053	0.00025	0.00013	4
18516	0.00013	0.00012	0.00013	0.00013	0.00026	0.00053	0.00025	0.00013	4
18517	0.00013	0.00012	0.00013	0.00013	0.00026	0.00053	0.00025	0.00013	4
18518	0.00013	0.00012	0.00013	0.00013	0.00026	0.00053	0.00025	0.00013	4
18519	0.00013	0.00012	0.00013	0.00013	0.00026	0.00053	0.00025	0.00013	4
18520	0.00013	0.00012	0.00013	0.00013	0.00026	0.00053	0.00025	0.00013	4
18521	0.00013	0.00012	0.00013	0.00013	0.00026	0.00053	0.00025	0.00013	4
18522	0.00013	0.00012	0.00013	0.00013	0.00026	0.00053	0.00025	0.00013	4
18523	0.00013	0.00012	0.00013	0.00013	0.00026	0.00053	0.00025	0.00013	4
18524	0.00013	0.00012	0.00013	0.00013	0.00026	0.00053	0.00025	0.00013	4
18525	0.00013	0.00012	0.00013	0.00013	0.00026	0.00053	0.00025	0.00013	4
18526	6e-05	6e-05	9e-05	0.00015	-3e-05	-3e-05	1e-05	9e-05	4
18527	6e-05	6e-05	9e-05	0.00015	-3e-05	-3e-05	1e-05	9e-05	4
18528	4e-05	6e-05	6e-05	0.00011	-0.00025	0.00028	3e-05	5e-05	4
18529	4e-05	6e-05	6e-05	0.00011	-0.00025	0.00028	3e-05	5e-05	4
18530	4e-05	6e-05	6e-05	0.00011	-0.00025	0.00028	3e-05	5e-05	4
18531	4e-05	6e-05	6e-05	0.00011	-0.00025	0.00028	3e-05	5e-05	4
18532	4e-05	6e-05	6e-05	0.00011	-0.00025	0.00028	3e-05	5e-05	4
18533	4e-05	6e-05	6e-05	0.00011	-0.00025	0.00028	3e-05	5e-05	4
18534	4e-05	6e-05	6e-05	0.00011	-0.00025	0.00028	3e-05	5e-05	4
18535	4e-05	6e-05	6e-05	0.00011	-0.00025	0.00028	3e-05	5e-05	4
18536	4e-05	6e-05	6e-05	0.00011	-0.00025	0.00028	3e-05	5e-05	4
18538	4e-05	6e-05	6e-05	0.00011	-0.00025	0.00028	3e-05	5e-05	4
18539	4e-05	6e-05	6e-05	0.00011	-0.00025	0.00028	3e-05	5e-05	4
18540	4e-05	6e-05	6e-05	0.00011	-0.00025	0.00028	3e-05	5e-05	4
18541	4e-05	6e-05	6e-05	0.00011	-0.00025	0.00028	3e-05	5e-05	4
18542	4e-05	6e-05	6e-05	0.00011	-0.00025	0.00028	3e-05	5e-05	4
18543	4e-05	6e-05	6e-05	0.00011	-0.00025	0.00028	3e-05	5e-05	4
18544	4e-05	6e-05	6e-05	0.00011	-0.00025	0.00028	3e-05	5e-05	4
18545	4e-05	6e-05	6e-05	0.00011	-0.00025	0.00028	3e-05	5e-05	4
18546	4e-05	6e-05	6e-05	0.00011	-0.00025	0.00028	3e-05	5e-05	4
18547	4e-05	6e-05	6e-05	0.00011	-0.00025	0.00028	3e-05	5e-05	4
18548	4e-05	6e-05	6e-05	0.00011	-0.00025	0.00028	3e-05	5e-05	4
18549	4e-05	6e-05	6e-05	0.00011	-0.00025	0.00028	3e-05	5e-05	4
18550	4e-05	6e-05	6e-05	0.00011	-0.00025	0.00028	3e-05	5e-05	4
18551	4e-05	6e-05	6e-05	0.00011	-0.00025	0.00028	3e-05	5e-05	4
18552	4e-05	6e-05	6e-05	0.00011	-0.00025	0.00028	3e-05	5e-05	4
18553	4e-05	6e-05	6e-05	0.00011	-0.00025	0.00028	3e-05	5e-05	4
18554	4e-05	6e-05	6e-05	0.00011	-0.00025	0.00028	3e-05	5e-05	4
18555	4e-05	6e-05	6e-05	0.00011	-0.00025	0.00028	3e-05	5e-05	4
18556	4e-05	6e-05	6e-05	0.00011	-0.00025	0.00028	3e-05	5e-05	4
18557	4e-05	6e-05	6e-05	0.00011	-0.00025	0.00028	3e-05	5e-05	4
18558	4e-05	6e-05	6e-05	0.00011	-0.00025	0.00028	3e-05	5e-05	4
18559	4e-05	6e-05	6e-05	0.00011	-0.00025	0.00028	3e-05	5e-05	4
18560	4e-05	6e-05	6e-05	0.00011	-0.00025	0.00028	3e-05	5e-05	4
18561	4e-05	6e-05	6e-05	0.00011	-0.00025	0.00028	3e-05	5e-05	4
18562	4e-05	6e-05	6e-05	0.00011	-0.00025	0.00028	3e-05	5e-05	4
18563	4e-05	6e-05	6e-05	0.00011	-0.00025	0.00028	3e-05	5e-05	4
18564	4e-05	6e-05	6e-05	0.00011	-0.00025	0.00028	3e-05	5e-05	4
18565	4e-05	6e-05	6e-05	0.00011	-0.00025	0.00028	3e-05	5e-05	4
18566	4e-05	6e-05	6e-05	0.00011	-0.00025	0.00028	3e-05	5e-05	4
18567	4e-05	6e-05	6e-05	0.00011	-0.00025	0.00028	3e-05	5e-05	4
18568	4e-05	6e-05	6e-05	0.00011	-0.00025	0.00028	3e-05	5e-05	4
18569	4e-05	6e-05	6e-05	0.00011	-0.00025	0.00028	3e-05	5e-05	4
18570	4e-05	6e-05	6e-05	0.00011	-0.00025	0.00028	3e-05	5e-05	4
18571	4e-05	6e-05	6e-05	0.00011	-0.00025	0.00028	3e-05	5e-05	4
18572	4e-05	6e-05	6e-05	0.00011	-0.00025	0.00028	3e-05	5e-05	4
18573	4e-05	6e-05	6e-05	0.00011	-0.00025	0.00028	3e-05	5e-05	4
18574	4e-05	6e-05	6e-05	0.00011	-0.00025	0.00028	3e-05	5e-05	4
18575	4e-05	6e-05	6e-05	0.00011	-0.00025	0.00028	3e-05	5e-05	4
18576	4e-05	6e-05	6e-05	0.00011	-0.00025	0.00028	3e-05	5e-05	4
18577	4e-05	6e-05	6e-05	0.00011	-0.00025	0.00028	3e-05	5e-05	4
18578	4e-05	6e-05	6e-05	0.00011	-0.00025	0.00028	3e-05	5e-05	4
18579	4e-05	6e-05	6e-05	0.00011	-0.00025	0.00028	3e-05	5e-05	4
18580	4e-05	6e-05	6e-05	0.00011	-0.00025	0.00028	3e-05	5e-05	4
18581	4e-05	6e-05	6e-05	0.00011	-0.00025	0.00028	3e-05	5e-05	4
18582	4e-05	6e-05	6e-05	0.00011	-0.00025	0.00028	3e-05	5e-05	4
18583	4e-05	6e-05	6e-05	0.00011	-0.00025	0.00028	3e-05	5e-05	4
18584	4e-05	6e-05	6e-05	0.00011	-0.00025	0.00028	3e-05	5e-05	4
18585	4e-05	6e-05	6e-05	0.00011	-0.00025	0.00028	3e-05	5e-05	4
18587	4e-05	6e-05	6e-05	0.00011	-0.00025	0.00028	3e-05	5e-05	4
18590	4e-05	6e-05	6e-05	0.00011	-0.00025	0.00028	3e-05	5e-05	4
18591	4e-05	6e-05	6e-05	0.00011	-0.00025	0.00028	3e-05	5e-05	4
18592	4e-05	6e-05	6e-05	0.00011	-0.00025	0.00028	3e-05	5e-05	4
18593	4e-05	6e-05	6e-05	0.00011	-0.00025	0.00028	3e-05	5e-05	4
18594	4e-05	6e-05	6e-05	0.00011	-0.00025	0.00028	3e-05	5e-05	4
18595	4e-05	6e-05	6e-05	0.00011	-0.00025	0.00028	3e-05	5e-05	4
18596	4e-05	6e-05	6e-05	0.00011	-0.00025	0.00028	3e-05	5e-05	4
18597	4e-05	6e-05	6e-05	0.00011	-0.00025	0.00028	3e-05	5e-05	4
18598	4e-05	6e-05	6e-05	0.00011	-0.00025	0.00028	3e-05	5e-05	4
18599	4e-05	6e-05	6e-05	0.00011	-0.00025	0.00028	3e-05	5e-05	4
18600	4e-05	6e-05	6e-05	0.00011	-0.00025	0.00028	3e-05	5e-05	4
18601	-0.0001	-0.00015	-0.00021	-0.00021	0.00054	0.00034	-0.00012	-0.00015	4
18602	4e-05	9e-05	0.00011	0.00032	-8e-05	0.00026	-0.00014	0	4
18603	4e-05	9e-05	0.00011	0.00032	-8e-05	0.00026	-0.00014	0	4
18604	4e-05	9e-05	0.00011	0.00032	-8e-05	0.00026	-0.00014	0	4
18605	4e-05	9e-05	0.00011	0.00032	-8e-05	0.00026	-0.00014	0	4
18606	4e-05	9e-05	0.00011	0.00032	-8e-05	0.00026	-0.00014	0	4
18607	4e-05	9e-05	0.00011	0.00032	-8e-05	0.00026	-0.00014	0	4
18608	4e-05	9e-05	0.00011	0.00032	-8e-05	0.00026	-0.00014	0	4
18609	4e-05	9e-05	0.00011	0.00032	-8e-05	0.00026	-0.00014	0	4
18610	4e-05	9e-05	0.00011	0.00032	-8e-05	0.00026	-0.00014	0	4
18611	4e-05	9e-05	0.00011	0.00032	-8e-05	0.00026	-0.00014	0	4
18612	4e-05	9e-05	0.00011	0.00032	-8e-05	0.00026	-0.00014	0	4
18613	4e-05	9e-05	0.00011	0.00032	-8e-05	0.00026	-0.00014	0	4
18614	4e-05	9e-05	0.00011	0.00032	-8e-05	0.00026	-0.00014	0	4
18615	4e-05	9e-05	0.00011	0.00032	-8e-05	0.00026	-0.00014	0	4
18616	4e-05	9e-05	0.00011	0.00032	-8e-05	0.00026	-0.00014	0	4
18617	4e-05	9e-05	0.00011	0.00032	-8e-05	0.00026	-0.00014	0	4
18618	4e-05	9e-05	0.00011	0.00032	-8e-05	0.00026	-0.00014	0	4
18619	4e-05	9e-05	0.00011	0.00032	-8e-05	0.00026	-0.00014	0	4
18620	4e-05	9e-05	0.00011	0.00032	-8e-05	0.00026	-0.00014	0	4
18621	4e-05	9e-05	0.00011	0.00032	-8e-05	0.00026	-0.00014	0	4
18622	4e-05	9e-05	0.00011	0.00032	-8e-05	0.00026	-0.00014	0	4
18623	4e-05	9e-05	0.00011	0.00032	-8e-05	0.00026	-0.00014	0	4
18624	4e-05	9e-05	0.00011	0.00032	-8e-05	0.00026	-0.00014	0	4
18625	4e-05	9e-05	0.00011	0.00032	-8e-05	0.00026	-0.00014	0	4
18626	4e-05	9e-05	0.00011	0.00032	-8e-05	0.00026	-0.00014	0	4
18627	4e-05	9e-05	0.00011	0.00032	-8e-05	0.00026	-0.00014	0	4
18628	4e-05	9e-05	0.00011	0.00032	-8e-05	0.00026	-0.00014	0	4
18629	4e-05	9e-05	0.00011	0.00032	-8e-05	0.00026	-0.00014	0	4
18630	4e-05	9e-05	0.00011	0.00032	-8e-05	0.00026	-0.00014	0	4
18631	4e-05	9e-05	0.00011	0.00032	-8e-05	0.00026	-0.00014	0	4
18632	4e-05	9e-05	0.00011	0.00032	-8e-05	0.00026	-0.00014	0	4
18633	0	-3e-05	0	0.00027	0.00045	0.00045	0.00015	5e-05	4
18634	-9e-05	-7e-05	-0.0001	-0.0005	-0.00046	-0.00104	-0.00023	-0.00011	4
18635	-9e-05	-7e-05	-0.0001	-0.0005	-0.00046	-0.00104	-0.00023	-0.00011	4
18636	-9e-05	-7e-05	-0.0001	-0.0005	-0.00046	-0.00104	-0.00023	-0.00011	4
18639	-9e-05	-7e-05	-0.0001	-0.0005	-0.00046	-0.00104	-0.00023	-0.00011	4
18640	-9e-05	-7e-05	-0.0001	-0.0005	-0.00046	-0.00104	-0.00023	-0.00011	4
18641	-9e-05	-7e-05	-0.0001	-0.0005	-0.00046	-0.00104	-0.00023	-0.00011	4
18642	-9e-05	-7e-05	-0.0001	-0.0005	-0.00046	-0.00104	-0.00023	-0.00011	4
18643	-9e-05	-7e-05	-0.0001	-0.0005	-0.00046	-0.00104	-0.00023	-0.00011	4
18644	-9e-05	-7e-05	-0.0001	-0.0005	-0.00046	-0.00104	-0.00023	-0.00011	4
18645	-9e-05	-7e-05	-0.0001	-0.0005	-0.00046	-0.00104	-0.00023	-0.00011	4
18646	-9e-05	-7e-05	-0.0001	-0.0005	-0.00046	-0.00104	-0.00023	-0.00011	4
18647	-5e-05	-0.0001	-0.0002	2e-05	0.00066	0.0004	0	-4e-05	4
18648	-9e-05	-0.00013	-0.00026	-0.00059	0.00046	-0.00015	-0.0001	-0.00011	4
18649	0.00011	0.00014	0.00026	0.00023	-0.0005	-0.00074	-3e-05	7e-05	4
18650	5e-05	7e-05	7e-05	0.00062	-0.0005	0.00089	0.00029	5e-05	4
18651	5e-05	7e-05	7e-05	0.00062	-0.0005	0.00089	0.00029	5e-05	4
18652	5e-05	7e-05	7e-05	0.00062	-0.0005	0.00089	0.00029	5e-05	4
18653	5e-05	7e-05	7e-05	0.00062	-0.0005	0.00089	0.00029	5e-05	4
18654	5e-05	7e-05	7e-05	0.00062	-0.0005	0.00089	0.00029	5e-05	4
18655	5e-05	7e-05	7e-05	0.00062	-0.0005	0.00089	0.00029	5e-05	4
18656	5e-05	7e-05	7e-05	0.00062	-0.0005	0.00089	0.00029	5e-05	4
18657	5e-05	7e-05	7e-05	0.00062	-0.0005	0.00089	0.00029	5e-05	4
18658	5e-05	7e-05	7e-05	0.00062	-0.0005	0.00089	0.00029	5e-05	4
18659	5e-05	7e-05	7e-05	0.00062	-0.0005	0.00089	0.00029	5e-05	4
18660	5e-05	7e-05	7e-05	0.00062	-0.0005	0.00089	0.00029	5e-05	4
18661	5e-05	7e-05	7e-05	0.00062	-0.0005	0.00089	0.00029	5e-05	4
18662	-1e-05	-3e-05	3e-05	0.00024	-0.0002	0.00016	-1e-05	-4e-05	4
18663	0.00016	0.00018	0.00019	0.00042	0.00067	0.00121	0.00025	0.00019	4
18664	-0.00014	-0.00016	-0.0002	2e-05	-0.0004	-0.00053	-0.00026	-0.00012	4
18665	-0.00014	-0.00016	-0.0002	2e-05	-0.0004	-0.00053	-0.00026	-0.00012	4
18666	-0.00014	-0.00016	-0.0002	2e-05	-0.0004	-0.00053	-0.00026	-0.00012	4
18667	-0.00014	-0.00016	-0.0002	2e-05	-0.0004	-0.00053	-0.00026	-0.00012	4
18668	-0.00014	-0.00016	-0.0002	2e-05	-0.0004	-0.00053	-0.00026	-0.00012	4
18669	-0.00014	-0.00016	-0.0002	2e-05	-0.0004	-0.00053	-0.00026	-0.00012	4
18670	-0.00014	-0.00016	-0.0002	2e-05	-0.0004	-0.00053	-0.00026	-0.00012	4
18671	-0.00014	-0.00016	-0.0002	2e-05	-0.0004	-0.00053	-0.00026	-0.00012	4
18672	-0.00014	-0.00016	-0.0002	2e-05	-0.0004	-0.00053	-0.00026	-0.00012	4
18673	-0.00014	-0.00016	-0.0002	2e-05	-0.0004	-0.00053	-0.00026	-0.00012	4
18674	-0.00014	-0.00016	-0.0002	2e-05	-0.0004	-0.00053	-0.00026	-0.00012	4
18675	-0.00014	-0.00016	-0.0002	2e-05	-0.0004	-0.00053	-0.00026	-0.00012	4
18676	-0.00014	-0.00016	-0.0002	2e-05	-0.0004	-0.00053	-0.00026	-0.00012	4
18677	-0.00014	-0.00016	-0.0002	2e-05	-0.0004	-0.00053	-0.00026	-0.00012	4
18678	-0.00014	-0.00016	-0.0002	2e-05	-0.0004	-0.00053	-0.00026	-0.00012	4
18679	-0.00014	-0.00016	-0.0002	2e-05	-0.0004	-0.00053	-0.00026	-0.00012	4
18680	-0.00014	-0.00016	-0.0002	2e-05	-0.0004	-0.00053	-0.00026	-0.00012	4
18681	-0.00014	-0.00016	-0.0002	2e-05	-0.0004	-0.00053	-0.00026	-0.00012	4
18682	-0.00014	-0.00016	-0.0002	2e-05	-0.0004	-0.00053	-0.00026	-0.00012	4
18683	-0.00014	-0.00016	-0.0002	2e-05	-0.0004	-0.00053	-0.00026	-0.00012	4
18684	-0.00012	-0.00015	-0.00019	-0.00046	-0.00014	-0.00108	-0.00017	-0.0001	4
18685	-6e-05	-5e-05	-3e-05	0.00029	-5e-05	-2e-05	-0.00016	-7e-05	4
18686	-6e-05	-5e-05	-3e-05	0.00029	-5e-05	-2e-05	-0.00016	-7e-05	4
18689	-6e-05	-5e-05	-3e-05	0.00029	-5e-05	-2e-05	-0.00016	-7e-05	4
18690	-6e-05	-5e-05	-3e-05	0.00029	-5e-05	-2e-05	-0.00016	-7e-05	4
18691	-6e-05	-5e-05	-3e-05	0.00029	-5e-05	-2e-05	-0.00016	-7e-05	4
18692	-6e-05	-5e-05	-3e-05	0.00029	-5e-05	-2e-05	-0.00016	-7e-05	4
18693	-6e-05	-5e-05	-3e-05	0.00029	-5e-05	-2e-05	-0.00016	-7e-05	4
18694	-6e-05	-5e-05	-3e-05	0.00029	-5e-05	-2e-05	-0.00016	-7e-05	4
18695	-6e-05	-5e-05	-3e-05	0.00029	-5e-05	-2e-05	-0.00016	-7e-05	4
18696	-6e-05	-5e-05	-3e-05	0.00029	-5e-05	-2e-05	-0.00016	-7e-05	4
18697	-6e-05	-5e-05	-3e-05	0.00029	-5e-05	-2e-05	-0.00016	-7e-05	4
18698	-4e-05	-5e-05	-3e-05	0.00069	0.00071	0.00028	-0.00019	-9e-05	4
18699	-4e-05	-5e-05	-3e-05	0.00069	0.00071	0.00028	-0.00019	-9e-05	4
18700	-4e-05	-5e-05	-3e-05	0.00069	0.00071	0.00028	-0.00019	-9e-05	4
18701	-4e-05	-5e-05	-3e-05	0.00069	0.00071	0.00028	-0.00019	-9e-05	4
18702	-4e-05	-5e-05	-3e-05	0.00069	0.00071	0.00028	-0.00019	-9e-05	4
18703	-4e-05	-5e-05	-3e-05	0.00069	0.00071	0.00028	-0.00019	-9e-05	4
18704	-4e-05	-5e-05	-3e-05	0.00069	0.00071	0.00028	-0.00019	-9e-05	4
18705	-3e-05	-2e-05	2e-05	-0.00033	0.00036	-0.00064	-0.00013	-8e-05	4
18706	-3e-05	-2e-05	2e-05	-0.00033	0.00036	-0.00064	-0.00013	-8e-05	4
18707	-3e-05	-2e-05	2e-05	-0.00033	0.00036	-0.00064	-0.00013	-8e-05	4
18708	-3e-05	-2e-05	2e-05	-0.00033	0.00036	-0.00064	-0.00013	-8e-05	4
18709	-3e-05	-2e-05	2e-05	-0.00033	0.00036	-0.00064	-0.00013	-8e-05	4
18710	-3e-05	-2e-05	2e-05	-0.00033	0.00036	-0.00064	-0.00013	-8e-05	4
18711	-3e-05	-2e-05	2e-05	-0.00033	0.00036	-0.00064	-0.00013	-8e-05	4
18712	-3e-05	-2e-05	2e-05	-0.00033	0.00036	-0.00064	-0.00013	-8e-05	4
18713	-3e-05	-2e-05	2e-05	-0.00033	0.00036	-0.00064	-0.00013	-8e-05	4
18714	-3e-05	-2e-05	2e-05	-0.00033	0.00036	-0.00064	-0.00013	-8e-05	4
18715	-3e-05	-2e-05	2e-05	-0.00033	0.00036	-0.00064	-0.00013	-8e-05	4
18716	-3e-05	-2e-05	2e-05	-0.00033	0.00036	-0.00064	-0.00013	-8e-05	4
18717	-3e-05	-2e-05	2e-05	-0.00033	0.00036	-0.00064	-0.00013	-8e-05	4
18718	-3e-05	-2e-05	2e-05	-0.00033	0.00036	-0.00064	-0.00013	-8e-05	4
18719	-3e-05	-2e-05	2e-05	-0.00033	0.00036	-0.00064	-0.00013	-8e-05	4
18720	-3e-05	-2e-05	2e-05	-0.00033	0.00036	-0.00064	-0.00013	-8e-05	4
18721	-5e-05	-6e-05	-6e-05	-0.00034	-0.00076	0.00071	-3e-05	-5e-05	4
18722	-5e-05	-6e-05	-6e-05	-0.00034	-0.00076	0.00071	-3e-05	-5e-05	4
18723	1e-05	9e-05	0.00013	-0.00023	-0.0008	2e-05	4e-05	-0.0001	4
18725	1e-05	9e-05	0.00013	-0.00023	-0.0008	2e-05	4e-05	-0.0001	4
18726	1e-05	9e-05	0.00013	-0.00023	-0.0008	2e-05	4e-05	-0.0001	4
18727	1e-05	9e-05	0.00013	-0.00023	-0.0008	2e-05	4e-05	-0.0001	4
18728	1e-05	9e-05	0.00013	-0.00023	-0.0008	2e-05	4e-05	-0.0001	4
18729	1e-05	9e-05	0.00013	-0.00023	-0.0008	2e-05	4e-05	-0.0001	4
18730	1e-05	9e-05	0.00013	-0.00023	-0.0008	2e-05	4e-05	-0.0001	4
18731	1e-05	9e-05	0.00013	-0.00023	-0.0008	2e-05	4e-05	-0.0001	4
18732	1e-05	9e-05	0.00013	-0.00023	-0.0008	2e-05	4e-05	-0.0001	4
18733	1e-05	9e-05	0.00013	-0.00023	-0.0008	2e-05	4e-05	-0.0001	4
18734	1e-05	9e-05	0.00013	-0.00023	-0.0008	2e-05	4e-05	-0.0001	4
18735	1e-05	9e-05	0.00013	-0.00023	-0.0008	2e-05	4e-05	-0.0001	4
18736	1e-05	9e-05	0.00013	-0.00023	-0.0008	2e-05	4e-05	-0.0001	4
18739	1e-05	9e-05	0.00013	-0.00023	-0.0008	2e-05	4e-05	-0.0001	4
18740	1e-05	9e-05	0.00013	-0.00023	-0.0008	2e-05	4e-05	-0.0001	4
18741	1e-05	9e-05	0.00013	-0.00023	-0.0008	2e-05	4e-05	-0.0001	4
18742	1e-05	9e-05	0.00013	-0.00023	-0.0008	2e-05	4e-05	-0.0001	4
18743	5e-05	1e-05	0	-0.00049	0.00058	0.00014	2e-05	0.00022	4
18744	5e-05	1e-05	0	-0.00049	0.00058	0.00014	2e-05	0.00022	4
18745	1e-05	2e-05	6e-05	0.00015	2e-05	1e-05	5e-05	2e-05	4
18746	1e-05	2e-05	6e-05	0.00015	2e-05	1e-05	5e-05	2e-05	4
18747	1e-05	2e-05	6e-05	0.00015	2e-05	1e-05	5e-05	2e-05	4
18748	1e-05	2e-05	6e-05	0.00015	2e-05	1e-05	5e-05	2e-05	4
18749	1e-05	2e-05	6e-05	0.00015	2e-05	1e-05	5e-05	2e-05	4
18750	1e-05	2e-05	6e-05	0.00015	2e-05	1e-05	5e-05	2e-05	4
18751	1e-05	2e-05	6e-05	0.00015	2e-05	1e-05	5e-05	2e-05	4
18752	1e-05	2e-05	6e-05	0.00015	2e-05	1e-05	5e-05	2e-05	4
18753	1e-05	2e-05	6e-05	0.00015	2e-05	1e-05	5e-05	2e-05	4
18754	1e-05	2e-05	6e-05	0.00015	2e-05	1e-05	5e-05	2e-05	4
18755	1e-05	2e-05	6e-05	0.00015	2e-05	1e-05	5e-05	2e-05	4
18756	1e-05	2e-05	6e-05	0.00015	2e-05	1e-05	5e-05	2e-05	4
18757	1e-05	2e-05	6e-05	0.00015	2e-05	1e-05	5e-05	2e-05	4
18758	9e-05	0.00011	0.00015	0.00064	-0.00025	-0.00054	6e-05	3e-05	4
18759	9e-05	0.00011	0.00015	0.00064	-0.00025	-0.00054	6e-05	3e-05	4
18760	9e-05	0.00011	0.00015	0.00064	-0.00025	-0.00054	6e-05	3e-05	4
18761	9e-05	0.00011	0.00015	0.00064	-0.00025	-0.00054	6e-05	3e-05	4
18762	9e-05	0.00011	0.00015	0.00064	-0.00025	-0.00054	6e-05	3e-05	4
18763	9e-05	0.00011	0.00015	0.00064	-0.00025	-0.00054	6e-05	3e-05	4
18764	-4e-05	-1e-05	6e-05	8e-05	0.0003	0.00071	0.00013	6e-05	4
18765	-1e-05	-5e-05	-9e-05	5e-05	0.00068	0.00016	-4e-05	-1e-05	4
18766	-1e-05	-5e-05	-9e-05	5e-05	0.00068	0.00016	-4e-05	-1e-05	4
18767	-1e-05	-5e-05	-9e-05	5e-05	0.00068	0.00016	-4e-05	-1e-05	4
18768	-1e-05	-5e-05	-9e-05	5e-05	0.00068	0.00016	-4e-05	-1e-05	4
18769	-1e-05	-5e-05	-9e-05	5e-05	0.00068	0.00016	-4e-05	-1e-05	4
18770	-1e-05	-5e-05	-9e-05	5e-05	0.00068	0.00016	-4e-05	-1e-05	4
18772	-1e-05	-5e-05	-9e-05	5e-05	0.00068	0.00016	-4e-05	-1e-05	4
18773	-1e-05	-5e-05	-9e-05	5e-05	0.00068	0.00016	-4e-05	-1e-05	4
18774	-1e-05	-5e-05	-9e-05	5e-05	0.00068	0.00016	-4e-05	-1e-05	4
18775	-1e-05	-5e-05	-9e-05	5e-05	0.00068	0.00016	-4e-05	-1e-05	4
18776	-1e-05	-5e-05	-9e-05	5e-05	0.00068	0.00016	-4e-05	-1e-05	4
18777	-1e-05	-5e-05	-9e-05	5e-05	0.00068	0.00016	-4e-05	-1e-05	4
18778	-1e-05	-5e-05	-9e-05	5e-05	0.00068	0.00016	-4e-05	-1e-05	4
18779	-1e-05	-5e-05	-9e-05	5e-05	0.00068	0.00016	-4e-05	-1e-05	4
18780	-1e-05	-5e-05	-9e-05	5e-05	0.00068	0.00016	-4e-05	-1e-05	4
18781	1e-05	3e-05	3e-05	0.00044	0.0007	0.00032	9e-05	0	4
18782	-9e-05	-0.00013	-0.00017	0.00034	-0.00093	-0.00039	-0.00018	-0.00011	4
18783	-9e-05	-0.00013	-0.00017	0.00034	-0.00093	-0.00039	-0.00018	-0.00011	4
18784	-9e-05	-0.00013	-0.00017	0.00034	-0.00093	-0.00039	-0.00018	-0.00011	4
18785	-9e-05	-0.00013	-0.00017	0.00034	-0.00093	-0.00039	-0.00018	-0.00011	4
18786	-9e-05	-0.00013	-0.00017	0.00034	-0.00093	-0.00039	-0.00018	-0.00011	4
18789	-9e-05	-0.00013	-0.00017	0.00034	-0.00093	-0.00039	-0.00018	-0.00011	4
18790	-9e-05	-0.00013	-0.00017	0.00034	-0.00093	-0.00039	-0.00018	-0.00011	4
18791	-9e-05	-0.00013	-0.00017	0.00034	-0.00093	-0.00039	-0.00018	-0.00011	4
18792	-9e-05	-0.00013	-0.00017	0.00034	-0.00093	-0.00039	-0.00018	-0.00011	4
18793	-9e-05	-0.00013	-0.00017	0.00034	-0.00093	-0.00039	-0.00018	-0.00011	4
18794	-9e-05	-0.00013	-0.00017	0.00034	-0.00093	-0.00039	-0.00018	-0.00011	4
18795	-9e-05	-0.00013	-0.00017	0.00034	-0.00093	-0.00039	-0.00018	-0.00011	4
18796	-9e-05	-0.00013	-0.00017	0.00034	-0.00093	-0.00039	-0.00018	-0.00011	4
18797	-9e-05	-0.00013	-0.00017	0.00034	-0.00093	-0.00039	-0.00018	-0.00011	4
18798	-9e-05	-0.00013	-0.00017	0.00034	-0.00093	-0.00039	-0.00018	-0.00011	4
18799	-9e-05	-0.00013	-0.00017	0.00034	-0.00093	-0.00039	-0.00018	-0.00011	4
18800	-9e-05	-0.00013	-0.00017	0.00034	-0.00093	-0.00039	-0.00018	-0.00011	4
18801	-9e-05	-0.00013	-0.00017	0.00034	-0.00093	-0.00039	-0.00018	-0.00011	4
18802	-9e-05	-0.00013	-0.00017	0.00034	-0.00093	-0.00039	-0.00018	-0.00011	4
18803	-5e-05	-6e-05	-0.00012	-0.00063	-0.00048	-0.0007	-8e-05	-5e-05	4
18804	-5e-05	-6e-05	-0.00012	-0.00063	-0.00048	-0.0007	-8e-05	-5e-05	4
18805	-5e-05	-6e-05	-0.00012	-0.00063	-0.00048	-0.0007	-8e-05	-5e-05	4
18806	-4e-05	-3e-05	1e-05	-0.00014	-0.00021	-0.00022	-0.0001	0	4
18807	-4e-05	-3e-05	1e-05	-0.00014	-0.00021	-0.00022	-0.0001	0	4
18808	-4e-05	-3e-05	1e-05	-0.00014	-0.00021	-0.00022	-0.0001	0	4
18809	-4e-05	-3e-05	1e-05	-0.00014	-0.00021	-0.00022	-0.0001	0	4
18810	-4e-05	-3e-05	1e-05	-0.00014	-0.00021	-0.00022	-0.0001	0	4
18811	-4e-05	-3e-05	1e-05	-0.00014	-0.00021	-0.00022	-0.0001	0	4
18812	-4e-05	-3e-05	1e-05	-0.00014	-0.00021	-0.00022	-0.0001	0	4
18813	-4e-05	-3e-05	1e-05	-0.00014	-0.00021	-0.00022	-0.0001	0	4
18814	-4e-05	-3e-05	1e-05	-0.00014	-0.00021	-0.00022	-0.0001	0	4
18815	-4e-05	-3e-05	1e-05	-0.00014	-0.00021	-0.00022	-0.0001	0	4
18816	-4e-05	-3e-05	1e-05	-0.00014	-0.00021	-0.00022	-0.0001	0	4
18817	-4e-05	-3e-05	1e-05	-0.00014	-0.00021	-0.00022	-0.0001	0	4
18818	4e-05	7e-05	8e-05	1e-05	-5e-05	0.00036	7e-05	7e-05	4
18819	-0.00013	-0.00011	-0.00015	-8e-05	-0.0001	-0.00023	-8e-05	-0.00015	4
18820	-0.00013	-0.00011	-0.00015	-8e-05	-0.0001	-0.00023	-8e-05	-0.00015	4
18821	-0.00013	-0.00011	-0.00015	-8e-05	-0.0001	-0.00023	-8e-05	-0.00015	4
18822	-0.00013	-0.00011	-0.00015	-8e-05	-0.0001	-0.00023	-8e-05	-0.00015	4
18823	-0.00013	-0.00011	-0.00015	-8e-05	-0.0001	-0.00023	-8e-05	-0.00015	4
18824	-0.00013	-0.00011	-0.00015	-8e-05	-0.0001	-0.00023	-8e-05	-0.00015	4
18825	9e-05	0.0001	0.00013	0.00024	0.00074	0.00036	0.00014	0.00012	4
18826	9e-05	0.0001	0.00013	0.00024	0.00074	0.00036	0.00014	0.00012	4
18827	9e-05	0.0001	0.00013	0.00024	0.00074	0.00036	0.00014	0.00012	4
18828	9e-05	0.0001	0.00013	0.00024	0.00074	0.00036	0.00014	0.00012	4
18829	9e-05	0.0001	0.00013	0.00024	0.00074	0.00036	0.00014	0.00012	4
18830	9e-05	0.0001	0.00013	0.00024	0.00074	0.00036	0.00014	0.00012	4
18831	9e-05	0.0001	0.00013	0.00024	0.00074	0.00036	0.00014	0.00012	4
18832	9e-05	0.0001	0.00013	0.00024	0.00074	0.00036	0.00014	0.00012	4
18833	9e-05	0.0001	0.00013	0.00024	0.00074	0.00036	0.00014	0.00012	4
18834	9e-05	0.0001	0.00013	0.00024	0.00074	0.00036	0.00014	0.00012	4
18835	9e-05	0.0001	0.00013	0.00024	0.00074	0.00036	0.00014	0.00012	4
18836	9e-05	0.0001	0.00013	0.00024	0.00074	0.00036	0.00014	0.00012	4
18839	9e-05	0.0001	0.00013	0.00024	0.00074	0.00036	0.00014	0.00012	4
18840	9e-05	0.0001	0.00013	0.00024	0.00074	0.00036	0.00014	0.00012	4
18841	9e-05	0.0001	0.00013	0.00024	0.00074	0.00036	0.00014	0.00012	4
18842	9e-05	0.0001	0.00013	0.00024	0.00074	0.00036	0.00014	0.00012	4
18843	9e-05	0.0001	0.00013	0.00024	0.00074	0.00036	0.00014	0.00012	4
18844	9e-05	0.0001	0.00013	0.00024	0.00074	0.00036	0.00014	0.00012	4
18845	9e-05	0.0001	0.00013	0.00024	0.00074	0.00036	0.00014	0.00012	4
18846	9e-05	0.0001	0.00013	0.00024	0.00074	0.00036	0.00014	0.00012	4
18847	9e-05	0.0001	0.00013	0.00024	0.00074	0.00036	0.00014	0.00012	4
18848	4e-05	3e-05	9e-05	-0.00014	0.00012	0.0001	4e-05	3e-05	4
18849	4e-05	3e-05	9e-05	-0.00014	0.00012	0.0001	4e-05	3e-05	4
18850	4e-05	3e-05	9e-05	-0.00014	0.00012	0.0001	4e-05	3e-05	4
18851	4e-05	3e-05	9e-05	-0.00014	0.00012	0.0001	4e-05	3e-05	4
18852	4e-05	3e-05	9e-05	-0.00014	0.00012	0.0001	4e-05	3e-05	4
18853	4e-05	3e-05	9e-05	-0.00014	0.00012	0.0001	4e-05	3e-05	4
18854	4e-05	3e-05	9e-05	-0.00014	0.00012	0.0001	4e-05	3e-05	4
18855	4e-05	3e-05	9e-05	-0.00014	0.00012	0.0001	4e-05	3e-05	4
18856	-9e-05	-0.0001	-0.00015	-0.00017	0.00028	0	8e-05	-5e-05	4
18857	-9e-05	-0.0001	-0.00015	-0.00017	0.00028	0	8e-05	-5e-05	4
18858	-9e-05	-0.0001	-0.00015	-0.00017	0.00028	0	8e-05	-5e-05	4
18859	-9e-05	-0.0001	-0.00015	-0.00017	0.00028	0	8e-05	-5e-05	4
18860	-9e-05	-0.0001	-0.00015	-0.00017	0.00028	0	8e-05	-5e-05	4
18861	-9e-05	-0.0001	-0.00015	-0.00017	0.00028	0	8e-05	-5e-05	4
18862	-9e-05	-0.0001	-0.00015	-0.00017	0.00028	0	8e-05	-5e-05	4
18863	-9e-05	-0.0001	-0.00015	-0.00017	0.00028	0	8e-05	-5e-05	4
18864	-3e-05	-6e-05	-0.00011	0.00057	0.00078	-0.00016	4e-05	-3e-05	4
18865	-3e-05	-6e-05	-0.00011	0.00057	0.00078	-0.00016	4e-05	-3e-05	4
18866	-3e-05	-6e-05	-0.00011	0.00057	0.00078	-0.00016	4e-05	-3e-05	4
18867	-3e-05	-6e-05	-0.00011	0.00057	0.00078	-0.00016	4e-05	-3e-05	4
18868	-3e-05	-6e-05	-0.00011	0.00057	0.00078	-0.00016	4e-05	-3e-05	4
18869	-3e-05	-6e-05	-0.00011	0.00057	0.00078	-0.00016	4e-05	-3e-05	4
18870	-3e-05	-6e-05	-0.00011	0.00057	0.00078	-0.00016	4e-05	-3e-05	4
18871	-3e-05	-6e-05	-0.00011	0.00057	0.00078	-0.00016	4e-05	-3e-05	4
18872	-3e-05	-6e-05	-0.00011	0.00057	0.00078	-0.00016	4e-05	-3e-05	4
18873	-3e-05	-6e-05	-0.00011	0.00057	0.00078	-0.00016	4e-05	-3e-05	4
18874	-3e-05	-6e-05	-0.00011	0.00057	0.00078	-0.00016	4e-05	-3e-05	4
18875	-3e-05	-6e-05	-0.00011	0.00057	0.00078	-0.00016	4e-05	-3e-05	4
18876	-3e-05	-6e-05	-0.00011	0.00057	0.00078	-0.00016	4e-05	-3e-05	4
18877	-3e-05	-6e-05	-0.00011	0.00057	0.00078	-0.00016	4e-05	-3e-05	4
18878	1e-05	2e-05	-4e-05	-0.00028	-0.00092	-0.00035	-7e-05	1e-05	4
18879	-3e-05	-3e-05	-5e-05	-0.00059	-0.0005	-0.00016	2e-05	0	4
18880	-3e-05	-3e-05	-5e-05	-0.00059	-0.0005	-0.00016	2e-05	0	4
18881	-3e-05	-3e-05	-5e-05	-0.00059	-0.0005	-0.00016	2e-05	0	4
18882	-3e-05	-3e-05	-5e-05	-0.00059	-0.0005	-0.00016	2e-05	0	4
18883	-3e-05	-3e-05	-5e-05	-0.00059	-0.0005	-0.00016	2e-05	0	4
18884	3e-05	3e-05	3e-05	-2e-05	0.00058	-0.00016	-1e-05	0	4
18885	1e-05	0	5e-05	0.0003	0.00062	0.00047	0	1e-05	4
18886	1e-05	0	5e-05	0.0003	0.00062	0.00047	0	1e-05	4
18889	1e-05	0	5e-05	0.0003	0.00062	0.00047	0	1e-05	4
18890	1e-05	0	5e-05	0.0003	0.00062	0.00047	0	1e-05	4
18891	1e-05	0	5e-05	0.0003	0.00062	0.00047	0	1e-05	4
18892	1e-05	0	5e-05	0.0003	0.00062	0.00047	0	1e-05	4
18893	1e-05	0	5e-05	0.0003	0.00062	0.00047	0	1e-05	4
18894	1e-05	0	5e-05	0.0003	0.00062	0.00047	0	1e-05	4
18895	1e-05	0	5e-05	0.0003	0.00062	0.00047	0	1e-05	4
18896	1e-05	0	5e-05	0.0003	0.00062	0.00047	0	1e-05	4
18897	1e-05	0	5e-05	0.0003	0.00062	0.00047	0	1e-05	4
18898	1e-05	0	5e-05	0.0003	0.00062	0.00047	0	1e-05	4
18899	1e-05	0	5e-05	0.0003	0.00062	0.00047	0	1e-05	4
18900	1e-05	0	5e-05	0.0003	0.00062	0.00047	0	1e-05	4
18901	5e-05	5e-05	4e-05	0.00058	-2e-05	0.00016	-2e-05	3e-05	4
18902	-2e-05	-2e-05	-3e-05	-0.00028	-0.00076	-0.00055	-4e-05	-2e-05	4
18903	-4e-05	-7e-05	-6e-05	-0.00015	0.00041	0.00039	-6e-05	-4e-05	4
18904	-4e-05	-7e-05	-6e-05	-0.00015	0.00041	0.00039	-6e-05	-4e-05	4
18905	-4e-05	-7e-05	-6e-05	-0.00015	0.00041	0.00039	-6e-05	-4e-05	4
18906	-4e-05	-7e-05	-6e-05	-0.00015	0.00041	0.00039	-6e-05	-4e-05	4
18907	-4e-05	-7e-05	-6e-05	-0.00015	0.00041	0.00039	-6e-05	-4e-05	4
18908	-4e-05	-7e-05	-6e-05	-0.00015	0.00041	0.00039	-6e-05	-4e-05	4
18909	-4e-05	-7e-05	-6e-05	-0.00015	0.00041	0.00039	-6e-05	-4e-05	4
18910	-4e-05	-7e-05	-6e-05	-0.00015	0.00041	0.00039	-6e-05	-4e-05	4
18911	-4e-05	-7e-05	-6e-05	-0.00015	0.00041	0.00039	-6e-05	-4e-05	4
18912	-4e-05	-7e-05	-6e-05	-0.00015	0.00041	0.00039	-6e-05	-4e-05	4
18913	-4e-05	-7e-05	-6e-05	-0.00015	0.00041	0.00039	-6e-05	-4e-05	4
18914	-4e-05	-7e-05	-6e-05	-0.00015	0.00041	0.00039	-6e-05	-4e-05	4
18915	-4e-05	-7e-05	-6e-05	-0.00015	0.00041	0.00039	-6e-05	-4e-05	4
18916	-4e-05	-7e-05	-6e-05	-0.00015	0.00041	0.00039	-6e-05	-4e-05	4
18917	-4e-05	-7e-05	-6e-05	-0.00015	0.00041	0.00039	-6e-05	-4e-05	4
18918	-4e-05	-7e-05	-6e-05	-0.00015	0.00041	0.00039	-6e-05	-4e-05	4
18919	-4e-05	-7e-05	-6e-05	-0.00015	0.00041	0.00039	-6e-05	-4e-05	4
18920	-4e-05	-7e-05	-6e-05	-0.00015	0.00041	0.00039	-6e-05	-4e-05	4
18921	-4e-05	-7e-05	-6e-05	-0.00015	0.00041	0.00039	-6e-05	-4e-05	4
18922	-4e-05	-7e-05	-6e-05	-0.00015	0.00041	0.00039	-6e-05	-4e-05	4
18923	-3e-05	0	3e-05	-4e-05	0.00038	0.00032	-9e-05	-4e-05	4
18924	-3e-05	0	3e-05	-4e-05	0.00038	0.00032	-9e-05	-4e-05	4
18925	3e-05	5e-05	2e-05	-0.00031	-0.00046	-0.00012	-1e-05	2e-05	4
18926	3e-05	5e-05	2e-05	-0.00031	-0.00046	-0.00012	-1e-05	2e-05	4
18927	3e-05	5e-05	2e-05	-0.00031	-0.00046	-0.00012	-1e-05	2e-05	4
18928	3e-05	5e-05	2e-05	-0.00031	-0.00046	-0.00012	-1e-05	2e-05	4
18929	3e-05	5e-05	2e-05	-0.00031	-0.00046	-0.00012	-1e-05	2e-05	4
18930	3e-05	5e-05	2e-05	-0.00031	-0.00046	-0.00012	-1e-05	2e-05	4
18931	3e-05	5e-05	2e-05	-0.00031	-0.00046	-0.00012	-1e-05	2e-05	4
18932	3e-05	5e-05	2e-05	-0.00031	-0.00046	-0.00012	-1e-05	2e-05	4
18933	3e-05	5e-05	2e-05	-0.00031	-0.00046	-0.00012	-1e-05	2e-05	4
18934	3e-05	5e-05	2e-05	-0.00031	-0.00046	-0.00012	-1e-05	2e-05	4
18935	3e-05	5e-05	2e-05	-0.00031	-0.00046	-0.00012	-1e-05	2e-05	4
18937	0	-1e-05	4e-05	5e-05	0.00022	0.00013	5e-05	1e-05	4
18940	0	-1e-05	4e-05	5e-05	0.00022	0.00013	5e-05	1e-05	4
18941	0	-1e-05	4e-05	5e-05	0.00022	0.00013	5e-05	1e-05	4
18942	0	-1e-05	4e-05	5e-05	0.00022	0.00013	5e-05	1e-05	4
18943	0	-1e-05	4e-05	5e-05	0.00022	0.00013	5e-05	1e-05	4
18944	0	-1e-05	4e-05	5e-05	0.00022	0.00013	5e-05	1e-05	4
18945	0	-1e-05	4e-05	5e-05	0.00022	0.00013	5e-05	1e-05	4
18946	2e-05	5e-05	0.0001	7e-05	0.00096	0.00077	-2e-05	0	4
18947	2e-05	5e-05	0.0001	7e-05	0.00096	0.00077	-2e-05	0	4
18948	2e-05	5e-05	0.0001	7e-05	0.00096	0.00077	-2e-05	0	4
18949	2e-05	5e-05	0.0001	7e-05	0.00096	0.00077	-2e-05	0	4
18950	2e-05	5e-05	0.0001	7e-05	0.00096	0.00077	-2e-05	0	4
18951	2e-05	5e-05	0.0001	7e-05	0.00096	0.00077	-2e-05	0	4
18952	2e-05	5e-05	0.0001	7e-05	0.00096	0.00077	-2e-05	0	4
18953	2e-05	5e-05	0.0001	7e-05	0.00096	0.00077	-2e-05	0	4
18954	2e-05	5e-05	0.0001	7e-05	0.00096	0.00077	-2e-05	0	4
18955	2e-05	5e-05	0.0001	7e-05	0.00096	0.00077	-2e-05	0	4
18956	2e-05	5e-05	0.0001	7e-05	0.00096	0.00077	-2e-05	0	4
18957	2e-05	5e-05	0.0001	7e-05	0.00096	0.00077	-2e-05	0	4
18958	2e-05	5e-05	0.0001	7e-05	0.00096	0.00077	-2e-05	0	4
18959	2e-05	5e-05	0.0001	7e-05	0.00096	0.00077	-2e-05	0	4
18960	2e-05	5e-05	0.0001	7e-05	0.00096	0.00077	-2e-05	0	4
18961	7e-05	0.0001	0.00013	0.00015	0.0002	-0.00013	8e-05	5e-05	4
18962	-7e-05	-9e-05	-7e-05	-0.00037	-0.00074	-0.00065	-0.00015	-6e-05	4
18963	2e-05	-1e-05	-3e-05	-0.00033	-0.00028	-0.00036	0	-1e-05	4
18964	2e-05	-1e-05	-3e-05	-0.00033	-0.00028	-0.00036	0	-1e-05	4
18965	2e-05	-1e-05	-3e-05	-0.00033	-0.00028	-0.00036	0	-1e-05	4
18966	2e-05	-1e-05	-3e-05	-0.00033	-0.00028	-0.00036	0	-1e-05	4
18967	2e-05	-1e-05	-3e-05	-0.00033	-0.00028	-0.00036	0	-1e-05	4
18968	2e-05	-1e-05	-3e-05	-0.00033	-0.00028	-0.00036	0	-1e-05	4
18969	2e-05	-1e-05	-3e-05	-0.00033	-0.00028	-0.00036	0	-1e-05	4
18970	2e-05	-1e-05	-3e-05	-0.00033	-0.00028	-0.00036	0	-1e-05	4
18971	2e-05	-1e-05	-3e-05	-0.00033	-0.00028	-0.00036	0	-1e-05	4
18972	2e-05	-1e-05	-3e-05	-0.00033	-0.00028	-0.00036	0	-1e-05	4
18973	2e-05	-1e-05	-3e-05	-0.00033	-0.00028	-0.00036	0	-1e-05	4
18974	2e-05	-1e-05	-3e-05	-0.00033	-0.00028	-0.00036	0	-1e-05	4
18975	2e-05	-1e-05	-3e-05	-0.00033	-0.00028	-0.00036	0	-1e-05	4
18976	2e-05	-1e-05	-3e-05	-0.00033	-0.00028	-0.00036	0	-1e-05	4
18977	2e-05	-1e-05	-3e-05	-0.00033	-0.00028	-0.00036	0	-1e-05	4
18978	2e-05	-1e-05	-3e-05	-0.00033	-0.00028	-0.00036	0	-1e-05	4
18979	2e-05	-1e-05	-3e-05	-0.00033	-0.00028	-0.00036	0	-1e-05	4
18980	2e-05	-1e-05	-3e-05	-0.00033	-0.00028	-0.00036	0	-1e-05	4
18981	2e-05	-1e-05	-3e-05	-0.00033	-0.00028	-0.00036	0	-1e-05	4
18982	2e-05	-1e-05	-3e-05	-0.00033	-0.00028	-0.00036	0	-1e-05	4
18983	-4e-05	-4e-05	-5e-05	0.00032	4e-05	-0.00039	-6e-05	-5e-05	4
18984	-4e-05	-4e-05	-5e-05	0.00032	4e-05	-0.00039	-6e-05	-5e-05	4
18985	-0.00013	-0.00018	-0.00028	-0.00062	-0.00033	-0.00024	-0.00026	-0.00015	4
18986	-0.00013	-0.00018	-0.00028	-0.00062	-0.00033	-0.00024	-0.00026	-0.00015	4
18989	-0.00013	-0.00018	-0.00028	-0.00062	-0.00033	-0.00024	-0.00026	-0.00015	4
18990	-0.00013	-0.00018	-0.00028	-0.00062	-0.00033	-0.00024	-0.00026	-0.00015	4
18991	-0.00013	-0.00018	-0.00028	-0.00062	-0.00033	-0.00024	-0.00026	-0.00015	4
18992	-0.00013	-0.00018	-0.00028	-0.00062	-0.00033	-0.00024	-0.00026	-0.00015	4
18993	-0.00013	-0.00018	-0.00028	-0.00062	-0.00033	-0.00024	-0.00026	-0.00015	4
18994	-0.00013	-0.00018	-0.00028	-0.00062	-0.00033	-0.00024	-0.00026	-0.00015	4
18995	-0.00013	-0.00018	-0.00028	-0.00062	-0.00033	-0.00024	-0.00026	-0.00015	4
18996	-0.00013	-0.00018	-0.00028	-0.00062	-0.00033	-0.00024	-0.00026	-0.00015	4
18997	-5e-05	-7e-05	-0.00016	-0.00057	-0.00026	0.00028	-8e-05	-5e-05	4
18998	-5e-05	-7e-05	-0.00016	-0.00057	-0.00026	0.00028	-8e-05	-5e-05	4
18999	-5e-05	-7e-05	-0.00016	-0.00057	-0.00026	0.00028	-8e-05	-5e-05	4
19000	-5e-05	-7e-05	-0.00016	-0.00057	-0.00026	0.00028	-8e-05	-5e-05	4
19001	-5e-05	-7e-05	-0.00016	-0.00057	-0.00026	0.00028	-8e-05	-5e-05	4
19002	-5e-05	-7e-05	-0.00016	-0.00057	-0.00026	0.00028	-8e-05	-5e-05	4
19003	-5e-05	-7e-05	-0.00016	-0.00057	-0.00026	0.00028	-8e-05	-5e-05	4
19004	-5e-05	-7e-05	-0.00016	-0.00057	-0.00026	0.00028	-8e-05	-5e-05	4
19005	-5e-05	-7e-05	-0.00016	-0.00057	-0.00026	0.00028	-8e-05	-5e-05	4
19006	-5e-05	-7e-05	-0.00016	-0.00057	-0.00026	0.00028	-8e-05	-5e-05	4
19007	-8e-05	-0.00012	-0.00011	0.00049	0.00011	-9e-05	-6e-05	-4e-05	4
19008	-8e-05	-0.00012	-0.00011	0.00049	0.00011	-9e-05	-6e-05	-4e-05	4
19009	-8e-05	-0.00012	-0.00011	0.00049	0.00011	-9e-05	-6e-05	-4e-05	4
19010	-8e-05	-0.00012	-0.00011	0.00049	0.00011	-9e-05	-6e-05	-4e-05	4
19011	-8e-05	-0.00012	-0.00011	0.00049	0.00011	-9e-05	-6e-05	-4e-05	4
19012	-8e-05	-0.00012	-0.00011	0.00049	0.00011	-9e-05	-6e-05	-4e-05	4
19013	-8e-05	-0.00012	-0.00011	0.00049	0.00011	-9e-05	-6e-05	-4e-05	4
19014	-8e-05	-0.00012	-0.00011	0.00049	0.00011	-9e-05	-6e-05	-4e-05	4
19015	-8e-05	-0.00012	-0.00011	0.00049	0.00011	-9e-05	-6e-05	-4e-05	4
19016	-8e-05	-0.00012	-0.00011	0.00049	0.00011	-9e-05	-6e-05	-4e-05	4
19017	-8e-05	-0.00012	-0.00011	0.00049	0.00011	-9e-05	-6e-05	-4e-05	4
19018	-8e-05	-0.00012	-0.00011	0.00049	0.00011	-9e-05	-6e-05	-4e-05	4
19019	-8e-05	-0.00012	-0.00011	0.00049	0.00011	-9e-05	-6e-05	-4e-05	4
19020	-8e-05	-0.00012	-0.00011	0.00049	0.00011	-9e-05	-6e-05	-4e-05	4
19021	-8e-05	-0.00012	-0.00011	0.00049	0.00011	-9e-05	-6e-05	-4e-05	4
19022	-8e-05	-0.00012	-0.00011	0.00049	0.00011	-9e-05	-6e-05	-4e-05	4
19023	-2e-05	-2e-05	1e-05	-0.00047	-0.00017	-0.00052	-2e-05	-2e-05	4
19024	7e-05	0.0001	0.00014	0.00025	0.00041	1e-05	0.00013	6e-05	4
19025	7e-05	0.0001	0.00014	0.00025	0.00041	1e-05	0.00013	6e-05	4
19026	7e-05	0.0001	0.00014	0.00025	0.00041	1e-05	0.00013	6e-05	4
19027	7e-05	0.0001	0.00014	0.00025	0.00041	1e-05	0.00013	6e-05	4
19028	7e-05	0.0001	0.00014	0.00025	0.00041	1e-05	0.00013	6e-05	4
19029	7e-05	0.0001	0.00014	0.00025	0.00041	1e-05	0.00013	6e-05	4
19030	7e-05	0.0001	0.00014	0.00025	0.00041	1e-05	0.00013	6e-05	4
19031	7e-05	0.0001	0.00014	0.00025	0.00041	1e-05	0.00013	6e-05	4
19032	7e-05	0.0001	0.00014	0.00025	0.00041	1e-05	0.00013	6e-05	4
19033	7e-05	0.0001	0.00014	0.00025	0.00041	1e-05	0.00013	6e-05	4
19034	7e-05	0.0001	0.00014	0.00025	0.00041	1e-05	0.00013	6e-05	4
19035	7e-05	0.0001	0.00014	0.00025	0.00041	1e-05	0.00013	6e-05	4
19036	7e-05	0.0001	0.00014	0.00025	0.00041	1e-05	0.00013	6e-05	4
19039	7e-05	0.0001	0.00014	0.00025	0.00041	1e-05	0.00013	6e-05	4
19040	7e-05	0.0001	0.00014	0.00025	0.00041	1e-05	0.00013	6e-05	4
19041	7e-05	0.0001	0.00014	0.00025	0.00041	1e-05	0.00013	6e-05	4
19042	7e-05	0.0001	0.00014	0.00025	0.00041	1e-05	0.00013	6e-05	4
19043	-2e-05	0	3e-05	0.00012	-0.00018	-0.00058	0	-2e-05	4
19044	-2e-05	0	3e-05	0.00012	-0.00018	-0.00058	0	-2e-05	4
19045	1e-05	2e-05	7e-05	0.00022	-0.00041	0.00025	1e-05	-1e-05	4
19046	1e-05	2e-05	7e-05	0.00022	-0.00041	0.00025	1e-05	-1e-05	4
19047	1e-05	2e-05	7e-05	0.00022	-0.00041	0.00025	1e-05	-1e-05	4
19048	1e-05	2e-05	7e-05	0.00022	-0.00041	0.00025	1e-05	-1e-05	4
19049	1e-05	2e-05	7e-05	0.00022	-0.00041	0.00025	1e-05	-1e-05	4
19050	1e-05	2e-05	7e-05	0.00022	-0.00041	0.00025	1e-05	-1e-05	4
19051	1e-05	2e-05	7e-05	0.00022	-0.00041	0.00025	1e-05	-1e-05	4
19052	1e-05	2e-05	7e-05	0.00022	-0.00041	0.00025	1e-05	-1e-05	4
19053	1e-05	2e-05	7e-05	0.00022	-0.00041	0.00025	1e-05	-1e-05	4
19054	1e-05	2e-05	7e-05	0.00022	-0.00041	0.00025	1e-05	-1e-05	4
19055	1e-05	2e-05	7e-05	0.00022	-0.00041	0.00025	1e-05	-1e-05	4
19056	1e-05	2e-05	7e-05	0.00022	-0.00041	0.00025	1e-05	-1e-05	4
19057	-5e-05	-6e-05	-3e-05	-0.00025	-0.00033	0.00028	-9e-05	-7e-05	4
19058	-5e-05	-6e-05	-3e-05	-0.00025	-0.00033	0.00028	-9e-05	-7e-05	4
19059	-5e-05	-6e-05	-3e-05	-0.00025	-0.00033	0.00028	-9e-05	-7e-05	4
19060	-5e-05	-6e-05	-3e-05	-0.00025	-0.00033	0.00028	-9e-05	-7e-05	4
19061	-5e-05	-6e-05	-3e-05	-0.00025	-0.00033	0.00028	-9e-05	-7e-05	4
19062	-5e-05	-6e-05	-3e-05	-0.00025	-0.00033	0.00028	-9e-05	-7e-05	4
19063	-5e-05	-6e-05	-3e-05	-0.00025	-0.00033	0.00028	-9e-05	-7e-05	4
19064	-5e-05	-6e-05	-3e-05	-0.00025	-0.00033	0.00028	-9e-05	-7e-05	4
19065	-5e-05	-6e-05	-3e-05	-0.00025	-0.00033	0.00028	-9e-05	-7e-05	4
19066	-3e-05	-1e-05	0	0.00031	0.00016	-0.00049	-3e-05	-4e-05	4
19067	-3e-05	-1e-05	0	0.00031	0.00016	-0.00049	-3e-05	-4e-05	4
19068	-3e-05	-1e-05	0	0.00031	0.00016	-0.00049	-3e-05	-4e-05	4
19069	-3e-05	-1e-05	0	0.00031	0.00016	-0.00049	-3e-05	-4e-05	4
19070	-3e-05	-1e-05	0	0.00031	0.00016	-0.00049	-3e-05	-4e-05	4
19071	-3e-05	-1e-05	0	0.00031	0.00016	-0.00049	-3e-05	-4e-05	4
19072	-3e-05	-1e-05	0	0.00031	0.00016	-0.00049	-3e-05	-4e-05	4
19073	-3e-05	-1e-05	0	0.00031	0.00016	-0.00049	-3e-05	-4e-05	4
19074	-3e-05	-1e-05	0	0.00031	0.00016	-0.00049	-3e-05	-4e-05	4
19075	-3e-05	-1e-05	0	0.00031	0.00016	-0.00049	-3e-05	-4e-05	4
19076	-3e-05	-1e-05	0	0.00031	0.00016	-0.00049	-3e-05	-4e-05	4
19077	-3e-05	-1e-05	0	0.00031	0.00016	-0.00049	-3e-05	-4e-05	4
19078	-3e-05	-1e-05	0	0.00031	0.00016	-0.00049	-3e-05	-4e-05	4
19079	-3e-05	-1e-05	0	0.00031	0.00016	-0.00049	-3e-05	-4e-05	4
19080	-3e-05	-1e-05	0	0.00031	0.00016	-0.00049	-3e-05	-4e-05	4
19081	-6e-05	-5e-05	0	-0.00021	-0.00011	0.00046	-1e-05	-3e-05	4
19082	-1e-05	-2e-05	-4e-05	-0.00024	1e-05	-0.00035	-8e-05	-6e-05	4
19083	-5e-05	-4e-05	0	0.00013	0.00017	0.0003	-2e-05	-5e-05	4
19084	-5e-05	-4e-05	0	0.00013	0.00017	0.0003	-2e-05	-5e-05	4
19085	-5e-05	-4e-05	0	0.00013	0.00017	0.0003	-2e-05	-5e-05	4
19086	-5e-05	-4e-05	0	0.00013	0.00017	0.0003	-2e-05	-5e-05	4
19089	-5e-05	-4e-05	0	0.00013	0.00017	0.0003	-2e-05	-5e-05	4
19090	-5e-05	-4e-05	0	0.00013	0.00017	0.0003	-2e-05	-5e-05	4
19091	-5e-05	-4e-05	0	0.00013	0.00017	0.0003	-2e-05	-5e-05	4
19092	-5e-05	-4e-05	0	0.00013	0.00017	0.0003	-2e-05	-5e-05	4
19093	-5e-05	-4e-05	0	0.00013	0.00017	0.0003	-2e-05	-5e-05	4
19094	-5e-05	-4e-05	0	0.00013	0.00017	0.0003	-2e-05	-5e-05	4
19095	-5e-05	-4e-05	0	0.00013	0.00017	0.0003	-2e-05	-5e-05	4
19096	-5e-05	-4e-05	0	0.00013	0.00017	0.0003	-2e-05	-5e-05	4
19097	-5e-05	-4e-05	0	0.00013	0.00017	0.0003	-2e-05	-5e-05	4
19098	-5e-05	-4e-05	0	0.00013	0.00017	0.0003	-2e-05	-5e-05	4
19099	-5e-05	-4e-05	0	0.00013	0.00017	0.0003	-2e-05	-5e-05	4
19100	-5e-05	-4e-05	0	0.00013	0.00017	0.0003	-2e-05	-5e-05	4
19101	-5e-05	-4e-05	0	0.00013	0.00017	0.0003	-2e-05	-5e-05	4
19102	-5e-05	-4e-05	0	0.00013	0.00017	0.0003	-2e-05	-5e-05	4
19103	-3e-05	-2e-05	-6e-05	-0.00028	-0.00054	-0.00029	-2e-05	-3e-05	4
19104	-4e-05	-8e-05	-0.0001	-0.00016	-0.00033	-0.00052	-0.00013	-8e-05	4
19105	9e-05	4e-05	-7e-05	-5e-05	0.00018	0.00037	0.00016	9e-05	4
19106	9e-05	4e-05	-7e-05	-5e-05	0.00018	0.00037	0.00016	9e-05	4
19107	9e-05	4e-05	-7e-05	-5e-05	0.00018	0.00037	0.00016	9e-05	4
19108	9e-05	4e-05	-7e-05	-5e-05	0.00018	0.00037	0.00016	9e-05	4
19109	9e-05	4e-05	-7e-05	-5e-05	0.00018	0.00037	0.00016	9e-05	4
19110	9e-05	4e-05	-7e-05	-5e-05	0.00018	0.00037	0.00016	9e-05	4
19111	9e-05	4e-05	-7e-05	-5e-05	0.00018	0.00037	0.00016	9e-05	4
19112	9e-05	4e-05	-7e-05	-5e-05	0.00018	0.00037	0.00016	9e-05	4
19113	9e-05	4e-05	-7e-05	-5e-05	0.00018	0.00037	0.00016	9e-05	4
19114	9e-05	4e-05	-7e-05	-5e-05	0.00018	0.00037	0.00016	9e-05	4
19115	9e-05	4e-05	-7e-05	-5e-05	0.00018	0.00037	0.00016	9e-05	4
19116	9e-05	4e-05	-7e-05	-5e-05	0.00018	0.00037	0.00016	9e-05	4
19117	9e-05	4e-05	-7e-05	-5e-05	0.00018	0.00037	0.00016	9e-05	4
19118	9e-05	4e-05	-7e-05	-5e-05	0.00018	0.00037	0.00016	9e-05	4
19119	9e-05	4e-05	-7e-05	-5e-05	0.00018	0.00037	0.00016	9e-05	4
19120	9e-05	4e-05	-7e-05	-5e-05	0.00018	0.00037	0.00016	9e-05	4
19121	9e-05	4e-05	-7e-05	-5e-05	0.00018	0.00037	0.00016	9e-05	4
19122	9e-05	4e-05	-7e-05	-5e-05	0.00018	0.00037	0.00016	9e-05	4
19123	9e-05	4e-05	-7e-05	-5e-05	0.00018	0.00037	0.00016	9e-05	4
19124	9e-05	4e-05	-7e-05	-5e-05	0.00018	0.00037	0.00016	9e-05	4
19125	9e-05	4e-05	-7e-05	-5e-05	0.00018	0.00037	0.00016	9e-05	4
19126	9e-05	4e-05	-7e-05	-5e-05	0.00018	0.00037	0.00016	9e-05	4
19127	9e-05	4e-05	-7e-05	-5e-05	0.00018	0.00037	0.00016	9e-05	4
19128	9e-05	4e-05	-7e-05	-5e-05	0.00018	0.00037	0.00016	9e-05	4
19129	9e-05	4e-05	-7e-05	-5e-05	0.00018	0.00037	0.00016	9e-05	4
19130	9e-05	4e-05	-7e-05	-5e-05	0.00018	0.00037	0.00016	9e-05	4
19131	9e-05	4e-05	-7e-05	-5e-05	0.00018	0.00037	0.00016	9e-05	4
19132	9e-05	4e-05	-7e-05	-5e-05	0.00018	0.00037	0.00016	9e-05	4
19133	5e-05	0.00011	0.00019	0.00038	-0.0002	-0.00012	6e-05	5e-05	4
19134	2e-05	3e-05	5e-05	0.00015	-2e-05	0.00041	0.0001	7e-05	4
19135	0	-3e-05	-1e-05	-0.00038	-0.00075	-0.00027	0	0	4
19136	0	-3e-05	-1e-05	-0.00038	-0.00075	-0.00027	0	0	4
19139	0	-3e-05	-1e-05	-0.00038	-0.00075	-0.00027	0	0	4
19140	0	-3e-05	-1e-05	-0.00038	-0.00075	-0.00027	0	0	4
19141	0	-3e-05	-1e-05	-0.00038	-0.00075	-0.00027	0	0	4
19142	0	-3e-05	-1e-05	-0.00038	-0.00075	-0.00027	0	0	4
19143	0	-3e-05	-1e-05	-0.00038	-0.00075	-0.00027	0	0	4
19144	0	-3e-05	-1e-05	-0.00038	-0.00075	-0.00027	0	0	4
19145	0	-3e-05	-1e-05	-0.00038	-0.00075	-0.00027	0	0	4
19146	0	-3e-05	-1e-05	-0.00038	-0.00075	-0.00027	0	0	4
19147	0	-3e-05	-1e-05	-0.00038	-0.00075	-0.00027	0	0	4
19148	0	-3e-05	-1e-05	-0.00038	-0.00075	-0.00027	0	0	4
19149	0	-3e-05	-1e-05	-0.00038	-0.00075	-0.00027	0	0	4
19150	0	-3e-05	-1e-05	-0.00038	-0.00075	-0.00027	0	0	4
19151	0	-3e-05	-1e-05	-0.00038	-0.00075	-0.00027	0	0	4
19152	0	-3e-05	-1e-05	-0.00038	-0.00075	-0.00027	0	0	4
19153	0	-3e-05	-1e-05	-0.00038	-0.00075	-0.00027	0	0	4
19154	0	-3e-05	-1e-05	-0.00038	-0.00075	-0.00027	0	0	4
19155	0	-3e-05	-1e-05	-0.00038	-0.00075	-0.00027	0	0	4
19156	-3e-05	-4e-05	-4e-05	-0.00017	-0.00023	4e-05	-0.0001	-6e-05	4
19157	-6e-05	-5e-05	-4e-05	0	0.00037	-0.00032	-0.00012	-0.00017	4
19158	6e-05	4e-05	0	-0.00023	-0.00032	-0.00011	4e-05	0.00026	4
19159	6e-05	4e-05	0	-0.00023	-0.00032	-0.00011	4e-05	0.00026	4
19160	6e-05	4e-05	0	-0.00023	-0.00032	-0.00011	4e-05	0.00026	4
19161	6e-05	4e-05	0	-0.00023	-0.00032	-0.00011	4e-05	0.00026	4
19162	6e-05	4e-05	0	-0.00023	-0.00032	-0.00011	4e-05	0.00026	4
19163	6e-05	4e-05	0	-0.00023	-0.00032	-0.00011	4e-05	0.00026	4
19164	-7e-05	-7e-05	-9e-05	-0.00022	7e-05	-5e-05	-0.0001	-8e-05	4
19165	-7e-05	-7e-05	-9e-05	-0.00022	7e-05	-5e-05	-0.0001	-8e-05	4
19166	-7e-05	-7e-05	-9e-05	-0.00022	7e-05	-5e-05	-0.0001	-8e-05	4
19167	-7e-05	-7e-05	-9e-05	-0.00022	7e-05	-5e-05	-0.0001	-8e-05	4
19168	-7e-05	-7e-05	-9e-05	-0.00022	7e-05	-5e-05	-0.0001	-8e-05	4
19169	3e-05	9e-05	0.00013	0.00022	-0.00024	9e-05	8e-05	0	4
19170	3e-05	9e-05	0.00013	0.00022	-0.00024	9e-05	8e-05	0	4
19171	3e-05	9e-05	0.00013	0.00022	-0.00024	9e-05	8e-05	0	4
19172	3e-05	9e-05	0.00013	0.00022	-0.00024	9e-05	8e-05	0	4
19173	3e-05	9e-05	0.00013	0.00022	-0.00024	9e-05	8e-05	0	4
19174	3e-05	9e-05	0.00013	0.00022	-0.00024	9e-05	8e-05	0	4
19175	3e-05	9e-05	0.00013	0.00022	-0.00024	9e-05	8e-05	0	4
19176	3e-05	9e-05	0.00013	0.00022	-0.00024	9e-05	8e-05	0	4
19177	-8e-05	-0.0001	-0.00019	-2e-05	-0.00064	-0.00012	-9e-05	-8e-05	4
19178	-8e-05	-0.0001	-0.00019	-2e-05	-0.00064	-0.00012	-9e-05	-8e-05	4
19179	-8e-05	-0.0001	-0.00019	-2e-05	-0.00064	-0.00012	-9e-05	-8e-05	4
19180	-8e-05	-0.0001	-0.00019	-2e-05	-0.00064	-0.00012	-9e-05	-8e-05	4
19181	-8e-05	-0.0001	-0.00019	-2e-05	-0.00064	-0.00012	-9e-05	-8e-05	4
19182	-8e-05	-0.0001	-0.00019	-2e-05	-0.00064	-0.00012	-9e-05	-8e-05	4
19183	-8e-05	-0.0001	-0.00019	-2e-05	-0.00064	-0.00012	-9e-05	-8e-05	4
19184	-8e-05	-0.0001	-0.00019	-2e-05	-0.00064	-0.00012	-9e-05	-8e-05	4
19185	-8e-05	-0.0001	-0.00019	-2e-05	-0.00064	-0.00012	-9e-05	-8e-05	4
19186	7e-05	0.00012	0.00014	0.00037	0.00102	0.0004	0.00016	0.00012	4
19189	-7e-05	-0.0001	-0.00026	-0.00059	-0.00094	-0.00033	-9e-05	-9e-05	4
19190	-7e-05	-0.0001	-0.00026	-0.00059	-0.00094	-0.00033	-9e-05	-9e-05	4
19191	-7e-05	-0.0001	-0.00026	-0.00059	-0.00094	-0.00033	-9e-05	-9e-05	4
19192	-7e-05	-0.0001	-0.00026	-0.00059	-0.00094	-0.00033	-9e-05	-9e-05	4
19193	-7e-05	-0.0001	-0.00026	-0.00059	-0.00094	-0.00033	-9e-05	-9e-05	4
19194	-7e-05	-0.0001	-0.00026	-0.00059	-0.00094	-0.00033	-9e-05	-9e-05	4
19195	-7e-05	-0.0001	-0.00026	-0.00059	-0.00094	-0.00033	-9e-05	-9e-05	4
19196	-7e-05	-0.0001	-0.00026	-0.00059	-0.00094	-0.00033	-9e-05	-9e-05	4
19197	-7e-05	-0.0001	-0.00026	-0.00059	-0.00094	-0.00033	-9e-05	-9e-05	4
19198	-7e-05	-0.0001	-0.00026	-0.00059	-0.00094	-0.00033	-9e-05	-9e-05	4
19199	-7e-05	-0.0001	-0.00026	-0.00059	-0.00094	-0.00033	-9e-05	-9e-05	4
19200	0.00016	0.00022	0.00035	0.00055	0.00044	0.00085	0.00036	0.0003	4
19201	1e-05	3e-05	0.00011	8e-05	0.00059	0.00016	0.0001	-2e-05	4
19202	1e-05	3e-05	0.00011	8e-05	0.00059	0.00016	0.0001	-2e-05	4
19203	1e-05	3e-05	0.00011	8e-05	0.00059	0.00016	0.0001	-2e-05	4
19204	1e-05	3e-05	0.00011	8e-05	0.00059	0.00016	0.0001	-2e-05	4
19205	1e-05	3e-05	0.00011	8e-05	0.00059	0.00016	0.0001	-2e-05	4
19206	1e-05	3e-05	0.00011	8e-05	0.00059	0.00016	0.0001	-2e-05	4
19207	1e-05	3e-05	0.00011	8e-05	0.00059	0.00016	0.0001	-2e-05	4
19208	1e-05	3e-05	0.00011	8e-05	0.00059	0.00016	0.0001	-2e-05	4
19209	1e-05	3e-05	0.00011	8e-05	0.00059	0.00016	0.0001	-2e-05	4
19210	1e-05	3e-05	0.00011	8e-05	0.00059	0.00016	0.0001	-2e-05	4
19211	1e-05	3e-05	0.00011	8e-05	0.00059	0.00016	0.0001	-2e-05	4
19212	1e-05	3e-05	0.00011	8e-05	0.00059	0.00016	0.0001	-2e-05	4
19213	1e-05	3e-05	0.00011	8e-05	0.00059	0.00016	0.0001	-2e-05	4
19214	1e-05	3e-05	0.00011	8e-05	0.00059	0.00016	0.0001	-2e-05	4
19215	1e-05	3e-05	0.00011	8e-05	0.00059	0.00016	0.0001	-2e-05	4
19216	1e-05	3e-05	0.00011	8e-05	0.00059	0.00016	0.0001	-2e-05	4
19217	1e-05	3e-05	0.00011	8e-05	0.00059	0.00016	0.0001	-2e-05	4
19218	1e-05	3e-05	0.00011	8e-05	0.00059	0.00016	0.0001	-2e-05	4
19219	1e-05	3e-05	0.00011	8e-05	0.00059	0.00016	0.0001	-2e-05	4
19220	1e-05	3e-05	0.00011	8e-05	0.00059	0.00016	0.0001	-2e-05	4
19221	1e-05	3e-05	0.00011	8e-05	0.00059	0.00016	0.0001	-2e-05	4
19224	1e-05	3e-05	0.00011	8e-05	0.00059	0.00016	0.0001	-2e-05	4
19225	0	0	4e-05	0.00035	0.00051	9e-05	6e-05	7e-05	4
19226	0	0	4e-05	0.00035	0.00051	9e-05	6e-05	7e-05	4
19227	0	0	4e-05	0.00035	0.00051	9e-05	6e-05	7e-05	4
19228	0	0	4e-05	0.00035	0.00051	9e-05	6e-05	7e-05	4
19229	0	0	4e-05	0.00035	0.00051	9e-05	6e-05	7e-05	4
19230	0	0	4e-05	0.00035	0.00051	9e-05	6e-05	7e-05	4
19231	0	0	4e-05	0.00035	0.00051	9e-05	6e-05	7e-05	4
19232	0	0	4e-05	0.00035	0.00051	9e-05	6e-05	7e-05	4
19233	0	0	4e-05	0.00035	0.00051	9e-05	6e-05	7e-05	4
19234	0	0	4e-05	0.00035	0.00051	9e-05	6e-05	7e-05	4
19235	0	0	4e-05	0.00035	0.00051	9e-05	6e-05	7e-05	4
19236	0	0	4e-05	0.00035	0.00051	9e-05	6e-05	7e-05	4
19239	0	0	4e-05	0.00035	0.00051	9e-05	6e-05	7e-05	4
19240	0	0	4e-05	0.00035	0.00051	9e-05	6e-05	7e-05	4
19241	0	0	4e-05	0.00035	0.00051	9e-05	6e-05	7e-05	4
19242	0	0	4e-05	0.00035	0.00051	9e-05	6e-05	7e-05	4
19243	0	0	4e-05	0.00035	0.00051	9e-05	6e-05	7e-05	4
19244	0	0	4e-05	0.00035	0.00051	9e-05	6e-05	7e-05	4
19245	-0.0001	-8e-05	-7e-05	-0.00026	-0.00098	-0.00045	-0.00014	-0.00022	4
19246	-5e-05	-5e-05	-8e-05	-4e-05	-0.00018	-0.00059	-2e-05	-6e-05	4
19247	-5e-05	-5e-05	-8e-05	-4e-05	-0.00018	-0.00059	-2e-05	-6e-05	4
19248	-5e-05	-5e-05	-8e-05	-4e-05	-0.00018	-0.00059	-2e-05	-6e-05	4
19249	-5e-05	-5e-05	-8e-05	-4e-05	-0.00018	-0.00059	-2e-05	-6e-05	4
19250	-5e-05	-5e-05	-8e-05	-4e-05	-0.00018	-0.00059	-2e-05	-6e-05	4
19251	-5e-05	-5e-05	-8e-05	-4e-05	-0.00018	-0.00059	-2e-05	-6e-05	4
19252	-5e-05	-5e-05	-8e-05	-4e-05	-0.00018	-0.00059	-2e-05	-6e-05	4
19253	-5e-05	-5e-05	-8e-05	-4e-05	-0.00018	-0.00059	-2e-05	-6e-05	4
19254	-5e-05	-5e-05	-8e-05	-4e-05	-0.00018	-0.00059	-2e-05	-6e-05	4
19255	-5e-05	-5e-05	-8e-05	-4e-05	-0.00018	-0.00059	-2e-05	-6e-05	4
19256	-5e-05	-5e-05	-8e-05	-4e-05	-0.00018	-0.00059	-2e-05	-6e-05	4
19257	-5e-05	-5e-05	-8e-05	-4e-05	-0.00018	-0.00059	-2e-05	-6e-05	4
19258	-5e-05	-5e-05	-8e-05	-4e-05	-0.00018	-0.00059	-2e-05	-6e-05	4
19259	-5e-05	-5e-05	-8e-05	-4e-05	-0.00018	-0.00059	-2e-05	-6e-05	4
19260	7e-05	0.00014	0.0002	2e-05	0.001	2e-05	0.00011	0.0001	4
19261	-0.0001	-9e-05	-0.00016	-6e-05	-0.00028	-0.00023	-0.00019	-0.00013	4
19262	-0.0001	-9e-05	-0.00016	-6e-05	-0.00028	-0.00023	-0.00019	-0.00013	4
19263	-0.0001	-9e-05	-0.00016	-6e-05	-0.00028	-0.00023	-0.00019	-0.00013	4
19264	-0.0001	-9e-05	-0.00016	-6e-05	-0.00028	-0.00023	-0.00019	-0.00013	4
19265	-0.0001	-9e-05	-0.00016	-6e-05	-0.00028	-0.00023	-0.00019	-0.00013	4
19266	-0.0001	-9e-05	-0.00016	-6e-05	-0.00028	-0.00023	-0.00019	-0.00013	4
19267	-0.0001	-9e-05	-0.00016	-6e-05	-0.00028	-0.00023	-0.00019	-0.00013	4
19268	-0.0001	-9e-05	-0.00016	-6e-05	-0.00028	-0.00023	-0.00019	-0.00013	4
19269	-0.0001	-9e-05	-0.00016	-6e-05	-0.00028	-0.00023	-0.00019	-0.00013	4
19270	-0.0001	-9e-05	-0.00016	-6e-05	-0.00028	-0.00023	-0.00019	-0.00013	4
19271	-0.0001	-9e-05	-0.00016	-6e-05	-0.00028	-0.00023	-0.00019	-0.00013	4
19272	-0.0001	-9e-05	-0.00016	-6e-05	-0.00028	-0.00023	-0.00019	-0.00013	4
19273	-0.0001	-9e-05	-0.00016	-6e-05	-0.00028	-0.00023	-0.00019	-0.00013	4
19274	-0.0001	-9e-05	-0.00016	-6e-05	-0.00028	-0.00023	-0.00019	-0.00013	4
19275	-0.0001	-9e-05	-0.00016	-6e-05	-0.00028	-0.00023	-0.00019	-0.00013	4
19276	-0.0001	-9e-05	-0.00016	-6e-05	-0.00028	-0.00023	-0.00019	-0.00013	4
19277	-0.0001	-9e-05	-0.00016	-6e-05	-0.00028	-0.00023	-0.00019	-0.00013	4
19278	-0.0001	-9e-05	-0.00016	-6e-05	-0.00028	-0.00023	-0.00019	-0.00013	4
19279	-0.0001	-9e-05	-0.00016	-6e-05	-0.00028	-0.00023	-0.00019	-0.00013	4
19280	-0.0001	-9e-05	-0.00016	-6e-05	-0.00028	-0.00023	-0.00019	-0.00013	4
19281	-0.0001	-9e-05	-0.00016	-6e-05	-0.00028	-0.00023	-0.00019	-0.00013	4
19282	-0.0001	-9e-05	-0.00016	-6e-05	-0.00028	-0.00023	-0.00019	-0.00013	4
19283	5e-05	6e-05	7e-05	0.00085	0.00126	0.00017	0.00014	7e-05	4
19284	-1e-05	4e-05	0.0001	-7e-05	0.00028	0.00069	-1e-05	-6e-05	4
19285	-1e-05	4e-05	0.0001	-7e-05	0.00028	0.00069	-1e-05	-6e-05	4
19287	-1e-05	4e-05	0.0001	-7e-05	0.00028	0.00069	-1e-05	-6e-05	4
19290	-1e-05	4e-05	0.0001	-7e-05	0.00028	0.00069	-1e-05	-6e-05	4
19291	-1e-05	4e-05	0.0001	-7e-05	0.00028	0.00069	-1e-05	-6e-05	4
19292	-1e-05	4e-05	0.0001	-7e-05	0.00028	0.00069	-1e-05	-6e-05	4
19293	-1e-05	4e-05	0.0001	-7e-05	0.00028	0.00069	-1e-05	-6e-05	4
19294	-1e-05	4e-05	0.0001	-7e-05	0.00028	0.00069	-1e-05	-6e-05	4
19295	-1e-05	4e-05	0.0001	-7e-05	0.00028	0.00069	-1e-05	-6e-05	4
19296	-1e-05	4e-05	0.0001	-7e-05	0.00028	0.00069	-1e-05	-6e-05	4
19297	-1e-05	4e-05	0.0001	-7e-05	0.00028	0.00069	-1e-05	-6e-05	4
19298	-1e-05	4e-05	0.0001	-7e-05	0.00028	0.00069	-1e-05	-6e-05	4
19299	-1e-05	4e-05	0.0001	-7e-05	0.00028	0.00069	-1e-05	-6e-05	4
19300	-1e-05	4e-05	0.0001	-7e-05	0.00028	0.00069	-1e-05	-6e-05	4
19301	-1e-05	4e-05	0.0001	-7e-05	0.00028	0.00069	-1e-05	-6e-05	4
19302	-1e-05	4e-05	0.0001	-7e-05	0.00028	0.00069	-1e-05	-6e-05	4
19303	-1e-05	4e-05	0.0001	-7e-05	0.00028	0.00069	-1e-05	-6e-05	4
19304	-1e-05	4e-05	0.0001	-7e-05	0.00028	0.00069	-1e-05	-6e-05	4
19305	2e-05	4e-05	5e-05	6e-05	-0.0003	-2e-05	3e-05	8e-05	4
19306	2e-05	4e-05	5e-05	6e-05	-0.0003	-2e-05	3e-05	8e-05	4
19307	0.00017	0.00019	0.00027	0.00047	0.00069	0.00091	0.00027	0.00018	4
19308	0.00017	0.00019	0.00027	0.00047	0.00069	0.00091	0.00027	0.00018	4
19309	0.00017	0.00019	0.00027	0.00047	0.00069	0.00091	0.00027	0.00018	4
19310	0.00017	0.00019	0.00027	0.00047	0.00069	0.00091	0.00027	0.00018	4
19311	0.00017	0.00019	0.00027	0.00047	0.00069	0.00091	0.00027	0.00018	4
19312	0.00017	0.00019	0.00027	0.00047	0.00069	0.00091	0.00027	0.00018	4
19313	0.00017	0.00019	0.00027	0.00047	0.00069	0.00091	0.00027	0.00018	4
19314	0.00017	0.00019	0.00027	0.00047	0.00069	0.00091	0.00027	0.00018	4
19315	0.00017	0.00019	0.00027	0.00047	0.00069	0.00091	0.00027	0.00018	4
19316	0.00017	0.00019	0.00027	0.00047	0.00069	0.00091	0.00027	0.00018	4
19317	0.00017	0.00019	0.00027	0.00047	0.00069	0.00091	0.00027	0.00018	4
19318	0.00017	0.00019	0.00027	0.00047	0.00069	0.00091	0.00027	0.00018	4
19319	0.00017	0.00019	0.00027	0.00047	0.00069	0.00091	0.00027	0.00018	4
19320	-7e-05	-0.00014	-0.00018	-0.00036	-0.00025	-0.00028	-0.00012	-4e-05	4
19321	-0.0001	-0.00016	-0.0002	-0.00038	-0.00017	-0.00056	-0.00023	-8e-05	4
19322	-0.0001	-0.00016	-0.0002	-0.00038	-0.00017	-0.00056	-0.00023	-8e-05	4
19323	-0.0001	-0.00016	-0.0002	-0.00038	-0.00017	-0.00056	-0.00023	-8e-05	4
19324	-0.0001	-0.00016	-0.0002	-0.00038	-0.00017	-0.00056	-0.00023	-8e-05	4
19325	-0.0001	-0.00016	-0.0002	-0.00038	-0.00017	-0.00056	-0.00023	-8e-05	4
19326	-0.0001	-0.00016	-0.0002	-0.00038	-0.00017	-0.00056	-0.00023	-8e-05	4
19327	-0.0001	-0.00016	-0.0002	-0.00038	-0.00017	-0.00056	-0.00023	-8e-05	4
19328	-0.0001	-0.00016	-0.0002	-0.00038	-0.00017	-0.00056	-0.00023	-8e-05	4
19329	-0.0001	-0.00016	-0.0002	-0.00038	-0.00017	-0.00056	-0.00023	-8e-05	4
19330	-0.0001	-0.00016	-0.0002	-0.00038	-0.00017	-0.00056	-0.00023	-8e-05	4
19331	-0.0001	-0.00016	-0.0002	-0.00038	-0.00017	-0.00056	-0.00023	-8e-05	4
19332	-0.0001	-0.00016	-0.0002	-0.00038	-0.00017	-0.00056	-0.00023	-8e-05	4
19333	-0.0001	-0.00016	-0.0002	-0.00038	-0.00017	-0.00056	-0.00023	-8e-05	4
19334	-0.0001	-0.00016	-0.0002	-0.00038	-0.00017	-0.00056	-0.00023	-8e-05	4
19335	-0.0001	-0.00016	-0.0002	-0.00038	-0.00017	-0.00056	-0.00023	-8e-05	4
19336	-0.0001	-0.00016	-0.0002	-0.00038	-0.00017	-0.00056	-0.00023	-8e-05	4
19339	-0.0001	-0.00016	-0.0002	-0.00038	-0.00017	-0.00056	-0.00023	-8e-05	4
19340	-0.0001	-0.00016	-0.0002	-0.00038	-0.00017	-0.00056	-0.00023	-8e-05	4
19341	-0.0001	-0.00016	-0.0002	-0.00038	-0.00017	-0.00056	-0.00023	-8e-05	4
19342	-3e-05	5e-05	0.00013	0.00072	0.00059	0.00025	7e-05	-2e-05	4
19343	1e-05	-2e-05	-6e-05	-0.00015	0	-8e-05	-5e-05	4e-05	4
19344	1e-05	2e-05	-2e-05	-0.00021	-0.00114	0	1e-05	-4e-05	4
19345	1e-05	2e-05	-2e-05	-0.00021	-0.00114	0	1e-05	-4e-05	4
19346	1e-05	2e-05	-2e-05	-0.00021	-0.00114	0	1e-05	-4e-05	4
19347	1e-05	2e-05	-2e-05	-0.00021	-0.00114	0	1e-05	-4e-05	4
19348	1e-05	2e-05	-2e-05	-0.00021	-0.00114	0	1e-05	-4e-05	4
19349	1e-05	2e-05	-2e-05	-0.00021	-0.00114	0	1e-05	-4e-05	4
19350	1e-05	2e-05	-2e-05	-0.00021	-0.00114	0	1e-05	-4e-05	4
19351	1e-05	2e-05	-2e-05	-0.00021	-0.00114	0	1e-05	-4e-05	4
19352	1e-05	2e-05	-2e-05	-0.00021	-0.00114	0	1e-05	-4e-05	4
19353	1e-05	2e-05	-2e-05	-0.00021	-0.00114	0	1e-05	-4e-05	4
19354	1e-05	2e-05	-2e-05	-0.00021	-0.00114	0	1e-05	-4e-05	4
19355	1e-05	2e-05	-2e-05	-0.00021	-0.00114	0	1e-05	-4e-05	4
19356	1e-05	2e-05	-2e-05	-0.00021	-0.00114	0	1e-05	-4e-05	4
19357	1e-05	2e-05	-2e-05	-0.00021	-0.00114	0	1e-05	-4e-05	4
19358	1e-05	2e-05	-2e-05	-0.00021	-0.00114	0	1e-05	-4e-05	4
19359	1e-05	2e-05	-2e-05	-0.00021	-0.00114	0	1e-05	-4e-05	4
19360	1e-05	2e-05	-2e-05	-0.00021	-0.00114	0	1e-05	-4e-05	4
19361	1e-05	2e-05	-2e-05	-0.00021	-0.00114	0	1e-05	-4e-05	4
19362	1e-05	2e-05	-2e-05	-0.00021	-0.00114	0	1e-05	-4e-05	4
19363	1e-05	2e-05	-2e-05	-0.00021	-0.00114	0	1e-05	-4e-05	4
19364	1e-05	2e-05	-2e-05	-0.00021	-0.00114	0	1e-05	-4e-05	4
19365	-5e-05	-0.0001	-0.00014	-0.00039	-0.00128	-0.00098	-0.00013	-8e-05	4
19366	-2e-05	-2e-05	7e-05	0.00049	0.00023	0.00031	-1e-05	-6e-05	4
19367	-2e-05	-2e-05	7e-05	0.00049	0.00023	0.00031	-1e-05	-6e-05	4
19368	-2e-05	-2e-05	7e-05	0.00049	0.00023	0.00031	-1e-05	-6e-05	4
19369	-2e-05	-2e-05	7e-05	0.00049	0.00023	0.00031	-1e-05	-6e-05	4
19370	-2e-05	-2e-05	7e-05	0.00049	0.00023	0.00031	-1e-05	-6e-05	4
19371	-2e-05	-2e-05	7e-05	0.00049	0.00023	0.00031	-1e-05	-6e-05	4
19372	-2e-05	-2e-05	7e-05	0.00049	0.00023	0.00031	-1e-05	-6e-05	4
19373	-2e-05	-2e-05	7e-05	0.00049	0.00023	0.00031	-1e-05	-6e-05	4
19374	-2e-05	-2e-05	7e-05	0.00049	0.00023	0.00031	-1e-05	-6e-05	4
19375	-2e-05	-2e-05	7e-05	0.00049	0.00023	0.00031	-1e-05	-6e-05	4
19376	-2e-05	-2e-05	7e-05	0.00049	0.00023	0.00031	-1e-05	-6e-05	4
19377	-2e-05	-2e-05	7e-05	0.00049	0.00023	0.00031	-1e-05	-6e-05	4
19378	-2e-05	-2e-05	7e-05	0.00049	0.00023	0.00031	-1e-05	-6e-05	4
19379	-2e-05	-2e-05	7e-05	0.00049	0.00023	0.00031	-1e-05	-6e-05	4
19380	-2e-05	-2e-05	7e-05	0.00049	0.00023	0.00031	-1e-05	-6e-05	4
19381	-2e-05	-2e-05	7e-05	0.00049	0.00023	0.00031	-1e-05	-6e-05	4
19382	-3e-05	-2e-05	-9e-05	-0.00021	0.00085	0	2e-05	-4e-05	4
19383	0	0	-4e-05	-0.00024	0.00014	-7e-05	-7e-05	1e-05	4
19384	0	0	-4e-05	-0.00024	0.00014	-7e-05	-7e-05	1e-05	4
19385	0	0	-4e-05	-0.00024	0.00014	-7e-05	-7e-05	1e-05	4
19387	0	0	-4e-05	-0.00024	0.00014	-7e-05	-7e-05	1e-05	4
19390	0	0	-4e-05	-0.00024	0.00014	-7e-05	-7e-05	1e-05	4
19391	0	0	-4e-05	-0.00024	0.00014	-7e-05	-7e-05	1e-05	4
19392	0	0	-4e-05	-0.00024	0.00014	-7e-05	-7e-05	1e-05	4
19393	0	0	-4e-05	-0.00024	0.00014	-7e-05	-7e-05	1e-05	4
19394	0	0	-4e-05	-0.00024	0.00014	-7e-05	-7e-05	1e-05	4
19395	0	0	-4e-05	-0.00024	0.00014	-7e-05	-7e-05	1e-05	4
19396	0	0	-4e-05	-0.00024	0.00014	-7e-05	-7e-05	1e-05	4
19397	0	0	-4e-05	-0.00024	0.00014	-7e-05	-7e-05	1e-05	4
19398	0	0	-4e-05	-0.00024	0.00014	-7e-05	-7e-05	1e-05	4
19399	0	0	-4e-05	-0.00024	0.00014	-7e-05	-7e-05	1e-05	4
19400	0	0	-4e-05	-0.00024	0.00014	-7e-05	-7e-05	1e-05	4
19401	0	0	-4e-05	-0.00024	0.00014	-7e-05	-7e-05	1e-05	4
19402	0	0	-4e-05	-0.00024	0.00014	-7e-05	-7e-05	1e-05	4
19403	4e-05	5e-05	0.00014	0.00021	-0.00043	-0.0002	-2e-05	4e-05	4
19404	0	-2e-05	4e-05	-0.00019	0.00037	-0.0002	0.00012	5e-05	4
19405	0	-2e-05	4e-05	-0.00019	0.00037	-0.0002	0.00012	5e-05	4
19406	0	-2e-05	4e-05	-0.00019	0.00037	-0.0002	0.00012	5e-05	4
19407	0	-2e-05	4e-05	-0.00019	0.00037	-0.0002	0.00012	5e-05	4
19408	0	-2e-05	4e-05	-0.00019	0.00037	-0.0002	0.00012	5e-05	4
19409	0	-2e-05	4e-05	-0.00019	0.00037	-0.0002	0.00012	5e-05	4
19410	0	-2e-05	4e-05	-0.00019	0.00037	-0.0002	0.00012	5e-05	4
19411	0	-2e-05	4e-05	-0.00019	0.00037	-0.0002	0.00012	5e-05	4
19412	0	-2e-05	4e-05	-0.00019	0.00037	-0.0002	0.00012	5e-05	4
19413	0	-2e-05	4e-05	-0.00019	0.00037	-0.0002	0.00012	5e-05	4
19414	0	-2e-05	4e-05	-0.00019	0.00037	-0.0002	0.00012	5e-05	4
19415	0	-2e-05	4e-05	-0.00019	0.00037	-0.0002	0.00012	5e-05	4
19416	0	-2e-05	4e-05	-0.00019	0.00037	-0.0002	0.00012	5e-05	4
19417	0	-2e-05	4e-05	-0.00019	0.00037	-0.0002	0.00012	5e-05	4
19418	0	-2e-05	4e-05	-0.00019	0.00037	-0.0002	0.00012	5e-05	4
19419	0	-2e-05	4e-05	-0.00019	0.00037	-0.0002	0.00012	5e-05	4
19420	0	-2e-05	4e-05	-0.00019	0.00037	-0.0002	0.00012	5e-05	4
19421	0	-2e-05	4e-05	-0.00019	0.00037	-0.0002	0.00012	5e-05	4
19422	0	-2e-05	4e-05	-0.00019	0.00037	-0.0002	0.00012	5e-05	4
19423	0	-2e-05	4e-05	-0.00019	0.00037	-0.0002	0.00012	5e-05	4
19424	0	-2e-05	4e-05	-0.00019	0.00037	-0.0002	0.00012	5e-05	4
19425	0	-2e-05	4e-05	-0.00019	0.00037	-0.0002	0.00012	5e-05	4
19426	0	-2e-05	4e-05	-0.00019	0.00037	-0.0002	0.00012	5e-05	4
19428	0	-2e-05	4e-05	-0.00019	0.00037	-0.0002	0.00012	5e-05	4
19429	0	-2e-05	4e-05	-0.00019	0.00037	-0.0002	0.00012	5e-05	4
19430	0	-2e-05	4e-05	-0.00019	0.00037	-0.0002	0.00012	5e-05	4
19431	0	-2e-05	4e-05	-0.00019	0.00037	-0.0002	0.00012	5e-05	4
19432	0	-2e-05	4e-05	-0.00019	0.00037	-0.0002	0.00012	5e-05	4
19433	3e-05	5e-05	7e-05	-0.00013	-0.00026	-9e-05	8e-05	3e-05	4
19434	-0.00012	-0.00021	-0.00037	-0.00072	0.00039	-0.00026	-0.00026	-0.00015	4
19435	-0.00012	-0.00021	-0.00037	-0.00072	0.00039	-0.00026	-0.00026	-0.00015	4
19436	-0.00012	-0.00021	-0.00037	-0.00072	0.00039	-0.00026	-0.00026	-0.00015	4
19439	-0.00012	-0.00021	-0.00037	-0.00072	0.00039	-0.00026	-0.00026	-0.00015	4
19440	-0.00012	-0.00021	-0.00037	-0.00072	0.00039	-0.00026	-0.00026	-0.00015	4
19441	-0.00012	-0.00021	-0.00037	-0.00072	0.00039	-0.00026	-0.00026	-0.00015	4
19442	-0.00012	-0.00021	-0.00037	-0.00072	0.00039	-0.00026	-0.00026	-0.00015	4
19443	-0.00012	-0.00021	-0.00037	-0.00072	0.00039	-0.00026	-0.00026	-0.00015	4
19444	-0.00012	-0.00021	-0.00037	-0.00072	0.00039	-0.00026	-0.00026	-0.00015	4
19445	-0.00012	-0.00021	-0.00037	-0.00072	0.00039	-0.00026	-0.00026	-0.00015	4
19446	-0.00012	-0.00021	-0.00037	-0.00072	0.00039	-0.00026	-0.00026	-0.00015	4
19447	-0.00012	-0.00021	-0.00037	-0.00072	0.00039	-0.00026	-0.00026	-0.00015	4
19448	5e-05	8e-05	0.00016	0	-0.00109	-0.00025	-2e-05	3e-05	4
19449	-3e-05	-5e-05	-0.00015	-0.00024	0.00022	9e-05	-3e-05	-3e-05	4
19450	-1e-05	5e-05	0.00013	0.00036	0.00087	0.00011	-3e-05	-1e-05	4
19451	-1e-05	5e-05	0.00013	0.00036	0.00087	0.00011	-3e-05	-1e-05	4
19452	-1e-05	5e-05	0.00013	0.00036	0.00087	0.00011	-3e-05	-1e-05	4
19453	-1e-05	5e-05	0.00013	0.00036	0.00087	0.00011	-3e-05	-1e-05	4
19454	-1e-05	5e-05	0.00013	0.00036	0.00087	0.00011	-3e-05	-1e-05	4
19455	-1e-05	5e-05	0.00013	0.00036	0.00087	0.00011	-3e-05	-1e-05	4
19456	-1e-05	5e-05	0.00013	0.00036	0.00087	0.00011	-3e-05	-1e-05	4
19458	-1e-05	5e-05	0.00013	0.00036	0.00087	0.00011	-3e-05	-1e-05	4
19459	-1e-05	5e-05	0.00013	0.00036	0.00087	0.00011	-3e-05	-1e-05	4
19460	-1e-05	5e-05	0.00013	0.00036	0.00087	0.00011	-3e-05	-1e-05	4
19461	-1e-05	5e-05	0.00013	0.00036	0.00087	0.00011	-3e-05	-1e-05	4
19462	-1e-05	5e-05	0.00013	0.00036	0.00087	0.00011	-3e-05	-1e-05	4
19463	0.00017	0.0002	0.00023	0.00042	4e-05	0.00013	0.00029	0.00019	4
19464	1e-05	4e-05	8e-05	7e-05	-1e-05	-9e-05	-1e-05	0	4
19465	1e-05	4e-05	8e-05	7e-05	-1e-05	-9e-05	-1e-05	0	4
19466	1e-05	4e-05	8e-05	7e-05	-1e-05	-9e-05	-1e-05	0	4
19467	1e-05	4e-05	8e-05	7e-05	-1e-05	-9e-05	-1e-05	0	4
19468	1e-05	4e-05	8e-05	7e-05	-1e-05	-9e-05	-1e-05	0	4
19469	1e-05	4e-05	8e-05	7e-05	-1e-05	-9e-05	-1e-05	0	4
19470	1e-05	4e-05	8e-05	7e-05	-1e-05	-9e-05	-1e-05	0	4
19471	1e-05	4e-05	8e-05	7e-05	-1e-05	-9e-05	-1e-05	0	4
19472	1e-05	4e-05	8e-05	7e-05	-1e-05	-9e-05	-1e-05	0	4
19473	1e-05	4e-05	8e-05	7e-05	-1e-05	-9e-05	-1e-05	0	4
19474	1e-05	4e-05	8e-05	7e-05	-1e-05	-9e-05	-1e-05	0	4
19475	1e-05	4e-05	8e-05	7e-05	-1e-05	-9e-05	-1e-05	0	4
19476	1e-05	4e-05	8e-05	7e-05	-1e-05	-9e-05	-1e-05	0	4
19477	1e-05	4e-05	8e-05	7e-05	-1e-05	-9e-05	-1e-05	0	4
19478	1e-05	4e-05	8e-05	7e-05	-1e-05	-9e-05	-1e-05	0	4
19479	1e-05	4e-05	8e-05	7e-05	-1e-05	-9e-05	-1e-05	0	4
19480	1e-05	4e-05	8e-05	7e-05	-1e-05	-9e-05	-1e-05	0	4
19481	1e-05	4e-05	8e-05	7e-05	-1e-05	-9e-05	-1e-05	0	4
19482	1e-05	4e-05	8e-05	7e-05	-1e-05	-9e-05	-1e-05	0	4
19483	1e-05	4e-05	8e-05	7e-05	-1e-05	-9e-05	-1e-05	0	4
19484	1e-05	4e-05	8e-05	7e-05	-1e-05	-9e-05	-1e-05	0	4
19485	-3e-05	1e-05	0	0.00019	-0.00042	-0.00025	-5e-05	-2e-05	4
19486	-2e-05	-6e-05	-4e-05	-0.0001	-9e-05	0.00049	0.00011	0	4
19489	-2e-05	-6e-05	-4e-05	-0.0001	-9e-05	0.00049	0.00011	0	4
19490	-2e-05	-6e-05	-4e-05	-0.0001	-9e-05	0.00049	0.00011	0	4
19491	-2e-05	-6e-05	-4e-05	-0.0001	-9e-05	0.00049	0.00011	0	4
19492	-2e-05	-6e-05	-4e-05	-0.0001	-9e-05	0.00049	0.00011	0	4
19493	-2e-05	-6e-05	-4e-05	-0.0001	-9e-05	0.00049	0.00011	0	4
19494	-2e-05	-6e-05	-4e-05	-0.0001	-9e-05	0.00049	0.00011	0	4
19495	-2e-05	-6e-05	-4e-05	-0.0001	-9e-05	0.00049	0.00011	0	4
19496	-2e-05	-6e-05	-4e-05	-0.0001	-9e-05	0.00049	0.00011	0	4
19497	-2e-05	-6e-05	-4e-05	-0.0001	-9e-05	0.00049	0.00011	0	4
19498	-2e-05	-6e-05	-4e-05	-0.0001	-9e-05	0.00049	0.00011	0	4
19499	-2e-05	-6e-05	-4e-05	-0.0001	-9e-05	0.00049	0.00011	0	4
19500	0	0	-2e-05	-2e-05	0.00087	0.00013	0	-1e-05	4
19501	3e-05	7e-05	0.00011	0.00019	0.00013	-1e-05	6e-05	0	4
19502	3e-05	7e-05	0.00011	0.00019	0.00013	-1e-05	6e-05	0	4
19503	3e-05	7e-05	0.00011	0.00019	0.00013	-1e-05	6e-05	0	4
19504	3e-05	7e-05	0.00011	0.00019	0.00013	-1e-05	6e-05	0	4
19505	3e-05	7e-05	0.00011	0.00019	0.00013	-1e-05	6e-05	0	4
19506	3e-05	7e-05	0.00011	0.00019	0.00013	-1e-05	6e-05	0	4
19507	3e-05	7e-05	0.00011	0.00019	0.00013	-1e-05	6e-05	0	4
19508	3e-05	7e-05	0.00011	0.00019	0.00013	-1e-05	6e-05	0	4
19509	3e-05	7e-05	0.00011	0.00019	0.00013	-1e-05	6e-05	0	4
19510	3e-05	7e-05	0.00011	0.00019	0.00013	-1e-05	6e-05	0	4
19511	3e-05	7e-05	0.00011	0.00019	0.00013	-1e-05	6e-05	0	4
19512	3e-05	7e-05	0.00011	0.00019	0.00013	-1e-05	6e-05	0	4
19513	3e-05	7e-05	0.00011	0.00019	0.00013	-1e-05	6e-05	0	4
19514	3e-05	7e-05	0.00011	0.00019	0.00013	-1e-05	6e-05	0	4
19515	3e-05	7e-05	0.00011	0.00019	0.00013	-1e-05	6e-05	0	4
19516	3e-05	7e-05	0.00011	0.00019	0.00013	-1e-05	6e-05	0	4
19517	3e-05	7e-05	0.00011	0.00019	0.00013	-1e-05	6e-05	0	4
51647	-4e-05	-5e-05	-4e-05	-0.00014	-0.00072	-0.00032	-9e-05	-4e-05	4
51648	-0.00012	-0.00016	-0.00024	-0.00087	-0.00128	-0.0004	-0.00022	-0.00016	4
51649	-4e-05	-0.0001	-0.00016	-0.00048	-0.00086	-6e-05	-5e-05	5e-05	4
51650	-4e-05	-0.0001	-0.00016	-0.00048	-0.00086	-6e-05	-5e-05	5e-05	4
51651	-4e-05	-0.0001	-0.00016	-0.00048	-0.00086	-6e-05	-5e-05	5e-05	4
51652	-4e-05	-0.0001	-0.00016	-0.00048	-0.00086	-6e-05	-5e-05	5e-05	4
51653	-4e-05	-0.0001	-0.00016	-0.00048	-0.00086	-6e-05	-5e-05	5e-05	4
51654	-4e-05	-0.0001	-0.00016	-0.00048	-0.00086	-6e-05	-5e-05	5e-05	4
51655	-4e-05	-0.0001	-0.00016	-0.00048	-0.00086	-6e-05	-5e-05	5e-05	4
51656	-4e-05	-0.0001	-0.00016	-0.00048	-0.00086	-6e-05	-5e-05	5e-05	4
51657	-4e-05	-0.0001	-0.00016	-0.00048	-0.00086	-6e-05	-5e-05	5e-05	4
51658	-4e-05	-0.0001	-0.00016	-0.00048	-0.00086	-6e-05	-5e-05	5e-05	4
51659	-4e-05	-0.0001	-0.00016	-0.00048	-0.00086	-6e-05	-5e-05	5e-05	4
51660	-4e-05	-0.0001	-0.00016	-0.00048	-0.00086	-6e-05	-5e-05	5e-05	4
51661	-4e-05	-0.0001	-0.00016	-0.00048	-0.00086	-6e-05	-5e-05	5e-05	4
51662	-4e-05	-0.0001	-0.00016	-0.00048	-0.00086	-6e-05	-5e-05	5e-05	4
51663	-4e-05	-0.0001	-0.00016	-0.00048	-0.00086	-6e-05	-5e-05	5e-05	4
51664	-4e-05	-0.0001	-0.00016	-0.00048	-0.00086	-6e-05	-5e-05	5e-05	4
51665	-4e-05	-0.0001	-0.00016	-0.00048	-0.00086	-6e-05	-5e-05	5e-05	4
51666	-4e-05	-0.0001	-0.00016	-0.00048	-0.00086	-6e-05	-5e-05	5e-05	4
51667	-4e-05	-0.0001	-0.00016	-0.00048	-0.00086	-6e-05	-5e-05	5e-05	4
51668	-2e-05	-2e-05	0	-0.00012	-0.00053	-1e-05	-3e-05	-8e-05	4
51669	1e-05	-6e-05	-7e-05	-0.00012	-0.00029	5e-05	1e-05	0.00011	4
51670	1e-05	-6e-05	-7e-05	-0.00012	-0.00029	5e-05	1e-05	0.00011	4
51671	1e-05	-6e-05	-7e-05	-0.00012	-0.00029	5e-05	1e-05	0.00011	4
51672	1e-05	-6e-05	-7e-05	-0.00012	-0.00029	5e-05	1e-05	0.00011	4
51673	1e-05	-6e-05	-7e-05	-0.00012	-0.00029	5e-05	1e-05	0.00011	4
51674	1e-05	-6e-05	-7e-05	-0.00012	-0.00029	5e-05	1e-05	0.00011	4
51675	1e-05	-6e-05	-7e-05	-0.00012	-0.00029	5e-05	1e-05	0.00011	4
51676	1e-05	-6e-05	-7e-05	-0.00012	-0.00029	5e-05	1e-05	0.00011	4
51677	1e-05	-6e-05	-7e-05	-0.00012	-0.00029	5e-05	1e-05	0.00011	4
51678	1e-05	-6e-05	-7e-05	-0.00012	-0.00029	5e-05	1e-05	0.00011	4
51679	1e-05	-6e-05	-7e-05	-0.00012	-0.00029	5e-05	1e-05	0.00011	4
51680	1e-05	-6e-05	-7e-05	-0.00012	-0.00029	5e-05	1e-05	0.00011	4
51681	1e-05	-6e-05	-7e-05	-0.00012	-0.00029	5e-05	1e-05	0.00011	4
51682	1e-05	-6e-05	-7e-05	-0.00012	-0.00029	5e-05	1e-05	0.00011	4
51683	1e-05	-6e-05	-7e-05	-0.00012	-0.00029	5e-05	1e-05	0.00011	4
51684	1e-05	-6e-05	-7e-05	-0.00012	-0.00029	5e-05	1e-05	0.00011	4
51685	1e-05	-6e-05	-7e-05	-0.00012	-0.00029	5e-05	1e-05	0.00011	4
51686	1e-05	-6e-05	-7e-05	-0.00012	-0.00029	5e-05	1e-05	0.00011	4
51689	1e-05	-6e-05	-7e-05	-0.00012	-0.00029	5e-05	1e-05	0.00011	4
51690	1e-05	-6e-05	-7e-05	-0.00012	-0.00029	5e-05	1e-05	0.00011	4
51691	-7e-05	-7e-05	3e-05	0.00063	-0.00099	0.00016	-0.00011	-3e-05	4
51692	8e-05	0.00014	0.00025	0.00032	0.00022	0.00053	0.00017	6e-05	4
51693	8e-05	0.00014	0.00025	0.00032	0.00022	0.00053	0.00017	6e-05	4
51694	8e-05	0.00014	0.00025	0.00032	0.00022	0.00053	0.00017	6e-05	4
51695	8e-05	0.00014	0.00025	0.00032	0.00022	0.00053	0.00017	6e-05	4
51696	8e-05	0.00014	0.00025	0.00032	0.00022	0.00053	0.00017	6e-05	4
51697	8e-05	0.00014	0.00025	0.00032	0.00022	0.00053	0.00017	6e-05	4
51698	8e-05	0.00014	0.00025	0.00032	0.00022	0.00053	0.00017	6e-05	4
51699	8e-05	0.00014	0.00025	0.00032	0.00022	0.00053	0.00017	6e-05	4
51700	8e-05	0.00014	0.00025	0.00032	0.00022	0.00053	0.00017	6e-05	4
51701	8e-05	0.00014	0.00025	0.00032	0.00022	0.00053	0.00017	6e-05	4
51702	8e-05	0.00014	0.00025	0.00032	0.00022	0.00053	0.00017	6e-05	4
51703	8e-05	0.00014	0.00025	0.00032	0.00022	0.00053	0.00017	6e-05	4
51704	8e-05	0.00014	0.00025	0.00032	0.00022	0.00053	0.00017	6e-05	4
51705	8e-05	0.00014	0.00025	0.00032	0.00022	0.00053	0.00017	6e-05	4
51706	8e-05	0.00014	0.00022	0.00063	0.00107	0.00025	0.0001	0.00011	4
51707	-4e-05	-5e-05	-0.00012	-0.00012	7e-05	-5e-05	-2e-05	-7e-05	4
51708	-4e-05	-5e-05	-0.00012	-0.00012	7e-05	-5e-05	-2e-05	-7e-05	4
51709	-4e-05	-5e-05	-0.00012	-0.00012	7e-05	-5e-05	-2e-05	-7e-05	4
51710	-4e-05	-5e-05	-0.00012	-0.00012	7e-05	-5e-05	-2e-05	-7e-05	4
51711	-4e-05	-5e-05	-0.00012	-0.00012	7e-05	-5e-05	-2e-05	-7e-05	4
51712	-4e-05	-5e-05	-0.00012	-0.00012	7e-05	-5e-05	-2e-05	-7e-05	4
51713	-4e-05	-5e-05	-0.00012	-0.00012	7e-05	-5e-05	-2e-05	-7e-05	4
51714	-4e-05	-5e-05	-0.00012	-0.00012	7e-05	-5e-05	-2e-05	-7e-05	4
51715	-4e-05	-5e-05	-0.00012	-0.00012	7e-05	-5e-05	-2e-05	-7e-05	4
51716	-4e-05	-5e-05	-0.00012	-0.00012	7e-05	-5e-05	-2e-05	-7e-05	4
51717	-4e-05	-5e-05	-0.00012	-0.00012	7e-05	-5e-05	-2e-05	-7e-05	4
51718	-4e-05	-5e-05	-0.00012	-0.00012	7e-05	-5e-05	-2e-05	-7e-05	4
51720	-4e-05	-5e-05	-0.00012	-0.00012	7e-05	-5e-05	-2e-05	-7e-05	4
51721	-4e-05	-5e-05	-0.00012	-0.00012	7e-05	-5e-05	-2e-05	-7e-05	4
51722	-4e-05	-5e-05	-0.00012	-0.00012	7e-05	-5e-05	-2e-05	-7e-05	4
51723	-4e-05	-5e-05	-0.00012	-0.00012	7e-05	-5e-05	-2e-05	-7e-05	4
51724	-4e-05	-5e-05	-0.00012	-0.00012	7e-05	-5e-05	-2e-05	-7e-05	4
51725	-4e-05	-5e-05	-0.00012	-0.00012	7e-05	-5e-05	-2e-05	-7e-05	4
51726	-4e-05	-5e-05	-0.00012	-0.00012	7e-05	-5e-05	-2e-05	-7e-05	4
51727	-4e-05	-5e-05	-0.00012	-0.00012	7e-05	-5e-05	-2e-05	-7e-05	4
51728	-0.00016	-0.00019	-0.00025	-0.00074	-0.00124	-0.00064	-0.00022	-0.00014	4
51729	2e-05	0	-8e-05	-0.00048	-0.00039	0.00033	9e-05	-5e-05	4
51730	2e-05	0	-8e-05	-0.00048	-0.00039	0.00033	9e-05	-5e-05	4
51731	2e-05	0	-8e-05	-0.00048	-0.00039	0.00033	9e-05	-5e-05	4
51732	2e-05	0	-8e-05	-0.00048	-0.00039	0.00033	9e-05	-5e-05	4
51733	2e-05	0	-8e-05	-0.00048	-0.00039	0.00033	9e-05	-5e-05	4
51734	2e-05	0	-8e-05	-0.00048	-0.00039	0.00033	9e-05	-5e-05	4
51735	2e-05	0	-8e-05	-0.00048	-0.00039	0.00033	9e-05	-5e-05	4
51737	2e-05	0	-8e-05	-0.00048	-0.00039	0.00033	9e-05	-5e-05	4
51740	2e-05	0	-8e-05	-0.00048	-0.00039	0.00033	9e-05	-5e-05	4
51741	2e-05	0	-8e-05	-0.00048	-0.00039	0.00033	9e-05	-5e-05	4
51742	2e-05	0	-8e-05	-0.00048	-0.00039	0.00033	9e-05	-5e-05	4
51743	2e-05	0	-8e-05	-0.00048	-0.00039	0.00033	9e-05	-5e-05	4
51744	2e-05	0	-8e-05	-0.00048	-0.00039	0.00033	9e-05	-5e-05	4
51745	2e-05	0	-8e-05	-0.00048	-0.00039	0.00033	9e-05	-5e-05	4
51746	2e-05	0	-8e-05	-0.00048	-0.00039	0.00033	9e-05	-5e-05	4
51747	2e-05	0	-8e-05	-0.00048	-0.00039	0.00033	9e-05	-5e-05	4
51748	2e-05	0	-8e-05	-0.00048	-0.00039	0.00033	9e-05	-5e-05	4
51749	2e-05	0	-8e-05	-0.00048	-0.00039	0.00033	9e-05	-5e-05	4
51750	2e-05	0	-8e-05	-0.00048	-0.00039	0.00033	9e-05	-5e-05	4
51751	-3e-05	0	1e-05	-1e-05	0.0002	-7e-05	-0.0001	-4e-05	4
51752	-1e-05	-4e-05	-0.00013	-0.00038	0	0.00011	4e-05	5e-05	4
51753	-3e-05	-4e-05	-6e-05	4e-05	0.00065	0.00014	-2e-05	-6e-05	4
51754	-3e-05	-4e-05	-6e-05	4e-05	0.00065	0.00014	-2e-05	-6e-05	4
51755	-3e-05	-4e-05	-6e-05	4e-05	0.00065	0.00014	-2e-05	-6e-05	4
51756	-3e-05	-4e-05	-6e-05	4e-05	0.00065	0.00014	-2e-05	-6e-05	4
51757	-3e-05	-4e-05	-6e-05	4e-05	0.00065	0.00014	-2e-05	-6e-05	4
51758	-3e-05	-4e-05	-6e-05	4e-05	0.00065	0.00014	-2e-05	-6e-05	4
51759	-3e-05	-4e-05	-6e-05	4e-05	0.00065	0.00014	-2e-05	-6e-05	4
51760	-3e-05	-4e-05	-6e-05	4e-05	0.00065	0.00014	-2e-05	-6e-05	4
51761	-3e-05	-4e-05	-6e-05	4e-05	0.00065	0.00014	-2e-05	-6e-05	4
51762	-3e-05	-4e-05	-6e-05	4e-05	0.00065	0.00014	-2e-05	-6e-05	4
51763	-3e-05	-4e-05	-6e-05	4e-05	0.00065	0.00014	-2e-05	-6e-05	4
51764	-3e-05	-4e-05	-6e-05	4e-05	0.00065	0.00014	-2e-05	-6e-05	4
51765	-3e-05	-4e-05	-6e-05	4e-05	0.00065	0.00014	-2e-05	-6e-05	4
51766	3e-05	3e-05	0.00011	-9e-05	-0.00012	9e-05	1e-05	-1e-05	4
51767	6e-05	0.00013	0.00017	-3e-05	-0.00065	-0.00031	9e-05	4e-05	4
51768	6e-05	0.00013	0.00017	-3e-05	-0.00065	-0.00031	9e-05	4e-05	4
51769	6e-05	0.00013	0.00017	-3e-05	-0.00065	-0.00031	9e-05	4e-05	4
51770	6e-05	0.00013	0.00017	-3e-05	-0.00065	-0.00031	9e-05	4e-05	4
51771	6e-05	0.00013	0.00017	-3e-05	-0.00065	-0.00031	9e-05	4e-05	4
51772	6e-05	0.00013	0.00017	-3e-05	-0.00065	-0.00031	9e-05	4e-05	4
51773	6e-05	0.00013	0.00017	-3e-05	-0.00065	-0.00031	9e-05	4e-05	4
51774	6e-05	0.00013	0.00017	-3e-05	-0.00065	-0.00031	9e-05	4e-05	4
51775	6e-05	0.00013	0.00017	-3e-05	-0.00065	-0.00031	9e-05	4e-05	4
51776	6e-05	0.00013	0.00017	-3e-05	-0.00065	-0.00031	9e-05	4e-05	4
51777	6e-05	0.00013	0.00017	-3e-05	-0.00065	-0.00031	9e-05	4e-05	4
51778	6e-05	0.00013	0.00017	-3e-05	-0.00065	-0.00031	9e-05	4e-05	4
51779	6e-05	0.00013	0.00017	-3e-05	-0.00065	-0.00031	9e-05	4e-05	4
51780	6e-05	0.00013	0.00017	-3e-05	-0.00065	-0.00031	9e-05	4e-05	4
51781	6e-05	0.00013	0.00017	-3e-05	-0.00065	-0.00031	9e-05	4e-05	4
51782	6e-05	0.00013	0.00017	-3e-05	-0.00065	-0.00031	9e-05	4e-05	4
51783	6e-05	0.00013	0.00017	-3e-05	-0.00065	-0.00031	9e-05	4e-05	4
51784	6e-05	0.00013	0.00017	-3e-05	-0.00065	-0.00031	9e-05	4e-05	4
51785	6e-05	0.00013	0.00017	-3e-05	-0.00065	-0.00031	9e-05	4e-05	4
51787	6e-05	0.00013	0.00017	-3e-05	-0.00065	-0.00031	9e-05	4e-05	4
51790	-9e-05	-8e-05	-0.0001	-0.00013	-0.0005	-0.00023	-0.00014	-0.0002	4
51791	-9e-05	-8e-05	-0.0001	-0.00013	-0.0005	-0.00023	-0.00014	-0.0002	4
51792	-9e-05	-8e-05	-0.0001	-0.00013	-0.0005	-0.00023	-0.00014	-0.0002	4
51793	-9e-05	-8e-05	-0.0001	-0.00013	-0.0005	-0.00023	-0.00014	-0.0002	4
51794	-9e-05	-8e-05	-0.0001	-0.00013	-0.0005	-0.00023	-0.00014	-0.0002	4
51795	-9e-05	-8e-05	-0.0001	-0.00013	-0.0005	-0.00023	-0.00014	-0.0002	4
51796	-9e-05	-8e-05	-0.0001	-0.00013	-0.0005	-0.00023	-0.00014	-0.0002	4
51797	-9e-05	-8e-05	-0.0001	-0.00013	-0.0005	-0.00023	-0.00014	-0.0002	4
51798	-9e-05	-8e-05	-0.0001	-0.00013	-0.0005	-0.00023	-0.00014	-0.0002	4
51799	-9e-05	-8e-05	-0.0001	-0.00013	-0.0005	-0.00023	-0.00014	-0.0002	4
51800	-9e-05	-8e-05	-0.0001	-0.00013	-0.0005	-0.00023	-0.00014	-0.0002	4
51801	-9e-05	-8e-05	-0.0001	-0.00013	-0.0005	-0.00023	-0.00014	-0.0002	4
51802	-9e-05	-8e-05	-0.0001	-0.00013	-0.0005	-0.00023	-0.00014	-0.0002	4
51803	-9e-05	-8e-05	-0.0001	-0.00013	-0.0005	-0.00023	-0.00014	-0.0002	4
51804	-9e-05	-8e-05	-0.0001	-0.00013	-0.0005	-0.00023	-0.00014	-0.0002	4
51805	-9e-05	-8e-05	-0.0001	-0.00013	-0.0005	-0.00023	-0.00014	-0.0002	4
51806	-9e-05	-8e-05	-0.0001	-0.00013	-0.0005	-0.00023	-0.00014	-0.0002	4
51807	-9e-05	-8e-05	-0.0001	-0.00013	-0.0005	-0.00023	-0.00014	-0.0002	4
51808	-9e-05	-8e-05	-0.0001	-0.00013	-0.0005	-0.00023	-0.00014	-0.0002	4
51809	-9e-05	-8e-05	-0.0001	-0.00013	-0.0005	-0.00023	-0.00014	-0.0002	4
51810	-9e-05	-8e-05	-0.0001	-0.00013	-0.0005	-0.00023	-0.00014	-0.0002	4
51811	4e-05	2e-05	8e-05	9e-05	-0.00081	-0.0003	-3e-05	0.00022	4
51812	4e-05	2e-05	8e-05	9e-05	-0.00081	-0.0003	-3e-05	0.00022	4
51813	-7e-05	-0.00012	-0.00014	-5e-05	0.00029	-0.00023	-9e-05	-4e-05	4
51814	-7e-05	-0.00012	-0.00014	-5e-05	0.00029	-0.00023	-9e-05	-4e-05	4
51815	-7e-05	-0.00012	-0.00014	-5e-05	0.00029	-0.00023	-9e-05	-4e-05	4
51816	-7e-05	-0.00012	-0.00014	-5e-05	0.00029	-0.00023	-9e-05	-4e-05	4
51817	-7e-05	-0.00012	-0.00014	-5e-05	0.00029	-0.00023	-9e-05	-4e-05	4
51818	-7e-05	-0.00012	-0.00014	-5e-05	0.00029	-0.00023	-9e-05	-4e-05	4
51819	-7e-05	-0.00012	-0.00014	-5e-05	0.00029	-0.00023	-9e-05	-4e-05	4
51820	-7e-05	-0.00012	-0.00014	-5e-05	0.00029	-0.00023	-9e-05	-4e-05	4
51821	-7e-05	-0.00012	-0.00014	-5e-05	0.00029	-0.00023	-9e-05	-4e-05	4
51822	-7e-05	-0.00012	-0.00014	-5e-05	0.00029	-0.00023	-9e-05	-4e-05	4
51823	-7e-05	-0.00012	-0.00014	-5e-05	0.00029	-0.00023	-9e-05	-4e-05	4
51824	-7e-05	-0.00012	-0.00014	-5e-05	0.00029	-0.00023	-9e-05	-4e-05	4
51825	-7e-05	-0.00012	-0.00014	-5e-05	0.00029	-0.00023	-9e-05	-4e-05	4
51826	6e-05	7e-05	0.00013	0.00032	-0.00064	0.00021	0.00012	6e-05	4
51827	3e-05	2e-05	0.00013	0.00011	6e-05	-8e-05	-2e-05	3e-05	4
51828	3e-05	2e-05	0.00013	0.00011	6e-05	-8e-05	-2e-05	3e-05	4
51829	3e-05	2e-05	0.00013	0.00011	6e-05	-8e-05	-2e-05	3e-05	4
51830	3e-05	2e-05	0.00013	0.00011	6e-05	-8e-05	-2e-05	3e-05	4
51831	3e-05	2e-05	0.00013	0.00011	6e-05	-8e-05	-2e-05	3e-05	4
51832	3e-05	2e-05	0.00013	0.00011	6e-05	-8e-05	-2e-05	3e-05	4
51833	3e-05	2e-05	0.00013	0.00011	6e-05	-8e-05	-2e-05	3e-05	4
51834	3e-05	2e-05	0.00013	0.00011	6e-05	-8e-05	-2e-05	3e-05	4
51835	3e-05	2e-05	0.00013	0.00011	6e-05	-8e-05	-2e-05	3e-05	4
51837	3e-05	2e-05	0.00013	0.00011	6e-05	-8e-05	-2e-05	3e-05	4
51840	3e-05	2e-05	0.00013	0.00011	6e-05	-8e-05	-2e-05	3e-05	4
51841	3e-05	2e-05	0.00013	0.00011	6e-05	-8e-05	-2e-05	3e-05	4
51842	3e-05	2e-05	0.00013	0.00011	6e-05	-8e-05	-2e-05	3e-05	4
51843	3e-05	2e-05	0.00013	0.00011	6e-05	-8e-05	-2e-05	3e-05	4
51844	3e-05	2e-05	0.00013	0.00011	6e-05	-8e-05	-2e-05	3e-05	4
51845	3e-05	2e-05	0.00013	0.00011	6e-05	-8e-05	-2e-05	3e-05	4
51846	3e-05	2e-05	0.00013	0.00011	6e-05	-8e-05	-2e-05	3e-05	4
51847	3e-05	2e-05	0.00013	0.00011	6e-05	-8e-05	-2e-05	3e-05	4
51848	3e-05	2e-05	0.00013	0.00011	6e-05	-8e-05	-2e-05	3e-05	4
51849	3e-05	3e-05	9e-05	5e-05	-0.00038	0.00013	5e-05	4e-05	4
51850	3e-05	3e-05	9e-05	5e-05	-0.00038	0.00013	5e-05	4e-05	4
51851	3e-05	3e-05	9e-05	5e-05	-0.00038	0.00013	5e-05	4e-05	4
51852	3e-05	3e-05	9e-05	5e-05	-0.00038	0.00013	5e-05	4e-05	4
51853	3e-05	3e-05	9e-05	5e-05	-0.00038	0.00013	5e-05	4e-05	4
51854	3e-05	3e-05	9e-05	5e-05	-0.00038	0.00013	5e-05	4e-05	4
51855	3e-05	3e-05	9e-05	5e-05	-0.00038	0.00013	5e-05	4e-05	4
51856	3e-05	3e-05	9e-05	5e-05	-0.00038	0.00013	5e-05	4e-05	4
51857	3e-05	3e-05	9e-05	5e-05	-0.00038	0.00013	5e-05	4e-05	4
51858	3e-05	3e-05	9e-05	5e-05	-0.00038	0.00013	5e-05	4e-05	4
51859	3e-05	3e-05	9e-05	5e-05	-0.00038	0.00013	5e-05	4e-05	4
51860	3e-05	3e-05	9e-05	5e-05	-0.00038	0.00013	5e-05	4e-05	4
51861	3e-05	3e-05	9e-05	5e-05	-0.00038	0.00013	5e-05	4e-05	4
51862	3e-05	3e-05	9e-05	5e-05	-0.00038	0.00013	5e-05	4e-05	4
51863	3e-05	3e-05	9e-05	5e-05	-0.00038	0.00013	5e-05	4e-05	4
51864	3e-05	3e-05	9e-05	5e-05	-0.00038	0.00013	5e-05	4e-05	4
51865	3e-05	3e-05	9e-05	5e-05	-0.00038	0.00013	5e-05	4e-05	4
51866	3e-05	3e-05	9e-05	5e-05	-0.00038	0.00013	5e-05	4e-05	4
51867	3e-05	3e-05	9e-05	5e-05	-0.00038	0.00013	5e-05	4e-05	4
51868	3e-05	3e-05	9e-05	5e-05	-0.00038	0.00013	5e-05	4e-05	4
51869	3e-05	3e-05	9e-05	5e-05	-0.00038	0.00013	5e-05	4e-05	4
51870	3e-05	3e-05	9e-05	5e-05	-0.00038	0.00013	5e-05	4e-05	4
51871	3e-05	3e-05	9e-05	5e-05	-0.00038	0.00013	5e-05	4e-05	4
51872	-6e-05	-6e-05	-0.00017	-0.00026	0.00075	-3e-05	-0.0001	-6e-05	4
51873	-6e-05	-6e-05	-0.00017	-0.00026	0.00075	-3e-05	-0.0001	-6e-05	4
51874	-6e-05	-6e-05	-0.00017	-0.00026	0.00075	-3e-05	-0.0001	-6e-05	4
51875	-6e-05	-6e-05	-0.00017	-0.00026	0.00075	-3e-05	-0.0001	-6e-05	4
51876	-6e-05	-6e-05	-0.00017	-0.00026	0.00075	-3e-05	-0.0001	-6e-05	4
51877	-6e-05	-6e-05	-0.00017	-0.00026	0.00075	-3e-05	-0.0001	-6e-05	4
51878	-4e-05	-2e-05	-7e-05	-8e-05	0.00031	9e-05	-5e-05	-2e-05	4
51879	-4e-05	-2e-05	-7e-05	-8e-05	0.00031	9e-05	-5e-05	-2e-05	4
51880	-4e-05	-2e-05	-7e-05	-8e-05	0.00031	9e-05	-5e-05	-2e-05	4
51881	-4e-05	-2e-05	-7e-05	-8e-05	0.00031	9e-05	-5e-05	-2e-05	4
51882	-4e-05	-2e-05	-7e-05	-8e-05	0.00031	9e-05	-5e-05	-2e-05	4
51883	-4e-05	-2e-05	-7e-05	-8e-05	0.00031	9e-05	-5e-05	-2e-05	4
51884	-4e-05	-2e-05	-7e-05	-8e-05	0.00031	9e-05	-5e-05	-2e-05	4
51885	-4e-05	-2e-05	-7e-05	-8e-05	0.00031	9e-05	-5e-05	-2e-05	4
51886	-4e-05	-2e-05	-7e-05	-8e-05	0.00031	9e-05	-5e-05	-2e-05	4
51889	-4e-05	-2e-05	-7e-05	-8e-05	0.00031	9e-05	-5e-05	-2e-05	4
51890	-4e-05	-2e-05	-7e-05	-8e-05	0.00031	9e-05	-5e-05	-2e-05	4
51891	-4e-05	-2e-05	-7e-05	-8e-05	0.00031	9e-05	-5e-05	-2e-05	4
51892	-4e-05	-2e-05	-7e-05	-8e-05	0.00031	9e-05	-5e-05	-2e-05	4
51893	-4e-05	-2e-05	-7e-05	-8e-05	0.00031	9e-05	-5e-05	-2e-05	4
51894	-4e-05	-2e-05	-7e-05	-8e-05	0.00031	9e-05	-5e-05	-2e-05	4
51895	-4e-05	-2e-05	-7e-05	-8e-05	0.00031	9e-05	-5e-05	-2e-05	4
51896	-4e-05	-2e-05	-7e-05	-8e-05	0.00031	9e-05	-5e-05	-2e-05	4
51897	-4e-05	-2e-05	-7e-05	-8e-05	0.00031	9e-05	-5e-05	-2e-05	4
51898	-4e-05	-2e-05	-7e-05	-8e-05	0.00031	9e-05	-5e-05	-2e-05	4
51899	-4e-05	-2e-05	-7e-05	-8e-05	0.00031	9e-05	-5e-05	-2e-05	4
51900	-4e-05	-2e-05	-7e-05	-8e-05	0.00031	9e-05	-5e-05	-2e-05	4
51901	2e-05	4e-05	5e-05	0.00018	0.00053	0.00011	1e-05	-2e-05	4
51902	0	5e-05	7e-05	0.00052	-0.00043	0.00029	0.0001	2e-05	4
51903	1e-05	0	-4e-05	-0.00026	4e-05	0.00024	7e-05	7e-05	4
51904	1e-05	0	-4e-05	-0.00026	4e-05	0.00024	7e-05	7e-05	4
51905	1e-05	0	-4e-05	-0.00026	4e-05	0.00024	7e-05	7e-05	4
51906	1e-05	0	-4e-05	-0.00026	4e-05	0.00024	7e-05	7e-05	4
51907	1e-05	0	-4e-05	-0.00026	4e-05	0.00024	7e-05	7e-05	4
51908	1e-05	0	-4e-05	-0.00026	4e-05	0.00024	7e-05	7e-05	4
51909	1e-05	0	-4e-05	-0.00026	4e-05	0.00024	7e-05	7e-05	4
51910	1e-05	0	-4e-05	-0.00026	4e-05	0.00024	7e-05	7e-05	4
51911	1e-05	0	-4e-05	-0.00026	4e-05	0.00024	7e-05	7e-05	4
51912	1e-05	0	-4e-05	-0.00026	4e-05	0.00024	7e-05	7e-05	4
51913	1e-05	0	-4e-05	-0.00026	4e-05	0.00024	7e-05	7e-05	4
51914	1e-05	0	-4e-05	-0.00026	4e-05	0.00024	7e-05	7e-05	4
51915	1e-05	0	-4e-05	-0.00026	4e-05	0.00024	7e-05	7e-05	4
51916	-3e-05	-2e-05	-8e-05	1e-05	0.00073	6e-05	-4e-05	-1e-05	4
51917	3e-05	2e-05	5e-05	0.00028	-6e-05	-0.00012	-3e-05	0	4
51918	3e-05	2e-05	5e-05	0.00028	-6e-05	-0.00012	-3e-05	0	4
51919	3e-05	2e-05	5e-05	0.00028	-6e-05	-0.00012	-3e-05	0	4
51920	3e-05	2e-05	5e-05	0.00028	-6e-05	-0.00012	-3e-05	0	4
51921	3e-05	2e-05	5e-05	0.00028	-6e-05	-0.00012	-3e-05	0	4
51922	3e-05	2e-05	5e-05	0.00028	-6e-05	-0.00012	-3e-05	0	4
51923	3e-05	2e-05	5e-05	0.00028	-6e-05	-0.00012	-3e-05	0	4
51924	3e-05	2e-05	5e-05	0.00028	-6e-05	-0.00012	-3e-05	0	4
51925	3e-05	2e-05	5e-05	0.00028	-6e-05	-0.00012	-3e-05	0	4
51926	3e-05	2e-05	5e-05	0.00028	-6e-05	-0.00012	-3e-05	0	4
51927	3e-05	2e-05	5e-05	0.00028	-6e-05	-0.00012	-3e-05	0	4
51928	3e-05	2e-05	5e-05	0.00028	-6e-05	-0.00012	-3e-05	0	4
51929	3e-05	2e-05	5e-05	0.00028	-6e-05	-0.00012	-3e-05	0	4
51930	3e-05	2e-05	5e-05	0.00028	-6e-05	-0.00012	-3e-05	0	4
51931	3e-05	2e-05	5e-05	0.00028	-6e-05	-0.00012	-3e-05	0	4
51932	3e-05	2e-05	5e-05	0.00028	-6e-05	-0.00012	-3e-05	0	4
51933	3e-05	2e-05	5e-05	0.00028	-6e-05	-0.00012	-3e-05	0	4
51934	3e-05	2e-05	5e-05	0.00028	-6e-05	-0.00012	-3e-05	0	4
51935	3e-05	2e-05	5e-05	0.00028	-6e-05	-0.00012	-3e-05	0	4
51936	3e-05	2e-05	5e-05	0.00028	-6e-05	-0.00012	-3e-05	0	4
51939	-0.00018	-0.00017	-0.00021	-0.00015	-0.00019	-0.00049	-0.00025	-0.00035	4
51940	0.00018	0.0002	0.00021	-0.0001	0.00088	0.00029	0.00023	0.00041	4
51941	0.00018	0.0002	0.00021	-0.0001	0.00088	0.00029	0.00023	0.00041	4
51942	0.00018	0.0002	0.00021	-0.0001	0.00088	0.00029	0.00023	0.00041	4
51943	0.00018	0.0002	0.00021	-0.0001	0.00088	0.00029	0.00023	0.00041	4
51944	0.00018	0.0002	0.00021	-0.0001	0.00088	0.00029	0.00023	0.00041	4
51945	0.00018	0.0002	0.00021	-0.0001	0.00088	0.00029	0.00023	0.00041	4
51946	0.00018	0.0002	0.00021	-0.0001	0.00088	0.00029	0.00023	0.00041	4
51947	-1e-05	-2e-05	-8e-05	0.00018	-0.00041	-0.00019	-3e-05	1e-05	4
51948	-7e-05	-6e-05	1e-05	4e-05	0.00019	-0.0002	-5e-05	-0.00015	4
51949	-7e-05	-6e-05	1e-05	4e-05	0.00019	-0.0002	-5e-05	-0.00015	4
51950	-7e-05	-6e-05	1e-05	4e-05	0.00019	-0.0002	-5e-05	-0.00015	4
51951	-7e-05	-6e-05	1e-05	4e-05	0.00019	-0.0002	-5e-05	-0.00015	4
51952	-7e-05	-6e-05	1e-05	4e-05	0.00019	-0.0002	-5e-05	-0.00015	4
51953	-7e-05	-6e-05	1e-05	4e-05	0.00019	-0.0002	-5e-05	-0.00015	4
51954	-7e-05	-6e-05	1e-05	4e-05	0.00019	-0.0002	-5e-05	-0.00015	4
51955	-7e-05	-6e-05	1e-05	4e-05	0.00019	-0.0002	-5e-05	-0.00015	4
51956	-7e-05	-6e-05	1e-05	4e-05	0.00019	-0.0002	-5e-05	-0.00015	4
51957	-7e-05	-6e-05	1e-05	4e-05	0.00019	-0.0002	-5e-05	-0.00015	4
51958	-7e-05	-6e-05	1e-05	4e-05	0.00019	-0.0002	-5e-05	-0.00015	4
51959	-7e-05	-6e-05	1e-05	4e-05	0.00019	-0.0002	-5e-05	-0.00015	4
51960	-7e-05	-6e-05	1e-05	4e-05	0.00019	-0.0002	-5e-05	-0.00015	4
51961	-7e-05	-6e-05	1e-05	4e-05	0.00019	-0.0002	-5e-05	-0.00015	4
51962	-7e-05	-6e-05	1e-05	4e-05	0.00019	-0.0002	-5e-05	-0.00015	4
51963	-7e-05	-6e-05	1e-05	4e-05	0.00019	-0.0002	-5e-05	-0.00015	4
51964	-7e-05	-6e-05	1e-05	4e-05	0.00019	-0.0002	-5e-05	-0.00015	4
51965	-7e-05	-6e-05	1e-05	4e-05	0.00019	-0.0002	-5e-05	-0.00015	4
51966	-7e-05	-6e-05	1e-05	4e-05	0.00019	-0.0002	-5e-05	-0.00015	4
51967	-7e-05	-6e-05	1e-05	4e-05	0.00019	-0.0002	-5e-05	-0.00015	4
51968	-2e-05	4e-05	0.00012	0.00066	-0.00102	-0.00017	-8e-05	0	4
51969	-4e-05	-5e-05	-0.00014	-0.00016	-0.00059	-0.00025	-0.0001	-9e-05	4
51970	-4e-05	-5e-05	-0.00014	-0.00016	-0.00059	-0.00025	-0.0001	-9e-05	4
51971	-4e-05	-5e-05	-0.00014	-0.00016	-0.00059	-0.00025	-0.0001	-9e-05	4
51972	-4e-05	-5e-05	-0.00014	-0.00016	-0.00059	-0.00025	-0.0001	-9e-05	4
51973	-4e-05	-5e-05	-0.00014	-0.00016	-0.00059	-0.00025	-0.0001	-9e-05	4
51974	-4e-05	-5e-05	-0.00014	-0.00016	-0.00059	-0.00025	-0.0001	-9e-05	4
51978	-4e-05	-5e-05	-0.00014	-0.00016	-0.00059	-0.00025	-0.0001	-9e-05	4
51979	-4e-05	-5e-05	-0.00014	-0.00016	-0.00059	-0.00025	-0.0001	-9e-05	4
51980	-4e-05	-5e-05	-0.00014	-0.00016	-0.00059	-0.00025	-0.0001	-9e-05	4
51981	-4e-05	-5e-05	-0.00014	-0.00016	-0.00059	-0.00025	-0.0001	-9e-05	4
51982	-4e-05	-5e-05	-0.00014	-0.00016	-0.00059	-0.00025	-0.0001	-9e-05	4
51983	-4e-05	-5e-05	-0.00014	-0.00016	-0.00059	-0.00025	-0.0001	-9e-05	4
51984	-4e-05	-5e-05	-0.00014	-0.00016	-0.00059	-0.00025	-0.0001	-9e-05	4
51985	-4e-05	-5e-05	-0.00014	-0.00016	-0.00059	-0.00025	-0.0001	-9e-05	4
51986	-4e-05	-5e-05	-0.00014	-0.00016	-0.00059	-0.00025	-0.0001	-9e-05	4
51989	-4e-05	-5e-05	-0.00014	-0.00016	-0.00059	-0.00025	-0.0001	-9e-05	4
51990	-4e-05	-5e-05	-0.00014	-0.00016	-0.00059	-0.00025	-0.0001	-9e-05	4
51991	-7e-05	-0.00015	-0.00019	-0.00065	-0.00052	-0.0004	-0.00013	-6e-05	4
51992	-0.00015	-0.00017	-0.00015	0.00026	0.00026	-0.00033	-0.00023	-0.00019	4
51993	-0.00015	-0.00017	-0.00015	0.00026	0.00026	-0.00033	-0.00023	-0.00019	4
51994	-0.00015	-0.00017	-0.00015	0.00026	0.00026	-0.00033	-0.00023	-0.00019	4
51995	-0.00015	-0.00017	-0.00015	0.00026	0.00026	-0.00033	-0.00023	-0.00019	4
51996	-0.00015	-0.00017	-0.00015	0.00026	0.00026	-0.00033	-0.00023	-0.00019	4
51997	-0.00015	-0.00017	-0.00015	0.00026	0.00026	-0.00033	-0.00023	-0.00019	4
51998	-0.00015	-0.00017	-0.00015	0.00026	0.00026	-0.00033	-0.00023	-0.00019	4
51999	-0.00015	-0.00017	-0.00015	0.00026	0.00026	-0.00033	-0.00023	-0.00019	4
52000	-0.00015	-0.00017	-0.00015	0.00026	0.00026	-0.00033	-0.00023	-0.00019	4
52001	-0.00015	-0.00017	-0.00015	0.00026	0.00026	-0.00033	-0.00023	-0.00019	4
52002	-0.00015	-0.00017	-0.00015	0.00026	0.00026	-0.00033	-0.00023	-0.00019	4
52003	-0.00015	-0.00017	-0.00015	0.00026	0.00026	-0.00033	-0.00023	-0.00019	4
52004	-0.00015	-0.00017	-0.00015	0.00026	0.00026	-0.00033	-0.00023	-0.00019	4
52005	-0.00015	-0.00017	-0.00015	0.00026	0.00026	-0.00033	-0.00023	-0.00019	4
52006	-5e-05	-0.0001	-0.00017	-0.00011	0.0001	-0.00015	-9e-05	-4e-05	4
52007	-2e-05	-1e-05	-6e-05	-0.0002	-0.00022	8e-05	6e-05	-0.00012	4
52008	-2e-05	-1e-05	-6e-05	-0.0002	-0.00022	8e-05	6e-05	-0.00012	4
52009	-2e-05	-1e-05	-6e-05	-0.0002	-0.00022	8e-05	6e-05	-0.00012	4
52010	-2e-05	-1e-05	-6e-05	-0.0002	-0.00022	8e-05	6e-05	-0.00012	4
52011	-2e-05	-1e-05	-6e-05	-0.0002	-0.00022	8e-05	6e-05	-0.00012	4
52012	-2e-05	-1e-05	-6e-05	-0.0002	-0.00022	8e-05	6e-05	-0.00012	4
52013	-2e-05	-1e-05	-6e-05	-0.0002	-0.00022	8e-05	6e-05	-0.00012	4
52014	-2e-05	-1e-05	-6e-05	-0.0002	-0.00022	8e-05	6e-05	-0.00012	4
52015	-2e-05	-1e-05	-6e-05	-0.0002	-0.00022	8e-05	6e-05	-0.00012	4
52016	-2e-05	-1e-05	-6e-05	-0.0002	-0.00022	8e-05	6e-05	-0.00012	4
52017	-2e-05	-1e-05	-6e-05	-0.0002	-0.00022	8e-05	6e-05	-0.00012	4
52018	-2e-05	-1e-05	-6e-05	-0.0002	-0.00022	8e-05	6e-05	-0.00012	4
52019	-2e-05	-1e-05	-6e-05	-0.0002	-0.00022	8e-05	6e-05	-0.00012	4
52020	-2e-05	-1e-05	-6e-05	-0.0002	-0.00022	8e-05	6e-05	-0.00012	4
52021	-2e-05	-1e-05	-6e-05	-0.0002	-0.00022	8e-05	6e-05	-0.00012	4
52022	-2e-05	-1e-05	-6e-05	-0.0002	-0.00022	8e-05	6e-05	-0.00012	4
52023	-2e-05	-1e-05	-6e-05	-0.0002	-0.00022	8e-05	6e-05	-0.00012	4
52024	-2e-05	-1e-05	-6e-05	-0.0002	-0.00022	8e-05	6e-05	-0.00012	4
52025	-2e-05	-1e-05	-6e-05	-0.0002	-0.00022	8e-05	6e-05	-0.00012	4
52026	-2e-05	-1e-05	-6e-05	-0.0002	-0.00022	8e-05	6e-05	-0.00012	4
52027	-2e-05	-1e-05	-6e-05	-0.0002	-0.00022	8e-05	6e-05	-0.00012	4
52028	1e-05	0	0	0	0.001	6e-05	5e-05	0	4
52029	-0.00016	-0.00021	-0.00026	-0.00052	-0.00092	-0.00011	-0.00025	-0.00022	4
52030	-0.00016	-0.00021	-0.00026	-0.00052	-0.00092	-0.00011	-0.00025	-0.00022	4
52031	-0.00016	-0.00021	-0.00026	-0.00052	-0.00092	-0.00011	-0.00025	-0.00022	4
52032	-0.00016	-0.00021	-0.00026	-0.00052	-0.00092	-0.00011	-0.00025	-0.00022	4
52033	-0.00016	-0.00021	-0.00026	-0.00052	-0.00092	-0.00011	-0.00025	-0.00022	4
52034	-0.00016	-0.00021	-0.00026	-0.00052	-0.00092	-0.00011	-0.00025	-0.00022	4
52035	-0.00016	-0.00021	-0.00026	-0.00052	-0.00092	-0.00011	-0.00025	-0.00022	4
52036	-0.00016	-0.00021	-0.00026	-0.00052	-0.00092	-0.00011	-0.00025	-0.00022	4
52038	-0.00016	-0.00021	-0.00026	-0.00052	-0.00092	-0.00011	-0.00025	-0.00022	4
52039	-0.00016	-0.00021	-0.00026	-0.00052	-0.00092	-0.00011	-0.00025	-0.00022	4
52040	-0.00016	-0.00021	-0.00026	-0.00052	-0.00092	-0.00011	-0.00025	-0.00022	4
52041	-0.00016	-0.00021	-0.00026	-0.00052	-0.00092	-0.00011	-0.00025	-0.00022	4
52042	-0.00016	-0.00021	-0.00026	-0.00052	-0.00092	-0.00011	-0.00025	-0.00022	4
52043	-0.00016	-0.00021	-0.00026	-0.00052	-0.00092	-0.00011	-0.00025	-0.00022	4
52044	-0.00016	-0.00021	-0.00026	-0.00052	-0.00092	-0.00011	-0.00025	-0.00022	4
52045	-0.00016	-0.00021	-0.00026	-0.00052	-0.00092	-0.00011	-0.00025	-0.00022	4
52046	-0.00016	-0.00021	-0.00026	-0.00052	-0.00092	-0.00011	-0.00025	-0.00022	4
52047	-0.00016	-0.00021	-0.00026	-0.00052	-0.00092	-0.00011	-0.00025	-0.00022	4
52048	-0.00016	-0.00021	-0.00026	-0.00052	-0.00092	-0.00011	-0.00025	-0.00022	4
52049	-0.00016	-0.00021	-0.00026	-0.00052	-0.00092	-0.00011	-0.00025	-0.00022	4
52050	-0.00016	-0.00021	-0.00026	-0.00052	-0.00092	-0.00011	-0.00025	-0.00022	4
52051	-0.00016	-0.00021	-0.00026	-0.00052	-0.00092	-0.00011	-0.00025	-0.00022	4
52052	-0.00016	-0.00021	-0.00026	-0.00052	-0.00092	-0.00011	-0.00025	-0.00022	4
52053	-0.00016	-0.00021	-0.00026	-0.00052	-0.00092	-0.00011	-0.00025	-0.00022	4
52054	-0.00016	-0.00021	-0.00026	-0.00052	-0.00092	-0.00011	-0.00025	-0.00022	4
52055	-0.00016	-0.00021	-0.00026	-0.00052	-0.00092	-0.00011	-0.00025	-0.00022	4
52056	-0.00016	-0.00021	-0.00026	-0.00052	-0.00092	-0.00011	-0.00025	-0.00022	4
52057	-0.00016	-0.00021	-0.00026	-0.00052	-0.00092	-0.00011	-0.00025	-0.00022	4
52058	-0.00016	-0.00021	-0.00026	-0.00052	-0.00092	-0.00011	-0.00025	-0.00022	4
52059	-7e-05	-0.00011	-0.00018	-0.00019	-0.00111	-4e-05	-4e-05	-6e-05	4
52060	6e-05	0.0001	0.00014	0.00016	-0.00045	-4e-05	7e-05	6e-05	4
52061	6e-05	0.0001	0.00014	0.00016	-0.00045	-4e-05	7e-05	6e-05	4
52062	6e-05	0.0001	0.00014	0.00016	-0.00045	-4e-05	7e-05	6e-05	4
52063	6e-05	0.0001	0.00014	0.00016	-0.00045	-4e-05	7e-05	6e-05	4
52064	6e-05	0.0001	0.00014	0.00016	-0.00045	-4e-05	7e-05	6e-05	4
52065	6e-05	0.0001	0.00014	0.00016	-0.00045	-4e-05	7e-05	6e-05	4
52066	3e-05	4e-05	5e-05	0.00044	-0.00016	0.00028	3e-05	9e-05	4
52067	3e-05	4e-05	5e-05	0.00044	-0.00016	0.00028	3e-05	9e-05	4
52068	3e-05	4e-05	5e-05	0.00044	-0.00016	0.00028	3e-05	9e-05	4
52069	3e-05	4e-05	5e-05	0.00044	-0.00016	0.00028	3e-05	9e-05	4
52070	3e-05	4e-05	5e-05	0.00044	-0.00016	0.00028	3e-05	9e-05	4
52071	3e-05	4e-05	5e-05	0.00044	-0.00016	0.00028	3e-05	9e-05	4
52072	3e-05	4e-05	5e-05	0.00044	-0.00016	0.00028	3e-05	9e-05	4
52073	3e-05	4e-05	5e-05	0.00044	-0.00016	0.00028	3e-05	9e-05	4
52074	3e-05	4e-05	5e-05	0.00044	-0.00016	0.00028	3e-05	9e-05	4
52075	3e-05	4e-05	5e-05	0.00044	-0.00016	0.00028	3e-05	9e-05	4
52076	3e-05	4e-05	5e-05	0.00044	-0.00016	0.00028	3e-05	9e-05	4
52077	3e-05	4e-05	5e-05	0.00044	-0.00016	0.00028	3e-05	9e-05	4
