27062	1e-05	-1e-05	-2e-05	9e-05	0.00059	0	0.00013	0.00024	6
27063	1e-05	-1e-05	-2e-05	9e-05	0.00059	0	0.00013	0.00024	6
27064	1e-05	-1e-05	-2e-05	9e-05	0.00059	0	0.00013	0.00024	6
27065	1e-05	-1e-05	-2e-05	9e-05	0.00059	0	0.00013	0.00024	6
27066	1e-05	-1e-05	-2e-05	9e-05	0.00059	0	0.00013	0.00024	6
27067	1e-05	-1e-05	-2e-05	9e-05	0.00059	0	0.00013	0.00024	6
27068	1e-05	-1e-05	-2e-05	9e-05	0.00059	0	0.00013	0.00024	6
27069	1e-05	-1e-05	-2e-05	9e-05	0.00059	0	0.00013	0.00024	6
27070	1e-05	-1e-05	-2e-05	9e-05	0.00059	0	0.00013	0.00024	6
27071	1e-05	-1e-05	-2e-05	9e-05	0.00059	0	0.00013	0.00024	6
27072	0.0001	2e-05	-5e-05	-3e-05	-9e-05	0.00067	0.0001	0.00022	6
27073	0	-2e-05	3e-05	9e-05	0.00028	-0.00032	5e-05	0.00013	6
27074	-1e-05	-2e-05	-4e-05	-0.0001	-0.00025	-0.00033	0.00018	0.00018	6
27075	-1e-05	-2e-05	-4e-05	-0.0001	-0.00025	-0.00033	0.00018	0.00018	6
27076	-1e-05	-2e-05	-4e-05	-0.0001	-0.00025	-0.00033	0.00018	0.00018	6
27077	-1e-05	-2e-05	-4e-05	-0.0001	-0.00025	-0.00033	0.00018	0.00018	6
27078	-1e-05	-2e-05	-4e-05	-0.0001	-0.00025	-0.00033	0.00018	0.00018	6
27079	-1e-05	-2e-05	-4e-05	-0.0001	-0.00025	-0.00033	0.00018	0.00018	6
27080	-1e-05	-2e-05	-4e-05	-0.0001	-0.00025	-0.00033	0.00018	0.00018	6
27081	-1e-05	-2e-05	-4e-05	-0.0001	-0.00025	-0.00033	0.00018	0.00018	6
27082	-1e-05	-2e-05	-4e-05	-0.0001	-0.00025	-0.00033	0.00018	0.00018	6
27083	-1e-05	-2e-05	-4e-05	-0.0001	-0.00025	-0.00033	0.00018	0.00018	6
27084	-1e-05	-2e-05	-4e-05	-0.0001	-0.00025	-0.00033	0.00018	0.00018	6
27085	-1e-05	-2e-05	-4e-05	-0.0001	-0.00025	-0.00033	0.00018	0.00018	6
27086	-1e-05	-2e-05	-4e-05	-0.0001	-0.00025	-0.00033	0.00018	0.00018	6
27088	-1e-05	-2e-05	-4e-05	-0.0001	-0.00025	-0.00033	0.00018	0.00018	6
27089	-1e-05	-2e-05	-4e-05	-0.0001	-0.00025	-0.00033	0.00018	0.00018	6
27090	-1e-05	-2e-05	-4e-05	-0.0001	-0.00025	-0.00033	0.00018	0.00018	6
27091	-1e-05	-2e-05	-4e-05	-0.0001	-0.00025	-0.00033	0.00018	0.00018	6
27092	-1e-05	-2e-05	-4e-05	-0.0001	-0.00025	-0.00033	0.00018	0.00018	6
27093	-1e-05	-2e-05	-4e-05	-0.0001	-0.00025	-0.00033	0.00018	0.00018	6
27094	-1e-05	-2e-05	-4e-05	-0.0001	-0.00025	-0.00033	0.00018	0.00018	6
27095	-0.00013	0	-1e-05	0.00012	0.001	0.00021	0.00032	-0.00036	6
27096	-0.00013	-1e-05	-3e-05	-6e-05	-0.00032	-0.00035	-9e-05	-0.00048	6
27097	-0.00013	-1e-05	-3e-05	-6e-05	-0.00032	-0.00035	-9e-05	-0.00048	6
27098	-0.00013	-1e-05	-3e-05	-6e-05	-0.00032	-0.00035	-9e-05	-0.00048	6
27099	-0.00013	-1e-05	-3e-05	-6e-05	-0.00032	-0.00035	-9e-05	-0.00048	6
27100	-0.00013	-1e-05	-3e-05	-6e-05	-0.00032	-0.00035	-9e-05	-0.00048	6
27101	-0.00013	-1e-05	-3e-05	-6e-05	-0.00032	-0.00035	-9e-05	-0.00048	6
27102	-0.00013	-1e-05	-3e-05	-6e-05	-0.00032	-0.00035	-9e-05	-0.00048	6
27103	-0.00013	-1e-05	-3e-05	-6e-05	-0.00032	-0.00035	-9e-05	-0.00048	6
27104	-0.00013	-1e-05	-3e-05	-6e-05	-0.00032	-0.00035	-9e-05	-0.00048	6
27105	-0.00013	-1e-05	-3e-05	-6e-05	-0.00032	-0.00035	-9e-05	-0.00048	6
27106	-0.00013	-1e-05	-3e-05	-6e-05	-0.00032	-0.00035	-9e-05	-0.00048	6
27107	-0.00013	-1e-05	-3e-05	-6e-05	-0.00032	-0.00035	-9e-05	-0.00048	6
27108	-0.00013	-1e-05	-3e-05	-6e-05	-0.00032	-0.00035	-9e-05	-0.00048	6
27109	-0.00013	-1e-05	-3e-05	-6e-05	-0.00032	-0.00035	-9e-05	-0.00048	6
27110	-0.00013	-1e-05	-3e-05	-6e-05	-0.00032	-0.00035	-9e-05	-0.00048	6
27111	-0.00013	-1e-05	-3e-05	-6e-05	-0.00032	-0.00035	-9e-05	-0.00048	6
27112	-0.00013	-1e-05	-3e-05	-6e-05	-0.00032	-0.00035	-9e-05	-0.00048	6
27113	-0.00013	-1e-05	-3e-05	-6e-05	-0.00032	-0.00035	-9e-05	-0.00048	6
27114	-0.00013	-1e-05	-3e-05	-6e-05	-0.00032	-0.00035	-9e-05	-0.00048	6
27115	-0.00013	-1e-05	-3e-05	-6e-05	-0.00032	-0.00035	-9e-05	-0.00048	6
27116	-0.00013	-1e-05	-3e-05	-6e-05	-0.00032	-0.00035	-9e-05	-0.00048	6
27117	-0.00017	0	1e-05	-1e-05	-0.00013	-0.0003	-0.00059	-0.00039	6
27118	-0.00015	-5e-05	-3e-05	-4e-05	-9e-05	0.00016	-2e-05	-0.00067	6
27119	-4e-05	-7e-05	-4e-05	-5e-05	-0.00021	0.00044	1e-05	-0.00044	6
27120	-4e-05	-7e-05	-4e-05	-5e-05	-0.00021	0.00044	1e-05	-0.00044	6
27121	-4e-05	-7e-05	-4e-05	-5e-05	-0.00021	0.00044	1e-05	-0.00044	6
27122	-4e-05	-7e-05	-4e-05	-5e-05	-0.00021	0.00044	1e-05	-0.00044	6
27123	-4e-05	-7e-05	-4e-05	-5e-05	-0.00021	0.00044	1e-05	-0.00044	6
27124	-4e-05	-7e-05	-4e-05	-5e-05	-0.00021	0.00044	1e-05	-0.00044	6
27125	-4e-05	-7e-05	-4e-05	-5e-05	-0.00021	0.00044	1e-05	-0.00044	6
27126	-4e-05	-7e-05	-4e-05	-5e-05	-0.00021	0.00044	1e-05	-0.00044	6
27127	-4e-05	-7e-05	-4e-05	-5e-05	-0.00021	0.00044	1e-05	-0.00044	6
27128	-4e-05	-7e-05	-4e-05	-5e-05	-0.00021	0.00044	1e-05	-0.00044	6
27129	-4e-05	-7e-05	-4e-05	-5e-05	-0.00021	0.00044	1e-05	-0.00044	6
27130	-4e-05	-7e-05	-4e-05	-5e-05	-0.00021	0.00044	1e-05	-0.00044	6
27131	-4e-05	-7e-05	-4e-05	-5e-05	-0.00021	0.00044	1e-05	-0.00044	6
27132	-7e-05	-2e-05	-2e-05	-6e-05	-0.00054	-0.00053	0.00014	-0.00059	6
27133	-7e-05	-2e-05	-2e-05	-6e-05	-0.00054	-0.00053	0.00014	-0.00059	6
27134	6e-05	2e-05	0	-6e-05	-0.0005	-0.00079	0.00015	0.00064	6
27135	6e-05	2e-05	0	-6e-05	-0.0005	-0.00079	0.00015	0.00064	6
27136	6e-05	2e-05	0	-6e-05	-0.0005	-0.00079	0.00015	0.00064	6
27138	6e-05	2e-05	0	-6e-05	-0.0005	-0.00079	0.00015	0.00064	6
27140	6e-05	2e-05	0	-6e-05	-0.0005	-0.00079	0.00015	0.00064	6
27141	6e-05	2e-05	0	-6e-05	-0.0005	-0.00079	0.00015	0.00064	6
27142	6e-05	2e-05	0	-6e-05	-0.0005	-0.00079	0.00015	0.00064	6
27143	6e-05	2e-05	0	-6e-05	-0.0005	-0.00079	0.00015	0.00064	6
27144	6e-05	2e-05	0	-6e-05	-0.0005	-0.00079	0.00015	0.00064	6
27145	6e-05	2e-05	0	-6e-05	-0.0005	-0.00079	0.00015	0.00064	6
27146	6e-05	2e-05	0	-6e-05	-0.0005	-0.00079	0.00015	0.00064	6
27147	6e-05	2e-05	0	-6e-05	-0.0005	-0.00079	0.00015	0.00064	6
27148	6e-05	2e-05	0	-6e-05	-0.0005	-0.00079	0.00015	0.00064	6
27149	6e-05	2e-05	0	-6e-05	-0.0005	-0.00079	0.00015	0.00064	6
27150	6e-05	2e-05	0	-6e-05	-0.0005	-0.00079	0.00015	0.00064	6
27151	6e-05	2e-05	0	-6e-05	-0.0005	-0.00079	0.00015	0.00064	6
27152	6e-05	2e-05	0	-6e-05	-0.0005	-0.00079	0.00015	0.00064	6
27153	6e-05	2e-05	0	-6e-05	-0.0005	-0.00079	0.00015	0.00064	6
27154	6e-05	2e-05	0	-6e-05	-0.0005	-0.00079	0.00015	0.00064	6
27155	-7e-05	-5e-05	-3e-05	-0.0001	-0.00058	-0.0001	0.00026	0.00023	6
27156	0.00019	4e-05	4e-05	0.00015	0.00075	-0.00049	1e-05	0.00083	6
27157	0.00019	4e-05	4e-05	0.00015	0.00075	-0.00049	1e-05	0.00083	6
27158	0.00019	4e-05	4e-05	0.00015	0.00075	-0.00049	1e-05	0.00083	6
27159	0.00019	4e-05	4e-05	0.00015	0.00075	-0.00049	1e-05	0.00083	6
27160	0.00019	4e-05	4e-05	0.00015	0.00075	-0.00049	1e-05	0.00083	6
27161	0.00019	4e-05	4e-05	0.00015	0.00075	-0.00049	1e-05	0.00083	6
27162	0.00019	4e-05	4e-05	0.00015	0.00075	-0.00049	1e-05	0.00083	6
27163	0.00019	4e-05	4e-05	0.00015	0.00075	-0.00049	1e-05	0.00083	6
27164	0.00019	4e-05	4e-05	0.00015	0.00075	-0.00049	1e-05	0.00083	6
27165	0.00019	4e-05	4e-05	0.00015	0.00075	-0.00049	1e-05	0.00083	6
27166	0.00019	4e-05	4e-05	0.00015	0.00075	-0.00049	1e-05	0.00083	6
27167	0.00019	4e-05	4e-05	0.00015	0.00075	-0.00049	1e-05	0.00083	6
27168	0.00019	4e-05	4e-05	0.00015	0.00075	-0.00049	1e-05	0.00083	6
27169	0.00019	4e-05	4e-05	0.00015	0.00075	-0.00049	1e-05	0.00083	6
27170	0.00019	4e-05	4e-05	0.00015	0.00075	-0.00049	1e-05	0.00083	6
27171	0.00019	4e-05	4e-05	0.00015	0.00075	-0.00049	1e-05	0.00083	6
27172	0.00019	4e-05	4e-05	0.00015	0.00075	-0.00049	1e-05	0.00083	6
27173	0.00019	4e-05	4e-05	0.00015	0.00075	-0.00049	1e-05	0.00083	6
27174	0.00019	4e-05	4e-05	0.00015	0.00075	-0.00049	1e-05	0.00083	6
27175	0.00019	4e-05	4e-05	0.00015	0.00075	-0.00049	1e-05	0.00083	6
27176	0.00019	4e-05	4e-05	0.00015	0.00075	-0.00049	1e-05	0.00083	6
27177	4e-05	-3e-05	-6e-05	-8e-05	-0.00037	8e-05	0	0.00025	6
27178	4e-05	-3e-05	-6e-05	-8e-05	-0.00037	8e-05	0	0.00025	6
27179	-0.00014	-3e-05	-3e-05	0	0.00023	-6e-05	-2e-05	-0.00072	6
27180	-0.00014	-3e-05	-3e-05	0	0.00023	-6e-05	-2e-05	-0.00072	6
27181	-0.00014	-3e-05	-3e-05	0	0.00023	-6e-05	-2e-05	-0.00072	6
27182	-0.00014	-3e-05	-3e-05	0	0.00023	-6e-05	-2e-05	-0.00072	6
27183	-0.00014	-3e-05	-3e-05	0	0.00023	-6e-05	-2e-05	-0.00072	6
27184	-0.00014	-3e-05	-3e-05	0	0.00023	-6e-05	-2e-05	-0.00072	6
27185	-0.00014	-3e-05	-3e-05	0	0.00023	-6e-05	-2e-05	-0.00072	6
27186	-0.00014	-3e-05	-3e-05	0	0.00023	-6e-05	-2e-05	-0.00072	6
27188	-0.00014	-3e-05	-3e-05	0	0.00023	-6e-05	-2e-05	-0.00072	6
27189	-0.00014	-3e-05	-3e-05	0	0.00023	-6e-05	-2e-05	-0.00072	6
27190	-0.00014	-3e-05	-3e-05	0	0.00023	-6e-05	-2e-05	-0.00072	6
27191	-2e-05	-1e-05	1e-05	0	0.00027	-0.00038	-7e-05	-0.00015	6
27192	-2e-05	-1e-05	1e-05	0	0.00027	-0.00038	-7e-05	-0.00015	6
27193	-2e-05	-1e-05	1e-05	0	0.00027	-0.00038	-7e-05	-0.00015	6
27194	-2e-05	-1e-05	1e-05	0	0.00027	-0.00038	-7e-05	-0.00015	6
27195	-2e-05	-1e-05	1e-05	0	0.00027	-0.00038	-7e-05	-0.00015	6
27196	-2e-05	-1e-05	1e-05	0	0.00027	-0.00038	-7e-05	-0.00015	6
27197	-2e-05	-1e-05	1e-05	0	0.00027	-0.00038	-7e-05	-0.00015	6
27198	-2e-05	-2e-05	-4e-05	-0.00012	-0.00028	0.00067	-0.0002	-9e-05	6
27199	-2e-05	-2e-05	-4e-05	-0.00012	-0.00028	0.00067	-0.0002	-9e-05	6
27200	-2e-05	-2e-05	-4e-05	-0.00012	-0.00028	0.00067	-0.0002	-9e-05	6
27201	-2e-05	-2e-05	-4e-05	-0.00012	-0.00028	0.00067	-0.0002	-9e-05	6
27202	-2e-05	-2e-05	-4e-05	-0.00012	-0.00028	0.00067	-0.0002	-9e-05	6
27203	-2e-05	-2e-05	-4e-05	-0.00012	-0.00028	0.00067	-0.0002	-9e-05	6
27204	-2e-05	-2e-05	-4e-05	-0.00012	-0.00028	0.00067	-0.0002	-9e-05	6
27205	-2e-05	-2e-05	-4e-05	-0.00012	-0.00028	0.00067	-0.0002	-9e-05	6
27206	-2e-05	-2e-05	-4e-05	-0.00012	-0.00028	0.00067	-0.0002	-9e-05	6
27207	-2e-05	-2e-05	-4e-05	-0.00012	-0.00028	0.00067	-0.0002	-9e-05	6
27208	-2e-05	-2e-05	-4e-05	-0.00012	-0.00028	0.00067	-0.0002	-9e-05	6
27209	-2e-05	-2e-05	-4e-05	-0.00012	-0.00028	0.00067	-0.0002	-9e-05	6
27210	-2e-05	-2e-05	-4e-05	-0.00012	-0.00028	0.00067	-0.0002	-9e-05	6
27211	-2e-05	-2e-05	-4e-05	-0.00012	-0.00028	0.00067	-0.0002	-9e-05	6
27212	-2e-05	-2e-05	-4e-05	-0.00012	-0.00028	0.00067	-0.0002	-9e-05	6
27213	-2e-05	-2e-05	-4e-05	-0.00012	-0.00028	0.00067	-0.0002	-9e-05	6
27214	-6e-05	-3e-05	4e-05	0.00019	0.00088	-0.00023	0.00014	5e-05	6
27215	-3e-05	2e-05	3e-05	0.00012	0.00012	-4e-05	-0.0003	-0.00032	6
27216	-8e-05	-4e-05	-6e-05	-3e-05	-0.00013	0.00053	0.00026	0.00016	6
27217	-8e-05	-4e-05	-6e-05	-3e-05	-0.00013	0.00053	0.00026	0.00016	6
27218	-8e-05	-4e-05	-6e-05	-3e-05	-0.00013	0.00053	0.00026	0.00016	6
27219	-8e-05	-4e-05	-6e-05	-3e-05	-0.00013	0.00053	0.00026	0.00016	6
27220	-8e-05	-4e-05	-6e-05	-3e-05	-0.00013	0.00053	0.00026	0.00016	6
27221	-8e-05	-4e-05	-6e-05	-3e-05	-0.00013	0.00053	0.00026	0.00016	6
27222	-8e-05	-4e-05	-6e-05	-3e-05	-0.00013	0.00053	0.00026	0.00016	6
27223	-8e-05	-4e-05	-6e-05	-3e-05	-0.00013	0.00053	0.00026	0.00016	6
27224	-8e-05	-4e-05	-6e-05	-3e-05	-0.00013	0.00053	0.00026	0.00016	6
27225	-8e-05	-4e-05	-6e-05	-3e-05	-0.00013	0.00053	0.00026	0.00016	6
27226	-8e-05	-4e-05	-6e-05	-3e-05	-0.00013	0.00053	0.00026	0.00016	6
27227	-8e-05	-4e-05	-6e-05	-3e-05	-0.00013	0.00053	0.00026	0.00016	6
27228	-8e-05	-4e-05	-6e-05	-3e-05	-0.00013	0.00053	0.00026	0.00016	6
27229	-8e-05	-4e-05	-6e-05	-3e-05	-0.00013	0.00053	0.00026	0.00016	6
27230	-8e-05	-4e-05	-6e-05	-3e-05	-0.00013	0.00053	0.00026	0.00016	6
27231	-8e-05	-4e-05	-6e-05	-3e-05	-0.00013	0.00053	0.00026	0.00016	6
27232	-8e-05	-4e-05	-6e-05	-3e-05	-0.00013	0.00053	0.00026	0.00016	6
27233	-8e-05	-4e-05	-6e-05	-3e-05	-0.00013	0.00053	0.00026	0.00016	6
27234	-8e-05	-4e-05	-6e-05	-3e-05	-0.00013	0.00053	0.00026	0.00016	6
27235	-8e-05	-4e-05	-6e-05	-3e-05	-0.00013	0.00053	0.00026	0.00016	6
27236	-8e-05	-4e-05	-6e-05	-3e-05	-0.00013	0.00053	0.00026	0.00016	6
27239	6e-05	3e-05	3e-05	0	5e-05	0.00036	0.00027	0.00021	6
27240	6e-05	3e-05	3e-05	0	5e-05	0.00036	0.00027	0.00021	6
27241	6e-05	3e-05	3e-05	0	5e-05	0.00036	0.00027	0.00021	6
27242	6e-05	3e-05	3e-05	0	5e-05	0.00036	0.00027	0.00021	6
27243	6e-05	3e-05	3e-05	0	5e-05	0.00036	0.00027	0.00021	6
27244	6e-05	3e-05	3e-05	0	5e-05	0.00036	0.00027	0.00021	6
27245	6e-05	3e-05	3e-05	0	5e-05	0.00036	0.00027	0.00021	6
27246	6e-05	3e-05	3e-05	0	5e-05	0.00036	0.00027	0.00021	6
27247	6e-05	3e-05	3e-05	0	5e-05	0.00036	0.00027	0.00021	6
27248	6e-05	3e-05	3e-05	0	5e-05	0.00036	0.00027	0.00021	6
27249	6e-05	3e-05	3e-05	0	5e-05	0.00036	0.00027	0.00021	6
27250	6e-05	3e-05	3e-05	0	5e-05	0.00036	0.00027	0.00021	6
27251	1e-05	-2e-05	-5e-05	2e-05	-4e-05	-4e-05	0.00032	-0.00016	6
27252	1e-05	-2e-05	-5e-05	2e-05	-4e-05	-4e-05	0.00032	-0.00016	6
27253	1e-05	-2e-05	-5e-05	2e-05	-4e-05	-4e-05	0.00032	-0.00016	6
27254	1e-05	-2e-05	-5e-05	2e-05	-4e-05	-4e-05	0.00032	-0.00016	6
27255	1e-05	-2e-05	-5e-05	2e-05	-4e-05	-4e-05	0.00032	-0.00016	6
27256	1e-05	-2e-05	-5e-05	2e-05	-4e-05	-4e-05	0.00032	-0.00016	6
27257	1e-05	-2e-05	-5e-05	2e-05	-4e-05	-4e-05	0.00032	-0.00016	6
27258	-0.00014	-2e-05	1e-05	-3e-05	-0.00064	-0.00083	0.0001	-0.00066	6
27259	-0.00014	-2e-05	1e-05	-3e-05	-0.00064	-0.00083	0.0001	-0.00066	6
27260	-0.00014	-2e-05	1e-05	-3e-05	-0.00064	-0.00083	0.0001	-0.00066	6
27261	-0.00014	-2e-05	1e-05	-3e-05	-0.00064	-0.00083	0.0001	-0.00066	6
27262	-0.00014	-2e-05	1e-05	-3e-05	-0.00064	-0.00083	0.0001	-0.00066	6
27263	-0.00014	-2e-05	1e-05	-3e-05	-0.00064	-0.00083	0.0001	-0.00066	6
27264	-0.00014	-2e-05	1e-05	-3e-05	-0.00064	-0.00083	0.0001	-0.00066	6
27265	-0.00014	-2e-05	1e-05	-3e-05	-0.00064	-0.00083	0.0001	-0.00066	6
27266	-0.00014	-2e-05	1e-05	-3e-05	-0.00064	-0.00083	0.0001	-0.00066	6
27267	-0.00014	-2e-05	1e-05	-3e-05	-0.00064	-0.00083	0.0001	-0.00066	6
27268	-0.00014	-2e-05	1e-05	-3e-05	-0.00064	-0.00083	0.0001	-0.00066	6
27269	-0.00014	-2e-05	1e-05	-3e-05	-0.00064	-0.00083	0.0001	-0.00066	6
27270	-0.00014	-2e-05	1e-05	-3e-05	-0.00064	-0.00083	0.0001	-0.00066	6
27271	-0.00014	-2e-05	1e-05	-3e-05	-0.00064	-0.00083	0.0001	-0.00066	6
27272	-0.00014	-2e-05	1e-05	-3e-05	-0.00064	-0.00083	0.0001	-0.00066	6
27273	-0.00014	-2e-05	1e-05	-3e-05	-0.00064	-0.00083	0.0001	-0.00066	6
27274	-0.00021	-2e-05	0	9e-05	0.0003	0.00012	-9e-05	-0.00077	6
27275	-1e-05	-4e-05	-1e-05	-5e-05	-1e-05	1e-05	-0.00015	6e-05	6
27276	7e-05	2e-05	1e-05	-4e-05	0.00024	-0.00024	-0.00027	0.00032	6
27277	7e-05	2e-05	1e-05	-4e-05	0.00024	-0.00024	-0.00027	0.00032	6
27278	7e-05	2e-05	1e-05	-4e-05	0.00024	-0.00024	-0.00027	0.00032	6
27279	7e-05	2e-05	1e-05	-4e-05	0.00024	-0.00024	-0.00027	0.00032	6
27280	7e-05	2e-05	1e-05	-4e-05	0.00024	-0.00024	-0.00027	0.00032	6
27281	7e-05	2e-05	1e-05	-4e-05	0.00024	-0.00024	-0.00027	0.00032	6
27282	7e-05	2e-05	1e-05	-4e-05	0.00024	-0.00024	-0.00027	0.00032	6
27283	7e-05	2e-05	1e-05	-4e-05	0.00024	-0.00024	-0.00027	0.00032	6
27284	7e-05	2e-05	1e-05	-4e-05	0.00024	-0.00024	-0.00027	0.00032	6
27285	7e-05	2e-05	1e-05	-4e-05	0.00024	-0.00024	-0.00027	0.00032	6
27286	7e-05	2e-05	1e-05	-4e-05	0.00024	-0.00024	-0.00027	0.00032	6
27288	7e-05	2e-05	1e-05	-4e-05	0.00024	-0.00024	-0.00027	0.00032	6
27289	7e-05	2e-05	1e-05	-4e-05	0.00024	-0.00024	-0.00027	0.00032	6
27290	7e-05	2e-05	1e-05	-4e-05	0.00024	-0.00024	-0.00027	0.00032	6
27291	7e-05	2e-05	1e-05	-4e-05	0.00024	-0.00024	-0.00027	0.00032	6
27292	7e-05	2e-05	1e-05	-4e-05	0.00024	-0.00024	-0.00027	0.00032	6
27293	7e-05	2e-05	1e-05	-4e-05	0.00024	-0.00024	-0.00027	0.00032	6
27294	7e-05	2e-05	1e-05	-4e-05	0.00024	-0.00024	-0.00027	0.00032	6
27295	7e-05	2e-05	1e-05	-4e-05	0.00024	-0.00024	-0.00027	0.00032	6
27296	7e-05	2e-05	1e-05	-4e-05	0.00024	-0.00024	-0.00027	0.00032	6
27297	-1e-05	-4e-05	-3e-05	-2e-05	0.00012	-0.00057	5e-05	0.00068	6
27298	-4e-05	-1e-05	0	2e-05	-8e-05	0.00029	0.00014	-0.00031	6
27299	-7e-05	-3e-05	0	-1e-05	0.00016	0.00037	-9e-05	-0.00033	6
27300	-7e-05	-3e-05	0	-1e-05	0.00016	0.00037	-9e-05	-0.00033	6
27301	-7e-05	-3e-05	0	-1e-05	0.00016	0.00037	-9e-05	-0.00033	6
27302	-7e-05	-3e-05	0	-1e-05	0.00016	0.00037	-9e-05	-0.00033	6
27303	-7e-05	-3e-05	0	-1e-05	0.00016	0.00037	-9e-05	-0.00033	6
27304	-7e-05	-3e-05	0	-1e-05	0.00016	0.00037	-9e-05	-0.00033	6
27305	-7e-05	-3e-05	0	-1e-05	0.00016	0.00037	-9e-05	-0.00033	6
27306	-7e-05	-3e-05	0	-1e-05	0.00016	0.00037	-9e-05	-0.00033	6
27307	-7e-05	-3e-05	0	-1e-05	0.00016	0.00037	-9e-05	-0.00033	6
27308	-7e-05	-3e-05	0	-1e-05	0.00016	0.00037	-9e-05	-0.00033	6
27309	-7e-05	-3e-05	0	-1e-05	0.00016	0.00037	-9e-05	-0.00033	6
27310	-7e-05	-3e-05	0	-1e-05	0.00016	0.00037	-9e-05	-0.00033	6
27311	9e-05	2e-05	0	0.00011	0.00085	0.00054	0.00024	0.00052	6
27312	9e-05	2e-05	0	0.00011	0.00085	0.00054	0.00024	0.00052	6
27313	9e-05	2e-05	0	0.00011	0.00085	0.00054	0.00024	0.00052	6
27314	9e-05	2e-05	0	0.00011	0.00085	0.00054	0.00024	0.00052	6
27315	9e-05	2e-05	0	0.00011	0.00085	0.00054	0.00024	0.00052	6
27316	9e-05	2e-05	0	0.00011	0.00085	0.00054	0.00024	0.00052	6
27317	9e-05	2e-05	0	0.00011	0.00085	0.00054	0.00024	0.00052	6
27318	1e-05	-1e-05	-2e-05	-2e-05	-6e-05	-0.00025	0	-0.00028	6
27319	1e-05	-1e-05	-2e-05	-2e-05	-6e-05	-0.00025	0	-0.00028	6
27320	1e-05	-1e-05	-2e-05	-2e-05	-6e-05	-0.00025	0	-0.00028	6
27321	1e-05	-1e-05	-2e-05	-2e-05	-6e-05	-0.00025	0	-0.00028	6
27322	1e-05	-1e-05	-2e-05	-2e-05	-6e-05	-0.00025	0	-0.00028	6
27323	1e-05	-1e-05	-2e-05	-2e-05	-6e-05	-0.00025	0	-0.00028	6
27324	1e-05	-1e-05	-2e-05	-2e-05	-6e-05	-0.00025	0	-0.00028	6
27325	1e-05	-1e-05	-2e-05	-2e-05	-6e-05	-0.00025	0	-0.00028	6
27326	1e-05	-1e-05	-2e-05	-2e-05	-6e-05	-0.00025	0	-0.00028	6
27327	1e-05	-1e-05	-2e-05	-2e-05	-6e-05	-0.00025	0	-0.00028	6
27328	1e-05	-1e-05	-2e-05	-2e-05	-6e-05	-0.00025	0	-0.00028	6
27329	1e-05	-1e-05	-2e-05	-2e-05	-6e-05	-0.00025	0	-0.00028	6
27330	1e-05	-1e-05	-2e-05	-2e-05	-6e-05	-0.00025	0	-0.00028	6
27331	1e-05	-1e-05	-2e-05	-2e-05	-6e-05	-0.00025	0	-0.00028	6
27332	1e-05	-1e-05	-2e-05	-2e-05	-6e-05	-0.00025	0	-0.00028	6
27333	1e-05	-1e-05	-2e-05	-2e-05	-6e-05	-0.00025	0	-0.00028	6
27334	-0.00016	-4e-05	-4e-05	-7e-05	0.00017	0.00039	0.0001	-4e-05	6
27335	-0.00012	-1e-05	0	1e-05	-9e-05	0.00015	0.00024	-0.00039	6
27336	0.00019	-2e-05	1e-05	4e-05	0.00019	-7e-05	0.00045	0.00072	6
27338	0.00019	-2e-05	1e-05	4e-05	0.00019	-7e-05	0.00045	0.00072	6
27339	0.00019	-2e-05	1e-05	4e-05	0.00019	-7e-05	0.00045	0.00072	6
27340	0.00019	-2e-05	1e-05	4e-05	0.00019	-7e-05	0.00045	0.00072	6
27341	0.00019	-2e-05	1e-05	4e-05	0.00019	-7e-05	0.00045	0.00072	6
27342	0.00019	-2e-05	1e-05	4e-05	0.00019	-7e-05	0.00045	0.00072	6
27343	0.00019	-2e-05	1e-05	4e-05	0.00019	-7e-05	0.00045	0.00072	6
27344	0.00019	-2e-05	1e-05	4e-05	0.00019	-7e-05	0.00045	0.00072	6
27345	0.00019	-2e-05	1e-05	4e-05	0.00019	-7e-05	0.00045	0.00072	6
27346	0.00019	-2e-05	1e-05	4e-05	0.00019	-7e-05	0.00045	0.00072	6
27347	0.00019	-2e-05	1e-05	4e-05	0.00019	-7e-05	0.00045	0.00072	6
27348	0.00019	-2e-05	1e-05	4e-05	0.00019	-7e-05	0.00045	0.00072	6
27349	0.00019	-2e-05	1e-05	4e-05	0.00019	-7e-05	0.00045	0.00072	6
27350	0.00019	-2e-05	1e-05	4e-05	0.00019	-7e-05	0.00045	0.00072	6
27351	0.00019	-2e-05	1e-05	4e-05	0.00019	-7e-05	0.00045	0.00072	6
27352	0.00019	-2e-05	1e-05	4e-05	0.00019	-7e-05	0.00045	0.00072	6
27353	0.00019	-2e-05	1e-05	4e-05	0.00019	-7e-05	0.00045	0.00072	6
27354	0.00019	-2e-05	1e-05	4e-05	0.00019	-7e-05	0.00045	0.00072	6
27355	0.00019	-2e-05	1e-05	4e-05	0.00019	-7e-05	0.00045	0.00072	6
27356	0.00019	-2e-05	1e-05	4e-05	0.00019	-7e-05	0.00045	0.00072	6
27357	-7e-05	2e-05	-2e-05	-5e-05	-0.00012	0.0002	0.00014	-0.00068	6
27358	-7e-05	2e-05	-2e-05	-5e-05	-0.00012	0.0002	0.00014	-0.00068	6
27359	-0.00026	-4e-05	-6e-05	-6e-05	-0.00015	0.00068	-0.00027	-0.00036	6
27360	-0.00026	-4e-05	-6e-05	-6e-05	-0.00015	0.00068	-0.00027	-0.00036	6
27361	-0.00026	-4e-05	-6e-05	-6e-05	-0.00015	0.00068	-0.00027	-0.00036	6
27362	-0.00026	-4e-05	-6e-05	-6e-05	-0.00015	0.00068	-0.00027	-0.00036	6
27363	-0.00026	-4e-05	-6e-05	-6e-05	-0.00015	0.00068	-0.00027	-0.00036	6
27364	-0.00026	-4e-05	-6e-05	-6e-05	-0.00015	0.00068	-0.00027	-0.00036	6
27365	-0.00026	-4e-05	-6e-05	-6e-05	-0.00015	0.00068	-0.00027	-0.00036	6
27366	-0.00026	-4e-05	-6e-05	-6e-05	-0.00015	0.00068	-0.00027	-0.00036	6
27367	-0.00026	-4e-05	-6e-05	-6e-05	-0.00015	0.00068	-0.00027	-0.00036	6
27368	-0.00026	-4e-05	-6e-05	-6e-05	-0.00015	0.00068	-0.00027	-0.00036	6
27369	-0.00026	-4e-05	-6e-05	-6e-05	-0.00015	0.00068	-0.00027	-0.00036	6
27370	-0.00026	-4e-05	-6e-05	-6e-05	-0.00015	0.00068	-0.00027	-0.00036	6
27371	6e-05	-3e-05	0	1e-05	-0.0002	-6e-05	-6e-05	0.00041	6
27372	6e-05	-3e-05	0	1e-05	-0.0002	-6e-05	-6e-05	0.00041	6
27373	6e-05	-3e-05	0	1e-05	-0.0002	-6e-05	-6e-05	0.00041	6
27374	6e-05	-3e-05	0	1e-05	-0.0002	-6e-05	-6e-05	0.00041	6
27375	6e-05	-3e-05	0	1e-05	-0.0002	-6e-05	-6e-05	0.00041	6
27376	6e-05	-3e-05	0	1e-05	-0.0002	-6e-05	-6e-05	0.00041	6
27377	6e-05	-3e-05	0	1e-05	-0.0002	-6e-05	-6e-05	0.00041	6
27378	-6e-05	-1e-05	1e-05	0.00018	0.00082	7e-05	-0.00015	0.00021	6
27379	-6e-05	-1e-05	1e-05	0.00018	0.00082	7e-05	-0.00015	0.00021	6
27380	-6e-05	-1e-05	1e-05	0.00018	0.00082	7e-05	-0.00015	0.00021	6
27381	-6e-05	-1e-05	1e-05	0.00018	0.00082	7e-05	-0.00015	0.00021	6
27382	-6e-05	-1e-05	1e-05	0.00018	0.00082	7e-05	-0.00015	0.00021	6
27383	-6e-05	-1e-05	1e-05	0.00018	0.00082	7e-05	-0.00015	0.00021	6
27384	-6e-05	-1e-05	1e-05	0.00018	0.00082	7e-05	-0.00015	0.00021	6
27385	-6e-05	-1e-05	1e-05	0.00018	0.00082	7e-05	-0.00015	0.00021	6
27386	-6e-05	-1e-05	1e-05	0.00018	0.00082	7e-05	-0.00015	0.00021	6
27388	-6e-05	-1e-05	1e-05	0.00018	0.00082	7e-05	-0.00015	0.00021	6
27389	-6e-05	-1e-05	1e-05	0.00018	0.00082	7e-05	-0.00015	0.00021	6
27390	-6e-05	-1e-05	1e-05	0.00018	0.00082	7e-05	-0.00015	0.00021	6
27391	-6e-05	-1e-05	1e-05	0.00018	0.00082	7e-05	-0.00015	0.00021	6
27392	-6e-05	-1e-05	1e-05	0.00018	0.00082	7e-05	-0.00015	0.00021	6
27393	-6e-05	-1e-05	1e-05	0.00018	0.00082	7e-05	-0.00015	0.00021	6
27394	-6e-05	-1e-05	1e-05	0.00018	0.00082	7e-05	-0.00015	0.00021	6
27395	-6e-05	-1e-05	2e-05	-8e-05	-0.00027	-7e-05	-0.00029	-0.00061	6
27396	0.0001	0	0	-3e-05	0.00013	0.00057	-0.00019	4e-05	6
27397	0.0001	0	0	-3e-05	0.00013	0.00057	-0.00019	4e-05	6
27398	0.0001	0	0	-3e-05	0.00013	0.00057	-0.00019	4e-05	6
27399	0.0001	0	0	-3e-05	0.00013	0.00057	-0.00019	4e-05	6
27400	0.0001	0	0	-3e-05	0.00013	0.00057	-0.00019	4e-05	6
27401	0.0001	0	0	-3e-05	0.00013	0.00057	-0.00019	4e-05	6
27402	0.0001	0	0	-3e-05	0.00013	0.00057	-0.00019	4e-05	6
27403	0.0001	0	0	-3e-05	0.00013	0.00057	-0.00019	4e-05	6
27404	0.0001	0	0	-3e-05	0.00013	0.00057	-0.00019	4e-05	6
27405	0.0001	0	0	-3e-05	0.00013	0.00057	-0.00019	4e-05	6
27406	0.0001	0	0	-3e-05	0.00013	0.00057	-0.00019	4e-05	6
27407	0.0001	0	0	-3e-05	0.00013	0.00057	-0.00019	4e-05	6
27408	0.0001	0	0	-3e-05	0.00013	0.00057	-0.00019	4e-05	6
27409	0.0001	0	0	-3e-05	0.00013	0.00057	-0.00019	4e-05	6
27410	0.0001	0	0	-3e-05	0.00013	0.00057	-0.00019	4e-05	6
27411	0.0001	0	0	-3e-05	0.00013	0.00057	-0.00019	4e-05	6
27412	0.0001	0	0	-3e-05	0.00013	0.00057	-0.00019	4e-05	6
27413	0.0001	0	0	-3e-05	0.00013	0.00057	-0.00019	4e-05	6
27414	0.0001	0	0	-3e-05	0.00013	0.00057	-0.00019	4e-05	6
27415	0.0001	0	0	-3e-05	0.00013	0.00057	-0.00019	4e-05	6
27416	0.0001	0	0	-3e-05	0.00013	0.00057	-0.00019	4e-05	6
27417	0.00012	4e-05	0	1e-05	-0.0001	-0.00066	4e-05	6e-05	6
27418	0.00012	4e-05	0	1e-05	-0.0001	-0.00066	4e-05	6e-05	6
27419	-0.00024	-6e-05	-7e-05	-2e-05	0.00031	-0.00052	-5e-05	-0.00044	6
27420	-0.00024	-6e-05	-7e-05	-2e-05	0.00031	-0.00052	-5e-05	-0.00044	6
27421	-0.00024	-6e-05	-7e-05	-2e-05	0.00031	-0.00052	-5e-05	-0.00044	6
27422	-0.00024	-6e-05	-7e-05	-2e-05	0.00031	-0.00052	-5e-05	-0.00044	6
27423	-0.00024	-6e-05	-7e-05	-2e-05	0.00031	-0.00052	-5e-05	-0.00044	6
27424	-0.00024	-6e-05	-7e-05	-2e-05	0.00031	-0.00052	-5e-05	-0.00044	6
27425	-0.00024	-6e-05	-7e-05	-2e-05	0.00031	-0.00052	-5e-05	-0.00044	6
27426	-0.00024	-6e-05	-7e-05	-2e-05	0.00031	-0.00052	-5e-05	-0.00044	6
27427	-0.00024	-6e-05	-7e-05	-2e-05	0.00031	-0.00052	-5e-05	-0.00044	6
27428	-0.00024	-6e-05	-7e-05	-2e-05	0.00031	-0.00052	-5e-05	-0.00044	6
27429	-0.00024	-6e-05	-7e-05	-2e-05	0.00031	-0.00052	-5e-05	-0.00044	6
27430	-0.00024	-6e-05	-7e-05	-2e-05	0.00031	-0.00052	-5e-05	-0.00044	6
27431	0.00011	2e-05	1e-05	2e-05	-0.00024	0.0005	8e-05	0.00031	6
27432	0.00011	2e-05	1e-05	2e-05	-0.00024	0.0005	8e-05	0.00031	6
27433	0.00011	2e-05	1e-05	2e-05	-0.00024	0.0005	8e-05	0.00031	6
27434	0.00011	2e-05	1e-05	2e-05	-0.00024	0.0005	8e-05	0.00031	6
27435	0.00011	2e-05	1e-05	2e-05	-0.00024	0.0005	8e-05	0.00031	6
27436	0.00011	2e-05	1e-05	2e-05	-0.00024	0.0005	8e-05	0.00031	6
27438	-5e-05	0	0	-2e-05	-0.00017	-0.00029	-3e-05	-0.00019	6
27439	-5e-05	0	0	-2e-05	-0.00017	-0.00029	-3e-05	-0.00019	6
27440	-5e-05	0	0	-2e-05	-0.00017	-0.00029	-3e-05	-0.00019	6
27441	-5e-05	0	0	-2e-05	-0.00017	-0.00029	-3e-05	-0.00019	6
27442	-5e-05	0	0	-2e-05	-0.00017	-0.00029	-3e-05	-0.00019	6
27443	-5e-05	0	0	-2e-05	-0.00017	-0.00029	-3e-05	-0.00019	6
27444	-5e-05	0	0	-2e-05	-0.00017	-0.00029	-3e-05	-0.00019	6
27445	-5e-05	0	0	-2e-05	-0.00017	-0.00029	-3e-05	-0.00019	6
27446	-5e-05	0	0	-2e-05	-0.00017	-0.00029	-3e-05	-0.00019	6
27447	-5e-05	0	0	-2e-05	-0.00017	-0.00029	-3e-05	-0.00019	6
27448	-5e-05	0	0	-2e-05	-0.00017	-0.00029	-3e-05	-0.00019	6
27449	-5e-05	0	0	-2e-05	-0.00017	-0.00029	-3e-05	-0.00019	6
27450	-5e-05	0	0	-2e-05	-0.00017	-0.00029	-3e-05	-0.00019	6
27451	-5e-05	0	0	-2e-05	-0.00017	-0.00029	-3e-05	-0.00019	6
27452	-5e-05	0	0	-2e-05	-0.00017	-0.00029	-3e-05	-0.00019	6
27453	-5e-05	0	0	-2e-05	-0.00017	-0.00029	-3e-05	-0.00019	6
27454	-5e-05	0	0	-2e-05	-0.00017	-0.00029	-3e-05	-0.00019	6
27455	-8e-05	-4e-05	-6e-05	-3e-05	0.00019	0.00046	1e-05	0.0001	6
27456	0.00013	-3e-05	-2e-05	-9e-05	-0.00048	0	0.0001	0.00078	6
27457	0.00013	-3e-05	-2e-05	-9e-05	-0.00048	0	0.0001	0.00078	6
27458	0.00013	-3e-05	-2e-05	-9e-05	-0.00048	0	0.0001	0.00078	6
27459	0.00013	-3e-05	-2e-05	-9e-05	-0.00048	0	0.0001	0.00078	6
27460	0.00013	-3e-05	-2e-05	-9e-05	-0.00048	0	0.0001	0.00078	6
27461	0.00013	-3e-05	-2e-05	-9e-05	-0.00048	0	0.0001	0.00078	6
27462	0.00013	-3e-05	-2e-05	-9e-05	-0.00048	0	0.0001	0.00078	6
27463	0.00013	-3e-05	-2e-05	-9e-05	-0.00048	0	0.0001	0.00078	6
27464	0.00013	-3e-05	-2e-05	-9e-05	-0.00048	0	0.0001	0.00078	6
27465	0.00013	-3e-05	-2e-05	-9e-05	-0.00048	0	0.0001	0.00078	6
27466	0.00013	-3e-05	-2e-05	-9e-05	-0.00048	0	0.0001	0.00078	6
27467	0.00013	-3e-05	-2e-05	-9e-05	-0.00048	0	0.0001	0.00078	6
27468	0.00013	-3e-05	-2e-05	-9e-05	-0.00048	0	0.0001	0.00078	6
27469	0.00013	-3e-05	-2e-05	-9e-05	-0.00048	0	0.0001	0.00078	6
27470	0.00013	-3e-05	-2e-05	-9e-05	-0.00048	0	0.0001	0.00078	6
27471	0.00013	-3e-05	-2e-05	-9e-05	-0.00048	0	0.0001	0.00078	6
27472	0.00013	-3e-05	-2e-05	-9e-05	-0.00048	0	0.0001	0.00078	6
27473	0.00013	-3e-05	-2e-05	-9e-05	-0.00048	0	0.0001	0.00078	6
27474	0.00013	-3e-05	-2e-05	-9e-05	-0.00048	0	0.0001	0.00078	6
27475	0.00013	-3e-05	-2e-05	-9e-05	-0.00048	0	0.0001	0.00078	6
27476	0.00013	-3e-05	-2e-05	-9e-05	-0.00048	0	0.0001	0.00078	6
27477	-0.00011	-3e-05	2e-05	8e-05	0.00042	-7e-05	-1e-05	-4e-05	6
27478	-0.00011	-3e-05	2e-05	8e-05	0.00042	-7e-05	-1e-05	-4e-05	6
27479	0.00015	3e-05	3e-05	0	-0.00041	-0.00051	-0.00033	2e-05	6
27480	0.00015	3e-05	3e-05	0	-0.00041	-0.00051	-0.00033	2e-05	6
27481	0.00015	3e-05	3e-05	0	-0.00041	-0.00051	-0.00033	2e-05	6
27482	0.00015	3e-05	3e-05	0	-0.00041	-0.00051	-0.00033	2e-05	6
27483	0.00015	3e-05	3e-05	0	-0.00041	-0.00051	-0.00033	2e-05	6
27484	0.00015	3e-05	3e-05	0	-0.00041	-0.00051	-0.00033	2e-05	6
27485	0.00015	3e-05	3e-05	0	-0.00041	-0.00051	-0.00033	2e-05	6
27486	0.00015	3e-05	3e-05	0	-0.00041	-0.00051	-0.00033	2e-05	6
27488	0.00015	3e-05	3e-05	0	-0.00041	-0.00051	-0.00033	2e-05	6
27489	0.00015	3e-05	3e-05	0	-0.00041	-0.00051	-0.00033	2e-05	6
27490	0.00015	3e-05	3e-05	0	-0.00041	-0.00051	-0.00033	2e-05	6
27491	-0.00017	-6e-05	-7e-05	-0.00014	-0.00059	-0.00028	-0.00011	0.00013	6
27492	-0.00017	-6e-05	-7e-05	-0.00014	-0.00059	-0.00028	-0.00011	0.00013	6
27493	-0.00017	-6e-05	-7e-05	-0.00014	-0.00059	-0.00028	-0.00011	0.00013	6
27494	-0.00017	-6e-05	-7e-05	-0.00014	-0.00059	-0.00028	-0.00011	0.00013	6
27495	-0.00017	-6e-05	-7e-05	-0.00014	-0.00059	-0.00028	-0.00011	0.00013	6
27496	-0.00017	-6e-05	-7e-05	-0.00014	-0.00059	-0.00028	-0.00011	0.00013	6
27497	-0.00017	-6e-05	-7e-05	-0.00014	-0.00059	-0.00028	-0.00011	0.00013	6
27498	5e-05	1e-05	0	-5e-05	-0.00016	5e-05	8e-05	-5e-05	6
27499	5e-05	1e-05	0	-5e-05	-0.00016	5e-05	8e-05	-5e-05	6
27500	5e-05	1e-05	0	-5e-05	-0.00016	5e-05	8e-05	-5e-05	6
27501	5e-05	1e-05	0	-5e-05	-0.00016	5e-05	8e-05	-5e-05	6
27502	5e-05	1e-05	0	-5e-05	-0.00016	5e-05	8e-05	-5e-05	6
27503	5e-05	1e-05	0	-5e-05	-0.00016	5e-05	8e-05	-5e-05	6
27504	5e-05	1e-05	0	-5e-05	-0.00016	5e-05	8e-05	-5e-05	6
27505	5e-05	1e-05	0	-5e-05	-0.00016	5e-05	8e-05	-5e-05	6
27506	5e-05	1e-05	0	-5e-05	-0.00016	5e-05	8e-05	-5e-05	6
27507	5e-05	1e-05	0	-5e-05	-0.00016	5e-05	8e-05	-5e-05	6
27508	5e-05	1e-05	0	-5e-05	-0.00016	5e-05	8e-05	-5e-05	6
27509	5e-05	1e-05	0	-5e-05	-0.00016	5e-05	8e-05	-5e-05	6
27510	5e-05	1e-05	0	-5e-05	-0.00016	5e-05	8e-05	-5e-05	6
27511	5e-05	1e-05	0	-5e-05	-0.00016	5e-05	8e-05	-5e-05	6
27512	5e-05	1e-05	0	-5e-05	-0.00016	5e-05	8e-05	-5e-05	6
27513	5e-05	1e-05	0	-5e-05	-0.00016	5e-05	8e-05	-5e-05	6
27514	0.00012	-3e-05	-1e-05	5e-05	0	7e-05	1e-05	0.00038	6
27515	-0.00011	-2e-05	-6e-05	-0.0001	-3e-05	-0.00014	-9e-05	-0.0007	6
27516	0	1e-05	0	-1e-05	-0.00013	-0.0003	0.00018	-0.00021	6
27517	0	1e-05	0	-1e-05	-0.00013	-0.0003	0.00018	-0.00021	6
27518	0	1e-05	0	-1e-05	-0.00013	-0.0003	0.00018	-0.00021	6
27519	0	1e-05	0	-1e-05	-0.00013	-0.0003	0.00018	-0.00021	6
27520	0	1e-05	0	-1e-05	-0.00013	-0.0003	0.00018	-0.00021	6
27521	0	1e-05	0	-1e-05	-0.00013	-0.0003	0.00018	-0.00021	6
27522	0	1e-05	0	-1e-05	-0.00013	-0.0003	0.00018	-0.00021	6
27523	0	1e-05	0	-1e-05	-0.00013	-0.0003	0.00018	-0.00021	6
27524	0	1e-05	0	-1e-05	-0.00013	-0.0003	0.00018	-0.00021	6
27525	0	1e-05	0	-1e-05	-0.00013	-0.0003	0.00018	-0.00021	6
27526	0	1e-05	0	-1e-05	-0.00013	-0.0003	0.00018	-0.00021	6
27527	0	1e-05	0	-1e-05	-0.00013	-0.0003	0.00018	-0.00021	6
27528	0	1e-05	0	-1e-05	-0.00013	-0.0003	0.00018	-0.00021	6
27529	0	1e-05	0	-1e-05	-0.00013	-0.0003	0.00018	-0.00021	6
27530	0	1e-05	0	-1e-05	-0.00013	-0.0003	0.00018	-0.00021	6
27531	0	1e-05	0	-1e-05	-0.00013	-0.0003	0.00018	-0.00021	6
27532	0	1e-05	0	-1e-05	-0.00013	-0.0003	0.00018	-0.00021	6
27533	0	1e-05	0	-1e-05	-0.00013	-0.0003	0.00018	-0.00021	6
27534	0	1e-05	0	-1e-05	-0.00013	-0.0003	0.00018	-0.00021	6
27535	0	1e-05	0	-1e-05	-0.00013	-0.0003	0.00018	-0.00021	6
27536	0	1e-05	0	-1e-05	-0.00013	-0.0003	0.00018	-0.00021	6
27539	0.0002	2e-05	-1e-05	0	-0.00016	-0.00026	-0.00012	0.00069	6
27540	0.0002	2e-05	-1e-05	0	-0.00016	-0.00026	-0.00012	0.00069	6
27541	0.0002	2e-05	-1e-05	0	-0.00016	-0.00026	-0.00012	0.00069	6
27542	0.0002	2e-05	-1e-05	0	-0.00016	-0.00026	-0.00012	0.00069	6
27543	0.0002	2e-05	-1e-05	0	-0.00016	-0.00026	-0.00012	0.00069	6
27544	0.0002	2e-05	-1e-05	0	-0.00016	-0.00026	-0.00012	0.00069	6
27545	0.0002	2e-05	-1e-05	0	-0.00016	-0.00026	-0.00012	0.00069	6
27546	0.0002	2e-05	-1e-05	0	-0.00016	-0.00026	-0.00012	0.00069	6
27547	0.0002	2e-05	-1e-05	0	-0.00016	-0.00026	-0.00012	0.00069	6
27548	0.0002	2e-05	-1e-05	0	-0.00016	-0.00026	-0.00012	0.00069	6
27549	0.0002	2e-05	-1e-05	0	-0.00016	-0.00026	-0.00012	0.00069	6
27550	0.0002	2e-05	-1e-05	0	-0.00016	-0.00026	-0.00012	0.00069	6
27551	-1e-05	-1e-05	-2e-05	6e-05	0.0002	0.00068	-0.00011	6e-05	6
27552	-1e-05	-1e-05	-2e-05	6e-05	0.0002	0.00068	-0.00011	6e-05	6
27553	-1e-05	-1e-05	-2e-05	6e-05	0.0002	0.00068	-0.00011	6e-05	6
27554	-1e-05	-1e-05	-2e-05	6e-05	0.0002	0.00068	-0.00011	6e-05	6
27555	-1e-05	-1e-05	-2e-05	6e-05	0.0002	0.00068	-0.00011	6e-05	6
27556	-1e-05	-1e-05	-2e-05	6e-05	0.0002	0.00068	-0.00011	6e-05	6
27557	-1e-05	-1e-05	-2e-05	6e-05	0.0002	0.00068	-0.00011	6e-05	6
27558	-1e-05	-1e-05	-2e-05	6e-05	0.0002	0.00068	-0.00011	6e-05	6
27559	-1e-05	-1e-05	-2e-05	6e-05	0.0002	0.00068	-0.00011	6e-05	6
27560	-1e-05	1e-05	-3e-05	-8e-05	0	0.00019	-9e-05	-9e-05	6
27561	-1e-05	1e-05	-3e-05	-8e-05	0	0.00019	-9e-05	-9e-05	6
27562	-1e-05	1e-05	-3e-05	-8e-05	0	0.00019	-9e-05	-9e-05	6
27563	-1e-05	1e-05	-3e-05	-8e-05	0	0.00019	-9e-05	-9e-05	6
27564	-1e-05	1e-05	-3e-05	-8e-05	0	0.00019	-9e-05	-9e-05	6
27565	-1e-05	1e-05	-3e-05	-8e-05	0	0.00019	-9e-05	-9e-05	6
27566	-1e-05	1e-05	-3e-05	-8e-05	0	0.00019	-9e-05	-9e-05	6
27567	-1e-05	1e-05	-3e-05	-8e-05	0	0.00019	-9e-05	-9e-05	6
27568	-1e-05	1e-05	-3e-05	-8e-05	0	0.00019	-9e-05	-9e-05	6
27569	-1e-05	1e-05	-3e-05	-8e-05	0	0.00019	-9e-05	-9e-05	6
27570	-1e-05	1e-05	-3e-05	-8e-05	0	0.00019	-9e-05	-9e-05	6
27571	-1e-05	1e-05	-3e-05	-8e-05	0	0.00019	-9e-05	-9e-05	6
27572	-1e-05	1e-05	-3e-05	-8e-05	0	0.00019	-9e-05	-9e-05	6
27573	-1e-05	1e-05	-3e-05	-8e-05	0	0.00019	-9e-05	-9e-05	6
27574	-6e-05	-1e-05	-2e-05	-6e-05	-0.0004	-7e-05	-0.00022	-0.00058	6
27575	6e-05	2e-05	4e-05	0	-0.00057	-0.00063	6e-05	0.00032	6
27576	-0.00021	-1e-05	0	4e-05	0.00048	0.00033	-0.00015	-0.00079	6
27577	-0.00021	-1e-05	0	4e-05	0.00048	0.00033	-0.00015	-0.00079	6
27578	-0.00021	-1e-05	0	4e-05	0.00048	0.00033	-0.00015	-0.00079	6
27579	-0.00021	-1e-05	0	4e-05	0.00048	0.00033	-0.00015	-0.00079	6
27580	-0.00021	-1e-05	0	4e-05	0.00048	0.00033	-0.00015	-0.00079	6
27581	-0.00021	-1e-05	0	4e-05	0.00048	0.00033	-0.00015	-0.00079	6
27582	-0.00021	-1e-05	0	4e-05	0.00048	0.00033	-0.00015	-0.00079	6
27583	-0.00021	-1e-05	0	4e-05	0.00048	0.00033	-0.00015	-0.00079	6
27584	-0.00021	-1e-05	0	4e-05	0.00048	0.00033	-0.00015	-0.00079	6
27585	-0.00021	-1e-05	0	4e-05	0.00048	0.00033	-0.00015	-0.00079	6
27586	-0.00021	-1e-05	0	4e-05	0.00048	0.00033	-0.00015	-0.00079	6
27588	-0.00021	-1e-05	0	4e-05	0.00048	0.00033	-0.00015	-0.00079	6
27589	-0.00021	-1e-05	0	4e-05	0.00048	0.00033	-0.00015	-0.00079	6
27590	-0.00021	-1e-05	0	4e-05	0.00048	0.00033	-0.00015	-0.00079	6
27591	-0.00021	-1e-05	0	4e-05	0.00048	0.00033	-0.00015	-0.00079	6
27592	-0.00021	-1e-05	0	4e-05	0.00048	0.00033	-0.00015	-0.00079	6
27593	-0.00021	-1e-05	0	4e-05	0.00048	0.00033	-0.00015	-0.00079	6
27594	-0.00021	-1e-05	0	4e-05	0.00048	0.00033	-0.00015	-0.00079	6
27595	-0.00021	-1e-05	0	4e-05	0.00048	0.00033	-0.00015	-0.00079	6
27596	-0.00021	-1e-05	0	4e-05	0.00048	0.00033	-0.00015	-0.00079	6
27597	5e-05	2e-05	2e-05	7e-05	0.00034	0.00031	4e-05	-0.00011	6
27598	-0.00015	-1e-05	-3e-05	9e-05	0.00019	-0.00069	-0.00022	-0.0004	6
27599	-3e-05	-4e-05	-1e-05	-5e-05	-7e-05	0.00069	6e-05	0	6
27600	-3e-05	-4e-05	-1e-05	-5e-05	-7e-05	0.00069	6e-05	0	6
27601	-3e-05	-4e-05	-1e-05	-5e-05	-7e-05	0.00069	6e-05	0	6
27602	-3e-05	-4e-05	-1e-05	-5e-05	-7e-05	0.00069	6e-05	0	6
27603	-3e-05	-4e-05	-1e-05	-5e-05	-7e-05	0.00069	6e-05	0	6
27604	-3e-05	-4e-05	-1e-05	-5e-05	-7e-05	0.00069	6e-05	0	6
27605	-3e-05	-4e-05	-1e-05	-5e-05	-7e-05	0.00069	6e-05	0	6
27606	-3e-05	-4e-05	-1e-05	-5e-05	-7e-05	0.00069	6e-05	0	6
27607	-3e-05	-4e-05	-1e-05	-5e-05	-7e-05	0.00069	6e-05	0	6
27608	-3e-05	-4e-05	-1e-05	-5e-05	-7e-05	0.00069	6e-05	0	6
27609	-3e-05	-4e-05	-1e-05	-5e-05	-7e-05	0.00069	6e-05	0	6
27610	-3e-05	-4e-05	-1e-05	-5e-05	-7e-05	0.00069	6e-05	0	6
27611	-4e-05	-2e-05	-1e-05	1e-05	0.00041	-8e-05	8e-05	6e-05	6
27612	-4e-05	-2e-05	-1e-05	1e-05	0.00041	-8e-05	8e-05	6e-05	6
27613	-4e-05	-2e-05	-1e-05	1e-05	0.00041	-8e-05	8e-05	6e-05	6
27614	-4e-05	-2e-05	-1e-05	1e-05	0.00041	-8e-05	8e-05	6e-05	6
27615	-4e-05	-2e-05	-1e-05	1e-05	0.00041	-8e-05	8e-05	6e-05	6
27616	-4e-05	-2e-05	-1e-05	1e-05	0.00041	-8e-05	8e-05	6e-05	6
27617	-4e-05	-2e-05	-1e-05	1e-05	0.00041	-8e-05	8e-05	6e-05	6
27618	-4e-05	-2e-05	-1e-05	1e-05	0.00041	-8e-05	8e-05	6e-05	6
27619	-9e-05	-1e-05	-3e-05	-2e-05	0.00019	0.00053	0.00022	-0.00042	6
27620	-7e-05	-2e-05	3e-05	6e-05	-6e-05	-0.00064	-5e-05	0.00025	6
27621	-7e-05	-2e-05	3e-05	6e-05	-6e-05	-0.00064	-5e-05	0.00025	6
27622	-7e-05	-2e-05	3e-05	6e-05	-6e-05	-0.00064	-5e-05	0.00025	6
27623	-7e-05	-2e-05	3e-05	6e-05	-6e-05	-0.00064	-5e-05	0.00025	6
27624	-7e-05	-2e-05	3e-05	6e-05	-6e-05	-0.00064	-5e-05	0.00025	6
27625	-7e-05	-2e-05	3e-05	6e-05	-6e-05	-0.00064	-5e-05	0.00025	6
27626	-7e-05	-2e-05	3e-05	6e-05	-6e-05	-0.00064	-5e-05	0.00025	6
27627	-7e-05	-2e-05	3e-05	6e-05	-6e-05	-0.00064	-5e-05	0.00025	6
27628	-7e-05	-2e-05	3e-05	6e-05	-6e-05	-0.00064	-5e-05	0.00025	6
27629	-7e-05	-2e-05	3e-05	6e-05	-6e-05	-0.00064	-5e-05	0.00025	6
27630	-7e-05	-2e-05	3e-05	6e-05	-6e-05	-0.00064	-5e-05	0.00025	6
27631	-7e-05	-2e-05	3e-05	6e-05	-6e-05	-0.00064	-5e-05	0.00025	6
27632	-7e-05	-2e-05	3e-05	6e-05	-6e-05	-0.00064	-5e-05	0.00025	6
27633	-7e-05	-2e-05	3e-05	6e-05	-6e-05	-0.00064	-5e-05	0.00025	6
27634	-0.00011	-2e-05	-1e-05	0	-9e-05	-0.00043	-8e-05	-0.00041	6
27635	-0.00011	-2e-05	-1e-05	0	-9e-05	-0.00043	-8e-05	-0.00041	6
27636	9e-05	3e-05	-1e-05	1e-05	-0.00025	-0.00035	0.00012	-0.00068	6
27638	9e-05	3e-05	-1e-05	1e-05	-0.00025	-0.00035	0.00012	-0.00068	6
27639	9e-05	3e-05	-1e-05	1e-05	-0.00025	-0.00035	0.00012	-0.00068	6
27640	9e-05	3e-05	-1e-05	1e-05	-0.00025	-0.00035	0.00012	-0.00068	6
27641	9e-05	3e-05	-1e-05	1e-05	-0.00025	-0.00035	0.00012	-0.00068	6
27642	9e-05	3e-05	-1e-05	1e-05	-0.00025	-0.00035	0.00012	-0.00068	6
27643	9e-05	3e-05	-1e-05	1e-05	-0.00025	-0.00035	0.00012	-0.00068	6
27644	9e-05	3e-05	-1e-05	1e-05	-0.00025	-0.00035	0.00012	-0.00068	6
27645	9e-05	3e-05	-1e-05	1e-05	-0.00025	-0.00035	0.00012	-0.00068	6
27646	9e-05	3e-05	-1e-05	1e-05	-0.00025	-0.00035	0.00012	-0.00068	6
27647	9e-05	3e-05	-1e-05	1e-05	-0.00025	-0.00035	0.00012	-0.00068	6
27648	9e-05	3e-05	-1e-05	1e-05	-0.00025	-0.00035	0.00012	-0.00068	6
27649	9e-05	3e-05	-1e-05	1e-05	-0.00025	-0.00035	0.00012	-0.00068	6
27650	9e-05	3e-05	-1e-05	1e-05	-0.00025	-0.00035	0.00012	-0.00068	6
27651	9e-05	3e-05	-1e-05	1e-05	-0.00025	-0.00035	0.00012	-0.00068	6
27652	9e-05	3e-05	-1e-05	1e-05	-0.00025	-0.00035	0.00012	-0.00068	6
27653	9e-05	3e-05	-1e-05	1e-05	-0.00025	-0.00035	0.00012	-0.00068	6
27654	9e-05	3e-05	-1e-05	1e-05	-0.00025	-0.00035	0.00012	-0.00068	6
27655	9e-05	3e-05	-1e-05	1e-05	-0.00025	-0.00035	0.00012	-0.00068	6
27656	9e-05	3e-05	-1e-05	1e-05	-0.00025	-0.00035	0.00012	-0.00068	6
27657	-2e-05	-3e-05	-2e-05	-2e-05	1e-05	0.00033	-4e-05	8e-05	6
27658	-2e-05	-3e-05	-2e-05	-2e-05	1e-05	0.00033	-4e-05	8e-05	6
27659	-6e-05	1e-05	0	-3e-05	-0.00017	-0.00014	-4e-05	-0.00049	6
27660	-6e-05	1e-05	0	-3e-05	-0.00017	-0.00014	-4e-05	-0.00049	6
27661	-6e-05	1e-05	0	-3e-05	-0.00017	-0.00014	-4e-05	-0.00049	6
27662	-6e-05	1e-05	0	-3e-05	-0.00017	-0.00014	-4e-05	-0.00049	6
27663	-6e-05	1e-05	0	-3e-05	-0.00017	-0.00014	-4e-05	-0.00049	6
27664	-6e-05	1e-05	0	-3e-05	-0.00017	-0.00014	-4e-05	-0.00049	6
27665	-6e-05	1e-05	0	-3e-05	-0.00017	-0.00014	-4e-05	-0.00049	6
27666	-6e-05	1e-05	0	-3e-05	-0.00017	-0.00014	-4e-05	-0.00049	6
27667	-6e-05	1e-05	0	-3e-05	-0.00017	-0.00014	-4e-05	-0.00049	6
27668	-6e-05	1e-05	0	-3e-05	-0.00017	-0.00014	-4e-05	-0.00049	6
27669	-6e-05	1e-05	0	-3e-05	-0.00017	-0.00014	-4e-05	-0.00049	6
27670	7e-05	2e-05	0	4e-05	0.00028	0.00052	0.00034	0.00066	6
27671	8e-05	1e-05	1e-05	8e-05	0.00063	0.00065	-0.00015	-0.00016	6
27672	8e-05	1e-05	1e-05	8e-05	0.00063	0.00065	-0.00015	-0.00016	6
27673	8e-05	1e-05	1e-05	8e-05	0.00063	0.00065	-0.00015	-0.00016	6
27674	8e-05	1e-05	1e-05	8e-05	0.00063	0.00065	-0.00015	-0.00016	6
27675	8e-05	1e-05	1e-05	8e-05	0.00063	0.00065	-0.00015	-0.00016	6
27676	8e-05	1e-05	1e-05	8e-05	0.00063	0.00065	-0.00015	-0.00016	6
27677	8e-05	1e-05	1e-05	8e-05	0.00063	0.00065	-0.00015	-0.00016	6
27678	8e-05	1e-05	1e-05	8e-05	0.00063	0.00065	-0.00015	-0.00016	6
27679	8e-05	1e-05	1e-05	8e-05	0.00063	0.00065	-0.00015	-0.00016	6
27680	-7e-05	-6e-05	-5e-05	-0.0001	-0.00031	-0.00053	-8e-05	0.00052	6
27681	-7e-05	-6e-05	-5e-05	-0.0001	-0.00031	-0.00053	-8e-05	0.00052	6
27682	-7e-05	-6e-05	-5e-05	-0.0001	-0.00031	-0.00053	-8e-05	0.00052	6
27683	-7e-05	-6e-05	-5e-05	-0.0001	-0.00031	-0.00053	-8e-05	0.00052	6
27684	-7e-05	-6e-05	-5e-05	-0.0001	-0.00031	-0.00053	-8e-05	0.00052	6
27685	-7e-05	-6e-05	-5e-05	-0.0001	-0.00031	-0.00053	-8e-05	0.00052	6
27686	-7e-05	-6e-05	-5e-05	-0.0001	-0.00031	-0.00053	-8e-05	0.00052	6
27688	-7e-05	-6e-05	-5e-05	-0.0001	-0.00031	-0.00053	-8e-05	0.00052	6
27689	-7e-05	-6e-05	-5e-05	-0.0001	-0.00031	-0.00053	-8e-05	0.00052	6
27690	-7e-05	-6e-05	-5e-05	-0.0001	-0.00031	-0.00053	-8e-05	0.00052	6
27691	-7e-05	-6e-05	-5e-05	-0.0001	-0.00031	-0.00053	-8e-05	0.00052	6
27692	-7e-05	-6e-05	-5e-05	-0.0001	-0.00031	-0.00053	-8e-05	0.00052	6
27693	-7e-05	-6e-05	-5e-05	-0.0001	-0.00031	-0.00053	-8e-05	0.00052	6
27694	-2e-05	-1e-05	-3e-05	-5e-05	-0.00029	0.00018	0.0001	-0.00024	6
27695	-2e-05	1e-05	2e-05	-1e-05	0.00011	-0.00029	-2e-05	-9e-05	6
27696	-4e-05	-2e-05	-2e-05	-1e-05	-7e-05	0.00013	4e-05	-6e-05	6
27697	-4e-05	-2e-05	-2e-05	-1e-05	-7e-05	0.00013	4e-05	-6e-05	6
27698	-4e-05	-2e-05	-2e-05	-1e-05	-7e-05	0.00013	4e-05	-6e-05	6
27699	-4e-05	-2e-05	-2e-05	-1e-05	-7e-05	0.00013	4e-05	-6e-05	6
27700	-4e-05	-2e-05	-2e-05	-1e-05	-7e-05	0.00013	4e-05	-6e-05	6
27702	-4e-05	-2e-05	-2e-05	-1e-05	-7e-05	0.00013	4e-05	-6e-05	6
27703	-4e-05	-2e-05	-2e-05	-1e-05	-7e-05	0.00013	4e-05	-6e-05	6
27704	-4e-05	-2e-05	-2e-05	-1e-05	-7e-05	0.00013	4e-05	-6e-05	6
27705	-4e-05	-2e-05	-2e-05	-1e-05	-7e-05	0.00013	4e-05	-6e-05	6
27706	-4e-05	-2e-05	-2e-05	-1e-05	-7e-05	0.00013	4e-05	-6e-05	6
27707	-4e-05	-2e-05	-2e-05	-1e-05	-7e-05	0.00013	4e-05	-6e-05	6
27708	-4e-05	-2e-05	-2e-05	-1e-05	-7e-05	0.00013	4e-05	-6e-05	6
27709	-4e-05	-2e-05	-2e-05	-1e-05	-7e-05	0.00013	4e-05	-6e-05	6
27710	-4e-05	-2e-05	-2e-05	-1e-05	-7e-05	0.00013	4e-05	-6e-05	6
27711	-4e-05	-2e-05	-2e-05	-1e-05	-7e-05	0.00013	4e-05	-6e-05	6
27712	-4e-05	-2e-05	-2e-05	-1e-05	-7e-05	0.00013	4e-05	-6e-05	6
27713	-4e-05	-2e-05	-2e-05	-1e-05	-7e-05	0.00013	4e-05	-6e-05	6
27714	-4e-05	-2e-05	-2e-05	-1e-05	-7e-05	0.00013	4e-05	-6e-05	6
27715	-4e-05	-2e-05	-2e-05	-1e-05	-7e-05	0.00013	4e-05	-6e-05	6
27716	-4e-05	-2e-05	-2e-05	-1e-05	-7e-05	0.00013	4e-05	-6e-05	6
27717	-9e-05	-5e-05	-4e-05	-0.00015	-0.00103	0.00019	0.00015	0.00014	6
27718	-9e-05	-5e-05	-4e-05	-0.00015	-0.00103	0.00019	0.00015	0.00014	6
27719	2e-05	-4e-05	-9e-05	-0.00011	-0.00027	0.00028	-0.00021	0.00058	6
27720	2e-05	-4e-05	-9e-05	-0.00011	-0.00027	0.00028	-0.00021	0.00058	6
27721	2e-05	-4e-05	-9e-05	-0.00011	-0.00027	0.00028	-0.00021	0.00058	6
27722	2e-05	-4e-05	-9e-05	-0.00011	-0.00027	0.00028	-0.00021	0.00058	6
27723	2e-05	-4e-05	-9e-05	-0.00011	-0.00027	0.00028	-0.00021	0.00058	6
27724	2e-05	-4e-05	-9e-05	-0.00011	-0.00027	0.00028	-0.00021	0.00058	6
27725	2e-05	-4e-05	-9e-05	-0.00011	-0.00027	0.00028	-0.00021	0.00058	6
27726	2e-05	-4e-05	-9e-05	-0.00011	-0.00027	0.00028	-0.00021	0.00058	6
27727	2e-05	-4e-05	-9e-05	-0.00011	-0.00027	0.00028	-0.00021	0.00058	6
27728	2e-05	-4e-05	-9e-05	-0.00011	-0.00027	0.00028	-0.00021	0.00058	6
27729	2e-05	-4e-05	-9e-05	-0.00011	-0.00027	0.00028	-0.00021	0.00058	6
27730	2e-05	-4e-05	-9e-05	-0.00011	-0.00027	0.00028	-0.00021	0.00058	6
27731	0.00025	2e-05	5e-05	0.00015	0.00079	-9e-05	-7e-05	0.00098	6
27732	0.00025	2e-05	5e-05	0.00015	0.00079	-9e-05	-7e-05	0.00098	6
27733	0.00025	2e-05	5e-05	0.00015	0.00079	-9e-05	-7e-05	0.00098	6
27734	0.00025	2e-05	5e-05	0.00015	0.00079	-9e-05	-7e-05	0.00098	6
27735	0.00025	2e-05	5e-05	0.00015	0.00079	-9e-05	-7e-05	0.00098	6
27736	0.00025	2e-05	5e-05	0.00015	0.00079	-9e-05	-7e-05	0.00098	6
27738	0.00025	2e-05	5e-05	0.00015	0.00079	-9e-05	-7e-05	0.00098	6
27739	0.00025	2e-05	5e-05	0.00015	0.00079	-9e-05	-7e-05	0.00098	6
27740	0.00014	-2e-05	-4e-05	-2e-05	0.00026	0.00056	-9e-05	0.00041	6
27741	0.00014	-2e-05	-4e-05	-2e-05	0.00026	0.00056	-9e-05	0.00041	6
27742	0.00014	-2e-05	-4e-05	-2e-05	0.00026	0.00056	-9e-05	0.00041	6
27743	0.00014	-2e-05	-4e-05	-2e-05	0.00026	0.00056	-9e-05	0.00041	6
27744	0.00014	-2e-05	-4e-05	-2e-05	0.00026	0.00056	-9e-05	0.00041	6
27745	0.00014	-2e-05	-4e-05	-2e-05	0.00026	0.00056	-9e-05	0.00041	6
27746	0.00014	-2e-05	-4e-05	-2e-05	0.00026	0.00056	-9e-05	0.00041	6
27747	0.00014	-2e-05	-4e-05	-2e-05	0.00026	0.00056	-9e-05	0.00041	6
27748	0.00014	-2e-05	-4e-05	-2e-05	0.00026	0.00056	-9e-05	0.00041	6
27749	0.00014	-2e-05	-4e-05	-2e-05	0.00026	0.00056	-9e-05	0.00041	6
27750	0.00014	-2e-05	-4e-05	-2e-05	0.00026	0.00056	-9e-05	0.00041	6
27751	0.00014	-2e-05	-4e-05	-2e-05	0.00026	0.00056	-9e-05	0.00041	6
27752	0.00014	-2e-05	-4e-05	-2e-05	0.00026	0.00056	-9e-05	0.00041	6
27753	0.00014	-2e-05	-4e-05	-2e-05	0.00026	0.00056	-9e-05	0.00041	6
27754	-5e-05	1e-05	-3e-05	2e-05	0.00013	-0.00024	0.00016	7e-05	6
27755	7e-05	5e-05	0	-4e-05	-0.00032	-8e-05	0.00016	-0.00077	6
27756	-5e-05	0	-1e-05	4e-05	0.00043	0.00045	0.00027	-0.00029	6
27757	-5e-05	0	-1e-05	4e-05	0.00043	0.00045	0.00027	-0.00029	6
27758	-5e-05	0	-1e-05	4e-05	0.00043	0.00045	0.00027	-0.00029	6
27759	-5e-05	0	-1e-05	4e-05	0.00043	0.00045	0.00027	-0.00029	6
27760	-5e-05	0	-1e-05	4e-05	0.00043	0.00045	0.00027	-0.00029	6
27761	-5e-05	0	-1e-05	4e-05	0.00043	0.00045	0.00027	-0.00029	6
27762	-5e-05	0	-1e-05	4e-05	0.00043	0.00045	0.00027	-0.00029	6
27763	-5e-05	0	-1e-05	4e-05	0.00043	0.00045	0.00027	-0.00029	6
27764	-5e-05	0	-1e-05	4e-05	0.00043	0.00045	0.00027	-0.00029	6
27765	-5e-05	0	-1e-05	4e-05	0.00043	0.00045	0.00027	-0.00029	6
27766	-5e-05	0	-1e-05	4e-05	0.00043	0.00045	0.00027	-0.00029	6
27767	-5e-05	0	-1e-05	4e-05	0.00043	0.00045	0.00027	-0.00029	6
27768	-5e-05	0	-1e-05	4e-05	0.00043	0.00045	0.00027	-0.00029	6
27769	-5e-05	0	-1e-05	4e-05	0.00043	0.00045	0.00027	-0.00029	6
27770	-5e-05	0	-1e-05	4e-05	0.00043	0.00045	0.00027	-0.00029	6
27771	-5e-05	0	-1e-05	4e-05	0.00043	0.00045	0.00027	-0.00029	6
27772	-5e-05	0	-1e-05	4e-05	0.00043	0.00045	0.00027	-0.00029	6
27773	-5e-05	0	-1e-05	4e-05	0.00043	0.00045	0.00027	-0.00029	6
27774	-5e-05	0	-1e-05	4e-05	0.00043	0.00045	0.00027	-0.00029	6
27775	-5e-05	0	-1e-05	4e-05	0.00043	0.00045	0.00027	-0.00029	6
27776	-5e-05	0	-1e-05	4e-05	0.00043	0.00045	0.00027	-0.00029	6
27777	-6e-05	-1e-05	2e-05	5e-05	0.00023	0.00038	0.00067	-6e-05	6
27778	-6e-05	-1e-05	2e-05	5e-05	0.00023	0.00038	0.00067	-6e-05	6
27779	-6e-05	-3e-05	-1e-05	-4e-05	-0.00026	0	0.00012	-0.00028	6
27780	-6e-05	-3e-05	-1e-05	-4e-05	-0.00026	0	0.00012	-0.00028	6
27781	-6e-05	-3e-05	-1e-05	-4e-05	-0.00026	0	0.00012	-0.00028	6
27782	-6e-05	-3e-05	-1e-05	-4e-05	-0.00026	0	0.00012	-0.00028	6
27783	-6e-05	-3e-05	-1e-05	-4e-05	-0.00026	0	0.00012	-0.00028	6
27784	-6e-05	-3e-05	-1e-05	-4e-05	-0.00026	0	0.00012	-0.00028	6
27785	-6e-05	-3e-05	-1e-05	-4e-05	-0.00026	0	0.00012	-0.00028	6
27786	-6e-05	-3e-05	-1e-05	-4e-05	-0.00026	0	0.00012	-0.00028	6
27788	-6e-05	-3e-05	-1e-05	-4e-05	-0.00026	0	0.00012	-0.00028	6
27789	-6e-05	-3e-05	-1e-05	-4e-05	-0.00026	0	0.00012	-0.00028	6
27790	-6e-05	-3e-05	-1e-05	-4e-05	-0.00026	0	0.00012	-0.00028	6
27791	-9e-05	2e-05	2e-05	0.00011	0.00032	-0.00045	4e-05	-3e-05	6
27792	-9e-05	2e-05	2e-05	0.00011	0.00032	-0.00045	4e-05	-3e-05	6
27793	-9e-05	2e-05	2e-05	0.00011	0.00032	-0.00045	4e-05	-3e-05	6
27795	-9e-05	2e-05	2e-05	0.00011	0.00032	-0.00045	4e-05	-3e-05	6
27796	-9e-05	2e-05	2e-05	0.00011	0.00032	-0.00045	4e-05	-3e-05	6
27797	-9e-05	2e-05	2e-05	0.00011	0.00032	-0.00045	4e-05	-3e-05	6
27798	-9e-05	2e-05	2e-05	0.00011	0.00032	-0.00045	4e-05	-3e-05	6
27799	-9e-05	2e-05	2e-05	0.00011	0.00032	-0.00045	4e-05	-3e-05	6
27800	9e-05	-1e-05	-3e-05	-1e-05	0	-0.00014	-8e-05	0.00025	6
27801	9e-05	-1e-05	-3e-05	-1e-05	0	-0.00014	-8e-05	0.00025	6
27802	9e-05	-1e-05	-3e-05	-1e-05	0	-0.00014	-8e-05	0.00025	6
27803	9e-05	-1e-05	-3e-05	-1e-05	0	-0.00014	-8e-05	0.00025	6
27804	9e-05	-1e-05	-3e-05	-1e-05	0	-0.00014	-8e-05	0.00025	6
27805	9e-05	-1e-05	-3e-05	-1e-05	0	-0.00014	-8e-05	0.00025	6
27806	9e-05	-1e-05	-3e-05	-1e-05	0	-0.00014	-8e-05	0.00025	6
27807	9e-05	-1e-05	-3e-05	-1e-05	0	-0.00014	-8e-05	0.00025	6
27808	9e-05	-1e-05	-3e-05	-1e-05	0	-0.00014	-8e-05	0.00025	6
27809	9e-05	-1e-05	-3e-05	-1e-05	0	-0.00014	-8e-05	0.00025	6
27810	9e-05	-1e-05	-3e-05	-1e-05	0	-0.00014	-8e-05	0.00025	6
27811	9e-05	-1e-05	-3e-05	-1e-05	0	-0.00014	-8e-05	0.00025	6
27812	9e-05	-1e-05	-3e-05	-1e-05	0	-0.00014	-8e-05	0.00025	6
27813	9e-05	-1e-05	-3e-05	-1e-05	0	-0.00014	-8e-05	0.00025	6
27814	9e-05	-1e-05	0	3e-05	-1e-05	0.00092	0.0001	0.00067	6
27815	0	-2e-05	1e-05	-4e-05	0.00019	-0.00049	-0.00013	0.0001	6
27816	4e-05	1e-05	2e-05	5e-05	6e-05	-7e-05	-0.00012	0.00057	6
27817	4e-05	1e-05	2e-05	5e-05	6e-05	-7e-05	-0.00012	0.00057	6
27818	4e-05	1e-05	2e-05	5e-05	6e-05	-7e-05	-0.00012	0.00057	6
27819	4e-05	1e-05	2e-05	5e-05	6e-05	-7e-05	-0.00012	0.00057	6
27820	4e-05	1e-05	2e-05	5e-05	6e-05	-7e-05	-0.00012	0.00057	6
27821	4e-05	1e-05	2e-05	5e-05	6e-05	-7e-05	-0.00012	0.00057	6
27822	4e-05	1e-05	2e-05	5e-05	6e-05	-7e-05	-0.00012	0.00057	6
27823	4e-05	1e-05	2e-05	5e-05	6e-05	-7e-05	-0.00012	0.00057	6
27824	4e-05	1e-05	2e-05	5e-05	6e-05	-7e-05	-0.00012	0.00057	6
27825	4e-05	1e-05	2e-05	5e-05	6e-05	-7e-05	-0.00012	0.00057	6
27826	4e-05	1e-05	2e-05	5e-05	6e-05	-7e-05	-0.00012	0.00057	6
27827	4e-05	1e-05	2e-05	5e-05	6e-05	-7e-05	-0.00012	0.00057	6
27828	4e-05	1e-05	2e-05	5e-05	6e-05	-7e-05	-0.00012	0.00057	6
27829	4e-05	1e-05	2e-05	5e-05	6e-05	-7e-05	-0.00012	0.00057	6
27830	4e-05	1e-05	2e-05	5e-05	6e-05	-7e-05	-0.00012	0.00057	6
27831	4e-05	1e-05	2e-05	5e-05	6e-05	-7e-05	-0.00012	0.00057	6
27832	4e-05	1e-05	2e-05	5e-05	6e-05	-7e-05	-0.00012	0.00057	6
27833	4e-05	1e-05	2e-05	5e-05	6e-05	-7e-05	-0.00012	0.00057	6
27834	4e-05	1e-05	2e-05	5e-05	6e-05	-7e-05	-0.00012	0.00057	6
27835	4e-05	1e-05	2e-05	5e-05	6e-05	-7e-05	-0.00012	0.00057	6
27836	4e-05	1e-05	2e-05	5e-05	6e-05	-7e-05	-0.00012	0.00057	6
27839	-0.00014	-4e-05	-4e-05	-6e-05	-0.00028	-0.00033	-0.00016	-0.00022	6
27840	-0.00014	-4e-05	-4e-05	-6e-05	-0.00028	-0.00033	-0.00016	-0.00022	6
27841	-0.00014	-4e-05	-4e-05	-6e-05	-0.00028	-0.00033	-0.00016	-0.00022	6
27842	-0.00014	-4e-05	-4e-05	-6e-05	-0.00028	-0.00033	-0.00016	-0.00022	6
27843	-0.00014	-4e-05	-4e-05	-6e-05	-0.00028	-0.00033	-0.00016	-0.00022	6
27844	-0.00014	-4e-05	-4e-05	-6e-05	-0.00028	-0.00033	-0.00016	-0.00022	6
27845	-0.00014	-4e-05	-4e-05	-6e-05	-0.00028	-0.00033	-0.00016	-0.00022	6
27846	-0.00014	-4e-05	-4e-05	-6e-05	-0.00028	-0.00033	-0.00016	-0.00022	6
27847	-0.00014	-4e-05	-4e-05	-6e-05	-0.00028	-0.00033	-0.00016	-0.00022	6
27848	-0.00014	-4e-05	-4e-05	-6e-05	-0.00028	-0.00033	-0.00016	-0.00022	6
27849	-0.00014	-4e-05	-4e-05	-6e-05	-0.00028	-0.00033	-0.00016	-0.00022	6
27850	-0.00014	-4e-05	-4e-05	-6e-05	-0.00028	-0.00033	-0.00016	-0.00022	6
27851	9e-05	-4e-05	-2e-05	-6e-05	-0.00026	-0.00017	-0.00019	0.00068	6
27852	9e-05	-4e-05	-2e-05	-6e-05	-0.00026	-0.00017	-0.00019	0.00068	6
27853	9e-05	-4e-05	-2e-05	-6e-05	-0.00026	-0.00017	-0.00019	0.00068	6
27854	9e-05	-4e-05	-2e-05	-6e-05	-0.00026	-0.00017	-0.00019	0.00068	6
27855	9e-05	-4e-05	-2e-05	-6e-05	-0.00026	-0.00017	-0.00019	0.00068	6
27856	9e-05	-4e-05	-2e-05	-6e-05	-0.00026	-0.00017	-0.00019	0.00068	6
27857	9e-05	-4e-05	-2e-05	-6e-05	-0.00026	-0.00017	-0.00019	0.00068	6
27858	9e-05	-4e-05	-2e-05	-6e-05	-0.00026	-0.00017	-0.00019	0.00068	6
27859	-2e-05	-2e-05	-2e-05	-4e-05	-5e-05	-0.00014	2e-05	-0.00016	6
27860	-2e-05	-2e-05	-2e-05	-4e-05	-5e-05	-0.00014	2e-05	-0.00016	6
27861	-2e-05	-2e-05	-2e-05	-4e-05	-5e-05	-0.00014	2e-05	-0.00016	6
27862	-2e-05	-2e-05	-2e-05	-4e-05	-5e-05	-0.00014	2e-05	-0.00016	6
27863	-2e-05	-2e-05	-2e-05	-4e-05	-5e-05	-0.00014	2e-05	-0.00016	6
27864	-2e-05	-2e-05	-2e-05	-4e-05	-5e-05	-0.00014	2e-05	-0.00016	6
27865	-2e-05	-2e-05	-2e-05	-4e-05	-5e-05	-0.00014	2e-05	-0.00016	6
27866	-2e-05	-2e-05	-2e-05	-4e-05	-5e-05	-0.00014	2e-05	-0.00016	6
27867	-2e-05	-2e-05	-2e-05	-4e-05	-5e-05	-0.00014	2e-05	-0.00016	6
27868	-2e-05	-2e-05	-2e-05	-4e-05	-5e-05	-0.00014	2e-05	-0.00016	6
27869	-2e-05	-2e-05	-2e-05	-4e-05	-5e-05	-0.00014	2e-05	-0.00016	6
27870	-2e-05	-2e-05	-2e-05	-4e-05	-5e-05	-0.00014	2e-05	-0.00016	6
27871	-2e-05	-2e-05	-2e-05	-4e-05	-5e-05	-0.00014	2e-05	-0.00016	6
27872	-2e-05	-2e-05	-2e-05	-4e-05	-5e-05	-0.00014	2e-05	-0.00016	6
27873	-2e-05	-2e-05	-2e-05	-4e-05	-5e-05	-0.00014	2e-05	-0.00016	6
27874	-0.0001	0	-1e-05	-2e-05	9e-05	0.00035	-6e-05	-0.00023	6
27875	3e-05	-2e-05	-1e-05	7e-05	0.00047	-0.00052	5e-05	0.00039	6
27876	-3e-05	1e-05	2e-05	-2e-05	-0.00014	0.00011	8e-05	-1e-05	6
27877	-3e-05	1e-05	2e-05	-2e-05	-0.00014	0.00011	8e-05	-1e-05	6
27878	-3e-05	1e-05	2e-05	-2e-05	-0.00014	0.00011	8e-05	-1e-05	6
27879	-3e-05	1e-05	2e-05	-2e-05	-0.00014	0.00011	8e-05	-1e-05	6
27880	-3e-05	1e-05	2e-05	-2e-05	-0.00014	0.00011	8e-05	-1e-05	6
27881	-3e-05	1e-05	2e-05	-2e-05	-0.00014	0.00011	8e-05	-1e-05	6
27882	-3e-05	1e-05	2e-05	-2e-05	-0.00014	0.00011	8e-05	-1e-05	6
27883	-3e-05	1e-05	2e-05	-2e-05	-0.00014	0.00011	8e-05	-1e-05	6
27884	-3e-05	1e-05	2e-05	-2e-05	-0.00014	0.00011	8e-05	-1e-05	6
27885	-3e-05	1e-05	2e-05	-2e-05	-0.00014	0.00011	8e-05	-1e-05	6
27886	-3e-05	1e-05	2e-05	-2e-05	-0.00014	0.00011	8e-05	-1e-05	6
27888	-3e-05	1e-05	2e-05	-2e-05	-0.00014	0.00011	8e-05	-1e-05	6
27889	-3e-05	1e-05	2e-05	-2e-05	-0.00014	0.00011	8e-05	-1e-05	6
27890	-3e-05	1e-05	2e-05	-2e-05	-0.00014	0.00011	8e-05	-1e-05	6
27891	-3e-05	1e-05	2e-05	-2e-05	-0.00014	0.00011	8e-05	-1e-05	6
27892	-3e-05	1e-05	2e-05	-2e-05	-0.00014	0.00011	8e-05	-1e-05	6
27893	-3e-05	1e-05	2e-05	-2e-05	-0.00014	0.00011	8e-05	-1e-05	6
27894	-3e-05	1e-05	2e-05	-2e-05	-0.00014	0.00011	8e-05	-1e-05	6
27895	-3e-05	1e-05	2e-05	-2e-05	-0.00014	0.00011	8e-05	-1e-05	6
27896	-3e-05	1e-05	2e-05	-2e-05	-0.00014	0.00011	8e-05	-1e-05	6
27897	0.00011	-2e-05	-4e-05	-0.00011	-0.00055	0.00022	-0.00019	0.00052	6
27898	0.00011	-2e-05	-4e-05	-0.00011	-0.00055	0.00022	-0.00019	0.00052	6
27899	3e-05	2e-05	3e-05	0.00015	0.00056	-0.00054	8e-05	-0.0001	6
27900	3e-05	2e-05	3e-05	0.00015	0.00056	-0.00054	8e-05	-0.0001	6
27901	3e-05	2e-05	3e-05	0.00015	0.00056	-0.00054	8e-05	-0.0001	6
27902	3e-05	2e-05	3e-05	0.00015	0.00056	-0.00054	8e-05	-0.0001	6
27903	3e-05	2e-05	3e-05	0.00015	0.00056	-0.00054	8e-05	-0.0001	6
27904	3e-05	2e-05	3e-05	0.00015	0.00056	-0.00054	8e-05	-0.0001	6
27905	3e-05	2e-05	3e-05	0.00015	0.00056	-0.00054	8e-05	-0.0001	6
27906	3e-05	2e-05	3e-05	0.00015	0.00056	-0.00054	8e-05	-0.0001	6
27907	3e-05	2e-05	3e-05	0.00015	0.00056	-0.00054	8e-05	-0.0001	6
27908	3e-05	2e-05	3e-05	0.00015	0.00056	-0.00054	8e-05	-0.0001	6
27909	3e-05	2e-05	3e-05	0.00015	0.00056	-0.00054	8e-05	-0.0001	6
27910	3e-05	2e-05	3e-05	0.00015	0.00056	-0.00054	8e-05	-0.0001	6
27911	-0.00011	-1e-05	-3e-05	-7e-05	-0.00037	0.00056	-9e-05	-0.00063	6
27912	-0.00011	-1e-05	-3e-05	-7e-05	-0.00037	0.00056	-9e-05	-0.00063	6
27913	-0.00011	-1e-05	-3e-05	-7e-05	-0.00037	0.00056	-9e-05	-0.00063	6
27914	-0.00011	-1e-05	-3e-05	-7e-05	-0.00037	0.00056	-9e-05	-0.00063	6
27915	-0.00011	-1e-05	-3e-05	-7e-05	-0.00037	0.00056	-9e-05	-0.00063	6
27916	-0.00011	-1e-05	-3e-05	-7e-05	-0.00037	0.00056	-9e-05	-0.00063	6
27917	-0.00011	-1e-05	-3e-05	-7e-05	-0.00037	0.00056	-9e-05	-0.00063	6
27918	-0.00011	-1e-05	-3e-05	-7e-05	-0.00037	0.00056	-9e-05	-0.00063	6
27919	-0.00011	-1e-05	-3e-05	-7e-05	-0.00037	0.00056	-9e-05	-0.00063	6
27920	-9e-05	-1e-05	-3e-05	-4e-05	0	0.00025	-5e-05	-0.00048	6
27921	-9e-05	-1e-05	-3e-05	-4e-05	0	0.00025	-5e-05	-0.00048	6
27922	-9e-05	-1e-05	-3e-05	-4e-05	0	0.00025	-5e-05	-0.00048	6
27923	-9e-05	-1e-05	-3e-05	-4e-05	0	0.00025	-5e-05	-0.00048	6
27924	-9e-05	-1e-05	-3e-05	-4e-05	0	0.00025	-5e-05	-0.00048	6
27925	-9e-05	-1e-05	-3e-05	-4e-05	0	0.00025	-5e-05	-0.00048	6
27926	-9e-05	-1e-05	-3e-05	-4e-05	0	0.00025	-5e-05	-0.00048	6
27927	-9e-05	-1e-05	-3e-05	-4e-05	0	0.00025	-5e-05	-0.00048	6
27928	-9e-05	-1e-05	-3e-05	-4e-05	0	0.00025	-5e-05	-0.00048	6
27929	-9e-05	-1e-05	-3e-05	-4e-05	0	0.00025	-5e-05	-0.00048	6
27930	-9e-05	-1e-05	-3e-05	-4e-05	0	0.00025	-5e-05	-0.00048	6
27931	-9e-05	-1e-05	-3e-05	-4e-05	0	0.00025	-5e-05	-0.00048	6
27932	-9e-05	-1e-05	-3e-05	-4e-05	0	0.00025	-5e-05	-0.00048	6
27933	-9e-05	-1e-05	-3e-05	-4e-05	0	0.00025	-5e-05	-0.00048	6
27934	-4e-05	1e-05	1e-05	-2e-05	-0.00013	-0.0003	-0.00026	1e-05	6
27935	-4e-05	1e-05	1e-05	-2e-05	-0.00013	-0.0003	-0.00026	1e-05	6
27936	-6e-05	-3e-05	-5e-05	2e-05	0.00042	0.00014	5e-05	-5e-05	6
27938	-6e-05	-3e-05	-5e-05	2e-05	0.00042	0.00014	5e-05	-5e-05	6
27939	-6e-05	-3e-05	-5e-05	2e-05	0.00042	0.00014	5e-05	-5e-05	6
27940	-6e-05	-3e-05	-5e-05	2e-05	0.00042	0.00014	5e-05	-5e-05	6
27941	-6e-05	-3e-05	-5e-05	2e-05	0.00042	0.00014	5e-05	-5e-05	6
27942	-6e-05	-3e-05	-5e-05	2e-05	0.00042	0.00014	5e-05	-5e-05	6
27943	-6e-05	-3e-05	-5e-05	2e-05	0.00042	0.00014	5e-05	-5e-05	6
27944	-6e-05	-3e-05	-5e-05	2e-05	0.00042	0.00014	5e-05	-5e-05	6
27945	-6e-05	-3e-05	-5e-05	2e-05	0.00042	0.00014	5e-05	-5e-05	6
27946	-6e-05	-3e-05	-5e-05	2e-05	0.00042	0.00014	5e-05	-5e-05	6
27947	-6e-05	-3e-05	-5e-05	2e-05	0.00042	0.00014	5e-05	-5e-05	6
27948	-6e-05	-3e-05	-5e-05	2e-05	0.00042	0.00014	5e-05	-5e-05	6
27949	-6e-05	-3e-05	-5e-05	2e-05	0.00042	0.00014	5e-05	-5e-05	6
27950	-6e-05	-3e-05	-5e-05	2e-05	0.00042	0.00014	5e-05	-5e-05	6
27951	-6e-05	-3e-05	-5e-05	2e-05	0.00042	0.00014	5e-05	-5e-05	6
27952	-6e-05	-3e-05	-5e-05	2e-05	0.00042	0.00014	5e-05	-5e-05	6
27953	-6e-05	-3e-05	-5e-05	2e-05	0.00042	0.00014	5e-05	-5e-05	6
27954	-6e-05	-3e-05	-5e-05	2e-05	0.00042	0.00014	5e-05	-5e-05	6
27955	-6e-05	-3e-05	-5e-05	2e-05	0.00042	0.00014	5e-05	-5e-05	6
27956	-6e-05	-3e-05	-5e-05	2e-05	0.00042	0.00014	5e-05	-5e-05	6
27957	2e-05	2e-05	3e-05	9e-05	0.0003	0	2e-05	-4e-05	6
27958	2e-05	2e-05	3e-05	9e-05	0.0003	0	2e-05	-4e-05	6
27959	-5e-05	-3e-05	-2e-05	-5e-05	-0.00051	-0.00031	-0.00012	3e-05	6
27960	-5e-05	-3e-05	-2e-05	-5e-05	-0.00051	-0.00031	-0.00012	3e-05	6
27961	-5e-05	-3e-05	-2e-05	-5e-05	-0.00051	-0.00031	-0.00012	3e-05	6
27962	-5e-05	-3e-05	-2e-05	-5e-05	-0.00051	-0.00031	-0.00012	3e-05	6
27963	-5e-05	-3e-05	-2e-05	-5e-05	-0.00051	-0.00031	-0.00012	3e-05	6
27964	-5e-05	-3e-05	-2e-05	-5e-05	-0.00051	-0.00031	-0.00012	3e-05	6
27965	-5e-05	-3e-05	-2e-05	-5e-05	-0.00051	-0.00031	-0.00012	3e-05	6
27966	-5e-05	-3e-05	-2e-05	-5e-05	-0.00051	-0.00031	-0.00012	3e-05	6
27967	-5e-05	-3e-05	-2e-05	-5e-05	-0.00051	-0.00031	-0.00012	3e-05	6
27968	-5e-05	-3e-05	-2e-05	-5e-05	-0.00051	-0.00031	-0.00012	3e-05	6
27969	-5e-05	-3e-05	-2e-05	-5e-05	-0.00051	-0.00031	-0.00012	3e-05	6
27970	-5e-05	-3e-05	-2e-05	-5e-05	-0.00051	-0.00031	-0.00012	3e-05	6
27971	-5e-05	-3e-05	-2e-05	-5e-05	-0.00051	-0.00031	-0.00012	3e-05	6
27972	-5e-05	-3e-05	-2e-05	-5e-05	-0.00051	-0.00031	-0.00012	3e-05	6
27973	-5e-05	-3e-05	-2e-05	-5e-05	-0.00051	-0.00031	-0.00012	3e-05	6
27974	-5e-05	-3e-05	-2e-05	-5e-05	-0.00051	-0.00031	-0.00012	3e-05	6
27975	-5e-05	-3e-05	-2e-05	-5e-05	-0.00051	-0.00031	-0.00012	3e-05	6
27976	-5e-05	-3e-05	-2e-05	-5e-05	-0.00051	-0.00031	-0.00012	3e-05	6
27977	-5e-05	-3e-05	-2e-05	-5e-05	-0.00051	-0.00031	-0.00012	3e-05	6
27978	-5e-05	-3e-05	-2e-05	-5e-05	-0.00051	-0.00031	-0.00012	3e-05	6
27979	-4e-05	-1e-05	0	0.00011	0.00067	0.00032	-0.00011	-0.00013	6
27980	-4e-05	-1e-05	0	0.00011	0.00067	0.00032	-0.00011	-0.00013	6
27981	6e-05	3e-05	3e-05	3e-05	0.00014	0.00059	3e-05	-0.0002	6
27982	6e-05	3e-05	3e-05	3e-05	0.00014	0.00059	3e-05	-0.0002	6
27983	6e-05	3e-05	3e-05	3e-05	0.00014	0.00059	3e-05	-0.0002	6
27984	6e-05	3e-05	3e-05	3e-05	0.00014	0.00059	3e-05	-0.0002	6
27985	6e-05	3e-05	3e-05	3e-05	0.00014	0.00059	3e-05	-0.0002	6
27986	6e-05	3e-05	3e-05	3e-05	0.00014	0.00059	3e-05	-0.0002	6
27988	6e-05	3e-05	3e-05	3e-05	0.00014	0.00059	3e-05	-0.0002	6
27989	6e-05	3e-05	3e-05	3e-05	0.00014	0.00059	3e-05	-0.0002	6
27990	6e-05	3e-05	3e-05	3e-05	0.00014	0.00059	3e-05	-0.0002	6
27991	6e-05	3e-05	3e-05	3e-05	0.00014	0.00059	3e-05	-0.0002	6
27992	6e-05	3e-05	3e-05	3e-05	0.00014	0.00059	3e-05	-0.0002	6
27993	6e-05	3e-05	3e-05	3e-05	0.00014	0.00059	3e-05	-0.0002	6
27994	3e-05	-1e-05	-4e-05	-7e-05	-0.0003	0.0002	-0.00014	0.00043	6
27995	-0.0001	-2e-05	-5e-05	-0.00011	-0.0004	-0.00013	5e-05	-0.00017	6
27996	3e-05	2e-05	0	-4e-05	-0.00028	0.00054	0.00028	0.00079	6
27997	3e-05	2e-05	0	-4e-05	-0.00028	0.00054	0.00028	0.00079	6
27998	3e-05	2e-05	0	-4e-05	-0.00028	0.00054	0.00028	0.00079	6
27999	3e-05	2e-05	0	-4e-05	-0.00028	0.00054	0.00028	0.00079	6
28000	3e-05	2e-05	0	-4e-05	-0.00028	0.00054	0.00028	0.00079	6
28001	3e-05	2e-05	0	-4e-05	-0.00028	0.00054	0.00028	0.00079	6
28002	3e-05	2e-05	0	-4e-05	-0.00028	0.00054	0.00028	0.00079	6
28003	3e-05	2e-05	0	-4e-05	-0.00028	0.00054	0.00028	0.00079	6
28004	3e-05	2e-05	0	-4e-05	-0.00028	0.00054	0.00028	0.00079	6
28005	3e-05	2e-05	0	-4e-05	-0.00028	0.00054	0.00028	0.00079	6
28006	3e-05	2e-05	0	-4e-05	-0.00028	0.00054	0.00028	0.00079	6
28007	3e-05	2e-05	0	-4e-05	-0.00028	0.00054	0.00028	0.00079	6
28008	3e-05	2e-05	0	-4e-05	-0.00028	0.00054	0.00028	0.00079	6
28009	3e-05	2e-05	0	-4e-05	-0.00028	0.00054	0.00028	0.00079	6
28010	3e-05	2e-05	0	-4e-05	-0.00028	0.00054	0.00028	0.00079	6
28011	3e-05	2e-05	0	-4e-05	-0.00028	0.00054	0.00028	0.00079	6
28012	3e-05	2e-05	0	-4e-05	-0.00028	0.00054	0.00028	0.00079	6
28013	3e-05	2e-05	0	-4e-05	-0.00028	0.00054	0.00028	0.00079	6
28014	3e-05	2e-05	0	-4e-05	-0.00028	0.00054	0.00028	0.00079	6
28015	3e-05	2e-05	0	-4e-05	-0.00028	0.00054	0.00028	0.00079	6
28016	3e-05	2e-05	0	-4e-05	-0.00028	0.00054	0.00028	0.00079	6
28017	0	-2e-05	-1e-05	-1e-05	-7e-05	0.00015	-5e-05	-2e-05	6
28018	1e-05	-1e-05	1e-05	1e-05	-6e-05	-2e-05	4e-05	0.00012	6
28019	1e-05	-1e-05	1e-05	1e-05	-6e-05	-2e-05	4e-05	0.00012	6
28020	1e-05	-1e-05	1e-05	1e-05	-6e-05	-2e-05	4e-05	0.00012	6
28021	1e-05	-1e-05	1e-05	1e-05	-6e-05	-2e-05	4e-05	0.00012	6
28022	1e-05	-1e-05	1e-05	1e-05	-6e-05	-2e-05	4e-05	0.00012	6
28023	1e-05	-1e-05	1e-05	1e-05	-6e-05	-2e-05	4e-05	0.00012	6
28024	1e-05	-1e-05	1e-05	1e-05	-6e-05	-2e-05	4e-05	0.00012	6
28025	1e-05	-1e-05	1e-05	1e-05	-6e-05	-2e-05	4e-05	0.00012	6
28026	1e-05	-1e-05	1e-05	1e-05	-6e-05	-2e-05	4e-05	0.00012	6
28027	1e-05	-1e-05	1e-05	1e-05	-6e-05	-2e-05	4e-05	0.00012	6
28028	1e-05	-1e-05	1e-05	1e-05	-6e-05	-2e-05	4e-05	0.00012	6
28029	1e-05	-1e-05	1e-05	1e-05	-6e-05	-2e-05	4e-05	0.00012	6
28030	1e-05	-1e-05	1e-05	1e-05	-6e-05	-2e-05	4e-05	0.00012	6
28031	1e-05	-1e-05	1e-05	1e-05	-6e-05	-2e-05	4e-05	0.00012	6
28032	1e-05	-1e-05	1e-05	1e-05	-6e-05	-2e-05	4e-05	0.00012	6
28033	1e-05	-1e-05	1e-05	1e-05	-6e-05	-2e-05	4e-05	0.00012	6
28034	1e-05	-1e-05	1e-05	1e-05	-6e-05	-2e-05	4e-05	0.00012	6
28035	1e-05	-1e-05	1e-05	1e-05	-6e-05	-2e-05	4e-05	0.00012	6
28036	1e-05	-1e-05	1e-05	1e-05	-6e-05	-2e-05	4e-05	0.00012	6
28038	1e-05	-1e-05	1e-05	1e-05	-6e-05	-2e-05	4e-05	0.00012	6
28039	1e-05	0	-3e-05	-2e-05	5e-05	0.00039	0.00013	-0.00011	6
28040	1e-05	0	-3e-05	-2e-05	5e-05	0.00039	0.00013	-0.00011	6
28041	-0.00025	-4e-05	-1e-05	2e-05	-0.00015	-0.00029	-0.00021	-0.00058	6
28042	-0.00025	-4e-05	-1e-05	2e-05	-0.00015	-0.00029	-0.00021	-0.00058	6
28043	-0.00025	-4e-05	-1e-05	2e-05	-0.00015	-0.00029	-0.00021	-0.00058	6
28044	-0.00025	-4e-05	-1e-05	2e-05	-0.00015	-0.00029	-0.00021	-0.00058	6
28045	-0.00025	-4e-05	-1e-05	2e-05	-0.00015	-0.00029	-0.00021	-0.00058	6
28046	-0.00025	-4e-05	-1e-05	2e-05	-0.00015	-0.00029	-0.00021	-0.00058	6
28047	-0.00025	-4e-05	-1e-05	2e-05	-0.00015	-0.00029	-0.00021	-0.00058	6
28048	-0.00025	-4e-05	-1e-05	2e-05	-0.00015	-0.00029	-0.00021	-0.00058	6
28049	-0.00025	-4e-05	-1e-05	2e-05	-0.00015	-0.00029	-0.00021	-0.00058	6
28050	-0.00025	-4e-05	-1e-05	2e-05	-0.00015	-0.00029	-0.00021	-0.00058	6
28051	-0.00025	-4e-05	-1e-05	2e-05	-0.00015	-0.00029	-0.00021	-0.00058	6
28052	-0.00025	-4e-05	-1e-05	2e-05	-0.00015	-0.00029	-0.00021	-0.00058	6
28053	-0.00025	-4e-05	-1e-05	2e-05	-0.00015	-0.00029	-0.00021	-0.00058	6
28054	-0.00025	-4e-05	-1e-05	2e-05	-0.00015	-0.00029	-0.00021	-0.00058	6
28055	2e-05	-1e-05	-2e-05	-6e-05	-0.00021	0.00013	4e-05	6e-05	6
28056	-3e-05	1e-05	3e-05	5e-05	-9e-05	4e-05	0.00034	0.00018	6
28057	-3e-05	1e-05	3e-05	5e-05	-9e-05	4e-05	0.00034	0.00018	6
28058	-3e-05	1e-05	3e-05	5e-05	-9e-05	4e-05	0.00034	0.00018	6
28059	-3e-05	1e-05	3e-05	5e-05	-9e-05	4e-05	0.00034	0.00018	6
28060	-3e-05	1e-05	3e-05	5e-05	-9e-05	4e-05	0.00034	0.00018	6
28061	-3e-05	1e-05	3e-05	5e-05	-9e-05	4e-05	0.00034	0.00018	6
28062	-3e-05	1e-05	3e-05	5e-05	-9e-05	4e-05	0.00034	0.00018	6
28063	-3e-05	1e-05	3e-05	5e-05	-9e-05	4e-05	0.00034	0.00018	6
28064	-3e-05	1e-05	3e-05	5e-05	-9e-05	4e-05	0.00034	0.00018	6
28065	-3e-05	1e-05	3e-05	5e-05	-9e-05	4e-05	0.00034	0.00018	6
28066	-3e-05	1e-05	3e-05	5e-05	-9e-05	4e-05	0.00034	0.00018	6
28067	-3e-05	1e-05	3e-05	5e-05	-9e-05	4e-05	0.00034	0.00018	6
28068	-3e-05	1e-05	3e-05	5e-05	-9e-05	4e-05	0.00034	0.00018	6
28069	-3e-05	1e-05	3e-05	5e-05	-9e-05	4e-05	0.00034	0.00018	6
28070	-3e-05	1e-05	3e-05	5e-05	-9e-05	4e-05	0.00034	0.00018	6
28071	-3e-05	1e-05	3e-05	5e-05	-9e-05	4e-05	0.00034	0.00018	6
28072	-3e-05	1e-05	3e-05	5e-05	-9e-05	4e-05	0.00034	0.00018	6
28073	-3e-05	1e-05	3e-05	5e-05	-9e-05	4e-05	0.00034	0.00018	6
28074	-3e-05	1e-05	3e-05	5e-05	-9e-05	4e-05	0.00034	0.00018	6
28075	-3e-05	1e-05	3e-05	5e-05	-9e-05	4e-05	0.00034	0.00018	6
28076	-3e-05	1e-05	3e-05	5e-05	-9e-05	4e-05	0.00034	0.00018	6
28077	0	-3e-05	-1e-05	-1e-05	-0.00027	-0.00037	2e-05	9e-05	6
28078	-6e-05	-3e-05	-2e-05	-3e-05	-0.00024	-3e-05	8e-05	-0.00019	6
28079	3e-05	1e-05	-3e-05	-1e-05	0.0001	-0.00013	3e-05	-0.00033	6
28080	3e-05	1e-05	-3e-05	-1e-05	0.0001	-0.00013	3e-05	-0.00033	6
28081	3e-05	1e-05	-3e-05	-1e-05	0.0001	-0.00013	3e-05	-0.00033	6
28082	3e-05	1e-05	-3e-05	-1e-05	0.0001	-0.00013	3e-05	-0.00033	6
28083	3e-05	1e-05	-3e-05	-1e-05	0.0001	-0.00013	3e-05	-0.00033	6
28084	3e-05	1e-05	-3e-05	-1e-05	0.0001	-0.00013	3e-05	-0.00033	6
28085	3e-05	1e-05	-3e-05	-1e-05	0.0001	-0.00013	3e-05	-0.00033	6
28086	3e-05	1e-05	-3e-05	-1e-05	0.0001	-0.00013	3e-05	-0.00033	6
28088	3e-05	1e-05	-3e-05	-1e-05	0.0001	-0.00013	3e-05	-0.00033	6
28089	3e-05	1e-05	-3e-05	-1e-05	0.0001	-0.00013	3e-05	-0.00033	6
28090	3e-05	1e-05	-3e-05	-1e-05	0.0001	-0.00013	3e-05	-0.00033	6
28091	3e-05	1e-05	-3e-05	-1e-05	0.0001	-0.00013	3e-05	-0.00033	6
28092	3e-05	1e-05	-3e-05	-1e-05	0.0001	-0.00013	3e-05	-0.00033	6
28093	3e-05	1e-05	-3e-05	-1e-05	0.0001	-0.00013	3e-05	-0.00033	6
28094	3e-05	1e-05	-3e-05	-1e-05	0.0001	-0.00013	3e-05	-0.00033	6
28095	3e-05	1e-05	-3e-05	-1e-05	0.0001	-0.00013	3e-05	-0.00033	6
28096	3e-05	1e-05	-3e-05	-1e-05	0.0001	-0.00013	3e-05	-0.00033	6
28097	3e-05	1e-05	-3e-05	-1e-05	0.0001	-0.00013	3e-05	-0.00033	6
28098	3e-05	1e-05	-3e-05	-1e-05	0.0001	-0.00013	3e-05	-0.00033	6
28099	-0.00013	-5e-05	-5e-05	-0.00012	-0.0003	0.00058	-7e-05	-0.00019	6
28100	-0.00013	-5e-05	-5e-05	-0.00012	-0.0003	0.00058	-7e-05	-0.00019	6
28101	-2e-05	-4e-05	0	4e-05	0.00025	-0.00016	-0.00026	-1e-05	6
28102	-2e-05	-4e-05	0	4e-05	0.00025	-0.00016	-0.00026	-1e-05	6
28103	-2e-05	-4e-05	0	4e-05	0.00025	-0.00016	-0.00026	-1e-05	6
28104	-2e-05	-4e-05	0	4e-05	0.00025	-0.00016	-0.00026	-1e-05	6
28105	-2e-05	-4e-05	0	4e-05	0.00025	-0.00016	-0.00026	-1e-05	6
28106	-2e-05	-4e-05	0	4e-05	0.00025	-0.00016	-0.00026	-1e-05	6
28107	-2e-05	-4e-05	0	4e-05	0.00025	-0.00016	-0.00026	-1e-05	6
28108	-2e-05	-4e-05	0	4e-05	0.00025	-0.00016	-0.00026	-1e-05	6
28109	-2e-05	-4e-05	0	4e-05	0.00025	-0.00016	-0.00026	-1e-05	6
28110	-2e-05	-4e-05	0	4e-05	0.00025	-0.00016	-0.00026	-1e-05	6
28111	-2e-05	-4e-05	0	4e-05	0.00025	-0.00016	-0.00026	-1e-05	6
28112	-2e-05	-4e-05	0	4e-05	0.00025	-0.00016	-0.00026	-1e-05	6
28113	-2e-05	-4e-05	0	4e-05	0.00025	-0.00016	-0.00026	-1e-05	6
28114	-6e-05	-2e-05	-4e-05	-0.00011	-0.00035	-0.00049	-0.00016	-0.0003	6
28115	-6e-05	-2e-05	-4e-05	-0.00011	-0.00035	-0.00049	-0.00016	-0.0003	6
28116	3e-05	-2e-05	0	-2e-05	0	-0.00039	2e-05	-1e-05	6
28117	3e-05	-2e-05	0	-2e-05	0	-0.00039	2e-05	-1e-05	6
28118	3e-05	-2e-05	0	-2e-05	0	-0.00039	2e-05	-1e-05	6
28119	3e-05	-2e-05	0	-2e-05	0	-0.00039	2e-05	-1e-05	6
28120	3e-05	-2e-05	0	-2e-05	0	-0.00039	2e-05	-1e-05	6
28121	3e-05	-2e-05	0	-2e-05	0	-0.00039	2e-05	-1e-05	6
28122	3e-05	-2e-05	0	-2e-05	0	-0.00039	2e-05	-1e-05	6
28123	3e-05	-2e-05	0	-2e-05	0	-0.00039	2e-05	-1e-05	6
28124	3e-05	-2e-05	0	-2e-05	0	-0.00039	2e-05	-1e-05	6
28125	3e-05	-2e-05	0	-2e-05	0	-0.00039	2e-05	-1e-05	6
28126	3e-05	-2e-05	0	-2e-05	0	-0.00039	2e-05	-1e-05	6
28127	3e-05	-2e-05	0	-2e-05	0	-0.00039	2e-05	-1e-05	6
28128	3e-05	-2e-05	0	-2e-05	0	-0.00039	2e-05	-1e-05	6
28129	3e-05	-2e-05	0	-2e-05	0	-0.00039	2e-05	-1e-05	6
28130	3e-05	-2e-05	0	-2e-05	0	-0.00039	2e-05	-1e-05	6
28131	3e-05	-2e-05	0	-2e-05	0	-0.00039	2e-05	-1e-05	6
28132	3e-05	-2e-05	0	-2e-05	0	-0.00039	2e-05	-1e-05	6
28133	3e-05	-2e-05	0	-2e-05	0	-0.00039	2e-05	-1e-05	6
28134	3e-05	-2e-05	0	-2e-05	0	-0.00039	2e-05	-1e-05	6
28135	3e-05	-2e-05	0	-2e-05	0	-0.00039	2e-05	-1e-05	6
28136	3e-05	-2e-05	0	-2e-05	0	-0.00039	2e-05	-1e-05	6
28139	-6e-05	0	-1e-05	0	0.00028	0.00031	8e-05	-9e-05	6
28140	-6e-05	0	-1e-05	0	0.00028	0.00031	8e-05	-9e-05	6
28141	-6e-05	0	-1e-05	0	0.00028	0.00031	8e-05	-9e-05	6
28142	-6e-05	0	-1e-05	0	0.00028	0.00031	8e-05	-9e-05	6
28143	-6e-05	0	-1e-05	0	0.00028	0.00031	8e-05	-9e-05	6
28144	-6e-05	0	-1e-05	0	0.00028	0.00031	8e-05	-9e-05	6
28145	-6e-05	0	-1e-05	0	0.00028	0.00031	8e-05	-9e-05	6
28146	-6e-05	0	-1e-05	0	0.00028	0.00031	8e-05	-9e-05	6
28147	-6e-05	0	-1e-05	0	0.00028	0.00031	8e-05	-9e-05	6
28148	-6e-05	0	-1e-05	0	0.00028	0.00031	8e-05	-9e-05	6
28149	-6e-05	0	-1e-05	0	0.00028	0.00031	8e-05	-9e-05	6
28150	-6e-05	0	-1e-05	0	0.00028	0.00031	8e-05	-9e-05	6
28151	-6e-05	0	-1e-05	0	0.00028	0.00031	8e-05	-9e-05	6
28152	-6e-05	0	-1e-05	0	0.00028	0.00031	8e-05	-9e-05	6
28153	-6e-05	0	-1e-05	0	0.00028	0.00031	8e-05	-9e-05	6
28154	-6e-05	0	-1e-05	0	0.00028	0.00031	8e-05	-9e-05	6
28155	-6e-05	0	-1e-05	0	0.00028	0.00031	8e-05	-9e-05	6
28156	-6e-05	0	-1e-05	0	0.00028	0.00031	8e-05	-9e-05	6
28157	-6e-05	0	-1e-05	0	0.00028	0.00031	8e-05	-9e-05	6
28158	-6e-05	0	-1e-05	0	0.00028	0.00031	8e-05	-9e-05	6
28159	8e-05	-1e-05	0	0.00014	0.00077	0.00049	-2e-05	0.00014	6
28160	8e-05	-1e-05	0	0.00014	0.00077	0.00049	-2e-05	0.00014	6
28161	4e-05	-1e-05	-1e-05	-4e-05	-0.00022	-0.00019	-6e-05	1e-05	6
28162	4e-05	-1e-05	-1e-05	-4e-05	-0.00022	-0.00019	-6e-05	1e-05	6
28163	4e-05	-1e-05	-1e-05	-4e-05	-0.00022	-0.00019	-6e-05	1e-05	6
28164	4e-05	-1e-05	-1e-05	-4e-05	-0.00022	-0.00019	-6e-05	1e-05	6
28165	4e-05	-1e-05	-1e-05	-4e-05	-0.00022	-0.00019	-6e-05	1e-05	6
28166	4e-05	-1e-05	-1e-05	-4e-05	-0.00022	-0.00019	-6e-05	1e-05	6
28167	4e-05	-1e-05	-1e-05	-4e-05	-0.00022	-0.00019	-6e-05	1e-05	6
28168	4e-05	-1e-05	-1e-05	-4e-05	-0.00022	-0.00019	-6e-05	1e-05	6
28169	4e-05	-1e-05	-1e-05	-4e-05	-0.00022	-0.00019	-6e-05	1e-05	6
28170	4e-05	-1e-05	-1e-05	-4e-05	-0.00022	-0.00019	-6e-05	1e-05	6
28171	4e-05	-1e-05	-1e-05	-4e-05	-0.00022	-0.00019	-6e-05	1e-05	6
28172	4e-05	-1e-05	-1e-05	-4e-05	-0.00022	-0.00019	-6e-05	1e-05	6
28173	4e-05	-1e-05	-1e-05	-4e-05	-0.00022	-0.00019	-6e-05	1e-05	6
28174	-2e-05	2e-05	2e-05	-3e-05	-1e-05	0.00011	-5e-05	0.00031	6
28175	-2e-05	2e-05	2e-05	-3e-05	-1e-05	0.00011	-5e-05	0.00031	6
28176	-2e-05	2e-05	2e-05	-3e-05	-1e-05	0.00011	-5e-05	0.00031	6
28177	-2e-05	2e-05	2e-05	-3e-05	-1e-05	0.00011	-5e-05	0.00031	6
28178	-2e-05	2e-05	2e-05	-3e-05	-1e-05	0.00011	-5e-05	0.00031	6
28179	-2e-05	2e-05	2e-05	-3e-05	-1e-05	0.00011	-5e-05	0.00031	6
28180	-2e-05	2e-05	2e-05	-3e-05	-1e-05	0.00011	-5e-05	0.00031	6
28181	0.00022	0	0	-2e-05	8e-05	0.00022	-0.00024	0.0004	6
28182	0.00022	0	0	-2e-05	8e-05	0.00022	-0.00024	0.0004	6
28183	0.00022	0	0	-2e-05	8e-05	0.00022	-0.00024	0.0004	6
28184	0.00022	0	0	-2e-05	8e-05	0.00022	-0.00024	0.0004	6
28185	0.00022	0	0	-2e-05	8e-05	0.00022	-0.00024	0.0004	6
28186	0.00022	0	0	-2e-05	8e-05	0.00022	-0.00024	0.0004	6
28188	0.00022	0	0	-2e-05	8e-05	0.00022	-0.00024	0.0004	6
28189	0.00022	0	0	-2e-05	8e-05	0.00022	-0.00024	0.0004	6
28190	0.00022	0	0	-2e-05	8e-05	0.00022	-0.00024	0.0004	6
28191	0.00022	0	0	-2e-05	8e-05	0.00022	-0.00024	0.0004	6
28192	0.00022	0	0	-2e-05	8e-05	0.00022	-0.00024	0.0004	6
28193	0.00022	0	0	-2e-05	8e-05	0.00022	-0.00024	0.0004	6
28194	0.00022	0	0	-2e-05	8e-05	0.00022	-0.00024	0.0004	6
28195	0.00022	0	0	-2e-05	8e-05	0.00022	-0.00024	0.0004	6
28196	0.00022	0	0	-2e-05	8e-05	0.00022	-0.00024	0.0004	6
28197	-3e-05	1e-05	2e-05	1e-05	-0.00012	4e-05	5e-05	0.00061	6
28198	-3e-05	1e-05	2e-05	1e-05	-0.00012	4e-05	5e-05	0.00061	6
28199	0	-1e-05	-1e-05	1e-05	0.00038	-0.00023	-2e-05	0.0003	6
28200	0	-1e-05	-1e-05	1e-05	0.00038	-0.00023	-2e-05	0.0003	6
28201	0	-1e-05	-1e-05	1e-05	0.00038	-0.00023	-2e-05	0.0003	6
28202	0	-1e-05	-1e-05	1e-05	0.00038	-0.00023	-2e-05	0.0003	6
28203	0	-1e-05	-1e-05	1e-05	0.00038	-0.00023	-2e-05	0.0003	6
28204	0	-1e-05	-1e-05	1e-05	0.00038	-0.00023	-2e-05	0.0003	6
28205	0	-1e-05	-1e-05	1e-05	0.00038	-0.00023	-2e-05	0.0003	6
28206	0	-1e-05	-1e-05	1e-05	0.00038	-0.00023	-2e-05	0.0003	6
28207	0	-1e-05	-1e-05	1e-05	0.00038	-0.00023	-2e-05	0.0003	6
28208	0	-1e-05	-1e-05	1e-05	0.00038	-0.00023	-2e-05	0.0003	6
28209	0	-1e-05	-1e-05	1e-05	0.00038	-0.00023	-2e-05	0.0003	6
28210	0	-1e-05	-1e-05	1e-05	0.00038	-0.00023	-2e-05	0.0003	6
28211	0	-1e-05	-1e-05	1e-05	0.00038	-0.00023	-2e-05	0.0003	6
28212	0	-1e-05	-1e-05	1e-05	0.00038	-0.00023	-2e-05	0.0003	6
28213	0	-1e-05	-1e-05	1e-05	0.00038	-0.00023	-2e-05	0.0003	6
28214	0	-1e-05	-1e-05	1e-05	0.00038	-0.00023	-2e-05	0.0003	6
28215	0	-1e-05	-1e-05	1e-05	0.00038	-0.00023	-2e-05	0.0003	6
28216	0	-1e-05	-1e-05	1e-05	0.00038	-0.00023	-2e-05	0.0003	6
28217	0	-1e-05	-1e-05	1e-05	0.00038	-0.00023	-2e-05	0.0003	6
28218	0	-1e-05	-1e-05	1e-05	0.00038	-0.00023	-2e-05	0.0003	6
28219	1e-05	-1e-05	-1e-05	3e-05	-4e-05	-0.00019	-6e-05	-0.00012	6
28220	4e-05	-1e-05	-4e-05	2e-05	-1e-05	0.00017	1e-05	-0.00019	6
28221	0	0	-2e-05	-3e-05	-0.00021	0.00089	0	2e-05	6
28222	0	0	-2e-05	-3e-05	-0.00021	0.00089	0	2e-05	6
28223	0	0	-2e-05	-3e-05	-0.00021	0.00089	0	2e-05	6
28224	0	0	-2e-05	-3e-05	-0.00021	0.00089	0	2e-05	6
28225	0	0	-2e-05	-3e-05	-0.00021	0.00089	0	2e-05	6
28226	0	0	-2e-05	-3e-05	-0.00021	0.00089	0	2e-05	6
28227	0	0	-2e-05	-3e-05	-0.00021	0.00089	0	2e-05	6
28228	0	0	-2e-05	-3e-05	-0.00021	0.00089	0	2e-05	6
28229	0	0	-2e-05	-3e-05	-0.00021	0.00089	0	2e-05	6
28230	0	0	-2e-05	-3e-05	-0.00021	0.00089	0	2e-05	6
28231	0	0	-2e-05	-3e-05	-0.00021	0.00089	0	2e-05	6
28232	0	0	-2e-05	-3e-05	-0.00021	0.00089	0	2e-05	6
28233	0	0	-2e-05	-3e-05	-0.00021	0.00089	0	2e-05	6
28234	0	-4e-05	-3e-05	-0.00011	-0.00048	-1e-05	-0.0001	-0.00027	6
28235	0	-4e-05	-3e-05	-0.00011	-0.00048	-1e-05	-0.0001	-0.00027	6
28236	0	-4e-05	-3e-05	-0.00011	-0.00048	-1e-05	-0.0001	-0.00027	6
28238	0	-4e-05	-3e-05	-0.00011	-0.00048	-1e-05	-0.0001	-0.00027	6
28239	0	-4e-05	-3e-05	-0.00011	-0.00048	-1e-05	-0.0001	-0.00027	6
28240	0	-4e-05	-3e-05	-0.00011	-0.00048	-1e-05	-0.0001	-0.00027	6
28241	-3e-05	2e-05	0	-3e-05	-0.00042	0.0006	0.00025	0.00023	6
28242	-3e-05	2e-05	0	-3e-05	-0.00042	0.0006	0.00025	0.00023	6
28243	-3e-05	2e-05	0	-3e-05	-0.00042	0.0006	0.00025	0.00023	6
28244	-3e-05	2e-05	0	-3e-05	-0.00042	0.0006	0.00025	0.00023	6
28245	-3e-05	2e-05	0	-3e-05	-0.00042	0.0006	0.00025	0.00023	6
28246	-3e-05	2e-05	0	-3e-05	-0.00042	0.0006	0.00025	0.00023	6
28247	-3e-05	2e-05	0	-3e-05	-0.00042	0.0006	0.00025	0.00023	6
28248	-3e-05	2e-05	0	-3e-05	-0.00042	0.0006	0.00025	0.00023	6
28249	-3e-05	2e-05	0	-3e-05	-0.00042	0.0006	0.00025	0.00023	6
28250	-3e-05	2e-05	0	-3e-05	-0.00042	0.0006	0.00025	0.00023	6
28251	-3e-05	2e-05	0	-3e-05	-0.00042	0.0006	0.00025	0.00023	6
28252	-3e-05	2e-05	0	-3e-05	-0.00042	0.0006	0.00025	0.00023	6
28253	-3e-05	2e-05	0	-3e-05	-0.00042	0.0006	0.00025	0.00023	6
28254	-3e-05	2e-05	0	-3e-05	-0.00042	0.0006	0.00025	0.00023	6
28255	-3e-05	2e-05	0	-3e-05	-0.00042	0.0006	0.00025	0.00023	6
28256	-3e-05	2e-05	0	-3e-05	-0.00042	0.0006	0.00025	0.00023	6
28257	-1e-05	-2e-05	-1e-05	-4e-05	-0.0001	-6e-05	-6e-05	-0.00014	6
28258	-1e-05	-2e-05	-1e-05	-4e-05	-0.0001	-6e-05	-6e-05	-0.00014	6
28259	0	3e-05	4e-05	4e-05	-2e-05	-0.00014	5e-05	-0.00024	6
28260	0	3e-05	4e-05	4e-05	-2e-05	-0.00014	5e-05	-0.00024	6
28261	0	3e-05	4e-05	4e-05	-2e-05	-0.00014	5e-05	-0.00024	6
28262	0	3e-05	4e-05	4e-05	-2e-05	-0.00014	5e-05	-0.00024	6
28263	0	3e-05	4e-05	4e-05	-2e-05	-0.00014	5e-05	-0.00024	6
28264	0	3e-05	4e-05	4e-05	-2e-05	-0.00014	5e-05	-0.00024	6
28265	0	3e-05	4e-05	4e-05	-2e-05	-0.00014	5e-05	-0.00024	6
28266	0	3e-05	4e-05	4e-05	-2e-05	-0.00014	5e-05	-0.00024	6
28267	0	3e-05	4e-05	4e-05	-2e-05	-0.00014	5e-05	-0.00024	6
28268	0	3e-05	4e-05	4e-05	-2e-05	-0.00014	5e-05	-0.00024	6
28269	0	3e-05	4e-05	4e-05	-2e-05	-0.00014	5e-05	-0.00024	6
28270	0	3e-05	4e-05	4e-05	-2e-05	-0.00014	5e-05	-0.00024	6
28271	0	3e-05	4e-05	4e-05	-2e-05	-0.00014	5e-05	-0.00024	6
28272	0	3e-05	4e-05	4e-05	-2e-05	-0.00014	5e-05	-0.00024	6
28273	0	3e-05	4e-05	4e-05	-2e-05	-0.00014	5e-05	-0.00024	6
28274	0	3e-05	4e-05	4e-05	-2e-05	-0.00014	5e-05	-0.00024	6
28275	0	3e-05	4e-05	4e-05	-2e-05	-0.00014	5e-05	-0.00024	6
28276	0	3e-05	4e-05	4e-05	-2e-05	-0.00014	5e-05	-0.00024	6
28277	0	3e-05	4e-05	4e-05	-2e-05	-0.00014	5e-05	-0.00024	6
28278	0	3e-05	4e-05	4e-05	-2e-05	-0.00014	5e-05	-0.00024	6
28279	-5e-05	-3e-05	0	6e-05	0.00039	-3e-05	0	-0.00015	6
28280	-2e-05	-2e-05	-4e-05	-4e-05	2e-05	2e-05	0.0001	0.00014	6
28281	-0.00016	-2e-05	-3e-05	0	0.0003	-0.0005	0.00023	-0.00026	6
28282	-0.00016	-2e-05	-3e-05	0	0.0003	-0.0005	0.00023	-0.00026	6
28283	-0.00016	-2e-05	-3e-05	0	0.0003	-0.0005	0.00023	-0.00026	6
28284	-0.00016	-2e-05	-3e-05	0	0.0003	-0.0005	0.00023	-0.00026	6
28285	-0.00016	-2e-05	-3e-05	0	0.0003	-0.0005	0.00023	-0.00026	6
28286	-0.00016	-2e-05	-3e-05	0	0.0003	-0.0005	0.00023	-0.00026	6
28288	-0.00016	-2e-05	-3e-05	0	0.0003	-0.0005	0.00023	-0.00026	6
28289	-0.00016	-2e-05	-3e-05	0	0.0003	-0.0005	0.00023	-0.00026	6
28290	-0.00016	-2e-05	-3e-05	0	0.0003	-0.0005	0.00023	-0.00026	6
28291	-0.00016	-2e-05	-3e-05	0	0.0003	-0.0005	0.00023	-0.00026	6
28292	-0.00016	-2e-05	-3e-05	0	0.0003	-0.0005	0.00023	-0.00026	6
28293	-0.00016	-2e-05	-3e-05	0	0.0003	-0.0005	0.00023	-0.00026	6
28294	-1e-05	-2e-05	-2e-05	-5e-05	-0.00014	3e-05	-8e-05	-0.00044	6
28295	-1e-05	-2e-05	-2e-05	-5e-05	-0.00014	3e-05	-8e-05	-0.00044	6
28296	-1e-05	-2e-05	-2e-05	-5e-05	-0.00014	3e-05	-8e-05	-0.00044	6
28297	-1e-05	-2e-05	-2e-05	-5e-05	-0.00014	3e-05	-8e-05	-0.00044	6
28298	-1e-05	-2e-05	-2e-05	-5e-05	-0.00014	3e-05	-8e-05	-0.00044	6
28299	-1e-05	-2e-05	-2e-05	-5e-05	-0.00014	3e-05	-8e-05	-0.00044	6
28300	-1e-05	-2e-05	-2e-05	-5e-05	-0.00014	3e-05	-8e-05	-0.00044	6
28301	-6e-05	-2e-05	-2e-05	-3e-05	-0.00019	-0.00037	-0.00013	-0.00024	6
28302	-6e-05	-2e-05	-2e-05	-3e-05	-0.00019	-0.00037	-0.00013	-0.00024	6
28303	-6e-05	-2e-05	-2e-05	-3e-05	-0.00019	-0.00037	-0.00013	-0.00024	6
28304	-6e-05	-2e-05	-2e-05	-3e-05	-0.00019	-0.00037	-0.00013	-0.00024	6
28305	-6e-05	-2e-05	-2e-05	-3e-05	-0.00019	-0.00037	-0.00013	-0.00024	6
28306	-6e-05	-2e-05	-2e-05	-3e-05	-0.00019	-0.00037	-0.00013	-0.00024	6
28307	-6e-05	-2e-05	-2e-05	-3e-05	-0.00019	-0.00037	-0.00013	-0.00024	6
28309	-6e-05	-2e-05	-2e-05	-3e-05	-0.00019	-0.00037	-0.00013	-0.00024	6
28310	-6e-05	-2e-05	-2e-05	-3e-05	-0.00019	-0.00037	-0.00013	-0.00024	6
28311	-6e-05	-2e-05	-2e-05	-3e-05	-0.00019	-0.00037	-0.00013	-0.00024	6
28312	-6e-05	-2e-05	-2e-05	-3e-05	-0.00019	-0.00037	-0.00013	-0.00024	6
28313	-6e-05	-2e-05	-2e-05	-3e-05	-0.00019	-0.00037	-0.00013	-0.00024	6
28314	-6e-05	-2e-05	-2e-05	-3e-05	-0.00019	-0.00037	-0.00013	-0.00024	6
28315	-6e-05	-2e-05	-2e-05	-3e-05	-0.00019	-0.00037	-0.00013	-0.00024	6
28316	-6e-05	-2e-05	-2e-05	-3e-05	-0.00019	-0.00037	-0.00013	-0.00024	6
28317	-7e-05	-2e-05	0	1e-05	-0.00011	-0.00036	-0.00026	-0.00039	6
28318	-5e-05	-2e-05	-4e-05	-7e-05	-0.00031	-0.00018	7e-05	-1e-05	6
28319	0.00019	1e-05	1e-05	0.00012	0.00079	0.00016	-0.00027	0.00031	6
28320	0.00019	1e-05	1e-05	0.00012	0.00079	0.00016	-0.00027	0.00031	6
28321	0.00019	1e-05	1e-05	0.00012	0.00079	0.00016	-0.00027	0.00031	6
28322	0.00019	1e-05	1e-05	0.00012	0.00079	0.00016	-0.00027	0.00031	6
28323	0.00019	1e-05	1e-05	0.00012	0.00079	0.00016	-0.00027	0.00031	6
28324	0.00019	1e-05	1e-05	0.00012	0.00079	0.00016	-0.00027	0.00031	6
28325	0.00019	1e-05	1e-05	0.00012	0.00079	0.00016	-0.00027	0.00031	6
28326	0.00019	1e-05	1e-05	0.00012	0.00079	0.00016	-0.00027	0.00031	6
28327	0.00019	1e-05	1e-05	0.00012	0.00079	0.00016	-0.00027	0.00031	6
28328	0.00019	1e-05	1e-05	0.00012	0.00079	0.00016	-0.00027	0.00031	6
28329	0.00019	1e-05	1e-05	0.00012	0.00079	0.00016	-0.00027	0.00031	6
28330	0.00019	1e-05	1e-05	0.00012	0.00079	0.00016	-0.00027	0.00031	6
28331	0.00019	1e-05	1e-05	0.00012	0.00079	0.00016	-0.00027	0.00031	6
28332	0.00019	1e-05	1e-05	0.00012	0.00079	0.00016	-0.00027	0.00031	6
28333	0.00019	1e-05	1e-05	0.00012	0.00079	0.00016	-0.00027	0.00031	6
28334	0.00019	1e-05	1e-05	0.00012	0.00079	0.00016	-0.00027	0.00031	6
28335	0.00019	1e-05	1e-05	0.00012	0.00079	0.00016	-0.00027	0.00031	6
28336	0.00019	1e-05	1e-05	0.00012	0.00079	0.00016	-0.00027	0.00031	6
28338	0.00019	1e-05	1e-05	0.00012	0.00079	0.00016	-0.00027	0.00031	6
28339	-6e-05	-1e-05	-3e-05	0	1e-05	-0.00035	8e-05	-1e-05	6
28340	-6e-05	-1e-05	-3e-05	0	1e-05	-0.00035	8e-05	-1e-05	6
28341	-2e-05	0	1e-05	-2e-05	-0.00039	-0.00018	-6e-05	-7e-05	6
28342	-2e-05	0	1e-05	-2e-05	-0.00039	-0.00018	-6e-05	-7e-05	6
28343	-2e-05	0	1e-05	-2e-05	-0.00039	-0.00018	-6e-05	-7e-05	6
28344	-2e-05	0	1e-05	-2e-05	-0.00039	-0.00018	-6e-05	-7e-05	6
28345	-2e-05	0	1e-05	-2e-05	-0.00039	-0.00018	-6e-05	-7e-05	6
28346	-2e-05	0	1e-05	-2e-05	-0.00039	-0.00018	-6e-05	-7e-05	6
28347	-2e-05	0	1e-05	-2e-05	-0.00039	-0.00018	-6e-05	-7e-05	6
28348	-2e-05	0	1e-05	-2e-05	-0.00039	-0.00018	-6e-05	-7e-05	6
28349	-2e-05	0	1e-05	-2e-05	-0.00039	-0.00018	-6e-05	-7e-05	6
28350	-2e-05	0	1e-05	-2e-05	-0.00039	-0.00018	-6e-05	-7e-05	6
28351	-2e-05	0	1e-05	-2e-05	-0.00039	-0.00018	-6e-05	-7e-05	6
28352	-2e-05	0	1e-05	-2e-05	-0.00039	-0.00018	-6e-05	-7e-05	6
28353	-2e-05	0	1e-05	-2e-05	-0.00039	-0.00018	-6e-05	-7e-05	6
28354	-2e-05	-2e-05	-1e-05	0	9e-05	8e-05	6e-05	-0.00028	6
28355	-2e-05	-2e-05	-1e-05	0	9e-05	8e-05	6e-05	-0.00028	6
28356	-2e-05	-2e-05	-1e-05	0	9e-05	8e-05	6e-05	-0.00028	6
28357	-2e-05	-2e-05	-1e-05	0	9e-05	8e-05	6e-05	-0.00028	6
28358	-2e-05	-2e-05	-1e-05	0	9e-05	8e-05	6e-05	-0.00028	6
28359	-2e-05	-2e-05	-1e-05	0	9e-05	8e-05	6e-05	-0.00028	6
28360	-2e-05	-2e-05	-1e-05	0	9e-05	8e-05	6e-05	-0.00028	6
28361	-5e-05	-3e-05	-2e-05	-2e-05	0.00028	-9e-05	-0.00018	-0.00053	6
28362	-5e-05	-3e-05	-2e-05	-2e-05	0.00028	-9e-05	-0.00018	-0.00053	6
28363	-5e-05	-3e-05	-2e-05	-2e-05	0.00028	-9e-05	-0.00018	-0.00053	6
28364	-5e-05	-3e-05	-2e-05	-2e-05	0.00028	-9e-05	-0.00018	-0.00053	6
28365	-5e-05	-3e-05	-2e-05	-2e-05	0.00028	-9e-05	-0.00018	-0.00053	6
28366	-5e-05	-3e-05	-2e-05	-2e-05	0.00028	-9e-05	-0.00018	-0.00053	6
28367	-5e-05	-3e-05	-2e-05	-2e-05	0.00028	-9e-05	-0.00018	-0.00053	6
28368	-5e-05	-3e-05	-2e-05	-2e-05	0.00028	-9e-05	-0.00018	-0.00053	6
28369	-5e-05	-3e-05	-2e-05	-2e-05	0.00028	-9e-05	-0.00018	-0.00053	6
28370	-5e-05	-3e-05	-2e-05	-2e-05	0.00028	-9e-05	-0.00018	-0.00053	6
28371	-5e-05	-3e-05	-2e-05	-2e-05	0.00028	-9e-05	-0.00018	-0.00053	6
28372	-5e-05	-3e-05	-2e-05	-2e-05	0.00028	-9e-05	-0.00018	-0.00053	6
28373	-5e-05	-3e-05	-2e-05	-2e-05	0.00028	-9e-05	-0.00018	-0.00053	6
28374	-5e-05	-3e-05	-2e-05	-2e-05	0.00028	-9e-05	-0.00018	-0.00053	6
28375	-5e-05	-3e-05	-2e-05	-2e-05	0.00028	-9e-05	-0.00018	-0.00053	6
28376	-5e-05	-3e-05	-2e-05	-2e-05	0.00028	-9e-05	-0.00018	-0.00053	6
28377	3e-05	1e-05	1e-05	9e-05	0.00031	-0.00011	0.00019	8e-05	6
28378	-7e-05	-2e-05	-1e-05	1e-05	-9e-05	9e-05	6e-05	-0.00032	6
28379	-3e-05	-2e-05	-1e-05	0	3e-05	-9e-05	0.00019	0.00037	6
28380	-3e-05	-2e-05	-1e-05	0	3e-05	-9e-05	0.00019	0.00037	6
28381	-3e-05	-2e-05	-1e-05	0	3e-05	-9e-05	0.00019	0.00037	6
28382	-3e-05	-2e-05	-1e-05	0	3e-05	-9e-05	0.00019	0.00037	6
28383	-3e-05	-2e-05	-1e-05	0	3e-05	-9e-05	0.00019	0.00037	6
28384	-3e-05	-2e-05	-1e-05	0	3e-05	-9e-05	0.00019	0.00037	6
28385	-3e-05	-2e-05	-1e-05	0	3e-05	-9e-05	0.00019	0.00037	6
28386	-3e-05	-2e-05	-1e-05	0	3e-05	-9e-05	0.00019	0.00037	6
28388	-3e-05	-2e-05	-1e-05	0	3e-05	-9e-05	0.00019	0.00037	6
28389	-3e-05	-2e-05	-1e-05	0	3e-05	-9e-05	0.00019	0.00037	6
28390	-3e-05	-2e-05	-1e-05	0	3e-05	-9e-05	0.00019	0.00037	6
28391	-3e-05	-2e-05	-1e-05	0	3e-05	-9e-05	0.00019	0.00037	6
28392	-3e-05	-2e-05	-1e-05	0	3e-05	-9e-05	0.00019	0.00037	6
28393	-3e-05	-2e-05	-1e-05	0	3e-05	-9e-05	0.00019	0.00037	6
28394	-3e-05	-2e-05	-1e-05	0	3e-05	-9e-05	0.00019	0.00037	6
28395	-3e-05	-2e-05	-1e-05	0	3e-05	-9e-05	0.00019	0.00037	6
28396	-3e-05	-2e-05	-1e-05	0	3e-05	-9e-05	0.00019	0.00037	6
28397	-3e-05	-2e-05	-1e-05	0	3e-05	-9e-05	0.00019	0.00037	6
28398	-3e-05	-2e-05	-1e-05	0	3e-05	-9e-05	0.00019	0.00037	6
28399	4e-05	0	-3e-05	-7e-05	-4e-05	0.00012	-4e-05	0.00011	6
28400	4e-05	0	-3e-05	-7e-05	-4e-05	0.00012	-4e-05	0.00011	6
28401	0.0001	-1e-05	-3e-05	-3e-05	0.00011	-0.00016	-7e-05	0.00084	6
28402	0.0001	-1e-05	-3e-05	-3e-05	0.00011	-0.00016	-7e-05	0.00084	6
28403	0.0001	-1e-05	-3e-05	-3e-05	0.00011	-0.00016	-7e-05	0.00084	6
28404	0.0001	-1e-05	-3e-05	-3e-05	0.00011	-0.00016	-7e-05	0.00084	6
28405	0.0001	-1e-05	-3e-05	-3e-05	0.00011	-0.00016	-7e-05	0.00084	6
28406	0.0001	-1e-05	-3e-05	-3e-05	0.00011	-0.00016	-7e-05	0.00084	6
28407	0.0001	-1e-05	-3e-05	-3e-05	0.00011	-0.00016	-7e-05	0.00084	6
28408	0.0001	-1e-05	-3e-05	-3e-05	0.00011	-0.00016	-7e-05	0.00084	6
28409	0.0001	-1e-05	-3e-05	-3e-05	0.00011	-0.00016	-7e-05	0.00084	6
28410	0.0001	-1e-05	-3e-05	-3e-05	0.00011	-0.00016	-7e-05	0.00084	6
28411	0.0001	-1e-05	-3e-05	-3e-05	0.00011	-0.00016	-7e-05	0.00084	6
28412	0.0001	-1e-05	-3e-05	-3e-05	0.00011	-0.00016	-7e-05	0.00084	6
28413	0.0001	-1e-05	-3e-05	-3e-05	0.00011	-0.00016	-7e-05	0.00084	6
28414	6e-05	-1e-05	1e-05	2e-05	-0.00019	-0.00049	-9e-05	0.00031	6
28415	6e-05	-1e-05	1e-05	2e-05	-0.00019	-0.00049	-9e-05	0.00031	6
28416	6e-05	-1e-05	1e-05	2e-05	-0.00019	-0.00049	-9e-05	0.00031	6
28417	6e-05	-1e-05	1e-05	2e-05	-0.00019	-0.00049	-9e-05	0.00031	6
28418	6e-05	-1e-05	1e-05	2e-05	-0.00019	-0.00049	-9e-05	0.00031	6
28419	6e-05	-1e-05	1e-05	2e-05	-0.00019	-0.00049	-9e-05	0.00031	6
28420	6e-05	-1e-05	1e-05	2e-05	-0.00019	-0.00049	-9e-05	0.00031	6
28421	7e-05	1e-05	-1e-05	-2e-05	-0.00017	6e-05	5e-05	-2e-05	6
28422	7e-05	1e-05	-1e-05	-2e-05	-0.00017	6e-05	5e-05	-2e-05	6
28423	7e-05	1e-05	-1e-05	-2e-05	-0.00017	6e-05	5e-05	-2e-05	6
28424	7e-05	1e-05	-1e-05	-2e-05	-0.00017	6e-05	5e-05	-2e-05	6
28425	7e-05	1e-05	-1e-05	-2e-05	-0.00017	6e-05	5e-05	-2e-05	6
28427	7e-05	1e-05	-1e-05	-2e-05	-0.00017	6e-05	5e-05	-2e-05	6
28428	7e-05	1e-05	-1e-05	-2e-05	-0.00017	6e-05	5e-05	-2e-05	6
28429	7e-05	1e-05	-1e-05	-2e-05	-0.00017	6e-05	5e-05	-2e-05	6
28430	7e-05	1e-05	-1e-05	-2e-05	-0.00017	6e-05	5e-05	-2e-05	6
28431	7e-05	1e-05	-1e-05	-2e-05	-0.00017	6e-05	5e-05	-2e-05	6
28432	7e-05	1e-05	-1e-05	-2e-05	-0.00017	6e-05	5e-05	-2e-05	6
28433	7e-05	1e-05	-1e-05	-2e-05	-0.00017	6e-05	5e-05	-2e-05	6
28434	7e-05	1e-05	-1e-05	-2e-05	-0.00017	6e-05	5e-05	-2e-05	6
28435	7e-05	1e-05	-1e-05	-2e-05	-0.00017	6e-05	5e-05	-2e-05	6
28436	0	-1e-05	1e-05	6e-05	1e-05	-0.00088	-7e-05	4e-05	6
28438	-0.00012	-3e-05	0	-5e-05	-4e-05	-0.0003	0.00012	-0.00087	6
28440	-0.00012	-3e-05	0	-5e-05	-4e-05	-0.0003	0.00012	-0.00087	6
28441	-0.00012	-3e-05	0	-5e-05	-4e-05	-0.0003	0.00012	-0.00087	6
28442	-0.00012	-3e-05	0	-5e-05	-4e-05	-0.0003	0.00012	-0.00087	6
28443	-0.00012	-3e-05	0	-5e-05	-4e-05	-0.0003	0.00012	-0.00087	6
28444	-0.00012	-3e-05	0	-5e-05	-4e-05	-0.0003	0.00012	-0.00087	6
28445	-0.00012	-3e-05	0	-5e-05	-4e-05	-0.0003	0.00012	-0.00087	6
28446	-0.00012	-3e-05	0	-5e-05	-4e-05	-0.0003	0.00012	-0.00087	6
28447	-0.00012	-3e-05	0	-5e-05	-4e-05	-0.0003	0.00012	-0.00087	6
28448	-0.00012	-3e-05	0	-5e-05	-4e-05	-0.0003	0.00012	-0.00087	6
28449	-0.00012	-3e-05	0	-5e-05	-4e-05	-0.0003	0.00012	-0.00087	6
28450	-0.00012	-3e-05	0	-5e-05	-4e-05	-0.0003	0.00012	-0.00087	6
28451	-0.00012	-3e-05	0	-5e-05	-4e-05	-0.0003	0.00012	-0.00087	6
28452	-0.00012	-3e-05	0	-5e-05	-4e-05	-0.0003	0.00012	-0.00087	6
28453	-0.00012	-3e-05	0	-5e-05	-4e-05	-0.0003	0.00012	-0.00087	6
28454	-0.00012	-3e-05	0	-5e-05	-4e-05	-0.0003	0.00012	-0.00087	6
28455	-0.00012	-3e-05	0	-5e-05	-4e-05	-0.0003	0.00012	-0.00087	6
28456	-0.00012	-3e-05	0	-5e-05	-4e-05	-0.0003	0.00012	-0.00087	6
28457	-0.00012	-3e-05	0	-5e-05	-4e-05	-0.0003	0.00012	-0.00087	6
28458	-0.00012	-3e-05	0	-5e-05	-4e-05	-0.0003	0.00012	-0.00087	6
28459	-1e-05	-2e-05	-2e-05	-3e-05	8e-05	0	-1e-05	-9e-05	6
28460	-1e-05	-3e-05	-1e-05	-2e-05	-0.00034	0.00032	6e-05	3e-05	6
28461	-1e-05	-3e-05	-1e-05	-2e-05	-0.00034	0.00032	6e-05	3e-05	6
28462	-1e-05	-3e-05	-1e-05	-2e-05	-0.00034	0.00032	6e-05	3e-05	6
28463	-1e-05	-3e-05	-1e-05	-2e-05	-0.00034	0.00032	6e-05	3e-05	6
28464	-1e-05	-3e-05	-1e-05	-2e-05	-0.00034	0.00032	6e-05	3e-05	6
28465	-1e-05	-3e-05	-1e-05	-2e-05	-0.00034	0.00032	6e-05	3e-05	6
28466	-1e-05	-3e-05	-1e-05	-2e-05	-0.00034	0.00032	6e-05	3e-05	6
28467	-1e-05	-3e-05	-1e-05	-2e-05	-0.00034	0.00032	6e-05	3e-05	6
28468	-1e-05	-3e-05	-1e-05	-2e-05	-0.00034	0.00032	6e-05	3e-05	6
28469	-1e-05	-3e-05	-1e-05	-2e-05	-0.00034	0.00032	6e-05	3e-05	6
28470	-1e-05	-3e-05	-1e-05	-2e-05	-0.00034	0.00032	6e-05	3e-05	6
28471	-1e-05	-3e-05	-1e-05	-2e-05	-0.00034	0.00032	6e-05	3e-05	6
28472	-1e-05	-3e-05	-1e-05	-2e-05	-0.00034	0.00032	6e-05	3e-05	6
28473	0.00015	2e-05	2e-05	0	-3e-05	-6e-05	-0.00045	0.0006	6
28474	0.00015	2e-05	2e-05	0	-3e-05	-6e-05	-0.00045	0.0006	6
28475	0.00015	2e-05	2e-05	0	-3e-05	-6e-05	-0.00045	0.0006	6
28476	0.00015	2e-05	2e-05	0	-3e-05	-6e-05	-0.00045	0.0006	6
28477	0.00015	2e-05	2e-05	0	-3e-05	-6e-05	-0.00045	0.0006	6
28478	0.00015	2e-05	2e-05	0	-3e-05	-6e-05	-0.00045	0.0006	6
28479	0.00015	2e-05	2e-05	0	-3e-05	-6e-05	-0.00045	0.0006	6
28480	0.00015	2e-05	2e-05	0	-3e-05	-6e-05	-0.00045	0.0006	6
28481	-2e-05	-5e-05	-5e-05	-4e-05	-0.00034	-0.00059	0.00026	0.00049	6
28482	-2e-05	-5e-05	-5e-05	-4e-05	-0.00034	-0.00059	0.00026	0.00049	6
28483	-2e-05	-5e-05	-5e-05	-4e-05	-0.00034	-0.00059	0.00026	0.00049	6
28484	-2e-05	-5e-05	-5e-05	-4e-05	-0.00034	-0.00059	0.00026	0.00049	6
28485	-2e-05	-5e-05	-5e-05	-4e-05	-0.00034	-0.00059	0.00026	0.00049	6
28486	-2e-05	-5e-05	-5e-05	-4e-05	-0.00034	-0.00059	0.00026	0.00049	6
28488	-2e-05	-5e-05	-5e-05	-4e-05	-0.00034	-0.00059	0.00026	0.00049	6
28489	-2e-05	-5e-05	-5e-05	-4e-05	-0.00034	-0.00059	0.00026	0.00049	6
28490	-2e-05	-5e-05	-5e-05	-4e-05	-0.00034	-0.00059	0.00026	0.00049	6
28491	-2e-05	-5e-05	-5e-05	-4e-05	-0.00034	-0.00059	0.00026	0.00049	6
28492	-2e-05	-5e-05	-5e-05	-4e-05	-0.00034	-0.00059	0.00026	0.00049	6
28493	-2e-05	-5e-05	-5e-05	-4e-05	-0.00034	-0.00059	0.00026	0.00049	6
28494	-2e-05	-5e-05	-5e-05	-4e-05	-0.00034	-0.00059	0.00026	0.00049	6
28495	-2e-05	-5e-05	-5e-05	-4e-05	-0.00034	-0.00059	0.00026	0.00049	6
28496	-5e-05	0	0	3e-05	0.00029	0.00016	4e-05	-0.00023	6
28497	-4e-05	-2e-05	-1e-05	-6e-05	-0.0002	-6e-05	-0.00014	-6e-05	6
28498	-4e-05	-2e-05	-1e-05	-6e-05	-0.0002	-6e-05	-0.00014	-6e-05	6
28499	-4e-05	-2e-05	-1e-05	-6e-05	-0.0002	-6e-05	-0.00014	-6e-05	6
28500	-4e-05	-2e-05	-1e-05	-6e-05	-0.0002	-6e-05	-0.00014	-6e-05	6
28501	-4e-05	-2e-05	-1e-05	-6e-05	-0.0002	-6e-05	-0.00014	-6e-05	6
28502	-4e-05	-2e-05	-1e-05	-6e-05	-0.0002	-6e-05	-0.00014	-6e-05	6
28503	-4e-05	-2e-05	-1e-05	-6e-05	-0.0002	-6e-05	-0.00014	-6e-05	6
28504	-4e-05	-2e-05	-1e-05	-6e-05	-0.0002	-6e-05	-0.00014	-6e-05	6
28505	-4e-05	-2e-05	-1e-05	-6e-05	-0.0002	-6e-05	-0.00014	-6e-05	6
28506	-4e-05	-2e-05	-1e-05	-6e-05	-0.0002	-6e-05	-0.00014	-6e-05	6
28507	-4e-05	-2e-05	-1e-05	-6e-05	-0.0002	-6e-05	-0.00014	-6e-05	6
28508	-4e-05	-2e-05	-1e-05	-6e-05	-0.0002	-6e-05	-0.00014	-6e-05	6
28509	-4e-05	-2e-05	-1e-05	-6e-05	-0.0002	-6e-05	-0.00014	-6e-05	6
28510	-4e-05	-2e-05	-1e-05	-6e-05	-0.0002	-6e-05	-0.00014	-6e-05	6
28511	-4e-05	-2e-05	-1e-05	-6e-05	-0.0002	-6e-05	-0.00014	-6e-05	6
28512	-4e-05	-2e-05	-1e-05	-6e-05	-0.0002	-6e-05	-0.00014	-6e-05	6
28513	-4e-05	-2e-05	-1e-05	-6e-05	-0.0002	-6e-05	-0.00014	-6e-05	6
28514	-4e-05	-2e-05	-1e-05	-6e-05	-0.0002	-6e-05	-0.00014	-6e-05	6
28515	-4e-05	-2e-05	-1e-05	-6e-05	-0.0002	-6e-05	-0.00014	-6e-05	6
28516	-4e-05	-2e-05	-1e-05	-6e-05	-0.0002	-6e-05	-0.00014	-6e-05	6
28517	-4e-05	-2e-05	-1e-05	-6e-05	-0.0002	-6e-05	-0.00014	-6e-05	6
28518	-4e-05	-2e-05	-1e-05	-6e-05	-0.0002	-6e-05	-0.00014	-6e-05	6
28519	-6e-05	-2e-05	0	5e-05	0.00027	-0.00019	-9e-05	-0.00041	6
28520	-6e-05	-2e-05	0	5e-05	0.00027	-0.00019	-9e-05	-0.00041	6
28521	-6e-05	-2e-05	0	5e-05	0.00027	-0.00019	-9e-05	-0.00041	6
28522	-6e-05	-2e-05	0	5e-05	0.00027	-0.00019	-9e-05	-0.00041	6
28523	-6e-05	-2e-05	0	5e-05	0.00027	-0.00019	-9e-05	-0.00041	6
28524	-6e-05	-2e-05	0	5e-05	0.00027	-0.00019	-9e-05	-0.00041	6
28525	-6e-05	-2e-05	0	5e-05	0.00027	-0.00019	-9e-05	-0.00041	6
28526	-6e-05	-2e-05	0	5e-05	0.00027	-0.00019	-9e-05	-0.00041	6
28527	-6e-05	-2e-05	0	5e-05	0.00027	-0.00019	-9e-05	-0.00041	6
28528	-6e-05	-2e-05	0	5e-05	0.00027	-0.00019	-9e-05	-0.00041	6
28529	-6e-05	-2e-05	0	5e-05	0.00027	-0.00019	-9e-05	-0.00041	6
28530	-6e-05	-2e-05	0	5e-05	0.00027	-0.00019	-9e-05	-0.00041	6
28531	-6e-05	-2e-05	0	5e-05	0.00027	-0.00019	-9e-05	-0.00041	6
28532	-6e-05	-2e-05	0	5e-05	0.00027	-0.00019	-9e-05	-0.00041	6
28533	-8e-05	-3e-05	-3e-05	-4e-05	-8e-05	0.0002	0.00014	-0.00041	6
28534	-8e-05	-3e-05	-3e-05	-4e-05	-8e-05	0.0002	0.00014	-0.00041	6
28535	-8e-05	-3e-05	-3e-05	-4e-05	-8e-05	0.0002	0.00014	-0.00041	6
28536	-8e-05	-3e-05	-3e-05	-4e-05	-8e-05	0.0002	0.00014	-0.00041	6
28538	-8e-05	-3e-05	-3e-05	-4e-05	-8e-05	0.0002	0.00014	-0.00041	6
28539	-8e-05	-3e-05	-3e-05	-4e-05	-8e-05	0.0002	0.00014	-0.00041	6
28540	-8e-05	-3e-05	-3e-05	-4e-05	-8e-05	0.0002	0.00014	-0.00041	6
28541	8e-05	1e-05	3e-05	8e-05	-0.0001	0.00022	2e-05	0.00035	6
28542	8e-05	1e-05	3e-05	8e-05	-0.0001	0.00022	2e-05	0.00035	6
28543	8e-05	1e-05	3e-05	8e-05	-0.0001	0.00022	2e-05	0.00035	6
28544	8e-05	1e-05	3e-05	8e-05	-0.0001	0.00022	2e-05	0.00035	6
28545	8e-05	1e-05	3e-05	8e-05	-0.0001	0.00022	2e-05	0.00035	6
28546	8e-05	1e-05	3e-05	8e-05	-0.0001	0.00022	2e-05	0.00035	6
28547	8e-05	1e-05	3e-05	8e-05	-0.0001	0.00022	2e-05	0.00035	6
28548	8e-05	1e-05	3e-05	8e-05	-0.0001	0.00022	2e-05	0.00035	6
28549	8e-05	1e-05	3e-05	8e-05	-0.0001	0.00022	2e-05	0.00035	6
28550	8e-05	1e-05	3e-05	8e-05	-0.0001	0.00022	2e-05	0.00035	6
28551	8e-05	1e-05	3e-05	8e-05	-0.0001	0.00022	2e-05	0.00035	6
28552	8e-05	1e-05	3e-05	8e-05	-0.0001	0.00022	2e-05	0.00035	6
28553	8e-05	1e-05	3e-05	8e-05	-0.0001	0.00022	2e-05	0.00035	6
28554	8e-05	1e-05	3e-05	8e-05	-0.0001	0.00022	2e-05	0.00035	6
28555	8e-05	1e-05	3e-05	8e-05	-0.0001	0.00022	2e-05	0.00035	6
28556	6e-05	1e-05	-1e-05	-5e-05	-0.00013	-0.00029	1e-05	0.00026	6
28557	1e-05	-3e-05	-4e-05	-0.00015	-0.0001	0.00022	-4e-05	0.00043	6
28558	1e-05	-3e-05	-4e-05	-0.00015	-0.0001	0.00022	-4e-05	0.00043	6
28559	1e-05	-3e-05	-4e-05	-0.00015	-0.0001	0.00022	-4e-05	0.00043	6
28560	1e-05	-3e-05	-4e-05	-0.00015	-0.0001	0.00022	-4e-05	0.00043	6
28561	1e-05	-3e-05	-4e-05	-0.00015	-0.0001	0.00022	-4e-05	0.00043	6
28562	1e-05	-3e-05	-4e-05	-0.00015	-0.0001	0.00022	-4e-05	0.00043	6
28563	1e-05	-3e-05	-4e-05	-0.00015	-0.0001	0.00022	-4e-05	0.00043	6
28564	1e-05	-3e-05	-4e-05	-0.00015	-0.0001	0.00022	-4e-05	0.00043	6
28565	1e-05	-3e-05	-4e-05	-0.00015	-0.0001	0.00022	-4e-05	0.00043	6
28566	1e-05	-3e-05	-4e-05	-0.00015	-0.0001	0.00022	-4e-05	0.00043	6
28567	1e-05	-3e-05	-4e-05	-0.00015	-0.0001	0.00022	-4e-05	0.00043	6
28568	1e-05	-3e-05	-4e-05	-0.00015	-0.0001	0.00022	-4e-05	0.00043	6
28569	1e-05	-3e-05	-4e-05	-0.00015	-0.0001	0.00022	-4e-05	0.00043	6
28570	1e-05	-3e-05	-4e-05	-0.00015	-0.0001	0.00022	-4e-05	0.00043	6
28571	1e-05	-3e-05	-4e-05	-0.00015	-0.0001	0.00022	-4e-05	0.00043	6
28572	1e-05	-3e-05	-4e-05	-0.00015	-0.0001	0.00022	-4e-05	0.00043	6
28573	1e-05	-3e-05	-4e-05	-0.00015	-0.0001	0.00022	-4e-05	0.00043	6
28574	1e-05	-3e-05	-4e-05	-0.00015	-0.0001	0.00022	-4e-05	0.00043	6
28575	1e-05	-3e-05	-4e-05	-0.00015	-0.0001	0.00022	-4e-05	0.00043	6
28576	1e-05	-3e-05	-4e-05	-0.00015	-0.0001	0.00022	-4e-05	0.00043	6
28577	1e-05	-3e-05	-4e-05	-0.00015	-0.0001	0.00022	-4e-05	0.00043	6
28578	1e-05	-3e-05	-4e-05	-0.00015	-0.0001	0.00022	-4e-05	0.00043	6
28579	-5e-05	1e-05	1e-05	-2e-05	1e-05	-8e-05	-8e-05	-0.0004	6
28580	-5e-05	1e-05	1e-05	-2e-05	1e-05	-8e-05	-8e-05	-0.0004	6
28581	-5e-05	1e-05	1e-05	-2e-05	1e-05	-8e-05	-8e-05	-0.0004	6
28582	-5e-05	1e-05	1e-05	-2e-05	1e-05	-8e-05	-8e-05	-0.0004	6
28583	-5e-05	1e-05	1e-05	-2e-05	1e-05	-8e-05	-8e-05	-0.0004	6
28584	-5e-05	1e-05	1e-05	-2e-05	1e-05	-8e-05	-8e-05	-0.0004	6
28585	-5e-05	1e-05	1e-05	-2e-05	1e-05	-8e-05	-8e-05	-0.0004	6
28586	-5e-05	1e-05	1e-05	-2e-05	1e-05	-8e-05	-8e-05	-0.0004	6
28588	-5e-05	1e-05	1e-05	-2e-05	1e-05	-8e-05	-8e-05	-0.0004	6
28589	-5e-05	1e-05	1e-05	-2e-05	1e-05	-8e-05	-8e-05	-0.0004	6
28590	-5e-05	1e-05	1e-05	-2e-05	1e-05	-8e-05	-8e-05	-0.0004	6
28591	-5e-05	1e-05	1e-05	-2e-05	1e-05	-8e-05	-8e-05	-0.0004	6
28592	-5e-05	1e-05	1e-05	-2e-05	1e-05	-8e-05	-8e-05	-0.0004	6
28593	-0.00012	-4e-05	-5e-05	-7e-05	2e-05	-0.00044	0	0.00021	6
28595	-0.00012	-4e-05	-5e-05	-7e-05	2e-05	-0.00044	0	0.00021	6
28596	-0.00012	-4e-05	-5e-05	-7e-05	2e-05	-0.00044	0	0.00021	6
28597	-0.00012	-4e-05	-5e-05	-7e-05	2e-05	-0.00044	0	0.00021	6
28598	-0.00012	-4e-05	-5e-05	-7e-05	2e-05	-0.00044	0	0.00021	6
28599	-0.00012	-4e-05	-5e-05	-7e-05	2e-05	-0.00044	0	0.00021	6
28600	-0.00012	-4e-05	-5e-05	-7e-05	2e-05	-0.00044	0	0.00021	6
28601	-4e-05	-1e-05	-4e-05	-9e-05	-0.00035	-0.0002	-0.00018	1e-05	6
28602	-4e-05	-1e-05	-4e-05	-9e-05	-0.00035	-0.0002	-0.00018	1e-05	6
28603	-4e-05	-1e-05	-4e-05	-9e-05	-0.00035	-0.0002	-0.00018	1e-05	6
28604	-4e-05	-1e-05	-4e-05	-9e-05	-0.00035	-0.0002	-0.00018	1e-05	6
28605	-4e-05	-1e-05	-4e-05	-9e-05	-0.00035	-0.0002	-0.00018	1e-05	6
28606	-4e-05	-1e-05	-4e-05	-9e-05	-0.00035	-0.0002	-0.00018	1e-05	6
28607	-4e-05	-1e-05	-4e-05	-9e-05	-0.00035	-0.0002	-0.00018	1e-05	6
28608	-4e-05	-1e-05	-4e-05	-9e-05	-0.00035	-0.0002	-0.00018	1e-05	6
28609	-4e-05	-1e-05	-4e-05	-9e-05	-0.00035	-0.0002	-0.00018	1e-05	6
28610	-4e-05	-1e-05	-4e-05	-9e-05	-0.00035	-0.0002	-0.00018	1e-05	6
28611	-4e-05	-1e-05	-4e-05	-9e-05	-0.00035	-0.0002	-0.00018	1e-05	6
28612	-4e-05	-1e-05	-4e-05	-9e-05	-0.00035	-0.0002	-0.00018	1e-05	6
28613	-4e-05	-1e-05	-4e-05	-9e-05	-0.00035	-0.0002	-0.00018	1e-05	6
28614	-4e-05	-1e-05	-4e-05	-9e-05	-0.00035	-0.0002	-0.00018	1e-05	6
28615	-4e-05	-1e-05	-4e-05	-9e-05	-0.00035	-0.0002	-0.00018	1e-05	6
28616	-1e-05	0	2e-05	4e-05	0	-0.00018	1e-05	-0.00011	6
28617	0.00014	2e-05	3e-05	7e-05	0.00025	-0.00026	-0.00013	1e-05	6
28618	0.00014	2e-05	3e-05	7e-05	0.00025	-0.00026	-0.00013	1e-05	6
28619	0.00014	2e-05	3e-05	7e-05	0.00025	-0.00026	-0.00013	1e-05	6
28620	0.00014	2e-05	3e-05	7e-05	0.00025	-0.00026	-0.00013	1e-05	6
28621	0.00014	2e-05	3e-05	7e-05	0.00025	-0.00026	-0.00013	1e-05	6
28622	0.00014	2e-05	3e-05	7e-05	0.00025	-0.00026	-0.00013	1e-05	6
28623	0.00014	2e-05	3e-05	7e-05	0.00025	-0.00026	-0.00013	1e-05	6
28624	0.00014	2e-05	3e-05	7e-05	0.00025	-0.00026	-0.00013	1e-05	6
28625	0.00014	2e-05	3e-05	7e-05	0.00025	-0.00026	-0.00013	1e-05	6
28626	0.00014	2e-05	3e-05	7e-05	0.00025	-0.00026	-0.00013	1e-05	6
28627	0.00014	2e-05	3e-05	7e-05	0.00025	-0.00026	-0.00013	1e-05	6
28628	0.00014	2e-05	3e-05	7e-05	0.00025	-0.00026	-0.00013	1e-05	6
28629	0.00014	2e-05	3e-05	7e-05	0.00025	-0.00026	-0.00013	1e-05	6
28630	0.00014	2e-05	3e-05	7e-05	0.00025	-0.00026	-0.00013	1e-05	6
28631	0.00014	2e-05	3e-05	7e-05	0.00025	-0.00026	-0.00013	1e-05	6
28632	0.00014	2e-05	3e-05	7e-05	0.00025	-0.00026	-0.00013	1e-05	6
28633	0.00014	2e-05	3e-05	7e-05	0.00025	-0.00026	-0.00013	1e-05	6
28634	0.00014	2e-05	3e-05	7e-05	0.00025	-0.00026	-0.00013	1e-05	6
28635	0.00014	2e-05	3e-05	7e-05	0.00025	-0.00026	-0.00013	1e-05	6
28636	0.00014	2e-05	3e-05	7e-05	0.00025	-0.00026	-0.00013	1e-05	6
28638	0.00014	2e-05	3e-05	7e-05	0.00025	-0.00026	-0.00013	1e-05	6
28639	3e-05	-1e-05	0	-2e-05	0.00028	0.00012	-6e-05	0.00013	6
28640	3e-05	-1e-05	-4e-05	-3e-05	-2e-05	0.00014	-1e-05	-0.00054	6
28641	3e-05	-1e-05	-4e-05	-3e-05	-2e-05	0.00014	-1e-05	-0.00054	6
28642	3e-05	-1e-05	-4e-05	-3e-05	-2e-05	0.00014	-1e-05	-0.00054	6
28643	3e-05	-1e-05	-4e-05	-3e-05	-2e-05	0.00014	-1e-05	-0.00054	6
28644	3e-05	-1e-05	-4e-05	-3e-05	-2e-05	0.00014	-1e-05	-0.00054	6
28645	3e-05	-1e-05	-4e-05	-3e-05	-2e-05	0.00014	-1e-05	-0.00054	6
28646	3e-05	-1e-05	-4e-05	-3e-05	-2e-05	0.00014	-1e-05	-0.00054	6
28647	3e-05	-1e-05	-4e-05	-3e-05	-2e-05	0.00014	-1e-05	-0.00054	6
28648	3e-05	-1e-05	-4e-05	-3e-05	-2e-05	0.00014	-1e-05	-0.00054	6
28649	3e-05	-1e-05	-4e-05	-3e-05	-2e-05	0.00014	-1e-05	-0.00054	6
28650	3e-05	-1e-05	-4e-05	-3e-05	-2e-05	0.00014	-1e-05	-0.00054	6
28651	3e-05	-1e-05	-4e-05	-3e-05	-2e-05	0.00014	-1e-05	-0.00054	6
28652	3e-05	-1e-05	-4e-05	-3e-05	-2e-05	0.00014	-1e-05	-0.00054	6
28653	9e-05	-2e-05	-1e-05	-1e-05	0.0001	0.00019	-0.0001	0.00062	6
28654	9e-05	-2e-05	-1e-05	-1e-05	0.0001	0.00019	-0.0001	0.00062	6
28655	9e-05	-2e-05	-1e-05	-1e-05	0.0001	0.00019	-0.0001	0.00062	6
28656	9e-05	-2e-05	-1e-05	-1e-05	0.0001	0.00019	-0.0001	0.00062	6
28657	9e-05	-2e-05	-1e-05	-1e-05	0.0001	0.00019	-0.0001	0.00062	6
28658	9e-05	-2e-05	-1e-05	-1e-05	0.0001	0.00019	-0.0001	0.00062	6
28659	9e-05	-2e-05	-1e-05	-1e-05	0.0001	0.00019	-0.0001	0.00062	6
28660	9e-05	-2e-05	-1e-05	-1e-05	0.0001	0.00019	-0.0001	0.00062	6
28661	-9e-05	0	-1e-05	2e-05	0	0.0003	9e-05	-1e-05	6
28662	-9e-05	0	-1e-05	2e-05	0	0.0003	9e-05	-1e-05	6
28663	-9e-05	0	-1e-05	2e-05	0	0.0003	9e-05	-1e-05	6
28664	-9e-05	0	-1e-05	2e-05	0	0.0003	9e-05	-1e-05	6
28665	-9e-05	0	-1e-05	2e-05	0	0.0003	9e-05	-1e-05	6
28666	-9e-05	0	-1e-05	2e-05	0	0.0003	9e-05	-1e-05	6
28667	-9e-05	0	-1e-05	2e-05	0	0.0003	9e-05	-1e-05	6
28668	-9e-05	0	-1e-05	2e-05	0	0.0003	9e-05	-1e-05	6
28669	-9e-05	0	-1e-05	2e-05	0	0.0003	9e-05	-1e-05	6
28670	-9e-05	0	-1e-05	2e-05	0	0.0003	9e-05	-1e-05	6
28671	-9e-05	0	-1e-05	2e-05	0	0.0003	9e-05	-1e-05	6
28672	-9e-05	0	-1e-05	2e-05	0	0.0003	9e-05	-1e-05	6
28673	-9e-05	0	-1e-05	2e-05	0	0.0003	9e-05	-1e-05	6
28674	-9e-05	0	-1e-05	2e-05	0	0.0003	9e-05	-1e-05	6
28675	-9e-05	0	-1e-05	2e-05	0	0.0003	9e-05	-1e-05	6
28676	1e-05	1e-05	1e-05	-1e-05	5e-05	8e-05	-0.00012	-0.00017	6
28677	1e-05	1e-05	1e-05	-1e-05	5e-05	8e-05	-0.00012	-0.00017	6
28678	-8e-05	-3e-05	1e-05	0.00018	0.00041	0.00052	-5e-05	-0.00026	6
28679	-8e-05	-3e-05	1e-05	0.00018	0.00041	0.00052	-5e-05	-0.00026	6
28680	-8e-05	-3e-05	1e-05	0.00018	0.00041	0.00052	-5e-05	-0.00026	6
28681	-8e-05	-3e-05	1e-05	0.00018	0.00041	0.00052	-5e-05	-0.00026	6
28682	-8e-05	-3e-05	1e-05	0.00018	0.00041	0.00052	-5e-05	-0.00026	6
28683	-8e-05	-3e-05	1e-05	0.00018	0.00041	0.00052	-5e-05	-0.00026	6
28684	-8e-05	-3e-05	1e-05	0.00018	0.00041	0.00052	-5e-05	-0.00026	6
28685	-8e-05	-3e-05	1e-05	0.00018	0.00041	0.00052	-5e-05	-0.00026	6
28686	-8e-05	-3e-05	1e-05	0.00018	0.00041	0.00052	-5e-05	-0.00026	6
28688	-8e-05	-3e-05	1e-05	0.00018	0.00041	0.00052	-5e-05	-0.00026	6
28689	-8e-05	-3e-05	1e-05	0.00018	0.00041	0.00052	-5e-05	-0.00026	6
28690	-8e-05	-3e-05	1e-05	0.00018	0.00041	0.00052	-5e-05	-0.00026	6
28691	-8e-05	-3e-05	1e-05	0.00018	0.00041	0.00052	-5e-05	-0.00026	6
28692	-8e-05	-3e-05	1e-05	0.00018	0.00041	0.00052	-5e-05	-0.00026	6
28693	-8e-05	-3e-05	1e-05	0.00018	0.00041	0.00052	-5e-05	-0.00026	6
28694	-8e-05	-3e-05	1e-05	0.00018	0.00041	0.00052	-5e-05	-0.00026	6
28695	-8e-05	-3e-05	1e-05	0.00018	0.00041	0.00052	-5e-05	-0.00026	6
28696	-8e-05	-3e-05	1e-05	0.00018	0.00041	0.00052	-5e-05	-0.00026	6
28697	-8e-05	-3e-05	1e-05	0.00018	0.00041	0.00052	-5e-05	-0.00026	6
28698	-8e-05	-3e-05	1e-05	0.00018	0.00041	0.00052	-5e-05	-0.00026	6
28699	-0.0001	-3e-05	-3e-05	-0.0001	-0.00018	7e-05	-9e-05	-0.0003	6
28700	-8e-05	-4e-05	-5e-05	-0.0001	-0.0003	-0.00015	-2e-05	-0.00018	6
28701	-8e-05	-4e-05	-5e-05	-0.0001	-0.0003	-0.00015	-2e-05	-0.00018	6
28702	-8e-05	-4e-05	-5e-05	-0.0001	-0.0003	-0.00015	-2e-05	-0.00018	6
28703	-8e-05	-4e-05	-5e-05	-0.0001	-0.0003	-0.00015	-2e-05	-0.00018	6
28704	-8e-05	-4e-05	-5e-05	-0.0001	-0.0003	-0.00015	-2e-05	-0.00018	6
28705	-8e-05	-4e-05	-5e-05	-0.0001	-0.0003	-0.00015	-2e-05	-0.00018	6
28706	-8e-05	-4e-05	-5e-05	-0.0001	-0.0003	-0.00015	-2e-05	-0.00018	6
28707	-8e-05	-4e-05	-5e-05	-0.0001	-0.0003	-0.00015	-2e-05	-0.00018	6
28708	-8e-05	-4e-05	-5e-05	-0.0001	-0.0003	-0.00015	-2e-05	-0.00018	6
28709	-8e-05	-4e-05	-5e-05	-0.0001	-0.0003	-0.00015	-2e-05	-0.00018	6
28710	-8e-05	-4e-05	-5e-05	-0.0001	-0.0003	-0.00015	-2e-05	-0.00018	6
28711	-8e-05	-4e-05	-5e-05	-0.0001	-0.0003	-0.00015	-2e-05	-0.00018	6
28712	-8e-05	-4e-05	-5e-05	-0.0001	-0.0003	-0.00015	-2e-05	-0.00018	6
28713	1e-05	0	-1e-05	0	-2e-05	-7e-05	0	-6e-05	6
28714	1e-05	0	-1e-05	0	-2e-05	-7e-05	0	-6e-05	6
28715	1e-05	0	-1e-05	0	-2e-05	-7e-05	0	-6e-05	6
28716	1e-05	0	-1e-05	0	-2e-05	-7e-05	0	-6e-05	6
28717	1e-05	0	-1e-05	0	-2e-05	-7e-05	0	-6e-05	6
28718	1e-05	0	-1e-05	0	-2e-05	-7e-05	0	-6e-05	6
28719	1e-05	0	-1e-05	0	-2e-05	-7e-05	0	-6e-05	6
28720	1e-05	0	-1e-05	0	-2e-05	-7e-05	0	-6e-05	6
28721	5e-05	4e-05	3e-05	2e-05	3e-05	0.00037	-6e-05	9e-05	6
28722	5e-05	4e-05	3e-05	2e-05	3e-05	0.00037	-6e-05	9e-05	6
28723	5e-05	4e-05	3e-05	2e-05	3e-05	0.00037	-6e-05	9e-05	6
28724	5e-05	4e-05	3e-05	2e-05	3e-05	0.00037	-6e-05	9e-05	6
28725	5e-05	4e-05	3e-05	2e-05	3e-05	0.00037	-6e-05	9e-05	6
28726	5e-05	4e-05	3e-05	2e-05	3e-05	0.00037	-6e-05	9e-05	6
28727	5e-05	4e-05	3e-05	2e-05	3e-05	0.00037	-6e-05	9e-05	6
28728	5e-05	4e-05	3e-05	2e-05	3e-05	0.00037	-6e-05	9e-05	6
28729	5e-05	4e-05	3e-05	2e-05	3e-05	0.00037	-6e-05	9e-05	6
28730	5e-05	4e-05	3e-05	2e-05	3e-05	0.00037	-6e-05	9e-05	6
28731	5e-05	4e-05	3e-05	2e-05	3e-05	0.00037	-6e-05	9e-05	6
28732	5e-05	4e-05	3e-05	2e-05	3e-05	0.00037	-6e-05	9e-05	6
28733	5e-05	4e-05	3e-05	2e-05	3e-05	0.00037	-6e-05	9e-05	6
28734	5e-05	4e-05	3e-05	2e-05	3e-05	0.00037	-6e-05	9e-05	6
28735	5e-05	4e-05	3e-05	2e-05	3e-05	0.00037	-6e-05	9e-05	6
28736	-3e-05	-1e-05	-1e-05	-1e-05	-8e-05	-2e-05	6e-05	0.00013	6
28738	0.00018	3e-05	2e-05	5e-05	0.00034	0.00053	-5e-05	0.00072	6
28739	0.00018	3e-05	2e-05	5e-05	0.00034	0.00053	-5e-05	0.00072	6
28740	0.00018	3e-05	2e-05	5e-05	0.00034	0.00053	-5e-05	0.00072	6
28741	0.00018	3e-05	2e-05	5e-05	0.00034	0.00053	-5e-05	0.00072	6
28742	0.00018	3e-05	2e-05	5e-05	0.00034	0.00053	-5e-05	0.00072	6
28743	0.00018	3e-05	2e-05	5e-05	0.00034	0.00053	-5e-05	0.00072	6
28744	0.00018	3e-05	2e-05	5e-05	0.00034	0.00053	-5e-05	0.00072	6
28746	0.00018	3e-05	2e-05	5e-05	0.00034	0.00053	-5e-05	0.00072	6
28747	0.00018	3e-05	2e-05	5e-05	0.00034	0.00053	-5e-05	0.00072	6
28748	0.00018	3e-05	2e-05	5e-05	0.00034	0.00053	-5e-05	0.00072	6
28749	0.00018	3e-05	2e-05	5e-05	0.00034	0.00053	-5e-05	0.00072	6
28750	0.00018	3e-05	2e-05	5e-05	0.00034	0.00053	-5e-05	0.00072	6
28751	0.00018	3e-05	2e-05	5e-05	0.00034	0.00053	-5e-05	0.00072	6
28752	0.00018	3e-05	2e-05	5e-05	0.00034	0.00053	-5e-05	0.00072	6
28753	0.00018	3e-05	2e-05	5e-05	0.00034	0.00053	-5e-05	0.00072	6
28754	0.00018	3e-05	2e-05	5e-05	0.00034	0.00053	-5e-05	0.00072	6
28755	0.00018	3e-05	2e-05	5e-05	0.00034	0.00053	-5e-05	0.00072	6
28756	0.00018	3e-05	2e-05	5e-05	0.00034	0.00053	-5e-05	0.00072	6
28757	0.00018	3e-05	2e-05	5e-05	0.00034	0.00053	-5e-05	0.00072	6
28758	0.00018	3e-05	2e-05	5e-05	0.00034	0.00053	-5e-05	0.00072	6
28759	-6e-05	-4e-05	-2e-05	-6e-05	-4e-05	-0.00031	-5e-05	-0.0002	6
28760	-6e-05	-4e-05	-2e-05	-6e-05	-4e-05	-0.00031	-5e-05	-0.0002	6
28761	-6e-05	-4e-05	-2e-05	-6e-05	-4e-05	-0.00031	-5e-05	-0.0002	6
28762	-6e-05	-4e-05	-2e-05	-6e-05	-4e-05	-0.00031	-5e-05	-0.0002	6
28763	-6e-05	-4e-05	-2e-05	-6e-05	-4e-05	-0.00031	-5e-05	-0.0002	6
28764	-6e-05	-4e-05	-2e-05	-6e-05	-4e-05	-0.00031	-5e-05	-0.0002	6
28765	-6e-05	-4e-05	-2e-05	-6e-05	-4e-05	-0.00031	-5e-05	-0.0002	6
28766	-6e-05	-4e-05	-2e-05	-6e-05	-4e-05	-0.00031	-5e-05	-0.0002	6
28767	-6e-05	-4e-05	-2e-05	-6e-05	-4e-05	-0.00031	-5e-05	-0.0002	6
28768	-6e-05	-4e-05	-2e-05	-6e-05	-4e-05	-0.00031	-5e-05	-0.0002	6
28769	-6e-05	-4e-05	-2e-05	-6e-05	-4e-05	-0.00031	-5e-05	-0.0002	6
28770	-6e-05	-4e-05	-2e-05	-6e-05	-4e-05	-0.00031	-5e-05	-0.0002	6
28771	-6e-05	-4e-05	-2e-05	-6e-05	-4e-05	-0.00031	-5e-05	-0.0002	6
28772	-6e-05	-4e-05	-2e-05	-6e-05	-4e-05	-0.00031	-5e-05	-0.0002	6
28773	-0.00017	-4e-05	-1e-05	1e-05	2e-05	-6e-05	-3e-05	-0.00053	6
28774	-0.00017	-4e-05	-1e-05	1e-05	2e-05	-6e-05	-3e-05	-0.00053	6
28775	-0.00017	-4e-05	-1e-05	1e-05	2e-05	-6e-05	-3e-05	-0.00053	6
28776	-0.00017	-4e-05	-1e-05	1e-05	2e-05	-6e-05	-3e-05	-0.00053	6
28777	-0.00017	-4e-05	-1e-05	1e-05	2e-05	-6e-05	-3e-05	-0.00053	6
28778	-0.00017	-4e-05	-1e-05	1e-05	2e-05	-6e-05	-3e-05	-0.00053	6
28779	-0.00017	-4e-05	-1e-05	1e-05	2e-05	-6e-05	-3e-05	-0.00053	6
28780	-0.00017	-4e-05	-1e-05	1e-05	2e-05	-6e-05	-3e-05	-0.00053	6
28781	0	-2e-05	-2e-05	-8e-05	-4e-05	0.00028	0	-9e-05	6
28782	0	-2e-05	-2e-05	-8e-05	-4e-05	0.00028	0	-9e-05	6
28783	0	-2e-05	-2e-05	-8e-05	-4e-05	0.00028	0	-9e-05	6
28784	0	-2e-05	-2e-05	-8e-05	-4e-05	0.00028	0	-9e-05	6
28785	0	-2e-05	-2e-05	-8e-05	-4e-05	0.00028	0	-9e-05	6
28786	0	-2e-05	-2e-05	-8e-05	-4e-05	0.00028	0	-9e-05	6
28788	0	-2e-05	-2e-05	-8e-05	-4e-05	0.00028	0	-9e-05	6
28789	0	-2e-05	-2e-05	-8e-05	-4e-05	0.00028	0	-9e-05	6
28790	0	-2e-05	-2e-05	-8e-05	-4e-05	0.00028	0	-9e-05	6
28791	0	-2e-05	-2e-05	-8e-05	-4e-05	0.00028	0	-9e-05	6
28792	0	-2e-05	-2e-05	-8e-05	-4e-05	0.00028	0	-9e-05	6
28793	0	-2e-05	-2e-05	-8e-05	-4e-05	0.00028	0	-9e-05	6
28794	0	-2e-05	-2e-05	-8e-05	-4e-05	0.00028	0	-9e-05	6
28795	0	-2e-05	-2e-05	-8e-05	-4e-05	0.00028	0	-9e-05	6
28796	-2e-05	0	1e-05	2e-05	9e-05	-1e-05	7e-05	-7e-05	6
28797	-0.00015	-1e-05	0	-1e-05	8e-05	-0.00033	-5e-05	-0.00052	6
28798	-0.00015	-1e-05	0	-1e-05	8e-05	-0.00033	-5e-05	-0.00052	6
28799	-0.00015	-1e-05	0	-1e-05	8e-05	-0.00033	-5e-05	-0.00052	6
28800	-0.00015	-1e-05	0	-1e-05	8e-05	-0.00033	-5e-05	-0.00052	6
28801	-0.00015	-1e-05	0	-1e-05	8e-05	-0.00033	-5e-05	-0.00052	6
28802	-0.00015	-1e-05	0	-1e-05	8e-05	-0.00033	-5e-05	-0.00052	6
28803	-0.00015	-1e-05	0	-1e-05	8e-05	-0.00033	-5e-05	-0.00052	6
28804	-0.00015	-1e-05	0	-1e-05	8e-05	-0.00033	-5e-05	-0.00052	6
28805	-0.00015	-1e-05	0	-1e-05	8e-05	-0.00033	-5e-05	-0.00052	6
28806	-0.00015	-1e-05	0	-1e-05	8e-05	-0.00033	-5e-05	-0.00052	6
28807	-0.00015	-1e-05	0	-1e-05	8e-05	-0.00033	-5e-05	-0.00052	6
28808	-0.00015	-1e-05	0	-1e-05	8e-05	-0.00033	-5e-05	-0.00052	6
28809	-0.00015	-1e-05	0	-1e-05	8e-05	-0.00033	-5e-05	-0.00052	6
28810	-0.00015	-1e-05	0	-1e-05	8e-05	-0.00033	-5e-05	-0.00052	6
28811	-0.00015	-1e-05	0	-1e-05	8e-05	-0.00033	-5e-05	-0.00052	6
28812	-0.00015	-1e-05	0	-1e-05	8e-05	-0.00033	-5e-05	-0.00052	6
28813	-0.00015	-1e-05	0	-1e-05	8e-05	-0.00033	-5e-05	-0.00052	6
28814	-0.00015	-1e-05	0	-1e-05	8e-05	-0.00033	-5e-05	-0.00052	6
28815	-0.00015	-1e-05	0	-1e-05	8e-05	-0.00033	-5e-05	-0.00052	6
28816	-0.00015	-1e-05	0	-1e-05	8e-05	-0.00033	-5e-05	-0.00052	6
28817	-0.00015	-1e-05	0	-1e-05	8e-05	-0.00033	-5e-05	-0.00052	6
28818	-0.00015	-1e-05	0	-1e-05	8e-05	-0.00033	-5e-05	-0.00052	6
28819	-4e-05	0	0	3e-05	9e-05	-0.00014	1e-05	-4e-05	6
28820	-4e-05	0	0	3e-05	9e-05	-0.00014	1e-05	-4e-05	6
28821	-4e-05	0	0	3e-05	9e-05	-0.00014	1e-05	-4e-05	6
28822	-4e-05	0	0	3e-05	9e-05	-0.00014	1e-05	-4e-05	6
28823	-4e-05	0	0	3e-05	9e-05	-0.00014	1e-05	-4e-05	6
28824	-4e-05	0	0	3e-05	9e-05	-0.00014	1e-05	-4e-05	6
28825	-4e-05	0	0	3e-05	9e-05	-0.00014	1e-05	-4e-05	6
28826	-4e-05	0	0	3e-05	9e-05	-0.00014	1e-05	-4e-05	6
28827	-4e-05	0	0	3e-05	9e-05	-0.00014	1e-05	-4e-05	6
28828	-4e-05	0	0	3e-05	9e-05	-0.00014	1e-05	-4e-05	6
28829	-4e-05	0	0	3e-05	9e-05	-0.00014	1e-05	-4e-05	6
28830	-4e-05	0	0	3e-05	9e-05	-0.00014	1e-05	-4e-05	6
28831	-4e-05	0	0	3e-05	9e-05	-0.00014	1e-05	-4e-05	6
28832	-4e-05	0	0	3e-05	9e-05	-0.00014	1e-05	-4e-05	6
28833	-0.00016	3e-05	2e-05	5e-05	0.00017	0.0006	0.00045	0.00019	6
28834	-0.00016	3e-05	2e-05	5e-05	0.00017	0.0006	0.00045	0.00019	6
28835	-0.00016	3e-05	2e-05	5e-05	0.00017	0.0006	0.00045	0.00019	6
28836	-0.00016	3e-05	2e-05	5e-05	0.00017	0.0006	0.00045	0.00019	6
28838	-0.00016	3e-05	2e-05	5e-05	0.00017	0.0006	0.00045	0.00019	6
28839	-0.00016	3e-05	2e-05	5e-05	0.00017	0.0006	0.00045	0.00019	6
28840	-0.00016	3e-05	2e-05	5e-05	0.00017	0.0006	0.00045	0.00019	6
28841	-2e-05	-3e-05	-2e-05	-5e-05	-0.00023	-0.00014	6e-05	-4e-05	6
28842	-2e-05	-3e-05	-2e-05	-5e-05	-0.00023	-0.00014	6e-05	-4e-05	6
28843	-2e-05	-3e-05	-2e-05	-5e-05	-0.00023	-0.00014	6e-05	-4e-05	6
28844	-2e-05	-3e-05	-2e-05	-5e-05	-0.00023	-0.00014	6e-05	-4e-05	6
28845	-2e-05	-3e-05	-2e-05	-5e-05	-0.00023	-0.00014	6e-05	-4e-05	6
28846	-2e-05	-3e-05	-2e-05	-5e-05	-0.00023	-0.00014	6e-05	-4e-05	6
28847	-2e-05	-3e-05	-2e-05	-5e-05	-0.00023	-0.00014	6e-05	-4e-05	6
28848	-2e-05	-3e-05	-2e-05	-5e-05	-0.00023	-0.00014	6e-05	-4e-05	6
28849	-2e-05	-3e-05	-2e-05	-5e-05	-0.00023	-0.00014	6e-05	-4e-05	6
28850	-2e-05	-3e-05	-2e-05	-5e-05	-0.00023	-0.00014	6e-05	-4e-05	6
28851	-2e-05	-3e-05	-2e-05	-5e-05	-0.00023	-0.00014	6e-05	-4e-05	6
28852	-2e-05	-3e-05	-2e-05	-5e-05	-0.00023	-0.00014	6e-05	-4e-05	6
28853	-2e-05	-3e-05	-2e-05	-5e-05	-0.00023	-0.00014	6e-05	-4e-05	6
28854	-2e-05	-3e-05	-2e-05	-5e-05	-0.00023	-0.00014	6e-05	-4e-05	6
28855	-2e-05	-3e-05	-2e-05	-5e-05	-0.00023	-0.00014	6e-05	-4e-05	6
28856	-2e-05	-1e-05	0	-1e-05	-0.0002	-0.00024	-0.00017	-0.00016	6
28857	0.00011	3e-05	-1e-05	-0.0001	-0.0009	0.00014	-0.00025	0.00061	6
28858	0.00011	3e-05	-1e-05	-0.0001	-0.0009	0.00014	-0.00025	0.00061	6
28859	0.00011	3e-05	-1e-05	-0.0001	-0.0009	0.00014	-0.00025	0.00061	6
28860	0.00011	3e-05	-1e-05	-0.0001	-0.0009	0.00014	-0.00025	0.00061	6
28861	0.00011	3e-05	-1e-05	-0.0001	-0.0009	0.00014	-0.00025	0.00061	6
28862	0.00011	3e-05	-1e-05	-0.0001	-0.0009	0.00014	-0.00025	0.00061	6
28863	0.00011	3e-05	-1e-05	-0.0001	-0.0009	0.00014	-0.00025	0.00061	6
28864	0.00011	3e-05	-1e-05	-0.0001	-0.0009	0.00014	-0.00025	0.00061	6
28865	0.00011	3e-05	-1e-05	-0.0001	-0.0009	0.00014	-0.00025	0.00061	6
28866	0.00011	3e-05	-1e-05	-0.0001	-0.0009	0.00014	-0.00025	0.00061	6
28867	0.00011	3e-05	-1e-05	-0.0001	-0.0009	0.00014	-0.00025	0.00061	6
28868	0.00011	3e-05	-1e-05	-0.0001	-0.0009	0.00014	-0.00025	0.00061	6
28869	0.00011	3e-05	-1e-05	-0.0001	-0.0009	0.00014	-0.00025	0.00061	6
28870	0.00011	3e-05	-1e-05	-0.0001	-0.0009	0.00014	-0.00025	0.00061	6
28871	0.00011	3e-05	-1e-05	-0.0001	-0.0009	0.00014	-0.00025	0.00061	6
28872	0.00011	3e-05	-1e-05	-0.0001	-0.0009	0.00014	-0.00025	0.00061	6
28873	0.00011	3e-05	-1e-05	-0.0001	-0.0009	0.00014	-0.00025	0.00061	6
28874	0.00011	3e-05	-1e-05	-0.0001	-0.0009	0.00014	-0.00025	0.00061	6
28875	0.00011	3e-05	-1e-05	-0.0001	-0.0009	0.00014	-0.00025	0.00061	6
28876	0.00011	3e-05	-1e-05	-0.0001	-0.0009	0.00014	-0.00025	0.00061	6
28877	0.00011	3e-05	-1e-05	-0.0001	-0.0009	0.00014	-0.00025	0.00061	6
28878	0.00011	3e-05	-1e-05	-0.0001	-0.0009	0.00014	-0.00025	0.00061	6
28879	-3e-05	0	-1e-05	-6e-05	0.00011	-0.00026	9e-05	-0.00042	6
28880	-3e-05	0	-1e-05	-6e-05	0.00011	-0.00026	9e-05	-0.00042	6
28881	-3e-05	0	-1e-05	-6e-05	0.00011	-0.00026	9e-05	-0.00042	6
28882	-3e-05	0	-1e-05	-6e-05	0.00011	-0.00026	9e-05	-0.00042	6
28883	-3e-05	0	-1e-05	-6e-05	0.00011	-0.00026	9e-05	-0.00042	6
28884	-3e-05	0	-1e-05	-6e-05	0.00011	-0.00026	9e-05	-0.00042	6
28885	-3e-05	0	-1e-05	-6e-05	0.00011	-0.00026	9e-05	-0.00042	6
28886	-3e-05	0	-1e-05	-6e-05	0.00011	-0.00026	9e-05	-0.00042	6
28888	-3e-05	0	-1e-05	-6e-05	0.00011	-0.00026	9e-05	-0.00042	6
28889	-3e-05	0	-1e-05	-6e-05	0.00011	-0.00026	9e-05	-0.00042	6
28890	-3e-05	0	-1e-05	-6e-05	0.00011	-0.00026	9e-05	-0.00042	6
28891	-3e-05	0	-1e-05	-6e-05	0.00011	-0.00026	9e-05	-0.00042	6
28892	-3e-05	0	-1e-05	-6e-05	0.00011	-0.00026	9e-05	-0.00042	6
28893	0.00015	2e-05	2e-05	3e-05	1e-05	0.00041	-0.00019	0.00028	6
28894	0.00015	2e-05	2e-05	3e-05	1e-05	0.00041	-0.00019	0.00028	6
28895	0.00015	2e-05	2e-05	3e-05	1e-05	0.00041	-0.00019	0.00028	6
28896	0.00015	2e-05	2e-05	3e-05	1e-05	0.00041	-0.00019	0.00028	6
28897	0.00015	2e-05	2e-05	3e-05	1e-05	0.00041	-0.00019	0.00028	6
28898	0.00015	2e-05	2e-05	3e-05	1e-05	0.00041	-0.00019	0.00028	6
28899	0.00015	2e-05	2e-05	3e-05	1e-05	0.00041	-0.00019	0.00028	6
28900	0.00015	2e-05	2e-05	3e-05	1e-05	0.00041	-0.00019	0.00028	6
28901	-3e-05	-3e-05	-3e-05	0	0.00017	-0.0001	4e-05	6e-05	6
28902	-3e-05	-3e-05	-3e-05	0	0.00017	-0.0001	4e-05	6e-05	6
28903	-3e-05	-3e-05	-3e-05	0	0.00017	-0.0001	4e-05	6e-05	6
28904	-3e-05	-3e-05	-3e-05	0	0.00017	-0.0001	4e-05	6e-05	6
28905	-3e-05	-3e-05	-3e-05	0	0.00017	-0.0001	4e-05	6e-05	6
28906	-3e-05	-3e-05	-3e-05	0	0.00017	-0.0001	4e-05	6e-05	6
28907	-3e-05	-3e-05	-3e-05	0	0.00017	-0.0001	4e-05	6e-05	6
28908	-3e-05	-3e-05	-3e-05	0	0.00017	-0.0001	4e-05	6e-05	6
28909	-3e-05	-3e-05	-3e-05	0	0.00017	-0.0001	4e-05	6e-05	6
28910	-3e-05	-3e-05	-3e-05	0	0.00017	-0.0001	4e-05	6e-05	6
28911	-3e-05	-3e-05	-3e-05	0	0.00017	-0.0001	4e-05	6e-05	6
28912	-3e-05	-3e-05	-3e-05	0	0.00017	-0.0001	4e-05	6e-05	6
28913	-3e-05	-3e-05	-3e-05	0	0.00017	-0.0001	4e-05	6e-05	6
28914	-3e-05	-3e-05	-3e-05	0	0.00017	-0.0001	4e-05	6e-05	6
28915	-3e-05	-3e-05	-3e-05	0	0.00017	-0.0001	4e-05	6e-05	6
28916	-0.00022	-6e-05	-4e-05	-4e-05	0.00016	-0.00015	0.00015	-0.00023	6
28917	-4e-05	-2e-05	-1e-05	4e-05	0.0003	9e-05	7e-05	-6e-05	6
28918	-4e-05	-2e-05	-1e-05	4e-05	0.0003	9e-05	7e-05	-6e-05	6
28919	-4e-05	-2e-05	-1e-05	4e-05	0.0003	9e-05	7e-05	-6e-05	6
28920	-4e-05	-2e-05	-1e-05	4e-05	0.0003	9e-05	7e-05	-6e-05	6
28921	-4e-05	-2e-05	-1e-05	4e-05	0.0003	9e-05	7e-05	-6e-05	6
28922	-4e-05	-2e-05	-1e-05	4e-05	0.0003	9e-05	7e-05	-6e-05	6
28923	-4e-05	-2e-05	-1e-05	4e-05	0.0003	9e-05	7e-05	-6e-05	6
28924	-4e-05	-2e-05	-1e-05	4e-05	0.0003	9e-05	7e-05	-6e-05	6
28925	-4e-05	-2e-05	-1e-05	4e-05	0.0003	9e-05	7e-05	-6e-05	6
28926	-4e-05	-2e-05	-1e-05	4e-05	0.0003	9e-05	7e-05	-6e-05	6
28927	-4e-05	-2e-05	-1e-05	4e-05	0.0003	9e-05	7e-05	-6e-05	6
28928	-4e-05	-2e-05	-1e-05	4e-05	0.0003	9e-05	7e-05	-6e-05	6
28929	-4e-05	-2e-05	-1e-05	4e-05	0.0003	9e-05	7e-05	-6e-05	6
28930	-4e-05	-2e-05	-1e-05	4e-05	0.0003	9e-05	7e-05	-6e-05	6
28931	-4e-05	-2e-05	-1e-05	4e-05	0.0003	9e-05	7e-05	-6e-05	6
28932	-4e-05	-2e-05	-1e-05	4e-05	0.0003	9e-05	7e-05	-6e-05	6
28933	-4e-05	-2e-05	-1e-05	4e-05	0.0003	9e-05	7e-05	-6e-05	6
28934	-4e-05	-2e-05	-1e-05	4e-05	0.0003	9e-05	7e-05	-6e-05	6
28935	-4e-05	-2e-05	-1e-05	4e-05	0.0003	9e-05	7e-05	-6e-05	6
28936	-4e-05	-2e-05	-1e-05	4e-05	0.0003	9e-05	7e-05	-6e-05	6
28938	-4e-05	-2e-05	-1e-05	4e-05	0.0003	9e-05	7e-05	-6e-05	6
28939	0.00018	1e-05	0	-5e-05	-0.00058	1e-05	-6e-05	0.0006	6
28940	0.00018	1e-05	0	-5e-05	-0.00058	1e-05	-6e-05	0.0006	6
28941	0.00018	1e-05	0	-5e-05	-0.00058	1e-05	-6e-05	0.0006	6
28942	0.00018	1e-05	0	-5e-05	-0.00058	1e-05	-6e-05	0.0006	6
28943	0.00018	1e-05	0	-5e-05	-0.00058	1e-05	-6e-05	0.0006	6
28944	0.00018	1e-05	0	-5e-05	-0.00058	1e-05	-6e-05	0.0006	6
28945	0.00018	1e-05	0	-5e-05	-0.00058	1e-05	-6e-05	0.0006	6
28946	0.00018	1e-05	0	-5e-05	-0.00058	1e-05	-6e-05	0.0006	6
28947	0.00018	1e-05	0	-5e-05	-0.00058	1e-05	-6e-05	0.0006	6
28948	0.00018	1e-05	0	-5e-05	-0.00058	1e-05	-6e-05	0.0006	6
28949	0.00018	1e-05	0	-5e-05	-0.00058	1e-05	-6e-05	0.0006	6
28950	0.00018	1e-05	0	-5e-05	-0.00058	1e-05	-6e-05	0.0006	6
28951	0.00018	1e-05	0	-5e-05	-0.00058	1e-05	-6e-05	0.0006	6
28952	0.00018	1e-05	0	-5e-05	-0.00058	1e-05	-6e-05	0.0006	6
28953	0.00018	1e-05	0	-5e-05	-0.00058	1e-05	-6e-05	0.0006	6
28954	0.00018	1e-05	0	-5e-05	-0.00058	1e-05	-6e-05	0.0006	6
28955	0.00018	1e-05	0	-5e-05	-0.00058	1e-05	-6e-05	0.0006	6
28956	0.00018	1e-05	0	-5e-05	-0.00058	1e-05	-6e-05	0.0006	6
28957	0.00018	1e-05	0	-5e-05	-0.00058	1e-05	-6e-05	0.0006	6
28958	0.00018	1e-05	0	-5e-05	-0.00058	1e-05	-6e-05	0.0006	6
28959	0.00018	1e-05	0	-5e-05	-0.00058	1e-05	-6e-05	0.0006	6
28960	0.00018	1e-05	0	-5e-05	-0.00058	1e-05	-6e-05	0.0006	6
28961	0.00018	1e-05	0	-5e-05	-0.00058	1e-05	-6e-05	0.0006	6
28962	4e-05	-5e-05	-4e-05	0	0.00023	-0.00051	-7e-05	5e-05	6
28963	-0.00013	-2e-05	-2e-05	-2e-05	7e-05	5e-05	0.00015	-0.00062	6
28964	-0.00013	-2e-05	-2e-05	-2e-05	7e-05	5e-05	0.00015	-0.00062	6
28965	-0.00013	-2e-05	-2e-05	-2e-05	7e-05	5e-05	0.00015	-0.00062	6
28966	-0.00013	-2e-05	-2e-05	-2e-05	7e-05	5e-05	0.00015	-0.00062	6
28967	-0.00013	-2e-05	-2e-05	-2e-05	7e-05	5e-05	0.00015	-0.00062	6
28968	-0.00013	-2e-05	-2e-05	-2e-05	7e-05	5e-05	0.00015	-0.00062	6
28969	-0.00013	-2e-05	-2e-05	-2e-05	7e-05	5e-05	0.00015	-0.00062	6
28970	-0.00013	-2e-05	-2e-05	-2e-05	7e-05	5e-05	0.00015	-0.00062	6
28971	-0.00013	-2e-05	-2e-05	-2e-05	7e-05	5e-05	0.00015	-0.00062	6
28972	-0.00013	-2e-05	-2e-05	-2e-05	7e-05	5e-05	0.00015	-0.00062	6
28973	-0.00013	-2e-05	-2e-05	-2e-05	7e-05	5e-05	0.00015	-0.00062	6
28974	-0.00013	-2e-05	-2e-05	-2e-05	7e-05	5e-05	0.00015	-0.00062	6
28975	-0.00013	-2e-05	-2e-05	-2e-05	7e-05	5e-05	0.00015	-0.00062	6
28976	-1e-05	-1e-05	2e-05	-1e-05	-0.00011	-0.00014	-9e-05	-9e-05	6
28977	-0.00012	-6e-05	-8e-05	-7e-05	-2e-05	-0.00029	3e-05	-0.00072	6
28978	-0.00012	-6e-05	-8e-05	-7e-05	-2e-05	-0.00029	3e-05	-0.00072	6
28980	-0.00012	-6e-05	-8e-05	-7e-05	-2e-05	-0.00029	3e-05	-0.00072	6
28981	-0.00012	-6e-05	-8e-05	-7e-05	-2e-05	-0.00029	3e-05	-0.00072	6
28982	-0.00012	-6e-05	-8e-05	-7e-05	-2e-05	-0.00029	3e-05	-0.00072	6
