4085	-1e-05	0	4e-05	0.00013	-3e-05	-2e-05	-1e-05	0	0
4088	-1e-05	0	4e-05	0.00013	-3e-05	-2e-05	-1e-05	0	0
4089	-1e-05	0	4e-05	0.00013	-3e-05	-2e-05	-1e-05	0	0
4090	-1e-05	0	4e-05	0.00013	-3e-05	-2e-05	-1e-05	0	0
4091	-1e-05	0	4e-05	0.00013	-3e-05	-2e-05	-1e-05	0	0
4092	-1e-05	0	4e-05	0.00013	-3e-05	-2e-05	-1e-05	0	0
4093	-1e-05	0	4e-05	0.00013	-3e-05	-2e-05	-1e-05	0	0
4094	3e-05	1e-05	1e-05	1e-05	0	1e-05	-1e-05	1e-05	0
4095	3e-05	1e-05	1e-05	1e-05	0	1e-05	-1e-05	1e-05	0
4096	3e-05	1e-05	1e-05	1e-05	0	1e-05	-1e-05	1e-05	0
4097	3e-05	1e-05	1e-05	1e-05	0	1e-05	-1e-05	1e-05	0
4098	3e-05	1e-05	1e-05	1e-05	0	1e-05	-1e-05	1e-05	0
4099	3e-05	1e-05	1e-05	1e-05	0	1e-05	-1e-05	1e-05	0
4100	3e-05	1e-05	1e-05	1e-05	0	1e-05	-1e-05	1e-05	0
4101	3e-05	1e-05	1e-05	1e-05	0	1e-05	-1e-05	1e-05	0
4102	3e-05	1e-05	1e-05	1e-05	0	1e-05	-1e-05	1e-05	0
4103	1e-05	1e-05	0	-1e-05	0	-1e-05	0	0	0
4104	1e-05	1e-05	0	-1e-05	0	-1e-05	0	0	0
4105	1e-05	1e-05	0	-1e-05	0	-1e-05	0	0	0
4106	1e-05	1e-05	0	-1e-05	0	-1e-05	0	0	0
4107	1e-05	1e-05	0	-1e-05	0	-1e-05	0	0	0
4108	1e-05	1e-05	0	-1e-05	0	-1e-05	0	0	0
4109	1e-05	1e-05	0	-1e-05	0	-1e-05	0	0	0
4110	1e-05	1e-05	0	-1e-05	0	-1e-05	0	0	0
4111	1e-05	1e-05	0	-1e-05	0	-1e-05	0	0	0
4112	1e-05	1e-05	0	-1e-05	0	-1e-05	0	0	0
4113	1e-05	1e-05	0	-1e-05	0	-1e-05	0	0	0
4114	1e-05	1e-05	0	-1e-05	0	-1e-05	0	0	0
4115	1e-05	1e-05	0	-1e-05	0	-1e-05	0	0	0
4116	1e-05	1e-05	0	-1e-05	0	-1e-05	0	0	0
4117	1e-05	1e-05	0	-1e-05	0	-1e-05	0	0	0
4118	1e-05	1e-05	0	-1e-05	0	-1e-05	0	0	0
4119	2e-05	2e-05	0	-0.00011	-4e-05	-1e-05	-2e-05	0	0
4120	-1e-05	-3e-05	-1e-05	0.0002	0.0002	1e-05	-2e-05	-1e-05	0
4121	-1e-05	-3e-05	-1e-05	0.0002	0.0002	1e-05	-2e-05	-1e-05	0
4122	-1e-05	-3e-05	-1e-05	0.0002	0.0002	1e-05	-2e-05	-1e-05	0
4123	-1e-05	-3e-05	-1e-05	0.0002	0.0002	1e-05	-2e-05	-1e-05	0
4124	-1e-05	-3e-05	-1e-05	0.0002	0.0002	1e-05	-2e-05	-1e-05	0
4125	-1e-05	-3e-05	-1e-05	0.0002	0.0002	1e-05	-2e-05	-1e-05	0
4126	-1e-05	-3e-05	-1e-05	0.0002	0.0002	1e-05	-2e-05	-1e-05	0
4127	-1e-05	-3e-05	-1e-05	0.0002	0.0002	1e-05	-2e-05	-1e-05	0
4128	-1e-05	-3e-05	-1e-05	0.0002	0.0002	1e-05	-2e-05	-1e-05	0
4129	-1e-05	-3e-05	-1e-05	0.0002	0.0002	1e-05	-2e-05	-1e-05	0
4130	-1e-05	-3e-05	-1e-05	0.0002	0.0002	1e-05	-2e-05	-1e-05	0
4131	-1e-05	-3e-05	-1e-05	0.0002	0.0002	1e-05	-2e-05	-1e-05	0
4132	-1e-05	-3e-05	-1e-05	0.0002	0.0002	1e-05	-2e-05	-1e-05	0
4133	-1e-05	-3e-05	-1e-05	0.0002	0.0002	1e-05	-2e-05	-1e-05	0
4134	-1e-05	-3e-05	-1e-05	0.0002	0.0002	1e-05	-2e-05	-1e-05	0
4135	-1e-05	-3e-05	-1e-05	0.0002	0.0002	1e-05	-2e-05	-1e-05	0
4136	-1e-05	-3e-05	-1e-05	0.0002	0.0002	1e-05	-2e-05	-1e-05	0
4138	-1e-05	-3e-05	-1e-05	0.0002	0.0002	1e-05	-2e-05	-1e-05	0
4139	-1e-05	-3e-05	-1e-05	0.0002	0.0002	1e-05	-2e-05	-1e-05	0
4140	-1e-05	-3e-05	-4e-05	0	0.00015	-1e-05	0	2e-05	0
4141	-1e-05	-1e-05	-4e-05	-4e-05	-6e-05	0	1e-05	-1e-05	0
4142	-2e-05	-1e-05	-2e-05	-0.0001	-0.0001	-2e-05	0	0	0
4143	-2e-05	-1e-05	-2e-05	-0.0001	-0.0001	-2e-05	0	0	0
4144	-2e-05	-1e-05	-2e-05	-0.0001	-0.0001	-2e-05	0	0	0
4145	-2e-05	-1e-05	-2e-05	-0.0001	-0.0001	-2e-05	0	0	0
4146	-2e-05	-1e-05	-2e-05	-0.0001	-0.0001	-2e-05	0	0	0
4147	-2e-05	-1e-05	-2e-05	-0.0001	-0.0001	-2e-05	0	0	0
4148	-2e-05	-1e-05	-2e-05	-0.0001	-0.0001	-2e-05	0	0	0
4149	-2e-05	-1e-05	-2e-05	-0.0001	-0.0001	-2e-05	0	0	0
4150	-2e-05	-1e-05	-2e-05	-0.0001	-0.0001	-2e-05	0	0	0
4151	-2e-05	-1e-05	-2e-05	-0.0001	-0.0001	-2e-05	0	0	0
4152	-2e-05	-1e-05	-2e-05	-0.0001	-0.0001	-2e-05	0	0	0
4154	0	-1e-05	-3e-05	-5e-05	-2e-05	0	1e-05	0	0
4155	0	-1e-05	-3e-05	-5e-05	-2e-05	0	1e-05	0	0
4156	0	-1e-05	-3e-05	-5e-05	-2e-05	0	1e-05	0	0
4157	0	-1e-05	-3e-05	-5e-05	-2e-05	0	1e-05	0	0
4158	0	-1e-05	-3e-05	-5e-05	-2e-05	0	1e-05	0	0
4159	0	-1e-05	-3e-05	-5e-05	-2e-05	0	1e-05	0	0
4160	0	-1e-05	-3e-05	-5e-05	-2e-05	0	1e-05	0	0
4161	0	-1e-05	-3e-05	-5e-05	-2e-05	0	1e-05	0	0
4162	0	-1e-05	-3e-05	-5e-05	-2e-05	0	1e-05	0	0
4163	0	0	1e-05	8e-05	1e-05	1e-05	-2e-05	-2e-05	0
4164	0	0	1e-05	8e-05	1e-05	1e-05	-2e-05	-2e-05	0
4165	0	0	1e-05	8e-05	1e-05	1e-05	-2e-05	-2e-05	0
4166	0	0	1e-05	8e-05	1e-05	1e-05	-2e-05	-2e-05	0
4167	0	0	1e-05	8e-05	1e-05	1e-05	-2e-05	-2e-05	0
4168	0	0	1e-05	8e-05	1e-05	1e-05	-2e-05	-2e-05	0
4169	0	0	1e-05	8e-05	1e-05	1e-05	-2e-05	-2e-05	0
4170	0	0	1e-05	8e-05	1e-05	1e-05	-2e-05	-2e-05	0
4171	0	0	1e-05	8e-05	1e-05	1e-05	-2e-05	-2e-05	0
4172	0	0	1e-05	8e-05	1e-05	1e-05	-2e-05	-2e-05	0
4173	0	0	1e-05	8e-05	1e-05	1e-05	-2e-05	-2e-05	0
4174	0	0	1e-05	8e-05	1e-05	1e-05	-2e-05	-2e-05	0
4175	0	0	1e-05	8e-05	1e-05	1e-05	-2e-05	-2e-05	0
4176	0	0	1e-05	8e-05	1e-05	1e-05	-2e-05	-2e-05	0
4177	0	0	1e-05	8e-05	1e-05	1e-05	-2e-05	-2e-05	0
4178	-3e-05	0	3e-05	3e-05	4e-05	-2e-05	0	0	0
4179	-3e-05	0	3e-05	3e-05	4e-05	-2e-05	0	0	0
4180	-1e-05	1e-05	0	-8e-05	-2e-05	-1e-05	-2e-05	-2e-05	0
4181	-1e-05	1e-05	0	-8e-05	-2e-05	-1e-05	-2e-05	-2e-05	0
4182	-1e-05	1e-05	0	-8e-05	-2e-05	-1e-05	-2e-05	-2e-05	0
4183	-1e-05	1e-05	0	-8e-05	-2e-05	-1e-05	-2e-05	-2e-05	0
4184	-1e-05	1e-05	0	-8e-05	-2e-05	-1e-05	-2e-05	-2e-05	0
4185	-1e-05	1e-05	0	-8e-05	-2e-05	-1e-05	-2e-05	-2e-05	0
4186	-1e-05	1e-05	0	-8e-05	-2e-05	-1e-05	-2e-05	-2e-05	0
4188	-1e-05	1e-05	0	-8e-05	-2e-05	-1e-05	-2e-05	-2e-05	0
4189	-1e-05	1e-05	0	-8e-05	-2e-05	-1e-05	-2e-05	-2e-05	0
4190	-1e-05	1e-05	0	-8e-05	-2e-05	-1e-05	-2e-05	-2e-05	0
4191	-1e-05	1e-05	0	-8e-05	-2e-05	-1e-05	-2e-05	-2e-05	0
4192	-1e-05	1e-05	0	-8e-05	-2e-05	-1e-05	-2e-05	-2e-05	0
4193	-1e-05	1e-05	0	-8e-05	-2e-05	-1e-05	-2e-05	-2e-05	0
4194	-1e-05	1e-05	0	-8e-05	-2e-05	-1e-05	-2e-05	-2e-05	0
4195	-1e-05	1e-05	0	-8e-05	-2e-05	-1e-05	-2e-05	-2e-05	0
4196	-1e-05	1e-05	0	-8e-05	-2e-05	-1e-05	-2e-05	-2e-05	0
4197	-1e-05	1e-05	0	-8e-05	-2e-05	-1e-05	-2e-05	-2e-05	0
4198	-1e-05	1e-05	0	-8e-05	-2e-05	-1e-05	-2e-05	-2e-05	0
4199	-1e-05	1e-05	0	-8e-05	-2e-05	-1e-05	-2e-05	-2e-05	0
4200	-1e-05	1e-05	0	-8e-05	-2e-05	-1e-05	-2e-05	-2e-05	0
4201	-1e-05	-2e-05	-4e-05	-0.00011	-8e-05	-2e-05	-3e-05	-3e-05	0
4202	-5e-05	-4e-05	-7e-05	-0.00016	-0.00016	-3e-05	-1e-05	-1e-05	0
4204	-5e-05	-4e-05	-7e-05	-0.00016	-0.00016	-3e-05	-1e-05	-1e-05	0
4205	-5e-05	-4e-05	-7e-05	-0.00016	-0.00016	-3e-05	-1e-05	-1e-05	0
4206	-5e-05	-4e-05	-7e-05	-0.00016	-0.00016	-3e-05	-1e-05	-1e-05	0
4207	-5e-05	-4e-05	-7e-05	-0.00016	-0.00016	-3e-05	-1e-05	-1e-05	0
4208	-5e-05	-4e-05	-7e-05	-0.00016	-0.00016	-3e-05	-1e-05	-1e-05	0
4209	-5e-05	-4e-05	-7e-05	-0.00016	-0.00016	-3e-05	-1e-05	-1e-05	0
4210	-5e-05	-4e-05	-7e-05	-0.00016	-0.00016	-3e-05	-1e-05	-1e-05	0
4211	-5e-05	-4e-05	-7e-05	-0.00016	-0.00016	-3e-05	-1e-05	-1e-05	0
4212	-5e-05	-4e-05	-7e-05	-0.00016	-0.00016	-3e-05	-1e-05	-1e-05	0
4213	-5e-05	-4e-05	-7e-05	-0.00016	-0.00016	-3e-05	-1e-05	-1e-05	0
4214	-1e-05	1e-05	1e-05	-2e-05	-2e-05	-1e-05	-1e-05	0	0
4215	-1e-05	1e-05	1e-05	-2e-05	-2e-05	-1e-05	-1e-05	0	0
4216	-1e-05	1e-05	1e-05	-2e-05	-2e-05	-1e-05	-1e-05	0	0
4217	-1e-05	1e-05	1e-05	-2e-05	-2e-05	-1e-05	-1e-05	0	0
4218	-1e-05	1e-05	1e-05	-2e-05	-2e-05	-1e-05	-1e-05	0	0
4219	-1e-05	1e-05	1e-05	-2e-05	-2e-05	-1e-05	-1e-05	0	0
4220	-1e-05	1e-05	1e-05	-2e-05	-2e-05	-1e-05	-1e-05	0	0
4221	-1e-05	1e-05	1e-05	-2e-05	-2e-05	-1e-05	-1e-05	0	0
4222	-1e-05	1e-05	1e-05	-2e-05	-2e-05	-1e-05	-1e-05	0	0
4223	-2e-05	1e-05	5e-05	0.00022	0.00017	1e-05	-1e-05	-2e-05	0
4225	-2e-05	1e-05	5e-05	0.00022	0.00017	1e-05	-1e-05	-2e-05	0
4226	-2e-05	1e-05	5e-05	0.00022	0.00017	1e-05	-1e-05	-2e-05	0
4227	-2e-05	1e-05	5e-05	0.00022	0.00017	1e-05	-1e-05	-2e-05	0
4228	-2e-05	1e-05	5e-05	0.00022	0.00017	1e-05	-1e-05	-2e-05	0
4229	-2e-05	1e-05	5e-05	0.00022	0.00017	1e-05	-1e-05	-2e-05	0
4230	-2e-05	1e-05	5e-05	0.00022	0.00017	1e-05	-1e-05	-2e-05	0
4231	-2e-05	1e-05	5e-05	0.00022	0.00017	1e-05	-1e-05	-2e-05	0
4232	-2e-05	1e-05	5e-05	0.00022	0.00017	1e-05	-1e-05	-2e-05	0
4233	-2e-05	1e-05	5e-05	0.00022	0.00017	1e-05	-1e-05	-2e-05	0
4234	-2e-05	1e-05	5e-05	0.00022	0.00017	1e-05	-1e-05	-2e-05	0
4235	-2e-05	1e-05	5e-05	0.00022	0.00017	1e-05	-1e-05	-2e-05	0
4236	-2e-05	1e-05	5e-05	0.00022	0.00017	1e-05	-1e-05	-2e-05	0
4239	-1e-05	-2e-05	3e-05	0.00015	0.00024	-1e-05	1e-05	1e-05	0
4240	-3e-05	-2e-05	-0.00011	-0.00013	-0.00013	-3e-05	-1e-05	0	0
4241	-3e-05	-2e-05	-0.00011	-0.00013	-0.00013	-3e-05	-1e-05	0	0
4242	-3e-05	-2e-05	-0.00011	-0.00013	-0.00013	-3e-05	-1e-05	0	0
4243	-3e-05	-2e-05	-0.00011	-0.00013	-0.00013	-3e-05	-1e-05	0	0
4244	-3e-05	-2e-05	-0.00011	-0.00013	-0.00013	-3e-05	-1e-05	0	0
4245	-3e-05	-2e-05	-0.00011	-0.00013	-0.00013	-3e-05	-1e-05	0	0
4246	-3e-05	-2e-05	-0.00011	-0.00013	-0.00013	-3e-05	-1e-05	0	0
4247	-3e-05	-2e-05	-0.00011	-0.00013	-0.00013	-3e-05	-1e-05	0	0
4248	-3e-05	-2e-05	-0.00011	-0.00013	-0.00013	-3e-05	-1e-05	0	0
4249	-3e-05	-2e-05	-0.00011	-0.00013	-0.00013	-3e-05	-1e-05	0	0
4250	-3e-05	-2e-05	-0.00011	-0.00013	-0.00013	-3e-05	-1e-05	0	0
4251	-3e-05	-2e-05	-0.00011	-0.00013	-0.00013	-3e-05	-1e-05	0	0
4252	-3e-05	-2e-05	-0.00011	-0.00013	-0.00013	-3e-05	-1e-05	0	0
4254	-3e-05	-2e-05	-0.00011	-0.00013	-0.00013	-3e-05	-1e-05	0	0
4255	-3e-05	-2e-05	-0.00011	-0.00013	-0.00013	-3e-05	-1e-05	0	0
4256	-3e-05	-2e-05	-0.00011	-0.00013	-0.00013	-3e-05	-1e-05	0	0
4257	-3e-05	-2e-05	-0.00011	-0.00013	-0.00013	-3e-05	-1e-05	0	0
4258	-3e-05	-2e-05	-0.00011	-0.00013	-0.00013	-3e-05	-1e-05	0	0
4259	-3e-05	-2e-05	-0.00011	-0.00013	-0.00013	-3e-05	-1e-05	0	0
4260	0	0	3e-05	-2e-05	2e-05	-1e-05	-2e-05	-2e-05	0
4261	-2e-05	1e-05	1e-05	3e-05	-8e-05	-2e-05	-2e-05	-2e-05	0
4262	-1e-05	-5e-05	-6e-05	-9e-05	9e-05	-4e-05	-3e-05	-3e-05	0
4263	-1e-05	-5e-05	-6e-05	-9e-05	9e-05	-4e-05	-3e-05	-3e-05	0
4264	-1e-05	-5e-05	-6e-05	-9e-05	9e-05	-4e-05	-3e-05	-3e-05	0
4265	-1e-05	-5e-05	-6e-05	-9e-05	9e-05	-4e-05	-3e-05	-3e-05	0
4266	-1e-05	-5e-05	-6e-05	-9e-05	9e-05	-4e-05	-3e-05	-3e-05	0
4267	-1e-05	-5e-05	-6e-05	-9e-05	9e-05	-4e-05	-3e-05	-3e-05	0
4268	-1e-05	-5e-05	-6e-05	-9e-05	9e-05	-4e-05	-3e-05	-3e-05	0
4269	-1e-05	-5e-05	-6e-05	-9e-05	9e-05	-4e-05	-3e-05	-3e-05	0
4270	-1e-05	-5e-05	-6e-05	-9e-05	9e-05	-4e-05	-3e-05	-3e-05	0
4271	-1e-05	-5e-05	-6e-05	-9e-05	9e-05	-4e-05	-3e-05	-3e-05	0
4272	-1e-05	-5e-05	-6e-05	-9e-05	9e-05	-4e-05	-3e-05	-3e-05	0
4273	-1e-05	-5e-05	-6e-05	-9e-05	9e-05	-4e-05	-3e-05	-3e-05	0
4274	2e-05	0	-4e-05	5e-05	-1e-05	-2e-05	0	-2e-05	0
4275	2e-05	0	-4e-05	5e-05	-1e-05	-2e-05	0	-2e-05	0
4276	2e-05	0	-4e-05	5e-05	-1e-05	-2e-05	0	-2e-05	0
4277	2e-05	0	-4e-05	5e-05	-1e-05	-2e-05	0	-2e-05	0
4278	2e-05	0	-4e-05	5e-05	-1e-05	-2e-05	0	-2e-05	0
4279	2e-05	0	-4e-05	5e-05	-1e-05	-2e-05	0	-2e-05	0
4280	2e-05	0	-4e-05	5e-05	-1e-05	-2e-05	0	-2e-05	0
4281	2e-05	0	-4e-05	5e-05	-1e-05	-2e-05	0	-2e-05	0
4282	2e-05	0	-4e-05	5e-05	-1e-05	-2e-05	0	-2e-05	0
4283	2e-05	1e-05	-1e-05	-6e-05	-0.00021	-1e-05	-1e-05	0	0
4284	2e-05	1e-05	-1e-05	-6e-05	-0.00021	-1e-05	-1e-05	0	0
4285	2e-05	1e-05	-1e-05	-6e-05	-0.00021	-1e-05	-1e-05	0	0
4287	2e-05	1e-05	-1e-05	-6e-05	-0.00021	-1e-05	-1e-05	0	0
4290	2e-05	1e-05	-1e-05	-6e-05	-0.00021	-1e-05	-1e-05	0	0
4291	2e-05	1e-05	-1e-05	-6e-05	-0.00021	-1e-05	-1e-05	0	0
4292	2e-05	1e-05	-1e-05	-6e-05	-0.00021	-1e-05	-1e-05	0	0
4293	2e-05	1e-05	-1e-05	-6e-05	-0.00021	-1e-05	-1e-05	0	0
4294	2e-05	1e-05	-1e-05	-6e-05	-0.00021	-1e-05	-1e-05	0	0
4295	2e-05	1e-05	-1e-05	-6e-05	-0.00021	-1e-05	-1e-05	0	0
4296	2e-05	1e-05	-1e-05	-6e-05	-0.00021	-1e-05	-1e-05	0	0
4297	2e-05	1e-05	-1e-05	-6e-05	-0.00021	-1e-05	-1e-05	0	0
4298	0	-1e-05	-1e-05	-2e-05	6e-05	0	-3e-05	-2e-05	0
4299	0	-1e-05	-1e-05	-2e-05	6e-05	0	-3e-05	-2e-05	0
4300	0	0	2e-05	0.00013	0.00013	2e-05	-1e-05	1e-05	0
4301	0	0	2e-05	0.00013	0.00013	2e-05	-1e-05	1e-05	0
4302	0	0	2e-05	0.00013	0.00013	2e-05	-1e-05	1e-05	0
4304	0	0	2e-05	0.00013	0.00013	2e-05	-1e-05	1e-05	0
4305	0	0	2e-05	0.00013	0.00013	2e-05	-1e-05	1e-05	0
4306	0	0	2e-05	0.00013	0.00013	2e-05	-1e-05	1e-05	0
4307	0	0	2e-05	0.00013	0.00013	2e-05	-1e-05	1e-05	0
4308	0	0	2e-05	0.00013	0.00013	2e-05	-1e-05	1e-05	0
4309	0	0	2e-05	0.00013	0.00013	2e-05	-1e-05	1e-05	0
4310	0	0	2e-05	0.00013	0.00013	2e-05	-1e-05	1e-05	0
4311	0	0	2e-05	0.00013	0.00013	2e-05	-1e-05	1e-05	0
4312	0	0	2e-05	0.00013	0.00013	2e-05	-1e-05	1e-05	0
4313	0	0	2e-05	0.00013	0.00013	2e-05	-1e-05	1e-05	0
4314	0	0	2e-05	0.00013	0.00013	2e-05	-1e-05	1e-05	0
4315	0	0	2e-05	0.00013	0.00013	2e-05	-1e-05	1e-05	0
4316	0	0	2e-05	0.00013	0.00013	2e-05	-1e-05	1e-05	0
4317	0	0	2e-05	0.00013	0.00013	2e-05	-1e-05	1e-05	0
4318	0	0	2e-05	0.00013	0.00013	2e-05	-1e-05	1e-05	0
4319	0	0	2e-05	0.00013	0.00013	2e-05	-1e-05	1e-05	0
4320	-1e-05	-3e-05	-5e-05	-0.00014	-0.00017	-3e-05	-3e-05	-1e-05	0
4321	0	-1e-05	0	2e-05	-1e-05	2e-05	1e-05	0	0
4322	0	0	5e-05	-8e-05	-4e-05	3e-05	-1e-05	-2e-05	0
4323	0	0	5e-05	-8e-05	-4e-05	3e-05	-1e-05	-2e-05	0
4324	0	0	5e-05	-8e-05	-4e-05	3e-05	-1e-05	-2e-05	0
4325	0	0	5e-05	-8e-05	-4e-05	3e-05	-1e-05	-2e-05	0
4326	0	0	5e-05	-8e-05	-4e-05	3e-05	-1e-05	-2e-05	0
4327	0	0	5e-05	-8e-05	-4e-05	3e-05	-1e-05	-2e-05	0
4328	0	0	5e-05	-8e-05	-4e-05	3e-05	-1e-05	-2e-05	0
4329	0	0	5e-05	-8e-05	-4e-05	3e-05	-1e-05	-2e-05	0
4330	0	0	5e-05	-8e-05	-4e-05	3e-05	-1e-05	-2e-05	0
4331	0	0	5e-05	-8e-05	-4e-05	3e-05	-1e-05	-2e-05	0
4332	0	0	5e-05	-8e-05	-4e-05	3e-05	-1e-05	-2e-05	0
4333	0	0	5e-05	-8e-05	-4e-05	3e-05	-1e-05	-2e-05	0
4334	-1e-05	-1e-05	-9e-05	-5e-05	-3e-05	-4e-05	-3e-05	-1e-05	0
4335	-1e-05	-1e-05	-9e-05	-5e-05	-3e-05	-4e-05	-3e-05	-1e-05	0
4337	-1e-05	-1e-05	-9e-05	-5e-05	-3e-05	-4e-05	-3e-05	-1e-05	0
4339	-1e-05	-1e-05	-9e-05	-5e-05	-3e-05	-4e-05	-3e-05	-1e-05	0
4340	-1e-05	-1e-05	-9e-05	-5e-05	-3e-05	-4e-05	-3e-05	-1e-05	0
4341	-1e-05	-1e-05	-9e-05	-5e-05	-3e-05	-4e-05	-3e-05	-1e-05	0
4342	-1e-05	-1e-05	-9e-05	-5e-05	-3e-05	-4e-05	-3e-05	-1e-05	0
4343	-1e-05	-1e-05	-9e-05	-5e-05	-3e-05	-4e-05	-3e-05	-1e-05	0
4344	-1e-05	-1e-05	-9e-05	-5e-05	-3e-05	-4e-05	-3e-05	-1e-05	0
4345	-1e-05	-1e-05	-9e-05	-5e-05	-3e-05	-4e-05	-3e-05	-1e-05	0
4346	-1e-05	-1e-05	-9e-05	-5e-05	-3e-05	-4e-05	-3e-05	-1e-05	0
4347	-1e-05	-1e-05	-9e-05	-5e-05	-3e-05	-4e-05	-3e-05	-1e-05	0
4348	-1e-05	-1e-05	-9e-05	-5e-05	-3e-05	-4e-05	-3e-05	-1e-05	0
4349	-3e-05	-5e-05	-5e-05	-0.00017	-0.00018	-1e-05	0	-2e-05	0
4350	-3e-05	-5e-05	-5e-05	-0.00017	-0.00018	-1e-05	0	-2e-05	0
4351	-3e-05	-5e-05	-5e-05	-0.00017	-0.00018	-1e-05	0	-2e-05	0
4352	-3e-05	-5e-05	-5e-05	-0.00017	-0.00018	-1e-05	0	-2e-05	0
4353	-3e-05	-5e-05	-5e-05	-0.00017	-0.00018	-1e-05	0	-2e-05	0
4354	-3e-05	-5e-05	-5e-05	-0.00017	-0.00018	-1e-05	0	-2e-05	0
4355	-3e-05	-5e-05	-5e-05	-0.00017	-0.00018	-1e-05	0	-2e-05	0
4356	-3e-05	-5e-05	-5e-05	-0.00017	-0.00018	-1e-05	0	-2e-05	0
4357	-3e-05	-5e-05	-5e-05	-0.00017	-0.00018	-1e-05	0	-2e-05	0
4358	-5e-05	-3e-05	-3e-05	-9e-05	-1e-05	2e-05	0	-3e-05	0
4359	-5e-05	-3e-05	-3e-05	-9e-05	-1e-05	2e-05	0	-3e-05	0
4360	0	1e-05	-2e-05	-4e-05	3e-05	-3e-05	1e-05	-1e-05	0
4361	0	1e-05	-2e-05	-4e-05	3e-05	-3e-05	1e-05	-1e-05	0
4362	0	1e-05	-2e-05	-4e-05	3e-05	-3e-05	1e-05	-1e-05	0
4363	0	1e-05	-2e-05	-4e-05	3e-05	-3e-05	1e-05	-1e-05	0
4364	0	1e-05	-2e-05	-4e-05	3e-05	-3e-05	1e-05	-1e-05	0
4365	0	1e-05	-2e-05	-4e-05	3e-05	-3e-05	1e-05	-1e-05	0
4366	0	1e-05	-2e-05	-4e-05	3e-05	-3e-05	1e-05	-1e-05	0
4367	0	1e-05	-2e-05	-4e-05	3e-05	-3e-05	1e-05	-1e-05	0
4368	0	1e-05	-2e-05	-4e-05	3e-05	-3e-05	1e-05	-1e-05	0
4369	0	1e-05	-2e-05	-4e-05	3e-05	-3e-05	1e-05	-1e-05	0
4370	0	1e-05	-2e-05	-4e-05	3e-05	-3e-05	1e-05	-1e-05	0
4371	0	1e-05	-2e-05	-4e-05	3e-05	-3e-05	1e-05	-1e-05	0
4372	0	1e-05	-2e-05	-4e-05	3e-05	-3e-05	1e-05	-1e-05	0
4373	0	1e-05	-2e-05	-4e-05	3e-05	-3e-05	1e-05	-1e-05	0
4374	0	1e-05	-2e-05	-4e-05	3e-05	-3e-05	1e-05	-1e-05	0
4375	0	1e-05	-2e-05	-4e-05	3e-05	-3e-05	1e-05	-1e-05	0
4376	0	1e-05	-2e-05	-4e-05	3e-05	-3e-05	1e-05	-1e-05	0
4377	0	1e-05	-2e-05	-4e-05	3e-05	-3e-05	1e-05	-1e-05	0
4378	0	1e-05	-2e-05	-4e-05	3e-05	-3e-05	1e-05	-1e-05	0
4379	0	1e-05	-2e-05	-4e-05	3e-05	-3e-05	1e-05	-1e-05	0
4380	0	1e-05	-2e-05	-4e-05	3e-05	-3e-05	1e-05	-1e-05	0
4381	-1e-05	0	3e-05	-2e-05	-0.0001	0	-1e-05	0	0
4382	0	0	3e-05	3e-05	-8e-05	-4e-05	-2e-05	-1e-05	0
4383	0	0	3e-05	3e-05	-8e-05	-4e-05	-2e-05	-1e-05	0
4384	0	0	3e-05	3e-05	-8e-05	-4e-05	-2e-05	-1e-05	0
4385	0	0	3e-05	3e-05	-8e-05	-4e-05	-2e-05	-1e-05	0
4386	0	0	3e-05	3e-05	-8e-05	-4e-05	-2e-05	-1e-05	0
4388	0	0	3e-05	3e-05	-8e-05	-4e-05	-2e-05	-1e-05	0
4389	0	0	3e-05	3e-05	-8e-05	-4e-05	-2e-05	-1e-05	0
4390	0	0	3e-05	3e-05	-8e-05	-4e-05	-2e-05	-1e-05	0
4391	0	0	3e-05	3e-05	-8e-05	-4e-05	-2e-05	-1e-05	0
4392	0	0	3e-05	3e-05	-8e-05	-4e-05	-2e-05	-1e-05	0
4393	0	0	3e-05	3e-05	-8e-05	-4e-05	-2e-05	-1e-05	0
4394	1e-05	2e-05	2e-05	5e-05	0.00012	3e-05	-1e-05	-1e-05	0
4395	1e-05	2e-05	2e-05	5e-05	0.00012	3e-05	-1e-05	-1e-05	0
4396	1e-05	2e-05	2e-05	5e-05	0.00012	3e-05	-1e-05	-1e-05	0
4397	1e-05	2e-05	2e-05	5e-05	0.00012	3e-05	-1e-05	-1e-05	0
4398	1e-05	2e-05	2e-05	5e-05	0.00012	3e-05	-1e-05	-1e-05	0
4399	1e-05	2e-05	2e-05	5e-05	0.00012	3e-05	-1e-05	-1e-05	0
4400	1e-05	2e-05	2e-05	5e-05	0.00012	3e-05	-1e-05	-1e-05	0
4401	1e-05	2e-05	2e-05	5e-05	0.00012	3e-05	-1e-05	-1e-05	0
4402	1e-05	2e-05	2e-05	5e-05	0.00012	3e-05	-1e-05	-1e-05	0
4403	1e-05	2e-05	2e-05	5e-05	0.00012	3e-05	-1e-05	-1e-05	0
4404	0	-3e-05	-2e-05	0	3e-05	2e-05	-1e-05	-1e-05	0
4405	0	-3e-05	-2e-05	0	3e-05	2e-05	-1e-05	-1e-05	0
4406	0	-3e-05	-2e-05	0	3e-05	2e-05	-1e-05	-1e-05	0
4407	0	-3e-05	-2e-05	0	3e-05	2e-05	-1e-05	-1e-05	0
4408	0	-3e-05	-2e-05	0	3e-05	2e-05	-1e-05	-1e-05	0
4409	0	-3e-05	-2e-05	0	3e-05	2e-05	-1e-05	-1e-05	0
4410	0	-3e-05	-2e-05	0	3e-05	2e-05	-1e-05	-1e-05	0
4411	0	-3e-05	-2e-05	0	3e-05	2e-05	-1e-05	-1e-05	0
4412	0	-3e-05	-2e-05	0	3e-05	2e-05	-1e-05	-1e-05	0
4413	0	-3e-05	-2e-05	0	3e-05	2e-05	-1e-05	-1e-05	0
4414	0	-3e-05	-2e-05	0	3e-05	2e-05	-1e-05	-1e-05	0
4415	0	-3e-05	-2e-05	0	3e-05	2e-05	-1e-05	-1e-05	0
4416	0	-3e-05	-2e-05	0	3e-05	2e-05	-1e-05	-1e-05	0
4417	0	-3e-05	-2e-05	0	3e-05	2e-05	-1e-05	-1e-05	0
4418	-2e-05	-4e-05	1e-05	0.0001	-2e-05	-1e-05	0	-2e-05	0
4419	-2e-05	-4e-05	1e-05	0.0001	-2e-05	-1e-05	0	-2e-05	0
4420	1e-05	-1e-05	5e-05	7e-05	0.00027	-1e-05	-1e-05	-1e-05	0
4421	1e-05	-1e-05	5e-05	7e-05	0.00027	-1e-05	-1e-05	-1e-05	0
4422	1e-05	-1e-05	5e-05	7e-05	0.00027	-1e-05	-1e-05	-1e-05	0
4423	1e-05	-1e-05	5e-05	7e-05	0.00027	-1e-05	-1e-05	-1e-05	0
4424	1e-05	-1e-05	5e-05	7e-05	0.00027	-1e-05	-1e-05	-1e-05	0
4425	1e-05	-1e-05	5e-05	7e-05	0.00027	-1e-05	-1e-05	-1e-05	0
4426	1e-05	-1e-05	5e-05	7e-05	0.00027	-1e-05	-1e-05	-1e-05	0
4427	1e-05	-1e-05	5e-05	7e-05	0.00027	-1e-05	-1e-05	-1e-05	0
4428	1e-05	-1e-05	5e-05	7e-05	0.00027	-1e-05	-1e-05	-1e-05	0
4429	1e-05	-1e-05	5e-05	7e-05	0.00027	-1e-05	-1e-05	-1e-05	0
4430	1e-05	-1e-05	5e-05	7e-05	0.00027	-1e-05	-1e-05	-1e-05	0
4431	1e-05	-1e-05	5e-05	7e-05	0.00027	-1e-05	-1e-05	-1e-05	0
4432	1e-05	-1e-05	5e-05	7e-05	0.00027	-1e-05	-1e-05	-1e-05	0
4433	1e-05	-1e-05	5e-05	7e-05	0.00027	-1e-05	-1e-05	-1e-05	0
4434	1e-05	-1e-05	5e-05	7e-05	0.00027	-1e-05	-1e-05	-1e-05	0
4435	1e-05	-1e-05	5e-05	7e-05	0.00027	-1e-05	-1e-05	-1e-05	0
4436	1e-05	-1e-05	5e-05	7e-05	0.00027	-1e-05	-1e-05	-1e-05	0
4438	1e-05	-1e-05	5e-05	7e-05	0.00027	-1e-05	-1e-05	-1e-05	0
4439	1e-05	-1e-05	5e-05	7e-05	0.00027	-1e-05	-1e-05	-1e-05	0
4440	1e-05	-1e-05	5e-05	7e-05	0.00027	-1e-05	-1e-05	-1e-05	0
4441	0	1e-05	5e-05	-4e-05	-2e-05	-2e-05	-1e-05	0	0
4442	-2e-05	-3e-05	-5e-05	3e-05	0.00023	5e-05	-1e-05	-2e-05	0
4443	-1e-05	-3e-05	-1e-05	-5e-05	-0.00024	-2e-05	1e-05	0	0
4444	-1e-05	-3e-05	-1e-05	-5e-05	-0.00024	-2e-05	1e-05	0	0
4445	-1e-05	-3e-05	-1e-05	-5e-05	-0.00024	-2e-05	1e-05	0	0
4446	-1e-05	-3e-05	-1e-05	-5e-05	-0.00024	-2e-05	1e-05	0	0
4447	-1e-05	-3e-05	-1e-05	-5e-05	-0.00024	-2e-05	1e-05	0	0
4448	-1e-05	-3e-05	-1e-05	-5e-05	-0.00024	-2e-05	1e-05	0	0
4449	-1e-05	-3e-05	-1e-05	-5e-05	-0.00024	-2e-05	1e-05	0	0
4450	-1e-05	-3e-05	-1e-05	-5e-05	-0.00024	-2e-05	1e-05	0	0
4451	-1e-05	-3e-05	-1e-05	-5e-05	-0.00024	-2e-05	1e-05	0	0
4452	-1e-05	-3e-05	-1e-05	-5e-05	-0.00024	-2e-05	1e-05	0	0
4455	-2e-05	-1e-05	-3e-05	-5e-05	-0.0002	-3e-05	1e-05	0	0
4456	-2e-05	-1e-05	-3e-05	-5e-05	-0.0002	-3e-05	1e-05	0	0
4457	-2e-05	-1e-05	-3e-05	-5e-05	-0.0002	-3e-05	1e-05	0	0
4458	-2e-05	-1e-05	-3e-05	-5e-05	-0.0002	-3e-05	1e-05	0	0
4459	-2e-05	-1e-05	-3e-05	-5e-05	-0.0002	-3e-05	1e-05	0	0
4460	-2e-05	-1e-05	-3e-05	-5e-05	-0.0002	-3e-05	1e-05	0	0
4461	-2e-05	-1e-05	-3e-05	-5e-05	-0.0002	-3e-05	1e-05	0	0
4462	-2e-05	-1e-05	-3e-05	-5e-05	-0.0002	-3e-05	1e-05	0	0
4463	-2e-05	-1e-05	-3e-05	-5e-05	-0.0002	-3e-05	1e-05	0	0
4464	-2e-05	-1e-05	-3e-05	-5e-05	-0.0002	-3e-05	1e-05	0	0
4465	-2e-05	-1e-05	-3e-05	-5e-05	-0.0002	-3e-05	1e-05	0	0
4466	-2e-05	-1e-05	-3e-05	-5e-05	-0.0002	-3e-05	1e-05	0	0
4467	-2e-05	-1e-05	-3e-05	-5e-05	-0.0002	-3e-05	1e-05	0	0
4468	-2e-05	-1e-05	-3e-05	-5e-05	-0.0002	-3e-05	1e-05	0	0
4469	-2e-05	-1e-05	-3e-05	-5e-05	-0.0002	-3e-05	1e-05	0	0
4470	-2e-05	-1e-05	-3e-05	-5e-05	-0.0002	-3e-05	1e-05	0	0
4471	-2e-05	0	-2e-05	-3e-05	-3e-05	-1e-05	-2e-05	1e-05	0
4472	-2e-05	0	-2e-05	-3e-05	-3e-05	-1e-05	-2e-05	1e-05	0
4473	-2e-05	0	-2e-05	-3e-05	-3e-05	-1e-05	-2e-05	1e-05	0
4474	-2e-05	0	-2e-05	-3e-05	-3e-05	-1e-05	-2e-05	1e-05	0
4475	-2e-05	0	-2e-05	-3e-05	-3e-05	-1e-05	-2e-05	1e-05	0
4476	-2e-05	0	-2e-05	-3e-05	-3e-05	-1e-05	-2e-05	1e-05	0
4477	-2e-05	0	-2e-05	-3e-05	-3e-05	-1e-05	-2e-05	1e-05	0
4478	0	-2e-05	-2e-05	-6e-05	-5e-05	-1e-05	-1e-05	0	0
4479	0	-2e-05	-2e-05	-6e-05	-5e-05	-1e-05	-1e-05	0	0
4480	-1e-05	-1e-05	-2e-05	-5e-05	-0.0001	0	0	-2e-05	0
4481	-1e-05	-1e-05	-2e-05	-5e-05	-0.0001	0	0	-2e-05	0
4482	-1e-05	-1e-05	-2e-05	-5e-05	-0.0001	0	0	-2e-05	0
4483	-1e-05	-1e-05	-2e-05	-5e-05	-0.0001	0	0	-2e-05	0
4484	-1e-05	-1e-05	-2e-05	-5e-05	-0.0001	0	0	-2e-05	0
4485	-1e-05	-1e-05	-2e-05	-5e-05	-0.0001	0	0	-2e-05	0
4487	-1e-05	-1e-05	-2e-05	-5e-05	-0.0001	0	0	-2e-05	0
4489	-1e-05	-1e-05	-2e-05	-5e-05	-0.0001	0	0	-2e-05	0
4490	-1e-05	-1e-05	-2e-05	-5e-05	-0.0001	0	0	-2e-05	0
4491	-1e-05	-1e-05	-2e-05	-5e-05	-0.0001	0	0	-2e-05	0
4492	-1e-05	-1e-05	-2e-05	-5e-05	-0.0001	0	0	-2e-05	0
4493	-1e-05	-1e-05	-2e-05	-5e-05	-0.0001	0	0	-2e-05	0
4494	-1e-05	-1e-05	-2e-05	-5e-05	-0.0001	0	0	-2e-05	0
4495	-1e-05	-1e-05	-2e-05	-5e-05	-0.0001	0	0	-2e-05	0
4496	-1e-05	-1e-05	-2e-05	-5e-05	-0.0001	0	0	-2e-05	0
4497	-1e-05	-1e-05	-2e-05	-5e-05	-0.0001	0	0	-2e-05	0
4498	-1e-05	-1e-05	-2e-05	-5e-05	-0.0001	0	0	-2e-05	0
4499	-1e-05	-1e-05	-2e-05	-5e-05	-0.0001	0	0	-2e-05	0
4500	-1e-05	-1e-05	-2e-05	-5e-05	-0.0001	0	0	-2e-05	0
4501	-1e-05	1e-05	1e-05	5e-05	0.0001	-1e-05	-3e-05	0	0
4502	0	0	5e-05	3e-05	8e-05	-3e-05	-1e-05	-1e-05	0
4504	-1e-05	-1e-05	-6e-05	-4e-05	-4e-05	-4e-05	-2e-05	-2e-05	0
4505	-1e-05	-1e-05	-6e-05	-4e-05	-4e-05	-4e-05	-2e-05	-2e-05	0
4506	-1e-05	-1e-05	-6e-05	-4e-05	-4e-05	-4e-05	-2e-05	-2e-05	0
4507	-1e-05	-1e-05	-6e-05	-4e-05	-4e-05	-4e-05	-2e-05	-2e-05	0
4508	-1e-05	-1e-05	-6e-05	-4e-05	-4e-05	-4e-05	-2e-05	-2e-05	0
4509	-1e-05	-1e-05	-6e-05	-4e-05	-4e-05	-4e-05	-2e-05	-2e-05	0
4510	-1e-05	-1e-05	-6e-05	-4e-05	-4e-05	-4e-05	-2e-05	-2e-05	0
4511	-1e-05	-1e-05	-6e-05	-4e-05	-4e-05	-4e-05	-2e-05	-2e-05	0
4512	-1e-05	-1e-05	-6e-05	-4e-05	-4e-05	-4e-05	-2e-05	-2e-05	0
4513	-1e-05	-1e-05	-6e-05	-4e-05	-4e-05	-4e-05	-2e-05	-2e-05	0
4514	-1e-05	-1e-05	-6e-05	-4e-05	-4e-05	-4e-05	-2e-05	-2e-05	0
4515	-1e-05	-1e-05	-6e-05	-4e-05	-4e-05	-4e-05	-2e-05	-2e-05	0
4516	-1e-05	-1e-05	-6e-05	-4e-05	-4e-05	-4e-05	-2e-05	-2e-05	0
4517	-1e-05	-1e-05	-6e-05	-4e-05	-4e-05	-4e-05	-2e-05	-2e-05	0
4518	-1e-05	-1e-05	-6e-05	-4e-05	-4e-05	-4e-05	-2e-05	-2e-05	0
4519	-1e-05	-1e-05	-6e-05	-4e-05	-4e-05	-4e-05	-2e-05	-2e-05	0
4520	-1e-05	-1e-05	-6e-05	-4e-05	-4e-05	-4e-05	-2e-05	-2e-05	0
4521	-1e-05	-1e-05	-6e-05	-4e-05	-4e-05	-4e-05	-2e-05	-2e-05	0
4522	-1e-05	-1e-05	-6e-05	-4e-05	-4e-05	-4e-05	-2e-05	-2e-05	0
4523	-1e-05	-1e-05	-6e-05	-4e-05	-4e-05	-4e-05	-2e-05	-2e-05	0
4524	-1e-05	-5e-05	-5e-05	-7e-05	-0.00019	-2e-05	0	-1e-05	0
4525	-1e-05	0	1e-05	6e-05	0.00013	1e-05	0	0	0
4526	-1e-05	0	1e-05	6e-05	0.00013	1e-05	0	0	0
4527	-1e-05	0	1e-05	6e-05	0.00013	1e-05	0	0	0
4528	-1e-05	0	1e-05	6e-05	0.00013	1e-05	0	0	0
4529	-1e-05	0	1e-05	6e-05	0.00013	1e-05	0	0	0
4530	-1e-05	0	1e-05	6e-05	0.00013	1e-05	0	0	0
4531	-1e-05	0	1e-05	6e-05	0.00013	1e-05	0	0	0
4532	-1e-05	0	1e-05	6e-05	0.00013	1e-05	0	0	0
4533	-1e-05	0	1e-05	6e-05	0.00013	1e-05	0	0	0
4534	-1e-05	0	1e-05	6e-05	0.00013	1e-05	0	0	0
4535	-1e-05	0	1e-05	6e-05	0.00013	1e-05	0	0	0
4537	-1e-05	0	1e-05	6e-05	0.00013	1e-05	0	0	0
4539	2e-05	2e-05	1e-05	6e-05	0.00042	2e-05	-3e-05	-1e-05	0
4540	1e-05	-1e-05	2e-05	6e-05	0.00017	-1e-05	-1e-05	-1e-05	0
4541	1e-05	-1e-05	2e-05	6e-05	0.00017	-1e-05	-1e-05	-1e-05	0
4542	1e-05	-1e-05	2e-05	6e-05	0.00017	-1e-05	-1e-05	-1e-05	0
4543	1e-05	-1e-05	2e-05	6e-05	0.00017	-1e-05	-1e-05	-1e-05	0
4544	1e-05	-1e-05	2e-05	6e-05	0.00017	-1e-05	-1e-05	-1e-05	0
4545	1e-05	-1e-05	2e-05	6e-05	0.00017	-1e-05	-1e-05	-1e-05	0
4546	1e-05	-1e-05	2e-05	6e-05	0.00017	-1e-05	-1e-05	-1e-05	0
4547	1e-05	-1e-05	2e-05	6e-05	0.00017	-1e-05	-1e-05	-1e-05	0
4548	1e-05	-1e-05	2e-05	6e-05	0.00017	-1e-05	-1e-05	-1e-05	0
4549	1e-05	-1e-05	2e-05	6e-05	0.00017	-1e-05	-1e-05	-1e-05	0
4550	1e-05	-1e-05	2e-05	6e-05	0.00017	-1e-05	-1e-05	-1e-05	0
4551	1e-05	-1e-05	2e-05	6e-05	0.00017	-1e-05	-1e-05	-1e-05	0
4552	1e-05	-1e-05	2e-05	6e-05	0.00017	-1e-05	-1e-05	-1e-05	0
4553	1e-05	-1e-05	2e-05	6e-05	0.00017	-1e-05	-1e-05	-1e-05	0
4554	1e-05	-1e-05	2e-05	6e-05	0.00017	-1e-05	-1e-05	-1e-05	0
4555	1e-05	-1e-05	2e-05	6e-05	0.00017	-1e-05	-1e-05	-1e-05	0
4556	1e-05	-1e-05	2e-05	6e-05	0.00017	-1e-05	-1e-05	-1e-05	0
4557	1e-05	-1e-05	2e-05	6e-05	0.00017	-1e-05	-1e-05	-1e-05	0
4558	1e-05	-1e-05	2e-05	6e-05	0.00017	-1e-05	-1e-05	-1e-05	0
4559	1e-05	-1e-05	2e-05	6e-05	0.00017	-1e-05	-1e-05	-1e-05	0
4560	1e-05	-1e-05	2e-05	6e-05	0.00017	-1e-05	-1e-05	-1e-05	0
4561	-1e-05	-1e-05	0	0.0001	5e-05	0	0	0	0
4562	0	0	-2e-05	-0.0001	-0.00017	-2e-05	-2e-05	-1e-05	0
4563	0	0	-2e-05	-0.0001	-0.00017	-2e-05	-2e-05	-1e-05	0
4564	0	0	-2e-05	-0.0001	-0.00017	-2e-05	-2e-05	-1e-05	0
4565	0	0	-2e-05	-0.0001	-0.00017	-2e-05	-2e-05	-1e-05	0
4566	0	0	-2e-05	-0.0001	-0.00017	-2e-05	-2e-05	-1e-05	0
4567	0	0	-2e-05	-0.0001	-0.00017	-2e-05	-2e-05	-1e-05	0
4568	0	0	-2e-05	-0.0001	-0.00017	-2e-05	-2e-05	-1e-05	0
4569	0	0	-2e-05	-0.0001	-0.00017	-2e-05	-2e-05	-1e-05	0
4570	0	0	-2e-05	-0.0001	-0.00017	-2e-05	-2e-05	-1e-05	0
4571	0	0	-2e-05	-0.0001	-0.00017	-2e-05	-2e-05	-1e-05	0
4572	0	0	-2e-05	-0.0001	-0.00017	-2e-05	-2e-05	-1e-05	0
4573	0	0	-2e-05	-0.0001	-0.00017	-2e-05	-2e-05	-1e-05	0
4574	0	0	-2e-05	-0.0001	-0.00017	-2e-05	-2e-05	-1e-05	0
4575	0	0	-2e-05	-0.0001	-0.00017	-2e-05	-2e-05	-1e-05	0
4576	0	0	-2e-05	-0.0001	-0.00017	-2e-05	-2e-05	-1e-05	0
4577	0	0	-2e-05	-0.0001	-0.00017	-2e-05	-2e-05	-1e-05	0
4578	0	0	-2e-05	-0.0001	-0.00017	-2e-05	-2e-05	-1e-05	0
4579	0	0	-2e-05	-0.0001	-0.00017	-2e-05	-2e-05	-1e-05	0
4580	0	0	-2e-05	-0.0001	-0.00017	-2e-05	-2e-05	-1e-05	0
4581	0	0	-2e-05	-0.0001	-0.00017	-2e-05	-2e-05	-1e-05	0
4582	0	0	-2e-05	-0.0001	-0.00017	-2e-05	-2e-05	-1e-05	0
4583	-1e-05	-4e-05	-4e-05	-9e-05	-8e-05	0	-1e-05	-2e-05	0
4584	0	-2e-05	1e-05	0	-1e-05	0	0	-1e-05	0
4585	1e-05	1e-05	2e-05	-5e-05	-0.00027	-3e-05	0	0	0
4586	1e-05	1e-05	2e-05	-5e-05	-0.00027	-3e-05	0	0	0
4589	1e-05	1e-05	2e-05	-5e-05	-0.00027	-3e-05	0	0	0
4590	1e-05	1e-05	2e-05	-5e-05	-0.00027	-3e-05	0	0	0
4591	1e-05	1e-05	2e-05	-5e-05	-0.00027	-3e-05	0	0	0
4592	1e-05	1e-05	2e-05	-5e-05	-0.00027	-3e-05	0	0	0
4593	1e-05	1e-05	2e-05	-5e-05	-0.00027	-3e-05	0	0	0
4594	1e-05	1e-05	2e-05	-5e-05	-0.00027	-3e-05	0	0	0
4595	1e-05	1e-05	2e-05	-5e-05	-0.00027	-3e-05	0	0	0
4596	1e-05	1e-05	2e-05	-5e-05	-0.00027	-3e-05	0	0	0
4597	1e-05	1e-05	2e-05	-5e-05	-0.00027	-3e-05	0	0	0
4598	1e-05	1e-05	-4e-05	2e-05	0.00011	0	0	1e-05	0
4599	-2e-05	-4e-05	-0.0001	-1e-05	0.0001	-1e-05	-1e-05	-1e-05	0
4600	-1e-05	-2e-05	-1e-05	2e-05	7e-05	-2e-05	-2e-05	-1e-05	0
4601	-1e-05	-2e-05	-1e-05	2e-05	7e-05	-2e-05	-2e-05	-1e-05	0
4602	-1e-05	-2e-05	-1e-05	2e-05	7e-05	-2e-05	-2e-05	-1e-05	0
4605	-1e-05	-2e-05	-1e-05	2e-05	7e-05	-2e-05	-2e-05	-1e-05	0
4606	-1e-05	-2e-05	-1e-05	2e-05	7e-05	-2e-05	-2e-05	-1e-05	0
4607	-1e-05	-2e-05	-1e-05	2e-05	7e-05	-2e-05	-2e-05	-1e-05	0
4608	-1e-05	-2e-05	-1e-05	2e-05	7e-05	-2e-05	-2e-05	-1e-05	0
4609	-1e-05	-2e-05	-1e-05	2e-05	7e-05	-2e-05	-2e-05	-1e-05	0
4610	-1e-05	-2e-05	-1e-05	2e-05	7e-05	-2e-05	-2e-05	-1e-05	0
4611	-1e-05	-2e-05	-1e-05	2e-05	7e-05	-2e-05	-2e-05	-1e-05	0
4612	-1e-05	-2e-05	-1e-05	2e-05	7e-05	-2e-05	-2e-05	-1e-05	0
4613	-1e-05	-2e-05	-1e-05	2e-05	7e-05	-2e-05	-2e-05	-1e-05	0
4614	-1e-05	-2e-05	-1e-05	2e-05	7e-05	-2e-05	-2e-05	-1e-05	0
4615	-1e-05	-2e-05	-1e-05	2e-05	7e-05	-2e-05	-2e-05	-1e-05	0
4616	-1e-05	-2e-05	-1e-05	2e-05	7e-05	-2e-05	-2e-05	-1e-05	0
4617	-1e-05	-2e-05	-1e-05	2e-05	7e-05	-2e-05	-2e-05	-1e-05	0
4618	-1e-05	-2e-05	-1e-05	2e-05	7e-05	-2e-05	-2e-05	-1e-05	0
4619	-1e-05	-2e-05	-1e-05	2e-05	7e-05	-2e-05	-2e-05	-1e-05	0
4620	-1e-05	-2e-05	-1e-05	2e-05	7e-05	-2e-05	-2e-05	-1e-05	0
4621	0	2e-05	3e-05	-7e-05	-9e-05	-2e-05	-1e-05	1e-05	0
4622	-1e-05	0	-3e-05	4e-05	0.00018	7e-05	1e-05	-1e-05	0
4623	-1e-05	0	-3e-05	4e-05	0.00018	7e-05	1e-05	-1e-05	0
4624	-1e-05	0	-3e-05	4e-05	0.00018	7e-05	1e-05	-1e-05	0
4625	-1e-05	0	-3e-05	4e-05	0.00018	7e-05	1e-05	-1e-05	0
4626	-1e-05	0	-3e-05	4e-05	0.00018	7e-05	1e-05	-1e-05	0
4627	-1e-05	0	-3e-05	4e-05	0.00018	7e-05	1e-05	-1e-05	0
4628	-1e-05	0	-3e-05	4e-05	0.00018	7e-05	1e-05	-1e-05	0
4629	-1e-05	0	-3e-05	4e-05	0.00018	7e-05	1e-05	-1e-05	0
4630	-1e-05	0	-3e-05	4e-05	0.00018	7e-05	1e-05	-1e-05	0
4631	-1e-05	0	-3e-05	4e-05	0.00018	7e-05	1e-05	-1e-05	0
4632	-1e-05	0	-3e-05	4e-05	0.00018	7e-05	1e-05	-1e-05	0
4633	-1e-05	0	-3e-05	4e-05	0.00018	7e-05	1e-05	-1e-05	0
4634	-1e-05	0	-3e-05	4e-05	0.00018	7e-05	1e-05	-1e-05	0
4635	-1e-05	0	-3e-05	4e-05	0.00018	7e-05	1e-05	-1e-05	0
4636	-1e-05	0	-3e-05	4e-05	0.00018	7e-05	1e-05	-1e-05	0
4639	-1e-05	0	-3e-05	4e-05	0.00018	7e-05	1e-05	-1e-05	0
4640	-1e-05	0	-3e-05	4e-05	0.00018	7e-05	1e-05	-1e-05	0
4641	-1e-05	0	-3e-05	4e-05	0.00018	7e-05	1e-05	-1e-05	0
4642	-1e-05	0	-3e-05	4e-05	0.00018	7e-05	1e-05	-1e-05	0
4643	-1e-05	-2e-05	1e-05	-4e-05	-3e-05	-2e-05	1e-05	-1e-05	0
4644	-2e-05	-2e-05	1e-05	-8e-05	-0.0001	1e-05	0	0	0
4645	-1e-05	-1e-05	-1e-05	0	0	-3e-05	0	1e-05	0
4646	-1e-05	-1e-05	-1e-05	0	0	-3e-05	0	1e-05	0
4647	-1e-05	-1e-05	-1e-05	0	0	-3e-05	0	1e-05	0
4648	-1e-05	-1e-05	-1e-05	0	0	-3e-05	0	1e-05	0
4649	-1e-05	-1e-05	-1e-05	0	0	-3e-05	0	1e-05	0
4650	-1e-05	-1e-05	-1e-05	0	0	-3e-05	0	1e-05	0
4651	-1e-05	-1e-05	-1e-05	0	0	-3e-05	0	1e-05	0
4652	-1e-05	-1e-05	-1e-05	0	0	-3e-05	0	1e-05	0
4654	-1e-05	-1e-05	-1e-05	0	0	-3e-05	0	1e-05	0
4655	-1e-05	-1e-05	-1e-05	0	0	-3e-05	0	1e-05	0
4656	-1e-05	-1e-05	-1e-05	0	0	-3e-05	0	1e-05	0
4657	-1e-05	0	2e-05	0	-6e-05	-2e-05	0	1e-05	0
4658	0	1e-05	0	-8e-05	-0.0001	0	0	0	0
4659	0	1e-05	0	-8e-05	-0.0001	0	0	0	0
4660	0	1e-05	0	-8e-05	-0.0001	0	0	0	0
4661	0	1e-05	0	-8e-05	-0.0001	0	0	0	0
4662	0	1e-05	0	-8e-05	-0.0001	0	0	0	0
4663	0	1e-05	0	-8e-05	-0.0001	0	0	0	0
4664	-1e-05	-7e-05	-0.00014	-0.00014	-5e-05	8e-05	1e-05	-1e-05	0
4665	-1e-05	-7e-05	-0.00014	-0.00014	-5e-05	8e-05	1e-05	-1e-05	0
4666	-1e-05	-7e-05	-0.00014	-0.00014	-5e-05	8e-05	1e-05	-1e-05	0
4667	-1e-05	-7e-05	-0.00014	-0.00014	-5e-05	8e-05	1e-05	-1e-05	0
4668	-1e-05	-7e-05	-0.00014	-0.00014	-5e-05	8e-05	1e-05	-1e-05	0
4669	-1e-05	-7e-05	-0.00014	-0.00014	-5e-05	8e-05	1e-05	-1e-05	0
4670	-1e-05	-7e-05	-0.00014	-0.00014	-5e-05	8e-05	1e-05	-1e-05	0
4671	-1e-05	-7e-05	-0.00014	-0.00014	-5e-05	8e-05	1e-05	-1e-05	0
4672	-1e-05	-7e-05	-0.00014	-0.00014	-5e-05	8e-05	1e-05	-1e-05	0
4673	-1e-05	-7e-05	-0.00014	-0.00014	-5e-05	8e-05	1e-05	-1e-05	0
4674	-1e-05	-7e-05	-0.00014	-0.00014	-5e-05	8e-05	1e-05	-1e-05	0
4675	-1e-05	-7e-05	-0.00014	-0.00014	-5e-05	8e-05	1e-05	-1e-05	0
4676	-1e-05	-7e-05	-0.00014	-0.00014	-5e-05	8e-05	1e-05	-1e-05	0
4677	-1e-05	-7e-05	-0.00014	-0.00014	-5e-05	8e-05	1e-05	-1e-05	0
4678	-1e-05	-7e-05	-0.00014	-0.00014	-5e-05	8e-05	1e-05	-1e-05	0
4679	-1e-05	-7e-05	-0.00014	-0.00014	-5e-05	8e-05	1e-05	-1e-05	0
4680	0	-2e-05	6e-05	0.00025	0.00042	2e-05	0	0	0
4681	1e-05	2e-05	2e-05	-9e-05	-0.00012	-6e-05	-2e-05	-1e-05	0
4682	-2e-05	-2e-05	2e-05	-4e-05	-0.00013	-2e-05	-1e-05	-2e-05	0
4683	-2e-05	-2e-05	2e-05	-4e-05	-0.00013	-2e-05	-1e-05	-2e-05	0
4684	-2e-05	-2e-05	2e-05	-4e-05	-0.00013	-2e-05	-1e-05	-2e-05	0
4685	-2e-05	-2e-05	2e-05	-4e-05	-0.00013	-2e-05	-1e-05	-2e-05	0
4686	-2e-05	-2e-05	2e-05	-4e-05	-0.00013	-2e-05	-1e-05	-2e-05	0
4689	-2e-05	-2e-05	2e-05	-4e-05	-0.00013	-2e-05	-1e-05	-2e-05	0
4690	-2e-05	-2e-05	2e-05	-4e-05	-0.00013	-2e-05	-1e-05	-2e-05	0
4691	-2e-05	-2e-05	2e-05	-4e-05	-0.00013	-2e-05	-1e-05	-2e-05	0
4692	-2e-05	-2e-05	2e-05	-4e-05	-0.00013	-2e-05	-1e-05	-2e-05	0
4693	-2e-05	-2e-05	2e-05	-4e-05	-0.00013	-2e-05	-1e-05	-2e-05	0
4694	-2e-05	-2e-05	2e-05	-4e-05	-0.00013	-2e-05	-1e-05	-2e-05	0
4695	-2e-05	-2e-05	2e-05	-4e-05	-0.00013	-2e-05	-1e-05	-2e-05	0
4696	-2e-05	-2e-05	2e-05	-4e-05	-0.00013	-2e-05	-1e-05	-2e-05	0
4697	-2e-05	-2e-05	2e-05	-4e-05	-0.00013	-2e-05	-1e-05	-2e-05	0
4698	-2e-05	-2e-05	2e-05	-4e-05	-0.00013	-2e-05	-1e-05	-2e-05	0
4699	-2e-05	-2e-05	2e-05	-4e-05	-0.00013	-2e-05	-1e-05	-2e-05	0
4700	-2e-05	-2e-05	2e-05	-4e-05	-0.00013	-2e-05	-1e-05	-2e-05	0
4701	-2e-05	-2e-05	2e-05	-4e-05	-0.00013	-2e-05	-1e-05	-2e-05	0
4702	-2e-05	-2e-05	2e-05	-4e-05	-0.00013	-2e-05	-1e-05	-2e-05	0
4704	0	0	1e-05	1e-05	-2e-05	0	-2e-05	-1e-05	0
4705	-2e-05	-3e-05	-6e-05	-4e-05	-6e-05	-5e-05	-3e-05	-1e-05	0
4706	-2e-05	-3e-05	-6e-05	-4e-05	-6e-05	-5e-05	-3e-05	-1e-05	0
4707	-2e-05	-3e-05	-6e-05	-4e-05	-6e-05	-5e-05	-3e-05	-1e-05	0
4708	-2e-05	-3e-05	-6e-05	-4e-05	-6e-05	-5e-05	-3e-05	-1e-05	0
4709	-2e-05	-3e-05	-6e-05	-4e-05	-6e-05	-5e-05	-3e-05	-1e-05	0
4710	-2e-05	-3e-05	-6e-05	-4e-05	-6e-05	-5e-05	-3e-05	-1e-05	0
4711	-2e-05	-3e-05	-6e-05	-4e-05	-6e-05	-5e-05	-3e-05	-1e-05	0
4712	-2e-05	-3e-05	-6e-05	-4e-05	-6e-05	-5e-05	-3e-05	-1e-05	0
4713	-2e-05	-3e-05	-6e-05	-4e-05	-6e-05	-5e-05	-3e-05	-1e-05	0
4714	-2e-05	-3e-05	-6e-05	-4e-05	-6e-05	-5e-05	-3e-05	-1e-05	0
4715	-2e-05	-3e-05	-6e-05	-4e-05	-6e-05	-5e-05	-3e-05	-1e-05	0
4716	-2e-05	-3e-05	-6e-05	-4e-05	-6e-05	-5e-05	-3e-05	-1e-05	0
4717	-2e-05	-3e-05	-6e-05	-4e-05	-6e-05	-5e-05	-3e-05	-1e-05	0
4718	-3e-05	-2e-05	2e-05	9e-05	-2e-05	3e-05	-2e-05	-1e-05	0
4719	-3e-05	-2e-05	2e-05	9e-05	-2e-05	3e-05	-2e-05	-1e-05	0
4720	-3e-05	-2e-05	2e-05	9e-05	-2e-05	3e-05	-2e-05	-1e-05	0
4721	-3e-05	-2e-05	2e-05	9e-05	-2e-05	3e-05	-2e-05	-1e-05	0
4722	-3e-05	-2e-05	2e-05	9e-05	-2e-05	3e-05	-2e-05	-1e-05	0
4723	-3e-05	-2e-05	2e-05	9e-05	-2e-05	3e-05	-2e-05	-1e-05	0
4724	1e-05	3e-05	5e-05	0.00012	7e-05	-2e-05	-2e-05	-1e-05	0
4725	1e-05	3e-05	5e-05	0.00012	7e-05	-2e-05	-2e-05	-1e-05	0
4726	1e-05	3e-05	5e-05	0.00012	7e-05	-2e-05	-2e-05	-1e-05	0
4727	1e-05	3e-05	5e-05	0.00012	7e-05	-2e-05	-2e-05	-1e-05	0
4728	1e-05	3e-05	5e-05	0.00012	7e-05	-2e-05	-2e-05	-1e-05	0
4729	1e-05	3e-05	5e-05	0.00012	7e-05	-2e-05	-2e-05	-1e-05	0
4730	1e-05	3e-05	5e-05	0.00012	7e-05	-2e-05	-2e-05	-1e-05	0
4731	1e-05	3e-05	5e-05	0.00012	7e-05	-2e-05	-2e-05	-1e-05	0
4732	1e-05	3e-05	5e-05	0.00012	7e-05	-2e-05	-2e-05	-1e-05	0
4733	1e-05	3e-05	5e-05	0.00012	7e-05	-2e-05	-2e-05	-1e-05	0
4734	1e-05	3e-05	5e-05	0.00012	7e-05	-2e-05	-2e-05	-1e-05	0
4735	1e-05	3e-05	5e-05	0.00012	7e-05	-2e-05	-2e-05	-1e-05	0
4736	1e-05	3e-05	5e-05	0.00012	7e-05	-2e-05	-2e-05	-1e-05	0
4739	1e-05	3e-05	5e-05	0.00012	7e-05	-2e-05	-2e-05	-1e-05	0
4740	1e-05	3e-05	5e-05	0.00012	7e-05	-2e-05	-2e-05	-1e-05	0
4741	1e-05	3e-05	5e-05	0.00012	7e-05	-2e-05	-2e-05	-1e-05	0
4742	1e-05	3e-05	5e-05	0.00012	7e-05	-2e-05	-2e-05	-1e-05	0
4743	1e-05	3e-05	5e-05	0.00012	7e-05	-2e-05	-2e-05	-1e-05	0
4744	1e-05	3e-05	5e-05	0.00012	7e-05	-2e-05	-2e-05	-1e-05	0
4745	1e-05	3e-05	5e-05	0.00012	7e-05	-2e-05	-2e-05	-1e-05	0
4746	1e-05	3e-05	5e-05	0.00012	7e-05	-2e-05	-2e-05	-1e-05	0
4747	1e-05	3e-05	5e-05	0.00012	7e-05	-2e-05	-2e-05	-1e-05	0
4748	0	0	-3e-05	-8e-05	1e-05	0	-1e-05	0	0
4749	0	0	-3e-05	-8e-05	1e-05	0	-1e-05	0	0
4750	-2e-05	-1e-05	0	-7e-05	-8e-05	-5e-05	-2e-05	-1e-05	0
4751	-2e-05	-1e-05	0	-7e-05	-8e-05	-5e-05	-2e-05	-1e-05	0
4752	-2e-05	-1e-05	0	-7e-05	-8e-05	-5e-05	-2e-05	-1e-05	0
4753	-2e-05	-1e-05	0	-7e-05	-8e-05	-5e-05	-2e-05	-1e-05	0
4754	-2e-05	-1e-05	0	-7e-05	-8e-05	-5e-05	-2e-05	-1e-05	0
4755	-2e-05	-1e-05	0	-7e-05	-8e-05	-5e-05	-2e-05	-1e-05	0
4756	-2e-05	-1e-05	0	-7e-05	-8e-05	-5e-05	-2e-05	-1e-05	0
4757	-2e-05	-1e-05	0	-7e-05	-8e-05	-5e-05	-2e-05	-1e-05	0
4758	-2e-05	-1e-05	0	-7e-05	-8e-05	-5e-05	-2e-05	-1e-05	0
4759	-2e-05	-1e-05	0	-7e-05	-8e-05	-5e-05	-2e-05	-1e-05	0
4760	-2e-05	-1e-05	0	-7e-05	-8e-05	-5e-05	-2e-05	-1e-05	0
4761	-2e-05	-1e-05	0	-7e-05	-8e-05	-5e-05	-2e-05	-1e-05	0
4762	-2e-05	-1e-05	0	-7e-05	-8e-05	-5e-05	-2e-05	-1e-05	0
4763	-2e-05	-1e-05	3e-05	0.00011	4e-05	-2e-05	0	0	0
4764	-2e-05	-1e-05	-0.0001	-7e-05	6e-05	1e-05	-2e-05	-3e-05	0
4765	0	-1e-05	3e-05	-2e-05	-0.0001	-3e-05	-2e-05	-1e-05	0
4766	0	-1e-05	3e-05	-2e-05	-0.0001	-3e-05	-2e-05	-1e-05	0
4767	0	-1e-05	3e-05	-2e-05	-0.0001	-3e-05	-2e-05	-1e-05	0
4768	0	-1e-05	3e-05	-2e-05	-0.0001	-3e-05	-2e-05	-1e-05	0
4769	0	-1e-05	3e-05	-2e-05	-0.0001	-3e-05	-2e-05	-1e-05	0
4770	0	-1e-05	3e-05	-2e-05	-0.0001	-3e-05	-2e-05	-1e-05	0
4771	0	-1e-05	3e-05	-2e-05	-0.0001	-3e-05	-2e-05	-1e-05	0
4772	0	-1e-05	3e-05	-2e-05	-0.0001	-3e-05	-2e-05	-1e-05	0
4773	0	-1e-05	3e-05	-2e-05	-0.0001	-3e-05	-2e-05	-1e-05	0
4774	0	-1e-05	3e-05	-2e-05	-0.0001	-3e-05	-2e-05	-1e-05	0
4775	0	-1e-05	3e-05	-2e-05	-0.0001	-3e-05	-2e-05	-1e-05	0
4776	0	-1e-05	3e-05	-2e-05	-0.0001	-3e-05	-2e-05	-1e-05	0
4777	0	-1e-05	-1e-05	-4e-05	-6e-05	0	0	-1e-05	0
4778	0	-1e-05	-1e-05	-4e-05	-6e-05	0	0	-1e-05	0
4779	0	-1e-05	-1e-05	-4e-05	-6e-05	0	0	-1e-05	0
4780	0	-1e-05	-1e-05	-4e-05	-6e-05	0	0	-1e-05	0
4781	0	-1e-05	-1e-05	-4e-05	-6e-05	0	0	-1e-05	0
4782	0	-1e-05	-1e-05	-4e-05	-6e-05	0	0	-1e-05	0
4783	0	-1e-05	-1e-05	-4e-05	-6e-05	0	0	-1e-05	0
4784	-1e-05	-2e-05	-5e-05	-2e-05	-7e-05	-1e-05	0	-1e-05	0
4785	-1e-05	-2e-05	-5e-05	-2e-05	-7e-05	-1e-05	0	-1e-05	0
4786	-1e-05	-2e-05	-5e-05	-2e-05	-7e-05	-1e-05	0	-1e-05	0
4789	-1e-05	-2e-05	-5e-05	-2e-05	-7e-05	-1e-05	0	-1e-05	0
4790	-1e-05	-2e-05	-5e-05	-2e-05	-7e-05	-1e-05	0	-1e-05	0
4791	-1e-05	-2e-05	-5e-05	-2e-05	-7e-05	-1e-05	0	-1e-05	0
4792	-1e-05	-2e-05	-5e-05	-2e-05	-7e-05	-1e-05	0	-1e-05	0
4793	-1e-05	-2e-05	-5e-05	-2e-05	-7e-05	-1e-05	0	-1e-05	0
4794	-1e-05	-2e-05	-5e-05	-2e-05	-7e-05	-1e-05	0	-1e-05	0
4795	-1e-05	-2e-05	-5e-05	-2e-05	-7e-05	-1e-05	0	-1e-05	0
4796	-1e-05	-2e-05	-5e-05	-2e-05	-7e-05	-1e-05	0	-1e-05	0
4797	-1e-05	-2e-05	-5e-05	-2e-05	-7e-05	-1e-05	0	-1e-05	0
4798	-1e-05	-2e-05	-5e-05	-2e-05	-7e-05	-1e-05	0	-1e-05	0
4799	-1e-05	-2e-05	-5e-05	-2e-05	-7e-05	-1e-05	0	-1e-05	0
4800	-1e-05	-2e-05	-5e-05	-2e-05	-7e-05	-1e-05	0	-1e-05	0
4801	-1e-05	-2e-05	-5e-05	-2e-05	-7e-05	-1e-05	0	-1e-05	0
4802	-1e-05	-2e-05	-5e-05	-2e-05	-7e-05	-1e-05	0	-1e-05	0
4804	-1e-05	-2e-05	-5e-05	-2e-05	-7e-05	-1e-05	0	-1e-05	0
4805	-1e-05	-2e-05	-5e-05	-2e-05	-7e-05	-1e-05	0	-1e-05	0
4806	-1e-05	-2e-05	-5e-05	-2e-05	-7e-05	-1e-05	0	-1e-05	0
4807	-1e-05	-2e-05	-5e-05	-2e-05	-7e-05	-1e-05	0	-1e-05	0
4808	2e-05	3e-05	7e-05	-0.00011	-0.00029	-4e-05	-2e-05	0	0
4809	2e-05	3e-05	7e-05	-0.00011	-0.00029	-4e-05	-2e-05	0	0
4810	0	1e-05	0	-3e-05	7e-05	-4e-05	0	-2e-05	0
4811	0	1e-05	0	-3e-05	7e-05	-4e-05	0	-2e-05	0
4812	0	1e-05	0	-3e-05	7e-05	-4e-05	0	-2e-05	0
4813	0	1e-05	0	-3e-05	7e-05	-4e-05	0	-2e-05	0
4814	0	1e-05	0	-3e-05	7e-05	-4e-05	0	-2e-05	0
4815	0	1e-05	0	-3e-05	7e-05	-4e-05	0	-2e-05	0
4816	0	1e-05	0	-3e-05	7e-05	-4e-05	0	-2e-05	0
4817	0	1e-05	0	-3e-05	7e-05	-4e-05	0	-2e-05	0
4818	0	1e-05	0	-3e-05	7e-05	-4e-05	0	-2e-05	0
4819	0	1e-05	0	-3e-05	7e-05	-4e-05	0	-2e-05	0
4820	0	1e-05	0	-3e-05	7e-05	-4e-05	0	-2e-05	0
4821	0	1e-05	0	-3e-05	7e-05	-4e-05	0	-2e-05	0
4822	0	1e-05	0	-3e-05	7e-05	-4e-05	0	-2e-05	0
4823	-2e-05	-4e-05	-8e-05	3e-05	-0.00015	0	-1e-05	0	0
4824	-1e-05	0	0	-6e-05	-0.0002	-3e-05	-2e-05	-3e-05	0
4825	-1e-05	0	0	-6e-05	-0.0002	-3e-05	-2e-05	-3e-05	0
4826	-1e-05	0	0	-6e-05	-0.0002	-3e-05	-2e-05	-3e-05	0
4827	-1e-05	0	0	-6e-05	-0.0002	-3e-05	-2e-05	-3e-05	0
4828	-1e-05	0	0	-6e-05	-0.0002	-3e-05	-2e-05	-3e-05	0
4829	-1e-05	0	2e-05	1e-05	3e-05	1e-05	0	-1e-05	0
4830	-1e-05	0	2e-05	1e-05	3e-05	1e-05	0	-1e-05	0
4831	-1e-05	0	2e-05	1e-05	3e-05	1e-05	0	-1e-05	0
4832	-1e-05	0	2e-05	1e-05	3e-05	1e-05	0	-1e-05	0
4833	-1e-05	0	2e-05	1e-05	3e-05	1e-05	0	-1e-05	0
4834	-1e-05	0	2e-05	1e-05	3e-05	1e-05	0	-1e-05	0
4835	-1e-05	0	2e-05	1e-05	3e-05	1e-05	0	-1e-05	0
4836	-1e-05	0	2e-05	1e-05	3e-05	1e-05	0	-1e-05	0
4839	-3e-05	-3e-05	-4e-05	0.00011	0.00011	0	-1e-05	-1e-05	0
4840	-3e-05	-3e-05	-4e-05	0.00011	0.00011	0	-1e-05	-1e-05	0
4841	-3e-05	-3e-05	-4e-05	0.00011	0.00011	0	-1e-05	-1e-05	0
4842	-3e-05	-3e-05	-4e-05	0.00011	0.00011	0	-1e-05	-1e-05	0
4843	-3e-05	-3e-05	-4e-05	0.00011	0.00011	0	-1e-05	-1e-05	0
4844	0	0	-5e-05	-6e-05	-3e-05	-1e-05	1e-05	1e-05	0
4845	0	0	-5e-05	-6e-05	-3e-05	-1e-05	1e-05	1e-05	0
4846	0	0	-5e-05	-6e-05	-3e-05	-1e-05	1e-05	1e-05	0
4847	0	0	-5e-05	-6e-05	-3e-05	-1e-05	1e-05	1e-05	0
4848	0	0	-5e-05	-6e-05	-3e-05	-1e-05	1e-05	1e-05	0
4849	0	0	-5e-05	-6e-05	-3e-05	-1e-05	1e-05	1e-05	0
4850	0	0	-5e-05	-6e-05	-3e-05	-1e-05	1e-05	1e-05	0
4851	0	0	-5e-05	-6e-05	-3e-05	-1e-05	1e-05	1e-05	0
4852	0	0	-5e-05	-6e-05	-3e-05	-1e-05	1e-05	1e-05	0
4853	0	0	-5e-05	-6e-05	-3e-05	-1e-05	1e-05	1e-05	0
4854	0	0	-5e-05	-6e-05	-3e-05	-1e-05	1e-05	1e-05	0
4855	0	0	-5e-05	-6e-05	-3e-05	-1e-05	1e-05	1e-05	0
4856	0	0	-5e-05	-6e-05	-3e-05	-1e-05	1e-05	1e-05	0
4857	0	0	-5e-05	-6e-05	-3e-05	-1e-05	1e-05	1e-05	0
4858	0	0	-5e-05	-6e-05	-3e-05	-1e-05	1e-05	1e-05	0
4859	0	0	-5e-05	-6e-05	-3e-05	-1e-05	1e-05	1e-05	0
4860	0	0	-5e-05	-6e-05	-3e-05	-1e-05	1e-05	1e-05	0
4861	-1e-05	-2e-05	-5e-05	2e-05	4e-05	3e-05	0	-1e-05	0
4862	0	2e-05	2e-05	-4e-05	-6e-05	-1e-05	-2e-05	0	0
4863	0	2e-05	2e-05	-4e-05	-6e-05	-1e-05	-2e-05	0	0
4864	0	2e-05	2e-05	-4e-05	-6e-05	-1e-05	-2e-05	0	0
4865	0	2e-05	2e-05	-4e-05	-6e-05	-1e-05	-2e-05	0	0
4866	0	2e-05	2e-05	-4e-05	-6e-05	-1e-05	-2e-05	0	0
4867	0	2e-05	2e-05	-4e-05	-6e-05	-1e-05	-2e-05	0	0
4868	0	2e-05	2e-05	-4e-05	-6e-05	-1e-05	-2e-05	0	0
4869	0	2e-05	2e-05	-4e-05	-6e-05	-1e-05	-2e-05	0	0
4870	0	2e-05	2e-05	-4e-05	-6e-05	-1e-05	-2e-05	0	0
4871	0	2e-05	2e-05	-4e-05	-6e-05	-1e-05	-2e-05	0	0
4872	0	2e-05	2e-05	-4e-05	-6e-05	-1e-05	-2e-05	0	0
4873	0	2e-05	2e-05	-4e-05	-6e-05	-1e-05	-2e-05	0	0
4874	0	2e-05	2e-05	-4e-05	-6e-05	-1e-05	-2e-05	0	0
4875	0	2e-05	2e-05	-4e-05	-6e-05	-1e-05	-2e-05	0	0
4876	0	2e-05	2e-05	-4e-05	-6e-05	-1e-05	-2e-05	0	0
4877	0	2e-05	2e-05	-4e-05	-6e-05	-1e-05	-2e-05	0	0
4878	0	2e-05	2e-05	-4e-05	-6e-05	-1e-05	-2e-05	0	0
4879	0	2e-05	2e-05	-4e-05	-6e-05	-1e-05	-2e-05	0	0
4880	0	2e-05	2e-05	-4e-05	-6e-05	-1e-05	-2e-05	0	0
4881	0	2e-05	2e-05	-4e-05	-6e-05	-1e-05	-2e-05	0	0
4882	0	2e-05	2e-05	-4e-05	-6e-05	-1e-05	-2e-05	0	0
4883	-2e-05	-4e-05	-7e-05	-0.00011	-5e-05	-2e-05	-1e-05	-3e-05	0
4884	-2e-05	2e-05	1e-05	0	5e-05	0	-1e-05	0	0
4885	-2e-05	1e-05	-4e-05	-3e-05	-2e-05	0	-2e-05	-2e-05	0
4886	-2e-05	1e-05	-4e-05	-3e-05	-2e-05	0	-2e-05	-2e-05	0
4888	-2e-05	1e-05	-4e-05	-3e-05	-2e-05	0	-2e-05	-2e-05	0
4889	-2e-05	1e-05	-4e-05	-3e-05	-2e-05	0	-2e-05	-2e-05	0
4890	-2e-05	1e-05	-4e-05	-3e-05	-2e-05	0	-2e-05	-2e-05	0
4891	-2e-05	1e-05	-4e-05	-3e-05	-2e-05	0	-2e-05	-2e-05	0
4892	-2e-05	1e-05	-4e-05	-3e-05	-2e-05	0	-2e-05	-2e-05	0
4893	-2e-05	1e-05	-4e-05	-3e-05	-2e-05	0	-2e-05	-2e-05	0
4894	-2e-05	1e-05	-4e-05	-3e-05	-2e-05	0	-2e-05	-2e-05	0
4895	-2e-05	1e-05	-4e-05	-3e-05	-2e-05	0	-2e-05	-2e-05	0
4897	-2e-05	1e-05	-4e-05	-3e-05	-2e-05	0	-2e-05	-2e-05	0
4898	-2e-05	1e-05	-4e-05	-3e-05	-2e-05	0	-2e-05	-2e-05	0
4899	-2e-05	1e-05	-4e-05	-3e-05	-2e-05	0	-2e-05	-2e-05	0
4900	-2e-05	1e-05	-4e-05	-3e-05	-2e-05	0	-2e-05	-2e-05	0
4901	-2e-05	1e-05	-4e-05	-3e-05	-2e-05	0	-2e-05	-2e-05	0
4902	-2e-05	1e-05	-4e-05	-3e-05	-2e-05	0	-2e-05	-2e-05	0
4904	-2e-05	1e-05	-4e-05	-3e-05	-2e-05	0	-2e-05	-2e-05	0
4905	-2e-05	1e-05	-4e-05	-3e-05	-2e-05	0	-2e-05	-2e-05	0
4906	-1e-05	0	-3e-05	3e-05	-2e-05	-1e-05	0	-1e-05	0
4907	0	0	3e-05	0.00013	0.00023	-1e-05	1e-05	-1e-05	0
4908	0	0	3e-05	0.00013	0.00023	-1e-05	1e-05	-1e-05	0
4909	0	0	3e-05	0.00013	0.00023	-1e-05	1e-05	-1e-05	0
4910	0	0	3e-05	0.00013	0.00023	-1e-05	1e-05	-1e-05	0
4911	0	0	3e-05	0.00013	0.00023	-1e-05	1e-05	-1e-05	0
4912	0	0	3e-05	0.00013	0.00023	-1e-05	1e-05	-1e-05	0
4913	0	0	3e-05	0.00013	0.00023	-1e-05	1e-05	-1e-05	0
4914	0	0	3e-05	0.00013	0.00023	-1e-05	1e-05	-1e-05	0
4915	0	0	3e-05	0.00013	0.00023	-1e-05	1e-05	-1e-05	0
4916	0	0	3e-05	0.00013	0.00023	-1e-05	1e-05	-1e-05	0
4917	0	0	3e-05	0.00013	0.00023	-1e-05	1e-05	-1e-05	0
4918	0	0	3e-05	0.00013	0.00023	-1e-05	1e-05	-1e-05	0
4919	0	0	3e-05	0.00013	0.00023	-1e-05	1e-05	-1e-05	0
4920	0	0	3e-05	0.00013	0.00023	-1e-05	1e-05	-1e-05	0
4921	-3e-05	-2e-05	1e-05	-2e-05	3e-05	-2e-05	-3e-05	-2e-05	0
4922	1e-05	-1e-05	3e-05	-2e-05	-0.00012	-4e-05	-2e-05	-3e-05	0
4923	1e-05	-1e-05	3e-05	-2e-05	-0.00012	-4e-05	-2e-05	-3e-05	0
4924	1e-05	-1e-05	3e-05	-2e-05	-0.00012	-4e-05	-2e-05	-3e-05	0
4925	1e-05	-1e-05	3e-05	-2e-05	-0.00012	-4e-05	-2e-05	-3e-05	0
4926	1e-05	-1e-05	3e-05	-2e-05	-0.00012	-4e-05	-2e-05	-3e-05	0
4927	1e-05	-1e-05	3e-05	-2e-05	-0.00012	-4e-05	-2e-05	-3e-05	0
4928	1e-05	-1e-05	3e-05	-2e-05	-0.00012	-4e-05	-2e-05	-3e-05	0
4929	1e-05	-1e-05	3e-05	-2e-05	-0.00012	-4e-05	-2e-05	-3e-05	0
4930	1e-05	-1e-05	3e-05	-2e-05	-0.00012	-4e-05	-2e-05	-3e-05	0
4931	1e-05	-1e-05	3e-05	-2e-05	-0.00012	-4e-05	-2e-05	-3e-05	0
4932	1e-05	-1e-05	3e-05	-2e-05	-0.00012	-4e-05	-2e-05	-3e-05	0
4933	1e-05	-1e-05	3e-05	-2e-05	-0.00012	-4e-05	-2e-05	-3e-05	0
4934	1e-05	-1e-05	3e-05	-2e-05	-0.00012	-4e-05	-2e-05	-3e-05	0
4935	1e-05	-1e-05	3e-05	-2e-05	-0.00012	-4e-05	-2e-05	-3e-05	0
4936	1e-05	-1e-05	3e-05	-2e-05	-0.00012	-4e-05	-2e-05	-3e-05	0
4939	1e-05	-1e-05	3e-05	-2e-05	-0.00012	-4e-05	-2e-05	-3e-05	0
4940	1e-05	-1e-05	3e-05	-2e-05	-0.00012	-4e-05	-2e-05	-3e-05	0
4941	1e-05	-1e-05	3e-05	-2e-05	-0.00012	-4e-05	-2e-05	-3e-05	0
4942	1e-05	-1e-05	3e-05	-2e-05	-0.00012	-4e-05	-2e-05	-3e-05	0
4943	-2e-05	-1e-05	-3e-05	1e-05	6e-05	3e-05	0	-1e-05	0
4944	-3e-05	-2e-05	-2e-05	1e-05	-6e-05	-5e-05	-1e-05	-1e-05	0
4945	-1e-05	-1e-05	2e-05	0	0	2e-05	0	-3e-05	0
4946	-1e-05	-1e-05	2e-05	0	0	2e-05	0	-3e-05	0
4947	-1e-05	-1e-05	2e-05	0	0	2e-05	0	-3e-05	0
4948	-1e-05	-1e-05	2e-05	0	0	2e-05	0	-3e-05	0
4949	-1e-05	-1e-05	2e-05	0	0	2e-05	0	-3e-05	0
4950	-1e-05	-1e-05	2e-05	0	0	2e-05	0	-3e-05	0
4951	-1e-05	-1e-05	2e-05	0	0	2e-05	0	-3e-05	0
4952	-1e-05	-1e-05	2e-05	0	0	2e-05	0	-3e-05	0
4954	-1e-05	-1e-05	2e-05	0	0	2e-05	0	-3e-05	0
4955	-1e-05	-1e-05	2e-05	0	0	2e-05	0	-3e-05	0
4956	-1e-05	-1e-05	2e-05	0	0	2e-05	0	-3e-05	0
4957	-1e-05	-1e-05	2e-05	0	0	2e-05	0	-3e-05	0
4958	-1e-05	-1e-05	2e-05	0	0	2e-05	0	-3e-05	0
4959	-1e-05	-1e-05	2e-05	0	0	2e-05	0	-3e-05	0
4960	-1e-05	-1e-05	2e-05	0	0	2e-05	0	-3e-05	0
4961	-1e-05	-1e-05	2e-05	0	0	2e-05	0	-3e-05	0
4962	-1e-05	-1e-05	2e-05	0	0	2e-05	0	-3e-05	0
4963	-1e-05	-1e-05	2e-05	0	0	2e-05	0	-3e-05	0
4964	-1e-05	-1e-05	2e-05	0	0	2e-05	0	-3e-05	0
4965	-1e-05	-1e-05	2e-05	0	0	2e-05	0	-3e-05	0
4966	0	1e-05	1e-05	-2e-05	0	-2e-05	-1e-05	-1e-05	0
4967	-3e-05	-5e-05	-0.00013	-0.00013	-7e-05	-1e-05	-2e-05	-1e-05	0
4968	-3e-05	-5e-05	-0.00013	-0.00013	-7e-05	-1e-05	-2e-05	-1e-05	0
4969	-3e-05	-5e-05	-0.00013	-0.00013	-7e-05	-1e-05	-2e-05	-1e-05	0
4970	-3e-05	-5e-05	-0.00013	-0.00013	-7e-05	-1e-05	-2e-05	-1e-05	0
4971	-3e-05	-5e-05	-0.00013	-0.00013	-7e-05	-1e-05	-2e-05	-1e-05	0
4972	-3e-05	-5e-05	-0.00013	-0.00013	-7e-05	-1e-05	-2e-05	-1e-05	0
4973	-3e-05	-5e-05	-0.00013	-0.00013	-7e-05	-1e-05	-2e-05	-1e-05	0
4974	-3e-05	-5e-05	-0.00013	-0.00013	-7e-05	-1e-05	-2e-05	-1e-05	0
4975	-3e-05	-5e-05	-0.00013	-0.00013	-7e-05	-1e-05	-2e-05	-1e-05	0
4976	-3e-05	-5e-05	-0.00013	-0.00013	-7e-05	-1e-05	-2e-05	-1e-05	0
4977	-3e-05	-5e-05	-0.00013	-0.00013	-7e-05	-1e-05	-2e-05	-1e-05	0
4978	-3e-05	-5e-05	-0.00013	-0.00013	-7e-05	-1e-05	-2e-05	-1e-05	0
4979	-3e-05	-5e-05	-0.00013	-0.00013	-7e-05	-1e-05	-2e-05	-1e-05	0
4980	1e-05	2e-05	0	-3e-05	0.00014	4e-05	2e-05	0	0
4981	1e-05	2e-05	1e-05	3e-05	6e-05	-4e-05	-1e-05	-1e-05	0
4982	-1e-05	2e-05	4e-05	7e-05	6e-05	2e-05	-1e-05	-1e-05	0
4983	-1e-05	2e-05	4e-05	7e-05	6e-05	2e-05	-1e-05	-1e-05	0
4984	-1e-05	2e-05	4e-05	7e-05	6e-05	2e-05	-1e-05	-1e-05	0
4985	-1e-05	2e-05	4e-05	7e-05	6e-05	2e-05	-1e-05	-1e-05	0
4986	-1e-05	2e-05	4e-05	7e-05	6e-05	2e-05	-1e-05	-1e-05	0
4989	-1e-05	2e-05	4e-05	7e-05	6e-05	2e-05	-1e-05	-1e-05	0
4990	-1e-05	2e-05	4e-05	7e-05	6e-05	2e-05	-1e-05	-1e-05	0
4991	-1e-05	2e-05	4e-05	7e-05	6e-05	2e-05	-1e-05	-1e-05	0
4992	-1e-05	2e-05	4e-05	7e-05	6e-05	2e-05	-1e-05	-1e-05	0
4993	-1e-05	2e-05	4e-05	7e-05	6e-05	2e-05	-1e-05	-1e-05	0
4994	-1e-05	2e-05	4e-05	7e-05	6e-05	2e-05	-1e-05	-1e-05	0
4995	-1e-05	2e-05	4e-05	7e-05	6e-05	2e-05	-1e-05	-1e-05	0
4996	-1e-05	2e-05	4e-05	7e-05	6e-05	2e-05	-1e-05	-1e-05	0
4997	-1e-05	2e-05	4e-05	7e-05	6e-05	2e-05	-1e-05	-1e-05	0
4998	-1e-05	2e-05	4e-05	7e-05	6e-05	2e-05	-1e-05	-1e-05	0
4999	-1e-05	2e-05	4e-05	7e-05	6e-05	2e-05	-1e-05	-1e-05	0
5000	-1e-05	2e-05	4e-05	7e-05	6e-05	2e-05	-1e-05	-1e-05	0
5001	-1e-05	2e-05	4e-05	7e-05	6e-05	2e-05	-1e-05	-1e-05	0
5002	-1e-05	2e-05	4e-05	7e-05	6e-05	2e-05	-1e-05	-1e-05	0
5003	0	-1e-05	-6e-05	3e-05	0	-3e-05	-1e-05	-3e-05	0
5004	0	-1e-05	-6e-05	3e-05	0	-3e-05	-1e-05	-3e-05	0
5005	-1e-05	-1e-05	-2e-05	-0.00011	-0.00017	-3e-05	-1e-05	0	0
5006	-1e-05	-1e-05	-2e-05	-0.00011	-0.00017	-3e-05	-1e-05	0	0
5007	-1e-05	-1e-05	-2e-05	-0.00011	-0.00017	-3e-05	-1e-05	0	0
5008	-1e-05	-1e-05	-2e-05	-0.00011	-0.00017	-3e-05	-1e-05	0	0
5009	-1e-05	-1e-05	-2e-05	-0.00011	-0.00017	-3e-05	-1e-05	0	0
5010	-1e-05	-1e-05	-2e-05	-0.00011	-0.00017	-3e-05	-1e-05	0	0
5011	-1e-05	-1e-05	-2e-05	-0.00011	-0.00017	-3e-05	-1e-05	0	0
5012	-1e-05	-1e-05	-2e-05	-0.00011	-0.00017	-3e-05	-1e-05	0	0
5013	-1e-05	-1e-05	-2e-05	-0.00011	-0.00017	-3e-05	-1e-05	0	0
5014	-1e-05	-1e-05	-2e-05	-0.00011	-0.00017	-3e-05	-1e-05	0	0
5015	-1e-05	-1e-05	-2e-05	-0.00011	-0.00017	-3e-05	-1e-05	0	0
5016	-1e-05	-1e-05	-2e-05	-0.00011	-0.00017	-3e-05	-1e-05	0	0
5017	-2e-05	-3e-05	-3e-05	8e-05	0.0001	6e-05	0	-1e-05	0
5018	-2e-05	-3e-05	-3e-05	8e-05	0.0001	6e-05	0	-1e-05	0
5019	-2e-05	-3e-05	-3e-05	8e-05	0.0001	6e-05	0	-1e-05	0
5020	-2e-05	-3e-05	-3e-05	8e-05	0.0001	6e-05	0	-1e-05	0
5021	-2e-05	-3e-05	-3e-05	8e-05	0.0001	6e-05	0	-1e-05	0
5022	-2e-05	-3e-05	-3e-05	8e-05	0.0001	6e-05	0	-1e-05	0
5023	-2e-05	-3e-05	-3e-05	8e-05	0.0001	6e-05	0	-1e-05	0
5024	-2e-05	-3e-05	-3e-05	8e-05	0.0001	6e-05	0	-1e-05	0
5025	-2e-05	-3e-05	-3e-05	8e-05	0.0001	6e-05	0	-1e-05	0
5026	-1e-05	0	-1e-05	5e-05	-5e-05	-3e-05	-1e-05	-1e-05	0
5027	-1e-05	0	-1e-05	5e-05	-5e-05	-3e-05	-1e-05	-1e-05	0
5028	-1e-05	0	-1e-05	5e-05	-5e-05	-3e-05	-1e-05	-1e-05	0
5029	-1e-05	0	-1e-05	5e-05	-5e-05	-3e-05	-1e-05	-1e-05	0
5030	-1e-05	0	-1e-05	5e-05	-5e-05	-3e-05	-1e-05	-1e-05	0
5031	-1e-05	0	-1e-05	5e-05	-5e-05	-3e-05	-1e-05	-1e-05	0
5033	-1e-05	0	-1e-05	5e-05	-5e-05	-3e-05	-1e-05	-1e-05	0
5034	-1e-05	0	-1e-05	5e-05	-5e-05	-3e-05	-1e-05	-1e-05	0
5035	-1e-05	0	-1e-05	5e-05	-5e-05	-3e-05	-1e-05	-1e-05	0
5036	-1e-05	0	-1e-05	5e-05	-5e-05	-3e-05	-1e-05	-1e-05	0
5039	-1e-05	0	-1e-05	5e-05	-5e-05	-3e-05	-1e-05	-1e-05	0
5040	-1e-05	0	-1e-05	5e-05	-5e-05	-3e-05	-1e-05	-1e-05	0
5041	-2e-05	0	4e-05	-1e-05	1e-05	-3e-05	0	0	0
5042	-2e-05	0	4e-05	-1e-05	1e-05	-3e-05	0	0	0
5043	-2e-05	-6e-05	-6e-05	3e-05	0.00014	1e-05	-1e-05	-2e-05	0
5044	-2e-05	-6e-05	-6e-05	3e-05	0.00014	1e-05	-1e-05	-2e-05	0
5045	-2e-05	-6e-05	-6e-05	3e-05	0.00014	1e-05	-1e-05	-2e-05	0
5046	-2e-05	-6e-05	-6e-05	3e-05	0.00014	1e-05	-1e-05	-2e-05	0
5047	-2e-05	-6e-05	-6e-05	3e-05	0.00014	1e-05	-1e-05	-2e-05	0
5048	-2e-05	-6e-05	-6e-05	3e-05	0.00014	1e-05	-1e-05	-2e-05	0
5049	-2e-05	-6e-05	-6e-05	3e-05	0.00014	1e-05	-1e-05	-2e-05	0
5050	-2e-05	-6e-05	-6e-05	3e-05	0.00014	1e-05	-1e-05	-2e-05	0
5051	-2e-05	-6e-05	-6e-05	3e-05	0.00014	1e-05	-1e-05	-2e-05	0
5052	-2e-05	-6e-05	-6e-05	3e-05	0.00014	1e-05	-1e-05	-2e-05	0
5053	-2e-05	-6e-05	-6e-05	3e-05	0.00014	1e-05	-1e-05	-2e-05	0
5054	-2e-05	-6e-05	-6e-05	3e-05	0.00014	1e-05	-1e-05	-2e-05	0
5055	-2e-05	-6e-05	-6e-05	3e-05	0.00014	1e-05	-1e-05	-2e-05	0
5056	-2e-05	-6e-05	-6e-05	3e-05	0.00014	1e-05	-1e-05	-2e-05	0
5057	-2e-05	-6e-05	-6e-05	3e-05	0.00014	1e-05	-1e-05	-2e-05	0
5058	-2e-05	-6e-05	-6e-05	3e-05	0.00014	1e-05	-1e-05	-2e-05	0
5059	-2e-05	-6e-05	-6e-05	3e-05	0.00014	1e-05	-1e-05	-2e-05	0
5060	-2e-05	-6e-05	-6e-05	3e-05	0.00014	1e-05	-1e-05	-2e-05	0
5061	-2e-05	-6e-05	-6e-05	3e-05	0.00014	1e-05	-1e-05	-2e-05	0
5062	-2e-05	-6e-05	-6e-05	3e-05	0.00014	1e-05	-1e-05	-2e-05	0
5063	1e-05	0	0	4e-05	2e-05	1e-05	-1e-05	0	0
5064	-1e-05	-3e-05	3e-05	-5e-05	-7e-05	0	1e-05	0	0
5065	0	-1e-05	2e-05	2e-05	-4e-05	0	1e-05	1e-05	0
5066	0	-1e-05	2e-05	2e-05	-4e-05	0	1e-05	1e-05	0
5067	0	-1e-05	2e-05	2e-05	-4e-05	0	1e-05	1e-05	0
5068	0	-1e-05	2e-05	2e-05	-4e-05	0	1e-05	1e-05	0
5069	0	-1e-05	2e-05	2e-05	-4e-05	0	1e-05	1e-05	0
5070	0	-1e-05	2e-05	2e-05	-4e-05	0	1e-05	1e-05	0
5071	0	-1e-05	2e-05	2e-05	-4e-05	0	1e-05	1e-05	0
5072	0	-1e-05	2e-05	2e-05	-4e-05	0	1e-05	1e-05	0
5073	0	-1e-05	2e-05	2e-05	-4e-05	0	1e-05	1e-05	0
5074	0	-1e-05	2e-05	2e-05	-4e-05	0	1e-05	1e-05	0
5075	0	-1e-05	2e-05	2e-05	-4e-05	0	1e-05	1e-05	0
5076	0	-1e-05	2e-05	2e-05	-4e-05	0	1e-05	1e-05	0
5077	0	-4e-05	-4e-05	-3e-05	-0.00017	-3e-05	-2e-05	1e-05	0
5078	0	-4e-05	-4e-05	-3e-05	-0.00017	-3e-05	-2e-05	1e-05	0
5079	0	-4e-05	-4e-05	-3e-05	-0.00017	-3e-05	-2e-05	1e-05	0
5080	0	-4e-05	-4e-05	-3e-05	-0.00017	-3e-05	-2e-05	1e-05	0
5081	0	-4e-05	-4e-05	-3e-05	-0.00017	-3e-05	-2e-05	1e-05	0
5082	0	-4e-05	-4e-05	-3e-05	-0.00017	-3e-05	-2e-05	1e-05	0
5083	0	-4e-05	-4e-05	-3e-05	-0.00017	-3e-05	-2e-05	1e-05	0
5084	0	-4e-05	-4e-05	-3e-05	-0.00017	-3e-05	-2e-05	1e-05	0
5085	0	-4e-05	-4e-05	-3e-05	-0.00017	-3e-05	-2e-05	1e-05	0
5086	-1e-05	-1e-05	1e-05	-8e-05	-1e-05	-2e-05	-2e-05	-1e-05	0
5088	-1e-05	-1e-05	1e-05	-8e-05	-1e-05	-2e-05	-2e-05	-1e-05	0
5089	-1e-05	-1e-05	1e-05	-8e-05	-1e-05	-2e-05	-2e-05	-1e-05	0
5090	-1e-05	-1e-05	1e-05	-8e-05	-1e-05	-2e-05	-2e-05	-1e-05	0
5091	-1e-05	-1e-05	1e-05	-8e-05	-1e-05	-2e-05	-2e-05	-1e-05	0
5092	-1e-05	-1e-05	1e-05	-8e-05	-1e-05	-2e-05	-2e-05	-1e-05	0
5093	-1e-05	-1e-05	1e-05	-8e-05	-1e-05	-2e-05	-2e-05	-1e-05	0
5094	-1e-05	-1e-05	1e-05	-8e-05	-1e-05	-2e-05	-2e-05	-1e-05	0
5095	-1e-05	-1e-05	1e-05	-8e-05	-1e-05	-2e-05	-2e-05	-1e-05	0
5096	-1e-05	-1e-05	1e-05	-8e-05	-1e-05	-2e-05	-2e-05	-1e-05	0
5097	-1e-05	-1e-05	1e-05	-8e-05	-1e-05	-2e-05	-2e-05	-1e-05	0
5098	-1e-05	-1e-05	1e-05	-8e-05	-1e-05	-2e-05	-2e-05	-1e-05	0
5099	-1e-05	-1e-05	1e-05	-8e-05	-1e-05	-2e-05	-2e-05	-1e-05	0
5100	-1e-05	-1e-05	1e-05	-8e-05	-1e-05	-2e-05	-2e-05	-1e-05	0
5101	-1e-05	1e-05	-4e-05	-3e-05	-1e-05	-2e-05	-2e-05	-1e-05	0
5102	0	0	4e-05	5e-05	0.00013	-1e-05	0	-2e-05	0
5103	0	0	4e-05	5e-05	0.00013	-1e-05	0	-2e-05	0
5104	0	0	4e-05	5e-05	0.00013	-1e-05	0	-2e-05	0
5105	0	0	4e-05	5e-05	0.00013	-1e-05	0	-2e-05	0
5106	0	0	4e-05	5e-05	0.00013	-1e-05	0	-2e-05	0
5107	0	0	4e-05	5e-05	0.00013	-1e-05	0	-2e-05	0
5108	0	0	4e-05	5e-05	0.00013	-1e-05	0	-2e-05	0
5109	0	0	4e-05	5e-05	0.00013	-1e-05	0	-2e-05	0
5110	0	0	4e-05	5e-05	0.00013	-1e-05	0	-2e-05	0
5111	0	0	4e-05	5e-05	0.00013	-1e-05	0	-2e-05	0
5112	0	0	4e-05	5e-05	0.00013	-1e-05	0	-2e-05	0
5113	0	0	4e-05	5e-05	0.00013	-1e-05	0	-2e-05	0
5114	0	0	4e-05	5e-05	0.00013	-1e-05	0	-2e-05	0
5115	0	0	4e-05	5e-05	0.00013	-1e-05	0	-2e-05	0
5116	0	0	4e-05	5e-05	0.00013	-1e-05	0	-2e-05	0
5117	0	0	4e-05	5e-05	0.00013	-1e-05	0	-2e-05	0
5118	0	0	4e-05	5e-05	0.00013	-1e-05	0	-2e-05	0
5119	0	0	4e-05	5e-05	0.00013	-1e-05	0	-2e-05	0
5120	0	0	4e-05	5e-05	0.00013	-1e-05	0	-2e-05	0
5121	0	0	4e-05	5e-05	0.00013	-1e-05	0	-2e-05	0
5122	0	0	4e-05	5e-05	0.00013	-1e-05	0	-2e-05	0
5123	-1e-05	-2e-05	0	3e-05	-3e-05	-5e-05	-2e-05	-1e-05	0
5124	-1e-05	-2e-05	0	3e-05	-3e-05	-5e-05	-2e-05	-1e-05	0
5125	1e-05	0	-1e-05	-4e-05	5e-05	0	-1e-05	-1e-05	0
5126	1e-05	0	-1e-05	-4e-05	5e-05	0	-1e-05	-1e-05	0
5127	1e-05	0	-1e-05	-4e-05	5e-05	0	-1e-05	-1e-05	0
5128	1e-05	0	-1e-05	-4e-05	5e-05	0	-1e-05	-1e-05	0
5129	1e-05	0	-1e-05	-4e-05	5e-05	0	-1e-05	-1e-05	0
5130	1e-05	0	-1e-05	-4e-05	5e-05	0	-1e-05	-1e-05	0
5131	1e-05	0	-1e-05	-4e-05	5e-05	0	-1e-05	-1e-05	0
5132	1e-05	0	-1e-05	-4e-05	5e-05	0	-1e-05	-1e-05	0
5133	1e-05	0	-1e-05	-4e-05	5e-05	0	-1e-05	-1e-05	0
5134	1e-05	0	-1e-05	-4e-05	5e-05	0	-1e-05	-1e-05	0
5135	1e-05	0	-1e-05	-4e-05	5e-05	0	-1e-05	-1e-05	0
5136	1e-05	0	-1e-05	-4e-05	5e-05	0	-1e-05	-1e-05	0
5139	1e-05	2e-05	4e-05	-5e-05	3e-05	2e-05	1e-05	-1e-05	0
5140	1e-05	2e-05	4e-05	-5e-05	3e-05	2e-05	1e-05	-1e-05	0
5141	1e-05	2e-05	4e-05	-5e-05	3e-05	2e-05	1e-05	-1e-05	0
5142	1e-05	2e-05	4e-05	-5e-05	3e-05	2e-05	1e-05	-1e-05	0
5143	1e-05	2e-05	4e-05	-5e-05	3e-05	2e-05	1e-05	-1e-05	0
5144	1e-05	2e-05	4e-05	-5e-05	3e-05	2e-05	1e-05	-1e-05	0
5145	1e-05	2e-05	4e-05	-5e-05	3e-05	2e-05	1e-05	-1e-05	0
5146	1e-05	2e-05	4e-05	-5e-05	3e-05	2e-05	1e-05	-1e-05	0
5147	1e-05	2e-05	4e-05	-5e-05	3e-05	2e-05	1e-05	-1e-05	0
5148	1e-05	2e-05	4e-05	-5e-05	3e-05	2e-05	1e-05	-1e-05	0
5149	1e-05	2e-05	4e-05	-5e-05	3e-05	2e-05	1e-05	-1e-05	0
5150	1e-05	2e-05	4e-05	-5e-05	3e-05	2e-05	1e-05	-1e-05	0
5151	1e-05	2e-05	4e-05	-5e-05	3e-05	2e-05	1e-05	-1e-05	0
5152	1e-05	2e-05	4e-05	-5e-05	3e-05	2e-05	1e-05	-1e-05	0
5154	-4e-05	-2e-05	0	0.00014	0.00012	2e-05	0	1e-05	0
5155	-4e-05	-2e-05	0	0.00014	0.00012	2e-05	0	1e-05	0
5156	-4e-05	-2e-05	0	0.00014	0.00012	2e-05	0	1e-05	0
5157	-4e-05	-2e-05	0	0.00014	0.00012	2e-05	0	1e-05	0
5158	-4e-05	-2e-05	0	0.00014	0.00012	2e-05	0	1e-05	0
5159	-4e-05	-2e-05	0	0.00014	0.00012	2e-05	0	1e-05	0
5160	0	-1e-05	-1e-05	-4e-05	-4e-05	-1e-05	0	-2e-05	0
5161	0	0	3e-05	5e-05	0.00011	0	0	-2e-05	0
5162	-2e-05	-2e-05	-1e-05	-3e-05	-3e-05	-2e-05	-2e-05	0	0
5163	-2e-05	-2e-05	-1e-05	-3e-05	-3e-05	-2e-05	-2e-05	0	0
5164	-2e-05	-2e-05	-1e-05	-3e-05	-3e-05	-2e-05	-2e-05	0	0
5165	-2e-05	-2e-05	-1e-05	-3e-05	-3e-05	-2e-05	-2e-05	0	0
5166	-2e-05	-2e-05	-1e-05	-3e-05	-3e-05	-2e-05	-2e-05	0	0
5167	-2e-05	-2e-05	-1e-05	-3e-05	-3e-05	-2e-05	-2e-05	0	0
5168	-2e-05	-2e-05	-1e-05	-3e-05	-3e-05	-2e-05	-2e-05	0	0
5169	-2e-05	-2e-05	-1e-05	-3e-05	-3e-05	-2e-05	-2e-05	0	0
5170	-2e-05	-2e-05	-1e-05	-3e-05	-3e-05	-2e-05	-2e-05	0	0
5171	-2e-05	-2e-05	-1e-05	-3e-05	-3e-05	-2e-05	-2e-05	0	0
5172	-2e-05	-2e-05	-1e-05	-3e-05	-3e-05	-2e-05	-2e-05	0	0
5173	-2e-05	-2e-05	-1e-05	-3e-05	-3e-05	-2e-05	-2e-05	0	0
5174	-2e-05	-2e-05	-1e-05	-3e-05	-3e-05	-2e-05	-2e-05	0	0
5175	-2e-05	-2e-05	-1e-05	-3e-05	-3e-05	-2e-05	-2e-05	0	0
5176	-2e-05	-2e-05	-1e-05	-3e-05	-3e-05	-2e-05	-2e-05	0	0
5177	-2e-05	-2e-05	-1e-05	-3e-05	-3e-05	-2e-05	-2e-05	0	0
5179	-2e-05	-2e-05	-1e-05	-3e-05	-3e-05	-2e-05	-2e-05	0	0
5180	-2e-05	-2e-05	-1e-05	-3e-05	-3e-05	-2e-05	-2e-05	0	0
5181	-2e-05	-2e-05	-1e-05	-3e-05	-3e-05	-2e-05	-2e-05	0	0
5182	-2e-05	-2e-05	-1e-05	-3e-05	-3e-05	-2e-05	-2e-05	0	0
5183	-1e-05	-2e-05	-2e-05	-4e-05	-6e-05	-3e-05	-1e-05	-1e-05	0
5184	1e-05	1e-05	-4e-05	1e-05	6e-05	4e-05	-1e-05	0	0
5185	0	0	-3e-05	1e-05	7e-05	0	-3e-05	-1e-05	0
5186	0	0	-3e-05	1e-05	7e-05	0	-3e-05	-1e-05	0
5189	0	0	-3e-05	1e-05	7e-05	0	-3e-05	-1e-05	0
5190	0	0	-3e-05	1e-05	7e-05	0	-3e-05	-1e-05	0
5191	0	0	-3e-05	1e-05	7e-05	0	-3e-05	-1e-05	0
5192	0	0	-3e-05	1e-05	7e-05	0	-3e-05	-1e-05	0
5193	0	0	-3e-05	1e-05	7e-05	0	-3e-05	-1e-05	0
5194	0	0	-3e-05	1e-05	7e-05	0	-3e-05	-1e-05	0
5195	0	0	-3e-05	1e-05	7e-05	0	-3e-05	-1e-05	0
5196	0	0	-3e-05	1e-05	7e-05	0	-3e-05	-1e-05	0
5197	-1e-05	-1e-05	3e-05	-8e-05	2e-05	2e-05	0	0	0
5198	-1e-05	-1e-05	3e-05	-8e-05	2e-05	2e-05	0	0	0
5199	-1e-05	-1e-05	3e-05	-8e-05	2e-05	2e-05	0	0	0
5200	-1e-05	-1e-05	3e-05	-8e-05	2e-05	2e-05	0	0	0
5201	-1e-05	-1e-05	3e-05	-8e-05	2e-05	2e-05	0	0	0
5202	-1e-05	-1e-05	3e-05	-8e-05	2e-05	2e-05	0	0	0
5203	-1e-05	-1e-05	3e-05	-8e-05	2e-05	2e-05	0	0	0
5204	-1e-05	-1e-05	3e-05	-8e-05	2e-05	2e-05	0	0	0
5205	-1e-05	-1e-05	3e-05	-8e-05	2e-05	2e-05	0	0	0
5206	-1e-05	-1e-05	3e-05	-8e-05	2e-05	2e-05	0	0	0
5207	-1e-05	-1e-05	3e-05	-8e-05	2e-05	2e-05	0	0	0
5208	-1e-05	-1e-05	3e-05	-8e-05	2e-05	2e-05	0	0	0
5209	-1e-05	-1e-05	3e-05	-8e-05	2e-05	2e-05	0	0	0
5210	-1e-05	-1e-05	3e-05	-8e-05	2e-05	2e-05	0	0	0
5211	-1e-05	-1e-05	3e-05	-8e-05	2e-05	2e-05	0	0	0
5212	1e-05	-1e-05	-3e-05	0.00016	6e-05	-3e-05	-2e-05	-1e-05	0
5213	-1e-05	2e-05	1e-05	-3e-05	2e-05	-1e-05	-3e-05	-1e-05	0
5214	-1e-05	2e-05	1e-05	-3e-05	2e-05	-1e-05	-3e-05	-1e-05	0
5215	-1e-05	2e-05	1e-05	-3e-05	2e-05	-1e-05	-3e-05	-1e-05	0
5216	-1e-05	2e-05	1e-05	-3e-05	2e-05	-1e-05	-3e-05	-1e-05	0
5217	-1e-05	2e-05	1e-05	-3e-05	2e-05	-1e-05	-3e-05	-1e-05	0
5218	-1e-05	2e-05	1e-05	-3e-05	2e-05	-1e-05	-3e-05	-1e-05	0
5219	-1e-05	2e-05	1e-05	-3e-05	2e-05	-1e-05	-3e-05	-1e-05	0
5220	-1e-05	-2e-05	1e-05	2e-05	-2e-05	-3e-05	-1e-05	0	0
5221	-1e-05	-3e-05	-2e-05	-3e-05	-5e-05	-3e-05	-1e-05	0	0
5222	-1e-05	-3e-05	-2e-05	-3e-05	-5e-05	-3e-05	-1e-05	0	0
5223	-1e-05	-2e-05	0	-3e-05	-0.00014	-2e-05	1e-05	-2e-05	0
5224	-1e-05	-2e-05	0	-3e-05	-0.00014	-2e-05	1e-05	-2e-05	0
5225	-1e-05	-2e-05	0	-3e-05	-0.00014	-2e-05	1e-05	-2e-05	0
5226	-1e-05	-2e-05	0	-3e-05	-0.00014	-2e-05	1e-05	-2e-05	0
5227	-1e-05	-2e-05	0	-3e-05	-0.00014	-2e-05	1e-05	-2e-05	0
5228	-1e-05	-2e-05	0	-3e-05	-0.00014	-2e-05	1e-05	-2e-05	0
5229	-1e-05	-2e-05	0	-3e-05	-0.00014	-2e-05	1e-05	-2e-05	0
5230	-1e-05	-2e-05	0	-3e-05	-0.00014	-2e-05	1e-05	-2e-05	0
5231	-1e-05	-2e-05	0	-3e-05	-0.00014	-2e-05	1e-05	-2e-05	0
5232	-1e-05	-2e-05	0	-3e-05	-0.00014	-2e-05	1e-05	-2e-05	0
5233	-1e-05	-2e-05	0	-3e-05	-0.00014	-2e-05	1e-05	-2e-05	0
5234	-1e-05	-2e-05	0	-3e-05	-0.00014	-2e-05	1e-05	-2e-05	0
5235	-1e-05	-2e-05	0	-3e-05	-0.00014	-2e-05	1e-05	-2e-05	0
5237	-1e-05	-2e-05	0	-3e-05	-0.00014	-2e-05	1e-05	-2e-05	0
5239	-1e-05	-2e-05	0	-3e-05	-0.00014	-2e-05	1e-05	-2e-05	0
5240	-1e-05	-2e-05	0	-3e-05	-0.00014	-2e-05	1e-05	-2e-05	0
5241	-1e-05	-2e-05	0	-3e-05	-0.00014	-2e-05	1e-05	-2e-05	0
5242	-1e-05	-2e-05	0	-3e-05	-0.00014	-2e-05	1e-05	-2e-05	0
5243	-1e-05	-2e-05	0	-3e-05	-0.00014	-2e-05	1e-05	-2e-05	0
5244	-3e-05	-3e-05	-8e-05	-8e-05	8e-05	-3e-05	-1e-05	0	0
5245	0	-1e-05	-1e-05	-2e-05	-2e-05	-3e-05	0	-2e-05	0
5246	0	-1e-05	-1e-05	-2e-05	-2e-05	-3e-05	0	-2e-05	0
5247	0	-1e-05	-1e-05	-2e-05	-2e-05	-3e-05	0	-2e-05	0
5248	0	-1e-05	-1e-05	-2e-05	-2e-05	-3e-05	0	-2e-05	0
5249	0	-1e-05	-1e-05	-2e-05	-2e-05	-3e-05	0	-2e-05	0
5250	0	-1e-05	-1e-05	-2e-05	-2e-05	-3e-05	0	-2e-05	0
5251	0	-1e-05	-1e-05	-2e-05	-2e-05	-3e-05	0	-2e-05	0
5252	0	-1e-05	-1e-05	-2e-05	-2e-05	-3e-05	0	-2e-05	0
5254	0	-1e-05	-1e-05	-2e-05	-2e-05	-3e-05	0	-2e-05	0
5255	0	-1e-05	-1e-05	-2e-05	-2e-05	-3e-05	0	-2e-05	0
5256	0	-1e-05	-1e-05	-2e-05	-2e-05	-3e-05	0	-2e-05	0
5257	1e-05	-2e-05	0	9e-05	7e-05	-1e-05	0	0	0
5258	1e-05	-2e-05	0	9e-05	7e-05	-1e-05	0	0	0
5259	1e-05	-2e-05	0	9e-05	7e-05	-1e-05	0	0	0
5260	1e-05	-2e-05	0	9e-05	7e-05	-1e-05	0	0	0
5261	1e-05	-2e-05	0	9e-05	7e-05	-1e-05	0	0	0
5262	1e-05	-2e-05	0	9e-05	7e-05	-1e-05	0	0	0
5263	1e-05	-2e-05	0	9e-05	7e-05	-1e-05	0	0	0
5264	1e-05	-2e-05	0	9e-05	7e-05	-1e-05	0	0	0
5265	1e-05	-2e-05	0	9e-05	7e-05	-1e-05	0	0	0
5266	1e-05	-2e-05	0	9e-05	7e-05	-1e-05	0	0	0
5267	1e-05	-2e-05	0	9e-05	7e-05	-1e-05	0	0	0
5268	1e-05	-2e-05	0	9e-05	7e-05	-1e-05	0	0	0
5269	1e-05	-2e-05	0	9e-05	7e-05	-1e-05	0	0	0
5270	1e-05	-2e-05	0	9e-05	7e-05	-1e-05	0	0	0
5271	1e-05	-2e-05	0	9e-05	7e-05	-1e-05	0	0	0
5272	1e-05	-2e-05	0	9e-05	7e-05	-1e-05	0	0	0
5273	1e-05	-2e-05	-6e-05	0	-7e-05	-2e-05	-2e-05	1e-05	0
5274	1e-05	-2e-05	-6e-05	0	-7e-05	-2e-05	-2e-05	1e-05	0
5275	1e-05	-2e-05	-6e-05	0	-7e-05	-2e-05	-2e-05	1e-05	0
5276	1e-05	-2e-05	-6e-05	0	-7e-05	-2e-05	-2e-05	1e-05	0
5277	1e-05	-2e-05	-6e-05	0	-7e-05	-2e-05	-2e-05	1e-05	0
5278	1e-05	-2e-05	-6e-05	0	-7e-05	-2e-05	-2e-05	1e-05	0
5279	1e-05	-2e-05	-6e-05	0	-7e-05	-2e-05	-2e-05	1e-05	0
5280	-1e-05	2e-05	1e-05	-3e-05	-0.00011	0	0	1e-05	0
5281	0	-1e-05	0	-0.00014	-0.00018	-4e-05	0	-2e-05	0
5282	-1e-05	0	3e-05	-1e-05	-4e-05	-2e-05	-3e-05	-1e-05	0
5283	-1e-05	0	3e-05	-1e-05	-4e-05	-2e-05	-3e-05	-1e-05	0
5284	-1e-05	0	3e-05	-1e-05	-4e-05	-2e-05	-3e-05	-1e-05	0
5285	-1e-05	0	3e-05	-1e-05	-4e-05	-2e-05	-3e-05	-1e-05	0
5286	-1e-05	0	3e-05	-1e-05	-4e-05	-2e-05	-3e-05	-1e-05	0
5288	-1e-05	0	3e-05	-1e-05	-4e-05	-2e-05	-3e-05	-1e-05	0
5289	-1e-05	0	3e-05	-1e-05	-4e-05	-2e-05	-3e-05	-1e-05	0
5290	-1e-05	0	3e-05	-1e-05	-4e-05	-2e-05	-3e-05	-1e-05	0
5291	-1e-05	0	3e-05	-1e-05	-4e-05	-2e-05	-3e-05	-1e-05	0
5292	-1e-05	0	3e-05	-1e-05	-4e-05	-2e-05	-3e-05	-1e-05	0
5293	-1e-05	0	3e-05	-1e-05	-4e-05	-2e-05	-3e-05	-1e-05	0
5294	-1e-05	0	3e-05	-1e-05	-4e-05	-2e-05	-3e-05	-1e-05	0
5295	-1e-05	0	3e-05	-1e-05	-4e-05	-2e-05	-3e-05	-1e-05	0
5296	-1e-05	0	3e-05	-1e-05	-4e-05	-2e-05	-3e-05	-1e-05	0
5297	-1e-05	0	3e-05	-1e-05	-4e-05	-2e-05	-3e-05	-1e-05	0
5298	-1e-05	0	3e-05	-1e-05	-4e-05	-2e-05	-3e-05	-1e-05	0
5299	-1e-05	0	3e-05	-1e-05	-4e-05	-2e-05	-3e-05	-1e-05	0
5300	-1e-05	0	3e-05	-1e-05	-4e-05	-2e-05	-3e-05	-1e-05	0
5301	-1e-05	0	3e-05	-1e-05	-4e-05	-2e-05	-3e-05	-1e-05	0
5302	-1e-05	0	3e-05	-1e-05	-4e-05	-2e-05	-3e-05	-1e-05	0
5303	0	-1e-05	-1e-05	-1e-05	-9e-05	-3e-05	0	0	0
5304	0	1e-05	-3e-05	-7e-05	-3e-05	-1e-05	-1e-05	-2e-05	0
5305	0	1e-05	6e-05	7e-05	0.00019	-1e-05	0	-1e-05	0
5306	0	1e-05	6e-05	7e-05	0.00019	-1e-05	0	-1e-05	0
5307	0	1e-05	6e-05	7e-05	0.00019	-1e-05	0	-1e-05	0
5308	0	1e-05	6e-05	7e-05	0.00019	-1e-05	0	-1e-05	0
5309	0	1e-05	6e-05	7e-05	0.00019	-1e-05	0	-1e-05	0
5310	0	1e-05	6e-05	7e-05	0.00019	-1e-05	0	-1e-05	0
5311	0	1e-05	6e-05	7e-05	0.00019	-1e-05	0	-1e-05	0
5312	0	1e-05	6e-05	7e-05	0.00019	-1e-05	0	-1e-05	0
5313	0	1e-05	6e-05	7e-05	0.00019	-1e-05	0	-1e-05	0
5314	0	1e-05	6e-05	7e-05	0.00019	-1e-05	0	-1e-05	0
5315	0	1e-05	6e-05	7e-05	0.00019	-1e-05	0	-1e-05	0
5316	0	1e-05	6e-05	7e-05	0.00019	-1e-05	0	-1e-05	0
5317	-3e-05	-2e-05	2e-05	2e-05	-8e-05	-3e-05	-2e-05	-3e-05	0
5318	-3e-05	-2e-05	2e-05	2e-05	-8e-05	-3e-05	-2e-05	-3e-05	0
5319	-3e-05	-2e-05	2e-05	2e-05	-8e-05	-3e-05	-2e-05	-3e-05	0
5320	-3e-05	-2e-05	2e-05	2e-05	-8e-05	-3e-05	-2e-05	-3e-05	0
5321	-3e-05	-2e-05	2e-05	2e-05	-8e-05	-3e-05	-2e-05	-3e-05	0
5322	-3e-05	-2e-05	2e-05	2e-05	-8e-05	-3e-05	-2e-05	-3e-05	0
5323	-3e-05	-2e-05	2e-05	2e-05	-8e-05	-3e-05	-2e-05	-3e-05	0
5324	-3e-05	-2e-05	2e-05	2e-05	-8e-05	-3e-05	-2e-05	-3e-05	0
5325	-3e-05	-2e-05	2e-05	2e-05	-8e-05	-3e-05	-2e-05	-3e-05	0
5326	-1e-05	0	-1e-05	-1e-05	4e-05	1e-05	0	0	0
5327	-1e-05	0	-1e-05	-1e-05	4e-05	1e-05	0	0	0
5328	-1e-05	0	-1e-05	-1e-05	4e-05	1e-05	0	0	0
5329	-1e-05	0	-1e-05	-1e-05	4e-05	1e-05	0	0	0
5330	-1e-05	0	-1e-05	-1e-05	4e-05	1e-05	0	0	0
5331	-1e-05	0	-1e-05	-1e-05	4e-05	1e-05	0	0	0
5332	-1e-05	0	-1e-05	-1e-05	4e-05	1e-05	0	0	0
5333	-1e-05	0	-1e-05	-1e-05	4e-05	1e-05	0	0	0
5334	-1e-05	0	-1e-05	-1e-05	4e-05	1e-05	0	0	0
5335	-1e-05	0	-1e-05	-1e-05	4e-05	1e-05	0	0	0
5336	-1e-05	0	-1e-05	-1e-05	4e-05	1e-05	0	0	0
5338	-1e-05	0	-1e-05	-1e-05	4e-05	1e-05	0	0	0
5339	-1e-05	0	-1e-05	-1e-05	4e-05	1e-05	0	0	0
5340	-1e-05	0	-1e-05	-1e-05	4e-05	1e-05	0	0	0
5341	-2e-05	-1e-05	0	2e-05	0.00016	2e-05	0	-1e-05	0
5342	-2e-05	-3e-05	-7e-05	-4e-05	-1e-05	4e-05	1e-05	-2e-05	0
5343	-2e-05	-3e-05	-7e-05	-4e-05	-1e-05	4e-05	1e-05	-2e-05	0
5344	-2e-05	-3e-05	-7e-05	-4e-05	-1e-05	4e-05	1e-05	-2e-05	0
5345	-2e-05	-3e-05	-7e-05	-4e-05	-1e-05	4e-05	1e-05	-2e-05	0
5346	-2e-05	-3e-05	-7e-05	-4e-05	-1e-05	4e-05	1e-05	-2e-05	0
5347	-2e-05	-3e-05	-7e-05	-4e-05	-1e-05	4e-05	1e-05	-2e-05	0
5348	-2e-05	-3e-05	-7e-05	-4e-05	-1e-05	4e-05	1e-05	-2e-05	0
5349	-2e-05	-3e-05	-7e-05	-4e-05	-1e-05	4e-05	1e-05	-2e-05	0
5350	-2e-05	-3e-05	-7e-05	-4e-05	-1e-05	4e-05	1e-05	-2e-05	0
5351	-2e-05	-3e-05	-7e-05	-4e-05	-1e-05	4e-05	1e-05	-2e-05	0
5352	-2e-05	-3e-05	-7e-05	-4e-05	-1e-05	4e-05	1e-05	-2e-05	0
5353	-2e-05	-3e-05	-7e-05	-4e-05	-1e-05	4e-05	1e-05	-2e-05	0
5354	-2e-05	-3e-05	-7e-05	-4e-05	-1e-05	4e-05	1e-05	-2e-05	0
5355	-2e-05	-3e-05	-7e-05	-4e-05	-1e-05	4e-05	1e-05	-2e-05	0
5356	-2e-05	-3e-05	-7e-05	-4e-05	-1e-05	4e-05	1e-05	-2e-05	0
5357	-2e-05	-3e-05	-7e-05	-4e-05	-1e-05	4e-05	1e-05	-2e-05	0
5358	-2e-05	-3e-05	-7e-05	-4e-05	-1e-05	4e-05	1e-05	-2e-05	0
5359	-2e-05	-3e-05	-7e-05	-4e-05	-1e-05	4e-05	1e-05	-2e-05	0
5360	-2e-05	-3e-05	-7e-05	-4e-05	-1e-05	4e-05	1e-05	-2e-05	0
5361	-2e-05	-3e-05	-7e-05	-4e-05	-1e-05	4e-05	1e-05	-2e-05	0
5362	-2e-05	-3e-05	-7e-05	-4e-05	-1e-05	4e-05	1e-05	-2e-05	0
5363	0	-1e-05	1e-05	0.0001	0.00011	-2e-05	0	1e-05	0
5364	-2e-05	-3e-05	-2e-05	-0.00014	-0.00021	-4e-05	-2e-05	-1e-05	0
5365	-1e-05	0	-1e-05	-4e-05	-5e-05	0	-3e-05	0	0
5366	-1e-05	0	-1e-05	-4e-05	-5e-05	0	-3e-05	0	0
5367	-1e-05	0	-1e-05	-4e-05	-5e-05	0	-3e-05	0	0
5368	-1e-05	0	-1e-05	-4e-05	-5e-05	0	-3e-05	0	0
5369	-1e-05	0	-1e-05	-4e-05	-5e-05	0	-3e-05	0	0
5370	-1e-05	0	-1e-05	-4e-05	-5e-05	0	-3e-05	0	0
5371	-1e-05	0	-1e-05	-4e-05	-5e-05	0	-3e-05	0	0
5372	-1e-05	0	-1e-05	-4e-05	-5e-05	0	-3e-05	0	0
5373	-1e-05	0	-1e-05	-4e-05	-5e-05	0	-3e-05	0	0
5374	-1e-05	0	-1e-05	-4e-05	-5e-05	0	-3e-05	0	0
5375	-1e-05	0	-1e-05	-4e-05	-5e-05	0	-3e-05	0	0
5376	-1e-05	0	-1e-05	-4e-05	-5e-05	0	-3e-05	0	0
5377	-1e-05	-2e-05	0	0.00013	7e-05	5e-05	0	0	0
5378	-1e-05	-2e-05	0	0.00013	7e-05	5e-05	0	0	0
5379	-1e-05	-2e-05	0	0.00013	7e-05	5e-05	0	0	0
5380	-1e-05	-2e-05	0	0.00013	7e-05	5e-05	0	0	0
5381	-1e-05	-2e-05	0	0.00013	7e-05	5e-05	0	0	0
5382	-1e-05	-2e-05	0	0.00013	7e-05	5e-05	0	0	0
5383	-1e-05	-2e-05	0	0.00013	7e-05	5e-05	0	0	0
5384	-1e-05	-2e-05	0	0.00013	7e-05	5e-05	0	0	0
5385	-1e-05	-2e-05	0	0.00013	7e-05	5e-05	0	0	0
5386	-2e-05	-3e-05	-1e-05	3e-05	-2e-05	-5e-05	0	-1e-05	0
5389	-2e-05	-3e-05	-1e-05	3e-05	-2e-05	-5e-05	0	-1e-05	0
5390	-2e-05	-3e-05	-1e-05	3e-05	-2e-05	-5e-05	0	-1e-05	0
5391	-2e-05	-3e-05	-1e-05	3e-05	-2e-05	-5e-05	0	-1e-05	0
5392	-2e-05	-3e-05	-1e-05	3e-05	-2e-05	-5e-05	0	-1e-05	0
5393	-2e-05	-3e-05	-1e-05	3e-05	-2e-05	-5e-05	0	-1e-05	0
5394	-2e-05	-3e-05	-1e-05	3e-05	-2e-05	-5e-05	0	-1e-05	0
5395	-2e-05	-3e-05	-1e-05	3e-05	-2e-05	-5e-05	0	-1e-05	0
5396	-2e-05	-3e-05	-1e-05	3e-05	-2e-05	-5e-05	0	-1e-05	0
5397	-2e-05	-3e-05	-1e-05	3e-05	-2e-05	-5e-05	0	-1e-05	0
5398	-2e-05	-3e-05	-1e-05	3e-05	-2e-05	-5e-05	0	-1e-05	0
5399	-2e-05	-3e-05	-1e-05	3e-05	-2e-05	-5e-05	0	-1e-05	0
5400	-1e-05	-1e-05	-7e-05	-5e-05	6e-05	7e-05	-1e-05	0	0
5401	0	0	0	-8e-05	0	3e-05	-2e-05	-2e-05	0
5402	-2e-05	-3e-05	0	0.0002	-0.00014	-0.0002	-4e-05	-1e-05	0
5403	-2e-05	-3e-05	0	0.0002	-0.00014	-0.0002	-4e-05	-1e-05	0
5404	-2e-05	-3e-05	0	0.0002	-0.00014	-0.0002	-4e-05	-1e-05	0
5405	-2e-05	-3e-05	0	0.0002	-0.00014	-0.0002	-4e-05	-1e-05	0
5406	-2e-05	-3e-05	0	0.0002	-0.00014	-0.0002	-4e-05	-1e-05	0
5407	-2e-05	-3e-05	0	0.0002	-0.00014	-0.0002	-4e-05	-1e-05	0
5408	-2e-05	-3e-05	0	0.0002	-0.00014	-0.0002	-4e-05	-1e-05	0
5409	-2e-05	-3e-05	0	0.0002	-0.00014	-0.0002	-4e-05	-1e-05	0
5410	-2e-05	-3e-05	0	0.0002	-0.00014	-0.0002	-4e-05	-1e-05	0
5411	-2e-05	-3e-05	0	0.0002	-0.00014	-0.0002	-4e-05	-1e-05	0
5412	-2e-05	-3e-05	0	0.0002	-0.00014	-0.0002	-4e-05	-1e-05	0
5413	-2e-05	-3e-05	0	0.0002	-0.00014	-0.0002	-4e-05	-1e-05	0
5414	-2e-05	-3e-05	0	0.0002	-0.00014	-0.0002	-4e-05	-1e-05	0
5415	-2e-05	-3e-05	0	0.0002	-0.00014	-0.0002	-4e-05	-1e-05	0
5416	-2e-05	-3e-05	0	0.0002	-0.00014	-0.0002	-4e-05	-1e-05	0
5417	-2e-05	-3e-05	0	0.0002	-0.00014	-0.0002	-4e-05	-1e-05	0
5418	-2e-05	-3e-05	0	0.0002	-0.00014	-0.0002	-4e-05	-1e-05	0
5419	-2e-05	-3e-05	0	0.0002	-0.00014	-0.0002	-4e-05	-1e-05	0
5420	-2e-05	-3e-05	0	0.0002	-0.00014	-0.0002	-4e-05	-1e-05	0
5421	-2e-05	-3e-05	0	0.0002	-0.00014	-0.0002	-4e-05	-1e-05	0
5422	-2e-05	-3e-05	0	0.0002	-0.00014	-0.0002	-4e-05	-1e-05	0
5423	-2e-05	-3e-05	0	0.0002	-0.00014	-0.0002	-4e-05	-1e-05	0
5424	-1e-05	-3e-05	-3e-05	-0.0001	-0.00014	-0.00012	-1e-05	-2e-05	0
5425	-1e-05	-3e-05	-3e-05	-0.0001	-0.00014	-0.00012	-1e-05	-2e-05	0
5426	-1e-05	-3e-05	-3e-05	-0.0001	-0.00014	-0.00012	-1e-05	-2e-05	0
5427	-1e-05	-3e-05	-3e-05	-0.0001	-0.00014	-0.00012	-1e-05	-2e-05	0
5428	-1e-05	-3e-05	-3e-05	-0.0001	-0.00014	-0.00012	-1e-05	-2e-05	0
5429	0	-1e-05	-1e-05	-7e-05	-6e-05	-1e-05	-2e-05	-1e-05	0
5430	0	-1e-05	-1e-05	-7e-05	-6e-05	-1e-05	-2e-05	-1e-05	0
5431	0	-1e-05	-1e-05	-7e-05	-6e-05	-1e-05	-2e-05	-1e-05	0
5432	0	-1e-05	-1e-05	-7e-05	-6e-05	-1e-05	-2e-05	-1e-05	0
5433	0	-1e-05	-1e-05	-7e-05	-6e-05	-1e-05	-2e-05	-1e-05	0
5434	0	-1e-05	-1e-05	-7e-05	-6e-05	-1e-05	-2e-05	-1e-05	0
5435	0	-1e-05	-1e-05	-7e-05	-6e-05	-1e-05	-2e-05	-1e-05	0
5436	0	-1e-05	-1e-05	-7e-05	-6e-05	-1e-05	-2e-05	-1e-05	0
5438	0	-1e-05	-1e-05	-7e-05	-6e-05	-1e-05	-2e-05	-1e-05	0
5439	0	-1e-05	-1e-05	-7e-05	-6e-05	-1e-05	-2e-05	-1e-05	0
5440	0	-1e-05	-1e-05	-7e-05	-6e-05	-1e-05	-2e-05	-1e-05	0
5441	0	-1e-05	-1e-05	-7e-05	-6e-05	-1e-05	-2e-05	-1e-05	0
5442	0	-1e-05	-1e-05	-7e-05	-6e-05	-1e-05	-2e-05	-1e-05	0
5443	0	-1e-05	-1e-05	-7e-05	-6e-05	-1e-05	-2e-05	-1e-05	0
5444	0	-1e-05	-1e-05	-7e-05	-6e-05	-1e-05	-2e-05	-1e-05	0
5445	0	-1e-05	-1e-05	-7e-05	-6e-05	-1e-05	-2e-05	-1e-05	0
5446	-1e-05	1e-05	-6e-05	0.0001	0.0002	-1e-05	-3e-05	-1e-05	0
5447	-1e-05	1e-05	2e-05	-6e-05	-3e-05	3e-05	-1e-05	-1e-05	0
5448	-1e-05	1e-05	2e-05	-6e-05	-3e-05	3e-05	-1e-05	-1e-05	0
5449	-1e-05	1e-05	2e-05	-6e-05	-3e-05	3e-05	-1e-05	-1e-05	0
5450	-1e-05	1e-05	2e-05	-6e-05	-3e-05	3e-05	-1e-05	-1e-05	0
5451	-1e-05	1e-05	2e-05	-6e-05	-3e-05	3e-05	-1e-05	-1e-05	0
5452	-1e-05	1e-05	2e-05	-6e-05	-3e-05	3e-05	-1e-05	-1e-05	0
5454	-1e-05	1e-05	2e-05	-6e-05	-3e-05	3e-05	-1e-05	-1e-05	0
5455	-1e-05	1e-05	2e-05	-6e-05	-3e-05	3e-05	-1e-05	-1e-05	0
5457	-1e-05	1e-05	2e-05	-6e-05	-3e-05	3e-05	-1e-05	-1e-05	0
5458	-1e-05	1e-05	2e-05	-6e-05	-3e-05	3e-05	-1e-05	-1e-05	0
5459	-1e-05	1e-05	2e-05	-6e-05	-3e-05	3e-05	-1e-05	-1e-05	0
5460	-1e-05	1e-05	2e-05	-6e-05	-3e-05	3e-05	-1e-05	-1e-05	0
5461	-1e-05	-3e-05	-2e-05	-9e-05	0	2e-05	-3e-05	0	0
5462	0	-1e-05	-3e-05	3e-05	-4e-05	-0.0002	-0.00012	-3e-05	0
5463	-1e-05	-4e-05	-5e-05	-6e-05	-1e-05	0.00026	0.00015	0	0
5464	-1e-05	-4e-05	-5e-05	-6e-05	-1e-05	0.00026	0.00015	0	0
5465	-1e-05	-4e-05	-5e-05	-6e-05	-1e-05	0.00026	0.00015	0	0
5466	-1e-05	-4e-05	-5e-05	-6e-05	-1e-05	0.00026	0.00015	0	0
5467	-1e-05	-4e-05	-5e-05	-6e-05	-1e-05	0.00026	0.00015	0	0
5468	-1e-05	-4e-05	-5e-05	-6e-05	-1e-05	0.00026	0.00015	0	0
5469	-1e-05	-4e-05	-5e-05	-6e-05	-1e-05	0.00026	0.00015	0	0
5470	-1e-05	-4e-05	-5e-05	-6e-05	-1e-05	0.00026	0.00015	0	0
5471	-1e-05	-4e-05	-5e-05	-6e-05	-1e-05	0.00026	0.00015	0	0
5472	-1e-05	-4e-05	-5e-05	-6e-05	-1e-05	0.00026	0.00015	0	0
5473	-1e-05	-4e-05	-5e-05	-6e-05	-1e-05	0.00026	0.00015	0	0
5474	-1e-05	-4e-05	-5e-05	-6e-05	-1e-05	0.00026	0.00015	0	0
5475	-1e-05	-4e-05	-5e-05	-6e-05	-1e-05	0.00026	0.00015	0	0
5476	-1e-05	-4e-05	-5e-05	-6e-05	-1e-05	0.00026	0.00015	0	0
5477	-1e-05	-4e-05	-5e-05	-6e-05	-1e-05	0.00026	0.00015	0	0
5478	-1e-05	-4e-05	-5e-05	-6e-05	-1e-05	0.00026	0.00015	0	0
5479	-1e-05	-4e-05	-5e-05	-6e-05	-1e-05	0.00026	0.00015	0	0
5480	-1e-05	-4e-05	-5e-05	-6e-05	-1e-05	0.00026	0.00015	0	0
5481	-1e-05	-4e-05	-5e-05	-6e-05	-1e-05	0.00026	0.00015	0	0
5482	-1e-05	-4e-05	-5e-05	-6e-05	-1e-05	0.00026	0.00015	0	0
5483	2e-05	4e-05	5e-05	0.0003	0.00026	1e-05	0	1e-05	0
5484	-2e-05	1e-05	2e-05	5e-05	-0.0001	-2e-05	0.0001	1e-05	0
5485	-6e-05	0	1e-05	-3e-05	0.00017	7e-05	-0.00011	-4e-05	0
5486	-6e-05	0	1e-05	-3e-05	0.00017	7e-05	-0.00011	-4e-05	0
5488	-6e-05	0	1e-05	-3e-05	0.00017	7e-05	-0.00011	-4e-05	0
5489	-6e-05	0	1e-05	-3e-05	0.00017	7e-05	-0.00011	-4e-05	0
5490	-6e-05	0	1e-05	-3e-05	0.00017	7e-05	-0.00011	-4e-05	0
5491	-6e-05	0	1e-05	-3e-05	0.00017	7e-05	-0.00011	-4e-05	0
5492	-6e-05	0	1e-05	-3e-05	0.00017	7e-05	-0.00011	-4e-05	0
5493	-6e-05	0	1e-05	-3e-05	0.00017	7e-05	-0.00011	-4e-05	0
5494	-6e-05	0	1e-05	-3e-05	0.00017	7e-05	-0.00011	-4e-05	0
5495	-6e-05	0	1e-05	-3e-05	0.00017	7e-05	-0.00011	-4e-05	0
5496	-6e-05	0	1e-05	-3e-05	0.00017	7e-05	-0.00011	-4e-05	0
5497	-6e-05	0	1e-05	-3e-05	0.00017	7e-05	-0.00011	-4e-05	0
5498	-6e-05	0	1e-05	-3e-05	0.00017	7e-05	-0.00011	-4e-05	0
5499	-6e-05	0	1e-05	-3e-05	0.00017	7e-05	-0.00011	-4e-05	0
5500	-6e-05	0	1e-05	-3e-05	0.00017	7e-05	-0.00011	-4e-05	0
5501	-6e-05	0	1e-05	-3e-05	0.00017	7e-05	-0.00011	-4e-05	0
5502	-6e-05	0	1e-05	-3e-05	0.00017	7e-05	-0.00011	-4e-05	0
5504	-6e-05	0	1e-05	-3e-05	0.00017	7e-05	-0.00011	-4e-05	0
5505	0	-2e-05	1e-05	5e-05	0.00011	-0.00018	2e-05	-7e-05	0
5506	3e-05	-1e-05	-6e-05	-9e-05	-0.00016	-0.0002	-7e-05	6e-05	0
5507	3e-05	-1e-05	-6e-05	-9e-05	-0.00016	-0.0002	-7e-05	6e-05	0
5508	-6e-05	0	2e-05	4e-05	-5e-05	0	-0.00013	-4e-05	0
5509	-6e-05	0	2e-05	4e-05	-5e-05	0	-0.00013	-4e-05	0
5510	-6e-05	0	2e-05	4e-05	-5e-05	0	-0.00013	-4e-05	0
5511	-6e-05	0	2e-05	4e-05	-5e-05	0	-0.00013	-4e-05	0
5512	-6e-05	0	2e-05	4e-05	-5e-05	0	-0.00013	-4e-05	0
5513	-6e-05	0	2e-05	4e-05	-5e-05	0	-0.00013	-4e-05	0
5514	-6e-05	0	2e-05	4e-05	-5e-05	0	-0.00013	-4e-05	0
5515	-6e-05	0	2e-05	4e-05	-5e-05	0	-0.00013	-4e-05	0
5516	-6e-05	0	2e-05	4e-05	-5e-05	0	-0.00013	-4e-05	0
5517	-6e-05	0	2e-05	4e-05	-5e-05	0	-0.00013	-4e-05	0
5518	-6e-05	0	2e-05	4e-05	-5e-05	0	-0.00013	-4e-05	0
5519	-6e-05	0	2e-05	4e-05	-5e-05	0	-0.00013	-4e-05	0
5520	2e-05	0	3e-05	1e-05	8e-05	-9e-05	-3e-05	0	0
5521	-0.00016	-6e-05	0	-0.0001	-0.00027	-0.00024	-0.0001	-0.00022	0
5522	9e-05	1e-05	-2e-05	-0.00016	-0.00021	0	0.00016	7e-05	0
5523	9e-05	1e-05	-2e-05	-0.00016	-0.00021	0	0.00016	7e-05	0
5524	9e-05	1e-05	-2e-05	-0.00016	-0.00021	0	0.00016	7e-05	0
5525	9e-05	1e-05	-2e-05	-0.00016	-0.00021	0	0.00016	7e-05	0
5526	9e-05	1e-05	-2e-05	-0.00016	-0.00021	0	0.00016	7e-05	0
5527	9e-05	1e-05	-2e-05	-0.00016	-0.00021	0	0.00016	7e-05	0
5528	9e-05	1e-05	-2e-05	-0.00016	-0.00021	0	0.00016	7e-05	0
5529	9e-05	1e-05	-2e-05	-0.00016	-0.00021	0	0.00016	7e-05	0
5530	9e-05	1e-05	-2e-05	-0.00016	-0.00021	0	0.00016	7e-05	0
5531	9e-05	1e-05	-2e-05	-0.00016	-0.00021	0	0.00016	7e-05	0
5532	9e-05	1e-05	-2e-05	-0.00016	-0.00021	0	0.00016	7e-05	0
5533	9e-05	1e-05	-2e-05	-0.00016	-0.00021	0	0.00016	7e-05	0
5534	9e-05	1e-05	-2e-05	-0.00016	-0.00021	0	0.00016	7e-05	0
5535	9e-05	1e-05	-2e-05	-0.00016	-0.00021	0	0.00016	7e-05	0
5536	9e-05	1e-05	-2e-05	-0.00016	-0.00021	0	0.00016	7e-05	0
5538	9e-05	1e-05	-2e-05	-0.00016	-0.00021	0	0.00016	7e-05	0
5539	9e-05	1e-05	-2e-05	-0.00016	-0.00021	0	0.00016	7e-05	0
5540	9e-05	1e-05	-2e-05	-0.00016	-0.00021	0	0.00016	7e-05	0
5541	9e-05	1e-05	-2e-05	-0.00016	-0.00021	0	0.00016	7e-05	0
5542	9e-05	1e-05	-2e-05	-0.00016	-0.00021	0	0.00016	7e-05	0
5543	9e-05	1e-05	-2e-05	-0.00016	-0.00021	0	0.00016	7e-05	0
5544	9e-05	1e-05	-2e-05	-0.00016	-0.00021	0	0.00016	7e-05	0
5545	9e-05	1e-05	-2e-05	-0.00016	-0.00021	0	0.00016	7e-05	0
5546	9e-05	1e-05	-2e-05	-0.00016	-0.00021	0	0.00016	7e-05	0
5547	9e-05	1e-05	-2e-05	-0.00016	-0.00021	0	0.00016	7e-05	0
5548	9e-05	1e-05	-2e-05	-0.00016	-0.00021	0	0.00016	7e-05	0
5549	9e-05	1e-05	-2e-05	-0.00016	-0.00021	0	0.00016	7e-05	0
5550	0.0001	2e-05	-1e-05	6e-05	8e-05	1e-05	-3e-05	0.00025	0
5551	1e-05	3e-05	1e-05	4e-05	9e-05	0.00016	0.00016	-6e-05	0
5552	5e-05	3e-05	2e-05	6e-05	-5e-05	0.00012	-0.00025	2e-05	0
5554	5e-05	3e-05	2e-05	6e-05	-5e-05	0.00012	-0.00025	2e-05	0
5555	5e-05	3e-05	2e-05	6e-05	-5e-05	0.00012	-0.00025	2e-05	0
5556	5e-05	3e-05	2e-05	6e-05	-5e-05	0.00012	-0.00025	2e-05	0
5557	5e-05	3e-05	2e-05	6e-05	-5e-05	0.00012	-0.00025	2e-05	0
5558	5e-05	3e-05	2e-05	6e-05	-5e-05	0.00012	-0.00025	2e-05	0
5559	5e-05	3e-05	2e-05	6e-05	-5e-05	0.00012	-0.00025	2e-05	0
5560	5e-05	3e-05	2e-05	6e-05	-5e-05	0.00012	-0.00025	2e-05	0
5561	5e-05	3e-05	2e-05	6e-05	-5e-05	0.00012	-0.00025	2e-05	0
5562	5e-05	3e-05	2e-05	6e-05	-5e-05	0.00012	-0.00025	2e-05	0
5563	5e-05	3e-05	2e-05	6e-05	-5e-05	0.00012	-0.00025	2e-05	0
5564	5e-05	3e-05	2e-05	6e-05	-5e-05	0.00012	-0.00025	2e-05	0
5566	5e-05	2e-05	3e-05	-3e-05	-0.00018	-9e-05	0	0.00018	0
5567	0.00014	-2e-05	-5e-05	-8e-05	-0.00013	-0.00046	-0.00017	0.00048	0
5568	0.00014	-2e-05	-5e-05	-8e-05	-0.00013	-0.00046	-0.00017	0.00048	0
5569	0.00014	-2e-05	-5e-05	-8e-05	-0.00013	-0.00046	-0.00017	0.00048	0
5570	0.00014	-2e-05	-5e-05	-8e-05	-0.00013	-0.00046	-0.00017	0.00048	0
5571	0.00014	-2e-05	-5e-05	-8e-05	-0.00013	-0.00046	-0.00017	0.00048	0
5572	0.00014	-2e-05	-5e-05	-8e-05	-0.00013	-0.00046	-0.00017	0.00048	0
5573	0.00014	-2e-05	-5e-05	-8e-05	-0.00013	-0.00046	-0.00017	0.00048	0
5574	0.00014	-2e-05	-5e-05	-8e-05	-0.00013	-0.00046	-0.00017	0.00048	0
5575	0.00014	-2e-05	-5e-05	-8e-05	-0.00013	-0.00046	-0.00017	0.00048	0
5576	0.00014	-2e-05	-5e-05	-8e-05	-0.00013	-0.00046	-0.00017	0.00048	0
5577	0.00014	-2e-05	-5e-05	-8e-05	-0.00013	-0.00046	-0.00017	0.00048	0
5578	0.00014	-2e-05	-5e-05	-8e-05	-0.00013	-0.00046	-0.00017	0.00048	0
5579	0.00014	-2e-05	-5e-05	-8e-05	-0.00013	-0.00046	-0.00017	0.00048	0
5580	-0.00014	-0.0001	-5e-05	0.0001	0.00028	-0.00011	-0.00016	-0.00022	0
5581	-0.00014	-0.0001	-5e-05	0.0001	0.00028	-0.00011	-0.00016	-0.00022	0
5582	-0.00014	-0.0001	-5e-05	0.0001	0.00028	-0.00011	-0.00016	-0.00022	0
5583	-0.00014	-0.0001	-5e-05	0.0001	0.00028	-0.00011	-0.00016	-0.00022	0
5584	-0.00014	-0.0001	-5e-05	0.0001	0.00028	-0.00011	-0.00016	-0.00022	0
5585	-0.00014	-0.0001	-5e-05	0.0001	0.00028	-0.00011	-0.00016	-0.00022	0
5586	-0.00014	-0.0001	-5e-05	0.0001	0.00028	-0.00011	-0.00016	-0.00022	0
5588	-0.00034	-9e-05	-3e-05	-3e-05	-0.00017	-0.00037	-0.00029	-0.00083	0
5589	-0.00034	-9e-05	-3e-05	-3e-05	-0.00017	-0.00037	-0.00029	-0.00083	0
5590	-0.00034	-9e-05	-3e-05	-3e-05	-0.00017	-0.00037	-0.00029	-0.00083	0
5591	-0.00034	-9e-05	-3e-05	-3e-05	-0.00017	-0.00037	-0.00029	-0.00083	0
5592	-0.00034	-9e-05	-3e-05	-3e-05	-0.00017	-0.00037	-0.00029	-0.00083	0
5593	-0.00034	-9e-05	-3e-05	-3e-05	-0.00017	-0.00037	-0.00029	-0.00083	0
5594	-0.00034	-9e-05	-3e-05	-3e-05	-0.00017	-0.00037	-0.00029	-0.00083	0
5595	-0.00034	-9e-05	-3e-05	-3e-05	-0.00017	-0.00037	-0.00029	-0.00083	0
5596	-0.00034	-9e-05	-3e-05	-3e-05	-0.00017	-0.00037	-0.00029	-0.00083	0
5597	-0.00034	-9e-05	-3e-05	-3e-05	-0.00017	-0.00037	-0.00029	-0.00083	0
5598	-0.00034	-9e-05	-3e-05	-3e-05	-0.00017	-0.00037	-0.00029	-0.00083	0
5599	-0.00034	-9e-05	-3e-05	-3e-05	-0.00017	-0.00037	-0.00029	-0.00083	0
5600	-0.00034	-9e-05	-3e-05	-3e-05	-0.00017	-0.00037	-0.00029	-0.00083	0
5601	-0.00034	-9e-05	-3e-05	-3e-05	-0.00017	-0.00037	-0.00029	-0.00083	0
5602	-0.00034	-9e-05	-3e-05	-3e-05	-0.00017	-0.00037	-0.00029	-0.00083	0
5604	-5e-05	-8e-05	-0.00018	-0.00011	5e-05	-0.00025	-0.00018	-0.00016	0
5605	-0.0003	-8e-05	-4e-05	-7e-05	0.00022	0.00013	0.0003	-0.00056	0
5606	-0.0003	-8e-05	-4e-05	-7e-05	0.00022	0.00013	0.0003	-0.00056	0
5607	-0.0003	-8e-05	-4e-05	-7e-05	0.00022	0.00013	0.0003	-0.00056	0
5608	-0.0003	-8e-05	-4e-05	-7e-05	0.00022	0.00013	0.0003	-0.00056	0
5609	-0.0003	-8e-05	-4e-05	-7e-05	0.00022	0.00013	0.0003	-0.00056	0
5610	-0.0003	-8e-05	-4e-05	-7e-05	0.00022	0.00013	0.0003	-0.00056	0
5611	-0.0003	-8e-05	-4e-05	-7e-05	0.00022	0.00013	0.0003	-0.00056	0
5612	-0.0003	-8e-05	-4e-05	-7e-05	0.00022	0.00013	0.0003	-0.00056	0
5613	-0.0003	-8e-05	-4e-05	-7e-05	0.00022	0.00013	0.0003	-0.00056	0
5614	-0.0003	-8e-05	-4e-05	-7e-05	0.00022	0.00013	0.0003	-0.00056	0
5615	-0.0003	-8e-05	-4e-05	-7e-05	0.00022	0.00013	0.0003	-0.00056	0
5616	-0.0003	-8e-05	-4e-05	-7e-05	0.00022	0.00013	0.0003	-0.00056	0
5617	-0.0003	-8e-05	-4e-05	-7e-05	0.00022	0.00013	0.0003	-0.00056	0
5618	-0.0003	-8e-05	-4e-05	-7e-05	0.00022	0.00013	0.0003	-0.00056	0
5619	-0.0003	-8e-05	-4e-05	-7e-05	0.00022	0.00013	0.0003	-0.00056	0
5620	-0.0003	-8e-05	-4e-05	-7e-05	0.00022	0.00013	0.0003	-0.00056	0
5621	-0.0003	-8e-05	-4e-05	-7e-05	0.00022	0.00013	0.0003	-0.00056	0
5622	-0.0003	-8e-05	-4e-05	-7e-05	0.00022	0.00013	0.0003	-0.00056	0
5623	-0.0003	-8e-05	-4e-05	-7e-05	0.00022	0.00013	0.0003	-0.00056	0
5624	-0.0003	-8e-05	-4e-05	-7e-05	0.00022	0.00013	0.0003	-0.00056	0
5625	-0.0003	-8e-05	-4e-05	-7e-05	0.00022	0.00013	0.0003	-0.00056	0
5626	-8e-05	3e-05	6e-05	-0.00016	-6e-05	-5e-05	-0.00052	0.00015	0
5627	-0.00027	0	7e-05	0.00022	0	-0.00014	9e-05	-0.0005	0
5628	-0.00027	0	7e-05	0.00022	0	-0.00014	9e-05	-0.0005	0
5629	-0.00027	0	7e-05	0.00022	0	-0.00014	9e-05	-0.0005	0
5630	-0.00027	0	7e-05	0.00022	0	-0.00014	9e-05	-0.0005	0
5631	-0.00027	0	7e-05	0.00022	0	-0.00014	9e-05	-0.0005	0
5632	-0.00027	0	7e-05	0.00022	0	-0.00014	9e-05	-0.0005	0
5633	-0.00027	0	7e-05	0.00022	0	-0.00014	9e-05	-0.0005	0
5634	-0.00027	0	7e-05	0.00022	0	-0.00014	9e-05	-0.0005	0
5635	-0.00027	0	7e-05	0.00022	0	-0.00014	9e-05	-0.0005	0
5636	-0.00027	0	7e-05	0.00022	0	-0.00014	9e-05	-0.0005	0
5638	-0.00027	0	7e-05	0.00022	0	-0.00014	9e-05	-0.0005	0
5639	-0.00059	0	-1e-05	-3e-05	0.00067	0.0009	0.00119	-0.00061	0
5640	-0.00059	0	-1e-05	-3e-05	0.00067	0.0009	0.00119	-0.00061	0
5641	-0.00059	0	-1e-05	-3e-05	0.00067	0.0009	0.00119	-0.00061	0
5642	-0.00059	0	-1e-05	-3e-05	0.00067	0.0009	0.00119	-0.00061	0
5643	-0.00059	0	-1e-05	-3e-05	0.00067	0.0009	0.00119	-0.00061	0
5645	-0.00059	0	-1e-05	-3e-05	0.00067	0.0009	0.00119	-0.00061	0
5646	-0.00059	0	-1e-05	-3e-05	0.00067	0.0009	0.00119	-0.00061	0
5647	-0.00059	0	-1e-05	-3e-05	0.00067	0.0009	0.00119	-0.00061	0
5648	-0.00016	-1e-05	-0.00011	-0.00023	-4e-05	9e-05	0.00073	-0.00021	0
5649	-0.00016	-1e-05	-0.00011	-0.00023	-4e-05	9e-05	0.00073	-0.00021	0
5650	-0.00016	-1e-05	-0.00011	-0.00023	-4e-05	9e-05	0.00073	-0.00021	0
5651	-0.00016	-1e-05	-0.00011	-0.00023	-4e-05	9e-05	0.00073	-0.00021	0
5652	-0.00016	-1e-05	-0.00011	-0.00023	-4e-05	9e-05	0.00073	-0.00021	0
5654	-0.00016	-1e-05	-0.00011	-0.00023	-4e-05	9e-05	0.00073	-0.00021	0
5655	-0.00016	-1e-05	-0.00011	-0.00023	-4e-05	9e-05	0.00073	-0.00021	0
5656	-0.00016	-1e-05	-0.00011	-0.00023	-4e-05	9e-05	0.00073	-0.00021	0
5657	-0.00016	-1e-05	-0.00011	-0.00023	-4e-05	9e-05	0.00073	-0.00021	0
5658	-0.00016	-1e-05	-0.00011	-0.00023	-4e-05	9e-05	0.00073	-0.00021	0
5659	-0.00016	-1e-05	-0.00011	-0.00023	-4e-05	9e-05	0.00073	-0.00021	0
5660	-0.00016	-1e-05	-0.00011	-0.00023	-4e-05	9e-05	0.00073	-0.00021	0
5661	-0.00016	-1e-05	-0.00011	-0.00023	-4e-05	9e-05	0.00073	-0.00021	0
5662	-0.00016	-1e-05	-0.00011	-0.00023	-4e-05	9e-05	0.00073	-0.00021	0
5663	1e-05	-6e-05	-9e-05	-7e-05	-0.00032	-0.00012	-0.0003	-0.00023	0
5664	1e-05	-6e-05	-9e-05	-7e-05	-0.00032	-0.00012	-0.0003	-0.00023	0
5665	0.00078	0.0001	6e-05	-9e-05	9e-05	0	0.00078	0.00127	0
5666	0.00078	0.0001	6e-05	-9e-05	9e-05	0	0.00078	0.00127	0
5667	0.00078	0.0001	6e-05	-9e-05	9e-05	0	0.00078	0.00127	0
5668	0.00078	0.0001	6e-05	-9e-05	9e-05	0	0.00078	0.00127	0
5669	0.00078	0.0001	6e-05	-9e-05	9e-05	0	0.00078	0.00127	0
5670	0.00078	0.0001	6e-05	-9e-05	9e-05	0	0.00078	0.00127	0
5671	0.00078	0.0001	6e-05	-9e-05	9e-05	0	0.00078	0.00127	0
5672	0.00078	0.0001	6e-05	-9e-05	9e-05	0	0.00078	0.00127	0
5673	0.00078	0.0001	6e-05	-9e-05	9e-05	0	0.00078	0.00127	0
5674	0.00078	0.0001	6e-05	-9e-05	9e-05	0	0.00078	0.00127	0
5675	0.00078	0.0001	6e-05	-9e-05	9e-05	0	0.00078	0.00127	0
5676	0.00078	0.0001	6e-05	-9e-05	9e-05	0	0.00078	0.00127	0
5677	0.00078	0.0001	6e-05	-9e-05	9e-05	0	0.00078	0.00127	0
5678	0.00078	0.0001	6e-05	-9e-05	9e-05	0	0.00078	0.00127	0
5679	0.00078	0.0001	6e-05	-9e-05	9e-05	0	0.00078	0.00127	0
5680	0.00078	0.0001	6e-05	-9e-05	9e-05	0	0.00078	0.00127	0
5681	0.00078	0.0001	6e-05	-9e-05	9e-05	0	0.00078	0.00127	0
5682	0.00078	0.0001	6e-05	-9e-05	9e-05	0	0.00078	0.00127	0
5683	0.00078	0.0001	6e-05	-9e-05	9e-05	0	0.00078	0.00127	0
5684	0.00078	0.0001	6e-05	-9e-05	9e-05	0	0.00078	0.00127	0
5685	0.00078	0.0001	6e-05	-9e-05	9e-05	0	0.00078	0.00127	0
5686	-3e-05	-3e-05	-9e-05	-0.00032	-0.00034	-0.00038	-0.00027	-0.00025	0
5688	-9e-05	2e-05	2e-05	2e-05	-0.00023	-0.00016	-0.00067	-0.00021	0
5689	-9e-05	2e-05	2e-05	2e-05	-0.00023	-0.00016	-0.00067	-0.00021	0
5690	-9e-05	2e-05	2e-05	2e-05	-0.00023	-0.00016	-0.00067	-0.00021	0
5691	-9e-05	2e-05	2e-05	2e-05	-0.00023	-0.00016	-0.00067	-0.00021	0
5692	-9e-05	2e-05	2e-05	2e-05	-0.00023	-0.00016	-0.00067	-0.00021	0
5693	-9e-05	2e-05	2e-05	2e-05	-0.00023	-0.00016	-0.00067	-0.00021	0
5694	-9e-05	2e-05	2e-05	2e-05	-0.00023	-0.00016	-0.00067	-0.00021	0
5695	-9e-05	2e-05	2e-05	2e-05	-0.00023	-0.00016	-0.00067	-0.00021	0
5696	-9e-05	2e-05	2e-05	2e-05	-0.00023	-0.00016	-0.00067	-0.00021	0
5697	-9e-05	2e-05	2e-05	2e-05	-0.00023	-0.00016	-0.00067	-0.00021	0
5698	-9e-05	2e-05	2e-05	2e-05	-0.00023	-0.00016	-0.00067	-0.00021	0
5699	-9e-05	2e-05	2e-05	2e-05	-0.00023	-0.00016	-0.00067	-0.00021	0
5700	-9e-05	2e-05	2e-05	2e-05	-0.00023	-0.00016	-0.00067	-0.00021	0
5701	-9e-05	2e-05	2e-05	2e-05	-0.00023	-0.00016	-0.00067	-0.00021	0
5702	-9e-05	2e-05	2e-05	2e-05	-0.00023	-0.00016	-0.00067	-0.00021	0
5704	-9e-05	2e-05	2e-05	2e-05	-0.00023	-0.00016	-0.00067	-0.00021	0
5705	-9e-05	2e-05	2e-05	2e-05	-0.00023	-0.00016	-0.00067	-0.00021	0
5706	-9e-05	2e-05	2e-05	2e-05	-0.00023	-0.00016	-0.00067	-0.00021	0
5707	-9e-05	2e-05	2e-05	2e-05	-0.00023	-0.00016	-0.00067	-0.00021	0
5708	0.00023	0.00011	0.00011	0.00013	0.00037	0.00012	0.00027	0.00061	0
5709	0.00023	0.00011	0.00011	0.00013	0.00037	0.00012	0.00027	0.00061	0
5710	-7e-05	3e-05	0.0001	-0.00034	-2e-05	-0.0003	-0.00019	0.00014	0
5711	-7e-05	3e-05	0.0001	-0.00034	-2e-05	-0.0003	-0.00019	0.00014	0
5712	-7e-05	3e-05	0.0001	-0.00034	-2e-05	-0.0003	-0.00019	0.00014	0
5713	-7e-05	3e-05	0.0001	-0.00034	-2e-05	-0.0003	-0.00019	0.00014	0
5714	-7e-05	3e-05	0.0001	-0.00034	-2e-05	-0.0003	-0.00019	0.00014	0
5715	-7e-05	3e-05	0.0001	-0.00034	-2e-05	-0.0003	-0.00019	0.00014	0
5716	-7e-05	3e-05	0.0001	-0.00034	-2e-05	-0.0003	-0.00019	0.00014	0
5717	-7e-05	3e-05	0.0001	-0.00034	-2e-05	-0.0003	-0.00019	0.00014	0
5718	-7e-05	3e-05	0.0001	-0.00034	-2e-05	-0.0003	-0.00019	0.00014	0
5719	-7e-05	3e-05	0.0001	-0.00034	-2e-05	-0.0003	-0.00019	0.00014	0
5720	-7e-05	3e-05	0.0001	-0.00034	-2e-05	-0.0003	-0.00019	0.00014	0
5721	-7e-05	3e-05	0.0001	-0.00034	-2e-05	-0.0003	-0.00019	0.00014	0
5722	-7e-05	3e-05	0.0001	-0.00034	-2e-05	-0.0003	-0.00019	0.00014	0
5723	5e-05	0.00011	0.00026	0.00021	0.00011	-0.00041	0.00013	9e-05	0
5724	5e-05	0.00011	0.00026	0.00021	0.00011	-0.00041	0.00013	9e-05	0
5725	-0.00031	0.00013	0.00043	-0.00032	3e-05	0.00016	-0.00093	-0.0006	0
5726	-0.00031	0.00013	0.00043	-0.00032	3e-05	0.00016	-0.00093	-0.0006	0
5727	-0.00031	0.00013	0.00043	-0.00032	3e-05	0.00016	-0.00093	-0.0006	0
5728	-0.00031	0.00013	0.00043	-0.00032	3e-05	0.00016	-0.00093	-0.0006	0
5729	-0.00031	0.00013	0.00043	-0.00032	3e-05	0.00016	-0.00093	-0.0006	0
5730	-0.00031	0.00013	0.00043	-0.00032	3e-05	0.00016	-0.00093	-0.0006	0
5731	-0.00031	0.00013	0.00043	-0.00032	3e-05	0.00016	-0.00093	-0.0006	0
5732	-0.00031	0.00013	0.00043	-0.00032	3e-05	0.00016	-0.00093	-0.0006	0
5733	-0.00031	0.00013	0.00043	-0.00032	3e-05	0.00016	-0.00093	-0.0006	0
5734	-0.00031	0.00013	0.00043	-0.00032	3e-05	0.00016	-0.00093	-0.0006	0
5735	-0.00031	0.00013	0.00043	-0.00032	3e-05	0.00016	-0.00093	-0.0006	0
5736	-0.00031	0.00013	0.00043	-0.00032	3e-05	0.00016	-0.00093	-0.0006	0
5738	-0.00031	0.00013	0.00043	-0.00032	3e-05	0.00016	-0.00093	-0.0006	0
5739	-0.00031	0.00013	0.00043	-0.00032	3e-05	0.00016	-0.00093	-0.0006	0
5740	-0.00031	0.00013	0.00043	-0.00032	3e-05	0.00016	-0.00093	-0.0006	0
5741	-0.00031	0.00013	0.00043	-0.00032	3e-05	0.00016	-0.00093	-0.0006	0
5742	-0.00031	0.00013	0.00043	-0.00032	3e-05	0.00016	-0.00093	-0.0006	0
5743	-0.00031	0.00013	0.00043	-0.00032	3e-05	0.00016	-0.00093	-0.0006	0
5744	-0.00031	0.00013	0.00043	-0.00032	3e-05	0.00016	-0.00093	-0.0006	0
5745	-0.00031	0.00013	0.00043	-0.00032	3e-05	0.00016	-0.00093	-0.0006	0
5746	0.00026	-7e-05	-0.00032	-7e-05	-0.00049	-2e-05	-0.00019	0.00013	0
5747	0.00051	0.00015	0.00032	1e-05	0.00047	0.00045	0.00025	0.00118	0
5748	0.00051	0.00015	0.00032	1e-05	0.00047	0.00045	0.00025	0.00118	0
5749	0.00051	0.00015	0.00032	1e-05	0.00047	0.00045	0.00025	0.00118	0
5750	0.00051	0.00015	0.00032	1e-05	0.00047	0.00045	0.00025	0.00118	0
5751	0.00051	0.00015	0.00032	1e-05	0.00047	0.00045	0.00025	0.00118	0
5752	0.00051	0.00015	0.00032	1e-05	0.00047	0.00045	0.00025	0.00118	0
5754	0.00051	0.00015	0.00032	1e-05	0.00047	0.00045	0.00025	0.00118	0
5755	0.00051	0.00015	0.00032	1e-05	0.00047	0.00045	0.00025	0.00118	0
5756	0.00051	0.00015	0.00032	1e-05	0.00047	0.00045	0.00025	0.00118	0
5757	0.00051	0.00015	0.00032	1e-05	0.00047	0.00045	0.00025	0.00118	0
5758	0.00051	0.00015	0.00032	1e-05	0.00047	0.00045	0.00025	0.00118	0
5759	0.00011	-5e-05	0.00017	2e-05	-2e-05	-4e-05	-0.00052	-4e-05	0
5760	0.00011	-5e-05	0.00017	2e-05	-2e-05	-4e-05	-0.00052	-4e-05	0
5761	0.00011	-5e-05	0.00017	2e-05	-2e-05	-4e-05	-0.00052	-4e-05	0
5762	0.00011	-5e-05	0.00017	2e-05	-2e-05	-4e-05	-0.00052	-4e-05	0
5763	0.00011	-5e-05	0.00017	2e-05	-2e-05	-4e-05	-0.00052	-4e-05	0
5764	0.00011	-5e-05	0.00017	2e-05	-2e-05	-4e-05	-0.00052	-4e-05	0
5765	0.00011	-5e-05	0.00017	2e-05	-2e-05	-4e-05	-0.00052	-4e-05	0
5766	0.00011	-5e-05	0.00017	2e-05	-2e-05	-4e-05	-0.00052	-4e-05	0
5767	0.00011	-5e-05	0.00017	2e-05	-2e-05	-4e-05	-0.00052	-4e-05	0
5768	-0.00029	-0.00016	-3e-05	0.00027	-0.0002	-0.0003	-0.0003	-0.00076	0
5769	-0.00029	-0.00016	-3e-05	0.00027	-0.0002	-0.0003	-0.0003	-0.00076	0
5770	-0.00029	-0.00016	-3e-05	0.00027	-0.0002	-0.0003	-0.0003	-0.00076	0
5771	-0.00029	-0.00016	-3e-05	0.00027	-0.0002	-0.0003	-0.0003	-0.00076	0
5772	-0.00029	-0.00016	-3e-05	0.00027	-0.0002	-0.0003	-0.0003	-0.00076	0
5773	-0.00029	-0.00016	-3e-05	0.00027	-0.0002	-0.0003	-0.0003	-0.00076	0
5774	-0.00029	-0.00016	-3e-05	0.00027	-0.0002	-0.0003	-0.0003	-0.00076	0
5775	-0.00029	-0.00016	-3e-05	0.00027	-0.0002	-0.0003	-0.0003	-0.00076	0
5776	-0.00029	-0.00016	-3e-05	0.00027	-0.0002	-0.0003	-0.0003	-0.00076	0
5777	-0.00029	-0.00016	-3e-05	0.00027	-0.0002	-0.0003	-0.0003	-0.00076	0
5778	-0.00029	-0.00016	-3e-05	0.00027	-0.0002	-0.0003	-0.0003	-0.00076	0
5779	-0.00029	-0.00016	-3e-05	0.00027	-0.0002	-0.0003	-0.0003	-0.00076	0
5780	-0.00029	-0.00016	-3e-05	0.00027	-0.0002	-0.0003	-0.0003	-0.00076	0
5781	-0.00029	-0.00016	-3e-05	0.00027	-0.0002	-0.0003	-0.0003	-0.00076	0
5782	-0.00029	-0.00016	-3e-05	0.00027	-0.0002	-0.0003	-0.0003	-0.00076	0
5783	0.00016	-7e-05	-0.00026	-0.00029	3e-05	1e-05	-0.00014	0.00025	0
5784	0.00016	-7e-05	-0.00026	-0.00029	3e-05	1e-05	-0.00014	0.00025	0
5785	0	1e-05	5e-05	6e-05	1e-05	0.00036	0.0002	1e-05	0
5786	0	1e-05	5e-05	6e-05	1e-05	0.00036	0.0002	1e-05	0
5788	0	1e-05	5e-05	6e-05	1e-05	0.00036	0.0002	1e-05	0
5789	0	1e-05	5e-05	6e-05	1e-05	0.00036	0.0002	1e-05	0
5790	0	1e-05	5e-05	6e-05	1e-05	0.00036	0.0002	1e-05	0
5791	0	1e-05	5e-05	6e-05	1e-05	0.00036	0.0002	1e-05	0
5792	0	1e-05	5e-05	6e-05	1e-05	0.00036	0.0002	1e-05	0
5793	0	1e-05	5e-05	6e-05	1e-05	0.00036	0.0002	1e-05	0
5794	0	1e-05	5e-05	6e-05	1e-05	0.00036	0.0002	1e-05	0
5795	0	1e-05	5e-05	6e-05	1e-05	0.00036	0.0002	1e-05	0
5796	0	1e-05	5e-05	6e-05	1e-05	0.00036	0.0002	1e-05	0
5797	0	1e-05	5e-05	6e-05	1e-05	0.00036	0.0002	1e-05	0
5798	0	1e-05	5e-05	6e-05	1e-05	0.00036	0.0002	1e-05	0
5799	0	1e-05	5e-05	6e-05	1e-05	0.00036	0.0002	1e-05	0
5800	0	1e-05	5e-05	6e-05	1e-05	0.00036	0.0002	1e-05	0
5801	0	1e-05	5e-05	6e-05	1e-05	0.00036	0.0002	1e-05	0
5802	0	1e-05	5e-05	6e-05	1e-05	0.00036	0.0002	1e-05	0
5804	0	1e-05	5e-05	6e-05	1e-05	0.00036	0.0002	1e-05	0
5805	0	1e-05	5e-05	6e-05	1e-05	0.00036	0.0002	1e-05	0
5806	0	1e-05	5e-05	6e-05	1e-05	0.00036	0.0002	1e-05	0
5807	-4e-05	-1e-05	-0.00015	-0.00031	-0.0001	0.00018	-0.00055	-7e-05	0
5808	-4e-05	-1e-05	-0.00015	-0.00031	-0.0001	0.00018	-0.00055	-7e-05	0
5809	-0.00019	7e-05	7e-05	0.0002	-0.00018	-6e-05	0.0001	-0.00055	0
5810	-0.00019	7e-05	7e-05	0.0002	-0.00018	-6e-05	0.0001	-0.00055	0
5811	-0.00019	7e-05	7e-05	0.0002	-0.00018	-6e-05	0.0001	-0.00055	0
5812	-0.00019	7e-05	7e-05	0.0002	-0.00018	-6e-05	0.0001	-0.00055	0
5813	-0.00019	7e-05	7e-05	0.0002	-0.00018	-6e-05	0.0001	-0.00055	0
5814	-0.00019	7e-05	7e-05	0.0002	-0.00018	-6e-05	0.0001	-0.00055	0
5815	-0.00019	7e-05	7e-05	0.0002	-0.00018	-6e-05	0.0001	-0.00055	0
5816	-0.00019	7e-05	7e-05	0.0002	-0.00018	-6e-05	0.0001	-0.00055	0
5817	-0.00019	7e-05	7e-05	0.0002	-0.00018	-6e-05	0.0001	-0.00055	0
5818	-0.00019	7e-05	7e-05	0.0002	-0.00018	-6e-05	0.0001	-0.00055	0
5819	0	-8e-05	-0.0003	0.00015	-0.00012	0.00028	0.00081	-0.00029	0
5820	0	-8e-05	-0.0003	0.00015	-0.00012	0.00028	0.00081	-0.00029	0
5821	0	-8e-05	-0.0003	0.00015	-0.00012	0.00028	0.00081	-0.00029	0
5822	0	-8e-05	-0.0003	0.00015	-0.00012	0.00028	0.00081	-0.00029	0
5823	0	-8e-05	-0.0003	0.00015	-0.00012	0.00028	0.00081	-0.00029	0
5824	0	-8e-05	-0.0003	0.00015	-0.00012	0.00028	0.00081	-0.00029	0
5825	0	-8e-05	-0.0003	0.00015	-0.00012	0.00028	0.00081	-0.00029	0
5826	0	-8e-05	-0.0003	0.00015	-0.00012	0.00028	0.00081	-0.00029	0
5827	0	-8e-05	-0.0003	0.00015	-0.00012	0.00028	0.00081	-0.00029	0
5828	0.00041	9e-05	0.00025	-1e-05	-0.00013	-0.00036	0.00037	0.00113	0
5829	0.00041	9e-05	0.00025	-1e-05	-0.00013	-0.00036	0.00037	0.00113	0
5830	0.00041	9e-05	0.00025	-1e-05	-0.00013	-0.00036	0.00037	0.00113	0
5831	0.00041	9e-05	0.00025	-1e-05	-0.00013	-0.00036	0.00037	0.00113	0
5832	0.00041	9e-05	0.00025	-1e-05	-0.00013	-0.00036	0.00037	0.00113	0
5833	0.00041	9e-05	0.00025	-1e-05	-0.00013	-0.00036	0.00037	0.00113	0
5834	0.00041	9e-05	0.00025	-1e-05	-0.00013	-0.00036	0.00037	0.00113	0
5835	0.00041	9e-05	0.00025	-1e-05	-0.00013	-0.00036	0.00037	0.00113	0
5836	0.00041	9e-05	0.00025	-1e-05	-0.00013	-0.00036	0.00037	0.00113	0
5838	0.00041	9e-05	0.00025	-1e-05	-0.00013	-0.00036	0.00037	0.00113	0
5839	0.00041	9e-05	0.00025	-1e-05	-0.00013	-0.00036	0.00037	0.00113	0
5840	0.00041	9e-05	0.00025	-1e-05	-0.00013	-0.00036	0.00037	0.00113	0
5841	0.00041	9e-05	0.00025	-1e-05	-0.00013	-0.00036	0.00037	0.00113	0
5842	0.00041	9e-05	0.00025	-1e-05	-0.00013	-0.00036	0.00037	0.00113	0
5843	0.00012	0.00029	0.00045	0.00014	-0.00011	-0.00019	-0.00023	4e-05	0
5844	0.00012	0.00029	0.00045	0.00014	-0.00011	-0.00019	-0.00023	4e-05	0
5845	-7e-05	-0.00011	-0.00035	4e-05	0.00019	0.00032	8e-05	-5e-05	0
5846	-7e-05	-0.00011	-0.00035	4e-05	0.00019	0.00032	8e-05	-5e-05	0
5847	-7e-05	-0.00011	-0.00035	4e-05	0.00019	0.00032	8e-05	-5e-05	0
5848	-7e-05	-0.00011	-0.00035	4e-05	0.00019	0.00032	8e-05	-5e-05	0
5849	-7e-05	-0.00011	-0.00035	4e-05	0.00019	0.00032	8e-05	-5e-05	0
5850	-7e-05	-0.00011	-0.00035	4e-05	0.00019	0.00032	8e-05	-5e-05	0
5851	-7e-05	-0.00011	-0.00035	4e-05	0.00019	0.00032	8e-05	-5e-05	0
5852	-7e-05	-0.00011	-0.00035	4e-05	0.00019	0.00032	8e-05	-5e-05	0
5854	-7e-05	-0.00011	-0.00035	4e-05	0.00019	0.00032	8e-05	-5e-05	0
5855	-7e-05	-0.00011	-0.00035	4e-05	0.00019	0.00032	8e-05	-5e-05	0
5856	-7e-05	-0.00011	-0.00035	4e-05	0.00019	0.00032	8e-05	-5e-05	0
5857	-7e-05	-0.00011	-0.00035	4e-05	0.00019	0.00032	8e-05	-5e-05	0
5858	-7e-05	-0.00011	-0.00035	4e-05	0.00019	0.00032	8e-05	-5e-05	0
5859	-7e-05	-0.00011	-0.00035	4e-05	0.00019	0.00032	8e-05	-5e-05	0
5860	-7e-05	-0.00011	-0.00035	4e-05	0.00019	0.00032	8e-05	-5e-05	0
5861	-7e-05	-0.00011	-0.00035	4e-05	0.00019	0.00032	8e-05	-5e-05	0
5862	-7e-05	-0.00011	-0.00035	4e-05	0.00019	0.00032	8e-05	-5e-05	0
5863	-7e-05	-0.00011	-0.00035	4e-05	0.00019	0.00032	8e-05	-5e-05	0
5864	-7e-05	-0.00011	-0.00035	4e-05	0.00019	0.00032	8e-05	-5e-05	0
5865	-0.00071	-0.0003	-0.0003	0.0003	0.00034	5e-05	6e-05	-0.00086	0
5866	-0.00071	-0.0003	-0.0003	0.0003	0.00034	5e-05	6e-05	-0.00086	0
5867	0.00014	3e-05	0.0001	0.00015	-0.00021	2e-05	0.00045	-0.0001	0
5868	0.00014	3e-05	0.0001	0.00015	-0.00021	2e-05	0.00045	-0.0001	0
5869	0.00014	3e-05	0.0001	0.00015	-0.00021	2e-05	0.00045	-0.0001	0
5870	0.00014	3e-05	0.0001	0.00015	-0.00021	2e-05	0.00045	-0.0001	0
5871	0.00014	3e-05	0.0001	0.00015	-0.00021	2e-05	0.00045	-0.0001	0
5872	0.00014	3e-05	0.0001	0.00015	-0.00021	2e-05	0.00045	-0.0001	0
5873	0.00014	3e-05	0.0001	0.00015	-0.00021	2e-05	0.00045	-0.0001	0
5874	0.00014	3e-05	0.0001	0.00015	-0.00021	2e-05	0.00045	-0.0001	0
5875	0.00014	3e-05	0.0001	0.00015	-0.00021	2e-05	0.00045	-0.0001	0
5876	0.00014	3e-05	0.0001	0.00015	-0.00021	2e-05	0.00045	-0.0001	0
5877	0.00014	3e-05	0.0001	0.00015	-0.00021	2e-05	0.00045	-0.0001	0
5878	0.00014	3e-05	0.0001	0.00015	-0.00021	2e-05	0.00045	-0.0001	0
5879	0.00014	3e-05	0.0001	0.00015	-0.00021	2e-05	0.00045	-0.0001	0
5880	0.00014	3e-05	0.0001	0.00015	-0.00021	2e-05	0.00045	-0.0001	0
5881	0.00014	3e-05	0.0001	0.00015	-0.00021	2e-05	0.00045	-0.0001	0
5882	0.00014	3e-05	0.0001	0.00015	-0.00021	2e-05	0.00045	-0.0001	0
5883	0.00014	3e-05	0.0001	0.00015	-0.00021	2e-05	0.00045	-0.0001	0
5884	0.00014	3e-05	0.0001	0.00015	-0.00021	2e-05	0.00045	-0.0001	0
5885	0.00014	3e-05	0.0001	0.00015	-0.00021	2e-05	0.00045	-0.0001	0
5886	0.00014	3e-05	0.0001	0.00015	-0.00021	2e-05	0.00045	-0.0001	0
5889	-1e-05	4e-05	0.00035	-0.00023	0	-6e-05	0.00066	0.00023	0
5890	-0.00011	1e-05	0.00014	0.00027	0.00016	-0.00034	-0.00023	-0.00046	0
5891	-0.00011	1e-05	0.00014	0.00027	0.00016	-0.00034	-0.00023	-0.00046	0
5892	-0.00011	1e-05	0.00014	0.00027	0.00016	-0.00034	-0.00023	-0.00046	0
5893	-0.00011	1e-05	0.00014	0.00027	0.00016	-0.00034	-0.00023	-0.00046	0
5894	-0.00011	1e-05	0.00014	0.00027	0.00016	-0.00034	-0.00023	-0.00046	0
5895	-0.00011	1e-05	0.00014	0.00027	0.00016	-0.00034	-0.00023	-0.00046	0
5896	-0.00011	1e-05	0.00014	0.00027	0.00016	-0.00034	-0.00023	-0.00046	0
5897	-0.00011	1e-05	0.00014	0.00027	0.00016	-0.00034	-0.00023	-0.00046	0
5898	-0.00011	1e-05	0.00014	0.00027	0.00016	-0.00034	-0.00023	-0.00046	0
5899	-0.00011	1e-05	0.00014	0.00027	0.00016	-0.00034	-0.00023	-0.00046	0
5900	-0.00011	1e-05	0.00014	0.00027	0.00016	-0.00034	-0.00023	-0.00046	0
5901	-0.00011	1e-05	0.00014	0.00027	0.00016	-0.00034	-0.00023	-0.00046	0
5902	-0.00011	1e-05	0.00014	0.00027	0.00016	-0.00034	-0.00023	-0.00046	0
5903	-0.0001	5e-05	7e-05	-0.00063	-0.00017	0.00013	-0.00043	-2e-05	0
5904	-0.0001	5e-05	7e-05	-0.00063	-0.00017	0.00013	-0.00043	-2e-05	0
5905	0.00048	-9e-05	-0.00066	-0.00042	-0.00019	-0.00044	0.00034	0.00116	0
5906	0.00048	-9e-05	-0.00066	-0.00042	-0.00019	-0.00044	0.00034	0.00116	0
5907	0.00048	-9e-05	-0.00066	-0.00042	-0.00019	-0.00044	0.00034	0.00116	0
5908	0.00048	-9e-05	-0.00066	-0.00042	-0.00019	-0.00044	0.00034	0.00116	0
5909	0.00048	-9e-05	-0.00066	-0.00042	-0.00019	-0.00044	0.00034	0.00116	0
5910	0.00048	-9e-05	-0.00066	-0.00042	-0.00019	-0.00044	0.00034	0.00116	0
5911	0.00048	-9e-05	-0.00066	-0.00042	-0.00019	-0.00044	0.00034	0.00116	0
5912	0.00048	-9e-05	-0.00066	-0.00042	-0.00019	-0.00044	0.00034	0.00116	0
5913	0.00048	-9e-05	-0.00066	-0.00042	-0.00019	-0.00044	0.00034	0.00116	0
5914	0.00048	-9e-05	-0.00066	-0.00042	-0.00019	-0.00044	0.00034	0.00116	0
5915	0.00048	-9e-05	-0.00066	-0.00042	-0.00019	-0.00044	0.00034	0.00116	0
5916	0.00048	-9e-05	-0.00066	-0.00042	-0.00019	-0.00044	0.00034	0.00116	0
5917	0.00048	-9e-05	-0.00066	-0.00042	-0.00019	-0.00044	0.00034	0.00116	0
5918	0.00048	-9e-05	-0.00066	-0.00042	-0.00019	-0.00044	0.00034	0.00116	0
5919	0.00048	-9e-05	-0.00066	-0.00042	-0.00019	-0.00044	0.00034	0.00116	0
5920	0.00048	-9e-05	-0.00066	-0.00042	-0.00019	-0.00044	0.00034	0.00116	0
5921	0.00048	-9e-05	-0.00066	-0.00042	-0.00019	-0.00044	0.00034	0.00116	0
5922	0.00048	-9e-05	-0.00066	-0.00042	-0.00019	-0.00044	0.00034	0.00116	0
5923	0.00048	-9e-05	-0.00066	-0.00042	-0.00019	-0.00044	0.00034	0.00116	0
5925	-9e-05	-3e-05	0	-2e-05	-0.00049	-2e-05	-0.00014	0.00015	0
5926	-9e-05	-3e-05	0	-2e-05	-0.00049	-2e-05	-0.00014	0.00015	0
5927	5e-05	-1e-05	-0.00024	-0.00088	0.00025	0.00024	0.0001	-0.00031	0
5928	5e-05	-1e-05	-0.00024	-0.00088	0.00025	0.00024	0.0001	-0.00031	0
5929	5e-05	-1e-05	-0.00024	-0.00088	0.00025	0.00024	0.0001	-0.00031	0
5930	5e-05	-1e-05	-0.00024	-0.00088	0.00025	0.00024	0.0001	-0.00031	0
5931	5e-05	-1e-05	-0.00024	-0.00088	0.00025	0.00024	0.0001	-0.00031	0
5932	5e-05	-1e-05	-0.00024	-0.00088	0.00025	0.00024	0.0001	-0.00031	0
5933	5e-05	-1e-05	-0.00024	-0.00088	0.00025	0.00024	0.0001	-0.00031	0
5934	5e-05	-1e-05	-0.00024	-0.00088	0.00025	0.00024	0.0001	-0.00031	0
5935	5e-05	-1e-05	-0.00024	-0.00088	0.00025	0.00024	0.0001	-0.00031	0
5936	5e-05	-1e-05	-0.00024	-0.00088	0.00025	0.00024	0.0001	-0.00031	0
5938	5e-05	-1e-05	-0.00024	-0.00088	0.00025	0.00024	0.0001	-0.00031	0
5939	-0.0003	-0.00015	-0.00022	4e-05	-9e-05	-0.00021	-0.00041	-0.00018	0
5940	-0.0003	-0.00015	-0.00022	4e-05	-9e-05	-0.00021	-0.00041	-0.00018	0
5941	-0.0003	-0.00015	-0.00022	4e-05	-9e-05	-0.00021	-0.00041	-0.00018	0
5942	-0.0003	-0.00015	-0.00022	4e-05	-9e-05	-0.00021	-0.00041	-0.00018	0
5943	-0.0003	-0.00015	-0.00022	4e-05	-9e-05	-0.00021	-0.00041	-0.00018	0
5944	-0.0003	-0.00015	-0.00022	4e-05	-9e-05	-0.00021	-0.00041	-0.00018	0
5945	-0.0003	-0.00015	-0.00022	4e-05	-9e-05	-0.00021	-0.00041	-0.00018	0
5946	-0.0003	-0.00015	-0.00022	4e-05	-9e-05	-0.00021	-0.00041	-0.00018	0
5947	-0.0003	-0.00015	-0.00022	4e-05	-9e-05	-0.00021	-0.00041	-0.00018	0
5948	0	3e-05	0	0.0003	-0.00015	0.00022	-0.00025	6e-05	0
5949	0	3e-05	0	0.0003	-0.00015	0.00022	-0.00025	6e-05	0
5950	0	3e-05	0	0.0003	-0.00015	0.00022	-0.00025	6e-05	0
5951	0	3e-05	0	0.0003	-0.00015	0.00022	-0.00025	6e-05	0
5952	0	3e-05	0	0.0003	-0.00015	0.00022	-0.00025	6e-05	0
5953	0	3e-05	0	0.0003	-0.00015	0.00022	-0.00025	6e-05	0
5954	0	3e-05	0	0.0003	-0.00015	0.00022	-0.00025	6e-05	0
5955	0	3e-05	0	0.0003	-0.00015	0.00022	-0.00025	6e-05	0
5956	0	3e-05	0	0.0003	-0.00015	0.00022	-0.00025	6e-05	0
5957	0	3e-05	0	0.0003	-0.00015	0.00022	-0.00025	6e-05	0
5958	0	3e-05	0	0.0003	-0.00015	0.00022	-0.00025	6e-05	0
5959	0	3e-05	0	0.0003	-0.00015	0.00022	-0.00025	6e-05	0
5960	0	3e-05	0	0.0003	-0.00015	0.00022	-0.00025	6e-05	0
5961	0	3e-05	0	0.0003	-0.00015	0.00022	-0.00025	6e-05	0
5962	0	3e-05	0	0.0003	-0.00015	0.00022	-0.00025	6e-05	0
5963	-0.0006	-0.00023	-0.00024	-0.00024	0.00011	0.00046	-0.00034	-0.00126	0
5964	-0.0006	-0.00023	-0.00024	-0.00024	0.00011	0.00046	-0.00034	-0.00126	0
5965	-1e-05	2e-05	0.00019	0.00068	0.00014	0.00041	-0.0001	-0.00011	0
5966	-1e-05	2e-05	0.00019	0.00068	0.00014	0.00041	-0.0001	-0.00011	0
5967	-1e-05	2e-05	0.00019	0.00068	0.00014	0.00041	-0.0001	-0.00011	0
5968	-1e-05	2e-05	0.00019	0.00068	0.00014	0.00041	-0.0001	-0.00011	0
5969	-1e-05	2e-05	0.00019	0.00068	0.00014	0.00041	-0.0001	-0.00011	0
5970	-1e-05	2e-05	0.00019	0.00068	0.00014	0.00041	-0.0001	-0.00011	0
5971	-1e-05	2e-05	0.00019	0.00068	0.00014	0.00041	-0.0001	-0.00011	0
5972	-1e-05	2e-05	0.00019	0.00068	0.00014	0.00041	-0.0001	-0.00011	0
5973	-1e-05	2e-05	0.00019	0.00068	0.00014	0.00041	-0.0001	-0.00011	0
5974	-1e-05	2e-05	0.00019	0.00068	0.00014	0.00041	-0.0001	-0.00011	0
5975	-1e-05	2e-05	0.00019	0.00068	0.00014	0.00041	-0.0001	-0.00011	0
5976	-1e-05	2e-05	0.00019	0.00068	0.00014	0.00041	-0.0001	-0.00011	0
5977	-1e-05	2e-05	0.00019	0.00068	0.00014	0.00041	-0.0001	-0.00011	0
5978	-1e-05	2e-05	0.00019	0.00068	0.00014	0.00041	-0.0001	-0.00011	0
5979	-1e-05	2e-05	0.00019	0.00068	0.00014	0.00041	-0.0001	-0.00011	0
5980	-1e-05	2e-05	0.00019	0.00068	0.00014	0.00041	-0.0001	-0.00011	0
5981	-1e-05	2e-05	0.00019	0.00068	0.00014	0.00041	-0.0001	-0.00011	0
5982	-1e-05	2e-05	0.00019	0.00068	0.00014	0.00041	-0.0001	-0.00011	0
5983	-1e-05	2e-05	0.00019	0.00068	0.00014	0.00041	-0.0001	-0.00011	0
5984	-1e-05	2e-05	0.00019	0.00068	0.00014	0.00041	-0.0001	-0.00011	0
5985	2e-05	0	0.0003	-0.00024	5e-05	-0.00048	-0.00022	0.00027	0
5986	0.00027	0.00016	0.0002	0.00011	9e-05	0.00012	-7e-05	0.00016	0
5989	-0.0001	-0.00018	-0.00016	-0.00018	-3e-05	0.00057	-0.00013	-0.00013	0
5990	-0.0001	-0.00018	-0.00016	-0.00018	-3e-05	0.00057	-0.00013	-0.00013	0
5991	-0.0001	-0.00018	-0.00016	-0.00018	-3e-05	0.00057	-0.00013	-0.00013	0
5992	-0.0001	-0.00018	-0.00016	-0.00018	-3e-05	0.00057	-0.00013	-0.00013	0
5993	-0.0001	-0.00018	-0.00016	-0.00018	-3e-05	0.00057	-0.00013	-0.00013	0
5994	-0.0001	-0.00018	-0.00016	-0.00018	-3e-05	0.00057	-0.00013	-0.00013	0
5995	-0.0001	-0.00018	-0.00016	-0.00018	-3e-05	0.00057	-0.00013	-0.00013	0
5996	-0.0001	-0.00018	-0.00016	-0.00018	-3e-05	0.00057	-0.00013	-0.00013	0
5997	-0.0001	-0.00018	-0.00016	-0.00018	-3e-05	0.00057	-0.00013	-0.00013	0
5998	-0.0001	-0.00018	-0.00016	-0.00018	-3e-05	0.00057	-0.00013	-0.00013	0
5999	-0.00016	1e-05	0.00044	9e-05	-7e-05	-0.0008	0.00025	-0.00043	0
6000	-0.00016	1e-05	0.00044	9e-05	-7e-05	-0.0008	0.00025	-0.00043	0
6001	-0.00016	1e-05	0.00044	9e-05	-7e-05	-0.0008	0.00025	-0.00043	0
6002	-0.00016	1e-05	0.00044	9e-05	-7e-05	-0.0008	0.00025	-0.00043	0
6003	-0.00016	1e-05	0.00044	9e-05	-7e-05	-0.0008	0.00025	-0.00043	0
6004	-0.00016	1e-05	0.00044	9e-05	-7e-05	-0.0008	0.00025	-0.00043	0
6005	-0.00016	1e-05	0.00044	9e-05	-7e-05	-0.0008	0.00025	-0.00043	0
6006	-0.00016	1e-05	0.00044	9e-05	-7e-05	-0.0008	0.00025	-0.00043	0
6007	-0.00016	1e-05	0.00044	9e-05	-7e-05	-0.0008	0.00025	-0.00043	0
6008	-0.00016	1e-05	0.00044	9e-05	-7e-05	-0.0008	0.00025	-0.00043	0
6009	-0.00016	1e-05	0.00044	9e-05	-7e-05	-0.0008	0.00025	-0.00043	0
6010	-0.00016	1e-05	0.00044	9e-05	-7e-05	-0.0008	0.00025	-0.00043	0
6011	-0.00016	1e-05	0.00044	9e-05	-7e-05	-0.0008	0.00025	-0.00043	0
6012	-0.00016	1e-05	0.00044	9e-05	-7e-05	-0.0008	0.00025	-0.00043	0
6013	-0.00016	1e-05	0.00044	9e-05	-7e-05	-0.0008	0.00025	-0.00043	0
6014	9e-05	-0.00013	-0.00046	-0.00018	-0.00015	-0.00031	1e-05	-0.00038	0
6015	9e-05	-0.00013	-0.00046	-0.00018	-0.00015	-0.00031	1e-05	-0.00038	0
6016	9e-05	-0.00013	-0.00046	-0.00018	-0.00015	-0.00031	1e-05	-0.00038	0
6017	9e-05	-0.00013	-0.00046	-0.00018	-0.00015	-0.00031	1e-05	-0.00038	0
6018	9e-05	-0.00013	-0.00046	-0.00018	-0.00015	-0.00031	1e-05	-0.00038	0
6019	9e-05	-0.00013	-0.00046	-0.00018	-0.00015	-0.00031	1e-05	-0.00038	0
6020	9e-05	-0.00013	-0.00046	-0.00018	-0.00015	-0.00031	1e-05	-0.00038	0
6021	9e-05	-0.00013	-0.00046	-0.00018	-0.00015	-0.00031	1e-05	-0.00038	0
6022	9e-05	-0.00013	-0.00046	-0.00018	-0.00015	-0.00031	1e-05	-0.00038	0
6023	3e-05	-0.00021	-0.00062	0.00013	0.00081	0.00048	-0.00015	1e-05	0
6024	3e-05	-0.00021	-0.00062	0.00013	0.00081	0.00048	-0.00015	1e-05	0
6025	-0.0002	-2e-05	-0.00012	0.0004	-0.00025	-0.00054	-0.00073	-0.0001	0
6026	-0.0002	-2e-05	-0.00012	0.0004	-0.00025	-0.00054	-0.00073	-0.0001	0
6027	-0.0002	-2e-05	-0.00012	0.0004	-0.00025	-0.00054	-0.00073	-0.0001	0
6028	-0.0002	-2e-05	-0.00012	0.0004	-0.00025	-0.00054	-0.00073	-0.0001	0
6029	-0.0002	-2e-05	-0.00012	0.0004	-0.00025	-0.00054	-0.00073	-0.0001	0
6030	-0.0002	-2e-05	-0.00012	0.0004	-0.00025	-0.00054	-0.00073	-0.0001	0
6031	-0.0002	-2e-05	-0.00012	0.0004	-0.00025	-0.00054	-0.00073	-0.0001	0
6032	-0.0002	-2e-05	-0.00012	0.0004	-0.00025	-0.00054	-0.00073	-0.0001	0
6033	-0.0002	-2e-05	-0.00012	0.0004	-0.00025	-0.00054	-0.00073	-0.0001	0
6034	-0.0002	-2e-05	-0.00012	0.0004	-0.00025	-0.00054	-0.00073	-0.0001	0
6035	-0.0002	-2e-05	-0.00012	0.0004	-0.00025	-0.00054	-0.00073	-0.0001	0
6037	-0.0002	-2e-05	-0.00012	0.0004	-0.00025	-0.00054	-0.00073	-0.0001	0
6039	-0.0002	-2e-05	-0.00012	0.0004	-0.00025	-0.00054	-0.00073	-0.0001	0
6040	-0.0002	-2e-05	-0.00012	0.0004	-0.00025	-0.00054	-0.00073	-0.0001	0
6041	-0.0002	-2e-05	-0.00012	0.0004	-0.00025	-0.00054	-0.00073	-0.0001	0
6042	-0.0002	-2e-05	-0.00012	0.0004	-0.00025	-0.00054	-0.00073	-0.0001	0
6043	-0.0002	-2e-05	-0.00012	0.0004	-0.00025	-0.00054	-0.00073	-0.0001	0
6044	-0.0002	-2e-05	-0.00012	0.0004	-0.00025	-0.00054	-0.00073	-0.0001	0
6045	-0.0002	-2e-05	-0.00012	0.0004	-0.00025	-0.00054	-0.00073	-0.0001	0
6046	0.00039	0.00018	3e-05	5e-05	0.00019	-0.00099	-0.0002	0.00047	0
6047	0.0001	1e-05	0.00018	0.0004	0.00045	0.00059	0.00029	0.00065	0
6048	0.0001	1e-05	0.00018	0.0004	0.00045	0.00059	0.00029	0.00065	0
6049	0.0001	1e-05	0.00018	0.0004	0.00045	0.00059	0.00029	0.00065	0
6050	0.0001	1e-05	0.00018	0.0004	0.00045	0.00059	0.00029	0.00065	0
6051	0.0001	1e-05	0.00018	0.0004	0.00045	0.00059	0.00029	0.00065	0
6052	0.0001	1e-05	0.00018	0.0004	0.00045	0.00059	0.00029	0.00065	0
6053	0.0001	1e-05	0.00018	0.0004	0.00045	0.00059	0.00029	0.00065	0
6054	0.0001	1e-05	0.00018	0.0004	0.00045	0.00059	0.00029	0.00065	0
6055	0.0001	1e-05	0.00018	0.0004	0.00045	0.00059	0.00029	0.00065	0
6056	0.0001	1e-05	0.00018	0.0004	0.00045	0.00059	0.00029	0.00065	0
6057	0.0001	1e-05	0.00018	0.0004	0.00045	0.00059	0.00029	0.00065	0
6058	0.0001	1e-05	0.00018	0.0004	0.00045	0.00059	0.00029	0.00065	0
6059	-0.0001	-0.00018	-0.00013	3e-05	-0.00016	0.00012	0.00013	0	0
6060	-0.0001	-0.00018	-0.00013	3e-05	-0.00016	0.00012	0.00013	0	0
6061	-0.0001	-0.00018	-0.00013	3e-05	-0.00016	0.00012	0.00013	0	0
6062	-0.0001	-0.00018	-0.00013	3e-05	-0.00016	0.00012	0.00013	0	0
6063	-0.0001	-0.00018	-0.00013	3e-05	-0.00016	0.00012	0.00013	0	0
6064	-0.0001	-0.00018	-0.00013	3e-05	-0.00016	0.00012	0.00013	0	0
6065	-0.0001	-0.00018	-0.00013	3e-05	-0.00016	0.00012	0.00013	0	0
6066	-0.0001	-0.00018	-0.00013	3e-05	-0.00016	0.00012	0.00013	0	0
6067	-0.0001	-0.00018	-0.00013	3e-05	-0.00016	0.00012	0.00013	0	0
6068	9e-05	-0.00018	-0.00039	0.00027	-0.0002	6e-05	-0.00037	7e-05	0
6069	9e-05	-0.00018	-0.00039	0.00027	-0.0002	6e-05	-0.00037	7e-05	0
6070	9e-05	-0.00018	-0.00039	0.00027	-0.0002	6e-05	-0.00037	7e-05	0
6071	9e-05	-0.00018	-0.00039	0.00027	-0.0002	6e-05	-0.00037	7e-05	0
6072	9e-05	-0.00018	-0.00039	0.00027	-0.0002	6e-05	-0.00037	7e-05	0
6073	9e-05	-0.00018	-0.00039	0.00027	-0.0002	6e-05	-0.00037	7e-05	0
6074	9e-05	-0.00018	-0.00039	0.00027	-0.0002	6e-05	-0.00037	7e-05	0
6075	9e-05	-0.00018	-0.00039	0.00027	-0.0002	6e-05	-0.00037	7e-05	0
6076	9e-05	-0.00018	-0.00039	0.00027	-0.0002	6e-05	-0.00037	7e-05	0
6077	9e-05	-0.00018	-0.00039	0.00027	-0.0002	6e-05	-0.00037	7e-05	0
6078	9e-05	-0.00018	-0.00039	0.00027	-0.0002	6e-05	-0.00037	7e-05	0
6079	9e-05	-0.00018	-0.00039	0.00027	-0.0002	6e-05	-0.00037	7e-05	0
6080	9e-05	-0.00018	-0.00039	0.00027	-0.0002	6e-05	-0.00037	7e-05	0
6081	9e-05	-0.00018	-0.00039	0.00027	-0.0002	6e-05	-0.00037	7e-05	0
6082	9e-05	-0.00018	-0.00039	0.00027	-0.0002	6e-05	-0.00037	7e-05	0
6083	0.0003	6e-05	0.00021	0.00061	-0.00012	0.00079	0.00026	0.00025	0
6084	0.0003	6e-05	0.00021	0.00061	-0.00012	0.00079	0.00026	0.00025	0
6085	-0.00015	-7e-05	-0.00016	-0.00086	-0.00011	-0.00014	0.00045	-0.00021	0
6086	-0.00015	-7e-05	-0.00016	-0.00086	-0.00011	-0.00014	0.00045	-0.00021	0
6088	-0.00015	-7e-05	-0.00016	-0.00086	-0.00011	-0.00014	0.00045	-0.00021	0
6089	-0.00015	-7e-05	-0.00016	-0.00086	-0.00011	-0.00014	0.00045	-0.00021	0
6090	-0.00015	-7e-05	-0.00016	-0.00086	-0.00011	-0.00014	0.00045	-0.00021	0
6091	-0.00015	-7e-05	-0.00016	-0.00086	-0.00011	-0.00014	0.00045	-0.00021	0
6092	-0.00015	-7e-05	-0.00016	-0.00086	-0.00011	-0.00014	0.00045	-0.00021	0
6093	-0.00015	-7e-05	-0.00016	-0.00086	-0.00011	-0.00014	0.00045	-0.00021	0
6094	-0.00015	-7e-05	-0.00016	-0.00086	-0.00011	-0.00014	0.00045	-0.00021	0
6095	-0.00015	-7e-05	-0.00016	-0.00086	-0.00011	-0.00014	0.00045	-0.00021	0
6096	-0.00015	-7e-05	-0.00016	-0.00086	-0.00011	-0.00014	0.00045	-0.00021	0
6097	-0.00015	-7e-05	-0.00016	-0.00086	-0.00011	-0.00014	0.00045	-0.00021	0
6098	-0.00015	-7e-05	-0.00016	-0.00086	-0.00011	-0.00014	0.00045	-0.00021	0
6099	-0.00015	-7e-05	-0.00016	-0.00086	-0.00011	-0.00014	0.00045	-0.00021	0
6100	-0.00015	-7e-05	-0.00016	-0.00086	-0.00011	-0.00014	0.00045	-0.00021	0
6101	-0.00015	-7e-05	-0.00016	-0.00086	-0.00011	-0.00014	0.00045	-0.00021	0
6102	-0.00015	-7e-05	-0.00016	-0.00086	-0.00011	-0.00014	0.00045	-0.00021	0
6103	-0.00015	-7e-05	-0.00016	-0.00086	-0.00011	-0.00014	0.00045	-0.00021	0
6104	-0.00015	-7e-05	-0.00016	-0.00086	-0.00011	-0.00014	0.00045	-0.00021	0
6105	-0.00015	-7e-05	-0.00016	-0.00086	-0.00011	-0.00014	0.00045	-0.00021	0
6106	-3e-05	7e-05	7e-05	-0.00013	-8e-05	-0.00028	-8e-05	0.00012	0
6107	0.00017	0.00015	0.00023	0.00019	-6e-05	0.00024	-0.00096	-0.00025	0
6108	0.00017	0.00015	0.00023	0.00019	-6e-05	0.00024	-0.00096	-0.00025	0
6109	0.00017	0.00015	0.00023	0.00019	-6e-05	0.00024	-0.00096	-0.00025	0
6110	0.00017	0.00015	0.00023	0.00019	-6e-05	0.00024	-0.00096	-0.00025	0
6111	0.00017	0.00015	0.00023	0.00019	-6e-05	0.00024	-0.00096	-0.00025	0
6112	0.00017	0.00015	0.00023	0.00019	-6e-05	0.00024	-0.00096	-0.00025	0
6113	0.00017	0.00015	0.00023	0.00019	-6e-05	0.00024	-0.00096	-0.00025	0
6114	0.00017	0.00015	0.00023	0.00019	-6e-05	0.00024	-0.00096	-0.00025	0
6115	0.00017	0.00015	0.00023	0.00019	-6e-05	0.00024	-0.00096	-0.00025	0
6116	0.00017	0.00015	0.00023	0.00019	-6e-05	0.00024	-0.00096	-0.00025	0
6117	0.00017	0.00015	0.00023	0.00019	-6e-05	0.00024	-0.00096	-0.00025	0
6118	0.00017	0.00015	0.00023	0.00019	-6e-05	0.00024	-0.00096	-0.00025	0
6119	-8e-05	-0.00012	-0.00028	-0.00018	-0.00015	-2e-05	0.00041	-0.00014	0
6120	-8e-05	-0.00012	-0.00028	-0.00018	-0.00015	-2e-05	0.00041	-0.00014	0
6121	-8e-05	-0.00012	-0.00028	-0.00018	-0.00015	-2e-05	0.00041	-0.00014	0
6122	-8e-05	-0.00012	-0.00028	-0.00018	-0.00015	-2e-05	0.00041	-0.00014	0
6123	-8e-05	-0.00012	-0.00028	-0.00018	-0.00015	-2e-05	0.00041	-0.00014	0
6124	-8e-05	-0.00012	-0.00028	-0.00018	-0.00015	-2e-05	0.00041	-0.00014	0
6125	-8e-05	-0.00012	-0.00028	-0.00018	-0.00015	-2e-05	0.00041	-0.00014	0
6126	-8e-05	-0.00012	-0.00028	-0.00018	-0.00015	-2e-05	0.00041	-0.00014	0
6127	0.00014	0.00013	0.00021	-0.00014	0.00014	-0.00057	0.00022	0.00029	0
6128	-0.00053	-5e-05	0.00031	0.00062	0	0.00032	0.00076	-0.00075	0
6129	-0.00053	-5e-05	0.00031	0.00062	0	0.00032	0.00076	-0.00075	0
6130	-0.00053	-5e-05	0.00031	0.00062	0	0.00032	0.00076	-0.00075	0
6131	-0.00053	-5e-05	0.00031	0.00062	0	0.00032	0.00076	-0.00075	0
6132	-0.00053	-5e-05	0.00031	0.00062	0	0.00032	0.00076	-0.00075	0
6133	-0.00053	-5e-05	0.00031	0.00062	0	0.00032	0.00076	-0.00075	0
6134	-0.00053	-5e-05	0.00031	0.00062	0	0.00032	0.00076	-0.00075	0
6135	-0.00053	-5e-05	0.00031	0.00062	0	0.00032	0.00076	-0.00075	0
6136	-0.00053	-5e-05	0.00031	0.00062	0	0.00032	0.00076	-0.00075	0
6138	-0.00053	-5e-05	0.00031	0.00062	0	0.00032	0.00076	-0.00075	0
6139	-0.00053	-5e-05	0.00031	0.00062	0	0.00032	0.00076	-0.00075	0
6140	-0.00053	-5e-05	0.00031	0.00062	0	0.00032	0.00076	-0.00075	0
6141	-0.00053	-5e-05	0.00031	0.00062	0	0.00032	0.00076	-0.00075	0
6142	-0.00053	-5e-05	0.00031	0.00062	0	0.00032	0.00076	-0.00075	0
6143	0.00063	9e-05	0.00011	-0.00039	-0.00016	-0.00105	-0.00058	0.00124	0
6144	-0.00038	-3e-05	7e-05	0.0002	-5e-05	9e-05	-0.00071	-0.00074	0
6145	0.00052	0.0003	0.00024	-0.00025	0	-0.00035	0.00075	0.00094	0
6146	0.00052	0.0003	0.00024	-0.00025	0	-0.00035	0.00075	0.00094	0
6147	0.00052	0.0003	0.00024	-0.00025	0	-0.00035	0.00075	0.00094	0
6148	0.00052	0.0003	0.00024	-0.00025	0	-0.00035	0.00075	0.00094	0
6149	0.00052	0.0003	0.00024	-0.00025	0	-0.00035	0.00075	0.00094	0
6150	0.00052	0.0003	0.00024	-0.00025	0	-0.00035	0.00075	0.00094	0
6151	0.00052	0.0003	0.00024	-0.00025	0	-0.00035	0.00075	0.00094	0
6152	0.00052	0.0003	0.00024	-0.00025	0	-0.00035	0.00075	0.00094	0
6153	0.00052	0.0003	0.00024	-0.00025	0	-0.00035	0.00075	0.00094	0
6154	0.00052	0.0003	0.00024	-0.00025	0	-0.00035	0.00075	0.00094	0
6155	0.00052	0.0003	0.00024	-0.00025	0	-0.00035	0.00075	0.00094	0
6156	0.00052	0.0003	0.00024	-0.00025	0	-0.00035	0.00075	0.00094	0
6157	0.00052	0.0003	0.00024	-0.00025	0	-0.00035	0.00075	0.00094	0
6158	0.00052	0.0003	0.00024	-0.00025	0	-0.00035	0.00075	0.00094	0
6159	0.00052	0.0003	0.00024	-0.00025	0	-0.00035	0.00075	0.00094	0
6160	0.00052	0.0003	0.00024	-0.00025	0	-0.00035	0.00075	0.00094	0
6161	0.00052	0.0003	0.00024	-0.00025	0	-0.00035	0.00075	0.00094	0
6162	0.00052	0.0003	0.00024	-0.00025	0	-0.00035	0.00075	0.00094	0
6163	0.00052	0.0003	0.00024	-0.00025	0	-0.00035	0.00075	0.00094	0
6164	0.00052	0.0003	0.00024	-0.00025	0	-0.00035	0.00075	0.00094	0
6165	-0.0003	-0.0001	0.0002	0.00034	-0.00026	-0.00029	-3e-05	-0.00075	0
6166	0	-9e-05	-0.0003	-0.00022	-0.00016	0.00025	-1e-05	0.00057	0
6167	0.00013	-7e-05	-0.00068	-0.0007	7e-05	-0.00016	0.00017	0.00046	0
6168	0.00013	-7e-05	-0.00068	-0.0007	7e-05	-0.00016	0.00017	0.00046	0
6169	0.00013	-7e-05	-0.00068	-0.0007	7e-05	-0.00016	0.00017	0.00046	0
6170	0.00013	-7e-05	-0.00068	-0.0007	7e-05	-0.00016	0.00017	0.00046	0
6171	0.00013	-7e-05	-0.00068	-0.0007	7e-05	-0.00016	0.00017	0.00046	0
6172	0.00013	-7e-05	-0.00068	-0.0007	7e-05	-0.00016	0.00017	0.00046	0
6173	0.00013	-7e-05	-0.00068	-0.0007	7e-05	-0.00016	0.00017	0.00046	0
6174	0.00013	-7e-05	-0.00068	-0.0007	7e-05	-0.00016	0.00017	0.00046	0
6175	0.00013	-7e-05	-0.00068	-0.0007	7e-05	-0.00016	0.00017	0.00046	0
6176	0.00013	-7e-05	-0.00068	-0.0007	7e-05	-0.00016	0.00017	0.00046	0
6177	0.00013	-7e-05	-0.00068	-0.0007	7e-05	-0.00016	0.00017	0.00046	0
6178	0.00013	-7e-05	-0.00068	-0.0007	7e-05	-0.00016	0.00017	0.00046	0
6179	-8e-05	1e-05	0.00037	-3e-05	0.00028	-0.00073	-6e-05	-8e-05	0
6180	-8e-05	1e-05	0.00037	-3e-05	0.00028	-0.00073	-6e-05	-8e-05	0
6181	-8e-05	1e-05	0.00037	-3e-05	0.00028	-0.00073	-6e-05	-8e-05	0
6182	-8e-05	1e-05	0.00037	-3e-05	0.00028	-0.00073	-6e-05	-8e-05	0
6183	-8e-05	1e-05	0.00037	-3e-05	0.00028	-0.00073	-6e-05	-8e-05	0
6184	-8e-05	1e-05	0.00037	-3e-05	0.00028	-0.00073	-6e-05	-8e-05	0
6185	-8e-05	1e-05	0.00037	-3e-05	0.00028	-0.00073	-6e-05	-8e-05	0
6186	-8e-05	1e-05	0.00037	-3e-05	0.00028	-0.00073	-6e-05	-8e-05	0
6189	-0.00035	-8e-05	0.00034	0.00029	-0.00018	-0.0008	-0.00057	-0.00025	0
6190	-0.00035	-8e-05	0.00034	0.00029	-0.00018	-0.0008	-0.00057	-0.00025	0
6191	-0.00035	-8e-05	0.00034	0.00029	-0.00018	-0.0008	-0.00057	-0.00025	0
