35741	-5e-05	-1e-05	-2e-05	6e-05	0.00051	4e-05	-0.00025	-0.00034	6
35742	-5e-05	-1e-05	-2e-05	6e-05	0.00051	4e-05	-0.00025	-0.00034	6
35743	-5e-05	-1e-05	-2e-05	6e-05	0.00051	4e-05	-0.00025	-0.00034	6
35744	-5e-05	-1e-05	-2e-05	6e-05	0.00051	4e-05	-0.00025	-0.00034	6
35745	-5e-05	-1e-05	-2e-05	6e-05	0.00051	4e-05	-0.00025	-0.00034	6
35746	-0.00026	-6e-05	-6e-05	-0.00022	-0.00086	-0.00034	0.00011	-0.00023	6
35747	-0.00026	-6e-05	-6e-05	-0.00022	-0.00086	-0.00034	0.00011	-0.00023	6
35748	-0.00026	-6e-05	-6e-05	-0.00022	-0.00086	-0.00034	0.00011	-0.00023	6
35749	-0.00026	-6e-05	-6e-05	-0.00022	-0.00086	-0.00034	0.00011	-0.00023	6
35750	-0.00026	-6e-05	-6e-05	-0.00022	-0.00086	-0.00034	0.00011	-0.00023	6
35751	-0.00026	-6e-05	-6e-05	-0.00022	-0.00086	-0.00034	0.00011	-0.00023	6
35752	-0.00026	-6e-05	-6e-05	-0.00022	-0.00086	-0.00034	0.00011	-0.00023	6
35753	-0.00026	-6e-05	-6e-05	-0.00022	-0.00086	-0.00034	0.00011	-0.00023	6
35754	-0.00026	-6e-05	-6e-05	-0.00022	-0.00086	-0.00034	0.00011	-0.00023	6
35755	-0.00026	-6e-05	-6e-05	-0.00022	-0.00086	-0.00034	0.00011	-0.00023	6
35756	-0.00026	-6e-05	-6e-05	-0.00022	-0.00086	-0.00034	0.00011	-0.00023	6
35757	-0.00026	-6e-05	-6e-05	-0.00022	-0.00086	-0.00034	0.00011	-0.00023	6
35758	-0.00026	-6e-05	-6e-05	-0.00022	-0.00086	-0.00034	0.00011	-0.00023	6
35759	-0.00026	-6e-05	-6e-05	-0.00022	-0.00086	-0.00034	0.00011	-0.00023	6
35760	-0.00026	-6e-05	-6e-05	-0.00022	-0.00086	-0.00034	0.00011	-0.00023	6
35761	0.00028	6e-05	0.0001	-0.00026	-9e-05	-0.0001	4e-05	0.00012	6
35763	6e-05	0.0001	0.00012	-3e-05	-0.00029	3e-05	0.00013	-0.00051	6
35764	6e-05	0.0001	0.00012	-3e-05	-0.00029	3e-05	0.00013	-0.00051	6
35765	6e-05	0.0001	0.00012	-3e-05	-0.00029	3e-05	0.00013	-0.00051	6
35766	6e-05	0.0001	0.00012	-3e-05	-0.00029	3e-05	0.00013	-0.00051	6
35767	6e-05	0.0001	0.00012	-3e-05	-0.00029	3e-05	0.00013	-0.00051	6
35768	6e-05	0.0001	0.00012	-3e-05	-0.00029	3e-05	0.00013	-0.00051	6
35769	6e-05	0.0001	0.00012	-3e-05	-0.00029	3e-05	0.00013	-0.00051	6
35770	6e-05	0.0001	0.00012	-3e-05	-0.00029	3e-05	0.00013	-0.00051	6
35771	6e-05	0.0001	0.00012	-3e-05	-0.00029	3e-05	0.00013	-0.00051	6
35772	6e-05	0.0001	0.00012	-3e-05	-0.00029	3e-05	0.00013	-0.00051	6
35773	6e-05	0.0001	0.00012	-3e-05	-0.00029	3e-05	0.00013	-0.00051	6
35774	6e-05	0.0001	0.00012	-3e-05	-0.00029	3e-05	0.00013	-0.00051	6
35775	6e-05	0.0001	0.00012	-3e-05	-0.00029	3e-05	0.00013	-0.00051	6
35776	6e-05	0.0001	0.00012	-3e-05	-0.00029	3e-05	0.00013	-0.00051	6
35777	6e-05	0.0001	0.00012	-3e-05	-0.00029	3e-05	0.00013	-0.00051	6
35778	6e-05	0.0001	0.00012	-3e-05	-0.00029	3e-05	0.00013	-0.00051	6
35779	6e-05	0.0001	0.00012	-3e-05	-0.00029	3e-05	0.00013	-0.00051	6
35780	6e-05	0.0001	0.00012	-3e-05	-0.00029	3e-05	0.00013	-0.00051	6
35781	6e-05	0.0001	0.00012	-3e-05	-0.00029	3e-05	0.00013	-0.00051	6
35782	6e-05	0.0001	0.00012	-3e-05	-0.00029	3e-05	0.00013	-0.00051	6
35783	6e-05	0.0001	0.00012	-3e-05	-0.00029	3e-05	0.00013	-0.00051	6
35784	3e-05	-2e-05	-5e-05	0.00021	-0.00058	-8e-05	0.00023	0.00023	6
35785	1e-05	-1e-05	0	0.00021	0.00065	8e-05	-9e-05	-0.00019	6
35787	1e-05	-1e-05	0	0.00021	0.00065	8e-05	-9e-05	-0.00019	6
35789	1e-05	-1e-05	0	0.00021	0.00065	8e-05	-9e-05	-0.00019	6
35790	1e-05	-1e-05	0	0.00021	0.00065	8e-05	-9e-05	-0.00019	6
35791	1e-05	-1e-05	0	0.00021	0.00065	8e-05	-9e-05	-0.00019	6
35792	1e-05	-1e-05	0	0.00021	0.00065	8e-05	-9e-05	-0.00019	6
35793	1e-05	-1e-05	0	0.00021	0.00065	8e-05	-9e-05	-0.00019	6
35794	1e-05	-1e-05	0	0.00021	0.00065	8e-05	-9e-05	-0.00019	6
35795	1e-05	-1e-05	0	0.00021	0.00065	8e-05	-9e-05	-0.00019	6
35796	1e-05	-1e-05	0	0.00021	0.00065	8e-05	-9e-05	-0.00019	6
35797	-5e-05	1e-05	-1e-05	-4e-05	0.00016	0.00067	-5e-05	6e-05	6
35798	0.00031	-1e-05	-1e-05	3e-05	0.00028	-0.00084	-0.00018	9e-05	6
35799	0.00031	-1e-05	-1e-05	3e-05	0.00028	-0.00084	-0.00018	9e-05	6
35800	0.00031	-1e-05	-1e-05	3e-05	0.00028	-0.00084	-0.00018	9e-05	6
35801	0.00031	-1e-05	-1e-05	3e-05	0.00028	-0.00084	-0.00018	9e-05	6
35802	0.00031	-1e-05	-1e-05	3e-05	0.00028	-0.00084	-0.00018	9e-05	6
35803	0.00031	-1e-05	-1e-05	3e-05	0.00028	-0.00084	-0.00018	9e-05	6
35804	0.00031	-1e-05	-1e-05	3e-05	0.00028	-0.00084	-0.00018	9e-05	6
35805	0.00031	-1e-05	-1e-05	3e-05	0.00028	-0.00084	-0.00018	9e-05	6
35806	-4e-05	-9e-05	-6e-05	0.00034	0.00029	0.00044	-0.00021	9e-05	6
35807	-4e-05	-9e-05	-6e-05	0.00034	0.00029	0.00044	-0.00021	9e-05	6
35808	-4e-05	-9e-05	-6e-05	0.00034	0.00029	0.00044	-0.00021	9e-05	6
35809	-4e-05	-9e-05	-6e-05	0.00034	0.00029	0.00044	-0.00021	9e-05	6
35810	-4e-05	-9e-05	-6e-05	0.00034	0.00029	0.00044	-0.00021	9e-05	6
35811	-4e-05	-9e-05	-6e-05	0.00034	0.00029	0.00044	-0.00021	9e-05	6
35812	-4e-05	-9e-05	-6e-05	0.00034	0.00029	0.00044	-0.00021	9e-05	6
35813	-4e-05	-9e-05	-6e-05	0.00034	0.00029	0.00044	-0.00021	9e-05	6
35814	-4e-05	-9e-05	-6e-05	0.00034	0.00029	0.00044	-0.00021	9e-05	6
35815	-4e-05	-9e-05	-6e-05	0.00034	0.00029	0.00044	-0.00021	9e-05	6
35816	-4e-05	-9e-05	-6e-05	0.00034	0.00029	0.00044	-0.00021	9e-05	6
35817	-4e-05	-9e-05	-6e-05	0.00034	0.00029	0.00044	-0.00021	9e-05	6
35818	-4e-05	-9e-05	-6e-05	0.00034	0.00029	0.00044	-0.00021	9e-05	6
35819	-4e-05	-9e-05	-6e-05	0.00034	0.00029	0.00044	-0.00021	9e-05	6
35820	-4e-05	-9e-05	-6e-05	0.00034	0.00029	0.00044	-0.00021	9e-05	6
35821	0.00026	-7e-05	-0.00012	-5e-05	0.00015	0.00012	-0.0002	7e-05	6
35822	0.00026	-7e-05	-0.00012	-5e-05	0.00015	0.00012	-0.0002	7e-05	6
35823	0.00012	5e-05	5e-05	9e-05	-0.00031	-6e-05	0.00011	2e-05	6
35824	0.00012	5e-05	5e-05	9e-05	-0.00031	-6e-05	0.00011	2e-05	6
35825	0.00012	5e-05	5e-05	9e-05	-0.00031	-6e-05	0.00011	2e-05	6
35826	0.00012	5e-05	5e-05	9e-05	-0.00031	-6e-05	0.00011	2e-05	6
35827	0.00012	5e-05	5e-05	9e-05	-0.00031	-6e-05	0.00011	2e-05	6
35828	0.00012	5e-05	5e-05	9e-05	-0.00031	-6e-05	0.00011	2e-05	6
35829	0.00012	5e-05	5e-05	9e-05	-0.00031	-6e-05	0.00011	2e-05	6
35830	0.00012	5e-05	5e-05	9e-05	-0.00031	-6e-05	0.00011	2e-05	6
35831	0.00012	5e-05	5e-05	9e-05	-0.00031	-6e-05	0.00011	2e-05	6
35832	0.00012	5e-05	5e-05	9e-05	-0.00031	-6e-05	0.00011	2e-05	6
35833	0.00012	5e-05	5e-05	9e-05	-0.00031	-6e-05	0.00011	2e-05	6
35834	0.00012	5e-05	5e-05	9e-05	-0.00031	-6e-05	0.00011	2e-05	6
35835	0.00012	5e-05	5e-05	9e-05	-0.00031	-6e-05	0.00011	2e-05	6
35840	0.00012	5e-05	5e-05	9e-05	-0.00031	-6e-05	0.00011	2e-05	6
35841	0.00012	5e-05	5e-05	9e-05	-0.00031	-6e-05	0.00011	2e-05	6
35842	0.00012	5e-05	5e-05	9e-05	-0.00031	-6e-05	0.00011	2e-05	6
35843	3e-05	1e-05	-2e-05	9e-05	-4e-05	2e-05	9e-05	-0.0001	6
35845	3e-05	1e-05	-2e-05	9e-05	-4e-05	2e-05	9e-05	-0.0001	6
35846	3e-05	1e-05	-2e-05	9e-05	-4e-05	2e-05	9e-05	-0.0001	6
35849	0.00013	0.00011	6e-05	-0.00081	-0.00058	0.0001	8e-05	0.00016	6
35860	0.00013	0.00011	6e-05	-0.00081	-0.00058	0.0001	8e-05	0.00016	6
35861	0.00013	0.00011	6e-05	-0.00081	-0.00058	0.0001	8e-05	0.00016	6
35862	0.00013	0.00011	6e-05	-0.00081	-0.00058	0.0001	8e-05	0.00016	6
35864	0.00013	0.00011	6e-05	-0.00081	-0.00058	0.0001	8e-05	0.00016	6
35865	0.00013	0.00011	6e-05	-0.00081	-0.00058	0.0001	8e-05	0.00016	6
35866	-0.00064	-9e-05	-8e-05	0	0.00046	0.00046	-1e-05	-0.00018	6
35867	0.00018	2e-05	-1e-05	-1e-05	0.00062	0.00056	-5e-05	-5e-05	6
35868	-0.00023	-8e-05	-2e-05	0.00032	7e-05	-4e-05	0	-0.00016	6
35869	-0.00023	-8e-05	-2e-05	0.00032	7e-05	-4e-05	0	-0.00016	6
35870	-0.00023	-8e-05	-2e-05	0.00032	7e-05	-4e-05	0	-0.00016	6
35871	-0.00023	-8e-05	-2e-05	0.00032	7e-05	-4e-05	0	-0.00016	6
35872	-0.00023	-8e-05	-2e-05	0.00032	7e-05	-4e-05	0	-0.00016	6
35873	-0.00023	-8e-05	-2e-05	0.00032	7e-05	-4e-05	0	-0.00016	6
35874	-0.00023	-8e-05	-2e-05	0.00032	7e-05	-4e-05	0	-0.00016	6
35875	-0.00023	-8e-05	-2e-05	0.00032	7e-05	-4e-05	0	-0.00016	6
35876	-0.00023	-8e-05	-2e-05	0.00032	7e-05	-4e-05	0	-0.00016	6
35877	-0.00023	-8e-05	-2e-05	0.00032	7e-05	-4e-05	0	-0.00016	6
35878	-0.00023	-8e-05	-2e-05	0.00032	7e-05	-4e-05	0	-0.00016	6
35879	-0.00023	-8e-05	-2e-05	0.00032	7e-05	-4e-05	0	-0.00016	6
35880	-0.00023	-8e-05	-2e-05	0.00032	7e-05	-4e-05	0	-0.00016	6
35881	-0.00014	-7e-05	-5e-05	-2e-05	-0.00036	-0.00048	0.00042	-0.00018	6
35882	0.00017	0.00011	0.0001	-0.00011	0.00079	0.00013	1e-05	0.0003	6
35883	-0.00021	0	5e-05	0.0002	-7e-05	-6e-05	2e-05	0.00019	6
35884	-0.00021	0	5e-05	0.0002	-7e-05	-6e-05	2e-05	0.00019	6
35885	-0.00021	0	5e-05	0.0002	-7e-05	-6e-05	2e-05	0.00019	6
35886	-0.00021	0	5e-05	0.0002	-7e-05	-6e-05	2e-05	0.00019	6
35888	-0.00021	0	5e-05	0.0002	-7e-05	-6e-05	2e-05	0.00019	6
35889	-0.00021	0	5e-05	0.0002	-7e-05	-6e-05	2e-05	0.00019	6
35890	-0.00021	0	5e-05	0.0002	-7e-05	-6e-05	2e-05	0.00019	6
35891	-0.00021	0	5e-05	0.0002	-7e-05	-6e-05	2e-05	0.00019	6
35892	-0.00021	0	5e-05	0.0002	-7e-05	-6e-05	2e-05	0.00019	6
35893	-0.00021	0	5e-05	0.0002	-7e-05	-6e-05	2e-05	0.00019	6
35894	-0.00021	0	5e-05	0.0002	-7e-05	-6e-05	2e-05	0.00019	6
35895	-0.00021	0	5e-05	0.0002	-7e-05	-6e-05	2e-05	0.00019	6
35896	-0.00021	0	5e-05	0.0002	-7e-05	-6e-05	2e-05	0.00019	6
35897	-0.00021	0	5e-05	0.0002	-7e-05	-6e-05	2e-05	0.00019	6
35898	-0.00021	0	5e-05	0.0002	-7e-05	-6e-05	2e-05	0.00019	6
35899	-0.00021	0	5e-05	0.0002	-7e-05	-6e-05	2e-05	0.00019	6
35900	-0.00021	0	5e-05	0.0002	-7e-05	-6e-05	2e-05	0.00019	6
35901	-0.00021	0	5e-05	0.0002	-7e-05	-6e-05	2e-05	0.00019	6
35902	-0.00021	0	5e-05	0.0002	-7e-05	-6e-05	2e-05	0.00019	6
35903	-5e-05	-1e-05	-6e-05	-0.00015	-0.00024	0.00023	7e-05	-0.00023	6
35904	0.00031	0	2e-05	-4e-05	-0.00086	-7e-05	0.00011	0.00025	6
35905	0.00019	-3e-05	-7e-05	-6e-05	-0.00065	-0.00012	9e-05	0.0004	6
35906	0.00019	-3e-05	-7e-05	-6e-05	-0.00065	-0.00012	9e-05	0.0004	6
35907	0.00019	-3e-05	-7e-05	-6e-05	-0.00065	-0.00012	9e-05	0.0004	6
35908	0.00019	-3e-05	-7e-05	-6e-05	-0.00065	-0.00012	9e-05	0.0004	6
35909	0.00019	-3e-05	-7e-05	-6e-05	-0.00065	-0.00012	9e-05	0.0004	6
35910	0.00019	-3e-05	-7e-05	-6e-05	-0.00065	-0.00012	9e-05	0.0004	6
35911	0.00019	-3e-05	-7e-05	-6e-05	-0.00065	-0.00012	9e-05	0.0004	6
35912	0.00019	-3e-05	-7e-05	-6e-05	-0.00065	-0.00012	9e-05	0.0004	6
35913	0.00019	-3e-05	-7e-05	-6e-05	-0.00065	-0.00012	9e-05	0.0004	6
35914	0.00019	-3e-05	-7e-05	-6e-05	-0.00065	-0.00012	9e-05	0.0004	6
35915	0.00019	-3e-05	-7e-05	-6e-05	-0.00065	-0.00012	9e-05	0.0004	6
35916	0.00019	-3e-05	-7e-05	-6e-05	-0.00065	-0.00012	9e-05	0.0004	6
35917	0.00019	-3e-05	-7e-05	-6e-05	-0.00065	-0.00012	9e-05	0.0004	6
35918	0.00019	-3e-05	-7e-05	-6e-05	-0.00065	-0.00012	9e-05	0.0004	6
35919	0.00019	-3e-05	-7e-05	-6e-05	-0.00065	-0.00012	9e-05	0.0004	6
35920	0.00019	-3e-05	-7e-05	-6e-05	-0.00065	-0.00012	9e-05	0.0004	6
35921	0.00019	-3e-05	-7e-05	-6e-05	-0.00065	-0.00012	9e-05	0.0004	6
35922	0.00019	-3e-05	-7e-05	-6e-05	-0.00065	-0.00012	9e-05	0.0004	6
35923	0.00019	-3e-05	-7e-05	-6e-05	-0.00065	-0.00012	9e-05	0.0004	6
35924	0.00019	-3e-05	-7e-05	-6e-05	-0.00065	-0.00012	9e-05	0.0004	6
35925	0.00019	-3e-05	-7e-05	-6e-05	-0.00065	-0.00012	9e-05	0.0004	6
35926	4e-05	9e-05	0.00021	0.00061	0.00043	-0.00019	-7e-05	-0.00014	6
35927	0.00018	-4e-05	-8e-05	7e-05	0.00024	-2e-05	0.00013	0.00024	6
35928	0.00018	-4e-05	-8e-05	7e-05	0.00024	-2e-05	0.00013	0.00024	6
35929	0.00018	-4e-05	-8e-05	7e-05	0.00024	-2e-05	0.00013	0.00024	6
35930	0.00018	-4e-05	-8e-05	7e-05	0.00024	-2e-05	0.00013	0.00024	6
35931	0.00018	-4e-05	-8e-05	7e-05	0.00024	-2e-05	0.00013	0.00024	6
35932	0.00018	-4e-05	-8e-05	7e-05	0.00024	-2e-05	0.00013	0.00024	6
35933	0.00018	-4e-05	-8e-05	7e-05	0.00024	-2e-05	0.00013	0.00024	6
35934	0.00018	-4e-05	-8e-05	7e-05	0.00024	-2e-05	0.00013	0.00024	6
35935	0.00018	-4e-05	-8e-05	7e-05	0.00024	-2e-05	0.00013	0.00024	6
35936	0.00018	-4e-05	-8e-05	7e-05	0.00024	-2e-05	0.00013	0.00024	6
35938	0.00018	-4e-05	-8e-05	7e-05	0.00024	-2e-05	0.00013	0.00024	6
35939	0.00018	-4e-05	-8e-05	7e-05	0.00024	-2e-05	0.00013	0.00024	6
35940	0.00018	-4e-05	-8e-05	7e-05	0.00024	-2e-05	0.00013	0.00024	6
35941	-2e-05	-1e-05	-5e-05	0.0003	0.00126	0.00021	0.00012	0.00022	6
35942	0.00012	-6e-05	-6e-05	-0.0002	1e-05	0.00065	-0.00015	0.00033	6
35943	2e-05	-2e-05	-6e-05	-3e-05	0.00034	-0.0004	-0.0001	0.00016	6
35944	2e-05	-2e-05	-6e-05	-3e-05	0.00034	-0.0004	-0.0001	0.00016	6
35945	2e-05	-2e-05	-6e-05	-3e-05	0.00034	-0.0004	-0.0001	0.00016	6
35946	2e-05	-2e-05	-6e-05	-3e-05	0.00034	-0.0004	-0.0001	0.00016	6
35947	2e-05	-2e-05	-6e-05	-3e-05	0.00034	-0.0004	-0.0001	0.00016	6
35948	2e-05	-2e-05	-6e-05	-3e-05	0.00034	-0.0004	-0.0001	0.00016	6
35949	2e-05	-2e-05	-6e-05	-3e-05	0.00034	-0.0004	-0.0001	0.00016	6
35950	2e-05	-2e-05	-6e-05	-3e-05	0.00034	-0.0004	-0.0001	0.00016	6
35951	2e-05	-2e-05	-6e-05	-3e-05	0.00034	-0.0004	-0.0001	0.00016	6
35952	2e-05	-2e-05	-6e-05	-3e-05	0.00034	-0.0004	-0.0001	0.00016	6
35953	2e-05	-2e-05	-6e-05	-3e-05	0.00034	-0.0004	-0.0001	0.00016	6
35954	2e-05	-2e-05	-6e-05	-3e-05	0.00034	-0.0004	-0.0001	0.00016	6
35955	2e-05	-2e-05	-6e-05	-3e-05	0.00034	-0.0004	-0.0001	0.00016	6
35956	2e-05	-2e-05	-6e-05	-3e-05	0.00034	-0.0004	-0.0001	0.00016	6
35957	2e-05	-2e-05	-6e-05	-3e-05	0.00034	-0.0004	-0.0001	0.00016	6
35958	2e-05	-2e-05	-6e-05	-3e-05	0.00034	-0.0004	-0.0001	0.00016	6
35959	2e-05	-2e-05	-6e-05	-3e-05	0.00034	-0.0004	-0.0001	0.00016	6
35960	2e-05	-2e-05	-6e-05	-3e-05	0.00034	-0.0004	-0.0001	0.00016	6
35961	2e-05	-2e-05	-6e-05	-3e-05	0.00034	-0.0004	-0.0001	0.00016	6
35962	2e-05	-2e-05	-6e-05	-3e-05	0.00034	-0.0004	-0.0001	0.00016	6
35963	2e-05	-2e-05	-6e-05	-3e-05	0.00034	-0.0004	-0.0001	0.00016	6
35964	-7e-05	2e-05	4e-05	-0.00038	-0.00096	-0.00012	-9e-05	-0.00015	6
35965	-0.00053	-5e-05	-8e-05	-0.00012	-0.00063	-0.00048	-0.00033	-0.00086	6
35966	-0.00053	-5e-05	-8e-05	-0.00012	-0.00063	-0.00048	-0.00033	-0.00086	6
35967	-0.00053	-5e-05	-8e-05	-0.00012	-0.00063	-0.00048	-0.00033	-0.00086	6
35968	-0.00053	-5e-05	-8e-05	-0.00012	-0.00063	-0.00048	-0.00033	-0.00086	6
35969	-0.00053	-5e-05	-8e-05	-0.00012	-0.00063	-0.00048	-0.00033	-0.00086	6
35970	-0.00053	-5e-05	-8e-05	-0.00012	-0.00063	-0.00048	-0.00033	-0.00086	6
35971	-0.00053	-5e-05	-8e-05	-0.00012	-0.00063	-0.00048	-0.00033	-0.00086	6
35972	-0.00053	-5e-05	-8e-05	-0.00012	-0.00063	-0.00048	-0.00033	-0.00086	6
35973	-0.00053	-5e-05	-8e-05	-0.00012	-0.00063	-0.00048	-0.00033	-0.00086	6
35974	-0.00053	-5e-05	-8e-05	-0.00012	-0.00063	-0.00048	-0.00033	-0.00086	6
35975	-0.00053	-5e-05	-8e-05	-0.00012	-0.00063	-0.00048	-0.00033	-0.00086	6
35976	-0.00053	-5e-05	-8e-05	-0.00012	-0.00063	-0.00048	-0.00033	-0.00086	6
35977	-0.00053	-5e-05	-8e-05	-0.00012	-0.00063	-0.00048	-0.00033	-0.00086	6
35978	-0.00053	-5e-05	-8e-05	-0.00012	-0.00063	-0.00048	-0.00033	-0.00086	6
35979	-0.00053	-5e-05	-8e-05	-0.00012	-0.00063	-0.00048	-0.00033	-0.00086	6
35980	-0.00053	-5e-05	-8e-05	-0.00012	-0.00063	-0.00048	-0.00033	-0.00086	6
35981	-0.00053	-5e-05	-8e-05	-0.00012	-0.00063	-0.00048	-0.00033	-0.00086	6
35982	-0.00053	-5e-05	-8e-05	-0.00012	-0.00063	-0.00048	-0.00033	-0.00086	6
35983	-0.00053	-5e-05	-8e-05	-0.00012	-0.00063	-0.00048	-0.00033	-0.00086	6
35984	-0.00053	-5e-05	-8e-05	-0.00012	-0.00063	-0.00048	-0.00033	-0.00086	6
35985	-0.00053	-5e-05	-8e-05	-0.00012	-0.00063	-0.00048	-0.00033	-0.00086	6
35986	3e-05	2e-05	0.0001	0.00014	0.00041	7e-05	0.00018	0.00037	6
35988	0.00026	-7e-05	-4e-05	0.00011	3e-05	-0.00012	-9e-05	-2e-05	6
35989	0.00026	-7e-05	-4e-05	0.00011	3e-05	-0.00012	-9e-05	-2e-05	6
35990	0.00026	-7e-05	-4e-05	0.00011	3e-05	-0.00012	-9e-05	-2e-05	6
35991	0.00026	-7e-05	-4e-05	0.00011	3e-05	-0.00012	-9e-05	-2e-05	6
35992	0.00026	-7e-05	-4e-05	0.00011	3e-05	-0.00012	-9e-05	-2e-05	6
35993	0.00026	-7e-05	-4e-05	0.00011	3e-05	-0.00012	-9e-05	-2e-05	6
35994	0.00026	-7e-05	-4e-05	0.00011	3e-05	-0.00012	-9e-05	-2e-05	6
35995	0.00026	-7e-05	-4e-05	0.00011	3e-05	-0.00012	-9e-05	-2e-05	6
35996	0.00026	-7e-05	-4e-05	0.00011	3e-05	-0.00012	-9e-05	-2e-05	6
35997	0.00026	-7e-05	-4e-05	0.00011	3e-05	-0.00012	-9e-05	-2e-05	6
35998	0.00026	-7e-05	-4e-05	0.00011	3e-05	-0.00012	-9e-05	-2e-05	6
35999	0.00026	-7e-05	-4e-05	0.00011	3e-05	-0.00012	-9e-05	-2e-05	6
36000	-0.00012	-4e-05	-0.00015	-0.00048	0.00022	-0.00013	6e-05	-4e-05	6
36001	-0.00012	-4e-05	-0.00015	-0.00048	0.00022	-0.00013	6e-05	-4e-05	6
36002	-0.00012	-4e-05	-0.00015	-0.00048	0.00022	-0.00013	6e-05	-4e-05	6
36003	-0.00012	-4e-05	-0.00015	-0.00048	0.00022	-0.00013	6e-05	-4e-05	6
36004	-0.00012	-4e-05	-0.00015	-0.00048	0.00022	-0.00013	6e-05	-4e-05	6
36005	-0.00012	-4e-05	-0.00015	-0.00048	0.00022	-0.00013	6e-05	-4e-05	6
36006	-0.00012	-4e-05	-0.00015	-0.00048	0.00022	-0.00013	6e-05	-4e-05	6
36007	0.00014	1e-05	0	-8e-05	0.00015	-0.00016	0.00021	0.00056	6
36008	0.00014	1e-05	0	-8e-05	0.00015	-0.00016	0.00021	0.00056	6
36009	0.00014	1e-05	0	-8e-05	0.00015	-0.00016	0.00021	0.00056	6
36010	0.00014	1e-05	0	-8e-05	0.00015	-0.00016	0.00021	0.00056	6
36011	0.00014	1e-05	0	-8e-05	0.00015	-0.00016	0.00021	0.00056	6
36012	0.00014	1e-05	0	-8e-05	0.00015	-0.00016	0.00021	0.00056	6
36013	0.00014	1e-05	0	-8e-05	0.00015	-0.00016	0.00021	0.00056	6
36014	0.00014	1e-05	0	-8e-05	0.00015	-0.00016	0.00021	0.00056	6
36015	0.00014	1e-05	0	-8e-05	0.00015	-0.00016	0.00021	0.00056	6
36016	0.00014	1e-05	0	-8e-05	0.00015	-0.00016	0.00021	0.00056	6
36017	0.00014	1e-05	0	-8e-05	0.00015	-0.00016	0.00021	0.00056	6
36018	0.00014	1e-05	0	-8e-05	0.00015	-0.00016	0.00021	0.00056	6
36019	0.00014	1e-05	0	-8e-05	0.00015	-0.00016	0.00021	0.00056	6
36020	0.00014	1e-05	0	-8e-05	0.00015	-0.00016	0.00021	0.00056	6
36021	0.00014	1e-05	0	-8e-05	0.00015	-0.00016	0.00021	0.00056	6
36022	0.00014	1e-05	0	-8e-05	0.00015	-0.00016	0.00021	0.00056	6
36023	0.00015	3e-05	0	0.00023	8e-05	2e-05	-0.00017	0.00021	6
36024	0.00015	3e-05	0	0.00023	8e-05	2e-05	-0.00017	0.00021	6
36025	0.0002	0	6e-05	0.00043	0.00053	0.00068	0.00025	0.00018	6
36026	0.0002	0	6e-05	0.00043	0.00053	0.00068	0.00025	0.00018	6
36027	0.0002	0	6e-05	0.00043	0.00053	0.00068	0.00025	0.00018	6
36028	0.0002	0	6e-05	0.00043	0.00053	0.00068	0.00025	0.00018	6
36029	0.0002	0	6e-05	0.00043	0.00053	0.00068	0.00025	0.00018	6
36030	0.0002	0	6e-05	0.00043	0.00053	0.00068	0.00025	0.00018	6
36031	0.0002	0	6e-05	0.00043	0.00053	0.00068	0.00025	0.00018	6
36032	0.0002	0	6e-05	0.00043	0.00053	0.00068	0.00025	0.00018	6
36033	0.0002	0	6e-05	0.00043	0.00053	0.00068	0.00025	0.00018	6
36034	0.0002	0	6e-05	0.00043	0.00053	0.00068	0.00025	0.00018	6
36035	0.0002	0	6e-05	0.00043	0.00053	0.00068	0.00025	0.00018	6
36036	0.0002	0	6e-05	0.00043	0.00053	0.00068	0.00025	0.00018	6
36038	0.0002	0	6e-05	0.00043	0.00053	0.00068	0.00025	0.00018	6
36039	0.0002	0	6e-05	0.00043	0.00053	0.00068	0.00025	0.00018	6
36040	0.0002	0	6e-05	0.00043	0.00053	0.00068	0.00025	0.00018	6
36041	0.0002	0	6e-05	0.00043	0.00053	0.00068	0.00025	0.00018	6
36042	0.0002	0	6e-05	0.00043	0.00053	0.00068	0.00025	0.00018	6
36043	0.0002	0	6e-05	0.00043	0.00053	0.00068	0.00025	0.00018	6
36044	0.0002	0	6e-05	0.00043	0.00053	0.00068	0.00025	0.00018	6
36045	0.0002	0	6e-05	0.00043	0.00053	0.00068	0.00025	0.00018	6
36046	0.0002	0	6e-05	0.00043	0.00053	0.00068	0.00025	0.00018	6
36047	-2e-05	-7e-05	-0.0001	-0.00018	0.00011	-2e-05	-0.00011	9e-05	6
36048	6e-05	-1e-05	8e-05	2e-05	-0.00054	-0.00011	0.00013	-0.00031	6
36049	6e-05	-1e-05	8e-05	2e-05	-0.00054	-0.00011	0.00013	-0.00031	6
36050	6e-05	-1e-05	8e-05	2e-05	-0.00054	-0.00011	0.00013	-0.00031	6
36051	6e-05	-1e-05	8e-05	2e-05	-0.00054	-0.00011	0.00013	-0.00031	6
36052	6e-05	-1e-05	8e-05	2e-05	-0.00054	-0.00011	0.00013	-0.00031	6
36053	6e-05	-1e-05	8e-05	2e-05	-0.00054	-0.00011	0.00013	-0.00031	6
36054	6e-05	-1e-05	8e-05	2e-05	-0.00054	-0.00011	0.00013	-0.00031	6
36055	6e-05	-1e-05	8e-05	2e-05	-0.00054	-0.00011	0.00013	-0.00031	6
36056	6e-05	-1e-05	8e-05	2e-05	-0.00054	-0.00011	0.00013	-0.00031	6
36057	6e-05	-1e-05	8e-05	2e-05	-0.00054	-0.00011	0.00013	-0.00031	6
36058	6e-05	-1e-05	8e-05	2e-05	-0.00054	-0.00011	0.00013	-0.00031	6
36059	6e-05	-1e-05	8e-05	2e-05	-0.00054	-0.00011	0.00013	-0.00031	6
36060	-0.00024	-9e-05	-0.00012	8e-05	-2e-05	0.00018	-5e-05	-0.00075	6
36061	-0.00024	-9e-05	-0.00012	8e-05	-2e-05	0.00018	-5e-05	-0.00075	6
36062	-0.00024	-9e-05	-0.00012	8e-05	-2e-05	0.00018	-5e-05	-0.00075	6
36063	-0.00024	-9e-05	-0.00012	8e-05	-2e-05	0.00018	-5e-05	-0.00075	6
36064	-0.00024	-9e-05	-0.00012	8e-05	-2e-05	0.00018	-5e-05	-0.00075	6
36065	-0.00024	-9e-05	-0.00012	8e-05	-2e-05	0.00018	-5e-05	-0.00075	6
36066	-0.00024	-9e-05	-0.00012	8e-05	-2e-05	0.00018	-5e-05	-0.00075	6
36067	5e-05	0	-5e-05	-0.0001	0.00011	-0.00025	-0.00027	0.00019	6
36068	5e-05	0	-5e-05	-0.0001	0.00011	-0.00025	-0.00027	0.00019	6
36069	5e-05	0	-5e-05	-0.0001	0.00011	-0.00025	-0.00027	0.00019	6
36070	5e-05	0	-5e-05	-0.0001	0.00011	-0.00025	-0.00027	0.00019	6
36071	5e-05	0	-5e-05	-0.0001	0.00011	-0.00025	-0.00027	0.00019	6
36072	5e-05	0	-5e-05	-0.0001	0.00011	-0.00025	-0.00027	0.00019	6
36073	5e-05	0	-5e-05	-0.0001	0.00011	-0.00025	-0.00027	0.00019	6
36074	5e-05	0	-5e-05	-0.0001	0.00011	-0.00025	-0.00027	0.00019	6
36075	5e-05	0	-5e-05	-0.0001	0.00011	-0.00025	-0.00027	0.00019	6
36076	5e-05	0	-5e-05	-0.0001	0.00011	-0.00025	-0.00027	0.00019	6
36077	5e-05	0	-5e-05	-0.0001	0.00011	-0.00025	-0.00027	0.00019	6
36078	5e-05	0	-5e-05	-0.0001	0.00011	-0.00025	-0.00027	0.00019	6
36079	5e-05	0	-5e-05	-0.0001	0.00011	-0.00025	-0.00027	0.00019	6
36080	5e-05	0	-5e-05	-0.0001	0.00011	-0.00025	-0.00027	0.00019	6
36081	5e-05	0	-5e-05	-0.0001	0.00011	-0.00025	-0.00027	0.00019	6
36082	5e-05	0	-5e-05	-0.0001	0.00011	-0.00025	-0.00027	0.00019	6
36083	0.00015	-4e-05	-6e-05	-9e-05	-0.00019	-0.00041	2e-05	9e-05	6
36084	-0.00077	4e-05	0.00019	-5e-05	-0.00066	-3e-05	-3e-05	-0.00077	6
36085	-0.00017	1e-05	-1e-05	-0.00028	0.00071	0.00077	9e-05	-0.00063	6
36086	-0.00017	1e-05	-1e-05	-0.00028	0.00071	0.00077	9e-05	-0.00063	6
36088	-0.00017	1e-05	-1e-05	-0.00028	0.00071	0.00077	9e-05	-0.00063	6
36089	-0.00017	1e-05	-1e-05	-0.00028	0.00071	0.00077	9e-05	-0.00063	6
36090	-0.00017	1e-05	-1e-05	-0.00028	0.00071	0.00077	9e-05	-0.00063	6
36091	-0.00017	1e-05	-1e-05	-0.00028	0.00071	0.00077	9e-05	-0.00063	6
36092	-0.00017	1e-05	-1e-05	-0.00028	0.00071	0.00077	9e-05	-0.00063	6
36093	-0.00017	1e-05	-1e-05	-0.00028	0.00071	0.00077	9e-05	-0.00063	6
36094	-0.00017	1e-05	-1e-05	-0.00028	0.00071	0.00077	9e-05	-0.00063	6
36095	-0.00017	1e-05	-1e-05	-0.00028	0.00071	0.00077	9e-05	-0.00063	6
36096	-0.00017	1e-05	-1e-05	-0.00028	0.00071	0.00077	9e-05	-0.00063	6
36097	-0.00017	1e-05	-1e-05	-0.00028	0.00071	0.00077	9e-05	-0.00063	6
36098	-0.00017	1e-05	-1e-05	-0.00028	0.00071	0.00077	9e-05	-0.00063	6
36099	-0.00017	1e-05	-1e-05	-0.00028	0.00071	0.00077	9e-05	-0.00063	6
36100	-0.00017	1e-05	-1e-05	-0.00028	0.00071	0.00077	9e-05	-0.00063	6
36101	-0.00017	1e-05	-1e-05	-0.00028	0.00071	0.00077	9e-05	-0.00063	6
36102	-0.00017	1e-05	-1e-05	-0.00028	0.00071	0.00077	9e-05	-0.00063	6
36103	-0.00017	1e-05	-1e-05	-0.00028	0.00071	0.00077	9e-05	-0.00063	6
36104	-0.00017	1e-05	-1e-05	-0.00028	0.00071	0.00077	9e-05	-0.00063	6
36105	-0.00017	1e-05	-1e-05	-0.00028	0.00071	0.00077	9e-05	-0.00063	6
36106	0.00042	1e-05	-4e-05	-0.00011	-0.00058	-0.00021	-0.00013	0.00046	6
36107	-0.00019	-1e-05	-5e-05	-0.00026	-3e-05	-5e-05	0.00043	-0.0001	6
36108	-0.00019	-1e-05	-5e-05	-0.00026	-3e-05	-5e-05	0.00043	-0.0001	6
36109	-0.00019	-1e-05	-5e-05	-0.00026	-3e-05	-5e-05	0.00043	-0.0001	6
36110	-0.00019	-1e-05	-5e-05	-0.00026	-3e-05	-5e-05	0.00043	-0.0001	6
36111	-0.00019	-1e-05	-5e-05	-0.00026	-3e-05	-5e-05	0.00043	-0.0001	6
36112	-0.00019	-1e-05	-5e-05	-0.00026	-3e-05	-5e-05	0.00043	-0.0001	6
36113	-0.00019	-1e-05	-5e-05	-0.00026	-3e-05	-5e-05	0.00043	-0.0001	6
36114	-0.00019	-1e-05	-5e-05	-0.00026	-3e-05	-5e-05	0.00043	-0.0001	6
36115	-0.00019	-1e-05	-5e-05	-0.00026	-3e-05	-5e-05	0.00043	-0.0001	6
36116	-0.00019	-1e-05	-5e-05	-0.00026	-3e-05	-5e-05	0.00043	-0.0001	6
36117	-0.00019	-1e-05	-5e-05	-0.00026	-3e-05	-5e-05	0.00043	-0.0001	6
36118	-0.00019	-1e-05	-5e-05	-0.00026	-3e-05	-5e-05	0.00043	-0.0001	6
36119	-0.00019	-1e-05	-5e-05	-0.00026	-3e-05	-5e-05	0.00043	-0.0001	6
36120	0.00027	0.00014	0.00033	0.00076	0.00076	0.00096	0.00038	0.00042	6
36121	0.00027	0.00014	0.00033	0.00076	0.00076	0.00096	0.00038	0.00042	6
36122	0.00027	0.00014	0.00033	0.00076	0.00076	0.00096	0.00038	0.00042	6
36123	0.00027	0.00014	0.00033	0.00076	0.00076	0.00096	0.00038	0.00042	6
36124	0.00027	0.00014	0.00033	0.00076	0.00076	0.00096	0.00038	0.00042	6
36125	0.00027	0.00014	0.00033	0.00076	0.00076	0.00096	0.00038	0.00042	6
36126	0.00027	0.00014	0.00033	0.00076	0.00076	0.00096	0.00038	0.00042	6
36127	-0.00065	-9e-05	-0.00014	-0.00011	0.00024	0.00021	-0.00017	-0.00055	6
36128	-0.00065	-9e-05	-0.00014	-0.00011	0.00024	0.00021	-0.00017	-0.00055	6
36129	-0.00065	-9e-05	-0.00014	-0.00011	0.00024	0.00021	-0.00017	-0.00055	6
36130	-0.00065	-9e-05	-0.00014	-0.00011	0.00024	0.00021	-0.00017	-0.00055	6
36131	-0.00065	-9e-05	-0.00014	-0.00011	0.00024	0.00021	-0.00017	-0.00055	6
36132	-0.00065	-9e-05	-0.00014	-0.00011	0.00024	0.00021	-0.00017	-0.00055	6
36133	-0.00065	-9e-05	-0.00014	-0.00011	0.00024	0.00021	-0.00017	-0.00055	6
36134	-0.00065	-9e-05	-0.00014	-0.00011	0.00024	0.00021	-0.00017	-0.00055	6
36135	-0.00065	-9e-05	-0.00014	-0.00011	0.00024	0.00021	-0.00017	-0.00055	6
36136	-0.00065	-9e-05	-0.00014	-0.00011	0.00024	0.00021	-0.00017	-0.00055	6
36138	-0.00065	-9e-05	-0.00014	-0.00011	0.00024	0.00021	-0.00017	-0.00055	6
36139	-0.00065	-9e-05	-0.00014	-0.00011	0.00024	0.00021	-0.00017	-0.00055	6
36140	-0.00065	-9e-05	-0.00014	-0.00011	0.00024	0.00021	-0.00017	-0.00055	6
36141	-0.00065	-9e-05	-0.00014	-0.00011	0.00024	0.00021	-0.00017	-0.00055	6
36142	-0.00065	-9e-05	-0.00014	-0.00011	0.00024	0.00021	-0.00017	-0.00055	6
36143	-0.00065	-9e-05	-0.00014	-0.00011	0.00024	0.00021	-0.00017	-0.00055	6
36144	0.00015	-0.00011	-0.0002	-0.00012	8e-05	0.00013	-0.00037	-4e-05	6
36145	4e-05	-2e-05	7e-05	0.00068	-0.00027	1e-05	0.0002	0.00022	6
36146	4e-05	-2e-05	7e-05	0.00068	-0.00027	1e-05	0.0002	0.00022	6
36147	4e-05	-2e-05	7e-05	0.00068	-0.00027	1e-05	0.0002	0.00022	6
36148	4e-05	-2e-05	7e-05	0.00068	-0.00027	1e-05	0.0002	0.00022	6
36149	4e-05	-2e-05	7e-05	0.00068	-0.00027	1e-05	0.0002	0.00022	6
36150	4e-05	-2e-05	7e-05	0.00068	-0.00027	1e-05	0.0002	0.00022	6
36151	4e-05	-2e-05	7e-05	0.00068	-0.00027	1e-05	0.0002	0.00022	6
36152	4e-05	-2e-05	7e-05	0.00068	-0.00027	1e-05	0.0002	0.00022	6
36153	4e-05	-2e-05	7e-05	0.00068	-0.00027	1e-05	0.0002	0.00022	6
36154	4e-05	-2e-05	7e-05	0.00068	-0.00027	1e-05	0.0002	0.00022	6
36155	4e-05	-2e-05	7e-05	0.00068	-0.00027	1e-05	0.0002	0.00022	6
36156	4e-05	-2e-05	7e-05	0.00068	-0.00027	1e-05	0.0002	0.00022	6
36157	4e-05	-2e-05	7e-05	0.00068	-0.00027	1e-05	0.0002	0.00022	6
36158	4e-05	-2e-05	7e-05	0.00068	-0.00027	1e-05	0.0002	0.00022	6
36159	4e-05	-2e-05	7e-05	0.00068	-0.00027	1e-05	0.0002	0.00022	6
36160	4e-05	-2e-05	7e-05	0.00068	-0.00027	1e-05	0.0002	0.00022	6
36161	4e-05	-2e-05	7e-05	0.00068	-0.00027	1e-05	0.0002	0.00022	6
36162	4e-05	-2e-05	7e-05	0.00068	-0.00027	1e-05	0.0002	0.00022	6
36163	4e-05	-2e-05	7e-05	0.00068	-0.00027	1e-05	0.0002	0.00022	6
36164	4e-05	-2e-05	7e-05	0.00068	-0.00027	1e-05	0.0002	0.00022	6
36165	4e-05	-2e-05	7e-05	0.00068	-0.00027	1e-05	0.0002	0.00022	6
36166	-7e-05	-3e-05	-0.00016	-0.00059	-0.00027	-0.00017	3e-05	-5e-05	6
36167	-7e-05	-3e-05	-0.00016	-0.00059	-0.00027	-0.00017	3e-05	-5e-05	6
36168	0.00018	4e-05	0.0001	7e-05	-0.00061	-0.00038	0.00013	0.00014	6
36169	0.00018	4e-05	0.0001	7e-05	-0.00061	-0.00038	0.00013	0.00014	6
36170	0.00018	4e-05	0.0001	7e-05	-0.00061	-0.00038	0.00013	0.00014	6
36171	0.00018	4e-05	0.0001	7e-05	-0.00061	-0.00038	0.00013	0.00014	6
36172	0.00018	4e-05	0.0001	7e-05	-0.00061	-0.00038	0.00013	0.00014	6
36173	0.00018	4e-05	0.0001	7e-05	-0.00061	-0.00038	0.00013	0.00014	6
36174	0.00018	4e-05	0.0001	7e-05	-0.00061	-0.00038	0.00013	0.00014	6
36175	0.00018	4e-05	0.0001	7e-05	-0.00061	-0.00038	0.00013	0.00014	6
36176	0.00018	4e-05	0.0001	7e-05	-0.00061	-0.00038	0.00013	0.00014	6
36177	0.00018	4e-05	0.0001	7e-05	-0.00061	-0.00038	0.00013	0.00014	6
36178	0.00018	4e-05	0.0001	7e-05	-0.00061	-0.00038	0.00013	0.00014	6
36179	0.00018	4e-05	0.0001	7e-05	-0.00061	-0.00038	0.00013	0.00014	6
36180	0.00018	4e-05	0.0001	7e-05	-0.00061	-0.00038	0.00013	0.00014	6
36181	7e-05	-2e-05	-7e-05	0.00025	-0.00035	-0.0007	-6e-05	-0.00023	6
36182	7e-05	-2e-05	-7e-05	0.00025	-0.00035	-0.0007	-6e-05	-0.00023	6
36183	7e-05	-2e-05	-7e-05	0.00025	-0.00035	-0.0007	-6e-05	-0.00023	6
36184	7e-05	-2e-05	-7e-05	0.00025	-0.00035	-0.0007	-6e-05	-0.00023	6
36185	7e-05	-2e-05	-7e-05	0.00025	-0.00035	-0.0007	-6e-05	-0.00023	6
36186	7e-05	-2e-05	-7e-05	0.00025	-0.00035	-0.0007	-6e-05	-0.00023	6
36188	0.00026	1e-05	-6e-05	-1e-05	0.00072	0.00047	-0.00021	-1e-05	6
36189	0.00026	1e-05	-6e-05	-1e-05	0.00072	0.00047	-0.00021	-1e-05	6
36190	0.00026	1e-05	-6e-05	-1e-05	0.00072	0.00047	-0.00021	-1e-05	6
36191	0.00026	1e-05	-6e-05	-1e-05	0.00072	0.00047	-0.00021	-1e-05	6
36192	0.00026	1e-05	-6e-05	-1e-05	0.00072	0.00047	-0.00021	-1e-05	6
36193	0.00026	1e-05	-6e-05	-1e-05	0.00072	0.00047	-0.00021	-1e-05	6
36194	0.00026	1e-05	-6e-05	-1e-05	0.00072	0.00047	-0.00021	-1e-05	6
36195	0.00026	1e-05	-6e-05	-1e-05	0.00072	0.00047	-0.00021	-1e-05	6
36196	0.00026	1e-05	-6e-05	-1e-05	0.00072	0.00047	-0.00021	-1e-05	6
36197	0.00026	1e-05	-6e-05	-1e-05	0.00072	0.00047	-0.00021	-1e-05	6
36198	0.00026	1e-05	-6e-05	-1e-05	0.00072	0.00047	-0.00021	-1e-05	6
36199	0.00026	1e-05	-6e-05	-1e-05	0.00072	0.00047	-0.00021	-1e-05	6
36200	0.00026	1e-05	-6e-05	-1e-05	0.00072	0.00047	-0.00021	-1e-05	6
36201	0.00026	1e-05	-6e-05	-1e-05	0.00072	0.00047	-0.00021	-1e-05	6
36202	0.00026	1e-05	-6e-05	-1e-05	0.00072	0.00047	-0.00021	-1e-05	6
36203	0.00026	1e-05	-6e-05	-1e-05	0.00072	0.00047	-0.00021	-1e-05	6
36204	7e-05	-3e-05	-1e-05	-0.00017	0.00028	0.00013	-6e-05	0.00013	6
36205	-4e-05	-0.0001	-0.00015	0.00033	0.00023	-0.00045	-0.00032	3e-05	6
36206	-4e-05	-0.0001	-0.00015	0.00033	0.00023	-0.00045	-0.00032	3e-05	6
36207	-4e-05	-0.0001	-0.00015	0.00033	0.00023	-0.00045	-0.00032	3e-05	6
36208	-4e-05	-0.0001	-0.00015	0.00033	0.00023	-0.00045	-0.00032	3e-05	6
36209	-4e-05	-0.0001	-0.00015	0.00033	0.00023	-0.00045	-0.00032	3e-05	6
36210	-4e-05	-0.0001	-0.00015	0.00033	0.00023	-0.00045	-0.00032	3e-05	6
36211	-4e-05	-0.0001	-0.00015	0.00033	0.00023	-0.00045	-0.00032	3e-05	6
36212	-4e-05	-0.0001	-0.00015	0.00033	0.00023	-0.00045	-0.00032	3e-05	6
36213	-4e-05	-0.0001	-0.00015	0.00033	0.00023	-0.00045	-0.00032	3e-05	6
36214	-4e-05	-0.0001	-0.00015	0.00033	0.00023	-0.00045	-0.00032	3e-05	6
36215	-4e-05	-0.0001	-0.00015	0.00033	0.00023	-0.00045	-0.00032	3e-05	6
36216	-4e-05	-0.0001	-0.00015	0.00033	0.00023	-0.00045	-0.00032	3e-05	6
36217	-4e-05	-0.0001	-0.00015	0.00033	0.00023	-0.00045	-0.00032	3e-05	6
36218	-4e-05	-0.0001	-0.00015	0.00033	0.00023	-0.00045	-0.00032	3e-05	6
36219	-4e-05	-0.0001	-0.00015	0.00033	0.00023	-0.00045	-0.00032	3e-05	6
36220	-4e-05	-0.0001	-0.00015	0.00033	0.00023	-0.00045	-0.00032	3e-05	6
36221	-4e-05	-0.0001	-0.00015	0.00033	0.00023	-0.00045	-0.00032	3e-05	6
36222	-4e-05	-0.0001	-0.00015	0.00033	0.00023	-0.00045	-0.00032	3e-05	6
36223	-4e-05	-0.0001	-0.00015	0.00033	0.00023	-0.00045	-0.00032	3e-05	6
36224	-4e-05	-0.0001	-0.00015	0.00033	0.00023	-0.00045	-0.00032	3e-05	6
36225	-4e-05	-0.0001	-0.00015	0.00033	0.00023	-0.00045	-0.00032	3e-05	6
36226	-3e-05	-1e-05	-5e-05	-0.00024	0	-0.00035	1e-05	0.00052	6
36227	-3e-05	-1e-05	-5e-05	-0.00024	0	-0.00035	1e-05	0.00052	6
36228	0.00025	9e-05	8e-05	-0.00029	-0.00039	-0.0001	-0.00017	0.00021	6
36229	0.00025	9e-05	8e-05	-0.00029	-0.00039	-0.0001	-0.00017	0.00021	6
36230	0.00025	9e-05	8e-05	-0.00029	-0.00039	-0.0001	-0.00017	0.00021	6
36231	0.00025	9e-05	8e-05	-0.00029	-0.00039	-0.0001	-0.00017	0.00021	6
36232	0.00025	9e-05	8e-05	-0.00029	-0.00039	-0.0001	-0.00017	0.00021	6
36233	0.00025	9e-05	8e-05	-0.00029	-0.00039	-0.0001	-0.00017	0.00021	6
36234	0.00025	9e-05	8e-05	-0.00029	-0.00039	-0.0001	-0.00017	0.00021	6
36235	0.00025	9e-05	8e-05	-0.00029	-0.00039	-0.0001	-0.00017	0.00021	6
36236	0.00025	9e-05	8e-05	-0.00029	-0.00039	-0.0001	-0.00017	0.00021	6
36238	0.00025	9e-05	8e-05	-0.00029	-0.00039	-0.0001	-0.00017	0.00021	6
36239	0.00025	9e-05	8e-05	-0.00029	-0.00039	-0.0001	-0.00017	0.00021	6
36240	4e-05	-2e-05	1e-05	0.00053	0.00065	7e-05	0	-6e-05	6
36241	-0.00043	-2e-05	2e-05	-0.00027	-0.00106	-0.00028	-0.00026	-0.00093	6
36242	-0.00043	-2e-05	2e-05	-0.00027	-0.00106	-0.00028	-0.00026	-0.00093	6
36243	-0.00043	-2e-05	2e-05	-0.00027	-0.00106	-0.00028	-0.00026	-0.00093	6
36244	-0.00043	-2e-05	2e-05	-0.00027	-0.00106	-0.00028	-0.00026	-0.00093	6
36245	-0.00043	-2e-05	2e-05	-0.00027	-0.00106	-0.00028	-0.00026	-0.00093	6
36246	-0.00043	-2e-05	2e-05	-0.00027	-0.00106	-0.00028	-0.00026	-0.00093	6
36247	0.00013	4e-05	-1e-05	-0.00018	-0.00027	5e-05	-0.00025	0.0001	6
36248	0.00013	4e-05	-1e-05	-0.00018	-0.00027	5e-05	-0.00025	0.0001	6
36249	0.00013	4e-05	-1e-05	-0.00018	-0.00027	5e-05	-0.00025	0.0001	6
36250	0.00013	4e-05	-1e-05	-0.00018	-0.00027	5e-05	-0.00025	0.0001	6
36251	0.00013	4e-05	-1e-05	-0.00018	-0.00027	5e-05	-0.00025	0.0001	6
36252	0.00013	4e-05	-1e-05	-0.00018	-0.00027	5e-05	-0.00025	0.0001	6
36253	0.00013	4e-05	-1e-05	-0.00018	-0.00027	5e-05	-0.00025	0.0001	6
36254	0.00013	4e-05	-1e-05	-0.00018	-0.00027	5e-05	-0.00025	0.0001	6
36255	0.00013	4e-05	-1e-05	-0.00018	-0.00027	5e-05	-0.00025	0.0001	6
36256	0.00013	4e-05	-1e-05	-0.00018	-0.00027	5e-05	-0.00025	0.0001	6
36257	0.00013	4e-05	-1e-05	-0.00018	-0.00027	5e-05	-0.00025	0.0001	6
36258	0.00013	4e-05	-1e-05	-0.00018	-0.00027	5e-05	-0.00025	0.0001	6
36259	0.00013	4e-05	-1e-05	-0.00018	-0.00027	5e-05	-0.00025	0.0001	6
36260	0.00013	4e-05	-1e-05	-0.00018	-0.00027	5e-05	-0.00025	0.0001	6
36261	0.00013	4e-05	-1e-05	-0.00018	-0.00027	5e-05	-0.00025	0.0001	6
36262	0.00013	4e-05	-1e-05	-0.00018	-0.00027	5e-05	-0.00025	0.0001	6
36263	0.00013	4e-05	-1e-05	-0.00018	-0.00027	5e-05	-0.00025	0.0001	6
36264	0.00012	4e-05	0	-0.00013	2e-05	7e-05	7e-05	0.00017	6
36265	-0.00018	8e-05	0.00018	0.00074	0.00127	0.00078	-3e-05	-0.00032	6
36266	-0.00018	8e-05	0.00018	0.00074	0.00127	0.00078	-3e-05	-0.00032	6
36267	-0.00018	8e-05	0.00018	0.00074	0.00127	0.00078	-3e-05	-0.00032	6
36268	-0.00018	8e-05	0.00018	0.00074	0.00127	0.00078	-3e-05	-0.00032	6
36269	-0.00018	8e-05	0.00018	0.00074	0.00127	0.00078	-3e-05	-0.00032	6
36270	-0.00018	8e-05	0.00018	0.00074	0.00127	0.00078	-3e-05	-0.00032	6
36271	-0.00018	8e-05	0.00018	0.00074	0.00127	0.00078	-3e-05	-0.00032	6
36272	-0.00018	8e-05	0.00018	0.00074	0.00127	0.00078	-3e-05	-0.00032	6
36273	-0.00018	8e-05	0.00018	0.00074	0.00127	0.00078	-3e-05	-0.00032	6
36274	-0.00018	8e-05	0.00018	0.00074	0.00127	0.00078	-3e-05	-0.00032	6
36275	-0.00018	8e-05	0.00018	0.00074	0.00127	0.00078	-3e-05	-0.00032	6
36276	-0.00018	8e-05	0.00018	0.00074	0.00127	0.00078	-3e-05	-0.00032	6
36277	-0.00018	8e-05	0.00018	0.00074	0.00127	0.00078	-3e-05	-0.00032	6
36278	-0.00018	8e-05	0.00018	0.00074	0.00127	0.00078	-3e-05	-0.00032	6
36279	-0.00018	8e-05	0.00018	0.00074	0.00127	0.00078	-3e-05	-0.00032	6
36280	-0.00018	8e-05	0.00018	0.00074	0.00127	0.00078	-3e-05	-0.00032	6
36281	-0.00018	8e-05	0.00018	0.00074	0.00127	0.00078	-3e-05	-0.00032	6
36282	-0.00018	8e-05	0.00018	0.00074	0.00127	0.00078	-3e-05	-0.00032	6
36283	-0.00018	8e-05	0.00018	0.00074	0.00127	0.00078	-3e-05	-0.00032	6
36284	-0.00018	8e-05	0.00018	0.00074	0.00127	0.00078	-3e-05	-0.00032	6
36285	-0.00018	8e-05	0.00018	0.00074	0.00127	0.00078	-3e-05	-0.00032	6
36286	-4e-05	-5e-05	-1e-05	0.00025	8e-05	-0.00017	0.00012	0.00019	6
36288	-3e-05	4e-05	0	-1e-05	-0.00037	-9e-05	0.00046	0.00038	6
36289	-3e-05	4e-05	0	-1e-05	-0.00037	-9e-05	0.00046	0.00038	6
36290	-3e-05	4e-05	0	-1e-05	-0.00037	-9e-05	0.00046	0.00038	6
36291	-3e-05	4e-05	0	-1e-05	-0.00037	-9e-05	0.00046	0.00038	6
36292	-3e-05	4e-05	0	-1e-05	-0.00037	-9e-05	0.00046	0.00038	6
36293	-3e-05	4e-05	0	-1e-05	-0.00037	-9e-05	0.00046	0.00038	6
36294	-3e-05	4e-05	0	-1e-05	-0.00037	-9e-05	0.00046	0.00038	6
36295	-3e-05	4e-05	0	-1e-05	-0.00037	-9e-05	0.00046	0.00038	6
36296	-3e-05	4e-05	0	-1e-05	-0.00037	-9e-05	0.00046	0.00038	6
36297	-3e-05	4e-05	0	-1e-05	-0.00037	-9e-05	0.00046	0.00038	6
36298	-3e-05	4e-05	0	-1e-05	-0.00037	-9e-05	0.00046	0.00038	6
36299	-3e-05	4e-05	0	-1e-05	-0.00037	-9e-05	0.00046	0.00038	6
36300	-5e-05	1e-05	1e-05	1e-05	0.00073	-0.00035	-0.00015	-0.00014	6
36301	-5e-05	1e-05	1e-05	1e-05	0.00073	-0.00035	-0.00015	-0.00014	6
36302	-5e-05	1e-05	1e-05	1e-05	0.00073	-0.00035	-0.00015	-0.00014	6
36303	-5e-05	1e-05	1e-05	1e-05	0.00073	-0.00035	-0.00015	-0.00014	6
36304	-5e-05	1e-05	1e-05	1e-05	0.00073	-0.00035	-0.00015	-0.00014	6
36305	-5e-05	1e-05	1e-05	1e-05	0.00073	-0.00035	-0.00015	-0.00014	6
36306	-5e-05	1e-05	1e-05	1e-05	0.00073	-0.00035	-0.00015	-0.00014	6
36307	2e-05	-4e-05	-0.00012	-0.00047	-0.00022	-0.00028	1e-05	9e-05	6
36308	2e-05	-4e-05	-0.00012	-0.00047	-0.00022	-0.00028	1e-05	9e-05	6
36309	2e-05	-4e-05	-0.00012	-0.00047	-0.00022	-0.00028	1e-05	9e-05	6
36310	2e-05	-4e-05	-0.00012	-0.00047	-0.00022	-0.00028	1e-05	9e-05	6
36311	2e-05	-4e-05	-0.00012	-0.00047	-0.00022	-0.00028	1e-05	9e-05	6
36312	2e-05	-4e-05	-0.00012	-0.00047	-0.00022	-0.00028	1e-05	9e-05	6
36313	2e-05	-4e-05	-0.00012	-0.00047	-0.00022	-0.00028	1e-05	9e-05	6
36314	2e-05	-4e-05	-0.00012	-0.00047	-0.00022	-0.00028	1e-05	9e-05	6
36315	2e-05	-4e-05	-0.00012	-0.00047	-0.00022	-0.00028	1e-05	9e-05	6
36316	2e-05	-4e-05	-0.00012	-0.00047	-0.00022	-0.00028	1e-05	9e-05	6
36317	2e-05	-4e-05	-0.00012	-0.00047	-0.00022	-0.00028	1e-05	9e-05	6
36318	2e-05	-4e-05	-0.00012	-0.00047	-0.00022	-0.00028	1e-05	9e-05	6
36319	2e-05	-4e-05	-0.00012	-0.00047	-0.00022	-0.00028	1e-05	9e-05	6
36320	2e-05	-4e-05	-0.00012	-0.00047	-0.00022	-0.00028	1e-05	9e-05	6
36321	2e-05	-4e-05	-0.00012	-0.00047	-0.00022	-0.00028	1e-05	9e-05	6
36322	2e-05	-4e-05	-0.00012	-0.00047	-0.00022	-0.00028	1e-05	9e-05	6
36323	2e-05	-4e-05	-0.00012	-0.00047	-0.00022	-0.00028	1e-05	9e-05	6
36324	6e-05	-6e-05	2e-05	0.00059	-0.00014	-0.00064	0.00014	-0.0002	6
36325	9e-05	-0.00011	-0.00015	0.00027	0.00074	-0.00024	-0.00014	0.00011	6
36326	9e-05	-0.00011	-0.00015	0.00027	0.00074	-0.00024	-0.00014	0.00011	6
36327	9e-05	-0.00011	-0.00015	0.00027	0.00074	-0.00024	-0.00014	0.00011	6
36328	9e-05	-0.00011	-0.00015	0.00027	0.00074	-0.00024	-0.00014	0.00011	6
36329	9e-05	-0.00011	-0.00015	0.00027	0.00074	-0.00024	-0.00014	0.00011	6
36330	9e-05	-0.00011	-0.00015	0.00027	0.00074	-0.00024	-0.00014	0.00011	6
36331	9e-05	-0.00011	-0.00015	0.00027	0.00074	-0.00024	-0.00014	0.00011	6
36332	9e-05	-0.00011	-0.00015	0.00027	0.00074	-0.00024	-0.00014	0.00011	6
36333	9e-05	-0.00011	-0.00015	0.00027	0.00074	-0.00024	-0.00014	0.00011	6
36334	9e-05	-0.00011	-0.00015	0.00027	0.00074	-0.00024	-0.00014	0.00011	6
36335	9e-05	-0.00011	-0.00015	0.00027	0.00074	-0.00024	-0.00014	0.00011	6
36336	9e-05	-0.00011	-0.00015	0.00027	0.00074	-0.00024	-0.00014	0.00011	6
36338	9e-05	-0.00011	-0.00015	0.00027	0.00074	-0.00024	-0.00014	0.00011	6
36339	9e-05	-0.00011	-0.00015	0.00027	0.00074	-0.00024	-0.00014	0.00011	6
36340	9e-05	-0.00011	-0.00015	0.00027	0.00074	-0.00024	-0.00014	0.00011	6
36341	9e-05	-0.00011	-0.00015	0.00027	0.00074	-0.00024	-0.00014	0.00011	6
36342	9e-05	-0.00011	-0.00015	0.00027	0.00074	-0.00024	-0.00014	0.00011	6
36343	9e-05	-0.00011	-0.00015	0.00027	0.00074	-0.00024	-0.00014	0.00011	6
36344	9e-05	-0.00011	-0.00015	0.00027	0.00074	-0.00024	-0.00014	0.00011	6
36345	9e-05	-0.00011	-0.00015	0.00027	0.00074	-0.00024	-0.00014	0.00011	6
36346	0.00012	-1e-05	0.00012	0.0001	-8e-05	5e-05	0.0001	0.00066	6
36347	0.00012	-1e-05	0.00012	0.0001	-8e-05	5e-05	0.0001	0.00066	6
36348	-0.00012	-2e-05	5e-05	0.00016	0.00028	0.00023	-1e-05	2e-05	6
36349	-0.00012	-2e-05	5e-05	0.00016	0.00028	0.00023	-1e-05	2e-05	6
36350	-0.00012	-2e-05	5e-05	0.00016	0.00028	0.00023	-1e-05	2e-05	6
36351	-0.00012	-2e-05	5e-05	0.00016	0.00028	0.00023	-1e-05	2e-05	6
36352	-0.00012	-2e-05	5e-05	0.00016	0.00028	0.00023	-1e-05	2e-05	6
36353	-0.00012	-2e-05	5e-05	0.00016	0.00028	0.00023	-1e-05	2e-05	6
36354	-0.00012	-2e-05	5e-05	0.00016	0.00028	0.00023	-1e-05	2e-05	6
36355	-0.00012	-2e-05	5e-05	0.00016	0.00028	0.00023	-1e-05	2e-05	6
36356	-0.00012	-2e-05	5e-05	0.00016	0.00028	0.00023	-1e-05	2e-05	6
36357	-0.00012	-2e-05	5e-05	0.00016	0.00028	0.00023	-1e-05	2e-05	6
36358	-0.00012	-2e-05	5e-05	0.00016	0.00028	0.00023	-1e-05	2e-05	6
36359	-0.00012	-2e-05	5e-05	0.00016	0.00028	0.00023	-1e-05	2e-05	6
36360	-0.00017	0	-3e-05	-7e-05	0.00076	0.00039	-0.00011	-0.00012	6
36361	-0.00017	0	-3e-05	-7e-05	0.00076	0.00039	-0.00011	-0.00012	6
36362	-0.00017	0	-3e-05	-7e-05	0.00076	0.00039	-0.00011	-0.00012	6
36363	-0.00017	0	-3e-05	-7e-05	0.00076	0.00039	-0.00011	-0.00012	6
36364	-0.00017	0	-3e-05	-7e-05	0.00076	0.00039	-0.00011	-0.00012	6
36365	-0.00017	0	-3e-05	-7e-05	0.00076	0.00039	-0.00011	-0.00012	6
36366	-0.00017	0	-3e-05	-7e-05	0.00076	0.00039	-0.00011	-0.00012	6
36367	-0.00017	0	-3e-05	-7e-05	0.00076	0.00039	-0.00011	-0.00012	6
36368	-0.00017	0	-3e-05	-7e-05	0.00076	0.00039	-0.00011	-0.00012	6
36369	-6e-05	2e-05	5e-05	0.0001	-3e-05	-0.00021	9e-05	-0.00011	6
36370	-6e-05	2e-05	5e-05	0.0001	-3e-05	-0.00021	9e-05	-0.00011	6
36371	-6e-05	2e-05	5e-05	0.0001	-3e-05	-0.00021	9e-05	-0.00011	6
36372	-6e-05	2e-05	5e-05	0.0001	-3e-05	-0.00021	9e-05	-0.00011	6
36373	-6e-05	2e-05	5e-05	0.0001	-3e-05	-0.00021	9e-05	-0.00011	6
36374	-6e-05	2e-05	5e-05	0.0001	-3e-05	-0.00021	9e-05	-0.00011	6
36375	-6e-05	2e-05	5e-05	0.0001	-3e-05	-0.00021	9e-05	-0.00011	6
36376	-6e-05	2e-05	5e-05	0.0001	-3e-05	-0.00021	9e-05	-0.00011	6
36377	-6e-05	2e-05	5e-05	0.0001	-3e-05	-0.00021	9e-05	-0.00011	6
36378	-6e-05	2e-05	5e-05	0.0001	-3e-05	-0.00021	9e-05	-0.00011	6
36379	-6e-05	2e-05	5e-05	0.0001	-3e-05	-0.00021	9e-05	-0.00011	6
36380	-6e-05	2e-05	5e-05	0.0001	-3e-05	-0.00021	9e-05	-0.00011	6
36381	-6e-05	2e-05	5e-05	0.0001	-3e-05	-0.00021	9e-05	-0.00011	6
36382	-6e-05	2e-05	5e-05	0.0001	-3e-05	-0.00021	9e-05	-0.00011	6
36383	-6e-05	2e-05	5e-05	0.0001	-3e-05	-0.00021	9e-05	-0.00011	6
36384	0.0001	-1e-05	-7e-05	-0.00055	-0.00116	-5e-05	-5e-05	2e-05	6
36385	-3e-05	1e-05	6e-05	0.0002	0.00052	0.00022	0.00012	-0.00011	6
36386	-0.00026	-4e-05	3e-05	9e-05	0.00043	0.0001	0.00043	-0.00016	6
36389	-0.00026	-4e-05	3e-05	9e-05	0.00043	0.0001	0.00043	-0.00016	6
36390	-0.00026	-4e-05	3e-05	9e-05	0.00043	0.0001	0.00043	-0.00016	6
36391	-0.00026	-4e-05	3e-05	9e-05	0.00043	0.0001	0.00043	-0.00016	6
36392	-0.00026	-4e-05	3e-05	9e-05	0.00043	0.0001	0.00043	-0.00016	6
36393	-0.00026	-4e-05	3e-05	9e-05	0.00043	0.0001	0.00043	-0.00016	6
36394	-0.00026	-4e-05	3e-05	9e-05	0.00043	0.0001	0.00043	-0.00016	6
36395	-0.00026	-4e-05	3e-05	9e-05	0.00043	0.0001	0.00043	-0.00016	6
36396	-0.00026	-4e-05	3e-05	9e-05	0.00043	0.0001	0.00043	-0.00016	6
36397	-0.00026	-4e-05	3e-05	9e-05	0.00043	0.0001	0.00043	-0.00016	6
36398	-0.00026	-4e-05	3e-05	9e-05	0.00043	0.0001	0.00043	-0.00016	6
36399	-0.00026	-4e-05	3e-05	9e-05	0.00043	0.0001	0.00043	-0.00016	6
36400	-0.00026	-4e-05	3e-05	9e-05	0.00043	0.0001	0.00043	-0.00016	6
36401	-0.00026	-4e-05	3e-05	9e-05	0.00043	0.0001	0.00043	-0.00016	6
36402	-0.00026	-4e-05	3e-05	9e-05	0.00043	0.0001	0.00043	-0.00016	6
36403	-0.00026	-4e-05	3e-05	9e-05	0.00043	0.0001	0.00043	-0.00016	6
36404	-0.00026	-4e-05	3e-05	9e-05	0.00043	0.0001	0.00043	-0.00016	6
36405	-0.00026	-4e-05	3e-05	9e-05	0.00043	0.0001	0.00043	-0.00016	6
36406	7e-05	-1e-05	3e-05	9e-05	0.00061	0.0004	-0.00014	-9e-05	6
36407	7e-05	-1e-05	3e-05	9e-05	0.00061	0.0004	-0.00014	-9e-05	6
36408	0.00028	-3e-05	-1e-05	-0.0001	-0.00049	-0.00029	-0.00024	-3e-05	6
36409	0.00028	-3e-05	-1e-05	-0.0001	-0.00049	-0.00029	-0.00024	-3e-05	6
36410	0.00028	-3e-05	-1e-05	-0.0001	-0.00049	-0.00029	-0.00024	-3e-05	6
36411	0.00028	-3e-05	-1e-05	-0.0001	-0.00049	-0.00029	-0.00024	-3e-05	6
36412	0.00028	-3e-05	-1e-05	-0.0001	-0.00049	-0.00029	-0.00024	-3e-05	6
36413	0.00028	-3e-05	-1e-05	-0.0001	-0.00049	-0.00029	-0.00024	-3e-05	6
36414	0.00028	-3e-05	-1e-05	-0.0001	-0.00049	-0.00029	-0.00024	-3e-05	6
36415	0.00028	-3e-05	-1e-05	-0.0001	-0.00049	-0.00029	-0.00024	-3e-05	6
36416	0.00028	-3e-05	-1e-05	-0.0001	-0.00049	-0.00029	-0.00024	-3e-05	6
36417	0.00028	-3e-05	-1e-05	-0.0001	-0.00049	-0.00029	-0.00024	-3e-05	6
36418	0.00028	-3e-05	-1e-05	-0.0001	-0.00049	-0.00029	-0.00024	-3e-05	6
36419	0.00028	-3e-05	-1e-05	-0.0001	-0.00049	-0.00029	-0.00024	-3e-05	6
36420	-2e-05	5e-05	6e-05	9e-05	-0.00019	-0.00011	-0.00012	-0.00018	6
36421	-2e-05	5e-05	6e-05	9e-05	-0.00019	-0.00011	-0.00012	-0.00018	6
36422	-2e-05	5e-05	6e-05	9e-05	-0.00019	-0.00011	-0.00012	-0.00018	6
36423	-2e-05	5e-05	6e-05	9e-05	-0.00019	-0.00011	-0.00012	-0.00018	6
36424	-2e-05	5e-05	6e-05	9e-05	-0.00019	-0.00011	-0.00012	-0.00018	6
36425	-2e-05	5e-05	6e-05	9e-05	-0.00019	-0.00011	-0.00012	-0.00018	6
36426	-2e-05	5e-05	6e-05	9e-05	-0.00019	-0.00011	-0.00012	-0.00018	6
36427	-2e-05	5e-05	6e-05	9e-05	-0.00019	-0.00011	-0.00012	-0.00018	6
36428	-2e-05	5e-05	6e-05	9e-05	-0.00019	-0.00011	-0.00012	-0.00018	6
36429	-0.00042	-0.00011	-0.00012	-0.00051	-0.00027	0.00012	-0.0004	-0.00073	6
36430	-0.00042	-0.00011	-0.00012	-0.00051	-0.00027	0.00012	-0.0004	-0.00073	6
36431	-0.00042	-0.00011	-0.00012	-0.00051	-0.00027	0.00012	-0.0004	-0.00073	6
36432	-0.00042	-0.00011	-0.00012	-0.00051	-0.00027	0.00012	-0.0004	-0.00073	6
36433	-0.00042	-0.00011	-0.00012	-0.00051	-0.00027	0.00012	-0.0004	-0.00073	6
36434	-0.00042	-0.00011	-0.00012	-0.00051	-0.00027	0.00012	-0.0004	-0.00073	6
36435	-0.00042	-0.00011	-0.00012	-0.00051	-0.00027	0.00012	-0.0004	-0.00073	6
36436	-0.00042	-0.00011	-0.00012	-0.00051	-0.00027	0.00012	-0.0004	-0.00073	6
36438	-0.00042	-0.00011	-0.00012	-0.00051	-0.00027	0.00012	-0.0004	-0.00073	6
36439	-0.00042	-0.00011	-0.00012	-0.00051	-0.00027	0.00012	-0.0004	-0.00073	6
36440	-0.00042	-0.00011	-0.00012	-0.00051	-0.00027	0.00012	-0.0004	-0.00073	6
36441	-0.00042	-0.00011	-0.00012	-0.00051	-0.00027	0.00012	-0.0004	-0.00073	6
36442	-0.00042	-0.00011	-0.00012	-0.00051	-0.00027	0.00012	-0.0004	-0.00073	6
36443	-0.00042	-0.00011	-0.00012	-0.00051	-0.00027	0.00012	-0.0004	-0.00073	6
36444	-4e-05	-0.00011	-0.00016	0.00029	0.0006	0.00025	-0.00024	-0.00032	6
36445	-4e-05	-6e-05	-7e-05	-9e-05	-0.00069	0.00011	-2e-05	-6e-05	6
36446	-4e-05	-6e-05	-7e-05	-9e-05	-0.00069	0.00011	-2e-05	-6e-05	6
36447	-4e-05	-6e-05	-7e-05	-9e-05	-0.00069	0.00011	-2e-05	-6e-05	6
36448	-4e-05	-6e-05	-7e-05	-9e-05	-0.00069	0.00011	-2e-05	-6e-05	6
36449	-4e-05	-6e-05	-7e-05	-9e-05	-0.00069	0.00011	-2e-05	-6e-05	6
36450	-4e-05	-6e-05	-7e-05	-9e-05	-0.00069	0.00011	-2e-05	-6e-05	6
36451	-4e-05	-6e-05	-7e-05	-9e-05	-0.00069	0.00011	-2e-05	-6e-05	6
36452	-4e-05	-6e-05	-7e-05	-9e-05	-0.00069	0.00011	-2e-05	-6e-05	6
36453	-4e-05	-6e-05	-7e-05	-9e-05	-0.00069	0.00011	-2e-05	-6e-05	6
36454	-4e-05	-6e-05	-7e-05	-9e-05	-0.00069	0.00011	-2e-05	-6e-05	6
36455	-4e-05	-6e-05	-7e-05	-9e-05	-0.00069	0.00011	-2e-05	-6e-05	6
36456	-4e-05	-6e-05	-7e-05	-9e-05	-0.00069	0.00011	-2e-05	-6e-05	6
36457	-4e-05	-6e-05	-7e-05	-9e-05	-0.00069	0.00011	-2e-05	-6e-05	6
36458	-4e-05	-6e-05	-7e-05	-9e-05	-0.00069	0.00011	-2e-05	-6e-05	6
36459	-4e-05	-6e-05	-7e-05	-9e-05	-0.00069	0.00011	-2e-05	-6e-05	6
36460	-4e-05	-6e-05	-7e-05	-9e-05	-0.00069	0.00011	-2e-05	-6e-05	6
36461	-4e-05	-6e-05	-7e-05	-9e-05	-0.00069	0.00011	-2e-05	-6e-05	6
36462	-4e-05	-6e-05	-7e-05	-9e-05	-0.00069	0.00011	-2e-05	-6e-05	6
36463	-4e-05	-6e-05	-7e-05	-9e-05	-0.00069	0.00011	-2e-05	-6e-05	6
36464	-4e-05	-6e-05	-7e-05	-9e-05	-0.00069	0.00011	-2e-05	-6e-05	6
36465	-4e-05	-6e-05	-7e-05	-9e-05	-0.00069	0.00011	-2e-05	-6e-05	6
36466	-9e-05	2e-05	-2e-05	-0.00053	-0.00077	-0.00013	-0.00024	-9e-05	6
36467	-9e-05	2e-05	-2e-05	-0.00053	-0.00077	-0.00013	-0.00024	-9e-05	6
36468	-6e-05	-2e-05	-7e-05	-0.00024	-0.00086	-0.00042	-0.00019	0.00021	6
36469	-6e-05	-2e-05	-7e-05	-0.00024	-0.00086	-0.00042	-0.00019	0.00021	6
36470	-6e-05	-2e-05	-7e-05	-0.00024	-0.00086	-0.00042	-0.00019	0.00021	6
36471	-6e-05	-2e-05	-7e-05	-0.00024	-0.00086	-0.00042	-0.00019	0.00021	6
36472	-6e-05	-2e-05	-7e-05	-0.00024	-0.00086	-0.00042	-0.00019	0.00021	6
36473	-6e-05	-2e-05	-7e-05	-0.00024	-0.00086	-0.00042	-0.00019	0.00021	6
36474	-6e-05	-2e-05	-7e-05	-0.00024	-0.00086	-0.00042	-0.00019	0.00021	6
36475	-6e-05	-2e-05	-7e-05	-0.00024	-0.00086	-0.00042	-0.00019	0.00021	6
36476	-6e-05	-2e-05	-7e-05	-0.00024	-0.00086	-0.00042	-0.00019	0.00021	6
36477	-6e-05	-2e-05	-7e-05	-0.00024	-0.00086	-0.00042	-0.00019	0.00021	6
36478	-6e-05	-2e-05	-7e-05	-0.00024	-0.00086	-0.00042	-0.00019	0.00021	6
36479	-6e-05	-2e-05	-7e-05	-0.00024	-0.00086	-0.00042	-0.00019	0.00021	6
36480	0.00021	-0.0001	-0.00011	-9e-05	0.00016	0.00077	-1e-05	3e-05	6
36481	0.00021	-0.0001	-0.00011	-9e-05	0.00016	0.00077	-1e-05	3e-05	6
36482	0.00021	-0.0001	-0.00011	-9e-05	0.00016	0.00077	-1e-05	3e-05	6
36483	0.00021	-0.0001	-0.00011	-9e-05	0.00016	0.00077	-1e-05	3e-05	6
36484	0.00021	-0.0001	-0.00011	-9e-05	0.00016	0.00077	-1e-05	3e-05	6
36485	0.00021	-0.0001	-0.00011	-9e-05	0.00016	0.00077	-1e-05	3e-05	6
36486	0.00021	-0.0001	-0.00011	-9e-05	0.00016	0.00077	-1e-05	3e-05	6
36488	0.00021	-0.0001	-0.00011	-9e-05	0.00016	0.00077	-1e-05	3e-05	6
36489	-0.00023	1e-05	-4e-05	-0.00044	-0.00101	0.00015	4e-05	-0.00019	6
36490	-0.00023	1e-05	-4e-05	-0.00044	-0.00101	0.00015	4e-05	-0.00019	6
36491	-0.00023	1e-05	-4e-05	-0.00044	-0.00101	0.00015	4e-05	-0.00019	6
36492	-0.00023	1e-05	-4e-05	-0.00044	-0.00101	0.00015	4e-05	-0.00019	6
36493	-0.00023	1e-05	-4e-05	-0.00044	-0.00101	0.00015	4e-05	-0.00019	6
36494	-0.00023	1e-05	-4e-05	-0.00044	-0.00101	0.00015	4e-05	-0.00019	6
36495	-0.00023	1e-05	-4e-05	-0.00044	-0.00101	0.00015	4e-05	-0.00019	6
36496	-0.00023	1e-05	-4e-05	-0.00044	-0.00101	0.00015	4e-05	-0.00019	6
36497	-0.00023	1e-05	-4e-05	-0.00044	-0.00101	0.00015	4e-05	-0.00019	6
36498	-0.00023	1e-05	-4e-05	-0.00044	-0.00101	0.00015	4e-05	-0.00019	6
36499	-0.00023	1e-05	-4e-05	-0.00044	-0.00101	0.00015	4e-05	-0.00019	6
36500	-0.00023	1e-05	-4e-05	-0.00044	-0.00101	0.00015	4e-05	-0.00019	6
36501	-0.00023	1e-05	-4e-05	-0.00044	-0.00101	0.00015	4e-05	-0.00019	6
36502	-0.00023	1e-05	-4e-05	-0.00044	-0.00101	0.00015	4e-05	-0.00019	6
36503	-0.00023	1e-05	-4e-05	-0.00044	-0.00101	0.00015	4e-05	-0.00019	6
36504	-0.0001	0	-2e-05	-0.00015	-0.00024	-0.0002	0.0002	0	6
36505	-0.0001	0	-2e-05	-0.00015	-0.00024	-0.0002	0.0002	0	6
36506	-0.0001	0	-2e-05	-0.00015	-0.00024	-0.0002	0.0002	0	6
36507	-0.0001	0	-2e-05	-0.00015	-0.00024	-0.0002	0.0002	0	6
36508	-0.0001	0	-2e-05	-0.00015	-0.00024	-0.0002	0.0002	0	6
36509	-0.0001	0	-2e-05	-0.00015	-0.00024	-0.0002	0.0002	0	6
36510	0.00021	0.00012	0.00021	0.0007	0.00041	0.00023	-0.00011	0.00035	6
36511	0.00021	0.00012	0.00021	0.0007	0.00041	0.00023	-0.00011	0.00035	6
36512	0.00021	0.00012	0.00021	0.0007	0.00041	0.00023	-0.00011	0.00035	6
36513	0.00021	0.00012	0.00021	0.0007	0.00041	0.00023	-0.00011	0.00035	6
36514	0.00021	0.00012	0.00021	0.0007	0.00041	0.00023	-0.00011	0.00035	6
36515	0.00021	0.00012	0.00021	0.0007	0.00041	0.00023	-0.00011	0.00035	6
36516	0.00021	0.00012	0.00021	0.0007	0.00041	0.00023	-0.00011	0.00035	6
36517	0.00021	0.00012	0.00021	0.0007	0.00041	0.00023	-0.00011	0.00035	6
36518	0.00021	0.00012	0.00021	0.0007	0.00041	0.00023	-0.00011	0.00035	6
36519	0.00021	0.00012	0.00021	0.0007	0.00041	0.00023	-0.00011	0.00035	6
36520	0.00021	0.00012	0.00021	0.0007	0.00041	0.00023	-0.00011	0.00035	6
36521	0.00021	0.00012	0.00021	0.0007	0.00041	0.00023	-0.00011	0.00035	6
36522	0.00021	0.00012	0.00021	0.0007	0.00041	0.00023	-0.00011	0.00035	6
36523	0.00021	0.00012	0.00021	0.0007	0.00041	0.00023	-0.00011	0.00035	6
36524	0.00021	0.00012	0.00021	0.0007	0.00041	0.00023	-0.00011	0.00035	6
36525	0.00021	0.00012	0.00021	0.0007	0.00041	0.00023	-0.00011	0.00035	6
36526	-5e-05	-4e-05	0	8e-05	0.00061	9e-05	0.0001	-0.00012	6
36527	-5e-05	-4e-05	0	8e-05	0.00061	9e-05	0.0001	-0.00012	6
36528	0.00011	8e-05	0.00011	0.00037	0.0009	3e-05	0.00016	0.00011	6
36529	0.00011	8e-05	0.00011	0.00037	0.0009	3e-05	0.00016	0.00011	6
36530	0.00011	8e-05	0.00011	0.00037	0.0009	3e-05	0.00016	0.00011	6
36531	0.00011	8e-05	0.00011	0.00037	0.0009	3e-05	0.00016	0.00011	6
36532	0.00011	8e-05	0.00011	0.00037	0.0009	3e-05	0.00016	0.00011	6
36533	0.00011	8e-05	0.00011	0.00037	0.0009	3e-05	0.00016	0.00011	6
36534	0.00011	8e-05	0.00011	0.00037	0.0009	3e-05	0.00016	0.00011	6
36535	0.00011	8e-05	0.00011	0.00037	0.0009	3e-05	0.00016	0.00011	6
36536	0.00011	8e-05	0.00011	0.00037	0.0009	3e-05	0.00016	0.00011	6
36538	0.00011	8e-05	0.00011	0.00037	0.0009	3e-05	0.00016	0.00011	6
36539	0.00011	8e-05	0.00011	0.00037	0.0009	3e-05	0.00016	0.00011	6
36540	-9e-05	-2e-05	-4e-05	-0.00019	-0.00018	0.00028	0	-3e-05	6
36541	-9e-05	-2e-05	-4e-05	-0.00019	-0.00018	0.00028	0	-3e-05	6
36542	-9e-05	-2e-05	-4e-05	-0.00019	-0.00018	0.00028	0	-3e-05	6
36543	-9e-05	-2e-05	-4e-05	-0.00019	-0.00018	0.00028	0	-3e-05	6
36544	-9e-05	-2e-05	-4e-05	-0.00019	-0.00018	0.00028	0	-3e-05	6
36545	-9e-05	-2e-05	-4e-05	-0.00019	-0.00018	0.00028	0	-3e-05	6
36546	-9e-05	-2e-05	-4e-05	-0.00019	-0.00018	0.00028	0	-3e-05	6
36547	-9e-05	-2e-05	-4e-05	-0.00019	-0.00018	0.00028	0	-3e-05	6
36548	-9e-05	-2e-05	-4e-05	-0.00019	-0.00018	0.00028	0	-3e-05	6
36549	0.00017	-7e-05	-0.00016	-0.00033	-0.00057	-0.0002	-0.00028	6e-05	6
36550	0.00017	-7e-05	-0.00016	-0.00033	-0.00057	-0.0002	-0.00028	6e-05	6
36551	0.00017	-7e-05	-0.00016	-0.00033	-0.00057	-0.0002	-0.00028	6e-05	6
36552	0.00017	-7e-05	-0.00016	-0.00033	-0.00057	-0.0002	-0.00028	6e-05	6
36553	0.00017	-7e-05	-0.00016	-0.00033	-0.00057	-0.0002	-0.00028	6e-05	6
36554	0.00017	-7e-05	-0.00016	-0.00033	-0.00057	-0.0002	-0.00028	6e-05	6
36555	0.00017	-7e-05	-0.00016	-0.00033	-0.00057	-0.0002	-0.00028	6e-05	6
36556	0.00017	-7e-05	-0.00016	-0.00033	-0.00057	-0.0002	-0.00028	6e-05	6
36557	0.00017	-7e-05	-0.00016	-0.00033	-0.00057	-0.0002	-0.00028	6e-05	6
36558	0.00017	-7e-05	-0.00016	-0.00033	-0.00057	-0.0002	-0.00028	6e-05	6
36559	0.00017	-7e-05	-0.00016	-0.00033	-0.00057	-0.0002	-0.00028	6e-05	6
36560	0.00017	-7e-05	-0.00016	-0.00033	-0.00057	-0.0002	-0.00028	6e-05	6
36561	0.00017	-7e-05	-0.00016	-0.00033	-0.00057	-0.0002	-0.00028	6e-05	6
36562	0.00017	-7e-05	-0.00016	-0.00033	-0.00057	-0.0002	-0.00028	6e-05	6
36563	0.00017	-7e-05	-0.00016	-0.00033	-0.00057	-0.0002	-0.00028	6e-05	6
36564	0.00015	9e-05	0.0001	4e-05	-0.00023	-0.00027	0.00015	0.00037	6
36565	0.00015	9e-05	0.0001	4e-05	-0.00023	-0.00027	0.00015	0.00037	6
36566	-8e-05	-5e-05	-0.0001	-0.00039	-0.00066	-0.00019	-0.00014	-0.00025	6
36567	-8e-05	-5e-05	-0.0001	-0.00039	-0.00066	-0.00019	-0.00014	-0.00025	6
36568	-8e-05	-5e-05	-0.0001	-0.00039	-0.00066	-0.00019	-0.00014	-0.00025	6
36569	-8e-05	-5e-05	-0.0001	-0.00039	-0.00066	-0.00019	-0.00014	-0.00025	6
36570	-8e-05	-5e-05	-0.0001	-0.00039	-0.00066	-0.00019	-0.00014	-0.00025	6
36571	-8e-05	-5e-05	-0.0001	-0.00039	-0.00066	-0.00019	-0.00014	-0.00025	6
36572	-8e-05	-5e-05	-0.0001	-0.00039	-0.00066	-0.00019	-0.00014	-0.00025	6
36573	-8e-05	-5e-05	-0.0001	-0.00039	-0.00066	-0.00019	-0.00014	-0.00025	6
36574	-8e-05	-5e-05	-0.0001	-0.00039	-0.00066	-0.00019	-0.00014	-0.00025	6
36575	-8e-05	-5e-05	-0.0001	-0.00039	-0.00066	-0.00019	-0.00014	-0.00025	6
36576	-8e-05	-5e-05	-0.0001	-0.00039	-0.00066	-0.00019	-0.00014	-0.00025	6
36577	-8e-05	-5e-05	-0.0001	-0.00039	-0.00066	-0.00019	-0.00014	-0.00025	6
36578	-8e-05	-5e-05	-0.0001	-0.00039	-0.00066	-0.00019	-0.00014	-0.00025	6
36579	-8e-05	-5e-05	-0.0001	-0.00039	-0.00066	-0.00019	-0.00014	-0.00025	6
36580	-8e-05	-5e-05	-0.0001	-0.00039	-0.00066	-0.00019	-0.00014	-0.00025	6
36581	-8e-05	-5e-05	-0.0001	-0.00039	-0.00066	-0.00019	-0.00014	-0.00025	6
36582	-8e-05	-5e-05	-0.0001	-0.00039	-0.00066	-0.00019	-0.00014	-0.00025	6
36583	-8e-05	-5e-05	-0.0001	-0.00039	-0.00066	-0.00019	-0.00014	-0.00025	6
36584	-8e-05	-5e-05	-0.0001	-0.00039	-0.00066	-0.00019	-0.00014	-0.00025	6
36585	-8e-05	-5e-05	-0.0001	-0.00039	-0.00066	-0.00019	-0.00014	-0.00025	6
36586	-0.00015	-6e-05	-3e-05	0.00014	-0.00012	1e-05	-6e-05	-0.00021	6
36588	0.00016	0.00011	0.00011	0.00014	0.00058	0.0002	0.00023	0.00012	6
36589	0.00016	0.00011	0.00011	0.00014	0.00058	0.0002	0.00023	0.00012	6
36590	0.00016	0.00011	0.00011	0.00014	0.00058	0.0002	0.00023	0.00012	6
36591	0.00016	0.00011	0.00011	0.00014	0.00058	0.0002	0.00023	0.00012	6
36592	0.00016	0.00011	0.00011	0.00014	0.00058	0.0002	0.00023	0.00012	6
36593	0.00016	0.00011	0.00011	0.00014	0.00058	0.0002	0.00023	0.00012	6
36594	0.00016	0.00011	0.00011	0.00014	0.00058	0.0002	0.00023	0.00012	6
36595	0.00016	0.00011	0.00011	0.00014	0.00058	0.0002	0.00023	0.00012	6
36596	0.00016	0.00011	0.00011	0.00014	0.00058	0.0002	0.00023	0.00012	6
36597	0.00016	0.00011	0.00011	0.00014	0.00058	0.0002	0.00023	0.00012	6
36598	0.00016	0.00011	0.00011	0.00014	0.00058	0.0002	0.00023	0.00012	6
36599	0.00016	0.00011	0.00011	0.00014	0.00058	0.0002	0.00023	0.00012	6
36600	-0.00023	-4e-05	-0.0001	-0.00013	-0.00031	-0.00032	0.00012	-0.00013	6
36601	-0.00023	-4e-05	-0.0001	-0.00013	-0.00031	-0.00032	0.00012	-0.00013	6
36602	-0.00023	-4e-05	-0.0001	-0.00013	-0.00031	-0.00032	0.00012	-0.00013	6
36603	-0.00023	-4e-05	-0.0001	-0.00013	-0.00031	-0.00032	0.00012	-0.00013	6
36604	-0.00023	-4e-05	-0.0001	-0.00013	-0.00031	-0.00032	0.00012	-0.00013	6
36605	-0.00023	-4e-05	-0.0001	-0.00013	-0.00031	-0.00032	0.00012	-0.00013	6
36606	-0.00023	-4e-05	-0.0001	-0.00013	-0.00031	-0.00032	0.00012	-0.00013	6
36607	-0.00023	-4e-05	-0.0001	-0.00013	-0.00031	-0.00032	0.00012	-0.00013	6
36608	-0.00023	-4e-05	-0.0001	-0.00013	-0.00031	-0.00032	0.00012	-0.00013	6
36609	6e-05	1e-05	0.00017	0.00087	0.00069	0.00028	-0.00011	0.00013	6
36610	6e-05	1e-05	0.00017	0.00087	0.00069	0.00028	-0.00011	0.00013	6
36611	6e-05	1e-05	0.00017	0.00087	0.00069	0.00028	-0.00011	0.00013	6
36612	6e-05	1e-05	0.00017	0.00087	0.00069	0.00028	-0.00011	0.00013	6
36613	6e-05	1e-05	0.00017	0.00087	0.00069	0.00028	-0.00011	0.00013	6
36614	6e-05	1e-05	0.00017	0.00087	0.00069	0.00028	-0.00011	0.00013	6
36615	6e-05	1e-05	0.00017	0.00087	0.00069	0.00028	-0.00011	0.00013	6
36616	6e-05	1e-05	0.00017	0.00087	0.00069	0.00028	-0.00011	0.00013	6
36617	6e-05	1e-05	0.00017	0.00087	0.00069	0.00028	-0.00011	0.00013	6
36618	6e-05	1e-05	0.00017	0.00087	0.00069	0.00028	-0.00011	0.00013	6
36619	6e-05	1e-05	0.00017	0.00087	0.00069	0.00028	-0.00011	0.00013	6
36620	6e-05	1e-05	0.00017	0.00087	0.00069	0.00028	-0.00011	0.00013	6
36621	6e-05	1e-05	0.00017	0.00087	0.00069	0.00028	-0.00011	0.00013	6
36622	6e-05	1e-05	0.00017	0.00087	0.00069	0.00028	-0.00011	0.00013	6
36623	6e-05	1e-05	0.00017	0.00087	0.00069	0.00028	-0.00011	0.00013	6
36624	0.00011	-6e-05	-4e-05	0.00019	0.00041	0.00037	0.0003	8e-05	6
36625	-1e-05	-1e-05	-2e-05	-0.0001	0.00083	0.00012	6e-05	0.00037	6
36626	-1e-05	-1e-05	-2e-05	-0.0001	0.00083	0.00012	6e-05	0.00037	6
36627	-1e-05	-1e-05	-2e-05	-0.0001	0.00083	0.00012	6e-05	0.00037	6
36628	-1e-05	-1e-05	-2e-05	-0.0001	0.00083	0.00012	6e-05	0.00037	6
36629	-1e-05	-1e-05	-2e-05	-0.0001	0.00083	0.00012	6e-05	0.00037	6
36630	-1e-05	-1e-05	-2e-05	-0.0001	0.00083	0.00012	6e-05	0.00037	6
36631	-1e-05	-1e-05	-2e-05	-0.0001	0.00083	0.00012	6e-05	0.00037	6
36632	-1e-05	-1e-05	-2e-05	-0.0001	0.00083	0.00012	6e-05	0.00037	6
36633	-1e-05	-1e-05	-2e-05	-0.0001	0.00083	0.00012	6e-05	0.00037	6
36634	-1e-05	-1e-05	-2e-05	-0.0001	0.00083	0.00012	6e-05	0.00037	6
36635	-1e-05	-1e-05	-2e-05	-0.0001	0.00083	0.00012	6e-05	0.00037	6
36636	-1e-05	-1e-05	-2e-05	-0.0001	0.00083	0.00012	6e-05	0.00037	6
36638	-1e-05	-1e-05	-2e-05	-0.0001	0.00083	0.00012	6e-05	0.00037	6
36639	-1e-05	-1e-05	-2e-05	-0.0001	0.00083	0.00012	6e-05	0.00037	6
36640	-1e-05	-1e-05	-2e-05	-0.0001	0.00083	0.00012	6e-05	0.00037	6
36641	-1e-05	-1e-05	-2e-05	-0.0001	0.00083	0.00012	6e-05	0.00037	6
36642	-1e-05	-1e-05	-2e-05	-0.0001	0.00083	0.00012	6e-05	0.00037	6
36643	-1e-05	-1e-05	-2e-05	-0.0001	0.00083	0.00012	6e-05	0.00037	6
36644	-1e-05	-1e-05	-2e-05	-0.0001	0.00083	0.00012	6e-05	0.00037	6
36645	-1e-05	-1e-05	-2e-05	-0.0001	0.00083	0.00012	6e-05	0.00037	6
36646	9e-05	-4e-05	-6e-05	0.00014	0.00021	-0.00021	-8e-05	-2e-05	6
36647	9e-05	-4e-05	-6e-05	0.00014	0.00021	-0.00021	-8e-05	-2e-05	6
36648	-1e-05	-2e-05	-4e-05	-0.00045	-0.00089	0.00023	0.00014	0.00012	6
36649	-1e-05	-2e-05	-4e-05	-0.00045	-0.00089	0.00023	0.00014	0.00012	6
36650	-1e-05	-2e-05	-4e-05	-0.00045	-0.00089	0.00023	0.00014	0.00012	6
36651	-1e-05	-2e-05	-4e-05	-0.00045	-0.00089	0.00023	0.00014	0.00012	6
36652	-1e-05	-2e-05	-4e-05	-0.00045	-0.00089	0.00023	0.00014	0.00012	6
36653	-1e-05	-2e-05	-4e-05	-0.00045	-0.00089	0.00023	0.00014	0.00012	6
36654	-1e-05	-2e-05	-4e-05	-0.00045	-0.00089	0.00023	0.00014	0.00012	6
36655	-1e-05	-2e-05	-4e-05	-0.00045	-0.00089	0.00023	0.00014	0.00012	6
36656	-1e-05	-2e-05	-4e-05	-0.00045	-0.00089	0.00023	0.00014	0.00012	6
36657	-1e-05	-2e-05	-4e-05	-0.00045	-0.00089	0.00023	0.00014	0.00012	6
36658	-1e-05	-2e-05	-4e-05	-0.00045	-0.00089	0.00023	0.00014	0.00012	6
36659	-1e-05	-2e-05	-4e-05	-0.00045	-0.00089	0.00023	0.00014	0.00012	6
36660	-1e-05	4e-05	5e-05	0.00013	0.00029	-0.00027	1e-05	0.00031	6
36661	-1e-05	4e-05	5e-05	0.00013	0.00029	-0.00027	1e-05	0.00031	6
36662	-1e-05	4e-05	5e-05	0.00013	0.00029	-0.00027	1e-05	0.00031	6
36663	-1e-05	4e-05	5e-05	0.00013	0.00029	-0.00027	1e-05	0.00031	6
36664	-1e-05	4e-05	5e-05	0.00013	0.00029	-0.00027	1e-05	0.00031	6
36665	-1e-05	4e-05	5e-05	0.00013	0.00029	-0.00027	1e-05	0.00031	6
36666	-1e-05	4e-05	5e-05	0.00013	0.00029	-0.00027	1e-05	0.00031	6
36667	-1e-05	4e-05	5e-05	0.00013	0.00029	-0.00027	1e-05	0.00031	6
36668	-1e-05	4e-05	5e-05	0.00013	0.00029	-0.00027	1e-05	0.00031	6
36669	0	-5e-05	-4e-05	-0.00025	-0.0006	-0.00073	-0.00013	0.00022	6
36670	0	-5e-05	-4e-05	-0.00025	-0.0006	-0.00073	-0.00013	0.00022	6
36671	0	-5e-05	-4e-05	-0.00025	-0.0006	-0.00073	-0.00013	0.00022	6
36672	0	-5e-05	-4e-05	-0.00025	-0.0006	-0.00073	-0.00013	0.00022	6
36673	0	-5e-05	-4e-05	-0.00025	-0.0006	-0.00073	-0.00013	0.00022	6
36674	0	-5e-05	-4e-05	-0.00025	-0.0006	-0.00073	-0.00013	0.00022	6
36675	0	-5e-05	-4e-05	-0.00025	-0.0006	-0.00073	-0.00013	0.00022	6
36676	0	-5e-05	-4e-05	-0.00025	-0.0006	-0.00073	-0.00013	0.00022	6
36677	0	-5e-05	-4e-05	-0.00025	-0.0006	-0.00073	-0.00013	0.00022	6
36678	0	-5e-05	-4e-05	-0.00025	-0.0006	-0.00073	-0.00013	0.00022	6
36679	0	-5e-05	-4e-05	-0.00025	-0.0006	-0.00073	-0.00013	0.00022	6
36680	0	-5e-05	-4e-05	-0.00025	-0.0006	-0.00073	-0.00013	0.00022	6
36681	0	-5e-05	-4e-05	-0.00025	-0.0006	-0.00073	-0.00013	0.00022	6
36682	0	-5e-05	-4e-05	-0.00025	-0.0006	-0.00073	-0.00013	0.00022	6
36683	0	-5e-05	-4e-05	-0.00025	-0.0006	-0.00073	-0.00013	0.00022	6
36684	0.00025	8e-05	8e-05	-4e-05	-0.00012	0.0002	0.00035	0.00014	6
36685	-0.00011	-0.0001	-0.00013	-0.00021	-3e-05	0.0002	-7e-05	-0.00038	6
36686	-0.00011	-0.0001	-0.00013	-0.00021	-3e-05	0.0002	-7e-05	-0.00038	6
36689	-0.00011	-0.0001	-0.00013	-0.00021	-3e-05	0.0002	-7e-05	-0.00038	6
36690	-0.00011	-0.0001	-0.00013	-0.00021	-3e-05	0.0002	-7e-05	-0.00038	6
36691	-0.00011	-0.0001	-0.00013	-0.00021	-3e-05	0.0002	-7e-05	-0.00038	6
36692	-0.00011	-0.0001	-0.00013	-0.00021	-3e-05	0.0002	-7e-05	-0.00038	6
36693	-0.00011	-0.0001	-0.00013	-0.00021	-3e-05	0.0002	-7e-05	-0.00038	6
36694	-0.00011	-0.0001	-0.00013	-0.00021	-3e-05	0.0002	-7e-05	-0.00038	6
36695	-0.00011	-0.0001	-0.00013	-0.00021	-3e-05	0.0002	-7e-05	-0.00038	6
36696	-0.00011	-0.0001	-0.00013	-0.00021	-3e-05	0.0002	-7e-05	-0.00038	6
36697	-0.00011	-0.0001	-0.00013	-0.00021	-3e-05	0.0002	-7e-05	-0.00038	6
36698	-0.00011	-0.0001	-0.00013	-0.00021	-3e-05	0.0002	-7e-05	-0.00038	6
36699	-0.00011	-0.0001	-0.00013	-0.00021	-3e-05	0.0002	-7e-05	-0.00038	6
36700	-0.00011	-0.0001	-0.00013	-0.00021	-3e-05	0.0002	-7e-05	-0.00038	6
36701	-0.00011	-0.0001	-0.00013	-0.00021	-3e-05	0.0002	-7e-05	-0.00038	6
36702	-0.00011	-0.0001	-0.00013	-0.00021	-3e-05	0.0002	-7e-05	-0.00038	6
36703	-0.00011	-0.0001	-0.00013	-0.00021	-3e-05	0.0002	-7e-05	-0.00038	6
36704	-0.00011	-0.0001	-0.00013	-0.00021	-3e-05	0.0002	-7e-05	-0.00038	6
36705	-0.00011	-0.0001	-0.00013	-0.00021	-3e-05	0.0002	-7e-05	-0.00038	6
36706	0.00011	-2e-05	-1e-05	0.00023	0.00045	0.00037	-0.00042	0.00013	6
36707	0.00011	-2e-05	-1e-05	0.00023	0.00045	0.00037	-0.00042	0.00013	6
36708	-0.00034	-8e-05	-7e-05	0.00036	0.00066	-0.0007	-0.00023	-0.00049	6
36709	-0.00034	-8e-05	-7e-05	0.00036	0.00066	-0.0007	-0.00023	-0.00049	6
36710	-0.00034	-8e-05	-7e-05	0.00036	0.00066	-0.0007	-0.00023	-0.00049	6
36711	-0.00034	-8e-05	-7e-05	0.00036	0.00066	-0.0007	-0.00023	-0.00049	6
36712	-0.00034	-8e-05	-7e-05	0.00036	0.00066	-0.0007	-0.00023	-0.00049	6
36713	-0.00034	-8e-05	-7e-05	0.00036	0.00066	-0.0007	-0.00023	-0.00049	6
36714	-0.00034	-8e-05	-7e-05	0.00036	0.00066	-0.0007	-0.00023	-0.00049	6
36715	-0.00034	-8e-05	-7e-05	0.00036	0.00066	-0.0007	-0.00023	-0.00049	6
36716	-0.00034	-8e-05	-7e-05	0.00036	0.00066	-0.0007	-0.00023	-0.00049	6
36717	-0.00034	-8e-05	-7e-05	0.00036	0.00066	-0.0007	-0.00023	-0.00049	6
36718	-0.00034	-8e-05	-7e-05	0.00036	0.00066	-0.0007	-0.00023	-0.00049	6
36719	-0.00034	-8e-05	-7e-05	0.00036	0.00066	-0.0007	-0.00023	-0.00049	6
36720	0.00015	5e-05	3e-05	-0.0001	0.00038	0.00036	0.00011	0.00015	6
36721	0.00015	5e-05	3e-05	-0.0001	0.00038	0.00036	0.00011	0.00015	6
36722	0.00015	5e-05	3e-05	-0.0001	0.00038	0.00036	0.00011	0.00015	6
36723	0.00015	5e-05	3e-05	-0.0001	0.00038	0.00036	0.00011	0.00015	6
36724	0.00015	5e-05	3e-05	-0.0001	0.00038	0.00036	0.00011	0.00015	6
36725	0.00015	5e-05	3e-05	-0.0001	0.00038	0.00036	0.00011	0.00015	6
36726	0.00015	5e-05	3e-05	-0.0001	0.00038	0.00036	0.00011	0.00015	6
36727	0.00015	5e-05	3e-05	-0.0001	0.00038	0.00036	0.00011	0.00015	6
36728	0.00015	5e-05	3e-05	-0.0001	0.00038	0.00036	0.00011	0.00015	6
36729	-0.00015	3e-05	4e-05	1e-05	0.00059	0.00047	5e-05	-0.00025	6
36730	-0.00015	3e-05	4e-05	1e-05	0.00059	0.00047	5e-05	-0.00025	6
36731	-0.00015	3e-05	4e-05	1e-05	0.00059	0.00047	5e-05	-0.00025	6
36732	-0.00015	3e-05	4e-05	1e-05	0.00059	0.00047	5e-05	-0.00025	6
36733	-0.00015	3e-05	4e-05	1e-05	0.00059	0.00047	5e-05	-0.00025	6
36734	-0.00015	3e-05	4e-05	1e-05	0.00059	0.00047	5e-05	-0.00025	6
36735	-0.00015	3e-05	4e-05	1e-05	0.00059	0.00047	5e-05	-0.00025	6
36736	-0.00015	3e-05	4e-05	1e-05	0.00059	0.00047	5e-05	-0.00025	6
36738	-0.00015	3e-05	4e-05	1e-05	0.00059	0.00047	5e-05	-0.00025	6
36739	-0.00015	3e-05	4e-05	1e-05	0.00059	0.00047	5e-05	-0.00025	6
36740	-0.00015	3e-05	4e-05	1e-05	0.00059	0.00047	5e-05	-0.00025	6
36741	-0.00015	3e-05	4e-05	1e-05	0.00059	0.00047	5e-05	-0.00025	6
36742	-0.00015	3e-05	4e-05	1e-05	0.00059	0.00047	5e-05	-0.00025	6
36743	-0.00015	3e-05	4e-05	1e-05	0.00059	0.00047	5e-05	-0.00025	6
36744	-0.00015	3e-05	2e-05	-0.00043	-0.00114	0.00027	-4e-05	-0.00024	6
36745	-3e-05	1e-05	-5e-05	-0.00038	-0.0007	-0.00022	-4e-05	-7e-05	6
36746	-3e-05	1e-05	-5e-05	-0.00038	-0.0007	-0.00022	-4e-05	-7e-05	6
36747	-3e-05	1e-05	-5e-05	-0.00038	-0.0007	-0.00022	-4e-05	-7e-05	6
36748	-3e-05	1e-05	-5e-05	-0.00038	-0.0007	-0.00022	-4e-05	-7e-05	6
36749	-3e-05	1e-05	-5e-05	-0.00038	-0.0007	-0.00022	-4e-05	-7e-05	6
36750	-3e-05	1e-05	-5e-05	-0.00038	-0.0007	-0.00022	-4e-05	-7e-05	6
36751	-3e-05	1e-05	-5e-05	-0.00038	-0.0007	-0.00022	-4e-05	-7e-05	6
36752	-3e-05	1e-05	-5e-05	-0.00038	-0.0007	-0.00022	-4e-05	-7e-05	6
36753	-3e-05	1e-05	-5e-05	-0.00038	-0.0007	-0.00022	-4e-05	-7e-05	6
36754	-3e-05	1e-05	-5e-05	-0.00038	-0.0007	-0.00022	-4e-05	-7e-05	6
36755	-3e-05	1e-05	-5e-05	-0.00038	-0.0007	-0.00022	-4e-05	-7e-05	6
36756	-3e-05	1e-05	-5e-05	-0.00038	-0.0007	-0.00022	-4e-05	-7e-05	6
36757	-3e-05	1e-05	-5e-05	-0.00038	-0.0007	-0.00022	-4e-05	-7e-05	6
36758	-3e-05	1e-05	-5e-05	-0.00038	-0.0007	-0.00022	-4e-05	-7e-05	6
36759	-3e-05	1e-05	-5e-05	-0.00038	-0.0007	-0.00022	-4e-05	-7e-05	6
36760	-3e-05	1e-05	-5e-05	-0.00038	-0.0007	-0.00022	-4e-05	-7e-05	6
36761	-3e-05	1e-05	-5e-05	-0.00038	-0.0007	-0.00022	-4e-05	-7e-05	6
36762	-3e-05	1e-05	-5e-05	-0.00038	-0.0007	-0.00022	-4e-05	-7e-05	6
36763	-3e-05	1e-05	-5e-05	-0.00038	-0.0007	-0.00022	-4e-05	-7e-05	6
36764	-3e-05	1e-05	-5e-05	-0.00038	-0.0007	-0.00022	-4e-05	-7e-05	6
36765	-3e-05	1e-05	-5e-05	-0.00038	-0.0007	-0.00022	-4e-05	-7e-05	6
36766	6e-05	-3e-05	3e-05	0.00051	0.00023	-0.00053	-0.00027	0.00011	6
36767	6e-05	-3e-05	3e-05	0.00051	0.00023	-0.00053	-0.00027	0.00011	6
36768	0.00016	3e-05	3e-05	-0.00028	-0.00078	-0.00037	0	0.00029	6
36769	0.00016	3e-05	3e-05	-0.00028	-0.00078	-0.00037	0	0.00029	6
36770	0.00016	3e-05	3e-05	-0.00028	-0.00078	-0.00037	0	0.00029	6
36771	0.00016	3e-05	3e-05	-0.00028	-0.00078	-0.00037	0	0.00029	6
36772	0.00016	3e-05	3e-05	-0.00028	-0.00078	-0.00037	0	0.00029	6
36773	0.00016	3e-05	3e-05	-0.00028	-0.00078	-0.00037	0	0.00029	6
36774	0.00016	3e-05	3e-05	-0.00028	-0.00078	-0.00037	0	0.00029	6
36775	0.00016	3e-05	3e-05	-0.00028	-0.00078	-0.00037	0	0.00029	6
36776	0.00016	3e-05	3e-05	-0.00028	-0.00078	-0.00037	0	0.00029	6
36777	0.00016	3e-05	3e-05	-0.00028	-0.00078	-0.00037	0	0.00029	6
36778	0.00016	3e-05	3e-05	-0.00028	-0.00078	-0.00037	0	0.00029	6
36779	0.00016	3e-05	3e-05	-0.00028	-0.00078	-0.00037	0	0.00029	6
36780	0.00016	3e-05	3e-05	-0.00028	-0.00078	-0.00037	0	0.00029	6
36781	0.00016	3e-05	3e-05	-0.00028	-0.00078	-0.00037	0	0.00029	6
36782	0.00016	3e-05	3e-05	-0.00028	-0.00078	-0.00037	0	0.00029	6
36783	0.00016	3e-05	3e-05	-0.00028	-0.00078	-0.00037	0	0.00029	6
36784	0.00016	3e-05	3e-05	-0.00028	-0.00078	-0.00037	0	0.00029	6
36785	0.00016	3e-05	3e-05	-0.00028	-0.00078	-0.00037	0	0.00029	6
36786	0.00016	3e-05	3e-05	-0.00028	-0.00078	-0.00037	0	0.00029	6
36788	0.00016	3e-05	3e-05	-0.00028	-0.00078	-0.00037	0	0.00029	6
36789	-0.00012	-6e-05	-0.00011	-0.00044	7e-05	-0.00044	-0.00014	-0.00015	6
36790	0.00017	-1e-05	2e-05	0.00013	0.00017	7e-05	0.00016	0.0004	6
36791	0.00017	-1e-05	2e-05	0.00013	0.00017	7e-05	0.00016	0.0004	6
36792	0.00017	-1e-05	2e-05	0.00013	0.00017	7e-05	0.00016	0.0004	6
36793	0.00017	-1e-05	2e-05	0.00013	0.00017	7e-05	0.00016	0.0004	6
36794	0.00017	-1e-05	2e-05	0.00013	0.00017	7e-05	0.00016	0.0004	6
36795	0.00017	-1e-05	2e-05	0.00013	0.00017	7e-05	0.00016	0.0004	6
36796	0.00017	-1e-05	2e-05	0.00013	0.00017	7e-05	0.00016	0.0004	6
36797	0.00017	-1e-05	2e-05	0.00013	0.00017	7e-05	0.00016	0.0004	6
36798	0.00017	-1e-05	2e-05	0.00013	0.00017	7e-05	0.00016	0.0004	6
36799	0.00017	-1e-05	2e-05	0.00013	0.00017	7e-05	0.00016	0.0004	6
36800	0.00017	-1e-05	2e-05	0.00013	0.00017	7e-05	0.00016	0.0004	6
36801	0.00017	-1e-05	2e-05	0.00013	0.00017	7e-05	0.00016	0.0004	6
36802	7e-05	-5e-05	-9e-05	-0.00037	-0.00069	-0.00055	0.00011	-3e-05	6
36803	7e-05	-5e-05	-9e-05	-0.00037	-0.00069	-0.00055	0.00011	-3e-05	6
36804	7e-05	-5e-05	-9e-05	-0.00037	-0.00069	-0.00055	0.00011	-3e-05	6
36805	7e-05	-5e-05	-9e-05	-0.00037	-0.00069	-0.00055	0.00011	-3e-05	6
36806	7e-05	-5e-05	-9e-05	-0.00037	-0.00069	-0.00055	0.00011	-3e-05	6
36807	7e-05	-5e-05	-9e-05	-0.00037	-0.00069	-0.00055	0.00011	-3e-05	6
36808	7e-05	-5e-05	-9e-05	-0.00037	-0.00069	-0.00055	0.00011	-3e-05	6
36809	7e-05	-5e-05	-9e-05	-0.00037	-0.00069	-0.00055	0.00011	-3e-05	6
36810	7e-05	-5e-05	-9e-05	-0.00037	-0.00069	-0.00055	0.00011	-3e-05	6
36811	4e-05	-1e-05	0	-0.00023	-0.00088	-0.00039	-9e-05	0.0003	6
36812	4e-05	-1e-05	0	-0.00023	-0.00088	-0.00039	-9e-05	0.0003	6
36813	4e-05	-1e-05	0	-0.00023	-0.00088	-0.00039	-9e-05	0.0003	6
36814	4e-05	-1e-05	0	-0.00023	-0.00088	-0.00039	-9e-05	0.0003	6
36815	4e-05	-1e-05	0	-0.00023	-0.00088	-0.00039	-9e-05	0.0003	6
36816	4e-05	-1e-05	0	-0.00023	-0.00088	-0.00039	-9e-05	0.0003	6
36817	4e-05	-1e-05	0	-0.00023	-0.00088	-0.00039	-9e-05	0.0003	6
36818	4e-05	-1e-05	0	-0.00023	-0.00088	-0.00039	-9e-05	0.0003	6
36819	4e-05	-1e-05	0	-0.00023	-0.00088	-0.00039	-9e-05	0.0003	6
36820	4e-05	-1e-05	0	-0.00023	-0.00088	-0.00039	-9e-05	0.0003	6
36821	4e-05	-1e-05	0	-0.00023	-0.00088	-0.00039	-9e-05	0.0003	6
36822	4e-05	-1e-05	0	-0.00023	-0.00088	-0.00039	-9e-05	0.0003	6
36823	4e-05	-1e-05	0	-0.00023	-0.00088	-0.00039	-9e-05	0.0003	6
36824	4e-05	-1e-05	0	-0.00023	-0.00088	-0.00039	-9e-05	0.0003	6
36825	4e-05	-1e-05	0	-0.00023	-0.00088	-0.00039	-9e-05	0.0003	6
36826	-0.00018	-3e-05	-7e-05	-0.0001	-0.00045	3e-05	6e-05	-0.00043	6
36827	-0.00018	-3e-05	-7e-05	-0.0001	-0.00045	3e-05	6e-05	-0.00043	6
36828	8e-05	6e-05	9e-05	0.00053	0.00074	0.00037	0.00019	0.00015	6
36829	8e-05	6e-05	9e-05	0.00053	0.00074	0.00037	0.00019	0.00015	6
36830	8e-05	6e-05	9e-05	0.00053	0.00074	0.00037	0.00019	0.00015	6
36831	8e-05	6e-05	9e-05	0.00053	0.00074	0.00037	0.00019	0.00015	6
36832	8e-05	6e-05	9e-05	0.00053	0.00074	0.00037	0.00019	0.00015	6
36833	8e-05	6e-05	9e-05	0.00053	0.00074	0.00037	0.00019	0.00015	6
36834	8e-05	6e-05	9e-05	0.00053	0.00074	0.00037	0.00019	0.00015	6
36835	8e-05	6e-05	9e-05	0.00053	0.00074	0.00037	0.00019	0.00015	6
36836	8e-05	6e-05	9e-05	0.00053	0.00074	0.00037	0.00019	0.00015	6
36838	8e-05	6e-05	9e-05	0.00053	0.00074	0.00037	0.00019	0.00015	6
36839	8e-05	6e-05	9e-05	0.00053	0.00074	0.00037	0.00019	0.00015	6
36840	8e-05	6e-05	9e-05	0.00053	0.00074	0.00037	0.00019	0.00015	6
36841	8e-05	6e-05	9e-05	0.00053	0.00074	0.00037	0.00019	0.00015	6
36842	8e-05	6e-05	9e-05	0.00053	0.00074	0.00037	0.00019	0.00015	6
36843	8e-05	6e-05	9e-05	0.00053	0.00074	0.00037	0.00019	0.00015	6
36844	8e-05	6e-05	9e-05	0.00053	0.00074	0.00037	0.00019	0.00015	6
36845	8e-05	6e-05	9e-05	0.00053	0.00074	0.00037	0.00019	0.00015	6
36846	8e-05	6e-05	9e-05	0.00053	0.00074	0.00037	0.00019	0.00015	6
36847	8e-05	6e-05	9e-05	0.00053	0.00074	0.00037	0.00019	0.00015	6
36848	8e-05	6e-05	9e-05	0.00053	0.00074	0.00037	0.00019	0.00015	6
36849	1e-05	-1e-05	1e-05	1e-05	8e-05	0.00047	7e-05	-0.00015	6
36850	-6e-05	-3e-05	-5e-05	-0.00023	-0.00061	-0.00023	-6e-05	-0.00014	6
36851	-6e-05	-3e-05	-5e-05	-0.00023	-0.00061	-0.00023	-6e-05	-0.00014	6
36852	-6e-05	-3e-05	-5e-05	-0.00023	-0.00061	-0.00023	-6e-05	-0.00014	6
36853	-6e-05	-3e-05	-5e-05	-0.00023	-0.00061	-0.00023	-6e-05	-0.00014	6
36854	-6e-05	-3e-05	-5e-05	-0.00023	-0.00061	-0.00023	-6e-05	-0.00014	6
36855	-6e-05	-3e-05	-5e-05	-0.00023	-0.00061	-0.00023	-6e-05	-0.00014	6
36856	-6e-05	-3e-05	-5e-05	-0.00023	-0.00061	-0.00023	-6e-05	-0.00014	6
36857	-6e-05	-3e-05	-5e-05	-0.00023	-0.00061	-0.00023	-6e-05	-0.00014	6
36858	-6e-05	-3e-05	-5e-05	-0.00023	-0.00061	-0.00023	-6e-05	-0.00014	6
36859	-6e-05	-3e-05	-5e-05	-0.00023	-0.00061	-0.00023	-6e-05	-0.00014	6
36860	-6e-05	-3e-05	-5e-05	-0.00023	-0.00061	-0.00023	-6e-05	-0.00014	6
36861	-6e-05	-3e-05	-5e-05	-0.00023	-0.00061	-0.00023	-6e-05	-0.00014	6
36862	-6e-05	-3e-05	-5e-05	-0.00023	-0.00061	-0.00023	-6e-05	-0.00014	6
36863	0	-1e-05	2e-05	0.00014	0.00027	6e-05	-0.00013	-0.00032	6
36864	-1e-05	3e-05	2e-05	-9e-05	-0.00014	-0.00044	0.00011	0.00034	6
36865	7e-05	-7e-05	-4e-05	0.00022	-0.00023	1e-05	-6e-05	6e-05	6
36866	7e-05	-7e-05	-4e-05	0.00022	-0.00023	1e-05	-6e-05	6e-05	6
36867	7e-05	-7e-05	-4e-05	0.00022	-0.00023	1e-05	-6e-05	6e-05	6
36868	7e-05	-7e-05	-4e-05	0.00022	-0.00023	1e-05	-6e-05	6e-05	6
36869	7e-05	-7e-05	-4e-05	0.00022	-0.00023	1e-05	-6e-05	6e-05	6
36870	7e-05	-7e-05	-4e-05	0.00022	-0.00023	1e-05	-6e-05	6e-05	6
36871	7e-05	-7e-05	-4e-05	0.00022	-0.00023	1e-05	-6e-05	6e-05	6
36872	7e-05	-7e-05	-4e-05	0.00022	-0.00023	1e-05	-6e-05	6e-05	6
36873	7e-05	-7e-05	-4e-05	0.00022	-0.00023	1e-05	-6e-05	6e-05	6
36874	7e-05	-7e-05	-4e-05	0.00022	-0.00023	1e-05	-6e-05	6e-05	6
36875	7e-05	-7e-05	-4e-05	0.00022	-0.00023	1e-05	-6e-05	6e-05	6
36876	7e-05	-7e-05	-4e-05	0.00022	-0.00023	1e-05	-6e-05	6e-05	6
36877	7e-05	-7e-05	-4e-05	0.00022	-0.00023	1e-05	-6e-05	6e-05	6
36878	7e-05	-7e-05	-4e-05	0.00022	-0.00023	1e-05	-6e-05	6e-05	6
36879	7e-05	-7e-05	-4e-05	0.00022	-0.00023	1e-05	-6e-05	6e-05	6
36880	7e-05	-7e-05	-4e-05	0.00022	-0.00023	1e-05	-6e-05	6e-05	6
36881	7e-05	-7e-05	-4e-05	0.00022	-0.00023	1e-05	-6e-05	6e-05	6
36882	7e-05	-7e-05	-4e-05	0.00022	-0.00023	1e-05	-6e-05	6e-05	6
36883	7e-05	-7e-05	-4e-05	0.00022	-0.00023	1e-05	-6e-05	6e-05	6
36884	7e-05	-7e-05	-4e-05	0.00022	-0.00023	1e-05	-6e-05	6e-05	6
36885	7e-05	-7e-05	-4e-05	0.00022	-0.00023	1e-05	-6e-05	6e-05	6
36886	7e-05	-7e-05	-4e-05	0.00022	-0.00023	1e-05	-6e-05	6e-05	6
36889	-7e-05	-2e-05	-6e-05	-0.00047	-0.00026	0.00023	-2e-05	-0.00018	6
36890	-7e-05	-2e-05	-6e-05	-0.00047	-0.00026	0.00023	-2e-05	-0.00018	6
36891	-7e-05	-2e-05	-6e-05	-0.00047	-0.00026	0.00023	-2e-05	-0.00018	6
36892	-7e-05	-2e-05	-6e-05	-0.00047	-0.00026	0.00023	-2e-05	-0.00018	6
36893	-7e-05	-2e-05	-6e-05	-0.00047	-0.00026	0.00023	-2e-05	-0.00018	6
36894	-7e-05	-2e-05	-6e-05	-0.00047	-0.00026	0.00023	-2e-05	-0.00018	6
36895	-7e-05	-2e-05	-6e-05	-0.00047	-0.00026	0.00023	-2e-05	-0.00018	6
36896	-7e-05	-2e-05	-6e-05	-0.00047	-0.00026	0.00023	-2e-05	-0.00018	6
36897	-7e-05	-2e-05	-6e-05	-0.00047	-0.00026	0.00023	-2e-05	-0.00018	6
36898	-7e-05	-2e-05	-6e-05	-0.00047	-0.00026	0.00023	-2e-05	-0.00018	6
36899	-7e-05	-2e-05	-6e-05	-0.00047	-0.00026	0.00023	-2e-05	-0.00018	6
36900	-7e-05	-2e-05	-6e-05	-0.00047	-0.00026	0.00023	-2e-05	-0.00018	6
36901	-7e-05	-2e-05	-6e-05	-0.00047	-0.00026	0.00023	-2e-05	-0.00018	6
36902	-7e-05	-2e-05	-6e-05	-0.00047	-0.00026	0.00023	-2e-05	-0.00018	6
36903	-7e-05	-2e-05	-6e-05	-0.00047	-0.00026	0.00023	-2e-05	-0.00018	6
36904	-7e-05	-2e-05	-6e-05	-0.00047	-0.00026	0.00023	-2e-05	-0.00018	6
36905	-7e-05	-2e-05	-6e-05	-0.00047	-0.00026	0.00023	-2e-05	-0.00018	6
36906	-7e-05	-2e-05	-6e-05	-0.00047	-0.00026	0.00023	-2e-05	-0.00018	6
36907	-7e-05	-2e-05	-6e-05	-0.00047	-0.00026	0.00023	-2e-05	-0.00018	6
36908	-7e-05	-2e-05	-6e-05	-0.00047	-0.00026	0.00023	-2e-05	-0.00018	6
36909	-6e-05	3e-05	-1e-05	-0.00033	-0.00071	0	-0.00025	-7e-05	6
36910	3e-05	-4e-05	-0.00012	-0.0001	0.00027	0.0001	-5e-05	0.00017	6
36911	3e-05	-4e-05	-0.00012	-0.0001	0.00027	0.0001	-5e-05	0.00017	6
36912	3e-05	-4e-05	-0.00012	-0.0001	0.00027	0.0001	-5e-05	0.00017	6
36913	3e-05	-4e-05	-0.00012	-0.0001	0.00027	0.0001	-5e-05	0.00017	6
36914	3e-05	-4e-05	-0.00012	-0.0001	0.00027	0.0001	-5e-05	0.00017	6
36915	3e-05	-4e-05	-0.00012	-0.0001	0.00027	0.0001	-5e-05	0.00017	6
36916	3e-05	-4e-05	-0.00012	-0.0001	0.00027	0.0001	-5e-05	0.00017	6
36917	3e-05	-4e-05	-0.00012	-0.0001	0.00027	0.0001	-5e-05	0.00017	6
36918	3e-05	-4e-05	-0.00012	-0.0001	0.00027	0.0001	-5e-05	0.00017	6
36919	3e-05	-4e-05	-0.00012	-0.0001	0.00027	0.0001	-5e-05	0.00017	6
36920	3e-05	-4e-05	-0.00012	-0.0001	0.00027	0.0001	-5e-05	0.00017	6
36921	3e-05	-4e-05	-0.00012	-0.0001	0.00027	0.0001	-5e-05	0.00017	6
36922	3e-05	-4e-05	-0.00012	-0.0001	0.00027	0.0001	-5e-05	0.00017	6
36923	3e-05	-4e-05	-0.00012	-0.0001	0.00027	0.0001	-5e-05	0.00017	6
36924	2e-05	5e-05	6e-05	-0.00015	-7e-05	0.00011	-0.00015	-0.00013	6
36925	-0.00012	-5e-05	1e-05	0.0002	9e-05	-3e-05	-0.0002	-0.00022	6
36926	-0.00012	-5e-05	1e-05	0.0002	9e-05	-3e-05	-0.0002	-0.00022	6
36927	-0.00012	-5e-05	1e-05	0.0002	9e-05	-3e-05	-0.0002	-0.00022	6
36928	-0.00012	-5e-05	1e-05	0.0002	9e-05	-3e-05	-0.0002	-0.00022	6
36929	-0.00012	-5e-05	1e-05	0.0002	9e-05	-3e-05	-0.0002	-0.00022	6
36930	-0.00012	-5e-05	1e-05	0.0002	9e-05	-3e-05	-0.0002	-0.00022	6
36931	-0.00012	-5e-05	1e-05	0.0002	9e-05	-3e-05	-0.0002	-0.00022	6
36932	-0.00012	-5e-05	1e-05	0.0002	9e-05	-3e-05	-0.0002	-0.00022	6
36933	-0.00012	-5e-05	1e-05	0.0002	9e-05	-3e-05	-0.0002	-0.00022	6
36934	-0.00012	-5e-05	1e-05	0.0002	9e-05	-3e-05	-0.0002	-0.00022	6
36935	-0.00012	-5e-05	1e-05	0.0002	9e-05	-3e-05	-0.0002	-0.00022	6
36936	-0.00012	-5e-05	1e-05	0.0002	9e-05	-3e-05	-0.0002	-0.00022	6
36938	-0.00012	-5e-05	1e-05	0.0002	9e-05	-3e-05	-0.0002	-0.00022	6
36939	-0.00012	-5e-05	1e-05	0.0002	9e-05	-3e-05	-0.0002	-0.00022	6
36940	-0.00012	-5e-05	1e-05	0.0002	9e-05	-3e-05	-0.0002	-0.00022	6
36941	-0.00012	-5e-05	1e-05	0.0002	9e-05	-3e-05	-0.0002	-0.00022	6
36942	-0.00012	-5e-05	1e-05	0.0002	9e-05	-3e-05	-0.0002	-0.00022	6
36943	-0.00012	-5e-05	1e-05	0.0002	9e-05	-3e-05	-0.0002	-0.00022	6
36944	-0.00012	-5e-05	1e-05	0.0002	9e-05	-3e-05	-0.0002	-0.00022	6
36945	-0.00012	-5e-05	1e-05	0.0002	9e-05	-3e-05	-0.0002	-0.00022	6
36946	5e-05	-1e-05	5e-05	0.00031	0.0003	0.00018	0.00029	-0.00018	6
36947	5e-05	-1e-05	5e-05	0.00031	0.0003	0.00018	0.00029	-0.00018	6
36948	-2e-05	-2e-05	-4e-05	-0.00046	-0.00014	-0.00021	-1e-05	-0.00026	6
36949	-2e-05	-2e-05	-4e-05	-0.00046	-0.00014	-0.00021	-1e-05	-0.00026	6
36950	-2e-05	-2e-05	-4e-05	-0.00046	-0.00014	-0.00021	-1e-05	-0.00026	6
36951	-2e-05	-2e-05	-4e-05	-0.00046	-0.00014	-0.00021	-1e-05	-0.00026	6
36952	-2e-05	-2e-05	-4e-05	-0.00046	-0.00014	-0.00021	-1e-05	-0.00026	6
36953	-2e-05	-2e-05	-4e-05	-0.00046	-0.00014	-0.00021	-1e-05	-0.00026	6
36954	-2e-05	-2e-05	-4e-05	-0.00046	-0.00014	-0.00021	-1e-05	-0.00026	6
36955	-2e-05	-2e-05	-4e-05	-0.00046	-0.00014	-0.00021	-1e-05	-0.00026	6
36956	-2e-05	-2e-05	-4e-05	-0.00046	-0.00014	-0.00021	-1e-05	-0.00026	6
36957	-2e-05	-2e-05	-4e-05	-0.00046	-0.00014	-0.00021	-1e-05	-0.00026	6
36958	-2e-05	-2e-05	-4e-05	-0.00046	-0.00014	-0.00021	-1e-05	-0.00026	6
36959	-2e-05	-2e-05	-4e-05	-0.00046	-0.00014	-0.00021	-1e-05	-0.00026	6
36960	-2e-05	-2e-05	-4e-05	-0.00046	-0.00014	-0.00021	-1e-05	-0.00026	6
36961	-2e-05	-2e-05	-4e-05	-0.00046	-0.00014	-0.00021	-1e-05	-0.00026	6
36962	-2e-05	-2e-05	-4e-05	-0.00046	-0.00014	-0.00021	-1e-05	-0.00026	6
36963	-2e-05	-2e-05	-4e-05	-0.00046	-0.00014	-0.00021	-1e-05	-0.00026	6
36964	-2e-05	-2e-05	-4e-05	-0.00046	-0.00014	-0.00021	-1e-05	-0.00026	6
36965	-2e-05	-2e-05	-4e-05	-0.00046	-0.00014	-0.00021	-1e-05	-0.00026	6
36966	-2e-05	-2e-05	-4e-05	-0.00046	-0.00014	-0.00021	-1e-05	-0.00026	6
36967	-2e-05	-2e-05	-4e-05	-0.00046	-0.00014	-0.00021	-1e-05	-0.00026	6
36968	-2e-05	-2e-05	-4e-05	-0.00046	-0.00014	-0.00021	-1e-05	-0.00026	6
36969	-5e-05	-5e-05	-2e-05	0.0004	-1e-05	5e-05	-0.00013	-2e-05	6
36970	5e-05	7e-05	0.00012	0.00023	-0.00017	-9e-05	0.00017	9e-05	6
36971	5e-05	7e-05	0.00012	0.00023	-0.00017	-9e-05	0.00017	9e-05	6
36972	5e-05	7e-05	0.00012	0.00023	-0.00017	-9e-05	0.00017	9e-05	6
36973	5e-05	7e-05	0.00012	0.00023	-0.00017	-9e-05	0.00017	9e-05	6
36974	5e-05	7e-05	0.00012	0.00023	-0.00017	-9e-05	0.00017	9e-05	6
36975	5e-05	7e-05	0.00012	0.00023	-0.00017	-9e-05	0.00017	9e-05	6
36976	5e-05	7e-05	0.00012	0.00023	-0.00017	-9e-05	0.00017	9e-05	6
36977	5e-05	7e-05	0.00012	0.00023	-0.00017	-9e-05	0.00017	9e-05	6
36978	5e-05	7e-05	0.00012	0.00023	-0.00017	-9e-05	0.00017	9e-05	6
36979	5e-05	7e-05	0.00012	0.00023	-0.00017	-9e-05	0.00017	9e-05	6
36980	5e-05	7e-05	0.00012	0.00023	-0.00017	-9e-05	0.00017	9e-05	6
36981	5e-05	7e-05	0.00012	0.00023	-0.00017	-9e-05	0.00017	9e-05	6
36982	5e-05	7e-05	0.00012	0.00023	-0.00017	-9e-05	0.00017	9e-05	6
36983	-0.00015	1e-05	-6e-05	-0.00052	-0.00071	0.0001	0.0001	7e-05	6
36984	-0.00015	1e-05	-6e-05	-0.00052	-0.00071	0.0001	0.0001	7e-05	6
36985	-0.00015	1e-05	-6e-05	-0.00052	-0.00071	0.0001	0.0001	7e-05	6
36986	-0.00015	1e-05	-6e-05	-0.00052	-0.00071	0.0001	0.0001	7e-05	6
36988	-0.00015	1e-05	-6e-05	-0.00052	-0.00071	0.0001	0.0001	7e-05	6
36989	-0.00015	1e-05	-6e-05	-0.00052	-0.00071	0.0001	0.0001	7e-05	6
36990	8e-05	-3e-05	3e-05	0.00064	0.00061	-4e-05	-0.0002	0.00015	6
36991	8e-05	-3e-05	3e-05	0.00064	0.00061	-4e-05	-0.0002	0.00015	6
36992	8e-05	-3e-05	3e-05	0.00064	0.00061	-4e-05	-0.0002	0.00015	6
36993	8e-05	-3e-05	3e-05	0.00064	0.00061	-4e-05	-0.0002	0.00015	6
36994	8e-05	-3e-05	3e-05	0.00064	0.00061	-4e-05	-0.0002	0.00015	6
36995	8e-05	-3e-05	3e-05	0.00064	0.00061	-4e-05	-0.0002	0.00015	6
36996	8e-05	-3e-05	3e-05	0.00064	0.00061	-4e-05	-0.0002	0.00015	6
36997	8e-05	-3e-05	3e-05	0.00064	0.00061	-4e-05	-0.0002	0.00015	6
36998	8e-05	-3e-05	3e-05	0.00064	0.00061	-4e-05	-0.0002	0.00015	6
36999	8e-05	-3e-05	3e-05	0.00064	0.00061	-4e-05	-0.0002	0.00015	6
37000	8e-05	-3e-05	3e-05	0.00064	0.00061	-4e-05	-0.0002	0.00015	6
37001	8e-05	-3e-05	3e-05	0.00064	0.00061	-4e-05	-0.0002	0.00015	6
37002	8e-05	-3e-05	3e-05	0.00064	0.00061	-4e-05	-0.0002	0.00015	6
37003	8e-05	-3e-05	3e-05	0.00064	0.00061	-4e-05	-0.0002	0.00015	6
37004	8e-05	-3e-05	3e-05	0.00064	0.00061	-4e-05	-0.0002	0.00015	6
37005	8e-05	-3e-05	3e-05	0.00064	0.00061	-4e-05	-0.0002	0.00015	6
37006	-0.00011	-0.0001	-3e-05	0.00014	-2e-05	0.00014	8e-05	-3e-05	6
37007	-0.00011	-0.0001	-3e-05	0.00014	-2e-05	0.00014	8e-05	-3e-05	6
37008	-0.00016	-1e-05	-1e-05	0.00011	-1e-05	0.00019	3e-05	-0.00036	6
37009	-0.00016	-1e-05	-1e-05	0.00011	-1e-05	0.00019	3e-05	-0.00036	6
37010	-0.00016	-1e-05	-1e-05	0.00011	-1e-05	0.00019	3e-05	-0.00036	6
37011	-0.00016	-1e-05	-1e-05	0.00011	-1e-05	0.00019	3e-05	-0.00036	6
37012	-0.00016	-1e-05	-1e-05	0.00011	-1e-05	0.00019	3e-05	-0.00036	6
37013	-0.00016	-1e-05	-1e-05	0.00011	-1e-05	0.00019	3e-05	-0.00036	6
37014	-0.00016	-1e-05	-1e-05	0.00011	-1e-05	0.00019	3e-05	-0.00036	6
37015	-0.00016	-1e-05	-1e-05	0.00011	-1e-05	0.00019	3e-05	-0.00036	6
37016	-0.00016	-1e-05	-1e-05	0.00011	-1e-05	0.00019	3e-05	-0.00036	6
37017	-0.00016	-1e-05	-1e-05	0.00011	-1e-05	0.00019	3e-05	-0.00036	6
37018	-0.00016	-1e-05	-1e-05	0.00011	-1e-05	0.00019	3e-05	-0.00036	6
37019	-0.00016	-1e-05	-1e-05	0.00011	-1e-05	0.00019	3e-05	-0.00036	6
37020	-0.00016	-1e-05	-1e-05	0.00011	-1e-05	0.00019	3e-05	-0.00036	6
37021	-0.00016	-1e-05	-1e-05	0.00011	-1e-05	0.00019	3e-05	-0.00036	6
37022	-0.00016	-1e-05	-1e-05	0.00011	-1e-05	0.00019	3e-05	-0.00036	6
37023	-0.00016	-1e-05	-1e-05	0.00011	-1e-05	0.00019	3e-05	-0.00036	6
37024	-0.00016	-1e-05	-1e-05	0.00011	-1e-05	0.00019	3e-05	-0.00036	6
37025	-0.00016	-1e-05	-1e-05	0.00011	-1e-05	0.00019	3e-05	-0.00036	6
37026	-0.00016	-1e-05	-1e-05	0.00011	-1e-05	0.00019	3e-05	-0.00036	6
37027	-0.00016	-1e-05	-1e-05	0.00011	-1e-05	0.00019	3e-05	-0.00036	6
37028	-0.00016	-1e-05	-1e-05	0.00011	-1e-05	0.00019	3e-05	-0.00036	6
37029	0.00013	-3e-05	-5e-05	0.00015	0.00051	-0.00026	-0.00018	-0.00022	6
37030	5e-05	-3e-05	-5e-05	-0.00018	0.00022	0.00013	-0.00039	0.00015	6
37031	5e-05	-3e-05	-5e-05	-0.00018	0.00022	0.00013	-0.00039	0.00015	6
37032	5e-05	-3e-05	-5e-05	-0.00018	0.00022	0.00013	-0.00039	0.00015	6
37033	5e-05	-3e-05	-5e-05	-0.00018	0.00022	0.00013	-0.00039	0.00015	6
37034	5e-05	-3e-05	-5e-05	-0.00018	0.00022	0.00013	-0.00039	0.00015	6
37035	5e-05	-3e-05	-5e-05	-0.00018	0.00022	0.00013	-0.00039	0.00015	6
37036	5e-05	-3e-05	-5e-05	-0.00018	0.00022	0.00013	-0.00039	0.00015	6
37038	5e-05	-3e-05	-5e-05	-0.00018	0.00022	0.00013	-0.00039	0.00015	6
37039	5e-05	-3e-05	-5e-05	-0.00018	0.00022	0.00013	-0.00039	0.00015	6
37040	5e-05	-3e-05	-5e-05	-0.00018	0.00022	0.00013	-0.00039	0.00015	6
37041	5e-05	-3e-05	-5e-05	-0.00018	0.00022	0.00013	-0.00039	0.00015	6
37042	5e-05	-3e-05	-5e-05	-0.00018	0.00022	0.00013	-0.00039	0.00015	6
37043	-6e-05	0	1e-05	-4e-05	-0.00022	-0.00015	-9e-05	0	6
37044	-6e-05	0	1e-05	-4e-05	-0.00022	-0.00015	-9e-05	0	6
37045	-6e-05	0	1e-05	-4e-05	-0.00022	-0.00015	-9e-05	0	6
37046	-6e-05	0	1e-05	-4e-05	-0.00022	-0.00015	-9e-05	0	6
37047	-6e-05	0	1e-05	-4e-05	-0.00022	-0.00015	-9e-05	0	6
37048	-6e-05	0	1e-05	-4e-05	-0.00022	-0.00015	-9e-05	0	6
37049	-6e-05	0	1e-05	-4e-05	-0.00022	-0.00015	-9e-05	0	6
37050	-0.0002	-4e-05	-7e-05	0.0001	0.00064	0.00013	0.00043	-0.00058	6
37052	-0.0002	-4e-05	-7e-05	0.0001	0.00064	0.00013	0.00043	-0.00058	6
37053	-0.0002	-4e-05	-7e-05	0.0001	0.00064	0.00013	0.00043	-0.00058	6
37054	-0.0002	-4e-05	-7e-05	0.0001	0.00064	0.00013	0.00043	-0.00058	6
37055	-0.0002	-4e-05	-7e-05	0.0001	0.00064	0.00013	0.00043	-0.00058	6
37056	-0.0002	-4e-05	-7e-05	0.0001	0.00064	0.00013	0.00043	-0.00058	6
37057	-0.0002	-4e-05	-7e-05	0.0001	0.00064	0.00013	0.00043	-0.00058	6
37058	-0.0002	-4e-05	-7e-05	0.0001	0.00064	0.00013	0.00043	-0.00058	6
37059	-0.0002	-4e-05	-7e-05	0.0001	0.00064	0.00013	0.00043	-0.00058	6
37060	-0.0002	-4e-05	-7e-05	0.0001	0.00064	0.00013	0.00043	-0.00058	6
37061	-0.0002	-4e-05	-7e-05	0.0001	0.00064	0.00013	0.00043	-0.00058	6
37062	-0.0002	-4e-05	-7e-05	0.0001	0.00064	0.00013	0.00043	-0.00058	6
37063	-0.0002	-4e-05	-7e-05	0.0001	0.00064	0.00013	0.00043	-0.00058	6
37064	-0.0002	-4e-05	-7e-05	0.0001	0.00064	0.00013	0.00043	-0.00058	6
37065	-0.0002	-4e-05	-7e-05	0.0001	0.00064	0.00013	0.00043	-0.00058	6
37066	-0.0002	-4e-05	-7e-05	0.0001	0.00064	0.00013	0.00043	-0.00058	6
37067	0.00013	1e-05	-6e-05	3e-05	0.00078	8e-05	0.00012	0.00041	6
37068	7e-05	4e-05	5e-05	9e-05	-0.00027	-0.00014	3e-05	0.0002	6
37069	7e-05	4e-05	5e-05	9e-05	-0.00027	-0.00014	3e-05	0.0002	6
37070	7e-05	4e-05	5e-05	9e-05	-0.00027	-0.00014	3e-05	0.0002	6
37071	7e-05	4e-05	5e-05	9e-05	-0.00027	-0.00014	3e-05	0.0002	6
37072	7e-05	4e-05	5e-05	9e-05	-0.00027	-0.00014	3e-05	0.0002	6
37073	7e-05	4e-05	5e-05	9e-05	-0.00027	-0.00014	3e-05	0.0002	6
37074	7e-05	4e-05	5e-05	9e-05	-0.00027	-0.00014	3e-05	0.0002	6
37075	7e-05	4e-05	5e-05	9e-05	-0.00027	-0.00014	3e-05	0.0002	6
37076	7e-05	4e-05	5e-05	9e-05	-0.00027	-0.00014	3e-05	0.0002	6
37077	7e-05	4e-05	5e-05	9e-05	-0.00027	-0.00014	3e-05	0.0002	6
37078	7e-05	4e-05	5e-05	9e-05	-0.00027	-0.00014	3e-05	0.0002	6
37079	7e-05	4e-05	5e-05	9e-05	-0.00027	-0.00014	3e-05	0.0002	6
37080	7e-05	4e-05	5e-05	9e-05	-0.00027	-0.00014	3e-05	0.0002	6
37081	7e-05	4e-05	5e-05	9e-05	-0.00027	-0.00014	3e-05	0.0002	6
37082	7e-05	4e-05	5e-05	9e-05	-0.00027	-0.00014	3e-05	0.0002	6
37083	7e-05	4e-05	5e-05	9e-05	-0.00027	-0.00014	3e-05	0.0002	6
37084	7e-05	4e-05	5e-05	9e-05	-0.00027	-0.00014	3e-05	0.0002	6
37085	7e-05	4e-05	5e-05	9e-05	-0.00027	-0.00014	3e-05	0.0002	6
37086	7e-05	4e-05	5e-05	9e-05	-0.00027	-0.00014	3e-05	0.0002	6
37088	-3e-05	-2e-05	-5e-05	-0.00019	-0.001	-0.00022	0.00029	0.00012	6
37089	-3e-05	-2e-05	-5e-05	-0.00019	-0.001	-0.00022	0.00029	0.00012	6
37090	-3e-05	-2e-05	-5e-05	-0.00019	-0.001	-0.00022	0.00029	0.00012	6
37091	-3e-05	-2e-05	-5e-05	-0.00019	-0.001	-0.00022	0.00029	0.00012	6
37092	-3e-05	-2e-05	-5e-05	-0.00019	-0.001	-0.00022	0.00029	0.00012	6
37093	-3e-05	-2e-05	-5e-05	-0.00019	-0.001	-0.00022	0.00029	0.00012	6
37094	-3e-05	-2e-05	-5e-05	-0.00019	-0.001	-0.00022	0.00029	0.00012	6
37095	-3e-05	-2e-05	-5e-05	-0.00019	-0.001	-0.00022	0.00029	0.00012	6
37096	-2e-05	-6e-05	-5e-05	-8e-05	-0.00043	-0.00041	-0.00042	-0.00016	6
37097	-2e-05	-6e-05	-5e-05	-8e-05	-0.00043	-0.00041	-0.00042	-0.00016	6
37098	-2e-05	-6e-05	-5e-05	-8e-05	-0.00043	-0.00041	-0.00042	-0.00016	6
37099	-2e-05	-6e-05	-5e-05	-8e-05	-0.00043	-0.00041	-0.00042	-0.00016	6
37100	-2e-05	-6e-05	-5e-05	-8e-05	-0.00043	-0.00041	-0.00042	-0.00016	6
37101	-2e-05	-6e-05	-5e-05	-8e-05	-0.00043	-0.00041	-0.00042	-0.00016	6
37102	-2e-05	-6e-05	-5e-05	-8e-05	-0.00043	-0.00041	-0.00042	-0.00016	6
37103	0.00015	-1e-05	-5e-05	3e-05	-6e-05	-0.0002	3e-05	8e-05	6
37104	0.00015	-1e-05	-5e-05	3e-05	-6e-05	-0.0002	3e-05	8e-05	6
37105	0.00015	-1e-05	-5e-05	3e-05	-6e-05	-0.0002	3e-05	8e-05	6
37106	0.00015	-1e-05	-5e-05	3e-05	-6e-05	-0.0002	3e-05	8e-05	6
37107	0.00015	-1e-05	-5e-05	3e-05	-6e-05	-0.0002	3e-05	8e-05	6
37108	0.00015	-1e-05	-5e-05	3e-05	-6e-05	-0.0002	3e-05	8e-05	6
37109	0.00015	-1e-05	-5e-05	3e-05	-6e-05	-0.0002	3e-05	8e-05	6
37110	-8e-05	-1e-05	2e-05	5e-05	0.00047	0.00019	0.00021	8e-05	6
37111	-8e-05	-1e-05	2e-05	5e-05	0.00047	0.00019	0.00021	8e-05	6
37112	-8e-05	-1e-05	2e-05	5e-05	0.00047	0.00019	0.00021	8e-05	6
37113	-8e-05	-1e-05	2e-05	5e-05	0.00047	0.00019	0.00021	8e-05	6
37114	-8e-05	-1e-05	2e-05	5e-05	0.00047	0.00019	0.00021	8e-05	6
37115	-8e-05	-1e-05	2e-05	5e-05	0.00047	0.00019	0.00021	8e-05	6
37116	-8e-05	-1e-05	2e-05	5e-05	0.00047	0.00019	0.00021	8e-05	6
37117	-8e-05	-1e-05	2e-05	5e-05	0.00047	0.00019	0.00021	8e-05	6
37118	-8e-05	-1e-05	2e-05	5e-05	0.00047	0.00019	0.00021	8e-05	6
37119	-8e-05	-1e-05	2e-05	5e-05	0.00047	0.00019	0.00021	8e-05	6
37120	-8e-05	-1e-05	2e-05	5e-05	0.00047	0.00019	0.00021	8e-05	6
37121	-8e-05	-1e-05	2e-05	5e-05	0.00047	0.00019	0.00021	8e-05	6
37122	-8e-05	-1e-05	2e-05	5e-05	0.00047	0.00019	0.00021	8e-05	6
37123	-8e-05	-1e-05	2e-05	5e-05	0.00047	0.00019	0.00021	8e-05	6
37124	-8e-05	-1e-05	2e-05	5e-05	0.00047	0.00019	0.00021	8e-05	6
37125	-8e-05	-1e-05	2e-05	5e-05	0.00047	0.00019	0.00021	8e-05	6
37126	-0.00021	-5e-05	-3e-05	-0.00017	-0.00018	-6e-05	-0.00038	-9e-05	6
37127	-0.00021	-5e-05	-3e-05	-0.00017	-0.00018	-6e-05	-0.00038	-9e-05	6
37128	8e-05	-1e-05	0	0.00017	0.00068	0.0001	0.00018	0.00017	6
37129	8e-05	-1e-05	0	0.00017	0.00068	0.0001	0.00018	0.00017	6
37130	8e-05	-1e-05	0	0.00017	0.00068	0.0001	0.00018	0.00017	6
37131	8e-05	-1e-05	0	0.00017	0.00068	0.0001	0.00018	0.00017	6
37132	8e-05	-1e-05	0	0.00017	0.00068	0.0001	0.00018	0.00017	6
37133	8e-05	-1e-05	0	0.00017	0.00068	0.0001	0.00018	0.00017	6
37134	8e-05	-1e-05	0	0.00017	0.00068	0.0001	0.00018	0.00017	6
37135	8e-05	-1e-05	0	0.00017	0.00068	0.0001	0.00018	0.00017	6
37136	8e-05	-1e-05	0	0.00017	0.00068	0.0001	0.00018	0.00017	6
37138	8e-05	-1e-05	0	0.00017	0.00068	0.0001	0.00018	0.00017	6
37139	8e-05	-1e-05	0	0.00017	0.00068	0.0001	0.00018	0.00017	6
37140	8e-05	-1e-05	0	0.00017	0.00068	0.0001	0.00018	0.00017	6
37141	8e-05	-1e-05	0	0.00017	0.00068	0.0001	0.00018	0.00017	6
37142	8e-05	-1e-05	0	0.00017	0.00068	0.0001	0.00018	0.00017	6
37143	8e-05	-1e-05	0	0.00017	0.00068	0.0001	0.00018	0.00017	6
37144	8e-05	-1e-05	0	0.00017	0.00068	0.0001	0.00018	0.00017	6
37145	8e-05	-1e-05	0	0.00017	0.00068	0.0001	0.00018	0.00017	6
37146	8e-05	-1e-05	0	0.00017	0.00068	0.0001	0.00018	0.00017	6
37147	8e-05	-1e-05	0	0.00017	0.00068	0.0001	0.00018	0.00017	6
37148	8e-05	-1e-05	0	0.00017	0.00068	0.0001	0.00018	0.00017	6
37149	0.00015	5e-05	0	-8e-05	0.00045	0.00041	0.00027	0.00023	6
37150	-2e-05	-5e-05	-4e-05	-0.00019	-0.00065	-1e-05	-4e-05	1e-05	6
37151	-2e-05	-5e-05	-4e-05	-0.00019	-0.00065	-1e-05	-4e-05	1e-05	6
37152	-2e-05	-5e-05	-4e-05	-0.00019	-0.00065	-1e-05	-4e-05	1e-05	6
37153	-2e-05	-5e-05	-4e-05	-0.00019	-0.00065	-1e-05	-4e-05	1e-05	6
37154	-2e-05	-5e-05	-4e-05	-0.00019	-0.00065	-1e-05	-4e-05	1e-05	6
37155	-2e-05	-5e-05	-4e-05	-0.00019	-0.00065	-1e-05	-4e-05	1e-05	6
37156	-2e-05	-5e-05	-4e-05	-0.00019	-0.00065	-1e-05	-4e-05	1e-05	6
37157	-2e-05	-5e-05	-4e-05	-0.00019	-0.00065	-1e-05	-4e-05	1e-05	6
37158	-2e-05	-5e-05	-4e-05	-0.00019	-0.00065	-1e-05	-4e-05	1e-05	6
37159	-2e-05	-5e-05	-4e-05	-0.00019	-0.00065	-1e-05	-4e-05	1e-05	6
37160	-2e-05	-5e-05	-4e-05	-0.00019	-0.00065	-1e-05	-4e-05	1e-05	6
37161	-2e-05	-5e-05	-4e-05	-0.00019	-0.00065	-1e-05	-4e-05	1e-05	6
37162	-2e-05	-5e-05	-4e-05	-0.00019	-0.00065	-1e-05	-4e-05	1e-05	6
37163	-5e-05	1e-05	1e-05	-0.00014	-0.00039	0.0001	-1e-05	-0.0002	6
37164	-5e-05	1e-05	1e-05	-0.00014	-0.00039	0.0001	-1e-05	-0.0002	6
37165	-5e-05	1e-05	1e-05	-0.00014	-0.00039	0.0001	-1e-05	-0.0002	6
37166	-5e-05	1e-05	1e-05	-0.00014	-0.00039	0.0001	-1e-05	-0.0002	6
37167	-5e-05	1e-05	1e-05	-0.00014	-0.00039	0.0001	-1e-05	-0.0002	6
37168	-5e-05	1e-05	1e-05	-0.00014	-0.00039	0.0001	-1e-05	-0.0002	6
37169	-5e-05	1e-05	1e-05	-0.00014	-0.00039	0.0001	-1e-05	-0.0002	6
37170	0.00019	5e-05	0.0001	0.00012	0.00058	0.00071	0.00015	0.00032	6
37171	0.00019	5e-05	0.0001	0.00012	0.00058	0.00071	0.00015	0.00032	6
37172	0.00019	5e-05	0.0001	0.00012	0.00058	0.00071	0.00015	0.00032	6
37173	0.00019	5e-05	0.0001	0.00012	0.00058	0.00071	0.00015	0.00032	6
37174	0.00019	5e-05	0.0001	0.00012	0.00058	0.00071	0.00015	0.00032	6
37175	0.00019	5e-05	0.0001	0.00012	0.00058	0.00071	0.00015	0.00032	6
37176	0.00019	5e-05	0.0001	0.00012	0.00058	0.00071	0.00015	0.00032	6
37177	0.00019	5e-05	0.0001	0.00012	0.00058	0.00071	0.00015	0.00032	6
37178	0.00019	5e-05	0.0001	0.00012	0.00058	0.00071	0.00015	0.00032	6
37179	0.00019	5e-05	0.0001	0.00012	0.00058	0.00071	0.00015	0.00032	6
37180	0.00019	5e-05	0.0001	0.00012	0.00058	0.00071	0.00015	0.00032	6
37181	0.00019	5e-05	0.0001	0.00012	0.00058	0.00071	0.00015	0.00032	6
37182	0.00019	5e-05	0.0001	0.00012	0.00058	0.00071	0.00015	0.00032	6
37183	0.00019	5e-05	0.0001	0.00012	0.00058	0.00071	0.00015	0.00032	6
37184	0.00019	5e-05	0.0001	0.00012	0.00058	0.00071	0.00015	0.00032	6
37185	0.00019	5e-05	0.0001	0.00012	0.00058	0.00071	0.00015	0.00032	6
37186	-0.0001	-2e-05	-2e-05	0.00018	-0.00015	-0.00013	2e-05	-0.00033	6
37188	-8e-05	-4e-05	-9e-05	-0.00051	-0.00025	-0.00022	-0.00025	-0.00046	6
37189	-8e-05	-4e-05	-9e-05	-0.00051	-0.00025	-0.00022	-0.00025	-0.00046	6
37190	-8e-05	-4e-05	-9e-05	-0.00051	-0.00025	-0.00022	-0.00025	-0.00046	6
37191	-8e-05	-4e-05	-9e-05	-0.00051	-0.00025	-0.00022	-0.00025	-0.00046	6
37192	-8e-05	-4e-05	-9e-05	-0.00051	-0.00025	-0.00022	-0.00025	-0.00046	6
37193	-8e-05	-4e-05	-9e-05	-0.00051	-0.00025	-0.00022	-0.00025	-0.00046	6
37194	-8e-05	-4e-05	-9e-05	-0.00051	-0.00025	-0.00022	-0.00025	-0.00046	6
37195	-8e-05	-4e-05	-9e-05	-0.00051	-0.00025	-0.00022	-0.00025	-0.00046	6
37196	-8e-05	-4e-05	-9e-05	-0.00051	-0.00025	-0.00022	-0.00025	-0.00046	6
37197	-8e-05	-4e-05	-9e-05	-0.00051	-0.00025	-0.00022	-0.00025	-0.00046	6
37198	-8e-05	-4e-05	-9e-05	-0.00051	-0.00025	-0.00022	-0.00025	-0.00046	6
37199	-8e-05	-4e-05	-9e-05	-0.00051	-0.00025	-0.00022	-0.00025	-0.00046	6
37200	-8e-05	-4e-05	-9e-05	-0.00051	-0.00025	-0.00022	-0.00025	-0.00046	6
37201	-8e-05	-4e-05	-9e-05	-0.00051	-0.00025	-0.00022	-0.00025	-0.00046	6
37202	-8e-05	-4e-05	-9e-05	-0.00051	-0.00025	-0.00022	-0.00025	-0.00046	6
37203	-8e-05	-4e-05	-9e-05	-0.00051	-0.00025	-0.00022	-0.00025	-0.00046	6
37204	-8e-05	-4e-05	-9e-05	-0.00051	-0.00025	-0.00022	-0.00025	-0.00046	6
37205	-8e-05	-4e-05	-9e-05	-0.00051	-0.00025	-0.00022	-0.00025	-0.00046	6
37206	-8e-05	-4e-05	-9e-05	-0.00051	-0.00025	-0.00022	-0.00025	-0.00046	6
37207	-8e-05	-4e-05	-9e-05	-0.00051	-0.00025	-0.00022	-0.00025	-0.00046	6
37208	-8e-05	-4e-05	-9e-05	-0.00051	-0.00025	-0.00022	-0.00025	-0.00046	6
37209	0	3e-05	4e-05	0.00013	0.00014	0.00018	4e-05	0.00015	6
37210	6e-05	3e-05	-5e-05	-0.00038	-0.00098	-0.00062	-0.00017	0.00026	6
37211	6e-05	3e-05	-5e-05	-0.00038	-0.00098	-0.00062	-0.00017	0.00026	6
37212	6e-05	3e-05	-5e-05	-0.00038	-0.00098	-0.00062	-0.00017	0.00026	6
37213	6e-05	3e-05	-5e-05	-0.00038	-0.00098	-0.00062	-0.00017	0.00026	6
37214	6e-05	3e-05	-5e-05	-0.00038	-0.00098	-0.00062	-0.00017	0.00026	6
37215	6e-05	3e-05	-5e-05	-0.00038	-0.00098	-0.00062	-0.00017	0.00026	6
37216	6e-05	3e-05	-5e-05	-0.00038	-0.00098	-0.00062	-0.00017	0.00026	6
37217	6e-05	3e-05	-5e-05	-0.00038	-0.00098	-0.00062	-0.00017	0.00026	6
37218	6e-05	3e-05	-5e-05	-0.00038	-0.00098	-0.00062	-0.00017	0.00026	6
37219	6e-05	3e-05	-5e-05	-0.00038	-0.00098	-0.00062	-0.00017	0.00026	6
37220	6e-05	3e-05	-5e-05	-0.00038	-0.00098	-0.00062	-0.00017	0.00026	6
37221	6e-05	3e-05	-5e-05	-0.00038	-0.00098	-0.00062	-0.00017	0.00026	6
37222	6e-05	3e-05	-5e-05	-0.00038	-0.00098	-0.00062	-0.00017	0.00026	6
37223	0.00023	-1e-05	1e-05	0.00019	0.00095	-0.00033	-1e-05	0.00028	6
37224	0.00023	-1e-05	1e-05	0.00019	0.00095	-0.00033	-1e-05	0.00028	6
37225	0.00023	-1e-05	1e-05	0.00019	0.00095	-0.00033	-1e-05	0.00028	6
37226	0.00023	-1e-05	1e-05	0.00019	0.00095	-0.00033	-1e-05	0.00028	6
37227	0.00023	-1e-05	1e-05	0.00019	0.00095	-0.00033	-1e-05	0.00028	6
37228	0.00023	-1e-05	1e-05	0.00019	0.00095	-0.00033	-1e-05	0.00028	6
37229	0.00023	-1e-05	1e-05	0.00019	0.00095	-0.00033	-1e-05	0.00028	6
37230	5e-05	2e-05	1e-05	8e-05	-0.00034	-0.00017	0.0001	0.00013	6
37231	5e-05	2e-05	1e-05	8e-05	-0.00034	-0.00017	0.0001	0.00013	6
37232	5e-05	2e-05	1e-05	8e-05	-0.00034	-0.00017	0.0001	0.00013	6
37233	5e-05	2e-05	1e-05	8e-05	-0.00034	-0.00017	0.0001	0.00013	6
37234	5e-05	2e-05	1e-05	8e-05	-0.00034	-0.00017	0.0001	0.00013	6
37235	5e-05	2e-05	1e-05	8e-05	-0.00034	-0.00017	0.0001	0.00013	6
37236	5e-05	2e-05	1e-05	8e-05	-0.00034	-0.00017	0.0001	0.00013	6
37238	5e-05	2e-05	1e-05	8e-05	-0.00034	-0.00017	0.0001	0.00013	6
37239	5e-05	2e-05	1e-05	8e-05	-0.00034	-0.00017	0.0001	0.00013	6
37240	5e-05	2e-05	1e-05	8e-05	-0.00034	-0.00017	0.0001	0.00013	6
37241	5e-05	2e-05	1e-05	8e-05	-0.00034	-0.00017	0.0001	0.00013	6
37242	5e-05	2e-05	1e-05	8e-05	-0.00034	-0.00017	0.0001	0.00013	6
37243	5e-05	2e-05	1e-05	8e-05	-0.00034	-0.00017	0.0001	0.00013	6
37244	5e-05	2e-05	1e-05	8e-05	-0.00034	-0.00017	0.0001	0.00013	6
37245	5e-05	2e-05	1e-05	8e-05	-0.00034	-0.00017	0.0001	0.00013	6
37246	-0.00019	-7e-05	-7e-05	-0.00038	-0.00059	-0.00046	-0.00033	-0.00049	6
37247	-0.00019	-7e-05	-7e-05	-0.00038	-0.00059	-0.00046	-0.00033	-0.00049	6
37248	-4e-05	-0.0001	-0.00019	-0.00012	-5e-05	0.0001	0	0.00016	6
37249	-4e-05	-0.0001	-0.00019	-0.00012	-5e-05	0.0001	0	0.00016	6
37250	-4e-05	-0.0001	-0.00019	-0.00012	-5e-05	0.0001	0	0.00016	6
37251	-4e-05	-0.0001	-0.00019	-0.00012	-5e-05	0.0001	0	0.00016	6
37252	-4e-05	-0.0001	-0.00019	-0.00012	-5e-05	0.0001	0	0.00016	6
37253	-4e-05	-0.0001	-0.00019	-0.00012	-5e-05	0.0001	0	0.00016	6
37254	-4e-05	-0.0001	-0.00019	-0.00012	-5e-05	0.0001	0	0.00016	6
37255	-4e-05	-0.0001	-0.00019	-0.00012	-5e-05	0.0001	0	0.00016	6
37256	-4e-05	-0.0001	-0.00019	-0.00012	-5e-05	0.0001	0	0.00016	6
37257	-4e-05	-0.0001	-0.00019	-0.00012	-5e-05	0.0001	0	0.00016	6
37258	-4e-05	-0.0001	-0.00019	-0.00012	-5e-05	0.0001	0	0.00016	6
37259	-4e-05	-0.0001	-0.00019	-0.00012	-5e-05	0.0001	0	0.00016	6
37260	-4e-05	-0.0001	-0.00019	-0.00012	-5e-05	0.0001	0	0.00016	6
37261	-4e-05	-0.0001	-0.00019	-0.00012	-5e-05	0.0001	0	0.00016	6
37262	-4e-05	-0.0001	-0.00019	-0.00012	-5e-05	0.0001	0	0.00016	6
37263	-4e-05	-0.0001	-0.00019	-0.00012	-5e-05	0.0001	0	0.00016	6
37264	-4e-05	-0.0001	-0.00019	-0.00012	-5e-05	0.0001	0	0.00016	6
37265	-4e-05	-0.0001	-0.00019	-0.00012	-5e-05	0.0001	0	0.00016	6
37266	-4e-05	-0.0001	-0.00019	-0.00012	-5e-05	0.0001	0	0.00016	6
37267	-4e-05	-0.0001	-0.00019	-0.00012	-5e-05	0.0001	0	0.00016	6
37268	-4e-05	-0.0001	-0.00019	-0.00012	-5e-05	0.0001	0	0.00016	6
37269	3e-05	0	3e-05	9e-05	-0.00028	1e-05	-0.00021	1e-05	6
37270	-6e-05	2e-05	4e-05	0.00012	-4e-05	0.00038	0.00018	-0.00017	6
37271	-6e-05	2e-05	4e-05	0.00012	-4e-05	0.00038	0.00018	-0.00017	6
37272	-6e-05	2e-05	4e-05	0.00012	-4e-05	0.00038	0.00018	-0.00017	6
37273	-6e-05	2e-05	4e-05	0.00012	-4e-05	0.00038	0.00018	-0.00017	6
37274	-6e-05	2e-05	4e-05	0.00012	-4e-05	0.00038	0.00018	-0.00017	6
37275	-6e-05	2e-05	4e-05	0.00012	-4e-05	0.00038	0.00018	-0.00017	6
37276	-6e-05	2e-05	4e-05	0.00012	-4e-05	0.00038	0.00018	-0.00017	6
37277	-6e-05	2e-05	4e-05	0.00012	-4e-05	0.00038	0.00018	-0.00017	6
37278	-6e-05	2e-05	4e-05	0.00012	-4e-05	0.00038	0.00018	-0.00017	6
37279	-6e-05	2e-05	4e-05	0.00012	-4e-05	0.00038	0.00018	-0.00017	6
37280	-6e-05	2e-05	4e-05	0.00012	-4e-05	0.00038	0.00018	-0.00017	6
37281	-6e-05	2e-05	4e-05	0.00012	-4e-05	0.00038	0.00018	-0.00017	6
37282	-0.00012	-1e-05	-1e-05	-9e-05	-0.00022	-0.00021	0.00013	0.00022	6
37283	-0.00012	-1e-05	-1e-05	-9e-05	-0.00022	-0.00021	0.00013	0.00022	6
37284	-0.00012	-1e-05	-1e-05	-9e-05	-0.00022	-0.00021	0.00013	0.00022	6
37285	-0.00012	-1e-05	-1e-05	-9e-05	-0.00022	-0.00021	0.00013	0.00022	6
37286	-0.00012	-1e-05	-1e-05	-9e-05	-0.00022	-0.00021	0.00013	0.00022	6
37288	-0.00012	-1e-05	-1e-05	-9e-05	-0.00022	-0.00021	0.00013	0.00022	6
37289	-0.00012	-1e-05	-1e-05	-9e-05	-0.00022	-0.00021	0.00013	0.00022	6
37290	-0.00012	-1e-05	-1e-05	-9e-05	-0.00022	-0.00021	0.00013	0.00022	6
37291	-5e-05	6e-05	9e-05	-5e-05	5e-05	0.0004	0.00038	0.00029	6
37292	-5e-05	6e-05	9e-05	-5e-05	5e-05	0.0004	0.00038	0.00029	6
37293	-5e-05	6e-05	9e-05	-5e-05	5e-05	0.0004	0.00038	0.00029	6
37294	-5e-05	6e-05	9e-05	-5e-05	5e-05	0.0004	0.00038	0.00029	6
37295	-5e-05	6e-05	9e-05	-5e-05	5e-05	0.0004	0.00038	0.00029	6
37296	-5e-05	6e-05	9e-05	-5e-05	5e-05	0.0004	0.00038	0.00029	6
37297	-5e-05	6e-05	9e-05	-5e-05	5e-05	0.0004	0.00038	0.00029	6
37299	-5e-05	6e-05	9e-05	-5e-05	5e-05	0.0004	0.00038	0.00029	6
37300	-5e-05	6e-05	9e-05	-5e-05	5e-05	0.0004	0.00038	0.00029	6
37301	-5e-05	6e-05	9e-05	-5e-05	5e-05	0.0004	0.00038	0.00029	6
37302	-5e-05	6e-05	9e-05	-5e-05	5e-05	0.0004	0.00038	0.00029	6
37303	-5e-05	6e-05	9e-05	-5e-05	5e-05	0.0004	0.00038	0.00029	6
37304	-5e-05	6e-05	9e-05	-5e-05	5e-05	0.0004	0.00038	0.00029	6
37305	-5e-05	6e-05	9e-05	-5e-05	5e-05	0.0004	0.00038	0.00029	6
37306	8e-05	4e-05	0.00013	0.0005	0.00073	0.00022	0.00011	0	6
37307	8e-05	4e-05	0.00013	0.0005	0.00073	0.00022	0.00011	0	6
37308	1e-05	2e-05	0	0.00013	-0.00029	-0.00032	-0.00032	-5e-05	6
37309	1e-05	2e-05	0	0.00013	-0.00029	-0.00032	-0.00032	-5e-05	6
37310	1e-05	2e-05	0	0.00013	-0.00029	-0.00032	-0.00032	-5e-05	6
37311	1e-05	2e-05	0	0.00013	-0.00029	-0.00032	-0.00032	-5e-05	6
37312	1e-05	2e-05	0	0.00013	-0.00029	-0.00032	-0.00032	-5e-05	6
37313	1e-05	2e-05	0	0.00013	-0.00029	-0.00032	-0.00032	-5e-05	6
37314	1e-05	2e-05	0	0.00013	-0.00029	-0.00032	-0.00032	-5e-05	6
37315	1e-05	2e-05	0	0.00013	-0.00029	-0.00032	-0.00032	-5e-05	6
37316	1e-05	2e-05	0	0.00013	-0.00029	-0.00032	-0.00032	-5e-05	6
37317	1e-05	2e-05	0	0.00013	-0.00029	-0.00032	-0.00032	-5e-05	6
37318	1e-05	2e-05	0	0.00013	-0.00029	-0.00032	-0.00032	-5e-05	6
37319	1e-05	2e-05	0	0.00013	-0.00029	-0.00032	-0.00032	-5e-05	6
37320	1e-05	2e-05	0	0.00013	-0.00029	-0.00032	-0.00032	-5e-05	6
37321	1e-05	2e-05	0	0.00013	-0.00029	-0.00032	-0.00032	-5e-05	6
37322	1e-05	2e-05	0	0.00013	-0.00029	-0.00032	-0.00032	-5e-05	6
37323	1e-05	2e-05	0	0.00013	-0.00029	-0.00032	-0.00032	-5e-05	6
37324	1e-05	2e-05	0	0.00013	-0.00029	-0.00032	-0.00032	-5e-05	6
37325	1e-05	2e-05	0	0.00013	-0.00029	-0.00032	-0.00032	-5e-05	6
37326	1e-05	2e-05	0	0.00013	-0.00029	-0.00032	-0.00032	-5e-05	6
37327	1e-05	2e-05	0	0.00013	-0.00029	-0.00032	-0.00032	-5e-05	6
37328	1e-05	2e-05	0	0.00013	-0.00029	-0.00032	-0.00032	-5e-05	6
37329	4e-05	2e-05	9e-05	0.00058	0.00045	0.00061	-0.00017	0.0001	6
37330	-1e-05	0	0	-0.0002	-0.00035	-0.00022	4e-05	0.00016	6
37331	-1e-05	0	0	-0.0002	-0.00035	-0.00022	4e-05	0.00016	6
37332	-1e-05	0	0	-0.0002	-0.00035	-0.00022	4e-05	0.00016	6
37333	-1e-05	0	0	-0.0002	-0.00035	-0.00022	4e-05	0.00016	6
37334	-1e-05	0	0	-0.0002	-0.00035	-0.00022	4e-05	0.00016	6
37335	-1e-05	0	0	-0.0002	-0.00035	-0.00022	4e-05	0.00016	6
37336	-1e-05	0	0	-0.0002	-0.00035	-0.00022	4e-05	0.00016	6
37338	-1e-05	0	0	-0.0002	-0.00035	-0.00022	4e-05	0.00016	6
37339	-1e-05	0	0	-0.0002	-0.00035	-0.00022	4e-05	0.00016	6
37340	-1e-05	0	0	-0.0002	-0.00035	-0.00022	4e-05	0.00016	6
37341	-1e-05	0	0	-0.0002	-0.00035	-0.00022	4e-05	0.00016	6
37342	-9e-05	-3e-05	-7e-05	-0.00057	1e-05	0.00023	-3e-05	0.00014	6
37343	-9e-05	-3e-05	-7e-05	-0.00057	1e-05	0.00023	-3e-05	0.00014	6
37344	-9e-05	-3e-05	-7e-05	-0.00057	1e-05	0.00023	-3e-05	0.00014	6
37345	-9e-05	-3e-05	-7e-05	-0.00057	1e-05	0.00023	-3e-05	0.00014	6
37346	-9e-05	-3e-05	-7e-05	-0.00057	1e-05	0.00023	-3e-05	0.00014	6
37347	-9e-05	-3e-05	-7e-05	-0.00057	1e-05	0.00023	-3e-05	0.00014	6
37348	-9e-05	-3e-05	-7e-05	-0.00057	1e-05	0.00023	-3e-05	0.00014	6
37349	-9e-05	-3e-05	-7e-05	-0.00057	1e-05	0.00023	-3e-05	0.00014	6
37350	-9e-05	-3e-05	-7e-05	-0.00057	1e-05	0.00023	-3e-05	0.00014	6
37351	-6e-05	1e-05	8e-05	0.00015	7e-05	-7e-05	-0.00019	-0.00021	6
37352	-6e-05	1e-05	8e-05	0.00015	7e-05	-7e-05	-0.00019	-0.00021	6
37353	-6e-05	1e-05	8e-05	0.00015	7e-05	-7e-05	-0.00019	-0.00021	6
37354	-6e-05	1e-05	8e-05	0.00015	7e-05	-7e-05	-0.00019	-0.00021	6
37355	-6e-05	1e-05	8e-05	0.00015	7e-05	-7e-05	-0.00019	-0.00021	6
37356	-6e-05	1e-05	8e-05	0.00015	7e-05	-7e-05	-0.00019	-0.00021	6
37357	-6e-05	1e-05	8e-05	0.00015	7e-05	-7e-05	-0.00019	-0.00021	6
37358	-6e-05	1e-05	8e-05	0.00015	7e-05	-7e-05	-0.00019	-0.00021	6
37359	-6e-05	1e-05	8e-05	0.00015	7e-05	-7e-05	-0.00019	-0.00021	6
37360	-6e-05	1e-05	8e-05	0.00015	7e-05	-7e-05	-0.00019	-0.00021	6
37361	-6e-05	1e-05	8e-05	0.00015	7e-05	-7e-05	-0.00019	-0.00021	6
37362	-6e-05	1e-05	8e-05	0.00015	7e-05	-7e-05	-0.00019	-0.00021	6
37363	-6e-05	1e-05	8e-05	0.00015	7e-05	-7e-05	-0.00019	-0.00021	6
37364	-6e-05	1e-05	8e-05	0.00015	7e-05	-7e-05	-0.00019	-0.00021	6
37365	-9e-05	-0.0001	-7e-05	0.00043	0.00019	-0.00025	-7e-05	-0.00031	6
37366	-9e-05	-0.0001	-7e-05	0.00043	0.00019	-0.00025	-7e-05	-0.00031	6
37367	-9e-05	-0.0001	-7e-05	0.00043	0.00019	-0.00025	-7e-05	-0.00031	6
37368	-9e-05	-0.0001	-7e-05	0.00043	0.00019	-0.00025	-7e-05	-0.00031	6
37369	-9e-05	-0.0001	-7e-05	0.00043	0.00019	-0.00025	-7e-05	-0.00031	6
37370	-9e-05	-0.0001	-7e-05	0.00043	0.00019	-0.00025	-7e-05	-0.00031	6
37371	-9e-05	-0.0001	-7e-05	0.00043	0.00019	-0.00025	-7e-05	-0.00031	6
37372	-9e-05	-0.0001	-7e-05	0.00043	0.00019	-0.00025	-7e-05	-0.00031	6
37373	-9e-05	-0.0001	-7e-05	0.00043	0.00019	-0.00025	-7e-05	-0.00031	6
37374	5e-05	-3e-05	-1e-05	-0.00015	-0.0005	-0.00025	-0.00012	0.0002	6
37375	5e-05	-3e-05	-1e-05	-0.00015	-0.0005	-0.00025	-0.00012	0.0002	6
37376	5e-05	-3e-05	-1e-05	-0.00015	-0.0005	-0.00025	-0.00012	0.0002	6
37377	5e-05	-3e-05	-1e-05	-0.00015	-0.0005	-0.00025	-0.00012	0.0002	6
37378	5e-05	-3e-05	-1e-05	-0.00015	-0.0005	-0.00025	-0.00012	0.0002	6
37379	5e-05	-3e-05	-1e-05	-0.00015	-0.0005	-0.00025	-0.00012	0.0002	6
37380	5e-05	-3e-05	-1e-05	-0.00015	-0.0005	-0.00025	-0.00012	0.0002	6
37381	5e-05	-3e-05	-1e-05	-0.00015	-0.0005	-0.00025	-0.00012	0.0002	6
37382	5e-05	-3e-05	-1e-05	-0.00015	-0.0005	-0.00025	-0.00012	0.0002	6
37383	5e-05	-3e-05	-1e-05	-0.00015	-0.0005	-0.00025	-0.00012	0.0002	6
37384	5e-05	-3e-05	-1e-05	-0.00015	-0.0005	-0.00025	-0.00012	0.0002	6
37385	5e-05	-3e-05	-1e-05	-0.00015	-0.0005	-0.00025	-0.00012	0.0002	6
37386	5e-05	-3e-05	-1e-05	-0.00015	-0.0005	-0.00025	-0.00012	0.0002	6
37388	5e-05	-3e-05	-1e-05	-0.00015	-0.0005	-0.00025	-0.00012	0.0002	6
37389	-1e-05	-2e-05	-0.00012	-0.00025	-0.0003	-0.00021	1e-05	-0.00013	6
37390	-0.0002	-0.00012	-9e-05	0.00033	0.00029	-0.00023	-1e-05	-0.00038	6
37391	-0.0002	-0.00012	-9e-05	0.00033	0.00029	-0.00023	-1e-05	-0.00038	6
37392	-0.0002	-0.00012	-9e-05	0.00033	0.00029	-0.00023	-1e-05	-0.00038	6
37393	-0.0002	-0.00012	-9e-05	0.00033	0.00029	-0.00023	-1e-05	-0.00038	6
37394	-0.0002	-0.00012	-9e-05	0.00033	0.00029	-0.00023	-1e-05	-0.00038	6
37395	-0.0002	-0.00012	-9e-05	0.00033	0.00029	-0.00023	-1e-05	-0.00038	6
37396	-0.0002	-0.00012	-9e-05	0.00033	0.00029	-0.00023	-1e-05	-0.00038	6
37397	-0.0002	-0.00012	-9e-05	0.00033	0.00029	-0.00023	-1e-05	-0.00038	6
37398	-0.0002	-0.00012	-9e-05	0.00033	0.00029	-0.00023	-1e-05	-0.00038	6
37399	-0.0002	-0.00012	-9e-05	0.00033	0.00029	-0.00023	-1e-05	-0.00038	6
37400	-0.0002	-0.00012	-9e-05	0.00033	0.00029	-0.00023	-1e-05	-0.00038	6
37401	-0.0002	-0.00012	-9e-05	0.00033	0.00029	-0.00023	-1e-05	-0.00038	6
37402	2e-05	3e-05	-4e-05	-0.00071	-0.00128	-0.00017	0.0001	-0.00015	6
37403	2e-05	3e-05	-4e-05	-0.00071	-0.00128	-0.00017	0.0001	-0.00015	6
37404	2e-05	3e-05	-4e-05	-0.00071	-0.00128	-0.00017	0.0001	-0.00015	6
37405	2e-05	3e-05	-4e-05	-0.00071	-0.00128	-0.00017	0.0001	-0.00015	6
37406	2e-05	3e-05	-4e-05	-0.00071	-0.00128	-0.00017	0.0001	-0.00015	6
37407	2e-05	3e-05	-4e-05	-0.00071	-0.00128	-0.00017	0.0001	-0.00015	6
37408	2e-05	3e-05	-4e-05	-0.00071	-0.00128	-0.00017	0.0001	-0.00015	6
37409	2e-05	3e-05	-4e-05	-0.00071	-0.00128	-0.00017	0.0001	-0.00015	6
37410	2e-05	3e-05	-4e-05	-0.00071	-0.00128	-0.00017	0.0001	-0.00015	6
37411	-3e-05	-3e-05	-0.0001	-0.0005	-0.00081	-0.00034	-0.00014	6e-05	6
37412	-3e-05	-3e-05	-0.0001	-0.0005	-0.00081	-0.00034	-0.00014	6e-05	6
37413	-3e-05	-3e-05	-0.0001	-0.0005	-0.00081	-0.00034	-0.00014	6e-05	6
37414	-3e-05	-3e-05	-0.0001	-0.0005	-0.00081	-0.00034	-0.00014	6e-05	6
37415	-3e-05	-3e-05	-0.0001	-0.0005	-0.00081	-0.00034	-0.00014	6e-05	6
37416	-3e-05	-3e-05	-0.0001	-0.0005	-0.00081	-0.00034	-0.00014	6e-05	6
37417	-3e-05	-3e-05	-0.0001	-0.0005	-0.00081	-0.00034	-0.00014	6e-05	6
37418	-3e-05	-3e-05	-0.0001	-0.0005	-0.00081	-0.00034	-0.00014	6e-05	6
37419	-3e-05	-3e-05	-0.0001	-0.0005	-0.00081	-0.00034	-0.00014	6e-05	6
37420	-3e-05	-3e-05	-0.0001	-0.0005	-0.00081	-0.00034	-0.00014	6e-05	6
37421	-3e-05	-3e-05	-0.0001	-0.0005	-0.00081	-0.00034	-0.00014	6e-05	6
37422	-3e-05	-3e-05	-0.0001	-0.0005	-0.00081	-0.00034	-0.00014	6e-05	6
37423	-3e-05	-3e-05	-0.0001	-0.0005	-0.00081	-0.00034	-0.00014	6e-05	6
37424	-3e-05	-3e-05	-0.0001	-0.0005	-0.00081	-0.00034	-0.00014	6e-05	6
37425	-3e-05	-3e-05	-0.0001	-0.0005	-0.00081	-0.00034	-0.00014	6e-05	6
37426	-0.00013	-6e-05	-2e-05	-7e-05	-2e-05	0.00013	0	-0.00026	6
37427	-0.00013	-6e-05	-2e-05	-7e-05	-2e-05	0.00013	0	-0.00026	6
37428	-3e-05	-2e-05	-0.00011	-9e-05	-0.00011	-1e-05	-1e-05	0	6
37429	-3e-05	-2e-05	-0.00011	-9e-05	-0.00011	-1e-05	-1e-05	0	6
37430	-3e-05	-2e-05	-0.00011	-9e-05	-0.00011	-1e-05	-1e-05	0	6
37431	-3e-05	-2e-05	-0.00011	-9e-05	-0.00011	-1e-05	-1e-05	0	6
37432	-3e-05	-2e-05	-0.00011	-9e-05	-0.00011	-1e-05	-1e-05	0	6
37433	-3e-05	-2e-05	-0.00011	-9e-05	-0.00011	-1e-05	-1e-05	0	6
37434	-3e-05	-2e-05	-0.00011	-9e-05	-0.00011	-1e-05	-1e-05	0	6
37435	-3e-05	-2e-05	-0.00011	-9e-05	-0.00011	-1e-05	-1e-05	0	6
37436	-3e-05	-2e-05	-0.00011	-9e-05	-0.00011	-1e-05	-1e-05	0	6
37439	-3e-05	-2e-05	-0.00011	-9e-05	-0.00011	-1e-05	-1e-05	0	6
37440	-3e-05	-2e-05	-0.00011	-9e-05	-0.00011	-1e-05	-1e-05	0	6
37441	-3e-05	-2e-05	-0.00011	-9e-05	-0.00011	-1e-05	-1e-05	0	6
37442	-3e-05	-2e-05	-0.00011	-9e-05	-0.00011	-1e-05	-1e-05	0	6
37443	-3e-05	-2e-05	-0.00011	-9e-05	-0.00011	-1e-05	-1e-05	0	6
37444	-3e-05	-2e-05	-0.00011	-9e-05	-0.00011	-1e-05	-1e-05	0	6
37445	-3e-05	-2e-05	-0.00011	-9e-05	-0.00011	-1e-05	-1e-05	0	6
37446	-3e-05	-2e-05	-0.00011	-9e-05	-0.00011	-1e-05	-1e-05	0	6
37447	-3e-05	-2e-05	-0.00011	-9e-05	-0.00011	-1e-05	-1e-05	0	6
37448	-3e-05	-2e-05	-0.00011	-9e-05	-0.00011	-1e-05	-1e-05	0	6
37449	6e-05	-3e-05	0	5e-05	-8e-05	-0.0003	-0.00019	8e-05	6
37450	6e-05	5e-05	8e-05	0.00017	0.00112	0.00053	0.00029	-0.00023	6
37452	6e-05	5e-05	8e-05	0.00017	0.00112	0.00053	0.00029	-0.00023	6
37453	6e-05	5e-05	8e-05	0.00017	0.00112	0.00053	0.00029	-0.00023	6
37454	6e-05	5e-05	8e-05	0.00017	0.00112	0.00053	0.00029	-0.00023	6
37455	6e-05	5e-05	8e-05	0.00017	0.00112	0.00053	0.00029	-0.00023	6
37456	6e-05	5e-05	8e-05	0.00017	0.00112	0.00053	0.00029	-0.00023	6
37457	6e-05	5e-05	8e-05	0.00017	0.00112	0.00053	0.00029	-0.00023	6
37458	6e-05	5e-05	8e-05	0.00017	0.00112	0.00053	0.00029	-0.00023	6
37459	6e-05	5e-05	8e-05	0.00017	0.00112	0.00053	0.00029	-0.00023	6
37460	6e-05	5e-05	8e-05	0.00017	0.00112	0.00053	0.00029	-0.00023	6
37461	6e-05	5e-05	8e-05	0.00017	0.00112	0.00053	0.00029	-0.00023	6
37462	6e-05	5e-05	4e-05	0.0002	0.00046	0.00035	4e-05	5e-05	6
37463	6e-05	5e-05	4e-05	0.0002	0.00046	0.00035	4e-05	5e-05	6
37464	6e-05	5e-05	4e-05	0.0002	0.00046	0.00035	4e-05	5e-05	6
37465	6e-05	5e-05	4e-05	0.0002	0.00046	0.00035	4e-05	5e-05	6
37466	6e-05	5e-05	4e-05	0.0002	0.00046	0.00035	4e-05	5e-05	6
37467	6e-05	5e-05	4e-05	0.0002	0.00046	0.00035	4e-05	5e-05	6
37468	6e-05	5e-05	4e-05	0.0002	0.00046	0.00035	4e-05	5e-05	6
37469	6e-05	5e-05	4e-05	0.0002	0.00046	0.00035	4e-05	5e-05	6
37470	6e-05	5e-05	4e-05	0.0002	0.00046	0.00035	4e-05	5e-05	6
37471	8e-05	0	-2e-05	-0.00012	0.00043	0.00017	0.00013	6e-05	6
37472	0	-3e-05	-1e-05	0.0004	-0.00022	-9e-05	0.00029	0.00029	6
37473	0	-3e-05	-1e-05	0.0004	-0.00022	-9e-05	0.00029	0.00029	6
37474	0	-3e-05	-1e-05	0.0004	-0.00022	-9e-05	0.00029	0.00029	6
37475	0	-3e-05	-1e-05	0.0004	-0.00022	-9e-05	0.00029	0.00029	6
37476	0	-3e-05	-1e-05	0.0004	-0.00022	-9e-05	0.00029	0.00029	6
37477	0	-3e-05	-1e-05	0.0004	-0.00022	-9e-05	0.00029	0.00029	6
37478	0	-3e-05	-1e-05	0.0004	-0.00022	-9e-05	0.00029	0.00029	6
37479	0	-3e-05	-1e-05	0.0004	-0.00022	-9e-05	0.00029	0.00029	6
37480	0	-3e-05	-1e-05	0.0004	-0.00022	-9e-05	0.00029	0.00029	6
37481	0	-3e-05	-1e-05	0.0004	-0.00022	-9e-05	0.00029	0.00029	6
37482	0	-3e-05	-1e-05	0.0004	-0.00022	-9e-05	0.00029	0.00029	6
37483	0	-3e-05	-1e-05	0.0004	-0.00022	-9e-05	0.00029	0.00029	6
37484	0	-3e-05	-1e-05	0.0004	-0.00022	-9e-05	0.00029	0.00029	6
37485	0	-3e-05	-1e-05	0.0004	-0.00022	-9e-05	0.00029	0.00029	6
37487	2e-05	4e-05	4e-05	0.0001	0.00073	2e-05	-0.00014	-8e-05	6
37489	-9e-05	-5e-05	-3e-05	-0.00016	-0.00019	0.00024	-0.00021	-0.0001	6
37490	-9e-05	-5e-05	-3e-05	-0.00016	-0.00019	0.00024	-0.00021	-0.0001	6
37491	-9e-05	-5e-05	-3e-05	-0.00016	-0.00019	0.00024	-0.00021	-0.0001	6
37492	-9e-05	-5e-05	-3e-05	-0.00016	-0.00019	0.00024	-0.00021	-0.0001	6
37493	-9e-05	-5e-05	-3e-05	-0.00016	-0.00019	0.00024	-0.00021	-0.0001	6
37494	-9e-05	-5e-05	-3e-05	-0.00016	-0.00019	0.00024	-0.00021	-0.0001	6
37495	-9e-05	-5e-05	-3e-05	-0.00016	-0.00019	0.00024	-0.00021	-0.0001	6
37496	-9e-05	-5e-05	-3e-05	-0.00016	-0.00019	0.00024	-0.00021	-0.0001	6
37497	-9e-05	-5e-05	-3e-05	-0.00016	-0.00019	0.00024	-0.00021	-0.0001	6
37498	-9e-05	-5e-05	-3e-05	-0.00016	-0.00019	0.00024	-0.00021	-0.0001	6
37499	-9e-05	-5e-05	-3e-05	-0.00016	-0.00019	0.00024	-0.00021	-0.0001	6
37500	-9e-05	-5e-05	-3e-05	-0.00016	-0.00019	0.00024	-0.00021	-0.0001	6
37501	-9e-05	-5e-05	-3e-05	-0.00016	-0.00019	0.00024	-0.00021	-0.0001	6
37502	-9e-05	-5e-05	-3e-05	-0.00016	-0.00019	0.00024	-0.00021	-0.0001	6
37503	-9e-05	-5e-05	-3e-05	-0.00016	-0.00019	0.00024	-0.00021	-0.0001	6
37504	-9e-05	-5e-05	-3e-05	-0.00016	-0.00019	0.00024	-0.00021	-0.0001	6
37505	-9e-05	-5e-05	-3e-05	-0.00016	-0.00019	0.00024	-0.00021	-0.0001	6
37506	-9e-05	-5e-05	-3e-05	-0.00016	-0.00019	0.00024	-0.00021	-0.0001	6
37507	-9e-05	-5e-05	-3e-05	-0.00016	-0.00019	0.00024	-0.00021	-0.0001	6
37508	-9e-05	-5e-05	-3e-05	-0.00016	-0.00019	0.00024	-0.00021	-0.0001	6
37509	-6e-05	-5e-05	-3e-05	-0.00029	-0.00064	-0.00013	-4e-05	6e-05	6
37510	9e-05	2e-05	-2e-05	-0.00039	-0.00036	-3e-05	-1e-05	0.00012	6
37511	9e-05	2e-05	-2e-05	-0.00039	-0.00036	-3e-05	-1e-05	0.00012	6
37512	9e-05	2e-05	-2e-05	-0.00039	-0.00036	-3e-05	-1e-05	0.00012	6
37513	9e-05	2e-05	-2e-05	-0.00039	-0.00036	-3e-05	-1e-05	0.00012	6
37514	9e-05	2e-05	-2e-05	-0.00039	-0.00036	-3e-05	-1e-05	0.00012	6
37515	9e-05	2e-05	-2e-05	-0.00039	-0.00036	-3e-05	-1e-05	0.00012	6
37516	9e-05	2e-05	-2e-05	-0.00039	-0.00036	-3e-05	-1e-05	0.00012	6
37517	9e-05	2e-05	-2e-05	-0.00039	-0.00036	-3e-05	-1e-05	0.00012	6
37518	9e-05	2e-05	-2e-05	-0.00039	-0.00036	-3e-05	-1e-05	0.00012	6
37519	9e-05	2e-05	-2e-05	-0.00039	-0.00036	-3e-05	-1e-05	0.00012	6
37520	9e-05	2e-05	-2e-05	-0.00039	-0.00036	-3e-05	-1e-05	0.00012	6
37521	9e-05	2e-05	-2e-05	-0.00039	-0.00036	-3e-05	-1e-05	0.00012	6
37522	-3e-05	-2e-05	-5e-05	-7e-05	-0.00036	0.00028	0.00022	-0.00012	6
37523	-3e-05	-2e-05	-5e-05	-7e-05	-0.00036	0.00028	0.00022	-0.00012	6
37524	-3e-05	-2e-05	-5e-05	-7e-05	-0.00036	0.00028	0.00022	-0.00012	6
37525	-3e-05	-2e-05	-5e-05	-7e-05	-0.00036	0.00028	0.00022	-0.00012	6
37526	-3e-05	-2e-05	-5e-05	-7e-05	-0.00036	0.00028	0.00022	-0.00012	6
37527	-3e-05	-2e-05	-5e-05	-7e-05	-0.00036	0.00028	0.00022	-0.00012	6
37528	-3e-05	-2e-05	-5e-05	-7e-05	-0.00036	0.00028	0.00022	-0.00012	6
37529	-3e-05	-2e-05	-5e-05	-7e-05	-0.00036	0.00028	0.00022	-0.00012	6
37530	-3e-05	-2e-05	-5e-05	-7e-05	-0.00036	0.00028	0.00022	-0.00012	6
37531	0.00022	-1e-05	0	2e-05	0.00034	-0.00022	-0.00044	5e-05	6
37532	0.00022	-1e-05	0	2e-05	0.00034	-0.00022	-0.00044	5e-05	6
37533	0.00022	-1e-05	0	2e-05	0.00034	-0.00022	-0.00044	5e-05	6
37534	0.00022	-1e-05	0	2e-05	0.00034	-0.00022	-0.00044	5e-05	6
37535	0.00022	-1e-05	0	2e-05	0.00034	-0.00022	-0.00044	5e-05	6
37536	0.00022	-1e-05	0	2e-05	0.00034	-0.00022	-0.00044	5e-05	6
37538	0.00022	-1e-05	0	2e-05	0.00034	-0.00022	-0.00044	5e-05	6
37539	0.00022	-1e-05	0	2e-05	0.00034	-0.00022	-0.00044	5e-05	6
37540	0.00022	-1e-05	0	2e-05	0.00034	-0.00022	-0.00044	5e-05	6
37541	0.00022	-1e-05	0	2e-05	0.00034	-0.00022	-0.00044	5e-05	6
37542	0.00022	-1e-05	0	2e-05	0.00034	-0.00022	-0.00044	5e-05	6
37543	0.00022	-1e-05	0	2e-05	0.00034	-0.00022	-0.00044	5e-05	6
37544	0.00022	-1e-05	0	2e-05	0.00034	-0.00022	-0.00044	5e-05	6
37545	0.00022	-1e-05	0	2e-05	0.00034	-0.00022	-0.00044	5e-05	6
37546	4e-05	5e-05	7e-05	-8e-05	0.00043	6e-05	-2e-05	0.00035	6
37547	4e-05	5e-05	7e-05	-8e-05	0.00043	6e-05	-2e-05	0.00035	6
37548	0.00018	0	-1e-05	0.00013	-0.00018	-0.00011	-4e-05	0.00031	6
37549	0.00018	0	-1e-05	0.00013	-0.00018	-0.00011	-4e-05	0.00031	6
37550	0.00018	0	-1e-05	0.00013	-0.00018	-0.00011	-4e-05	0.00031	6
37551	0.00018	0	-1e-05	0.00013	-0.00018	-0.00011	-4e-05	0.00031	6
37552	0.00018	0	-1e-05	0.00013	-0.00018	-0.00011	-4e-05	0.00031	6
37553	0.00018	0	-1e-05	0.00013	-0.00018	-0.00011	-4e-05	0.00031	6
37554	0.00018	0	-1e-05	0.00013	-0.00018	-0.00011	-4e-05	0.00031	6
37555	0.00018	0	-1e-05	0.00013	-0.00018	-0.00011	-4e-05	0.00031	6
37556	0.00018	0	-1e-05	0.00013	-0.00018	-0.00011	-4e-05	0.00031	6
37557	0.00018	0	-1e-05	0.00013	-0.00018	-0.00011	-4e-05	0.00031	6
37558	0.00018	0	-1e-05	0.00013	-0.00018	-0.00011	-4e-05	0.00031	6
37559	0.00018	0	-1e-05	0.00013	-0.00018	-0.00011	-4e-05	0.00031	6
37560	0.00018	0	-1e-05	0.00013	-0.00018	-0.00011	-4e-05	0.00031	6
37561	0.00018	0	-1e-05	0.00013	-0.00018	-0.00011	-4e-05	0.00031	6
37562	0.00018	0	-1e-05	0.00013	-0.00018	-0.00011	-4e-05	0.00031	6
37563	0.00018	0	-1e-05	0.00013	-0.00018	-0.00011	-4e-05	0.00031	6
37564	0.00018	0	-1e-05	0.00013	-0.00018	-0.00011	-4e-05	0.00031	6
37565	0.00018	0	-1e-05	0.00013	-0.00018	-0.00011	-4e-05	0.00031	6
37566	0.00018	0	-1e-05	0.00013	-0.00018	-0.00011	-4e-05	0.00031	6
37567	0.00018	0	-1e-05	0.00013	-0.00018	-0.00011	-4e-05	0.00031	6
