11607	0.00064	-0.0006	-6e-05	1e-05	0.00021	0.00032	0.00026	-0.00011	3
11608	0.00064	-0.0006	-6e-05	1e-05	0.00021	0.00032	0.00026	-0.00011	3
11609	0.00064	-0.0006	-6e-05	1e-05	0.00021	0.00032	0.00026	-0.00011	3
11610	-0.0007	-0.00062	-0.00011	-6e-05	0.00026	0.00016	-2e-05	0.00112	3
11611	-0.0007	-0.00062	-0.00011	-6e-05	0.00026	0.00016	-2e-05	0.00112	3
11612	0.00055	0	-1e-05	-7e-05	-5e-05	0.00036	-0.00013	0.00032	3
11613	0.00055	0	-1e-05	-7e-05	-5e-05	0.00036	-0.00013	0.00032	3
11614	0.00055	0	-1e-05	-7e-05	-5e-05	0.00036	-0.00013	0.00032	3
11615	0.00055	0	-1e-05	-7e-05	-5e-05	0.00036	-0.00013	0.00032	3
11616	0.00055	0	-1e-05	-7e-05	-5e-05	0.00036	-0.00013	0.00032	3
11617	0.00055	0	-1e-05	-7e-05	-5e-05	0.00036	-0.00013	0.00032	3
11618	0.00055	0	-1e-05	-7e-05	-5e-05	0.00036	-0.00013	0.00032	3
11619	0.00055	0	-1e-05	-7e-05	-5e-05	0.00036	-0.00013	0.00032	3
11620	0.00055	0	-1e-05	-7e-05	-5e-05	0.00036	-0.00013	0.00032	3
11621	0.00055	0	-1e-05	-7e-05	-5e-05	0.00036	-0.00013	0.00032	3
11622	0.00055	0	-1e-05	-7e-05	-5e-05	0.00036	-0.00013	0.00032	3
11623	0.00055	0	-1e-05	-7e-05	-5e-05	0.00036	-0.00013	0.00032	3
11624	0.00058	0.00096	6e-05	1e-05	0.00092	0	-9e-05	0.00019	3
11625	0.00058	0.00096	6e-05	1e-05	0.00092	0	-9e-05	0.00019	3
11626	0.00058	0.00096	6e-05	1e-05	0.00092	0	-9e-05	0.00019	3
11627	0.00058	0.00096	6e-05	1e-05	0.00092	0	-9e-05	0.00019	3
11628	0.00058	0.00096	6e-05	1e-05	0.00092	0	-9e-05	0.00019	3
11629	0.00058	0.00096	6e-05	1e-05	0.00092	0	-9e-05	0.00019	3
11630	0.00058	0.00096	6e-05	1e-05	0.00092	0	-9e-05	0.00019	3
11631	0.00058	0.00096	6e-05	1e-05	0.00092	0	-9e-05	0.00019	3
11632	-0.00026	-0.00078	-4e-05	7e-05	-0.00061	-0.00068	-2e-05	0.00028	3
11633	0.00034	0.00069	9e-05	5e-05	0.00076	9e-05	0.00022	-0.00119	3
11634	0.00034	0.00069	9e-05	5e-05	0.00076	9e-05	0.00022	-0.00119	3
11635	0.00034	0.00069	9e-05	5e-05	0.00076	9e-05	0.00022	-0.00119	3
11636	0.00034	0.00069	9e-05	5e-05	0.00076	9e-05	0.00022	-0.00119	3
11638	0.00034	0.00069	9e-05	5e-05	0.00076	9e-05	0.00022	-0.00119	3
11639	0.00034	0.00069	9e-05	5e-05	0.00076	9e-05	0.00022	-0.00119	3
11640	0.00034	0.00069	9e-05	5e-05	0.00076	9e-05	0.00022	-0.00119	3
11641	0.00034	0.00069	9e-05	5e-05	0.00076	9e-05	0.00022	-0.00119	3
11642	0.00034	0.00069	9e-05	5e-05	0.00076	9e-05	0.00022	-0.00119	3
11643	0.00034	0.00069	9e-05	5e-05	0.00076	9e-05	0.00022	-0.00119	3
11644	0.00034	0.00069	9e-05	5e-05	0.00076	9e-05	0.00022	-0.00119	3
11645	0.00034	0.00069	9e-05	5e-05	0.00076	9e-05	0.00022	-0.00119	3
11646	0.00034	0.00069	9e-05	5e-05	0.00076	9e-05	0.00022	-0.00119	3
11647	0.00034	0.00069	9e-05	5e-05	0.00076	9e-05	0.00022	-0.00119	3
11648	0.00012	-0.00017	3e-05	0	-0.00063	-0.00066	0.0002	0.00123	3
11649	0.00044	0.00114	0.00014	-3e-05	0	0.00064	0.00052	0.00051	3
11650	0.00044	0.00114	0.00014	-3e-05	0	0.00064	0.00052	0.00051	3
11651	0.00044	0.00114	0.00014	-3e-05	0	0.00064	0.00052	0.00051	3
11652	0.00044	0.00114	0.00014	-3e-05	0	0.00064	0.00052	0.00051	3
11653	0.00044	0.00114	0.00014	-3e-05	0	0.00064	0.00052	0.00051	3
11654	0.00044	0.00114	0.00014	-3e-05	0	0.00064	0.00052	0.00051	3
11655	0.00044	0.00114	0.00014	-3e-05	0	0.00064	0.00052	0.00051	3
11656	0.00044	0.00114	0.00014	-3e-05	0	0.00064	0.00052	0.00051	3
11657	0.00044	0.00114	0.00014	-3e-05	0	0.00064	0.00052	0.00051	3
11658	0.00044	0.00114	0.00014	-3e-05	0	0.00064	0.00052	0.00051	3
11659	0.00044	0.00114	0.00014	-3e-05	0	0.00064	0.00052	0.00051	3
11660	0.00044	0.00114	0.00014	-3e-05	0	0.00064	0.00052	0.00051	3
11661	0.00044	0.00114	0.00014	-3e-05	0	0.00064	0.00052	0.00051	3
11662	0.00044	0.00114	0.00014	-3e-05	0	0.00064	0.00052	0.00051	3
11663	0.00044	0.00114	0.00014	-3e-05	0	0.00064	0.00052	0.00051	3
11664	0.00044	0.00114	0.00014	-3e-05	0	0.00064	0.00052	0.00051	3
11665	0.00044	0.00114	0.00014	-3e-05	0	0.00064	0.00052	0.00051	3
11666	0.00044	0.00114	0.00014	-3e-05	0	0.00064	0.00052	0.00051	3
11667	0.00044	0.00114	0.00014	-3e-05	0	0.00064	0.00052	0.00051	3
11668	0.00044	0.00114	0.00014	-3e-05	0	0.00064	0.00052	0.00051	3
11669	0.00044	0.00114	0.00014	-3e-05	0	0.00064	0.00052	0.00051	3
11670	-0.00036	-0.00045	-0.0002	-1e-05	0.00075	0.00013	-3e-05	-0.00044	3
11671	-0.00011	0.0007	0.00015	9e-05	0.00076	-0.00037	3e-05	-0.00025	3
11672	2e-05	-0.00019	-3e-05	-0.00013	0.00024	0.00016	-0.00026	0.00108	3
11673	2e-05	-0.00019	-3e-05	-0.00013	0.00024	0.00016	-0.00026	0.00108	3
11674	2e-05	-0.00019	-3e-05	-0.00013	0.00024	0.00016	-0.00026	0.00108	3
11675	2e-05	-0.00019	-3e-05	-0.00013	0.00024	0.00016	-0.00026	0.00108	3
11676	2e-05	-0.00019	-3e-05	-0.00013	0.00024	0.00016	-0.00026	0.00108	3
11677	2e-05	-0.00019	-3e-05	-0.00013	0.00024	0.00016	-0.00026	0.00108	3
11678	2e-05	-0.00019	-3e-05	-0.00013	0.00024	0.00016	-0.00026	0.00108	3
11679	2e-05	-0.00019	-3e-05	-0.00013	0.00024	0.00016	-0.00026	0.00108	3
11680	2e-05	-0.00019	-3e-05	-0.00013	0.00024	0.00016	-0.00026	0.00108	3
11681	2e-05	-0.00019	-3e-05	-0.00013	0.00024	0.00016	-0.00026	0.00108	3
11682	2e-05	-0.00019	-3e-05	-0.00013	0.00024	0.00016	-0.00026	0.00108	3
11683	0.00018	0.00015	-2e-05	-0.00012	-0.00056	-0.00054	0.00016	-0.0005	3
11684	0.00018	0.00015	-2e-05	-0.00012	-0.00056	-0.00054	0.00016	-0.0005	3
11685	0.00018	0.00015	-2e-05	-0.00012	-0.00056	-0.00054	0.00016	-0.0005	3
11686	0.00018	0.00015	-2e-05	-0.00012	-0.00056	-0.00054	0.00016	-0.0005	3
11689	0.00018	0.00015	-2e-05	-0.00012	-0.00056	-0.00054	0.00016	-0.0005	3
11690	0.00018	0.00015	-2e-05	-0.00012	-0.00056	-0.00054	0.00016	-0.0005	3
11691	0.00018	0.00015	-2e-05	-0.00012	-0.00056	-0.00054	0.00016	-0.0005	3
11692	-4e-05	-0.00074	-2e-05	6e-05	0.0003	-0.0003	-0.00048	-0.00067	3
11693	-4e-05	-0.00074	-2e-05	6e-05	0.0003	-0.0003	-0.00048	-0.00067	3
11694	-4e-05	-0.00074	-2e-05	6e-05	0.0003	-0.0003	-0.00048	-0.00067	3
11695	-4e-05	-0.00074	-2e-05	6e-05	0.0003	-0.0003	-0.00048	-0.00067	3
11696	-4e-05	-0.00074	-2e-05	6e-05	0.0003	-0.0003	-0.00048	-0.00067	3
11697	-4e-05	-0.00074	-2e-05	6e-05	0.0003	-0.0003	-0.00048	-0.00067	3
11698	-4e-05	-0.00074	-2e-05	6e-05	0.0003	-0.0003	-0.00048	-0.00067	3
11699	-4e-05	-0.00074	-2e-05	6e-05	0.0003	-0.0003	-0.00048	-0.00067	3
11700	-4e-05	-0.00074	-2e-05	6e-05	0.0003	-0.0003	-0.00048	-0.00067	3
11701	-4e-05	-0.00074	-2e-05	6e-05	0.0003	-0.0003	-0.00048	-0.00067	3
11702	-4e-05	-0.00074	-2e-05	6e-05	0.0003	-0.0003	-0.00048	-0.00067	3
11703	-4e-05	-0.00074	-2e-05	6e-05	0.0003	-0.0003	-0.00048	-0.00067	3
11704	-4e-05	-0.00074	-2e-05	6e-05	0.0003	-0.0003	-0.00048	-0.00067	3
11705	-4e-05	-0.00074	-2e-05	6e-05	0.0003	-0.0003	-0.00048	-0.00067	3
11706	-4e-05	-0.00074	-2e-05	6e-05	0.0003	-0.0003	-0.00048	-0.00067	3
11707	0.0001	0.00027	1e-05	-7e-05	-0.00031	0.00016	-0.00025	-0.00097	3
11708	0.0001	0.00027	1e-05	-7e-05	-0.00031	0.00016	-0.00025	-0.00097	3
11709	-0.00028	-0.00025	-1e-05	0	0	0.0001	-0.00016	-0.00089	3
11710	-0.00028	-0.00025	-1e-05	0	0	0.0001	-0.00016	-0.00089	3
11711	-0.00028	-0.00025	-1e-05	0	0	0.0001	-0.00016	-0.00089	3
11712	-0.00028	-0.00025	-1e-05	0	0	0.0001	-0.00016	-0.00089	3
11713	-0.00028	-0.00025	-1e-05	0	0	0.0001	-0.00016	-0.00089	3
11714	-0.00028	-0.00025	-1e-05	0	0	0.0001	-0.00016	-0.00089	3
11715	-0.00028	-0.00025	-1e-05	0	0	0.0001	-0.00016	-0.00089	3
11716	-0.00028	-0.00025	-1e-05	0	0	0.0001	-0.00016	-0.00089	3
11717	-0.00028	-0.00025	-1e-05	0	0	0.0001	-0.00016	-0.00089	3
11718	-0.00028	-0.00025	-1e-05	0	0	0.0001	-0.00016	-0.00089	3
11719	-0.00028	-0.00025	-1e-05	0	0	0.0001	-0.00016	-0.00089	3
11720	-0.00028	-0.00025	-1e-05	0	0	0.0001	-0.00016	-0.00089	3
11721	-0.00028	-0.00025	-1e-05	0	0	0.0001	-0.00016	-0.00089	3
11722	-0.00028	-0.00025	-1e-05	0	0	0.0001	-0.00016	-0.00089	3
11723	-0.00028	-0.00025	-1e-05	0	0	0.0001	-0.00016	-0.00089	3
11724	-0.00028	-0.00025	-1e-05	0	0	0.0001	-0.00016	-0.00089	3
11725	-0.00028	-0.00025	-1e-05	0	0	0.0001	-0.00016	-0.00089	3
11726	-0.00028	-0.00025	-1e-05	0	0	0.0001	-0.00016	-0.00089	3
11727	-0.00028	-0.00025	-1e-05	0	0	0.0001	-0.00016	-0.00089	3
11728	-0.00028	-0.00025	-1e-05	0	0	0.0001	-0.00016	-0.00089	3
11729	-0.00028	-0.00025	-1e-05	0	0	0.0001	-0.00016	-0.00089	3
11730	0.00053	0.00061	0.00013	8e-05	-2e-05	-0.00034	-5e-05	-0.00049	3
11731	-0.00013	-0.00036	0	-2e-05	-0.00034	-0.00072	-0.00039	-0.00057	3
11732	-0.00013	-0.00036	0	-2e-05	-0.00034	-0.00072	-0.00039	-0.00057	3
11733	-0.00013	-0.00036	0	-2e-05	-0.00034	-0.00072	-0.00039	-0.00057	3
11734	-0.00013	-0.00036	0	-2e-05	-0.00034	-0.00072	-0.00039	-0.00057	3
11735	-0.00013	-0.00036	0	-2e-05	-0.00034	-0.00072	-0.00039	-0.00057	3
11736	-0.00013	-0.00036	0	-2e-05	-0.00034	-0.00072	-0.00039	-0.00057	3
11738	-0.00013	-0.00036	0	-2e-05	-0.00034	-0.00072	-0.00039	-0.00057	3
11739	-0.00013	-0.00036	0	-2e-05	-0.00034	-0.00072	-0.00039	-0.00057	3
11740	-0.00013	-0.00036	0	-2e-05	-0.00034	-0.00072	-0.00039	-0.00057	3
11741	-0.00013	-0.00036	0	-2e-05	-0.00034	-0.00072	-0.00039	-0.00057	3
11742	-0.00013	-0.00036	0	-2e-05	-0.00034	-0.00072	-0.00039	-0.00057	3
11743	-0.00035	2e-05	-7e-05	-1e-05	0.00023	0.00028	3e-05	-0.00048	3
11744	-0.00035	2e-05	-7e-05	-1e-05	0.00023	0.00028	3e-05	-0.00048	3
11745	-0.00035	2e-05	-7e-05	-1e-05	0.00023	0.00028	3e-05	-0.00048	3
11746	-0.00035	2e-05	-7e-05	-1e-05	0.00023	0.00028	3e-05	-0.00048	3
11747	-0.00035	2e-05	-7e-05	-1e-05	0.00023	0.00028	3e-05	-0.00048	3
11748	-0.00035	2e-05	-7e-05	-1e-05	0.00023	0.00028	3e-05	-0.00048	3
11749	-0.00035	2e-05	-7e-05	-1e-05	0.00023	0.00028	3e-05	-0.00048	3
11750	-0.00035	2e-05	-7e-05	-1e-05	0.00023	0.00028	3e-05	-0.00048	3
11751	-0.00035	2e-05	-7e-05	-1e-05	0.00023	0.00028	3e-05	-0.00048	3
11752	6e-05	-0.00018	-3e-05	0	0.00088	0.00019	0	0.00068	3
11753	6e-05	-0.00018	-3e-05	0	0.00088	0.00019	0	0.00068	3
11754	6e-05	-0.00018	-3e-05	0	0.00088	0.00019	0	0.00068	3
11755	6e-05	-0.00018	-3e-05	0	0.00088	0.00019	0	0.00068	3
11756	6e-05	-0.00018	-3e-05	0	0.00088	0.00019	0	0.00068	3
11757	6e-05	-0.00018	-3e-05	0	0.00088	0.00019	0	0.00068	3
11758	6e-05	-0.00018	-3e-05	0	0.00088	0.00019	0	0.00068	3
11759	6e-05	-0.00018	-3e-05	0	0.00088	0.00019	0	0.00068	3
11760	6e-05	-0.00018	-3e-05	0	0.00088	0.00019	0	0.00068	3
11761	6e-05	-0.00018	-3e-05	0	0.00088	0.00019	0	0.00068	3
11762	6e-05	-0.00018	-3e-05	0	0.00088	0.00019	0	0.00068	3
11763	6e-05	-0.00018	-3e-05	0	0.00088	0.00019	0	0.00068	3
11764	6e-05	-0.00018	-3e-05	0	0.00088	0.00019	0	0.00068	3
11765	6e-05	-0.00018	-3e-05	0	0.00088	0.00019	0	0.00068	3
11766	6e-05	-0.00018	-3e-05	0	0.00088	0.00019	0	0.00068	3
11767	7e-05	0.0001	2e-05	0	0.00038	-9e-05	-5e-05	-0.00022	3
11768	7e-05	0.0001	2e-05	0	0.00038	-9e-05	-5e-05	-0.00022	3
11769	-0.00038	-0.00053	-0.00016	-6e-05	-0.00035	-0.00026	0.00022	0.00107	3
11770	-0.00038	-0.00053	-0.00016	-6e-05	-0.00035	-0.00026	0.00022	0.00107	3
11771	-0.00038	-0.00053	-0.00016	-6e-05	-0.00035	-0.00026	0.00022	0.00107	3
11772	-0.00038	-0.00053	-0.00016	-6e-05	-0.00035	-0.00026	0.00022	0.00107	3
11773	-0.00038	-0.00053	-0.00016	-6e-05	-0.00035	-0.00026	0.00022	0.00107	3
11774	-0.00038	-0.00053	-0.00016	-6e-05	-0.00035	-0.00026	0.00022	0.00107	3
11775	-0.00038	-0.00053	-0.00016	-6e-05	-0.00035	-0.00026	0.00022	0.00107	3
11776	-0.00038	-0.00053	-0.00016	-6e-05	-0.00035	-0.00026	0.00022	0.00107	3
11777	-0.00038	-0.00053	-0.00016	-6e-05	-0.00035	-0.00026	0.00022	0.00107	3
11778	-0.00038	-0.00053	-0.00016	-6e-05	-0.00035	-0.00026	0.00022	0.00107	3
11780	-0.00038	-0.00053	-0.00016	-6e-05	-0.00035	-0.00026	0.00022	0.00107	3
11781	-0.00038	-0.00053	-0.00016	-6e-05	-0.00035	-0.00026	0.00022	0.00107	3
11782	-0.00038	-0.00053	-0.00016	-6e-05	-0.00035	-0.00026	0.00022	0.00107	3
11783	-0.00038	-0.00053	-0.00016	-6e-05	-0.00035	-0.00026	0.00022	0.00107	3
11784	-0.00038	-0.00053	-0.00016	-6e-05	-0.00035	-0.00026	0.00022	0.00107	3
11785	-0.00038	-0.00053	-0.00016	-6e-05	-0.00035	-0.00026	0.00022	0.00107	3
11786	-0.00038	-0.00053	-0.00016	-6e-05	-0.00035	-0.00026	0.00022	0.00107	3
11788	-0.00038	-0.00053	-0.00016	-6e-05	-0.00035	-0.00026	0.00022	0.00107	3
11789	-0.00038	-0.00053	-0.00016	-6e-05	-0.00035	-0.00026	0.00022	0.00107	3
11790	-0.00011	-0.00028	-9e-05	7e-05	-7e-05	0.00018	-0.00017	0.00075	3
11791	0.00018	0.00087	9e-05	0.00012	-9e-05	0.00093	0.00038	-3e-05	3
11792	0.00018	0.00087	9e-05	0.00012	-9e-05	0.00093	0.00038	-3e-05	3
11793	0.00018	0.00087	9e-05	0.00012	-9e-05	0.00093	0.00038	-3e-05	3
11794	0.00018	0.00087	9e-05	0.00012	-9e-05	0.00093	0.00038	-3e-05	3
11795	0.00018	0.00087	9e-05	0.00012	-9e-05	0.00093	0.00038	-3e-05	3
11796	0.00018	0.00087	9e-05	0.00012	-9e-05	0.00093	0.00038	-3e-05	3
11797	0.00018	0.00087	9e-05	0.00012	-9e-05	0.00093	0.00038	-3e-05	3
11798	0.00018	0.00087	9e-05	0.00012	-9e-05	0.00093	0.00038	-3e-05	3
11799	0.00018	0.00087	9e-05	0.00012	-9e-05	0.00093	0.00038	-3e-05	3
11800	0.00018	0.00087	9e-05	0.00012	-9e-05	0.00093	0.00038	-3e-05	3
11801	0.00018	0.00087	9e-05	0.00012	-9e-05	0.00093	0.00038	-3e-05	3
11802	0.00018	0.00087	9e-05	0.00012	-9e-05	0.00093	0.00038	-3e-05	3
11803	0.00018	0.00087	9e-05	0.00012	-9e-05	0.00093	0.00038	-3e-05	3
11804	0.00019	0.00071	0.00016	-7e-05	-0.00037	-0.00052	-0.00024	0.00035	3
11805	0.00019	0.00071	0.00016	-7e-05	-0.00037	-0.00052	-0.00024	0.00035	3
11806	0.00019	0.00071	0.00016	-7e-05	-0.00037	-0.00052	-0.00024	0.00035	3
11807	0.00019	0.00071	0.00016	-7e-05	-0.00037	-0.00052	-0.00024	0.00035	3
11808	0.00019	0.00071	0.00016	-7e-05	-0.00037	-0.00052	-0.00024	0.00035	3
11809	0.00019	0.00071	0.00016	-7e-05	-0.00037	-0.00052	-0.00024	0.00035	3
11810	0.00019	0.00071	0.00016	-7e-05	-0.00037	-0.00052	-0.00024	0.00035	3
11811	0.00019	0.00071	0.00016	-7e-05	-0.00037	-0.00052	-0.00024	0.00035	3
11812	-9e-05	0.00023	-7e-05	-1e-05	-0.00013	0.00065	0.00018	-0.00033	3
11813	-9e-05	0.00023	-7e-05	-1e-05	-0.00013	0.00065	0.00018	-0.00033	3
11814	-9e-05	0.00023	-7e-05	-1e-05	-0.00013	0.00065	0.00018	-0.00033	3
11815	-9e-05	0.00023	-7e-05	-1e-05	-0.00013	0.00065	0.00018	-0.00033	3
11816	-9e-05	0.00023	-7e-05	-1e-05	-0.00013	0.00065	0.00018	-0.00033	3
11817	-9e-05	0.00023	-7e-05	-1e-05	-0.00013	0.00065	0.00018	-0.00033	3
11818	-9e-05	0.00023	-7e-05	-1e-05	-0.00013	0.00065	0.00018	-0.00033	3
11819	-9e-05	0.00023	-7e-05	-1e-05	-0.00013	0.00065	0.00018	-0.00033	3
11820	-9e-05	0.00023	-7e-05	-1e-05	-0.00013	0.00065	0.00018	-0.00033	3
11821	-9e-05	0.00023	-7e-05	-1e-05	-0.00013	0.00065	0.00018	-0.00033	3
11822	-9e-05	0.00023	-7e-05	-1e-05	-0.00013	0.00065	0.00018	-0.00033	3
11823	-9e-05	0.00023	-7e-05	-1e-05	-0.00013	0.00065	0.00018	-0.00033	3
11824	-9e-05	0.00023	-7e-05	-1e-05	-0.00013	0.00065	0.00018	-0.00033	3
11825	-9e-05	0.00023	-7e-05	-1e-05	-0.00013	0.00065	0.00018	-0.00033	3
11826	-9e-05	0.00023	-7e-05	-1e-05	-0.00013	0.00065	0.00018	-0.00033	3
11827	0.00042	-8e-05	-0.00012	-7e-05	-0.0005	-0.00022	-0.00012	-0.00107	3
11828	0.00042	-8e-05	-0.00012	-7e-05	-0.0005	-0.00022	-0.00012	-0.00107	3
11829	0.00036	0.00058	8e-05	3e-05	-0.00088	-0.00045	-3e-05	-0.00069	3
11830	0.00036	0.00058	8e-05	3e-05	-0.00088	-0.00045	-3e-05	-0.00069	3
11831	0.00036	0.00058	8e-05	3e-05	-0.00088	-0.00045	-3e-05	-0.00069	3
11832	0.00036	0.00058	8e-05	3e-05	-0.00088	-0.00045	-3e-05	-0.00069	3
11833	0.00036	0.00058	8e-05	3e-05	-0.00088	-0.00045	-3e-05	-0.00069	3
11834	0.00036	0.00058	8e-05	3e-05	-0.00088	-0.00045	-3e-05	-0.00069	3
11835	0.00036	0.00058	8e-05	3e-05	-0.00088	-0.00045	-3e-05	-0.00069	3
11836	0.00036	0.00058	8e-05	3e-05	-0.00088	-0.00045	-3e-05	-0.00069	3
11838	0.00036	0.00058	8e-05	3e-05	-0.00088	-0.00045	-3e-05	-0.00069	3
11839	0.00036	0.00058	8e-05	3e-05	-0.00088	-0.00045	-3e-05	-0.00069	3
11840	0.00036	0.00058	8e-05	3e-05	-0.00088	-0.00045	-3e-05	-0.00069	3
11841	0.00036	0.00058	8e-05	3e-05	-0.00088	-0.00045	-3e-05	-0.00069	3
11842	0.00036	0.00058	8e-05	3e-05	-0.00088	-0.00045	-3e-05	-0.00069	3
11843	0.00036	0.00058	8e-05	3e-05	-0.00088	-0.00045	-3e-05	-0.00069	3
11844	0.00036	0.00058	8e-05	3e-05	-0.00088	-0.00045	-3e-05	-0.00069	3
11845	0.00036	0.00058	8e-05	3e-05	-0.00088	-0.00045	-3e-05	-0.00069	3
11846	0.00036	0.00058	8e-05	3e-05	-0.00088	-0.00045	-3e-05	-0.00069	3
11847	0.00036	0.00058	8e-05	3e-05	-0.00088	-0.00045	-3e-05	-0.00069	3
11848	0.00036	0.00058	8e-05	3e-05	-0.00088	-0.00045	-3e-05	-0.00069	3
11849	0.00036	0.00058	8e-05	3e-05	-0.00088	-0.00045	-3e-05	-0.00069	3
11850	-0.00034	-0.00023	-2e-05	1e-05	0.00031	4e-05	0.00013	-2e-05	3
11851	-0.0001	-0.00051	-8e-05	4e-05	0.00046	-1e-05	-8e-05	-0.00105	3
11852	-0.0001	-0.00051	-8e-05	4e-05	0.00046	-1e-05	-8e-05	-0.00105	3
11853	-0.0001	-0.00051	-8e-05	4e-05	0.00046	-1e-05	-8e-05	-0.00105	3
11854	-0.0001	-0.00051	-8e-05	4e-05	0.00046	-1e-05	-8e-05	-0.00105	3
11855	-0.0001	-0.00051	-8e-05	4e-05	0.00046	-1e-05	-8e-05	-0.00105	3
11856	-0.0001	-0.00051	-8e-05	4e-05	0.00046	-1e-05	-8e-05	-0.00105	3
11857	-0.0001	-0.00051	-8e-05	4e-05	0.00046	-1e-05	-8e-05	-0.00105	3
11858	-0.0001	-0.00051	-8e-05	4e-05	0.00046	-1e-05	-8e-05	-0.00105	3
11859	-0.0001	-0.00051	-8e-05	4e-05	0.00046	-1e-05	-8e-05	-0.00105	3
11860	-0.0001	-0.00051	-8e-05	4e-05	0.00046	-1e-05	-8e-05	-0.00105	3
11861	-0.0001	-0.00051	-8e-05	4e-05	0.00046	-1e-05	-8e-05	-0.00105	3
11862	-0.0001	-0.00051	-8e-05	4e-05	0.00046	-1e-05	-8e-05	-0.00105	3
11863	-0.00033	-0.00016	-0.00011	-8e-05	0.00046	-0.00016	-0.0002	-0.00082	3
11864	-0.00026	-9e-05	-7e-05	4e-05	-0.00014	0.00073	0.00015	4e-05	3
11865	-0.00026	-9e-05	-7e-05	4e-05	-0.00014	0.00073	0.00015	4e-05	3
11866	-0.00026	-9e-05	-7e-05	4e-05	-0.00014	0.00073	0.00015	4e-05	3
11867	-0.00026	-9e-05	-7e-05	4e-05	-0.00014	0.00073	0.00015	4e-05	3
11868	-0.00026	-9e-05	-7e-05	4e-05	-0.00014	0.00073	0.00015	4e-05	3
11869	-0.00026	-9e-05	-7e-05	4e-05	-0.00014	0.00073	0.00015	4e-05	3
11870	-0.00026	-9e-05	-7e-05	4e-05	-0.00014	0.00073	0.00015	4e-05	3
11871	-0.00026	-9e-05	-7e-05	4e-05	-0.00014	0.00073	0.00015	4e-05	3
11872	0.00081	0.00053	0.00017	-7e-05	0.00049	0.00068	7e-05	0.00095	3
11873	0.00081	0.00053	0.00017	-7e-05	0.00049	0.00068	7e-05	0.00095	3
11874	0.00081	0.00053	0.00017	-7e-05	0.00049	0.00068	7e-05	0.00095	3
11875	0.00081	0.00053	0.00017	-7e-05	0.00049	0.00068	7e-05	0.00095	3
11876	0.00081	0.00053	0.00017	-7e-05	0.00049	0.00068	7e-05	0.00095	3
11877	0.00081	0.00053	0.00017	-7e-05	0.00049	0.00068	7e-05	0.00095	3
11878	0.00081	0.00053	0.00017	-7e-05	0.00049	0.00068	7e-05	0.00095	3
11879	0.00081	0.00053	0.00017	-7e-05	0.00049	0.00068	7e-05	0.00095	3
11880	0.00081	0.00053	0.00017	-7e-05	0.00049	0.00068	7e-05	0.00095	3
11881	0.00081	0.00053	0.00017	-7e-05	0.00049	0.00068	7e-05	0.00095	3
11882	0.00081	0.00053	0.00017	-7e-05	0.00049	0.00068	7e-05	0.00095	3
11883	0.00081	0.00053	0.00017	-7e-05	0.00049	0.00068	7e-05	0.00095	3
11884	0.00081	0.00053	0.00017	-7e-05	0.00049	0.00068	7e-05	0.00095	3
11885	0.00081	0.00053	0.00017	-7e-05	0.00049	0.00068	7e-05	0.00095	3
11886	0.00081	0.00053	0.00017	-7e-05	0.00049	0.00068	7e-05	0.00095	3
11889	-9e-05	-0.00035	-2e-05	0	0.00024	-0.00012	0.0001	0.00017	3
11890	-9e-05	-0.00035	-2e-05	0	0.00024	-0.00012	0.0001	0.00017	3
11891	-9e-05	-0.00035	-2e-05	0	0.00024	-0.00012	0.0001	0.00017	3
11892	-9e-05	-0.00035	-2e-05	0	0.00024	-0.00012	0.0001	0.00017	3
11893	0.00055	-3e-05	3e-05	4e-05	-0.00024	-0.00031	0.00015	-0.00033	3
11894	-0.00042	-0.00032	-0.0001	-0.0001	9e-05	-0.00099	-0.00062	-0.00041	3
11895	-0.00042	-0.00032	-0.0001	-0.0001	9e-05	-0.00099	-0.00062	-0.00041	3
11896	-0.00042	-0.00032	-0.0001	-0.0001	9e-05	-0.00099	-0.00062	-0.00041	3
11897	-0.00042	-0.00032	-0.0001	-0.0001	9e-05	-0.00099	-0.00062	-0.00041	3
11898	-0.00042	-0.00032	-0.0001	-0.0001	9e-05	-0.00099	-0.00062	-0.00041	3
11899	-0.00042	-0.00032	-0.0001	-0.0001	9e-05	-0.00099	-0.00062	-0.00041	3
11900	-0.00042	-0.00032	-0.0001	-0.0001	9e-05	-0.00099	-0.00062	-0.00041	3
11901	-0.00042	-0.00032	-0.0001	-0.0001	9e-05	-0.00099	-0.00062	-0.00041	3
11902	-0.00042	-0.00032	-0.0001	-0.0001	9e-05	-0.00099	-0.00062	-0.00041	3
11903	-0.00042	-0.00032	-0.0001	-0.0001	9e-05	-0.00099	-0.00062	-0.00041	3
11904	-0.00042	-0.00032	-0.0001	-0.0001	9e-05	-0.00099	-0.00062	-0.00041	3
11905	-0.00042	-0.00032	-0.0001	-0.0001	9e-05	-0.00099	-0.00062	-0.00041	3
11906	-0.00042	-0.00032	-0.0001	-0.0001	9e-05	-0.00099	-0.00062	-0.00041	3
11907	-0.00042	-0.00032	-0.0001	-0.0001	9e-05	-0.00099	-0.00062	-0.00041	3
11908	-0.00042	-0.00032	-0.0001	-0.0001	9e-05	-0.00099	-0.00062	-0.00041	3
11909	-0.00042	-0.00032	-0.0001	-0.0001	9e-05	-0.00099	-0.00062	-0.00041	3
11910	-0.00026	4e-05	-4e-05	5e-05	0.0001	0.00069	-9e-05	-0.00045	3
11911	1e-05	0.0003	-2e-05	-6e-05	-0.00032	-0.0001	6e-05	-0.00031	3
11912	1e-05	0.0003	-2e-05	-6e-05	-0.00032	-0.0001	6e-05	-0.00031	3
11913	1e-05	0.0003	-2e-05	-6e-05	-0.00032	-0.0001	6e-05	-0.00031	3
11914	1e-05	0.0003	-2e-05	-6e-05	-0.00032	-0.0001	6e-05	-0.00031	3
11915	1e-05	0.0003	-2e-05	-6e-05	-0.00032	-0.0001	6e-05	-0.00031	3
11916	1e-05	0.0003	-2e-05	-6e-05	-0.00032	-0.0001	6e-05	-0.00031	3
11917	1e-05	0.0003	-2e-05	-6e-05	-0.00032	-0.0001	6e-05	-0.00031	3
11918	1e-05	0.0003	-2e-05	-6e-05	-0.00032	-0.0001	6e-05	-0.00031	3
11919	1e-05	0.0003	-2e-05	-6e-05	-0.00032	-0.0001	6e-05	-0.00031	3
11920	1e-05	0.0003	-2e-05	-6e-05	-0.00032	-0.0001	6e-05	-0.00031	3
11921	1e-05	0.0003	-2e-05	-6e-05	-0.00032	-0.0001	6e-05	-0.00031	3
11922	1e-05	0.0003	-2e-05	-6e-05	-0.00032	-0.0001	6e-05	-0.00031	3
11923	1e-05	0.0003	-2e-05	-6e-05	-0.00032	-0.0001	6e-05	-0.00031	3
11924	-0.00033	-0.00072	-0.0001	-3e-05	0.0001	-2e-05	-0.00025	0.00056	3
11925	-0.00033	-0.00072	-0.0001	-3e-05	0.0001	-2e-05	-0.00025	0.00056	3
11926	-0.00033	-0.00072	-0.0001	-3e-05	0.0001	-2e-05	-0.00025	0.00056	3
11927	-0.00033	-0.00072	-0.0001	-3e-05	0.0001	-2e-05	-0.00025	0.00056	3
11928	-0.00033	-0.00072	-0.0001	-3e-05	0.0001	-2e-05	-0.00025	0.00056	3
11929	-0.00033	-0.00072	-0.0001	-3e-05	0.0001	-2e-05	-0.00025	0.00056	3
11930	-0.00033	-0.00072	-0.0001	-3e-05	0.0001	-2e-05	-0.00025	0.00056	3
11931	-0.00033	-0.00072	-0.0001	-3e-05	0.0001	-2e-05	-0.00025	0.00056	3
11932	-0.00042	-0.00035	-1e-05	0.00011	0.00026	7e-05	8e-05	-0.00091	3
11933	-0.00042	-0.00035	-1e-05	0.00011	0.00026	7e-05	8e-05	-0.00091	3
11934	-0.00042	-0.00035	-1e-05	0.00011	0.00026	7e-05	8e-05	-0.00091	3
11935	-0.00042	-0.00035	-1e-05	0.00011	0.00026	7e-05	8e-05	-0.00091	3
11936	-0.00042	-0.00035	-1e-05	0.00011	0.00026	7e-05	8e-05	-0.00091	3
11939	-0.00042	-0.00035	-1e-05	0.00011	0.00026	7e-05	8e-05	-0.00091	3
11940	-0.00042	-0.00035	-1e-05	0.00011	0.00026	7e-05	8e-05	-0.00091	3
11941	-0.00042	-0.00035	-1e-05	0.00011	0.00026	7e-05	8e-05	-0.00091	3
11942	-0.00042	-0.00035	-1e-05	0.00011	0.00026	7e-05	8e-05	-0.00091	3
11943	-0.00042	-0.00035	-1e-05	0.00011	0.00026	7e-05	8e-05	-0.00091	3
11944	-0.00042	-0.00035	-1e-05	0.00011	0.00026	7e-05	8e-05	-0.00091	3
11945	-0.00042	-0.00035	-1e-05	0.00011	0.00026	7e-05	8e-05	-0.00091	3
11946	-0.00042	-0.00035	-1e-05	0.00011	0.00026	7e-05	8e-05	-0.00091	3
11947	-8e-05	-0.00031	-0.0001	-0.00015	-0.00063	0.00015	0.00019	-0.00057	3
11948	-8e-05	-0.00031	-0.0001	-0.00015	-0.00063	0.00015	0.00019	-0.00057	3
11949	0.00033	0.00017	3e-05	8e-05	3e-05	-0.00036	-0.00011	-0.00067	3
11950	0.00033	0.00017	3e-05	8e-05	3e-05	-0.00036	-0.00011	-0.00067	3
11951	0.00033	0.00017	3e-05	8e-05	3e-05	-0.00036	-0.00011	-0.00067	3
11952	0.00033	0.00017	3e-05	8e-05	3e-05	-0.00036	-0.00011	-0.00067	3
11953	0.00033	0.00017	3e-05	8e-05	3e-05	-0.00036	-0.00011	-0.00067	3
11954	0.00033	0.00017	3e-05	8e-05	3e-05	-0.00036	-0.00011	-0.00067	3
11955	0.00033	0.00017	3e-05	8e-05	3e-05	-0.00036	-0.00011	-0.00067	3
11956	0.00033	0.00017	3e-05	8e-05	3e-05	-0.00036	-0.00011	-0.00067	3
11957	0.00033	0.00017	3e-05	8e-05	3e-05	-0.00036	-0.00011	-0.00067	3
11958	0.00033	0.00017	3e-05	8e-05	3e-05	-0.00036	-0.00011	-0.00067	3
11959	0.00033	0.00017	3e-05	8e-05	3e-05	-0.00036	-0.00011	-0.00067	3
11960	0.00033	0.00017	3e-05	8e-05	3e-05	-0.00036	-0.00011	-0.00067	3
11961	0.00033	0.00017	3e-05	8e-05	3e-05	-0.00036	-0.00011	-0.00067	3
11962	0.00033	0.00017	3e-05	8e-05	3e-05	-0.00036	-0.00011	-0.00067	3
11963	0.00033	0.00017	3e-05	8e-05	3e-05	-0.00036	-0.00011	-0.00067	3
11964	0.00033	0.00017	3e-05	8e-05	3e-05	-0.00036	-0.00011	-0.00067	3
11965	0.00033	0.00017	3e-05	8e-05	3e-05	-0.00036	-0.00011	-0.00067	3
11966	0.00033	0.00017	3e-05	8e-05	3e-05	-0.00036	-0.00011	-0.00067	3
11967	0.00033	0.00017	3e-05	8e-05	3e-05	-0.00036	-0.00011	-0.00067	3
11969	0.00033	0.00017	3e-05	8e-05	3e-05	-0.00036	-0.00011	-0.00067	3
11970	0.00017	-0.0006	-1e-05	1e-05	-9e-05	-0.00058	-0.00016	0.00035	3
11971	0.00017	-0.0006	-1e-05	1e-05	-9e-05	-0.00058	-0.00016	0.00035	3
11972	7e-05	0.00044	3e-05	-2e-05	2e-05	0.00023	0.0003	0.00068	3
11973	7e-05	0.00044	3e-05	-2e-05	2e-05	0.00023	0.0003	0.00068	3
11974	7e-05	0.00044	3e-05	-2e-05	2e-05	0.00023	0.0003	0.00068	3
11975	7e-05	0.00044	3e-05	-2e-05	2e-05	0.00023	0.0003	0.00068	3
11976	7e-05	0.00044	3e-05	-2e-05	2e-05	0.00023	0.0003	0.00068	3
11977	7e-05	0.00044	3e-05	-2e-05	2e-05	0.00023	0.0003	0.00068	3
11978	7e-05	0.00044	3e-05	-2e-05	2e-05	0.00023	0.0003	0.00068	3
11979	7e-05	0.00044	3e-05	-2e-05	2e-05	0.00023	0.0003	0.00068	3
11980	7e-05	0.00044	3e-05	-2e-05	2e-05	0.00023	0.0003	0.00068	3
11981	7e-05	0.00044	3e-05	-2e-05	2e-05	0.00023	0.0003	0.00068	3
11982	7e-05	0.00044	3e-05	-2e-05	2e-05	0.00023	0.0003	0.00068	3
11983	7e-05	0.00044	3e-05	-2e-05	2e-05	0.00023	0.0003	0.00068	3
11984	7e-05	0.00044	3e-05	-2e-05	2e-05	0.00023	0.0003	0.00068	3
11985	7e-05	0.00044	3e-05	-2e-05	2e-05	0.00023	0.0003	0.00068	3
11986	7e-05	0.00044	3e-05	-2e-05	2e-05	0.00023	0.0003	0.00068	3
11989	7e-05	0.00044	3e-05	-2e-05	2e-05	0.00023	0.0003	0.00068	3
11990	7e-05	0.00044	3e-05	-2e-05	2e-05	0.00023	0.0003	0.00068	3
11991	7e-05	0.00044	3e-05	-2e-05	2e-05	0.00023	0.0003	0.00068	3
11992	0.00028	0.00014	0.0001	5e-05	0.0002	0.00045	-0.00014	5e-05	3
11993	0.00028	0.00014	0.0001	5e-05	0.0002	0.00045	-0.00014	5e-05	3
11994	-8e-05	-0.00043	-6e-05	-5e-05	-0.00015	5e-05	0.00036	0.00108	3
11995	-8e-05	-0.00043	-6e-05	-5e-05	-0.00015	5e-05	0.00036	0.00108	3
11996	-8e-05	-0.00043	-6e-05	-5e-05	-0.00015	5e-05	0.00036	0.00108	3
11997	-8e-05	-0.00043	-6e-05	-5e-05	-0.00015	5e-05	0.00036	0.00108	3
11998	-8e-05	-0.00043	-6e-05	-5e-05	-0.00015	5e-05	0.00036	0.00108	3
11999	-8e-05	-0.00043	-6e-05	-5e-05	-0.00015	5e-05	0.00036	0.00108	3
12000	-8e-05	-0.00043	-6e-05	-5e-05	-0.00015	5e-05	0.00036	0.00108	3
12001	-8e-05	-0.00043	-6e-05	-5e-05	-0.00015	5e-05	0.00036	0.00108	3
12002	-8e-05	-0.00043	-6e-05	-5e-05	-0.00015	5e-05	0.00036	0.00108	3
12003	-8e-05	-0.00043	-6e-05	-5e-05	-0.00015	5e-05	0.00036	0.00108	3
12004	-8e-05	-0.00043	-6e-05	-5e-05	-0.00015	5e-05	0.00036	0.00108	3
12005	-8e-05	-0.00043	-6e-05	-5e-05	-0.00015	5e-05	0.00036	0.00108	3
12006	-8e-05	-0.00043	-6e-05	-5e-05	-0.00015	5e-05	0.00036	0.00108	3
12007	0.00023	0.00075	4e-05	-4e-05	0.00059	-0.00054	-4e-05	0.00049	3
12008	0.00023	0.00075	4e-05	-4e-05	0.00059	-0.00054	-4e-05	0.00049	3
12009	-0.00014	-0.00072	-0.00013	-8e-05	3e-05	-1e-05	-0.00038	0.00084	3
12010	-0.00014	-0.00072	-0.00013	-8e-05	3e-05	-1e-05	-0.00038	0.00084	3
12011	-0.00014	-0.00072	-0.00013	-8e-05	3e-05	-1e-05	-0.00038	0.00084	3
12012	-0.00014	-0.00072	-0.00013	-8e-05	3e-05	-1e-05	-0.00038	0.00084	3
12014	-0.00014	-0.00072	-0.00013	-8e-05	3e-05	-1e-05	-0.00038	0.00084	3
12015	-0.00014	-0.00072	-0.00013	-8e-05	3e-05	-1e-05	-0.00038	0.00084	3
12016	-0.00014	-0.00072	-0.00013	-8e-05	3e-05	-1e-05	-0.00038	0.00084	3
12017	-0.00014	-0.00072	-0.00013	-8e-05	3e-05	-1e-05	-0.00038	0.00084	3
12018	-0.00014	-0.00072	-0.00013	-8e-05	3e-05	-1e-05	-0.00038	0.00084	3
12019	-0.00014	-0.00072	-0.00013	-8e-05	3e-05	-1e-05	-0.00038	0.00084	3
12020	-0.00014	-0.00072	-0.00013	-8e-05	3e-05	-1e-05	-0.00038	0.00084	3
12021	-0.00014	-0.00072	-0.00013	-8e-05	3e-05	-1e-05	-0.00038	0.00084	3
12022	-0.00014	-0.00072	-0.00013	-8e-05	3e-05	-1e-05	-0.00038	0.00084	3
12023	-0.00014	-0.00072	-0.00013	-8e-05	3e-05	-1e-05	-0.00038	0.00084	3
12024	-0.00014	-0.00072	-0.00013	-8e-05	3e-05	-1e-05	-0.00038	0.00084	3
12025	-0.00014	-0.00072	-0.00013	-8e-05	3e-05	-1e-05	-0.00038	0.00084	3
12026	-0.00014	-0.00072	-0.00013	-8e-05	3e-05	-1e-05	-0.00038	0.00084	3
12027	-0.00014	-0.00072	-0.00013	-8e-05	3e-05	-1e-05	-0.00038	0.00084	3
12028	-0.00014	-0.00072	-0.00013	-8e-05	3e-05	-1e-05	-0.00038	0.00084	3
12029	-0.00014	-0.00072	-0.00013	-8e-05	3e-05	-1e-05	-0.00038	0.00084	3
12030	-0.0002	0.0001	3e-05	7e-05	-0.00013	0.00084	0.00017	-0.00052	3
12031	0.00037	0.00095	0.00015	-1e-05	-0.00015	-0.0009	-0.00022	-0.00128	3
12032	0.00037	0.00095	0.00015	-1e-05	-0.00015	-0.0009	-0.00022	-0.00128	3
12033	0.00037	0.00095	0.00015	-1e-05	-0.00015	-0.0009	-0.00022	-0.00128	3
12034	0.00037	0.00095	0.00015	-1e-05	-0.00015	-0.0009	-0.00022	-0.00128	3
12035	0.00037	0.00095	0.00015	-1e-05	-0.00015	-0.0009	-0.00022	-0.00128	3
12036	0.00037	0.00095	0.00015	-1e-05	-0.00015	-0.0009	-0.00022	-0.00128	3
12039	0.00037	0.00095	0.00015	-1e-05	-0.00015	-0.0009	-0.00022	-0.00128	3
12040	0.00037	0.00095	0.00015	-1e-05	-0.00015	-0.0009	-0.00022	-0.00128	3
12041	0.00037	0.00095	0.00015	-1e-05	-0.00015	-0.0009	-0.00022	-0.00128	3
12042	0.00037	0.00095	0.00015	-1e-05	-0.00015	-0.0009	-0.00022	-0.00128	3
12043	0.00037	0.00095	0.00015	-1e-05	-0.00015	-0.0009	-0.00022	-0.00128	3
12044	0.00037	0.00095	0.00015	-1e-05	-0.00015	-0.0009	-0.00022	-0.00128	3
12045	0.00037	0.00095	0.00015	-1e-05	-0.00015	-0.0009	-0.00022	-0.00128	3
12046	0.00037	0.00095	0.00015	-1e-05	-0.00015	-0.0009	-0.00022	-0.00128	3
12047	0.00037	0.00095	0.00015	-1e-05	-0.00015	-0.0009	-0.00022	-0.00128	3
12048	0.00037	0.00095	0.00015	-1e-05	-0.00015	-0.0009	-0.00022	-0.00128	3
12049	0.00037	0.00095	0.00015	-1e-05	-0.00015	-0.0009	-0.00022	-0.00128	3
12050	0.00037	0.00095	0.00015	-1e-05	-0.00015	-0.0009	-0.00022	-0.00128	3
12051	0.00037	0.00095	0.00015	-1e-05	-0.00015	-0.0009	-0.00022	-0.00128	3
12052	0.00021	0.00068	0.00012	7e-05	-0.00043	-0.00046	-0.00015	-0.00029	3
12053	0.00021	0.00068	0.00012	7e-05	-0.00043	-0.00046	-0.00015	-0.00029	3
12054	1e-05	0.00045	3e-05	-5e-05	-0.00076	-0.00079	0	5e-05	3
12055	1e-05	0.00045	3e-05	-5e-05	-0.00076	-0.00079	0	5e-05	3
12056	1e-05	0.00045	3e-05	-5e-05	-0.00076	-0.00079	0	5e-05	3
12057	1e-05	0.00045	3e-05	-5e-05	-0.00076	-0.00079	0	5e-05	3
12058	1e-05	0.00045	3e-05	-5e-05	-0.00076	-0.00079	0	5e-05	3
12059	1e-05	0.00045	3e-05	-5e-05	-0.00076	-0.00079	0	5e-05	3
12060	1e-05	0.00045	3e-05	-5e-05	-0.00076	-0.00079	0	5e-05	3
12061	1e-05	0.00045	3e-05	-5e-05	-0.00076	-0.00079	0	5e-05	3
12062	1e-05	0.00045	3e-05	-5e-05	-0.00076	-0.00079	0	5e-05	3
12063	1e-05	0.00045	3e-05	-5e-05	-0.00076	-0.00079	0	5e-05	3
12064	1e-05	0.00045	3e-05	-5e-05	-0.00076	-0.00079	0	5e-05	3
12065	1e-05	0.00045	3e-05	-5e-05	-0.00076	-0.00079	0	5e-05	3
12066	1e-05	0.00045	3e-05	-5e-05	-0.00076	-0.00079	0	5e-05	3
12067	-0.00026	-0.0004	0	5e-05	0.00067	-0.00051	-0.00015	0.0001	3
12068	-0.00026	-0.0004	0	5e-05	0.00067	-0.00051	-0.00015	0.0001	3
12069	-0.00026	-0.0004	0	5e-05	0.00067	-0.00051	-0.00015	0.0001	3
12070	-0.00026	-0.0004	0	5e-05	0.00067	-0.00051	-0.00015	0.0001	3
12071	-0.00026	-0.0004	0	5e-05	0.00067	-0.00051	-0.00015	0.0001	3
12072	-0.00026	-0.0004	0	5e-05	0.00067	-0.00051	-0.00015	0.0001	3
12073	-9e-05	-6e-05	-3e-05	-9e-05	-0.00038	0.0008	5e-05	-8e-05	3
12074	-9e-05	-6e-05	-3e-05	-9e-05	-0.00038	0.0008	5e-05	-8e-05	3
12075	-9e-05	-6e-05	-3e-05	-9e-05	-0.00038	0.0008	5e-05	-8e-05	3
12076	-9e-05	-6e-05	-3e-05	-9e-05	-0.00038	0.0008	5e-05	-8e-05	3
12077	-9e-05	-6e-05	-3e-05	-9e-05	-0.00038	0.0008	5e-05	-8e-05	3
12078	-9e-05	-6e-05	-3e-05	-9e-05	-0.00038	0.0008	5e-05	-8e-05	3
12079	-9e-05	-6e-05	-3e-05	-9e-05	-0.00038	0.0008	5e-05	-8e-05	3
12080	-9e-05	-6e-05	-3e-05	-9e-05	-0.00038	0.0008	5e-05	-8e-05	3
12081	-9e-05	-6e-05	-3e-05	-9e-05	-0.00038	0.0008	5e-05	-8e-05	3
12082	-9e-05	-6e-05	-3e-05	-9e-05	-0.00038	0.0008	5e-05	-8e-05	3
12083	-9e-05	-6e-05	-3e-05	-9e-05	-0.00038	0.0008	5e-05	-8e-05	3
12084	-9e-05	-6e-05	-3e-05	-9e-05	-0.00038	0.0008	5e-05	-8e-05	3
12085	-9e-05	-6e-05	-3e-05	-9e-05	-0.00038	0.0008	5e-05	-8e-05	3
12086	-9e-05	-6e-05	-3e-05	-9e-05	-0.00038	0.0008	5e-05	-8e-05	3
12088	-9e-05	-6e-05	-3e-05	-9e-05	-0.00038	0.0008	5e-05	-8e-05	3
12089	-9e-05	-6e-05	-3e-05	-9e-05	-0.00038	0.0008	5e-05	-8e-05	3
12090	-0.00023	0.00012	2e-05	-1e-05	0.00027	-0.00012	0.00025	-0.00026	3
12091	0.00013	-0.00026	0	3e-05	0.0008	0.00023	-8e-05	-0.00128	3
12092	0.00013	-0.00026	0	3e-05	0.0008	0.00023	-8e-05	-0.00128	3
12093	0.00013	-0.00026	0	3e-05	0.0008	0.00023	-8e-05	-0.00128	3
12094	0.00013	-0.00026	0	3e-05	0.0008	0.00023	-8e-05	-0.00128	3
12095	0.00013	-0.00026	0	3e-05	0.0008	0.00023	-8e-05	-0.00128	3
12096	0.00013	-0.00026	0	3e-05	0.0008	0.00023	-8e-05	-0.00128	3
12097	0.00013	-0.00026	0	3e-05	0.0008	0.00023	-8e-05	-0.00128	3
12098	0.00013	-0.00026	0	3e-05	0.0008	0.00023	-8e-05	-0.00128	3
12099	0.00013	-0.00026	0	3e-05	0.0008	0.00023	-8e-05	-0.00128	3
12100	0.00013	-0.00026	0	3e-05	0.0008	0.00023	-8e-05	-0.00128	3
12101	0.00013	-0.00026	0	3e-05	0.0008	0.00023	-8e-05	-0.00128	3
12102	0.00013	-0.00026	0	3e-05	0.0008	0.00023	-8e-05	-0.00128	3
12103	0.00013	-0.00026	0	3e-05	0.0008	0.00023	-8e-05	-0.00128	3
12104	0.00013	-0.00026	0	3e-05	0.0008	0.00023	-8e-05	-0.00128	3
12105	0.00013	-0.00026	0	3e-05	0.0008	0.00023	-8e-05	-0.00128	3
12106	0.00013	-0.00026	0	3e-05	0.0008	0.00023	-8e-05	-0.00128	3
12107	0.00013	-0.00026	0	3e-05	0.0008	0.00023	-8e-05	-0.00128	3
12109	0.00013	-0.00026	0	3e-05	0.0008	0.00023	-8e-05	-0.00128	3
12110	0.00013	-0.00026	0	3e-05	0.0008	0.00023	-8e-05	-0.00128	3
12111	0.00013	-0.00026	0	3e-05	0.0008	0.00023	-8e-05	-0.00128	3
12112	-0.0002	-0.00078	-0.00015	-0.00012	-0.00015	-0.00016	-0.00024	0.00067	3
12113	-0.0002	-0.00078	-0.00015	-0.00012	-0.00015	-0.00016	-0.00024	0.00067	3
12114	-0.00018	0.00029	-7e-05	2e-05	0	0.00034	9e-05	-0.00024	3
12115	-0.00018	0.00029	-7e-05	2e-05	0	0.00034	9e-05	-0.00024	3
12116	-0.00018	0.00029	-7e-05	2e-05	0	0.00034	9e-05	-0.00024	3
12117	-0.00018	0.00029	-7e-05	2e-05	0	0.00034	9e-05	-0.00024	3
12118	-0.00018	0.00029	-7e-05	2e-05	0	0.00034	9e-05	-0.00024	3
12119	-0.00018	0.00029	-7e-05	2e-05	0	0.00034	9e-05	-0.00024	3
12120	-0.00018	0.00029	-7e-05	2e-05	0	0.00034	9e-05	-0.00024	3
12121	-0.00018	0.00029	-7e-05	2e-05	0	0.00034	9e-05	-0.00024	3
12122	-0.00018	0.00029	-7e-05	2e-05	0	0.00034	9e-05	-0.00024	3
12123	-0.00018	0.00029	-7e-05	2e-05	0	0.00034	9e-05	-0.00024	3
12124	-0.00018	0.00029	-7e-05	2e-05	0	0.00034	9e-05	-0.00024	3
12125	-0.00018	0.00029	-7e-05	2e-05	0	0.00034	9e-05	-0.00024	3
12126	-0.00018	0.00029	-7e-05	2e-05	0	0.00034	9e-05	-0.00024	3
12127	0.00016	0.00061	0	-0.00011	-0.00036	-0.00027	0.00046	-0.0006	3
12129	0.00016	0.00061	0	-0.00011	-0.00036	-0.00027	0.00046	-0.0006	3
12130	0.00016	0.00061	0	-0.00011	-0.00036	-0.00027	0.00046	-0.0006	3
12131	0.00016	0.00061	0	-0.00011	-0.00036	-0.00027	0.00046	-0.0006	3
12132	0.00016	0.00061	0	-0.00011	-0.00036	-0.00027	0.00046	-0.0006	3
12133	-8e-05	-0.00028	-3e-05	0	0.00017	-0.00022	-0.00038	0.00053	3
12134	-8e-05	-0.00028	-3e-05	0	0.00017	-0.00022	-0.00038	0.00053	3
12135	-8e-05	-0.00028	-3e-05	0	0.00017	-0.00022	-0.00038	0.00053	3
12136	-8e-05	-0.00028	-3e-05	0	0.00017	-0.00022	-0.00038	0.00053	3
12138	-8e-05	-0.00028	-3e-05	0	0.00017	-0.00022	-0.00038	0.00053	3
12139	-8e-05	-0.00028	-3e-05	0	0.00017	-0.00022	-0.00038	0.00053	3
12140	-8e-05	-0.00028	-3e-05	0	0.00017	-0.00022	-0.00038	0.00053	3
12141	-8e-05	-0.00028	-3e-05	0	0.00017	-0.00022	-0.00038	0.00053	3
12142	-8e-05	-0.00028	-3e-05	0	0.00017	-0.00022	-0.00038	0.00053	3
12143	-8e-05	-0.00028	-3e-05	0	0.00017	-0.00022	-0.00038	0.00053	3
12144	-8e-05	-0.00028	-3e-05	0	0.00017	-0.00022	-0.00038	0.00053	3
12145	-8e-05	-0.00028	-3e-05	0	0.00017	-0.00022	-0.00038	0.00053	3
12146	-8e-05	-0.00028	-3e-05	0	0.00017	-0.00022	-0.00038	0.00053	3
12147	-8e-05	-0.00028	-3e-05	0	0.00017	-0.00022	-0.00038	0.00053	3
12148	-8e-05	-0.00028	-3e-05	0	0.00017	-0.00022	-0.00038	0.00053	3
12149	-8e-05	-0.00028	-3e-05	0	0.00017	-0.00022	-0.00038	0.00053	3
12150	0.00021	-0.0002	-3e-05	3e-05	-0.00016	1e-05	-0.0003	-0.00038	3
12151	0.00017	2e-05	3e-05	0.00012	-0.00014	0.00115	0.00021	0.00079	3
12153	0.00017	2e-05	3e-05	0.00012	-0.00014	0.00115	0.00021	0.00079	3
12154	0.00017	2e-05	3e-05	0.00012	-0.00014	0.00115	0.00021	0.00079	3
12155	0.00017	2e-05	3e-05	0.00012	-0.00014	0.00115	0.00021	0.00079	3
12156	0.00017	2e-05	3e-05	0.00012	-0.00014	0.00115	0.00021	0.00079	3
12157	0.00017	2e-05	3e-05	0.00012	-0.00014	0.00115	0.00021	0.00079	3
12158	0.00017	2e-05	3e-05	0.00012	-0.00014	0.00115	0.00021	0.00079	3
12159	0.00017	2e-05	3e-05	0.00012	-0.00014	0.00115	0.00021	0.00079	3
12160	0.00017	2e-05	3e-05	0.00012	-0.00014	0.00115	0.00021	0.00079	3
12161	0.00017	2e-05	3e-05	0.00012	-0.00014	0.00115	0.00021	0.00079	3
12162	0.00017	2e-05	3e-05	0.00012	-0.00014	0.00115	0.00021	0.00079	3
12163	0.00017	2e-05	3e-05	0.00012	-0.00014	0.00115	0.00021	0.00079	3
12164	0.00017	2e-05	3e-05	0.00012	-0.00014	0.00115	0.00021	0.00079	3
12165	0.00017	2e-05	3e-05	0.00012	-0.00014	0.00115	0.00021	0.00079	3
12166	0.00017	2e-05	3e-05	0.00012	-0.00014	0.00115	0.00021	0.00079	3
12167	0.00017	2e-05	3e-05	0.00012	-0.00014	0.00115	0.00021	0.00079	3
12168	0.00017	2e-05	3e-05	0.00012	-0.00014	0.00115	0.00021	0.00079	3
12169	0.00017	2e-05	3e-05	0.00012	-0.00014	0.00115	0.00021	0.00079	3
12170	0.00017	2e-05	3e-05	0.00012	-0.00014	0.00115	0.00021	0.00079	3
12171	0.00017	2e-05	3e-05	0.00012	-0.00014	0.00115	0.00021	0.00079	3
12172	-0.0001	0.00028	2e-05	-5e-05	0.00026	-0.00032	6e-05	-0.00018	3
12173	-0.00027	0.00063	-2e-05	3e-05	-0.00059	-0.00048	0.00018	0.00049	3
12174	-0.00027	0.00063	-2e-05	3e-05	-0.00059	-0.00048	0.00018	0.00049	3
12175	-0.00027	0.00063	-2e-05	3e-05	-0.00059	-0.00048	0.00018	0.00049	3
12176	-0.00027	0.00063	-2e-05	3e-05	-0.00059	-0.00048	0.00018	0.00049	3
12177	-0.00027	0.00063	-2e-05	3e-05	-0.00059	-0.00048	0.00018	0.00049	3
12178	-0.00027	0.00063	-2e-05	3e-05	-0.00059	-0.00048	0.00018	0.00049	3
12179	-0.00027	0.00063	-2e-05	3e-05	-0.00059	-0.00048	0.00018	0.00049	3
12180	-0.00027	0.00063	-2e-05	3e-05	-0.00059	-0.00048	0.00018	0.00049	3
12181	-0.00027	0.00063	-2e-05	3e-05	-0.00059	-0.00048	0.00018	0.00049	3
12182	-0.00027	0.00063	-2e-05	3e-05	-0.00059	-0.00048	0.00018	0.00049	3
12183	-0.00027	0.00063	-2e-05	3e-05	-0.00059	-0.00048	0.00018	0.00049	3
12184	-0.00027	0.00063	-2e-05	3e-05	-0.00059	-0.00048	0.00018	0.00049	3
12185	-0.00027	0.00063	-2e-05	3e-05	-0.00059	-0.00048	0.00018	0.00049	3
12186	4e-05	-0.00072	-0.00015	0	-2e-05	-0.0001	2e-05	7e-05	3
12188	4e-05	-0.00072	-0.00015	0	-2e-05	-0.0001	2e-05	7e-05	3
12189	4e-05	-0.00072	-0.00015	0	-2e-05	-0.0001	2e-05	7e-05	3
12190	4e-05	-0.00072	-0.00015	0	-2e-05	-0.0001	2e-05	7e-05	3
12191	4e-05	-0.00072	-0.00015	0	-2e-05	-0.0001	2e-05	7e-05	3
12192	4e-05	-0.00072	-0.00015	0	-2e-05	-0.0001	2e-05	7e-05	3
12193	4e-05	-0.00072	-0.00015	0	-2e-05	-0.0001	2e-05	7e-05	3
12194	-8e-05	-0.0001	0	-7e-05	0.00051	0.00049	0.00027	0.00081	3
12195	-8e-05	-0.0001	0	-7e-05	0.00051	0.00049	0.00027	0.00081	3
12196	-8e-05	-0.0001	0	-7e-05	0.00051	0.00049	0.00027	0.00081	3
12197	-8e-05	-0.0001	0	-7e-05	0.00051	0.00049	0.00027	0.00081	3
12198	-8e-05	-0.0001	0	-7e-05	0.00051	0.00049	0.00027	0.00081	3
12199	-8e-05	-0.0001	0	-7e-05	0.00051	0.00049	0.00027	0.00081	3
12200	-8e-05	-0.0001	0	-7e-05	0.00051	0.00049	0.00027	0.00081	3
12201	-8e-05	-0.0001	0	-7e-05	0.00051	0.00049	0.00027	0.00081	3
12202	-8e-05	-0.0001	0	-7e-05	0.00051	0.00049	0.00027	0.00081	3
12203	-8e-05	-0.0001	0	-7e-05	0.00051	0.00049	0.00027	0.00081	3
12204	-8e-05	-0.0001	0	-7e-05	0.00051	0.00049	0.00027	0.00081	3
12205	-8e-05	-0.0001	0	-7e-05	0.00051	0.00049	0.00027	0.00081	3
12206	-8e-05	-0.0001	0	-7e-05	0.00051	0.00049	0.00027	0.00081	3
12207	-8e-05	-0.0001	0	-7e-05	0.00051	0.00049	0.00027	0.00081	3
12208	-8e-05	-0.0001	0	-7e-05	0.00051	0.00049	0.00027	0.00081	3
12209	0.00074	0.00042	6e-05	-1e-05	0.00018	8e-05	-0.00022	-0.00077	3
12210	0.00037	-0.00046	-0.0001	-9e-05	0.00033	-6e-05	-2e-05	-0.00049	3
12211	0.00037	-0.00046	-0.0001	-9e-05	0.00033	-6e-05	-2e-05	-0.00049	3
12212	0.00037	-0.00046	-0.0001	-9e-05	0.00033	-6e-05	-2e-05	-0.00049	3
12213	0.00037	-0.00046	-0.0001	-9e-05	0.00033	-6e-05	-2e-05	-0.00049	3
12214	0.00037	-0.00046	-0.0001	-9e-05	0.00033	-6e-05	-2e-05	-0.00049	3
12215	0.00037	-0.00046	-0.0001	-9e-05	0.00033	-6e-05	-2e-05	-0.00049	3
12216	0.00037	-0.00046	-0.0001	-9e-05	0.00033	-6e-05	-2e-05	-0.00049	3
12217	0.00037	-0.00046	-0.0001	-9e-05	0.00033	-6e-05	-2e-05	-0.00049	3
12218	0.00037	-0.00046	-0.0001	-9e-05	0.00033	-6e-05	-2e-05	-0.00049	3
12219	0.00037	-0.00046	-0.0001	-9e-05	0.00033	-6e-05	-2e-05	-0.00049	3
12220	0.00037	-0.00046	-0.0001	-9e-05	0.00033	-6e-05	-2e-05	-0.00049	3
12221	0.00037	-0.00046	-0.0001	-9e-05	0.00033	-6e-05	-2e-05	-0.00049	3
12222	0.00037	-0.00046	-0.0001	-9e-05	0.00033	-6e-05	-2e-05	-0.00049	3
12223	0.00037	-0.00046	-0.0001	-9e-05	0.00033	-6e-05	-2e-05	-0.00049	3
12224	0.00037	-0.00046	-0.0001	-9e-05	0.00033	-6e-05	-2e-05	-0.00049	3
12225	0.00037	-0.00046	-0.0001	-9e-05	0.00033	-6e-05	-2e-05	-0.00049	3
12226	0.00037	-0.00046	-0.0001	-9e-05	0.00033	-6e-05	-2e-05	-0.00049	3
12227	0.00037	-0.00046	-0.0001	-9e-05	0.00033	-6e-05	-2e-05	-0.00049	3
12228	0.00037	-0.00046	-0.0001	-9e-05	0.00033	-6e-05	-2e-05	-0.00049	3
12229	0.00037	-0.00046	-0.0001	-9e-05	0.00033	-6e-05	-2e-05	-0.00049	3
12230	0.00037	-0.00046	-0.0001	-9e-05	0.00033	-6e-05	-2e-05	-0.00049	3
12231	0.00037	-0.00046	-0.0001	-9e-05	0.00033	-6e-05	-2e-05	-0.00049	3
12232	-0.00042	-0.00114	-5e-05	2e-05	0.00013	-0.00022	7e-05	0.00012	3
12233	-0.00042	-0.00114	-5e-05	2e-05	0.00013	-0.00022	7e-05	0.00012	3
12234	-0.00042	-0.00114	-5e-05	2e-05	0.00013	-0.00022	7e-05	0.00012	3
12235	-0.00042	-0.00114	-5e-05	2e-05	0.00013	-0.00022	7e-05	0.00012	3
12236	-0.00042	-0.00114	-5e-05	2e-05	0.00013	-0.00022	7e-05	0.00012	3
12238	-0.00042	-0.00114	-5e-05	2e-05	0.00013	-0.00022	7e-05	0.00012	3
12239	-0.00042	-0.00114	-5e-05	2e-05	0.00013	-0.00022	7e-05	0.00012	3
12240	-0.00042	-0.00114	-5e-05	2e-05	0.00013	-0.00022	7e-05	0.00012	3
12241	-0.00042	-0.00114	-5e-05	2e-05	0.00013	-0.00022	7e-05	0.00012	3
12242	-0.00042	-0.00114	-5e-05	2e-05	0.00013	-0.00022	7e-05	0.00012	3
12243	-0.00042	-0.00114	-5e-05	2e-05	0.00013	-0.00022	7e-05	0.00012	3
12244	-0.00042	-0.00114	-5e-05	2e-05	0.00013	-0.00022	7e-05	0.00012	3
12245	-0.00042	-0.00114	-5e-05	2e-05	0.00013	-0.00022	7e-05	0.00012	3
12246	5e-05	0.00043	5e-05	-2e-05	-0.00021	-0.00017	0.00014	0.00015	3
12247	5e-05	0.00043	5e-05	-2e-05	-0.00021	-0.00017	0.00014	0.00015	3
12248	5e-05	0.00043	5e-05	-2e-05	-0.00021	-0.00017	0.00014	0.00015	3
12249	5e-05	0.00043	5e-05	-2e-05	-0.00021	-0.00017	0.00014	0.00015	3
12250	5e-05	0.00043	5e-05	-2e-05	-0.00021	-0.00017	0.00014	0.00015	3
12251	5e-05	0.00043	5e-05	-2e-05	-0.00021	-0.00017	0.00014	0.00015	3
12252	5e-05	0.00043	5e-05	-2e-05	-0.00021	-0.00017	0.00014	0.00015	3
12253	5e-05	0.00043	5e-05	-2e-05	-0.00021	-0.00017	0.00014	0.00015	3
12254	2e-05	0.00047	0.00015	0	-5e-05	-0.0007	-5e-05	7e-05	3
12255	2e-05	0.00047	0.00015	0	-5e-05	-0.0007	-5e-05	7e-05	3
12256	2e-05	0.00047	0.00015	0	-5e-05	-0.0007	-5e-05	7e-05	3
12257	2e-05	0.00047	0.00015	0	-5e-05	-0.0007	-5e-05	7e-05	3
12258	2e-05	0.00047	0.00015	0	-5e-05	-0.0007	-5e-05	7e-05	3
12259	2e-05	0.00047	0.00015	0	-5e-05	-0.0007	-5e-05	7e-05	3
12260	2e-05	0.00047	0.00015	0	-5e-05	-0.0007	-5e-05	7e-05	3
12261	2e-05	0.00047	0.00015	0	-5e-05	-0.0007	-5e-05	7e-05	3
12262	2e-05	0.00047	0.00015	0	-5e-05	-0.0007	-5e-05	7e-05	3
12263	2e-05	0.00047	0.00015	0	-5e-05	-0.0007	-5e-05	7e-05	3
12264	2e-05	0.00047	0.00015	0	-5e-05	-0.0007	-5e-05	7e-05	3
12265	2e-05	0.00047	0.00015	0	-5e-05	-0.0007	-5e-05	7e-05	3
12266	2e-05	0.00047	0.00015	0	-5e-05	-0.0007	-5e-05	7e-05	3
12267	2e-05	0.00047	0.00015	0	-5e-05	-0.0007	-5e-05	7e-05	3
12268	2e-05	0.00047	0.00015	0	-5e-05	-0.0007	-5e-05	7e-05	3
12269	5e-05	0.00018	3e-05	-3e-05	-0.00051	0.00013	-8e-05	-0.00103	3
12270	0.00032	0.00086	0.00014	0	-0.00044	-0.00073	-0.00037	-0.00038	3
12271	0.00032	0.00086	0.00014	0	-0.00044	-0.00073	-0.00037	-0.00038	3
12272	0.00032	0.00086	0.00014	0	-0.00044	-0.00073	-0.00037	-0.00038	3
12273	0.00032	0.00086	0.00014	0	-0.00044	-0.00073	-0.00037	-0.00038	3
12274	0.00032	0.00086	0.00014	0	-0.00044	-0.00073	-0.00037	-0.00038	3
12275	0.00032	0.00086	0.00014	0	-0.00044	-0.00073	-0.00037	-0.00038	3
12276	0.00032	0.00086	0.00014	0	-0.00044	-0.00073	-0.00037	-0.00038	3
12277	0.00032	0.00086	0.00014	0	-0.00044	-0.00073	-0.00037	-0.00038	3
12278	0.00032	0.00086	0.00014	0	-0.00044	-0.00073	-0.00037	-0.00038	3
12279	0.00032	0.00086	0.00014	0	-0.00044	-0.00073	-0.00037	-0.00038	3
12280	0.00032	0.00086	0.00014	0	-0.00044	-0.00073	-0.00037	-0.00038	3
12281	0.00032	0.00086	0.00014	0	-0.00044	-0.00073	-0.00037	-0.00038	3
12282	0.00032	0.00086	0.00014	0	-0.00044	-0.00073	-0.00037	-0.00038	3
12283	0.00032	0.00086	0.00014	0	-0.00044	-0.00073	-0.00037	-0.00038	3
12284	0.00032	0.00086	0.00014	0	-0.00044	-0.00073	-0.00037	-0.00038	3
12285	0.00032	0.00086	0.00014	0	-0.00044	-0.00073	-0.00037	-0.00038	3
12286	0.00032	0.00086	0.00014	0	-0.00044	-0.00073	-0.00037	-0.00038	3
12288	0.00032	0.00086	0.00014	0	-0.00044	-0.00073	-0.00037	-0.00038	3
12289	0.00032	0.00086	0.00014	0	-0.00044	-0.00073	-0.00037	-0.00038	3
12290	0.00032	0.00086	0.00014	0	-0.00044	-0.00073	-0.00037	-0.00038	3
12291	0.00032	0.00086	0.00014	0	-0.00044	-0.00073	-0.00037	-0.00038	3
12292	0.00012	0.00014	-4e-05	-9e-05	-0.00037	-0.00041	-0.0001	-0.0004	3
12293	0.00012	0.00014	-4e-05	-9e-05	-0.00037	-0.00041	-0.0001	-0.0004	3
12294	0.00012	0.00014	-4e-05	-9e-05	-0.00037	-0.00041	-0.0001	-0.0004	3
12295	0.00012	0.00014	-4e-05	-9e-05	-0.00037	-0.00041	-0.0001	-0.0004	3
12296	0.00012	0.00014	-4e-05	-9e-05	-0.00037	-0.00041	-0.0001	-0.0004	3
12297	0.00012	0.00014	-4e-05	-9e-05	-0.00037	-0.00041	-0.0001	-0.0004	3
12298	0.00012	0.00014	-4e-05	-9e-05	-0.00037	-0.00041	-0.0001	-0.0004	3
12299	0.00012	0.00014	-4e-05	-9e-05	-0.00037	-0.00041	-0.0001	-0.0004	3
12300	0.00012	0.00014	-4e-05	-9e-05	-0.00037	-0.00041	-0.0001	-0.0004	3
12301	0.00012	0.00014	-4e-05	-9e-05	-0.00037	-0.00041	-0.0001	-0.0004	3
12302	0.00012	0.00014	-4e-05	-9e-05	-0.00037	-0.00041	-0.0001	-0.0004	3
12303	0.00012	0.00014	-4e-05	-9e-05	-0.00037	-0.00041	-0.0001	-0.0004	3
12304	0.00012	0.00014	-4e-05	-9e-05	-0.00037	-0.00041	-0.0001	-0.0004	3
12305	0.00012	0.00014	-4e-05	-9e-05	-0.00037	-0.00041	-0.0001	-0.0004	3
12306	-0.00012	0.00026	-2e-05	9e-05	0.00033	0.00058	0.0001	-8e-05	3
12307	-0.00012	0.00026	-2e-05	9e-05	0.00033	0.00058	0.0001	-8e-05	3
12308	-0.00012	0.00026	-2e-05	9e-05	0.00033	0.00058	0.0001	-8e-05	3
12309	-0.00012	0.00026	-2e-05	9e-05	0.00033	0.00058	0.0001	-8e-05	3
12310	-0.00012	0.00026	-2e-05	9e-05	0.00033	0.00058	0.0001	-8e-05	3
12311	-0.00012	0.00026	-2e-05	9e-05	0.00033	0.00058	0.0001	-8e-05	3
12312	-0.00012	0.00026	-2e-05	9e-05	0.00033	0.00058	0.0001	-8e-05	3
12313	-0.00012	0.00026	-2e-05	9e-05	0.00033	0.00058	0.0001	-8e-05	3
12314	-7e-05	0.00029	-8e-05	-2e-05	-0.00034	9e-05	0.00011	-0.00014	3
12315	-7e-05	0.00029	-8e-05	-2e-05	-0.00034	9e-05	0.00011	-0.00014	3
12316	-7e-05	0.00029	-8e-05	-2e-05	-0.00034	9e-05	0.00011	-0.00014	3
12317	-7e-05	0.00029	-8e-05	-2e-05	-0.00034	9e-05	0.00011	-0.00014	3
12318	-7e-05	0.00029	-8e-05	-2e-05	-0.00034	9e-05	0.00011	-0.00014	3
12319	-7e-05	0.00029	-8e-05	-2e-05	-0.00034	9e-05	0.00011	-0.00014	3
12320	-7e-05	0.00029	-8e-05	-2e-05	-0.00034	9e-05	0.00011	-0.00014	3
12321	-7e-05	0.00029	-8e-05	-2e-05	-0.00034	9e-05	0.00011	-0.00014	3
12322	-7e-05	0.00029	-8e-05	-2e-05	-0.00034	9e-05	0.00011	-0.00014	3
12323	-7e-05	0.00029	-8e-05	-2e-05	-0.00034	9e-05	0.00011	-0.00014	3
12324	-7e-05	0.00029	-8e-05	-2e-05	-0.00034	9e-05	0.00011	-0.00014	3
12325	-7e-05	0.00029	-8e-05	-2e-05	-0.00034	9e-05	0.00011	-0.00014	3
12326	-7e-05	0.00029	-8e-05	-2e-05	-0.00034	9e-05	0.00011	-0.00014	3
12327	-7e-05	0.00029	-8e-05	-2e-05	-0.00034	9e-05	0.00011	-0.00014	3
12328	-7e-05	0.00029	-8e-05	-2e-05	-0.00034	9e-05	0.00011	-0.00014	3
12329	0.00031	-7e-05	0	-7e-05	-0.00067	0.00019	0.00018	-0.00065	3
12330	-1e-05	6e-05	-1e-05	-1e-05	0.00059	0.0003	0.00032	0.00088	3
12331	-1e-05	6e-05	-1e-05	-1e-05	0.00059	0.0003	0.00032	0.00088	3
12332	-1e-05	6e-05	-1e-05	-1e-05	0.00059	0.0003	0.00032	0.00088	3
12333	-1e-05	6e-05	-1e-05	-1e-05	0.00059	0.0003	0.00032	0.00088	3
12334	-1e-05	6e-05	-1e-05	-1e-05	0.00059	0.0003	0.00032	0.00088	3
12335	-1e-05	6e-05	-1e-05	-1e-05	0.00059	0.0003	0.00032	0.00088	3
12336	-1e-05	6e-05	-1e-05	-1e-05	0.00059	0.0003	0.00032	0.00088	3
12338	-1e-05	6e-05	-1e-05	-1e-05	0.00059	0.0003	0.00032	0.00088	3
12339	-1e-05	6e-05	-1e-05	-1e-05	0.00059	0.0003	0.00032	0.00088	3
12340	-1e-05	6e-05	-1e-05	-1e-05	0.00059	0.0003	0.00032	0.00088	3
12341	-1e-05	6e-05	-1e-05	-1e-05	0.00059	0.0003	0.00032	0.00088	3
12342	-1e-05	6e-05	-1e-05	-1e-05	0.00059	0.0003	0.00032	0.00088	3
12343	-1e-05	6e-05	-1e-05	-1e-05	0.00059	0.0003	0.00032	0.00088	3
12344	-1e-05	6e-05	-1e-05	-1e-05	0.00059	0.0003	0.00032	0.00088	3
12345	-1e-05	6e-05	-1e-05	-1e-05	0.00059	0.0003	0.00032	0.00088	3
12346	-1e-05	6e-05	-1e-05	-1e-05	0.00059	0.0003	0.00032	0.00088	3
12347	-1e-05	6e-05	-1e-05	-1e-05	0.00059	0.0003	0.00032	0.00088	3
12348	-1e-05	6e-05	-1e-05	-1e-05	0.00059	0.0003	0.00032	0.00088	3
12349	-1e-05	6e-05	-1e-05	-1e-05	0.00059	0.0003	0.00032	0.00088	3
12350	-1e-05	6e-05	-1e-05	-1e-05	0.00059	0.0003	0.00032	0.00088	3
12351	-1e-05	6e-05	-1e-05	-1e-05	0.00059	0.0003	0.00032	0.00088	3
12352	0.00025	-0.00021	-5e-05	-7e-05	-0.00028	-0.00028	-9e-05	-7e-05	3
12353	0.00025	-0.00021	-5e-05	-7e-05	-0.00028	-0.00028	-9e-05	-7e-05	3
12354	0.00025	-0.00021	-5e-05	-7e-05	-0.00028	-0.00028	-9e-05	-7e-05	3
12355	0.00025	-0.00021	-5e-05	-7e-05	-0.00028	-0.00028	-9e-05	-7e-05	3
12356	0.00025	-0.00021	-5e-05	-7e-05	-0.00028	-0.00028	-9e-05	-7e-05	3
12357	0.00025	-0.00021	-5e-05	-7e-05	-0.00028	-0.00028	-9e-05	-7e-05	3
12358	0.00025	-0.00021	-5e-05	-7e-05	-0.00028	-0.00028	-9e-05	-7e-05	3
12359	0.00025	-0.00021	-5e-05	-7e-05	-0.00028	-0.00028	-9e-05	-7e-05	3
12360	0.00025	-0.00021	-5e-05	-7e-05	-0.00028	-0.00028	-9e-05	-7e-05	3
12361	0.00025	-0.00021	-5e-05	-7e-05	-0.00028	-0.00028	-9e-05	-7e-05	3
12362	0.00025	-0.00021	-5e-05	-7e-05	-0.00028	-0.00028	-9e-05	-7e-05	3
12363	0.00025	-0.00021	-5e-05	-7e-05	-0.00028	-0.00028	-9e-05	-7e-05	3
12364	0.00025	-0.00021	-5e-05	-7e-05	-0.00028	-0.00028	-9e-05	-7e-05	3
12365	0.00025	-0.00021	-5e-05	-7e-05	-0.00028	-0.00028	-9e-05	-7e-05	3
12366	0.00013	3e-05	-3e-05	-3e-05	-0.00033	-0.00078	5e-05	-0.00013	3
12367	0.00013	3e-05	-3e-05	-3e-05	-0.00033	-0.00078	5e-05	-0.00013	3
12368	0.00013	3e-05	-3e-05	-3e-05	-0.00033	-0.00078	5e-05	-0.00013	3
12369	0.00013	3e-05	-3e-05	-3e-05	-0.00033	-0.00078	5e-05	-0.00013	3
12370	0.00013	3e-05	-3e-05	-3e-05	-0.00033	-0.00078	5e-05	-0.00013	3
12371	0.00013	3e-05	-3e-05	-3e-05	-0.00033	-0.00078	5e-05	-0.00013	3
12372	0.00013	3e-05	-3e-05	-3e-05	-0.00033	-0.00078	5e-05	-0.00013	3
12373	0.00013	3e-05	-3e-05	-3e-05	-0.00033	-0.00078	5e-05	-0.00013	3
12374	-0.00016	-0.0003	-4e-05	-2e-05	0.00023	9e-05	-0.00011	-0.00014	3
12375	-0.00016	-0.0003	-4e-05	-2e-05	0.00023	9e-05	-0.00011	-0.00014	3
12376	-0.00016	-0.0003	-4e-05	-2e-05	0.00023	9e-05	-0.00011	-0.00014	3
12377	-0.00016	-0.0003	-4e-05	-2e-05	0.00023	9e-05	-0.00011	-0.00014	3
12378	-0.00016	-0.0003	-4e-05	-2e-05	0.00023	9e-05	-0.00011	-0.00014	3
12379	-0.00016	-0.0003	-4e-05	-2e-05	0.00023	9e-05	-0.00011	-0.00014	3
12380	-0.00016	-0.0003	-4e-05	-2e-05	0.00023	9e-05	-0.00011	-0.00014	3
12381	-0.00016	-0.0003	-4e-05	-2e-05	0.00023	9e-05	-0.00011	-0.00014	3
12382	-0.00016	-0.0003	-4e-05	-2e-05	0.00023	9e-05	-0.00011	-0.00014	3
12383	-0.00016	-0.0003	-4e-05	-2e-05	0.00023	9e-05	-0.00011	-0.00014	3
12384	-0.00016	-0.0003	-4e-05	-2e-05	0.00023	9e-05	-0.00011	-0.00014	3
12385	-0.00016	-0.0003	-4e-05	-2e-05	0.00023	9e-05	-0.00011	-0.00014	3
12386	-0.00016	-0.0003	-4e-05	-2e-05	0.00023	9e-05	-0.00011	-0.00014	3
12389	7e-05	-0.00047	-1e-05	6e-05	0.00104	0.00015	-0.00037	0.00127	3
12390	-8e-05	-0.00016	-2e-05	2e-05	-0.00011	0.00017	6e-05	0.0002	3
12391	-8e-05	-0.00016	-2e-05	2e-05	-0.00011	0.00017	6e-05	0.0002	3
12392	-8e-05	-0.00016	-2e-05	2e-05	-0.00011	0.00017	6e-05	0.0002	3
12393	-8e-05	-0.00016	-2e-05	2e-05	-0.00011	0.00017	6e-05	0.0002	3
12394	-8e-05	-0.00016	-2e-05	2e-05	-0.00011	0.00017	6e-05	0.0002	3
12395	-8e-05	-0.00016	-2e-05	2e-05	-0.00011	0.00017	6e-05	0.0002	3
12396	-8e-05	-0.00016	-2e-05	2e-05	-0.00011	0.00017	6e-05	0.0002	3
12397	-8e-05	-0.00016	-2e-05	2e-05	-0.00011	0.00017	6e-05	0.0002	3
12398	-8e-05	-0.00016	-2e-05	2e-05	-0.00011	0.00017	6e-05	0.0002	3
12399	-8e-05	-0.00016	-2e-05	2e-05	-0.00011	0.00017	6e-05	0.0002	3
12400	-8e-05	-0.00016	-2e-05	2e-05	-0.00011	0.00017	6e-05	0.0002	3
12401	-8e-05	-0.00016	-2e-05	2e-05	-0.00011	0.00017	6e-05	0.0002	3
12402	-8e-05	-0.00016	-2e-05	2e-05	-0.00011	0.00017	6e-05	0.0002	3
12403	-8e-05	-0.00016	-2e-05	2e-05	-0.00011	0.00017	6e-05	0.0002	3
12404	-8e-05	-0.00016	-2e-05	2e-05	-0.00011	0.00017	6e-05	0.0002	3
12405	-8e-05	-0.00016	-2e-05	2e-05	-0.00011	0.00017	6e-05	0.0002	3
12406	-8e-05	-0.00016	-2e-05	2e-05	-0.00011	0.00017	6e-05	0.0002	3
12407	-8e-05	-0.00016	-2e-05	2e-05	-0.00011	0.00017	6e-05	0.0002	3
12408	-8e-05	-0.00016	-2e-05	2e-05	-0.00011	0.00017	6e-05	0.0002	3
12409	-8e-05	-0.00016	-2e-05	2e-05	-0.00011	0.00017	6e-05	0.0002	3
12410	-8e-05	-0.00016	-2e-05	2e-05	-0.00011	0.00017	6e-05	0.0002	3
12411	-3e-05	-0.00031	0	-3e-05	0.0001	0.00038	4e-05	-0.00049	3
12412	-0.00022	0.00021	-5e-05	4e-05	-3e-05	-0.00022	-0.00014	-0.00123	3
12413	-0.00022	0.00021	-5e-05	4e-05	-3e-05	-0.00022	-0.00014	-0.00123	3
12414	-0.00022	0.00021	-5e-05	4e-05	-3e-05	-0.00022	-0.00014	-0.00123	3
12415	-0.00022	0.00021	-5e-05	4e-05	-3e-05	-0.00022	-0.00014	-0.00123	3
12416	-0.00022	0.00021	-5e-05	4e-05	-3e-05	-0.00022	-0.00014	-0.00123	3
12417	-0.00022	0.00021	-5e-05	4e-05	-3e-05	-0.00022	-0.00014	-0.00123	3
12418	-0.00022	0.00021	-5e-05	4e-05	-3e-05	-0.00022	-0.00014	-0.00123	3
12419	-0.00022	0.00021	-5e-05	4e-05	-3e-05	-0.00022	-0.00014	-0.00123	3
12420	-0.00022	0.00021	-5e-05	4e-05	-3e-05	-0.00022	-0.00014	-0.00123	3
12421	-0.00022	0.00021	-5e-05	4e-05	-3e-05	-0.00022	-0.00014	-0.00123	3
12422	-0.00022	0.00021	-5e-05	4e-05	-3e-05	-0.00022	-0.00014	-0.00123	3
12423	-0.00022	0.00021	-5e-05	4e-05	-3e-05	-0.00022	-0.00014	-0.00123	3
12424	-0.00022	0.00021	-5e-05	4e-05	-3e-05	-0.00022	-0.00014	-0.00123	3
12425	-0.00022	0.00021	-5e-05	4e-05	-3e-05	-0.00022	-0.00014	-0.00123	3
12426	1e-05	-0.0007	-8e-05	-7e-05	0.00063	-0.00081	-0.00032	-0.00082	3
12427	-0.00014	0.00021	2e-05	2e-05	8e-05	0.0011	3e-05	-0.00021	3
12428	-0.00014	0.00021	2e-05	2e-05	8e-05	0.0011	3e-05	-0.00021	3
12429	-0.00014	0.00021	2e-05	2e-05	8e-05	0.0011	3e-05	-0.00021	3
12430	-0.00014	0.00021	2e-05	2e-05	8e-05	0.0011	3e-05	-0.00021	3
12431	-0.00014	0.00021	2e-05	2e-05	8e-05	0.0011	3e-05	-0.00021	3
12432	-0.00014	0.00021	2e-05	2e-05	8e-05	0.0011	3e-05	-0.00021	3
12433	-0.00014	0.00021	2e-05	2e-05	8e-05	0.0011	3e-05	-0.00021	3
12435	-0.00014	0.00021	2e-05	2e-05	8e-05	0.0011	3e-05	-0.00021	3
12436	-0.00014	0.00021	2e-05	2e-05	8e-05	0.0011	3e-05	-0.00021	3
12438	-0.00014	0.00021	2e-05	2e-05	8e-05	0.0011	3e-05	-0.00021	3
12439	-0.00014	0.00021	2e-05	2e-05	8e-05	0.0011	3e-05	-0.00021	3
12440	-0.00014	0.00021	2e-05	2e-05	8e-05	0.0011	3e-05	-0.00021	3
12441	-0.00014	0.00021	2e-05	2e-05	8e-05	0.0011	3e-05	-0.00021	3
12442	-0.00014	0.00021	2e-05	2e-05	8e-05	0.0011	3e-05	-0.00021	3
12443	-0.00014	0.00021	2e-05	2e-05	8e-05	0.0011	3e-05	-0.00021	3
12444	-0.00014	0.00021	2e-05	2e-05	8e-05	0.0011	3e-05	-0.00021	3
12445	-0.00014	0.00021	2e-05	2e-05	8e-05	0.0011	3e-05	-0.00021	3
12446	-0.00014	0.00021	2e-05	2e-05	8e-05	0.0011	3e-05	-0.00021	3
12447	-0.00014	0.00021	2e-05	2e-05	8e-05	0.0011	3e-05	-0.00021	3
12448	-0.00014	0.00021	2e-05	2e-05	8e-05	0.0011	3e-05	-0.00021	3
12449	-0.0004	-0.00064	-0.00012	-2e-05	0.00035	0.00015	-0.00011	-0.00109	3
12450	-4e-05	-0.00026	4e-05	8e-05	7e-05	0.00053	-0.0001	-7e-05	3
12451	-4e-05	-0.00026	4e-05	8e-05	7e-05	0.00053	-0.0001	-7e-05	3
12452	-4e-05	-0.00026	4e-05	8e-05	7e-05	0.00053	-0.0001	-7e-05	3
12453	-4e-05	-0.00026	4e-05	8e-05	7e-05	0.00053	-0.0001	-7e-05	3
12454	-4e-05	-0.00026	4e-05	8e-05	7e-05	0.00053	-0.0001	-7e-05	3
12456	-4e-05	-0.00026	4e-05	8e-05	7e-05	0.00053	-0.0001	-7e-05	3
12457	-4e-05	-0.00026	4e-05	8e-05	7e-05	0.00053	-0.0001	-7e-05	3
12458	-4e-05	-0.00026	4e-05	8e-05	7e-05	0.00053	-0.0001	-7e-05	3
12459	-4e-05	-0.00026	4e-05	8e-05	7e-05	0.00053	-0.0001	-7e-05	3
12460	-4e-05	-0.00026	4e-05	8e-05	7e-05	0.00053	-0.0001	-7e-05	3
12461	-4e-05	-0.00026	4e-05	8e-05	7e-05	0.00053	-0.0001	-7e-05	3
12462	-4e-05	-0.00026	4e-05	8e-05	7e-05	0.00053	-0.0001	-7e-05	3
12463	-4e-05	-0.00026	4e-05	8e-05	7e-05	0.00053	-0.0001	-7e-05	3
12464	-4e-05	-0.00026	4e-05	8e-05	7e-05	0.00053	-0.0001	-7e-05	3
12465	-4e-05	-0.00026	4e-05	8e-05	7e-05	0.00053	-0.0001	-7e-05	3
12466	-4e-05	-0.00026	4e-05	8e-05	7e-05	0.00053	-0.0001	-7e-05	3
12467	-4e-05	-0.00026	4e-05	8e-05	7e-05	0.00053	-0.0001	-7e-05	3
12468	-4e-05	-0.00026	4e-05	8e-05	7e-05	0.00053	-0.0001	-7e-05	3
12469	-4e-05	-0.00026	4e-05	8e-05	7e-05	0.00053	-0.0001	-7e-05	3
12470	-4e-05	-0.00026	4e-05	8e-05	7e-05	0.00053	-0.0001	-7e-05	3
12471	-4e-05	-0.00026	4e-05	8e-05	7e-05	0.00053	-0.0001	-7e-05	3
12472	-0.00021	0.00035	0	-8e-05	6e-05	-4e-05	4e-05	-0.00062	3
12473	-0.00019	0.00021	1e-05	5e-05	4e-05	0.00011	-5e-05	9e-05	3
12474	-0.00019	0.00021	1e-05	5e-05	4e-05	0.00011	-5e-05	9e-05	3
12475	-0.00019	0.00021	1e-05	5e-05	4e-05	0.00011	-5e-05	9e-05	3
12476	-0.00019	0.00021	1e-05	5e-05	4e-05	0.00011	-5e-05	9e-05	3
12477	-0.00019	0.00021	1e-05	5e-05	4e-05	0.00011	-5e-05	9e-05	3
12478	-0.00019	0.00021	1e-05	5e-05	4e-05	0.00011	-5e-05	9e-05	3
12479	-0.00019	0.00021	1e-05	5e-05	4e-05	0.00011	-5e-05	9e-05	3
12480	-0.00019	0.00021	1e-05	5e-05	4e-05	0.00011	-5e-05	9e-05	3
12481	-0.00019	0.00021	1e-05	5e-05	4e-05	0.00011	-5e-05	9e-05	3
12482	-0.00019	0.00021	1e-05	5e-05	4e-05	0.00011	-5e-05	9e-05	3
12483	-0.00019	0.00021	1e-05	5e-05	4e-05	0.00011	-5e-05	9e-05	3
12484	-0.00019	0.00021	1e-05	5e-05	4e-05	0.00011	-5e-05	9e-05	3
12485	-0.00019	0.00021	1e-05	5e-05	4e-05	0.00011	-5e-05	9e-05	3
12486	-0.00019	0.00021	1e-05	5e-05	4e-05	0.00011	-5e-05	9e-05	3
12489	0.00025	0.00038	0	0	0.0006	0.0005	0.00019	-0.00055	3
12490	0.00025	0.00038	0	0	0.0006	0.0005	0.00019	-0.00055	3
12491	0.00025	0.00038	0	0	0.0006	0.0005	0.00019	-0.00055	3
12492	0.00025	0.00038	0	0	0.0006	0.0005	0.00019	-0.00055	3
12493	0.00025	0.00038	0	0	0.0006	0.0005	0.00019	-0.00055	3
12494	0.00025	0.00038	0	0	0.0006	0.0005	0.00019	-0.00055	3
12495	0.00025	0.00038	0	0	0.0006	0.0005	0.00019	-0.00055	3
12496	0.00025	0.00038	0	0	0.0006	0.0005	0.00019	-0.00055	3
12497	0.00025	0.00038	0	0	0.0006	0.0005	0.00019	-0.00055	3
12498	0.00025	0.00038	0	0	0.0006	0.0005	0.00019	-0.00055	3
12499	0.00025	0.00038	0	0	0.0006	0.0005	0.00019	-0.00055	3
12500	0.00025	0.00038	0	0	0.0006	0.0005	0.00019	-0.00055	3
12501	0.00025	0.00038	0	0	0.0006	0.0005	0.00019	-0.00055	3
12502	0.00025	0.00038	0	0	0.0006	0.0005	0.00019	-0.00055	3
12503	0.00025	0.00038	0	0	0.0006	0.0005	0.00019	-0.00055	3
12504	0.00025	0.00038	0	0	0.0006	0.0005	0.00019	-0.00055	3
12505	0.00025	0.00038	0	0	0.0006	0.0005	0.00019	-0.00055	3
12506	0.00025	0.00038	0	0	0.0006	0.0005	0.00019	-0.00055	3
12507	0.00025	0.00038	0	0	0.0006	0.0005	0.00019	-0.00055	3
12508	0.00025	0.00038	0	0	0.0006	0.0005	0.00019	-0.00055	3
12509	0.00025	0.00038	0	0	0.0006	0.0005	0.00019	-0.00055	3
12510	0.00019	0.00041	-8e-05	-4e-05	0.00012	-0.0001	-4e-05	-9e-05	3
12511	0.00024	0.00057	2e-05	-1e-05	0.00021	-0.00056	0.00019	0.00031	3
12512	0.00024	0.00057	2e-05	-1e-05	0.00021	-0.00056	0.00019	0.00031	3
12513	0.00024	0.00057	2e-05	-1e-05	0.00021	-0.00056	0.00019	0.00031	3
12514	0.00024	0.00057	2e-05	-1e-05	0.00021	-0.00056	0.00019	0.00031	3
12515	0.00024	0.00057	2e-05	-1e-05	0.00021	-0.00056	0.00019	0.00031	3
12516	0.00024	0.00057	2e-05	-1e-05	0.00021	-0.00056	0.00019	0.00031	3
12517	0.00024	0.00057	2e-05	-1e-05	0.00021	-0.00056	0.00019	0.00031	3
12518	0.00024	0.00057	2e-05	-1e-05	0.00021	-0.00056	0.00019	0.00031	3
12519	0.00024	0.00057	2e-05	-1e-05	0.00021	-0.00056	0.00019	0.00031	3
12520	0.00024	0.00057	2e-05	-1e-05	0.00021	-0.00056	0.00019	0.00031	3
12521	0.00024	0.00057	2e-05	-1e-05	0.00021	-0.00056	0.00019	0.00031	3
12522	0.00024	0.00057	2e-05	-1e-05	0.00021	-0.00056	0.00019	0.00031	3
12523	0.00024	0.00057	2e-05	-1e-05	0.00021	-0.00056	0.00019	0.00031	3
12524	0.00024	0.00057	2e-05	-1e-05	0.00021	-0.00056	0.00019	0.00031	3
12525	0.00024	0.00057	2e-05	-1e-05	0.00021	-0.00056	0.00019	0.00031	3
12526	0.00024	0.00057	2e-05	-1e-05	0.00021	-0.00056	0.00019	0.00031	3
12527	0.00024	0.00057	2e-05	-1e-05	0.00021	-0.00056	0.00019	0.00031	3
12528	0.00024	0.00057	2e-05	-1e-05	0.00021	-0.00056	0.00019	0.00031	3
12529	0.00024	0.00057	2e-05	-1e-05	0.00021	-0.00056	0.00019	0.00031	3
12530	0.00024	0.00057	2e-05	-1e-05	0.00021	-0.00056	0.00019	0.00031	3
12531	0.00024	0.00057	2e-05	-1e-05	0.00021	-0.00056	0.00019	0.00031	3
12532	0.00024	0.00057	2e-05	-1e-05	0.00021	-0.00056	0.00019	0.00031	3
12533	-0.00051	-0.00054	1e-05	2e-05	-0.00025	-0.00062	-0.00032	-0.00039	3
12534	-0.00051	-0.00054	1e-05	2e-05	-0.00025	-0.00062	-0.00032	-0.00039	3
12535	-0.00051	-0.00054	1e-05	2e-05	-0.00025	-0.00062	-0.00032	-0.00039	3
12536	-0.00051	-0.00054	1e-05	2e-05	-0.00025	-0.00062	-0.00032	-0.00039	3
12538	-0.00051	-0.00054	1e-05	2e-05	-0.00025	-0.00062	-0.00032	-0.00039	3
12539	-0.00051	-0.00054	1e-05	2e-05	-0.00025	-0.00062	-0.00032	-0.00039	3
12540	-0.00051	-0.00054	1e-05	2e-05	-0.00025	-0.00062	-0.00032	-0.00039	3
12541	-0.00051	-0.00054	1e-05	2e-05	-0.00025	-0.00062	-0.00032	-0.00039	3
12542	-0.00051	-0.00054	1e-05	2e-05	-0.00025	-0.00062	-0.00032	-0.00039	3
12543	-0.00051	-0.00054	1e-05	2e-05	-0.00025	-0.00062	-0.00032	-0.00039	3
12544	-0.00051	-0.00054	1e-05	2e-05	-0.00025	-0.00062	-0.00032	-0.00039	3
12545	-0.00051	-0.00054	1e-05	2e-05	-0.00025	-0.00062	-0.00032	-0.00039	3
12546	-0.00051	-0.00054	1e-05	2e-05	-0.00025	-0.00062	-0.00032	-0.00039	3
12547	-0.00032	-0.00017	3e-05	1e-05	-6e-05	0.00126	0.00014	-0.00013	3
12548	-0.00032	-0.00017	3e-05	1e-05	-6e-05	0.00126	0.00014	-0.00013	3
12549	-0.00032	-0.00017	3e-05	1e-05	-6e-05	0.00126	0.00014	-0.00013	3
12550	-0.00032	-0.00017	3e-05	1e-05	-6e-05	0.00126	0.00014	-0.00013	3
12551	-0.00032	-0.00017	3e-05	1e-05	-6e-05	0.00126	0.00014	-0.00013	3
12552	-0.00032	-0.00017	3e-05	1e-05	-6e-05	0.00126	0.00014	-0.00013	3
12553	-0.00032	-0.00017	3e-05	1e-05	-6e-05	0.00126	0.00014	-0.00013	3
12554	-0.00032	-0.00017	3e-05	1e-05	-6e-05	0.00126	0.00014	-0.00013	3
12555	0.00016	0.00018	4e-05	-4e-05	-0.00028	-0.00079	-0.00057	0.00011	3
12556	0.00016	0.00018	4e-05	-4e-05	-0.00028	-0.00079	-0.00057	0.00011	3
12557	0.00016	0.00018	4e-05	-4e-05	-0.00028	-0.00079	-0.00057	0.00011	3
12558	0.00016	0.00018	4e-05	-4e-05	-0.00028	-0.00079	-0.00057	0.00011	3
12559	0.00016	0.00018	4e-05	-4e-05	-0.00028	-0.00079	-0.00057	0.00011	3
12560	0.00016	0.00018	4e-05	-4e-05	-0.00028	-0.00079	-0.00057	0.00011	3
12561	0.00016	0.00018	4e-05	-4e-05	-0.00028	-0.00079	-0.00057	0.00011	3
12562	0.00016	0.00018	4e-05	-4e-05	-0.00028	-0.00079	-0.00057	0.00011	3
12563	0.00016	0.00018	4e-05	-4e-05	-0.00028	-0.00079	-0.00057	0.00011	3
12564	0.00016	0.00018	4e-05	-4e-05	-0.00028	-0.00079	-0.00057	0.00011	3
12565	0.00016	0.00018	4e-05	-4e-05	-0.00028	-0.00079	-0.00057	0.00011	3
12566	0.00016	0.00018	4e-05	-4e-05	-0.00028	-0.00079	-0.00057	0.00011	3
12567	0.00016	0.00018	4e-05	-4e-05	-0.00028	-0.00079	-0.00057	0.00011	3
12568	0.00016	0.00018	4e-05	-4e-05	-0.00028	-0.00079	-0.00057	0.00011	3
12569	0.00016	0.00018	4e-05	-4e-05	-0.00028	-0.00079	-0.00057	0.00011	3
12570	0	-0.00041	-7e-05	1e-05	-0.00024	0.00013	0.00013	-8e-05	3
12571	-7e-05	-0.00098	-6e-05	0	0.00045	0.00109	0.00081	0.00068	3
12572	-7e-05	-0.00098	-6e-05	0	0.00045	0.00109	0.00081	0.00068	3
12573	-7e-05	-0.00098	-6e-05	0	0.00045	0.00109	0.00081	0.00068	3
12574	-7e-05	-0.00098	-6e-05	0	0.00045	0.00109	0.00081	0.00068	3
12575	-7e-05	-0.00098	-6e-05	0	0.00045	0.00109	0.00081	0.00068	3
12576	-7e-05	-0.00098	-6e-05	0	0.00045	0.00109	0.00081	0.00068	3
12577	-7e-05	-0.00098	-6e-05	0	0.00045	0.00109	0.00081	0.00068	3
12578	-7e-05	-0.00098	-6e-05	0	0.00045	0.00109	0.00081	0.00068	3
12579	-7e-05	-0.00098	-6e-05	0	0.00045	0.00109	0.00081	0.00068	3
12580	-7e-05	-0.00098	-6e-05	0	0.00045	0.00109	0.00081	0.00068	3
12581	-7e-05	-0.00098	-6e-05	0	0.00045	0.00109	0.00081	0.00068	3
12582	-7e-05	-0.00098	-6e-05	0	0.00045	0.00109	0.00081	0.00068	3
12583	-7e-05	-0.00098	-6e-05	0	0.00045	0.00109	0.00081	0.00068	3
12584	-7e-05	-0.00098	-6e-05	0	0.00045	0.00109	0.00081	0.00068	3
12585	-7e-05	-0.00098	-6e-05	0	0.00045	0.00109	0.00081	0.00068	3
12586	-7e-05	-0.00098	-6e-05	0	0.00045	0.00109	0.00081	0.00068	3
12588	-7e-05	-0.00098	-6e-05	0	0.00045	0.00109	0.00081	0.00068	3
12589	-7e-05	-0.00098	-6e-05	0	0.00045	0.00109	0.00081	0.00068	3
12590	-7e-05	-0.00098	-6e-05	0	0.00045	0.00109	0.00081	0.00068	3
12591	-7e-05	-0.00098	-6e-05	0	0.00045	0.00109	0.00081	0.00068	3
12592	-7e-05	-0.00098	-6e-05	0	0.00045	0.00109	0.00081	0.00068	3
12593	0.00032	0.00024	-2e-05	-7e-05	-0.00075	-0.00093	-0.00054	-4e-05	3
12594	0.00032	0.00024	-2e-05	-7e-05	-0.00075	-0.00093	-0.00054	-4e-05	3
12595	0.00032	0.00024	-2e-05	-7e-05	-0.00075	-0.00093	-0.00054	-4e-05	3
12596	0.00032	0.00024	-2e-05	-7e-05	-0.00075	-0.00093	-0.00054	-4e-05	3
12597	0.00032	0.00024	-2e-05	-7e-05	-0.00075	-0.00093	-0.00054	-4e-05	3
12598	0.00032	0.00024	-2e-05	-7e-05	-0.00075	-0.00093	-0.00054	-4e-05	3
12599	0.00032	0.00024	-2e-05	-7e-05	-0.00075	-0.00093	-0.00054	-4e-05	3
12600	0.00032	0.00024	-2e-05	-7e-05	-0.00075	-0.00093	-0.00054	-4e-05	3
12601	0.00032	0.00024	-2e-05	-7e-05	-0.00075	-0.00093	-0.00054	-4e-05	3
12602	0.00032	0.00024	-2e-05	-7e-05	-0.00075	-0.00093	-0.00054	-4e-05	3
12603	0.00032	0.00024	-2e-05	-7e-05	-0.00075	-0.00093	-0.00054	-4e-05	3
12604	0.00032	0.00024	-2e-05	-7e-05	-0.00075	-0.00093	-0.00054	-4e-05	3
12605	0.00032	0.00024	-2e-05	-7e-05	-0.00075	-0.00093	-0.00054	-4e-05	3
12606	0.00032	0.00024	-2e-05	-7e-05	-0.00075	-0.00093	-0.00054	-4e-05	3
12607	-0.00016	9e-05	1e-05	3e-05	-0.00011	-0.00053	0	3e-05	3
12608	-0.00016	9e-05	1e-05	3e-05	-0.00011	-0.00053	0	3e-05	3
12609	-0.00016	9e-05	1e-05	3e-05	-0.00011	-0.00053	0	3e-05	3
12610	-0.00016	9e-05	1e-05	3e-05	-0.00011	-0.00053	0	3e-05	3
12611	-0.00016	9e-05	1e-05	3e-05	-0.00011	-0.00053	0	3e-05	3
12612	-0.00016	9e-05	1e-05	3e-05	-0.00011	-0.00053	0	3e-05	3
12613	-0.00016	9e-05	1e-05	3e-05	-0.00011	-0.00053	0	3e-05	3
12614	-0.00016	9e-05	1e-05	3e-05	-0.00011	-0.00053	0	3e-05	3
12615	5e-05	-0.00034	-4e-05	7e-05	2e-05	8e-05	0.00011	0.00033	3
12616	5e-05	-0.00034	-4e-05	7e-05	2e-05	8e-05	0.00011	0.00033	3
12617	5e-05	-0.00034	-4e-05	7e-05	2e-05	8e-05	0.00011	0.00033	3
12618	5e-05	-0.00034	-4e-05	7e-05	2e-05	8e-05	0.00011	0.00033	3
12619	5e-05	-0.00034	-4e-05	7e-05	2e-05	8e-05	0.00011	0.00033	3
12620	5e-05	-0.00034	-4e-05	7e-05	2e-05	8e-05	0.00011	0.00033	3
12621	5e-05	-0.00034	-4e-05	7e-05	2e-05	8e-05	0.00011	0.00033	3
12622	5e-05	-0.00034	-4e-05	7e-05	2e-05	8e-05	0.00011	0.00033	3
12623	5e-05	-0.00034	-4e-05	7e-05	2e-05	8e-05	0.00011	0.00033	3
12624	5e-05	-0.00034	-4e-05	7e-05	2e-05	8e-05	0.00011	0.00033	3
12625	5e-05	-0.00034	-4e-05	7e-05	2e-05	8e-05	0.00011	0.00033	3
12626	5e-05	-0.00034	-4e-05	7e-05	2e-05	8e-05	0.00011	0.00033	3
12627	5e-05	-0.00034	-4e-05	7e-05	2e-05	8e-05	0.00011	0.00033	3
12628	5e-05	-0.00034	-4e-05	7e-05	2e-05	8e-05	0.00011	0.00033	3
12629	5e-05	-0.00034	-4e-05	7e-05	2e-05	8e-05	0.00011	0.00033	3
12630	-0.00053	-0.00115	-0.00015	-0.0001	-0.00018	-0.00049	-0.00012	-0.00047	3
12631	0.00014	0.00042	8e-05	4e-05	5e-05	0.0007	0.00036	0.00043	3
12632	0.00014	0.00042	8e-05	4e-05	5e-05	0.0007	0.00036	0.00043	3
12633	0.00014	0.00042	8e-05	4e-05	5e-05	0.0007	0.00036	0.00043	3
12634	0.00014	0.00042	8e-05	4e-05	5e-05	0.0007	0.00036	0.00043	3
12635	0.00014	0.00042	8e-05	4e-05	5e-05	0.0007	0.00036	0.00043	3
12636	0.00014	0.00042	8e-05	4e-05	5e-05	0.0007	0.00036	0.00043	3
12638	0.00014	0.00042	8e-05	4e-05	5e-05	0.0007	0.00036	0.00043	3
12639	0.00014	0.00042	8e-05	4e-05	5e-05	0.0007	0.00036	0.00043	3
12640	0.00014	0.00042	8e-05	4e-05	5e-05	0.0007	0.00036	0.00043	3
12641	0.00014	0.00042	8e-05	4e-05	5e-05	0.0007	0.00036	0.00043	3
12642	0.00014	0.00042	8e-05	4e-05	5e-05	0.0007	0.00036	0.00043	3
12643	0.00014	0.00042	8e-05	4e-05	5e-05	0.0007	0.00036	0.00043	3
12644	0.00014	0.00042	8e-05	4e-05	5e-05	0.0007	0.00036	0.00043	3
12645	0.00014	0.00042	8e-05	4e-05	5e-05	0.0007	0.00036	0.00043	3
12646	0.00014	0.00042	8e-05	4e-05	5e-05	0.0007	0.00036	0.00043	3
12647	0.00014	0.00042	8e-05	4e-05	5e-05	0.0007	0.00036	0.00043	3
12648	0.00014	0.00042	8e-05	4e-05	5e-05	0.0007	0.00036	0.00043	3
12649	0.00014	0.00042	8e-05	4e-05	5e-05	0.0007	0.00036	0.00043	3
12650	0.00014	0.00042	8e-05	4e-05	5e-05	0.0007	0.00036	0.00043	3
12651	0.00014	0.00042	8e-05	4e-05	5e-05	0.0007	0.00036	0.00043	3
12652	0.00014	0.00042	8e-05	4e-05	5e-05	0.0007	0.00036	0.00043	3
12653	-0.00047	-0.00052	-0.00019	-0.00016	0.00052	0.00081	0.00014	3e-05	3
12654	-0.00047	-0.00052	-0.00019	-0.00016	0.00052	0.00081	0.00014	3e-05	3
12655	-0.00047	-0.00052	-0.00019	-0.00016	0.00052	0.00081	0.00014	3e-05	3
12656	-0.00047	-0.00052	-0.00019	-0.00016	0.00052	0.00081	0.00014	3e-05	3
12657	-0.00047	-0.00052	-0.00019	-0.00016	0.00052	0.00081	0.00014	3e-05	3
12658	-0.00047	-0.00052	-0.00019	-0.00016	0.00052	0.00081	0.00014	3e-05	3
12659	-0.00047	-0.00052	-0.00019	-0.00016	0.00052	0.00081	0.00014	3e-05	3
12660	-0.00047	-0.00052	-0.00019	-0.00016	0.00052	0.00081	0.00014	3e-05	3
12661	-0.00047	-0.00052	-0.00019	-0.00016	0.00052	0.00081	0.00014	3e-05	3
12662	-0.00047	-0.00052	-0.00019	-0.00016	0.00052	0.00081	0.00014	3e-05	3
12663	-0.00047	-0.00052	-0.00019	-0.00016	0.00052	0.00081	0.00014	3e-05	3
12664	-0.00047	-0.00052	-0.00019	-0.00016	0.00052	0.00081	0.00014	3e-05	3
12665	-0.00047	-0.00052	-0.00019	-0.00016	0.00052	0.00081	0.00014	3e-05	3
12666	-0.00047	-0.00052	-0.00019	-0.00016	0.00052	0.00081	0.00014	3e-05	3
12667	-0.00047	-0.00052	-0.00019	-0.00016	0.00052	0.00081	0.00014	3e-05	3
12668	-0.00047	-0.00052	-0.00019	-0.00016	0.00052	0.00081	0.00014	3e-05	3
12669	-0.00047	-0.00052	-0.00019	-0.00016	0.00052	0.00081	0.00014	3e-05	3
12670	-0.00047	-0.00052	-0.00019	-0.00016	0.00052	0.00081	0.00014	3e-05	3
12671	-0.00047	-0.00052	-0.00019	-0.00016	0.00052	0.00081	0.00014	3e-05	3
12672	-0.00047	-0.00052	-0.00019	-0.00016	0.00052	0.00081	0.00014	3e-05	3
12673	-0.00047	-0.00052	-0.00019	-0.00016	0.00052	0.00081	0.00014	3e-05	3
12674	-0.00047	-0.00052	-0.00019	-0.00016	0.00052	0.00081	0.00014	3e-05	3
12675	-0.00047	-0.00052	-0.00019	-0.00016	0.00052	0.00081	0.00014	3e-05	3
12676	6e-05	-4e-05	2e-05	3e-05	-0.00029	-4e-05	0.00032	-0.00047	3
12677	0.00011	0.00012	8e-05	6e-05	-0.00051	-0.00041	-7e-05	-0.00064	3
12679	0.00011	0.00012	8e-05	6e-05	-0.00051	-0.00041	-7e-05	-0.00064	3
12680	0.00011	0.00012	8e-05	6e-05	-0.00051	-0.00041	-7e-05	-0.00064	3
12681	0.00011	0.00012	8e-05	6e-05	-0.00051	-0.00041	-7e-05	-0.00064	3
12682	0.00011	0.00012	8e-05	6e-05	-0.00051	-0.00041	-7e-05	-0.00064	3
12683	0.00011	0.00012	8e-05	6e-05	-0.00051	-0.00041	-7e-05	-0.00064	3
12684	0.00011	0.00012	8e-05	6e-05	-0.00051	-0.00041	-7e-05	-0.00064	3
12685	0.00011	0.00012	8e-05	6e-05	-0.00051	-0.00041	-7e-05	-0.00064	3
12686	0.00011	0.00012	8e-05	6e-05	-0.00051	-0.00041	-7e-05	-0.00064	3
12688	0.00011	0.00012	8e-05	6e-05	-0.00051	-0.00041	-7e-05	-0.00064	3
12689	0.00011	0.00012	8e-05	6e-05	-0.00051	-0.00041	-7e-05	-0.00064	3
12690	0.00043	0.00069	7e-05	-3e-05	0.00022	-0.00065	0.00016	5e-05	3
12691	0.00026	9e-05	-1e-05	1e-05	0.00016	0.00061	-5e-05	7e-05	3
12692	0.00026	9e-05	-1e-05	1e-05	0.00016	0.00061	-5e-05	7e-05	3
12693	0.00026	9e-05	-1e-05	1e-05	0.00016	0.00061	-5e-05	7e-05	3
12694	0.00026	9e-05	-1e-05	1e-05	0.00016	0.00061	-5e-05	7e-05	3
12695	0.00026	9e-05	-1e-05	1e-05	0.00016	0.00061	-5e-05	7e-05	3
12696	0.00026	9e-05	-1e-05	1e-05	0.00016	0.00061	-5e-05	7e-05	3
12697	0.00026	9e-05	-1e-05	1e-05	0.00016	0.00061	-5e-05	7e-05	3
12698	0.00026	9e-05	-1e-05	1e-05	0.00016	0.00061	-5e-05	7e-05	3
12699	0.00026	9e-05	-1e-05	1e-05	0.00016	0.00061	-5e-05	7e-05	3
12700	0.00026	9e-05	-1e-05	1e-05	0.00016	0.00061	-5e-05	7e-05	3
12701	0.00026	9e-05	-1e-05	1e-05	0.00016	0.00061	-5e-05	7e-05	3
12702	0.00026	9e-05	-1e-05	1e-05	0.00016	0.00061	-5e-05	7e-05	3
12703	0.00026	9e-05	-1e-05	1e-05	0.00016	0.00061	-5e-05	7e-05	3
12704	0.00026	9e-05	-1e-05	1e-05	0.00016	0.00061	-5e-05	7e-05	3
12705	0.00026	9e-05	-1e-05	1e-05	0.00016	0.00061	-5e-05	7e-05	3
12706	0.00026	9e-05	-1e-05	1e-05	0.00016	0.00061	-5e-05	7e-05	3
12707	0.00026	9e-05	-1e-05	1e-05	0.00016	0.00061	-5e-05	7e-05	3
12708	0.00026	9e-05	-1e-05	1e-05	0.00016	0.00061	-5e-05	7e-05	3
12709	0.00026	9e-05	-1e-05	1e-05	0.00016	0.00061	-5e-05	7e-05	3
12710	0.00026	9e-05	-1e-05	1e-05	0.00016	0.00061	-5e-05	7e-05	3
12711	0.00026	9e-05	-1e-05	1e-05	0.00016	0.00061	-5e-05	7e-05	3
12712	-0.0001	0.00018	-1e-05	2e-05	-0.0002	0.00031	-0.0002	-0.00036	3
12713	-0.00021	-0.00025	-1e-05	-6e-05	-0.0005	-0.00117	-2e-05	-0.00026	3
12714	-0.00021	-0.00025	-1e-05	-6e-05	-0.0005	-0.00117	-2e-05	-0.00026	3
12715	-0.00021	-0.00025	-1e-05	-6e-05	-0.0005	-0.00117	-2e-05	-0.00026	3
12716	-0.00021	-0.00025	-1e-05	-6e-05	-0.0005	-0.00117	-2e-05	-0.00026	3
12717	-0.00021	-0.00025	-1e-05	-6e-05	-0.0005	-0.00117	-2e-05	-0.00026	3
12718	-0.00021	-0.00025	-1e-05	-6e-05	-0.0005	-0.00117	-2e-05	-0.00026	3
12719	-0.00021	-0.00025	-1e-05	-6e-05	-0.0005	-0.00117	-2e-05	-0.00026	3
12720	-0.00021	-0.00025	-1e-05	-6e-05	-0.0005	-0.00117	-2e-05	-0.00026	3
12721	-0.00021	-0.00025	-1e-05	-6e-05	-0.0005	-0.00117	-2e-05	-0.00026	3
12722	-0.00021	-0.00025	-1e-05	-6e-05	-0.0005	-0.00117	-2e-05	-0.00026	3
12723	-0.00021	-0.00025	-1e-05	-6e-05	-0.0005	-0.00117	-2e-05	-0.00026	3
12724	-0.00021	-0.00025	-1e-05	-6e-05	-0.0005	-0.00117	-2e-05	-0.00026	3
12725	-0.00021	-0.00025	-1e-05	-6e-05	-0.0005	-0.00117	-2e-05	-0.00026	3
12726	-0.00021	-0.00025	-1e-05	-6e-05	-0.0005	-0.00117	-2e-05	-0.00026	3
12727	-3e-05	-0.00032	-7e-05	-4e-05	-0.00024	7e-05	0.00012	0.00035	3
12728	-3e-05	-0.00032	-7e-05	-4e-05	-0.00024	7e-05	0.00012	0.00035	3
12729	-3e-05	-0.00032	-7e-05	-4e-05	-0.00024	7e-05	0.00012	0.00035	3
12730	-3e-05	-0.00032	-7e-05	-4e-05	-0.00024	7e-05	0.00012	0.00035	3
12731	-3e-05	-0.00032	-7e-05	-4e-05	-0.00024	7e-05	0.00012	0.00035	3
12732	-3e-05	-0.00032	-7e-05	-4e-05	-0.00024	7e-05	0.00012	0.00035	3
12733	-3e-05	-0.00032	-7e-05	-4e-05	-0.00024	7e-05	0.00012	0.00035	3
12734	-3e-05	-0.00032	-7e-05	-4e-05	-0.00024	7e-05	0.00012	0.00035	3
12735	-0.00035	-0.00046	-6e-05	-7e-05	-0.00013	-0.00051	0.00015	0.00083	3
12736	-0.00035	-0.00046	-6e-05	-7e-05	-0.00013	-0.00051	0.00015	0.00083	3
12738	-0.00035	-0.00046	-6e-05	-7e-05	-0.00013	-0.00051	0.00015	0.00083	3
12739	-0.00035	-0.00046	-6e-05	-7e-05	-0.00013	-0.00051	0.00015	0.00083	3
12740	-0.00035	-0.00046	-6e-05	-7e-05	-0.00013	-0.00051	0.00015	0.00083	3
12741	-0.00035	-0.00046	-6e-05	-7e-05	-0.00013	-0.00051	0.00015	0.00083	3
12742	-0.00035	-0.00046	-6e-05	-7e-05	-0.00013	-0.00051	0.00015	0.00083	3
12743	-0.00035	-0.00046	-6e-05	-7e-05	-0.00013	-0.00051	0.00015	0.00083	3
12744	-0.00035	-0.00046	-6e-05	-7e-05	-0.00013	-0.00051	0.00015	0.00083	3
12745	-0.00035	-0.00046	-6e-05	-7e-05	-0.00013	-0.00051	0.00015	0.00083	3
12746	-0.00035	-0.00046	-6e-05	-7e-05	-0.00013	-0.00051	0.00015	0.00083	3
12747	-0.00035	-0.00046	-6e-05	-7e-05	-0.00013	-0.00051	0.00015	0.00083	3
12748	-0.00035	-0.00046	-6e-05	-7e-05	-0.00013	-0.00051	0.00015	0.00083	3
12749	-0.00035	-0.00046	-6e-05	-7e-05	-0.00013	-0.00051	0.00015	0.00083	3
12750	5e-05	-2e-05	-9e-05	9e-05	0.00024	0.0004	0.00022	-0.00036	3
12751	3e-05	0.00026	3e-05	-2e-05	0.00044	0.00024	0.00017	-0.00078	3
12752	3e-05	0.00026	3e-05	-2e-05	0.00044	0.00024	0.00017	-0.00078	3
12753	3e-05	0.00026	3e-05	-2e-05	0.00044	0.00024	0.00017	-0.00078	3
12754	3e-05	0.00026	3e-05	-2e-05	0.00044	0.00024	0.00017	-0.00078	3
12755	3e-05	0.00026	3e-05	-2e-05	0.00044	0.00024	0.00017	-0.00078	3
12756	3e-05	0.00026	3e-05	-2e-05	0.00044	0.00024	0.00017	-0.00078	3
12757	3e-05	0.00026	3e-05	-2e-05	0.00044	0.00024	0.00017	-0.00078	3
12758	3e-05	0.00026	3e-05	-2e-05	0.00044	0.00024	0.00017	-0.00078	3
12759	3e-05	0.00026	3e-05	-2e-05	0.00044	0.00024	0.00017	-0.00078	3
12760	3e-05	0.00026	3e-05	-2e-05	0.00044	0.00024	0.00017	-0.00078	3
12761	3e-05	0.00026	3e-05	-2e-05	0.00044	0.00024	0.00017	-0.00078	3
12762	3e-05	0.00026	3e-05	-2e-05	0.00044	0.00024	0.00017	-0.00078	3
12763	3e-05	0.00026	3e-05	-2e-05	0.00044	0.00024	0.00017	-0.00078	3
12764	3e-05	0.00026	3e-05	-2e-05	0.00044	0.00024	0.00017	-0.00078	3
12765	3e-05	0.00026	3e-05	-2e-05	0.00044	0.00024	0.00017	-0.00078	3
12766	3e-05	0.00026	3e-05	-2e-05	0.00044	0.00024	0.00017	-0.00078	3
12767	3e-05	0.00026	3e-05	-2e-05	0.00044	0.00024	0.00017	-0.00078	3
12768	3e-05	0.00026	3e-05	-2e-05	0.00044	0.00024	0.00017	-0.00078	3
12769	3e-05	0.00026	3e-05	-2e-05	0.00044	0.00024	0.00017	-0.00078	3
12770	3e-05	0.00026	3e-05	-2e-05	0.00044	0.00024	0.00017	-0.00078	3
12771	3e-05	0.00026	3e-05	-2e-05	0.00044	0.00024	0.00017	-0.00078	3
12772	3e-05	0.00026	3e-05	-2e-05	0.00044	0.00024	0.00017	-0.00078	3
12773	-0.00013	0.0007	6e-05	2e-05	0.00051	-9e-05	-0.00021	-0.00081	3
12774	-0.00013	0.0007	6e-05	2e-05	0.00051	-9e-05	-0.00021	-0.00081	3
12775	-0.00013	0.0007	6e-05	2e-05	0.00051	-9e-05	-0.00021	-0.00081	3
12776	-0.00013	0.0007	6e-05	2e-05	0.00051	-9e-05	-0.00021	-0.00081	3
12777	-0.00013	0.0007	6e-05	2e-05	0.00051	-9e-05	-0.00021	-0.00081	3
12778	-0.00013	0.0007	6e-05	2e-05	0.00051	-9e-05	-0.00021	-0.00081	3
12779	-0.00013	0.0007	6e-05	2e-05	0.00051	-9e-05	-0.00021	-0.00081	3
12780	-0.00013	0.0007	6e-05	2e-05	0.00051	-9e-05	-0.00021	-0.00081	3
12781	-0.00013	0.0007	6e-05	2e-05	0.00051	-9e-05	-0.00021	-0.00081	3
12782	-0.00013	0.0007	6e-05	2e-05	0.00051	-9e-05	-0.00021	-0.00081	3
12783	-0.00013	0.0007	6e-05	2e-05	0.00051	-9e-05	-0.00021	-0.00081	3
12784	-0.00013	0.0007	6e-05	2e-05	0.00051	-9e-05	-0.00021	-0.00081	3
12785	-0.00013	0.0007	6e-05	2e-05	0.00051	-9e-05	-0.00021	-0.00081	3
12786	-0.00013	0.0007	6e-05	2e-05	0.00051	-9e-05	-0.00021	-0.00081	3
12788	0.00042	0.00012	0	-7e-05	0.00012	-0.00044	-0.00015	0.00049	3
12789	0.00042	0.00012	0	-7e-05	0.00012	-0.00044	-0.00015	0.00049	3
12790	0.00042	0.00012	0	-7e-05	0.00012	-0.00044	-0.00015	0.00049	3
12791	0.00042	0.00012	0	-7e-05	0.00012	-0.00044	-0.00015	0.00049	3
12792	0.00042	0.00012	0	-7e-05	0.00012	-0.00044	-0.00015	0.00049	3
12793	0.00042	0.00012	0	-7e-05	0.00012	-0.00044	-0.00015	0.00049	3
12794	0.00042	0.00012	0	-7e-05	0.00012	-0.00044	-0.00015	0.00049	3
12795	9e-05	0.00011	-4e-05	3e-05	0.0001	-0.00018	0.00021	-0.0008	3
12796	9e-05	0.00011	-4e-05	3e-05	0.0001	-0.00018	0.00021	-0.0008	3
12797	9e-05	0.00011	-4e-05	3e-05	0.0001	-0.00018	0.00021	-0.0008	3
12798	9e-05	0.00011	-4e-05	3e-05	0.0001	-0.00018	0.00021	-0.0008	3
12799	9e-05	0.00011	-4e-05	3e-05	0.0001	-0.00018	0.00021	-0.0008	3
12800	9e-05	0.00011	-4e-05	3e-05	0.0001	-0.00018	0.00021	-0.0008	3
12801	9e-05	0.00011	-4e-05	3e-05	0.0001	-0.00018	0.00021	-0.0008	3
12802	9e-05	0.00011	-4e-05	3e-05	0.0001	-0.00018	0.00021	-0.0008	3
12803	9e-05	0.00011	-4e-05	3e-05	0.0001	-0.00018	0.00021	-0.0008	3
12804	9e-05	0.00011	-4e-05	3e-05	0.0001	-0.00018	0.00021	-0.0008	3
12805	9e-05	0.00011	-4e-05	3e-05	0.0001	-0.00018	0.00021	-0.0008	3
12806	9e-05	0.00011	-4e-05	3e-05	0.0001	-0.00018	0.00021	-0.0008	3
12807	9e-05	0.00011	-4e-05	3e-05	0.0001	-0.00018	0.00021	-0.0008	3
12808	9e-05	0.00011	-4e-05	3e-05	0.0001	-0.00018	0.00021	-0.0008	3
12809	9e-05	0.00011	-4e-05	3e-05	0.0001	-0.00018	0.00021	-0.0008	3
12810	-1e-05	0.00027	-6e-05	-9e-05	-0.0001	0.0002	-0.00013	-0.00011	3
12811	0.00023	0.00016	4e-05	-3e-05	5e-05	0.00012	-0.00031	0.00015	3
12812	0.00023	0.00016	4e-05	-3e-05	5e-05	0.00012	-0.00031	0.00015	3
12813	0.00023	0.00016	4e-05	-3e-05	5e-05	0.00012	-0.00031	0.00015	3
12814	0.00023	0.00016	4e-05	-3e-05	5e-05	0.00012	-0.00031	0.00015	3
12815	0.00023	0.00016	4e-05	-3e-05	5e-05	0.00012	-0.00031	0.00015	3
12816	0.00023	0.00016	4e-05	-3e-05	5e-05	0.00012	-0.00031	0.00015	3
12817	0.00023	0.00016	4e-05	-3e-05	5e-05	0.00012	-0.00031	0.00015	3
12818	0.00023	0.00016	4e-05	-3e-05	5e-05	0.00012	-0.00031	0.00015	3
12819	0.00023	0.00016	4e-05	-3e-05	5e-05	0.00012	-0.00031	0.00015	3
12820	0.00023	0.00016	4e-05	-3e-05	5e-05	0.00012	-0.00031	0.00015	3
12821	0.00023	0.00016	4e-05	-3e-05	5e-05	0.00012	-0.00031	0.00015	3
12822	0.00023	0.00016	4e-05	-3e-05	5e-05	0.00012	-0.00031	0.00015	3
12823	0.00023	0.00016	4e-05	-3e-05	5e-05	0.00012	-0.00031	0.00015	3
12824	0.00023	0.00016	4e-05	-3e-05	5e-05	0.00012	-0.00031	0.00015	3
12825	0.00023	0.00016	4e-05	-3e-05	5e-05	0.00012	-0.00031	0.00015	3
12826	0.00023	0.00016	4e-05	-3e-05	5e-05	0.00012	-0.00031	0.00015	3
12827	0.00023	0.00016	4e-05	-3e-05	5e-05	0.00012	-0.00031	0.00015	3
12828	0.00023	0.00016	4e-05	-3e-05	5e-05	0.00012	-0.00031	0.00015	3
12829	0.00023	0.00016	4e-05	-3e-05	5e-05	0.00012	-0.00031	0.00015	3
12830	0.00023	0.00016	4e-05	-3e-05	5e-05	0.00012	-0.00031	0.00015	3
12831	0.00023	0.00016	4e-05	-3e-05	5e-05	0.00012	-0.00031	0.00015	3
12832	-0.00016	-8e-05	0	3e-05	-0.00023	-0.00019	-0.00017	-0.00017	3
12833	-0.00028	-0.00104	-0.00017	-3e-05	-0.00033	0.00051	-0.00026	-0.00019	3
12834	-0.00028	-0.00104	-0.00017	-3e-05	-0.00033	0.00051	-0.00026	-0.00019	3
12835	-0.00028	-0.00104	-0.00017	-3e-05	-0.00033	0.00051	-0.00026	-0.00019	3
12836	-0.00028	-0.00104	-0.00017	-3e-05	-0.00033	0.00051	-0.00026	-0.00019	3
12838	-0.00028	-0.00104	-0.00017	-3e-05	-0.00033	0.00051	-0.00026	-0.00019	3
12839	-0.00028	-0.00104	-0.00017	-3e-05	-0.00033	0.00051	-0.00026	-0.00019	3
12840	-0.00028	-0.00104	-0.00017	-3e-05	-0.00033	0.00051	-0.00026	-0.00019	3
12841	-0.00028	-0.00104	-0.00017	-3e-05	-0.00033	0.00051	-0.00026	-0.00019	3
12842	-0.00028	-0.00104	-0.00017	-3e-05	-0.00033	0.00051	-0.00026	-0.00019	3
12843	-0.00028	-0.00104	-0.00017	-3e-05	-0.00033	0.00051	-0.00026	-0.00019	3
12844	-0.00028	-0.00104	-0.00017	-3e-05	-0.00033	0.00051	-0.00026	-0.00019	3
12845	-0.00028	-0.00104	-0.00017	-3e-05	-0.00033	0.00051	-0.00026	-0.00019	3
12846	-0.00028	-0.00104	-0.00017	-3e-05	-0.00033	0.00051	-0.00026	-0.00019	3
12847	-2e-05	-3e-05	-2e-05	6e-05	0.00014	0.00071	1e-05	-0.00078	3
12848	-2e-05	-3e-05	-2e-05	6e-05	0.00014	0.00071	1e-05	-0.00078	3
12849	-2e-05	-3e-05	-2e-05	6e-05	0.00014	0.00071	1e-05	-0.00078	3
12850	-2e-05	-3e-05	-2e-05	6e-05	0.00014	0.00071	1e-05	-0.00078	3
12851	-2e-05	-3e-05	-2e-05	6e-05	0.00014	0.00071	1e-05	-0.00078	3
12852	-2e-05	-3e-05	-2e-05	6e-05	0.00014	0.00071	1e-05	-0.00078	3
12853	-2e-05	-3e-05	-2e-05	6e-05	0.00014	0.00071	1e-05	-0.00078	3
12854	-2e-05	-3e-05	-2e-05	6e-05	0.00014	0.00071	1e-05	-0.00078	3
12855	0.0001	0	1e-05	-1e-05	-0.00028	-0.00042	-0.00015	0.0001	3
12856	0.0001	0	1e-05	-1e-05	-0.00028	-0.00042	-0.00015	0.0001	3
12857	0.0001	0	1e-05	-1e-05	-0.00028	-0.00042	-0.00015	0.0001	3
12858	0.0001	0	1e-05	-1e-05	-0.00028	-0.00042	-0.00015	0.0001	3
12859	0.0001	0	1e-05	-1e-05	-0.00028	-0.00042	-0.00015	0.0001	3
12860	0.0001	0	1e-05	-1e-05	-0.00028	-0.00042	-0.00015	0.0001	3
12861	0.0001	0	1e-05	-1e-05	-0.00028	-0.00042	-0.00015	0.0001	3
12862	0.0001	0	1e-05	-1e-05	-0.00028	-0.00042	-0.00015	0.0001	3
12863	0.0001	0	1e-05	-1e-05	-0.00028	-0.00042	-0.00015	0.0001	3
12864	0.0001	0	1e-05	-1e-05	-0.00028	-0.00042	-0.00015	0.0001	3
12865	0.0001	0	1e-05	-1e-05	-0.00028	-0.00042	-0.00015	0.0001	3
12866	0.0001	0	1e-05	-1e-05	-0.00028	-0.00042	-0.00015	0.0001	3
12867	0.0001	0	1e-05	-1e-05	-0.00028	-0.00042	-0.00015	0.0001	3
12868	0.0001	0	1e-05	-1e-05	-0.00028	-0.00042	-0.00015	0.0001	3
12869	0.0001	0	1e-05	-1e-05	-0.00028	-0.00042	-0.00015	0.0001	3
12870	-0.00052	4e-05	1e-05	-1e-05	0.00034	0.00018	-2e-05	0.00017	3
12871	0.00016	-0.00041	-0.00016	-5e-05	-7e-05	0.00021	-0.00039	0.00021	3
12872	0.00016	-0.00041	-0.00016	-5e-05	-7e-05	0.00021	-0.00039	0.00021	3
12873	0.00016	-0.00041	-0.00016	-5e-05	-7e-05	0.00021	-0.00039	0.00021	3
12874	0.00016	-0.00041	-0.00016	-5e-05	-7e-05	0.00021	-0.00039	0.00021	3
12875	0.00016	-0.00041	-0.00016	-5e-05	-7e-05	0.00021	-0.00039	0.00021	3
12876	0.00016	-0.00041	-0.00016	-5e-05	-7e-05	0.00021	-0.00039	0.00021	3
12877	0.00016	-0.00041	-0.00016	-5e-05	-7e-05	0.00021	-0.00039	0.00021	3
12878	0.00016	-0.00041	-0.00016	-5e-05	-7e-05	0.00021	-0.00039	0.00021	3
12879	0.00016	-0.00041	-0.00016	-5e-05	-7e-05	0.00021	-0.00039	0.00021	3
12880	0.00016	-0.00041	-0.00016	-5e-05	-7e-05	0.00021	-0.00039	0.00021	3
12881	0.00016	-0.00041	-0.00016	-5e-05	-7e-05	0.00021	-0.00039	0.00021	3
12882	0.00016	-0.00041	-0.00016	-5e-05	-7e-05	0.00021	-0.00039	0.00021	3
12883	0.00016	-0.00041	-0.00016	-5e-05	-7e-05	0.00021	-0.00039	0.00021	3
12884	0.00016	-0.00041	-0.00016	-5e-05	-7e-05	0.00021	-0.00039	0.00021	3
12885	0.00016	-0.00041	-0.00016	-5e-05	-7e-05	0.00021	-0.00039	0.00021	3
12886	0.00016	-0.00041	-0.00016	-5e-05	-7e-05	0.00021	-0.00039	0.00021	3
12888	0.00016	-0.00041	-0.00016	-5e-05	-7e-05	0.00021	-0.00039	0.00021	3
12889	0.00016	-0.00041	-0.00016	-5e-05	-7e-05	0.00021	-0.00039	0.00021	3
12890	0.00016	-0.00041	-0.00016	-5e-05	-7e-05	0.00021	-0.00039	0.00021	3
12891	0.00016	-0.00041	-0.00016	-5e-05	-7e-05	0.00021	-0.00039	0.00021	3
12892	0.00016	-0.00041	-0.00016	-5e-05	-7e-05	0.00021	-0.00039	0.00021	3
12893	-2e-05	1e-05	3e-05	1e-05	-0.00012	-0.00017	0.00024	0.00084	3
12894	-2e-05	1e-05	3e-05	1e-05	-0.00012	-0.00017	0.00024	0.00084	3
12895	-2e-05	1e-05	3e-05	1e-05	-0.00012	-0.00017	0.00024	0.00084	3
12896	-2e-05	1e-05	3e-05	1e-05	-0.00012	-0.00017	0.00024	0.00084	3
12897	-2e-05	1e-05	3e-05	1e-05	-0.00012	-0.00017	0.00024	0.00084	3
12898	-2e-05	1e-05	3e-05	1e-05	-0.00012	-0.00017	0.00024	0.00084	3
12899	-2e-05	1e-05	3e-05	1e-05	-0.00012	-0.00017	0.00024	0.00084	3
12901	-2e-05	1e-05	3e-05	1e-05	-0.00012	-0.00017	0.00024	0.00084	3
12902	-2e-05	1e-05	3e-05	1e-05	-0.00012	-0.00017	0.00024	0.00084	3
12903	-2e-05	1e-05	3e-05	1e-05	-0.00012	-0.00017	0.00024	0.00084	3
12904	-2e-05	1e-05	3e-05	1e-05	-0.00012	-0.00017	0.00024	0.00084	3
12905	-2e-05	1e-05	3e-05	1e-05	-0.00012	-0.00017	0.00024	0.00084	3
12906	-2e-05	1e-05	3e-05	1e-05	-0.00012	-0.00017	0.00024	0.00084	3
12907	-2e-05	1e-05	3e-05	1e-05	-0.00012	-0.00017	0.00024	0.00084	3
12908	-2e-05	1e-05	3e-05	1e-05	-0.00012	-0.00017	0.00024	0.00084	3
12909	-2e-05	1e-05	3e-05	1e-05	-0.00012	-0.00017	0.00024	0.00084	3
12910	-2e-05	1e-05	3e-05	1e-05	-0.00012	-0.00017	0.00024	0.00084	3
12911	-2e-05	1e-05	3e-05	1e-05	-0.00012	-0.00017	0.00024	0.00084	3
12912	-2e-05	1e-05	3e-05	1e-05	-0.00012	-0.00017	0.00024	0.00084	3
12913	-2e-05	1e-05	3e-05	1e-05	-0.00012	-0.00017	0.00024	0.00084	3
12914	-2e-05	1e-05	3e-05	1e-05	-0.00012	-0.00017	0.00024	0.00084	3
12915	-2e-05	1e-05	3e-05	1e-05	-0.00012	-0.00017	0.00024	0.00084	3
12916	0.00044	-0.00046	-2e-05	7e-05	-3e-05	0.00062	-2e-05	0.00044	3
12917	0.00044	-0.00046	-2e-05	7e-05	-3e-05	0.00062	-2e-05	0.00044	3
12919	0.00044	-0.00046	-2e-05	7e-05	-3e-05	0.00062	-2e-05	0.00044	3
12920	0.00044	-0.00046	-2e-05	7e-05	-3e-05	0.00062	-2e-05	0.00044	3
12921	0.00044	-0.00046	-2e-05	7e-05	-3e-05	0.00062	-2e-05	0.00044	3
12922	0.00044	-0.00046	-2e-05	7e-05	-3e-05	0.00062	-2e-05	0.00044	3
12923	0.00044	-0.00046	-2e-05	7e-05	-3e-05	0.00062	-2e-05	0.00044	3
12924	0.00044	-0.00046	-2e-05	7e-05	-3e-05	0.00062	-2e-05	0.00044	3
12925	0.00044	-0.00046	-2e-05	7e-05	-3e-05	0.00062	-2e-05	0.00044	3
12926	0.00044	-0.00046	-2e-05	7e-05	-3e-05	0.00062	-2e-05	0.00044	3
12927	0.00044	-0.00046	-2e-05	7e-05	-3e-05	0.00062	-2e-05	0.00044	3
12928	0.00044	-0.00046	-2e-05	7e-05	-3e-05	0.00062	-2e-05	0.00044	3
12929	0.00044	-0.00046	-2e-05	7e-05	-3e-05	0.00062	-2e-05	0.00044	3
12930	0.00022	-0.00028	6e-05	0.00017	0.00074	0.00036	0.00013	0.00036	3
12931	-0.00015	0.0002	1e-05	-6e-05	0	0.00016	6e-05	-0.00067	3
12932	-0.00015	0.0002	1e-05	-6e-05	0	0.00016	6e-05	-0.00067	3
12933	-0.00015	0.0002	1e-05	-6e-05	0	0.00016	6e-05	-0.00067	3
12934	-0.00015	0.0002	1e-05	-6e-05	0	0.00016	6e-05	-0.00067	3
12935	-0.00015	0.0002	1e-05	-6e-05	0	0.00016	6e-05	-0.00067	3
12936	-0.00015	0.0002	1e-05	-6e-05	0	0.00016	6e-05	-0.00067	3
12938	-0.00015	0.0002	1e-05	-6e-05	0	0.00016	6e-05	-0.00067	3
12939	-0.00015	0.0002	1e-05	-6e-05	0	0.00016	6e-05	-0.00067	3
12940	-0.00015	0.0002	1e-05	-6e-05	0	0.00016	6e-05	-0.00067	3
12941	-0.00015	0.0002	1e-05	-6e-05	0	0.00016	6e-05	-0.00067	3
12942	-0.00015	0.0002	1e-05	-6e-05	0	0.00016	6e-05	-0.00067	3
12943	-0.00015	0.0002	1e-05	-6e-05	0	0.00016	6e-05	-0.00067	3
12944	-0.00015	0.0002	1e-05	-6e-05	0	0.00016	6e-05	-0.00067	3
12945	-0.00015	0.0002	1e-05	-6e-05	0	0.00016	6e-05	-0.00067	3
12946	-0.00015	0.0002	1e-05	-6e-05	0	0.00016	6e-05	-0.00067	3
12947	-0.00015	0.0002	1e-05	-6e-05	0	0.00016	6e-05	-0.00067	3
12948	-0.00015	0.0002	1e-05	-6e-05	0	0.00016	6e-05	-0.00067	3
12949	-0.00015	0.0002	1e-05	-6e-05	0	0.00016	6e-05	-0.00067	3
12950	-0.00015	0.0002	1e-05	-6e-05	0	0.00016	6e-05	-0.00067	3
12951	-0.00015	0.0002	1e-05	-6e-05	0	0.00016	6e-05	-0.00067	3
12952	-0.00015	0.0002	1e-05	-6e-05	0	0.00016	6e-05	-0.00067	3
12953	-1e-05	-4e-05	-1e-05	6e-05	-8e-05	0.00042	-9e-05	0.00098	3
12954	-1e-05	-4e-05	-1e-05	6e-05	-8e-05	0.00042	-9e-05	0.00098	3
12955	-1e-05	-4e-05	-1e-05	6e-05	-8e-05	0.00042	-9e-05	0.00098	3
12956	-1e-05	-4e-05	-1e-05	6e-05	-8e-05	0.00042	-9e-05	0.00098	3
12957	-1e-05	-4e-05	-1e-05	6e-05	-8e-05	0.00042	-9e-05	0.00098	3
12958	-1e-05	-4e-05	-1e-05	6e-05	-8e-05	0.00042	-9e-05	0.00098	3
12959	-1e-05	-4e-05	-1e-05	6e-05	-8e-05	0.00042	-9e-05	0.00098	3
12960	-1e-05	-4e-05	-1e-05	6e-05	-8e-05	0.00042	-9e-05	0.00098	3
12961	-1e-05	-4e-05	-1e-05	6e-05	-8e-05	0.00042	-9e-05	0.00098	3
12962	-1e-05	-4e-05	-1e-05	6e-05	-8e-05	0.00042	-9e-05	0.00098	3
12963	-1e-05	-4e-05	-1e-05	6e-05	-8e-05	0.00042	-9e-05	0.00098	3
12964	-1e-05	-4e-05	-1e-05	6e-05	-8e-05	0.00042	-9e-05	0.00098	3
12965	-1e-05	-4e-05	-1e-05	6e-05	-8e-05	0.00042	-9e-05	0.00098	3
12966	-1e-05	-4e-05	-1e-05	6e-05	-8e-05	0.00042	-9e-05	0.00098	3
12967	-1e-05	-4e-05	-1e-05	6e-05	-8e-05	0.00042	-9e-05	0.00098	3
12968	-1e-05	-4e-05	-1e-05	6e-05	-8e-05	0.00042	-9e-05	0.00098	3
12969	-1e-05	-4e-05	-1e-05	6e-05	-8e-05	0.00042	-9e-05	0.00098	3
12970	-1e-05	-4e-05	-1e-05	6e-05	-8e-05	0.00042	-9e-05	0.00098	3
12971	-1e-05	-4e-05	-1e-05	6e-05	-8e-05	0.00042	-9e-05	0.00098	3
12972	-1e-05	-4e-05	-1e-05	6e-05	-8e-05	0.00042	-9e-05	0.00098	3
12973	-1e-05	-4e-05	-1e-05	6e-05	-8e-05	0.00042	-9e-05	0.00098	3
12974	-1e-05	-4e-05	-1e-05	6e-05	-8e-05	0.00042	-9e-05	0.00098	3
12975	-1e-05	-4e-05	-1e-05	6e-05	-8e-05	0.00042	-9e-05	0.00098	3
12976	-0.00025	0.0006	3e-05	-2e-05	-1e-05	5e-05	0.00019	-0.00015	3
12977	-0.00012	-0.0001	-5e-05	-8e-05	-0.00012	-0.00058	0.00045	0.0003	3
12978	-0.00012	-0.0001	-5e-05	-8e-05	-0.00012	-0.00058	0.00045	0.0003	3
12979	-0.00012	-0.0001	-5e-05	-8e-05	-0.00012	-0.00058	0.00045	0.0003	3
12980	-0.00012	-0.0001	-5e-05	-8e-05	-0.00012	-0.00058	0.00045	0.0003	3
12981	-0.00012	-0.0001	-5e-05	-8e-05	-0.00012	-0.00058	0.00045	0.0003	3
12982	-0.00012	-0.0001	-5e-05	-8e-05	-0.00012	-0.00058	0.00045	0.0003	3
12983	-0.00012	-0.0001	-5e-05	-8e-05	-0.00012	-0.00058	0.00045	0.0003	3
12984	-0.00012	-0.0001	-5e-05	-8e-05	-0.00012	-0.00058	0.00045	0.0003	3
12985	-0.00012	-0.0001	-5e-05	-8e-05	-0.00012	-0.00058	0.00045	0.0003	3
12986	-0.00012	-0.0001	-5e-05	-8e-05	-0.00012	-0.00058	0.00045	0.0003	3
12988	-0.00012	-0.0001	-5e-05	-8e-05	-0.00012	-0.00058	0.00045	0.0003	3
12989	-0.00012	-0.0001	-5e-05	-8e-05	-0.00012	-0.00058	0.00045	0.0003	3
12990	-0.00011	-0.00055	-0.00011	-6e-05	0.00032	0.00029	0.00024	-0.00051	3
12991	-0.00022	5e-05	6e-05	-5e-05	-0.0008	-8e-05	-0.00084	-0.00128	3
12992	-0.00022	5e-05	6e-05	-5e-05	-0.0008	-8e-05	-0.00084	-0.00128	3
12993	-0.00022	5e-05	6e-05	-5e-05	-0.0008	-8e-05	-0.00084	-0.00128	3
12994	-0.00022	5e-05	6e-05	-5e-05	-0.0008	-8e-05	-0.00084	-0.00128	3
12995	-0.00022	5e-05	6e-05	-5e-05	-0.0008	-8e-05	-0.00084	-0.00128	3
12996	-0.00022	5e-05	6e-05	-5e-05	-0.0008	-8e-05	-0.00084	-0.00128	3
12997	-0.00022	5e-05	6e-05	-5e-05	-0.0008	-8e-05	-0.00084	-0.00128	3
12998	-0.00022	5e-05	6e-05	-5e-05	-0.0008	-8e-05	-0.00084	-0.00128	3
12999	-0.00022	5e-05	6e-05	-5e-05	-0.0008	-8e-05	-0.00084	-0.00128	3
13000	-0.00022	5e-05	6e-05	-5e-05	-0.0008	-8e-05	-0.00084	-0.00128	3
13001	-0.00022	5e-05	6e-05	-5e-05	-0.0008	-8e-05	-0.00084	-0.00128	3
13002	-0.00022	5e-05	6e-05	-5e-05	-0.0008	-8e-05	-0.00084	-0.00128	3
13003	-0.00022	5e-05	6e-05	-5e-05	-0.0008	-8e-05	-0.00084	-0.00128	3
13004	-0.00022	5e-05	6e-05	-5e-05	-0.0008	-8e-05	-0.00084	-0.00128	3
13005	-0.00022	5e-05	6e-05	-5e-05	-0.0008	-8e-05	-0.00084	-0.00128	3
13006	-0.00022	5e-05	6e-05	-5e-05	-0.0008	-8e-05	-0.00084	-0.00128	3
13007	-0.00022	5e-05	6e-05	-5e-05	-0.0008	-8e-05	-0.00084	-0.00128	3
13008	-0.00022	5e-05	6e-05	-5e-05	-0.0008	-8e-05	-0.00084	-0.00128	3
13009	-0.00022	5e-05	6e-05	-5e-05	-0.0008	-8e-05	-0.00084	-0.00128	3
13010	-0.00022	5e-05	6e-05	-5e-05	-0.0008	-8e-05	-0.00084	-0.00128	3
13011	-0.00022	5e-05	6e-05	-5e-05	-0.0008	-8e-05	-0.00084	-0.00128	3
13012	7e-05	-5e-05	5e-05	2e-05	0.00034	0.00074	0.00091	0.00066	3
13013	-0.00051	-0.0003	-0.00016	-6e-05	0.00029	-0.00029	0.0001	-0.00056	3
13014	-0.00051	-0.0003	-0.00016	-6e-05	0.00029	-0.00029	0.0001	-0.00056	3
13015	-0.00051	-0.0003	-0.00016	-6e-05	0.00029	-0.00029	0.0001	-0.00056	3
13016	-0.00051	-0.0003	-0.00016	-6e-05	0.00029	-0.00029	0.0001	-0.00056	3
13017	-0.00051	-0.0003	-0.00016	-6e-05	0.00029	-0.00029	0.0001	-0.00056	3
13018	-0.00051	-0.0003	-0.00016	-6e-05	0.00029	-0.00029	0.0001	-0.00056	3
13019	-0.00051	-0.0003	-0.00016	-6e-05	0.00029	-0.00029	0.0001	-0.00056	3
13020	-0.00051	-0.0003	-0.00016	-6e-05	0.00029	-0.00029	0.0001	-0.00056	3
13021	-0.00051	-0.0003	-0.00016	-6e-05	0.00029	-0.00029	0.0001	-0.00056	3
13022	-0.00051	-0.0003	-0.00016	-6e-05	0.00029	-0.00029	0.0001	-0.00056	3
13023	-0.00051	-0.0003	-0.00016	-6e-05	0.00029	-0.00029	0.0001	-0.00056	3
13024	-0.00051	-0.0003	-0.00016	-6e-05	0.00029	-0.00029	0.0001	-0.00056	3
13025	-0.00051	-0.0003	-0.00016	-6e-05	0.00029	-0.00029	0.0001	-0.00056	3
13026	-0.00051	-0.0003	-0.00016	-6e-05	0.00029	-0.00029	0.0001	-0.00056	3
13027	-0.00051	-0.0003	-0.00016	-6e-05	0.00029	-0.00029	0.0001	-0.00056	3
13028	-0.00051	-0.0003	-0.00016	-6e-05	0.00029	-0.00029	0.0001	-0.00056	3
13029	-0.00051	-0.0003	-0.00016	-6e-05	0.00029	-0.00029	0.0001	-0.00056	3
13030	-0.00051	-0.0003	-0.00016	-6e-05	0.00029	-0.00029	0.0001	-0.00056	3
13031	-0.00051	-0.0003	-0.00016	-6e-05	0.00029	-0.00029	0.0001	-0.00056	3
13032	-0.00051	-0.0003	-0.00016	-6e-05	0.00029	-0.00029	0.0001	-0.00056	3
13033	-0.00051	-0.0003	-0.00016	-6e-05	0.00029	-0.00029	0.0001	-0.00056	3
13034	-0.00051	-0.0003	-0.00016	-6e-05	0.00029	-0.00029	0.0001	-0.00056	3
13035	-0.00051	-0.0003	-0.00016	-6e-05	0.00029	-0.00029	0.0001	-0.00056	3
13036	-9e-05	2e-05	-0.00015	-6e-05	1e-05	-0.0003	-0.00041	-0.00052	3
13038	0.00044	0.00084	0.00019	5e-05	0.00013	0.00028	-0.00014	0.00072	3
13040	0.00044	0.00084	0.00019	5e-05	0.00013	0.00028	-0.00014	0.00072	3
13041	0.00044	0.00084	0.00019	5e-05	0.00013	0.00028	-0.00014	0.00072	3
13042	0.00044	0.00084	0.00019	5e-05	0.00013	0.00028	-0.00014	0.00072	3
13043	0.00044	0.00084	0.00019	5e-05	0.00013	0.00028	-0.00014	0.00072	3
13044	0.00044	0.00084	0.00019	5e-05	0.00013	0.00028	-0.00014	0.00072	3
13045	0.00044	0.00084	0.00019	5e-05	0.00013	0.00028	-0.00014	0.00072	3
13046	0.00044	0.00084	0.00019	5e-05	0.00013	0.00028	-0.00014	0.00072	3
13047	0.00044	0.00084	0.00019	5e-05	0.00013	0.00028	-0.00014	0.00072	3
13048	0.00044	0.00084	0.00019	5e-05	0.00013	0.00028	-0.00014	0.00072	3
13049	0.00044	0.00084	0.00019	5e-05	0.00013	0.00028	-0.00014	0.00072	3
13050	-0.00014	-0.00025	-4e-05	-4e-05	0.00027	0.00057	-1e-05	0.00024	3
13051	-0.00013	6e-05	1e-05	-2e-05	-2e-05	0.00022	-6e-05	-0.00092	3
13052	-0.00013	6e-05	1e-05	-2e-05	-2e-05	0.00022	-6e-05	-0.00092	3
13053	-0.00013	6e-05	1e-05	-2e-05	-2e-05	0.00022	-6e-05	-0.00092	3
13054	-0.00013	6e-05	1e-05	-2e-05	-2e-05	0.00022	-6e-05	-0.00092	3
13055	-0.00013	6e-05	1e-05	-2e-05	-2e-05	0.00022	-6e-05	-0.00092	3
13056	-0.00013	6e-05	1e-05	-2e-05	-2e-05	0.00022	-6e-05	-0.00092	3
13057	-0.00013	6e-05	1e-05	-2e-05	-2e-05	0.00022	-6e-05	-0.00092	3
13058	-0.00013	6e-05	1e-05	-2e-05	-2e-05	0.00022	-6e-05	-0.00092	3
13059	-0.00013	6e-05	1e-05	-2e-05	-2e-05	0.00022	-6e-05	-0.00092	3
13060	-0.00013	6e-05	1e-05	-2e-05	-2e-05	0.00022	-6e-05	-0.00092	3
13061	-0.00013	6e-05	1e-05	-2e-05	-2e-05	0.00022	-6e-05	-0.00092	3
13062	-0.00013	6e-05	1e-05	-2e-05	-2e-05	0.00022	-6e-05	-0.00092	3
13063	-0.00013	6e-05	1e-05	-2e-05	-2e-05	0.00022	-6e-05	-0.00092	3
13064	-0.00013	6e-05	1e-05	-2e-05	-2e-05	0.00022	-6e-05	-0.00092	3
13065	-0.00013	6e-05	1e-05	-2e-05	-2e-05	0.00022	-6e-05	-0.00092	3
13066	-0.00013	6e-05	1e-05	-2e-05	-2e-05	0.00022	-6e-05	-0.00092	3
13067	-0.00013	6e-05	1e-05	-2e-05	-2e-05	0.00022	-6e-05	-0.00092	3
13068	-0.00013	6e-05	1e-05	-2e-05	-2e-05	0.00022	-6e-05	-0.00092	3
13069	-0.00013	6e-05	1e-05	-2e-05	-2e-05	0.00022	-6e-05	-0.00092	3
13070	-0.00013	6e-05	1e-05	-2e-05	-2e-05	0.00022	-6e-05	-0.00092	3
13071	-0.00013	6e-05	1e-05	-2e-05	-2e-05	0.00022	-6e-05	-0.00092	3
13072	0.00045	-0.00011	0.00012	8e-05	0.00011	0.00058	-4e-05	-0.00069	3
13073	-6e-05	-2e-05	-2e-05	0	7e-05	-0.00039	3e-05	7e-05	3
13074	-6e-05	-2e-05	-2e-05	0	7e-05	-0.00039	3e-05	7e-05	3
13075	-6e-05	-2e-05	-2e-05	0	7e-05	-0.00039	3e-05	7e-05	3
13076	-6e-05	-2e-05	-2e-05	0	7e-05	-0.00039	3e-05	7e-05	3
13077	-6e-05	-2e-05	-2e-05	0	7e-05	-0.00039	3e-05	7e-05	3
13078	-6e-05	-2e-05	-2e-05	0	7e-05	-0.00039	3e-05	7e-05	3
13079	-6e-05	-2e-05	-2e-05	0	7e-05	-0.00039	3e-05	7e-05	3
13080	-6e-05	-2e-05	-2e-05	0	7e-05	-0.00039	3e-05	7e-05	3
13081	-6e-05	-2e-05	-2e-05	0	7e-05	-0.00039	3e-05	7e-05	3
13082	-6e-05	-2e-05	-2e-05	0	7e-05	-0.00039	3e-05	7e-05	3
13083	-6e-05	-2e-05	-2e-05	0	7e-05	-0.00039	3e-05	7e-05	3
13084	-6e-05	-2e-05	-2e-05	0	7e-05	-0.00039	3e-05	7e-05	3
13085	-6e-05	-2e-05	-2e-05	0	7e-05	-0.00039	3e-05	7e-05	3
13086	-6e-05	-2e-05	-2e-05	0	7e-05	-0.00039	3e-05	7e-05	3
13088	-6e-05	-2e-05	-2e-05	0	7e-05	-0.00039	3e-05	7e-05	3
13089	-6e-05	-2e-05	-2e-05	0	7e-05	-0.00039	3e-05	7e-05	3
13090	-6e-05	-2e-05	-2e-05	0	7e-05	-0.00039	3e-05	7e-05	3
13091	-6e-05	-2e-05	-2e-05	0	7e-05	-0.00039	3e-05	7e-05	3
13092	-6e-05	-2e-05	-2e-05	0	7e-05	-0.00039	3e-05	7e-05	3
13093	-6e-05	-2e-05	-2e-05	0	7e-05	-0.00039	3e-05	7e-05	3
13094	-6e-05	-2e-05	-2e-05	0	7e-05	-0.00039	3e-05	7e-05	3
13095	-6e-05	-2e-05	-2e-05	0	7e-05	-0.00039	3e-05	7e-05	3
13096	-0.00077	0.00013	-1e-05	5e-05	-0.00019	-0.00074	0.00025	0.00016	3
13097	-0.00077	0.00013	-1e-05	5e-05	-0.00019	-0.00074	0.00025	0.00016	3
13098	-0.00077	0.00013	-1e-05	5e-05	-0.00019	-0.00074	0.00025	0.00016	3
13099	-0.00077	0.00013	-1e-05	5e-05	-0.00019	-0.00074	0.00025	0.00016	3
13100	-0.00077	0.00013	-1e-05	5e-05	-0.00019	-0.00074	0.00025	0.00016	3
13101	-0.00077	0.00013	-1e-05	5e-05	-0.00019	-0.00074	0.00025	0.00016	3
13102	-0.00077	0.00013	-1e-05	5e-05	-0.00019	-0.00074	0.00025	0.00016	3
13103	-0.00077	0.00013	-1e-05	5e-05	-0.00019	-0.00074	0.00025	0.00016	3
13104	-0.00077	0.00013	-1e-05	5e-05	-0.00019	-0.00074	0.00025	0.00016	3
13105	-0.00077	0.00013	-1e-05	5e-05	-0.00019	-0.00074	0.00025	0.00016	3
13106	-0.00077	0.00013	-1e-05	5e-05	-0.00019	-0.00074	0.00025	0.00016	3
13107	-0.00077	0.00013	-1e-05	5e-05	-0.00019	-0.00074	0.00025	0.00016	3
13108	-0.00077	0.00013	-1e-05	5e-05	-0.00019	-0.00074	0.00025	0.00016	3
13109	-0.00077	0.00013	-1e-05	5e-05	-0.00019	-0.00074	0.00025	0.00016	3
13110	9e-05	0.00076	0.00012	-7e-05	-0.00011	-0.00088	-0.00038	-0.00033	3
13111	0.0003	-6e-05	4e-05	3e-05	0.0006	0.00065	0.00019	-0.00019	3
13112	0.0003	-6e-05	4e-05	3e-05	0.0006	0.00065	0.00019	-0.00019	3
13113	0.0003	-6e-05	4e-05	3e-05	0.0006	0.00065	0.00019	-0.00019	3
13114	0.0003	-6e-05	4e-05	3e-05	0.0006	0.00065	0.00019	-0.00019	3
13115	0.0003	-6e-05	4e-05	3e-05	0.0006	0.00065	0.00019	-0.00019	3
13116	0.0003	-6e-05	4e-05	3e-05	0.0006	0.00065	0.00019	-0.00019	3
13117	0.0003	-6e-05	4e-05	3e-05	0.0006	0.00065	0.00019	-0.00019	3
13118	0.0003	-6e-05	4e-05	3e-05	0.0006	0.00065	0.00019	-0.00019	3
13119	0.0003	-6e-05	4e-05	3e-05	0.0006	0.00065	0.00019	-0.00019	3
13120	0.0003	-6e-05	4e-05	3e-05	0.0006	0.00065	0.00019	-0.00019	3
13121	0.0003	-6e-05	4e-05	3e-05	0.0006	0.00065	0.00019	-0.00019	3
13122	0.0003	-6e-05	4e-05	3e-05	0.0006	0.00065	0.00019	-0.00019	3
13123	0.0003	-6e-05	4e-05	3e-05	0.0006	0.00065	0.00019	-0.00019	3
13124	0.0003	-6e-05	4e-05	3e-05	0.0006	0.00065	0.00019	-0.00019	3
13125	0.0003	-6e-05	4e-05	3e-05	0.0006	0.00065	0.00019	-0.00019	3
13126	0.0003	-6e-05	4e-05	3e-05	0.0006	0.00065	0.00019	-0.00019	3
13127	0.0003	-6e-05	4e-05	3e-05	0.0006	0.00065	0.00019	-0.00019	3
13128	0.0003	-6e-05	4e-05	3e-05	0.0006	0.00065	0.00019	-0.00019	3
13129	0.0003	-6e-05	4e-05	3e-05	0.0006	0.00065	0.00019	-0.00019	3
13130	0.0003	-6e-05	4e-05	3e-05	0.0006	0.00065	0.00019	-0.00019	3
13131	0.0003	-6e-05	4e-05	3e-05	0.0006	0.00065	0.00019	-0.00019	3
13132	0.0003	-6e-05	4e-05	3e-05	0.0006	0.00065	0.00019	-0.00019	3
13133	0.00019	-7e-05	-4e-05	-7e-05	0.00015	0.00021	-0.0002	0.00035	3
13134	0.00019	-7e-05	-4e-05	-7e-05	0.00015	0.00021	-0.0002	0.00035	3
13135	0.00019	-7e-05	-4e-05	-7e-05	0.00015	0.00021	-0.0002	0.00035	3
13136	0.00019	-7e-05	-4e-05	-7e-05	0.00015	0.00021	-0.0002	0.00035	3
13138	0.00019	-7e-05	-4e-05	-7e-05	0.00015	0.00021	-0.0002	0.00035	3
13139	0.00019	-7e-05	-4e-05	-7e-05	0.00015	0.00021	-0.0002	0.00035	3
13140	0.00019	-7e-05	-4e-05	-7e-05	0.00015	0.00021	-0.0002	0.00035	3
13141	0.00019	-7e-05	-4e-05	-7e-05	0.00015	0.00021	-0.0002	0.00035	3
13142	0.00019	-7e-05	-4e-05	-7e-05	0.00015	0.00021	-0.0002	0.00035	3
13143	0.00019	-7e-05	-4e-05	-7e-05	0.00015	0.00021	-0.0002	0.00035	3
13144	0.00019	-7e-05	-4e-05	-7e-05	0.00015	0.00021	-0.0002	0.00035	3
13145	0.00019	-7e-05	-4e-05	-7e-05	0.00015	0.00021	-0.0002	0.00035	3
13146	0.00019	-7e-05	-4e-05	-7e-05	0.00015	0.00021	-0.0002	0.00035	3
13147	0.00019	-7e-05	-4e-05	-7e-05	0.00015	0.00021	-0.0002	0.00035	3
13148	0.00019	-7e-05	-4e-05	-7e-05	0.00015	0.00021	-0.0002	0.00035	3
13149	0.00019	-7e-05	-4e-05	-7e-05	0.00015	0.00021	-0.0002	0.00035	3
13150	0.00019	-7e-05	-4e-05	-7e-05	0.00015	0.00021	-0.0002	0.00035	3
13151	0.00019	-7e-05	-4e-05	-7e-05	0.00015	0.00021	-0.0002	0.00035	3
13152	0.00019	-7e-05	-4e-05	-7e-05	0.00015	0.00021	-0.0002	0.00035	3
13153	0.00019	-7e-05	-4e-05	-7e-05	0.00015	0.00021	-0.0002	0.00035	3
13154	0.00019	-7e-05	-4e-05	-7e-05	0.00015	0.00021	-0.0002	0.00035	3
13155	0.00019	-7e-05	-4e-05	-7e-05	0.00015	0.00021	-0.0002	0.00035	3
13156	9e-05	-0.00063	-0.00013	-1e-05	-0.00046	-9e-05	0.00034	0.00025	3
13157	9e-05	-0.00063	-0.00013	-1e-05	-0.00046	-9e-05	0.00034	0.00025	3
13158	9e-05	-0.00063	-0.00013	-1e-05	-0.00046	-9e-05	0.00034	0.00025	3
13159	9e-05	-0.00063	-0.00013	-1e-05	-0.00046	-9e-05	0.00034	0.00025	3
13160	9e-05	-0.00063	-0.00013	-1e-05	-0.00046	-9e-05	0.00034	0.00025	3
13161	9e-05	-0.00063	-0.00013	-1e-05	-0.00046	-9e-05	0.00034	0.00025	3
13162	9e-05	-0.00063	-0.00013	-1e-05	-0.00046	-9e-05	0.00034	0.00025	3
13163	9e-05	-0.00063	-0.00013	-1e-05	-0.00046	-9e-05	0.00034	0.00025	3
13164	9e-05	-0.00063	-0.00013	-1e-05	-0.00046	-9e-05	0.00034	0.00025	3
13165	9e-05	-0.00063	-0.00013	-1e-05	-0.00046	-9e-05	0.00034	0.00025	3
13166	9e-05	-0.00063	-0.00013	-1e-05	-0.00046	-9e-05	0.00034	0.00025	3
13167	9e-05	-0.00063	-0.00013	-1e-05	-0.00046	-9e-05	0.00034	0.00025	3
13168	9e-05	-0.00063	-0.00013	-1e-05	-0.00046	-9e-05	0.00034	0.00025	3
13169	9e-05	-0.00063	-0.00013	-1e-05	-0.00046	-9e-05	0.00034	0.00025	3
13170	-0.00023	-0.00055	-1e-05	0.00021	0.00027	0.00071	0.00012	0.00087	3
13171	-0.00031	-5e-05	-6e-05	-0.00011	-6e-05	-0.00101	-0.00023	-0.00077	3
13172	-0.00031	-5e-05	-6e-05	-0.00011	-6e-05	-0.00101	-0.00023	-0.00077	3
13173	-0.00031	-5e-05	-6e-05	-0.00011	-6e-05	-0.00101	-0.00023	-0.00077	3
13174	-0.00031	-5e-05	-6e-05	-0.00011	-6e-05	-0.00101	-0.00023	-0.00077	3
13175	-0.00031	-5e-05	-6e-05	-0.00011	-6e-05	-0.00101	-0.00023	-0.00077	3
13176	-0.00031	-5e-05	-6e-05	-0.00011	-6e-05	-0.00101	-0.00023	-0.00077	3
13177	-0.00031	-5e-05	-6e-05	-0.00011	-6e-05	-0.00101	-0.00023	-0.00077	3
13178	-0.00031	-5e-05	-6e-05	-0.00011	-6e-05	-0.00101	-0.00023	-0.00077	3
13179	-0.00031	-5e-05	-6e-05	-0.00011	-6e-05	-0.00101	-0.00023	-0.00077	3
13180	-0.00031	-5e-05	-6e-05	-0.00011	-6e-05	-0.00101	-0.00023	-0.00077	3
13181	-0.00031	-5e-05	-6e-05	-0.00011	-6e-05	-0.00101	-0.00023	-0.00077	3
13182	-0.00031	-5e-05	-6e-05	-0.00011	-6e-05	-0.00101	-0.00023	-0.00077	3
13183	-0.00031	-5e-05	-6e-05	-0.00011	-6e-05	-0.00101	-0.00023	-0.00077	3
13184	-0.00031	-5e-05	-6e-05	-0.00011	-6e-05	-0.00101	-0.00023	-0.00077	3
13185	-0.00031	-5e-05	-6e-05	-0.00011	-6e-05	-0.00101	-0.00023	-0.00077	3
13186	-0.00031	-5e-05	-6e-05	-0.00011	-6e-05	-0.00101	-0.00023	-0.00077	3
13188	-0.00031	-5e-05	-6e-05	-0.00011	-6e-05	-0.00101	-0.00023	-0.00077	3
13189	-0.00031	-5e-05	-6e-05	-0.00011	-6e-05	-0.00101	-0.00023	-0.00077	3
13190	-0.00031	-5e-05	-6e-05	-0.00011	-6e-05	-0.00101	-0.00023	-0.00077	3
13191	-0.00031	-5e-05	-6e-05	-0.00011	-6e-05	-0.00101	-0.00023	-0.00077	3
13192	-0.00031	-5e-05	-6e-05	-0.00011	-6e-05	-0.00101	-0.00023	-0.00077	3
13193	-0.0001	-0.00042	3e-05	2e-05	0.00042	0.0009	-7e-05	-0.00024	3
13194	0.00028	0.00058	2e-05	-8e-05	-0.00044	-0.00025	-3e-05	0.00016	3
13195	0.00028	0.00058	2e-05	-8e-05	-0.00044	-0.00025	-3e-05	0.00016	3
13196	0.00028	0.00058	2e-05	-8e-05	-0.00044	-0.00025	-3e-05	0.00016	3
13197	0.00028	0.00058	2e-05	-8e-05	-0.00044	-0.00025	-3e-05	0.00016	3
13198	0.00028	0.00058	2e-05	-8e-05	-0.00044	-0.00025	-3e-05	0.00016	3
13199	0.00028	0.00058	2e-05	-8e-05	-0.00044	-0.00025	-3e-05	0.00016	3
13201	0.00028	0.00058	2e-05	-8e-05	-0.00044	-0.00025	-3e-05	0.00016	3
13202	0.00028	0.00058	2e-05	-8e-05	-0.00044	-0.00025	-3e-05	0.00016	3
13203	0.00028	0.00058	2e-05	-8e-05	-0.00044	-0.00025	-3e-05	0.00016	3
13204	0.00028	0.00058	2e-05	-8e-05	-0.00044	-0.00025	-3e-05	0.00016	3
13205	0.00028	0.00058	2e-05	-8e-05	-0.00044	-0.00025	-3e-05	0.00016	3
13206	0.00028	0.00058	2e-05	-8e-05	-0.00044	-0.00025	-3e-05	0.00016	3
13207	0.00028	0.00058	2e-05	-8e-05	-0.00044	-0.00025	-3e-05	0.00016	3
13208	0.00028	0.00058	2e-05	-8e-05	-0.00044	-0.00025	-3e-05	0.00016	3
13209	0.00028	0.00058	2e-05	-8e-05	-0.00044	-0.00025	-3e-05	0.00016	3
13210	0.00028	0.00058	2e-05	-8e-05	-0.00044	-0.00025	-3e-05	0.00016	3
13211	0.00028	0.00058	2e-05	-8e-05	-0.00044	-0.00025	-3e-05	0.00016	3
13212	0.00028	0.00058	2e-05	-8e-05	-0.00044	-0.00025	-3e-05	0.00016	3
13213	0.00028	0.00058	2e-05	-8e-05	-0.00044	-0.00025	-3e-05	0.00016	3
13214	0.00028	0.00058	2e-05	-8e-05	-0.00044	-0.00025	-3e-05	0.00016	3
13215	0.00028	0.00058	2e-05	-8e-05	-0.00044	-0.00025	-3e-05	0.00016	3
13216	-6e-05	-9e-05	0	-3e-05	0.00022	0.00033	-1e-05	0.00018	3
13217	0.0002	0.00031	4e-05	2e-05	0.00036	0.00026	1e-05	0.00025	3
13218	0.0002	0.00031	4e-05	2e-05	0.00036	0.00026	1e-05	0.00025	3
13219	0.0002	0.00031	4e-05	2e-05	0.00036	0.00026	1e-05	0.00025	3
13220	0.0002	0.00031	4e-05	2e-05	0.00036	0.00026	1e-05	0.00025	3
13221	0.0002	0.00031	4e-05	2e-05	0.00036	0.00026	1e-05	0.00025	3
13222	0.0002	0.00031	4e-05	2e-05	0.00036	0.00026	1e-05	0.00025	3
13223	0.0002	0.00031	4e-05	2e-05	0.00036	0.00026	1e-05	0.00025	3
13224	0.0002	0.00031	4e-05	2e-05	0.00036	0.00026	1e-05	0.00025	3
13225	0.0002	0.00031	4e-05	2e-05	0.00036	0.00026	1e-05	0.00025	3
13226	0.0002	0.00031	4e-05	2e-05	0.00036	0.00026	1e-05	0.00025	3
13227	0.0002	0.00031	4e-05	2e-05	0.00036	0.00026	1e-05	0.00025	3
13228	0.0002	0.00031	4e-05	2e-05	0.00036	0.00026	1e-05	0.00025	3
13229	0.0002	0.00031	4e-05	2e-05	0.00036	0.00026	1e-05	0.00025	3
13230	-0.00027	-0.00027	-8e-05	-4e-05	0	0.00073	1e-05	0.00036	3
13231	-6e-05	8e-05	7e-05	7e-05	0.00045	0.00032	5e-05	0.00035	3
13232	-6e-05	8e-05	7e-05	7e-05	0.00045	0.00032	5e-05	0.00035	3
13233	-6e-05	8e-05	7e-05	7e-05	0.00045	0.00032	5e-05	0.00035	3
13234	-6e-05	8e-05	7e-05	7e-05	0.00045	0.00032	5e-05	0.00035	3
13235	-6e-05	8e-05	7e-05	7e-05	0.00045	0.00032	5e-05	0.00035	3
13236	-6e-05	8e-05	7e-05	7e-05	0.00045	0.00032	5e-05	0.00035	3
13238	-6e-05	8e-05	7e-05	7e-05	0.00045	0.00032	5e-05	0.00035	3
13239	-6e-05	8e-05	7e-05	7e-05	0.00045	0.00032	5e-05	0.00035	3
13240	-6e-05	8e-05	7e-05	7e-05	0.00045	0.00032	5e-05	0.00035	3
13241	-6e-05	8e-05	7e-05	7e-05	0.00045	0.00032	5e-05	0.00035	3
13242	-6e-05	8e-05	7e-05	7e-05	0.00045	0.00032	5e-05	0.00035	3
13243	-6e-05	8e-05	7e-05	7e-05	0.00045	0.00032	5e-05	0.00035	3
13244	-6e-05	8e-05	7e-05	7e-05	0.00045	0.00032	5e-05	0.00035	3
13245	-6e-05	8e-05	7e-05	7e-05	0.00045	0.00032	5e-05	0.00035	3
13246	-6e-05	8e-05	7e-05	7e-05	0.00045	0.00032	5e-05	0.00035	3
13247	-6e-05	8e-05	7e-05	7e-05	0.00045	0.00032	5e-05	0.00035	3
13248	-6e-05	8e-05	7e-05	7e-05	0.00045	0.00032	5e-05	0.00035	3
13249	-6e-05	8e-05	7e-05	7e-05	0.00045	0.00032	5e-05	0.00035	3
13250	-6e-05	8e-05	7e-05	7e-05	0.00045	0.00032	5e-05	0.00035	3
13251	-6e-05	8e-05	7e-05	7e-05	0.00045	0.00032	5e-05	0.00035	3
13252	-6e-05	8e-05	7e-05	7e-05	0.00045	0.00032	5e-05	0.00035	3
13253	0.0002	0.00011	-1e-05	-4e-05	-0.00017	-0.0004	0.00027	-0.00062	3
13254	0.0002	0.00011	-1e-05	-4e-05	-0.00017	-0.0004	0.00027	-0.00062	3
13255	0.0002	0.00011	-1e-05	-4e-05	-0.00017	-0.0004	0.00027	-0.00062	3
13256	0.0002	0.00011	-1e-05	-4e-05	-0.00017	-0.0004	0.00027	-0.00062	3
13257	0.0002	0.00011	-1e-05	-4e-05	-0.00017	-0.0004	0.00027	-0.00062	3
13258	0.0002	0.00011	-1e-05	-4e-05	-0.00017	-0.0004	0.00027	-0.00062	3
13259	0.0002	0.00011	-1e-05	-4e-05	-0.00017	-0.0004	0.00027	-0.00062	3
13260	0.0002	0.00011	-1e-05	-4e-05	-0.00017	-0.0004	0.00027	-0.00062	3
13261	0.0002	0.00011	-1e-05	-4e-05	-0.00017	-0.0004	0.00027	-0.00062	3
13262	0.0002	0.00011	-1e-05	-4e-05	-0.00017	-0.0004	0.00027	-0.00062	3
13263	0.0002	0.00011	-1e-05	-4e-05	-0.00017	-0.0004	0.00027	-0.00062	3
13264	0.0002	0.00011	-1e-05	-4e-05	-0.00017	-0.0004	0.00027	-0.00062	3
13265	0.0002	0.00011	-1e-05	-4e-05	-0.00017	-0.0004	0.00027	-0.00062	3
13266	0.0002	0.00011	-1e-05	-4e-05	-0.00017	-0.0004	0.00027	-0.00062	3
13267	0.0002	0.00011	-1e-05	-4e-05	-0.00017	-0.0004	0.00027	-0.00062	3
13268	0.0002	0.00011	-1e-05	-4e-05	-0.00017	-0.0004	0.00027	-0.00062	3
13269	0.0002	0.00011	-1e-05	-4e-05	-0.00017	-0.0004	0.00027	-0.00062	3
13270	0.0002	0.00011	-1e-05	-4e-05	-0.00017	-0.0004	0.00027	-0.00062	3
13271	0.0002	0.00011	-1e-05	-4e-05	-0.00017	-0.0004	0.00027	-0.00062	3
13272	0.0002	0.00011	-1e-05	-4e-05	-0.00017	-0.0004	0.00027	-0.00062	3
13273	0.0002	0.00011	-1e-05	-4e-05	-0.00017	-0.0004	0.00027	-0.00062	3
13274	0.0002	0.00011	-1e-05	-4e-05	-0.00017	-0.0004	0.00027	-0.00062	3
13275	0.0002	0.00011	-1e-05	-4e-05	-0.00017	-0.0004	0.00027	-0.00062	3
13276	-0.00014	0.00022	0	-5e-05	0.0002	0.00076	5e-05	-0.00071	3
13277	0.00029	0.00036	9e-05	9e-05	6e-05	0.00023	-0.00029	0.00067	3
13279	0.00029	0.00036	9e-05	9e-05	6e-05	0.00023	-0.00029	0.00067	3
13280	0.00029	0.00036	9e-05	9e-05	6e-05	0.00023	-0.00029	0.00067	3
13281	0.00029	0.00036	9e-05	9e-05	6e-05	0.00023	-0.00029	0.00067	3
13282	0.00029	0.00036	9e-05	9e-05	6e-05	0.00023	-0.00029	0.00067	3
13283	0.00029	0.00036	9e-05	9e-05	6e-05	0.00023	-0.00029	0.00067	3
13284	0.00029	0.00036	9e-05	9e-05	6e-05	0.00023	-0.00029	0.00067	3
13285	0.00029	0.00036	9e-05	9e-05	6e-05	0.00023	-0.00029	0.00067	3
13286	0.00029	0.00036	9e-05	9e-05	6e-05	0.00023	-0.00029	0.00067	3
13288	0.00029	0.00036	9e-05	9e-05	6e-05	0.00023	-0.00029	0.00067	3
13289	0.00029	0.00036	9e-05	9e-05	6e-05	0.00023	-0.00029	0.00067	3
13290	0.00041	0.00056	4e-05	6e-05	-7e-05	-7e-05	9e-05	-7e-05	3
13291	-0.00056	-0.00031	-0.00011	-6e-05	-0.00037	-0.00062	-4e-05	-0.00066	3
13292	-0.00056	-0.00031	-0.00011	-6e-05	-0.00037	-0.00062	-4e-05	-0.00066	3
13293	-0.00056	-0.00031	-0.00011	-6e-05	-0.00037	-0.00062	-4e-05	-0.00066	3
13294	-0.00056	-0.00031	-0.00011	-6e-05	-0.00037	-0.00062	-4e-05	-0.00066	3
13295	-0.00056	-0.00031	-0.00011	-6e-05	-0.00037	-0.00062	-4e-05	-0.00066	3
13296	-0.00056	-0.00031	-0.00011	-6e-05	-0.00037	-0.00062	-4e-05	-0.00066	3
13297	-0.00056	-0.00031	-0.00011	-6e-05	-0.00037	-0.00062	-4e-05	-0.00066	3
13298	-0.00056	-0.00031	-0.00011	-6e-05	-0.00037	-0.00062	-4e-05	-0.00066	3
13299	-0.00056	-0.00031	-0.00011	-6e-05	-0.00037	-0.00062	-4e-05	-0.00066	3
13300	-0.00056	-0.00031	-0.00011	-6e-05	-0.00037	-0.00062	-4e-05	-0.00066	3
13301	-0.00056	-0.00031	-0.00011	-6e-05	-0.00037	-0.00062	-4e-05	-0.00066	3
13302	-0.00056	-0.00031	-0.00011	-6e-05	-0.00037	-0.00062	-4e-05	-0.00066	3
13303	-0.00056	-0.00031	-0.00011	-6e-05	-0.00037	-0.00062	-4e-05	-0.00066	3
13304	-0.00056	-0.00031	-0.00011	-6e-05	-0.00037	-0.00062	-4e-05	-0.00066	3
13305	-0.00056	-0.00031	-0.00011	-6e-05	-0.00037	-0.00062	-4e-05	-0.00066	3
13306	-0.00056	-0.00031	-0.00011	-6e-05	-0.00037	-0.00062	-4e-05	-0.00066	3
13307	-0.00056	-0.00031	-0.00011	-6e-05	-0.00037	-0.00062	-4e-05	-0.00066	3
13308	-0.00056	-0.00031	-0.00011	-6e-05	-0.00037	-0.00062	-4e-05	-0.00066	3
13309	-0.00056	-0.00031	-0.00011	-6e-05	-0.00037	-0.00062	-4e-05	-0.00066	3
13310	-0.00056	-0.00031	-0.00011	-6e-05	-0.00037	-0.00062	-4e-05	-0.00066	3
13311	-0.00056	-0.00031	-0.00011	-6e-05	-0.00037	-0.00062	-4e-05	-0.00066	3
13312	0.00016	2e-05	-7e-05	-4e-05	0.00047	0.00015	-0.0002	0.00023	3
13313	-0.00011	0.00013	4e-05	6e-05	0.00021	0.00014	0.00025	0.00084	3
13314	-0.00011	0.00013	4e-05	6e-05	0.00021	0.00014	0.00025	0.00084	3
13315	-0.00011	0.00013	4e-05	6e-05	0.00021	0.00014	0.00025	0.00084	3
13316	-0.00011	0.00013	4e-05	6e-05	0.00021	0.00014	0.00025	0.00084	3
13317	-0.00011	0.00013	4e-05	6e-05	0.00021	0.00014	0.00025	0.00084	3
13318	-0.00011	0.00013	4e-05	6e-05	0.00021	0.00014	0.00025	0.00084	3
13319	-0.00011	0.00013	4e-05	6e-05	0.00021	0.00014	0.00025	0.00084	3
13320	-0.00011	0.00013	4e-05	6e-05	0.00021	0.00014	0.00025	0.00084	3
13321	-0.00011	0.00013	4e-05	6e-05	0.00021	0.00014	0.00025	0.00084	3
13322	-0.00011	0.00013	4e-05	6e-05	0.00021	0.00014	0.00025	0.00084	3
13323	-0.00011	0.00013	4e-05	6e-05	0.00021	0.00014	0.00025	0.00084	3
13324	-0.00011	0.00013	4e-05	6e-05	0.00021	0.00014	0.00025	0.00084	3
13325	-0.00011	0.00013	4e-05	6e-05	0.00021	0.00014	0.00025	0.00084	3
13326	-0.00011	0.00013	4e-05	6e-05	0.00021	0.00014	0.00025	0.00084	3
13327	-0.00011	0.00013	4e-05	6e-05	0.00021	0.00014	0.00025	0.00084	3
13328	-0.00011	0.00013	4e-05	6e-05	0.00021	0.00014	0.00025	0.00084	3
13329	-0.00011	0.00013	4e-05	6e-05	0.00021	0.00014	0.00025	0.00084	3
13330	-0.00011	0.00013	4e-05	6e-05	0.00021	0.00014	0.00025	0.00084	3
13331	-0.00011	0.00013	4e-05	6e-05	0.00021	0.00014	0.00025	0.00084	3
13332	-0.00011	0.00013	4e-05	6e-05	0.00021	0.00014	0.00025	0.00084	3
13333	-0.00011	0.00013	4e-05	6e-05	0.00021	0.00014	0.00025	0.00084	3
13334	-0.00011	0.00013	4e-05	6e-05	0.00021	0.00014	0.00025	0.00084	3
13335	-0.00011	0.00013	4e-05	6e-05	0.00021	0.00014	0.00025	0.00084	3
13336	0.00015	0.00016	-1e-05	-1e-05	0.00012	-0.00025	-0.00014	-0.00036	3
13338	-0.00026	0.00021	-2e-05	0	0.00047	0.00078	0.00021	-9e-05	3
13339	-0.00026	0.00021	-2e-05	0	0.00047	0.00078	0.00021	-9e-05	3
13340	-0.00026	0.00021	-2e-05	0	0.00047	0.00078	0.00021	-9e-05	3
13341	-0.00026	0.00021	-2e-05	0	0.00047	0.00078	0.00021	-9e-05	3
13342	-0.00026	0.00021	-2e-05	0	0.00047	0.00078	0.00021	-9e-05	3
13343	-0.00026	0.00021	-2e-05	0	0.00047	0.00078	0.00021	-9e-05	3
13344	-0.00026	0.00021	-2e-05	0	0.00047	0.00078	0.00021	-9e-05	3
13345	-0.00026	0.00021	-2e-05	0	0.00047	0.00078	0.00021	-9e-05	3
13346	-0.00026	0.00021	-2e-05	0	0.00047	0.00078	0.00021	-9e-05	3
13347	-0.00026	0.00021	-2e-05	0	0.00047	0.00078	0.00021	-9e-05	3
13348	-0.00026	0.00021	-2e-05	0	0.00047	0.00078	0.00021	-9e-05	3
13349	-0.00026	0.00021	-2e-05	0	0.00047	0.00078	0.00021	-9e-05	3
13350	-0.00019	0.0005	1e-05	-4e-05	0.00037	0.00039	0.00027	-0.00078	3
13351	0.00018	-0.00011	4e-05	2e-05	0.00027	5e-05	-0.00034	-0.00079	3
13352	0.00018	-0.00011	4e-05	2e-05	0.00027	5e-05	-0.00034	-0.00079	3
13353	0.00018	-0.00011	4e-05	2e-05	0.00027	5e-05	-0.00034	-0.00079	3
13354	0.00018	-0.00011	4e-05	2e-05	0.00027	5e-05	-0.00034	-0.00079	3
13355	0.00018	-0.00011	4e-05	2e-05	0.00027	5e-05	-0.00034	-0.00079	3
13356	0.00018	-0.00011	4e-05	2e-05	0.00027	5e-05	-0.00034	-0.00079	3
13357	0.00018	-0.00011	4e-05	2e-05	0.00027	5e-05	-0.00034	-0.00079	3
13358	0.00018	-0.00011	4e-05	2e-05	0.00027	5e-05	-0.00034	-0.00079	3
13359	0.00018	-0.00011	4e-05	2e-05	0.00027	5e-05	-0.00034	-0.00079	3
13360	0.00018	-0.00011	4e-05	2e-05	0.00027	5e-05	-0.00034	-0.00079	3
13361	0.00018	-0.00011	4e-05	2e-05	0.00027	5e-05	-0.00034	-0.00079	3
13362	0.00018	-0.00011	4e-05	2e-05	0.00027	5e-05	-0.00034	-0.00079	3
13363	0.00018	-0.00011	4e-05	2e-05	0.00027	5e-05	-0.00034	-0.00079	3
13364	0.00018	-0.00011	4e-05	2e-05	0.00027	5e-05	-0.00034	-0.00079	3
13365	0.00018	-0.00011	4e-05	2e-05	0.00027	5e-05	-0.00034	-0.00079	3
13366	0.00018	-0.00011	4e-05	2e-05	0.00027	5e-05	-0.00034	-0.00079	3
13367	0.00018	-0.00011	4e-05	2e-05	0.00027	5e-05	-0.00034	-0.00079	3
13368	0.00018	-0.00011	4e-05	2e-05	0.00027	5e-05	-0.00034	-0.00079	3
13369	0.00018	-0.00011	4e-05	2e-05	0.00027	5e-05	-0.00034	-0.00079	3
13370	0.00018	-0.00011	4e-05	2e-05	0.00027	5e-05	-0.00034	-0.00079	3
13371	0.00018	-0.00011	4e-05	2e-05	0.00027	5e-05	-0.00034	-0.00079	3
13372	0.00016	0.00026	3e-05	0	0.0003	0.00022	5e-05	0.00122	3
13373	0.00019	-0.00013	-1e-05	-3e-05	-1e-05	-0.00067	-0.00038	-0.00063	3
13374	0.00019	-0.00013	-1e-05	-3e-05	-1e-05	-0.00067	-0.00038	-0.00063	3
13375	0.00019	-0.00013	-1e-05	-3e-05	-1e-05	-0.00067	-0.00038	-0.00063	3
13376	0.00019	-0.00013	-1e-05	-3e-05	-1e-05	-0.00067	-0.00038	-0.00063	3
13377	0.00019	-0.00013	-1e-05	-3e-05	-1e-05	-0.00067	-0.00038	-0.00063	3
13378	0.00019	-0.00013	-1e-05	-3e-05	-1e-05	-0.00067	-0.00038	-0.00063	3
13379	0.00019	-0.00013	-1e-05	-3e-05	-1e-05	-0.00067	-0.00038	-0.00063	3
13381	0.00019	-0.00013	-1e-05	-3e-05	-1e-05	-0.00067	-0.00038	-0.00063	3
13382	0.00019	-0.00013	-1e-05	-3e-05	-1e-05	-0.00067	-0.00038	-0.00063	3
13383	0.00019	-0.00013	-1e-05	-3e-05	-1e-05	-0.00067	-0.00038	-0.00063	3
13384	0.00019	-0.00013	-1e-05	-3e-05	-1e-05	-0.00067	-0.00038	-0.00063	3
13385	0.00019	-0.00013	-1e-05	-3e-05	-1e-05	-0.00067	-0.00038	-0.00063	3
13386	0.00019	-0.00013	-1e-05	-3e-05	-1e-05	-0.00067	-0.00038	-0.00063	3
13388	0.00019	-0.00013	-1e-05	-3e-05	-1e-05	-0.00067	-0.00038	-0.00063	3
13389	0.00019	-0.00013	-1e-05	-3e-05	-1e-05	-0.00067	-0.00038	-0.00063	3
13390	0.00019	-0.00013	-1e-05	-3e-05	-1e-05	-0.00067	-0.00038	-0.00063	3
13391	0.00019	-0.00013	-1e-05	-3e-05	-1e-05	-0.00067	-0.00038	-0.00063	3
13392	0.00019	-0.00013	-1e-05	-3e-05	-1e-05	-0.00067	-0.00038	-0.00063	3
13393	0.00019	-0.00013	-1e-05	-3e-05	-1e-05	-0.00067	-0.00038	-0.00063	3
13394	0.00019	-0.00013	-1e-05	-3e-05	-1e-05	-0.00067	-0.00038	-0.00063	3
13395	0.00019	-0.00013	-1e-05	-3e-05	-1e-05	-0.00067	-0.00038	-0.00063	3
13396	8e-05	-0.00084	-0.0001	-8e-05	-0.00011	-0.00095	-0.00015	1e-05	3
13397	8e-05	-0.00084	-0.0001	-8e-05	-0.00011	-0.00095	-0.00015	1e-05	3
13398	8e-05	-0.00084	-0.0001	-8e-05	-0.00011	-0.00095	-0.00015	1e-05	3
13399	8e-05	-0.00084	-0.0001	-8e-05	-0.00011	-0.00095	-0.00015	1e-05	3
13400	8e-05	-0.00084	-0.0001	-8e-05	-0.00011	-0.00095	-0.00015	1e-05	3
13401	8e-05	-0.00084	-0.0001	-8e-05	-0.00011	-0.00095	-0.00015	1e-05	3
13402	8e-05	-0.00084	-0.0001	-8e-05	-0.00011	-0.00095	-0.00015	1e-05	3
13403	8e-05	-0.00084	-0.0001	-8e-05	-0.00011	-0.00095	-0.00015	1e-05	3
13404	8e-05	-0.00084	-0.0001	-8e-05	-0.00011	-0.00095	-0.00015	1e-05	3
13405	8e-05	-0.00084	-0.0001	-8e-05	-0.00011	-0.00095	-0.00015	1e-05	3
13406	8e-05	-0.00084	-0.0001	-8e-05	-0.00011	-0.00095	-0.00015	1e-05	3
13407	8e-05	-0.00084	-0.0001	-8e-05	-0.00011	-0.00095	-0.00015	1e-05	3
13408	8e-05	-0.00084	-0.0001	-8e-05	-0.00011	-0.00095	-0.00015	1e-05	3
13409	8e-05	-0.00084	-0.0001	-8e-05	-0.00011	-0.00095	-0.00015	1e-05	3
13410	0.00035	-0.00043	-9e-05	-6e-05	-0.00059	-0.00034	-0.0002	-0.00025	3
13411	0.00012	-0.00011	-3e-05	-2e-05	0.00025	-0.00044	0.00026	-0.0008	3
13412	0.00012	-0.00011	-3e-05	-2e-05	0.00025	-0.00044	0.00026	-0.0008	3
13413	0.00012	-0.00011	-3e-05	-2e-05	0.00025	-0.00044	0.00026	-0.0008	3
13414	0.00012	-0.00011	-3e-05	-2e-05	0.00025	-0.00044	0.00026	-0.0008	3
13415	0.00012	-0.00011	-3e-05	-2e-05	0.00025	-0.00044	0.00026	-0.0008	3
13416	0.00012	-0.00011	-3e-05	-2e-05	0.00025	-0.00044	0.00026	-0.0008	3
13417	0.00012	-0.00011	-3e-05	-2e-05	0.00025	-0.00044	0.00026	-0.0008	3
13418	0.00012	-0.00011	-3e-05	-2e-05	0.00025	-0.00044	0.00026	-0.0008	3
13419	0.00012	-0.00011	-3e-05	-2e-05	0.00025	-0.00044	0.00026	-0.0008	3
13420	0.00012	-0.00011	-3e-05	-2e-05	0.00025	-0.00044	0.00026	-0.0008	3
