29263	6e-05	7e-05	0.00013	0.00029	0.0007	0.00047	0.00076	0.00086	6
29264	6e-05	7e-05	0.00013	0.00029	0.0007	0.00047	0.00076	0.00086	6
29265	6e-05	7e-05	0.00013	0.00029	0.0007	0.00047	0.00076	0.00086	6
29266	6e-05	7e-05	0.00013	0.00029	0.0007	0.00047	0.00076	0.00086	6
29267	6e-05	7e-05	0.00013	0.00029	0.0007	0.00047	0.00076	0.00086	6
29268	6e-05	7e-05	0.00013	0.00029	0.0007	0.00047	0.00076	0.00086	6
29269	6e-05	7e-05	0.00013	0.00029	0.0007	0.00047	0.00076	0.00086	6
29270	6e-05	7e-05	0.00013	0.00029	0.0007	0.00047	0.00076	0.00086	6
29271	6e-05	7e-05	0.00013	0.00029	0.0007	0.00047	0.00076	0.00086	6
29272	0.00015	2e-05	0	0.00016	0.00059	0.00055	0.00047	0.00061	6
29273	-0.00017	-0.00012	-0.00018	-0.00034	-0.00127	-0.00128	-0.00101	-0.00074	6
29274	-0.00017	-0.00012	-0.00018	-0.00034	-0.00127	-0.00128	-0.00101	-0.00074	6
29275	-0.00017	-0.00012	-0.00018	-0.00034	-0.00127	-0.00128	-0.00101	-0.00074	6
29276	-0.00017	-0.00012	-0.00018	-0.00034	-0.00127	-0.00128	-0.00101	-0.00074	6
29277	-0.00017	-0.00012	-0.00018	-0.00034	-0.00127	-0.00128	-0.00101	-0.00074	6
29278	-0.00017	-0.00012	-0.00018	-0.00034	-0.00127	-0.00128	-0.00101	-0.00074	6
29279	-0.00017	-0.00012	-0.00018	-0.00034	-0.00127	-0.00128	-0.00101	-0.00074	6
29280	-0.00017	-0.00012	-0.00018	-0.00034	-0.00127	-0.00128	-0.00101	-0.00074	6
29281	-0.00017	-0.00012	-0.00018	-0.00034	-0.00127	-0.00128	-0.00101	-0.00074	6
29282	-0.00017	-0.00012	-0.00018	-0.00034	-0.00127	-0.00128	-0.00101	-0.00074	6
29283	-0.00017	-0.00012	-0.00018	-0.00034	-0.00127	-0.00128	-0.00101	-0.00074	6
29284	-0.00017	-0.00012	-0.00018	-0.00034	-0.00127	-0.00128	-0.00101	-0.00074	6
29285	-0.00017	-0.00012	-0.00018	-0.00034	-0.00127	-0.00128	-0.00101	-0.00074	6
29286	-0.00017	-0.00012	-0.00018	-0.00034	-0.00127	-0.00128	-0.00101	-0.00074	6
29288	-0.00017	-0.00012	-0.00018	-0.00034	-0.00127	-0.00128	-0.00101	-0.00074	6
29289	-0.00017	-0.00012	-0.00018	-0.00034	-0.00127	-0.00128	-0.00101	-0.00074	6
29290	-0.00017	-0.00012	-0.00018	-0.00034	-0.00127	-0.00128	-0.00101	-0.00074	6
29291	-0.00017	-0.00012	-0.00018	-0.00034	-0.00127	-0.00128	-0.00101	-0.00074	6
29292	-0.00017	-0.00012	-0.00018	-0.00034	-0.00127	-0.00128	-0.00101	-0.00074	6
29293	-0.00017	-0.00012	-0.00018	-0.00034	-0.00127	-0.00128	-0.00101	-0.00074	6
29294	-0.00017	-0.00012	-0.00018	-0.00034	-0.00127	-0.00128	-0.00101	-0.00074	6
29295	-3e-05	2e-05	2e-05	8e-05	0.00095	-0.00054	0.00021	-0.00085	6
29296	-0.00017	-2e-05	-3e-05	-0.00012	-0.00026	-0.00124	-0.00059	-0.00045	6
29297	-0.00017	-2e-05	-3e-05	-0.00012	-0.00026	-0.00124	-0.00059	-0.00045	6
29298	-0.00017	-2e-05	-3e-05	-0.00012	-0.00026	-0.00124	-0.00059	-0.00045	6
29299	-0.00017	-2e-05	-3e-05	-0.00012	-0.00026	-0.00124	-0.00059	-0.00045	6
29300	-0.00017	-2e-05	-3e-05	-0.00012	-0.00026	-0.00124	-0.00059	-0.00045	6
29301	-0.00017	-2e-05	-3e-05	-0.00012	-0.00026	-0.00124	-0.00059	-0.00045	6
29302	-0.00017	-2e-05	-3e-05	-0.00012	-0.00026	-0.00124	-0.00059	-0.00045	6
29303	-0.00017	-2e-05	-3e-05	-0.00012	-0.00026	-0.00124	-0.00059	-0.00045	6
29304	-0.00017	-2e-05	-3e-05	-0.00012	-0.00026	-0.00124	-0.00059	-0.00045	6
29305	-0.00017	-2e-05	-3e-05	-0.00012	-0.00026	-0.00124	-0.00059	-0.00045	6
29306	-0.00017	-2e-05	-3e-05	-0.00012	-0.00026	-0.00124	-0.00059	-0.00045	6
29307	-0.00017	-2e-05	-3e-05	-0.00012	-0.00026	-0.00124	-0.00059	-0.00045	6
29308	-0.00017	-2e-05	-3e-05	-0.00012	-0.00026	-0.00124	-0.00059	-0.00045	6
29309	-0.00017	-2e-05	-3e-05	-0.00012	-0.00026	-0.00124	-0.00059	-0.00045	6
29310	-0.00017	-2e-05	-3e-05	-0.00012	-0.00026	-0.00124	-0.00059	-0.00045	6
29311	-0.00017	-2e-05	-3e-05	-0.00012	-0.00026	-0.00124	-0.00059	-0.00045	6
29312	-0.00017	-2e-05	-3e-05	-0.00012	-0.00026	-0.00124	-0.00059	-0.00045	6
29313	-0.00017	-2e-05	-3e-05	-0.00012	-0.00026	-0.00124	-0.00059	-0.00045	6
29314	-0.00017	-2e-05	-3e-05	-0.00012	-0.00026	-0.00124	-0.00059	-0.00045	6
29315	-0.00017	-2e-05	-3e-05	-0.00012	-0.00026	-0.00124	-0.00059	-0.00045	6
29316	-0.00017	-2e-05	-3e-05	-0.00012	-0.00026	-0.00124	-0.00059	-0.00045	6
29317	-3e-05	-6e-05	-7e-05	-1e-05	0.00073	-0.00049	5e-05	-8e-05	6
29318	-0.00028	-0.00012	-9e-05	-0.00017	-0.00059	-0.00098	-0.0006	-0.00128	6
29319	-0.00028	-0.00012	-9e-05	-0.00017	-0.00059	-0.00098	-0.0006	-0.00128	6
29320	-0.00028	-0.00012	-9e-05	-0.00017	-0.00059	-0.00098	-0.0006	-0.00128	6
29321	-0.00028	-0.00012	-9e-05	-0.00017	-0.00059	-0.00098	-0.0006	-0.00128	6
29322	-0.00028	-0.00012	-9e-05	-0.00017	-0.00059	-0.00098	-0.0006	-0.00128	6
29323	-0.00028	-0.00012	-9e-05	-0.00017	-0.00059	-0.00098	-0.0006	-0.00128	6
29324	-0.00028	-0.00012	-9e-05	-0.00017	-0.00059	-0.00098	-0.0006	-0.00128	6
29325	-0.00028	-0.00012	-9e-05	-0.00017	-0.00059	-0.00098	-0.0006	-0.00128	6
29326	-0.00028	-0.00012	-9e-05	-0.00017	-0.00059	-0.00098	-0.0006	-0.00128	6
29327	-0.00028	-0.00012	-9e-05	-0.00017	-0.00059	-0.00098	-0.0006	-0.00128	6
29328	-0.00028	-0.00012	-9e-05	-0.00017	-0.00059	-0.00098	-0.0006	-0.00128	6
29329	-0.00028	-0.00012	-9e-05	-0.00017	-0.00059	-0.00098	-0.0006	-0.00128	6
29330	-0.00028	-0.00012	-9e-05	-0.00017	-0.00059	-0.00098	-0.0006	-0.00128	6
29331	-0.00028	-0.00012	-9e-05	-0.00017	-0.00059	-0.00098	-0.0006	-0.00128	6
29332	-0.00012	-3e-05	-3e-05	-0.00011	-0.00044	-0.00012	-9e-05	-0.0008	6
29333	-0.00028	-5e-05	-8e-05	-5e-05	0.00048	-0.0005	-7e-05	-0.00059	6
29334	-0.00028	-5e-05	-8e-05	-5e-05	0.00048	-0.0005	-7e-05	-0.00059	6
29335	-0.00028	-5e-05	-8e-05	-5e-05	0.00048	-0.0005	-7e-05	-0.00059	6
29336	-0.00028	-5e-05	-8e-05	-5e-05	0.00048	-0.0005	-7e-05	-0.00059	6
29338	-0.00028	-5e-05	-8e-05	-5e-05	0.00048	-0.0005	-7e-05	-0.00059	6
29339	-0.00028	-5e-05	-8e-05	-5e-05	0.00048	-0.0005	-7e-05	-0.00059	6
29340	-0.00028	-5e-05	-8e-05	-5e-05	0.00048	-0.0005	-7e-05	-0.00059	6
29341	-0.00028	-5e-05	-8e-05	-5e-05	0.00048	-0.0005	-7e-05	-0.00059	6
29342	-0.00028	-5e-05	-8e-05	-5e-05	0.00048	-0.0005	-7e-05	-0.00059	6
29343	-0.00028	-5e-05	-8e-05	-5e-05	0.00048	-0.0005	-7e-05	-0.00059	6
29344	-0.00028	-5e-05	-8e-05	-5e-05	0.00048	-0.0005	-7e-05	-0.00059	6
29345	-0.00028	-5e-05	-8e-05	-5e-05	0.00048	-0.0005	-7e-05	-0.00059	6
29346	-0.00028	-5e-05	-8e-05	-5e-05	0.00048	-0.0005	-7e-05	-0.00059	6
29347	-0.00028	-5e-05	-8e-05	-5e-05	0.00048	-0.0005	-7e-05	-0.00059	6
29348	-0.00028	-5e-05	-8e-05	-5e-05	0.00048	-0.0005	-7e-05	-0.00059	6
29349	-0.00028	-5e-05	-8e-05	-5e-05	0.00048	-0.0005	-7e-05	-0.00059	6
29350	-0.00028	-5e-05	-8e-05	-5e-05	0.00048	-0.0005	-7e-05	-0.00059	6
29351	-0.00028	-5e-05	-8e-05	-5e-05	0.00048	-0.0005	-7e-05	-0.00059	6
29352	-0.00028	-5e-05	-8e-05	-5e-05	0.00048	-0.0005	-7e-05	-0.00059	6
29353	-0.00028	-5e-05	-8e-05	-5e-05	0.00048	-0.0005	-7e-05	-0.00059	6
29354	-0.00028	-5e-05	-8e-05	-5e-05	0.00048	-0.0005	-7e-05	-0.00059	6
29355	-1e-05	0.00011	0.00014	0.00026	0.00066	0.00081	0.00079	-0.0004	6
29356	-9e-05	-7e-05	-7e-05	-0.00011	-0.00064	-0.00016	-0.00028	-0.00063	6
29357	-9e-05	-7e-05	-7e-05	-0.00011	-0.00064	-0.00016	-0.00028	-0.00063	6
29358	-9e-05	-7e-05	-7e-05	-0.00011	-0.00064	-0.00016	-0.00028	-0.00063	6
29359	-9e-05	-7e-05	-7e-05	-0.00011	-0.00064	-0.00016	-0.00028	-0.00063	6
29360	-9e-05	-7e-05	-7e-05	-0.00011	-0.00064	-0.00016	-0.00028	-0.00063	6
29361	-9e-05	-7e-05	-7e-05	-0.00011	-0.00064	-0.00016	-0.00028	-0.00063	6
29362	-9e-05	-7e-05	-7e-05	-0.00011	-0.00064	-0.00016	-0.00028	-0.00063	6
29363	-9e-05	-7e-05	-7e-05	-0.00011	-0.00064	-0.00016	-0.00028	-0.00063	6
29364	-9e-05	-7e-05	-7e-05	-0.00011	-0.00064	-0.00016	-0.00028	-0.00063	6
29365	-9e-05	-7e-05	-7e-05	-0.00011	-0.00064	-0.00016	-0.00028	-0.00063	6
29366	-9e-05	-7e-05	-7e-05	-0.00011	-0.00064	-0.00016	-0.00028	-0.00063	6
29367	-9e-05	-7e-05	-7e-05	-0.00011	-0.00064	-0.00016	-0.00028	-0.00063	6
29368	-9e-05	-7e-05	-7e-05	-0.00011	-0.00064	-0.00016	-0.00028	-0.00063	6
29369	-9e-05	-7e-05	-7e-05	-0.00011	-0.00064	-0.00016	-0.00028	-0.00063	6
29370	-9e-05	-7e-05	-7e-05	-0.00011	-0.00064	-0.00016	-0.00028	-0.00063	6
29371	-9e-05	-7e-05	-7e-05	-0.00011	-0.00064	-0.00016	-0.00028	-0.00063	6
29372	-9e-05	-7e-05	-7e-05	-0.00011	-0.00064	-0.00016	-0.00028	-0.00063	6
29373	-9e-05	-7e-05	-7e-05	-0.00011	-0.00064	-0.00016	-0.00028	-0.00063	6
29374	-9e-05	-7e-05	-7e-05	-0.00011	-0.00064	-0.00016	-0.00028	-0.00063	6
29375	-9e-05	-7e-05	-7e-05	-0.00011	-0.00064	-0.00016	-0.00028	-0.00063	6
29376	-9e-05	-7e-05	-7e-05	-0.00011	-0.00064	-0.00016	-0.00028	-0.00063	6
29377	1e-05	6e-05	2e-05	3e-05	0.00019	0.00023	0.00027	0.0009	6
29378	-0.00017	4e-05	2e-05	1e-05	0.00015	0.0011	0.0005	0.0002	6
29379	-0.00017	4e-05	2e-05	1e-05	0.00015	0.0011	0.0005	0.0002	6
29380	-0.00017	4e-05	2e-05	1e-05	0.00015	0.0011	0.0005	0.0002	6
29381	-0.00017	4e-05	2e-05	1e-05	0.00015	0.0011	0.0005	0.0002	6
29382	-0.00017	4e-05	2e-05	1e-05	0.00015	0.0011	0.0005	0.0002	6
29383	-0.00017	4e-05	2e-05	1e-05	0.00015	0.0011	0.0005	0.0002	6
29384	-0.00017	4e-05	2e-05	1e-05	0.00015	0.0011	0.0005	0.0002	6
29385	-0.00017	4e-05	2e-05	1e-05	0.00015	0.0011	0.0005	0.0002	6
29386	-0.00017	4e-05	2e-05	1e-05	0.00015	0.0011	0.0005	0.0002	6
29388	-0.00017	4e-05	2e-05	1e-05	0.00015	0.0011	0.0005	0.0002	6
29389	-0.00017	4e-05	2e-05	1e-05	0.00015	0.0011	0.0005	0.0002	6
29390	-0.00017	4e-05	2e-05	1e-05	0.00015	0.0011	0.0005	0.0002	6
29391	-0.00017	4e-05	2e-05	1e-05	0.00015	0.0011	0.0005	0.0002	6
29392	0.00019	0.0001	0.00016	0.0001	-0.00103	0.00074	0.00043	0.00038	6
29393	9e-05	4e-05	3e-05	-8e-05	-0.00069	0.00031	0.00024	0.00091	6
29394	9e-05	4e-05	3e-05	-8e-05	-0.00069	0.00031	0.00024	0.00091	6
29395	9e-05	4e-05	3e-05	-8e-05	-0.00069	0.00031	0.00024	0.00091	6
29396	9e-05	4e-05	3e-05	-8e-05	-0.00069	0.00031	0.00024	0.00091	6
29397	9e-05	4e-05	3e-05	-8e-05	-0.00069	0.00031	0.00024	0.00091	6
29398	9e-05	4e-05	3e-05	-8e-05	-0.00069	0.00031	0.00024	0.00091	6
29399	9e-05	4e-05	3e-05	-8e-05	-0.00069	0.00031	0.00024	0.00091	6
29400	9e-05	4e-05	3e-05	-8e-05	-0.00069	0.00031	0.00024	0.00091	6
29401	9e-05	4e-05	3e-05	-8e-05	-0.00069	0.00031	0.00024	0.00091	6
29402	9e-05	4e-05	3e-05	-8e-05	-0.00069	0.00031	0.00024	0.00091	6
29403	9e-05	4e-05	3e-05	-8e-05	-0.00069	0.00031	0.00024	0.00091	6
29404	9e-05	4e-05	3e-05	-8e-05	-0.00069	0.00031	0.00024	0.00091	6
29405	9e-05	4e-05	3e-05	-8e-05	-0.00069	0.00031	0.00024	0.00091	6
29406	9e-05	4e-05	3e-05	-8e-05	-0.00069	0.00031	0.00024	0.00091	6
29407	9e-05	4e-05	3e-05	-8e-05	-0.00069	0.00031	0.00024	0.00091	6
29408	9e-05	4e-05	3e-05	-8e-05	-0.00069	0.00031	0.00024	0.00091	6
29409	9e-05	4e-05	3e-05	-8e-05	-0.00069	0.00031	0.00024	0.00091	6
29410	9e-05	4e-05	3e-05	-8e-05	-0.00069	0.00031	0.00024	0.00091	6
29411	9e-05	4e-05	3e-05	-8e-05	-0.00069	0.00031	0.00024	0.00091	6
29412	9e-05	4e-05	3e-05	-8e-05	-0.00069	0.00031	0.00024	0.00091	6
29413	9e-05	4e-05	3e-05	-8e-05	-0.00069	0.00031	0.00024	0.00091	6
29414	9e-05	4e-05	3e-05	-8e-05	-0.00069	0.00031	0.00024	0.00091	6
29415	5e-05	2e-05	2e-05	4e-05	-0.00025	-0.00041	0.0001	3e-05	6
29416	8e-05	-3e-05	-4e-05	6e-05	0.0006	-0.00081	9e-05	-0.00027	6
29417	8e-05	-3e-05	-4e-05	6e-05	0.0006	-0.00081	9e-05	-0.00027	6
29418	8e-05	-3e-05	-4e-05	6e-05	0.0006	-0.00081	9e-05	-0.00027	6
29419	8e-05	-3e-05	-4e-05	6e-05	0.0006	-0.00081	9e-05	-0.00027	6
29420	8e-05	-3e-05	-4e-05	6e-05	0.0006	-0.00081	9e-05	-0.00027	6
29421	8e-05	-3e-05	-4e-05	6e-05	0.0006	-0.00081	9e-05	-0.00027	6
29422	8e-05	-3e-05	-4e-05	6e-05	0.0006	-0.00081	9e-05	-0.00027	6
29423	8e-05	-3e-05	-4e-05	6e-05	0.0006	-0.00081	9e-05	-0.00027	6
29424	8e-05	-3e-05	-4e-05	6e-05	0.0006	-0.00081	9e-05	-0.00027	6
29425	8e-05	-3e-05	-4e-05	6e-05	0.0006	-0.00081	9e-05	-0.00027	6
29426	8e-05	-3e-05	-4e-05	6e-05	0.0006	-0.00081	9e-05	-0.00027	6
29427	8e-05	-3e-05	-4e-05	6e-05	0.0006	-0.00081	9e-05	-0.00027	6
29428	8e-05	-3e-05	-4e-05	6e-05	0.0006	-0.00081	9e-05	-0.00027	6
29429	8e-05	-3e-05	-4e-05	6e-05	0.0006	-0.00081	9e-05	-0.00027	6
29430	8e-05	-3e-05	-4e-05	6e-05	0.0006	-0.00081	9e-05	-0.00027	6
29431	8e-05	-3e-05	-4e-05	6e-05	0.0006	-0.00081	9e-05	-0.00027	6
29432	8e-05	-3e-05	-4e-05	6e-05	0.0006	-0.00081	9e-05	-0.00027	6
29433	8e-05	-3e-05	-4e-05	6e-05	0.0006	-0.00081	9e-05	-0.00027	6
29434	8e-05	-3e-05	-4e-05	6e-05	0.0006	-0.00081	9e-05	-0.00027	6
29435	8e-05	-3e-05	-4e-05	6e-05	0.0006	-0.00081	9e-05	-0.00027	6
29436	8e-05	-3e-05	-4e-05	6e-05	0.0006	-0.00081	9e-05	-0.00027	6
29438	-1e-05	-0.00015	-0.00018	-0.00021	0.00055	-0.00057	-0.00029	0.00018	6
29439	0.0002	3e-05	6e-05	0.00022	0.0008	0.00071	0.00041	0.0002	6
29440	0.0002	3e-05	6e-05	0.00022	0.0008	0.00071	0.00041	0.0002	6
29441	0.0002	3e-05	6e-05	0.00022	0.0008	0.00071	0.00041	0.0002	6
29442	0.0002	3e-05	6e-05	0.00022	0.0008	0.00071	0.00041	0.0002	6
29443	0.0002	3e-05	6e-05	0.00022	0.0008	0.00071	0.00041	0.0002	6
29444	0.0002	3e-05	6e-05	0.00022	0.0008	0.00071	0.00041	0.0002	6
29445	0.0002	3e-05	6e-05	0.00022	0.0008	0.00071	0.00041	0.0002	6
29446	0.0002	3e-05	6e-05	0.00022	0.0008	0.00071	0.00041	0.0002	6
29447	0.0002	3e-05	6e-05	0.00022	0.0008	0.00071	0.00041	0.0002	6
29448	0.0002	3e-05	6e-05	0.00022	0.0008	0.00071	0.00041	0.0002	6
29449	0.0002	3e-05	6e-05	0.00022	0.0008	0.00071	0.00041	0.0002	6
29450	0.0002	3e-05	6e-05	0.00022	0.0008	0.00071	0.00041	0.0002	6
29451	0.0002	3e-05	6e-05	0.00022	0.0008	0.00071	0.00041	0.0002	6
29452	-0.00011	3e-05	5e-05	7e-05	0.00062	0.00068	0.00039	0.00042	6
29453	6e-05	-0.00012	-0.00012	3e-05	0.00037	-4e-05	-0.00025	0.00053	6
29454	6e-05	-0.00012	-0.00012	3e-05	0.00037	-4e-05	-0.00025	0.00053	6
29455	6e-05	-0.00012	-0.00012	3e-05	0.00037	-4e-05	-0.00025	0.00053	6
29456	6e-05	-0.00012	-0.00012	3e-05	0.00037	-4e-05	-0.00025	0.00053	6
29457	6e-05	-0.00012	-0.00012	3e-05	0.00037	-4e-05	-0.00025	0.00053	6
29458	6e-05	-0.00012	-0.00012	3e-05	0.00037	-4e-05	-0.00025	0.00053	6
29459	6e-05	-0.00012	-0.00012	3e-05	0.00037	-4e-05	-0.00025	0.00053	6
29460	6e-05	-0.00012	-0.00012	3e-05	0.00037	-4e-05	-0.00025	0.00053	6
29461	6e-05	-0.00012	-0.00012	3e-05	0.00037	-4e-05	-0.00025	0.00053	6
29462	6e-05	-0.00012	-0.00012	3e-05	0.00037	-4e-05	-0.00025	0.00053	6
29463	6e-05	-0.00012	-0.00012	3e-05	0.00037	-4e-05	-0.00025	0.00053	6
29464	6e-05	-0.00012	-0.00012	3e-05	0.00037	-4e-05	-0.00025	0.00053	6
29465	6e-05	-0.00012	-0.00012	3e-05	0.00037	-4e-05	-0.00025	0.00053	6
29466	6e-05	-0.00012	-0.00012	3e-05	0.00037	-4e-05	-0.00025	0.00053	6
29467	6e-05	-0.00012	-0.00012	3e-05	0.00037	-4e-05	-0.00025	0.00053	6
29468	6e-05	-0.00012	-0.00012	3e-05	0.00037	-4e-05	-0.00025	0.00053	6
29469	6e-05	-0.00012	-0.00012	3e-05	0.00037	-4e-05	-0.00025	0.00053	6
29470	6e-05	-0.00012	-0.00012	3e-05	0.00037	-4e-05	-0.00025	0.00053	6
29471	6e-05	-0.00012	-0.00012	3e-05	0.00037	-4e-05	-0.00025	0.00053	6
29472	6e-05	-0.00012	-0.00012	3e-05	0.00037	-4e-05	-0.00025	0.00053	6
29473	6e-05	-0.00012	-0.00012	3e-05	0.00037	-4e-05	-0.00025	0.00053	6
29474	6e-05	-0.00012	-0.00012	3e-05	0.00037	-4e-05	-0.00025	0.00053	6
29475	-5e-05	-4e-05	-5e-05	3e-05	0.00045	0.00127	0.00014	-0.00024	6
29476	0.00013	0.00011	0.00012	0.00022	0.00045	0.00047	0.0006	0.00033	6
29477	0.00013	0.00011	0.00012	0.00022	0.00045	0.00047	0.0006	0.00033	6
29478	0.00013	0.00011	0.00012	0.00022	0.00045	0.00047	0.0006	0.00033	6
29479	0.00013	0.00011	0.00012	0.00022	0.00045	0.00047	0.0006	0.00033	6
29480	0.00013	0.00011	0.00012	0.00022	0.00045	0.00047	0.0006	0.00033	6
29481	0.00013	0.00011	0.00012	0.00022	0.00045	0.00047	0.0006	0.00033	6
29482	0.00013	0.00011	0.00012	0.00022	0.00045	0.00047	0.0006	0.00033	6
29483	0.00013	0.00011	0.00012	0.00022	0.00045	0.00047	0.0006	0.00033	6
29484	0.00013	0.00011	0.00012	0.00022	0.00045	0.00047	0.0006	0.00033	6
29485	0.00013	0.00011	0.00012	0.00022	0.00045	0.00047	0.0006	0.00033	6
29486	0.00013	0.00011	0.00012	0.00022	0.00045	0.00047	0.0006	0.00033	6
29488	0.00013	0.00011	0.00012	0.00022	0.00045	0.00047	0.0006	0.00033	6
29489	0.00013	0.00011	0.00012	0.00022	0.00045	0.00047	0.0006	0.00033	6
29490	0.00013	0.00011	0.00012	0.00022	0.00045	0.00047	0.0006	0.00033	6
29491	0.00013	0.00011	0.00012	0.00022	0.00045	0.00047	0.0006	0.00033	6
29492	0.00013	0.00011	0.00012	0.00022	0.00045	0.00047	0.0006	0.00033	6
29493	0.00013	0.00011	0.00012	0.00022	0.00045	0.00047	0.0006	0.00033	6
29494	0.00013	0.00011	0.00012	0.00022	0.00045	0.00047	0.0006	0.00033	6
29495	0.00013	0.00011	0.00012	0.00022	0.00045	0.00047	0.0006	0.00033	6
29496	0.00013	0.00011	0.00012	0.00022	0.00045	0.00047	0.0006	0.00033	6
29497	0.00013	0.00011	0.00012	0.00022	0.00045	0.00047	0.0006	0.00033	6
29498	7e-05	-1e-05	-6e-05	-0.00015	-0.00036	-0.00093	-0.00028	-5e-05	6
29499	7e-05	-1e-05	-6e-05	-0.00015	-0.00036	-0.00093	-0.00028	-5e-05	6
29500	7e-05	-1e-05	-6e-05	-0.00015	-0.00036	-0.00093	-0.00028	-5e-05	6
29501	7e-05	-1e-05	-6e-05	-0.00015	-0.00036	-0.00093	-0.00028	-5e-05	6
29502	7e-05	-1e-05	-6e-05	-0.00015	-0.00036	-0.00093	-0.00028	-5e-05	6
29503	7e-05	-1e-05	-6e-05	-0.00015	-0.00036	-0.00093	-0.00028	-5e-05	6
29504	7e-05	-1e-05	-6e-05	-0.00015	-0.00036	-0.00093	-0.00028	-5e-05	6
29505	7e-05	-1e-05	-6e-05	-0.00015	-0.00036	-0.00093	-0.00028	-5e-05	6
29506	7e-05	-1e-05	-6e-05	-0.00015	-0.00036	-0.00093	-0.00028	-5e-05	6
29507	7e-05	-1e-05	-6e-05	-0.00015	-0.00036	-0.00093	-0.00028	-5e-05	6
29508	7e-05	-1e-05	-6e-05	-0.00015	-0.00036	-0.00093	-0.00028	-5e-05	6
29509	7e-05	-1e-05	-6e-05	-0.00015	-0.00036	-0.00093	-0.00028	-5e-05	6
29510	7e-05	-1e-05	-6e-05	-0.00015	-0.00036	-0.00093	-0.00028	-5e-05	6
29511	7e-05	-1e-05	-6e-05	-0.00015	-0.00036	-0.00093	-0.00028	-5e-05	6
29512	8e-05	3e-05	3e-05	0.00015	0.00106	-7e-05	0.00032	-0.00043	6
29513	-5e-05	4e-05	3e-05	-0.0002	-0.0002	-0.00074	5e-05	-7e-05	6
29514	-5e-05	4e-05	3e-05	-0.0002	-0.0002	-0.00074	5e-05	-7e-05	6
29515	-5e-05	4e-05	3e-05	-0.0002	-0.0002	-0.00074	5e-05	-7e-05	6
29517	-5e-05	4e-05	3e-05	-0.0002	-0.0002	-0.00074	5e-05	-7e-05	6
29518	-5e-05	4e-05	3e-05	-0.0002	-0.0002	-0.00074	5e-05	-7e-05	6
29519	-5e-05	4e-05	3e-05	-0.0002	-0.0002	-0.00074	5e-05	-7e-05	6
29520	-5e-05	4e-05	3e-05	-0.0002	-0.0002	-0.00074	5e-05	-7e-05	6
29521	-5e-05	4e-05	3e-05	-0.0002	-0.0002	-0.00074	5e-05	-7e-05	6
29522	-5e-05	4e-05	3e-05	-0.0002	-0.0002	-0.00074	5e-05	-7e-05	6
29523	-5e-05	4e-05	3e-05	-0.0002	-0.0002	-0.00074	5e-05	-7e-05	6
29524	-5e-05	4e-05	3e-05	-0.0002	-0.0002	-0.00074	5e-05	-7e-05	6
29525	-5e-05	4e-05	3e-05	-0.0002	-0.0002	-0.00074	5e-05	-7e-05	6
29526	-5e-05	4e-05	3e-05	-0.0002	-0.0002	-0.00074	5e-05	-7e-05	6
29527	-5e-05	4e-05	3e-05	-0.0002	-0.0002	-0.00074	5e-05	-7e-05	6
29528	-5e-05	4e-05	3e-05	-0.0002	-0.0002	-0.00074	5e-05	-7e-05	6
29529	-5e-05	4e-05	3e-05	-0.0002	-0.0002	-0.00074	5e-05	-7e-05	6
29530	-5e-05	4e-05	3e-05	-0.0002	-0.0002	-0.00074	5e-05	-7e-05	6
29531	-5e-05	4e-05	3e-05	-0.0002	-0.0002	-0.00074	5e-05	-7e-05	6
29532	-5e-05	4e-05	3e-05	-0.0002	-0.0002	-0.00074	5e-05	-7e-05	6
29533	-5e-05	4e-05	3e-05	-0.0002	-0.0002	-0.00074	5e-05	-7e-05	6
29534	-5e-05	4e-05	3e-05	-0.0002	-0.0002	-0.00074	5e-05	-7e-05	6
29535	-3e-05	-8e-05	-8e-05	-4e-05	0.00016	0	-0.00017	0.00025	6
29536	5e-05	-4e-05	-3e-05	-5e-05	-0.00047	-0.00032	5e-05	6e-05	6
29538	5e-05	-4e-05	-3e-05	-5e-05	-0.00047	-0.00032	5e-05	6e-05	6
29539	5e-05	-4e-05	-3e-05	-5e-05	-0.00047	-0.00032	5e-05	6e-05	6
29540	5e-05	-4e-05	-3e-05	-5e-05	-0.00047	-0.00032	5e-05	6e-05	6
29541	5e-05	-4e-05	-3e-05	-5e-05	-0.00047	-0.00032	5e-05	6e-05	6
29542	5e-05	-4e-05	-3e-05	-5e-05	-0.00047	-0.00032	5e-05	6e-05	6
29543	5e-05	-4e-05	-3e-05	-5e-05	-0.00047	-0.00032	5e-05	6e-05	6
29544	5e-05	-4e-05	-3e-05	-5e-05	-0.00047	-0.00032	5e-05	6e-05	6
29545	5e-05	-4e-05	-3e-05	-5e-05	-0.00047	-0.00032	5e-05	6e-05	6
29546	5e-05	-4e-05	-3e-05	-5e-05	-0.00047	-0.00032	5e-05	6e-05	6
29547	5e-05	-4e-05	-3e-05	-5e-05	-0.00047	-0.00032	5e-05	6e-05	6
29548	5e-05	-4e-05	-3e-05	-5e-05	-0.00047	-0.00032	5e-05	6e-05	6
29549	5e-05	-4e-05	-3e-05	-5e-05	-0.00047	-0.00032	5e-05	6e-05	6
29550	5e-05	-4e-05	-3e-05	-5e-05	-0.00047	-0.00032	5e-05	6e-05	6
29551	5e-05	-4e-05	-3e-05	-5e-05	-0.00047	-0.00032	5e-05	6e-05	6
29552	5e-05	-4e-05	-3e-05	-5e-05	-0.00047	-0.00032	5e-05	6e-05	6
29553	5e-05	-4e-05	-3e-05	-5e-05	-0.00047	-0.00032	5e-05	6e-05	6
29554	5e-05	-4e-05	-3e-05	-5e-05	-0.00047	-0.00032	5e-05	6e-05	6
29555	5e-05	-4e-05	-3e-05	-5e-05	-0.00047	-0.00032	5e-05	6e-05	6
29556	5e-05	-4e-05	-3e-05	-5e-05	-0.00047	-0.00032	5e-05	6e-05	6
29557	-7e-05	3e-05	2e-05	7e-05	0.0005	0.00025	-3e-05	-0.00017	6
29558	9e-05	-1e-05	2e-05	0	-0.00086	-0.00054	-0.00014	0.00028	6
29559	9e-05	-1e-05	2e-05	0	-0.00086	-0.00054	-0.00014	0.00028	6
29560	9e-05	-1e-05	2e-05	0	-0.00086	-0.00054	-0.00014	0.00028	6
29561	9e-05	-1e-05	2e-05	0	-0.00086	-0.00054	-0.00014	0.00028	6
29562	9e-05	-1e-05	2e-05	0	-0.00086	-0.00054	-0.00014	0.00028	6
29563	9e-05	-1e-05	2e-05	0	-0.00086	-0.00054	-0.00014	0.00028	6
29564	9e-05	-1e-05	2e-05	0	-0.00086	-0.00054	-0.00014	0.00028	6
29565	9e-05	-1e-05	2e-05	0	-0.00086	-0.00054	-0.00014	0.00028	6
29566	9e-05	-1e-05	2e-05	0	-0.00086	-0.00054	-0.00014	0.00028	6
29567	9e-05	-1e-05	2e-05	0	-0.00086	-0.00054	-0.00014	0.00028	6
29568	9e-05	-1e-05	2e-05	0	-0.00086	-0.00054	-0.00014	0.00028	6
29569	9e-05	-1e-05	2e-05	0	-0.00086	-0.00054	-0.00014	0.00028	6
29570	9e-05	-1e-05	2e-05	0	-0.00086	-0.00054	-0.00014	0.00028	6
29571	9e-05	-1e-05	2e-05	0	-0.00086	-0.00054	-0.00014	0.00028	6
29572	7e-05	9e-05	0.00012	0.00027	0.00097	0.00094	0.00042	0.00017	6
29573	-7e-05	0	-4e-05	-1e-05	0.00092	0.0002	-0.00041	-0.00028	6
29574	-7e-05	0	-4e-05	-1e-05	0.00092	0.0002	-0.00041	-0.00028	6
29575	-7e-05	0	-4e-05	-1e-05	0.00092	0.0002	-0.00041	-0.00028	6
29576	-7e-05	0	-4e-05	-1e-05	0.00092	0.0002	-0.00041	-0.00028	6
29577	-7e-05	0	-4e-05	-1e-05	0.00092	0.0002	-0.00041	-0.00028	6
29578	-7e-05	0	-4e-05	-1e-05	0.00092	0.0002	-0.00041	-0.00028	6
29579	-7e-05	0	-4e-05	-1e-05	0.00092	0.0002	-0.00041	-0.00028	6
29580	-7e-05	0	-4e-05	-1e-05	0.00092	0.0002	-0.00041	-0.00028	6
29581	-7e-05	0	-4e-05	-1e-05	0.00092	0.0002	-0.00041	-0.00028	6
29582	-7e-05	0	-4e-05	-1e-05	0.00092	0.0002	-0.00041	-0.00028	6
29583	-7e-05	0	-4e-05	-1e-05	0.00092	0.0002	-0.00041	-0.00028	6
29584	-7e-05	0	-4e-05	-1e-05	0.00092	0.0002	-0.00041	-0.00028	6
29585	-7e-05	0	-4e-05	-1e-05	0.00092	0.0002	-0.00041	-0.00028	6
29586	-7e-05	0	-4e-05	-1e-05	0.00092	0.0002	-0.00041	-0.00028	6
29588	-7e-05	0	-4e-05	-1e-05	0.00092	0.0002	-0.00041	-0.00028	6
29589	-7e-05	0	-4e-05	-1e-05	0.00092	0.0002	-0.00041	-0.00028	6
29590	-7e-05	0	-4e-05	-1e-05	0.00092	0.0002	-0.00041	-0.00028	6
29591	-7e-05	0	-4e-05	-1e-05	0.00092	0.0002	-0.00041	-0.00028	6
29592	-7e-05	0	-4e-05	-1e-05	0.00092	0.0002	-0.00041	-0.00028	6
29593	-7e-05	0	-4e-05	-1e-05	0.00092	0.0002	-0.00041	-0.00028	6
29594	-7e-05	0	-4e-05	-1e-05	0.00092	0.0002	-0.00041	-0.00028	6
29595	-0.00015	-6e-05	-4e-05	-0.00022	-0.00128	0.00023	-0.00054	-0.00082	6
29596	0.00011	1e-05	2e-05	8e-05	0.00028	0.00012	2e-05	-0.00018	6
29597	0.00011	1e-05	2e-05	8e-05	0.00028	0.00012	2e-05	-0.00018	6
29598	0.00011	1e-05	2e-05	8e-05	0.00028	0.00012	2e-05	-0.00018	6
29599	0.00011	1e-05	2e-05	8e-05	0.00028	0.00012	2e-05	-0.00018	6
29600	0.00011	1e-05	2e-05	8e-05	0.00028	0.00012	2e-05	-0.00018	6
29601	0.00011	1e-05	2e-05	8e-05	0.00028	0.00012	2e-05	-0.00018	6
29602	0.00011	1e-05	2e-05	8e-05	0.00028	0.00012	2e-05	-0.00018	6
29603	0.00011	1e-05	2e-05	8e-05	0.00028	0.00012	2e-05	-0.00018	6
29604	0.00011	1e-05	2e-05	8e-05	0.00028	0.00012	2e-05	-0.00018	6
29605	0.00011	1e-05	2e-05	8e-05	0.00028	0.00012	2e-05	-0.00018	6
29606	0.00011	1e-05	2e-05	8e-05	0.00028	0.00012	2e-05	-0.00018	6
29607	0.00011	1e-05	2e-05	8e-05	0.00028	0.00012	2e-05	-0.00018	6
29608	0.00011	1e-05	2e-05	8e-05	0.00028	0.00012	2e-05	-0.00018	6
29609	0.00011	1e-05	2e-05	8e-05	0.00028	0.00012	2e-05	-0.00018	6
29611	0.00011	1e-05	2e-05	8e-05	0.00028	0.00012	2e-05	-0.00018	6
29612	0.00011	1e-05	2e-05	8e-05	0.00028	0.00012	2e-05	-0.00018	6
29613	0.00011	1e-05	2e-05	8e-05	0.00028	0.00012	2e-05	-0.00018	6
29614	0.00011	1e-05	2e-05	8e-05	0.00028	0.00012	2e-05	-0.00018	6
29615	0.00011	1e-05	2e-05	8e-05	0.00028	0.00012	2e-05	-0.00018	6
29616	0.00011	1e-05	2e-05	8e-05	0.00028	0.00012	2e-05	-0.00018	6
29617	0.00011	1e-05	2e-05	8e-05	0.00028	0.00012	2e-05	-0.00018	6
29618	1e-05	5e-05	-2e-05	-2e-05	-0.00049	0.00018	6e-05	5e-05	6
29619	1e-05	5e-05	-2e-05	-2e-05	-0.00049	0.00018	6e-05	5e-05	6
29620	1e-05	5e-05	-2e-05	-2e-05	-0.00049	0.00018	6e-05	5e-05	6
29621	1e-05	5e-05	-2e-05	-2e-05	-0.00049	0.00018	6e-05	5e-05	6
29622	1e-05	5e-05	-2e-05	-2e-05	-0.00049	0.00018	6e-05	5e-05	6
29623	1e-05	5e-05	-2e-05	-2e-05	-0.00049	0.00018	6e-05	5e-05	6
29624	1e-05	5e-05	-2e-05	-2e-05	-0.00049	0.00018	6e-05	5e-05	6
29625	1e-05	5e-05	-2e-05	-2e-05	-0.00049	0.00018	6e-05	5e-05	6
29626	1e-05	5e-05	-2e-05	-2e-05	-0.00049	0.00018	6e-05	5e-05	6
29627	1e-05	5e-05	-2e-05	-2e-05	-0.00049	0.00018	6e-05	5e-05	6
29628	1e-05	5e-05	-2e-05	-2e-05	-0.00049	0.00018	6e-05	5e-05	6
29629	1e-05	5e-05	-2e-05	-2e-05	-0.00049	0.00018	6e-05	5e-05	6
29630	1e-05	5e-05	-2e-05	-2e-05	-0.00049	0.00018	6e-05	5e-05	6
29631	0.00019	5e-05	2e-05	2e-05	-0.00057	-0.00038	-2e-05	-0.00016	6
29632	0.00019	5e-05	2e-05	2e-05	-0.00057	-0.00038	-2e-05	-0.00016	6
29633	0.00019	5e-05	2e-05	2e-05	-0.00057	-0.00038	-2e-05	-0.00016	6
29634	0.00019	5e-05	2e-05	2e-05	-0.00057	-0.00038	-2e-05	-0.00016	6
29635	0.00019	5e-05	2e-05	2e-05	-0.00057	-0.00038	-2e-05	-0.00016	6
29636	0.00019	5e-05	2e-05	2e-05	-0.00057	-0.00038	-2e-05	-0.00016	6
29638	0.00019	5e-05	2e-05	2e-05	-0.00057	-0.00038	-2e-05	-0.00016	6
29639	5e-05	6e-05	0.00011	0.00021	0.00052	0.00024	8e-05	0.00033	6
29640	5e-05	6e-05	0.00011	0.00021	0.00052	0.00024	8e-05	0.00033	6
29641	5e-05	6e-05	0.00011	0.00021	0.00052	0.00024	8e-05	0.00033	6
29642	5e-05	6e-05	0.00011	0.00021	0.00052	0.00024	8e-05	0.00033	6
29643	5e-05	6e-05	0.00011	0.00021	0.00052	0.00024	8e-05	0.00033	6
29644	5e-05	6e-05	0.00011	0.00021	0.00052	0.00024	8e-05	0.00033	6
29645	5e-05	6e-05	0.00011	0.00021	0.00052	0.00024	8e-05	0.00033	6
29646	5e-05	6e-05	0.00011	0.00021	0.00052	0.00024	8e-05	0.00033	6
29647	5e-05	6e-05	0.00011	0.00021	0.00052	0.00024	8e-05	0.00033	6
29648	5e-05	6e-05	0.00011	0.00021	0.00052	0.00024	8e-05	0.00033	6
29649	5e-05	6e-05	0.00011	0.00021	0.00052	0.00024	8e-05	0.00033	6
29650	5e-05	6e-05	0.00011	0.00021	0.00052	0.00024	8e-05	0.00033	6
29651	5e-05	6e-05	0.00011	0.00021	0.00052	0.00024	8e-05	0.00033	6
29652	5e-05	6e-05	0.00011	0.00021	0.00052	0.00024	8e-05	0.00033	6
29653	5e-05	6e-05	0.00011	0.00021	0.00052	0.00024	8e-05	0.00033	6
29654	5e-05	6e-05	0.00011	0.00021	0.00052	0.00024	8e-05	0.00033	6
29655	8e-05	0.00014	0.00015	0.00028	0.00085	0.00099	0.00044	-0.00038	6
29656	-0.00016	-5e-05	-5e-05	0	0.00072	0.00082	-1e-05	-0.00113	6
29657	-0.00016	-5e-05	-5e-05	0	0.00072	0.00082	-1e-05	-0.00113	6
29658	-0.00016	-5e-05	-5e-05	0	0.00072	0.00082	-1e-05	-0.00113	6
29659	-0.00016	-5e-05	-5e-05	0	0.00072	0.00082	-1e-05	-0.00113	6
29660	-0.00016	-5e-05	-5e-05	0	0.00072	0.00082	-1e-05	-0.00113	6
29661	-0.00016	-5e-05	-5e-05	0	0.00072	0.00082	-1e-05	-0.00113	6
29662	-0.00016	-5e-05	-5e-05	0	0.00072	0.00082	-1e-05	-0.00113	6
29663	-0.00016	-5e-05	-5e-05	0	0.00072	0.00082	-1e-05	-0.00113	6
29664	-0.00016	-5e-05	-5e-05	0	0.00072	0.00082	-1e-05	-0.00113	6
29665	-0.00016	-5e-05	-5e-05	0	0.00072	0.00082	-1e-05	-0.00113	6
29666	-0.00016	-5e-05	-5e-05	0	0.00072	0.00082	-1e-05	-0.00113	6
29667	-0.00016	-5e-05	-5e-05	0	0.00072	0.00082	-1e-05	-0.00113	6
29668	-0.00016	-5e-05	-5e-05	0	0.00072	0.00082	-1e-05	-0.00113	6
29669	-0.00016	-5e-05	-5e-05	0	0.00072	0.00082	-1e-05	-0.00113	6
29670	-0.00016	-5e-05	-5e-05	0	0.00072	0.00082	-1e-05	-0.00113	6
29671	-0.00016	-5e-05	-5e-05	0	0.00072	0.00082	-1e-05	-0.00113	6
29672	-0.00016	-5e-05	-5e-05	0	0.00072	0.00082	-1e-05	-0.00113	6
29673	-0.00016	-5e-05	-5e-05	0	0.00072	0.00082	-1e-05	-0.00113	6
29674	-0.00016	-5e-05	-5e-05	0	0.00072	0.00082	-1e-05	-0.00113	6
29675	-0.00016	-5e-05	-5e-05	0	0.00072	0.00082	-1e-05	-0.00113	6
29676	-0.00016	-5e-05	-5e-05	0	0.00072	0.00082	-1e-05	-0.00113	6
29677	0.0002	0.00011	0.00012	1e-05	-0.00112	-0.00054	9e-05	0.00037	6
29678	-0.0001	-4e-05	1e-05	8e-05	0.00033	-0.00063	-0.00026	-0.00024	6
29679	-0.0001	-4e-05	1e-05	8e-05	0.00033	-0.00063	-0.00026	-0.00024	6
29680	-0.0001	-4e-05	1e-05	8e-05	0.00033	-0.00063	-0.00026	-0.00024	6
29681	-0.0001	-4e-05	1e-05	8e-05	0.00033	-0.00063	-0.00026	-0.00024	6
29682	-0.0001	-4e-05	1e-05	8e-05	0.00033	-0.00063	-0.00026	-0.00024	6
29683	-0.0001	-4e-05	1e-05	8e-05	0.00033	-0.00063	-0.00026	-0.00024	6
29684	-0.0001	-4e-05	1e-05	8e-05	0.00033	-0.00063	-0.00026	-0.00024	6
29685	-0.0001	-4e-05	1e-05	8e-05	0.00033	-0.00063	-0.00026	-0.00024	6
29686	-0.0001	-4e-05	1e-05	8e-05	0.00033	-0.00063	-0.00026	-0.00024	6
29688	-0.0001	-4e-05	1e-05	8e-05	0.00033	-0.00063	-0.00026	-0.00024	6
29689	-0.0001	-4e-05	1e-05	8e-05	0.00033	-0.00063	-0.00026	-0.00024	6
29690	-0.0001	-4e-05	1e-05	8e-05	0.00033	-0.00063	-0.00026	-0.00024	6
29691	0.0002	0.00016	0.00022	0.00037	-5e-05	0.00074	0.00044	0.00056	6
29692	0.0002	0.00016	0.00022	0.00037	-5e-05	0.00074	0.00044	0.00056	6
29693	0.0002	0.00016	0.00022	0.00037	-5e-05	0.00074	0.00044	0.00056	6
29694	0.0002	0.00016	0.00022	0.00037	-5e-05	0.00074	0.00044	0.00056	6
29695	0.0002	0.00016	0.00022	0.00037	-5e-05	0.00074	0.00044	0.00056	6
29696	0.0002	0.00016	0.00022	0.00037	-5e-05	0.00074	0.00044	0.00056	6
29697	0.0002	0.00016	0.00022	0.00037	-5e-05	0.00074	0.00044	0.00056	6
29698	0.0002	0.00016	0.00022	0.00037	-5e-05	0.00074	0.00044	0.00056	6
29699	0.0002	0.00016	0.00022	0.00037	-5e-05	0.00074	0.00044	0.00056	6
29700	-6e-05	4e-05	3e-05	-3e-05	-0.00128	-0.00064	0.00011	0.00102	6
29701	-6e-05	4e-05	3e-05	-3e-05	-0.00128	-0.00064	0.00011	0.00102	6
29702	-6e-05	4e-05	3e-05	-3e-05	-0.00128	-0.00064	0.00011	0.00102	6
29703	-6e-05	4e-05	3e-05	-3e-05	-0.00128	-0.00064	0.00011	0.00102	6
29704	-6e-05	4e-05	3e-05	-3e-05	-0.00128	-0.00064	0.00011	0.00102	6
29705	-6e-05	4e-05	3e-05	-3e-05	-0.00128	-0.00064	0.00011	0.00102	6
29706	-6e-05	4e-05	3e-05	-3e-05	-0.00128	-0.00064	0.00011	0.00102	6
29707	-6e-05	4e-05	3e-05	-3e-05	-0.00128	-0.00064	0.00011	0.00102	6
29708	-6e-05	4e-05	3e-05	-3e-05	-0.00128	-0.00064	0.00011	0.00102	6
29709	-6e-05	4e-05	3e-05	-3e-05	-0.00128	-0.00064	0.00011	0.00102	6
29710	-6e-05	4e-05	3e-05	-3e-05	-0.00128	-0.00064	0.00011	0.00102	6
29711	-6e-05	4e-05	3e-05	-3e-05	-0.00128	-0.00064	0.00011	0.00102	6
29712	-6e-05	4e-05	3e-05	-3e-05	-0.00128	-0.00064	0.00011	0.00102	6
29713	-6e-05	4e-05	3e-05	-3e-05	-0.00128	-0.00064	0.00011	0.00102	6
29714	-6e-05	4e-05	3e-05	-3e-05	-0.00128	-0.00064	0.00011	0.00102	6
29715	-0.00017	-4e-05	-0.0001	-0.00027	-0.00088	-0.00108	-0.00018	0.00104	6
29716	-0.00017	-4e-05	-0.0001	-0.00027	-0.00088	-0.00108	-0.00018	0.00104	6
29717	0.0001	9e-05	0.00011	0.00013	0.00021	0.00067	0.00016	0.00042	6
29718	0.0001	9e-05	0.00011	0.00013	0.00021	0.00067	0.00016	0.00042	6
29719	0.0001	9e-05	0.00011	0.00013	0.00021	0.00067	0.00016	0.00042	6
29720	0.0001	9e-05	0.00011	0.00013	0.00021	0.00067	0.00016	0.00042	6
29721	0.0001	9e-05	0.00011	0.00013	0.00021	0.00067	0.00016	0.00042	6
29722	0.0001	9e-05	0.00011	0.00013	0.00021	0.00067	0.00016	0.00042	6
29723	0.0001	9e-05	0.00011	0.00013	0.00021	0.00067	0.00016	0.00042	6
29724	0.0001	9e-05	0.00011	0.00013	0.00021	0.00067	0.00016	0.00042	6
29725	0.0001	9e-05	0.00011	0.00013	0.00021	0.00067	0.00016	0.00042	6
29726	0.0001	9e-05	0.00011	0.00013	0.00021	0.00067	0.00016	0.00042	6
29727	0.0001	9e-05	0.00011	0.00013	0.00021	0.00067	0.00016	0.00042	6
29728	0.0001	9e-05	0.00011	0.00013	0.00021	0.00067	0.00016	0.00042	6
29729	0.0001	9e-05	0.00011	0.00013	0.00021	0.00067	0.00016	0.00042	6
29730	0.0001	9e-05	0.00011	0.00013	0.00021	0.00067	0.00016	0.00042	6
29731	0.0001	9e-05	0.00011	0.00013	0.00021	0.00067	0.00016	0.00042	6
29732	0.0001	9e-05	0.00011	0.00013	0.00021	0.00067	0.00016	0.00042	6
29733	0.0001	9e-05	0.00011	0.00013	0.00021	0.00067	0.00016	0.00042	6
29734	0.0001	9e-05	0.00011	0.00013	0.00021	0.00067	0.00016	0.00042	6
29735	0.0001	9e-05	0.00011	0.00013	0.00021	0.00067	0.00016	0.00042	6
29736	0.0001	9e-05	0.00011	0.00013	0.00021	0.00067	0.00016	0.00042	6
29738	0.0001	9e-05	0.00011	0.00013	0.00021	0.00067	0.00016	0.00042	6
29739	0.0001	9e-05	0.00011	0.00013	0.00021	0.00067	0.00016	0.00042	6
29740	-0.00025	-2e-05	-2e-05	1e-05	0.00011	0.00016	-0.00016	-0.00027	6
29741	-0.00051	-0.00013	-6e-05	5e-05	0.00059	-0.00103	-0.00026	-0.00029	6
29742	-0.00051	-0.00013	-6e-05	5e-05	0.00059	-0.00103	-0.00026	-0.00029	6
29743	-0.00051	-0.00013	-6e-05	5e-05	0.00059	-0.00103	-0.00026	-0.00029	6
29744	-0.00051	-0.00013	-6e-05	5e-05	0.00059	-0.00103	-0.00026	-0.00029	6
29745	-0.00051	-0.00013	-6e-05	5e-05	0.00059	-0.00103	-0.00026	-0.00029	6
29746	-0.00051	-0.00013	-6e-05	5e-05	0.00059	-0.00103	-0.00026	-0.00029	6
29747	-0.00051	-0.00013	-6e-05	5e-05	0.00059	-0.00103	-0.00026	-0.00029	6
29748	-0.00051	-0.00013	-6e-05	5e-05	0.00059	-0.00103	-0.00026	-0.00029	6
29749	-0.00051	-0.00013	-6e-05	5e-05	0.00059	-0.00103	-0.00026	-0.00029	6
29750	-0.00051	-0.00013	-6e-05	5e-05	0.00059	-0.00103	-0.00026	-0.00029	6
29751	-0.00051	-0.00013	-6e-05	5e-05	0.00059	-0.00103	-0.00026	-0.00029	6
29752	-0.00016	-6e-05	-2e-05	-5e-05	-0.00013	-0.00022	-0.00022	-0.00037	6
29753	-0.00016	-6e-05	-2e-05	-5e-05	-0.00013	-0.00022	-0.00022	-0.00037	6
29754	-0.00016	-6e-05	-2e-05	-5e-05	-0.00013	-0.00022	-0.00022	-0.00037	6
29755	-0.00016	-6e-05	-2e-05	-5e-05	-0.00013	-0.00022	-0.00022	-0.00037	6
29756	-0.00016	-6e-05	-2e-05	-5e-05	-0.00013	-0.00022	-0.00022	-0.00037	6
29757	-0.00016	-6e-05	-2e-05	-5e-05	-0.00013	-0.00022	-0.00022	-0.00037	6
29758	-0.00016	-6e-05	-2e-05	-5e-05	-0.00013	-0.00022	-0.00022	-0.00037	6
29759	-0.00016	-6e-05	-2e-05	-5e-05	-0.00013	-0.00022	-0.00022	-0.00037	6
29760	0.00011	3e-05	4e-05	9e-05	0.00075	0.00117	0.00063	-0.00042	6
29761	0.00011	3e-05	4e-05	9e-05	0.00075	0.00117	0.00063	-0.00042	6
29762	0.00011	3e-05	4e-05	9e-05	0.00075	0.00117	0.00063	-0.00042	6
29763	0.00011	3e-05	4e-05	9e-05	0.00075	0.00117	0.00063	-0.00042	6
29764	0.00011	3e-05	4e-05	9e-05	0.00075	0.00117	0.00063	-0.00042	6
29765	0.00011	3e-05	4e-05	9e-05	0.00075	0.00117	0.00063	-0.00042	6
29766	0.00011	3e-05	4e-05	9e-05	0.00075	0.00117	0.00063	-0.00042	6
29767	0.00011	3e-05	4e-05	9e-05	0.00075	0.00117	0.00063	-0.00042	6
29768	0.00011	3e-05	4e-05	9e-05	0.00075	0.00117	0.00063	-0.00042	6
29769	0.00011	3e-05	4e-05	9e-05	0.00075	0.00117	0.00063	-0.00042	6
29770	0.00011	3e-05	4e-05	9e-05	0.00075	0.00117	0.00063	-0.00042	6
29771	0.00011	3e-05	4e-05	9e-05	0.00075	0.00117	0.00063	-0.00042	6
29772	0.00011	3e-05	4e-05	9e-05	0.00075	0.00117	0.00063	-0.00042	6
29773	0.00011	3e-05	4e-05	9e-05	0.00075	0.00117	0.00063	-0.00042	6
29774	0.00011	3e-05	4e-05	9e-05	0.00075	0.00117	0.00063	-0.00042	6
29775	-0.00014	-0.00011	-0.00017	-0.00022	2e-05	-0.00083	-0.00042	-0.00063	6
29776	-0.00014	-0.00011	-0.00017	-0.00022	2e-05	-0.00083	-0.00042	-0.00063	6
29777	8e-05	-2e-05	-1e-05	-0.00011	-0.00107	-0.00071	-0.00019	3e-05	6
29778	8e-05	-2e-05	-1e-05	-0.00011	-0.00107	-0.00071	-0.00019	3e-05	6
29779	8e-05	-2e-05	-1e-05	-0.00011	-0.00107	-0.00071	-0.00019	3e-05	6
29780	8e-05	-2e-05	-1e-05	-0.00011	-0.00107	-0.00071	-0.00019	3e-05	6
29781	8e-05	-2e-05	-1e-05	-0.00011	-0.00107	-0.00071	-0.00019	3e-05	6
29782	8e-05	-2e-05	-1e-05	-0.00011	-0.00107	-0.00071	-0.00019	3e-05	6
29783	8e-05	-2e-05	-1e-05	-0.00011	-0.00107	-0.00071	-0.00019	3e-05	6
29784	8e-05	-2e-05	-1e-05	-0.00011	-0.00107	-0.00071	-0.00019	3e-05	6
29785	8e-05	-2e-05	-1e-05	-0.00011	-0.00107	-0.00071	-0.00019	3e-05	6
29786	8e-05	-2e-05	-1e-05	-0.00011	-0.00107	-0.00071	-0.00019	3e-05	6
29788	8e-05	-2e-05	-1e-05	-0.00011	-0.00107	-0.00071	-0.00019	3e-05	6
29789	8e-05	-2e-05	-1e-05	-0.00011	-0.00107	-0.00071	-0.00019	3e-05	6
29790	8e-05	-2e-05	-1e-05	-0.00011	-0.00107	-0.00071	-0.00019	3e-05	6
29791	8e-05	-2e-05	-1e-05	-0.00011	-0.00107	-0.00071	-0.00019	3e-05	6
29792	8e-05	-2e-05	-1e-05	-0.00011	-0.00107	-0.00071	-0.00019	3e-05	6
29793	8e-05	-2e-05	-1e-05	-0.00011	-0.00107	-0.00071	-0.00019	3e-05	6
29794	8e-05	-2e-05	-1e-05	-0.00011	-0.00107	-0.00071	-0.00019	3e-05	6
29795	8e-05	-2e-05	-1e-05	-0.00011	-0.00107	-0.00071	-0.00019	3e-05	6
29796	8e-05	-2e-05	-1e-05	-0.00011	-0.00107	-0.00071	-0.00019	3e-05	6
29797	8e-05	-2e-05	-1e-05	-0.00011	-0.00107	-0.00071	-0.00019	3e-05	6
29798	0.00017	0	-1e-05	4e-05	-8e-05	-0.00049	1e-05	-5e-05	6
29799	-2e-05	-3e-05	-7e-05	-0.00016	-0.00012	-0.00117	-0.00055	-2e-05	6
29800	-2e-05	-3e-05	-7e-05	-0.00016	-0.00012	-0.00117	-0.00055	-2e-05	6
29801	-2e-05	-3e-05	-7e-05	-0.00016	-0.00012	-0.00117	-0.00055	-2e-05	6
29802	-2e-05	-3e-05	-7e-05	-0.00016	-0.00012	-0.00117	-0.00055	-2e-05	6
29803	-2e-05	-3e-05	-7e-05	-0.00016	-0.00012	-0.00117	-0.00055	-2e-05	6
29804	-2e-05	-3e-05	-7e-05	-0.00016	-0.00012	-0.00117	-0.00055	-2e-05	6
29805	-2e-05	-3e-05	-7e-05	-0.00016	-0.00012	-0.00117	-0.00055	-2e-05	6
29806	-2e-05	-3e-05	-7e-05	-0.00016	-0.00012	-0.00117	-0.00055	-2e-05	6
29807	-2e-05	-3e-05	-7e-05	-0.00016	-0.00012	-0.00117	-0.00055	-2e-05	6
29808	-2e-05	-3e-05	-7e-05	-0.00016	-0.00012	-0.00117	-0.00055	-2e-05	6
29809	-2e-05	-3e-05	-7e-05	-0.00016	-0.00012	-0.00117	-0.00055	-2e-05	6
29810	-2e-05	-3e-05	-7e-05	-0.00016	-0.00012	-0.00117	-0.00055	-2e-05	6
29811	0.0001	-4e-05	-8e-05	-6e-05	0.0011	-0.00097	-0.0002	0.00043	6
29812	0.0001	-4e-05	-8e-05	-6e-05	0.0011	-0.00097	-0.0002	0.00043	6
29813	0.0001	-4e-05	-8e-05	-6e-05	0.0011	-0.00097	-0.0002	0.00043	6
29814	0.0001	-4e-05	-8e-05	-6e-05	0.0011	-0.00097	-0.0002	0.00043	6
29815	0.0001	-4e-05	-8e-05	-6e-05	0.0011	-0.00097	-0.0002	0.00043	6
29816	0.0001	-4e-05	-8e-05	-6e-05	0.0011	-0.00097	-0.0002	0.00043	6
29817	0.0001	-4e-05	-8e-05	-6e-05	0.0011	-0.00097	-0.0002	0.00043	6
29818	0.0001	-4e-05	-8e-05	-6e-05	0.0011	-0.00097	-0.0002	0.00043	6
29819	0.0001	-4e-05	-8e-05	-6e-05	0.0011	-0.00097	-0.0002	0.00043	6
29820	0.0001	-7e-05	-6e-05	-0.0001	4e-05	0.00069	-0.00018	0.00042	6
29821	0.0001	-7e-05	-6e-05	-0.0001	4e-05	0.00069	-0.00018	0.00042	6
29822	0.0001	-7e-05	-6e-05	-0.0001	4e-05	0.00069	-0.00018	0.00042	6
29823	0.0001	-7e-05	-6e-05	-0.0001	4e-05	0.00069	-0.00018	0.00042	6
29824	0.0001	-7e-05	-6e-05	-0.0001	4e-05	0.00069	-0.00018	0.00042	6
29825	0.0001	-7e-05	-6e-05	-0.0001	4e-05	0.00069	-0.00018	0.00042	6
29826	0.0001	-7e-05	-6e-05	-0.0001	4e-05	0.00069	-0.00018	0.00042	6
29827	0.0001	-7e-05	-6e-05	-0.0001	4e-05	0.00069	-0.00018	0.00042	6
29828	0.0001	-7e-05	-6e-05	-0.0001	4e-05	0.00069	-0.00018	0.00042	6
29829	0.0001	-7e-05	-6e-05	-0.0001	4e-05	0.00069	-0.00018	0.00042	6
29830	0.0001	-7e-05	-6e-05	-0.0001	4e-05	0.00069	-0.00018	0.00042	6
29831	0.0001	-7e-05	-6e-05	-0.0001	4e-05	0.00069	-0.00018	0.00042	6
29832	0.0001	-7e-05	-6e-05	-0.0001	4e-05	0.00069	-0.00018	0.00042	6
29833	0.0001	-7e-05	-6e-05	-0.0001	4e-05	0.00069	-0.00018	0.00042	6
29834	0.0001	-7e-05	-6e-05	-0.0001	4e-05	0.00069	-0.00018	0.00042	6
29835	-0.00015	-5e-05	-5e-05	-0.00019	-7e-05	-0.00026	-3e-05	-0.00095	6
29836	-0.00015	-5e-05	-5e-05	-0.00019	-7e-05	-0.00026	-3e-05	-0.00095	6
29838	0.0001	3e-05	2e-05	1e-05	-0.00016	-0.00052	0.00031	0.00014	6
29839	0.0001	3e-05	2e-05	1e-05	-0.00016	-0.00052	0.00031	0.00014	6
29840	0.0001	3e-05	2e-05	1e-05	-0.00016	-0.00052	0.00031	0.00014	6
29841	0.0001	3e-05	2e-05	1e-05	-0.00016	-0.00052	0.00031	0.00014	6
29842	0.0001	3e-05	2e-05	1e-05	-0.00016	-0.00052	0.00031	0.00014	6
29843	0.0001	3e-05	2e-05	1e-05	-0.00016	-0.00052	0.00031	0.00014	6
29844	0.0001	3e-05	2e-05	1e-05	-0.00016	-0.00052	0.00031	0.00014	6
29845	0.0001	3e-05	2e-05	1e-05	-0.00016	-0.00052	0.00031	0.00014	6
29846	0.0001	3e-05	2e-05	1e-05	-0.00016	-0.00052	0.00031	0.00014	6
29847	0.0001	3e-05	2e-05	1e-05	-0.00016	-0.00052	0.00031	0.00014	6
29848	0.0001	3e-05	2e-05	1e-05	-0.00016	-0.00052	0.00031	0.00014	6
29849	0.0001	3e-05	2e-05	1e-05	-0.00016	-0.00052	0.00031	0.00014	6
29850	0.0001	3e-05	2e-05	1e-05	-0.00016	-0.00052	0.00031	0.00014	6
29851	0.0001	3e-05	2e-05	1e-05	-0.00016	-0.00052	0.00031	0.00014	6
29852	0.0001	3e-05	2e-05	1e-05	-0.00016	-0.00052	0.00031	0.00014	6
29853	0.0001	3e-05	2e-05	1e-05	-0.00016	-0.00052	0.00031	0.00014	6
29854	0.0001	3e-05	2e-05	1e-05	-0.00016	-0.00052	0.00031	0.00014	6
29855	0.0001	3e-05	2e-05	1e-05	-0.00016	-0.00052	0.00031	0.00014	6
29856	0.0001	3e-05	2e-05	1e-05	-0.00016	-0.00052	0.00031	0.00014	6
29857	9e-05	-9e-05	-9e-05	-0.00015	-0.00103	0.00023	-0.00013	0.00026	6
29858	0.00013	0	2e-05	0.0001	0.00069	0.0004	6e-05	-0.00035	6
29859	-0.00025	-1e-05	0	-5e-05	-0.00104	0.00063	9e-05	-0.0004	6
29860	-0.00025	-1e-05	0	-5e-05	-0.00104	0.00063	9e-05	-0.0004	6
29861	-0.00025	-1e-05	0	-5e-05	-0.00104	0.00063	9e-05	-0.0004	6
29862	-0.00025	-1e-05	0	-5e-05	-0.00104	0.00063	9e-05	-0.0004	6
29863	-0.00025	-1e-05	0	-5e-05	-0.00104	0.00063	9e-05	-0.0004	6
29864	-0.00025	-1e-05	0	-5e-05	-0.00104	0.00063	9e-05	-0.0004	6
29865	-0.00025	-1e-05	0	-5e-05	-0.00104	0.00063	9e-05	-0.0004	6
29866	-0.00025	-1e-05	0	-5e-05	-0.00104	0.00063	9e-05	-0.0004	6
29867	-0.00025	-1e-05	0	-5e-05	-0.00104	0.00063	9e-05	-0.0004	6
29868	-0.00025	-1e-05	0	-5e-05	-0.00104	0.00063	9e-05	-0.0004	6
29869	-0.00025	-1e-05	0	-5e-05	-0.00104	0.00063	9e-05	-0.0004	6
29870	-0.00025	-1e-05	0	-5e-05	-0.00104	0.00063	9e-05	-0.0004	6
29871	-6e-05	4e-05	9e-05	0.00017	-0.00023	0.00062	0.00034	-0.00011	6
29872	-6e-05	4e-05	9e-05	0.00017	-0.00023	0.00062	0.00034	-0.00011	6
29873	-6e-05	4e-05	9e-05	0.00017	-0.00023	0.00062	0.00034	-0.00011	6
29874	-6e-05	4e-05	9e-05	0.00017	-0.00023	0.00062	0.00034	-0.00011	6
29875	-6e-05	4e-05	9e-05	0.00017	-0.00023	0.00062	0.00034	-0.00011	6
29876	-6e-05	4e-05	9e-05	0.00017	-0.00023	0.00062	0.00034	-0.00011	6
29877	-6e-05	4e-05	9e-05	0.00017	-0.00023	0.00062	0.00034	-0.00011	6
29878	-6e-05	4e-05	9e-05	0.00017	-0.00023	0.00062	0.00034	-0.00011	6
29879	-6e-05	4e-05	9e-05	0.00017	-0.00023	0.00062	0.00034	-0.00011	6
29880	1e-05	-4e-05	-7e-05	4e-05	0.00073	0.00077	0.00051	-0.00015	6
29881	1e-05	-4e-05	-7e-05	4e-05	0.00073	0.00077	0.00051	-0.00015	6
29882	1e-05	-4e-05	-7e-05	4e-05	0.00073	0.00077	0.00051	-0.00015	6
29883	1e-05	-4e-05	-7e-05	4e-05	0.00073	0.00077	0.00051	-0.00015	6
29884	1e-05	-4e-05	-7e-05	4e-05	0.00073	0.00077	0.00051	-0.00015	6
29885	1e-05	-4e-05	-7e-05	4e-05	0.00073	0.00077	0.00051	-0.00015	6
29886	1e-05	-4e-05	-7e-05	4e-05	0.00073	0.00077	0.00051	-0.00015	6
29888	1e-05	-4e-05	-7e-05	4e-05	0.00073	0.00077	0.00051	-0.00015	6
29889	1e-05	-4e-05	-7e-05	4e-05	0.00073	0.00077	0.00051	-0.00015	6
29890	1e-05	-4e-05	-7e-05	4e-05	0.00073	0.00077	0.00051	-0.00015	6
29891	1e-05	-4e-05	-7e-05	4e-05	0.00073	0.00077	0.00051	-0.00015	6
29892	1e-05	-4e-05	-7e-05	4e-05	0.00073	0.00077	0.00051	-0.00015	6
29893	1e-05	-4e-05	-7e-05	4e-05	0.00073	0.00077	0.00051	-0.00015	6
29894	1e-05	-4e-05	-7e-05	4e-05	0.00073	0.00077	0.00051	-0.00015	6
29895	1e-05	-3e-05	-7e-05	-9e-05	0.00025	-0.00065	-0.00013	-0.00089	6
29896	1e-05	-3e-05	-7e-05	-9e-05	0.00025	-0.00065	-0.00013	-0.00089	6
29897	-1e-05	-1e-05	-5e-05	0	0.00067	-0.00099	0.00013	-0.00083	6
29898	-1e-05	-1e-05	-5e-05	0	0.00067	-0.00099	0.00013	-0.00083	6
29899	-1e-05	-1e-05	-5e-05	0	0.00067	-0.00099	0.00013	-0.00083	6
29900	-1e-05	-1e-05	-5e-05	0	0.00067	-0.00099	0.00013	-0.00083	6
29901	-1e-05	-1e-05	-5e-05	0	0.00067	-0.00099	0.00013	-0.00083	6
29902	-1e-05	-1e-05	-5e-05	0	0.00067	-0.00099	0.00013	-0.00083	6
29903	-1e-05	-1e-05	-5e-05	0	0.00067	-0.00099	0.00013	-0.00083	6
29904	-1e-05	-1e-05	-5e-05	0	0.00067	-0.00099	0.00013	-0.00083	6
29905	-1e-05	-1e-05	-5e-05	0	0.00067	-0.00099	0.00013	-0.00083	6
29906	-1e-05	-1e-05	-5e-05	0	0.00067	-0.00099	0.00013	-0.00083	6
29907	-1e-05	-1e-05	-5e-05	0	0.00067	-0.00099	0.00013	-0.00083	6
29908	-1e-05	-1e-05	-5e-05	0	0.00067	-0.00099	0.00013	-0.00083	6
29909	-1e-05	-1e-05	-5e-05	0	0.00067	-0.00099	0.00013	-0.00083	6
29910	-1e-05	-1e-05	-5e-05	0	0.00067	-0.00099	0.00013	-0.00083	6
29911	-1e-05	-1e-05	-5e-05	0	0.00067	-0.00099	0.00013	-0.00083	6
29912	-1e-05	-1e-05	-5e-05	0	0.00067	-0.00099	0.00013	-0.00083	6
29913	-1e-05	-1e-05	-5e-05	0	0.00067	-0.00099	0.00013	-0.00083	6
29914	-1e-05	-1e-05	-5e-05	0	0.00067	-0.00099	0.00013	-0.00083	6
29915	-1e-05	-1e-05	-5e-05	0	0.00067	-0.00099	0.00013	-0.00083	6
29916	-1e-05	-1e-05	-5e-05	0	0.00067	-0.00099	0.00013	-0.00083	6
29917	-1e-05	-1e-05	-5e-05	0	0.00067	-0.00099	0.00013	-0.00083	6
29918	-1e-05	3e-05	4e-05	9e-05	0.00043	0.00084	0.00026	0.00029	6
29919	7e-05	-3e-05	-5e-05	-0.00017	0.00013	-0.00075	-0.0002	-1e-05	6
29920	7e-05	-3e-05	-5e-05	-0.00017	0.00013	-0.00075	-0.0002	-1e-05	6
29921	7e-05	-3e-05	-5e-05	-0.00017	0.00013	-0.00075	-0.0002	-1e-05	6
29922	7e-05	-3e-05	-5e-05	-0.00017	0.00013	-0.00075	-0.0002	-1e-05	6
29923	7e-05	-3e-05	-5e-05	-0.00017	0.00013	-0.00075	-0.0002	-1e-05	6
29924	7e-05	-3e-05	-5e-05	-0.00017	0.00013	-0.00075	-0.0002	-1e-05	6
29925	7e-05	-3e-05	-5e-05	-0.00017	0.00013	-0.00075	-0.0002	-1e-05	6
29926	7e-05	-3e-05	-5e-05	-0.00017	0.00013	-0.00075	-0.0002	-1e-05	6
29927	7e-05	-3e-05	-5e-05	-0.00017	0.00013	-0.00075	-0.0002	-1e-05	6
29928	7e-05	-3e-05	-5e-05	-0.00017	0.00013	-0.00075	-0.0002	-1e-05	6
29929	7e-05	-3e-05	-5e-05	-0.00017	0.00013	-0.00075	-0.0002	-1e-05	6
29930	7e-05	-3e-05	-5e-05	-0.00017	0.00013	-0.00075	-0.0002	-1e-05	6
29931	0.00018	-3e-05	0	-1e-05	-0.00028	0.00023	-0.00048	0.00033	6
29932	0.00018	-3e-05	0	-1e-05	-0.00028	0.00023	-0.00048	0.00033	6
29933	0.00018	-3e-05	0	-1e-05	-0.00028	0.00023	-0.00048	0.00033	6
29934	0.00018	-3e-05	0	-1e-05	-0.00028	0.00023	-0.00048	0.00033	6
29935	0.00018	-3e-05	0	-1e-05	-0.00028	0.00023	-0.00048	0.00033	6
29936	0.00018	-3e-05	0	-1e-05	-0.00028	0.00023	-0.00048	0.00033	6
29938	0.00018	-3e-05	0	-1e-05	-0.00028	0.00023	-0.00048	0.00033	6
29940	0.00018	-3e-05	0	-1e-05	-0.00028	0.00023	-0.00048	0.00033	6
29941	8e-05	-7e-05	-5e-05	-2e-05	-0.00041	0.00067	-0.00015	-0.00087	6
29942	8e-05	-7e-05	-5e-05	-2e-05	-0.00041	0.00067	-0.00015	-0.00087	6
29943	8e-05	-7e-05	-5e-05	-2e-05	-0.00041	0.00067	-0.00015	-0.00087	6
29944	8e-05	-7e-05	-5e-05	-2e-05	-0.00041	0.00067	-0.00015	-0.00087	6
29945	8e-05	-7e-05	-5e-05	-2e-05	-0.00041	0.00067	-0.00015	-0.00087	6
29946	8e-05	-7e-05	-5e-05	-2e-05	-0.00041	0.00067	-0.00015	-0.00087	6
29947	8e-05	-7e-05	-5e-05	-2e-05	-0.00041	0.00067	-0.00015	-0.00087	6
29948	8e-05	-7e-05	-5e-05	-2e-05	-0.00041	0.00067	-0.00015	-0.00087	6
29949	8e-05	-7e-05	-5e-05	-2e-05	-0.00041	0.00067	-0.00015	-0.00087	6
29950	8e-05	-7e-05	-5e-05	-2e-05	-0.00041	0.00067	-0.00015	-0.00087	6
29951	8e-05	-7e-05	-5e-05	-2e-05	-0.00041	0.00067	-0.00015	-0.00087	6
29952	8e-05	-7e-05	-5e-05	-2e-05	-0.00041	0.00067	-0.00015	-0.00087	6
29953	8e-05	-7e-05	-5e-05	-2e-05	-0.00041	0.00067	-0.00015	-0.00087	6
29954	8e-05	-7e-05	-5e-05	-2e-05	-0.00041	0.00067	-0.00015	-0.00087	6
29955	8e-05	-7e-05	-5e-05	-2e-05	-0.00041	0.00067	-0.00015	-0.00087	6
29956	-8e-05	-1e-05	-3e-05	-4e-05	-0.00019	-0.00039	0.00022	-0.00073	6
29957	-8e-05	-1e-05	-3e-05	-4e-05	-0.00019	-0.00039	0.00022	-0.00073	6
29958	3e-05	-1e-05	-1e-05	-8e-05	-0.00054	0.0006	-3e-05	-0.00019	6
29959	3e-05	-1e-05	-1e-05	-8e-05	-0.00054	0.0006	-3e-05	-0.00019	6
29960	3e-05	-1e-05	-1e-05	-8e-05	-0.00054	0.0006	-3e-05	-0.00019	6
29961	3e-05	-1e-05	-1e-05	-8e-05	-0.00054	0.0006	-3e-05	-0.00019	6
29962	3e-05	-1e-05	-1e-05	-8e-05	-0.00054	0.0006	-3e-05	-0.00019	6
29963	3e-05	-1e-05	-1e-05	-8e-05	-0.00054	0.0006	-3e-05	-0.00019	6
29964	3e-05	-1e-05	-1e-05	-8e-05	-0.00054	0.0006	-3e-05	-0.00019	6
29965	3e-05	-1e-05	-1e-05	-8e-05	-0.00054	0.0006	-3e-05	-0.00019	6
29966	3e-05	-1e-05	-1e-05	-8e-05	-0.00054	0.0006	-3e-05	-0.00019	6
29967	3e-05	-1e-05	-1e-05	-8e-05	-0.00054	0.0006	-3e-05	-0.00019	6
29968	3e-05	-1e-05	-1e-05	-8e-05	-0.00054	0.0006	-3e-05	-0.00019	6
29969	3e-05	-1e-05	-1e-05	-8e-05	-0.00054	0.0006	-3e-05	-0.00019	6
29970	3e-05	-1e-05	-1e-05	-8e-05	-0.00054	0.0006	-3e-05	-0.00019	6
29971	3e-05	-1e-05	-1e-05	-8e-05	-0.00054	0.0006	-3e-05	-0.00019	6
29972	3e-05	-1e-05	-1e-05	-8e-05	-0.00054	0.0006	-3e-05	-0.00019	6
29973	3e-05	-1e-05	-1e-05	-8e-05	-0.00054	0.0006	-3e-05	-0.00019	6
29974	3e-05	-1e-05	-1e-05	-8e-05	-0.00054	0.0006	-3e-05	-0.00019	6
29975	3e-05	-1e-05	-1e-05	-8e-05	-0.00054	0.0006	-3e-05	-0.00019	6
29976	3e-05	-1e-05	-1e-05	-8e-05	-0.00054	0.0006	-3e-05	-0.00019	6
29977	3e-05	-1e-05	-1e-05	-8e-05	-0.00054	0.0006	-3e-05	-0.00019	6
29978	-2e-05	0.00011	9e-05	5e-05	-0.00098	-0.00019	0.00018	-3e-05	6
29979	-2e-05	0.00011	9e-05	5e-05	-0.00098	-0.00019	0.00018	-3e-05	6
29980	-7e-05	-3e-05	-3e-05	-3e-05	-0.00038	-0.00055	-0.00036	0.00016	6
29981	-7e-05	-3e-05	-3e-05	-3e-05	-0.00038	-0.00055	-0.00036	0.00016	6
29982	-7e-05	-3e-05	-3e-05	-3e-05	-0.00038	-0.00055	-0.00036	0.00016	6
29983	-7e-05	-3e-05	-3e-05	-3e-05	-0.00038	-0.00055	-0.00036	0.00016	6
29984	-7e-05	-3e-05	-3e-05	-3e-05	-0.00038	-0.00055	-0.00036	0.00016	6
29985	-7e-05	-3e-05	-3e-05	-3e-05	-0.00038	-0.00055	-0.00036	0.00016	6
29986	-7e-05	-3e-05	-3e-05	-3e-05	-0.00038	-0.00055	-0.00036	0.00016	6
29988	-7e-05	-3e-05	-3e-05	-3e-05	-0.00038	-0.00055	-0.00036	0.00016	6
29989	-7e-05	-3e-05	-3e-05	-3e-05	-0.00038	-0.00055	-0.00036	0.00016	6
29990	-7e-05	-3e-05	-3e-05	-3e-05	-0.00038	-0.00055	-0.00036	0.00016	6
29991	-7e-05	-3e-05	-3e-05	-3e-05	-0.00038	-0.00055	-0.00036	0.00016	6
29992	-7e-05	-3e-05	-3e-05	-3e-05	-0.00038	-0.00055	-0.00036	0.00016	6
29993	-7e-05	-3e-05	-3e-05	-3e-05	-0.00038	-0.00055	-0.00036	0.00016	6
29994	-7e-05	-3e-05	-3e-05	-3e-05	-0.00038	-0.00055	-0.00036	0.00016	6
29995	-7e-05	-3e-05	-3e-05	-3e-05	-0.00038	-0.00055	-0.00036	0.00016	6
29996	-7e-05	-3e-05	-3e-05	-3e-05	-0.00038	-0.00055	-0.00036	0.00016	6
29997	-7e-05	-3e-05	-3e-05	-3e-05	-0.00038	-0.00055	-0.00036	0.00016	6
29998	-7e-05	-3e-05	-3e-05	-3e-05	-0.00038	-0.00055	-0.00036	0.00016	6
29999	-7e-05	-3e-05	-3e-05	-3e-05	-0.00038	-0.00055	-0.00036	0.00016	6
30000	-7e-05	-3e-05	-3e-05	-3e-05	-0.00038	-0.00055	-0.00036	0.00016	6
30001	-0.0001	-3e-05	-5e-05	-6e-05	-0.00077	-0.00128	-0.00013	0.00035	6
30002	-0.0001	-3e-05	-5e-05	-6e-05	-0.00077	-0.00128	-0.00013	0.00035	6
30003	0.00011	8e-05	6e-05	-1e-05	-0.00054	-0.0007	0.00016	0.00033	6
30004	0.00011	8e-05	6e-05	-1e-05	-0.00054	-0.0007	0.00016	0.00033	6
30005	0.00011	8e-05	6e-05	-1e-05	-0.00054	-0.0007	0.00016	0.00033	6
30006	0.00011	8e-05	6e-05	-1e-05	-0.00054	-0.0007	0.00016	0.00033	6
30007	0.00011	8e-05	6e-05	-1e-05	-0.00054	-0.0007	0.00016	0.00033	6
30008	0.00011	8e-05	6e-05	-1e-05	-0.00054	-0.0007	0.00016	0.00033	6
30009	0.00011	8e-05	6e-05	-1e-05	-0.00054	-0.0007	0.00016	0.00033	6
30010	0.00011	8e-05	6e-05	-1e-05	-0.00054	-0.0007	0.00016	0.00033	6
30011	0.00011	8e-05	6e-05	-1e-05	-0.00054	-0.0007	0.00016	0.00033	6
30012	0.00011	8e-05	6e-05	-1e-05	-0.00054	-0.0007	0.00016	0.00033	6
30013	0.00011	8e-05	6e-05	-1e-05	-0.00054	-0.0007	0.00016	0.00033	6
30014	0.00011	8e-05	6e-05	-1e-05	-0.00054	-0.0007	0.00016	0.00033	6
30015	0.00011	8e-05	6e-05	-1e-05	-0.00054	-0.0007	0.00016	0.00033	6
30016	-6e-05	-2e-05	1e-05	0.00014	0.00098	0.00063	0.00019	-6e-05	6
30017	-6e-05	-2e-05	1e-05	0.00014	0.00098	0.00063	0.00019	-6e-05	6
30018	0.00047	-5e-05	-4e-05	-0.00011	0.00022	0.00025	-0.0001	0.00039	6
30019	0.00047	-5e-05	-4e-05	-0.00011	0.00022	0.00025	-0.0001	0.00039	6
30020	0.00047	-5e-05	-4e-05	-0.00011	0.00022	0.00025	-0.0001	0.00039	6
30021	0.00047	-5e-05	-4e-05	-0.00011	0.00022	0.00025	-0.0001	0.00039	6
30022	0.00047	-5e-05	-4e-05	-0.00011	0.00022	0.00025	-0.0001	0.00039	6
30023	0.00047	-5e-05	-4e-05	-0.00011	0.00022	0.00025	-0.0001	0.00039	6
30024	0.00047	-5e-05	-4e-05	-0.00011	0.00022	0.00025	-0.0001	0.00039	6
30025	0.00047	-5e-05	-4e-05	-0.00011	0.00022	0.00025	-0.0001	0.00039	6
30026	0.00047	-5e-05	-4e-05	-0.00011	0.00022	0.00025	-0.0001	0.00039	6
30027	0.00047	-5e-05	-4e-05	-0.00011	0.00022	0.00025	-0.0001	0.00039	6
30028	0.00047	-5e-05	-4e-05	-0.00011	0.00022	0.00025	-0.0001	0.00039	6
30029	0.00047	-5e-05	-4e-05	-0.00011	0.00022	0.00025	-0.0001	0.00039	6
30030	0.00047	-5e-05	-4e-05	-0.00011	0.00022	0.00025	-0.0001	0.00039	6
30031	0.00047	-5e-05	-4e-05	-0.00011	0.00022	0.00025	-0.0001	0.00039	6
30032	0.00047	-5e-05	-4e-05	-0.00011	0.00022	0.00025	-0.0001	0.00039	6
30033	0.00047	-5e-05	-4e-05	-0.00011	0.00022	0.00025	-0.0001	0.00039	6
30034	0.00047	-5e-05	-4e-05	-0.00011	0.00022	0.00025	-0.0001	0.00039	6
30035	0.00047	-5e-05	-4e-05	-0.00011	0.00022	0.00025	-0.0001	0.00039	6
30042	-5e-05	-6e-05	-7e-05	-0.0001	-0.00041	-0.00053	-9e-05	0.0001	6
30043	-5e-05	-6e-05	-7e-05	-0.0001	-0.00041	-0.00053	-9e-05	0.0001	6
30044	-5e-05	-6e-05	-7e-05	-0.0001	-0.00041	-0.00053	-9e-05	0.0001	6
30045	-5e-05	-6e-05	-7e-05	-0.0001	-0.00041	-0.00053	-9e-05	0.0001	6
30046	-5e-05	-6e-05	-7e-05	-0.0001	-0.00041	-0.00053	-9e-05	0.0001	6
30047	-5e-05	-6e-05	-7e-05	-0.0001	-0.00041	-0.00053	-9e-05	0.0001	6
30048	-5e-05	-6e-05	-7e-05	-0.0001	-0.00041	-0.00053	-9e-05	0.0001	6
30049	-5e-05	-6e-05	-7e-05	-0.0001	-0.00041	-0.00053	-9e-05	0.0001	6
30050	-5e-05	-6e-05	-7e-05	-0.0001	-0.00041	-0.00053	-9e-05	0.0001	6
30051	-5e-05	-6e-05	-7e-05	-0.0001	-0.00041	-0.00053	-9e-05	0.0001	6
30052	-5e-05	-6e-05	-7e-05	-0.0001	-0.00041	-0.00053	-9e-05	0.0001	6
30053	-5e-05	-6e-05	-7e-05	-0.0001	-0.00041	-0.00053	-9e-05	0.0001	6
30054	-5e-05	-6e-05	-7e-05	-0.0001	-0.00041	-0.00053	-9e-05	0.0001	6
30055	-5e-05	-6e-05	-7e-05	-0.0001	-0.00041	-0.00053	-9e-05	0.0001	6
30056	-5e-05	-6e-05	-7e-05	-0.0001	-0.00041	-0.00053	-9e-05	0.0001	6
30057	-5e-05	-6e-05	-7e-05	-0.0001	-0.00041	-0.00053	-9e-05	0.0001	6
30058	-5e-05	-6e-05	-7e-05	-0.0001	-0.00041	-0.00053	-9e-05	0.0001	6
30059	-5e-05	-6e-05	-7e-05	-0.0001	-0.00041	-0.00053	-9e-05	0.0001	6
30060	-5e-05	-6e-05	-7e-05	-0.0001	-0.00041	-0.00053	-9e-05	0.0001	6
30061	-0.00013	-2e-05	-3e-05	0	0.00048	-0.00074	-0.00041	-0.00077	6
30062	0.0001	-3e-05	-4e-05	-0.0001	-0.00062	-0.00037	-6e-05	0.00074	6
30063	-0.00022	-6e-05	-7e-05	-9e-05	-0.00015	0.00061	-9e-05	-0.00053	6
30064	-0.00022	-6e-05	-7e-05	-9e-05	-0.00015	0.00061	-9e-05	-0.00053	6
30065	-0.00022	-6e-05	-7e-05	-9e-05	-0.00015	0.00061	-9e-05	-0.00053	6
30066	-0.00022	-6e-05	-7e-05	-9e-05	-0.00015	0.00061	-9e-05	-0.00053	6
30067	-0.00022	-6e-05	-7e-05	-9e-05	-0.00015	0.00061	-9e-05	-0.00053	6
30068	-0.00022	-6e-05	-7e-05	-9e-05	-0.00015	0.00061	-9e-05	-0.00053	6
30069	-0.00022	-6e-05	-7e-05	-9e-05	-0.00015	0.00061	-9e-05	-0.00053	6
30070	-0.00022	-6e-05	-7e-05	-9e-05	-0.00015	0.00061	-9e-05	-0.00053	6
30071	-0.00022	-6e-05	-7e-05	-9e-05	-0.00015	0.00061	-9e-05	-0.00053	6
30072	-0.00022	-6e-05	-7e-05	-9e-05	-0.00015	0.00061	-9e-05	-0.00053	6
30073	-0.00022	-6e-05	-7e-05	-9e-05	-0.00015	0.00061	-9e-05	-0.00053	6
30074	-0.00022	-6e-05	-7e-05	-9e-05	-0.00015	0.00061	-9e-05	-0.00053	6
30075	-0.00022	-6e-05	-7e-05	-9e-05	-0.00015	0.00061	-9e-05	-0.00053	6
30076	-4e-05	-2e-05	0	5e-05	0.00056	-0.00074	0.00015	-0.00015	6
30077	-4e-05	-2e-05	0	5e-05	0.00056	-0.00074	0.00015	-0.00015	6
30078	-0.00032	4e-05	6e-05	0.0002	0.00116	0.00059	0.00025	1e-05	6
30079	-0.00032	4e-05	6e-05	0.0002	0.00116	0.00059	0.00025	1e-05	6
30080	-0.00032	4e-05	6e-05	0.0002	0.00116	0.00059	0.00025	1e-05	6
30081	-0.00032	4e-05	6e-05	0.0002	0.00116	0.00059	0.00025	1e-05	6
30082	-0.00032	4e-05	6e-05	0.0002	0.00116	0.00059	0.00025	1e-05	6
30083	-0.00032	4e-05	6e-05	0.0002	0.00116	0.00059	0.00025	1e-05	6
30084	-0.00032	4e-05	6e-05	0.0002	0.00116	0.00059	0.00025	1e-05	6
30085	-0.00032	4e-05	6e-05	0.0002	0.00116	0.00059	0.00025	1e-05	6
30086	-0.00032	4e-05	6e-05	0.0002	0.00116	0.00059	0.00025	1e-05	6
30088	-0.00032	4e-05	6e-05	0.0002	0.00116	0.00059	0.00025	1e-05	6
30089	-0.00032	4e-05	6e-05	0.0002	0.00116	0.00059	0.00025	1e-05	6
30090	-0.00032	4e-05	6e-05	0.0002	0.00116	0.00059	0.00025	1e-05	6
30091	-0.00032	4e-05	6e-05	0.0002	0.00116	0.00059	0.00025	1e-05	6
30092	-0.00032	4e-05	6e-05	0.0002	0.00116	0.00059	0.00025	1e-05	6
30093	-0.00032	4e-05	6e-05	0.0002	0.00116	0.00059	0.00025	1e-05	6
30094	-0.00032	4e-05	6e-05	0.0002	0.00116	0.00059	0.00025	1e-05	6
30095	-0.00032	4e-05	6e-05	0.0002	0.00116	0.00059	0.00025	1e-05	6
30096	-0.00032	4e-05	6e-05	0.0002	0.00116	0.00059	0.00025	1e-05	6
30097	-0.00032	4e-05	6e-05	0.0002	0.00116	0.00059	0.00025	1e-05	6
30098	0.00018	-0.00011	-0.00011	-9e-05	-9e-05	0.00094	7e-05	-0.00023	6
30099	0.00012	0	-4e-05	-8e-05	-0.00063	0.00015	0.00013	0.00079	6
30100	2e-05	4e-05	3e-05	3e-05	-4e-05	-0.00073	-0.00018	-0.00029	6
30101	2e-05	4e-05	3e-05	3e-05	-4e-05	-0.00073	-0.00018	-0.00029	6
30102	2e-05	4e-05	3e-05	3e-05	-4e-05	-0.00073	-0.00018	-0.00029	6
30103	2e-05	4e-05	3e-05	3e-05	-4e-05	-0.00073	-0.00018	-0.00029	6
30104	2e-05	4e-05	3e-05	3e-05	-4e-05	-0.00073	-0.00018	-0.00029	6
30105	2e-05	4e-05	3e-05	3e-05	-4e-05	-0.00073	-0.00018	-0.00029	6
30106	2e-05	4e-05	3e-05	3e-05	-4e-05	-0.00073	-0.00018	-0.00029	6
30107	2e-05	4e-05	3e-05	3e-05	-4e-05	-0.00073	-0.00018	-0.00029	6
30108	2e-05	4e-05	3e-05	3e-05	-4e-05	-0.00073	-0.00018	-0.00029	6
30109	2e-05	4e-05	3e-05	3e-05	-4e-05	-0.00073	-0.00018	-0.00029	6
30110	2e-05	4e-05	3e-05	3e-05	-4e-05	-0.00073	-0.00018	-0.00029	6
30111	2e-05	4e-05	3e-05	3e-05	-4e-05	-0.00073	-0.00018	-0.00029	6
30112	2e-05	4e-05	3e-05	3e-05	-4e-05	-0.00073	-0.00018	-0.00029	6
30113	2e-05	4e-05	3e-05	3e-05	-4e-05	-0.00073	-0.00018	-0.00029	6
30114	2e-05	4e-05	3e-05	3e-05	-4e-05	-0.00073	-0.00018	-0.00029	6
30115	2e-05	4e-05	3e-05	3e-05	-4e-05	-0.00073	-0.00018	-0.00029	6
30116	2e-05	4e-05	3e-05	3e-05	-4e-05	-0.00073	-0.00018	-0.00029	6
30117	2e-05	4e-05	3e-05	3e-05	-4e-05	-0.00073	-0.00018	-0.00029	6
30118	2e-05	4e-05	3e-05	3e-05	-4e-05	-0.00073	-0.00018	-0.00029	6
30119	2e-05	4e-05	3e-05	3e-05	-4e-05	-0.00073	-0.00018	-0.00029	6
30120	2e-05	4e-05	3e-05	3e-05	-4e-05	-0.00073	-0.00018	-0.00029	6
30121	-8e-05	-4e-05	-2e-05	1e-05	0.00083	-0.00028	3e-05	0.00102	6
30122	-8e-05	-4e-05	-2e-05	1e-05	0.00083	-0.00028	3e-05	0.00102	6
30123	2e-05	-6e-05	-5e-05	-3e-05	-0.00067	-0.00109	-0.00024	-0.00015	6
30124	2e-05	-6e-05	-5e-05	-3e-05	-0.00067	-0.00109	-0.00024	-0.00015	6
30125	2e-05	-6e-05	-5e-05	-3e-05	-0.00067	-0.00109	-0.00024	-0.00015	6
30126	2e-05	-6e-05	-5e-05	-3e-05	-0.00067	-0.00109	-0.00024	-0.00015	6
30127	2e-05	-6e-05	-5e-05	-3e-05	-0.00067	-0.00109	-0.00024	-0.00015	6
30128	2e-05	-6e-05	-5e-05	-3e-05	-0.00067	-0.00109	-0.00024	-0.00015	6
30129	2e-05	-6e-05	-5e-05	-3e-05	-0.00067	-0.00109	-0.00024	-0.00015	6
30130	2e-05	-6e-05	-5e-05	-3e-05	-0.00067	-0.00109	-0.00024	-0.00015	6
30131	2e-05	-6e-05	-5e-05	-3e-05	-0.00067	-0.00109	-0.00024	-0.00015	6
30132	2e-05	-6e-05	-5e-05	-3e-05	-0.00067	-0.00109	-0.00024	-0.00015	6
30133	2e-05	-6e-05	-5e-05	-3e-05	-0.00067	-0.00109	-0.00024	-0.00015	6
30134	2e-05	-6e-05	-5e-05	-3e-05	-0.00067	-0.00109	-0.00024	-0.00015	6
30135	9e-05	3e-05	4e-05	1e-05	-0.00023	0.00039	0.00015	0.00103	6
30137	9e-05	3e-05	4e-05	1e-05	-0.00023	0.00039	0.00015	0.00103	6
30139	9e-05	3e-05	4e-05	1e-05	-0.00023	0.00039	0.00015	0.00103	6
30140	9e-05	3e-05	4e-05	1e-05	-0.00023	0.00039	0.00015	0.00103	6
30141	9e-05	3e-05	4e-05	1e-05	-0.00023	0.00039	0.00015	0.00103	6
30142	0	1e-05	1e-05	-1e-05	0.00013	0.00014	-0.00013	0.0004	6
30143	0	1e-05	1e-05	-1e-05	0.00013	0.00014	-0.00013	0.0004	6
30144	0	1e-05	1e-05	-1e-05	0.00013	0.00014	-0.00013	0.0004	6
30145	0	1e-05	1e-05	-1e-05	0.00013	0.00014	-0.00013	0.0004	6
30146	0	1e-05	1e-05	-1e-05	0.00013	0.00014	-0.00013	0.0004	6
30147	0	1e-05	1e-05	-1e-05	0.00013	0.00014	-0.00013	0.0004	6
30148	0	1e-05	1e-05	-1e-05	0.00013	0.00014	-0.00013	0.0004	6
30149	0	1e-05	1e-05	-1e-05	0.00013	0.00014	-0.00013	0.0004	6
30150	0	1e-05	1e-05	-1e-05	0.00013	0.00014	-0.00013	0.0004	6
30151	0	1e-05	1e-05	-1e-05	0.00013	0.00014	-0.00013	0.0004	6
30152	0	1e-05	1e-05	-1e-05	0.00013	0.00014	-0.00013	0.0004	6
30153	0	1e-05	1e-05	-1e-05	0.00013	0.00014	-0.00013	0.0004	6
30154	0	1e-05	1e-05	-1e-05	0.00013	0.00014	-0.00013	0.0004	6
30155	0	1e-05	1e-05	-1e-05	0.00013	0.00014	-0.00013	0.0004	6
30156	0	1e-05	1e-05	-1e-05	0.00013	0.00014	-0.00013	0.0004	6
30157	0	1e-05	1e-05	-1e-05	0.00013	0.00014	-0.00013	0.0004	6
30158	-1e-05	-5e-05	-8e-05	-0.00015	-0.0011	-0.00053	3e-05	-0.00053	6
30159	-5e-05	-6e-05	-2e-05	-3e-05	-0.00022	-0.00014	0.00014	8e-05	6
30160	-5e-05	2e-05	4e-05	0.0001	0.00064	-0.00034	0.00022	-6e-05	6
30161	-5e-05	2e-05	4e-05	0.0001	0.00064	-0.00034	0.00022	-6e-05	6
30162	-5e-05	2e-05	4e-05	0.0001	0.00064	-0.00034	0.00022	-6e-05	6
30163	-5e-05	2e-05	4e-05	0.0001	0.00064	-0.00034	0.00022	-6e-05	6
30164	-5e-05	2e-05	4e-05	0.0001	0.00064	-0.00034	0.00022	-6e-05	6
30165	-5e-05	2e-05	4e-05	0.0001	0.00064	-0.00034	0.00022	-6e-05	6
30166	-5e-05	2e-05	4e-05	0.0001	0.00064	-0.00034	0.00022	-6e-05	6
30167	-5e-05	2e-05	4e-05	0.0001	0.00064	-0.00034	0.00022	-6e-05	6
30168	-5e-05	2e-05	4e-05	0.0001	0.00064	-0.00034	0.00022	-6e-05	6
30169	-5e-05	2e-05	4e-05	0.0001	0.00064	-0.00034	0.00022	-6e-05	6
30170	-5e-05	2e-05	4e-05	0.0001	0.00064	-0.00034	0.00022	-6e-05	6
30171	-5e-05	2e-05	4e-05	0.0001	0.00064	-0.00034	0.00022	-6e-05	6
30172	-5e-05	2e-05	4e-05	0.0001	0.00064	-0.00034	0.00022	-6e-05	6
30173	-5e-05	2e-05	4e-05	0.0001	0.00064	-0.00034	0.00022	-6e-05	6
30174	-5e-05	2e-05	4e-05	0.0001	0.00064	-0.00034	0.00022	-6e-05	6
30175	-5e-05	2e-05	4e-05	0.0001	0.00064	-0.00034	0.00022	-6e-05	6
30176	-5e-05	2e-05	4e-05	0.0001	0.00064	-0.00034	0.00022	-6e-05	6
30177	-5e-05	2e-05	4e-05	0.0001	0.00064	-0.00034	0.00022	-6e-05	6
30178	-5e-05	2e-05	4e-05	0.0001	0.00064	-0.00034	0.00022	-6e-05	6
30179	-5e-05	2e-05	4e-05	0.0001	0.00064	-0.00034	0.00022	-6e-05	6
30180	-5e-05	2e-05	4e-05	0.0001	0.00064	-0.00034	0.00022	-6e-05	6
30181	-6e-05	-5e-05	-7e-05	-0.00013	-0.00017	9e-05	7e-05	-0.0003	6
30182	0.00013	-2e-05	-3e-05	-5e-05	-0.00076	-0.00062	0.00013	0.00012	6
30183	-0.00013	-1e-05	-2e-05	-2e-05	0.00039	-0.00084	-0.00018	-0.00036	6
30184	-0.00013	-1e-05	-2e-05	-2e-05	0.00039	-0.00084	-0.00018	-0.00036	6
30185	-0.00013	-1e-05	-2e-05	-2e-05	0.00039	-0.00084	-0.00018	-0.00036	6
30187	-0.00013	-1e-05	-2e-05	-2e-05	0.00039	-0.00084	-0.00018	-0.00036	6
30189	-0.00013	-1e-05	-2e-05	-2e-05	0.00039	-0.00084	-0.00018	-0.00036	6
30190	-0.00013	-1e-05	-2e-05	-2e-05	0.00039	-0.00084	-0.00018	-0.00036	6
30191	-0.00013	-1e-05	-2e-05	-2e-05	0.00039	-0.00084	-0.00018	-0.00036	6
30192	-0.00013	-1e-05	-2e-05	-2e-05	0.00039	-0.00084	-0.00018	-0.00036	6
30193	-0.00013	-1e-05	-2e-05	-2e-05	0.00039	-0.00084	-0.00018	-0.00036	6
30194	-0.00013	-1e-05	-2e-05	-2e-05	0.00039	-0.00084	-0.00018	-0.00036	6
30195	-0.00013	-1e-05	-2e-05	-2e-05	0.00039	-0.00084	-0.00018	-0.00036	6
30196	-0.00013	-1e-05	-2e-05	-2e-05	0.00039	-0.00084	-0.00018	-0.00036	6
30197	-0.00013	-1e-05	-2e-05	-2e-05	0.00039	-0.00084	-0.00018	-0.00036	6
30198	-0.00013	-1e-05	-2e-05	-2e-05	0.00039	-0.00084	-0.00018	-0.00036	6
30199	-0.00013	-1e-05	-2e-05	-2e-05	0.00039	-0.00084	-0.00018	-0.00036	6
30200	-0.00013	-1e-05	-2e-05	-2e-05	0.00039	-0.00084	-0.00018	-0.00036	6
30201	-0.00013	-1e-05	-2e-05	-2e-05	0.00039	-0.00084	-0.00018	-0.00036	6
30202	-0.00013	-1e-05	-2e-05	-2e-05	0.00039	-0.00084	-0.00018	-0.00036	6
30203	-0.00013	-1e-05	-2e-05	-2e-05	0.00039	-0.00084	-0.00018	-0.00036	6
30204	-1e-05	4e-05	6e-05	0.00014	0.00098	0.00067	0.00017	-0.00062	6
30205	0.00019	2e-05	4e-05	3e-05	-5e-05	-0.00022	0.00042	0.00086	6
30206	0.00019	2e-05	4e-05	3e-05	-5e-05	-0.00022	0.00042	0.00086	6
30207	0.00019	2e-05	4e-05	3e-05	-5e-05	-0.00022	0.00042	0.00086	6
30208	0.00019	2e-05	4e-05	3e-05	-5e-05	-0.00022	0.00042	0.00086	6
30209	0.00019	2e-05	4e-05	3e-05	-5e-05	-0.00022	0.00042	0.00086	6
30210	0.00019	2e-05	4e-05	3e-05	-5e-05	-0.00022	0.00042	0.00086	6
30211	0.00019	2e-05	4e-05	3e-05	-5e-05	-0.00022	0.00042	0.00086	6
30212	0.00019	2e-05	4e-05	3e-05	-5e-05	-0.00022	0.00042	0.00086	6
30213	0.00019	2e-05	4e-05	3e-05	-5e-05	-0.00022	0.00042	0.00086	6
30214	0.00019	2e-05	4e-05	3e-05	-5e-05	-0.00022	0.00042	0.00086	6
30215	0.00019	2e-05	4e-05	3e-05	-5e-05	-0.00022	0.00042	0.00086	6
30216	0.00019	2e-05	4e-05	3e-05	-5e-05	-0.00022	0.00042	0.00086	6
30217	0.00019	2e-05	4e-05	3e-05	-5e-05	-0.00022	0.00042	0.00086	6
30218	-6e-05	-7e-05	-4e-05	-5e-05	-0.00031	-0.0007	-0.00031	0.0001	6
30219	-6e-05	-7e-05	-4e-05	-5e-05	-0.00031	-0.0007	-0.00031	0.0001	6
30220	-5e-05	-3e-05	-1e-05	0.00012	0.00059	0.00124	0.00029	-9e-05	6
30221	-5e-05	-3e-05	-1e-05	0.00012	0.00059	0.00124	0.00029	-9e-05	6
30222	-5e-05	-3e-05	-1e-05	0.00012	0.00059	0.00124	0.00029	-9e-05	6
30223	-5e-05	-3e-05	-1e-05	0.00012	0.00059	0.00124	0.00029	-9e-05	6
30224	-5e-05	-3e-05	-1e-05	0.00012	0.00059	0.00124	0.00029	-9e-05	6
30225	-5e-05	-3e-05	-1e-05	0.00012	0.00059	0.00124	0.00029	-9e-05	6
30226	-5e-05	-3e-05	-1e-05	0.00012	0.00059	0.00124	0.00029	-9e-05	6
30227	-5e-05	-3e-05	-1e-05	0.00012	0.00059	0.00124	0.00029	-9e-05	6
30228	-5e-05	-3e-05	-1e-05	0.00012	0.00059	0.00124	0.00029	-9e-05	6
30229	-5e-05	-3e-05	-1e-05	0.00012	0.00059	0.00124	0.00029	-9e-05	6
30230	-5e-05	-3e-05	-1e-05	0.00012	0.00059	0.00124	0.00029	-9e-05	6
30231	-5e-05	-3e-05	-1e-05	0.00012	0.00059	0.00124	0.00029	-9e-05	6
30232	-5e-05	-3e-05	-1e-05	0.00012	0.00059	0.00124	0.00029	-9e-05	6
30233	-5e-05	-3e-05	-1e-05	0.00012	0.00059	0.00124	0.00029	-9e-05	6
30234	-5e-05	-3e-05	-1e-05	0.00012	0.00059	0.00124	0.00029	-9e-05	6
30235	-5e-05	-3e-05	-1e-05	0.00012	0.00059	0.00124	0.00029	-9e-05	6
30236	-5e-05	-3e-05	-1e-05	0.00012	0.00059	0.00124	0.00029	-9e-05	6
30238	-5e-05	-3e-05	-1e-05	0.00012	0.00059	0.00124	0.00029	-9e-05	6
30239	-5e-05	-3e-05	-1e-05	0.00012	0.00059	0.00124	0.00029	-9e-05	6
30240	-5e-05	-3e-05	-1e-05	0.00012	0.00059	0.00124	0.00029	-9e-05	6
30241	-6e-05	-4e-05	-4e-05	-0.00015	-5e-05	-0.00082	-0.00056	-5e-05	6
30242	-6e-05	-4e-05	-4e-05	-0.00015	-5e-05	-0.00082	-0.00056	-5e-05	6
30243	8e-05	-3e-05	-4e-05	-5e-05	-2e-05	-0.00065	0	3e-05	6
30244	8e-05	-3e-05	-4e-05	-5e-05	-2e-05	-0.00065	0	3e-05	6
30245	8e-05	-3e-05	-4e-05	-5e-05	-2e-05	-0.00065	0	3e-05	6
30246	8e-05	-3e-05	-4e-05	-5e-05	-2e-05	-0.00065	0	3e-05	6
30247	8e-05	-3e-05	-4e-05	-5e-05	-2e-05	-0.00065	0	3e-05	6
30248	8e-05	-3e-05	-4e-05	-5e-05	-2e-05	-0.00065	0	3e-05	6
30249	8e-05	-3e-05	-4e-05	-5e-05	-2e-05	-0.00065	0	3e-05	6
30250	8e-05	-3e-05	-4e-05	-5e-05	-2e-05	-0.00065	0	3e-05	6
30251	8e-05	-3e-05	-4e-05	-5e-05	-2e-05	-0.00065	0	3e-05	6
30252	8e-05	-3e-05	-4e-05	-5e-05	-2e-05	-0.00065	0	3e-05	6
30253	8e-05	-3e-05	-4e-05	-5e-05	-2e-05	-0.00065	0	3e-05	6
30254	8e-05	-3e-05	-4e-05	-5e-05	-2e-05	-0.00065	0	3e-05	6
30255	3e-05	4e-05	4e-05	2e-05	-0.00055	0.00097	8e-05	-0.0004	6
30256	3e-05	4e-05	4e-05	2e-05	-0.00055	0.00097	8e-05	-0.0004	6
30257	3e-05	4e-05	4e-05	2e-05	-0.00055	0.00097	8e-05	-0.0004	6
30258	3e-05	4e-05	4e-05	2e-05	-0.00055	0.00097	8e-05	-0.0004	6
30259	3e-05	4e-05	4e-05	2e-05	-0.00055	0.00097	8e-05	-0.0004	6
30260	3e-05	4e-05	4e-05	2e-05	-0.00055	0.00097	8e-05	-0.0004	6
30261	3e-05	4e-05	4e-05	2e-05	-0.00055	0.00097	8e-05	-0.0004	6
30262	5e-05	-2e-05	-9e-05	-9e-05	-6e-05	-0.00054	-0.00019	0.00025	6
30263	5e-05	-2e-05	-9e-05	-9e-05	-6e-05	-0.00054	-0.00019	0.00025	6
30264	5e-05	-2e-05	-9e-05	-9e-05	-6e-05	-0.00054	-0.00019	0.00025	6
30265	5e-05	-2e-05	-9e-05	-9e-05	-6e-05	-0.00054	-0.00019	0.00025	6
30266	5e-05	-2e-05	-9e-05	-9e-05	-6e-05	-0.00054	-0.00019	0.00025	6
30267	5e-05	-2e-05	-9e-05	-9e-05	-6e-05	-0.00054	-0.00019	0.00025	6
30268	5e-05	-2e-05	-9e-05	-9e-05	-6e-05	-0.00054	-0.00019	0.00025	6
30269	5e-05	-2e-05	-9e-05	-9e-05	-6e-05	-0.00054	-0.00019	0.00025	6
30270	5e-05	-2e-05	-9e-05	-9e-05	-6e-05	-0.00054	-0.00019	0.00025	6
30271	5e-05	-2e-05	-9e-05	-9e-05	-6e-05	-0.00054	-0.00019	0.00025	6
30272	5e-05	-2e-05	-9e-05	-9e-05	-6e-05	-0.00054	-0.00019	0.00025	6
30273	5e-05	-2e-05	-9e-05	-9e-05	-6e-05	-0.00054	-0.00019	0.00025	6
30274	5e-05	-2e-05	-9e-05	-9e-05	-6e-05	-0.00054	-0.00019	0.00025	6
30275	5e-05	-2e-05	-9e-05	-9e-05	-6e-05	-0.00054	-0.00019	0.00025	6
30276	5e-05	-2e-05	-9e-05	-9e-05	-6e-05	-0.00054	-0.00019	0.00025	6
30277	5e-05	-2e-05	-9e-05	-9e-05	-6e-05	-0.00054	-0.00019	0.00025	6
30278	5e-05	-2e-05	-9e-05	-9e-05	-6e-05	-0.00054	-0.00019	0.00025	6
30279	6e-05	7e-05	9e-05	0.00017	0.0003	0.00028	0.00017	-0.00029	6
30280	-0.00011	0	-1e-05	-5e-05	-0.00063	-0.00043	-8e-05	-0.00075	6
30281	-0.00011	0	-1e-05	-5e-05	-0.00063	-0.00043	-8e-05	-0.00075	6
30282	-0.00011	0	-1e-05	-5e-05	-0.00063	-0.00043	-8e-05	-0.00075	6
30283	-0.00011	0	-1e-05	-5e-05	-0.00063	-0.00043	-8e-05	-0.00075	6
30284	-0.00011	0	-1e-05	-5e-05	-0.00063	-0.00043	-8e-05	-0.00075	6
30285	-0.00011	0	-1e-05	-5e-05	-0.00063	-0.00043	-8e-05	-0.00075	6
30287	-0.00011	0	-1e-05	-5e-05	-0.00063	-0.00043	-8e-05	-0.00075	6
30289	-0.00011	0	-1e-05	-5e-05	-0.00063	-0.00043	-8e-05	-0.00075	6
30290	-0.00011	0	-1e-05	-5e-05	-0.00063	-0.00043	-8e-05	-0.00075	6
30291	-0.00011	0	-1e-05	-5e-05	-0.00063	-0.00043	-8e-05	-0.00075	6
30292	-0.00011	0	-1e-05	-5e-05	-0.00063	-0.00043	-8e-05	-0.00075	6
30293	-0.00011	0	-1e-05	-5e-05	-0.00063	-0.00043	-8e-05	-0.00075	6
30294	-0.00011	0	-1e-05	-5e-05	-0.00063	-0.00043	-8e-05	-0.00075	6
30295	-0.00011	0	-1e-05	-5e-05	-0.00063	-0.00043	-8e-05	-0.00075	6
30296	-0.00011	0	-1e-05	-5e-05	-0.00063	-0.00043	-8e-05	-0.00075	6
30297	-0.00011	0	-1e-05	-5e-05	-0.00063	-0.00043	-8e-05	-0.00075	6
30298	-0.00011	0	-1e-05	-5e-05	-0.00063	-0.00043	-8e-05	-0.00075	6
30299	-0.00011	0	-1e-05	-5e-05	-0.00063	-0.00043	-8e-05	-0.00075	6
30300	-0.00011	0	-1e-05	-5e-05	-0.00063	-0.00043	-8e-05	-0.00075	6
30301	0.00019	-4e-05	-4e-05	-3e-05	0.00035	0.00109	0.00032	5e-05	6
30302	0.00019	-4e-05	-4e-05	-3e-05	0.00035	0.00109	0.00032	5e-05	6
30303	-0.00026	-0.0001	-0.00012	-0.00027	-0.00042	-0.0008	-0.00024	0.0003	6
30304	-0.00026	-0.0001	-0.00012	-0.00027	-0.00042	-0.0008	-0.00024	0.0003	6
30305	-0.00026	-0.0001	-0.00012	-0.00027	-0.00042	-0.0008	-0.00024	0.0003	6
30306	-0.00026	-0.0001	-0.00012	-0.00027	-0.00042	-0.0008	-0.00024	0.0003	6
30307	-0.00026	-0.0001	-0.00012	-0.00027	-0.00042	-0.0008	-0.00024	0.0003	6
30308	-0.00026	-0.0001	-0.00012	-0.00027	-0.00042	-0.0008	-0.00024	0.0003	6
30309	-0.00026	-0.0001	-0.00012	-0.00027	-0.00042	-0.0008	-0.00024	0.0003	6
30310	-0.00026	-0.0001	-0.00012	-0.00027	-0.00042	-0.0008	-0.00024	0.0003	6
30311	-0.00026	-0.0001	-0.00012	-0.00027	-0.00042	-0.0008	-0.00024	0.0003	6
30312	-0.00026	-0.0001	-0.00012	-0.00027	-0.00042	-0.0008	-0.00024	0.0003	6
30313	-0.00026	-0.0001	-0.00012	-0.00027	-0.00042	-0.0008	-0.00024	0.0003	6
30314	-0.00026	-0.0001	-0.00012	-0.00027	-0.00042	-0.0008	-0.00024	0.0003	6
30315	9e-05	2e-05	3e-05	0.00016	0.0004	0.00078	0.00026	0.00049	6
30316	9e-05	2e-05	3e-05	0.00016	0.0004	0.00078	0.00026	0.00049	6
30317	9e-05	2e-05	3e-05	0.00016	0.0004	0.00078	0.00026	0.00049	6
30318	9e-05	2e-05	3e-05	0.00016	0.0004	0.00078	0.00026	0.00049	6
30319	9e-05	2e-05	3e-05	0.00016	0.0004	0.00078	0.00026	0.00049	6
30320	9e-05	2e-05	3e-05	0.00016	0.0004	0.00078	0.00026	0.00049	6
30321	9e-05	2e-05	3e-05	0.00016	0.0004	0.00078	0.00026	0.00049	6
30322	0.00012	3e-05	4e-05	8e-05	-0.00075	0.00124	5e-05	-8e-05	6
30323	0.00012	3e-05	4e-05	8e-05	-0.00075	0.00124	5e-05	-8e-05	6
30324	0.00012	3e-05	4e-05	8e-05	-0.00075	0.00124	5e-05	-8e-05	6
30325	0.00012	3e-05	4e-05	8e-05	-0.00075	0.00124	5e-05	-8e-05	6
30326	0.00012	3e-05	4e-05	8e-05	-0.00075	0.00124	5e-05	-8e-05	6
30327	0.00012	3e-05	4e-05	8e-05	-0.00075	0.00124	5e-05	-8e-05	6
30328	0.00012	3e-05	4e-05	8e-05	-0.00075	0.00124	5e-05	-8e-05	6
30329	0.00012	3e-05	4e-05	8e-05	-0.00075	0.00124	5e-05	-8e-05	6
30330	0.00012	3e-05	4e-05	8e-05	-0.00075	0.00124	5e-05	-8e-05	6
30331	0.00012	3e-05	4e-05	8e-05	-0.00075	0.00124	5e-05	-8e-05	6
30332	0.00012	3e-05	4e-05	8e-05	-0.00075	0.00124	5e-05	-8e-05	6
30333	0.00012	3e-05	4e-05	8e-05	-0.00075	0.00124	5e-05	-8e-05	6
30334	0.00012	3e-05	4e-05	8e-05	-0.00075	0.00124	5e-05	-8e-05	6
30335	0.00012	3e-05	4e-05	8e-05	-0.00075	0.00124	5e-05	-8e-05	6
30337	0.00012	3e-05	4e-05	8e-05	-0.00075	0.00124	5e-05	-8e-05	6
30340	0	-4e-05	-2e-05	6e-05	0.00031	0.00042	0.00023	-0.00034	6
30341	0	-4e-05	-2e-05	6e-05	0.00031	0.00042	0.00023	-0.00034	6
30342	0	-4e-05	-2e-05	6e-05	0.00031	0.00042	0.00023	-0.00034	6
30343	0	-4e-05	-2e-05	6e-05	0.00031	0.00042	0.00023	-0.00034	6
30344	0	-4e-05	-2e-05	6e-05	0.00031	0.00042	0.00023	-0.00034	6
30345	0	-4e-05	-2e-05	6e-05	0.00031	0.00042	0.00023	-0.00034	6
30346	0	-4e-05	-2e-05	6e-05	0.00031	0.00042	0.00023	-0.00034	6
30347	0	-4e-05	-2e-05	6e-05	0.00031	0.00042	0.00023	-0.00034	6
30348	0	-4e-05	-2e-05	6e-05	0.00031	0.00042	0.00023	-0.00034	6
30349	0	-4e-05	-2e-05	6e-05	0.00031	0.00042	0.00023	-0.00034	6
30350	0	-4e-05	-2e-05	6e-05	0.00031	0.00042	0.00023	-0.00034	6
30351	0	-4e-05	-2e-05	6e-05	0.00031	0.00042	0.00023	-0.00034	6
30352	0	-4e-05	-2e-05	6e-05	0.00031	0.00042	0.00023	-0.00034	6
30353	0	-4e-05	-2e-05	6e-05	0.00031	0.00042	0.00023	-0.00034	6
30354	0	-4e-05	-2e-05	6e-05	0.00031	0.00042	0.00023	-0.00034	6
30355	0	-4e-05	-2e-05	6e-05	0.00031	0.00042	0.00023	-0.00034	6
30356	0	-4e-05	-2e-05	6e-05	0.00031	0.00042	0.00023	-0.00034	6
30357	0	-4e-05	-2e-05	6e-05	0.00031	0.00042	0.00023	-0.00034	6
30358	0	-4e-05	-2e-05	6e-05	0.00031	0.00042	0.00023	-0.00034	6
30359	0	-4e-05	-2e-05	6e-05	0.00031	0.00042	0.00023	-0.00034	6
30360	0	-4e-05	-2e-05	6e-05	0.00031	0.00042	0.00023	-0.00034	6
30361	-6e-05	-1e-05	-3e-05	-2e-05	0.00012	-0.00081	-0.00013	-9e-05	6
30362	-6e-05	-1e-05	-3e-05	-2e-05	0.00012	-0.00081	-0.00013	-9e-05	6
30363	5e-05	6e-05	8e-05	0.00011	0.00061	0.00099	0.00013	0	6
30364	5e-05	6e-05	8e-05	0.00011	0.00061	0.00099	0.00013	0	6
30365	5e-05	6e-05	8e-05	0.00011	0.00061	0.00099	0.00013	0	6
30366	5e-05	6e-05	8e-05	0.00011	0.00061	0.00099	0.00013	0	6
30367	5e-05	6e-05	8e-05	0.00011	0.00061	0.00099	0.00013	0	6
30368	5e-05	6e-05	8e-05	0.00011	0.00061	0.00099	0.00013	0	6
30369	5e-05	6e-05	8e-05	0.00011	0.00061	0.00099	0.00013	0	6
30370	5e-05	6e-05	8e-05	0.00011	0.00061	0.00099	0.00013	0	6
30371	5e-05	6e-05	8e-05	0.00011	0.00061	0.00099	0.00013	0	6
30372	5e-05	6e-05	8e-05	0.00011	0.00061	0.00099	0.00013	0	6
30373	5e-05	6e-05	8e-05	0.00011	0.00061	0.00099	0.00013	0	6
30374	5e-05	6e-05	8e-05	0.00011	0.00061	0.00099	0.00013	0	6
30375	5e-05	6e-05	8e-05	0.00011	0.00061	0.00099	0.00013	0	6
30376	-0.00015	-4e-05	-7e-05	-0.00021	-0.00084	-0.00128	-0.00036	0.00018	6
30377	-0.00015	-4e-05	-7e-05	-0.00021	-0.00084	-0.00128	-0.00036	0.00018	6
30378	-0.00015	-4e-05	-7e-05	-0.00021	-0.00084	-0.00128	-0.00036	0.00018	6
30379	-0.00015	-4e-05	-7e-05	-0.00021	-0.00084	-0.00128	-0.00036	0.00018	6
30380	-0.00015	-4e-05	-7e-05	-0.00021	-0.00084	-0.00128	-0.00036	0.00018	6
30381	-0.00015	-4e-05	-7e-05	-0.00021	-0.00084	-0.00128	-0.00036	0.00018	6
30382	-2e-05	-2e-05	-2e-05	-5e-05	-8e-05	-0.00056	-0.00028	-0.001	6
30383	-2e-05	-2e-05	-2e-05	-5e-05	-8e-05	-0.00056	-0.00028	-0.001	6
30384	-2e-05	-2e-05	-2e-05	-5e-05	-8e-05	-0.00056	-0.00028	-0.001	6
30385	-2e-05	-2e-05	-2e-05	-5e-05	-8e-05	-0.00056	-0.00028	-0.001	6
30386	-2e-05	-2e-05	-2e-05	-5e-05	-8e-05	-0.00056	-0.00028	-0.001	6
30388	-2e-05	-2e-05	-2e-05	-5e-05	-8e-05	-0.00056	-0.00028	-0.001	6
30389	-2e-05	-2e-05	-2e-05	-5e-05	-8e-05	-0.00056	-0.00028	-0.001	6
30390	-2e-05	-2e-05	-2e-05	-5e-05	-8e-05	-0.00056	-0.00028	-0.001	6
30391	-2e-05	-2e-05	-2e-05	-5e-05	-8e-05	-0.00056	-0.00028	-0.001	6
30392	-2e-05	-2e-05	-2e-05	-5e-05	-8e-05	-0.00056	-0.00028	-0.001	6
30393	-2e-05	-2e-05	-2e-05	-5e-05	-8e-05	-0.00056	-0.00028	-0.001	6
30394	-2e-05	-2e-05	-2e-05	-5e-05	-8e-05	-0.00056	-0.00028	-0.001	6
30395	-2e-05	-2e-05	-2e-05	-5e-05	-8e-05	-0.00056	-0.00028	-0.001	6
30396	-2e-05	-2e-05	-2e-05	-5e-05	-8e-05	-0.00056	-0.00028	-0.001	6
30397	-2e-05	-2e-05	-2e-05	-5e-05	-8e-05	-0.00056	-0.00028	-0.001	6
30398	-8e-05	-0.00011	-0.0001	-8e-05	-0.00017	-0.00061	-0.00045	-0.00016	6
30399	0.00012	7e-05	9e-05	0.00029	-0.00021	0.00127	0.00083	-0.00026	6
30400	0	-4e-05	-7e-05	-4e-05	-0.00049	0.00022	4e-05	-0.00025	6
30401	0	-4e-05	-7e-05	-4e-05	-0.00049	0.00022	4e-05	-0.00025	6
30402	0	-4e-05	-7e-05	-4e-05	-0.00049	0.00022	4e-05	-0.00025	6
30403	0	-4e-05	-7e-05	-4e-05	-0.00049	0.00022	4e-05	-0.00025	6
30404	0	-4e-05	-7e-05	-4e-05	-0.00049	0.00022	4e-05	-0.00025	6
30405	0	-4e-05	-7e-05	-4e-05	-0.00049	0.00022	4e-05	-0.00025	6
30406	0	-4e-05	-7e-05	-4e-05	-0.00049	0.00022	4e-05	-0.00025	6
30407	0	-4e-05	-7e-05	-4e-05	-0.00049	0.00022	4e-05	-0.00025	6
30408	0	-4e-05	-7e-05	-4e-05	-0.00049	0.00022	4e-05	-0.00025	6
30409	0	-4e-05	-7e-05	-4e-05	-0.00049	0.00022	4e-05	-0.00025	6
30410	0	-4e-05	-7e-05	-4e-05	-0.00049	0.00022	4e-05	-0.00025	6
30411	0	-4e-05	-7e-05	-4e-05	-0.00049	0.00022	4e-05	-0.00025	6
30412	0	-4e-05	-7e-05	-4e-05	-0.00049	0.00022	4e-05	-0.00025	6
30413	0	-4e-05	-7e-05	-4e-05	-0.00049	0.00022	4e-05	-0.00025	6
30414	0	-4e-05	-7e-05	-4e-05	-0.00049	0.00022	4e-05	-0.00025	6
30415	0	-4e-05	-7e-05	-4e-05	-0.00049	0.00022	4e-05	-0.00025	6
30416	0	-4e-05	-7e-05	-4e-05	-0.00049	0.00022	4e-05	-0.00025	6
30417	0	-4e-05	-7e-05	-4e-05	-0.00049	0.00022	4e-05	-0.00025	6
30418	0	-4e-05	-7e-05	-4e-05	-0.00049	0.00022	4e-05	-0.00025	6
30419	0	-4e-05	-7e-05	-4e-05	-0.00049	0.00022	4e-05	-0.00025	6
30420	0	-4e-05	-7e-05	-4e-05	-0.00049	0.00022	4e-05	-0.00025	6
30421	-0.00024	-0.00011	-0.00014	-0.00015	-5e-05	-0.00073	-0.00033	-1e-05	6
30422	-0.00024	-0.00011	-0.00014	-0.00015	-5e-05	-0.00073	-0.00033	-1e-05	6
30423	-2e-05	-7e-05	-5e-05	-2e-05	0.00041	-0.00057	-2e-05	-0.0005	6
30424	-2e-05	-7e-05	-5e-05	-2e-05	0.00041	-0.00057	-2e-05	-0.0005	6
30425	-2e-05	-7e-05	-5e-05	-2e-05	0.00041	-0.00057	-2e-05	-0.0005	6
30426	-2e-05	-7e-05	-5e-05	-2e-05	0.00041	-0.00057	-2e-05	-0.0005	6
30427	-2e-05	-7e-05	-5e-05	-2e-05	0.00041	-0.00057	-2e-05	-0.0005	6
30428	-2e-05	-7e-05	-5e-05	-2e-05	0.00041	-0.00057	-2e-05	-0.0005	6
30429	-2e-05	-7e-05	-5e-05	-2e-05	0.00041	-0.00057	-2e-05	-0.0005	6
30430	-2e-05	-7e-05	-5e-05	-2e-05	0.00041	-0.00057	-2e-05	-0.0005	6
30431	-2e-05	-7e-05	-5e-05	-2e-05	0.00041	-0.00057	-2e-05	-0.0005	6
30432	-2e-05	-7e-05	-5e-05	-2e-05	0.00041	-0.00057	-2e-05	-0.0005	6
30433	-2e-05	-7e-05	-5e-05	-2e-05	0.00041	-0.00057	-2e-05	-0.0005	6
30434	-2e-05	-7e-05	-5e-05	-2e-05	0.00041	-0.00057	-2e-05	-0.0005	6
30435	-3e-05	5e-05	7e-05	0.00016	4e-05	-0.0003	0.00023	0.00114	6
30437	0.0001	1e-05	0	4e-05	0.00112	0.00039	-2e-05	0.00014	6
30439	0.0001	1e-05	0	4e-05	0.00112	0.00039	-2e-05	0.00014	6
30440	0.0001	1e-05	0	4e-05	0.00112	0.00039	-2e-05	0.00014	6
30441	0.0001	1e-05	0	4e-05	0.00112	0.00039	-2e-05	0.00014	6
30442	-2e-05	1e-05	-1e-05	-0.00012	0.00022	-0.00069	-0.00012	-8e-05	6
30443	-2e-05	1e-05	-1e-05	-0.00012	0.00022	-0.00069	-0.00012	-8e-05	6
30444	-2e-05	1e-05	-1e-05	-0.00012	0.00022	-0.00069	-0.00012	-8e-05	6
30445	-2e-05	1e-05	-1e-05	-0.00012	0.00022	-0.00069	-0.00012	-8e-05	6
30446	-2e-05	1e-05	-1e-05	-0.00012	0.00022	-0.00069	-0.00012	-8e-05	6
30447	-2e-05	1e-05	-1e-05	-0.00012	0.00022	-0.00069	-0.00012	-8e-05	6
30448	-2e-05	1e-05	-1e-05	-0.00012	0.00022	-0.00069	-0.00012	-8e-05	6
30449	-2e-05	1e-05	-1e-05	-0.00012	0.00022	-0.00069	-0.00012	-8e-05	6
30450	-2e-05	1e-05	-1e-05	-0.00012	0.00022	-0.00069	-0.00012	-8e-05	6
30451	-2e-05	1e-05	-1e-05	-0.00012	0.00022	-0.00069	-0.00012	-8e-05	6
30452	-2e-05	1e-05	-1e-05	-0.00012	0.00022	-0.00069	-0.00012	-8e-05	6
30453	-2e-05	1e-05	-1e-05	-0.00012	0.00022	-0.00069	-0.00012	-8e-05	6
30454	-2e-05	1e-05	-1e-05	-0.00012	0.00022	-0.00069	-0.00012	-8e-05	6
30455	-2e-05	1e-05	-1e-05	-0.00012	0.00022	-0.00069	-0.00012	-8e-05	6
30456	-2e-05	1e-05	-1e-05	-0.00012	0.00022	-0.00069	-0.00012	-8e-05	6
30457	-2e-05	1e-05	-1e-05	-0.00012	0.00022	-0.00069	-0.00012	-8e-05	6
30458	0	1e-05	4e-05	0.0001	0.00035	0.00077	0.00029	-3e-05	6
30459	-0.00017	-0.00011	-0.0001	-5e-05	4e-05	-0.00106	-0.00037	-0.00045	6
30460	-0.0001	-0.0001	-0.0001	-0.00012	-0.0002	-0.00079	-0.00028	1e-05	6
30461	-0.0001	-0.0001	-0.0001	-0.00012	-0.0002	-0.00079	-0.00028	1e-05	6
30462	-0.0001	-0.0001	-0.0001	-0.00012	-0.0002	-0.00079	-0.00028	1e-05	6
30463	-0.0001	-0.0001	-0.0001	-0.00012	-0.0002	-0.00079	-0.00028	1e-05	6
30464	-0.0001	-0.0001	-0.0001	-0.00012	-0.0002	-0.00079	-0.00028	1e-05	6
30465	-0.0001	-0.0001	-0.0001	-0.00012	-0.0002	-0.00079	-0.00028	1e-05	6
30466	-0.0001	-0.0001	-0.0001	-0.00012	-0.0002	-0.00079	-0.00028	1e-05	6
30467	-0.0001	-0.0001	-0.0001	-0.00012	-0.0002	-0.00079	-0.00028	1e-05	6
30468	-0.0001	-0.0001	-0.0001	-0.00012	-0.0002	-0.00079	-0.00028	1e-05	6
30469	-0.0001	-0.0001	-0.0001	-0.00012	-0.0002	-0.00079	-0.00028	1e-05	6
30470	-0.0001	-0.0001	-0.0001	-0.00012	-0.0002	-0.00079	-0.00028	1e-05	6
30471	-0.0001	-0.0001	-0.0001	-0.00012	-0.0002	-0.00079	-0.00028	1e-05	6
30472	-0.0001	-0.0001	-0.0001	-0.00012	-0.0002	-0.00079	-0.00028	1e-05	6
30473	-0.0001	-0.0001	-0.0001	-0.00012	-0.0002	-0.00079	-0.00028	1e-05	6
30474	-0.0001	-0.0001	-0.0001	-0.00012	-0.0002	-0.00079	-0.00028	1e-05	6
30475	-0.0001	-0.0001	-0.0001	-0.00012	-0.0002	-0.00079	-0.00028	1e-05	6
30476	-0.0001	-0.0001	-0.0001	-0.00012	-0.0002	-0.00079	-0.00028	1e-05	6
30477	-0.0001	-0.0001	-0.0001	-0.00012	-0.0002	-0.00079	-0.00028	1e-05	6
30478	-0.0001	-0.0001	-0.0001	-0.00012	-0.0002	-0.00079	-0.00028	1e-05	6
30479	-0.0001	-0.0001	-0.0001	-0.00012	-0.0002	-0.00079	-0.00028	1e-05	6
30480	-0.0001	-0.0001	-0.0001	-0.00012	-0.0002	-0.00079	-0.00028	1e-05	6
30481	-0.00017	-1e-05	-2e-05	-9e-05	-0.00052	9e-05	-0.00014	-0.00086	6
30482	-0.00017	-1e-05	-2e-05	-9e-05	-0.00052	9e-05	-0.00014	-0.00086	6
30483	9e-05	7e-05	9e-05	0.00011	0.00039	0.00075	0.00047	0.0005	6
30484	9e-05	7e-05	9e-05	0.00011	0.00039	0.00075	0.00047	0.0005	6
30485	9e-05	7e-05	9e-05	0.00011	0.00039	0.00075	0.00047	0.0005	6
30486	9e-05	7e-05	9e-05	0.00011	0.00039	0.00075	0.00047	0.0005	6
30488	9e-05	7e-05	9e-05	0.00011	0.00039	0.00075	0.00047	0.0005	6
30490	9e-05	7e-05	9e-05	0.00011	0.00039	0.00075	0.00047	0.0005	6
30491	9e-05	7e-05	9e-05	0.00011	0.00039	0.00075	0.00047	0.0005	6
30492	9e-05	7e-05	9e-05	0.00011	0.00039	0.00075	0.00047	0.0005	6
30493	9e-05	7e-05	9e-05	0.00011	0.00039	0.00075	0.00047	0.0005	6
30494	6e-05	-3e-05	-1e-05	0.00011	0.00051	-0.00055	7e-05	0.00049	6
30495	0.00056	2e-05	-1e-05	-0.00012	-0.00059	-0.00053	-0.0002	-0.00073	6
30496	0.00056	2e-05	-1e-05	-0.00012	-0.00059	-0.00053	-0.0002	-0.00073	6
30497	0.00056	2e-05	-1e-05	-0.00012	-0.00059	-0.00053	-0.0002	-0.00073	6
30498	0.00056	2e-05	-1e-05	-0.00012	-0.00059	-0.00053	-0.0002	-0.00073	6
30499	0.00056	2e-05	-1e-05	-0.00012	-0.00059	-0.00053	-0.0002	-0.00073	6
30500	0.00056	2e-05	-1e-05	-0.00012	-0.00059	-0.00053	-0.0002	-0.00073	6
30501	0.00056	2e-05	-1e-05	-0.00012	-0.00059	-0.00053	-0.0002	-0.00073	6
30502	0.00056	2e-05	-1e-05	-0.00012	-0.00059	-0.00053	-0.0002	-0.00073	6
30503	0.00056	2e-05	-1e-05	-0.00012	-0.00059	-0.00053	-0.0002	-0.00073	6
30504	0.00022	2e-05	4e-05	0.0001	0.00067	0.00079	0.00015	0.00044	6
30505	0.00022	2e-05	4e-05	0.0001	0.00067	0.00079	0.00015	0.00044	6
30506	0.00022	2e-05	4e-05	0.0001	0.00067	0.00079	0.00015	0.00044	6
30507	0.00022	2e-05	4e-05	0.0001	0.00067	0.00079	0.00015	0.00044	6
30508	0.00022	2e-05	4e-05	0.0001	0.00067	0.00079	0.00015	0.00044	6
30509	0.00022	2e-05	4e-05	0.0001	0.00067	0.00079	0.00015	0.00044	6
30510	0.00022	2e-05	4e-05	0.0001	0.00067	0.00079	0.00015	0.00044	6
30511	0.00022	2e-05	4e-05	0.0001	0.00067	0.00079	0.00015	0.00044	6
30512	0.00022	2e-05	4e-05	0.0001	0.00067	0.00079	0.00015	0.00044	6
30513	0.00022	2e-05	4e-05	0.0001	0.00067	0.00079	0.00015	0.00044	6
30514	0.00022	2e-05	4e-05	0.0001	0.00067	0.00079	0.00015	0.00044	6
30515	0.00022	2e-05	4e-05	0.0001	0.00067	0.00079	0.00015	0.00044	6
30516	0.00022	2e-05	4e-05	0.0001	0.00067	0.00079	0.00015	0.00044	6
30517	0.00022	2e-05	4e-05	0.0001	0.00067	0.00079	0.00015	0.00044	6
30518	0.00022	2e-05	4e-05	0.0001	0.00067	0.00079	0.00015	0.00044	6
30519	0.00027	-1e-05	-2e-05	-6e-05	-0.00019	-0.00013	7e-05	0.00022	6
30520	-0.00019	2e-05	-1e-05	4e-05	0.00037	-0.00013	5e-05	-0.00047	6
30521	0.00028	6e-05	7e-05	0.00015	0.00054	0.00068	0.00029	0.0006	6
30522	0.00028	6e-05	7e-05	0.00015	0.00054	0.00068	0.00029	0.0006	6
30523	0.00028	6e-05	7e-05	0.00015	0.00054	0.00068	0.00029	0.0006	6
30524	0.00028	6e-05	7e-05	0.00015	0.00054	0.00068	0.00029	0.0006	6
30525	0.00028	6e-05	7e-05	0.00015	0.00054	0.00068	0.00029	0.0006	6
30526	0.00028	6e-05	7e-05	0.00015	0.00054	0.00068	0.00029	0.0006	6
30527	0.00028	6e-05	7e-05	0.00015	0.00054	0.00068	0.00029	0.0006	6
30528	0.00028	6e-05	7e-05	0.00015	0.00054	0.00068	0.00029	0.0006	6
30529	0.00028	6e-05	7e-05	0.00015	0.00054	0.00068	0.00029	0.0006	6
30530	0.00028	6e-05	7e-05	0.00015	0.00054	0.00068	0.00029	0.0006	6
30531	0.00028	6e-05	7e-05	0.00015	0.00054	0.00068	0.00029	0.0006	6
30532	0.00028	6e-05	7e-05	0.00015	0.00054	0.00068	0.00029	0.0006	6
30533	0.00028	6e-05	7e-05	0.00015	0.00054	0.00068	0.00029	0.0006	6
30534	0.00028	6e-05	7e-05	0.00015	0.00054	0.00068	0.00029	0.0006	6
30535	0.00028	6e-05	7e-05	0.00015	0.00054	0.00068	0.00029	0.0006	6
30536	0.00028	6e-05	7e-05	0.00015	0.00054	0.00068	0.00029	0.0006	6
30539	0.00028	6e-05	7e-05	0.00015	0.00054	0.00068	0.00029	0.0006	6
30540	0.00028	6e-05	7e-05	0.00015	0.00054	0.00068	0.00029	0.0006	6
30541	-0.00041	-4e-05	-4e-05	-0.00015	-0.00088	-0.00124	-0.00018	0.00041	6
30542	0.00044	7e-05	5e-05	0.00015	0.00059	0.00057	4e-05	0	6
30543	-0.00047	-6e-05	-5e-05	-8e-05	-0.00072	0.00038	-3e-05	-3e-05	6
30544	-0.00047	-6e-05	-5e-05	-8e-05	-0.00072	0.00038	-3e-05	-3e-05	6
30545	-0.00047	-6e-05	-5e-05	-8e-05	-0.00072	0.00038	-3e-05	-3e-05	6
30546	-0.00047	-6e-05	-5e-05	-8e-05	-0.00072	0.00038	-3e-05	-3e-05	6
30547	-0.00047	-6e-05	-5e-05	-8e-05	-0.00072	0.00038	-3e-05	-3e-05	6
30548	-0.00047	-6e-05	-5e-05	-8e-05	-0.00072	0.00038	-3e-05	-3e-05	6
30549	-0.00047	-6e-05	-5e-05	-8e-05	-0.00072	0.00038	-3e-05	-3e-05	6
30550	-0.00047	-6e-05	-5e-05	-8e-05	-0.00072	0.00038	-3e-05	-3e-05	6
30551	-0.00047	-6e-05	-5e-05	-8e-05	-0.00072	0.00038	-3e-05	-3e-05	6
30552	-0.00047	-6e-05	-5e-05	-8e-05	-0.00072	0.00038	-3e-05	-3e-05	6
30553	-0.00047	-6e-05	-5e-05	-8e-05	-0.00072	0.00038	-3e-05	-3e-05	6
30554	-0.00047	-6e-05	-5e-05	-8e-05	-0.00072	0.00038	-3e-05	-3e-05	6
30555	-0.00047	-6e-05	-5e-05	-8e-05	-0.00072	0.00038	-3e-05	-3e-05	6
30556	-0.00047	-6e-05	-5e-05	-8e-05	-0.00072	0.00038	-3e-05	-3e-05	6
30557	-0.00047	-6e-05	-5e-05	-8e-05	-0.00072	0.00038	-3e-05	-3e-05	6
30558	-0.00047	-6e-05	-5e-05	-8e-05	-0.00072	0.00038	-3e-05	-3e-05	6
30559	-0.00047	-6e-05	-5e-05	-8e-05	-0.00072	0.00038	-3e-05	-3e-05	6
30560	-0.00047	-6e-05	-5e-05	-8e-05	-0.00072	0.00038	-3e-05	-3e-05	6
30561	-0.00047	-6e-05	-5e-05	-8e-05	-0.00072	0.00038	-3e-05	-3e-05	6
30562	-0.00047	-6e-05	-5e-05	-8e-05	-0.00072	0.00038	-3e-05	-3e-05	6
30563	0.00014	-3e-05	-2e-05	-3e-05	0.00034	-0.00041	0.00012	-0.00011	6
30564	-1e-05	4e-05	5e-05	7e-05	-1e-05	0.00071	0.00012	0.00012	6
30565	1e-05	-1e-05	-6e-05	-0.0001	-0.00029	-0.00035	-5e-05	-0.00012	6
30566	1e-05	-1e-05	-6e-05	-0.0001	-0.00029	-0.00035	-5e-05	-0.00012	6
30567	1e-05	-1e-05	-6e-05	-0.0001	-0.00029	-0.00035	-5e-05	-0.00012	6
30568	1e-05	-1e-05	-6e-05	-0.0001	-0.00029	-0.00035	-5e-05	-0.00012	6
30569	1e-05	-1e-05	-6e-05	-0.0001	-0.00029	-0.00035	-5e-05	-0.00012	6
30570	1e-05	-1e-05	-6e-05	-0.0001	-0.00029	-0.00035	-5e-05	-0.00012	6
30571	1e-05	-1e-05	-6e-05	-0.0001	-0.00029	-0.00035	-5e-05	-0.00012	6
30572	1e-05	-1e-05	-6e-05	-0.0001	-0.00029	-0.00035	-5e-05	-0.00012	6
30573	1e-05	-1e-05	-6e-05	-0.0001	-0.00029	-0.00035	-5e-05	-0.00012	6
30574	1e-05	-1e-05	-6e-05	-0.0001	-0.00029	-0.00035	-5e-05	-0.00012	6
30575	1e-05	-1e-05	-6e-05	-0.0001	-0.00029	-0.00035	-5e-05	-0.00012	6
30576	1e-05	-1e-05	-6e-05	-0.0001	-0.00029	-0.00035	-5e-05	-0.00012	6
30577	1e-05	-1e-05	-6e-05	-0.0001	-0.00029	-0.00035	-5e-05	-0.00012	6
30578	1e-05	-1e-05	-6e-05	-0.0001	-0.00029	-0.00035	-5e-05	-0.00012	6
30579	6e-05	-4e-05	-4e-05	-3e-05	0.00094	-0.00026	-8e-05	0.00079	6
30580	0.00013	1e-05	1e-05	0	-0.00036	-0.00056	8e-05	0.00085	6
30581	0.00013	1e-05	1e-05	0	-0.00036	-0.00056	8e-05	0.00085	6
30582	0.00013	1e-05	1e-05	0	-0.00036	-0.00056	8e-05	0.00085	6
30583	0.00013	1e-05	1e-05	0	-0.00036	-0.00056	8e-05	0.00085	6
30584	0.00013	1e-05	1e-05	0	-0.00036	-0.00056	8e-05	0.00085	6
30585	0.00013	1e-05	1e-05	0	-0.00036	-0.00056	8e-05	0.00085	6
30586	0.00013	1e-05	1e-05	0	-0.00036	-0.00056	8e-05	0.00085	6
30588	0.00013	1e-05	1e-05	0	-0.00036	-0.00056	8e-05	0.00085	6
30589	0.00013	1e-05	1e-05	0	-0.00036	-0.00056	8e-05	0.00085	6
30590	0.00013	1e-05	1e-05	0	-0.00036	-0.00056	8e-05	0.00085	6
30591	0.00013	1e-05	1e-05	0	-0.00036	-0.00056	8e-05	0.00085	6
30592	0.00013	1e-05	1e-05	0	-0.00036	-0.00056	8e-05	0.00085	6
30593	0.00013	1e-05	1e-05	0	-0.00036	-0.00056	8e-05	0.00085	6
30594	0.00013	1e-05	1e-05	0	-0.00036	-0.00056	8e-05	0.00085	6
30595	0.00013	1e-05	1e-05	0	-0.00036	-0.00056	8e-05	0.00085	6
30596	0.00013	1e-05	1e-05	0	-0.00036	-0.00056	8e-05	0.00085	6
30597	0.00013	1e-05	1e-05	0	-0.00036	-0.00056	8e-05	0.00085	6
30598	0.00013	1e-05	1e-05	0	-0.00036	-0.00056	8e-05	0.00085	6
30599	0.00013	1e-05	1e-05	0	-0.00036	-0.00056	8e-05	0.00085	6
30600	0.00013	1e-05	1e-05	0	-0.00036	-0.00056	8e-05	0.00085	6
30601	-1e-05	2e-05	2e-05	7e-05	-0.00075	0.00066	0.00014	-0.00099	6
30602	5e-05	0	-7e-05	1e-05	0.00047	-0.0008	0	0.00077	6
30603	-0.00014	-3e-05	-2e-05	4e-05	0.00027	-0.00024	-0.00015	-0.00065	6
30604	-0.00014	-3e-05	-2e-05	4e-05	0.00027	-0.00024	-0.00015	-0.00065	6
30605	-0.00014	-3e-05	-2e-05	4e-05	0.00027	-0.00024	-0.00015	-0.00065	6
30606	-0.00014	-3e-05	-2e-05	4e-05	0.00027	-0.00024	-0.00015	-0.00065	6
30607	-0.00014	-3e-05	-2e-05	4e-05	0.00027	-0.00024	-0.00015	-0.00065	6
30608	-0.00014	-3e-05	-2e-05	4e-05	0.00027	-0.00024	-0.00015	-0.00065	6
30609	-0.00014	-3e-05	-2e-05	4e-05	0.00027	-0.00024	-0.00015	-0.00065	6
30610	-0.00014	-3e-05	-2e-05	4e-05	0.00027	-0.00024	-0.00015	-0.00065	6
30611	-0.00014	-3e-05	-2e-05	4e-05	0.00027	-0.00024	-0.00015	-0.00065	6
30612	-0.00014	-3e-05	-2e-05	4e-05	0.00027	-0.00024	-0.00015	-0.00065	6
30613	-0.00014	-3e-05	-2e-05	4e-05	0.00027	-0.00024	-0.00015	-0.00065	6
30614	-0.00014	-3e-05	-2e-05	4e-05	0.00027	-0.00024	-0.00015	-0.00065	6
30615	-0.00011	-5e-05	-4e-05	0	9e-05	0.0005	-3e-05	0.00018	6
30616	-0.00011	-5e-05	-4e-05	0	9e-05	0.0005	-3e-05	0.00018	6
30617	-0.00011	-5e-05	-4e-05	0	9e-05	0.0005	-3e-05	0.00018	6
30618	-0.00011	-5e-05	-4e-05	0	9e-05	0.0005	-3e-05	0.00018	6
30619	-0.00011	-5e-05	-4e-05	0	9e-05	0.0005	-3e-05	0.00018	6
30620	-0.00011	-5e-05	-4e-05	0	9e-05	0.0005	-3e-05	0.00018	6
30621	-0.00011	-5e-05	-4e-05	0	9e-05	0.0005	-3e-05	0.00018	6
30622	-0.00011	-5e-05	-4e-05	0	9e-05	0.0005	-3e-05	0.00018	6
30623	-0.00011	-5e-05	-4e-05	0	9e-05	0.0005	-3e-05	0.00018	6
30624	5e-05	2e-05	2e-05	-7e-05	-0.00059	-4e-05	4e-05	0.00065	6
30625	5e-05	2e-05	2e-05	-7e-05	-0.00059	-4e-05	4e-05	0.00065	6
30626	5e-05	2e-05	2e-05	-7e-05	-0.00059	-4e-05	4e-05	0.00065	6
30627	5e-05	2e-05	2e-05	-7e-05	-0.00059	-4e-05	4e-05	0.00065	6
30628	5e-05	2e-05	2e-05	-7e-05	-0.00059	-4e-05	4e-05	0.00065	6
30629	5e-05	2e-05	2e-05	-7e-05	-0.00059	-4e-05	4e-05	0.00065	6
30630	5e-05	2e-05	2e-05	-7e-05	-0.00059	-4e-05	4e-05	0.00065	6
30631	5e-05	2e-05	2e-05	-7e-05	-0.00059	-4e-05	4e-05	0.00065	6
30632	5e-05	2e-05	2e-05	-7e-05	-0.00059	-4e-05	4e-05	0.00065	6
30633	5e-05	2e-05	2e-05	-7e-05	-0.00059	-4e-05	4e-05	0.00065	6
30634	5e-05	2e-05	2e-05	-7e-05	-0.00059	-4e-05	4e-05	0.00065	6
30635	5e-05	2e-05	2e-05	-7e-05	-0.00059	-4e-05	4e-05	0.00065	6
30636	5e-05	2e-05	2e-05	-7e-05	-0.00059	-4e-05	4e-05	0.00065	6
30638	5e-05	2e-05	2e-05	-7e-05	-0.00059	-4e-05	4e-05	0.00065	6
30639	-9e-05	2e-05	3e-05	-4e-05	-0.00011	-0.00016	-0.00012	-0.00047	6
30640	-9e-05	0	0	5e-05	0.00077	0.00069	-4e-05	-0.00048	6
30641	-9e-05	0	0	5e-05	0.00077	0.00069	-4e-05	-0.00048	6
30642	-9e-05	0	0	5e-05	0.00077	0.00069	-4e-05	-0.00048	6
30643	-9e-05	0	0	5e-05	0.00077	0.00069	-4e-05	-0.00048	6
30644	-9e-05	0	0	5e-05	0.00077	0.00069	-4e-05	-0.00048	6
30645	-9e-05	0	0	5e-05	0.00077	0.00069	-4e-05	-0.00048	6
30646	-9e-05	0	0	5e-05	0.00077	0.00069	-4e-05	-0.00048	6
30647	-9e-05	0	0	5e-05	0.00077	0.00069	-4e-05	-0.00048	6
30648	-9e-05	0	0	5e-05	0.00077	0.00069	-4e-05	-0.00048	6
30649	-9e-05	0	0	5e-05	0.00077	0.00069	-4e-05	-0.00048	6
30650	-9e-05	0	0	5e-05	0.00077	0.00069	-4e-05	-0.00048	6
30651	-9e-05	0	0	5e-05	0.00077	0.00069	-4e-05	-0.00048	6
30652	-9e-05	0	0	5e-05	0.00077	0.00069	-4e-05	-0.00048	6
30653	-9e-05	0	0	5e-05	0.00077	0.00069	-4e-05	-0.00048	6
30654	-9e-05	0	0	5e-05	0.00077	0.00069	-4e-05	-0.00048	6
30655	-9e-05	0	0	5e-05	0.00077	0.00069	-4e-05	-0.00048	6
30656	-9e-05	0	0	5e-05	0.00077	0.00069	-4e-05	-0.00048	6
30657	-9e-05	0	0	5e-05	0.00077	0.00069	-4e-05	-0.00048	6
30658	-9e-05	0	0	5e-05	0.00077	0.00069	-4e-05	-0.00048	6
30659	-9e-05	0	0	5e-05	0.00077	0.00069	-4e-05	-0.00048	6
30660	-9e-05	0	0	5e-05	0.00077	0.00069	-4e-05	-0.00048	6
30661	0.00013	-1e-05	0	-4e-05	0.00017	-0.00064	-0.00017	0.0005	6
30662	0.00013	-1e-05	0	-4e-05	0.00017	-0.00064	-0.00017	0.0005	6
30663	5e-05	-4e-05	-4e-05	-1e-05	-0.00031	0.0002	-7e-05	-0.00122	6
30664	5e-05	-4e-05	-4e-05	-1e-05	-0.00031	0.0002	-7e-05	-0.00122	6
30665	5e-05	-4e-05	-4e-05	-1e-05	-0.00031	0.0002	-7e-05	-0.00122	6
30666	5e-05	-4e-05	-4e-05	-1e-05	-0.00031	0.0002	-7e-05	-0.00122	6
30667	5e-05	-4e-05	-4e-05	-1e-05	-0.00031	0.0002	-7e-05	-0.00122	6
30668	5e-05	-4e-05	-4e-05	-1e-05	-0.00031	0.0002	-7e-05	-0.00122	6
30669	5e-05	-4e-05	-4e-05	-1e-05	-0.00031	0.0002	-7e-05	-0.00122	6
30670	5e-05	-4e-05	-4e-05	-1e-05	-0.00031	0.0002	-7e-05	-0.00122	6
30671	5e-05	-4e-05	-4e-05	-1e-05	-0.00031	0.0002	-7e-05	-0.00122	6
30672	5e-05	-4e-05	-4e-05	-1e-05	-0.00031	0.0002	-7e-05	-0.00122	6
30673	5e-05	-4e-05	-4e-05	-1e-05	-0.00031	0.0002	-7e-05	-0.00122	6
30674	5e-05	-4e-05	-4e-05	-1e-05	-0.00031	0.0002	-7e-05	-0.00122	6
30675	0	2e-05	3e-05	4e-05	3e-05	0.00029	-1e-05	-0.00026	6
30676	0	2e-05	3e-05	4e-05	3e-05	0.00029	-1e-05	-0.00026	6
30677	0	2e-05	3e-05	4e-05	3e-05	0.00029	-1e-05	-0.00026	6
30678	0	2e-05	3e-05	4e-05	3e-05	0.00029	-1e-05	-0.00026	6
30679	0	2e-05	3e-05	4e-05	3e-05	0.00029	-1e-05	-0.00026	6
30680	0	2e-05	3e-05	4e-05	3e-05	0.00029	-1e-05	-0.00026	6
30681	0	2e-05	3e-05	4e-05	3e-05	0.00029	-1e-05	-0.00026	6
30682	0	2e-05	3e-05	4e-05	3e-05	0.00029	-1e-05	-0.00026	6
30683	0	2e-05	3e-05	4e-05	3e-05	0.00029	-1e-05	-0.00026	6
30684	-3e-05	4e-05	3e-05	6e-05	-0.0004	0.0001	5e-05	-0.00038	6
30685	-3e-05	4e-05	3e-05	6e-05	-0.0004	0.0001	5e-05	-0.00038	6
30686	-3e-05	4e-05	3e-05	6e-05	-0.0004	0.0001	5e-05	-0.00038	6
30688	-3e-05	4e-05	3e-05	6e-05	-0.0004	0.0001	5e-05	-0.00038	6
30689	-3e-05	4e-05	3e-05	6e-05	-0.0004	0.0001	5e-05	-0.00038	6
30690	-3e-05	4e-05	3e-05	6e-05	-0.0004	0.0001	5e-05	-0.00038	6
30691	-3e-05	4e-05	3e-05	6e-05	-0.0004	0.0001	5e-05	-0.00038	6
30692	-3e-05	4e-05	3e-05	6e-05	-0.0004	0.0001	5e-05	-0.00038	6
30693	-3e-05	4e-05	3e-05	6e-05	-0.0004	0.0001	5e-05	-0.00038	6
30694	-3e-05	4e-05	3e-05	6e-05	-0.0004	0.0001	5e-05	-0.00038	6
30695	-3e-05	4e-05	3e-05	6e-05	-0.0004	0.0001	5e-05	-0.00038	6
30696	-3e-05	4e-05	3e-05	6e-05	-0.0004	0.0001	5e-05	-0.00038	6
30697	-3e-05	4e-05	3e-05	6e-05	-0.0004	0.0001	5e-05	-0.00038	6
30698	-3e-05	4e-05	3e-05	6e-05	-0.0004	0.0001	5e-05	-0.00038	6
30699	-0.00028	-3e-05	-1e-05	-6e-05	-0.00026	-0.00022	-0.00028	-0.00052	6
30700	6e-05	-6e-05	-8e-05	-5e-05	7e-05	-0.00015	-5e-05	-0.00024	6
30701	6e-05	-6e-05	-8e-05	-5e-05	7e-05	-0.00015	-5e-05	-0.00024	6
30702	6e-05	-6e-05	-8e-05	-5e-05	7e-05	-0.00015	-5e-05	-0.00024	6
30703	6e-05	-6e-05	-8e-05	-5e-05	7e-05	-0.00015	-5e-05	-0.00024	6
30704	6e-05	-6e-05	-8e-05	-5e-05	7e-05	-0.00015	-5e-05	-0.00024	6
30705	6e-05	-6e-05	-8e-05	-5e-05	7e-05	-0.00015	-5e-05	-0.00024	6
30706	6e-05	-6e-05	-8e-05	-5e-05	7e-05	-0.00015	-5e-05	-0.00024	6
30707	6e-05	-6e-05	-8e-05	-5e-05	7e-05	-0.00015	-5e-05	-0.00024	6
30708	6e-05	-6e-05	-8e-05	-5e-05	7e-05	-0.00015	-5e-05	-0.00024	6
30709	6e-05	-6e-05	-8e-05	-5e-05	7e-05	-0.00015	-5e-05	-0.00024	6
30710	6e-05	-6e-05	-8e-05	-5e-05	7e-05	-0.00015	-5e-05	-0.00024	6
30711	6e-05	-6e-05	-8e-05	-5e-05	7e-05	-0.00015	-5e-05	-0.00024	6
30712	6e-05	-6e-05	-8e-05	-5e-05	7e-05	-0.00015	-5e-05	-0.00024	6
30713	6e-05	-6e-05	-8e-05	-5e-05	7e-05	-0.00015	-5e-05	-0.00024	6
30714	6e-05	-6e-05	-8e-05	-5e-05	7e-05	-0.00015	-5e-05	-0.00024	6
30715	6e-05	-6e-05	-8e-05	-5e-05	7e-05	-0.00015	-5e-05	-0.00024	6
30716	6e-05	-6e-05	-8e-05	-5e-05	7e-05	-0.00015	-5e-05	-0.00024	6
30717	6e-05	-6e-05	-8e-05	-5e-05	7e-05	-0.00015	-5e-05	-0.00024	6
30718	6e-05	-6e-05	-8e-05	-5e-05	7e-05	-0.00015	-5e-05	-0.00024	6
30720	6e-05	-6e-05	-8e-05	-5e-05	7e-05	-0.00015	-5e-05	-0.00024	6
30721	-0.00011	-4e-05	-4e-05	-5e-05	4e-05	0.00117	-3e-05	2e-05	6
30722	0.00013	0	0	4e-05	0.00022	-0.00071	0.00013	0.00108	6
30723	8e-05	3e-05	4e-05	8e-05	0.00036	0.00054	2e-05	0.00068	6
30724	8e-05	3e-05	4e-05	8e-05	0.00036	0.00054	2e-05	0.00068	6
30725	8e-05	3e-05	4e-05	8e-05	0.00036	0.00054	2e-05	0.00068	6
30726	8e-05	3e-05	4e-05	8e-05	0.00036	0.00054	2e-05	0.00068	6
30727	8e-05	3e-05	4e-05	8e-05	0.00036	0.00054	2e-05	0.00068	6
30728	8e-05	3e-05	4e-05	8e-05	0.00036	0.00054	2e-05	0.00068	6
30729	8e-05	3e-05	4e-05	8e-05	0.00036	0.00054	2e-05	0.00068	6
30730	8e-05	3e-05	4e-05	8e-05	0.00036	0.00054	2e-05	0.00068	6
30731	8e-05	3e-05	4e-05	8e-05	0.00036	0.00054	2e-05	0.00068	6
30732	8e-05	3e-05	4e-05	8e-05	0.00036	0.00054	2e-05	0.00068	6
30733	8e-05	3e-05	4e-05	8e-05	0.00036	0.00054	2e-05	0.00068	6
30734	8e-05	3e-05	4e-05	8e-05	0.00036	0.00054	2e-05	0.00068	6
30735	-0.00012	-3e-05	-7e-05	-0.00014	-0.0005	-0.00063	-0.00021	0.00025	6
30736	-0.00012	-3e-05	-7e-05	-0.00014	-0.0005	-0.00063	-0.00021	0.00025	6
30739	-0.00012	-3e-05	-7e-05	-0.00014	-0.0005	-0.00063	-0.00021	0.00025	6
30740	-0.00012	-3e-05	-7e-05	-0.00014	-0.0005	-0.00063	-0.00021	0.00025	6
30741	-0.00012	-3e-05	-7e-05	-0.00014	-0.0005	-0.00063	-0.00021	0.00025	6
30742	-0.00012	-3e-05	-7e-05	-0.00014	-0.0005	-0.00063	-0.00021	0.00025	6
30743	-0.00012	-3e-05	-7e-05	-0.00014	-0.0005	-0.00063	-0.00021	0.00025	6
30744	-0.00011	-3e-05	-3e-05	-5e-05	0.00024	-0.00102	-0.00013	0.00023	6
30745	-0.00011	-3e-05	-3e-05	-5e-05	0.00024	-0.00102	-0.00013	0.00023	6
30746	-0.00011	-3e-05	-3e-05	-5e-05	0.00024	-0.00102	-0.00013	0.00023	6
30747	-0.00011	-3e-05	-3e-05	-5e-05	0.00024	-0.00102	-0.00013	0.00023	6
30748	-0.00011	-3e-05	-3e-05	-5e-05	0.00024	-0.00102	-0.00013	0.00023	6
30749	-0.00011	-3e-05	-3e-05	-5e-05	0.00024	-0.00102	-0.00013	0.00023	6
30750	-0.00011	-3e-05	-3e-05	-5e-05	0.00024	-0.00102	-0.00013	0.00023	6
30751	-0.00011	-3e-05	-3e-05	-5e-05	0.00024	-0.00102	-0.00013	0.00023	6
30752	-0.00011	-3e-05	-3e-05	-5e-05	0.00024	-0.00102	-0.00013	0.00023	6
30753	-0.00011	-3e-05	-3e-05	-5e-05	0.00024	-0.00102	-0.00013	0.00023	6
30754	-0.00011	-3e-05	-3e-05	-5e-05	0.00024	-0.00102	-0.00013	0.00023	6
30755	-0.00011	-3e-05	-3e-05	-5e-05	0.00024	-0.00102	-0.00013	0.00023	6
30756	-0.00011	-3e-05	-3e-05	-5e-05	0.00024	-0.00102	-0.00013	0.00023	6
30757	-0.00011	-3e-05	-3e-05	-5e-05	0.00024	-0.00102	-0.00013	0.00023	6
30758	-8e-05	-1e-05	0	8e-05	0.00032	0	4e-05	0.00056	6
30759	-8e-05	-1e-05	0	8e-05	0.00032	0	4e-05	0.00056	6
30760	-5e-05	-2e-05	0	-2e-05	-0.00071	-0.00093	-0.00013	-2e-05	6
30761	-5e-05	-2e-05	0	-2e-05	-0.00071	-0.00093	-0.00013	-2e-05	6
30762	-5e-05	-2e-05	0	-2e-05	-0.00071	-0.00093	-0.00013	-2e-05	6
30763	-5e-05	-2e-05	0	-2e-05	-0.00071	-0.00093	-0.00013	-2e-05	6
30764	-5e-05	-2e-05	0	-2e-05	-0.00071	-0.00093	-0.00013	-2e-05	6
30765	-5e-05	-2e-05	0	-2e-05	-0.00071	-0.00093	-0.00013	-2e-05	6
30766	-5e-05	-2e-05	0	-2e-05	-0.00071	-0.00093	-0.00013	-2e-05	6
30767	-5e-05	-2e-05	0	-2e-05	-0.00071	-0.00093	-0.00013	-2e-05	6
30768	-5e-05	-2e-05	0	-2e-05	-0.00071	-0.00093	-0.00013	-2e-05	6
30769	-5e-05	-2e-05	0	-2e-05	-0.00071	-0.00093	-0.00013	-2e-05	6
30770	-5e-05	-2e-05	0	-2e-05	-0.00071	-0.00093	-0.00013	-2e-05	6
30771	-5e-05	-2e-05	0	-2e-05	-0.00071	-0.00093	-0.00013	-2e-05	6
30772	-5e-05	-2e-05	0	-2e-05	-0.00071	-0.00093	-0.00013	-2e-05	6
30773	-5e-05	-2e-05	0	-2e-05	-0.00071	-0.00093	-0.00013	-2e-05	6
30774	-5e-05	-2e-05	0	-2e-05	-0.00071	-0.00093	-0.00013	-2e-05	6
30775	-5e-05	-2e-05	0	-2e-05	-0.00071	-0.00093	-0.00013	-2e-05	6
30776	-5e-05	-2e-05	0	-2e-05	-0.00071	-0.00093	-0.00013	-2e-05	6
30777	-5e-05	-2e-05	0	-2e-05	-0.00071	-0.00093	-0.00013	-2e-05	6
30778	-5e-05	-2e-05	0	-2e-05	-0.00071	-0.00093	-0.00013	-2e-05	6
30779	-5e-05	-2e-05	0	-2e-05	-0.00071	-0.00093	-0.00013	-2e-05	6
30780	-5e-05	-2e-05	0	-2e-05	-0.00071	-0.00093	-0.00013	-2e-05	6
30781	0.00011	-7e-05	-9e-05	-0.00015	-2e-05	4e-05	4e-05	0.00059	6
30782	0.00011	-7e-05	-9e-05	-0.00015	-2e-05	4e-05	4e-05	0.00059	6
30783	0.00025	3e-05	-1e-05	4e-05	0.00013	-0.00038	0	-0.00045	6
30784	0.00025	3e-05	-1e-05	4e-05	0.00013	-0.00038	0	-0.00045	6
30785	0.00025	3e-05	-1e-05	4e-05	0.00013	-0.00038	0	-0.00045	6
30787	0.00025	3e-05	-1e-05	4e-05	0.00013	-0.00038	0	-0.00045	6
30790	0.00025	3e-05	-1e-05	4e-05	0.00013	-0.00038	0	-0.00045	6
30791	0.00025	3e-05	-1e-05	4e-05	0.00013	-0.00038	0	-0.00045	6
30792	0.00025	3e-05	-1e-05	4e-05	0.00013	-0.00038	0	-0.00045	6
30793	0.00025	3e-05	-1e-05	4e-05	0.00013	-0.00038	0	-0.00045	6
30794	0.00025	3e-05	-1e-05	4e-05	0.00013	-0.00038	0	-0.00045	6
30795	0.00011	3e-05	1e-05	2e-05	-0.00025	-0.00076	-4e-05	-0.00121	6
30796	0.00011	3e-05	1e-05	2e-05	-0.00025	-0.00076	-4e-05	-0.00121	6
30797	0.00011	3e-05	1e-05	2e-05	-0.00025	-0.00076	-4e-05	-0.00121	6
30798	0.00011	3e-05	1e-05	2e-05	-0.00025	-0.00076	-4e-05	-0.00121	6
30799	0.00011	3e-05	1e-05	2e-05	-0.00025	-0.00076	-4e-05	-0.00121	6
30800	0.00011	3e-05	1e-05	2e-05	-0.00025	-0.00076	-4e-05	-0.00121	6
30801	0.00011	3e-05	1e-05	2e-05	-0.00025	-0.00076	-4e-05	-0.00121	6
30802	0.00011	3e-05	1e-05	2e-05	-0.00025	-0.00076	-4e-05	-0.00121	6
30803	0.00011	3e-05	1e-05	2e-05	-0.00025	-0.00076	-4e-05	-0.00121	6
30804	0.00027	-5e-05	-6e-05	-0.00015	-0.00057	-0.00051	-3e-05	0.00016	6
30805	0.00027	-5e-05	-6e-05	-0.00015	-0.00057	-0.00051	-3e-05	0.00016	6
30806	0.00027	-5e-05	-6e-05	-0.00015	-0.00057	-0.00051	-3e-05	0.00016	6
30807	0.00027	-5e-05	-6e-05	-0.00015	-0.00057	-0.00051	-3e-05	0.00016	6
30808	0.00027	-5e-05	-6e-05	-0.00015	-0.00057	-0.00051	-3e-05	0.00016	6
30809	0.00027	-5e-05	-6e-05	-0.00015	-0.00057	-0.00051	-3e-05	0.00016	6
30810	0.00027	-5e-05	-6e-05	-0.00015	-0.00057	-0.00051	-3e-05	0.00016	6
30811	0.00027	-5e-05	-6e-05	-0.00015	-0.00057	-0.00051	-3e-05	0.00016	6
30812	0.00027	-5e-05	-6e-05	-0.00015	-0.00057	-0.00051	-3e-05	0.00016	6
30813	0.00027	-5e-05	-6e-05	-0.00015	-0.00057	-0.00051	-3e-05	0.00016	6
30814	0.00027	-5e-05	-6e-05	-0.00015	-0.00057	-0.00051	-3e-05	0.00016	6
30815	0.00027	-5e-05	-6e-05	-0.00015	-0.00057	-0.00051	-3e-05	0.00016	6
30816	0.00027	-5e-05	-6e-05	-0.00015	-0.00057	-0.00051	-3e-05	0.00016	6
30817	0.00027	-5e-05	-6e-05	-0.00015	-0.00057	-0.00051	-3e-05	0.00016	6
30818	9e-05	0	-1e-05	6e-05	0.0003	-0.00021	-1e-05	-7e-05	6
30819	9e-05	0	-1e-05	6e-05	0.0003	-0.00021	-1e-05	-7e-05	6
30820	-0.00017	4e-05	8e-05	0.00011	0.00052	0.00031	-2e-05	-0.00037	6
30821	-0.00017	4e-05	8e-05	0.00011	0.00052	0.00031	-2e-05	-0.00037	6
30822	-0.00017	4e-05	8e-05	0.00011	0.00052	0.00031	-2e-05	-0.00037	6
30823	-0.00017	4e-05	8e-05	0.00011	0.00052	0.00031	-2e-05	-0.00037	6
30824	-0.00017	4e-05	8e-05	0.00011	0.00052	0.00031	-2e-05	-0.00037	6
30825	-0.00017	4e-05	8e-05	0.00011	0.00052	0.00031	-2e-05	-0.00037	6
30826	-0.00017	4e-05	8e-05	0.00011	0.00052	0.00031	-2e-05	-0.00037	6
30827	-0.00017	4e-05	8e-05	0.00011	0.00052	0.00031	-2e-05	-0.00037	6
30828	-0.00017	4e-05	8e-05	0.00011	0.00052	0.00031	-2e-05	-0.00037	6
30829	-0.00017	4e-05	8e-05	0.00011	0.00052	0.00031	-2e-05	-0.00037	6
30830	-0.00017	4e-05	8e-05	0.00011	0.00052	0.00031	-2e-05	-0.00037	6
30831	-0.00017	4e-05	8e-05	0.00011	0.00052	0.00031	-2e-05	-0.00037	6
30832	-0.00017	4e-05	8e-05	0.00011	0.00052	0.00031	-2e-05	-0.00037	6
30833	-0.00017	4e-05	8e-05	0.00011	0.00052	0.00031	-2e-05	-0.00037	6
30834	-0.00017	4e-05	8e-05	0.00011	0.00052	0.00031	-2e-05	-0.00037	6
30835	-0.00017	4e-05	8e-05	0.00011	0.00052	0.00031	-2e-05	-0.00037	6
30836	-0.00017	4e-05	8e-05	0.00011	0.00052	0.00031	-2e-05	-0.00037	6
30839	-0.00017	4e-05	8e-05	0.00011	0.00052	0.00031	-2e-05	-0.00037	6
30840	-0.00017	4e-05	8e-05	0.00011	0.00052	0.00031	-2e-05	-0.00037	6
30841	-0.00018	-2e-05	0	2e-05	0.00032	0.00062	0.00025	-0.00048	6
30842	-0.00018	-2e-05	0	2e-05	0.00032	0.00062	0.00025	-0.00048	6
30843	-0.00027	-9e-05	-9e-05	-0.00018	-0.00073	-0.00128	-0.00035	0.0001	6
30844	-0.00027	-9e-05	-9e-05	-0.00018	-0.00073	-0.00128	-0.00035	0.0001	6
30845	-0.00027	-9e-05	-9e-05	-0.00018	-0.00073	-0.00128	-0.00035	0.0001	6
30846	-0.00027	-9e-05	-9e-05	-0.00018	-0.00073	-0.00128	-0.00035	0.0001	6
30847	-0.00027	-9e-05	-9e-05	-0.00018	-0.00073	-0.00128	-0.00035	0.0001	6
30848	-0.00027	-9e-05	-9e-05	-0.00018	-0.00073	-0.00128	-0.00035	0.0001	6
30849	-0.00027	-9e-05	-9e-05	-0.00018	-0.00073	-0.00128	-0.00035	0.0001	6
30850	-0.00027	-9e-05	-9e-05	-0.00018	-0.00073	-0.00128	-0.00035	0.0001	6
30851	-0.00027	-9e-05	-9e-05	-0.00018	-0.00073	-0.00128	-0.00035	0.0001	6
30852	-0.00027	-9e-05	-9e-05	-0.00018	-0.00073	-0.00128	-0.00035	0.0001	6
30853	-0.00027	-9e-05	-9e-05	-0.00018	-0.00073	-0.00128	-0.00035	0.0001	6
30854	-0.00027	-9e-05	-9e-05	-0.00018	-0.00073	-0.00128	-0.00035	0.0001	6
30855	-0.00036	3e-05	5e-05	2e-05	-0.00017	0.00027	0.00018	0.00032	6
30856	-0.00036	3e-05	5e-05	2e-05	-0.00017	0.00027	0.00018	0.00032	6
30857	-0.00036	3e-05	5e-05	2e-05	-0.00017	0.00027	0.00018	0.00032	6
30858	-0.00036	3e-05	5e-05	2e-05	-0.00017	0.00027	0.00018	0.00032	6
30860	-0.00036	3e-05	5e-05	2e-05	-0.00017	0.00027	0.00018	0.00032	6
30861	-0.00036	3e-05	5e-05	2e-05	-0.00017	0.00027	0.00018	0.00032	6
30862	-0.00036	3e-05	5e-05	2e-05	-0.00017	0.00027	0.00018	0.00032	6
30863	-0.00036	3e-05	5e-05	2e-05	-0.00017	0.00027	0.00018	0.00032	6
30864	-0.00019	-5e-05	-3e-05	-8e-05	-0.00015	0.00057	2e-05	-0.00038	6
30865	-0.00019	-5e-05	-3e-05	-8e-05	-0.00015	0.00057	2e-05	-0.00038	6
30866	-0.00019	-5e-05	-3e-05	-8e-05	-0.00015	0.00057	2e-05	-0.00038	6
30867	-0.00019	-5e-05	-3e-05	-8e-05	-0.00015	0.00057	2e-05	-0.00038	6
30868	-0.00019	-5e-05	-3e-05	-8e-05	-0.00015	0.00057	2e-05	-0.00038	6
30869	-0.00019	-5e-05	-3e-05	-8e-05	-0.00015	0.00057	2e-05	-0.00038	6
30870	-0.00019	-5e-05	-3e-05	-8e-05	-0.00015	0.00057	2e-05	-0.00038	6
30871	-0.00019	-5e-05	-3e-05	-8e-05	-0.00015	0.00057	2e-05	-0.00038	6
30872	-0.00019	-5e-05	-3e-05	-8e-05	-0.00015	0.00057	2e-05	-0.00038	6
30873	-0.00019	-5e-05	-3e-05	-8e-05	-0.00015	0.00057	2e-05	-0.00038	6
30874	-0.00019	-5e-05	-3e-05	-8e-05	-0.00015	0.00057	2e-05	-0.00038	6
30875	-0.00019	-5e-05	-3e-05	-8e-05	-0.00015	0.00057	2e-05	-0.00038	6
30876	-0.00019	-5e-05	-3e-05	-8e-05	-0.00015	0.00057	2e-05	-0.00038	6
30877	-0.00019	-5e-05	-3e-05	-8e-05	-0.00015	0.00057	2e-05	-0.00038	6
30878	0.00011	-3e-05	-6e-05	-2e-05	-6e-05	-0.00062	-6e-05	0.00035	6
30879	-3e-05	-3e-05	-4e-05	-6e-05	0.00028	0.00036	2e-05	-0.00024	6
30880	7e-05	2e-05	0	-4e-05	-0.00064	-0.00069	1e-05	0.0001	6
30881	7e-05	2e-05	0	-4e-05	-0.00064	-0.00069	1e-05	0.0001	6
30882	7e-05	2e-05	0	-4e-05	-0.00064	-0.00069	1e-05	0.0001	6
30883	7e-05	2e-05	0	-4e-05	-0.00064	-0.00069	1e-05	0.0001	6
30884	7e-05	2e-05	0	-4e-05	-0.00064	-0.00069	1e-05	0.0001	6
30885	7e-05	2e-05	0	-4e-05	-0.00064	-0.00069	1e-05	0.0001	6
30886	7e-05	2e-05	0	-4e-05	-0.00064	-0.00069	1e-05	0.0001	6
30889	7e-05	2e-05	0	-4e-05	-0.00064	-0.00069	1e-05	0.0001	6
30890	7e-05	2e-05	0	-4e-05	-0.00064	-0.00069	1e-05	0.0001	6
30891	7e-05	2e-05	0	-4e-05	-0.00064	-0.00069	1e-05	0.0001	6
30892	7e-05	2e-05	0	-4e-05	-0.00064	-0.00069	1e-05	0.0001	6
30893	7e-05	2e-05	0	-4e-05	-0.00064	-0.00069	1e-05	0.0001	6
30894	7e-05	2e-05	0	-4e-05	-0.00064	-0.00069	1e-05	0.0001	6
30895	7e-05	2e-05	0	-4e-05	-0.00064	-0.00069	1e-05	0.0001	6
30896	7e-05	2e-05	0	-4e-05	-0.00064	-0.00069	1e-05	0.0001	6
30897	7e-05	2e-05	0	-4e-05	-0.00064	-0.00069	1e-05	0.0001	6
30898	7e-05	2e-05	0	-4e-05	-0.00064	-0.00069	1e-05	0.0001	6
30899	7e-05	2e-05	0	-4e-05	-0.00064	-0.00069	1e-05	0.0001	6
30900	7e-05	2e-05	0	-4e-05	-0.00064	-0.00069	1e-05	0.0001	6
30901	0.00014	5e-05	3e-05	5e-05	-1e-05	0.00018	-0.00011	5e-05	6
30902	-0.00018	-0.0001	-0.00011	-0.00014	-0.00033	-0.00108	-0.0001	0.00087	6
30903	8e-05	0	-2e-05	-9e-05	0.00019	-0.00015	-4e-05	-2e-05	6
30904	8e-05	0	-2e-05	-9e-05	0.00019	-0.00015	-4e-05	-2e-05	6
30905	8e-05	0	-2e-05	-9e-05	0.00019	-0.00015	-4e-05	-2e-05	6
30906	8e-05	0	-2e-05	-9e-05	0.00019	-0.00015	-4e-05	-2e-05	6
30907	8e-05	0	-2e-05	-9e-05	0.00019	-0.00015	-4e-05	-2e-05	6
30908	8e-05	0	-2e-05	-9e-05	0.00019	-0.00015	-4e-05	-2e-05	6
30909	8e-05	0	-2e-05	-9e-05	0.00019	-0.00015	-4e-05	-2e-05	6
30910	8e-05	0	-2e-05	-9e-05	0.00019	-0.00015	-4e-05	-2e-05	6
30911	8e-05	0	-2e-05	-9e-05	0.00019	-0.00015	-4e-05	-2e-05	6
30912	8e-05	0	-2e-05	-9e-05	0.00019	-0.00015	-4e-05	-2e-05	6
30913	8e-05	0	-2e-05	-9e-05	0.00019	-0.00015	-4e-05	-2e-05	6
30914	8e-05	0	-2e-05	-9e-05	0.00019	-0.00015	-4e-05	-2e-05	6
30915	8e-05	0	-2e-05	-9e-05	0.00019	-0.00015	-4e-05	-2e-05	6
30917	8e-05	0	-2e-05	-9e-05	0.00019	-0.00015	-4e-05	-2e-05	6
30918	8e-05	0	-2e-05	-9e-05	0.00019	-0.00015	-4e-05	-2e-05	6
30919	8e-05	0	-2e-05	-9e-05	0.00019	-0.00015	-4e-05	-2e-05	6
30920	8e-05	0	-2e-05	-9e-05	0.00019	-0.00015	-4e-05	-2e-05	6
30921	8e-05	0	-2e-05	-9e-05	0.00019	-0.00015	-4e-05	-2e-05	6
30922	8e-05	0	-2e-05	-9e-05	0.00019	-0.00015	-4e-05	-2e-05	6
30923	-0.00019	-6e-05	-5e-05	-1e-05	-0.00014	-0.00055	-0.00023	-0.00019	6
30924	-0.00019	-6e-05	-5e-05	-1e-05	-0.00014	-0.00055	-0.00023	-0.00019	6
30925	-0.00019	-6e-05	-5e-05	-1e-05	-0.00014	-0.00055	-0.00023	-0.00019	6
30926	-0.00019	-6e-05	-5e-05	-1e-05	-0.00014	-0.00055	-0.00023	-0.00019	6
30927	-0.00019	-6e-05	-5e-05	-1e-05	-0.00014	-0.00055	-0.00023	-0.00019	6
30928	-0.00019	-6e-05	-5e-05	-1e-05	-0.00014	-0.00055	-0.00023	-0.00019	6
30929	-0.00019	-6e-05	-5e-05	-1e-05	-0.00014	-0.00055	-0.00023	-0.00019	6
30930	-0.00019	-6e-05	-5e-05	-1e-05	-0.00014	-0.00055	-0.00023	-0.00019	6
30931	-0.00022	-2e-05	-1e-05	0.0001	-8e-05	0.00101	0.00027	-2e-05	6
30932	-0.00022	-2e-05	-1e-05	0.0001	-8e-05	0.00101	0.00027	-2e-05	6
30933	-0.00022	-2e-05	-1e-05	0.0001	-8e-05	0.00101	0.00027	-2e-05	6
30934	-0.00022	-2e-05	-1e-05	0.0001	-8e-05	0.00101	0.00027	-2e-05	6
30935	-0.00022	-2e-05	-1e-05	0.0001	-8e-05	0.00101	0.00027	-2e-05	6
30936	-0.00022	-2e-05	-1e-05	0.0001	-8e-05	0.00101	0.00027	-2e-05	6
30938	-0.00022	-2e-05	-1e-05	0.0001	-8e-05	0.00101	0.00027	-2e-05	6
30939	-0.00022	-2e-05	-1e-05	0.0001	-8e-05	0.00101	0.00027	-2e-05	6
30940	0.00013	2e-05	5e-05	0.00017	0.00127	-0.00029	-0.0001	-0.00092	6
30941	0.00013	2e-05	5e-05	0.00017	0.00127	-0.00029	-0.0001	-0.00092	6
30942	0.00013	2e-05	5e-05	0.00017	0.00127	-0.00029	-0.0001	-0.00092	6
30943	0.00013	2e-05	5e-05	0.00017	0.00127	-0.00029	-0.0001	-0.00092	6
30944	0.00013	2e-05	5e-05	0.00017	0.00127	-0.00029	-0.0001	-0.00092	6
30945	0.00013	2e-05	5e-05	0.00017	0.00127	-0.00029	-0.0001	-0.00092	6
30946	0.00013	2e-05	5e-05	0.00017	0.00127	-0.00029	-0.0001	-0.00092	6
30947	0.00013	2e-05	5e-05	0.00017	0.00127	-0.00029	-0.0001	-0.00092	6
30948	0.00013	2e-05	5e-05	0.00017	0.00127	-0.00029	-0.0001	-0.00092	6
30949	0.00013	2e-05	5e-05	0.00017	0.00127	-0.00029	-0.0001	-0.00092	6
30950	0.00013	2e-05	5e-05	0.00017	0.00127	-0.00029	-0.0001	-0.00092	6
30951	0.00013	2e-05	5e-05	0.00017	0.00127	-0.00029	-0.0001	-0.00092	6
30952	0.00013	2e-05	5e-05	0.00017	0.00127	-0.00029	-0.0001	-0.00092	6
30953	0.00013	2e-05	5e-05	0.00017	0.00127	-0.00029	-0.0001	-0.00092	6
30954	0.00013	2e-05	5e-05	0.00017	0.00127	-0.00029	-0.0001	-0.00092	6
30955	0.00013	2e-05	5e-05	0.00017	0.00127	-0.00029	-0.0001	-0.00092	6
30956	0.00013	2e-05	5e-05	0.00017	0.00127	-0.00029	-0.0001	-0.00092	6
30957	0.00013	2e-05	5e-05	0.00017	0.00127	-0.00029	-0.0001	-0.00092	6
30958	0.00013	2e-05	5e-05	0.00017	0.00127	-0.00029	-0.0001	-0.00092	6
30959	0.00013	2e-05	5e-05	0.00017	0.00127	-0.00029	-0.0001	-0.00092	6
30960	0.00013	2e-05	5e-05	0.00017	0.00127	-0.00029	-0.0001	-0.00092	6
30961	2e-05	9e-05	0.0001	0.0001	-0.00011	0.00095	0.00029	-0.00103	6
30962	2e-05	9e-05	0.0001	0.0001	-0.00011	0.00095	0.00029	-0.00103	6
30963	2e-05	9e-05	0.0001	0.0001	-0.00011	0.00095	0.00029	-0.00103	6
30964	2e-05	9e-05	0.0001	0.0001	-0.00011	0.00095	0.00029	-0.00103	6
30965	2e-05	9e-05	0.0001	0.0001	-0.00011	0.00095	0.00029	-0.00103	6
30966	2e-05	9e-05	0.0001	0.0001	-0.00011	0.00095	0.00029	-0.00103	6
30967	4e-05	2e-05	2e-05	4e-05	0.00061	0.00021	1e-05	-0.00026	6
30968	4e-05	2e-05	2e-05	4e-05	0.00061	0.00021	1e-05	-0.00026	6
30969	4e-05	2e-05	2e-05	4e-05	0.00061	0.00021	1e-05	-0.00026	6
30970	4e-05	2e-05	2e-05	4e-05	0.00061	0.00021	1e-05	-0.00026	6
30971	4e-05	2e-05	2e-05	4e-05	0.00061	0.00021	1e-05	-0.00026	6
30972	4e-05	2e-05	2e-05	4e-05	0.00061	0.00021	1e-05	-0.00026	6
30973	4e-05	2e-05	2e-05	4e-05	0.00061	0.00021	1e-05	-0.00026	6
30974	4e-05	2e-05	2e-05	4e-05	0.00061	0.00021	1e-05	-0.00026	6
30975	4e-05	2e-05	2e-05	4e-05	0.00061	0.00021	1e-05	-0.00026	6
30976	4e-05	2e-05	2e-05	4e-05	0.00061	0.00021	1e-05	-0.00026	6
30977	4e-05	2e-05	2e-05	4e-05	0.00061	0.00021	1e-05	-0.00026	6
30978	4e-05	2e-05	2e-05	4e-05	0.00061	0.00021	1e-05	-0.00026	6
30979	4e-05	2e-05	2e-05	4e-05	0.00061	0.00021	1e-05	-0.00026	6
30980	4e-05	2e-05	2e-05	4e-05	0.00061	0.00021	1e-05	-0.00026	6
30981	4e-05	2e-05	2e-05	4e-05	0.00061	0.00021	1e-05	-0.00026	6
30982	4e-05	2e-05	2e-05	4e-05	0.00061	0.00021	1e-05	-0.00026	6
30983	0.0001	-5e-05	-3e-05	-3e-05	0.00013	0.00036	-3e-05	0.00027	6
30984	0.0001	-5e-05	-3e-05	-3e-05	0.00013	0.00036	-3e-05	0.00027	6
30985	6e-05	1e-05	1e-05	-1e-05	0.00015	-0.00022	8e-05	0.00029	6
30986	6e-05	1e-05	1e-05	-1e-05	0.00015	-0.00022	8e-05	0.00029	6
30988	6e-05	1e-05	1e-05	-1e-05	0.00015	-0.00022	8e-05	0.00029	6
30989	6e-05	1e-05	1e-05	-1e-05	0.00015	-0.00022	8e-05	0.00029	6
30990	6e-05	1e-05	1e-05	-1e-05	0.00015	-0.00022	8e-05	0.00029	6
30991	6e-05	1e-05	1e-05	-1e-05	0.00015	-0.00022	8e-05	0.00029	6
30992	6e-05	1e-05	1e-05	-1e-05	0.00015	-0.00022	8e-05	0.00029	6
30993	6e-05	1e-05	1e-05	-1e-05	0.00015	-0.00022	8e-05	0.00029	6
30994	6e-05	1e-05	1e-05	-1e-05	0.00015	-0.00022	8e-05	0.00029	6
30995	6e-05	1e-05	1e-05	-1e-05	0.00015	-0.00022	8e-05	0.00029	6
30996	6e-05	1e-05	1e-05	-1e-05	0.00015	-0.00022	8e-05	0.00029	6
30997	6e-05	1e-05	1e-05	-1e-05	0.00015	-0.00022	8e-05	0.00029	6
30998	6e-05	1e-05	1e-05	-1e-05	0.00015	-0.00022	8e-05	0.00029	6
30999	-7e-05	-6e-05	-5e-05	-0.00013	-0.0005	-0.00075	6e-05	0.00075	6
31000	-0.00015	-8e-05	-0.0001	-0.00018	-0.00044	-0.00085	-0.00013	-0.00022	6
31002	-0.00015	-8e-05	-0.0001	-0.00018	-0.00044	-0.00085	-0.00013	-0.00022	6
31003	-0.00015	-8e-05	-0.0001	-0.00018	-0.00044	-0.00085	-0.00013	-0.00022	6
31004	-0.00015	-8e-05	-0.0001	-0.00018	-0.00044	-0.00085	-0.00013	-0.00022	6
31005	-0.00015	-8e-05	-0.0001	-0.00018	-0.00044	-0.00085	-0.00013	-0.00022	6
31006	-0.00015	-8e-05	-0.0001	-0.00018	-0.00044	-0.00085	-0.00013	-0.00022	6
31007	-0.00015	-8e-05	-0.0001	-0.00018	-0.00044	-0.00085	-0.00013	-0.00022	6
31008	-0.00015	-8e-05	-0.0001	-0.00018	-0.00044	-0.00085	-0.00013	-0.00022	6
31009	-0.00015	-8e-05	-0.0001	-0.00018	-0.00044	-0.00085	-0.00013	-0.00022	6
31010	-0.00015	-8e-05	-0.0001	-0.00018	-0.00044	-0.00085	-0.00013	-0.00022	6
31011	-0.00015	-8e-05	-0.0001	-0.00018	-0.00044	-0.00085	-0.00013	-0.00022	6
31012	-0.00015	-8e-05	-0.0001	-0.00018	-0.00044	-0.00085	-0.00013	-0.00022	6
31013	-0.00015	-8e-05	-0.0001	-0.00018	-0.00044	-0.00085	-0.00013	-0.00022	6
31014	-0.00015	-8e-05	-0.0001	-0.00018	-0.00044	-0.00085	-0.00013	-0.00022	6
31015	-0.00015	-8e-05	-0.0001	-0.00018	-0.00044	-0.00085	-0.00013	-0.00022	6
31016	-0.00015	-8e-05	-0.0001	-0.00018	-0.00044	-0.00085	-0.00013	-0.00022	6
31017	-0.00015	-8e-05	-0.0001	-0.00018	-0.00044	-0.00085	-0.00013	-0.00022	6
31018	-0.00015	-8e-05	-0.0001	-0.00018	-0.00044	-0.00085	-0.00013	-0.00022	6
31019	-0.00015	-8e-05	-0.0001	-0.00018	-0.00044	-0.00085	-0.00013	-0.00022	6
31020	-0.00015	-8e-05	-0.0001	-0.00018	-0.00044	-0.00085	-0.00013	-0.00022	6
31021	4e-05	-4e-05	-5e-05	-2e-05	-0.0002	0.00033	-0.00017	-6e-05	6
31022	4e-05	-4e-05	-5e-05	-2e-05	-0.0002	0.00033	-0.00017	-6e-05	6
31023	0	1e-05	2e-05	3e-05	5e-05	0.00014	3e-05	0.00032	6
31024	0	1e-05	2e-05	3e-05	5e-05	0.00014	3e-05	0.00032	6
31025	0	1e-05	2e-05	3e-05	5e-05	0.00014	3e-05	0.00032	6
31026	0	1e-05	2e-05	3e-05	5e-05	0.00014	3e-05	0.00032	6
31027	0	1e-05	2e-05	3e-05	5e-05	0.00014	3e-05	0.00032	6
31028	0	1e-05	2e-05	3e-05	5e-05	0.00014	3e-05	0.00032	6
31029	0	1e-05	2e-05	3e-05	5e-05	0.00014	3e-05	0.00032	6
31030	0	1e-05	2e-05	3e-05	5e-05	0.00014	3e-05	0.00032	6
31031	0	1e-05	2e-05	3e-05	5e-05	0.00014	3e-05	0.00032	6
31032	0	1e-05	2e-05	3e-05	5e-05	0.00014	3e-05	0.00032	6
31033	0	1e-05	2e-05	3e-05	5e-05	0.00014	3e-05	0.00032	6
31034	0	1e-05	2e-05	3e-05	5e-05	0.00014	3e-05	0.00032	6
31035	0	1e-05	2e-05	3e-05	5e-05	0.00014	3e-05	0.00032	6
31036	0	1e-05	2e-05	3e-05	5e-05	0.00014	3e-05	0.00032	6
31038	0	1e-05	2e-05	3e-05	5e-05	0.00014	3e-05	0.00032	6
31039	0	1e-05	2e-05	3e-05	5e-05	0.00014	3e-05	0.00032	6
31040	0	1e-05	2e-05	3e-05	5e-05	0.00014	3e-05	0.00032	6
31041	0	1e-05	2e-05	3e-05	5e-05	0.00014	3e-05	0.00032	6
31042	0	1e-05	2e-05	3e-05	5e-05	0.00014	3e-05	0.00032	6
31043	-3e-05	-2e-05	-3e-05	0	0.00011	0.00127	-0.00011	-0.00051	6
31044	6e-05	-4e-05	-7e-05	-7e-05	0.00016	-0.00046	-6e-05	0.00021	6
31045	-0.00018	-4e-05	-4e-05	-3e-05	0.00012	-0.00034	1e-05	0.00016	6
31046	-0.00018	-4e-05	-4e-05	-3e-05	0.00012	-0.00034	1e-05	0.00016	6
31047	-0.00018	-4e-05	-4e-05	-3e-05	0.00012	-0.00034	1e-05	0.00016	6
31048	-0.00018	-4e-05	-4e-05	-3e-05	0.00012	-0.00034	1e-05	0.00016	6
31049	-0.00018	-4e-05	-4e-05	-3e-05	0.00012	-0.00034	1e-05	0.00016	6
31050	-0.00018	-4e-05	-4e-05	-3e-05	0.00012	-0.00034	1e-05	0.00016	6
31051	-0.00018	-4e-05	-4e-05	-3e-05	0.00012	-0.00034	1e-05	0.00016	6
31052	-0.00018	-4e-05	-4e-05	-3e-05	0.00012	-0.00034	1e-05	0.00016	6
31053	-0.00018	-4e-05	-4e-05	-3e-05	0.00012	-0.00034	1e-05	0.00016	6
31054	-0.00018	-4e-05	-4e-05	-3e-05	0.00012	-0.00034	1e-05	0.00016	6
31055	-0.00018	-4e-05	-4e-05	-3e-05	0.00012	-0.00034	1e-05	0.00016	6
31056	-0.00018	-4e-05	-4e-05	-3e-05	0.00012	-0.00034	1e-05	0.00016	6
31057	-0.00018	-4e-05	-4e-05	-3e-05	0.00012	-0.00034	1e-05	0.00016	6
31058	-0.00018	-4e-05	-4e-05	-3e-05	0.00012	-0.00034	1e-05	0.00016	6
31059	0	-1e-05	0	2e-05	0.00091	-0.00011	4e-05	0.00021	6
31060	3e-05	-1e-05	-3e-05	-3e-05	-0.00023	-0.00028	-9e-05	-0.00043	6
31061	3e-05	-1e-05	-3e-05	-3e-05	-0.00023	-0.00028	-9e-05	-0.00043	6
31062	3e-05	-1e-05	-3e-05	-3e-05	-0.00023	-0.00028	-9e-05	-0.00043	6
31063	3e-05	-1e-05	-3e-05	-3e-05	-0.00023	-0.00028	-9e-05	-0.00043	6
31064	3e-05	-1e-05	-3e-05	-3e-05	-0.00023	-0.00028	-9e-05	-0.00043	6
31065	3e-05	-1e-05	-3e-05	-3e-05	-0.00023	-0.00028	-9e-05	-0.00043	6
31066	3e-05	-1e-05	-3e-05	-3e-05	-0.00023	-0.00028	-9e-05	-0.00043	6
31067	3e-05	-1e-05	-3e-05	-3e-05	-0.00023	-0.00028	-9e-05	-0.00043	6
31068	3e-05	-1e-05	-3e-05	-3e-05	-0.00023	-0.00028	-9e-05	-0.00043	6
31069	3e-05	-1e-05	-3e-05	-3e-05	-0.00023	-0.00028	-9e-05	-0.00043	6
31070	3e-05	-1e-05	-3e-05	-3e-05	-0.00023	-0.00028	-9e-05	-0.00043	6
31071	3e-05	-1e-05	-3e-05	-3e-05	-0.00023	-0.00028	-9e-05	-0.00043	6
31072	3e-05	-1e-05	-3e-05	-3e-05	-0.00023	-0.00028	-9e-05	-0.00043	6
31073	3e-05	-1e-05	-3e-05	-3e-05	-0.00023	-0.00028	-9e-05	-0.00043	6
31074	3e-05	-1e-05	-3e-05	-3e-05	-0.00023	-0.00028	-9e-05	-0.00043	6
31075	3e-05	-1e-05	-3e-05	-3e-05	-0.00023	-0.00028	-9e-05	-0.00043	6
31076	3e-05	-1e-05	-3e-05	-3e-05	-0.00023	-0.00028	-9e-05	-0.00043	6
31077	3e-05	-1e-05	-3e-05	-3e-05	-0.00023	-0.00028	-9e-05	-0.00043	6
31078	3e-05	-1e-05	-3e-05	-3e-05	-0.00023	-0.00028	-9e-05	-0.00043	6
31079	3e-05	-1e-05	-3e-05	-3e-05	-0.00023	-0.00028	-9e-05	-0.00043	6
31080	3e-05	-1e-05	-3e-05	-3e-05	-0.00023	-0.00028	-9e-05	-0.00043	6
31081	-0.00017	-3e-05	-2e-05	-1e-05	0.00023	-0.00057	-0.00012	-0.00069	6
31082	-0.00017	-3e-05	-2e-05	-1e-05	0.00023	-0.00057	-0.00012	-0.00069	6
31083	3e-05	-3e-05	-3e-05	0	-0.00018	-0.00015	-0.00017	-6e-05	6
31084	3e-05	-3e-05	-3e-05	0	-0.00018	-0.00015	-0.00017	-6e-05	6
31085	3e-05	-3e-05	-3e-05	0	-0.00018	-0.00015	-0.00017	-6e-05	6
31086	3e-05	-3e-05	-3e-05	0	-0.00018	-0.00015	-0.00017	-6e-05	6
31088	3e-05	-3e-05	-3e-05	0	-0.00018	-0.00015	-0.00017	-6e-05	6
31089	3e-05	-3e-05	-3e-05	0	-0.00018	-0.00015	-0.00017	-6e-05	6
31090	3e-05	-3e-05	-3e-05	0	-0.00018	-0.00015	-0.00017	-6e-05	6
31091	3e-05	-3e-05	-3e-05	0	-0.00018	-0.00015	-0.00017	-6e-05	6
31092	3e-05	-3e-05	-3e-05	0	-0.00018	-0.00015	-0.00017	-6e-05	6
31093	3e-05	-3e-05	-3e-05	0	-0.00018	-0.00015	-0.00017	-6e-05	6
31094	3e-05	-3e-05	-3e-05	0	-0.00018	-0.00015	-0.00017	-6e-05	6
31095	3e-05	-3e-05	-3e-05	0	-0.00018	-0.00015	-0.00017	-6e-05	6
31096	3e-05	-3e-05	-3e-05	0	-0.00018	-0.00015	-0.00017	-6e-05	6
31097	3e-05	-3e-05	-3e-05	0	-0.00018	-0.00015	-0.00017	-6e-05	6
31098	3e-05	-3e-05	-3e-05	0	-0.00018	-0.00015	-0.00017	-6e-05	6
31099	3e-05	-3e-05	-3e-05	0	-0.00018	-0.00015	-0.00017	-6e-05	6
31100	3e-05	-3e-05	-3e-05	0	-0.00018	-0.00015	-0.00017	-6e-05	6
31101	3e-05	-3e-05	-3e-05	0	-0.00018	-0.00015	-0.00017	-6e-05	6
31102	3e-05	-3e-05	-3e-05	0	-0.00018	-0.00015	-0.00017	-6e-05	6
