14311	4e-05	-4e-05	-0.00014	-0.00051	-0.00087	-0.00016	-0.00014	0.0002	4
14312	4e-05	-4e-05	-0.00014	-0.00051	-0.00087	-0.00016	-0.00014	0.0002	4
14313	4e-05	-4e-05	-0.00014	-0.00051	-0.00087	-0.00016	-0.00014	0.0002	4
14314	4e-05	-4e-05	-0.00014	-0.00051	-0.00087	-0.00016	-0.00014	0.0002	4
14315	4e-05	-4e-05	-0.00014	-0.00051	-0.00087	-0.00016	-0.00014	0.0002	4
14316	4e-05	-4e-05	-0.00014	-0.00051	-0.00087	-0.00016	-0.00014	0.0002	4
14317	4e-05	-4e-05	-0.00014	-0.00051	-0.00087	-0.00016	-0.00014	0.0002	4
14318	4e-05	-4e-05	-0.00014	-0.00051	-0.00087	-0.00016	-0.00014	0.0002	4
14319	-2e-05	4e-05	0.00013	0.00039	-0.00031	-3e-05	-1e-05	-0.00016	4
14320	0	-4e-05	-0.0001	-0.0004	0.00092	4e-05	-1e-05	-0.00023	4
14322	0	-4e-05	-0.0001	-0.0004	0.00092	4e-05	-1e-05	-0.00023	4
14323	0	-4e-05	-0.0001	-0.0004	0.00092	4e-05	-1e-05	-0.00023	4
14324	0	-4e-05	-0.0001	-0.0004	0.00092	4e-05	-1e-05	-0.00023	4
14325	0	-4e-05	-0.0001	-0.0004	0.00092	4e-05	-1e-05	-0.00023	4
14326	0	-4e-05	-0.0001	-0.0004	0.00092	4e-05	-1e-05	-0.00023	4
14327	0	-4e-05	-0.0001	-0.0004	0.00092	4e-05	-1e-05	-0.00023	4
14328	0	-4e-05	-0.0001	-0.0004	0.00092	4e-05	-1e-05	-0.00023	4
14329	0	-4e-05	-0.0001	-0.0004	0.00092	4e-05	-1e-05	-0.00023	4
14330	0	-4e-05	-0.0001	-0.0004	0.00092	4e-05	-1e-05	-0.00023	4
14331	0	-4e-05	-0.0001	-0.0004	0.00092	4e-05	-1e-05	-0.00023	4
14332	0	-4e-05	-0.0001	-0.0004	0.00092	4e-05	-1e-05	-0.00023	4
14333	0	5e-05	0.0001	0.00037	0.00015	0.00074	0.0002	-7e-05	4
14334	0	5e-05	0.0001	0.00037	0.00015	0.00074	0.0002	-7e-05	4
14335	0	5e-05	0.0001	0.00037	0.00015	0.00074	0.0002	-7e-05	4
14336	0	5e-05	0.0001	0.00037	0.00015	0.00074	0.0002	-7e-05	4
14339	0	5e-05	0.0001	0.00037	0.00015	0.00074	0.0002	-7e-05	4
14340	0	5e-05	0.0001	0.00037	0.00015	0.00074	0.0002	-7e-05	4
14341	-1e-05	-7e-05	-7e-05	-0.00011	-0.00112	-0.00074	-0.0001	-4e-05	4
14342	-2e-05	1e-05	3e-05	-0.00024	-0.00026	0.00064	0.00031	-0.00016	4
14343	-2e-05	1e-05	3e-05	-0.00024	-0.00026	0.00064	0.00031	-0.00016	4
14344	-2e-05	1e-05	3e-05	-0.00024	-0.00026	0.00064	0.00031	-0.00016	4
14345	-2e-05	1e-05	3e-05	-0.00024	-0.00026	0.00064	0.00031	-0.00016	4
14346	-2e-05	1e-05	3e-05	-0.00024	-0.00026	0.00064	0.00031	-0.00016	4
14347	-2e-05	1e-05	3e-05	-0.00024	-0.00026	0.00064	0.00031	-0.00016	4
14348	-2e-05	1e-05	3e-05	-0.00024	-0.00026	0.00064	0.00031	-0.00016	4
14349	-2e-05	1e-05	3e-05	-0.00024	-0.00026	0.00064	0.00031	-0.00016	4
14350	-2e-05	1e-05	3e-05	-0.00024	-0.00026	0.00064	0.00031	-0.00016	4
14351	-2e-05	1e-05	3e-05	-0.00024	-0.00026	0.00064	0.00031	-0.00016	4
14352	-2e-05	1e-05	3e-05	-0.00024	-0.00026	0.00064	0.00031	-0.00016	4
14353	-2e-05	1e-05	3e-05	-0.00024	-0.00026	0.00064	0.00031	-0.00016	4
14354	-2e-05	1e-05	3e-05	-0.00024	-0.00026	0.00064	0.00031	-0.00016	4
14355	-2e-05	1e-05	3e-05	-0.00024	-0.00026	0.00064	0.00031	-0.00016	4
14356	3e-05	-3e-05	-0.00014	-0.0005	0.0012	0.00024	-0.00024	0.0003	4
14357	-4e-05	-2e-05	0	8e-05	0.0003	-0.0002	-7e-05	-5e-05	4
14358	-4e-05	-2e-05	0	8e-05	0.0003	-0.0002	-7e-05	-5e-05	4
14359	-4e-05	-2e-05	0	8e-05	0.0003	-0.0002	-7e-05	-5e-05	4
14360	-4e-05	-2e-05	0	8e-05	0.0003	-0.0002	-7e-05	-5e-05	4
14361	-4e-05	-2e-05	0	8e-05	0.0003	-0.0002	-7e-05	-5e-05	4
14362	-4e-05	-2e-05	0	8e-05	0.0003	-0.0002	-7e-05	-5e-05	4
14363	-4e-05	-2e-05	0	8e-05	0.0003	-0.0002	-7e-05	-5e-05	4
14364	-4e-05	-2e-05	0	8e-05	0.0003	-0.0002	-7e-05	-5e-05	4
14365	-4e-05	-2e-05	0	8e-05	0.0003	-0.0002	-7e-05	-5e-05	4
14366	-4e-05	-2e-05	0	8e-05	0.0003	-0.0002	-7e-05	-5e-05	4
14367	-4e-05	-2e-05	0	8e-05	0.0003	-0.0002	-7e-05	-5e-05	4
14368	-4e-05	-2e-05	0	8e-05	0.0003	-0.0002	-7e-05	-5e-05	4
14369	-4e-05	-2e-05	0	8e-05	0.0003	-0.0002	-7e-05	-5e-05	4
14370	-4e-05	-2e-05	0	8e-05	0.0003	-0.0002	-7e-05	-5e-05	4
14371	-4e-05	-2e-05	0	8e-05	0.0003	-0.0002	-7e-05	-5e-05	4
14372	-4e-05	-2e-05	0	8e-05	0.0003	-0.0002	-7e-05	-5e-05	4
14373	-4e-05	-2e-05	0	8e-05	0.0003	-0.0002	-7e-05	-5e-05	4
14374	-4e-05	-2e-05	0	8e-05	0.0003	-0.0002	-7e-05	-5e-05	4
14375	-4e-05	-2e-05	0	8e-05	0.0003	-0.0002	-7e-05	-5e-05	4
14376	-4e-05	-2e-05	0	8e-05	0.0003	-0.0002	-7e-05	-5e-05	4
14377	-4e-05	-2e-05	0	8e-05	0.0003	-0.0002	-7e-05	-5e-05	4
14378	-4e-05	-2e-05	0	8e-05	0.0003	-0.0002	-7e-05	-5e-05	4
14379	-4e-05	-2e-05	0	8e-05	0.0003	-0.0002	-7e-05	-5e-05	4
14380	3e-05	-2e-05	5e-05	0.00016	-0.00041	0.00034	8e-05	0	4
14381	3e-05	-2e-05	5e-05	0.00016	-0.00041	0.00034	8e-05	0	4
14382	3e-05	-2e-05	5e-05	0.00016	-0.00041	0.00034	8e-05	0	4
14383	3e-05	-2e-05	5e-05	0.00016	-0.00041	0.00034	8e-05	0	4
14384	3e-05	-2e-05	5e-05	0.00016	-0.00041	0.00034	8e-05	0	4
14385	3e-05	-2e-05	5e-05	0.00016	-0.00041	0.00034	8e-05	0	4
14386	3e-05	-2e-05	5e-05	0.00016	-0.00041	0.00034	8e-05	0	4
14389	3e-05	-2e-05	5e-05	0.00016	-0.00041	0.00034	8e-05	0	4
14390	3e-05	-2e-05	5e-05	0.00016	-0.00041	0.00034	8e-05	0	4
14391	3e-05	-2e-05	5e-05	0.00016	-0.00041	0.00034	8e-05	0	4
14392	3e-05	-2e-05	5e-05	0.00016	-0.00041	0.00034	8e-05	0	4
14393	-9e-05	-0.0001	-0.00015	-0.00025	0.00048	-0.00023	-8e-05	0.00026	4
14394	-9e-05	-0.0001	-0.00015	-0.00025	0.00048	-0.00023	-8e-05	0.00026	4
14395	-9e-05	-0.0001	-0.00015	-0.00025	0.00048	-0.00023	-8e-05	0.00026	4
14396	-9e-05	-0.0001	-0.00015	-0.00025	0.00048	-0.00023	-8e-05	0.00026	4
14397	-9e-05	-0.0001	-0.00015	-0.00025	0.00048	-0.00023	-8e-05	0.00026	4
14398	-9e-05	-0.0001	-0.00015	-0.00025	0.00048	-0.00023	-8e-05	0.00026	4
14399	-9e-05	-0.0001	-0.00015	-0.00025	0.00048	-0.00023	-8e-05	0.00026	4
14400	-9e-05	-0.0001	-0.00015	-0.00025	0.00048	-0.00023	-8e-05	0.00026	4
14401	-4e-05	-6e-05	-5e-05	0	0.00127	-0.00028	-5e-05	0	4
14402	-4e-05	-6e-05	-5e-05	0	0.00127	-0.00028	-5e-05	0	4
14403	-4e-05	-6e-05	-5e-05	0	0.00127	-0.00028	-5e-05	0	4
14404	-4e-05	-6e-05	-5e-05	0	0.00127	-0.00028	-5e-05	0	4
14405	-4e-05	-6e-05	-5e-05	0	0.00127	-0.00028	-5e-05	0	4
14406	-4e-05	-6e-05	-5e-05	0	0.00127	-0.00028	-5e-05	0	4
14407	-4e-05	-6e-05	-5e-05	0	0.00127	-0.00028	-5e-05	0	4
14408	-4e-05	-6e-05	-5e-05	0	0.00127	-0.00028	-5e-05	0	4
14409	-4e-05	-6e-05	-5e-05	0	0.00127	-0.00028	-5e-05	0	4
14410	-4e-05	-6e-05	-5e-05	0	0.00127	-0.00028	-5e-05	0	4
14411	-4e-05	-6e-05	-5e-05	0	0.00127	-0.00028	-5e-05	0	4
14412	-4e-05	-6e-05	-5e-05	0	0.00127	-0.00028	-5e-05	0	4
14413	-4e-05	-6e-05	-5e-05	0	0.00127	-0.00028	-5e-05	0	4
14414	-4e-05	-6e-05	-5e-05	0	0.00127	-0.00028	-5e-05	0	4
14415	-4e-05	-6e-05	-5e-05	0	0.00127	-0.00028	-5e-05	0	4
14416	4e-05	-3e-05	-2e-05	0.00017	8e-05	-8e-05	-0.0001	-0.00026	4
14417	1e-05	2e-05	-2e-05	-0.00015	0.00015	0.00023	0.0001	0.00027	4
14418	1e-05	2e-05	-2e-05	-0.00015	0.00015	0.00023	0.0001	0.00027	4
14419	1e-05	2e-05	-2e-05	-0.00015	0.00015	0.00023	0.0001	0.00027	4
14420	1e-05	2e-05	-2e-05	-0.00015	0.00015	0.00023	0.0001	0.00027	4
14421	1e-05	2e-05	-2e-05	-0.00015	0.00015	0.00023	0.0001	0.00027	4
14422	1e-05	2e-05	-2e-05	-0.00015	0.00015	0.00023	0.0001	0.00027	4
14423	1e-05	2e-05	-2e-05	-0.00015	0.00015	0.00023	0.0001	0.00027	4
14424	1e-05	2e-05	-2e-05	-0.00015	0.00015	0.00023	0.0001	0.00027	4
14425	1e-05	2e-05	-2e-05	-0.00015	0.00015	0.00023	0.0001	0.00027	4
14426	1e-05	2e-05	-2e-05	-0.00015	0.00015	0.00023	0.0001	0.00027	4
14427	1e-05	2e-05	-2e-05	-0.00015	0.00015	0.00023	0.0001	0.00027	4
14428	1e-05	2e-05	-2e-05	-0.00015	0.00015	0.00023	0.0001	0.00027	4
14429	1e-05	2e-05	-2e-05	-0.00015	0.00015	0.00023	0.0001	0.00027	4
14430	1e-05	2e-05	-2e-05	-0.00015	0.00015	0.00023	0.0001	0.00027	4
14431	1e-05	2e-05	-2e-05	-0.00015	0.00015	0.00023	0.0001	0.00027	4
14432	1e-05	2e-05	-2e-05	-0.00015	0.00015	0.00023	0.0001	0.00027	4
14433	1e-05	2e-05	-2e-05	-0.00015	0.00015	0.00023	0.0001	0.00027	4
14434	1e-05	2e-05	-2e-05	-0.00015	0.00015	0.00023	0.0001	0.00027	4
14435	1e-05	2e-05	-2e-05	-0.00015	0.00015	0.00023	0.0001	0.00027	4
14436	1e-05	2e-05	-2e-05	-0.00015	0.00015	0.00023	0.0001	0.00027	4
14438	1e-05	2e-05	-2e-05	-0.00015	0.00015	0.00023	0.0001	0.00027	4
14440	-4e-05	-7e-05	-8e-05	-1e-05	0	-0.00082	-0.00014	-7e-05	4
14441	-4e-05	-7e-05	-8e-05	-1e-05	0	-0.00082	-0.00014	-7e-05	4
14442	-4e-05	-7e-05	-8e-05	-1e-05	0	-0.00082	-0.00014	-7e-05	4
14443	-4e-05	-7e-05	-8e-05	-1e-05	0	-0.00082	-0.00014	-7e-05	4
14444	-4e-05	-7e-05	-8e-05	-1e-05	0	-0.00082	-0.00014	-7e-05	4
14445	-4e-05	-7e-05	-8e-05	-1e-05	0	-0.00082	-0.00014	-7e-05	4
14446	-4e-05	-7e-05	-8e-05	-1e-05	0	-0.00082	-0.00014	-7e-05	4
14447	-4e-05	-7e-05	-8e-05	-1e-05	0	-0.00082	-0.00014	-7e-05	4
14448	-4e-05	-7e-05	-8e-05	-1e-05	0	-0.00082	-0.00014	-7e-05	4
14449	-4e-05	-7e-05	-8e-05	-1e-05	0	-0.00082	-0.00014	-7e-05	4
14450	-4e-05	-7e-05	-8e-05	-1e-05	0	-0.00082	-0.00014	-7e-05	4
14451	-4e-05	-7e-05	-8e-05	-1e-05	0	-0.00082	-0.00014	-7e-05	4
14452	-4e-05	-7e-05	-8e-05	-1e-05	0	-0.00082	-0.00014	-7e-05	4
14453	0.00016	0.00017	0.00025	0.0004	-0.00022	0.00089	0.0003	0.0004	4
14454	0.00016	0.00017	0.00025	0.0004	-0.00022	0.00089	0.0003	0.0004	4
14455	0.00016	0.00017	0.00025	0.0004	-0.00022	0.00089	0.0003	0.0004	4
14456	0.00016	0.00017	0.00025	0.0004	-0.00022	0.00089	0.0003	0.0004	4
14457	0.00016	0.00017	0.00025	0.0004	-0.00022	0.00089	0.0003	0.0004	4
14458	0.00016	0.00017	0.00025	0.0004	-0.00022	0.00089	0.0003	0.0004	4
14459	0.00016	0.00017	0.00025	0.0004	-0.00022	0.00089	0.0003	0.0004	4
14460	0.00016	0.00017	0.00025	0.0004	-0.00022	0.00089	0.0003	0.0004	4
14461	-0.00015	-0.00014	-0.00016	2e-05	-0.00044	-0.00034	-0.00027	-0.00048	4
14462	5e-05	5e-05	6e-05	0	0.00047	-5e-05	3e-05	0.00037	4
14463	5e-05	5e-05	6e-05	0	0.00047	-5e-05	3e-05	0.00037	4
14464	5e-05	5e-05	6e-05	0	0.00047	-5e-05	3e-05	0.00037	4
14465	5e-05	5e-05	6e-05	0	0.00047	-5e-05	3e-05	0.00037	4
14466	5e-05	5e-05	6e-05	0	0.00047	-5e-05	3e-05	0.00037	4
14467	5e-05	5e-05	6e-05	0	0.00047	-5e-05	3e-05	0.00037	4
14468	5e-05	5e-05	6e-05	0	0.00047	-5e-05	3e-05	0.00037	4
14469	5e-05	5e-05	6e-05	0	0.00047	-5e-05	3e-05	0.00037	4
14470	5e-05	5e-05	6e-05	0	0.00047	-5e-05	3e-05	0.00037	4
14471	5e-05	5e-05	6e-05	0	0.00047	-5e-05	3e-05	0.00037	4
14472	5e-05	5e-05	6e-05	0	0.00047	-5e-05	3e-05	0.00037	4
14473	5e-05	5e-05	6e-05	0	0.00047	-5e-05	3e-05	0.00037	4
14474	5e-05	5e-05	6e-05	0	0.00047	-5e-05	3e-05	0.00037	4
14475	5e-05	5e-05	6e-05	0	0.00047	-5e-05	3e-05	0.00037	4
14476	3e-05	1e-05	4e-05	-3e-05	-0.00063	0.00023	0.00014	0.00014	4
14477	-4e-05	-4e-05	1e-05	0.00015	0.00055	0.0006	-4e-05	-0.00036	4
14478	-4e-05	-4e-05	1e-05	0.00015	0.00055	0.0006	-4e-05	-0.00036	4
14479	-4e-05	-4e-05	1e-05	0.00015	0.00055	0.0006	-4e-05	-0.00036	4
14480	-4e-05	-4e-05	1e-05	0.00015	0.00055	0.0006	-4e-05	-0.00036	4
14481	-4e-05	-4e-05	1e-05	0.00015	0.00055	0.0006	-4e-05	-0.00036	4
14482	-4e-05	-4e-05	1e-05	0.00015	0.00055	0.0006	-4e-05	-0.00036	4
14483	-4e-05	-4e-05	1e-05	0.00015	0.00055	0.0006	-4e-05	-0.00036	4
14484	-4e-05	-4e-05	1e-05	0.00015	0.00055	0.0006	-4e-05	-0.00036	4
14485	-4e-05	-4e-05	1e-05	0.00015	0.00055	0.0006	-4e-05	-0.00036	4
14486	-4e-05	-4e-05	1e-05	0.00015	0.00055	0.0006	-4e-05	-0.00036	4
14488	-4e-05	-4e-05	1e-05	0.00015	0.00055	0.0006	-4e-05	-0.00036	4
14490	-4e-05	-4e-05	1e-05	0.00015	0.00055	0.0006	-4e-05	-0.00036	4
14491	-4e-05	-4e-05	1e-05	0.00015	0.00055	0.0006	-4e-05	-0.00036	4
14492	-4e-05	-4e-05	1e-05	0.00015	0.00055	0.0006	-4e-05	-0.00036	4
14493	-4e-05	-4e-05	1e-05	0.00015	0.00055	0.0006	-4e-05	-0.00036	4
14494	-4e-05	-4e-05	1e-05	0.00015	0.00055	0.0006	-4e-05	-0.00036	4
14495	-4e-05	-4e-05	1e-05	0.00015	0.00055	0.0006	-4e-05	-0.00036	4
14496	-4e-05	-4e-05	1e-05	0.00015	0.00055	0.0006	-4e-05	-0.00036	4
14497	-4e-05	-4e-05	1e-05	0.00015	0.00055	0.0006	-4e-05	-0.00036	4
14498	-4e-05	-4e-05	1e-05	0.00015	0.00055	0.0006	-4e-05	-0.00036	4
14499	-4e-05	-4e-05	1e-05	0.00015	0.00055	0.0006	-4e-05	-0.00036	4
14500	-6e-05	-6e-05	-0.00013	-0.00013	0.00036	-0.00068	-0.00015	-0.00033	4
14501	-6e-05	-6e-05	-0.00013	-0.00013	0.00036	-0.00068	-0.00015	-0.00033	4
14502	-6e-05	-6e-05	-0.00013	-0.00013	0.00036	-0.00068	-0.00015	-0.00033	4
14503	-6e-05	-6e-05	-0.00013	-0.00013	0.00036	-0.00068	-0.00015	-0.00033	4
14504	-6e-05	-6e-05	-0.00013	-0.00013	0.00036	-0.00068	-0.00015	-0.00033	4
14505	-6e-05	-6e-05	-0.00013	-0.00013	0.00036	-0.00068	-0.00015	-0.00033	4
14506	-6e-05	-6e-05	-0.00013	-0.00013	0.00036	-0.00068	-0.00015	-0.00033	4
14507	-6e-05	-6e-05	-0.00013	-0.00013	0.00036	-0.00068	-0.00015	-0.00033	4
14508	-6e-05	-6e-05	-0.00013	-0.00013	0.00036	-0.00068	-0.00015	-0.00033	4
14510	-6e-05	-6e-05	-0.00013	-0.00013	0.00036	-0.00068	-0.00015	-0.00033	4
14511	-6e-05	-6e-05	-0.00013	-0.00013	0.00036	-0.00068	-0.00015	-0.00033	4
14512	-6e-05	-6e-05	-0.00013	-0.00013	0.00036	-0.00068	-0.00015	-0.00033	4
14513	-6e-05	-6e-05	-0.00013	-0.00013	0.00036	-0.00068	-0.00015	-0.00033	4
14514	-6e-05	-6e-05	-0.00013	-0.00013	0.00036	-0.00068	-0.00015	-0.00033	4
14515	-6e-05	-6e-05	-0.00013	-0.00013	0.00036	-0.00068	-0.00015	-0.00033	4
14516	-6e-05	-6e-05	-0.00013	-0.00013	0.00036	-0.00068	-0.00015	-0.00033	4
14517	-6e-05	-6e-05	-0.00013	-0.00013	0.00036	-0.00068	-0.00015	-0.00033	4
14518	-6e-05	-6e-05	-0.00013	-0.00013	0.00036	-0.00068	-0.00015	-0.00033	4
14519	-6e-05	-6e-05	-0.00013	-0.00013	0.00036	-0.00068	-0.00015	-0.00033	4
14520	-6e-05	-6e-05	-0.00013	-0.00013	0.00036	-0.00068	-0.00015	-0.00033	4
14521	-6e-05	-6e-05	-0.00013	-0.00013	0.00036	-0.00068	-0.00015	-0.00033	4
14522	2e-05	2e-05	3e-05	0.00017	0.00078	0.00058	0.00026	-0.00017	4
14523	3e-05	2e-05	3e-05	-0.00012	-0.00128	-0.00036	-8e-05	0.00025	4
14524	3e-05	2e-05	3e-05	-0.00012	-0.00128	-0.00036	-8e-05	0.00025	4
14525	3e-05	2e-05	3e-05	-0.00012	-0.00128	-0.00036	-8e-05	0.00025	4
14526	3e-05	2e-05	3e-05	-0.00012	-0.00128	-0.00036	-8e-05	0.00025	4
14527	3e-05	2e-05	3e-05	-0.00012	-0.00128	-0.00036	-8e-05	0.00025	4
14528	3e-05	2e-05	3e-05	-0.00012	-0.00128	-0.00036	-8e-05	0.00025	4
14529	3e-05	2e-05	3e-05	-0.00012	-0.00128	-0.00036	-8e-05	0.00025	4
14530	3e-05	2e-05	3e-05	-0.00012	-0.00128	-0.00036	-8e-05	0.00025	4
14531	3e-05	2e-05	3e-05	-0.00012	-0.00128	-0.00036	-8e-05	0.00025	4
14532	3e-05	2e-05	3e-05	-0.00012	-0.00128	-0.00036	-8e-05	0.00025	4
14533	3e-05	2e-05	3e-05	-0.00012	-0.00128	-0.00036	-8e-05	0.00025	4
14534	3e-05	2e-05	3e-05	-0.00012	-0.00128	-0.00036	-8e-05	0.00025	4
14535	3e-05	2e-05	3e-05	-0.00012	-0.00128	-0.00036	-8e-05	0.00025	4
14536	-8e-05	-7e-05	-8e-05	0.0002	0.0001	-5e-05	-0.00015	-0.00021	4
14538	-8e-05	-9e-05	-8e-05	-6e-05	-0.00094	-0.00033	-3e-05	-0.00021	4
14539	-8e-05	-9e-05	-8e-05	-6e-05	-0.00094	-0.00033	-3e-05	-0.00021	4
14540	-8e-05	-9e-05	-8e-05	-6e-05	-0.00094	-0.00033	-3e-05	-0.00021	4
14541	-8e-05	-9e-05	-8e-05	-6e-05	-0.00094	-0.00033	-3e-05	-0.00021	4
14542	-8e-05	-9e-05	-8e-05	-6e-05	-0.00094	-0.00033	-3e-05	-0.00021	4
14543	-8e-05	-9e-05	-8e-05	-6e-05	-0.00094	-0.00033	-3e-05	-0.00021	4
14544	-8e-05	-9e-05	-8e-05	-6e-05	-0.00094	-0.00033	-3e-05	-0.00021	4
14545	-8e-05	-9e-05	-8e-05	-6e-05	-0.00094	-0.00033	-3e-05	-0.00021	4
14546	-8e-05	-9e-05	-8e-05	-6e-05	-0.00094	-0.00033	-3e-05	-0.00021	4
14547	-8e-05	-9e-05	-8e-05	-6e-05	-0.00094	-0.00033	-3e-05	-0.00021	4
14548	-8e-05	-9e-05	-8e-05	-6e-05	-0.00094	-0.00033	-3e-05	-0.00021	4
14549	-8e-05	-9e-05	-8e-05	-6e-05	-0.00094	-0.00033	-3e-05	-0.00021	4
14550	-8e-05	-9e-05	-8e-05	-6e-05	-0.00094	-0.00033	-3e-05	-0.00021	4
14551	-8e-05	-9e-05	-8e-05	-6e-05	-0.00094	-0.00033	-3e-05	-0.00021	4
14552	-8e-05	-9e-05	-8e-05	-6e-05	-0.00094	-0.00033	-3e-05	-0.00021	4
14553	-8e-05	-9e-05	-8e-05	-6e-05	-0.00094	-0.00033	-3e-05	-0.00021	4
14554	-8e-05	-9e-05	-8e-05	-6e-05	-0.00094	-0.00033	-3e-05	-0.00021	4
14555	-8e-05	-9e-05	-8e-05	-6e-05	-0.00094	-0.00033	-3e-05	-0.00021	4
14556	-8e-05	-9e-05	-8e-05	-6e-05	-0.00094	-0.00033	-3e-05	-0.00021	4
14557	-8e-05	-9e-05	-8e-05	-6e-05	-0.00094	-0.00033	-3e-05	-0.00021	4
14558	-8e-05	-9e-05	-8e-05	-6e-05	-0.00094	-0.00033	-3e-05	-0.00021	4
14559	-8e-05	-9e-05	-8e-05	-6e-05	-0.00094	-0.00033	-3e-05	-0.00021	4
14560	9e-05	0.0001	0.0001	0.0001	0.00026	0.00057	0.00017	1e-05	4
14561	9e-05	0.0001	0.0001	0.0001	0.00026	0.00057	0.00017	1e-05	4
14562	9e-05	0.0001	0.0001	0.0001	0.00026	0.00057	0.00017	1e-05	4
14563	9e-05	0.0001	0.0001	0.0001	0.00026	0.00057	0.00017	1e-05	4
14564	9e-05	0.0001	0.0001	0.0001	0.00026	0.00057	0.00017	1e-05	4
14565	9e-05	0.0001	0.0001	0.0001	0.00026	0.00057	0.00017	1e-05	4
14566	9e-05	0.0001	0.0001	0.0001	0.00026	0.00057	0.00017	1e-05	4
14567	9e-05	0.0001	0.0001	0.0001	0.00026	0.00057	0.00017	1e-05	4
14568	9e-05	0.0001	0.0001	0.0001	0.00026	0.00057	0.00017	1e-05	4
14569	9e-05	0.0001	0.0001	0.0001	0.00026	0.00057	0.00017	1e-05	4
14570	9e-05	0.0001	0.0001	0.0001	0.00026	0.00057	0.00017	1e-05	4
14571	9e-05	0.0001	0.0001	0.0001	0.00026	0.00057	0.00017	1e-05	4
14572	9e-05	0.0001	0.0001	0.0001	0.00026	0.00057	0.00017	1e-05	4
14573	9e-05	0.0001	0.0001	0.0001	0.00026	0.00057	0.00017	1e-05	4
14574	9e-05	0.0001	0.0001	0.0001	0.00026	0.00057	0.00017	1e-05	4
14575	9e-05	0.0001	0.0001	0.0001	0.00026	0.00057	0.00017	1e-05	4
14576	9e-05	0.0001	0.0001	0.0001	0.00026	0.00057	0.00017	1e-05	4
14577	9e-05	0.0001	0.0001	0.0001	0.00026	0.00057	0.00017	1e-05	4
14578	9e-05	0.0001	0.0001	0.0001	0.00026	0.00057	0.00017	1e-05	4
14579	9e-05	0.0001	0.0001	0.0001	0.00026	0.00057	0.00017	1e-05	4
14580	9e-05	0.0001	0.0001	0.0001	0.00026	0.00057	0.00017	1e-05	4
14581	9e-05	0.0001	0.0001	0.0001	0.00026	0.00057	0.00017	1e-05	4
14582	1e-05	3e-05	0	-0.00026	-0.00038	4e-05	0.0001	-5e-05	4
14583	9e-05	0.00011	6e-05	-0.00028	-0.00078	-0.00061	-0.00023	0.00027	4
14584	9e-05	0.00011	6e-05	-0.00028	-0.00078	-0.00061	-0.00023	0.00027	4
14585	9e-05	0.00011	6e-05	-0.00028	-0.00078	-0.00061	-0.00023	0.00027	4
14586	9e-05	0.00011	6e-05	-0.00028	-0.00078	-0.00061	-0.00023	0.00027	4
14588	9e-05	0.00011	6e-05	-0.00028	-0.00078	-0.00061	-0.00023	0.00027	4
14589	9e-05	0.00011	6e-05	-0.00028	-0.00078	-0.00061	-0.00023	0.00027	4
14590	9e-05	0.00011	6e-05	-0.00028	-0.00078	-0.00061	-0.00023	0.00027	4
14591	9e-05	0.00011	6e-05	-0.00028	-0.00078	-0.00061	-0.00023	0.00027	4
14592	9e-05	0.00011	6e-05	-0.00028	-0.00078	-0.00061	-0.00023	0.00027	4
14593	9e-05	0.00011	6e-05	-0.00028	-0.00078	-0.00061	-0.00023	0.00027	4
14594	9e-05	0.00011	6e-05	-0.00028	-0.00078	-0.00061	-0.00023	0.00027	4
14595	9e-05	0.00011	6e-05	-0.00028	-0.00078	-0.00061	-0.00023	0.00027	4
14596	0	-1e-05	0	-1e-05	0.00098	0.00028	-0.00014	-0.00029	4
14597	-4e-05	-0.0001	-9e-05	2e-05	-0.00078	-0.00017	-3e-05	0.00012	4
14598	-4e-05	-0.0001	-9e-05	2e-05	-0.00078	-0.00017	-3e-05	0.00012	4
14599	-4e-05	-0.0001	-9e-05	2e-05	-0.00078	-0.00017	-3e-05	0.00012	4
14600	-4e-05	-0.0001	-9e-05	2e-05	-0.00078	-0.00017	-3e-05	0.00012	4
14601	-4e-05	-0.0001	-9e-05	2e-05	-0.00078	-0.00017	-3e-05	0.00012	4
14602	-4e-05	-0.0001	-9e-05	2e-05	-0.00078	-0.00017	-3e-05	0.00012	4
14603	-4e-05	-0.0001	-9e-05	2e-05	-0.00078	-0.00017	-3e-05	0.00012	4
14604	-4e-05	-0.0001	-9e-05	2e-05	-0.00078	-0.00017	-3e-05	0.00012	4
14605	-4e-05	-0.0001	-9e-05	2e-05	-0.00078	-0.00017	-3e-05	0.00012	4
14606	-4e-05	-0.0001	-9e-05	2e-05	-0.00078	-0.00017	-3e-05	0.00012	4
14607	-4e-05	-0.0001	-9e-05	2e-05	-0.00078	-0.00017	-3e-05	0.00012	4
14608	-4e-05	-0.0001	-9e-05	2e-05	-0.00078	-0.00017	-3e-05	0.00012	4
14609	-4e-05	-0.0001	-9e-05	2e-05	-0.00078	-0.00017	-3e-05	0.00012	4
14610	-4e-05	-0.0001	-9e-05	2e-05	-0.00078	-0.00017	-3e-05	0.00012	4
14611	-4e-05	-0.0001	-9e-05	2e-05	-0.00078	-0.00017	-3e-05	0.00012	4
14612	-4e-05	-0.0001	-9e-05	2e-05	-0.00078	-0.00017	-3e-05	0.00012	4
14613	-4e-05	-0.0001	-9e-05	2e-05	-0.00078	-0.00017	-3e-05	0.00012	4
14614	-4e-05	-0.0001	-9e-05	2e-05	-0.00078	-0.00017	-3e-05	0.00012	4
14615	-4e-05	-0.0001	-9e-05	2e-05	-0.00078	-0.00017	-3e-05	0.00012	4
14616	-4e-05	-0.0001	-9e-05	2e-05	-0.00078	-0.00017	-3e-05	0.00012	4
14617	-4e-05	-0.0001	-9e-05	2e-05	-0.00078	-0.00017	-3e-05	0.00012	4
14618	-4e-05	-0.0001	-9e-05	2e-05	-0.00078	-0.00017	-3e-05	0.00012	4
14619	-4e-05	-0.0001	-9e-05	2e-05	-0.00078	-0.00017	-3e-05	0.00012	4
14620	-6e-05	-5e-05	-6e-05	0.00011	0.00039	-0.00012	-0.00011	-0.00036	4
14621	-6e-05	-5e-05	-6e-05	0.00011	0.00039	-0.00012	-0.00011	-0.00036	4
14623	-6e-05	-5e-05	-6e-05	0.00011	0.00039	-0.00012	-0.00011	-0.00036	4
14624	-6e-05	-5e-05	-6e-05	0.00011	0.00039	-0.00012	-0.00011	-0.00036	4
14625	-6e-05	-5e-05	-6e-05	0.00011	0.00039	-0.00012	-0.00011	-0.00036	4
14626	-6e-05	-5e-05	-6e-05	0.00011	0.00039	-0.00012	-0.00011	-0.00036	4
14627	-6e-05	-5e-05	-6e-05	0.00011	0.00039	-0.00012	-0.00011	-0.00036	4
14628	-6e-05	-5e-05	-6e-05	0.00011	0.00039	-0.00012	-0.00011	-0.00036	4
14629	-6e-05	-5e-05	-6e-05	0.00011	0.00039	-0.00012	-0.00011	-0.00036	4
14630	-6e-05	-5e-05	-6e-05	0.00011	0.00039	-0.00012	-0.00011	-0.00036	4
14631	-6e-05	-5e-05	-6e-05	0.00011	0.00039	-0.00012	-0.00011	-0.00036	4
14632	-6e-05	-5e-05	-6e-05	0.00011	0.00039	-0.00012	-0.00011	-0.00036	4
14633	-6e-05	-5e-05	-6e-05	0.00011	0.00039	-0.00012	-0.00011	-0.00036	4
14634	-6e-05	-5e-05	-6e-05	0.00011	0.00039	-0.00012	-0.00011	-0.00036	4
14635	-6e-05	-5e-05	-6e-05	0.00011	0.00039	-0.00012	-0.00011	-0.00036	4
14636	-6e-05	-5e-05	-6e-05	0.00011	0.00039	-0.00012	-0.00011	-0.00036	4
14638	-6e-05	-5e-05	-6e-05	0.00011	0.00039	-0.00012	-0.00011	-0.00036	4
14639	-6e-05	-5e-05	-6e-05	0.00011	0.00039	-0.00012	-0.00011	-0.00036	4
14640	-6e-05	-5e-05	-6e-05	0.00011	0.00039	-0.00012	-0.00011	-0.00036	4
14641	-6e-05	-5e-05	-6e-05	0.00011	0.00039	-0.00012	-0.00011	-0.00036	4
14642	-7e-05	-0.0001	-0.00015	-0.00027	-0.00126	-0.00061	-0.00012	0.00018	4
14643	-0.0001	-9e-05	-8e-05	6e-05	-0.00028	-0.00042	-0.00016	-7e-05	4
14644	-0.0001	-9e-05	-8e-05	6e-05	-0.00028	-0.00042	-0.00016	-7e-05	4
14645	-0.0001	-9e-05	-8e-05	6e-05	-0.00028	-0.00042	-0.00016	-7e-05	4
14646	-0.0001	-9e-05	-8e-05	6e-05	-0.00028	-0.00042	-0.00016	-7e-05	4
14647	-0.0001	-9e-05	-8e-05	6e-05	-0.00028	-0.00042	-0.00016	-7e-05	4
14648	-0.0001	-9e-05	-8e-05	6e-05	-0.00028	-0.00042	-0.00016	-7e-05	4
14649	-0.0001	-9e-05	-8e-05	6e-05	-0.00028	-0.00042	-0.00016	-7e-05	4
14650	-0.0001	-9e-05	-8e-05	6e-05	-0.00028	-0.00042	-0.00016	-7e-05	4
14651	-0.0001	-9e-05	-8e-05	6e-05	-0.00028	-0.00042	-0.00016	-7e-05	4
14652	-0.0001	-9e-05	-8e-05	6e-05	-0.00028	-0.00042	-0.00016	-7e-05	4
14653	-0.0001	-9e-05	-8e-05	6e-05	-0.00028	-0.00042	-0.00016	-7e-05	4
14654	-0.0001	-9e-05	-8e-05	6e-05	-0.00028	-0.00042	-0.00016	-7e-05	4
14655	-0.0001	-9e-05	-8e-05	6e-05	-0.00028	-0.00042	-0.00016	-7e-05	4
14656	-0.0001	-9e-05	-8e-05	6e-05	-0.00028	-0.00042	-0.00016	-7e-05	4
14657	2e-05	-1e-05	5e-05	0.00024	-0.00093	-9e-05	-0.00032	-0.00012	4
14658	-4e-05	-4e-05	-7e-05	-8e-05	0.00118	0.00028	9e-05	8e-05	4
14659	-4e-05	-4e-05	-7e-05	-8e-05	0.00118	0.00028	9e-05	8e-05	4
14660	-4e-05	-4e-05	-7e-05	-8e-05	0.00118	0.00028	9e-05	8e-05	4
14661	-4e-05	-4e-05	-7e-05	-8e-05	0.00118	0.00028	9e-05	8e-05	4
14662	-4e-05	-4e-05	-7e-05	-8e-05	0.00118	0.00028	9e-05	8e-05	4
14663	-4e-05	-4e-05	-7e-05	-8e-05	0.00118	0.00028	9e-05	8e-05	4
14664	-4e-05	-4e-05	-7e-05	-8e-05	0.00118	0.00028	9e-05	8e-05	4
14665	-4e-05	-4e-05	-7e-05	-8e-05	0.00118	0.00028	9e-05	8e-05	4
14666	-4e-05	-4e-05	-7e-05	-8e-05	0.00118	0.00028	9e-05	8e-05	4
14667	-4e-05	-4e-05	-7e-05	-8e-05	0.00118	0.00028	9e-05	8e-05	4
14668	-4e-05	-4e-05	-7e-05	-8e-05	0.00118	0.00028	9e-05	8e-05	4
14669	-4e-05	-4e-05	-7e-05	-8e-05	0.00118	0.00028	9e-05	8e-05	4
14670	-4e-05	-4e-05	-7e-05	-8e-05	0.00118	0.00028	9e-05	8e-05	4
14671	-4e-05	-4e-05	-7e-05	-8e-05	0.00118	0.00028	9e-05	8e-05	4
14672	-4e-05	-4e-05	-7e-05	-8e-05	0.00118	0.00028	9e-05	8e-05	4
14673	-4e-05	-4e-05	-7e-05	-8e-05	0.00118	0.00028	9e-05	8e-05	4
14674	-4e-05	-4e-05	-7e-05	-8e-05	0.00118	0.00028	9e-05	8e-05	4
14675	-4e-05	-4e-05	-7e-05	-8e-05	0.00118	0.00028	9e-05	8e-05	4
14676	-4e-05	-4e-05	-7e-05	-8e-05	0.00118	0.00028	9e-05	8e-05	4
14677	-4e-05	-4e-05	-7e-05	-8e-05	0.00118	0.00028	9e-05	8e-05	4
14678	-4e-05	-4e-05	-7e-05	-8e-05	0.00118	0.00028	9e-05	8e-05	4
14679	-4e-05	-4e-05	-7e-05	-8e-05	0.00118	0.00028	9e-05	8e-05	4
14680	0.00011	0.00012	0.00011	-0.0001	-0.0002	0.00068	0.00022	0.00016	4
14681	0.00011	0.00012	0.00011	-0.0001	-0.0002	0.00068	0.00022	0.00016	4
14682	0.00011	0.00012	0.00011	-0.0001	-0.0002	0.00068	0.00022	0.00016	4
14683	0.00011	0.00012	0.00011	-0.0001	-0.0002	0.00068	0.00022	0.00016	4
14684	0.00011	0.00012	0.00011	-0.0001	-0.0002	0.00068	0.00022	0.00016	4
14685	0.00011	0.00012	0.00011	-0.0001	-0.0002	0.00068	0.00022	0.00016	4
14686	0.00011	0.00012	0.00011	-0.0001	-0.0002	0.00068	0.00022	0.00016	4
14688	0.00011	0.00012	0.00011	-0.0001	-0.0002	0.00068	0.00022	0.00016	4
14689	0.00011	0.00012	0.00011	-0.0001	-0.0002	0.00068	0.00022	0.00016	4
14690	0.00011	0.00012	0.00011	-0.0001	-0.0002	0.00068	0.00022	0.00016	4
14691	0.00011	0.00012	0.00011	-0.0001	-0.0002	0.00068	0.00022	0.00016	4
14692	0.00011	0.00012	0.00011	-0.0001	-0.0002	0.00068	0.00022	0.00016	4
14693	0.00011	0.00012	0.00011	-0.0001	-0.0002	0.00068	0.00022	0.00016	4
14694	0.00011	0.00012	0.00011	-0.0001	-0.0002	0.00068	0.00022	0.00016	4
14695	0.00011	0.00012	0.00011	-0.0001	-0.0002	0.00068	0.00022	0.00016	4
14696	0.00011	0.00012	0.00011	-0.0001	-0.0002	0.00068	0.00022	0.00016	4
14697	0.00011	0.00012	0.00011	-0.0001	-0.0002	0.00068	0.00022	0.00016	4
14698	0.00011	0.00012	0.00011	-0.0001	-0.0002	0.00068	0.00022	0.00016	4
14699	0.00011	0.00012	0.00011	-0.0001	-0.0002	0.00068	0.00022	0.00016	4
14700	0.00011	0.00012	0.00011	-0.0001	-0.0002	0.00068	0.00022	0.00016	4
14701	0.00011	0.00012	0.00011	-0.0001	-0.0002	0.00068	0.00022	0.00016	4
14702	-1e-05	-3e-05	-5e-05	-7e-05	-0.00061	-0.00031	-3e-05	0	4
14703	5e-05	-2e-05	-4e-05	-0.00015	-0.00036	-0.00012	-0.00022	0.00047	4
14704	5e-05	-2e-05	-4e-05	-0.00015	-0.00036	-0.00012	-0.00022	0.00047	4
14705	5e-05	-2e-05	-4e-05	-0.00015	-0.00036	-0.00012	-0.00022	0.00047	4
14706	5e-05	-2e-05	-4e-05	-0.00015	-0.00036	-0.00012	-0.00022	0.00047	4
14707	5e-05	-2e-05	-4e-05	-0.00015	-0.00036	-0.00012	-0.00022	0.00047	4
14708	5e-05	-2e-05	-4e-05	-0.00015	-0.00036	-0.00012	-0.00022	0.00047	4
14709	5e-05	-2e-05	-4e-05	-0.00015	-0.00036	-0.00012	-0.00022	0.00047	4
14710	5e-05	-2e-05	-4e-05	-0.00015	-0.00036	-0.00012	-0.00022	0.00047	4
14711	5e-05	-2e-05	-4e-05	-0.00015	-0.00036	-0.00012	-0.00022	0.00047	4
14712	5e-05	-2e-05	-4e-05	-0.00015	-0.00036	-0.00012	-0.00022	0.00047	4
14713	5e-05	-2e-05	-4e-05	-0.00015	-0.00036	-0.00012	-0.00022	0.00047	4
14714	5e-05	-2e-05	-4e-05	-0.00015	-0.00036	-0.00012	-0.00022	0.00047	4
14715	5e-05	-2e-05	-4e-05	-0.00015	-0.00036	-0.00012	-0.00022	0.00047	4
14716	-5e-05	-8e-05	-0.0001	0	-0.0012	-0.00067	0	0.00013	4
14717	1e-05	3e-05	7e-05	0.00026	-0.00064	0.00053	0.00015	-2e-05	4
14718	1e-05	3e-05	7e-05	0.00026	-0.00064	0.00053	0.00015	-2e-05	4
14719	1e-05	3e-05	7e-05	0.00026	-0.00064	0.00053	0.00015	-2e-05	4
14720	1e-05	3e-05	7e-05	0.00026	-0.00064	0.00053	0.00015	-2e-05	4
14721	1e-05	3e-05	7e-05	0.00026	-0.00064	0.00053	0.00015	-2e-05	4
14722	1e-05	3e-05	7e-05	0.00026	-0.00064	0.00053	0.00015	-2e-05	4
14723	1e-05	3e-05	7e-05	0.00026	-0.00064	0.00053	0.00015	-2e-05	4
14724	1e-05	3e-05	7e-05	0.00026	-0.00064	0.00053	0.00015	-2e-05	4
14725	1e-05	3e-05	7e-05	0.00026	-0.00064	0.00053	0.00015	-2e-05	4
14726	1e-05	3e-05	7e-05	0.00026	-0.00064	0.00053	0.00015	-2e-05	4
14727	1e-05	3e-05	7e-05	0.00026	-0.00064	0.00053	0.00015	-2e-05	4
14728	1e-05	3e-05	7e-05	0.00026	-0.00064	0.00053	0.00015	-2e-05	4
14729	1e-05	3e-05	7e-05	0.00026	-0.00064	0.00053	0.00015	-2e-05	4
14730	1e-05	3e-05	7e-05	0.00026	-0.00064	0.00053	0.00015	-2e-05	4
14731	1e-05	3e-05	7e-05	0.00026	-0.00064	0.00053	0.00015	-2e-05	4
14732	1e-05	3e-05	7e-05	0.00026	-0.00064	0.00053	0.00015	-2e-05	4
14733	1e-05	3e-05	7e-05	0.00026	-0.00064	0.00053	0.00015	-2e-05	4
14734	1e-05	3e-05	7e-05	0.00026	-0.00064	0.00053	0.00015	-2e-05	4
14735	1e-05	3e-05	7e-05	0.00026	-0.00064	0.00053	0.00015	-2e-05	4
14736	1e-05	3e-05	7e-05	0.00026	-0.00064	0.00053	0.00015	-2e-05	4
14738	1e-05	3e-05	7e-05	0.00026	-0.00064	0.00053	0.00015	-2e-05	4
14739	1e-05	3e-05	7e-05	0.00026	-0.00064	0.00053	0.00015	-2e-05	4
14740	-2e-05	4e-05	0.0001	4e-05	0.00062	0.00024	4e-05	-0.00014	4
14741	-2e-05	4e-05	0.0001	4e-05	0.00062	0.00024	4e-05	-0.00014	4
14742	-2e-05	4e-05	0.0001	4e-05	0.00062	0.00024	4e-05	-0.00014	4
14743	-2e-05	4e-05	0.0001	4e-05	0.00062	0.00024	4e-05	-0.00014	4
14744	-2e-05	4e-05	0.0001	4e-05	0.00062	0.00024	4e-05	-0.00014	4
14745	-2e-05	4e-05	0.0001	4e-05	0.00062	0.00024	4e-05	-0.00014	4
14746	-2e-05	4e-05	0.0001	4e-05	0.00062	0.00024	4e-05	-0.00014	4
14747	-2e-05	4e-05	0.0001	4e-05	0.00062	0.00024	4e-05	-0.00014	4
14748	-2e-05	4e-05	0.0001	4e-05	0.00062	0.00024	4e-05	-0.00014	4
14749	-2e-05	4e-05	0.0001	4e-05	0.00062	0.00024	4e-05	-0.00014	4
14750	-2e-05	4e-05	0.0001	4e-05	0.00062	0.00024	4e-05	-0.00014	4
14751	-2e-05	4e-05	0.0001	4e-05	0.00062	0.00024	4e-05	-0.00014	4
14752	-2e-05	4e-05	0.0001	4e-05	0.00062	0.00024	4e-05	-0.00014	4
14753	-2e-05	4e-05	0.0001	4e-05	0.00062	0.00024	4e-05	-0.00014	4
14754	-2e-05	4e-05	0.0001	4e-05	0.00062	0.00024	4e-05	-0.00014	4
14755	-2e-05	4e-05	0.0001	4e-05	0.00062	0.00024	4e-05	-0.00014	4
14756	-2e-05	4e-05	0.0001	4e-05	0.00062	0.00024	4e-05	-0.00014	4
14757	-2e-05	4e-05	0.0001	4e-05	0.00062	0.00024	4e-05	-0.00014	4
14758	-2e-05	4e-05	0.0001	4e-05	0.00062	0.00024	4e-05	-0.00014	4
14759	-2e-05	4e-05	0.0001	4e-05	0.00062	0.00024	4e-05	-0.00014	4
14760	-2e-05	4e-05	0.0001	4e-05	0.00062	0.00024	4e-05	-0.00014	4
14761	-2e-05	4e-05	0.0001	4e-05	0.00062	0.00024	4e-05	-0.00014	4
14762	-2e-05	-2e-05	0	-2e-05	-8e-05	-0.00063	5e-05	-7e-05	4
14763	1e-05	-3e-05	-4e-05	-0.00013	-0.00059	-0.00062	-0.00028	0	4
14764	1e-05	-3e-05	-4e-05	-0.00013	-0.00059	-0.00062	-0.00028	0	4
14765	1e-05	-3e-05	-4e-05	-0.00013	-0.00059	-0.00062	-0.00028	0	4
14766	1e-05	-3e-05	-4e-05	-0.00013	-0.00059	-0.00062	-0.00028	0	4
14767	1e-05	-3e-05	-4e-05	-0.00013	-0.00059	-0.00062	-0.00028	0	4
14768	1e-05	-3e-05	-4e-05	-0.00013	-0.00059	-0.00062	-0.00028	0	4
14769	1e-05	-3e-05	-4e-05	-0.00013	-0.00059	-0.00062	-0.00028	0	4
14770	1e-05	-3e-05	-4e-05	-0.00013	-0.00059	-0.00062	-0.00028	0	4
14771	1e-05	-3e-05	-4e-05	-0.00013	-0.00059	-0.00062	-0.00028	0	4
14772	1e-05	-3e-05	-4e-05	-0.00013	-0.00059	-0.00062	-0.00028	0	4
14773	1e-05	-3e-05	-4e-05	-0.00013	-0.00059	-0.00062	-0.00028	0	4
14774	1e-05	-3e-05	-4e-05	-0.00013	-0.00059	-0.00062	-0.00028	0	4
14775	1e-05	-3e-05	-4e-05	-0.00013	-0.00059	-0.00062	-0.00028	0	4
14776	-0.00011	-9e-05	-0.0001	0.00021	-0.00076	-5e-05	-4e-05	-0.00011	4
14777	-2e-05	-6e-05	-7e-05	-0.00013	0.00026	-0.00032	4e-05	0.00016	4
14778	-2e-05	-6e-05	-7e-05	-0.00013	0.00026	-0.00032	4e-05	0.00016	4
14779	-2e-05	-6e-05	-7e-05	-0.00013	0.00026	-0.00032	4e-05	0.00016	4
14780	-2e-05	-6e-05	-7e-05	-0.00013	0.00026	-0.00032	4e-05	0.00016	4
14781	-2e-05	-6e-05	-7e-05	-0.00013	0.00026	-0.00032	4e-05	0.00016	4
14782	-2e-05	-6e-05	-7e-05	-0.00013	0.00026	-0.00032	4e-05	0.00016	4
14783	-2e-05	-6e-05	-7e-05	-0.00013	0.00026	-0.00032	4e-05	0.00016	4
14784	-2e-05	-6e-05	-7e-05	-0.00013	0.00026	-0.00032	4e-05	0.00016	4
14785	-2e-05	-6e-05	-7e-05	-0.00013	0.00026	-0.00032	4e-05	0.00016	4
14786	-2e-05	-6e-05	-7e-05	-0.00013	0.00026	-0.00032	4e-05	0.00016	4
14788	-2e-05	-6e-05	-7e-05	-0.00013	0.00026	-0.00032	4e-05	0.00016	4
14789	-2e-05	-6e-05	-7e-05	-0.00013	0.00026	-0.00032	4e-05	0.00016	4
14790	-2e-05	-6e-05	-7e-05	-0.00013	0.00026	-0.00032	4e-05	0.00016	4
14791	-2e-05	-6e-05	-7e-05	-0.00013	0.00026	-0.00032	4e-05	0.00016	4
14792	-2e-05	-6e-05	-7e-05	-0.00013	0.00026	-0.00032	4e-05	0.00016	4
14793	-2e-05	-6e-05	-7e-05	-0.00013	0.00026	-0.00032	4e-05	0.00016	4
14794	-2e-05	-6e-05	-7e-05	-0.00013	0.00026	-0.00032	4e-05	0.00016	4
14795	-2e-05	-6e-05	-7e-05	-0.00013	0.00026	-0.00032	4e-05	0.00016	4
14796	-2e-05	-6e-05	-7e-05	-0.00013	0.00026	-0.00032	4e-05	0.00016	4
14797	-2e-05	-6e-05	-7e-05	-0.00013	0.00026	-0.00032	4e-05	0.00016	4
14798	-2e-05	-6e-05	-7e-05	-0.00013	0.00026	-0.00032	4e-05	0.00016	4
14799	-2e-05	-6e-05	-7e-05	-0.00013	0.00026	-0.00032	4e-05	0.00016	4
14800	1e-05	3e-05	8e-05	0.00032	-0.00096	0.00028	3e-05	-0.00019	4
14801	1e-05	3e-05	8e-05	0.00032	-0.00096	0.00028	3e-05	-0.00019	4
14802	1e-05	3e-05	8e-05	0.00032	-0.00096	0.00028	3e-05	-0.00019	4
14803	1e-05	3e-05	8e-05	0.00032	-0.00096	0.00028	3e-05	-0.00019	4
14804	1e-05	3e-05	8e-05	0.00032	-0.00096	0.00028	3e-05	-0.00019	4
14805	1e-05	3e-05	8e-05	0.00032	-0.00096	0.00028	3e-05	-0.00019	4
14806	1e-05	3e-05	8e-05	0.00032	-0.00096	0.00028	3e-05	-0.00019	4
14807	1e-05	3e-05	8e-05	0.00032	-0.00096	0.00028	3e-05	-0.00019	4
14808	1e-05	3e-05	8e-05	0.00032	-0.00096	0.00028	3e-05	-0.00019	4
14809	1e-05	3e-05	8e-05	0.00032	-0.00096	0.00028	3e-05	-0.00019	4
14810	1e-05	3e-05	8e-05	0.00032	-0.00096	0.00028	3e-05	-0.00019	4
14811	1e-05	3e-05	8e-05	0.00032	-0.00096	0.00028	3e-05	-0.00019	4
14812	1e-05	3e-05	8e-05	0.00032	-0.00096	0.00028	3e-05	-0.00019	4
14813	1e-05	3e-05	8e-05	0.00032	-0.00096	0.00028	3e-05	-0.00019	4
14814	1e-05	3e-05	8e-05	0.00032	-0.00096	0.00028	3e-05	-0.00019	4
14815	1e-05	3e-05	8e-05	0.00032	-0.00096	0.00028	3e-05	-0.00019	4
14816	1e-05	3e-05	8e-05	0.00032	-0.00096	0.00028	3e-05	-0.00019	4
14817	1e-05	3e-05	8e-05	0.00032	-0.00096	0.00028	3e-05	-0.00019	4
14818	1e-05	3e-05	8e-05	0.00032	-0.00096	0.00028	3e-05	-0.00019	4
14819	1e-05	3e-05	8e-05	0.00032	-0.00096	0.00028	3e-05	-0.00019	4
14820	1e-05	3e-05	8e-05	0.00032	-0.00096	0.00028	3e-05	-0.00019	4
14821	1e-05	3e-05	8e-05	0.00032	-0.00096	0.00028	3e-05	-0.00019	4
14822	0	-2e-05	-7e-05	-8e-05	0.00024	0.0004	-0.00032	-2e-05	4
14823	0	-2e-05	-7e-05	-8e-05	0.00024	0.0004	-0.00032	-2e-05	4
14824	0	-1e-05	-2e-05	0	-2e-05	3e-05	0.00014	-8e-05	4
14825	0	-1e-05	-2e-05	0	-2e-05	3e-05	0.00014	-8e-05	4
14826	0	-1e-05	-2e-05	0	-2e-05	3e-05	0.00014	-8e-05	4
14827	0	-1e-05	-2e-05	0	-2e-05	3e-05	0.00014	-8e-05	4
14828	0	-1e-05	-2e-05	0	-2e-05	3e-05	0.00014	-8e-05	4
14829	0	-1e-05	-2e-05	0	-2e-05	3e-05	0.00014	-8e-05	4
14830	0	-1e-05	-2e-05	0	-2e-05	3e-05	0.00014	-8e-05	4
14831	0	-1e-05	-2e-05	0	-2e-05	3e-05	0.00014	-8e-05	4
14832	0	-1e-05	-2e-05	0	-2e-05	3e-05	0.00014	-8e-05	4
14833	0	-1e-05	-2e-05	0	-2e-05	3e-05	0.00014	-8e-05	4
14834	0	-1e-05	-2e-05	0	-2e-05	3e-05	0.00014	-8e-05	4
14835	0	-1e-05	-2e-05	0	-2e-05	3e-05	0.00014	-8e-05	4
14836	0	-1e-05	-2e-05	0	-2e-05	3e-05	0.00014	-8e-05	4
14838	0.00012	7e-05	0.00014	0.00046	0.00069	0.00089	0.00032	0.00043	4
14839	0.00012	7e-05	0.00014	0.00046	0.00069	0.00089	0.00032	0.00043	4
14840	0.00012	7e-05	0.00014	0.00046	0.00069	0.00089	0.00032	0.00043	4
14841	0.00012	7e-05	0.00014	0.00046	0.00069	0.00089	0.00032	0.00043	4
14842	0.00012	7e-05	0.00014	0.00046	0.00069	0.00089	0.00032	0.00043	4
14843	0.00012	7e-05	0.00014	0.00046	0.00069	0.00089	0.00032	0.00043	4
14844	0.00012	7e-05	0.00014	0.00046	0.00069	0.00089	0.00032	0.00043	4
14845	0.00012	7e-05	0.00014	0.00046	0.00069	0.00089	0.00032	0.00043	4
14846	0.00012	7e-05	0.00014	0.00046	0.00069	0.00089	0.00032	0.00043	4
14847	0.00012	7e-05	0.00014	0.00046	0.00069	0.00089	0.00032	0.00043	4
14848	0.00012	7e-05	0.00014	0.00046	0.00069	0.00089	0.00032	0.00043	4
14849	0.00012	7e-05	0.00014	0.00046	0.00069	0.00089	0.00032	0.00043	4
14850	0.00012	7e-05	0.00014	0.00046	0.00069	0.00089	0.00032	0.00043	4
14851	0.00012	7e-05	0.00014	0.00046	0.00069	0.00089	0.00032	0.00043	4
14852	0.00012	7e-05	0.00014	0.00046	0.00069	0.00089	0.00032	0.00043	4
14853	0.00012	7e-05	0.00014	0.00046	0.00069	0.00089	0.00032	0.00043	4
14854	0.00012	7e-05	0.00014	0.00046	0.00069	0.00089	0.00032	0.00043	4
14855	0.00012	7e-05	0.00014	0.00046	0.00069	0.00089	0.00032	0.00043	4
14856	0.00012	7e-05	0.00014	0.00046	0.00069	0.00089	0.00032	0.00043	4
14857	0.00012	7e-05	0.00014	0.00046	0.00069	0.00089	0.00032	0.00043	4
14858	0.00012	7e-05	0.00014	0.00046	0.00069	0.00089	0.00032	0.00043	4
14859	0.00012	7e-05	0.00014	0.00046	0.00069	0.00089	0.00032	0.00043	4
14860	-4e-05	-4e-05	-2e-05	-7e-05	-0.00104	-0.00119	-0.0002	-0.00039	4
14861	-4e-05	-4e-05	-2e-05	-7e-05	-0.00104	-0.00119	-0.0002	-0.00039	4
14862	-4e-05	-4e-05	-2e-05	-7e-05	-0.00104	-0.00119	-0.0002	-0.00039	4
14863	-4e-05	-4e-05	-2e-05	-7e-05	-0.00104	-0.00119	-0.0002	-0.00039	4
14864	-4e-05	-4e-05	-2e-05	-7e-05	-0.00104	-0.00119	-0.0002	-0.00039	4
14865	-4e-05	-4e-05	-2e-05	-7e-05	-0.00104	-0.00119	-0.0002	-0.00039	4
14866	-4e-05	-4e-05	-2e-05	-7e-05	-0.00104	-0.00119	-0.0002	-0.00039	4
14867	-4e-05	-4e-05	-2e-05	-7e-05	-0.00104	-0.00119	-0.0002	-0.00039	4
14868	-4e-05	-4e-05	-2e-05	-7e-05	-0.00104	-0.00119	-0.0002	-0.00039	4
14869	-4e-05	-4e-05	-2e-05	-7e-05	-0.00104	-0.00119	-0.0002	-0.00039	4
14870	-4e-05	-4e-05	-2e-05	-7e-05	-0.00104	-0.00119	-0.0002	-0.00039	4
14871	-4e-05	-4e-05	-2e-05	-7e-05	-0.00104	-0.00119	-0.0002	-0.00039	4
14872	-4e-05	-4e-05	-2e-05	-7e-05	-0.00104	-0.00119	-0.0002	-0.00039	4
14873	-4e-05	-4e-05	-2e-05	-7e-05	-0.00104	-0.00119	-0.0002	-0.00039	4
14874	-4e-05	-4e-05	-2e-05	-7e-05	-0.00104	-0.00119	-0.0002	-0.00039	4
14875	-4e-05	-4e-05	-2e-05	-7e-05	-0.00104	-0.00119	-0.0002	-0.00039	4
14876	-4e-05	-4e-05	-2e-05	-7e-05	-0.00104	-0.00119	-0.0002	-0.00039	4
14877	-4e-05	-4e-05	-2e-05	-7e-05	-0.00104	-0.00119	-0.0002	-0.00039	4
14878	-4e-05	-4e-05	-2e-05	-7e-05	-0.00104	-0.00119	-0.0002	-0.00039	4
14879	-4e-05	-4e-05	-2e-05	-7e-05	-0.00104	-0.00119	-0.0002	-0.00039	4
14880	-4e-05	-4e-05	-2e-05	-7e-05	-0.00104	-0.00119	-0.0002	-0.00039	4
14881	-4e-05	-4e-05	-2e-05	-7e-05	-0.00104	-0.00119	-0.0002	-0.00039	4
14882	-2e-05	-3e-05	-4e-05	9e-05	0.00097	1e-05	3e-05	0.00028	4
14883	-2e-05	-3e-05	-4e-05	9e-05	0.00097	1e-05	3e-05	0.00028	4
14884	-1e-05	1e-05	0	6e-05	0.00069	0.00033	0.00011	0.00018	4
14885	-1e-05	1e-05	0	6e-05	0.00069	0.00033	0.00011	0.00018	4
14886	-1e-05	1e-05	0	6e-05	0.00069	0.00033	0.00011	0.00018	4
14888	-1e-05	1e-05	0	6e-05	0.00069	0.00033	0.00011	0.00018	4
14889	-1e-05	1e-05	0	6e-05	0.00069	0.00033	0.00011	0.00018	4
14890	-1e-05	1e-05	0	6e-05	0.00069	0.00033	0.00011	0.00018	4
14891	-1e-05	1e-05	0	6e-05	0.00069	0.00033	0.00011	0.00018	4
14892	-1e-05	1e-05	0	6e-05	0.00069	0.00033	0.00011	0.00018	4
14893	-1e-05	1e-05	0	6e-05	0.00069	0.00033	0.00011	0.00018	4
14894	-1e-05	1e-05	0	6e-05	0.00069	0.00033	0.00011	0.00018	4
14895	-1e-05	1e-05	0	6e-05	0.00069	0.00033	0.00011	0.00018	4
14896	6e-05	8e-05	6e-05	-0.00038	-0.00128	-0.00039	0.00022	0.00017	4
14897	6e-05	8e-05	6e-05	-0.00038	-0.00128	-0.00039	0.00022	0.00017	4
14898	6e-05	8e-05	6e-05	-0.00038	-0.00128	-0.00039	0.00022	0.00017	4
14899	6e-05	8e-05	6e-05	-0.00038	-0.00128	-0.00039	0.00022	0.00017	4
14900	6e-05	8e-05	6e-05	-0.00038	-0.00128	-0.00039	0.00022	0.00017	4
14901	6e-05	8e-05	6e-05	-0.00038	-0.00128	-0.00039	0.00022	0.00017	4
14902	6e-05	8e-05	6e-05	-0.00038	-0.00128	-0.00039	0.00022	0.00017	4
14903	6e-05	8e-05	6e-05	-0.00038	-0.00128	-0.00039	0.00022	0.00017	4
14904	6e-05	8e-05	6e-05	-0.00038	-0.00128	-0.00039	0.00022	0.00017	4
14905	3e-05	3e-05	-1e-05	-0.00013	-0.00028	-0.00035	-1e-05	0.00043	4
14906	3e-05	3e-05	-1e-05	-0.00013	-0.00028	-0.00035	-1e-05	0.00043	4
14907	3e-05	3e-05	-1e-05	-0.00013	-0.00028	-0.00035	-1e-05	0.00043	4
14908	3e-05	3e-05	-1e-05	-0.00013	-0.00028	-0.00035	-1e-05	0.00043	4
14909	3e-05	3e-05	-1e-05	-0.00013	-0.00028	-0.00035	-1e-05	0.00043	4
14910	3e-05	3e-05	-1e-05	-0.00013	-0.00028	-0.00035	-1e-05	0.00043	4
14911	3e-05	3e-05	-1e-05	-0.00013	-0.00028	-0.00035	-1e-05	0.00043	4
14912	3e-05	3e-05	-1e-05	-0.00013	-0.00028	-0.00035	-1e-05	0.00043	4
14913	3e-05	3e-05	-1e-05	-0.00013	-0.00028	-0.00035	-1e-05	0.00043	4
14914	3e-05	3e-05	-1e-05	-0.00013	-0.00028	-0.00035	-1e-05	0.00043	4
14915	3e-05	3e-05	-1e-05	-0.00013	-0.00028	-0.00035	-1e-05	0.00043	4
14916	3e-05	3e-05	-1e-05	-0.00013	-0.00028	-0.00035	-1e-05	0.00043	4
14917	3e-05	3e-05	-1e-05	-0.00013	-0.00028	-0.00035	-1e-05	0.00043	4
14918	3e-05	3e-05	-1e-05	-0.00013	-0.00028	-0.00035	-1e-05	0.00043	4
14919	3e-05	3e-05	-1e-05	-0.00013	-0.00028	-0.00035	-1e-05	0.00043	4
14920	7e-05	1e-05	1e-05	1e-05	-0.00055	0.00069	0.00017	1e-05	4
14921	-6e-05	-7e-05	-0.00014	-0.00044	-0.00013	-0.00018	0.00016	-0.00028	4
14922	-6e-05	-7e-05	-0.00014	-0.00044	-0.00013	-0.00018	0.00016	-0.00028	4
14923	-6e-05	-7e-05	-0.00014	-0.00044	-0.00013	-0.00018	0.00016	-0.00028	4
14924	-6e-05	-7e-05	-0.00014	-0.00044	-0.00013	-0.00018	0.00016	-0.00028	4
14925	-6e-05	-7e-05	-0.00014	-0.00044	-0.00013	-0.00018	0.00016	-0.00028	4
14926	-6e-05	-7e-05	-0.00014	-0.00044	-0.00013	-0.00018	0.00016	-0.00028	4
14927	-6e-05	-7e-05	-0.00014	-0.00044	-0.00013	-0.00018	0.00016	-0.00028	4
14928	-6e-05	-7e-05	-0.00014	-0.00044	-0.00013	-0.00018	0.00016	-0.00028	4
14929	-6e-05	-7e-05	-0.00014	-0.00044	-0.00013	-0.00018	0.00016	-0.00028	4
14930	-6e-05	-7e-05	-0.00014	-0.00044	-0.00013	-0.00018	0.00016	-0.00028	4
14931	-6e-05	-7e-05	-0.00014	-0.00044	-0.00013	-0.00018	0.00016	-0.00028	4
14932	-6e-05	-7e-05	-0.00014	-0.00044	-0.00013	-0.00018	0.00016	-0.00028	4
14933	-6e-05	-7e-05	-0.00014	-0.00044	-0.00013	-0.00018	0.00016	-0.00028	4
14934	-6e-05	-7e-05	-0.00014	-0.00044	-0.00013	-0.00018	0.00016	-0.00028	4
14935	-6e-05	-7e-05	-0.00014	-0.00044	-0.00013	-0.00018	0.00016	-0.00028	4
14936	-6e-05	-7e-05	-0.00014	-0.00044	-0.00013	-0.00018	0.00016	-0.00028	4
14938	-6e-05	-7e-05	-0.00014	-0.00044	-0.00013	-0.00018	0.00016	-0.00028	4
14939	-6e-05	-7e-05	-0.00014	-0.00044	-0.00013	-0.00018	0.00016	-0.00028	4
14940	-6e-05	-7e-05	-0.00014	-0.00044	-0.00013	-0.00018	0.00016	-0.00028	4
14941	-6e-05	-7e-05	-0.00014	-0.00044	-0.00013	-0.00018	0.00016	-0.00028	4
14942	-7e-05	-6e-05	-9e-05	-4e-05	-0.00046	-0.00068	-0.00046	-0.0001	4
14943	-7e-05	-6e-05	-9e-05	-4e-05	-0.00046	-0.00068	-0.00046	-0.0001	4
14944	-0.00011	-0.0001	-0.00012	-0.00013	0.00093	0.00012	-0.00014	-0.00051	4
14945	-0.00011	-0.0001	-0.00012	-0.00013	0.00093	0.00012	-0.00014	-0.00051	4
14946	-0.00011	-0.0001	-0.00012	-0.00013	0.00093	0.00012	-0.00014	-0.00051	4
14947	-0.00011	-0.0001	-0.00012	-0.00013	0.00093	0.00012	-0.00014	-0.00051	4
14948	-0.00011	-0.0001	-0.00012	-0.00013	0.00093	0.00012	-0.00014	-0.00051	4
14949	-0.00011	-0.0001	-0.00012	-0.00013	0.00093	0.00012	-0.00014	-0.00051	4
14950	-0.00011	-0.0001	-0.00012	-0.00013	0.00093	0.00012	-0.00014	-0.00051	4
14951	-0.00011	-0.0001	-0.00012	-0.00013	0.00093	0.00012	-0.00014	-0.00051	4
14952	-0.00011	-0.0001	-0.00012	-0.00013	0.00093	0.00012	-0.00014	-0.00051	4
14953	-0.00011	-0.0001	-0.00012	-0.00013	0.00093	0.00012	-0.00014	-0.00051	4
14954	-0.00011	-0.0001	-0.00012	-0.00013	0.00093	0.00012	-0.00014	-0.00051	4
14955	-0.00011	-0.0001	-0.00012	-0.00013	0.00093	0.00012	-0.00014	-0.00051	4
14956	-1e-05	-2e-05	-4e-05	-9e-05	0.00051	0.00017	6e-05	-0.00012	4
14957	-1e-05	-2e-05	-4e-05	-9e-05	0.00051	0.00017	6e-05	-0.00012	4
14958	-1e-05	-2e-05	-4e-05	-9e-05	0.00051	0.00017	6e-05	-0.00012	4
14959	-1e-05	-2e-05	-4e-05	-9e-05	0.00051	0.00017	6e-05	-0.00012	4
14960	-1e-05	-2e-05	-4e-05	-9e-05	0.00051	0.00017	6e-05	-0.00012	4
14961	-1e-05	-2e-05	-4e-05	-9e-05	0.00051	0.00017	6e-05	-0.00012	4
14962	-1e-05	-2e-05	-4e-05	-9e-05	0.00051	0.00017	6e-05	-0.00012	4
14963	-1e-05	-2e-05	-4e-05	-9e-05	0.00051	0.00017	6e-05	-0.00012	4
14964	-1e-05	-2e-05	-4e-05	-9e-05	0.00051	0.00017	6e-05	-0.00012	4
14965	-1e-05	-2e-05	-4e-05	-9e-05	0.00051	0.00017	6e-05	-0.00012	4
14966	-1e-05	-2e-05	-4e-05	-9e-05	0.00051	0.00017	6e-05	-0.00012	4
14967	-1e-05	-2e-05	-4e-05	-9e-05	0.00051	0.00017	6e-05	-0.00012	4
14968	-1e-05	-2e-05	-4e-05	-9e-05	0.00051	0.00017	6e-05	-0.00012	4
14969	-1e-05	-2e-05	-4e-05	-9e-05	0.00051	0.00017	6e-05	-0.00012	4
14970	-1e-05	-2e-05	-4e-05	-9e-05	0.00051	0.00017	6e-05	-0.00012	4
14971	-1e-05	-2e-05	-4e-05	-9e-05	0.00051	0.00017	6e-05	-0.00012	4
14972	-0.00011	-0.00011	-0.00014	-0.00016	-0.00045	0.00053	-0.00021	-0.00034	4
14973	-0.00011	-0.00011	-0.00014	-0.00016	-0.00045	0.00053	-0.00021	-0.00034	4
14974	-0.00011	-0.00011	-0.00014	-0.00016	-0.00045	0.00053	-0.00021	-0.00034	4
14975	-0.00011	-0.00011	-0.00014	-0.00016	-0.00045	0.00053	-0.00021	-0.00034	4
14976	-0.00011	-0.00011	-0.00014	-0.00016	-0.00045	0.00053	-0.00021	-0.00034	4
14977	-0.00011	-0.00011	-0.00014	-0.00016	-0.00045	0.00053	-0.00021	-0.00034	4
14978	-0.00011	-0.00011	-0.00014	-0.00016	-0.00045	0.00053	-0.00021	-0.00034	4
14979	-0.00011	-0.00011	-0.00014	-0.00016	-0.00045	0.00053	-0.00021	-0.00034	4
14980	-6e-05	-7e-05	-5e-05	1e-05	-0.0008	-0.00019	9e-05	-4e-05	4
14981	2e-05	9e-05	0.00019	0.00047	-0.00048	0.00011	0.00039	4e-05	4
14982	2e-05	9e-05	0.00019	0.00047	-0.00048	0.00011	0.00039	4e-05	4
14983	2e-05	9e-05	0.00019	0.00047	-0.00048	0.00011	0.00039	4e-05	4
14984	2e-05	9e-05	0.00019	0.00047	-0.00048	0.00011	0.00039	4e-05	4
14985	2e-05	9e-05	0.00019	0.00047	-0.00048	0.00011	0.00039	4e-05	4
14986	2e-05	9e-05	0.00019	0.00047	-0.00048	0.00011	0.00039	4e-05	4
14988	2e-05	9e-05	0.00019	0.00047	-0.00048	0.00011	0.00039	4e-05	4
14989	2e-05	9e-05	0.00019	0.00047	-0.00048	0.00011	0.00039	4e-05	4
14990	2e-05	9e-05	0.00019	0.00047	-0.00048	0.00011	0.00039	4e-05	4
14991	2e-05	9e-05	0.00019	0.00047	-0.00048	0.00011	0.00039	4e-05	4
14992	2e-05	9e-05	0.00019	0.00047	-0.00048	0.00011	0.00039	4e-05	4
14993	2e-05	9e-05	0.00019	0.00047	-0.00048	0.00011	0.00039	4e-05	4
14994	2e-05	9e-05	0.00019	0.00047	-0.00048	0.00011	0.00039	4e-05	4
14995	2e-05	9e-05	0.00019	0.00047	-0.00048	0.00011	0.00039	4e-05	4
14996	2e-05	9e-05	0.00019	0.00047	-0.00048	0.00011	0.00039	4e-05	4
14997	2e-05	9e-05	0.00019	0.00047	-0.00048	0.00011	0.00039	4e-05	4
14998	2e-05	9e-05	0.00019	0.00047	-0.00048	0.00011	0.00039	4e-05	4
14999	2e-05	9e-05	0.00019	0.00047	-0.00048	0.00011	0.00039	4e-05	4
15000	2e-05	9e-05	0.00019	0.00047	-0.00048	0.00011	0.00039	4e-05	4
15001	2e-05	9e-05	0.00019	0.00047	-0.00048	0.00011	0.00039	4e-05	4
15002	9e-05	3e-05	0.00011	0.00018	-0.00047	0.00014	-2e-05	6e-05	4
15003	9e-05	3e-05	0.00011	0.00018	-0.00047	0.00014	-2e-05	6e-05	4
15004	0	2e-05	5e-05	0.00022	-0.00069	1e-05	-0.00051	-0.0003	4
15005	0	2e-05	5e-05	0.00022	-0.00069	1e-05	-0.00051	-0.0003	4
15006	0	2e-05	5e-05	0.00022	-0.00069	1e-05	-0.00051	-0.0003	4
15007	0	2e-05	5e-05	0.00022	-0.00069	1e-05	-0.00051	-0.0003	4
15008	0	2e-05	5e-05	0.00022	-0.00069	1e-05	-0.00051	-0.0003	4
15009	0	2e-05	5e-05	0.00022	-0.00069	1e-05	-0.00051	-0.0003	4
15010	0	2e-05	5e-05	0.00022	-0.00069	1e-05	-0.00051	-0.0003	4
15011	0	2e-05	5e-05	0.00022	-0.00069	1e-05	-0.00051	-0.0003	4
15012	0	2e-05	5e-05	0.00022	-0.00069	1e-05	-0.00051	-0.0003	4
15013	0	2e-05	5e-05	0.00022	-0.00069	1e-05	-0.00051	-0.0003	4
15014	0	2e-05	5e-05	0.00022	-0.00069	1e-05	-0.00051	-0.0003	4
15015	0	2e-05	5e-05	0.00022	-0.00069	1e-05	-0.00051	-0.0003	4
15016	3e-05	4e-05	6e-05	0.0001	0.00045	0.0002	0.00032	8e-05	4
15017	3e-05	4e-05	6e-05	0.0001	0.00045	0.0002	0.00032	8e-05	4
15018	3e-05	4e-05	6e-05	0.0001	0.00045	0.0002	0.00032	8e-05	4
15019	3e-05	4e-05	6e-05	0.0001	0.00045	0.0002	0.00032	8e-05	4
15020	3e-05	4e-05	6e-05	0.0001	0.00045	0.0002	0.00032	8e-05	4
15021	3e-05	4e-05	6e-05	0.0001	0.00045	0.0002	0.00032	8e-05	4
15022	3e-05	4e-05	6e-05	0.0001	0.00045	0.0002	0.00032	8e-05	4
15023	3e-05	4e-05	6e-05	0.0001	0.00045	0.0002	0.00032	8e-05	4
15024	3e-05	4e-05	6e-05	0.0001	0.00045	0.0002	0.00032	8e-05	4
15025	-4e-05	-2e-05	-4e-05	-0.00012	0.00055	-0.00048	-9e-05	-0.00026	4
15026	-4e-05	-2e-05	-4e-05	-0.00012	0.00055	-0.00048	-9e-05	-0.00026	4
15027	-4e-05	-2e-05	-4e-05	-0.00012	0.00055	-0.00048	-9e-05	-0.00026	4
15028	-4e-05	-2e-05	-4e-05	-0.00012	0.00055	-0.00048	-9e-05	-0.00026	4
15029	-4e-05	-2e-05	-4e-05	-0.00012	0.00055	-0.00048	-9e-05	-0.00026	4
15030	-4e-05	-2e-05	-4e-05	-0.00012	0.00055	-0.00048	-9e-05	-0.00026	4
15032	-4e-05	-2e-05	-4e-05	-0.00012	0.00055	-0.00048	-9e-05	-0.00026	4
15033	-4e-05	-2e-05	-4e-05	-0.00012	0.00055	-0.00048	-9e-05	-0.00026	4
15034	-4e-05	-2e-05	-4e-05	-0.00012	0.00055	-0.00048	-9e-05	-0.00026	4
15035	-4e-05	-2e-05	-4e-05	-0.00012	0.00055	-0.00048	-9e-05	-0.00026	4
15036	-4e-05	-2e-05	-4e-05	-0.00012	0.00055	-0.00048	-9e-05	-0.00026	4
15038	-4e-05	-2e-05	-4e-05	-0.00012	0.00055	-0.00048	-9e-05	-0.00026	4
15039	-4e-05	-2e-05	-4e-05	-0.00012	0.00055	-0.00048	-9e-05	-0.00026	4
15040	-9e-05	-4e-05	-0.00011	-0.00031	-0.00066	-0.00103	-0.00036	-0.00022	4
15041	3e-05	0	-1e-05	7e-05	-9e-05	0.00064	0.0002	-0.00011	4
15042	1e-05	-1e-05	-3e-05	-9e-05	-0.00049	-0.00074	3e-05	0.00067	4
15043	1e-05	-1e-05	-3e-05	-9e-05	-0.00049	-0.00074	3e-05	0.00067	4
15044	1e-05	-1e-05	-3e-05	-9e-05	-0.00049	-0.00074	3e-05	0.00067	4
15045	1e-05	-1e-05	-3e-05	-9e-05	-0.00049	-0.00074	3e-05	0.00067	4
15046	1e-05	-1e-05	-3e-05	-9e-05	-0.00049	-0.00074	3e-05	0.00067	4
15047	1e-05	-1e-05	-3e-05	-9e-05	-0.00049	-0.00074	3e-05	0.00067	4
15048	1e-05	-1e-05	-3e-05	-9e-05	-0.00049	-0.00074	3e-05	0.00067	4
15049	1e-05	-1e-05	-3e-05	-9e-05	-0.00049	-0.00074	3e-05	0.00067	4
15050	1e-05	-1e-05	-3e-05	-9e-05	-0.00049	-0.00074	3e-05	0.00067	4
15051	1e-05	-1e-05	-3e-05	-9e-05	-0.00049	-0.00074	3e-05	0.00067	4
15052	1e-05	-1e-05	-3e-05	-9e-05	-0.00049	-0.00074	3e-05	0.00067	4
15053	1e-05	-1e-05	-3e-05	-9e-05	-0.00049	-0.00074	3e-05	0.00067	4
15054	1e-05	-1e-05	-3e-05	-9e-05	-0.00049	-0.00074	3e-05	0.00067	4
15055	1e-05	-1e-05	-3e-05	-9e-05	-0.00049	-0.00074	3e-05	0.00067	4
15056	1e-05	-1e-05	-3e-05	-9e-05	-0.00049	-0.00074	3e-05	0.00067	4
15057	1e-05	-1e-05	-3e-05	-9e-05	-0.00049	-0.00074	3e-05	0.00067	4
15058	1e-05	-1e-05	-3e-05	-9e-05	-0.00049	-0.00074	3e-05	0.00067	4
15059	1e-05	-1e-05	-3e-05	-9e-05	-0.00049	-0.00074	3e-05	0.00067	4
15060	1e-05	-1e-05	-3e-05	-9e-05	-0.00049	-0.00074	3e-05	0.00067	4
15061	1e-05	-1e-05	-3e-05	-9e-05	-0.00049	-0.00074	3e-05	0.00067	4
15062	0	3e-05	0	-0.0004	-0.00044	-0.00019	0.0003	9e-05	4
15063	0	3e-05	0	-0.0004	-0.00044	-0.00019	0.0003	9e-05	4
15064	4e-05	-2e-05	-0.0001	-0.0006	0.00023	-0.00033	-2e-05	0.00014	4
15065	4e-05	-2e-05	-0.0001	-0.0006	0.00023	-0.00033	-2e-05	0.00014	4
15066	4e-05	-2e-05	-0.0001	-0.0006	0.00023	-0.00033	-2e-05	0.00014	4
15067	4e-05	-2e-05	-0.0001	-0.0006	0.00023	-0.00033	-2e-05	0.00014	4
15068	4e-05	-2e-05	-0.0001	-0.0006	0.00023	-0.00033	-2e-05	0.00014	4
15069	4e-05	-2e-05	-0.0001	-0.0006	0.00023	-0.00033	-2e-05	0.00014	4
15070	4e-05	-2e-05	-0.0001	-0.0006	0.00023	-0.00033	-2e-05	0.00014	4
15071	4e-05	-2e-05	-0.0001	-0.0006	0.00023	-0.00033	-2e-05	0.00014	4
15072	4e-05	-2e-05	-0.0001	-0.0006	0.00023	-0.00033	-2e-05	0.00014	4
15073	4e-05	-2e-05	-0.0001	-0.0006	0.00023	-0.00033	-2e-05	0.00014	4
15074	4e-05	-2e-05	-0.0001	-0.0006	0.00023	-0.00033	-2e-05	0.00014	4
15075	4e-05	-2e-05	-0.0001	-0.0006	0.00023	-0.00033	-2e-05	0.00014	4
15076	0	1e-05	1e-05	0.00025	0.00127	0.00053	0.00031	0.00061	4
15077	0	1e-05	1e-05	0.00025	0.00127	0.00053	0.00031	0.00061	4
15078	0	1e-05	1e-05	0.00025	0.00127	0.00053	0.00031	0.00061	4
15079	0	1e-05	1e-05	0.00025	0.00127	0.00053	0.00031	0.00061	4
15080	0	1e-05	1e-05	0.00025	0.00127	0.00053	0.00031	0.00061	4
15081	0	1e-05	1e-05	0.00025	0.00127	0.00053	0.00031	0.00061	4
15082	0	1e-05	1e-05	0.00025	0.00127	0.00053	0.00031	0.00061	4
15083	0	1e-05	1e-05	0.00025	0.00127	0.00053	0.00031	0.00061	4
15084	0	1e-05	1e-05	0.00025	0.00127	0.00053	0.00031	0.00061	4
15085	-7e-05	-0.00013	-0.00013	6e-05	0.001	-0.00027	-0.00013	-0.00021	4
15086	-7e-05	-0.00013	-0.00013	6e-05	0.001	-0.00027	-0.00013	-0.00021	4
15088	-7e-05	-0.00013	-0.00013	6e-05	0.001	-0.00027	-0.00013	-0.00021	4
15089	-7e-05	-0.00013	-0.00013	6e-05	0.001	-0.00027	-0.00013	-0.00021	4
15090	-7e-05	-0.00013	-0.00013	6e-05	0.001	-0.00027	-0.00013	-0.00021	4
15091	-7e-05	-0.00013	-0.00013	6e-05	0.001	-0.00027	-0.00013	-0.00021	4
15092	-7e-05	-0.00013	-0.00013	6e-05	0.001	-0.00027	-0.00013	-0.00021	4
15093	-7e-05	-0.00013	-0.00013	6e-05	0.001	-0.00027	-0.00013	-0.00021	4
15094	-7e-05	-0.00013	-0.00013	6e-05	0.001	-0.00027	-0.00013	-0.00021	4
15095	-7e-05	-0.00013	-0.00013	6e-05	0.001	-0.00027	-0.00013	-0.00021	4
15096	-7e-05	-0.00013	-0.00013	6e-05	0.001	-0.00027	-0.00013	-0.00021	4
15097	-7e-05	-0.00013	-0.00013	6e-05	0.001	-0.00027	-0.00013	-0.00021	4
15098	-7e-05	-0.00013	-0.00013	6e-05	0.001	-0.00027	-0.00013	-0.00021	4
15099	-7e-05	-0.00013	-0.00013	6e-05	0.001	-0.00027	-0.00013	-0.00021	4
15100	3e-05	0	0	0.00019	0.00092	0.00052	4e-05	-0.00014	4
15101	3e-05	3e-05	6e-05	0.00022	0.00101	0.00022	-2e-05	6e-05	4
15102	3e-05	3e-05	6e-05	0.00022	0.00101	0.00022	-2e-05	6e-05	4
15103	3e-05	3e-05	6e-05	0.00022	0.00101	0.00022	-2e-05	6e-05	4
15104	3e-05	3e-05	6e-05	0.00022	0.00101	0.00022	-2e-05	6e-05	4
15105	3e-05	3e-05	6e-05	0.00022	0.00101	0.00022	-2e-05	6e-05	4
15106	3e-05	3e-05	6e-05	0.00022	0.00101	0.00022	-2e-05	6e-05	4
15107	3e-05	3e-05	6e-05	0.00022	0.00101	0.00022	-2e-05	6e-05	4
15108	3e-05	3e-05	6e-05	0.00022	0.00101	0.00022	-2e-05	6e-05	4
15109	3e-05	3e-05	6e-05	0.00022	0.00101	0.00022	-2e-05	6e-05	4
15110	3e-05	3e-05	6e-05	0.00022	0.00101	0.00022	-2e-05	6e-05	4
15111	3e-05	3e-05	6e-05	0.00022	0.00101	0.00022	-2e-05	6e-05	4
15112	3e-05	3e-05	6e-05	0.00022	0.00101	0.00022	-2e-05	6e-05	4
15113	3e-05	3e-05	6e-05	0.00022	0.00101	0.00022	-2e-05	6e-05	4
15114	3e-05	3e-05	6e-05	0.00022	0.00101	0.00022	-2e-05	6e-05	4
15115	3e-05	3e-05	6e-05	0.00022	0.00101	0.00022	-2e-05	6e-05	4
15116	3e-05	3e-05	6e-05	0.00022	0.00101	0.00022	-2e-05	6e-05	4
15118	3e-05	3e-05	6e-05	0.00022	0.00101	0.00022	-2e-05	6e-05	4
15119	3e-05	3e-05	6e-05	0.00022	0.00101	0.00022	-2e-05	6e-05	4
15120	3e-05	3e-05	6e-05	0.00022	0.00101	0.00022	-2e-05	6e-05	4
15121	3e-05	3e-05	6e-05	0.00022	0.00101	0.00022	-2e-05	6e-05	4
15122	-8e-05	-7e-05	-5e-05	6e-05	-0.00054	-0.00061	-0.00057	-0.00072	4
15123	-8e-05	-7e-05	-5e-05	6e-05	-0.00054	-0.00061	-0.00057	-0.00072	4
15124	0.00012	0.00011	0.00013	0.00013	6e-05	0.0004	0.00017	0.00017	4
15125	0.00012	0.00011	0.00013	0.00013	6e-05	0.0004	0.00017	0.00017	4
15126	0.00012	0.00011	0.00013	0.00013	6e-05	0.0004	0.00017	0.00017	4
15127	0.00012	0.00011	0.00013	0.00013	6e-05	0.0004	0.00017	0.00017	4
15128	0.00012	0.00011	0.00013	0.00013	6e-05	0.0004	0.00017	0.00017	4
15129	0.00012	0.00011	0.00013	0.00013	6e-05	0.0004	0.00017	0.00017	4
15130	0.00012	0.00011	0.00013	0.00013	6e-05	0.0004	0.00017	0.00017	4
15131	0.00012	0.00011	0.00013	0.00013	6e-05	0.0004	0.00017	0.00017	4
15132	0.00012	0.00011	0.00013	0.00013	6e-05	0.0004	0.00017	0.00017	4
15133	0.00012	0.00011	0.00013	0.00013	6e-05	0.0004	0.00017	0.00017	4
15134	0.00012	0.00011	0.00013	0.00013	6e-05	0.0004	0.00017	0.00017	4
15135	0.00012	0.00011	0.00013	0.00013	6e-05	0.0004	0.00017	0.00017	4
15136	3e-05	1e-05	-2e-05	-0.00023	0.00085	1e-05	-5e-05	8e-05	4
15138	3e-05	1e-05	-2e-05	-0.00023	0.00085	1e-05	-5e-05	8e-05	4
15139	3e-05	1e-05	-2e-05	-0.00023	0.00085	1e-05	-5e-05	8e-05	4
15140	3e-05	1e-05	-2e-05	-0.00023	0.00085	1e-05	-5e-05	8e-05	4
15141	3e-05	1e-05	-2e-05	-0.00023	0.00085	1e-05	-5e-05	8e-05	4
15142	3e-05	1e-05	-2e-05	-0.00023	0.00085	1e-05	-5e-05	8e-05	4
15143	3e-05	1e-05	-2e-05	-0.00023	0.00085	1e-05	-5e-05	8e-05	4
15144	3e-05	1e-05	-2e-05	-0.00023	0.00085	1e-05	-5e-05	8e-05	4
15145	-0.00012	-5e-05	0	5e-05	-0.00069	-0.00017	-0.00016	-0.00071	4
15146	-0.00012	-5e-05	0	5e-05	-0.00069	-0.00017	-0.00016	-0.00071	4
15147	-0.00012	-5e-05	0	5e-05	-0.00069	-0.00017	-0.00016	-0.00071	4
15148	-0.00012	-5e-05	0	5e-05	-0.00069	-0.00017	-0.00016	-0.00071	4
15149	-0.00012	-5e-05	0	5e-05	-0.00069	-0.00017	-0.00016	-0.00071	4
15150	-0.00012	-5e-05	0	5e-05	-0.00069	-0.00017	-0.00016	-0.00071	4
15151	-0.00012	-5e-05	0	5e-05	-0.00069	-0.00017	-0.00016	-0.00071	4
15152	-0.00012	-5e-05	0	5e-05	-0.00069	-0.00017	-0.00016	-0.00071	4
15153	-0.00012	-5e-05	0	5e-05	-0.00069	-0.00017	-0.00016	-0.00071	4
15154	-0.00012	-5e-05	0	5e-05	-0.00069	-0.00017	-0.00016	-0.00071	4
15155	-0.00012	-5e-05	0	5e-05	-0.00069	-0.00017	-0.00016	-0.00071	4
15156	-0.00012	-5e-05	0	5e-05	-0.00069	-0.00017	-0.00016	-0.00071	4
15157	-0.00012	-5e-05	0	5e-05	-0.00069	-0.00017	-0.00016	-0.00071	4
15158	-0.00012	-5e-05	0	5e-05	-0.00069	-0.00017	-0.00016	-0.00071	4
15159	-0.00012	-5e-05	0	5e-05	-0.00069	-0.00017	-0.00016	-0.00071	4
15160	1e-05	4e-05	0	-0.00023	-0.00116	0.00012	2e-05	0.00041	4
15161	1e-05	1e-05	4e-05	0.00016	-0.00077	0.0001	0	-9e-05	4
15162	1e-05	1e-05	4e-05	0.00016	-0.00077	0.0001	0	-9e-05	4
15163	1e-05	1e-05	4e-05	0.00016	-0.00077	0.0001	0	-9e-05	4
15164	1e-05	1e-05	4e-05	0.00016	-0.00077	0.0001	0	-9e-05	4
15165	1e-05	1e-05	4e-05	0.00016	-0.00077	0.0001	0	-9e-05	4
15166	1e-05	1e-05	4e-05	0.00016	-0.00077	0.0001	0	-9e-05	4
15167	1e-05	1e-05	4e-05	0.00016	-0.00077	0.0001	0	-9e-05	4
15168	1e-05	1e-05	4e-05	0.00016	-0.00077	0.0001	0	-9e-05	4
15169	1e-05	1e-05	4e-05	0.00016	-0.00077	0.0001	0	-9e-05	4
15170	1e-05	1e-05	4e-05	0.00016	-0.00077	0.0001	0	-9e-05	4
15171	1e-05	1e-05	4e-05	0.00016	-0.00077	0.0001	0	-9e-05	4
15172	1e-05	1e-05	4e-05	0.00016	-0.00077	0.0001	0	-9e-05	4
15173	1e-05	1e-05	4e-05	0.00016	-0.00077	0.0001	0	-9e-05	4
15174	1e-05	1e-05	4e-05	0.00016	-0.00077	0.0001	0	-9e-05	4
15175	1e-05	1e-05	4e-05	0.00016	-0.00077	0.0001	0	-9e-05	4
15176	1e-05	1e-05	4e-05	0.00016	-0.00077	0.0001	0	-9e-05	4
15177	1e-05	1e-05	4e-05	0.00016	-0.00077	0.0001	0	-9e-05	4
15178	1e-05	1e-05	4e-05	0.00016	-0.00077	0.0001	0	-9e-05	4
15179	1e-05	1e-05	4e-05	0.00016	-0.00077	0.0001	0	-9e-05	4
15180	1e-05	1e-05	4e-05	0.00016	-0.00077	0.0001	0	-9e-05	4
15181	1e-05	1e-05	4e-05	0.00016	-0.00077	0.0001	0	-9e-05	4
15182	0	-4e-05	0	0.0004	0.00127	-0.00031	6e-05	-0.00011	4
15183	0	-4e-05	0	0.0004	0.00127	-0.00031	6e-05	-0.00011	4
15184	-2e-05	-4e-05	1e-05	0.00028	-0.00039	-0.00021	-2e-05	0.0001	4
15185	-2e-05	-4e-05	1e-05	0.00028	-0.00039	-0.00021	-2e-05	0.0001	4
15186	-2e-05	-4e-05	1e-05	0.00028	-0.00039	-0.00021	-2e-05	0.0001	4
15188	-2e-05	-4e-05	1e-05	0.00028	-0.00039	-0.00021	-2e-05	0.0001	4
15189	-2e-05	-4e-05	1e-05	0.00028	-0.00039	-0.00021	-2e-05	0.0001	4
15190	-2e-05	-4e-05	1e-05	0.00028	-0.00039	-0.00021	-2e-05	0.0001	4
15191	-2e-05	-4e-05	1e-05	0.00028	-0.00039	-0.00021	-2e-05	0.0001	4
15192	-2e-05	-4e-05	1e-05	0.00028	-0.00039	-0.00021	-2e-05	0.0001	4
15193	-2e-05	-4e-05	1e-05	0.00028	-0.00039	-0.00021	-2e-05	0.0001	4
15194	-2e-05	-4e-05	1e-05	0.00028	-0.00039	-0.00021	-2e-05	0.0001	4
15195	-2e-05	-4e-05	1e-05	0.00028	-0.00039	-0.00021	-2e-05	0.0001	4
15196	-3e-05	-2e-05	-1e-05	1e-05	-0.00012	0.00025	1e-05	-1e-05	4
15197	-3e-05	-2e-05	-1e-05	1e-05	-0.00012	0.00025	1e-05	-1e-05	4
15198	-3e-05	-2e-05	-1e-05	1e-05	-0.00012	0.00025	1e-05	-1e-05	4
15199	-3e-05	-2e-05	-1e-05	1e-05	-0.00012	0.00025	1e-05	-1e-05	4
15200	-3e-05	-2e-05	-1e-05	1e-05	-0.00012	0.00025	1e-05	-1e-05	4
15201	-3e-05	-2e-05	-1e-05	1e-05	-0.00012	0.00025	1e-05	-1e-05	4
15202	-3e-05	-2e-05	-1e-05	1e-05	-0.00012	0.00025	1e-05	-1e-05	4
15203	-3e-05	-2e-05	-1e-05	1e-05	-0.00012	0.00025	1e-05	-1e-05	4
15204	-3e-05	-2e-05	-1e-05	1e-05	-0.00012	0.00025	1e-05	-1e-05	4
15205	-5e-05	0	-3e-05	-0.00015	-0.00072	-0.00042	-6e-05	-0.00013	4
15206	-5e-05	0	-3e-05	-0.00015	-0.00072	-0.00042	-6e-05	-0.00013	4
15207	-5e-05	0	-3e-05	-0.00015	-0.00072	-0.00042	-6e-05	-0.00013	4
15208	-5e-05	0	-3e-05	-0.00015	-0.00072	-0.00042	-6e-05	-0.00013	4
15209	-5e-05	0	-3e-05	-0.00015	-0.00072	-0.00042	-6e-05	-0.00013	4
15210	-5e-05	0	-3e-05	-0.00015	-0.00072	-0.00042	-6e-05	-0.00013	4
15211	-5e-05	0	-3e-05	-0.00015	-0.00072	-0.00042	-6e-05	-0.00013	4
15212	-5e-05	0	-3e-05	-0.00015	-0.00072	-0.00042	-6e-05	-0.00013	4
15213	-5e-05	0	-3e-05	-0.00015	-0.00072	-0.00042	-6e-05	-0.00013	4
15214	-5e-05	0	-3e-05	-0.00015	-0.00072	-0.00042	-6e-05	-0.00013	4
15215	-5e-05	0	-3e-05	-0.00015	-0.00072	-0.00042	-6e-05	-0.00013	4
15216	-5e-05	0	-3e-05	-0.00015	-0.00072	-0.00042	-6e-05	-0.00013	4
15217	-5e-05	0	-3e-05	-0.00015	-0.00072	-0.00042	-6e-05	-0.00013	4
15218	-5e-05	0	-3e-05	-0.00015	-0.00072	-0.00042	-6e-05	-0.00013	4
15219	-5e-05	0	-3e-05	-0.00015	-0.00072	-0.00042	-6e-05	-0.00013	4
15220	-2e-05	-2e-05	-2e-05	7e-05	-0.00104	-0.0006	-9e-05	-2e-05	4
15221	-4e-05	-7e-05	-0.00012	-0.00013	0.00097	0.00038	0.00015	7e-05	4
15222	-4e-05	-7e-05	-0.00012	-0.00013	0.00097	0.00038	0.00015	7e-05	4
15223	-4e-05	-7e-05	-0.00012	-0.00013	0.00097	0.00038	0.00015	7e-05	4
15224	-4e-05	-7e-05	-0.00012	-0.00013	0.00097	0.00038	0.00015	7e-05	4
15225	-4e-05	-7e-05	-0.00012	-0.00013	0.00097	0.00038	0.00015	7e-05	4
15226	-4e-05	-7e-05	-0.00012	-0.00013	0.00097	0.00038	0.00015	7e-05	4
15227	-4e-05	-7e-05	-0.00012	-0.00013	0.00097	0.00038	0.00015	7e-05	4
15228	-4e-05	-7e-05	-0.00012	-0.00013	0.00097	0.00038	0.00015	7e-05	4
15229	-4e-05	-7e-05	-0.00012	-0.00013	0.00097	0.00038	0.00015	7e-05	4
15230	-4e-05	-7e-05	-0.00012	-0.00013	0.00097	0.00038	0.00015	7e-05	4
15231	-4e-05	-7e-05	-0.00012	-0.00013	0.00097	0.00038	0.00015	7e-05	4
15232	-4e-05	-7e-05	-0.00012	-0.00013	0.00097	0.00038	0.00015	7e-05	4
15233	-4e-05	-7e-05	-0.00012	-0.00013	0.00097	0.00038	0.00015	7e-05	4
15234	-4e-05	-7e-05	-0.00012	-0.00013	0.00097	0.00038	0.00015	7e-05	4
15235	-4e-05	-7e-05	-0.00012	-0.00013	0.00097	0.00038	0.00015	7e-05	4
15236	-4e-05	-7e-05	-0.00012	-0.00013	0.00097	0.00038	0.00015	7e-05	4
15238	-4e-05	-7e-05	-0.00012	-0.00013	0.00097	0.00038	0.00015	7e-05	4
15239	-4e-05	-7e-05	-0.00012	-0.00013	0.00097	0.00038	0.00015	7e-05	4
15240	-4e-05	-7e-05	-0.00012	-0.00013	0.00097	0.00038	0.00015	7e-05	4
15241	-4e-05	-7e-05	-0.00012	-0.00013	0.00097	0.00038	0.00015	7e-05	4
15242	-0.00012	-0.00013	-0.00013	-0.00015	-0.00087	-0.0004	-0.00049	-0.00041	4
15243	-0.00012	-0.00013	-0.00013	-0.00015	-0.00087	-0.0004	-0.00049	-0.00041	4
15244	-0.00012	-0.00013	-0.00013	-0.00015	-0.00087	-0.0004	-0.00049	-0.00041	4
15245	-0.00012	-0.00013	-0.00013	-0.00015	-0.00087	-0.0004	-0.00049	-0.00041	4
15246	-0.00012	-0.00013	-0.00013	-0.00015	-0.00087	-0.0004	-0.00049	-0.00041	4
15247	-0.00012	-0.00013	-0.00013	-0.00015	-0.00087	-0.0004	-0.00049	-0.00041	4
15248	0	0	1e-05	5e-05	0.00056	-6e-05	-0.00016	0.00021	4
15249	0	0	1e-05	5e-05	0.00056	-6e-05	-0.00016	0.00021	4
15250	0	0	1e-05	5e-05	0.00056	-6e-05	-0.00016	0.00021	4
15251	0	0	1e-05	5e-05	0.00056	-6e-05	-0.00016	0.00021	4
15252	0	0	1e-05	5e-05	0.00056	-6e-05	-0.00016	0.00021	4
15253	0	0	1e-05	5e-05	0.00056	-6e-05	-0.00016	0.00021	4
15254	0	0	1e-05	5e-05	0.00056	-6e-05	-0.00016	0.00021	4
15255	-5e-05	-4e-05	-9e-05	-0.00013	-0.00018	-0.00042	-7e-05	-0.00028	4
15256	6e-05	5e-05	0	-0.0003	0.00011	0.00048	0.0004	1e-05	4
15257	6e-05	5e-05	0	-0.0003	0.00011	0.00048	0.0004	1e-05	4
15258	6e-05	5e-05	0	-0.0003	0.00011	0.00048	0.0004	1e-05	4
15259	6e-05	5e-05	0	-0.0003	0.00011	0.00048	0.0004	1e-05	4
15260	6e-05	5e-05	0	-0.0003	0.00011	0.00048	0.0004	1e-05	4
15261	6e-05	5e-05	0	-0.0003	0.00011	0.00048	0.0004	1e-05	4
15262	6e-05	5e-05	0	-0.0003	0.00011	0.00048	0.0004	1e-05	4
15263	6e-05	5e-05	0	-0.0003	0.00011	0.00048	0.0004	1e-05	4
15264	-4e-05	0	8e-05	0.00018	-0.0007	-6e-05	-0.00016	-0.00036	4
15265	5e-05	3e-05	3e-05	-2e-05	0.00044	-0.00055	0.00011	2e-05	4
15266	5e-05	3e-05	3e-05	-2e-05	0.00044	-0.00055	0.00011	2e-05	4
15267	5e-05	3e-05	3e-05	-2e-05	0.00044	-0.00055	0.00011	2e-05	4
15268	5e-05	3e-05	3e-05	-2e-05	0.00044	-0.00055	0.00011	2e-05	4
15269	5e-05	3e-05	3e-05	-2e-05	0.00044	-0.00055	0.00011	2e-05	4
15270	5e-05	3e-05	3e-05	-2e-05	0.00044	-0.00055	0.00011	2e-05	4
15271	5e-05	3e-05	3e-05	-2e-05	0.00044	-0.00055	0.00011	2e-05	4
15272	5e-05	3e-05	3e-05	-2e-05	0.00044	-0.00055	0.00011	2e-05	4
15273	5e-05	3e-05	3e-05	-2e-05	0.00044	-0.00055	0.00011	2e-05	4
15274	5e-05	3e-05	3e-05	-2e-05	0.00044	-0.00055	0.00011	2e-05	4
15275	5e-05	3e-05	3e-05	-2e-05	0.00044	-0.00055	0.00011	2e-05	4
15276	5e-05	3e-05	3e-05	-2e-05	0.00044	-0.00055	0.00011	2e-05	4
15277	5e-05	3e-05	3e-05	-2e-05	0.00044	-0.00055	0.00011	2e-05	4
15278	5e-05	3e-05	3e-05	-2e-05	0.00044	-0.00055	0.00011	2e-05	4
15279	5e-05	3e-05	3e-05	-2e-05	0.00044	-0.00055	0.00011	2e-05	4
15280	-7e-05	-5e-05	-6e-05	-0.00015	0.00063	-0.00041	-3e-05	-5e-05	4
15281	-2e-05	-3e-05	-5e-05	-0.0001	-0.00018	-0.00047	-8e-05	-3e-05	4
15282	-2e-05	-3e-05	-5e-05	-0.0001	-0.00018	-0.00047	-8e-05	-3e-05	4
15283	-2e-05	-3e-05	-5e-05	-0.0001	-0.00018	-0.00047	-8e-05	-3e-05	4
15284	-2e-05	-3e-05	-5e-05	-0.0001	-0.00018	-0.00047	-8e-05	-3e-05	4
15285	-2e-05	-3e-05	-5e-05	-0.0001	-0.00018	-0.00047	-8e-05	-3e-05	4
15286	-2e-05	-3e-05	-5e-05	-0.0001	-0.00018	-0.00047	-8e-05	-3e-05	4
15288	-2e-05	-3e-05	-5e-05	-0.0001	-0.00018	-0.00047	-8e-05	-3e-05	4
15289	-2e-05	-3e-05	-5e-05	-0.0001	-0.00018	-0.00047	-8e-05	-3e-05	4
15290	-2e-05	-3e-05	-5e-05	-0.0001	-0.00018	-0.00047	-8e-05	-3e-05	4
15291	-2e-05	-3e-05	-5e-05	-0.0001	-0.00018	-0.00047	-8e-05	-3e-05	4
15292	-2e-05	-3e-05	-5e-05	-0.0001	-0.00018	-0.00047	-8e-05	-3e-05	4
15293	-2e-05	-3e-05	-5e-05	-0.0001	-0.00018	-0.00047	-8e-05	-3e-05	4
15294	-2e-05	-3e-05	-5e-05	-0.0001	-0.00018	-0.00047	-8e-05	-3e-05	4
15295	-2e-05	-3e-05	-5e-05	-0.0001	-0.00018	-0.00047	-8e-05	-3e-05	4
15296	-2e-05	-3e-05	-5e-05	-0.0001	-0.00018	-0.00047	-8e-05	-3e-05	4
15297	-2e-05	-3e-05	-5e-05	-0.0001	-0.00018	-0.00047	-8e-05	-3e-05	4
15298	-2e-05	-3e-05	-5e-05	-0.0001	-0.00018	-0.00047	-8e-05	-3e-05	4
15299	-2e-05	-3e-05	-5e-05	-0.0001	-0.00018	-0.00047	-8e-05	-3e-05	4
15300	-2e-05	-3e-05	-5e-05	-0.0001	-0.00018	-0.00047	-8e-05	-3e-05	4
15301	-2e-05	-3e-05	-5e-05	-0.0001	-0.00018	-0.00047	-8e-05	-3e-05	4
15302	8e-05	-2e-05	-2e-05	0.00011	0.00036	4e-05	-7e-05	-0.00019	4
15303	8e-05	-2e-05	-2e-05	0.00011	0.00036	4e-05	-7e-05	-0.00019	4
15304	8e-05	9e-05	0.00013	0.00022	-0.00044	0.0009	0.00037	0.00023	4
15305	8e-05	9e-05	0.00013	0.00022	-0.00044	0.0009	0.00037	0.00023	4
15306	8e-05	9e-05	0.00013	0.00022	-0.00044	0.0009	0.00037	0.00023	4
15307	8e-05	9e-05	0.00013	0.00022	-0.00044	0.0009	0.00037	0.00023	4
15308	8e-05	9e-05	0.00013	0.00022	-0.00044	0.0009	0.00037	0.00023	4
15309	8e-05	9e-05	0.00013	0.00022	-0.00044	0.0009	0.00037	0.00023	4
15310	8e-05	9e-05	0.00013	0.00022	-0.00044	0.0009	0.00037	0.00023	4
15311	8e-05	9e-05	0.00013	0.00022	-0.00044	0.0009	0.00037	0.00023	4
15312	8e-05	9e-05	0.00013	0.00022	-0.00044	0.0009	0.00037	0.00023	4
15313	8e-05	9e-05	0.00013	0.00022	-0.00044	0.0009	0.00037	0.00023	4
15314	8e-05	9e-05	0.00013	0.00022	-0.00044	0.0009	0.00037	0.00023	4
15315	8e-05	9e-05	0.00013	0.00022	-0.00044	0.0009	0.00037	0.00023	4
15316	7e-05	4e-05	0.0001	0.0002	0.00032	0.00078	0.00027	9e-05	4
15317	7e-05	4e-05	0.0001	0.0002	0.00032	0.00078	0.00027	9e-05	4
15318	7e-05	4e-05	0.0001	0.0002	0.00032	0.00078	0.00027	9e-05	4
15319	7e-05	4e-05	0.0001	0.0002	0.00032	0.00078	0.00027	9e-05	4
15320	7e-05	4e-05	0.0001	0.0002	0.00032	0.00078	0.00027	9e-05	4
15321	7e-05	4e-05	0.0001	0.0002	0.00032	0.00078	0.00027	9e-05	4
15322	7e-05	4e-05	0.0001	0.0002	0.00032	0.00078	0.00027	9e-05	4
15323	7e-05	4e-05	0.0001	0.0002	0.00032	0.00078	0.00027	9e-05	4
15324	7e-05	4e-05	0.0001	0.0002	0.00032	0.00078	0.00027	9e-05	4
15325	-2e-05	0	2e-05	0.00012	5e-05	0.00068	0.00019	-8e-05	4
15326	-2e-05	0	2e-05	0.00012	5e-05	0.00068	0.00019	-8e-05	4
15327	-2e-05	0	2e-05	0.00012	5e-05	0.00068	0.00019	-8e-05	4
15328	-2e-05	0	2e-05	0.00012	5e-05	0.00068	0.00019	-8e-05	4
15329	-2e-05	0	2e-05	0.00012	5e-05	0.00068	0.00019	-8e-05	4
15330	-2e-05	0	2e-05	0.00012	5e-05	0.00068	0.00019	-8e-05	4
15331	-2e-05	0	2e-05	0.00012	5e-05	0.00068	0.00019	-8e-05	4
15332	-2e-05	0	2e-05	0.00012	5e-05	0.00068	0.00019	-8e-05	4
15333	-2e-05	0	2e-05	0.00012	5e-05	0.00068	0.00019	-8e-05	4
15334	-2e-05	0	2e-05	0.00012	5e-05	0.00068	0.00019	-8e-05	4
15335	-2e-05	0	2e-05	0.00012	5e-05	0.00068	0.00019	-8e-05	4
15336	-2e-05	0	2e-05	0.00012	5e-05	0.00068	0.00019	-8e-05	4
15338	-2e-05	0	2e-05	0.00012	5e-05	0.00068	0.00019	-8e-05	4
15339	-2e-05	0	2e-05	0.00012	5e-05	0.00068	0.00019	-8e-05	4
15340	-5e-05	0	2e-05	5e-05	-0.00039	6e-05	0.0001	0.00014	4
15341	-4e-05	4e-05	6e-05	0	-0.00115	-0.00019	-0.00025	-0.0001	4
15343	-4e-05	4e-05	6e-05	0	-0.00115	-0.00019	-0.00025	-0.0001	4
15344	-4e-05	4e-05	6e-05	0	-0.00115	-0.00019	-0.00025	-0.0001	4
15345	-4e-05	4e-05	6e-05	0	-0.00115	-0.00019	-0.00025	-0.0001	4
15346	-4e-05	4e-05	6e-05	0	-0.00115	-0.00019	-0.00025	-0.0001	4
15347	-4e-05	4e-05	6e-05	0	-0.00115	-0.00019	-0.00025	-0.0001	4
15348	-4e-05	4e-05	6e-05	0	-0.00115	-0.00019	-0.00025	-0.0001	4
15349	-4e-05	4e-05	6e-05	0	-0.00115	-0.00019	-0.00025	-0.0001	4
15350	-4e-05	4e-05	6e-05	0	-0.00115	-0.00019	-0.00025	-0.0001	4
15351	-4e-05	4e-05	6e-05	0	-0.00115	-0.00019	-0.00025	-0.0001	4
15352	-4e-05	4e-05	6e-05	0	-0.00115	-0.00019	-0.00025	-0.0001	4
15353	-4e-05	4e-05	6e-05	0	-0.00115	-0.00019	-0.00025	-0.0001	4
15354	-4e-05	4e-05	6e-05	0	-0.00115	-0.00019	-0.00025	-0.0001	4
15355	-4e-05	4e-05	6e-05	0	-0.00115	-0.00019	-0.00025	-0.0001	4
15356	-4e-05	4e-05	6e-05	0	-0.00115	-0.00019	-0.00025	-0.0001	4
15357	-4e-05	4e-05	6e-05	0	-0.00115	-0.00019	-0.00025	-0.0001	4
15358	-4e-05	4e-05	6e-05	0	-0.00115	-0.00019	-0.00025	-0.0001	4
15359	-4e-05	4e-05	6e-05	0	-0.00115	-0.00019	-0.00025	-0.0001	4
15360	-4e-05	4e-05	6e-05	0	-0.00115	-0.00019	-0.00025	-0.0001	4
15361	-4e-05	4e-05	6e-05	0	-0.00115	-0.00019	-0.00025	-0.0001	4
15362	-4e-05	-1e-05	1e-05	0.00026	-0.0009	0.00038	8e-05	7e-05	4
15363	-4e-05	-1e-05	1e-05	0.00026	-0.0009	0.00038	8e-05	7e-05	4
15364	4e-05	5e-05	5e-05	0.00031	0.00082	0.00083	0.00029	0.00013	4
15365	4e-05	5e-05	5e-05	0.00031	0.00082	0.00083	0.00029	0.00013	4
15366	4e-05	5e-05	5e-05	0.00031	0.00082	0.00083	0.00029	0.00013	4
15367	4e-05	5e-05	5e-05	0.00031	0.00082	0.00083	0.00029	0.00013	4
15368	4e-05	5e-05	5e-05	0.00031	0.00082	0.00083	0.00029	0.00013	4
15369	4e-05	5e-05	5e-05	0.00031	0.00082	0.00083	0.00029	0.00013	4
15370	4e-05	5e-05	5e-05	0.00031	0.00082	0.00083	0.00029	0.00013	4
15371	4e-05	5e-05	5e-05	0.00031	0.00082	0.00083	0.00029	0.00013	4
15372	4e-05	5e-05	5e-05	0.00031	0.00082	0.00083	0.00029	0.00013	4
15373	4e-05	5e-05	5e-05	0.00031	0.00082	0.00083	0.00029	0.00013	4
15374	4e-05	5e-05	5e-05	0.00031	0.00082	0.00083	0.00029	0.00013	4
15375	4e-05	5e-05	5e-05	0.00031	0.00082	0.00083	0.00029	0.00013	4
15376	-0.00011	-0.0001	-0.00013	0	0.0006	-0.00016	-0.0001	-8e-05	4
15377	-0.00011	-0.0001	-0.00013	0	0.0006	-0.00016	-0.0001	-8e-05	4
15378	-0.00011	-0.0001	-0.00013	0	0.0006	-0.00016	-0.0001	-8e-05	4
15379	-0.00011	-0.0001	-0.00013	0	0.0006	-0.00016	-0.0001	-8e-05	4
15380	-0.00011	-0.0001	-0.00013	0	0.0006	-0.00016	-0.0001	-8e-05	4
15381	-0.00011	-0.0001	-0.00013	0	0.0006	-0.00016	-0.0001	-8e-05	4
15382	-0.00011	-0.0001	-0.00013	0	0.0006	-0.00016	-0.0001	-8e-05	4
15383	-0.00011	-0.0001	-0.00013	0	0.0006	-0.00016	-0.0001	-8e-05	4
15384	-0.00011	-0.0001	-0.00013	0	0.0006	-0.00016	-0.0001	-8e-05	4
15385	3e-05	-6e-05	-7e-05	-0.00021	-0.00126	-0.00046	-0.00063	0.00049	4
15386	3e-05	-6e-05	-7e-05	-0.00021	-0.00126	-0.00046	-0.00063	0.00049	4
15388	3e-05	-6e-05	-7e-05	-0.00021	-0.00126	-0.00046	-0.00063	0.00049	4
15389	3e-05	-6e-05	-7e-05	-0.00021	-0.00126	-0.00046	-0.00063	0.00049	4
15390	3e-05	-6e-05	-7e-05	-0.00021	-0.00126	-0.00046	-0.00063	0.00049	4
15391	3e-05	-6e-05	-7e-05	-0.00021	-0.00126	-0.00046	-0.00063	0.00049	4
15392	3e-05	-6e-05	-7e-05	-0.00021	-0.00126	-0.00046	-0.00063	0.00049	4
15393	3e-05	-6e-05	-7e-05	-0.00021	-0.00126	-0.00046	-0.00063	0.00049	4
15394	3e-05	-6e-05	-7e-05	-0.00021	-0.00126	-0.00046	-0.00063	0.00049	4
15395	3e-05	-6e-05	-7e-05	-0.00021	-0.00126	-0.00046	-0.00063	0.00049	4
15396	3e-05	-6e-05	-7e-05	-0.00021	-0.00126	-0.00046	-0.00063	0.00049	4
15397	3e-05	-6e-05	-7e-05	-0.00021	-0.00126	-0.00046	-0.00063	0.00049	4
15398	3e-05	-6e-05	-7e-05	-0.00021	-0.00126	-0.00046	-0.00063	0.00049	4
15399	-0.00012	-9e-05	-0.00012	-0.00027	-0.0008	-0.00022	-0.00017	-0.00027	4
15400	1e-05	5e-05	8e-05	0.00032	5e-05	0.00098	0.00022	0.00019	4
15401	-0.00015	-0.00014	-0.00021	-0.00041	0.00021	-0.00013	-0.00011	-0.00053	4
15402	-0.00015	-0.00014	-0.00021	-0.00041	0.00021	-0.00013	-0.00011	-0.00053	4
15403	-0.00015	-0.00014	-0.00021	-0.00041	0.00021	-0.00013	-0.00011	-0.00053	4
15404	-0.00015	-0.00014	-0.00021	-0.00041	0.00021	-0.00013	-0.00011	-0.00053	4
15405	-0.00015	-0.00014	-0.00021	-0.00041	0.00021	-0.00013	-0.00011	-0.00053	4
15406	-0.00015	-0.00014	-0.00021	-0.00041	0.00021	-0.00013	-0.00011	-0.00053	4
15407	-0.00015	-0.00014	-0.00021	-0.00041	0.00021	-0.00013	-0.00011	-0.00053	4
15408	-0.00015	-0.00014	-0.00021	-0.00041	0.00021	-0.00013	-0.00011	-0.00053	4
15409	-0.00015	-0.00014	-0.00021	-0.00041	0.00021	-0.00013	-0.00011	-0.00053	4
15410	-0.00015	-0.00014	-0.00021	-0.00041	0.00021	-0.00013	-0.00011	-0.00053	4
15411	-0.00015	-0.00014	-0.00021	-0.00041	0.00021	-0.00013	-0.00011	-0.00053	4
15412	-0.00015	-0.00014	-0.00021	-0.00041	0.00021	-0.00013	-0.00011	-0.00053	4
15413	-0.00015	-0.00014	-0.00021	-0.00041	0.00021	-0.00013	-0.00011	-0.00053	4
15414	-0.00015	-0.00014	-0.00021	-0.00041	0.00021	-0.00013	-0.00011	-0.00053	4
15416	-0.00015	-0.00014	-0.00021	-0.00041	0.00021	-0.00013	-0.00011	-0.00053	4
15417	-0.00015	-0.00014	-0.00021	-0.00041	0.00021	-0.00013	-0.00011	-0.00053	4
15418	-0.00015	-0.00014	-0.00021	-0.00041	0.00021	-0.00013	-0.00011	-0.00053	4
15419	-0.00015	-0.00014	-0.00021	-0.00041	0.00021	-0.00013	-0.00011	-0.00053	4
15420	-0.00015	-0.00014	-0.00021	-0.00041	0.00021	-0.00013	-0.00011	-0.00053	4
15421	-0.00015	-0.00014	-0.00021	-0.00041	0.00021	-0.00013	-0.00011	-0.00053	4
15422	2e-05	-1e-05	0	-0.0002	-0.00127	-0.00062	-0.00015	0.00029	4
15423	-3e-05	-6e-05	-8e-05	7e-05	-0.00108	-0.00028	-0.00043	-0.00038	4
15424	9e-05	7e-05	0.0001	9e-05	-0.0008	0.0002	0.00056	0.00015	4
15425	9e-05	7e-05	0.0001	9e-05	-0.0008	0.0002	0.00056	0.00015	4
15426	9e-05	7e-05	0.0001	9e-05	-0.0008	0.0002	0.00056	0.00015	4
15427	9e-05	7e-05	0.0001	9e-05	-0.0008	0.0002	0.00056	0.00015	4
15428	9e-05	7e-05	0.0001	9e-05	-0.0008	0.0002	0.00056	0.00015	4
15429	9e-05	7e-05	0.0001	9e-05	-0.0008	0.0002	0.00056	0.00015	4
15430	9e-05	7e-05	0.0001	9e-05	-0.0008	0.0002	0.00056	0.00015	4
15431	9e-05	7e-05	0.0001	9e-05	-0.0008	0.0002	0.00056	0.00015	4
15432	9e-05	7e-05	0.0001	9e-05	-0.0008	0.0002	0.00056	0.00015	4
15433	9e-05	7e-05	0.0001	9e-05	-0.0008	0.0002	0.00056	0.00015	4
15434	9e-05	7e-05	0.0001	9e-05	-0.0008	0.0002	0.00056	0.00015	4
15435	9e-05	7e-05	0.0001	9e-05	-0.0008	0.0002	0.00056	0.00015	4
15436	9e-05	7e-05	0.0001	9e-05	-0.0008	0.0002	0.00056	0.00015	4
15438	9e-05	7e-05	0.0001	9e-05	-0.0008	0.0002	0.00056	0.00015	4
15439	9e-05	7e-05	0.0001	9e-05	-0.0008	0.0002	0.00056	0.00015	4
15440	9e-05	7e-05	0.0001	9e-05	-0.0008	0.0002	0.00056	0.00015	4
15441	9e-05	7e-05	0.0001	9e-05	-0.0008	0.0002	0.00056	0.00015	4
15442	9e-05	7e-05	0.0001	9e-05	-0.0008	0.0002	0.00056	0.00015	4
15443	9e-05	7e-05	0.0001	9e-05	-0.0008	0.0002	0.00056	0.00015	4
15444	-8e-05	-3e-05	-2e-05	0.00014	0.00023	-5e-05	-0.00025	-0.00041	4
15445	-0.00013	-0.0001	-0.00014	-0.00032	0.00062	-5e-05	7e-05	-0.00037	4
15446	-1e-05	-5e-05	-6e-05	-0.0001	0.00078	0.00014	2e-05	0.00015	4
15447	-1e-05	-5e-05	-6e-05	-0.0001	0.00078	0.00014	2e-05	0.00015	4
15448	-1e-05	-5e-05	-6e-05	-0.0001	0.00078	0.00014	2e-05	0.00015	4
15449	-1e-05	-5e-05	-6e-05	-0.0001	0.00078	0.00014	2e-05	0.00015	4
15450	-1e-05	-5e-05	-6e-05	-0.0001	0.00078	0.00014	2e-05	0.00015	4
15451	-1e-05	-5e-05	-6e-05	-0.0001	0.00078	0.00014	2e-05	0.00015	4
15452	-1e-05	-5e-05	-6e-05	-0.0001	0.00078	0.00014	2e-05	0.00015	4
15453	-1e-05	-5e-05	-6e-05	-0.0001	0.00078	0.00014	2e-05	0.00015	4
15454	-1e-05	-5e-05	-6e-05	-0.0001	0.00078	0.00014	2e-05	0.00015	4
15455	-1e-05	-5e-05	-6e-05	-0.0001	0.00078	0.00014	2e-05	0.00015	4
15456	-1e-05	-5e-05	-6e-05	-0.0001	0.00078	0.00014	2e-05	0.00015	4
15457	-1e-05	-5e-05	-6e-05	-0.0001	0.00078	0.00014	2e-05	0.00015	4
15458	-1e-05	-5e-05	-6e-05	-0.0001	0.00078	0.00014	2e-05	0.00015	4
15459	-1e-05	-5e-05	-6e-05	-0.0001	0.00078	0.00014	2e-05	0.00015	4
15460	-4e-05	2e-05	2e-05	8e-05	3e-05	0.00015	-0.0003	-0.00027	4
15461	2e-05	3e-05	3e-05	1e-05	0.00097	8e-05	2e-05	-0.0003	4
15462	2e-05	3e-05	3e-05	1e-05	0.00097	8e-05	2e-05	-0.0003	4
15463	2e-05	3e-05	3e-05	1e-05	0.00097	8e-05	2e-05	-0.0003	4
15464	2e-05	3e-05	3e-05	1e-05	0.00097	8e-05	2e-05	-0.0003	4
15465	2e-05	3e-05	3e-05	1e-05	0.00097	8e-05	2e-05	-0.0003	4
15466	2e-05	3e-05	3e-05	1e-05	0.00097	8e-05	2e-05	-0.0003	4
15467	2e-05	3e-05	3e-05	1e-05	0.00097	8e-05	2e-05	-0.0003	4
15468	2e-05	3e-05	3e-05	1e-05	0.00097	8e-05	2e-05	-0.0003	4
15469	2e-05	3e-05	3e-05	1e-05	0.00097	8e-05	2e-05	-0.0003	4
15470	2e-05	3e-05	3e-05	1e-05	0.00097	8e-05	2e-05	-0.0003	4
15471	2e-05	3e-05	3e-05	1e-05	0.00097	8e-05	2e-05	-0.0003	4
15472	2e-05	3e-05	3e-05	1e-05	0.00097	8e-05	2e-05	-0.0003	4
15473	2e-05	3e-05	3e-05	1e-05	0.00097	8e-05	2e-05	-0.0003	4
15474	2e-05	3e-05	3e-05	1e-05	0.00097	8e-05	2e-05	-0.0003	4
15475	2e-05	3e-05	3e-05	1e-05	0.00097	8e-05	2e-05	-0.0003	4
15476	2e-05	3e-05	3e-05	1e-05	0.00097	8e-05	2e-05	-0.0003	4
15477	2e-05	3e-05	3e-05	1e-05	0.00097	8e-05	2e-05	-0.0003	4
15478	2e-05	3e-05	3e-05	1e-05	0.00097	8e-05	2e-05	-0.0003	4
15479	2e-05	3e-05	3e-05	1e-05	0.00097	8e-05	2e-05	-0.0003	4
15480	2e-05	3e-05	3e-05	1e-05	0.00097	8e-05	2e-05	-0.0003	4
15481	2e-05	3e-05	3e-05	1e-05	0.00097	8e-05	2e-05	-0.0003	4
15482	-4e-05	-5e-05	-9e-05	-0.0001	-0.00096	-0.00024	-0.0001	-6e-05	4
15483	-4e-05	-5e-05	-9e-05	-0.0001	-0.00096	-0.00024	-0.0001	-6e-05	4
15484	3e-05	3e-05	5e-05	-2e-05	-0.0002	-0.00026	1e-05	0.00022	4
15485	3e-05	3e-05	5e-05	-2e-05	-0.0002	-0.00026	1e-05	0.00022	4
15486	3e-05	3e-05	5e-05	-2e-05	-0.0002	-0.00026	1e-05	0.00022	4
15488	3e-05	3e-05	5e-05	-2e-05	-0.0002	-0.00026	1e-05	0.00022	4
15489	3e-05	3e-05	5e-05	-2e-05	-0.0002	-0.00026	1e-05	0.00022	4
15490	3e-05	3e-05	5e-05	-2e-05	-0.0002	-0.00026	1e-05	0.00022	4
15491	3e-05	3e-05	5e-05	-2e-05	-0.0002	-0.00026	1e-05	0.00022	4
15492	3e-05	3e-05	5e-05	-2e-05	-0.0002	-0.00026	1e-05	0.00022	4
15493	3e-05	3e-05	5e-05	-2e-05	-0.0002	-0.00026	1e-05	0.00022	4
15494	3e-05	3e-05	5e-05	-2e-05	-0.0002	-0.00026	1e-05	0.00022	4
15495	3e-05	3e-05	5e-05	-2e-05	-0.0002	-0.00026	1e-05	0.00022	4
15496	3e-05	3e-05	5e-05	-2e-05	-0.0002	-0.00026	1e-05	0.00022	4
15497	3e-05	3e-05	5e-05	-2e-05	-0.0002	-0.00026	1e-05	0.00022	4
15498	3e-05	3e-05	5e-05	-2e-05	-0.0002	-0.00026	1e-05	0.00022	4
15499	3e-05	3e-05	5e-05	-2e-05	-0.0002	-0.00026	1e-05	0.00022	4
15500	3e-05	3e-05	5e-05	-2e-05	-0.0002	-0.00026	1e-05	0.00022	4
15501	3e-05	3e-05	5e-05	-2e-05	-0.0002	-0.00026	1e-05	0.00022	4
15502	3e-05	3e-05	5e-05	-2e-05	-0.0002	-0.00026	1e-05	0.00022	4
15503	3e-05	3e-05	5e-05	-2e-05	-0.0002	-0.00026	1e-05	0.00022	4
15504	3e-05	3e-05	5e-05	-2e-05	-0.0002	-0.00026	1e-05	0.00022	4
15505	6e-05	8e-05	0.0001	0.0002	-0.00025	0.00093	0.00027	0.00013	4
15506	0	-2e-05	-6e-05	-0.00015	-0.00028	0.00026	0.00025	-0.00015	4
15507	0	-2e-05	-6e-05	-0.00015	-0.00028	0.00026	0.00025	-0.00015	4
15508	0	-2e-05	-6e-05	-0.00015	-0.00028	0.00026	0.00025	-0.00015	4
15509	0	-2e-05	-6e-05	-0.00015	-0.00028	0.00026	0.00025	-0.00015	4
15510	0	-2e-05	-6e-05	-0.00015	-0.00028	0.00026	0.00025	-0.00015	4
15511	0	-2e-05	-6e-05	-0.00015	-0.00028	0.00026	0.00025	-0.00015	4
15512	0	-2e-05	-6e-05	-0.00015	-0.00028	0.00026	0.00025	-0.00015	4
15513	0	-2e-05	-6e-05	-0.00015	-0.00028	0.00026	0.00025	-0.00015	4
15514	0	-2e-05	-6e-05	-0.00015	-0.00028	0.00026	0.00025	-0.00015	4
15515	0	-2e-05	-6e-05	-0.00015	-0.00028	0.00026	0.00025	-0.00015	4
15516	0	-2e-05	-6e-05	-0.00015	-0.00028	0.00026	0.00025	-0.00015	4
15517	0	-2e-05	-6e-05	-0.00015	-0.00028	0.00026	0.00025	-0.00015	4
15518	0	-2e-05	-6e-05	-0.00015	-0.00028	0.00026	0.00025	-0.00015	4
15519	0	-2e-05	-6e-05	-0.00015	-0.00028	0.00026	0.00025	-0.00015	4
15520	-6e-05	-5e-05	0	-2e-05	0.00018	-0.00014	0.00016	-0.00017	4
15521	-3e-05	-4e-05	-7e-05	-0.0001	0.00041	0.00042	-3e-05	7e-05	4
15522	-3e-05	-4e-05	-7e-05	-0.0001	0.00041	0.00042	-3e-05	7e-05	4
15523	-3e-05	-4e-05	-7e-05	-0.0001	0.00041	0.00042	-3e-05	7e-05	4
15524	-3e-05	-4e-05	-7e-05	-0.0001	0.00041	0.00042	-3e-05	7e-05	4
15525	-3e-05	-4e-05	-7e-05	-0.0001	0.00041	0.00042	-3e-05	7e-05	4
15526	-3e-05	-4e-05	-7e-05	-0.0001	0.00041	0.00042	-3e-05	7e-05	4
15527	-3e-05	-4e-05	-7e-05	-0.0001	0.00041	0.00042	-3e-05	7e-05	4
15528	-3e-05	-4e-05	-7e-05	-0.0001	0.00041	0.00042	-3e-05	7e-05	4
15529	-3e-05	-4e-05	-7e-05	-0.0001	0.00041	0.00042	-3e-05	7e-05	4
15530	-3e-05	-4e-05	-7e-05	-0.0001	0.00041	0.00042	-3e-05	7e-05	4
15531	-3e-05	-4e-05	-7e-05	-0.0001	0.00041	0.00042	-3e-05	7e-05	4
15532	-3e-05	-4e-05	-7e-05	-0.0001	0.00041	0.00042	-3e-05	7e-05	4
15533	-3e-05	-4e-05	-7e-05	-0.0001	0.00041	0.00042	-3e-05	7e-05	4
15534	-3e-05	-4e-05	-7e-05	-0.0001	0.00041	0.00042	-3e-05	7e-05	4
15535	-3e-05	-4e-05	-7e-05	-0.0001	0.00041	0.00042	-3e-05	7e-05	4
15536	-3e-05	-4e-05	-7e-05	-0.0001	0.00041	0.00042	-3e-05	7e-05	4
15538	-3e-05	-4e-05	-7e-05	-0.0001	0.00041	0.00042	-3e-05	7e-05	4
15539	-3e-05	-4e-05	-7e-05	-0.0001	0.00041	0.00042	-3e-05	7e-05	4
15540	-3e-05	-4e-05	-7e-05	-0.0001	0.00041	0.00042	-3e-05	7e-05	4
15541	-3e-05	-4e-05	-7e-05	-0.0001	0.00041	0.00042	-3e-05	7e-05	4
15542	8e-05	3e-05	7e-05	0.00024	0.00117	0.00067	0.00012	0.00022	4
15543	8e-05	3e-05	7e-05	0.00024	0.00117	0.00067	0.00012	0.00022	4
15544	-0.00014	-9e-05	-0.00012	-4e-05	0.00108	-1e-05	-0.00016	-9e-05	4
15545	-0.00014	-9e-05	-0.00012	-4e-05	0.00108	-1e-05	-0.00016	-9e-05	4
15546	-0.00014	-9e-05	-0.00012	-4e-05	0.00108	-1e-05	-0.00016	-9e-05	4
15547	-0.00014	-9e-05	-0.00012	-4e-05	0.00108	-1e-05	-0.00016	-9e-05	4
15548	-0.00014	-9e-05	-0.00012	-4e-05	0.00108	-1e-05	-0.00016	-9e-05	4
15549	-0.00014	-9e-05	-0.00012	-4e-05	0.00108	-1e-05	-0.00016	-9e-05	4
15550	-0.00014	-9e-05	-0.00012	-4e-05	0.00108	-1e-05	-0.00016	-9e-05	4
15551	-0.00014	-9e-05	-0.00012	-4e-05	0.00108	-1e-05	-0.00016	-9e-05	4
15552	-0.00014	-9e-05	-0.00012	-4e-05	0.00108	-1e-05	-0.00016	-9e-05	4
15553	-0.00014	-9e-05	-0.00012	-4e-05	0.00108	-1e-05	-0.00016	-9e-05	4
15554	-0.00014	-9e-05	-0.00012	-4e-05	0.00108	-1e-05	-0.00016	-9e-05	4
15555	-0.00014	-9e-05	-0.00012	-4e-05	0.00108	-1e-05	-0.00016	-9e-05	4
15556	-0.00014	-9e-05	-0.00012	-4e-05	0.00108	-1e-05	-0.00016	-9e-05	4
15557	-0.00014	-9e-05	-0.00012	-4e-05	0.00108	-1e-05	-0.00016	-9e-05	4
15558	-0.00014	-9e-05	-0.00012	-4e-05	0.00108	-1e-05	-0.00016	-9e-05	4
15559	-0.00014	-9e-05	-0.00012	-4e-05	0.00108	-1e-05	-0.00016	-9e-05	4
15560	-0.00014	-9e-05	-0.00012	-4e-05	0.00108	-1e-05	-0.00016	-9e-05	4
15561	-0.00014	-9e-05	-0.00012	-4e-05	0.00108	-1e-05	-0.00016	-9e-05	4
15562	-0.00014	-9e-05	-0.00012	-4e-05	0.00108	-1e-05	-0.00016	-9e-05	4
15563	-0.00014	-9e-05	-0.00012	-4e-05	0.00108	-1e-05	-0.00016	-9e-05	4
15564	-0.00014	-9e-05	-0.00012	-4e-05	0.00108	-1e-05	-0.00016	-9e-05	4
15565	4e-05	3e-05	4e-05	0.00013	-0.00056	-3e-05	-7e-05	-0.00014	4
15566	-6e-05	-6e-05	-7e-05	-7e-05	0.00051	0.00015	-0.00048	-0.00022	4
15567	-6e-05	-6e-05	-7e-05	-7e-05	0.00051	0.00015	-0.00048	-0.00022	4
15568	-6e-05	-6e-05	-7e-05	-7e-05	0.00051	0.00015	-0.00048	-0.00022	4
15569	-6e-05	-6e-05	-7e-05	-7e-05	0.00051	0.00015	-0.00048	-0.00022	4
15570	-6e-05	-6e-05	-7e-05	-7e-05	0.00051	0.00015	-0.00048	-0.00022	4
15571	-6e-05	-6e-05	-7e-05	-7e-05	0.00051	0.00015	-0.00048	-0.00022	4
15572	-6e-05	-6e-05	-7e-05	-7e-05	0.00051	0.00015	-0.00048	-0.00022	4
15573	-6e-05	-6e-05	-7e-05	-7e-05	0.00051	0.00015	-0.00048	-0.00022	4
15574	-6e-05	-6e-05	-7e-05	-7e-05	0.00051	0.00015	-0.00048	-0.00022	4
15575	-6e-05	-6e-05	-7e-05	-7e-05	0.00051	0.00015	-0.00048	-0.00022	4
15576	-6e-05	-6e-05	-7e-05	-7e-05	0.00051	0.00015	-0.00048	-0.00022	4
15577	-6e-05	-6e-05	-7e-05	-7e-05	0.00051	0.00015	-0.00048	-0.00022	4
15578	-6e-05	-6e-05	-7e-05	-7e-05	0.00051	0.00015	-0.00048	-0.00022	4
15579	3e-05	8e-05	4e-05	-0.00015	-0.00044	0.00028	0.00011	0.00023	4
15580	3e-05	8e-05	4e-05	-0.00015	-0.00044	0.00028	0.00011	0.00023	4
15581	3e-05	8e-05	4e-05	-0.00015	-0.00044	0.00028	0.00011	0.00023	4
15582	3e-05	8e-05	4e-05	-0.00015	-0.00044	0.00028	0.00011	0.00023	4
15583	3e-05	8e-05	4e-05	-0.00015	-0.00044	0.00028	0.00011	0.00023	4
15584	3e-05	8e-05	4e-05	-0.00015	-0.00044	0.00028	0.00011	0.00023	4
15585	6e-05	-4e-05	-4e-05	-0.00016	0.00035	-0.00041	-6e-05	3e-05	4
15587	-0.00021	-1e-05	-2e-05	-0.0001	-0.00128	-0.00055	-0.00011	3e-05	4
15589	-0.00021	-1e-05	-2e-05	-0.0001	-0.00128	-0.00055	-0.00011	3e-05	4
15590	-0.00021	-1e-05	-2e-05	-0.0001	-0.00128	-0.00055	-0.00011	3e-05	4
15591	-0.00021	-1e-05	-2e-05	-0.0001	-0.00128	-0.00055	-0.00011	3e-05	4
15592	-0.00021	-1e-05	-2e-05	-0.0001	-0.00128	-0.00055	-0.00011	3e-05	4
15593	-0.00021	-1e-05	-2e-05	-0.0001	-0.00128	-0.00055	-0.00011	3e-05	4
15594	-0.00021	-1e-05	-2e-05	-0.0001	-0.00128	-0.00055	-0.00011	3e-05	4
15595	-0.00021	-1e-05	-2e-05	-0.0001	-0.00128	-0.00055	-0.00011	3e-05	4
15596	-0.00021	-1e-05	-2e-05	-0.0001	-0.00128	-0.00055	-0.00011	3e-05	4
15597	-0.00021	-1e-05	-2e-05	-0.0001	-0.00128	-0.00055	-0.00011	3e-05	4
15598	-0.00021	-1e-05	-2e-05	-0.0001	-0.00128	-0.00055	-0.00011	3e-05	4
15599	-0.00021	-1e-05	-2e-05	-0.0001	-0.00128	-0.00055	-0.00011	3e-05	4
15600	-0.00021	-1e-05	-2e-05	-0.0001	-0.00128	-0.00055	-0.00011	3e-05	4
15601	-0.00021	-1e-05	-2e-05	-0.0001	-0.00128	-0.00055	-0.00011	3e-05	4
15602	6e-05	0	4e-05	0.00025	-0.00059	0	-6e-05	-0.00012	4
15603	6e-05	0	4e-05	0.00025	-0.00059	0	-6e-05	-0.00012	4
15604	0.00012	7e-05	0.00016	0.00049	0.0003	0.00043	0.00032	-0.00029	4
15605	0.00012	7e-05	0.00016	0.00049	0.0003	0.00043	0.00032	-0.00029	4
15606	0.00012	7e-05	0.00016	0.00049	0.0003	0.00043	0.00032	-0.00029	4
15607	0.00012	7e-05	0.00016	0.00049	0.0003	0.00043	0.00032	-0.00029	4
15608	0.00012	7e-05	0.00016	0.00049	0.0003	0.00043	0.00032	-0.00029	4
15609	0.00012	7e-05	0.00016	0.00049	0.0003	0.00043	0.00032	-0.00029	4
15610	0.00012	7e-05	0.00016	0.00049	0.0003	0.00043	0.00032	-0.00029	4
15611	0.00012	7e-05	0.00016	0.00049	0.0003	0.00043	0.00032	-0.00029	4
15612	0.00012	7e-05	0.00016	0.00049	0.0003	0.00043	0.00032	-0.00029	4
15613	0.00012	7e-05	0.00016	0.00049	0.0003	0.00043	0.00032	-0.00029	4
15614	0.00012	7e-05	0.00016	0.00049	0.0003	0.00043	0.00032	-0.00029	4
15615	0.00012	7e-05	0.00016	0.00049	0.0003	0.00043	0.00032	-0.00029	4
15616	0.00012	7e-05	0.00016	0.00049	0.0003	0.00043	0.00032	-0.00029	4
15617	0.00012	7e-05	0.00016	0.00049	0.0003	0.00043	0.00032	-0.00029	4
15618	0.00012	7e-05	0.00016	0.00049	0.0003	0.00043	0.00032	-0.00029	4
15619	0.00012	7e-05	0.00016	0.00049	0.0003	0.00043	0.00032	-0.00029	4
15620	0.00012	7e-05	0.00016	0.00049	0.0003	0.00043	0.00032	-0.00029	4
15621	0.00012	7e-05	0.00016	0.00049	0.0003	0.00043	0.00032	-0.00029	4
15622	0.00012	7e-05	0.00016	0.00049	0.0003	0.00043	0.00032	-0.00029	4
15623	0.00012	7e-05	0.00016	0.00049	0.0003	0.00043	0.00032	-0.00029	4
15624	0.00012	7e-05	0.00016	0.00049	0.0003	0.00043	0.00032	-0.00029	4
15625	-8e-05	-0.0001	-0.00011	-0.0002	0.00078	-0.00055	-0.00023	3e-05	4
15626	1e-05	-7e-05	-0.00011	-0.00021	-0.00099	-0.00044	-5e-05	-7e-05	4
15627	1e-05	-7e-05	-0.00011	-0.00021	-0.00099	-0.00044	-5e-05	-7e-05	4
15628	1e-05	-7e-05	-0.00011	-0.00021	-0.00099	-0.00044	-5e-05	-7e-05	4
15629	1e-05	-7e-05	-0.00011	-0.00021	-0.00099	-0.00044	-5e-05	-7e-05	4
15630	1e-05	-7e-05	-0.00011	-0.00021	-0.00099	-0.00044	-5e-05	-7e-05	4
15631	1e-05	-7e-05	-0.00011	-0.00021	-0.00099	-0.00044	-5e-05	-7e-05	4
15632	1e-05	-7e-05	-0.00011	-0.00021	-0.00099	-0.00044	-5e-05	-7e-05	4
15633	1e-05	-7e-05	-0.00011	-0.00021	-0.00099	-0.00044	-5e-05	-7e-05	4
15634	1e-05	-7e-05	-0.00011	-0.00021	-0.00099	-0.00044	-5e-05	-7e-05	4
15635	1e-05	-7e-05	-0.00011	-0.00021	-0.00099	-0.00044	-5e-05	-7e-05	4
15636	1e-05	-7e-05	-0.00011	-0.00021	-0.00099	-0.00044	-5e-05	-7e-05	4
15638	1e-05	-7e-05	-0.00011	-0.00021	-0.00099	-0.00044	-5e-05	-7e-05	4
15639	0.00011	0.0001	0.00013	0.00016	0.00016	0.00051	0.00015	-8e-05	4
15640	0.00011	0.0001	0.00013	0.00016	0.00016	0.00051	0.00015	-8e-05	4
15641	0.00011	0.0001	0.00013	0.00016	0.00016	0.00051	0.00015	-8e-05	4
15642	0.00011	0.0001	0.00013	0.00016	0.00016	0.00051	0.00015	-8e-05	4
15643	0.00011	0.0001	0.00013	0.00016	0.00016	0.00051	0.00015	-8e-05	4
15644	0.00011	0.0001	0.00013	0.00016	0.00016	0.00051	0.00015	-8e-05	4
15645	0.00011	0.0001	0.00013	0.00016	0.00016	0.00051	0.00015	-8e-05	4
15646	0	0	4e-05	9e-05	3e-05	-0.00036	7e-05	0.00016	4
15647	0	0	4e-05	9e-05	3e-05	-0.00036	7e-05	0.00016	4
15648	0	0	4e-05	9e-05	3e-05	-0.00036	7e-05	0.00016	4
15649	0	0	4e-05	9e-05	3e-05	-0.00036	7e-05	0.00016	4
15650	0	0	4e-05	9e-05	3e-05	-0.00036	7e-05	0.00016	4
15651	0	0	4e-05	9e-05	3e-05	-0.00036	7e-05	0.00016	4
15652	0	0	4e-05	9e-05	3e-05	-0.00036	7e-05	0.00016	4
15653	0	0	4e-05	9e-05	3e-05	-0.00036	7e-05	0.00016	4
15654	0	0	4e-05	9e-05	3e-05	-0.00036	7e-05	0.00016	4
15655	0	0	4e-05	9e-05	3e-05	-0.00036	7e-05	0.00016	4
15656	0	0	4e-05	9e-05	3e-05	-0.00036	7e-05	0.00016	4
15657	0	0	4e-05	9e-05	3e-05	-0.00036	7e-05	0.00016	4
15658	0	0	4e-05	9e-05	3e-05	-0.00036	7e-05	0.00016	4
15659	0	0	4e-05	9e-05	3e-05	-0.00036	7e-05	0.00016	4
15660	0	0	4e-05	9e-05	3e-05	-0.00036	7e-05	0.00016	4
15661	0	0	4e-05	9e-05	3e-05	-0.00036	7e-05	0.00016	4
15662	-1e-05	3e-05	6e-05	0.00019	4e-05	-0.00094	-0.00012	2e-05	4
15663	-1e-05	3e-05	6e-05	0.00019	4e-05	-0.00094	-0.00012	2e-05	4
15664	6e-05	-5e-05	-7e-05	-0.00013	-0.00128	-0.00033	-0.00019	0.00047	4
15665	6e-05	-5e-05	-7e-05	-0.00013	-0.00128	-0.00033	-0.00019	0.00047	4
15666	6e-05	-5e-05	-7e-05	-0.00013	-0.00128	-0.00033	-0.00019	0.00047	4
15667	6e-05	-5e-05	-7e-05	-0.00013	-0.00128	-0.00033	-0.00019	0.00047	4
15668	6e-05	-5e-05	-7e-05	-0.00013	-0.00128	-0.00033	-0.00019	0.00047	4
15669	6e-05	-5e-05	-7e-05	-0.00013	-0.00128	-0.00033	-0.00019	0.00047	4
15670	6e-05	-5e-05	-7e-05	-0.00013	-0.00128	-0.00033	-0.00019	0.00047	4
15671	6e-05	-5e-05	-7e-05	-0.00013	-0.00128	-0.00033	-0.00019	0.00047	4
15672	6e-05	-5e-05	-7e-05	-0.00013	-0.00128	-0.00033	-0.00019	0.00047	4
15673	6e-05	-5e-05	-7e-05	-0.00013	-0.00128	-0.00033	-0.00019	0.00047	4
15674	6e-05	-5e-05	-7e-05	-0.00013	-0.00128	-0.00033	-0.00019	0.00047	4
15675	6e-05	-5e-05	-7e-05	-0.00013	-0.00128	-0.00033	-0.00019	0.00047	4
15676	6e-05	-5e-05	-7e-05	-0.00013	-0.00128	-0.00033	-0.00019	0.00047	4
15677	6e-05	-5e-05	-7e-05	-0.00013	-0.00128	-0.00033	-0.00019	0.00047	4
15678	6e-05	-5e-05	-7e-05	-0.00013	-0.00128	-0.00033	-0.00019	0.00047	4
15679	6e-05	-5e-05	-7e-05	-0.00013	-0.00128	-0.00033	-0.00019	0.00047	4
15680	6e-05	-5e-05	-7e-05	-0.00013	-0.00128	-0.00033	-0.00019	0.00047	4
15681	6e-05	-5e-05	-7e-05	-0.00013	-0.00128	-0.00033	-0.00019	0.00047	4
15682	6e-05	-5e-05	-7e-05	-0.00013	-0.00128	-0.00033	-0.00019	0.00047	4
15683	6e-05	-5e-05	-7e-05	-0.00013	-0.00128	-0.00033	-0.00019	0.00047	4
15684	6e-05	-5e-05	-7e-05	-0.00013	-0.00128	-0.00033	-0.00019	0.00047	4
15685	-4e-05	-5e-05	-7e-05	-3e-05	-0.00055	-0.00022	-8e-05	0.00011	4
15686	-2e-05	-2e-05	0	-3e-05	-0.00012	-0.00057	8e-05	-0.00018	4
15688	-2e-05	-2e-05	0	-3e-05	-0.00012	-0.00057	8e-05	-0.00018	4
15689	-2e-05	-2e-05	0	-3e-05	-0.00012	-0.00057	8e-05	-0.00018	4
15690	-2e-05	-2e-05	0	-3e-05	-0.00012	-0.00057	8e-05	-0.00018	4
15691	-2e-05	-2e-05	0	-3e-05	-0.00012	-0.00057	8e-05	-0.00018	4
15692	-2e-05	-2e-05	0	-3e-05	-0.00012	-0.00057	8e-05	-0.00018	4
15693	-2e-05	-2e-05	0	-3e-05	-0.00012	-0.00057	8e-05	-0.00018	4
15694	-2e-05	-2e-05	0	-3e-05	-0.00012	-0.00057	8e-05	-0.00018	4
15695	-2e-05	-2e-05	0	-3e-05	-0.00012	-0.00057	8e-05	-0.00018	4
15696	-2e-05	-2e-05	0	-3e-05	-0.00012	-0.00057	8e-05	-0.00018	4
15697	-2e-05	-2e-05	0	-3e-05	-0.00012	-0.00057	8e-05	-0.00018	4
15698	-2e-05	-2e-05	0	-3e-05	-0.00012	-0.00057	8e-05	-0.00018	4
15699	-2e-05	2e-05	-2e-05	-0.0004	-0.00122	-0.00032	0.00015	-0.00018	4
15700	-2e-05	2e-05	-2e-05	-0.0004	-0.00122	-0.00032	0.00015	-0.00018	4
15701	-2e-05	2e-05	-2e-05	-0.0004	-0.00122	-0.00032	0.00015	-0.00018	4
15702	-2e-05	2e-05	-2e-05	-0.0004	-0.00122	-0.00032	0.00015	-0.00018	4
15703	-2e-05	2e-05	-2e-05	-0.0004	-0.00122	-0.00032	0.00015	-0.00018	4
15704	-2e-05	2e-05	-2e-05	-0.0004	-0.00122	-0.00032	0.00015	-0.00018	4
15705	-2e-05	2e-05	-2e-05	-0.0004	-0.00122	-0.00032	0.00015	-0.00018	4
15706	1e-05	0	1e-05	-4e-05	0.00014	-1e-05	-0.00035	5e-05	4
15707	1e-05	0	1e-05	-4e-05	0.00014	-1e-05	-0.00035	5e-05	4
15708	1e-05	0	1e-05	-4e-05	0.00014	-1e-05	-0.00035	5e-05	4
15709	1e-05	0	1e-05	-4e-05	0.00014	-1e-05	-0.00035	5e-05	4
15710	1e-05	0	1e-05	-4e-05	0.00014	-1e-05	-0.00035	5e-05	4
15711	1e-05	0	1e-05	-4e-05	0.00014	-1e-05	-0.00035	5e-05	4
15712	1e-05	0	1e-05	-4e-05	0.00014	-1e-05	-0.00035	5e-05	4
15713	1e-05	0	1e-05	-4e-05	0.00014	-1e-05	-0.00035	5e-05	4
15714	1e-05	0	1e-05	-4e-05	0.00014	-1e-05	-0.00035	5e-05	4
15715	1e-05	0	1e-05	-4e-05	0.00014	-1e-05	-0.00035	5e-05	4
15716	1e-05	0	1e-05	-4e-05	0.00014	-1e-05	-0.00035	5e-05	4
15717	1e-05	0	1e-05	-4e-05	0.00014	-1e-05	-0.00035	5e-05	4
15718	1e-05	0	1e-05	-4e-05	0.00014	-1e-05	-0.00035	5e-05	4
15719	1e-05	0	1e-05	-4e-05	0.00014	-1e-05	-0.00035	5e-05	4
15720	1e-05	0	1e-05	-4e-05	0.00014	-1e-05	-0.00035	5e-05	4
15721	1e-05	0	1e-05	-4e-05	0.00014	-1e-05	-0.00035	5e-05	4
15722	-1e-05	1e-05	2e-05	-3e-05	-0.00012	-0.00024	0.00021	-1e-05	4
15723	-1e-05	1e-05	2e-05	-3e-05	-0.00012	-0.00024	0.00021	-1e-05	4
15724	-1e-05	-4e-05	-8e-05	-0.00025	-0.00034	-0.00102	0	-0.00012	4
15725	-1e-05	-4e-05	-8e-05	-0.00025	-0.00034	-0.00102	0	-0.00012	4
15726	-1e-05	-4e-05	-8e-05	-0.00025	-0.00034	-0.00102	0	-0.00012	4
15727	-1e-05	-4e-05	-8e-05	-0.00025	-0.00034	-0.00102	0	-0.00012	4
15728	-1e-05	-4e-05	-8e-05	-0.00025	-0.00034	-0.00102	0	-0.00012	4
15729	-1e-05	-4e-05	-8e-05	-0.00025	-0.00034	-0.00102	0	-0.00012	4
15730	-1e-05	-4e-05	-8e-05	-0.00025	-0.00034	-0.00102	0	-0.00012	4
15731	-1e-05	-4e-05	-8e-05	-0.00025	-0.00034	-0.00102	0	-0.00012	4
15732	-1e-05	-4e-05	-8e-05	-0.00025	-0.00034	-0.00102	0	-0.00012	4
15733	-1e-05	-4e-05	-8e-05	-0.00025	-0.00034	-0.00102	0	-0.00012	4
15734	-1e-05	-4e-05	-8e-05	-0.00025	-0.00034	-0.00102	0	-0.00012	4
15735	-1e-05	-4e-05	-8e-05	-0.00025	-0.00034	-0.00102	0	-0.00012	4
15736	-1e-05	-4e-05	-8e-05	-0.00025	-0.00034	-0.00102	0	-0.00012	4
15738	-1e-05	-4e-05	-8e-05	-0.00025	-0.00034	-0.00102	0	-0.00012	4
15739	-1e-05	-4e-05	-8e-05	-0.00025	-0.00034	-0.00102	0	-0.00012	4
15740	-1e-05	-4e-05	-8e-05	-0.00025	-0.00034	-0.00102	0	-0.00012	4
15741	-1e-05	-4e-05	-8e-05	-0.00025	-0.00034	-0.00102	0	-0.00012	4
15742	-1e-05	-4e-05	-8e-05	-0.00025	-0.00034	-0.00102	0	-0.00012	4
15743	-1e-05	-4e-05	-8e-05	-0.00025	-0.00034	-0.00102	0	-0.00012	4
15744	2e-05	-0.00011	-0.00013	-6e-05	0.00127	6e-05	-0.00022	3e-05	4
15745	2e-05	-0.00011	-0.00013	-6e-05	0.00127	6e-05	-0.00022	3e-05	4
15746	0	4e-05	-1e-05	-0.00014	-0.0006	0.00011	0.00014	0.00013	4
15747	0	4e-05	-1e-05	-0.00014	-0.0006	0.00011	0.00014	0.00013	4
15748	0	4e-05	-1e-05	-0.00014	-0.0006	0.00011	0.00014	0.00013	4
15749	0	4e-05	-1e-05	-0.00014	-0.0006	0.00011	0.00014	0.00013	4
15750	0	4e-05	-1e-05	-0.00014	-0.0006	0.00011	0.00014	0.00013	4
15751	0	4e-05	-1e-05	-0.00014	-0.0006	0.00011	0.00014	0.00013	4
15752	0	4e-05	-1e-05	-0.00014	-0.0006	0.00011	0.00014	0.00013	4
15753	0	4e-05	-1e-05	-0.00014	-0.0006	0.00011	0.00014	0.00013	4
15754	0	4e-05	-1e-05	-0.00014	-0.0006	0.00011	0.00014	0.00013	4
15755	0	4e-05	-1e-05	-0.00014	-0.0006	0.00011	0.00014	0.00013	4
15756	0	4e-05	-1e-05	-0.00014	-0.0006	0.00011	0.00014	0.00013	4
15757	0	4e-05	-1e-05	-0.00014	-0.0006	0.00011	0.00014	0.00013	4
15758	0	4e-05	-1e-05	-0.00014	-0.0006	0.00011	0.00014	0.00013	4
15759	-2e-05	-8e-05	-0.0001	-6e-05	0.00013	7e-05	1e-05	-4e-05	4
15760	-2e-05	-8e-05	-0.0001	-6e-05	0.00013	7e-05	1e-05	-4e-05	4
15761	-2e-05	-8e-05	-0.0001	-6e-05	0.00013	7e-05	1e-05	-4e-05	4
15762	-2e-05	-8e-05	-0.0001	-6e-05	0.00013	7e-05	1e-05	-4e-05	4
15763	-2e-05	-8e-05	-0.0001	-6e-05	0.00013	7e-05	1e-05	-4e-05	4
15764	-2e-05	-8e-05	-0.0001	-6e-05	0.00013	7e-05	1e-05	-4e-05	4
15765	-2e-05	-8e-05	-0.0001	-6e-05	0.00013	7e-05	1e-05	-4e-05	4
15766	-5e-05	2e-05	8e-05	0.0005	0.00098	0.00046	9e-05	-0.00011	4
15767	-5e-05	2e-05	8e-05	0.0005	0.00098	0.00046	9e-05	-0.00011	4
15768	-5e-05	2e-05	8e-05	0.0005	0.00098	0.00046	9e-05	-0.00011	4
15769	-5e-05	2e-05	8e-05	0.0005	0.00098	0.00046	9e-05	-0.00011	4
15770	-5e-05	2e-05	8e-05	0.0005	0.00098	0.00046	9e-05	-0.00011	4
15771	-5e-05	2e-05	8e-05	0.0005	0.00098	0.00046	9e-05	-0.00011	4
15772	-5e-05	2e-05	8e-05	0.0005	0.00098	0.00046	9e-05	-0.00011	4
15773	-5e-05	2e-05	8e-05	0.0005	0.00098	0.00046	9e-05	-0.00011	4
15774	-5e-05	2e-05	8e-05	0.0005	0.00098	0.00046	9e-05	-0.00011	4
15775	-5e-05	2e-05	8e-05	0.0005	0.00098	0.00046	9e-05	-0.00011	4
15776	-5e-05	2e-05	8e-05	0.0005	0.00098	0.00046	9e-05	-0.00011	4
15777	-5e-05	2e-05	8e-05	0.0005	0.00098	0.00046	9e-05	-0.00011	4
15778	-5e-05	2e-05	8e-05	0.0005	0.00098	0.00046	9e-05	-0.00011	4
15779	-5e-05	2e-05	8e-05	0.0005	0.00098	0.00046	9e-05	-0.00011	4
15780	-5e-05	2e-05	8e-05	0.0005	0.00098	0.00046	9e-05	-0.00011	4
15781	-5e-05	2e-05	8e-05	0.0005	0.00098	0.00046	9e-05	-0.00011	4
15782	0	2e-05	6e-05	0.00036	0.00089	0.00082	-2e-05	-3e-05	4
15783	0	2e-05	6e-05	0.00036	0.00089	0.00082	-2e-05	-3e-05	4
15784	-4e-05	-7e-05	-7e-05	-0.0001	-0.00096	-0.00047	-0.00013	-0.00011	4
15785	-4e-05	-7e-05	-7e-05	-0.0001	-0.00096	-0.00047	-0.00013	-0.00011	4
15786	-4e-05	-7e-05	-7e-05	-0.0001	-0.00096	-0.00047	-0.00013	-0.00011	4
15788	-4e-05	-7e-05	-7e-05	-0.0001	-0.00096	-0.00047	-0.00013	-0.00011	4
15789	-4e-05	-7e-05	-7e-05	-0.0001	-0.00096	-0.00047	-0.00013	-0.00011	4
15790	-4e-05	-7e-05	-7e-05	-0.0001	-0.00096	-0.00047	-0.00013	-0.00011	4
15791	-4e-05	-7e-05	-7e-05	-0.0001	-0.00096	-0.00047	-0.00013	-0.00011	4
15792	-4e-05	-7e-05	-7e-05	-0.0001	-0.00096	-0.00047	-0.00013	-0.00011	4
15793	-4e-05	-7e-05	-7e-05	-0.0001	-0.00096	-0.00047	-0.00013	-0.00011	4
15794	-4e-05	-7e-05	-7e-05	-0.0001	-0.00096	-0.00047	-0.00013	-0.00011	4
15795	-4e-05	-7e-05	-7e-05	-0.0001	-0.00096	-0.00047	-0.00013	-0.00011	4
15796	-4e-05	-7e-05	-7e-05	-0.0001	-0.00096	-0.00047	-0.00013	-0.00011	4
15797	-4e-05	-7e-05	-7e-05	-0.0001	-0.00096	-0.00047	-0.00013	-0.00011	4
15798	-4e-05	-7e-05	-7e-05	-0.0001	-0.00096	-0.00047	-0.00013	-0.00011	4
15799	-4e-05	-7e-05	-7e-05	-0.0001	-0.00096	-0.00047	-0.00013	-0.00011	4
15800	-4e-05	-7e-05	-7e-05	-0.0001	-0.00096	-0.00047	-0.00013	-0.00011	4
15801	-4e-05	-7e-05	-7e-05	-0.0001	-0.00096	-0.00047	-0.00013	-0.00011	4
15802	-4e-05	-7e-05	-7e-05	-0.0001	-0.00096	-0.00047	-0.00013	-0.00011	4
15803	-4e-05	-7e-05	-7e-05	-0.0001	-0.00096	-0.00047	-0.00013	-0.00011	4
15804	-4e-05	-7e-05	-7e-05	-0.0001	-0.00096	-0.00047	-0.00013	-0.00011	4
15805	2e-05	8e-05	0.0001	2e-05	0.00051	0.00019	-3e-05	0.00014	4
15806	2e-05	0	2e-05	0.0001	0.00063	-0.00047	0.00038	-1e-05	4
15807	2e-05	0	2e-05	0.0001	0.00063	-0.00047	0.00038	-1e-05	4
15808	2e-05	0	2e-05	0.0001	0.00063	-0.00047	0.00038	-1e-05	4
15809	2e-05	0	2e-05	0.0001	0.00063	-0.00047	0.00038	-1e-05	4
15810	2e-05	0	2e-05	0.0001	0.00063	-0.00047	0.00038	-1e-05	4
15811	2e-05	0	2e-05	0.0001	0.00063	-0.00047	0.00038	-1e-05	4
15812	2e-05	0	2e-05	0.0001	0.00063	-0.00047	0.00038	-1e-05	4
15813	2e-05	0	2e-05	0.0001	0.00063	-0.00047	0.00038	-1e-05	4
15814	2e-05	0	2e-05	0.0001	0.00063	-0.00047	0.00038	-1e-05	4
15815	2e-05	0	2e-05	0.0001	0.00063	-0.00047	0.00038	-1e-05	4
15816	2e-05	0	2e-05	0.0001	0.00063	-0.00047	0.00038	-1e-05	4
15817	2e-05	0	2e-05	0.0001	0.00063	-0.00047	0.00038	-1e-05	4
15818	2e-05	0	2e-05	0.0001	0.00063	-0.00047	0.00038	-1e-05	4
15819	3e-05	5e-05	4e-05	-2e-05	-0.00022	-0.00031	0.00014	-4e-05	4
15820	3e-05	5e-05	4e-05	-2e-05	-0.00022	-0.00031	0.00014	-4e-05	4
15821	3e-05	5e-05	4e-05	-2e-05	-0.00022	-0.00031	0.00014	-4e-05	4
15822	3e-05	5e-05	4e-05	-2e-05	-0.00022	-0.00031	0.00014	-4e-05	4
15823	3e-05	5e-05	4e-05	-2e-05	-0.00022	-0.00031	0.00014	-4e-05	4
15824	3e-05	5e-05	4e-05	-2e-05	-0.00022	-0.00031	0.00014	-4e-05	4
15825	-7e-05	-6e-05	-7e-05	0.00022	-0.00043	-0.00028	-0.00017	-0.00027	4
15826	7e-05	0.0001	6e-05	-0.00032	-0.00028	0.00104	0.0001	1e-05	4
15827	7e-05	0.0001	6e-05	-0.00032	-0.00028	0.00104	0.0001	1e-05	4
15828	7e-05	0.0001	6e-05	-0.00032	-0.00028	0.00104	0.0001	1e-05	4
15829	7e-05	0.0001	6e-05	-0.00032	-0.00028	0.00104	0.0001	1e-05	4
15830	7e-05	0.0001	6e-05	-0.00032	-0.00028	0.00104	0.0001	1e-05	4
15831	7e-05	0.0001	6e-05	-0.00032	-0.00028	0.00104	0.0001	1e-05	4
15832	7e-05	0.0001	6e-05	-0.00032	-0.00028	0.00104	0.0001	1e-05	4
15833	7e-05	0.0001	6e-05	-0.00032	-0.00028	0.00104	0.0001	1e-05	4
15834	7e-05	0.0001	6e-05	-0.00032	-0.00028	0.00104	0.0001	1e-05	4
15835	7e-05	0.0001	6e-05	-0.00032	-0.00028	0.00104	0.0001	1e-05	4
15836	7e-05	0.0001	6e-05	-0.00032	-0.00028	0.00104	0.0001	1e-05	4
15838	7e-05	0.0001	6e-05	-0.00032	-0.00028	0.00104	0.0001	1e-05	4
15839	7e-05	0.0001	6e-05	-0.00032	-0.00028	0.00104	0.0001	1e-05	4
15840	7e-05	0.0001	6e-05	-0.00032	-0.00028	0.00104	0.0001	1e-05	4
15841	7e-05	0.0001	6e-05	-0.00032	-0.00028	0.00104	0.0001	1e-05	4
15842	-5e-05	-4e-05	-5e-05	4e-05	0.00026	-5e-05	-6e-05	-0.00021	4
15843	-5e-05	-4e-05	-5e-05	4e-05	0.00026	-5e-05	-6e-05	-0.00021	4
15844	-2e-05	-2e-05	-3e-05	-0.00017	0.00062	-9e-05	-2e-05	-0.00014	4
15845	-2e-05	-2e-05	-3e-05	-0.00017	0.00062	-9e-05	-2e-05	-0.00014	4
15846	-2e-05	-2e-05	-3e-05	-0.00017	0.00062	-9e-05	-2e-05	-0.00014	4
15847	-2e-05	-2e-05	-3e-05	-0.00017	0.00062	-9e-05	-2e-05	-0.00014	4
15848	-2e-05	-2e-05	-3e-05	-0.00017	0.00062	-9e-05	-2e-05	-0.00014	4
15849	-2e-05	-2e-05	-3e-05	-0.00017	0.00062	-9e-05	-2e-05	-0.00014	4
15850	-2e-05	-2e-05	-3e-05	-0.00017	0.00062	-9e-05	-2e-05	-0.00014	4
15851	-2e-05	-2e-05	-3e-05	-0.00017	0.00062	-9e-05	-2e-05	-0.00014	4
15852	-2e-05	-2e-05	-3e-05	-0.00017	0.00062	-9e-05	-2e-05	-0.00014	4
15853	-2e-05	-2e-05	-3e-05	-0.00017	0.00062	-9e-05	-2e-05	-0.00014	4
15854	-2e-05	-2e-05	-3e-05	-0.00017	0.00062	-9e-05	-2e-05	-0.00014	4
15855	-2e-05	-2e-05	-3e-05	-0.00017	0.00062	-9e-05	-2e-05	-0.00014	4
15856	-2e-05	-2e-05	-3e-05	-0.00017	0.00062	-9e-05	-2e-05	-0.00014	4
15857	-2e-05	-2e-05	-3e-05	-0.00017	0.00062	-9e-05	-2e-05	-0.00014	4
15858	-2e-05	-2e-05	-3e-05	-0.00017	0.00062	-9e-05	-2e-05	-0.00014	4
15859	-2e-05	-2e-05	-3e-05	-0.00017	0.00062	-9e-05	-2e-05	-0.00014	4
15860	-2e-05	-2e-05	-3e-05	-0.00017	0.00062	-9e-05	-2e-05	-0.00014	4
15861	-2e-05	-2e-05	-3e-05	-0.00017	0.00062	-9e-05	-2e-05	-0.00014	4
15862	-2e-05	-2e-05	-3e-05	-0.00017	0.00062	-9e-05	-2e-05	-0.00014	4
15863	-2e-05	-2e-05	-3e-05	-0.00017	0.00062	-9e-05	-2e-05	-0.00014	4
15864	-2e-05	-2e-05	-3e-05	-0.00017	0.00062	-9e-05	-2e-05	-0.00014	4
15865	-6e-05	-4e-05	-0.0001	-0.00036	-0.00128	-0.00029	3e-05	-3e-05	4
15866	-0.0001	-9e-05	-0.0001	6e-05	0.00028	-0.00017	-0.00018	-0.00012	4
15867	-0.0001	-9e-05	-0.0001	6e-05	0.00028	-0.00017	-0.00018	-0.00012	4
15868	-0.0001	-9e-05	-0.0001	6e-05	0.00028	-0.00017	-0.00018	-0.00012	4
15869	-0.0001	-9e-05	-0.0001	6e-05	0.00028	-0.00017	-0.00018	-0.00012	4
15870	-0.0001	-9e-05	-0.0001	6e-05	0.00028	-0.00017	-0.00018	-0.00012	4
15871	-0.0001	-9e-05	-0.0001	6e-05	0.00028	-0.00017	-0.00018	-0.00012	4
15872	-0.0001	-9e-05	-0.0001	6e-05	0.00028	-0.00017	-0.00018	-0.00012	4
15873	-0.0001	-9e-05	-0.0001	6e-05	0.00028	-0.00017	-0.00018	-0.00012	4
15874	-0.0001	-9e-05	-0.0001	6e-05	0.00028	-0.00017	-0.00018	-0.00012	4
15875	-0.0001	-9e-05	-0.0001	6e-05	0.00028	-0.00017	-0.00018	-0.00012	4
15876	-0.0001	-9e-05	-0.0001	6e-05	0.00028	-0.00017	-0.00018	-0.00012	4
15877	-0.0001	-9e-05	-0.0001	6e-05	0.00028	-0.00017	-0.00018	-0.00012	4
15878	-0.0001	-9e-05	-0.0001	6e-05	0.00028	-0.00017	-0.00018	-0.00012	4
15879	-7e-05	-7e-05	-1e-05	0.00028	0.00072	-0.00057	-5e-05	0.00014	4
15880	-7e-05	-7e-05	-1e-05	0.00028	0.00072	-0.00057	-5e-05	0.00014	4
15881	-7e-05	-7e-05	-1e-05	0.00028	0.00072	-0.00057	-5e-05	0.00014	4
15882	-7e-05	-7e-05	-1e-05	0.00028	0.00072	-0.00057	-5e-05	0.00014	4
15883	-7e-05	-7e-05	-1e-05	0.00028	0.00072	-0.00057	-5e-05	0.00014	4
15884	-7e-05	-7e-05	-1e-05	0.00028	0.00072	-0.00057	-5e-05	0.00014	4
15885	-7e-05	-7e-05	-1e-05	0.00028	0.00072	-0.00057	-5e-05	0.00014	4
15886	1e-05	-2e-05	-3e-05	-0.0001	0.00049	-0.00049	-0.00032	0.00014	4
15888	1e-05	-2e-05	-3e-05	-0.0001	0.00049	-0.00049	-0.00032	0.00014	4
15889	1e-05	-2e-05	-3e-05	-0.0001	0.00049	-0.00049	-0.00032	0.00014	4
15890	1e-05	-2e-05	-3e-05	-0.0001	0.00049	-0.00049	-0.00032	0.00014	4
15891	1e-05	-2e-05	-3e-05	-0.0001	0.00049	-0.00049	-0.00032	0.00014	4
15892	1e-05	-2e-05	-3e-05	-0.0001	0.00049	-0.00049	-0.00032	0.00014	4
15893	1e-05	-2e-05	-3e-05	-0.0001	0.00049	-0.00049	-0.00032	0.00014	4
15894	1e-05	-2e-05	-3e-05	-0.0001	0.00049	-0.00049	-0.00032	0.00014	4
15895	1e-05	-2e-05	-3e-05	-0.0001	0.00049	-0.00049	-0.00032	0.00014	4
15896	1e-05	-2e-05	-3e-05	-0.0001	0.00049	-0.00049	-0.00032	0.00014	4
15897	1e-05	-2e-05	-3e-05	-0.0001	0.00049	-0.00049	-0.00032	0.00014	4
15898	1e-05	-2e-05	-3e-05	-0.0001	0.00049	-0.00049	-0.00032	0.00014	4
15899	1e-05	-2e-05	-3e-05	-0.0001	0.00049	-0.00049	-0.00032	0.00014	4
15900	1e-05	-2e-05	-3e-05	-0.0001	0.00049	-0.00049	-0.00032	0.00014	4
15901	1e-05	-2e-05	-3e-05	-0.0001	0.00049	-0.00049	-0.00032	0.00014	4
15902	-2e-05	-3e-05	-8e-05	-3e-05	4e-05	-0.00035	0.0001	0.00028	4
15903	-2e-05	-3e-05	-8e-05	-3e-05	4e-05	-0.00035	0.0001	0.00028	4
15904	1e-05	-2e-05	0	6e-05	0.00024	0.00043	0.00016	8e-05	4
15905	1e-05	-2e-05	0	6e-05	0.00024	0.00043	0.00016	8e-05	4
15906	1e-05	-2e-05	0	6e-05	0.00024	0.00043	0.00016	8e-05	4
15907	1e-05	-2e-05	0	6e-05	0.00024	0.00043	0.00016	8e-05	4
15908	1e-05	-2e-05	0	6e-05	0.00024	0.00043	0.00016	8e-05	4
15909	1e-05	-2e-05	0	6e-05	0.00024	0.00043	0.00016	8e-05	4
15910	1e-05	-2e-05	0	6e-05	0.00024	0.00043	0.00016	8e-05	4
15911	1e-05	-2e-05	0	6e-05	0.00024	0.00043	0.00016	8e-05	4
15912	1e-05	-2e-05	0	6e-05	0.00024	0.00043	0.00016	8e-05	4
15913	1e-05	-2e-05	0	6e-05	0.00024	0.00043	0.00016	8e-05	4
15914	1e-05	-2e-05	0	6e-05	0.00024	0.00043	0.00016	8e-05	4
15915	1e-05	-2e-05	0	6e-05	0.00024	0.00043	0.00016	8e-05	4
15916	1e-05	-2e-05	0	6e-05	0.00024	0.00043	0.00016	8e-05	4
15917	1e-05	-2e-05	0	6e-05	0.00024	0.00043	0.00016	8e-05	4
15918	1e-05	-2e-05	0	6e-05	0.00024	0.00043	0.00016	8e-05	4
15919	1e-05	-2e-05	0	6e-05	0.00024	0.00043	0.00016	8e-05	4
15920	1e-05	-2e-05	0	6e-05	0.00024	0.00043	0.00016	8e-05	4
15921	1e-05	-2e-05	0	6e-05	0.00024	0.00043	0.00016	8e-05	4
15922	1e-05	-2e-05	0	6e-05	0.00024	0.00043	0.00016	8e-05	4
15923	1e-05	-2e-05	0	6e-05	0.00024	0.00043	0.00016	8e-05	4
15924	-0.00015	-0.00017	-0.00016	0.00011	-0.0005	-0.00074	-0.00053	-0.00017	4
15925	3e-05	3e-05	0	-0.00042	-0.00086	-0.00028	5e-05	3e-05	4
15926	5e-05	3e-05	2e-05	-0.00023	0.00011	0.00012	0.00018	0.00011	4
15927	5e-05	3e-05	2e-05	-0.00023	0.00011	0.00012	0.00018	0.00011	4
15928	5e-05	3e-05	2e-05	-0.00023	0.00011	0.00012	0.00018	0.00011	4
15929	5e-05	3e-05	2e-05	-0.00023	0.00011	0.00012	0.00018	0.00011	4
15930	5e-05	3e-05	2e-05	-0.00023	0.00011	0.00012	0.00018	0.00011	4
15931	5e-05	3e-05	2e-05	-0.00023	0.00011	0.00012	0.00018	0.00011	4
15932	5e-05	3e-05	2e-05	-0.00023	0.00011	0.00012	0.00018	0.00011	4
15933	5e-05	3e-05	2e-05	-0.00023	0.00011	0.00012	0.00018	0.00011	4
15934	5e-05	3e-05	2e-05	-0.00023	0.00011	0.00012	0.00018	0.00011	4
15935	5e-05	3e-05	2e-05	-0.00023	0.00011	0.00012	0.00018	0.00011	4
15936	5e-05	3e-05	2e-05	-0.00023	0.00011	0.00012	0.00018	0.00011	4
15938	-5e-05	-3e-05	-4e-05	-7e-05	-0.001	5e-05	-6e-05	-8e-05	4
15939	-5e-05	-3e-05	-4e-05	-7e-05	-0.001	5e-05	-6e-05	-8e-05	4
15940	-5e-05	-3e-05	-4e-05	-7e-05	-0.001	5e-05	-6e-05	-8e-05	4
15941	-5e-05	-3e-05	-4e-05	-7e-05	-0.001	5e-05	-6e-05	-8e-05	4
15942	-5e-05	-3e-05	-4e-05	-7e-05	-0.001	5e-05	-6e-05	-8e-05	4
15943	-5e-05	-3e-05	-4e-05	-7e-05	-0.001	5e-05	-6e-05	-8e-05	4
15944	-5e-05	-3e-05	-4e-05	-7e-05	-0.001	5e-05	-6e-05	-8e-05	4
15945	-5e-05	-3e-05	-4e-05	-7e-05	-0.001	5e-05	-6e-05	-8e-05	4
15946	-5e-05	-3e-05	-4e-05	-7e-05	-0.001	5e-05	-6e-05	-8e-05	4
15947	2e-05	7e-05	7e-05	-0.00012	-0.00127	0.00064	0.00013	0.00051	4
15948	2e-05	7e-05	7e-05	-0.00012	-0.00127	0.00064	0.00013	0.00051	4
15949	2e-05	7e-05	7e-05	-0.00012	-0.00127	0.00064	0.00013	0.00051	4
15950	2e-05	7e-05	7e-05	-0.00012	-0.00127	0.00064	0.00013	0.00051	4
15951	2e-05	7e-05	7e-05	-0.00012	-0.00127	0.00064	0.00013	0.00051	4
15952	2e-05	7e-05	7e-05	-0.00012	-0.00127	0.00064	0.00013	0.00051	4
15953	2e-05	7e-05	7e-05	-0.00012	-0.00127	0.00064	0.00013	0.00051	4
15954	2e-05	7e-05	7e-05	-0.00012	-0.00127	0.00064	0.00013	0.00051	4
15955	2e-05	7e-05	7e-05	-0.00012	-0.00127	0.00064	0.00013	0.00051	4
15956	2e-05	7e-05	7e-05	-0.00012	-0.00127	0.00064	0.00013	0.00051	4
15957	2e-05	7e-05	7e-05	-0.00012	-0.00127	0.00064	0.00013	0.00051	4
15958	2e-05	7e-05	7e-05	-0.00012	-0.00127	0.00064	0.00013	0.00051	4
15959	2e-05	7e-05	7e-05	-0.00012	-0.00127	0.00064	0.00013	0.00051	4
15960	2e-05	7e-05	7e-05	-0.00012	-0.00127	0.00064	0.00013	0.00051	4
15961	2e-05	7e-05	7e-05	-0.00012	-0.00127	0.00064	0.00013	0.00051	4
15962	-7e-05	-2e-05	0	0.00016	0.00127	0.00028	-0.00018	-0.00039	4
15963	-7e-05	-2e-05	0	0.00016	0.00127	0.00028	-0.00018	-0.00039	4
15964	-0.00014	-0.00013	-0.00018	-6e-05	0.0003	-0.00015	-0.00046	-0.00058	4
15965	-0.00014	-0.00013	-0.00018	-6e-05	0.0003	-0.00015	-0.00046	-0.00058	4
15966	-0.00014	-0.00013	-0.00018	-6e-05	0.0003	-0.00015	-0.00046	-0.00058	4
15967	-0.00014	-0.00013	-0.00018	-6e-05	0.0003	-0.00015	-0.00046	-0.00058	4
15968	-0.00014	-0.00013	-0.00018	-6e-05	0.0003	-0.00015	-0.00046	-0.00058	4
15969	-0.00014	-0.00013	-0.00018	-6e-05	0.0003	-0.00015	-0.00046	-0.00058	4
15970	-0.00014	-0.00013	-0.00018	-6e-05	0.0003	-0.00015	-0.00046	-0.00058	4
15971	-0.00014	-0.00013	-0.00018	-6e-05	0.0003	-0.00015	-0.00046	-0.00058	4
15972	-0.00014	-0.00013	-0.00018	-6e-05	0.0003	-0.00015	-0.00046	-0.00058	4
15973	-0.00014	-0.00013	-0.00018	-6e-05	0.0003	-0.00015	-0.00046	-0.00058	4
15974	-0.00014	-0.00013	-0.00018	-6e-05	0.0003	-0.00015	-0.00046	-0.00058	4
15975	-0.00014	-0.00013	-0.00018	-6e-05	0.0003	-0.00015	-0.00046	-0.00058	4
15976	-0.00014	-0.00013	-0.00018	-6e-05	0.0003	-0.00015	-0.00046	-0.00058	4
15977	-0.00014	-0.00013	-0.00018	-6e-05	0.0003	-0.00015	-0.00046	-0.00058	4
15978	-0.00014	-0.00013	-0.00018	-6e-05	0.0003	-0.00015	-0.00046	-0.00058	4
15979	-0.00014	-0.00013	-0.00018	-6e-05	0.0003	-0.00015	-0.00046	-0.00058	4
15980	-0.00014	-0.00013	-0.00018	-6e-05	0.0003	-0.00015	-0.00046	-0.00058	4
15981	-0.00014	-0.00013	-0.00018	-6e-05	0.0003	-0.00015	-0.00046	-0.00058	4
15982	-0.00014	-0.00013	-0.00018	-6e-05	0.0003	-0.00015	-0.00046	-0.00058	4
15983	-0.00014	-0.00013	-0.00018	-6e-05	0.0003	-0.00015	-0.00046	-0.00058	4
15984	0.00012	0.00012	0.00015	9e-05	-0.00083	0.00039	0.00044	0.00043	4
15985	-1e-05	-3e-05	-4e-05	-6e-05	-0.00128	-4e-05	0.00015	-0.00027	4
15986	3e-05	0	-3e-05	-4e-05	-3e-05	-0.00017	5e-05	6e-05	4
15988	3e-05	0	-3e-05	-4e-05	-3e-05	-0.00017	5e-05	6e-05	4
15989	3e-05	0	-3e-05	-4e-05	-3e-05	-0.00017	5e-05	6e-05	4
15990	3e-05	0	-3e-05	-4e-05	-3e-05	-0.00017	5e-05	6e-05	4
15991	3e-05	0	-3e-05	-4e-05	-3e-05	-0.00017	5e-05	6e-05	4
15992	3e-05	0	-3e-05	-4e-05	-3e-05	-0.00017	5e-05	6e-05	4
15993	3e-05	0	-3e-05	-4e-05	-3e-05	-0.00017	5e-05	6e-05	4
15994	3e-05	0	-3e-05	-4e-05	-3e-05	-0.00017	5e-05	6e-05	4
15995	3e-05	0	-3e-05	-4e-05	-3e-05	-0.00017	5e-05	6e-05	4
15996	3e-05	0	-3e-05	-4e-05	-3e-05	-0.00017	5e-05	6e-05	4
15997	3e-05	0	-3e-05	-4e-05	-3e-05	-0.00017	5e-05	6e-05	4
15998	-3e-05	-5e-05	-7e-05	0	0.00078	0.00077	-0.00042	0.00012	4
15999	-3e-05	-5e-05	-7e-05	0	0.00078	0.00077	-0.00042	0.00012	4
16000	-3e-05	-5e-05	-7e-05	0	0.00078	0.00077	-0.00042	0.00012	4
16001	-3e-05	-5e-05	-7e-05	0	0.00078	0.00077	-0.00042	0.00012	4
16002	-3e-05	-5e-05	-7e-05	0	0.00078	0.00077	-0.00042	0.00012	4
16003	-3e-05	-5e-05	-7e-05	0	0.00078	0.00077	-0.00042	0.00012	4
16004	-3e-05	-5e-05	-7e-05	0	0.00078	0.00077	-0.00042	0.00012	4
16005	-3e-05	-5e-05	-7e-05	0	0.00078	0.00077	-0.00042	0.00012	4
16006	-3e-05	-5e-05	-7e-05	0	0.00078	0.00077	-0.00042	0.00012	4
16007	2e-05	-1e-05	4e-05	0.00011	-0.00097	0.00021	4e-05	-2e-05	4
16008	2e-05	-1e-05	4e-05	0.00011	-0.00097	0.00021	4e-05	-2e-05	4
16009	2e-05	-1e-05	4e-05	0.00011	-0.00097	0.00021	4e-05	-2e-05	4
16010	2e-05	-1e-05	4e-05	0.00011	-0.00097	0.00021	4e-05	-2e-05	4
16011	2e-05	-1e-05	4e-05	0.00011	-0.00097	0.00021	4e-05	-2e-05	4
16012	2e-05	-1e-05	4e-05	0.00011	-0.00097	0.00021	4e-05	-2e-05	4
16013	2e-05	-1e-05	4e-05	0.00011	-0.00097	0.00021	4e-05	-2e-05	4
16014	2e-05	-1e-05	4e-05	0.00011	-0.00097	0.00021	4e-05	-2e-05	4
16015	2e-05	-1e-05	4e-05	0.00011	-0.00097	0.00021	4e-05	-2e-05	4
16016	2e-05	-1e-05	4e-05	0.00011	-0.00097	0.00021	4e-05	-2e-05	4
16017	2e-05	-1e-05	4e-05	0.00011	-0.00097	0.00021	4e-05	-2e-05	4
16018	2e-05	-1e-05	4e-05	0.00011	-0.00097	0.00021	4e-05	-2e-05	4
16019	2e-05	-1e-05	4e-05	0.00011	-0.00097	0.00021	4e-05	-2e-05	4
16020	2e-05	-1e-05	4e-05	0.00011	-0.00097	0.00021	4e-05	-2e-05	4
16021	2e-05	-1e-05	4e-05	0.00011	-0.00097	0.00021	4e-05	-2e-05	4
16022	0	-1e-05	3e-05	0.00019	-0.00044	-0.00046	0.00013	0.00013	4
16023	0	1e-05	-2e-05	-5e-05	-0.00093	7e-05	3e-05	1e-05	4
16024	-3e-05	-5e-05	-4e-05	0.00023	0.00097	0.0002	-0.00011	-0.00017	4
16025	-3e-05	-5e-05	-4e-05	0.00023	0.00097	0.0002	-0.00011	-0.00017	4
16026	-3e-05	-5e-05	-4e-05	0.00023	0.00097	0.0002	-0.00011	-0.00017	4
16027	-3e-05	-5e-05	-4e-05	0.00023	0.00097	0.0002	-0.00011	-0.00017	4
16028	-3e-05	-5e-05	-4e-05	0.00023	0.00097	0.0002	-0.00011	-0.00017	4
16029	-3e-05	-5e-05	-4e-05	0.00023	0.00097	0.0002	-0.00011	-0.00017	4
16030	-3e-05	-5e-05	-4e-05	0.00023	0.00097	0.0002	-0.00011	-0.00017	4
16031	-3e-05	-5e-05	-4e-05	0.00023	0.00097	0.0002	-0.00011	-0.00017	4
16032	-3e-05	-5e-05	-4e-05	0.00023	0.00097	0.0002	-0.00011	-0.00017	4
16033	-3e-05	-5e-05	-4e-05	0.00023	0.00097	0.0002	-0.00011	-0.00017	4
16034	-3e-05	-5e-05	-4e-05	0.00023	0.00097	0.0002	-0.00011	-0.00017	4
16035	-3e-05	-5e-05	-4e-05	0.00023	0.00097	0.0002	-0.00011	-0.00017	4
16036	-3e-05	-5e-05	-4e-05	0.00023	0.00097	0.0002	-0.00011	-0.00017	4
16038	-3e-05	-5e-05	-4e-05	0.00023	0.00097	0.0002	-0.00011	-0.00017	4
16039	-3e-05	-5e-05	-4e-05	0.00023	0.00097	0.0002	-0.00011	-0.00017	4
16040	-3e-05	-5e-05	-4e-05	0.00023	0.00097	0.0002	-0.00011	-0.00017	4
16041	-3e-05	-5e-05	-4e-05	0.00023	0.00097	0.0002	-0.00011	-0.00017	4
16042	-3e-05	-5e-05	-4e-05	0.00023	0.00097	0.0002	-0.00011	-0.00017	4
16043	-3e-05	-5e-05	-4e-05	0.00023	0.00097	0.0002	-0.00011	-0.00017	4
16044	-6e-05	-6e-05	-0.00011	-0.0004	-4e-05	-0.00073	-0.0002	-0.0003	4
16045	6e-05	4e-05	5e-05	-4e-05	-0.00083	-0.00022	0.0002	0.00045	4
16046	0	-1e-05	-1e-05	1e-05	-0.00052	-0.00034	0.0001	2e-05	4
16047	0	-1e-05	-1e-05	1e-05	-0.00052	-0.00034	0.0001	2e-05	4
16048	0	-1e-05	-1e-05	1e-05	-0.00052	-0.00034	0.0001	2e-05	4
16049	0	-1e-05	-1e-05	1e-05	-0.00052	-0.00034	0.0001	2e-05	4
16050	0	-1e-05	-1e-05	1e-05	-0.00052	-0.00034	0.0001	2e-05	4
16051	0	-1e-05	-1e-05	1e-05	-0.00052	-0.00034	0.0001	2e-05	4
16052	0	-1e-05	-1e-05	1e-05	-0.00052	-0.00034	0.0001	2e-05	4
16054	0	-1e-05	-1e-05	1e-05	-0.00052	-0.00034	0.0001	2e-05	4
16055	0	-1e-05	-1e-05	1e-05	-0.00052	-0.00034	0.0001	2e-05	4
16056	0	-1e-05	-1e-05	1e-05	-0.00052	-0.00034	0.0001	2e-05	4
16057	0	-1e-05	-1e-05	1e-05	-0.00052	-0.00034	0.0001	2e-05	4
16058	-5e-05	-7e-05	-9e-05	-4e-05	0.00075	-5e-05	-5e-05	-5e-05	4
16059	-5e-05	-7e-05	-9e-05	-4e-05	0.00075	-5e-05	-5e-05	-5e-05	4
16060	-5e-05	-7e-05	-9e-05	-4e-05	0.00075	-5e-05	-5e-05	-5e-05	4
16061	-5e-05	-7e-05	-9e-05	-4e-05	0.00075	-5e-05	-5e-05	-5e-05	4
16062	-5e-05	-7e-05	-9e-05	-4e-05	0.00075	-5e-05	-5e-05	-5e-05	4
16063	-5e-05	-7e-05	-9e-05	-4e-05	0.00075	-5e-05	-5e-05	-5e-05	4
16064	-5e-05	-7e-05	-9e-05	-4e-05	0.00075	-5e-05	-5e-05	-5e-05	4
16065	-5e-05	-7e-05	-9e-05	-4e-05	0.00075	-5e-05	-5e-05	-5e-05	4
16066	-5e-05	-7e-05	-9e-05	-4e-05	0.00075	-5e-05	-5e-05	-5e-05	4
16067	1e-05	-1e-05	-3e-05	-2e-05	-0.00019	-6e-05	5e-05	4e-05	4
16068	1e-05	-1e-05	-3e-05	-2e-05	-0.00019	-6e-05	5e-05	4e-05	4
16069	1e-05	-1e-05	-3e-05	-2e-05	-0.00019	-6e-05	5e-05	4e-05	4
16070	1e-05	-1e-05	-3e-05	-2e-05	-0.00019	-6e-05	5e-05	4e-05	4
16071	1e-05	-1e-05	-3e-05	-2e-05	-0.00019	-6e-05	5e-05	4e-05	4
16072	1e-05	-1e-05	-3e-05	-2e-05	-0.00019	-6e-05	5e-05	4e-05	4
16073	1e-05	-1e-05	-3e-05	-2e-05	-0.00019	-6e-05	5e-05	4e-05	4
16074	1e-05	-1e-05	-3e-05	-2e-05	-0.00019	-6e-05	5e-05	4e-05	4
16075	1e-05	-1e-05	-3e-05	-2e-05	-0.00019	-6e-05	5e-05	4e-05	4
16076	1e-05	-1e-05	-3e-05	-2e-05	-0.00019	-6e-05	5e-05	4e-05	4
16077	1e-05	-1e-05	-3e-05	-2e-05	-0.00019	-6e-05	5e-05	4e-05	4
16078	1e-05	-1e-05	-3e-05	-2e-05	-0.00019	-6e-05	5e-05	4e-05	4
16079	1e-05	-1e-05	-3e-05	-2e-05	-0.00019	-6e-05	5e-05	4e-05	4
16080	1e-05	-1e-05	-3e-05	-2e-05	-0.00019	-6e-05	5e-05	4e-05	4
16081	1e-05	-1e-05	-3e-05	-2e-05	-0.00019	-6e-05	5e-05	4e-05	4
16082	1e-05	4e-05	3e-05	0.00013	0.00085	0.0006	7e-05	5e-05	4
16083	-5e-05	-3e-05	-1e-05	-9e-05	-0.00068	0.00024	-7e-05	-2e-05	4
16084	-5e-05	-3e-05	-1e-05	-9e-05	-0.00068	0.00024	-7e-05	-2e-05	4
16085	-5e-05	-3e-05	-1e-05	-9e-05	-0.00068	0.00024	-7e-05	-2e-05	4
16086	-5e-05	-3e-05	-1e-05	-9e-05	-0.00068	0.00024	-7e-05	-2e-05	4
16088	-5e-05	-3e-05	-1e-05	-9e-05	-0.00068	0.00024	-7e-05	-2e-05	4
16089	-5e-05	-3e-05	-1e-05	-9e-05	-0.00068	0.00024	-7e-05	-2e-05	4
16090	-5e-05	-3e-05	-1e-05	-9e-05	-0.00068	0.00024	-7e-05	-2e-05	4
16091	-5e-05	-3e-05	-1e-05	-9e-05	-0.00068	0.00024	-7e-05	-2e-05	4
16092	-5e-05	-3e-05	-1e-05	-9e-05	-0.00068	0.00024	-7e-05	-2e-05	4
16093	-5e-05	-3e-05	-1e-05	-9e-05	-0.00068	0.00024	-7e-05	-2e-05	4
16094	-5e-05	-3e-05	-1e-05	-9e-05	-0.00068	0.00024	-7e-05	-2e-05	4
16095	-5e-05	-3e-05	-1e-05	-9e-05	-0.00068	0.00024	-7e-05	-2e-05	4
16096	-5e-05	-3e-05	-1e-05	-9e-05	-0.00068	0.00024	-7e-05	-2e-05	4
16097	-5e-05	-3e-05	-1e-05	-9e-05	-0.00068	0.00024	-7e-05	-2e-05	4
16098	-5e-05	-3e-05	-1e-05	-9e-05	-0.00068	0.00024	-7e-05	-2e-05	4
16099	-5e-05	-3e-05	-1e-05	-9e-05	-0.00068	0.00024	-7e-05	-2e-05	4
16100	-5e-05	-3e-05	-1e-05	-9e-05	-0.00068	0.00024	-7e-05	-2e-05	4
16101	-5e-05	-3e-05	-1e-05	-9e-05	-0.00068	0.00024	-7e-05	-2e-05	4
16102	-5e-05	-3e-05	-1e-05	-9e-05	-0.00068	0.00024	-7e-05	-2e-05	4
16103	-5e-05	-3e-05	-1e-05	-9e-05	-0.00068	0.00024	-7e-05	-2e-05	4
16104	-5e-05	-3e-05	-1e-05	-9e-05	-0.00068	0.00024	-7e-05	-2e-05	4
16105	-3e-05	-7e-05	-5e-05	-8e-05	-0.00077	-0.00074	-0.00015	-6e-05	4
16106	3e-05	3e-05	5e-05	8e-05	-0.00023	7e-05	-3e-05	-0.00022	4
16107	3e-05	3e-05	5e-05	8e-05	-0.00023	7e-05	-3e-05	-0.00022	4
16108	3e-05	3e-05	5e-05	8e-05	-0.00023	7e-05	-3e-05	-0.00022	4
16109	3e-05	3e-05	5e-05	8e-05	-0.00023	7e-05	-3e-05	-0.00022	4
16110	3e-05	3e-05	5e-05	8e-05	-0.00023	7e-05	-3e-05	-0.00022	4
16111	3e-05	3e-05	5e-05	8e-05	-0.00023	7e-05	-3e-05	-0.00022	4
16112	3e-05	3e-05	5e-05	8e-05	-0.00023	7e-05	-3e-05	-0.00022	4
16113	3e-05	3e-05	5e-05	8e-05	-0.00023	7e-05	-3e-05	-0.00022	4
16114	3e-05	3e-05	5e-05	8e-05	-0.00023	7e-05	-3e-05	-0.00022	4
16115	3e-05	3e-05	5e-05	8e-05	-0.00023	7e-05	-3e-05	-0.00022	4
16116	3e-05	3e-05	5e-05	8e-05	-0.00023	7e-05	-3e-05	-0.00022	4
16117	3e-05	3e-05	5e-05	8e-05	-0.00023	7e-05	-3e-05	-0.00022	4
16118	6e-05	2e-05	0	-0.00031	0.00037	0.00028	1e-05	0.00035	4
16119	6e-05	2e-05	0	-0.00031	0.00037	0.00028	1e-05	0.00035	4
16120	6e-05	2e-05	0	-0.00031	0.00037	0.00028	1e-05	0.00035	4
16121	6e-05	2e-05	0	-0.00031	0.00037	0.00028	1e-05	0.00035	4
16122	6e-05	2e-05	0	-0.00031	0.00037	0.00028	1e-05	0.00035	4
16123	6e-05	2e-05	0	-0.00031	0.00037	0.00028	1e-05	0.00035	4
16124	6e-05	2e-05	0	-0.00031	0.00037	0.00028	1e-05	0.00035	4
16125	6e-05	2e-05	0	-0.00031	0.00037	0.00028	1e-05	0.00035	4
16126	6e-05	2e-05	0	-0.00031	0.00037	0.00028	1e-05	0.00035	4
16127	-8e-05	-5e-05	-9e-05	-0.00018	0.00086	-0.00018	-0.0001	-0.00014	4
16128	-8e-05	-5e-05	-9e-05	-0.00018	0.00086	-0.00018	-0.0001	-0.00014	4
16129	-8e-05	-5e-05	-9e-05	-0.00018	0.00086	-0.00018	-0.0001	-0.00014	4
16130	-8e-05	-5e-05	-9e-05	-0.00018	0.00086	-0.00018	-0.0001	-0.00014	4
16131	-8e-05	-5e-05	-9e-05	-0.00018	0.00086	-0.00018	-0.0001	-0.00014	4
16132	-8e-05	-5e-05	-9e-05	-0.00018	0.00086	-0.00018	-0.0001	-0.00014	4
16133	-8e-05	-5e-05	-9e-05	-0.00018	0.00086	-0.00018	-0.0001	-0.00014	4
16134	-8e-05	-5e-05	-9e-05	-0.00018	0.00086	-0.00018	-0.0001	-0.00014	4
16135	-8e-05	-5e-05	-9e-05	-0.00018	0.00086	-0.00018	-0.0001	-0.00014	4
16136	-8e-05	-5e-05	-9e-05	-0.00018	0.00086	-0.00018	-0.0001	-0.00014	4
16138	-8e-05	-5e-05	-9e-05	-0.00018	0.00086	-0.00018	-0.0001	-0.00014	4
16139	-8e-05	-5e-05	-9e-05	-0.00018	0.00086	-0.00018	-0.0001	-0.00014	4
16140	-8e-05	-5e-05	-9e-05	-0.00018	0.00086	-0.00018	-0.0001	-0.00014	4
16141	-8e-05	-5e-05	-9e-05	-0.00018	0.00086	-0.00018	-0.0001	-0.00014	4
16142	1e-05	0	-1e-05	-3e-05	-6e-05	-0.00037	-6e-05	-0.00024	4
16143	1e-05	0	-1e-05	-3e-05	-6e-05	-0.00037	-6e-05	-0.00024	4
16144	-8e-05	-0.0001	-0.00013	-8e-05	-0.0006	-0.00072	-4e-05	6e-05	4
16145	-8e-05	-0.0001	-0.00013	-8e-05	-0.0006	-0.00072	-4e-05	6e-05	4
16146	-8e-05	-0.0001	-0.00013	-8e-05	-0.0006	-0.00072	-4e-05	6e-05	4
16147	-8e-05	-0.0001	-0.00013	-8e-05	-0.0006	-0.00072	-4e-05	6e-05	4
16148	-8e-05	-0.0001	-0.00013	-8e-05	-0.0006	-0.00072	-4e-05	6e-05	4
16149	-8e-05	-0.0001	-0.00013	-8e-05	-0.0006	-0.00072	-4e-05	6e-05	4
16150	-8e-05	-0.0001	-0.00013	-8e-05	-0.0006	-0.00072	-4e-05	6e-05	4
16151	-8e-05	-0.0001	-0.00013	-8e-05	-0.0006	-0.00072	-4e-05	6e-05	4
16152	-8e-05	-0.0001	-0.00013	-8e-05	-0.0006	-0.00072	-4e-05	6e-05	4
16153	-8e-05	-0.0001	-0.00013	-8e-05	-0.0006	-0.00072	-4e-05	6e-05	4
16154	-8e-05	-0.0001	-0.00013	-8e-05	-0.0006	-0.00072	-4e-05	6e-05	4
16155	-8e-05	-0.0001	-0.00013	-8e-05	-0.0006	-0.00072	-4e-05	6e-05	4
