23286	-0.00056	-0.00041	-5e-05	-1e-05	0.0001	-0.00019	2e-05	0.00116	6
23287	-0.00056	-0.00041	-5e-05	-1e-05	0.0001	-0.00019	2e-05	0.00116	6
23288	-0.00056	-0.00041	-5e-05	-1e-05	0.0001	-0.00019	2e-05	0.00116	6
23289	-0.00056	-0.00041	-5e-05	-1e-05	0.0001	-0.00019	2e-05	0.00116	6
23290	-0.00056	-0.00041	-5e-05	-1e-05	0.0001	-0.00019	2e-05	0.00116	6
23291	-0.00056	-0.00041	-5e-05	-1e-05	0.0001	-0.00019	2e-05	0.00116	6
23292	-0.00056	-0.00041	-5e-05	-1e-05	0.0001	-0.00019	2e-05	0.00116	6
23293	-0.00056	-0.00041	-5e-05	-1e-05	0.0001	-0.00019	2e-05	0.00116	6
23294	-0.00056	-0.00041	-5e-05	-1e-05	0.0001	-0.00019	2e-05	0.00116	6
23295	-0.00056	-0.00041	-5e-05	-1e-05	0.0001	-0.00019	2e-05	0.00116	6
23296	-0.00056	-0.00041	-5e-05	-1e-05	0.0001	-0.00019	2e-05	0.00116	6
23297	-0.00056	-0.00041	-5e-05	-1e-05	0.0001	-0.00019	2e-05	0.00116	6
23298	-0.00056	-0.00041	-5e-05	-1e-05	0.0001	-0.00019	2e-05	0.00116	6
23299	-0.00056	-0.00041	-5e-05	-1e-05	0.0001	-0.00019	2e-05	0.00116	6
23300	-0.00056	-0.00041	-5e-05	-1e-05	0.0001	-0.00019	2e-05	0.00116	6
23301	-0.00056	-0.00041	-5e-05	-1e-05	0.0001	-0.00019	2e-05	0.00116	6
23302	-0.00056	-0.00041	-5e-05	-1e-05	0.0001	-0.00019	2e-05	0.00116	6
23303	-0.00056	-0.00041	-5e-05	-1e-05	0.0001	-0.00019	2e-05	0.00116	6
23304	-0.00081	-3e-05	0	4e-05	0.00034	-0.00052	9e-05	0.00076	6
23305	-0.00081	-3e-05	0	4e-05	0.00034	-0.00052	9e-05	0.00076	6
23306	0.0004	0.00019	7e-05	0.0001	2e-05	0.00115	0.00064	0.00036	6
23307	0.0004	0.00019	7e-05	0.0001	2e-05	0.00115	0.00064	0.00036	6
23308	0.0004	0.00019	7e-05	0.0001	2e-05	0.00115	0.00064	0.00036	6
23309	0.0004	0.00019	7e-05	0.0001	2e-05	0.00115	0.00064	0.00036	6
23310	0.0004	0.00019	7e-05	0.0001	2e-05	0.00115	0.00064	0.00036	6
23311	0.0004	0.00019	7e-05	0.0001	2e-05	0.00115	0.00064	0.00036	6
23312	0.0004	0.00019	7e-05	0.0001	2e-05	0.00115	0.00064	0.00036	6
23313	0.0004	0.00019	7e-05	0.0001	2e-05	0.00115	0.00064	0.00036	6
23314	0.0004	0.00019	7e-05	0.0001	2e-05	0.00115	0.00064	0.00036	6
23315	0.0004	0.00019	7e-05	0.0001	2e-05	0.00115	0.00064	0.00036	6
23316	0.0004	0.00019	7e-05	0.0001	2e-05	0.00115	0.00064	0.00036	6
23317	0.0004	0.00019	7e-05	0.0001	2e-05	0.00115	0.00064	0.00036	6
23318	0.00054	0.00084	5e-05	-4e-05	-3e-05	0.00065	-0.0001	0.00086	6
23319	0.00054	0.00084	5e-05	-4e-05	-3e-05	0.00065	-0.0001	0.00086	6
23320	0.00054	0.00084	5e-05	-4e-05	-3e-05	0.00065	-0.0001	0.00086	6
23321	0.00054	0.00084	5e-05	-4e-05	-3e-05	0.00065	-0.0001	0.00086	6
23322	0.00054	0.00084	5e-05	-4e-05	-3e-05	0.00065	-0.0001	0.00086	6
23323	0.00054	0.00084	5e-05	-4e-05	-3e-05	0.00065	-0.0001	0.00086	6
23324	0.00054	0.00084	5e-05	-4e-05	-3e-05	0.00065	-0.0001	0.00086	6
23325	0.00016	0.0002	4e-05	1e-05	-0.00032	-0.00051	-0.00074	-0.00047	6
23326	0.00016	0.0002	4e-05	1e-05	-0.00032	-0.00051	-0.00074	-0.00047	6
23327	0.00016	0.0002	4e-05	1e-05	-0.00032	-0.00051	-0.00074	-0.00047	6
23328	0.00016	0.0002	4e-05	1e-05	-0.00032	-0.00051	-0.00074	-0.00047	6
23329	0.00016	0.0002	4e-05	1e-05	-0.00032	-0.00051	-0.00074	-0.00047	6
23330	0.00016	0.0002	4e-05	1e-05	-0.00032	-0.00051	-0.00074	-0.00047	6
23331	0.00016	0.0002	4e-05	1e-05	-0.00032	-0.00051	-0.00074	-0.00047	6
23332	0.00016	0.0002	4e-05	1e-05	-0.00032	-0.00051	-0.00074	-0.00047	6
23333	0.00016	0.0002	4e-05	1e-05	-0.00032	-0.00051	-0.00074	-0.00047	6
23334	0.00016	0.0002	4e-05	1e-05	-0.00032	-0.00051	-0.00074	-0.00047	6
23335	0.00016	0.0002	4e-05	1e-05	-0.00032	-0.00051	-0.00074	-0.00047	6
23336	0.00016	0.0002	4e-05	1e-05	-0.00032	-0.00051	-0.00074	-0.00047	6
23339	0.00016	0.0002	4e-05	1e-05	-0.00032	-0.00051	-0.00074	-0.00047	6
23340	0.00016	0.0002	4e-05	1e-05	-0.00032	-0.00051	-0.00074	-0.00047	6
23341	0.00016	0.0002	4e-05	1e-05	-0.00032	-0.00051	-0.00074	-0.00047	6
23342	0.00075	-3e-05	0	3e-05	7e-05	0.00045	0.00041	0.00083	6
23343	-0.0004	-0.00014	-4e-05	-3e-05	-0.0002	-1e-05	-2e-05	-0.00116	6
23344	-0.0004	-0.00014	-4e-05	-3e-05	-0.0002	-1e-05	-2e-05	-0.00116	6
23345	-0.0004	-0.00014	-4e-05	-3e-05	-0.0002	-1e-05	-2e-05	-0.00116	6
23346	-0.0004	-0.00014	-4e-05	-3e-05	-0.0002	-1e-05	-2e-05	-0.00116	6
23347	-0.0004	-0.00014	-4e-05	-3e-05	-0.0002	-1e-05	-2e-05	-0.00116	6
23348	-0.0004	-0.00014	-4e-05	-3e-05	-0.0002	-1e-05	-2e-05	-0.00116	6
23349	-0.0004	-0.00014	-4e-05	-3e-05	-0.0002	-1e-05	-2e-05	-0.00116	6
23350	-0.0004	-0.00014	-4e-05	-3e-05	-0.0002	-1e-05	-2e-05	-0.00116	6
23351	-0.0004	-0.00014	-4e-05	-3e-05	-0.0002	-1e-05	-2e-05	-0.00116	6
23352	-0.0004	-0.00014	-4e-05	-3e-05	-0.0002	-1e-05	-2e-05	-0.00116	6
23353	-0.0004	-0.00014	-4e-05	-3e-05	-0.0002	-1e-05	-2e-05	-0.00116	6
23354	-0.0004	-0.00014	-4e-05	-3e-05	-0.0002	-1e-05	-2e-05	-0.00116	6
23355	-0.0004	-0.00014	-4e-05	-3e-05	-0.0002	-1e-05	-2e-05	-0.00116	6
23356	-0.0004	-0.00014	-4e-05	-3e-05	-0.0002	-1e-05	-2e-05	-0.00116	6
23357	-0.0004	-0.00014	-4e-05	-3e-05	-0.0002	-1e-05	-2e-05	-0.00116	6
23358	-0.0004	-0.00014	-4e-05	-3e-05	-0.0002	-1e-05	-2e-05	-0.00116	6
23359	-0.0004	-0.00014	-4e-05	-3e-05	-0.0002	-1e-05	-2e-05	-0.00116	6
23360	-0.0004	-0.00014	-4e-05	-3e-05	-0.0002	-1e-05	-2e-05	-0.00116	6
23361	-0.0004	-0.00014	-4e-05	-3e-05	-0.0002	-1e-05	-2e-05	-0.00116	6
23362	-0.0004	-0.00014	-4e-05	-3e-05	-0.0002	-1e-05	-2e-05	-0.00116	6
23363	-0.0004	-0.00014	-4e-05	-3e-05	-0.0002	-1e-05	-2e-05	-0.00116	6
23364	0.00018	-0.00018	-0.00015	-0.00018	-4e-05	0.00038	0.00015	-0.00018	6
23365	0.00018	-0.00018	-0.00015	-0.00018	-4e-05	0.00038	0.00015	-0.00018	6
23366	-0.0009	-0.00072	-0.00016	6e-05	-3e-05	-0.00049	0.00024	0.00024	6
23367	-0.0009	-0.00072	-0.00016	6e-05	-3e-05	-0.00049	0.00024	0.00024	6
23368	-0.0009	-0.00072	-0.00016	6e-05	-3e-05	-0.00049	0.00024	0.00024	6
23369	-0.0009	-0.00072	-0.00016	6e-05	-3e-05	-0.00049	0.00024	0.00024	6
23370	-0.0009	-0.00072	-0.00016	6e-05	-3e-05	-0.00049	0.00024	0.00024	6
23371	-0.0009	-0.00072	-0.00016	6e-05	-3e-05	-0.00049	0.00024	0.00024	6
23372	-0.0009	-0.00072	-0.00016	6e-05	-3e-05	-0.00049	0.00024	0.00024	6
23373	-0.0009	-0.00072	-0.00016	6e-05	-3e-05	-0.00049	0.00024	0.00024	6
23374	-0.0009	-0.00072	-0.00016	6e-05	-3e-05	-0.00049	0.00024	0.00024	6
23375	-0.0009	-0.00072	-0.00016	6e-05	-3e-05	-0.00049	0.00024	0.00024	6
23376	-0.0009	-0.00072	-0.00016	6e-05	-3e-05	-0.00049	0.00024	0.00024	6
23377	-0.0009	-0.00072	-0.00016	6e-05	-3e-05	-0.00049	0.00024	0.00024	6
23378	-0.0009	-0.00072	-0.00016	6e-05	-3e-05	-0.00049	0.00024	0.00024	6
23379	5e-05	0.0004	0	-4e-05	0.00026	-2e-05	-0.00091	-0.0002	6
23380	5e-05	0.0004	0	-4e-05	0.00026	-2e-05	-0.00091	-0.0002	6
23381	5e-05	0.0004	0	-4e-05	0.00026	-2e-05	-0.00091	-0.0002	6
23382	5e-05	0.0004	0	-4e-05	0.00026	-2e-05	-0.00091	-0.0002	6
23383	5e-05	0.0004	0	-4e-05	0.00026	-2e-05	-0.00091	-0.0002	6
23384	5e-05	0.0004	0	-4e-05	0.00026	-2e-05	-0.00091	-0.0002	6
23385	2e-05	0.00039	0	-8e-05	-0.00023	3e-05	-0.00051	-0.00029	6
23386	2e-05	0.00039	0	-8e-05	-0.00023	3e-05	-0.00051	-0.00029	6
23388	2e-05	0.00039	0	-8e-05	-0.00023	3e-05	-0.00051	-0.00029	6
23389	2e-05	0.00039	0	-8e-05	-0.00023	3e-05	-0.00051	-0.00029	6
23390	2e-05	0.00039	0	-8e-05	-0.00023	3e-05	-0.00051	-0.00029	6
23391	2e-05	0.00039	0	-8e-05	-0.00023	3e-05	-0.00051	-0.00029	6
23392	2e-05	0.00039	0	-8e-05	-0.00023	3e-05	-0.00051	-0.00029	6
23393	2e-05	0.00039	0	-8e-05	-0.00023	3e-05	-0.00051	-0.00029	6
23394	2e-05	0.00039	0	-8e-05	-0.00023	3e-05	-0.00051	-0.00029	6
23395	2e-05	0.00039	0	-8e-05	-0.00023	3e-05	-0.00051	-0.00029	6
23396	2e-05	0.00039	0	-8e-05	-0.00023	3e-05	-0.00051	-0.00029	6
23397	2e-05	0.00039	0	-8e-05	-0.00023	3e-05	-0.00051	-0.00029	6
23398	2e-05	0.00039	0	-8e-05	-0.00023	3e-05	-0.00051	-0.00029	6
23399	2e-05	0.00039	0	-8e-05	-0.00023	3e-05	-0.00051	-0.00029	6
23400	2e-05	0.00039	0	-8e-05	-0.00023	3e-05	-0.00051	-0.00029	6
23401	2e-05	0.00039	0	-8e-05	-0.00023	3e-05	-0.00051	-0.00029	6
23402	2e-05	0.00039	0	-8e-05	-0.00023	3e-05	-0.00051	-0.00029	6
23403	-0.00096	2e-05	-2e-05	-1e-05	9e-05	-0.0001	6e-05	0.00069	6
23404	0.00018	0.00013	4e-05	5e-05	-9e-05	2e-05	0.00025	-0.00038	6
23405	0.00018	0.00013	4e-05	5e-05	-9e-05	2e-05	0.00025	-0.00038	6
23406	0.00018	0.00013	4e-05	5e-05	-9e-05	2e-05	0.00025	-0.00038	6
23407	0.00018	0.00013	4e-05	5e-05	-9e-05	2e-05	0.00025	-0.00038	6
23408	0.00018	0.00013	4e-05	5e-05	-9e-05	2e-05	0.00025	-0.00038	6
23409	0.00018	0.00013	4e-05	5e-05	-9e-05	2e-05	0.00025	-0.00038	6
23410	0.00018	0.00013	4e-05	5e-05	-9e-05	2e-05	0.00025	-0.00038	6
23411	0.00018	0.00013	4e-05	5e-05	-9e-05	2e-05	0.00025	-0.00038	6
23412	0.00018	0.00013	4e-05	5e-05	-9e-05	2e-05	0.00025	-0.00038	6
23413	0.00018	0.00013	4e-05	5e-05	-9e-05	2e-05	0.00025	-0.00038	6
23414	0.00018	0.00013	4e-05	5e-05	-9e-05	2e-05	0.00025	-0.00038	6
23415	0.00018	0.00013	4e-05	5e-05	-9e-05	2e-05	0.00025	-0.00038	6
23416	0.00018	0.00013	4e-05	5e-05	-9e-05	2e-05	0.00025	-0.00038	6
23417	0.00018	0.00013	4e-05	5e-05	-9e-05	2e-05	0.00025	-0.00038	6
23418	0.00018	0.00013	4e-05	5e-05	-9e-05	2e-05	0.00025	-0.00038	6
23419	0.00018	0.00013	4e-05	5e-05	-9e-05	2e-05	0.00025	-0.00038	6
23420	0.00018	0.00013	4e-05	5e-05	-9e-05	2e-05	0.00025	-0.00038	6
23421	0.00018	0.00013	4e-05	5e-05	-9e-05	2e-05	0.00025	-0.00038	6
23422	0.00018	0.00013	4e-05	5e-05	-9e-05	2e-05	0.00025	-0.00038	6
23423	0.00018	0.00013	4e-05	5e-05	-9e-05	2e-05	0.00025	-0.00038	6
23424	0.00116	-1e-05	4e-05	1e-05	0.0001	-0.00014	0.0001	-0.00045	6
23425	0.00116	-1e-05	4e-05	1e-05	0.0001	-0.00014	0.0001	-0.00045	6
23426	-0.00018	-8e-05	-9e-05	-8e-05	-0.00022	5e-05	0.00021	0.00021	6
23427	-0.00018	-8e-05	-9e-05	-8e-05	-0.00022	5e-05	0.00021	0.00021	6
23428	-0.00018	-8e-05	-9e-05	-8e-05	-0.00022	5e-05	0.00021	0.00021	6
23429	-0.00018	-8e-05	-9e-05	-8e-05	-0.00022	5e-05	0.00021	0.00021	6
23430	-0.00018	-8e-05	-9e-05	-8e-05	-0.00022	5e-05	0.00021	0.00021	6
23431	-0.00018	-8e-05	-9e-05	-8e-05	-0.00022	5e-05	0.00021	0.00021	6
23432	-0.00018	-8e-05	-9e-05	-8e-05	-0.00022	5e-05	0.00021	0.00021	6
23433	-0.00018	-8e-05	-9e-05	-8e-05	-0.00022	5e-05	0.00021	0.00021	6
23434	-0.00018	-8e-05	-9e-05	-8e-05	-0.00022	5e-05	0.00021	0.00021	6
23435	-0.00018	-8e-05	-9e-05	-8e-05	-0.00022	5e-05	0.00021	0.00021	6
23437	-0.00018	-8e-05	-9e-05	-8e-05	-0.00022	5e-05	0.00021	0.00021	6
23440	-0.00011	-0.00023	4e-05	0.00011	0.00061	-0.0008	0.00016	-0.00013	6
23441	-0.00011	-0.00023	4e-05	0.00011	0.00061	-0.0008	0.00016	-0.00013	6
23442	-0.00011	-0.00023	4e-05	0.00011	0.00061	-0.0008	0.00016	-0.00013	6
23443	-0.00011	-0.00023	4e-05	0.00011	0.00061	-0.0008	0.00016	-0.00013	6
23444	-0.00011	-0.00023	4e-05	0.00011	0.00061	-0.0008	0.00016	-0.00013	6
23445	0.00098	0.0006	5e-05	-7e-05	0.00017	0.00033	-0.00061	-0.00037	6
23446	0.00034	-0.00011	-1e-05	0.00012	9e-05	-0.0004	-0.00026	-0.00051	6
23447	0.00034	-0.00011	-1e-05	0.00012	9e-05	-0.0004	-0.00026	-0.00051	6
23448	0.00034	-0.00011	-1e-05	0.00012	9e-05	-0.0004	-0.00026	-0.00051	6
23449	0.00034	-0.00011	-1e-05	0.00012	9e-05	-0.0004	-0.00026	-0.00051	6
23450	0.00034	-0.00011	-1e-05	0.00012	9e-05	-0.0004	-0.00026	-0.00051	6
23451	0.00034	-0.00011	-1e-05	0.00012	9e-05	-0.0004	-0.00026	-0.00051	6
23452	0.00034	-0.00011	-1e-05	0.00012	9e-05	-0.0004	-0.00026	-0.00051	6
23453	0.00034	-0.00011	-1e-05	0.00012	9e-05	-0.0004	-0.00026	-0.00051	6
23454	0.00034	-0.00011	-1e-05	0.00012	9e-05	-0.0004	-0.00026	-0.00051	6
23455	0.00034	-0.00011	-1e-05	0.00012	9e-05	-0.0004	-0.00026	-0.00051	6
23456	0.00034	-0.00011	-1e-05	0.00012	9e-05	-0.0004	-0.00026	-0.00051	6
23457	0.00034	-0.00011	-1e-05	0.00012	9e-05	-0.0004	-0.00026	-0.00051	6
23458	0.00034	-0.00011	-1e-05	0.00012	9e-05	-0.0004	-0.00026	-0.00051	6
23459	0.00034	-0.00011	-1e-05	0.00012	9e-05	-0.0004	-0.00026	-0.00051	6
23460	0.00034	-0.00011	-1e-05	0.00012	9e-05	-0.0004	-0.00026	-0.00051	6
23461	0.00034	-0.00011	-1e-05	0.00012	9e-05	-0.0004	-0.00026	-0.00051	6
23462	-1e-05	0	-6e-05	-2e-05	-0.00071	0	-0.00074	-0.0004	6
23463	-0.00093	-0.00044	0	-0.00012	0.00026	-0.00011	-0.00061	-9e-05	6
23464	-0.00093	-0.00044	0	-0.00012	0.00026	-0.00011	-0.00061	-9e-05	6
23465	-0.00093	-0.00044	0	-0.00012	0.00026	-0.00011	-0.00061	-9e-05	6
23466	-0.00093	-0.00044	0	-0.00012	0.00026	-0.00011	-0.00061	-9e-05	6
23467	-0.00093	-0.00044	0	-0.00012	0.00026	-0.00011	-0.00061	-9e-05	6
23468	-0.00093	-0.00044	0	-0.00012	0.00026	-0.00011	-0.00061	-9e-05	6
23469	-0.00093	-0.00044	0	-0.00012	0.00026	-0.00011	-0.00061	-9e-05	6
23470	-0.00093	-0.00044	0	-0.00012	0.00026	-0.00011	-0.00061	-9e-05	6
23471	-0.00093	-0.00044	0	-0.00012	0.00026	-0.00011	-0.00061	-9e-05	6
23472	-0.00093	-0.00044	0	-0.00012	0.00026	-0.00011	-0.00061	-9e-05	6
23473	-0.00093	-0.00044	0	-0.00012	0.00026	-0.00011	-0.00061	-9e-05	6
23474	-0.00093	-0.00044	0	-0.00012	0.00026	-0.00011	-0.00061	-9e-05	6
23475	-0.00093	-0.00044	0	-0.00012	0.00026	-0.00011	-0.00061	-9e-05	6
23476	-0.00093	-0.00044	0	-0.00012	0.00026	-0.00011	-0.00061	-9e-05	6
23477	-0.00093	-0.00044	0	-0.00012	0.00026	-0.00011	-0.00061	-9e-05	6
23478	-0.00093	-0.00044	0	-0.00012	0.00026	-0.00011	-0.00061	-9e-05	6
23479	-0.00093	-0.00044	0	-0.00012	0.00026	-0.00011	-0.00061	-9e-05	6
23480	-0.00093	-0.00044	0	-0.00012	0.00026	-0.00011	-0.00061	-9e-05	6
23481	-0.00093	-0.00044	0	-0.00012	0.00026	-0.00011	-0.00061	-9e-05	6
23482	-0.00093	-0.00044	0	-0.00012	0.00026	-0.00011	-0.00061	-9e-05	6
23483	-0.00093	-0.00044	0	-0.00012	0.00026	-0.00011	-0.00061	-9e-05	6
23484	0.00032	8e-05	2e-05	-8e-05	-0.0003	0.00024	0.00028	0.00049	6
23485	0.00032	8e-05	2e-05	-8e-05	-0.0003	0.00024	0.00028	0.00049	6
23486	-9e-05	0.00052	0	-2e-05	-0.00018	-0.00093	-0.00069	0.00031	6
23488	-9e-05	0.00052	0	-2e-05	-0.00018	-0.00093	-0.00069	0.00031	6
23489	-9e-05	0.00052	0	-2e-05	-0.00018	-0.00093	-0.00069	0.00031	6
23490	-9e-05	0.00052	0	-2e-05	-0.00018	-0.00093	-0.00069	0.00031	6
23491	-9e-05	0.00052	0	-2e-05	-0.00018	-0.00093	-0.00069	0.00031	6
23492	-9e-05	0.00052	0	-2e-05	-0.00018	-0.00093	-0.00069	0.00031	6
23493	-9e-05	0.00052	0	-2e-05	-0.00018	-0.00093	-0.00069	0.00031	6
23494	-9e-05	0.00052	0	-2e-05	-0.00018	-0.00093	-0.00069	0.00031	6
23495	-9e-05	0.00052	0	-2e-05	-0.00018	-0.00093	-0.00069	0.00031	6
23496	-9e-05	0.00052	0	-2e-05	-0.00018	-0.00093	-0.00069	0.00031	6
23497	-9e-05	0.00052	0	-2e-05	-0.00018	-0.00093	-0.00069	0.00031	6
23498	-9e-05	0.00052	0	-2e-05	-0.00018	-0.00093	-0.00069	0.00031	6
23499	-9e-05	-0.00039	-1e-05	1e-05	-0.00035	-0.00062	6e-05	0.00056	6
23500	-9e-05	-0.00039	-1e-05	1e-05	-0.00035	-0.00062	6e-05	0.00056	6
23501	-9e-05	-0.00039	-1e-05	1e-05	-0.00035	-0.00062	6e-05	0.00056	6
23502	-9e-05	-0.00039	-1e-05	1e-05	-0.00035	-0.00062	6e-05	0.00056	6
23503	-9e-05	-0.00039	-1e-05	1e-05	-0.00035	-0.00062	6e-05	0.00056	6
23504	-9e-05	-0.00039	-1e-05	1e-05	-0.00035	-0.00062	6e-05	0.00056	6
23505	-1e-05	0.00059	0.00017	0.00016	0.00047	0.0003	0.00051	4e-05	6
23506	-1e-05	0.00059	0.00017	0.00016	0.00047	0.0003	0.00051	4e-05	6
23507	-1e-05	0.00059	0.00017	0.00016	0.00047	0.0003	0.00051	4e-05	6
23508	-1e-05	0.00059	0.00017	0.00016	0.00047	0.0003	0.00051	4e-05	6
23509	-1e-05	0.00059	0.00017	0.00016	0.00047	0.0003	0.00051	4e-05	6
23510	-1e-05	0.00059	0.00017	0.00016	0.00047	0.0003	0.00051	4e-05	6
23511	-1e-05	0.00059	0.00017	0.00016	0.00047	0.0003	0.00051	4e-05	6
23512	-1e-05	0.00059	0.00017	0.00016	0.00047	0.0003	0.00051	4e-05	6
23513	-1e-05	0.00059	0.00017	0.00016	0.00047	0.0003	0.00051	4e-05	6
23514	-1e-05	0.00059	0.00017	0.00016	0.00047	0.0003	0.00051	4e-05	6
23515	-1e-05	0.00059	0.00017	0.00016	0.00047	0.0003	0.00051	4e-05	6
23516	-1e-05	0.00059	0.00017	0.00016	0.00047	0.0003	0.00051	4e-05	6
23517	-1e-05	0.00059	0.00017	0.00016	0.00047	0.0003	0.00051	4e-05	6
23518	-1e-05	0.00059	0.00017	0.00016	0.00047	0.0003	0.00051	4e-05	6
23519	-1e-05	0.00059	0.00017	0.00016	0.00047	0.0003	0.00051	4e-05	6
23520	-1e-05	0.00059	0.00017	0.00016	0.00047	0.0003	0.00051	4e-05	6
23521	-1e-05	0.00059	0.00017	0.00016	0.00047	0.0003	0.00051	4e-05	6
23522	0.00038	0.00052	0	-4e-05	0.00012	-0.00062	0.00035	-0.00043	6
23523	0.00013	0.0006	3e-05	-4e-05	-0.0006	-0.00058	0.00049	0.0001	6
23524	0.00013	0.0006	3e-05	-4e-05	-0.0006	-0.00058	0.00049	0.0001	6
23525	0.00013	0.0006	3e-05	-4e-05	-0.0006	-0.00058	0.00049	0.0001	6
23526	0.00013	0.0006	3e-05	-4e-05	-0.0006	-0.00058	0.00049	0.0001	6
23527	0.00013	0.0006	3e-05	-4e-05	-0.0006	-0.00058	0.00049	0.0001	6
23528	0.00013	0.0006	3e-05	-4e-05	-0.0006	-0.00058	0.00049	0.0001	6
23529	0.00013	0.0006	3e-05	-4e-05	-0.0006	-0.00058	0.00049	0.0001	6
23530	0.00013	0.0006	3e-05	-4e-05	-0.0006	-0.00058	0.00049	0.0001	6
23531	0.00013	0.0006	3e-05	-4e-05	-0.0006	-0.00058	0.00049	0.0001	6
23532	0.00013	0.0006	3e-05	-4e-05	-0.0006	-0.00058	0.00049	0.0001	6
23533	0.00013	0.0006	3e-05	-4e-05	-0.0006	-0.00058	0.00049	0.0001	6
23534	0.00013	0.0006	3e-05	-4e-05	-0.0006	-0.00058	0.00049	0.0001	6
23535	0.00013	0.0006	3e-05	-4e-05	-0.0006	-0.00058	0.00049	0.0001	6
23536	0.00013	0.0006	3e-05	-4e-05	-0.0006	-0.00058	0.00049	0.0001	6
23538	0.00013	0.0006	3e-05	-4e-05	-0.0006	-0.00058	0.00049	0.0001	6
23539	0.00013	0.0006	3e-05	-4e-05	-0.0006	-0.00058	0.00049	0.0001	6
23540	0.00013	0.0006	3e-05	-4e-05	-0.0006	-0.00058	0.00049	0.0001	6
23541	0.00013	0.0006	3e-05	-4e-05	-0.0006	-0.00058	0.00049	0.0001	6
23542	0.00013	0.0006	3e-05	-4e-05	-0.0006	-0.00058	0.00049	0.0001	6
23543	0.00013	0.0006	3e-05	-4e-05	-0.0006	-0.00058	0.00049	0.0001	6
23544	-1e-05	-8e-05	2e-05	4e-05	-5e-05	0.00063	-0.00034	-0.00018	6
23545	-1e-05	-8e-05	2e-05	4e-05	-5e-05	0.00063	-0.00034	-0.00018	6
23546	-6e-05	-6e-05	-4e-05	-0.00013	0.00011	-2e-05	-0.00014	0.00033	6
23547	-6e-05	-6e-05	-4e-05	-0.00013	0.00011	-2e-05	-0.00014	0.00033	6
23548	-6e-05	-6e-05	-4e-05	-0.00013	0.00011	-2e-05	-0.00014	0.00033	6
23549	-6e-05	-6e-05	-4e-05	-0.00013	0.00011	-2e-05	-0.00014	0.00033	6
23550	-6e-05	-6e-05	-4e-05	-0.00013	0.00011	-2e-05	-0.00014	0.00033	6
23551	-6e-05	-6e-05	-4e-05	-0.00013	0.00011	-2e-05	-0.00014	0.00033	6
23552	-6e-05	-6e-05	-4e-05	-0.00013	0.00011	-2e-05	-0.00014	0.00033	6
23553	-6e-05	-6e-05	-4e-05	-0.00013	0.00011	-2e-05	-0.00014	0.00033	6
23554	-6e-05	-6e-05	-4e-05	-0.00013	0.00011	-2e-05	-0.00014	0.00033	6
23555	-6e-05	-6e-05	-4e-05	-0.00013	0.00011	-2e-05	-0.00014	0.00033	6
23556	-6e-05	-6e-05	-4e-05	-0.00013	0.00011	-2e-05	-0.00014	0.00033	6
23557	-6e-05	-6e-05	-4e-05	-0.00013	0.00011	-2e-05	-0.00014	0.00033	6
23558	-0.00059	-0.00029	0	8e-05	0.00045	2e-05	-0.00058	-0.00091	6
23559	-0.00059	-0.00029	0	8e-05	0.00045	2e-05	-0.00058	-0.00091	6
23560	-0.00059	-0.00029	0	8e-05	0.00045	2e-05	-0.00058	-0.00091	6
23561	-0.00059	-0.00029	0	8e-05	0.00045	2e-05	-0.00058	-0.00091	6
23562	-0.00059	-0.00029	0	8e-05	0.00045	2e-05	-0.00058	-0.00091	6
23563	-0.00059	-0.00029	0	8e-05	0.00045	2e-05	-0.00058	-0.00091	6
23564	-0.00059	-0.00029	0	8e-05	0.00045	2e-05	-0.00058	-0.00091	6
23565	-0.00059	-0.00029	0	8e-05	0.00045	2e-05	-0.00058	-0.00091	6
23566	-0.00059	-0.00029	0	8e-05	0.00045	2e-05	-0.00058	-0.00091	6
23567	-0.00059	-0.00029	0	8e-05	0.00045	2e-05	-0.00058	-0.00091	6
23568	-0.00059	-0.00029	0	8e-05	0.00045	2e-05	-0.00058	-0.00091	6
23569	-0.00059	-0.00029	0	8e-05	0.00045	2e-05	-0.00058	-0.00091	6
23570	-0.00059	-0.00029	0	8e-05	0.00045	2e-05	-0.00058	-0.00091	6
23571	-0.00059	-0.00029	0	8e-05	0.00045	2e-05	-0.00058	-0.00091	6
23572	-0.00059	-0.00029	0	8e-05	0.00045	2e-05	-0.00058	-0.00091	6
23573	-4e-05	1e-05	8e-05	6e-05	0.0001	-0.0004	1e-05	0.00078	6
23574	-4e-05	1e-05	8e-05	6e-05	0.0001	-0.0004	1e-05	0.00078	6
23575	-4e-05	1e-05	8e-05	6e-05	0.0001	-0.0004	1e-05	0.00078	6
23576	-4e-05	1e-05	8e-05	6e-05	0.0001	-0.0004	1e-05	0.00078	6
23577	-4e-05	1e-05	8e-05	6e-05	0.0001	-0.0004	1e-05	0.00078	6
23578	-4e-05	1e-05	8e-05	6e-05	0.0001	-0.0004	1e-05	0.00078	6
23579	-4e-05	1e-05	8e-05	6e-05	0.0001	-0.0004	1e-05	0.00078	6
23580	-4e-05	1e-05	8e-05	6e-05	0.0001	-0.0004	1e-05	0.00078	6
23581	-4e-05	1e-05	8e-05	6e-05	0.0001	-0.0004	1e-05	0.00078	6
23582	0.00036	0.00026	-2e-05	-1e-05	0.00014	-0.00034	0.00088	-0.00054	6
23583	-0.00028	-0.0004	-5e-05	-5e-05	6e-05	0.0006	0.00061	0.00043	6
23584	-0.00028	-0.0004	-5e-05	-5e-05	6e-05	0.0006	0.00061	0.00043	6
23585	-0.00028	-0.0004	-5e-05	-5e-05	6e-05	0.0006	0.00061	0.00043	6
23586	-0.00028	-0.0004	-5e-05	-5e-05	6e-05	0.0006	0.00061	0.00043	6
23588	-0.00028	-0.0004	-5e-05	-5e-05	6e-05	0.0006	0.00061	0.00043	6
23589	-0.00028	-0.0004	-5e-05	-5e-05	6e-05	0.0006	0.00061	0.00043	6
23590	-0.00028	-0.0004	-5e-05	-5e-05	6e-05	0.0006	0.00061	0.00043	6
23591	-0.00028	-0.0004	-5e-05	-5e-05	6e-05	0.0006	0.00061	0.00043	6
23592	-0.00028	-0.0004	-5e-05	-5e-05	6e-05	0.0006	0.00061	0.00043	6
23593	-0.00028	-0.0004	-5e-05	-5e-05	6e-05	0.0006	0.00061	0.00043	6
23594	-0.00028	-0.0004	-5e-05	-5e-05	6e-05	0.0006	0.00061	0.00043	6
23595	-0.00028	-0.0004	-5e-05	-5e-05	6e-05	0.0006	0.00061	0.00043	6
23596	-0.00028	-0.0004	-5e-05	-5e-05	6e-05	0.0006	0.00061	0.00043	6
23597	-0.00028	-0.0004	-5e-05	-5e-05	6e-05	0.0006	0.00061	0.00043	6
23598	-0.00028	-0.0004	-5e-05	-5e-05	6e-05	0.0006	0.00061	0.00043	6
23599	-0.00028	-0.0004	-5e-05	-5e-05	6e-05	0.0006	0.00061	0.00043	6
23600	-0.00028	-0.0004	-5e-05	-5e-05	6e-05	0.0006	0.00061	0.00043	6
23601	-0.00028	-0.0004	-5e-05	-5e-05	6e-05	0.0006	0.00061	0.00043	6
23602	-0.00028	-0.0004	-5e-05	-5e-05	6e-05	0.0006	0.00061	0.00043	6
23603	-0.00028	-0.0004	-5e-05	-5e-05	6e-05	0.0006	0.00061	0.00043	6
23604	-0.00028	-0.0004	-5e-05	-5e-05	6e-05	0.0006	0.00061	0.00043	6
23605	-0.00028	-0.0004	-5e-05	-5e-05	6e-05	0.0006	0.00061	0.00043	6
23606	-0.00028	-0.0004	-5e-05	-5e-05	6e-05	0.0006	0.00061	0.00043	6
23607	-0.00028	-0.0004	-5e-05	-5e-05	6e-05	0.0006	0.00061	0.00043	6
23608	-0.00028	-0.0004	-5e-05	-5e-05	6e-05	0.0006	0.00061	0.00043	6
23609	-0.00028	-0.0004	-5e-05	-5e-05	6e-05	0.0006	0.00061	0.00043	6
23610	-0.00028	-0.0004	-5e-05	-5e-05	6e-05	0.0006	0.00061	0.00043	6
23611	-0.00028	-0.0004	-5e-05	-5e-05	6e-05	0.0006	0.00061	0.00043	6
23612	-0.00069	-0.00073	-0.00012	-8e-05	-0.0007	9e-05	-0.00036	-0.00072	6
23613	0.00038	0.00013	-0.00011	-0.00019	-1e-05	-0.00049	0.00023	-0.00065	6
23614	0.00038	0.00013	-0.00011	-0.00019	-1e-05	-0.00049	0.00023	-0.00065	6
23615	0.00038	0.00013	-0.00011	-0.00019	-1e-05	-0.00049	0.00023	-0.00065	6
23616	0.00038	0.00013	-0.00011	-0.00019	-1e-05	-0.00049	0.00023	-0.00065	6
23617	0.00038	0.00013	-0.00011	-0.00019	-1e-05	-0.00049	0.00023	-0.00065	6
23618	-0.00082	0	0	8e-05	0.00023	0.00108	-1e-05	0.00064	6
23619	-0.00082	0	0	8e-05	0.00023	0.00108	-1e-05	0.00064	6
23620	-0.00082	0	0	8e-05	0.00023	0.00108	-1e-05	0.00064	6
23621	-0.00082	0	0	8e-05	0.00023	0.00108	-1e-05	0.00064	6
23622	-0.00082	0	0	8e-05	0.00023	0.00108	-1e-05	0.00064	6
23623	-0.00082	0	0	8e-05	0.00023	0.00108	-1e-05	0.00064	6
23624	-0.00082	0	0	8e-05	0.00023	0.00108	-1e-05	0.00064	6
23625	-0.00082	0	0	8e-05	0.00023	0.00108	-1e-05	0.00064	6
23626	-0.00082	0	0	8e-05	0.00023	0.00108	-1e-05	0.00064	6
23627	0.00062	0.0001	0	3e-05	0.00011	0.00075	-0.00019	0.00022	6
23628	0.00062	0.0001	0	3e-05	0.00011	0.00075	-0.00019	0.00022	6
23629	0.00062	0.0001	0	3e-05	0.00011	0.00075	-0.00019	0.00022	6
23630	0.00062	0.0001	0	3e-05	0.00011	0.00075	-0.00019	0.00022	6
23631	0.00062	0.0001	0	3e-05	0.00011	0.00075	-0.00019	0.00022	6
23632	0.00062	0.0001	0	3e-05	0.00011	0.00075	-0.00019	0.00022	6
23633	0.00062	0.0001	0	3e-05	0.00011	0.00075	-0.00019	0.00022	6
23634	0.00062	0.0001	0	3e-05	0.00011	0.00075	-0.00019	0.00022	6
23635	0.00062	0.0001	0	3e-05	0.00011	0.00075	-0.00019	0.00022	6
23636	0.00062	0.0001	0	3e-05	0.00011	0.00075	-0.00019	0.00022	6
23638	0.00062	0.0001	0	3e-05	0.00011	0.00075	-0.00019	0.00022	6
23640	0.00062	0.0001	0	3e-05	0.00011	0.00075	-0.00019	0.00022	6
23641	0.00062	0.0001	0	3e-05	0.00011	0.00075	-0.00019	0.00022	6
23642	-0.00019	0.00022	-4e-05	-0.00014	9e-05	0.00054	0.00081	-0.00095	6
23643	0.00016	0.00023	-2e-05	0	0.00011	2e-05	-4e-05	-9e-05	6
23644	0.00016	0.00023	-2e-05	0	0.00011	2e-05	-4e-05	-9e-05	6
23645	0.00016	0.00023	-2e-05	0	0.00011	2e-05	-4e-05	-9e-05	6
23646	0.00016	0.00023	-2e-05	0	0.00011	2e-05	-4e-05	-9e-05	6
23647	0.00016	0.00023	-2e-05	0	0.00011	2e-05	-4e-05	-9e-05	6
23648	0.00016	0.00023	-2e-05	0	0.00011	2e-05	-4e-05	-9e-05	6
23649	0.00016	0.00023	-2e-05	0	0.00011	2e-05	-4e-05	-9e-05	6
23650	0.00016	0.00023	-2e-05	0	0.00011	2e-05	-4e-05	-9e-05	6
23651	0.00016	0.00023	-2e-05	0	0.00011	2e-05	-4e-05	-9e-05	6
23652	0.00016	0.00023	-2e-05	0	0.00011	2e-05	-4e-05	-9e-05	6
23653	0.00016	0.00023	-2e-05	0	0.00011	2e-05	-4e-05	-9e-05	6
23654	0.00016	0.00023	-2e-05	0	0.00011	2e-05	-4e-05	-9e-05	6
23655	0.00016	0.00023	-2e-05	0	0.00011	2e-05	-4e-05	-9e-05	6
23656	0.00016	0.00023	-2e-05	0	0.00011	2e-05	-4e-05	-9e-05	6
23657	0.00016	0.00023	-2e-05	0	0.00011	2e-05	-4e-05	-9e-05	6
23658	0.00016	0.00023	-2e-05	0	0.00011	2e-05	-4e-05	-9e-05	6
23659	0.00016	0.00023	-2e-05	0	0.00011	2e-05	-4e-05	-9e-05	6
23660	0.00016	0.00023	-2e-05	0	0.00011	2e-05	-4e-05	-9e-05	6
23661	0.00016	0.00023	-2e-05	0	0.00011	2e-05	-4e-05	-9e-05	6
23662	0.00016	0.00023	-2e-05	0	0.00011	2e-05	-4e-05	-9e-05	6
23663	0.00016	0.00023	-2e-05	0	0.00011	2e-05	-4e-05	-9e-05	6
23664	0.00127	-1e-05	0	-1e-05	0.00029	0.00014	-0.00092	1e-05	6
23665	0.00127	-1e-05	0	-1e-05	0.00029	0.00014	-0.00092	1e-05	6
23666	0.00031	5e-05	0	-2e-05	-0.0009	-0.00039	-0.00032	0.00031	6
23667	0.00031	5e-05	0	-2e-05	-0.0009	-0.00039	-0.00032	0.00031	6
23668	0.00031	5e-05	0	-2e-05	-0.0009	-0.00039	-0.00032	0.00031	6
23669	0.00031	5e-05	0	-2e-05	-0.0009	-0.00039	-0.00032	0.00031	6
23670	0.00031	5e-05	0	-2e-05	-0.0009	-0.00039	-0.00032	0.00031	6
23671	0.00031	5e-05	0	-2e-05	-0.0009	-0.00039	-0.00032	0.00031	6
23672	0.00031	5e-05	0	-2e-05	-0.0009	-0.00039	-0.00032	0.00031	6
23673	0.00031	5e-05	0	-2e-05	-0.0009	-0.00039	-0.00032	0.00031	6
23674	0.00031	5e-05	0	-2e-05	-0.0009	-0.00039	-0.00032	0.00031	6
23675	0.00031	5e-05	0	-2e-05	-0.0009	-0.00039	-0.00032	0.00031	6
23676	0.00031	5e-05	0	-2e-05	-0.0009	-0.00039	-0.00032	0.00031	6
23677	0.00031	5e-05	0	-2e-05	-0.0009	-0.00039	-0.00032	0.00031	6
23678	0.0002	-8e-05	2e-05	5e-05	0	-0.00113	-0.00015	0.00037	6
23679	0.0002	-8e-05	2e-05	5e-05	0	-0.00113	-0.00015	0.00037	6
23680	0.0002	-8e-05	2e-05	5e-05	0	-0.00113	-0.00015	0.00037	6
23681	0.0002	-8e-05	2e-05	5e-05	0	-0.00113	-0.00015	0.00037	6
23682	0.0002	-8e-05	2e-05	5e-05	0	-0.00113	-0.00015	0.00037	6
23683	0.0002	-8e-05	2e-05	5e-05	0	-0.00113	-0.00015	0.00037	6
23684	0.0002	-8e-05	2e-05	5e-05	0	-0.00113	-0.00015	0.00037	6
23685	0.0002	-8e-05	2e-05	5e-05	0	-0.00113	-0.00015	0.00037	6
23687	0.0002	-8e-05	2e-05	5e-05	0	-0.00113	-0.00015	0.00037	6
23689	0.0002	-8e-05	2e-05	5e-05	0	-0.00113	-0.00015	0.00037	6
23690	0.0002	-8e-05	2e-05	5e-05	0	-0.00113	-0.00015	0.00037	6
23691	0.0002	-8e-05	2e-05	5e-05	0	-0.00113	-0.00015	0.00037	6
23692	0.0002	-8e-05	2e-05	5e-05	0	-0.00113	-0.00015	0.00037	6
23693	0.0002	-8e-05	2e-05	5e-05	0	-0.00113	-0.00015	0.00037	6
23694	0.0002	-8e-05	2e-05	5e-05	0	-0.00113	-0.00015	0.00037	6
23695	-0.00074	-0.00099	-0.0001	-4e-05	-0.00013	-0.00039	-0.00039	-8e-05	6
23696	-0.00074	-0.00099	-0.0001	-4e-05	-0.00013	-0.00039	-0.00039	-8e-05	6
23697	-0.00074	-0.00099	-0.0001	-4e-05	-0.00013	-0.00039	-0.00039	-8e-05	6
23698	-0.00074	-0.00099	-0.0001	-4e-05	-0.00013	-0.00039	-0.00039	-8e-05	6
23699	-0.00074	-0.00099	-0.0001	-4e-05	-0.00013	-0.00039	-0.00039	-8e-05	6
23700	-0.00074	-0.00099	-0.0001	-4e-05	-0.00013	-0.00039	-0.00039	-8e-05	6
23701	-0.0004	-0.00034	-1e-05	2e-05	0.0001	0.00067	0.00075	0.0003	6
23702	0.00024	0.00016	0	4e-05	0.00022	0.00063	-0.00031	-0.00018	6
23703	0.00024	0.00016	0	4e-05	0.00022	0.00063	-0.00031	-0.00018	6
23704	0.00024	0.00016	0	4e-05	0.00022	0.00063	-0.00031	-0.00018	6
23705	0.00024	0.00016	0	4e-05	0.00022	0.00063	-0.00031	-0.00018	6
23706	0.00024	0.00016	0	4e-05	0.00022	0.00063	-0.00031	-0.00018	6
23707	0.00024	0.00016	0	4e-05	0.00022	0.00063	-0.00031	-0.00018	6
23708	0.00024	0.00016	0	4e-05	0.00022	0.00063	-0.00031	-0.00018	6
23709	0.00024	0.00016	0	4e-05	0.00022	0.00063	-0.00031	-0.00018	6
23710	0.00024	0.00016	0	4e-05	0.00022	0.00063	-0.00031	-0.00018	6
23711	0.00024	0.00016	0	4e-05	0.00022	0.00063	-0.00031	-0.00018	6
23712	0.00024	0.00016	0	4e-05	0.00022	0.00063	-0.00031	-0.00018	6
23713	0.00024	0.00016	0	4e-05	0.00022	0.00063	-0.00031	-0.00018	6
23714	0.00024	0.00016	0	4e-05	0.00022	0.00063	-0.00031	-0.00018	6
23715	0.00024	0.00016	0	4e-05	0.00022	0.00063	-0.00031	-0.00018	6
23716	0.00024	0.00016	0	4e-05	0.00022	0.00063	-0.00031	-0.00018	6
23717	0.00024	0.00016	0	4e-05	0.00022	0.00063	-0.00031	-0.00018	6
23718	0.00024	0.00016	0	4e-05	0.00022	0.00063	-0.00031	-0.00018	6
23719	0.00024	0.00016	0	4e-05	0.00022	0.00063	-0.00031	-0.00018	6
23720	0.00024	0.00016	0	4e-05	0.00022	0.00063	-0.00031	-0.00018	6
23721	0.00024	0.00016	0	4e-05	0.00022	0.00063	-0.00031	-0.00018	6
23722	0.00024	0.00016	0	4e-05	0.00022	0.00063	-0.00031	-0.00018	6
23723	0.00024	0.00016	0	4e-05	0.00022	0.00063	-0.00031	-0.00018	6
23724	-0.0002	-1e-05	0	1e-05	-0.00024	1e-05	7e-05	2e-05	6
23725	-0.0002	-1e-05	0	1e-05	-0.00024	1e-05	7e-05	2e-05	6
23726	-0.0002	-1e-05	0	1e-05	-0.00024	1e-05	7e-05	2e-05	6
23727	-0.0002	-1e-05	0	1e-05	-0.00024	1e-05	7e-05	2e-05	6
23728	-0.0002	-1e-05	0	1e-05	-0.00024	1e-05	7e-05	2e-05	6
23729	-0.0002	-1e-05	0	1e-05	-0.00024	1e-05	7e-05	2e-05	6
23730	-0.0002	-1e-05	0	1e-05	-0.00024	1e-05	7e-05	2e-05	6
23731	-0.0002	-1e-05	0	1e-05	-0.00024	1e-05	7e-05	2e-05	6
23732	-0.0002	-1e-05	0	1e-05	-0.00024	1e-05	7e-05	2e-05	6
23733	-0.0002	-1e-05	0	1e-05	-0.00024	1e-05	7e-05	2e-05	6
23734	-0.0002	-1e-05	0	1e-05	-0.00024	1e-05	7e-05	2e-05	6
23735	-0.0002	-1e-05	0	1e-05	-0.00024	1e-05	7e-05	2e-05	6
23736	-0.0002	-1e-05	0	1e-05	-0.00024	1e-05	7e-05	2e-05	6
23739	-0.0002	-1e-05	0	1e-05	-0.00024	1e-05	7e-05	2e-05	6
23740	-0.0002	-1e-05	0	1e-05	-0.00024	1e-05	7e-05	2e-05	6
23741	-0.0002	-1e-05	0	1e-05	-0.00024	1e-05	7e-05	2e-05	6
23742	-0.0002	-1e-05	0	1e-05	-0.00024	1e-05	7e-05	2e-05	6
23743	-0.0002	-1e-05	0	1e-05	-0.00024	1e-05	7e-05	2e-05	6
23744	-0.0002	-1e-05	0	1e-05	-0.00024	1e-05	7e-05	2e-05	6
23745	-0.0002	-1e-05	0	1e-05	-0.00024	1e-05	7e-05	2e-05	6
23746	-0.00099	-0.0004	-4e-05	0	-0.00014	0.00076	-0.00103	-0.00077	6
23747	0.00017	0.00023	6e-05	-1e-05	-0.00015	-0.00011	0	-0.00023	6
23748	0.00017	0.00023	6e-05	-1e-05	-0.00015	-0.00011	0	-0.00023	6
23749	0.00017	0.00023	6e-05	-1e-05	-0.00015	-0.00011	0	-0.00023	6
23750	0.00017	0.00023	6e-05	-1e-05	-0.00015	-0.00011	0	-0.00023	6
23751	0.00017	0.00023	6e-05	-1e-05	-0.00015	-0.00011	0	-0.00023	6
23752	0.00017	0.00023	6e-05	-1e-05	-0.00015	-0.00011	0	-0.00023	6
23753	0.00017	0.00023	6e-05	-1e-05	-0.00015	-0.00011	0	-0.00023	6
23754	0.00017	0.00023	6e-05	-1e-05	-0.00015	-0.00011	0	-0.00023	6
23755	0.00017	0.00023	6e-05	-1e-05	-0.00015	-0.00011	0	-0.00023	6
23756	0.00017	0.00023	6e-05	-1e-05	-0.00015	-0.00011	0	-0.00023	6
23757	0.00017	0.00023	6e-05	-1e-05	-0.00015	-0.00011	0	-0.00023	6
23758	0.00017	0.00023	6e-05	-1e-05	-0.00015	-0.00011	0	-0.00023	6
23759	0.00017	0.00023	6e-05	-1e-05	-0.00015	-0.00011	0	-0.00023	6
23760	0.00017	0.00023	6e-05	-1e-05	-0.00015	-0.00011	0	-0.00023	6
23761	0.00057	0.00044	3e-05	2e-05	0.00061	-6e-05	-5e-05	0.0009	6
23762	-0.00041	-0.00061	-6e-05	2e-05	0.00025	0.00023	0.00018	-0.0003	6
23763	-0.00041	-0.00061	-6e-05	2e-05	0.00025	0.00023	0.00018	-0.0003	6
23764	-0.00041	-0.00061	-6e-05	2e-05	0.00025	0.00023	0.00018	-0.0003	6
23765	-0.00041	-0.00061	-6e-05	2e-05	0.00025	0.00023	0.00018	-0.0003	6
23766	-0.00041	-0.00061	-6e-05	2e-05	0.00025	0.00023	0.00018	-0.0003	6
23767	-0.00041	-0.00061	-6e-05	2e-05	0.00025	0.00023	0.00018	-0.0003	6
23768	-0.00041	-0.00061	-6e-05	2e-05	0.00025	0.00023	0.00018	-0.0003	6
23769	-0.00041	-0.00061	-6e-05	2e-05	0.00025	0.00023	0.00018	-0.0003	6
23770	-0.00041	-0.00061	-6e-05	2e-05	0.00025	0.00023	0.00018	-0.0003	6
23771	-0.00041	-0.00061	-6e-05	2e-05	0.00025	0.00023	0.00018	-0.0003	6
23772	-0.00041	-0.00061	-6e-05	2e-05	0.00025	0.00023	0.00018	-0.0003	6
23773	-0.00041	-0.00061	-6e-05	2e-05	0.00025	0.00023	0.00018	-0.0003	6
23774	-0.00041	-0.00061	-6e-05	2e-05	0.00025	0.00023	0.00018	-0.0003	6
23775	-0.00041	-0.00061	-6e-05	2e-05	0.00025	0.00023	0.00018	-0.0003	6
23776	-0.00041	-0.00061	-6e-05	2e-05	0.00025	0.00023	0.00018	-0.0003	6
23777	-0.00041	-0.00061	-6e-05	2e-05	0.00025	0.00023	0.00018	-0.0003	6
23778	-0.00041	-0.00061	-6e-05	2e-05	0.00025	0.00023	0.00018	-0.0003	6
23779	-0.00041	-0.00061	-6e-05	2e-05	0.00025	0.00023	0.00018	-0.0003	6
23780	-0.00041	-0.00061	-6e-05	2e-05	0.00025	0.00023	0.00018	-0.0003	6
23781	-0.00041	-0.00061	-6e-05	2e-05	0.00025	0.00023	0.00018	-0.0003	6
23782	-0.00041	-0.00061	-6e-05	2e-05	0.00025	0.00023	0.00018	-0.0003	6
23783	-0.00041	-0.00061	-6e-05	2e-05	0.00025	0.00023	0.00018	-0.0003	6
23784	0.00049	0.00038	0	-6e-05	0.00044	-0.00034	-0.00015	0.00019	6
23785	0.00049	0.00038	0	-6e-05	0.00044	-0.00034	-0.00015	0.00019	6
23786	0.00049	0.00038	0	-6e-05	0.00044	-0.00034	-0.00015	0.00019	6
23789	0.00049	0.00038	0	-6e-05	0.00044	-0.00034	-0.00015	0.00019	6
23790	0.00049	0.00038	0	-6e-05	0.00044	-0.00034	-0.00015	0.00019	6
23791	0.00049	0.00038	0	-6e-05	0.00044	-0.00034	-0.00015	0.00019	6
23792	0.00049	0.00038	0	-6e-05	0.00044	-0.00034	-0.00015	0.00019	6
23793	0.00049	0.00038	0	-6e-05	0.00044	-0.00034	-0.00015	0.00019	6
23794	0.00049	0.00038	0	-6e-05	0.00044	-0.00034	-0.00015	0.00019	6
23795	0.00049	0.00038	0	-6e-05	0.00044	-0.00034	-0.00015	0.00019	6
23796	0.00049	0.00038	0	-6e-05	0.00044	-0.00034	-0.00015	0.00019	6
23797	0.00049	0.00038	0	-6e-05	0.00044	-0.00034	-0.00015	0.00019	6
23798	0.00049	0.00038	0	-6e-05	0.00044	-0.00034	-0.00015	0.00019	6
23799	0.00049	0.00038	0	-6e-05	0.00044	-0.00034	-0.00015	0.00019	6
23800	0.00049	0.00038	0	-6e-05	0.00044	-0.00034	-0.00015	0.00019	6
23801	0.00049	0.00038	0	-6e-05	0.00044	-0.00034	-0.00015	0.00019	6
23802	0.00049	0.00038	0	-6e-05	0.00044	-0.00034	-0.00015	0.00019	6
23803	0.00049	0.00038	0	-6e-05	0.00044	-0.00034	-0.00015	0.00019	6
23804	0.00049	0.00038	0	-6e-05	0.00044	-0.00034	-0.00015	0.00019	6
23805	0.00049	0.00038	0	-6e-05	0.00044	-0.00034	-0.00015	0.00019	6
23806	-0.00018	1e-05	1e-05	0	-0.00086	-0.0003	3e-05	0	6
23807	-7e-05	-0.00012	-8e-05	-6e-05	-0.00042	-0.00021	0.00044	-0.00022	6
23808	-7e-05	-0.00012	-8e-05	-6e-05	-0.00042	-0.00021	0.00044	-0.00022	6
23809	-7e-05	-0.00012	-8e-05	-6e-05	-0.00042	-0.00021	0.00044	-0.00022	6
23810	-7e-05	-0.00012	-8e-05	-6e-05	-0.00042	-0.00021	0.00044	-0.00022	6
23811	-7e-05	-0.00012	-8e-05	-6e-05	-0.00042	-0.00021	0.00044	-0.00022	6
23812	-7e-05	-0.00012	-8e-05	-6e-05	-0.00042	-0.00021	0.00044	-0.00022	6
23813	-7e-05	-0.00012	-8e-05	-6e-05	-0.00042	-0.00021	0.00044	-0.00022	6
23814	-7e-05	-0.00012	-8e-05	-6e-05	-0.00042	-0.00021	0.00044	-0.00022	6
23815	-7e-05	-0.00012	-8e-05	-6e-05	-0.00042	-0.00021	0.00044	-0.00022	6
23816	-7e-05	-0.00012	-8e-05	-6e-05	-0.00042	-0.00021	0.00044	-0.00022	6
23817	-7e-05	-0.00012	-8e-05	-6e-05	-0.00042	-0.00021	0.00044	-0.00022	6
23818	-7e-05	-0.00012	-8e-05	-6e-05	-0.00042	-0.00021	0.00044	-0.00022	6
23819	-7e-05	-0.00012	-8e-05	-6e-05	-0.00042	-0.00021	0.00044	-0.00022	6
23820	-7e-05	-0.00012	-8e-05	-6e-05	-0.00042	-0.00021	0.00044	-0.00022	6
23821	-7e-05	-0.00012	-8e-05	-6e-05	-0.00042	-0.00021	0.00044	-0.00022	6
23822	5e-05	-3e-05	-3e-05	-5e-05	0.00016	0.0003	7e-05	-0.00021	6
23823	5e-05	-3e-05	-3e-05	-5e-05	0.00016	0.0003	7e-05	-0.00021	6
23824	5e-05	-3e-05	-3e-05	-5e-05	0.00016	0.0003	7e-05	-0.00021	6
23825	5e-05	-3e-05	-3e-05	-5e-05	0.00016	0.0003	7e-05	-0.00021	6
23826	5e-05	-3e-05	-3e-05	-5e-05	0.00016	0.0003	7e-05	-0.00021	6
23827	5e-05	-3e-05	-3e-05	-5e-05	0.00016	0.0003	7e-05	-0.00021	6
23828	5e-05	-3e-05	-3e-05	-5e-05	0.00016	0.0003	7e-05	-0.00021	6
23829	5e-05	-3e-05	-3e-05	-5e-05	0.00016	0.0003	7e-05	-0.00021	6
23830	5e-05	-3e-05	-3e-05	-5e-05	0.00016	0.0003	7e-05	-0.00021	6
23831	5e-05	-3e-05	-3e-05	-5e-05	0.00016	0.0003	7e-05	-0.00021	6
23832	5e-05	-3e-05	-3e-05	-5e-05	0.00016	0.0003	7e-05	-0.00021	6
23833	5e-05	-3e-05	-3e-05	-5e-05	0.00016	0.0003	7e-05	-0.00021	6
23834	5e-05	-3e-05	-3e-05	-5e-05	0.00016	0.0003	7e-05	-0.00021	6
23835	5e-05	-3e-05	-3e-05	-5e-05	0.00016	0.0003	7e-05	-0.00021	6
23836	5e-05	-3e-05	-3e-05	-5e-05	0.00016	0.0003	7e-05	-0.00021	6
23839	5e-05	-3e-05	-3e-05	-5e-05	0.00016	0.0003	7e-05	-0.00021	6
23840	5e-05	-3e-05	-3e-05	-5e-05	0.00016	0.0003	7e-05	-0.00021	6
23841	5e-05	-3e-05	-3e-05	-5e-05	0.00016	0.0003	7e-05	-0.00021	6
23842	5e-05	-3e-05	-3e-05	-5e-05	0.00016	0.0003	7e-05	-0.00021	6
23843	0.00021	-5e-05	-3e-05	5e-05	0.00081	0.00073	-0.00026	-0.00029	6
23844	0.00021	-5e-05	-3e-05	5e-05	0.00081	0.00073	-0.00026	-0.00029	6
23845	0.00021	-5e-05	-3e-05	5e-05	0.00081	0.00073	-0.00026	-0.00029	6
23846	0.00021	-5e-05	-3e-05	5e-05	0.00081	0.00073	-0.00026	-0.00029	6
23847	0.00021	-5e-05	-3e-05	5e-05	0.00081	0.00073	-0.00026	-0.00029	6
23848	0.00021	-5e-05	-3e-05	5e-05	0.00081	0.00073	-0.00026	-0.00029	6
23849	0.00021	-5e-05	-3e-05	5e-05	0.00081	0.00073	-0.00026	-0.00029	6
23850	0.00021	-5e-05	-3e-05	5e-05	0.00081	0.00073	-0.00026	-0.00029	6
23851	-0.00037	-9e-05	-4e-05	-5e-05	3e-05	-0.00017	-0.00012	-5e-05	6
23852	-0.00037	-9e-05	-4e-05	-5e-05	3e-05	-0.00017	-0.00012	-5e-05	6
23853	-0.00037	-9e-05	-4e-05	-5e-05	3e-05	-0.00017	-0.00012	-5e-05	6
23854	-0.00037	-9e-05	-4e-05	-5e-05	3e-05	-0.00017	-0.00012	-5e-05	6
23855	-0.00037	-9e-05	-4e-05	-5e-05	3e-05	-0.00017	-0.00012	-5e-05	6
23856	-0.00037	-9e-05	-4e-05	-5e-05	3e-05	-0.00017	-0.00012	-5e-05	6
23857	-0.00037	-9e-05	-4e-05	-5e-05	3e-05	-0.00017	-0.00012	-5e-05	6
23858	-0.00037	-9e-05	-4e-05	-5e-05	3e-05	-0.00017	-0.00012	-5e-05	6
23859	-0.00037	-9e-05	-4e-05	-5e-05	3e-05	-0.00017	-0.00012	-5e-05	6
23860	-0.00037	-9e-05	-4e-05	-5e-05	3e-05	-0.00017	-0.00012	-5e-05	6
23861	-0.00037	-9e-05	-4e-05	-5e-05	3e-05	-0.00017	-0.00012	-5e-05	6
23862	-0.00037	-9e-05	-4e-05	-5e-05	3e-05	-0.00017	-0.00012	-5e-05	6
23863	-0.00037	-9e-05	-4e-05	-5e-05	3e-05	-0.00017	-0.00012	-5e-05	6
23864	-0.00037	-9e-05	-4e-05	-5e-05	3e-05	-0.00017	-0.00012	-5e-05	6
23865	-0.00037	-9e-05	-4e-05	-5e-05	3e-05	-0.00017	-0.00012	-5e-05	6
23866	-0.00055	-8e-05	-2e-05	-8e-05	-0.00021	0.00043	0.00072	-0.0002	6
23867	0.00029	0.00014	4e-05	0.00015	0.00127	0.00101	0.00055	0.00071	6
23868	0.00029	0.00014	4e-05	0.00015	0.00127	0.00101	0.00055	0.00071	6
23869	0.00029	0.00014	4e-05	0.00015	0.00127	0.00101	0.00055	0.00071	6
23870	0.00029	0.00014	4e-05	0.00015	0.00127	0.00101	0.00055	0.00071	6
23871	0.00029	0.00014	4e-05	0.00015	0.00127	0.00101	0.00055	0.00071	6
23872	0.00029	0.00014	4e-05	0.00015	0.00127	0.00101	0.00055	0.00071	6
23873	0.00029	0.00014	4e-05	0.00015	0.00127	0.00101	0.00055	0.00071	6
23874	0.00029	0.00014	4e-05	0.00015	0.00127	0.00101	0.00055	0.00071	6
23875	0.00029	0.00014	4e-05	0.00015	0.00127	0.00101	0.00055	0.00071	6
23876	0.00029	0.00014	4e-05	0.00015	0.00127	0.00101	0.00055	0.00071	6
23877	0.00029	0.00014	4e-05	0.00015	0.00127	0.00101	0.00055	0.00071	6
23878	0.00029	0.00014	4e-05	0.00015	0.00127	0.00101	0.00055	0.00071	6
23879	0.00029	0.00014	4e-05	0.00015	0.00127	0.00101	0.00055	0.00071	6
23880	0.00029	0.00014	4e-05	0.00015	0.00127	0.00101	0.00055	0.00071	6
23881	0.00029	0.00014	4e-05	0.00015	0.00127	0.00101	0.00055	0.00071	6
23882	0.00029	0.00014	4e-05	0.00015	0.00127	0.00101	0.00055	0.00071	6
23883	0.00029	0.00014	4e-05	0.00015	0.00127	0.00101	0.00055	0.00071	6
23884	0.00029	0.00014	4e-05	0.00015	0.00127	0.00101	0.00055	0.00071	6
23885	0.00029	0.00014	4e-05	0.00015	0.00127	0.00101	0.00055	0.00071	6
23886	0.00029	0.00014	4e-05	0.00015	0.00127	0.00101	0.00055	0.00071	6
23888	0.00029	0.00014	4e-05	0.00015	0.00127	0.00101	0.00055	0.00071	6
23889	0.00045	0.00029	4e-05	-4e-05	-0.00038	-0.00016	-0.00027	0.00101	6
23890	-0.00011	0.0002	5e-05	2e-05	-0.00085	0.00092	-0.00058	-3e-05	6
23891	-0.00011	0.0002	5e-05	2e-05	-0.00085	0.00092	-0.00058	-3e-05	6
23892	-0.00011	0.0002	5e-05	2e-05	-0.00085	0.00092	-0.00058	-3e-05	6
23893	-0.00011	0.0002	5e-05	2e-05	-0.00085	0.00092	-0.00058	-3e-05	6
23894	-0.00011	0.0002	5e-05	2e-05	-0.00085	0.00092	-0.00058	-3e-05	6
23895	-0.00011	0.0002	5e-05	2e-05	-0.00085	0.00092	-0.00058	-3e-05	6
23896	-0.00011	0.0002	5e-05	2e-05	-0.00085	0.00092	-0.00058	-3e-05	6
23897	-0.00011	0.0002	5e-05	2e-05	-0.00085	0.00092	-0.00058	-3e-05	6
23898	-0.00011	0.0002	5e-05	2e-05	-0.00085	0.00092	-0.00058	-3e-05	6
23899	-0.00011	0.0002	5e-05	2e-05	-0.00085	0.00092	-0.00058	-3e-05	6
23900	-0.00011	0.0002	5e-05	2e-05	-0.00085	0.00092	-0.00058	-3e-05	6
23901	-0.00011	0.0002	5e-05	2e-05	-0.00085	0.00092	-0.00058	-3e-05	6
23902	-0.00011	0.0002	5e-05	2e-05	-0.00085	0.00092	-0.00058	-3e-05	6
23903	-0.00011	0.0002	5e-05	2e-05	-0.00085	0.00092	-0.00058	-3e-05	6
23904	9e-05	-8e-05	0	-1e-05	-0.0001	0.00052	-0.00024	0.00047	6
23905	9e-05	-8e-05	0	-1e-05	-0.0001	0.00052	-0.00024	0.00047	6
23906	9e-05	-8e-05	0	-1e-05	-0.0001	0.00052	-0.00024	0.00047	6
23907	9e-05	-8e-05	0	-1e-05	-0.0001	0.00052	-0.00024	0.00047	6
23908	9e-05	-8e-05	0	-1e-05	-0.0001	0.00052	-0.00024	0.00047	6
23909	9e-05	-8e-05	0	-1e-05	-0.0001	0.00052	-0.00024	0.00047	6
23910	9e-05	-8e-05	0	-1e-05	-0.0001	0.00052	-0.00024	0.00047	6
23911	9e-05	-8e-05	0	-1e-05	-0.0001	0.00052	-0.00024	0.00047	6
23912	9e-05	-8e-05	0	-1e-05	-0.0001	0.00052	-0.00024	0.00047	6
23913	9e-05	-8e-05	0	-1e-05	-0.0001	0.00052	-0.00024	0.00047	6
23914	9e-05	-8e-05	0	-1e-05	-0.0001	0.00052	-0.00024	0.00047	6
23915	9e-05	-8e-05	0	-1e-05	-0.0001	0.00052	-0.00024	0.00047	6
23916	9e-05	-8e-05	0	-1e-05	-0.0001	0.00052	-0.00024	0.00047	6
23917	9e-05	-8e-05	0	-1e-05	-0.0001	0.00052	-0.00024	0.00047	6
23918	9e-05	-8e-05	0	-1e-05	-0.0001	0.00052	-0.00024	0.00047	6
23919	9e-05	-8e-05	0	-1e-05	-0.0001	0.00052	-0.00024	0.00047	6
23920	9e-05	-8e-05	0	-1e-05	-0.0001	0.00052	-0.00024	0.00047	6
23921	9e-05	-8e-05	0	-1e-05	-0.0001	0.00052	-0.00024	0.00047	6
23922	9e-05	-8e-05	0	-1e-05	-0.0001	0.00052	-0.00024	0.00047	6
23923	9e-05	-8e-05	0	-1e-05	-0.0001	0.00052	-0.00024	0.00047	6
23924	9e-05	-8e-05	0	-1e-05	-0.0001	0.00052	-0.00024	0.00047	6
23925	9e-05	-8e-05	0	-1e-05	-0.0001	0.00052	-0.00024	0.00047	6
23926	9e-05	-8e-05	0	-1e-05	-0.0001	0.00052	-0.00024	0.00047	6
23927	-0.00094	4e-05	0	-6e-05	-0.00049	-0.00068	-0.00011	-0.00052	6
23928	0.00046	0.00027	0	3e-05	0.00043	-0.00023	-7e-05	-0.00018	6
23929	0.00046	0.00027	0	3e-05	0.00043	-0.00023	-7e-05	-0.00018	6
23930	0.00046	0.00027	0	3e-05	0.00043	-0.00023	-7e-05	-0.00018	6
23931	0.00046	0.00027	0	3e-05	0.00043	-0.00023	-7e-05	-0.00018	6
23932	0.00046	0.00027	0	3e-05	0.00043	-0.00023	-7e-05	-0.00018	6
23933	0.00046	0.00027	0	3e-05	0.00043	-0.00023	-7e-05	-0.00018	6
23934	0.00046	0.00027	0	3e-05	0.00043	-0.00023	-7e-05	-0.00018	6
23935	0.00046	0.00027	0	3e-05	0.00043	-0.00023	-7e-05	-0.00018	6
23936	0.00046	0.00027	0	3e-05	0.00043	-0.00023	-7e-05	-0.00018	6
23938	0.00046	0.00027	0	3e-05	0.00043	-0.00023	-7e-05	-0.00018	6
23939	0.00046	0.00027	0	3e-05	0.00043	-0.00023	-7e-05	-0.00018	6
23940	0.00046	0.00027	0	3e-05	0.00043	-0.00023	-7e-05	-0.00018	6
23941	0.00072	-3e-05	0	1e-05	2e-05	5e-05	-0.00087	0.00045	6
23942	-5e-05	0.00026	-7e-05	-6e-05	-0.00013	0.00023	0.00015	-0.00082	6
23943	-5e-05	0.00026	-7e-05	-6e-05	-0.00013	0.00023	0.00015	-0.00082	6
23944	-5e-05	0.00026	-7e-05	-6e-05	-0.00013	0.00023	0.00015	-0.00082	6
23945	-5e-05	0.00026	-7e-05	-6e-05	-0.00013	0.00023	0.00015	-0.00082	6
23946	-5e-05	0.00026	-7e-05	-6e-05	-0.00013	0.00023	0.00015	-0.00082	6
23947	-5e-05	0.00026	-7e-05	-6e-05	-0.00013	0.00023	0.00015	-0.00082	6
23948	-5e-05	0.00026	-7e-05	-6e-05	-0.00013	0.00023	0.00015	-0.00082	6
23949	-5e-05	0.00026	-7e-05	-6e-05	-0.00013	0.00023	0.00015	-0.00082	6
23950	-5e-05	0.00026	-7e-05	-6e-05	-0.00013	0.00023	0.00015	-0.00082	6
23951	-5e-05	0.00026	-7e-05	-6e-05	-0.00013	0.00023	0.00015	-0.00082	6
23952	-5e-05	0.00026	-7e-05	-6e-05	-0.00013	0.00023	0.00015	-0.00082	6
23953	-5e-05	0.00026	-7e-05	-6e-05	-0.00013	0.00023	0.00015	-0.00082	6
23954	-5e-05	0.00026	-7e-05	-6e-05	-0.00013	0.00023	0.00015	-0.00082	6
23955	-5e-05	0.00026	-7e-05	-6e-05	-0.00013	0.00023	0.00015	-0.00082	6
23956	-5e-05	0.00026	-7e-05	-6e-05	-0.00013	0.00023	0.00015	-0.00082	6
23957	-5e-05	0.00026	-7e-05	-6e-05	-0.00013	0.00023	0.00015	-0.00082	6
23958	-5e-05	0.00026	-7e-05	-6e-05	-0.00013	0.00023	0.00015	-0.00082	6
23959	-5e-05	0.00026	-7e-05	-6e-05	-0.00013	0.00023	0.00015	-0.00082	6
23960	-5e-05	0.00026	-7e-05	-6e-05	-0.00013	0.00023	0.00015	-0.00082	6
23961	-5e-05	0.00026	-7e-05	-6e-05	-0.00013	0.00023	0.00015	-0.00082	6
23962	-5e-05	0.00026	-7e-05	-6e-05	-0.00013	0.00023	0.00015	-0.00082	6
23963	-5e-05	0.00026	-7e-05	-6e-05	-0.00013	0.00023	0.00015	-0.00082	6
23964	-5e-05	0.00026	-7e-05	-6e-05	-0.00013	0.00023	0.00015	-0.00082	6
23965	-5e-05	0.00026	-7e-05	-6e-05	-0.00013	0.00023	0.00015	-0.00082	6
23966	-5e-05	0.00026	-7e-05	-6e-05	-0.00013	0.00023	0.00015	-0.00082	6
23967	-5e-05	0.00026	-7e-05	-6e-05	-0.00013	0.00023	0.00015	-0.00082	6
23968	-5e-05	0.00026	-7e-05	-6e-05	-0.00013	0.00023	0.00015	-0.00082	6
23969	-5e-05	0.00026	-7e-05	-6e-05	-0.00013	0.00023	0.00015	-0.00082	6
23970	-5e-05	0.00026	-7e-05	-6e-05	-0.00013	0.00023	0.00015	-0.00082	6
23971	-5e-05	0.00026	-7e-05	-6e-05	-0.00013	0.00023	0.00015	-0.00082	6
23972	-0.00095	-0.00039	-3e-05	2e-05	0.00044	-0.0005	0.00029	-4e-05	6
23973	-7e-05	0.00013	1e-05	-4e-05	-0.00031	-0.00043	0.00015	0.00032	6
23974	-7e-05	0.00013	1e-05	-4e-05	-0.00031	-0.00043	0.00015	0.00032	6
23975	-7e-05	0.00013	1e-05	-4e-05	-0.00031	-0.00043	0.00015	0.00032	6
23976	-7e-05	0.00013	1e-05	-4e-05	-0.00031	-0.00043	0.00015	0.00032	6
23977	-7e-05	0.00013	1e-05	-4e-05	-0.00031	-0.00043	0.00015	0.00032	6
23978	-7e-05	0.00013	1e-05	-4e-05	-0.00031	-0.00043	0.00015	0.00032	6
23979	-7e-05	0.00013	1e-05	-4e-05	-0.00031	-0.00043	0.00015	0.00032	6
23980	-7e-05	0.00013	1e-05	-4e-05	-0.00031	-0.00043	0.00015	0.00032	6
23981	-7e-05	0.00013	1e-05	-4e-05	-0.00031	-0.00043	0.00015	0.00032	6
23982	-7e-05	0.00013	1e-05	-4e-05	-0.00031	-0.00043	0.00015	0.00032	6
23983	-7e-05	0.00013	1e-05	-4e-05	-0.00031	-0.00043	0.00015	0.00032	6
23984	-7e-05	0.00013	1e-05	-4e-05	-0.00031	-0.00043	0.00015	0.00032	6
23985	-7e-05	0.00013	1e-05	-4e-05	-0.00031	-0.00043	0.00015	0.00032	6
23986	-7e-05	0.00013	1e-05	-4e-05	-0.00031	-0.00043	0.00015	0.00032	6
23988	6e-05	2e-05	-3e-05	-4e-05	-0.00022	-0.00054	6e-05	-0.00019	6
23989	6e-05	2e-05	-3e-05	-4e-05	-0.00022	-0.00054	6e-05	-0.00019	6
23990	6e-05	2e-05	-3e-05	-4e-05	-0.00022	-0.00054	6e-05	-0.00019	6
23991	6e-05	2e-05	-3e-05	-4e-05	-0.00022	-0.00054	6e-05	-0.00019	6
23992	6e-05	2e-05	-3e-05	-4e-05	-0.00022	-0.00054	6e-05	-0.00019	6
23993	6e-05	2e-05	-3e-05	-4e-05	-0.00022	-0.00054	6e-05	-0.00019	6
23994	6e-05	2e-05	-3e-05	-4e-05	-0.00022	-0.00054	6e-05	-0.00019	6
23995	6e-05	2e-05	-3e-05	-4e-05	-0.00022	-0.00054	6e-05	-0.00019	6
23996	6e-05	2e-05	-3e-05	-4e-05	-0.00022	-0.00054	6e-05	-0.00019	6
23997	6e-05	2e-05	-3e-05	-4e-05	-0.00022	-0.00054	6e-05	-0.00019	6
23998	6e-05	2e-05	-3e-05	-4e-05	-0.00022	-0.00054	6e-05	-0.00019	6
23999	6e-05	2e-05	-3e-05	-4e-05	-0.00022	-0.00054	6e-05	-0.00019	6
24000	6e-05	2e-05	-3e-05	-4e-05	-0.00022	-0.00054	6e-05	-0.00019	6
24001	-0.00023	0	3e-05	0	-0.00077	-0.00048	0.00023	-0.00033	6
24002	0.00093	0.00029	2e-05	0	0.00015	-0.0006	-2e-05	-0.00028	6
24003	0.00093	0.00029	2e-05	0	0.00015	-0.0006	-2e-05	-0.00028	6
24004	0.00093	0.00029	2e-05	0	0.00015	-0.0006	-2e-05	-0.00028	6
24005	0.00093	0.00029	2e-05	0	0.00015	-0.0006	-2e-05	-0.00028	6
24006	0.00093	0.00029	2e-05	0	0.00015	-0.0006	-2e-05	-0.00028	6
24007	0.00093	0.00029	2e-05	0	0.00015	-0.0006	-2e-05	-0.00028	6
24008	0.00093	0.00029	2e-05	0	0.00015	-0.0006	-2e-05	-0.00028	6
24009	0.00093	0.00029	2e-05	0	0.00015	-0.0006	-2e-05	-0.00028	6
24010	0.00093	0.00029	2e-05	0	0.00015	-0.0006	-2e-05	-0.00028	6
24011	0.00093	0.00029	2e-05	0	0.00015	-0.0006	-2e-05	-0.00028	6
24012	0.00093	0.00029	2e-05	0	0.00015	-0.0006	-2e-05	-0.00028	6
24013	0.00093	0.00029	2e-05	0	0.00015	-0.0006	-2e-05	-0.00028	6
24014	0.00093	0.00029	2e-05	0	0.00015	-0.0006	-2e-05	-0.00028	6
24015	0.00093	0.00029	2e-05	0	0.00015	-0.0006	-2e-05	-0.00028	6
24016	0.00093	0.00029	2e-05	0	0.00015	-0.0006	-2e-05	-0.00028	6
24017	0.00093	0.00029	2e-05	0	0.00015	-0.0006	-2e-05	-0.00028	6
24018	0.00093	0.00029	2e-05	0	0.00015	-0.0006	-2e-05	-0.00028	6
24019	0.00093	0.00029	2e-05	0	0.00015	-0.0006	-2e-05	-0.00028	6
24020	0.00093	0.00029	2e-05	0	0.00015	-0.0006	-2e-05	-0.00028	6
24021	0.00093	0.00029	2e-05	0	0.00015	-0.0006	-2e-05	-0.00028	6
24022	0.00093	0.00029	2e-05	0	0.00015	-0.0006	-2e-05	-0.00028	6
24023	0.00093	0.00029	2e-05	0	0.00015	-0.0006	-2e-05	-0.00028	6
24024	0.00042	-0.00041	-3e-05	3e-05	-0.00037	0.0009	-0.00068	-0.00083	6
24025	0.00042	-0.00041	-3e-05	3e-05	-0.00037	0.0009	-0.00068	-0.00083	6
24026	0.00042	-0.00041	-3e-05	3e-05	-0.00037	0.0009	-0.00068	-0.00083	6
24027	0.00042	-0.00041	-3e-05	3e-05	-0.00037	0.0009	-0.00068	-0.00083	6
24028	0.00042	-0.00041	-3e-05	3e-05	-0.00037	0.0009	-0.00068	-0.00083	6
24029	0.00042	-0.00041	-3e-05	3e-05	-0.00037	0.0009	-0.00068	-0.00083	6
24030	0.00042	-0.00041	-3e-05	3e-05	-0.00037	0.0009	-0.00068	-0.00083	6
24031	0.00042	-0.00041	-3e-05	3e-05	-0.00037	0.0009	-0.00068	-0.00083	6
24032	0.00042	-0.00041	-3e-05	3e-05	-0.00037	0.0009	-0.00068	-0.00083	6
24033	0.00042	-0.00041	-3e-05	3e-05	-0.00037	0.0009	-0.00068	-0.00083	6
24034	0.00042	-0.00041	-3e-05	3e-05	-0.00037	0.0009	-0.00068	-0.00083	6
24035	0.00042	-0.00041	-3e-05	3e-05	-0.00037	0.0009	-0.00068	-0.00083	6
24036	0.00042	-0.00041	-3e-05	3e-05	-0.00037	0.0009	-0.00068	-0.00083	6
24039	0.00042	-0.00041	-3e-05	3e-05	-0.00037	0.0009	-0.00068	-0.00083	6
24040	0.00042	-0.00041	-3e-05	3e-05	-0.00037	0.0009	-0.00068	-0.00083	6
24041	0.00042	-0.00041	-3e-05	3e-05	-0.00037	0.0009	-0.00068	-0.00083	6
24042	0.00042	-0.00041	-3e-05	3e-05	-0.00037	0.0009	-0.00068	-0.00083	6
24043	0.00042	-0.00041	-3e-05	3e-05	-0.00037	0.0009	-0.00068	-0.00083	6
24044	0.00042	-0.00041	-3e-05	3e-05	-0.00037	0.0009	-0.00068	-0.00083	6
24045	0.00042	-0.00041	-3e-05	3e-05	-0.00037	0.0009	-0.00068	-0.00083	6
24046	0.00042	-0.00041	-3e-05	3e-05	-0.00037	0.0009	-0.00068	-0.00083	6
24047	0.00025	0.00038	1e-05	-4e-05	-0.00016	0	0.00046	-0.00103	6
24048	-0.00045	-0.00036	2e-05	2e-05	0.00032	0.00026	0.00023	0.00045	6
24049	-0.00045	-0.00036	2e-05	2e-05	0.00032	0.00026	0.00023	0.00045	6
24050	-0.00045	-0.00036	2e-05	2e-05	0.00032	0.00026	0.00023	0.00045	6
24051	-0.00045	-0.00036	2e-05	2e-05	0.00032	0.00026	0.00023	0.00045	6
24052	-0.00045	-0.00036	2e-05	2e-05	0.00032	0.00026	0.00023	0.00045	6
24053	-0.00045	-0.00036	2e-05	2e-05	0.00032	0.00026	0.00023	0.00045	6
24054	-0.00045	-0.00036	2e-05	2e-05	0.00032	0.00026	0.00023	0.00045	6
24055	-0.00045	-0.00036	2e-05	2e-05	0.00032	0.00026	0.00023	0.00045	6
24056	-0.00045	-0.00036	2e-05	2e-05	0.00032	0.00026	0.00023	0.00045	6
24057	-0.00045	-0.00036	2e-05	2e-05	0.00032	0.00026	0.00023	0.00045	6
24058	-0.00045	-0.00036	2e-05	2e-05	0.00032	0.00026	0.00023	0.00045	6
24059	-0.00045	-0.00036	2e-05	2e-05	0.00032	0.00026	0.00023	0.00045	6
24060	-0.00045	-0.00036	2e-05	2e-05	0.00032	0.00026	0.00023	0.00045	6
24061	0.00015	-2e-05	2e-05	-4e-05	-0.00043	0.00023	-0.00037	0.00039	6
24062	-0.0007	-0.00016	-7e-05	-9e-05	8e-05	-0.00055	0.00015	-0.00014	6
24063	-0.0007	-0.00016	-7e-05	-9e-05	8e-05	-0.00055	0.00015	-0.00014	6
24064	-0.0007	-0.00016	-7e-05	-9e-05	8e-05	-0.00055	0.00015	-0.00014	6
24065	-0.0007	-0.00016	-7e-05	-9e-05	8e-05	-0.00055	0.00015	-0.00014	6
24066	-0.0007	-0.00016	-7e-05	-9e-05	8e-05	-0.00055	0.00015	-0.00014	6
24067	-0.0007	-0.00016	-7e-05	-9e-05	8e-05	-0.00055	0.00015	-0.00014	6
24068	-0.0007	-0.00016	-7e-05	-9e-05	8e-05	-0.00055	0.00015	-0.00014	6
24069	-0.0007	-0.00016	-7e-05	-9e-05	8e-05	-0.00055	0.00015	-0.00014	6
24070	-0.0007	-0.00016	-7e-05	-9e-05	8e-05	-0.00055	0.00015	-0.00014	6
24071	-0.0007	-0.00016	-7e-05	-9e-05	8e-05	-0.00055	0.00015	-0.00014	6
24072	-0.0007	-0.00016	-7e-05	-9e-05	8e-05	-0.00055	0.00015	-0.00014	6
24073	-0.0007	-0.00016	-7e-05	-9e-05	8e-05	-0.00055	0.00015	-0.00014	6
24074	-0.0007	-0.00016	-7e-05	-9e-05	8e-05	-0.00055	0.00015	-0.00014	6
24075	-0.0007	-0.00016	-7e-05	-9e-05	8e-05	-0.00055	0.00015	-0.00014	6
24076	-0.0007	-0.00016	-7e-05	-9e-05	8e-05	-0.00055	0.00015	-0.00014	6
24077	-0.0007	-0.00016	-7e-05	-9e-05	8e-05	-0.00055	0.00015	-0.00014	6
24078	-0.0007	-0.00016	-7e-05	-9e-05	8e-05	-0.00055	0.00015	-0.00014	6
24079	-0.0007	-0.00016	-7e-05	-9e-05	8e-05	-0.00055	0.00015	-0.00014	6
24080	-0.0007	-0.00016	-7e-05	-9e-05	8e-05	-0.00055	0.00015	-0.00014	6
24081	-0.0007	-0.00016	-7e-05	-9e-05	8e-05	-0.00055	0.00015	-0.00014	6
24082	-0.0007	-0.00016	-7e-05	-9e-05	8e-05	-0.00055	0.00015	-0.00014	6
24083	-0.0007	-0.00016	-7e-05	-9e-05	8e-05	-0.00055	0.00015	-0.00014	6
24084	0.00013	-0.00017	-3e-05	-7e-05	-0.00019	-0.00044	9e-05	4e-05	6
24085	0.00013	-0.00017	-3e-05	-7e-05	-0.00019	-0.00044	9e-05	4e-05	6
24086	0.00013	-0.00017	-3e-05	-7e-05	-0.00019	-0.00044	9e-05	4e-05	6
24089	0.00013	-0.00017	-3e-05	-7e-05	-0.00019	-0.00044	9e-05	4e-05	6
24090	0.00013	-0.00017	-3e-05	-7e-05	-0.00019	-0.00044	9e-05	4e-05	6
24092	0.00013	-0.00017	-3e-05	-7e-05	-0.00019	-0.00044	9e-05	4e-05	6
24093	0.00013	-0.00017	-3e-05	-7e-05	-0.00019	-0.00044	9e-05	4e-05	6
24094	0.00013	-0.00017	-3e-05	-7e-05	-0.00019	-0.00044	9e-05	4e-05	6
24095	0.00013	-0.00017	-3e-05	-7e-05	-0.00019	-0.00044	9e-05	4e-05	6
24096	0.00013	-0.00017	-3e-05	-7e-05	-0.00019	-0.00044	9e-05	4e-05	6
24097	0.00013	-0.00017	-3e-05	-7e-05	-0.00019	-0.00044	9e-05	4e-05	6
24098	0.00013	-0.00017	-3e-05	-7e-05	-0.00019	-0.00044	9e-05	4e-05	6
24099	0.00013	-0.00017	-3e-05	-7e-05	-0.00019	-0.00044	9e-05	4e-05	6
24100	0.00013	-0.00017	-3e-05	-7e-05	-0.00019	-0.00044	9e-05	4e-05	6
24101	0.00013	-0.00017	-3e-05	-7e-05	-0.00019	-0.00044	9e-05	4e-05	6
24102	0.00013	-0.00017	-3e-05	-7e-05	-0.00019	-0.00044	9e-05	4e-05	6
24103	0.00013	-0.00017	-3e-05	-7e-05	-0.00019	-0.00044	9e-05	4e-05	6
24104	0.00013	-0.00017	-3e-05	-7e-05	-0.00019	-0.00044	9e-05	4e-05	6
24105	0.00013	-0.00017	-3e-05	-7e-05	-0.00019	-0.00044	9e-05	4e-05	6
24106	0.00013	-0.00017	-3e-05	-7e-05	-0.00019	-0.00044	9e-05	4e-05	6
24107	0.0002	0.00032	6e-05	1e-05	-5e-05	-0.00023	-0.00036	0.0005	6
24108	0.0002	0.00032	6e-05	1e-05	-5e-05	-0.00023	-0.00036	0.0005	6
24109	0.0002	0.00032	6e-05	1e-05	-5e-05	-0.00023	-0.00036	0.0005	6
24110	0.0002	0.00032	6e-05	1e-05	-5e-05	-0.00023	-0.00036	0.0005	6
24111	0.0002	0.00032	6e-05	1e-05	-5e-05	-0.00023	-0.00036	0.0005	6
24112	0.0002	0.00032	6e-05	1e-05	-5e-05	-0.00023	-0.00036	0.0005	6
24113	0.0002	0.00032	6e-05	1e-05	-5e-05	-0.00023	-0.00036	0.0005	6
24114	0.0002	0.00032	6e-05	1e-05	-5e-05	-0.00023	-0.00036	0.0005	6
24115	0.0002	0.00032	6e-05	1e-05	-5e-05	-0.00023	-0.00036	0.0005	6
24116	0.0002	0.00032	6e-05	1e-05	-5e-05	-0.00023	-0.00036	0.0005	6
24117	0.0002	0.00032	6e-05	1e-05	-5e-05	-0.00023	-0.00036	0.0005	6
24118	0.0002	0.00032	6e-05	1e-05	-5e-05	-0.00023	-0.00036	0.0005	6
24119	0.0002	0.00032	6e-05	1e-05	-5e-05	-0.00023	-0.00036	0.0005	6
24120	0.0002	0.00032	6e-05	1e-05	-5e-05	-0.00023	-0.00036	0.0005	6
24121	-0.00039	0.00021	-1e-05	1e-05	0.00027	0.00036	0.00024	-0.00051	6
24122	-0.00039	0.00021	-1e-05	1e-05	0.00027	0.00036	0.00024	-0.00051	6
24123	-0.00039	0.00021	-1e-05	1e-05	0.00027	0.00036	0.00024	-0.00051	6
24124	-0.00039	0.00021	-1e-05	1e-05	0.00027	0.00036	0.00024	-0.00051	6
24125	-0.00039	0.00021	-1e-05	1e-05	0.00027	0.00036	0.00024	-0.00051	6
24126	-0.00039	0.00021	-1e-05	1e-05	0.00027	0.00036	0.00024	-0.00051	6
24127	-0.00039	0.00021	-1e-05	1e-05	0.00027	0.00036	0.00024	-0.00051	6
24128	-0.00039	0.00021	-1e-05	1e-05	0.00027	0.00036	0.00024	-0.00051	6
24129	-0.00066	-0.00034	-3e-05	0.00013	0.00094	0.0001	-0.00026	0.00036	6
24130	-0.00066	-0.00034	-3e-05	0.00013	0.00094	0.0001	-0.00026	0.00036	6
24131	-0.00066	-0.00034	-3e-05	0.00013	0.00094	0.0001	-0.00026	0.00036	6
24132	-0.00066	-0.00034	-3e-05	0.00013	0.00094	0.0001	-0.00026	0.00036	6
24133	-0.00066	-0.00034	-3e-05	0.00013	0.00094	0.0001	-0.00026	0.00036	6
24134	-0.00066	-0.00034	-3e-05	0.00013	0.00094	0.0001	-0.00026	0.00036	6
24135	-0.00066	-0.00034	-3e-05	0.00013	0.00094	0.0001	-0.00026	0.00036	6
24136	-0.00066	-0.00034	-3e-05	0.00013	0.00094	0.0001	-0.00026	0.00036	6
24138	-0.00066	-0.00034	-3e-05	0.00013	0.00094	0.0001	-0.00026	0.00036	6
24139	-0.00066	-0.00034	-3e-05	0.00013	0.00094	0.0001	-0.00026	0.00036	6
24140	-0.00066	-0.00034	-3e-05	0.00013	0.00094	0.0001	-0.00026	0.00036	6
24141	-0.00066	-0.00034	-3e-05	0.00013	0.00094	0.0001	-0.00026	0.00036	6
24142	-0.00066	-0.00034	-3e-05	0.00013	0.00094	0.0001	-0.00026	0.00036	6
24143	-0.00066	-0.00034	-3e-05	0.00013	0.00094	0.0001	-0.00026	0.00036	6
24144	0.00048	0.00018	3e-05	-1e-05	-0.00022	0.0002	5e-05	0	6
24145	0.00048	0.00018	3e-05	-1e-05	-0.00022	0.0002	5e-05	0	6
24146	0.00048	0.00018	3e-05	-1e-05	-0.00022	0.0002	5e-05	0	6
24147	0.00048	0.00018	3e-05	-1e-05	-0.00022	0.0002	5e-05	0	6
24148	0.00048	0.00018	3e-05	-1e-05	-0.00022	0.0002	5e-05	0	6
24149	0.00048	0.00018	3e-05	-1e-05	-0.00022	0.0002	5e-05	0	6
24150	0.00048	0.00018	3e-05	-1e-05	-0.00022	0.0002	5e-05	0	6
24151	0.00048	0.00018	3e-05	-1e-05	-0.00022	0.0002	5e-05	0	6
24152	0.00048	0.00018	3e-05	-1e-05	-0.00022	0.0002	5e-05	0	6
24153	0.00048	0.00018	3e-05	-1e-05	-0.00022	0.0002	5e-05	0	6
24154	0.00048	0.00018	3e-05	-1e-05	-0.00022	0.0002	5e-05	0	6
24155	0.00048	0.00018	3e-05	-1e-05	-0.00022	0.0002	5e-05	0	6
24156	0.00048	0.00018	3e-05	-1e-05	-0.00022	0.0002	5e-05	0	6
24157	0.00048	0.00018	3e-05	-1e-05	-0.00022	0.0002	5e-05	0	6
24158	0.00048	0.00018	3e-05	-1e-05	-0.00022	0.0002	5e-05	0	6
24159	0.00048	0.00018	3e-05	-1e-05	-0.00022	0.0002	5e-05	0	6
24160	0.00048	0.00018	3e-05	-1e-05	-0.00022	0.0002	5e-05	0	6
24161	0.00048	0.00018	3e-05	-1e-05	-0.00022	0.0002	5e-05	0	6
24162	0.00048	0.00018	3e-05	-1e-05	-0.00022	0.0002	5e-05	0	6
24163	0.00048	0.00018	3e-05	-1e-05	-0.00022	0.0002	5e-05	0	6
24164	0.00048	0.00018	3e-05	-1e-05	-0.00022	0.0002	5e-05	0	6
24165	0.00048	0.00018	3e-05	-1e-05	-0.00022	0.0002	5e-05	0	6
24166	0.00048	0.00018	3e-05	-1e-05	-0.00022	0.0002	5e-05	0	6
24167	-0.00037	1e-05	1e-05	-3e-05	-0.001	0.00041	0.00043	0.00037	6
24168	0.00042	-0.00018	-3e-05	-2e-05	0.00018	0.00015	6e-05	0.00017	6
24169	0.00042	-0.00018	-3e-05	-2e-05	0.00018	0.00015	6e-05	0.00017	6
24170	0.00042	-0.00018	-3e-05	-2e-05	0.00018	0.00015	6e-05	0.00017	6
24171	0.00042	-0.00018	-3e-05	-2e-05	0.00018	0.00015	6e-05	0.00017	6
24172	0.00042	-0.00018	-3e-05	-2e-05	0.00018	0.00015	6e-05	0.00017	6
24173	0.00042	-0.00018	-3e-05	-2e-05	0.00018	0.00015	6e-05	0.00017	6
24174	0.00042	-0.00018	-3e-05	-2e-05	0.00018	0.00015	6e-05	0.00017	6
24175	0.00042	-0.00018	-3e-05	-2e-05	0.00018	0.00015	6e-05	0.00017	6
24176	0.00042	-0.00018	-3e-05	-2e-05	0.00018	0.00015	6e-05	0.00017	6
24177	0.00042	-0.00018	-3e-05	-2e-05	0.00018	0.00015	6e-05	0.00017	6
24178	0.00042	-0.00018	-3e-05	-2e-05	0.00018	0.00015	6e-05	0.00017	6
24179	0.00042	-0.00018	-3e-05	-2e-05	0.00018	0.00015	6e-05	0.00017	6
24180	0.00042	-0.00018	-3e-05	-2e-05	0.00018	0.00015	6e-05	0.00017	6
24181	0.00014	-0.00013	-4e-05	-1e-05	-0.00083	-0.00081	0.00021	6e-05	6
24182	-4e-05	3e-05	-1e-05	-1e-05	-0.00028	-0.00042	0.00019	-8e-05	6
24183	-4e-05	3e-05	-1e-05	-1e-05	-0.00028	-0.00042	0.00019	-8e-05	6
24184	-4e-05	3e-05	-1e-05	-1e-05	-0.00028	-0.00042	0.00019	-8e-05	6
24185	-4e-05	3e-05	-1e-05	-1e-05	-0.00028	-0.00042	0.00019	-8e-05	6
24186	-4e-05	3e-05	-1e-05	-1e-05	-0.00028	-0.00042	0.00019	-8e-05	6
24188	-4e-05	3e-05	-1e-05	-1e-05	-0.00028	-0.00042	0.00019	-8e-05	6
24189	-4e-05	3e-05	-1e-05	-1e-05	-0.00028	-0.00042	0.00019	-8e-05	6
24190	-4e-05	3e-05	-1e-05	-1e-05	-0.00028	-0.00042	0.00019	-8e-05	6
24191	-4e-05	3e-05	-1e-05	-1e-05	-0.00028	-0.00042	0.00019	-8e-05	6
24192	-4e-05	3e-05	-1e-05	-1e-05	-0.00028	-0.00042	0.00019	-8e-05	6
24193	-4e-05	3e-05	-1e-05	-1e-05	-0.00028	-0.00042	0.00019	-8e-05	6
24194	-4e-05	3e-05	-1e-05	-1e-05	-0.00028	-0.00042	0.00019	-8e-05	6
24195	-4e-05	3e-05	-1e-05	-1e-05	-0.00028	-0.00042	0.00019	-8e-05	6
24196	-4e-05	3e-05	-1e-05	-1e-05	-0.00028	-0.00042	0.00019	-8e-05	6
24197	-4e-05	3e-05	-1e-05	-1e-05	-0.00028	-0.00042	0.00019	-8e-05	6
24198	-4e-05	3e-05	-1e-05	-1e-05	-0.00028	-0.00042	0.00019	-8e-05	6
24199	-4e-05	3e-05	-1e-05	-1e-05	-0.00028	-0.00042	0.00019	-8e-05	6
24200	-4e-05	3e-05	-1e-05	-1e-05	-0.00028	-0.00042	0.00019	-8e-05	6
24201	-4e-05	3e-05	-1e-05	-1e-05	-0.00028	-0.00042	0.00019	-8e-05	6
24202	-4e-05	3e-05	-1e-05	-1e-05	-0.00028	-0.00042	0.00019	-8e-05	6
24203	0.00028	-6e-05	-2e-05	-4e-05	-0.0002	-0.00033	-0.00013	-0.0007	6
24204	-0.00079	0.00011	1e-05	4e-05	0.00053	0.00051	0.00027	-0.00085	6
24205	-0.00079	0.00011	1e-05	4e-05	0.00053	0.00051	0.00027	-0.00085	6
24206	-0.00079	0.00011	1e-05	4e-05	0.00053	0.00051	0.00027	-0.00085	6
24207	-0.00079	0.00011	1e-05	4e-05	0.00053	0.00051	0.00027	-0.00085	6
24208	-0.00079	0.00011	1e-05	4e-05	0.00053	0.00051	0.00027	-0.00085	6
24209	-0.00079	0.00011	1e-05	4e-05	0.00053	0.00051	0.00027	-0.00085	6
24210	-0.00079	0.00011	1e-05	4e-05	0.00053	0.00051	0.00027	-0.00085	6
24211	-0.00079	0.00011	1e-05	4e-05	0.00053	0.00051	0.00027	-0.00085	6
24212	-0.00079	0.00011	1e-05	4e-05	0.00053	0.00051	0.00027	-0.00085	6
24213	-0.00079	0.00011	1e-05	4e-05	0.00053	0.00051	0.00027	-0.00085	6
24214	-0.00079	0.00011	1e-05	4e-05	0.00053	0.00051	0.00027	-0.00085	6
24215	-0.00079	0.00011	1e-05	4e-05	0.00053	0.00051	0.00027	-0.00085	6
24216	-0.00079	0.00011	1e-05	4e-05	0.00053	0.00051	0.00027	-0.00085	6
24217	-0.00079	0.00011	1e-05	4e-05	0.00053	0.00051	0.00027	-0.00085	6
24218	-0.00079	0.00011	1e-05	4e-05	0.00053	0.00051	0.00027	-0.00085	6
24219	-0.00079	0.00011	1e-05	4e-05	0.00053	0.00051	0.00027	-0.00085	6
24220	-0.00079	0.00011	1e-05	4e-05	0.00053	0.00051	0.00027	-0.00085	6
24221	-0.00079	0.00011	1e-05	4e-05	0.00053	0.00051	0.00027	-0.00085	6
24222	-0.00079	0.00011	1e-05	4e-05	0.00053	0.00051	0.00027	-0.00085	6
24223	-0.00079	0.00011	1e-05	4e-05	0.00053	0.00051	0.00027	-0.00085	6
24224	-0.00079	0.00011	1e-05	4e-05	0.00053	0.00051	0.00027	-0.00085	6
24225	-0.00079	0.00011	1e-05	4e-05	0.00053	0.00051	0.00027	-0.00085	6
24226	-0.00079	0.00011	1e-05	4e-05	0.00053	0.00051	0.00027	-0.00085	6
24227	0.00054	8e-05	-4e-05	-9e-05	-0.00037	2e-05	-1e-05	0.00025	6
24228	0.00054	8e-05	-4e-05	-9e-05	-0.00037	2e-05	-1e-05	0.00025	6
24229	0.00054	8e-05	-4e-05	-9e-05	-0.00037	2e-05	-1e-05	0.00025	6
24230	0.00054	8e-05	-4e-05	-9e-05	-0.00037	2e-05	-1e-05	0.00025	6
24231	0.00054	8e-05	-4e-05	-9e-05	-0.00037	2e-05	-1e-05	0.00025	6
24232	0.00054	8e-05	-4e-05	-9e-05	-0.00037	2e-05	-1e-05	0.00025	6
24233	0.00054	8e-05	-4e-05	-9e-05	-0.00037	2e-05	-1e-05	0.00025	6
24234	0.00054	8e-05	-4e-05	-9e-05	-0.00037	2e-05	-1e-05	0.00025	6
24235	0.00054	8e-05	-4e-05	-9e-05	-0.00037	2e-05	-1e-05	0.00025	6
24236	0.00054	8e-05	-4e-05	-9e-05	-0.00037	2e-05	-1e-05	0.00025	6
24238	0.00054	8e-05	-4e-05	-9e-05	-0.00037	2e-05	-1e-05	0.00025	6
24239	0.00054	8e-05	-4e-05	-9e-05	-0.00037	2e-05	-1e-05	0.00025	6
24240	0.00054	8e-05	-4e-05	-9e-05	-0.00037	2e-05	-1e-05	0.00025	6
24241	0.00057	0.00026	9e-05	0.0001	-6e-05	-0.00047	0.00012	-0.00035	6
24242	-2e-05	0.00017	-5e-05	-0.0001	-0.00077	-0.00032	-0.00026	0.00033	6
24243	-2e-05	0.00017	-5e-05	-0.0001	-0.00077	-0.00032	-0.00026	0.00033	6
24244	-2e-05	0.00017	-5e-05	-0.0001	-0.00077	-0.00032	-0.00026	0.00033	6
24245	-2e-05	0.00017	-5e-05	-0.0001	-0.00077	-0.00032	-0.00026	0.00033	6
24246	-2e-05	0.00017	-5e-05	-0.0001	-0.00077	-0.00032	-0.00026	0.00033	6
24247	-2e-05	0.00017	-5e-05	-0.0001	-0.00077	-0.00032	-0.00026	0.00033	6
24248	-2e-05	0.00017	-5e-05	-0.0001	-0.00077	-0.00032	-0.00026	0.00033	6
24249	-2e-05	0.00017	-5e-05	-0.0001	-0.00077	-0.00032	-0.00026	0.00033	6
24250	-2e-05	0.00017	-5e-05	-0.0001	-0.00077	-0.00032	-0.00026	0.00033	6
24251	-2e-05	0.00017	-5e-05	-0.0001	-0.00077	-0.00032	-0.00026	0.00033	6
24252	-2e-05	0.00017	-5e-05	-0.0001	-0.00077	-0.00032	-0.00026	0.00033	6
24253	-2e-05	0.00017	-5e-05	-0.0001	-0.00077	-0.00032	-0.00026	0.00033	6
24254	-2e-05	0.00017	-5e-05	-0.0001	-0.00077	-0.00032	-0.00026	0.00033	6
24255	-2e-05	0.00017	-5e-05	-0.0001	-0.00077	-0.00032	-0.00026	0.00033	6
24256	-2e-05	0.00017	-5e-05	-0.0001	-0.00077	-0.00032	-0.00026	0.00033	6
24257	-2e-05	0.00017	-5e-05	-0.0001	-0.00077	-0.00032	-0.00026	0.00033	6
24258	-2e-05	0.00017	-5e-05	-0.0001	-0.00077	-0.00032	-0.00026	0.00033	6
24259	-2e-05	0.00017	-5e-05	-0.0001	-0.00077	-0.00032	-0.00026	0.00033	6
24260	-2e-05	0.00017	-5e-05	-0.0001	-0.00077	-0.00032	-0.00026	0.00033	6
24261	-2e-05	0.00017	-5e-05	-0.0001	-0.00077	-0.00032	-0.00026	0.00033	6
24262	-2e-05	0.00017	-5e-05	-0.0001	-0.00077	-0.00032	-0.00026	0.00033	6
24263	2e-05	-0.00046	-7e-05	-0.00012	-0.00032	-0.00042	-0.00015	-0.00045	6
24264	-0.00041	-0.00011	2e-05	9e-05	7e-05	-0.00057	0.00067	5e-05	6
24265	-0.00041	-0.00011	2e-05	9e-05	7e-05	-0.00057	0.00067	5e-05	6
24266	-0.00041	-0.00011	2e-05	9e-05	7e-05	-0.00057	0.00067	5e-05	6
24267	-0.00041	-0.00011	2e-05	9e-05	7e-05	-0.00057	0.00067	5e-05	6
24268	-0.00041	-0.00011	2e-05	9e-05	7e-05	-0.00057	0.00067	5e-05	6
24269	-0.00041	-0.00011	2e-05	9e-05	7e-05	-0.00057	0.00067	5e-05	6
24270	-0.00041	-0.00011	2e-05	9e-05	7e-05	-0.00057	0.00067	5e-05	6
24271	-0.00041	-0.00011	2e-05	9e-05	7e-05	-0.00057	0.00067	5e-05	6
24272	-0.00041	-0.00011	2e-05	9e-05	7e-05	-0.00057	0.00067	5e-05	6
24273	-0.00041	-0.00011	2e-05	9e-05	7e-05	-0.00057	0.00067	5e-05	6
24274	-0.00041	-0.00011	2e-05	9e-05	7e-05	-0.00057	0.00067	5e-05	6
24275	-0.00041	-0.00011	2e-05	9e-05	7e-05	-0.00057	0.00067	5e-05	6
24276	-0.00041	-0.00011	2e-05	9e-05	7e-05	-0.00057	0.00067	5e-05	6
24277	-0.00041	-0.00011	2e-05	9e-05	7e-05	-0.00057	0.00067	5e-05	6
24278	-0.00041	-0.00011	2e-05	9e-05	7e-05	-0.00057	0.00067	5e-05	6
24279	-0.00041	-0.00011	2e-05	9e-05	7e-05	-0.00057	0.00067	5e-05	6
24280	-0.00041	-0.00011	2e-05	9e-05	7e-05	-0.00057	0.00067	5e-05	6
24281	-0.00041	-0.00011	2e-05	9e-05	7e-05	-0.00057	0.00067	5e-05	6
24282	-0.00041	-0.00011	2e-05	9e-05	7e-05	-0.00057	0.00067	5e-05	6
24283	-0.00041	-0.00011	2e-05	9e-05	7e-05	-0.00057	0.00067	5e-05	6
24284	-0.00041	-0.00011	2e-05	9e-05	7e-05	-0.00057	0.00067	5e-05	6
24285	-0.00041	-0.00011	2e-05	9e-05	7e-05	-0.00057	0.00067	5e-05	6
24286	-0.00041	-0.00011	2e-05	9e-05	7e-05	-0.00057	0.00067	5e-05	6
24289	0.00033	0.00055	5e-05	-3e-05	0.00041	-0.0001	0.00067	0.00066	6
24290	0.00033	0.00055	5e-05	-3e-05	0.00041	-0.0001	0.00067	0.00066	6
24291	0.00033	0.00055	5e-05	-3e-05	0.00041	-0.0001	0.00067	0.00066	6
24292	0.00033	0.00055	5e-05	-3e-05	0.00041	-0.0001	0.00067	0.00066	6
24293	0.00033	0.00055	5e-05	-3e-05	0.00041	-0.0001	0.00067	0.00066	6
24294	0.00033	0.00055	5e-05	-3e-05	0.00041	-0.0001	0.00067	0.00066	6
24295	0.00033	0.00055	5e-05	-3e-05	0.00041	-0.0001	0.00067	0.00066	6
24296	0.00033	0.00055	5e-05	-3e-05	0.00041	-0.0001	0.00067	0.00066	6
24297	0.00033	0.00055	5e-05	-3e-05	0.00041	-0.0001	0.00067	0.00066	6
24298	0.00033	0.00055	5e-05	-3e-05	0.00041	-0.0001	0.00067	0.00066	6
24299	0.00033	0.00055	5e-05	-3e-05	0.00041	-0.0001	0.00067	0.00066	6
24300	0.00033	0.00055	5e-05	-3e-05	0.00041	-0.0001	0.00067	0.00066	6
24301	3e-05	-0.00015	-3e-05	-2e-05	-0.00022	-6e-05	-0.0003	-4e-05	6
24302	-0.00053	-0.0001	-6e-05	-7e-05	2e-05	1e-05	0.00036	-0.00111	6
24303	-0.00053	-0.0001	-6e-05	-7e-05	2e-05	1e-05	0.00036	-0.00111	6
24304	-0.00053	-0.0001	-6e-05	-7e-05	2e-05	1e-05	0.00036	-0.00111	6
24305	-0.00053	-0.0001	-6e-05	-7e-05	2e-05	1e-05	0.00036	-0.00111	6
24306	-0.00053	-0.0001	-6e-05	-7e-05	2e-05	1e-05	0.00036	-0.00111	6
24307	-0.00053	-0.0001	-6e-05	-7e-05	2e-05	1e-05	0.00036	-0.00111	6
24308	-0.00053	-0.0001	-6e-05	-7e-05	2e-05	1e-05	0.00036	-0.00111	6
24309	-0.00053	-0.0001	-6e-05	-7e-05	2e-05	1e-05	0.00036	-0.00111	6
24310	-0.00053	-0.0001	-6e-05	-7e-05	2e-05	1e-05	0.00036	-0.00111	6
24311	-0.00053	-0.0001	-6e-05	-7e-05	2e-05	1e-05	0.00036	-0.00111	6
24312	-0.00053	-0.0001	-6e-05	-7e-05	2e-05	1e-05	0.00036	-0.00111	6
24313	-0.00053	-0.0001	-6e-05	-7e-05	2e-05	1e-05	0.00036	-0.00111	6
24314	-0.00053	-0.0001	-6e-05	-7e-05	2e-05	1e-05	0.00036	-0.00111	6
24315	-0.00053	-0.0001	-6e-05	-7e-05	2e-05	1e-05	0.00036	-0.00111	6
24316	-0.00053	-0.0001	-6e-05	-7e-05	2e-05	1e-05	0.00036	-0.00111	6
24317	-0.00053	-0.0001	-6e-05	-7e-05	2e-05	1e-05	0.00036	-0.00111	6
24318	-0.00053	-0.0001	-6e-05	-7e-05	2e-05	1e-05	0.00036	-0.00111	6
24319	-0.00053	-0.0001	-6e-05	-7e-05	2e-05	1e-05	0.00036	-0.00111	6
24320	-0.00053	-0.0001	-6e-05	-7e-05	2e-05	1e-05	0.00036	-0.00111	6
24321	-0.00053	-0.0001	-6e-05	-7e-05	2e-05	1e-05	0.00036	-0.00111	6
24322	-0.00053	-0.0001	-6e-05	-7e-05	2e-05	1e-05	0.00036	-0.00111	6
24323	-0.00053	-0.0001	-6e-05	-7e-05	2e-05	1e-05	0.00036	-0.00111	6
24324	-4e-05	-0.00052	-4e-05	-1e-05	0.00059	3e-05	-0.00035	-0.00065	6
24325	-2e-05	-1e-05	1e-05	-1e-05	-0.00039	-0.00044	-0.00044	4e-05	6
24326	-2e-05	-1e-05	1e-05	-1e-05	-0.00039	-0.00044	-0.00044	4e-05	6
24327	-2e-05	-1e-05	1e-05	-1e-05	-0.00039	-0.00044	-0.00044	4e-05	6
24328	-2e-05	-1e-05	1e-05	-1e-05	-0.00039	-0.00044	-0.00044	4e-05	6
24329	-2e-05	-1e-05	1e-05	-1e-05	-0.00039	-0.00044	-0.00044	4e-05	6
24330	-2e-05	-1e-05	1e-05	-1e-05	-0.00039	-0.00044	-0.00044	4e-05	6
24331	-2e-05	-1e-05	1e-05	-1e-05	-0.00039	-0.00044	-0.00044	4e-05	6
24332	-2e-05	-1e-05	1e-05	-1e-05	-0.00039	-0.00044	-0.00044	4e-05	6
24333	-2e-05	-1e-05	1e-05	-1e-05	-0.00039	-0.00044	-0.00044	4e-05	6
24334	-2e-05	-1e-05	1e-05	-1e-05	-0.00039	-0.00044	-0.00044	4e-05	6
24335	-2e-05	-1e-05	1e-05	-1e-05	-0.00039	-0.00044	-0.00044	4e-05	6
24336	-2e-05	-1e-05	1e-05	-1e-05	-0.00039	-0.00044	-0.00044	4e-05	6
24338	-2e-05	-1e-05	1e-05	-1e-05	-0.00039	-0.00044	-0.00044	4e-05	6
24339	-2e-05	-1e-05	1e-05	-1e-05	-0.00039	-0.00044	-0.00044	4e-05	6
24340	-2e-05	-1e-05	1e-05	-1e-05	-0.00039	-0.00044	-0.00044	4e-05	6
24341	-2e-05	-1e-05	1e-05	-1e-05	-0.00039	-0.00044	-0.00044	4e-05	6
24342	-2e-05	-1e-05	1e-05	-1e-05	-0.00039	-0.00044	-0.00044	4e-05	6
24343	-2e-05	-1e-05	1e-05	-1e-05	-0.00039	-0.00044	-0.00044	4e-05	6
24344	-2e-05	-1e-05	1e-05	-1e-05	-0.00039	-0.00044	-0.00044	4e-05	6
24345	-2e-05	-1e-05	1e-05	-1e-05	-0.00039	-0.00044	-0.00044	4e-05	6
24346	-2e-05	-1e-05	1e-05	-1e-05	-0.00039	-0.00044	-0.00044	4e-05	6
24347	0.00025	9e-05	-3e-05	-9e-05	-0.00075	-0.00052	6e-05	-0.00044	6
24348	-0.00045	-0.00045	1e-05	9e-05	0.00087	0.00077	-0.00098	-0.00011	6
24349	-0.00045	-0.00045	1e-05	9e-05	0.00087	0.00077	-0.00098	-0.00011	6
24350	-0.00045	-0.00045	1e-05	9e-05	0.00087	0.00077	-0.00098	-0.00011	6
24351	-0.00045	-0.00045	1e-05	9e-05	0.00087	0.00077	-0.00098	-0.00011	6
24352	-0.00045	-0.00045	1e-05	9e-05	0.00087	0.00077	-0.00098	-0.00011	6
24353	-0.00045	-0.00045	1e-05	9e-05	0.00087	0.00077	-0.00098	-0.00011	6
24354	-0.00045	-0.00045	1e-05	9e-05	0.00087	0.00077	-0.00098	-0.00011	6
24355	-0.00045	-0.00045	1e-05	9e-05	0.00087	0.00077	-0.00098	-0.00011	6
24356	-0.00045	-0.00045	1e-05	9e-05	0.00087	0.00077	-0.00098	-0.00011	6
24357	-0.00045	-0.00045	1e-05	9e-05	0.00087	0.00077	-0.00098	-0.00011	6
24358	-0.00045	-0.00045	1e-05	9e-05	0.00087	0.00077	-0.00098	-0.00011	6
24359	-0.00045	-0.00045	1e-05	9e-05	0.00087	0.00077	-0.00098	-0.00011	6
24360	-0.00045	-0.00045	1e-05	9e-05	0.00087	0.00077	-0.00098	-0.00011	6
24361	0.00021	0.00013	-2e-05	-3e-05	-0.00017	0	0.00022	0.00024	6
24362	9e-05	-0.00021	-2e-05	-1e-05	-9e-05	0.00093	5e-05	-0.00025	6
24363	9e-05	-0.00021	-2e-05	-1e-05	-9e-05	0.00093	5e-05	-0.00025	6
24364	9e-05	-0.00021	-2e-05	-1e-05	-9e-05	0.00093	5e-05	-0.00025	6
24365	9e-05	-0.00021	-2e-05	-1e-05	-9e-05	0.00093	5e-05	-0.00025	6
24366	9e-05	-0.00021	-2e-05	-1e-05	-9e-05	0.00093	5e-05	-0.00025	6
24367	9e-05	-0.00021	-2e-05	-1e-05	-9e-05	0.00093	5e-05	-0.00025	6
24368	9e-05	-0.00021	-2e-05	-1e-05	-9e-05	0.00093	5e-05	-0.00025	6
24369	9e-05	-0.00021	-2e-05	-1e-05	-9e-05	0.00093	5e-05	-0.00025	6
24370	9e-05	-0.00021	-2e-05	-1e-05	-9e-05	0.00093	5e-05	-0.00025	6
24371	9e-05	-0.00021	-2e-05	-1e-05	-9e-05	0.00093	5e-05	-0.00025	6
24372	9e-05	-0.00021	-2e-05	-1e-05	-9e-05	0.00093	5e-05	-0.00025	6
24373	9e-05	-0.00021	-2e-05	-1e-05	-9e-05	0.00093	5e-05	-0.00025	6
24374	9e-05	-0.00021	-2e-05	-1e-05	-9e-05	0.00093	5e-05	-0.00025	6
24375	9e-05	-0.00021	-2e-05	-1e-05	-9e-05	0.00093	5e-05	-0.00025	6
24376	9e-05	-0.00021	-2e-05	-1e-05	-9e-05	0.00093	5e-05	-0.00025	6
24377	9e-05	-0.00021	-2e-05	-1e-05	-9e-05	0.00093	5e-05	-0.00025	6
24378	9e-05	-0.00021	-2e-05	-1e-05	-9e-05	0.00093	5e-05	-0.00025	6
24379	9e-05	-0.00021	-2e-05	-1e-05	-9e-05	0.00093	5e-05	-0.00025	6
24380	9e-05	-0.00021	-2e-05	-1e-05	-9e-05	0.00093	5e-05	-0.00025	6
24381	9e-05	-0.00021	-2e-05	-1e-05	-9e-05	0.00093	5e-05	-0.00025	6
24382	9e-05	-0.00021	-2e-05	-1e-05	-9e-05	0.00093	5e-05	-0.00025	6
24383	9e-05	-0.00021	-2e-05	-1e-05	-9e-05	0.00093	5e-05	-0.00025	6
24384	0.0005	0.00055	1e-05	-1e-05	-0.00015	0.00013	0.00018	0.00057	6
24385	0.0005	0.00055	1e-05	-1e-05	-0.00015	0.00013	0.00018	0.00057	6
24386	0.0005	0.00055	1e-05	-1e-05	-0.00015	0.00013	0.00018	0.00057	6
24388	0.0005	0.00055	1e-05	-1e-05	-0.00015	0.00013	0.00018	0.00057	6
24389	0.0005	0.00055	1e-05	-1e-05	-0.00015	0.00013	0.00018	0.00057	6
24390	0.0005	0.00055	1e-05	-1e-05	-0.00015	0.00013	0.00018	0.00057	6
24391	0.0005	0.00055	1e-05	-1e-05	-0.00015	0.00013	0.00018	0.00057	6
24392	0.0005	0.00055	1e-05	-1e-05	-0.00015	0.00013	0.00018	0.00057	6
24393	0.0005	0.00055	1e-05	-1e-05	-0.00015	0.00013	0.00018	0.00057	6
24394	0.0005	0.00055	1e-05	-1e-05	-0.00015	0.00013	0.00018	0.00057	6
24395	0.0005	0.00055	1e-05	-1e-05	-0.00015	0.00013	0.00018	0.00057	6
24396	0.0005	0.00055	1e-05	-1e-05	-0.00015	0.00013	0.00018	0.00057	6
24397	0.0005	0.00055	1e-05	-1e-05	-0.00015	0.00013	0.00018	0.00057	6
24398	0.0005	0.00055	1e-05	-1e-05	-0.00015	0.00013	0.00018	0.00057	6
24399	0.0005	0.00055	1e-05	-1e-05	-0.00015	0.00013	0.00018	0.00057	6
24400	0.0005	0.00055	1e-05	-1e-05	-0.00015	0.00013	0.00018	0.00057	6
24401	0.0005	0.00055	1e-05	-1e-05	-0.00015	0.00013	0.00018	0.00057	6
24402	0.0005	0.00055	1e-05	-1e-05	-0.00015	0.00013	0.00018	0.00057	6
24403	0.0005	0.00055	1e-05	-1e-05	-0.00015	0.00013	0.00018	0.00057	6
24404	0.0005	0.00055	1e-05	-1e-05	-0.00015	0.00013	0.00018	0.00057	6
24405	0.0005	0.00055	1e-05	-1e-05	-0.00015	0.00013	0.00018	0.00057	6
24406	0.0005	0.00055	1e-05	-1e-05	-0.00015	0.00013	0.00018	0.00057	6
24407	-8e-05	0.00012	0	1e-05	-0.00027	0.00017	-3e-05	-0.00026	6
24408	0.00016	0.00028	3e-05	2e-05	0.00022	-0.00047	-0.00026	0.00014	6
24409	0.00016	0.00028	3e-05	2e-05	0.00022	-0.00047	-0.00026	0.00014	6
24410	0.00016	0.00028	3e-05	2e-05	0.00022	-0.00047	-0.00026	0.00014	6
24411	0.00016	0.00028	3e-05	2e-05	0.00022	-0.00047	-0.00026	0.00014	6
24412	0.00016	0.00028	3e-05	2e-05	0.00022	-0.00047	-0.00026	0.00014	6
24413	0.00016	0.00028	3e-05	2e-05	0.00022	-0.00047	-0.00026	0.00014	6
24414	0.00016	0.00028	3e-05	2e-05	0.00022	-0.00047	-0.00026	0.00014	6
24415	0.00016	0.00028	3e-05	2e-05	0.00022	-0.00047	-0.00026	0.00014	6
24416	0.00016	0.00028	3e-05	2e-05	0.00022	-0.00047	-0.00026	0.00014	6
24417	0.00016	0.00028	3e-05	2e-05	0.00022	-0.00047	-0.00026	0.00014	6
24418	0.00016	0.00028	3e-05	2e-05	0.00022	-0.00047	-0.00026	0.00014	6
24419	0.00016	0.00028	3e-05	2e-05	0.00022	-0.00047	-0.00026	0.00014	6
24420	0.00022	5e-05	-2e-05	-3e-05	-1e-05	0.00078	-0.00045	-0.00028	6
24421	0.00022	5e-05	-2e-05	-3e-05	-1e-05	0.00078	-0.00045	-0.00028	6
24422	0.00022	5e-05	-2e-05	-3e-05	-1e-05	0.00078	-0.00045	-0.00028	6
24423	0.00022	5e-05	-2e-05	-3e-05	-1e-05	0.00078	-0.00045	-0.00028	6
24424	0.00022	5e-05	-2e-05	-3e-05	-1e-05	0.00078	-0.00045	-0.00028	6
24425	0.00022	5e-05	-2e-05	-3e-05	-1e-05	0.00078	-0.00045	-0.00028	6
24426	0.00022	5e-05	-2e-05	-3e-05	-1e-05	0.00078	-0.00045	-0.00028	6
24427	0.00022	5e-05	-2e-05	-3e-05	-1e-05	0.00078	-0.00045	-0.00028	6
24428	5e-05	-0.00015	-4e-05	-8e-05	-0.00064	0.00017	0.00014	-0.00036	6
24429	-0.00036	-0.0003	2e-05	0.00012	0.00037	-0.00029	6e-05	0.00028	6
24430	-0.00036	-0.0003	2e-05	0.00012	0.00037	-0.00029	6e-05	0.00028	6
24431	-0.00036	-0.0003	2e-05	0.00012	0.00037	-0.00029	6e-05	0.00028	6
24432	-0.00036	-0.0003	2e-05	0.00012	0.00037	-0.00029	6e-05	0.00028	6
24433	-0.00036	-0.0003	2e-05	0.00012	0.00037	-0.00029	6e-05	0.00028	6
24434	-0.00036	-0.0003	2e-05	0.00012	0.00037	-0.00029	6e-05	0.00028	6
24435	-0.00036	-0.0003	2e-05	0.00012	0.00037	-0.00029	6e-05	0.00028	6
24436	-0.00036	-0.0003	2e-05	0.00012	0.00037	-0.00029	6e-05	0.00028	6
24438	-0.00036	-0.0003	2e-05	0.00012	0.00037	-0.00029	6e-05	0.00028	6
24439	-0.00036	-0.0003	2e-05	0.00012	0.00037	-0.00029	6e-05	0.00028	6
24440	-0.00036	-0.0003	2e-05	0.00012	0.00037	-0.00029	6e-05	0.00028	6
24441	-0.00036	-0.0003	2e-05	0.00012	0.00037	-0.00029	6e-05	0.00028	6
24442	-0.00036	-0.0003	2e-05	0.00012	0.00037	-0.00029	6e-05	0.00028	6
24443	-0.00036	-0.0003	2e-05	0.00012	0.00037	-0.00029	6e-05	0.00028	6
24444	-0.0003	-6e-05	0	-2e-05	-0.00067	0.00035	-0.00014	-0.00045	6
24445	-0.0003	-6e-05	0	-2e-05	-0.00067	0.00035	-0.00014	-0.00045	6
24446	-0.0003	-6e-05	0	-2e-05	-0.00067	0.00035	-0.00014	-0.00045	6
24447	-0.0003	-6e-05	0	-2e-05	-0.00067	0.00035	-0.00014	-0.00045	6
24448	-0.0003	-6e-05	0	-2e-05	-0.00067	0.00035	-0.00014	-0.00045	6
24449	-0.0003	-6e-05	0	-2e-05	-0.00067	0.00035	-0.00014	-0.00045	6
24450	-0.0003	-6e-05	0	-2e-05	-0.00067	0.00035	-0.00014	-0.00045	6
24451	-0.0003	-6e-05	0	-2e-05	-0.00067	0.00035	-0.00014	-0.00045	6
24452	-0.0003	-6e-05	0	-2e-05	-0.00067	0.00035	-0.00014	-0.00045	6
24453	-0.0003	-6e-05	0	-2e-05	-0.00067	0.00035	-0.00014	-0.00045	6
24454	-0.0003	-6e-05	0	-2e-05	-0.00067	0.00035	-0.00014	-0.00045	6
24455	-0.0003	-6e-05	0	-2e-05	-0.00067	0.00035	-0.00014	-0.00045	6
24456	-0.0003	-6e-05	0	-2e-05	-0.00067	0.00035	-0.00014	-0.00045	6
24457	-0.0003	-6e-05	0	-2e-05	-0.00067	0.00035	-0.00014	-0.00045	6
24458	-0.0003	-6e-05	0	-2e-05	-0.00067	0.00035	-0.00014	-0.00045	6
24459	-0.0003	-6e-05	0	-2e-05	-0.00067	0.00035	-0.00014	-0.00045	6
24460	-0.0003	-6e-05	0	-2e-05	-0.00067	0.00035	-0.00014	-0.00045	6
24461	-0.0003	-6e-05	0	-2e-05	-0.00067	0.00035	-0.00014	-0.00045	6
24462	-0.0003	-6e-05	0	-2e-05	-0.00067	0.00035	-0.00014	-0.00045	6
24463	-0.0003	-6e-05	0	-2e-05	-0.00067	0.00035	-0.00014	-0.00045	6
24464	-0.0003	-6e-05	0	-2e-05	-0.00067	0.00035	-0.00014	-0.00045	6
24465	-0.0003	-6e-05	0	-2e-05	-0.00067	0.00035	-0.00014	-0.00045	6
24466	-0.0003	-6e-05	0	-2e-05	-0.00067	0.00035	-0.00014	-0.00045	6
24467	0.00041	7e-05	0	-3e-05	9e-05	-0.00036	-0.00026	-0.0002	6
24468	-0.00037	-0.00038	-4e-05	-3e-05	-0.00017	-0.00011	8e-05	-0.00067	6
24469	-0.00037	-0.00038	-4e-05	-3e-05	-0.00017	-0.00011	8e-05	-0.00067	6
24470	-0.00037	-0.00038	-4e-05	-3e-05	-0.00017	-0.00011	8e-05	-0.00067	6
24471	-0.00037	-0.00038	-4e-05	-3e-05	-0.00017	-0.00011	8e-05	-0.00067	6
24472	-0.00037	-0.00038	-4e-05	-3e-05	-0.00017	-0.00011	8e-05	-0.00067	6
24473	-0.00037	-0.00038	-4e-05	-3e-05	-0.00017	-0.00011	8e-05	-0.00067	6
24474	-0.00037	-0.00038	-4e-05	-3e-05	-0.00017	-0.00011	8e-05	-0.00067	6
24475	-0.00037	-0.00038	-4e-05	-3e-05	-0.00017	-0.00011	8e-05	-0.00067	6
24476	-0.00037	-0.00038	-4e-05	-3e-05	-0.00017	-0.00011	8e-05	-0.00067	6
24477	-0.00037	-0.00038	-4e-05	-3e-05	-0.00017	-0.00011	8e-05	-0.00067	6
24478	-0.00037	-0.00038	-4e-05	-3e-05	-0.00017	-0.00011	8e-05	-0.00067	6
24479	-0.00037	-0.00038	-4e-05	-3e-05	-0.00017	-0.00011	8e-05	-0.00067	6
24480	-0.00037	-0.00038	-4e-05	-3e-05	-0.00017	-0.00011	8e-05	-0.00067	6
24481	-0.00028	-0.00029	-3e-05	1e-05	0.00027	-0.00062	0.0003	0.00042	6
24482	-0.00054	-0.00042	-7e-05	-0.00015	-0.00098	0.00052	8e-05	-4e-05	6
24483	-0.00054	-0.00042	-7e-05	-0.00015	-0.00098	0.00052	8e-05	-4e-05	6
24484	-0.00054	-0.00042	-7e-05	-0.00015	-0.00098	0.00052	8e-05	-4e-05	6
24485	-0.00054	-0.00042	-7e-05	-0.00015	-0.00098	0.00052	8e-05	-4e-05	6
24486	-0.00054	-0.00042	-7e-05	-0.00015	-0.00098	0.00052	8e-05	-4e-05	6
24489	-0.00054	-0.00042	-7e-05	-0.00015	-0.00098	0.00052	8e-05	-4e-05	6
24490	-0.00054	-0.00042	-7e-05	-0.00015	-0.00098	0.00052	8e-05	-4e-05	6
24491	-0.00054	-0.00042	-7e-05	-0.00015	-0.00098	0.00052	8e-05	-4e-05	6
24492	-0.00054	-0.00042	-7e-05	-0.00015	-0.00098	0.00052	8e-05	-4e-05	6
24493	-0.00054	-0.00042	-7e-05	-0.00015	-0.00098	0.00052	8e-05	-4e-05	6
24494	-0.00054	-0.00042	-7e-05	-0.00015	-0.00098	0.00052	8e-05	-4e-05	6
24495	-0.00054	-0.00042	-7e-05	-0.00015	-0.00098	0.00052	8e-05	-4e-05	6
24496	-0.00054	-0.00042	-7e-05	-0.00015	-0.00098	0.00052	8e-05	-4e-05	6
24497	-0.00054	-0.00042	-7e-05	-0.00015	-0.00098	0.00052	8e-05	-4e-05	6
24498	-0.00054	-0.00042	-7e-05	-0.00015	-0.00098	0.00052	8e-05	-4e-05	6
24499	-0.00054	-0.00042	-7e-05	-0.00015	-0.00098	0.00052	8e-05	-4e-05	6
24500	-0.00054	-0.00042	-7e-05	-0.00015	-0.00098	0.00052	8e-05	-4e-05	6
24501	-0.00054	-0.00042	-7e-05	-0.00015	-0.00098	0.00052	8e-05	-4e-05	6
24502	-0.00054	-0.00042	-7e-05	-0.00015	-0.00098	0.00052	8e-05	-4e-05	6
24503	-0.00024	-0.0003	0	5e-05	0.00085	-0.00022	0.00033	-8e-05	6
24504	-0.00038	-4e-05	-1e-05	-6e-05	0.00034	-0.00063	1e-05	0.00024	6
24505	-0.00038	-4e-05	-1e-05	-6e-05	0.00034	-0.00063	1e-05	0.00024	6
24506	-0.00038	-4e-05	-1e-05	-6e-05	0.00034	-0.00063	1e-05	0.00024	6
24507	-0.00038	-4e-05	-1e-05	-6e-05	0.00034	-0.00063	1e-05	0.00024	6
24508	-0.00038	-4e-05	-1e-05	-6e-05	0.00034	-0.00063	1e-05	0.00024	6
24509	-0.00038	-4e-05	-1e-05	-6e-05	0.00034	-0.00063	1e-05	0.00024	6
24510	-0.00038	-4e-05	-1e-05	-6e-05	0.00034	-0.00063	1e-05	0.00024	6
24511	-0.00038	-4e-05	-1e-05	-6e-05	0.00034	-0.00063	1e-05	0.00024	6
24512	-0.00038	-4e-05	-1e-05	-6e-05	0.00034	-0.00063	1e-05	0.00024	6
24513	-0.00038	-4e-05	-1e-05	-6e-05	0.00034	-0.00063	1e-05	0.00024	6
24514	-0.00038	-4e-05	-1e-05	-6e-05	0.00034	-0.00063	1e-05	0.00024	6
24515	-0.00038	-4e-05	-1e-05	-6e-05	0.00034	-0.00063	1e-05	0.00024	6
24516	-0.00038	-4e-05	-1e-05	-6e-05	0.00034	-0.00063	1e-05	0.00024	6
24517	-0.00038	-4e-05	-1e-05	-6e-05	0.00034	-0.00063	1e-05	0.00024	6
24518	-0.00038	-4e-05	-1e-05	-6e-05	0.00034	-0.00063	1e-05	0.00024	6
24519	-0.00038	-4e-05	-1e-05	-6e-05	0.00034	-0.00063	1e-05	0.00024	6
24520	-0.00038	-4e-05	-1e-05	-6e-05	0.00034	-0.00063	1e-05	0.00024	6
24521	-0.00038	-4e-05	-1e-05	-6e-05	0.00034	-0.00063	1e-05	0.00024	6
24522	-0.00038	-4e-05	-1e-05	-6e-05	0.00034	-0.00063	1e-05	0.00024	6
24523	-0.00038	-4e-05	-1e-05	-6e-05	0.00034	-0.00063	1e-05	0.00024	6
24524	-0.00038	-4e-05	-1e-05	-6e-05	0.00034	-0.00063	1e-05	0.00024	6
24525	-0.00038	-4e-05	-1e-05	-6e-05	0.00034	-0.00063	1e-05	0.00024	6
24526	-0.00038	-4e-05	-1e-05	-6e-05	0.00034	-0.00063	1e-05	0.00024	6
24527	-0.00013	0.00022	4e-05	4e-05	0.0007	-1e-05	-9e-05	0.00043	6
24528	0.00012	-0.00041	-0.00011	-0.0001	-0.00049	-0.00034	-0.00038	-0.00045	6
24529	0.00012	-0.00041	-0.00011	-0.0001	-0.00049	-0.00034	-0.00038	-0.00045	6
24530	0.00012	-0.00041	-0.00011	-0.0001	-0.00049	-0.00034	-0.00038	-0.00045	6
24531	0.00012	-0.00041	-0.00011	-0.0001	-0.00049	-0.00034	-0.00038	-0.00045	6
24532	0.00012	-0.00041	-0.00011	-0.0001	-0.00049	-0.00034	-0.00038	-0.00045	6
24533	0.00012	-0.00041	-0.00011	-0.0001	-0.00049	-0.00034	-0.00038	-0.00045	6
24534	0.00012	-0.00041	-0.00011	-0.0001	-0.00049	-0.00034	-0.00038	-0.00045	6
24535	0.00012	-0.00041	-0.00011	-0.0001	-0.00049	-0.00034	-0.00038	-0.00045	6
24536	0.00012	-0.00041	-0.00011	-0.0001	-0.00049	-0.00034	-0.00038	-0.00045	6
24538	0.00012	-0.00041	-0.00011	-0.0001	-0.00049	-0.00034	-0.00038	-0.00045	6
24539	0.00012	-0.00041	-0.00011	-0.0001	-0.00049	-0.00034	-0.00038	-0.00045	6
24540	0.00012	-0.00041	-0.00011	-0.0001	-0.00049	-0.00034	-0.00038	-0.00045	6
24541	0.00019	6e-05	0	1e-05	0.00022	-0.00058	-0.00015	0.00032	6
24542	-7e-05	0.0001	-1e-05	-2e-05	-0.00083	-0.00083	-2e-05	-0.00025	6
24543	-7e-05	0.0001	-1e-05	-2e-05	-0.00083	-0.00083	-2e-05	-0.00025	6
24544	-7e-05	0.0001	-1e-05	-2e-05	-0.00083	-0.00083	-2e-05	-0.00025	6
24545	-7e-05	0.0001	-1e-05	-2e-05	-0.00083	-0.00083	-2e-05	-0.00025	6
24546	-7e-05	0.0001	-1e-05	-2e-05	-0.00083	-0.00083	-2e-05	-0.00025	6
24547	-7e-05	0.0001	-1e-05	-2e-05	-0.00083	-0.00083	-2e-05	-0.00025	6
24548	-7e-05	0.0001	-1e-05	-2e-05	-0.00083	-0.00083	-2e-05	-0.00025	6
24549	-7e-05	0.0001	-1e-05	-2e-05	-0.00083	-0.00083	-2e-05	-0.00025	6
24550	-7e-05	0.0001	-1e-05	-2e-05	-0.00083	-0.00083	-2e-05	-0.00025	6
24551	-7e-05	0.0001	-1e-05	-2e-05	-0.00083	-0.00083	-2e-05	-0.00025	6
24552	-7e-05	0.0001	-1e-05	-2e-05	-0.00083	-0.00083	-2e-05	-0.00025	6
24553	-7e-05	0.0001	-1e-05	-2e-05	-0.00083	-0.00083	-2e-05	-0.00025	6
24554	-7e-05	0.0001	-1e-05	-2e-05	-0.00083	-0.00083	-2e-05	-0.00025	6
24555	-7e-05	0.0001	-1e-05	-2e-05	-0.00083	-0.00083	-2e-05	-0.00025	6
24556	-7e-05	0.0001	-1e-05	-2e-05	-0.00083	-0.00083	-2e-05	-0.00025	6
24557	-7e-05	0.0001	-1e-05	-2e-05	-0.00083	-0.00083	-2e-05	-0.00025	6
24558	-7e-05	0.0001	-1e-05	-2e-05	-0.00083	-0.00083	-2e-05	-0.00025	6
24559	-7e-05	0.0001	-1e-05	-2e-05	-0.00083	-0.00083	-2e-05	-0.00025	6
24560	-7e-05	0.0001	-1e-05	-2e-05	-0.00083	-0.00083	-2e-05	-0.00025	6
24561	-7e-05	0.0001	-1e-05	-2e-05	-0.00083	-0.00083	-2e-05	-0.00025	6
24562	-7e-05	0.0001	-1e-05	-2e-05	-0.00083	-0.00083	-2e-05	-0.00025	6
24563	0.00035	0.00012	1e-05	1e-05	0.00077	0.00035	-0.00011	-0.00021	6
24564	0.00022	0.00018	-3e-05	-4e-05	-7e-05	-0.00049	-2e-05	0.00056	6
24565	0.00022	0.00018	-3e-05	-4e-05	-7e-05	-0.00049	-2e-05	0.00056	6
24566	0.00022	0.00018	-3e-05	-4e-05	-7e-05	-0.00049	-2e-05	0.00056	6
24567	0.00022	0.00018	-3e-05	-4e-05	-7e-05	-0.00049	-2e-05	0.00056	6
24568	0.00022	0.00018	-3e-05	-4e-05	-7e-05	-0.00049	-2e-05	0.00056	6
24569	0.00022	0.00018	-3e-05	-4e-05	-7e-05	-0.00049	-2e-05	0.00056	6
24570	0.00022	0.00018	-3e-05	-4e-05	-7e-05	-0.00049	-2e-05	0.00056	6
24571	0.00022	0.00018	-3e-05	-4e-05	-7e-05	-0.00049	-2e-05	0.00056	6
24572	0.00022	0.00018	-3e-05	-4e-05	-7e-05	-0.00049	-2e-05	0.00056	6
24573	0.00022	0.00018	-3e-05	-4e-05	-7e-05	-0.00049	-2e-05	0.00056	6
24574	0.00022	0.00018	-3e-05	-4e-05	-7e-05	-0.00049	-2e-05	0.00056	6
24575	0.00022	0.00018	-3e-05	-4e-05	-7e-05	-0.00049	-2e-05	0.00056	6
24576	0.00022	0.00018	-3e-05	-4e-05	-7e-05	-0.00049	-2e-05	0.00056	6
24577	0.00022	0.00018	-3e-05	-4e-05	-7e-05	-0.00049	-2e-05	0.00056	6
24578	0.00022	0.00018	-3e-05	-4e-05	-7e-05	-0.00049	-2e-05	0.00056	6
24579	0.00022	0.00018	-3e-05	-4e-05	-7e-05	-0.00049	-2e-05	0.00056	6
24580	0.00022	0.00018	-3e-05	-4e-05	-7e-05	-0.00049	-2e-05	0.00056	6
24581	0.00022	0.00018	-3e-05	-4e-05	-7e-05	-0.00049	-2e-05	0.00056	6
24582	0.00022	0.00018	-3e-05	-4e-05	-7e-05	-0.00049	-2e-05	0.00056	6
24583	0.00022	0.00018	-3e-05	-4e-05	-7e-05	-0.00049	-2e-05	0.00056	6
24584	0.00022	0.00018	-3e-05	-4e-05	-7e-05	-0.00049	-2e-05	0.00056	6
24585	0.00022	0.00018	-3e-05	-4e-05	-7e-05	-0.00049	-2e-05	0.00056	6
24586	5e-05	0.00017	2e-05	7e-05	-2e-05	0.00021	0.00036	-0.00049	6
24588	0.00039	0.00021	3e-05	1e-05	0.00045	0.00053	6e-05	0.00083	6
24589	0.00039	0.00021	3e-05	1e-05	0.00045	0.00053	6e-05	0.00083	6
24590	0.00039	0.00021	3e-05	1e-05	0.00045	0.00053	6e-05	0.00083	6
24591	0.00039	0.00021	3e-05	1e-05	0.00045	0.00053	6e-05	0.00083	6
24592	0.00039	0.00021	3e-05	1e-05	0.00045	0.00053	6e-05	0.00083	6
24593	0.00039	0.00021	3e-05	1e-05	0.00045	0.00053	6e-05	0.00083	6
24594	0.00039	0.00021	3e-05	1e-05	0.00045	0.00053	6e-05	0.00083	6
24595	0.00039	0.00021	3e-05	1e-05	0.00045	0.00053	6e-05	0.00083	6
24596	0.00039	0.00021	3e-05	1e-05	0.00045	0.00053	6e-05	0.00083	6
24597	0.00039	0.00021	3e-05	1e-05	0.00045	0.00053	6e-05	0.00083	6
24598	0.00039	0.00021	3e-05	1e-05	0.00045	0.00053	6e-05	0.00083	6
24599	0.00039	0.00021	3e-05	1e-05	0.00045	0.00053	6e-05	0.00083	6
24600	-0.00016	0.00052	7e-05	2e-05	0.0004	0.00077	0.00015	-0.00046	6
24601	-0.00016	0.00052	7e-05	2e-05	0.0004	0.00077	0.00015	-0.00046	6
24602	-0.00016	0.00052	7e-05	2e-05	0.0004	0.00077	0.00015	-0.00046	6
24603	-0.00016	0.00052	7e-05	2e-05	0.0004	0.00077	0.00015	-0.00046	6
24604	-0.00016	0.00052	7e-05	2e-05	0.0004	0.00077	0.00015	-0.00046	6
24605	-0.00016	0.00052	7e-05	2e-05	0.0004	0.00077	0.00015	-0.00046	6
24606	-0.00016	0.00052	7e-05	2e-05	0.0004	0.00077	0.00015	-0.00046	6
24607	-0.00016	0.00052	7e-05	2e-05	0.0004	0.00077	0.00015	-0.00046	6
24608	-0.00014	-0.00019	-3e-05	-1e-05	3e-05	0.00023	-0.00021	0.00011	6
24609	2e-05	-0.00028	0	-2e-05	-3e-05	0.00013	0.00017	0.00015	6
24610	2e-05	-0.00028	0	-2e-05	-3e-05	0.00013	0.00017	0.00015	6
24611	2e-05	-0.00028	0	-2e-05	-3e-05	0.00013	0.00017	0.00015	6
24612	2e-05	-0.00028	0	-2e-05	-3e-05	0.00013	0.00017	0.00015	6
24613	2e-05	-0.00028	0	-2e-05	-3e-05	0.00013	0.00017	0.00015	6
24614	2e-05	-0.00028	0	-2e-05	-3e-05	0.00013	0.00017	0.00015	6
24615	2e-05	-0.00028	0	-2e-05	-3e-05	0.00013	0.00017	0.00015	6
24616	2e-05	-0.00028	0	-2e-05	-3e-05	0.00013	0.00017	0.00015	6
24617	2e-05	-0.00028	0	-2e-05	-3e-05	0.00013	0.00017	0.00015	6
24618	2e-05	-0.00028	0	-2e-05	-3e-05	0.00013	0.00017	0.00015	6
24619	2e-05	-0.00028	0	-2e-05	-3e-05	0.00013	0.00017	0.00015	6
24620	2e-05	-0.00028	0	-2e-05	-3e-05	0.00013	0.00017	0.00015	6
24621	2e-05	-0.00028	0	-2e-05	-3e-05	0.00013	0.00017	0.00015	6
24622	2e-05	-0.00028	0	-2e-05	-3e-05	0.00013	0.00017	0.00015	6
24623	0.00025	0.00034	2e-05	-3e-05	-0.00062	0.00017	-0.00046	0.0003	6
24624	0.00015	0.00013	-1e-05	-2e-05	4e-05	8e-05	-0.00032	-0.0006	6
24625	0.00015	0.00013	-1e-05	-2e-05	4e-05	8e-05	-0.00032	-0.0006	6
24626	0.00015	0.00013	-1e-05	-2e-05	4e-05	8e-05	-0.00032	-0.0006	6
24627	0.00015	0.00013	-1e-05	-2e-05	4e-05	8e-05	-0.00032	-0.0006	6
24628	0.00015	0.00013	-1e-05	-2e-05	4e-05	8e-05	-0.00032	-0.0006	6
24629	0.00015	0.00013	-1e-05	-2e-05	4e-05	8e-05	-0.00032	-0.0006	6
24630	0.00015	0.00013	-1e-05	-2e-05	4e-05	8e-05	-0.00032	-0.0006	6
24631	0.00015	0.00013	-1e-05	-2e-05	4e-05	8e-05	-0.00032	-0.0006	6
24632	0.00015	0.00013	-1e-05	-2e-05	4e-05	8e-05	-0.00032	-0.0006	6
24633	0.00015	0.00013	-1e-05	-2e-05	4e-05	8e-05	-0.00032	-0.0006	6
24634	0.00015	0.00013	-1e-05	-2e-05	4e-05	8e-05	-0.00032	-0.0006	6
24635	0.00015	0.00013	-1e-05	-2e-05	4e-05	8e-05	-0.00032	-0.0006	6
24636	0.00015	0.00013	-1e-05	-2e-05	4e-05	8e-05	-0.00032	-0.0006	6
24638	0.00015	0.00013	-1e-05	-2e-05	4e-05	8e-05	-0.00032	-0.0006	6
24639	0.00015	0.00013	-1e-05	-2e-05	4e-05	8e-05	-0.00032	-0.0006	6
24640	0.00015	0.00013	-1e-05	-2e-05	4e-05	8e-05	-0.00032	-0.0006	6
24641	0.00015	0.00013	-1e-05	-2e-05	4e-05	8e-05	-0.00032	-0.0006	6
24642	0.00015	0.00013	-1e-05	-2e-05	4e-05	8e-05	-0.00032	-0.0006	6
24643	0.00015	0.00013	-1e-05	-2e-05	4e-05	8e-05	-0.00032	-0.0006	6
24644	0.00015	0.00013	-1e-05	-2e-05	4e-05	8e-05	-0.00032	-0.0006	6
24645	0.00015	0.00013	-1e-05	-2e-05	4e-05	8e-05	-0.00032	-0.0006	6
24646	0.00015	0.00013	-1e-05	-2e-05	4e-05	8e-05	-0.00032	-0.0006	6
24647	0.00024	-3e-05	0	3e-05	0.00024	0.00054	-0.00021	-0.00095	6
24648	0.00024	-3e-05	0	3e-05	0.00024	0.00054	-0.00021	-0.00095	6
24649	0.00024	-3e-05	0	3e-05	0.00024	0.00054	-0.00021	-0.00095	6
24650	0.00024	-3e-05	0	3e-05	0.00024	0.00054	-0.00021	-0.00095	6
24651	0.00024	-3e-05	0	3e-05	0.00024	0.00054	-0.00021	-0.00095	6
24652	0.00024	-3e-05	0	3e-05	0.00024	0.00054	-0.00021	-0.00095	6
24653	0.00024	-3e-05	0	3e-05	0.00024	0.00054	-0.00021	-0.00095	6
24654	0.00024	-3e-05	0	3e-05	0.00024	0.00054	-0.00021	-0.00095	6
24655	0.00024	-3e-05	0	3e-05	0.00024	0.00054	-0.00021	-0.00095	6
24656	0.00024	-3e-05	0	3e-05	0.00024	0.00054	-0.00021	-0.00095	6
24657	0.00024	-3e-05	0	3e-05	0.00024	0.00054	-0.00021	-0.00095	6
24658	0.00024	-3e-05	0	3e-05	0.00024	0.00054	-0.00021	-0.00095	6
24659	0.00024	-3e-05	0	3e-05	0.00024	0.00054	-0.00021	-0.00095	6
24660	0.00021	6e-05	-7e-05	-6e-05	-4e-05	-0.00033	-0.00071	2e-05	6
24661	0.00021	6e-05	-7e-05	-6e-05	-4e-05	-0.00033	-0.00071	2e-05	6
24662	0.00021	6e-05	-7e-05	-6e-05	-4e-05	-0.00033	-0.00071	2e-05	6
24663	0.00021	6e-05	-7e-05	-6e-05	-4e-05	-0.00033	-0.00071	2e-05	6
24664	0.00021	6e-05	-7e-05	-6e-05	-4e-05	-0.00033	-0.00071	2e-05	6
24665	0.00021	6e-05	-7e-05	-6e-05	-4e-05	-0.00033	-0.00071	2e-05	6
24666	0.00021	6e-05	-7e-05	-6e-05	-4e-05	-0.00033	-0.00071	2e-05	6
24667	0.00021	6e-05	-7e-05	-6e-05	-4e-05	-0.00033	-0.00071	2e-05	6
24668	0.00021	6e-05	-7e-05	-6e-05	-4e-05	-0.00033	-0.00071	2e-05	6
24669	0.00026	0.00019	4e-05	4e-05	0.00012	-0.00045	-0.00055	-0.00025	6
24670	0.00026	0.00019	4e-05	4e-05	0.00012	-0.00045	-0.00055	-0.00025	6
24671	0.00026	0.00019	4e-05	4e-05	0.00012	-0.00045	-0.00055	-0.00025	6
24672	0.00026	0.00019	4e-05	4e-05	0.00012	-0.00045	-0.00055	-0.00025	6
24673	0.00026	0.00019	4e-05	4e-05	0.00012	-0.00045	-0.00055	-0.00025	6
24674	0.00026	0.00019	4e-05	4e-05	0.00012	-0.00045	-0.00055	-0.00025	6
24675	0.00026	0.00019	4e-05	4e-05	0.00012	-0.00045	-0.00055	-0.00025	6
24676	0.00026	0.00019	4e-05	4e-05	0.00012	-0.00045	-0.00055	-0.00025	6
24677	0.00026	0.00019	4e-05	4e-05	0.00012	-0.00045	-0.00055	-0.00025	6
24678	0.00026	0.00019	4e-05	4e-05	0.00012	-0.00045	-0.00055	-0.00025	6
24679	0.00026	0.00019	4e-05	4e-05	0.00012	-0.00045	-0.00055	-0.00025	6
24680	0.00026	0.00019	4e-05	4e-05	0.00012	-0.00045	-0.00055	-0.00025	6
24681	0.00026	0.00019	4e-05	4e-05	0.00012	-0.00045	-0.00055	-0.00025	6
24682	0.00026	0.00019	4e-05	4e-05	0.00012	-0.00045	-0.00055	-0.00025	6
24683	0.00026	0.00019	4e-05	4e-05	0.00012	-0.00045	-0.00055	-0.00025	6
24684	3e-05	0.00038	4e-05	4e-05	-0.00056	0.00035	0.00122	0.00035	6
24685	0.00028	-0.00025	6e-05	9e-05	-0.00015	0.00049	0.00039	0.00035	6
24686	0.00028	-0.00025	6e-05	9e-05	-0.00015	0.00049	0.00039	0.00035	6
24688	0.00028	-0.00025	6e-05	9e-05	-0.00015	0.00049	0.00039	0.00035	6
24689	0.00028	-0.00025	6e-05	9e-05	-0.00015	0.00049	0.00039	0.00035	6
24690	0.00028	-0.00025	6e-05	9e-05	-0.00015	0.00049	0.00039	0.00035	6
24691	0.00028	-0.00025	6e-05	9e-05	-0.00015	0.00049	0.00039	0.00035	6
24692	0.00028	-0.00025	6e-05	9e-05	-0.00015	0.00049	0.00039	0.00035	6
24693	0.00028	-0.00025	6e-05	9e-05	-0.00015	0.00049	0.00039	0.00035	6
24694	0.00028	-0.00025	6e-05	9e-05	-0.00015	0.00049	0.00039	0.00035	6
24695	0.00028	-0.00025	6e-05	9e-05	-0.00015	0.00049	0.00039	0.00035	6
24696	0.00028	-0.00025	6e-05	9e-05	-0.00015	0.00049	0.00039	0.00035	6
24697	0.00028	-0.00025	6e-05	9e-05	-0.00015	0.00049	0.00039	0.00035	6
24698	0.00028	-0.00025	6e-05	9e-05	-0.00015	0.00049	0.00039	0.00035	6
24699	0.00028	-0.00025	6e-05	9e-05	-0.00015	0.00049	0.00039	0.00035	6
24700	0.00028	-0.00025	6e-05	9e-05	-0.00015	0.00049	0.00039	0.00035	6
24701	0.00028	-0.00025	6e-05	9e-05	-0.00015	0.00049	0.00039	0.00035	6
24702	0.00028	-0.00025	6e-05	9e-05	-0.00015	0.00049	0.00039	0.00035	6
24703	0.00028	-0.00025	6e-05	9e-05	-0.00015	0.00049	0.00039	0.00035	6
24704	0.00028	-0.00025	6e-05	9e-05	-0.00015	0.00049	0.00039	0.00035	6
24705	0.00028	-0.00025	6e-05	9e-05	-0.00015	0.00049	0.00039	0.00035	6
24706	0.00028	-0.00025	6e-05	9e-05	-0.00015	0.00049	0.00039	0.00035	6
24707	-0.00014	-0.00042	-9e-05	-5e-05	0.00037	3e-05	6e-05	-0.00083	6
24708	2e-05	5e-05	-1e-05	2e-05	0.00059	0.00099	-0.0001	0.00059	6
24709	2e-05	5e-05	-1e-05	2e-05	0.00059	0.00099	-0.0001	0.00059	6
24710	2e-05	5e-05	-1e-05	2e-05	0.00059	0.00099	-0.0001	0.00059	6
24711	2e-05	5e-05	-1e-05	2e-05	0.00059	0.00099	-0.0001	0.00059	6
24712	2e-05	5e-05	-1e-05	2e-05	0.00059	0.00099	-0.0001	0.00059	6
24713	2e-05	5e-05	-1e-05	2e-05	0.00059	0.00099	-0.0001	0.00059	6
24714	2e-05	5e-05	-1e-05	2e-05	0.00059	0.00099	-0.0001	0.00059	6
24715	2e-05	5e-05	-1e-05	2e-05	0.00059	0.00099	-0.0001	0.00059	6
24716	2e-05	5e-05	-1e-05	2e-05	0.00059	0.00099	-0.0001	0.00059	6
24717	2e-05	5e-05	-1e-05	2e-05	0.00059	0.00099	-0.0001	0.00059	6
24718	2e-05	5e-05	-1e-05	2e-05	0.00059	0.00099	-0.0001	0.00059	6
24719	2e-05	5e-05	-1e-05	2e-05	0.00059	0.00099	-0.0001	0.00059	6
24720	3e-05	-3e-05	0	3e-05	-0.0001	-0.00038	0.00018	-0.00015	6
24721	3e-05	-3e-05	0	3e-05	-0.0001	-0.00038	0.00018	-0.00015	6
24722	3e-05	-3e-05	0	3e-05	-0.0001	-0.00038	0.00018	-0.00015	6
24723	3e-05	-3e-05	0	3e-05	-0.0001	-0.00038	0.00018	-0.00015	6
24724	3e-05	-3e-05	0	3e-05	-0.0001	-0.00038	0.00018	-0.00015	6
24725	3e-05	-3e-05	0	3e-05	-0.0001	-0.00038	0.00018	-0.00015	6
24726	3e-05	-3e-05	0	3e-05	-0.0001	-0.00038	0.00018	-0.00015	6
24727	3e-05	-3e-05	0	3e-05	-0.0001	-0.00038	0.00018	-0.00015	6
24728	0.00024	2e-05	-1e-05	2e-05	-0.00018	-8e-05	0.0002	0.00013	6
24729	-1e-05	0.00014	-3e-05	-4e-05	0.00013	0.00012	0.00021	-5e-05	6
24730	-1e-05	0.00014	-3e-05	-4e-05	0.00013	0.00012	0.00021	-5e-05	6
24731	-1e-05	0.00014	-3e-05	-4e-05	0.00013	0.00012	0.00021	-5e-05	6
24732	-1e-05	0.00014	-3e-05	-4e-05	0.00013	0.00012	0.00021	-5e-05	6
24733	-1e-05	0.00014	-3e-05	-4e-05	0.00013	0.00012	0.00021	-5e-05	6
24734	-1e-05	0.00014	-3e-05	-4e-05	0.00013	0.00012	0.00021	-5e-05	6
24735	-1e-05	0.00014	-3e-05	-4e-05	0.00013	0.00012	0.00021	-5e-05	6
24736	-1e-05	0.00014	-3e-05	-4e-05	0.00013	0.00012	0.00021	-5e-05	6
24738	-1e-05	0.00014	-3e-05	-4e-05	0.00013	0.00012	0.00021	-5e-05	6
24739	-1e-05	0.00014	-3e-05	-4e-05	0.00013	0.00012	0.00021	-5e-05	6
24740	-1e-05	0.00014	-3e-05	-4e-05	0.00013	0.00012	0.00021	-5e-05	6
24741	-1e-05	0.00014	-3e-05	-4e-05	0.00013	0.00012	0.00021	-5e-05	6
24742	-1e-05	0.00014	-3e-05	-4e-05	0.00013	0.00012	0.00021	-5e-05	6
24743	1e-05	9e-05	-8e-05	-0.0001	-0.00031	-0.00085	-0.00063	-0.00029	6
24744	-0.00029	2e-05	-3e-05	-5e-05	6e-05	-3e-05	-0.00013	-0.00073	6
24745	-0.00029	2e-05	-3e-05	-5e-05	6e-05	-3e-05	-0.00013	-0.00073	6
24746	-0.00029	2e-05	-3e-05	-5e-05	6e-05	-3e-05	-0.00013	-0.00073	6
24747	-0.00029	2e-05	-3e-05	-5e-05	6e-05	-3e-05	-0.00013	-0.00073	6
24748	-0.00029	2e-05	-3e-05	-5e-05	6e-05	-3e-05	-0.00013	-0.00073	6
24749	-0.00029	2e-05	-3e-05	-5e-05	6e-05	-3e-05	-0.00013	-0.00073	6
24750	-0.00029	2e-05	-3e-05	-5e-05	6e-05	-3e-05	-0.00013	-0.00073	6
24751	-0.00029	2e-05	-3e-05	-5e-05	6e-05	-3e-05	-0.00013	-0.00073	6
24752	-0.00029	2e-05	-3e-05	-5e-05	6e-05	-3e-05	-0.00013	-0.00073	6
24753	-0.00029	2e-05	-3e-05	-5e-05	6e-05	-3e-05	-0.00013	-0.00073	6
24754	-0.00029	2e-05	-3e-05	-5e-05	6e-05	-3e-05	-0.00013	-0.00073	6
24755	-0.00029	2e-05	-3e-05	-5e-05	6e-05	-3e-05	-0.00013	-0.00073	6
24756	-0.00029	2e-05	-3e-05	-5e-05	6e-05	-3e-05	-0.00013	-0.00073	6
24757	-0.00029	2e-05	-3e-05	-5e-05	6e-05	-3e-05	-0.00013	-0.00073	6
24758	-0.00029	2e-05	-3e-05	-5e-05	6e-05	-3e-05	-0.00013	-0.00073	6
24759	-0.00029	2e-05	-3e-05	-5e-05	6e-05	-3e-05	-0.00013	-0.00073	6
24760	-0.00029	2e-05	-3e-05	-5e-05	6e-05	-3e-05	-0.00013	-0.00073	6
24761	-0.00029	2e-05	-3e-05	-5e-05	6e-05	-3e-05	-0.00013	-0.00073	6
24762	-0.00029	2e-05	-3e-05	-5e-05	6e-05	-3e-05	-0.00013	-0.00073	6
24763	-0.00029	2e-05	-3e-05	-5e-05	6e-05	-3e-05	-0.00013	-0.00073	6
24764	-0.00029	2e-05	-3e-05	-5e-05	6e-05	-3e-05	-0.00013	-0.00073	6
24765	-0.00029	2e-05	-3e-05	-5e-05	6e-05	-3e-05	-0.00013	-0.00073	6
24766	-0.00029	2e-05	-3e-05	-5e-05	6e-05	-3e-05	-0.00013	-0.00073	6
24767	0.00027	0	-1e-05	-4e-05	-0.00029	-1e-05	0.0003	0.00021	6
24768	0.00027	0	-1e-05	-4e-05	-0.00029	-1e-05	0.0003	0.00021	6
24769	0.00027	0	-1e-05	-4e-05	-0.00029	-1e-05	0.0003	0.00021	6
24770	0.00027	0	-1e-05	-4e-05	-0.00029	-1e-05	0.0003	0.00021	6
24771	0.00027	0	-1e-05	-4e-05	-0.00029	-1e-05	0.0003	0.00021	6
24772	0.00027	0	-1e-05	-4e-05	-0.00029	-1e-05	0.0003	0.00021	6
24773	0.00027	0	-1e-05	-4e-05	-0.00029	-1e-05	0.0003	0.00021	6
24774	0.00027	0	-1e-05	-4e-05	-0.00029	-1e-05	0.0003	0.00021	6
24775	0.00027	0	-1e-05	-4e-05	-0.00029	-1e-05	0.0003	0.00021	6
24776	0.00027	0	-1e-05	-4e-05	-0.00029	-1e-05	0.0003	0.00021	6
24777	0.00027	0	-1e-05	-4e-05	-0.00029	-1e-05	0.0003	0.00021	6
24778	0.00027	0	-1e-05	-4e-05	-0.00029	-1e-05	0.0003	0.00021	6
24779	0.00027	0	-1e-05	-4e-05	-0.00029	-1e-05	0.0003	0.00021	6
24780	-0.00022	-7e-05	-3e-05	-1e-05	0.00014	-0.0002	-0.0007	-0.00014	6
24781	-0.00022	-7e-05	-3e-05	-1e-05	0.00014	-0.0002	-0.0007	-0.00014	6
24782	-0.00022	-7e-05	-3e-05	-1e-05	0.00014	-0.0002	-0.0007	-0.00014	6
24783	-0.00022	-7e-05	-3e-05	-1e-05	0.00014	-0.0002	-0.0007	-0.00014	6
24784	-0.00022	-7e-05	-3e-05	-1e-05	0.00014	-0.0002	-0.0007	-0.00014	6
24785	-0.00022	-7e-05	-3e-05	-1e-05	0.00014	-0.0002	-0.0007	-0.00014	6
24786	-0.00022	-7e-05	-3e-05	-1e-05	0.00014	-0.0002	-0.0007	-0.00014	6
24788	-0.00022	-7e-05	-3e-05	-1e-05	0.00014	-0.0002	-0.0007	-0.00014	6
24789	-5e-05	-0.00039	-4e-05	-1e-05	0.00023	-0.00027	0.00036	-0.00047	6
24790	-5e-05	-0.00039	-4e-05	-1e-05	0.00023	-0.00027	0.00036	-0.00047	6
24791	-5e-05	-0.00039	-4e-05	-1e-05	0.00023	-0.00027	0.00036	-0.00047	6
24792	-5e-05	-0.00039	-4e-05	-1e-05	0.00023	-0.00027	0.00036	-0.00047	6
24793	-5e-05	-0.00039	-4e-05	-1e-05	0.00023	-0.00027	0.00036	-0.00047	6
24794	-5e-05	-0.00039	-4e-05	-1e-05	0.00023	-0.00027	0.00036	-0.00047	6
24795	-5e-05	-0.00039	-4e-05	-1e-05	0.00023	-0.00027	0.00036	-0.00047	6
24796	-5e-05	-0.00039	-4e-05	-1e-05	0.00023	-0.00027	0.00036	-0.00047	6
24797	-5e-05	-0.00039	-4e-05	-1e-05	0.00023	-0.00027	0.00036	-0.00047	6
24798	-5e-05	-0.00039	-4e-05	-1e-05	0.00023	-0.00027	0.00036	-0.00047	6
24799	-5e-05	-0.00039	-4e-05	-1e-05	0.00023	-0.00027	0.00036	-0.00047	6
24800	-5e-05	-0.00039	-4e-05	-1e-05	0.00023	-0.00027	0.00036	-0.00047	6
24801	-5e-05	-0.00039	-4e-05	-1e-05	0.00023	-0.00027	0.00036	-0.00047	6
24802	-5e-05	-0.00039	-4e-05	-1e-05	0.00023	-0.00027	0.00036	-0.00047	6
24803	0.00022	-0.00014	-2e-05	3e-05	-0.00021	-0.00014	6e-05	0.00033	6
24804	-0.00011	4e-05	-2e-05	-4e-05	-0.00054	-0.00028	0.0003	-6e-05	6
24806	-0.00011	4e-05	-2e-05	-4e-05	-0.00054	-0.00028	0.0003	-6e-05	6
24807	-0.00011	4e-05	-2e-05	-4e-05	-0.00054	-0.00028	0.0003	-6e-05	6
24808	-0.00011	4e-05	-2e-05	-4e-05	-0.00054	-0.00028	0.0003	-6e-05	6
24809	-0.00011	4e-05	-2e-05	-4e-05	-0.00054	-0.00028	0.0003	-6e-05	6
24810	-0.00011	4e-05	-2e-05	-4e-05	-0.00054	-0.00028	0.0003	-6e-05	6
24811	-0.00011	4e-05	-2e-05	-4e-05	-0.00054	-0.00028	0.0003	-6e-05	6
24812	-0.00011	4e-05	-2e-05	-4e-05	-0.00054	-0.00028	0.0003	-6e-05	6
24813	-0.00011	4e-05	-2e-05	-4e-05	-0.00054	-0.00028	0.0003	-6e-05	6
24814	-0.00011	4e-05	-2e-05	-4e-05	-0.00054	-0.00028	0.0003	-6e-05	6
24815	-0.00011	4e-05	-2e-05	-4e-05	-0.00054	-0.00028	0.0003	-6e-05	6
24816	-0.00011	4e-05	-2e-05	-4e-05	-0.00054	-0.00028	0.0003	-6e-05	6
24817	-0.00011	4e-05	-2e-05	-4e-05	-0.00054	-0.00028	0.0003	-6e-05	6
24818	-0.00011	4e-05	-2e-05	-4e-05	-0.00054	-0.00028	0.0003	-6e-05	6
24819	-0.00011	4e-05	-2e-05	-4e-05	-0.00054	-0.00028	0.0003	-6e-05	6
24820	-0.00011	4e-05	-2e-05	-4e-05	-0.00054	-0.00028	0.0003	-6e-05	6
24821	-0.00011	4e-05	-2e-05	-4e-05	-0.00054	-0.00028	0.0003	-6e-05	6
24822	-0.00011	4e-05	-2e-05	-4e-05	-0.00054	-0.00028	0.0003	-6e-05	6
24823	-0.00011	4e-05	-2e-05	-4e-05	-0.00054	-0.00028	0.0003	-6e-05	6
24824	-0.00011	4e-05	-2e-05	-4e-05	-0.00054	-0.00028	0.0003	-6e-05	6
24825	-0.00011	4e-05	-2e-05	-4e-05	-0.00054	-0.00028	0.0003	-6e-05	6
24826	-0.00011	4e-05	-2e-05	-4e-05	-0.00054	-0.00028	0.0003	-6e-05	6
24827	0.00021	-6e-05	2e-05	-1e-05	-0.00021	-0.00081	-0.00046	0.00018	6
24828	-0.00014	5e-05	-2e-05	2e-05	0.00025	0.00013	0.00011	0.00017	6
24829	-0.00014	5e-05	-2e-05	2e-05	0.00025	0.00013	0.00011	0.00017	6
24830	-0.00014	5e-05	-2e-05	2e-05	0.00025	0.00013	0.00011	0.00017	6
24831	-0.00014	5e-05	-2e-05	2e-05	0.00025	0.00013	0.00011	0.00017	6
24832	-0.00014	5e-05	-2e-05	2e-05	0.00025	0.00013	0.00011	0.00017	6
24833	-0.00014	5e-05	-2e-05	2e-05	0.00025	0.00013	0.00011	0.00017	6
24834	-0.00014	5e-05	-2e-05	2e-05	0.00025	0.00013	0.00011	0.00017	6
24835	-0.00014	5e-05	-2e-05	2e-05	0.00025	0.00013	0.00011	0.00017	6
24836	-0.00014	5e-05	-2e-05	2e-05	0.00025	0.00013	0.00011	0.00017	6
24838	-0.00014	5e-05	-2e-05	2e-05	0.00025	0.00013	0.00011	0.00017	6
24839	-0.00014	5e-05	-2e-05	2e-05	0.00025	0.00013	0.00011	0.00017	6
24840	-0.00014	5e-05	-2e-05	2e-05	0.00025	0.00013	0.00011	0.00017	6
24841	0.0002	0.00029	4e-05	1e-05	-0.00022	-0.00019	5e-05	-0.00015	6
24842	0.0002	0.00029	4e-05	1e-05	-0.00022	-0.00019	5e-05	-0.00015	6
24843	0.0002	0.00029	4e-05	1e-05	-0.00022	-0.00019	5e-05	-0.00015	6
24844	0.0002	0.00029	4e-05	1e-05	-0.00022	-0.00019	5e-05	-0.00015	6
24845	0.0002	0.00029	4e-05	1e-05	-0.00022	-0.00019	5e-05	-0.00015	6
24846	0.0002	0.00029	4e-05	1e-05	-0.00022	-0.00019	5e-05	-0.00015	6
24847	0.0002	0.00029	4e-05	1e-05	-0.00022	-0.00019	5e-05	-0.00015	6
24848	0.00018	4e-05	0	1e-05	0.00018	0.00041	0.00018	0.00048	6
24849	-0.00071	-0.00011	-3e-05	-4e-05	2e-05	-0.00046	0.00021	0.00033	6
24850	-0.00071	-0.00011	-3e-05	-4e-05	2e-05	-0.00046	0.00021	0.00033	6
24851	-0.00071	-0.00011	-3e-05	-4e-05	2e-05	-0.00046	0.00021	0.00033	6
24852	-0.00071	-0.00011	-3e-05	-4e-05	2e-05	-0.00046	0.00021	0.00033	6
24853	-0.00071	-0.00011	-3e-05	-4e-05	2e-05	-0.00046	0.00021	0.00033	6
24854	-0.00071	-0.00011	-3e-05	-4e-05	2e-05	-0.00046	0.00021	0.00033	6
24855	-0.00071	-0.00011	-3e-05	-4e-05	2e-05	-0.00046	0.00021	0.00033	6
24856	-0.00071	-0.00011	-3e-05	-4e-05	2e-05	-0.00046	0.00021	0.00033	6
24857	-0.00071	-0.00011	-3e-05	-4e-05	2e-05	-0.00046	0.00021	0.00033	6
24858	-0.00071	-0.00011	-3e-05	-4e-05	2e-05	-0.00046	0.00021	0.00033	6
24859	-0.00071	-0.00011	-3e-05	-4e-05	2e-05	-0.00046	0.00021	0.00033	6
24860	-0.00071	-0.00011	-3e-05	-4e-05	2e-05	-0.00046	0.00021	0.00033	6
24861	-0.00071	-0.00011	-3e-05	-4e-05	2e-05	-0.00046	0.00021	0.00033	6
24862	-0.00071	-0.00011	-3e-05	-4e-05	2e-05	-0.00046	0.00021	0.00033	6
24863	-0.00048	-0.00013	-3e-05	3e-05	0.00016	0.0003	-0.00023	-0.00057	6
24864	0.00033	-3e-05	-2e-05	0	-0.00025	0.00014	0.00016	0.0001	6
24865	0.00033	-3e-05	-2e-05	0	-0.00025	0.00014	0.00016	0.0001	6
24866	0.00033	-3e-05	-2e-05	0	-0.00025	0.00014	0.00016	0.0001	6
24867	0.00033	-3e-05	-2e-05	0	-0.00025	0.00014	0.00016	0.0001	6
24868	0.00033	-3e-05	-2e-05	0	-0.00025	0.00014	0.00016	0.0001	6
24869	0.00033	-3e-05	-2e-05	0	-0.00025	0.00014	0.00016	0.0001	6
24870	0.00033	-3e-05	-2e-05	0	-0.00025	0.00014	0.00016	0.0001	6
24871	0.00033	-3e-05	-2e-05	0	-0.00025	0.00014	0.00016	0.0001	6
24872	0.00033	-3e-05	-2e-05	0	-0.00025	0.00014	0.00016	0.0001	6
24873	0.00033	-3e-05	-2e-05	0	-0.00025	0.00014	0.00016	0.0001	6
24874	0.00033	-3e-05	-2e-05	0	-0.00025	0.00014	0.00016	0.0001	6
24875	0.00033	-3e-05	-2e-05	0	-0.00025	0.00014	0.00016	0.0001	6
24876	0.00033	-3e-05	-2e-05	0	-0.00025	0.00014	0.00016	0.0001	6
24877	0.00033	-3e-05	-2e-05	0	-0.00025	0.00014	0.00016	0.0001	6
24878	0.00033	-3e-05	-2e-05	0	-0.00025	0.00014	0.00016	0.0001	6
24879	0.00033	-3e-05	-2e-05	0	-0.00025	0.00014	0.00016	0.0001	6
24880	0.00033	-3e-05	-2e-05	0	-0.00025	0.00014	0.00016	0.0001	6
24881	0.00033	-3e-05	-2e-05	0	-0.00025	0.00014	0.00016	0.0001	6
24882	0.00033	-3e-05	-2e-05	0	-0.00025	0.00014	0.00016	0.0001	6
24883	0.00033	-3e-05	-2e-05	0	-0.00025	0.00014	0.00016	0.0001	6
24884	0.00033	-3e-05	-2e-05	0	-0.00025	0.00014	0.00016	0.0001	6
24885	0.00033	-3e-05	-2e-05	0	-0.00025	0.00014	0.00016	0.0001	6
24886	0.00033	-3e-05	-2e-05	0	-0.00025	0.00014	0.00016	0.0001	6
24889	0.00079	0.0004	1e-05	-3e-05	-0.00033	-0.0001	-0.00038	0.00054	6
24890	0.00079	0.0004	1e-05	-3e-05	-0.00033	-0.0001	-0.00038	0.00054	6
24891	0.00079	0.0004	1e-05	-3e-05	-0.00033	-0.0001	-0.00038	0.00054	6
24892	0.00079	0.0004	1e-05	-3e-05	-0.00033	-0.0001	-0.00038	0.00054	6
24893	0.00079	0.0004	1e-05	-3e-05	-0.00033	-0.0001	-0.00038	0.00054	6
24894	0.00079	0.0004	1e-05	-3e-05	-0.00033	-0.0001	-0.00038	0.00054	6
24895	0.00079	0.0004	1e-05	-3e-05	-0.00033	-0.0001	-0.00038	0.00054	6
24896	0.00079	0.0004	1e-05	-3e-05	-0.00033	-0.0001	-0.00038	0.00054	6
24897	0.00079	0.0004	1e-05	-3e-05	-0.00033	-0.0001	-0.00038	0.00054	6
24898	0.00079	0.0004	1e-05	-3e-05	-0.00033	-0.0001	-0.00038	0.00054	6
24899	0.00079	0.0004	1e-05	-3e-05	-0.00033	-0.0001	-0.00038	0.00054	6
24900	0.00039	0.0001	0	2e-05	0.00073	1e-05	0.00024	0.00074	6
24901	0.00039	0.0001	0	2e-05	0.00073	1e-05	0.00024	0.00074	6
24902	0.00039	0.0001	0	2e-05	0.00073	1e-05	0.00024	0.00074	6
24903	0.00039	0.0001	0	2e-05	0.00073	1e-05	0.00024	0.00074	6
24904	0.00039	0.0001	0	2e-05	0.00073	1e-05	0.00024	0.00074	6
24905	0.00039	0.0001	0	2e-05	0.00073	1e-05	0.00024	0.00074	6
24906	0.00039	0.0001	0	2e-05	0.00073	1e-05	0.00024	0.00074	6
24907	0.00039	0.0001	0	2e-05	0.00073	1e-05	0.00024	0.00074	6
24908	0.00039	0.0001	0	2e-05	0.00073	1e-05	0.00024	0.00074	6
24909	0.00016	0.00016	5e-05	6e-05	0.00027	0.00013	0.00047	0.00018	6
24910	0.00016	0.00016	5e-05	6e-05	0.00027	0.00013	0.00047	0.00018	6
24911	0.00016	0.00016	5e-05	6e-05	0.00027	0.00013	0.00047	0.00018	6
24912	0.00016	0.00016	5e-05	6e-05	0.00027	0.00013	0.00047	0.00018	6
24913	0.00016	0.00016	5e-05	6e-05	0.00027	0.00013	0.00047	0.00018	6
24914	0.00016	0.00016	5e-05	6e-05	0.00027	0.00013	0.00047	0.00018	6
24915	0.00016	0.00016	5e-05	6e-05	0.00027	0.00013	0.00047	0.00018	6
24916	0.00016	0.00016	5e-05	6e-05	0.00027	0.00013	0.00047	0.00018	6
24917	0.00016	0.00016	5e-05	6e-05	0.00027	0.00013	0.00047	0.00018	6
24918	0.00016	0.00016	5e-05	6e-05	0.00027	0.00013	0.00047	0.00018	6
24919	0.00016	0.00016	5e-05	6e-05	0.00027	0.00013	0.00047	0.00018	6
24920	0.00016	0.00016	5e-05	6e-05	0.00027	0.00013	0.00047	0.00018	6
24921	0.00016	0.00016	5e-05	6e-05	0.00027	0.00013	0.00047	0.00018	6
24922	0.00016	0.00016	5e-05	6e-05	0.00027	0.00013	0.00047	0.00018	6
24923	-2e-05	-9e-05	1e-05	4e-05	0.00067	-2e-05	-0.00058	0.00021	6
24924	0.00035	0.00015	-5e-05	-7e-05	-0.00062	-0.00013	-0.00018	-0.00024	6
24925	-0.00023	9e-05	-4e-05	-5e-05	-0.00085	-0.00049	8e-05	-0.0001	6
24926	-0.00023	9e-05	-4e-05	-5e-05	-0.00085	-0.00049	8e-05	-0.0001	6
24927	-0.00023	9e-05	-4e-05	-5e-05	-0.00085	-0.00049	8e-05	-0.0001	6
24928	-0.00023	9e-05	-4e-05	-5e-05	-0.00085	-0.00049	8e-05	-0.0001	6
24929	-0.00023	9e-05	-4e-05	-5e-05	-0.00085	-0.00049	8e-05	-0.0001	6
24930	-0.00023	9e-05	-4e-05	-5e-05	-0.00085	-0.00049	8e-05	-0.0001	6
24931	-0.00023	9e-05	-4e-05	-5e-05	-0.00085	-0.00049	8e-05	-0.0001	6
24932	-0.00023	9e-05	-4e-05	-5e-05	-0.00085	-0.00049	8e-05	-0.0001	6
24933	-0.00023	9e-05	-4e-05	-5e-05	-0.00085	-0.00049	8e-05	-0.0001	6
24934	-0.00023	9e-05	-4e-05	-5e-05	-0.00085	-0.00049	8e-05	-0.0001	6
24935	-0.00023	9e-05	-4e-05	-5e-05	-0.00085	-0.00049	8e-05	-0.0001	6
24936	-0.00023	9e-05	-4e-05	-5e-05	-0.00085	-0.00049	8e-05	-0.0001	6
24938	-0.00023	9e-05	-4e-05	-5e-05	-0.00085	-0.00049	8e-05	-0.0001	6
24939	-0.00023	9e-05	-4e-05	-5e-05	-0.00085	-0.00049	8e-05	-0.0001	6
24940	-0.00023	9e-05	-4e-05	-5e-05	-0.00085	-0.00049	8e-05	-0.0001	6
24941	-0.00023	9e-05	-4e-05	-5e-05	-0.00085	-0.00049	8e-05	-0.0001	6
24942	-0.00023	9e-05	-4e-05	-5e-05	-0.00085	-0.00049	8e-05	-0.0001	6
24943	-0.00023	9e-05	-4e-05	-5e-05	-0.00085	-0.00049	8e-05	-0.0001	6
24944	-0.00023	9e-05	-4e-05	-5e-05	-0.00085	-0.00049	8e-05	-0.0001	6
24945	-0.00023	9e-05	-4e-05	-5e-05	-0.00085	-0.00049	8e-05	-0.0001	6
24946	-0.00023	9e-05	-4e-05	-5e-05	-0.00085	-0.00049	8e-05	-0.0001	6
24947	0.00066	-5e-05	-2e-05	-7e-05	-8e-05	-0.00079	-0.00102	0.00063	6
24948	0.00066	-5e-05	-2e-05	-7e-05	-8e-05	-0.00079	-0.00102	0.00063	6
24949	0.00066	-5e-05	-2e-05	-7e-05	-8e-05	-0.00079	-0.00102	0.00063	6
24950	0.00066	-5e-05	-2e-05	-7e-05	-8e-05	-0.00079	-0.00102	0.00063	6
24951	0.00066	-5e-05	-2e-05	-7e-05	-8e-05	-0.00079	-0.00102	0.00063	6
24952	0.00066	-5e-05	-2e-05	-7e-05	-8e-05	-0.00079	-0.00102	0.00063	6
24953	0.00066	-5e-05	-2e-05	-7e-05	-8e-05	-0.00079	-0.00102	0.00063	6
24954	0.00066	-5e-05	-2e-05	-7e-05	-8e-05	-0.00079	-0.00102	0.00063	6
24955	0.00066	-5e-05	-2e-05	-7e-05	-8e-05	-0.00079	-0.00102	0.00063	6
24956	0.00066	-5e-05	-2e-05	-7e-05	-8e-05	-0.00079	-0.00102	0.00063	6
24957	0.00066	-5e-05	-2e-05	-7e-05	-8e-05	-0.00079	-0.00102	0.00063	6
24958	0.00066	-5e-05	-2e-05	-7e-05	-8e-05	-0.00079	-0.00102	0.00063	6
24959	0.00066	-5e-05	-2e-05	-7e-05	-8e-05	-0.00079	-0.00102	0.00063	6
24960	0.00066	-5e-05	-2e-05	-7e-05	-8e-05	-0.00079	-0.00102	0.00063	6
24961	0.00066	-5e-05	-2e-05	-7e-05	-8e-05	-0.00079	-0.00102	0.00063	6
24962	0.00066	-5e-05	-2e-05	-7e-05	-8e-05	-0.00079	-0.00102	0.00063	6
24963	0.00066	-5e-05	-2e-05	-7e-05	-8e-05	-0.00079	-0.00102	0.00063	6
24964	0.00066	-5e-05	-2e-05	-7e-05	-8e-05	-0.00079	-0.00102	0.00063	6
24965	0.00066	-5e-05	-2e-05	-7e-05	-8e-05	-0.00079	-0.00102	0.00063	6
24966	0.00066	-5e-05	-2e-05	-7e-05	-8e-05	-0.00079	-0.00102	0.00063	6
24967	0.00066	-5e-05	-2e-05	-7e-05	-8e-05	-0.00079	-0.00102	0.00063	6
24968	0.00066	-5e-05	-2e-05	-7e-05	-8e-05	-0.00079	-0.00102	0.00063	6
24969	-0.00051	0.0001	3e-05	0.00012	0.00044	-0.00023	0.0002	0.00015	6
24970	-0.00065	-0.00011	-4e-05	-2e-05	-2e-05	-8e-05	0.00021	-0.00022	6
24971	-0.00065	-0.00011	-4e-05	-2e-05	-2e-05	-8e-05	0.00021	-0.00022	6
24972	-0.00065	-0.00011	-4e-05	-2e-05	-2e-05	-8e-05	0.00021	-0.00022	6
24973	-0.00065	-0.00011	-4e-05	-2e-05	-2e-05	-8e-05	0.00021	-0.00022	6
24974	-0.00065	-0.00011	-4e-05	-2e-05	-2e-05	-8e-05	0.00021	-0.00022	6
24975	-0.00065	-0.00011	-4e-05	-2e-05	-2e-05	-8e-05	0.00021	-0.00022	6
24976	-0.00065	-0.00011	-4e-05	-2e-05	-2e-05	-8e-05	0.00021	-0.00022	6
24977	-0.00065	-0.00011	-4e-05	-2e-05	-2e-05	-8e-05	0.00021	-0.00022	6
24978	-0.00065	-0.00011	-4e-05	-2e-05	-2e-05	-8e-05	0.00021	-0.00022	6
24979	-0.00065	-0.00011	-4e-05	-2e-05	-2e-05	-8e-05	0.00021	-0.00022	6
24980	-0.00065	-0.00011	-4e-05	-2e-05	-2e-05	-8e-05	0.00021	-0.00022	6
24981	-0.00065	-0.00011	-4e-05	-2e-05	-2e-05	-8e-05	0.00021	-0.00022	6
24982	-0.00065	-0.00011	-4e-05	-2e-05	-2e-05	-8e-05	0.00021	-0.00022	6
24983	4e-05	0.00016	-2e-05	-3e-05	-0.00028	-0.00019	0.00028	8e-05	6
24984	-0.00023	0.0002	-3e-05	-3e-05	0.00015	0.00101	0.00052	0.00045	6
24985	-0.00023	0.0002	-3e-05	-3e-05	0.00015	0.00101	0.00052	0.00045	6
24986	-0.00023	0.0002	-3e-05	-3e-05	0.00015	0.00101	0.00052	0.00045	6
24988	-0.00023	0.0002	-3e-05	-3e-05	0.00015	0.00101	0.00052	0.00045	6
24989	-0.00023	0.0002	-3e-05	-3e-05	0.00015	0.00101	0.00052	0.00045	6
24990	-0.00023	0.0002	-3e-05	-3e-05	0.00015	0.00101	0.00052	0.00045	6
24991	-0.00023	0.0002	-3e-05	-3e-05	0.00015	0.00101	0.00052	0.00045	6
24992	-0.00023	0.0002	-3e-05	-3e-05	0.00015	0.00101	0.00052	0.00045	6
24993	-0.00023	0.0002	-3e-05	-3e-05	0.00015	0.00101	0.00052	0.00045	6
24994	-0.00023	0.0002	-3e-05	-3e-05	0.00015	0.00101	0.00052	0.00045	6
24995	-0.00023	0.0002	-3e-05	-3e-05	0.00015	0.00101	0.00052	0.00045	6
24996	-0.00023	0.0002	-3e-05	-3e-05	0.00015	0.00101	0.00052	0.00045	6
24997	-0.00023	0.0002	-3e-05	-3e-05	0.00015	0.00101	0.00052	0.00045	6
24998	-0.00023	0.0002	-3e-05	-3e-05	0.00015	0.00101	0.00052	0.00045	6
24999	-0.00023	0.0002	-3e-05	-3e-05	0.00015	0.00101	0.00052	0.00045	6
25000	-0.00023	0.0002	-3e-05	-3e-05	0.00015	0.00101	0.00052	0.00045	6
25001	-0.00023	0.0002	-3e-05	-3e-05	0.00015	0.00101	0.00052	0.00045	6
25002	-0.00023	0.0002	-3e-05	-3e-05	0.00015	0.00101	0.00052	0.00045	6
25003	-0.00023	0.0002	-3e-05	-3e-05	0.00015	0.00101	0.00052	0.00045	6
25004	-0.00023	0.0002	-3e-05	-3e-05	0.00015	0.00101	0.00052	0.00045	6
25005	-0.00023	0.0002	-3e-05	-3e-05	0.00015	0.00101	0.00052	0.00045	6
25006	-0.00023	0.0002	-3e-05	-3e-05	0.00015	0.00101	0.00052	0.00045	6
25007	-0.00035	0.00047	2e-05	-4e-05	-0.00042	-0.0006	0.00052	-0.00015	6
25008	-0.00035	0.00047	2e-05	-4e-05	-0.00042	-0.0006	0.00052	-0.00015	6
25009	0.00066	-8e-05	-1e-05	-5e-05	0.00017	-0.00053	-0.00055	-0.00079	6
25010	0.00066	-8e-05	-1e-05	-5e-05	0.00017	-0.00053	-0.00055	-0.00079	6
25011	0.00066	-8e-05	-1e-05	-5e-05	0.00017	-0.00053	-0.00055	-0.00079	6
25012	0.00066	-8e-05	-1e-05	-5e-05	0.00017	-0.00053	-0.00055	-0.00079	6
25013	0.00066	-8e-05	-1e-05	-5e-05	0.00017	-0.00053	-0.00055	-0.00079	6
25014	0.00066	-8e-05	-1e-05	-5e-05	0.00017	-0.00053	-0.00055	-0.00079	6
25015	0.00066	-8e-05	-1e-05	-5e-05	0.00017	-0.00053	-0.00055	-0.00079	6
25016	0.00066	-8e-05	-1e-05	-5e-05	0.00017	-0.00053	-0.00055	-0.00079	6
25017	0.00066	-8e-05	-1e-05	-5e-05	0.00017	-0.00053	-0.00055	-0.00079	6
25018	0.00066	-8e-05	-1e-05	-5e-05	0.00017	-0.00053	-0.00055	-0.00079	6
25019	0.00066	-8e-05	-1e-05	-5e-05	0.00017	-0.00053	-0.00055	-0.00079	6
25020	0.00066	-8e-05	-1e-05	-5e-05	0.00017	-0.00053	-0.00055	-0.00079	6
25021	0.00066	-8e-05	-1e-05	-5e-05	0.00017	-0.00053	-0.00055	-0.00079	6
25022	0.00066	-8e-05	-1e-05	-5e-05	0.00017	-0.00053	-0.00055	-0.00079	6
25023	0.00066	-8e-05	-1e-05	-5e-05	0.00017	-0.00053	-0.00055	-0.00079	6
25024	0.00066	-8e-05	-1e-05	-5e-05	0.00017	-0.00053	-0.00055	-0.00079	6
25025	0.00066	-8e-05	-1e-05	-5e-05	0.00017	-0.00053	-0.00055	-0.00079	6
25026	0.00066	-8e-05	-1e-05	-5e-05	0.00017	-0.00053	-0.00055	-0.00079	6
25027	0.00066	-8e-05	-1e-05	-5e-05	0.00017	-0.00053	-0.00055	-0.00079	6
25028	0.00066	-8e-05	-1e-05	-5e-05	0.00017	-0.00053	-0.00055	-0.00079	6
25029	0.00028	-1e-05	-1e-05	-4e-05	-0.00028	-0.00066	-0.00047	0.00082	6
25030	-0.00068	-4e-05	0	1e-05	9e-05	-0.00033	-0.00032	2e-05	6
25031	-0.00068	-4e-05	0	1e-05	9e-05	-0.00033	-0.00032	2e-05	6
25033	-0.00068	-4e-05	0	1e-05	9e-05	-0.00033	-0.00032	2e-05	6
25034	-0.00068	-4e-05	0	1e-05	9e-05	-0.00033	-0.00032	2e-05	6
25035	-0.00068	-4e-05	0	1e-05	9e-05	-0.00033	-0.00032	2e-05	6
25036	-0.00068	-4e-05	0	1e-05	9e-05	-0.00033	-0.00032	2e-05	6
25038	-0.00068	-4e-05	0	1e-05	9e-05	-0.00033	-0.00032	2e-05	6
25040	-0.00068	-4e-05	0	1e-05	9e-05	-0.00033	-0.00032	2e-05	6
25041	-0.00068	-4e-05	0	1e-05	9e-05	-0.00033	-0.00032	2e-05	6
25042	-0.00068	-4e-05	0	1e-05	9e-05	-0.00033	-0.00032	2e-05	6
25043	0.00049	0.00016	0.00019	0.00021	0	-9e-05	-0.00043	0.00064	6
25044	0.00022	-2e-05	-3e-05	0	3e-05	0.00017	0.00051	-0.00054	6
25045	0.00022	-2e-05	-3e-05	0	3e-05	0.00017	0.00051	-0.00054	6
25046	0.00022	-2e-05	-3e-05	0	3e-05	0.00017	0.00051	-0.00054	6
25047	0.00022	-2e-05	-3e-05	0	3e-05	0.00017	0.00051	-0.00054	6
25048	0.00022	-2e-05	-3e-05	0	3e-05	0.00017	0.00051	-0.00054	6
25049	0.00022	-2e-05	-3e-05	0	3e-05	0.00017	0.00051	-0.00054	6
25050	0.00022	-2e-05	-3e-05	0	3e-05	0.00017	0.00051	-0.00054	6
25051	0.00022	-2e-05	-3e-05	0	3e-05	0.00017	0.00051	-0.00054	6
25052	0.00022	-2e-05	-3e-05	0	3e-05	0.00017	0.00051	-0.00054	6
25053	0.00022	-2e-05	-3e-05	0	3e-05	0.00017	0.00051	-0.00054	6
25054	0.00022	-2e-05	-3e-05	0	3e-05	0.00017	0.00051	-0.00054	6
25055	0.00022	-2e-05	-3e-05	0	3e-05	0.00017	0.00051	-0.00054	6
25056	0.00022	-2e-05	-3e-05	0	3e-05	0.00017	0.00051	-0.00054	6
25057	0.00022	-2e-05	-3e-05	0	3e-05	0.00017	0.00051	-0.00054	6
25058	0.00022	-2e-05	-3e-05	0	3e-05	0.00017	0.00051	-0.00054	6
25059	0.00022	-2e-05	-3e-05	0	3e-05	0.00017	0.00051	-0.00054	6
25060	0.00022	-2e-05	-3e-05	0	3e-05	0.00017	0.00051	-0.00054	6
25061	0.00022	-2e-05	-3e-05	0	3e-05	0.00017	0.00051	-0.00054	6
25062	0.00022	-2e-05	-3e-05	0	3e-05	0.00017	0.00051	-0.00054	6
25063	0.00022	-2e-05	-3e-05	0	3e-05	0.00017	0.00051	-0.00054	6
25064	0.00022	-2e-05	-3e-05	0	3e-05	0.00017	0.00051	-0.00054	6
25065	0.00022	-2e-05	-3e-05	0	3e-05	0.00017	0.00051	-0.00054	6
25066	0.00022	-2e-05	-3e-05	0	3e-05	0.00017	0.00051	-0.00054	6
25067	-0.00026	-0.00012	2e-05	9e-05	0.00069	-0.00027	7e-05	-0.0003	6
25068	-0.00026	-0.00012	2e-05	9e-05	0.00069	-0.00027	7e-05	-0.0003	6
25069	-0.00026	-0.00012	2e-05	9e-05	0.00069	-0.00027	7e-05	-0.0003	6
25070	-0.00026	-0.00012	2e-05	9e-05	0.00069	-0.00027	7e-05	-0.0003	6
25071	-0.00026	-0.00012	2e-05	9e-05	0.00069	-0.00027	7e-05	-0.0003	6
25072	-0.00026	-0.00012	2e-05	9e-05	0.00069	-0.00027	7e-05	-0.0003	6
25073	-0.00026	-0.00012	2e-05	9e-05	0.00069	-0.00027	7e-05	-0.0003	6
25074	-0.00026	-0.00012	2e-05	9e-05	0.00069	-0.00027	7e-05	-0.0003	6
25075	-0.00026	-0.00012	2e-05	9e-05	0.00069	-0.00027	7e-05	-0.0003	6
25076	-0.00026	-0.00012	2e-05	9e-05	0.00069	-0.00027	7e-05	-0.0003	6
25077	-0.00026	-0.00012	2e-05	9e-05	0.00069	-0.00027	7e-05	-0.0003	6
25078	-0.00026	-0.00012	2e-05	9e-05	0.00069	-0.00027	7e-05	-0.0003	6
25079	-0.00026	-0.00012	2e-05	9e-05	0.00069	-0.00027	7e-05	-0.0003	6
25080	-0.00026	-0.00012	2e-05	9e-05	0.00069	-0.00027	7e-05	-0.0003	6
25081	-0.00026	-0.00012	2e-05	9e-05	0.00069	-0.00027	7e-05	-0.0003	6
25082	-0.00026	-0.00012	2e-05	9e-05	0.00069	-0.00027	7e-05	-0.0003	6
25083	-0.00026	-0.00012	2e-05	9e-05	0.00069	-0.00027	7e-05	-0.0003	6
25084	-0.00026	-0.00012	2e-05	9e-05	0.00069	-0.00027	7e-05	-0.0003	6
25085	-0.00026	-0.00012	2e-05	9e-05	0.00069	-0.00027	7e-05	-0.0003	6
25086	-0.00026	-0.00012	2e-05	9e-05	0.00069	-0.00027	7e-05	-0.0003	6
25088	-0.00026	-0.00012	2e-05	9e-05	0.00069	-0.00027	7e-05	-0.0003	6
25089	-0.00048	-2e-05	-5e-05	-6e-05	-3e-05	5e-05	0.00031	-0.00128	6
25090	-0.00015	-2e-05	1e-05	-3e-05	-0.00054	0.00018	-0.00054	-0.00079	6
25091	-0.00015	-2e-05	1e-05	-3e-05	-0.00054	0.00018	-0.00054	-0.00079	6
25092	-0.00015	-2e-05	1e-05	-3e-05	-0.00054	0.00018	-0.00054	-0.00079	6
25093	-0.00015	-2e-05	1e-05	-3e-05	-0.00054	0.00018	-0.00054	-0.00079	6
25094	-0.00015	-2e-05	1e-05	-3e-05	-0.00054	0.00018	-0.00054	-0.00079	6
25095	-0.00015	-2e-05	1e-05	-3e-05	-0.00054	0.00018	-0.00054	-0.00079	6
25096	-0.00015	-2e-05	1e-05	-3e-05	-0.00054	0.00018	-0.00054	-0.00079	6
25097	-0.00015	-2e-05	1e-05	-3e-05	-0.00054	0.00018	-0.00054	-0.00079	6
25098	-0.00015	-2e-05	1e-05	-3e-05	-0.00054	0.00018	-0.00054	-0.00079	6
25099	-0.00015	-2e-05	1e-05	-3e-05	-0.00054	0.00018	-0.00054	-0.00079	6
25100	-0.00015	-2e-05	1e-05	-3e-05	-0.00054	0.00018	-0.00054	-0.00079	6
25101	-0.00015	-2e-05	1e-05	-3e-05	-0.00054	0.00018	-0.00054	-0.00079	6
