14895	1e-05	-2e-05	-2e-05	0	0.00053	0.00058	7e-05	-3e-05	4
14896	-0.0001	-0.00016	-0.00029	-0.00108	0.00029	-3e-05	-1e-05	-0.00015	4
14897	8e-05	0.00019	0.00036	0.00109	0.00107	0.00059	0.00012	-1e-05	4
14898	8e-05	0.00019	0.00036	0.00109	0.00107	0.00059	0.00012	-1e-05	4
14899	8e-05	0.00019	0.00036	0.00109	0.00107	0.00059	0.00012	-1e-05	4
14900	8e-05	0.00019	0.00036	0.00109	0.00107	0.00059	0.00012	-1e-05	4
14901	8e-05	0.00019	0.00036	0.00109	0.00107	0.00059	0.00012	-1e-05	4
14902	8e-05	0.00019	0.00036	0.00109	0.00107	0.00059	0.00012	-1e-05	4
14903	8e-05	0.00019	0.00036	0.00109	0.00107	0.00059	0.00012	-1e-05	4
14904	8e-05	0.00019	0.00036	0.00109	0.00107	0.00059	0.00012	-1e-05	4
14905	8e-05	0.00019	0.00036	0.00109	0.00107	0.00059	0.00012	-1e-05	4
14906	8e-05	0.00019	0.00036	0.00109	0.00107	0.00059	0.00012	-1e-05	4
14907	8e-05	0.00019	0.00036	0.00109	0.00107	0.00059	0.00012	-1e-05	4
14908	8e-05	0.00019	0.00036	0.00109	0.00107	0.00059	0.00012	-1e-05	4
14909	8e-05	0.00019	0.00036	0.00109	0.00107	0.00059	0.00012	-1e-05	4
14910	8e-05	0.00019	0.00036	0.00109	0.00107	0.00059	0.00012	-1e-05	4
14911	8e-05	0.00019	0.00036	0.00109	0.00107	0.00059	0.00012	-1e-05	4
14912	8e-05	0.00019	0.00036	0.00109	0.00107	0.00059	0.00012	-1e-05	4
14913	8e-05	0.00019	0.00036	0.00109	0.00107	0.00059	0.00012	-1e-05	4
14914	8e-05	0.00019	0.00036	0.00109	0.00107	0.00059	0.00012	-1e-05	4
14915	8e-05	0.00019	0.00036	0.00109	0.00107	0.00059	0.00012	-1e-05	4
14916	8e-05	0.00019	0.00036	0.00109	0.00107	0.00059	0.00012	-1e-05	4
14917	6e-05	-1e-05	-0.00011	-0.00062	-0.0001	7e-05	-6e-05	0.00032	4
14918	-3e-05	0	-8e-05	-0.00058	-3e-05	-1e-05	-4e-05	-5e-05	4
14919	-3e-05	0	-8e-05	-0.00058	-3e-05	-1e-05	-4e-05	-5e-05	4
14920	-3e-05	0	-8e-05	-0.00058	-3e-05	-1e-05	-4e-05	-5e-05	4
14921	-3e-05	0	-8e-05	-0.00058	-3e-05	-1e-05	-4e-05	-5e-05	4
14922	-3e-05	0	-8e-05	-0.00058	-3e-05	-1e-05	-4e-05	-5e-05	4
14923	-3e-05	0	-8e-05	-0.00058	-3e-05	-1e-05	-4e-05	-5e-05	4
14924	-3e-05	0	-8e-05	-0.00058	-3e-05	-1e-05	-4e-05	-5e-05	4
14926	-3e-05	0	-8e-05	-0.00058	-3e-05	-1e-05	-4e-05	-5e-05	4
14927	-3e-05	0	-8e-05	-0.00058	-3e-05	-1e-05	-4e-05	-5e-05	4
14928	-3e-05	0	-8e-05	-0.00058	-3e-05	-1e-05	-4e-05	-5e-05	4
14929	-3e-05	0	-8e-05	-0.00058	-3e-05	-1e-05	-4e-05	-5e-05	4
14930	-3e-05	0	-8e-05	-0.00058	-3e-05	-1e-05	-4e-05	-5e-05	4
14931	-3e-05	0	-8e-05	-0.00058	-3e-05	-1e-05	-4e-05	-5e-05	4
14932	1e-05	6e-05	0.00014	-0.00011	-9e-05	-0.00045	-0.0001	-0.00013	4
14933	4e-05	6e-05	7e-05	-5e-05	-0.00013	0.00063	0	0.00021	4
14934	4e-05	6e-05	7e-05	-5e-05	-0.00013	0.00063	0	0.00021	4
14935	4e-05	6e-05	7e-05	-5e-05	-0.00013	0.00063	0	0.00021	4
14936	4e-05	6e-05	7e-05	-5e-05	-0.00013	0.00063	0	0.00021	4
14938	4e-05	6e-05	7e-05	-5e-05	-0.00013	0.00063	0	0.00021	4
14939	4e-05	6e-05	7e-05	-5e-05	-0.00013	0.00063	0	0.00021	4
14940	4e-05	6e-05	7e-05	-5e-05	-0.00013	0.00063	0	0.00021	4
14941	4e-05	6e-05	7e-05	-5e-05	-0.00013	0.00063	0	0.00021	4
14943	4e-05	6e-05	7e-05	-5e-05	-0.00013	0.00063	0	0.00021	4
14944	4e-05	6e-05	7e-05	-5e-05	-0.00013	0.00063	0	0.00021	4
14945	4e-05	6e-05	7e-05	-5e-05	-0.00013	0.00063	0	0.00021	4
14946	4e-05	6e-05	7e-05	-5e-05	-0.00013	0.00063	0	0.00021	4
14947	4e-05	6e-05	7e-05	-5e-05	-0.00013	0.00063	0	0.00021	4
14948	4e-05	6e-05	7e-05	-5e-05	-0.00013	0.00063	0	0.00021	4
14949	4e-05	6e-05	7e-05	-5e-05	-0.00013	0.00063	0	0.00021	4
14950	4e-05	6e-05	7e-05	-5e-05	-0.00013	0.00063	0	0.00021	4
14951	4e-05	6e-05	7e-05	-5e-05	-0.00013	0.00063	0	0.00021	4
14952	4e-05	6e-05	7e-05	-5e-05	-0.00013	0.00063	0	0.00021	4
14953	4e-05	6e-05	7e-05	-5e-05	-0.00013	0.00063	0	0.00021	4
14954	4e-05	6e-05	7e-05	-5e-05	-0.00013	0.00063	0	0.00021	4
14955	-6e-05	-8e-05	-0.00019	-0.00128	-0.00128	-0.00084	-0.0001	-0.00017	4
14956	0	2e-05	5e-05	0.00017	-0.00032	0.00016	6e-05	-0.0001	4
14957	0	2e-05	5e-05	0.00017	-0.00032	0.00016	6e-05	-0.0001	4
14958	0	2e-05	5e-05	0.00017	-0.00032	0.00016	6e-05	-0.0001	4
14959	0	2e-05	5e-05	0.00017	-0.00032	0.00016	6e-05	-0.0001	4
14960	0	2e-05	5e-05	0.00017	-0.00032	0.00016	6e-05	-0.0001	4
14961	0	2e-05	5e-05	0.00017	-0.00032	0.00016	6e-05	-0.0001	4
14962	0	2e-05	5e-05	0.00017	-0.00032	0.00016	6e-05	-0.0001	4
14963	0	2e-05	5e-05	0.00017	-0.00032	0.00016	6e-05	-0.0001	4
14964	0	2e-05	5e-05	0.00017	-0.00032	0.00016	6e-05	-0.0001	4
14965	0	2e-05	5e-05	0.00017	-0.00032	0.00016	6e-05	-0.0001	4
14966	0	2e-05	5e-05	0.00017	-0.00032	0.00016	6e-05	-0.0001	4
14967	0	2e-05	5e-05	0.00017	-0.00032	0.00016	6e-05	-0.0001	4
14968	0	2e-05	5e-05	0.00017	-0.00032	0.00016	6e-05	-0.0001	4
14969	0	2e-05	5e-05	0.00017	-0.00032	0.00016	6e-05	-0.0001	4
14970	0	2e-05	5e-05	0.00017	-0.00032	0.00016	6e-05	-0.0001	4
14971	0	2e-05	5e-05	0.00017	-0.00032	0.00016	6e-05	-0.0001	4
14972	0	2e-05	5e-05	0.00017	-0.00032	0.00016	6e-05	-0.0001	4
14973	0	2e-05	5e-05	0.00017	-0.00032	0.00016	6e-05	-0.0001	4
14974	0	2e-05	5e-05	0.00017	-0.00032	0.00016	6e-05	-0.0001	4
14975	0	2e-05	5e-05	0.00017	-0.00032	0.00016	6e-05	-0.0001	4
14976	0	2e-05	5e-05	0.00017	-0.00032	0.00016	6e-05	-0.0001	4
14977	0	2e-05	5e-05	0.00017	-0.00032	0.00016	6e-05	-0.0001	4
14978	-5e-05	-8e-05	-0.00014	-0.00069	-0.00111	0.0001	-0.0002	-0.00019	4
14979	-0.00012	-0.00015	-0.00023	-0.00061	-0.00042	0.0005	0.00011	-0.00029	4
14980	-0.00012	-0.00015	-0.00023	-0.00061	-0.00042	0.0005	0.00011	-0.00029	4
14981	-0.00012	-0.00015	-0.00023	-0.00061	-0.00042	0.0005	0.00011	-0.00029	4
14982	-0.00012	-0.00015	-0.00023	-0.00061	-0.00042	0.0005	0.00011	-0.00029	4
14983	-0.00012	-0.00015	-0.00023	-0.00061	-0.00042	0.0005	0.00011	-0.00029	4
14984	-0.00012	-0.00015	-0.00023	-0.00061	-0.00042	0.0005	0.00011	-0.00029	4
14985	-0.00012	-0.00015	-0.00023	-0.00061	-0.00042	0.0005	0.00011	-0.00029	4
14986	-0.00012	-0.00015	-0.00023	-0.00061	-0.00042	0.0005	0.00011	-0.00029	4
14989	-0.00012	-0.00015	-0.00023	-0.00061	-0.00042	0.0005	0.00011	-0.00029	4
14990	-0.00012	-0.00015	-0.00023	-0.00061	-0.00042	0.0005	0.00011	-0.00029	4
14991	-0.00012	-0.00015	-0.00023	-0.00061	-0.00042	0.0005	0.00011	-0.00029	4
14992	3e-05	-3e-05	-1e-05	-8e-05	-0.00033	9e-05	-0.0002	0.00027	4
14993	8e-05	9e-05	0.0001	4e-05	-0.00027	0.00049	0.00028	0.00031	4
14994	8e-05	9e-05	0.0001	4e-05	-0.00027	0.00049	0.00028	0.00031	4
14995	8e-05	9e-05	0.0001	4e-05	-0.00027	0.00049	0.00028	0.00031	4
14997	8e-05	9e-05	0.0001	4e-05	-0.00027	0.00049	0.00028	0.00031	4
14998	8e-05	9e-05	0.0001	4e-05	-0.00027	0.00049	0.00028	0.00031	4
14999	8e-05	9e-05	0.0001	4e-05	-0.00027	0.00049	0.00028	0.00031	4
15000	8e-05	9e-05	0.0001	4e-05	-0.00027	0.00049	0.00028	0.00031	4
15001	8e-05	9e-05	0.0001	4e-05	-0.00027	0.00049	0.00028	0.00031	4
15002	8e-05	9e-05	0.0001	4e-05	-0.00027	0.00049	0.00028	0.00031	4
15003	8e-05	9e-05	0.0001	4e-05	-0.00027	0.00049	0.00028	0.00031	4
15004	8e-05	9e-05	0.0001	4e-05	-0.00027	0.00049	0.00028	0.00031	4
15005	8e-05	9e-05	0.0001	4e-05	-0.00027	0.00049	0.00028	0.00031	4
15006	8e-05	9e-05	0.0001	4e-05	-0.00027	0.00049	0.00028	0.00031	4
15007	8e-05	9e-05	0.0001	4e-05	-0.00027	0.00049	0.00028	0.00031	4
15008	8e-05	9e-05	0.0001	4e-05	-0.00027	0.00049	0.00028	0.00031	4
15009	8e-05	9e-05	0.0001	4e-05	-0.00027	0.00049	0.00028	0.00031	4
15010	8e-05	9e-05	0.0001	4e-05	-0.00027	0.00049	0.00028	0.00031	4
15011	8e-05	9e-05	0.0001	4e-05	-0.00027	0.00049	0.00028	0.00031	4
15012	8e-05	9e-05	0.0001	4e-05	-0.00027	0.00049	0.00028	0.00031	4
15013	8e-05	9e-05	0.0001	4e-05	-0.00027	0.00049	0.00028	0.00031	4
15014	8e-05	9e-05	0.0001	4e-05	-0.00027	0.00049	0.00028	0.00031	4
15015	4e-05	3e-05	0.00011	-0.00014	-0.00091	-0.00033	0.00027	7e-05	4
15016	-6e-05	-2e-05	-5e-05	0.00044	-0.00083	-0.00112	-0.00026	-0.00018	4
15017	-6e-05	-2e-05	-5e-05	0.00044	-0.00083	-0.00112	-0.00026	-0.00018	4
15018	-6e-05	-2e-05	-5e-05	0.00044	-0.00083	-0.00112	-0.00026	-0.00018	4
15019	-6e-05	-2e-05	-5e-05	0.00044	-0.00083	-0.00112	-0.00026	-0.00018	4
15020	-6e-05	-2e-05	-5e-05	0.00044	-0.00083	-0.00112	-0.00026	-0.00018	4
15021	-6e-05	-2e-05	-5e-05	0.00044	-0.00083	-0.00112	-0.00026	-0.00018	4
15022	-6e-05	-2e-05	-5e-05	0.00044	-0.00083	-0.00112	-0.00026	-0.00018	4
15023	-6e-05	-2e-05	-5e-05	0.00044	-0.00083	-0.00112	-0.00026	-0.00018	4
15024	-6e-05	-2e-05	-5e-05	0.00044	-0.00083	-0.00112	-0.00026	-0.00018	4
15025	-6e-05	-2e-05	-5e-05	0.00044	-0.00083	-0.00112	-0.00026	-0.00018	4
15026	-6e-05	-2e-05	-5e-05	0.00044	-0.00083	-0.00112	-0.00026	-0.00018	4
15027	-6e-05	-2e-05	-5e-05	0.00044	-0.00083	-0.00112	-0.00026	-0.00018	4
15028	-6e-05	-2e-05	-5e-05	0.00044	-0.00083	-0.00112	-0.00026	-0.00018	4
15029	-6e-05	-2e-05	-5e-05	0.00044	-0.00083	-0.00112	-0.00026	-0.00018	4
15030	-6e-05	-2e-05	-5e-05	0.00044	-0.00083	-0.00112	-0.00026	-0.00018	4
15031	-6e-05	-2e-05	-5e-05	0.00044	-0.00083	-0.00112	-0.00026	-0.00018	4
15033	-6e-05	-2e-05	-5e-05	0.00044	-0.00083	-0.00112	-0.00026	-0.00018	4
15034	-6e-05	-2e-05	-5e-05	0.00044	-0.00083	-0.00112	-0.00026	-0.00018	4
15035	-6e-05	-2e-05	-5e-05	0.00044	-0.00083	-0.00112	-0.00026	-0.00018	4
15036	-6e-05	-2e-05	-5e-05	0.00044	-0.00083	-0.00112	-0.00026	-0.00018	4
15038	3e-05	6e-05	0.0002	0.00112	0.00047	-4e-05	-3e-05	-4e-05	4
15039	8e-05	-1e-05	5e-05	-0.00054	-3e-05	0.0001	-4e-05	0.00023	4
15040	8e-05	-1e-05	5e-05	-0.00054	-3e-05	0.0001	-4e-05	0.00023	4
15041	8e-05	-1e-05	5e-05	-0.00054	-3e-05	0.0001	-4e-05	0.00023	4
15042	8e-05	-1e-05	5e-05	-0.00054	-3e-05	0.0001	-4e-05	0.00023	4
15043	8e-05	-1e-05	5e-05	-0.00054	-3e-05	0.0001	-4e-05	0.00023	4
15044	8e-05	-1e-05	5e-05	-0.00054	-3e-05	0.0001	-4e-05	0.00023	4
15045	8e-05	-1e-05	5e-05	-0.00054	-3e-05	0.0001	-4e-05	0.00023	4
15046	8e-05	-1e-05	5e-05	-0.00054	-3e-05	0.0001	-4e-05	0.00023	4
15047	8e-05	-1e-05	5e-05	-0.00054	-3e-05	0.0001	-4e-05	0.00023	4
15048	8e-05	-1e-05	5e-05	-0.00054	-3e-05	0.0001	-4e-05	0.00023	4
15049	8e-05	-1e-05	5e-05	-0.00054	-3e-05	0.0001	-4e-05	0.00023	4
15050	8e-05	-1e-05	5e-05	-0.00054	-3e-05	0.0001	-4e-05	0.00023	4
15051	8e-05	-1e-05	5e-05	-0.00054	-3e-05	0.0001	-4e-05	0.00023	4
15052	-0.0001	-9e-05	-0.00026	-0.00084	0.0005	-0.00074	-0.00012	-0.0003	4
15053	-4e-05	-9e-05	-0.00016	-0.00049	0.00049	-0.00025	-7e-05	2e-05	4
15054	-4e-05	-9e-05	-0.00016	-0.00049	0.00049	-0.00025	-7e-05	2e-05	4
15055	-4e-05	-9e-05	-0.00016	-0.00049	0.00049	-0.00025	-7e-05	2e-05	4
15056	-4e-05	-9e-05	-0.00016	-0.00049	0.00049	-0.00025	-7e-05	2e-05	4
15057	-4e-05	-9e-05	-0.00016	-0.00049	0.00049	-0.00025	-7e-05	2e-05	4
15058	-4e-05	-9e-05	-0.00016	-0.00049	0.00049	-0.00025	-7e-05	2e-05	4
15059	-4e-05	-9e-05	-0.00016	-0.00049	0.00049	-0.00025	-7e-05	2e-05	4
15061	-4e-05	-9e-05	-0.00016	-0.00049	0.00049	-0.00025	-7e-05	2e-05	4
15062	-4e-05	-9e-05	-0.00016	-0.00049	0.00049	-0.00025	-7e-05	2e-05	4
15063	-4e-05	-9e-05	-0.00016	-0.00049	0.00049	-0.00025	-7e-05	2e-05	4
15064	-4e-05	-9e-05	-0.00016	-0.00049	0.00049	-0.00025	-7e-05	2e-05	4
15065	-4e-05	-9e-05	-0.00016	-0.00049	0.00049	-0.00025	-7e-05	2e-05	4
15066	-4e-05	-9e-05	-0.00016	-0.00049	0.00049	-0.00025	-7e-05	2e-05	4
15067	-4e-05	-9e-05	-0.00016	-0.00049	0.00049	-0.00025	-7e-05	2e-05	4
15068	-4e-05	-9e-05	-0.00016	-0.00049	0.00049	-0.00025	-7e-05	2e-05	4
15069	-4e-05	-9e-05	-0.00016	-0.00049	0.00049	-0.00025	-7e-05	2e-05	4
15070	-4e-05	-9e-05	-0.00016	-0.00049	0.00049	-0.00025	-7e-05	2e-05	4
15071	-4e-05	-9e-05	-0.00016	-0.00049	0.00049	-0.00025	-7e-05	2e-05	4
15072	-4e-05	-9e-05	-0.00016	-0.00049	0.00049	-0.00025	-7e-05	2e-05	4
15073	-4e-05	-9e-05	-0.00016	-0.00049	0.00049	-0.00025	-7e-05	2e-05	4
15074	-4e-05	-9e-05	-0.00016	-0.00049	0.00049	-0.00025	-7e-05	2e-05	4
15075	-2e-05	-3e-05	-3e-05	-0.00017	0.00063	-3e-05	0.00011	-0.0002	4
15076	-5e-05	-0.0001	-2e-05	0.00025	3e-05	-6e-05	-0.00033	-0.0001	4
15077	-5e-05	-0.0001	-2e-05	0.00025	3e-05	-6e-05	-0.00033	-0.0001	4
15078	-5e-05	-0.0001	-2e-05	0.00025	3e-05	-6e-05	-0.00033	-0.0001	4
15079	-5e-05	-0.0001	-2e-05	0.00025	3e-05	-6e-05	-0.00033	-0.0001	4
15080	-5e-05	-0.0001	-2e-05	0.00025	3e-05	-6e-05	-0.00033	-0.0001	4
15081	-5e-05	-0.0001	-2e-05	0.00025	3e-05	-6e-05	-0.00033	-0.0001	4
15082	-5e-05	-0.0001	-2e-05	0.00025	3e-05	-6e-05	-0.00033	-0.0001	4
15083	-5e-05	-0.0001	-2e-05	0.00025	3e-05	-6e-05	-0.00033	-0.0001	4
15084	-5e-05	-0.0001	-2e-05	0.00025	3e-05	-6e-05	-0.00033	-0.0001	4
15085	-5e-05	-0.0001	-2e-05	0.00025	3e-05	-6e-05	-0.00033	-0.0001	4
15086	-5e-05	-0.0001	-2e-05	0.00025	3e-05	-6e-05	-0.00033	-0.0001	4
15088	-5e-05	-0.0001	-2e-05	0.00025	3e-05	-6e-05	-0.00033	-0.0001	4
15089	-5e-05	-0.0001	-2e-05	0.00025	3e-05	-6e-05	-0.00033	-0.0001	4
15090	-5e-05	-0.0001	-2e-05	0.00025	3e-05	-6e-05	-0.00033	-0.0001	4
15091	-5e-05	-0.0001	-2e-05	0.00025	3e-05	-6e-05	-0.00033	-0.0001	4
15092	-5e-05	-0.0001	-2e-05	0.00025	3e-05	-6e-05	-0.00033	-0.0001	4
15093	-5e-05	-0.0001	-2e-05	0.00025	3e-05	-6e-05	-0.00033	-0.0001	4
15094	-5e-05	-0.0001	-2e-05	0.00025	3e-05	-6e-05	-0.00033	-0.0001	4
15095	-5e-05	-0.0001	-2e-05	0.00025	3e-05	-6e-05	-0.00033	-0.0001	4
15096	-5e-05	-0.0001	-2e-05	0.00025	3e-05	-6e-05	-0.00033	-0.0001	4
15097	-5e-05	-0.0001	-2e-05	0.00025	3e-05	-6e-05	-0.00033	-0.0001	4
15098	-1e-05	0	-1e-05	0.00025	0.00062	0.00091	0.0002	0.00011	4
15099	0.0001	0.0001	0.00014	-8e-05	-0.00012	-0.00077	-4e-05	-9e-05	4
15100	0.0001	0.0001	0.00014	-8e-05	-0.00012	-0.00077	-4e-05	-9e-05	4
15101	0.0001	0.0001	0.00014	-8e-05	-0.00012	-0.00077	-4e-05	-9e-05	4
15102	0.0001	0.0001	0.00014	-8e-05	-0.00012	-0.00077	-4e-05	-9e-05	4
15103	0.0001	0.0001	0.00014	-8e-05	-0.00012	-0.00077	-4e-05	-9e-05	4
15104	0.0001	0.0001	0.00014	-8e-05	-0.00012	-0.00077	-4e-05	-9e-05	4
15105	0.0001	0.0001	0.00014	-8e-05	-0.00012	-0.00077	-4e-05	-9e-05	4
15106	0.0001	0.0001	0.00014	-8e-05	-0.00012	-0.00077	-4e-05	-9e-05	4
15107	0.0001	0.0001	0.00014	-8e-05	-0.00012	-0.00077	-4e-05	-9e-05	4
15108	0.0001	0.0001	0.00014	-8e-05	-0.00012	-0.00077	-4e-05	-9e-05	4
15109	0.0001	0.0001	0.00014	-8e-05	-0.00012	-0.00077	-4e-05	-9e-05	4
15110	0.0001	0.0001	0.00014	-8e-05	-0.00012	-0.00077	-4e-05	-9e-05	4
15111	0.0001	0.0001	0.00014	-8e-05	-0.00012	-0.00077	-4e-05	-9e-05	4
15112	1e-05	-5e-05	-6e-05	-0.00016	-0.00116	-0.00031	0.00014	9e-05	4
15113	-1e-05	-5e-05	-5e-05	-0.00017	9e-05	0.0005	-3e-05	-4e-05	4
15114	0	0	1e-05	-0.00037	-0.00081	0.00096	-5e-05	0.0001	4
15115	0	0	1e-05	-0.00037	-0.00081	0.00096	-5e-05	0.0001	4
15116	0	0	1e-05	-0.00037	-0.00081	0.00096	-5e-05	0.0001	4
15117	0	0	1e-05	-0.00037	-0.00081	0.00096	-5e-05	0.0001	4
15118	0	0	1e-05	-0.00037	-0.00081	0.00096	-5e-05	0.0001	4
15119	0	0	1e-05	-0.00037	-0.00081	0.00096	-5e-05	0.0001	4
15120	0	0	1e-05	-0.00037	-0.00081	0.00096	-5e-05	0.0001	4
15121	0	0	1e-05	-0.00037	-0.00081	0.00096	-5e-05	0.0001	4
15122	0	0	1e-05	-0.00037	-0.00081	0.00096	-5e-05	0.0001	4
15123	0	0	1e-05	-0.00037	-0.00081	0.00096	-5e-05	0.0001	4
15124	0	0	1e-05	-0.00037	-0.00081	0.00096	-5e-05	0.0001	4
15125	0	0	1e-05	-0.00037	-0.00081	0.00096	-5e-05	0.0001	4
15126	0	0	1e-05	-0.00037	-0.00081	0.00096	-5e-05	0.0001	4
15127	0	0	1e-05	-0.00037	-0.00081	0.00096	-5e-05	0.0001	4
15128	0	0	1e-05	-0.00037	-0.00081	0.00096	-5e-05	0.0001	4
15129	0	0	1e-05	-0.00037	-0.00081	0.00096	-5e-05	0.0001	4
15130	0	0	1e-05	-0.00037	-0.00081	0.00096	-5e-05	0.0001	4
15131	0	0	1e-05	-0.00037	-0.00081	0.00096	-5e-05	0.0001	4
15132	0	0	1e-05	-0.00037	-0.00081	0.00096	-5e-05	0.0001	4
15133	0	0	1e-05	-0.00037	-0.00081	0.00096	-5e-05	0.0001	4
15134	0	0	1e-05	-0.00037	-0.00081	0.00096	-5e-05	0.0001	4
15135	9e-05	0.00012	0.0002	0.00111	-0.00019	-5e-05	3e-05	0.00014	4
15136	2e-05	0.00012	0.00016	0.00054	0.00034	-0.00023	8e-05	4e-05	4
15138	2e-05	0.00012	0.00016	0.00054	0.00034	-0.00023	8e-05	4e-05	4
15139	2e-05	0.00012	0.00016	0.00054	0.00034	-0.00023	8e-05	4e-05	4
15140	2e-05	0.00012	0.00016	0.00054	0.00034	-0.00023	8e-05	4e-05	4
15141	2e-05	0.00012	0.00016	0.00054	0.00034	-0.00023	8e-05	4e-05	4
15142	2e-05	0.00012	0.00016	0.00054	0.00034	-0.00023	8e-05	4e-05	4
15143	2e-05	0.00012	0.00016	0.00054	0.00034	-0.00023	8e-05	4e-05	4
15144	2e-05	0.00012	0.00016	0.00054	0.00034	-0.00023	8e-05	4e-05	4
15145	2e-05	0.00012	0.00016	0.00054	0.00034	-0.00023	8e-05	4e-05	4
15146	2e-05	0.00012	0.00016	0.00054	0.00034	-0.00023	8e-05	4e-05	4
15147	2e-05	0.00012	0.00016	0.00054	0.00034	-0.00023	8e-05	4e-05	4
15148	2e-05	0.00012	0.00016	0.00054	0.00034	-0.00023	8e-05	4e-05	4
15149	2e-05	0.00012	0.00016	0.00054	0.00034	-0.00023	8e-05	4e-05	4
15150	2e-05	0.00012	0.00016	0.00054	0.00034	-0.00023	8e-05	4e-05	4
15151	2e-05	0.00012	0.00016	0.00054	0.00034	-0.00023	8e-05	4e-05	4
15152	2e-05	0.00012	0.00016	0.00054	0.00034	-0.00023	8e-05	4e-05	4
15153	2e-05	0.00012	0.00016	0.00054	0.00034	-0.00023	8e-05	4e-05	4
15154	2e-05	0.00012	0.00016	0.00054	0.00034	-0.00023	8e-05	4e-05	4
15155	2e-05	0.00012	0.00016	0.00054	0.00034	-0.00023	8e-05	4e-05	4
15156	2e-05	0.00012	0.00016	0.00054	0.00034	-0.00023	8e-05	4e-05	4
15157	2e-05	0.00012	0.00016	0.00054	0.00034	-0.00023	8e-05	4e-05	4
15158	-6e-05	-6e-05	-0.00012	-0.0003	-4e-05	0.00036	0.00014	-0.00011	4
15159	-8e-05	-0.00017	-0.00019	9e-05	-0.00054	-0.00029	5e-05	-3e-05	4
15160	-8e-05	-0.00017	-0.00019	9e-05	-0.00054	-0.00029	5e-05	-3e-05	4
15161	-8e-05	-0.00017	-0.00019	9e-05	-0.00054	-0.00029	5e-05	-3e-05	4
15162	-8e-05	-0.00017	-0.00019	9e-05	-0.00054	-0.00029	5e-05	-3e-05	4
15163	-8e-05	-0.00017	-0.00019	9e-05	-0.00054	-0.00029	5e-05	-3e-05	4
15164	-8e-05	-0.00017	-0.00019	9e-05	-0.00054	-0.00029	5e-05	-3e-05	4
15165	-8e-05	-0.00017	-0.00019	9e-05	-0.00054	-0.00029	5e-05	-3e-05	4
15166	-8e-05	-0.00017	-0.00019	9e-05	-0.00054	-0.00029	5e-05	-3e-05	4
15167	-8e-05	-0.00017	-0.00019	9e-05	-0.00054	-0.00029	5e-05	-3e-05	4
15168	-8e-05	-0.00017	-0.00019	9e-05	-0.00054	-0.00029	5e-05	-3e-05	4
15169	-8e-05	-0.00017	-0.00019	9e-05	-0.00054	-0.00029	5e-05	-3e-05	4
15170	-8e-05	-0.00017	-0.00019	9e-05	-0.00054	-0.00029	5e-05	-3e-05	4
15171	-8e-05	-0.00017	-0.00019	9e-05	-0.00054	-0.00029	5e-05	-3e-05	4
15172	-7e-05	0	-2e-05	-0.00018	0.00023	-0.00029	-4e-05	-0.0003	4
15173	0	7e-05	8e-05	-8e-05	0.00078	5e-05	0.00018	-6e-05	4
15174	0	7e-05	8e-05	-8e-05	0.00078	5e-05	0.00018	-6e-05	4
15175	0	7e-05	8e-05	-8e-05	0.00078	5e-05	0.00018	-6e-05	4
15176	0	7e-05	8e-05	-8e-05	0.00078	5e-05	0.00018	-6e-05	4
15177	0	7e-05	8e-05	-8e-05	0.00078	5e-05	0.00018	-6e-05	4
15178	0	7e-05	8e-05	-8e-05	0.00078	5e-05	0.00018	-6e-05	4
15179	0	7e-05	8e-05	-8e-05	0.00078	5e-05	0.00018	-6e-05	4
15181	0	7e-05	8e-05	-8e-05	0.00078	5e-05	0.00018	-6e-05	4
15182	0	7e-05	8e-05	-8e-05	0.00078	5e-05	0.00018	-6e-05	4
15183	0	7e-05	8e-05	-8e-05	0.00078	5e-05	0.00018	-6e-05	4
15184	0	7e-05	8e-05	-8e-05	0.00078	5e-05	0.00018	-6e-05	4
15185	0	7e-05	8e-05	-8e-05	0.00078	5e-05	0.00018	-6e-05	4
15186	0	7e-05	8e-05	-8e-05	0.00078	5e-05	0.00018	-6e-05	4
15188	0	7e-05	8e-05	-8e-05	0.00078	5e-05	0.00018	-6e-05	4
15189	0	7e-05	8e-05	-8e-05	0.00078	5e-05	0.00018	-6e-05	4
15190	0	7e-05	8e-05	-8e-05	0.00078	5e-05	0.00018	-6e-05	4
15191	0	7e-05	8e-05	-8e-05	0.00078	5e-05	0.00018	-6e-05	4
15192	0	7e-05	8e-05	-8e-05	0.00078	5e-05	0.00018	-6e-05	4
15193	0	7e-05	8e-05	-8e-05	0.00078	5e-05	0.00018	-6e-05	4
15194	0	7e-05	8e-05	-8e-05	0.00078	5e-05	0.00018	-6e-05	4
15195	-0.00011	-0.00014	-0.00015	-0.00025	-0.00115	-0.00088	-0.00055	0.00012	4
15196	9e-05	0.00019	0.00041	0.00074	0.00058	0.00031	0.00011	0.00013	4
15197	9e-05	0.00019	0.00041	0.00074	0.00058	0.00031	0.00011	0.00013	4
15198	9e-05	0.00019	0.00041	0.00074	0.00058	0.00031	0.00011	0.00013	4
15199	9e-05	0.00019	0.00041	0.00074	0.00058	0.00031	0.00011	0.00013	4
15200	9e-05	0.00019	0.00041	0.00074	0.00058	0.00031	0.00011	0.00013	4
15201	9e-05	0.00019	0.00041	0.00074	0.00058	0.00031	0.00011	0.00013	4
15202	9e-05	0.00019	0.00041	0.00074	0.00058	0.00031	0.00011	0.00013	4
15203	9e-05	0.00019	0.00041	0.00074	0.00058	0.00031	0.00011	0.00013	4
15204	9e-05	0.00019	0.00041	0.00074	0.00058	0.00031	0.00011	0.00013	4
15205	9e-05	0.00019	0.00041	0.00074	0.00058	0.00031	0.00011	0.00013	4
15206	9e-05	0.00019	0.00041	0.00074	0.00058	0.00031	0.00011	0.00013	4
15207	9e-05	0.00019	0.00041	0.00074	0.00058	0.00031	0.00011	0.00013	4
15208	9e-05	0.00019	0.00041	0.00074	0.00058	0.00031	0.00011	0.00013	4
15209	9e-05	0.00019	0.00041	0.00074	0.00058	0.00031	0.00011	0.00013	4
15210	9e-05	0.00019	0.00041	0.00074	0.00058	0.00031	0.00011	0.00013	4
15211	9e-05	0.00019	0.00041	0.00074	0.00058	0.00031	0.00011	0.00013	4
15212	9e-05	0.00019	0.00041	0.00074	0.00058	0.00031	0.00011	0.00013	4
15213	9e-05	0.00019	0.00041	0.00074	0.00058	0.00031	0.00011	0.00013	4
15214	9e-05	0.00019	0.00041	0.00074	0.00058	0.00031	0.00011	0.00013	4
15215	9e-05	0.00019	0.00041	0.00074	0.00058	0.00031	0.00011	0.00013	4
15216	9e-05	0.00019	0.00041	0.00074	0.00058	0.00031	0.00011	0.00013	4
15217	9e-05	0.00019	0.00041	0.00074	0.00058	0.00031	0.00011	0.00013	4
15218	-4e-05	-8e-05	-0.00017	-0.00127	-0.00105	-0.00076	-8e-05	-5e-05	4
15219	-0.00014	-0.00013	-0.00025	-0.00017	-0.00068	0.00025	-0.0001	-0.00011	4
15220	-0.00014	-0.00013	-0.00025	-0.00017	-0.00068	0.00025	-0.0001	-0.00011	4
15221	-0.00014	-0.00013	-0.00025	-0.00017	-0.00068	0.00025	-0.0001	-0.00011	4
15222	-0.00014	-0.00013	-0.00025	-0.00017	-0.00068	0.00025	-0.0001	-0.00011	4
15223	-0.00014	-0.00013	-0.00025	-0.00017	-0.00068	0.00025	-0.0001	-0.00011	4
15224	-0.00014	-0.00013	-0.00025	-0.00017	-0.00068	0.00025	-0.0001	-0.00011	4
15225	-0.00014	-0.00013	-0.00025	-0.00017	-0.00068	0.00025	-0.0001	-0.00011	4
15226	-0.00014	-0.00013	-0.00025	-0.00017	-0.00068	0.00025	-0.0001	-0.00011	4
15227	-0.00014	-0.00013	-0.00025	-0.00017	-0.00068	0.00025	-0.0001	-0.00011	4
15228	-0.00014	-0.00013	-0.00025	-0.00017	-0.00068	0.00025	-0.0001	-0.00011	4
15229	-0.00014	-0.00013	-0.00025	-0.00017	-0.00068	0.00025	-0.0001	-0.00011	4
15230	-0.00014	-0.00013	-0.00025	-0.00017	-0.00068	0.00025	-0.0001	-0.00011	4
15231	-0.00014	-0.00013	-0.00025	-0.00017	-0.00068	0.00025	-0.0001	-0.00011	4
15232	-2e-05	-6e-05	-0.00011	-0.00122	0.00018	-0.00034	-3e-05	-0.0002	4
15233	-5e-05	-8e-05	-8e-05	-0.00023	-5e-05	-0.00061	0.00016	-0.00024	4
15234	-5e-05	-8e-05	-8e-05	-0.00023	-5e-05	-0.00061	0.00016	-0.00024	4
15235	-5e-05	-8e-05	-8e-05	-0.00023	-5e-05	-0.00061	0.00016	-0.00024	4
15236	-5e-05	-8e-05	-8e-05	-0.00023	-5e-05	-0.00061	0.00016	-0.00024	4
15238	-5e-05	-8e-05	-8e-05	-0.00023	-5e-05	-0.00061	0.00016	-0.00024	4
15240	-5e-05	-8e-05	-8e-05	-0.00023	-5e-05	-0.00061	0.00016	-0.00024	4
15241	-5e-05	-8e-05	-8e-05	-0.00023	-5e-05	-0.00061	0.00016	-0.00024	4
15242	-5e-05	-8e-05	-8e-05	-0.00023	-5e-05	-0.00061	0.00016	-0.00024	4
15243	-5e-05	-8e-05	-8e-05	-0.00023	-5e-05	-0.00061	0.00016	-0.00024	4
15244	-5e-05	-8e-05	-8e-05	-0.00023	-5e-05	-0.00061	0.00016	-0.00024	4
15245	-5e-05	-8e-05	-8e-05	-0.00023	-5e-05	-0.00061	0.00016	-0.00024	4
15246	-5e-05	-8e-05	-8e-05	-0.00023	-5e-05	-0.00061	0.00016	-0.00024	4
15247	-5e-05	-8e-05	-8e-05	-0.00023	-5e-05	-0.00061	0.00016	-0.00024	4
15248	-5e-05	-8e-05	-8e-05	-0.00023	-5e-05	-0.00061	0.00016	-0.00024	4
15249	-5e-05	-8e-05	-8e-05	-0.00023	-5e-05	-0.00061	0.00016	-0.00024	4
15250	-5e-05	-8e-05	-8e-05	-0.00023	-5e-05	-0.00061	0.00016	-0.00024	4
15251	-5e-05	-8e-05	-8e-05	-0.00023	-5e-05	-0.00061	0.00016	-0.00024	4
15252	-5e-05	-8e-05	-8e-05	-0.00023	-5e-05	-0.00061	0.00016	-0.00024	4
15253	-5e-05	-8e-05	-8e-05	-0.00023	-5e-05	-0.00061	0.00016	-0.00024	4
15254	-5e-05	-8e-05	-8e-05	-0.00023	-5e-05	-0.00061	0.00016	-0.00024	4
15255	1e-05	2e-05	5e-05	-2e-05	0.00074	9e-05	-1e-05	0.00014	4
15256	-7e-05	-8e-05	-0.00015	-0.00026	0.0002	0.00025	2e-05	-0.00019	4
15257	-7e-05	-8e-05	-0.00015	-0.00026	0.0002	0.00025	2e-05	-0.00019	4
15258	-7e-05	-8e-05	-0.00015	-0.00026	0.0002	0.00025	2e-05	-0.00019	4
15259	-7e-05	-8e-05	-0.00015	-0.00026	0.0002	0.00025	2e-05	-0.00019	4
15260	-7e-05	-8e-05	-0.00015	-0.00026	0.0002	0.00025	2e-05	-0.00019	4
15261	-7e-05	-8e-05	-0.00015	-0.00026	0.0002	0.00025	2e-05	-0.00019	4
15262	-7e-05	-8e-05	-0.00015	-0.00026	0.0002	0.00025	2e-05	-0.00019	4
15263	-7e-05	-8e-05	-0.00015	-0.00026	0.0002	0.00025	2e-05	-0.00019	4
15264	-7e-05	-8e-05	-0.00015	-0.00026	0.0002	0.00025	2e-05	-0.00019	4
15265	-7e-05	-8e-05	-0.00015	-0.00026	0.0002	0.00025	2e-05	-0.00019	4
15266	-7e-05	-8e-05	-0.00015	-0.00026	0.0002	0.00025	2e-05	-0.00019	4
15267	-7e-05	-8e-05	-0.00015	-0.00026	0.0002	0.00025	2e-05	-0.00019	4
15268	-7e-05	-8e-05	-0.00015	-0.00026	0.0002	0.00025	2e-05	-0.00019	4
15269	-7e-05	-8e-05	-0.00015	-0.00026	0.0002	0.00025	2e-05	-0.00019	4
15270	-7e-05	-8e-05	-0.00015	-0.00026	0.0002	0.00025	2e-05	-0.00019	4
15271	-7e-05	-8e-05	-0.00015	-0.00026	0.0002	0.00025	2e-05	-0.00019	4
15272	-7e-05	-8e-05	-0.00015	-0.00026	0.0002	0.00025	2e-05	-0.00019	4
15273	-7e-05	-8e-05	-0.00015	-0.00026	0.0002	0.00025	2e-05	-0.00019	4
15274	-7e-05	-8e-05	-0.00015	-0.00026	0.0002	0.00025	2e-05	-0.00019	4
15275	-7e-05	-8e-05	-0.00015	-0.00026	0.0002	0.00025	2e-05	-0.00019	4
15276	-7e-05	-8e-05	-0.00015	-0.00026	0.0002	0.00025	2e-05	-0.00019	4
15277	-7e-05	-8e-05	-0.00015	-0.00026	0.0002	0.00025	2e-05	-0.00019	4
15278	-3e-05	-2e-05	-2e-05	0.00042	0.00113	0.00019	6e-05	4e-05	4
15279	5e-05	8e-05	4e-05	0.00048	0.00056	-0.0001	2e-05	0.00012	4
15280	5e-05	8e-05	4e-05	0.00048	0.00056	-0.0001	2e-05	0.00012	4
15281	5e-05	8e-05	4e-05	0.00048	0.00056	-0.0001	2e-05	0.00012	4
15282	5e-05	8e-05	4e-05	0.00048	0.00056	-0.0001	2e-05	0.00012	4
15283	5e-05	8e-05	4e-05	0.00048	0.00056	-0.0001	2e-05	0.00012	4
15284	5e-05	8e-05	4e-05	0.00048	0.00056	-0.0001	2e-05	0.00012	4
15285	5e-05	8e-05	4e-05	0.00048	0.00056	-0.0001	2e-05	0.00012	4
15286	5e-05	8e-05	4e-05	0.00048	0.00056	-0.0001	2e-05	0.00012	4
15288	5e-05	8e-05	4e-05	0.00048	0.00056	-0.0001	2e-05	0.00012	4
15289	5e-05	8e-05	4e-05	0.00048	0.00056	-0.0001	2e-05	0.00012	4
15290	5e-05	8e-05	4e-05	0.00048	0.00056	-0.0001	2e-05	0.00012	4
15291	5e-05	8e-05	4e-05	0.00048	0.00056	-0.0001	2e-05	0.00012	4
15292	-1e-05	-6e-05	-7e-05	-4e-05	-0.00055	-0.0002	-7e-05	0.00024	4
15293	-4e-05	-7e-05	-8e-05	-0.00033	-0.00022	-0.00059	-0.00011	-9e-05	4
15294	-4e-05	-7e-05	-8e-05	-0.00033	-0.00022	-0.00059	-0.00011	-9e-05	4
15295	-4e-05	-7e-05	-8e-05	-0.00033	-0.00022	-0.00059	-0.00011	-9e-05	4
15296	-4e-05	-7e-05	-8e-05	-0.00033	-0.00022	-0.00059	-0.00011	-9e-05	4
15297	-4e-05	-7e-05	-8e-05	-0.00033	-0.00022	-0.00059	-0.00011	-9e-05	4
15298	-4e-05	-7e-05	-8e-05	-0.00033	-0.00022	-0.00059	-0.00011	-9e-05	4
15299	-4e-05	-7e-05	-8e-05	-0.00033	-0.00022	-0.00059	-0.00011	-9e-05	4
15300	-4e-05	-7e-05	-8e-05	-0.00033	-0.00022	-0.00059	-0.00011	-9e-05	4
15301	-4e-05	-7e-05	-8e-05	-0.00033	-0.00022	-0.00059	-0.00011	-9e-05	4
15302	-4e-05	-7e-05	-8e-05	-0.00033	-0.00022	-0.00059	-0.00011	-9e-05	4
15303	-4e-05	-7e-05	-8e-05	-0.00033	-0.00022	-0.00059	-0.00011	-9e-05	4
15304	-4e-05	-7e-05	-8e-05	-0.00033	-0.00022	-0.00059	-0.00011	-9e-05	4
15305	-4e-05	-7e-05	-8e-05	-0.00033	-0.00022	-0.00059	-0.00011	-9e-05	4
15306	-4e-05	-7e-05	-8e-05	-0.00033	-0.00022	-0.00059	-0.00011	-9e-05	4
15307	-4e-05	-7e-05	-8e-05	-0.00033	-0.00022	-0.00059	-0.00011	-9e-05	4
15308	-4e-05	-7e-05	-8e-05	-0.00033	-0.00022	-0.00059	-0.00011	-9e-05	4
15309	-4e-05	-7e-05	-8e-05	-0.00033	-0.00022	-0.00059	-0.00011	-9e-05	4
15310	-4e-05	-7e-05	-8e-05	-0.00033	-0.00022	-0.00059	-0.00011	-9e-05	4
15311	-4e-05	-7e-05	-8e-05	-0.00033	-0.00022	-0.00059	-0.00011	-9e-05	4
15312	-4e-05	-7e-05	-8e-05	-0.00033	-0.00022	-0.00059	-0.00011	-9e-05	4
15313	-4e-05	-7e-05	-8e-05	-0.00033	-0.00022	-0.00059	-0.00011	-9e-05	4
15314	-4e-05	-7e-05	-8e-05	-0.00033	-0.00022	-0.00059	-0.00011	-9e-05	4
15315	3e-05	0	3e-05	0.00021	-0.00033	0.00018	9e-05	0.00021	4
15316	1e-05	2e-05	-5e-05	3e-05	-0.0005	-0.00057	-6e-05	-7e-05	4
15317	1e-05	2e-05	-5e-05	3e-05	-0.0005	-0.00057	-6e-05	-7e-05	4
15318	1e-05	2e-05	-5e-05	3e-05	-0.0005	-0.00057	-6e-05	-7e-05	4
15319	1e-05	2e-05	-5e-05	3e-05	-0.0005	-0.00057	-6e-05	-7e-05	4
15320	1e-05	2e-05	-5e-05	3e-05	-0.0005	-0.00057	-6e-05	-7e-05	4
15321	1e-05	2e-05	-5e-05	3e-05	-0.0005	-0.00057	-6e-05	-7e-05	4
15322	1e-05	2e-05	-5e-05	3e-05	-0.0005	-0.00057	-6e-05	-7e-05	4
15323	1e-05	2e-05	-5e-05	3e-05	-0.0005	-0.00057	-6e-05	-7e-05	4
15324	1e-05	2e-05	-5e-05	3e-05	-0.0005	-0.00057	-6e-05	-7e-05	4
15325	1e-05	2e-05	-5e-05	3e-05	-0.0005	-0.00057	-6e-05	-7e-05	4
15326	1e-05	2e-05	-5e-05	3e-05	-0.0005	-0.00057	-6e-05	-7e-05	4
15327	1e-05	2e-05	-5e-05	3e-05	-0.0005	-0.00057	-6e-05	-7e-05	4
15328	1e-05	2e-05	-5e-05	3e-05	-0.0005	-0.00057	-6e-05	-7e-05	4
15329	1e-05	2e-05	-5e-05	3e-05	-0.0005	-0.00057	-6e-05	-7e-05	4
15330	1e-05	2e-05	-5e-05	3e-05	-0.0005	-0.00057	-6e-05	-7e-05	4
15331	1e-05	2e-05	-5e-05	3e-05	-0.0005	-0.00057	-6e-05	-7e-05	4
15332	1e-05	2e-05	-5e-05	3e-05	-0.0005	-0.00057	-6e-05	-7e-05	4
15333	1e-05	2e-05	-5e-05	3e-05	-0.0005	-0.00057	-6e-05	-7e-05	4
15334	1e-05	2e-05	-5e-05	3e-05	-0.0005	-0.00057	-6e-05	-7e-05	4
15335	1e-05	2e-05	-5e-05	3e-05	-0.0005	-0.00057	-6e-05	-7e-05	4
15336	1e-05	2e-05	-5e-05	3e-05	-0.0005	-0.00057	-6e-05	-7e-05	4
15338	-7e-05	-0.0001	-0.00014	-0.0001	0.00098	0.00043	-4e-05	5e-05	4
15339	-2e-05	-3e-05	-0.00015	-0.00112	-9e-05	-2e-05	-8e-05	2e-05	4
15340	-2e-05	-3e-05	-0.00015	-0.00112	-9e-05	-2e-05	-8e-05	2e-05	4
15341	-2e-05	-3e-05	-0.00015	-0.00112	-9e-05	-2e-05	-8e-05	2e-05	4
15342	-2e-05	-3e-05	-0.00015	-0.00112	-9e-05	-2e-05	-8e-05	2e-05	4
15343	-2e-05	-3e-05	-0.00015	-0.00112	-9e-05	-2e-05	-8e-05	2e-05	4
15344	-2e-05	-3e-05	-0.00015	-0.00112	-9e-05	-2e-05	-8e-05	2e-05	4
15345	-2e-05	-3e-05	-0.00015	-0.00112	-9e-05	-2e-05	-8e-05	2e-05	4
15346	-2e-05	-3e-05	-0.00015	-0.00112	-9e-05	-2e-05	-8e-05	2e-05	4
15347	-2e-05	-3e-05	-0.00015	-0.00112	-9e-05	-2e-05	-8e-05	2e-05	4
15348	-2e-05	-3e-05	-0.00015	-0.00112	-9e-05	-2e-05	-8e-05	2e-05	4
15349	-2e-05	-3e-05	-0.00015	-0.00112	-9e-05	-2e-05	-8e-05	2e-05	4
15350	-2e-05	-3e-05	-0.00015	-0.00112	-9e-05	-2e-05	-8e-05	2e-05	4
15351	-2e-05	-3e-05	-0.00015	-0.00112	-9e-05	-2e-05	-8e-05	2e-05	4
15352	2e-05	6e-05	0.00011	6e-05	-0.00041	-0.00045	-4e-05	-0.00012	4
15353	2e-05	2e-05	6e-05	0.00061	-0.00051	0.00021	-2e-05	0.00015	4
15354	2e-05	2e-05	6e-05	0.00061	-0.00051	0.00021	-2e-05	0.00015	4
15355	2e-05	2e-05	6e-05	0.00061	-0.00051	0.00021	-2e-05	0.00015	4
15356	2e-05	2e-05	6e-05	0.00061	-0.00051	0.00021	-2e-05	0.00015	4
15357	2e-05	2e-05	6e-05	0.00061	-0.00051	0.00021	-2e-05	0.00015	4
15358	2e-05	2e-05	6e-05	0.00061	-0.00051	0.00021	-2e-05	0.00015	4
15359	2e-05	2e-05	6e-05	0.00061	-0.00051	0.00021	-2e-05	0.00015	4
15360	2e-05	2e-05	6e-05	0.00061	-0.00051	0.00021	-2e-05	0.00015	4
15361	2e-05	2e-05	6e-05	0.00061	-0.00051	0.00021	-2e-05	0.00015	4
15362	2e-05	2e-05	6e-05	0.00061	-0.00051	0.00021	-2e-05	0.00015	4
15363	2e-05	2e-05	6e-05	0.00061	-0.00051	0.00021	-2e-05	0.00015	4
15364	2e-05	2e-05	6e-05	0.00061	-0.00051	0.00021	-2e-05	0.00015	4
15365	2e-05	2e-05	6e-05	0.00061	-0.00051	0.00021	-2e-05	0.00015	4
15366	2e-05	2e-05	6e-05	0.00061	-0.00051	0.00021	-2e-05	0.00015	4
15367	2e-05	2e-05	6e-05	0.00061	-0.00051	0.00021	-2e-05	0.00015	4
15368	2e-05	2e-05	6e-05	0.00061	-0.00051	0.00021	-2e-05	0.00015	4
15369	2e-05	2e-05	6e-05	0.00061	-0.00051	0.00021	-2e-05	0.00015	4
15370	2e-05	2e-05	6e-05	0.00061	-0.00051	0.00021	-2e-05	0.00015	4
15371	2e-05	2e-05	6e-05	0.00061	-0.00051	0.00021	-2e-05	0.00015	4
15372	2e-05	2e-05	6e-05	0.00061	-0.00051	0.00021	-2e-05	0.00015	4
15373	2e-05	2e-05	6e-05	0.00061	-0.00051	0.00021	-2e-05	0.00015	4
15374	2e-05	2e-05	6e-05	0.00061	-0.00051	0.00021	-2e-05	0.00015	4
15375	-8e-05	-4e-05	-8e-05	-0.00064	-0.00114	-0.00092	-0.00016	-0.00018	4
15376	4e-05	2e-05	-6e-05	-0.00081	-0.00041	6e-05	-2e-05	0	4
15377	4e-05	2e-05	-6e-05	-0.00081	-0.00041	6e-05	-2e-05	0	4
15378	4e-05	2e-05	-6e-05	-0.00081	-0.00041	6e-05	-2e-05	0	4
15379	4e-05	2e-05	-6e-05	-0.00081	-0.00041	6e-05	-2e-05	0	4
15380	4e-05	2e-05	-6e-05	-0.00081	-0.00041	6e-05	-2e-05	0	4
15381	4e-05	2e-05	-6e-05	-0.00081	-0.00041	6e-05	-2e-05	0	4
15382	4e-05	2e-05	-6e-05	-0.00081	-0.00041	6e-05	-2e-05	0	4
15383	4e-05	2e-05	-6e-05	-0.00081	-0.00041	6e-05	-2e-05	0	4
15384	4e-05	2e-05	-6e-05	-0.00081	-0.00041	6e-05	-2e-05	0	4
15385	4e-05	2e-05	-6e-05	-0.00081	-0.00041	6e-05	-2e-05	0	4
15386	4e-05	2e-05	-6e-05	-0.00081	-0.00041	6e-05	-2e-05	0	4
15388	4e-05	2e-05	-6e-05	-0.00081	-0.00041	6e-05	-2e-05	0	4
15389	4e-05	2e-05	-6e-05	-0.00081	-0.00041	6e-05	-2e-05	0	4
15390	4e-05	2e-05	-6e-05	-0.00081	-0.00041	6e-05	-2e-05	0	4
15391	4e-05	2e-05	-6e-05	-0.00081	-0.00041	6e-05	-2e-05	0	4
15392	4e-05	2e-05	-6e-05	-0.00081	-0.00041	6e-05	-2e-05	0	4
15393	4e-05	2e-05	-6e-05	-0.00081	-0.00041	6e-05	-2e-05	0	4
15394	4e-05	2e-05	-6e-05	-0.00081	-0.00041	6e-05	-2e-05	0	4
15395	4e-05	2e-05	-6e-05	-0.00081	-0.00041	6e-05	-2e-05	0	4
15396	4e-05	2e-05	-6e-05	-0.00081	-0.00041	6e-05	-2e-05	0	4
15397	4e-05	2e-05	-6e-05	-0.00081	-0.00041	6e-05	-2e-05	0	4
15398	-4e-05	-5e-05	-7e-05	-0.00055	-0.00041	0.001	0	-0.00023	4
15399	-4e-05	-5e-05	-7e-05	-0.00055	-0.00041	0.001	0	-0.00023	4
15400	-7e-05	-7e-05	-7e-05	-8e-05	4e-05	-0.00019	-9e-05	-0.00019	4
15401	-7e-05	-7e-05	-7e-05	-8e-05	4e-05	-0.00019	-9e-05	-0.00019	4
15402	-7e-05	-7e-05	-7e-05	-8e-05	4e-05	-0.00019	-9e-05	-0.00019	4
15403	-7e-05	-7e-05	-7e-05	-8e-05	4e-05	-0.00019	-9e-05	-0.00019	4
15404	-7e-05	-7e-05	-7e-05	-8e-05	4e-05	-0.00019	-9e-05	-0.00019	4
15405	-7e-05	-7e-05	-7e-05	-8e-05	4e-05	-0.00019	-9e-05	-0.00019	4
15406	-7e-05	-7e-05	-7e-05	-8e-05	4e-05	-0.00019	-9e-05	-0.00019	4
15407	-7e-05	-7e-05	-7e-05	-8e-05	4e-05	-0.00019	-9e-05	-0.00019	4
15408	-7e-05	-7e-05	-7e-05	-8e-05	4e-05	-0.00019	-9e-05	-0.00019	4
15409	-7e-05	-7e-05	-7e-05	-8e-05	4e-05	-0.00019	-9e-05	-0.00019	4
15410	-7e-05	-7e-05	-7e-05	-8e-05	4e-05	-0.00019	-9e-05	-0.00019	4
15411	-7e-05	-7e-05	-7e-05	-8e-05	4e-05	-0.00019	-9e-05	-0.00019	4
15412	0	1e-05	-4e-05	8e-05	-0.00016	-0.00033	-2e-05	-0.0001	4
15413	-5e-05	-2e-05	0.0001	0.00085	0.00107	-6e-05	-1e-05	-0.00026	4
15414	-5e-05	-2e-05	0.0001	0.00085	0.00107	-6e-05	-1e-05	-0.00026	4
15415	-5e-05	-2e-05	0.0001	0.00085	0.00107	-6e-05	-1e-05	-0.00026	4
15416	-5e-05	-2e-05	0.0001	0.00085	0.00107	-6e-05	-1e-05	-0.00026	4
15417	-5e-05	-2e-05	0.0001	0.00085	0.00107	-6e-05	-1e-05	-0.00026	4
15418	-5e-05	-2e-05	0.0001	0.00085	0.00107	-6e-05	-1e-05	-0.00026	4
15419	-5e-05	-2e-05	0.0001	0.00085	0.00107	-6e-05	-1e-05	-0.00026	4
15420	-5e-05	-2e-05	0.0001	0.00085	0.00107	-6e-05	-1e-05	-0.00026	4
15421	-5e-05	-2e-05	0.0001	0.00085	0.00107	-6e-05	-1e-05	-0.00026	4
15422	-5e-05	-2e-05	0.0001	0.00085	0.00107	-6e-05	-1e-05	-0.00026	4
15423	-5e-05	-2e-05	0.0001	0.00085	0.00107	-6e-05	-1e-05	-0.00026	4
15424	-5e-05	-2e-05	0.0001	0.00085	0.00107	-6e-05	-1e-05	-0.00026	4
15425	-5e-05	-2e-05	0.0001	0.00085	0.00107	-6e-05	-1e-05	-0.00026	4
15427	-5e-05	-2e-05	0.0001	0.00085	0.00107	-6e-05	-1e-05	-0.00026	4
15428	-5e-05	-2e-05	0.0001	0.00085	0.00107	-6e-05	-1e-05	-0.00026	4
15429	-5e-05	-2e-05	0.0001	0.00085	0.00107	-6e-05	-1e-05	-0.00026	4
15430	-5e-05	-2e-05	0.0001	0.00085	0.00107	-6e-05	-1e-05	-0.00026	4
15431	-5e-05	-2e-05	0.0001	0.00085	0.00107	-6e-05	-1e-05	-0.00026	4
15432	-5e-05	-2e-05	0.0001	0.00085	0.00107	-6e-05	-1e-05	-0.00026	4
15433	-5e-05	-2e-05	0.0001	0.00085	0.00107	-6e-05	-1e-05	-0.00026	4
15434	-5e-05	-2e-05	0.0001	0.00085	0.00107	-6e-05	-1e-05	-0.00026	4
15435	0.00012	8e-05	0.00011	0.00035	0.00115	0.00035	0.00021	0.00026	4
15436	7e-05	0.00013	0.00021	0.00089	0.00029	0	7e-05	0.00017	4
15438	7e-05	0.00013	0.00021	0.00089	0.00029	0	7e-05	0.00017	4
15439	7e-05	0.00013	0.00021	0.00089	0.00029	0	7e-05	0.00017	4
15440	7e-05	0.00013	0.00021	0.00089	0.00029	0	7e-05	0.00017	4
15441	7e-05	0.00013	0.00021	0.00089	0.00029	0	7e-05	0.00017	4
15442	7e-05	0.00013	0.00021	0.00089	0.00029	0	7e-05	0.00017	4
15443	7e-05	0.00013	0.00021	0.00089	0.00029	0	7e-05	0.00017	4
15444	7e-05	0.00013	0.00021	0.00089	0.00029	0	7e-05	0.00017	4
15445	7e-05	0.00013	0.00021	0.00089	0.00029	0	7e-05	0.00017	4
15446	7e-05	0.00013	0.00021	0.00089	0.00029	0	7e-05	0.00017	4
15447	7e-05	0.00013	0.00021	0.00089	0.00029	0	7e-05	0.00017	4
15448	7e-05	0.00013	0.00021	0.00089	0.00029	0	7e-05	0.00017	4
15449	7e-05	0.00013	0.00021	0.00089	0.00029	0	7e-05	0.00017	4
15450	7e-05	0.00013	0.00021	0.00089	0.00029	0	7e-05	0.00017	4
15451	7e-05	0.00013	0.00021	0.00089	0.00029	0	7e-05	0.00017	4
15452	7e-05	0.00013	0.00021	0.00089	0.00029	0	7e-05	0.00017	4
15453	7e-05	0.00013	0.00021	0.00089	0.00029	0	7e-05	0.00017	4
15454	7e-05	0.00013	0.00021	0.00089	0.00029	0	7e-05	0.00017	4
15455	7e-05	0.00013	0.00021	0.00089	0.00029	0	7e-05	0.00017	4
15456	7e-05	0.00013	0.00021	0.00089	0.00029	0	7e-05	0.00017	4
15457	7e-05	0.00013	0.00021	0.00089	0.00029	0	7e-05	0.00017	4
15458	-5e-05	-0.00014	-0.00017	-0.00013	-0.00039	-0.00041	-0.0001	5e-05	4
15459	-3e-05	-0.0001	-0.00011	-0.00094	-0.00128	3e-05	-5e-05	0.00021	4
15460	-3e-05	-0.0001	-0.00011	-0.00094	-0.00128	3e-05	-5e-05	0.00021	4
15461	-3e-05	-0.0001	-0.00011	-0.00094	-0.00128	3e-05	-5e-05	0.00021	4
15462	-3e-05	-0.0001	-0.00011	-0.00094	-0.00128	3e-05	-5e-05	0.00021	4
15463	-3e-05	-0.0001	-0.00011	-0.00094	-0.00128	3e-05	-5e-05	0.00021	4
15464	-3e-05	-0.0001	-0.00011	-0.00094	-0.00128	3e-05	-5e-05	0.00021	4
15465	-3e-05	-0.0001	-0.00011	-0.00094	-0.00128	3e-05	-5e-05	0.00021	4
15466	-3e-05	-0.0001	-0.00011	-0.00094	-0.00128	3e-05	-5e-05	0.00021	4
15467	-3e-05	-0.0001	-0.00011	-0.00094	-0.00128	3e-05	-5e-05	0.00021	4
15468	-3e-05	-0.0001	-0.00011	-0.00094	-0.00128	3e-05	-5e-05	0.00021	4
15469	-3e-05	-0.0001	-0.00011	-0.00094	-0.00128	3e-05	-5e-05	0.00021	4
15470	-3e-05	-0.0001	-0.00011	-0.00094	-0.00128	3e-05	-5e-05	0.00021	4
15471	-3e-05	-0.0001	-0.00011	-0.00094	-0.00128	3e-05	-5e-05	0.00021	4
15472	-3e-05	-7e-05	-2e-05	-0.00056	0.0001	-0.00049	-0.0002	-6e-05	4
15473	-3e-05	-7e-05	-2e-05	-0.00056	0.0001	-0.00049	-0.0002	-6e-05	4
15475	-3e-05	-7e-05	-2e-05	-0.00056	0.0001	-0.00049	-0.0002	-6e-05	4
15476	-3e-05	-7e-05	-2e-05	-0.00056	0.0001	-0.00049	-0.0002	-6e-05	4
15477	-3e-05	-7e-05	-2e-05	-0.00056	0.0001	-0.00049	-0.0002	-6e-05	4
15478	-3e-05	-7e-05	-2e-05	-0.00056	0.0001	-0.00049	-0.0002	-6e-05	4
15479	-3e-05	-7e-05	-2e-05	-0.00056	0.0001	-0.00049	-0.0002	-6e-05	4
15480	-5e-05	-2e-05	-0.00013	-0.00098	-0.00015	-0.0003	3e-05	-0.00024	4
15481	-5e-05	-2e-05	-0.00013	-0.00098	-0.00015	-0.0003	3e-05	-0.00024	4
15482	-5e-05	-2e-05	-0.00013	-0.00098	-0.00015	-0.0003	3e-05	-0.00024	4
15483	-5e-05	-2e-05	-0.00013	-0.00098	-0.00015	-0.0003	3e-05	-0.00024	4
15484	-5e-05	-2e-05	-0.00013	-0.00098	-0.00015	-0.0003	3e-05	-0.00024	4
15485	-5e-05	-2e-05	-0.00013	-0.00098	-0.00015	-0.0003	3e-05	-0.00024	4
15486	-5e-05	-2e-05	-0.00013	-0.00098	-0.00015	-0.0003	3e-05	-0.00024	4
15488	-5e-05	-2e-05	-0.00013	-0.00098	-0.00015	-0.0003	3e-05	-0.00024	4
15489	-5e-05	-2e-05	-0.00013	-0.00098	-0.00015	-0.0003	3e-05	-0.00024	4
15490	-5e-05	-2e-05	-0.00013	-0.00098	-0.00015	-0.0003	3e-05	-0.00024	4
15491	-5e-05	-2e-05	-0.00013	-0.00098	-0.00015	-0.0003	3e-05	-0.00024	4
15492	-5e-05	-2e-05	-0.00013	-0.00098	-0.00015	-0.0003	3e-05	-0.00024	4
15493	-5e-05	-2e-05	-0.00013	-0.00098	-0.00015	-0.0003	3e-05	-0.00024	4
15494	-5e-05	-2e-05	-0.00013	-0.00098	-0.00015	-0.0003	3e-05	-0.00024	4
15495	-5e-05	-2e-05	-0.00013	-0.00098	-0.00015	-0.0003	3e-05	-0.00024	4
15496	-5e-05	-2e-05	-0.00013	-0.00098	-0.00015	-0.0003	3e-05	-0.00024	4
15497	-5e-05	-2e-05	-0.00013	-0.00098	-0.00015	-0.0003	3e-05	-0.00024	4
15498	-5e-05	-2e-05	-0.00013	-0.00098	-0.00015	-0.0003	3e-05	-0.00024	4
15499	-5e-05	-2e-05	-0.00013	-0.00098	-0.00015	-0.0003	3e-05	-0.00024	4
15500	-5e-05	-2e-05	-0.00013	-0.00098	-0.00015	-0.0003	3e-05	-0.00024	4
15501	-5e-05	-2e-05	-0.00013	-0.00098	-0.00015	-0.0003	3e-05	-0.00024	4
15502	-5e-05	-2e-05	-0.00013	-0.00098	-0.00015	-0.0003	3e-05	-0.00024	4
15503	0	-2e-05	-3e-05	-0.00013	-0.00085	-0.00085	5e-05	0.00027	4
15504	5e-05	-4e-05	4e-05	0.0005	-0.00019	0.0003	0.00021	0.00047	4
15505	5e-05	-4e-05	4e-05	0.0005	-0.00019	0.0003	0.00021	0.00047	4
15506	5e-05	-4e-05	4e-05	0.0005	-0.00019	0.0003	0.00021	0.00047	4
15507	5e-05	-4e-05	4e-05	0.0005	-0.00019	0.0003	0.00021	0.00047	4
15508	5e-05	-4e-05	4e-05	0.0005	-0.00019	0.0003	0.00021	0.00047	4
15509	5e-05	-4e-05	4e-05	0.0005	-0.00019	0.0003	0.00021	0.00047	4
15510	5e-05	-4e-05	4e-05	0.0005	-0.00019	0.0003	0.00021	0.00047	4
15511	5e-05	-4e-05	4e-05	0.0005	-0.00019	0.0003	0.00021	0.00047	4
15512	5e-05	-4e-05	4e-05	0.0005	-0.00019	0.0003	0.00021	0.00047	4
15513	5e-05	-4e-05	4e-05	0.0005	-0.00019	0.0003	0.00021	0.00047	4
15514	5e-05	-4e-05	4e-05	0.0005	-0.00019	0.0003	0.00021	0.00047	4
15515	5e-05	-4e-05	4e-05	0.0005	-0.00019	0.0003	0.00021	0.00047	4
15516	5e-05	-4e-05	4e-05	0.0005	-0.00019	0.0003	0.00021	0.00047	4
15517	5e-05	-4e-05	4e-05	0.0005	-0.00019	0.0003	0.00021	0.00047	4
15518	-8e-05	-7e-05	-0.00012	-0.00063	-0.00128	-0.00087	-0.00023	-0.00028	4
15519	-2e-05	2e-05	5e-05	0.00022	-0.00059	0.00029	-0.00026	-0.00021	4
15520	-2e-05	2e-05	5e-05	0.00022	-0.00059	0.00029	-0.00026	-0.00021	4
15521	-2e-05	2e-05	5e-05	0.00022	-0.00059	0.00029	-0.00026	-0.00021	4
15522	-2e-05	2e-05	5e-05	0.00022	-0.00059	0.00029	-0.00026	-0.00021	4
15523	-2e-05	2e-05	5e-05	0.00022	-0.00059	0.00029	-0.00026	-0.00021	4
15524	-2e-05	2e-05	5e-05	0.00022	-0.00059	0.00029	-0.00026	-0.00021	4
15525	-2e-05	2e-05	5e-05	0.00022	-0.00059	0.00029	-0.00026	-0.00021	4
15526	-2e-05	2e-05	5e-05	0.00022	-0.00059	0.00029	-0.00026	-0.00021	4
15527	-2e-05	2e-05	5e-05	0.00022	-0.00059	0.00029	-0.00026	-0.00021	4
15528	-2e-05	2e-05	5e-05	0.00022	-0.00059	0.00029	-0.00026	-0.00021	4
15529	-2e-05	2e-05	5e-05	0.00022	-0.00059	0.00029	-0.00026	-0.00021	4
15530	-2e-05	2e-05	5e-05	0.00022	-0.00059	0.00029	-0.00026	-0.00021	4
15531	-2e-05	2e-05	5e-05	0.00022	-0.00059	0.00029	-0.00026	-0.00021	4
15532	-2e-05	2e-05	5e-05	0.00022	-0.00059	0.00029	-0.00026	-0.00021	4
15533	1e-05	-2e-05	-1e-05	8e-05	-0.00044	-0.00041	2e-05	9e-05	4
15534	1e-05	-2e-05	-1e-05	8e-05	-0.00044	-0.00041	2e-05	9e-05	4
15535	1e-05	-2e-05	-1e-05	8e-05	-0.00044	-0.00041	2e-05	9e-05	4
15536	1e-05	-2e-05	-1e-05	8e-05	-0.00044	-0.00041	2e-05	9e-05	4
15538	1e-05	-2e-05	-1e-05	8e-05	-0.00044	-0.00041	2e-05	9e-05	4
15539	1e-05	-2e-05	-1e-05	8e-05	-0.00044	-0.00041	2e-05	9e-05	4
15540	-6e-05	-6e-05	-0.00013	-0.00039	-0.00052	-0.00013	-0.00014	-2e-05	4
15541	-6e-05	-6e-05	-0.00013	-0.00039	-0.00052	-0.00013	-0.00014	-2e-05	4
15542	-6e-05	-6e-05	-0.00013	-0.00039	-0.00052	-0.00013	-0.00014	-2e-05	4
15543	-6e-05	-6e-05	-0.00013	-0.00039	-0.00052	-0.00013	-0.00014	-2e-05	4
15544	-6e-05	-6e-05	-0.00013	-0.00039	-0.00052	-0.00013	-0.00014	-2e-05	4
15545	-6e-05	-6e-05	-0.00013	-0.00039	-0.00052	-0.00013	-0.00014	-2e-05	4
15546	-6e-05	-6e-05	-0.00013	-0.00039	-0.00052	-0.00013	-0.00014	-2e-05	4
15547	-6e-05	-6e-05	-0.00013	-0.00039	-0.00052	-0.00013	-0.00014	-2e-05	4
15548	-6e-05	-6e-05	-0.00013	-0.00039	-0.00052	-0.00013	-0.00014	-2e-05	4
15549	-6e-05	-6e-05	-0.00013	-0.00039	-0.00052	-0.00013	-0.00014	-2e-05	4
15550	-6e-05	-6e-05	-0.00013	-0.00039	-0.00052	-0.00013	-0.00014	-2e-05	4
15551	-6e-05	-6e-05	-0.00013	-0.00039	-0.00052	-0.00013	-0.00014	-2e-05	4
15552	-6e-05	-6e-05	-0.00013	-0.00039	-0.00052	-0.00013	-0.00014	-2e-05	4
15553	-6e-05	-6e-05	-0.00013	-0.00039	-0.00052	-0.00013	-0.00014	-2e-05	4
15554	-6e-05	-6e-05	-0.00013	-0.00039	-0.00052	-0.00013	-0.00014	-2e-05	4
15555	-6e-05	-1e-05	3e-05	0.00021	0.00105	0.00025	0.00013	0	4
15556	5e-05	2e-05	9e-05	0.00016	0.00049	0.00023	0.00017	0.0002	4
15557	5e-05	2e-05	9e-05	0.00016	0.00049	0.00023	0.00017	0.0002	4
15558	5e-05	2e-05	9e-05	0.00016	0.00049	0.00023	0.00017	0.0002	4
15559	5e-05	2e-05	9e-05	0.00016	0.00049	0.00023	0.00017	0.0002	4
15560	5e-05	2e-05	9e-05	0.00016	0.00049	0.00023	0.00017	0.0002	4
15561	5e-05	2e-05	9e-05	0.00016	0.00049	0.00023	0.00017	0.0002	4
15562	5e-05	2e-05	9e-05	0.00016	0.00049	0.00023	0.00017	0.0002	4
15563	5e-05	2e-05	9e-05	0.00016	0.00049	0.00023	0.00017	0.0002	4
15564	5e-05	2e-05	9e-05	0.00016	0.00049	0.00023	0.00017	0.0002	4
15566	5e-05	2e-05	9e-05	0.00016	0.00049	0.00023	0.00017	0.0002	4
15567	5e-05	2e-05	9e-05	0.00016	0.00049	0.00023	0.00017	0.0002	4
15568	5e-05	2e-05	9e-05	0.00016	0.00049	0.00023	0.00017	0.0002	4
15569	5e-05	2e-05	9e-05	0.00016	0.00049	0.00023	0.00017	0.0002	4
15570	5e-05	2e-05	9e-05	0.00016	0.00049	0.00023	0.00017	0.0002	4
15571	5e-05	2e-05	9e-05	0.00016	0.00049	0.00023	0.00017	0.0002	4
15572	5e-05	2e-05	9e-05	0.00016	0.00049	0.00023	0.00017	0.0002	4
15573	5e-05	2e-05	9e-05	0.00016	0.00049	0.00023	0.00017	0.0002	4
15574	5e-05	2e-05	9e-05	0.00016	0.00049	0.00023	0.00017	0.0002	4
15575	5e-05	2e-05	9e-05	0.00016	0.00049	0.00023	0.00017	0.0002	4
15576	5e-05	2e-05	9e-05	0.00016	0.00049	0.00023	0.00017	0.0002	4
15577	5e-05	2e-05	9e-05	0.00016	0.00049	0.00023	0.00017	0.0002	4
15578	-0.00011	-2e-05	-3e-05	-0.00052	0.00012	0.0001	-0.00015	-9e-05	4
15579	-4e-05	-1e-05	-2e-05	0.00019	0.00072	0.0003	-1e-05	-5e-05	4
15580	-4e-05	-1e-05	-2e-05	0.00019	0.00072	0.0003	-1e-05	-5e-05	4
15581	-4e-05	-1e-05	-2e-05	0.00019	0.00072	0.0003	-1e-05	-5e-05	4
15582	-4e-05	-1e-05	-2e-05	0.00019	0.00072	0.0003	-1e-05	-5e-05	4
15583	-4e-05	-1e-05	-2e-05	0.00019	0.00072	0.0003	-1e-05	-5e-05	4
15584	-4e-05	-1e-05	-2e-05	0.00019	0.00072	0.0003	-1e-05	-5e-05	4
15585	-4e-05	-1e-05	-2e-05	0.00019	0.00072	0.0003	-1e-05	-5e-05	4
15586	-4e-05	-1e-05	-2e-05	0.00019	0.00072	0.0003	-1e-05	-5e-05	4
15588	-4e-05	-1e-05	-2e-05	0.00019	0.00072	0.0003	-1e-05	-5e-05	4
15589	-4e-05	-1e-05	-2e-05	0.00019	0.00072	0.0003	-1e-05	-5e-05	4
15590	-4e-05	-1e-05	-2e-05	0.00019	0.00072	0.0003	-1e-05	-5e-05	4
15591	-4e-05	-1e-05	-2e-05	0.00019	0.00072	0.0003	-1e-05	-5e-05	4
15592	0	0	-2e-05	-6e-05	0.00021	0.00012	9e-05	-0.00037	4
15593	0	0	-2e-05	-6e-05	0.00021	0.00012	9e-05	-0.00037	4
15594	0	0	-2e-05	-6e-05	0.00021	0.00012	9e-05	-0.00037	4
15595	0	0	-2e-05	-6e-05	0.00021	0.00012	9e-05	-0.00037	4
15596	0	0	-2e-05	-6e-05	0.00021	0.00012	9e-05	-0.00037	4
15597	0	0	-2e-05	-6e-05	0.00021	0.00012	9e-05	-0.00037	4
15598	0	0	-2e-05	-6e-05	0.00021	0.00012	9e-05	-0.00037	4
15599	0	0	-2e-05	-6e-05	0.00021	0.00012	9e-05	-0.00037	4
15600	6e-05	2e-05	-9e-05	-6e-05	-0.00057	-0.00069	-1e-05	-0.0001	4
15601	6e-05	2e-05	-9e-05	-6e-05	-0.00057	-0.00069	-1e-05	-0.0001	4
15602	6e-05	2e-05	-9e-05	-6e-05	-0.00057	-0.00069	-1e-05	-0.0001	4
15603	6e-05	2e-05	-9e-05	-6e-05	-0.00057	-0.00069	-1e-05	-0.0001	4
15604	6e-05	2e-05	-9e-05	-6e-05	-0.00057	-0.00069	-1e-05	-0.0001	4
15605	6e-05	2e-05	-9e-05	-6e-05	-0.00057	-0.00069	-1e-05	-0.0001	4
15606	6e-05	2e-05	-9e-05	-6e-05	-0.00057	-0.00069	-1e-05	-0.0001	4
15607	6e-05	2e-05	-9e-05	-6e-05	-0.00057	-0.00069	-1e-05	-0.0001	4
15608	6e-05	2e-05	-9e-05	-6e-05	-0.00057	-0.00069	-1e-05	-0.0001	4
15609	6e-05	2e-05	-9e-05	-6e-05	-0.00057	-0.00069	-1e-05	-0.0001	4
15610	6e-05	2e-05	-9e-05	-6e-05	-0.00057	-0.00069	-1e-05	-0.0001	4
15611	6e-05	2e-05	-9e-05	-6e-05	-0.00057	-0.00069	-1e-05	-0.0001	4
15612	6e-05	2e-05	-9e-05	-6e-05	-0.00057	-0.00069	-1e-05	-0.0001	4
15613	6e-05	2e-05	-9e-05	-6e-05	-0.00057	-0.00069	-1e-05	-0.0001	4
15614	6e-05	2e-05	-9e-05	-6e-05	-0.00057	-0.00069	-1e-05	-0.0001	4
15616	1e-05	-4e-05	3e-05	-0.00012	-0.00048	0.00044	0.00013	8e-05	4
15617	1e-05	-4e-05	3e-05	-0.00012	-0.00048	0.00044	0.00013	8e-05	4
15618	1e-05	-4e-05	3e-05	-0.00012	-0.00048	0.00044	0.00013	8e-05	4
15619	1e-05	-4e-05	3e-05	-0.00012	-0.00048	0.00044	0.00013	8e-05	4
15620	1e-05	-4e-05	3e-05	-0.00012	-0.00048	0.00044	0.00013	8e-05	4
15621	1e-05	-4e-05	3e-05	-0.00012	-0.00048	0.00044	0.00013	8e-05	4
15622	1e-05	-4e-05	3e-05	-0.00012	-0.00048	0.00044	0.00013	8e-05	4
15623	1e-05	-4e-05	3e-05	-0.00012	-0.00048	0.00044	0.00013	8e-05	4
15624	1e-05	-4e-05	3e-05	-0.00012	-0.00048	0.00044	0.00013	8e-05	4
15625	1e-05	-4e-05	3e-05	-0.00012	-0.00048	0.00044	0.00013	8e-05	4
15626	1e-05	-4e-05	3e-05	-0.00012	-0.00048	0.00044	0.00013	8e-05	4
15627	1e-05	-4e-05	3e-05	-0.00012	-0.00048	0.00044	0.00013	8e-05	4
15628	1e-05	-4e-05	3e-05	-0.00012	-0.00048	0.00044	0.00013	8e-05	4
15629	1e-05	-4e-05	3e-05	-0.00012	-0.00048	0.00044	0.00013	8e-05	4
15630	1e-05	-4e-05	3e-05	-0.00012	-0.00048	0.00044	0.00013	8e-05	4
15631	1e-05	-4e-05	3e-05	-0.00012	-0.00048	0.00044	0.00013	8e-05	4
15632	1e-05	-4e-05	3e-05	-0.00012	-0.00048	0.00044	0.00013	8e-05	4
15633	1e-05	-4e-05	3e-05	-0.00012	-0.00048	0.00044	0.00013	8e-05	4
15634	1e-05	-4e-05	3e-05	-0.00012	-0.00048	0.00044	0.00013	8e-05	4
15635	1e-05	-4e-05	3e-05	-0.00012	-0.00048	0.00044	0.00013	8e-05	4
15636	1e-05	-4e-05	3e-05	-0.00012	-0.00048	0.00044	0.00013	8e-05	4
15638	1e-05	-4e-05	3e-05	-0.00012	-0.00048	0.00044	0.00013	8e-05	4
15639	-3e-05	-1e-05	-7e-05	-0.00072	-0.00128	-2e-05	0.00023	0.00016	4
15640	0	0	3e-05	-0.00017	0.00017	-0.00013	-6e-05	-0.00021	4
15641	0	0	3e-05	-0.00017	0.00017	-0.00013	-6e-05	-0.00021	4
15642	0	0	3e-05	-0.00017	0.00017	-0.00013	-6e-05	-0.00021	4
15643	0	0	3e-05	-0.00017	0.00017	-0.00013	-6e-05	-0.00021	4
15644	0	0	3e-05	-0.00017	0.00017	-0.00013	-6e-05	-0.00021	4
15645	0	0	3e-05	-0.00017	0.00017	-0.00013	-6e-05	-0.00021	4
15646	0	0	3e-05	-0.00017	0.00017	-0.00013	-6e-05	-0.00021	4
15647	0	0	3e-05	-0.00017	0.00017	-0.00013	-6e-05	-0.00021	4
15648	0	0	3e-05	-0.00017	0.00017	-0.00013	-6e-05	-0.00021	4
15649	0	0	3e-05	-0.00017	0.00017	-0.00013	-6e-05	-0.00021	4
15650	0	0	3e-05	-0.00017	0.00017	-0.00013	-6e-05	-0.00021	4
15651	0	0	3e-05	-0.00017	0.00017	-0.00013	-6e-05	-0.00021	4
15652	4e-05	0	-4e-05	-0.00039	5e-05	-0.00033	-0.00017	-0.00011	4
15653	4e-05	0	-4e-05	-0.00039	5e-05	-0.00033	-0.00017	-0.00011	4
15654	4e-05	0	-4e-05	-0.00039	5e-05	-0.00033	-0.00017	-0.00011	4
15655	4e-05	0	-4e-05	-0.00039	5e-05	-0.00033	-0.00017	-0.00011	4
15656	4e-05	0	-4e-05	-0.00039	5e-05	-0.00033	-0.00017	-0.00011	4
15657	4e-05	0	-4e-05	-0.00039	5e-05	-0.00033	-0.00017	-0.00011	4
15658	4e-05	0	-4e-05	-0.00039	5e-05	-0.00033	-0.00017	-0.00011	4
15659	4e-05	0	-4e-05	-0.00039	5e-05	-0.00033	-0.00017	-0.00011	4
15660	2e-05	3e-05	9e-05	-5e-05	0.00017	0.00041	2e-05	0.00015	4
15661	2e-05	3e-05	9e-05	-5e-05	0.00017	0.00041	2e-05	0.00015	4
15662	2e-05	3e-05	9e-05	-5e-05	0.00017	0.00041	2e-05	0.00015	4
15663	2e-05	3e-05	9e-05	-5e-05	0.00017	0.00041	2e-05	0.00015	4
15664	2e-05	3e-05	9e-05	-5e-05	0.00017	0.00041	2e-05	0.00015	4
15665	2e-05	3e-05	9e-05	-5e-05	0.00017	0.00041	2e-05	0.00015	4
15666	2e-05	3e-05	9e-05	-5e-05	0.00017	0.00041	2e-05	0.00015	4
15667	2e-05	3e-05	9e-05	-5e-05	0.00017	0.00041	2e-05	0.00015	4
15668	2e-05	3e-05	9e-05	-5e-05	0.00017	0.00041	2e-05	0.00015	4
15669	2e-05	3e-05	9e-05	-5e-05	0.00017	0.00041	2e-05	0.00015	4
15670	2e-05	3e-05	9e-05	-5e-05	0.00017	0.00041	2e-05	0.00015	4
15671	2e-05	3e-05	9e-05	-5e-05	0.00017	0.00041	2e-05	0.00015	4
15672	2e-05	3e-05	9e-05	-5e-05	0.00017	0.00041	2e-05	0.00015	4
15673	2e-05	3e-05	9e-05	-5e-05	0.00017	0.00041	2e-05	0.00015	4
15674	2e-05	3e-05	9e-05	-5e-05	0.00017	0.00041	2e-05	0.00015	4
15675	4e-05	-5e-05	-0.00013	-0.0001	0.00066	-0.00043	-0.00024	0.00017	4
15676	-5e-05	-6e-05	-0.0001	0.00014	0.00073	0.0007	6e-05	-0.00012	4
15677	-5e-05	-6e-05	-0.0001	0.00014	0.00073	0.0007	6e-05	-0.00012	4
15678	-5e-05	-6e-05	-0.0001	0.00014	0.00073	0.0007	6e-05	-0.00012	4
15679	-5e-05	-6e-05	-0.0001	0.00014	0.00073	0.0007	6e-05	-0.00012	4
15680	-5e-05	-6e-05	-0.0001	0.00014	0.00073	0.0007	6e-05	-0.00012	4
15681	-5e-05	-6e-05	-0.0001	0.00014	0.00073	0.0007	6e-05	-0.00012	4
15682	-5e-05	-6e-05	-0.0001	0.00014	0.00073	0.0007	6e-05	-0.00012	4
15683	-5e-05	-6e-05	-0.0001	0.00014	0.00073	0.0007	6e-05	-0.00012	4
15684	-5e-05	-6e-05	-0.0001	0.00014	0.00073	0.0007	6e-05	-0.00012	4
15685	-5e-05	-6e-05	-0.0001	0.00014	0.00073	0.0007	6e-05	-0.00012	4
15686	-5e-05	-6e-05	-0.0001	0.00014	0.00073	0.0007	6e-05	-0.00012	4
15688	-5e-05	-6e-05	-0.0001	0.00014	0.00073	0.0007	6e-05	-0.00012	4
15689	-5e-05	-6e-05	-0.0001	0.00014	0.00073	0.0007	6e-05	-0.00012	4
15690	-5e-05	-6e-05	-0.0001	0.00014	0.00073	0.0007	6e-05	-0.00012	4
15691	-5e-05	-6e-05	-0.0001	0.00014	0.00073	0.0007	6e-05	-0.00012	4
15692	-5e-05	-6e-05	-0.0001	0.00014	0.00073	0.0007	6e-05	-0.00012	4
15693	-5e-05	-6e-05	-0.0001	0.00014	0.00073	0.0007	6e-05	-0.00012	4
15694	-5e-05	-6e-05	-0.0001	0.00014	0.00073	0.0007	6e-05	-0.00012	4
15695	-5e-05	-6e-05	-0.0001	0.00014	0.00073	0.0007	6e-05	-0.00012	4
15696	-5e-05	-6e-05	-0.0001	0.00014	0.00073	0.0007	6e-05	-0.00012	4
15697	-5e-05	-6e-05	-0.0001	0.00014	0.00073	0.0007	6e-05	-0.00012	4
15698	2e-05	-4e-05	1e-05	0.00014	0.00028	0.0003	-9e-05	2e-05	4
15699	-5e-05	-7e-05	-8e-05	-0.00068	0.00031	0.00021	0.00013	0.00014	4
15700	-5e-05	-7e-05	-8e-05	-0.00068	0.00031	0.00021	0.00013	0.00014	4
15701	-5e-05	-7e-05	-8e-05	-0.00068	0.00031	0.00021	0.00013	0.00014	4
15702	-5e-05	-7e-05	-8e-05	-0.00068	0.00031	0.00021	0.00013	0.00014	4
15703	-5e-05	-7e-05	-8e-05	-0.00068	0.00031	0.00021	0.00013	0.00014	4
15704	-5e-05	-7e-05	-8e-05	-0.00068	0.00031	0.00021	0.00013	0.00014	4
15705	-5e-05	-7e-05	-8e-05	-0.00068	0.00031	0.00021	0.00013	0.00014	4
15706	-5e-05	-7e-05	-8e-05	-0.00068	0.00031	0.00021	0.00013	0.00014	4
15707	-5e-05	-7e-05	-8e-05	-0.00068	0.00031	0.00021	0.00013	0.00014	4
15708	-5e-05	-7e-05	-8e-05	-0.00068	0.00031	0.00021	0.00013	0.00014	4
15709	-5e-05	-7e-05	-8e-05	-0.00068	0.00031	0.00021	0.00013	0.00014	4
15710	-5e-05	-7e-05	-8e-05	-0.00068	0.00031	0.00021	0.00013	0.00014	4
15711	-5e-05	-7e-05	-8e-05	-0.00068	0.00031	0.00021	0.00013	0.00014	4
15712	-1e-05	0	2e-05	0.00021	-0.00127	0.00047	-2e-05	-5e-05	4
15713	-1e-05	0	2e-05	0.00021	-0.00127	0.00047	-2e-05	-5e-05	4
15714	-1e-05	0	2e-05	0.00021	-0.00127	0.00047	-2e-05	-5e-05	4
15715	-1e-05	0	2e-05	0.00021	-0.00127	0.00047	-2e-05	-5e-05	4
15716	-1e-05	0	2e-05	0.00021	-0.00127	0.00047	-2e-05	-5e-05	4
15717	-1e-05	0	2e-05	0.00021	-0.00127	0.00047	-2e-05	-5e-05	4
15718	-1e-05	0	2e-05	0.00021	-0.00127	0.00047	-2e-05	-5e-05	4
15719	-1e-05	0	2e-05	0.00021	-0.00127	0.00047	-2e-05	-5e-05	4
15720	7e-05	0.0001	0.00013	0.00094	0.00066	-0.00016	-0.00014	-0.00031	4
15721	7e-05	0.0001	0.00013	0.00094	0.00066	-0.00016	-0.00014	-0.00031	4
15722	7e-05	0.0001	0.00013	0.00094	0.00066	-0.00016	-0.00014	-0.00031	4
15723	7e-05	0.0001	0.00013	0.00094	0.00066	-0.00016	-0.00014	-0.00031	4
15724	7e-05	0.0001	0.00013	0.00094	0.00066	-0.00016	-0.00014	-0.00031	4
15725	7e-05	0.0001	0.00013	0.00094	0.00066	-0.00016	-0.00014	-0.00031	4
15726	7e-05	0.0001	0.00013	0.00094	0.00066	-0.00016	-0.00014	-0.00031	4
15727	7e-05	0.0001	0.00013	0.00094	0.00066	-0.00016	-0.00014	-0.00031	4
15728	7e-05	0.0001	0.00013	0.00094	0.00066	-0.00016	-0.00014	-0.00031	4
15729	7e-05	0.0001	0.00013	0.00094	0.00066	-0.00016	-0.00014	-0.00031	4
15730	7e-05	0.0001	0.00013	0.00094	0.00066	-0.00016	-0.00014	-0.00031	4
15731	7e-05	0.0001	0.00013	0.00094	0.00066	-0.00016	-0.00014	-0.00031	4
15732	7e-05	0.0001	0.00013	0.00094	0.00066	-0.00016	-0.00014	-0.00031	4
15733	7e-05	0.0001	0.00013	0.00094	0.00066	-0.00016	-0.00014	-0.00031	4
15734	7e-05	0.0001	0.00013	0.00094	0.00066	-0.00016	-0.00014	-0.00031	4
15735	4e-05	-2e-05	-2e-05	0.00079	0.00061	0.00077	0.00013	-7e-05	4
15736	-4e-05	-1e-05	3e-05	0.00059	-0.00067	-0.00033	1e-05	0.00016	4
15738	-4e-05	-1e-05	3e-05	0.00059	-0.00067	-0.00033	1e-05	0.00016	4
15739	-4e-05	-1e-05	3e-05	0.00059	-0.00067	-0.00033	1e-05	0.00016	4
15740	-4e-05	-1e-05	3e-05	0.00059	-0.00067	-0.00033	1e-05	0.00016	4
15741	-4e-05	-1e-05	3e-05	0.00059	-0.00067	-0.00033	1e-05	0.00016	4
15742	-4e-05	-1e-05	3e-05	0.00059	-0.00067	-0.00033	1e-05	0.00016	4
15743	-4e-05	-1e-05	3e-05	0.00059	-0.00067	-0.00033	1e-05	0.00016	4
15744	-4e-05	-1e-05	3e-05	0.00059	-0.00067	-0.00033	1e-05	0.00016	4
15745	-4e-05	-1e-05	3e-05	0.00059	-0.00067	-0.00033	1e-05	0.00016	4
15746	-4e-05	-1e-05	3e-05	0.00059	-0.00067	-0.00033	1e-05	0.00016	4
15747	-4e-05	-1e-05	3e-05	0.00059	-0.00067	-0.00033	1e-05	0.00016	4
15748	-4e-05	-1e-05	3e-05	0.00059	-0.00067	-0.00033	1e-05	0.00016	4
15749	-4e-05	-1e-05	3e-05	0.00059	-0.00067	-0.00033	1e-05	0.00016	4
15750	-4e-05	-1e-05	3e-05	0.00059	-0.00067	-0.00033	1e-05	0.00016	4
15752	-4e-05	-1e-05	3e-05	0.00059	-0.00067	-0.00033	1e-05	0.00016	4
15753	-4e-05	-1e-05	3e-05	0.00059	-0.00067	-0.00033	1e-05	0.00016	4
15754	-4e-05	-1e-05	3e-05	0.00059	-0.00067	-0.00033	1e-05	0.00016	4
15755	-4e-05	-1e-05	3e-05	0.00059	-0.00067	-0.00033	1e-05	0.00016	4
15756	-4e-05	-1e-05	3e-05	0.00059	-0.00067	-0.00033	1e-05	0.00016	4
15757	-4e-05	-1e-05	3e-05	0.00059	-0.00067	-0.00033	1e-05	0.00016	4
15758	-3e-05	-7e-05	-2e-05	0.00017	-0.00045	-0.00052	0.00011	0.00012	4
15759	-6e-05	-8e-05	-0.00015	-0.00046	-0.0006	-0.00026	-9e-05	8e-05	4
15760	-6e-05	-8e-05	-0.00015	-0.00046	-0.0006	-0.00026	-9e-05	8e-05	4
15761	-6e-05	-8e-05	-0.00015	-0.00046	-0.0006	-0.00026	-9e-05	8e-05	4
15762	-6e-05	-8e-05	-0.00015	-0.00046	-0.0006	-0.00026	-9e-05	8e-05	4
15763	-6e-05	-8e-05	-0.00015	-0.00046	-0.0006	-0.00026	-9e-05	8e-05	4
15764	-6e-05	-8e-05	-0.00015	-0.00046	-0.0006	-0.00026	-9e-05	8e-05	4
15765	-6e-05	-8e-05	-0.00015	-0.00046	-0.0006	-0.00026	-9e-05	8e-05	4
15766	-6e-05	-8e-05	-0.00015	-0.00046	-0.0006	-0.00026	-9e-05	8e-05	4
15767	-6e-05	-8e-05	-0.00015	-0.00046	-0.0006	-0.00026	-9e-05	8e-05	4
15768	-6e-05	-8e-05	-0.00015	-0.00046	-0.0006	-0.00026	-9e-05	8e-05	4
15769	-6e-05	-8e-05	-0.00015	-0.00046	-0.0006	-0.00026	-9e-05	8e-05	4
15770	-6e-05	-8e-05	-0.00015	-0.00046	-0.0006	-0.00026	-9e-05	8e-05	4
15771	-6e-05	-8e-05	-0.00015	-0.00046	-0.0006	-0.00026	-9e-05	8e-05	4
15772	-8e-05	-5e-05	-0.00013	-0.00096	-0.00036	-0.00041	-4e-05	-6e-05	4
15773	-8e-05	-5e-05	-0.00013	-0.00096	-0.00036	-0.00041	-4e-05	-6e-05	4
15774	-8e-05	-5e-05	-0.00013	-0.00096	-0.00036	-0.00041	-4e-05	-6e-05	4
15775	-8e-05	-5e-05	-0.00013	-0.00096	-0.00036	-0.00041	-4e-05	-6e-05	4
15776	-8e-05	-5e-05	-0.00013	-0.00096	-0.00036	-0.00041	-4e-05	-6e-05	4
15777	-8e-05	-5e-05	-0.00013	-0.00096	-0.00036	-0.00041	-4e-05	-6e-05	4
15778	-8e-05	-5e-05	-0.00013	-0.00096	-0.00036	-0.00041	-4e-05	-6e-05	4
15779	-8e-05	-5e-05	-0.00013	-0.00096	-0.00036	-0.00041	-4e-05	-6e-05	4
15780	-0.00012	-3e-05	-6e-05	-0.00065	-0.00107	-0.00042	6e-05	-0.00026	4
15781	-0.00012	-3e-05	-6e-05	-0.00065	-0.00107	-0.00042	6e-05	-0.00026	4
15782	-0.00012	-3e-05	-6e-05	-0.00065	-0.00107	-0.00042	6e-05	-0.00026	4
15783	-0.00012	-3e-05	-6e-05	-0.00065	-0.00107	-0.00042	6e-05	-0.00026	4
15784	-0.00012	-3e-05	-6e-05	-0.00065	-0.00107	-0.00042	6e-05	-0.00026	4
15785	-0.00012	-3e-05	-6e-05	-0.00065	-0.00107	-0.00042	6e-05	-0.00026	4
15786	-0.00012	-3e-05	-6e-05	-0.00065	-0.00107	-0.00042	6e-05	-0.00026	4
15788	-0.00012	-3e-05	-6e-05	-0.00065	-0.00107	-0.00042	6e-05	-0.00026	4
15789	-0.00012	-3e-05	-6e-05	-0.00065	-0.00107	-0.00042	6e-05	-0.00026	4
15790	-0.00012	-3e-05	-6e-05	-0.00065	-0.00107	-0.00042	6e-05	-0.00026	4
15791	-0.00012	-3e-05	-6e-05	-0.00065	-0.00107	-0.00042	6e-05	-0.00026	4
15792	-0.00012	-3e-05	-6e-05	-0.00065	-0.00107	-0.00042	6e-05	-0.00026	4
15793	-0.00012	-3e-05	-6e-05	-0.00065	-0.00107	-0.00042	6e-05	-0.00026	4
15794	-0.00012	-3e-05	-6e-05	-0.00065	-0.00107	-0.00042	6e-05	-0.00026	4
15795	-2e-05	2e-05	8e-05	1e-05	-0.00026	1e-05	0.0001	-5e-05	4
15796	-6e-05	0	-2e-05	0.00027	0.00093	0.00032	4e-05	0	4
15797	-6e-05	0	-2e-05	0.00027	0.00093	0.00032	4e-05	0	4
15798	-6e-05	0	-2e-05	0.00027	0.00093	0.00032	4e-05	0	4
15799	-6e-05	0	-2e-05	0.00027	0.00093	0.00032	4e-05	0	4
15800	-6e-05	0	-2e-05	0.00027	0.00093	0.00032	4e-05	0	4
15801	-6e-05	0	-2e-05	0.00027	0.00093	0.00032	4e-05	0	4
15802	-6e-05	0	-2e-05	0.00027	0.00093	0.00032	4e-05	0	4
15803	-6e-05	0	-2e-05	0.00027	0.00093	0.00032	4e-05	0	4
15804	-6e-05	0	-2e-05	0.00027	0.00093	0.00032	4e-05	0	4
15805	-6e-05	0	-2e-05	0.00027	0.00093	0.00032	4e-05	0	4
15806	-6e-05	0	-2e-05	0.00027	0.00093	0.00032	4e-05	0	4
15807	-6e-05	0	-2e-05	0.00027	0.00093	0.00032	4e-05	0	4
15808	-6e-05	0	-2e-05	0.00027	0.00093	0.00032	4e-05	0	4
15809	-6e-05	0	-2e-05	0.00027	0.00093	0.00032	4e-05	0	4
15810	-6e-05	0	-2e-05	0.00027	0.00093	0.00032	4e-05	0	4
15811	-6e-05	0	-2e-05	0.00027	0.00093	0.00032	4e-05	0	4
15812	-6e-05	0	-2e-05	0.00027	0.00093	0.00032	4e-05	0	4
15813	-6e-05	0	-2e-05	0.00027	0.00093	0.00032	4e-05	0	4
15814	-6e-05	0	-2e-05	0.00027	0.00093	0.00032	4e-05	0	4
15815	-6e-05	0	-2e-05	0.00027	0.00093	0.00032	4e-05	0	4
15816	-6e-05	0	-2e-05	0.00027	0.00093	0.00032	4e-05	0	4
15817	-6e-05	0	-2e-05	0.00027	0.00093	0.00032	4e-05	0	4
15818	5e-05	1e-05	1e-05	0.00014	-9e-05	0.00042	-3e-05	0.00014	4
15819	-6e-05	3e-05	4e-05	0.00012	-0.00033	-0.00026	4e-05	-0.00015	4
15820	-6e-05	3e-05	4e-05	0.00012	-0.00033	-0.00026	4e-05	-0.00015	4
15821	-6e-05	3e-05	4e-05	0.00012	-0.00033	-0.00026	4e-05	-0.00015	4
15822	-6e-05	3e-05	4e-05	0.00012	-0.00033	-0.00026	4e-05	-0.00015	4
15823	-6e-05	3e-05	4e-05	0.00012	-0.00033	-0.00026	4e-05	-0.00015	4
15824	-6e-05	3e-05	4e-05	0.00012	-0.00033	-0.00026	4e-05	-0.00015	4
15825	-6e-05	3e-05	4e-05	0.00012	-0.00033	-0.00026	4e-05	-0.00015	4
15826	-6e-05	3e-05	4e-05	0.00012	-0.00033	-0.00026	4e-05	-0.00015	4
15827	-6e-05	3e-05	4e-05	0.00012	-0.00033	-0.00026	4e-05	-0.00015	4
15828	-6e-05	3e-05	4e-05	0.00012	-0.00033	-0.00026	4e-05	-0.00015	4
15829	-6e-05	3e-05	4e-05	0.00012	-0.00033	-0.00026	4e-05	-0.00015	4
15830	-6e-05	3e-05	4e-05	0.00012	-0.00033	-0.00026	4e-05	-0.00015	4
15831	-6e-05	3e-05	4e-05	0.00012	-0.00033	-0.00026	4e-05	-0.00015	4
15832	6e-05	-5e-05	-6e-05	-0.00021	0.00023	-6e-05	-3e-05	0.00018	4
15833	6e-05	-5e-05	-6e-05	-0.00021	0.00023	-6e-05	-3e-05	0.00018	4
15834	6e-05	-5e-05	-6e-05	-0.00021	0.00023	-6e-05	-3e-05	0.00018	4
15835	6e-05	-5e-05	-6e-05	-0.00021	0.00023	-6e-05	-3e-05	0.00018	4
15836	6e-05	-5e-05	-6e-05	-0.00021	0.00023	-6e-05	-3e-05	0.00018	4
15838	6e-05	-5e-05	-6e-05	-0.00021	0.00023	-6e-05	-3e-05	0.00018	4
15839	6e-05	-5e-05	-6e-05	-0.00021	0.00023	-6e-05	-3e-05	0.00018	4
15840	8e-05	7e-05	9e-05	-1e-05	0.00085	-0.00015	1e-05	0.00016	4
15841	8e-05	7e-05	9e-05	-1e-05	0.00085	-0.00015	1e-05	0.00016	4
15842	8e-05	7e-05	9e-05	-1e-05	0.00085	-0.00015	1e-05	0.00016	4
15843	8e-05	7e-05	9e-05	-1e-05	0.00085	-0.00015	1e-05	0.00016	4
15844	8e-05	7e-05	9e-05	-1e-05	0.00085	-0.00015	1e-05	0.00016	4
15845	8e-05	7e-05	9e-05	-1e-05	0.00085	-0.00015	1e-05	0.00016	4
15846	8e-05	7e-05	9e-05	-1e-05	0.00085	-0.00015	1e-05	0.00016	4
15847	8e-05	7e-05	9e-05	-1e-05	0.00085	-0.00015	1e-05	0.00016	4
15848	8e-05	7e-05	9e-05	-1e-05	0.00085	-0.00015	1e-05	0.00016	4
15849	8e-05	7e-05	9e-05	-1e-05	0.00085	-0.00015	1e-05	0.00016	4
15850	8e-05	7e-05	9e-05	-1e-05	0.00085	-0.00015	1e-05	0.00016	4
15851	8e-05	7e-05	9e-05	-1e-05	0.00085	-0.00015	1e-05	0.00016	4
15852	8e-05	7e-05	9e-05	-1e-05	0.00085	-0.00015	1e-05	0.00016	4
15853	8e-05	7e-05	9e-05	-1e-05	0.00085	-0.00015	1e-05	0.00016	4
15854	8e-05	7e-05	9e-05	-1e-05	0.00085	-0.00015	1e-05	0.00016	4
15855	-6e-05	-4e-05	-7e-05	-0.00039	0.00013	-8e-05	-3e-05	-0.00019	4
15856	2e-05	-3e-05	-3e-05	9e-05	0	0.00054	-3e-05	0.00022	4
15857	2e-05	-3e-05	-3e-05	9e-05	0	0.00054	-3e-05	0.00022	4
15858	2e-05	-3e-05	-3e-05	9e-05	0	0.00054	-3e-05	0.00022	4
15859	2e-05	-3e-05	-3e-05	9e-05	0	0.00054	-3e-05	0.00022	4
15860	2e-05	-3e-05	-3e-05	9e-05	0	0.00054	-3e-05	0.00022	4
15861	2e-05	-3e-05	-3e-05	9e-05	0	0.00054	-3e-05	0.00022	4
15862	2e-05	-3e-05	-3e-05	9e-05	0	0.00054	-3e-05	0.00022	4
15863	2e-05	-3e-05	-3e-05	9e-05	0	0.00054	-3e-05	0.00022	4
15864	2e-05	-3e-05	-3e-05	9e-05	0	0.00054	-3e-05	0.00022	4
15865	2e-05	-3e-05	-3e-05	9e-05	0	0.00054	-3e-05	0.00022	4
15866	2e-05	-3e-05	-3e-05	9e-05	0	0.00054	-3e-05	0.00022	4
15867	2e-05	-3e-05	-3e-05	9e-05	0	0.00054	-3e-05	0.00022	4
15868	2e-05	-3e-05	-3e-05	9e-05	0	0.00054	-3e-05	0.00022	4
15869	2e-05	-3e-05	-3e-05	9e-05	0	0.00054	-3e-05	0.00022	4
15870	2e-05	-3e-05	-3e-05	9e-05	0	0.00054	-3e-05	0.00022	4
15871	2e-05	-3e-05	-3e-05	9e-05	0	0.00054	-3e-05	0.00022	4
15872	2e-05	-3e-05	-3e-05	9e-05	0	0.00054	-3e-05	0.00022	4
15873	2e-05	-3e-05	-3e-05	9e-05	0	0.00054	-3e-05	0.00022	4
15874	2e-05	-3e-05	-3e-05	9e-05	0	0.00054	-3e-05	0.00022	4
15875	2e-05	-3e-05	-3e-05	9e-05	0	0.00054	-3e-05	0.00022	4
15876	2e-05	-3e-05	-3e-05	9e-05	0	0.00054	-3e-05	0.00022	4
15877	2e-05	-3e-05	-3e-05	9e-05	0	0.00054	-3e-05	0.00022	4
15878	4e-05	2e-05	7e-05	0.00012	-0.00012	0.00012	6e-05	0.00013	4
15879	5e-05	-5e-05	-9e-05	-0.00017	0.00033	0.00016	-0.00026	0.00044	4
15880	5e-05	-5e-05	-9e-05	-0.00017	0.00033	0.00016	-0.00026	0.00044	4
15881	5e-05	-5e-05	-9e-05	-0.00017	0.00033	0.00016	-0.00026	0.00044	4
15882	5e-05	-5e-05	-9e-05	-0.00017	0.00033	0.00016	-0.00026	0.00044	4
15883	5e-05	-5e-05	-9e-05	-0.00017	0.00033	0.00016	-0.00026	0.00044	4
15884	5e-05	-5e-05	-9e-05	-0.00017	0.00033	0.00016	-0.00026	0.00044	4
15885	5e-05	-5e-05	-9e-05	-0.00017	0.00033	0.00016	-0.00026	0.00044	4
15886	5e-05	-5e-05	-9e-05	-0.00017	0.00033	0.00016	-0.00026	0.00044	4
15888	5e-05	-5e-05	-9e-05	-0.00017	0.00033	0.00016	-0.00026	0.00044	4
15889	5e-05	-5e-05	-9e-05	-0.00017	0.00033	0.00016	-0.00026	0.00044	4
15890	5e-05	-5e-05	-9e-05	-0.00017	0.00033	0.00016	-0.00026	0.00044	4
15891	5e-05	-5e-05	-9e-05	-0.00017	0.00033	0.00016	-0.00026	0.00044	4
15892	5e-05	-5e-05	-9e-05	-0.00017	0.00033	0.00016	-0.00026	0.00044	4
15893	5e-05	-5e-05	-9e-05	-0.00017	0.00033	0.00016	-0.00026	0.00044	4
15894	5e-05	-5e-05	-9e-05	-0.00017	0.00033	0.00016	-0.00026	0.00044	4
15895	5e-05	-5e-05	-9e-05	-0.00017	0.00033	0.00016	-0.00026	0.00044	4
15896	5e-05	-5e-05	-9e-05	-0.00017	0.00033	0.00016	-0.00026	0.00044	4
15897	5e-05	-5e-05	-9e-05	-0.00017	0.00033	0.00016	-0.00026	0.00044	4
15898	5e-05	-5e-05	-9e-05	-0.00017	0.00033	0.00016	-0.00026	0.00044	4
15899	5e-05	-5e-05	-9e-05	-0.00017	0.00033	0.00016	-0.00026	0.00044	4
15900	5e-05	-5e-05	-9e-05	-0.00017	0.00033	0.00016	-0.00026	0.00044	4
15901	3e-05	2e-05	7e-05	-0.00072	0.00041	0.00062	0.00017	-1e-05	4
15902	3e-05	2e-05	7e-05	-0.00072	0.00041	0.00062	0.00017	-1e-05	4
15903	3e-05	2e-05	7e-05	-0.00072	0.00041	0.00062	0.00017	-1e-05	4
15904	3e-05	2e-05	7e-05	-0.00072	0.00041	0.00062	0.00017	-1e-05	4
15905	3e-05	2e-05	7e-05	-0.00072	0.00041	0.00062	0.00017	-1e-05	4
15906	3e-05	2e-05	7e-05	-0.00072	0.00041	0.00062	0.00017	-1e-05	4
15907	3e-05	2e-05	7e-05	-0.00072	0.00041	0.00062	0.00017	-1e-05	4
15908	3e-05	2e-05	7e-05	-0.00072	0.00041	0.00062	0.00017	-1e-05	4
15909	3e-05	2e-05	7e-05	-0.00072	0.00041	0.00062	0.00017	-1e-05	4
15910	3e-05	2e-05	7e-05	-0.00072	0.00041	0.00062	0.00017	-1e-05	4
15911	3e-05	2e-05	7e-05	-0.00072	0.00041	0.00062	0.00017	-1e-05	4
15912	3e-05	2e-05	7e-05	-0.00072	0.00041	0.00062	0.00017	-1e-05	4
15913	3e-05	2e-05	7e-05	-0.00072	0.00041	0.00062	0.00017	-1e-05	4
15914	3e-05	2e-05	7e-05	-0.00072	0.00041	0.00062	0.00017	-1e-05	4
15915	4e-05	1e-05	0	-0.00054	-0.00024	-0.00052	-0.00027	9e-05	4
15916	-0.00014	-0.00011	-0.00013	-8e-05	-0.00069	-0.00013	-4e-05	-0.00022	4
15917	-0.00014	-0.00011	-0.00013	-8e-05	-0.00069	-0.00013	-4e-05	-0.00022	4
15918	-0.00014	-0.00011	-0.00013	-8e-05	-0.00069	-0.00013	-4e-05	-0.00022	4
15919	-0.00014	-0.00011	-0.00013	-8e-05	-0.00069	-0.00013	-4e-05	-0.00022	4
15920	-0.00014	-0.00011	-0.00013	-8e-05	-0.00069	-0.00013	-4e-05	-0.00022	4
15921	-0.00014	-0.00011	-0.00013	-8e-05	-0.00069	-0.00013	-4e-05	-0.00022	4
15922	-0.00014	-0.00011	-0.00013	-8e-05	-0.00069	-0.00013	-4e-05	-0.00022	4
15923	-0.00014	-0.00011	-0.00013	-8e-05	-0.00069	-0.00013	-4e-05	-0.00022	4
15924	-0.00014	-0.00011	-0.00013	-8e-05	-0.00069	-0.00013	-4e-05	-0.00022	4
15925	-0.00014	-0.00011	-0.00013	-8e-05	-0.00069	-0.00013	-4e-05	-0.00022	4
15926	-0.00014	-0.00011	-0.00013	-8e-05	-0.00069	-0.00013	-4e-05	-0.00022	4
15927	-0.00014	-0.00011	-0.00013	-8e-05	-0.00069	-0.00013	-4e-05	-0.00022	4
15928	-0.00014	-0.00011	-0.00013	-8e-05	-0.00069	-0.00013	-4e-05	-0.00022	4
15929	-0.00014	-0.00011	-0.00013	-8e-05	-0.00069	-0.00013	-4e-05	-0.00022	4
15930	-0.00014	-0.00011	-0.00013	-8e-05	-0.00069	-0.00013	-4e-05	-0.00022	4
15931	-0.00014	-0.00011	-0.00013	-8e-05	-0.00069	-0.00013	-4e-05	-0.00022	4
15932	-0.00014	-0.00011	-0.00013	-8e-05	-0.00069	-0.00013	-4e-05	-0.00022	4
15933	-0.00014	-0.00011	-0.00013	-8e-05	-0.00069	-0.00013	-4e-05	-0.00022	4
15934	-0.00014	-0.00011	-0.00013	-8e-05	-0.00069	-0.00013	-4e-05	-0.00022	4
15935	-0.00014	-0.00011	-0.00013	-8e-05	-0.00069	-0.00013	-4e-05	-0.00022	4
15936	-0.00014	-0.00011	-0.00013	-8e-05	-0.00069	-0.00013	-4e-05	-0.00022	4
15938	-5e-05	-4e-05	-0.00011	-6e-05	0.00013	-0.00038	5e-05	-0.00018	4
15939	4e-05	-1e-05	2e-05	0.00024	-0.00047	-0.00022	-0.00023	-9e-05	4
15940	4e-05	-1e-05	2e-05	0.00024	-0.00047	-0.00022	-0.00023	-9e-05	4
15942	4e-05	-1e-05	2e-05	0.00024	-0.00047	-0.00022	-0.00023	-9e-05	4
15943	4e-05	-1e-05	2e-05	0.00024	-0.00047	-0.00022	-0.00023	-9e-05	4
15944	4e-05	-1e-05	2e-05	0.00024	-0.00047	-0.00022	-0.00023	-9e-05	4
15945	4e-05	-1e-05	2e-05	0.00024	-0.00047	-0.00022	-0.00023	-9e-05	4
15946	4e-05	-1e-05	2e-05	0.00024	-0.00047	-0.00022	-0.00023	-9e-05	4
15947	4e-05	-1e-05	2e-05	0.00024	-0.00047	-0.00022	-0.00023	-9e-05	4
15948	4e-05	-1e-05	2e-05	0.00024	-0.00047	-0.00022	-0.00023	-9e-05	4
15949	4e-05	-1e-05	2e-05	0.00024	-0.00047	-0.00022	-0.00023	-9e-05	4
15950	4e-05	-1e-05	2e-05	0.00024	-0.00047	-0.00022	-0.00023	-9e-05	4
15951	4e-05	-1e-05	2e-05	0.00024	-0.00047	-0.00022	-0.00023	-9e-05	4
15952	4e-05	-1e-05	2e-05	0.00024	-0.00047	-0.00022	-0.00023	-9e-05	4
15953	4e-05	-1e-05	2e-05	0.00024	-0.00047	-0.00022	-0.00023	-9e-05	4
15954	4e-05	-1e-05	2e-05	0.00024	-0.00047	-0.00022	-0.00023	-9e-05	4
15955	4e-05	-1e-05	2e-05	0.00024	-0.00047	-0.00022	-0.00023	-9e-05	4
15956	4e-05	-1e-05	2e-05	0.00024	-0.00047	-0.00022	-0.00023	-9e-05	4
15957	4e-05	-1e-05	2e-05	0.00024	-0.00047	-0.00022	-0.00023	-9e-05	4
15958	4e-05	-1e-05	2e-05	0.00024	-0.00047	-0.00022	-0.00023	-9e-05	4
15959	4e-05	-1e-05	2e-05	0.00024	-0.00047	-0.00022	-0.00023	-9e-05	4
15960	4e-05	-1e-05	2e-05	0.00024	-0.00047	-0.00022	-0.00023	-9e-05	4
15961	2e-05	2e-05	0.00014	0.00077	0.00047	0.00053	0.00021	-0.00012	4
15962	2e-05	2e-05	0.00014	0.00077	0.00047	0.00053	0.00021	-0.00012	4
15963	2e-05	2e-05	0.00014	0.00077	0.00047	0.00053	0.00021	-0.00012	4
15964	2e-05	2e-05	0.00014	0.00077	0.00047	0.00053	0.00021	-0.00012	4
15965	2e-05	2e-05	0.00014	0.00077	0.00047	0.00053	0.00021	-0.00012	4
15966	2e-05	2e-05	0.00014	0.00077	0.00047	0.00053	0.00021	-0.00012	4
15967	2e-05	2e-05	0.00014	0.00077	0.00047	0.00053	0.00021	-0.00012	4
15968	2e-05	2e-05	0.00014	0.00077	0.00047	0.00053	0.00021	-0.00012	4
15969	2e-05	2e-05	0.00014	0.00077	0.00047	0.00053	0.00021	-0.00012	4
15970	2e-05	2e-05	0.00014	0.00077	0.00047	0.00053	0.00021	-0.00012	4
15971	2e-05	2e-05	0.00014	0.00077	0.00047	0.00053	0.00021	-0.00012	4
15972	2e-05	2e-05	0.00014	0.00077	0.00047	0.00053	0.00021	-0.00012	4
15973	2e-05	2e-05	0.00014	0.00077	0.00047	0.00053	0.00021	-0.00012	4
15974	2e-05	2e-05	0.00014	0.00077	0.00047	0.00053	0.00021	-0.00012	4
15975	3e-05	4e-05	9e-05	0.00043	0.00036	8e-05	-0.00022	7e-05	4
15976	-6e-05	-2e-05	0.00011	0.00063	-0.00035	-0.00061	-0.00014	-0.00032	4
15977	-6e-05	-2e-05	0.00011	0.00063	-0.00035	-0.00061	-0.00014	-0.00032	4
15978	-6e-05	-2e-05	0.00011	0.00063	-0.00035	-0.00061	-0.00014	-0.00032	4
15979	-6e-05	-2e-05	0.00011	0.00063	-0.00035	-0.00061	-0.00014	-0.00032	4
15980	-6e-05	-2e-05	0.00011	0.00063	-0.00035	-0.00061	-0.00014	-0.00032	4
15981	-6e-05	-2e-05	0.00011	0.00063	-0.00035	-0.00061	-0.00014	-0.00032	4
15982	-6e-05	-2e-05	0.00011	0.00063	-0.00035	-0.00061	-0.00014	-0.00032	4
15983	-6e-05	-2e-05	0.00011	0.00063	-0.00035	-0.00061	-0.00014	-0.00032	4
15984	-6e-05	-2e-05	0.00011	0.00063	-0.00035	-0.00061	-0.00014	-0.00032	4
15985	-6e-05	-2e-05	0.00011	0.00063	-0.00035	-0.00061	-0.00014	-0.00032	4
15986	-6e-05	-2e-05	0.00011	0.00063	-0.00035	-0.00061	-0.00014	-0.00032	4
15988	-6e-05	-2e-05	0.00011	0.00063	-0.00035	-0.00061	-0.00014	-0.00032	4
15989	-6e-05	-2e-05	0.00011	0.00063	-0.00035	-0.00061	-0.00014	-0.00032	4
15990	-6e-05	-2e-05	0.00011	0.00063	-0.00035	-0.00061	-0.00014	-0.00032	4
15991	-6e-05	-2e-05	0.00011	0.00063	-0.00035	-0.00061	-0.00014	-0.00032	4
15992	-6e-05	-2e-05	0.00011	0.00063	-0.00035	-0.00061	-0.00014	-0.00032	4
15993	-6e-05	-2e-05	0.00011	0.00063	-0.00035	-0.00061	-0.00014	-0.00032	4
15994	-6e-05	-2e-05	0.00011	0.00063	-0.00035	-0.00061	-0.00014	-0.00032	4
15995	-6e-05	-2e-05	0.00011	0.00063	-0.00035	-0.00061	-0.00014	-0.00032	4
15996	-6e-05	-2e-05	0.00011	0.00063	-0.00035	-0.00061	-0.00014	-0.00032	4
15997	-6e-05	-2e-05	0.00011	0.00063	-0.00035	-0.00061	-0.00014	-0.00032	4
15998	-8e-05	-1e-05	6e-05	0.00029	-0.00128	-0.00043	-0.00013	-0.00035	4
15999	0	-4e-05	-0.00013	-0.00018	0.00028	-0.0009	-0.00013	-6e-05	4
16000	0	-4e-05	-0.00013	-0.00018	0.00028	-0.0009	-0.00013	-6e-05	4
16002	0	-4e-05	-0.00013	-0.00018	0.00028	-0.0009	-0.00013	-6e-05	4
16003	0	-4e-05	-0.00013	-0.00018	0.00028	-0.0009	-0.00013	-6e-05	4
16004	0	-4e-05	-0.00013	-0.00018	0.00028	-0.0009	-0.00013	-6e-05	4
16005	0	-4e-05	-0.00013	-0.00018	0.00028	-0.0009	-0.00013	-6e-05	4
16006	0	-4e-05	-0.00013	-0.00018	0.00028	-0.0009	-0.00013	-6e-05	4
16007	0	-4e-05	-0.00013	-0.00018	0.00028	-0.0009	-0.00013	-6e-05	4
16009	0	-4e-05	-0.00013	-0.00018	0.00028	-0.0009	-0.00013	-6e-05	4
16010	0	-4e-05	-0.00013	-0.00018	0.00028	-0.0009	-0.00013	-6e-05	4
16011	0	-4e-05	-0.00013	-0.00018	0.00028	-0.0009	-0.00013	-6e-05	4
16012	0	-4e-05	-0.00013	-0.00018	0.00028	-0.0009	-0.00013	-6e-05	4
16013	0	-4e-05	-0.00013	-0.00018	0.00028	-0.0009	-0.00013	-6e-05	4
16014	0	-4e-05	-0.00013	-0.00018	0.00028	-0.0009	-0.00013	-6e-05	4
16015	0	-4e-05	-0.00013	-0.00018	0.00028	-0.0009	-0.00013	-6e-05	4
16016	0	-4e-05	-0.00013	-0.00018	0.00028	-0.0009	-0.00013	-6e-05	4
16017	0	-4e-05	-0.00013	-0.00018	0.00028	-0.0009	-0.00013	-6e-05	4
16018	0	-4e-05	-0.00013	-0.00018	0.00028	-0.0009	-0.00013	-6e-05	4
16019	0	-4e-05	-0.00013	-0.00018	0.00028	-0.0009	-0.00013	-6e-05	4
16020	0	-4e-05	-0.00013	-0.00018	0.00028	-0.0009	-0.00013	-6e-05	4
16021	2e-05	4e-05	0.00011	0.00033	-0.00095	0.00038	0.00027	0.00017	4
16022	2e-05	4e-05	0.00011	0.00033	-0.00095	0.00038	0.00027	0.00017	4
16023	2e-05	4e-05	0.00011	0.00033	-0.00095	0.00038	0.00027	0.00017	4
16024	2e-05	4e-05	0.00011	0.00033	-0.00095	0.00038	0.00027	0.00017	4
16025	2e-05	4e-05	0.00011	0.00033	-0.00095	0.00038	0.00027	0.00017	4
16026	2e-05	4e-05	0.00011	0.00033	-0.00095	0.00038	0.00027	0.00017	4
16027	2e-05	4e-05	0.00011	0.00033	-0.00095	0.00038	0.00027	0.00017	4
16028	2e-05	4e-05	0.00011	0.00033	-0.00095	0.00038	0.00027	0.00017	4
16029	2e-05	4e-05	0.00011	0.00033	-0.00095	0.00038	0.00027	0.00017	4
16030	2e-05	4e-05	0.00011	0.00033	-0.00095	0.00038	0.00027	0.00017	4
16031	2e-05	4e-05	0.00011	0.00033	-0.00095	0.00038	0.00027	0.00017	4
16032	2e-05	4e-05	0.00011	0.00033	-0.00095	0.00038	0.00027	0.00017	4
16033	2e-05	4e-05	0.00011	0.00033	-0.00095	0.00038	0.00027	0.00017	4
16034	2e-05	4e-05	0.00011	0.00033	-0.00095	0.00038	0.00027	0.00017	4
16035	2e-05	-6e-05	-0.00012	8e-05	0.00029	-7e-05	-4e-05	-5e-05	4
16036	1e-05	-2e-05	-1e-05	-0.00018	-8e-05	0.00045	7e-05	8e-05	4
16038	1e-05	-2e-05	-1e-05	-0.00018	-8e-05	0.00045	7e-05	8e-05	4
16039	1e-05	-2e-05	-1e-05	-0.00018	-8e-05	0.00045	7e-05	8e-05	4
16040	1e-05	-2e-05	-1e-05	-0.00018	-8e-05	0.00045	7e-05	8e-05	4
16041	1e-05	-2e-05	-1e-05	-0.00018	-8e-05	0.00045	7e-05	8e-05	4
16042	1e-05	-2e-05	-1e-05	-0.00018	-8e-05	0.00045	7e-05	8e-05	4
16043	1e-05	-2e-05	-1e-05	-0.00018	-8e-05	0.00045	7e-05	8e-05	4
16044	1e-05	-2e-05	-1e-05	-0.00018	-8e-05	0.00045	7e-05	8e-05	4
16045	1e-05	-2e-05	-1e-05	-0.00018	-8e-05	0.00045	7e-05	8e-05	4
16046	1e-05	-2e-05	-1e-05	-0.00018	-8e-05	0.00045	7e-05	8e-05	4
16047	1e-05	-2e-05	-1e-05	-0.00018	-8e-05	0.00045	7e-05	8e-05	4
16048	1e-05	-2e-05	-1e-05	-0.00018	-8e-05	0.00045	7e-05	8e-05	4
16049	1e-05	-2e-05	-1e-05	-0.00018	-8e-05	0.00045	7e-05	8e-05	4
16050	1e-05	-2e-05	-1e-05	-0.00018	-8e-05	0.00045	7e-05	8e-05	4
16051	1e-05	-2e-05	-1e-05	-0.00018	-8e-05	0.00045	7e-05	8e-05	4
16052	1e-05	-2e-05	-1e-05	-0.00018	-8e-05	0.00045	7e-05	8e-05	4
16053	1e-05	-2e-05	-1e-05	-0.00018	-8e-05	0.00045	7e-05	8e-05	4
16054	1e-05	-2e-05	-1e-05	-0.00018	-8e-05	0.00045	7e-05	8e-05	4
16055	1e-05	-2e-05	-1e-05	-0.00018	-8e-05	0.00045	7e-05	8e-05	4
16056	1e-05	-2e-05	-1e-05	-0.00018	-8e-05	0.00045	7e-05	8e-05	4
16057	1e-05	-2e-05	-1e-05	-0.00018	-8e-05	0.00045	7e-05	8e-05	4
16058	1e-05	-2e-05	-1e-05	-0.00018	-8e-05	0.00045	7e-05	8e-05	4
16059	-1e-05	3e-05	8e-05	0.00057	0.00038	0.00033	8e-05	-2e-05	4
16060	-1e-05	3e-05	8e-05	0.00057	0.00038	0.00033	8e-05	-2e-05	4
16061	-1e-05	3e-05	8e-05	0.00057	0.00038	0.00033	8e-05	-2e-05	4
16062	-1e-05	3e-05	8e-05	0.00057	0.00038	0.00033	8e-05	-2e-05	4
16063	-1e-05	3e-05	8e-05	0.00057	0.00038	0.00033	8e-05	-2e-05	4
16064	-1e-05	3e-05	8e-05	0.00057	0.00038	0.00033	8e-05	-2e-05	4
16065	-1e-05	3e-05	8e-05	0.00057	0.00038	0.00033	8e-05	-2e-05	4
16066	-1e-05	3e-05	8e-05	0.00057	0.00038	0.00033	8e-05	-2e-05	4
16067	-1e-05	3e-05	8e-05	0.00057	0.00038	0.00033	8e-05	-2e-05	4
16068	-1e-05	3e-05	8e-05	0.00057	0.00038	0.00033	8e-05	-2e-05	4
16069	-1e-05	3e-05	8e-05	0.00057	0.00038	0.00033	8e-05	-2e-05	4
16070	-1e-05	3e-05	8e-05	0.00057	0.00038	0.00033	8e-05	-2e-05	4
16071	-1e-05	3e-05	8e-05	0.00057	0.00038	0.00033	8e-05	-2e-05	4
16072	-1e-05	3e-05	8e-05	0.00057	0.00038	0.00033	8e-05	-2e-05	4
16073	-1e-05	3e-05	8e-05	0.00057	0.00038	0.00033	8e-05	-2e-05	4
16074	-1e-05	3e-05	8e-05	0.00057	0.00038	0.00033	8e-05	-2e-05	4
16075	-1e-05	3e-05	8e-05	0.00057	0.00038	0.00033	8e-05	-2e-05	4
16076	-1e-05	3e-05	8e-05	0.00057	0.00038	0.00033	8e-05	-2e-05	4
16077	-1e-05	3e-05	8e-05	0.00057	0.00038	0.00033	8e-05	-2e-05	4
16078	-1e-05	3e-05	8e-05	0.00057	0.00038	0.00033	8e-05	-2e-05	4
16079	-1e-05	3e-05	8e-05	0.00057	0.00038	0.00033	8e-05	-2e-05	4
16080	-1e-05	3e-05	8e-05	0.00057	0.00038	0.00033	8e-05	-2e-05	4
16081	-5e-05	-3e-05	-0.0001	-0.00019	-0.00062	-0.00055	-0.00025	2e-05	4
16082	-5e-05	-3e-05	-0.0001	-0.00019	-0.00062	-0.00055	-0.00025	2e-05	4
16083	-5e-05	-3e-05	-0.0001	-0.00019	-0.00062	-0.00055	-0.00025	2e-05	4
16084	-5e-05	-3e-05	-0.0001	-0.00019	-0.00062	-0.00055	-0.00025	2e-05	4
16085	-5e-05	-3e-05	-0.0001	-0.00019	-0.00062	-0.00055	-0.00025	2e-05	4
16086	-5e-05	-3e-05	-0.0001	-0.00019	-0.00062	-0.00055	-0.00025	2e-05	4
16088	-5e-05	-3e-05	-0.0001	-0.00019	-0.00062	-0.00055	-0.00025	2e-05	4
16089	-5e-05	-3e-05	-0.0001	-0.00019	-0.00062	-0.00055	-0.00025	2e-05	4
16090	-5e-05	-3e-05	-0.0001	-0.00019	-0.00062	-0.00055	-0.00025	2e-05	4
16091	-5e-05	-3e-05	-0.0001	-0.00019	-0.00062	-0.00055	-0.00025	2e-05	4
16092	-5e-05	-3e-05	-0.0001	-0.00019	-0.00062	-0.00055	-0.00025	2e-05	4
16093	-5e-05	-3e-05	-0.0001	-0.00019	-0.00062	-0.00055	-0.00025	2e-05	4
16094	-5e-05	-3e-05	-0.0001	-0.00019	-0.00062	-0.00055	-0.00025	2e-05	4
16095	7e-05	8e-05	4e-05	-0.00039	-8e-05	0.00018	7e-05	4e-05	4
16096	0.00012	-2e-05	-8e-05	-0.00041	-0.00029	-4e-05	-0.00035	-5e-05	4
16097	0.00012	-2e-05	-8e-05	-0.00041	-0.00029	-4e-05	-0.00035	-5e-05	4
16098	0.00012	-2e-05	-8e-05	-0.00041	-0.00029	-4e-05	-0.00035	-5e-05	4
16099	0.00012	-2e-05	-8e-05	-0.00041	-0.00029	-4e-05	-0.00035	-5e-05	4
16100	0.00012	-2e-05	-8e-05	-0.00041	-0.00029	-4e-05	-0.00035	-5e-05	4
16101	0.00012	-2e-05	-8e-05	-0.00041	-0.00029	-4e-05	-0.00035	-5e-05	4
16102	0.00012	-2e-05	-8e-05	-0.00041	-0.00029	-4e-05	-0.00035	-5e-05	4
16103	0.00012	-2e-05	-8e-05	-0.00041	-0.00029	-4e-05	-0.00035	-5e-05	4
16104	0.00012	-2e-05	-8e-05	-0.00041	-0.00029	-4e-05	-0.00035	-5e-05	4
16105	0.00012	-2e-05	-8e-05	-0.00041	-0.00029	-4e-05	-0.00035	-5e-05	4
16106	0.00012	-2e-05	-8e-05	-0.00041	-0.00029	-4e-05	-0.00035	-5e-05	4
16107	0.00012	-2e-05	-8e-05	-0.00041	-0.00029	-4e-05	-0.00035	-5e-05	4
16108	0.00012	-2e-05	-8e-05	-0.00041	-0.00029	-4e-05	-0.00035	-5e-05	4
16109	0.00012	-2e-05	-8e-05	-0.00041	-0.00029	-4e-05	-0.00035	-5e-05	4
16110	0.00012	-2e-05	-8e-05	-0.00041	-0.00029	-4e-05	-0.00035	-5e-05	4
16111	0.00012	-2e-05	-8e-05	-0.00041	-0.00029	-4e-05	-0.00035	-5e-05	4
16112	0.00012	-2e-05	-8e-05	-0.00041	-0.00029	-4e-05	-0.00035	-5e-05	4
16113	0.00012	-2e-05	-8e-05	-0.00041	-0.00029	-4e-05	-0.00035	-5e-05	4
16114	0.00012	-2e-05	-8e-05	-0.00041	-0.00029	-4e-05	-0.00035	-5e-05	4
16115	0.00012	-2e-05	-8e-05	-0.00041	-0.00029	-4e-05	-0.00035	-5e-05	4
16116	0.00012	-2e-05	-8e-05	-0.00041	-0.00029	-4e-05	-0.00035	-5e-05	4
16117	0.00012	-2e-05	-8e-05	-0.00041	-0.00029	-4e-05	-0.00035	-5e-05	4
16118	0	1e-05	2e-05	0.00023	-0.00021	0.0001	-0.00013	-0.00024	4
16119	4e-05	2e-05	1e-05	-0.00042	-0.00061	-0.00078	0.00013	0.00041	4
16120	4e-05	2e-05	1e-05	-0.00042	-0.00061	-0.00078	0.00013	0.00041	4
16121	4e-05	2e-05	1e-05	-0.00042	-0.00061	-0.00078	0.00013	0.00041	4
16122	4e-05	2e-05	1e-05	-0.00042	-0.00061	-0.00078	0.00013	0.00041	4
16123	4e-05	2e-05	1e-05	-0.00042	-0.00061	-0.00078	0.00013	0.00041	4
16124	4e-05	2e-05	1e-05	-0.00042	-0.00061	-0.00078	0.00013	0.00041	4
16125	4e-05	2e-05	1e-05	-0.00042	-0.00061	-0.00078	0.00013	0.00041	4
16126	4e-05	2e-05	1e-05	-0.00042	-0.00061	-0.00078	0.00013	0.00041	4
16127	4e-05	2e-05	1e-05	-0.00042	-0.00061	-0.00078	0.00013	0.00041	4
16128	4e-05	2e-05	1e-05	-0.00042	-0.00061	-0.00078	0.00013	0.00041	4
16129	4e-05	2e-05	1e-05	-0.00042	-0.00061	-0.00078	0.00013	0.00041	4
16130	4e-05	2e-05	1e-05	-0.00042	-0.00061	-0.00078	0.00013	0.00041	4
16131	4e-05	2e-05	1e-05	-0.00042	-0.00061	-0.00078	0.00013	0.00041	4
16132	4e-05	2e-05	1e-05	-0.00042	-0.00061	-0.00078	0.00013	0.00041	4
16133	4e-05	2e-05	1e-05	-0.00042	-0.00061	-0.00078	0.00013	0.00041	4
16134	4e-05	2e-05	1e-05	-0.00042	-0.00061	-0.00078	0.00013	0.00041	4
16135	4e-05	2e-05	1e-05	-0.00042	-0.00061	-0.00078	0.00013	0.00041	4
16136	4e-05	2e-05	1e-05	-0.00042	-0.00061	-0.00078	0.00013	0.00041	4
16138	4e-05	2e-05	1e-05	-0.00042	-0.00061	-0.00078	0.00013	0.00041	4
16139	4e-05	2e-05	1e-05	-0.00042	-0.00061	-0.00078	0.00013	0.00041	4
16140	4e-05	2e-05	1e-05	-0.00042	-0.00061	-0.00078	0.00013	0.00041	4
16141	-7e-05	1e-05	-8e-05	-0.00025	0.00015	0.00043	-0.00021	-0.00041	4
16142	-7e-05	1e-05	-8e-05	-0.00025	0.00015	0.00043	-0.00021	-0.00041	4
16143	-7e-05	1e-05	-8e-05	-0.00025	0.00015	0.00043	-0.00021	-0.00041	4
16144	-7e-05	1e-05	-8e-05	-0.00025	0.00015	0.00043	-0.00021	-0.00041	4
16145	-7e-05	1e-05	-8e-05	-0.00025	0.00015	0.00043	-0.00021	-0.00041	4
16146	-7e-05	1e-05	-8e-05	-0.00025	0.00015	0.00043	-0.00021	-0.00041	4
16147	-7e-05	1e-05	-8e-05	-0.00025	0.00015	0.00043	-0.00021	-0.00041	4
16148	-7e-05	1e-05	-8e-05	-0.00025	0.00015	0.00043	-0.00021	-0.00041	4
16149	-7e-05	1e-05	-8e-05	-0.00025	0.00015	0.00043	-0.00021	-0.00041	4
16150	-7e-05	1e-05	-8e-05	-0.00025	0.00015	0.00043	-0.00021	-0.00041	4
16151	-7e-05	1e-05	-8e-05	-0.00025	0.00015	0.00043	-0.00021	-0.00041	4
16152	-7e-05	1e-05	-8e-05	-0.00025	0.00015	0.00043	-0.00021	-0.00041	4
16153	-7e-05	1e-05	-8e-05	-0.00025	0.00015	0.00043	-0.00021	-0.00041	4
16154	-7e-05	1e-05	-8e-05	-0.00025	0.00015	0.00043	-0.00021	-0.00041	4
16155	-1e-05	-5e-05	-2e-05	-0.0002	-0.00019	-0.0003	-1e-05	0.00015	4
16156	-3e-05	-1e-05	1e-05	-0.00043	-0.00017	-0.0005	-4e-05	-0.00023	4
16157	-3e-05	-1e-05	1e-05	-0.00043	-0.00017	-0.0005	-4e-05	-0.00023	4
16158	-3e-05	-1e-05	1e-05	-0.00043	-0.00017	-0.0005	-4e-05	-0.00023	4
16159	-3e-05	-1e-05	1e-05	-0.00043	-0.00017	-0.0005	-4e-05	-0.00023	4
16160	-3e-05	-1e-05	1e-05	-0.00043	-0.00017	-0.0005	-4e-05	-0.00023	4
16161	-3e-05	-1e-05	1e-05	-0.00043	-0.00017	-0.0005	-4e-05	-0.00023	4
16162	-3e-05	-1e-05	1e-05	-0.00043	-0.00017	-0.0005	-4e-05	-0.00023	4
16163	-3e-05	-1e-05	1e-05	-0.00043	-0.00017	-0.0005	-4e-05	-0.00023	4
16164	-3e-05	-1e-05	1e-05	-0.00043	-0.00017	-0.0005	-4e-05	-0.00023	4
16165	-3e-05	-1e-05	1e-05	-0.00043	-0.00017	-0.0005	-4e-05	-0.00023	4
16166	-3e-05	-1e-05	1e-05	-0.00043	-0.00017	-0.0005	-4e-05	-0.00023	4
16167	-3e-05	-1e-05	1e-05	-0.00043	-0.00017	-0.0005	-4e-05	-0.00023	4
16168	-3e-05	-1e-05	1e-05	-0.00043	-0.00017	-0.0005	-4e-05	-0.00023	4
16169	-3e-05	-1e-05	1e-05	-0.00043	-0.00017	-0.0005	-4e-05	-0.00023	4
16170	-3e-05	-1e-05	1e-05	-0.00043	-0.00017	-0.0005	-4e-05	-0.00023	4
16171	-3e-05	-1e-05	1e-05	-0.00043	-0.00017	-0.0005	-4e-05	-0.00023	4
16172	-3e-05	-1e-05	1e-05	-0.00043	-0.00017	-0.0005	-4e-05	-0.00023	4
16173	-3e-05	-1e-05	1e-05	-0.00043	-0.00017	-0.0005	-4e-05	-0.00023	4
16174	-3e-05	-1e-05	1e-05	-0.00043	-0.00017	-0.0005	-4e-05	-0.00023	4
16175	-3e-05	-1e-05	1e-05	-0.00043	-0.00017	-0.0005	-4e-05	-0.00023	4
16176	-3e-05	-1e-05	1e-05	-0.00043	-0.00017	-0.0005	-4e-05	-0.00023	4
16177	-3e-05	-1e-05	1e-05	-0.00043	-0.00017	-0.0005	-4e-05	-0.00023	4
16178	-1e-05	2e-05	0.00011	0.00019	-0.00049	0.00043	9e-05	6e-05	4
16179	-5e-05	-8e-05	-0.00013	-0.00025	-0.00065	-0.00019	8e-05	0	4
16180	-5e-05	-8e-05	-0.00013	-0.00025	-0.00065	-0.00019	8e-05	0	4
16181	-5e-05	-8e-05	-0.00013	-0.00025	-0.00065	-0.00019	8e-05	0	4
16182	-5e-05	-8e-05	-0.00013	-0.00025	-0.00065	-0.00019	8e-05	0	4
16183	-5e-05	-8e-05	-0.00013	-0.00025	-0.00065	-0.00019	8e-05	0	4
16184	-5e-05	-8e-05	-0.00013	-0.00025	-0.00065	-0.00019	8e-05	0	4
16185	-5e-05	-8e-05	-0.00013	-0.00025	-0.00065	-0.00019	8e-05	0	4
16186	-5e-05	-8e-05	-0.00013	-0.00025	-0.00065	-0.00019	8e-05	0	4
16188	-5e-05	-8e-05	-0.00013	-0.00025	-0.00065	-0.00019	8e-05	0	4
16189	-5e-05	-8e-05	-0.00013	-0.00025	-0.00065	-0.00019	8e-05	0	4
16191	-5e-05	-8e-05	-0.00013	-0.00025	-0.00065	-0.00019	8e-05	0	4
16192	-5e-05	-8e-05	-0.00013	-0.00025	-0.00065	-0.00019	8e-05	0	4
16193	-5e-05	-8e-05	-0.00013	-0.00025	-0.00065	-0.00019	8e-05	0	4
16194	-5e-05	-8e-05	-0.00013	-0.00025	-0.00065	-0.00019	8e-05	0	4
16195	-5e-05	-8e-05	-0.00013	-0.00025	-0.00065	-0.00019	8e-05	0	4
16196	-5e-05	-8e-05	-0.00013	-0.00025	-0.00065	-0.00019	8e-05	0	4
16197	-5e-05	-8e-05	-0.00013	-0.00025	-0.00065	-0.00019	8e-05	0	4
16198	-5e-05	-8e-05	-0.00013	-0.00025	-0.00065	-0.00019	8e-05	0	4
16199	-5e-05	-8e-05	-0.00013	-0.00025	-0.00065	-0.00019	8e-05	0	4
16200	-5e-05	-8e-05	-0.00013	-0.00025	-0.00065	-0.00019	8e-05	0	4
16201	-1e-05	1e-05	-6e-05	-0.00053	8e-05	1e-05	0.00018	-4e-05	4
16202	-1e-05	1e-05	-6e-05	-0.00053	8e-05	1e-05	0.00018	-4e-05	4
16203	-1e-05	1e-05	-6e-05	-0.00053	8e-05	1e-05	0.00018	-4e-05	4
16204	-1e-05	1e-05	-6e-05	-0.00053	8e-05	1e-05	0.00018	-4e-05	4
16205	-1e-05	1e-05	-6e-05	-0.00053	8e-05	1e-05	0.00018	-4e-05	4
16206	-1e-05	1e-05	-6e-05	-0.00053	8e-05	1e-05	0.00018	-4e-05	4
16207	-1e-05	1e-05	-6e-05	-0.00053	8e-05	1e-05	0.00018	-4e-05	4
16208	-1e-05	1e-05	-6e-05	-0.00053	8e-05	1e-05	0.00018	-4e-05	4
16209	-1e-05	1e-05	-6e-05	-0.00053	8e-05	1e-05	0.00018	-4e-05	4
16210	-1e-05	1e-05	-6e-05	-0.00053	8e-05	1e-05	0.00018	-4e-05	4
16211	-1e-05	1e-05	-6e-05	-0.00053	8e-05	1e-05	0.00018	-4e-05	4
16212	-1e-05	1e-05	-6e-05	-0.00053	8e-05	1e-05	0.00018	-4e-05	4
16213	-1e-05	1e-05	-6e-05	-0.00053	8e-05	1e-05	0.00018	-4e-05	4
16214	-1e-05	1e-05	-6e-05	-0.00053	8e-05	1e-05	0.00018	-4e-05	4
16215	0	0	-2e-05	-0.00036	-0.00025	0.00061	0.00015	0.00017	4
16216	-1e-05	1e-05	7e-05	0.00079	0.00066	0.00078	0.00011	-0.0001	4
16217	-1e-05	1e-05	7e-05	0.00079	0.00066	0.00078	0.00011	-0.0001	4
16218	-1e-05	1e-05	7e-05	0.00079	0.00066	0.00078	0.00011	-0.0001	4
16219	-1e-05	1e-05	7e-05	0.00079	0.00066	0.00078	0.00011	-0.0001	4
16220	-1e-05	1e-05	7e-05	0.00079	0.00066	0.00078	0.00011	-0.0001	4
16221	-1e-05	1e-05	7e-05	0.00079	0.00066	0.00078	0.00011	-0.0001	4
16222	-1e-05	1e-05	7e-05	0.00079	0.00066	0.00078	0.00011	-0.0001	4
16223	-1e-05	1e-05	7e-05	0.00079	0.00066	0.00078	0.00011	-0.0001	4
16224	-1e-05	1e-05	7e-05	0.00079	0.00066	0.00078	0.00011	-0.0001	4
16225	-1e-05	1e-05	7e-05	0.00079	0.00066	0.00078	0.00011	-0.0001	4
16226	-1e-05	1e-05	7e-05	0.00079	0.00066	0.00078	0.00011	-0.0001	4
16227	-1e-05	1e-05	7e-05	0.00079	0.00066	0.00078	0.00011	-0.0001	4
16228	-1e-05	1e-05	7e-05	0.00079	0.00066	0.00078	0.00011	-0.0001	4
16229	-1e-05	1e-05	7e-05	0.00079	0.00066	0.00078	0.00011	-0.0001	4
16230	-1e-05	1e-05	7e-05	0.00079	0.00066	0.00078	0.00011	-0.0001	4
16231	-1e-05	1e-05	7e-05	0.00079	0.00066	0.00078	0.00011	-0.0001	4
16232	-1e-05	1e-05	7e-05	0.00079	0.00066	0.00078	0.00011	-0.0001	4
16233	-1e-05	1e-05	7e-05	0.00079	0.00066	0.00078	0.00011	-0.0001	4
16234	-1e-05	1e-05	7e-05	0.00079	0.00066	0.00078	0.00011	-0.0001	4
16235	-1e-05	1e-05	7e-05	0.00079	0.00066	0.00078	0.00011	-0.0001	4
16236	-1e-05	1e-05	7e-05	0.00079	0.00066	0.00078	0.00011	-0.0001	4
16238	-1e-05	4e-05	0.00013	0.00054	0.0007	-2e-05	0.0001	0.00024	4
16239	-1e-05	-6e-05	-0.0001	-0.00038	-0.00121	-0.00103	0	0.00025	4
16240	-1e-05	-6e-05	-0.0001	-0.00038	-0.00121	-0.00103	0	0.00025	4
16241	-1e-05	-6e-05	-0.0001	-0.00038	-0.00121	-0.00103	0	0.00025	4
16242	-1e-05	-6e-05	-0.0001	-0.00038	-0.00121	-0.00103	0	0.00025	4
16243	-1e-05	-6e-05	-0.0001	-0.00038	-0.00121	-0.00103	0	0.00025	4
16244	-1e-05	-6e-05	-0.0001	-0.00038	-0.00121	-0.00103	0	0.00025	4
16245	-1e-05	-6e-05	-0.0001	-0.00038	-0.00121	-0.00103	0	0.00025	4
16246	-1e-05	-6e-05	-0.0001	-0.00038	-0.00121	-0.00103	0	0.00025	4
16247	-1e-05	-6e-05	-0.0001	-0.00038	-0.00121	-0.00103	0	0.00025	4
16248	-1e-05	-6e-05	-0.0001	-0.00038	-0.00121	-0.00103	0	0.00025	4
16249	-1e-05	-6e-05	-0.0001	-0.00038	-0.00121	-0.00103	0	0.00025	4
16250	-1e-05	-6e-05	-0.0001	-0.00038	-0.00121	-0.00103	0	0.00025	4
16251	-1e-05	-6e-05	-0.0001	-0.00038	-0.00121	-0.00103	0	0.00025	4
16252	-1e-05	-6e-05	-0.0001	-0.00038	-0.00121	-0.00103	0	0.00025	4
16253	-1e-05	-6e-05	-0.0001	-0.00038	-0.00121	-0.00103	0	0.00025	4
16254	-1e-05	-6e-05	-0.0001	-0.00038	-0.00121	-0.00103	0	0.00025	4
16255	-1e-05	-6e-05	-0.0001	-0.00038	-0.00121	-0.00103	0	0.00025	4
16256	-1e-05	-6e-05	-0.0001	-0.00038	-0.00121	-0.00103	0	0.00025	4
16257	-1e-05	-6e-05	-0.0001	-0.00038	-0.00121	-0.00103	0	0.00025	4
16258	-1e-05	-6e-05	-0.0001	-0.00038	-0.00121	-0.00103	0	0.00025	4
16259	-1e-05	-6e-05	-0.0001	-0.00038	-0.00121	-0.00103	0	0.00025	4
16260	-1e-05	-6e-05	-0.0001	-0.00038	-0.00121	-0.00103	0	0.00025	4
16261	-4e-05	-2e-05	-7e-05	-0.00044	0.00027	-0.00028	-7e-05	3e-05	4
16262	-4e-05	-2e-05	-7e-05	-0.00044	0.00027	-0.00028	-7e-05	3e-05	4
16263	-4e-05	-2e-05	-7e-05	-0.00044	0.00027	-0.00028	-7e-05	3e-05	4
16264	-4e-05	-2e-05	-7e-05	-0.00044	0.00027	-0.00028	-7e-05	3e-05	4
16265	-4e-05	-2e-05	-7e-05	-0.00044	0.00027	-0.00028	-7e-05	3e-05	4
16266	-4e-05	-2e-05	-7e-05	-0.00044	0.00027	-0.00028	-7e-05	3e-05	4
16267	-4e-05	-2e-05	-7e-05	-0.00044	0.00027	-0.00028	-7e-05	3e-05	4
16268	-4e-05	-2e-05	-7e-05	-0.00044	0.00027	-0.00028	-7e-05	3e-05	4
16269	-4e-05	-2e-05	-7e-05	-0.00044	0.00027	-0.00028	-7e-05	3e-05	4
16270	-4e-05	-2e-05	-7e-05	-0.00044	0.00027	-0.00028	-7e-05	3e-05	4
16271	-4e-05	-2e-05	-7e-05	-0.00044	0.00027	-0.00028	-7e-05	3e-05	4
16272	-4e-05	-2e-05	-7e-05	-0.00044	0.00027	-0.00028	-7e-05	3e-05	4
16273	-4e-05	-2e-05	-7e-05	-0.00044	0.00027	-0.00028	-7e-05	3e-05	4
16274	-4e-05	-2e-05	-7e-05	-0.00044	0.00027	-0.00028	-7e-05	3e-05	4
16275	-7e-05	-9e-05	-0.00018	-0.00072	-0.00078	-0.00074	-8e-05	-7e-05	4
16276	0	-4e-05	2e-05	0.00057	-0.00011	-0.00032	-0.00016	0.00013	4
16277	0	-4e-05	2e-05	0.00057	-0.00011	-0.00032	-0.00016	0.00013	4
16278	0	-4e-05	2e-05	0.00057	-0.00011	-0.00032	-0.00016	0.00013	4
16279	0	-4e-05	2e-05	0.00057	-0.00011	-0.00032	-0.00016	0.00013	4
16280	0	-4e-05	2e-05	0.00057	-0.00011	-0.00032	-0.00016	0.00013	4
16281	0	-4e-05	2e-05	0.00057	-0.00011	-0.00032	-0.00016	0.00013	4
16282	0	-4e-05	2e-05	0.00057	-0.00011	-0.00032	-0.00016	0.00013	4
16283	0	-4e-05	2e-05	0.00057	-0.00011	-0.00032	-0.00016	0.00013	4
16284	0	-4e-05	2e-05	0.00057	-0.00011	-0.00032	-0.00016	0.00013	4
16285	0	-4e-05	2e-05	0.00057	-0.00011	-0.00032	-0.00016	0.00013	4
16286	0	-4e-05	2e-05	0.00057	-0.00011	-0.00032	-0.00016	0.00013	4
16288	0	-4e-05	2e-05	0.00057	-0.00011	-0.00032	-0.00016	0.00013	4
16289	0	-4e-05	2e-05	0.00057	-0.00011	-0.00032	-0.00016	0.00013	4
16290	0	-4e-05	2e-05	0.00057	-0.00011	-0.00032	-0.00016	0.00013	4
16291	0	-4e-05	2e-05	0.00057	-0.00011	-0.00032	-0.00016	0.00013	4
16292	0	-4e-05	2e-05	0.00057	-0.00011	-0.00032	-0.00016	0.00013	4
16293	0	-4e-05	2e-05	0.00057	-0.00011	-0.00032	-0.00016	0.00013	4
16294	0	-4e-05	2e-05	0.00057	-0.00011	-0.00032	-0.00016	0.00013	4
16295	0	-4e-05	2e-05	0.00057	-0.00011	-0.00032	-0.00016	0.00013	4
16296	0	-4e-05	2e-05	0.00057	-0.00011	-0.00032	-0.00016	0.00013	4
16297	0	-4e-05	2e-05	0.00057	-0.00011	-0.00032	-0.00016	0.00013	4
16298	-2e-05	-5e-05	-4e-05	0.00029	-0.00057	-0.00035	-4e-05	6e-05	4
16299	0	1e-05	-5e-05	-0.00014	-0.00072	4e-05	2e-05	0.00014	4
16300	0	1e-05	-5e-05	-0.00014	-0.00072	4e-05	2e-05	0.00014	4
16302	0	1e-05	-5e-05	-0.00014	-0.00072	4e-05	2e-05	0.00014	4
16303	0	1e-05	-5e-05	-0.00014	-0.00072	4e-05	2e-05	0.00014	4
16304	0	1e-05	-5e-05	-0.00014	-0.00072	4e-05	2e-05	0.00014	4
16305	0	1e-05	-5e-05	-0.00014	-0.00072	4e-05	2e-05	0.00014	4
16306	0	1e-05	-5e-05	-0.00014	-0.00072	4e-05	2e-05	0.00014	4
16307	0	1e-05	-5e-05	-0.00014	-0.00072	4e-05	2e-05	0.00014	4
16308	0	1e-05	-5e-05	-0.00014	-0.00072	4e-05	2e-05	0.00014	4
16309	0	1e-05	-5e-05	-0.00014	-0.00072	4e-05	2e-05	0.00014	4
16310	0	1e-05	-5e-05	-0.00014	-0.00072	4e-05	2e-05	0.00014	4
16311	0	1e-05	-5e-05	-0.00014	-0.00072	4e-05	2e-05	0.00014	4
16312	0	1e-05	-5e-05	-0.00014	-0.00072	4e-05	2e-05	0.00014	4
16313	0	1e-05	-5e-05	-0.00014	-0.00072	4e-05	2e-05	0.00014	4
16314	0	1e-05	-5e-05	-0.00014	-0.00072	4e-05	2e-05	0.00014	4
16315	0	1e-05	-5e-05	-0.00014	-0.00072	4e-05	2e-05	0.00014	4
16316	0	1e-05	-5e-05	-0.00014	-0.00072	4e-05	2e-05	0.00014	4
16317	0	1e-05	-5e-05	-0.00014	-0.00072	4e-05	2e-05	0.00014	4
16318	0	1e-05	-5e-05	-0.00014	-0.00072	4e-05	2e-05	0.00014	4
16319	0	1e-05	-5e-05	-0.00014	-0.00072	4e-05	2e-05	0.00014	4
16320	0	1e-05	-5e-05	-0.00014	-0.00072	4e-05	2e-05	0.00014	4
16321	3e-05	-1e-05	-8e-05	-0.00015	0.00055	-0.00036	-9e-05	0.00041	4
16322	3e-05	-1e-05	-8e-05	-0.00015	0.00055	-0.00036	-9e-05	0.00041	4
16323	3e-05	-1e-05	-8e-05	-0.00015	0.00055	-0.00036	-9e-05	0.00041	4
16324	3e-05	-1e-05	-8e-05	-0.00015	0.00055	-0.00036	-9e-05	0.00041	4
16325	3e-05	-1e-05	-8e-05	-0.00015	0.00055	-0.00036	-9e-05	0.00041	4
16326	3e-05	-1e-05	-8e-05	-0.00015	0.00055	-0.00036	-9e-05	0.00041	4
16327	3e-05	-1e-05	-8e-05	-0.00015	0.00055	-0.00036	-9e-05	0.00041	4
16328	3e-05	-1e-05	-8e-05	-0.00015	0.00055	-0.00036	-9e-05	0.00041	4
16329	3e-05	-1e-05	-8e-05	-0.00015	0.00055	-0.00036	-9e-05	0.00041	4
16330	3e-05	-1e-05	-8e-05	-0.00015	0.00055	-0.00036	-9e-05	0.00041	4
16331	3e-05	-1e-05	-8e-05	-0.00015	0.00055	-0.00036	-9e-05	0.00041	4
16332	3e-05	-1e-05	-8e-05	-0.00015	0.00055	-0.00036	-9e-05	0.00041	4
16333	3e-05	-1e-05	-8e-05	-0.00015	0.00055	-0.00036	-9e-05	0.00041	4
16334	3e-05	-1e-05	-8e-05	-0.00015	0.00055	-0.00036	-9e-05	0.00041	4
16335	-4e-05	1e-05	9e-05	0.00019	0.00012	-0.00027	9e-05	-0.00023	4
16336	-1e-05	1e-05	0	-0.00014	-0.00018	0.00062	6e-05	-7e-05	4
16338	-1e-05	1e-05	0	-0.00014	-0.00018	0.00062	6e-05	-7e-05	4
16339	-1e-05	1e-05	0	-0.00014	-0.00018	0.00062	6e-05	-7e-05	4
16340	-1e-05	1e-05	0	-0.00014	-0.00018	0.00062	6e-05	-7e-05	4
16341	-1e-05	1e-05	0	-0.00014	-0.00018	0.00062	6e-05	-7e-05	4
16342	-1e-05	1e-05	0	-0.00014	-0.00018	0.00062	6e-05	-7e-05	4
16343	-1e-05	1e-05	0	-0.00014	-0.00018	0.00062	6e-05	-7e-05	4
16344	-1e-05	1e-05	0	-0.00014	-0.00018	0.00062	6e-05	-7e-05	4
16345	-1e-05	1e-05	0	-0.00014	-0.00018	0.00062	6e-05	-7e-05	4
16346	-1e-05	1e-05	0	-0.00014	-0.00018	0.00062	6e-05	-7e-05	4
16347	-1e-05	1e-05	0	-0.00014	-0.00018	0.00062	6e-05	-7e-05	4
16348	-1e-05	1e-05	0	-0.00014	-0.00018	0.00062	6e-05	-7e-05	4
16349	-1e-05	1e-05	0	-0.00014	-0.00018	0.00062	6e-05	-7e-05	4
16350	-1e-05	1e-05	0	-0.00014	-0.00018	0.00062	6e-05	-7e-05	4
16351	-1e-05	1e-05	0	-0.00014	-0.00018	0.00062	6e-05	-7e-05	4
16352	-1e-05	1e-05	0	-0.00014	-0.00018	0.00062	6e-05	-7e-05	4
16353	-1e-05	1e-05	0	-0.00014	-0.00018	0.00062	6e-05	-7e-05	4
16354	-1e-05	1e-05	0	-0.00014	-0.00018	0.00062	6e-05	-7e-05	4
16355	-1e-05	1e-05	0	-0.00014	-0.00018	0.00062	6e-05	-7e-05	4
16356	-1e-05	1e-05	0	-0.00014	-0.00018	0.00062	6e-05	-7e-05	4
16357	-1e-05	1e-05	0	-0.00014	-0.00018	0.00062	6e-05	-7e-05	4
16358	2e-05	1e-05	-6e-05	-0.00013	-0.00069	-0.00031	0.00023	7e-05	4
16359	2e-05	1e-05	-6e-05	-0.00013	-0.00069	-0.00031	0.00023	7e-05	4
16360	-5e-05	-4e-05	3e-05	0.0002	-0.00028	0.00077	-9e-05	-1e-05	4
16361	-5e-05	-4e-05	3e-05	0.0002	-0.00028	0.00077	-9e-05	-1e-05	4
16362	-5e-05	-4e-05	3e-05	0.0002	-0.00028	0.00077	-9e-05	-1e-05	4
16363	-5e-05	-4e-05	3e-05	0.0002	-0.00028	0.00077	-9e-05	-1e-05	4
16364	-5e-05	-4e-05	3e-05	0.0002	-0.00028	0.00077	-9e-05	-1e-05	4
16365	-5e-05	-4e-05	3e-05	0.0002	-0.00028	0.00077	-9e-05	-1e-05	4
16366	-5e-05	-4e-05	3e-05	0.0002	-0.00028	0.00077	-9e-05	-1e-05	4
16367	-5e-05	-4e-05	3e-05	0.0002	-0.00028	0.00077	-9e-05	-1e-05	4
16368	-5e-05	-4e-05	3e-05	0.0002	-0.00028	0.00077	-9e-05	-1e-05	4
16369	-5e-05	-4e-05	3e-05	0.0002	-0.00028	0.00077	-9e-05	-1e-05	4
16370	-5e-05	-4e-05	3e-05	0.0002	-0.00028	0.00077	-9e-05	-1e-05	4
16371	-5e-05	-4e-05	3e-05	0.0002	-0.00028	0.00077	-9e-05	-1e-05	4
16372	-5e-05	-4e-05	3e-05	0.0002	-0.00028	0.00077	-9e-05	-1e-05	4
16373	-5e-05	-4e-05	3e-05	0.0002	-0.00028	0.00077	-9e-05	-1e-05	4
16374	-5e-05	-4e-05	3e-05	0.0002	-0.00028	0.00077	-9e-05	-1e-05	4
16375	-5e-05	-4e-05	3e-05	0.0002	-0.00028	0.00077	-9e-05	-1e-05	4
16376	-5e-05	-4e-05	3e-05	0.0002	-0.00028	0.00077	-9e-05	-1e-05	4
16377	-5e-05	-4e-05	3e-05	0.0002	-0.00028	0.00077	-9e-05	-1e-05	4
16378	-5e-05	-4e-05	3e-05	0.0002	-0.00028	0.00077	-9e-05	-1e-05	4
16379	-5e-05	-4e-05	3e-05	0.0002	-0.00028	0.00077	-9e-05	-1e-05	4
16380	-5e-05	-4e-05	3e-05	0.0002	-0.00028	0.00077	-9e-05	-1e-05	4
16381	-6e-05	-4e-05	-0.00011	-0.00037	-0.0004	-0.00038	-0.00026	1e-05	4
16382	3e-05	4e-05	8e-05	0.00062	0.00071	-4e-05	0.0002	-5e-05	4
16383	3e-05	4e-05	8e-05	0.00062	0.00071	-4e-05	0.0002	-5e-05	4
16384	3e-05	4e-05	8e-05	0.00062	0.00071	-4e-05	0.0002	-5e-05	4
16385	3e-05	4e-05	8e-05	0.00062	0.00071	-4e-05	0.0002	-5e-05	4
16386	3e-05	4e-05	8e-05	0.00062	0.00071	-4e-05	0.0002	-5e-05	4
16388	3e-05	4e-05	8e-05	0.00062	0.00071	-4e-05	0.0002	-5e-05	4
16389	3e-05	4e-05	8e-05	0.00062	0.00071	-4e-05	0.0002	-5e-05	4
16390	3e-05	4e-05	8e-05	0.00062	0.00071	-4e-05	0.0002	-5e-05	4
16391	3e-05	4e-05	8e-05	0.00062	0.00071	-4e-05	0.0002	-5e-05	4
16392	3e-05	4e-05	8e-05	0.00062	0.00071	-4e-05	0.0002	-5e-05	4
16393	3e-05	4e-05	8e-05	0.00062	0.00071	-4e-05	0.0002	-5e-05	4
16394	-3e-05	-6e-05	-8e-05	-0.00051	-0.00011	0.00011	6e-05	5e-05	4
16395	-3e-05	-6e-05	-8e-05	-0.00051	-0.00011	0.00011	6e-05	5e-05	4
16396	-3e-05	-6e-05	-8e-05	-0.00051	-0.00011	0.00011	6e-05	5e-05	4
16397	-3e-05	-6e-05	-8e-05	-0.00051	-0.00011	0.00011	6e-05	5e-05	4
16398	-3e-05	-6e-05	-8e-05	-0.00051	-0.00011	0.00011	6e-05	5e-05	4
16399	-3e-05	-6e-05	-8e-05	-0.00051	-0.00011	0.00011	6e-05	5e-05	4
16400	-3e-05	-6e-05	-8e-05	-0.00051	-0.00011	0.00011	6e-05	5e-05	4
16401	-3e-05	-6e-05	-8e-05	-0.00051	-0.00011	0.00011	6e-05	5e-05	4
16402	-3e-05	-6e-05	-8e-05	-0.00051	-0.00011	0.00011	6e-05	5e-05	4
16403	0	-3e-05	1e-05	0.00033	0.00029	0.00069	-5e-05	-0.00033	4
16404	0	-3e-05	1e-05	0.00033	0.00029	0.00069	-5e-05	-0.00033	4
16405	0	-3e-05	1e-05	0.00033	0.00029	0.00069	-5e-05	-0.00033	4
16406	0	-3e-05	1e-05	0.00033	0.00029	0.00069	-5e-05	-0.00033	4
16407	0	-3e-05	1e-05	0.00033	0.00029	0.00069	-5e-05	-0.00033	4
16408	0	-3e-05	1e-05	0.00033	0.00029	0.00069	-5e-05	-0.00033	4
16409	0	-3e-05	1e-05	0.00033	0.00029	0.00069	-5e-05	-0.00033	4
16410	0	-3e-05	1e-05	0.00033	0.00029	0.00069	-5e-05	-0.00033	4
16411	0	-3e-05	1e-05	0.00033	0.00029	0.00069	-5e-05	-0.00033	4
16412	0	-3e-05	1e-05	0.00033	0.00029	0.00069	-5e-05	-0.00033	4
16413	0	-3e-05	1e-05	0.00033	0.00029	0.00069	-5e-05	-0.00033	4
16414	0	-3e-05	1e-05	0.00033	0.00029	0.00069	-5e-05	-0.00033	4
16415	0	-3e-05	1e-05	0.00033	0.00029	0.00069	-5e-05	-0.00033	4
16416	0	-3e-05	1e-05	0.00033	0.00029	0.00069	-5e-05	-0.00033	4
16417	0	-3e-05	1e-05	0.00033	0.00029	0.00069	-5e-05	-0.00033	4
16418	0	-3e-05	1e-05	0.00033	0.00029	0.00069	-5e-05	-0.00033	4
16419	-7e-05	-4e-05	-3e-05	0.00019	-0.00083	0.00028	-6e-05	-0.00014	4
16421	-7e-05	-4e-05	-3e-05	0.00019	-0.00083	0.00028	-6e-05	-0.00014	4
16422	-7e-05	-4e-05	-3e-05	0.00019	-0.00083	0.00028	-6e-05	-0.00014	4
16423	-7e-05	-4e-05	-3e-05	0.00019	-0.00083	0.00028	-6e-05	-0.00014	4
16424	-2e-05	-2e-05	-2e-05	-0.00043	-0.00093	-0.00056	-0.00033	0	4
16425	-2e-05	-2e-05	-2e-05	-0.00043	-0.00093	-0.00056	-0.00033	0	4
16426	-2e-05	-2e-05	-2e-05	-0.00043	-0.00093	-0.00056	-0.00033	0	4
16427	-2e-05	-2e-05	-2e-05	-0.00043	-0.00093	-0.00056	-0.00033	0	4
16428	-2e-05	-2e-05	-2e-05	-0.00043	-0.00093	-0.00056	-0.00033	0	4
16429	-2e-05	-2e-05	-2e-05	-0.00043	-0.00093	-0.00056	-0.00033	0	4
16430	-2e-05	-2e-05	-2e-05	-0.00043	-0.00093	-0.00056	-0.00033	0	4
16431	-2e-05	-2e-05	-2e-05	-0.00043	-0.00093	-0.00056	-0.00033	0	4
16432	-2e-05	-2e-05	-2e-05	-0.00043	-0.00093	-0.00056	-0.00033	0	4
16433	-2e-05	-2e-05	-2e-05	-0.00043	-0.00093	-0.00056	-0.00033	0	4
16434	-2e-05	-2e-05	-2e-05	-0.00043	-0.00093	-0.00056	-0.00033	0	4
16435	-2e-05	-2e-05	-2e-05	-0.00043	-0.00093	-0.00056	-0.00033	0	4
16436	-2e-05	-2e-05	-2e-05	-0.00043	-0.00093	-0.00056	-0.00033	0	4
16438	-2e-05	-2e-05	-2e-05	-0.00043	-0.00093	-0.00056	-0.00033	0	4
16439	-2e-05	-2e-05	-2e-05	-0.00043	-0.00093	-0.00056	-0.00033	0	4
16440	-2e-05	-2e-05	-2e-05	-0.00043	-0.00093	-0.00056	-0.00033	0	4
16441	-2e-05	1e-05	0	-0.00018	0.00021	0.00049	-1e-05	-6e-05	4
16442	2e-05	-1e-05	-0.00012	-0.00054	-0.00033	0.00032	0.0001	-0.00012	4
16443	2e-05	-1e-05	-0.00012	-0.00054	-0.00033	0.00032	0.0001	-0.00012	4
16444	2e-05	-1e-05	-0.00012	-0.00054	-0.00033	0.00032	0.0001	-0.00012	4
16445	2e-05	-1e-05	-0.00012	-0.00054	-0.00033	0.00032	0.0001	-0.00012	4
16446	2e-05	-1e-05	-0.00012	-0.00054	-0.00033	0.00032	0.0001	-0.00012	4
16447	2e-05	-1e-05	-0.00012	-0.00054	-0.00033	0.00032	0.0001	-0.00012	4
16448	2e-05	-1e-05	-0.00012	-0.00054	-0.00033	0.00032	0.0001	-0.00012	4
16449	2e-05	-1e-05	-0.00012	-0.00054	-0.00033	0.00032	0.0001	-0.00012	4
16450	2e-05	-1e-05	-0.00012	-0.00054	-0.00033	0.00032	0.0001	-0.00012	4
16451	2e-05	-1e-05	-0.00012	-0.00054	-0.00033	0.00032	0.0001	-0.00012	4
16452	2e-05	-1e-05	-0.00012	-0.00054	-0.00033	0.00032	0.0001	-0.00012	4
16453	2e-05	-1e-05	-0.00012	-0.00054	-0.00033	0.00032	0.0001	-0.00012	4
16454	-2e-05	-2e-05	1e-05	0.0003	0.00078	8e-05	3e-05	0.00029	4
16455	-2e-05	-2e-05	1e-05	0.0003	0.00078	8e-05	3e-05	0.00029	4
16456	-2e-05	-2e-05	1e-05	0.0003	0.00078	8e-05	3e-05	0.00029	4
16457	-2e-05	-2e-05	1e-05	0.0003	0.00078	8e-05	3e-05	0.00029	4
16458	-2e-05	-2e-05	1e-05	0.0003	0.00078	8e-05	3e-05	0.00029	4
16459	-2e-05	-2e-05	1e-05	0.0003	0.00078	8e-05	3e-05	0.00029	4
16460	-2e-05	-2e-05	1e-05	0.0003	0.00078	8e-05	3e-05	0.00029	4
16461	-2e-05	-2e-05	1e-05	0.0003	0.00078	8e-05	3e-05	0.00029	4
16462	-2e-05	-2e-05	1e-05	0.0003	0.00078	8e-05	3e-05	0.00029	4
16463	0	0	2e-05	-0.00014	0.00043	2e-05	4e-05	-0.00038	4
16464	0	0	2e-05	-0.00014	0.00043	2e-05	4e-05	-0.00038	4
16465	0	0	2e-05	-0.00014	0.00043	2e-05	4e-05	-0.00038	4
16466	0	0	2e-05	-0.00014	0.00043	2e-05	4e-05	-0.00038	4
16467	0	0	2e-05	-0.00014	0.00043	2e-05	4e-05	-0.00038	4
16468	0	0	2e-05	-0.00014	0.00043	2e-05	4e-05	-0.00038	4
16469	0	0	2e-05	-0.00014	0.00043	2e-05	4e-05	-0.00038	4
16470	0	0	2e-05	-0.00014	0.00043	2e-05	4e-05	-0.00038	4
16471	0	0	2e-05	-0.00014	0.00043	2e-05	4e-05	-0.00038	4
16472	0	0	2e-05	-0.00014	0.00043	2e-05	4e-05	-0.00038	4
16473	0	0	2e-05	-0.00014	0.00043	2e-05	4e-05	-0.00038	4
16474	0	0	2e-05	-0.00014	0.00043	2e-05	4e-05	-0.00038	4
16475	0	0	2e-05	-0.00014	0.00043	2e-05	4e-05	-0.00038	4
16476	0	0	2e-05	-0.00014	0.00043	2e-05	4e-05	-0.00038	4
16477	0	0	2e-05	-0.00014	0.00043	2e-05	4e-05	-0.00038	4
16478	2e-05	3e-05	5e-05	0.00016	-0.00037	-0.00036	0.00012	9e-05	4
16479	2e-05	3e-05	5e-05	0.00016	-0.00037	-0.00036	0.00012	9e-05	4
16480	-4e-05	-6e-05	-5e-05	-0.00029	-9e-05	0.00039	0.00011	1e-05	4
16481	-4e-05	-6e-05	-5e-05	-0.00029	-9e-05	0.00039	0.00011	1e-05	4
16482	-4e-05	-6e-05	-5e-05	-0.00029	-9e-05	0.00039	0.00011	1e-05	4
16483	-4e-05	-6e-05	-5e-05	-0.00029	-9e-05	0.00039	0.00011	1e-05	4
16484	-4e-05	-6e-05	-5e-05	-0.00029	-9e-05	0.00039	0.00011	1e-05	4
16485	-4e-05	-6e-05	-5e-05	-0.00029	-9e-05	0.00039	0.00011	1e-05	4
16486	-4e-05	-6e-05	-5e-05	-0.00029	-9e-05	0.00039	0.00011	1e-05	4
16488	-4e-05	-6e-05	-5e-05	-0.00029	-9e-05	0.00039	0.00011	1e-05	4
16489	-4e-05	-6e-05	-5e-05	-0.00029	-9e-05	0.00039	0.00011	1e-05	4
16490	-4e-05	-6e-05	-5e-05	-0.00029	-9e-05	0.00039	0.00011	1e-05	4
16491	-4e-05	-6e-05	-5e-05	-0.00029	-9e-05	0.00039	0.00011	1e-05	4
16492	-4e-05	-6e-05	-5e-05	-0.00029	-9e-05	0.00039	0.00011	1e-05	4
16493	-4e-05	-6e-05	-5e-05	-0.00029	-9e-05	0.00039	0.00011	1e-05	4
16494	-4e-05	-6e-05	-5e-05	-0.00029	-9e-05	0.00039	0.00011	1e-05	4
16495	-4e-05	-6e-05	-5e-05	-0.00029	-9e-05	0.00039	0.00011	1e-05	4
16496	-4e-05	-6e-05	-5e-05	-0.00029	-9e-05	0.00039	0.00011	1e-05	4
16497	-4e-05	-6e-05	-5e-05	-0.00029	-9e-05	0.00039	0.00011	1e-05	4
16498	-4e-05	-6e-05	-5e-05	-0.00029	-9e-05	0.00039	0.00011	1e-05	4
16499	-4e-05	-6e-05	-5e-05	-0.00029	-9e-05	0.00039	0.00011	1e-05	4
16500	-4e-05	-6e-05	-5e-05	-0.00029	-9e-05	0.00039	0.00011	1e-05	4
16501	-2e-05	2e-05	-2e-05	5e-05	0.00105	0.00055	9e-05	-2e-05	4
16502	-2e-05	2e-05	-2e-05	5e-05	0.00105	0.00055	9e-05	-2e-05	4
16503	-8e-05	-2e-05	-6e-05	-0.00019	-0.00059	-0.00079	0	-4e-05	4
16504	-8e-05	-2e-05	-6e-05	-0.00019	-0.00059	-0.00079	0	-4e-05	4
16505	-8e-05	-2e-05	-6e-05	-0.00019	-0.00059	-0.00079	0	-4e-05	4
16506	-8e-05	-2e-05	-6e-05	-0.00019	-0.00059	-0.00079	0	-4e-05	4
16507	-8e-05	-2e-05	-6e-05	-0.00019	-0.00059	-0.00079	0	-4e-05	4
16508	-8e-05	-2e-05	-6e-05	-0.00019	-0.00059	-0.00079	0	-4e-05	4
16509	-8e-05	-2e-05	-6e-05	-0.00019	-0.00059	-0.00079	0	-4e-05	4
16510	-8e-05	-2e-05	-6e-05	-0.00019	-0.00059	-0.00079	0	-4e-05	4
16511	-8e-05	-2e-05	-6e-05	-0.00019	-0.00059	-0.00079	0	-4e-05	4
16512	-8e-05	-2e-05	-6e-05	-0.00019	-0.00059	-0.00079	0	-4e-05	4
16513	-8e-05	-2e-05	-6e-05	-0.00019	-0.00059	-0.00079	0	-4e-05	4
16514	4e-05	0	-2e-05	-0.00014	0.00032	0.0001	-0.00012	4e-05	4
16515	4e-05	0	-2e-05	-0.00014	0.00032	0.0001	-0.00012	4e-05	4
16516	4e-05	0	-2e-05	-0.00014	0.00032	0.0001	-0.00012	4e-05	4
16517	4e-05	0	-2e-05	-0.00014	0.00032	0.0001	-0.00012	4e-05	4
16518	4e-05	0	-2e-05	-0.00014	0.00032	0.0001	-0.00012	4e-05	4
16519	4e-05	0	-2e-05	-0.00014	0.00032	0.0001	-0.00012	4e-05	4
16520	4e-05	0	-2e-05	-0.00014	0.00032	0.0001	-0.00012	4e-05	4
16521	4e-05	0	-2e-05	-0.00014	0.00032	0.0001	-0.00012	4e-05	4
16522	4e-05	0	-2e-05	-0.00014	0.00032	0.0001	-0.00012	4e-05	4
16523	4e-05	0	-2e-05	-0.00014	0.00032	0.0001	-0.00012	4e-05	4
16524	4e-05	0	-2e-05	-0.00014	0.00032	0.0001	-0.00012	4e-05	4
16525	4e-05	0	-2e-05	-0.00014	0.00032	0.0001	-0.00012	4e-05	4
16526	4e-05	0	-2e-05	-0.00014	0.00032	0.0001	-0.00012	4e-05	4
16527	4e-05	0	-2e-05	-0.00014	0.00032	0.0001	-0.00012	4e-05	4
16528	4e-05	0	-2e-05	-0.00014	0.00032	0.0001	-0.00012	4e-05	4
16529	4e-05	0	-2e-05	-0.00014	0.00032	0.0001	-0.00012	4e-05	4
16530	4e-05	0	-2e-05	-0.00014	0.00032	0.0001	-0.00012	4e-05	4
16531	-6e-05	3e-05	2e-05	0.00077	0.00081	-0.0001	7e-05	-0.0003	4
16532	-6e-05	3e-05	2e-05	0.00077	0.00081	-0.0001	7e-05	-0.0003	4
16533	-6e-05	3e-05	2e-05	0.00077	0.00081	-0.0001	7e-05	-0.0003	4
16534	-6e-05	3e-05	2e-05	0.00077	0.00081	-0.0001	7e-05	-0.0003	4
16535	-6e-05	3e-05	2e-05	0.00077	0.00081	-0.0001	7e-05	-0.0003	4
16536	-6e-05	3e-05	2e-05	0.00077	0.00081	-0.0001	7e-05	-0.0003	4
16538	9e-05	0.00011	0.0002	0.0007	8e-05	-0.0001	1e-05	0.00025	4
16539	9e-05	0.00011	0.0002	0.0007	8e-05	-0.0001	1e-05	0.00025	4
16540	5e-05	1e-05	4e-05	-0.00018	-0.00038	0.00069	2e-05	0.00026	4
16541	5e-05	1e-05	4e-05	-0.00018	-0.00038	0.00069	2e-05	0.00026	4
16542	5e-05	1e-05	4e-05	-0.00018	-0.00038	0.00069	2e-05	0.00026	4
16543	5e-05	1e-05	4e-05	-0.00018	-0.00038	0.00069	2e-05	0.00026	4
16544	5e-05	1e-05	4e-05	-0.00018	-0.00038	0.00069	2e-05	0.00026	4
16545	5e-05	1e-05	4e-05	-0.00018	-0.00038	0.00069	2e-05	0.00026	4
16546	5e-05	1e-05	4e-05	-0.00018	-0.00038	0.00069	2e-05	0.00026	4
16547	5e-05	1e-05	4e-05	-0.00018	-0.00038	0.00069	2e-05	0.00026	4
16548	5e-05	1e-05	4e-05	-0.00018	-0.00038	0.00069	2e-05	0.00026	4
16549	5e-05	1e-05	4e-05	-0.00018	-0.00038	0.00069	2e-05	0.00026	4
16550	5e-05	1e-05	4e-05	-0.00018	-0.00038	0.00069	2e-05	0.00026	4
16551	5e-05	1e-05	4e-05	-0.00018	-0.00038	0.00069	2e-05	0.00026	4
16552	5e-05	1e-05	4e-05	-0.00018	-0.00038	0.00069	2e-05	0.00026	4
16553	5e-05	1e-05	4e-05	-0.00018	-0.00038	0.00069	2e-05	0.00026	4
16554	5e-05	1e-05	4e-05	-0.00018	-0.00038	0.00069	2e-05	0.00026	4
16555	5e-05	1e-05	4e-05	-0.00018	-0.00038	0.00069	2e-05	0.00026	4
16556	5e-05	1e-05	4e-05	-0.00018	-0.00038	0.00069	2e-05	0.00026	4
16557	5e-05	1e-05	4e-05	-0.00018	-0.00038	0.00069	2e-05	0.00026	4
16558	5e-05	1e-05	4e-05	-0.00018	-0.00038	0.00069	2e-05	0.00026	4
16559	5e-05	1e-05	4e-05	-0.00018	-0.00038	0.00069	2e-05	0.00026	4
16560	5e-05	1e-05	4e-05	-0.00018	-0.00038	0.00069	2e-05	0.00026	4
16561	0	3e-05	1e-05	-0.00045	-0.00013	-6e-05	-7e-05	-0.00015	4
16562	1e-05	2e-05	3e-05	-3e-05	0.00012	-0.00023	6e-05	6e-05	4
16563	1e-05	2e-05	3e-05	-3e-05	0.00012	-0.00023	6e-05	6e-05	4
16564	1e-05	2e-05	3e-05	-3e-05	0.00012	-0.00023	6e-05	6e-05	4
16565	1e-05	2e-05	3e-05	-3e-05	0.00012	-0.00023	6e-05	6e-05	4
16566	1e-05	2e-05	3e-05	-3e-05	0.00012	-0.00023	6e-05	6e-05	4
16567	1e-05	2e-05	3e-05	-3e-05	0.00012	-0.00023	6e-05	6e-05	4
16568	1e-05	2e-05	3e-05	-3e-05	0.00012	-0.00023	6e-05	6e-05	4
16569	1e-05	2e-05	3e-05	-3e-05	0.00012	-0.00023	6e-05	6e-05	4
16570	1e-05	2e-05	3e-05	-3e-05	0.00012	-0.00023	6e-05	6e-05	4
16571	1e-05	2e-05	3e-05	-3e-05	0.00012	-0.00023	6e-05	6e-05	4
16572	1e-05	2e-05	3e-05	-3e-05	0.00012	-0.00023	6e-05	6e-05	4
16573	1e-05	2e-05	3e-05	-3e-05	0.00012	-0.00023	6e-05	6e-05	4
16574	1e-05	-4e-05	0	0.00014	-4e-05	-0.0003	-9e-05	1e-05	4
16575	1e-05	-4e-05	0	0.00014	-4e-05	-0.0003	-9e-05	1e-05	4
16576	1e-05	-4e-05	0	0.00014	-4e-05	-0.0003	-9e-05	1e-05	4
16577	1e-05	-4e-05	0	0.00014	-4e-05	-0.0003	-9e-05	1e-05	4
16578	1e-05	-4e-05	0	0.00014	-4e-05	-0.0003	-9e-05	1e-05	4
16579	1e-05	-4e-05	0	0.00014	-4e-05	-0.0003	-9e-05	1e-05	4
16580	1e-05	-4e-05	0	0.00014	-4e-05	-0.0003	-9e-05	1e-05	4
16581	1e-05	-4e-05	0	0.00014	-4e-05	-0.0003	-9e-05	1e-05	4
16582	1e-05	-4e-05	0	0.00014	-4e-05	-0.0003	-9e-05	1e-05	4
16583	5e-05	-1e-05	-8e-05	-0.00042	-2e-05	-7e-05	5e-05	0.00027	4
16584	5e-05	-1e-05	-8e-05	-0.00042	-2e-05	-7e-05	5e-05	0.00027	4
16585	5e-05	-1e-05	-8e-05	-0.00042	-2e-05	-7e-05	5e-05	0.00027	4
16586	5e-05	-1e-05	-8e-05	-0.00042	-2e-05	-7e-05	5e-05	0.00027	4
16589	5e-05	-1e-05	-8e-05	-0.00042	-2e-05	-7e-05	5e-05	0.00027	4
16590	5e-05	-1e-05	-8e-05	-0.00042	-2e-05	-7e-05	5e-05	0.00027	4
16591	5e-05	-1e-05	-8e-05	-0.00042	-2e-05	-7e-05	5e-05	0.00027	4
16592	5e-05	-1e-05	-8e-05	-0.00042	-2e-05	-7e-05	5e-05	0.00027	4
16593	5e-05	-1e-05	-8e-05	-0.00042	-2e-05	-7e-05	5e-05	0.00027	4
16594	5e-05	-1e-05	-8e-05	-0.00042	-2e-05	-7e-05	5e-05	0.00027	4
16595	5e-05	-1e-05	-8e-05	-0.00042	-2e-05	-7e-05	5e-05	0.00027	4
16596	5e-05	-1e-05	-8e-05	-0.00042	-2e-05	-7e-05	5e-05	0.00027	4
16597	5e-05	-1e-05	-8e-05	-0.00042	-2e-05	-7e-05	5e-05	0.00027	4
16598	-6e-05	-8e-05	-7e-05	0.00011	-0.00048	-0.00061	0.00012	-0.00015	4
16599	-6e-05	-8e-05	-7e-05	0.00011	-0.00048	-0.00061	0.00012	-0.00015	4
16600	-7e-05	0	2e-05	0.00035	0.00062	0.00052	-5e-05	-5e-05	4
16601	-7e-05	0	2e-05	0.00035	0.00062	0.00052	-5e-05	-5e-05	4
16602	-7e-05	0	2e-05	0.00035	0.00062	0.00052	-5e-05	-5e-05	4
16603	-7e-05	0	2e-05	0.00035	0.00062	0.00052	-5e-05	-5e-05	4
16604	-7e-05	0	2e-05	0.00035	0.00062	0.00052	-5e-05	-5e-05	4
16605	-7e-05	0	2e-05	0.00035	0.00062	0.00052	-5e-05	-5e-05	4
16606	-7e-05	0	2e-05	0.00035	0.00062	0.00052	-5e-05	-5e-05	4
16607	-7e-05	0	2e-05	0.00035	0.00062	0.00052	-5e-05	-5e-05	4
16608	-7e-05	0	2e-05	0.00035	0.00062	0.00052	-5e-05	-5e-05	4
16609	-7e-05	0	2e-05	0.00035	0.00062	0.00052	-5e-05	-5e-05	4
16611	-7e-05	0	2e-05	0.00035	0.00062	0.00052	-5e-05	-5e-05	4
16612	-7e-05	0	2e-05	0.00035	0.00062	0.00052	-5e-05	-5e-05	4
16613	-7e-05	0	2e-05	0.00035	0.00062	0.00052	-5e-05	-5e-05	4
16614	-7e-05	0	2e-05	0.00035	0.00062	0.00052	-5e-05	-5e-05	4
16615	-7e-05	0	2e-05	0.00035	0.00062	0.00052	-5e-05	-5e-05	4
16616	-7e-05	0	2e-05	0.00035	0.00062	0.00052	-5e-05	-5e-05	4
16617	-7e-05	0	2e-05	0.00035	0.00062	0.00052	-5e-05	-5e-05	4
16618	-7e-05	0	2e-05	0.00035	0.00062	0.00052	-5e-05	-5e-05	4
16619	-7e-05	0	2e-05	0.00035	0.00062	0.00052	-5e-05	-5e-05	4
16620	-7e-05	0	2e-05	0.00035	0.00062	0.00052	-5e-05	-5e-05	4
16621	4e-05	7e-05	3e-05	0.00016	0.00026	-0.00024	0.00016	0.00016	4
16622	-3e-05	-7e-05	4e-05	0.0003	0.00036	0.00047	-0.00016	-2e-05	4
16623	-3e-05	-7e-05	4e-05	0.0003	0.00036	0.00047	-0.00016	-2e-05	4
16624	-3e-05	-7e-05	4e-05	0.0003	0.00036	0.00047	-0.00016	-2e-05	4
16625	-3e-05	-7e-05	4e-05	0.0003	0.00036	0.00047	-0.00016	-2e-05	4
16626	-3e-05	-7e-05	4e-05	0.0003	0.00036	0.00047	-0.00016	-2e-05	4
16627	-3e-05	-7e-05	4e-05	0.0003	0.00036	0.00047	-0.00016	-2e-05	4
16628	-3e-05	-7e-05	4e-05	0.0003	0.00036	0.00047	-0.00016	-2e-05	4
16629	-3e-05	-7e-05	4e-05	0.0003	0.00036	0.00047	-0.00016	-2e-05	4
16630	-3e-05	-7e-05	4e-05	0.0003	0.00036	0.00047	-0.00016	-2e-05	4
16631	-3e-05	-7e-05	4e-05	0.0003	0.00036	0.00047	-0.00016	-2e-05	4
16632	-3e-05	-7e-05	4e-05	0.0003	0.00036	0.00047	-0.00016	-2e-05	4
16633	-3e-05	-7e-05	4e-05	0.0003	0.00036	0.00047	-0.00016	-2e-05	4
16634	-2e-05	0	0.00011	0.00052	-0.00012	0.00033	-5e-05	-0.00013	4
16635	-2e-05	0	0.00011	0.00052	-0.00012	0.00033	-5e-05	-0.00013	4
16637	-2e-05	0	0.00011	0.00052	-0.00012	0.00033	-5e-05	-0.00013	4
16639	-2e-05	0	0.00011	0.00052	-0.00012	0.00033	-5e-05	-0.00013	4
16640	-2e-05	0	0.00011	0.00052	-0.00012	0.00033	-5e-05	-0.00013	4
16641	-2e-05	0	0.00011	0.00052	-0.00012	0.00033	-5e-05	-0.00013	4
16642	-2e-05	0	0.00011	0.00052	-0.00012	0.00033	-5e-05	-0.00013	4
16643	-4e-05	-3e-05	0	0.00027	-0.0002	-0.00072	1e-05	0.00023	4
16644	-4e-05	-3e-05	0	0.00027	-0.0002	-0.00072	1e-05	0.00023	4
16645	-4e-05	-3e-05	0	0.00027	-0.0002	-0.00072	1e-05	0.00023	4
16646	-4e-05	-3e-05	0	0.00027	-0.0002	-0.00072	1e-05	0.00023	4
16647	-4e-05	-3e-05	0	0.00027	-0.0002	-0.00072	1e-05	0.00023	4
16648	-4e-05	-3e-05	0	0.00027	-0.0002	-0.00072	1e-05	0.00023	4
16649	-4e-05	-3e-05	0	0.00027	-0.0002	-0.00072	1e-05	0.00023	4
16650	-4e-05	-3e-05	0	0.00027	-0.0002	-0.00072	1e-05	0.00023	4
16651	-4e-05	-3e-05	0	0.00027	-0.0002	-0.00072	1e-05	0.00023	4
16652	-4e-05	-3e-05	0	0.00027	-0.0002	-0.00072	1e-05	0.00023	4
16653	-4e-05	-3e-05	0	0.00027	-0.0002	-0.00072	1e-05	0.00023	4
16654	-4e-05	-3e-05	0	0.00027	-0.0002	-0.00072	1e-05	0.00023	4
16655	-4e-05	-3e-05	0	0.00027	-0.0002	-0.00072	1e-05	0.00023	4
16656	-4e-05	-3e-05	0	0.00027	-0.0002	-0.00072	1e-05	0.00023	4
16657	-4e-05	-3e-05	0	0.00027	-0.0002	-0.00072	1e-05	0.00023	4
16658	-4e-05	-8e-05	-0.00017	-0.00028	0.00054	0.00093	2e-05	-3e-05	4
16659	-4e-05	-8e-05	-0.00017	-0.00028	0.00054	0.00093	2e-05	-3e-05	4
16660	-5e-05	2e-05	-1e-05	0.00012	0.00015	-0.00015	7e-05	-0.00024	4
16661	-5e-05	2e-05	-1e-05	0.00012	0.00015	-0.00015	7e-05	-0.00024	4
16662	-5e-05	2e-05	-1e-05	0.00012	0.00015	-0.00015	7e-05	-0.00024	4
16663	-5e-05	2e-05	-1e-05	0.00012	0.00015	-0.00015	7e-05	-0.00024	4
16664	-5e-05	2e-05	-1e-05	0.00012	0.00015	-0.00015	7e-05	-0.00024	4
16665	-5e-05	2e-05	-1e-05	0.00012	0.00015	-0.00015	7e-05	-0.00024	4
16666	-5e-05	2e-05	-1e-05	0.00012	0.00015	-0.00015	7e-05	-0.00024	4
16667	-5e-05	2e-05	-1e-05	0.00012	0.00015	-0.00015	7e-05	-0.00024	4
16668	-5e-05	2e-05	-1e-05	0.00012	0.00015	-0.00015	7e-05	-0.00024	4
16669	-5e-05	2e-05	-1e-05	0.00012	0.00015	-0.00015	7e-05	-0.00024	4
16670	-5e-05	2e-05	-1e-05	0.00012	0.00015	-0.00015	7e-05	-0.00024	4
16671	-5e-05	2e-05	-1e-05	0.00012	0.00015	-0.00015	7e-05	-0.00024	4
16672	-5e-05	2e-05	-1e-05	0.00012	0.00015	-0.00015	7e-05	-0.00024	4
16673	-5e-05	2e-05	-1e-05	0.00012	0.00015	-0.00015	7e-05	-0.00024	4
16674	-5e-05	2e-05	-1e-05	0.00012	0.00015	-0.00015	7e-05	-0.00024	4
16675	-5e-05	2e-05	-1e-05	0.00012	0.00015	-0.00015	7e-05	-0.00024	4
16676	-5e-05	2e-05	-1e-05	0.00012	0.00015	-0.00015	7e-05	-0.00024	4
16677	-5e-05	2e-05	-1e-05	0.00012	0.00015	-0.00015	7e-05	-0.00024	4
16678	-5e-05	2e-05	-1e-05	0.00012	0.00015	-0.00015	7e-05	-0.00024	4
16679	-5e-05	2e-05	-1e-05	0.00012	0.00015	-0.00015	7e-05	-0.00024	4
16680	-5e-05	2e-05	-1e-05	0.00012	0.00015	-0.00015	7e-05	-0.00024	4
16681	-2e-05	-4e-05	6e-05	0.00077	0.0008	-0.00042	-9e-05	-6e-05	4
16682	-7e-05	-3e-05	-1e-05	-0.00014	0.00074	0.00037	-4e-05	-0.00029	4
16683	-7e-05	-3e-05	-1e-05	-0.00014	0.00074	0.00037	-4e-05	-0.00029	4
16684	-7e-05	-3e-05	-1e-05	-0.00014	0.00074	0.00037	-4e-05	-0.00029	4
16685	-7e-05	-3e-05	-1e-05	-0.00014	0.00074	0.00037	-4e-05	-0.00029	4
16687	-7e-05	-3e-05	-1e-05	-0.00014	0.00074	0.00037	-4e-05	-0.00029	4
16689	-7e-05	-3e-05	-1e-05	-0.00014	0.00074	0.00037	-4e-05	-0.00029	4
16690	-7e-05	-3e-05	-1e-05	-0.00014	0.00074	0.00037	-4e-05	-0.00029	4
16691	-7e-05	-3e-05	-1e-05	-0.00014	0.00074	0.00037	-4e-05	-0.00029	4
16692	-7e-05	-3e-05	-1e-05	-0.00014	0.00074	0.00037	-4e-05	-0.00029	4
16693	-7e-05	-3e-05	-1e-05	-0.00014	0.00074	0.00037	-4e-05	-0.00029	4
16694	-4e-05	-1e-05	-8e-05	0.00016	-0.00119	7e-05	-6e-05	-1e-05	4
16695	-4e-05	-1e-05	-8e-05	0.00016	-0.00119	7e-05	-6e-05	-1e-05	4
16696	-4e-05	-1e-05	-8e-05	0.00016	-0.00119	7e-05	-6e-05	-1e-05	4
16697	-4e-05	-1e-05	-8e-05	0.00016	-0.00119	7e-05	-6e-05	-1e-05	4
16698	-4e-05	-1e-05	-8e-05	0.00016	-0.00119	7e-05	-6e-05	-1e-05	4
16699	-4e-05	-1e-05	-8e-05	0.00016	-0.00119	7e-05	-6e-05	-1e-05	4
16700	-4e-05	-1e-05	-8e-05	0.00016	-0.00119	7e-05	-6e-05	-1e-05	4
16701	-4e-05	-1e-05	-8e-05	0.00016	-0.00119	7e-05	-6e-05	-1e-05	4
16702	-4e-05	-1e-05	-8e-05	0.00016	-0.00119	7e-05	-6e-05	-1e-05	4
16703	8e-05	2e-05	1e-05	-0.0003	-0.00034	-8e-05	-1e-05	0.00024	4
16704	8e-05	2e-05	1e-05	-0.0003	-0.00034	-8e-05	-1e-05	0.00024	4
16705	8e-05	2e-05	1e-05	-0.0003	-0.00034	-8e-05	-1e-05	0.00024	4
16706	8e-05	2e-05	1e-05	-0.0003	-0.00034	-8e-05	-1e-05	0.00024	4
16707	8e-05	2e-05	1e-05	-0.0003	-0.00034	-8e-05	-1e-05	0.00024	4
16708	8e-05	2e-05	1e-05	-0.0003	-0.00034	-8e-05	-1e-05	0.00024	4
16709	8e-05	2e-05	1e-05	-0.0003	-0.00034	-8e-05	-1e-05	0.00024	4
16710	8e-05	2e-05	1e-05	-0.0003	-0.00034	-8e-05	-1e-05	0.00024	4
16711	8e-05	2e-05	1e-05	-0.0003	-0.00034	-8e-05	-1e-05	0.00024	4
16712	8e-05	2e-05	1e-05	-0.0003	-0.00034	-8e-05	-1e-05	0.00024	4
16713	8e-05	2e-05	1e-05	-0.0003	-0.00034	-8e-05	-1e-05	0.00024	4
16714	8e-05	2e-05	1e-05	-0.0003	-0.00034	-8e-05	-1e-05	0.00024	4
16715	8e-05	2e-05	1e-05	-0.0003	-0.00034	-8e-05	-1e-05	0.00024	4
16716	8e-05	2e-05	1e-05	-0.0003	-0.00034	-8e-05	-1e-05	0.00024	4
16717	8e-05	2e-05	1e-05	-0.0003	-0.00034	-8e-05	-1e-05	0.00024	4
16718	0	-1e-05	2e-05	-0.00016	0.00041	-0.00011	-9e-05	0.00014	4
16719	0	-1e-05	2e-05	-0.00016	0.00041	-0.00011	-9e-05	0.00014	4
16720	1e-05	1e-05	0	0.00015	-0.00062	0.00027	0.00013	0.00013	4
16721	1e-05	1e-05	0	0.00015	-0.00062	0.00027	0.00013	0.00013	4
16722	1e-05	1e-05	0	0.00015	-0.00062	0.00027	0.00013	0.00013	4
16723	1e-05	1e-05	0	0.00015	-0.00062	0.00027	0.00013	0.00013	4
16724	1e-05	1e-05	0	0.00015	-0.00062	0.00027	0.00013	0.00013	4
16725	1e-05	1e-05	0	0.00015	-0.00062	0.00027	0.00013	0.00013	4
16726	1e-05	1e-05	0	0.00015	-0.00062	0.00027	0.00013	0.00013	4
16727	1e-05	1e-05	0	0.00015	-0.00062	0.00027	0.00013	0.00013	4
16728	1e-05	1e-05	0	0.00015	-0.00062	0.00027	0.00013	0.00013	4
16729	1e-05	1e-05	0	0.00015	-0.00062	0.00027	0.00013	0.00013	4
16730	1e-05	1e-05	0	0.00015	-0.00062	0.00027	0.00013	0.00013	4
16731	1e-05	1e-05	0	0.00015	-0.00062	0.00027	0.00013	0.00013	4
16732	1e-05	1e-05	0	0.00015	-0.00062	0.00027	0.00013	0.00013	4
16733	1e-05	1e-05	0	0.00015	-0.00062	0.00027	0.00013	0.00013	4
16734	1e-05	1e-05	0	0.00015	-0.00062	0.00027	0.00013	0.00013	4
16735	1e-05	1e-05	0	0.00015	-0.00062	0.00027	0.00013	0.00013	4
16737	1e-05	1e-05	0	0.00015	-0.00062	0.00027	0.00013	0.00013	4
16739	1e-05	1e-05	0	0.00015	-0.00062	0.00027	0.00013	0.00013	4
16740	1e-05	1e-05	0	0.00015	-0.00062	0.00027	0.00013	0.00013	4
16741	0	5e-05	5e-05	0.00022	-0.00017	0.00042	-0.0002	-2e-05	4
16742	0	0	4e-05	-0.00016	0.00023	-0.00054	4e-05	-5e-05	4
16743	0	0	4e-05	-0.00016	0.00023	-0.00054	4e-05	-5e-05	4
16744	0	0	4e-05	-0.00016	0.00023	-0.00054	4e-05	-5e-05	4
16745	0	0	4e-05	-0.00016	0.00023	-0.00054	4e-05	-5e-05	4
16746	0	0	4e-05	-0.00016	0.00023	-0.00054	4e-05	-5e-05	4
16747	0	0	4e-05	-0.00016	0.00023	-0.00054	4e-05	-5e-05	4
16748	0	0	4e-05	-0.00016	0.00023	-0.00054	4e-05	-5e-05	4
16749	0	0	4e-05	-0.00016	0.00023	-0.00054	4e-05	-5e-05	4
16750	0	0	4e-05	-0.00016	0.00023	-0.00054	4e-05	-5e-05	4
16751	0	0	4e-05	-0.00016	0.00023	-0.00054	4e-05	-5e-05	4
16752	0	0	4e-05	-0.00016	0.00023	-0.00054	4e-05	-5e-05	4
16753	0	0	4e-05	-0.00016	0.00023	-0.00054	4e-05	-5e-05	4
16754	0	-3e-05	-1e-05	-0.00077	-0.00125	-0.00018	2e-05	-0.00011	4
16755	0	-3e-05	-1e-05	-0.00077	-0.00125	-0.00018	2e-05	-0.00011	4
16756	0	-3e-05	-1e-05	-0.00077	-0.00125	-0.00018	2e-05	-0.00011	4
16757	0	-3e-05	-1e-05	-0.00077	-0.00125	-0.00018	2e-05	-0.00011	4
16758	0	-3e-05	-1e-05	-0.00077	-0.00125	-0.00018	2e-05	-0.00011	4
16759	0	-3e-05	-1e-05	-0.00077	-0.00125	-0.00018	2e-05	-0.00011	4
