23376	-0.00017	-4e-05	-8e-05	-7e-05	-0.00027	-0.00073	6e-05	-0.00066	6
23377	-0.00017	-4e-05	-8e-05	-7e-05	-0.00027	-0.00073	6e-05	-0.00066	6
23378	-0.00017	-4e-05	-8e-05	-7e-05	-0.00027	-0.00073	6e-05	-0.00066	6
23379	0.00021	-5e-05	0	1e-05	-0.00023	1e-05	-2e-05	0.00031	6
23380	-0.00014	4e-05	1e-05	-8e-05	-0.00029	-0.0003	-0.00016	0.00052	6
23382	-0.00014	4e-05	1e-05	-8e-05	-0.00029	-0.0003	-0.00016	0.00052	6
23383	-0.00014	4e-05	1e-05	-8e-05	-0.00029	-0.0003	-0.00016	0.00052	6
23384	-0.00014	4e-05	1e-05	-8e-05	-0.00029	-0.0003	-0.00016	0.00052	6
23385	-0.00014	4e-05	1e-05	-8e-05	-0.00029	-0.0003	-0.00016	0.00052	6
23386	-0.00014	4e-05	1e-05	-8e-05	-0.00029	-0.0003	-0.00016	0.00052	6
23388	-0.00014	4e-05	1e-05	-8e-05	-0.00029	-0.0003	-0.00016	0.00052	6
23389	-0.00014	4e-05	1e-05	-8e-05	-0.00029	-0.0003	-0.00016	0.00052	6
23390	-0.00014	4e-05	1e-05	-8e-05	-0.00029	-0.0003	-0.00016	0.00052	6
23391	-0.00014	4e-05	1e-05	-8e-05	-0.00029	-0.0003	-0.00016	0.00052	6
23392	0.00046	2e-05	-2e-05	7e-05	0.00032	0.00043	5e-05	-0.0005	6
23393	1e-05	-0.00021	-0.00012	-0.00016	-0.00037	5e-05	-0.00019	0.00035	6
23394	1e-05	-0.00021	-0.00012	-0.00016	-0.00037	5e-05	-0.00019	0.00035	6
23395	1e-05	-0.00021	-0.00012	-0.00016	-0.00037	5e-05	-0.00019	0.00035	6
23396	1e-05	-0.00021	-0.00012	-0.00016	-0.00037	5e-05	-0.00019	0.00035	6
23397	1e-05	-0.00021	-0.00012	-0.00016	-0.00037	5e-05	-0.00019	0.00035	6
23398	1e-05	-0.00021	-0.00012	-0.00016	-0.00037	5e-05	-0.00019	0.00035	6
23399	1e-05	-0.00021	-0.00012	-0.00016	-0.00037	5e-05	-0.00019	0.00035	6
23400	1e-05	-0.00021	-0.00012	-0.00016	-0.00037	5e-05	-0.00019	0.00035	6
23401	-1e-05	4e-05	4e-05	0.00014	1e-05	8e-05	-7e-05	-0.00027	6
23402	-1e-05	4e-05	4e-05	0.00014	1e-05	8e-05	-7e-05	-0.00027	6
23403	-1e-05	4e-05	4e-05	0.00014	1e-05	8e-05	-7e-05	-0.00027	6
23404	-1e-05	4e-05	4e-05	0.00014	1e-05	8e-05	-7e-05	-0.00027	6
23405	-1e-05	4e-05	4e-05	0.00014	1e-05	8e-05	-7e-05	-0.00027	6
23406	-1e-05	4e-05	4e-05	0.00014	1e-05	8e-05	-7e-05	-0.00027	6
23407	-1e-05	4e-05	4e-05	0.00014	1e-05	8e-05	-7e-05	-0.00027	6
23408	-1e-05	4e-05	4e-05	0.00014	1e-05	8e-05	-7e-05	-0.00027	6
23409	-1e-05	4e-05	4e-05	0.00014	1e-05	8e-05	-7e-05	-0.00027	6
23410	-1e-05	4e-05	4e-05	0.00014	1e-05	8e-05	-7e-05	-0.00027	6
23411	-1e-05	4e-05	4e-05	0.00014	1e-05	8e-05	-7e-05	-0.00027	6
23412	-1e-05	4e-05	4e-05	0.00014	1e-05	8e-05	-7e-05	-0.00027	6
23413	-1e-05	4e-05	4e-05	0.00014	1e-05	8e-05	-7e-05	-0.00027	6
23414	-1e-05	4e-05	4e-05	0.00014	1e-05	8e-05	-7e-05	-0.00027	6
23415	-1e-05	4e-05	4e-05	0.00014	1e-05	8e-05	-7e-05	-0.00027	6
23416	2e-05	-1e-05	7e-05	0.00016	0.00025	0.00064	0.00014	0.0008	6
23417	2e-05	-1e-05	7e-05	0.00016	0.00025	0.00064	0.00014	0.0008	6
23418	0.0001	0.00018	0	-0.00019	-0.0007	-0.00027	-0.00015	0.0003	6
23419	0.0001	0.00018	0	-0.00019	-0.0007	-0.00027	-0.00015	0.0003	6
23420	0.0001	0.00018	0	-0.00019	-0.0007	-0.00027	-0.00015	0.0003	6
23421	0.0001	0.00018	0	-0.00019	-0.0007	-0.00027	-0.00015	0.0003	6
23422	0.0001	0.00018	0	-0.00019	-0.0007	-0.00027	-0.00015	0.0003	6
23423	0.0001	0.00018	0	-0.00019	-0.0007	-0.00027	-0.00015	0.0003	6
23424	0.0001	0.00018	0	-0.00019	-0.0007	-0.00027	-0.00015	0.0003	6
23425	0.0001	0.00018	0	-0.00019	-0.0007	-0.00027	-0.00015	0.0003	6
23426	0.0001	0.00018	0	-0.00019	-0.0007	-0.00027	-0.00015	0.0003	6
23427	0.0001	0.00018	0	-0.00019	-0.0007	-0.00027	-0.00015	0.0003	6
23428	0.0001	0.00018	0	-0.00019	-0.0007	-0.00027	-0.00015	0.0003	6
23429	0.0001	0.00018	0	-0.00019	-0.0007	-0.00027	-0.00015	0.0003	6
23430	0.0001	0.00018	0	-0.00019	-0.0007	-0.00027	-0.00015	0.0003	6
23431	0.0001	0.00018	0	-0.00019	-0.0007	-0.00027	-0.00015	0.0003	6
23432	0.0001	0.00018	0	-0.00019	-0.0007	-0.00027	-0.00015	0.0003	6
23433	0.0001	0.00018	0	-0.00019	-0.0007	-0.00027	-0.00015	0.0003	6
23434	0.0001	0.00018	0	-0.00019	-0.0007	-0.00027	-0.00015	0.0003	6
23435	0.0001	0.00018	0	-0.00019	-0.0007	-0.00027	-0.00015	0.0003	6
23436	0.0001	0.00018	0	-0.00019	-0.0007	-0.00027	-0.00015	0.0003	6
23438	0.0001	0.00018	0	-0.00019	-0.0007	-0.00027	-0.00015	0.0003	6
23439	0.00034	1e-05	-4e-05	-8e-05	-0.00051	-0.00063	-4e-05	-0.00034	6
23440	-0.00033	6e-05	3e-05	0.0001	-0.00059	-0.00019	-6e-05	0	6
23441	6e-05	7e-05	1e-05	-2e-05	0.00015	0.00014	0.00017	0	6
23442	6e-05	7e-05	1e-05	-2e-05	0.00015	0.00014	0.00017	0	6
23443	6e-05	7e-05	1e-05	-2e-05	0.00015	0.00014	0.00017	0	6
23444	6e-05	7e-05	1e-05	-2e-05	0.00015	0.00014	0.00017	0	6
23445	6e-05	7e-05	1e-05	-2e-05	0.00015	0.00014	0.00017	0	6
23446	6e-05	7e-05	1e-05	-2e-05	0.00015	0.00014	0.00017	0	6
23447	6e-05	7e-05	1e-05	-2e-05	0.00015	0.00014	0.00017	0	6
23448	6e-05	7e-05	1e-05	-2e-05	0.00015	0.00014	0.00017	0	6
23449	6e-05	7e-05	1e-05	-2e-05	0.00015	0.00014	0.00017	0	6
23450	6e-05	7e-05	1e-05	-2e-05	0.00015	0.00014	0.00017	0	6
23451	6e-05	7e-05	1e-05	-2e-05	0.00015	0.00014	0.00017	0	6
23452	6e-05	7e-05	1e-05	-2e-05	0.00015	0.00014	0.00017	0	6
23453	6e-05	7e-05	1e-05	-2e-05	0.00015	0.00014	0.00017	0	6
23454	6e-05	7e-05	1e-05	-2e-05	0.00015	0.00014	0.00017	0	6
23455	6e-05	7e-05	1e-05	-2e-05	0.00015	0.00014	0.00017	0	6
23456	6e-05	7e-05	1e-05	-2e-05	0.00015	0.00014	0.00017	0	6
23457	6e-05	7e-05	1e-05	-2e-05	0.00015	0.00014	0.00017	0	6
23458	6e-05	7e-05	1e-05	-2e-05	0.00015	0.00014	0.00017	0	6
23459	6e-05	7e-05	1e-05	-2e-05	0.00015	0.00014	0.00017	0	6
23460	6e-05	7e-05	1e-05	-2e-05	0.00015	0.00014	0.00017	0	6
23461	2e-05	-0.00022	-7e-05	-9e-05	-0.00037	-0.00043	9e-05	-0.0004	6
23462	2e-05	-0.00022	-7e-05	-9e-05	-0.00037	-0.00043	9e-05	-0.0004	6
23463	6e-05	-5e-05	-3e-05	0	0.00017	0.00031	1e-05	0.00023	6
23464	6e-05	-5e-05	-3e-05	0	0.00017	0.00031	1e-05	0.00023	6
23465	6e-05	-5e-05	-3e-05	0	0.00017	0.00031	1e-05	0.00023	6
23466	6e-05	-5e-05	-3e-05	0	0.00017	0.00031	1e-05	0.00023	6
23467	6e-05	-5e-05	-3e-05	0	0.00017	0.00031	1e-05	0.00023	6
23468	6e-05	-5e-05	-3e-05	0	0.00017	0.00031	1e-05	0.00023	6
23469	6e-05	-5e-05	-3e-05	0	0.00017	0.00031	1e-05	0.00023	6
23470	6e-05	-5e-05	-3e-05	0	0.00017	0.00031	1e-05	0.00023	6
23471	6e-05	-5e-05	-3e-05	0	0.00017	0.00031	1e-05	0.00023	6
23472	6e-05	-5e-05	-3e-05	0	0.00017	0.00031	1e-05	0.00023	6
23473	6e-05	-5e-05	-3e-05	0	0.00017	0.00031	1e-05	0.00023	6
23474	6e-05	-5e-05	-3e-05	0	0.00017	0.00031	1e-05	0.00023	6
23475	6e-05	-5e-05	-3e-05	0	0.00017	0.00031	1e-05	0.00023	6
23476	-8e-05	0	2e-05	-1e-05	1e-05	-0.00049	-0.00011	-0.00017	6
23477	-8e-05	0	2e-05	-1e-05	1e-05	-0.00049	-0.00011	-0.00017	6
23478	6e-05	-6e-05	-1e-05	-2e-05	-0.00018	-0.00012	-9e-05	0.00069	6
23479	6e-05	-6e-05	-1e-05	-2e-05	-0.00018	-0.00012	-9e-05	0.00069	6
23480	6e-05	-6e-05	-1e-05	-2e-05	-0.00018	-0.00012	-9e-05	0.00069	6
23481	6e-05	-6e-05	-1e-05	-2e-05	-0.00018	-0.00012	-9e-05	0.00069	6
23482	6e-05	-6e-05	-1e-05	-2e-05	-0.00018	-0.00012	-9e-05	0.00069	6
23483	6e-05	-6e-05	-1e-05	-2e-05	-0.00018	-0.00012	-9e-05	0.00069	6
23484	6e-05	-6e-05	-1e-05	-2e-05	-0.00018	-0.00012	-9e-05	0.00069	6
23485	6e-05	-6e-05	-1e-05	-2e-05	-0.00018	-0.00012	-9e-05	0.00069	6
23486	6e-05	-6e-05	-1e-05	-2e-05	-0.00018	-0.00012	-9e-05	0.00069	6
23488	6e-05	-6e-05	-1e-05	-2e-05	-0.00018	-0.00012	-9e-05	0.00069	6
23489	6e-05	-6e-05	-1e-05	-2e-05	-0.00018	-0.00012	-9e-05	0.00069	6
23490	6e-05	-6e-05	-1e-05	-2e-05	-0.00018	-0.00012	-9e-05	0.00069	6
23492	6e-05	-6e-05	-1e-05	-2e-05	-0.00018	-0.00012	-9e-05	0.00069	6
23493	6e-05	-6e-05	-1e-05	-2e-05	-0.00018	-0.00012	-9e-05	0.00069	6
23494	6e-05	-6e-05	-1e-05	-2e-05	-0.00018	-0.00012	-9e-05	0.00069	6
23495	6e-05	-6e-05	-1e-05	-2e-05	-0.00018	-0.00012	-9e-05	0.00069	6
23496	6e-05	-6e-05	-1e-05	-2e-05	-0.00018	-0.00012	-9e-05	0.00069	6
23497	6e-05	-6e-05	-1e-05	-2e-05	-0.00018	-0.00012	-9e-05	0.00069	6
23498	6e-05	-6e-05	-1e-05	-2e-05	-0.00018	-0.00012	-9e-05	0.00069	6
23499	1e-05	4e-05	6e-05	8e-05	-0.0001	0	-0.00032	-0.00034	6
23500	-6e-05	-4e-05	-4e-05	-0.00013	-9e-05	-0.00026	-9e-05	-0.00015	6
23501	-6e-05	-4e-05	-4e-05	-0.00013	-9e-05	-0.00026	-9e-05	-0.00015	6
23502	-6e-05	-4e-05	-4e-05	-0.00013	-9e-05	-0.00026	-9e-05	-0.00015	6
23503	-6e-05	-4e-05	-4e-05	-0.00013	-9e-05	-0.00026	-9e-05	-0.00015	6
23504	-6e-05	-4e-05	-4e-05	-0.00013	-9e-05	-0.00026	-9e-05	-0.00015	6
23505	-6e-05	-4e-05	-4e-05	-0.00013	-9e-05	-0.00026	-9e-05	-0.00015	6
23506	-6e-05	-4e-05	-4e-05	-0.00013	-9e-05	-0.00026	-9e-05	-0.00015	6
23507	-6e-05	-4e-05	-4e-05	-0.00013	-9e-05	-0.00026	-9e-05	-0.00015	6
23508	-6e-05	-4e-05	-4e-05	-0.00013	-9e-05	-0.00026	-9e-05	-0.00015	6
23509	-6e-05	-4e-05	-4e-05	-0.00013	-9e-05	-0.00026	-9e-05	-0.00015	6
23510	-6e-05	-4e-05	-4e-05	-0.00013	-9e-05	-0.00026	-9e-05	-0.00015	6
23511	-6e-05	-4e-05	-4e-05	-0.00013	-9e-05	-0.00026	-9e-05	-0.00015	6
23512	-6e-05	-4e-05	-4e-05	-0.00013	-9e-05	-0.00026	-9e-05	-0.00015	6
23513	-6e-05	-4e-05	-4e-05	-0.00013	-9e-05	-0.00026	-9e-05	-0.00015	6
23514	-6e-05	-4e-05	-4e-05	-0.00013	-9e-05	-0.00026	-9e-05	-0.00015	6
23515	-6e-05	-4e-05	-4e-05	-0.00013	-9e-05	-0.00026	-9e-05	-0.00015	6
23516	-6e-05	-4e-05	-4e-05	-0.00013	-9e-05	-0.00026	-9e-05	-0.00015	6
23517	-6e-05	-4e-05	-4e-05	-0.00013	-9e-05	-0.00026	-9e-05	-0.00015	6
23518	-6e-05	-4e-05	-4e-05	-0.00013	-9e-05	-0.00026	-9e-05	-0.00015	6
23519	-6e-05	-4e-05	-4e-05	-0.00013	-9e-05	-0.00026	-9e-05	-0.00015	6
23520	-6e-05	-4e-05	-4e-05	-0.00013	-9e-05	-0.00026	-9e-05	-0.00015	6
23521	-0.00015	1e-05	-0.00011	-1e-05	0.00029	0.00043	9e-05	0.00037	6
23522	-0.00015	1e-05	-0.00011	-1e-05	0.00029	0.00043	9e-05	0.00037	6
23523	-0.00029	0	-0.0001	-7e-05	4e-05	-0.00016	-0.00011	0.00024	6
23524	-0.00029	0	-0.0001	-7e-05	4e-05	-0.00016	-0.00011	0.00024	6
23525	-0.00029	0	-0.0001	-7e-05	4e-05	-0.00016	-0.00011	0.00024	6
23526	-0.00029	0	-0.0001	-7e-05	4e-05	-0.00016	-0.00011	0.00024	6
23527	-0.00029	0	-0.0001	-7e-05	4e-05	-0.00016	-0.00011	0.00024	6
23528	-0.00029	0	-0.0001	-7e-05	4e-05	-0.00016	-0.00011	0.00024	6
23529	-0.00029	0	-0.0001	-7e-05	4e-05	-0.00016	-0.00011	0.00024	6
23530	-0.00029	0	-0.0001	-7e-05	4e-05	-0.00016	-0.00011	0.00024	6
23531	-0.00029	0	-0.0001	-7e-05	4e-05	-0.00016	-0.00011	0.00024	6
23532	-0.00029	0	-0.0001	-7e-05	4e-05	-0.00016	-0.00011	0.00024	6
23533	-0.00029	0	-0.0001	-7e-05	4e-05	-0.00016	-0.00011	0.00024	6
23534	-0.00029	0	-0.0001	-7e-05	4e-05	-0.00016	-0.00011	0.00024	6
23535	-0.00029	0	-0.0001	-7e-05	4e-05	-0.00016	-0.00011	0.00024	6
23537	-0.00029	0	-0.0001	-7e-05	4e-05	-0.00016	-0.00011	0.00024	6
23539	-5e-05	-0.00022	-0.00011	-4e-05	-0.00014	-3e-05	-6e-05	0	6
23541	-5e-05	-0.00022	-0.00011	-4e-05	-0.00014	-3e-05	-6e-05	0	6
23542	-5e-05	-0.00022	-0.00011	-4e-05	-0.00014	-3e-05	-6e-05	0	6
23543	-5e-05	-0.00022	-0.00011	-4e-05	-0.00014	-3e-05	-6e-05	0	6
23544	-5e-05	-0.00022	-0.00011	-4e-05	-0.00014	-3e-05	-6e-05	0	6
23545	-5e-05	-0.00022	-0.00011	-4e-05	-0.00014	-3e-05	-6e-05	0	6
23546	-5e-05	-0.00022	-0.00011	-4e-05	-0.00014	-3e-05	-6e-05	0	6
23547	-5e-05	-0.00022	-0.00011	-4e-05	-0.00014	-3e-05	-6e-05	0	6
23548	-5e-05	-0.00022	-0.00011	-4e-05	-0.00014	-3e-05	-6e-05	0	6
23549	-5e-05	-0.00022	-0.00011	-4e-05	-0.00014	-3e-05	-6e-05	0	6
23550	-5e-05	-0.00022	-0.00011	-4e-05	-0.00014	-3e-05	-6e-05	0	6
23551	-5e-05	-0.00022	-0.00011	-4e-05	-0.00014	-3e-05	-6e-05	0	6
23552	-5e-05	-0.00022	-0.00011	-4e-05	-0.00014	-3e-05	-6e-05	0	6
23553	-5e-05	-0.00022	-0.00011	-4e-05	-0.00014	-3e-05	-6e-05	0	6
23554	-5e-05	-0.00022	-0.00011	-4e-05	-0.00014	-3e-05	-6e-05	0	6
23555	-5e-05	-0.00022	-0.00011	-4e-05	-0.00014	-3e-05	-6e-05	0	6
23556	-5e-05	-0.00022	-0.00011	-4e-05	-0.00014	-3e-05	-6e-05	0	6
23557	-5e-05	-0.00022	-0.00011	-4e-05	-0.00014	-3e-05	-6e-05	0	6
23558	-5e-05	-0.00022	-0.00011	-4e-05	-0.00014	-3e-05	-6e-05	0	6
23559	4e-05	6e-05	2e-05	3e-05	0.00029	9e-05	0.00016	-0.00016	6
23560	4e-05	6e-05	2e-05	3e-05	0.00029	9e-05	0.00016	-0.00016	6
23561	1e-05	6e-05	8e-05	0.00011	0.00027	-0.00013	-9e-05	0.00012	6
23562	1e-05	6e-05	8e-05	0.00011	0.00027	-0.00013	-9e-05	0.00012	6
23563	1e-05	6e-05	8e-05	0.00011	0.00027	-0.00013	-9e-05	0.00012	6
23564	1e-05	6e-05	8e-05	0.00011	0.00027	-0.00013	-9e-05	0.00012	6
23565	1e-05	6e-05	8e-05	0.00011	0.00027	-0.00013	-9e-05	0.00012	6
23566	1e-05	6e-05	8e-05	0.00011	0.00027	-0.00013	-9e-05	0.00012	6
23567	1e-05	6e-05	8e-05	0.00011	0.00027	-0.00013	-9e-05	0.00012	6
23568	1e-05	6e-05	8e-05	0.00011	0.00027	-0.00013	-9e-05	0.00012	6
23569	1e-05	6e-05	8e-05	0.00011	0.00027	-0.00013	-9e-05	0.00012	6
23570	1e-05	6e-05	8e-05	0.00011	0.00027	-0.00013	-9e-05	0.00012	6
23571	1e-05	6e-05	8e-05	0.00011	0.00027	-0.00013	-9e-05	0.00012	6
23572	1e-05	6e-05	8e-05	0.00011	0.00027	-0.00013	-9e-05	0.00012	6
23573	1e-05	6e-05	8e-05	0.00011	0.00027	-0.00013	-9e-05	0.00012	6
23574	1e-05	6e-05	8e-05	0.00011	0.00027	-0.00013	-9e-05	0.00012	6
23575	1e-05	6e-05	8e-05	0.00011	0.00027	-0.00013	-9e-05	0.00012	6
23576	1e-05	6e-05	8e-05	0.00011	0.00027	-0.00013	-9e-05	0.00012	6
23577	1e-05	6e-05	8e-05	0.00011	0.00027	-0.00013	-9e-05	0.00012	6
23578	1e-05	6e-05	8e-05	0.00011	0.00027	-0.00013	-9e-05	0.00012	6
23579	1e-05	6e-05	8e-05	0.00011	0.00027	-0.00013	-9e-05	0.00012	6
23580	1e-05	6e-05	8e-05	0.00011	0.00027	-0.00013	-9e-05	0.00012	6
23581	-2e-05	-2e-05	-1e-05	-4e-05	-0.00038	-0.00031	-8e-05	-0.00036	6
23582	-2e-05	-2e-05	-1e-05	-4e-05	-0.00038	-0.00031	-8e-05	-0.00036	6
23583	-0.00016	4e-05	1e-05	-7e-05	-0.00023	6e-05	8e-05	-0.00022	6
23584	-0.00016	4e-05	1e-05	-7e-05	-0.00023	6e-05	8e-05	-0.00022	6
23585	-0.00016	4e-05	1e-05	-7e-05	-0.00023	6e-05	8e-05	-0.00022	6
23586	-0.00016	4e-05	1e-05	-7e-05	-0.00023	6e-05	8e-05	-0.00022	6
23588	-0.00016	4e-05	1e-05	-7e-05	-0.00023	6e-05	8e-05	-0.00022	6
23589	-0.00016	4e-05	1e-05	-7e-05	-0.00023	6e-05	8e-05	-0.00022	6
23590	-0.00016	4e-05	1e-05	-7e-05	-0.00023	6e-05	8e-05	-0.00022	6
23591	-0.00016	4e-05	1e-05	-7e-05	-0.00023	6e-05	8e-05	-0.00022	6
23592	-0.00016	4e-05	1e-05	-7e-05	-0.00023	6e-05	8e-05	-0.00022	6
23593	-0.00016	4e-05	1e-05	-7e-05	-0.00023	6e-05	8e-05	-0.00022	6
23594	-0.00016	4e-05	1e-05	-7e-05	-0.00023	6e-05	8e-05	-0.00022	6
23595	-0.00016	4e-05	1e-05	-7e-05	-0.00023	6e-05	8e-05	-0.00022	6
23596	6e-05	-1e-05	1e-05	1e-05	-0.00033	0.00013	0.00015	0.00029	6
23597	6e-05	-1e-05	1e-05	1e-05	-0.00033	0.00013	0.00015	0.00029	6
23598	5e-05	6e-05	-1e-05	3e-05	3e-05	-0.00011	-0.0003	-0.0001	6
23599	5e-05	6e-05	-1e-05	3e-05	3e-05	-0.00011	-0.0003	-0.0001	6
23600	5e-05	6e-05	-1e-05	3e-05	3e-05	-0.00011	-0.0003	-0.0001	6
23601	5e-05	6e-05	-1e-05	3e-05	3e-05	-0.00011	-0.0003	-0.0001	6
23602	5e-05	6e-05	-1e-05	3e-05	3e-05	-0.00011	-0.0003	-0.0001	6
23603	5e-05	6e-05	-1e-05	3e-05	3e-05	-0.00011	-0.0003	-0.0001	6
23604	5e-05	6e-05	-1e-05	3e-05	3e-05	-0.00011	-0.0003	-0.0001	6
23605	5e-05	6e-05	-1e-05	3e-05	3e-05	-0.00011	-0.0003	-0.0001	6
23606	5e-05	6e-05	-1e-05	3e-05	3e-05	-0.00011	-0.0003	-0.0001	6
23607	5e-05	6e-05	-1e-05	3e-05	3e-05	-0.00011	-0.0003	-0.0001	6
23608	5e-05	6e-05	-1e-05	3e-05	3e-05	-0.00011	-0.0003	-0.0001	6
23609	5e-05	6e-05	-1e-05	3e-05	3e-05	-0.00011	-0.0003	-0.0001	6
23610	5e-05	6e-05	-1e-05	3e-05	3e-05	-0.00011	-0.0003	-0.0001	6
23611	5e-05	6e-05	-1e-05	3e-05	3e-05	-0.00011	-0.0003	-0.0001	6
23612	5e-05	6e-05	-1e-05	3e-05	3e-05	-0.00011	-0.0003	-0.0001	6
23613	5e-05	6e-05	-1e-05	3e-05	3e-05	-0.00011	-0.0003	-0.0001	6
23614	5e-05	6e-05	-1e-05	3e-05	3e-05	-0.00011	-0.0003	-0.0001	6
23615	5e-05	6e-05	-1e-05	3e-05	3e-05	-0.00011	-0.0003	-0.0001	6
23616	5e-05	6e-05	-1e-05	3e-05	3e-05	-0.00011	-0.0003	-0.0001	6
23617	5e-05	6e-05	-1e-05	3e-05	3e-05	-0.00011	-0.0003	-0.0001	6
23618	5e-05	6e-05	-1e-05	3e-05	3e-05	-0.00011	-0.0003	-0.0001	6
23619	4e-05	0	-2e-05	-0.00015	-0.0003	-0.00028	6e-05	-0.00013	6
23620	9e-05	6e-05	-2e-05	2e-05	0.00045	-0.00011	-0.0002	8e-05	6
23621	-0.00035	-8e-05	4e-05	8e-05	-0.00041	-0.00013	7e-05	0.0001	6
23622	-0.00035	-8e-05	4e-05	8e-05	-0.00041	-0.00013	7e-05	0.0001	6
23623	-0.00035	-8e-05	4e-05	8e-05	-0.00041	-0.00013	7e-05	0.0001	6
23624	-0.00035	-8e-05	4e-05	8e-05	-0.00041	-0.00013	7e-05	0.0001	6
23625	-0.00035	-8e-05	4e-05	8e-05	-0.00041	-0.00013	7e-05	0.0001	6
23626	-0.00035	-8e-05	4e-05	8e-05	-0.00041	-0.00013	7e-05	0.0001	6
23627	-0.00035	-8e-05	4e-05	8e-05	-0.00041	-0.00013	7e-05	0.0001	6
23628	-0.00035	-8e-05	4e-05	8e-05	-0.00041	-0.00013	7e-05	0.0001	6
23629	-0.00035	-8e-05	4e-05	8e-05	-0.00041	-0.00013	7e-05	0.0001	6
23630	-0.00035	-8e-05	4e-05	8e-05	-0.00041	-0.00013	7e-05	0.0001	6
23631	-0.00035	-8e-05	4e-05	8e-05	-0.00041	-0.00013	7e-05	0.0001	6
23632	-0.00035	-8e-05	4e-05	8e-05	-0.00041	-0.00013	7e-05	0.0001	6
23633	-0.00035	-8e-05	4e-05	8e-05	-0.00041	-0.00013	7e-05	0.0001	6
23634	-0.00035	-8e-05	4e-05	8e-05	-0.00041	-0.00013	7e-05	0.0001	6
23635	-0.00035	-8e-05	4e-05	8e-05	-0.00041	-0.00013	7e-05	0.0001	6
23636	-0.00035	-8e-05	4e-05	8e-05	-0.00041	-0.00013	7e-05	0.0001	6
23638	-0.00035	-8e-05	4e-05	8e-05	-0.00041	-0.00013	7e-05	0.0001	6
23639	-0.00035	-8e-05	4e-05	8e-05	-0.00041	-0.00013	7e-05	0.0001	6
23640	-0.00035	-8e-05	4e-05	8e-05	-0.00041	-0.00013	7e-05	0.0001	6
23641	-0.00022	-4e-05	-1e-05	0	-3e-05	-0.00067	-0.00017	5e-05	6
23642	-0.00022	-4e-05	-1e-05	0	-3e-05	-0.00067	-0.00017	5e-05	6
23643	3e-05	-0.00018	4e-05	5e-05	-0.00041	-0.00023	6e-05	-0.00016	6
23644	3e-05	-0.00018	4e-05	5e-05	-0.00041	-0.00023	6e-05	-0.00016	6
23645	3e-05	-0.00018	4e-05	5e-05	-0.00041	-0.00023	6e-05	-0.00016	6
23646	3e-05	-0.00018	4e-05	5e-05	-0.00041	-0.00023	6e-05	-0.00016	6
23647	3e-05	-0.00018	4e-05	5e-05	-0.00041	-0.00023	6e-05	-0.00016	6
23648	3e-05	-0.00018	4e-05	5e-05	-0.00041	-0.00023	6e-05	-0.00016	6
23649	3e-05	-0.00018	4e-05	5e-05	-0.00041	-0.00023	6e-05	-0.00016	6
23650	3e-05	-0.00018	4e-05	5e-05	-0.00041	-0.00023	6e-05	-0.00016	6
23651	3e-05	-0.00018	4e-05	5e-05	-0.00041	-0.00023	6e-05	-0.00016	6
23652	3e-05	-0.00018	4e-05	5e-05	-0.00041	-0.00023	6e-05	-0.00016	6
23653	3e-05	-0.00018	4e-05	5e-05	-0.00041	-0.00023	6e-05	-0.00016	6
23654	3e-05	-0.00018	4e-05	5e-05	-0.00041	-0.00023	6e-05	-0.00016	6
23655	3e-05	-0.00018	4e-05	5e-05	-0.00041	-0.00023	6e-05	-0.00016	6
23656	-0.00011	0	-5e-05	-2e-05	-0.0002	0.00035	0	-0.00041	6
23657	-0.00011	0	-5e-05	-2e-05	-0.0002	0.00035	0	-0.00041	6
23658	-0.00011	0	-5e-05	-2e-05	-0.0002	0.00035	0	-0.00041	6
23659	-0.00011	0	-5e-05	-2e-05	-0.0002	0.00035	0	-0.00041	6
23660	-0.00011	0	-5e-05	-2e-05	-0.0002	0.00035	0	-0.00041	6
23661	-0.00011	0	-5e-05	-2e-05	-0.0002	0.00035	0	-0.00041	6
23662	4e-05	1e-05	-4e-05	-0.00016	-6e-05	1e-05	0.00012	0.00035	6
23663	0.00017	4e-05	5e-05	-7e-05	-0.00016	-0.00045	6e-05	6e-05	6
23664	0.00017	4e-05	5e-05	-7e-05	-0.00016	-0.00045	6e-05	6e-05	6
23665	0.00017	4e-05	5e-05	-7e-05	-0.00016	-0.00045	6e-05	6e-05	6
23666	0.00017	4e-05	5e-05	-7e-05	-0.00016	-0.00045	6e-05	6e-05	6
23667	0.00017	4e-05	5e-05	-7e-05	-0.00016	-0.00045	6e-05	6e-05	6
23668	0.00017	4e-05	5e-05	-7e-05	-0.00016	-0.00045	6e-05	6e-05	6
23669	0.00017	4e-05	5e-05	-7e-05	-0.00016	-0.00045	6e-05	6e-05	6
23670	0.00017	4e-05	5e-05	-7e-05	-0.00016	-0.00045	6e-05	6e-05	6
23671	0.00017	4e-05	5e-05	-7e-05	-0.00016	-0.00045	6e-05	6e-05	6
23672	0.00017	4e-05	5e-05	-7e-05	-0.00016	-0.00045	6e-05	6e-05	6
23673	0.00017	4e-05	5e-05	-7e-05	-0.00016	-0.00045	6e-05	6e-05	6
23674	0.00017	4e-05	5e-05	-7e-05	-0.00016	-0.00045	6e-05	6e-05	6
23675	0.00017	4e-05	5e-05	-7e-05	-0.00016	-0.00045	6e-05	6e-05	6
23676	0.00017	4e-05	5e-05	-7e-05	-0.00016	-0.00045	6e-05	6e-05	6
23677	0.00017	4e-05	5e-05	-7e-05	-0.00016	-0.00045	6e-05	6e-05	6
23678	8e-05	3e-05	-1e-05	-9e-05	-0.00023	-0.00027	-6e-05	0.00027	6
23679	8e-05	3e-05	-1e-05	-9e-05	-0.00023	-0.00027	-6e-05	0.00027	6
23680	-8e-05	-1e-05	-5e-05	-7e-05	-0.0002	-9e-05	-0.00015	-0.00023	6
23681	-8e-05	-1e-05	-5e-05	-7e-05	-0.0002	-9e-05	-0.00015	-0.00023	6
23682	-8e-05	-1e-05	-5e-05	-7e-05	-0.0002	-9e-05	-0.00015	-0.00023	6
23683	-8e-05	-1e-05	-5e-05	-7e-05	-0.0002	-9e-05	-0.00015	-0.00023	6
23684	-8e-05	-1e-05	-5e-05	-7e-05	-0.0002	-9e-05	-0.00015	-0.00023	6
23685	-8e-05	-1e-05	-5e-05	-7e-05	-0.0002	-9e-05	-0.00015	-0.00023	6
23686	-8e-05	-1e-05	-5e-05	-7e-05	-0.0002	-9e-05	-0.00015	-0.00023	6
23688	-8e-05	-1e-05	-5e-05	-7e-05	-0.0002	-9e-05	-0.00015	-0.00023	6
23689	-8e-05	-1e-05	-5e-05	-7e-05	-0.0002	-9e-05	-0.00015	-0.00023	6
23690	-8e-05	-1e-05	-5e-05	-7e-05	-0.0002	-9e-05	-0.00015	-0.00023	6
23691	-8e-05	-1e-05	-5e-05	-7e-05	-0.0002	-9e-05	-0.00015	-0.00023	6
23692	-8e-05	-1e-05	-5e-05	-7e-05	-0.0002	-9e-05	-0.00015	-0.00023	6
23693	-8e-05	-1e-05	-5e-05	-7e-05	-0.0002	-9e-05	-0.00015	-0.00023	6
23694	-8e-05	-1e-05	-5e-05	-7e-05	-0.0002	-9e-05	-0.00015	-0.00023	6
23695	-8e-05	-1e-05	-5e-05	-7e-05	-0.0002	-9e-05	-0.00015	-0.00023	6
23696	-8e-05	-1e-05	-5e-05	-7e-05	-0.0002	-9e-05	-0.00015	-0.00023	6
23697	-8e-05	-1e-05	-5e-05	-7e-05	-0.0002	-9e-05	-0.00015	-0.00023	6
23698	-8e-05	-1e-05	-5e-05	-7e-05	-0.0002	-9e-05	-0.00015	-0.00023	6
23699	-8e-05	-1e-05	-5e-05	-7e-05	-0.0002	-9e-05	-0.00015	-0.00023	6
23700	-8e-05	-1e-05	-5e-05	-7e-05	-0.0002	-9e-05	-0.00015	-0.00023	6
23701	0.00013	-4e-05	-3e-05	-0.0002	0.00044	0.00044	0.00023	0.0008	6
23702	-5e-05	-3e-05	-2e-05	-4e-05	-0.00065	-0.00025	-5e-05	0.00011	6
23704	-5e-05	-3e-05	-2e-05	-4e-05	-0.00065	-0.00025	-5e-05	0.00011	6
23705	-5e-05	-3e-05	-2e-05	-4e-05	-0.00065	-0.00025	-5e-05	0.00011	6
23706	-5e-05	-3e-05	-2e-05	-4e-05	-0.00065	-0.00025	-5e-05	0.00011	6
23707	-5e-05	-3e-05	-2e-05	-4e-05	-0.00065	-0.00025	-5e-05	0.00011	6
23708	-5e-05	-3e-05	-2e-05	-4e-05	-0.00065	-0.00025	-5e-05	0.00011	6
23709	-5e-05	-3e-05	-2e-05	-4e-05	-0.00065	-0.00025	-5e-05	0.00011	6
23710	-5e-05	-3e-05	-2e-05	-4e-05	-0.00065	-0.00025	-5e-05	0.00011	6
23711	-5e-05	-3e-05	-2e-05	-4e-05	-0.00065	-0.00025	-5e-05	0.00011	6
23712	-5e-05	-3e-05	-2e-05	-4e-05	-0.00065	-0.00025	-5e-05	0.00011	6
23713	-5e-05	-3e-05	-2e-05	-4e-05	-0.00065	-0.00025	-5e-05	0.00011	6
23714	-5e-05	-3e-05	-2e-05	-4e-05	-0.00065	-0.00025	-5e-05	0.00011	6
23715	-5e-05	-3e-05	-2e-05	-4e-05	-0.00065	-0.00025	-5e-05	0.00011	6
23716	-6e-05	-7e-05	0	3e-05	0.00013	-0.00037	-4e-05	-0.00015	6
23717	-6e-05	-7e-05	0	3e-05	0.00013	-0.00037	-4e-05	-0.00015	6
23718	-6e-05	-7e-05	0	3e-05	0.00013	-0.00037	-4e-05	-0.00015	6
23719	-6e-05	-7e-05	0	3e-05	0.00013	-0.00037	-4e-05	-0.00015	6
23720	-6e-05	-7e-05	0	3e-05	0.00013	-0.00037	-4e-05	-0.00015	6
23721	-6e-05	-7e-05	0	3e-05	0.00013	-0.00037	-4e-05	-0.00015	6
23722	-8e-05	6e-05	-2e-05	3e-05	0.00028	-0.0002	-0.0001	-7e-05	6
23723	-8e-05	6e-05	-2e-05	3e-05	0.00028	-0.0002	-0.0001	-7e-05	6
23724	-8e-05	6e-05	-2e-05	3e-05	0.00028	-0.0002	-0.0001	-7e-05	6
23725	-8e-05	6e-05	-2e-05	3e-05	0.00028	-0.0002	-0.0001	-7e-05	6
23726	-8e-05	6e-05	-2e-05	3e-05	0.00028	-0.0002	-0.0001	-7e-05	6
23727	-8e-05	6e-05	-2e-05	3e-05	0.00028	-0.0002	-0.0001	-7e-05	6
23728	-8e-05	6e-05	-2e-05	3e-05	0.00028	-0.0002	-0.0001	-7e-05	6
23729	-8e-05	6e-05	-2e-05	3e-05	0.00028	-0.0002	-0.0001	-7e-05	6
23730	-8e-05	6e-05	-2e-05	3e-05	0.00028	-0.0002	-0.0001	-7e-05	6
23731	-8e-05	6e-05	-2e-05	3e-05	0.00028	-0.0002	-0.0001	-7e-05	6
23732	-8e-05	6e-05	-2e-05	3e-05	0.00028	-0.0002	-0.0001	-7e-05	6
23733	-8e-05	6e-05	-2e-05	3e-05	0.00028	-0.0002	-0.0001	-7e-05	6
23734	-8e-05	6e-05	-2e-05	3e-05	0.00028	-0.0002	-0.0001	-7e-05	6
23735	-8e-05	6e-05	-2e-05	3e-05	0.00028	-0.0002	-0.0001	-7e-05	6
23736	-8e-05	6e-05	-2e-05	3e-05	0.00028	-0.0002	-0.0001	-7e-05	6
23738	-8e-05	6e-05	-2e-05	3e-05	0.00028	-0.0002	-0.0001	-7e-05	6
23739	7e-05	-2e-05	-3e-05	-5e-05	-0.00019	-0.00034	-1e-05	-0.00016	6
23740	-0.00015	-2e-05	-2e-05	-8e-05	-0.00014	-0.00011	-2e-05	0.00039	6
23741	4e-05	0	1e-05	6e-05	0.00059	6e-05	0.00011	-0.00049	6
23742	4e-05	0	1e-05	6e-05	0.00059	6e-05	0.00011	-0.00049	6
23743	4e-05	0	1e-05	6e-05	0.00059	6e-05	0.00011	-0.00049	6
23744	4e-05	0	1e-05	6e-05	0.00059	6e-05	0.00011	-0.00049	6
23745	4e-05	0	1e-05	6e-05	0.00059	6e-05	0.00011	-0.00049	6
23746	4e-05	0	1e-05	6e-05	0.00059	6e-05	0.00011	-0.00049	6
23747	4e-05	0	1e-05	6e-05	0.00059	6e-05	0.00011	-0.00049	6
23748	4e-05	0	1e-05	6e-05	0.00059	6e-05	0.00011	-0.00049	6
23749	4e-05	0	1e-05	6e-05	0.00059	6e-05	0.00011	-0.00049	6
23750	4e-05	0	1e-05	6e-05	0.00059	6e-05	0.00011	-0.00049	6
23751	4e-05	0	1e-05	6e-05	0.00059	6e-05	0.00011	-0.00049	6
23752	4e-05	0	1e-05	6e-05	0.00059	6e-05	0.00011	-0.00049	6
23753	4e-05	0	1e-05	6e-05	0.00059	6e-05	0.00011	-0.00049	6
23754	4e-05	0	1e-05	6e-05	0.00059	6e-05	0.00011	-0.00049	6
23755	4e-05	0	1e-05	6e-05	0.00059	6e-05	0.00011	-0.00049	6
23756	4e-05	0	1e-05	6e-05	0.00059	6e-05	0.00011	-0.00049	6
23757	4e-05	0	1e-05	6e-05	0.00059	6e-05	0.00011	-0.00049	6
23758	4e-05	0	1e-05	6e-05	0.00059	6e-05	0.00011	-0.00049	6
23759	4e-05	0	1e-05	6e-05	0.00059	6e-05	0.00011	-0.00049	6
23760	4e-05	0	1e-05	6e-05	0.00059	6e-05	0.00011	-0.00049	6
23761	6e-05	-6e-05	-7e-05	-5e-05	0.0002	-0.0001	-0.00038	6e-05	6
23762	0	1e-05	5e-05	0.0001	-0.00014	-0.00089	6e-05	-0.00018	6
23763	-0.00013	5e-05	-7e-05	-0.00015	0.00038	-3e-05	-8e-05	-0.00022	6
23764	-0.00013	5e-05	-7e-05	-0.00015	0.00038	-3e-05	-8e-05	-0.00022	6
23765	-0.00013	5e-05	-7e-05	-0.00015	0.00038	-3e-05	-8e-05	-0.00022	6
23766	-0.00013	5e-05	-7e-05	-0.00015	0.00038	-3e-05	-8e-05	-0.00022	6
23767	-0.00013	5e-05	-7e-05	-0.00015	0.00038	-3e-05	-8e-05	-0.00022	6
23768	-0.00013	5e-05	-7e-05	-0.00015	0.00038	-3e-05	-8e-05	-0.00022	6
23769	-0.00013	5e-05	-7e-05	-0.00015	0.00038	-3e-05	-8e-05	-0.00022	6
23770	-0.00013	5e-05	-7e-05	-0.00015	0.00038	-3e-05	-8e-05	-0.00022	6
23771	-0.00013	5e-05	-7e-05	-0.00015	0.00038	-3e-05	-8e-05	-0.00022	6
23773	-0.00013	5e-05	-7e-05	-0.00015	0.00038	-3e-05	-8e-05	-0.00022	6
23774	-0.00013	5e-05	-7e-05	-0.00015	0.00038	-3e-05	-8e-05	-0.00022	6
23775	-0.00013	5e-05	-7e-05	-0.00015	0.00038	-3e-05	-8e-05	-0.00022	6
23776	0.00042	-9e-05	1e-05	8e-05	-0.00016	5e-05	4e-05	0.00042	6
23777	0.00042	-9e-05	1e-05	8e-05	-0.00016	5e-05	4e-05	0.00042	6
23778	0.00042	-9e-05	1e-05	8e-05	-0.00016	5e-05	4e-05	0.00042	6
23779	0.00042	-9e-05	1e-05	8e-05	-0.00016	5e-05	4e-05	0.00042	6
23780	0.00042	-9e-05	1e-05	8e-05	-0.00016	5e-05	4e-05	0.00042	6
23781	0.00042	-9e-05	1e-05	8e-05	-0.00016	5e-05	4e-05	0.00042	6
23782	-0.00018	6e-05	-4e-05	-2e-05	0	-0.00031	-0.00041	0	6
23783	1e-05	-0.00016	-9e-05	-0.00013	-0.00041	0	8e-05	0.0001	6
23784	1e-05	-0.00016	-9e-05	-0.00013	-0.00041	0	8e-05	0.0001	6
23785	1e-05	-0.00016	-9e-05	-0.00013	-0.00041	0	8e-05	0.0001	6
23786	1e-05	-0.00016	-9e-05	-0.00013	-0.00041	0	8e-05	0.0001	6
23788	1e-05	-0.00016	-9e-05	-0.00013	-0.00041	0	8e-05	0.0001	6
23789	1e-05	-0.00016	-9e-05	-0.00013	-0.00041	0	8e-05	0.0001	6
23790	1e-05	-0.00016	-9e-05	-0.00013	-0.00041	0	8e-05	0.0001	6
23791	1e-05	-0.00016	-9e-05	-0.00013	-0.00041	0	8e-05	0.0001	6
23792	1e-05	-0.00016	-9e-05	-0.00013	-0.00041	0	8e-05	0.0001	6
23793	1e-05	-0.00016	-9e-05	-0.00013	-0.00041	0	8e-05	0.0001	6
23794	1e-05	-0.00016	-9e-05	-0.00013	-0.00041	0	8e-05	0.0001	6
23795	1e-05	-0.00016	-9e-05	-0.00013	-0.00041	0	8e-05	0.0001	6
23796	1e-05	-0.00016	-9e-05	-0.00013	-0.00041	0	8e-05	0.0001	6
23797	1e-05	-0.00016	-9e-05	-0.00013	-0.00041	0	8e-05	0.0001	6
23798	1e-05	-0.00016	-9e-05	-0.00013	-0.00041	0	8e-05	0.0001	6
23799	-0.00011	0.00011	0.00014	0.00027	0.00088	0.0005	-0.00028	-0.00015	6
23800	0.00023	-0.00013	-0.00017	0	-0.00084	0.00023	0.00045	0.0006	6
23801	0.0001	9e-05	6e-05	-6e-05	0.0004	0.00076	-3e-05	-0.0002	6
23802	0.0001	9e-05	6e-05	-6e-05	0.0004	0.00076	-3e-05	-0.0002	6
23803	0.0001	9e-05	6e-05	-6e-05	0.0004	0.00076	-3e-05	-0.0002	6
23804	0.0001	9e-05	6e-05	-6e-05	0.0004	0.00076	-3e-05	-0.0002	6
23805	0.0001	9e-05	6e-05	-6e-05	0.0004	0.00076	-3e-05	-0.0002	6
23806	0.0001	9e-05	6e-05	-6e-05	0.0004	0.00076	-3e-05	-0.0002	6
23807	0.0001	9e-05	6e-05	-6e-05	0.0004	0.00076	-3e-05	-0.0002	6
23808	0.0001	9e-05	6e-05	-6e-05	0.0004	0.00076	-3e-05	-0.0002	6
23809	0.0001	9e-05	6e-05	-6e-05	0.0004	0.00076	-3e-05	-0.0002	6
23810	0.0001	9e-05	6e-05	-6e-05	0.0004	0.00076	-3e-05	-0.0002	6
23811	0.0001	9e-05	6e-05	-6e-05	0.0004	0.00076	-3e-05	-0.0002	6
23812	0.0001	9e-05	6e-05	-6e-05	0.0004	0.00076	-3e-05	-0.0002	6
23813	0.0001	9e-05	6e-05	-6e-05	0.0004	0.00076	-3e-05	-0.0002	6
23814	0.0001	9e-05	6e-05	-6e-05	0.0004	0.00076	-3e-05	-0.0002	6
23815	0.0001	9e-05	6e-05	-6e-05	0.0004	0.00076	-3e-05	-0.0002	6
23816	0.0001	9e-05	6e-05	-6e-05	0.0004	0.00076	-3e-05	-0.0002	6
23817	0.0001	9e-05	6e-05	-6e-05	0.0004	0.00076	-3e-05	-0.0002	6
23818	0.0001	9e-05	6e-05	-6e-05	0.0004	0.00076	-3e-05	-0.0002	6
23819	0.0001	9e-05	6e-05	-6e-05	0.0004	0.00076	-3e-05	-0.0002	6
23820	0.0001	9e-05	6e-05	-6e-05	0.0004	0.00076	-3e-05	-0.0002	6
23821	-0.0001	-8e-05	-3e-05	-2e-05	-0.00031	9e-05	-0.00015	-3e-05	6
23822	-0.0001	-8e-05	-3e-05	-2e-05	-0.00031	9e-05	-0.00015	-3e-05	6
23823	-0.0001	-8e-05	-3e-05	-2e-05	-0.00031	9e-05	-0.00015	-3e-05	6
23824	-0.0001	-8e-05	-3e-05	-2e-05	-0.00031	9e-05	-0.00015	-3e-05	6
23825	-0.0001	-8e-05	-3e-05	-2e-05	-0.00031	9e-05	-0.00015	-3e-05	6
23826	-0.0001	-8e-05	-3e-05	-2e-05	-0.00031	9e-05	-0.00015	-3e-05	6
23827	-0.0001	-8e-05	-3e-05	-2e-05	-0.00031	9e-05	-0.00015	-3e-05	6
23828	-9e-05	3e-05	-1e-05	0.00011	0.00021	0.00048	-8e-05	0.00022	6
23829	-9e-05	3e-05	-1e-05	0.00011	0.00021	0.00048	-8e-05	0.00022	6
23830	-9e-05	3e-05	-1e-05	0.00011	0.00021	0.00048	-8e-05	0.00022	6
23831	-9e-05	3e-05	-1e-05	0.00011	0.00021	0.00048	-8e-05	0.00022	6
23832	-9e-05	3e-05	-1e-05	0.00011	0.00021	0.00048	-8e-05	0.00022	6
23833	-9e-05	3e-05	-1e-05	0.00011	0.00021	0.00048	-8e-05	0.00022	6
23834	-9e-05	3e-05	-1e-05	0.00011	0.00021	0.00048	-8e-05	0.00022	6
23835	6e-05	-1e-05	-4e-05	-5e-05	-1e-05	-0.00071	-0.00023	-8e-05	6
23836	0.0003	-4e-05	-7e-05	-0.00017	-0.00031	0.00071	0.00027	0.00085	6
23838	0.0003	-4e-05	-7e-05	-0.00017	-0.00031	0.00071	0.00027	0.00085	6
23839	0.0003	-4e-05	-7e-05	-0.00017	-0.00031	0.00071	0.00027	0.00085	6
23840	0.0003	-4e-05	-7e-05	-0.00017	-0.00031	0.00071	0.00027	0.00085	6
23841	0.0003	-4e-05	-7e-05	-0.00017	-0.00031	0.00071	0.00027	0.00085	6
23842	-7e-05	5e-05	3e-05	-2e-05	1e-05	-0.00119	-0.00015	-0.00044	6
23843	3e-05	-3e-05	7e-05	0.00029	0.00065	0.00036	-5e-05	0.00039	6
23844	3e-05	-3e-05	7e-05	0.00029	0.00065	0.00036	-5e-05	0.00039	6
23845	3e-05	-3e-05	7e-05	0.00029	0.00065	0.00036	-5e-05	0.00039	6
23846	3e-05	-3e-05	7e-05	0.00029	0.00065	0.00036	-5e-05	0.00039	6
23847	3e-05	-3e-05	7e-05	0.00029	0.00065	0.00036	-5e-05	0.00039	6
23848	3e-05	-3e-05	7e-05	0.00029	0.00065	0.00036	-5e-05	0.00039	6
23849	3e-05	-3e-05	7e-05	0.00029	0.00065	0.00036	-5e-05	0.00039	6
23850	3e-05	-3e-05	7e-05	0.00029	0.00065	0.00036	-5e-05	0.00039	6
23851	3e-05	-3e-05	7e-05	0.00029	0.00065	0.00036	-5e-05	0.00039	6
23852	3e-05	-3e-05	7e-05	0.00029	0.00065	0.00036	-5e-05	0.00039	6
23853	3e-05	-3e-05	7e-05	0.00029	0.00065	0.00036	-5e-05	0.00039	6
23854	3e-05	-3e-05	7e-05	0.00029	0.00065	0.00036	-5e-05	0.00039	6
23855	3e-05	-3e-05	7e-05	0.00029	0.00065	0.00036	-5e-05	0.00039	6
23856	3e-05	-3e-05	7e-05	0.00029	0.00065	0.00036	-5e-05	0.00039	6
23857	3e-05	-3e-05	7e-05	0.00029	0.00065	0.00036	-5e-05	0.00039	6
23858	3e-05	-3e-05	7e-05	0.00029	0.00065	0.00036	-5e-05	0.00039	6
23859	-0.00024	9e-05	3e-05	3e-05	0.00048	-0.00042	-0.00016	-0.00044	6
23860	0.00018	0	0	-8e-05	-0.00024	0.00027	1e-05	0.00024	6
23861	0.00018	0	0	-8e-05	-0.00024	0.00027	1e-05	0.00024	6
23862	0.00018	0	0	-8e-05	-0.00024	0.00027	1e-05	0.00024	6
23863	0.00018	0	0	-8e-05	-0.00024	0.00027	1e-05	0.00024	6
23864	0.00018	0	0	-8e-05	-0.00024	0.00027	1e-05	0.00024	6
23865	0.00018	0	0	-8e-05	-0.00024	0.00027	1e-05	0.00024	6
23867	0.00018	0	0	-8e-05	-0.00024	0.00027	1e-05	0.00024	6
23868	0.00018	0	0	-8e-05	-0.00024	0.00027	1e-05	0.00024	6
23869	0.00018	0	0	-8e-05	-0.00024	0.00027	1e-05	0.00024	6
23870	0.00018	0	0	-8e-05	-0.00024	0.00027	1e-05	0.00024	6
23871	0.00018	0	0	-8e-05	-0.00024	0.00027	1e-05	0.00024	6
23872	0.00018	0	0	-8e-05	-0.00024	0.00027	1e-05	0.00024	6
23873	0.00018	0	0	-8e-05	-0.00024	0.00027	1e-05	0.00024	6
23874	0.00018	0	0	-8e-05	-0.00024	0.00027	1e-05	0.00024	6
23875	0.00018	0	0	-8e-05	-0.00024	0.00027	1e-05	0.00024	6
23876	0.00018	0	0	-8e-05	-0.00024	0.00027	1e-05	0.00024	6
23877	0.00018	0	0	-8e-05	-0.00024	0.00027	1e-05	0.00024	6
23878	0.00018	0	0	-8e-05	-0.00024	0.00027	1e-05	0.00024	6
23879	0.00018	0	0	-8e-05	-0.00024	0.00027	1e-05	0.00024	6
23880	0.00018	0	0	-8e-05	-0.00024	0.00027	1e-05	0.00024	6
23881	-0.00013	-5e-05	-7e-05	-7e-05	-0.00014	-6e-05	2e-05	-0.00055	6
23882	-0.00013	-5e-05	-7e-05	-7e-05	-0.00014	-6e-05	2e-05	-0.00055	6
23883	0.00027	-0.00019	-2e-05	4e-05	-0.00038	-0.00026	-0.00033	-0.00043	6
23884	0.00027	-0.00019	-2e-05	4e-05	-0.00038	-0.00026	-0.00033	-0.00043	6
23885	0.00027	-0.00019	-2e-05	4e-05	-0.00038	-0.00026	-0.00033	-0.00043	6
23886	0.00027	-0.00019	-2e-05	4e-05	-0.00038	-0.00026	-0.00033	-0.00043	6
23888	0.00027	-0.00019	-2e-05	4e-05	-0.00038	-0.00026	-0.00033	-0.00043	6
23889	0.00027	-0.00019	-2e-05	4e-05	-0.00038	-0.00026	-0.00033	-0.00043	6
23890	0.00027	-0.00019	-2e-05	4e-05	-0.00038	-0.00026	-0.00033	-0.00043	6
23891	0.00027	-0.00019	-2e-05	4e-05	-0.00038	-0.00026	-0.00033	-0.00043	6
23892	0.00027	-0.00019	-2e-05	4e-05	-0.00038	-0.00026	-0.00033	-0.00043	6
23893	0.00027	-0.00019	-2e-05	4e-05	-0.00038	-0.00026	-0.00033	-0.00043	6
23894	0.00027	-0.00019	-2e-05	4e-05	-0.00038	-0.00026	-0.00033	-0.00043	6
23895	0.00027	-0.00019	-2e-05	4e-05	-0.00038	-0.00026	-0.00033	-0.00043	6
23896	-0.00014	1e-05	-7e-05	-9e-05	-0.00033	0.00043	0.00016	-0.00081	6
23897	-0.00014	1e-05	-7e-05	-9e-05	-0.00033	0.00043	0.00016	-0.00081	6
23898	-0.00014	1e-05	-7e-05	-9e-05	-0.00033	0.00043	0.00016	-0.00081	6
23899	-0.00014	1e-05	-7e-05	-9e-05	-0.00033	0.00043	0.00016	-0.00081	6
23900	-0.00014	1e-05	-7e-05	-9e-05	-0.00033	0.00043	0.00016	-0.00081	6
23901	-0.00014	1e-05	-7e-05	-9e-05	-0.00033	0.00043	0.00016	-0.00081	6
23902	-5e-05	2e-05	-0.0001	-3e-05	0.00044	-0.00029	-9e-05	0.00016	6
23903	-5e-05	2e-05	-0.0001	-3e-05	0.00044	-0.00029	-9e-05	0.00016	6
23904	-5e-05	2e-05	-0.0001	-3e-05	0.00044	-0.00029	-9e-05	0.00016	6
23905	-5e-05	2e-05	-0.0001	-3e-05	0.00044	-0.00029	-9e-05	0.00016	6
23906	-5e-05	2e-05	-0.0001	-3e-05	0.00044	-0.00029	-9e-05	0.00016	6
23907	-5e-05	2e-05	-0.0001	-3e-05	0.00044	-0.00029	-9e-05	0.00016	6
23908	-5e-05	2e-05	-0.0001	-3e-05	0.00044	-0.00029	-9e-05	0.00016	6
23909	-5e-05	2e-05	-0.0001	-3e-05	0.00044	-0.00029	-9e-05	0.00016	6
23910	-5e-05	2e-05	-0.0001	-3e-05	0.00044	-0.00029	-9e-05	0.00016	6
23911	-5e-05	2e-05	-0.0001	-3e-05	0.00044	-0.00029	-9e-05	0.00016	6
23912	-5e-05	2e-05	-0.0001	-3e-05	0.00044	-0.00029	-9e-05	0.00016	6
23913	-5e-05	2e-05	-0.0001	-3e-05	0.00044	-0.00029	-9e-05	0.00016	6
23914	-5e-05	2e-05	-0.0001	-3e-05	0.00044	-0.00029	-9e-05	0.00016	6
23915	-5e-05	2e-05	-0.0001	-3e-05	0.00044	-0.00029	-9e-05	0.00016	6
23916	-5e-05	2e-05	-0.0001	-3e-05	0.00044	-0.00029	-9e-05	0.00016	6
23917	-5e-05	2e-05	-0.0001	-3e-05	0.00044	-0.00029	-9e-05	0.00016	6
23918	-5e-05	2e-05	-0.0001	-3e-05	0.00044	-0.00029	-9e-05	0.00016	6
23919	0.00012	-2e-05	1e-05	-2e-05	3e-05	-0.00024	-0.00017	0.00013	6
23920	7e-05	1e-05	-3e-05	-2e-05	-7e-05	9e-05	3e-05	0.0004	6
23921	2e-05	6e-05	3e-05	-7e-05	-0.00028	-0.0003	0.00026	9e-05	6
23922	2e-05	6e-05	3e-05	-7e-05	-0.00028	-0.0003	0.00026	9e-05	6
23923	2e-05	6e-05	3e-05	-7e-05	-0.00028	-0.0003	0.00026	9e-05	6
23924	2e-05	6e-05	3e-05	-7e-05	-0.00028	-0.0003	0.00026	9e-05	6
23925	2e-05	6e-05	3e-05	-7e-05	-0.00028	-0.0003	0.00026	9e-05	6
23926	2e-05	6e-05	3e-05	-7e-05	-0.00028	-0.0003	0.00026	9e-05	6
23927	2e-05	6e-05	3e-05	-7e-05	-0.00028	-0.0003	0.00026	9e-05	6
23928	2e-05	6e-05	3e-05	-7e-05	-0.00028	-0.0003	0.00026	9e-05	6
23929	2e-05	6e-05	3e-05	-7e-05	-0.00028	-0.0003	0.00026	9e-05	6
23930	2e-05	6e-05	3e-05	-7e-05	-0.00028	-0.0003	0.00026	9e-05	6
23931	2e-05	6e-05	3e-05	-7e-05	-0.00028	-0.0003	0.00026	9e-05	6
23932	2e-05	6e-05	3e-05	-7e-05	-0.00028	-0.0003	0.00026	9e-05	6
23933	2e-05	6e-05	3e-05	-7e-05	-0.00028	-0.0003	0.00026	9e-05	6
23934	2e-05	6e-05	3e-05	-7e-05	-0.00028	-0.0003	0.00026	9e-05	6
23935	2e-05	6e-05	3e-05	-7e-05	-0.00028	-0.0003	0.00026	9e-05	6
23936	2e-05	6e-05	3e-05	-7e-05	-0.00028	-0.0003	0.00026	9e-05	6
23938	2e-05	6e-05	3e-05	-7e-05	-0.00028	-0.0003	0.00026	9e-05	6
23939	2e-05	6e-05	3e-05	-7e-05	-0.00028	-0.0003	0.00026	9e-05	6
23940	2e-05	6e-05	3e-05	-7e-05	-0.00028	-0.0003	0.00026	9e-05	6
23941	6e-05	0	-7e-05	2e-05	0.00075	-6e-05	-5e-05	0.00048	6
23942	6e-05	0	-7e-05	2e-05	0.00075	-6e-05	-5e-05	0.00048	6
23943	0	0	-5e-05	3e-05	0.00019	0.00041	0.00019	0.00046	6
23944	0	0	-5e-05	3e-05	0.00019	0.00041	0.00019	0.00046	6
23945	0	0	-5e-05	3e-05	0.00019	0.00041	0.00019	0.00046	6
23946	0	0	-5e-05	3e-05	0.00019	0.00041	0.00019	0.00046	6
23947	0	0	-5e-05	3e-05	0.00019	0.00041	0.00019	0.00046	6
23948	0	0	-5e-05	3e-05	0.00019	0.00041	0.00019	0.00046	6
23949	0	0	-5e-05	3e-05	0.00019	0.00041	0.00019	0.00046	6
23950	0	0	-5e-05	3e-05	0.00019	0.00041	0.00019	0.00046	6
23951	0	0	-5e-05	3e-05	0.00019	0.00041	0.00019	0.00046	6
23952	0	0	-5e-05	3e-05	0.00019	0.00041	0.00019	0.00046	6
23953	0	0	-5e-05	3e-05	0.00019	0.00041	0.00019	0.00046	6
23954	0	0	-5e-05	3e-05	0.00019	0.00041	0.00019	0.00046	6
23955	-0.00015	5e-05	4e-05	-1e-05	-0.00019	0.00049	0.00011	-3e-05	6
23956	-0.00015	5e-05	4e-05	-1e-05	-0.00019	0.00049	0.00011	-3e-05	6
23957	-0.00015	5e-05	4e-05	-1e-05	-0.00019	0.00049	0.00011	-3e-05	6
23958	-0.00015	5e-05	4e-05	-1e-05	-0.00019	0.00049	0.00011	-3e-05	6
23959	-0.00015	5e-05	4e-05	-1e-05	-0.00019	0.00049	0.00011	-3e-05	6
23960	-0.00015	5e-05	4e-05	-1e-05	-0.00019	0.00049	0.00011	-3e-05	6
23961	-0.00015	5e-05	4e-05	-1e-05	-0.00019	0.00049	0.00011	-3e-05	6
23962	-0.00015	5e-05	4e-05	-1e-05	-0.00019	0.00049	0.00011	-3e-05	6
23963	-0.00015	5e-05	4e-05	-1e-05	-0.00019	0.00049	0.00011	-3e-05	6
23964	0.00022	6e-05	3e-05	1e-05	7e-05	3e-05	-0.00023	-0.00013	6
23965	0.00022	6e-05	3e-05	1e-05	7e-05	3e-05	-0.00023	-0.00013	6
23966	0.00022	6e-05	3e-05	1e-05	7e-05	3e-05	-0.00023	-0.00013	6
23967	0.00022	6e-05	3e-05	1e-05	7e-05	3e-05	-0.00023	-0.00013	6
23968	0.00022	6e-05	3e-05	1e-05	7e-05	3e-05	-0.00023	-0.00013	6
23969	0.00022	6e-05	3e-05	1e-05	7e-05	3e-05	-0.00023	-0.00013	6
23970	0.00022	6e-05	3e-05	1e-05	7e-05	3e-05	-0.00023	-0.00013	6
23971	0.00022	6e-05	3e-05	1e-05	7e-05	3e-05	-0.00023	-0.00013	6
23972	0.00022	6e-05	3e-05	1e-05	7e-05	3e-05	-0.00023	-0.00013	6
23973	0.00022	6e-05	3e-05	1e-05	7e-05	3e-05	-0.00023	-0.00013	6
23974	0.00022	6e-05	3e-05	1e-05	7e-05	3e-05	-0.00023	-0.00013	6
23975	0.00022	6e-05	3e-05	1e-05	7e-05	3e-05	-0.00023	-0.00013	6
23976	0.00022	6e-05	3e-05	1e-05	7e-05	3e-05	-0.00023	-0.00013	6
23977	0.00022	6e-05	3e-05	1e-05	7e-05	3e-05	-0.00023	-0.00013	6
23978	0.00022	6e-05	3e-05	1e-05	7e-05	3e-05	-0.00023	-0.00013	6
23979	-8e-05	-3e-05	-1e-05	6e-05	0.00028	0.00061	0.00018	-7e-05	6
23980	-2e-05	-3e-05	-9e-05	-6e-05	-0.00015	-0.00013	0.0001	0.0005	6
23981	-2e-05	-3e-05	-9e-05	-6e-05	-0.00015	-0.00013	0.0001	0.0005	6
23982	-2e-05	-3e-05	-9e-05	-6e-05	-0.00015	-0.00013	0.0001	0.0005	6
23983	-2e-05	-3e-05	-9e-05	-6e-05	-0.00015	-0.00013	0.0001	0.0005	6
23984	-2e-05	-3e-05	-9e-05	-6e-05	-0.00015	-0.00013	0.0001	0.0005	6
23985	-2e-05	-3e-05	-9e-05	-6e-05	-0.00015	-0.00013	0.0001	0.0005	6
23986	-2e-05	-3e-05	-9e-05	-6e-05	-0.00015	-0.00013	0.0001	0.0005	6
23988	-2e-05	-3e-05	-9e-05	-6e-05	-0.00015	-0.00013	0.0001	0.0005	6
23989	-2e-05	-3e-05	-9e-05	-6e-05	-0.00015	-0.00013	0.0001	0.0005	6
23990	-2e-05	-3e-05	-9e-05	-6e-05	-0.00015	-0.00013	0.0001	0.0005	6
23991	-2e-05	-3e-05	-9e-05	-6e-05	-0.00015	-0.00013	0.0001	0.0005	6
23992	-2e-05	-3e-05	-9e-05	-6e-05	-0.00015	-0.00013	0.0001	0.0005	6
23993	-2e-05	-3e-05	-9e-05	-6e-05	-0.00015	-0.00013	0.0001	0.0005	6
23994	-2e-05	-3e-05	-9e-05	-6e-05	-0.00015	-0.00013	0.0001	0.0005	6
23995	-2e-05	-3e-05	-9e-05	-6e-05	-0.00015	-0.00013	0.0001	0.0005	6
23996	-2e-05	-3e-05	-9e-05	-6e-05	-0.00015	-0.00013	0.0001	0.0005	6
23997	-2e-05	-3e-05	-9e-05	-6e-05	-0.00015	-0.00013	0.0001	0.0005	6
23998	-2e-05	-3e-05	-9e-05	-6e-05	-0.00015	-0.00013	0.0001	0.0005	6
23999	-2e-05	-3e-05	-9e-05	-6e-05	-0.00015	-0.00013	0.0001	0.0005	6
24000	-2e-05	-3e-05	-9e-05	-6e-05	-0.00015	-0.00013	0.0001	0.0005	6
24001	9e-05	3e-05	0	-9e-05	-0.00046	-4e-05	-0.00018	0.00048	6
24002	9e-05	3e-05	0	-9e-05	-0.00046	-4e-05	-0.00018	0.00048	6
24003	-0.00017	5e-05	2e-05	5e-05	0.00025	-0.00018	0.0002	-0.00021	6
24004	-0.00017	5e-05	2e-05	5e-05	0.00025	-0.00018	0.0002	-0.00021	6
24005	-0.00017	5e-05	2e-05	5e-05	0.00025	-0.00018	0.0002	-0.00021	6
24006	-0.00017	5e-05	2e-05	5e-05	0.00025	-0.00018	0.0002	-0.00021	6
24007	-0.00017	5e-05	2e-05	5e-05	0.00025	-0.00018	0.0002	-0.00021	6
24008	-0.00017	5e-05	2e-05	5e-05	0.00025	-0.00018	0.0002	-0.00021	6
24009	-0.00017	5e-05	2e-05	5e-05	0.00025	-0.00018	0.0002	-0.00021	6
24010	-0.00017	5e-05	2e-05	5e-05	0.00025	-0.00018	0.0002	-0.00021	6
24011	-0.00017	5e-05	2e-05	5e-05	0.00025	-0.00018	0.0002	-0.00021	6
24012	-0.00017	5e-05	2e-05	5e-05	0.00025	-0.00018	0.0002	-0.00021	6
24013	-0.00017	5e-05	2e-05	5e-05	0.00025	-0.00018	0.0002	-0.00021	6
24014	-0.00017	5e-05	2e-05	5e-05	0.00025	-0.00018	0.0002	-0.00021	6
24015	-0.00013	-3e-05	-4e-05	-2e-05	-2e-05	-3e-05	-0.00011	-5e-05	6
24016	-0.00013	-3e-05	-4e-05	-2e-05	-2e-05	-3e-05	-0.00011	-5e-05	6
24017	-0.00013	-3e-05	-4e-05	-2e-05	-2e-05	-3e-05	-0.00011	-5e-05	6
24018	-0.00013	-3e-05	-4e-05	-2e-05	-2e-05	-3e-05	-0.00011	-5e-05	6
24019	-0.00013	-3e-05	-4e-05	-2e-05	-2e-05	-3e-05	-0.00011	-5e-05	6
24020	-0.00013	-3e-05	-4e-05	-2e-05	-2e-05	-3e-05	-0.00011	-5e-05	6
24021	-0.00013	-3e-05	-4e-05	-2e-05	-2e-05	-3e-05	-0.00011	-5e-05	6
24022	-0.00013	-3e-05	-4e-05	-2e-05	-2e-05	-3e-05	-0.00011	-5e-05	6
24023	-0.00013	-3e-05	-4e-05	-2e-05	-2e-05	-3e-05	-0.00011	-5e-05	6
24024	-0.00014	-1e-05	-5e-05	-3e-05	-3e-05	0.00023	0.00017	-0.00024	6
24025	-0.00014	-1e-05	-5e-05	-3e-05	-3e-05	0.00023	0.00017	-0.00024	6
24026	-0.00014	-1e-05	-5e-05	-3e-05	-3e-05	0.00023	0.00017	-0.00024	6
24027	-0.00014	-1e-05	-5e-05	-3e-05	-3e-05	0.00023	0.00017	-0.00024	6
24028	-0.00014	-1e-05	-5e-05	-3e-05	-3e-05	0.00023	0.00017	-0.00024	6
24029	-0.00014	-1e-05	-5e-05	-3e-05	-3e-05	0.00023	0.00017	-0.00024	6
24030	-0.00014	-1e-05	-5e-05	-3e-05	-3e-05	0.00023	0.00017	-0.00024	6
24031	-0.00014	-1e-05	-5e-05	-3e-05	-3e-05	0.00023	0.00017	-0.00024	6
24032	-0.00014	-1e-05	-5e-05	-3e-05	-3e-05	0.00023	0.00017	-0.00024	6
24033	-0.00014	-1e-05	-5e-05	-3e-05	-3e-05	0.00023	0.00017	-0.00024	6
24034	-0.00014	-1e-05	-5e-05	-3e-05	-3e-05	0.00023	0.00017	-0.00024	6
24035	-0.00014	-1e-05	-5e-05	-3e-05	-3e-05	0.00023	0.00017	-0.00024	6
24036	-0.00014	-1e-05	-5e-05	-3e-05	-3e-05	0.00023	0.00017	-0.00024	6
24038	-0.00014	-1e-05	-5e-05	-3e-05	-3e-05	0.00023	0.00017	-0.00024	6
24039	0	-5e-05	2e-05	0.00017	0.00023	0	-6e-05	0.00016	6
24040	-3e-05	-6e-05	-0.0001	-0.0001	-0.00027	-0.00022	-1e-05	4e-05	6
24041	-3e-05	-6e-05	-0.0001	-0.0001	-0.00027	-0.00022	-1e-05	4e-05	6
24042	-3e-05	-6e-05	-0.0001	-0.0001	-0.00027	-0.00022	-1e-05	4e-05	6
24043	-3e-05	-6e-05	-0.0001	-0.0001	-0.00027	-0.00022	-1e-05	4e-05	6
24044	-3e-05	-6e-05	-0.0001	-0.0001	-0.00027	-0.00022	-1e-05	4e-05	6
24045	-3e-05	-6e-05	-0.0001	-0.0001	-0.00027	-0.00022	-1e-05	4e-05	6
24046	-3e-05	-6e-05	-0.0001	-0.0001	-0.00027	-0.00022	-1e-05	4e-05	6
24047	-3e-05	-6e-05	-0.0001	-0.0001	-0.00027	-0.00022	-1e-05	4e-05	6
24048	-3e-05	-6e-05	-0.0001	-0.0001	-0.00027	-0.00022	-1e-05	4e-05	6
24049	-3e-05	-6e-05	-0.0001	-0.0001	-0.00027	-0.00022	-1e-05	4e-05	6
24050	-3e-05	-6e-05	-0.0001	-0.0001	-0.00027	-0.00022	-1e-05	4e-05	6
24051	-3e-05	-6e-05	-0.0001	-0.0001	-0.00027	-0.00022	-1e-05	4e-05	6
24052	-3e-05	-6e-05	-0.0001	-0.0001	-0.00027	-0.00022	-1e-05	4e-05	6
24053	-3e-05	-6e-05	-0.0001	-0.0001	-0.00027	-0.00022	-1e-05	4e-05	6
24054	-3e-05	-6e-05	-0.0001	-0.0001	-0.00027	-0.00022	-1e-05	4e-05	6
24055	-3e-05	-6e-05	-0.0001	-0.0001	-0.00027	-0.00022	-1e-05	4e-05	6
24056	-3e-05	-6e-05	-0.0001	-0.0001	-0.00027	-0.00022	-1e-05	4e-05	6
24057	-3e-05	-6e-05	-0.0001	-0.0001	-0.00027	-0.00022	-1e-05	4e-05	6
24058	-3e-05	-6e-05	-0.0001	-0.0001	-0.00027	-0.00022	-1e-05	4e-05	6
24059	-3e-05	-6e-05	-0.0001	-0.0001	-0.00027	-0.00022	-1e-05	4e-05	6
24060	-3e-05	-6e-05	-0.0001	-0.0001	-0.00027	-0.00022	-1e-05	4e-05	6
24061	0.00014	-5e-05	-2e-05	-4e-05	-0.00041	-0.00109	-0.00012	0.00066	6
24062	0.00014	-5e-05	-2e-05	-4e-05	-0.00041	-0.00109	-0.00012	0.00066	6
24063	-2e-05	-4e-05	4e-05	0	-0.00036	-0.00027	-0.0001	-0.00032	6
24064	-2e-05	-4e-05	4e-05	0	-0.00036	-0.00027	-0.0001	-0.00032	6
24065	-2e-05	-4e-05	4e-05	0	-0.00036	-0.00027	-0.0001	-0.00032	6
24066	-2e-05	-4e-05	4e-05	0	-0.00036	-0.00027	-0.0001	-0.00032	6
24067	-2e-05	-4e-05	4e-05	0	-0.00036	-0.00027	-0.0001	-0.00032	6
24068	-2e-05	-4e-05	4e-05	0	-0.00036	-0.00027	-0.0001	-0.00032	6
24069	-2e-05	-4e-05	4e-05	0	-0.00036	-0.00027	-0.0001	-0.00032	6
24070	-2e-05	-4e-05	4e-05	0	-0.00036	-0.00027	-0.0001	-0.00032	6
24071	-2e-05	-4e-05	4e-05	0	-0.00036	-0.00027	-0.0001	-0.00032	6
24072	-2e-05	-4e-05	4e-05	0	-0.00036	-0.00027	-0.0001	-0.00032	6
24073	-2e-05	-4e-05	4e-05	0	-0.00036	-0.00027	-0.0001	-0.00032	6
24074	-2e-05	-4e-05	4e-05	0	-0.00036	-0.00027	-0.0001	-0.00032	6
24075	-8e-05	-2e-05	1e-05	0	0.00017	-0.00018	-3e-05	-0.00042	6
24076	-8e-05	-2e-05	1e-05	0	0.00017	-0.00018	-3e-05	-0.00042	6
24077	-8e-05	-2e-05	1e-05	0	0.00017	-0.00018	-3e-05	-0.00042	6
24078	-8e-05	-2e-05	1e-05	0	0.00017	-0.00018	-3e-05	-0.00042	6
24079	-8e-05	-2e-05	1e-05	0	0.00017	-0.00018	-3e-05	-0.00042	6
24080	-8e-05	-2e-05	1e-05	0	0.00017	-0.00018	-3e-05	-0.00042	6
24081	-8e-05	-2e-05	1e-05	0	0.00017	-0.00018	-3e-05	-0.00042	6
24082	-8e-05	-2e-05	1e-05	0	0.00017	-0.00018	-3e-05	-0.00042	6
24083	-8e-05	-2e-05	1e-05	0	0.00017	-0.00018	-3e-05	-0.00042	6
24084	0.00029	3e-05	3e-05	-4e-05	0.00012	-0.00014	-3e-05	-5e-05	6
24085	0.00029	3e-05	3e-05	-4e-05	0.00012	-0.00014	-3e-05	-5e-05	6
24086	0.00029	3e-05	3e-05	-4e-05	0.00012	-0.00014	-3e-05	-5e-05	6
24088	0.00029	3e-05	3e-05	-4e-05	0.00012	-0.00014	-3e-05	-5e-05	6
24089	0.00029	3e-05	3e-05	-4e-05	0.00012	-0.00014	-3e-05	-5e-05	6
24090	0.00029	3e-05	3e-05	-4e-05	0.00012	-0.00014	-3e-05	-5e-05	6
24091	0.00029	3e-05	3e-05	-4e-05	0.00012	-0.00014	-3e-05	-5e-05	6
24092	0.00029	3e-05	3e-05	-4e-05	0.00012	-0.00014	-3e-05	-5e-05	6
24093	0.00029	3e-05	3e-05	-4e-05	0.00012	-0.00014	-3e-05	-5e-05	6
24094	0.00029	3e-05	3e-05	-4e-05	0.00012	-0.00014	-3e-05	-5e-05	6
24095	0.00029	3e-05	3e-05	-4e-05	0.00012	-0.00014	-3e-05	-5e-05	6
24096	0.00029	3e-05	3e-05	-4e-05	0.00012	-0.00014	-3e-05	-5e-05	6
24097	0.00029	3e-05	3e-05	-4e-05	0.00012	-0.00014	-3e-05	-5e-05	6
24098	0.00029	3e-05	3e-05	-4e-05	0.00012	-0.00014	-3e-05	-5e-05	6
24099	0.00019	-4e-05	-1e-05	3e-05	-0.00017	0.00034	-0.0002	0.00031	6
24100	0.00019	-4e-05	-1e-05	3e-05	-0.00017	0.00034	-0.0002	0.00031	6
24101	0.00019	-4e-05	-1e-05	3e-05	-0.00017	0.00034	-0.0002	0.00031	6
24102	0.00019	-4e-05	-1e-05	3e-05	-0.00017	0.00034	-0.0002	0.00031	6
24103	0.00019	-4e-05	-1e-05	3e-05	-0.00017	0.00034	-0.0002	0.00031	6
24104	0.00019	-4e-05	-1e-05	3e-05	-0.00017	0.00034	-0.0002	0.00031	6
24105	0	-1e-05	-1e-05	-6e-05	0.0001	0.00026	0.00016	0.00053	6
24106	0	-1e-05	-1e-05	-6e-05	0.0001	0.00026	0.00016	0.00053	6
24107	0	-1e-05	-1e-05	-6e-05	0.0001	0.00026	0.00016	0.00053	6
24108	0	-1e-05	-1e-05	-6e-05	0.0001	0.00026	0.00016	0.00053	6
24109	0	-1e-05	-1e-05	-6e-05	0.0001	0.00026	0.00016	0.00053	6
24110	0	-1e-05	-1e-05	-6e-05	0.0001	0.00026	0.00016	0.00053	6
24111	0	-1e-05	-1e-05	-6e-05	0.0001	0.00026	0.00016	0.00053	6
24112	0	-1e-05	-1e-05	-6e-05	0.0001	0.00026	0.00016	0.00053	6
24113	0	-1e-05	-1e-05	-6e-05	0.0001	0.00026	0.00016	0.00053	6
24114	0	-1e-05	-1e-05	-6e-05	0.0001	0.00026	0.00016	0.00053	6
24115	0	-1e-05	-1e-05	-6e-05	0.0001	0.00026	0.00016	0.00053	6
24116	0	-1e-05	-1e-05	-6e-05	0.0001	0.00026	0.00016	0.00053	6
24117	0	-1e-05	-1e-05	-6e-05	0.0001	0.00026	0.00016	0.00053	6
24118	0	-1e-05	-1e-05	-6e-05	0.0001	0.00026	0.00016	0.00053	6
24119	0	-1e-05	-1e-05	-6e-05	0.0001	0.00026	0.00016	0.00053	6
24120	0	-1e-05	-1e-05	-6e-05	0.0001	0.00026	0.00016	0.00053	6
24121	-3e-05	0	-1e-05	-5e-05	-2e-05	-0.00032	5e-05	-0.0001	6
24122	-3e-05	0	-1e-05	-5e-05	-2e-05	-0.00032	5e-05	-0.0001	6
24123	-0.00013	-0.0001	5e-05	4e-05	-3e-05	-2e-05	-9e-05	-3e-05	6
24124	-0.00013	-0.0001	5e-05	4e-05	-3e-05	-2e-05	-9e-05	-3e-05	6
24125	-0.00013	-0.0001	5e-05	4e-05	-3e-05	-2e-05	-9e-05	-3e-05	6
24126	-0.00013	-0.0001	5e-05	4e-05	-3e-05	-2e-05	-9e-05	-3e-05	6
24127	-0.00013	-0.0001	5e-05	4e-05	-3e-05	-2e-05	-9e-05	-3e-05	6
24128	-0.00013	-0.0001	5e-05	4e-05	-3e-05	-2e-05	-9e-05	-3e-05	6
24129	-0.00013	-0.0001	5e-05	4e-05	-3e-05	-2e-05	-9e-05	-3e-05	6
24130	-0.00013	-0.0001	5e-05	4e-05	-3e-05	-2e-05	-9e-05	-3e-05	6
24131	-0.00013	-0.0001	5e-05	4e-05	-3e-05	-2e-05	-9e-05	-3e-05	6
24132	-0.00013	-0.0001	5e-05	4e-05	-3e-05	-2e-05	-9e-05	-3e-05	6
24133	-0.00013	-0.0001	5e-05	4e-05	-3e-05	-2e-05	-9e-05	-3e-05	6
24134	-0.00013	-0.0001	5e-05	4e-05	-3e-05	-2e-05	-9e-05	-3e-05	6
24135	-0.0001	-9e-05	8e-05	-8e-05	-8e-05	0.00015	0	-0.00017	6
24136	-0.0001	-9e-05	8e-05	-8e-05	-8e-05	0.00015	0	-0.00017	6
24138	-0.0001	-9e-05	8e-05	-8e-05	-8e-05	0.00015	0	-0.00017	6
24139	-0.0001	-9e-05	8e-05	-8e-05	-8e-05	0.00015	0	-0.00017	6
24140	-0.0001	-9e-05	8e-05	-8e-05	-8e-05	0.00015	0	-0.00017	6
24141	-0.0001	-9e-05	8e-05	-8e-05	-8e-05	0.00015	0	-0.00017	6
24142	-0.0001	-9e-05	8e-05	-8e-05	-8e-05	0.00015	0	-0.00017	6
24143	-0.0001	-9e-05	8e-05	-8e-05	-8e-05	0.00015	0	-0.00017	6
24144	-0.00011	5e-05	3e-05	0.00017	0.00037	-1e-05	0.00012	-0.0001	6
24145	-0.00011	5e-05	3e-05	0.00017	0.00037	-1e-05	0.00012	-0.0001	6
24146	-0.00011	5e-05	3e-05	0.00017	0.00037	-1e-05	0.00012	-0.0001	6
24147	-0.00011	5e-05	3e-05	0.00017	0.00037	-1e-05	0.00012	-0.0001	6
24148	-0.00011	5e-05	3e-05	0.00017	0.00037	-1e-05	0.00012	-0.0001	6
24149	-0.00011	5e-05	3e-05	0.00017	0.00037	-1e-05	0.00012	-0.0001	6
24150	-0.00011	5e-05	3e-05	0.00017	0.00037	-1e-05	0.00012	-0.0001	6
24151	-0.00011	5e-05	3e-05	0.00017	0.00037	-1e-05	0.00012	-0.0001	6
24152	-0.00011	5e-05	3e-05	0.00017	0.00037	-1e-05	0.00012	-0.0001	6
24153	-0.00011	5e-05	3e-05	0.00017	0.00037	-1e-05	0.00012	-0.0001	6
24154	-0.00011	5e-05	3e-05	0.00017	0.00037	-1e-05	0.00012	-0.0001	6
24155	-0.00011	5e-05	3e-05	0.00017	0.00037	-1e-05	0.00012	-0.0001	6
24156	-0.00011	5e-05	3e-05	0.00017	0.00037	-1e-05	0.00012	-0.0001	6
24157	-0.00011	5e-05	3e-05	0.00017	0.00037	-1e-05	0.00012	-0.0001	6
24158	-0.00011	5e-05	3e-05	0.00017	0.00037	-1e-05	0.00012	-0.0001	6
24159	3e-05	9e-05	5e-05	0.00011	0.00048	0.00016	0.00015	-0.00031	6
24160	-5e-05	-1e-05	0	-0.00011	-0.00016	-0.00023	0	-0.00011	6
24161	-5e-05	-1e-05	0	-0.00011	-0.00016	-0.00023	0	-0.00011	6
24162	-5e-05	-1e-05	0	-0.00011	-0.00016	-0.00023	0	-0.00011	6
24163	-5e-05	-1e-05	0	-0.00011	-0.00016	-0.00023	0	-0.00011	6
24164	-5e-05	-1e-05	0	-0.00011	-0.00016	-0.00023	0	-0.00011	6
24165	-5e-05	-1e-05	0	-0.00011	-0.00016	-0.00023	0	-0.00011	6
24166	-5e-05	-1e-05	0	-0.00011	-0.00016	-0.00023	0	-0.00011	6
24167	-5e-05	-1e-05	0	-0.00011	-0.00016	-0.00023	0	-0.00011	6
24168	-5e-05	-1e-05	0	-0.00011	-0.00016	-0.00023	0	-0.00011	6
24169	-5e-05	-1e-05	0	-0.00011	-0.00016	-0.00023	0	-0.00011	6
24170	-5e-05	-1e-05	0	-0.00011	-0.00016	-0.00023	0	-0.00011	6
24171	-5e-05	-1e-05	0	-0.00011	-0.00016	-0.00023	0	-0.00011	6
24172	-5e-05	-1e-05	0	-0.00011	-0.00016	-0.00023	0	-0.00011	6
24173	-5e-05	-1e-05	0	-0.00011	-0.00016	-0.00023	0	-0.00011	6
24174	-5e-05	-1e-05	0	-0.00011	-0.00016	-0.00023	0	-0.00011	6
24175	-5e-05	-1e-05	0	-0.00011	-0.00016	-0.00023	0	-0.00011	6
24176	-5e-05	-1e-05	0	-0.00011	-0.00016	-0.00023	0	-0.00011	6
24177	-5e-05	-1e-05	0	-0.00011	-0.00016	-0.00023	0	-0.00011	6
24178	-5e-05	-1e-05	0	-0.00011	-0.00016	-0.00023	0	-0.00011	6
24179	-5e-05	-1e-05	0	-0.00011	-0.00016	-0.00023	0	-0.00011	6
24180	-5e-05	-1e-05	0	-0.00011	-0.00016	-0.00023	0	-0.00011	6
24181	-3e-05	2e-05	-4e-05	1e-05	0.00016	0.00029	0.00021	2e-05	6
24182	-3e-05	2e-05	-4e-05	1e-05	0.00016	0.00029	0.00021	2e-05	6
24183	-0.00021	0	-3e-05	4e-05	-0.00025	0.00016	-8e-05	-0.00018	6
24184	-0.00021	0	-3e-05	4e-05	-0.00025	0.00016	-8e-05	-0.00018	6
24185	-0.00021	0	-3e-05	4e-05	-0.00025	0.00016	-8e-05	-0.00018	6
24186	-0.00021	0	-3e-05	4e-05	-0.00025	0.00016	-8e-05	-0.00018	6
24188	-0.00021	0	-3e-05	4e-05	-0.00025	0.00016	-8e-05	-0.00018	6
24189	-0.00021	0	-3e-05	4e-05	-0.00025	0.00016	-8e-05	-0.00018	6
24190	-0.00021	0	-3e-05	4e-05	-0.00025	0.00016	-8e-05	-0.00018	6
24191	-0.00021	0	-3e-05	4e-05	-0.00025	0.00016	-8e-05	-0.00018	6
24192	-0.00021	0	-3e-05	4e-05	-0.00025	0.00016	-8e-05	-0.00018	6
24193	-0.00021	0	-3e-05	4e-05	-0.00025	0.00016	-8e-05	-0.00018	6
24194	-0.00021	0	-3e-05	4e-05	-0.00025	0.00016	-8e-05	-0.00018	6
24195	-4e-05	-3e-05	-6e-05	-2e-05	-0.00011	-8e-05	4e-05	-0.00048	6
24197	-4e-05	-3e-05	-6e-05	-2e-05	-0.00011	-8e-05	4e-05	-0.00048	6
24198	-4e-05	-3e-05	-6e-05	-2e-05	-0.00011	-8e-05	4e-05	-0.00048	6
24199	-4e-05	-3e-05	-6e-05	-2e-05	-0.00011	-8e-05	4e-05	-0.00048	6
24200	-4e-05	-3e-05	-6e-05	-2e-05	-0.00011	-8e-05	4e-05	-0.00048	6
24201	-4e-05	-3e-05	-6e-05	-2e-05	-0.00011	-8e-05	4e-05	-0.00048	6
24202	-4e-05	-3e-05	-6e-05	-2e-05	-0.00011	-8e-05	4e-05	-0.00048	6
24203	-4e-05	-3e-05	-6e-05	-2e-05	-0.00011	-8e-05	4e-05	-0.00048	6
24204	3e-05	-1e-05	-1e-05	8e-05	0.00046	-9e-05	-0.00018	-0.00056	6
24205	3e-05	-1e-05	-1e-05	8e-05	0.00046	-9e-05	-0.00018	-0.00056	6
24206	3e-05	-1e-05	-1e-05	8e-05	0.00046	-9e-05	-0.00018	-0.00056	6
24207	3e-05	-1e-05	-1e-05	8e-05	0.00046	-9e-05	-0.00018	-0.00056	6
24208	3e-05	-1e-05	-1e-05	8e-05	0.00046	-9e-05	-0.00018	-0.00056	6
24209	3e-05	-1e-05	-1e-05	8e-05	0.00046	-9e-05	-0.00018	-0.00056	6
24210	3e-05	-1e-05	-1e-05	8e-05	0.00046	-9e-05	-0.00018	-0.00056	6
24211	3e-05	-1e-05	-1e-05	8e-05	0.00046	-9e-05	-0.00018	-0.00056	6
24212	3e-05	-1e-05	-1e-05	8e-05	0.00046	-9e-05	-0.00018	-0.00056	6
24213	3e-05	-1e-05	-1e-05	8e-05	0.00046	-9e-05	-0.00018	-0.00056	6
24214	3e-05	-1e-05	-1e-05	8e-05	0.00046	-9e-05	-0.00018	-0.00056	6
24215	3e-05	-1e-05	-1e-05	8e-05	0.00046	-9e-05	-0.00018	-0.00056	6
24216	3e-05	-1e-05	-1e-05	8e-05	0.00046	-9e-05	-0.00018	-0.00056	6
24217	3e-05	-1e-05	-1e-05	8e-05	0.00046	-9e-05	-0.00018	-0.00056	6
24218	3e-05	-1e-05	-1e-05	8e-05	0.00046	-9e-05	-0.00018	-0.00056	6
24219	-6e-05	-4e-05	-4e-05	-1e-05	-0.00018	-0.00017	-9e-05	5e-05	6
24220	0.00012	-6e-05	-6e-05	-0.00016	0.00057	-0.00011	-2e-05	1e-05	6
24221	0.00012	-6e-05	-6e-05	-0.00016	0.00057	-0.00011	-2e-05	1e-05	6
24222	0.00012	-6e-05	-6e-05	-0.00016	0.00057	-0.00011	-2e-05	1e-05	6
24223	0.00012	-6e-05	-6e-05	-0.00016	0.00057	-0.00011	-2e-05	1e-05	6
24224	0.00012	-6e-05	-6e-05	-0.00016	0.00057	-0.00011	-2e-05	1e-05	6
24225	0.00012	-6e-05	-6e-05	-0.00016	0.00057	-0.00011	-2e-05	1e-05	6
24226	0.00012	-6e-05	-6e-05	-0.00016	0.00057	-0.00011	-2e-05	1e-05	6
24227	0.00012	-6e-05	-6e-05	-0.00016	0.00057	-0.00011	-2e-05	1e-05	6
24228	0.00012	-6e-05	-6e-05	-0.00016	0.00057	-0.00011	-2e-05	1e-05	6
24229	0.00012	-6e-05	-6e-05	-0.00016	0.00057	-0.00011	-2e-05	1e-05	6
24230	0.00012	-6e-05	-6e-05	-0.00016	0.00057	-0.00011	-2e-05	1e-05	6
24231	0.00012	-6e-05	-6e-05	-0.00016	0.00057	-0.00011	-2e-05	1e-05	6
24232	0.00012	-6e-05	-6e-05	-0.00016	0.00057	-0.00011	-2e-05	1e-05	6
24233	0.00012	-6e-05	-6e-05	-0.00016	0.00057	-0.00011	-2e-05	1e-05	6
24234	0.00012	-6e-05	-6e-05	-0.00016	0.00057	-0.00011	-2e-05	1e-05	6
24235	0.00012	-6e-05	-6e-05	-0.00016	0.00057	-0.00011	-2e-05	1e-05	6
24236	0.00012	-6e-05	-6e-05	-0.00016	0.00057	-0.00011	-2e-05	1e-05	6
24238	0.00012	-6e-05	-6e-05	-0.00016	0.00057	-0.00011	-2e-05	1e-05	6
24239	0.00012	-6e-05	-6e-05	-0.00016	0.00057	-0.00011	-2e-05	1e-05	6
24240	0.00012	-6e-05	-6e-05	-0.00016	0.00057	-0.00011	-2e-05	1e-05	6
24241	1e-05	4e-05	-2e-05	8e-05	0.00055	-0.00043	3e-05	-0.00024	6
24242	1e-05	4e-05	-2e-05	8e-05	0.00055	-0.00043	3e-05	-0.00024	6
24243	-5e-05	0.00014	2e-05	-3e-05	-0.00074	-0.00054	-5e-05	3e-05	6
24244	-5e-05	0.00014	2e-05	-3e-05	-0.00074	-0.00054	-5e-05	3e-05	6
24245	-5e-05	0.00014	2e-05	-3e-05	-0.00074	-0.00054	-5e-05	3e-05	6
24246	-5e-05	0.00014	2e-05	-3e-05	-0.00074	-0.00054	-5e-05	3e-05	6
24247	-5e-05	0.00014	2e-05	-3e-05	-0.00074	-0.00054	-5e-05	3e-05	6
24248	-5e-05	0.00014	2e-05	-3e-05	-0.00074	-0.00054	-5e-05	3e-05	6
24249	-5e-05	0.00014	2e-05	-3e-05	-0.00074	-0.00054	-5e-05	3e-05	6
24250	-5e-05	0.00014	2e-05	-3e-05	-0.00074	-0.00054	-5e-05	3e-05	6
24251	-5e-05	0.00014	2e-05	-3e-05	-0.00074	-0.00054	-5e-05	3e-05	6
24252	-5e-05	0.00014	2e-05	-3e-05	-0.00074	-0.00054	-5e-05	3e-05	6
24253	-5e-05	0.00014	2e-05	-3e-05	-0.00074	-0.00054	-5e-05	3e-05	6
24254	-5e-05	0.00014	2e-05	-3e-05	-0.00074	-0.00054	-5e-05	3e-05	6
24255	-3e-05	-2e-05	-3e-05	-8e-05	-0.001	-0.00012	6e-05	-3e-05	6
24256	-3e-05	-2e-05	-3e-05	-8e-05	-0.001	-0.00012	6e-05	-3e-05	6
24257	-3e-05	-2e-05	-3e-05	-8e-05	-0.001	-0.00012	6e-05	-3e-05	6
24258	-3e-05	-2e-05	-3e-05	-8e-05	-0.001	-0.00012	6e-05	-3e-05	6
24259	-3e-05	-2e-05	-3e-05	-8e-05	-0.001	-0.00012	6e-05	-3e-05	6
24260	-3e-05	-2e-05	-3e-05	-8e-05	-0.001	-0.00012	6e-05	-3e-05	6
24261	-3e-05	-2e-05	-3e-05	-8e-05	-0.001	-0.00012	6e-05	-3e-05	6
24262	-3e-05	-2e-05	-3e-05	-8e-05	-0.001	-0.00012	6e-05	-3e-05	6
24263	-3e-05	-2e-05	-3e-05	-8e-05	-0.001	-0.00012	6e-05	-3e-05	6
24264	-0.00011	5e-05	-6e-05	-8e-05	-0.00081	-5e-05	6e-05	-0.00045	6
24265	-0.00011	5e-05	-6e-05	-8e-05	-0.00081	-5e-05	6e-05	-0.00045	6
24266	-0.00011	5e-05	-6e-05	-8e-05	-0.00081	-5e-05	6e-05	-0.00045	6
24267	-0.00011	5e-05	-6e-05	-8e-05	-0.00081	-5e-05	6e-05	-0.00045	6
24268	-0.00011	5e-05	-6e-05	-8e-05	-0.00081	-5e-05	6e-05	-0.00045	6
24269	-0.00011	5e-05	-6e-05	-8e-05	-0.00081	-5e-05	6e-05	-0.00045	6
24270	-0.00011	5e-05	-6e-05	-8e-05	-0.00081	-5e-05	6e-05	-0.00045	6
24271	-0.00011	5e-05	-6e-05	-8e-05	-0.00081	-5e-05	6e-05	-0.00045	6
24272	-0.00011	5e-05	-6e-05	-8e-05	-0.00081	-5e-05	6e-05	-0.00045	6
24273	-0.00011	5e-05	-6e-05	-8e-05	-0.00081	-5e-05	6e-05	-0.00045	6
24274	-0.00011	5e-05	-6e-05	-8e-05	-0.00081	-5e-05	6e-05	-0.00045	6
24275	-0.00011	5e-05	-6e-05	-8e-05	-0.00081	-5e-05	6e-05	-0.00045	6
24276	-0.00011	5e-05	-6e-05	-8e-05	-0.00081	-5e-05	6e-05	-0.00045	6
24277	-0.00011	5e-05	-6e-05	-8e-05	-0.00081	-5e-05	6e-05	-0.00045	6
24278	-0.00011	5e-05	-6e-05	-8e-05	-0.00081	-5e-05	6e-05	-0.00045	6
24279	0.00012	2e-05	6e-05	8e-05	-0.00055	-0.00017	-0.0001	2e-05	6
24280	7e-05	-4e-05	0	-4e-05	0	-7e-05	-5e-05	3e-05	6
24281	7e-05	-4e-05	0	-4e-05	0	-7e-05	-5e-05	3e-05	6
24282	7e-05	-4e-05	0	-4e-05	0	-7e-05	-5e-05	3e-05	6
24283	7e-05	-4e-05	0	-4e-05	0	-7e-05	-5e-05	3e-05	6
24284	7e-05	-4e-05	0	-4e-05	0	-7e-05	-5e-05	3e-05	6
24285	7e-05	-4e-05	0	-4e-05	0	-7e-05	-5e-05	3e-05	6
24286	7e-05	-4e-05	0	-4e-05	0	-7e-05	-5e-05	3e-05	6
24288	7e-05	-4e-05	0	-4e-05	0	-7e-05	-5e-05	3e-05	6
24289	7e-05	-4e-05	0	-4e-05	0	-7e-05	-5e-05	3e-05	6
24290	7e-05	-4e-05	0	-4e-05	0	-7e-05	-5e-05	3e-05	6
24291	7e-05	-4e-05	0	-4e-05	0	-7e-05	-5e-05	3e-05	6
24292	7e-05	-4e-05	0	-4e-05	0	-7e-05	-5e-05	3e-05	6
24293	7e-05	-4e-05	0	-4e-05	0	-7e-05	-5e-05	3e-05	6
24294	7e-05	-4e-05	0	-4e-05	0	-7e-05	-5e-05	3e-05	6
24295	7e-05	-4e-05	0	-4e-05	0	-7e-05	-5e-05	3e-05	6
24296	7e-05	-4e-05	0	-4e-05	0	-7e-05	-5e-05	3e-05	6
24297	7e-05	-4e-05	0	-4e-05	0	-7e-05	-5e-05	3e-05	6
24298	7e-05	-4e-05	0	-4e-05	0	-7e-05	-5e-05	3e-05	6
24299	7e-05	-4e-05	0	-4e-05	0	-7e-05	-5e-05	3e-05	6
24300	7e-05	-4e-05	0	-4e-05	0	-7e-05	-5e-05	3e-05	6
24301	-7e-05	-7e-05	-6e-05	-0.00021	-0.00026	-7e-05	-0.00017	0.00018	6
24302	-7e-05	-7e-05	-6e-05	-0.00021	-0.00026	-7e-05	-0.00017	0.00018	6
24303	5e-05	1e-05	7e-05	0.00013	-3e-05	0.00052	5e-05	-0.00068	6
24304	5e-05	1e-05	7e-05	0.00013	-3e-05	0.00052	5e-05	-0.00068	6
24305	5e-05	1e-05	7e-05	0.00013	-3e-05	0.00052	5e-05	-0.00068	6
24306	5e-05	1e-05	7e-05	0.00013	-3e-05	0.00052	5e-05	-0.00068	6
24307	5e-05	1e-05	7e-05	0.00013	-3e-05	0.00052	5e-05	-0.00068	6
24308	5e-05	1e-05	7e-05	0.00013	-3e-05	0.00052	5e-05	-0.00068	6
24309	5e-05	1e-05	7e-05	0.00013	-3e-05	0.00052	5e-05	-0.00068	6
24310	5e-05	1e-05	7e-05	0.00013	-3e-05	0.00052	5e-05	-0.00068	6
24311	5e-05	1e-05	7e-05	0.00013	-3e-05	0.00052	5e-05	-0.00068	6
24312	5e-05	1e-05	7e-05	0.00013	-3e-05	0.00052	5e-05	-0.00068	6
24313	5e-05	1e-05	7e-05	0.00013	-3e-05	0.00052	5e-05	-0.00068	6
24314	5e-05	1e-05	7e-05	0.00013	-3e-05	0.00052	5e-05	-0.00068	6
24315	7e-05	3e-05	-2e-05	4e-05	0.00036	0.00015	-3e-05	9e-05	6
24316	7e-05	3e-05	-2e-05	4e-05	0.00036	0.00015	-3e-05	9e-05	6
24317	7e-05	3e-05	-2e-05	4e-05	0.00036	0.00015	-3e-05	9e-05	6
24318	7e-05	3e-05	-2e-05	4e-05	0.00036	0.00015	-3e-05	9e-05	6
24319	7e-05	3e-05	-2e-05	4e-05	0.00036	0.00015	-3e-05	9e-05	6
24320	7e-05	3e-05	-2e-05	4e-05	0.00036	0.00015	-3e-05	9e-05	6
24321	7e-05	3e-05	-2e-05	4e-05	0.00036	0.00015	-3e-05	9e-05	6
24322	7e-05	3e-05	-2e-05	4e-05	0.00036	0.00015	-3e-05	9e-05	6
24323	7e-05	3e-05	-2e-05	4e-05	0.00036	0.00015	-3e-05	9e-05	6
24324	-0.00014	-3e-05	-9e-05	-8e-05	-4e-05	1e-05	-6e-05	0.00076	6
24325	-0.00014	-3e-05	-9e-05	-8e-05	-4e-05	1e-05	-6e-05	0.00076	6
24326	-0.00014	-3e-05	-9e-05	-8e-05	-4e-05	1e-05	-6e-05	0.00076	6
24327	-0.00014	-3e-05	-9e-05	-8e-05	-4e-05	1e-05	-6e-05	0.00076	6
24328	-0.00014	-3e-05	-9e-05	-8e-05	-4e-05	1e-05	-6e-05	0.00076	6
24329	-0.00014	-3e-05	-9e-05	-8e-05	-4e-05	1e-05	-6e-05	0.00076	6
24330	-0.00014	-3e-05	-9e-05	-8e-05	-4e-05	1e-05	-6e-05	0.00076	6
24331	-0.00014	-3e-05	-9e-05	-8e-05	-4e-05	1e-05	-6e-05	0.00076	6
24332	-0.00014	-3e-05	-9e-05	-8e-05	-4e-05	1e-05	-6e-05	0.00076	6
24333	-0.00014	-3e-05	-9e-05	-8e-05	-4e-05	1e-05	-6e-05	0.00076	6
24334	-0.00014	-3e-05	-9e-05	-8e-05	-4e-05	1e-05	-6e-05	0.00076	6
24335	-0.00014	-3e-05	-9e-05	-8e-05	-4e-05	1e-05	-6e-05	0.00076	6
24336	-0.00014	-3e-05	-9e-05	-8e-05	-4e-05	1e-05	-6e-05	0.00076	6
24338	-0.00014	-3e-05	-9e-05	-8e-05	-4e-05	1e-05	-6e-05	0.00076	6
24339	-4e-05	-6e-05	0	1e-05	0.00012	0.00075	6e-05	-0.0001	6
24340	-3e-05	-4e-05	3e-05	1e-05	0.00015	0.00052	0.00022	9e-05	6
24341	-3e-05	-4e-05	3e-05	1e-05	0.00015	0.00052	0.00022	9e-05	6
24342	-3e-05	-4e-05	3e-05	1e-05	0.00015	0.00052	0.00022	9e-05	6
24343	-3e-05	-4e-05	3e-05	1e-05	0.00015	0.00052	0.00022	9e-05	6
24344	-3e-05	-4e-05	3e-05	1e-05	0.00015	0.00052	0.00022	9e-05	6
24345	-3e-05	-4e-05	3e-05	1e-05	0.00015	0.00052	0.00022	9e-05	6
24346	-3e-05	-4e-05	3e-05	1e-05	0.00015	0.00052	0.00022	9e-05	6
24347	-3e-05	-4e-05	3e-05	1e-05	0.00015	0.00052	0.00022	9e-05	6
24348	-3e-05	-4e-05	3e-05	1e-05	0.00015	0.00052	0.00022	9e-05	6
24349	-3e-05	-4e-05	3e-05	1e-05	0.00015	0.00052	0.00022	9e-05	6
24350	-3e-05	-4e-05	3e-05	1e-05	0.00015	0.00052	0.00022	9e-05	6
24351	-3e-05	-4e-05	3e-05	1e-05	0.00015	0.00052	0.00022	9e-05	6
24352	-3e-05	-4e-05	3e-05	1e-05	0.00015	0.00052	0.00022	9e-05	6
24353	-3e-05	-4e-05	3e-05	1e-05	0.00015	0.00052	0.00022	9e-05	6
24354	-3e-05	-4e-05	3e-05	1e-05	0.00015	0.00052	0.00022	9e-05	6
24355	-3e-05	-4e-05	3e-05	1e-05	0.00015	0.00052	0.00022	9e-05	6
24356	-3e-05	-4e-05	3e-05	1e-05	0.00015	0.00052	0.00022	9e-05	6
24357	-3e-05	-4e-05	3e-05	1e-05	0.00015	0.00052	0.00022	9e-05	6
24358	-3e-05	-4e-05	3e-05	1e-05	0.00015	0.00052	0.00022	9e-05	6
24359	-3e-05	-4e-05	3e-05	1e-05	0.00015	0.00052	0.00022	9e-05	6
24360	-3e-05	-4e-05	3e-05	1e-05	0.00015	0.00052	0.00022	9e-05	6
24361	-5e-05	1e-05	1e-05	6e-05	0.00056	0.00092	5e-05	8e-05	6
24362	-5e-05	1e-05	1e-05	6e-05	0.00056	0.00092	5e-05	8e-05	6
24363	9e-05	-6e-05	-4e-05	0	0.00011	-0.0001	-1e-05	0.00017	6
24364	9e-05	-6e-05	-4e-05	0	0.00011	-0.0001	-1e-05	0.00017	6
24365	9e-05	-6e-05	-4e-05	0	0.00011	-0.0001	-1e-05	0.00017	6
24366	9e-05	-6e-05	-4e-05	0	0.00011	-0.0001	-1e-05	0.00017	6
24367	9e-05	-6e-05	-4e-05	0	0.00011	-0.0001	-1e-05	0.00017	6
24368	9e-05	-6e-05	-4e-05	0	0.00011	-0.0001	-1e-05	0.00017	6
24369	9e-05	-6e-05	-4e-05	0	0.00011	-0.0001	-1e-05	0.00017	6
24370	9e-05	-6e-05	-4e-05	0	0.00011	-0.0001	-1e-05	0.00017	6
24371	9e-05	-6e-05	-4e-05	0	0.00011	-0.0001	-1e-05	0.00017	6
24372	9e-05	-6e-05	-4e-05	0	0.00011	-0.0001	-1e-05	0.00017	6
24373	9e-05	-6e-05	-4e-05	0	0.00011	-0.0001	-1e-05	0.00017	6
24374	9e-05	-6e-05	-4e-05	0	0.00011	-0.0001	-1e-05	0.00017	6
24375	6e-05	9e-05	6e-05	1e-05	2e-05	-0.00024	-9e-05	0.0002	6
24376	6e-05	9e-05	6e-05	1e-05	2e-05	-0.00024	-9e-05	0.0002	6
24377	6e-05	9e-05	6e-05	1e-05	2e-05	-0.00024	-9e-05	0.0002	6
24378	6e-05	9e-05	6e-05	1e-05	2e-05	-0.00024	-9e-05	0.0002	6
24379	6e-05	9e-05	6e-05	1e-05	2e-05	-0.00024	-9e-05	0.0002	6
24380	6e-05	9e-05	6e-05	1e-05	2e-05	-0.00024	-9e-05	0.0002	6
24381	6e-05	9e-05	6e-05	1e-05	2e-05	-0.00024	-9e-05	0.0002	6
24382	6e-05	9e-05	6e-05	1e-05	2e-05	-0.00024	-9e-05	0.0002	6
24383	6e-05	9e-05	6e-05	1e-05	2e-05	-0.00024	-9e-05	0.0002	6
24384	-3e-05	4e-05	5e-05	7e-05	1e-05	-5e-05	0.00013	0.00042	6
24385	-3e-05	4e-05	5e-05	7e-05	1e-05	-5e-05	0.00013	0.00042	6
24386	-3e-05	4e-05	5e-05	7e-05	1e-05	-5e-05	0.00013	0.00042	6
24388	-3e-05	4e-05	5e-05	7e-05	1e-05	-5e-05	0.00013	0.00042	6
24389	-3e-05	4e-05	5e-05	7e-05	1e-05	-5e-05	0.00013	0.00042	6
24390	-3e-05	4e-05	5e-05	7e-05	1e-05	-5e-05	0.00013	0.00042	6
24391	-3e-05	4e-05	5e-05	7e-05	1e-05	-5e-05	0.00013	0.00042	6
24392	-3e-05	4e-05	5e-05	7e-05	1e-05	-5e-05	0.00013	0.00042	6
24393	-3e-05	4e-05	5e-05	7e-05	1e-05	-5e-05	0.00013	0.00042	6
24394	-3e-05	4e-05	5e-05	7e-05	1e-05	-5e-05	0.00013	0.00042	6
24395	-3e-05	4e-05	5e-05	7e-05	1e-05	-5e-05	0.00013	0.00042	6
24396	-3e-05	4e-05	5e-05	7e-05	1e-05	-5e-05	0.00013	0.00042	6
24397	-3e-05	4e-05	5e-05	7e-05	1e-05	-5e-05	0.00013	0.00042	6
24398	-3e-05	4e-05	5e-05	7e-05	1e-05	-5e-05	0.00013	0.00042	6
24399	7e-05	-6e-05	-0.00015	-7e-05	-9e-05	-0.00027	8e-05	0.0002	6
24400	8e-05	-5e-05	-9e-05	-0.0001	-0.00038	-6e-05	-1e-05	0.00041	6
24401	8e-05	-5e-05	-9e-05	-0.0001	-0.00038	-6e-05	-1e-05	0.00041	6
24402	8e-05	-5e-05	-9e-05	-0.0001	-0.00038	-6e-05	-1e-05	0.00041	6
24403	8e-05	-5e-05	-9e-05	-0.0001	-0.00038	-6e-05	-1e-05	0.00041	6
24404	8e-05	-5e-05	-9e-05	-0.0001	-0.00038	-6e-05	-1e-05	0.00041	6
24405	8e-05	-5e-05	-9e-05	-0.0001	-0.00038	-6e-05	-1e-05	0.00041	6
24406	8e-05	-5e-05	-9e-05	-0.0001	-0.00038	-6e-05	-1e-05	0.00041	6
24407	8e-05	-5e-05	-9e-05	-0.0001	-0.00038	-6e-05	-1e-05	0.00041	6
24408	8e-05	-5e-05	-9e-05	-0.0001	-0.00038	-6e-05	-1e-05	0.00041	6
24409	8e-05	-5e-05	-9e-05	-0.0001	-0.00038	-6e-05	-1e-05	0.00041	6
24410	8e-05	-5e-05	-9e-05	-0.0001	-0.00038	-6e-05	-1e-05	0.00041	6
24411	8e-05	-5e-05	-9e-05	-0.0001	-0.00038	-6e-05	-1e-05	0.00041	6
24412	8e-05	-5e-05	-9e-05	-0.0001	-0.00038	-6e-05	-1e-05	0.00041	6
24413	8e-05	-5e-05	-9e-05	-0.0001	-0.00038	-6e-05	-1e-05	0.00041	6
24415	8e-05	-5e-05	-9e-05	-0.0001	-0.00038	-6e-05	-1e-05	0.00041	6
24416	8e-05	-5e-05	-9e-05	-0.0001	-0.00038	-6e-05	-1e-05	0.00041	6
24417	8e-05	-5e-05	-9e-05	-0.0001	-0.00038	-6e-05	-1e-05	0.00041	6
24418	8e-05	-5e-05	-9e-05	-0.0001	-0.00038	-6e-05	-1e-05	0.00041	6
24419	8e-05	-5e-05	-9e-05	-0.0001	-0.00038	-6e-05	-1e-05	0.00041	6
24420	8e-05	-5e-05	-9e-05	-0.0001	-0.00038	-6e-05	-1e-05	0.00041	6
24421	-1e-05	1e-05	-1e-05	-5e-05	-0.00013	-0.00021	7e-05	-0.00051	6
24422	-1e-05	1e-05	-1e-05	-5e-05	-0.00013	-0.00021	7e-05	-0.00051	6
24423	-0.00013	6e-05	2e-05	1e-05	4e-05	-0.00038	0.00028	-9e-05	6
24424	-0.00013	6e-05	2e-05	1e-05	4e-05	-0.00038	0.00028	-9e-05	6
24425	-0.00013	6e-05	2e-05	1e-05	4e-05	-0.00038	0.00028	-9e-05	6
24426	-0.00013	6e-05	2e-05	1e-05	4e-05	-0.00038	0.00028	-9e-05	6
24427	-0.00013	6e-05	2e-05	1e-05	4e-05	-0.00038	0.00028	-9e-05	6
24428	-0.00013	6e-05	2e-05	1e-05	4e-05	-0.00038	0.00028	-9e-05	6
24429	-0.00013	6e-05	2e-05	1e-05	4e-05	-0.00038	0.00028	-9e-05	6
24430	-0.00013	6e-05	2e-05	1e-05	4e-05	-0.00038	0.00028	-9e-05	6
24431	-0.00013	6e-05	2e-05	1e-05	4e-05	-0.00038	0.00028	-9e-05	6
24432	-0.00013	6e-05	2e-05	1e-05	4e-05	-0.00038	0.00028	-9e-05	6
24433	-0.00013	6e-05	2e-05	1e-05	4e-05	-0.00038	0.00028	-9e-05	6
24434	-0.00013	6e-05	2e-05	1e-05	4e-05	-0.00038	0.00028	-9e-05	6
24435	-0.00013	6e-05	2e-05	1e-05	4e-05	-0.00038	0.00028	-9e-05	6
24436	-0.00013	6e-05	2e-05	1e-05	4e-05	-0.00038	0.00028	-9e-05	6
24438	-0.00013	6e-05	2e-05	1e-05	4e-05	-0.00038	0.00028	-9e-05	6
24439	-0.00013	6e-05	2e-05	1e-05	4e-05	-0.00038	0.00028	-9e-05	6
24440	-0.00013	6e-05	2e-05	1e-05	4e-05	-0.00038	0.00028	-9e-05	6
24441	-0.00013	6e-05	2e-05	1e-05	4e-05	-0.00038	0.00028	-9e-05	6
24442	-0.00013	6e-05	2e-05	1e-05	4e-05	-0.00038	0.00028	-9e-05	6
24443	-0.00013	6e-05	2e-05	1e-05	4e-05	-0.00038	0.00028	-9e-05	6
24444	-6e-05	-2e-05	-2e-05	-5e-05	6e-05	-0.00029	-0.00012	-0.0005	6
24445	0.00014	9e-05	0.00015	0.00013	0.00022	-0.00041	-0.00026	-5e-05	6
24446	0.00014	9e-05	0.00015	0.00013	0.00022	-0.00041	-0.00026	-5e-05	6
24447	0.00014	9e-05	0.00015	0.00013	0.00022	-0.00041	-0.00026	-5e-05	6
24448	0.00014	9e-05	0.00015	0.00013	0.00022	-0.00041	-0.00026	-5e-05	6
24449	0.00014	9e-05	0.00015	0.00013	0.00022	-0.00041	-0.00026	-5e-05	6
24450	0.00014	9e-05	0.00015	0.00013	0.00022	-0.00041	-0.00026	-5e-05	6
24451	0.00014	9e-05	0.00015	0.00013	0.00022	-0.00041	-0.00026	-5e-05	6
24452	0.00014	9e-05	0.00015	0.00013	0.00022	-0.00041	-0.00026	-5e-05	6
24453	0.00014	9e-05	0.00015	0.00013	0.00022	-0.00041	-0.00026	-5e-05	6
24454	0.00014	9e-05	0.00015	0.00013	0.00022	-0.00041	-0.00026	-5e-05	6
24455	0.00014	9e-05	0.00015	0.00013	0.00022	-0.00041	-0.00026	-5e-05	6
24456	0.00014	9e-05	0.00015	0.00013	0.00022	-0.00041	-0.00026	-5e-05	6
24457	0.00014	9e-05	0.00015	0.00013	0.00022	-0.00041	-0.00026	-5e-05	6
24458	-0.00011	-4e-05	-2e-05	-0.0001	-0.00024	-0.00025	-4e-05	3e-05	6
24459	-0.00011	-4e-05	-2e-05	-0.0001	-0.00024	-0.00025	-4e-05	3e-05	6
24460	-0.00011	-4e-05	-2e-05	-0.0001	-0.00024	-0.00025	-4e-05	3e-05	6
24461	-0.00011	-4e-05	-2e-05	-0.0001	-0.00024	-0.00025	-4e-05	3e-05	6
24462	-0.00011	-4e-05	-2e-05	-0.0001	-0.00024	-0.00025	-4e-05	3e-05	6
24463	-0.00011	-4e-05	-2e-05	-0.0001	-0.00024	-0.00025	-4e-05	3e-05	6
24464	-0.00011	-4e-05	-2e-05	-0.0001	-0.00024	-0.00025	-4e-05	3e-05	6
24465	-9e-05	0	0	-5e-05	-4e-05	-7e-05	3e-05	9e-05	6
24466	-9e-05	0	0	-5e-05	-4e-05	-7e-05	3e-05	9e-05	6
24467	-9e-05	0	0	-5e-05	-4e-05	-7e-05	3e-05	9e-05	6
24468	-9e-05	0	0	-5e-05	-4e-05	-7e-05	3e-05	9e-05	6
24469	-9e-05	0	0	-5e-05	-4e-05	-7e-05	3e-05	9e-05	6
24470	-9e-05	0	0	-5e-05	-4e-05	-7e-05	3e-05	9e-05	6
24471	-9e-05	0	0	-5e-05	-4e-05	-7e-05	3e-05	9e-05	6
24472	-9e-05	0	0	-5e-05	-4e-05	-7e-05	3e-05	9e-05	6
24473	-9e-05	0	0	-5e-05	-4e-05	-7e-05	3e-05	9e-05	6
24474	-9e-05	0	0	-5e-05	-4e-05	-7e-05	3e-05	9e-05	6
24475	-9e-05	0	0	-5e-05	-4e-05	-7e-05	3e-05	9e-05	6
24476	-9e-05	0	0	-5e-05	-4e-05	-7e-05	3e-05	9e-05	6
24477	-9e-05	0	0	-5e-05	-4e-05	-7e-05	3e-05	9e-05	6
24478	-9e-05	0	0	-5e-05	-4e-05	-7e-05	3e-05	9e-05	6
24479	-9e-05	0	0	-5e-05	-4e-05	-7e-05	3e-05	9e-05	6
24480	-9e-05	0	0	-5e-05	-4e-05	-7e-05	3e-05	9e-05	6
24481	2e-05	2e-05	2e-05	1e-05	0.00021	0.00057	0	8e-05	6
24482	-3e-05	9e-05	3e-05	3e-05	-8e-05	-0.00044	8e-05	-0.00028	6
24483	-0.00014	-0.00016	-0.00014	-8e-05	-0.00026	4e-05	-8e-05	-0.00041	6
24484	-0.00014	-0.00016	-0.00014	-8e-05	-0.00026	4e-05	-8e-05	-0.00041	6
24485	-0.00014	-0.00016	-0.00014	-8e-05	-0.00026	4e-05	-8e-05	-0.00041	6
24486	-0.00014	-0.00016	-0.00014	-8e-05	-0.00026	4e-05	-8e-05	-0.00041	6
24488	-0.00014	-0.00016	-0.00014	-8e-05	-0.00026	4e-05	-8e-05	-0.00041	6
24489	-0.00014	-0.00016	-0.00014	-8e-05	-0.00026	4e-05	-8e-05	-0.00041	6
24490	-0.00014	-0.00016	-0.00014	-8e-05	-0.00026	4e-05	-8e-05	-0.00041	6
24491	-0.00014	-0.00016	-0.00014	-8e-05	-0.00026	4e-05	-8e-05	-0.00041	6
24492	-0.00014	-0.00016	-0.00014	-8e-05	-0.00026	4e-05	-8e-05	-0.00041	6
24493	-0.00014	-0.00016	-0.00014	-8e-05	-0.00026	4e-05	-8e-05	-0.00041	6
24494	-0.00014	-0.00016	-0.00014	-8e-05	-0.00026	4e-05	-8e-05	-0.00041	6
24495	-0.00014	-0.00016	-0.00014	-8e-05	-0.00026	4e-05	-8e-05	-0.00041	6
24496	-0.00014	-0.00016	-0.00014	-8e-05	-0.00026	4e-05	-8e-05	-0.00041	6
24497	-0.00014	-0.00016	-0.00014	-8e-05	-0.00026	4e-05	-8e-05	-0.00041	6
24498	-0.00014	-0.00016	-0.00014	-8e-05	-0.00026	4e-05	-8e-05	-0.00041	6
24499	-0.00014	-0.00016	-0.00014	-8e-05	-0.00026	4e-05	-8e-05	-0.00041	6
24500	-0.00014	-0.00016	-0.00014	-8e-05	-0.00026	4e-05	-8e-05	-0.00041	6
24501	-0.00014	-0.00016	-0.00014	-8e-05	-0.00026	4e-05	-8e-05	-0.00041	6
24502	-0.00014	-0.00016	-0.00014	-8e-05	-0.00026	4e-05	-8e-05	-0.00041	6
24503	-0.00014	-0.00016	-0.00014	-8e-05	-0.00026	4e-05	-8e-05	-0.00041	6
24504	2e-05	-2e-05	1e-05	-2e-05	-0.00013	-0.00039	-0.00024	0.0004	6
24505	2e-05	-2e-05	1e-05	-2e-05	-0.00013	-0.00039	-0.00024	0.0004	6
24506	-0.00011	-4e-05	2e-05	5e-05	-6e-05	3e-05	-0.00019	-0.00012	6
24507	-0.00011	-4e-05	2e-05	5e-05	-6e-05	3e-05	-0.00019	-0.00012	6
24508	-0.00011	-4e-05	2e-05	5e-05	-6e-05	3e-05	-0.00019	-0.00012	6
24509	-0.00011	-4e-05	2e-05	5e-05	-6e-05	3e-05	-0.00019	-0.00012	6
24510	-0.00011	-4e-05	2e-05	5e-05	-6e-05	3e-05	-0.00019	-0.00012	6
24511	-0.00011	-4e-05	2e-05	5e-05	-6e-05	3e-05	-0.00019	-0.00012	6
24512	-0.00011	-4e-05	2e-05	5e-05	-6e-05	3e-05	-0.00019	-0.00012	6
24513	-0.00011	-4e-05	2e-05	5e-05	-6e-05	3e-05	-0.00019	-0.00012	6
24514	-0.00011	-4e-05	2e-05	5e-05	-6e-05	3e-05	-0.00019	-0.00012	6
24515	-0.00011	-4e-05	2e-05	5e-05	-6e-05	3e-05	-0.00019	-0.00012	6
24516	-0.00011	-4e-05	2e-05	5e-05	-6e-05	3e-05	-0.00019	-0.00012	6
24517	-0.00011	-4e-05	2e-05	5e-05	-6e-05	3e-05	-0.00019	-0.00012	6
24518	-0.00011	-4e-05	2e-05	5e-05	-6e-05	3e-05	-0.00019	-0.00012	6
24519	-9e-05	-7e-05	-1e-05	-2e-05	-7e-05	-0.00042	-0.0001	-0.00011	6
24520	-7e-05	-5e-05	-2e-05	-4e-05	0.00026	0.00064	9e-05	-0.00018	6
24521	2e-05	4e-05	-1e-05	-0.00015	-0.00047	-0.00036	-0.0002	-0.00018	6
24522	2e-05	4e-05	-1e-05	-0.00015	-0.00047	-0.00036	-0.0002	-0.00018	6
24523	2e-05	4e-05	-1e-05	-0.00015	-0.00047	-0.00036	-0.0002	-0.00018	6
24524	2e-05	4e-05	-1e-05	-0.00015	-0.00047	-0.00036	-0.0002	-0.00018	6
24525	2e-05	4e-05	-1e-05	-0.00015	-0.00047	-0.00036	-0.0002	-0.00018	6
24526	2e-05	4e-05	-1e-05	-0.00015	-0.00047	-0.00036	-0.0002	-0.00018	6
24527	2e-05	4e-05	-1e-05	-0.00015	-0.00047	-0.00036	-0.0002	-0.00018	6
24528	2e-05	4e-05	-1e-05	-0.00015	-0.00047	-0.00036	-0.0002	-0.00018	6
24529	2e-05	4e-05	-1e-05	-0.00015	-0.00047	-0.00036	-0.0002	-0.00018	6
24530	2e-05	4e-05	-1e-05	-0.00015	-0.00047	-0.00036	-0.0002	-0.00018	6
24531	2e-05	4e-05	-1e-05	-0.00015	-0.00047	-0.00036	-0.0002	-0.00018	6
24532	2e-05	4e-05	-1e-05	-0.00015	-0.00047	-0.00036	-0.0002	-0.00018	6
24533	2e-05	4e-05	-1e-05	-0.00015	-0.00047	-0.00036	-0.0002	-0.00018	6
24534	2e-05	4e-05	-1e-05	-0.00015	-0.00047	-0.00036	-0.0002	-0.00018	6
24535	2e-05	4e-05	-1e-05	-0.00015	-0.00047	-0.00036	-0.0002	-0.00018	6
24536	2e-05	4e-05	-1e-05	-0.00015	-0.00047	-0.00036	-0.0002	-0.00018	6
24538	2e-05	4e-05	-1e-05	-0.00015	-0.00047	-0.00036	-0.0002	-0.00018	6
24539	2e-05	4e-05	-1e-05	-0.00015	-0.00047	-0.00036	-0.0002	-0.00018	6
24540	2e-05	4e-05	-1e-05	-0.00015	-0.00047	-0.00036	-0.0002	-0.00018	6
24541	-0.00016	-2e-05	-2e-05	0	-3e-05	0.00016	3e-05	0.00037	6
24542	-0.00016	-2e-05	-2e-05	0	-3e-05	0.00016	3e-05	0.00037	6
24543	-6e-05	0	-1e-05	1e-05	0.00028	-0.00026	5e-05	8e-05	6
24544	-6e-05	0	-1e-05	1e-05	0.00028	-0.00026	5e-05	8e-05	6
24545	-6e-05	0	-1e-05	1e-05	0.00028	-0.00026	5e-05	8e-05	6
24546	-6e-05	0	-1e-05	1e-05	0.00028	-0.00026	5e-05	8e-05	6
24547	-6e-05	0	-1e-05	1e-05	0.00028	-0.00026	5e-05	8e-05	6
24548	-6e-05	0	-1e-05	1e-05	0.00028	-0.00026	5e-05	8e-05	6
24549	-6e-05	0	-1e-05	1e-05	0.00028	-0.00026	5e-05	8e-05	6
24550	-6e-05	0	-1e-05	1e-05	0.00028	-0.00026	5e-05	8e-05	6
24551	-6e-05	0	-1e-05	1e-05	0.00028	-0.00026	5e-05	8e-05	6
24552	-6e-05	0	-1e-05	1e-05	0.00028	-0.00026	5e-05	8e-05	6
24553	-6e-05	0	-1e-05	1e-05	0.00028	-0.00026	5e-05	8e-05	6
24554	-6e-05	0	-1e-05	1e-05	0.00028	-0.00026	5e-05	8e-05	6
24555	-6e-05	0	-1e-05	1e-05	0.00028	-0.00026	5e-05	8e-05	6
24556	-6e-05	0	-1e-05	1e-05	0.00028	-0.00026	5e-05	8e-05	6
24557	-6e-05	0	-1e-05	1e-05	0.00028	-0.00026	5e-05	8e-05	6
24558	-6e-05	0	-1e-05	1e-05	0.00028	-0.00026	5e-05	8e-05	6
24559	-6e-05	0	-1e-05	1e-05	0.00028	-0.00026	5e-05	8e-05	6
24560	-6e-05	0	-1e-05	1e-05	0.00028	-0.00026	5e-05	8e-05	6
24561	-6e-05	0	-1e-05	1e-05	0.00028	-0.00026	5e-05	8e-05	6
24562	-6e-05	0	-1e-05	1e-05	0.00028	-0.00026	5e-05	8e-05	6
24563	-6e-05	0	-1e-05	1e-05	0.00028	-0.00026	5e-05	8e-05	6
24564	-0.0001	-1e-05	0	-2e-05	-0.00014	-0.0002	9e-05	-0.00037	6
24565	9e-05	1e-05	-2e-05	1e-05	0.00025	0.0005	9e-05	0.00053	6
24566	9e-05	1e-05	-2e-05	1e-05	0.00025	0.0005	9e-05	0.00053	6
24567	9e-05	1e-05	-2e-05	1e-05	0.00025	0.0005	9e-05	0.00053	6
24568	9e-05	1e-05	-2e-05	1e-05	0.00025	0.0005	9e-05	0.00053	6
24569	9e-05	1e-05	-2e-05	1e-05	0.00025	0.0005	9e-05	0.00053	6
24570	9e-05	1e-05	-2e-05	1e-05	0.00025	0.0005	9e-05	0.00053	6
24571	9e-05	1e-05	-2e-05	1e-05	0.00025	0.0005	9e-05	0.00053	6
24572	9e-05	1e-05	-2e-05	1e-05	0.00025	0.0005	9e-05	0.00053	6
24573	9e-05	1e-05	-2e-05	1e-05	0.00025	0.0005	9e-05	0.00053	6
24574	9e-05	1e-05	-2e-05	1e-05	0.00025	0.0005	9e-05	0.00053	6
24575	9e-05	1e-05	-2e-05	1e-05	0.00025	0.0005	9e-05	0.00053	6
24576	9e-05	1e-05	-2e-05	1e-05	0.00025	0.0005	9e-05	0.00053	6
24577	9e-05	1e-05	-2e-05	1e-05	0.00025	0.0005	9e-05	0.00053	6
24578	-9e-05	0	0	-8e-05	-0.00038	-0.00032	0.00017	-0.00022	6
24579	-9e-05	0	0	-8e-05	-0.00038	-0.00032	0.00017	-0.00022	6
24580	-9e-05	0	0	-8e-05	-0.00038	-0.00032	0.00017	-0.00022	6
24581	-9e-05	0	0	-8e-05	-0.00038	-0.00032	0.00017	-0.00022	6
24582	-9e-05	0	0	-8e-05	-0.00038	-0.00032	0.00017	-0.00022	6
24583	-9e-05	0	0	-8e-05	-0.00038	-0.00032	0.00017	-0.00022	6
24584	-9e-05	0	0	-8e-05	-0.00038	-0.00032	0.00017	-0.00022	6
24585	7e-05	3e-05	3e-05	-2e-05	6e-05	4e-05	0.00011	-0.00014	6
24586	7e-05	3e-05	3e-05	-2e-05	6e-05	4e-05	0.00011	-0.00014	6
24588	7e-05	3e-05	3e-05	-2e-05	6e-05	4e-05	0.00011	-0.00014	6
24589	7e-05	3e-05	3e-05	-2e-05	6e-05	4e-05	0.00011	-0.00014	6
24590	7e-05	3e-05	3e-05	-2e-05	6e-05	4e-05	0.00011	-0.00014	6
24591	7e-05	3e-05	3e-05	-2e-05	6e-05	4e-05	0.00011	-0.00014	6
24592	7e-05	3e-05	3e-05	-2e-05	6e-05	4e-05	0.00011	-0.00014	6
24593	7e-05	3e-05	3e-05	-2e-05	6e-05	4e-05	0.00011	-0.00014	6
24594	7e-05	3e-05	3e-05	-2e-05	6e-05	4e-05	0.00011	-0.00014	6
24595	7e-05	3e-05	3e-05	-2e-05	6e-05	4e-05	0.00011	-0.00014	6
24596	7e-05	3e-05	3e-05	-2e-05	6e-05	4e-05	0.00011	-0.00014	6
24597	7e-05	3e-05	3e-05	-2e-05	6e-05	4e-05	0.00011	-0.00014	6
24598	7e-05	3e-05	3e-05	-2e-05	6e-05	4e-05	0.00011	-0.00014	6
24599	7e-05	3e-05	3e-05	-2e-05	6e-05	4e-05	0.00011	-0.00014	6
24600	7e-05	3e-05	3e-05	-2e-05	6e-05	4e-05	0.00011	-0.00014	6
24601	-0.0002	-4e-05	-4e-05	-8e-05	-6e-05	0.00012	-0.00011	-0.00029	6
24602	-0.0002	-4e-05	-4e-05	-8e-05	-6e-05	0.00012	-0.00011	-0.00029	6
24603	-2e-05	7e-05	4e-05	-2e-05	4e-05	-0.00012	2e-05	-0.00014	6
24604	-2e-05	7e-05	4e-05	-2e-05	4e-05	-0.00012	2e-05	-0.00014	6
24605	-2e-05	7e-05	4e-05	-2e-05	4e-05	-0.00012	2e-05	-0.00014	6
24606	-2e-05	7e-05	4e-05	-2e-05	4e-05	-0.00012	2e-05	-0.00014	6
24607	-2e-05	7e-05	4e-05	-2e-05	4e-05	-0.00012	2e-05	-0.00014	6
24608	-2e-05	7e-05	4e-05	-2e-05	4e-05	-0.00012	2e-05	-0.00014	6
24609	-2e-05	7e-05	4e-05	-2e-05	4e-05	-0.00012	2e-05	-0.00014	6
24610	-2e-05	7e-05	4e-05	-2e-05	4e-05	-0.00012	2e-05	-0.00014	6
24611	-2e-05	7e-05	4e-05	-2e-05	4e-05	-0.00012	2e-05	-0.00014	6
24612	-2e-05	7e-05	4e-05	-2e-05	4e-05	-0.00012	2e-05	-0.00014	6
24613	-2e-05	7e-05	4e-05	-2e-05	4e-05	-0.00012	2e-05	-0.00014	6
24614	-2e-05	7e-05	4e-05	-2e-05	4e-05	-0.00012	2e-05	-0.00014	6
24615	-2e-05	7e-05	4e-05	-2e-05	4e-05	-0.00012	2e-05	-0.00014	6
24616	-2e-05	7e-05	4e-05	-2e-05	4e-05	-0.00012	2e-05	-0.00014	6
24617	-2e-05	7e-05	4e-05	-2e-05	4e-05	-0.00012	2e-05	-0.00014	6
24618	-2e-05	7e-05	4e-05	-2e-05	4e-05	-0.00012	2e-05	-0.00014	6
24619	-2e-05	7e-05	4e-05	-2e-05	4e-05	-0.00012	2e-05	-0.00014	6
24620	-2e-05	7e-05	4e-05	-2e-05	4e-05	-0.00012	2e-05	-0.00014	6
24621	-2e-05	7e-05	4e-05	-2e-05	4e-05	-0.00012	2e-05	-0.00014	6
24622	-2e-05	7e-05	4e-05	-2e-05	4e-05	-0.00012	2e-05	-0.00014	6
24623	-2e-05	7e-05	4e-05	-2e-05	4e-05	-0.00012	2e-05	-0.00014	6
24624	6e-05	8e-05	4e-05	2e-05	-0.00011	-8e-05	-3e-05	0.00028	6
24625	4e-05	-3e-05	-4e-05	-3e-05	0.00038	-9e-05	-0.00016	0.0001	6
24626	4e-05	-3e-05	-4e-05	-3e-05	0.00038	-9e-05	-0.00016	0.0001	6
24627	4e-05	-3e-05	-4e-05	-3e-05	0.00038	-9e-05	-0.00016	0.0001	6
24628	4e-05	-3e-05	-4e-05	-3e-05	0.00038	-9e-05	-0.00016	0.0001	6
24629	4e-05	-3e-05	-4e-05	-3e-05	0.00038	-9e-05	-0.00016	0.0001	6
24630	4e-05	-3e-05	-4e-05	-3e-05	0.00038	-9e-05	-0.00016	0.0001	6
24631	4e-05	-3e-05	-4e-05	-3e-05	0.00038	-9e-05	-0.00016	0.0001	6
24632	4e-05	-3e-05	-4e-05	-3e-05	0.00038	-9e-05	-0.00016	0.0001	6
24633	4e-05	-3e-05	-4e-05	-3e-05	0.00038	-9e-05	-0.00016	0.0001	6
24634	4e-05	-3e-05	-4e-05	-3e-05	0.00038	-9e-05	-0.00016	0.0001	6
24635	4e-05	-3e-05	-4e-05	-3e-05	0.00038	-9e-05	-0.00016	0.0001	6
24636	4e-05	-3e-05	-4e-05	-3e-05	0.00038	-9e-05	-0.00016	0.0001	6
24638	0.00015	-5e-05	-2e-05	1e-05	0.00012	2e-05	-0.00014	0.00054	6
24639	0.00015	-5e-05	-2e-05	1e-05	0.00012	2e-05	-0.00014	0.00054	6
24640	0.00015	-5e-05	-2e-05	1e-05	0.00012	2e-05	-0.00014	0.00054	6
24641	0.00015	-5e-05	-2e-05	1e-05	0.00012	2e-05	-0.00014	0.00054	6
24642	0.00015	-5e-05	-2e-05	1e-05	0.00012	2e-05	-0.00014	0.00054	6
24643	0.00015	-5e-05	-2e-05	1e-05	0.00012	2e-05	-0.00014	0.00054	6
24644	0.00015	-5e-05	-2e-05	1e-05	0.00012	2e-05	-0.00014	0.00054	6
24645	1e-05	-3e-05	-1e-05	0.00011	0.00058	0.00014	-0.00019	-2e-05	6
24646	1e-05	-3e-05	-1e-05	0.00011	0.00058	0.00014	-0.00019	-2e-05	6
24647	1e-05	-3e-05	-1e-05	0.00011	0.00058	0.00014	-0.00019	-2e-05	6
24648	1e-05	-3e-05	-1e-05	0.00011	0.00058	0.00014	-0.00019	-2e-05	6
24649	1e-05	-3e-05	-1e-05	0.00011	0.00058	0.00014	-0.00019	-2e-05	6
24650	1e-05	-3e-05	-1e-05	0.00011	0.00058	0.00014	-0.00019	-2e-05	6
24651	1e-05	-3e-05	-1e-05	0.00011	0.00058	0.00014	-0.00019	-2e-05	6
24652	1e-05	-3e-05	-1e-05	0.00011	0.00058	0.00014	-0.00019	-2e-05	6
24653	1e-05	-3e-05	-1e-05	0.00011	0.00058	0.00014	-0.00019	-2e-05	6
24654	1e-05	-3e-05	-1e-05	0.00011	0.00058	0.00014	-0.00019	-2e-05	6
24655	1e-05	-3e-05	-1e-05	0.00011	0.00058	0.00014	-0.00019	-2e-05	6
24656	1e-05	-3e-05	-1e-05	0.00011	0.00058	0.00014	-0.00019	-2e-05	6
24657	1e-05	-3e-05	-1e-05	0.00011	0.00058	0.00014	-0.00019	-2e-05	6
24658	1e-05	-3e-05	-1e-05	0.00011	0.00058	0.00014	-0.00019	-2e-05	6
24659	1e-05	-3e-05	-1e-05	0.00011	0.00058	0.00014	-0.00019	-2e-05	6
24660	1e-05	-3e-05	-1e-05	0.00011	0.00058	0.00014	-0.00019	-2e-05	6
24661	0.00021	-2e-05	2e-05	8e-05	7e-05	0.00025	-8e-05	2e-05	6
24662	0.00021	-2e-05	2e-05	8e-05	7e-05	0.00025	-8e-05	2e-05	6
24663	-6e-05	-1e-05	-1e-05	-2e-05	-0.00027	0.00021	6e-05	0.0001	6
24664	-6e-05	-1e-05	-1e-05	-2e-05	-0.00027	0.00021	6e-05	0.0001	6
24665	-6e-05	-1e-05	-1e-05	-2e-05	-0.00027	0.00021	6e-05	0.0001	6
24666	-6e-05	-1e-05	-1e-05	-2e-05	-0.00027	0.00021	6e-05	0.0001	6
24667	-6e-05	-1e-05	-1e-05	-2e-05	-0.00027	0.00021	6e-05	0.0001	6
24668	-6e-05	-1e-05	-1e-05	-2e-05	-0.00027	0.00021	6e-05	0.0001	6
24669	-6e-05	-1e-05	-1e-05	-2e-05	-0.00027	0.00021	6e-05	0.0001	6
24670	-6e-05	-1e-05	-1e-05	-2e-05	-0.00027	0.00021	6e-05	0.0001	6
24671	-6e-05	-1e-05	-1e-05	-2e-05	-0.00027	0.00021	6e-05	0.0001	6
24672	-6e-05	-1e-05	-1e-05	-2e-05	-0.00027	0.00021	6e-05	0.0001	6
24673	-6e-05	-1e-05	-1e-05	-2e-05	-0.00027	0.00021	6e-05	0.0001	6
24674	-6e-05	-1e-05	-1e-05	-2e-05	-0.00027	0.00021	6e-05	0.0001	6
24675	-6e-05	-1e-05	-1e-05	-2e-05	-0.00027	0.00021	6e-05	0.0001	6
24676	-6e-05	-1e-05	-1e-05	-2e-05	-0.00027	0.00021	6e-05	0.0001	6
24677	-6e-05	-1e-05	-1e-05	-2e-05	-0.00027	0.00021	6e-05	0.0001	6
24678	-6e-05	-1e-05	-1e-05	-2e-05	-0.00027	0.00021	6e-05	0.0001	6
24679	-6e-05	-1e-05	-1e-05	-2e-05	-0.00027	0.00021	6e-05	0.0001	6
24680	-6e-05	-1e-05	-1e-05	-2e-05	-0.00027	0.00021	6e-05	0.0001	6
24681	-6e-05	-1e-05	-1e-05	-2e-05	-0.00027	0.00021	6e-05	0.0001	6
24682	-6e-05	-1e-05	-1e-05	-2e-05	-0.00027	0.00021	6e-05	0.0001	6
24683	-6e-05	-1e-05	-1e-05	-2e-05	-0.00027	0.00021	6e-05	0.0001	6
24684	6e-05	-4e-05	-4e-05	1e-05	-3e-05	-1e-05	-6e-05	-0.00011	6
24685	0.00018	0	1e-05	4e-05	1e-05	0.00031	-0.0001	3e-05	6
24686	0.00018	0	1e-05	4e-05	1e-05	0.00031	-0.0001	3e-05	6
24688	0.00018	0	1e-05	4e-05	1e-05	0.00031	-0.0001	3e-05	6
24689	0.00018	0	1e-05	4e-05	1e-05	0.00031	-0.0001	3e-05	6
24690	0.00018	0	1e-05	4e-05	1e-05	0.00031	-0.0001	3e-05	6
24691	0.00018	0	1e-05	4e-05	1e-05	0.00031	-0.0001	3e-05	6
24693	0.00018	0	1e-05	4e-05	1e-05	0.00031	-0.0001	3e-05	6
24694	0.00018	0	1e-05	4e-05	1e-05	0.00031	-0.0001	3e-05	6
24695	0.00018	0	1e-05	4e-05	1e-05	0.00031	-0.0001	3e-05	6
24696	0.00018	0	1e-05	4e-05	1e-05	0.00031	-0.0001	3e-05	6
24697	0.00018	0	1e-05	4e-05	1e-05	0.00031	-0.0001	3e-05	6
24698	-0.0001	-0.0001	-7e-05	-2e-05	0.00022	0.00017	-0.00041	7e-05	6
24699	-0.0001	-0.0001	-7e-05	-2e-05	0.00022	0.00017	-0.00041	7e-05	6
24700	-0.0001	-0.0001	-7e-05	-2e-05	0.00022	0.00017	-0.00041	7e-05	6
24701	-0.0001	-0.0001	-7e-05	-2e-05	0.00022	0.00017	-0.00041	7e-05	6
24702	-0.0001	-0.0001	-7e-05	-2e-05	0.00022	0.00017	-0.00041	7e-05	6
24703	-0.0001	-0.0001	-7e-05	-2e-05	0.00022	0.00017	-0.00041	7e-05	6
24704	-0.0001	-0.0001	-7e-05	-2e-05	0.00022	0.00017	-0.00041	7e-05	6
24705	-1e-05	-0.0002	5e-05	-1e-05	8e-05	0.00053	0.00012	0.00015	6
24706	-1e-05	-0.0002	5e-05	-1e-05	8e-05	0.00053	0.00012	0.00015	6
24707	-1e-05	-0.0002	5e-05	-1e-05	8e-05	0.00053	0.00012	0.00015	6
24708	-1e-05	-0.0002	5e-05	-1e-05	8e-05	0.00053	0.00012	0.00015	6
24709	-1e-05	-0.0002	5e-05	-1e-05	8e-05	0.00053	0.00012	0.00015	6
24710	-1e-05	-0.0002	5e-05	-1e-05	8e-05	0.00053	0.00012	0.00015	6
24711	-1e-05	-0.0002	5e-05	-1e-05	8e-05	0.00053	0.00012	0.00015	6
24712	-1e-05	-0.0002	5e-05	-1e-05	8e-05	0.00053	0.00012	0.00015	6
24713	-1e-05	-0.0002	5e-05	-1e-05	8e-05	0.00053	0.00012	0.00015	6
24714	-1e-05	-0.0002	5e-05	-1e-05	8e-05	0.00053	0.00012	0.00015	6
24715	-1e-05	-0.0002	5e-05	-1e-05	8e-05	0.00053	0.00012	0.00015	6
24716	-1e-05	-0.0002	5e-05	-1e-05	8e-05	0.00053	0.00012	0.00015	6
24717	-1e-05	-0.0002	5e-05	-1e-05	8e-05	0.00053	0.00012	0.00015	6
24718	-1e-05	-0.0002	5e-05	-1e-05	8e-05	0.00053	0.00012	0.00015	6
24719	-1e-05	-0.0002	5e-05	-1e-05	8e-05	0.00053	0.00012	0.00015	6
24720	-1e-05	-0.0002	5e-05	-1e-05	8e-05	0.00053	0.00012	0.00015	6
24721	-8e-05	5e-05	6e-05	-1e-05	0	-0.00035	0.00019	-8e-05	6
24722	-8e-05	5e-05	6e-05	-1e-05	0	-0.00035	0.00019	-8e-05	6
24723	7e-05	3e-05	3e-05	-4e-05	-1e-05	0.00014	-0.00011	0.00011	6
24724	7e-05	3e-05	3e-05	-4e-05	-1e-05	0.00014	-0.00011	0.00011	6
24725	7e-05	3e-05	3e-05	-4e-05	-1e-05	0.00014	-0.00011	0.00011	6
24726	7e-05	3e-05	3e-05	-4e-05	-1e-05	0.00014	-0.00011	0.00011	6
24727	7e-05	3e-05	3e-05	-4e-05	-1e-05	0.00014	-0.00011	0.00011	6
24728	7e-05	3e-05	3e-05	-4e-05	-1e-05	0.00014	-0.00011	0.00011	6
24729	7e-05	3e-05	3e-05	-4e-05	-1e-05	0.00014	-0.00011	0.00011	6
24730	7e-05	3e-05	3e-05	-4e-05	-1e-05	0.00014	-0.00011	0.00011	6
24731	7e-05	3e-05	3e-05	-4e-05	-1e-05	0.00014	-0.00011	0.00011	6
24732	7e-05	3e-05	3e-05	-4e-05	-1e-05	0.00014	-0.00011	0.00011	6
24733	7e-05	3e-05	3e-05	-4e-05	-1e-05	0.00014	-0.00011	0.00011	6
24734	7e-05	3e-05	3e-05	-4e-05	-1e-05	0.00014	-0.00011	0.00011	6
24735	7e-05	3e-05	3e-05	-4e-05	-1e-05	0.00014	-0.00011	0.00011	6
24736	7e-05	3e-05	3e-05	-4e-05	-1e-05	0.00014	-0.00011	0.00011	6
24738	7e-05	3e-05	3e-05	-4e-05	-1e-05	0.00014	-0.00011	0.00011	6
24739	7e-05	3e-05	3e-05	-4e-05	-1e-05	0.00014	-0.00011	0.00011	6
24740	7e-05	3e-05	3e-05	-4e-05	-1e-05	0.00014	-0.00011	0.00011	6
24741	7e-05	3e-05	3e-05	-4e-05	-1e-05	0.00014	-0.00011	0.00011	6
24742	7e-05	3e-05	3e-05	-4e-05	-1e-05	0.00014	-0.00011	0.00011	6
24743	7e-05	3e-05	3e-05	-4e-05	-1e-05	0.00014	-0.00011	0.00011	6
24744	-1e-05	-1e-05	1e-05	0.00011	8e-05	-0.00013	7e-05	0.00022	6
24745	-1e-05	0	-3e-05	-6e-05	-0.00022	-0.00015	5e-05	-0.00013	6
24746	-1e-05	0	-3e-05	-6e-05	-0.00022	-0.00015	5e-05	-0.00013	6
24747	-1e-05	0	-3e-05	-6e-05	-0.00022	-0.00015	5e-05	-0.00013	6
24748	-1e-05	0	-3e-05	-6e-05	-0.00022	-0.00015	5e-05	-0.00013	6
24749	-1e-05	0	-3e-05	-6e-05	-0.00022	-0.00015	5e-05	-0.00013	6
24750	-1e-05	0	-3e-05	-6e-05	-0.00022	-0.00015	5e-05	-0.00013	6
24751	-1e-05	0	-3e-05	-6e-05	-0.00022	-0.00015	5e-05	-0.00013	6
24752	-1e-05	0	-3e-05	-6e-05	-0.00022	-0.00015	5e-05	-0.00013	6
24753	-1e-05	0	-3e-05	-6e-05	-0.00022	-0.00015	5e-05	-0.00013	6
24754	-1e-05	0	-3e-05	-6e-05	-0.00022	-0.00015	5e-05	-0.00013	6
24755	-1e-05	0	-3e-05	-6e-05	-0.00022	-0.00015	5e-05	-0.00013	6
24756	-1e-05	0	-3e-05	-6e-05	-0.00022	-0.00015	5e-05	-0.00013	6
24757	-1e-05	0	-3e-05	-6e-05	-0.00022	-0.00015	5e-05	-0.00013	6
24758	8e-05	0	-7e-05	-8e-05	-0.00025	-0.00029	8e-05	-0.00026	6
24759	8e-05	0	-7e-05	-8e-05	-0.00025	-0.00029	8e-05	-0.00026	6
24760	8e-05	0	-7e-05	-8e-05	-0.00025	-0.00029	8e-05	-0.00026	6
24761	8e-05	0	-7e-05	-8e-05	-0.00025	-0.00029	8e-05	-0.00026	6
24762	8e-05	0	-7e-05	-8e-05	-0.00025	-0.00029	8e-05	-0.00026	6
24763	8e-05	0	-7e-05	-8e-05	-0.00025	-0.00029	8e-05	-0.00026	6
24764	8e-05	0	-7e-05	-8e-05	-0.00025	-0.00029	8e-05	-0.00026	6
24765	8e-05	0	-7e-05	-8e-05	-0.00025	-0.00029	8e-05	-0.00026	6
24766	-0.00018	-3e-05	-6e-05	0	-0.00014	-0.00051	-0.00023	-0.0001	6
24767	-0.00018	-3e-05	-6e-05	0	-0.00014	-0.00051	-0.00023	-0.0001	6
24768	-0.00018	-3e-05	-6e-05	0	-0.00014	-0.00051	-0.00023	-0.0001	6
24769	-0.00018	-3e-05	-6e-05	0	-0.00014	-0.00051	-0.00023	-0.0001	6
24770	-0.00018	-3e-05	-6e-05	0	-0.00014	-0.00051	-0.00023	-0.0001	6
24771	-0.00018	-3e-05	-6e-05	0	-0.00014	-0.00051	-0.00023	-0.0001	6
24772	-0.00018	-3e-05	-6e-05	0	-0.00014	-0.00051	-0.00023	-0.0001	6
24773	-0.00018	-3e-05	-6e-05	0	-0.00014	-0.00051	-0.00023	-0.0001	6
24774	-0.00018	-3e-05	-6e-05	0	-0.00014	-0.00051	-0.00023	-0.0001	6
24775	-0.00018	-3e-05	-6e-05	0	-0.00014	-0.00051	-0.00023	-0.0001	6
24776	-0.00018	-3e-05	-6e-05	0	-0.00014	-0.00051	-0.00023	-0.0001	6
24777	-0.00018	-3e-05	-6e-05	0	-0.00014	-0.00051	-0.00023	-0.0001	6
24778	-0.00018	-3e-05	-6e-05	0	-0.00014	-0.00051	-0.00023	-0.0001	6
24779	-0.00018	-3e-05	-6e-05	0	-0.00014	-0.00051	-0.00023	-0.0001	6
24780	-0.00018	-3e-05	-6e-05	0	-0.00014	-0.00051	-0.00023	-0.0001	6
24781	-0.00031	2e-05	2e-05	2e-05	0	-0.00032	-7e-05	-0.00081	6
24782	-0.00031	2e-05	2e-05	2e-05	0	-0.00032	-7e-05	-0.00081	6
24783	-6e-05	-3e-05	2e-05	0	-7e-05	-9e-05	3e-05	-0.00064	6
24784	-6e-05	-3e-05	2e-05	0	-7e-05	-9e-05	3e-05	-0.00064	6
24785	-6e-05	-3e-05	2e-05	0	-7e-05	-9e-05	3e-05	-0.00064	6
24786	-6e-05	-3e-05	2e-05	0	-7e-05	-9e-05	3e-05	-0.00064	6
24788	-6e-05	-3e-05	2e-05	0	-7e-05	-9e-05	3e-05	-0.00064	6
24789	-6e-05	-3e-05	2e-05	0	-7e-05	-9e-05	3e-05	-0.00064	6
24790	-6e-05	-3e-05	2e-05	0	-7e-05	-9e-05	3e-05	-0.00064	6
24791	-6e-05	-3e-05	2e-05	0	-7e-05	-9e-05	3e-05	-0.00064	6
24792	-6e-05	-3e-05	2e-05	0	-7e-05	-9e-05	3e-05	-0.00064	6
24793	-6e-05	-3e-05	2e-05	0	-7e-05	-9e-05	3e-05	-0.00064	6
24794	-6e-05	-3e-05	2e-05	0	-7e-05	-9e-05	3e-05	-0.00064	6
24795	-6e-05	-3e-05	2e-05	0	-7e-05	-9e-05	3e-05	-0.00064	6
24796	-6e-05	-3e-05	2e-05	0	-7e-05	-9e-05	3e-05	-0.00064	6
24797	-6e-05	-3e-05	2e-05	0	-7e-05	-9e-05	3e-05	-0.00064	6
24798	-6e-05	-3e-05	2e-05	0	-7e-05	-9e-05	3e-05	-0.00064	6
24799	-6e-05	-3e-05	2e-05	0	-7e-05	-9e-05	3e-05	-0.00064	6
24800	-6e-05	-3e-05	2e-05	0	-7e-05	-9e-05	3e-05	-0.00064	6
24801	-6e-05	-3e-05	2e-05	0	-7e-05	-9e-05	3e-05	-0.00064	6
24802	-6e-05	-3e-05	2e-05	0	-7e-05	-9e-05	3e-05	-0.00064	6
24803	-6e-05	-3e-05	2e-05	0	-7e-05	-9e-05	3e-05	-0.00064	6
24804	0	-0.00021	-6e-05	-4e-05	0.00056	0.00012	0.00014	7e-05	6
24805	1e-05	1e-05	-8e-05	4e-05	-0.00013	-0.00045	0.00011	0.00051	6
24806	1e-05	1e-05	-8e-05	4e-05	-0.00013	-0.00045	0.00011	0.00051	6
24807	1e-05	1e-05	-8e-05	4e-05	-0.00013	-0.00045	0.00011	0.00051	6
24808	1e-05	1e-05	-8e-05	4e-05	-0.00013	-0.00045	0.00011	0.00051	6
24809	1e-05	1e-05	-8e-05	4e-05	-0.00013	-0.00045	0.00011	0.00051	6
24810	1e-05	1e-05	-8e-05	4e-05	-0.00013	-0.00045	0.00011	0.00051	6
24811	1e-05	1e-05	-8e-05	4e-05	-0.00013	-0.00045	0.00011	0.00051	6
24812	1e-05	1e-05	-8e-05	4e-05	-0.00013	-0.00045	0.00011	0.00051	6
24813	1e-05	1e-05	-8e-05	4e-05	-0.00013	-0.00045	0.00011	0.00051	6
24814	1e-05	1e-05	-8e-05	4e-05	-0.00013	-0.00045	0.00011	0.00051	6
24815	1e-05	1e-05	-8e-05	4e-05	-0.00013	-0.00045	0.00011	0.00051	6
24816	1e-05	1e-05	-8e-05	4e-05	-0.00013	-0.00045	0.00011	0.00051	6
24817	1e-05	1e-05	-8e-05	4e-05	-0.00013	-0.00045	0.00011	0.00051	6
24818	9e-05	4e-05	0	-9e-05	-0.00023	-0.00013	0.0001	-2e-05	6
24819	9e-05	4e-05	0	-9e-05	-0.00023	-0.00013	0.0001	-2e-05	6
24820	9e-05	4e-05	0	-9e-05	-0.00023	-0.00013	0.0001	-2e-05	6
24821	9e-05	4e-05	0	-9e-05	-0.00023	-0.00013	0.0001	-2e-05	6
24822	9e-05	4e-05	0	-9e-05	-0.00023	-0.00013	0.0001	-2e-05	6
24823	9e-05	4e-05	0	-9e-05	-0.00023	-0.00013	0.0001	-2e-05	6
24824	9e-05	4e-05	0	-9e-05	-0.00023	-0.00013	0.0001	-2e-05	6
24825	9e-05	8e-05	0.00011	-1e-05	-0.00039	0.00033	-1e-05	-0.00019	6
24826	9e-05	8e-05	0.00011	-1e-05	-0.00039	0.00033	-1e-05	-0.00019	6
24827	9e-05	8e-05	0.00011	-1e-05	-0.00039	0.00033	-1e-05	-0.00019	6
24828	9e-05	8e-05	0.00011	-1e-05	-0.00039	0.00033	-1e-05	-0.00019	6
24829	9e-05	8e-05	0.00011	-1e-05	-0.00039	0.00033	-1e-05	-0.00019	6
24830	9e-05	8e-05	0.00011	-1e-05	-0.00039	0.00033	-1e-05	-0.00019	6
24831	9e-05	8e-05	0.00011	-1e-05	-0.00039	0.00033	-1e-05	-0.00019	6
24834	9e-05	8e-05	0.00011	-1e-05	-0.00039	0.00033	-1e-05	-0.00019	6
24835	9e-05	8e-05	0.00011	-1e-05	-0.00039	0.00033	-1e-05	-0.00019	6
24836	9e-05	8e-05	0.00011	-1e-05	-0.00039	0.00033	-1e-05	-0.00019	6
24838	9e-05	8e-05	0.00011	-1e-05	-0.00039	0.00033	-1e-05	-0.00019	6
24839	9e-05	8e-05	0.00011	-1e-05	-0.00039	0.00033	-1e-05	-0.00019	6
24840	9e-05	8e-05	0.00011	-1e-05	-0.00039	0.00033	-1e-05	-0.00019	6
24841	0.00014	4e-05	-1e-05	-2e-05	0	0.00027	0.00021	0.00071	6
24842	0.00014	4e-05	-1e-05	-2e-05	0	0.00027	0.00021	0.00071	6
24843	-0.00015	5e-05	-2e-05	-1e-05	-0.00024	0.00018	8e-05	0.00017	6
24844	-0.00015	5e-05	-2e-05	-1e-05	-0.00024	0.00018	8e-05	0.00017	6
24845	-0.00015	5e-05	-2e-05	-1e-05	-0.00024	0.00018	8e-05	0.00017	6
24846	-0.00015	5e-05	-2e-05	-1e-05	-0.00024	0.00018	8e-05	0.00017	6
24847	-0.00015	5e-05	-2e-05	-1e-05	-0.00024	0.00018	8e-05	0.00017	6
24848	-0.00015	5e-05	-2e-05	-1e-05	-0.00024	0.00018	8e-05	0.00017	6
24849	-0.00015	5e-05	-2e-05	-1e-05	-0.00024	0.00018	8e-05	0.00017	6
24850	-0.00015	5e-05	-2e-05	-1e-05	-0.00024	0.00018	8e-05	0.00017	6
24851	-0.00015	5e-05	-2e-05	-1e-05	-0.00024	0.00018	8e-05	0.00017	6
24852	-0.00015	5e-05	-2e-05	-1e-05	-0.00024	0.00018	8e-05	0.00017	6
24853	-0.00015	5e-05	-2e-05	-1e-05	-0.00024	0.00018	8e-05	0.00017	6
24854	-0.00015	5e-05	-2e-05	-1e-05	-0.00024	0.00018	8e-05	0.00017	6
24855	-0.00015	5e-05	-2e-05	-1e-05	-0.00024	0.00018	8e-05	0.00017	6
24856	-0.00015	5e-05	-2e-05	-1e-05	-0.00024	0.00018	8e-05	0.00017	6
24857	-0.00015	5e-05	-2e-05	-1e-05	-0.00024	0.00018	8e-05	0.00017	6
24858	-0.00015	5e-05	-2e-05	-1e-05	-0.00024	0.00018	8e-05	0.00017	6
24859	-0.00015	5e-05	-2e-05	-1e-05	-0.00024	0.00018	8e-05	0.00017	6
24860	-0.00015	5e-05	-2e-05	-1e-05	-0.00024	0.00018	8e-05	0.00017	6
24861	-0.00015	5e-05	-2e-05	-1e-05	-0.00024	0.00018	8e-05	0.00017	6
24862	-0.00015	5e-05	-2e-05	-1e-05	-0.00024	0.00018	8e-05	0.00017	6
24863	-0.00015	5e-05	-2e-05	-1e-05	-0.00024	0.00018	8e-05	0.00017	6
24864	0.00024	3e-05	-2e-05	3e-05	5e-05	0.00026	-0.00011	-0.00027	6
24865	-3e-05	-2e-05	-3e-05	-2e-05	4e-05	0.00024	0.00023	-1e-05	6
24866	-4e-05	-6e-05	3e-05	-1e-05	0.00028	0.00023	-1e-05	-1e-05	6
24867	-4e-05	-6e-05	3e-05	-1e-05	0.00028	0.00023	-1e-05	-1e-05	6
24868	-4e-05	-6e-05	3e-05	-1e-05	0.00028	0.00023	-1e-05	-1e-05	6
24869	-4e-05	-6e-05	3e-05	-1e-05	0.00028	0.00023	-1e-05	-1e-05	6
24870	-4e-05	-6e-05	3e-05	-1e-05	0.00028	0.00023	-1e-05	-1e-05	6
24871	-4e-05	-6e-05	3e-05	-1e-05	0.00028	0.00023	-1e-05	-1e-05	6
24872	-4e-05	-6e-05	3e-05	-1e-05	0.00028	0.00023	-1e-05	-1e-05	6
24873	-4e-05	-6e-05	3e-05	-1e-05	0.00028	0.00023	-1e-05	-1e-05	6
24874	-4e-05	-6e-05	3e-05	-1e-05	0.00028	0.00023	-1e-05	-1e-05	6
24875	-4e-05	-6e-05	3e-05	-1e-05	0.00028	0.00023	-1e-05	-1e-05	6
24876	-4e-05	-6e-05	3e-05	-1e-05	0.00028	0.00023	-1e-05	-1e-05	6
24877	-4e-05	-6e-05	3e-05	-1e-05	0.00028	0.00023	-1e-05	-1e-05	6
24878	9e-05	-8e-05	5e-05	7e-05	7e-05	1e-05	0.00022	0.00013	6
24879	9e-05	-8e-05	5e-05	7e-05	7e-05	1e-05	0.00022	0.00013	6
24880	9e-05	-8e-05	5e-05	7e-05	7e-05	1e-05	0.00022	0.00013	6
24881	9e-05	-8e-05	5e-05	7e-05	7e-05	1e-05	0.00022	0.00013	6
24882	9e-05	-8e-05	5e-05	7e-05	7e-05	1e-05	0.00022	0.00013	6
24883	9e-05	-8e-05	5e-05	7e-05	7e-05	1e-05	0.00022	0.00013	6
24884	9e-05	-8e-05	5e-05	7e-05	7e-05	1e-05	0.00022	0.00013	6
24885	0.00012	-4e-05	-0.0001	-5e-05	-0.00036	-0.00058	-8e-05	0.00027	6
24886	0.00012	-4e-05	-0.0001	-5e-05	-0.00036	-0.00058	-8e-05	0.00027	6
24888	0.00012	-4e-05	-0.0001	-5e-05	-0.00036	-0.00058	-8e-05	0.00027	6
24889	0.00012	-4e-05	-0.0001	-5e-05	-0.00036	-0.00058	-8e-05	0.00027	6
24890	0.00012	-4e-05	-0.0001	-5e-05	-0.00036	-0.00058	-8e-05	0.00027	6
24891	0.00012	-4e-05	-0.0001	-5e-05	-0.00036	-0.00058	-8e-05	0.00027	6
24892	0.00012	-4e-05	-0.0001	-5e-05	-0.00036	-0.00058	-8e-05	0.00027	6
24893	0.00012	-4e-05	-0.0001	-5e-05	-0.00036	-0.00058	-8e-05	0.00027	6
24894	0.00012	-4e-05	-0.0001	-5e-05	-0.00036	-0.00058	-8e-05	0.00027	6
24895	0.00012	-4e-05	-0.0001	-5e-05	-0.00036	-0.00058	-8e-05	0.00027	6
24896	0.00012	-4e-05	-0.0001	-5e-05	-0.00036	-0.00058	-8e-05	0.00027	6
24897	0.00012	-4e-05	-0.0001	-5e-05	-0.00036	-0.00058	-8e-05	0.00027	6
24898	0.00012	-4e-05	-0.0001	-5e-05	-0.00036	-0.00058	-8e-05	0.00027	6
24899	0.00012	-4e-05	-0.0001	-5e-05	-0.00036	-0.00058	-8e-05	0.00027	6
24900	0.00012	-4e-05	-0.0001	-5e-05	-0.00036	-0.00058	-8e-05	0.00027	6
24901	-0.00013	4e-05	-2e-05	-3e-05	-0.00013	0.00018	-8e-05	-0.00044	6
24902	-0.00013	4e-05	-2e-05	-3e-05	-0.00013	0.00018	-8e-05	-0.00044	6
24903	-0.00012	-5e-05	-4e-05	-5e-05	-0.00023	-3e-05	6e-05	-0.00028	6
24904	-0.00012	-5e-05	-4e-05	-5e-05	-0.00023	-3e-05	6e-05	-0.00028	6
24905	-0.00012	-5e-05	-4e-05	-5e-05	-0.00023	-3e-05	6e-05	-0.00028	6
24906	-0.00012	-5e-05	-4e-05	-5e-05	-0.00023	-3e-05	6e-05	-0.00028	6
24907	-0.00012	-5e-05	-4e-05	-5e-05	-0.00023	-3e-05	6e-05	-0.00028	6
24908	-0.00012	-5e-05	-4e-05	-5e-05	-0.00023	-3e-05	6e-05	-0.00028	6
24909	-0.00012	-5e-05	-4e-05	-5e-05	-0.00023	-3e-05	6e-05	-0.00028	6
24910	-0.00012	-5e-05	-4e-05	-5e-05	-0.00023	-3e-05	6e-05	-0.00028	6
24911	-0.00012	-5e-05	-4e-05	-5e-05	-0.00023	-3e-05	6e-05	-0.00028	6
24912	-0.00012	-5e-05	-4e-05	-5e-05	-0.00023	-3e-05	6e-05	-0.00028	6
24913	-0.00012	-5e-05	-4e-05	-5e-05	-0.00023	-3e-05	6e-05	-0.00028	6
24914	-0.00012	-5e-05	-4e-05	-5e-05	-0.00023	-3e-05	6e-05	-0.00028	6
24915	-0.00012	-5e-05	-4e-05	-5e-05	-0.00023	-3e-05	6e-05	-0.00028	6
24916	-0.00012	-5e-05	-4e-05	-5e-05	-0.00023	-3e-05	6e-05	-0.00028	6
24917	-0.00012	-5e-05	-4e-05	-5e-05	-0.00023	-3e-05	6e-05	-0.00028	6
24918	-0.00012	-5e-05	-4e-05	-5e-05	-0.00023	-3e-05	6e-05	-0.00028	6
24919	-0.00012	-5e-05	-4e-05	-5e-05	-0.00023	-3e-05	6e-05	-0.00028	6
24920	-0.00012	-5e-05	-4e-05	-5e-05	-0.00023	-3e-05	6e-05	-0.00028	6
24921	-0.00012	-5e-05	-4e-05	-5e-05	-0.00023	-3e-05	6e-05	-0.00028	6
24922	-0.00012	-5e-05	-4e-05	-5e-05	-0.00023	-3e-05	6e-05	-0.00028	6
24923	-0.00012	-5e-05	-4e-05	-5e-05	-0.00023	-3e-05	6e-05	-0.00028	6
24924	-3e-05	-0.00011	-6e-05	1e-05	-9e-05	-0.00036	-8e-05	-0.00011	6
24925	-4e-05	2e-05	-5e-05	1e-05	0.0003	0.00025	0	-0.00021	6
24926	-4e-05	2e-05	-5e-05	1e-05	0.0003	0.00025	0	-0.00021	6
24927	-4e-05	2e-05	-5e-05	1e-05	0.0003	0.00025	0	-0.00021	6
24928	-4e-05	2e-05	-5e-05	1e-05	0.0003	0.00025	0	-0.00021	6
24929	-4e-05	2e-05	-5e-05	1e-05	0.0003	0.00025	0	-0.00021	6
24930	-4e-05	2e-05	-5e-05	1e-05	0.0003	0.00025	0	-0.00021	6
24931	-4e-05	2e-05	-5e-05	1e-05	0.0003	0.00025	0	-0.00021	6
24932	-4e-05	2e-05	-5e-05	1e-05	0.0003	0.00025	0	-0.00021	6
24933	-4e-05	2e-05	-5e-05	1e-05	0.0003	0.00025	0	-0.00021	6
24934	-4e-05	2e-05	-5e-05	1e-05	0.0003	0.00025	0	-0.00021	6
24935	-4e-05	2e-05	-5e-05	1e-05	0.0003	0.00025	0	-0.00021	6
24936	-4e-05	2e-05	-5e-05	1e-05	0.0003	0.00025	0	-0.00021	6
24938	-0.00013	6e-05	-2e-05	-4e-05	0.00024	0.00089	0.00012	-5e-05	6
24939	-0.00013	6e-05	-2e-05	-4e-05	0.00024	0.00089	0.00012	-5e-05	6
24940	-0.00013	6e-05	-2e-05	-4e-05	0.00024	0.00089	0.00012	-5e-05	6
24941	-0.00013	6e-05	-2e-05	-4e-05	0.00024	0.00089	0.00012	-5e-05	6
24942	-0.00013	6e-05	-2e-05	-4e-05	0.00024	0.00089	0.00012	-5e-05	6
24943	-0.00013	6e-05	-2e-05	-4e-05	0.00024	0.00089	0.00012	-5e-05	6
24944	-0.00013	6e-05	-2e-05	-4e-05	0.00024	0.00089	0.00012	-5e-05	6
24945	-0.00013	6e-05	-2e-05	-4e-05	0.00024	0.00089	0.00012	-5e-05	6
24946	-0.00012	-6e-05	-6e-05	-5e-05	-0.00017	-0.00031	0.00016	-0.00043	6
24947	-0.00012	-6e-05	-6e-05	-5e-05	-0.00017	-0.00031	0.00016	-0.00043	6
24948	-0.00012	-6e-05	-6e-05	-5e-05	-0.00017	-0.00031	0.00016	-0.00043	6
24949	-0.00012	-6e-05	-6e-05	-5e-05	-0.00017	-0.00031	0.00016	-0.00043	6
24950	-0.00012	-6e-05	-6e-05	-5e-05	-0.00017	-0.00031	0.00016	-0.00043	6
24951	-0.00012	-6e-05	-6e-05	-5e-05	-0.00017	-0.00031	0.00016	-0.00043	6
24952	-0.00012	-6e-05	-6e-05	-5e-05	-0.00017	-0.00031	0.00016	-0.00043	6
24953	-0.00012	-6e-05	-6e-05	-5e-05	-0.00017	-0.00031	0.00016	-0.00043	6
24954	-0.00012	-6e-05	-6e-05	-5e-05	-0.00017	-0.00031	0.00016	-0.00043	6
24955	-0.00012	-6e-05	-6e-05	-5e-05	-0.00017	-0.00031	0.00016	-0.00043	6
24956	-0.00012	-6e-05	-6e-05	-5e-05	-0.00017	-0.00031	0.00016	-0.00043	6
24957	-0.00012	-6e-05	-6e-05	-5e-05	-0.00017	-0.00031	0.00016	-0.00043	6
24958	-0.00012	-6e-05	-6e-05	-5e-05	-0.00017	-0.00031	0.00016	-0.00043	6
24959	-0.00012	-6e-05	-6e-05	-5e-05	-0.00017	-0.00031	0.00016	-0.00043	6
24960	-0.00012	-6e-05	-6e-05	-5e-05	-0.00017	-0.00031	0.00016	-0.00043	6
24961	4e-05	3e-05	0.00011	8e-05	1e-05	0.0002	0.0003	0.00013	6
24962	4e-05	3e-05	0.00011	8e-05	1e-05	0.0002	0.0003	0.00013	6
24963	-0.00018	-0.00022	-0.0001	-4e-05	9e-05	0.00027	5e-05	-0.00032	6
24964	-0.00018	-0.00022	-0.0001	-4e-05	9e-05	0.00027	5e-05	-0.00032	6
24965	-0.00018	-0.00022	-0.0001	-4e-05	9e-05	0.00027	5e-05	-0.00032	6
24966	-0.00018	-0.00022	-0.0001	-4e-05	9e-05	0.00027	5e-05	-0.00032	6
24967	-0.00018	-0.00022	-0.0001	-4e-05	9e-05	0.00027	5e-05	-0.00032	6
24968	-0.00018	-0.00022	-0.0001	-4e-05	9e-05	0.00027	5e-05	-0.00032	6
24969	-0.00018	-0.00022	-0.0001	-4e-05	9e-05	0.00027	5e-05	-0.00032	6
24970	-0.00018	-0.00022	-0.0001	-4e-05	9e-05	0.00027	5e-05	-0.00032	6
24971	-0.00018	-0.00022	-0.0001	-4e-05	9e-05	0.00027	5e-05	-0.00032	6
24972	-0.00018	-0.00022	-0.0001	-4e-05	9e-05	0.00027	5e-05	-0.00032	6
24973	-0.00018	-0.00022	-0.0001	-4e-05	9e-05	0.00027	5e-05	-0.00032	6
24974	-0.00018	-0.00022	-0.0001	-4e-05	9e-05	0.00027	5e-05	-0.00032	6
24975	-0.00018	-0.00022	-0.0001	-4e-05	9e-05	0.00027	5e-05	-0.00032	6
24976	-0.00018	-0.00022	-0.0001	-4e-05	9e-05	0.00027	5e-05	-0.00032	6
24977	-0.00018	-0.00022	-0.0001	-4e-05	9e-05	0.00027	5e-05	-0.00032	6
24978	-0.00018	-0.00022	-0.0001	-4e-05	9e-05	0.00027	5e-05	-0.00032	6
24979	-0.00018	-0.00022	-0.0001	-4e-05	9e-05	0.00027	5e-05	-0.00032	6
24980	-0.00018	-0.00022	-0.0001	-4e-05	9e-05	0.00027	5e-05	-0.00032	6
24981	-0.00018	-0.00022	-0.0001	-4e-05	9e-05	0.00027	5e-05	-0.00032	6
24982	-0.00018	-0.00022	-0.0001	-4e-05	9e-05	0.00027	5e-05	-0.00032	6
24983	-0.00018	-0.00022	-0.0001	-4e-05	9e-05	0.00027	5e-05	-0.00032	6
24984	-3e-05	-8e-05	-6e-05	-6e-05	-9e-05	-0.00019	-0.00018	0.00062	6
24985	-1e-05	-1e-05	-1e-05	0	0.00011	-5e-05	-5e-05	0.00011	6
24986	-1e-05	-1e-05	-1e-05	0	0.00011	-5e-05	-5e-05	0.00011	6
24988	-1e-05	-1e-05	-1e-05	0	0.00011	-5e-05	-5e-05	0.00011	6
24989	-1e-05	-1e-05	-1e-05	0	0.00011	-5e-05	-5e-05	0.00011	6
24990	-1e-05	-1e-05	-1e-05	0	0.00011	-5e-05	-5e-05	0.00011	6
24991	-1e-05	-1e-05	-1e-05	0	0.00011	-5e-05	-5e-05	0.00011	6
24992	-1e-05	-1e-05	-1e-05	0	0.00011	-5e-05	-5e-05	0.00011	6
24993	-1e-05	-1e-05	-1e-05	0	0.00011	-5e-05	-5e-05	0.00011	6
24994	-1e-05	-1e-05	-1e-05	0	0.00011	-5e-05	-5e-05	0.00011	6
24995	-1e-05	-1e-05	-1e-05	0	0.00011	-5e-05	-5e-05	0.00011	6
24996	-1e-05	-1e-05	-1e-05	0	0.00011	-5e-05	-5e-05	0.00011	6
24997	-9e-05	-7e-05	-3e-05	5e-05	0.00042	0.00059	-0.00034	-3e-05	6
24998	-0.0001	8e-05	4e-05	-3e-05	-9e-05	-5e-05	-0.0001	-0.00042	6
24999	-0.0001	8e-05	4e-05	-3e-05	-9e-05	-5e-05	-0.0001	-0.00042	6
25000	-0.0001	8e-05	4e-05	-3e-05	-9e-05	-5e-05	-0.0001	-0.00042	6
25001	-0.0001	8e-05	4e-05	-3e-05	-9e-05	-5e-05	-0.0001	-0.00042	6
25002	-0.0001	8e-05	4e-05	-3e-05	-9e-05	-5e-05	-0.0001	-0.00042	6
25003	-0.0001	8e-05	4e-05	-3e-05	-9e-05	-5e-05	-0.0001	-0.00042	6
25004	-0.0001	8e-05	4e-05	-3e-05	-9e-05	-5e-05	-0.0001	-0.00042	6
25005	-0.0001	8e-05	4e-05	-3e-05	-9e-05	-5e-05	-0.0001	-0.00042	6
25006	-0.00017	-0.00014	-8e-05	-8e-05	-0.00023	-0.00015	-0.00015	-0.00035	6
25007	-9e-05	3e-05	-4e-05	0	-5e-05	0.00016	-0.00013	-1e-05	6
25008	-9e-05	3e-05	-4e-05	0	-5e-05	0.00016	-0.00013	-1e-05	6
25009	-9e-05	3e-05	-4e-05	0	-5e-05	0.00016	-0.00013	-1e-05	6
25010	-9e-05	3e-05	-4e-05	0	-5e-05	0.00016	-0.00013	-1e-05	6
25011	-9e-05	3e-05	-4e-05	0	-5e-05	0.00016	-0.00013	-1e-05	6
25012	-9e-05	3e-05	-4e-05	0	-5e-05	0.00016	-0.00013	-1e-05	6
25013	-9e-05	3e-05	-4e-05	0	-5e-05	0.00016	-0.00013	-1e-05	6
25014	-9e-05	3e-05	-4e-05	0	-5e-05	0.00016	-0.00013	-1e-05	6
25015	-9e-05	3e-05	-4e-05	0	-5e-05	0.00016	-0.00013	-1e-05	6
25016	-9e-05	3e-05	-4e-05	0	-5e-05	0.00016	-0.00013	-1e-05	6
25017	-9e-05	3e-05	-4e-05	0	-5e-05	0.00016	-0.00013	-1e-05	6
25018	-9e-05	3e-05	-4e-05	0	-5e-05	0.00016	-0.00013	-1e-05	6
25019	-9e-05	3e-05	-4e-05	0	-5e-05	0.00016	-0.00013	-1e-05	6
25020	-9e-05	3e-05	-4e-05	0	-5e-05	0.00016	-0.00013	-1e-05	6
25021	-6e-05	2e-05	0	-3e-05	-0.00019	0.00028	-0.00026	4e-05	6
25022	-6e-05	2e-05	0	-3e-05	-0.00019	0.00028	-0.00026	4e-05	6
25023	3e-05	4e-05	3e-05	4e-05	-4e-05	0.00013	2e-05	-0.00011	6
25024	3e-05	4e-05	3e-05	4e-05	-4e-05	0.00013	2e-05	-0.00011	6
25025	3e-05	4e-05	3e-05	4e-05	-4e-05	0.00013	2e-05	-0.00011	6
25026	3e-05	4e-05	3e-05	4e-05	-4e-05	0.00013	2e-05	-0.00011	6
25027	3e-05	4e-05	3e-05	4e-05	-4e-05	0.00013	2e-05	-0.00011	6
25028	3e-05	4e-05	3e-05	4e-05	-4e-05	0.00013	2e-05	-0.00011	6
25029	3e-05	4e-05	3e-05	4e-05	-4e-05	0.00013	2e-05	-0.00011	6
25030	3e-05	4e-05	3e-05	4e-05	-4e-05	0.00013	2e-05	-0.00011	6
25031	3e-05	4e-05	3e-05	4e-05	-4e-05	0.00013	2e-05	-0.00011	6
25033	3e-05	4e-05	3e-05	4e-05	-4e-05	0.00013	2e-05	-0.00011	6
25034	3e-05	4e-05	3e-05	4e-05	-4e-05	0.00013	2e-05	-0.00011	6
25035	3e-05	4e-05	3e-05	4e-05	-4e-05	0.00013	2e-05	-0.00011	6
25036	3e-05	4e-05	3e-05	4e-05	-4e-05	0.00013	2e-05	-0.00011	6
25038	3e-05	4e-05	3e-05	4e-05	-4e-05	0.00013	2e-05	-0.00011	6
25039	3e-05	4e-05	3e-05	4e-05	-4e-05	0.00013	2e-05	-0.00011	6
25040	3e-05	4e-05	3e-05	4e-05	-4e-05	0.00013	2e-05	-0.00011	6
25041	3e-05	4e-05	3e-05	4e-05	-4e-05	0.00013	2e-05	-0.00011	6
25042	3e-05	4e-05	3e-05	4e-05	-4e-05	0.00013	2e-05	-0.00011	6
25043	3e-05	4e-05	3e-05	4e-05	-4e-05	0.00013	2e-05	-0.00011	6
25044	7e-05	-1e-05	-5e-05	-1e-05	0.00012	5e-05	3e-05	-1e-05	6
25045	0.00016	4e-05	4e-05	4e-05	0.00012	-3e-05	-0.00012	0.0004	6
25046	0.00016	4e-05	4e-05	4e-05	0.00012	-3e-05	-0.00012	0.0004	6
25047	0.00016	4e-05	4e-05	4e-05	0.00012	-3e-05	-0.00012	0.0004	6
25048	0.00016	4e-05	4e-05	4e-05	0.00012	-3e-05	-0.00012	0.0004	6
25049	0.00016	4e-05	4e-05	4e-05	0.00012	-3e-05	-0.00012	0.0004	6
25050	0.00016	4e-05	4e-05	4e-05	0.00012	-3e-05	-0.00012	0.0004	6
25051	0.00016	4e-05	4e-05	4e-05	0.00012	-3e-05	-0.00012	0.0004	6
25052	0.00016	4e-05	4e-05	4e-05	0.00012	-3e-05	-0.00012	0.0004	6
25053	0.00016	4e-05	4e-05	4e-05	0.00012	-3e-05	-0.00012	0.0004	6
25054	0.00016	4e-05	4e-05	4e-05	0.00012	-3e-05	-0.00012	0.0004	6
25055	0.00016	4e-05	4e-05	4e-05	0.00012	-3e-05	-0.00012	0.0004	6
25056	0.00016	4e-05	4e-05	4e-05	0.00012	-3e-05	-0.00012	0.0004	6
25057	-2e-05	-3e-05	-1e-05	0	-0.00011	0	-0.0001	-0.00017	6
25058	-0.00011	-2e-05	-9e-05	-7e-05	-0.00012	-0.00034	-5e-05	5e-05	6
25059	-0.00011	-2e-05	-9e-05	-7e-05	-0.00012	-0.00034	-5e-05	5e-05	6
25060	-0.00011	-2e-05	-9e-05	-7e-05	-0.00012	-0.00034	-5e-05	5e-05	6
25061	-0.00011	-2e-05	-9e-05	-7e-05	-0.00012	-0.00034	-5e-05	5e-05	6
25062	-0.00011	-2e-05	-9e-05	-7e-05	-0.00012	-0.00034	-5e-05	5e-05	6
25063	-0.00011	-2e-05	-9e-05	-7e-05	-0.00012	-0.00034	-5e-05	5e-05	6
25064	-0.00011	-2e-05	-9e-05	-7e-05	-0.00012	-0.00034	-5e-05	5e-05	6
25065	-0.00011	-2e-05	-9e-05	-7e-05	-0.00012	-0.00034	-5e-05	5e-05	6
25066	2e-05	-6e-05	2e-05	1e-05	7e-05	0.0001	-0.00016	-0.00025	6
25067	0.00013	3e-05	3e-05	0	0.00039	4e-05	0.00014	4e-05	6
25068	0.00013	3e-05	3e-05	0	0.00039	4e-05	0.00014	4e-05	6
25069	0.00013	3e-05	3e-05	0	0.00039	4e-05	0.00014	4e-05	6
25070	0.00013	3e-05	3e-05	0	0.00039	4e-05	0.00014	4e-05	6
25071	0.00013	3e-05	3e-05	0	0.00039	4e-05	0.00014	4e-05	6
25072	0.00013	3e-05	3e-05	0	0.00039	4e-05	0.00014	4e-05	6
25073	0.00013	3e-05	3e-05	0	0.00039	4e-05	0.00014	4e-05	6
25074	0.00013	3e-05	3e-05	0	0.00039	4e-05	0.00014	4e-05	6
25075	0.00013	3e-05	3e-05	0	0.00039	4e-05	0.00014	4e-05	6
25076	0.00013	3e-05	3e-05	0	0.00039	4e-05	0.00014	4e-05	6
25077	0.00013	3e-05	3e-05	0	0.00039	4e-05	0.00014	4e-05	6
25078	0.00013	3e-05	3e-05	0	0.00039	4e-05	0.00014	4e-05	6
25079	0.00013	3e-05	3e-05	0	0.00039	4e-05	0.00014	4e-05	6
25080	0.00013	3e-05	3e-05	0	0.00039	4e-05	0.00014	4e-05	6
25081	-0.00017	-1e-05	1e-05	0	0.00015	-6e-05	9e-05	-0.00022	6
25083	7e-05	2e-05	1e-05	-8e-05	-0.00024	-0.00011	7e-05	-2e-05	6
25084	7e-05	2e-05	1e-05	-8e-05	-0.00024	-0.00011	7e-05	-2e-05	6
25085	7e-05	2e-05	1e-05	-8e-05	-0.00024	-0.00011	7e-05	-2e-05	6
25086	7e-05	2e-05	1e-05	-8e-05	-0.00024	-0.00011	7e-05	-2e-05	6
25088	7e-05	2e-05	1e-05	-8e-05	-0.00024	-0.00011	7e-05	-2e-05	6
25089	7e-05	2e-05	1e-05	-8e-05	-0.00024	-0.00011	7e-05	-2e-05	6
25090	7e-05	2e-05	1e-05	-8e-05	-0.00024	-0.00011	7e-05	-2e-05	6
25091	7e-05	2e-05	1e-05	-8e-05	-0.00024	-0.00011	7e-05	-2e-05	6
25092	7e-05	2e-05	1e-05	-8e-05	-0.00024	-0.00011	7e-05	-2e-05	6
25093	7e-05	2e-05	1e-05	-8e-05	-0.00024	-0.00011	7e-05	-2e-05	6
25094	7e-05	2e-05	1e-05	-8e-05	-0.00024	-0.00011	7e-05	-2e-05	6
25095	7e-05	2e-05	1e-05	-8e-05	-0.00024	-0.00011	7e-05	-2e-05	6
25096	7e-05	2e-05	1e-05	-8e-05	-0.00024	-0.00011	7e-05	-2e-05	6
25097	7e-05	2e-05	1e-05	-8e-05	-0.00024	-0.00011	7e-05	-2e-05	6
25098	7e-05	2e-05	1e-05	-8e-05	-0.00024	-0.00011	7e-05	-2e-05	6
25099	7e-05	2e-05	1e-05	-8e-05	-0.00024	-0.00011	7e-05	-2e-05	6
25100	7e-05	2e-05	1e-05	-8e-05	-0.00024	-0.00011	7e-05	-2e-05	6
25101	7e-05	2e-05	1e-05	-8e-05	-0.00024	-0.00011	7e-05	-2e-05	6
25102	7e-05	2e-05	1e-05	-8e-05	-0.00024	-0.00011	7e-05	-2e-05	6
25103	7e-05	2e-05	1e-05	-8e-05	-0.00024	-0.00011	7e-05	-2e-05	6
25104	0.00013	-3e-05	-1e-05	5e-05	-0.00029	-0.00056	-8e-05	0.00052	6
25105	7e-05	-0.00013	0.00012	5e-05	0.00023	-3e-05	-0.00024	0.00032	6
25107	7e-05	-0.00013	0.00012	5e-05	0.00023	-3e-05	-0.00024	0.00032	6
25108	7e-05	-0.00013	0.00012	5e-05	0.00023	-3e-05	-0.00024	0.00032	6
25109	7e-05	-0.00013	0.00012	5e-05	0.00023	-3e-05	-0.00024	0.00032	6
25110	7e-05	-0.00013	0.00012	5e-05	0.00023	-3e-05	-0.00024	0.00032	6
25111	7e-05	-0.00013	0.00012	5e-05	0.00023	-3e-05	-0.00024	0.00032	6
25112	7e-05	-0.00013	0.00012	5e-05	0.00023	-3e-05	-0.00024	0.00032	6
25113	7e-05	-0.00013	0.00012	5e-05	0.00023	-3e-05	-0.00024	0.00032	6
25114	7e-05	-0.00013	0.00012	5e-05	0.00023	-3e-05	-0.00024	0.00032	6
25115	7e-05	-0.00013	0.00012	5e-05	0.00023	-3e-05	-0.00024	0.00032	6
25116	7e-05	-0.00013	0.00012	5e-05	0.00023	-3e-05	-0.00024	0.00032	6
25117	-6e-05	-3e-05	-1e-05	-7e-05	-0.00013	0.00012	0.00012	-0.00029	6
25118	-6e-05	-3e-05	-1e-05	-7e-05	-0.00013	0.00012	0.00012	-0.00029	6
25119	-6e-05	-3e-05	-1e-05	-7e-05	-0.00013	0.00012	0.00012	-0.00029	6
25120	-6e-05	-3e-05	-1e-05	-7e-05	-0.00013	0.00012	0.00012	-0.00029	6
25121	-6e-05	-3e-05	-1e-05	-7e-05	-0.00013	0.00012	0.00012	-0.00029	6
25122	-6e-05	-3e-05	-1e-05	-7e-05	-0.00013	0.00012	0.00012	-0.00029	6
25123	-6e-05	-3e-05	-1e-05	-7e-05	-0.00013	0.00012	0.00012	-0.00029	6
25124	-6e-05	-3e-05	-1e-05	-7e-05	-0.00013	0.00012	0.00012	-0.00029	6
25125	-6e-05	-3e-05	-1e-05	-7e-05	-0.00013	0.00012	0.00012	-0.00029	6
25126	0	8e-05	0	-1e-05	-9e-05	-0.00016	-0.00013	-0.00025	6
25127	0	8e-05	0	-1e-05	-9e-05	-0.00016	-0.00013	-0.00025	6
25128	0	8e-05	0	-1e-05	-9e-05	-0.00016	-0.00013	-0.00025	6
25129	0	8e-05	0	-1e-05	-9e-05	-0.00016	-0.00013	-0.00025	6
25130	0	8e-05	0	-1e-05	-9e-05	-0.00016	-0.00013	-0.00025	6
25131	0	8e-05	0	-1e-05	-9e-05	-0.00016	-0.00013	-0.00025	6
25132	0	8e-05	0	-1e-05	-9e-05	-0.00016	-0.00013	-0.00025	6
25133	0	8e-05	0	-1e-05	-9e-05	-0.00016	-0.00013	-0.00025	6
25134	0	8e-05	0	-1e-05	-9e-05	-0.00016	-0.00013	-0.00025	6
25135	0	8e-05	0	-1e-05	-9e-05	-0.00016	-0.00013	-0.00025	6
25136	0	8e-05	0	-1e-05	-9e-05	-0.00016	-0.00013	-0.00025	6
25138	0	8e-05	0	-1e-05	-9e-05	-0.00016	-0.00013	-0.00025	6
25139	0	8e-05	0	-1e-05	-9e-05	-0.00016	-0.00013	-0.00025	6
25140	0	8e-05	0	-1e-05	-9e-05	-0.00016	-0.00013	-0.00025	6
25141	0.0002	-9e-05	-0.00012	1e-05	0.00018	-0.00019	7e-05	-0.00046	6
25142	0.0002	-9e-05	-0.00012	1e-05	0.00018	-0.00019	7e-05	-0.00046	6
25143	-5e-05	-3e-05	-5e-05	-4e-05	-0.00016	6e-05	-0.00015	-2e-05	6
25144	-5e-05	-3e-05	-5e-05	-4e-05	-0.00016	6e-05	-0.00015	-2e-05	6
25145	-5e-05	-3e-05	-5e-05	-4e-05	-0.00016	6e-05	-0.00015	-2e-05	6
25146	-5e-05	-3e-05	-5e-05	-4e-05	-0.00016	6e-05	-0.00015	-2e-05	6
25147	-5e-05	-3e-05	-5e-05	-4e-05	-0.00016	6e-05	-0.00015	-2e-05	6
25148	-5e-05	-3e-05	-5e-05	-4e-05	-0.00016	6e-05	-0.00015	-2e-05	6
25149	-5e-05	-3e-05	-5e-05	-4e-05	-0.00016	6e-05	-0.00015	-2e-05	6
25150	-5e-05	-3e-05	-5e-05	-4e-05	-0.00016	6e-05	-0.00015	-2e-05	6
25151	-5e-05	-3e-05	-5e-05	-4e-05	-0.00016	6e-05	-0.00015	-2e-05	6
25152	-5e-05	-3e-05	-5e-05	-4e-05	-0.00016	6e-05	-0.00015	-2e-05	6
25153	-5e-05	-3e-05	-5e-05	-4e-05	-0.00016	6e-05	-0.00015	-2e-05	6
25154	-5e-05	-3e-05	-5e-05	-4e-05	-0.00016	6e-05	-0.00015	-2e-05	6
25155	-5e-05	-3e-05	-5e-05	-4e-05	-0.00016	6e-05	-0.00015	-2e-05	6
25156	-5e-05	-3e-05	-5e-05	-4e-05	-0.00016	6e-05	-0.00015	-2e-05	6
25157	-5e-05	-3e-05	-5e-05	-4e-05	-0.00016	6e-05	-0.00015	-2e-05	6
25158	-5e-05	-3e-05	-5e-05	-4e-05	-0.00016	6e-05	-0.00015	-2e-05	6
25159	-5e-05	-3e-05	-5e-05	-4e-05	-0.00016	6e-05	-0.00015	-2e-05	6
25160	-5e-05	-3e-05	-5e-05	-4e-05	-0.00016	6e-05	-0.00015	-2e-05	6
25161	-5e-05	-3e-05	-5e-05	-4e-05	-0.00016	6e-05	-0.00015	-2e-05	6
25162	-5e-05	-3e-05	-5e-05	-4e-05	-0.00016	6e-05	-0.00015	-2e-05	6
25163	-5e-05	-3e-05	-5e-05	-4e-05	-0.00016	6e-05	-0.00015	-2e-05	6
25164	-1e-05	1e-05	-1e-05	6e-05	0.00054	-0.00012	0	-7e-05	6
25165	-0.00022	-2e-05	3e-05	-1e-05	-0.00013	-0.00018	0.00019	-0.0007	6
25166	0.00028	-6e-05	-9e-05	-8e-05	-0.0001	2e-05	-8e-05	0.00039	6
25167	0.00028	-6e-05	-9e-05	-8e-05	-0.0001	2e-05	-8e-05	0.00039	6
25168	0.00028	-6e-05	-9e-05	-8e-05	-0.0001	2e-05	-8e-05	0.00039	6
25169	0.00028	-6e-05	-9e-05	-8e-05	-0.0001	2e-05	-8e-05	0.00039	6
25170	0.00028	-6e-05	-9e-05	-8e-05	-0.0001	2e-05	-8e-05	0.00039	6
25171	0.00028	-6e-05	-9e-05	-8e-05	-0.0001	2e-05	-8e-05	0.00039	6
25172	0.00028	-6e-05	-9e-05	-8e-05	-0.0001	2e-05	-8e-05	0.00039	6
25173	0.00028	-6e-05	-9e-05	-8e-05	-0.0001	2e-05	-8e-05	0.00039	6
25174	0.00028	-6e-05	-9e-05	-8e-05	-0.0001	2e-05	-8e-05	0.00039	6
25175	0.00028	-6e-05	-9e-05	-8e-05	-0.0001	2e-05	-8e-05	0.00039	6
25176	0.00028	-6e-05	-9e-05	-8e-05	-0.0001	2e-05	-8e-05	0.00039	6
25177	-4e-05	4e-05	2e-05	0	0.00022	0.00014	-9e-05	0.00012	6
25178	-4e-05	4e-05	2e-05	0	0.00022	0.00014	-9e-05	0.00012	6
25179	-4e-05	4e-05	2e-05	0	0.00022	0.00014	-9e-05	0.00012	6
25180	-4e-05	4e-05	2e-05	0	0.00022	0.00014	-9e-05	0.00012	6
25181	-4e-05	4e-05	2e-05	0	0.00022	0.00014	-9e-05	0.00012	6
25182	-4e-05	4e-05	2e-05	0	0.00022	0.00014	-9e-05	0.00012	6
25183	-4e-05	4e-05	2e-05	0	0.00022	0.00014	-9e-05	0.00012	6
25184	-4e-05	4e-05	2e-05	0	0.00022	0.00014	-9e-05	0.00012	6
25185	-4e-05	4e-05	2e-05	0	0.00022	0.00014	-9e-05	0.00012	6
25186	1e-05	-4e-05	-4e-05	-1e-05	-0.00016	0.00011	8e-05	0.0002	6
25188	-5e-05	8e-05	3e-05	6e-05	0.00018	-0.00041	0.00025	-0.00015	6
25189	-5e-05	8e-05	3e-05	6e-05	0.00018	-0.00041	0.00025	-0.00015	6
25190	-5e-05	8e-05	3e-05	6e-05	0.00018	-0.00041	0.00025	-0.00015	6
25191	-5e-05	8e-05	3e-05	6e-05	0.00018	-0.00041	0.00025	-0.00015	6
25192	-5e-05	8e-05	3e-05	6e-05	0.00018	-0.00041	0.00025	-0.00015	6
25193	-5e-05	8e-05	3e-05	6e-05	0.00018	-0.00041	0.00025	-0.00015	6
25194	-5e-05	8e-05	3e-05	6e-05	0.00018	-0.00041	0.00025	-0.00015	6
25195	-5e-05	8e-05	3e-05	6e-05	0.00018	-0.00041	0.00025	-0.00015	6
25196	-5e-05	8e-05	3e-05	6e-05	0.00018	-0.00041	0.00025	-0.00015	6
25197	-5e-05	8e-05	3e-05	6e-05	0.00018	-0.00041	0.00025	-0.00015	6
25198	-5e-05	8e-05	3e-05	6e-05	0.00018	-0.00041	0.00025	-0.00015	6
25199	-5e-05	8e-05	3e-05	6e-05	0.00018	-0.00041	0.00025	-0.00015	6
25200	-5e-05	8e-05	3e-05	6e-05	0.00018	-0.00041	0.00025	-0.00015	6
25201	-1e-05	0	2e-05	-5e-05	-0.00013	0.00081	1e-05	4e-05	6
25202	-1e-05	0	2e-05	-5e-05	-0.00013	0.00081	1e-05	4e-05	6
25203	-4e-05	3e-05	-2e-05	-4e-05	-0.00027	-0.00016	0.00012	-0.00027	6
25204	-4e-05	3e-05	-2e-05	-4e-05	-0.00027	-0.00016	0.00012	-0.00027	6
25205	-4e-05	3e-05	-2e-05	-4e-05	-0.00027	-0.00016	0.00012	-0.00027	6
25206	-4e-05	3e-05	-2e-05	-4e-05	-0.00027	-0.00016	0.00012	-0.00027	6
25207	-4e-05	3e-05	-2e-05	-4e-05	-0.00027	-0.00016	0.00012	-0.00027	6
25208	-4e-05	3e-05	-2e-05	-4e-05	-0.00027	-0.00016	0.00012	-0.00027	6
25209	-4e-05	3e-05	-2e-05	-4e-05	-0.00027	-0.00016	0.00012	-0.00027	6
25210	-4e-05	3e-05	-2e-05	-4e-05	-0.00027	-0.00016	0.00012	-0.00027	6
25211	-4e-05	3e-05	-2e-05	-4e-05	-0.00027	-0.00016	0.00012	-0.00027	6
25212	-4e-05	3e-05	-2e-05	-4e-05	-0.00027	-0.00016	0.00012	-0.00027	6
25213	-4e-05	3e-05	-2e-05	-4e-05	-0.00027	-0.00016	0.00012	-0.00027	6
25214	-4e-05	3e-05	-2e-05	-4e-05	-0.00027	-0.00016	0.00012	-0.00027	6
25215	-4e-05	3e-05	-2e-05	-4e-05	-0.00027	-0.00016	0.00012	-0.00027	6
25216	-4e-05	3e-05	-2e-05	-4e-05	-0.00027	-0.00016	0.00012	-0.00027	6
25217	-4e-05	3e-05	-2e-05	-4e-05	-0.00027	-0.00016	0.00012	-0.00027	6
25218	-4e-05	3e-05	-2e-05	-4e-05	-0.00027	-0.00016	0.00012	-0.00027	6
25219	-4e-05	3e-05	-2e-05	-4e-05	-0.00027	-0.00016	0.00012	-0.00027	6
25220	-4e-05	3e-05	-2e-05	-4e-05	-0.00027	-0.00016	0.00012	-0.00027	6
25221	-4e-05	3e-05	-2e-05	-4e-05	-0.00027	-0.00016	0.00012	-0.00027	6
25222	-4e-05	3e-05	-2e-05	-4e-05	-0.00027	-0.00016	0.00012	-0.00027	6
25223	1e-05	2e-05	-2e-05	0	-0.00029	-9e-05	3e-05	4e-05	6
25224	0.00015	4e-05	1e-05	0	-6e-05	-0.00012	0.00018	0.00057	6
25225	0.00015	4e-05	1e-05	0	-6e-05	-0.00012	0.00018	0.00057	6
25226	0.00015	4e-05	1e-05	0	-6e-05	-0.00012	0.00018	0.00057	6
25227	0.00015	4e-05	1e-05	0	-6e-05	-0.00012	0.00018	0.00057	6
25228	0.00015	4e-05	1e-05	0	-6e-05	-0.00012	0.00018	0.00057	6
25229	0.00015	4e-05	1e-05	0	-6e-05	-0.00012	0.00018	0.00057	6
25230	0.00015	4e-05	1e-05	0	-6e-05	-0.00012	0.00018	0.00057	6
25231	0.00015	4e-05	1e-05	0	-6e-05	-0.00012	0.00018	0.00057	6
25232	0.00015	4e-05	1e-05	0	-6e-05	-0.00012	0.00018	0.00057	6
25233	0.00015	4e-05	1e-05	0	-6e-05	-0.00012	0.00018	0.00057	6
25234	0.00015	4e-05	1e-05	0	-6e-05	-0.00012	0.00018	0.00057	6
25235	0.00015	4e-05	1e-05	0	-6e-05	-0.00012	0.00018	0.00057	6
25236	0.00015	4e-05	1e-05	0	-6e-05	-0.00012	0.00018	0.00057	6
25239	0.00015	4e-05	1e-05	0	-6e-05	-0.00012	0.00018	0.00057	6
25240	0.00015	4e-05	1e-05	0	-6e-05	-0.00012	0.00018	0.00057	6
25241	0.00015	4e-05	1e-05	0	-6e-05	-0.00012	0.00018	0.00057	6
25242	0.00015	4e-05	1e-05	0	-6e-05	-0.00012	0.00018	0.00057	6
25243	0.00015	4e-05	1e-05	0	-6e-05	-0.00012	0.00018	0.00057	6
25244	0.00015	4e-05	1e-05	0	-6e-05	-0.00012	0.00018	0.00057	6
25245	-2e-05	-1e-05	9e-05	1e-05	-7e-05	-0.00027	-2e-05	-0.00057	6
25246	-0.00012	-1e-05	-2e-05	-4e-05	-0.00026	0.0001	-4e-05	0.0001	6
25248	-0.00012	-1e-05	-2e-05	-4e-05	-0.00026	0.0001	-4e-05	0.0001	6
25249	-0.00012	-1e-05	-2e-05	-4e-05	-0.00026	0.0001	-4e-05	0.0001	6
25250	-0.00012	-1e-05	-2e-05	-4e-05	-0.00026	0.0001	-4e-05	0.0001	6
25251	-0.00012	-1e-05	-2e-05	-4e-05	-0.00026	0.0001	-4e-05	0.0001	6
25252	-0.00012	-1e-05	-2e-05	-4e-05	-0.00026	0.0001	-4e-05	0.0001	6
25253	-0.00012	-1e-05	-2e-05	-4e-05	-0.00026	0.0001	-4e-05	0.0001	6
25254	-0.00012	-1e-05	-2e-05	-4e-05	-0.00026	0.0001	-4e-05	0.0001	6
25255	-0.00012	-1e-05	-2e-05	-4e-05	-0.00026	0.0001	-4e-05	0.0001	6
25256	-0.00012	-1e-05	-2e-05	-4e-05	-0.00026	0.0001	-4e-05	0.0001	6
25257	-0.00012	-1e-05	-2e-05	-4e-05	-0.00026	0.0001	-4e-05	0.0001	6
25258	-0.00012	-1e-05	-2e-05	-4e-05	-0.00026	0.0001	-4e-05	0.0001	6
25259	-0.00012	-1e-05	-2e-05	-4e-05	-0.00026	0.0001	-4e-05	0.0001	6
25260	4e-05	2e-05	-4e-05	-4e-05	1e-05	0.00023	-0.00011	0.00021	6
25261	-2e-05	7e-05	-2e-05	2e-05	0.00039	0.00072	-2e-05	-0.00017	6
25262	-2e-05	7e-05	-2e-05	2e-05	0.00039	0.00072	-2e-05	-0.00017	6
25263	-2e-05	7e-05	-2e-05	2e-05	0.00039	0.00072	-2e-05	-0.00017	6
25264	-2e-05	7e-05	-2e-05	2e-05	0.00039	0.00072	-2e-05	-0.00017	6
25265	-2e-05	7e-05	-2e-05	2e-05	0.00039	0.00072	-2e-05	-0.00017	6
25266	-2e-05	7e-05	-2e-05	2e-05	0.00039	0.00072	-2e-05	-0.00017	6
25267	-2e-05	7e-05	-2e-05	2e-05	0.00039	0.00072	-2e-05	-0.00017	6
25268	-2e-05	7e-05	-2e-05	2e-05	0.00039	0.00072	-2e-05	-0.00017	6
