12095	0.00029	-0.0001	5e-05	-1e-05	6e-05	0.00036	2e-05	4e-05	3
12096	0.00029	-0.0001	5e-05	-1e-05	6e-05	0.00036	2e-05	4e-05	3
12097	0.00045	0.00016	7e-05	0.00011	-8e-05	5e-05	0.00018	0.00031	3
12098	0.00045	0.00016	7e-05	0.00011	-8e-05	5e-05	0.00018	0.00031	3
12099	0.00045	0.00016	7e-05	0.00011	-8e-05	5e-05	0.00018	0.00031	3
12100	0.00045	0.00016	7e-05	0.00011	-8e-05	5e-05	0.00018	0.00031	3
12101	0.00045	0.00016	7e-05	0.00011	-8e-05	5e-05	0.00018	0.00031	3
12102	0.00045	0.00016	7e-05	0.00011	-8e-05	5e-05	0.00018	0.00031	3
12103	0.00045	0.00016	7e-05	0.00011	-8e-05	5e-05	0.00018	0.00031	3
12104	0.00041	0	7e-05	0.00017	0.00052	0.00026	0.00024	0.00013	3
12105	0.00041	0	7e-05	0.00017	0.00052	0.00026	0.00024	0.00013	3
12106	0.00041	0	7e-05	0.00017	0.00052	0.00026	0.00024	0.00013	3
12107	0.00041	0	7e-05	0.00017	0.00052	0.00026	0.00024	0.00013	3
12108	0.00041	0	7e-05	0.00017	0.00052	0.00026	0.00024	0.00013	3
12109	0.00041	0	7e-05	0.00017	0.00052	0.00026	0.00024	0.00013	3
12110	0.00041	0	7e-05	0.00017	0.00052	0.00026	0.00024	0.00013	3
12111	0.00041	0	7e-05	0.00017	0.00052	0.00026	0.00024	0.00013	3
12112	0.00041	0	7e-05	0.00017	0.00052	0.00026	0.00024	0.00013	3
12113	0.00041	0	7e-05	0.00017	0.00052	0.00026	0.00024	0.00013	3
12114	0.00041	0	7e-05	0.00017	0.00052	0.00026	0.00024	0.00013	3
12115	0.00041	0	7e-05	0.00017	0.00052	0.00026	0.00024	0.00013	3
12116	0.00041	0	7e-05	0.00017	0.00052	0.00026	0.00024	0.00013	3
12117	0.00041	0	7e-05	0.00017	0.00052	0.00026	0.00024	0.00013	3
12118	0.00041	0	7e-05	0.00017	0.00052	0.00026	0.00024	0.00013	3
12119	0.00041	0	7e-05	0.00017	0.00052	0.00026	0.00024	0.00013	3
12120	-0.0002	8e-05	4e-05	0.00018	0.0004	-4e-05	-0.00016	-3e-05	3
12121	-0.0002	8e-05	4e-05	0.00018	0.0004	-4e-05	-0.00016	-3e-05	3
12122	0.00012	-3e-05	-0.00015	-0.00021	-0.0003	-0.00043	8e-05	-0.00012	3
12123	0.00012	-3e-05	-0.00015	-0.00021	-0.0003	-0.00043	8e-05	-0.00012	3
12124	0.00012	-3e-05	-0.00015	-0.00021	-0.0003	-0.00043	8e-05	-0.00012	3
12125	0.00012	-3e-05	-0.00015	-0.00021	-0.0003	-0.00043	8e-05	-0.00012	3
12126	0.00012	-3e-05	-0.00015	-0.00021	-0.0003	-0.00043	8e-05	-0.00012	3
12127	0.00012	-3e-05	-0.00015	-0.00021	-0.0003	-0.00043	8e-05	-0.00012	3
12128	0.00012	-3e-05	-0.00015	-0.00021	-0.0003	-0.00043	8e-05	-0.00012	3
12129	0.00012	-3e-05	-0.00015	-0.00021	-0.0003	-0.00043	8e-05	-0.00012	3
12130	0.00012	-3e-05	-0.00015	-0.00021	-0.0003	-0.00043	8e-05	-0.00012	3
12131	0.00012	-3e-05	-0.00015	-0.00021	-0.0003	-0.00043	8e-05	-0.00012	3
12132	0.00012	-3e-05	-0.00015	-0.00021	-0.0003	-0.00043	8e-05	-0.00012	3
12133	0.00012	-3e-05	-0.00015	-0.00021	-0.0003	-0.00043	8e-05	-0.00012	3
12134	0.00012	-3e-05	-0.00015	-0.00021	-0.0003	-0.00043	8e-05	-0.00012	3
12135	0.00012	-3e-05	-0.00015	-0.00021	-0.0003	-0.00043	8e-05	-0.00012	3
12136	0.00012	-3e-05	-0.00015	-0.00021	-0.0003	-0.00043	8e-05	-0.00012	3
12138	0.00012	-3e-05	-0.00015	-0.00021	-0.0003	-0.00043	8e-05	-0.00012	3
12139	0.00012	-3e-05	-0.00015	-0.00021	-0.0003	-0.00043	8e-05	-0.00012	3
12140	0.00012	-3e-05	-0.00015	-0.00021	-0.0003	-0.00043	8e-05	-0.00012	3
12141	0.00012	-3e-05	-0.00015	-0.00021	-0.0003	-0.00043	8e-05	-0.00012	3
12143	-0.00044	0.00011	6e-05	7e-05	-3e-05	-0.00011	-0.0001	-0.00026	3
12144	0.00051	-3e-05	1e-05	1e-05	0.00031	0.00062	0.0003	0.00022	3
12145	-0.00015	4e-05	-8e-05	-4e-05	7e-05	-0.00029	-0.00021	-0.00035	3
12146	-0.00015	4e-05	-8e-05	-4e-05	7e-05	-0.00029	-0.00021	-0.00035	3
12147	-0.00015	4e-05	-8e-05	-4e-05	7e-05	-0.00029	-0.00021	-0.00035	3
12148	-0.00015	4e-05	-8e-05	-4e-05	7e-05	-0.00029	-0.00021	-0.00035	3
12149	-0.00015	4e-05	-8e-05	-4e-05	7e-05	-0.00029	-0.00021	-0.00035	3
12150	-0.00015	4e-05	-8e-05	-4e-05	7e-05	-0.00029	-0.00021	-0.00035	3
12151	-0.00015	4e-05	-8e-05	-4e-05	7e-05	-0.00029	-0.00021	-0.00035	3
12152	-0.00015	4e-05	-8e-05	-4e-05	7e-05	-0.00029	-0.00021	-0.00035	3
12153	-0.00015	4e-05	-8e-05	-4e-05	7e-05	-0.00029	-0.00021	-0.00035	3
12154	-0.00015	4e-05	-8e-05	-4e-05	7e-05	-0.00029	-0.00021	-0.00035	3
12155	-0.00015	4e-05	-8e-05	-4e-05	7e-05	-0.00029	-0.00021	-0.00035	3
12156	-0.00015	4e-05	-8e-05	-4e-05	7e-05	-0.00029	-0.00021	-0.00035	3
12157	-0.00079	-0.00012	6e-05	-0.0001	-0.00014	-2e-05	6e-05	-1e-05	3
12158	-0.00079	-0.00012	6e-05	-0.0001	-0.00014	-2e-05	6e-05	-1e-05	3
12159	-0.00079	-0.00012	6e-05	-0.0001	-0.00014	-2e-05	6e-05	-1e-05	3
12160	-0.00079	-0.00012	6e-05	-0.0001	-0.00014	-2e-05	6e-05	-1e-05	3
12161	-0.00079	-0.00012	6e-05	-0.0001	-0.00014	-2e-05	6e-05	-1e-05	3
12162	-0.00079	-0.00012	6e-05	-0.0001	-0.00014	-2e-05	6e-05	-1e-05	3
12163	-0.00079	-0.00012	6e-05	-0.0001	-0.00014	-2e-05	6e-05	-1e-05	3
12164	-0.00037	-0.00015	-0.00017	-0.00023	-0.00049	8e-05	0.00029	0.00041	3
12165	-0.00037	-0.00015	-0.00017	-0.00023	-0.00049	8e-05	0.00029	0.00041	3
12166	-0.00037	-0.00015	-0.00017	-0.00023	-0.00049	8e-05	0.00029	0.00041	3
12167	-0.00037	-0.00015	-0.00017	-0.00023	-0.00049	8e-05	0.00029	0.00041	3
12168	-0.00037	-0.00015	-0.00017	-0.00023	-0.00049	8e-05	0.00029	0.00041	3
12169	-0.00037	-0.00015	-0.00017	-0.00023	-0.00049	8e-05	0.00029	0.00041	3
12170	-0.00037	-0.00015	-0.00017	-0.00023	-0.00049	8e-05	0.00029	0.00041	3
12171	-0.00037	-0.00015	-0.00017	-0.00023	-0.00049	8e-05	0.00029	0.00041	3
12172	-0.00037	-0.00015	-0.00017	-0.00023	-0.00049	8e-05	0.00029	0.00041	3
12173	-0.00037	-0.00015	-0.00017	-0.00023	-0.00049	8e-05	0.00029	0.00041	3
12174	-0.00037	-0.00015	-0.00017	-0.00023	-0.00049	8e-05	0.00029	0.00041	3
12175	-0.00037	-0.00015	-0.00017	-0.00023	-0.00049	8e-05	0.00029	0.00041	3
12176	-0.00037	-0.00015	-0.00017	-0.00023	-0.00049	8e-05	0.00029	0.00041	3
12177	-0.00037	-0.00015	-0.00017	-0.00023	-0.00049	8e-05	0.00029	0.00041	3
12178	-0.00037	-0.00015	-0.00017	-0.00023	-0.00049	8e-05	0.00029	0.00041	3
12179	-0.00037	-0.00015	-0.00017	-0.00023	-0.00049	8e-05	0.00029	0.00041	3
12180	0.00017	-6e-05	-2e-05	9e-05	0.0001	-0.00013	9e-05	7e-05	3
12181	6e-05	-7e-05	-7e-05	4e-05	0.0003	-0.00014	-0.00029	-0.00015	3
12182	-0.00034	-0.00011	4e-05	-0.00014	-0.0005	-0.00061	-3e-05	-0.00026	3
12183	-0.00034	-0.00011	4e-05	-0.00014	-0.0005	-0.00061	-3e-05	-0.00026	3
12184	-0.00034	-0.00011	4e-05	-0.00014	-0.0005	-0.00061	-3e-05	-0.00026	3
12185	-0.00034	-0.00011	4e-05	-0.00014	-0.0005	-0.00061	-3e-05	-0.00026	3
12186	-0.00034	-0.00011	4e-05	-0.00014	-0.0005	-0.00061	-3e-05	-0.00026	3
12188	-0.00034	-0.00011	4e-05	-0.00014	-0.0005	-0.00061	-3e-05	-0.00026	3
12189	-0.00034	-0.00011	4e-05	-0.00014	-0.0005	-0.00061	-3e-05	-0.00026	3
12190	-0.00034	-0.00011	4e-05	-0.00014	-0.0005	-0.00061	-3e-05	-0.00026	3
12191	-0.00034	-0.00011	4e-05	-0.00014	-0.0005	-0.00061	-3e-05	-0.00026	3
12192	-0.00034	-0.00011	4e-05	-0.00014	-0.0005	-0.00061	-3e-05	-0.00026	3
12193	-0.00034	-0.00011	4e-05	-0.00014	-0.0005	-0.00061	-3e-05	-0.00026	3
12194	-0.00034	-0.00011	4e-05	-0.00014	-0.0005	-0.00061	-3e-05	-0.00026	3
12195	-0.00034	-0.00011	4e-05	-0.00014	-0.0005	-0.00061	-3e-05	-0.00026	3
12196	-0.00034	-0.00011	4e-05	-0.00014	-0.0005	-0.00061	-3e-05	-0.00026	3
12197	-0.00034	-0.00011	4e-05	-0.00014	-0.0005	-0.00061	-3e-05	-0.00026	3
12198	-0.00034	-0.00011	4e-05	-0.00014	-0.0005	-0.00061	-3e-05	-0.00026	3
12199	-0.00034	-0.00011	4e-05	-0.00014	-0.0005	-0.00061	-3e-05	-0.00026	3
12200	-0.00034	-0.00011	4e-05	-0.00014	-0.0005	-0.00061	-3e-05	-0.00026	3
12201	-0.00034	-0.00011	4e-05	-0.00014	-0.0005	-0.00061	-3e-05	-0.00026	3
12202	-0.00034	-0.00011	4e-05	-0.00014	-0.0005	-0.00061	-3e-05	-0.00026	3
12203	0.00026	8e-05	4e-05	8e-05	0.00022	-0.00014	-0.00012	-9e-05	3
12204	-0.00016	-4e-05	-4e-05	-8e-05	-0.00014	-9e-05	7e-05	-0.00015	3
12205	-0.00077	-8e-05	1e-05	0.00013	0.0003	0.00017	-2e-05	-0.0003	3
12206	-0.00077	-8e-05	1e-05	0.00013	0.0003	0.00017	-2e-05	-0.0003	3
12207	-0.00077	-8e-05	1e-05	0.00013	0.0003	0.00017	-2e-05	-0.0003	3
12208	-0.00077	-8e-05	1e-05	0.00013	0.0003	0.00017	-2e-05	-0.0003	3
12209	-0.00077	-8e-05	1e-05	0.00013	0.0003	0.00017	-2e-05	-0.0003	3
12210	-0.00077	-8e-05	1e-05	0.00013	0.0003	0.00017	-2e-05	-0.0003	3
12211	-0.00077	-8e-05	1e-05	0.00013	0.0003	0.00017	-2e-05	-0.0003	3
12212	-0.00077	-8e-05	1e-05	0.00013	0.0003	0.00017	-2e-05	-0.0003	3
12213	-0.00077	-8e-05	1e-05	0.00013	0.0003	0.00017	-2e-05	-0.0003	3
12214	-0.00077	-8e-05	1e-05	0.00013	0.0003	0.00017	-2e-05	-0.0003	3
12215	-0.00077	-8e-05	1e-05	0.00013	0.0003	0.00017	-2e-05	-0.0003	3
12216	-0.00077	-8e-05	1e-05	0.00013	0.0003	0.00017	-2e-05	-0.0003	3
12217	0.00059	-5e-05	-0.00011	-0.0002	-0.00018	-8e-05	-0.00017	-4e-05	3
12218	0.00059	-5e-05	-0.00011	-0.0002	-0.00018	-8e-05	-0.00017	-4e-05	3
12219	0.00059	-5e-05	-0.00011	-0.0002	-0.00018	-8e-05	-0.00017	-4e-05	3
12220	0.00059	-5e-05	-0.00011	-0.0002	-0.00018	-8e-05	-0.00017	-4e-05	3
12221	0.00059	-5e-05	-0.00011	-0.0002	-0.00018	-8e-05	-0.00017	-4e-05	3
12222	0.00059	-5e-05	-0.00011	-0.0002	-0.00018	-8e-05	-0.00017	-4e-05	3
12223	0.00059	-5e-05	-0.00011	-0.0002	-0.00018	-8e-05	-0.00017	-4e-05	3
12224	0.00059	-5e-05	-0.00011	-0.0002	-0.00018	-8e-05	-0.00017	-4e-05	3
12225	-3e-05	7e-05	-6e-05	-8e-05	-0.00022	-0.0006	0.00017	0.0002	3
12226	-0.00012	-9e-05	0.0001	0.00029	0.00051	0.0004	1e-05	0.00023	3
12227	-0.00012	-9e-05	0.0001	0.00029	0.00051	0.0004	1e-05	0.00023	3
12228	-0.00012	-9e-05	0.0001	0.00029	0.00051	0.0004	1e-05	0.00023	3
12229	-0.00012	-9e-05	0.0001	0.00029	0.00051	0.0004	1e-05	0.00023	3
12230	-0.00012	-9e-05	0.0001	0.00029	0.00051	0.0004	1e-05	0.00023	3
12231	-0.00012	-9e-05	0.0001	0.00029	0.00051	0.0004	1e-05	0.00023	3
12232	-0.00012	-9e-05	0.0001	0.00029	0.00051	0.0004	1e-05	0.00023	3
12233	-0.00012	-9e-05	0.0001	0.00029	0.00051	0.0004	1e-05	0.00023	3
12234	-0.00012	-9e-05	0.0001	0.00029	0.00051	0.0004	1e-05	0.00023	3
12235	-0.00012	-9e-05	0.0001	0.00029	0.00051	0.0004	1e-05	0.00023	3
12236	-0.00012	-9e-05	0.0001	0.00029	0.00051	0.0004	1e-05	0.00023	3
12238	-0.00012	-9e-05	0.0001	0.00029	0.00051	0.0004	1e-05	0.00023	3
12239	-0.00012	-9e-05	0.0001	0.00029	0.00051	0.0004	1e-05	0.00023	3
12240	-0.00021	-0.0001	-0.00012	-9e-05	-2e-05	0.00037	0.0001	-0.0004	3
12241	0.0002	-7e-05	-1e-05	6e-05	-0.00013	-0.00021	-6e-05	-1e-05	3
12242	-0.00063	-0.0002	-2e-05	-8e-05	0.00011	-0.0001	-3e-05	1e-05	3
12243	-0.00063	-0.0002	-2e-05	-8e-05	0.00011	-0.0001	-3e-05	1e-05	3
12244	-0.00063	-0.0002	-2e-05	-8e-05	0.00011	-0.0001	-3e-05	1e-05	3
12245	-0.00063	-0.0002	-2e-05	-8e-05	0.00011	-0.0001	-3e-05	1e-05	3
12246	-0.00063	-0.0002	-2e-05	-8e-05	0.00011	-0.0001	-3e-05	1e-05	3
12247	-0.00063	-0.0002	-2e-05	-8e-05	0.00011	-0.0001	-3e-05	1e-05	3
12248	-0.00063	-0.0002	-2e-05	-8e-05	0.00011	-0.0001	-3e-05	1e-05	3
12249	-0.00063	-0.0002	-2e-05	-8e-05	0.00011	-0.0001	-3e-05	1e-05	3
12250	-0.00063	-0.0002	-2e-05	-8e-05	0.00011	-0.0001	-3e-05	1e-05	3
12251	-0.00063	-0.0002	-2e-05	-8e-05	0.00011	-0.0001	-3e-05	1e-05	3
12252	-0.00063	-0.0002	-2e-05	-8e-05	0.00011	-0.0001	-3e-05	1e-05	3
12253	-0.00063	-0.0002	-2e-05	-8e-05	0.00011	-0.0001	-3e-05	1e-05	3
12254	-0.00063	-0.0002	-2e-05	-8e-05	0.00011	-0.0001	-3e-05	1e-05	3
12255	-0.00063	-0.0002	-2e-05	-8e-05	0.00011	-0.0001	-3e-05	1e-05	3
12256	-0.00063	-0.0002	-2e-05	-8e-05	0.00011	-0.0001	-3e-05	1e-05	3
12257	-0.00063	-0.0002	-2e-05	-8e-05	0.00011	-0.0001	-3e-05	1e-05	3
12258	-0.00063	-0.0002	-2e-05	-8e-05	0.00011	-0.0001	-3e-05	1e-05	3
12259	-0.00063	-0.0002	-2e-05	-8e-05	0.00011	-0.0001	-3e-05	1e-05	3
12260	-0.00063	-0.0002	-2e-05	-8e-05	0.00011	-0.0001	-3e-05	1e-05	3
12261	-0.00063	-0.0002	-2e-05	-8e-05	0.00011	-0.0001	-3e-05	1e-05	3
12262	-0.00063	-0.0002	-2e-05	-8e-05	0.00011	-0.0001	-3e-05	1e-05	3
12263	0.00011	-0.00015	-3e-05	-5e-05	0.00012	-0.00019	-9e-05	-4e-05	3
12264	-0.00012	-2e-05	-4e-05	-5e-05	-0.00026	-8e-05	-0.00011	0.00016	3
12265	0.00027	-2e-05	0	2e-05	0.0001	-7e-05	-0.00011	1e-05	3
12266	0.00027	-2e-05	0	2e-05	0.0001	-7e-05	-0.00011	1e-05	3
12268	0.00027	-2e-05	0	2e-05	0.0001	-7e-05	-0.00011	1e-05	3
12269	0.00027	-2e-05	0	2e-05	0.0001	-7e-05	-0.00011	1e-05	3
12270	0.00027	-2e-05	0	2e-05	0.0001	-7e-05	-0.00011	1e-05	3
12271	0.00027	-2e-05	0	2e-05	0.0001	-7e-05	-0.00011	1e-05	3
12272	0.00027	-2e-05	0	2e-05	0.0001	-7e-05	-0.00011	1e-05	3
12273	0.00027	-2e-05	0	2e-05	0.0001	-7e-05	-0.00011	1e-05	3
12274	0.00027	-2e-05	0	2e-05	0.0001	-7e-05	-0.00011	1e-05	3
12275	0.00027	-2e-05	0	2e-05	0.0001	-7e-05	-0.00011	1e-05	3
12276	0.00027	-2e-05	0	2e-05	0.0001	-7e-05	-0.00011	1e-05	3
12277	-0.00033	-2e-05	2e-05	0.00022	0.0003	0	0.00016	-8e-05	3
12278	-0.00033	-2e-05	2e-05	0.00022	0.0003	0	0.00016	-8e-05	3
12279	-0.00033	-2e-05	2e-05	0.00022	0.0003	0	0.00016	-8e-05	3
12280	-0.00033	-2e-05	2e-05	0.00022	0.0003	0	0.00016	-8e-05	3
12281	-0.00033	-2e-05	2e-05	0.00022	0.0003	0	0.00016	-8e-05	3
12282	-0.00033	-2e-05	2e-05	0.00022	0.0003	0	0.00016	-8e-05	3
12283	-0.00033	-2e-05	2e-05	0.00022	0.0003	0	0.00016	-8e-05	3
12284	-0.00033	-2e-05	2e-05	0.00022	0.0003	0	0.00016	-8e-05	3
12285	0.0002	-0.00017	-0.00011	-7e-05	-0.00011	-0.0001	0.0001	0	3
12286	-0.00015	8e-05	0.00011	-3e-05	-0.00012	0.00017	3e-05	-2e-05	3
12288	-0.00015	8e-05	0.00011	-3e-05	-0.00012	0.00017	3e-05	-2e-05	3
12289	-0.00015	8e-05	0.00011	-3e-05	-0.00012	0.00017	3e-05	-2e-05	3
12290	-0.00015	8e-05	0.00011	-3e-05	-0.00012	0.00017	3e-05	-2e-05	3
12291	-0.00015	8e-05	0.00011	-3e-05	-0.00012	0.00017	3e-05	-2e-05	3
12292	-0.00015	8e-05	0.00011	-3e-05	-0.00012	0.00017	3e-05	-2e-05	3
12293	-0.00015	8e-05	0.00011	-3e-05	-0.00012	0.00017	3e-05	-2e-05	3
12294	-0.00015	8e-05	0.00011	-3e-05	-0.00012	0.00017	3e-05	-2e-05	3
12295	-0.00015	8e-05	0.00011	-3e-05	-0.00012	0.00017	3e-05	-2e-05	3
12296	-0.00015	8e-05	0.00011	-3e-05	-0.00012	0.00017	3e-05	-2e-05	3
12297	-0.00015	8e-05	0.00011	-3e-05	-0.00012	0.00017	3e-05	-2e-05	3
12298	-0.00015	8e-05	0.00011	-3e-05	-0.00012	0.00017	3e-05	-2e-05	3
12299	-0.00015	8e-05	0.00011	-3e-05	-0.00012	0.00017	3e-05	-2e-05	3
12300	-0.00015	8e-05	0.00011	-3e-05	-0.00012	0.00017	3e-05	-2e-05	3
12301	-0.00053	3e-05	-1e-05	2e-05	0.0001	-0.00016	-5e-05	-0.0004	3
12302	0.00086	0.00013	-8e-05	3e-05	0.00018	9e-05	-2e-05	0.00021	3
12303	0.00086	0.00013	-8e-05	3e-05	0.00018	9e-05	-2e-05	0.00021	3
12304	0.00086	0.00013	-8e-05	3e-05	0.00018	9e-05	-2e-05	0.00021	3
12305	0.00086	0.00013	-8e-05	3e-05	0.00018	9e-05	-2e-05	0.00021	3
12306	0.00086	0.00013	-8e-05	3e-05	0.00018	9e-05	-2e-05	0.00021	3
12307	0.00086	0.00013	-8e-05	3e-05	0.00018	9e-05	-2e-05	0.00021	3
12308	0.00086	0.00013	-8e-05	3e-05	0.00018	9e-05	-2e-05	0.00021	3
12309	0.00086	0.00013	-8e-05	3e-05	0.00018	9e-05	-2e-05	0.00021	3
12310	0.00086	0.00013	-8e-05	3e-05	0.00018	9e-05	-2e-05	0.00021	3
12311	0.00086	0.00013	-8e-05	3e-05	0.00018	9e-05	-2e-05	0.00021	3
12312	0.00086	0.00013	-8e-05	3e-05	0.00018	9e-05	-2e-05	0.00021	3
12313	0.00086	0.00013	-8e-05	3e-05	0.00018	9e-05	-2e-05	0.00021	3
12314	0.00086	0.00013	-8e-05	3e-05	0.00018	9e-05	-2e-05	0.00021	3
12315	0.00086	0.00013	-8e-05	3e-05	0.00018	9e-05	-2e-05	0.00021	3
12316	0.00086	0.00013	-8e-05	3e-05	0.00018	9e-05	-2e-05	0.00021	3
12317	0.00086	0.00013	-8e-05	3e-05	0.00018	9e-05	-2e-05	0.00021	3
12318	0.00086	0.00013	-8e-05	3e-05	0.00018	9e-05	-2e-05	0.00021	3
12319	0.00086	0.00013	-8e-05	3e-05	0.00018	9e-05	-2e-05	0.00021	3
12320	0.00086	0.00013	-8e-05	3e-05	0.00018	9e-05	-2e-05	0.00021	3
12321	0.00086	0.00013	-8e-05	3e-05	0.00018	9e-05	-2e-05	0.00021	3
12322	0.00086	0.00013	-8e-05	3e-05	0.00018	9e-05	-2e-05	0.00021	3
12323	-5e-05	2e-05	3e-05	5e-05	0.00045	0.0001	0.00011	-4e-05	3
12324	-0.00026	1e-05	4e-05	0.00011	0.00019	0.00047	9e-05	1e-05	3
12325	-0.00015	-0.00024	-3e-05	-0.00012	-0.0004	-0.00044	-0.00013	-0.00025	3
12326	-0.00015	-0.00024	-3e-05	-0.00012	-0.0004	-0.00044	-0.00013	-0.00025	3
12327	-0.00015	-0.00024	-3e-05	-0.00012	-0.0004	-0.00044	-0.00013	-0.00025	3
12328	-0.00015	-0.00024	-3e-05	-0.00012	-0.0004	-0.00044	-0.00013	-0.00025	3
12329	-0.00015	-0.00024	-3e-05	-0.00012	-0.0004	-0.00044	-0.00013	-0.00025	3
12330	-0.00015	-0.00024	-3e-05	-0.00012	-0.0004	-0.00044	-0.00013	-0.00025	3
12331	-0.00015	-0.00024	-3e-05	-0.00012	-0.0004	-0.00044	-0.00013	-0.00025	3
12332	-0.00015	-0.00024	-3e-05	-0.00012	-0.0004	-0.00044	-0.00013	-0.00025	3
12333	-0.00015	-0.00024	-3e-05	-0.00012	-0.0004	-0.00044	-0.00013	-0.00025	3
12334	-0.00015	-0.00024	-3e-05	-0.00012	-0.0004	-0.00044	-0.00013	-0.00025	3
12335	-0.00015	-0.00024	-3e-05	-0.00012	-0.0004	-0.00044	-0.00013	-0.00025	3
12337	-0.00028	-0.00012	-4e-05	-1e-05	1e-05	0.00013	9e-05	0.00023	3
12339	-0.00028	-0.00012	-4e-05	-1e-05	1e-05	0.00013	9e-05	0.00023	3
12340	-0.00028	-0.00012	-4e-05	-1e-05	1e-05	0.00013	9e-05	0.00023	3
12341	-0.00028	-0.00012	-4e-05	-1e-05	1e-05	0.00013	9e-05	0.00023	3
12342	-0.00028	-0.00012	-4e-05	-1e-05	1e-05	0.00013	9e-05	0.00023	3
12343	-0.00028	-0.00012	-4e-05	-1e-05	1e-05	0.00013	9e-05	0.00023	3
12344	-0.00028	-0.00012	-4e-05	-1e-05	1e-05	0.00013	9e-05	0.00023	3
12345	0.00034	0.00013	-2e-05	-0.00016	-0.00046	7e-05	-7e-05	0.0004	3
12346	0.00019	2e-05	-3e-05	-6e-05	-0.00012	-0.00032	-0.00013	0.00019	3
12347	0.00019	2e-05	-3e-05	-6e-05	-0.00012	-0.00032	-0.00013	0.00019	3
12348	0.00019	2e-05	-3e-05	-6e-05	-0.00012	-0.00032	-0.00013	0.00019	3
12349	0.00019	2e-05	-3e-05	-6e-05	-0.00012	-0.00032	-0.00013	0.00019	3
12350	0.00019	2e-05	-3e-05	-6e-05	-0.00012	-0.00032	-0.00013	0.00019	3
12351	0.00019	2e-05	-3e-05	-6e-05	-0.00012	-0.00032	-0.00013	0.00019	3
12352	0.00019	2e-05	-3e-05	-6e-05	-0.00012	-0.00032	-0.00013	0.00019	3
12353	0.00019	2e-05	-3e-05	-6e-05	-0.00012	-0.00032	-0.00013	0.00019	3
12354	0.00019	2e-05	-3e-05	-6e-05	-0.00012	-0.00032	-0.00013	0.00019	3
12355	0.00019	2e-05	-3e-05	-6e-05	-0.00012	-0.00032	-0.00013	0.00019	3
12356	0.00019	2e-05	-3e-05	-6e-05	-0.00012	-0.00032	-0.00013	0.00019	3
12357	0.00019	2e-05	-3e-05	-6e-05	-0.00012	-0.00032	-0.00013	0.00019	3
12358	0.00019	2e-05	-3e-05	-6e-05	-0.00012	-0.00032	-0.00013	0.00019	3
12359	0.00019	2e-05	-3e-05	-6e-05	-0.00012	-0.00032	-0.00013	0.00019	3
12360	-9e-05	-0.00012	-1e-05	-1e-05	1e-05	0.00023	-0.00022	0	3
12361	-9e-05	-0.00012	-1e-05	-1e-05	1e-05	0.00023	-0.00022	0	3
12362	-0.00052	-6e-05	-4e-05	-0.0001	-0.00038	-5e-05	0.0003	-8e-05	3
12363	-0.00052	-6e-05	-4e-05	-0.0001	-0.00038	-5e-05	0.0003	-8e-05	3
12364	-0.00052	-6e-05	-4e-05	-0.0001	-0.00038	-5e-05	0.0003	-8e-05	3
12365	-0.00052	-6e-05	-4e-05	-0.0001	-0.00038	-5e-05	0.0003	-8e-05	3
12366	-0.00052	-6e-05	-4e-05	-0.0001	-0.00038	-5e-05	0.0003	-8e-05	3
12367	-0.00052	-6e-05	-4e-05	-0.0001	-0.00038	-5e-05	0.0003	-8e-05	3
12368	-0.00052	-6e-05	-4e-05	-0.0001	-0.00038	-5e-05	0.0003	-8e-05	3
12369	-0.00052	-6e-05	-4e-05	-0.0001	-0.00038	-5e-05	0.0003	-8e-05	3
12370	-0.00052	-6e-05	-4e-05	-0.0001	-0.00038	-5e-05	0.0003	-8e-05	3
12371	-0.00052	-6e-05	-4e-05	-0.0001	-0.00038	-5e-05	0.0003	-8e-05	3
12372	-0.00052	-6e-05	-4e-05	-0.0001	-0.00038	-5e-05	0.0003	-8e-05	3
12373	-0.00052	-6e-05	-4e-05	-0.0001	-0.00038	-5e-05	0.0003	-8e-05	3
12374	-0.00052	-6e-05	-4e-05	-0.0001	-0.00038	-5e-05	0.0003	-8e-05	3
12375	-0.00052	-6e-05	-4e-05	-0.0001	-0.00038	-5e-05	0.0003	-8e-05	3
12376	-0.00052	-6e-05	-4e-05	-0.0001	-0.00038	-5e-05	0.0003	-8e-05	3
12377	-0.00052	-6e-05	-4e-05	-0.0001	-0.00038	-5e-05	0.0003	-8e-05	3
12378	-0.00052	-6e-05	-4e-05	-0.0001	-0.00038	-5e-05	0.0003	-8e-05	3
12379	-0.00052	-6e-05	-4e-05	-0.0001	-0.00038	-5e-05	0.0003	-8e-05	3
12380	-0.00052	-6e-05	-4e-05	-0.0001	-0.00038	-5e-05	0.0003	-8e-05	3
12381	-0.00052	-6e-05	-4e-05	-0.0001	-0.00038	-5e-05	0.0003	-8e-05	3
12382	-0.00052	-6e-05	-4e-05	-0.0001	-0.00038	-5e-05	0.0003	-8e-05	3
12383	-0.00052	-6e-05	-4e-05	-0.0001	-0.00038	-5e-05	0.0003	-8e-05	3
12384	0.00075	-0.00019	-6e-05	-0.00017	-0.00035	-7e-05	-2e-05	-3e-05	3
12385	0.00022	-0.00011	-5e-05	0.00013	0.00055	0.00019	-0.00021	0.00027	3
12386	0.00022	-0.00011	-5e-05	0.00013	0.00055	0.00019	-0.00021	0.00027	3
12388	0.00022	-0.00011	-5e-05	0.00013	0.00055	0.00019	-0.00021	0.00027	3
12389	0.00022	-0.00011	-5e-05	0.00013	0.00055	0.00019	-0.00021	0.00027	3
12390	0.00022	-0.00011	-5e-05	0.00013	0.00055	0.00019	-0.00021	0.00027	3
12391	0.00022	-0.00011	-5e-05	0.00013	0.00055	0.00019	-0.00021	0.00027	3
12392	0.00022	-0.00011	-5e-05	0.00013	0.00055	0.00019	-0.00021	0.00027	3
12393	0.00022	-0.00011	-5e-05	0.00013	0.00055	0.00019	-0.00021	0.00027	3
12394	0.00022	-0.00011	-5e-05	0.00013	0.00055	0.00019	-0.00021	0.00027	3
12395	0.00022	-0.00011	-5e-05	0.00013	0.00055	0.00019	-0.00021	0.00027	3
12396	0.00022	-0.00011	-5e-05	0.00013	0.00055	0.00019	-0.00021	0.00027	3
12397	-6e-05	0.00023	2e-05	-3e-05	-4e-05	0.00032	-1e-05	-0.0002	3
12398	-6e-05	0.00023	2e-05	-3e-05	-4e-05	0.00032	-1e-05	-0.0002	3
12399	-6e-05	0.00023	2e-05	-3e-05	-4e-05	0.00032	-1e-05	-0.0002	3
12400	-6e-05	0.00023	2e-05	-3e-05	-4e-05	0.00032	-1e-05	-0.0002	3
12401	-6e-05	0.00023	2e-05	-3e-05	-4e-05	0.00032	-1e-05	-0.0002	3
12402	-6e-05	0.00023	2e-05	-3e-05	-4e-05	0.00032	-1e-05	-0.0002	3
12403	-6e-05	0.00023	2e-05	-3e-05	-4e-05	0.00032	-1e-05	-0.0002	3
12404	-6e-05	0.00023	2e-05	-3e-05	-4e-05	0.00032	-1e-05	-0.0002	3
12405	-6e-05	0.00023	2e-05	-3e-05	-4e-05	0.00032	-1e-05	-0.0002	3
12406	-0.00019	7e-05	-3e-05	-0.00011	-0.00032	-0.00027	-0.00014	-0.00085	3
12407	-0.00019	7e-05	-3e-05	-0.00011	-0.00032	-0.00027	-0.00014	-0.00085	3
12408	-0.00019	7e-05	-3e-05	-0.00011	-0.00032	-0.00027	-0.00014	-0.00085	3
12409	-0.00019	7e-05	-3e-05	-0.00011	-0.00032	-0.00027	-0.00014	-0.00085	3
12410	-0.00019	7e-05	-3e-05	-0.00011	-0.00032	-0.00027	-0.00014	-0.00085	3
12411	-0.00019	7e-05	-3e-05	-0.00011	-0.00032	-0.00027	-0.00014	-0.00085	3
12412	-0.00019	7e-05	-3e-05	-0.00011	-0.00032	-0.00027	-0.00014	-0.00085	3
12413	-0.00019	7e-05	-3e-05	-0.00011	-0.00032	-0.00027	-0.00014	-0.00085	3
12414	-0.00019	7e-05	-3e-05	-0.00011	-0.00032	-0.00027	-0.00014	-0.00085	3
12415	-0.00019	7e-05	-3e-05	-0.00011	-0.00032	-0.00027	-0.00014	-0.00085	3
12416	-0.00019	7e-05	-3e-05	-0.00011	-0.00032	-0.00027	-0.00014	-0.00085	3
12417	-0.00019	7e-05	-3e-05	-0.00011	-0.00032	-0.00027	-0.00014	-0.00085	3
12418	-0.00019	7e-05	-3e-05	-0.00011	-0.00032	-0.00027	-0.00014	-0.00085	3
12419	-0.00019	7e-05	-3e-05	-0.00011	-0.00032	-0.00027	-0.00014	-0.00085	3
12420	-7e-05	-4e-05	-3e-05	-0.00023	-0.00045	-0.00029	-0.00018	-0.00022	3
12421	-0.00037	-0.00011	-8e-05	-2e-05	0.00012	0.00023	-0.0001	-1e-05	3
12422	-0.0006	-7e-05	-1e-05	-1e-05	0.00018	0.00027	0.00029	0.00038	3
12423	-0.0006	-7e-05	-1e-05	-1e-05	0.00018	0.00027	0.00029	0.00038	3
12424	-0.0006	-7e-05	-1e-05	-1e-05	0.00018	0.00027	0.00029	0.00038	3
12425	-0.0006	-7e-05	-1e-05	-1e-05	0.00018	0.00027	0.00029	0.00038	3
12426	-0.0006	-7e-05	-1e-05	-1e-05	0.00018	0.00027	0.00029	0.00038	3
12427	-0.0006	-7e-05	-1e-05	-1e-05	0.00018	0.00027	0.00029	0.00038	3
12428	-0.0006	-7e-05	-1e-05	-1e-05	0.00018	0.00027	0.00029	0.00038	3
12429	-0.0006	-7e-05	-1e-05	-1e-05	0.00018	0.00027	0.00029	0.00038	3
12430	-0.0006	-7e-05	-1e-05	-1e-05	0.00018	0.00027	0.00029	0.00038	3
12431	-0.0006	-7e-05	-1e-05	-1e-05	0.00018	0.00027	0.00029	0.00038	3
12432	-0.0006	-7e-05	-1e-05	-1e-05	0.00018	0.00027	0.00029	0.00038	3
12433	-0.0006	-7e-05	-1e-05	-1e-05	0.00018	0.00027	0.00029	0.00038	3
12434	-0.0006	-7e-05	-1e-05	-1e-05	0.00018	0.00027	0.00029	0.00038	3
12435	-0.0006	-7e-05	-1e-05	-1e-05	0.00018	0.00027	0.00029	0.00038	3
12436	-0.0006	-7e-05	-1e-05	-1e-05	0.00018	0.00027	0.00029	0.00038	3
12438	-0.0006	-7e-05	-1e-05	-1e-05	0.00018	0.00027	0.00029	0.00038	3
12439	-0.0006	-7e-05	-1e-05	-1e-05	0.00018	0.00027	0.00029	0.00038	3
12440	-0.0006	-7e-05	-1e-05	-1e-05	0.00018	0.00027	0.00029	0.00038	3
12441	-0.0006	-7e-05	-1e-05	-1e-05	0.00018	0.00027	0.00029	0.00038	3
12442	-0.0006	-7e-05	-1e-05	-1e-05	0.00018	0.00027	0.00029	0.00038	3
12443	-0.0006	-7e-05	-1e-05	-1e-05	0.00018	0.00027	0.00029	0.00038	3
12444	-0.0006	-7e-05	-1e-05	-1e-05	0.00018	0.00027	0.00029	0.00038	3
12445	-0.0006	-7e-05	-1e-05	-1e-05	0.00018	0.00027	0.00029	0.00038	3
12446	-0.0006	-7e-05	-1e-05	-1e-05	0.00018	0.00027	0.00029	0.00038	3
12447	-0.0006	-7e-05	-1e-05	-1e-05	0.00018	0.00027	0.00029	0.00038	3
12448	-0.0006	-7e-05	-1e-05	-1e-05	0.00018	0.00027	0.00029	0.00038	3
12449	-0.0006	-7e-05	-1e-05	-1e-05	0.00018	0.00027	0.00029	0.00038	3
12450	-8e-05	-0.00017	-7e-05	-0.00011	-0.00048	-1e-05	-0.00014	0.00029	3
12451	-6e-05	0.0001	3e-05	9e-05	0.00023	-4e-05	-0.0001	4e-05	3
12452	-6e-05	0.0001	3e-05	9e-05	0.00023	-4e-05	-0.0001	4e-05	3
12453	0.00054	8e-05	0	3e-05	-5e-05	0.00038	0.00065	0.00044	3
12454	0.00054	8e-05	0	3e-05	-5e-05	0.00038	0.00065	0.00044	3
12455	0.00054	8e-05	0	3e-05	-5e-05	0.00038	0.00065	0.00044	3
12456	-0.00027	-0.00019	-5e-05	-0.00015	-0.00013	0.00051	0.00022	-0.00035	3
12457	1e-05	2e-05	1e-05	8e-05	0	-0.00019	-1e-05	0.00019	3
12458	1e-05	2e-05	1e-05	8e-05	0	-0.00019	-1e-05	0.00019	3
12459	1e-05	2e-05	1e-05	8e-05	0	-0.00019	-1e-05	0.00019	3
12460	1e-05	2e-05	1e-05	8e-05	0	-0.00019	-1e-05	0.00019	3
12461	1e-05	2e-05	1e-05	8e-05	0	-0.00019	-1e-05	0.00019	3
12462	1e-05	2e-05	1e-05	8e-05	0	-0.00019	-1e-05	0.00019	3
12463	1e-05	2e-05	1e-05	8e-05	0	-0.00019	-1e-05	0.00019	3
12464	1e-05	2e-05	1e-05	8e-05	0	-0.00019	-1e-05	0.00019	3
12465	-0.00019	0	-0.0001	-0.00019	-0.00013	-0.00054	-0.00037	-0.00051	3
12466	0.00048	0.00022	0.00012	0.00021	0.00071	0.00073	9e-05	0.00039	3
12467	0.00048	0.00022	0.00012	0.00021	0.00071	0.00073	9e-05	0.00039	3
12468	0.00048	0.00022	0.00012	0.00021	0.00071	0.00073	9e-05	0.00039	3
12469	0.00048	0.00022	0.00012	0.00021	0.00071	0.00073	9e-05	0.00039	3
12470	0.00048	0.00022	0.00012	0.00021	0.00071	0.00073	9e-05	0.00039	3
12471	0.00048	0.00022	0.00012	0.00021	0.00071	0.00073	9e-05	0.00039	3
12472	0.00048	0.00022	0.00012	0.00021	0.00071	0.00073	9e-05	0.00039	3
12473	0.00048	0.00022	0.00012	0.00021	0.00071	0.00073	9e-05	0.00039	3
12474	0.00048	0.00022	0.00012	0.00021	0.00071	0.00073	9e-05	0.00039	3
12475	0.00048	0.00022	0.00012	0.00021	0.00071	0.00073	9e-05	0.00039	3
12476	0.00048	0.00022	0.00012	0.00021	0.00071	0.00073	9e-05	0.00039	3
12477	0.00048	0.00022	0.00012	0.00021	0.00071	0.00073	9e-05	0.00039	3
12478	0.00048	0.00022	0.00012	0.00021	0.00071	0.00073	9e-05	0.00039	3
12479	0.00048	0.00022	0.00012	0.00021	0.00071	0.00073	9e-05	0.00039	3
12480	4e-05	-0.0003	1e-05	-3e-05	-0.00019	0.00023	4e-05	0.00024	3
12481	0.00015	6e-05	4e-05	0.00012	0.00012	-6e-05	1e-05	-0.00024	3
12482	-0.00046	-0.00013	-0.00021	-0.00038	-0.00061	-0.00064	-0.00032	-0.0005	3
12483	-0.00046	-0.00013	-0.00021	-0.00038	-0.00061	-0.00064	-0.00032	-0.0005	3
12484	-0.00046	-0.00013	-0.00021	-0.00038	-0.00061	-0.00064	-0.00032	-0.0005	3
12485	-0.00046	-0.00013	-0.00021	-0.00038	-0.00061	-0.00064	-0.00032	-0.0005	3
12486	-0.00046	-0.00013	-0.00021	-0.00038	-0.00061	-0.00064	-0.00032	-0.0005	3
12488	-0.00046	-0.00013	-0.00021	-0.00038	-0.00061	-0.00064	-0.00032	-0.0005	3
12490	-0.00046	-0.00013	-0.00021	-0.00038	-0.00061	-0.00064	-0.00032	-0.0005	3
12491	-0.00046	-0.00013	-0.00021	-0.00038	-0.00061	-0.00064	-0.00032	-0.0005	3
12492	-0.00046	-0.00013	-0.00021	-0.00038	-0.00061	-0.00064	-0.00032	-0.0005	3
12493	-0.00046	-0.00013	-0.00021	-0.00038	-0.00061	-0.00064	-0.00032	-0.0005	3
12494	-0.00046	-0.00013	-0.00021	-0.00038	-0.00061	-0.00064	-0.00032	-0.0005	3
12495	-0.00046	-0.00013	-0.00021	-0.00038	-0.00061	-0.00064	-0.00032	-0.0005	3
12496	-0.00046	-0.00013	-0.00021	-0.00038	-0.00061	-0.00064	-0.00032	-0.0005	3
12497	-0.00046	-0.00013	-0.00021	-0.00038	-0.00061	-0.00064	-0.00032	-0.0005	3
12498	-0.00046	-0.00013	-0.00021	-0.00038	-0.00061	-0.00064	-0.00032	-0.0005	3
12499	-0.00046	-0.00013	-0.00021	-0.00038	-0.00061	-0.00064	-0.00032	-0.0005	3
12500	-0.00046	-0.00013	-0.00021	-0.00038	-0.00061	-0.00064	-0.00032	-0.0005	3
12501	-0.00046	-0.00013	-0.00021	-0.00038	-0.00061	-0.00064	-0.00032	-0.0005	3
12503	-0.00024	0.00024	0.0001	-1e-05	7e-05	0.00027	-0.00012	-0.00022	3
12504	-0.00012	-2e-05	6e-05	1e-05	-5e-05	-9e-05	0.00032	0.00044	3
12505	0.00027	0.00029	2e-05	3e-05	-0.0001	-0.00019	-0.00026	-0.00017	3
12506	0.00027	0.00029	2e-05	3e-05	-0.0001	-0.00019	-0.00026	-0.00017	3
12507	0.00027	0.00029	2e-05	3e-05	-0.0001	-0.00019	-0.00026	-0.00017	3
12508	0.00027	0.00029	2e-05	3e-05	-0.0001	-0.00019	-0.00026	-0.00017	3
12509	0.00027	0.00029	2e-05	3e-05	-0.0001	-0.00019	-0.00026	-0.00017	3
12510	0.00027	0.00029	2e-05	3e-05	-0.0001	-0.00019	-0.00026	-0.00017	3
12511	0.00027	0.00029	2e-05	3e-05	-0.0001	-0.00019	-0.00026	-0.00017	3
12512	0.00027	0.00029	2e-05	3e-05	-0.0001	-0.00019	-0.00026	-0.00017	3
12513	0.00027	0.00029	2e-05	3e-05	-0.0001	-0.00019	-0.00026	-0.00017	3
12514	0.00027	0.00029	2e-05	3e-05	-0.0001	-0.00019	-0.00026	-0.00017	3
12515	0.00027	0.00029	2e-05	3e-05	-0.0001	-0.00019	-0.00026	-0.00017	3
12516	0.00027	0.00029	2e-05	3e-05	-0.0001	-0.00019	-0.00026	-0.00017	3
12517	0.00027	0.00029	2e-05	3e-05	-0.0001	-0.00019	-0.00026	-0.00017	3
12518	0.00027	0.00029	2e-05	3e-05	-0.0001	-0.00019	-0.00026	-0.00017	3
12519	0.00027	0.00029	2e-05	3e-05	-0.0001	-0.00019	-0.00026	-0.00017	3
12520	0.00027	0.00029	2e-05	3e-05	-0.0001	-0.00019	-0.00026	-0.00017	3
12521	0.00027	0.00029	2e-05	3e-05	-0.0001	-0.00019	-0.00026	-0.00017	3
12522	0.00027	0.00029	2e-05	3e-05	-0.0001	-0.00019	-0.00026	-0.00017	3
12523	0.00027	0.00029	2e-05	3e-05	-0.0001	-0.00019	-0.00026	-0.00017	3
12524	0.00027	0.00029	2e-05	3e-05	-0.0001	-0.00019	-0.00026	-0.00017	3
12525	-0.00063	-0.00015	0	2e-05	0.00015	0.00031	8e-05	0.0001	3
12526	-0.00015	0.00013	-3e-05	-0.0001	-0.00032	-0.0005	-0.00029	-0.00069	3
12527	0.00023	2e-05	-1e-05	-8e-05	-0.00051	-2e-05	0.0004	6e-05	3
12528	0.00023	2e-05	-1e-05	-8e-05	-0.00051	-2e-05	0.0004	6e-05	3
12529	0.00023	2e-05	-1e-05	-8e-05	-0.00051	-2e-05	0.0004	6e-05	3
12530	0.00023	2e-05	-1e-05	-8e-05	-0.00051	-2e-05	0.0004	6e-05	3
12531	0.00023	2e-05	-1e-05	-8e-05	-0.00051	-2e-05	0.0004	6e-05	3
12532	0.00023	2e-05	-1e-05	-8e-05	-0.00051	-2e-05	0.0004	6e-05	3
12533	0.00023	2e-05	-1e-05	-8e-05	-0.00051	-2e-05	0.0004	6e-05	3
12534	0.00023	2e-05	-1e-05	-8e-05	-0.00051	-2e-05	0.0004	6e-05	3
12535	0.00023	2e-05	-1e-05	-8e-05	-0.00051	-2e-05	0.0004	6e-05	3
12536	0.00023	2e-05	-1e-05	-8e-05	-0.00051	-2e-05	0.0004	6e-05	3
12538	0.00023	2e-05	-1e-05	-8e-05	-0.00051	-2e-05	0.0004	6e-05	3
12539	0.00023	2e-05	-1e-05	-8e-05	-0.00051	-2e-05	0.0004	6e-05	3
12540	0.00059	-0.00017	-9e-05	-0.00014	-0.0004	-0.00015	4e-05	0.00037	3
12541	0.00059	-0.00017	-9e-05	-0.00014	-0.0004	-0.00015	4e-05	0.00037	3
12542	-0.00011	-0.00021	1e-05	0.00027	0.00036	-0.00031	-0.00016	0.00019	3
12543	-0.00011	-0.00021	1e-05	0.00027	0.00036	-0.00031	-0.00016	0.00019	3
12544	-0.00011	-0.00021	1e-05	0.00027	0.00036	-0.00031	-0.00016	0.00019	3
12545	-0.00011	-0.00021	1e-05	0.00027	0.00036	-0.00031	-0.00016	0.00019	3
12546	-0.00011	-0.00021	1e-05	0.00027	0.00036	-0.00031	-0.00016	0.00019	3
12547	-0.00011	-0.00021	1e-05	0.00027	0.00036	-0.00031	-0.00016	0.00019	3
12548	-0.00011	-0.00021	1e-05	0.00027	0.00036	-0.00031	-0.00016	0.00019	3
12549	-0.00011	-0.00021	1e-05	0.00027	0.00036	-0.00031	-0.00016	0.00019	3
12550	-0.00011	-0.00021	1e-05	0.00027	0.00036	-0.00031	-0.00016	0.00019	3
12551	-0.00011	-0.00021	1e-05	0.00027	0.00036	-0.00031	-0.00016	0.00019	3
12552	-0.00011	-0.00021	1e-05	0.00027	0.00036	-0.00031	-0.00016	0.00019	3
12553	-0.00011	-0.00021	1e-05	0.00027	0.00036	-0.00031	-0.00016	0.00019	3
12554	-0.00011	-0.00021	1e-05	0.00027	0.00036	-0.00031	-0.00016	0.00019	3
12555	-0.00011	-0.00021	1e-05	0.00027	0.00036	-0.00031	-0.00016	0.00019	3
12556	-0.00011	-0.00021	1e-05	0.00027	0.00036	-0.00031	-0.00016	0.00019	3
12557	-0.00011	-0.00021	1e-05	0.00027	0.00036	-0.00031	-0.00016	0.00019	3
12558	-0.00011	-0.00021	1e-05	0.00027	0.00036	-0.00031	-0.00016	0.00019	3
12559	-0.00011	-0.00021	1e-05	0.00027	0.00036	-0.00031	-0.00016	0.00019	3
12560	-0.00011	-0.00021	1e-05	0.00027	0.00036	-0.00031	-0.00016	0.00019	3
12561	-0.00011	-0.00021	1e-05	0.00027	0.00036	-0.00031	-0.00016	0.00019	3
12562	-0.00011	-0.00021	1e-05	0.00027	0.00036	-0.00031	-0.00016	0.00019	3
12563	0.00025	-5e-05	-5e-05	-4e-05	-2e-05	0.00011	-0.00016	6e-05	3
12564	0.00022	1e-05	1e-05	8e-05	0.00041	0.00023	-6e-05	-0.00011	3
12565	-0.00012	-4e-05	-3e-05	-0.00012	-0.0003	-6e-05	-0.00018	0.00015	3
12566	-0.00012	-4e-05	-3e-05	-0.00012	-0.0003	-6e-05	-0.00018	0.00015	3
12567	-0.00012	-4e-05	-3e-05	-0.00012	-0.0003	-6e-05	-0.00018	0.00015	3
12568	-0.00012	-4e-05	-3e-05	-0.00012	-0.0003	-6e-05	-0.00018	0.00015	3
12569	-0.00012	-4e-05	-3e-05	-0.00012	-0.0003	-6e-05	-0.00018	0.00015	3
12570	-0.00012	-4e-05	-3e-05	-0.00012	-0.0003	-6e-05	-0.00018	0.00015	3
12571	-0.00012	-4e-05	-3e-05	-0.00012	-0.0003	-6e-05	-0.00018	0.00015	3
12572	-0.00012	-4e-05	-3e-05	-0.00012	-0.0003	-6e-05	-0.00018	0.00015	3
12573	-0.00012	-4e-05	-3e-05	-0.00012	-0.0003	-6e-05	-0.00018	0.00015	3
12574	-0.00012	-4e-05	-3e-05	-0.00012	-0.0003	-6e-05	-0.00018	0.00015	3
12575	-0.00012	-4e-05	-3e-05	-0.00012	-0.0003	-6e-05	-0.00018	0.00015	3
12576	-5e-05	2e-05	-4e-05	-0.00012	-0.00019	-1e-05	-9e-05	-0.00015	3
12577	0.00028	0.0001	-8e-05	-0.00014	-0.00024	-0.00013	-0.00021	-0.00031	3
12578	0.00028	0.0001	-8e-05	-0.00014	-0.00024	-0.00013	-0.00021	-0.00031	3
12579	0.00028	0.0001	-8e-05	-0.00014	-0.00024	-0.00013	-0.00021	-0.00031	3
12580	0.00028	0.0001	-8e-05	-0.00014	-0.00024	-0.00013	-0.00021	-0.00031	3
12581	0.00028	0.0001	-8e-05	-0.00014	-0.00024	-0.00013	-0.00021	-0.00031	3
12582	0.00028	0.0001	-8e-05	-0.00014	-0.00024	-0.00013	-0.00021	-0.00031	3
12583	0.00028	0.0001	-8e-05	-0.00014	-0.00024	-0.00013	-0.00021	-0.00031	3
12584	0.00028	0.0001	-8e-05	-0.00014	-0.00024	-0.00013	-0.00021	-0.00031	3
12585	-0.00084	-0.00027	7e-05	0	-0.00016	-0.00025	-0.00015	3e-05	3
12586	-4e-05	-3e-05	-4e-05	-0.00011	-0.00016	-0.00032	-0.00042	-0.00037	3
12588	-4e-05	-3e-05	-4e-05	-0.00011	-0.00016	-0.00032	-0.00042	-0.00037	3
12589	-4e-05	-3e-05	-4e-05	-0.00011	-0.00016	-0.00032	-0.00042	-0.00037	3
12590	-4e-05	-3e-05	-4e-05	-0.00011	-0.00016	-0.00032	-0.00042	-0.00037	3
12591	-4e-05	-3e-05	-4e-05	-0.00011	-0.00016	-0.00032	-0.00042	-0.00037	3
12592	-4e-05	-3e-05	-4e-05	-0.00011	-0.00016	-0.00032	-0.00042	-0.00037	3
12593	-4e-05	-3e-05	-4e-05	-0.00011	-0.00016	-0.00032	-0.00042	-0.00037	3
12594	-4e-05	-3e-05	-4e-05	-0.00011	-0.00016	-0.00032	-0.00042	-0.00037	3
12595	-4e-05	-3e-05	-4e-05	-0.00011	-0.00016	-0.00032	-0.00042	-0.00037	3
12596	-4e-05	-3e-05	-4e-05	-0.00011	-0.00016	-0.00032	-0.00042	-0.00037	3
12597	-4e-05	-3e-05	-4e-05	-0.00011	-0.00016	-0.00032	-0.00042	-0.00037	3
12598	-4e-05	-3e-05	-4e-05	-0.00011	-0.00016	-0.00032	-0.00042	-0.00037	3
12599	-4e-05	-3e-05	-4e-05	-0.00011	-0.00016	-0.00032	-0.00042	-0.00037	3
12600	-4e-05	-3e-05	-4e-05	-0.00011	-0.00016	-0.00032	-0.00042	-0.00037	3
12601	-0.00028	4e-05	2e-05	8e-05	0.00024	-0.00032	-0.00034	0.00016	3
12602	0.00049	0.0001	5e-05	0.00025	0.00055	0.00011	0.00012	0.00049	3
12603	0.00049	0.0001	5e-05	0.00025	0.00055	0.00011	0.00012	0.00049	3
12604	0.00049	0.0001	5e-05	0.00025	0.00055	0.00011	0.00012	0.00049	3
12605	0.00049	0.0001	5e-05	0.00025	0.00055	0.00011	0.00012	0.00049	3
12606	0.00049	0.0001	5e-05	0.00025	0.00055	0.00011	0.00012	0.00049	3
12607	0.00049	0.0001	5e-05	0.00025	0.00055	0.00011	0.00012	0.00049	3
12608	0.00049	0.0001	5e-05	0.00025	0.00055	0.00011	0.00012	0.00049	3
12609	0.00049	0.0001	5e-05	0.00025	0.00055	0.00011	0.00012	0.00049	3
12610	0.00049	0.0001	5e-05	0.00025	0.00055	0.00011	0.00012	0.00049	3
12611	0.00049	0.0001	5e-05	0.00025	0.00055	0.00011	0.00012	0.00049	3
12612	0.00049	0.0001	5e-05	0.00025	0.00055	0.00011	0.00012	0.00049	3
12613	0.00049	0.0001	5e-05	0.00025	0.00055	0.00011	0.00012	0.00049	3
12614	0.00049	0.0001	5e-05	0.00025	0.00055	0.00011	0.00012	0.00049	3
12615	0.00049	0.0001	5e-05	0.00025	0.00055	0.00011	0.00012	0.00049	3
12616	0.00049	0.0001	5e-05	0.00025	0.00055	0.00011	0.00012	0.00049	3
12617	0.00049	0.0001	5e-05	0.00025	0.00055	0.00011	0.00012	0.00049	3
12618	0.00049	0.0001	5e-05	0.00025	0.00055	0.00011	0.00012	0.00049	3
12619	0.00049	0.0001	5e-05	0.00025	0.00055	0.00011	0.00012	0.00049	3
12620	0.00049	0.0001	5e-05	0.00025	0.00055	0.00011	0.00012	0.00049	3
12621	0.00049	0.0001	5e-05	0.00025	0.00055	0.00011	0.00012	0.00049	3
12622	0.00049	0.0001	5e-05	0.00025	0.00055	0.00011	0.00012	0.00049	3
12623	-0.00039	-0.00027	-7e-05	-9e-05	5e-05	0.00072	-1e-05	-0.00026	3
12624	0.00014	-1e-05	-8e-05	6e-05	0.00036	-0.00066	-0.00038	0.00013	3
12625	-3e-05	-0.0001	6e-05	3e-05	0.00019	0.00015	0.00022	0.00025	3
12626	-3e-05	-0.0001	6e-05	3e-05	0.00019	0.00015	0.00022	0.00025	3
12627	-3e-05	-0.0001	6e-05	3e-05	0.00019	0.00015	0.00022	0.00025	3
12628	-3e-05	-0.0001	6e-05	3e-05	0.00019	0.00015	0.00022	0.00025	3
12629	-3e-05	-0.0001	6e-05	3e-05	0.00019	0.00015	0.00022	0.00025	3
12630	-3e-05	-0.0001	6e-05	3e-05	0.00019	0.00015	0.00022	0.00025	3
12631	-3e-05	-0.0001	6e-05	3e-05	0.00019	0.00015	0.00022	0.00025	3
12632	-3e-05	-0.0001	6e-05	3e-05	0.00019	0.00015	0.00022	0.00025	3
12633	-3e-05	-0.0001	6e-05	3e-05	0.00019	0.00015	0.00022	0.00025	3
12634	-3e-05	-0.0001	6e-05	3e-05	0.00019	0.00015	0.00022	0.00025	3
12635	-3e-05	-0.0001	6e-05	3e-05	0.00019	0.00015	0.00022	0.00025	3
12636	-3e-05	-0.0001	6e-05	3e-05	0.00019	0.00015	0.00022	0.00025	3
12638	-3e-05	-0.0001	6e-05	3e-05	0.00019	0.00015	0.00022	0.00025	3
12639	-3e-05	-0.0001	6e-05	3e-05	0.00019	0.00015	0.00022	0.00025	3
12640	-3e-05	-0.0001	6e-05	3e-05	0.00019	0.00015	0.00022	0.00025	3
12641	-3e-05	-0.0001	6e-05	3e-05	0.00019	0.00015	0.00022	0.00025	3
12642	-3e-05	-0.0001	6e-05	3e-05	0.00019	0.00015	0.00022	0.00025	3
12643	-3e-05	-0.0001	6e-05	3e-05	0.00019	0.00015	0.00022	0.00025	3
12644	-3e-05	-0.0001	6e-05	3e-05	0.00019	0.00015	0.00022	0.00025	3
12645	9e-05	-4e-05	2e-05	6e-05	-7e-05	4e-05	-4e-05	0.0001	3
12646	9e-05	-4e-05	2e-05	6e-05	-7e-05	4e-05	-4e-05	0.0001	3
12647	2e-05	-6e-05	-1e-05	-7e-05	-6e-05	0.00027	-8e-05	-0.00022	3
12648	2e-05	-6e-05	-1e-05	-7e-05	-6e-05	0.00027	-8e-05	-0.00022	3
12649	2e-05	-6e-05	-1e-05	-7e-05	-6e-05	0.00027	-8e-05	-0.00022	3
12650	2e-05	-6e-05	-1e-05	-7e-05	-6e-05	0.00027	-8e-05	-0.00022	3
12651	2e-05	-6e-05	-1e-05	-7e-05	-6e-05	0.00027	-8e-05	-0.00022	3
12652	2e-05	-6e-05	-1e-05	-7e-05	-6e-05	0.00027	-8e-05	-0.00022	3
12653	2e-05	-6e-05	-1e-05	-7e-05	-6e-05	0.00027	-8e-05	-0.00022	3
12654	2e-05	-6e-05	-1e-05	-7e-05	-6e-05	0.00027	-8e-05	-0.00022	3
12655	2e-05	-6e-05	-1e-05	-7e-05	-6e-05	0.00027	-8e-05	-0.00022	3
12656	2e-05	-6e-05	-1e-05	-7e-05	-6e-05	0.00027	-8e-05	-0.00022	3
12657	2e-05	-6e-05	-1e-05	-7e-05	-6e-05	0.00027	-8e-05	-0.00022	3
12658	2e-05	-6e-05	-1e-05	-7e-05	-6e-05	0.00027	-8e-05	-0.00022	3
12659	2e-05	-6e-05	-1e-05	-7e-05	-6e-05	0.00027	-8e-05	-0.00022	3
12660	-0.00032	-4e-05	0.00017	0.00014	3e-05	2e-05	0.00016	-0.00035	3
12661	-0.00032	-4e-05	0.00017	0.00014	3e-05	2e-05	0.00016	-0.00035	3
12662	-0.00032	-4e-05	0.00017	0.00014	3e-05	2e-05	0.00016	-0.00035	3
12663	-0.00032	-4e-05	0.00017	0.00014	3e-05	2e-05	0.00016	-0.00035	3
12664	-0.00032	-4e-05	0.00017	0.00014	3e-05	2e-05	0.00016	-0.00035	3
12665	-0.00032	-4e-05	0.00017	0.00014	3e-05	2e-05	0.00016	-0.00035	3
12666	0.00034	0.00013	-0.00011	-8e-05	-5e-05	-1e-05	-0.00019	7e-05	3
12667	-0.00022	-0.00018	-5e-05	2e-05	4e-05	0.00029	-7e-05	5e-05	3
12668	-0.00022	-0.00018	-5e-05	2e-05	4e-05	0.00029	-7e-05	5e-05	3
12669	-0.00022	-0.00018	-5e-05	2e-05	4e-05	0.00029	-7e-05	5e-05	3
12670	-0.00022	-0.00018	-5e-05	2e-05	4e-05	0.00029	-7e-05	5e-05	3
12671	-0.00022	-0.00018	-5e-05	2e-05	4e-05	0.00029	-7e-05	5e-05	3
12672	-0.00022	-0.00018	-5e-05	2e-05	4e-05	0.00029	-7e-05	5e-05	3
12673	-0.00022	-0.00018	-5e-05	2e-05	4e-05	0.00029	-7e-05	5e-05	3
12674	-0.00022	-0.00018	-5e-05	2e-05	4e-05	0.00029	-7e-05	5e-05	3
12675	-0.00022	-0.00018	-5e-05	2e-05	4e-05	0.00029	-7e-05	5e-05	3
12676	-0.00022	-0.00018	-5e-05	2e-05	4e-05	0.00029	-7e-05	5e-05	3
12677	-0.00022	-0.00018	-5e-05	2e-05	4e-05	0.00029	-7e-05	5e-05	3
12678	-0.00022	-0.00018	-5e-05	2e-05	4e-05	0.00029	-7e-05	5e-05	3
12679	-0.00022	-0.00018	-5e-05	2e-05	4e-05	0.00029	-7e-05	5e-05	3
12680	-0.00022	-0.00018	-5e-05	2e-05	4e-05	0.00029	-7e-05	5e-05	3
12681	-0.00022	-0.00018	-5e-05	2e-05	4e-05	0.00029	-7e-05	5e-05	3
12682	-0.00022	-0.00018	-5e-05	2e-05	4e-05	0.00029	-7e-05	5e-05	3
12683	0.00043	5e-05	-5e-05	-0.00014	-0.0004	-0.00042	-8e-05	0.00029	3
12684	-3e-05	-1e-05	-5e-05	-0.00014	-0.00041	-0.00017	9e-05	-9e-05	3
12685	0.00059	0.00027	0	-2e-05	0.00024	0.00026	0.0001	0.00019	3
12686	0.00059	0.00027	0	-2e-05	0.00024	0.00026	0.0001	0.00019	3
12689	0.00059	0.00027	0	-2e-05	0.00024	0.00026	0.0001	0.00019	3
12690	0.00059	0.00027	0	-2e-05	0.00024	0.00026	0.0001	0.00019	3
12691	0.00059	0.00027	0	-2e-05	0.00024	0.00026	0.0001	0.00019	3
12692	0.00059	0.00027	0	-2e-05	0.00024	0.00026	0.0001	0.00019	3
12693	0.00059	0.00027	0	-2e-05	0.00024	0.00026	0.0001	0.00019	3
12694	0.00059	0.00027	0	-2e-05	0.00024	0.00026	0.0001	0.00019	3
12695	0.00059	0.00027	0	-2e-05	0.00024	0.00026	0.0001	0.00019	3
12696	0.00059	0.00027	0	-2e-05	0.00024	0.00026	0.0001	0.00019	3
12697	0.00059	0.00027	0	-2e-05	0.00024	0.00026	0.0001	0.00019	3
12698	0.00059	0.00027	0	-2e-05	0.00024	0.00026	0.0001	0.00019	3
12699	0.00059	0.00027	0	-2e-05	0.00024	0.00026	0.0001	0.00019	3
12700	0.00059	0.00027	0	-2e-05	0.00024	0.00026	0.0001	0.00019	3
12701	0.00059	0.00027	0	-2e-05	0.00024	0.00026	0.0001	0.00019	3
12702	0.00059	0.00027	0	-2e-05	0.00024	0.00026	0.0001	0.00019	3
12703	0.00059	0.00027	0	-2e-05	0.00024	0.00026	0.0001	0.00019	3
12704	0.00059	0.00027	0	-2e-05	0.00024	0.00026	0.0001	0.00019	3
12705	-0.00046	0.00013	0.00015	0.00025	0.00023	0.00031	0.00047	-1e-05	3
12706	-0.00046	0.00013	0.00015	0.00025	0.00023	0.00031	0.00047	-1e-05	3
12707	1e-05	-0.00013	-0.00011	-0.00018	-0.00064	-0.00037	-0.00021	-0.00043	3
12708	1e-05	-0.00013	-0.00011	-0.00018	-0.00064	-0.00037	-0.00021	-0.00043	3
12709	1e-05	-0.00013	-0.00011	-0.00018	-0.00064	-0.00037	-0.00021	-0.00043	3
12710	1e-05	-0.00013	-0.00011	-0.00018	-0.00064	-0.00037	-0.00021	-0.00043	3
12711	1e-05	-0.00013	-0.00011	-0.00018	-0.00064	-0.00037	-0.00021	-0.00043	3
12712	1e-05	-0.00013	-0.00011	-0.00018	-0.00064	-0.00037	-0.00021	-0.00043	3
12713	1e-05	-0.00013	-0.00011	-0.00018	-0.00064	-0.00037	-0.00021	-0.00043	3
12714	1e-05	-0.00013	-0.00011	-0.00018	-0.00064	-0.00037	-0.00021	-0.00043	3
12715	1e-05	-0.00013	-0.00011	-0.00018	-0.00064	-0.00037	-0.00021	-0.00043	3
12716	1e-05	-0.00013	-0.00011	-0.00018	-0.00064	-0.00037	-0.00021	-0.00043	3
12717	1e-05	-0.00013	-0.00011	-0.00018	-0.00064	-0.00037	-0.00021	-0.00043	3
12718	1e-05	-0.00013	-0.00011	-0.00018	-0.00064	-0.00037	-0.00021	-0.00043	3
12719	1e-05	-0.00013	-0.00011	-0.00018	-0.00064	-0.00037	-0.00021	-0.00043	3
12720	0.00058	-5e-05	-9e-05	-0.00018	-0.00047	-0.00016	0.00016	0.00025	3
12721	0.00058	-5e-05	-9e-05	-0.00018	-0.00047	-0.00016	0.00016	0.00025	3
12722	0.00058	-5e-05	-9e-05	-0.00018	-0.00047	-0.00016	0.00016	0.00025	3
12723	0.00058	-5e-05	-9e-05	-0.00018	-0.00047	-0.00016	0.00016	0.00025	3
12724	0.00058	-5e-05	-9e-05	-0.00018	-0.00047	-0.00016	0.00016	0.00025	3
12725	0.00058	-5e-05	-9e-05	-0.00018	-0.00047	-0.00016	0.00016	0.00025	3
12726	0.00058	-5e-05	-9e-05	-0.00018	-0.00047	-0.00016	0.00016	0.00025	3
12727	0.00058	-5e-05	-9e-05	-0.00018	-0.00047	-0.00016	0.00016	0.00025	3
12728	0.00028	0.0001	-3e-05	-0.00013	-0.00038	-0.00019	-0.00019	-3e-05	3
12729	0.00028	0.0001	-3e-05	-0.00013	-0.00038	-0.00019	-0.00019	-3e-05	3
12730	0.00028	0.0001	-3e-05	-0.00013	-0.00038	-0.00019	-0.00019	-3e-05	3
12731	0.00028	0.0001	-3e-05	-0.00013	-0.00038	-0.00019	-0.00019	-3e-05	3
12732	0.00028	0.0001	-3e-05	-0.00013	-0.00038	-0.00019	-0.00019	-3e-05	3
12733	0.00028	0.0001	-3e-05	-0.00013	-0.00038	-0.00019	-0.00019	-3e-05	3
12734	0.00028	0.0001	-3e-05	-0.00013	-0.00038	-0.00019	-0.00019	-3e-05	3
12735	0.00028	0.0001	-3e-05	-0.00013	-0.00038	-0.00019	-0.00019	-3e-05	3
12736	0.00028	0.0001	-3e-05	-0.00013	-0.00038	-0.00019	-0.00019	-3e-05	3
12738	0.00028	0.0001	-3e-05	-0.00013	-0.00038	-0.00019	-0.00019	-3e-05	3
12739	0.00028	0.0001	-3e-05	-0.00013	-0.00038	-0.00019	-0.00019	-3e-05	3
12740	0.00028	0.0001	-3e-05	-0.00013	-0.00038	-0.00019	-0.00019	-3e-05	3
12741	0.00028	0.0001	-3e-05	-0.00013	-0.00038	-0.00019	-0.00019	-3e-05	3
12742	0.00028	0.0001	-3e-05	-0.00013	-0.00038	-0.00019	-0.00019	-3e-05	3
12743	0.00033	0.00017	-9e-05	-5e-05	-0.00011	-0.00041	-5e-05	-0.00026	3
12744	8e-05	-0.00027	-3e-05	-4e-05	-0.00014	-0.00018	5e-05	0.00019	3
12745	-0.00058	-0.00014	2e-05	3e-05	4e-05	-9e-05	-0.00031	-0.00021	3
12746	-0.00058	-0.00014	2e-05	3e-05	4e-05	-9e-05	-0.00031	-0.00021	3
12747	-0.00058	-0.00014	2e-05	3e-05	4e-05	-9e-05	-0.00031	-0.00021	3
12748	-0.00058	-0.00014	2e-05	3e-05	4e-05	-9e-05	-0.00031	-0.00021	3
12749	-0.00058	-0.00014	2e-05	3e-05	4e-05	-9e-05	-0.00031	-0.00021	3
12750	-0.00058	-0.00014	2e-05	3e-05	4e-05	-9e-05	-0.00031	-0.00021	3
12751	-0.00058	-0.00014	2e-05	3e-05	4e-05	-9e-05	-0.00031	-0.00021	3
12752	-0.00058	-0.00014	2e-05	3e-05	4e-05	-9e-05	-0.00031	-0.00021	3
12753	-0.00058	-0.00014	2e-05	3e-05	4e-05	-9e-05	-0.00031	-0.00021	3
12754	-0.00058	-0.00014	2e-05	3e-05	4e-05	-9e-05	-0.00031	-0.00021	3
12755	-0.00058	-0.00014	2e-05	3e-05	4e-05	-9e-05	-0.00031	-0.00021	3
12756	-0.00058	-0.00014	2e-05	3e-05	4e-05	-9e-05	-0.00031	-0.00021	3
12757	-0.00058	-0.00014	2e-05	3e-05	4e-05	-9e-05	-0.00031	-0.00021	3
12758	-0.00058	-0.00014	2e-05	3e-05	4e-05	-9e-05	-0.00031	-0.00021	3
12759	-0.00058	-0.00014	2e-05	3e-05	4e-05	-9e-05	-0.00031	-0.00021	3
12760	-0.00058	-0.00014	2e-05	3e-05	4e-05	-9e-05	-0.00031	-0.00021	3
12761	-0.00058	-0.00014	2e-05	3e-05	4e-05	-9e-05	-0.00031	-0.00021	3
12762	-0.00058	-0.00014	2e-05	3e-05	4e-05	-9e-05	-0.00031	-0.00021	3
12763	-0.00058	-0.00014	2e-05	3e-05	4e-05	-9e-05	-0.00031	-0.00021	3
12764	-0.00058	-0.00014	2e-05	3e-05	4e-05	-9e-05	-0.00031	-0.00021	3
12765	0.00025	0.0001	9e-05	3e-05	-0.00015	-0.00014	-0.00051	0.00046	3
12766	7e-05	9e-05	-0.00015	-0.00012	-0.00011	-0.00051	-2e-05	-3e-05	3
12767	-0.00066	-7e-05	1e-05	-6e-05	-0.00013	-0.00043	-0.0003	-0.0006	3
12768	-0.00066	-7e-05	1e-05	-6e-05	-0.00013	-0.00043	-0.0003	-0.0006	3
12769	-0.00066	-7e-05	1e-05	-6e-05	-0.00013	-0.00043	-0.0003	-0.0006	3
12770	-0.00066	-7e-05	1e-05	-6e-05	-0.00013	-0.00043	-0.0003	-0.0006	3
12771	-0.00066	-7e-05	1e-05	-6e-05	-0.00013	-0.00043	-0.0003	-0.0006	3
12772	-0.00066	-7e-05	1e-05	-6e-05	-0.00013	-0.00043	-0.0003	-0.0006	3
12773	-0.00066	-7e-05	1e-05	-6e-05	-0.00013	-0.00043	-0.0003	-0.0006	3
12774	-0.00066	-7e-05	1e-05	-6e-05	-0.00013	-0.00043	-0.0003	-0.0006	3
12775	-0.00066	-7e-05	1e-05	-6e-05	-0.00013	-0.00043	-0.0003	-0.0006	3
12776	-0.00066	-7e-05	1e-05	-6e-05	-0.00013	-0.00043	-0.0003	-0.0006	3
12777	-0.00066	-7e-05	1e-05	-6e-05	-0.00013	-0.00043	-0.0003	-0.0006	3
12778	-0.00066	-7e-05	1e-05	-6e-05	-0.00013	-0.00043	-0.0003	-0.0006	3
12779	-0.00066	-7e-05	1e-05	-6e-05	-0.00013	-0.00043	-0.0003	-0.0006	3
12780	0.00034	5e-05	-4e-05	-6e-05	-0.00012	0.00019	0.00078	8e-05	3
12781	-0.0002	-0.00026	-3e-05	-7e-05	-0.00014	0.00028	0.00021	0.0006	3
12782	-0.0009	-0.00029	-0.0001	1e-05	0	-0.00037	-9e-05	-0.00056	3
12783	-0.0009	-0.00029	-0.0001	1e-05	0	-0.00037	-9e-05	-0.00056	3
12784	-0.0009	-0.00029	-0.0001	1e-05	0	-0.00037	-9e-05	-0.00056	3
12785	-0.0009	-0.00029	-0.0001	1e-05	0	-0.00037	-9e-05	-0.00056	3
12786	-0.0009	-0.00029	-0.0001	1e-05	0	-0.00037	-9e-05	-0.00056	3
12788	-0.0009	-0.00029	-0.0001	1e-05	0	-0.00037	-9e-05	-0.00056	3
12789	-0.0009	-0.00029	-0.0001	1e-05	0	-0.00037	-9e-05	-0.00056	3
12790	-0.0009	-0.00029	-0.0001	1e-05	0	-0.00037	-9e-05	-0.00056	3
12791	-0.0009	-0.00029	-0.0001	1e-05	0	-0.00037	-9e-05	-0.00056	3
12792	-0.0009	-0.00029	-0.0001	1e-05	0	-0.00037	-9e-05	-0.00056	3
12793	-0.0009	-0.00029	-0.0001	1e-05	0	-0.00037	-9e-05	-0.00056	3
12794	-0.0009	-0.00029	-0.0001	1e-05	0	-0.00037	-9e-05	-0.00056	3
12795	-0.0009	-0.00029	-0.0001	1e-05	0	-0.00037	-9e-05	-0.00056	3
12796	-0.0009	-0.00029	-0.0001	1e-05	0	-0.00037	-9e-05	-0.00056	3
12797	-0.0009	-0.00029	-0.0001	1e-05	0	-0.00037	-9e-05	-0.00056	3
12798	-0.0009	-0.00029	-0.0001	1e-05	0	-0.00037	-9e-05	-0.00056	3
12799	-0.0009	-0.00029	-0.0001	1e-05	0	-0.00037	-9e-05	-0.00056	3
12800	-0.0009	-0.00029	-0.0001	1e-05	0	-0.00037	-9e-05	-0.00056	3
12801	-0.0009	-0.00029	-0.0001	1e-05	0	-0.00037	-9e-05	-0.00056	3
12802	-0.0009	-0.00029	-0.0001	1e-05	0	-0.00037	-9e-05	-0.00056	3
12803	-0.00012	0.00014	3e-05	-0.0001	-5e-05	-8e-05	-0.00017	-0.00017	3
12804	-0.00012	0.00014	3e-05	-0.0001	-5e-05	-8e-05	-0.00017	-0.00017	3
12805	0.0001	-9e-05	-6e-05	2e-05	0.0004	-0.00021	-0.00027	0.00017	3
12806	0.0001	-9e-05	-6e-05	2e-05	0.0004	-0.00021	-0.00027	0.00017	3
12807	0.0001	-9e-05	-6e-05	2e-05	0.0004	-0.00021	-0.00027	0.00017	3
12808	0.0001	-9e-05	-6e-05	2e-05	0.0004	-0.00021	-0.00027	0.00017	3
12809	0.0001	-9e-05	-6e-05	2e-05	0.0004	-0.00021	-0.00027	0.00017	3
12810	0.0001	-9e-05	-6e-05	2e-05	0.0004	-0.00021	-0.00027	0.00017	3
12811	0.0001	-9e-05	-6e-05	2e-05	0.0004	-0.00021	-0.00027	0.00017	3
12812	0.0001	-9e-05	-6e-05	2e-05	0.0004	-0.00021	-0.00027	0.00017	3
12813	0.0001	-9e-05	-6e-05	2e-05	0.0004	-0.00021	-0.00027	0.00017	3
12814	0.0001	-9e-05	-6e-05	2e-05	0.0004	-0.00021	-0.00027	0.00017	3
12815	0.0001	-9e-05	-6e-05	2e-05	0.0004	-0.00021	-0.00027	0.00017	3
12816	0.0001	-9e-05	-6e-05	2e-05	0.0004	-0.00021	-0.00027	0.00017	3
12817	0.0001	-9e-05	-6e-05	2e-05	0.0004	-0.00021	-0.00027	0.00017	3
12818	0.0001	-9e-05	-6e-05	2e-05	0.0004	-0.00021	-0.00027	0.00017	3
12819	0.0001	-9e-05	-6e-05	2e-05	0.0004	-0.00021	-0.00027	0.00017	3
12820	0.0001	-9e-05	-6e-05	2e-05	0.0004	-0.00021	-0.00027	0.00017	3
12821	0.0001	-9e-05	-6e-05	2e-05	0.0004	-0.00021	-0.00027	0.00017	3
12822	0.0001	-9e-05	-6e-05	2e-05	0.0004	-0.00021	-0.00027	0.00017	3
12823	0.0001	-9e-05	-6e-05	2e-05	0.0004	-0.00021	-0.00027	0.00017	3
12824	0.0001	-9e-05	-6e-05	2e-05	0.0004	-0.00021	-0.00027	0.00017	3
12825	-3e-05	-6e-05	5e-05	5e-05	0.00013	0.00087	0.00042	-0.00014	3
12826	-0.00019	-9e-05	-6e-05	-3e-05	-0.00011	-0.00011	0.00018	4e-05	3
12827	-0.00029	-9e-05	-3e-05	-4e-05	0.0007	0.00038	-0.00015	-0.00017	3
12828	0.00051	0.00039	3e-05	-3e-05	-0.00039	-7e-05	-0.00029	0.00013	3
12829	0.00051	0.00039	3e-05	-3e-05	-0.00039	-7e-05	-0.00029	0.00013	3
12830	0.00051	0.00039	3e-05	-3e-05	-0.00039	-7e-05	-0.00029	0.00013	3
12831	0.00051	0.00039	3e-05	-3e-05	-0.00039	-7e-05	-0.00029	0.00013	3
12832	0.00051	0.00039	3e-05	-3e-05	-0.00039	-7e-05	-0.00029	0.00013	3
12833	0.00051	0.00039	3e-05	-3e-05	-0.00039	-7e-05	-0.00029	0.00013	3
12834	0.00051	0.00039	3e-05	-3e-05	-0.00039	-7e-05	-0.00029	0.00013	3
12835	0.00051	0.00039	3e-05	-3e-05	-0.00039	-7e-05	-0.00029	0.00013	3
12837	0.00051	0.00039	3e-05	-3e-05	-0.00039	-7e-05	-0.00029	0.00013	3
12840	-3e-05	-5e-05	3e-05	0.00012	0.00047	0.00034	0.00019	0.00019	3
12841	-3e-05	-5e-05	3e-05	0.00012	0.00047	0.00034	0.00019	0.00019	3
12842	-3e-05	-5e-05	3e-05	0.00012	0.00047	0.00034	0.00019	0.00019	3
12843	-3e-05	-5e-05	3e-05	0.00012	0.00047	0.00034	0.00019	0.00019	3
12844	-3e-05	-5e-05	3e-05	0.00012	0.00047	0.00034	0.00019	0.00019	3
12845	-3e-05	-5e-05	3e-05	0.00012	0.00047	0.00034	0.00019	0.00019	3
12846	-0.00021	-0.00012	-2e-05	6e-05	0.00046	0.00018	3e-05	5e-05	3
12847	0.00066	1e-05	4e-05	6e-05	8e-05	0.00084	0.00085	0.00025	3
12848	0.00066	1e-05	4e-05	6e-05	8e-05	0.00084	0.00085	0.00025	3
12849	0.00066	1e-05	4e-05	6e-05	8e-05	0.00084	0.00085	0.00025	3
12850	0.00066	1e-05	4e-05	6e-05	8e-05	0.00084	0.00085	0.00025	3
12851	0.00066	1e-05	4e-05	6e-05	8e-05	0.00084	0.00085	0.00025	3
12852	0.00066	1e-05	4e-05	6e-05	8e-05	0.00084	0.00085	0.00025	3
12853	0.00066	1e-05	4e-05	6e-05	8e-05	0.00084	0.00085	0.00025	3
12854	0.00066	1e-05	4e-05	6e-05	8e-05	0.00084	0.00085	0.00025	3
12855	0.00066	1e-05	4e-05	6e-05	8e-05	0.00084	0.00085	0.00025	3
12856	0.00066	1e-05	4e-05	6e-05	8e-05	0.00084	0.00085	0.00025	3
12857	0.00066	1e-05	4e-05	6e-05	8e-05	0.00084	0.00085	0.00025	3
12858	0.00066	1e-05	4e-05	6e-05	8e-05	0.00084	0.00085	0.00025	3
12859	0.00066	1e-05	4e-05	6e-05	8e-05	0.00084	0.00085	0.00025	3
12860	0.00066	1e-05	4e-05	6e-05	8e-05	0.00084	0.00085	0.00025	3
12861	0.00066	1e-05	4e-05	6e-05	8e-05	0.00084	0.00085	0.00025	3
12862	0.00066	1e-05	4e-05	6e-05	8e-05	0.00084	0.00085	0.00025	3
12863	-0.00022	4e-05	-1e-05	-2e-05	-0.00016	-0.00011	-1e-05	0.00022	3
12864	0.00023	-0.00013	-8e-05	-0.00019	-0.00061	3e-05	0	0.00015	3
12865	-0.00046	0.00012	5e-05	-5e-05	-0.00027	-0.00027	-1e-05	-6e-05	3
12866	-0.00046	0.00012	5e-05	-5e-05	-0.00027	-0.00027	-1e-05	-6e-05	3
12867	-0.00046	0.00012	5e-05	-5e-05	-0.00027	-0.00027	-1e-05	-6e-05	3
12868	-0.00046	0.00012	5e-05	-5e-05	-0.00027	-0.00027	-1e-05	-6e-05	3
12869	-0.00046	0.00012	5e-05	-5e-05	-0.00027	-0.00027	-1e-05	-6e-05	3
12870	-0.00046	0.00012	5e-05	-5e-05	-0.00027	-0.00027	-1e-05	-6e-05	3
12871	-0.00046	0.00012	5e-05	-5e-05	-0.00027	-0.00027	-1e-05	-6e-05	3
12872	-0.00046	0.00012	5e-05	-5e-05	-0.00027	-0.00027	-1e-05	-6e-05	3
12873	-0.00046	0.00012	5e-05	-5e-05	-0.00027	-0.00027	-1e-05	-6e-05	3
12874	-0.00046	0.00012	5e-05	-5e-05	-0.00027	-0.00027	-1e-05	-6e-05	3
12875	-0.00046	0.00012	5e-05	-5e-05	-0.00027	-0.00027	-1e-05	-6e-05	3
12876	-0.00046	0.00012	5e-05	-5e-05	-0.00027	-0.00027	-1e-05	-6e-05	3
12877	-0.00046	0.00012	5e-05	-5e-05	-0.00027	-0.00027	-1e-05	-6e-05	3
12878	-0.00046	0.00012	5e-05	-5e-05	-0.00027	-0.00027	-1e-05	-6e-05	3
12879	-0.00046	0.00012	5e-05	-5e-05	-0.00027	-0.00027	-1e-05	-6e-05	3
12880	-0.00046	0.00012	5e-05	-5e-05	-0.00027	-0.00027	-1e-05	-6e-05	3
12881	-0.00046	0.00012	5e-05	-5e-05	-0.00027	-0.00027	-1e-05	-6e-05	3
12882	-0.00046	0.00012	5e-05	-5e-05	-0.00027	-0.00027	-1e-05	-6e-05	3
12883	-0.00046	0.00012	5e-05	-5e-05	-0.00027	-0.00027	-1e-05	-6e-05	3
12884	-0.00046	0.00012	5e-05	-5e-05	-0.00027	-0.00027	-1e-05	-6e-05	3
12885	0.00032	8e-05	0.00012	0.0004	0.00071	0.00053	-1e-05	0.0001	3
12886	-0.00014	-9e-05	-3e-05	-0.00011	-0.00052	-0.00048	-0.00026	-0.0002	3
12888	-0.00025	-5e-05	-4e-05	-9e-05	-0.00028	9e-05	0.00022	8e-05	3
12889	-0.00025	-5e-05	-4e-05	-9e-05	-0.00028	9e-05	0.00022	8e-05	3
12890	-0.00025	-5e-05	-4e-05	-9e-05	-0.00028	9e-05	0.00022	8e-05	3
12891	-0.00025	-5e-05	-4e-05	-9e-05	-0.00028	9e-05	0.00022	8e-05	3
12892	-0.00025	-5e-05	-4e-05	-9e-05	-0.00028	9e-05	0.00022	8e-05	3
12893	-0.00025	-5e-05	-4e-05	-9e-05	-0.00028	9e-05	0.00022	8e-05	3
12894	-0.00025	-5e-05	-4e-05	-9e-05	-0.00028	9e-05	0.00022	8e-05	3
12895	-0.00025	-5e-05	-4e-05	-9e-05	-0.00028	9e-05	0.00022	8e-05	3
12896	-0.00025	-5e-05	-4e-05	-9e-05	-0.00028	9e-05	0.00022	8e-05	3
12897	-0.00025	-5e-05	-4e-05	-9e-05	-0.00028	9e-05	0.00022	8e-05	3
12898	-0.00025	-5e-05	-4e-05	-9e-05	-0.00028	9e-05	0.00022	8e-05	3
12899	-0.00025	-5e-05	-4e-05	-9e-05	-0.00028	9e-05	0.00022	8e-05	3
12900	0.00028	4e-05	5e-05	0.00017	0.00043	0.00076	0.00033	0.00015	3
12901	0.00028	4e-05	5e-05	0.00017	0.00043	0.00076	0.00033	0.00015	3
12902	0.00028	4e-05	5e-05	0.00017	0.00043	0.00076	0.00033	0.00015	3
12903	0.00028	4e-05	5e-05	0.00017	0.00043	0.00076	0.00033	0.00015	3
12904	0.00028	4e-05	5e-05	0.00017	0.00043	0.00076	0.00033	0.00015	3
12905	0.00028	4e-05	5e-05	0.00017	0.00043	0.00076	0.00033	0.00015	3
12906	-0.0006	-7e-05	6e-05	0.00014	0.00041	0.00012	-3e-05	0.00021	3
12907	-0.0003	-1e-05	-0.00012	-0.00021	-0.00042	-0.00026	-0.00012	-0.00012	3
12908	-0.0003	-1e-05	-0.00012	-0.00021	-0.00042	-0.00026	-0.00012	-0.00012	3
12909	-0.0003	-1e-05	-0.00012	-0.00021	-0.00042	-0.00026	-0.00012	-0.00012	3
12910	-0.0003	-1e-05	-0.00012	-0.00021	-0.00042	-0.00026	-0.00012	-0.00012	3
12911	-0.0003	-1e-05	-0.00012	-0.00021	-0.00042	-0.00026	-0.00012	-0.00012	3
12912	-0.0003	-1e-05	-0.00012	-0.00021	-0.00042	-0.00026	-0.00012	-0.00012	3
12913	-0.0003	-1e-05	-0.00012	-0.00021	-0.00042	-0.00026	-0.00012	-0.00012	3
12914	-0.0003	-1e-05	-0.00012	-0.00021	-0.00042	-0.00026	-0.00012	-0.00012	3
12915	-0.0003	-1e-05	-0.00012	-0.00021	-0.00042	-0.00026	-0.00012	-0.00012	3
12916	-0.0003	-1e-05	-0.00012	-0.00021	-0.00042	-0.00026	-0.00012	-0.00012	3
12917	-0.0003	-1e-05	-0.00012	-0.00021	-0.00042	-0.00026	-0.00012	-0.00012	3
12918	-0.0003	-1e-05	-0.00012	-0.00021	-0.00042	-0.00026	-0.00012	-0.00012	3
12919	-0.0003	-1e-05	-0.00012	-0.00021	-0.00042	-0.00026	-0.00012	-0.00012	3
12920	-0.0003	-1e-05	-0.00012	-0.00021	-0.00042	-0.00026	-0.00012	-0.00012	3
12921	-0.0003	-1e-05	-0.00012	-0.00021	-0.00042	-0.00026	-0.00012	-0.00012	3
12922	-0.0003	-1e-05	-0.00012	-0.00021	-0.00042	-0.00026	-0.00012	-0.00012	3
12923	0.00014	0	1e-05	4e-05	0.00015	-3e-05	-0.0002	-8e-05	3
12924	-0.00053	-0.00011	4e-05	1e-05	-0.0004	-0.00023	0.00013	-9e-05	3
12925	0.00054	-1e-05	5e-05	0.00015	0.00035	0	0.0001	-0.00011	3
12926	0.00054	-1e-05	5e-05	0.00015	0.00035	0	0.0001	-0.00011	3
12927	0.00054	-1e-05	5e-05	0.00015	0.00035	0	0.0001	-0.00011	3
12928	0.00054	-1e-05	5e-05	0.00015	0.00035	0	0.0001	-0.00011	3
12929	0.00054	-1e-05	5e-05	0.00015	0.00035	0	0.0001	-0.00011	3
12930	0.00054	-1e-05	5e-05	0.00015	0.00035	0	0.0001	-0.00011	3
12931	0.00054	-1e-05	5e-05	0.00015	0.00035	0	0.0001	-0.00011	3
12932	0.00054	-1e-05	5e-05	0.00015	0.00035	0	0.0001	-0.00011	3
12933	0.00054	-1e-05	5e-05	0.00015	0.00035	0	0.0001	-0.00011	3
12934	0.00054	-1e-05	5e-05	0.00015	0.00035	0	0.0001	-0.00011	3
12935	0.00054	-1e-05	5e-05	0.00015	0.00035	0	0.0001	-0.00011	3
12936	0.00054	-1e-05	5e-05	0.00015	0.00035	0	0.0001	-0.00011	3
12938	0.00054	-1e-05	5e-05	0.00015	0.00035	0	0.0001	-0.00011	3
12939	0.00054	-1e-05	5e-05	0.00015	0.00035	0	0.0001	-0.00011	3
12940	0.00054	-1e-05	5e-05	0.00015	0.00035	0	0.0001	-0.00011	3
12941	0.00054	-1e-05	5e-05	0.00015	0.00035	0	0.0001	-0.00011	3
12942	0.00054	-1e-05	5e-05	0.00015	0.00035	0	0.0001	-0.00011	3
12943	0.00054	-1e-05	5e-05	0.00015	0.00035	0	0.0001	-0.00011	3
12944	0.00054	-1e-05	5e-05	0.00015	0.00035	0	0.0001	-0.00011	3
12945	-0.00052	-0.00015	0.00013	0.00028	0.00062	0.00083	0.0004	-0.00018	3
12946	-3e-05	0.0001	-2e-05	-9e-05	-0.00028	-0.00046	-0.00041	-0.00023	3
12947	8e-05	0	0.0001	0.00018	6e-05	-7e-05	-0.00014	-0.00057	3
12948	8e-05	0	0.0001	0.00018	6e-05	-7e-05	-0.00014	-0.00057	3
12949	8e-05	0	0.0001	0.00018	6e-05	-7e-05	-0.00014	-0.00057	3
12950	8e-05	0	0.0001	0.00018	6e-05	-7e-05	-0.00014	-0.00057	3
12951	8e-05	0	0.0001	0.00018	6e-05	-7e-05	-0.00014	-0.00057	3
12952	8e-05	0	0.0001	0.00018	6e-05	-7e-05	-0.00014	-0.00057	3
12953	8e-05	0	0.0001	0.00018	6e-05	-7e-05	-0.00014	-0.00057	3
12954	8e-05	0	0.0001	0.00018	6e-05	-7e-05	-0.00014	-0.00057	3
12955	8e-05	0	0.0001	0.00018	6e-05	-7e-05	-0.00014	-0.00057	3
12956	8e-05	0	0.0001	0.00018	6e-05	-7e-05	-0.00014	-0.00057	3
12957	8e-05	0	0.0001	0.00018	6e-05	-7e-05	-0.00014	-0.00057	3
12958	8e-05	0	0.0001	0.00018	6e-05	-7e-05	-0.00014	-0.00057	3
12959	8e-05	0	0.0001	0.00018	6e-05	-7e-05	-0.00014	-0.00057	3
12960	-0.00042	0.00011	0.00021	0.00056	0.00084	0.00076	2e-05	5e-05	3
12961	-0.00042	0.00011	0.00021	0.00056	0.00084	0.00076	2e-05	5e-05	3
12962	-0.00042	0.00011	0.00021	0.00056	0.00084	0.00076	2e-05	5e-05	3
12963	-0.00042	0.00011	0.00021	0.00056	0.00084	0.00076	2e-05	5e-05	3
12964	-0.00042	0.00011	0.00021	0.00056	0.00084	0.00076	2e-05	5e-05	3
12965	-0.00042	0.00011	0.00021	0.00056	0.00084	0.00076	2e-05	5e-05	3
12966	-6e-05	-0.00021	-0.0001	-0.00013	-0.00059	-0.00041	-0.0003	6e-05	3
12967	-0.00043	-3e-05	0	-3e-05	0	-0.00012	-8e-05	0.00012	3
12968	-0.00043	-3e-05	0	-3e-05	0	-0.00012	-8e-05	0.00012	3
12969	-0.00043	-3e-05	0	-3e-05	0	-0.00012	-8e-05	0.00012	3
12970	-0.00043	-3e-05	0	-3e-05	0	-0.00012	-8e-05	0.00012	3
12971	-0.00043	-3e-05	0	-3e-05	0	-0.00012	-8e-05	0.00012	3
12972	-0.00043	-3e-05	0	-3e-05	0	-0.00012	-8e-05	0.00012	3
12973	-0.00043	-3e-05	0	-3e-05	0	-0.00012	-8e-05	0.00012	3
12974	-0.00043	-3e-05	0	-3e-05	0	-0.00012	-8e-05	0.00012	3
12975	-0.00043	-3e-05	0	-3e-05	0	-0.00012	-8e-05	0.00012	3
12976	-0.00043	-3e-05	0	-3e-05	0	-0.00012	-8e-05	0.00012	3
12977	-0.00043	-3e-05	0	-3e-05	0	-0.00012	-8e-05	0.00012	3
12978	-0.00043	-3e-05	0	-3e-05	0	-0.00012	-8e-05	0.00012	3
12979	-0.00043	-3e-05	0	-3e-05	0	-0.00012	-8e-05	0.00012	3
12980	-0.00043	-3e-05	0	-3e-05	0	-0.00012	-8e-05	0.00012	3
12981	-0.00043	-3e-05	0	-3e-05	0	-0.00012	-8e-05	0.00012	3
12982	-0.00043	-3e-05	0	-3e-05	0	-0.00012	-8e-05	0.00012	3
12983	0.00069	-4e-05	-8e-05	-0.00023	-0.00028	-0.0005	0.00038	0	3
12984	-0.00028	-0.00018	-0.0002	-0.00032	-0.00065	-0.00031	-3e-05	-0.0001	3
12985	-0.00028	-0.00018	-0.0002	-0.00032	-0.00065	-0.00031	-3e-05	-0.0001	3
12986	-0.00028	-0.00018	-0.0002	-0.00032	-0.00065	-0.00031	-3e-05	-0.0001	3
12988	-0.00028	-0.00018	-0.0002	-0.00032	-0.00065	-0.00031	-3e-05	-0.0001	3
12989	-0.00028	-0.00018	-0.0002	-0.00032	-0.00065	-0.00031	-3e-05	-0.0001	3
12990	-0.00028	-0.00018	-0.0002	-0.00032	-0.00065	-0.00031	-3e-05	-0.0001	3
12991	-0.00028	-0.00018	-0.0002	-0.00032	-0.00065	-0.00031	-3e-05	-0.0001	3
12992	-0.00028	-0.00018	-0.0002	-0.00032	-0.00065	-0.00031	-3e-05	-0.0001	3
12993	-0.00028	-0.00018	-0.0002	-0.00032	-0.00065	-0.00031	-3e-05	-0.0001	3
12994	-0.00028	-0.00018	-0.0002	-0.00032	-0.00065	-0.00031	-3e-05	-0.0001	3
12995	-0.00028	-0.00018	-0.0002	-0.00032	-0.00065	-0.00031	-3e-05	-0.0001	3
12996	-0.00028	-0.00018	-0.0002	-0.00032	-0.00065	-0.00031	-3e-05	-0.0001	3
12997	-0.00028	-0.00018	-0.0002	-0.00032	-0.00065	-0.00031	-3e-05	-0.0001	3
12998	-0.00028	-0.00018	-0.0002	-0.00032	-0.00065	-0.00031	-3e-05	-0.0001	3
12999	-0.00028	-0.00018	-0.0002	-0.00032	-0.00065	-0.00031	-3e-05	-0.0001	3
13000	-0.00028	-0.00018	-0.0002	-0.00032	-0.00065	-0.00031	-3e-05	-0.0001	3
13001	-0.00028	-0.00018	-0.0002	-0.00032	-0.00065	-0.00031	-3e-05	-0.0001	3
13002	-0.00028	-0.00018	-0.0002	-0.00032	-0.00065	-0.00031	-3e-05	-0.0001	3
13003	-0.00028	-0.00018	-0.0002	-0.00032	-0.00065	-0.00031	-3e-05	-0.0001	3
13004	-0.00028	-0.00018	-0.0002	-0.00032	-0.00065	-0.00031	-3e-05	-0.0001	3
13005	-0.00022	-8e-05	0	3e-05	-0.00017	-0.00011	0.0001	0.00021	3
13006	-0.00026	-4e-05	0	2e-05	5e-05	-0.00057	-0.00025	-6e-05	3
13007	0.0005	-0.00011	0.00013	0.00017	0.00035	0.00085	0.00099	0.00066	3
13008	0.0005	-0.00011	0.00013	0.00017	0.00035	0.00085	0.00099	0.00066	3
13009	0.0005	-0.00011	0.00013	0.00017	0.00035	0.00085	0.00099	0.00066	3
13010	0.0005	-0.00011	0.00013	0.00017	0.00035	0.00085	0.00099	0.00066	3
13011	0.0005	-0.00011	0.00013	0.00017	0.00035	0.00085	0.00099	0.00066	3
13012	0.0005	-0.00011	0.00013	0.00017	0.00035	0.00085	0.00099	0.00066	3
13013	0.0005	-0.00011	0.00013	0.00017	0.00035	0.00085	0.00099	0.00066	3
13014	0.0005	-0.00011	0.00013	0.00017	0.00035	0.00085	0.00099	0.00066	3
13015	0.0005	-0.00011	0.00013	0.00017	0.00035	0.00085	0.00099	0.00066	3
13016	0.0005	-0.00011	0.00013	0.00017	0.00035	0.00085	0.00099	0.00066	3
13017	0.0005	-0.00011	0.00013	0.00017	0.00035	0.00085	0.00099	0.00066	3
13018	0.0005	-0.00011	0.00013	0.00017	0.00035	0.00085	0.00099	0.00066	3
13019	0.0005	-0.00011	0.00013	0.00017	0.00035	0.00085	0.00099	0.00066	3
13020	-3e-05	-0.0002	-9e-05	2e-05	0.00042	0.00033	0.00023	0.00026	3
13021	-3e-05	-0.0002	-9e-05	2e-05	0.00042	0.00033	0.00023	0.00026	3
13022	-3e-05	-0.0002	-9e-05	2e-05	0.00042	0.00033	0.00023	0.00026	3
13023	-3e-05	-0.0002	-9e-05	2e-05	0.00042	0.00033	0.00023	0.00026	3
13024	-3e-05	-0.0002	-9e-05	2e-05	0.00042	0.00033	0.00023	0.00026	3
13025	-3e-05	-0.0002	-9e-05	2e-05	0.00042	0.00033	0.00023	0.00026	3
13026	0.00023	-1e-05	-0.00019	-0.00053	-0.00128	-0.00092	0	-0.00016	3
13027	-3e-05	0.00013	0.00011	0.00037	0.00109	0.00065	-0.00032	0.00022	3
13028	-3e-05	0.00013	0.00011	0.00037	0.00109	0.00065	-0.00032	0.00022	3
13029	-3e-05	0.00013	0.00011	0.00037	0.00109	0.00065	-0.00032	0.00022	3
13030	-3e-05	0.00013	0.00011	0.00037	0.00109	0.00065	-0.00032	0.00022	3
13031	-3e-05	0.00013	0.00011	0.00037	0.00109	0.00065	-0.00032	0.00022	3
13032	-3e-05	0.00013	0.00011	0.00037	0.00109	0.00065	-0.00032	0.00022	3
13033	-3e-05	0.00013	0.00011	0.00037	0.00109	0.00065	-0.00032	0.00022	3
13034	-3e-05	0.00013	0.00011	0.00037	0.00109	0.00065	-0.00032	0.00022	3
13035	-3e-05	0.00013	0.00011	0.00037	0.00109	0.00065	-0.00032	0.00022	3
13037	-3e-05	0.00013	0.00011	0.00037	0.00109	0.00065	-0.00032	0.00022	3
13040	-3e-05	0.00013	0.00011	0.00037	0.00109	0.00065	-0.00032	0.00022	3
13041	-3e-05	0.00013	0.00011	0.00037	0.00109	0.00065	-0.00032	0.00022	3
13042	-3e-05	0.00013	0.00011	0.00037	0.00109	0.00065	-0.00032	0.00022	3
13043	-0.00025	2e-05	1e-05	-8e-05	-0.00026	3e-05	0.0002	9e-05	3
13044	3e-05	-0.00018	-3e-05	-4e-05	0.00025	0.00028	0.00049	0.00043	3
13045	3e-05	-0.00018	-3e-05	-4e-05	0.00025	0.00028	0.00049	0.00043	3
13046	3e-05	-0.00018	-3e-05	-4e-05	0.00025	0.00028	0.00049	0.00043	3
13047	3e-05	-0.00018	-3e-05	-4e-05	0.00025	0.00028	0.00049	0.00043	3
13048	3e-05	-0.00018	-3e-05	-4e-05	0.00025	0.00028	0.00049	0.00043	3
13049	3e-05	-0.00018	-3e-05	-4e-05	0.00025	0.00028	0.00049	0.00043	3
13050	3e-05	-0.00018	-3e-05	-4e-05	0.00025	0.00028	0.00049	0.00043	3
13051	3e-05	-0.00018	-3e-05	-4e-05	0.00025	0.00028	0.00049	0.00043	3
13052	3e-05	-0.00018	-3e-05	-4e-05	0.00025	0.00028	0.00049	0.00043	3
13053	3e-05	-0.00018	-3e-05	-4e-05	0.00025	0.00028	0.00049	0.00043	3
13054	3e-05	-0.00018	-3e-05	-4e-05	0.00025	0.00028	0.00049	0.00043	3
13055	3e-05	-0.00018	-3e-05	-4e-05	0.00025	0.00028	0.00049	0.00043	3
13056	3e-05	-0.00018	-3e-05	-4e-05	0.00025	0.00028	0.00049	0.00043	3
13057	3e-05	-0.00018	-3e-05	-4e-05	0.00025	0.00028	0.00049	0.00043	3
13058	3e-05	-0.00018	-3e-05	-4e-05	0.00025	0.00028	0.00049	0.00043	3
13059	3e-05	-0.00018	-3e-05	-4e-05	0.00025	0.00028	0.00049	0.00043	3
13060	3e-05	-0.00018	-3e-05	-4e-05	0.00025	0.00028	0.00049	0.00043	3
13061	3e-05	-0.00018	-3e-05	-4e-05	0.00025	0.00028	0.00049	0.00043	3
13062	3e-05	-0.00018	-3e-05	-4e-05	0.00025	0.00028	0.00049	0.00043	3
13063	3e-05	-0.00018	-3e-05	-4e-05	0.00025	0.00028	0.00049	0.00043	3
13064	3e-05	-0.00018	-3e-05	-4e-05	0.00025	0.00028	0.00049	0.00043	3
13065	0.00014	8e-05	-1e-05	-6e-05	5e-05	-3e-05	-0.00013	0.00025	3
13066	0.00014	8e-05	-1e-05	-6e-05	5e-05	-3e-05	-0.00013	0.00025	3
13067	0.00067	-4e-05	-5e-05	-8e-05	-0.00033	-2e-05	-0.00025	-0.00018	3
13068	0.00067	-4e-05	-5e-05	-8e-05	-0.00033	-2e-05	-0.00025	-0.00018	3
13069	0.00067	-4e-05	-5e-05	-8e-05	-0.00033	-2e-05	-0.00025	-0.00018	3
13070	0.00067	-4e-05	-5e-05	-8e-05	-0.00033	-2e-05	-0.00025	-0.00018	3
13071	0.00067	-4e-05	-5e-05	-8e-05	-0.00033	-2e-05	-0.00025	-0.00018	3
13072	0.00067	-4e-05	-5e-05	-8e-05	-0.00033	-2e-05	-0.00025	-0.00018	3
13073	0.00067	-4e-05	-5e-05	-8e-05	-0.00033	-2e-05	-0.00025	-0.00018	3
13074	0.00067	-4e-05	-5e-05	-8e-05	-0.00033	-2e-05	-0.00025	-0.00018	3
13075	0.00067	-4e-05	-5e-05	-8e-05	-0.00033	-2e-05	-0.00025	-0.00018	3
13076	0.00067	-4e-05	-5e-05	-8e-05	-0.00033	-2e-05	-0.00025	-0.00018	3
13077	0.00067	-4e-05	-5e-05	-8e-05	-0.00033	-2e-05	-0.00025	-0.00018	3
13078	0.00067	-4e-05	-5e-05	-8e-05	-0.00033	-2e-05	-0.00025	-0.00018	3
13079	0.00067	-4e-05	-5e-05	-8e-05	-0.00033	-2e-05	-0.00025	-0.00018	3
13080	-0.00019	-0.00013	-6e-05	-0.00013	-0.0004	-0.00015	0.00012	-8e-05	3
13081	-0.00019	-0.00013	-6e-05	-0.00013	-0.0004	-0.00015	0.00012	-8e-05	3
13082	-0.00019	-0.00013	-6e-05	-0.00013	-0.0004	-0.00015	0.00012	-8e-05	3
13083	-0.00019	-0.00013	-6e-05	-0.00013	-0.0004	-0.00015	0.00012	-8e-05	3
13084	-0.00019	-0.00013	-6e-05	-0.00013	-0.0004	-0.00015	0.00012	-8e-05	3
13085	-0.00019	-0.00013	-6e-05	-0.00013	-0.0004	-0.00015	0.00012	-8e-05	3
13087	-0.00081	-0.0002	2e-05	-0.00013	-0.00034	0.00031	-2e-05	-0.00014	3
13089	-0.00081	-0.0002	2e-05	-0.00013	-0.00034	0.00031	-2e-05	-0.00014	3
13090	-0.00081	-0.0002	2e-05	-0.00013	-0.00034	0.00031	-2e-05	-0.00014	3
13091	-0.00081	-0.0002	2e-05	-0.00013	-0.00034	0.00031	-2e-05	-0.00014	3
13092	-0.00081	-0.0002	2e-05	-0.00013	-0.00034	0.00031	-2e-05	-0.00014	3
13093	-0.00081	-0.0002	2e-05	-0.00013	-0.00034	0.00031	-2e-05	-0.00014	3
13094	-0.00081	-0.0002	2e-05	-0.00013	-0.00034	0.00031	-2e-05	-0.00014	3
13095	-0.00081	-0.0002	2e-05	-0.00013	-0.00034	0.00031	-2e-05	-0.00014	3
13096	-0.00081	-0.0002	2e-05	-0.00013	-0.00034	0.00031	-2e-05	-0.00014	3
13097	-0.00081	-0.0002	2e-05	-0.00013	-0.00034	0.00031	-2e-05	-0.00014	3
13098	-0.00081	-0.0002	2e-05	-0.00013	-0.00034	0.00031	-2e-05	-0.00014	3
13099	-0.00081	-0.0002	2e-05	-0.00013	-0.00034	0.00031	-2e-05	-0.00014	3
13100	-0.00081	-0.0002	2e-05	-0.00013	-0.00034	0.00031	-2e-05	-0.00014	3
13101	-0.00081	-0.0002	2e-05	-0.00013	-0.00034	0.00031	-2e-05	-0.00014	3
13102	-0.00081	-0.0002	2e-05	-0.00013	-0.00034	0.00031	-2e-05	-0.00014	3
13103	0.00016	7e-05	1e-05	0	6e-05	0.00029	0.0003	-0.00019	3
13104	0.0004	0.0002	9e-05	6e-05	5e-05	-0.00022	-0.00033	6e-05	3
13105	0.0004	0.0002	9e-05	6e-05	5e-05	-0.00022	-0.00033	6e-05	3
13106	0.0004	0.0002	9e-05	6e-05	5e-05	-0.00022	-0.00033	6e-05	3
13107	0.0004	0.0002	9e-05	6e-05	5e-05	-0.00022	-0.00033	6e-05	3
13108	0.0004	0.0002	9e-05	6e-05	5e-05	-0.00022	-0.00033	6e-05	3
13110	0.0004	0.0002	9e-05	6e-05	5e-05	-0.00022	-0.00033	6e-05	3
13111	0.0004	0.0002	9e-05	6e-05	5e-05	-0.00022	-0.00033	6e-05	3
13112	0.0004	0.0002	9e-05	6e-05	5e-05	-0.00022	-0.00033	6e-05	3
13113	0.0004	0.0002	9e-05	6e-05	5e-05	-0.00022	-0.00033	6e-05	3
13114	0.0004	0.0002	9e-05	6e-05	5e-05	-0.00022	-0.00033	6e-05	3
13115	0.0004	0.0002	9e-05	6e-05	5e-05	-0.00022	-0.00033	6e-05	3
13116	0.0004	0.0002	9e-05	6e-05	5e-05	-0.00022	-0.00033	6e-05	3
13117	0.0004	0.0002	9e-05	6e-05	5e-05	-0.00022	-0.00033	6e-05	3
13118	0.0004	0.0002	9e-05	6e-05	5e-05	-0.00022	-0.00033	6e-05	3
13119	0.0004	0.0002	9e-05	6e-05	5e-05	-0.00022	-0.00033	6e-05	3
13120	0.0004	0.0002	9e-05	6e-05	5e-05	-0.00022	-0.00033	6e-05	3
13121	0.0004	0.0002	9e-05	6e-05	5e-05	-0.00022	-0.00033	6e-05	3
13123	0.0004	0.0002	9e-05	6e-05	5e-05	-0.00022	-0.00033	6e-05	3
13124	0.0004	0.0002	9e-05	6e-05	5e-05	-0.00022	-0.00033	6e-05	3
13125	-0.00054	2e-05	-0.00012	-0.00025	-0.00047	-9e-05	-0.00032	-0.00019	3
13126	-0.00054	2e-05	-0.00012	-0.00025	-0.00047	-9e-05	-0.00032	-0.00019	3
13127	-0.00018	-0.0001	-8e-05	3e-05	0	-0.00018	-0.00023	-0.00027	3
13128	-0.00018	-0.0001	-8e-05	3e-05	0	-0.00018	-0.00023	-0.00027	3
13129	-0.00018	-0.0001	-8e-05	3e-05	0	-0.00018	-0.00023	-0.00027	3
13130	-0.00018	-0.0001	-8e-05	3e-05	0	-0.00018	-0.00023	-0.00027	3
13131	-0.00018	-0.0001	-8e-05	3e-05	0	-0.00018	-0.00023	-0.00027	3
13132	-0.00018	-0.0001	-8e-05	3e-05	0	-0.00018	-0.00023	-0.00027	3
13133	-0.00018	-0.0001	-8e-05	3e-05	0	-0.00018	-0.00023	-0.00027	3
13134	-0.00018	-0.0001	-8e-05	3e-05	0	-0.00018	-0.00023	-0.00027	3
13135	-0.00018	-0.0001	-8e-05	3e-05	0	-0.00018	-0.00023	-0.00027	3
13137	-0.00018	-0.0001	-8e-05	3e-05	0	-0.00018	-0.00023	-0.00027	3
13140	-0.00031	-0.00013	-3e-05	-0.00012	-0.00026	9e-05	-2e-05	-0.00041	3
13141	-0.00031	-0.00013	-3e-05	-0.00012	-0.00026	9e-05	-2e-05	-0.00041	3
13142	-0.00031	-0.00013	-3e-05	-0.00012	-0.00026	9e-05	-2e-05	-0.00041	3
13143	-0.00031	-0.00013	-3e-05	-0.00012	-0.00026	9e-05	-2e-05	-0.00041	3
13144	-0.00031	-0.00013	-3e-05	-0.00012	-0.00026	9e-05	-2e-05	-0.00041	3
13145	-0.00031	-0.00013	-3e-05	-0.00012	-0.00026	9e-05	-2e-05	-0.00041	3
13146	-0.00031	-0.00013	-3e-05	-0.00012	-0.00026	9e-05	-2e-05	-0.00041	3
13147	-0.00031	-0.00013	-3e-05	-0.00012	-0.00026	9e-05	-2e-05	-0.00041	3
13148	-0.00032	-0.00015	-9e-05	-7e-05	-4e-05	-0.00026	-5e-05	-0.00014	3
13149	-0.00032	-0.00015	-9e-05	-7e-05	-4e-05	-0.00026	-5e-05	-0.00014	3
13150	-0.00032	-0.00015	-9e-05	-7e-05	-4e-05	-0.00026	-5e-05	-0.00014	3
13151	-0.00032	-0.00015	-9e-05	-7e-05	-4e-05	-0.00026	-5e-05	-0.00014	3
13152	-0.00032	-0.00015	-9e-05	-7e-05	-4e-05	-0.00026	-5e-05	-0.00014	3
13153	-0.00032	-0.00015	-9e-05	-7e-05	-4e-05	-0.00026	-5e-05	-0.00014	3
13154	-0.00032	-0.00015	-9e-05	-7e-05	-4e-05	-0.00026	-5e-05	-0.00014	3
13155	-0.00032	-0.00015	-9e-05	-7e-05	-4e-05	-0.00026	-5e-05	-0.00014	3
13156	-0.00032	-0.00015	-9e-05	-7e-05	-4e-05	-0.00026	-5e-05	-0.00014	3
13157	-0.00032	-0.00015	-9e-05	-7e-05	-4e-05	-0.00026	-5e-05	-0.00014	3
13158	-0.00032	-0.00015	-9e-05	-7e-05	-4e-05	-0.00026	-5e-05	-0.00014	3
13159	-0.00032	-0.00015	-9e-05	-7e-05	-4e-05	-0.00026	-5e-05	-0.00014	3
13160	-0.00032	-0.00015	-9e-05	-7e-05	-4e-05	-0.00026	-5e-05	-0.00014	3
13161	-0.00032	-0.00015	-9e-05	-7e-05	-4e-05	-0.00026	-5e-05	-0.00014	3
13162	-0.00032	-0.00015	-9e-05	-7e-05	-4e-05	-0.00026	-5e-05	-0.00014	3
13163	0.00057	-4e-05	-6e-05	-9e-05	0.00031	-8e-05	0.0001	-0.00023	3
13164	-0.00061	-0.00031	-6e-05	0.00016	0.00041	-0.00037	-0.00024	-0.00036	3
13165	-0.00061	-0.00031	-6e-05	0.00016	0.00041	-0.00037	-0.00024	-0.00036	3
13166	-0.00061	-0.00031	-6e-05	0.00016	0.00041	-0.00037	-0.00024	-0.00036	3
13167	-0.00061	-0.00031	-6e-05	0.00016	0.00041	-0.00037	-0.00024	-0.00036	3
13168	-0.00061	-0.00031	-6e-05	0.00016	0.00041	-0.00037	-0.00024	-0.00036	3
13169	-0.00061	-0.00031	-6e-05	0.00016	0.00041	-0.00037	-0.00024	-0.00036	3
13170	-0.00061	-0.00031	-6e-05	0.00016	0.00041	-0.00037	-0.00024	-0.00036	3
13171	-0.00061	-0.00031	-6e-05	0.00016	0.00041	-0.00037	-0.00024	-0.00036	3
13172	-0.00061	-0.00031	-6e-05	0.00016	0.00041	-0.00037	-0.00024	-0.00036	3
13173	-0.00061	-0.00031	-6e-05	0.00016	0.00041	-0.00037	-0.00024	-0.00036	3
13174	-0.00061	-0.00031	-6e-05	0.00016	0.00041	-0.00037	-0.00024	-0.00036	3
13175	-0.00061	-0.00031	-6e-05	0.00016	0.00041	-0.00037	-0.00024	-0.00036	3
13176	-0.00061	-0.00031	-6e-05	0.00016	0.00041	-0.00037	-0.00024	-0.00036	3
13177	-0.00061	-0.00031	-6e-05	0.00016	0.00041	-0.00037	-0.00024	-0.00036	3
13178	-0.00061	-0.00031	-6e-05	0.00016	0.00041	-0.00037	-0.00024	-0.00036	3
13179	-0.00061	-0.00031	-6e-05	0.00016	0.00041	-0.00037	-0.00024	-0.00036	3
13180	-0.00061	-0.00031	-6e-05	0.00016	0.00041	-0.00037	-0.00024	-0.00036	3
13181	-0.00061	-0.00031	-6e-05	0.00016	0.00041	-0.00037	-0.00024	-0.00036	3
13182	-0.00061	-0.00031	-6e-05	0.00016	0.00041	-0.00037	-0.00024	-0.00036	3
13183	-0.00061	-0.00031	-6e-05	0.00016	0.00041	-0.00037	-0.00024	-0.00036	3
13184	-0.00061	-0.00031	-6e-05	0.00016	0.00041	-0.00037	-0.00024	-0.00036	3
13185	0.00036	0.00011	-7e-05	-0.00011	-8e-05	-0.00012	0.00015	-0.00016	3
13187	5e-05	7e-05	2e-05	-4e-05	-0.00019	-0.00017	-0.00013	8e-05	3
13189	0.00033	0.00036	5e-05	0.00013	0.00025	0.0002	0.00019	0.00027	3
13190	0.00033	0.00036	5e-05	0.00013	0.00025	0.0002	0.00019	0.00027	3
13191	0.00033	0.00036	5e-05	0.00013	0.00025	0.0002	0.00019	0.00027	3
13192	0.00033	0.00036	5e-05	0.00013	0.00025	0.0002	0.00019	0.00027	3
13193	0.00033	0.00036	5e-05	0.00013	0.00025	0.0002	0.00019	0.00027	3
13194	0.00033	0.00036	5e-05	0.00013	0.00025	0.0002	0.00019	0.00027	3
13195	0.00033	0.00036	5e-05	0.00013	0.00025	0.0002	0.00019	0.00027	3
13196	0.00033	0.00036	5e-05	0.00013	0.00025	0.0002	0.00019	0.00027	3
13197	0.00033	0.00036	5e-05	0.00013	0.00025	0.0002	0.00019	0.00027	3
13198	0.00033	0.00036	5e-05	0.00013	0.00025	0.0002	0.00019	0.00027	3
13199	0.0002	-0.0002	1e-05	0	-0.00052	-0.00017	2e-05	0.00013	3
13200	0.0002	-0.0002	1e-05	0	-0.00052	-0.00017	2e-05	0.00013	3
13201	0.0002	-0.0002	1e-05	0	-0.00052	-0.00017	2e-05	0.00013	3
13202	0.0002	-0.0002	1e-05	0	-0.00052	-0.00017	2e-05	0.00013	3
13203	0.0002	-0.0002	1e-05	0	-0.00052	-0.00017	2e-05	0.00013	3
13204	0.0002	-0.0002	1e-05	0	-0.00052	-0.00017	2e-05	0.00013	3
13205	0.0002	-0.0002	1e-05	0	-0.00052	-0.00017	2e-05	0.00013	3
13206	0.0002	-0.0002	1e-05	0	-0.00052	-0.00017	2e-05	0.00013	3
13207	0.0002	-0.0002	1e-05	0	-0.00052	-0.00017	2e-05	0.00013	3
13208	0.0005	6e-05	0.00015	0.00049	0.00077	0.0001	-0.00023	0.0004	3
13209	0.0005	6e-05	0.00015	0.00049	0.00077	0.0001	-0.00023	0.0004	3
13210	0.0005	6e-05	0.00015	0.00049	0.00077	0.0001	-0.00023	0.0004	3
13211	0.0005	6e-05	0.00015	0.00049	0.00077	0.0001	-0.00023	0.0004	3
13212	0.0005	6e-05	0.00015	0.00049	0.00077	0.0001	-0.00023	0.0004	3
13213	0.0005	6e-05	0.00015	0.00049	0.00077	0.0001	-0.00023	0.0004	3
13214	0.0005	6e-05	0.00015	0.00049	0.00077	0.0001	-0.00023	0.0004	3
13215	0.0005	6e-05	0.00015	0.00049	0.00077	0.0001	-0.00023	0.0004	3
13216	0.0005	6e-05	0.00015	0.00049	0.00077	0.0001	-0.00023	0.0004	3
13217	0.0005	6e-05	0.00015	0.00049	0.00077	0.0001	-0.00023	0.0004	3
13218	0.0005	6e-05	0.00015	0.00049	0.00077	0.0001	-0.00023	0.0004	3
13219	0.0005	6e-05	0.00015	0.00049	0.00077	0.0001	-0.00023	0.0004	3
13220	0.0005	6e-05	0.00015	0.00049	0.00077	0.0001	-0.00023	0.0004	3
13221	0.0005	6e-05	0.00015	0.00049	0.00077	0.0001	-0.00023	0.0004	3
13222	0.0005	6e-05	0.00015	0.00049	0.00077	0.0001	-0.00023	0.0004	3
13223	0	1e-05	4e-05	9e-05	0.00013	-0.00014	-0.00031	0	3
13224	-0.00031	-8e-05	-3e-05	-0.00022	-0.00035	-0.00019	-6e-05	-0.00055	3
13225	-0.00031	-8e-05	-3e-05	-0.00022	-0.00035	-0.00019	-6e-05	-0.00055	3
13226	-0.00031	-8e-05	-3e-05	-0.00022	-0.00035	-0.00019	-6e-05	-0.00055	3
13227	-0.00031	-8e-05	-3e-05	-0.00022	-0.00035	-0.00019	-6e-05	-0.00055	3
13228	-0.00031	-8e-05	-3e-05	-0.00022	-0.00035	-0.00019	-6e-05	-0.00055	3
13229	-0.00031	-8e-05	-3e-05	-0.00022	-0.00035	-0.00019	-6e-05	-0.00055	3
13230	-0.00031	-8e-05	-3e-05	-0.00022	-0.00035	-0.00019	-6e-05	-0.00055	3
13231	-0.00031	-8e-05	-3e-05	-0.00022	-0.00035	-0.00019	-6e-05	-0.00055	3
13232	-0.00031	-8e-05	-3e-05	-0.00022	-0.00035	-0.00019	-6e-05	-0.00055	3
13233	-0.00031	-8e-05	-3e-05	-0.00022	-0.00035	-0.00019	-6e-05	-0.00055	3
13234	-0.00031	-8e-05	-3e-05	-0.00022	-0.00035	-0.00019	-6e-05	-0.00055	3
13235	-0.00031	-8e-05	-3e-05	-0.00022	-0.00035	-0.00019	-6e-05	-0.00055	3
13236	-0.00031	-8e-05	-3e-05	-0.00022	-0.00035	-0.00019	-6e-05	-0.00055	3
13238	-0.00031	-8e-05	-3e-05	-0.00022	-0.00035	-0.00019	-6e-05	-0.00055	3
13239	-0.00031	-8e-05	-3e-05	-0.00022	-0.00035	-0.00019	-6e-05	-0.00055	3
13240	-0.00031	-8e-05	-3e-05	-0.00022	-0.00035	-0.00019	-6e-05	-0.00055	3
13241	-0.00031	-8e-05	-3e-05	-0.00022	-0.00035	-0.00019	-6e-05	-0.00055	3
13242	-0.00031	-8e-05	-3e-05	-0.00022	-0.00035	-0.00019	-6e-05	-0.00055	3
13243	-0.00031	-8e-05	-3e-05	-0.00022	-0.00035	-0.00019	-6e-05	-0.00055	3
13244	-0.00031	-8e-05	-3e-05	-0.00022	-0.00035	-0.00019	-6e-05	-0.00055	3
13245	-5e-05	0.0002	2e-05	0.00016	0.00014	0.00014	-0.00017	8e-05	3
13246	-5e-05	0.0002	2e-05	0.00016	0.00014	0.00014	-0.00017	8e-05	3
13247	-0.0001	8e-05	-9e-05	-0.00032	-0.00095	-0.00053	0.00017	-0.00025	3
13248	-0.0001	8e-05	-9e-05	-0.00032	-0.00095	-0.00053	0.00017	-0.00025	3
13249	-0.0001	8e-05	-9e-05	-0.00032	-0.00095	-0.00053	0.00017	-0.00025	3
13250	-0.0001	8e-05	-9e-05	-0.00032	-0.00095	-0.00053	0.00017	-0.00025	3
13251	-0.0001	8e-05	-9e-05	-0.00032	-0.00095	-0.00053	0.00017	-0.00025	3
13252	-0.0001	8e-05	-9e-05	-0.00032	-0.00095	-0.00053	0.00017	-0.00025	3
13253	-0.0001	8e-05	-9e-05	-0.00032	-0.00095	-0.00053	0.00017	-0.00025	3
13254	-0.0001	8e-05	-9e-05	-0.00032	-0.00095	-0.00053	0.00017	-0.00025	3
13255	-0.0001	8e-05	-9e-05	-0.00032	-0.00095	-0.00053	0.00017	-0.00025	3
13256	-0.0001	8e-05	-9e-05	-0.00032	-0.00095	-0.00053	0.00017	-0.00025	3
13257	-0.0001	8e-05	-9e-05	-0.00032	-0.00095	-0.00053	0.00017	-0.00025	3
13258	-0.0001	8e-05	-9e-05	-0.00032	-0.00095	-0.00053	0.00017	-0.00025	3
13259	0.00032	-4e-05	-0.00012	-9e-05	8e-05	-0.00012	-0.00013	0.00047	3
13260	0.00032	-4e-05	-0.00012	-9e-05	8e-05	-0.00012	-0.00013	0.00047	3
13261	0.00032	-4e-05	-0.00012	-9e-05	8e-05	-0.00012	-0.00013	0.00047	3
13262	0.00032	-4e-05	-0.00012	-9e-05	8e-05	-0.00012	-0.00013	0.00047	3
13263	0.00032	-4e-05	-0.00012	-9e-05	8e-05	-0.00012	-0.00013	0.00047	3
13264	0.00032	-4e-05	-0.00012	-9e-05	8e-05	-0.00012	-0.00013	0.00047	3
13266	0.00032	-4e-05	-0.00012	-9e-05	8e-05	-0.00012	-0.00013	0.00047	3
13267	0.00032	-4e-05	-0.00012	-9e-05	8e-05	-0.00012	-0.00013	0.00047	3
13268	0.00029	0.00021	0.00015	0.00025	0.00039	-0.00021	5e-05	-2e-05	3
13269	0.00029	0.00021	0.00015	0.00025	0.00039	-0.00021	5e-05	-2e-05	3
13270	0.00029	0.00021	0.00015	0.00025	0.00039	-0.00021	5e-05	-2e-05	3
13271	0.00029	0.00021	0.00015	0.00025	0.00039	-0.00021	5e-05	-2e-05	3
13272	0.00029	0.00021	0.00015	0.00025	0.00039	-0.00021	5e-05	-2e-05	3
13273	0.00029	0.00021	0.00015	0.00025	0.00039	-0.00021	5e-05	-2e-05	3
13274	0.00029	0.00021	0.00015	0.00025	0.00039	-0.00021	5e-05	-2e-05	3
13275	0.00029	0.00021	0.00015	0.00025	0.00039	-0.00021	5e-05	-2e-05	3
13276	0.00029	0.00021	0.00015	0.00025	0.00039	-0.00021	5e-05	-2e-05	3
13277	0.00029	0.00021	0.00015	0.00025	0.00039	-0.00021	5e-05	-2e-05	3
13278	0.00029	0.00021	0.00015	0.00025	0.00039	-0.00021	5e-05	-2e-05	3
13279	0.00029	0.00021	0.00015	0.00025	0.00039	-0.00021	5e-05	-2e-05	3
13280	0.00029	0.00021	0.00015	0.00025	0.00039	-0.00021	5e-05	-2e-05	3
13281	0.00029	0.00021	0.00015	0.00025	0.00039	-0.00021	5e-05	-2e-05	3
13282	0.00029	0.00021	0.00015	0.00025	0.00039	-0.00021	5e-05	-2e-05	3
13283	-0.00011	3e-05	8e-05	0.0001	0.0003	0.0004	0.00102	0.0002	3
13284	0.00021	5e-05	-2e-05	-0.00017	-0.00021	0.00019	-2e-05	0.00029	3
13285	0.00021	5e-05	-2e-05	-0.00017	-0.00021	0.00019	-2e-05	0.00029	3
13286	0.00021	5e-05	-2e-05	-0.00017	-0.00021	0.00019	-2e-05	0.00029	3
13288	0.00021	5e-05	-2e-05	-0.00017	-0.00021	0.00019	-2e-05	0.00029	3
13290	0.00021	5e-05	-2e-05	-0.00017	-0.00021	0.00019	-2e-05	0.00029	3
13291	0.00021	5e-05	-2e-05	-0.00017	-0.00021	0.00019	-2e-05	0.00029	3
13292	0.00021	5e-05	-2e-05	-0.00017	-0.00021	0.00019	-2e-05	0.00029	3
13293	0.00021	5e-05	-2e-05	-0.00017	-0.00021	0.00019	-2e-05	0.00029	3
13294	0.00021	5e-05	-2e-05	-0.00017	-0.00021	0.00019	-2e-05	0.00029	3
13295	0.00021	5e-05	-2e-05	-0.00017	-0.00021	0.00019	-2e-05	0.00029	3
13296	0.00021	5e-05	-2e-05	-0.00017	-0.00021	0.00019	-2e-05	0.00029	3
13297	0.00021	5e-05	-2e-05	-0.00017	-0.00021	0.00019	-2e-05	0.00029	3
13298	0.00021	5e-05	-2e-05	-0.00017	-0.00021	0.00019	-2e-05	0.00029	3
13299	0.00021	5e-05	-2e-05	-0.00017	-0.00021	0.00019	-2e-05	0.00029	3
13300	0.00021	5e-05	-2e-05	-0.00017	-0.00021	0.00019	-2e-05	0.00029	3
13301	0.00021	5e-05	-2e-05	-0.00017	-0.00021	0.00019	-2e-05	0.00029	3
13302	0.00021	5e-05	-2e-05	-0.00017	-0.00021	0.00019	-2e-05	0.00029	3
13303	0.00021	5e-05	-2e-05	-0.00017	-0.00021	0.00019	-2e-05	0.00029	3
13304	0.00021	5e-05	-2e-05	-0.00017	-0.00021	0.00019	-2e-05	0.00029	3
13305	-0.00026	-7e-05	1e-05	1e-05	0.00024	0.00033	-9e-05	-0.00038	3
13306	-0.00026	-7e-05	1e-05	1e-05	0.00024	0.00033	-9e-05	-0.00038	3
13307	3e-05	-4e-05	-0.00015	-0.00022	-0.00039	0.00025	-2e-05	-0.00042	3
13308	3e-05	-4e-05	-0.00015	-0.00022	-0.00039	0.00025	-2e-05	-0.00042	3
13309	3e-05	-4e-05	-0.00015	-0.00022	-0.00039	0.00025	-2e-05	-0.00042	3
13310	3e-05	-4e-05	-0.00015	-0.00022	-0.00039	0.00025	-2e-05	-0.00042	3
13311	3e-05	-4e-05	-0.00015	-0.00022	-0.00039	0.00025	-2e-05	-0.00042	3
13312	3e-05	-4e-05	-0.00015	-0.00022	-0.00039	0.00025	-2e-05	-0.00042	3
13313	3e-05	-4e-05	-0.00015	-0.00022	-0.00039	0.00025	-2e-05	-0.00042	3
13314	3e-05	-4e-05	-0.00015	-0.00022	-0.00039	0.00025	-2e-05	-0.00042	3
13315	3e-05	-4e-05	-0.00015	-0.00022	-0.00039	0.00025	-2e-05	-0.00042	3
13316	3e-05	-4e-05	-0.00015	-0.00022	-0.00039	0.00025	-2e-05	-0.00042	3
13317	3e-05	-4e-05	-0.00015	-0.00022	-0.00039	0.00025	-2e-05	-0.00042	3
13318	3e-05	-4e-05	-0.00015	-0.00022	-0.00039	0.00025	-2e-05	-0.00042	3
13319	-0.00069	-0.00026	-0.00011	-0.00016	-0.00066	-0.00042	-0.00041	-0.00022	3
13320	-0.00069	-0.00026	-0.00011	-0.00016	-0.00066	-0.00042	-0.00041	-0.00022	3
13321	-0.00069	-0.00026	-0.00011	-0.00016	-0.00066	-0.00042	-0.00041	-0.00022	3
13322	-0.00069	-0.00026	-0.00011	-0.00016	-0.00066	-0.00042	-0.00041	-0.00022	3
13323	-0.00069	-0.00026	-0.00011	-0.00016	-0.00066	-0.00042	-0.00041	-0.00022	3
13324	-0.00069	-0.00026	-0.00011	-0.00016	-0.00066	-0.00042	-0.00041	-0.00022	3
13325	-0.00069	-0.00026	-0.00011	-0.00016	-0.00066	-0.00042	-0.00041	-0.00022	3
13326	-0.00069	-0.00026	-0.00011	-0.00016	-0.00066	-0.00042	-0.00041	-0.00022	3
13327	-0.00069	-0.00026	-0.00011	-0.00016	-0.00066	-0.00042	-0.00041	-0.00022	3
13328	0.00075	0.0003	9e-05	0.00032	0.00086	0.00032	-0.00014	8e-05	3
13329	0.00075	0.0003	9e-05	0.00032	0.00086	0.00032	-0.00014	8e-05	3
13330	0.00075	0.0003	9e-05	0.00032	0.00086	0.00032	-0.00014	8e-05	3
13331	0.00075	0.0003	9e-05	0.00032	0.00086	0.00032	-0.00014	8e-05	3
13332	0.00075	0.0003	9e-05	0.00032	0.00086	0.00032	-0.00014	8e-05	3
13333	0.00075	0.0003	9e-05	0.00032	0.00086	0.00032	-0.00014	8e-05	3
13334	0.00075	0.0003	9e-05	0.00032	0.00086	0.00032	-0.00014	8e-05	3
13335	0.00075	0.0003	9e-05	0.00032	0.00086	0.00032	-0.00014	8e-05	3
13336	0.00075	0.0003	9e-05	0.00032	0.00086	0.00032	-0.00014	8e-05	3
13339	0.00075	0.0003	9e-05	0.00032	0.00086	0.00032	-0.00014	8e-05	3
13340	0.00075	0.0003	9e-05	0.00032	0.00086	0.00032	-0.00014	8e-05	3
13341	0.00075	0.0003	9e-05	0.00032	0.00086	0.00032	-0.00014	8e-05	3
13342	0.00075	0.0003	9e-05	0.00032	0.00086	0.00032	-0.00014	8e-05	3
13343	8e-05	-0.00016	-4e-05	1e-05	-0.00016	-3e-05	0.00011	6e-05	3
13344	-0.00014	9e-05	1e-05	-5e-05	0	-4e-05	-0.00011	-0.00014	3
13345	-0.00016	-0.00016	-8e-05	-0.00015	-0.00018	-0.00026	0	0.00023	3
13346	-0.00016	-0.00016	-8e-05	-0.00015	-0.00018	-0.00026	0	0.00023	3
13347	-0.00016	-0.00016	-8e-05	-0.00015	-0.00018	-0.00026	0	0.00023	3
13348	-0.00016	-0.00016	-8e-05	-0.00015	-0.00018	-0.00026	0	0.00023	3
13349	-0.00016	-0.00016	-8e-05	-0.00015	-0.00018	-0.00026	0	0.00023	3
13350	-0.00016	-0.00016	-8e-05	-0.00015	-0.00018	-0.00026	0	0.00023	3
13351	-0.00016	-0.00016	-8e-05	-0.00015	-0.00018	-0.00026	0	0.00023	3
13352	-0.00016	-0.00016	-8e-05	-0.00015	-0.00018	-0.00026	0	0.00023	3
13353	-0.00016	-0.00016	-8e-05	-0.00015	-0.00018	-0.00026	0	0.00023	3
13354	-0.00016	-0.00016	-8e-05	-0.00015	-0.00018	-0.00026	0	0.00023	3
13355	-0.00016	-0.00016	-8e-05	-0.00015	-0.00018	-0.00026	0	0.00023	3
13356	-0.00016	-0.00016	-8e-05	-0.00015	-0.00018	-0.00026	0	0.00023	3
13357	-0.00016	-0.00016	-8e-05	-0.00015	-0.00018	-0.00026	0	0.00023	3
13358	-0.00016	-0.00016	-8e-05	-0.00015	-0.00018	-0.00026	0	0.00023	3
13359	-0.00016	-0.00016	-8e-05	-0.00015	-0.00018	-0.00026	0	0.00023	3
13360	-0.00016	-0.00016	-8e-05	-0.00015	-0.00018	-0.00026	0	0.00023	3
13361	-0.00016	-0.00016	-8e-05	-0.00015	-0.00018	-0.00026	0	0.00023	3
13362	-0.00016	-0.00016	-8e-05	-0.00015	-0.00018	-0.00026	0	0.00023	3
13363	-0.00016	-0.00016	-8e-05	-0.00015	-0.00018	-0.00026	0	0.00023	3
13364	-0.00016	-0.00016	-8e-05	-0.00015	-0.00018	-0.00026	0	0.00023	3
13365	-0.00041	0.00011	0.00011	0.00019	0.00026	0.00023	0.00014	4e-05	3
13366	-0.00041	0.00011	0.00011	0.00019	0.00026	0.00023	0.00014	4e-05	3
13367	9e-05	-6e-05	-8e-05	-0.00019	-0.00038	-0.00036	-9e-05	2e-05	3
13368	9e-05	-6e-05	-8e-05	-0.00019	-0.00038	-0.00036	-9e-05	2e-05	3
13369	9e-05	-6e-05	-8e-05	-0.00019	-0.00038	-0.00036	-9e-05	2e-05	3
13370	9e-05	-6e-05	-8e-05	-0.00019	-0.00038	-0.00036	-9e-05	2e-05	3
13371	9e-05	-6e-05	-8e-05	-0.00019	-0.00038	-0.00036	-9e-05	2e-05	3
13372	9e-05	-6e-05	-8e-05	-0.00019	-0.00038	-0.00036	-9e-05	2e-05	3
13373	9e-05	-6e-05	-8e-05	-0.00019	-0.00038	-0.00036	-9e-05	2e-05	3
13374	9e-05	-6e-05	-8e-05	-0.00019	-0.00038	-0.00036	-9e-05	2e-05	3
13375	9e-05	-6e-05	-8e-05	-0.00019	-0.00038	-0.00036	-9e-05	2e-05	3
13376	9e-05	-6e-05	-8e-05	-0.00019	-0.00038	-0.00036	-9e-05	2e-05	3
13377	9e-05	-6e-05	-8e-05	-0.00019	-0.00038	-0.00036	-9e-05	2e-05	3
13378	9e-05	-6e-05	-8e-05	-0.00019	-0.00038	-0.00036	-9e-05	2e-05	3
13379	0.00046	-7e-05	-9e-05	-5e-05	0.00011	-0.00018	-1e-05	0.00011	3
13380	0.00046	-7e-05	-9e-05	-5e-05	0.00011	-0.00018	-1e-05	0.00011	3
13381	0.00046	-7e-05	-9e-05	-5e-05	0.00011	-0.00018	-1e-05	0.00011	3
13382	0.00046	-7e-05	-9e-05	-5e-05	0.00011	-0.00018	-1e-05	0.00011	3
13383	0.00046	-7e-05	-9e-05	-5e-05	0.00011	-0.00018	-1e-05	0.00011	3
13384	0.00046	-7e-05	-9e-05	-5e-05	0.00011	-0.00018	-1e-05	0.00011	3
13385	0.00046	-7e-05	-9e-05	-5e-05	0.00011	-0.00018	-1e-05	0.00011	3
13386	0.00046	-7e-05	-9e-05	-5e-05	0.00011	-0.00018	-1e-05	0.00011	3
13389	0.00013	-9e-05	-2e-05	5e-05	0.00023	0.00023	0	0.00043	3
13390	0.00013	-9e-05	-2e-05	5e-05	0.00023	0.00023	0	0.00043	3
13391	0.00013	-9e-05	-2e-05	5e-05	0.00023	0.00023	0	0.00043	3
13392	0.00013	-9e-05	-2e-05	5e-05	0.00023	0.00023	0	0.00043	3
13393	0.00013	-9e-05	-2e-05	5e-05	0.00023	0.00023	0	0.00043	3
13394	0.00013	-9e-05	-2e-05	5e-05	0.00023	0.00023	0	0.00043	3
13395	0.00013	-9e-05	-2e-05	5e-05	0.00023	0.00023	0	0.00043	3
13396	0.00013	-9e-05	-2e-05	5e-05	0.00023	0.00023	0	0.00043	3
13397	0.00013	-9e-05	-2e-05	5e-05	0.00023	0.00023	0	0.00043	3
13398	0.00013	-9e-05	-2e-05	5e-05	0.00023	0.00023	0	0.00043	3
13399	0.00013	-9e-05	-2e-05	5e-05	0.00023	0.00023	0	0.00043	3
13400	0.00013	-9e-05	-2e-05	5e-05	0.00023	0.00023	0	0.00043	3
13401	0.00013	-9e-05	-2e-05	5e-05	0.00023	0.00023	0	0.00043	3
13402	0.00013	-9e-05	-2e-05	5e-05	0.00023	0.00023	0	0.00043	3
13404	5e-05	-8e-05	3e-05	5e-05	0.00034	0.00019	-6e-05	-0.00014	3
13405	-0.00052	0.0001	-4e-05	-3e-05	0.0002	-8e-05	-1e-05	-0.00036	3
13406	-0.00052	0.0001	-4e-05	-3e-05	0.0002	-8e-05	-1e-05	-0.00036	3
13407	-0.00052	0.0001	-4e-05	-3e-05	0.0002	-8e-05	-1e-05	-0.00036	3
13408	-0.00052	0.0001	-4e-05	-3e-05	0.0002	-8e-05	-1e-05	-0.00036	3
13409	-0.00052	0.0001	-4e-05	-3e-05	0.0002	-8e-05	-1e-05	-0.00036	3
13410	-0.00052	0.0001	-4e-05	-3e-05	0.0002	-8e-05	-1e-05	-0.00036	3
13411	-0.00052	0.0001	-4e-05	-3e-05	0.0002	-8e-05	-1e-05	-0.00036	3
13412	-0.00052	0.0001	-4e-05	-3e-05	0.0002	-8e-05	-1e-05	-0.00036	3
13413	-0.00052	0.0001	-4e-05	-3e-05	0.0002	-8e-05	-1e-05	-0.00036	3
13414	-0.00052	0.0001	-4e-05	-3e-05	0.0002	-8e-05	-1e-05	-0.00036	3
13415	-0.00052	0.0001	-4e-05	-3e-05	0.0002	-8e-05	-1e-05	-0.00036	3
13416	-0.00052	0.0001	-4e-05	-3e-05	0.0002	-8e-05	-1e-05	-0.00036	3
13417	-0.00052	0.0001	-4e-05	-3e-05	0.0002	-8e-05	-1e-05	-0.00036	3
13418	-0.00052	0.0001	-4e-05	-3e-05	0.0002	-8e-05	-1e-05	-0.00036	3
13419	-0.00052	0.0001	-4e-05	-3e-05	0.0002	-8e-05	-1e-05	-0.00036	3
13420	-0.00052	0.0001	-4e-05	-3e-05	0.0002	-8e-05	-1e-05	-0.00036	3
13421	-0.00052	0.0001	-4e-05	-3e-05	0.0002	-8e-05	-1e-05	-0.00036	3
13422	-0.00052	0.0001	-4e-05	-3e-05	0.0002	-8e-05	-1e-05	-0.00036	3
13423	-0.00052	0.0001	-4e-05	-3e-05	0.0002	-8e-05	-1e-05	-0.00036	3
13424	-0.00052	0.0001	-4e-05	-3e-05	0.0002	-8e-05	-1e-05	-0.00036	3
13425	-0.0001	-0.00014	0	0	-0.00014	5e-05	-0.00024	-6e-05	3
13426	-0.0001	-0.00014	0	0	-0.00014	5e-05	-0.00024	-6e-05	3
13427	-0.00088	-7e-05	1e-05	5e-05	0.00025	0.00025	-8e-05	-8e-05	3
13428	-0.00088	-7e-05	1e-05	5e-05	0.00025	0.00025	-8e-05	-8e-05	3
13429	-0.00088	-7e-05	1e-05	5e-05	0.00025	0.00025	-8e-05	-8e-05	3
13430	-0.00088	-7e-05	1e-05	5e-05	0.00025	0.00025	-8e-05	-8e-05	3
13431	-0.00088	-7e-05	1e-05	5e-05	0.00025	0.00025	-8e-05	-8e-05	3
13432	-0.00088	-7e-05	1e-05	5e-05	0.00025	0.00025	-8e-05	-8e-05	3
13433	-0.00088	-7e-05	1e-05	5e-05	0.00025	0.00025	-8e-05	-8e-05	3
13434	-0.00088	-7e-05	1e-05	5e-05	0.00025	0.00025	-8e-05	-8e-05	3
13435	-0.00088	-7e-05	1e-05	5e-05	0.00025	0.00025	-8e-05	-8e-05	3
13436	-0.00088	-7e-05	1e-05	5e-05	0.00025	0.00025	-8e-05	-8e-05	3
13439	-0.00088	-7e-05	1e-05	5e-05	0.00025	0.00025	-8e-05	-8e-05	3
13440	-0.00088	-7e-05	1e-05	5e-05	0.00025	0.00025	-8e-05	-8e-05	3
13441	-0.00088	-7e-05	1e-05	5e-05	0.00025	0.00025	-8e-05	-8e-05	3
13442	-0.00088	-7e-05	1e-05	5e-05	0.00025	0.00025	-8e-05	-8e-05	3
13443	-0.00088	-7e-05	1e-05	5e-05	0.00025	0.00025	-8e-05	-8e-05	3
13444	-0.00088	-7e-05	1e-05	5e-05	0.00025	0.00025	-8e-05	-8e-05	3
13445	-0.00088	-7e-05	1e-05	5e-05	0.00025	0.00025	-8e-05	-8e-05	3
13446	-0.00088	-7e-05	1e-05	5e-05	0.00025	0.00025	-8e-05	-8e-05	3
13447	-0.00088	-7e-05	1e-05	5e-05	0.00025	0.00025	-8e-05	-8e-05	3
13448	-0.00051	9e-05	7e-05	0.00023	0.0007	0.00044	0.00084	-0.00016	3
13449	0.00035	-9e-05	8e-05	0.00018	0.00054	0.00031	0.00019	0.00019	3
13450	0.00062	0.00025	-1e-05	-5e-05	-0.00053	-5e-05	0.00012	0.0001	3
13451	0.00062	0.00025	-1e-05	-5e-05	-0.00053	-5e-05	0.00012	0.0001	3
13452	0.00062	0.00025	-1e-05	-5e-05	-0.00053	-5e-05	0.00012	0.0001	3
13453	0.00062	0.00025	-1e-05	-5e-05	-0.00053	-5e-05	0.00012	0.0001	3
13454	0.00062	0.00025	-1e-05	-5e-05	-0.00053	-5e-05	0.00012	0.0001	3
13455	0.00062	0.00025	-1e-05	-5e-05	-0.00053	-5e-05	0.00012	0.0001	3
13456	0.00062	0.00025	-1e-05	-5e-05	-0.00053	-5e-05	0.00012	0.0001	3
13457	0.00062	0.00025	-1e-05	-5e-05	-0.00053	-5e-05	0.00012	0.0001	3
13458	0.00062	0.00025	-1e-05	-5e-05	-0.00053	-5e-05	0.00012	0.0001	3
13459	0.00062	0.00025	-1e-05	-5e-05	-0.00053	-5e-05	0.00012	0.0001	3
13460	0.00062	0.00025	-1e-05	-5e-05	-0.00053	-5e-05	0.00012	0.0001	3
13461	0.00062	0.00025	-1e-05	-5e-05	-0.00053	-5e-05	0.00012	0.0001	3
13462	0.00062	0.00025	-1e-05	-5e-05	-0.00053	-5e-05	0.00012	0.0001	3
13463	3e-05	-7e-05	-8e-05	-0.00019	-0.00032	2e-05	-0.00022	-0.00015	3
13464	0	-9e-05	-7e-05	-6e-05	-0.00021	-0.00011	0.00018	1e-05	3
13465	-0.0005	-1e-05	3e-05	4e-05	0.0002	0.00068	-0.00015	-0.00036	3
13466	-0.0005	-1e-05	3e-05	4e-05	0.0002	0.00068	-0.00015	-0.00036	3
13467	-0.0005	-1e-05	3e-05	4e-05	0.0002	0.00068	-0.00015	-0.00036	3
13468	-0.0005	-1e-05	3e-05	4e-05	0.0002	0.00068	-0.00015	-0.00036	3
13469	-0.0005	-1e-05	3e-05	4e-05	0.0002	0.00068	-0.00015	-0.00036	3
13470	-0.0005	-1e-05	3e-05	4e-05	0.0002	0.00068	-0.00015	-0.00036	3
13471	-0.0005	-1e-05	3e-05	4e-05	0.0002	0.00068	-0.00015	-0.00036	3
13472	-0.0005	-1e-05	3e-05	4e-05	0.0002	0.00068	-0.00015	-0.00036	3
13473	-0.0005	-1e-05	3e-05	4e-05	0.0002	0.00068	-0.00015	-0.00036	3
13474	-0.0005	-1e-05	3e-05	4e-05	0.0002	0.00068	-0.00015	-0.00036	3
13475	-0.0005	-1e-05	3e-05	4e-05	0.0002	0.00068	-0.00015	-0.00036	3
13476	-0.0005	-1e-05	3e-05	4e-05	0.0002	0.00068	-0.00015	-0.00036	3
13477	-0.0005	-1e-05	3e-05	4e-05	0.0002	0.00068	-0.00015	-0.00036	3
13478	-0.0005	-1e-05	3e-05	4e-05	0.0002	0.00068	-0.00015	-0.00036	3
13479	-0.0005	-1e-05	3e-05	4e-05	0.0002	0.00068	-0.00015	-0.00036	3
13480	-0.0005	-1e-05	3e-05	4e-05	0.0002	0.00068	-0.00015	-0.00036	3
13481	-0.0005	-1e-05	3e-05	4e-05	0.0002	0.00068	-0.00015	-0.00036	3
13482	-0.0005	-1e-05	3e-05	4e-05	0.0002	0.00068	-0.00015	-0.00036	3
13483	-0.0005	-1e-05	3e-05	4e-05	0.0002	0.00068	-0.00015	-0.00036	3
13484	-0.0005	-1e-05	3e-05	4e-05	0.0002	0.00068	-0.00015	-0.00036	3
13485	0.00013	0.00021	6e-05	0.00013	0.00033	4e-05	-0.00017	-2e-05	3
13486	0.00013	0.00021	6e-05	0.00013	0.00033	4e-05	-0.00017	-2e-05	3
13489	0.00028	2e-05	5e-05	0.00011	0.00021	-0.00023	9e-05	9e-05	3
13490	0.00028	2e-05	5e-05	0.00011	0.00021	-0.00023	9e-05	9e-05	3
13491	0.00028	2e-05	5e-05	0.00011	0.00021	-0.00023	9e-05	9e-05	3
13492	0.00028	2e-05	5e-05	0.00011	0.00021	-0.00023	9e-05	9e-05	3
13493	0.00028	2e-05	5e-05	0.00011	0.00021	-0.00023	9e-05	9e-05	3
13494	0.00028	2e-05	5e-05	0.00011	0.00021	-0.00023	9e-05	9e-05	3
13495	0.00028	2e-05	5e-05	0.00011	0.00021	-0.00023	9e-05	9e-05	3
13496	0.00028	2e-05	5e-05	0.00011	0.00021	-0.00023	9e-05	9e-05	3
13497	0.00028	2e-05	5e-05	0.00011	0.00021	-0.00023	9e-05	9e-05	3
13498	0.00028	2e-05	5e-05	0.00011	0.00021	-0.00023	9e-05	9e-05	3
13499	0.00027	0.00011	0	8e-05	0.00051	0.00022	-0.00031	0.00029	3
13500	0.00027	0.00011	0	8e-05	0.00051	0.00022	-0.00031	0.00029	3
13501	0.00027	0.00011	0	8e-05	0.00051	0.00022	-0.00031	0.00029	3
13502	0.00027	0.00011	0	8e-05	0.00051	0.00022	-0.00031	0.00029	3
13503	0.00027	0.00011	0	8e-05	0.00051	0.00022	-0.00031	0.00029	3
13504	0.00027	0.00011	0	8e-05	0.00051	0.00022	-0.00031	0.00029	3
13505	0.00027	0.00011	0	8e-05	0.00051	0.00022	-0.00031	0.00029	3
13506	0.00027	0.00011	0	8e-05	0.00051	0.00022	-0.00031	0.00029	3
13507	0.00027	0.00011	0	8e-05	0.00051	0.00022	-0.00031	0.00029	3
13508	0.00052	1e-05	-6e-05	-0.00021	-0.00057	-0.00055	-0.00018	0.00033	3
13509	0.00052	1e-05	-6e-05	-0.00021	-0.00057	-0.00055	-0.00018	0.00033	3
13510	0.00052	1e-05	-6e-05	-0.00021	-0.00057	-0.00055	-0.00018	0.00033	3
13511	0.00052	1e-05	-6e-05	-0.00021	-0.00057	-0.00055	-0.00018	0.00033	3
13512	0.00052	1e-05	-6e-05	-0.00021	-0.00057	-0.00055	-0.00018	0.00033	3
13513	0.00052	1e-05	-6e-05	-0.00021	-0.00057	-0.00055	-0.00018	0.00033	3
13514	0.00052	1e-05	-6e-05	-0.00021	-0.00057	-0.00055	-0.00018	0.00033	3
13515	0.00052	1e-05	-6e-05	-0.00021	-0.00057	-0.00055	-0.00018	0.00033	3
13516	0.00052	1e-05	-6e-05	-0.00021	-0.00057	-0.00055	-0.00018	0.00033	3
13517	0.00052	1e-05	-6e-05	-0.00021	-0.00057	-0.00055	-0.00018	0.00033	3
13518	0.00052	1e-05	-6e-05	-0.00021	-0.00057	-0.00055	-0.00018	0.00033	3
13519	0.00052	1e-05	-6e-05	-0.00021	-0.00057	-0.00055	-0.00018	0.00033	3
13520	0.00052	1e-05	-6e-05	-0.00021	-0.00057	-0.00055	-0.00018	0.00033	3
13521	0.00052	1e-05	-6e-05	-0.00021	-0.00057	-0.00055	-0.00018	0.00033	3
13522	0.00052	1e-05	-6e-05	-0.00021	-0.00057	-0.00055	-0.00018	0.00033	3
13523	-0.0002	-9e-05	-4e-05	-0.00016	-0.00061	-0.00058	2e-05	-0.00026	3
13524	0.00026	0.00014	-2e-05	8e-05	0.00046	0.00031	-0.0001	0.00016	3
13525	7e-05	-0.00011	7e-05	-3e-05	-0.0001	0.00041	0.00019	-0.00058	3
13526	7e-05	-0.00011	7e-05	-3e-05	-0.0001	0.00041	0.00019	-0.00058	3
13527	7e-05	-0.00011	7e-05	-3e-05	-0.0001	0.00041	0.00019	-0.00058	3
13528	7e-05	-0.00011	7e-05	-3e-05	-0.0001	0.00041	0.00019	-0.00058	3
13529	7e-05	-0.00011	7e-05	-3e-05	-0.0001	0.00041	0.00019	-0.00058	3
13530	7e-05	-0.00011	7e-05	-3e-05	-0.0001	0.00041	0.00019	-0.00058	3
13531	7e-05	-0.00011	7e-05	-3e-05	-0.0001	0.00041	0.00019	-0.00058	3
13532	7e-05	-0.00011	7e-05	-3e-05	-0.0001	0.00041	0.00019	-0.00058	3
13533	7e-05	-0.00011	7e-05	-3e-05	-0.0001	0.00041	0.00019	-0.00058	3
13534	7e-05	-0.00011	7e-05	-3e-05	-0.0001	0.00041	0.00019	-0.00058	3
13535	7e-05	-0.00011	7e-05	-3e-05	-0.0001	0.00041	0.00019	-0.00058	3
13536	7e-05	-0.00011	7e-05	-3e-05	-0.0001	0.00041	0.00019	-0.00058	3
13539	7e-05	-0.00011	7e-05	-3e-05	-0.0001	0.00041	0.00019	-0.00058	3
13540	7e-05	-0.00011	7e-05	-3e-05	-0.0001	0.00041	0.00019	-0.00058	3
13541	7e-05	-0.00011	7e-05	-3e-05	-0.0001	0.00041	0.00019	-0.00058	3
13542	7e-05	-0.00011	7e-05	-3e-05	-0.0001	0.00041	0.00019	-0.00058	3
13543	7e-05	-0.00011	7e-05	-3e-05	-0.0001	0.00041	0.00019	-0.00058	3
13544	7e-05	-0.00011	7e-05	-3e-05	-0.0001	0.00041	0.00019	-0.00058	3
13545	0.00039	-3e-05	-9e-05	-0.00013	-0.00033	-0.00035	-0.00046	0.00025	3
13546	0.00039	-3e-05	-9e-05	-0.00013	-0.00033	-0.00035	-0.00046	0.00025	3
13547	-7e-05	-0.00012	-2e-05	4e-05	0.00019	9e-05	-6e-05	5e-05	3
13548	-7e-05	-0.00012	-2e-05	4e-05	0.00019	9e-05	-6e-05	5e-05	3
13549	-7e-05	-0.00012	-2e-05	4e-05	0.00019	9e-05	-6e-05	5e-05	3
13550	-7e-05	-0.00012	-2e-05	4e-05	0.00019	9e-05	-6e-05	5e-05	3
13551	-7e-05	-0.00012	-2e-05	4e-05	0.00019	9e-05	-6e-05	5e-05	3
13552	-7e-05	-0.00012	-2e-05	4e-05	0.00019	9e-05	-6e-05	5e-05	3
13553	-7e-05	-0.00012	-2e-05	4e-05	0.00019	9e-05	-6e-05	5e-05	3
13554	-7e-05	-0.00012	-2e-05	4e-05	0.00019	9e-05	-6e-05	5e-05	3
13555	-7e-05	-0.00012	-2e-05	4e-05	0.00019	9e-05	-6e-05	5e-05	3
13556	-7e-05	-0.00012	-2e-05	4e-05	0.00019	9e-05	-6e-05	5e-05	3
13557	-7e-05	-0.00012	-2e-05	4e-05	0.00019	9e-05	-6e-05	5e-05	3
13558	-7e-05	-0.00012	-2e-05	4e-05	0.00019	9e-05	-6e-05	5e-05	3
13559	-0.00044	-2e-05	1e-05	-7e-05	-0.00019	-5e-05	3e-05	-7e-05	3
13560	-0.00044	-2e-05	1e-05	-7e-05	-0.00019	-5e-05	3e-05	-7e-05	3
13561	-0.00044	-2e-05	1e-05	-7e-05	-0.00019	-5e-05	3e-05	-7e-05	3
13562	-0.00044	-2e-05	1e-05	-7e-05	-0.00019	-5e-05	3e-05	-7e-05	3
13563	-0.00044	-2e-05	1e-05	-7e-05	-0.00019	-5e-05	3e-05	-7e-05	3
13564	-0.00044	-2e-05	1e-05	-7e-05	-0.00019	-5e-05	3e-05	-7e-05	3
13565	-0.00044	-2e-05	1e-05	-7e-05	-0.00019	-5e-05	3e-05	-7e-05	3
13566	-0.00044	-2e-05	1e-05	-7e-05	-0.00019	-5e-05	3e-05	-7e-05	3
13567	-0.00044	-2e-05	1e-05	-7e-05	-0.00019	-5e-05	3e-05	-7e-05	3
13568	0.00014	0	1e-05	7e-05	0.00018	0.00024	0	0.00031	3
13569	0.00014	0	1e-05	7e-05	0.00018	0.00024	0	0.00031	3
13570	0.00014	0	1e-05	7e-05	0.00018	0.00024	0	0.00031	3
13571	0.00014	0	1e-05	7e-05	0.00018	0.00024	0	0.00031	3
13572	0.00014	0	1e-05	7e-05	0.00018	0.00024	0	0.00031	3
13573	0.00014	0	1e-05	7e-05	0.00018	0.00024	0	0.00031	3
13574	0.00014	0	1e-05	7e-05	0.00018	0.00024	0	0.00031	3
13575	0.00014	0	1e-05	7e-05	0.00018	0.00024	0	0.00031	3
13576	0.00014	0	1e-05	7e-05	0.00018	0.00024	0	0.00031	3
13577	0.00014	0	1e-05	7e-05	0.00018	0.00024	0	0.00031	3
13578	0.00014	0	1e-05	7e-05	0.00018	0.00024	0	0.00031	3
13579	0.00014	0	1e-05	7e-05	0.00018	0.00024	0	0.00031	3
13580	0.00014	0	1e-05	7e-05	0.00018	0.00024	0	0.00031	3
13581	0.00014	0	1e-05	7e-05	0.00018	0.00024	0	0.00031	3
13582	0.00014	0	1e-05	7e-05	0.00018	0.00024	0	0.00031	3
13583	0.00048	9e-05	6e-05	0.00015	0.00059	0.00054	3e-05	-0.00043	3
13584	0.00019	1e-05	1e-05	-8e-05	-0.00021	-0.00012	-0.00036	0.00025	3
13585	-0.00035	-0.00011	-1e-05	-2e-05	-0.00023	-0.00033	0	-7e-05	3
13586	-0.00035	-0.00011	-1e-05	-2e-05	-0.00023	-0.00033	0	-7e-05	3
13588	-0.00035	-0.00011	-1e-05	-2e-05	-0.00023	-0.00033	0	-7e-05	3
13589	-0.00035	-0.00011	-1e-05	-2e-05	-0.00023	-0.00033	0	-7e-05	3
13590	-0.00035	-0.00011	-1e-05	-2e-05	-0.00023	-0.00033	0	-7e-05	3
13592	-0.00035	-0.00011	-1e-05	-2e-05	-0.00023	-0.00033	0	-7e-05	3
13593	-0.00035	-0.00011	-1e-05	-2e-05	-0.00023	-0.00033	0	-7e-05	3
13594	-0.00035	-0.00011	-1e-05	-2e-05	-0.00023	-0.00033	0	-7e-05	3
13595	-0.00035	-0.00011	-1e-05	-2e-05	-0.00023	-0.00033	0	-7e-05	3
13596	-0.00035	-0.00011	-1e-05	-2e-05	-0.00023	-0.00033	0	-7e-05	3
13597	-0.00035	-0.00011	-1e-05	-2e-05	-0.00023	-0.00033	0	-7e-05	3
13598	-0.00035	-0.00011	-1e-05	-2e-05	-0.00023	-0.00033	0	-7e-05	3
13599	-0.00035	-0.00011	-1e-05	-2e-05	-0.00023	-0.00033	0	-7e-05	3
13600	-0.00035	-0.00011	-1e-05	-2e-05	-0.00023	-0.00033	0	-7e-05	3
13601	-0.00035	-0.00011	-1e-05	-2e-05	-0.00023	-0.00033	0	-7e-05	3
13602	-0.00035	-0.00011	-1e-05	-2e-05	-0.00023	-0.00033	0	-7e-05	3
13603	-0.00035	-0.00011	-1e-05	-2e-05	-0.00023	-0.00033	0	-7e-05	3
13604	-0.00035	-0.00011	-1e-05	-2e-05	-0.00023	-0.00033	0	-7e-05	3
13605	0.00042	-3e-05	1e-05	1e-05	-0.00012	-0.00027	7e-05	0.00031	3
13606	0.00042	-3e-05	1e-05	1e-05	-0.00012	-0.00027	7e-05	0.00031	3
13607	-0.00038	-0.00016	-4e-05	4e-05	0.0003	-0.00026	0.00028	-0.0001	3
13608	-0.00038	-0.00016	-4e-05	4e-05	0.0003	-0.00026	0.00028	-0.0001	3
13609	-0.00038	-0.00016	-4e-05	4e-05	0.0003	-0.00026	0.00028	-0.0001	3
13610	-0.00038	-0.00016	-4e-05	4e-05	0.0003	-0.00026	0.00028	-0.0001	3
13611	-0.00038	-0.00016	-4e-05	4e-05	0.0003	-0.00026	0.00028	-0.0001	3
13612	-0.00038	-0.00016	-4e-05	4e-05	0.0003	-0.00026	0.00028	-0.0001	3
13613	-0.00038	-0.00016	-4e-05	4e-05	0.0003	-0.00026	0.00028	-0.0001	3
13614	-0.00038	-0.00016	-4e-05	4e-05	0.0003	-0.00026	0.00028	-0.0001	3
13615	-0.00038	-0.00016	-4e-05	4e-05	0.0003	-0.00026	0.00028	-0.0001	3
13616	-0.00038	-0.00016	-4e-05	4e-05	0.0003	-0.00026	0.00028	-0.0001	3
13617	-0.00038	-0.00016	-4e-05	4e-05	0.0003	-0.00026	0.00028	-0.0001	3
13618	-0.00038	-0.00016	-4e-05	4e-05	0.0003	-0.00026	0.00028	-0.0001	3
13619	-0.00038	-0.00016	-4e-05	4e-05	0.0003	-0.00026	0.00028	-0.0001	3
13620	-0.00038	-0.00016	-4e-05	4e-05	0.0003	-0.00026	0.00028	-0.0001	3
13621	-0.00038	-0.00016	-4e-05	4e-05	0.0003	-0.00026	0.00028	-0.0001	3
13622	-0.00038	-0.00016	-4e-05	4e-05	0.0003	-0.00026	0.00028	-0.0001	3
13623	-0.00038	-0.00016	-4e-05	4e-05	0.0003	-0.00026	0.00028	-0.0001	3
13624	-0.00038	-0.00016	-4e-05	4e-05	0.0003	-0.00026	0.00028	-0.0001	3
13625	-0.00038	-0.00016	-4e-05	4e-05	0.0003	-0.00026	0.00028	-0.0001	3
13626	-0.00038	-0.00016	-4e-05	4e-05	0.0003	-0.00026	0.00028	-0.0001	3
13627	-0.00038	-0.00016	-4e-05	4e-05	0.0003	-0.00026	0.00028	-0.0001	3
13628	-0.00047	4e-05	-2e-05	-6e-05	-0.00012	0.00049	0.00073	4e-05	3
13629	-0.00047	4e-05	-2e-05	-6e-05	-0.00012	0.00049	0.00073	4e-05	3
13630	-0.00047	4e-05	-2e-05	-6e-05	-0.00012	0.00049	0.00073	4e-05	3
13631	-0.00047	4e-05	-2e-05	-6e-05	-0.00012	0.00049	0.00073	4e-05	3
13632	-0.00047	4e-05	-2e-05	-6e-05	-0.00012	0.00049	0.00073	4e-05	3
13633	-0.00047	4e-05	-2e-05	-6e-05	-0.00012	0.00049	0.00073	4e-05	3
13634	0.00026	3e-05	-9e-05	-0.00025	-0.00051	-0.00052	-0.00013	7e-05	3
13635	0.00026	3e-05	-9e-05	-0.00025	-0.00051	-0.00052	-0.00013	7e-05	3
13636	0.00026	3e-05	-9e-05	-0.00025	-0.00051	-0.00052	-0.00013	7e-05	3
13639	0.00026	3e-05	-9e-05	-0.00025	-0.00051	-0.00052	-0.00013	7e-05	3
13640	0.00026	3e-05	-9e-05	-0.00025	-0.00051	-0.00052	-0.00013	7e-05	3
13641	0.00026	3e-05	-9e-05	-0.00025	-0.00051	-0.00052	-0.00013	7e-05	3
13642	0.00026	3e-05	-9e-05	-0.00025	-0.00051	-0.00052	-0.00013	7e-05	3
13643	0.00073	0.00032	0.00018	0.00018	0.00015	8e-05	1e-05	0.00022	3
13644	0.00013	-8e-05	-7e-05	-0.00015	-0.00033	0.00016	-0.00016	0.00045	3
13645	0.00013	-8e-05	-7e-05	-0.00015	-0.00033	0.00016	-0.00016	0.00045	3
13646	0.00013	-8e-05	-7e-05	-0.00015	-0.00033	0.00016	-0.00016	0.00045	3
13647	0.00013	-8e-05	-7e-05	-0.00015	-0.00033	0.00016	-0.00016	0.00045	3
13648	0.00013	-8e-05	-7e-05	-0.00015	-0.00033	0.00016	-0.00016	0.00045	3
13649	0.00013	-8e-05	-7e-05	-0.00015	-0.00033	0.00016	-0.00016	0.00045	3
13650	0.00013	-8e-05	-7e-05	-0.00015	-0.00033	0.00016	-0.00016	0.00045	3
13651	0.00013	-8e-05	-7e-05	-0.00015	-0.00033	0.00016	-0.00016	0.00045	3
13652	0.00013	-8e-05	-7e-05	-0.00015	-0.00033	0.00016	-0.00016	0.00045	3
13653	0.00013	-8e-05	-7e-05	-0.00015	-0.00033	0.00016	-0.00016	0.00045	3
13654	0.00013	-8e-05	-7e-05	-0.00015	-0.00033	0.00016	-0.00016	0.00045	3
13655	0.00013	-8e-05	-7e-05	-0.00015	-0.00033	0.00016	-0.00016	0.00045	3
13656	0.00013	-8e-05	-7e-05	-0.00015	-0.00033	0.00016	-0.00016	0.00045	3
13657	0.00013	-8e-05	-7e-05	-0.00015	-0.00033	0.00016	-0.00016	0.00045	3
13658	0.00013	-8e-05	-7e-05	-0.00015	-0.00033	0.00016	-0.00016	0.00045	3
13659	0.00013	-8e-05	-7e-05	-0.00015	-0.00033	0.00016	-0.00016	0.00045	3
13660	0.00013	-8e-05	-7e-05	-0.00015	-0.00033	0.00016	-0.00016	0.00045	3
13661	0.00013	-8e-05	-7e-05	-0.00015	-0.00033	0.00016	-0.00016	0.00045	3
13662	0.00013	-8e-05	-7e-05	-0.00015	-0.00033	0.00016	-0.00016	0.00045	3
13663	0.00013	-8e-05	-7e-05	-0.00015	-0.00033	0.00016	-0.00016	0.00045	3
13664	0.00013	-8e-05	-7e-05	-0.00015	-0.00033	0.00016	-0.00016	0.00045	3
13665	-0.00015	-0.00012	-5e-05	-3e-05	-0.00043	-0.00046	0.00027	-5e-05	3
13666	-0.00015	-0.00012	-5e-05	-3e-05	-0.00043	-0.00046	0.00027	-5e-05	3
13667	-1e-05	-0.00011	4e-05	9e-05	0.00023	0.00033	0.00016	8e-05	3
13668	-1e-05	-0.00011	4e-05	9e-05	0.00023	0.00033	0.00016	8e-05	3
13669	-1e-05	-0.00011	4e-05	9e-05	0.00023	0.00033	0.00016	8e-05	3
13670	-1e-05	-0.00011	4e-05	9e-05	0.00023	0.00033	0.00016	8e-05	3
13671	-1e-05	-0.00011	4e-05	9e-05	0.00023	0.00033	0.00016	8e-05	3
13672	-1e-05	-0.00011	4e-05	9e-05	0.00023	0.00033	0.00016	8e-05	3
13673	-1e-05	-0.00011	4e-05	9e-05	0.00023	0.00033	0.00016	8e-05	3
13674	-1e-05	-0.00011	4e-05	9e-05	0.00023	0.00033	0.00016	8e-05	3
13675	-1e-05	-0.00011	4e-05	9e-05	0.00023	0.00033	0.00016	8e-05	3
13676	-1e-05	-0.00011	4e-05	9e-05	0.00023	0.00033	0.00016	8e-05	3
13677	-1e-05	-0.00011	4e-05	9e-05	0.00023	0.00033	0.00016	8e-05	3
13678	-1e-05	-0.00011	4e-05	9e-05	0.00023	0.00033	0.00016	8e-05	3
13679	-1e-05	-0.00011	4e-05	9e-05	0.00023	0.00033	0.00016	8e-05	3
13680	-1e-05	-0.00011	4e-05	9e-05	0.00023	0.00033	0.00016	8e-05	3
13681	-1e-05	-0.00011	4e-05	9e-05	0.00023	0.00033	0.00016	8e-05	3
13682	-1e-05	-0.00011	4e-05	9e-05	0.00023	0.00033	0.00016	8e-05	3
13683	-1e-05	-0.00011	4e-05	9e-05	0.00023	0.00033	0.00016	8e-05	3
13684	-1e-05	-0.00011	4e-05	9e-05	0.00023	0.00033	0.00016	8e-05	3
13685	-1e-05	-0.00011	4e-05	9e-05	0.00023	0.00033	0.00016	8e-05	3
13686	-1e-05	-0.00011	4e-05	9e-05	0.00023	0.00033	0.00016	8e-05	3
13689	0.00081	0.00022	8e-05	0.00019	0.00026	0.00024	4e-05	0.00012	3
13690	-0.00058	-5e-05	-2e-05	-3e-05	0.00024	-0.0003	-0.00047	-0.00088	3
13691	-0.00058	-5e-05	-2e-05	-3e-05	0.00024	-0.0003	-0.00047	-0.00088	3
13692	-0.00058	-5e-05	-2e-05	-3e-05	0.00024	-0.0003	-0.00047	-0.00088	3
13693	-0.00058	-5e-05	-2e-05	-3e-05	0.00024	-0.0003	-0.00047	-0.00088	3
13694	-0.00058	-5e-05	-2e-05	-3e-05	0.00024	-0.0003	-0.00047	-0.00088	3
13695	-0.00058	-5e-05	-2e-05	-3e-05	0.00024	-0.0003	-0.00047	-0.00088	3
13696	-0.00058	-5e-05	-2e-05	-3e-05	0.00024	-0.0003	-0.00047	-0.00088	3
13697	-0.00058	-5e-05	-2e-05	-3e-05	0.00024	-0.0003	-0.00047	-0.00088	3
13698	-0.00058	-5e-05	-2e-05	-3e-05	0.00024	-0.0003	-0.00047	-0.00088	3
13699	-0.00058	-5e-05	-2e-05	-3e-05	0.00024	-0.0003	-0.00047	-0.00088	3
13700	-0.00058	-5e-05	-2e-05	-3e-05	0.00024	-0.0003	-0.00047	-0.00088	3
13701	-0.00058	-5e-05	-2e-05	-3e-05	0.00024	-0.0003	-0.00047	-0.00088	3
13702	-0.00058	-5e-05	-2e-05	-3e-05	0.00024	-0.0003	-0.00047	-0.00088	3
13703	4e-05	-3e-05	-5e-05	-0.0001	-0.00043	-0.00032	3e-05	0	3
13704	-0.00039	4e-05	0.0001	0.0001	0.00025	8e-05	0.00029	0.00016	3
13705	0.00064	0.00013	6e-05	0.00012	2e-05	3e-05	0.00015	0.00021	3
13706	0.00064	0.00013	6e-05	0.00012	2e-05	3e-05	0.00015	0.00021	3
13707	0.00064	0.00013	6e-05	0.00012	2e-05	3e-05	0.00015	0.00021	3
13708	0.00064	0.00013	6e-05	0.00012	2e-05	3e-05	0.00015	0.00021	3
13709	0.00064	0.00013	6e-05	0.00012	2e-05	3e-05	0.00015	0.00021	3
13710	0.00064	0.00013	6e-05	0.00012	2e-05	3e-05	0.00015	0.00021	3
13711	0.00064	0.00013	6e-05	0.00012	2e-05	3e-05	0.00015	0.00021	3
13712	0.00064	0.00013	6e-05	0.00012	2e-05	3e-05	0.00015	0.00021	3
13713	0.00064	0.00013	6e-05	0.00012	2e-05	3e-05	0.00015	0.00021	3
13714	0.00064	0.00013	6e-05	0.00012	2e-05	3e-05	0.00015	0.00021	3
13715	0.00064	0.00013	6e-05	0.00012	2e-05	3e-05	0.00015	0.00021	3
13716	0.00064	0.00013	6e-05	0.00012	2e-05	3e-05	0.00015	0.00021	3
13717	0.00064	0.00013	6e-05	0.00012	2e-05	3e-05	0.00015	0.00021	3
13718	0.00064	0.00013	6e-05	0.00012	2e-05	3e-05	0.00015	0.00021	3
13719	0.00064	0.00013	6e-05	0.00012	2e-05	3e-05	0.00015	0.00021	3
13720	0.00064	0.00013	6e-05	0.00012	2e-05	3e-05	0.00015	0.00021	3
13721	0.00064	0.00013	6e-05	0.00012	2e-05	3e-05	0.00015	0.00021	3
13722	0.00064	0.00013	6e-05	0.00012	2e-05	3e-05	0.00015	0.00021	3
13723	0.00064	0.00013	6e-05	0.00012	2e-05	3e-05	0.00015	0.00021	3
13724	0.00064	0.00013	6e-05	0.00012	2e-05	3e-05	0.00015	0.00021	3
13725	0.00015	-0.00011	-0.00015	-0.00029	-0.00047	5e-05	-0.00041	0.00024	3
13726	0.00015	-0.00011	-0.00015	-0.00029	-0.00047	5e-05	-0.00041	0.00024	3
13727	0.00016	-4e-05	-5e-05	2e-05	3e-05	0.00053	0.00039	0.00051	3
13728	0.00016	-4e-05	-5e-05	2e-05	3e-05	0.00053	0.00039	0.00051	3
13729	0.00016	-4e-05	-5e-05	2e-05	3e-05	0.00053	0.00039	0.00051	3
13730	0.00016	-4e-05	-5e-05	2e-05	3e-05	0.00053	0.00039	0.00051	3
13731	0.00016	-4e-05	-5e-05	2e-05	3e-05	0.00053	0.00039	0.00051	3
13732	0.00016	-4e-05	-5e-05	2e-05	3e-05	0.00053	0.00039	0.00051	3
13733	0.00016	-4e-05	-5e-05	2e-05	3e-05	0.00053	0.00039	0.00051	3
13734	0.00016	-4e-05	-5e-05	2e-05	3e-05	0.00053	0.00039	0.00051	3
13735	0.00016	-4e-05	-5e-05	2e-05	3e-05	0.00053	0.00039	0.00051	3
13736	0.00016	-4e-05	-5e-05	2e-05	3e-05	0.00053	0.00039	0.00051	3
13739	0.00016	-4e-05	-5e-05	2e-05	3e-05	0.00053	0.00039	0.00051	3
13740	0.00016	-4e-05	-5e-05	2e-05	3e-05	0.00053	0.00039	0.00051	3
13741	0.00016	-4e-05	-5e-05	2e-05	3e-05	0.00053	0.00039	0.00051	3
13742	0.00016	-4e-05	-5e-05	2e-05	3e-05	0.00053	0.00039	0.00051	3
13743	0.00016	-4e-05	-5e-05	2e-05	3e-05	0.00053	0.00039	0.00051	3
13744	0.00016	-4e-05	-5e-05	2e-05	3e-05	0.00053	0.00039	0.00051	3
13745	0.00016	-4e-05	-5e-05	2e-05	3e-05	0.00053	0.00039	0.00051	3
13746	0.00016	-4e-05	-5e-05	2e-05	3e-05	0.00053	0.00039	0.00051	3
13747	0.00016	-4e-05	-5e-05	2e-05	3e-05	0.00053	0.00039	0.00051	3
13748	0.0006	0.00015	2e-05	5e-05	0.00024	-0.0001	-0.00041	-0.00016	3
13749	-0.00015	-7e-05	-4e-05	-0.00016	-0.00032	0.00056	0.00012	-0.00017	3
13750	-0.00015	-7e-05	-4e-05	-0.00016	-0.00032	0.00056	0.00012	-0.00017	3
13751	-0.00015	-7e-05	-4e-05	-0.00016	-0.00032	0.00056	0.00012	-0.00017	3
13752	-0.00015	-7e-05	-4e-05	-0.00016	-0.00032	0.00056	0.00012	-0.00017	3
13753	-0.00015	-7e-05	-4e-05	-0.00016	-0.00032	0.00056	0.00012	-0.00017	3
13754	-0.00015	-7e-05	-4e-05	-0.00016	-0.00032	0.00056	0.00012	-0.00017	3
13755	-0.00015	-7e-05	-4e-05	-0.00016	-0.00032	0.00056	0.00012	-0.00017	3
13756	-0.00015	-7e-05	-4e-05	-0.00016	-0.00032	0.00056	0.00012	-0.00017	3
13757	-0.00015	-7e-05	-4e-05	-0.00016	-0.00032	0.00056	0.00012	-0.00017	3
13758	-0.00015	-7e-05	-4e-05	-0.00016	-0.00032	0.00056	0.00012	-0.00017	3
13759	-0.00015	-7e-05	-4e-05	-0.00016	-0.00032	0.00056	0.00012	-0.00017	3
13760	-0.00015	-7e-05	-4e-05	-0.00016	-0.00032	0.00056	0.00012	-0.00017	3
13761	-0.00015	-7e-05	-4e-05	-0.00016	-0.00032	0.00056	0.00012	-0.00017	3
13762	-0.0001	-0.00019	-4e-05	-3e-05	9e-05	-1e-05	-0.00062	-0.00047	3
13763	-0.0001	-0.00019	-4e-05	-3e-05	9e-05	-1e-05	-0.00062	-0.00047	3
13764	-0.0001	-0.00019	-4e-05	-3e-05	9e-05	-1e-05	-0.00062	-0.00047	3
13765	-0.0001	-0.00019	-4e-05	-3e-05	9e-05	-1e-05	-0.00062	-0.00047	3
13766	-0.0001	-0.00019	-4e-05	-3e-05	9e-05	-1e-05	-0.00062	-0.00047	3
13767	-0.0001	-0.00019	-4e-05	-3e-05	9e-05	-1e-05	-0.00062	-0.00047	3
13768	-0.0001	-0.00019	-4e-05	-3e-05	9e-05	-1e-05	-0.00062	-0.00047	3
13769	-0.00023	-8e-05	-8e-05	5e-05	-0.00018	-0.00076	-0.0003	0.00047	3
13770	-0.00023	-8e-05	-8e-05	5e-05	-0.00018	-0.00076	-0.0003	0.00047	3
13771	-0.00023	-8e-05	-8e-05	5e-05	-0.00018	-0.00076	-0.0003	0.00047	3
13772	-0.00023	-8e-05	-8e-05	5e-05	-0.00018	-0.00076	-0.0003	0.00047	3
13773	-0.00023	-8e-05	-8e-05	5e-05	-0.00018	-0.00076	-0.0003	0.00047	3
13774	-0.00023	-8e-05	-8e-05	5e-05	-0.00018	-0.00076	-0.0003	0.00047	3
13775	-0.00023	-8e-05	-8e-05	5e-05	-0.00018	-0.00076	-0.0003	0.00047	3
13776	-0.00023	-8e-05	-8e-05	5e-05	-0.00018	-0.00076	-0.0003	0.00047	3
13777	-0.00023	-8e-05	-8e-05	5e-05	-0.00018	-0.00076	-0.0003	0.00047	3
13778	-0.00023	-8e-05	-8e-05	5e-05	-0.00018	-0.00076	-0.0003	0.00047	3
13779	-0.00023	-8e-05	-8e-05	5e-05	-0.00018	-0.00076	-0.0003	0.00047	3
13780	-0.00023	-8e-05	-8e-05	5e-05	-0.00018	-0.00076	-0.0003	0.00047	3
13781	-0.00023	-8e-05	-8e-05	5e-05	-0.00018	-0.00076	-0.0003	0.00047	3
13782	-0.00023	-8e-05	-8e-05	5e-05	-0.00018	-0.00076	-0.0003	0.00047	3
13783	-0.00023	-8e-05	-8e-05	5e-05	-0.00018	-0.00076	-0.0003	0.00047	3
13784	-0.00023	-8e-05	-8e-05	5e-05	-0.00018	-0.00076	-0.0003	0.00047	3
13785	-0.00031	-0.00013	6e-05	-2e-05	-0.00013	-0.00011	6e-05	0.0005	3
13787	0.00027	-5e-05	0	7e-05	3e-05	-0.00013	6e-05	7e-05	3
13789	0.00027	-5e-05	0	7e-05	3e-05	-0.00013	6e-05	7e-05	3
13790	0.00027	-5e-05	0	7e-05	3e-05	-0.00013	6e-05	7e-05	3
13791	0.00027	-5e-05	0	7e-05	3e-05	-0.00013	6e-05	7e-05	3
13792	0.00027	-5e-05	0	7e-05	3e-05	-0.00013	6e-05	7e-05	3
13793	0.00027	-5e-05	0	7e-05	3e-05	-0.00013	6e-05	7e-05	3
13794	0.00027	-5e-05	0	7e-05	3e-05	-0.00013	6e-05	7e-05	3
13795	0.00027	-5e-05	0	7e-05	3e-05	-0.00013	6e-05	7e-05	3
13796	0.00027	-5e-05	0	7e-05	3e-05	-0.00013	6e-05	7e-05	3
13797	0.00027	-5e-05	0	7e-05	3e-05	-0.00013	6e-05	7e-05	3
41943	0.00039	0.00047	1e-05	-0.00012	-0.00036	-0.00037	-9e-05	-0.00018	3
41944	-0.00074	-0.00034	-1e-05	4e-05	4e-05	-0.00044	-0.00012	-0.00032	3
41945	-0.00074	-0.00034	-1e-05	4e-05	4e-05	-0.00044	-0.00012	-0.00032	3
41946	-0.00074	-0.00034	-1e-05	4e-05	4e-05	-0.00044	-0.00012	-0.00032	3
41947	-0.00074	-0.00034	-1e-05	4e-05	4e-05	-0.00044	-0.00012	-0.00032	3
41948	-0.00074	-0.00034	-1e-05	4e-05	4e-05	-0.00044	-0.00012	-0.00032	3
41949	-0.00074	-0.00034	-1e-05	4e-05	4e-05	-0.00044	-0.00012	-0.00032	3
41950	-0.00074	-0.00034	-1e-05	4e-05	4e-05	-0.00044	-0.00012	-0.00032	3
41951	-0.00074	-0.00034	-1e-05	4e-05	4e-05	-0.00044	-0.00012	-0.00032	3
41952	-0.00074	-0.00034	-1e-05	4e-05	4e-05	-0.00044	-0.00012	-0.00032	3
41954	-0.00074	-0.00034	-1e-05	4e-05	4e-05	-0.00044	-0.00012	-0.00032	3
41955	0.00023	-0.0001	-2e-05	0.0006	0.00095	0.00083	0.00024	-1e-05	3
41956	0.00023	-0.0001	-2e-05	0.0006	0.00095	0.00083	0.00024	-1e-05	3
41957	0.00023	-0.0001	-2e-05	0.0006	0.00095	0.00083	0.00024	-1e-05	3
41958	0.00023	-0.0001	-2e-05	0.0006	0.00095	0.00083	0.00024	-1e-05	3
41959	0.00023	-0.0001	-2e-05	0.0006	0.00095	0.00083	0.00024	-1e-05	3
41960	0.00023	-0.0001	-2e-05	0.0006	0.00095	0.00083	0.00024	-1e-05	3
41961	0.00023	-0.0001	-2e-05	0.0006	0.00095	0.00083	0.00024	-1e-05	3
41962	0.00023	-0.0001	-2e-05	0.0006	0.00095	0.00083	0.00024	-1e-05	3
41963	0.00023	-0.0001	-2e-05	0.0006	0.00095	0.00083	0.00024	-1e-05	3
41964	-0.00012	0.00038	0.00031	0.00019	0.00064	0.00036	-6e-05	0.0001	3
41965	-0.00012	0.00038	0.00031	0.00019	0.00064	0.00036	-6e-05	0.0001	3
41966	-0.00012	0.00038	0.00031	0.00019	0.00064	0.00036	-6e-05	0.0001	3
41967	-0.00012	0.00038	0.00031	0.00019	0.00064	0.00036	-6e-05	0.0001	3
41968	-0.00012	0.00038	0.00031	0.00019	0.00064	0.00036	-6e-05	0.0001	3
41969	-0.00012	0.00038	0.00031	0.00019	0.00064	0.00036	-6e-05	0.0001	3
41970	-0.00012	0.00038	0.00031	0.00019	0.00064	0.00036	-6e-05	0.0001	3
41971	-0.00012	0.00038	0.00031	0.00019	0.00064	0.00036	-6e-05	0.0001	3
41973	-0.00012	0.00038	0.00031	0.00019	0.00064	0.00036	-6e-05	0.0001	3
41974	-0.00012	0.00038	0.00031	0.00019	0.00064	0.00036	-6e-05	0.0001	3
41975	-0.00012	0.00038	0.00031	0.00019	0.00064	0.00036	-6e-05	0.0001	3
41976	-0.00012	0.00038	0.00031	0.00019	0.00064	0.00036	-6e-05	0.0001	3
41977	-0.00012	0.00038	0.00031	0.00019	0.00064	0.00036	-6e-05	0.0001	3
41978	-0.00012	0.00038	0.00031	0.00019	0.00064	0.00036	-6e-05	0.0001	3
41979	-0.00079	-0.00031	-0.00069	-0.00066	-0.00059	8e-05	-0.00016	-0.00053	3
41980	0.00069	0.00043	0.00011	-7e-05	-0.00041	-0.00021	-0.00015	0.00027	3
41981	0.00069	0.00043	0.00011	-7e-05	-0.00041	-0.00021	-0.00015	0.00027	3
41982	0.00069	0.00043	0.00011	-7e-05	-0.00041	-0.00021	-0.00015	0.00027	3
41983	0.00069	0.00043	0.00011	-7e-05	-0.00041	-0.00021	-0.00015	0.00027	3
41984	0.00069	0.00043	0.00011	-7e-05	-0.00041	-0.00021	-0.00015	0.00027	3
41985	0.00069	0.00043	0.00011	-7e-05	-0.00041	-0.00021	-0.00015	0.00027	3
41986	0.00069	0.00043	0.00011	-7e-05	-0.00041	-0.00021	-0.00015	0.00027	3
41989	0.00069	0.00043	0.00011	-7e-05	-0.00041	-0.00021	-0.00015	0.00027	3
41990	0.00069	0.00043	0.00011	-7e-05	-0.00041	-0.00021	-0.00015	0.00027	3
41991	0.00069	0.00043	0.00011	-7e-05	-0.00041	-0.00021	-0.00015	0.00027	3
41992	0.00069	0.00043	0.00011	-7e-05	-0.00041	-0.00021	-0.00015	0.00027	3
41993	0.00069	0.00043	0.00011	-7e-05	-0.00041	-0.00021	-0.00015	0.00027	3
41994	0.00069	0.00043	0.00011	-7e-05	-0.00041	-0.00021	-0.00015	0.00027	3
41995	0.00069	0.00043	0.00011	-7e-05	-0.00041	-0.00021	-0.00015	0.00027	3
41996	0.00069	0.00043	0.00011	-7e-05	-0.00041	-0.00021	-0.00015	0.00027	3
41997	0.00069	0.00043	0.00011	-7e-05	-0.00041	-0.00021	-0.00015	0.00027	3
41998	0.00069	0.00043	0.00011	-7e-05	-0.00041	-0.00021	-0.00015	0.00027	3
41999	0.00069	0.00043	0.00011	-7e-05	-0.00041	-0.00021	-0.00015	0.00027	3
42000	0.00069	0.00043	0.00011	-7e-05	-0.00041	-0.00021	-0.00015	0.00027	3
42001	0.00043	7e-05	0.00018	0.00018	7e-05	-9e-05	0.00037	0.0002	3
42002	0.00043	7e-05	0.00018	0.00018	7e-05	-9e-05	0.00037	0.0002	3
42003	-0.00023	-0.00041	-0.00052	-0.00029	9e-05	0.00023	0.00022	-4e-05	3
42004	-0.00023	-0.00041	-0.00052	-0.00029	9e-05	0.00023	0.00022	-4e-05	3
42005	-0.00023	-0.00041	-0.00052	-0.00029	9e-05	0.00023	0.00022	-4e-05	3
42006	-0.00023	-0.00041	-0.00052	-0.00029	9e-05	0.00023	0.00022	-4e-05	3
42007	-0.00023	-0.00041	-0.00052	-0.00029	9e-05	0.00023	0.00022	-4e-05	3
42008	-0.00023	-0.00041	-0.00052	-0.00029	9e-05	0.00023	0.00022	-4e-05	3
42009	-0.00023	-0.00041	-0.00052	-0.00029	9e-05	0.00023	0.00022	-4e-05	3
42010	-0.00023	-0.00041	-0.00052	-0.00029	9e-05	0.00023	0.00022	-4e-05	3
42011	-0.00023	-0.00041	-0.00052	-0.00029	9e-05	0.00023	0.00022	-4e-05	3
42012	-0.00023	-0.00041	-0.00052	-0.00029	9e-05	0.00023	0.00022	-4e-05	3
42013	-0.00023	-0.00041	-0.00052	-0.00029	9e-05	0.00023	0.00022	-4e-05	3
42014	-0.00023	-0.00041	-0.00052	-0.00029	9e-05	0.00023	0.00022	-4e-05	3
42015	-0.00023	-0.00041	-0.00052	-0.00029	9e-05	0.00023	0.00022	-4e-05	3
42016	-0.00023	-0.00041	-0.00052	-0.00029	9e-05	0.00023	0.00022	-4e-05	3
42017	-0.00023	-0.00041	-0.00052	-0.00029	9e-05	0.00023	0.00022	-4e-05	3
42018	-0.00023	-0.00041	-0.00052	-0.00029	9e-05	0.00023	0.00022	-4e-05	3
42019	-0.00023	-0.00041	-0.00052	-0.00029	9e-05	0.00023	0.00022	-4e-05	3
42020	-0.00023	-0.00041	-0.00052	-0.00029	9e-05	0.00023	0.00022	-4e-05	3
42021	-0.00023	-0.00041	-0.00052	-0.00029	9e-05	0.00023	0.00022	-4e-05	3
42022	-0.00023	-0.00041	-0.00052	-0.00029	9e-05	0.00023	0.00022	-4e-05	3
42023	-0.00023	-0.00041	-0.00052	-0.00029	9e-05	0.00023	0.00022	-4e-05	3
42024	-0.00023	-0.00041	-0.00052	-0.00029	9e-05	0.00023	0.00022	-4e-05	3
42025	-2e-05	8e-05	0.00029	0.00055	0.00072	0.00037	1e-05	-0.0002	3
42026	-2e-05	8e-05	0.00029	0.00055	0.00072	0.00037	1e-05	-0.0002	3
42027	0.0004	0.00027	0.0002	7e-05	0.0001	4e-05	0.00011	0.00048	3
42028	0.0004	0.00027	0.0002	7e-05	0.0001	4e-05	0.00011	0.00048	3
42029	0.0004	0.00027	0.0002	7e-05	0.0001	4e-05	0.00011	0.00048	3
42030	0.0004	0.00027	0.0002	7e-05	0.0001	4e-05	0.00011	0.00048	3
42031	0.0004	0.00027	0.0002	7e-05	0.0001	4e-05	0.00011	0.00048	3
42032	0.0004	0.00027	0.0002	7e-05	0.0001	4e-05	0.00011	0.00048	3
42033	0.0004	0.00027	0.0002	7e-05	0.0001	4e-05	0.00011	0.00048	3
42034	0.0004	0.00027	0.0002	7e-05	0.0001	4e-05	0.00011	0.00048	3
42035	0.0004	0.00027	0.0002	7e-05	0.0001	4e-05	0.00011	0.00048	3
42037	0.0004	0.00027	0.0002	7e-05	0.0001	4e-05	0.00011	0.00048	3
42040	6e-05	0.00011	0.00019	0.00024	0.00059	0.00043	-0.00019	0.00014	3
42041	6e-05	0.00011	0.00019	0.00024	0.00059	0.00043	-0.00019	0.00014	3
42042	6e-05	0.00011	0.00019	0.00024	0.00059	0.00043	-0.00019	0.00014	3
42043	6e-05	0.00011	0.00019	0.00024	0.00059	0.00043	-0.00019	0.00014	3
