12247	-4e-05	-8e-05	-9e-05	-4e-05	0	1e-05	-2e-05	-3e-05	3
12248	-4e-05	-8e-05	-9e-05	-4e-05	0	1e-05	-2e-05	-3e-05	3
12249	1e-05	-7e-05	-3e-05	-2e-05	-3e-05	-5e-05	3e-05	3e-05	3
12250	1e-05	-7e-05	-3e-05	-2e-05	-3e-05	-5e-05	3e-05	3e-05	3
12251	-5e-05	0	4e-05	2e-05	1e-05	-1e-05	-5e-05	-4e-05	3
12252	-5e-05	0	4e-05	2e-05	1e-05	-1e-05	-5e-05	-4e-05	3
12253	-5e-05	0	4e-05	2e-05	1e-05	-1e-05	-5e-05	-4e-05	3
12254	-5e-05	0	4e-05	2e-05	1e-05	-1e-05	-5e-05	-4e-05	3
12255	-5e-05	0	4e-05	2e-05	1e-05	-1e-05	-5e-05	-4e-05	3
12256	-5e-05	0	4e-05	2e-05	1e-05	-1e-05	-5e-05	-4e-05	3
12257	-5e-05	0	4e-05	2e-05	1e-05	-1e-05	-5e-05	-4e-05	3
12258	-5e-05	0	4e-05	2e-05	1e-05	-1e-05	-5e-05	-4e-05	3
12259	-5e-05	0	4e-05	2e-05	1e-05	-1e-05	-5e-05	-4e-05	3
12260	-5e-05	0	4e-05	2e-05	1e-05	-1e-05	-5e-05	-4e-05	3
12261	-5e-05	0	4e-05	2e-05	1e-05	-1e-05	-5e-05	-4e-05	3
12262	-5e-05	0	4e-05	2e-05	1e-05	-1e-05	-5e-05	-4e-05	3
12263	-5e-05	0	4e-05	2e-05	1e-05	-1e-05	-5e-05	-4e-05	3
12264	-5e-05	0	4e-05	2e-05	1e-05	-1e-05	-5e-05	-4e-05	3
12265	-5e-05	0	4e-05	2e-05	1e-05	-1e-05	-5e-05	-4e-05	3
12266	-5e-05	0	4e-05	2e-05	1e-05	-1e-05	-5e-05	-4e-05	3
12267	-5e-05	0	4e-05	2e-05	1e-05	-1e-05	-5e-05	-4e-05	3
12268	-5e-05	0	4e-05	2e-05	1e-05	-1e-05	-5e-05	-4e-05	3
12269	-5e-05	0	4e-05	2e-05	1e-05	-1e-05	-5e-05	-4e-05	3
12270	-5e-05	0	4e-05	2e-05	1e-05	-1e-05	-5e-05	-4e-05	3
12271	-5e-05	0	4e-05	2e-05	1e-05	-1e-05	-5e-05	-4e-05	3
12272	-8e-05	-0.00014	-4e-05	-2e-05	-1e-05	-1e-05	-2e-05	-4e-05	3
12273	-8e-05	-0.00014	-4e-05	-2e-05	-1e-05	-1e-05	-2e-05	-4e-05	3
12274	-1e-05	-0.00016	-2e-05	1e-05	-1e-05	-2e-05	0	0	3
12275	-1e-05	-0.00016	-2e-05	1e-05	-1e-05	-2e-05	0	0	3
12276	-1e-05	-0.00016	-2e-05	1e-05	-1e-05	-2e-05	0	0	3
12277	-1e-05	-0.00016	-2e-05	1e-05	-1e-05	-2e-05	0	0	3
12278	-1e-05	-0.00016	-2e-05	1e-05	-1e-05	-2e-05	0	0	3
12279	-1e-05	-0.00016	-2e-05	1e-05	-1e-05	-2e-05	0	0	3
12280	-1e-05	-0.00016	-2e-05	1e-05	-1e-05	-2e-05	0	0	3
12281	-1e-05	-0.00016	-2e-05	1e-05	-1e-05	-2e-05	0	0	3
12282	-1e-05	-0.00016	-2e-05	1e-05	-1e-05	-2e-05	0	0	3
12283	-1e-05	-0.00016	-2e-05	1e-05	-1e-05	-2e-05	0	0	3
12284	-1e-05	-0.00016	-2e-05	1e-05	-1e-05	-2e-05	0	0	3
12285	-1e-05	-0.00016	-2e-05	1e-05	-1e-05	-2e-05	0	0	3
12286	0.00011	-8e-05	-3e-05	-3e-05	1e-05	-1e-05	1e-05	-6e-05	3
12288	0.00011	-8e-05	-3e-05	-3e-05	1e-05	-1e-05	1e-05	-6e-05	3
12289	0.00011	-8e-05	-3e-05	-3e-05	1e-05	-1e-05	1e-05	-6e-05	3
12290	0.00011	-8e-05	-3e-05	-3e-05	1e-05	-1e-05	1e-05	-6e-05	3
12291	0.00011	-8e-05	-3e-05	-3e-05	1e-05	-1e-05	1e-05	-6e-05	3
12292	0.00011	-8e-05	-3e-05	-3e-05	1e-05	-1e-05	1e-05	-6e-05	3
12293	-0.00011	5e-05	5e-05	-1e-05	-2e-05	-1e-05	0	-7e-05	3
12294	-0.00011	5e-05	5e-05	-1e-05	-2e-05	-1e-05	0	-7e-05	3
12295	-0.00011	5e-05	5e-05	-1e-05	-2e-05	-1e-05	0	-7e-05	3
12296	-0.00011	5e-05	5e-05	-1e-05	-2e-05	-1e-05	0	-7e-05	3
12297	-0.00011	5e-05	5e-05	-1e-05	-2e-05	-1e-05	0	-7e-05	3
12298	-0.00011	5e-05	5e-05	-1e-05	-2e-05	-1e-05	0	-7e-05	3
12299	-0.00011	5e-05	5e-05	-1e-05	-2e-05	-1e-05	0	-7e-05	3
12300	-0.00011	5e-05	5e-05	-1e-05	-2e-05	-1e-05	0	-7e-05	3
12301	-0.00011	5e-05	5e-05	-1e-05	-2e-05	-1e-05	0	-7e-05	3
12302	-0.00011	5e-05	5e-05	-1e-05	-2e-05	-1e-05	0	-7e-05	3
12303	-0.00011	5e-05	5e-05	-1e-05	-2e-05	-1e-05	0	-7e-05	3
12304	-0.00011	5e-05	5e-05	-1e-05	-2e-05	-1e-05	0	-7e-05	3
12305	-0.00011	5e-05	5e-05	-1e-05	-2e-05	-1e-05	0	-7e-05	3
12306	-0.00011	5e-05	5e-05	-1e-05	-2e-05	-1e-05	0	-7e-05	3
12307	-0.00011	5e-05	5e-05	-1e-05	-2e-05	-1e-05	0	-7e-05	3
12308	-0.00011	5e-05	5e-05	-1e-05	-2e-05	-1e-05	0	-7e-05	3
12309	1e-05	0	-6e-05	-1e-05	-1e-05	-1e-05	-2e-05	-4e-05	3
12310	1e-05	0	-6e-05	-1e-05	-1e-05	-1e-05	-2e-05	-4e-05	3
12311	5e-05	4e-05	2e-05	-3e-05	-1e-05	0	-2e-05	-5e-05	3
12312	5e-05	4e-05	2e-05	-3e-05	-1e-05	0	-2e-05	-5e-05	3
12313	5e-05	4e-05	2e-05	-3e-05	-1e-05	0	-2e-05	-5e-05	3
12314	5e-05	4e-05	2e-05	-3e-05	-1e-05	0	-2e-05	-5e-05	3
12315	5e-05	4e-05	2e-05	-3e-05	-1e-05	0	-2e-05	-5e-05	3
12316	5e-05	4e-05	2e-05	-3e-05	-1e-05	0	-2e-05	-5e-05	3
12317	5e-05	4e-05	2e-05	-3e-05	-1e-05	0	-2e-05	-5e-05	3
12318	5e-05	4e-05	2e-05	-3e-05	-1e-05	0	-2e-05	-5e-05	3
12319	5e-05	4e-05	2e-05	-3e-05	-1e-05	0	-2e-05	-5e-05	3
12320	5e-05	4e-05	2e-05	-3e-05	-1e-05	0	-2e-05	-5e-05	3
12321	5e-05	4e-05	2e-05	-3e-05	-1e-05	0	-2e-05	-5e-05	3
12322	5e-05	4e-05	2e-05	-3e-05	-1e-05	0	-2e-05	-5e-05	3
12323	5e-05	4e-05	2e-05	-3e-05	-1e-05	0	-2e-05	-5e-05	3
12324	5e-05	4e-05	2e-05	-3e-05	-1e-05	0	-2e-05	-5e-05	3
12325	5e-05	4e-05	2e-05	-3e-05	-1e-05	0	-2e-05	-5e-05	3
12326	5e-05	4e-05	2e-05	-3e-05	-1e-05	0	-2e-05	-5e-05	3
12327	5e-05	4e-05	2e-05	-3e-05	-1e-05	0	-2e-05	-5e-05	3
12328	5e-05	4e-05	2e-05	-3e-05	-1e-05	0	-2e-05	-5e-05	3
12329	5e-05	4e-05	2e-05	-3e-05	-1e-05	0	-2e-05	-5e-05	3
12330	5e-05	4e-05	2e-05	-3e-05	-1e-05	0	-2e-05	-5e-05	3
12331	5e-05	4e-05	2e-05	-3e-05	-1e-05	0	-2e-05	-5e-05	3
12332	2e-05	0.0001	1e-05	0	-1e-05	-4e-05	-4e-05	-1e-05	3
12333	-3e-05	1e-05	6e-05	1e-05	-3e-05	-1e-05	1e-05	0	3
12334	-3e-05	1e-05	6e-05	1e-05	-3e-05	-1e-05	1e-05	0	3
12335	-3e-05	1e-05	6e-05	1e-05	-3e-05	-1e-05	1e-05	0	3
12336	-3e-05	1e-05	6e-05	1e-05	-3e-05	-1e-05	1e-05	0	3
12338	-3e-05	1e-05	6e-05	1e-05	-3e-05	-1e-05	1e-05	0	3
12339	-3e-05	1e-05	6e-05	1e-05	-3e-05	-1e-05	1e-05	0	3
12340	-3e-05	1e-05	6e-05	1e-05	-3e-05	-1e-05	1e-05	0	3
12341	-3e-05	1e-05	6e-05	1e-05	-3e-05	-1e-05	1e-05	0	3
12342	-3e-05	1e-05	6e-05	1e-05	-3e-05	-1e-05	1e-05	0	3
12343	-3e-05	1e-05	6e-05	1e-05	-3e-05	-1e-05	1e-05	0	3
12344	-3e-05	1e-05	6e-05	1e-05	-3e-05	-1e-05	1e-05	0	3
12345	-3e-05	1e-05	6e-05	1e-05	-3e-05	-1e-05	1e-05	0	3
12346	-2e-05	2e-05	-4e-05	-1e-05	3e-05	2e-05	0	5e-05	3
12347	3e-05	0.00029	-5e-05	0	3e-05	2e-05	2e-05	1e-05	3
12348	3e-05	0.00029	-5e-05	0	3e-05	2e-05	2e-05	1e-05	3
12349	3e-05	0.00029	-5e-05	0	3e-05	2e-05	2e-05	1e-05	3
12350	3e-05	0.00029	-5e-05	0	3e-05	2e-05	2e-05	1e-05	3
12351	3e-05	0.00029	-5e-05	0	3e-05	2e-05	2e-05	1e-05	3
12352	3e-05	0.00029	-5e-05	0	3e-05	2e-05	2e-05	1e-05	3
12353	0	1e-05	-1e-05	-2e-05	-2e-05	-3e-05	-2e-05	0	3
12354	0	1e-05	-1e-05	-2e-05	-2e-05	-3e-05	-2e-05	0	3
12355	0	1e-05	-1e-05	-2e-05	-2e-05	-3e-05	-2e-05	0	3
12356	0	1e-05	-1e-05	-2e-05	-2e-05	-3e-05	-2e-05	0	3
12357	0	1e-05	-1e-05	-2e-05	-2e-05	-3e-05	-2e-05	0	3
12358	0	1e-05	-1e-05	-2e-05	-2e-05	-3e-05	-2e-05	0	3
12359	0	1e-05	-1e-05	-2e-05	-2e-05	-3e-05	-2e-05	0	3
12360	0	1e-05	-1e-05	-2e-05	-2e-05	-3e-05	-2e-05	0	3
12361	0	1e-05	-1e-05	-2e-05	-2e-05	-3e-05	-2e-05	0	3
12362	0	1e-05	-1e-05	-2e-05	-2e-05	-3e-05	-2e-05	0	3
12363	0	1e-05	-1e-05	-2e-05	-2e-05	-3e-05	-2e-05	0	3
12364	0	1e-05	-1e-05	-2e-05	-2e-05	-3e-05	-2e-05	0	3
12365	0	1e-05	-1e-05	-2e-05	-2e-05	-3e-05	-2e-05	0	3
12366	0	1e-05	-1e-05	-2e-05	-2e-05	-3e-05	-2e-05	0	3
12367	0	1e-05	-1e-05	-2e-05	-2e-05	-3e-05	-2e-05	0	3
12368	0	1e-05	-1e-05	-2e-05	-2e-05	-3e-05	-2e-05	0	3
12369	-0.00011	-1e-05	-2e-05	0	-4e-05	1e-05	-2e-05	-4e-05	3
12370	-0.00011	-1e-05	-2e-05	0	-4e-05	1e-05	-2e-05	-4e-05	3
12371	-4e-05	2e-05	-2e-05	-2e-05	1e-05	3e-05	4e-05	5e-05	3
12372	-4e-05	2e-05	-2e-05	-2e-05	1e-05	3e-05	4e-05	5e-05	3
12373	-4e-05	2e-05	-2e-05	-2e-05	1e-05	3e-05	4e-05	5e-05	3
12374	-4e-05	2e-05	-2e-05	-2e-05	1e-05	3e-05	4e-05	5e-05	3
12375	-4e-05	2e-05	-2e-05	-2e-05	1e-05	3e-05	4e-05	5e-05	3
12376	-4e-05	2e-05	-2e-05	-2e-05	1e-05	3e-05	4e-05	5e-05	3
12377	-4e-05	2e-05	-2e-05	-2e-05	1e-05	3e-05	4e-05	5e-05	3
12378	-4e-05	2e-05	-2e-05	-2e-05	1e-05	3e-05	4e-05	5e-05	3
12379	-4e-05	2e-05	-2e-05	-2e-05	1e-05	3e-05	4e-05	5e-05	3
12380	-4e-05	2e-05	-2e-05	-2e-05	1e-05	3e-05	4e-05	5e-05	3
12381	-4e-05	2e-05	-2e-05	-2e-05	1e-05	3e-05	4e-05	5e-05	3
12382	-4e-05	2e-05	-2e-05	-2e-05	1e-05	3e-05	4e-05	5e-05	3
12383	-4e-05	2e-05	-2e-05	-2e-05	1e-05	3e-05	4e-05	5e-05	3
12384	-4e-05	2e-05	-2e-05	-2e-05	1e-05	3e-05	4e-05	5e-05	3
12385	-4e-05	2e-05	-2e-05	-2e-05	1e-05	3e-05	4e-05	5e-05	3
12386	-4e-05	2e-05	-2e-05	-2e-05	1e-05	3e-05	4e-05	5e-05	3
12388	-4e-05	2e-05	-2e-05	-2e-05	1e-05	3e-05	4e-05	5e-05	3
12389	-4e-05	2e-05	-2e-05	-2e-05	1e-05	3e-05	4e-05	5e-05	3
12390	-4e-05	2e-05	-2e-05	-2e-05	1e-05	3e-05	4e-05	5e-05	3
12391	-4e-05	2e-05	-2e-05	-2e-05	1e-05	3e-05	4e-05	5e-05	3
12392	4e-05	5e-05	3e-05	0	-1e-05	0	-1e-05	-7e-05	3
12393	4e-05	0.0002	1e-05	1e-05	-2e-05	-2e-05	0	-1e-05	3
12394	3e-05	-3e-05	-4e-05	-4e-05	-3e-05	-4e-05	-3e-05	0	3
12395	3e-05	-3e-05	-4e-05	-4e-05	-3e-05	-4e-05	-3e-05	0	3
12396	3e-05	-3e-05	-4e-05	-4e-05	-3e-05	-4e-05	-3e-05	0	3
12397	3e-05	-3e-05	-4e-05	-4e-05	-3e-05	-4e-05	-3e-05	0	3
12398	3e-05	-3e-05	-4e-05	-4e-05	-3e-05	-4e-05	-3e-05	0	3
12399	3e-05	-3e-05	-4e-05	-4e-05	-3e-05	-4e-05	-3e-05	0	3
12400	3e-05	-3e-05	-4e-05	-4e-05	-3e-05	-4e-05	-3e-05	0	3
12401	3e-05	-3e-05	-4e-05	-4e-05	-3e-05	-4e-05	-3e-05	0	3
12402	3e-05	-3e-05	-4e-05	-4e-05	-3e-05	-4e-05	-3e-05	0	3
12403	3e-05	-3e-05	-4e-05	-4e-05	-3e-05	-4e-05	-3e-05	0	3
12404	3e-05	-3e-05	-4e-05	-4e-05	-3e-05	-4e-05	-3e-05	0	3
12405	3e-05	-3e-05	-4e-05	-4e-05	-3e-05	-4e-05	-3e-05	0	3
12406	-7e-05	-0.00013	-1e-05	0	-1e-05	3e-05	3e-05	7e-05	3
12407	-7e-05	-0.00013	-1e-05	0	-1e-05	3e-05	3e-05	7e-05	3
12408	-7e-05	-0.00013	-1e-05	0	-1e-05	3e-05	3e-05	7e-05	3
12409	-7e-05	-0.00013	-1e-05	0	-1e-05	3e-05	3e-05	7e-05	3
12410	-7e-05	-0.00013	-1e-05	0	-1e-05	3e-05	3e-05	7e-05	3
12411	-7e-05	-0.00013	-1e-05	0	-1e-05	3e-05	3e-05	7e-05	3
12412	-7e-05	-0.00013	-1e-05	0	-1e-05	3e-05	3e-05	7e-05	3
12413	-7e-05	-0.00013	-1e-05	0	-1e-05	3e-05	3e-05	7e-05	3
12414	-7e-05	-0.00013	-1e-05	0	-1e-05	3e-05	3e-05	7e-05	3
12415	0.0001	0.00018	2e-05	1e-05	2e-05	1e-05	1e-05	0.00017	3
12416	0.0001	0.00018	2e-05	1e-05	2e-05	1e-05	1e-05	0.00017	3
12417	0.0001	0.00018	2e-05	1e-05	2e-05	1e-05	1e-05	0.00017	3
12418	0.0001	0.00018	2e-05	1e-05	2e-05	1e-05	1e-05	0.00017	3
12419	0.0001	0.00018	2e-05	1e-05	2e-05	1e-05	1e-05	0.00017	3
12420	0.0001	0.00018	2e-05	1e-05	2e-05	1e-05	1e-05	0.00017	3
12421	0.0001	0.00018	2e-05	1e-05	2e-05	1e-05	1e-05	0.00017	3
12422	0.0001	0.00018	2e-05	1e-05	2e-05	1e-05	1e-05	0.00017	3
12423	0.0001	0.00018	2e-05	1e-05	2e-05	1e-05	1e-05	0.00017	3
12424	0.0001	0.00018	2e-05	1e-05	2e-05	1e-05	1e-05	0.00017	3
12425	0.0001	0.00018	2e-05	1e-05	2e-05	1e-05	1e-05	0.00017	3
12426	0.0001	0.00018	2e-05	1e-05	2e-05	1e-05	1e-05	0.00017	3
12427	0.0001	0.00018	2e-05	1e-05	2e-05	1e-05	1e-05	0.00017	3
12428	0.0001	0.00018	2e-05	1e-05	2e-05	1e-05	1e-05	0.00017	3
12429	0.0001	0.00018	2e-05	1e-05	2e-05	1e-05	1e-05	0.00017	3
12430	0	3e-05	4e-05	3e-05	-2e-05	-1e-05	-4e-05	-3e-05	3
12431	-2e-05	-1e-05	0	-2e-05	-1e-05	-1e-05	0	-4e-05	3
12432	-2e-05	-1e-05	0	-2e-05	-1e-05	-1e-05	0	-4e-05	3
12433	-2e-05	-1e-05	0	-2e-05	-1e-05	-1e-05	0	-4e-05	3
12434	-2e-05	-1e-05	0	-2e-05	-1e-05	-1e-05	0	-4e-05	3
12435	-2e-05	-1e-05	0	-2e-05	-1e-05	-1e-05	0	-4e-05	3
12436	-2e-05	-1e-05	0	-2e-05	-1e-05	-1e-05	0	-4e-05	3
12438	-2e-05	-1e-05	0	-2e-05	-1e-05	-1e-05	0	-4e-05	3
12439	-2e-05	-1e-05	0	-2e-05	-1e-05	-1e-05	0	-4e-05	3
12440	-2e-05	-1e-05	0	-2e-05	-1e-05	-1e-05	0	-4e-05	3
12441	-2e-05	-1e-05	0	-2e-05	-1e-05	-1e-05	0	-4e-05	3
12442	-2e-05	-1e-05	0	-2e-05	-1e-05	-1e-05	0	-4e-05	3
12443	-2e-05	-1e-05	0	-2e-05	-1e-05	-1e-05	0	-4e-05	3
12444	-2e-05	-1e-05	0	-2e-05	-1e-05	-1e-05	0	-4e-05	3
12445	-2e-05	-1e-05	0	-2e-05	-1e-05	-1e-05	0	-4e-05	3
12446	-2e-05	-1e-05	0	-2e-05	-1e-05	-1e-05	0	-4e-05	3
12447	-2e-05	-1e-05	0	-2e-05	-1e-05	-1e-05	0	-4e-05	3
12448	-2e-05	-1e-05	0	-2e-05	-1e-05	-1e-05	0	-4e-05	3
12449	-2e-05	-1e-05	0	-2e-05	-1e-05	-1e-05	0	-4e-05	3
12450	-2e-05	-1e-05	0	-2e-05	-1e-05	-1e-05	0	-4e-05	3
12451	-2e-05	-1e-05	0	-2e-05	-1e-05	-1e-05	0	-4e-05	3
12452	-0.00013	-0.00025	4e-05	-1e-05	-2e-05	1e-05	-3e-05	-3e-05	3
12453	4e-05	4e-05	-0.0001	0	-1e-05	-2e-05	0	-1e-05	3
12454	-0.0001	-0.00011	-1e-05	1e-05	1e-05	3e-05	-3e-05	-5e-05	3
12455	-0.0001	-0.00011	-1e-05	1e-05	1e-05	3e-05	-3e-05	-5e-05	3
12456	-0.0001	-0.00011	-1e-05	1e-05	1e-05	3e-05	-3e-05	-5e-05	3
12457	-0.0001	-0.00011	-1e-05	1e-05	1e-05	3e-05	-3e-05	-5e-05	3
12458	-0.0001	-0.00011	-1e-05	1e-05	1e-05	3e-05	-3e-05	-5e-05	3
12459	-0.0001	-0.00011	-1e-05	1e-05	1e-05	3e-05	-3e-05	-5e-05	3
12460	-0.0001	-0.00011	-1e-05	1e-05	1e-05	3e-05	-3e-05	-5e-05	3
12461	-0.0001	-0.00011	-1e-05	1e-05	1e-05	3e-05	-3e-05	-5e-05	3
12462	-0.0001	-0.00011	-1e-05	1e-05	1e-05	3e-05	-3e-05	-5e-05	3
12463	-0.0001	-0.00011	-1e-05	1e-05	1e-05	3e-05	-3e-05	-5e-05	3
12464	-0.0001	-0.00011	-1e-05	1e-05	1e-05	3e-05	-3e-05	-5e-05	3
12465	-0.0001	-0.00011	-1e-05	1e-05	1e-05	3e-05	-3e-05	-5e-05	3
12466	-6e-05	-6e-05	-5e-05	-5e-05	-1e-05	-5e-05	0	-3e-05	3
12467	-6e-05	-6e-05	-5e-05	-5e-05	-1e-05	-5e-05	0	-3e-05	3
12468	-6e-05	-6e-05	-5e-05	-5e-05	-1e-05	-5e-05	0	-3e-05	3
12469	-6e-05	-6e-05	-5e-05	-5e-05	-1e-05	-5e-05	0	-3e-05	3
12470	-6e-05	-6e-05	-5e-05	-5e-05	-1e-05	-5e-05	0	-3e-05	3
12471	-6e-05	-6e-05	-5e-05	-5e-05	-1e-05	-5e-05	0	-3e-05	3
12472	-6e-05	-6e-05	-5e-05	-5e-05	-1e-05	-5e-05	0	-3e-05	3
12473	-6e-05	-6e-05	-5e-05	-5e-05	-1e-05	-5e-05	0	-3e-05	3
12474	-6e-05	-6e-05	-5e-05	-5e-05	-1e-05	-5e-05	0	-3e-05	3
12475	-9e-05	-0.00021	-8e-05	-1e-05	-1e-05	-1e-05	0	-0.00011	3
12476	-9e-05	-0.00021	-8e-05	-1e-05	-1e-05	-1e-05	0	-0.00011	3
12477	-9e-05	-0.00021	-8e-05	-1e-05	-1e-05	-1e-05	0	-0.00011	3
12478	-9e-05	-0.00021	-8e-05	-1e-05	-1e-05	-1e-05	0	-0.00011	3
12479	-9e-05	-0.00021	-8e-05	-1e-05	-1e-05	-1e-05	0	-0.00011	3
12480	-9e-05	-0.00021	-8e-05	-1e-05	-1e-05	-1e-05	0	-0.00011	3
12481	-9e-05	-0.00021	-8e-05	-1e-05	-1e-05	-1e-05	0	-0.00011	3
12482	-9e-05	-0.00021	-8e-05	-1e-05	-1e-05	-1e-05	0	-0.00011	3
12483	-9e-05	-0.00021	-8e-05	-1e-05	-1e-05	-1e-05	0	-0.00011	3
12484	-9e-05	-0.00021	-8e-05	-1e-05	-1e-05	-1e-05	0	-0.00011	3
12485	-9e-05	-0.00021	-8e-05	-1e-05	-1e-05	-1e-05	0	-0.00011	3
12486	-9e-05	-0.00021	-8e-05	-1e-05	-1e-05	-1e-05	0	-0.00011	3
12488	-9e-05	-0.00021	-8e-05	-1e-05	-1e-05	-1e-05	0	-0.00011	3
12489	-3e-05	-4e-05	-4e-05	-1e-05	-3e-05	-3e-05	-4e-05	-0.00014	3
12490	-3e-05	-4e-05	-4e-05	-1e-05	-3e-05	-3e-05	-4e-05	-0.00014	3
12491	-3e-05	5e-05	-3e-05	-3e-05	-2e-05	1e-05	3e-05	-4e-05	3
12492	-3e-05	5e-05	-3e-05	-3e-05	-2e-05	1e-05	3e-05	-4e-05	3
12493	-3e-05	5e-05	-3e-05	-3e-05	-2e-05	1e-05	3e-05	-4e-05	3
12494	-3e-05	5e-05	-3e-05	-3e-05	-2e-05	1e-05	3e-05	-4e-05	3
12495	-3e-05	5e-05	-3e-05	-3e-05	-2e-05	1e-05	3e-05	-4e-05	3
12496	-3e-05	5e-05	-3e-05	-3e-05	-2e-05	1e-05	3e-05	-4e-05	3
12497	-3e-05	5e-05	-3e-05	-3e-05	-2e-05	1e-05	3e-05	-4e-05	3
12498	-3e-05	5e-05	-3e-05	-3e-05	-2e-05	1e-05	3e-05	-4e-05	3
12499	-3e-05	5e-05	-3e-05	-3e-05	-2e-05	1e-05	3e-05	-4e-05	3
12500	-3e-05	5e-05	-3e-05	-3e-05	-2e-05	1e-05	3e-05	-4e-05	3
12501	-3e-05	5e-05	-3e-05	-3e-05	-2e-05	1e-05	3e-05	-4e-05	3
12502	-3e-05	5e-05	-3e-05	-3e-05	-2e-05	1e-05	3e-05	-4e-05	3
12503	-3e-05	5e-05	-3e-05	-3e-05	-2e-05	1e-05	3e-05	-4e-05	3
12504	-3e-05	5e-05	-3e-05	-3e-05	-2e-05	1e-05	3e-05	-4e-05	3
12505	-3e-05	5e-05	-3e-05	-3e-05	-2e-05	1e-05	3e-05	-4e-05	3
12506	-3e-05	5e-05	-3e-05	-3e-05	-2e-05	1e-05	3e-05	-4e-05	3
12507	-3e-05	5e-05	-3e-05	-3e-05	-2e-05	1e-05	3e-05	-4e-05	3
12508	-3e-05	5e-05	-3e-05	-3e-05	-2e-05	1e-05	3e-05	-4e-05	3
12509	-3e-05	5e-05	-3e-05	-3e-05	-2e-05	1e-05	3e-05	-4e-05	3
12510	-3e-05	5e-05	-3e-05	-3e-05	-2e-05	1e-05	3e-05	-4e-05	3
12511	-3e-05	5e-05	-3e-05	-3e-05	-2e-05	1e-05	3e-05	-4e-05	3
12512	-3e-05	5e-05	-3e-05	-3e-05	-2e-05	1e-05	3e-05	-4e-05	3
12513	-3e-05	5e-05	-3e-05	-3e-05	-2e-05	1e-05	3e-05	-4e-05	3
12514	-3e-05	5e-05	-3e-05	-3e-05	-2e-05	1e-05	3e-05	-4e-05	3
12515	-3e-05	5e-05	-3e-05	-3e-05	-2e-05	1e-05	3e-05	-4e-05	3
12516	-3e-05	5e-05	-3e-05	-3e-05	-2e-05	1e-05	3e-05	-4e-05	3
12517	-3e-05	5e-05	-3e-05	-3e-05	-2e-05	1e-05	3e-05	-4e-05	3
12518	-3e-05	5e-05	-3e-05	-3e-05	-2e-05	1e-05	3e-05	-4e-05	3
12519	0	4e-05	-2e-05	-2e-05	-4e-05	-2e-05	-2e-05	4e-05	3
12520	2e-05	-8e-05	-5e-05	-3e-05	2e-05	5e-05	3e-05	5e-05	3
12521	3e-05	7e-05	3e-05	2e-05	2e-05	-2e-05	-3e-05	-4e-05	3
12522	3e-05	7e-05	3e-05	2e-05	2e-05	-2e-05	-3e-05	-4e-05	3
12523	3e-05	7e-05	3e-05	2e-05	2e-05	-2e-05	-3e-05	-4e-05	3
12524	3e-05	7e-05	3e-05	2e-05	2e-05	-2e-05	-3e-05	-4e-05	3
12525	3e-05	7e-05	3e-05	2e-05	2e-05	-2e-05	-3e-05	-4e-05	3
12526	-2e-05	0	-3e-05	-1e-05	-2e-05	-2e-05	1e-05	-2e-05	3
12527	-2e-05	0	-3e-05	-1e-05	-2e-05	-2e-05	1e-05	-2e-05	3
12528	-2e-05	0	-3e-05	-1e-05	-2e-05	-2e-05	1e-05	-2e-05	3
12529	-2e-05	0	-3e-05	-1e-05	-2e-05	-2e-05	1e-05	-2e-05	3
12530	-2e-05	0	-3e-05	-1e-05	-2e-05	-2e-05	1e-05	-2e-05	3
12531	-2e-05	0	-3e-05	-1e-05	-2e-05	-2e-05	1e-05	-2e-05	3
12532	-2e-05	0	-3e-05	-1e-05	-2e-05	-2e-05	1e-05	-2e-05	3
12533	-2e-05	0	-3e-05	-1e-05	-2e-05	-2e-05	1e-05	-2e-05	3
12534	-2e-05	0	-3e-05	-1e-05	-2e-05	-2e-05	1e-05	-2e-05	3
12535	0	-5e-05	0	2e-05	1e-05	1e-05	0	3e-05	3
12536	0	-5e-05	0	2e-05	1e-05	1e-05	0	3e-05	3
12538	0	-5e-05	0	2e-05	1e-05	1e-05	0	3e-05	3
12539	0	-5e-05	0	2e-05	1e-05	1e-05	0	3e-05	3
12540	0	-5e-05	0	2e-05	1e-05	1e-05	0	3e-05	3
12541	0	-5e-05	0	2e-05	1e-05	1e-05	0	3e-05	3
12542	0	-5e-05	0	2e-05	1e-05	1e-05	0	3e-05	3
12543	0	-5e-05	0	2e-05	1e-05	1e-05	0	3e-05	3
12544	0	-5e-05	0	2e-05	1e-05	1e-05	0	3e-05	3
12545	0	-5e-05	0	2e-05	1e-05	1e-05	0	3e-05	3
12546	0	-5e-05	0	2e-05	1e-05	1e-05	0	3e-05	3
12547	0	-5e-05	0	2e-05	1e-05	1e-05	0	3e-05	3
12548	0	-5e-05	0	2e-05	1e-05	1e-05	0	3e-05	3
12549	-1e-05	0.00017	-1e-05	-5e-05	-3e-05	-3e-05	2e-05	-3e-05	3
12550	-1e-05	0.00017	-1e-05	-5e-05	-3e-05	-3e-05	2e-05	-3e-05	3
12551	-7e-05	-7e-05	7e-05	-1e-05	-2e-05	-1e-05	-1e-05	-4e-05	3
12552	-7e-05	-7e-05	7e-05	-1e-05	-2e-05	-1e-05	-1e-05	-4e-05	3
12553	-7e-05	-7e-05	7e-05	-1e-05	-2e-05	-1e-05	-1e-05	-4e-05	3
12554	-7e-05	-7e-05	7e-05	-1e-05	-2e-05	-1e-05	-1e-05	-4e-05	3
12555	-7e-05	-7e-05	7e-05	-1e-05	-2e-05	-1e-05	-1e-05	-4e-05	3
12556	-7e-05	-7e-05	7e-05	-1e-05	-2e-05	-1e-05	-1e-05	-4e-05	3
12557	-7e-05	-7e-05	7e-05	-1e-05	-2e-05	-1e-05	-1e-05	-4e-05	3
12558	-7e-05	-7e-05	7e-05	-1e-05	-2e-05	-1e-05	-1e-05	-4e-05	3
12559	-7e-05	-7e-05	7e-05	-1e-05	-2e-05	-1e-05	-1e-05	-4e-05	3
12560	-7e-05	-7e-05	7e-05	-1e-05	-2e-05	-1e-05	-1e-05	-4e-05	3
12561	-7e-05	-7e-05	7e-05	-1e-05	-2e-05	-1e-05	-1e-05	-4e-05	3
12562	-7e-05	-7e-05	7e-05	-1e-05	-2e-05	-1e-05	-1e-05	-4e-05	3
12563	-7e-05	-7e-05	7e-05	-1e-05	-2e-05	-1e-05	-1e-05	-4e-05	3
12564	-7e-05	-7e-05	7e-05	-1e-05	-2e-05	-1e-05	-1e-05	-4e-05	3
12565	-7e-05	-7e-05	7e-05	-1e-05	-2e-05	-1e-05	-1e-05	-4e-05	3
12566	-7e-05	-7e-05	7e-05	-1e-05	-2e-05	-1e-05	-1e-05	-4e-05	3
12567	-7e-05	-7e-05	7e-05	-1e-05	-2e-05	-1e-05	-1e-05	-4e-05	3
12568	-7e-05	-7e-05	7e-05	-1e-05	-2e-05	-1e-05	-1e-05	-4e-05	3
12569	-7e-05	-7e-05	7e-05	-1e-05	-2e-05	-1e-05	-1e-05	-4e-05	3
12570	-7e-05	-7e-05	7e-05	-1e-05	-2e-05	-1e-05	-1e-05	-4e-05	3
12571	-7e-05	-7e-05	7e-05	-1e-05	-2e-05	-1e-05	-1e-05	-4e-05	3
12572	3e-05	-0.00014	1e-05	0	-3e-05	-2e-05	-2e-05	5e-05	3
12573	3e-05	-0.00014	1e-05	0	-3e-05	-2e-05	-2e-05	5e-05	3
12574	3e-05	-2e-05	-7e-05	-5e-05	-3e-05	-1e-05	-2e-05	-2e-05	3
12575	3e-05	-2e-05	-7e-05	-5e-05	-3e-05	-1e-05	-2e-05	-2e-05	3
12576	3e-05	-2e-05	-7e-05	-5e-05	-3e-05	-1e-05	-2e-05	-2e-05	3
12577	3e-05	-2e-05	-7e-05	-5e-05	-3e-05	-1e-05	-2e-05	-2e-05	3
12578	3e-05	-2e-05	-7e-05	-5e-05	-3e-05	-1e-05	-2e-05	-2e-05	3
12579	3e-05	-2e-05	-7e-05	-5e-05	-3e-05	-1e-05	-2e-05	-2e-05	3
12580	3e-05	-2e-05	-7e-05	-5e-05	-3e-05	-1e-05	-2e-05	-2e-05	3
12581	3e-05	-2e-05	-7e-05	-5e-05	-3e-05	-1e-05	-2e-05	-2e-05	3
12582	3e-05	-2e-05	-7e-05	-5e-05	-3e-05	-1e-05	-2e-05	-2e-05	3
12583	3e-05	-2e-05	-7e-05	-5e-05	-3e-05	-1e-05	-2e-05	-2e-05	3
12584	3e-05	-2e-05	-7e-05	-5e-05	-3e-05	-1e-05	-2e-05	-2e-05	3
12585	3e-05	-2e-05	-7e-05	-5e-05	-3e-05	-1e-05	-2e-05	-2e-05	3
12586	4e-05	-2e-05	-2e-05	2e-05	0	-5e-05	-4e-05	0	3
12588	4e-05	-2e-05	-2e-05	2e-05	0	-5e-05	-4e-05	0	3
12589	4e-05	-2e-05	-2e-05	2e-05	0	-5e-05	-4e-05	0	3
12590	4e-05	-2e-05	-2e-05	2e-05	0	-5e-05	-4e-05	0	3
12591	4e-05	-2e-05	-2e-05	2e-05	0	-5e-05	-4e-05	0	3
12592	4e-05	-2e-05	-2e-05	2e-05	0	-5e-05	-4e-05	0	3
12593	4e-05	-2e-05	-2e-05	2e-05	0	-5e-05	-4e-05	0	3
12594	4e-05	-2e-05	-2e-05	2e-05	0	-5e-05	-4e-05	0	3
12595	0.00016	6e-05	1e-05	-2e-05	-1e-05	-4e-05	-1e-05	1e-05	3
12596	0.00016	6e-05	1e-05	-2e-05	-1e-05	-4e-05	-1e-05	1e-05	3
12597	0.00016	6e-05	1e-05	-2e-05	-1e-05	-4e-05	-1e-05	1e-05	3
12598	0.00016	6e-05	1e-05	-2e-05	-1e-05	-4e-05	-1e-05	1e-05	3
12599	0.00016	6e-05	1e-05	-2e-05	-1e-05	-4e-05	-1e-05	1e-05	3
12600	0.00016	6e-05	1e-05	-2e-05	-1e-05	-4e-05	-1e-05	1e-05	3
12601	0.00016	6e-05	1e-05	-2e-05	-1e-05	-4e-05	-1e-05	1e-05	3
12602	0.00016	6e-05	1e-05	-2e-05	-1e-05	-4e-05	-1e-05	1e-05	3
12603	0.00016	6e-05	1e-05	-2e-05	-1e-05	-4e-05	-1e-05	1e-05	3
12604	0.00016	6e-05	1e-05	-2e-05	-1e-05	-4e-05	-1e-05	1e-05	3
12605	0.00016	6e-05	1e-05	-2e-05	-1e-05	-4e-05	-1e-05	1e-05	3
12606	0.00016	6e-05	1e-05	-2e-05	-1e-05	-4e-05	-1e-05	1e-05	3
12607	0.00016	6e-05	1e-05	-2e-05	-1e-05	-4e-05	-1e-05	1e-05	3
12608	0.00016	6e-05	1e-05	-2e-05	-1e-05	-4e-05	-1e-05	1e-05	3
12609	9e-05	-8e-05	-9e-05	-3e-05	1e-05	-2e-05	-9e-05	-0.00022	3
12610	9e-05	-8e-05	-9e-05	-3e-05	1e-05	-2e-05	-9e-05	-0.00022	3
12611	0	8e-05	2e-05	3e-05	0	0	-1e-05	0	3
12612	0	8e-05	2e-05	3e-05	0	0	-1e-05	0	3
12613	0	8e-05	2e-05	3e-05	0	0	-1e-05	0	3
12614	0	8e-05	2e-05	3e-05	0	0	-1e-05	0	3
12615	0	8e-05	2e-05	3e-05	0	0	-1e-05	0	3
12616	0	8e-05	2e-05	3e-05	0	0	-1e-05	0	3
12617	0	8e-05	2e-05	3e-05	0	0	-1e-05	0	3
12618	0	8e-05	2e-05	3e-05	0	0	-1e-05	0	3
12619	0	8e-05	2e-05	3e-05	0	0	-1e-05	0	3
12620	0	8e-05	2e-05	3e-05	0	0	-1e-05	0	3
12621	0	8e-05	2e-05	3e-05	0	0	-1e-05	0	3
12622	0	8e-05	2e-05	3e-05	0	0	-1e-05	0	3
12623	0	8e-05	2e-05	3e-05	0	0	-1e-05	0	3
12624	0	8e-05	2e-05	3e-05	0	0	-1e-05	0	3
12625	0	8e-05	2e-05	3e-05	0	0	-1e-05	0	3
12626	0	8e-05	2e-05	3e-05	0	0	-1e-05	0	3
12627	0	8e-05	2e-05	3e-05	0	0	-1e-05	0	3
12628	0	8e-05	2e-05	3e-05	0	0	-1e-05	0	3
12629	0	8e-05	2e-05	3e-05	0	0	-1e-05	0	3
12630	0	8e-05	2e-05	3e-05	0	0	-1e-05	0	3
12631	0	8e-05	2e-05	3e-05	0	0	-1e-05	0	3
12632	1e-05	1e-05	3e-05	-1e-05	-1e-05	2e-05	2e-05	5e-05	3
12633	1e-05	1e-05	3e-05	-1e-05	-1e-05	2e-05	2e-05	5e-05	3
12634	-0.00015	-0.00014	-6e-05	0	-2e-05	2e-05	-3e-05	-3e-05	3
12635	-0.00015	-0.00014	-6e-05	0	-2e-05	2e-05	-3e-05	-3e-05	3
12636	-0.00015	-0.00014	-6e-05	0	-2e-05	2e-05	-3e-05	-3e-05	3
12638	-0.00015	-0.00014	-6e-05	0	-2e-05	2e-05	-3e-05	-3e-05	3
12639	-0.00015	-0.00014	-6e-05	0	-2e-05	2e-05	-3e-05	-3e-05	3
12640	-0.00015	-0.00014	-6e-05	0	-2e-05	2e-05	-3e-05	-3e-05	3
12641	-0.00015	-0.00014	-6e-05	0	-2e-05	2e-05	-3e-05	-3e-05	3
12642	-0.00015	-0.00014	-6e-05	0	-2e-05	2e-05	-3e-05	-3e-05	3
12643	-0.00015	-0.00014	-6e-05	0	-2e-05	2e-05	-3e-05	-3e-05	3
12644	-0.00015	-0.00014	-6e-05	0	-2e-05	2e-05	-3e-05	-3e-05	3
12645	-0.00015	-0.00014	-6e-05	0	-2e-05	2e-05	-3e-05	-3e-05	3
12646	-4e-05	-3e-05	1e-05	1e-05	-2e-05	1e-05	-3e-05	4e-05	3
12647	-4e-05	-3e-05	1e-05	1e-05	-2e-05	1e-05	-3e-05	4e-05	3
12648	-4e-05	-3e-05	1e-05	1e-05	-2e-05	1e-05	-3e-05	4e-05	3
12649	-4e-05	-3e-05	1e-05	1e-05	-2e-05	1e-05	-3e-05	4e-05	3
12650	-4e-05	-3e-05	1e-05	1e-05	-2e-05	1e-05	-3e-05	4e-05	3
12651	-4e-05	-3e-05	1e-05	1e-05	-2e-05	1e-05	-3e-05	4e-05	3
12652	-4e-05	-3e-05	1e-05	1e-05	-2e-05	1e-05	-3e-05	4e-05	3
12653	-4e-05	-3e-05	1e-05	1e-05	-2e-05	1e-05	-3e-05	4e-05	3
12654	-4e-05	-3e-05	1e-05	1e-05	-2e-05	1e-05	-3e-05	4e-05	3
12655	2e-05	4e-05	-2e-05	0	0	-2e-05	0	1e-05	3
12656	2e-05	4e-05	-2e-05	0	0	-2e-05	0	1e-05	3
12657	2e-05	4e-05	-2e-05	0	0	-2e-05	0	1e-05	3
12658	2e-05	4e-05	-2e-05	0	0	-2e-05	0	1e-05	3
12659	2e-05	4e-05	-2e-05	0	0	-2e-05	0	1e-05	3
12660	2e-05	4e-05	-2e-05	0	0	-2e-05	0	1e-05	3
12661	2e-05	4e-05	-2e-05	0	0	-2e-05	0	1e-05	3
12662	2e-05	4e-05	-2e-05	0	0	-2e-05	0	1e-05	3
12663	2e-05	4e-05	-2e-05	0	0	-2e-05	0	1e-05	3
12664	2e-05	4e-05	-2e-05	0	0	-2e-05	0	1e-05	3
12665	2e-05	4e-05	-2e-05	0	0	-2e-05	0	1e-05	3
12666	2e-05	4e-05	-2e-05	0	0	-2e-05	0	1e-05	3
12667	2e-05	4e-05	-2e-05	0	0	-2e-05	0	1e-05	3
12668	2e-05	4e-05	-2e-05	0	0	-2e-05	0	1e-05	3
12669	-8e-05	-0.00014	-4e-05	-3e-05	-3e-05	-2e-05	-2e-05	0.00019	3
12670	-8e-05	-0.00014	-4e-05	-3e-05	-3e-05	-2e-05	-2e-05	0.00019	3
12671	-3e-05	4e-05	2e-05	1e-05	-1e-05	-2e-05	-1e-05	-5e-05	3
12672	-3e-05	4e-05	2e-05	1e-05	-1e-05	-2e-05	-1e-05	-5e-05	3
12673	-3e-05	4e-05	2e-05	1e-05	-1e-05	-2e-05	-1e-05	-5e-05	3
12674	-3e-05	4e-05	2e-05	1e-05	-1e-05	-2e-05	-1e-05	-5e-05	3
12675	-3e-05	4e-05	2e-05	1e-05	-1e-05	-2e-05	-1e-05	-5e-05	3
12676	-3e-05	4e-05	2e-05	1e-05	-1e-05	-2e-05	-1e-05	-5e-05	3
12677	-3e-05	4e-05	2e-05	1e-05	-1e-05	-2e-05	-1e-05	-5e-05	3
12678	-3e-05	4e-05	2e-05	1e-05	-1e-05	-2e-05	-1e-05	-5e-05	3
12679	-3e-05	4e-05	2e-05	1e-05	-1e-05	-2e-05	-1e-05	-5e-05	3
12680	-3e-05	4e-05	2e-05	1e-05	-1e-05	-2e-05	-1e-05	-5e-05	3
12681	-3e-05	4e-05	2e-05	1e-05	-1e-05	-2e-05	-1e-05	-5e-05	3
12682	-3e-05	4e-05	2e-05	1e-05	-1e-05	-2e-05	-1e-05	-5e-05	3
12683	-3e-05	4e-05	2e-05	1e-05	-1e-05	-2e-05	-1e-05	-5e-05	3
12684	-3e-05	4e-05	2e-05	1e-05	-1e-05	-2e-05	-1e-05	-5e-05	3
12685	-3e-05	4e-05	2e-05	1e-05	-1e-05	-2e-05	-1e-05	-5e-05	3
12686	-3e-05	4e-05	2e-05	1e-05	-1e-05	-2e-05	-1e-05	-5e-05	3
12688	-3e-05	4e-05	2e-05	1e-05	-1e-05	-2e-05	-1e-05	-5e-05	3
12689	-3e-05	4e-05	2e-05	1e-05	-1e-05	-2e-05	-1e-05	-5e-05	3
12690	-3e-05	4e-05	2e-05	1e-05	-1e-05	-2e-05	-1e-05	-5e-05	3
12691	-3e-05	4e-05	2e-05	1e-05	-1e-05	-2e-05	-1e-05	-5e-05	3
12692	0	4e-05	-0.00012	-2e-05	0	-1e-05	1e-05	4e-05	3
12693	-5e-05	-0.00011	-3e-05	0	-2e-05	-2e-05	3e-05	3e-05	3
12694	-1e-05	0	-1e-05	-2e-05	-3e-05	-2e-05	-2e-05	3e-05	3
12695	-1e-05	0	-1e-05	-2e-05	-3e-05	-2e-05	-2e-05	3e-05	3
12696	-1e-05	0	-1e-05	-2e-05	-3e-05	-2e-05	-2e-05	3e-05	3
12697	-1e-05	0	-1e-05	-2e-05	-3e-05	-2e-05	-2e-05	3e-05	3
12698	-1e-05	0	-1e-05	-2e-05	-3e-05	-2e-05	-2e-05	3e-05	3
12699	-1e-05	0	-1e-05	-2e-05	-3e-05	-2e-05	-2e-05	3e-05	3
12700	-1e-05	0	-1e-05	-2e-05	-3e-05	-2e-05	-2e-05	3e-05	3
12701	-1e-05	0	-1e-05	-2e-05	-3e-05	-2e-05	-2e-05	3e-05	3
12702	-1e-05	0	-1e-05	-2e-05	-3e-05	-2e-05	-2e-05	3e-05	3
12703	-1e-05	0	-1e-05	-2e-05	-3e-05	-2e-05	-2e-05	3e-05	3
12704	-1e-05	0	-1e-05	-2e-05	-3e-05	-2e-05	-2e-05	3e-05	3
12705	-1e-05	0	-1e-05	-2e-05	-3e-05	-2e-05	-2e-05	3e-05	3
12706	-0.00053	-0.00085	-0.00012	-7e-05	3e-05	0.00011	0.0001	9e-05	3
12707	-0.00053	-0.00085	-0.00012	-7e-05	3e-05	0.00011	0.0001	9e-05	3
12708	-0.00053	-0.00085	-0.00012	-7e-05	3e-05	0.00011	0.0001	9e-05	3
12709	-0.00053	-0.00085	-0.00012	-7e-05	3e-05	0.00011	0.0001	9e-05	3
12710	-0.00053	-0.00085	-0.00012	-7e-05	3e-05	0.00011	0.0001	9e-05	3
12711	-0.00053	-0.00085	-0.00012	-7e-05	3e-05	0.00011	0.0001	9e-05	3
12712	-0.00053	-0.00085	-0.00012	-7e-05	3e-05	0.00011	0.0001	9e-05	3
12713	-0.00053	-0.00085	-0.00012	-7e-05	3e-05	0.00011	0.0001	9e-05	3
12714	-0.00053	-0.00085	-0.00012	-7e-05	3e-05	0.00011	0.0001	9e-05	3
12715	-0.00053	-0.00085	-0.00012	-7e-05	3e-05	0.00011	0.0001	9e-05	3
12716	-0.00053	-0.00085	-0.00012	-7e-05	3e-05	0.00011	0.0001	9e-05	3
12717	-0.00053	-0.00085	-0.00012	-7e-05	3e-05	0.00011	0.0001	9e-05	3
12718	-0.00053	-0.00085	-0.00012	-7e-05	3e-05	0.00011	0.0001	9e-05	3
12719	-0.00053	-0.00085	-0.00012	-7e-05	3e-05	0.00011	0.0001	9e-05	3
12720	-0.00053	-0.00085	-0.00012	-7e-05	3e-05	0.00011	0.0001	9e-05	3
12721	-0.00053	-0.00085	-0.00012	-7e-05	3e-05	0.00011	0.0001	9e-05	3
12722	4e-05	6e-05	2e-05	0	3e-05	2e-05	-2e-05	0	3
12723	4e-05	6e-05	2e-05	0	3e-05	2e-05	-2e-05	0	3
12724	4e-05	6e-05	2e-05	0	3e-05	2e-05	-2e-05	0	3
12725	4e-05	6e-05	2e-05	0	3e-05	2e-05	-2e-05	0	3
12726	4e-05	6e-05	2e-05	0	3e-05	2e-05	-2e-05	0	3
12727	4e-05	6e-05	2e-05	0	3e-05	2e-05	-2e-05	0	3
12728	4e-05	6e-05	2e-05	0	3e-05	2e-05	-2e-05	0	3
12729	-5e-05	-7e-05	0	0	0	-2e-05	0	-8e-05	3
12730	0.00023	0.0003	7e-05	1e-05	-2e-05	-2e-05	4e-05	-1e-05	3
12731	-0.00011	-0.00018	-2e-05	0	0	2e-05	-1e-05	-1e-05	3
12732	-0.00011	-0.00018	-2e-05	0	0	2e-05	-1e-05	-1e-05	3
12733	-0.00011	-0.00018	-2e-05	0	0	2e-05	-1e-05	-1e-05	3
12734	-0.00011	-0.00018	-2e-05	0	0	2e-05	-1e-05	-1e-05	3
12735	-0.00011	-0.00018	-2e-05	0	0	2e-05	-1e-05	-1e-05	3
12736	-0.00011	-0.00018	-2e-05	0	0	2e-05	-1e-05	-1e-05	3
12738	-0.00011	-0.00018	-2e-05	0	0	2e-05	-1e-05	-1e-05	3
12739	-0.00011	-0.00018	-2e-05	0	0	2e-05	-1e-05	-1e-05	3
12740	-0.00011	-0.00018	-2e-05	0	0	2e-05	-1e-05	-1e-05	3
12741	-0.00011	-0.00018	-2e-05	0	0	2e-05	-1e-05	-1e-05	3
12742	-0.00011	-0.00018	-2e-05	0	0	2e-05	-1e-05	-1e-05	3
12743	-0.00011	-0.00018	-2e-05	0	0	2e-05	-1e-05	-1e-05	3
12744	-0.00011	-0.00018	-2e-05	0	0	2e-05	-1e-05	-1e-05	3
12745	-0.00011	-0.00018	-2e-05	0	0	2e-05	-1e-05	-1e-05	3
12746	-0.00011	-0.00018	-2e-05	0	0	2e-05	-1e-05	-1e-05	3
12747	-0.00011	-0.00018	-2e-05	0	0	2e-05	-1e-05	-1e-05	3
12748	-0.00011	-0.00018	-2e-05	0	0	2e-05	-1e-05	-1e-05	3
12749	-0.00011	-0.00018	-2e-05	0	0	2e-05	-1e-05	-1e-05	3
12750	-0.00011	-0.00018	-2e-05	0	0	2e-05	-1e-05	-1e-05	3
12751	-0.00011	-0.00018	-2e-05	0	0	2e-05	-1e-05	-1e-05	3
12752	7e-05	0.00014	6e-05	3e-05	1e-05	3e-05	-3e-05	2e-05	3
12753	7e-05	0.00014	6e-05	3e-05	1e-05	3e-05	-3e-05	2e-05	3
12754	0.0001	0.00013	-2e-05	-2e-05	-2e-05	-2e-05	-2e-05	-4e-05	3
12755	0.0001	0.00013	-2e-05	-2e-05	-2e-05	-2e-05	-2e-05	-4e-05	3
12756	0.0001	0.00013	-2e-05	-2e-05	-2e-05	-2e-05	-2e-05	-4e-05	3
12757	0.0001	0.00013	-2e-05	-2e-05	-2e-05	-2e-05	-2e-05	-4e-05	3
12758	0.0001	0.00013	-2e-05	-2e-05	-2e-05	-2e-05	-2e-05	-4e-05	3
12759	0.0001	0.00013	-2e-05	-2e-05	-2e-05	-2e-05	-2e-05	-4e-05	3
12760	0.0001	0.00013	-2e-05	-2e-05	-2e-05	-2e-05	-2e-05	-4e-05	3
12761	0.0001	0.00013	-2e-05	-2e-05	-2e-05	-2e-05	-2e-05	-4e-05	3
12762	0.0001	0.00013	-2e-05	-2e-05	-2e-05	-2e-05	-2e-05	-4e-05	3
12763	0.0001	0.00013	-2e-05	-2e-05	-2e-05	-2e-05	-2e-05	-4e-05	3
12764	0.0001	0.00013	-2e-05	-2e-05	-2e-05	-2e-05	-2e-05	-4e-05	3
12765	0.0001	0.00013	-2e-05	-2e-05	-2e-05	-2e-05	-2e-05	-4e-05	3
12766	8e-05	0.00025	6e-05	3e-05	-1e-05	-8e-05	-3e-05	-5e-05	3
12767	8e-05	0.00025	6e-05	3e-05	-1e-05	-8e-05	-3e-05	-5e-05	3
12768	8e-05	0.00025	6e-05	3e-05	-1e-05	-8e-05	-3e-05	-5e-05	3
12769	8e-05	0.00025	6e-05	3e-05	-1e-05	-8e-05	-3e-05	-5e-05	3
12770	8e-05	0.00025	6e-05	3e-05	-1e-05	-8e-05	-3e-05	-5e-05	3
12771	8e-05	0.00025	6e-05	3e-05	-1e-05	-8e-05	-3e-05	-5e-05	3
12772	8e-05	0.00025	6e-05	3e-05	-1e-05	-8e-05	-3e-05	-5e-05	3
12773	8e-05	0.00025	6e-05	3e-05	-1e-05	-8e-05	-3e-05	-5e-05	3
12774	1e-05	-3e-05	-2e-05	-1e-05	-2e-05	1e-05	3e-05	8e-05	3
12775	1e-05	-3e-05	-2e-05	-1e-05	-2e-05	1e-05	3e-05	8e-05	3
12776	1e-05	-3e-05	-2e-05	-1e-05	-2e-05	1e-05	3e-05	8e-05	3
12777	1e-05	-3e-05	-2e-05	-1e-05	-2e-05	1e-05	3e-05	8e-05	3
12778	1e-05	-3e-05	-2e-05	-1e-05	-2e-05	1e-05	3e-05	8e-05	3
12779	1e-05	-3e-05	-2e-05	-1e-05	-2e-05	1e-05	3e-05	8e-05	3
12780	1e-05	-3e-05	-2e-05	-1e-05	-2e-05	1e-05	3e-05	8e-05	3
12781	1e-05	-3e-05	-2e-05	-1e-05	-2e-05	1e-05	3e-05	8e-05	3
12782	1e-05	-3e-05	-2e-05	-1e-05	-2e-05	1e-05	3e-05	8e-05	3
12783	1e-05	-3e-05	-2e-05	-1e-05	-2e-05	1e-05	3e-05	8e-05	3
12784	1e-05	-3e-05	-2e-05	-1e-05	-2e-05	1e-05	3e-05	8e-05	3
12785	1e-05	-3e-05	-2e-05	-1e-05	-2e-05	1e-05	3e-05	8e-05	3
12786	1e-05	-3e-05	-2e-05	-1e-05	-2e-05	1e-05	3e-05	8e-05	3
12788	1e-05	-3e-05	-2e-05	-1e-05	-2e-05	1e-05	3e-05	8e-05	3
12789	1e-05	-3e-05	-2e-05	-1e-05	-2e-05	1e-05	3e-05	8e-05	3
12790	3e-05	5e-05	9e-05	-1e-05	0	-3e-05	-1e-05	-3e-05	3
12791	-2e-05	-5e-05	-6e-05	-2e-05	-3e-05	-8e-05	-4e-05	-2e-05	3
12792	-2e-05	-5e-05	-6e-05	-2e-05	-3e-05	-8e-05	-4e-05	-2e-05	3
12793	-2e-05	-5e-05	-6e-05	-2e-05	-3e-05	-8e-05	-4e-05	-2e-05	3
12794	-2e-05	-5e-05	-6e-05	-2e-05	-3e-05	-8e-05	-4e-05	-2e-05	3
12795	-2e-05	-5e-05	-6e-05	-2e-05	-3e-05	-8e-05	-4e-05	-2e-05	3
12796	-2e-05	-5e-05	-6e-05	-2e-05	-3e-05	-8e-05	-4e-05	-2e-05	3
12797	-2e-05	-5e-05	-6e-05	-2e-05	-3e-05	-8e-05	-4e-05	-2e-05	3
12798	-2e-05	-5e-05	-6e-05	-2e-05	-3e-05	-8e-05	-4e-05	-2e-05	3
12799	-2e-05	-5e-05	-6e-05	-2e-05	-3e-05	-8e-05	-4e-05	-2e-05	3
12800	-2e-05	-5e-05	-6e-05	-2e-05	-3e-05	-8e-05	-4e-05	-2e-05	3
12801	-2e-05	-5e-05	-6e-05	-2e-05	-3e-05	-8e-05	-4e-05	-2e-05	3
12802	-2e-05	-5e-05	-6e-05	-2e-05	-3e-05	-8e-05	-4e-05	-2e-05	3
12803	-2e-05	-5e-05	-6e-05	-2e-05	-3e-05	-8e-05	-4e-05	-2e-05	3
12804	-2e-05	-5e-05	-6e-05	-2e-05	-3e-05	-8e-05	-4e-05	-2e-05	3
12805	-2e-05	-5e-05	-6e-05	-2e-05	-3e-05	-8e-05	-4e-05	-2e-05	3
12806	-2e-05	-5e-05	-6e-05	-2e-05	-3e-05	-8e-05	-4e-05	-2e-05	3
12807	-2e-05	-5e-05	-6e-05	-2e-05	-3e-05	-8e-05	-4e-05	-2e-05	3
12808	-2e-05	-5e-05	-6e-05	-2e-05	-3e-05	-8e-05	-4e-05	-2e-05	3
12809	-2e-05	-5e-05	-6e-05	-2e-05	-3e-05	-8e-05	-4e-05	-2e-05	3
12810	-2e-05	-5e-05	-6e-05	-2e-05	-3e-05	-8e-05	-4e-05	-2e-05	3
12811	-2e-05	-5e-05	-6e-05	-2e-05	-3e-05	-8e-05	-4e-05	-2e-05	3
12812	7e-05	0.00012	1e-05	-2e-05	-2e-05	-3e-05	-2e-05	-0.00015	3
12813	7e-05	0.00012	1e-05	-2e-05	-2e-05	-3e-05	-2e-05	-0.00015	3
12814	6e-05	0.00018	3e-05	1e-05	0	-1e-05	3e-05	1e-05	3
12815	6e-05	0.00018	3e-05	1e-05	0	-1e-05	3e-05	1e-05	3
12816	6e-05	0.00018	3e-05	1e-05	0	-1e-05	3e-05	1e-05	3
12817	6e-05	0.00018	3e-05	1e-05	0	-1e-05	3e-05	1e-05	3
12818	6e-05	0.00018	3e-05	1e-05	0	-1e-05	3e-05	1e-05	3
12819	6e-05	0.00018	3e-05	1e-05	0	-1e-05	3e-05	1e-05	3
12820	6e-05	0.00018	3e-05	1e-05	0	-1e-05	3e-05	1e-05	3
12821	6e-05	0.00018	3e-05	1e-05	0	-1e-05	3e-05	1e-05	3
12822	6e-05	0.00018	3e-05	1e-05	0	-1e-05	3e-05	1e-05	3
12823	6e-05	0.00018	3e-05	1e-05	0	-1e-05	3e-05	1e-05	3
12824	6e-05	0.00018	3e-05	1e-05	0	-1e-05	3e-05	1e-05	3
12825	6e-05	0.00018	3e-05	1e-05	0	-1e-05	3e-05	1e-05	3
12826	6e-05	0.00018	3e-05	1e-05	0	-1e-05	3e-05	1e-05	3
12827	6e-05	0.00018	3e-05	1e-05	0	-1e-05	3e-05	1e-05	3
12828	6e-05	0.00018	3e-05	1e-05	0	-1e-05	3e-05	1e-05	3
12829	6e-05	0.00018	3e-05	1e-05	0	-1e-05	3e-05	1e-05	3
12830	6e-05	0.00018	3e-05	1e-05	0	-1e-05	3e-05	1e-05	3
12831	6e-05	0.00018	3e-05	1e-05	0	-1e-05	3e-05	1e-05	3
12832	6e-05	0.00018	3e-05	1e-05	0	-1e-05	3e-05	1e-05	3
12833	6e-05	0.00018	3e-05	1e-05	0	-1e-05	3e-05	1e-05	3
12834	0.00026	0.00038	1e-05	-1e-05	-6e-05	-4e-05	-2e-05	-2e-05	3
12835	0.00026	0.00038	1e-05	-1e-05	-6e-05	-4e-05	-2e-05	-2e-05	3
12836	-1e-05	1e-05	-1e-05	-1e-05	-1e-05	-2e-05	-1e-05	-5e-05	3
12838	-1e-05	1e-05	-1e-05	-1e-05	-1e-05	-2e-05	-1e-05	-5e-05	3
12839	-1e-05	1e-05	-1e-05	-1e-05	-1e-05	-2e-05	-1e-05	-5e-05	3
12840	-1e-05	1e-05	-1e-05	-1e-05	-1e-05	-2e-05	-1e-05	-5e-05	3
12841	-1e-05	1e-05	-1e-05	-1e-05	-1e-05	-2e-05	-1e-05	-5e-05	3
12842	-1e-05	1e-05	-1e-05	-1e-05	-1e-05	-2e-05	-1e-05	-5e-05	3
12843	-1e-05	1e-05	-1e-05	-1e-05	-1e-05	-2e-05	-1e-05	-5e-05	3
12844	-1e-05	1e-05	-1e-05	-1e-05	-1e-05	-2e-05	-1e-05	-5e-05	3
12845	-1e-05	1e-05	-1e-05	-1e-05	-1e-05	-2e-05	-1e-05	-5e-05	3
12846	-1e-05	1e-05	-1e-05	-1e-05	-1e-05	-2e-05	-1e-05	-5e-05	3
12847	-1e-05	1e-05	-1e-05	-1e-05	-1e-05	-2e-05	-1e-05	-5e-05	3
12848	-1e-05	1e-05	-1e-05	-1e-05	-1e-05	-2e-05	-1e-05	-5e-05	3
12849	-1e-05	-0.00011	-2e-05	0	3e-05	6e-05	3e-05	-3e-05	3
12850	0	3e-05	-3e-05	-2e-05	0	-2e-05	-2e-05	-3e-05	3
12851	-4e-05	-9e-05	-6e-05	-1e-05	0	1e-05	0	-1e-05	3
12852	-4e-05	-9e-05	-6e-05	-1e-05	0	1e-05	0	-1e-05	3
12853	-4e-05	-9e-05	-6e-05	-1e-05	0	1e-05	0	-1e-05	3
12854	-4e-05	-9e-05	-6e-05	-1e-05	0	1e-05	0	-1e-05	3
12855	-4e-05	-9e-05	-6e-05	-1e-05	0	1e-05	0	-1e-05	3
12856	-4e-05	-9e-05	-6e-05	-1e-05	0	1e-05	0	-1e-05	3
12857	-4e-05	-9e-05	-6e-05	-1e-05	0	1e-05	0	-1e-05	3
12858	-4e-05	-9e-05	-6e-05	-1e-05	0	1e-05	0	-1e-05	3
12859	-4e-05	-9e-05	-6e-05	-1e-05	0	1e-05	0	-1e-05	3
12860	-4e-05	-9e-05	-6e-05	-1e-05	0	1e-05	0	-1e-05	3
12861	-4e-05	-9e-05	-6e-05	-1e-05	0	1e-05	0	-1e-05	3
12862	-4e-05	-9e-05	-6e-05	-1e-05	0	1e-05	0	-1e-05	3
12863	-4e-05	-9e-05	-6e-05	-1e-05	0	1e-05	0	-1e-05	3
12864	-4e-05	-9e-05	-6e-05	-1e-05	0	1e-05	0	-1e-05	3
12865	-4e-05	-9e-05	-6e-05	-1e-05	0	1e-05	0	-1e-05	3
12866	-4e-05	-9e-05	-6e-05	-1e-05	0	1e-05	0	-1e-05	3
12867	-4e-05	-9e-05	-6e-05	-1e-05	0	1e-05	0	-1e-05	3
12868	-4e-05	-9e-05	-6e-05	-1e-05	0	1e-05	0	-1e-05	3
12869	-4e-05	-9e-05	-6e-05	-1e-05	0	1e-05	0	-1e-05	3
12870	-4e-05	-9e-05	-6e-05	-1e-05	0	1e-05	0	-1e-05	3
12871	-4e-05	-9e-05	-6e-05	-1e-05	0	1e-05	0	-1e-05	3
12872	-5e-05	-0.00013	-5e-05	0	-2e-05	-1e-05	0	2e-05	3
12873	-5e-05	-0.00013	-5e-05	0	-2e-05	-1e-05	0	2e-05	3
12874	-6e-05	-8e-05	1e-05	-1e-05	-2e-05	-2e-05	1e-05	-1e-05	3
12875	-6e-05	-8e-05	1e-05	-1e-05	-2e-05	-2e-05	1e-05	-1e-05	3
12876	-6e-05	-8e-05	1e-05	-1e-05	-2e-05	-2e-05	1e-05	-1e-05	3
12877	-6e-05	-8e-05	1e-05	-1e-05	-2e-05	-2e-05	1e-05	-1e-05	3
12878	-6e-05	-8e-05	1e-05	-1e-05	-2e-05	-2e-05	1e-05	-1e-05	3
12879	-6e-05	-8e-05	1e-05	-1e-05	-2e-05	-2e-05	1e-05	-1e-05	3
12880	-6e-05	-8e-05	1e-05	-1e-05	-2e-05	-2e-05	1e-05	-1e-05	3
12881	-6e-05	-8e-05	1e-05	-1e-05	-2e-05	-2e-05	1e-05	-1e-05	3
12882	-6e-05	-8e-05	1e-05	-1e-05	-2e-05	-2e-05	1e-05	-1e-05	3
12883	-6e-05	-8e-05	1e-05	-1e-05	-2e-05	-2e-05	1e-05	-1e-05	3
12884	-6e-05	-8e-05	1e-05	-1e-05	-2e-05	-2e-05	1e-05	-1e-05	3
12885	-6e-05	-8e-05	1e-05	-1e-05	-2e-05	-2e-05	1e-05	-1e-05	3
12886	-6e-05	-8e-05	1e-05	-1e-05	-2e-05	-2e-05	1e-05	-1e-05	3
12888	-6e-05	-8e-05	1e-05	-1e-05	-2e-05	-2e-05	1e-05	-1e-05	3
12889	-6e-05	-8e-05	1e-05	-1e-05	-2e-05	-2e-05	1e-05	-1e-05	3
12890	-6e-05	-8e-05	1e-05	-1e-05	-2e-05	-2e-05	1e-05	-1e-05	3
12891	-6e-05	-8e-05	1e-05	-1e-05	-2e-05	-2e-05	1e-05	-1e-05	3
12892	-6e-05	-8e-05	1e-05	-1e-05	-2e-05	-2e-05	1e-05	-1e-05	3
12893	-6e-05	-8e-05	1e-05	-1e-05	-2e-05	-2e-05	1e-05	-1e-05	3
12894	-3e-05	5e-05	0	-2e-05	-1e-05	-3e-05	-5e-05	-0.00028	3
12895	-1e-05	1e-05	-2e-05	-1e-05	-1e-05	-1e-05	0	2e-05	3
12896	-4e-05	-0.00011	-0.00014	-2e-05	0	1e-05	-2e-05	-2e-05	3
12897	-4e-05	-0.00011	-0.00014	-2e-05	0	1e-05	-2e-05	-2e-05	3
12898	-4e-05	-0.00011	-0.00014	-2e-05	0	1e-05	-2e-05	-2e-05	3
12899	-4e-05	-0.00011	-0.00014	-2e-05	0	1e-05	-2e-05	-2e-05	3
12900	-4e-05	-0.00011	-0.00014	-2e-05	0	1e-05	-2e-05	-2e-05	3
12901	-4e-05	-0.00011	-0.00014	-2e-05	0	1e-05	-2e-05	-2e-05	3
12902	-4e-05	-0.00011	-0.00014	-2e-05	0	1e-05	-2e-05	-2e-05	3
12903	-4e-05	-0.00011	-0.00014	-2e-05	0	1e-05	-2e-05	-2e-05	3
12904	-4e-05	-0.00011	-0.00014	-2e-05	0	1e-05	-2e-05	-2e-05	3
12905	-4e-05	-0.00011	-0.00014	-2e-05	0	1e-05	-2e-05	-2e-05	3
12906	-4e-05	-0.00011	-0.00014	-2e-05	0	1e-05	-2e-05	-2e-05	3
12907	-4e-05	-0.00011	-0.00014	-2e-05	0	1e-05	-2e-05	-2e-05	3
12908	-4e-05	-0.00011	-0.00014	-2e-05	0	1e-05	-2e-05	-2e-05	3
12909	3e-05	-1e-05	-4e-05	-1e-05	-1e-05	-1e-05	1e-05	0.0001	3
12910	-2e-05	1e-05	3e-05	-2e-05	-1e-05	3e-05	1e-05	-3e-05	3
12911	2e-05	3e-05	1e-05	-3e-05	-2e-05	-1e-05	0	0	3
12912	2e-05	3e-05	1e-05	-3e-05	-2e-05	-1e-05	0	0	3
12913	2e-05	3e-05	1e-05	-3e-05	-2e-05	-1e-05	0	0	3
12914	2e-05	3e-05	1e-05	-3e-05	-2e-05	-1e-05	0	0	3
12915	2e-05	3e-05	1e-05	-3e-05	-2e-05	-1e-05	0	0	3
12916	2e-05	3e-05	1e-05	-3e-05	-2e-05	-1e-05	0	0	3
12917	2e-05	3e-05	1e-05	-3e-05	-2e-05	-1e-05	0	0	3
12918	2e-05	3e-05	1e-05	-3e-05	-2e-05	-1e-05	0	0	3
12919	2e-05	3e-05	1e-05	-3e-05	-2e-05	-1e-05	0	0	3
12920	2e-05	3e-05	1e-05	-3e-05	-2e-05	-1e-05	0	0	3
12921	2e-05	3e-05	1e-05	-3e-05	-2e-05	-1e-05	0	0	3
12922	2e-05	3e-05	1e-05	-3e-05	-2e-05	-1e-05	0	0	3
12923	2e-05	3e-05	1e-05	-3e-05	-2e-05	-1e-05	0	0	3
12924	2e-05	3e-05	1e-05	-3e-05	-2e-05	-1e-05	0	0	3
12925	2e-05	3e-05	1e-05	-3e-05	-2e-05	-1e-05	0	0	3
12926	2e-05	3e-05	1e-05	-3e-05	-2e-05	-1e-05	0	0	3
12927	2e-05	3e-05	1e-05	-3e-05	-2e-05	-1e-05	0	0	3
12928	2e-05	3e-05	1e-05	-3e-05	-2e-05	-1e-05	0	0	3
12929	2e-05	3e-05	1e-05	-3e-05	-2e-05	-1e-05	0	0	3
12930	2e-05	3e-05	1e-05	-3e-05	-2e-05	-1e-05	0	0	3
12931	2e-05	3e-05	1e-05	-3e-05	-2e-05	-1e-05	0	0	3
12932	-0.00011	-0.00016	-6e-05	-3e-05	0	-3e-05	1e-05	1e-05	3
12933	8e-05	0	0	1e-05	-1e-05	0	1e-05	-7e-05	3
12935	8e-05	0	0	1e-05	-1e-05	0	1e-05	-7e-05	3
12936	8e-05	0	0	1e-05	-1e-05	0	1e-05	-7e-05	3
12938	8e-05	0	0	1e-05	-1e-05	0	1e-05	-7e-05	3
12939	8e-05	0	0	1e-05	-1e-05	0	1e-05	-7e-05	3
12940	8e-05	0	0	1e-05	-1e-05	0	1e-05	-7e-05	3
12941	8e-05	0	0	1e-05	-1e-05	0	1e-05	-7e-05	3
12942	8e-05	0	0	1e-05	-1e-05	0	1e-05	-7e-05	3
12943	8e-05	0	0	1e-05	-1e-05	0	1e-05	-7e-05	3
12944	8e-05	0	0	1e-05	-1e-05	0	1e-05	-7e-05	3
12945	8e-05	0	0	1e-05	-1e-05	0	1e-05	-7e-05	3
12946	8e-05	0	0	1e-05	-1e-05	0	1e-05	-7e-05	3
12947	8e-05	0	0	1e-05	-1e-05	0	1e-05	-7e-05	3
12948	8e-05	0	0	1e-05	-1e-05	0	1e-05	-7e-05	3
12949	8e-05	0	0	1e-05	-1e-05	0	1e-05	-7e-05	3
12950	8e-05	0	0	1e-05	-1e-05	0	1e-05	-7e-05	3
12951	8e-05	0	0	1e-05	-1e-05	0	1e-05	-7e-05	3
12952	8e-05	0	0	1e-05	-1e-05	0	1e-05	-7e-05	3
12953	8e-05	0	0	1e-05	-1e-05	0	1e-05	-7e-05	3
12954	8e-05	0	0	1e-05	-1e-05	0	1e-05	-7e-05	3
12955	5e-05	3e-05	1e-05	-3e-05	-2e-05	-3e-05	-3e-05	0.00017	3
12956	-2e-05	-4e-05	1e-05	1e-05	-2e-05	-3e-05	-4e-05	3e-05	3
12957	-2e-05	-4e-05	1e-05	1e-05	-2e-05	-3e-05	-4e-05	3e-05	3
12958	-2e-05	-4e-05	1e-05	1e-05	-2e-05	-3e-05	-4e-05	3e-05	3
12959	-2e-05	-4e-05	1e-05	1e-05	-2e-05	-3e-05	-4e-05	3e-05	3
12960	-2e-05	-4e-05	1e-05	1e-05	-2e-05	-3e-05	-4e-05	3e-05	3
12961	-2e-05	-4e-05	1e-05	1e-05	-2e-05	-3e-05	-4e-05	3e-05	3
12962	-2e-05	-4e-05	1e-05	1e-05	-2e-05	-3e-05	-4e-05	3e-05	3
12963	-2e-05	-4e-05	1e-05	1e-05	-2e-05	-3e-05	-4e-05	3e-05	3
12964	-2e-05	-4e-05	1e-05	1e-05	-2e-05	-3e-05	-4e-05	3e-05	3
12965	-2e-05	-4e-05	1e-05	1e-05	-2e-05	-3e-05	-4e-05	3e-05	3
12966	-2e-05	-4e-05	1e-05	1e-05	-2e-05	-3e-05	-4e-05	3e-05	3
12967	-2e-05	-4e-05	1e-05	1e-05	-2e-05	-3e-05	-4e-05	3e-05	3
12968	-2e-05	-4e-05	1e-05	1e-05	-2e-05	-3e-05	-4e-05	3e-05	3
12969	-6e-05	-8e-05	-1e-05	2e-05	-2e-05	-2e-05	0	3e-05	3
12970	-6e-05	-8e-05	-1e-05	2e-05	-2e-05	-2e-05	0	3e-05	3
12971	-6e-05	-8e-05	-1e-05	2e-05	-2e-05	-2e-05	0	3e-05	3
12972	-6e-05	-8e-05	-1e-05	2e-05	-2e-05	-2e-05	0	3e-05	3
12973	-6e-05	-8e-05	-1e-05	2e-05	-2e-05	-2e-05	0	3e-05	3
12974	-6e-05	-8e-05	-1e-05	2e-05	-2e-05	-2e-05	0	3e-05	3
12975	-6e-05	-8e-05	-1e-05	2e-05	-2e-05	-2e-05	0	3e-05	3
12976	-6e-05	7e-05	3e-05	0	-1e-05	0	1e-05	-3e-05	3
12977	-6e-05	7e-05	3e-05	0	-1e-05	0	1e-05	-3e-05	3
12978	-6e-05	7e-05	3e-05	0	-1e-05	0	1e-05	-3e-05	3
12979	-6e-05	7e-05	3e-05	0	-1e-05	0	1e-05	-3e-05	3
12980	-6e-05	7e-05	3e-05	0	-1e-05	0	1e-05	-3e-05	3
12981	-6e-05	7e-05	3e-05	0	-1e-05	0	1e-05	-3e-05	3
12982	-6e-05	7e-05	3e-05	0	-1e-05	0	1e-05	-3e-05	3
12983	-6e-05	7e-05	3e-05	0	-1e-05	0	1e-05	-3e-05	3
12984	-6e-05	7e-05	3e-05	0	-1e-05	0	1e-05	-3e-05	3
12985	-6e-05	7e-05	3e-05	0	-1e-05	0	1e-05	-3e-05	3
12986	-6e-05	7e-05	3e-05	0	-1e-05	0	1e-05	-3e-05	3
12988	-6e-05	7e-05	3e-05	0	-1e-05	0	1e-05	-3e-05	3
12989	-6e-05	7e-05	3e-05	0	-1e-05	0	1e-05	-3e-05	3
12990	-6e-05	7e-05	3e-05	0	-1e-05	0	1e-05	-3e-05	3
12991	-6e-05	7e-05	3e-05	0	-1e-05	0	1e-05	-3e-05	3
12992	2e-05	0	-1e-05	0	0	-1e-05	-2e-05	-0.00032	3
12993	2e-05	0	-1e-05	0	0	-1e-05	-2e-05	-0.00032	3
12994	-0.00016	-0.0002	1e-05	0	1e-05	3e-05	0	-7e-05	3
12995	-0.00016	-0.0002	1e-05	0	1e-05	3e-05	0	-7e-05	3
12996	-0.00016	-0.0002	1e-05	0	1e-05	3e-05	0	-7e-05	3
12997	-0.00016	-0.0002	1e-05	0	1e-05	3e-05	0	-7e-05	3
12998	-0.00016	-0.0002	1e-05	0	1e-05	3e-05	0	-7e-05	3
12999	-0.00016	-0.0002	1e-05	0	1e-05	3e-05	0	-7e-05	3
13000	-0.00016	-0.0002	1e-05	0	1e-05	3e-05	0	-7e-05	3
13001	-0.00016	-0.0002	1e-05	0	1e-05	3e-05	0	-7e-05	3
13002	-0.00016	-0.0002	1e-05	0	1e-05	3e-05	0	-7e-05	3
13003	-0.00016	-0.0002	1e-05	0	1e-05	3e-05	0	-7e-05	3
13004	-0.00016	-0.0002	1e-05	0	1e-05	3e-05	0	-7e-05	3
13005	-0.00016	-0.0002	1e-05	0	1e-05	3e-05	0	-7e-05	3
13006	-0.00016	-0.0002	1e-05	0	1e-05	3e-05	0	-7e-05	3
13007	-0.00016	-0.0002	1e-05	0	1e-05	3e-05	0	-7e-05	3
13008	-0.00016	-0.0002	1e-05	0	1e-05	3e-05	0	-7e-05	3
13009	-0.00016	-0.0002	1e-05	0	1e-05	3e-05	0	-7e-05	3
13010	-0.00016	-0.0002	1e-05	0	1e-05	3e-05	0	-7e-05	3
13011	-0.00016	-0.0002	1e-05	0	1e-05	3e-05	0	-7e-05	3
13012	-0.00016	-0.0002	1e-05	0	1e-05	3e-05	0	-7e-05	3
13013	-0.00016	-0.0002	1e-05	0	1e-05	3e-05	0	-7e-05	3
13014	5e-05	4e-05	0	-1e-05	0	2e-05	-4e-05	0	3
13015	5e-05	4e-05	0	-1e-05	0	2e-05	-4e-05	0	3
13016	0.00016	0.0001	-0.00011	-2e-05	0	-1e-05	0	3e-05	3
13017	0.00016	0.0001	-0.00011	-2e-05	0	-1e-05	0	3e-05	3
13018	0.00016	0.0001	-0.00011	-2e-05	0	-1e-05	0	3e-05	3
13019	0.00016	0.0001	-0.00011	-2e-05	0	-1e-05	0	3e-05	3
13020	0.00016	0.0001	-0.00011	-2e-05	0	-1e-05	0	3e-05	3
13021	0.00016	0.0001	-0.00011	-2e-05	0	-1e-05	0	3e-05	3
13022	0.00016	0.0001	-0.00011	-2e-05	0	-1e-05	0	3e-05	3
13023	0.00016	0.0001	-0.00011	-2e-05	0	-1e-05	0	3e-05	3
13024	0.00016	0.0001	-0.00011	-2e-05	0	-1e-05	0	3e-05	3
13025	0.00016	0.0001	-0.00011	-2e-05	0	-1e-05	0	3e-05	3
13026	0.00016	0.0001	-0.00011	-2e-05	0	-1e-05	0	3e-05	3
13027	0.00016	0.0001	-0.00011	-2e-05	0	-1e-05	0	3e-05	3
13028	0.00016	0.0001	-0.00011	-2e-05	0	-1e-05	0	3e-05	3
13029	-5e-05	0	1e-05	-1e-05	-1e-05	0	-4e-05	1e-05	3
13030	-5e-05	0	1e-05	-1e-05	-1e-05	0	-4e-05	1e-05	3
13031	-5e-05	0	1e-05	-1e-05	-1e-05	0	-4e-05	1e-05	3
13032	-5e-05	0	1e-05	-1e-05	-1e-05	0	-4e-05	1e-05	3
13033	-5e-05	0	1e-05	-1e-05	-1e-05	0	-4e-05	1e-05	3
13034	-5e-05	0	1e-05	-1e-05	-1e-05	0	-4e-05	1e-05	3
13035	-5e-05	0	1e-05	-1e-05	-1e-05	0	-4e-05	1e-05	3
13036	0	0.0001	4e-05	-1e-05	0	0	-2e-05	6e-05	3
13038	0	0.0001	4e-05	-1e-05	0	0	-2e-05	6e-05	3
13039	0	0.0001	4e-05	-1e-05	0	0	-2e-05	6e-05	3
13040	0	0.0001	4e-05	-1e-05	0	0	-2e-05	6e-05	3
13041	0	0.0001	4e-05	-1e-05	0	0	-2e-05	6e-05	3
13042	0	0.0001	4e-05	-1e-05	0	0	-2e-05	6e-05	3
13043	0	0.0001	4e-05	-1e-05	0	0	-2e-05	6e-05	3
13044	0	0.0001	4e-05	-1e-05	0	0	-2e-05	6e-05	3
13045	0	0.0001	4e-05	-1e-05	0	0	-2e-05	6e-05	3
13046	0	0.0001	4e-05	-1e-05	0	0	-2e-05	6e-05	3
13047	0	0.0001	4e-05	-1e-05	0	0	-2e-05	6e-05	3
13048	0	0.0001	4e-05	-1e-05	0	0	-2e-05	6e-05	3
13049	0	0.0001	4e-05	-1e-05	0	0	-2e-05	6e-05	3
13050	0	0.0001	4e-05	-1e-05	0	0	-2e-05	6e-05	3
13051	0	0.0001	4e-05	-1e-05	0	0	-2e-05	6e-05	3
13052	-0.00021	-0.00056	-7e-05	-1e-05	-2e-05	3e-05	0	-6e-05	3
13053	-0.00012	-0.00019	-4e-05	-2e-05	-3e-05	2e-05	0	-5e-05	3
13054	-0.00012	-0.00019	-4e-05	-2e-05	-3e-05	2e-05	0	-5e-05	3
13055	-0.00012	-0.00019	-4e-05	-2e-05	-3e-05	2e-05	0	-5e-05	3
13056	-0.00012	-0.00019	-4e-05	-2e-05	-3e-05	2e-05	0	-5e-05	3
13057	-0.00012	-0.00019	-4e-05	-2e-05	-3e-05	2e-05	0	-5e-05	3
13058	-0.00012	-0.00019	-4e-05	-2e-05	-3e-05	2e-05	0	-5e-05	3
13059	-0.00012	-0.00019	-4e-05	-2e-05	-3e-05	2e-05	0	-5e-05	3
13060	-0.00012	-0.00019	-4e-05	-2e-05	-3e-05	2e-05	0	-5e-05	3
13061	-0.00012	-0.00019	-4e-05	-2e-05	-3e-05	2e-05	0	-5e-05	3
13062	-0.00012	-0.00019	-4e-05	-2e-05	-3e-05	2e-05	0	-5e-05	3
13063	-0.00012	-0.00019	-4e-05	-2e-05	-3e-05	2e-05	0	-5e-05	3
13064	-0.00012	-0.00019	-4e-05	-2e-05	-3e-05	2e-05	0	-5e-05	3
13065	-0.00012	-0.00019	-4e-05	-2e-05	-3e-05	2e-05	0	-5e-05	3
13066	-0.00012	-0.00019	-4e-05	-2e-05	-3e-05	2e-05	0	-5e-05	3
13067	-0.00012	-0.00019	-4e-05	-2e-05	-3e-05	2e-05	0	-5e-05	3
13068	-0.00012	-0.00019	-4e-05	-2e-05	-3e-05	2e-05	0	-5e-05	3
13069	-0.00012	-0.00019	-4e-05	-2e-05	-3e-05	2e-05	0	-5e-05	3
13070	-0.00012	-0.00019	-4e-05	-2e-05	-3e-05	2e-05	0	-5e-05	3
13071	-0.00012	-0.00019	-4e-05	-2e-05	-3e-05	2e-05	0	-5e-05	3
13072	-0.00012	-0.00019	-4e-05	-2e-05	-3e-05	2e-05	0	-5e-05	3
13073	-0.00012	-0.00019	-4e-05	-2e-05	-3e-05	2e-05	0	-5e-05	3
13074	-4e-05	-5e-05	0	-4e-05	-2e-05	2e-05	1e-05	1e-05	3
13075	-4e-05	-5e-05	0	-4e-05	-2e-05	2e-05	1e-05	1e-05	3
13076	-1e-05	-9e-05	-3e-05	-3e-05	0	-3e-05	-3e-05	-1e-05	3
13077	-1e-05	-9e-05	-3e-05	-3e-05	0	-3e-05	-3e-05	-1e-05	3
13078	-1e-05	-9e-05	-3e-05	-3e-05	0	-3e-05	-3e-05	-1e-05	3
13079	-1e-05	-9e-05	-3e-05	-3e-05	0	-3e-05	-3e-05	-1e-05	3
13080	-1e-05	-9e-05	-3e-05	-3e-05	0	-3e-05	-3e-05	-1e-05	3
13081	-1e-05	-9e-05	-3e-05	-3e-05	0	-3e-05	-3e-05	-1e-05	3
13082	-1e-05	-9e-05	-3e-05	-3e-05	0	-3e-05	-3e-05	-1e-05	3
13083	-1e-05	-9e-05	-3e-05	-3e-05	0	-3e-05	-3e-05	-1e-05	3
13084	-1e-05	-9e-05	-3e-05	-3e-05	0	-3e-05	-3e-05	-1e-05	3
13085	-1e-05	-9e-05	-3e-05	-3e-05	0	-3e-05	-3e-05	-1e-05	3
13086	-1e-05	-9e-05	-3e-05	-3e-05	0	-3e-05	-3e-05	-1e-05	3
13088	-1e-05	-9e-05	-3e-05	-3e-05	0	-3e-05	-3e-05	-1e-05	3
13089	4e-05	6e-05	-2e-05	1e-05	-2e-05	-1e-05	2e-05	3e-05	3
13090	4e-05	6e-05	-2e-05	1e-05	-2e-05	-1e-05	2e-05	3e-05	3
13091	4e-05	6e-05	-2e-05	1e-05	-2e-05	-1e-05	2e-05	3e-05	3
13092	4e-05	6e-05	-2e-05	1e-05	-2e-05	-1e-05	2e-05	3e-05	3
13093	4e-05	6e-05	-2e-05	1e-05	-2e-05	-1e-05	2e-05	3e-05	3
13094	4e-05	6e-05	-2e-05	1e-05	-2e-05	-1e-05	2e-05	3e-05	3
13095	4e-05	6e-05	-2e-05	1e-05	-2e-05	-1e-05	2e-05	3e-05	3
13096	5e-05	-4e-05	-2e-05	-3e-05	-3e-05	-5e-05	-8e-05	9e-05	3
13097	5e-05	-4e-05	-2e-05	-3e-05	-3e-05	-5e-05	-8e-05	9e-05	3
13098	5e-05	-4e-05	-2e-05	-3e-05	-3e-05	-5e-05	-8e-05	9e-05	3
13099	5e-05	-4e-05	-2e-05	-3e-05	-3e-05	-5e-05	-8e-05	9e-05	3
13100	5e-05	-4e-05	-2e-05	-3e-05	-3e-05	-5e-05	-8e-05	9e-05	3
13101	5e-05	-4e-05	-2e-05	-3e-05	-3e-05	-5e-05	-8e-05	9e-05	3
13102	5e-05	-4e-05	-2e-05	-3e-05	-3e-05	-5e-05	-8e-05	9e-05	3
13103	5e-05	-4e-05	-2e-05	-3e-05	-3e-05	-5e-05	-8e-05	9e-05	3
13104	5e-05	-4e-05	-2e-05	-3e-05	-3e-05	-5e-05	-8e-05	9e-05	3
13105	5e-05	-4e-05	-2e-05	-3e-05	-3e-05	-5e-05	-8e-05	9e-05	3
13106	5e-05	-4e-05	-2e-05	-3e-05	-3e-05	-5e-05	-8e-05	9e-05	3
13107	5e-05	-4e-05	-2e-05	-3e-05	-3e-05	-5e-05	-8e-05	9e-05	3
13108	5e-05	-4e-05	-2e-05	-3e-05	-3e-05	-5e-05	-8e-05	9e-05	3
13109	5e-05	-4e-05	-2e-05	-3e-05	-3e-05	-5e-05	-8e-05	9e-05	3
13110	5e-05	-4e-05	-2e-05	-3e-05	-3e-05	-5e-05	-8e-05	9e-05	3
13111	5e-05	-4e-05	-2e-05	-3e-05	-3e-05	-5e-05	-8e-05	9e-05	3
13112	9e-05	0.00014	1e-05	-1e-05	1e-05	-2e-05	-1e-05	-2e-05	3
13113	9e-05	0.00014	1e-05	-1e-05	1e-05	-2e-05	-1e-05	-2e-05	3
13114	-9e-05	5e-05	-1e-05	1e-05	-1e-05	1e-05	-2e-05	-0.0003	3
13115	-9e-05	5e-05	-1e-05	1e-05	-1e-05	1e-05	-2e-05	-0.0003	3
13116	-9e-05	5e-05	-1e-05	1e-05	-1e-05	1e-05	-2e-05	-0.0003	3
13117	-9e-05	5e-05	-1e-05	1e-05	-1e-05	1e-05	-2e-05	-0.0003	3
13118	-9e-05	5e-05	-1e-05	1e-05	-1e-05	1e-05	-2e-05	-0.0003	3
13119	-9e-05	5e-05	-1e-05	1e-05	-1e-05	1e-05	-2e-05	-0.0003	3
13120	-9e-05	5e-05	-1e-05	1e-05	-1e-05	1e-05	-2e-05	-0.0003	3
13121	-9e-05	5e-05	-1e-05	1e-05	-1e-05	1e-05	-2e-05	-0.0003	3
13122	-9e-05	5e-05	-1e-05	1e-05	-1e-05	1e-05	-2e-05	-0.0003	3
13123	-9e-05	5e-05	-1e-05	1e-05	-1e-05	1e-05	-2e-05	-0.0003	3
13124	-9e-05	5e-05	-1e-05	1e-05	-1e-05	1e-05	-2e-05	-0.0003	3
13125	-9e-05	5e-05	-1e-05	1e-05	-1e-05	1e-05	-2e-05	-0.0003	3
13126	-9e-05	5e-05	-1e-05	1e-05	-1e-05	1e-05	-2e-05	-0.0003	3
13127	-9e-05	5e-05	-1e-05	1e-05	-1e-05	1e-05	-2e-05	-0.0003	3
13128	-9e-05	5e-05	-1e-05	1e-05	-1e-05	1e-05	-2e-05	-0.0003	3
13129	-9e-05	5e-05	-1e-05	1e-05	-1e-05	1e-05	-2e-05	-0.0003	3
13130	-9e-05	5e-05	-1e-05	1e-05	-1e-05	1e-05	-2e-05	-0.0003	3
13131	-9e-05	5e-05	-1e-05	1e-05	-1e-05	1e-05	-2e-05	-0.0003	3
13132	-9e-05	5e-05	-1e-05	1e-05	-1e-05	1e-05	-2e-05	-0.0003	3
13133	-9e-05	5e-05	-1e-05	1e-05	-1e-05	1e-05	-2e-05	-0.0003	3
13134	-3e-05	2e-05	0	-2e-05	-2e-05	0	-1e-05	2e-05	3
13135	-3e-05	2e-05	0	-2e-05	-2e-05	0	-1e-05	2e-05	3
13136	-4e-05	5e-05	3e-05	-1e-05	0	2e-05	1e-05	7e-05	3
13138	-4e-05	5e-05	3e-05	-1e-05	0	2e-05	1e-05	7e-05	3
13139	-4e-05	5e-05	3e-05	-1e-05	0	2e-05	1e-05	7e-05	3
13140	-4e-05	5e-05	3e-05	-1e-05	0	2e-05	1e-05	7e-05	3
13141	-4e-05	5e-05	3e-05	-1e-05	0	2e-05	1e-05	7e-05	3
13142	-4e-05	5e-05	3e-05	-1e-05	0	2e-05	1e-05	7e-05	3
13143	-4e-05	5e-05	3e-05	-1e-05	0	2e-05	1e-05	7e-05	3
13144	-4e-05	5e-05	3e-05	-1e-05	0	2e-05	1e-05	7e-05	3
13145	-4e-05	5e-05	3e-05	-1e-05	0	2e-05	1e-05	7e-05	3
13146	-4e-05	5e-05	3e-05	-1e-05	0	2e-05	1e-05	7e-05	3
13147	-4e-05	5e-05	3e-05	-1e-05	0	2e-05	1e-05	7e-05	3
13148	-4e-05	5e-05	3e-05	-1e-05	0	2e-05	1e-05	7e-05	3
13149	6e-05	7e-05	-6e-05	-1e-05	0	-1e-05	-2e-05	-7e-05	3
13150	6e-05	7e-05	-6e-05	-1e-05	0	-1e-05	-2e-05	-7e-05	3
13151	6e-05	7e-05	-6e-05	-1e-05	0	-1e-05	-2e-05	-7e-05	3
13152	6e-05	7e-05	-6e-05	-1e-05	0	-1e-05	-2e-05	-7e-05	3
13153	6e-05	7e-05	-6e-05	-1e-05	0	-1e-05	-2e-05	-7e-05	3
13154	6e-05	7e-05	-6e-05	-1e-05	0	-1e-05	-2e-05	-7e-05	3
13155	6e-05	7e-05	-6e-05	-1e-05	0	-1e-05	-2e-05	-7e-05	3
13156	3e-05	2e-05	1e-05	0	-1e-05	2e-05	-1e-05	2e-05	3
13157	3e-05	2e-05	1e-05	0	-1e-05	2e-05	-1e-05	2e-05	3
13158	3e-05	2e-05	1e-05	0	-1e-05	2e-05	-1e-05	2e-05	3
13159	3e-05	2e-05	1e-05	0	-1e-05	2e-05	-1e-05	2e-05	3
13160	3e-05	2e-05	1e-05	0	-1e-05	2e-05	-1e-05	2e-05	3
13161	3e-05	2e-05	1e-05	0	-1e-05	2e-05	-1e-05	2e-05	3
13162	3e-05	2e-05	1e-05	0	-1e-05	2e-05	-1e-05	2e-05	3
13163	3e-05	2e-05	1e-05	0	-1e-05	2e-05	-1e-05	2e-05	3
13164	3e-05	2e-05	1e-05	0	-1e-05	2e-05	-1e-05	2e-05	3
13165	3e-05	2e-05	1e-05	0	-1e-05	2e-05	-1e-05	2e-05	3
13166	3e-05	2e-05	1e-05	0	-1e-05	2e-05	-1e-05	2e-05	3
13167	3e-05	2e-05	1e-05	0	-1e-05	2e-05	-1e-05	2e-05	3
13168	3e-05	2e-05	1e-05	0	-1e-05	2e-05	-1e-05	2e-05	3
13169	3e-05	2e-05	1e-05	0	-1e-05	2e-05	-1e-05	2e-05	3
13170	3e-05	2e-05	1e-05	0	-1e-05	2e-05	-1e-05	2e-05	3
13171	3e-05	2e-05	1e-05	0	-1e-05	2e-05	-1e-05	2e-05	3
13172	-3e-05	-3e-05	-1e-05	-3e-05	-1e-05	-2e-05	-1e-05	5e-05	3
13173	-3e-05	-3e-05	-1e-05	-3e-05	-1e-05	-2e-05	-1e-05	5e-05	3
13174	-3e-05	-3e-05	-1e-05	-3e-05	-1e-05	-2e-05	-1e-05	5e-05	3
13175	-3e-05	-3e-05	-1e-05	-3e-05	-1e-05	-2e-05	-1e-05	5e-05	3
13176	-3e-05	-3e-05	-1e-05	-3e-05	-1e-05	-2e-05	-1e-05	5e-05	3
13177	-3e-05	-3e-05	-1e-05	-3e-05	-1e-05	-2e-05	-1e-05	5e-05	3
13178	-0.00012	-0.00035	-7e-05	-2e-05	-1e-05	1e-05	1e-05	-2e-05	3
13179	-0.00012	-0.00035	-7e-05	-2e-05	-1e-05	1e-05	1e-05	-2e-05	3
13180	-0.00012	-0.00035	-7e-05	-2e-05	-1e-05	1e-05	1e-05	-2e-05	3
13181	-0.00012	-0.00035	-7e-05	-2e-05	-1e-05	1e-05	1e-05	-2e-05	3
13182	-0.00012	-0.00035	-7e-05	-2e-05	-1e-05	1e-05	1e-05	-2e-05	3
13183	-0.00012	-0.00035	-7e-05	-2e-05	-1e-05	1e-05	1e-05	-2e-05	3
13184	-0.00012	-0.00035	-7e-05	-2e-05	-1e-05	1e-05	1e-05	-2e-05	3
13185	-0.00012	-0.00035	-7e-05	-2e-05	-1e-05	1e-05	1e-05	-2e-05	3
13186	-0.00012	-0.00035	-7e-05	-2e-05	-1e-05	1e-05	1e-05	-2e-05	3
13188	-0.00012	-0.00035	-7e-05	-2e-05	-1e-05	1e-05	1e-05	-2e-05	3
13189	-0.00012	-0.00035	-7e-05	-2e-05	-1e-05	1e-05	1e-05	-2e-05	3
13190	-0.00012	-0.00035	-7e-05	-2e-05	-1e-05	1e-05	1e-05	-2e-05	3
13191	-0.00012	-0.00035	-7e-05	-2e-05	-1e-05	1e-05	1e-05	-2e-05	3
13192	-0.00012	-0.00035	-7e-05	-2e-05	-1e-05	1e-05	1e-05	-2e-05	3
13193	-0.00012	-0.00035	-7e-05	-2e-05	-1e-05	1e-05	1e-05	-2e-05	3
13194	-0.00012	-0.00035	-7e-05	-2e-05	-1e-05	1e-05	1e-05	-2e-05	3
13195	2e-05	0.00014	5e-05	3e-05	2e-05	0	0	-3e-05	3
13196	-1e-05	-7e-05	-2e-05	-2e-05	-2e-05	-1e-05	-3e-05	-9e-05	3
13197	-1e-05	-7e-05	-2e-05	-2e-05	-2e-05	-1e-05	-3e-05	-9e-05	3
13198	-1e-05	-7e-05	-2e-05	-2e-05	-2e-05	-1e-05	-3e-05	-9e-05	3
13199	-1e-05	-7e-05	-2e-05	-2e-05	-2e-05	-1e-05	-3e-05	-9e-05	3
13200	-1e-05	-7e-05	-2e-05	-2e-05	-2e-05	-1e-05	-3e-05	-9e-05	3
13201	-1e-05	-7e-05	-2e-05	-2e-05	-2e-05	-1e-05	-3e-05	-9e-05	3
13202	-1e-05	-7e-05	-2e-05	-2e-05	-2e-05	-1e-05	-3e-05	-9e-05	3
13203	-1e-05	-7e-05	-2e-05	-2e-05	-2e-05	-1e-05	-3e-05	-9e-05	3
13204	-1e-05	-7e-05	-2e-05	-2e-05	-2e-05	-1e-05	-3e-05	-9e-05	3
13205	-1e-05	-7e-05	-2e-05	-2e-05	-2e-05	-1e-05	-3e-05	-9e-05	3
13206	-1e-05	-7e-05	-2e-05	-2e-05	-2e-05	-1e-05	-3e-05	-9e-05	3
13207	-1e-05	-7e-05	-2e-05	-2e-05	-2e-05	-1e-05	-3e-05	-9e-05	3
13208	-1e-05	-7e-05	-2e-05	-2e-05	-2e-05	-1e-05	-3e-05	-9e-05	3
13209	-0.00013	-0.00028	-5e-05	-1e-05	-3e-05	-2e-05	-3e-05	-2e-05	3
13210	-0.00013	-0.00028	-5e-05	-1e-05	-3e-05	-2e-05	-3e-05	-2e-05	3
13211	-0.00013	-0.00028	-5e-05	-1e-05	-3e-05	-2e-05	-3e-05	-2e-05	3
13212	-0.00013	-0.00028	-5e-05	-1e-05	-3e-05	-2e-05	-3e-05	-2e-05	3
13213	-0.00013	-0.00028	-5e-05	-1e-05	-3e-05	-2e-05	-3e-05	-2e-05	3
13214	-0.00013	-0.00028	-5e-05	-1e-05	-3e-05	-2e-05	-3e-05	-2e-05	3
13215	-0.00013	-0.00028	-5e-05	-1e-05	-3e-05	-2e-05	-3e-05	-2e-05	3
13216	4e-05	0.00014	5e-05	2e-05	1e-05	-1e-05	2e-05	6e-05	3
13217	4e-05	0.00014	5e-05	2e-05	1e-05	-1e-05	2e-05	6e-05	3
13218	4e-05	0.00014	5e-05	2e-05	1e-05	-1e-05	2e-05	6e-05	3
13219	4e-05	0.00014	5e-05	2e-05	1e-05	-1e-05	2e-05	6e-05	3
13220	4e-05	0.00014	5e-05	2e-05	1e-05	-1e-05	2e-05	6e-05	3
13221	4e-05	0.00014	5e-05	2e-05	1e-05	-1e-05	2e-05	6e-05	3
13222	4e-05	0.00014	5e-05	2e-05	1e-05	-1e-05	2e-05	6e-05	3
13223	4e-05	0.00014	5e-05	2e-05	1e-05	-1e-05	2e-05	6e-05	3
13224	4e-05	0.00014	5e-05	2e-05	1e-05	-1e-05	2e-05	6e-05	3
13225	4e-05	0.00014	5e-05	2e-05	1e-05	-1e-05	2e-05	6e-05	3
13226	4e-05	0.00014	5e-05	2e-05	1e-05	-1e-05	2e-05	6e-05	3
13227	4e-05	0.00014	5e-05	2e-05	1e-05	-1e-05	2e-05	6e-05	3
13228	4e-05	0.00014	5e-05	2e-05	1e-05	-1e-05	2e-05	6e-05	3
13229	4e-05	0.00014	5e-05	2e-05	1e-05	-1e-05	2e-05	6e-05	3
13230	4e-05	0.00014	5e-05	2e-05	1e-05	-1e-05	2e-05	6e-05	3
13231	4e-05	0.00014	5e-05	2e-05	1e-05	-1e-05	2e-05	6e-05	3
13232	1e-05	9e-05	-2e-05	-2e-05	-2e-05	0	1e-05	-0.00022	3
13233	1e-05	9e-05	-2e-05	-2e-05	-2e-05	0	1e-05	-0.00022	3
13234	0	6e-05	1e-05	0	-2e-05	-5e-05	-2e-05	1e-05	3
13235	0	6e-05	1e-05	0	-2e-05	-5e-05	-2e-05	1e-05	3
13236	0	6e-05	1e-05	0	-2e-05	-5e-05	-2e-05	1e-05	3
13238	0	6e-05	1e-05	0	-2e-05	-5e-05	-2e-05	1e-05	3
13239	0	6e-05	1e-05	0	-2e-05	-5e-05	-2e-05	1e-05	3
13240	0	6e-05	1e-05	0	-2e-05	-5e-05	-2e-05	1e-05	3
13241	0	6e-05	1e-05	0	-2e-05	-5e-05	-2e-05	1e-05	3
13242	0	6e-05	1e-05	0	-2e-05	-5e-05	-2e-05	1e-05	3
13243	0	6e-05	1e-05	0	-2e-05	-5e-05	-2e-05	1e-05	3
13244	0	6e-05	1e-05	0	-2e-05	-5e-05	-2e-05	1e-05	3
13245	0	6e-05	1e-05	0	-2e-05	-5e-05	-2e-05	1e-05	3
13246	0	6e-05	1e-05	0	-2e-05	-5e-05	-2e-05	1e-05	3
13247	0	6e-05	1e-05	0	-2e-05	-5e-05	-2e-05	1e-05	3
13248	0	6e-05	1e-05	0	-2e-05	-5e-05	-2e-05	1e-05	3
13249	0	6e-05	1e-05	0	-2e-05	-5e-05	-2e-05	1e-05	3
13250	0	6e-05	1e-05	0	-2e-05	-5e-05	-2e-05	1e-05	3
13251	0	6e-05	1e-05	0	-2e-05	-5e-05	-2e-05	1e-05	3
13252	0	6e-05	1e-05	0	-2e-05	-5e-05	-2e-05	1e-05	3
13253	0	6e-05	1e-05	0	-2e-05	-5e-05	-2e-05	1e-05	3
13254	9e-05	9e-05	1e-05	-2e-05	-1e-05	-1e-05	1e-05	4e-05	3
13255	9e-05	9e-05	1e-05	-2e-05	-1e-05	-1e-05	1e-05	4e-05	3
13256	-2e-05	7e-05	-8e-05	1e-05	-3e-05	-3e-05	-1e-05	-1e-05	3
13257	-2e-05	7e-05	-8e-05	1e-05	-3e-05	-3e-05	-1e-05	-1e-05	3
13258	-2e-05	7e-05	-8e-05	1e-05	-3e-05	-3e-05	-1e-05	-1e-05	3
13259	-2e-05	7e-05	-8e-05	1e-05	-3e-05	-3e-05	-1e-05	-1e-05	3
13260	-2e-05	7e-05	-8e-05	1e-05	-3e-05	-3e-05	-1e-05	-1e-05	3
13261	-2e-05	7e-05	-8e-05	1e-05	-3e-05	-3e-05	-1e-05	-1e-05	3
13262	-2e-05	7e-05	-8e-05	1e-05	-3e-05	-3e-05	-1e-05	-1e-05	3
13263	-2e-05	7e-05	-8e-05	1e-05	-3e-05	-3e-05	-1e-05	-1e-05	3
13264	-2e-05	7e-05	-8e-05	1e-05	-3e-05	-3e-05	-1e-05	-1e-05	3
13265	-2e-05	7e-05	-8e-05	1e-05	-3e-05	-3e-05	-1e-05	-1e-05	3
13266	-2e-05	7e-05	-8e-05	1e-05	-3e-05	-3e-05	-1e-05	-1e-05	3
13267	-2e-05	7e-05	-8e-05	1e-05	-3e-05	-3e-05	-1e-05	-1e-05	3
13268	-2e-05	7e-05	-8e-05	1e-05	-3e-05	-3e-05	-1e-05	-1e-05	3
13269	-2e-05	-1e-05	1e-05	-1e-05	-1e-05	0	-2e-05	3e-05	3
13270	-2e-05	-1e-05	1e-05	-1e-05	-1e-05	0	-2e-05	3e-05	3
13271	-2e-05	-1e-05	1e-05	-1e-05	-1e-05	0	-2e-05	3e-05	3
13272	-2e-05	-1e-05	1e-05	-1e-05	-1e-05	0	-2e-05	3e-05	3
13273	-2e-05	-1e-05	1e-05	-1e-05	-1e-05	0	-2e-05	3e-05	3
13274	-2e-05	-1e-05	1e-05	-1e-05	-1e-05	0	-2e-05	3e-05	3
13275	-2e-05	-1e-05	1e-05	-1e-05	-1e-05	0	-2e-05	3e-05	3
13276	6e-05	7e-05	3e-05	-1e-05	0	-1e-05	-4e-05	0.00013	3
13277	6e-05	7e-05	3e-05	-1e-05	0	-1e-05	-4e-05	0.00013	3
13278	6e-05	7e-05	3e-05	-1e-05	0	-1e-05	-4e-05	0.00013	3
13279	6e-05	7e-05	3e-05	-1e-05	0	-1e-05	-4e-05	0.00013	3
13280	6e-05	7e-05	3e-05	-1e-05	0	-1e-05	-4e-05	0.00013	3
13281	6e-05	7e-05	3e-05	-1e-05	0	-1e-05	-4e-05	0.00013	3
13282	6e-05	7e-05	3e-05	-1e-05	0	-1e-05	-4e-05	0.00013	3
13283	6e-05	7e-05	3e-05	-1e-05	0	-1e-05	-4e-05	0.00013	3
13284	6e-05	7e-05	3e-05	-1e-05	0	-1e-05	-4e-05	0.00013	3
13285	6e-05	7e-05	3e-05	-1e-05	0	-1e-05	-4e-05	0.00013	3
13286	6e-05	7e-05	3e-05	-1e-05	0	-1e-05	-4e-05	0.00013	3
13288	6e-05	7e-05	3e-05	-1e-05	0	-1e-05	-4e-05	0.00013	3
13289	6e-05	7e-05	3e-05	-1e-05	0	-1e-05	-4e-05	0.00013	3
13290	6e-05	7e-05	3e-05	-1e-05	0	-1e-05	-4e-05	0.00013	3
13291	6e-05	7e-05	3e-05	-1e-05	0	-1e-05	-4e-05	0.00013	3
13292	-5e-05	-3e-05	-1e-05	-1e-05	0	-1e-05	-1e-05	4e-05	3
13293	-5e-05	-3e-05	-1e-05	-1e-05	0	-1e-05	-1e-05	4e-05	3
13294	4e-05	8e-05	0	-2e-05	-1e-05	0	0	-5e-05	3
13295	4e-05	8e-05	0	-2e-05	-1e-05	0	0	-5e-05	3
13296	4e-05	8e-05	0	-2e-05	-1e-05	0	0	-5e-05	3
13297	4e-05	8e-05	0	-2e-05	-1e-05	0	0	-5e-05	3
13298	4e-05	8e-05	0	-2e-05	-1e-05	0	0	-5e-05	3
13299	4e-05	8e-05	0	-2e-05	-1e-05	0	0	-5e-05	3
13300	4e-05	8e-05	0	-2e-05	-1e-05	0	0	-5e-05	3
13301	4e-05	8e-05	0	-2e-05	-1e-05	0	0	-5e-05	3
13302	4e-05	8e-05	0	-2e-05	-1e-05	0	0	-5e-05	3
13303	4e-05	8e-05	0	-2e-05	-1e-05	0	0	-5e-05	3
13304	4e-05	8e-05	0	-2e-05	-1e-05	0	0	-5e-05	3
13305	4e-05	8e-05	0	-2e-05	-1e-05	0	0	-5e-05	3
13306	4e-05	8e-05	0	-2e-05	-1e-05	0	0	-5e-05	3
13307	4e-05	8e-05	0	-2e-05	-1e-05	0	0	-5e-05	3
13308	4e-05	8e-05	0	-2e-05	-1e-05	0	0	-5e-05	3
13309	4e-05	8e-05	0	-2e-05	-1e-05	0	0	-5e-05	3
13310	4e-05	8e-05	0	-2e-05	-1e-05	0	0	-5e-05	3
13311	4e-05	8e-05	0	-2e-05	-1e-05	0	0	-5e-05	3
13312	4e-05	8e-05	0	-2e-05	-1e-05	0	0	-5e-05	3
13313	4e-05	8e-05	0	-2e-05	-1e-05	0	0	-5e-05	3
13314	5e-05	0.00015	1e-05	-3e-05	-3e-05	-2e-05	1e-05	3e-05	3
13315	3e-05	2e-05	3e-05	0	-1e-05	-3e-05	-3e-05	-1e-05	3
13316	2e-05	7e-05	1e-05	-1e-05	0	-2e-05	-4e-05	4e-05	3
13317	2e-05	7e-05	1e-05	-1e-05	0	-2e-05	-4e-05	4e-05	3
13318	2e-05	7e-05	1e-05	-1e-05	0	-2e-05	-4e-05	4e-05	3
13319	2e-05	7e-05	1e-05	-1e-05	0	-2e-05	-4e-05	4e-05	3
13320	2e-05	7e-05	1e-05	-1e-05	0	-2e-05	-4e-05	4e-05	3
13321	2e-05	7e-05	1e-05	-1e-05	0	-2e-05	-4e-05	4e-05	3
13322	2e-05	7e-05	1e-05	-1e-05	0	-2e-05	-4e-05	4e-05	3
13323	2e-05	7e-05	1e-05	-1e-05	0	-2e-05	-4e-05	4e-05	3
13324	2e-05	7e-05	1e-05	-1e-05	0	-2e-05	-4e-05	4e-05	3
13325	2e-05	7e-05	1e-05	-1e-05	0	-2e-05	-4e-05	4e-05	3
13326	2e-05	7e-05	1e-05	-1e-05	0	-2e-05	-4e-05	4e-05	3
13327	2e-05	7e-05	1e-05	-1e-05	0	-2e-05	-4e-05	4e-05	3
13328	0	0	0	-2e-05	-1e-05	-2e-05	1e-05	4e-05	3
13329	0	0	0	-2e-05	-1e-05	-2e-05	1e-05	4e-05	3
13330	0	0	0	-2e-05	-1e-05	-2e-05	1e-05	4e-05	3
13331	0	0	0	-2e-05	-1e-05	-2e-05	1e-05	4e-05	3
13332	0	0	0	-2e-05	-1e-05	-2e-05	1e-05	4e-05	3
13333	0	0	0	-2e-05	-1e-05	-2e-05	1e-05	4e-05	3
13334	0	0	0	-2e-05	-1e-05	-2e-05	1e-05	4e-05	3
13335	0	0	0	-2e-05	-1e-05	-2e-05	1e-05	4e-05	3
13336	0	0	0	-2e-05	-1e-05	-2e-05	1e-05	4e-05	3
13338	-9e-05	-0.00023	-3e-05	-1e-05	-3e-05	-1e-05	4e-05	-2e-05	3
13339	-9e-05	-0.00023	-3e-05	-1e-05	-3e-05	-1e-05	4e-05	-2e-05	3
13340	-9e-05	-0.00023	-3e-05	-1e-05	-3e-05	-1e-05	4e-05	-2e-05	3
13341	-9e-05	-0.00023	-3e-05	-1e-05	-3e-05	-1e-05	4e-05	-2e-05	3
13342	-9e-05	-0.00023	-3e-05	-1e-05	-3e-05	-1e-05	4e-05	-2e-05	3
13343	-9e-05	-0.00023	-3e-05	-1e-05	-3e-05	-1e-05	4e-05	-2e-05	3
13344	-9e-05	-0.00023	-3e-05	-1e-05	-3e-05	-1e-05	4e-05	-2e-05	3
13345	-9e-05	-0.00023	-3e-05	-1e-05	-3e-05	-1e-05	4e-05	-2e-05	3
13346	-9e-05	-0.00023	-3e-05	-1e-05	-3e-05	-1e-05	4e-05	-2e-05	3
13347	-9e-05	-0.00023	-3e-05	-1e-05	-3e-05	-1e-05	4e-05	-2e-05	3
13348	-9e-05	-0.00023	-3e-05	-1e-05	-3e-05	-1e-05	4e-05	-2e-05	3
13349	-9e-05	-0.00023	-3e-05	-1e-05	-3e-05	-1e-05	4e-05	-2e-05	3
13350	-9e-05	-0.00023	-3e-05	-1e-05	-3e-05	-1e-05	4e-05	-2e-05	3
13351	-9e-05	-0.00023	-3e-05	-1e-05	-3e-05	-1e-05	4e-05	-2e-05	3
13352	-2e-05	4e-05	0	-1e-05	-1e-05	0	0	1e-05	3
13353	-2e-05	-2e-05	-1e-05	-5e-05	-1e-05	-3e-05	-2e-05	-0.00017	3
13354	-2e-05	-2e-05	-1e-05	-5e-05	-1e-05	-3e-05	-2e-05	-0.00017	3
13355	-2e-05	-2e-05	-1e-05	-5e-05	-1e-05	-3e-05	-2e-05	-0.00017	3
13356	-2e-05	-2e-05	-1e-05	-5e-05	-1e-05	-3e-05	-2e-05	-0.00017	3
13357	-2e-05	-2e-05	-1e-05	-5e-05	-1e-05	-3e-05	-2e-05	-0.00017	3
13358	-2e-05	-2e-05	-1e-05	-5e-05	-1e-05	-3e-05	-2e-05	-0.00017	3
13359	-2e-05	-2e-05	-1e-05	-5e-05	-1e-05	-3e-05	-2e-05	-0.00017	3
13360	-2e-05	-2e-05	-1e-05	-5e-05	-1e-05	-3e-05	-2e-05	-0.00017	3
13361	-2e-05	-2e-05	-1e-05	-5e-05	-1e-05	-3e-05	-2e-05	-0.00017	3
13362	-2e-05	-2e-05	-1e-05	-5e-05	-1e-05	-3e-05	-2e-05	-0.00017	3
13363	-2e-05	-2e-05	-1e-05	-5e-05	-1e-05	-3e-05	-2e-05	-0.00017	3
13364	-2e-05	-2e-05	-1e-05	-5e-05	-1e-05	-3e-05	-2e-05	-0.00017	3
13365	-2e-05	-2e-05	-1e-05	-5e-05	-1e-05	-3e-05	-2e-05	-0.00017	3
13366	-2e-05	-2e-05	-1e-05	-5e-05	-1e-05	-3e-05	-2e-05	-0.00017	3
13367	-2e-05	-2e-05	-1e-05	-5e-05	-1e-05	-3e-05	-2e-05	-0.00017	3
13368	-2e-05	-2e-05	-1e-05	-5e-05	-1e-05	-3e-05	-2e-05	-0.00017	3
13369	-2e-05	-2e-05	-1e-05	-5e-05	-1e-05	-3e-05	-2e-05	-0.00017	3
13370	-2e-05	-2e-05	-1e-05	-5e-05	-1e-05	-3e-05	-2e-05	-0.00017	3
13371	-2e-05	-2e-05	-1e-05	-5e-05	-1e-05	-3e-05	-2e-05	-0.00017	3
13372	-2e-05	-2e-05	-1e-05	-5e-05	-1e-05	-3e-05	-2e-05	-0.00017	3
13373	-2e-05	-2e-05	-1e-05	-5e-05	-1e-05	-3e-05	-2e-05	-0.00017	3
13374	-5e-05	-8e-05	-3e-05	-1e-05	-1e-05	-6e-05	1e-05	3e-05	3
13375	3e-05	1e-05	-1e-05	1e-05	0	-1e-05	-1e-05	3e-05	3
13376	0	0	2e-05	-1e-05	-1e-05	0	1e-05	4e-05	3
13377	0	0	2e-05	-1e-05	-1e-05	0	1e-05	4e-05	3
13378	0	0	2e-05	-1e-05	-1e-05	0	1e-05	4e-05	3
13379	0	0	2e-05	-1e-05	-1e-05	0	1e-05	4e-05	3
13380	0	0	2e-05	-1e-05	-1e-05	0	1e-05	4e-05	3
13381	0	0	2e-05	-1e-05	-1e-05	0	1e-05	4e-05	3
13382	0	0	2e-05	-1e-05	-1e-05	0	1e-05	4e-05	3
13383	0	0	2e-05	-1e-05	-1e-05	0	1e-05	4e-05	3
13384	0	0	2e-05	-1e-05	-1e-05	0	1e-05	4e-05	3
13385	0	0	2e-05	-1e-05	-1e-05	0	1e-05	4e-05	3
13386	0	0	2e-05	-1e-05	-1e-05	0	1e-05	4e-05	3
13388	0	0	2e-05	-1e-05	-1e-05	0	1e-05	4e-05	3
13389	-1e-05	8e-05	0	-2e-05	-1e-05	-4e-05	-3e-05	-8e-05	3
13390	-1e-05	8e-05	0	-2e-05	-1e-05	-4e-05	-3e-05	-8e-05	3
13391	-1e-05	8e-05	0	-2e-05	-1e-05	-4e-05	-3e-05	-8e-05	3
13392	-1e-05	8e-05	0	-2e-05	-1e-05	-4e-05	-3e-05	-8e-05	3
13393	-1e-05	8e-05	0	-2e-05	-1e-05	-4e-05	-3e-05	-8e-05	3
13394	-1e-05	8e-05	0	-2e-05	-1e-05	-4e-05	-3e-05	-8e-05	3
13395	-1e-05	8e-05	0	-2e-05	-1e-05	-4e-05	-3e-05	-8e-05	3
13396	-1e-05	8e-05	0	-2e-05	-1e-05	-4e-05	-3e-05	-8e-05	3
13397	-9e-05	-0.00022	-6e-05	-1e-05	2e-05	2e-05	3e-05	0	3
13398	-9e-05	-0.00022	-6e-05	-1e-05	2e-05	2e-05	3e-05	0	3
13399	-9e-05	-0.00022	-6e-05	-1e-05	2e-05	2e-05	3e-05	0	3
13400	-9e-05	-0.00022	-6e-05	-1e-05	2e-05	2e-05	3e-05	0	3
13401	-9e-05	-0.00022	-6e-05	-1e-05	2e-05	2e-05	3e-05	0	3
13402	-9e-05	-0.00022	-6e-05	-1e-05	2e-05	2e-05	3e-05	0	3
13403	-9e-05	-0.00022	-6e-05	-1e-05	2e-05	2e-05	3e-05	0	3
13404	-9e-05	-0.00022	-6e-05	-1e-05	2e-05	2e-05	3e-05	0	3
13405	-9e-05	-0.00022	-6e-05	-1e-05	2e-05	2e-05	3e-05	0	3
13406	-9e-05	-0.00022	-6e-05	-1e-05	2e-05	2e-05	3e-05	0	3
13407	-9e-05	-0.00022	-6e-05	-1e-05	2e-05	2e-05	3e-05	0	3
13408	-9e-05	-0.00022	-6e-05	-1e-05	2e-05	2e-05	3e-05	0	3
13409	-9e-05	-0.00022	-6e-05	-1e-05	2e-05	2e-05	3e-05	0	3
13410	-9e-05	-0.00022	-6e-05	-1e-05	2e-05	2e-05	3e-05	0	3
13411	-9e-05	-0.00022	-6e-05	-1e-05	2e-05	2e-05	3e-05	0	3
13412	-2e-05	0	-3e-05	0	-1e-05	2e-05	1e-05	5e-05	3
13413	-2e-05	0	-3e-05	0	-1e-05	2e-05	1e-05	5e-05	3
13414	0.00013	0.00012	-1e-05	-3e-05	-3e-05	-3e-05	-3e-05	1e-05	3
13415	0.00013	0.00012	-1e-05	-3e-05	-3e-05	-3e-05	-3e-05	1e-05	3
13416	0.00013	0.00012	-1e-05	-3e-05	-3e-05	-3e-05	-3e-05	1e-05	3
13417	0.00013	0.00012	-1e-05	-3e-05	-3e-05	-3e-05	-3e-05	1e-05	3
13418	0.00013	0.00012	-1e-05	-3e-05	-3e-05	-3e-05	-3e-05	1e-05	3
13419	0.00013	0.00012	-1e-05	-3e-05	-3e-05	-3e-05	-3e-05	1e-05	3
13420	0.00013	0.00012	-1e-05	-3e-05	-3e-05	-3e-05	-3e-05	1e-05	3
13421	0.00013	0.00012	-1e-05	-3e-05	-3e-05	-3e-05	-3e-05	1e-05	3
13422	0.00013	0.00012	-1e-05	-3e-05	-3e-05	-3e-05	-3e-05	1e-05	3
13423	0.00013	0.00012	-1e-05	-3e-05	-3e-05	-3e-05	-3e-05	1e-05	3
13424	0.00013	0.00012	-1e-05	-3e-05	-3e-05	-3e-05	-3e-05	1e-05	3
13425	0.00013	0.00012	-1e-05	-3e-05	-3e-05	-3e-05	-3e-05	1e-05	3
13426	0.00013	0.00012	-1e-05	-3e-05	-3e-05	-3e-05	-3e-05	1e-05	3
13427	0.00013	0.00012	-1e-05	-3e-05	-3e-05	-3e-05	-3e-05	1e-05	3
13428	0.00013	0.00012	-1e-05	-3e-05	-3e-05	-3e-05	-3e-05	1e-05	3
13429	0.00013	0.00012	-1e-05	-3e-05	-3e-05	-3e-05	-3e-05	1e-05	3
13430	0.00013	0.00012	-1e-05	-3e-05	-3e-05	-3e-05	-3e-05	1e-05	3
13431	0.00013	0.00012	-1e-05	-3e-05	-3e-05	-3e-05	-3e-05	1e-05	3
13432	0.00013	0.00012	-1e-05	-3e-05	-3e-05	-3e-05	-3e-05	1e-05	3
13433	0.00013	0.00012	-1e-05	-3e-05	-3e-05	-3e-05	-3e-05	1e-05	3
13434	-0.0002	-0.00011	2e-05	-2e-05	-1e-05	1e-05	2e-05	0.00017	3
13435	1e-05	-1e-05	-7e-05	-2e-05	0	0	-4e-05	-3e-05	3
13436	0	2e-05	3e-05	2e-05	0	0	-1e-05	-3e-05	3
13438	0	2e-05	3e-05	2e-05	0	0	-1e-05	-3e-05	3
13439	0	2e-05	3e-05	2e-05	0	0	-1e-05	-3e-05	3
13440	0	2e-05	3e-05	2e-05	0	0	-1e-05	-3e-05	3
13441	0	2e-05	3e-05	2e-05	0	0	-1e-05	-3e-05	3
13442	0	2e-05	3e-05	2e-05	0	0	-1e-05	-3e-05	3
13443	0	2e-05	3e-05	2e-05	0	0	-1e-05	-3e-05	3
13444	0	2e-05	3e-05	2e-05	0	0	-1e-05	-3e-05	3
13445	0	2e-05	3e-05	2e-05	0	0	-1e-05	-3e-05	3
13446	0	2e-05	3e-05	2e-05	0	0	-1e-05	-3e-05	3
13447	0	2e-05	3e-05	2e-05	0	0	-1e-05	-3e-05	3
13448	-2e-05	1e-05	1e-05	1e-05	-3e-05	-2e-05	-1e-05	-1e-05	3
13449	-2e-05	1e-05	1e-05	1e-05	-3e-05	-2e-05	-1e-05	-1e-05	3
13450	-2e-05	1e-05	1e-05	1e-05	-3e-05	-2e-05	-1e-05	-1e-05	3
13451	-2e-05	1e-05	1e-05	1e-05	-3e-05	-2e-05	-1e-05	-1e-05	3
13452	-2e-05	1e-05	1e-05	1e-05	-3e-05	-2e-05	-1e-05	-1e-05	3
13453	-2e-05	1e-05	1e-05	1e-05	-3e-05	-2e-05	-1e-05	-1e-05	3
13454	-2e-05	1e-05	1e-05	1e-05	-3e-05	-2e-05	-1e-05	-1e-05	3
13455	-2e-05	1e-05	1e-05	1e-05	-3e-05	-2e-05	-1e-05	-1e-05	3
13456	-2e-05	1e-05	1e-05	1e-05	-3e-05	-2e-05	-1e-05	-1e-05	3
13457	-0.00016	-2e-05	-1e-05	-1e-05	-1e-05	-1e-05	3e-05	0.00023	3
13458	-0.00016	-2e-05	-1e-05	-1e-05	-1e-05	-1e-05	3e-05	0.00023	3
13459	-0.00016	-2e-05	-1e-05	-1e-05	-1e-05	-1e-05	3e-05	0.00023	3
13460	-0.00016	-2e-05	-1e-05	-1e-05	-1e-05	-1e-05	3e-05	0.00023	3
13461	-0.00016	-2e-05	-1e-05	-1e-05	-1e-05	-1e-05	3e-05	0.00023	3
13462	-0.00016	-2e-05	-1e-05	-1e-05	-1e-05	-1e-05	3e-05	0.00023	3
13463	-0.00016	-2e-05	-1e-05	-1e-05	-1e-05	-1e-05	3e-05	0.00023	3
13464	-0.00016	-2e-05	-1e-05	-1e-05	-1e-05	-1e-05	3e-05	0.00023	3
13465	-0.00016	-2e-05	-1e-05	-1e-05	-1e-05	-1e-05	3e-05	0.00023	3
13466	-0.00016	-2e-05	-1e-05	-1e-05	-1e-05	-1e-05	3e-05	0.00023	3
13467	-0.00016	-2e-05	-1e-05	-1e-05	-1e-05	-1e-05	3e-05	0.00023	3
13468	-0.00016	-2e-05	-1e-05	-1e-05	-1e-05	-1e-05	3e-05	0.00023	3
13469	-0.00016	-2e-05	-1e-05	-1e-05	-1e-05	-1e-05	3e-05	0.00023	3
13470	-0.00016	-2e-05	-1e-05	-1e-05	-1e-05	-1e-05	3e-05	0.00023	3
13471	-0.00016	-2e-05	-1e-05	-1e-05	-1e-05	-1e-05	3e-05	0.00023	3
13472	-1e-05	-3e-05	7e-05	-1e-05	-2e-05	-2e-05	0	0.00016	3
13473	-1e-05	-3e-05	7e-05	-1e-05	-2e-05	-2e-05	0	0.00016	3
13474	1e-05	0	-4e-05	-2e-05	-1e-05	1e-05	0	4e-05	3
13475	1e-05	0	-4e-05	-2e-05	-1e-05	1e-05	0	4e-05	3
13476	1e-05	0	-4e-05	-2e-05	-1e-05	1e-05	0	4e-05	3
13477	1e-05	0	-4e-05	-2e-05	-1e-05	1e-05	0	4e-05	3
13478	1e-05	0	-4e-05	-2e-05	-1e-05	1e-05	0	4e-05	3
13479	1e-05	0	-4e-05	-2e-05	-1e-05	1e-05	0	4e-05	3
13480	1e-05	0	-4e-05	-2e-05	-1e-05	1e-05	0	4e-05	3
13481	1e-05	0	-4e-05	-2e-05	-1e-05	1e-05	0	4e-05	3
13482	1e-05	0	-4e-05	-2e-05	-1e-05	1e-05	0	4e-05	3
13483	1e-05	0	-4e-05	-2e-05	-1e-05	1e-05	0	4e-05	3
13484	1e-05	0	-4e-05	-2e-05	-1e-05	1e-05	0	4e-05	3
13485	1e-05	0	-4e-05	-2e-05	-1e-05	1e-05	0	4e-05	3
13486	1e-05	0	-4e-05	-2e-05	-1e-05	1e-05	0	4e-05	3
13488	1e-05	0	-4e-05	-2e-05	-1e-05	1e-05	0	4e-05	3
13489	1e-05	0	-4e-05	-2e-05	-1e-05	1e-05	0	4e-05	3
13490	1e-05	0	-4e-05	-2e-05	-1e-05	1e-05	0	4e-05	3
13491	1e-05	0	-4e-05	-2e-05	-1e-05	1e-05	0	4e-05	3
13492	1e-05	0	-4e-05	-2e-05	-1e-05	1e-05	0	4e-05	3
13493	1e-05	0	-4e-05	-2e-05	-1e-05	1e-05	0	4e-05	3
13494	4e-05	-4e-05	0	-1e-05	1e-05	6e-05	3e-05	4e-05	3
13495	4e-05	-4e-05	0	-1e-05	1e-05	6e-05	3e-05	4e-05	3
13496	2e-05	9e-05	3e-05	3e-05	0	-2e-05	0	-7e-05	3
13497	2e-05	9e-05	3e-05	3e-05	0	-2e-05	0	-7e-05	3
13498	2e-05	9e-05	3e-05	3e-05	0	-2e-05	0	-7e-05	3
13499	2e-05	9e-05	3e-05	3e-05	0	-2e-05	0	-7e-05	3
13500	2e-05	9e-05	3e-05	3e-05	0	-2e-05	0	-7e-05	3
13501	2e-05	9e-05	3e-05	3e-05	0	-2e-05	0	-7e-05	3
13502	2e-05	9e-05	3e-05	3e-05	0	-2e-05	0	-7e-05	3
13503	2e-05	9e-05	3e-05	3e-05	0	-2e-05	0	-7e-05	3
13504	2e-05	9e-05	3e-05	3e-05	0	-2e-05	0	-7e-05	3
13505	2e-05	9e-05	3e-05	3e-05	0	-2e-05	0	-7e-05	3
13506	2e-05	9e-05	3e-05	3e-05	0	-2e-05	0	-7e-05	3
13507	2e-05	9e-05	3e-05	3e-05	0	-2e-05	0	-7e-05	3
13508	6e-05	1e-05	1e-05	1e-05	-1e-05	-2e-05	-3e-05	-8e-05	3
13509	6e-05	1e-05	1e-05	1e-05	-1e-05	-2e-05	-3e-05	-8e-05	3
13510	6e-05	1e-05	1e-05	1e-05	-1e-05	-2e-05	-3e-05	-8e-05	3
13511	6e-05	1e-05	1e-05	1e-05	-1e-05	-2e-05	-3e-05	-8e-05	3
13512	6e-05	1e-05	1e-05	1e-05	-1e-05	-2e-05	-3e-05	-8e-05	3
13513	6e-05	1e-05	1e-05	1e-05	-1e-05	-2e-05	-3e-05	-8e-05	3
13514	6e-05	1e-05	1e-05	1e-05	-1e-05	-2e-05	-3e-05	-8e-05	3
13515	6e-05	1e-05	1e-05	1e-05	-1e-05	-2e-05	-3e-05	-8e-05	3
13516	6e-05	1e-05	1e-05	1e-05	-1e-05	-2e-05	-3e-05	-8e-05	3
13517	-1e-05	5e-05	2e-05	-2e-05	-1e-05	1e-05	-1e-05	-1e-05	3
13518	-1e-05	-2e-05	-5e-05	0	1e-05	0	-2e-05	-7e-05	3
13519	-1e-05	-2e-05	-5e-05	0	1e-05	0	-2e-05	-7e-05	3
13520	-1e-05	-2e-05	-5e-05	0	1e-05	0	-2e-05	-7e-05	3
13521	-1e-05	-2e-05	-5e-05	0	1e-05	0	-2e-05	-7e-05	3
13522	-1e-05	-2e-05	-5e-05	0	1e-05	0	-2e-05	-7e-05	3
13523	-1e-05	-2e-05	-5e-05	0	1e-05	0	-2e-05	-7e-05	3
13524	-1e-05	-2e-05	-5e-05	0	1e-05	0	-2e-05	-7e-05	3
13525	-1e-05	-2e-05	-5e-05	0	1e-05	0	-2e-05	-7e-05	3
13526	-1e-05	-2e-05	-5e-05	0	1e-05	0	-2e-05	-7e-05	3
13527	-1e-05	-2e-05	-5e-05	0	1e-05	0	-2e-05	-7e-05	3
13528	-1e-05	-2e-05	-5e-05	0	1e-05	0	-2e-05	-7e-05	3
13529	-1e-05	-2e-05	-5e-05	0	1e-05	0	-2e-05	-7e-05	3
13530	-1e-05	-2e-05	-5e-05	0	1e-05	0	-2e-05	-7e-05	3
13531	-1e-05	-2e-05	-5e-05	0	1e-05	0	-2e-05	-7e-05	3
13532	1e-05	0.00021	1e-05	-1e-05	0	-1e-05	3e-05	6e-05	3
13533	1e-05	0.00021	1e-05	-1e-05	0	-1e-05	3e-05	6e-05	3
13534	-0.00019	-0.00025	-3e-05	-3e-05	3e-05	4e-05	4e-05	1e-05	3
13535	-0.00019	-0.00025	-3e-05	-3e-05	3e-05	4e-05	4e-05	1e-05	3
13536	-0.00019	-0.00025	-3e-05	-3e-05	3e-05	4e-05	4e-05	1e-05	3
13538	-0.00019	-0.00025	-3e-05	-3e-05	3e-05	4e-05	4e-05	1e-05	3
13539	-0.00019	-0.00025	-3e-05	-3e-05	3e-05	4e-05	4e-05	1e-05	3
13540	-0.00019	-0.00025	-3e-05	-3e-05	3e-05	4e-05	4e-05	1e-05	3
13541	-0.00019	-0.00025	-3e-05	-3e-05	3e-05	4e-05	4e-05	1e-05	3
13542	-0.00019	-0.00025	-3e-05	-3e-05	3e-05	4e-05	4e-05	1e-05	3
13543	-0.00019	-0.00025	-3e-05	-3e-05	3e-05	4e-05	4e-05	1e-05	3
13544	-0.00019	-0.00025	-3e-05	-3e-05	3e-05	4e-05	4e-05	1e-05	3
13545	-0.00019	-0.00025	-3e-05	-3e-05	3e-05	4e-05	4e-05	1e-05	3
13546	-0.00019	-0.00025	-3e-05	-3e-05	3e-05	4e-05	4e-05	1e-05	3
13547	-0.00019	-0.00025	-3e-05	-3e-05	3e-05	4e-05	4e-05	1e-05	3
13548	-0.00019	-0.00025	-3e-05	-3e-05	3e-05	4e-05	4e-05	1e-05	3
13549	-0.00019	-0.00025	-3e-05	-3e-05	3e-05	4e-05	4e-05	1e-05	3
13550	-0.00019	-0.00025	-3e-05	-3e-05	3e-05	4e-05	4e-05	1e-05	3
13551	-0.00019	-0.00025	-3e-05	-3e-05	3e-05	4e-05	4e-05	1e-05	3
13552	-0.00019	-0.00025	-3e-05	-3e-05	3e-05	4e-05	4e-05	1e-05	3
13553	-0.00019	-0.00025	-3e-05	-3e-05	3e-05	4e-05	4e-05	1e-05	3
13554	-1e-05	1e-05	-3e-05	1e-05	-1e-05	-2e-05	1e-05	-4e-05	3
13555	-1e-05	1e-05	-3e-05	1e-05	-1e-05	-2e-05	1e-05	-4e-05	3
13556	0.00014	0.00012	1e-05	2e-05	-1e-05	-3e-05	-4e-05	-4e-05	3
13557	0.00014	0.00012	1e-05	2e-05	-1e-05	-3e-05	-4e-05	-4e-05	3
13558	0.00014	0.00012	1e-05	2e-05	-1e-05	-3e-05	-4e-05	-4e-05	3
13559	0.00014	0.00012	1e-05	2e-05	-1e-05	-3e-05	-4e-05	-4e-05	3
13560	0.00014	0.00012	1e-05	2e-05	-1e-05	-3e-05	-4e-05	-4e-05	3
13561	0.00014	0.00012	1e-05	2e-05	-1e-05	-3e-05	-4e-05	-4e-05	3
13562	0.00014	0.00012	1e-05	2e-05	-1e-05	-3e-05	-4e-05	-4e-05	3
13563	0.00014	0.00012	1e-05	2e-05	-1e-05	-3e-05	-4e-05	-4e-05	3
13564	0.00014	0.00012	1e-05	2e-05	-1e-05	-3e-05	-4e-05	-4e-05	3
13565	0.00014	0.00012	1e-05	2e-05	-1e-05	-3e-05	-4e-05	-4e-05	3
13566	0.00014	0.00012	1e-05	2e-05	-1e-05	-3e-05	-4e-05	-4e-05	3
13567	0.00014	0.00012	1e-05	2e-05	-1e-05	-3e-05	-4e-05	-4e-05	3
13568	-7e-05	-6e-05	-2e-05	-2e-05	0	0	3e-05	-6e-05	3
13569	-7e-05	-6e-05	-2e-05	-2e-05	0	0	3e-05	-6e-05	3
13570	-7e-05	-6e-05	-2e-05	-2e-05	0	0	3e-05	-6e-05	3
13571	-7e-05	-6e-05	-2e-05	-2e-05	0	0	3e-05	-6e-05	3
13572	-7e-05	-6e-05	-2e-05	-2e-05	0	0	3e-05	-6e-05	3
13573	-7e-05	-6e-05	-2e-05	-2e-05	0	0	3e-05	-6e-05	3
13574	-7e-05	-6e-05	-2e-05	-2e-05	0	0	3e-05	-6e-05	3
13575	-7e-05	-6e-05	-2e-05	-2e-05	0	0	3e-05	-6e-05	3
13576	-7e-05	-6e-05	-2e-05	-2e-05	0	0	3e-05	-6e-05	3
13577	1e-05	9e-05	0	-2e-05	-2e-05	-1e-05	-3e-05	-4e-05	3
13578	1e-05	9e-05	0	-2e-05	-2e-05	-1e-05	-3e-05	-4e-05	3
13579	1e-05	9e-05	0	-2e-05	-2e-05	-1e-05	-3e-05	-4e-05	3
13580	1e-05	9e-05	0	-2e-05	-2e-05	-1e-05	-3e-05	-4e-05	3
13581	1e-05	9e-05	0	-2e-05	-2e-05	-1e-05	-3e-05	-4e-05	3
13582	1e-05	9e-05	0	-2e-05	-2e-05	-1e-05	-3e-05	-4e-05	3
13583	1e-05	9e-05	0	-2e-05	-2e-05	-1e-05	-3e-05	-4e-05	3
13584	1e-05	9e-05	0	-2e-05	-2e-05	-1e-05	-3e-05	-4e-05	3
13585	1e-05	9e-05	0	-2e-05	-2e-05	-1e-05	-3e-05	-4e-05	3
13586	1e-05	9e-05	0	-2e-05	-2e-05	-1e-05	-3e-05	-4e-05	3
13588	1e-05	9e-05	0	-2e-05	-2e-05	-1e-05	-3e-05	-4e-05	3
13589	1e-05	9e-05	0	-2e-05	-2e-05	-1e-05	-3e-05	-4e-05	3
13590	1e-05	9e-05	0	-2e-05	-2e-05	-1e-05	-3e-05	-4e-05	3
13591	1e-05	9e-05	0	-2e-05	-2e-05	-1e-05	-3e-05	-4e-05	3
13592	-4e-05	-7e-05	-2e-05	-1e-05	-2e-05	-7e-05	-6e-05	3e-05	3
13593	-4e-05	-7e-05	-2e-05	-1e-05	-2e-05	-7e-05	-6e-05	3e-05	3
13594	4e-05	0.00018	6e-05	1e-05	0	0	1e-05	-1e-05	3
13595	4e-05	0.00018	6e-05	1e-05	0	0	1e-05	-1e-05	3
13596	4e-05	0.00018	6e-05	1e-05	0	0	1e-05	-1e-05	3
13597	4e-05	0.00018	6e-05	1e-05	0	0	1e-05	-1e-05	3
13598	4e-05	0.00018	6e-05	1e-05	0	0	1e-05	-1e-05	3
13599	4e-05	0.00018	6e-05	1e-05	0	0	1e-05	-1e-05	3
13600	4e-05	0.00018	6e-05	1e-05	0	0	1e-05	-1e-05	3
13601	4e-05	0.00018	6e-05	1e-05	0	0	1e-05	-1e-05	3
13602	4e-05	0.00018	6e-05	1e-05	0	0	1e-05	-1e-05	3
13603	4e-05	0.00018	6e-05	1e-05	0	0	1e-05	-1e-05	3
13604	4e-05	0.00018	6e-05	1e-05	0	0	1e-05	-1e-05	3
13605	4e-05	0.00018	6e-05	1e-05	0	0	1e-05	-1e-05	3
13606	4e-05	0.00018	6e-05	1e-05	0	0	1e-05	-1e-05	3
13607	4e-05	0.00018	6e-05	1e-05	0	0	1e-05	-1e-05	3
13608	4e-05	0.00018	6e-05	1e-05	0	0	1e-05	-1e-05	3
13609	4e-05	0.00018	6e-05	1e-05	0	0	1e-05	-1e-05	3
13610	4e-05	0.00018	6e-05	1e-05	0	0	1e-05	-1e-05	3
13611	4e-05	0.00018	6e-05	1e-05	0	0	1e-05	-1e-05	3
13612	4e-05	0.00018	6e-05	1e-05	0	0	1e-05	-1e-05	3
13613	4e-05	0.00018	6e-05	1e-05	0	0	1e-05	-1e-05	3
13614	0.00015	0.00018	2e-05	-3e-05	1e-05	-1e-05	-1e-05	1e-05	3
13615	-5e-05	-0.00019	-2e-05	-2e-05	-2e-05	-2e-05	-4e-05	-2e-05	3
13616	-5e-05	-0.00019	-2e-05	-2e-05	-2e-05	-2e-05	-4e-05	-2e-05	3
13617	-5e-05	-0.00019	-2e-05	-2e-05	-2e-05	-2e-05	-4e-05	-2e-05	3
13618	-5e-05	-0.00019	-2e-05	-2e-05	-2e-05	-2e-05	-4e-05	-2e-05	3
13619	-5e-05	-0.00019	-2e-05	-2e-05	-2e-05	-2e-05	-4e-05	-2e-05	3
13620	-5e-05	-0.00019	-2e-05	-2e-05	-2e-05	-2e-05	-4e-05	-2e-05	3
13621	-5e-05	-0.00019	-2e-05	-2e-05	-2e-05	-2e-05	-4e-05	-2e-05	3
13622	-5e-05	-0.00019	-2e-05	-2e-05	-2e-05	-2e-05	-4e-05	-2e-05	3
13623	-5e-05	-0.00019	-2e-05	-2e-05	-2e-05	-2e-05	-4e-05	-2e-05	3
13624	-5e-05	-0.00019	-2e-05	-2e-05	-2e-05	-2e-05	-4e-05	-2e-05	3
13625	-5e-05	-0.00019	-2e-05	-2e-05	-2e-05	-2e-05	-4e-05	-2e-05	3
13626	-5e-05	-0.00019	-2e-05	-2e-05	-2e-05	-2e-05	-4e-05	-2e-05	3
13627	-5e-05	-0.00019	-2e-05	-2e-05	-2e-05	-2e-05	-4e-05	-2e-05	3
13628	8e-05	0.00015	-2e-05	1e-05	0	0	-1e-05	-0.00022	3
13629	8e-05	0.00015	-2e-05	1e-05	0	0	-1e-05	-0.00022	3
13630	8e-05	0.00015	-2e-05	1e-05	0	0	-1e-05	-0.00022	3
13631	8e-05	0.00015	-2e-05	1e-05	0	0	-1e-05	-0.00022	3
13632	8e-05	0.00015	-2e-05	1e-05	0	0	-1e-05	-0.00022	3
13633	8e-05	0.00015	-2e-05	1e-05	0	0	-1e-05	-0.00022	3
13634	8e-05	0.00015	-2e-05	1e-05	0	0	-1e-05	-0.00022	3
13635	8e-05	0.00015	-2e-05	1e-05	0	0	-1e-05	-0.00022	3
13636	8e-05	0.00015	-2e-05	1e-05	0	0	-1e-05	-0.00022	3
13638	9e-05	0.00011	0	0	-3e-05	-4e-05	-4e-05	0	3
13639	9e-05	0.00011	0	0	-3e-05	-4e-05	-4e-05	0	3
13640	9e-05	0.00011	0	0	-3e-05	-4e-05	-4e-05	0	3
13641	9e-05	0.00011	0	0	-3e-05	-4e-05	-4e-05	0	3
13642	9e-05	0.00011	0	0	-3e-05	-4e-05	-4e-05	0	3
13643	9e-05	0.00011	0	0	-3e-05	-4e-05	-4e-05	0	3
13644	9e-05	0.00011	0	0	-3e-05	-4e-05	-4e-05	0	3
13645	9e-05	0.00011	0	0	-3e-05	-4e-05	-4e-05	0	3
13646	9e-05	0.00011	0	0	-3e-05	-4e-05	-4e-05	0	3
13647	9e-05	0.00011	0	0	-3e-05	-4e-05	-4e-05	0	3
13648	9e-05	0.00011	0	0	-3e-05	-4e-05	-4e-05	0	3
13649	9e-05	0.00011	0	0	-3e-05	-4e-05	-4e-05	0	3
13650	9e-05	0.00011	0	0	-3e-05	-4e-05	-4e-05	0	3
13651	9e-05	0.00011	0	0	-3e-05	-4e-05	-4e-05	0	3
13652	0	-8e-05	-2e-05	-1e-05	-2e-05	-2e-05	-2e-05	2e-05	3
13653	0	-8e-05	-2e-05	-1e-05	-2e-05	-2e-05	-2e-05	2e-05	3
13654	4e-05	3e-05	-2e-05	0	0	3e-05	2e-05	-6e-05	3
13655	4e-05	3e-05	-2e-05	0	0	3e-05	2e-05	-6e-05	3
13656	4e-05	3e-05	-2e-05	0	0	3e-05	2e-05	-6e-05	3
13657	4e-05	3e-05	-2e-05	0	0	3e-05	2e-05	-6e-05	3
13658	4e-05	3e-05	-2e-05	0	0	3e-05	2e-05	-6e-05	3
13659	4e-05	3e-05	-2e-05	0	0	3e-05	2e-05	-6e-05	3
13660	4e-05	3e-05	-2e-05	0	0	3e-05	2e-05	-6e-05	3
13661	4e-05	3e-05	-2e-05	0	0	3e-05	2e-05	-6e-05	3
13662	4e-05	3e-05	-2e-05	0	0	3e-05	2e-05	-6e-05	3
13663	4e-05	3e-05	-2e-05	0	0	3e-05	2e-05	-6e-05	3
13664	4e-05	3e-05	-2e-05	0	0	3e-05	2e-05	-6e-05	3
13665	4e-05	3e-05	-2e-05	0	0	3e-05	2e-05	-6e-05	3
13666	4e-05	3e-05	-2e-05	0	0	3e-05	2e-05	-6e-05	3
13667	4e-05	3e-05	-2e-05	0	0	3e-05	2e-05	-6e-05	3
13668	4e-05	3e-05	-2e-05	0	0	3e-05	2e-05	-6e-05	3
13669	4e-05	3e-05	-2e-05	0	0	3e-05	2e-05	-6e-05	3
13670	4e-05	3e-05	-2e-05	0	0	3e-05	2e-05	-6e-05	3
13671	4e-05	3e-05	-2e-05	0	0	3e-05	2e-05	-6e-05	3
13672	4e-05	3e-05	-2e-05	0	0	3e-05	2e-05	-6e-05	3
13673	4e-05	3e-05	-2e-05	0	0	3e-05	2e-05	-6e-05	3
13674	-4e-05	-1e-05	-1e-05	-2e-05	2e-05	-2e-05	-1e-05	0	3
13675	-8e-05	-0.00014	-4e-05	-2e-05	-2e-05	-1e-05	-1e-05	-3e-05	3
13676	2e-05	8e-05	1e-05	0	-3e-05	-6e-05	-1e-05	1e-05	3
13677	2e-05	8e-05	1e-05	0	-3e-05	-6e-05	-1e-05	1e-05	3
13678	2e-05	8e-05	1e-05	0	-3e-05	-6e-05	-1e-05	1e-05	3
13679	2e-05	8e-05	1e-05	0	-3e-05	-6e-05	-1e-05	1e-05	3
13680	2e-05	8e-05	1e-05	0	-3e-05	-6e-05	-1e-05	1e-05	3
13681	2e-05	8e-05	1e-05	0	-3e-05	-6e-05	-1e-05	1e-05	3
13682	2e-05	8e-05	1e-05	0	-3e-05	-6e-05	-1e-05	1e-05	3
13683	2e-05	8e-05	1e-05	0	-3e-05	-6e-05	-1e-05	1e-05	3
13684	2e-05	8e-05	1e-05	0	-3e-05	-6e-05	-1e-05	1e-05	3
13685	2e-05	8e-05	1e-05	0	-3e-05	-6e-05	-1e-05	1e-05	3
13686	2e-05	8e-05	1e-05	0	-3e-05	-6e-05	-1e-05	1e-05	3
13688	-5e-05	-1e-05	0	0	0	0	1e-05	1e-05	3
13689	-5e-05	-1e-05	0	0	0	0	1e-05	1e-05	3
13690	-5e-05	-1e-05	0	0	0	0	1e-05	1e-05	3
13691	-5e-05	-1e-05	0	0	0	0	1e-05	1e-05	3
13692	-5e-05	-1e-05	0	0	0	0	1e-05	1e-05	3
13693	-5e-05	-1e-05	0	0	0	0	1e-05	1e-05	3
13694	-5e-05	-1e-05	0	0	0	0	1e-05	1e-05	3
13695	-5e-05	-1e-05	0	0	0	0	1e-05	1e-05	3
13696	-5e-05	-1e-05	0	0	0	0	1e-05	1e-05	3
13697	-0.00019	-0.00015	3e-05	-2e-05	-1e-05	1e-05	-1e-05	-4e-05	3
13698	-0.00019	-0.00015	3e-05	-2e-05	-1e-05	1e-05	-1e-05	-4e-05	3
13699	-0.00019	-0.00015	3e-05	-2e-05	-1e-05	1e-05	-1e-05	-4e-05	3
13700	-0.00019	-0.00015	3e-05	-2e-05	-1e-05	1e-05	-1e-05	-4e-05	3
13701	-0.00019	-0.00015	3e-05	-2e-05	-1e-05	1e-05	-1e-05	-4e-05	3
13702	-0.00019	-0.00015	3e-05	-2e-05	-1e-05	1e-05	-1e-05	-4e-05	3
13703	-0.00019	-0.00015	3e-05	-2e-05	-1e-05	1e-05	-1e-05	-4e-05	3
13704	-0.00019	-0.00015	3e-05	-2e-05	-1e-05	1e-05	-1e-05	-4e-05	3
13705	-0.00019	-0.00015	3e-05	-2e-05	-1e-05	1e-05	-1e-05	-4e-05	3
13706	-0.00019	-0.00015	3e-05	-2e-05	-1e-05	1e-05	-1e-05	-4e-05	3
13707	-0.00019	-0.00015	3e-05	-2e-05	-1e-05	1e-05	-1e-05	-4e-05	3
13708	-0.00019	-0.00015	3e-05	-2e-05	-1e-05	1e-05	-1e-05	-4e-05	3
13709	-0.00019	-0.00015	3e-05	-2e-05	-1e-05	1e-05	-1e-05	-4e-05	3
13710	-0.00019	-0.00015	3e-05	-2e-05	-1e-05	1e-05	-1e-05	-4e-05	3
13711	-0.00019	-0.00015	3e-05	-2e-05	-1e-05	1e-05	-1e-05	-4e-05	3
13712	-9e-05	-0.00011	-6e-05	-1e-05	-1e-05	1e-05	-1e-05	-1e-05	3
13713	-9e-05	-0.00011	-6e-05	-1e-05	-1e-05	1e-05	-1e-05	-1e-05	3
13714	0.0001	6e-05	1e-05	-1e-05	0	-1e-05	-2e-05	0	3
13715	0.0001	6e-05	1e-05	-1e-05	0	-1e-05	-2e-05	0	3
13716	0.0001	6e-05	1e-05	-1e-05	0	-1e-05	-2e-05	0	3
13717	0.0001	6e-05	1e-05	-1e-05	0	-1e-05	-2e-05	0	3
13718	0.0001	6e-05	1e-05	-1e-05	0	-1e-05	-2e-05	0	3
13719	0.0001	6e-05	1e-05	-1e-05	0	-1e-05	-2e-05	0	3
13720	0.0001	6e-05	1e-05	-1e-05	0	-1e-05	-2e-05	0	3
13721	0.0001	6e-05	1e-05	-1e-05	0	-1e-05	-2e-05	0	3
13722	0.0001	6e-05	1e-05	-1e-05	0	-1e-05	-2e-05	0	3
13723	0.0001	6e-05	1e-05	-1e-05	0	-1e-05	-2e-05	0	3
13724	0.0001	6e-05	1e-05	-1e-05	0	-1e-05	-2e-05	0	3
13725	0.0001	6e-05	1e-05	-1e-05	0	-1e-05	-2e-05	0	3
13726	0.0001	6e-05	1e-05	-1e-05	0	-1e-05	-2e-05	0	3
13727	0.0001	6e-05	1e-05	-1e-05	0	-1e-05	-2e-05	0	3
13728	0.0001	6e-05	1e-05	-1e-05	0	-1e-05	-2e-05	0	3
13729	0.0001	6e-05	1e-05	-1e-05	0	-1e-05	-2e-05	0	3
13730	0.0001	6e-05	1e-05	-1e-05	0	-1e-05	-2e-05	0	3
13731	0.0001	6e-05	1e-05	-1e-05	0	-1e-05	-2e-05	0	3
13732	0.0001	6e-05	1e-05	-1e-05	0	-1e-05	-2e-05	0	3
13733	0.0001	6e-05	1e-05	-1e-05	0	-1e-05	-2e-05	0	3
13734	-4e-05	-8e-05	-7e-05	0	-2e-05	-3e-05	-6e-05	-5e-05	3
13735	-4e-05	-8e-05	-7e-05	0	-2e-05	-3e-05	-6e-05	-5e-05	3
13736	0	-3e-05	-2e-05	-1e-05	1e-05	0	1e-05	-3e-05	3
13738	0	-3e-05	-2e-05	-1e-05	1e-05	0	1e-05	-3e-05	3
13739	0	-3e-05	-2e-05	-1e-05	1e-05	0	1e-05	-3e-05	3
13740	0	-3e-05	-2e-05	-1e-05	1e-05	0	1e-05	-3e-05	3
13741	0	-3e-05	-2e-05	-1e-05	1e-05	0	1e-05	-3e-05	3
13742	0	-3e-05	-2e-05	-1e-05	1e-05	0	1e-05	-3e-05	3
13743	0	-3e-05	-2e-05	-1e-05	1e-05	0	1e-05	-3e-05	3
13744	0	-3e-05	-2e-05	-1e-05	1e-05	0	1e-05	-3e-05	3
13745	0	-3e-05	-2e-05	-1e-05	1e-05	0	1e-05	-3e-05	3
13746	0	-3e-05	-2e-05	-1e-05	1e-05	0	1e-05	-3e-05	3
13747	0	-3e-05	-2e-05	-1e-05	1e-05	0	1e-05	-3e-05	3
13748	0	-3e-05	-2e-05	-1e-05	1e-05	0	1e-05	-3e-05	3
13749	0	-3e-05	-2e-05	-1e-05	1e-05	0	1e-05	-3e-05	3
13750	0	-3e-05	-2e-05	-1e-05	1e-05	0	1e-05	-3e-05	3
13751	0	-3e-05	-2e-05	-1e-05	1e-05	0	1e-05	-3e-05	3
13752	0	-3e-05	-2e-05	-1e-05	1e-05	0	1e-05	-3e-05	3
13753	0	-3e-05	-2e-05	-1e-05	1e-05	0	1e-05	-3e-05	3
13754	0	-3e-05	-2e-05	-1e-05	1e-05	0	1e-05	-3e-05	3
13755	0	-3e-05	-2e-05	-1e-05	1e-05	0	1e-05	-3e-05	3
13756	0	-3e-05	-2e-05	-1e-05	1e-05	0	1e-05	-3e-05	3
13757	3e-05	4e-05	0	-2e-05	-2e-05	-4e-05	0	4e-05	3
13758	3e-05	4e-05	0	-2e-05	-2e-05	-4e-05	0	4e-05	3
13759	-1e-05	0	-2e-05	0	-1e-05	1e-05	-4e-05	2e-05	3
13760	-1e-05	0	-2e-05	0	-1e-05	1e-05	-4e-05	2e-05	3
13761	-1e-05	0	-2e-05	0	-1e-05	1e-05	-4e-05	2e-05	3
13762	-1e-05	0	-2e-05	0	-1e-05	1e-05	-4e-05	2e-05	3
13763	-1e-05	0	-2e-05	0	-1e-05	1e-05	-4e-05	2e-05	3
13764	-1e-05	0	-2e-05	0	-1e-05	1e-05	-4e-05	2e-05	3
13765	-1e-05	0	-2e-05	0	-1e-05	1e-05	-4e-05	2e-05	3
43223	2e-05	6e-05	2e-05	-1e-05	0	3e-05	-4e-05	-0.00031	3
43224	2e-05	6e-05	2e-05	-1e-05	0	3e-05	-4e-05	-0.00031	3
43225	2e-05	6e-05	2e-05	-1e-05	0	3e-05	-4e-05	-0.00031	3
43226	2e-05	6e-05	2e-05	-1e-05	0	3e-05	-4e-05	-0.00031	3
43227	2e-05	6e-05	2e-05	-1e-05	0	3e-05	-4e-05	-0.00031	3
43228	2e-05	6e-05	2e-05	-1e-05	0	3e-05	-4e-05	-0.00031	3
43229	2e-05	6e-05	2e-05	-1e-05	0	3e-05	-4e-05	-0.00031	3
43230	2e-05	6e-05	2e-05	-1e-05	0	3e-05	-4e-05	-0.00031	3
43231	2e-05	6e-05	2e-05	-1e-05	0	3e-05	-4e-05	-0.00031	3
43232	-0.0001	-0.00031	-7e-05	0	4e-05	-3e-05	8e-05	-0.0001	3
43233	0.00014	6e-05	2e-05	-1e-05	-4e-05	-3e-05	3e-05	0.0001	3
43234	0.00014	6e-05	2e-05	-1e-05	-4e-05	-3e-05	3e-05	0.0001	3
43235	0.00014	6e-05	2e-05	-1e-05	-4e-05	-3e-05	3e-05	0.0001	3
43236	0.00014	6e-05	2e-05	-1e-05	-4e-05	-3e-05	3e-05	0.0001	3
43238	0.00014	6e-05	2e-05	-1e-05	-4e-05	-3e-05	3e-05	0.0001	3
43239	0.00014	6e-05	2e-05	-1e-05	-4e-05	-3e-05	3e-05	0.0001	3
43240	0.00014	6e-05	2e-05	-1e-05	-4e-05	-3e-05	3e-05	0.0001	3
43241	0.00014	6e-05	2e-05	-1e-05	-4e-05	-3e-05	3e-05	0.0001	3
43242	0.00014	6e-05	2e-05	-1e-05	-4e-05	-3e-05	3e-05	0.0001	3
43243	0.00014	6e-05	2e-05	-1e-05	-4e-05	-3e-05	3e-05	0.0001	3
43244	0.00014	6e-05	2e-05	-1e-05	-4e-05	-3e-05	3e-05	0.0001	3
43245	0.00014	6e-05	2e-05	-1e-05	-4e-05	-3e-05	3e-05	0.0001	3
43246	0.00014	6e-05	2e-05	-1e-05	-4e-05	-3e-05	3e-05	0.0001	3
43247	0.00014	6e-05	2e-05	-1e-05	-4e-05	-3e-05	3e-05	0.0001	3
43248	0.00014	6e-05	2e-05	-1e-05	-4e-05	-3e-05	3e-05	0.0001	3
43249	0.00014	6e-05	2e-05	-1e-05	-4e-05	-3e-05	3e-05	0.0001	3
43250	0.00014	6e-05	2e-05	-1e-05	-4e-05	-3e-05	3e-05	0.0001	3
43251	0.00014	6e-05	2e-05	-1e-05	-4e-05	-3e-05	3e-05	0.0001	3
43252	0.00014	6e-05	2e-05	-1e-05	-4e-05	-3e-05	3e-05	0.0001	3
43253	0.00014	6e-05	2e-05	-1e-05	-4e-05	-3e-05	3e-05	0.0001	3
43254	-0.0001	8e-05	-3e-05	0	-4e-05	-1e-05	-3e-05	-7e-05	3
43255	0.00011	-7e-05	1e-05	0	-2e-05	-4e-05	9e-05	0	3
43256	-1e-05	-0.00011	-4e-05	-5e-05	-7e-05	0	-5e-05	-0.00015	3
43257	-1e-05	-0.00011	-4e-05	-5e-05	-7e-05	0	-5e-05	-0.00015	3
43258	-1e-05	-0.00011	-4e-05	-5e-05	-7e-05	0	-5e-05	-0.00015	3
43259	-1e-05	-0.00011	-4e-05	-5e-05	-7e-05	0	-5e-05	-0.00015	3
43260	-1e-05	-0.00011	-4e-05	-5e-05	-7e-05	0	-5e-05	-0.00015	3
43261	-1e-05	-0.00011	-4e-05	-5e-05	-7e-05	0	-5e-05	-0.00015	3
43262	-1e-05	-0.00011	-4e-05	-5e-05	-7e-05	0	-5e-05	-0.00015	3
43263	-1e-05	-0.00011	-4e-05	-5e-05	-7e-05	0	-5e-05	-0.00015	3
43264	-1e-05	-0.00011	-4e-05	-5e-05	-7e-05	0	-5e-05	-0.00015	3
43265	-1e-05	-0.00011	-4e-05	-5e-05	-7e-05	0	-5e-05	-0.00015	3
43266	-1e-05	-0.00011	-4e-05	-5e-05	-7e-05	0	-5e-05	-0.00015	3
43267	-1e-05	-0.00011	-4e-05	-5e-05	-7e-05	0	-5e-05	-0.00015	3
43268	-1e-05	-0.00011	-4e-05	-5e-05	-7e-05	0	-5e-05	-0.00015	3
43269	3e-05	1e-05	2e-05	1e-05	-0.0001	4e-05	5e-05	8e-05	3
43270	3e-05	1e-05	2e-05	1e-05	-0.0001	4e-05	5e-05	8e-05	3
43271	8e-05	-2e-05	-0.00013	-4e-05	-2e-05	1e-05	9e-05	1e-05	3
43272	8e-05	-2e-05	-0.00013	-4e-05	-2e-05	1e-05	9e-05	1e-05	3
43273	8e-05	-2e-05	-0.00013	-4e-05	-2e-05	1e-05	9e-05	1e-05	3
43274	8e-05	-2e-05	-0.00013	-4e-05	-2e-05	1e-05	9e-05	1e-05	3
43275	8e-05	-2e-05	-0.00013	-4e-05	-2e-05	1e-05	9e-05	1e-05	3
43277	8e-05	-2e-05	-0.00013	-4e-05	-2e-05	1e-05	9e-05	1e-05	3
43278	8e-05	-2e-05	-0.00013	-4e-05	-2e-05	1e-05	9e-05	1e-05	3
43279	8e-05	-2e-05	-0.00013	-4e-05	-2e-05	1e-05	9e-05	1e-05	3
43280	8e-05	-2e-05	-0.00013	-4e-05	-2e-05	1e-05	9e-05	1e-05	3
43281	8e-05	-2e-05	-0.00013	-4e-05	-2e-05	1e-05	9e-05	1e-05	3
43282	8e-05	-2e-05	-0.00013	-4e-05	-2e-05	1e-05	9e-05	1e-05	3
43283	8e-05	-2e-05	-0.00013	-4e-05	-2e-05	1e-05	9e-05	1e-05	3
43284	8e-05	-2e-05	-0.00013	-4e-05	-2e-05	1e-05	9e-05	1e-05	3
43285	8e-05	-2e-05	-0.00013	-4e-05	-2e-05	1e-05	9e-05	1e-05	3
43286	8e-05	-2e-05	-0.00013	-4e-05	-2e-05	1e-05	9e-05	1e-05	3
43289	8e-05	-2e-05	-0.00013	-4e-05	-2e-05	1e-05	9e-05	1e-05	3
43290	8e-05	-2e-05	-0.00013	-4e-05	-2e-05	1e-05	9e-05	1e-05	3
43291	8e-05	-2e-05	-0.00013	-4e-05	-2e-05	1e-05	9e-05	1e-05	3
43292	4e-05	3e-05	0	-5e-05	-6e-05	-3e-05	-1e-05	-4e-05	3
43293	4e-05	3e-05	0	-5e-05	-6e-05	-3e-05	-1e-05	-4e-05	3
43294	-8e-05	0	2e-05	1e-05	-3e-05	-5e-05	-1e-05	-1e-05	3
43295	-8e-05	0	2e-05	1e-05	-3e-05	-5e-05	-1e-05	-1e-05	3
43296	-8e-05	0	2e-05	1e-05	-3e-05	-5e-05	-1e-05	-1e-05	3
43297	-8e-05	0	2e-05	1e-05	-3e-05	-5e-05	-1e-05	-1e-05	3
43298	-8e-05	0	2e-05	1e-05	-3e-05	-5e-05	-1e-05	-1e-05	3
43299	-8e-05	0	2e-05	1e-05	-3e-05	-5e-05	-1e-05	-1e-05	3
43300	-8e-05	0	2e-05	1e-05	-3e-05	-5e-05	-1e-05	-1e-05	3
43301	-8e-05	0	2e-05	1e-05	-3e-05	-5e-05	-1e-05	-1e-05	3
43302	-8e-05	0	2e-05	1e-05	-3e-05	-5e-05	-1e-05	-1e-05	3
43303	-8e-05	0	2e-05	1e-05	-3e-05	-5e-05	-1e-05	-1e-05	3
43304	-8e-05	0	2e-05	1e-05	-3e-05	-5e-05	-1e-05	-1e-05	3
43305	-8e-05	0	2e-05	1e-05	-3e-05	-5e-05	-1e-05	-1e-05	3
43306	-8e-05	0	2e-05	1e-05	-3e-05	-5e-05	-1e-05	-1e-05	3
43307	-8e-05	0	2e-05	1e-05	-3e-05	-5e-05	-1e-05	-1e-05	3
43308	-8e-05	0	2e-05	1e-05	-3e-05	-5e-05	-1e-05	-1e-05	3
43309	-8e-05	0	2e-05	1e-05	-3e-05	-5e-05	-1e-05	-1e-05	3
43310	-8e-05	0	2e-05	1e-05	-3e-05	-5e-05	-1e-05	-1e-05	3
43311	-8e-05	0	2e-05	1e-05	-3e-05	-5e-05	-1e-05	-1e-05	3
43312	-8e-05	0	2e-05	1e-05	-3e-05	-5e-05	-1e-05	-1e-05	3
43313	-8e-05	0	2e-05	1e-05	-3e-05	-5e-05	-1e-05	-1e-05	3
43314	-4e-05	-0.00019	-1e-05	-2e-05	4e-05	7e-05	5e-05	0.00014	3
43315	-4e-05	-0.00019	-1e-05	-2e-05	4e-05	7e-05	5e-05	0.00014	3
43316	-0.00013	-0.00024	-5e-05	-1e-05	1e-05	-2e-05	-7e-05	-0.00027	3
43317	-0.00013	-0.00024	-5e-05	-1e-05	1e-05	-2e-05	-7e-05	-0.00027	3
43318	-0.00013	-0.00024	-5e-05	-1e-05	1e-05	-2e-05	-7e-05	-0.00027	3
43319	-0.00013	-0.00024	-5e-05	-1e-05	1e-05	-2e-05	-7e-05	-0.00027	3
43320	-0.00013	-0.00024	-5e-05	-1e-05	1e-05	-2e-05	-7e-05	-0.00027	3
43321	-0.00013	-0.00024	-5e-05	-1e-05	1e-05	-2e-05	-7e-05	-0.00027	3
43322	-0.00013	-0.00024	-5e-05	-1e-05	1e-05	-2e-05	-7e-05	-0.00027	3
43323	-0.00013	-0.00024	-5e-05	-1e-05	1e-05	-2e-05	-7e-05	-0.00027	3
43324	-0.00013	-0.00024	-5e-05	-1e-05	1e-05	-2e-05	-7e-05	-0.00027	3
43325	-0.00013	-0.00024	-5e-05	-1e-05	1e-05	-2e-05	-7e-05	-0.00027	3
43326	-0.00013	-0.00024	-5e-05	-1e-05	1e-05	-2e-05	-7e-05	-0.00027	3
43327	-0.00013	-0.00024	-5e-05	-1e-05	1e-05	-2e-05	-7e-05	-0.00027	3
43328	-0.00013	-0.00024	-5e-05	-1e-05	1e-05	-2e-05	-7e-05	-0.00027	3
43329	-7e-05	3e-05	-1e-05	-4e-05	1e-05	0	0.0001	-0.00016	3
43330	-7e-05	3e-05	-1e-05	-4e-05	1e-05	0	0.0001	-0.00016	3
43331	0.00021	0.0003	4e-05	1e-05	-8e-05	-5e-05	-3e-05	2e-05	3
43332	0.00021	0.0003	4e-05	1e-05	-8e-05	-5e-05	-3e-05	2e-05	3
43333	0.00021	0.0003	4e-05	1e-05	-8e-05	-5e-05	-3e-05	2e-05	3
43334	0.00021	0.0003	4e-05	1e-05	-8e-05	-5e-05	-3e-05	2e-05	3
43335	0.00021	0.0003	4e-05	1e-05	-8e-05	-5e-05	-3e-05	2e-05	3
43336	0.00021	0.0003	4e-05	1e-05	-8e-05	-5e-05	-3e-05	2e-05	3
43339	0.00021	0.0003	4e-05	1e-05	-8e-05	-5e-05	-3e-05	2e-05	3
43340	0.00021	0.0003	4e-05	1e-05	-8e-05	-5e-05	-3e-05	2e-05	3
43341	0.00021	0.0003	4e-05	1e-05	-8e-05	-5e-05	-3e-05	2e-05	3
43342	0.00021	0.0003	4e-05	1e-05	-8e-05	-5e-05	-3e-05	2e-05	3
43343	0.00021	0.0003	4e-05	1e-05	-8e-05	-5e-05	-3e-05	2e-05	3
43344	0.00021	0.0003	4e-05	1e-05	-8e-05	-5e-05	-3e-05	2e-05	3
43345	0.00021	0.0003	4e-05	1e-05	-8e-05	-5e-05	-3e-05	2e-05	3
43346	0.00021	0.0003	4e-05	1e-05	-8e-05	-5e-05	-3e-05	2e-05	3
43347	0.00021	0.0003	4e-05	1e-05	-8e-05	-5e-05	-3e-05	2e-05	3
43348	0.00021	0.0003	4e-05	1e-05	-8e-05	-5e-05	-3e-05	2e-05	3
43349	0.00021	0.0003	4e-05	1e-05	-8e-05	-5e-05	-3e-05	2e-05	3
43350	0.00021	0.0003	4e-05	1e-05	-8e-05	-5e-05	-3e-05	2e-05	3
43351	0.00021	0.0003	4e-05	1e-05	-8e-05	-5e-05	-3e-05	2e-05	3
43352	-0.00022	-1e-05	2e-05	-1e-05	4e-05	1e-05	-0.0001	-2e-05	3
43353	-7e-05	0.00012	2e-05	-2e-05	-2e-05	-2e-05	-1e-05	-3e-05	3
43354	-7e-05	0.00012	2e-05	-2e-05	-2e-05	-2e-05	-1e-05	-3e-05	3
43355	-7e-05	0.00012	2e-05	-2e-05	-2e-05	-2e-05	-1e-05	-3e-05	3
43356	-7e-05	0.00012	2e-05	-2e-05	-2e-05	-2e-05	-1e-05	-3e-05	3
43357	-7e-05	0.00012	2e-05	-2e-05	-2e-05	-2e-05	-1e-05	-3e-05	3
43358	-7e-05	0.00012	2e-05	-2e-05	-2e-05	-2e-05	-1e-05	-3e-05	3
43359	-7e-05	0.00012	2e-05	-2e-05	-2e-05	-2e-05	-1e-05	-3e-05	3
43360	-7e-05	0.00012	2e-05	-2e-05	-2e-05	-2e-05	-1e-05	-3e-05	3
43361	-7e-05	0.00012	2e-05	-2e-05	-2e-05	-2e-05	-1e-05	-3e-05	3
43362	-7e-05	0.00012	2e-05	-2e-05	-2e-05	-2e-05	-1e-05	-3e-05	3
43363	-7e-05	0.00012	2e-05	-2e-05	-2e-05	-2e-05	-1e-05	-3e-05	3
43364	-7e-05	0.00012	2e-05	-2e-05	-2e-05	-2e-05	-1e-05	-3e-05	3
43365	-7e-05	0.00012	2e-05	-2e-05	-2e-05	-2e-05	-1e-05	-3e-05	3
43366	-7e-05	0.00012	2e-05	-2e-05	-2e-05	-2e-05	-1e-05	-3e-05	3
43367	-7e-05	0.00012	2e-05	-2e-05	-2e-05	-2e-05	-1e-05	-3e-05	3
43368	-7e-05	0.00012	2e-05	-2e-05	-2e-05	-2e-05	-1e-05	-3e-05	3
43369	-7e-05	0.00012	2e-05	-2e-05	-2e-05	-2e-05	-1e-05	-3e-05	3
43370	-7e-05	0.00012	2e-05	-2e-05	-2e-05	-2e-05	-1e-05	-3e-05	3
43371	-7e-05	0.00012	2e-05	-2e-05	-2e-05	-2e-05	-1e-05	-3e-05	3
43372	-7e-05	0.00012	2e-05	-2e-05	-2e-05	-2e-05	-1e-05	-3e-05	3
43373	-7e-05	0.00012	2e-05	-2e-05	-2e-05	-2e-05	-1e-05	-3e-05	3
43374	0.00019	0.0001	2e-05	0	3e-05	-5e-05	-1e-05	9e-05	3
43375	0.00019	0.0001	2e-05	0	3e-05	-5e-05	-1e-05	9e-05	3
43376	-0.00017	-4e-05	-0.00014	-1e-05	-2e-05	3e-05	0	-0.00024	3
43377	-0.00017	-4e-05	-0.00014	-1e-05	-2e-05	3e-05	0	-0.00024	3
43378	-0.00017	-4e-05	-0.00014	-1e-05	-2e-05	3e-05	0	-0.00024	3
43379	-0.00017	-4e-05	-0.00014	-1e-05	-2e-05	3e-05	0	-0.00024	3
43380	-0.00017	-4e-05	-0.00014	-1e-05	-2e-05	3e-05	0	-0.00024	3
43381	-0.00017	-4e-05	-0.00014	-1e-05	-2e-05	3e-05	0	-0.00024	3
43382	-0.00017	-4e-05	-0.00014	-1e-05	-2e-05	3e-05	0	-0.00024	3
43383	-0.00017	-4e-05	-0.00014	-1e-05	-2e-05	3e-05	0	-0.00024	3
43384	-0.00017	-4e-05	-0.00014	-1e-05	-2e-05	3e-05	0	-0.00024	3
43385	-0.00017	-4e-05	-0.00014	-1e-05	-2e-05	3e-05	0	-0.00024	3
43386	-0.00017	-4e-05	-0.00014	-1e-05	-2e-05	3e-05	0	-0.00024	3
43389	0	2e-05	1e-05	0	-4e-05	1e-05	-1e-05	-0.00016	3
43390	0	2e-05	1e-05	0	-4e-05	1e-05	-1e-05	-0.00016	3
43391	0	2e-05	1e-05	0	-4e-05	1e-05	-1e-05	-0.00016	3
43392	0	2e-05	1e-05	0	-4e-05	1e-05	-1e-05	-0.00016	3
43393	0	2e-05	1e-05	0	-4e-05	1e-05	-1e-05	-0.00016	3
43394	0	2e-05	1e-05	0	-4e-05	1e-05	-1e-05	-0.00016	3
43395	3e-05	-0.0003	1e-05	2e-05	-1e-05	-3e-05	-9e-05	9e-05	3
43396	3e-05	-0.0003	1e-05	2e-05	-1e-05	-3e-05	-9e-05	9e-05	3
43397	3e-05	-0.0003	1e-05	2e-05	-1e-05	-3e-05	-9e-05	9e-05	3
43398	3e-05	-0.0003	1e-05	2e-05	-1e-05	-3e-05	-9e-05	9e-05	3
43399	3e-05	-0.0003	1e-05	2e-05	-1e-05	-3e-05	-9e-05	9e-05	3
43400	3e-05	-0.0003	1e-05	2e-05	-1e-05	-3e-05	-9e-05	9e-05	3
43401	3e-05	-0.0003	1e-05	2e-05	-1e-05	-3e-05	-9e-05	9e-05	3
43402	3e-05	-0.0003	1e-05	2e-05	-1e-05	-3e-05	-9e-05	9e-05	3
43403	3e-05	-0.0003	1e-05	2e-05	-1e-05	-3e-05	-9e-05	9e-05	3
43404	3e-05	-0.0003	1e-05	2e-05	-1e-05	-3e-05	-9e-05	9e-05	3
43405	3e-05	-0.0003	1e-05	2e-05	-1e-05	-3e-05	-9e-05	9e-05	3
43406	3e-05	-0.0003	1e-05	2e-05	-1e-05	-3e-05	-9e-05	9e-05	3
43407	3e-05	-0.0003	1e-05	2e-05	-1e-05	-3e-05	-9e-05	9e-05	3
43408	3e-05	-0.0003	1e-05	2e-05	-1e-05	-3e-05	-9e-05	9e-05	3
43409	3e-05	-0.0003	1e-05	2e-05	-1e-05	-3e-05	-9e-05	9e-05	3
43410	3e-05	-0.0003	1e-05	2e-05	-1e-05	-3e-05	-9e-05	9e-05	3
43411	3e-05	-0.0003	1e-05	2e-05	-1e-05	-3e-05	-9e-05	9e-05	3
43412	0.00015	0.00031	2e-05	-1e-05	0	-1e-05	1e-05	-6e-05	3
43413	4e-05	0.00037	8e-05	2e-05	3e-05	0	0.00013	4e-05	3
43414	4e-05	0.00037	8e-05	2e-05	3e-05	0	0.00013	4e-05	3
43415	4e-05	0.00037	8e-05	2e-05	3e-05	0	0.00013	4e-05	3
43416	4e-05	0.00037	8e-05	2e-05	3e-05	0	0.00013	4e-05	3
43417	4e-05	0.00037	8e-05	2e-05	3e-05	0	0.00013	4e-05	3
43418	4e-05	0.00037	8e-05	2e-05	3e-05	0	0.00013	4e-05	3
43419	4e-05	0.00037	8e-05	2e-05	3e-05	0	0.00013	4e-05	3
43420	4e-05	0.00037	8e-05	2e-05	3e-05	0	0.00013	4e-05	3
43421	4e-05	0.00037	8e-05	2e-05	3e-05	0	0.00013	4e-05	3
43422	4e-05	0.00037	8e-05	2e-05	3e-05	0	0.00013	4e-05	3
43423	4e-05	0.00037	8e-05	2e-05	3e-05	0	0.00013	4e-05	3
43424	4e-05	0.00037	8e-05	2e-05	3e-05	0	0.00013	4e-05	3
43425	4e-05	0.00037	8e-05	2e-05	3e-05	0	0.00013	4e-05	3
43426	4e-05	0.00037	8e-05	2e-05	3e-05	0	0.00013	4e-05	3
43427	4e-05	0.00037	8e-05	2e-05	3e-05	0	0.00013	4e-05	3
43428	4e-05	0.00037	8e-05	2e-05	3e-05	0	0.00013	4e-05	3
43429	4e-05	0.00037	8e-05	2e-05	3e-05	0	0.00013	4e-05	3
43430	4e-05	0.00037	8e-05	2e-05	3e-05	0	0.00013	4e-05	3
43431	4e-05	0.00037	8e-05	2e-05	3e-05	0	0.00013	4e-05	3
43432	4e-05	0.00037	8e-05	2e-05	3e-05	0	0.00013	4e-05	3
43433	4e-05	0.00037	8e-05	2e-05	3e-05	0	0.00013	4e-05	3
43434	-0.0001	-0.00017	-4e-05	-2e-05	-6e-05	-2e-05	2e-05	0.00018	3
43435	-0.0001	-0.00017	-4e-05	-2e-05	-6e-05	-2e-05	2e-05	0.00018	3
43436	3e-05	1e-05	1e-05	-3e-05	-2e-05	1e-05	1e-05	6e-05	3
43439	3e-05	1e-05	1e-05	-3e-05	-2e-05	1e-05	1e-05	6e-05	3
43440	3e-05	1e-05	1e-05	-3e-05	-2e-05	1e-05	1e-05	6e-05	3
43441	3e-05	1e-05	1e-05	-3e-05	-2e-05	1e-05	1e-05	6e-05	3
43442	3e-05	1e-05	1e-05	-3e-05	-2e-05	1e-05	1e-05	6e-05	3
43443	3e-05	1e-05	1e-05	-3e-05	-2e-05	1e-05	1e-05	6e-05	3
43444	3e-05	1e-05	1e-05	-3e-05	-2e-05	1e-05	1e-05	6e-05	3
43445	3e-05	1e-05	1e-05	-3e-05	-2e-05	1e-05	1e-05	6e-05	3
43446	3e-05	1e-05	1e-05	-3e-05	-2e-05	1e-05	1e-05	6e-05	3
43447	3e-05	1e-05	1e-05	-3e-05	-2e-05	1e-05	1e-05	6e-05	3
43448	3e-05	1e-05	1e-05	-3e-05	-2e-05	1e-05	1e-05	6e-05	3
43449	3e-05	1e-05	1e-05	-3e-05	-2e-05	1e-05	1e-05	6e-05	3
43450	3e-05	1e-05	1e-05	-3e-05	-2e-05	1e-05	1e-05	6e-05	3
43451	3e-05	1e-05	1e-05	-3e-05	-2e-05	1e-05	1e-05	6e-05	3
43452	3e-05	1e-05	1e-05	-3e-05	-2e-05	1e-05	1e-05	6e-05	3
43453	3e-05	1e-05	1e-05	-3e-05	-2e-05	1e-05	1e-05	6e-05	3
43454	3e-05	1e-05	1e-05	-3e-05	-2e-05	1e-05	1e-05	6e-05	3
43455	3e-05	1e-05	1e-05	-3e-05	-2e-05	1e-05	1e-05	6e-05	3
43456	3e-05	1e-05	1e-05	-3e-05	-2e-05	1e-05	1e-05	6e-05	3
43457	-0.00016	-0.0001	-2e-05	1e-05	-7e-05	-3e-05	4e-05	0.0003	3
43458	-4e-05	-0.00022	-3e-05	-2e-05	-3e-05	-4e-05	-2e-05	9e-05	3
43459	-4e-05	-0.00022	-3e-05	-2e-05	-3e-05	-4e-05	-2e-05	9e-05	3
43460	-4e-05	-0.00022	-3e-05	-2e-05	-3e-05	-4e-05	-2e-05	9e-05	3
43461	-4e-05	-0.00022	-3e-05	-2e-05	-3e-05	-4e-05	-2e-05	9e-05	3
43462	-4e-05	-0.00022	-3e-05	-2e-05	-3e-05	-4e-05	-2e-05	9e-05	3
43463	-4e-05	-0.00022	-3e-05	-2e-05	-3e-05	-4e-05	-2e-05	9e-05	3
43464	-4e-05	-0.00022	-3e-05	-2e-05	-3e-05	-4e-05	-2e-05	9e-05	3
43465	-4e-05	-0.00022	-3e-05	-2e-05	-3e-05	-4e-05	-2e-05	9e-05	3
43466	-4e-05	-0.00022	-3e-05	-2e-05	-3e-05	-4e-05	-2e-05	9e-05	3
43467	-4e-05	-0.00022	-3e-05	-2e-05	-3e-05	-4e-05	-2e-05	9e-05	3
43468	-4e-05	-0.00022	-3e-05	-2e-05	-3e-05	-4e-05	-2e-05	9e-05	3
43469	-4e-05	-0.00022	-3e-05	-2e-05	-3e-05	-4e-05	-2e-05	9e-05	3
43470	-4e-05	-0.00022	-3e-05	-2e-05	-3e-05	-4e-05	-2e-05	9e-05	3
43471	-4e-05	-0.00022	-3e-05	-2e-05	-3e-05	-4e-05	-2e-05	9e-05	3
43472	0.00011	4e-05	-4e-05	-2e-05	-2e-05	-1e-05	-0.00011	-0.00023	3
43473	-3e-05	-6e-05	6e-05	2e-05	2e-05	0	-4e-05	0.00018	3
43474	-3e-05	-6e-05	6e-05	2e-05	2e-05	0	-4e-05	0.00018	3
43475	-3e-05	-6e-05	6e-05	2e-05	2e-05	0	-4e-05	0.00018	3
43476	-3e-05	-6e-05	6e-05	2e-05	2e-05	0	-4e-05	0.00018	3
43477	-3e-05	-6e-05	6e-05	2e-05	2e-05	0	-4e-05	0.00018	3
43478	-3e-05	-6e-05	6e-05	2e-05	2e-05	0	-4e-05	0.00018	3
43479	-3e-05	-6e-05	6e-05	2e-05	2e-05	0	-4e-05	0.00018	3
43480	-3e-05	-6e-05	6e-05	2e-05	2e-05	0	-4e-05	0.00018	3
43481	-3e-05	-6e-05	6e-05	2e-05	2e-05	0	-4e-05	0.00018	3
43482	-3e-05	-6e-05	6e-05	2e-05	2e-05	0	-4e-05	0.00018	3
43483	-3e-05	-6e-05	6e-05	2e-05	2e-05	0	-4e-05	0.00018	3
43484	-3e-05	-6e-05	6e-05	2e-05	2e-05	0	-4e-05	0.00018	3
43485	-3e-05	-6e-05	6e-05	2e-05	2e-05	0	-4e-05	0.00018	3
43486	-3e-05	-6e-05	6e-05	2e-05	2e-05	0	-4e-05	0.00018	3
43489	-3e-05	-6e-05	6e-05	2e-05	2e-05	0	-4e-05	0.00018	3
43490	-3e-05	-6e-05	6e-05	2e-05	2e-05	0	-4e-05	0.00018	3
43491	-3e-05	-6e-05	6e-05	2e-05	2e-05	0	-4e-05	0.00018	3
43492	-3e-05	-6e-05	6e-05	2e-05	2e-05	0	-4e-05	0.00018	3
43493	-3e-05	-6e-05	6e-05	2e-05	2e-05	0	-4e-05	0.00018	3
43494	2e-05	0	-0.00014	-1e-05	-4e-05	0	7e-05	0.00033	3
43495	2e-05	0	-0.00014	-1e-05	-4e-05	0	7e-05	0.00033	3
43496	-0.00013	8e-05	3e-05	-1e-05	4e-05	-1e-05	-3e-05	-0.00035	3
43497	-0.00013	8e-05	3e-05	-1e-05	4e-05	-1e-05	-3e-05	-0.00035	3
43498	-0.00013	8e-05	3e-05	-1e-05	4e-05	-1e-05	-3e-05	-0.00035	3
43499	-0.00013	8e-05	3e-05	-1e-05	4e-05	-1e-05	-3e-05	-0.00035	3
43500	-0.00013	8e-05	3e-05	-1e-05	4e-05	-1e-05	-3e-05	-0.00035	3
43501	-0.00013	8e-05	3e-05	-1e-05	4e-05	-1e-05	-3e-05	-0.00035	3
43502	-0.00013	8e-05	3e-05	-1e-05	4e-05	-1e-05	-3e-05	-0.00035	3
43503	-0.00013	8e-05	3e-05	-1e-05	4e-05	-1e-05	-3e-05	-0.00035	3
43504	-0.00013	8e-05	3e-05	-1e-05	4e-05	-1e-05	-3e-05	-0.00035	3
43505	-0.00013	8e-05	3e-05	-1e-05	4e-05	-1e-05	-3e-05	-0.00035	3
43506	-0.00013	8e-05	3e-05	-1e-05	4e-05	-1e-05	-3e-05	-0.00035	3
43507	-0.00013	8e-05	3e-05	-1e-05	4e-05	-1e-05	-3e-05	-0.00035	3
43508	3e-05	-0.00015	7e-05	5e-05	7e-05	3e-05	-2e-05	-0.00017	3
43509	3e-05	-0.00015	7e-05	5e-05	7e-05	3e-05	-2e-05	-0.00017	3
43510	3e-05	-0.00015	7e-05	5e-05	7e-05	3e-05	-2e-05	-0.00017	3
43511	3e-05	-0.00015	7e-05	5e-05	7e-05	3e-05	-2e-05	-0.00017	3
43512	3e-05	-0.00015	7e-05	5e-05	7e-05	3e-05	-2e-05	-0.00017	3
43513	3e-05	-0.00015	7e-05	5e-05	7e-05	3e-05	-2e-05	-0.00017	3
43514	3e-05	-0.00015	7e-05	5e-05	7e-05	3e-05	-2e-05	-0.00017	3
43515	3e-05	-0.00015	7e-05	5e-05	7e-05	3e-05	-2e-05	-0.00017	3
43516	3e-05	-0.00015	7e-05	5e-05	7e-05	3e-05	-2e-05	-0.00017	3
43517	3e-05	-0.00015	7e-05	5e-05	7e-05	3e-05	-2e-05	-0.00017	3
43518	3e-05	-0.00015	7e-05	5e-05	7e-05	3e-05	-2e-05	-0.00017	3
43519	3e-05	-0.00015	7e-05	5e-05	7e-05	3e-05	-2e-05	-0.00017	3
43520	3e-05	-0.00015	7e-05	5e-05	7e-05	3e-05	-2e-05	-0.00017	3
43521	3e-05	-0.00015	7e-05	5e-05	7e-05	3e-05	-2e-05	-0.00017	3
43522	3e-05	-0.00015	7e-05	5e-05	7e-05	3e-05	-2e-05	-0.00017	3
43523	-3e-05	-7e-05	-4e-05	-1e-05	-1e-05	-1e-05	-4e-05	-5e-05	3
43524	-3e-05	-7e-05	-4e-05	-1e-05	-1e-05	-1e-05	-4e-05	-5e-05	3
43525	-3e-05	-7e-05	-4e-05	-1e-05	-1e-05	-1e-05	-4e-05	-5e-05	3
43526	-3e-05	-7e-05	-4e-05	-1e-05	-1e-05	-1e-05	-4e-05	-5e-05	3
43527	-3e-05	-7e-05	-4e-05	-1e-05	-1e-05	-1e-05	-4e-05	-5e-05	3
43528	-3e-05	-7e-05	-4e-05	-1e-05	-1e-05	-1e-05	-4e-05	-5e-05	3
43529	-3e-05	-7e-05	-4e-05	-1e-05	-1e-05	-1e-05	-4e-05	-5e-05	3
43530	-3e-05	-7e-05	-4e-05	-1e-05	-1e-05	-1e-05	-4e-05	-5e-05	3
43531	-3e-05	-7e-05	-4e-05	-1e-05	-1e-05	-1e-05	-4e-05	-5e-05	3
43532	8e-05	7e-05	1e-05	-4e-05	0	-3e-05	3e-05	-5e-05	3
43533	-5e-05	0.00017	1e-05	2e-05	0.00011	3e-05	1e-05	-0.00016	3
43534	-5e-05	0.00017	1e-05	2e-05	0.00011	3e-05	1e-05	-0.00016	3
43535	-5e-05	0.00017	1e-05	2e-05	0.00011	3e-05	1e-05	-0.00016	3
43536	-5e-05	0.00017	1e-05	2e-05	0.00011	3e-05	1e-05	-0.00016	3
43539	-5e-05	0.00017	1e-05	2e-05	0.00011	3e-05	1e-05	-0.00016	3
43540	-5e-05	0.00017	1e-05	2e-05	0.00011	3e-05	1e-05	-0.00016	3
43541	-5e-05	0.00017	1e-05	2e-05	0.00011	3e-05	1e-05	-0.00016	3
43542	-5e-05	0.00017	1e-05	2e-05	0.00011	3e-05	1e-05	-0.00016	3
43543	-5e-05	0.00017	1e-05	2e-05	0.00011	3e-05	1e-05	-0.00016	3
43544	-5e-05	0.00017	1e-05	2e-05	0.00011	3e-05	1e-05	-0.00016	3
43545	-5e-05	0.00017	1e-05	2e-05	0.00011	3e-05	1e-05	-0.00016	3
43546	-5e-05	0.00017	1e-05	2e-05	0.00011	3e-05	1e-05	-0.00016	3
43547	-5e-05	0.00017	1e-05	2e-05	0.00011	3e-05	1e-05	-0.00016	3
43548	-5e-05	0.00017	1e-05	2e-05	0.00011	3e-05	1e-05	-0.00016	3
43549	-5e-05	0.00017	1e-05	2e-05	0.00011	3e-05	1e-05	-0.00016	3
43550	-5e-05	0.00017	1e-05	2e-05	0.00011	3e-05	1e-05	-0.00016	3
43551	-5e-05	0.00017	1e-05	2e-05	0.00011	3e-05	1e-05	-0.00016	3
43552	-5e-05	0.00017	1e-05	2e-05	0.00011	3e-05	1e-05	-0.00016	3
43553	-5e-05	0.00017	1e-05	2e-05	0.00011	3e-05	1e-05	-0.00016	3
43554	9e-05	9e-05	-1e-05	-4e-05	-3e-05	-5e-05	-4e-05	0.00018	3
43555	9e-05	9e-05	-1e-05	-4e-05	-3e-05	-5e-05	-4e-05	0.00018	3
43556	2e-05	3e-05	-2e-05	-6e-05	-0.00012	-3e-05	-2e-05	0.00013	3
43557	2e-05	3e-05	-2e-05	-6e-05	-0.00012	-3e-05	-2e-05	0.00013	3
43558	2e-05	3e-05	-2e-05	-6e-05	-0.00012	-3e-05	-2e-05	0.00013	3
43559	2e-05	3e-05	-2e-05	-6e-05	-0.00012	-3e-05	-2e-05	0.00013	3
43560	2e-05	3e-05	-2e-05	-6e-05	-0.00012	-3e-05	-2e-05	0.00013	3
43561	2e-05	3e-05	-2e-05	-6e-05	-0.00012	-3e-05	-2e-05	0.00013	3
43562	2e-05	3e-05	-2e-05	-6e-05	-0.00012	-3e-05	-2e-05	0.00013	3
43563	2e-05	3e-05	-2e-05	-6e-05	-0.00012	-3e-05	-2e-05	0.00013	3
43564	2e-05	3e-05	-2e-05	-6e-05	-0.00012	-3e-05	-2e-05	0.00013	3
43565	2e-05	3e-05	-2e-05	-6e-05	-0.00012	-3e-05	-2e-05	0.00013	3
43566	2e-05	3e-05	-2e-05	-6e-05	-0.00012	-3e-05	-2e-05	0.00013	3
43567	2e-05	3e-05	-2e-05	-6e-05	-0.00012	-3e-05	-2e-05	0.00013	3
43568	-2e-05	-0.00024	-6e-05	-3e-05	-4e-05	2e-05	0	8e-05	3
43569	-9e-05	1e-05	0	-1e-05	8e-05	-3e-05	-9e-05	-0.00013	3
43570	-9e-05	1e-05	0	-1e-05	8e-05	-3e-05	-9e-05	-0.00013	3
43571	-9e-05	1e-05	0	-1e-05	8e-05	-3e-05	-9e-05	-0.00013	3
43572	-9e-05	1e-05	0	-1e-05	8e-05	-3e-05	-9e-05	-0.00013	3
43573	-9e-05	1e-05	0	-1e-05	8e-05	-3e-05	-9e-05	-0.00013	3
43574	-9e-05	1e-05	0	-1e-05	8e-05	-3e-05	-9e-05	-0.00013	3
43575	0.0001	-4e-05	-2e-05	0	3e-05	-3e-05	5e-05	0.00044	3
43576	0.0001	-4e-05	-2e-05	0	3e-05	-3e-05	5e-05	0.00044	3
43577	0.0001	-4e-05	-2e-05	0	3e-05	-3e-05	5e-05	0.00044	3
43578	0.0001	-4e-05	-2e-05	0	3e-05	-3e-05	5e-05	0.00044	3
43579	0.0001	-4e-05	-2e-05	0	3e-05	-3e-05	5e-05	0.00044	3
43580	0.0001	-4e-05	-2e-05	0	3e-05	-3e-05	5e-05	0.00044	3
43581	0.0001	-4e-05	-2e-05	0	3e-05	-3e-05	5e-05	0.00044	3
43582	0.0001	-4e-05	-2e-05	0	3e-05	-3e-05	5e-05	0.00044	3
43583	0.0001	-4e-05	-2e-05	0	3e-05	-3e-05	5e-05	0.00044	3
43584	0.0001	-4e-05	-2e-05	0	3e-05	-3e-05	5e-05	0.00044	3
43585	0.0001	-4e-05	-2e-05	0	3e-05	-3e-05	5e-05	0.00044	3
43586	0.0001	-4e-05	-2e-05	0	3e-05	-3e-05	5e-05	0.00044	3
43589	0.0001	-4e-05	-2e-05	0	3e-05	-3e-05	5e-05	0.00044	3
43590	0.0001	-4e-05	-2e-05	0	3e-05	-3e-05	5e-05	0.00044	3
43591	0.0001	-4e-05	-2e-05	0	3e-05	-3e-05	5e-05	0.00044	3
43592	4e-05	-0.00016	-1e-05	-1e-05	-2e-05	-3e-05	-3e-05	-3e-05	3
43593	0.00014	0.00012	-8e-05	-1e-05	-1e-05	4e-05	-4e-05	-1e-05	3
43594	0.00014	0.00012	-8e-05	-1e-05	-1e-05	4e-05	-4e-05	-1e-05	3
43595	0.00014	0.00012	-8e-05	-1e-05	-1e-05	4e-05	-4e-05	-1e-05	3
43596	0.00014	0.00012	-8e-05	-1e-05	-1e-05	4e-05	-4e-05	-1e-05	3
43597	0.00014	0.00012	-8e-05	-1e-05	-1e-05	4e-05	-4e-05	-1e-05	3
43598	0.00014	0.00012	-8e-05	-1e-05	-1e-05	4e-05	-4e-05	-1e-05	3
43599	0.00014	0.00012	-8e-05	-1e-05	-1e-05	4e-05	-4e-05	-1e-05	3
43600	0.00014	0.00012	-8e-05	-1e-05	-1e-05	4e-05	-4e-05	-1e-05	3
43601	0.00014	0.00012	-8e-05	-1e-05	-1e-05	4e-05	-4e-05	-1e-05	3
43602	0.00014	0.00012	-8e-05	-1e-05	-1e-05	4e-05	-4e-05	-1e-05	3
43603	0.00014	0.00012	-8e-05	-1e-05	-1e-05	4e-05	-4e-05	-1e-05	3
43604	0.00014	0.00012	-8e-05	-1e-05	-1e-05	4e-05	-4e-05	-1e-05	3
43605	0.00014	0.00012	-8e-05	-1e-05	-1e-05	4e-05	-4e-05	-1e-05	3
43606	0.00014	0.00012	-8e-05	-1e-05	-1e-05	4e-05	-4e-05	-1e-05	3
43607	0.00014	0.00012	-8e-05	-1e-05	-1e-05	4e-05	-4e-05	-1e-05	3
43608	0.00014	0.00012	-8e-05	-1e-05	-1e-05	4e-05	-4e-05	-1e-05	3
43609	0.00014	0.00012	-8e-05	-1e-05	-1e-05	4e-05	-4e-05	-1e-05	3
43610	0.00014	0.00012	-8e-05	-1e-05	-1e-05	4e-05	-4e-05	-1e-05	3
43611	0.00014	0.00012	-8e-05	-1e-05	-1e-05	4e-05	-4e-05	-1e-05	3
43612	0.00014	0.00012	-8e-05	-1e-05	-1e-05	4e-05	-4e-05	-1e-05	3
43613	0.00014	0.00012	-8e-05	-1e-05	-1e-05	4e-05	-4e-05	-1e-05	3
43614	-0.0001	6e-05	2e-05	-2e-05	-6e-05	-2e-05	2e-05	-0.00017	3
43615	-0.0001	6e-05	2e-05	-2e-05	-6e-05	-2e-05	2e-05	-0.00017	3
43616	-2e-05	2e-05	0	2e-05	-7e-05	-1e-05	-0.00021	-0.00022	3
43617	-2e-05	2e-05	0	2e-05	-7e-05	-1e-05	-0.00021	-0.00022	3
43618	-2e-05	2e-05	0	2e-05	-7e-05	-1e-05	-0.00021	-0.00022	3
43619	-2e-05	2e-05	0	2e-05	-7e-05	-1e-05	-0.00021	-0.00022	3
43620	-2e-05	2e-05	0	2e-05	-7e-05	-1e-05	-0.00021	-0.00022	3
43621	-2e-05	2e-05	0	2e-05	-7e-05	-1e-05	-0.00021	-0.00022	3
43622	-2e-05	2e-05	0	2e-05	-7e-05	-1e-05	-0.00021	-0.00022	3
43623	-2e-05	2e-05	0	2e-05	-7e-05	-1e-05	-0.00021	-0.00022	3
43624	-2e-05	2e-05	0	2e-05	-7e-05	-1e-05	-0.00021	-0.00022	3
43625	-2e-05	2e-05	0	2e-05	-7e-05	-1e-05	-0.00021	-0.00022	3
43626	-2e-05	2e-05	0	2e-05	-7e-05	-1e-05	-0.00021	-0.00022	3
43627	-2e-05	2e-05	0	2e-05	-7e-05	-1e-05	-0.00021	-0.00022	3
43628	0.00011	0.00013	0	1e-05	0.00014	-1e-05	2e-05	0	3
43629	-7e-05	-5e-05	0	0	0	3e-05	4e-05	3e-05	3
43630	-7e-05	-5e-05	0	0	0	3e-05	4e-05	3e-05	3
43631	-7e-05	-5e-05	0	0	0	3e-05	4e-05	3e-05	3
43632	-7e-05	-5e-05	0	0	0	3e-05	4e-05	3e-05	3
43633	-7e-05	-5e-05	0	0	0	3e-05	4e-05	3e-05	3
43634	-7e-05	-5e-05	0	0	0	3e-05	4e-05	3e-05	3
43635	-6e-05	-0.0001	-2e-05	-3e-05	-4e-05	1e-05	1e-05	-2e-05	3
43636	-6e-05	-0.0001	-2e-05	-3e-05	-4e-05	1e-05	1e-05	-2e-05	3
43639	-6e-05	-0.0001	-2e-05	-3e-05	-4e-05	1e-05	1e-05	-2e-05	3
43640	-6e-05	-0.0001	-2e-05	-3e-05	-4e-05	1e-05	1e-05	-2e-05	3
43641	-6e-05	-0.0001	-2e-05	-3e-05	-4e-05	1e-05	1e-05	-2e-05	3
43642	-6e-05	-0.0001	-2e-05	-3e-05	-4e-05	1e-05	1e-05	-2e-05	3
43643	-6e-05	-0.0001	-2e-05	-3e-05	-4e-05	1e-05	1e-05	-2e-05	3
43644	-6e-05	-0.0001	-2e-05	-3e-05	-4e-05	1e-05	1e-05	-2e-05	3
43645	-6e-05	-0.0001	-2e-05	-3e-05	-4e-05	1e-05	1e-05	-2e-05	3
43646	-6e-05	-0.0001	-2e-05	-3e-05	-4e-05	1e-05	1e-05	-2e-05	3
43647	-6e-05	-0.0001	-2e-05	-3e-05	-4e-05	1e-05	1e-05	-2e-05	3
43648	-6e-05	-0.0001	-2e-05	-3e-05	-4e-05	1e-05	1e-05	-2e-05	3
43649	-6e-05	-0.0001	-2e-05	-3e-05	-4e-05	1e-05	1e-05	-2e-05	3
43650	-6e-05	-0.0001	-2e-05	-3e-05	-4e-05	1e-05	1e-05	-2e-05	3
43651	-6e-05	-0.0001	-2e-05	-3e-05	-4e-05	1e-05	1e-05	-2e-05	3
43652	3e-05	5e-05	0	-1e-05	3e-05	0	-5e-05	5e-05	3
43653	-6e-05	-4e-05	-1e-05	-2e-05	2e-05	-3e-05	5e-05	0	3
43654	-6e-05	-4e-05	-1e-05	-2e-05	2e-05	-3e-05	5e-05	0	3
43655	-6e-05	-4e-05	-1e-05	-2e-05	2e-05	-3e-05	5e-05	0	3
43656	-6e-05	-4e-05	-1e-05	-2e-05	2e-05	-3e-05	5e-05	0	3
43657	-6e-05	-4e-05	-1e-05	-2e-05	2e-05	-3e-05	5e-05	0	3
43658	-6e-05	-4e-05	-1e-05	-2e-05	2e-05	-3e-05	5e-05	0	3
43659	-6e-05	-4e-05	-1e-05	-2e-05	2e-05	-3e-05	5e-05	0	3
43660	-6e-05	-4e-05	-1e-05	-2e-05	2e-05	-3e-05	5e-05	0	3
43661	-6e-05	-4e-05	-1e-05	-2e-05	2e-05	-3e-05	5e-05	0	3
43662	-6e-05	-4e-05	-1e-05	-2e-05	2e-05	-3e-05	5e-05	0	3
43663	-6e-05	-4e-05	-1e-05	-2e-05	2e-05	-3e-05	5e-05	0	3
43664	-6e-05	-4e-05	-1e-05	-2e-05	2e-05	-3e-05	5e-05	0	3
43665	-6e-05	-4e-05	-1e-05	-2e-05	2e-05	-3e-05	5e-05	0	3
43666	-6e-05	-4e-05	-1e-05	-2e-05	2e-05	-3e-05	5e-05	0	3
43667	-6e-05	-4e-05	-1e-05	-2e-05	2e-05	-3e-05	5e-05	0	3
43668	-6e-05	-4e-05	-1e-05	-2e-05	2e-05	-3e-05	5e-05	0	3
43669	-6e-05	-4e-05	-1e-05	-2e-05	2e-05	-3e-05	5e-05	0	3
43670	-6e-05	-4e-05	-1e-05	-2e-05	2e-05	-3e-05	5e-05	0	3
43671	-6e-05	-4e-05	-1e-05	-2e-05	2e-05	-3e-05	5e-05	0	3
43672	-6e-05	-4e-05	-1e-05	-2e-05	2e-05	-3e-05	5e-05	0	3
43673	-6e-05	-4e-05	-1e-05	-2e-05	2e-05	-3e-05	5e-05	0	3
43674	-1e-05	-1e-05	-2e-05	0	-0.00012	-3e-05	-2e-05	1e-05	3
43675	-1e-05	-1e-05	-2e-05	0	-0.00012	-3e-05	-2e-05	1e-05	3
43676	0.0001	8e-05	1e-05	-2e-05	-1e-05	-3e-05	3e-05	-4e-05	3
43677	0.0001	8e-05	1e-05	-2e-05	-1e-05	-3e-05	3e-05	-4e-05	3
43678	0.0001	8e-05	1e-05	-2e-05	-1e-05	-3e-05	3e-05	-4e-05	3
43679	0.0001	8e-05	1e-05	-2e-05	-1e-05	-3e-05	3e-05	-4e-05	3
43680	0.0001	8e-05	1e-05	-2e-05	-1e-05	-3e-05	3e-05	-4e-05	3
43681	0.0001	8e-05	1e-05	-2e-05	-1e-05	-3e-05	3e-05	-4e-05	3
43682	0.0001	8e-05	1e-05	-2e-05	-1e-05	-3e-05	3e-05	-4e-05	3
43683	0.0001	8e-05	1e-05	-2e-05	-1e-05	-3e-05	3e-05	-4e-05	3
43684	0.0001	8e-05	1e-05	-2e-05	-1e-05	-3e-05	3e-05	-4e-05	3
43685	0.0001	8e-05	1e-05	-2e-05	-1e-05	-3e-05	3e-05	-4e-05	3
43686	0.0001	8e-05	1e-05	-2e-05	-1e-05	-3e-05	3e-05	-4e-05	3
43689	-1e-05	5e-05	-4e-05	-3e-05	-3e-05	2e-05	0	-3e-05	3
43690	-1e-05	5e-05	-4e-05	-3e-05	-3e-05	2e-05	0	-3e-05	3
43691	-1e-05	5e-05	-4e-05	-3e-05	-3e-05	2e-05	0	-3e-05	3
43692	-1e-05	5e-05	-4e-05	-3e-05	-3e-05	2e-05	0	-3e-05	3
43693	-1e-05	5e-05	-4e-05	-3e-05	-3e-05	2e-05	0	-3e-05	3
43694	-1e-05	5e-05	-4e-05	-3e-05	-3e-05	2e-05	0	-3e-05	3
43695	-1e-05	5e-05	-4e-05	-3e-05	-3e-05	2e-05	0	-3e-05	3
43696	-1e-05	5e-05	-4e-05	-3e-05	-3e-05	2e-05	0	-3e-05	3
43697	-1e-05	5e-05	-4e-05	-3e-05	-3e-05	2e-05	0	-3e-05	3
43698	-1e-05	5e-05	-4e-05	-3e-05	-3e-05	2e-05	0	-3e-05	3
43699	-1e-05	5e-05	-4e-05	-3e-05	-3e-05	2e-05	0	-3e-05	3
43700	-1e-05	5e-05	-4e-05	-3e-05	-3e-05	2e-05	0	-3e-05	3
43701	-1e-05	5e-05	-4e-05	-3e-05	-3e-05	2e-05	0	-3e-05	3
43702	-1e-05	5e-05	-4e-05	-3e-05	-3e-05	2e-05	0	-3e-05	3
43703	-1e-05	5e-05	-4e-05	-3e-05	-3e-05	2e-05	0	-3e-05	3
43704	-1e-05	5e-05	-4e-05	-3e-05	-3e-05	2e-05	0	-3e-05	3
43705	-1e-05	5e-05	-4e-05	-3e-05	-3e-05	2e-05	0	-3e-05	3
43706	-1e-05	5e-05	-4e-05	-3e-05	-3e-05	2e-05	0	-3e-05	3
43707	-1e-05	5e-05	-4e-05	-3e-05	-3e-05	2e-05	0	-3e-05	3
43708	-1e-05	5e-05	-4e-05	-3e-05	-3e-05	2e-05	0	-3e-05	3
43709	-1e-05	5e-05	-4e-05	-3e-05	-3e-05	2e-05	0	-3e-05	3
43710	-1e-05	5e-05	-4e-05	-3e-05	-3e-05	2e-05	0	-3e-05	3
43711	-1e-05	5e-05	-4e-05	-3e-05	-3e-05	2e-05	0	-3e-05	3
43712	-2e-05	-2e-05	2e-05	-1e-05	2e-05	0	2e-05	-2e-05	3
43713	-6e-05	0.00011	0.00013	5e-05	-9e-05	2e-05	-4e-05	3e-05	3
43714	-6e-05	0.00011	0.00013	5e-05	-9e-05	2e-05	-4e-05	3e-05	3
43715	-0.00013	-0.00019	-1e-05	1e-05	2e-05	2e-05	4e-05	-2e-05	3
43716	-0.00013	-0.00019	-1e-05	1e-05	2e-05	2e-05	4e-05	-2e-05	3
43717	-0.00013	-0.00019	-1e-05	1e-05	2e-05	2e-05	4e-05	-2e-05	3
43718	-0.00013	-0.00019	-1e-05	1e-05	2e-05	2e-05	4e-05	-2e-05	3
43719	-0.00013	-0.00019	-1e-05	1e-05	2e-05	2e-05	4e-05	-2e-05	3
43720	-0.00013	-0.00019	-1e-05	1e-05	2e-05	2e-05	4e-05	-2e-05	3
43721	-0.00013	-0.00019	-1e-05	1e-05	2e-05	2e-05	4e-05	-2e-05	3
43722	-0.00013	-0.00019	-1e-05	1e-05	2e-05	2e-05	4e-05	-2e-05	3
43723	-0.00013	-0.00019	-1e-05	1e-05	2e-05	2e-05	4e-05	-2e-05	3
43724	-0.00013	-0.00019	-1e-05	1e-05	2e-05	2e-05	4e-05	-2e-05	3
43725	-0.00013	-0.00019	-1e-05	1e-05	2e-05	2e-05	4e-05	-2e-05	3
43726	-0.00013	-0.00019	-1e-05	1e-05	2e-05	2e-05	4e-05	-2e-05	3
43727	-0.00013	-0.00019	-1e-05	1e-05	2e-05	2e-05	4e-05	-2e-05	3
43728	-0.00013	-0.00019	-1e-05	1e-05	2e-05	2e-05	4e-05	-2e-05	3
43729	-0.00013	-0.00019	-1e-05	1e-05	2e-05	2e-05	4e-05	-2e-05	3
43730	-0.00013	-0.00019	-1e-05	1e-05	2e-05	2e-05	4e-05	-2e-05	3
43731	-0.00013	-0.00019	-1e-05	1e-05	2e-05	2e-05	4e-05	-2e-05	3
43732	-0.00013	-0.00019	-1e-05	1e-05	2e-05	2e-05	4e-05	-2e-05	3
43733	-0.00013	-0.00019	-1e-05	1e-05	2e-05	2e-05	4e-05	-2e-05	3
43734	0.00026	0.00033	7e-05	0	0.00013	1e-05	7e-05	0.00016	3
43735	0.00026	0.00033	7e-05	0	0.00013	1e-05	7e-05	0.00016	3
43736	7e-05	-5e-05	-2e-05	-2e-05	-6e-05	-3e-05	-4e-05	7e-05	3
43738	7e-05	-5e-05	-2e-05	-2e-05	-6e-05	-3e-05	-4e-05	7e-05	3
43739	7e-05	-5e-05	-2e-05	-2e-05	-6e-05	-3e-05	-4e-05	7e-05	3
43740	7e-05	-5e-05	-2e-05	-2e-05	-6e-05	-3e-05	-4e-05	7e-05	3
43741	7e-05	-5e-05	-2e-05	-2e-05	-6e-05	-3e-05	-4e-05	7e-05	3
43742	7e-05	-5e-05	-2e-05	-2e-05	-6e-05	-3e-05	-4e-05	7e-05	3
43743	7e-05	-5e-05	-2e-05	-2e-05	-6e-05	-3e-05	-4e-05	7e-05	3
43744	7e-05	-5e-05	-2e-05	-2e-05	-6e-05	-3e-05	-4e-05	7e-05	3
43745	7e-05	-5e-05	-2e-05	-2e-05	-6e-05	-3e-05	-4e-05	7e-05	3
43746	7e-05	-5e-05	-2e-05	-2e-05	-6e-05	-3e-05	-4e-05	7e-05	3
43747	7e-05	-5e-05	-2e-05	-2e-05	-6e-05	-3e-05	-4e-05	7e-05	3
43748	-6e-05	-0.00021	0	-4e-05	1e-05	-2e-05	-2e-05	6e-05	3
43749	-6e-05	-0.00021	0	-4e-05	1e-05	-2e-05	-2e-05	6e-05	3
43750	-6e-05	-0.00021	0	-4e-05	1e-05	-2e-05	-2e-05	6e-05	3
43751	-6e-05	-0.00021	0	-4e-05	1e-05	-2e-05	-2e-05	6e-05	3
43752	-6e-05	-0.00021	0	-4e-05	1e-05	-2e-05	-2e-05	6e-05	3
43753	-6e-05	-0.00021	0	-4e-05	1e-05	-2e-05	-2e-05	6e-05	3
43754	-6e-05	-0.00021	0	-4e-05	1e-05	-2e-05	-2e-05	6e-05	3
43755	-6e-05	-0.00021	0	-4e-05	1e-05	-2e-05	-2e-05	6e-05	3
43756	-6e-05	-0.00021	0	-4e-05	1e-05	-2e-05	-2e-05	6e-05	3
43757	-5e-05	-7e-05	-8e-05	-8e-05	-3e-05	-3e-05	2e-05	-0.00014	3
43758	-5e-05	-7e-05	-8e-05	-8e-05	-3e-05	-3e-05	2e-05	-0.00014	3
43759	-5e-05	-7e-05	-8e-05	-8e-05	-3e-05	-3e-05	2e-05	-0.00014	3
43760	-5e-05	-7e-05	-8e-05	-8e-05	-3e-05	-3e-05	2e-05	-0.00014	3
43761	-5e-05	-7e-05	-8e-05	-8e-05	-3e-05	-3e-05	2e-05	-0.00014	3
43762	-5e-05	-7e-05	-8e-05	-8e-05	-3e-05	-3e-05	2e-05	-0.00014	3
43763	-5e-05	-7e-05	-8e-05	-8e-05	-3e-05	-3e-05	2e-05	-0.00014	3
43764	-5e-05	-7e-05	-8e-05	-8e-05	-3e-05	-3e-05	2e-05	-0.00014	3
43765	-5e-05	-7e-05	-8e-05	-8e-05	-3e-05	-3e-05	2e-05	-0.00014	3
43766	-5e-05	-7e-05	-8e-05	-8e-05	-3e-05	-3e-05	2e-05	-0.00014	3
43767	-5e-05	-7e-05	-8e-05	-8e-05	-3e-05	-3e-05	2e-05	-0.00014	3
43768	-5e-05	-7e-05	-8e-05	-8e-05	-3e-05	-3e-05	2e-05	-0.00014	3
43769	-5e-05	-7e-05	-8e-05	-8e-05	-3e-05	-3e-05	2e-05	-0.00014	3
43770	-5e-05	-7e-05	-8e-05	-8e-05	-3e-05	-3e-05	2e-05	-0.00014	3
43771	-5e-05	-7e-05	-8e-05	-8e-05	-3e-05	-3e-05	2e-05	-0.00014	3
43772	-5e-05	-7e-05	-8e-05	-8e-05	-3e-05	-3e-05	2e-05	-0.00014	3
43773	-5e-05	-7e-05	1e-05	-1e-05	-3e-05	-1e-05	-2e-05	3e-05	3
43774	-5e-05	-7e-05	1e-05	-1e-05	-3e-05	-1e-05	-2e-05	3e-05	3
43775	-5e-05	-7e-05	1e-05	-1e-05	-3e-05	-1e-05	-2e-05	3e-05	3
43776	-5e-05	-7e-05	1e-05	-1e-05	-3e-05	-1e-05	-2e-05	3e-05	3
43777	-5e-05	-7e-05	1e-05	-1e-05	-3e-05	-1e-05	-2e-05	3e-05	3
43778	-5e-05	-7e-05	1e-05	-1e-05	-3e-05	-1e-05	-2e-05	3e-05	3
43779	-5e-05	-7e-05	1e-05	-1e-05	-3e-05	-1e-05	-2e-05	3e-05	3
43780	-5e-05	-7e-05	1e-05	-1e-05	-3e-05	-1e-05	-2e-05	3e-05	3
43781	-5e-05	-7e-05	1e-05	-1e-05	-3e-05	-1e-05	-2e-05	3e-05	3
43782	-5e-05	-7e-05	1e-05	-1e-05	-3e-05	-1e-05	-2e-05	3e-05	3
43783	-5e-05	-7e-05	1e-05	-1e-05	-3e-05	-1e-05	-2e-05	3e-05	3
43784	-5e-05	-7e-05	1e-05	-1e-05	-3e-05	-1e-05	-2e-05	3e-05	3
43785	-5e-05	-7e-05	1e-05	-1e-05	-3e-05	-1e-05	-2e-05	3e-05	3
43786	-5e-05	-7e-05	1e-05	-1e-05	-3e-05	-1e-05	-2e-05	3e-05	3
43788	-5e-05	-7e-05	1e-05	-1e-05	-3e-05	-1e-05	-2e-05	3e-05	3
43789	-5e-05	-7e-05	1e-05	-1e-05	-3e-05	-1e-05	-2e-05	3e-05	3
43790	-5e-05	-7e-05	1e-05	-1e-05	-3e-05	-1e-05	-2e-05	3e-05	3
43791	-5e-05	-7e-05	1e-05	-1e-05	-3e-05	-1e-05	-2e-05	3e-05	3
43792	-5e-05	-7e-05	1e-05	-1e-05	-3e-05	-1e-05	-2e-05	3e-05	3
43793	-5e-05	-7e-05	1e-05	-1e-05	-3e-05	-1e-05	-2e-05	3e-05	3
43794	-7e-05	-4e-05	-4e-05	1e-05	-2e-05	3e-05	-3e-05	-0.00019	3
43795	-7e-05	-4e-05	-4e-05	1e-05	-2e-05	3e-05	-3e-05	-0.00019	3
43796	2e-05	9e-05	3e-05	5e-05	-6e-05	0	1e-05	4e-05	3
43797	2e-05	9e-05	3e-05	5e-05	-6e-05	0	1e-05	4e-05	3
43798	2e-05	9e-05	3e-05	5e-05	-6e-05	0	1e-05	4e-05	3
43799	2e-05	9e-05	3e-05	5e-05	-6e-05	0	1e-05	4e-05	3
43800	2e-05	9e-05	3e-05	5e-05	-6e-05	0	1e-05	4e-05	3
43801	2e-05	9e-05	3e-05	5e-05	-6e-05	0	1e-05	4e-05	3
43802	2e-05	9e-05	3e-05	5e-05	-6e-05	0	1e-05	4e-05	3
43803	2e-05	9e-05	3e-05	5e-05	-6e-05	0	1e-05	4e-05	3
43804	2e-05	9e-05	3e-05	5e-05	-6e-05	0	1e-05	4e-05	3
43805	2e-05	9e-05	3e-05	5e-05	-6e-05	0	1e-05	4e-05	3
43806	2e-05	9e-05	3e-05	5e-05	-6e-05	0	1e-05	4e-05	3
43807	2e-05	9e-05	3e-05	5e-05	-6e-05	0	1e-05	4e-05	3
43808	0	0.00013	1e-05	-2e-05	-2e-05	-1e-05	5e-05	-0.00012	3
43809	0	0.00013	1e-05	-2e-05	-2e-05	-1e-05	5e-05	-0.00012	3
43810	0	0.00013	1e-05	-2e-05	-2e-05	-1e-05	5e-05	-0.00012	3
43811	0	0.00013	1e-05	-2e-05	-2e-05	-1e-05	5e-05	-0.00012	3
43812	0	0.00013	1e-05	-2e-05	-2e-05	-1e-05	5e-05	-0.00012	3
43813	0	0.00013	1e-05	-2e-05	-2e-05	-1e-05	5e-05	-0.00012	3
43814	0	0.00013	1e-05	-2e-05	-2e-05	-1e-05	5e-05	-0.00012	3
43815	0	0.00013	1e-05	-2e-05	-2e-05	-1e-05	5e-05	-0.00012	3
43816	0	0.00013	1e-05	-2e-05	-2e-05	-1e-05	5e-05	-0.00012	3
43817	5e-05	0.00012	3e-05	-1e-05	-7e-05	-2e-05	1e-05	-0.00023	3
43818	5e-05	0.00012	3e-05	-1e-05	-7e-05	-2e-05	1e-05	-0.00023	3
