29247	-3e-05	-3e-05	-1e-05	1e-05	0.00027	4e-05	6e-05	9e-05	6
29248	-3e-05	-3e-05	-1e-05	1e-05	0.00027	4e-05	6e-05	9e-05	6
29249	-3e-05	-3e-05	-1e-05	1e-05	0.00027	4e-05	6e-05	9e-05	6
29250	-3e-05	-3e-05	-1e-05	1e-05	0.00027	4e-05	6e-05	9e-05	6
29251	-3e-05	-3e-05	-1e-05	1e-05	0.00027	4e-05	6e-05	9e-05	6
29252	-7e-05	5e-05	5e-05	8e-05	0.00034	0.00012	0.00038	-0.00041	6
29253	-7e-05	5e-05	5e-05	8e-05	0.00034	0.00012	0.00038	-0.00041	6
29254	-7e-05	5e-05	5e-05	8e-05	0.00034	0.00012	0.00038	-0.00041	6
29255	-7e-05	5e-05	5e-05	8e-05	0.00034	0.00012	0.00038	-0.00041	6
29256	-7e-05	5e-05	5e-05	8e-05	0.00034	0.00012	0.00038	-0.00041	6
29257	-7e-05	5e-05	5e-05	8e-05	0.00034	0.00012	0.00038	-0.00041	6
29258	3e-05	0	0	-8e-05	-0.00012	-1e-05	2e-05	-0.0002	6
29259	3e-05	0	0	-8e-05	-0.00012	-1e-05	2e-05	-0.0002	6
29260	3e-05	0	0	-8e-05	-0.00012	-1e-05	2e-05	-0.0002	6
29261	3e-05	0	0	-8e-05	-0.00012	-1e-05	2e-05	-0.0002	6
29262	3e-05	0	0	-8e-05	-0.00012	-1e-05	2e-05	-0.0002	6
29263	3e-05	0	0	-8e-05	-0.00012	-1e-05	2e-05	-0.0002	6
29264	3e-05	0	0	-8e-05	-0.00012	-1e-05	2e-05	-0.0002	6
29265	3e-05	0	0	-8e-05	-0.00012	-1e-05	2e-05	-0.0002	6
29266	3e-05	0	0	-8e-05	-0.00012	-1e-05	2e-05	-0.0002	6
29267	3e-05	0	0	-8e-05	-0.00012	-1e-05	2e-05	-0.0002	6
29268	3e-05	0	0	-8e-05	-0.00012	-1e-05	2e-05	-0.0002	6
29269	3e-05	0	0	-8e-05	-0.00012	-1e-05	2e-05	-0.0002	6
29270	3e-05	0	0	-8e-05	-0.00012	-1e-05	2e-05	-0.0002	6
29271	3e-05	0	0	-8e-05	-0.00012	-1e-05	2e-05	-0.0002	6
29272	3e-05	0	0	-8e-05	-0.00012	-1e-05	2e-05	-0.0002	6
29273	3e-05	0	0	-8e-05	-0.00012	-1e-05	2e-05	-0.0002	6
29274	3e-05	0	0	-8e-05	-0.00012	-1e-05	2e-05	-0.0002	6
29275	-9e-05	0	1e-05	1e-05	8e-05	5e-05	-9e-05	-0.00054	6
29276	1e-05	5e-05	0	2e-05	-2e-05	-0.00016	-7e-05	-0.0005	6
29277	1e-05	5e-05	0	2e-05	-2e-05	-0.00016	-7e-05	-0.0005	6
29278	1e-05	5e-05	0	2e-05	-2e-05	-0.00016	-7e-05	-0.0005	6
29279	1e-05	5e-05	0	2e-05	-2e-05	-0.00016	-7e-05	-0.0005	6
29280	1e-05	5e-05	0	2e-05	-2e-05	-0.00016	-7e-05	-0.0005	6
29281	1e-05	5e-05	0	2e-05	-2e-05	-0.00016	-7e-05	-0.0005	6
29282	1e-05	5e-05	0	2e-05	-2e-05	-0.00016	-7e-05	-0.0005	6
29283	1e-05	5e-05	0	2e-05	-2e-05	-0.00016	-7e-05	-0.0005	6
29284	1e-05	5e-05	0	2e-05	-2e-05	-0.00016	-7e-05	-0.0005	6
29285	1e-05	5e-05	0	2e-05	-2e-05	-0.00016	-7e-05	-0.0005	6
29286	1e-05	5e-05	0	2e-05	-2e-05	-0.00016	-7e-05	-0.0005	6
29288	1e-05	5e-05	0	2e-05	-2e-05	-0.00016	-7e-05	-0.0005	6
29289	1e-05	5e-05	0	2e-05	-2e-05	-0.00016	-7e-05	-0.0005	6
29290	1e-05	5e-05	0	2e-05	-2e-05	-0.00016	-7e-05	-0.0005	6
29291	1e-05	5e-05	0	2e-05	-2e-05	-0.00016	-7e-05	-0.0005	6
29292	1e-05	5e-05	0	2e-05	-2e-05	-0.00016	-7e-05	-0.0005	6
29293	1e-05	5e-05	0	2e-05	-2e-05	-0.00016	-7e-05	-0.0005	6
29294	1e-05	5e-05	0	2e-05	-2e-05	-0.00016	-7e-05	-0.0005	6
29295	1e-05	5e-05	0	2e-05	-2e-05	-0.00016	-7e-05	-0.0005	6
29296	1e-05	5e-05	0	2e-05	-2e-05	-0.00016	-7e-05	-0.0005	6
29297	1e-05	5e-05	0	2e-05	-2e-05	-0.00016	-7e-05	-0.0005	6
29298	1e-05	5e-05	0	2e-05	-2e-05	-0.00016	-7e-05	-0.0005	6
29299	1e-05	5e-05	0	2e-05	-2e-05	-0.00016	-7e-05	-0.0005	6
29300	1e-05	5e-05	0	2e-05	-2e-05	-0.00016	-7e-05	-0.0005	6
29301	1e-05	5e-05	0	2e-05	-2e-05	-0.00016	-7e-05	-0.0005	6
29302	1e-05	5e-05	0	2e-05	-2e-05	-0.00016	-7e-05	-0.0005	6
29303	1e-05	5e-05	0	2e-05	-2e-05	-0.00016	-7e-05	-0.0005	6
29304	1e-05	5e-05	0	2e-05	-2e-05	-0.00016	-7e-05	-0.0005	6
29305	1e-05	5e-05	0	2e-05	-2e-05	-0.00016	-7e-05	-0.0005	6
29306	1e-05	5e-05	0	2e-05	-2e-05	-0.00016	-7e-05	-0.0005	6
29307	1e-05	5e-05	0	2e-05	-2e-05	-0.00016	-7e-05	-0.0005	6
29308	1e-05	5e-05	0	2e-05	-2e-05	-0.00016	-7e-05	-0.0005	6
29309	1e-05	5e-05	0	2e-05	-2e-05	-0.00016	-7e-05	-0.0005	6
29310	1e-05	5e-05	0	2e-05	-2e-05	-0.00016	-7e-05	-0.0005	6
29311	1e-05	5e-05	0	2e-05	-2e-05	-0.00016	-7e-05	-0.0005	6
29312	1e-05	5e-05	0	2e-05	-2e-05	-0.00016	-7e-05	-0.0005	6
29313	1e-05	5e-05	0	2e-05	-2e-05	-0.00016	-7e-05	-0.0005	6
29314	-6e-05	-3e-05	0	-4e-05	-0.00026	-0.00011	-0.00042	0.00073	6
29315	-0.00016	-1e-05	2e-05	-1e-05	-0.00035	-2e-05	-2e-05	-4e-05	6
29316	9e-05	-1e-05	-3e-05	-1e-05	-8e-05	8e-05	0	0.0002	6
29317	9e-05	-1e-05	-3e-05	-1e-05	-8e-05	8e-05	0	0.0002	6
29318	9e-05	-1e-05	-3e-05	-1e-05	-8e-05	8e-05	0	0.0002	6
29319	9e-05	-1e-05	-3e-05	-1e-05	-8e-05	8e-05	0	0.0002	6
29320	-0.00011	0	0	2e-05	-0.00013	-0.00012	-1e-05	0	6
29321	-0.00011	0	0	2e-05	-0.00013	-0.00012	-1e-05	0	6
29322	-0.00011	0	0	2e-05	-0.00013	-0.00012	-1e-05	0	6
29323	-0.00011	0	0	2e-05	-0.00013	-0.00012	-1e-05	0	6
29324	-0.00011	0	0	2e-05	-0.00013	-0.00012	-1e-05	0	6
29325	-0.00011	0	0	2e-05	-0.00013	-0.00012	-1e-05	0	6
29326	-0.00011	0	0	2e-05	-0.00013	-0.00012	-1e-05	0	6
29327	-0.00011	0	0	2e-05	-0.00013	-0.00012	-1e-05	0	6
29328	-0.00011	0	0	2e-05	-0.00013	-0.00012	-1e-05	0	6
29329	-0.00011	0	0	2e-05	-0.00013	-0.00012	-1e-05	0	6
29330	-0.00011	0	0	2e-05	-0.00013	-0.00012	-1e-05	0	6
29331	-0.00011	0	0	2e-05	-0.00013	-0.00012	-1e-05	0	6
29332	-0.00011	0	0	2e-05	-0.00013	-0.00012	-1e-05	0	6
29333	-0.00011	0	0	2e-05	-0.00013	-0.00012	-1e-05	0	6
29334	-0.00011	0	0	2e-05	-0.00013	-0.00012	-1e-05	0	6
29335	-9e-05	0	0	4e-05	9e-05	-0.00011	-0.00014	-0.00026	6
29336	-4e-05	-2e-05	-1e-05	-4e-05	0.0001	7e-05	-0.00013	0.0004	6
29338	-4e-05	-2e-05	-1e-05	-4e-05	0.0001	7e-05	-0.00013	0.0004	6
29339	-4e-05	-2e-05	-1e-05	-4e-05	0.0001	7e-05	-0.00013	0.0004	6
29340	-4e-05	-2e-05	-1e-05	-4e-05	0.0001	7e-05	-0.00013	0.0004	6
29341	-4e-05	-2e-05	-1e-05	-4e-05	0.0001	7e-05	-0.00013	0.0004	6
29342	-4e-05	-2e-05	-1e-05	-4e-05	0.0001	7e-05	-0.00013	0.0004	6
29343	-4e-05	-2e-05	-1e-05	-4e-05	0.0001	7e-05	-0.00013	0.0004	6
29344	-4e-05	-2e-05	-1e-05	-4e-05	0.0001	7e-05	-0.00013	0.0004	6
29345	-4e-05	-2e-05	-1e-05	-4e-05	0.0001	7e-05	-0.00013	0.0004	6
29346	-4e-05	-2e-05	-1e-05	-4e-05	0.0001	7e-05	-0.00013	0.0004	6
29347	-4e-05	-2e-05	-1e-05	-4e-05	0.0001	7e-05	-0.00013	0.0004	6
29348	-4e-05	-2e-05	-1e-05	-4e-05	0.0001	7e-05	-0.00013	0.0004	6
29349	-4e-05	-2e-05	-1e-05	-4e-05	0.0001	7e-05	-0.00013	0.0004	6
29350	-4e-05	-2e-05	-1e-05	-4e-05	0.0001	7e-05	-0.00013	0.0004	6
29351	-4e-05	-2e-05	-1e-05	-4e-05	0.0001	7e-05	-0.00013	0.0004	6
29352	-4e-05	-2e-05	-1e-05	-4e-05	0.0001	7e-05	-0.00013	0.0004	6
29353	-4e-05	-2e-05	-1e-05	-4e-05	0.0001	7e-05	-0.00013	0.0004	6
29354	-4e-05	-2e-05	-1e-05	-4e-05	0.0001	7e-05	-0.00013	0.0004	6
29355	-4e-05	-2e-05	-1e-05	-4e-05	0.0001	7e-05	-0.00013	0.0004	6
29356	-4e-05	-2e-05	-1e-05	-4e-05	0.0001	7e-05	-0.00013	0.0004	6
29357	-3e-05	-4e-05	-9e-05	1e-05	0.00021	5e-05	0.00011	-0.00072	6
29358	-3e-05	-4e-05	-9e-05	1e-05	0.00021	5e-05	0.00011	-0.00072	6
29359	-1e-05	-4e-05	-3e-05	-2e-05	0	8e-05	0.00017	0.00014	6
29360	-1e-05	-4e-05	-3e-05	-2e-05	0	8e-05	0.00017	0.00014	6
29361	-1e-05	-4e-05	-3e-05	-2e-05	0	8e-05	0.00017	0.00014	6
29362	-1e-05	-4e-05	-3e-05	-2e-05	0	8e-05	0.00017	0.00014	6
29363	-1e-05	-4e-05	-3e-05	-2e-05	0	8e-05	0.00017	0.00014	6
29364	-1e-05	-4e-05	-3e-05	-2e-05	0	8e-05	0.00017	0.00014	6
29365	-1e-05	-4e-05	-3e-05	-2e-05	0	8e-05	0.00017	0.00014	6
29366	-1e-05	-4e-05	-3e-05	-2e-05	0	8e-05	0.00017	0.00014	6
29367	-1e-05	-4e-05	-3e-05	-2e-05	0	8e-05	0.00017	0.00014	6
29368	-1e-05	-4e-05	-3e-05	-2e-05	0	8e-05	0.00017	0.00014	6
29369	-1e-05	-4e-05	-3e-05	-2e-05	0	8e-05	0.00017	0.00014	6
29370	-1e-05	-4e-05	-3e-05	-2e-05	0	8e-05	0.00017	0.00014	6
29371	0.0001	4e-05	6e-05	-1e-05	-0.00017	-9e-05	-7e-05	0.00017	6
29372	0.0001	4e-05	6e-05	-1e-05	-0.00017	-9e-05	-7e-05	0.00017	6
29373	0.0001	4e-05	6e-05	-1e-05	-0.00017	-9e-05	-7e-05	0.00017	6
29374	0.0001	4e-05	6e-05	-1e-05	-0.00017	-9e-05	-7e-05	0.00017	6
29375	0.0001	4e-05	6e-05	-1e-05	-0.00017	-9e-05	-7e-05	0.00017	6
29376	0.0001	4e-05	6e-05	-1e-05	-0.00017	-9e-05	-7e-05	0.00017	6
29377	0.0001	4e-05	6e-05	-1e-05	-0.00017	-9e-05	-7e-05	0.00017	6
29378	6e-05	0	-1e-05	-1e-05	-2e-05	0.0001	0.00014	0.00021	6
29380	6e-05	0	-1e-05	-1e-05	-2e-05	0.0001	0.00014	0.00021	6
29381	6e-05	0	-1e-05	-1e-05	-2e-05	0.0001	0.00014	0.00021	6
29382	6e-05	0	-1e-05	-1e-05	-2e-05	0.0001	0.00014	0.00021	6
29383	6e-05	0	-1e-05	-1e-05	-2e-05	0.0001	0.00014	0.00021	6
29384	6e-05	0	-1e-05	-1e-05	-2e-05	0.0001	0.00014	0.00021	6
29385	6e-05	0	-1e-05	-1e-05	-2e-05	0.0001	0.00014	0.00021	6
29386	6e-05	0	-1e-05	-1e-05	-2e-05	0.0001	0.00014	0.00021	6
29388	6e-05	0	-1e-05	-1e-05	-2e-05	0.0001	0.00014	0.00021	6
29390	6e-05	0	-1e-05	-1e-05	-2e-05	0.0001	0.00014	0.00021	6
29391	6e-05	0	-1e-05	-1e-05	-2e-05	0.0001	0.00014	0.00021	6
29392	6e-05	0	-1e-05	-1e-05	-2e-05	0.0001	0.00014	0.00021	6
29393	6e-05	0	-1e-05	-1e-05	-2e-05	0.0001	0.00014	0.00021	6
29394	6e-05	0	-1e-05	-1e-05	-2e-05	0.0001	0.00014	0.00021	6
29395	3e-05	1e-05	-1e-05	0	-2e-05	-0.00016	0.00021	0.00014	6
29396	0.00021	-3e-05	-3e-05	-5e-05	-0.00012	-9e-05	-0.0001	0.00014	6
29397	0.00021	-3e-05	-3e-05	-5e-05	-0.00012	-9e-05	-0.0001	0.00014	6
29398	0.00021	-3e-05	-3e-05	-5e-05	-0.00012	-9e-05	-0.0001	0.00014	6
29399	0.00021	-3e-05	-3e-05	-5e-05	-0.00012	-9e-05	-0.0001	0.00014	6
29400	0.00021	-3e-05	-3e-05	-5e-05	-0.00012	-9e-05	-0.0001	0.00014	6
29401	0.00021	-3e-05	-3e-05	-5e-05	-0.00012	-9e-05	-0.0001	0.00014	6
29402	0.00021	-3e-05	-3e-05	-5e-05	-0.00012	-9e-05	-0.0001	0.00014	6
29403	0.00021	-3e-05	-3e-05	-5e-05	-0.00012	-9e-05	-0.0001	0.00014	6
29404	0.00021	-3e-05	-3e-05	-5e-05	-0.00012	-9e-05	-0.0001	0.00014	6
29405	0.00021	-3e-05	-3e-05	-5e-05	-0.00012	-9e-05	-0.0001	0.00014	6
29406	0.00021	-3e-05	-3e-05	-5e-05	-0.00012	-9e-05	-0.0001	0.00014	6
29407	0.00021	-3e-05	-3e-05	-5e-05	-0.00012	-9e-05	-0.0001	0.00014	6
29408	0.00021	-3e-05	-3e-05	-5e-05	-0.00012	-9e-05	-0.0001	0.00014	6
29409	0.00021	-3e-05	-3e-05	-5e-05	-0.00012	-9e-05	-0.0001	0.00014	6
29410	0.00021	-3e-05	-3e-05	-5e-05	-0.00012	-9e-05	-0.0001	0.00014	6
29411	0.00021	-3e-05	-3e-05	-5e-05	-0.00012	-9e-05	-0.0001	0.00014	6
29412	0.00021	-3e-05	-3e-05	-5e-05	-0.00012	-9e-05	-0.0001	0.00014	6
29413	0.00021	-3e-05	-3e-05	-5e-05	-0.00012	-9e-05	-0.0001	0.00014	6
29414	0.00021	-3e-05	-3e-05	-5e-05	-0.00012	-9e-05	-0.0001	0.00014	6
29415	0.00021	-3e-05	-3e-05	-5e-05	-0.00012	-9e-05	-0.0001	0.00014	6
29416	0.00021	-3e-05	-3e-05	-5e-05	-0.00012	-9e-05	-0.0001	0.00014	6
29417	6e-05	1e-05	0	4e-05	0.00039	5e-05	3e-05	0.00036	6
29418	6e-05	1e-05	0	4e-05	0.00039	5e-05	3e-05	0.00036	6
29419	3e-05	3e-05	2e-05	-8e-05	-4e-05	-0.00016	-4e-05	-0.0002	6
29420	3e-05	3e-05	2e-05	-8e-05	-4e-05	-0.00016	-4e-05	-0.0002	6
29421	3e-05	3e-05	2e-05	-8e-05	-4e-05	-0.00016	-4e-05	-0.0002	6
29422	3e-05	3e-05	2e-05	-8e-05	-4e-05	-0.00016	-4e-05	-0.0002	6
29423	3e-05	3e-05	2e-05	-8e-05	-4e-05	-0.00016	-4e-05	-0.0002	6
29424	3e-05	3e-05	2e-05	-8e-05	-4e-05	-0.00016	-4e-05	-0.0002	6
29425	3e-05	3e-05	2e-05	-8e-05	-4e-05	-0.00016	-4e-05	-0.0002	6
29426	3e-05	3e-05	2e-05	-8e-05	-4e-05	-0.00016	-4e-05	-0.0002	6
29427	3e-05	3e-05	2e-05	-8e-05	-4e-05	-0.00016	-4e-05	-0.0002	6
29428	3e-05	3e-05	2e-05	-8e-05	-4e-05	-0.00016	-4e-05	-0.0002	6
29429	3e-05	3e-05	2e-05	-8e-05	-4e-05	-0.00016	-4e-05	-0.0002	6
29430	3e-05	3e-05	2e-05	-8e-05	-4e-05	-0.00016	-4e-05	-0.0002	6
29431	3e-05	3e-05	2e-05	-8e-05	-4e-05	-0.00016	-4e-05	-0.0002	6
29432	3e-05	0	-2e-05	1e-05	-7e-05	-0.00024	-2e-05	0.00052	6
29433	3e-05	0	-2e-05	1e-05	-7e-05	-0.00024	-2e-05	0.00052	6
29434	3e-05	0	-2e-05	1e-05	-7e-05	-0.00024	-2e-05	0.00052	6
29435	3e-05	0	-2e-05	1e-05	-7e-05	-0.00024	-2e-05	0.00052	6
29436	3e-05	0	-2e-05	1e-05	-7e-05	-0.00024	-2e-05	0.00052	6
29438	3e-05	0	-2e-05	1e-05	-7e-05	-0.00024	-2e-05	0.00052	6
29440	-2e-05	-2e-05	-2e-05	0	-5e-05	-6e-05	2e-05	4e-05	6
29441	-2e-05	-2e-05	-2e-05	0	-5e-05	-6e-05	2e-05	4e-05	6
29442	-2e-05	-2e-05	-2e-05	0	-5e-05	-6e-05	2e-05	4e-05	6
29443	-2e-05	-2e-05	-2e-05	0	-5e-05	-6e-05	2e-05	4e-05	6
29444	-2e-05	-2e-05	-2e-05	0	-5e-05	-6e-05	2e-05	4e-05	6
29445	-2e-05	-2e-05	-2e-05	0	-5e-05	-6e-05	2e-05	4e-05	6
29446	-2e-05	-2e-05	-2e-05	0	-5e-05	-6e-05	2e-05	4e-05	6
29447	-2e-05	-2e-05	-2e-05	0	-5e-05	-6e-05	2e-05	4e-05	6
29448	-2e-05	-2e-05	-2e-05	0	-5e-05	-6e-05	2e-05	4e-05	6
29449	-2e-05	-2e-05	-2e-05	0	-5e-05	-6e-05	2e-05	4e-05	6
29450	-2e-05	-2e-05	-2e-05	0	-5e-05	-6e-05	2e-05	4e-05	6
29451	-2e-05	-2e-05	-2e-05	0	-5e-05	-6e-05	2e-05	4e-05	6
29452	-2e-05	-2e-05	-2e-05	0	-5e-05	-6e-05	2e-05	4e-05	6
29453	-2e-05	-2e-05	-2e-05	0	-5e-05	-6e-05	2e-05	4e-05	6
29454	-2e-05	-2e-05	-2e-05	0	-5e-05	-6e-05	2e-05	4e-05	6
29455	0.00054	4e-05	0	-7e-05	-0.00011	5e-05	-8e-05	0.00023	6
29456	0.00054	4e-05	0	-7e-05	-0.00011	5e-05	-8e-05	0.00023	6
29457	-4e-05	-2e-05	-2e-05	4e-05	-0.00019	5e-05	-2e-05	-0.00033	6
29458	-4e-05	-2e-05	-2e-05	4e-05	-0.00019	5e-05	-2e-05	-0.00033	6
29459	-4e-05	-2e-05	-2e-05	4e-05	-0.00019	5e-05	-2e-05	-0.00033	6
29460	-4e-05	-2e-05	-2e-05	4e-05	-0.00019	5e-05	-2e-05	-0.00033	6
29461	-4e-05	-2e-05	-2e-05	4e-05	-0.00019	5e-05	-2e-05	-0.00033	6
29462	-4e-05	-2e-05	-2e-05	4e-05	-0.00019	5e-05	-2e-05	-0.00033	6
29463	-4e-05	-2e-05	-2e-05	4e-05	-0.00019	5e-05	-2e-05	-0.00033	6
29464	-4e-05	-2e-05	-2e-05	4e-05	-0.00019	5e-05	-2e-05	-0.00033	6
29465	-4e-05	-2e-05	-2e-05	4e-05	-0.00019	5e-05	-2e-05	-0.00033	6
29466	-4e-05	-2e-05	-2e-05	4e-05	-0.00019	5e-05	-2e-05	-0.00033	6
29467	-4e-05	-2e-05	-2e-05	4e-05	-0.00019	5e-05	-2e-05	-0.00033	6
29468	-4e-05	-2e-05	-2e-05	4e-05	-0.00019	5e-05	-2e-05	-0.00033	6
29469	-4e-05	-2e-05	-2e-05	4e-05	-0.00019	5e-05	-2e-05	-0.00033	6
29470	-4e-05	-2e-05	-2e-05	4e-05	-0.00019	5e-05	-2e-05	-0.00033	6
29471	-4e-05	-2e-05	-2e-05	4e-05	-0.00019	5e-05	-2e-05	-0.00033	6
29472	-4e-05	-2e-05	-2e-05	4e-05	-0.00019	5e-05	-2e-05	-0.00033	6
29473	-4e-05	-2e-05	-2e-05	4e-05	-0.00019	5e-05	-2e-05	-0.00033	6
29474	-4e-05	-2e-05	-2e-05	4e-05	-0.00019	5e-05	-2e-05	-0.00033	6
29475	-4e-05	-2e-05	-2e-05	4e-05	-0.00019	5e-05	-2e-05	-0.00033	6
29476	-4e-05	-2e-05	-2e-05	4e-05	-0.00019	5e-05	-2e-05	-0.00033	6
29477	-0.00012	1e-05	4e-05	-3e-05	-0.0003	0	-0.00014	-0.00023	6
29478	-0.00012	1e-05	4e-05	-3e-05	-0.0003	0	-0.00014	-0.00023	6
29479	-8e-05	-1e-05	-1e-05	2e-05	0.00034	6e-05	-0.00051	-0.00086	6
29480	-8e-05	-1e-05	-1e-05	2e-05	0.00034	6e-05	-0.00051	-0.00086	6
29481	-8e-05	-1e-05	-1e-05	2e-05	0.00034	6e-05	-0.00051	-0.00086	6
29482	-8e-05	-1e-05	-1e-05	2e-05	0.00034	6e-05	-0.00051	-0.00086	6
29483	-8e-05	-1e-05	-1e-05	2e-05	0.00034	6e-05	-0.00051	-0.00086	6
29484	-8e-05	-1e-05	-1e-05	2e-05	0.00034	6e-05	-0.00051	-0.00086	6
29485	-8e-05	-1e-05	-1e-05	2e-05	0.00034	6e-05	-0.00051	-0.00086	6
29486	-8e-05	-1e-05	-1e-05	2e-05	0.00034	6e-05	-0.00051	-0.00086	6
29488	-8e-05	-1e-05	-1e-05	2e-05	0.00034	6e-05	-0.00051	-0.00086	6
29489	-8e-05	-1e-05	-1e-05	2e-05	0.00034	6e-05	-0.00051	-0.00086	6
29490	-8e-05	-1e-05	-1e-05	2e-05	0.00034	6e-05	-0.00051	-0.00086	6
29491	-0.00015	-6e-05	-1e-05	2e-05	0	1e-05	-6e-05	1e-05	6
29492	-0.00015	-6e-05	-1e-05	2e-05	0	1e-05	-6e-05	1e-05	6
29493	-0.00015	-6e-05	-1e-05	2e-05	0	1e-05	-6e-05	1e-05	6
29494	-0.00015	-6e-05	-1e-05	2e-05	0	1e-05	-6e-05	1e-05	6
29495	-0.00015	-6e-05	-1e-05	2e-05	0	1e-05	-6e-05	1e-05	6
29496	-0.00015	-6e-05	-1e-05	2e-05	0	1e-05	-6e-05	1e-05	6
29497	-0.00015	-6e-05	-1e-05	2e-05	0	1e-05	-6e-05	1e-05	6
29498	-0.00015	-6e-05	-1e-05	2e-05	0	1e-05	-6e-05	1e-05	6
29499	-0.00015	-6e-05	-1e-05	2e-05	0	1e-05	-6e-05	1e-05	6
29500	-0.00014	-6e-05	-6e-05	0	9e-05	2e-05	-0.0001	8e-05	6
29501	-0.00014	-6e-05	-6e-05	0	9e-05	2e-05	-0.0001	8e-05	6
29502	-0.00014	-6e-05	-6e-05	0	9e-05	2e-05	-0.0001	8e-05	6
29503	-0.00014	-6e-05	-6e-05	0	9e-05	2e-05	-0.0001	8e-05	6
29504	-0.00014	-6e-05	-6e-05	0	9e-05	2e-05	-0.0001	8e-05	6
29505	-0.00014	-6e-05	-6e-05	0	9e-05	2e-05	-0.0001	8e-05	6
29506	-0.00014	-6e-05	-6e-05	0	9e-05	2e-05	-0.0001	8e-05	6
29507	-0.00014	-6e-05	-6e-05	0	9e-05	2e-05	-0.0001	8e-05	6
29508	-0.00014	-6e-05	-6e-05	0	9e-05	2e-05	-0.0001	8e-05	6
29509	-0.00014	-6e-05	-6e-05	0	9e-05	2e-05	-0.0001	8e-05	6
29510	-0.00014	-6e-05	-6e-05	0	9e-05	2e-05	-0.0001	8e-05	6
29511	-0.00014	-6e-05	-6e-05	0	9e-05	2e-05	-0.0001	8e-05	6
29512	-0.00014	-6e-05	-6e-05	0	9e-05	2e-05	-0.0001	8e-05	6
29513	-0.00014	-6e-05	-6e-05	0	9e-05	2e-05	-0.0001	8e-05	6
29514	-0.00014	-6e-05	-6e-05	0	9e-05	2e-05	-0.0001	8e-05	6
29515	-3e-05	-2e-05	-3e-05	-3e-05	7e-05	5e-05	1e-05	-0.00025	6
29516	3e-05	1e-05	0	5e-05	0.00026	4e-05	9e-05	0.00033	6
29517	3e-05	1e-05	0	5e-05	0.00026	4e-05	9e-05	0.00033	6
29518	3e-05	1e-05	0	5e-05	0.00026	4e-05	9e-05	0.00033	6
29519	3e-05	1e-05	0	5e-05	0.00026	4e-05	9e-05	0.00033	6
29520	3e-05	1e-05	0	5e-05	0.00026	4e-05	9e-05	0.00033	6
29521	3e-05	1e-05	0	5e-05	0.00026	4e-05	9e-05	0.00033	6
29522	3e-05	1e-05	0	5e-05	0.00026	4e-05	9e-05	0.00033	6
29523	3e-05	1e-05	0	5e-05	0.00026	4e-05	9e-05	0.00033	6
29524	3e-05	1e-05	0	5e-05	0.00026	4e-05	9e-05	0.00033	6
29525	3e-05	1e-05	0	5e-05	0.00026	4e-05	9e-05	0.00033	6
29526	3e-05	1e-05	0	5e-05	0.00026	4e-05	9e-05	0.00033	6
29527	3e-05	1e-05	0	5e-05	0.00026	4e-05	9e-05	0.00033	6
29528	3e-05	1e-05	0	5e-05	0.00026	4e-05	9e-05	0.00033	6
29529	3e-05	1e-05	0	5e-05	0.00026	4e-05	9e-05	0.00033	6
29530	3e-05	1e-05	0	5e-05	0.00026	4e-05	9e-05	0.00033	6
29531	3e-05	1e-05	0	5e-05	0.00026	4e-05	9e-05	0.00033	6
29532	3e-05	1e-05	0	5e-05	0.00026	4e-05	9e-05	0.00033	6
29533	3e-05	1e-05	0	5e-05	0.00026	4e-05	9e-05	0.00033	6
29534	3e-05	1e-05	0	5e-05	0.00026	4e-05	9e-05	0.00033	6
29535	3e-05	1e-05	0	5e-05	0.00026	4e-05	9e-05	0.00033	6
29536	3e-05	1e-05	0	5e-05	0.00026	4e-05	9e-05	0.00033	6
29538	2e-05	0	-2e-05	-5e-05	-0.00022	3e-05	7e-05	0.00024	6
29539	0	0	3e-05	1e-05	0.00018	-1e-05	-3e-05	7e-05	6
29540	0.00011	0	1e-05	0	-5e-05	-5e-05	-0.00014	0.00045	6
29541	0.00011	0	1e-05	0	-5e-05	-5e-05	-0.00014	0.00045	6
29542	0.00011	0	1e-05	0	-5e-05	-5e-05	-0.00014	0.00045	6
29543	0.00011	0	1e-05	0	-5e-05	-5e-05	-0.00014	0.00045	6
29544	0.00011	0	1e-05	0	-5e-05	-5e-05	-0.00014	0.00045	6
29545	0.00011	0	1e-05	0	-5e-05	-5e-05	-0.00014	0.00045	6
29546	0.00011	0	1e-05	0	-5e-05	-5e-05	-0.00014	0.00045	6
29547	0.00011	0	1e-05	0	-5e-05	-5e-05	-0.00014	0.00045	6
29548	0.00011	0	1e-05	0	-5e-05	-5e-05	-0.00014	0.00045	6
29549	0.00011	0	1e-05	0	-5e-05	-5e-05	-0.00014	0.00045	6
29550	0.00011	0	1e-05	0	-5e-05	-5e-05	-0.00014	0.00045	6
29551	-0.00025	1e-05	-2e-05	-4e-05	-4e-05	-5e-05	-3e-05	0.00011	6
29552	-0.00025	1e-05	-2e-05	-4e-05	-4e-05	-5e-05	-3e-05	0.00011	6
29553	-0.00025	1e-05	-2e-05	-4e-05	-4e-05	-5e-05	-3e-05	0.00011	6
29554	-0.00025	1e-05	-2e-05	-4e-05	-4e-05	-5e-05	-3e-05	0.00011	6
29555	-0.00025	1e-05	-2e-05	-4e-05	-4e-05	-5e-05	-3e-05	0.00011	6
29556	-0.00025	1e-05	-2e-05	-4e-05	-4e-05	-5e-05	-3e-05	0.00011	6
29557	-0.00025	1e-05	-2e-05	-4e-05	-4e-05	-5e-05	-3e-05	0.00011	6
29558	-0.00025	1e-05	-2e-05	-4e-05	-4e-05	-5e-05	-3e-05	0.00011	6
29559	-0.00025	1e-05	-2e-05	-4e-05	-4e-05	-5e-05	-3e-05	0.00011	6
29560	-1e-05	-1e-05	1e-05	-3e-05	-7e-05	-1e-05	6e-05	-9e-05	6
29561	-1e-05	-1e-05	1e-05	-3e-05	-7e-05	-1e-05	6e-05	-9e-05	6
29562	-1e-05	-1e-05	1e-05	-3e-05	-7e-05	-1e-05	6e-05	-9e-05	6
29563	-1e-05	-1e-05	1e-05	-3e-05	-7e-05	-1e-05	6e-05	-9e-05	6
29564	-1e-05	-1e-05	1e-05	-3e-05	-7e-05	-1e-05	6e-05	-9e-05	6
29565	-1e-05	-1e-05	1e-05	-3e-05	-7e-05	-1e-05	6e-05	-9e-05	6
29566	-1e-05	-1e-05	1e-05	-3e-05	-7e-05	-1e-05	6e-05	-9e-05	6
29567	-1e-05	-1e-05	1e-05	-3e-05	-7e-05	-1e-05	6e-05	-9e-05	6
29568	-1e-05	-1e-05	1e-05	-3e-05	-7e-05	-1e-05	6e-05	-9e-05	6
29569	-1e-05	-1e-05	1e-05	-3e-05	-7e-05	-1e-05	6e-05	-9e-05	6
29570	-1e-05	-1e-05	1e-05	-3e-05	-7e-05	-1e-05	6e-05	-9e-05	6
29571	-1e-05	-1e-05	1e-05	-3e-05	-7e-05	-1e-05	6e-05	-9e-05	6
29572	-1e-05	-1e-05	1e-05	-3e-05	-7e-05	-1e-05	6e-05	-9e-05	6
29573	-1e-05	-1e-05	1e-05	-3e-05	-7e-05	-1e-05	6e-05	-9e-05	6
29574	-1e-05	-1e-05	1e-05	-3e-05	-7e-05	-1e-05	6e-05	-9e-05	6
29575	-1e-05	-3e-05	-1e-05	-3e-05	-5e-05	-0.0001	0.00021	0.00026	6
29576	1e-05	0	-2e-05	0	-0.00011	7e-05	2e-05	0.00027	6
29577	1e-05	0	-2e-05	0	-0.00011	7e-05	2e-05	0.00027	6
29578	1e-05	0	-2e-05	0	-0.00011	7e-05	2e-05	0.00027	6
29579	1e-05	0	-2e-05	0	-0.00011	7e-05	2e-05	0.00027	6
29580	1e-05	0	-2e-05	0	-0.00011	7e-05	2e-05	0.00027	6
29581	1e-05	0	-2e-05	0	-0.00011	7e-05	2e-05	0.00027	6
29582	1e-05	0	-2e-05	0	-0.00011	7e-05	2e-05	0.00027	6
29583	1e-05	0	-2e-05	0	-0.00011	7e-05	2e-05	0.00027	6
29584	1e-05	0	-2e-05	0	-0.00011	7e-05	2e-05	0.00027	6
29585	1e-05	0	-2e-05	0	-0.00011	7e-05	2e-05	0.00027	6
29586	1e-05	0	-2e-05	0	-0.00011	7e-05	2e-05	0.00027	6
29588	1e-05	0	-2e-05	0	-0.00011	7e-05	2e-05	0.00027	6
29589	1e-05	0	-2e-05	0	-0.00011	7e-05	2e-05	0.00027	6
29590	1e-05	0	-2e-05	0	-0.00011	7e-05	2e-05	0.00027	6
29591	1e-05	0	-2e-05	0	-0.00011	7e-05	2e-05	0.00027	6
29592	1e-05	0	-2e-05	0	-0.00011	7e-05	2e-05	0.00027	6
29593	1e-05	0	-2e-05	0	-0.00011	7e-05	2e-05	0.00027	6
29594	1e-05	0	-2e-05	0	-0.00011	7e-05	2e-05	0.00027	6
29595	1e-05	0	-2e-05	0	-0.00011	7e-05	2e-05	0.00027	6
29596	1e-05	0	-2e-05	0	-0.00011	7e-05	2e-05	0.00027	6
29597	-1e-05	-2e-05	2e-05	2e-05	-0.00011	0.0001	7e-05	-0.00012	6
29598	-1e-05	-2e-05	2e-05	2e-05	-0.00011	0.0001	7e-05	-0.00012	6
29599	-1e-05	1e-05	1e-05	0	-2e-05	4e-05	0.00017	-1e-05	6
29600	-1e-05	1e-05	1e-05	0	-2e-05	4e-05	0.00017	-1e-05	6
29601	-1e-05	1e-05	1e-05	0	-2e-05	4e-05	0.00017	-1e-05	6
29602	-1e-05	1e-05	1e-05	0	-2e-05	4e-05	0.00017	-1e-05	6
29603	-1e-05	1e-05	1e-05	0	-2e-05	4e-05	0.00017	-1e-05	6
29604	-1e-05	1e-05	1e-05	0	-2e-05	4e-05	0.00017	-1e-05	6
29605	-1e-05	1e-05	1e-05	0	-2e-05	4e-05	0.00017	-1e-05	6
29606	-1e-05	1e-05	1e-05	0	-2e-05	4e-05	0.00017	-1e-05	6
29607	-1e-05	1e-05	1e-05	0	-2e-05	4e-05	0.00017	-1e-05	6
29608	-1e-05	1e-05	1e-05	0	-2e-05	4e-05	0.00017	-1e-05	6
29609	-1e-05	1e-05	1e-05	0	-2e-05	4e-05	0.00017	-1e-05	6
29610	-1e-05	1e-05	1e-05	0	-2e-05	4e-05	0.00017	-1e-05	6
29611	7e-05	-2e-05	-2e-05	3e-05	8e-05	4e-05	-2e-05	-0.00031	6
29612	7e-05	-2e-05	-2e-05	3e-05	8e-05	4e-05	-2e-05	-0.00031	6
29613	7e-05	-2e-05	-2e-05	3e-05	8e-05	4e-05	-2e-05	-0.00031	6
29614	7e-05	-2e-05	-2e-05	3e-05	8e-05	4e-05	-2e-05	-0.00031	6
29615	7e-05	-2e-05	-2e-05	3e-05	8e-05	4e-05	-2e-05	-0.00031	6
29616	7e-05	-2e-05	-2e-05	3e-05	8e-05	4e-05	-2e-05	-0.00031	6
29617	7e-05	-2e-05	-2e-05	3e-05	8e-05	4e-05	-2e-05	-0.00031	6
29618	7e-05	-2e-05	-2e-05	3e-05	8e-05	4e-05	-2e-05	-0.00031	6
29619	7e-05	-2e-05	-2e-05	3e-05	8e-05	4e-05	-2e-05	-0.00031	6
29620	-4e-05	0	-1e-05	-1e-05	1e-05	2e-05	0.00015	-0.0002	6
29621	-4e-05	0	-1e-05	-1e-05	1e-05	2e-05	0.00015	-0.0002	6
29622	-4e-05	0	-1e-05	-1e-05	1e-05	2e-05	0.00015	-0.0002	6
29623	-4e-05	0	-1e-05	-1e-05	1e-05	2e-05	0.00015	-0.0002	6
29624	-4e-05	0	-1e-05	-1e-05	1e-05	2e-05	0.00015	-0.0002	6
29625	-4e-05	0	-1e-05	-1e-05	1e-05	2e-05	0.00015	-0.0002	6
29626	-4e-05	0	-1e-05	-1e-05	1e-05	2e-05	0.00015	-0.0002	6
29627	-4e-05	0	-1e-05	-1e-05	1e-05	2e-05	0.00015	-0.0002	6
29628	-4e-05	0	-1e-05	-1e-05	1e-05	2e-05	0.00015	-0.0002	6
29629	-4e-05	0	-1e-05	-1e-05	1e-05	2e-05	0.00015	-0.0002	6
29630	-4e-05	0	-1e-05	-1e-05	1e-05	2e-05	0.00015	-0.0002	6
29631	-4e-05	0	-1e-05	-1e-05	1e-05	2e-05	0.00015	-0.0002	6
29632	-4e-05	0	-1e-05	-1e-05	1e-05	2e-05	0.00015	-0.0002	6
29633	-4e-05	0	-1e-05	-1e-05	1e-05	2e-05	0.00015	-0.0002	6
29634	-4e-05	0	-1e-05	-1e-05	1e-05	2e-05	0.00015	-0.0002	6
29635	-8e-05	-6e-05	-5e-05	-7e-05	-0.00027	-0.00015	0	0.00017	6
29636	0	-5e-05	-5e-05	-2e-05	7e-05	6e-05	0.0001	0.00013	6
29638	0	-5e-05	-5e-05	-2e-05	7e-05	6e-05	0.0001	0.00013	6
29639	0	-5e-05	-5e-05	-2e-05	7e-05	6e-05	0.0001	0.00013	6
29640	0	-5e-05	-5e-05	-2e-05	7e-05	6e-05	0.0001	0.00013	6
29641	0	-5e-05	-5e-05	-2e-05	7e-05	6e-05	0.0001	0.00013	6
29642	0	-5e-05	-5e-05	-2e-05	7e-05	6e-05	0.0001	0.00013	6
29643	0	-5e-05	-5e-05	-2e-05	7e-05	6e-05	0.0001	0.00013	6
29644	0	-5e-05	-5e-05	-2e-05	7e-05	6e-05	0.0001	0.00013	6
29645	0	-5e-05	-5e-05	-2e-05	7e-05	6e-05	0.0001	0.00013	6
29646	0	-5e-05	-5e-05	-2e-05	7e-05	6e-05	0.0001	0.00013	6
29647	0	-5e-05	-5e-05	-2e-05	7e-05	6e-05	0.0001	0.00013	6
29648	0	-5e-05	-5e-05	-2e-05	7e-05	6e-05	0.0001	0.00013	6
29649	0	-5e-05	-5e-05	-2e-05	7e-05	6e-05	0.0001	0.00013	6
29650	0	-5e-05	-5e-05	-2e-05	7e-05	6e-05	0.0001	0.00013	6
29651	0	-5e-05	-5e-05	-2e-05	7e-05	6e-05	0.0001	0.00013	6
29652	0	-5e-05	-5e-05	-2e-05	7e-05	6e-05	0.0001	0.00013	6
29653	0	-5e-05	-5e-05	-2e-05	7e-05	6e-05	0.0001	0.00013	6
29654	0	-5e-05	-5e-05	-2e-05	7e-05	6e-05	0.0001	0.00013	6
29655	0	-5e-05	-5e-05	-2e-05	7e-05	6e-05	0.0001	0.00013	6
29656	0	-5e-05	-5e-05	-2e-05	7e-05	6e-05	0.0001	0.00013	6
29657	-3e-05	-3e-05	0	-2e-05	-4e-05	9e-05	-6e-05	-2e-05	6
29658	-3e-05	-3e-05	0	-2e-05	-4e-05	9e-05	-6e-05	-2e-05	6
29659	3e-05	-1e-05	-2e-05	-1e-05	-0.00037	-0.00018	-5e-05	3e-05	6
29660	3e-05	-1e-05	-2e-05	-1e-05	-0.00037	-0.00018	-5e-05	3e-05	6
29661	3e-05	-1e-05	-2e-05	-1e-05	-0.00037	-0.00018	-5e-05	3e-05	6
29662	3e-05	-1e-05	-2e-05	-1e-05	-0.00037	-0.00018	-5e-05	3e-05	6
29663	3e-05	-1e-05	-2e-05	-1e-05	-0.00037	-0.00018	-5e-05	3e-05	6
29664	3e-05	-1e-05	-2e-05	-1e-05	-0.00037	-0.00018	-5e-05	3e-05	6
29665	3e-05	-1e-05	-2e-05	-1e-05	-0.00037	-0.00018	-5e-05	3e-05	6
29666	3e-05	-1e-05	-2e-05	-1e-05	-0.00037	-0.00018	-5e-05	3e-05	6
29667	3e-05	-1e-05	-2e-05	-1e-05	-0.00037	-0.00018	-5e-05	3e-05	6
29668	3e-05	-1e-05	-2e-05	-1e-05	-0.00037	-0.00018	-5e-05	3e-05	6
29669	3e-05	-1e-05	-2e-05	-1e-05	-0.00037	-0.00018	-5e-05	3e-05	6
29670	3e-05	-1e-05	-2e-05	-1e-05	-0.00037	-0.00018	-5e-05	3e-05	6
29671	-9e-05	0	-1e-05	-1e-05	9e-05	2e-05	-0.00019	-0.00037	6
29672	-9e-05	0	-1e-05	-1e-05	9e-05	2e-05	-0.00019	-0.00037	6
29673	-9e-05	0	-1e-05	-1e-05	9e-05	2e-05	-0.00019	-0.00037	6
29674	-9e-05	0	-1e-05	-1e-05	9e-05	2e-05	-0.00019	-0.00037	6
29675	-9e-05	0	-1e-05	-1e-05	9e-05	2e-05	-0.00019	-0.00037	6
29676	-9e-05	0	-1e-05	-1e-05	9e-05	2e-05	-0.00019	-0.00037	6
29677	-9e-05	0	-1e-05	-1e-05	9e-05	2e-05	-0.00019	-0.00037	6
29678	-9e-05	0	-1e-05	-1e-05	9e-05	2e-05	-0.00019	-0.00037	6
29679	-9e-05	0	-1e-05	-1e-05	9e-05	2e-05	-0.00019	-0.00037	6
29680	-1e-05	-1e-05	0	-1e-05	6e-05	-0.0001	8e-05	0.00014	6
29681	-1e-05	-1e-05	0	-1e-05	6e-05	-0.0001	8e-05	0.00014	6
29682	-1e-05	-1e-05	0	-1e-05	6e-05	-0.0001	8e-05	0.00014	6
29683	-1e-05	-1e-05	0	-1e-05	6e-05	-0.0001	8e-05	0.00014	6
29684	-1e-05	-1e-05	0	-1e-05	6e-05	-0.0001	8e-05	0.00014	6
29685	-1e-05	-1e-05	0	-1e-05	6e-05	-0.0001	8e-05	0.00014	6
29686	-1e-05	-1e-05	0	-1e-05	6e-05	-0.0001	8e-05	0.00014	6
29688	-1e-05	-1e-05	0	-1e-05	6e-05	-0.0001	8e-05	0.00014	6
29689	-1e-05	-1e-05	0	-1e-05	6e-05	-0.0001	8e-05	0.00014	6
29690	-1e-05	-1e-05	0	-1e-05	6e-05	-0.0001	8e-05	0.00014	6
29691	-1e-05	-1e-05	0	-1e-05	6e-05	-0.0001	8e-05	0.00014	6
29692	-1e-05	-1e-05	0	-1e-05	6e-05	-0.0001	8e-05	0.00014	6
29693	-1e-05	-1e-05	0	-1e-05	6e-05	-0.0001	8e-05	0.00014	6
29694	-1e-05	-1e-05	0	-1e-05	6e-05	-0.0001	8e-05	0.00014	6
29695	3e-05	-2e-05	-8e-05	1e-05	3e-05	0.00015	1e-05	0.0002	6
29696	-6e-05	-1e-05	0	-3e-05	5e-05	0.0001	-0.00026	-0.00082	6
29697	-6e-05	-1e-05	0	-3e-05	5e-05	0.0001	-0.00026	-0.00082	6
29698	-6e-05	-1e-05	0	-3e-05	5e-05	0.0001	-0.00026	-0.00082	6
29699	-6e-05	-1e-05	0	-3e-05	5e-05	0.0001	-0.00026	-0.00082	6
29700	-6e-05	-1e-05	0	-3e-05	5e-05	0.0001	-0.00026	-0.00082	6
29701	-6e-05	-1e-05	0	-3e-05	5e-05	0.0001	-0.00026	-0.00082	6
29702	-6e-05	-1e-05	0	-3e-05	5e-05	0.0001	-0.00026	-0.00082	6
29703	-6e-05	-1e-05	0	-3e-05	5e-05	0.0001	-0.00026	-0.00082	6
29704	-6e-05	-1e-05	0	-3e-05	5e-05	0.0001	-0.00026	-0.00082	6
29705	-6e-05	-1e-05	0	-3e-05	5e-05	0.0001	-0.00026	-0.00082	6
29706	-6e-05	-1e-05	0	-3e-05	5e-05	0.0001	-0.00026	-0.00082	6
29707	-6e-05	-1e-05	0	-3e-05	5e-05	0.0001	-0.00026	-0.00082	6
29708	-6e-05	-1e-05	0	-3e-05	5e-05	0.0001	-0.00026	-0.00082	6
29709	-6e-05	-1e-05	0	-3e-05	5e-05	0.0001	-0.00026	-0.00082	6
29710	-6e-05	-1e-05	0	-3e-05	5e-05	0.0001	-0.00026	-0.00082	6
29711	-6e-05	-1e-05	0	-3e-05	5e-05	0.0001	-0.00026	-0.00082	6
29712	-6e-05	-1e-05	0	-3e-05	5e-05	0.0001	-0.00026	-0.00082	6
29713	-6e-05	-1e-05	0	-3e-05	5e-05	0.0001	-0.00026	-0.00082	6
29714	-6e-05	-1e-05	0	-3e-05	5e-05	0.0001	-0.00026	-0.00082	6
29715	-6e-05	-1e-05	0	-3e-05	5e-05	0.0001	-0.00026	-0.00082	6
29716	-1e-05	2e-05	3e-05	-1e-05	8e-05	-4e-05	-0.0001	-2e-05	6
29717	-1e-05	2e-05	3e-05	-1e-05	8e-05	-4e-05	-0.0001	-2e-05	6
29718	-1e-05	2e-05	3e-05	-1e-05	8e-05	-4e-05	-0.0001	-2e-05	6
29719	-1e-05	2e-05	3e-05	-1e-05	8e-05	-4e-05	-0.0001	-2e-05	6
29720	-1e-05	2e-05	3e-05	-1e-05	8e-05	-4e-05	-0.0001	-2e-05	6
29721	-1e-05	2e-05	3e-05	-1e-05	8e-05	-4e-05	-0.0001	-2e-05	6
29722	-1e-05	2e-05	3e-05	-1e-05	8e-05	-4e-05	-0.0001	-2e-05	6
29723	-1e-05	2e-05	3e-05	-1e-05	8e-05	-4e-05	-0.0001	-2e-05	6
29724	-1e-05	2e-05	3e-05	-1e-05	8e-05	-4e-05	-0.0001	-2e-05	6
29725	3e-05	-1e-05	-1e-05	-1e-05	1e-05	-1e-05	-0.00018	0.00021	6
29726	3e-05	-1e-05	-1e-05	-1e-05	1e-05	-1e-05	-0.00018	0.00021	6
29727	3e-05	-1e-05	-1e-05	-1e-05	1e-05	-1e-05	-0.00018	0.00021	6
29728	3e-05	-1e-05	-1e-05	-1e-05	1e-05	-1e-05	-0.00018	0.00021	6
29729	3e-05	-1e-05	-1e-05	-1e-05	1e-05	-1e-05	-0.00018	0.00021	6
29730	3e-05	-1e-05	-1e-05	-1e-05	1e-05	-1e-05	-0.00018	0.00021	6
29731	3e-05	1e-05	-1e-05	-2e-05	-3e-05	4e-05	0.00013	-0.00015	6
29732	3e-05	1e-05	-1e-05	-2e-05	-3e-05	4e-05	0.00013	-0.00015	6
29733	3e-05	1e-05	-1e-05	-2e-05	-3e-05	4e-05	0.00013	-0.00015	6
29734	3e-05	1e-05	-1e-05	-2e-05	-3e-05	4e-05	0.00013	-0.00015	6
29735	3e-05	1e-05	-1e-05	-2e-05	-3e-05	4e-05	0.00013	-0.00015	6
29736	3e-05	1e-05	-1e-05	-2e-05	-3e-05	4e-05	0.00013	-0.00015	6
29738	3e-05	1e-05	-1e-05	-2e-05	-3e-05	4e-05	0.00013	-0.00015	6
29739	3e-05	1e-05	-1e-05	-2e-05	-3e-05	4e-05	0.00013	-0.00015	6
29740	-2e-05	1e-05	2e-05	-1e-05	-0.00014	-2e-05	9e-05	-0.00034	6
29741	-2e-05	1e-05	2e-05	-1e-05	-0.00014	-2e-05	9e-05	-0.00034	6
29742	-2e-05	1e-05	2e-05	-1e-05	-0.00014	-2e-05	9e-05	-0.00034	6
29743	-2e-05	1e-05	2e-05	-1e-05	-0.00014	-2e-05	9e-05	-0.00034	6
29744	-2e-05	1e-05	2e-05	-1e-05	-0.00014	-2e-05	9e-05	-0.00034	6
29745	-2e-05	1e-05	2e-05	-1e-05	-0.00014	-2e-05	9e-05	-0.00034	6
29746	-2e-05	1e-05	2e-05	-1e-05	-0.00014	-2e-05	9e-05	-0.00034	6
29747	-2e-05	1e-05	2e-05	-1e-05	-0.00014	-2e-05	9e-05	-0.00034	6
29748	-2e-05	1e-05	2e-05	-1e-05	-0.00014	-2e-05	9e-05	-0.00034	6
29749	-2e-05	1e-05	2e-05	-1e-05	-0.00014	-2e-05	9e-05	-0.00034	6
29750	-2e-05	1e-05	2e-05	-1e-05	-0.00014	-2e-05	9e-05	-0.00034	6
29751	-2e-05	1e-05	2e-05	-1e-05	-0.00014	-2e-05	9e-05	-0.00034	6
29752	-2e-05	1e-05	2e-05	-1e-05	-0.00014	-2e-05	9e-05	-0.00034	6
29753	-2e-05	1e-05	2e-05	-1e-05	-0.00014	-2e-05	9e-05	-0.00034	6
29754	-2e-05	1e-05	2e-05	-1e-05	-0.00014	-2e-05	9e-05	-0.00034	6
29755	1e-05	1e-05	2e-05	5e-05	0.00025	-4e-05	-0.00017	0.00013	6
29756	1e-05	1e-05	2e-05	5e-05	0.00025	-4e-05	-0.00017	0.00013	6
29757	-3e-05	-2e-05	-6e-05	-4e-05	6e-05	-1e-05	0.0001	5e-05	6
29758	-3e-05	-2e-05	-6e-05	-4e-05	6e-05	-1e-05	0.0001	5e-05	6
29759	-3e-05	-2e-05	-6e-05	-4e-05	6e-05	-1e-05	0.0001	5e-05	6
29760	-3e-05	-2e-05	-6e-05	-4e-05	6e-05	-1e-05	0.0001	5e-05	6
29761	-3e-05	-2e-05	-6e-05	-4e-05	6e-05	-1e-05	0.0001	5e-05	6
29762	-3e-05	-2e-05	-6e-05	-4e-05	6e-05	-1e-05	0.0001	5e-05	6
29763	-3e-05	-2e-05	-6e-05	-4e-05	6e-05	-1e-05	0.0001	5e-05	6
29764	-3e-05	-2e-05	-6e-05	-4e-05	6e-05	-1e-05	0.0001	5e-05	6
29765	-3e-05	-2e-05	-6e-05	-4e-05	6e-05	-1e-05	0.0001	5e-05	6
29766	-3e-05	-2e-05	-6e-05	-4e-05	6e-05	-1e-05	0.0001	5e-05	6
29767	-3e-05	-2e-05	-6e-05	-4e-05	6e-05	-1e-05	0.0001	5e-05	6
29768	-3e-05	-2e-05	-6e-05	-4e-05	6e-05	-1e-05	0.0001	5e-05	6
29769	-3e-05	-2e-05	-6e-05	-4e-05	6e-05	-1e-05	0.0001	5e-05	6
29770	-3e-05	-2e-05	-6e-05	-4e-05	6e-05	-1e-05	0.0001	5e-05	6
29771	-3e-05	-2e-05	-6e-05	-4e-05	6e-05	-1e-05	0.0001	5e-05	6
29772	-3e-05	-2e-05	-6e-05	-4e-05	6e-05	-1e-05	0.0001	5e-05	6
29773	-3e-05	-2e-05	-6e-05	-4e-05	6e-05	-1e-05	0.0001	5e-05	6
29774	-3e-05	-2e-05	-6e-05	-4e-05	6e-05	-1e-05	0.0001	5e-05	6
29775	-3e-05	-2e-05	-6e-05	-4e-05	6e-05	-1e-05	0.0001	5e-05	6
29776	-3e-05	-2e-05	-6e-05	-4e-05	6e-05	-1e-05	0.0001	5e-05	6
29777	-7e-05	-5e-05	-4e-05	-5e-05	-0.00011	-0.00011	0	-2e-05	6
29778	-7e-05	-5e-05	-4e-05	-5e-05	-0.00011	-0.00011	0	-2e-05	6
29779	1e-05	-3e-05	-2e-05	-2e-05	6e-05	5e-05	0.00011	0.00013	6
29780	1e-05	-3e-05	-2e-05	-2e-05	6e-05	5e-05	0.00011	0.00013	6
29781	1e-05	-3e-05	-2e-05	-2e-05	6e-05	5e-05	0.00011	0.00013	6
29782	1e-05	-3e-05	-2e-05	-2e-05	6e-05	5e-05	0.00011	0.00013	6
29783	1e-05	-3e-05	-2e-05	-2e-05	6e-05	5e-05	0.00011	0.00013	6
29784	1e-05	-3e-05	-2e-05	-2e-05	6e-05	5e-05	0.00011	0.00013	6
29785	1e-05	-3e-05	-2e-05	-2e-05	6e-05	5e-05	0.00011	0.00013	6
29786	1e-05	-3e-05	-2e-05	-2e-05	6e-05	5e-05	0.00011	0.00013	6
29788	1e-05	-3e-05	-2e-05	-2e-05	6e-05	5e-05	0.00011	0.00013	6
29789	1e-05	-3e-05	-2e-05	-2e-05	6e-05	5e-05	0.00011	0.00013	6
29790	1e-05	-3e-05	-2e-05	-2e-05	6e-05	5e-05	0.00011	0.00013	6
29791	7e-05	-1e-05	0	-3e-05	-8e-05	-3e-05	3e-05	4e-05	6
29792	7e-05	-1e-05	0	-3e-05	-8e-05	-3e-05	3e-05	4e-05	6
29793	7e-05	-1e-05	0	-3e-05	-8e-05	-3e-05	3e-05	4e-05	6
29794	7e-05	-1e-05	0	-3e-05	-8e-05	-3e-05	3e-05	4e-05	6
29795	7e-05	-1e-05	0	-3e-05	-8e-05	-3e-05	3e-05	4e-05	6
29796	7e-05	-1e-05	0	-3e-05	-8e-05	-3e-05	3e-05	4e-05	6
29797	7e-05	-1e-05	0	-3e-05	-8e-05	-3e-05	3e-05	4e-05	6
29798	7e-05	-1e-05	0	-3e-05	-8e-05	-3e-05	3e-05	4e-05	6
29799	7e-05	-1e-05	0	-3e-05	-8e-05	-3e-05	3e-05	4e-05	6
29800	-3e-05	-5e-05	-0.00011	2e-05	0.0001	-1e-05	4e-05	0.00019	6
29802	-3e-05	-5e-05	-0.00011	2e-05	0.0001	-1e-05	4e-05	0.00019	6
29803	-3e-05	-5e-05	-0.00011	2e-05	0.0001	-1e-05	4e-05	0.00019	6
29804	-3e-05	-5e-05	-0.00011	2e-05	0.0001	-1e-05	4e-05	0.00019	6
29805	-3e-05	-5e-05	-0.00011	2e-05	0.0001	-1e-05	4e-05	0.00019	6
29806	-3e-05	-5e-05	-0.00011	2e-05	0.0001	-1e-05	4e-05	0.00019	6
29807	-3e-05	-5e-05	-0.00011	2e-05	0.0001	-1e-05	4e-05	0.00019	6
29808	-3e-05	-5e-05	-0.00011	2e-05	0.0001	-1e-05	4e-05	0.00019	6
29809	-3e-05	-5e-05	-0.00011	2e-05	0.0001	-1e-05	4e-05	0.00019	6
29810	-3e-05	-5e-05	-0.00011	2e-05	0.0001	-1e-05	4e-05	0.00019	6
29811	-3e-05	-5e-05	-0.00011	2e-05	0.0001	-1e-05	4e-05	0.00019	6
29812	-3e-05	-5e-05	-0.00011	2e-05	0.0001	-1e-05	4e-05	0.00019	6
29813	-3e-05	-5e-05	-0.00011	2e-05	0.0001	-1e-05	4e-05	0.00019	6
29814	-3e-05	-5e-05	-0.00011	2e-05	0.0001	-1e-05	4e-05	0.00019	6
29815	0.00016	7e-05	6e-05	-3e-05	-0.0002	-0.00021	-3e-05	-0.0002	6
29816	-4e-05	1e-05	6e-05	3e-05	-1e-05	3e-05	4e-05	-0.0001	6
29817	-4e-05	1e-05	6e-05	3e-05	-1e-05	3e-05	4e-05	-0.0001	6
29818	-4e-05	1e-05	6e-05	3e-05	-1e-05	3e-05	4e-05	-0.0001	6
29819	-4e-05	1e-05	6e-05	3e-05	-1e-05	3e-05	4e-05	-0.0001	6
29820	-4e-05	1e-05	6e-05	3e-05	-1e-05	3e-05	4e-05	-0.0001	6
29821	-4e-05	1e-05	6e-05	3e-05	-1e-05	3e-05	4e-05	-0.0001	6
29822	-4e-05	1e-05	6e-05	3e-05	-1e-05	3e-05	4e-05	-0.0001	6
29823	-4e-05	1e-05	6e-05	3e-05	-1e-05	3e-05	4e-05	-0.0001	6
29824	-4e-05	1e-05	6e-05	3e-05	-1e-05	3e-05	4e-05	-0.0001	6
29825	-4e-05	1e-05	6e-05	3e-05	-1e-05	3e-05	4e-05	-0.0001	6
29826	-4e-05	1e-05	6e-05	3e-05	-1e-05	3e-05	4e-05	-0.0001	6
29827	-4e-05	1e-05	6e-05	3e-05	-1e-05	3e-05	4e-05	-0.0001	6
29828	-4e-05	1e-05	6e-05	3e-05	-1e-05	3e-05	4e-05	-0.0001	6
29829	-4e-05	1e-05	6e-05	3e-05	-1e-05	3e-05	4e-05	-0.0001	6
29830	-4e-05	1e-05	6e-05	3e-05	-1e-05	3e-05	4e-05	-0.0001	6
29831	-4e-05	1e-05	6e-05	3e-05	-1e-05	3e-05	4e-05	-0.0001	6
29832	-4e-05	1e-05	6e-05	3e-05	-1e-05	3e-05	4e-05	-0.0001	6
29833	-4e-05	1e-05	6e-05	3e-05	-1e-05	3e-05	4e-05	-0.0001	6
29834	-4e-05	1e-05	6e-05	3e-05	-1e-05	3e-05	4e-05	-0.0001	6
29835	-4e-05	1e-05	6e-05	3e-05	-1e-05	3e-05	4e-05	-0.0001	6
29836	-4e-05	1e-05	6e-05	3e-05	-1e-05	3e-05	4e-05	-0.0001	6
29838	-1e-05	3e-05	3e-05	0.00014	0.00062	8e-05	-8e-05	0.00019	6
29839	3e-05	-2e-05	-2e-05	-2e-05	-3e-05	2e-05	-5e-05	0.00018	6
29840	3e-05	-2e-05	-2e-05	-2e-05	-3e-05	2e-05	-5e-05	0.00018	6
29841	3e-05	-2e-05	-2e-05	-2e-05	-3e-05	2e-05	-5e-05	0.00018	6
29842	3e-05	-2e-05	-2e-05	-2e-05	-3e-05	2e-05	-5e-05	0.00018	6
29843	3e-05	-2e-05	-2e-05	-2e-05	-3e-05	2e-05	-5e-05	0.00018	6
29844	3e-05	-2e-05	-2e-05	-2e-05	-3e-05	2e-05	-5e-05	0.00018	6
29845	3e-05	-2e-05	-2e-05	-2e-05	-3e-05	2e-05	-5e-05	0.00018	6
29846	3e-05	-2e-05	-2e-05	-2e-05	-3e-05	2e-05	-5e-05	0.00018	6
29847	3e-05	-2e-05	-2e-05	-2e-05	-3e-05	2e-05	-5e-05	0.00018	6
29848	3e-05	-2e-05	-2e-05	-2e-05	-3e-05	2e-05	-5e-05	0.00018	6
29849	3e-05	-2e-05	-2e-05	-2e-05	-3e-05	2e-05	-5e-05	0.00018	6
29850	3e-05	-2e-05	-2e-05	-2e-05	-3e-05	2e-05	-5e-05	0.00018	6
29851	-3e-05	-7e-05	-3e-05	-8e-05	-0.0003	-2e-05	8e-05	-3e-05	6
29852	-3e-05	-7e-05	-3e-05	-8e-05	-0.0003	-2e-05	8e-05	-3e-05	6
29853	-3e-05	-7e-05	-3e-05	-8e-05	-0.0003	-2e-05	8e-05	-3e-05	6
29854	-3e-05	-7e-05	-3e-05	-8e-05	-0.0003	-2e-05	8e-05	-3e-05	6
29855	-3e-05	-7e-05	-3e-05	-8e-05	-0.0003	-2e-05	8e-05	-3e-05	6
29856	-3e-05	-7e-05	-3e-05	-8e-05	-0.0003	-2e-05	8e-05	-3e-05	6
29857	-3e-05	-7e-05	-3e-05	-8e-05	-0.0003	-2e-05	8e-05	-3e-05	6
29858	-3e-05	-7e-05	-3e-05	-8e-05	-0.0003	-2e-05	8e-05	-3e-05	6
29859	-3e-05	-7e-05	-3e-05	-8e-05	-0.0003	-2e-05	8e-05	-3e-05	6
29860	-3e-05	0	4e-05	-1e-05	-5e-05	-1e-05	-0.00012	0.00102	6
29861	-3e-05	0	4e-05	-1e-05	-5e-05	-1e-05	-0.00012	0.00102	6
29862	-3e-05	0	4e-05	-1e-05	-5e-05	-1e-05	-0.00012	0.00102	6
29863	-3e-05	0	4e-05	-1e-05	-5e-05	-1e-05	-0.00012	0.00102	6
29864	-3e-05	0	4e-05	-1e-05	-5e-05	-1e-05	-0.00012	0.00102	6
29865	-3e-05	0	4e-05	-1e-05	-5e-05	-1e-05	-0.00012	0.00102	6
29866	-3e-05	0	4e-05	-1e-05	-5e-05	-1e-05	-0.00012	0.00102	6
29867	-3e-05	0	4e-05	-1e-05	-5e-05	-1e-05	-0.00012	0.00102	6
29868	-3e-05	0	4e-05	-1e-05	-5e-05	-1e-05	-0.00012	0.00102	6
29869	-3e-05	0	4e-05	-1e-05	-5e-05	-1e-05	-0.00012	0.00102	6
29870	-3e-05	0	4e-05	-1e-05	-5e-05	-1e-05	-0.00012	0.00102	6
29871	-3e-05	0	4e-05	-1e-05	-5e-05	-1e-05	-0.00012	0.00102	6
29872	-3e-05	0	4e-05	-1e-05	-5e-05	-1e-05	-0.00012	0.00102	6
29873	-3e-05	0	4e-05	-1e-05	-5e-05	-1e-05	-0.00012	0.00102	6
29874	-3e-05	0	4e-05	-1e-05	-5e-05	-1e-05	-0.00012	0.00102	6
29875	0.00013	1e-05	-1e-05	-1e-05	-4e-05	9e-05	0.0002	0.00024	6
29876	4e-05	1e-05	-2e-05	-3e-05	2e-05	0	0.00013	-0.00035	6
29877	4e-05	1e-05	-2e-05	-3e-05	2e-05	0	0.00013	-0.00035	6
29878	4e-05	1e-05	-2e-05	-3e-05	2e-05	0	0.00013	-0.00035	6
29879	4e-05	1e-05	-2e-05	-3e-05	2e-05	0	0.00013	-0.00035	6
29880	4e-05	1e-05	-2e-05	-3e-05	2e-05	0	0.00013	-0.00035	6
29881	4e-05	1e-05	-2e-05	-3e-05	2e-05	0	0.00013	-0.00035	6
29882	4e-05	1e-05	-2e-05	-3e-05	2e-05	0	0.00013	-0.00035	6
29883	4e-05	1e-05	-2e-05	-3e-05	2e-05	0	0.00013	-0.00035	6
29884	4e-05	1e-05	-2e-05	-3e-05	2e-05	0	0.00013	-0.00035	6
29885	4e-05	1e-05	-2e-05	-3e-05	2e-05	0	0.00013	-0.00035	6
29886	4e-05	1e-05	-2e-05	-3e-05	2e-05	0	0.00013	-0.00035	6
29888	4e-05	1e-05	-2e-05	-3e-05	2e-05	0	0.00013	-0.00035	6
29889	4e-05	1e-05	-2e-05	-3e-05	2e-05	0	0.00013	-0.00035	6
29890	4e-05	1e-05	-2e-05	-3e-05	2e-05	0	0.00013	-0.00035	6
29891	4e-05	1e-05	-2e-05	-3e-05	2e-05	0	0.00013	-0.00035	6
29892	4e-05	1e-05	-2e-05	-3e-05	2e-05	0	0.00013	-0.00035	6
29893	4e-05	1e-05	-2e-05	-3e-05	2e-05	0	0.00013	-0.00035	6
29894	4e-05	1e-05	-2e-05	-3e-05	2e-05	0	0.00013	-0.00035	6
29895	4e-05	1e-05	-2e-05	-3e-05	2e-05	0	0.00013	-0.00035	6
29896	4e-05	1e-05	-2e-05	-3e-05	2e-05	0	0.00013	-0.00035	6
29897	-7e-05	-4e-05	-3e-05	-4e-05	-7e-05	5e-05	-5e-05	-0.0002	6
29898	-7e-05	-4e-05	-3e-05	-4e-05	-7e-05	5e-05	-5e-05	-0.0002	6
29899	-0.00012	-3e-05	-4e-05	-1e-05	-6e-05	-0.00012	4e-05	-0.00045	6
29900	-0.00012	-3e-05	-4e-05	-1e-05	-6e-05	-0.00012	4e-05	-0.00045	6
29901	-0.00012	-3e-05	-4e-05	-1e-05	-6e-05	-0.00012	4e-05	-0.00045	6
29902	-0.00012	-3e-05	-4e-05	-1e-05	-6e-05	-0.00012	4e-05	-0.00045	6
29903	-0.00012	-3e-05	-4e-05	-1e-05	-6e-05	-0.00012	4e-05	-0.00045	6
29905	-0.00012	-3e-05	-4e-05	-1e-05	-6e-05	-0.00012	4e-05	-0.00045	6
29906	-0.00012	-3e-05	-4e-05	-1e-05	-6e-05	-0.00012	4e-05	-0.00045	6
29907	-0.00012	-3e-05	-4e-05	-1e-05	-6e-05	-0.00012	4e-05	-0.00045	6
29908	-0.00012	-3e-05	-4e-05	-1e-05	-6e-05	-0.00012	4e-05	-0.00045	6
29909	-0.00012	-3e-05	-4e-05	-1e-05	-6e-05	-0.00012	4e-05	-0.00045	6
29910	-0.00012	-3e-05	-4e-05	-1e-05	-6e-05	-0.00012	4e-05	-0.00045	6
29911	-0.00012	-3e-05	-4e-05	-1e-05	-6e-05	-0.00012	4e-05	-0.00045	6
29912	-0.00012	-3e-05	-4e-05	-1e-05	-6e-05	-0.00012	4e-05	-0.00045	6
29913	-0.00012	-3e-05	-4e-05	-1e-05	-6e-05	-0.00012	4e-05	-0.00045	6
29914	-0.00012	-3e-05	-4e-05	-1e-05	-6e-05	-0.00012	4e-05	-0.00045	6
29915	-0.00012	-3e-05	-4e-05	-1e-05	-6e-05	-0.00012	4e-05	-0.00045	6
29916	-0.00012	-3e-05	-4e-05	-1e-05	-6e-05	-0.00012	4e-05	-0.00045	6
29917	-0.00012	-3e-05	-4e-05	-1e-05	-6e-05	-0.00012	4e-05	-0.00045	6
29918	-0.00012	-3e-05	-4e-05	-1e-05	-6e-05	-0.00012	4e-05	-0.00045	6
29919	-5e-05	0	0	2e-05	6e-05	-0.00013	-0.00011	-0.0002	6
29920	-5e-05	0	5e-05	-1e-05	4e-05	-7e-05	-9e-05	-0.00016	6
29921	-5e-05	0	5e-05	-1e-05	4e-05	-7e-05	-9e-05	-0.00016	6
29922	-5e-05	0	5e-05	-1e-05	4e-05	-7e-05	-9e-05	-0.00016	6
29923	-5e-05	0	5e-05	-1e-05	4e-05	-7e-05	-9e-05	-0.00016	6
29924	-5e-05	0	5e-05	-1e-05	4e-05	-7e-05	-9e-05	-0.00016	6
29925	-5e-05	0	5e-05	-1e-05	4e-05	-7e-05	-9e-05	-0.00016	6
29926	-5e-05	0	5e-05	-1e-05	4e-05	-7e-05	-9e-05	-0.00016	6
29927	-5e-05	0	5e-05	-1e-05	4e-05	-7e-05	-9e-05	-0.00016	6
29928	-5e-05	0	5e-05	-1e-05	4e-05	-7e-05	-9e-05	-0.00016	6
29929	-5e-05	0	5e-05	-1e-05	4e-05	-7e-05	-9e-05	-0.00016	6
29930	-5e-05	0	5e-05	-1e-05	4e-05	-7e-05	-9e-05	-0.00016	6
29931	-5e-05	0	5e-05	-1e-05	4e-05	-7e-05	-9e-05	-0.00016	6
29932	-5e-05	0	5e-05	-1e-05	4e-05	-7e-05	-9e-05	-0.00016	6
29933	-5e-05	0	5e-05	-1e-05	4e-05	-7e-05	-9e-05	-0.00016	6
29934	-4e-05	-3e-05	-3e-05	-5e-05	-4e-05	2e-05	1e-05	-0.00014	6
29935	0	1e-05	3e-05	1e-05	-1e-05	-3e-05	-5e-05	-5e-05	6
29936	0	1e-05	3e-05	1e-05	-1e-05	-3e-05	-5e-05	-5e-05	6
29938	0	1e-05	3e-05	1e-05	-1e-05	-3e-05	-5e-05	-5e-05	6
29939	0	1e-05	3e-05	1e-05	-1e-05	-3e-05	-5e-05	-5e-05	6
29940	0	1e-05	3e-05	1e-05	-1e-05	-3e-05	-5e-05	-5e-05	6
29941	0	1e-05	3e-05	1e-05	-1e-05	-3e-05	-5e-05	-5e-05	6
29942	0	1e-05	3e-05	1e-05	-1e-05	-3e-05	-5e-05	-5e-05	6
29943	0	1e-05	3e-05	1e-05	-1e-05	-3e-05	-5e-05	-5e-05	6
29944	0	1e-05	3e-05	1e-05	-1e-05	-3e-05	-5e-05	-5e-05	6
29945	0	1e-05	3e-05	1e-05	-1e-05	-3e-05	-5e-05	-5e-05	6
29946	0	1e-05	3e-05	1e-05	-1e-05	-3e-05	-5e-05	-5e-05	6
29947	0	1e-05	3e-05	1e-05	-1e-05	-3e-05	-5e-05	-5e-05	6
29948	0	1e-05	3e-05	1e-05	-1e-05	-3e-05	-5e-05	-5e-05	6
29949	0	1e-05	3e-05	1e-05	-1e-05	-3e-05	-5e-05	-5e-05	6
29950	0	1e-05	3e-05	1e-05	-1e-05	-3e-05	-5e-05	-5e-05	6
29951	0	1e-05	3e-05	1e-05	-1e-05	-3e-05	-5e-05	-5e-05	6
29952	0	1e-05	3e-05	1e-05	-1e-05	-3e-05	-5e-05	-5e-05	6
29953	0	1e-05	3e-05	1e-05	-1e-05	-3e-05	-5e-05	-5e-05	6
29954	0	1e-05	3e-05	1e-05	-1e-05	-3e-05	-5e-05	-5e-05	6
29955	0	1e-05	3e-05	1e-05	-1e-05	-3e-05	-5e-05	-5e-05	6
29956	0	1e-05	3e-05	1e-05	-1e-05	-3e-05	-5e-05	-5e-05	6
29957	7e-05	6e-05	2e-05	0.00011	0.00018	-8e-05	0.00018	-5e-05	6
29958	7e-05	6e-05	2e-05	0.00011	0.00018	-8e-05	0.00018	-5e-05	6
29959	7e-05	6e-05	2e-05	0.00011	0.00018	-8e-05	0.00018	-5e-05	6
29960	7e-05	6e-05	2e-05	0.00011	0.00018	-8e-05	0.00018	-5e-05	6
29961	7e-05	6e-05	2e-05	0.00011	0.00018	-8e-05	0.00018	-5e-05	6
29962	7e-05	6e-05	2e-05	0.00011	0.00018	-8e-05	0.00018	-5e-05	6
29963	7e-05	6e-05	2e-05	0.00011	0.00018	-8e-05	0.00018	-5e-05	6
29964	7e-05	6e-05	2e-05	0.00011	0.00018	-8e-05	0.00018	-5e-05	6
29965	7e-05	6e-05	2e-05	0.00011	0.00018	-8e-05	0.00018	-5e-05	6
29966	7e-05	6e-05	2e-05	0.00011	0.00018	-8e-05	0.00018	-5e-05	6
29967	7e-05	6e-05	2e-05	0.00011	0.00018	-8e-05	0.00018	-5e-05	6
29968	7e-05	6e-05	2e-05	0.00011	0.00018	-8e-05	0.00018	-5e-05	6
29969	7e-05	6e-05	2e-05	0.00011	0.00018	-8e-05	0.00018	-5e-05	6
29970	7e-05	6e-05	2e-05	0.00011	0.00018	-8e-05	0.00018	-5e-05	6
29971	7e-05	6e-05	2e-05	0.00011	0.00018	-8e-05	0.00018	-5e-05	6
29972	7e-05	6e-05	2e-05	0.00011	0.00018	-8e-05	0.00018	-5e-05	6
29973	7e-05	6e-05	2e-05	0.00011	0.00018	-8e-05	0.00018	-5e-05	6
29974	7e-05	6e-05	2e-05	0.00011	0.00018	-8e-05	0.00018	-5e-05	6
29975	7e-05	6e-05	2e-05	0.00011	0.00018	-8e-05	0.00018	-5e-05	6
29976	7e-05	6e-05	2e-05	0.00011	0.00018	-8e-05	0.00018	-5e-05	6
29977	7e-05	6e-05	2e-05	0.00011	0.00018	-8e-05	0.00018	-5e-05	6
29978	7e-05	6e-05	2e-05	0.00011	0.00018	-8e-05	0.00018	-5e-05	6
29979	-6e-05	3e-05	-1e-05	9e-05	0.00025	6e-05	-7e-05	1e-05	6
29980	-8e-05	-3e-05	-3e-05	-8e-05	-0.00013	0.0001	-4e-05	5e-05	6
29981	-8e-05	-3e-05	-3e-05	-8e-05	-0.00013	0.0001	-4e-05	5e-05	6
29982	-8e-05	-3e-05	-3e-05	-8e-05	-0.00013	0.0001	-4e-05	5e-05	6
29983	-8e-05	-3e-05	-3e-05	-8e-05	-0.00013	0.0001	-4e-05	5e-05	6
29984	-8e-05	-3e-05	-3e-05	-8e-05	-0.00013	0.0001	-4e-05	5e-05	6
29985	-8e-05	-3e-05	-3e-05	-8e-05	-0.00013	0.0001	-4e-05	5e-05	6
29987	-8e-05	-3e-05	-3e-05	-8e-05	-0.00013	0.0001	-4e-05	5e-05	6
29989	-8e-05	-3e-05	-3e-05	-8e-05	-0.00013	0.0001	-4e-05	5e-05	6
29990	-8e-05	-3e-05	-3e-05	-8e-05	-0.00013	0.0001	-4e-05	5e-05	6
29991	-8e-05	-3e-05	-3e-05	-8e-05	-0.00013	0.0001	-4e-05	5e-05	6
29992	-8e-05	-3e-05	-3e-05	-8e-05	-0.00013	0.0001	-4e-05	5e-05	6
29993	-8e-05	-3e-05	-3e-05	-8e-05	-0.00013	0.0001	-4e-05	5e-05	6
29994	2e-05	-2e-05	-2e-05	-4e-05	-1e-05	-6e-05	0	0.00018	6
29995	2e-05	-2e-05	-3e-05	-3e-05	1e-05	-5e-05	-4e-05	0.00015	6
29996	2e-05	-2e-05	-3e-05	-3e-05	1e-05	-5e-05	-4e-05	0.00015	6
29997	2e-05	-2e-05	-3e-05	-3e-05	1e-05	-5e-05	-4e-05	0.00015	6
29998	2e-05	-2e-05	-3e-05	-3e-05	1e-05	-5e-05	-4e-05	0.00015	6
29999	2e-05	-2e-05	-3e-05	-3e-05	1e-05	-5e-05	-4e-05	0.00015	6
30000	2e-05	-2e-05	-3e-05	-3e-05	1e-05	-5e-05	-4e-05	0.00015	6
30001	2e-05	-2e-05	-3e-05	-3e-05	1e-05	-5e-05	-4e-05	0.00015	6
30002	2e-05	-2e-05	-3e-05	-3e-05	1e-05	-5e-05	-4e-05	0.00015	6
30003	2e-05	-2e-05	-3e-05	-3e-05	1e-05	-5e-05	-4e-05	0.00015	6
30004	2e-05	-2e-05	-3e-05	-3e-05	1e-05	-5e-05	-4e-05	0.00015	6
30005	2e-05	-2e-05	-3e-05	-3e-05	1e-05	-5e-05	-4e-05	0.00015	6
30006	2e-05	-2e-05	-3e-05	-3e-05	1e-05	-5e-05	-4e-05	0.00015	6
30007	2e-05	-2e-05	-3e-05	-3e-05	1e-05	-5e-05	-4e-05	0.00015	6
30008	2e-05	-2e-05	-3e-05	-3e-05	1e-05	-5e-05	-4e-05	0.00015	6
30009	2e-05	-2e-05	-3e-05	-3e-05	1e-05	-5e-05	-4e-05	0.00015	6
30010	2e-05	-2e-05	-3e-05	-3e-05	1e-05	-5e-05	-4e-05	0.00015	6
30011	2e-05	-2e-05	-3e-05	-3e-05	1e-05	-5e-05	-4e-05	0.00015	6
30012	2e-05	-2e-05	-3e-05	-3e-05	1e-05	-5e-05	-4e-05	0.00015	6
30013	2e-05	-2e-05	-3e-05	-3e-05	1e-05	-5e-05	-4e-05	0.00015	6
30014	2e-05	-2e-05	-3e-05	-3e-05	1e-05	-5e-05	-4e-05	0.00015	6
30015	2e-05	-2e-05	-3e-05	-3e-05	1e-05	-5e-05	-4e-05	0.00015	6
30016	2e-05	-2e-05	-3e-05	-3e-05	1e-05	-5e-05	-4e-05	0.00015	6
30017	0	4e-05	4e-05	0.0001	0.00035	0.00011	-9e-05	-0.00087	6
30018	0	4e-05	4e-05	0.0001	0.00035	0.00011	-9e-05	-0.00087	6
30019	0	4e-05	4e-05	0.0001	0.00035	0.00011	-9e-05	-0.00087	6
30020	0	4e-05	4e-05	0.0001	0.00035	0.00011	-9e-05	-0.00087	6
30021	0	4e-05	4e-05	0.0001	0.00035	0.00011	-9e-05	-0.00087	6
30022	0	4e-05	4e-05	0.0001	0.00035	0.00011	-9e-05	-0.00087	6
30023	0	4e-05	4e-05	0.0001	0.00035	0.00011	-9e-05	-0.00087	6
30025	0	4e-05	4e-05	0.0001	0.00035	0.00011	-9e-05	-0.00087	6
30026	0	4e-05	4e-05	0.0001	0.00035	0.00011	-9e-05	-0.00087	6
30027	0	4e-05	4e-05	0.0001	0.00035	0.00011	-9e-05	-0.00087	6
30028	0	4e-05	4e-05	0.0001	0.00035	0.00011	-9e-05	-0.00087	6
30029	0	4e-05	4e-05	0.0001	0.00035	0.00011	-9e-05	-0.00087	6
30030	0	4e-05	4e-05	0.0001	0.00035	0.00011	-9e-05	-0.00087	6
30031	0	4e-05	4e-05	0.0001	0.00035	0.00011	-9e-05	-0.00087	6
30032	0	4e-05	4e-05	0.0001	0.00035	0.00011	-9e-05	-0.00087	6
30033	0	4e-05	4e-05	0.0001	0.00035	0.00011	-9e-05	-0.00087	6
30034	0	4e-05	4e-05	0.0001	0.00035	0.00011	-9e-05	-0.00087	6
30035	0	4e-05	4e-05	0.0001	0.00035	0.00011	-9e-05	-0.00087	6
30043	0	4e-05	4e-05	0.0001	0.00035	0.00011	-9e-05	-0.00087	6
30044	-4e-05	0	1e-05	-2e-05	-8e-05	2e-05	-3e-05	-0.00011	6
30045	4e-05	1e-05	0	-1e-05	-4e-05	-0.0001	-4e-05	8e-05	6
30046	4e-05	1e-05	0	-1e-05	-4e-05	-0.0001	-4e-05	8e-05	6
30047	4e-05	1e-05	0	-1e-05	-4e-05	-0.0001	-4e-05	8e-05	6
30048	4e-05	1e-05	0	-1e-05	-4e-05	-0.0001	-4e-05	8e-05	6
30049	4e-05	1e-05	0	-1e-05	-4e-05	-0.0001	-4e-05	8e-05	6
30050	4e-05	1e-05	0	-1e-05	-4e-05	-0.0001	-4e-05	8e-05	6
30051	4e-05	1e-05	0	-1e-05	-4e-05	-0.0001	-4e-05	8e-05	6
30052	4e-05	1e-05	0	-1e-05	-4e-05	-0.0001	-4e-05	8e-05	6
30053	4e-05	1e-05	0	-1e-05	-4e-05	-0.0001	-4e-05	8e-05	6
30054	-0.00018	-4e-05	-3e-05	-3e-05	-0.00014	-0.00012	-0.00017	0.00019	6
30055	1e-05	-4e-05	0	-1e-05	-5e-05	1e-05	-5e-05	0.00024	6
30056	1e-05	-4e-05	0	-1e-05	-5e-05	1e-05	-5e-05	0.00024	6
30057	1e-05	-4e-05	0	-1e-05	-5e-05	1e-05	-5e-05	0.00024	6
30058	1e-05	-4e-05	0	-1e-05	-5e-05	1e-05	-5e-05	0.00024	6
30059	1e-05	-4e-05	0	-1e-05	-5e-05	1e-05	-5e-05	0.00024	6
30060	1e-05	-4e-05	0	-1e-05	-5e-05	1e-05	-5e-05	0.00024	6
30061	1e-05	-4e-05	0	-1e-05	-5e-05	1e-05	-5e-05	0.00024	6
30062	1e-05	-4e-05	0	-1e-05	-5e-05	1e-05	-5e-05	0.00024	6
30063	1e-05	-4e-05	0	-1e-05	-5e-05	1e-05	-5e-05	0.00024	6
30064	1e-05	-4e-05	0	-1e-05	-5e-05	1e-05	-5e-05	0.00024	6
30065	1e-05	-4e-05	0	-1e-05	-5e-05	1e-05	-5e-05	0.00024	6
30066	1e-05	-4e-05	0	-1e-05	-5e-05	1e-05	-5e-05	0.00024	6
30067	1e-05	-4e-05	0	-1e-05	-5e-05	1e-05	-5e-05	0.00024	6
30068	1e-05	-4e-05	0	-1e-05	-5e-05	1e-05	-5e-05	0.00024	6
30069	1e-05	-4e-05	0	-1e-05	-5e-05	1e-05	-5e-05	0.00024	6
30070	1e-05	-4e-05	0	-1e-05	-5e-05	1e-05	-5e-05	0.00024	6
30071	1e-05	-4e-05	0	-1e-05	-5e-05	1e-05	-5e-05	0.00024	6
30072	1e-05	-4e-05	0	-1e-05	-5e-05	1e-05	-5e-05	0.00024	6
30073	1e-05	-4e-05	0	-1e-05	-5e-05	1e-05	-5e-05	0.00024	6
30074	1e-05	-4e-05	0	-1e-05	-5e-05	1e-05	-5e-05	0.00024	6
30075	1e-05	-4e-05	0	-1e-05	-5e-05	1e-05	-5e-05	0.00024	6
30076	1e-05	-4e-05	0	-1e-05	-5e-05	1e-05	-5e-05	0.00024	6
30077	-5e-05	-2e-05	-3e-05	-2e-05	0.00011	2e-05	-4e-05	-0.00062	6
30078	-5e-05	-2e-05	-3e-05	-2e-05	0.00011	2e-05	-4e-05	-0.00062	6
30079	-5e-05	-2e-05	-3e-05	-2e-05	0.00011	2e-05	-4e-05	-0.00062	6
30080	-5e-05	-2e-05	-3e-05	-2e-05	0.00011	2e-05	-4e-05	-0.00062	6
30081	-5e-05	-2e-05	-3e-05	-2e-05	0.00011	2e-05	-4e-05	-0.00062	6
30082	-5e-05	-2e-05	-3e-05	-2e-05	0.00011	2e-05	-4e-05	-0.00062	6
30083	-5e-05	-2e-05	-3e-05	-2e-05	0.00011	2e-05	-4e-05	-0.00062	6
30084	-5e-05	-2e-05	-3e-05	-2e-05	0.00011	2e-05	-4e-05	-0.00062	6
30085	-5e-05	-2e-05	-3e-05	-2e-05	0.00011	2e-05	-4e-05	-0.00062	6
30086	-5e-05	-2e-05	-3e-05	-2e-05	0.00011	2e-05	-4e-05	-0.00062	6
30088	-5e-05	-2e-05	-3e-05	-2e-05	0.00011	2e-05	-4e-05	-0.00062	6
30089	-5e-05	-2e-05	-3e-05	-2e-05	0.00011	2e-05	-4e-05	-0.00062	6
30090	-5e-05	-2e-05	-3e-05	-2e-05	0.00011	2e-05	-4e-05	-0.00062	6
30091	-5e-05	-2e-05	-3e-05	-2e-05	0.00011	2e-05	-4e-05	-0.00062	6
30092	-5e-05	-2e-05	-3e-05	-2e-05	0.00011	2e-05	-4e-05	-0.00062	6
30093	-5e-05	-2e-05	-3e-05	-2e-05	0.00011	2e-05	-4e-05	-0.00062	6
30094	-5e-05	-2e-05	-3e-05	-2e-05	0.00011	2e-05	-4e-05	-0.00062	6
30095	-5e-05	-2e-05	-3e-05	-2e-05	0.00011	2e-05	-4e-05	-0.00062	6
30096	-5e-05	-2e-05	-3e-05	-2e-05	0.00011	2e-05	-4e-05	-0.00062	6
30097	-5e-05	-2e-05	-3e-05	-2e-05	0.00011	2e-05	-4e-05	-0.00062	6
30098	-5e-05	-2e-05	-3e-05	-2e-05	0.00011	2e-05	-4e-05	-0.00062	6
30099	5e-05	9e-05	4e-05	3e-05	0.00021	2e-05	7e-05	-0.00021	6
30100	8e-05	2e-05	-2e-05	-1e-05	-0.00013	0.0001	3e-05	0.00021	6
30101	8e-05	2e-05	-2e-05	-1e-05	-0.00013	0.0001	3e-05	0.00021	6
30102	8e-05	2e-05	-2e-05	-1e-05	-0.00013	0.0001	3e-05	0.00021	6
30103	8e-05	2e-05	-2e-05	-1e-05	-0.00013	0.0001	3e-05	0.00021	6
30104	8e-05	2e-05	-2e-05	-1e-05	-0.00013	0.0001	3e-05	0.00021	6
30105	8e-05	2e-05	-2e-05	-1e-05	-0.00013	0.0001	3e-05	0.00021	6
30106	8e-05	2e-05	-2e-05	-1e-05	-0.00013	0.0001	3e-05	0.00021	6
30107	8e-05	2e-05	-2e-05	-1e-05	-0.00013	0.0001	3e-05	0.00021	6
30108	8e-05	2e-05	-2e-05	-1e-05	-0.00013	0.0001	3e-05	0.00021	6
30109	8e-05	2e-05	-2e-05	-1e-05	-0.00013	0.0001	3e-05	0.00021	6
30110	8e-05	2e-05	-2e-05	-1e-05	-0.00013	0.0001	3e-05	0.00021	6
30111	8e-05	2e-05	-2e-05	-1e-05	-0.00013	0.0001	3e-05	0.00021	6
30112	8e-05	2e-05	-2e-05	-1e-05	-0.00013	0.0001	3e-05	0.00021	6
30113	8e-05	2e-05	-2e-05	-1e-05	-0.00013	0.0001	3e-05	0.00021	6
30114	-6e-05	-4e-05	-1e-05	-2e-05	-1e-05	3e-05	0.00021	2e-05	6
30115	7e-05	0	4e-05	-6e-05	-0.00014	-0.00014	-0.00019	3e-05	6
30116	7e-05	0	4e-05	-6e-05	-0.00014	-0.00014	-0.00019	3e-05	6
30117	7e-05	0	4e-05	-6e-05	-0.00014	-0.00014	-0.00019	3e-05	6
30118	7e-05	0	4e-05	-6e-05	-0.00014	-0.00014	-0.00019	3e-05	6
30119	7e-05	0	4e-05	-6e-05	-0.00014	-0.00014	-0.00019	3e-05	6
30120	7e-05	0	4e-05	-6e-05	-0.00014	-0.00014	-0.00019	3e-05	6
30121	7e-05	0	4e-05	-6e-05	-0.00014	-0.00014	-0.00019	3e-05	6
30122	7e-05	0	4e-05	-6e-05	-0.00014	-0.00014	-0.00019	3e-05	6
30123	7e-05	0	4e-05	-6e-05	-0.00014	-0.00014	-0.00019	3e-05	6
30124	7e-05	0	4e-05	-6e-05	-0.00014	-0.00014	-0.00019	3e-05	6
30125	7e-05	0	4e-05	-6e-05	-0.00014	-0.00014	-0.00019	3e-05	6
30126	7e-05	0	4e-05	-6e-05	-0.00014	-0.00014	-0.00019	3e-05	6
30127	7e-05	0	4e-05	-6e-05	-0.00014	-0.00014	-0.00019	3e-05	6
30128	7e-05	0	4e-05	-6e-05	-0.00014	-0.00014	-0.00019	3e-05	6
30129	7e-05	0	4e-05	-6e-05	-0.00014	-0.00014	-0.00019	3e-05	6
30130	7e-05	0	4e-05	-6e-05	-0.00014	-0.00014	-0.00019	3e-05	6
30131	7e-05	0	4e-05	-6e-05	-0.00014	-0.00014	-0.00019	3e-05	6
30132	7e-05	0	4e-05	-6e-05	-0.00014	-0.00014	-0.00019	3e-05	6
30133	7e-05	0	4e-05	-6e-05	-0.00014	-0.00014	-0.00019	3e-05	6
30134	7e-05	0	4e-05	-6e-05	-0.00014	-0.00014	-0.00019	3e-05	6
30135	7e-05	0	4e-05	-6e-05	-0.00014	-0.00014	-0.00019	3e-05	6
30136	7e-05	0	4e-05	-6e-05	-0.00014	-0.00014	-0.00019	3e-05	6
30138	-8e-05	-5e-05	-2e-05	-2e-05	0.00019	2e-05	2e-05	0.00014	6
30139	-8e-05	-5e-05	-2e-05	-2e-05	0.00019	2e-05	2e-05	0.00014	6
30140	-8e-05	-5e-05	-2e-05	-2e-05	0.00019	2e-05	2e-05	0.00014	6
30141	-8e-05	-5e-05	-2e-05	-2e-05	0.00019	2e-05	2e-05	0.00014	6
30142	-8e-05	-5e-05	-2e-05	-2e-05	0.00019	2e-05	2e-05	0.00014	6
30143	-8e-05	-5e-05	-2e-05	-2e-05	0.00019	2e-05	2e-05	0.00014	6
30145	-8e-05	-5e-05	-2e-05	-2e-05	0.00019	2e-05	2e-05	0.00014	6
30146	-8e-05	-5e-05	-2e-05	-2e-05	0.00019	2e-05	2e-05	0.00014	6
30147	-8e-05	-5e-05	-2e-05	-2e-05	0.00019	2e-05	2e-05	0.00014	6
30148	-8e-05	-5e-05	-2e-05	-2e-05	0.00019	2e-05	2e-05	0.00014	6
30149	-8e-05	-5e-05	-2e-05	-2e-05	0.00019	2e-05	2e-05	0.00014	6
30150	-8e-05	-5e-05	-2e-05	-2e-05	0.00019	2e-05	2e-05	0.00014	6
30151	-8e-05	-5e-05	-2e-05	-2e-05	0.00019	2e-05	2e-05	0.00014	6
30152	-8e-05	-5e-05	-2e-05	-2e-05	0.00019	2e-05	2e-05	0.00014	6
30153	-8e-05	-5e-05	-2e-05	-2e-05	0.00019	2e-05	2e-05	0.00014	6
30154	-8e-05	-5e-05	-2e-05	-2e-05	0.00019	2e-05	2e-05	0.00014	6
30155	-8e-05	-5e-05	-2e-05	-2e-05	0.00019	2e-05	2e-05	0.00014	6
30156	-8e-05	-5e-05	-2e-05	-2e-05	0.00019	2e-05	2e-05	0.00014	6
30157	-8e-05	-5e-05	-2e-05	-2e-05	0.00019	2e-05	2e-05	0.00014	6
30158	-8e-05	-5e-05	-2e-05	-2e-05	0.00019	2e-05	2e-05	0.00014	6
30159	0.00015	4e-05	0	-1e-05	-1e-05	0	0	8e-05	6
30160	-5e-05	-2e-05	-4e-05	-3e-05	-0.00025	0	0.0001	0.00089	6
30161	-5e-05	-2e-05	-4e-05	-3e-05	-0.00025	0	0.0001	0.00089	6
30162	-5e-05	-2e-05	-4e-05	-3e-05	-0.00025	0	0.0001	0.00089	6
30163	-5e-05	-2e-05	-4e-05	-3e-05	-0.00025	0	0.0001	0.00089	6
30164	-5e-05	-2e-05	-4e-05	-3e-05	-0.00025	0	0.0001	0.00089	6
30165	-5e-05	-2e-05	-4e-05	-3e-05	-0.00025	0	0.0001	0.00089	6
30166	-5e-05	-2e-05	-4e-05	-3e-05	-0.00025	0	0.0001	0.00089	6
30167	-5e-05	-2e-05	-4e-05	-3e-05	-0.00025	0	0.0001	0.00089	6
30168	-5e-05	-2e-05	-4e-05	-3e-05	-0.00025	0	0.0001	0.00089	6
30169	-5e-05	-2e-05	-4e-05	-3e-05	-0.00025	0	0.0001	0.00089	6
30170	-5e-05	-2e-05	-4e-05	-3e-05	-0.00025	0	0.0001	0.00089	6
30171	-5e-05	-2e-05	-4e-05	-3e-05	-0.00025	0	0.0001	0.00089	6
30172	-5e-05	-2e-05	-4e-05	-3e-05	-0.00025	0	0.0001	0.00089	6
30173	-5e-05	-2e-05	-4e-05	-3e-05	-0.00025	0	0.0001	0.00089	6
30174	8e-05	-2e-05	-3e-05	-6e-05	0.00021	6e-05	-3e-05	-5e-05	6
30175	8e-05	-2e-05	-3e-05	-6e-05	0.00021	6e-05	-3e-05	-5e-05	6
30176	0	-1e-05	-1e-05	1e-05	-0.00013	-0.00014	0.00016	0.00012	6
30177	0	-1e-05	-1e-05	1e-05	-0.00013	-0.00014	0.00016	0.00012	6
30178	0	-1e-05	-1e-05	1e-05	-0.00013	-0.00014	0.00016	0.00012	6
30179	0	-1e-05	-1e-05	1e-05	-0.00013	-0.00014	0.00016	0.00012	6
30180	0	-1e-05	-1e-05	1e-05	-0.00013	-0.00014	0.00016	0.00012	6
30181	0	-1e-05	-1e-05	1e-05	-0.00013	-0.00014	0.00016	0.00012	6
30182	0	-1e-05	-1e-05	1e-05	-0.00013	-0.00014	0.00016	0.00012	6
30183	0	-1e-05	-1e-05	1e-05	-0.00013	-0.00014	0.00016	0.00012	6
30184	0	-1e-05	-1e-05	1e-05	-0.00013	-0.00014	0.00016	0.00012	6
30185	0	-1e-05	-1e-05	1e-05	-0.00013	-0.00014	0.00016	0.00012	6
30186	0	-1e-05	-1e-05	1e-05	-0.00013	-0.00014	0.00016	0.00012	6
30188	0	-1e-05	-1e-05	1e-05	-0.00013	-0.00014	0.00016	0.00012	6
30189	0	-1e-05	-1e-05	1e-05	-0.00013	-0.00014	0.00016	0.00012	6
30190	0	-1e-05	-1e-05	1e-05	-0.00013	-0.00014	0.00016	0.00012	6
30191	0	-1e-05	-1e-05	1e-05	-0.00013	-0.00014	0.00016	0.00012	6
30192	0	-1e-05	-1e-05	1e-05	-0.00013	-0.00014	0.00016	0.00012	6
30193	0	-1e-05	-1e-05	1e-05	-0.00013	-0.00014	0.00016	0.00012	6
30194	0	-1e-05	-1e-05	1e-05	-0.00013	-0.00014	0.00016	0.00012	6
30195	0	-1e-05	-1e-05	1e-05	-0.00013	-0.00014	0.00016	0.00012	6
30196	0	-1e-05	-1e-05	1e-05	-0.00013	-0.00014	0.00016	0.00012	6
30197	-3e-05	-2e-05	-1e-05	4e-05	0.00017	8e-05	-3e-05	-0.00017	6
30198	-3e-05	-2e-05	-1e-05	4e-05	0.00017	8e-05	-3e-05	-0.00017	6
30199	-3e-05	-2e-05	-1e-05	4e-05	0.00017	8e-05	-3e-05	-0.00017	6
30200	-3e-05	-2e-05	-1e-05	4e-05	0.00017	8e-05	-3e-05	-0.00017	6
30201	-3e-05	-2e-05	-1e-05	4e-05	0.00017	8e-05	-3e-05	-0.00017	6
30202	-3e-05	-2e-05	-1e-05	4e-05	0.00017	8e-05	-3e-05	-0.00017	6
30203	-3e-05	-2e-05	-1e-05	4e-05	0.00017	8e-05	-3e-05	-0.00017	6
30204	-3e-05	-2e-05	-1e-05	4e-05	0.00017	8e-05	-3e-05	-0.00017	6
30205	-3e-05	-2e-05	-1e-05	4e-05	0.00017	8e-05	-3e-05	-0.00017	6
30206	-3e-05	-2e-05	-1e-05	4e-05	0.00017	8e-05	-3e-05	-0.00017	6
30207	-3e-05	-2e-05	-1e-05	4e-05	0.00017	8e-05	-3e-05	-0.00017	6
30208	-3e-05	-2e-05	-1e-05	4e-05	0.00017	8e-05	-3e-05	-0.00017	6
30209	-3e-05	-2e-05	-1e-05	4e-05	0.00017	8e-05	-3e-05	-0.00017	6
30210	-3e-05	-2e-05	-1e-05	4e-05	0.00017	8e-05	-3e-05	-0.00017	6
30211	-3e-05	-2e-05	-1e-05	4e-05	0.00017	8e-05	-3e-05	-0.00017	6
30212	-3e-05	-2e-05	-1e-05	4e-05	0.00017	8e-05	-3e-05	-0.00017	6
30213	-3e-05	-2e-05	-1e-05	4e-05	0.00017	8e-05	-3e-05	-0.00017	6
30214	-3e-05	-2e-05	-1e-05	4e-05	0.00017	8e-05	-3e-05	-0.00017	6
30215	-3e-05	-2e-05	-1e-05	4e-05	0.00017	8e-05	-3e-05	-0.00017	6
30216	-3e-05	-2e-05	-1e-05	4e-05	0.00017	8e-05	-3e-05	-0.00017	6
30217	-3e-05	-2e-05	-1e-05	4e-05	0.00017	8e-05	-3e-05	-0.00017	6
30218	-3e-05	-2e-05	-1e-05	4e-05	0.00017	8e-05	-3e-05	-0.00017	6
30219	-5e-05	-5e-05	-2e-05	-1e-05	-7e-05	-0.0001	-3e-05	-0.00022	6
30220	-5e-05	-5e-05	-7e-05	-6e-05	-2e-05	0.0001	0.00016	-0.0001	6
30221	-5e-05	-5e-05	-7e-05	-6e-05	-2e-05	0.0001	0.00016	-0.0001	6
30222	-5e-05	-5e-05	-7e-05	-6e-05	-2e-05	0.0001	0.00016	-0.0001	6
30223	-5e-05	-5e-05	-7e-05	-6e-05	-2e-05	0.0001	0.00016	-0.0001	6
30224	-5e-05	-5e-05	-7e-05	-6e-05	-2e-05	0.0001	0.00016	-0.0001	6
30225	-5e-05	-5e-05	-7e-05	-6e-05	-2e-05	0.0001	0.00016	-0.0001	6
30226	-5e-05	-5e-05	-7e-05	-6e-05	-2e-05	0.0001	0.00016	-0.0001	6
30227	-5e-05	-5e-05	-7e-05	-6e-05	-2e-05	0.0001	0.00016	-0.0001	6
30228	-5e-05	-5e-05	-7e-05	-6e-05	-2e-05	0.0001	0.00016	-0.0001	6
30229	-5e-05	-5e-05	-7e-05	-6e-05	-2e-05	0.0001	0.00016	-0.0001	6
30230	-5e-05	-5e-05	-7e-05	-6e-05	-2e-05	0.0001	0.00016	-0.0001	6
30231	-5e-05	-5e-05	-7e-05	-6e-05	-2e-05	0.0001	0.00016	-0.0001	6
30232	-5e-05	-5e-05	-7e-05	-6e-05	-2e-05	0.0001	0.00016	-0.0001	6
30233	-5e-05	-5e-05	-7e-05	-6e-05	-2e-05	0.0001	0.00016	-0.0001	6
30234	-6e-05	-1e-05	-7e-05	4e-05	8e-05	2e-05	0.00019	-0.00032	6
30235	-2e-05	0	2e-05	-1e-05	-0.0002	-7e-05	-7e-05	-0.0001	6
30236	-2e-05	0	2e-05	-1e-05	-0.0002	-7e-05	-7e-05	-0.0001	6
30238	-2e-05	0	2e-05	-1e-05	-0.0002	-7e-05	-7e-05	-0.0001	6
30239	-2e-05	0	2e-05	-1e-05	-0.0002	-7e-05	-7e-05	-0.0001	6
30240	-2e-05	0	2e-05	-1e-05	-0.0002	-7e-05	-7e-05	-0.0001	6
30241	-2e-05	0	2e-05	-1e-05	-0.0002	-7e-05	-7e-05	-0.0001	6
30242	-2e-05	0	2e-05	-1e-05	-0.0002	-7e-05	-7e-05	-0.0001	6
30243	-2e-05	0	2e-05	-1e-05	-0.0002	-7e-05	-7e-05	-0.0001	6
30244	-2e-05	0	2e-05	-1e-05	-0.0002	-7e-05	-7e-05	-0.0001	6
30245	-2e-05	0	2e-05	-1e-05	-0.0002	-7e-05	-7e-05	-0.0001	6
30246	-2e-05	0	2e-05	-1e-05	-0.0002	-7e-05	-7e-05	-0.0001	6
30247	-2e-05	0	2e-05	-1e-05	-0.0002	-7e-05	-7e-05	-0.0001	6
30248	-2e-05	0	2e-05	-1e-05	-0.0002	-7e-05	-7e-05	-0.0001	6
30249	-2e-05	0	2e-05	-1e-05	-0.0002	-7e-05	-7e-05	-0.0001	6
30250	-2e-05	0	2e-05	-1e-05	-0.0002	-7e-05	-7e-05	-0.0001	6
30251	-2e-05	0	2e-05	-1e-05	-0.0002	-7e-05	-7e-05	-0.0001	6
30252	-2e-05	0	2e-05	-1e-05	-0.0002	-7e-05	-7e-05	-0.0001	6
30253	-2e-05	0	2e-05	-1e-05	-0.0002	-7e-05	-7e-05	-0.0001	6
30254	-2e-05	0	2e-05	-1e-05	-0.0002	-7e-05	-7e-05	-0.0001	6
30255	-2e-05	0	2e-05	-1e-05	-0.0002	-7e-05	-7e-05	-0.0001	6
30256	4e-05	2e-05	-1e-05	-5e-05	0.00012	-7e-05	-0.00016	-9e-05	6
30257	0	0	-2e-05	-1e-05	-6e-05	2e-05	0	-0.00034	6
30258	0	0	-2e-05	-1e-05	-6e-05	2e-05	0	-0.00034	6
30259	0	0	-2e-05	-1e-05	-6e-05	2e-05	0	-0.00034	6
30260	0	0	-2e-05	-1e-05	-6e-05	2e-05	0	-0.00034	6
30261	0	0	-2e-05	-1e-05	-6e-05	2e-05	0	-0.00034	6
30262	0	0	-2e-05	-1e-05	-6e-05	2e-05	0	-0.00034	6
30263	0	0	-2e-05	-1e-05	-6e-05	2e-05	0	-0.00034	6
30264	0	0	-2e-05	-1e-05	-6e-05	2e-05	0	-0.00034	6
30265	0	0	-2e-05	-1e-05	-6e-05	2e-05	0	-0.00034	6
30266	0	0	-2e-05	-1e-05	-6e-05	2e-05	0	-0.00034	6
30267	0	0	-2e-05	-1e-05	-6e-05	2e-05	0	-0.00034	6
30268	0	0	-2e-05	-1e-05	-6e-05	2e-05	0	-0.00034	6
30269	0	0	-2e-05	-1e-05	-6e-05	2e-05	0	-0.00034	6
30270	0	0	-2e-05	-1e-05	-6e-05	2e-05	0	-0.00034	6
30271	0	0	-2e-05	-1e-05	-6e-05	2e-05	0	-0.00034	6
30272	0	0	-2e-05	-1e-05	-6e-05	2e-05	0	-0.00034	6
30273	0	0	-2e-05	-1e-05	-6e-05	2e-05	0	-0.00034	6
30274	0	0	-2e-05	-1e-05	-6e-05	2e-05	0	-0.00034	6
30275	0	0	-2e-05	-1e-05	-6e-05	2e-05	0	-0.00034	6
30276	0	0	-2e-05	-1e-05	-6e-05	2e-05	0	-0.00034	6
30277	0	0	-2e-05	-1e-05	-6e-05	2e-05	0	-0.00034	6
30278	0	0	-2e-05	-1e-05	-6e-05	2e-05	0	-0.00034	6
30279	2e-05	-2e-05	3e-05	3e-05	8e-05	-2e-05	-0.0001	0.00024	6
30280	-0.00047	-3e-05	1e-05	-2e-05	-3e-05	5e-05	-0.00022	-0.00017	6
30281	-0.00047	-3e-05	1e-05	-2e-05	-3e-05	5e-05	-0.00022	-0.00017	6
30282	-0.00047	-3e-05	1e-05	-2e-05	-3e-05	5e-05	-0.00022	-0.00017	6
30283	-0.00047	-3e-05	1e-05	-2e-05	-3e-05	5e-05	-0.00022	-0.00017	6
30284	-0.00047	-3e-05	1e-05	-2e-05	-3e-05	5e-05	-0.00022	-0.00017	6
30285	-0.00047	-3e-05	1e-05	-2e-05	-3e-05	5e-05	-0.00022	-0.00017	6
30286	-0.00047	-3e-05	1e-05	-2e-05	-3e-05	5e-05	-0.00022	-0.00017	6
30288	-0.00047	-3e-05	1e-05	-2e-05	-3e-05	5e-05	-0.00022	-0.00017	6
30289	-0.00047	-3e-05	1e-05	-2e-05	-3e-05	5e-05	-0.00022	-0.00017	6
30290	-0.00047	-3e-05	1e-05	-2e-05	-3e-05	5e-05	-0.00022	-0.00017	6
30291	-0.00047	-3e-05	1e-05	-2e-05	-3e-05	5e-05	-0.00022	-0.00017	6
30292	-0.00047	-3e-05	1e-05	-2e-05	-3e-05	5e-05	-0.00022	-0.00017	6
30293	-0.00047	-3e-05	1e-05	-2e-05	-3e-05	5e-05	-0.00022	-0.00017	6
30294	-2e-05	-1e-05	1e-05	4e-05	0.00011	-4e-05	-2e-05	0.00029	6
30295	-2e-05	-1e-05	1e-05	4e-05	0.00011	-4e-05	-2e-05	0.00029	6
30296	-2e-05	-1e-05	1e-05	4e-05	0.00011	-4e-05	-2e-05	0.00029	6
30297	-2e-05	-1e-05	1e-05	4e-05	0.00011	-4e-05	-2e-05	0.00029	6
30298	-2e-05	-1e-05	1e-05	4e-05	0.00011	-4e-05	-2e-05	0.00029	6
30299	-2e-05	-1e-05	1e-05	4e-05	0.00011	-4e-05	-2e-05	0.00029	6
30300	-2e-05	-1e-05	1e-05	4e-05	0.00011	-4e-05	-2e-05	0.00029	6
30301	9e-05	1e-05	1e-05	4e-05	0.00017	3e-05	-3e-05	-0.0001	6
30302	-7e-05	-1e-05	1e-05	-5e-05	-0.00037	-9e-05	-2e-05	0.00043	6
30303	-7e-05	-1e-05	1e-05	-5e-05	-0.00037	-9e-05	-2e-05	0.00043	6
30304	-7e-05	-1e-05	1e-05	-5e-05	-0.00037	-9e-05	-2e-05	0.00043	6
30305	-7e-05	-1e-05	1e-05	-5e-05	-0.00037	-9e-05	-2e-05	0.00043	6
30306	-7e-05	-1e-05	1e-05	-5e-05	-0.00037	-9e-05	-2e-05	0.00043	6
30307	-7e-05	-1e-05	1e-05	-5e-05	-0.00037	-9e-05	-2e-05	0.00043	6
30308	-7e-05	-1e-05	1e-05	-5e-05	-0.00037	-9e-05	-2e-05	0.00043	6
30309	-7e-05	-1e-05	1e-05	-5e-05	-0.00037	-9e-05	-2e-05	0.00043	6
30310	-7e-05	-1e-05	1e-05	-5e-05	-0.00037	-9e-05	-2e-05	0.00043	6
30311	-7e-05	-1e-05	1e-05	-5e-05	-0.00037	-9e-05	-2e-05	0.00043	6
30312	-7e-05	-1e-05	1e-05	-5e-05	-0.00037	-9e-05	-2e-05	0.00043	6
30313	-7e-05	-1e-05	1e-05	-5e-05	-0.00037	-9e-05	-2e-05	0.00043	6
30314	-7e-05	-1e-05	1e-05	-5e-05	-0.00037	-9e-05	-2e-05	0.00043	6
30315	-7e-05	-1e-05	1e-05	-5e-05	-0.00037	-9e-05	-2e-05	0.00043	6
30316	-0.00017	-6e-05	-6e-05	-2e-05	6e-05	2e-05	7e-05	0.00022	6
30317	0.00013	2e-05	-1e-05	-6e-05	-0.00017	0.00024	2e-05	0	6
30318	0.00013	2e-05	-1e-05	-6e-05	-0.00017	0.00024	2e-05	0	6
30319	0.00013	2e-05	-1e-05	-6e-05	-0.00017	0.00024	2e-05	0	6
30320	0.00013	2e-05	-1e-05	-6e-05	-0.00017	0.00024	2e-05	0	6
30321	0.00013	2e-05	-1e-05	-6e-05	-0.00017	0.00024	2e-05	0	6
30322	0.00013	2e-05	-1e-05	-6e-05	-0.00017	0.00024	2e-05	0	6
30323	0.00013	2e-05	-1e-05	-6e-05	-0.00017	0.00024	2e-05	0	6
30324	0.00013	2e-05	-1e-05	-6e-05	-0.00017	0.00024	2e-05	0	6
30325	0.00013	2e-05	-1e-05	-6e-05	-0.00017	0.00024	2e-05	0	6
30326	0.00013	2e-05	-1e-05	-6e-05	-0.00017	0.00024	2e-05	0	6
30327	0.00013	2e-05	-1e-05	-6e-05	-0.00017	0.00024	2e-05	0	6
30328	0.00013	2e-05	-1e-05	-6e-05	-0.00017	0.00024	2e-05	0	6
30329	0.00013	2e-05	-1e-05	-6e-05	-0.00017	0.00024	2e-05	0	6
30330	0.00013	2e-05	-1e-05	-6e-05	-0.00017	0.00024	2e-05	0	6
30331	0.00013	2e-05	-1e-05	-6e-05	-0.00017	0.00024	2e-05	0	6
30332	0.00013	2e-05	-1e-05	-6e-05	-0.00017	0.00024	2e-05	0	6
30333	0.00013	2e-05	-1e-05	-6e-05	-0.00017	0.00024	2e-05	0	6
30334	0.00013	2e-05	-1e-05	-6e-05	-0.00017	0.00024	2e-05	0	6
30335	0.00013	2e-05	-1e-05	-6e-05	-0.00017	0.00024	2e-05	0	6
30336	0.00013	2e-05	-1e-05	-6e-05	-0.00017	0.00024	2e-05	0	6
30338	0.00013	2e-05	-1e-05	-6e-05	-0.00017	0.00024	2e-05	0	6
30339	4e-05	1e-05	-2e-05	2e-05	0.00014	0.00012	-6e-05	0.00017	6
30340	0.0001	-7e-05	-6e-05	-5e-05	5e-05	-0.0001	-4e-05	9e-05	6
30341	0.0001	-7e-05	-6e-05	-5e-05	5e-05	-0.0001	-4e-05	9e-05	6
30342	0.0001	-7e-05	-6e-05	-5e-05	5e-05	-0.0001	-4e-05	9e-05	6
30343	0.0001	-7e-05	-6e-05	-5e-05	5e-05	-0.0001	-4e-05	9e-05	6
30344	0.0001	-7e-05	-6e-05	-5e-05	5e-05	-0.0001	-4e-05	9e-05	6
30345	0.0001	-7e-05	-6e-05	-5e-05	5e-05	-0.0001	-4e-05	9e-05	6
30346	0.0001	-7e-05	-6e-05	-5e-05	5e-05	-0.0001	-4e-05	9e-05	6
30347	0.0001	-7e-05	-6e-05	-5e-05	5e-05	-0.0001	-4e-05	9e-05	6
30348	0.0001	-7e-05	-6e-05	-5e-05	5e-05	-0.0001	-4e-05	9e-05	6
30349	0.0001	-7e-05	-6e-05	-5e-05	5e-05	-0.0001	-4e-05	9e-05	6
30350	0.0001	-7e-05	-6e-05	-5e-05	5e-05	-0.0001	-4e-05	9e-05	6
30351	0.0001	-7e-05	-6e-05	-5e-05	5e-05	-0.0001	-4e-05	9e-05	6
30352	0.0001	-7e-05	-6e-05	-5e-05	5e-05	-0.0001	-4e-05	9e-05	6
30353	0.0001	-7e-05	-6e-05	-5e-05	5e-05	-0.0001	-4e-05	9e-05	6
30354	-0.00028	1e-05	3e-05	2e-05	-6e-05	8e-05	8e-05	-0.00032	6
30355	8e-05	0	-2e-05	-2e-05	2e-05	-6e-05	-2e-05	-0.00019	6
30356	8e-05	0	-2e-05	-2e-05	2e-05	-6e-05	-2e-05	-0.00019	6
30357	8e-05	0	-2e-05	-2e-05	2e-05	-6e-05	-2e-05	-0.00019	6
30358	8e-05	0	-2e-05	-2e-05	2e-05	-6e-05	-2e-05	-0.00019	6
30359	8e-05	0	-2e-05	-2e-05	2e-05	-6e-05	-2e-05	-0.00019	6
30360	8e-05	0	-2e-05	-2e-05	2e-05	-6e-05	-2e-05	-0.00019	6
30361	8e-05	0	-2e-05	-2e-05	2e-05	-6e-05	-2e-05	-0.00019	6
30362	8e-05	0	-2e-05	-2e-05	2e-05	-6e-05	-2e-05	-0.00019	6
30363	8e-05	0	-2e-05	-2e-05	2e-05	-6e-05	-2e-05	-0.00019	6
30364	8e-05	0	-2e-05	-2e-05	2e-05	-6e-05	-2e-05	-0.00019	6
30365	8e-05	0	-2e-05	-2e-05	2e-05	-6e-05	-2e-05	-0.00019	6
30366	8e-05	0	-2e-05	-2e-05	2e-05	-6e-05	-2e-05	-0.00019	6
30367	8e-05	0	-2e-05	-2e-05	2e-05	-6e-05	-2e-05	-0.00019	6
30368	8e-05	0	-2e-05	-2e-05	2e-05	-6e-05	-2e-05	-0.00019	6
30369	8e-05	0	-2e-05	-2e-05	2e-05	-6e-05	-2e-05	-0.00019	6
30370	8e-05	0	-2e-05	-2e-05	2e-05	-6e-05	-2e-05	-0.00019	6
30371	8e-05	0	-2e-05	-2e-05	2e-05	-6e-05	-2e-05	-0.00019	6
30372	8e-05	0	-2e-05	-2e-05	2e-05	-6e-05	-2e-05	-0.00019	6
30373	8e-05	0	-2e-05	-2e-05	2e-05	-6e-05	-2e-05	-0.00019	6
30374	8e-05	0	-2e-05	-2e-05	2e-05	-6e-05	-2e-05	-0.00019	6
30375	8e-05	0	-2e-05	-2e-05	2e-05	-6e-05	-2e-05	-0.00019	6
30376	8e-05	0	-2e-05	-2e-05	2e-05	-6e-05	-2e-05	-0.00019	6
30377	0.0001	2e-05	1e-05	8e-05	3e-05	-0.00011	0.00012	-0.00025	6
30378	0.0001	2e-05	1e-05	8e-05	3e-05	-0.00011	0.00012	-0.00025	6
30379	0.0001	2e-05	1e-05	8e-05	3e-05	-0.00011	0.00012	-0.00025	6
30380	0.0001	2e-05	1e-05	8e-05	3e-05	-0.00011	0.00012	-0.00025	6
30381	0.0001	2e-05	1e-05	8e-05	3e-05	-0.00011	0.00012	-0.00025	6
30382	0.0001	2e-05	1e-05	8e-05	3e-05	-0.00011	0.00012	-0.00025	6
30383	0.0001	2e-05	1e-05	8e-05	3e-05	-0.00011	0.00012	-0.00025	6
30384	0.0001	2e-05	1e-05	8e-05	3e-05	-0.00011	0.00012	-0.00025	6
30385	0.0001	2e-05	1e-05	8e-05	3e-05	-0.00011	0.00012	-0.00025	6
30386	0.0001	2e-05	1e-05	8e-05	3e-05	-0.00011	0.00012	-0.00025	6
30388	0.0001	2e-05	1e-05	8e-05	3e-05	-0.00011	0.00012	-0.00025	6
30389	0.0001	2e-05	1e-05	8e-05	3e-05	-0.00011	0.00012	-0.00025	6
30390	0.0001	2e-05	1e-05	8e-05	3e-05	-0.00011	0.00012	-0.00025	6
30391	0.0001	2e-05	1e-05	8e-05	3e-05	-0.00011	0.00012	-0.00025	6
30392	0.0001	2e-05	1e-05	8e-05	3e-05	-0.00011	0.00012	-0.00025	6
30393	0.0001	2e-05	1e-05	8e-05	3e-05	-0.00011	0.00012	-0.00025	6
30394	0.0001	2e-05	1e-05	8e-05	3e-05	-0.00011	0.00012	-0.00025	6
30395	0.0001	2e-05	1e-05	8e-05	3e-05	-0.00011	0.00012	-0.00025	6
30396	0.0001	2e-05	1e-05	8e-05	3e-05	-0.00011	0.00012	-0.00025	6
30397	0.0001	2e-05	1e-05	8e-05	3e-05	-0.00011	0.00012	-0.00025	6
30398	0.0001	2e-05	1e-05	8e-05	3e-05	-0.00011	0.00012	-0.00025	6
30399	6e-05	1e-05	1e-05	1e-05	-3e-05	-1e-05	1e-05	-0.00014	6
30400	0	0	-1e-05	-5e-05	-0.00011	1e-05	1e-05	-6e-05	6
30401	0	0	-1e-05	-5e-05	-0.00011	1e-05	1e-05	-6e-05	6
30402	0	0	-1e-05	-5e-05	-0.00011	1e-05	1e-05	-6e-05	6
30403	0	0	-1e-05	-5e-05	-0.00011	1e-05	1e-05	-6e-05	6
30404	0	0	-1e-05	-5e-05	-0.00011	1e-05	1e-05	-6e-05	6
30405	0	0	-1e-05	-5e-05	-0.00011	1e-05	1e-05	-6e-05	6
30406	0	0	-1e-05	-5e-05	-0.00011	1e-05	1e-05	-6e-05	6
30407	0	0	-1e-05	-5e-05	-0.00011	1e-05	1e-05	-6e-05	6
30408	0	0	-1e-05	-5e-05	-0.00011	1e-05	1e-05	-6e-05	6
30409	0	0	-1e-05	-5e-05	-0.00011	1e-05	1e-05	-6e-05	6
30410	0	0	-1e-05	-5e-05	-0.00011	1e-05	1e-05	-6e-05	6
30411	0	0	-1e-05	-5e-05	-0.00011	1e-05	1e-05	-6e-05	6
30412	0	0	-1e-05	-5e-05	-0.00011	1e-05	1e-05	-6e-05	6
30413	0	0	-1e-05	-5e-05	-0.00011	1e-05	1e-05	-6e-05	6
30414	0	0	-1e-05	-5e-05	-0.00011	1e-05	1e-05	-6e-05	6
30415	0	-3e-05	-2e-05	-2e-05	0	2e-05	-2e-05	2e-05	6
30416	0.00012	0	1e-05	0	0.00025	-2e-05	0	4e-05	6
30417	0.00012	0	1e-05	0	0.00025	-2e-05	0	4e-05	6
30418	0.00012	0	1e-05	0	0.00025	-2e-05	0	4e-05	6
30419	0.00012	0	1e-05	0	0.00025	-2e-05	0	4e-05	6
30420	0.00012	0	1e-05	0	0.00025	-2e-05	0	4e-05	6
30421	0.00012	0	1e-05	0	0.00025	-2e-05	0	4e-05	6
30422	0.00012	0	1e-05	0	0.00025	-2e-05	0	4e-05	6
30423	0.00012	0	1e-05	0	0.00025	-2e-05	0	4e-05	6
30424	0.00012	0	1e-05	0	0.00025	-2e-05	0	4e-05	6
30425	0.00012	0	1e-05	0	0.00025	-2e-05	0	4e-05	6
30426	0.00012	0	1e-05	0	0.00025	-2e-05	0	4e-05	6
30427	0.00012	0	1e-05	0	0.00025	-2e-05	0	4e-05	6
30428	0.00012	0	1e-05	0	0.00025	-2e-05	0	4e-05	6
30429	0.00012	0	1e-05	0	0.00025	-2e-05	0	4e-05	6
30430	0.00012	0	1e-05	0	0.00025	-2e-05	0	4e-05	6
30431	0.00012	0	1e-05	0	0.00025	-2e-05	0	4e-05	6
30432	0.00012	0	1e-05	0	0.00025	-2e-05	0	4e-05	6
30433	0.00012	0	1e-05	0	0.00025	-2e-05	0	4e-05	6
30434	0.00012	0	1e-05	0	0.00025	-2e-05	0	4e-05	6
30435	0.00012	0	1e-05	0	0.00025	-2e-05	0	4e-05	6
30436	0.00012	0	1e-05	0	0.00025	-2e-05	0	4e-05	6
30438	0.00067	0.0001	-2e-05	9e-05	0.00015	7e-05	7e-05	0.00018	6
30439	0.00067	0.0001	-2e-05	9e-05	0.00015	7e-05	7e-05	0.00018	6
30440	0.00067	0.0001	-2e-05	9e-05	0.00015	7e-05	7e-05	0.00018	6
30441	0.00067	0.0001	-2e-05	9e-05	0.00015	7e-05	7e-05	0.00018	6
30442	0.00067	0.0001	-2e-05	9e-05	0.00015	7e-05	7e-05	0.00018	6
30443	0.00067	0.0001	-2e-05	9e-05	0.00015	7e-05	7e-05	0.00018	6
30444	0.00067	0.0001	-2e-05	9e-05	0.00015	7e-05	7e-05	0.00018	6
30445	0.00067	0.0001	-2e-05	9e-05	0.00015	7e-05	7e-05	0.00018	6
30446	0.00067	0.0001	-2e-05	9e-05	0.00015	7e-05	7e-05	0.00018	6
30447	0.00067	0.0001	-2e-05	9e-05	0.00015	7e-05	7e-05	0.00018	6
30448	0.00067	0.0001	-2e-05	9e-05	0.00015	7e-05	7e-05	0.00018	6
30449	0.00067	0.0001	-2e-05	9e-05	0.00015	7e-05	7e-05	0.00018	6
30450	0.00067	0.0001	-2e-05	9e-05	0.00015	7e-05	7e-05	0.00018	6
30451	0.00067	0.0001	-2e-05	9e-05	0.00015	7e-05	7e-05	0.00018	6
30452	0.00067	0.0001	-2e-05	9e-05	0.00015	7e-05	7e-05	0.00018	6
30453	0.00067	0.0001	-2e-05	9e-05	0.00015	7e-05	7e-05	0.00018	6
30454	0.00067	0.0001	-2e-05	9e-05	0.00015	7e-05	7e-05	0.00018	6
30455	0.00067	0.0001	-2e-05	9e-05	0.00015	7e-05	7e-05	0.00018	6
30456	0.00067	0.0001	-2e-05	9e-05	0.00015	7e-05	7e-05	0.00018	6
30457	0.00067	0.0001	-2e-05	9e-05	0.00015	7e-05	7e-05	0.00018	6
30458	0.00067	0.0001	-2e-05	9e-05	0.00015	7e-05	7e-05	0.00018	6
30459	0.00067	0.0001	-2e-05	9e-05	0.00015	7e-05	7e-05	0.00018	6
30460	-0.00026	-3e-05	2e-05	-1e-05	-8e-05	-4e-05	-6e-05	-0.00012	6
30461	-0.00026	-3e-05	2e-05	-1e-05	-8e-05	-4e-05	-6e-05	-0.00012	6
30462	-0.00026	-3e-05	2e-05	-1e-05	-8e-05	-4e-05	-6e-05	-0.00012	6
30463	-0.00026	-3e-05	2e-05	-1e-05	-8e-05	-4e-05	-6e-05	-0.00012	6
30464	-0.00026	-3e-05	2e-05	-1e-05	-8e-05	-4e-05	-6e-05	-0.00012	6
30465	-0.00026	-3e-05	2e-05	-1e-05	-8e-05	-4e-05	-6e-05	-0.00012	6
30466	-0.00026	-3e-05	2e-05	-1e-05	-8e-05	-4e-05	-6e-05	-0.00012	6
30467	-0.00026	-3e-05	2e-05	-1e-05	-8e-05	-4e-05	-6e-05	-0.00012	6
30468	-0.00026	-3e-05	2e-05	-1e-05	-8e-05	-4e-05	-6e-05	-0.00012	6
30469	-0.00026	-3e-05	2e-05	-1e-05	-8e-05	-4e-05	-6e-05	-0.00012	6
30470	-0.00026	-3e-05	2e-05	-1e-05	-8e-05	-4e-05	-6e-05	-0.00012	6
30471	-0.00026	-3e-05	2e-05	-1e-05	-8e-05	-4e-05	-6e-05	-0.00012	6
30472	-0.00026	-3e-05	2e-05	-1e-05	-8e-05	-4e-05	-6e-05	-0.00012	6
30473	-0.00026	-3e-05	2e-05	-1e-05	-8e-05	-4e-05	-6e-05	-0.00012	6
30474	3e-05	-3e-05	-5e-05	3e-05	0.00015	-0.00012	-9e-05	0.0001	6
30475	-0.00016	-7e-05	-4e-05	-7e-05	5e-05	4e-05	-7e-05	-0.0002	6
30476	-0.00016	-7e-05	-4e-05	-7e-05	5e-05	4e-05	-7e-05	-0.0002	6
30477	-0.00016	-7e-05	-4e-05	-7e-05	5e-05	4e-05	-7e-05	-0.0002	6
30478	-0.00016	-7e-05	-4e-05	-7e-05	5e-05	4e-05	-7e-05	-0.0002	6
30479	-0.00016	-7e-05	-4e-05	-7e-05	5e-05	4e-05	-7e-05	-0.0002	6
30480	-0.00016	-7e-05	-4e-05	-7e-05	5e-05	4e-05	-7e-05	-0.0002	6
30481	-0.00016	-7e-05	-4e-05	-7e-05	5e-05	4e-05	-7e-05	-0.0002	6
30482	-0.00016	-7e-05	-4e-05	-7e-05	5e-05	4e-05	-7e-05	-0.0002	6
30483	-0.00016	-7e-05	-4e-05	-7e-05	5e-05	4e-05	-7e-05	-0.0002	6
30484	-0.00016	-7e-05	-4e-05	-7e-05	5e-05	4e-05	-7e-05	-0.0002	6
30485	-0.00016	-7e-05	-4e-05	-7e-05	5e-05	4e-05	-7e-05	-0.0002	6
30486	-0.00016	-7e-05	-4e-05	-7e-05	5e-05	4e-05	-7e-05	-0.0002	6
30488	-0.00016	-7e-05	-4e-05	-7e-05	5e-05	4e-05	-7e-05	-0.0002	6
30489	-0.00016	-7e-05	-4e-05	-7e-05	5e-05	4e-05	-7e-05	-0.0002	6
30490	-0.00016	-7e-05	-4e-05	-7e-05	5e-05	4e-05	-7e-05	-0.0002	6
30491	-0.00016	-7e-05	-4e-05	-7e-05	5e-05	4e-05	-7e-05	-0.0002	6
30492	-0.00016	-7e-05	-4e-05	-7e-05	5e-05	4e-05	-7e-05	-0.0002	6
30493	-0.00016	-7e-05	-4e-05	-7e-05	5e-05	4e-05	-7e-05	-0.0002	6
30494	-0.00016	-7e-05	-4e-05	-7e-05	5e-05	4e-05	-7e-05	-0.0002	6
30495	-0.00016	-7e-05	-4e-05	-7e-05	5e-05	4e-05	-7e-05	-0.0002	6
30496	-0.00016	-7e-05	-4e-05	-7e-05	5e-05	4e-05	-7e-05	-0.0002	6
30497	0.00015	2e-05	0	0.0001	0.00034	-9e-05	1e-05	0.00023	6
30498	0.00015	2e-05	0	0.0001	0.00034	-9e-05	1e-05	0.00023	6
30499	0.00015	2e-05	0	0.0001	0.00034	-9e-05	1e-05	0.00023	6
30500	0.00015	2e-05	0	0.0001	0.00034	-9e-05	1e-05	0.00023	6
30501	0.00015	2e-05	0	0.0001	0.00034	-9e-05	1e-05	0.00023	6
30502	0.00015	2e-05	0	0.0001	0.00034	-9e-05	1e-05	0.00023	6
30503	0.00015	2e-05	0	0.0001	0.00034	-9e-05	1e-05	0.00023	6
30504	0.00015	2e-05	0	0.0001	0.00034	-9e-05	1e-05	0.00023	6
30505	0.00015	2e-05	0	0.0001	0.00034	-9e-05	1e-05	0.00023	6
30506	0.00015	2e-05	0	0.0001	0.00034	-9e-05	1e-05	0.00023	6
30507	0.00015	2e-05	0	0.0001	0.00034	-9e-05	1e-05	0.00023	6
30508	0.00015	2e-05	0	0.0001	0.00034	-9e-05	1e-05	0.00023	6
30509	0.00015	2e-05	0	0.0001	0.00034	-9e-05	1e-05	0.00023	6
30510	0.00015	2e-05	0	0.0001	0.00034	-9e-05	1e-05	0.00023	6
30511	0.00015	2e-05	0	0.0001	0.00034	-9e-05	1e-05	0.00023	6
30512	0.00015	2e-05	0	0.0001	0.00034	-9e-05	1e-05	0.00023	6
30513	0.00015	2e-05	0	0.0001	0.00034	-9e-05	1e-05	0.00023	6
30514	0.00015	2e-05	0	0.0001	0.00034	-9e-05	1e-05	0.00023	6
30515	0.00015	2e-05	0	0.0001	0.00034	-9e-05	1e-05	0.00023	6
30516	0.00015	2e-05	0	0.0001	0.00034	-9e-05	1e-05	0.00023	6
30517	0.00015	2e-05	0	0.0001	0.00034	-9e-05	1e-05	0.00023	6
30518	0.00015	2e-05	0	0.0001	0.00034	-9e-05	1e-05	0.00023	6
30519	0.0001	1e-05	-1e-05	-2e-05	0	3e-05	-0.00018	-0.00019	6
30520	-0.00018	-9e-05	-7e-05	-5e-05	-1e-05	-8e-05	-4e-05	0	6
30521	-0.00018	-9e-05	-7e-05	-5e-05	-1e-05	-8e-05	-4e-05	0	6
30522	-0.00018	-9e-05	-7e-05	-5e-05	-1e-05	-8e-05	-4e-05	0	6
30523	-0.00018	-9e-05	-7e-05	-5e-05	-1e-05	-8e-05	-4e-05	0	6
30524	-0.00018	-9e-05	-7e-05	-5e-05	-1e-05	-8e-05	-4e-05	0	6
30525	-0.00018	-9e-05	-7e-05	-5e-05	-1e-05	-8e-05	-4e-05	0	6
30526	-0.00018	-9e-05	-7e-05	-5e-05	-1e-05	-8e-05	-4e-05	0	6
30527	-0.00018	-9e-05	-7e-05	-5e-05	-1e-05	-8e-05	-4e-05	0	6
30528	-0.00018	-9e-05	-7e-05	-5e-05	-1e-05	-8e-05	-4e-05	0	6
30529	-0.00018	-9e-05	-7e-05	-5e-05	-1e-05	-8e-05	-4e-05	0	6
30530	-0.00018	-9e-05	-7e-05	-5e-05	-1e-05	-8e-05	-4e-05	0	6
30531	-0.00018	-9e-05	-7e-05	-5e-05	-1e-05	-8e-05	-4e-05	0	6
30532	-0.00018	-9e-05	-7e-05	-5e-05	-1e-05	-8e-05	-4e-05	0	6
30533	-0.00022	-7e-05	-3e-05	1e-05	0.00022	-2e-05	-4e-05	-0.00042	6
30534	-0.00022	-7e-05	-3e-05	1e-05	0.00022	-2e-05	-4e-05	-0.00042	6
30535	-0.00022	-7e-05	-3e-05	1e-05	0.00022	-2e-05	-4e-05	-0.00042	6
30536	-0.00022	-7e-05	-3e-05	1e-05	0.00022	-2e-05	-4e-05	-0.00042	6
30538	-0.00022	-7e-05	-3e-05	1e-05	0.00022	-2e-05	-4e-05	-0.00042	6
30539	-0.00022	-7e-05	-3e-05	1e-05	0.00022	-2e-05	-4e-05	-0.00042	6
30540	-0.00022	-7e-05	-3e-05	1e-05	0.00022	-2e-05	-4e-05	-0.00042	6
30541	-0.00022	-7e-05	-3e-05	1e-05	0.00022	-2e-05	-4e-05	-0.00042	6
30542	0.00031	6e-05	3e-05	-1e-05	3e-05	0.00029	-0.0001	1e-05	6
30543	0.00031	6e-05	3e-05	-1e-05	3e-05	0.00029	-0.0001	1e-05	6
30544	0.00031	6e-05	3e-05	-1e-05	3e-05	0.00029	-0.0001	1e-05	6
30545	0.00031	6e-05	3e-05	-1e-05	3e-05	0.00029	-0.0001	1e-05	6
30546	0.00031	6e-05	3e-05	-1e-05	3e-05	0.00029	-0.0001	1e-05	6
30547	0.00031	6e-05	3e-05	-1e-05	3e-05	0.00029	-0.0001	1e-05	6
30548	0.00031	6e-05	3e-05	-1e-05	3e-05	0.00029	-0.0001	1e-05	6
30549	0.00031	6e-05	3e-05	-1e-05	3e-05	0.00029	-0.0001	1e-05	6
30550	0.00031	6e-05	3e-05	-1e-05	3e-05	0.00029	-0.0001	1e-05	6
30551	0.00031	6e-05	3e-05	-1e-05	3e-05	0.00029	-0.0001	1e-05	6
30552	0.00031	6e-05	3e-05	-1e-05	3e-05	0.00029	-0.0001	1e-05	6
30553	0.00031	6e-05	3e-05	-1e-05	3e-05	0.00029	-0.0001	1e-05	6
30554	0.00031	6e-05	3e-05	-1e-05	3e-05	0.00029	-0.0001	1e-05	6
30555	0.00031	6e-05	3e-05	-1e-05	3e-05	0.00029	-0.0001	1e-05	6
30556	0.00031	6e-05	3e-05	-1e-05	3e-05	0.00029	-0.0001	1e-05	6
30557	-0.00015	-4e-05	1e-05	-3e-05	-1e-05	-5e-05	-0.00012	0.00014	6
30558	-0.00015	-4e-05	1e-05	-3e-05	-1e-05	-5e-05	-0.00012	0.00014	6
30559	-0.00015	-4e-05	1e-05	-3e-05	-1e-05	-5e-05	-0.00012	0.00014	6
30560	-0.00015	-4e-05	1e-05	-3e-05	-1e-05	-5e-05	-0.00012	0.00014	6
30561	-0.00015	-4e-05	1e-05	-3e-05	-1e-05	-5e-05	-0.00012	0.00014	6
30562	-0.00015	-4e-05	1e-05	-3e-05	-1e-05	-5e-05	-0.00012	0.00014	6
30563	-0.00015	-4e-05	1e-05	-3e-05	-1e-05	-5e-05	-0.00012	0.00014	6
30564	-0.00015	-4e-05	1e-05	-3e-05	-1e-05	-5e-05	-0.00012	0.00014	6
30565	-0.00015	-4e-05	1e-05	-3e-05	-1e-05	-5e-05	-0.00012	0.00014	6
30566	-0.00015	-4e-05	1e-05	-3e-05	-1e-05	-5e-05	-0.00012	0.00014	6
30567	-0.00015	-4e-05	1e-05	-3e-05	-1e-05	-5e-05	-0.00012	0.00014	6
30568	-0.00015	-4e-05	1e-05	-3e-05	-1e-05	-5e-05	-0.00012	0.00014	6
30569	-0.00015	-4e-05	1e-05	-3e-05	-1e-05	-5e-05	-0.00012	0.00014	6
30570	-0.00015	-4e-05	1e-05	-3e-05	-1e-05	-5e-05	-0.00012	0.00014	6
30571	-0.00015	-4e-05	1e-05	-3e-05	-1e-05	-5e-05	-0.00012	0.00014	6
30572	-0.00015	-4e-05	1e-05	-3e-05	-1e-05	-5e-05	-0.00012	0.00014	6
30573	-0.00015	-4e-05	1e-05	-3e-05	-1e-05	-5e-05	-0.00012	0.00014	6
30574	-0.00015	-4e-05	1e-05	-3e-05	-1e-05	-5e-05	-0.00012	0.00014	6
30575	-0.00015	-4e-05	1e-05	-3e-05	-1e-05	-5e-05	-0.00012	0.00014	6
30576	-0.00015	-4e-05	1e-05	-3e-05	-1e-05	-5e-05	-0.00012	0.00014	6
30577	-0.00015	-4e-05	1e-05	-3e-05	-1e-05	-5e-05	-0.00012	0.00014	6
30578	-0.00015	-4e-05	1e-05	-3e-05	-1e-05	-5e-05	-0.00012	0.00014	6
30579	6e-05	5e-05	3e-05	-4e-05	-0.00014	-6e-05	2e-05	-0.00032	6
30580	0	5e-05	-1e-05	0.0001	-3e-05	-5e-05	1e-05	-0.00013	6
30581	0	5e-05	-1e-05	0.0001	-3e-05	-5e-05	1e-05	-0.00013	6
30582	0	5e-05	-1e-05	0.0001	-3e-05	-5e-05	1e-05	-0.00013	6
30583	0	5e-05	-1e-05	0.0001	-3e-05	-5e-05	1e-05	-0.00013	6
30584	0	5e-05	-1e-05	0.0001	-3e-05	-5e-05	1e-05	-0.00013	6
30585	0	5e-05	-1e-05	0.0001	-3e-05	-5e-05	1e-05	-0.00013	6
30586	0	5e-05	-1e-05	0.0001	-3e-05	-5e-05	1e-05	-0.00013	6
30588	0	5e-05	-1e-05	0.0001	-3e-05	-5e-05	1e-05	-0.00013	6
30589	0	5e-05	-1e-05	0.0001	-3e-05	-5e-05	1e-05	-0.00013	6
30590	0	5e-05	-1e-05	0.0001	-3e-05	-5e-05	1e-05	-0.00013	6
30591	0	5e-05	-1e-05	0.0001	-3e-05	-5e-05	1e-05	-0.00013	6
30592	0	5e-05	-1e-05	0.0001	-3e-05	-5e-05	1e-05	-0.00013	6
30593	0	5e-05	-1e-05	0.0001	-3e-05	-5e-05	1e-05	-0.00013	6
30594	-0.0001	0	0	-5e-05	0.00015	0.00013	0.00013	-0.00057	6
30595	-0.0001	0	0	-5e-05	0.00015	0.00013	0.00013	-0.00057	6
30596	-0.0001	0	0	-5e-05	0.00015	0.00013	0.00013	-0.00057	6
30597	-0.0001	0	0	-5e-05	0.00015	0.00013	0.00013	-0.00057	6
30598	-0.0001	0	0	-5e-05	0.00015	0.00013	0.00013	-0.00057	6
30599	-0.0001	0	0	-5e-05	0.00015	0.00013	0.00013	-0.00057	6
30600	-0.0001	0	0	-5e-05	0.00015	0.00013	0.00013	-0.00057	6
30601	-0.00021	-2e-05	-1e-05	-1e-05	-0.00021	-6e-05	-0.0001	-9e-05	6
30602	-0.00021	-2e-05	-1e-05	-1e-05	-0.00021	-6e-05	-0.0001	-9e-05	6
30603	-0.00021	-2e-05	-1e-05	-1e-05	-0.00021	-6e-05	-0.0001	-9e-05	6
30604	-0.00021	-2e-05	-1e-05	-1e-05	-0.00021	-6e-05	-0.0001	-9e-05	6
30605	-0.00021	-2e-05	-1e-05	-1e-05	-0.00021	-6e-05	-0.0001	-9e-05	6
30606	-0.00021	-2e-05	-1e-05	-1e-05	-0.00021	-6e-05	-0.0001	-9e-05	6
30607	-0.00021	-2e-05	-1e-05	-1e-05	-0.00021	-6e-05	-0.0001	-9e-05	6
30608	-0.00021	-2e-05	-1e-05	-1e-05	-0.00021	-6e-05	-0.0001	-9e-05	6
30609	-0.00021	-2e-05	-1e-05	-1e-05	-0.00021	-6e-05	-0.0001	-9e-05	6
30610	-0.00021	-2e-05	-1e-05	-1e-05	-0.00021	-6e-05	-0.0001	-9e-05	6
30611	-0.00021	-2e-05	-1e-05	-1e-05	-0.00021	-6e-05	-0.0001	-9e-05	6
30612	-0.00021	-2e-05	-1e-05	-1e-05	-0.00021	-6e-05	-0.0001	-9e-05	6
30613	-0.00021	-2e-05	-1e-05	-1e-05	-0.00021	-6e-05	-0.0001	-9e-05	6
30614	-0.00021	-2e-05	-1e-05	-1e-05	-0.00021	-6e-05	-0.0001	-9e-05	6
30615	-0.00021	-2e-05	-1e-05	-1e-05	-0.00021	-6e-05	-0.0001	-9e-05	6
30616	-0.00021	-2e-05	-1e-05	-1e-05	-0.00021	-6e-05	-0.0001	-9e-05	6
30617	-0.00011	-2e-05	2e-05	3e-05	9e-05	-8e-05	9e-05	-1e-05	6
30618	-0.00011	-2e-05	2e-05	3e-05	9e-05	-8e-05	9e-05	-1e-05	6
30619	-0.00011	-2e-05	2e-05	3e-05	9e-05	-8e-05	9e-05	-1e-05	6
30620	-0.00011	-2e-05	2e-05	3e-05	9e-05	-8e-05	9e-05	-1e-05	6
30621	-0.00011	-2e-05	2e-05	3e-05	9e-05	-8e-05	9e-05	-1e-05	6
30622	-0.00011	-2e-05	2e-05	3e-05	9e-05	-8e-05	9e-05	-1e-05	6
30623	-0.00011	-2e-05	2e-05	3e-05	9e-05	-8e-05	9e-05	-1e-05	6
30624	-0.00011	-2e-05	2e-05	3e-05	9e-05	-8e-05	9e-05	-1e-05	6
30625	-0.00011	-2e-05	2e-05	3e-05	9e-05	-8e-05	9e-05	-1e-05	6
30626	-0.00011	-2e-05	2e-05	3e-05	9e-05	-8e-05	9e-05	-1e-05	6
30627	-0.00011	-2e-05	2e-05	3e-05	9e-05	-8e-05	9e-05	-1e-05	6
30628	-0.00011	-2e-05	2e-05	3e-05	9e-05	-8e-05	9e-05	-1e-05	6
30629	-0.00011	-2e-05	2e-05	3e-05	9e-05	-8e-05	9e-05	-1e-05	6
30630	-0.00011	-2e-05	2e-05	3e-05	9e-05	-8e-05	9e-05	-1e-05	6
30631	-0.00011	-2e-05	2e-05	3e-05	9e-05	-8e-05	9e-05	-1e-05	6
30632	-0.00011	-2e-05	2e-05	3e-05	9e-05	-8e-05	9e-05	-1e-05	6
30633	-0.00011	-2e-05	2e-05	3e-05	9e-05	-8e-05	9e-05	-1e-05	6
30634	-0.00011	-2e-05	2e-05	3e-05	9e-05	-8e-05	9e-05	-1e-05	6
30635	-0.00011	-2e-05	2e-05	3e-05	9e-05	-8e-05	9e-05	-1e-05	6
30636	-0.00011	-2e-05	2e-05	3e-05	9e-05	-8e-05	9e-05	-1e-05	6
30638	-0.00011	-2e-05	2e-05	3e-05	9e-05	-8e-05	9e-05	-1e-05	6
30639	6e-05	1e-05	0	-4e-05	-3e-05	1e-05	3e-05	0.00013	6
30640	-0.00015	-6e-05	-5e-05	-4e-05	-0.00016	0	0	-1e-05	6
30641	-0.00015	-6e-05	-5e-05	-4e-05	-0.00016	0	0	-1e-05	6
30642	-0.00015	-6e-05	-5e-05	-4e-05	-0.00016	0	0	-1e-05	6
30643	-0.00015	-6e-05	-5e-05	-4e-05	-0.00016	0	0	-1e-05	6
30644	-0.00015	-6e-05	-5e-05	-4e-05	-0.00016	0	0	-1e-05	6
30645	-0.00015	-6e-05	-5e-05	-4e-05	-0.00016	0	0	-1e-05	6
30646	-0.00015	-6e-05	-5e-05	-4e-05	-0.00016	0	0	-1e-05	6
30647	-0.00015	-6e-05	-5e-05	-4e-05	-0.00016	0	0	-1e-05	6
30648	-0.00015	-6e-05	-5e-05	-4e-05	-0.00016	0	0	-1e-05	6
30649	-0.00015	-6e-05	-5e-05	-4e-05	-0.00016	0	0	-1e-05	6
30650	-0.00015	-6e-05	-5e-05	-4e-05	-0.00016	0	0	-1e-05	6
30651	-0.00015	-6e-05	-5e-05	-4e-05	-0.00016	0	0	-1e-05	6
30652	-0.00015	-6e-05	-5e-05	-4e-05	-0.00016	0	0	-1e-05	6
30653	0.00019	3e-05	0	5e-05	-4e-05	-3e-05	0.00018	0.00052	6
30654	0.00019	3e-05	0	5e-05	-4e-05	-3e-05	0.00018	0.00052	6
30655	0.00019	3e-05	0	5e-05	-4e-05	-3e-05	0.00018	0.00052	6
30656	0.00019	3e-05	0	5e-05	-4e-05	-3e-05	0.00018	0.00052	6
30657	0.00019	3e-05	0	5e-05	-4e-05	-3e-05	0.00018	0.00052	6
30658	0.00019	3e-05	0	5e-05	-4e-05	-3e-05	0.00018	0.00052	6
30659	0.00019	3e-05	0	5e-05	-4e-05	-3e-05	0.00018	0.00052	6
30660	0.00019	3e-05	0	5e-05	-4e-05	-3e-05	0.00018	0.00052	6
30661	0.00019	3e-05	0	5e-05	-4e-05	-3e-05	0.00018	0.00052	6
30662	0.00015	2e-05	-2e-05	-5e-05	-0.00028	9e-05	-2e-05	-7e-05	6
30663	0.00015	2e-05	-2e-05	-5e-05	-0.00028	9e-05	-2e-05	-7e-05	6
30664	0.00015	2e-05	-2e-05	-5e-05	-0.00028	9e-05	-2e-05	-7e-05	6
30665	0.00015	2e-05	-2e-05	-5e-05	-0.00028	9e-05	-2e-05	-7e-05	6
30666	0.00015	2e-05	-2e-05	-5e-05	-0.00028	9e-05	-2e-05	-7e-05	6
30667	0.00015	2e-05	-2e-05	-5e-05	-0.00028	9e-05	-2e-05	-7e-05	6
30668	0.00015	2e-05	-2e-05	-5e-05	-0.00028	9e-05	-2e-05	-7e-05	6
30669	0.00015	2e-05	-2e-05	-5e-05	-0.00028	9e-05	-2e-05	-7e-05	6
30670	0.00015	2e-05	-2e-05	-5e-05	-0.00028	9e-05	-2e-05	-7e-05	6
30671	0.00015	2e-05	-2e-05	-5e-05	-0.00028	9e-05	-2e-05	-7e-05	6
30672	0.00015	2e-05	-2e-05	-5e-05	-0.00028	9e-05	-2e-05	-7e-05	6
30673	0.00015	2e-05	-2e-05	-5e-05	-0.00028	9e-05	-2e-05	-7e-05	6
30674	0.00015	2e-05	-2e-05	-5e-05	-0.00028	9e-05	-2e-05	-7e-05	6
30675	0.00015	2e-05	-2e-05	-5e-05	-0.00028	9e-05	-2e-05	-7e-05	6
30676	0.00015	2e-05	-2e-05	-5e-05	-0.00028	9e-05	-2e-05	-7e-05	6
30677	0.00011	-7e-05	-0.00013	-0.00012	-0.0003	2e-05	-0.00012	0.00088	6
30678	-0.00012	-2e-05	-2e-05	-4e-05	3e-05	-7e-05	0	-8e-05	6
30679	-0.00012	-2e-05	-2e-05	-4e-05	3e-05	-7e-05	0	-8e-05	6
30680	-0.00012	-2e-05	-2e-05	-4e-05	3e-05	-7e-05	0	-8e-05	6
30681	-0.00012	-2e-05	-2e-05	-4e-05	3e-05	-7e-05	0	-8e-05	6
30682	-0.00012	-2e-05	-2e-05	-4e-05	3e-05	-7e-05	0	-8e-05	6
30683	-0.00012	-2e-05	-2e-05	-4e-05	3e-05	-7e-05	0	-8e-05	6
30684	-0.00012	-2e-05	-2e-05	-4e-05	3e-05	-7e-05	0	-8e-05	6
30685	-0.00012	-2e-05	-2e-05	-4e-05	3e-05	-7e-05	0	-8e-05	6
30686	-0.00012	-2e-05	-2e-05	-4e-05	3e-05	-7e-05	0	-8e-05	6
30688	-0.00012	-2e-05	-2e-05	-4e-05	3e-05	-7e-05	0	-8e-05	6
30689	-0.00012	-2e-05	-2e-05	-4e-05	3e-05	-7e-05	0	-8e-05	6
30690	-0.00012	-2e-05	-2e-05	-4e-05	3e-05	-7e-05	0	-8e-05	6
30691	-0.00012	-2e-05	-2e-05	-4e-05	3e-05	-7e-05	0	-8e-05	6
30692	-0.00012	-2e-05	-2e-05	-4e-05	3e-05	-7e-05	0	-8e-05	6
30693	-0.00012	-2e-05	-2e-05	-4e-05	3e-05	-7e-05	0	-8e-05	6
30694	-0.00012	-2e-05	-2e-05	-4e-05	3e-05	-7e-05	0	-8e-05	6
30695	-0.00012	-2e-05	-2e-05	-4e-05	3e-05	-7e-05	0	-8e-05	6
30696	-0.00012	-2e-05	-2e-05	-4e-05	3e-05	-7e-05	0	-8e-05	6
30697	-0.00012	-2e-05	-2e-05	-4e-05	3e-05	-7e-05	0	-8e-05	6
30698	-0.00012	-2e-05	-2e-05	-4e-05	3e-05	-7e-05	0	-8e-05	6
30699	0.00017	3e-05	0	0	-4e-05	2e-05	-9e-05	-0.00028	6
30700	-3e-05	-2e-05	-2e-05	-6e-05	-3e-05	0.0001	-3e-05	2e-05	6
30701	-3e-05	-2e-05	-2e-05	-6e-05	-3e-05	0.0001	-3e-05	2e-05	6
30702	-3e-05	-2e-05	-2e-05	-6e-05	-3e-05	0.0001	-3e-05	2e-05	6
30703	-3e-05	-2e-05	-2e-05	-6e-05	-3e-05	0.0001	-3e-05	2e-05	6
30704	-3e-05	-2e-05	-2e-05	-6e-05	-3e-05	0.0001	-3e-05	2e-05	6
30705	-3e-05	-2e-05	-2e-05	-6e-05	-3e-05	0.0001	-3e-05	2e-05	6
30706	-3e-05	-2e-05	-2e-05	-6e-05	-3e-05	0.0001	-3e-05	2e-05	6
30707	-3e-05	-2e-05	-2e-05	-6e-05	-3e-05	0.0001	-3e-05	2e-05	6
30708	-3e-05	-2e-05	-2e-05	-6e-05	-3e-05	0.0001	-3e-05	2e-05	6
30709	-3e-05	-2e-05	-2e-05	-6e-05	-3e-05	0.0001	-3e-05	2e-05	6
30710	-3e-05	-2e-05	-2e-05	-6e-05	-3e-05	0.0001	-3e-05	2e-05	6
30711	-3e-05	-2e-05	-2e-05	-6e-05	-3e-05	0.0001	-3e-05	2e-05	6
30712	-3e-05	-2e-05	-2e-05	-6e-05	-3e-05	0.0001	-3e-05	2e-05	6
30713	-7e-05	1e-05	4e-05	3e-05	2e-05	-9e-05	0.0002	-0.0003	6
30714	-7e-05	1e-05	4e-05	3e-05	2e-05	-9e-05	0.0002	-0.0003	6
30715	-7e-05	1e-05	4e-05	3e-05	2e-05	-9e-05	0.0002	-0.0003	6
30716	-7e-05	1e-05	4e-05	3e-05	2e-05	-9e-05	0.0002	-0.0003	6
30717	-7e-05	1e-05	4e-05	3e-05	2e-05	-9e-05	0.0002	-0.0003	6
30718	-7e-05	1e-05	4e-05	3e-05	2e-05	-9e-05	0.0002	-0.0003	6
30719	-7e-05	1e-05	4e-05	3e-05	2e-05	-9e-05	0.0002	-0.0003	6
30720	-7e-05	1e-05	4e-05	3e-05	2e-05	-9e-05	0.0002	-0.0003	6
30721	-6e-05	-2e-05	-3e-05	-3e-05	1e-05	6e-05	-4e-05	0	6
30722	1e-05	-2e-05	-1e-05	0	-1e-05	-5e-05	2e-05	-4e-05	6
30723	1e-05	-2e-05	-1e-05	0	-1e-05	-5e-05	2e-05	-4e-05	6
30724	1e-05	-2e-05	-1e-05	0	-1e-05	-5e-05	2e-05	-4e-05	6
30725	1e-05	-2e-05	-1e-05	0	-1e-05	-5e-05	2e-05	-4e-05	6
30726	1e-05	-2e-05	-1e-05	0	-1e-05	-5e-05	2e-05	-4e-05	6
30727	1e-05	-2e-05	-1e-05	0	-1e-05	-5e-05	2e-05	-4e-05	6
30728	1e-05	-2e-05	-1e-05	0	-1e-05	-5e-05	2e-05	-4e-05	6
30729	1e-05	-2e-05	-1e-05	0	-1e-05	-5e-05	2e-05	-4e-05	6
30730	1e-05	-2e-05	-1e-05	0	-1e-05	-5e-05	2e-05	-4e-05	6
30731	1e-05	-2e-05	-1e-05	0	-1e-05	-5e-05	2e-05	-4e-05	6
30732	1e-05	-2e-05	-1e-05	0	-1e-05	-5e-05	2e-05	-4e-05	6
30733	1e-05	-2e-05	-1e-05	0	-1e-05	-5e-05	2e-05	-4e-05	6
30734	1e-05	-2e-05	-1e-05	0	-1e-05	-5e-05	2e-05	-4e-05	6
30735	1e-05	-2e-05	-1e-05	0	-1e-05	-5e-05	2e-05	-4e-05	6
30736	1e-05	-2e-05	-1e-05	0	-1e-05	-5e-05	2e-05	-4e-05	6
30738	9e-05	4e-05	0	-3e-05	-0.00016	-0.00017	-3e-05	0.00034	6
30739	9e-05	4e-05	0	-3e-05	-0.00016	-0.00017	-3e-05	0.00034	6
30740	9e-05	4e-05	0	-3e-05	-0.00016	-0.00017	-3e-05	0.00034	6
30741	9e-05	4e-05	0	-3e-05	-0.00016	-0.00017	-3e-05	0.00034	6
30742	9e-05	4e-05	0	-3e-05	-0.00016	-0.00017	-3e-05	0.00034	6
30743	9e-05	4e-05	0	-3e-05	-0.00016	-0.00017	-3e-05	0.00034	6
30744	9e-05	4e-05	0	-3e-05	-0.00016	-0.00017	-3e-05	0.00034	6
30745	9e-05	4e-05	0	-3e-05	-0.00016	-0.00017	-3e-05	0.00034	6
30746	9e-05	4e-05	0	-3e-05	-0.00016	-0.00017	-3e-05	0.00034	6
30747	9e-05	4e-05	0	-3e-05	-0.00016	-0.00017	-3e-05	0.00034	6
30748	9e-05	4e-05	0	-3e-05	-0.00016	-0.00017	-3e-05	0.00034	6
30749	9e-05	4e-05	0	-3e-05	-0.00016	-0.00017	-3e-05	0.00034	6
30750	9e-05	4e-05	0	-3e-05	-0.00016	-0.00017	-3e-05	0.00034	6
30751	9e-05	4e-05	0	-3e-05	-0.00016	-0.00017	-3e-05	0.00034	6
30752	9e-05	4e-05	0	-3e-05	-0.00016	-0.00017	-3e-05	0.00034	6
30753	9e-05	4e-05	0	-3e-05	-0.00016	-0.00017	-3e-05	0.00034	6
30754	9e-05	4e-05	0	-3e-05	-0.00016	-0.00017	-3e-05	0.00034	6
30755	9e-05	4e-05	0	-3e-05	-0.00016	-0.00017	-3e-05	0.00034	6
30756	9e-05	4e-05	0	-3e-05	-0.00016	-0.00017	-3e-05	0.00034	6
30757	9e-05	4e-05	0	-3e-05	-0.00016	-0.00017	-3e-05	0.00034	6
30758	9e-05	4e-05	0	-3e-05	-0.00016	-0.00017	-3e-05	0.00034	6
30759	9e-05	4e-05	0	-3e-05	-0.00016	-0.00017	-3e-05	0.00034	6
30760	9e-05	4e-05	0	-3e-05	-0.00016	-0.00017	-3e-05	0.00034	6
30761	-0.00011	-3e-05	-1e-05	-1e-05	0.00012	4e-05	9e-05	-0.00048	6
30762	-0.00011	-3e-05	-1e-05	-1e-05	0.00012	4e-05	9e-05	-0.00048	6
30763	-0.00011	-3e-05	-1e-05	-1e-05	0.00012	4e-05	9e-05	-0.00048	6
30764	-0.00011	-3e-05	-1e-05	-1e-05	0.00012	4e-05	9e-05	-0.00048	6
30765	-0.00011	-3e-05	-1e-05	-1e-05	0.00012	4e-05	9e-05	-0.00048	6
30766	-0.00011	-3e-05	-1e-05	-1e-05	0.00012	4e-05	9e-05	-0.00048	6
30767	-0.00011	-3e-05	-1e-05	-1e-05	0.00012	4e-05	9e-05	-0.00048	6
30768	-0.00011	-3e-05	-1e-05	-1e-05	0.00012	4e-05	9e-05	-0.00048	6
30769	-0.00011	-3e-05	-1e-05	-1e-05	0.00012	4e-05	9e-05	-0.00048	6
30770	-0.00011	-3e-05	-1e-05	-1e-05	0.00012	4e-05	9e-05	-0.00048	6
30771	-0.00011	-3e-05	-1e-05	-1e-05	0.00012	4e-05	9e-05	-0.00048	6
30772	-0.00011	-3e-05	-1e-05	-1e-05	0.00012	4e-05	9e-05	-0.00048	6
30773	4e-05	-3e-05	-0.0001	-2e-05	-1e-05	-6e-05	-0.00017	-0.00018	6
30774	4e-05	-3e-05	-0.0001	-2e-05	-1e-05	-6e-05	-0.00017	-0.00018	6
30775	4e-05	-3e-05	-0.0001	-2e-05	-1e-05	-6e-05	-0.00017	-0.00018	6
30776	4e-05	-3e-05	-0.0001	-2e-05	-1e-05	-6e-05	-0.00017	-0.00018	6
30777	4e-05	-3e-05	-0.0001	-2e-05	-1e-05	-6e-05	-0.00017	-0.00018	6
30778	4e-05	-3e-05	-0.0001	-2e-05	-1e-05	-6e-05	-0.00017	-0.00018	6
30779	4e-05	-3e-05	-0.0001	-2e-05	-1e-05	-6e-05	-0.00017	-0.00018	6
30780	4e-05	-3e-05	-0.0001	-2e-05	-1e-05	-6e-05	-0.00017	-0.00018	6
30781	-4e-05	-5e-05	0	3e-05	9e-05	-8e-05	7e-05	4e-05	6
30782	-9e-05	-1e-05	0	-5e-05	-0.00014	1e-05	-9e-05	6e-05	6
30783	-9e-05	-1e-05	0	-5e-05	-0.00014	1e-05	-9e-05	6e-05	6
30784	-9e-05	-1e-05	0	-5e-05	-0.00014	1e-05	-9e-05	6e-05	6
30785	-9e-05	-1e-05	0	-5e-05	-0.00014	1e-05	-9e-05	6e-05	6
30786	-9e-05	-1e-05	0	-5e-05	-0.00014	1e-05	-9e-05	6e-05	6
30788	-9e-05	-1e-05	0	-5e-05	-0.00014	1e-05	-9e-05	6e-05	6
30789	-9e-05	-1e-05	0	-5e-05	-0.00014	1e-05	-9e-05	6e-05	6
30790	-9e-05	-1e-05	0	-5e-05	-0.00014	1e-05	-9e-05	6e-05	6
30791	-9e-05	-1e-05	0	-5e-05	-0.00014	1e-05	-9e-05	6e-05	6
30792	-9e-05	-1e-05	0	-5e-05	-0.00014	1e-05	-9e-05	6e-05	6
30793	-9e-05	-1e-05	0	-5e-05	-0.00014	1e-05	-9e-05	6e-05	6
30794	-9e-05	-1e-05	0	-5e-05	-0.00014	1e-05	-9e-05	6e-05	6
30795	-9e-05	-1e-05	0	-5e-05	-0.00014	1e-05	-9e-05	6e-05	6
30796	0.00025	4e-05	1e-05	-6e-05	-5e-05	-7e-05	-0.00011	-0.00053	6
30797	-0.00015	-4e-05	-1e-05	-5e-05	-0.00012	3e-05	0	0.00022	6
30798	-0.00012	-6e-05	-4e-05	-2e-05	-8e-05	-0.00018	5e-05	0.00025	6
30799	-0.00012	-6e-05	-4e-05	-2e-05	-8e-05	-0.00018	5e-05	0.00025	6
30800	-0.00012	-6e-05	-4e-05	-2e-05	-8e-05	-0.00018	5e-05	0.00025	6
30801	-0.00012	-6e-05	-4e-05	-2e-05	-8e-05	-0.00018	5e-05	0.00025	6
30802	-0.00012	-6e-05	-4e-05	-2e-05	-8e-05	-0.00018	5e-05	0.00025	6
30803	-0.00012	-6e-05	-4e-05	-2e-05	-8e-05	-0.00018	5e-05	0.00025	6
30804	-0.00012	-6e-05	-4e-05	-2e-05	-8e-05	-0.00018	5e-05	0.00025	6
30805	-0.00012	-6e-05	-4e-05	-2e-05	-8e-05	-0.00018	5e-05	0.00025	6
30806	-0.00012	-6e-05	-4e-05	-2e-05	-8e-05	-0.00018	5e-05	0.00025	6
30807	-0.00012	-6e-05	-4e-05	-2e-05	-8e-05	-0.00018	5e-05	0.00025	6
30808	-0.00012	-6e-05	-4e-05	-2e-05	-8e-05	-0.00018	5e-05	0.00025	6
30809	-0.00012	-6e-05	-4e-05	-2e-05	-8e-05	-0.00018	5e-05	0.00025	6
30810	-0.00012	-6e-05	-4e-05	-2e-05	-8e-05	-0.00018	5e-05	0.00025	6
30811	-0.00012	-6e-05	-4e-05	-2e-05	-8e-05	-0.00018	5e-05	0.00025	6
30812	-0.00012	-6e-05	-4e-05	-2e-05	-8e-05	-0.00018	5e-05	0.00025	6
30813	-0.00012	-6e-05	-4e-05	-2e-05	-8e-05	-0.00018	5e-05	0.00025	6
30814	-0.00012	-6e-05	-4e-05	-2e-05	-8e-05	-0.00018	5e-05	0.00025	6
30815	-0.00012	-6e-05	-4e-05	-2e-05	-8e-05	-0.00018	5e-05	0.00025	6
30816	-0.00012	-6e-05	-4e-05	-2e-05	-8e-05	-0.00018	5e-05	0.00025	6
30817	-0.00012	-6e-05	-4e-05	-2e-05	-8e-05	-0.00018	5e-05	0.00025	6
30818	-0.00012	-6e-05	-4e-05	-2e-05	-8e-05	-0.00018	5e-05	0.00025	6
30819	-0.00012	-6e-05	-4e-05	-2e-05	-8e-05	-0.00018	5e-05	0.00025	6
30820	1e-05	0	-1e-05	2e-05	7e-05	-3e-05	0	-9e-05	6
30821	1e-05	0	-1e-05	2e-05	7e-05	-3e-05	0	-9e-05	6
30822	1e-05	0	-1e-05	2e-05	7e-05	-3e-05	0	-9e-05	6
30823	1e-05	0	-1e-05	2e-05	7e-05	-3e-05	0	-9e-05	6
30824	1e-05	0	-1e-05	2e-05	7e-05	-3e-05	0	-9e-05	6
30825	1e-05	0	-1e-05	2e-05	7e-05	-3e-05	0	-9e-05	6
30826	1e-05	0	-1e-05	2e-05	7e-05	-3e-05	0	-9e-05	6
30827	1e-05	0	-1e-05	2e-05	7e-05	-3e-05	0	-9e-05	6
30828	1e-05	0	-1e-05	2e-05	7e-05	-3e-05	0	-9e-05	6
30829	1e-05	0	-1e-05	2e-05	7e-05	-3e-05	0	-9e-05	6
30830	1e-05	0	-1e-05	2e-05	7e-05	-3e-05	0	-9e-05	6
30831	1e-05	0	-1e-05	2e-05	7e-05	-3e-05	0	-9e-05	6
30832	1e-05	0	-1e-05	2e-05	7e-05	-3e-05	0	-9e-05	6
30833	3e-05	-1e-05	-1e-05	2e-05	-0.00012	-0.00011	-8e-05	-5e-05	6
30834	3e-05	-1e-05	-1e-05	2e-05	-0.00012	-0.00011	-8e-05	-5e-05	6
30835	3e-05	-1e-05	-1e-05	2e-05	-0.00012	-0.00011	-8e-05	-5e-05	6
30836	3e-05	-1e-05	-1e-05	2e-05	-0.00012	-0.00011	-8e-05	-5e-05	6
30838	3e-05	-1e-05	-1e-05	2e-05	-0.00012	-0.00011	-8e-05	-5e-05	6
30839	3e-05	-1e-05	-1e-05	2e-05	-0.00012	-0.00011	-8e-05	-5e-05	6
30840	3e-05	-1e-05	-1e-05	2e-05	-0.00012	-0.00011	-8e-05	-5e-05	6
30841	3e-05	-1e-05	-1e-05	2e-05	-0.00012	-0.00011	-8e-05	-5e-05	6
30842	-6e-05	-3e-05	-2e-05	-1e-05	0.00017	9e-05	0.00025	0.00045	6
30843	-6e-05	-3e-05	-2e-05	-1e-05	0.00017	9e-05	0.00025	0.00045	6
30845	-6e-05	-3e-05	-2e-05	-1e-05	0.00017	9e-05	0.00025	0.00045	6
30846	-6e-05	-3e-05	-2e-05	-1e-05	0.00017	9e-05	0.00025	0.00045	6
30847	-6e-05	-3e-05	-2e-05	-1e-05	0.00017	9e-05	0.00025	0.00045	6
30848	-6e-05	-3e-05	-2e-05	-1e-05	0.00017	9e-05	0.00025	0.00045	6
30849	-6e-05	-3e-05	-2e-05	-1e-05	0.00017	9e-05	0.00025	0.00045	6
30850	-6e-05	-3e-05	-2e-05	-1e-05	0.00017	9e-05	0.00025	0.00045	6
30851	-6e-05	-3e-05	-2e-05	-1e-05	0.00017	9e-05	0.00025	0.00045	6
30852	-6e-05	-3e-05	-2e-05	-1e-05	0.00017	9e-05	0.00025	0.00045	6
30853	-6e-05	-3e-05	-2e-05	-1e-05	0.00017	9e-05	0.00025	0.00045	6
30854	-6e-05	-3e-05	-2e-05	-1e-05	0.00017	9e-05	0.00025	0.00045	6
30855	-6e-05	-3e-05	-2e-05	-1e-05	0.00017	9e-05	0.00025	0.00045	6
30856	-6e-05	-3e-05	-2e-05	-1e-05	0.00017	9e-05	0.00025	0.00045	6
30857	0.00014	5e-05	2e-05	1e-05	5e-05	-4e-05	-3e-05	-0.00011	6
30858	0.00034	2e-05	0	3e-05	1e-05	-1e-05	-5e-05	-1e-05	6
30859	0.00034	2e-05	0	3e-05	1e-05	-1e-05	-5e-05	-1e-05	6
30860	0.00034	2e-05	0	3e-05	1e-05	-1e-05	-5e-05	-1e-05	6
30861	0.00034	2e-05	0	3e-05	1e-05	-1e-05	-5e-05	-1e-05	6
30862	0.00034	2e-05	0	3e-05	1e-05	-1e-05	-5e-05	-1e-05	6
30863	0.00034	2e-05	0	3e-05	1e-05	-1e-05	-5e-05	-1e-05	6
30864	0.00034	2e-05	0	3e-05	1e-05	-1e-05	-5e-05	-1e-05	6
30865	0.00034	2e-05	0	3e-05	1e-05	-1e-05	-5e-05	-1e-05	6
30866	0.00034	2e-05	0	3e-05	1e-05	-1e-05	-5e-05	-1e-05	6
30867	0.00034	2e-05	0	3e-05	1e-05	-1e-05	-5e-05	-1e-05	6
30868	0.00034	2e-05	0	3e-05	1e-05	-1e-05	-5e-05	-1e-05	6
30869	0.00034	2e-05	0	3e-05	1e-05	-1e-05	-5e-05	-1e-05	6
30870	0.00034	2e-05	0	3e-05	1e-05	-1e-05	-5e-05	-1e-05	6
30871	0.00034	2e-05	0	3e-05	1e-05	-1e-05	-5e-05	-1e-05	6
30872	0.00034	2e-05	0	3e-05	1e-05	-1e-05	-5e-05	-1e-05	6
30873	0.00034	2e-05	0	3e-05	1e-05	-1e-05	-5e-05	-1e-05	6
30874	0.00034	2e-05	0	3e-05	1e-05	-1e-05	-5e-05	-1e-05	6
30875	0.00034	2e-05	0	3e-05	1e-05	-1e-05	-5e-05	-1e-05	6
30876	0.00034	2e-05	0	3e-05	1e-05	-1e-05	-5e-05	-1e-05	6
30877	0.00034	2e-05	0	3e-05	1e-05	-1e-05	-5e-05	-1e-05	6
30878	0.00034	2e-05	0	3e-05	1e-05	-1e-05	-5e-05	-1e-05	6
30879	0.00034	2e-05	0	3e-05	1e-05	-1e-05	-5e-05	-1e-05	6
30880	-2e-05	-4e-05	-2e-05	-1e-05	5e-05	3e-05	-9e-05	-8e-05	6
30881	-2e-05	-4e-05	-2e-05	-1e-05	5e-05	3e-05	-9e-05	-8e-05	6
30882	-2e-05	-4e-05	-2e-05	-1e-05	5e-05	3e-05	-9e-05	-8e-05	6
30883	-2e-05	-4e-05	-2e-05	-1e-05	5e-05	3e-05	-9e-05	-8e-05	6
30884	-2e-05	-4e-05	-2e-05	-1e-05	5e-05	3e-05	-9e-05	-8e-05	6
30885	-2e-05	-4e-05	-2e-05	-1e-05	5e-05	3e-05	-9e-05	-8e-05	6
30886	-2e-05	-4e-05	-2e-05	-1e-05	5e-05	3e-05	-9e-05	-8e-05	6
30888	-2e-05	-4e-05	-2e-05	-1e-05	5e-05	3e-05	-9e-05	-8e-05	6
30889	-2e-05	-4e-05	-2e-05	-1e-05	5e-05	3e-05	-9e-05	-8e-05	6
30890	-2e-05	-4e-05	-2e-05	-1e-05	5e-05	3e-05	-9e-05	-8e-05	6
30891	-2e-05	-4e-05	-2e-05	-1e-05	5e-05	3e-05	-9e-05	-8e-05	6
30892	-2e-05	-4e-05	-2e-05	-1e-05	5e-05	3e-05	-9e-05	-8e-05	6
30893	-2e-05	-4e-05	-2e-05	-1e-05	5e-05	3e-05	-9e-05	-8e-05	6
30894	-2e-05	-4e-05	-2e-05	-1e-05	5e-05	3e-05	-9e-05	-8e-05	6
30895	-2e-05	-4e-05	-2e-05	-1e-05	5e-05	3e-05	-9e-05	-8e-05	6
30896	-2e-05	-4e-05	-2e-05	-1e-05	5e-05	3e-05	-9e-05	-8e-05	6
30897	-2e-05	-4e-05	-2e-05	-1e-05	5e-05	3e-05	-9e-05	-8e-05	6
30898	-2e-05	-4e-05	-2e-05	-1e-05	5e-05	3e-05	-9e-05	-8e-05	6
30899	-2e-05	-4e-05	-2e-05	-1e-05	5e-05	3e-05	-9e-05	-8e-05	6
30900	-2e-05	-4e-05	-2e-05	-1e-05	5e-05	3e-05	-9e-05	-8e-05	6
30901	-2e-05	-4e-05	-2e-05	-1e-05	5e-05	3e-05	-9e-05	-8e-05	6
30902	-5e-05	-1e-05	1e-05	-4e-05	-0.0001	1e-05	2e-05	0	6
60830	-5e-05	-1e-05	-2e-05	-3e-05	-0.00033	3e-05	-0.00024	-5e-05	6
60832	-5e-05	-1e-05	-2e-05	-3e-05	-0.00033	3e-05	-0.00024	-5e-05	6
60833	-0.00011	-6e-05	-4e-05	-6e-05	8e-05	0.00017	-3e-05	-0.00032	6
60834	-0.00011	-6e-05	-4e-05	-6e-05	8e-05	0.00017	-3e-05	-0.00032	6
60835	-0.00011	-6e-05	-4e-05	-6e-05	8e-05	0.00017	-3e-05	-0.00032	6
60836	-0.00011	-6e-05	-4e-05	-6e-05	8e-05	0.00017	-3e-05	-0.00032	6
60838	-0.00011	-6e-05	-4e-05	-6e-05	8e-05	0.00017	-3e-05	-0.00032	6
60839	-0.00011	-6e-05	-4e-05	-6e-05	8e-05	0.00017	-3e-05	-0.00032	6
60840	-0.00011	-6e-05	-4e-05	-6e-05	8e-05	0.00017	-3e-05	-0.00032	6
60841	-0.00011	-6e-05	-4e-05	-6e-05	8e-05	0.00017	-3e-05	-0.00032	6
60842	-0.00011	-6e-05	-4e-05	-6e-05	8e-05	0.00017	-3e-05	-0.00032	6
60843	7e-05	-1e-05	0	-2e-05	0	0.00048	0.00011	0.00021	6
60844	7e-05	-1e-05	0	-2e-05	0	0.00048	0.00011	0.00021	6
60845	7e-05	-1e-05	0	-2e-05	0	0.00048	0.00011	0.00021	6
60846	7e-05	-1e-05	0	-2e-05	0	0.00048	0.00011	0.00021	6
60847	7e-05	-1e-05	0	-2e-05	0	0.00048	0.00011	0.00021	6
60848	7e-05	-1e-05	0	-2e-05	0	0.00048	0.00011	0.00021	6
60849	7e-05	-1e-05	0	-2e-05	0	0.00048	0.00011	0.00021	6
60850	7e-05	-1e-05	0	-2e-05	0	0.00048	0.00011	0.00021	6
60851	7e-05	-1e-05	0	-2e-05	0	0.00048	0.00011	0.00021	6
60852	7e-05	-1e-05	0	-2e-05	0	0.00048	0.00011	0.00021	6
60853	7e-05	-1e-05	0	-2e-05	0	0.00048	0.00011	0.00021	6
60854	7e-05	-1e-05	0	-2e-05	0	0.00048	0.00011	0.00021	6
60855	7e-05	-1e-05	0	-2e-05	0	0.00048	0.00011	0.00021	6
60856	7e-05	-1e-05	0	-2e-05	0	0.00048	0.00011	0.00021	6
60857	-8e-05	-5e-05	-4e-05	-6e-05	-0.0002	-1e-05	-0.00025	-0.00032	6
60858	-8e-05	-5e-05	-4e-05	-6e-05	-0.0002	-1e-05	-0.00025	-0.00032	6
60859	-0.00011	0	1e-05	-1e-05	3e-05	0.00019	-4e-05	-0.00026	6
60860	-0.00011	0	1e-05	-1e-05	3e-05	0.00019	-4e-05	-0.00026	6
60861	-0.00011	0	1e-05	-1e-05	3e-05	0.00019	-4e-05	-0.00026	6
60862	-0.00011	0	1e-05	-1e-05	3e-05	0.00019	-4e-05	-0.00026	6
60863	-0.00011	0	1e-05	-1e-05	3e-05	0.00019	-4e-05	-0.00026	6
60864	-0.00011	0	1e-05	-1e-05	3e-05	0.00019	-4e-05	-0.00026	6
60865	-0.00011	0	1e-05	-1e-05	3e-05	0.00019	-4e-05	-0.00026	6
60866	-0.00011	0	1e-05	-1e-05	3e-05	0.00019	-4e-05	-0.00026	6
60867	-0.00011	0	1e-05	-1e-05	3e-05	0.00019	-4e-05	-0.00026	6
60868	-0.00011	0	1e-05	-1e-05	3e-05	0.00019	-4e-05	-0.00026	6
60869	-0.00011	0	1e-05	-1e-05	3e-05	0.00019	-4e-05	-0.00026	6
60870	-0.00011	0	1e-05	-1e-05	3e-05	0.00019	-4e-05	-0.00026	6
60871	-0.00011	0	1e-05	-1e-05	3e-05	0.00019	-4e-05	-0.00026	6
60872	-0.00011	0	1e-05	-1e-05	3e-05	0.00019	-4e-05	-0.00026	6
60873	-0.00011	0	1e-05	-1e-05	3e-05	0.00019	-4e-05	-0.00026	6
60874	-0.00011	0	1e-05	-1e-05	3e-05	0.00019	-4e-05	-0.00026	6
60875	-0.00011	0	1e-05	-1e-05	3e-05	0.00019	-4e-05	-0.00026	6
60876	-0.00011	0	1e-05	-1e-05	3e-05	0.00019	-4e-05	-0.00026	6
60877	-0.00011	0	1e-05	-1e-05	3e-05	0.00019	-4e-05	-0.00026	6
60878	-0.00011	0	1e-05	-1e-05	3e-05	0.00019	-4e-05	-0.00026	6
60879	0	0	0	-8e-05	-0.00024	0.00021	0.00016	0.0002	6
60880	0	0	0	-8e-05	-0.00024	0.00021	0.00016	0.0002	6
60881	-0.00011	-3e-05	-5e-05	-5e-05	-0.00031	-0.00067	-0.00014	-4e-05	6
60882	-0.00011	-3e-05	-5e-05	-5e-05	-0.00031	-0.00067	-0.00014	-4e-05	6
60883	-0.00011	-3e-05	-5e-05	-5e-05	-0.00031	-0.00067	-0.00014	-4e-05	6
60884	-0.00011	-3e-05	-5e-05	-5e-05	-0.00031	-0.00067	-0.00014	-4e-05	6
60885	-0.00011	-3e-05	-5e-05	-5e-05	-0.00031	-0.00067	-0.00014	-4e-05	6
60886	-0.00011	-3e-05	-5e-05	-5e-05	-0.00031	-0.00067	-0.00014	-4e-05	6
60888	-0.00011	-3e-05	-5e-05	-5e-05	-0.00031	-0.00067	-0.00014	-4e-05	6
60889	-0.00011	-3e-05	-5e-05	-5e-05	-0.00031	-0.00067	-0.00014	-4e-05	6
60890	-0.00011	-3e-05	-5e-05	-5e-05	-0.00031	-0.00067	-0.00014	-4e-05	6
60891	-0.00011	-3e-05	-5e-05	-5e-05	-0.00031	-0.00067	-0.00014	-4e-05	6
60892	-0.00011	-3e-05	-5e-05	-5e-05	-0.00031	-0.00067	-0.00014	-4e-05	6
60893	0.00016	2e-05	3e-05	0	-0.00019	0.00031	0.00017	0.00126	6
60894	0.00016	2e-05	3e-05	0	-0.00019	0.00031	0.00017	0.00126	6
60895	0.00016	2e-05	3e-05	0	-0.00019	0.00031	0.00017	0.00126	6
60896	0.00016	2e-05	3e-05	0	-0.00019	0.00031	0.00017	0.00126	6
60897	0.00016	2e-05	3e-05	0	-0.00019	0.00031	0.00017	0.00126	6
60898	0.00016	2e-05	3e-05	0	-0.00019	0.00031	0.00017	0.00126	6
60899	0.00016	2e-05	3e-05	0	-0.00019	0.00031	0.00017	0.00126	6
60900	0.00016	2e-05	3e-05	0	-0.00019	0.00031	0.00017	0.00126	6
60901	0.00016	2e-05	3e-05	0	-0.00019	0.00031	0.00017	0.00126	6
60902	-1e-05	-2e-05	-3e-05	-2e-05	-0.00017	-0.00074	-0.00024	0.00047	6
60903	-1e-05	-2e-05	-3e-05	-2e-05	-0.00017	-0.00074	-0.00024	0.00047	6
60904	-1e-05	-2e-05	-3e-05	-2e-05	-0.00017	-0.00074	-0.00024	0.00047	6
60905	-1e-05	-2e-05	-3e-05	-2e-05	-0.00017	-0.00074	-0.00024	0.00047	6
60906	-1e-05	-2e-05	-3e-05	-2e-05	-0.00017	-0.00074	-0.00024	0.00047	6
60907	-1e-05	-2e-05	-3e-05	-2e-05	-0.00017	-0.00074	-0.00024	0.00047	6
60908	-1e-05	-2e-05	-3e-05	-2e-05	-0.00017	-0.00074	-0.00024	0.00047	6
60909	-1e-05	-2e-05	-3e-05	-2e-05	-0.00017	-0.00074	-0.00024	0.00047	6
60910	-1e-05	-2e-05	-3e-05	-2e-05	-0.00017	-0.00074	-0.00024	0.00047	6
60911	-1e-05	-2e-05	-3e-05	-2e-05	-0.00017	-0.00074	-0.00024	0.00047	6
60912	-1e-05	-2e-05	-3e-05	-2e-05	-0.00017	-0.00074	-0.00024	0.00047	6
60913	-1e-05	-2e-05	-3e-05	-2e-05	-0.00017	-0.00074	-0.00024	0.00047	6
60914	-1e-05	-2e-05	-3e-05	-2e-05	-0.00017	-0.00074	-0.00024	0.00047	6
60915	-1e-05	-2e-05	-3e-05	-2e-05	-0.00017	-0.00074	-0.00024	0.00047	6
60916	-1e-05	-2e-05	-3e-05	-2e-05	-0.00017	-0.00074	-0.00024	0.00047	6
60917	-6e-05	-2e-05	-2e-05	-6e-05	-0.00018	-0.00047	0.0001	-0.00032	6
60918	-0.00012	-4e-05	-2e-05	-3e-05	-0.00012	-0.00047	0.00017	-0.0006	6
60919	6e-05	1e-05	-5e-05	-4e-05	-0.0001	-0.00047	-6e-05	-0.00018	6
60920	6e-05	1e-05	-5e-05	-4e-05	-0.0001	-0.00047	-6e-05	-0.00018	6
60921	6e-05	1e-05	-5e-05	-4e-05	-0.0001	-0.00047	-6e-05	-0.00018	6
60922	6e-05	1e-05	-5e-05	-4e-05	-0.0001	-0.00047	-6e-05	-0.00018	6
60923	6e-05	1e-05	-5e-05	-4e-05	-0.0001	-0.00047	-6e-05	-0.00018	6
60924	6e-05	1e-05	-5e-05	-4e-05	-0.0001	-0.00047	-6e-05	-0.00018	6
60925	6e-05	1e-05	-5e-05	-4e-05	-0.0001	-0.00047	-6e-05	-0.00018	6
60926	6e-05	1e-05	-5e-05	-4e-05	-0.0001	-0.00047	-6e-05	-0.00018	6
60927	6e-05	1e-05	-5e-05	-4e-05	-0.0001	-0.00047	-6e-05	-0.00018	6
60928	6e-05	1e-05	-5e-05	-4e-05	-0.0001	-0.00047	-6e-05	-0.00018	6
60929	6e-05	1e-05	-5e-05	-4e-05	-0.0001	-0.00047	-6e-05	-0.00018	6
60930	6e-05	1e-05	-5e-05	-4e-05	-0.0001	-0.00047	-6e-05	-0.00018	6
60931	6e-05	1e-05	-5e-05	-4e-05	-0.0001	-0.00047	-6e-05	-0.00018	6
60932	6e-05	1e-05	-5e-05	-4e-05	-0.0001	-0.00047	-6e-05	-0.00018	6
60933	6e-05	1e-05	-5e-05	-4e-05	-0.0001	-0.00047	-6e-05	-0.00018	6
60934	6e-05	1e-05	-5e-05	-4e-05	-0.0001	-0.00047	-6e-05	-0.00018	6
60935	6e-05	1e-05	-5e-05	-4e-05	-0.0001	-0.00047	-6e-05	-0.00018	6
60936	6e-05	1e-05	-5e-05	-4e-05	-0.0001	-0.00047	-6e-05	-0.00018	6
60938	6e-05	1e-05	-5e-05	-4e-05	-0.0001	-0.00047	-6e-05	-0.00018	6
60939	0	2e-05	2e-05	3e-05	-6e-05	-0.00057	-0.00015	-0.00023	6
60940	0	2e-05	2e-05	3e-05	-6e-05	-0.00057	-0.00015	-0.00023	6
60941	0.00013	-5e-05	-3e-05	-1e-05	0.00035	-0.0002	7e-05	0.00072	6
60942	0.00013	-5e-05	-3e-05	-1e-05	0.00035	-0.0002	7e-05	0.00072	6
60943	0.00013	-5e-05	-3e-05	-1e-05	0.00035	-0.0002	7e-05	0.00072	6
60944	0.00013	-5e-05	-3e-05	-1e-05	0.00035	-0.0002	7e-05	0.00072	6
60945	0.00013	-5e-05	-3e-05	-1e-05	0.00035	-0.0002	7e-05	0.00072	6
60946	0.00013	-5e-05	-3e-05	-1e-05	0.00035	-0.0002	7e-05	0.00072	6
60947	0.00013	-5e-05	-3e-05	-1e-05	0.00035	-0.0002	7e-05	0.00072	6
60948	0.00013	-5e-05	-3e-05	-1e-05	0.00035	-0.0002	7e-05	0.00072	6
60949	0.00013	-5e-05	-3e-05	-1e-05	0.00035	-0.0002	7e-05	0.00072	6
60950	0.00013	-5e-05	-3e-05	-1e-05	0.00035	-0.0002	7e-05	0.00072	6
60951	0.00013	-5e-05	-3e-05	-1e-05	0.00035	-0.0002	7e-05	0.00072	6
60952	0.00013	-5e-05	-3e-05	-1e-05	0.00035	-0.0002	7e-05	0.00072	6
60953	-1e-05	0	2e-05	-1e-05	1e-05	8e-05	-0.00012	-0.00016	6
60954	-1e-05	0	2e-05	-1e-05	1e-05	8e-05	-0.00012	-0.00016	6
60955	-1e-05	0	2e-05	-1e-05	1e-05	8e-05	-0.00012	-0.00016	6
60956	-1e-05	0	2e-05	-1e-05	1e-05	8e-05	-0.00012	-0.00016	6
60957	-1e-05	0	2e-05	-1e-05	1e-05	8e-05	-0.00012	-0.00016	6
60958	-1e-05	0	2e-05	-1e-05	1e-05	8e-05	-0.00012	-0.00016	6
60959	-1e-05	0	2e-05	-1e-05	1e-05	8e-05	-0.00012	-0.00016	6
60960	-1e-05	0	2e-05	-1e-05	1e-05	8e-05	-0.00012	-0.00016	6
60961	-1e-05	0	2e-05	-1e-05	1e-05	8e-05	-0.00012	-0.00016	6
60962	-8e-05	0	0	1e-05	2e-05	-0.00031	-4e-05	-0.00028	6
60963	-8e-05	0	0	1e-05	2e-05	-0.00031	-4e-05	-0.00028	6
60964	-8e-05	0	0	1e-05	2e-05	-0.00031	-4e-05	-0.00028	6
60965	-8e-05	0	0	1e-05	2e-05	-0.00031	-4e-05	-0.00028	6
60966	-8e-05	0	0	1e-05	2e-05	-0.00031	-4e-05	-0.00028	6
60967	-8e-05	0	0	1e-05	2e-05	-0.00031	-4e-05	-0.00028	6
60968	-8e-05	0	0	1e-05	2e-05	-0.00031	-4e-05	-0.00028	6
60969	-8e-05	0	0	1e-05	2e-05	-0.00031	-4e-05	-0.00028	6
60970	-8e-05	0	0	1e-05	2e-05	-0.00031	-4e-05	-0.00028	6
60971	-8e-05	0	0	1e-05	2e-05	-0.00031	-4e-05	-0.00028	6
60972	-8e-05	0	0	1e-05	2e-05	-0.00031	-4e-05	-0.00028	6
60973	-8e-05	0	0	1e-05	2e-05	-0.00031	-4e-05	-0.00028	6
60974	-8e-05	0	0	1e-05	2e-05	-0.00031	-4e-05	-0.00028	6
60975	-8e-05	0	0	1e-05	2e-05	-0.00031	-4e-05	-0.00028	6
60976	-8e-05	0	0	1e-05	2e-05	-0.00031	-4e-05	-0.00028	6
60977	-1e-05	-3e-05	-1e-05	5e-05	4e-05	0.00022	6e-05	-0.00012	6
60978	3e-05	-2e-05	3e-05	0	0.00051	0.00038	0.00012	0.00053	6
60979	3e-05	-2e-05	3e-05	0	0.00051	0.00038	0.00012	0.00053	6
60980	3e-05	-2e-05	3e-05	0	0.00051	0.00038	0.00012	0.00053	6
60981	3e-05	-2e-05	3e-05	0	0.00051	0.00038	0.00012	0.00053	6
60982	3e-05	-2e-05	3e-05	0	0.00051	0.00038	0.00012	0.00053	6
60983	3e-05	-2e-05	3e-05	0	0.00051	0.00038	0.00012	0.00053	6
60984	3e-05	-2e-05	3e-05	0	0.00051	0.00038	0.00012	0.00053	6
60985	3e-05	-2e-05	3e-05	0	0.00051	0.00038	0.00012	0.00053	6
60986	3e-05	-2e-05	3e-05	0	0.00051	0.00038	0.00012	0.00053	6
60988	3e-05	-2e-05	3e-05	0	0.00051	0.00038	0.00012	0.00053	6
60989	3e-05	-2e-05	3e-05	0	0.00051	0.00038	0.00012	0.00053	6
60990	3e-05	-2e-05	3e-05	0	0.00051	0.00038	0.00012	0.00053	6
60991	3e-05	-2e-05	3e-05	0	0.00051	0.00038	0.00012	0.00053	6
60992	3e-05	-2e-05	3e-05	0	0.00051	0.00038	0.00012	0.00053	6
60993	3e-05	-2e-05	3e-05	0	0.00051	0.00038	0.00012	0.00053	6
60994	3e-05	-2e-05	3e-05	0	0.00051	0.00038	0.00012	0.00053	6
60995	3e-05	-2e-05	3e-05	0	0.00051	0.00038	0.00012	0.00053	6
60996	3e-05	-2e-05	3e-05	0	0.00051	0.00038	0.00012	0.00053	6
60997	3e-05	-2e-05	3e-05	0	0.00051	0.00038	0.00012	0.00053	6
60998	3e-05	-2e-05	3e-05	0	0.00051	0.00038	0.00012	0.00053	6
60999	3e-05	-2e-05	3e-05	0	0.00051	0.00038	0.00012	0.00053	6
61000	-0.00023	-6e-05	-6e-05	-9e-05	-0.00017	0.00037	0.00019	-0.00102	6
61001	-1e-05	0	0	2e-05	-2e-05	7e-05	-2e-05	-0.00018	6
61002	-1e-05	0	0	2e-05	-2e-05	7e-05	-2e-05	-0.00018	6
61003	-1e-05	0	0	2e-05	-2e-05	7e-05	-2e-05	-0.00018	6
61004	-1e-05	0	0	2e-05	-2e-05	7e-05	-2e-05	-0.00018	6
61005	-1e-05	0	0	2e-05	-2e-05	7e-05	-2e-05	-0.00018	6
61006	-1e-05	0	0	2e-05	-2e-05	7e-05	-2e-05	-0.00018	6
61007	-1e-05	0	0	2e-05	-2e-05	7e-05	-2e-05	-0.00018	6
61008	-1e-05	0	0	2e-05	-2e-05	7e-05	-2e-05	-0.00018	6
61009	-1e-05	0	0	2e-05	-2e-05	7e-05	-2e-05	-0.00018	6
61010	-1e-05	0	0	2e-05	-2e-05	7e-05	-2e-05	-0.00018	6
61011	-1e-05	0	0	2e-05	-2e-05	7e-05	-2e-05	-0.00018	6
61012	-1e-05	0	0	2e-05	-2e-05	7e-05	-2e-05	-0.00018	6
61013	0.0001	1e-05	-5e-05	-5e-05	-0.00037	-0.00027	9e-05	0	6
61014	0.0001	1e-05	-5e-05	-5e-05	-0.00037	-0.00027	9e-05	0	6
61015	0.0001	1e-05	-5e-05	-5e-05	-0.00037	-0.00027	9e-05	0	6
61016	0.0001	1e-05	-5e-05	-5e-05	-0.00037	-0.00027	9e-05	0	6
61017	0.0001	1e-05	-5e-05	-5e-05	-0.00037	-0.00027	9e-05	0	6
61018	0.0001	1e-05	-5e-05	-5e-05	-0.00037	-0.00027	9e-05	0	6
61019	0.0001	1e-05	-5e-05	-5e-05	-0.00037	-0.00027	9e-05	0	6
61020	0.0001	1e-05	-5e-05	-5e-05	-0.00037	-0.00027	9e-05	0	6
61021	0.0001	1e-05	-5e-05	-5e-05	-0.00037	-0.00027	9e-05	0	6
61022	-3e-05	-4e-05	-4e-05	-4e-05	-3e-05	0.00014	-0.00025	-0.00026	6
61023	-3e-05	-4e-05	-4e-05	-4e-05	-3e-05	0.00014	-0.00025	-0.00026	6
61024	-3e-05	-4e-05	-4e-05	-4e-05	-3e-05	0.00014	-0.00025	-0.00026	6
61025	-3e-05	-4e-05	-4e-05	-4e-05	-3e-05	0.00014	-0.00025	-0.00026	6
61026	-3e-05	-4e-05	-4e-05	-4e-05	-3e-05	0.00014	-0.00025	-0.00026	6
61027	-3e-05	-4e-05	-4e-05	-4e-05	-3e-05	0.00014	-0.00025	-0.00026	6
61028	-3e-05	-4e-05	-4e-05	-4e-05	-3e-05	0.00014	-0.00025	-0.00026	6
61029	-3e-05	-4e-05	-4e-05	-4e-05	-3e-05	0.00014	-0.00025	-0.00026	6
61030	-3e-05	-4e-05	-4e-05	-4e-05	-3e-05	0.00014	-0.00025	-0.00026	6
61031	-3e-05	-4e-05	-4e-05	-4e-05	-3e-05	0.00014	-0.00025	-0.00026	6
61032	-3e-05	-4e-05	-4e-05	-4e-05	-3e-05	0.00014	-0.00025	-0.00026	6
61033	-3e-05	-4e-05	-4e-05	-4e-05	-3e-05	0.00014	-0.00025	-0.00026	6
61034	-3e-05	-4e-05	-4e-05	-4e-05	-3e-05	0.00014	-0.00025	-0.00026	6
61035	-3e-05	-4e-05	-4e-05	-4e-05	-3e-05	0.00014	-0.00025	-0.00026	6
61036	-3e-05	-4e-05	-4e-05	-4e-05	-3e-05	0.00014	-0.00025	-0.00026	6
61038	-0.0002	-1e-05	0	5e-05	0.0002	-0.00012	-0.00027	0.00014	6
61039	-4e-05	0	-1e-05	-5e-05	-0.00042	-0.00036	3e-05	5e-05	6
61040	-4e-05	0	-1e-05	-5e-05	-0.00042	-0.00036	3e-05	5e-05	6
61041	-4e-05	0	-1e-05	-5e-05	-0.00042	-0.00036	3e-05	5e-05	6
61042	-4e-05	0	-1e-05	-5e-05	-0.00042	-0.00036	3e-05	5e-05	6
61043	-4e-05	0	-1e-05	-5e-05	-0.00042	-0.00036	3e-05	5e-05	6
61044	-4e-05	0	-1e-05	-5e-05	-0.00042	-0.00036	3e-05	5e-05	6
61045	-4e-05	0	-1e-05	-5e-05	-0.00042	-0.00036	3e-05	5e-05	6
61046	-4e-05	0	-1e-05	-5e-05	-0.00042	-0.00036	3e-05	5e-05	6
61047	-4e-05	0	-1e-05	-5e-05	-0.00042	-0.00036	3e-05	5e-05	6
61048	-4e-05	0	-1e-05	-5e-05	-0.00042	-0.00036	3e-05	5e-05	6
61049	-4e-05	0	-1e-05	-5e-05	-0.00042	-0.00036	3e-05	5e-05	6
61050	-4e-05	0	-1e-05	-5e-05	-0.00042	-0.00036	3e-05	5e-05	6
61051	-4e-05	0	-1e-05	-5e-05	-0.00042	-0.00036	3e-05	5e-05	6
61052	-4e-05	0	-1e-05	-5e-05	-0.00042	-0.00036	3e-05	5e-05	6
61053	-4e-05	0	-1e-05	-5e-05	-0.00042	-0.00036	3e-05	5e-05	6
61054	-4e-05	0	-1e-05	-5e-05	-0.00042	-0.00036	3e-05	5e-05	6
61055	-4e-05	0	-1e-05	-5e-05	-0.00042	-0.00036	3e-05	5e-05	6
61056	-4e-05	0	-1e-05	-5e-05	-0.00042	-0.00036	3e-05	5e-05	6
61057	-4e-05	0	-1e-05	-5e-05	-0.00042	-0.00036	3e-05	5e-05	6
61058	-4e-05	0	-1e-05	-5e-05	-0.00042	-0.00036	3e-05	5e-05	6
61059	4e-05	3e-05	5e-05	0	-1e-05	0.00034	0.00011	0.00056	6
61060	4e-05	3e-05	5e-05	0	-1e-05	0.00034	0.00011	0.00056	6
61061	-7e-05	-6e-05	-5e-05	3e-05	0.00027	0.00058	0.00016	-0.00018	6
61062	-7e-05	-6e-05	-5e-05	3e-05	0.00027	0.00058	0.00016	-0.00018	6
61063	-7e-05	-6e-05	-5e-05	3e-05	0.00027	0.00058	0.00016	-0.00018	6
61064	-7e-05	-6e-05	-5e-05	3e-05	0.00027	0.00058	0.00016	-0.00018	6
61065	-7e-05	-6e-05	-5e-05	3e-05	0.00027	0.00058	0.00016	-0.00018	6
61066	-7e-05	-6e-05	-5e-05	3e-05	0.00027	0.00058	0.00016	-0.00018	6
61067	-7e-05	-6e-05	-5e-05	3e-05	0.00027	0.00058	0.00016	-0.00018	6
61068	-7e-05	-6e-05	-5e-05	3e-05	0.00027	0.00058	0.00016	-0.00018	6
61069	-7e-05	-6e-05	-5e-05	3e-05	0.00027	0.00058	0.00016	-0.00018	6
61070	-7e-05	-6e-05	-5e-05	3e-05	0.00027	0.00058	0.00016	-0.00018	6
61071	-7e-05	-6e-05	-5e-05	3e-05	0.00027	0.00058	0.00016	-0.00018	6
61072	-7e-05	-6e-05	-5e-05	3e-05	0.00027	0.00058	0.00016	-0.00018	6
61073	-7e-05	-6e-05	-5e-05	3e-05	0.00027	0.00058	0.00016	-0.00018	6
61074	-7e-05	-6e-05	-5e-05	3e-05	0.00027	0.00058	0.00016	-0.00018	6
61075	-7e-05	-6e-05	-5e-05	3e-05	0.00027	0.00058	0.00016	-0.00018	6
61077	-7e-05	-6e-05	-5e-05	3e-05	0.00027	0.00058	0.00016	-0.00018	6
61078	-7e-05	-6e-05	-5e-05	3e-05	0.00027	0.00058	0.00016	-0.00018	6
61079	-7e-05	-6e-05	-5e-05	3e-05	0.00027	0.00058	0.00016	-0.00018	6
61080	-7e-05	-6e-05	-5e-05	3e-05	0.00027	0.00058	0.00016	-0.00018	6
61081	-7e-05	-6e-05	-5e-05	3e-05	0.00027	0.00058	0.00016	-0.00018	6
61082	-7e-05	-6e-05	-5e-05	3e-05	0.00027	0.00058	0.00016	-0.00018	6
61083	0	-2e-05	-5e-05	-9e-05	-0.00034	0.0001	-5e-05	-0.00039	6
61084	0	-2e-05	-5e-05	-9e-05	-0.00034	0.0001	-5e-05	-0.00039	6
61085	0	-2e-05	-5e-05	-9e-05	-0.00034	0.0001	-5e-05	-0.00039	6
61086	0	-2e-05	-5e-05	-9e-05	-0.00034	0.0001	-5e-05	-0.00039	6
61088	0	-2e-05	-5e-05	-9e-05	-0.00034	0.0001	-5e-05	-0.00039	6
61089	0	-2e-05	-5e-05	-9e-05	-0.00034	0.0001	-5e-05	-0.00039	6
61090	0	-2e-05	-5e-05	-9e-05	-0.00034	0.0001	-5e-05	-0.00039	6
61091	0	-2e-05	-5e-05	-9e-05	-0.00034	0.0001	-5e-05	-0.00039	6
61092	0	-2e-05	-5e-05	-9e-05	-0.00034	0.0001	-5e-05	-0.00039	6
61093	0	-2e-05	-5e-05	-9e-05	-0.00034	0.0001	-5e-05	-0.00039	6
61094	0	-2e-05	-5e-05	-9e-05	-0.00034	0.0001	-5e-05	-0.00039	6
61095	0	-2e-05	-5e-05	-9e-05	-0.00034	0.0001	-5e-05	-0.00039	6
61096	0	-2e-05	-5e-05	-9e-05	-0.00034	0.0001	-5e-05	-0.00039	6
61097	0	-2e-05	-5e-05	-9e-05	-0.00034	0.0001	-5e-05	-0.00039	6
61098	0	-2e-05	-5e-05	-9e-05	-0.00034	0.0001	-5e-05	-0.00039	6
61099	0	-2e-05	-5e-05	-9e-05	-0.00034	0.0001	-5e-05	-0.00039	6
61100	0	-2e-05	-5e-05	-9e-05	-0.00034	0.0001	-5e-05	-0.00039	6
61101	0	-2e-05	-5e-05	-9e-05	-0.00034	0.0001	-5e-05	-0.00039	6
61102	0	-2e-05	-5e-05	-9e-05	-0.00034	0.0001	-5e-05	-0.00039	6
61103	0	-2e-05	-5e-05	-9e-05	-0.00034	0.0001	-5e-05	-0.00039	6
61104	-7e-05	-5e-05	-4e-05	-0.0001	-0.00033	-2e-05	-2e-05	6e-05	6
61105	0.00011	0	2e-05	5e-05	-0.00012	-0.00048	-4e-05	0.00019	6
61106	-2e-05	1e-05	3e-05	1e-05	-0.00016	0.00066	0.00014	-0.00037	6
61107	-2e-05	1e-05	3e-05	1e-05	-0.00016	0.00066	0.00014	-0.00037	6
61108	-2e-05	1e-05	3e-05	1e-05	-0.00016	0.00066	0.00014	-0.00037	6
61109	-2e-05	1e-05	3e-05	1e-05	-0.00016	0.00066	0.00014	-0.00037	6
61110	-2e-05	1e-05	3e-05	1e-05	-0.00016	0.00066	0.00014	-0.00037	6
61111	-2e-05	1e-05	3e-05	1e-05	-0.00016	0.00066	0.00014	-0.00037	6
61112	-2e-05	1e-05	3e-05	1e-05	-0.00016	0.00066	0.00014	-0.00037	6
61113	-2e-05	1e-05	3e-05	1e-05	-0.00016	0.00066	0.00014	-0.00037	6
61114	-2e-05	1e-05	3e-05	1e-05	-0.00016	0.00066	0.00014	-0.00037	6
61115	-2e-05	1e-05	3e-05	1e-05	-0.00016	0.00066	0.00014	-0.00037	6
61116	-2e-05	1e-05	3e-05	1e-05	-0.00016	0.00066	0.00014	-0.00037	6
61117	-2e-05	1e-05	3e-05	1e-05	-0.00016	0.00066	0.00014	-0.00037	6
61118	-2e-05	1e-05	3e-05	1e-05	-0.00016	0.00066	0.00014	-0.00037	6
61119	0.00013	3e-05	-2e-05	4e-05	-9e-05	-0.00062	0.00035	0.0008	6
61120	0.00013	3e-05	-2e-05	4e-05	-9e-05	-0.00062	0.00035	0.0008	6
61121	-2e-05	2e-05	1e-05	0	-9e-05	0.00039	-3e-05	-8e-05	6
61122	-2e-05	2e-05	1e-05	0	-9e-05	0.00039	-3e-05	-8e-05	6
61123	-2e-05	2e-05	1e-05	0	-9e-05	0.00039	-3e-05	-8e-05	6
61124	-2e-05	2e-05	1e-05	0	-9e-05	0.00039	-3e-05	-8e-05	6
61125	-2e-05	2e-05	1e-05	0	-9e-05	0.00039	-3e-05	-8e-05	6
61126	-2e-05	2e-05	1e-05	0	-9e-05	0.00039	-3e-05	-8e-05	6
61127	-2e-05	2e-05	1e-05	0	-9e-05	0.00039	-3e-05	-8e-05	6
61128	-2e-05	2e-05	1e-05	0	-9e-05	0.00039	-3e-05	-8e-05	6
61129	-2e-05	2e-05	1e-05	0	-9e-05	0.00039	-3e-05	-8e-05	6
61130	-2e-05	2e-05	1e-05	0	-9e-05	0.00039	-3e-05	-8e-05	6
61131	-2e-05	2e-05	1e-05	0	-9e-05	0.00039	-3e-05	-8e-05	6
61132	-2e-05	2e-05	1e-05	0	-9e-05	0.00039	-3e-05	-8e-05	6
61133	4e-05	0	2e-05	1e-05	0.0001	0.00051	-4e-05	1e-05	6
61134	4e-05	0	2e-05	1e-05	0.0001	0.00051	-4e-05	1e-05	6
61135	4e-05	0	2e-05	1e-05	0.0001	0.00051	-4e-05	1e-05	6
61136	4e-05	0	2e-05	1e-05	0.0001	0.00051	-4e-05	1e-05	6
61138	4e-05	0	2e-05	1e-05	0.0001	0.00051	-4e-05	1e-05	6
61139	4e-05	0	2e-05	1e-05	0.0001	0.00051	-4e-05	1e-05	6
61140	4e-05	0	2e-05	1e-05	0.0001	0.00051	-4e-05	1e-05	6
61141	4e-05	0	2e-05	1e-05	0.0001	0.00051	-4e-05	1e-05	6
61142	-0.0001	1e-05	1e-05	2e-05	0.0001	-0.0009	-4e-05	-0.00027	6
61143	-0.0001	1e-05	1e-05	2e-05	0.0001	-0.0009	-4e-05	-0.00027	6
61144	-0.0001	1e-05	1e-05	2e-05	0.0001	-0.0009	-4e-05	-0.00027	6
61145	-0.0001	1e-05	1e-05	2e-05	0.0001	-0.0009	-4e-05	-0.00027	6
61146	-0.0001	1e-05	1e-05	2e-05	0.0001	-0.0009	-4e-05	-0.00027	6
61147	-0.0001	1e-05	1e-05	2e-05	0.0001	-0.0009	-4e-05	-0.00027	6
61148	-0.0001	1e-05	1e-05	2e-05	0.0001	-0.0009	-4e-05	-0.00027	6
61149	-0.0001	1e-05	1e-05	2e-05	0.0001	-0.0009	-4e-05	-0.00027	6
61150	-0.0001	1e-05	1e-05	2e-05	0.0001	-0.0009	-4e-05	-0.00027	6
61151	-0.0001	1e-05	1e-05	2e-05	0.0001	-0.0009	-4e-05	-0.00027	6
61152	-0.0001	1e-05	1e-05	2e-05	0.0001	-0.0009	-4e-05	-0.00027	6
61153	-0.0001	1e-05	1e-05	2e-05	0.0001	-0.0009	-4e-05	-0.00027	6
61154	-0.0001	1e-05	1e-05	2e-05	0.0001	-0.0009	-4e-05	-0.00027	6
61155	-0.0001	1e-05	1e-05	2e-05	0.0001	-0.0009	-4e-05	-0.00027	6
61156	-0.0001	1e-05	1e-05	2e-05	0.0001	-0.0009	-4e-05	-0.00027	6
61157	1e-05	-1e-05	2e-05	3e-05	0.00029	-0.00012	-0.00023	-0.00027	6
61158	-1e-05	-2e-05	-2e-05	0	0.00025	-3e-05	-0.00031	-0.00055	6
61159	-1e-05	-2e-05	-2e-05	0	0.00025	-3e-05	-0.00031	-0.00055	6
61160	-1e-05	-2e-05	-2e-05	0	0.00025	-3e-05	-0.00031	-0.00055	6
61161	-1e-05	-2e-05	-2e-05	0	0.00025	-3e-05	-0.00031	-0.00055	6
61162	-1e-05	-2e-05	-2e-05	0	0.00025	-3e-05	-0.00031	-0.00055	6
61163	-1e-05	-2e-05	-2e-05	0	0.00025	-3e-05	-0.00031	-0.00055	6
61164	-1e-05	-2e-05	-2e-05	0	0.00025	-3e-05	-0.00031	-0.00055	6
61165	-1e-05	-2e-05	-2e-05	0	0.00025	-3e-05	-0.00031	-0.00055	6
61166	-1e-05	-2e-05	-2e-05	0	0.00025	-3e-05	-0.00031	-0.00055	6
61167	-1e-05	-2e-05	-2e-05	0	0.00025	-3e-05	-0.00031	-0.00055	6
61168	-1e-05	-2e-05	-2e-05	0	0.00025	-3e-05	-0.00031	-0.00055	6
61169	-1e-05	-2e-05	-2e-05	0	0.00025	-3e-05	-0.00031	-0.00055	6
61170	-1e-05	-2e-05	-2e-05	0	0.00025	-3e-05	-0.00031	-0.00055	6
