30206	-0.00011	-3e-05	-4e-05	-2e-05	-0.00024	-0.00012	-4e-05	-0.00054	6
30207	-0.00011	-3e-05	-4e-05	-2e-05	-0.00024	-0.00012	-4e-05	-0.00054	6
30208	-0.00011	-3e-05	-4e-05	-2e-05	-0.00024	-0.00012	-4e-05	-0.00054	6
30209	-0.00011	-3e-05	-4e-05	-2e-05	-0.00024	-0.00012	-4e-05	-0.00054	6
30210	4e-05	1e-05	7e-05	5e-05	0.00012	0.00044	0.00013	7e-05	6
30211	4e-05	1e-05	7e-05	5e-05	0.00012	0.00044	0.00013	7e-05	6
30212	4e-05	1e-05	7e-05	5e-05	0.00012	0.00044	0.00013	7e-05	6
30213	4e-05	1e-05	7e-05	5e-05	0.00012	0.00044	0.00013	7e-05	6
30214	4e-05	1e-05	7e-05	5e-05	0.00012	0.00044	0.00013	7e-05	6
30215	4e-05	1e-05	7e-05	5e-05	0.00012	0.00044	0.00013	7e-05	6
30216	4e-05	1e-05	7e-05	5e-05	0.00012	0.00044	0.00013	7e-05	6
30217	1e-05	-1e-05	8e-05	3e-05	0.00011	0.00015	2e-05	-4e-05	6
30218	1e-05	-1e-05	8e-05	3e-05	0.00011	0.00015	2e-05	-4e-05	6
30219	1e-05	-1e-05	8e-05	3e-05	0.00011	0.00015	2e-05	-4e-05	6
30220	1e-05	-1e-05	8e-05	3e-05	0.00011	0.00015	2e-05	-4e-05	6
30221	1e-05	-1e-05	8e-05	3e-05	0.00011	0.00015	2e-05	-4e-05	6
30222	1e-05	-1e-05	8e-05	3e-05	0.00011	0.00015	2e-05	-4e-05	6
30223	1e-05	-1e-05	8e-05	3e-05	0.00011	0.00015	2e-05	-4e-05	6
30224	1e-05	-1e-05	8e-05	3e-05	0.00011	0.00015	2e-05	-4e-05	6
30225	1e-05	-1e-05	8e-05	3e-05	0.00011	0.00015	2e-05	-4e-05	6
30226	1e-05	-1e-05	8e-05	3e-05	0.00011	0.00015	2e-05	-4e-05	6
30227	1e-05	-1e-05	8e-05	3e-05	0.00011	0.00015	2e-05	-4e-05	6
30228	1e-05	-1e-05	8e-05	3e-05	0.00011	0.00015	2e-05	-4e-05	6
30229	1e-05	-1e-05	8e-05	3e-05	0.00011	0.00015	2e-05	-4e-05	6
30230	1e-05	-1e-05	8e-05	3e-05	0.00011	0.00015	2e-05	-4e-05	6
30231	1e-05	-1e-05	8e-05	3e-05	0.00011	0.00015	2e-05	-4e-05	6
30232	1e-05	-1e-05	8e-05	3e-05	0.00011	0.00015	2e-05	-4e-05	6
30233	5e-05	-2e-05	-3e-05	-7e-05	-0.00017	-0.00019	9e-05	0.0001	6
30234	-2e-05	6e-05	0	2e-05	0.00026	-0.00047	5e-05	0.00019	6
30235	-4e-05	-1e-05	-3e-05	3e-05	0.00024	0.00021	0.00016	-0.00018	6
30236	-4e-05	-1e-05	-3e-05	3e-05	0.00024	0.00021	0.00016	-0.00018	6
30238	-4e-05	-1e-05	-3e-05	3e-05	0.00024	0.00021	0.00016	-0.00018	6
30239	-4e-05	-1e-05	-3e-05	3e-05	0.00024	0.00021	0.00016	-0.00018	6
30240	-4e-05	-1e-05	-3e-05	3e-05	0.00024	0.00021	0.00016	-0.00018	6
30241	-4e-05	-1e-05	-3e-05	3e-05	0.00024	0.00021	0.00016	-0.00018	6
30242	-4e-05	-1e-05	-3e-05	3e-05	0.00024	0.00021	0.00016	-0.00018	6
30243	-4e-05	-1e-05	-3e-05	3e-05	0.00024	0.00021	0.00016	-0.00018	6
30244	-4e-05	-1e-05	-3e-05	3e-05	0.00024	0.00021	0.00016	-0.00018	6
30245	-4e-05	-1e-05	-3e-05	3e-05	0.00024	0.00021	0.00016	-0.00018	6
30246	-4e-05	-1e-05	-3e-05	3e-05	0.00024	0.00021	0.00016	-0.00018	6
30247	-4e-05	-1e-05	-3e-05	3e-05	0.00024	0.00021	0.00016	-0.00018	6
30248	-4e-05	-1e-05	-3e-05	3e-05	0.00024	0.00021	0.00016	-0.00018	6
30249	-4e-05	-1e-05	-3e-05	3e-05	0.00024	0.00021	0.00016	-0.00018	6
30250	-4e-05	-1e-05	-3e-05	3e-05	0.00024	0.00021	0.00016	-0.00018	6
30251	-4e-05	-1e-05	-3e-05	3e-05	0.00024	0.00021	0.00016	-0.00018	6
30252	-4e-05	-1e-05	-3e-05	3e-05	0.00024	0.00021	0.00016	-0.00018	6
30253	-4e-05	-1e-05	-3e-05	3e-05	0.00024	0.00021	0.00016	-0.00018	6
30254	-4e-05	-1e-05	-3e-05	3e-05	0.00024	0.00021	0.00016	-0.00018	6
30255	-4e-05	-1e-05	-3e-05	3e-05	0.00024	0.00021	0.00016	-0.00018	6
30256	-5e-05	-1e-05	-1e-05	3e-05	0.00024	-1e-05	3e-05	-2e-05	6
30257	-5e-05	-1e-05	-1e-05	3e-05	0.00024	-1e-05	3e-05	-2e-05	6
30258	-1e-05	-6e-05	-1e-05	1e-05	0.00016	-6e-05	-8e-05	0	6
30259	-1e-05	-6e-05	-1e-05	1e-05	0.00016	-6e-05	-8e-05	0	6
30260	-1e-05	-6e-05	-1e-05	1e-05	0.00016	-6e-05	-8e-05	0	6
30261	-1e-05	-6e-05	-1e-05	1e-05	0.00016	-6e-05	-8e-05	0	6
30262	-1e-05	-6e-05	-1e-05	1e-05	0.00016	-6e-05	-8e-05	0	6
30263	-1e-05	-6e-05	-1e-05	1e-05	0.00016	-6e-05	-8e-05	0	6
30264	-1e-05	-6e-05	-1e-05	1e-05	0.00016	-6e-05	-8e-05	0	6
30265	-1e-05	-6e-05	-1e-05	1e-05	0.00016	-6e-05	-8e-05	0	6
30266	-1e-05	-6e-05	-1e-05	1e-05	0.00016	-6e-05	-8e-05	0	6
30267	-1e-05	-6e-05	-1e-05	1e-05	0.00016	-6e-05	-8e-05	0	6
30268	-1e-05	-6e-05	-1e-05	1e-05	0.00016	-6e-05	-8e-05	0	6
30269	-1e-05	-6e-05	-1e-05	1e-05	0.00016	-6e-05	-8e-05	0	6
30270	-1e-05	-6e-05	-1e-05	1e-05	0.00016	-6e-05	-8e-05	0	6
30271	-1e-05	-6e-05	-1e-05	1e-05	0.00016	-6e-05	-8e-05	0	6
30272	-1e-05	-6e-05	-1e-05	1e-05	0.00016	-6e-05	-8e-05	0	6
30273	-1e-05	-6e-05	-1e-05	1e-05	0.00016	-6e-05	-8e-05	0	6
30274	-1e-05	-6e-05	-1e-05	1e-05	0.00016	-6e-05	-8e-05	0	6
30275	-1e-05	-6e-05	-1e-05	1e-05	0.00016	-6e-05	-8e-05	0	6
30276	-1e-05	-6e-05	-1e-05	1e-05	0.00016	-6e-05	-8e-05	0	6
30277	-1e-05	-6e-05	-1e-05	1e-05	0.00016	-6e-05	-8e-05	0	6
30278	-1e-05	-6e-05	-1e-05	1e-05	0.00016	-6e-05	-8e-05	0	6
30279	3e-05	-1e-05	-2e-05	-3e-05	-0.00016	-0.00011	-8e-05	4e-05	6
30280	-5e-05	-3e-05	-8e-05	-6e-05	-0.00011	-0.00024	-0.00013	0.00017	6
30281	-1e-05	5e-05	-1e-05	-1e-05	-0.00012	-0.00016	-0.00013	-5e-05	6
30282	-1e-05	5e-05	-1e-05	-1e-05	-0.00012	-0.00016	-0.00013	-5e-05	6
30283	-1e-05	5e-05	-1e-05	-1e-05	-0.00012	-0.00016	-0.00013	-5e-05	6
30284	-1e-05	5e-05	-1e-05	-1e-05	-0.00012	-0.00016	-0.00013	-5e-05	6
30285	-1e-05	5e-05	-1e-05	-1e-05	-0.00012	-0.00016	-0.00013	-5e-05	6
30286	-1e-05	5e-05	-1e-05	-1e-05	-0.00012	-0.00016	-0.00013	-5e-05	6
30289	-1e-05	5e-05	-1e-05	-1e-05	-0.00012	-0.00016	-0.00013	-5e-05	6
30290	-1e-05	5e-05	-1e-05	-1e-05	-0.00012	-0.00016	-0.00013	-5e-05	6
30291	-1e-05	5e-05	-1e-05	-1e-05	-0.00012	-0.00016	-0.00013	-5e-05	6
30292	-1e-05	5e-05	-1e-05	-1e-05	-0.00012	-0.00016	-0.00013	-5e-05	6
30293	-1e-05	5e-05	-1e-05	-1e-05	-0.00012	-0.00016	-0.00013	-5e-05	6
30294	-1e-05	3e-05	2e-05	4e-05	0.00018	-0.0002	4e-05	-8e-05	6
30295	8e-05	1e-05	-4e-05	-9e-05	-0.00026	-0.0004	-7e-05	0.00013	6
30296	8e-05	1e-05	-4e-05	-9e-05	-0.00026	-0.0004	-7e-05	0.00013	6
30297	8e-05	1e-05	-4e-05	-9e-05	-0.00026	-0.0004	-7e-05	0.00013	6
30298	8e-05	1e-05	-4e-05	-9e-05	-0.00026	-0.0004	-7e-05	0.00013	6
30299	8e-05	1e-05	-4e-05	-9e-05	-0.00026	-0.0004	-7e-05	0.00013	6
30300	8e-05	1e-05	-4e-05	-9e-05	-0.00026	-0.0004	-7e-05	0.00013	6
30301	8e-05	1e-05	-4e-05	-9e-05	-0.00026	-0.0004	-7e-05	0.00013	6
30302	8e-05	1e-05	-4e-05	-9e-05	-0.00026	-0.0004	-7e-05	0.00013	6
30303	8e-05	1e-05	-4e-05	-9e-05	-0.00026	-0.0004	-7e-05	0.00013	6
30304	8e-05	1e-05	-4e-05	-9e-05	-0.00026	-0.0004	-7e-05	0.00013	6
30305	8e-05	1e-05	-4e-05	-9e-05	-0.00026	-0.0004	-7e-05	0.00013	6
30306	8e-05	1e-05	-4e-05	-9e-05	-0.00026	-0.0004	-7e-05	0.00013	6
30307	8e-05	1e-05	-4e-05	-9e-05	-0.00026	-0.0004	-7e-05	0.00013	6
30308	8e-05	1e-05	-4e-05	-9e-05	-0.00026	-0.0004	-7e-05	0.00013	6
30309	8e-05	1e-05	-4e-05	-9e-05	-0.00026	-0.0004	-7e-05	0.00013	6
30310	8e-05	1e-05	-4e-05	-9e-05	-0.00026	-0.0004	-7e-05	0.00013	6
30311	8e-05	1e-05	-4e-05	-9e-05	-0.00026	-0.0004	-7e-05	0.00013	6
30312	8e-05	1e-05	-4e-05	-9e-05	-0.00026	-0.0004	-7e-05	0.00013	6
30313	8e-05	1e-05	-4e-05	-9e-05	-0.00026	-0.0004	-7e-05	0.00013	6
30314	8e-05	1e-05	-4e-05	-9e-05	-0.00026	-0.0004	-7e-05	0.00013	6
30315	8e-05	1e-05	-4e-05	-9e-05	-0.00026	-0.0004	-7e-05	0.00013	6
30316	8e-05	1e-05	-4e-05	-9e-05	-0.00026	-0.0004	-7e-05	0.00013	6
30317	8e-05	1e-05	-4e-05	-9e-05	-0.00026	-0.0004	-7e-05	0.00013	6
30318	8e-05	1e-05	-4e-05	-9e-05	-0.00026	-0.0004	-7e-05	0.00013	6
30319	8e-05	1e-05	-4e-05	-9e-05	-0.00026	-0.0004	-7e-05	0.00013	6
30320	8e-05	1e-05	-4e-05	-9e-05	-0.00026	-0.0004	-7e-05	0.00013	6
30321	8e-05	1e-05	-4e-05	-9e-05	-0.00026	-0.0004	-7e-05	0.00013	6
30322	8e-05	1e-05	-4e-05	-9e-05	-0.00026	-0.0004	-7e-05	0.00013	6
30323	8e-05	1e-05	-4e-05	-9e-05	-0.00026	-0.0004	-7e-05	0.00013	6
30324	0.00012	2e-05	1e-05	0	-2e-05	2e-05	1e-05	0.00031	6
30325	0.00012	2e-05	1e-05	0	-2e-05	2e-05	1e-05	0.00031	6
30326	2e-05	-1e-05	-2e-05	3e-05	0.00033	0.00028	6e-05	0.00011	6
30327	2e-05	-1e-05	-2e-05	3e-05	0.00033	0.00028	6e-05	0.00011	6
30328	2e-05	-1e-05	-2e-05	3e-05	0.00033	0.00028	6e-05	0.00011	6
30329	2e-05	-1e-05	-2e-05	3e-05	0.00033	0.00028	6e-05	0.00011	6
30330	2e-05	-1e-05	-2e-05	3e-05	0.00033	0.00028	6e-05	0.00011	6
30331	-4e-05	-9e-05	-7e-05	-5e-05	-0.00016	-9e-05	-1e-05	-9e-05	6
30332	-4e-05	-9e-05	-7e-05	-5e-05	-0.00016	-9e-05	-1e-05	-9e-05	6
30333	-4e-05	-9e-05	-7e-05	-5e-05	-0.00016	-9e-05	-1e-05	-9e-05	6
30334	-4e-05	-9e-05	-7e-05	-5e-05	-0.00016	-9e-05	-1e-05	-9e-05	6
30335	-4e-05	-9e-05	-7e-05	-5e-05	-0.00016	-9e-05	-1e-05	-9e-05	6
30336	-4e-05	-9e-05	-7e-05	-5e-05	-0.00016	-9e-05	-1e-05	-9e-05	6
30339	-3e-05	0	-2e-05	-3e-05	-0.00019	-0.00029	0.00015	0.00012	6
30340	-3e-05	0	-2e-05	-3e-05	-0.00019	-0.00029	0.00015	0.00012	6
30341	-3e-05	0	-2e-05	-3e-05	-0.00019	-0.00029	0.00015	0.00012	6
30342	-3e-05	0	-2e-05	-3e-05	-0.00019	-0.00029	0.00015	0.00012	6
30343	-3e-05	0	-2e-05	-3e-05	-0.00019	-0.00029	0.00015	0.00012	6
30344	-3e-05	0	-2e-05	-3e-05	-0.00019	-0.00029	0.00015	0.00012	6
30345	-3e-05	0	-2e-05	-3e-05	-0.00019	-0.00029	0.00015	0.00012	6
30346	-3e-05	0	-2e-05	-3e-05	-0.00019	-0.00029	0.00015	0.00012	6
30347	-3e-05	0	-2e-05	-3e-05	-0.00019	-0.00029	0.00015	0.00012	6
30348	-3e-05	0	-2e-05	-3e-05	-0.00019	-0.00029	0.00015	0.00012	6
30349	-3e-05	0	-2e-05	-3e-05	-0.00019	-0.00029	0.00015	0.00012	6
30350	-3e-05	0	-2e-05	-3e-05	-0.00019	-0.00029	0.00015	0.00012	6
30351	-3e-05	0	-2e-05	-3e-05	-0.00019	-0.00029	0.00015	0.00012	6
30352	-3e-05	0	-2e-05	-3e-05	-0.00019	-0.00029	0.00015	0.00012	6
30353	-3e-05	0	-2e-05	-3e-05	-0.00019	-0.00029	0.00015	0.00012	6
30354	-8e-05	-1e-05	9e-05	-3e-05	-0.00021	-1e-05	-6e-05	-0.00015	6
30355	0.0001	3e-05	-8e-05	5e-05	0.0002	0.00026	7e-05	0.00019	6
30356	-4e-05	-4e-05	-1e-05	-8e-05	-0.00019	-0.00026	-0.00013	-4e-05	6
30357	-4e-05	-4e-05	-1e-05	-8e-05	-0.00019	-0.00026	-0.00013	-4e-05	6
30358	-4e-05	-4e-05	-1e-05	-8e-05	-0.00019	-0.00026	-0.00013	-4e-05	6
30359	-4e-05	-4e-05	-1e-05	-8e-05	-0.00019	-0.00026	-0.00013	-4e-05	6
30360	-4e-05	-4e-05	-1e-05	-8e-05	-0.00019	-0.00026	-0.00013	-4e-05	6
30361	-4e-05	-4e-05	-1e-05	-8e-05	-0.00019	-0.00026	-0.00013	-4e-05	6
30362	-4e-05	-4e-05	-1e-05	-8e-05	-0.00019	-0.00026	-0.00013	-4e-05	6
30363	-4e-05	-4e-05	-1e-05	-8e-05	-0.00019	-0.00026	-0.00013	-4e-05	6
30364	-4e-05	-4e-05	-1e-05	-8e-05	-0.00019	-0.00026	-0.00013	-4e-05	6
30365	-4e-05	-4e-05	-1e-05	-8e-05	-0.00019	-0.00026	-0.00013	-4e-05	6
30366	-4e-05	-4e-05	-1e-05	-8e-05	-0.00019	-0.00026	-0.00013	-4e-05	6
30367	-4e-05	-4e-05	-1e-05	-8e-05	-0.00019	-0.00026	-0.00013	-4e-05	6
30368	-4e-05	-4e-05	-1e-05	-8e-05	-0.00019	-0.00026	-0.00013	-4e-05	6
30369	-4e-05	-4e-05	-1e-05	-8e-05	-0.00019	-0.00026	-0.00013	-4e-05	6
30370	-4e-05	-4e-05	-1e-05	-8e-05	-0.00019	-0.00026	-0.00013	-4e-05	6
30371	-4e-05	-4e-05	-1e-05	-8e-05	-0.00019	-0.00026	-0.00013	-4e-05	6
30372	-4e-05	-4e-05	-1e-05	-8e-05	-0.00019	-0.00026	-0.00013	-4e-05	6
30373	-4e-05	-4e-05	-1e-05	-8e-05	-0.00019	-0.00026	-0.00013	-4e-05	6
30374	-4e-05	-4e-05	-1e-05	-8e-05	-0.00019	-0.00026	-0.00013	-4e-05	6
30375	-4e-05	-4e-05	-1e-05	-8e-05	-0.00019	-0.00026	-0.00013	-4e-05	6
30376	-4e-05	-4e-05	-1e-05	-8e-05	-0.00019	-0.00026	-0.00013	-4e-05	6
30377	-9e-05	-1e-05	-1e-05	6e-05	0.00019	-3e-05	-1e-05	-0.00013	6
30378	3e-05	-3e-05	-4e-05	-6e-05	-0.00014	-0.0001	-5e-05	-8e-05	6
30379	3e-05	-3e-05	-4e-05	-6e-05	-0.00014	-0.0001	-5e-05	-8e-05	6
30380	3e-05	-3e-05	-4e-05	-6e-05	-0.00014	-0.0001	-5e-05	-8e-05	6
30381	3e-05	-3e-05	-4e-05	-6e-05	-0.00014	-0.0001	-5e-05	-8e-05	6
30382	3e-05	-3e-05	-4e-05	-6e-05	-0.00014	-0.0001	-5e-05	-8e-05	6
30383	3e-05	-3e-05	-4e-05	-6e-05	-0.00014	-0.0001	-5e-05	-8e-05	6
30384	3e-05	-3e-05	-4e-05	-6e-05	-0.00014	-0.0001	-5e-05	-8e-05	6
30385	3e-05	-3e-05	-4e-05	-6e-05	-0.00014	-0.0001	-5e-05	-8e-05	6
30386	3e-05	-3e-05	-4e-05	-6e-05	-0.00014	-0.0001	-5e-05	-8e-05	6
30389	3e-05	-3e-05	-4e-05	-6e-05	-0.00014	-0.0001	-5e-05	-8e-05	6
30390	3e-05	-3e-05	-4e-05	-6e-05	-0.00014	-0.0001	-5e-05	-8e-05	6
30391	-7e-05	-1e-05	-5e-05	-5e-05	8e-05	0.00018	-0.0001	-4e-05	6
30392	-7e-05	-1e-05	-5e-05	-5e-05	8e-05	0.00018	-0.0001	-4e-05	6
30393	-7e-05	-1e-05	-5e-05	-5e-05	8e-05	0.00018	-0.0001	-4e-05	6
30394	-7e-05	-1e-05	-5e-05	-5e-05	8e-05	0.00018	-0.0001	-4e-05	6
30395	-7e-05	-1e-05	-5e-05	-5e-05	8e-05	0.00018	-0.0001	-4e-05	6
30396	-7e-05	-1e-05	-5e-05	-5e-05	8e-05	0.00018	-0.0001	-4e-05	6
30397	8e-05	2e-05	-2e-05	4e-05	5e-05	8e-05	-7e-05	0.00032	6
30398	8e-05	2e-05	-2e-05	4e-05	5e-05	8e-05	-7e-05	0.00032	6
30399	8e-05	2e-05	-2e-05	4e-05	5e-05	8e-05	-7e-05	0.00032	6
30400	8e-05	2e-05	-2e-05	4e-05	5e-05	8e-05	-7e-05	0.00032	6
30401	8e-05	2e-05	-2e-05	4e-05	5e-05	8e-05	-7e-05	0.00032	6
30402	8e-05	2e-05	-2e-05	4e-05	5e-05	8e-05	-7e-05	0.00032	6
30403	8e-05	2e-05	-2e-05	4e-05	5e-05	8e-05	-7e-05	0.00032	6
30404	8e-05	2e-05	-2e-05	4e-05	5e-05	8e-05	-7e-05	0.00032	6
30405	8e-05	2e-05	-2e-05	4e-05	5e-05	8e-05	-7e-05	0.00032	6
30406	8e-05	2e-05	-2e-05	4e-05	5e-05	8e-05	-7e-05	0.00032	6
30407	8e-05	2e-05	-2e-05	4e-05	5e-05	8e-05	-7e-05	0.00032	6
30408	8e-05	2e-05	-2e-05	4e-05	5e-05	8e-05	-7e-05	0.00032	6
30409	8e-05	2e-05	-2e-05	4e-05	5e-05	8e-05	-7e-05	0.00032	6
30410	8e-05	2e-05	-2e-05	4e-05	5e-05	8e-05	-7e-05	0.00032	6
30411	8e-05	2e-05	-2e-05	4e-05	5e-05	8e-05	-7e-05	0.00032	6
30412	8e-05	2e-05	-2e-05	4e-05	5e-05	8e-05	-7e-05	0.00032	6
30413	8e-05	2e-05	-2e-05	4e-05	5e-05	8e-05	-7e-05	0.00032	6
30414	-9e-05	-5e-05	-5e-05	-0.00011	-0.00025	-0.00014	-0.0001	-0.00018	6
30415	7e-05	-3e-05	-2e-05	0	1e-05	0.00028	0.00014	0.00021	6
30416	7e-05	-3e-05	-2e-05	0	1e-05	0.00028	0.00014	0.00021	6
30417	7e-05	-3e-05	-2e-05	0	1e-05	0.00028	0.00014	0.00021	6
30418	7e-05	-3e-05	-2e-05	0	1e-05	0.00028	0.00014	0.00021	6
30419	7e-05	-3e-05	-2e-05	0	1e-05	0.00028	0.00014	0.00021	6
30420	7e-05	-3e-05	-2e-05	0	1e-05	0.00028	0.00014	0.00021	6
30421	7e-05	-3e-05	-2e-05	0	1e-05	0.00028	0.00014	0.00021	6
30422	7e-05	-3e-05	-2e-05	0	1e-05	0.00028	0.00014	0.00021	6
30423	7e-05	-3e-05	-2e-05	0	1e-05	0.00028	0.00014	0.00021	6
30424	7e-05	-3e-05	-2e-05	0	1e-05	0.00028	0.00014	0.00021	6
30425	7e-05	-3e-05	-2e-05	0	1e-05	0.00028	0.00014	0.00021	6
30426	7e-05	-3e-05	-2e-05	0	1e-05	0.00028	0.00014	0.00021	6
30427	7e-05	-3e-05	-2e-05	0	1e-05	0.00028	0.00014	0.00021	6
30428	7e-05	-3e-05	-2e-05	0	1e-05	0.00028	0.00014	0.00021	6
30429	7e-05	-3e-05	-2e-05	0	1e-05	0.00028	0.00014	0.00021	6
30430	7e-05	-3e-05	-2e-05	0	1e-05	0.00028	0.00014	0.00021	6
30431	7e-05	-3e-05	-2e-05	0	1e-05	0.00028	0.00014	0.00021	6
30432	7e-05	-3e-05	-2e-05	0	1e-05	0.00028	0.00014	0.00021	6
30433	7e-05	-3e-05	-2e-05	0	1e-05	0.00028	0.00014	0.00021	6
30434	7e-05	-3e-05	-2e-05	0	1e-05	0.00028	0.00014	0.00021	6
30435	7e-05	-3e-05	-2e-05	0	1e-05	0.00028	0.00014	0.00021	6
30437	6e-05	4e-05	-2e-05	-5e-05	-0.00015	-0.00013	-8e-05	5e-05	6
30440	7e-05	4e-05	3e-05	1e-05	5e-05	0.00046	0.0002	0.00015	6
30441	7e-05	4e-05	3e-05	1e-05	5e-05	0.00046	0.0002	0.00015	6
30442	7e-05	4e-05	3e-05	1e-05	5e-05	0.00046	0.0002	0.00015	6
30443	7e-05	4e-05	3e-05	1e-05	5e-05	0.00046	0.0002	0.00015	6
30444	7e-05	4e-05	3e-05	1e-05	5e-05	0.00046	0.0002	0.00015	6
30445	7e-05	4e-05	3e-05	1e-05	5e-05	0.00046	0.0002	0.00015	6
30446	7e-05	4e-05	3e-05	1e-05	5e-05	0.00046	0.0002	0.00015	6
30447	7e-05	4e-05	3e-05	1e-05	5e-05	0.00046	0.0002	0.00015	6
30448	7e-05	4e-05	3e-05	1e-05	5e-05	0.00046	0.0002	0.00015	6
30449	7e-05	4e-05	3e-05	1e-05	5e-05	0.00046	0.0002	0.00015	6
30450	7e-05	4e-05	3e-05	1e-05	5e-05	0.00046	0.0002	0.00015	6
30451	7e-05	4e-05	3e-05	1e-05	5e-05	0.00046	0.0002	0.00015	6
30452	7e-05	4e-05	3e-05	1e-05	5e-05	0.00046	0.0002	0.00015	6
30453	7e-05	4e-05	3e-05	1e-05	5e-05	0.00046	0.0002	0.00015	6
30454	7e-05	4e-05	3e-05	1e-05	5e-05	0.00046	0.0002	0.00015	6
30455	7e-05	4e-05	3e-05	1e-05	5e-05	0.00046	0.0002	0.00015	6
30456	7e-05	4e-05	3e-05	1e-05	5e-05	0.00046	0.0002	0.00015	6
30457	7e-05	4e-05	3e-05	1e-05	5e-05	0.00046	0.0002	0.00015	6
30458	7e-05	4e-05	3e-05	1e-05	5e-05	0.00046	0.0002	0.00015	6
30459	6e-05	-3e-05	-3e-05	1e-05	-4e-05	0.00013	6e-05	0.00017	6
30461	-9e-05	0	-1e-05	1e-05	0.00015	3e-05	0	-0.00018	6
30462	-9e-05	0	-1e-05	1e-05	0.00015	3e-05	0	-0.00018	6
30463	-9e-05	0	-1e-05	1e-05	0.00015	3e-05	0	-0.00018	6
30464	-9e-05	0	-1e-05	1e-05	0.00015	3e-05	0	-0.00018	6
30465	-9e-05	0	-1e-05	1e-05	0.00015	3e-05	0	-0.00018	6
30466	-9e-05	0	-1e-05	1e-05	0.00015	3e-05	0	-0.00018	6
30467	-9e-05	0	-1e-05	1e-05	0.00015	3e-05	0	-0.00018	6
30468	-9e-05	0	-1e-05	1e-05	0.00015	3e-05	0	-0.00018	6
30469	-9e-05	0	-1e-05	1e-05	0.00015	3e-05	0	-0.00018	6
30470	-9e-05	0	-1e-05	1e-05	0.00015	3e-05	0	-0.00018	6
30471	-9e-05	0	-1e-05	1e-05	0.00015	3e-05	0	-0.00018	6
30472	-9e-05	0	-1e-05	1e-05	0.00015	3e-05	0	-0.00018	6
30473	-9e-05	0	-1e-05	1e-05	0.00015	3e-05	0	-0.00018	6
30474	-9e-05	0	-1e-05	1e-05	0.00015	3e-05	0	-0.00018	6
30475	-9e-05	0	-1e-05	1e-05	0.00015	3e-05	0	-0.00018	6
30476	-9e-05	0	-1e-05	1e-05	0.00015	3e-05	0	-0.00018	6
30477	-9e-05	0	-1e-05	1e-05	0.00015	3e-05	0	-0.00018	6
30478	-9e-05	0	-1e-05	1e-05	0.00015	3e-05	0	-0.00018	6
30479	-9e-05	0	-1e-05	1e-05	0.00015	3e-05	0	-0.00018	6
30480	-9e-05	0	-1e-05	1e-05	0.00015	3e-05	0	-0.00018	6
30481	-1e-05	1e-05	-3e-05	1e-05	0.00011	9e-05	4e-05	0	6
30482	-1e-05	1e-05	-3e-05	1e-05	0.00011	9e-05	4e-05	0	6
30483	-0.0001	-8e-05	-3e-05	-5e-05	-0.00012	-0.00012	-0.00019	-0.00017	6
30484	-0.0001	-8e-05	-3e-05	-5e-05	-0.00012	-0.00012	-0.00019	-0.00017	6
30485	-0.0001	-8e-05	-3e-05	-5e-05	-0.00012	-0.00012	-0.00019	-0.00017	6
30486	-0.0001	-8e-05	-3e-05	-5e-05	-0.00012	-0.00012	-0.00019	-0.00017	6
30489	-0.0001	-8e-05	-3e-05	-5e-05	-0.00012	-0.00012	-0.00019	-0.00017	6
30490	-0.0001	-8e-05	-3e-05	-5e-05	-0.00012	-0.00012	-0.00019	-0.00017	6
30491	-0.0001	-8e-05	-3e-05	-5e-05	-0.00012	-0.00012	-0.00019	-0.00017	6
30492	-0.0001	-8e-05	-3e-05	-5e-05	-0.00012	-0.00012	-0.00019	-0.00017	6
30493	-0.0001	-8e-05	-3e-05	-5e-05	-0.00012	-0.00012	-0.00019	-0.00017	6
30494	-0.0001	-8e-05	-3e-05	-5e-05	-0.00012	-0.00012	-0.00019	-0.00017	6
30495	-0.0001	-8e-05	-3e-05	-5e-05	-0.00012	-0.00012	-0.00019	-0.00017	6
30496	-0.0001	-8e-05	-3e-05	-5e-05	-0.00012	-0.00012	-0.00019	-0.00017	6
30497	3e-05	-4e-05	1e-05	4e-05	1e-05	-2e-05	3e-05	0.00051	6
30498	0	3e-05	-4e-05	-3e-05	-0.00017	-0.00012	-3e-05	-7e-05	6
30499	0	3e-05	-4e-05	-3e-05	-0.00017	-0.00012	-3e-05	-7e-05	6
30500	0	3e-05	-4e-05	-3e-05	-0.00017	-0.00012	-3e-05	-7e-05	6
30501	0	3e-05	-4e-05	-3e-05	-0.00017	-0.00012	-3e-05	-7e-05	6
30502	0	3e-05	-4e-05	-3e-05	-0.00017	-0.00012	-3e-05	-7e-05	6
30503	0	3e-05	-4e-05	-3e-05	-0.00017	-0.00012	-3e-05	-7e-05	6
30504	0	3e-05	-4e-05	-3e-05	-0.00017	-0.00012	-3e-05	-7e-05	6
30505	0	3e-05	-4e-05	-3e-05	-0.00017	-0.00012	-3e-05	-7e-05	6
30506	0	3e-05	-4e-05	-3e-05	-0.00017	-0.00012	-3e-05	-7e-05	6
30507	0	3e-05	-4e-05	-3e-05	-0.00017	-0.00012	-3e-05	-7e-05	6
30508	0	3e-05	-4e-05	-3e-05	-0.00017	-0.00012	-3e-05	-7e-05	6
30509	0	3e-05	-4e-05	-3e-05	-0.00017	-0.00012	-3e-05	-7e-05	6
30510	-8e-05	-1e-05	3e-05	7e-05	0.00019	9e-05	0	-0.00042	6
30511	-8e-05	-1e-05	3e-05	7e-05	0.00019	9e-05	0	-0.00042	6
30512	-8e-05	-1e-05	3e-05	7e-05	0.00019	9e-05	0	-0.00042	6
30513	-8e-05	-1e-05	3e-05	7e-05	0.00019	9e-05	0	-0.00042	6
30514	-8e-05	-1e-05	3e-05	7e-05	0.00019	9e-05	0	-0.00042	6
30515	-8e-05	-1e-05	3e-05	7e-05	0.00019	9e-05	0	-0.00042	6
30516	-8e-05	-1e-05	3e-05	7e-05	0.00019	9e-05	0	-0.00042	6
30517	-8e-05	-1e-05	3e-05	7e-05	0.00019	9e-05	0	-0.00042	6
30518	-8e-05	-1e-05	3e-05	7e-05	0.00019	9e-05	0	-0.00042	6
30519	-8e-05	-1e-05	3e-05	7e-05	0.00019	9e-05	0	-0.00042	6
30520	-8e-05	-1e-05	3e-05	7e-05	0.00019	9e-05	0	-0.00042	6
30521	-8e-05	-1e-05	3e-05	7e-05	0.00019	9e-05	0	-0.00042	6
30522	-8e-05	-1e-05	3e-05	7e-05	0.00019	9e-05	0	-0.00042	6
30523	-8e-05	-1e-05	3e-05	7e-05	0.00019	9e-05	0	-0.00042	6
30524	-8e-05	-1e-05	3e-05	7e-05	0.00019	9e-05	0	-0.00042	6
30525	-8e-05	-1e-05	3e-05	7e-05	0.00019	9e-05	0	-0.00042	6
30526	-8e-05	-1e-05	3e-05	7e-05	0.00019	9e-05	0	-0.00042	6
30527	-4e-05	1e-05	5e-05	1e-05	-3e-05	-5e-05	8e-05	0.00013	6
30528	-4e-05	1e-05	5e-05	1e-05	-3e-05	-5e-05	8e-05	0.00013	6
30529	-4e-05	1e-05	5e-05	1e-05	-3e-05	-5e-05	8e-05	0.00013	6
30530	-4e-05	1e-05	5e-05	1e-05	-3e-05	-5e-05	8e-05	0.00013	6
30531	-4e-05	1e-05	5e-05	1e-05	-3e-05	-5e-05	8e-05	0.00013	6
30532	-4e-05	1e-05	5e-05	1e-05	-3e-05	-5e-05	8e-05	0.00013	6
30533	-4e-05	1e-05	5e-05	1e-05	-3e-05	-5e-05	8e-05	0.00013	6
30534	0	4e-05	1e-05	-6e-05	-0.00015	-0.00015	-1e-05	-0.00023	6
30535	-5e-05	0	1e-05	-1e-05	4e-05	-0.00052	-0.00019	-0.00039	6
30536	-5e-05	0	1e-05	-1e-05	4e-05	-0.00052	-0.00019	-0.00039	6
30538	-5e-05	0	1e-05	-1e-05	4e-05	-0.00052	-0.00019	-0.00039	6
30539	-5e-05	0	1e-05	-1e-05	4e-05	-0.00052	-0.00019	-0.00039	6
30540	-5e-05	0	1e-05	-1e-05	4e-05	-0.00052	-0.00019	-0.00039	6
30541	-5e-05	0	1e-05	-1e-05	4e-05	-0.00052	-0.00019	-0.00039	6
30542	-5e-05	0	1e-05	-1e-05	4e-05	-0.00052	-0.00019	-0.00039	6
30543	-5e-05	0	1e-05	-1e-05	4e-05	-0.00052	-0.00019	-0.00039	6
30544	-5e-05	0	1e-05	-1e-05	4e-05	-0.00052	-0.00019	-0.00039	6
30545	-5e-05	0	1e-05	-1e-05	4e-05	-0.00052	-0.00019	-0.00039	6
30546	-5e-05	0	1e-05	-1e-05	4e-05	-0.00052	-0.00019	-0.00039	6
30547	-5e-05	0	1e-05	-1e-05	4e-05	-0.00052	-0.00019	-0.00039	6
30548	-5e-05	0	1e-05	-1e-05	4e-05	-0.00052	-0.00019	-0.00039	6
30549	-5e-05	0	1e-05	-1e-05	4e-05	-0.00052	-0.00019	-0.00039	6
30550	-5e-05	0	1e-05	-1e-05	4e-05	-0.00052	-0.00019	-0.00039	6
30551	-5e-05	0	1e-05	-1e-05	4e-05	-0.00052	-0.00019	-0.00039	6
30552	-5e-05	0	1e-05	-1e-05	4e-05	-0.00052	-0.00019	-0.00039	6
30553	-5e-05	0	1e-05	-1e-05	4e-05	-0.00052	-0.00019	-0.00039	6
30554	-5e-05	0	1e-05	-1e-05	4e-05	-0.00052	-0.00019	-0.00039	6
30555	-5e-05	0	1e-05	-1e-05	4e-05	-0.00052	-0.00019	-0.00039	6
30556	-1e-05	-0.0001	-4e-05	2e-05	0.00016	6e-05	0.00012	0.00055	6
30557	-1e-05	-0.0001	-4e-05	2e-05	0.00016	6e-05	0.00012	0.00055	6
30558	2e-05	0	-3e-05	2e-05	0.00014	0.00022	5e-05	2e-05	6
30559	2e-05	0	-3e-05	2e-05	0.00014	0.00022	5e-05	2e-05	6
30560	2e-05	0	-3e-05	2e-05	0.00014	0.00022	5e-05	2e-05	6
30561	2e-05	0	-3e-05	2e-05	0.00014	0.00022	5e-05	2e-05	6
30562	2e-05	0	-3e-05	2e-05	0.00014	0.00022	5e-05	2e-05	6
30563	2e-05	0	-3e-05	2e-05	0.00014	0.00022	5e-05	2e-05	6
30564	2e-05	0	-3e-05	2e-05	0.00014	0.00022	5e-05	2e-05	6
30565	2e-05	0	-3e-05	2e-05	0.00014	0.00022	5e-05	2e-05	6
30566	2e-05	0	-3e-05	2e-05	0.00014	0.00022	5e-05	2e-05	6
30567	2e-05	0	-3e-05	2e-05	0.00014	0.00022	5e-05	2e-05	6
30568	2e-05	0	-3e-05	2e-05	0.00014	0.00022	5e-05	2e-05	6
30569	2e-05	0	-3e-05	2e-05	0.00014	0.00022	5e-05	2e-05	6
30570	-9e-05	-6e-05	-2e-05	0	-6e-05	-3e-05	-0.00022	-0.00039	6
30571	-9e-05	-6e-05	-2e-05	0	-6e-05	-3e-05	-0.00022	-0.00039	6
30572	-9e-05	-6e-05	-2e-05	0	-6e-05	-3e-05	-0.00022	-0.00039	6
30573	-9e-05	-6e-05	-2e-05	0	-6e-05	-3e-05	-0.00022	-0.00039	6
30574	-9e-05	-6e-05	-2e-05	0	-6e-05	-3e-05	-0.00022	-0.00039	6
30575	-9e-05	-6e-05	-2e-05	0	-6e-05	-3e-05	-0.00022	-0.00039	6
30576	-9e-05	-6e-05	-2e-05	0	-6e-05	-3e-05	-0.00022	-0.00039	6
30577	-9e-05	-6e-05	-2e-05	0	-6e-05	-3e-05	-0.00022	-0.00039	6
30578	-9e-05	-6e-05	-2e-05	0	-6e-05	-3e-05	-0.00022	-0.00039	6
30579	8e-05	-1e-05	1e-05	4e-05	9e-05	0.00037	2e-05	4e-05	6
30580	8e-05	-1e-05	1e-05	4e-05	9e-05	0.00037	2e-05	4e-05	6
30581	8e-05	-1e-05	1e-05	4e-05	9e-05	0.00037	2e-05	4e-05	6
30582	8e-05	-1e-05	1e-05	4e-05	9e-05	0.00037	2e-05	4e-05	6
30583	8e-05	-1e-05	1e-05	4e-05	9e-05	0.00037	2e-05	4e-05	6
30584	8e-05	-1e-05	1e-05	4e-05	9e-05	0.00037	2e-05	4e-05	6
30585	8e-05	-1e-05	1e-05	4e-05	9e-05	0.00037	2e-05	4e-05	6
30586	8e-05	-1e-05	1e-05	4e-05	9e-05	0.00037	2e-05	4e-05	6
30588	8e-05	-1e-05	1e-05	4e-05	9e-05	0.00037	2e-05	4e-05	6
30589	8e-05	-1e-05	1e-05	4e-05	9e-05	0.00037	2e-05	4e-05	6
30590	8e-05	-1e-05	1e-05	4e-05	9e-05	0.00037	2e-05	4e-05	6
30591	8e-05	-1e-05	1e-05	4e-05	9e-05	0.00037	2e-05	4e-05	6
30592	8e-05	-1e-05	1e-05	4e-05	9e-05	0.00037	2e-05	4e-05	6
30593	8e-05	-1e-05	1e-05	4e-05	9e-05	0.00037	2e-05	4e-05	6
30594	0	0	0	6e-05	0.00011	0.0001	2e-05	-8e-05	6
30595	0	0	0	6e-05	0.00011	0.0001	2e-05	-8e-05	6
30596	0	0	0	6e-05	0.00011	0.0001	2e-05	-8e-05	6
30597	0	0	0	6e-05	0.00011	0.0001	2e-05	-8e-05	6
30598	0	0	0	6e-05	0.00011	0.0001	2e-05	-8e-05	6
30599	0	0	0	6e-05	0.00011	0.0001	2e-05	-8e-05	6
30600	-5e-05	-7e-05	-3e-05	-5e-05	0.0001	-0.00012	9e-05	6e-05	6
30601	-5e-05	-7e-05	-3e-05	-5e-05	0.0001	-0.00012	9e-05	6e-05	6
30602	-5e-05	-7e-05	-3e-05	-5e-05	0.0001	-0.00012	9e-05	6e-05	6
30603	-5e-05	-7e-05	-3e-05	-5e-05	0.0001	-0.00012	9e-05	6e-05	6
30604	-5e-05	-7e-05	-3e-05	-5e-05	0.0001	-0.00012	9e-05	6e-05	6
30605	-5e-05	-7e-05	-3e-05	-5e-05	0.0001	-0.00012	9e-05	6e-05	6
30606	-5e-05	-7e-05	-3e-05	-5e-05	0.0001	-0.00012	9e-05	6e-05	6
30607	-5e-05	-7e-05	-3e-05	-5e-05	0.0001	-0.00012	9e-05	6e-05	6
30608	-5e-05	-7e-05	-3e-05	-5e-05	0.0001	-0.00012	9e-05	6e-05	6
30609	-5e-05	-7e-05	-3e-05	-5e-05	0.0001	-0.00012	9e-05	6e-05	6
30610	-5e-05	-7e-05	-3e-05	-5e-05	0.0001	-0.00012	9e-05	6e-05	6
30611	-5e-05	-7e-05	-3e-05	-5e-05	0.0001	-0.00012	9e-05	6e-05	6
30612	-5e-05	-7e-05	-3e-05	-5e-05	0.0001	-0.00012	9e-05	6e-05	6
30613	-5e-05	-7e-05	-3e-05	-5e-05	0.0001	-0.00012	9e-05	6e-05	6
30614	-5e-05	-7e-05	-3e-05	-5e-05	0.0001	-0.00012	9e-05	6e-05	6
30615	-5e-05	-7e-05	-3e-05	-5e-05	0.0001	-0.00012	9e-05	6e-05	6
30616	-6e-05	-6e-05	-1e-05	-1e-05	-0.00013	-0.00012	5e-05	8e-05	6
30617	-6e-05	-6e-05	-1e-05	-1e-05	-0.00013	-0.00012	5e-05	8e-05	6
30618	0.0001	4e-05	6e-05	5e-05	-8e-05	-2e-05	4e-05	0.00044	6
30619	0.0001	4e-05	6e-05	5e-05	-8e-05	-2e-05	4e-05	0.00044	6
30620	0.0001	4e-05	6e-05	5e-05	-8e-05	-2e-05	4e-05	0.00044	6
30621	0.0001	4e-05	6e-05	5e-05	-8e-05	-2e-05	4e-05	0.00044	6
30622	0.0001	4e-05	6e-05	5e-05	-8e-05	-2e-05	4e-05	0.00044	6
30623	0.0001	4e-05	6e-05	5e-05	-8e-05	-2e-05	4e-05	0.00044	6
30624	0.0001	4e-05	6e-05	5e-05	-8e-05	-2e-05	4e-05	0.00044	6
30625	0.0001	4e-05	6e-05	5e-05	-8e-05	-2e-05	4e-05	0.00044	6
30626	0.0001	4e-05	6e-05	5e-05	-8e-05	-2e-05	4e-05	0.00044	6
30627	0.0001	4e-05	6e-05	5e-05	-8e-05	-2e-05	4e-05	0.00044	6
30628	0.0001	4e-05	6e-05	5e-05	-8e-05	-2e-05	4e-05	0.00044	6
30629	0.0001	4e-05	6e-05	5e-05	-8e-05	-2e-05	4e-05	0.00044	6
30630	0.0001	4e-05	-2e-05	-9e-05	-0.00025	-7e-05	-8e-05	0	6
30631	0.0001	4e-05	-2e-05	-9e-05	-0.00025	-7e-05	-8e-05	0	6
30632	0.0001	4e-05	-2e-05	-9e-05	-0.00025	-7e-05	-8e-05	0	6
30633	0.0001	4e-05	-2e-05	-9e-05	-0.00025	-7e-05	-8e-05	0	6
30634	0.0001	4e-05	-2e-05	-9e-05	-0.00025	-7e-05	-8e-05	0	6
30635	0.0001	4e-05	-2e-05	-9e-05	-0.00025	-7e-05	-8e-05	0	6
30636	0.0001	4e-05	-2e-05	-9e-05	-0.00025	-7e-05	-8e-05	0	6
30638	0.0001	4e-05	-2e-05	-9e-05	-0.00025	-7e-05	-8e-05	0	6
30639	0.0001	4e-05	-2e-05	-9e-05	-0.00025	-7e-05	-8e-05	0	6
30640	0.0001	4e-05	-2e-05	-9e-05	-0.00025	-7e-05	-8e-05	0	6
30641	0.0001	4e-05	-2e-05	-9e-05	-0.00025	-7e-05	-8e-05	0	6
30642	0.0001	4e-05	-2e-05	-9e-05	-0.00025	-7e-05	-8e-05	0	6
30643	0.0001	4e-05	-2e-05	-9e-05	-0.00025	-7e-05	-8e-05	0	6
30644	0.0001	4e-05	-2e-05	-9e-05	-0.00025	-7e-05	-8e-05	0	6
30645	0.0001	4e-05	-2e-05	-9e-05	-0.00025	-7e-05	-8e-05	0	6
30646	0.0001	4e-05	-2e-05	-9e-05	-0.00025	-7e-05	-8e-05	0	6
30647	0.0001	4e-05	-2e-05	-9e-05	-0.00025	-7e-05	-8e-05	0	6
30648	0.0001	4e-05	-2e-05	-9e-05	-0.00025	-7e-05	-8e-05	0	6
30649	0.0001	4e-05	-2e-05	-9e-05	-0.00025	-7e-05	-8e-05	0	6
30650	0.0001	4e-05	-2e-05	-9e-05	-0.00025	-7e-05	-8e-05	0	6
30651	0.0001	4e-05	-2e-05	-9e-05	-0.00025	-7e-05	-8e-05	0	6
30652	0.0001	4e-05	-2e-05	-9e-05	-0.00025	-7e-05	-8e-05	0	6
30653	0.0001	4e-05	-2e-05	-9e-05	-0.00025	-7e-05	-8e-05	0	6
30654	0.0001	4e-05	-2e-05	-9e-05	-0.00025	-7e-05	-8e-05	0	6
30655	0.0001	4e-05	-2e-05	-9e-05	-0.00025	-7e-05	-8e-05	0	6
30656	-6e-05	0	-3e-05	2e-05	-2e-05	0	-7e-05	-0.00015	6
30657	4e-05	4e-05	2e-05	7e-05	0.00026	0.00022	-4e-05	0.00026	6
30658	4e-05	4e-05	2e-05	7e-05	0.00026	0.00022	-4e-05	0.00026	6
30659	4e-05	4e-05	2e-05	7e-05	0.00026	0.00022	-4e-05	0.00026	6
30660	9e-05	5e-05	3e-05	-3e-05	-0.00018	-0.00037	-1e-05	6e-05	6
30661	-2e-05	1e-05	1e-05	-2e-05	-0.0003	-0.00022	-4e-05	-0.00013	6
30662	-2e-05	1e-05	1e-05	-2e-05	-0.0003	-0.00022	-4e-05	-0.00013	6
30663	-2e-05	1e-05	1e-05	-2e-05	-0.0003	-0.00022	-4e-05	-0.00013	6
30664	-2e-05	1e-05	1e-05	-2e-05	-0.0003	-0.00022	-4e-05	-0.00013	6
30665	-2e-05	1e-05	1e-05	-2e-05	-0.0003	-0.00022	-4e-05	-0.00013	6
30666	-2e-05	1e-05	1e-05	-2e-05	-0.0003	-0.00022	-4e-05	-0.00013	6
30667	-2e-05	1e-05	1e-05	-2e-05	-0.0003	-0.00022	-4e-05	-0.00013	6
30668	-2e-05	1e-05	1e-05	-2e-05	-0.0003	-0.00022	-4e-05	-0.00013	6
30669	-2e-05	1e-05	1e-05	-2e-05	-0.0003	-0.00022	-4e-05	-0.00013	6
30670	-2e-05	1e-05	1e-05	-2e-05	-0.0003	-0.00022	-4e-05	-0.00013	6
30671	-2e-05	1e-05	1e-05	-2e-05	-0.0003	-0.00022	-4e-05	-0.00013	6
30672	-2e-05	1e-05	1e-05	-2e-05	-0.0003	-0.00022	-4e-05	-0.00013	6
30673	-2e-05	1e-05	1e-05	-2e-05	-0.0003	-0.00022	-4e-05	-0.00013	6
30674	-2e-05	1e-05	1e-05	-2e-05	-0.0003	-0.00022	-4e-05	-0.00013	6
30675	-2e-05	1e-05	1e-05	-2e-05	-0.0003	-0.00022	-4e-05	-0.00013	6
30676	1e-05	-3e-05	0	-9e-05	-0.00027	-0.00033	-4e-05	-7e-05	6
30677	1e-05	-3e-05	0	-9e-05	-0.00027	-0.00033	-4e-05	-7e-05	6
30678	-8e-05	-7e-05	-6e-05	-5e-05	5e-05	-2e-05	-5e-05	-0.00012	6
30679	-8e-05	-7e-05	-6e-05	-5e-05	5e-05	-2e-05	-5e-05	-0.00012	6
30680	-8e-05	-7e-05	-6e-05	-5e-05	5e-05	-2e-05	-5e-05	-0.00012	6
30681	-8e-05	-7e-05	-6e-05	-5e-05	5e-05	-2e-05	-5e-05	-0.00012	6
30682	-8e-05	-7e-05	-6e-05	-5e-05	5e-05	-2e-05	-5e-05	-0.00012	6
30683	-8e-05	-7e-05	-6e-05	-5e-05	5e-05	-2e-05	-5e-05	-0.00012	6
30684	-8e-05	-7e-05	-6e-05	-5e-05	5e-05	-2e-05	-5e-05	-0.00012	6
30685	-8e-05	-7e-05	-6e-05	-5e-05	5e-05	-2e-05	-5e-05	-0.00012	6
30686	-8e-05	-7e-05	-6e-05	-5e-05	5e-05	-2e-05	-5e-05	-0.00012	6
30689	-8e-05	-7e-05	-6e-05	-5e-05	5e-05	-2e-05	-5e-05	-0.00012	6
30690	5e-05	7e-05	9e-05	5e-05	4e-05	7e-05	0	5e-05	6
30691	5e-05	7e-05	9e-05	5e-05	4e-05	7e-05	0	5e-05	6
30692	5e-05	7e-05	9e-05	5e-05	4e-05	7e-05	0	5e-05	6
30693	5e-05	7e-05	9e-05	5e-05	4e-05	7e-05	0	5e-05	6
30694	5e-05	7e-05	9e-05	5e-05	4e-05	7e-05	0	5e-05	6
30695	5e-05	7e-05	9e-05	5e-05	4e-05	7e-05	0	5e-05	6
30696	5e-05	7e-05	9e-05	5e-05	4e-05	7e-05	0	5e-05	6
30697	5e-05	7e-05	9e-05	5e-05	4e-05	7e-05	0	5e-05	6
30698	5e-05	7e-05	9e-05	5e-05	4e-05	7e-05	0	5e-05	6
30699	-6e-05	-1e-05	-4e-05	-5e-05	-8e-05	-2e-05	-5e-05	-0.00036	6
30700	-6e-05	-1e-05	-4e-05	-5e-05	-8e-05	-2e-05	-5e-05	-0.00036	6
30701	-6e-05	-1e-05	-4e-05	-5e-05	-8e-05	-2e-05	-5e-05	-0.00036	6
30702	-6e-05	-1e-05	-4e-05	-5e-05	-8e-05	-2e-05	-5e-05	-0.00036	6
30703	-6e-05	-1e-05	-4e-05	-5e-05	-8e-05	-2e-05	-5e-05	-0.00036	6
30704	-6e-05	-1e-05	-4e-05	-5e-05	-8e-05	-2e-05	-5e-05	-0.00036	6
30705	-6e-05	-1e-05	-4e-05	-5e-05	-8e-05	-2e-05	-5e-05	-0.00036	6
30706	-6e-05	-1e-05	-4e-05	-5e-05	-8e-05	-2e-05	-5e-05	-0.00036	6
30707	-6e-05	-1e-05	-4e-05	-5e-05	-8e-05	-2e-05	-5e-05	-0.00036	6
30708	-6e-05	-1e-05	-4e-05	-5e-05	-8e-05	-2e-05	-5e-05	-0.00036	6
30709	-6e-05	-1e-05	-4e-05	-5e-05	-8e-05	-2e-05	-5e-05	-0.00036	6
30710	-6e-05	-1e-05	-4e-05	-5e-05	-8e-05	-2e-05	-5e-05	-0.00036	6
30711	-6e-05	-1e-05	-4e-05	-5e-05	-8e-05	-2e-05	-5e-05	-0.00036	6
30712	-6e-05	-1e-05	-4e-05	-5e-05	-8e-05	-2e-05	-5e-05	-0.00036	6
30713	-6e-05	-1e-05	-4e-05	-5e-05	-8e-05	-2e-05	-5e-05	-0.00036	6
30714	0.00014	0	2e-05	-1e-05	-0.00025	0.00015	0.00013	0.00076	6
30715	6e-05	1e-05	-2e-05	0	0.00013	-9e-05	-3e-05	-2e-05	6
30716	6e-05	1e-05	-2e-05	0	0.00013	-9e-05	-3e-05	-2e-05	6
30717	6e-05	1e-05	-2e-05	0	0.00013	-9e-05	-3e-05	-2e-05	6
30718	6e-05	1e-05	-2e-05	0	0.00013	-9e-05	-3e-05	-2e-05	6
30719	6e-05	1e-05	-2e-05	0	0.00013	-9e-05	-3e-05	-2e-05	6
30720	6e-05	1e-05	-2e-05	0	0.00013	-9e-05	-3e-05	-2e-05	6
30721	6e-05	1e-05	-2e-05	0	0.00013	-9e-05	-3e-05	-2e-05	6
30722	6e-05	1e-05	-2e-05	0	0.00013	-9e-05	-3e-05	-2e-05	6
30723	6e-05	1e-05	-2e-05	0	0.00013	-9e-05	-3e-05	-2e-05	6
30724	6e-05	1e-05	-2e-05	0	0.00013	-9e-05	-3e-05	-2e-05	6
30725	6e-05	1e-05	-2e-05	0	0.00013	-9e-05	-3e-05	-2e-05	6
30726	6e-05	1e-05	-2e-05	0	0.00013	-9e-05	-3e-05	-2e-05	6
30727	6e-05	1e-05	-2e-05	0	0.00013	-9e-05	-3e-05	-2e-05	6
30728	6e-05	1e-05	-2e-05	0	0.00013	-9e-05	-3e-05	-2e-05	6
30729	6e-05	1e-05	-2e-05	0	0.00013	-9e-05	-3e-05	-2e-05	6
30730	6e-05	1e-05	-2e-05	0	0.00013	-9e-05	-3e-05	-2e-05	6
30731	6e-05	1e-05	-2e-05	0	0.00013	-9e-05	-3e-05	-2e-05	6
30732	6e-05	1e-05	-2e-05	0	0.00013	-9e-05	-3e-05	-2e-05	6
30733	6e-05	1e-05	-2e-05	0	0.00013	-9e-05	-3e-05	-2e-05	6
30734	6e-05	1e-05	-2e-05	0	0.00013	-9e-05	-3e-05	-2e-05	6
30735	6e-05	1e-05	-2e-05	0	0.00013	-9e-05	-3e-05	-2e-05	6
30736	-8e-05	-5e-05	2e-05	-1e-05	7e-05	2e-05	-2e-05	-6e-05	6
30738	1e-05	-4e-05	-2e-05	3e-05	0.0001	-7e-05	-6e-05	0.00015	6
30740	1e-05	-4e-05	-2e-05	3e-05	0.0001	-7e-05	-6e-05	0.00015	6
30741	1e-05	-4e-05	-2e-05	3e-05	0.0001	-7e-05	-6e-05	0.00015	6
30742	1e-05	-4e-05	-2e-05	3e-05	0.0001	-7e-05	-6e-05	0.00015	6
30743	1e-05	-4e-05	-2e-05	3e-05	0.0001	-7e-05	-6e-05	0.00015	6
30744	1e-05	-4e-05	-2e-05	3e-05	0.0001	-7e-05	-6e-05	0.00015	6
30745	1e-05	-4e-05	-2e-05	3e-05	0.0001	-7e-05	-6e-05	0.00015	6
30746	1e-05	-4e-05	-2e-05	3e-05	0.0001	-7e-05	-6e-05	0.00015	6
30747	1e-05	-4e-05	-2e-05	3e-05	0.0001	-7e-05	-6e-05	0.00015	6
30748	1e-05	-4e-05	-2e-05	3e-05	0.0001	-7e-05	-6e-05	0.00015	6
30749	1e-05	-4e-05	-2e-05	3e-05	0.0001	-7e-05	-6e-05	0.00015	6
30750	-0.00019	-8e-05	2e-05	2e-05	-3e-05	-0.00013	1e-05	-9e-05	6
30751	-0.00019	-8e-05	2e-05	2e-05	-3e-05	-0.00013	1e-05	-9e-05	6
30752	-0.00019	-8e-05	2e-05	2e-05	-3e-05	-0.00013	1e-05	-9e-05	6
30753	-0.00019	-8e-05	2e-05	2e-05	-3e-05	-0.00013	1e-05	-9e-05	6
30754	-0.00019	-8e-05	2e-05	2e-05	-3e-05	-0.00013	1e-05	-9e-05	6
30755	-0.00019	-8e-05	2e-05	2e-05	-3e-05	-0.00013	1e-05	-9e-05	6
30756	-0.00019	-8e-05	2e-05	2e-05	-3e-05	-0.00013	1e-05	-9e-05	6
30757	-0.00019	-8e-05	2e-05	2e-05	-3e-05	-0.00013	1e-05	-9e-05	6
30758	-0.00019	-8e-05	2e-05	2e-05	-3e-05	-0.00013	1e-05	-9e-05	6
30759	-7e-05	-3e-05	-2e-05	-3e-05	4e-05	0.00012	-3e-05	-3e-05	6
30760	-7e-05	-3e-05	-2e-05	-3e-05	4e-05	0.00012	-3e-05	-3e-05	6
30761	-7e-05	-3e-05	-2e-05	-3e-05	4e-05	0.00012	-3e-05	-3e-05	6
30762	-7e-05	-3e-05	-2e-05	-3e-05	4e-05	0.00012	-3e-05	-3e-05	6
30763	-7e-05	-3e-05	-2e-05	-3e-05	4e-05	0.00012	-3e-05	-3e-05	6
30764	-7e-05	-3e-05	-2e-05	-3e-05	4e-05	0.00012	-3e-05	-3e-05	6
30765	-7e-05	-3e-05	-2e-05	-3e-05	4e-05	0.00012	-3e-05	-3e-05	6
30766	-7e-05	-3e-05	-2e-05	-3e-05	4e-05	0.00012	-3e-05	-3e-05	6
30767	-7e-05	-3e-05	-2e-05	-3e-05	4e-05	0.00012	-3e-05	-3e-05	6
30768	-7e-05	-3e-05	-2e-05	-3e-05	4e-05	0.00012	-3e-05	-3e-05	6
30769	-7e-05	-3e-05	-2e-05	-3e-05	4e-05	0.00012	-3e-05	-3e-05	6
30770	-7e-05	-3e-05	-2e-05	-3e-05	4e-05	0.00012	-3e-05	-3e-05	6
30771	-7e-05	-3e-05	-2e-05	-3e-05	4e-05	0.00012	-3e-05	-3e-05	6
30772	-7e-05	-3e-05	-2e-05	-3e-05	4e-05	0.00012	-3e-05	-3e-05	6
30773	-7e-05	-3e-05	-2e-05	-3e-05	4e-05	0.00012	-3e-05	-3e-05	6
30774	-2e-05	3e-05	1e-05	0	6e-05	-1e-05	-9e-05	-0.00028	6
30775	0	-1e-05	5e-05	-2e-05	-9e-05	7e-05	2e-05	0.00012	6
30776	0	-1e-05	5e-05	-2e-05	-9e-05	7e-05	2e-05	0.00012	6
30777	0	-1e-05	5e-05	-2e-05	-9e-05	7e-05	2e-05	0.00012	6
30778	0	-1e-05	5e-05	-2e-05	-9e-05	7e-05	2e-05	0.00012	6
30779	0	-1e-05	5e-05	-2e-05	-9e-05	7e-05	2e-05	0.00012	6
30780	0	-1e-05	5e-05	-2e-05	-9e-05	7e-05	2e-05	0.00012	6
30781	0	-1e-05	5e-05	-2e-05	-9e-05	7e-05	2e-05	0.00012	6
30782	0	-1e-05	5e-05	-2e-05	-9e-05	7e-05	2e-05	0.00012	6
30783	0	-1e-05	5e-05	-2e-05	-9e-05	7e-05	2e-05	0.00012	6
30784	0	-1e-05	5e-05	-2e-05	-9e-05	7e-05	2e-05	0.00012	6
30785	0	-1e-05	5e-05	-2e-05	-9e-05	7e-05	2e-05	0.00012	6
30786	0	-1e-05	5e-05	-2e-05	-9e-05	7e-05	2e-05	0.00012	6
30788	0	-1e-05	5e-05	-2e-05	-9e-05	7e-05	2e-05	0.00012	6
30790	0	-1e-05	5e-05	-2e-05	-9e-05	7e-05	2e-05	0.00012	6
30791	0	-1e-05	5e-05	-2e-05	-9e-05	7e-05	2e-05	0.00012	6
30792	0	-1e-05	5e-05	-2e-05	-9e-05	7e-05	2e-05	0.00012	6
30793	0	-1e-05	5e-05	-2e-05	-9e-05	7e-05	2e-05	0.00012	6
30794	0	-1e-05	5e-05	-2e-05	-9e-05	7e-05	2e-05	0.00012	6
30795	0	-1e-05	5e-05	-2e-05	-9e-05	7e-05	2e-05	0.00012	6
30796	0.00012	1e-05	4e-05	5e-05	0.0003	0.00037	0.00015	0.00044	6
30797	0.00012	1e-05	4e-05	5e-05	0.0003	0.00037	0.00015	0.00044	6
30798	-3e-05	-4e-05	-6e-05	-6e-05	-0.00022	-0.00017	-4e-05	-3e-05	6
30799	-3e-05	-4e-05	-6e-05	-6e-05	-0.00022	-0.00017	-4e-05	-3e-05	6
30800	-3e-05	-4e-05	-6e-05	-6e-05	-0.00022	-0.00017	-4e-05	-3e-05	6
30801	-3e-05	-4e-05	-6e-05	-6e-05	-0.00022	-0.00017	-4e-05	-3e-05	6
30802	-3e-05	-4e-05	-6e-05	-6e-05	-0.00022	-0.00017	-4e-05	-3e-05	6
30803	-3e-05	-4e-05	-6e-05	-6e-05	-0.00022	-0.00017	-4e-05	-3e-05	6
30804	-3e-05	-4e-05	-6e-05	-6e-05	-0.00022	-0.00017	-4e-05	-3e-05	6
30805	-3e-05	-4e-05	-6e-05	-6e-05	-0.00022	-0.00017	-4e-05	-3e-05	6
30806	-3e-05	-4e-05	-6e-05	-6e-05	-0.00022	-0.00017	-4e-05	-3e-05	6
30807	-3e-05	-4e-05	-6e-05	-6e-05	-0.00022	-0.00017	-4e-05	-3e-05	6
30808	-3e-05	-4e-05	-6e-05	-6e-05	-0.00022	-0.00017	-4e-05	-3e-05	6
30809	-3e-05	-4e-05	-6e-05	-6e-05	-0.00022	-0.00017	-4e-05	-3e-05	6
30810	-3e-05	-4e-05	-6e-05	-6e-05	-0.00022	-0.00017	-4e-05	-3e-05	6
30811	-3e-05	-4e-05	-6e-05	-6e-05	-0.00022	-0.00017	-4e-05	-3e-05	6
30812	-3e-05	-4e-05	-6e-05	-6e-05	-0.00022	-0.00017	-4e-05	-3e-05	6
30813	-3e-05	-4e-05	-6e-05	-6e-05	-0.00022	-0.00017	-4e-05	-3e-05	6
30814	-3e-05	-4e-05	-6e-05	-6e-05	-0.00022	-0.00017	-4e-05	-3e-05	6
30815	-3e-05	-4e-05	-6e-05	-6e-05	-0.00022	-0.00017	-4e-05	-3e-05	6
30816	-3e-05	-4e-05	-6e-05	-6e-05	-0.00022	-0.00017	-4e-05	-3e-05	6
30817	-3e-05	-4e-05	-6e-05	-6e-05	-0.00022	-0.00017	-4e-05	-3e-05	6
30818	-3e-05	-4e-05	-6e-05	-6e-05	-0.00022	-0.00017	-4e-05	-3e-05	6
30819	3e-05	1e-05	-7e-05	-5e-05	-0.00016	-0.00017	-4e-05	-0.0002	6
30820	7e-05	7e-05	4e-05	0	-1e-05	0.00012	4e-05	0.00024	6
30821	7e-05	7e-05	4e-05	0	-1e-05	0.00012	4e-05	0.00024	6
30822	7e-05	7e-05	4e-05	0	-1e-05	0.00012	4e-05	0.00024	6
30823	7e-05	7e-05	4e-05	0	-1e-05	0.00012	4e-05	0.00024	6
30824	7e-05	7e-05	4e-05	0	-1e-05	0.00012	4e-05	0.00024	6
30825	7e-05	7e-05	4e-05	0	-1e-05	0.00012	4e-05	0.00024	6
30826	7e-05	7e-05	4e-05	0	-1e-05	0.00012	4e-05	0.00024	6
30827	7e-05	7e-05	4e-05	0	-1e-05	0.00012	4e-05	0.00024	6
30828	7e-05	7e-05	4e-05	0	-1e-05	0.00012	4e-05	0.00024	6
30829	7e-05	7e-05	4e-05	0	-1e-05	0.00012	4e-05	0.00024	6
30830	7e-05	7e-05	4e-05	0	-1e-05	0.00012	4e-05	0.00024	6
30831	7e-05	7e-05	4e-05	0	-1e-05	0.00012	4e-05	0.00024	6
30832	7e-05	7e-05	4e-05	0	-1e-05	0.00012	4e-05	0.00024	6
30833	7e-05	7e-05	4e-05	0	-1e-05	0.00012	4e-05	0.00024	6
30834	0	-1e-05	-5e-05	-7e-05	-0.00022	-0.00013	-1e-05	-0.00017	6
30835	0	-1e-05	-5e-05	-7e-05	-0.00022	-0.00013	-1e-05	-0.00017	6
30836	-4e-05	-6e-05	-0.0001	3e-05	0.00027	0.00013	5e-05	-0.00023	6
30839	-4e-05	-6e-05	-0.0001	3e-05	0.00027	0.00013	5e-05	-0.00023	6
30840	-4e-05	-6e-05	-0.0001	3e-05	0.00027	0.00013	5e-05	-0.00023	6
30841	-4e-05	-6e-05	-0.0001	3e-05	0.00027	0.00013	5e-05	-0.00023	6
30842	-4e-05	-6e-05	-0.0001	3e-05	0.00027	0.00013	5e-05	-0.00023	6
30843	-4e-05	-6e-05	-0.0001	3e-05	0.00027	0.00013	5e-05	-0.00023	6
30844	-4e-05	-6e-05	-0.0001	3e-05	0.00027	0.00013	5e-05	-0.00023	6
30845	-4e-05	-6e-05	-0.0001	3e-05	0.00027	0.00013	5e-05	-0.00023	6
30846	-4e-05	-6e-05	-0.0001	3e-05	0.00027	0.00013	5e-05	-0.00023	6
30847	-4e-05	-6e-05	-0.0001	3e-05	0.00027	0.00013	5e-05	-0.00023	6
30848	-4e-05	-6e-05	-0.0001	3e-05	0.00027	0.00013	5e-05	-0.00023	6
30849	-4e-05	-6e-05	-0.0001	3e-05	0.00027	0.00013	5e-05	-0.00023	6
30850	-4e-05	-6e-05	-0.0001	3e-05	0.00027	0.00013	5e-05	-0.00023	6
30851	-4e-05	-6e-05	-0.0001	3e-05	0.00027	0.00013	5e-05	-0.00023	6
30852	-4e-05	-6e-05	-0.0001	3e-05	0.00027	0.00013	5e-05	-0.00023	6
30853	-4e-05	-6e-05	-0.0001	3e-05	0.00027	0.00013	5e-05	-0.00023	6
30854	-4e-05	-6e-05	-0.0001	3e-05	0.00027	0.00013	5e-05	-0.00023	6
30855	-4e-05	-6e-05	-0.0001	3e-05	0.00027	0.00013	5e-05	-0.00023	6
30856	9e-05	4e-05	-4e-05	6e-05	0.00011	3e-05	-4e-05	-0.00029	6
30857	9e-05	4e-05	-4e-05	6e-05	0.00011	3e-05	-4e-05	-0.00029	6
30858	-6e-05	4e-05	4e-05	-1e-05	3e-05	-6e-05	-6e-05	-0.00051	6
30859	-6e-05	4e-05	4e-05	-1e-05	3e-05	-6e-05	-6e-05	-0.00051	6
30860	-6e-05	4e-05	4e-05	-1e-05	3e-05	-6e-05	-6e-05	-0.00051	6
30861	-6e-05	4e-05	4e-05	-1e-05	3e-05	-6e-05	-6e-05	-0.00051	6
30862	-6e-05	4e-05	4e-05	-1e-05	3e-05	-6e-05	-6e-05	-0.00051	6
30863	-6e-05	4e-05	4e-05	-1e-05	3e-05	-6e-05	-6e-05	-0.00051	6
30864	-6e-05	4e-05	4e-05	-1e-05	3e-05	-6e-05	-6e-05	-0.00051	6
30865	-6e-05	4e-05	4e-05	-1e-05	3e-05	-6e-05	-6e-05	-0.00051	6
30866	-6e-05	4e-05	4e-05	-1e-05	3e-05	-6e-05	-6e-05	-0.00051	6
30867	-6e-05	4e-05	4e-05	-1e-05	3e-05	-6e-05	-6e-05	-0.00051	6
30868	-6e-05	4e-05	4e-05	-1e-05	3e-05	-6e-05	-6e-05	-0.00051	6
30869	-6e-05	4e-05	4e-05	-1e-05	3e-05	-6e-05	-6e-05	-0.00051	6
30870	-2e-05	-2e-05	-6e-05	-5e-05	-3e-05	-1e-05	3e-05	-5e-05	6
30871	-2e-05	-2e-05	-6e-05	-5e-05	-3e-05	-1e-05	3e-05	-5e-05	6
30872	-2e-05	-2e-05	-6e-05	-5e-05	-3e-05	-1e-05	3e-05	-5e-05	6
30873	-2e-05	-2e-05	-6e-05	-5e-05	-3e-05	-1e-05	3e-05	-5e-05	6
30874	-2e-05	-2e-05	-6e-05	-5e-05	-3e-05	-1e-05	3e-05	-5e-05	6
30875	-2e-05	-2e-05	-6e-05	-5e-05	-3e-05	-1e-05	3e-05	-5e-05	6
30876	-2e-05	-2e-05	-6e-05	-5e-05	-3e-05	-1e-05	3e-05	-5e-05	6
30877	-2e-05	-2e-05	-6e-05	-5e-05	-3e-05	-1e-05	3e-05	-5e-05	6
30878	-2e-05	-2e-05	-6e-05	-5e-05	-3e-05	-1e-05	3e-05	-5e-05	6
30879	-1e-05	-2e-05	0	-2e-05	-0.00016	-0.00014	-2e-05	-8e-05	6
30880	-1e-05	-2e-05	0	-2e-05	-0.00016	-0.00014	-2e-05	-8e-05	6
30881	-1e-05	-2e-05	0	-2e-05	-0.00016	-0.00014	-2e-05	-8e-05	6
30882	-1e-05	-2e-05	0	-2e-05	-0.00016	-0.00014	-2e-05	-8e-05	6
30883	-1e-05	-2e-05	0	-2e-05	-0.00016	-0.00014	-2e-05	-8e-05	6
30884	-1e-05	-2e-05	0	-2e-05	-0.00016	-0.00014	-2e-05	-8e-05	6
30885	-1e-05	-2e-05	0	-2e-05	-0.00016	-0.00014	-2e-05	-8e-05	6
30886	-1e-05	-2e-05	0	-2e-05	-0.00016	-0.00014	-2e-05	-8e-05	6
30889	-1e-05	-2e-05	0	-2e-05	-0.00016	-0.00014	-2e-05	-8e-05	6
30890	-1e-05	-2e-05	0	-2e-05	-0.00016	-0.00014	-2e-05	-8e-05	6
30891	-1e-05	-2e-05	0	-2e-05	-0.00016	-0.00014	-2e-05	-8e-05	6
30892	-1e-05	-2e-05	0	-2e-05	-0.00016	-0.00014	-2e-05	-8e-05	6
30893	-1e-05	-2e-05	0	-2e-05	-0.00016	-0.00014	-2e-05	-8e-05	6
30894	-1e-05	-2e-05	0	-2e-05	-0.00016	-0.00014	-2e-05	-8e-05	6
30895	-0.0001	-6e-05	-2e-05	1e-05	-0.00012	0.00028	-3e-05	-0.0003	6
30896	2e-05	-1e-05	0	-6e-05	-0.00013	-4e-05	-4e-05	0.00017	6
30897	2e-05	-1e-05	0	-6e-05	-0.00013	-4e-05	-4e-05	0.00017	6
30898	2e-05	-1e-05	0	-6e-05	-0.00013	-4e-05	-4e-05	0.00017	6
30899	2e-05	-1e-05	0	-6e-05	-0.00013	-4e-05	-4e-05	0.00017	6
30900	2e-05	-1e-05	0	-6e-05	-0.00013	-4e-05	-4e-05	0.00017	6
30901	2e-05	-1e-05	0	-6e-05	-0.00013	-4e-05	-4e-05	0.00017	6
30902	2e-05	-1e-05	0	-6e-05	-0.00013	-4e-05	-4e-05	0.00017	6
30903	2e-05	-1e-05	0	-6e-05	-0.00013	-4e-05	-4e-05	0.00017	6
30904	2e-05	-1e-05	0	-6e-05	-0.00013	-4e-05	-4e-05	0.00017	6
30905	2e-05	-1e-05	0	-6e-05	-0.00013	-4e-05	-4e-05	0.00017	6
30906	2e-05	-1e-05	0	-6e-05	-0.00013	-4e-05	-4e-05	0.00017	6
30907	2e-05	-1e-05	0	-6e-05	-0.00013	-4e-05	-4e-05	0.00017	6
30908	2e-05	-1e-05	0	-6e-05	-0.00013	-4e-05	-4e-05	0.00017	6
30909	2e-05	-1e-05	0	-6e-05	-0.00013	-4e-05	-4e-05	0.00017	6
30910	2e-05	-1e-05	0	-6e-05	-0.00013	-4e-05	-4e-05	0.00017	6
30911	2e-05	-1e-05	0	-6e-05	-0.00013	-4e-05	-4e-05	0.00017	6
30912	2e-05	-1e-05	0	-6e-05	-0.00013	-4e-05	-4e-05	0.00017	6
30913	2e-05	-1e-05	0	-6e-05	-0.00013	-4e-05	-4e-05	0.00017	6
30914	2e-05	-1e-05	0	-6e-05	-0.00013	-4e-05	-4e-05	0.00017	6
30915	2e-05	-1e-05	0	-6e-05	-0.00013	-4e-05	-4e-05	0.00017	6
30916	-5e-05	-5e-05	-3e-05	-3e-05	-1e-05	-0.00013	-1e-05	6e-05	6
30917	-5e-05	-5e-05	-3e-05	-3e-05	-1e-05	-0.00013	-1e-05	6e-05	6
30918	2e-05	-2e-05	1e-05	0	2e-05	5e-05	6e-05	0.00025	6
30919	2e-05	-2e-05	1e-05	0	2e-05	5e-05	6e-05	0.00025	6
30920	2e-05	-2e-05	1e-05	0	2e-05	5e-05	6e-05	0.00025	6
30921	2e-05	-2e-05	1e-05	0	2e-05	5e-05	6e-05	0.00025	6
30922	2e-05	-2e-05	1e-05	0	2e-05	5e-05	6e-05	0.00025	6
30923	2e-05	-2e-05	1e-05	0	2e-05	5e-05	6e-05	0.00025	6
30924	2e-05	-2e-05	1e-05	0	2e-05	5e-05	6e-05	0.00025	6
30925	2e-05	-2e-05	1e-05	0	2e-05	5e-05	6e-05	0.00025	6
30926	2e-05	-2e-05	1e-05	0	2e-05	5e-05	6e-05	0.00025	6
30927	2e-05	-2e-05	1e-05	0	2e-05	5e-05	6e-05	0.00025	6
30928	2e-05	-2e-05	1e-05	0	2e-05	5e-05	6e-05	0.00025	6
30929	2e-05	-2e-05	1e-05	0	2e-05	5e-05	6e-05	0.00025	6
30930	-0.0001	-1e-05	3e-05	-2e-05	9e-05	0.00024	2e-05	-0.0003	6
30931	-0.0001	-1e-05	3e-05	-2e-05	9e-05	0.00024	2e-05	-0.0003	6
30932	-0.0001	-1e-05	3e-05	-2e-05	9e-05	0.00024	2e-05	-0.0003	6
30933	-0.0001	-1e-05	3e-05	-2e-05	9e-05	0.00024	2e-05	-0.0003	6
30934	-0.0001	-1e-05	3e-05	-2e-05	9e-05	0.00024	2e-05	-0.0003	6
30935	-0.0001	-1e-05	3e-05	-2e-05	9e-05	0.00024	2e-05	-0.0003	6
30936	-0.0001	-1e-05	3e-05	-2e-05	9e-05	0.00024	2e-05	-0.0003	6
30939	-0.00012	-5e-05	-1e-05	0	-0.00026	8e-05	1e-05	-0.00011	6
30940	-0.00012	-5e-05	-1e-05	0	-0.00026	8e-05	1e-05	-0.00011	6
30941	-0.00012	-5e-05	-1e-05	0	-0.00026	8e-05	1e-05	-0.00011	6
30942	-0.00012	-5e-05	-1e-05	0	-0.00026	8e-05	1e-05	-0.00011	6
30943	-0.00012	-5e-05	-1e-05	0	-0.00026	8e-05	1e-05	-0.00011	6
30944	-0.00012	-5e-05	-1e-05	0	-0.00026	8e-05	1e-05	-0.00011	6
30945	-0.00012	-5e-05	-1e-05	0	-0.00026	8e-05	1e-05	-0.00011	6
30946	-0.00012	-5e-05	-1e-05	0	-0.00026	8e-05	1e-05	-0.00011	6
30947	-0.00012	-5e-05	-1e-05	0	-0.00026	8e-05	1e-05	-0.00011	6
30948	-0.00012	-5e-05	-1e-05	0	-0.00026	8e-05	1e-05	-0.00011	6
30949	-0.00012	-5e-05	-1e-05	0	-0.00026	8e-05	1e-05	-0.00011	6
30950	-0.00012	-5e-05	-1e-05	0	-0.00026	8e-05	1e-05	-0.00011	6
30951	-0.00012	-5e-05	-1e-05	0	-0.00026	8e-05	1e-05	-0.00011	6
30952	-0.00012	-5e-05	-1e-05	0	-0.00026	8e-05	1e-05	-0.00011	6
30953	-0.00012	-5e-05	-1e-05	0	-0.00026	8e-05	1e-05	-0.00011	6
30954	-0.00013	-5e-05	0	1e-05	-6e-05	0.00016	0.00014	0.0001	6
30955	-7e-05	-5e-05	-4e-05	-3e-05	-2e-05	9e-05	-6e-05	0.00022	6
30956	-7e-05	-5e-05	-4e-05	-3e-05	-2e-05	9e-05	-6e-05	0.00022	6
30957	-7e-05	-5e-05	-4e-05	-3e-05	-2e-05	9e-05	-6e-05	0.00022	6
30958	-7e-05	-5e-05	-4e-05	-3e-05	-2e-05	9e-05	-6e-05	0.00022	6
30959	-7e-05	-5e-05	-4e-05	-3e-05	-2e-05	9e-05	-6e-05	0.00022	6
30960	-7e-05	-5e-05	-4e-05	-3e-05	-2e-05	9e-05	-6e-05	0.00022	6
30961	-7e-05	-5e-05	-4e-05	-3e-05	-2e-05	9e-05	-6e-05	0.00022	6
30962	-7e-05	-5e-05	-4e-05	-3e-05	-2e-05	9e-05	-6e-05	0.00022	6
30963	-7e-05	-5e-05	-4e-05	-3e-05	-2e-05	9e-05	-6e-05	0.00022	6
30964	-7e-05	-5e-05	-4e-05	-3e-05	-2e-05	9e-05	-6e-05	0.00022	6
30965	-7e-05	-5e-05	-4e-05	-3e-05	-2e-05	9e-05	-6e-05	0.00022	6
30966	-7e-05	-5e-05	-4e-05	-3e-05	-2e-05	9e-05	-6e-05	0.00022	6
30967	-7e-05	-5e-05	-4e-05	-3e-05	-2e-05	9e-05	-6e-05	0.00022	6
30968	-7e-05	-5e-05	-4e-05	-3e-05	-2e-05	9e-05	-6e-05	0.00022	6
30969	-7e-05	-5e-05	-4e-05	-3e-05	-2e-05	9e-05	-6e-05	0.00022	6
30970	-7e-05	-5e-05	-4e-05	-3e-05	-2e-05	9e-05	-6e-05	0.00022	6
30971	-7e-05	-5e-05	-4e-05	-3e-05	-2e-05	9e-05	-6e-05	0.00022	6
30972	-7e-05	-5e-05	-4e-05	-3e-05	-2e-05	9e-05	-6e-05	0.00022	6
30973	-7e-05	-5e-05	-4e-05	-3e-05	-2e-05	9e-05	-6e-05	0.00022	6
30974	-7e-05	-5e-05	-4e-05	-3e-05	-2e-05	9e-05	-6e-05	0.00022	6
30975	-7e-05	-5e-05	-4e-05	-3e-05	-2e-05	9e-05	-6e-05	0.00022	6
30976	4e-05	-1e-05	-4e-05	-5e-05	-6e-05	-4e-05	-6e-05	-2e-05	6
30977	4e-05	-1e-05	-4e-05	-5e-05	-6e-05	-4e-05	-6e-05	-2e-05	6
30978	-6e-05	-6e-05	-6e-05	3e-05	0.00013	-0.00038	-1e-05	-6e-05	6
30979	5e-05	-4e-05	-4e-05	0	0.00011	0.00018	-7e-05	-0.00014	6
30980	5e-05	-4e-05	-4e-05	0	0.00011	0.00018	-7e-05	-0.00014	6
30981	5e-05	-4e-05	-4e-05	0	0.00011	0.00018	-7e-05	-0.00014	6
30982	5e-05	-4e-05	-4e-05	0	0.00011	0.00018	-7e-05	-0.00014	6
30983	5e-05	-4e-05	-4e-05	0	0.00011	0.00018	-7e-05	-0.00014	6
30984	5e-05	-4e-05	-4e-05	0	0.00011	0.00018	-7e-05	-0.00014	6
30985	5e-05	-4e-05	-4e-05	0	0.00011	0.00018	-7e-05	-0.00014	6
30986	5e-05	-4e-05	-4e-05	0	0.00011	0.00018	-7e-05	-0.00014	6
30988	5e-05	-4e-05	-4e-05	0	0.00011	0.00018	-7e-05	-0.00014	6
30989	5e-05	-4e-05	-4e-05	0	0.00011	0.00018	-7e-05	-0.00014	6
30990	5e-05	-4e-05	-4e-05	0	0.00011	0.00018	-7e-05	-0.00014	6
30991	5e-05	-4e-05	-4e-05	0	0.00011	0.00018	-7e-05	-0.00014	6
30992	5e-05	-4e-05	-4e-05	0	0.00011	0.00018	-7e-05	-0.00014	6
30993	5e-05	-4e-05	-4e-05	0	0.00011	0.00018	-7e-05	-0.00014	6
30994	5e-05	-4e-05	-4e-05	0	0.00011	0.00018	-7e-05	-0.00014	6
30995	5e-05	-4e-05	-4e-05	0	0.00011	0.00018	-7e-05	-0.00014	6
30996	5e-05	-4e-05	-4e-05	0	0.00011	0.00018	-7e-05	-0.00014	6
30997	5e-05	-4e-05	-4e-05	0	0.00011	0.00018	-7e-05	-0.00014	6
30998	5e-05	-4e-05	-4e-05	0	0.00011	0.00018	-7e-05	-0.00014	6
30999	0.00011	7e-05	-1e-05	-2e-05	-0.00012	-0.0001	-4e-05	0.00014	6
31000	8e-05	6e-05	-2e-05	5e-05	-3e-05	-9e-05	6e-05	0.00026	6
31001	8e-05	6e-05	-2e-05	5e-05	-3e-05	-9e-05	6e-05	0.00026	6
31002	8e-05	6e-05	-2e-05	5e-05	-3e-05	-9e-05	6e-05	0.00026	6
31003	8e-05	6e-05	-2e-05	5e-05	-3e-05	-9e-05	6e-05	0.00026	6
31004	8e-05	6e-05	-2e-05	5e-05	-3e-05	-9e-05	6e-05	0.00026	6
31005	8e-05	6e-05	-2e-05	5e-05	-3e-05	-9e-05	6e-05	0.00026	6
31006	8e-05	6e-05	-2e-05	5e-05	-3e-05	-9e-05	6e-05	0.00026	6
31007	8e-05	6e-05	-2e-05	5e-05	-3e-05	-9e-05	6e-05	0.00026	6
31008	8e-05	6e-05	-2e-05	5e-05	-3e-05	-9e-05	6e-05	0.00026	6
31009	8e-05	6e-05	-2e-05	5e-05	-3e-05	-9e-05	6e-05	0.00026	6
31010	8e-05	6e-05	-2e-05	5e-05	-3e-05	-9e-05	6e-05	0.00026	6
31011	8e-05	6e-05	-2e-05	5e-05	-3e-05	-9e-05	6e-05	0.00026	6
31012	8e-05	6e-05	-2e-05	5e-05	-3e-05	-9e-05	6e-05	0.00026	6
31013	8e-05	6e-05	-2e-05	5e-05	-3e-05	-9e-05	6e-05	0.00026	6
31014	-8e-05	-3e-05	-5e-05	-4e-05	-0.00015	-0.00049	-0.00012	-0.00024	6
31015	-8e-05	-3e-05	-5e-05	-4e-05	-0.00015	-0.00049	-0.00012	-0.00024	6
31016	-2e-05	3e-05	1e-05	-4e-05	0.00014	6e-05	-1e-05	-0.00011	6
31017	-2e-05	3e-05	1e-05	-4e-05	0.00014	6e-05	-1e-05	-0.00011	6
31018	-2e-05	3e-05	1e-05	-4e-05	0.00014	6e-05	-1e-05	-0.00011	6
31019	-2e-05	3e-05	1e-05	-4e-05	0.00014	6e-05	-1e-05	-0.00011	6
31020	-2e-05	3e-05	1e-05	-4e-05	0.00014	6e-05	-1e-05	-0.00011	6
31021	-2e-05	3e-05	1e-05	-4e-05	0.00014	6e-05	-1e-05	-0.00011	6
31022	-2e-05	3e-05	1e-05	-4e-05	0.00014	6e-05	-1e-05	-0.00011	6
31023	-2e-05	3e-05	1e-05	-4e-05	0.00014	6e-05	-1e-05	-0.00011	6
31024	-2e-05	3e-05	1e-05	-4e-05	0.00014	6e-05	-1e-05	-0.00011	6
31025	-2e-05	3e-05	1e-05	-4e-05	0.00014	6e-05	-1e-05	-0.00011	6
31026	-2e-05	3e-05	1e-05	-4e-05	0.00014	6e-05	-1e-05	-0.00011	6
31027	-2e-05	3e-05	1e-05	-4e-05	0.00014	6e-05	-1e-05	-0.00011	6
31028	-2e-05	3e-05	1e-05	-4e-05	0.00014	6e-05	-1e-05	-0.00011	6
31029	-2e-05	3e-05	1e-05	-4e-05	0.00014	6e-05	-1e-05	-0.00011	6
31030	-2e-05	3e-05	1e-05	-4e-05	0.00014	6e-05	-1e-05	-0.00011	6
31031	-2e-05	3e-05	1e-05	-4e-05	0.00014	6e-05	-1e-05	-0.00011	6
31032	-2e-05	3e-05	1e-05	-4e-05	0.00014	6e-05	-1e-05	-0.00011	6
31033	-2e-05	3e-05	1e-05	-4e-05	0.00014	6e-05	-1e-05	-0.00011	6
31034	-2e-05	3e-05	1e-05	-4e-05	0.00014	6e-05	-1e-05	-0.00011	6
31035	-2e-05	3e-05	1e-05	-4e-05	0.00014	6e-05	-1e-05	-0.00011	6
31036	0	2e-05	-1e-05	0	5e-05	0.00016	-4e-05	-1e-05	6
31038	-1e-05	-2e-05	-2e-05	-3e-05	-5e-05	8e-05	2e-05	-3e-05	6
31039	-4e-05	0	2e-05	2e-05	3e-05	-3e-05	7e-05	0.0001	6
31040	-4e-05	0	2e-05	2e-05	3e-05	-3e-05	7e-05	0.0001	6
31041	-4e-05	0	2e-05	2e-05	3e-05	-3e-05	7e-05	0.0001	6
31042	-4e-05	0	2e-05	2e-05	3e-05	-3e-05	7e-05	0.0001	6
31043	-4e-05	0	2e-05	2e-05	3e-05	-3e-05	7e-05	0.0001	6
31044	-4e-05	0	2e-05	2e-05	3e-05	-3e-05	7e-05	0.0001	6
31045	-4e-05	0	2e-05	2e-05	3e-05	-3e-05	7e-05	0.0001	6
31046	-4e-05	0	2e-05	2e-05	3e-05	-3e-05	7e-05	0.0001	6
31047	-4e-05	0	2e-05	2e-05	3e-05	-3e-05	7e-05	0.0001	6
31048	-4e-05	0	2e-05	2e-05	3e-05	-3e-05	7e-05	0.0001	6
31049	-4e-05	0	2e-05	2e-05	3e-05	-3e-05	7e-05	0.0001	6
31050	-4e-05	0	2e-05	2e-05	3e-05	-3e-05	7e-05	0.0001	6
31051	-4e-05	0	2e-05	2e-05	3e-05	-3e-05	7e-05	0.0001	6
31052	-4e-05	0	2e-05	2e-05	3e-05	-3e-05	7e-05	0.0001	6
31053	-4e-05	0	2e-05	2e-05	3e-05	-3e-05	7e-05	0.0001	6
31054	-4e-05	0	2e-05	2e-05	3e-05	-3e-05	7e-05	0.0001	6
31055	-4e-05	0	2e-05	2e-05	3e-05	-3e-05	7e-05	0.0001	6
31056	-4e-05	0	2e-05	2e-05	3e-05	-3e-05	7e-05	0.0001	6
31057	-4e-05	0	2e-05	2e-05	3e-05	-3e-05	7e-05	0.0001	6
31058	-4e-05	0	2e-05	2e-05	3e-05	-3e-05	7e-05	0.0001	6
31059	-0.0001	-4e-05	0	3e-05	4e-05	0.00014	-2e-05	-0.0001	6
31060	1e-05	0	-0.00012	-6e-05	1e-05	4e-05	0	8e-05	6
31061	0	0	2e-05	1e-05	-3e-05	2e-05	-4e-05	-2e-05	6
31062	0	0	2e-05	1e-05	-3e-05	2e-05	-4e-05	-2e-05	6
31063	0	0	2e-05	1e-05	-3e-05	2e-05	-4e-05	-2e-05	6
31064	0	0	2e-05	1e-05	-3e-05	2e-05	-4e-05	-2e-05	6
31065	0	0	2e-05	1e-05	-3e-05	2e-05	-4e-05	-2e-05	6
31066	0	0	2e-05	1e-05	-3e-05	2e-05	-4e-05	-2e-05	6
31067	0	0	2e-05	1e-05	-3e-05	2e-05	-4e-05	-2e-05	6
31068	0	0	2e-05	1e-05	-3e-05	2e-05	-4e-05	-2e-05	6
31069	0	0	2e-05	1e-05	-3e-05	2e-05	-4e-05	-2e-05	6
31070	0	0	2e-05	1e-05	-3e-05	2e-05	-4e-05	-2e-05	6
31071	0	0	2e-05	1e-05	-3e-05	2e-05	-4e-05	-2e-05	6
31072	0	0	2e-05	1e-05	-3e-05	2e-05	-4e-05	-2e-05	6
31073	0	0	2e-05	1e-05	-3e-05	2e-05	-4e-05	-2e-05	6
31074	-0.00012	-4e-05	2e-05	0	4e-05	0.00014	-5e-05	-0.00037	6
31075	4e-05	4e-05	-6e-05	-4e-05	-6e-05	0.00065	0.00013	-0.00018	6
31076	4e-05	4e-05	-6e-05	-4e-05	-6e-05	0.00065	0.00013	-0.00018	6
31077	4e-05	4e-05	-6e-05	-4e-05	-6e-05	0.00065	0.00013	-0.00018	6
31079	4e-05	4e-05	-6e-05	-4e-05	-6e-05	0.00065	0.00013	-0.00018	6
31080	4e-05	4e-05	-6e-05	-4e-05	-6e-05	0.00065	0.00013	-0.00018	6
31081	4e-05	4e-05	-6e-05	-4e-05	-6e-05	0.00065	0.00013	-0.00018	6
31082	4e-05	4e-05	-6e-05	-4e-05	-6e-05	0.00065	0.00013	-0.00018	6
31083	4e-05	4e-05	-6e-05	-4e-05	-6e-05	0.00065	0.00013	-0.00018	6
31084	4e-05	4e-05	-6e-05	-4e-05	-6e-05	0.00065	0.00013	-0.00018	6
31085	4e-05	4e-05	-6e-05	-4e-05	-6e-05	0.00065	0.00013	-0.00018	6
31086	4e-05	4e-05	-6e-05	-4e-05	-6e-05	0.00065	0.00013	-0.00018	6
31088	4e-05	4e-05	-6e-05	-4e-05	-6e-05	0.00065	0.00013	-0.00018	6
31090	4e-05	4e-05	-6e-05	-4e-05	-6e-05	0.00065	0.00013	-0.00018	6
31091	4e-05	4e-05	-6e-05	-4e-05	-6e-05	0.00065	0.00013	-0.00018	6
31092	4e-05	4e-05	-6e-05	-4e-05	-6e-05	0.00065	0.00013	-0.00018	6
31093	4e-05	4e-05	-6e-05	-4e-05	-6e-05	0.00065	0.00013	-0.00018	6
31094	4e-05	4e-05	-6e-05	-4e-05	-6e-05	0.00065	0.00013	-0.00018	6
31095	4e-05	4e-05	-6e-05	-4e-05	-6e-05	0.00065	0.00013	-0.00018	6
31096	-6e-05	-5e-05	-5e-05	-4e-05	-0.00017	-0.0002	-0.0001	3e-05	6
31097	-2e-05	0	1e-05	2e-05	0	-1e-05	3e-05	-7e-05	6
31098	1e-05	0	-3e-05	-3e-05	-3e-05	-0.0003	-6e-05	6e-05	6
31099	1e-05	0	-3e-05	-3e-05	-3e-05	-0.0003	-6e-05	6e-05	6
31100	1e-05	0	-3e-05	-3e-05	-3e-05	-0.0003	-6e-05	6e-05	6
31101	1e-05	0	-3e-05	-3e-05	-3e-05	-0.0003	-6e-05	6e-05	6
31102	1e-05	0	-3e-05	-3e-05	-3e-05	-0.0003	-6e-05	6e-05	6
31103	1e-05	0	-3e-05	-3e-05	-3e-05	-0.0003	-6e-05	6e-05	6
31104	1e-05	0	-3e-05	-3e-05	-3e-05	-0.0003	-6e-05	6e-05	6
31105	1e-05	0	-3e-05	-3e-05	-3e-05	-0.0003	-6e-05	6e-05	6
31106	1e-05	0	-3e-05	-3e-05	-3e-05	-0.0003	-6e-05	6e-05	6
31107	1e-05	0	-3e-05	-3e-05	-3e-05	-0.0003	-6e-05	6e-05	6
31108	1e-05	0	-3e-05	-3e-05	-3e-05	-0.0003	-6e-05	6e-05	6
31109	1e-05	0	-3e-05	-3e-05	-3e-05	-0.0003	-6e-05	6e-05	6
31110	1e-05	0	-3e-05	-3e-05	-3e-05	-0.0003	-6e-05	6e-05	6
31111	1e-05	0	-3e-05	-3e-05	-3e-05	-0.0003	-6e-05	6e-05	6
31112	1e-05	0	-3e-05	-3e-05	-3e-05	-0.0003	-6e-05	6e-05	6
31113	1e-05	0	-3e-05	-3e-05	-3e-05	-0.0003	-6e-05	6e-05	6
31114	1e-05	0	-3e-05	-3e-05	-3e-05	-0.0003	-6e-05	6e-05	6
31115	1e-05	0	-3e-05	-3e-05	-3e-05	-0.0003	-6e-05	6e-05	6
31116	1e-05	0	-3e-05	-3e-05	-3e-05	-0.0003	-6e-05	6e-05	6
31117	1e-05	0	-3e-05	-3e-05	-3e-05	-0.0003	-6e-05	6e-05	6
31118	1e-05	0	-3e-05	-3e-05	-3e-05	-0.0003	-6e-05	6e-05	6
31119	0	-6e-05	2e-05	1e-05	0.00013	3e-05	4e-05	6e-05	6
31120	-0.0001	-0.00016	0	-1e-05	-4e-05	6e-05	4e-05	-0.0002	6
31121	-0.0001	-0.00016	0	-1e-05	-4e-05	6e-05	4e-05	-0.0002	6
31122	-0.0001	-0.00016	0	-1e-05	-4e-05	6e-05	4e-05	-0.0002	6
31123	-0.0001	-0.00016	0	-1e-05	-4e-05	6e-05	4e-05	-0.0002	6
31124	-0.0001	-0.00016	0	-1e-05	-4e-05	6e-05	4e-05	-0.0002	6
31125	-0.0001	-0.00016	0	-1e-05	-4e-05	6e-05	4e-05	-0.0002	6
31126	-0.0001	-0.00016	0	-1e-05	-4e-05	6e-05	4e-05	-0.0002	6
31127	-0.0001	-0.00016	0	-1e-05	-4e-05	6e-05	4e-05	-0.0002	6
31128	-0.0001	-0.00016	0	-1e-05	-4e-05	6e-05	4e-05	-0.0002	6
31129	-0.0001	-0.00016	0	-1e-05	-4e-05	6e-05	4e-05	-0.0002	6
31130	-0.0001	-0.00016	0	-1e-05	-4e-05	6e-05	4e-05	-0.0002	6
31131	-0.0001	-0.00016	0	-1e-05	-4e-05	6e-05	4e-05	-0.0002	6
31132	-0.0001	-0.00016	0	-1e-05	-4e-05	6e-05	4e-05	-0.0002	6
31133	1e-05	-5e-05	-9e-05	-2e-05	-4e-05	-0.00017	7e-05	0.00015	6
31134	1e-05	-5e-05	-9e-05	-2e-05	-4e-05	-0.00017	7e-05	0.00015	6
31135	1e-05	-5e-05	-9e-05	-2e-05	-4e-05	-0.00017	7e-05	0.00015	6
31136	1e-05	-5e-05	-9e-05	-2e-05	-4e-05	-0.00017	7e-05	0.00015	6
31138	1e-05	-5e-05	-9e-05	-2e-05	-4e-05	-0.00017	7e-05	0.00015	6
31139	1e-05	-5e-05	-9e-05	-2e-05	-4e-05	-0.00017	7e-05	0.00015	6
31140	-1e-05	6e-05	0.0001	6e-05	-5e-05	-0.00028	-0.00012	-0.00014	6
31141	-1e-05	6e-05	0.0001	6e-05	-5e-05	-0.00028	-0.00012	-0.00014	6
31142	-1e-05	6e-05	0.0001	6e-05	-5e-05	-0.00028	-0.00012	-0.00014	6
31143	-1e-05	6e-05	0.0001	6e-05	-5e-05	-0.00028	-0.00012	-0.00014	6
31144	-1e-05	6e-05	0.0001	6e-05	-5e-05	-0.00028	-0.00012	-0.00014	6
31145	-1e-05	6e-05	0.0001	6e-05	-5e-05	-0.00028	-0.00012	-0.00014	6
31146	-1e-05	6e-05	0.0001	6e-05	-5e-05	-0.00028	-0.00012	-0.00014	6
31147	-1e-05	6e-05	0.0001	6e-05	-5e-05	-0.00028	-0.00012	-0.00014	6
31148	-1e-05	6e-05	0.0001	6e-05	-5e-05	-0.00028	-0.00012	-0.00014	6
31149	-1e-05	6e-05	0.0001	6e-05	-5e-05	-0.00028	-0.00012	-0.00014	6
31150	-1e-05	6e-05	0.0001	6e-05	-5e-05	-0.00028	-0.00012	-0.00014	6
31151	-1e-05	6e-05	0.0001	6e-05	-5e-05	-0.00028	-0.00012	-0.00014	6
31152	-1e-05	6e-05	0.0001	6e-05	-5e-05	-0.00028	-0.00012	-0.00014	6
31153	-1e-05	6e-05	0.0001	6e-05	-5e-05	-0.00028	-0.00012	-0.00014	6
31154	-1e-05	6e-05	0.0001	6e-05	-5e-05	-0.00028	-0.00012	-0.00014	6
31155	-1e-05	6e-05	0.0001	6e-05	-5e-05	-0.00028	-0.00012	-0.00014	6
31156	-1e-05	6e-05	0.0001	6e-05	-5e-05	-0.00028	-0.00012	-0.00014	6
31157	-7e-05	1e-05	0	-2e-05	2e-05	0.00025	2e-05	-0.00025	6
31158	-0.00013	-8e-05	-0.00016	-7e-05	-3e-05	-6e-05	1e-05	8e-05	6
31159	-0.00013	-8e-05	-0.00016	-7e-05	-3e-05	-6e-05	1e-05	8e-05	6
31160	-0.00013	-8e-05	-0.00016	-7e-05	-3e-05	-6e-05	1e-05	8e-05	6
31161	-0.00013	-8e-05	-0.00016	-7e-05	-3e-05	-6e-05	1e-05	8e-05	6
31162	-0.00013	-8e-05	-0.00016	-7e-05	-3e-05	-6e-05	1e-05	8e-05	6
31163	-0.00013	-8e-05	-0.00016	-7e-05	-3e-05	-6e-05	1e-05	8e-05	6
31164	-0.00013	-8e-05	-0.00016	-7e-05	-3e-05	-6e-05	1e-05	8e-05	6
31165	-0.00013	-8e-05	-0.00016	-7e-05	-3e-05	-6e-05	1e-05	8e-05	6
31166	-0.00013	-8e-05	-0.00016	-7e-05	-3e-05	-6e-05	1e-05	8e-05	6
31167	-0.00013	-8e-05	-0.00016	-7e-05	-3e-05	-6e-05	1e-05	8e-05	6
31168	-0.00013	-8e-05	-0.00016	-7e-05	-3e-05	-6e-05	1e-05	8e-05	6
31169	-0.00013	-8e-05	-0.00016	-7e-05	-3e-05	-6e-05	1e-05	8e-05	6
31170	-0.00013	-8e-05	-0.00016	-7e-05	-3e-05	-6e-05	1e-05	8e-05	6
31171	-0.00013	-8e-05	-0.00016	-7e-05	-3e-05	-6e-05	1e-05	8e-05	6
31172	-0.00013	-8e-05	-0.00016	-7e-05	-3e-05	-6e-05	1e-05	8e-05	6
31173	-0.00013	-8e-05	-0.00016	-7e-05	-3e-05	-6e-05	1e-05	8e-05	6
31174	-0.00013	-8e-05	-0.00016	-7e-05	-3e-05	-6e-05	1e-05	8e-05	6
31175	-0.00013	-8e-05	-0.00016	-7e-05	-3e-05	-6e-05	1e-05	8e-05	6
31176	-0.00013	-8e-05	-0.00016	-7e-05	-3e-05	-6e-05	1e-05	8e-05	6
31177	-0.00013	-8e-05	-0.00016	-7e-05	-3e-05	-6e-05	1e-05	8e-05	6
31178	-0.00013	-8e-05	-0.00016	-7e-05	-3e-05	-6e-05	1e-05	8e-05	6
31179	2e-05	1e-05	1e-05	-2e-05	-0.00015	-0.0003	-0.0001	5e-05	6
31180	6e-05	8e-05	5e-05	0	-0.00013	-0.00022	-5e-05	1e-05	6
31181	6e-05	8e-05	5e-05	0	-0.00013	-0.00022	-5e-05	1e-05	6
31182	6e-05	8e-05	5e-05	0	-0.00013	-0.00022	-5e-05	1e-05	6
31183	6e-05	8e-05	5e-05	0	-0.00013	-0.00022	-5e-05	1e-05	6
31184	6e-05	8e-05	5e-05	0	-0.00013	-0.00022	-5e-05	1e-05	6
31185	6e-05	8e-05	5e-05	0	-0.00013	-0.00022	-5e-05	1e-05	6
31186	6e-05	8e-05	5e-05	0	-0.00013	-0.00022	-5e-05	1e-05	6
31188	6e-05	8e-05	5e-05	0	-0.00013	-0.00022	-5e-05	1e-05	6
31189	6e-05	8e-05	5e-05	0	-0.00013	-0.00022	-5e-05	1e-05	6
31190	6e-05	8e-05	5e-05	0	-0.00013	-0.00022	-5e-05	1e-05	6
31191	6e-05	8e-05	5e-05	0	-0.00013	-0.00022	-5e-05	1e-05	6
31192	6e-05	8e-05	5e-05	0	-0.00013	-0.00022	-5e-05	1e-05	6
31193	6e-05	8e-05	5e-05	0	-0.00013	-0.00022	-5e-05	1e-05	6
31194	6e-05	8e-05	5e-05	0	-0.00013	-0.00022	-5e-05	1e-05	6
31195	6e-05	8e-05	5e-05	0	-0.00013	-0.00022	-5e-05	1e-05	6
31196	6e-05	8e-05	5e-05	0	-0.00013	-0.00022	-5e-05	1e-05	6
31197	6e-05	8e-05	5e-05	0	-0.00013	-0.00022	-5e-05	1e-05	6
31198	6e-05	8e-05	5e-05	0	-0.00013	-0.00022	-5e-05	1e-05	6
31199	6e-05	8e-05	5e-05	0	-0.00013	-0.00022	-5e-05	1e-05	6
31200	6e-05	8e-05	5e-05	0	-0.00013	-0.00022	-5e-05	1e-05	6
31201	5e-05	-4e-05	-8e-05	-7e-05	-0.0001	-0.00013	-9e-05	0.00021	6
31202	5e-05	-4e-05	-8e-05	-7e-05	-0.0001	-0.00013	-9e-05	0.00021	6
31203	6e-05	2e-05	4e-05	2e-05	2e-05	0.0001	4e-05	9e-05	6
31204	6e-05	2e-05	4e-05	2e-05	2e-05	0.0001	4e-05	9e-05	6
31205	6e-05	2e-05	4e-05	2e-05	2e-05	0.0001	4e-05	9e-05	6
31206	6e-05	2e-05	4e-05	2e-05	2e-05	0.0001	4e-05	9e-05	6
31207	6e-05	2e-05	4e-05	2e-05	2e-05	0.0001	4e-05	9e-05	6
31208	6e-05	2e-05	4e-05	2e-05	2e-05	0.0001	4e-05	9e-05	6
31209	6e-05	2e-05	4e-05	2e-05	2e-05	0.0001	4e-05	9e-05	6
31210	6e-05	2e-05	4e-05	2e-05	2e-05	0.0001	4e-05	9e-05	6
31211	6e-05	2e-05	4e-05	2e-05	2e-05	0.0001	4e-05	9e-05	6
31212	6e-05	2e-05	4e-05	2e-05	2e-05	0.0001	4e-05	9e-05	6
31213	6e-05	2e-05	4e-05	2e-05	2e-05	0.0001	4e-05	9e-05	6
31214	6e-05	2e-05	4e-05	2e-05	2e-05	0.0001	4e-05	9e-05	6
31215	6e-05	2e-05	4e-05	2e-05	2e-05	0.0001	4e-05	9e-05	6
31216	6e-05	0.0001	0.0001	1e-05	0	0.00014	2e-05	0.00025	6
31217	6e-05	0.0001	0.0001	1e-05	0	0.00014	2e-05	0.00025	6
31218	-6e-05	-7e-05	-7e-05	-2e-05	-7e-05	-0.00017	-6e-05	0	6
31219	-6e-05	-7e-05	-7e-05	-2e-05	-7e-05	-0.00017	-6e-05	0	6
31220	-6e-05	-7e-05	-7e-05	-2e-05	-7e-05	-0.00017	-6e-05	0	6
31221	-6e-05	-7e-05	-7e-05	-2e-05	-7e-05	-0.00017	-6e-05	0	6
31222	-6e-05	-7e-05	-7e-05	-2e-05	-7e-05	-0.00017	-6e-05	0	6
31223	-6e-05	-7e-05	-7e-05	-2e-05	-7e-05	-0.00017	-6e-05	0	6
31224	-6e-05	-7e-05	-7e-05	-2e-05	-7e-05	-0.00017	-6e-05	0	6
31225	-6e-05	-7e-05	-7e-05	-2e-05	-7e-05	-0.00017	-6e-05	0	6
31226	-6e-05	-7e-05	-7e-05	-2e-05	-7e-05	-0.00017	-6e-05	0	6
31227	-6e-05	-7e-05	-7e-05	-2e-05	-7e-05	-0.00017	-6e-05	0	6
31228	-6e-05	-7e-05	-7e-05	-2e-05	-7e-05	-0.00017	-6e-05	0	6
31229	-6e-05	-7e-05	-7e-05	-2e-05	-7e-05	-0.00017	-6e-05	0	6
31230	-6e-05	-7e-05	-7e-05	-2e-05	-7e-05	-0.00017	-6e-05	0	6
31231	-6e-05	-7e-05	-7e-05	-2e-05	-7e-05	-0.00017	-6e-05	0	6
31232	-6e-05	-7e-05	-7e-05	-2e-05	-7e-05	-0.00017	-6e-05	0	6
31233	-6e-05	-7e-05	-7e-05	-2e-05	-7e-05	-0.00017	-6e-05	0	6
31234	-6e-05	-7e-05	-7e-05	-2e-05	-7e-05	-0.00017	-6e-05	0	6
31235	-6e-05	-7e-05	-7e-05	-2e-05	-7e-05	-0.00017	-6e-05	0	6
31236	-6e-05	-7e-05	-7e-05	-2e-05	-7e-05	-0.00017	-6e-05	0	6
31238	-6e-05	-7e-05	-7e-05	-2e-05	-7e-05	-0.00017	-6e-05	0	6
31240	-6e-05	-7e-05	-7e-05	-2e-05	-7e-05	-0.00017	-6e-05	0	6
31241	-6e-05	-7e-05	-7e-05	-2e-05	-7e-05	-0.00017	-6e-05	0	6
31242	-6e-05	-7e-05	-7e-05	-2e-05	-7e-05	-0.00017	-6e-05	0	6
31243	-6e-05	-7e-05	-7e-05	-2e-05	-7e-05	-0.00017	-6e-05	0	6
31244	-6e-05	-7e-05	-7e-05	-2e-05	-7e-05	-0.00017	-6e-05	0	6
31245	-6e-05	-7e-05	-7e-05	-2e-05	-7e-05	-0.00017	-6e-05	0	6
31246	5e-05	1e-05	1e-05	4e-05	2e-05	0.00034	7e-05	4e-05	6
31247	5e-05	1e-05	1e-05	4e-05	2e-05	0.00034	7e-05	4e-05	6
31248	-3e-05	2e-05	4e-05	-2e-05	9e-05	0.0001	9e-05	6e-05	6
31249	-3e-05	2e-05	4e-05	-2e-05	9e-05	0.0001	9e-05	6e-05	6
31250	-3e-05	2e-05	4e-05	-2e-05	9e-05	0.0001	9e-05	6e-05	6
31251	-3e-05	2e-05	4e-05	-2e-05	9e-05	0.0001	9e-05	6e-05	6
31252	-3e-05	2e-05	4e-05	-2e-05	9e-05	0.0001	9e-05	6e-05	6
31253	-3e-05	-4e-05	-0.0001	-4e-05	-0.00012	-4e-05	-7e-05	-0.0002	6
31254	-3e-05	-4e-05	-0.0001	-4e-05	-0.00012	-4e-05	-7e-05	-0.0002	6
31255	-3e-05	-4e-05	-0.0001	-4e-05	-0.00012	-4e-05	-7e-05	-0.0002	6
31256	-3e-05	-4e-05	-0.0001	-4e-05	-0.00012	-4e-05	-7e-05	-0.0002	6
31257	-3e-05	-4e-05	-0.0001	-4e-05	-0.00012	-4e-05	-7e-05	-0.0002	6
31258	-3e-05	-4e-05	-0.0001	-4e-05	-0.00012	-4e-05	-7e-05	-0.0002	6
31259	-3e-05	-4e-05	-0.0001	-4e-05	-0.00012	-4e-05	-7e-05	-0.0002	6
31260	2e-05	1e-05	1e-05	0	0.00012	-1e-05	-0.0002	-0.00018	6
31261	2e-05	1e-05	1e-05	0	0.00012	-1e-05	-0.0002	-0.00018	6
31262	2e-05	1e-05	1e-05	0	0.00012	-1e-05	-0.0002	-0.00018	6
31263	2e-05	1e-05	1e-05	0	0.00012	-1e-05	-0.0002	-0.00018	6
31264	2e-05	1e-05	1e-05	0	0.00012	-1e-05	-0.0002	-0.00018	6
31265	2e-05	1e-05	1e-05	0	0.00012	-1e-05	-0.0002	-0.00018	6
31266	2e-05	1e-05	1e-05	0	0.00012	-1e-05	-0.0002	-0.00018	6
31267	2e-05	1e-05	1e-05	0	0.00012	-1e-05	-0.0002	-0.00018	6
31268	2e-05	1e-05	1e-05	0	0.00012	-1e-05	-0.0002	-0.00018	6
31269	2e-05	1e-05	1e-05	0	0.00012	-1e-05	-0.0002	-0.00018	6
31270	2e-05	1e-05	1e-05	0	0.00012	-1e-05	-0.0002	-0.00018	6
31271	2e-05	1e-05	1e-05	0	0.00012	-1e-05	-0.0002	-0.00018	6
31272	2e-05	1e-05	1e-05	0	0.00012	-1e-05	-0.0002	-0.00018	6
31273	2e-05	1e-05	1e-05	0	0.00012	-1e-05	-0.0002	-0.00018	6
31274	2e-05	1e-05	1e-05	0	0.00012	-1e-05	-0.0002	-0.00018	6
31275	2e-05	1e-05	1e-05	0	0.00012	-1e-05	-0.0002	-0.00018	6
31276	-6e-05	-5e-05	-8e-05	-3e-05	-1e-05	4e-05	-3e-05	0.0001	6
31277	-6e-05	-5e-05	-8e-05	-3e-05	-1e-05	4e-05	-3e-05	0.0001	6
31278	3e-05	2e-05	0	-1e-05	0.00015	5e-05	4e-05	0.00014	6
31279	3e-05	2e-05	0	-1e-05	0.00015	5e-05	4e-05	0.00014	6
31280	3e-05	2e-05	0	-1e-05	0.00015	5e-05	4e-05	0.00014	6
31281	3e-05	2e-05	0	-1e-05	0.00015	5e-05	4e-05	0.00014	6
31282	3e-05	2e-05	0	-1e-05	0.00015	5e-05	4e-05	0.00014	6
31283	3e-05	2e-05	0	-1e-05	0.00015	5e-05	4e-05	0.00014	6
31284	3e-05	2e-05	0	-1e-05	0.00015	5e-05	4e-05	0.00014	6
31285	3e-05	2e-05	0	-1e-05	0.00015	5e-05	4e-05	0.00014	6
31287	3e-05	2e-05	0	-1e-05	0.00015	5e-05	4e-05	0.00014	6
31289	3e-05	2e-05	0	-1e-05	0.00015	5e-05	4e-05	0.00014	6
31291	3e-05	2e-05	0	-1e-05	0.00015	5e-05	4e-05	0.00014	6
31292	3e-05	2e-05	0	-1e-05	0.00015	5e-05	4e-05	0.00014	6
31293	3e-05	2e-05	0	-1e-05	0.00015	5e-05	4e-05	0.00014	6
31294	3e-05	2e-05	0	-1e-05	0.00015	5e-05	4e-05	0.00014	6
31295	3e-05	2e-05	0	-1e-05	0.00015	5e-05	4e-05	0.00014	6
31296	3e-05	2e-05	0	-1e-05	0.00015	5e-05	4e-05	0.00014	6
31297	3e-05	2e-05	0	-1e-05	0.00015	5e-05	4e-05	0.00014	6
31298	3e-05	2e-05	0	-1e-05	0.00015	5e-05	4e-05	0.00014	6
31299	-0.00017	-0.0001	3e-05	1e-05	3e-05	-5e-05	-1e-05	-0.00014	6
31300	2e-05	-9e-05	-0.0001	-5e-05	5e-05	0.00029	8e-05	-5e-05	6
31301	2e-05	-9e-05	-0.0001	-5e-05	5e-05	0.00029	8e-05	-5e-05	6
31302	2e-05	-9e-05	-0.0001	-5e-05	5e-05	0.00029	8e-05	-5e-05	6
31303	2e-05	-9e-05	-0.0001	-5e-05	5e-05	0.00029	8e-05	-5e-05	6
31304	2e-05	-9e-05	-0.0001	-5e-05	5e-05	0.00029	8e-05	-5e-05	6
31305	2e-05	-9e-05	-0.0001	-5e-05	5e-05	0.00029	8e-05	-5e-05	6
31306	2e-05	-9e-05	-0.0001	-5e-05	5e-05	0.00029	8e-05	-5e-05	6
31307	2e-05	-9e-05	-0.0001	-5e-05	5e-05	0.00029	8e-05	-5e-05	6
31308	2e-05	-9e-05	-0.0001	-5e-05	5e-05	0.00029	8e-05	-5e-05	6
31309	2e-05	-9e-05	-0.0001	-5e-05	5e-05	0.00029	8e-05	-5e-05	6
31310	2e-05	-9e-05	-0.0001	-5e-05	5e-05	0.00029	8e-05	-5e-05	6
31311	2e-05	-9e-05	-0.0001	-5e-05	5e-05	0.00029	8e-05	-5e-05	6
31312	2e-05	-9e-05	-0.0001	-5e-05	5e-05	0.00029	8e-05	-5e-05	6
31313	8e-05	6e-05	1e-05	0	4e-05	5e-05	0.00014	-1e-05	6
31314	8e-05	6e-05	1e-05	0	4e-05	5e-05	0.00014	-1e-05	6
31315	8e-05	6e-05	1e-05	0	4e-05	5e-05	0.00014	-1e-05	6
31316	8e-05	6e-05	1e-05	0	4e-05	5e-05	0.00014	-1e-05	6
31317	8e-05	6e-05	1e-05	0	4e-05	5e-05	0.00014	-1e-05	6
31318	8e-05	6e-05	1e-05	0	4e-05	5e-05	0.00014	-1e-05	6
31319	8e-05	6e-05	1e-05	0	4e-05	5e-05	0.00014	-1e-05	6
31320	-3e-05	3e-05	5e-05	7e-05	0.00023	0.0001	0.0001	2e-05	6
31321	-3e-05	3e-05	5e-05	7e-05	0.00023	0.0001	0.0001	2e-05	6
31322	-3e-05	3e-05	5e-05	7e-05	0.00023	0.0001	0.0001	2e-05	6
31323	-3e-05	3e-05	5e-05	7e-05	0.00023	0.0001	0.0001	2e-05	6
31324	-3e-05	3e-05	5e-05	7e-05	0.00023	0.0001	0.0001	2e-05	6
31325	-3e-05	3e-05	5e-05	7e-05	0.00023	0.0001	0.0001	2e-05	6
31326	-3e-05	3e-05	5e-05	7e-05	0.00023	0.0001	0.0001	2e-05	6
31327	-3e-05	3e-05	5e-05	7e-05	0.00023	0.0001	0.0001	2e-05	6
31328	-3e-05	3e-05	5e-05	7e-05	0.00023	0.0001	0.0001	2e-05	6
31329	-3e-05	3e-05	5e-05	7e-05	0.00023	0.0001	0.0001	2e-05	6
31330	-3e-05	3e-05	5e-05	7e-05	0.00023	0.0001	0.0001	2e-05	6
31331	-3e-05	3e-05	5e-05	7e-05	0.00023	0.0001	0.0001	2e-05	6
31332	-3e-05	3e-05	5e-05	7e-05	0.00023	0.0001	0.0001	2e-05	6
31333	-3e-05	3e-05	5e-05	7e-05	0.00023	0.0001	0.0001	2e-05	6
31334	-3e-05	3e-05	5e-05	7e-05	0.00023	0.0001	0.0001	2e-05	6
31335	-3e-05	3e-05	5e-05	7e-05	0.00023	0.0001	0.0001	2e-05	6
31336	-3e-05	3e-05	5e-05	7e-05	0.00023	0.0001	0.0001	2e-05	6
31339	2e-05	-2e-05	-0.00012	0	0.00025	0.00031	4e-05	-9e-05	6
31340	2e-05	-2e-05	-0.00012	0	0.00025	0.00031	4e-05	-9e-05	6
31341	2e-05	-2e-05	-0.00012	0	0.00025	0.00031	4e-05	-9e-05	6
31342	2e-05	-2e-05	-0.00012	0	0.00025	0.00031	4e-05	-9e-05	6
31343	2e-05	-2e-05	-0.00012	0	0.00025	0.00031	4e-05	-9e-05	6
31344	2e-05	-2e-05	-0.00012	0	0.00025	0.00031	4e-05	-9e-05	6
31345	2e-05	-2e-05	-0.00012	0	0.00025	0.00031	4e-05	-9e-05	6
31346	2e-05	-2e-05	-0.00012	0	0.00025	0.00031	4e-05	-9e-05	6
31347	2e-05	-2e-05	-0.00012	0	0.00025	0.00031	4e-05	-9e-05	6
31348	2e-05	-2e-05	-0.00012	0	0.00025	0.00031	4e-05	-9e-05	6
31349	2e-05	-2e-05	-0.00012	0	0.00025	0.00031	4e-05	-9e-05	6
31350	2e-05	-2e-05	-0.00012	0	0.00025	0.00031	4e-05	-9e-05	6
31351	2e-05	-2e-05	-0.00012	0	0.00025	0.00031	4e-05	-9e-05	6
31352	2e-05	-2e-05	-0.00012	0	0.00025	0.00031	4e-05	-9e-05	6
31353	2e-05	-2e-05	-0.00012	0	0.00025	0.00031	4e-05	-9e-05	6
31354	2e-05	-2e-05	-0.00012	0	0.00025	0.00031	4e-05	-9e-05	6
31355	2e-05	-2e-05	-0.00012	0	0.00025	0.00031	4e-05	-9e-05	6
31356	2e-05	-2e-05	-0.00012	0	0.00025	0.00031	4e-05	-9e-05	6
31357	2e-05	-2e-05	-0.00012	0	0.00025	0.00031	4e-05	-9e-05	6
31358	2e-05	-2e-05	-0.00012	0	0.00025	0.00031	4e-05	-9e-05	6
31359	-2e-05	-1e-05	3e-05	1e-05	-0.00012	-0.00039	-4e-05	2e-05	6
31360	4e-05	2e-05	1e-05	-4e-05	-0.00012	-0.00025	7e-05	0.00034	6
31361	4e-05	2e-05	1e-05	-4e-05	-0.00012	-0.00025	7e-05	0.00034	6
31362	4e-05	2e-05	1e-05	-4e-05	-0.00012	-0.00025	7e-05	0.00034	6
31363	4e-05	2e-05	1e-05	-4e-05	-0.00012	-0.00025	7e-05	0.00034	6
31364	4e-05	2e-05	1e-05	-4e-05	-0.00012	-0.00025	7e-05	0.00034	6
31365	4e-05	2e-05	1e-05	-4e-05	-0.00012	-0.00025	7e-05	0.00034	6
31367	4e-05	2e-05	1e-05	-4e-05	-0.00012	-0.00025	7e-05	0.00034	6
31368	4e-05	2e-05	1e-05	-4e-05	-0.00012	-0.00025	7e-05	0.00034	6
31369	4e-05	2e-05	1e-05	-4e-05	-0.00012	-0.00025	7e-05	0.00034	6
31370	4e-05	2e-05	1e-05	-4e-05	-0.00012	-0.00025	7e-05	0.00034	6
31371	4e-05	2e-05	1e-05	-4e-05	-0.00012	-0.00025	7e-05	0.00034	6
31372	4e-05	2e-05	1e-05	-4e-05	-0.00012	-0.00025	7e-05	0.00034	6
31373	-2e-05	-6e-05	0	-1e-05	8e-05	0.00025	-1e-05	-0.00016	6
31374	-2e-05	-6e-05	0	-1e-05	8e-05	0.00025	-1e-05	-0.00016	6
31375	-2e-05	-6e-05	0	-1e-05	8e-05	0.00025	-1e-05	-0.00016	6
31376	-2e-05	-6e-05	0	-1e-05	8e-05	0.00025	-1e-05	-0.00016	6
31377	-2e-05	-6e-05	0	-1e-05	8e-05	0.00025	-1e-05	-0.00016	6
31378	-2e-05	-6e-05	0	-1e-05	8e-05	0.00025	-1e-05	-0.00016	6
31379	-2e-05	-2e-05	-8e-05	-4e-05	-0.00018	-0.00038	-6e-05	1e-05	6
31380	1e-05	0	-3e-05	-6e-05	-8e-05	7e-05	-1e-05	-2e-05	6
31381	1e-05	0	-3e-05	-6e-05	-8e-05	7e-05	-1e-05	-2e-05	6
31382	1e-05	0	-3e-05	-6e-05	-8e-05	7e-05	-1e-05	-2e-05	6
31383	1e-05	0	-3e-05	-6e-05	-8e-05	7e-05	-1e-05	-2e-05	6
31384	1e-05	0	-3e-05	-6e-05	-8e-05	7e-05	-1e-05	-2e-05	6
31385	1e-05	0	-3e-05	-6e-05	-8e-05	7e-05	-1e-05	-2e-05	6
31386	1e-05	0	-3e-05	-6e-05	-8e-05	7e-05	-1e-05	-2e-05	6
31388	1e-05	0	-3e-05	-6e-05	-8e-05	7e-05	-1e-05	-2e-05	6
31390	1e-05	0	-3e-05	-6e-05	-8e-05	7e-05	-1e-05	-2e-05	6
31391	1e-05	0	-3e-05	-6e-05	-8e-05	7e-05	-1e-05	-2e-05	6
31392	1e-05	0	-3e-05	-6e-05	-8e-05	7e-05	-1e-05	-2e-05	6
31393	1e-05	0	-3e-05	-6e-05	-8e-05	7e-05	-1e-05	-2e-05	6
31394	1e-05	0	-3e-05	-6e-05	-8e-05	7e-05	-1e-05	-2e-05	6
31395	1e-05	0	-3e-05	-6e-05	-8e-05	7e-05	-1e-05	-2e-05	6
31396	1e-05	0	-3e-05	-6e-05	-8e-05	7e-05	-1e-05	-2e-05	6
31397	5e-05	3e-05	5e-05	1e-05	-7e-05	-1e-05	6e-05	9e-05	6
31398	-0.0001	-0.00011	-3e-05	-3e-05	-7e-05	-0.00021	-0.00011	-0.00014	6
31399	-0.0001	-0.00011	-3e-05	-3e-05	-7e-05	-0.00021	-0.00011	-0.00014	6
31400	-0.0001	-0.00011	-3e-05	-3e-05	-7e-05	-0.00021	-0.00011	-0.00014	6
31401	-0.0001	-0.00011	-3e-05	-3e-05	-7e-05	-0.00021	-0.00011	-0.00014	6
31402	-0.0001	-0.00011	-3e-05	-3e-05	-7e-05	-0.00021	-0.00011	-0.00014	6
31403	-0.0001	-0.00011	-3e-05	-3e-05	-7e-05	-0.00021	-0.00011	-0.00014	6
31404	-0.0001	-0.00011	-3e-05	-3e-05	-7e-05	-0.00021	-0.00011	-0.00014	6
31405	-0.0001	-0.00011	-3e-05	-3e-05	-7e-05	-0.00021	-0.00011	-0.00014	6
31406	-0.0001	-0.00011	-3e-05	-3e-05	-7e-05	-0.00021	-0.00011	-0.00014	6
31407	-0.0001	-0.00011	-3e-05	-3e-05	-7e-05	-0.00021	-0.00011	-0.00014	6
31408	-0.0001	-0.00011	-3e-05	-3e-05	-7e-05	-0.00021	-0.00011	-0.00014	6
31409	-0.0001	-0.00011	-3e-05	-3e-05	-7e-05	-0.00021	-0.00011	-0.00014	6
31410	-0.0001	-0.00011	-3e-05	-3e-05	-7e-05	-0.00021	-0.00011	-0.00014	6
31411	-0.0001	-0.00011	-3e-05	-3e-05	-7e-05	-0.00021	-0.00011	-0.00014	6
31412	-0.0001	-0.00011	-3e-05	-3e-05	-7e-05	-0.00021	-0.00011	-0.00014	6
31413	-0.0001	-0.00011	-3e-05	-3e-05	-7e-05	-0.00021	-0.00011	-0.00014	6
31414	-0.0001	-0.00011	-3e-05	-3e-05	-7e-05	-0.00021	-0.00011	-0.00014	6
31415	-0.0001	-0.00011	-3e-05	-3e-05	-7e-05	-0.00021	-0.00011	-0.00014	6
31416	-0.0001	-0.00011	-3e-05	-3e-05	-7e-05	-0.00021	-0.00011	-0.00014	6
31417	-0.0001	-0.00011	-3e-05	-3e-05	-7e-05	-0.00021	-0.00011	-0.00014	6
31418	-0.0001	-0.00011	-3e-05	-3e-05	-7e-05	-0.00021	-0.00011	-0.00014	6
31419	-1e-05	1e-05	-1e-05	3e-05	0.00018	4e-05	-0.00013	-0.00023	6
31420	-3e-05	-1e-05	-9e-05	-2e-05	-0.00013	-0.00013	-6e-05	-6e-05	6
31421	-3e-05	-1e-05	-9e-05	-2e-05	-0.00013	-0.00013	-6e-05	-6e-05	6
31422	-3e-05	-1e-05	-9e-05	-2e-05	-0.00013	-0.00013	-6e-05	-6e-05	6
31423	-3e-05	-1e-05	-9e-05	-2e-05	-0.00013	-0.00013	-6e-05	-6e-05	6
31424	-3e-05	-1e-05	-9e-05	-2e-05	-0.00013	-0.00013	-6e-05	-6e-05	6
31425	-3e-05	-1e-05	-9e-05	-2e-05	-0.00013	-0.00013	-6e-05	-6e-05	6
31426	-3e-05	-1e-05	-9e-05	-2e-05	-0.00013	-0.00013	-6e-05	-6e-05	6
31427	-3e-05	-1e-05	-9e-05	-2e-05	-0.00013	-0.00013	-6e-05	-6e-05	6
31428	-3e-05	-1e-05	-9e-05	-2e-05	-0.00013	-0.00013	-6e-05	-6e-05	6
31429	-3e-05	-1e-05	-9e-05	-2e-05	-0.00013	-0.00013	-6e-05	-6e-05	6
31430	-3e-05	-1e-05	-9e-05	-2e-05	-0.00013	-0.00013	-6e-05	-6e-05	6
31431	-3e-05	-1e-05	-9e-05	-2e-05	-0.00013	-0.00013	-6e-05	-6e-05	6
31432	-3e-05	-1e-05	-9e-05	-2e-05	-0.00013	-0.00013	-6e-05	-6e-05	6
31433	1e-05	3e-05	4e-05	1e-05	-1e-05	0.00028	6e-05	0.00013	6
31434	1e-05	3e-05	4e-05	1e-05	-1e-05	0.00028	6e-05	0.00013	6
31435	1e-05	3e-05	4e-05	1e-05	-1e-05	0.00028	6e-05	0.00013	6
31436	1e-05	3e-05	4e-05	1e-05	-1e-05	0.00028	6e-05	0.00013	6
31438	1e-05	3e-05	4e-05	1e-05	-1e-05	0.00028	6e-05	0.00013	6
31439	1e-05	3e-05	4e-05	1e-05	-1e-05	0.00028	6e-05	0.00013	6
31440	-1e-05	-2e-05	4e-05	-1e-05	-8e-05	-0.00025	-7e-05	-3e-05	6
31441	-1e-05	-2e-05	4e-05	-1e-05	-8e-05	-0.00025	-7e-05	-3e-05	6
31442	-1e-05	-2e-05	4e-05	-1e-05	-8e-05	-0.00025	-7e-05	-3e-05	6
31443	-1e-05	-2e-05	4e-05	-1e-05	-8e-05	-0.00025	-7e-05	-3e-05	6
31444	-1e-05	-2e-05	4e-05	-1e-05	-8e-05	-0.00025	-7e-05	-3e-05	6
31445	-1e-05	-2e-05	4e-05	-1e-05	-8e-05	-0.00025	-7e-05	-3e-05	6
31446	-1e-05	-2e-05	4e-05	-1e-05	-8e-05	-0.00025	-7e-05	-3e-05	6
31447	-1e-05	-2e-05	4e-05	-1e-05	-8e-05	-0.00025	-7e-05	-3e-05	6
31448	-1e-05	-2e-05	4e-05	-1e-05	-8e-05	-0.00025	-7e-05	-3e-05	6
31449	-1e-05	-2e-05	4e-05	-1e-05	-8e-05	-0.00025	-7e-05	-3e-05	6
31450	-1e-05	-2e-05	4e-05	-1e-05	-8e-05	-0.00025	-7e-05	-3e-05	6
31451	-1e-05	-2e-05	4e-05	-1e-05	-8e-05	-0.00025	-7e-05	-3e-05	6
31452	-1e-05	-2e-05	4e-05	-1e-05	-8e-05	-0.00025	-7e-05	-3e-05	6
31453	-1e-05	-2e-05	4e-05	-1e-05	-8e-05	-0.00025	-7e-05	-3e-05	6
31454	-1e-05	-2e-05	4e-05	-1e-05	-8e-05	-0.00025	-7e-05	-3e-05	6
31455	-1e-05	-2e-05	4e-05	-1e-05	-8e-05	-0.00025	-7e-05	-3e-05	6
31456	3e-05	0	-2e-05	3e-05	0.00032	0.00025	2e-05	6e-05	6
31457	3e-05	0	-2e-05	3e-05	0.00032	0.00025	2e-05	6e-05	6
31458	-6e-05	-2e-05	0	4e-05	-4e-05	-0.00014	-6e-05	-0.00013	6
31459	-6e-05	-2e-05	0	4e-05	-4e-05	-0.00014	-6e-05	-0.00013	6
31460	-6e-05	-2e-05	0	4e-05	-4e-05	-0.00014	-6e-05	-0.00013	6
31461	-6e-05	-2e-05	0	4e-05	-4e-05	-0.00014	-6e-05	-0.00013	6
31462	-6e-05	-2e-05	0	4e-05	-4e-05	-0.00014	-6e-05	-0.00013	6
31463	-6e-05	-2e-05	0	4e-05	-4e-05	-0.00014	-6e-05	-0.00013	6
31464	-6e-05	-2e-05	0	4e-05	-4e-05	-0.00014	-6e-05	-0.00013	6
31465	-6e-05	-2e-05	0	4e-05	-4e-05	-0.00014	-6e-05	-0.00013	6
31466	-6e-05	-2e-05	0	4e-05	-4e-05	-0.00014	-6e-05	-0.00013	6
31467	-6e-05	-2e-05	0	4e-05	-4e-05	-0.00014	-6e-05	-0.00013	6
31468	-6e-05	-2e-05	0	4e-05	-4e-05	-0.00014	-6e-05	-0.00013	6
31469	-6e-05	-2e-05	0	4e-05	-4e-05	-0.00014	-6e-05	-0.00013	6
31470	-6e-05	-2e-05	0	4e-05	-4e-05	-0.00014	-6e-05	-0.00013	6
31471	-6e-05	-2e-05	0	4e-05	-4e-05	-0.00014	-6e-05	-0.00013	6
31472	-6e-05	-2e-05	0	4e-05	-4e-05	-0.00014	-6e-05	-0.00013	6
31473	-6e-05	-2e-05	0	4e-05	-4e-05	-0.00014	-6e-05	-0.00013	6
31474	-6e-05	-2e-05	0	4e-05	-4e-05	-0.00014	-6e-05	-0.00013	6
31475	-6e-05	-2e-05	0	4e-05	-4e-05	-0.00014	-6e-05	-0.00013	6
31476	-6e-05	-2e-05	0	4e-05	-4e-05	-0.00014	-6e-05	-0.00013	6
31477	-6e-05	-2e-05	0	4e-05	-4e-05	-0.00014	-6e-05	-0.00013	6
31478	-6e-05	-2e-05	0	4e-05	-4e-05	-0.00014	-6e-05	-0.00013	6
31479	4e-05	-6e-05	-3e-05	-8e-05	-0.00034	0.00015	0.0001	0.00026	6
31480	4e-05	-6e-05	-3e-05	-8e-05	-0.00034	0.00015	0.0001	0.00026	6
31481	4e-05	3e-05	5e-05	2e-05	-0.0001	3e-05	5e-05	3e-05	6
31482	4e-05	3e-05	5e-05	2e-05	-0.0001	3e-05	5e-05	3e-05	6
31483	4e-05	3e-05	5e-05	2e-05	-0.0001	3e-05	5e-05	3e-05	6
31484	4e-05	3e-05	5e-05	2e-05	-0.0001	3e-05	5e-05	3e-05	6
31485	4e-05	3e-05	5e-05	2e-05	-0.0001	3e-05	5e-05	3e-05	6
31486	4e-05	3e-05	5e-05	2e-05	-0.0001	3e-05	5e-05	3e-05	6
31489	4e-05	3e-05	5e-05	2e-05	-0.0001	3e-05	5e-05	3e-05	6
31490	4e-05	3e-05	5e-05	2e-05	-0.0001	3e-05	5e-05	3e-05	6
31491	4e-05	3e-05	5e-05	2e-05	-0.0001	3e-05	5e-05	3e-05	6
31492	-8e-05	0	-2e-05	-2e-05	-0.0001	-0.00014	-8e-05	-0.00037	6
31493	0	-6e-05	-1e-05	-2e-05	-4e-05	-0.00013	-0.00014	-2e-05	6
31494	0	-6e-05	-1e-05	-2e-05	-4e-05	-0.00013	-0.00014	-2e-05	6
31495	0	-6e-05	-1e-05	-2e-05	-4e-05	-0.00013	-0.00014	-2e-05	6
31496	0	-6e-05	-1e-05	-2e-05	-4e-05	-0.00013	-0.00014	-2e-05	6
31497	0	-6e-05	-1e-05	-2e-05	-4e-05	-0.00013	-0.00014	-2e-05	6
31498	0	-6e-05	-1e-05	-2e-05	-4e-05	-0.00013	-0.00014	-2e-05	6
31499	0	-6e-05	-1e-05	-2e-05	-4e-05	-0.00013	-0.00014	-2e-05	6
31500	0	-6e-05	-1e-05	-2e-05	-4e-05	-0.00013	-0.00014	-2e-05	6
31501	6e-05	3e-05	2e-05	-1e-05	-0.00011	-0.00019	0.00013	0.00015	6
31502	7e-05	1e-05	6e-05	-2e-05	-0.00014	-3e-05	-1e-05	0.0001	6
31503	7e-05	1e-05	6e-05	-2e-05	-0.00014	-3e-05	-1e-05	0.0001	6
31504	7e-05	1e-05	6e-05	-2e-05	-0.00014	-3e-05	-1e-05	0.0001	6
31505	7e-05	1e-05	6e-05	-2e-05	-0.00014	-3e-05	-1e-05	0.0001	6
31506	7e-05	1e-05	6e-05	-2e-05	-0.00014	-3e-05	-1e-05	0.0001	6
31507	7e-05	1e-05	6e-05	-2e-05	-0.00014	-3e-05	-1e-05	0.0001	6
31508	7e-05	1e-05	6e-05	-2e-05	-0.00014	-3e-05	-1e-05	0.0001	6
31509	7e-05	1e-05	6e-05	-2e-05	-0.00014	-3e-05	-1e-05	0.0001	6
31510	7e-05	1e-05	6e-05	-2e-05	-0.00014	-3e-05	-1e-05	0.0001	6
31511	7e-05	1e-05	6e-05	-2e-05	-0.00014	-3e-05	-1e-05	0.0001	6
31512	7e-05	1e-05	6e-05	-2e-05	-0.00014	-3e-05	-1e-05	0.0001	6
31513	7e-05	1e-05	6e-05	-2e-05	-0.00014	-3e-05	-1e-05	0.0001	6
31514	7e-05	1e-05	6e-05	-2e-05	-0.00014	-3e-05	-1e-05	0.0001	6
31515	7e-05	1e-05	6e-05	-2e-05	-0.00014	-3e-05	-1e-05	0.0001	6
31516	7e-05	1e-05	6e-05	-2e-05	-0.00014	-3e-05	-1e-05	0.0001	6
31517	7e-05	1e-05	6e-05	-2e-05	-0.00014	-3e-05	-1e-05	0.0001	6
31518	7e-05	1e-05	6e-05	-2e-05	-0.00014	-3e-05	-1e-05	0.0001	6
31519	7e-05	1e-05	6e-05	-2e-05	-0.00014	-3e-05	-1e-05	0.0001	6
31520	7e-05	1e-05	6e-05	-2e-05	-0.00014	-3e-05	-1e-05	0.0001	6
31521	7e-05	1e-05	6e-05	-2e-05	-0.00014	-3e-05	-1e-05	0.0001	6
31522	7e-05	1e-05	6e-05	-2e-05	-0.00014	-3e-05	-1e-05	0.0001	6
31523	-5e-05	-2e-05	-4e-05	-3e-05	0.0001	-4e-05	7e-05	0.00025	6
31524	-5e-05	-2e-05	-4e-05	-3e-05	0.0001	-4e-05	7e-05	0.00025	6
31525	-5e-05	-2e-05	-4e-05	-3e-05	0.0001	-4e-05	7e-05	0.00025	6
31526	-5e-05	-2e-05	-4e-05	-3e-05	0.0001	-4e-05	7e-05	0.00025	6
31527	-5e-05	-2e-05	-4e-05	-3e-05	0.0001	-4e-05	7e-05	0.00025	6
31528	-5e-05	-2e-05	-4e-05	-3e-05	0.0001	-4e-05	7e-05	0.00025	6
31529	-5e-05	-2e-05	-4e-05	-3e-05	0.0001	-4e-05	7e-05	0.00025	6
31530	4e-05	4e-05	2e-05	2e-05	8e-05	6e-05	3e-05	0.00016	6
31531	4e-05	4e-05	2e-05	2e-05	8e-05	6e-05	3e-05	0.00016	6
31532	4e-05	4e-05	2e-05	2e-05	8e-05	6e-05	3e-05	0.00016	6
31533	4e-05	4e-05	2e-05	2e-05	8e-05	6e-05	3e-05	0.00016	6
31534	4e-05	4e-05	2e-05	2e-05	8e-05	6e-05	3e-05	0.00016	6
31535	4e-05	4e-05	2e-05	2e-05	8e-05	6e-05	3e-05	0.00016	6
31536	4e-05	4e-05	2e-05	2e-05	8e-05	6e-05	3e-05	0.00016	6
31539	2e-05	-1e-05	-1e-05	-1e-05	-0.00015	-0.00034	3e-05	0	6
31540	-4e-05	-4e-05	-8e-05	-7e-05	-0.00016	-0.00019	0	4e-05	6
31541	-4e-05	-4e-05	-8e-05	-7e-05	-0.00016	-0.00019	0	4e-05	6
31542	-4e-05	-4e-05	-8e-05	-7e-05	-0.00016	-0.00019	0	4e-05	6
31543	-4e-05	-4e-05	-8e-05	-7e-05	-0.00016	-0.00019	0	4e-05	6
31544	-4e-05	-4e-05	-8e-05	-7e-05	-0.00016	-0.00019	0	4e-05	6
31545	-4e-05	-4e-05	-8e-05	-7e-05	-0.00016	-0.00019	0	4e-05	6
31546	-4e-05	-4e-05	-8e-05	-7e-05	-0.00016	-0.00019	0	4e-05	6
31547	-4e-05	-4e-05	-8e-05	-7e-05	-0.00016	-0.00019	0	4e-05	6
31548	-4e-05	-4e-05	-8e-05	-7e-05	-0.00016	-0.00019	0	4e-05	6
31549	-4e-05	-4e-05	-8e-05	-7e-05	-0.00016	-0.00019	0	4e-05	6
31550	-4e-05	-4e-05	-8e-05	-7e-05	-0.00016	-0.00019	0	4e-05	6
31551	-4e-05	-4e-05	-8e-05	-7e-05	-0.00016	-0.00019	0	4e-05	6
31552	-8e-05	0	-1e-05	0	7e-05	-5e-05	-0.00011	-0.00028	6
31553	-8e-05	0	-1e-05	0	7e-05	-5e-05	-0.00011	-0.00028	6
31554	-8e-05	0	-1e-05	0	7e-05	-5e-05	-0.00011	-0.00028	6
31555	-8e-05	0	-1e-05	0	7e-05	-5e-05	-0.00011	-0.00028	6
31556	-8e-05	0	-1e-05	0	7e-05	-5e-05	-0.00011	-0.00028	6
31557	-8e-05	0	-1e-05	0	7e-05	-5e-05	-0.00011	-0.00028	6
31558	-8e-05	0	-1e-05	0	7e-05	-5e-05	-0.00011	-0.00028	6
31559	-8e-05	0	-1e-05	0	7e-05	-5e-05	-0.00011	-0.00028	6
31560	-8e-05	0	-1e-05	0	7e-05	-5e-05	-0.00011	-0.00028	6
31561	-8e-05	0	-1e-05	0	7e-05	-5e-05	-0.00011	-0.00028	6
31562	-8e-05	0	-1e-05	0	7e-05	-5e-05	-0.00011	-0.00028	6
31563	-8e-05	0	-1e-05	0	7e-05	-5e-05	-0.00011	-0.00028	6
31564	-8e-05	0	-1e-05	0	7e-05	-5e-05	-0.00011	-0.00028	6
31565	-8e-05	0	-1e-05	0	7e-05	-5e-05	-0.00011	-0.00028	6
31566	-8e-05	0	-1e-05	0	7e-05	-5e-05	-0.00011	-0.00028	6
31567	-8e-05	0	-1e-05	0	7e-05	-5e-05	-0.00011	-0.00028	6
31568	1e-05	0	5e-05	2e-05	5e-05	8e-05	-8e-05	-0.00012	6
31569	1e-05	0	5e-05	2e-05	5e-05	8e-05	-8e-05	-0.00012	6
31570	1e-05	0	5e-05	2e-05	5e-05	8e-05	-8e-05	-0.00012	6
31571	1e-05	0	5e-05	2e-05	5e-05	8e-05	-8e-05	-0.00012	6
31572	1e-05	0	5e-05	2e-05	5e-05	8e-05	-8e-05	-0.00012	6
31573	1e-05	0	5e-05	2e-05	5e-05	8e-05	-8e-05	-0.00012	6
31574	1e-05	0	5e-05	2e-05	5e-05	8e-05	-8e-05	-0.00012	6
31575	1e-05	0	5e-05	2e-05	5e-05	8e-05	-8e-05	-0.00012	6
31576	1e-05	0.0001	7e-05	1e-05	2e-05	-0.00015	-6e-05	-0.00031	6
31577	1e-05	0.0001	7e-05	1e-05	2e-05	-0.00015	-6e-05	-0.00031	6
31578	3e-05	-1e-05	-5e-05	2e-05	4e-05	-4e-05	3e-05	0.00019	6
31579	3e-05	-1e-05	-5e-05	2e-05	4e-05	-4e-05	3e-05	0.00019	6
31580	3e-05	-1e-05	-5e-05	2e-05	4e-05	-4e-05	3e-05	0.00019	6
31581	3e-05	-1e-05	-5e-05	2e-05	4e-05	-4e-05	3e-05	0.00019	6
31582	3e-05	-1e-05	-5e-05	2e-05	4e-05	-4e-05	3e-05	0.00019	6
31583	3e-05	-1e-05	-5e-05	2e-05	4e-05	-4e-05	3e-05	0.00019	6
31584	3e-05	-1e-05	-5e-05	2e-05	4e-05	-4e-05	3e-05	0.00019	6
31585	3e-05	-1e-05	-5e-05	2e-05	4e-05	-4e-05	3e-05	0.00019	6
31586	3e-05	-1e-05	-5e-05	2e-05	4e-05	-4e-05	3e-05	0.00019	6
31588	3e-05	-1e-05	-5e-05	2e-05	4e-05	-4e-05	3e-05	0.00019	6
31589	3e-05	-1e-05	-5e-05	2e-05	4e-05	-4e-05	3e-05	0.00019	6
31590	3e-05	-1e-05	-5e-05	2e-05	4e-05	-4e-05	3e-05	0.00019	6
31591	3e-05	-1e-05	-5e-05	2e-05	4e-05	-4e-05	3e-05	0.00019	6
31592	3e-05	-1e-05	-5e-05	2e-05	4e-05	-4e-05	3e-05	0.00019	6
31593	3e-05	-1e-05	-5e-05	2e-05	4e-05	-4e-05	3e-05	0.00019	6
31594	3e-05	-1e-05	-5e-05	2e-05	4e-05	-4e-05	3e-05	0.00019	6
31595	3e-05	-1e-05	-5e-05	2e-05	4e-05	-4e-05	3e-05	0.00019	6
31596	3e-05	-1e-05	-5e-05	2e-05	4e-05	-4e-05	3e-05	0.00019	6
31597	3e-05	-1e-05	-5e-05	2e-05	4e-05	-4e-05	3e-05	0.00019	6
31598	3e-05	-1e-05	-5e-05	2e-05	4e-05	-4e-05	3e-05	0.00019	6
31599	1e-05	4e-05	3e-05	2e-05	0	4e-05	0.00011	-3e-05	6
31600	-2e-05	0	1e-05	-1e-05	7e-05	0.0002	2e-05	-9e-05	6
31601	-2e-05	0	1e-05	-1e-05	7e-05	0.0002	2e-05	-9e-05	6
31602	-2e-05	0	1e-05	-1e-05	7e-05	0.0002	2e-05	-9e-05	6
31603	-2e-05	0	1e-05	-1e-05	7e-05	0.0002	2e-05	-9e-05	6
31604	-2e-05	0	1e-05	-1e-05	7e-05	0.0002	2e-05	-9e-05	6
31605	-2e-05	0	1e-05	-1e-05	7e-05	0.0002	2e-05	-9e-05	6
31606	-2e-05	0	1e-05	-1e-05	7e-05	0.0002	2e-05	-9e-05	6
31607	-2e-05	0	1e-05	-1e-05	7e-05	0.0002	2e-05	-9e-05	6
31608	-2e-05	0	1e-05	-1e-05	7e-05	0.0002	2e-05	-9e-05	6
31609	-2e-05	0	1e-05	-1e-05	7e-05	0.0002	2e-05	-9e-05	6
31610	-2e-05	0	1e-05	-1e-05	7e-05	0.0002	2e-05	-9e-05	6
31611	-2e-05	0	1e-05	-1e-05	7e-05	0.0002	2e-05	-9e-05	6
31612	-0.00016	-0.00012	-7e-05	1e-05	0.0001	0.00034	8e-05	0	6
31613	-0.00016	-0.00012	-7e-05	1e-05	0.0001	0.00034	8e-05	0	6
31614	-0.00016	-0.00012	-7e-05	1e-05	0.0001	0.00034	8e-05	0	6
31615	-0.00016	-0.00012	-7e-05	1e-05	0.0001	0.00034	8e-05	0	6
31616	-0.00016	-0.00012	-7e-05	1e-05	0.0001	0.00034	8e-05	0	6
31617	-0.00016	-0.00012	-7e-05	1e-05	0.0001	0.00034	8e-05	0	6
31618	-0.00016	-0.00012	-7e-05	1e-05	0.0001	0.00034	8e-05	0	6
31619	-0.00016	-0.00012	-7e-05	1e-05	0.0001	0.00034	8e-05	0	6
31620	-0.00016	-0.00012	-7e-05	1e-05	0.0001	0.00034	8e-05	0	6
31621	-3e-05	-1e-05	0	-1e-05	0	-0.0001	-5e-05	-8e-05	6
31622	-3e-05	-1e-05	0	-1e-05	0	-0.0001	-5e-05	-8e-05	6
31623	-3e-05	-1e-05	0	-1e-05	0	-0.0001	-5e-05	-8e-05	6
31624	-3e-05	-1e-05	0	-1e-05	0	-0.0001	-5e-05	-8e-05	6
31625	-3e-05	-1e-05	0	-1e-05	0	-0.0001	-5e-05	-8e-05	6
31626	-3e-05	-1e-05	0	-1e-05	0	-0.0001	-5e-05	-8e-05	6
31627	-3e-05	-1e-05	0	-1e-05	0	-0.0001	-5e-05	-8e-05	6
31628	-3e-05	-1e-05	0	-1e-05	0	-0.0001	-5e-05	-8e-05	6
31629	-3e-05	-1e-05	0	-1e-05	0	-0.0001	-5e-05	-8e-05	6
31630	-3e-05	-1e-05	0	-1e-05	0	-0.0001	-5e-05	-8e-05	6
31631	-3e-05	-1e-05	0	-1e-05	0	-0.0001	-5e-05	-8e-05	6
31632	-3e-05	-1e-05	0	-1e-05	0	-0.0001	-5e-05	-8e-05	6
31633	-3e-05	-1e-05	0	-1e-05	0	-0.0001	-5e-05	-8e-05	6
31634	-3e-05	-1e-05	0	-1e-05	0	-0.0001	-5e-05	-8e-05	6
31635	-3e-05	-1e-05	0	-1e-05	0	-0.0001	-5e-05	-8e-05	6
31636	-1e-05	2e-05	4e-05	0	0.00013	0.00042	0.00018	-3e-05	6
31639	-8e-05	-1e-05	1e-05	-4e-05	-5e-05	6e-05	-5e-05	-0.00026	6
31640	-8e-05	-1e-05	1e-05	-4e-05	-5e-05	6e-05	-5e-05	-0.00026	6
31641	-8e-05	-1e-05	1e-05	-4e-05	-5e-05	6e-05	-5e-05	-0.00026	6
31642	-8e-05	-1e-05	1e-05	-4e-05	-5e-05	6e-05	-5e-05	-0.00026	6
31643	-8e-05	-1e-05	1e-05	-4e-05	-5e-05	6e-05	-5e-05	-0.00026	6
31644	-8e-05	-1e-05	1e-05	-4e-05	-5e-05	6e-05	-5e-05	-0.00026	6
31645	-8e-05	-1e-05	1e-05	-4e-05	-5e-05	6e-05	-5e-05	-0.00026	6
31646	-8e-05	-1e-05	1e-05	-4e-05	-5e-05	6e-05	-5e-05	-0.00026	6
31647	-8e-05	-1e-05	1e-05	-4e-05	-5e-05	6e-05	-5e-05	-0.00026	6
31648	-8e-05	-1e-05	1e-05	-4e-05	-5e-05	6e-05	-5e-05	-0.00026	6
31649	-8e-05	-1e-05	1e-05	-4e-05	-5e-05	6e-05	-5e-05	-0.00026	6
31650	-8e-05	-1e-05	1e-05	-4e-05	-5e-05	6e-05	-5e-05	-0.00026	6
31651	-8e-05	-1e-05	1e-05	-4e-05	-5e-05	6e-05	-5e-05	-0.00026	6
31652	-8e-05	-1e-05	1e-05	-4e-05	-5e-05	6e-05	-5e-05	-0.00026	6
31653	-8e-05	-1e-05	1e-05	-4e-05	-5e-05	6e-05	-5e-05	-0.00026	6
31654	-8e-05	-1e-05	1e-05	-4e-05	-5e-05	6e-05	-5e-05	-0.00026	6
31655	-8e-05	-1e-05	1e-05	-4e-05	-5e-05	6e-05	-5e-05	-0.00026	6
31657	-8e-05	-1e-05	1e-05	-4e-05	-5e-05	6e-05	-5e-05	-0.00026	6
31658	-8e-05	-1e-05	1e-05	-4e-05	-5e-05	6e-05	-5e-05	-0.00026	6
31659	-1e-05	-2e-05	2e-05	-7e-05	-0.00014	-3e-05	-3e-05	2e-05	6
31660	0.00011	3e-05	4e-05	7e-05	0.00016	0.00015	3e-05	0.00025	6
31661	0.00011	3e-05	4e-05	7e-05	0.00016	0.00015	3e-05	0.00025	6
31663	0.00011	3e-05	4e-05	7e-05	0.00016	0.00015	3e-05	0.00025	6
31664	0.00011	3e-05	4e-05	7e-05	0.00016	0.00015	3e-05	0.00025	6
31665	0.00011	3e-05	4e-05	7e-05	0.00016	0.00015	3e-05	0.00025	6
31666	0.00011	3e-05	4e-05	7e-05	0.00016	0.00015	3e-05	0.00025	6
31667	0.00011	3e-05	4e-05	7e-05	0.00016	0.00015	3e-05	0.00025	6
31668	0.00011	3e-05	4e-05	7e-05	0.00016	0.00015	3e-05	0.00025	6
31669	0.00011	3e-05	4e-05	7e-05	0.00016	0.00015	3e-05	0.00025	6
31670	0.00011	3e-05	4e-05	7e-05	0.00016	0.00015	3e-05	0.00025	6
31671	0.00011	3e-05	4e-05	7e-05	0.00016	0.00015	3e-05	0.00025	6
31672	1e-05	1e-05	4e-05	4e-05	8e-05	5e-05	2e-05	0.00019	6
31674	1e-05	1e-05	4e-05	4e-05	8e-05	5e-05	2e-05	0.00019	6
31675	1e-05	1e-05	4e-05	4e-05	8e-05	5e-05	2e-05	0.00019	6
31676	1e-05	1e-05	4e-05	4e-05	8e-05	5e-05	2e-05	0.00019	6
31677	1e-05	1e-05	4e-05	4e-05	8e-05	5e-05	2e-05	0.00019	6
31678	1e-05	1e-05	4e-05	4e-05	8e-05	5e-05	2e-05	0.00019	6
31679	1e-05	1e-05	4e-05	4e-05	8e-05	5e-05	2e-05	0.00019	6
31680	1e-05	1e-05	4e-05	4e-05	8e-05	5e-05	2e-05	0.00019	6
31681	-0.0001	-8e-05	-0.00013	-0.0001	-9e-05	4e-05	1e-05	-0.00028	6
31682	-0.0001	-8e-05	-0.00013	-0.0001	-9e-05	4e-05	1e-05	-0.00028	6
31683	-0.0001	-8e-05	-0.00013	-0.0001	-9e-05	4e-05	1e-05	-0.00028	6
31684	-0.0001	-8e-05	-0.00013	-0.0001	-9e-05	4e-05	1e-05	-0.00028	6
31685	-0.0001	-8e-05	-0.00013	-0.0001	-9e-05	4e-05	1e-05	-0.00028	6
31686	-0.0001	-8e-05	-0.00013	-0.0001	-9e-05	4e-05	1e-05	-0.00028	6
31689	-0.0001	-8e-05	-0.00013	-0.0001	-9e-05	4e-05	1e-05	-0.00028	6
31690	-0.0001	-8e-05	-0.00013	-0.0001	-9e-05	4e-05	1e-05	-0.00028	6
31691	-0.0001	-8e-05	-0.00013	-0.0001	-9e-05	4e-05	1e-05	-0.00028	6
31692	-0.0001	-8e-05	-0.00013	-0.0001	-9e-05	4e-05	1e-05	-0.00028	6
31693	-0.0001	-8e-05	-0.00013	-0.0001	-9e-05	4e-05	1e-05	-0.00028	6
31694	-0.0001	-8e-05	-0.00013	-0.0001	-9e-05	4e-05	1e-05	-0.00028	6
31695	-0.0001	-8e-05	-0.00013	-0.0001	-9e-05	4e-05	1e-05	-0.00028	6
31696	0	-5e-05	-2e-05	2e-05	0.00013	3e-05	0	-0.00021	6
31697	0	-5e-05	-2e-05	2e-05	0.00013	3e-05	0	-0.00021	6
31698	-2e-05	4e-05	-2e-05	-6e-05	-7e-05	-0.00012	-5e-05	-0.00016	6
31699	0	0	5e-05	5e-05	0.00022	2e-05	-4e-05	2e-05	6
31700	0	0	5e-05	5e-05	0.00022	2e-05	-4e-05	2e-05	6
31701	0	0	5e-05	5e-05	0.00022	2e-05	-4e-05	2e-05	6
31702	0	0	5e-05	5e-05	0.00022	2e-05	-4e-05	2e-05	6
31703	0	0	5e-05	5e-05	0.00022	2e-05	-4e-05	2e-05	6
31704	0	0	5e-05	5e-05	0.00022	2e-05	-4e-05	2e-05	6
31705	0	0	5e-05	5e-05	0.00022	2e-05	-4e-05	2e-05	6
31706	0	0	5e-05	5e-05	0.00022	2e-05	-4e-05	2e-05	6
31707	0	0	5e-05	5e-05	0.00022	2e-05	-4e-05	2e-05	6
31708	0	0	5e-05	5e-05	0.00022	2e-05	-4e-05	2e-05	6
31709	0	0	5e-05	5e-05	0.00022	2e-05	-4e-05	2e-05	6
31710	0	0	5e-05	5e-05	0.00022	2e-05	-4e-05	2e-05	6
31711	0	0	5e-05	5e-05	0.00022	2e-05	-4e-05	2e-05	6
31712	0	0	5e-05	5e-05	0.00022	2e-05	-4e-05	2e-05	6
31713	0	0	5e-05	5e-05	0.00022	2e-05	-4e-05	2e-05	6
31714	0	0	5e-05	5e-05	0.00022	2e-05	-4e-05	2e-05	6
31715	0	0	5e-05	5e-05	0.00022	2e-05	-4e-05	2e-05	6
31716	0	0	5e-05	5e-05	0.00022	2e-05	-4e-05	2e-05	6
31717	0	0	5e-05	5e-05	0.00022	2e-05	-4e-05	2e-05	6
31718	0	0	5e-05	5e-05	0.00022	2e-05	-4e-05	2e-05	6
31719	6e-05	1e-05	-3e-05	-8e-05	-0.00016	9e-05	-8e-05	0.00011	6
31720	0	0	-2e-05	-3e-05	-0.00011	-0.00011	3e-05	-5e-05	6
31721	0	0	-2e-05	-3e-05	-0.00011	-0.00011	3e-05	-5e-05	6
31722	0	0	-2e-05	-3e-05	-0.00011	-0.00011	3e-05	-5e-05	6
31723	0	0	-2e-05	-3e-05	-0.00011	-0.00011	3e-05	-5e-05	6
31724	0	0	-2e-05	-3e-05	-0.00011	-0.00011	3e-05	-5e-05	6
31725	0	0	-2e-05	-3e-05	-0.00011	-0.00011	3e-05	-5e-05	6
31727	0	0	-2e-05	-3e-05	-0.00011	-0.00011	3e-05	-5e-05	6
31728	0	0	-2e-05	-3e-05	-0.00011	-0.00011	3e-05	-5e-05	6
31729	0	0	-2e-05	-3e-05	-0.00011	-0.00011	3e-05	-5e-05	6
31730	0	0	-2e-05	-3e-05	-0.00011	-0.00011	3e-05	-5e-05	6
31731	0	0	-2e-05	-3e-05	-0.00011	-0.00011	3e-05	-5e-05	6
31732	0	-5e-05	-0.00011	1e-05	-2e-05	0.00037	0.00012	8e-05	6
31733	0	-5e-05	-0.00011	1e-05	-2e-05	0.00037	0.00012	8e-05	6
31734	0	-5e-05	-0.00011	1e-05	-2e-05	0.00037	0.00012	8e-05	6
31735	0	-5e-05	-0.00011	1e-05	-2e-05	0.00037	0.00012	8e-05	6
31736	0	-5e-05	-0.00011	1e-05	-2e-05	0.00037	0.00012	8e-05	6
31738	0	-5e-05	-0.00011	1e-05	-2e-05	0.00037	0.00012	8e-05	6
31739	0	-5e-05	-0.00011	1e-05	-2e-05	0.00037	0.00012	8e-05	6
31740	0	-5e-05	-0.00011	1e-05	-2e-05	0.00037	0.00012	8e-05	6
31741	4e-05	1e-05	-1e-05	-1e-05	-9e-05	-2e-05	-4e-05	0.00011	6
31742	4e-05	1e-05	-1e-05	-1e-05	-9e-05	-2e-05	-4e-05	0.00011	6
31743	4e-05	1e-05	-1e-05	-1e-05	-9e-05	-2e-05	-4e-05	0.00011	6
31744	4e-05	1e-05	-1e-05	-1e-05	-9e-05	-2e-05	-4e-05	0.00011	6
31745	4e-05	1e-05	-1e-05	-1e-05	-9e-05	-2e-05	-4e-05	0.00011	6
31746	4e-05	1e-05	-1e-05	-1e-05	-9e-05	-2e-05	-4e-05	0.00011	6
31747	4e-05	1e-05	-1e-05	-1e-05	-9e-05	-2e-05	-4e-05	0.00011	6
31748	4e-05	1e-05	-1e-05	-1e-05	-9e-05	-2e-05	-4e-05	0.00011	6
31749	4e-05	1e-05	-1e-05	-1e-05	-9e-05	-2e-05	-4e-05	0.00011	6
31750	4e-05	1e-05	-1e-05	-1e-05	-9e-05	-2e-05	-4e-05	0.00011	6
31751	4e-05	1e-05	-1e-05	-1e-05	-9e-05	-2e-05	-4e-05	0.00011	6
31752	4e-05	1e-05	-1e-05	-1e-05	-9e-05	-2e-05	-4e-05	0.00011	6
31753	4e-05	1e-05	-1e-05	-1e-05	-9e-05	-2e-05	-4e-05	0.00011	6
31754	4e-05	1e-05	-1e-05	-1e-05	-9e-05	-2e-05	-4e-05	0.00011	6
31755	4e-05	1e-05	-1e-05	-1e-05	-9e-05	-2e-05	-4e-05	0.00011	6
31756	0	2e-05	2e-05	-6e-05	-0.00017	-0.00022	-0.0001	-0.00012	6
31757	-6e-05	0	-1e-05	2e-05	0.00017	2e-05	2e-05	-0.00011	6
66111	2e-05	-1e-05	-4e-05	-4e-05	-0.0001	-6e-05	-1e-05	6e-05	6
66112	2e-05	-1e-05	-4e-05	-4e-05	-0.0001	-6e-05	-1e-05	6e-05	6
66113	2e-05	-1e-05	-4e-05	-4e-05	-0.0001	-6e-05	-1e-05	6e-05	6
66114	2e-05	-1e-05	-4e-05	-4e-05	-0.0001	-6e-05	-1e-05	6e-05	6
66115	2e-05	-1e-05	-4e-05	-4e-05	-0.0001	-6e-05	-1e-05	6e-05	6
66116	2e-05	-1e-05	-4e-05	-4e-05	-0.0001	-6e-05	-1e-05	6e-05	6
66117	2e-05	-1e-05	-4e-05	-4e-05	-0.0001	-6e-05	-1e-05	6e-05	6
66118	2e-05	-1e-05	-4e-05	-4e-05	-0.0001	-6e-05	-1e-05	6e-05	6
66119	2e-05	-1e-05	-4e-05	-4e-05	-0.0001	-6e-05	-1e-05	6e-05	6
66120	2e-05	-1e-05	-4e-05	-4e-05	-0.0001	-6e-05	-1e-05	6e-05	6
66121	2e-05	-1e-05	-4e-05	-4e-05	-0.0001	-6e-05	-1e-05	6e-05	6
66122	2e-05	-1e-05	-4e-05	-4e-05	-0.0001	-6e-05	-1e-05	6e-05	6
66123	2e-05	-1e-05	-4e-05	-4e-05	-0.0001	-6e-05	-1e-05	6e-05	6
66124	2e-05	-1e-05	-4e-05	-4e-05	-0.0001	-6e-05	-1e-05	6e-05	6
66125	2e-05	-1e-05	-4e-05	-4e-05	-0.0001	-6e-05	-1e-05	6e-05	6
66126	2e-05	-1e-05	-4e-05	-4e-05	-0.0001	-6e-05	-1e-05	6e-05	6
66127	2e-05	-1e-05	-4e-05	-4e-05	-0.0001	-6e-05	-1e-05	6e-05	6
66128	2e-05	-1e-05	-4e-05	-4e-05	-0.0001	-6e-05	-1e-05	6e-05	6
66129	2e-05	-1e-05	-4e-05	-4e-05	-0.0001	-6e-05	-1e-05	6e-05	6
66130	2e-05	-1e-05	-4e-05	-4e-05	-0.0001	-6e-05	-1e-05	6e-05	6
66131	2e-05	-1e-05	-4e-05	-4e-05	-0.0001	-6e-05	-1e-05	6e-05	6
66132	2e-05	-1e-05	-4e-05	-4e-05	-0.0001	-6e-05	-1e-05	6e-05	6
66133	2e-05	-1e-05	-4e-05	-4e-05	-0.0001	-6e-05	-1e-05	6e-05	6
66134	2e-05	-1e-05	-4e-05	-4e-05	-0.0001	-6e-05	-1e-05	6e-05	6
66135	2e-05	-1e-05	-4e-05	-4e-05	-0.0001	-6e-05	-1e-05	6e-05	6
66136	2e-05	-1e-05	-4e-05	-4e-05	-0.0001	-6e-05	-1e-05	6e-05	6
66139	-7e-05	-8e-05	-5e-05	-0.00013	-5e-05	0.0003	1e-05	2e-05	6
66140	-7e-05	-8e-05	-5e-05	-0.00013	-5e-05	0.0003	1e-05	2e-05	6
66141	-7e-05	-8e-05	-5e-05	-0.00013	-5e-05	0.0003	1e-05	2e-05	6
66142	-7e-05	-8e-05	-5e-05	-0.00013	-5e-05	0.0003	1e-05	2e-05	6
66143	-7e-05	-8e-05	-5e-05	-0.00013	-5e-05	0.0003	1e-05	2e-05	6
66144	-2e-05	-5e-05	-4e-05	-4e-05	-0.00014	-0.00016	0.00019	0.00012	6
66145	-2e-05	-5e-05	-4e-05	-4e-05	-0.00014	-0.00016	0.00019	0.00012	6
66146	-2e-05	-5e-05	-4e-05	-4e-05	-0.00014	-0.00016	0.00019	0.00012	6
66147	-2e-05	-5e-05	-4e-05	-4e-05	-0.00014	-0.00016	0.00019	0.00012	6
66148	-2e-05	-5e-05	-4e-05	-4e-05	-0.00014	-0.00016	0.00019	0.00012	6
66149	-2e-05	-5e-05	-4e-05	-4e-05	-0.00014	-0.00016	0.00019	0.00012	6
66150	-2e-05	-5e-05	-4e-05	-4e-05	-0.00014	-0.00016	0.00019	0.00012	6
66151	-2e-05	-5e-05	-4e-05	-4e-05	-0.00014	-0.00016	0.00019	0.00012	6
66152	-9e-05	-0.00011	-0.00016	-0.00026	-0.00022	-0.00031	-0.00016	4e-05	6
66153	2e-05	7e-05	3e-05	4e-05	0.00016	0.00032	-4e-05	-0.00017	6
66154	2e-05	7e-05	3e-05	4e-05	0.00016	0.00032	-4e-05	-0.00017	6
66155	2e-05	7e-05	3e-05	4e-05	0.00016	0.00032	-4e-05	-0.00017	6
66156	2e-05	7e-05	3e-05	4e-05	0.00016	0.00032	-4e-05	-0.00017	6
66157	2e-05	7e-05	3e-05	4e-05	0.00016	0.00032	-4e-05	-0.00017	6
66158	2e-05	7e-05	3e-05	4e-05	0.00016	0.00032	-4e-05	-0.00017	6
66159	2e-05	7e-05	3e-05	4e-05	0.00016	0.00032	-4e-05	-0.00017	6
66160	2e-05	7e-05	3e-05	4e-05	0.00016	0.00032	-4e-05	-0.00017	6
66161	2e-05	7e-05	3e-05	4e-05	0.00016	0.00032	-4e-05	-0.00017	6
66162	2e-05	7e-05	3e-05	4e-05	0.00016	0.00032	-4e-05	-0.00017	6
66163	2e-05	7e-05	3e-05	4e-05	0.00016	0.00032	-4e-05	-0.00017	6
66164	2e-05	7e-05	3e-05	4e-05	0.00016	0.00032	-4e-05	-0.00017	6
66165	2e-05	7e-05	3e-05	4e-05	0.00016	0.00032	-4e-05	-0.00017	6
66166	2e-05	7e-05	3e-05	4e-05	0.00016	0.00032	-4e-05	-0.00017	6
66167	2e-05	7e-05	3e-05	4e-05	0.00016	0.00032	-4e-05	-0.00017	6
66168	0.0001	4e-05	2e-05	1e-05	-9e-05	-0.0001	0.00012	0.00021	6
66169	0.0001	4e-05	2e-05	1e-05	-9e-05	-0.0001	0.00012	0.00021	6
66170	0.0001	4e-05	2e-05	1e-05	-9e-05	-0.0001	0.00012	0.00021	6
66171	0.0001	4e-05	2e-05	1e-05	-9e-05	-0.0001	0.00012	0.00021	6
66172	0.0001	4e-05	2e-05	1e-05	-9e-05	-0.0001	0.00012	0.00021	6
66173	0.0001	4e-05	2e-05	1e-05	-9e-05	-0.0001	0.00012	0.00021	6
66174	0.0001	4e-05	2e-05	1e-05	-9e-05	-0.0001	0.00012	0.00021	6
66175	0.0001	4e-05	2e-05	1e-05	-9e-05	-0.0001	0.00012	0.00021	6
66176	0.0001	4e-05	2e-05	1e-05	-9e-05	-0.0001	0.00012	0.00021	6
66177	0.0001	4e-05	2e-05	1e-05	-9e-05	-0.0001	0.00012	0.00021	6
66178	0.0001	4e-05	2e-05	1e-05	-9e-05	-0.0001	0.00012	0.00021	6
66179	0.0001	4e-05	2e-05	1e-05	-9e-05	-0.0001	0.00012	0.00021	6
66180	0.0001	4e-05	2e-05	1e-05	-9e-05	-0.0001	0.00012	0.00021	6
66181	0.0001	4e-05	2e-05	1e-05	-9e-05	-0.0001	0.00012	0.00021	6
66182	0.0001	4e-05	2e-05	1e-05	-9e-05	-0.0001	0.00012	0.00021	6
66183	0.0001	4e-05	2e-05	1e-05	-9e-05	-0.0001	0.00012	0.00021	6
66184	0.0001	4e-05	2e-05	1e-05	-9e-05	-0.0001	0.00012	0.00021	6
66185	0.0001	4e-05	2e-05	1e-05	-9e-05	-0.0001	0.00012	0.00021	6
66186	0.0001	4e-05	2e-05	1e-05	-9e-05	-0.0001	0.00012	0.00021	6
66189	0.00013	0.00013	1e-05	-5e-05	-1e-05	-0.00022	-0.00016	-0.0001	6
66191	-5e-05	3e-05	2e-05	-3e-05	-0.00017	-0.00024	4e-05	-0.00042	6
66192	-5e-05	3e-05	2e-05	-3e-05	-0.00017	-0.00024	4e-05	-0.00042	6
66193	-5e-05	3e-05	2e-05	-3e-05	-0.00017	-0.00024	4e-05	-0.00042	6
66194	-5e-05	3e-05	2e-05	-3e-05	-0.00017	-0.00024	4e-05	-0.00042	6
66195	-5e-05	3e-05	2e-05	-3e-05	-0.00017	-0.00024	4e-05	-0.00042	6
66196	-5e-05	3e-05	2e-05	-3e-05	-0.00017	-0.00024	4e-05	-0.00042	6
66197	-5e-05	3e-05	2e-05	-3e-05	-0.00017	-0.00024	4e-05	-0.00042	6
66198	-5e-05	3e-05	2e-05	-3e-05	-0.00017	-0.00024	4e-05	-0.00042	6
66199	-5e-05	3e-05	2e-05	-3e-05	-0.00017	-0.00024	4e-05	-0.00042	6
66200	-5e-05	3e-05	2e-05	-3e-05	-0.00017	-0.00024	4e-05	-0.00042	6
66201	-5e-05	3e-05	2e-05	-3e-05	-0.00017	-0.00024	4e-05	-0.00042	6
66202	-5e-05	3e-05	2e-05	-3e-05	-0.00017	-0.00024	4e-05	-0.00042	6
66203	-5e-05	3e-05	2e-05	-3e-05	-0.00017	-0.00024	4e-05	-0.00042	6
66204	-5e-05	3e-05	2e-05	-3e-05	-0.00017	-0.00024	4e-05	-0.00042	6
66205	-5e-05	3e-05	2e-05	-3e-05	-0.00017	-0.00024	4e-05	-0.00042	6
66206	-5e-05	3e-05	2e-05	-3e-05	-0.00017	-0.00024	4e-05	-0.00042	6
66207	-5e-05	3e-05	2e-05	-3e-05	-0.00017	-0.00024	4e-05	-0.00042	6
66208	-5e-05	3e-05	2e-05	-3e-05	-0.00017	-0.00024	4e-05	-0.00042	6
66209	-5e-05	3e-05	2e-05	-3e-05	-0.00017	-0.00024	4e-05	-0.00042	6
66210	-5e-05	3e-05	2e-05	-3e-05	-0.00017	-0.00024	4e-05	-0.00042	6
66211	-5e-05	3e-05	2e-05	-3e-05	-0.00017	-0.00024	4e-05	-0.00042	6
66212	-3e-05	1e-05	0	2e-05	-2e-05	1e-05	-3e-05	8e-05	6
66213	-0.00017	-0.0001	-3e-05	-1e-05	0.00012	6e-05	-0.00018	0.00014	6
66214	-0.00017	-0.0001	-3e-05	-1e-05	0.00012	6e-05	-0.00018	0.00014	6
66215	-0.00017	-0.0001	-3e-05	-1e-05	0.00012	6e-05	-0.00018	0.00014	6
66216	-0.00017	-0.0001	-3e-05	-1e-05	0.00012	6e-05	-0.00018	0.00014	6
66217	-0.00017	-0.0001	-3e-05	-1e-05	0.00012	6e-05	-0.00018	0.00014	6
66218	-0.00017	-0.0001	-3e-05	-1e-05	0.00012	6e-05	-0.00018	0.00014	6
66219	-0.00017	-0.0001	-3e-05	-1e-05	0.00012	6e-05	-0.00018	0.00014	6
66220	-0.00017	-0.0001	-3e-05	-1e-05	0.00012	6e-05	-0.00018	0.00014	6
66221	-0.00017	-0.0001	-3e-05	-1e-05	0.00012	6e-05	-0.00018	0.00014	6
66222	-0.00017	-0.0001	-3e-05	-1e-05	0.00012	6e-05	-0.00018	0.00014	6
66223	-0.00017	-0.0001	-3e-05	-1e-05	0.00012	6e-05	-0.00018	0.00014	6
66224	-0.00017	-0.0001	-3e-05	-1e-05	0.00012	6e-05	-0.00018	0.00014	6
66225	-0.00017	-0.0001	-3e-05	-1e-05	0.00012	6e-05	-0.00018	0.00014	6
66226	-0.00017	-0.0001	-3e-05	-1e-05	0.00012	6e-05	-0.00018	0.00014	6
66227	-0.00017	-0.0001	-3e-05	-1e-05	0.00012	6e-05	-0.00018	0.00014	6
66228	-0.00017	-0.0001	-3e-05	-1e-05	0.00012	6e-05	-0.00018	0.00014	6
66229	-0.00017	-0.0001	-3e-05	-1e-05	0.00012	6e-05	-0.00018	0.00014	6
66230	-0.00017	-0.0001	-3e-05	-1e-05	0.00012	6e-05	-0.00018	0.00014	6
66231	-0.00017	-0.0001	-3e-05	-1e-05	0.00012	6e-05	-0.00018	0.00014	6
66232	-0.00017	-0.0001	-3e-05	-1e-05	0.00012	6e-05	-0.00018	0.00014	6
66233	-0.00017	-0.0001	-3e-05	-1e-05	0.00012	6e-05	-0.00018	0.00014	6
66234	1e-05	2e-05	5e-05	8e-05	9e-05	0.00015	0.00013	-0.00017	6
66235	1e-05	2e-05	5e-05	8e-05	9e-05	0.00015	0.00013	-0.00017	6
66236	0.00019	7e-05	-4e-05	0	-6e-05	5e-05	-5e-05	7e-05	6
66238	0.00019	7e-05	-4e-05	0	-6e-05	5e-05	-5e-05	7e-05	6
66239	0.00019	7e-05	-4e-05	0	-6e-05	5e-05	-5e-05	7e-05	6
66240	0.00019	7e-05	-4e-05	0	-6e-05	5e-05	-5e-05	7e-05	6
66241	0.00019	7e-05	-4e-05	0	-6e-05	5e-05	-5e-05	7e-05	6
66242	0.00019	7e-05	-4e-05	0	-6e-05	5e-05	-5e-05	7e-05	6
66243	0.00019	7e-05	-4e-05	0	-6e-05	5e-05	-5e-05	7e-05	6
66244	0.00019	7e-05	-4e-05	0	-6e-05	5e-05	-5e-05	7e-05	6
66245	0.00019	7e-05	-4e-05	0	-6e-05	5e-05	-5e-05	7e-05	6
66246	0.00019	7e-05	-4e-05	0	-6e-05	5e-05	-5e-05	7e-05	6
66247	0.00019	7e-05	-4e-05	0	-6e-05	5e-05	-5e-05	7e-05	6
66248	0.00019	7e-05	-4e-05	0	-6e-05	5e-05	-5e-05	7e-05	6
66249	1e-05	-3e-05	-0.0001	-6e-05	-7e-05	-0.00019	8e-05	0.00034	6
66250	1e-05	-3e-05	-0.0001	-6e-05	-7e-05	-0.00019	8e-05	0.00034	6
66251	1e-05	-3e-05	-0.0001	-6e-05	-7e-05	-0.00019	8e-05	0.00034	6
66252	1e-05	-3e-05	-0.0001	-6e-05	-7e-05	-0.00019	8e-05	0.00034	6
66253	1e-05	-3e-05	-0.0001	-6e-05	-7e-05	-0.00019	8e-05	0.00034	6
66254	1e-05	-3e-05	-0.0001	-6e-05	-7e-05	-0.00019	8e-05	0.00034	6
66255	-1e-05	-2e-05	0	-4e-05	-5e-05	0.00017	3e-05	-6e-05	6
66256	-1e-05	-2e-05	0	-4e-05	-5e-05	0.00017	3e-05	-6e-05	6
66257	-1e-05	-2e-05	0	-4e-05	-5e-05	0.00017	3e-05	-6e-05	6
66258	-1e-05	-2e-05	0	-4e-05	-5e-05	0.00017	3e-05	-6e-05	6
66259	-1e-05	-2e-05	0	-4e-05	-5e-05	0.00017	3e-05	-6e-05	6
66260	-1e-05	-2e-05	0	-4e-05	-5e-05	0.00017	3e-05	-6e-05	6
66261	-1e-05	-2e-05	0	-4e-05	-5e-05	0.00017	3e-05	-6e-05	6
66262	-1e-05	-2e-05	0	-4e-05	-5e-05	0.00017	3e-05	-6e-05	6
66263	-1e-05	-2e-05	0	-4e-05	-5e-05	0.00017	3e-05	-6e-05	6
66264	-1e-05	-2e-05	0	-4e-05	-5e-05	0.00017	3e-05	-6e-05	6
66265	-1e-05	-2e-05	0	-4e-05	-5e-05	0.00017	3e-05	-6e-05	6
66266	-1e-05	-2e-05	0	-4e-05	-5e-05	0.00017	3e-05	-6e-05	6
66267	-1e-05	-2e-05	0	-4e-05	-5e-05	0.00017	3e-05	-6e-05	6
66268	-1e-05	-2e-05	0	-4e-05	-5e-05	0.00017	3e-05	-6e-05	6
66269	-1e-05	-2e-05	0	-4e-05	-5e-05	0.00017	3e-05	-6e-05	6
66270	-1e-05	-2e-05	0	-4e-05	-5e-05	0.00017	3e-05	-6e-05	6
66271	-1e-05	-2e-05	0	-4e-05	-5e-05	0.00017	3e-05	-6e-05	6
66272	1e-05	1e-05	8e-05	9e-05	-0.00019	-0.00023	-2e-05	0.00022	6
66273	1e-05	1e-05	8e-05	9e-05	-0.00019	-0.00023	-2e-05	0.00022	6
66274	1e-05	1e-05	8e-05	9e-05	-0.00019	-0.00023	-2e-05	0.00022	6
66275	1e-05	1e-05	8e-05	9e-05	-0.00019	-0.00023	-2e-05	0.00022	6
66276	1e-05	1e-05	8e-05	9e-05	-0.00019	-0.00023	-2e-05	0.00022	6
66277	1e-05	1e-05	8e-05	9e-05	-0.00019	-0.00023	-2e-05	0.00022	6
66278	1e-05	1e-05	8e-05	9e-05	-0.00019	-0.00023	-2e-05	0.00022	6
66279	1e-05	1e-05	8e-05	9e-05	-0.00019	-0.00023	-2e-05	0.00022	6
66280	-7e-05	-0.00012	-4e-05	-3e-05	-2e-05	0.00023	0.00017	0.00035	6
66281	-7e-05	-0.00012	-4e-05	-3e-05	-2e-05	0.00023	0.00017	0.00035	6
66282	-7e-05	-0.00012	-4e-05	-3e-05	-2e-05	0.00023	0.00017	0.00035	6
66283	-7e-05	-0.00012	-4e-05	-3e-05	-2e-05	0.00023	0.00017	0.00035	6
66284	-7e-05	-0.00012	-4e-05	-3e-05	-2e-05	0.00023	0.00017	0.00035	6
66285	-7e-05	-0.00012	-4e-05	-3e-05	-2e-05	0.00023	0.00017	0.00035	6
66286	0.00014	5e-05	1e-05	-2e-05	6e-05	-0.00019	-3e-05	0.00027	6
66288	-0.0001	-7e-05	-5e-05	-4e-05	-0.00024	0	-0.0001	-8e-05	6
66289	-0.0001	-7e-05	-5e-05	-4e-05	-0.00024	0	-0.0001	-8e-05	6
66290	-0.0001	-7e-05	-5e-05	-4e-05	-0.00024	0	-0.0001	-8e-05	6
66291	-0.0001	-7e-05	-5e-05	-4e-05	-0.00024	0	-0.0001	-8e-05	6
66292	-0.0001	-7e-05	-5e-05	-4e-05	-0.00024	0	-0.0001	-8e-05	6
66293	1e-05	2e-05	7e-05	8e-05	-0.00011	6e-05	-1e-05	0.00031	6
66294	1e-05	2e-05	7e-05	8e-05	-0.00011	6e-05	-1e-05	0.00031	6
66295	1e-05	2e-05	7e-05	8e-05	-0.00011	6e-05	-1e-05	0.00031	6
66296	1e-05	2e-05	7e-05	8e-05	-0.00011	6e-05	-1e-05	0.00031	6
66297	1e-05	2e-05	7e-05	8e-05	-0.00011	6e-05	-1e-05	0.00031	6
66298	1e-05	2e-05	7e-05	8e-05	-0.00011	6e-05	-1e-05	0.00031	6
66299	1e-05	2e-05	7e-05	8e-05	-0.00011	6e-05	-1e-05	0.00031	6
66300	1e-05	2e-05	7e-05	8e-05	-0.00011	6e-05	-1e-05	0.00031	6
66301	1e-05	2e-05	7e-05	8e-05	-0.00011	6e-05	-1e-05	0.00031	6
66302	1e-05	2e-05	7e-05	8e-05	-0.00011	6e-05	-1e-05	0.00031	6
66303	1e-05	2e-05	7e-05	8e-05	-0.00011	6e-05	-1e-05	0.00031	6
66304	1e-05	2e-05	7e-05	8e-05	-0.00011	6e-05	-1e-05	0.00031	6
66305	1e-05	2e-05	7e-05	8e-05	-0.00011	6e-05	-1e-05	0.00031	6
66306	1e-05	2e-05	7e-05	8e-05	-0.00011	6e-05	-1e-05	0.00031	6
66307	1e-05	2e-05	7e-05	8e-05	-0.00011	6e-05	-1e-05	0.00031	6
66308	1e-05	2e-05	7e-05	8e-05	-0.00011	6e-05	-1e-05	0.00031	6
66309	8e-05	4e-05	2e-05	8e-05	9e-05	0.0001	2e-05	0.00014	6
66310	8e-05	4e-05	2e-05	8e-05	9e-05	0.0001	2e-05	0.00014	6
66311	-1e-05	-3e-05	-0.0001	-0.0001	0.0001	-0.00022	-4e-05	0	6
66312	-1e-05	-3e-05	-0.0001	-0.0001	0.0001	-0.00022	-4e-05	0	6
66313	-1e-05	-3e-05	-0.0001	-0.0001	0.0001	-0.00022	-4e-05	0	6
66314	-1e-05	-3e-05	-0.0001	-0.0001	0.0001	-0.00022	-4e-05	0	6
66315	-1e-05	-3e-05	-0.0001	-0.0001	0.0001	-0.00022	-4e-05	0	6
66316	-1e-05	-3e-05	-0.0001	-0.0001	0.0001	-0.00022	-4e-05	0	6
66317	-1e-05	-3e-05	-0.0001	-0.0001	0.0001	-0.00022	-4e-05	0	6
66318	-1e-05	-3e-05	-0.0001	-0.0001	0.0001	-0.00022	-4e-05	0	6
66319	-1e-05	-3e-05	-0.0001	-0.0001	0.0001	-0.00022	-4e-05	0	6
66320	-1e-05	-3e-05	-0.0001	-0.0001	0.0001	-0.00022	-4e-05	0	6
66321	-1e-05	-3e-05	-0.0001	-0.0001	0.0001	-0.00022	-4e-05	0	6
66322	-1e-05	-3e-05	-0.0001	-0.0001	0.0001	-0.00022	-4e-05	0	6
66323	-1e-05	-3e-05	-0.0001	-0.0001	0.0001	-0.00022	-4e-05	0	6
66324	-1e-05	-3e-05	-0.0001	-0.0001	0.0001	-0.00022	-4e-05	0	6
66325	-1e-05	-3e-05	-0.0001	-0.0001	0.0001	-0.00022	-4e-05	0	6
66326	-1e-05	-3e-05	-0.0001	-0.0001	0.0001	-0.00022	-4e-05	0	6
66327	-1e-05	-3e-05	-0.0001	-0.0001	0.0001	-0.00022	-4e-05	0	6
66328	-1e-05	-3e-05	-0.0001	-0.0001	0.0001	-0.00022	-4e-05	0	6
66329	-1e-05	-3e-05	-0.0001	-0.0001	0.0001	-0.00022	-4e-05	0	6
66330	-1e-05	-3e-05	-0.0001	-0.0001	0.0001	-0.00022	-4e-05	0	6
66331	-1e-05	-3e-05	-0.0001	-0.0001	0.0001	-0.00022	-4e-05	0	6
66332	1e-05	1e-05	4e-05	2e-05	0	-8e-05	-0.00027	0.00025	6
66333	7e-05	7e-05	7e-05	3e-05	-7e-05	-0.00016	-9e-05	-0.00022	6
66334	7e-05	7e-05	7e-05	3e-05	-7e-05	-0.00016	-9e-05	-0.00022	6
66335	7e-05	7e-05	7e-05	3e-05	-7e-05	-0.00016	-9e-05	-0.00022	6
66336	7e-05	7e-05	7e-05	3e-05	-7e-05	-0.00016	-9e-05	-0.00022	6
66338	7e-05	7e-05	7e-05	3e-05	-7e-05	-0.00016	-9e-05	-0.00022	6
66339	7e-05	7e-05	7e-05	3e-05	-7e-05	-0.00016	-9e-05	-0.00022	6
66340	7e-05	7e-05	7e-05	3e-05	-7e-05	-0.00016	-9e-05	-0.00022	6
66341	7e-05	7e-05	7e-05	3e-05	-7e-05	-0.00016	-9e-05	-0.00022	6
66342	7e-05	7e-05	7e-05	3e-05	-7e-05	-0.00016	-9e-05	-0.00022	6
66343	7e-05	7e-05	7e-05	3e-05	-7e-05	-0.00016	-9e-05	-0.00022	6
66344	7e-05	7e-05	7e-05	3e-05	-7e-05	-0.00016	-9e-05	-0.00022	6
66345	7e-05	7e-05	7e-05	3e-05	-7e-05	-0.00016	-9e-05	-0.00022	6
66346	7e-05	7e-05	7e-05	3e-05	-7e-05	-0.00016	-9e-05	-0.00022	6
66347	7e-05	7e-05	7e-05	3e-05	-7e-05	-0.00016	-9e-05	-0.00022	6
66348	7e-05	7e-05	7e-05	3e-05	-7e-05	-0.00016	-9e-05	-0.00022	6
66349	7e-05	7e-05	7e-05	3e-05	-7e-05	-0.00016	-9e-05	-0.00022	6
66350	7e-05	7e-05	7e-05	3e-05	-7e-05	-0.00016	-9e-05	-0.00022	6
66351	7e-05	7e-05	7e-05	3e-05	-7e-05	-0.00016	-9e-05	-0.00022	6
66352	7e-05	7e-05	7e-05	3e-05	-7e-05	-0.00016	-9e-05	-0.00022	6
66353	7e-05	7e-05	7e-05	3e-05	-7e-05	-0.00016	-9e-05	-0.00022	6
66354	-2e-05	-7e-05	-2e-05	-4e-05	0.00013	0	-0.00019	-0.00013	6
66355	-2e-05	-7e-05	-2e-05	-4e-05	0.00013	0	-0.00019	-0.00013	6
66356	-0.00015	-0.00011	0	0	9e-05	-0.00024	5e-05	3e-05	6
66357	-0.00015	-0.00011	0	0	9e-05	-0.00024	5e-05	3e-05	6
66358	-0.00015	-0.00011	0	0	9e-05	-0.00024	5e-05	3e-05	6
66359	-0.00015	-0.00011	0	0	9e-05	-0.00024	5e-05	3e-05	6
66360	-0.00015	-0.00011	0	0	9e-05	-0.00024	5e-05	3e-05	6
66361	-0.00015	-0.00011	0	0	9e-05	-0.00024	5e-05	3e-05	6
66362	-0.00015	-0.00011	0	0	9e-05	-0.00024	5e-05	3e-05	6
66363	-0.00015	-0.00011	0	0	9e-05	-0.00024	5e-05	3e-05	6
66364	-0.00015	-0.00011	0	0	9e-05	-0.00024	5e-05	3e-05	6
66365	-0.00015	-0.00011	0	0	9e-05	-0.00024	5e-05	3e-05	6
66366	-0.00015	-0.00011	0	0	9e-05	-0.00024	5e-05	3e-05	6
66367	-0.00015	-0.00011	0	0	9e-05	-0.00024	5e-05	3e-05	6
66368	-2e-05	5e-05	-3e-05	-2e-05	-4e-05	-3e-05	-0.00011	-0.00049	6
66369	8e-05	0	2e-05	-2e-05	-4e-05	-0.00017	-8e-05	0.00047	6
66370	8e-05	0	2e-05	-2e-05	-4e-05	-0.00017	-8e-05	0.00047	6
66371	8e-05	0	2e-05	-2e-05	-4e-05	-0.00017	-8e-05	0.00047	6
66372	8e-05	0	2e-05	-2e-05	-4e-05	-0.00017	-8e-05	0.00047	6
66373	8e-05	0	2e-05	-2e-05	-4e-05	-0.00017	-8e-05	0.00047	6
66374	8e-05	0	2e-05	-2e-05	-4e-05	-0.00017	-8e-05	0.00047	6
66375	8e-05	0	2e-05	-2e-05	-4e-05	-0.00017	-8e-05	0.00047	6
66376	8e-05	0	2e-05	-2e-05	-4e-05	-0.00017	-8e-05	0.00047	6
66377	-4e-05	-3e-05	-0.00011	-7e-05	-7e-05	0.00012	3e-05	-0.00022	6
66378	-4e-05	-3e-05	-0.00011	-7e-05	-7e-05	0.00012	3e-05	-0.00022	6
66379	-4e-05	-3e-05	-0.00011	-7e-05	-7e-05	0.00012	3e-05	-0.00022	6
66380	-4e-05	-3e-05	-0.00011	-7e-05	-7e-05	0.00012	3e-05	-0.00022	6
66381	-4e-05	-3e-05	-0.00011	-7e-05	-7e-05	0.00012	3e-05	-0.00022	6
66382	-4e-05	-3e-05	-0.00011	-7e-05	-7e-05	0.00012	3e-05	-0.00022	6
66383	-4e-05	-3e-05	-0.00011	-7e-05	-7e-05	0.00012	3e-05	-0.00022	6
66384	-4e-05	-3e-05	-0.00011	-7e-05	-7e-05	0.00012	3e-05	-0.00022	6
66385	-4e-05	-3e-05	-0.00011	-7e-05	-7e-05	0.00012	3e-05	-0.00022	6
66386	-4e-05	-3e-05	-0.00011	-7e-05	-7e-05	0.00012	3e-05	-0.00022	6
66388	-4e-05	-3e-05	-0.00011	-7e-05	-7e-05	0.00012	3e-05	-0.00022	6
66389	-4e-05	-3e-05	-0.00011	-7e-05	-7e-05	0.00012	3e-05	-0.00022	6
66390	-4e-05	-3e-05	-0.00011	-7e-05	-7e-05	0.00012	3e-05	-0.00022	6
66391	-4e-05	-3e-05	-0.00011	-7e-05	-7e-05	0.00012	3e-05	-0.00022	6
66392	-4e-05	-3e-05	-0.00011	-7e-05	-7e-05	0.00012	3e-05	-0.00022	6
66393	-4e-05	-3e-05	-0.00011	-7e-05	-7e-05	0.00012	3e-05	-0.00022	6
66394	-4e-05	-3e-05	-0.00011	-7e-05	-7e-05	0.00012	3e-05	-0.00022	6
66395	-4e-05	-3e-05	-0.00011	-7e-05	-7e-05	0.00012	3e-05	-0.00022	6
66396	-4e-05	-3e-05	-0.00011	-7e-05	-7e-05	0.00012	3e-05	-0.00022	6
66397	-4e-05	-3e-05	-0.00011	-7e-05	-7e-05	0.00012	3e-05	-0.00022	6
66398	-4e-05	-3e-05	-0.00011	-7e-05	-7e-05	0.00012	3e-05	-0.00022	6
66399	-9e-05	-1e-05	1e-05	2e-05	2e-05	0.0001	0.00012	-0.00015	6
66400	-9e-05	-1e-05	1e-05	2e-05	2e-05	0.0001	0.00012	-0.00015	6
66401	0.0001	4e-05	2e-05	3e-05	-4e-05	0.00018	0.00014	4e-05	6
66402	-2e-05	-5e-05	1e-05	3e-05	0.00011	-1e-05	-8e-05	-0.00011	6
66403	-2e-05	-5e-05	1e-05	3e-05	0.00011	-1e-05	-8e-05	-0.00011	6
66404	-2e-05	-5e-05	1e-05	3e-05	0.00011	-1e-05	-8e-05	-0.00011	6
66405	-2e-05	-5e-05	1e-05	3e-05	0.00011	-1e-05	-8e-05	-0.00011	6
66406	4e-05	4e-05	1e-05	4e-05	0.00016	0.00012	7e-05	-4e-05	6
66407	4e-05	4e-05	1e-05	4e-05	0.00016	0.00012	7e-05	-4e-05	6
66408	4e-05	4e-05	1e-05	4e-05	0.00016	0.00012	7e-05	-4e-05	6
66409	4e-05	4e-05	1e-05	4e-05	0.00016	0.00012	7e-05	-4e-05	6
66410	4e-05	4e-05	1e-05	4e-05	0.00016	0.00012	7e-05	-4e-05	6
66411	4e-05	4e-05	1e-05	4e-05	0.00016	0.00012	7e-05	-4e-05	6
66412	4e-05	4e-05	1e-05	4e-05	0.00016	0.00012	7e-05	-4e-05	6
66413	6e-05	-1e-05	-8e-05	0	-5e-05	0.00036	7e-05	-4e-05	6
66414	6e-05	-1e-05	-8e-05	0	-5e-05	0.00036	7e-05	-4e-05	6
66415	6e-05	-1e-05	-8e-05	0	-5e-05	0.00036	7e-05	-4e-05	6
66416	6e-05	-1e-05	-8e-05	0	-5e-05	0.00036	7e-05	-4e-05	6
66417	6e-05	-1e-05	-8e-05	0	-5e-05	0.00036	7e-05	-4e-05	6
66418	6e-05	-1e-05	-8e-05	0	-5e-05	0.00036	7e-05	-4e-05	6
66419	6e-05	-1e-05	-8e-05	0	-5e-05	0.00036	7e-05	-4e-05	6
66420	6e-05	-1e-05	-8e-05	0	-5e-05	0.00036	7e-05	-4e-05	6
66421	6e-05	-1e-05	-8e-05	0	-5e-05	0.00036	7e-05	-4e-05	6
66422	6e-05	-1e-05	-8e-05	0	-5e-05	0.00036	7e-05	-4e-05	6
66423	6e-05	-1e-05	-8e-05	0	-5e-05	0.00036	7e-05	-4e-05	6
66424	6e-05	-1e-05	-8e-05	0	-5e-05	0.00036	7e-05	-4e-05	6
66425	6e-05	-1e-05	-8e-05	0	-5e-05	0.00036	7e-05	-4e-05	6
66426	6e-05	-1e-05	-8e-05	0	-5e-05	0.00036	7e-05	-4e-05	6
66427	6e-05	-1e-05	-8e-05	0	-5e-05	0.00036	7e-05	-4e-05	6
66428	6e-05	-1e-05	-8e-05	0	-5e-05	0.00036	7e-05	-4e-05	6
66429	-0.00013	-3e-05	1e-05	-4e-05	-4e-05	-6e-05	9e-05	-0.00023	6
66430	-0.00013	-3e-05	1e-05	-4e-05	-4e-05	-6e-05	9e-05	-0.00023	6
66431	3e-05	4e-05	-1e-05	-2e-05	6e-05	-0.00012	-1e-05	0.00011	6
66432	3e-05	4e-05	-1e-05	-2e-05	6e-05	-0.00012	-1e-05	0.00011	6
66433	3e-05	4e-05	-1e-05	-2e-05	6e-05	-0.00012	-1e-05	0.00011	6
66434	3e-05	4e-05	-1e-05	-2e-05	6e-05	-0.00012	-1e-05	0.00011	6
66435	3e-05	4e-05	-1e-05	-2e-05	6e-05	-0.00012	-1e-05	0.00011	6
66436	3e-05	4e-05	-1e-05	-2e-05	6e-05	-0.00012	-1e-05	0.00011	6
66438	3e-05	4e-05	-1e-05	-2e-05	6e-05	-0.00012	-1e-05	0.00011	6
66439	3e-05	4e-05	-1e-05	-2e-05	6e-05	-0.00012	-1e-05	0.00011	6
66440	3e-05	4e-05	-1e-05	-2e-05	6e-05	-0.00012	-1e-05	0.00011	6
66441	3e-05	4e-05	-1e-05	-2e-05	6e-05	-0.00012	-1e-05	0.00011	6
66442	3e-05	4e-05	-1e-05	-2e-05	6e-05	-0.00012	-1e-05	0.00011	6
66443	3e-05	4e-05	-1e-05	-2e-05	6e-05	-0.00012	-1e-05	0.00011	6
66444	3e-05	4e-05	-1e-05	-2e-05	6e-05	-0.00012	-1e-05	0.00011	6
66445	3e-05	4e-05	-1e-05	-2e-05	6e-05	-0.00012	-1e-05	0.00011	6
66446	3e-05	4e-05	-1e-05	-2e-05	6e-05	-0.00012	-1e-05	0.00011	6
66447	3e-05	4e-05	-1e-05	-2e-05	6e-05	-0.00012	-1e-05	0.00011	6
66448	3e-05	4e-05	-1e-05	-2e-05	6e-05	-0.00012	-1e-05	0.00011	6
66449	3e-05	4e-05	-1e-05	-2e-05	6e-05	-0.00012	-1e-05	0.00011	6
66450	3e-05	4e-05	-1e-05	-2e-05	6e-05	-0.00012	-1e-05	0.00011	6
66451	3e-05	4e-05	-1e-05	-2e-05	6e-05	-0.00012	-1e-05	0.00011	6
66452	-7e-05	-6e-05	-6e-05	-4e-05	0	0.00023	0.00015	-0.00016	6
66453	-0.0001	-6e-05	1e-05	0	0.00014	-0.00014	-0.00013	0.0003	6
66454	5e-05	3e-05	-5e-05	-0.0001	-0.0002	0.00011	-0.0001	0	6
66455	5e-05	3e-05	-5e-05	-0.0001	-0.0002	0.00011	-0.0001	0	6
66456	5e-05	3e-05	-5e-05	-0.0001	-0.0002	0.00011	-0.0001	0	6
66457	5e-05	3e-05	-5e-05	-0.0001	-0.0002	0.00011	-0.0001	0	6
66458	5e-05	3e-05	-5e-05	-0.0001	-0.0002	0.00011	-0.0001	0	6
66459	5e-05	3e-05	-5e-05	-0.0001	-0.0002	0.00011	-0.0001	0	6
66460	5e-05	3e-05	-5e-05	-0.0001	-0.0002	0.00011	-0.0001	0	6
66461	5e-05	3e-05	-5e-05	-0.0001	-0.0002	0.00011	-0.0001	0	6
66462	5e-05	3e-05	-5e-05	-0.0001	-0.0002	0.00011	-0.0001	0	6
66463	5e-05	3e-05	-5e-05	-0.0001	-0.0002	0.00011	-0.0001	0	6
66464	5e-05	3e-05	-5e-05	-0.0001	-0.0002	0.00011	-0.0001	0	6
66465	5e-05	3e-05	-5e-05	-0.0001	-0.0002	0.00011	-0.0001	0	6
66466	9e-05	6e-05	3e-05	1e-05	4e-05	0.00013	6e-05	-8e-05	6
66467	9e-05	6e-05	3e-05	1e-05	4e-05	0.00013	6e-05	-8e-05	6
66468	9e-05	6e-05	3e-05	1e-05	4e-05	0.00013	6e-05	-8e-05	6
66469	9e-05	6e-05	3e-05	1e-05	4e-05	0.00013	6e-05	-8e-05	6
66470	9e-05	6e-05	3e-05	1e-05	4e-05	0.00013	6e-05	-8e-05	6
66471	9e-05	6e-05	3e-05	1e-05	4e-05	0.00013	6e-05	-8e-05	6
66472	9e-05	6e-05	3e-05	1e-05	4e-05	0.00013	6e-05	-8e-05	6
66473	-0.00018	-0.0001	2e-05	-3e-05	7e-05	-7e-05	0	-0.00015	6
66474	-0.00018	-0.0001	2e-05	-3e-05	7e-05	-7e-05	0	-0.00015	6
66475	-0.00018	-0.0001	2e-05	-3e-05	7e-05	-7e-05	0	-0.00015	6
66476	-0.00018	-0.0001	2e-05	-3e-05	7e-05	-7e-05	0	-0.00015	6
66477	-0.00018	-0.0001	2e-05	-3e-05	7e-05	-7e-05	0	-0.00015	6
66478	-0.00018	-0.0001	2e-05	-3e-05	7e-05	-7e-05	0	-0.00015	6
66479	-0.00018	-0.0001	2e-05	-3e-05	7e-05	-7e-05	0	-0.00015	6
66480	-0.00018	-0.0001	2e-05	-3e-05	7e-05	-7e-05	0	-0.00015	6
66481	-0.00018	-0.0001	2e-05	-3e-05	7e-05	-7e-05	0	-0.00015	6
66482	-0.00018	-0.0001	2e-05	-3e-05	7e-05	-7e-05	0	-0.00015	6
66483	-0.00018	-0.0001	2e-05	-3e-05	7e-05	-7e-05	0	-0.00015	6
66484	-0.00018	-0.0001	2e-05	-3e-05	7e-05	-7e-05	0	-0.00015	6
66485	-0.00018	-0.0001	2e-05	-3e-05	7e-05	-7e-05	0	-0.00015	6
66486	-0.00018	-0.0001	2e-05	-3e-05	7e-05	-7e-05	0	-0.00015	6
66489	-0.00018	-0.0001	2e-05	-3e-05	7e-05	-7e-05	0	-0.00015	6
66490	2e-05	0	3e-05	0.00018	0.00031	0.00026	0.0001	-0.0001	6
66491	0	4e-05	2e-05	4e-05	-1e-05	6e-05	-3e-05	-0.00011	6
66492	0	4e-05	2e-05	4e-05	-1e-05	6e-05	-3e-05	-0.00011	6
66493	0	4e-05	2e-05	4e-05	-1e-05	6e-05	-3e-05	-0.00011	6
66494	0	4e-05	2e-05	4e-05	-1e-05	6e-05	-3e-05	-0.00011	6
66495	0	4e-05	2e-05	4e-05	-1e-05	6e-05	-3e-05	-0.00011	6
66496	0	4e-05	2e-05	4e-05	-1e-05	6e-05	-3e-05	-0.00011	6
66497	0	4e-05	2e-05	4e-05	-1e-05	6e-05	-3e-05	-0.00011	6
66498	0	4e-05	2e-05	4e-05	-1e-05	6e-05	-3e-05	-0.00011	6
66499	0	4e-05	2e-05	4e-05	-1e-05	6e-05	-3e-05	-0.00011	6
66500	0	4e-05	2e-05	4e-05	-1e-05	6e-05	-3e-05	-0.00011	6
66501	0	4e-05	2e-05	4e-05	-1e-05	6e-05	-3e-05	-0.00011	6
66502	0	4e-05	2e-05	4e-05	-1e-05	6e-05	-3e-05	-0.00011	6
66503	0	4e-05	2e-05	4e-05	-1e-05	6e-05	-3e-05	-0.00011	6
66504	0	4e-05	2e-05	4e-05	-1e-05	6e-05	-3e-05	-0.00011	6
66505	0	4e-05	2e-05	4e-05	-1e-05	6e-05	-3e-05	-0.00011	6
66506	0	4e-05	2e-05	4e-05	-1e-05	6e-05	-3e-05	-0.00011	6
66507	0	4e-05	2e-05	4e-05	-1e-05	6e-05	-3e-05	-0.00011	6
66508	0	4e-05	2e-05	4e-05	-1e-05	6e-05	-3e-05	-0.00011	6
66509	0	4e-05	2e-05	4e-05	-1e-05	6e-05	-3e-05	-0.00011	6
66510	0	4e-05	2e-05	4e-05	-1e-05	6e-05	-3e-05	-0.00011	6
66511	0	4e-05	2e-05	4e-05	-1e-05	6e-05	-3e-05	-0.00011	6
66512	-9e-05	-4e-05	0	-3e-05	-6e-05	-9e-05	-7e-05	-6e-05	6
66513	7e-05	7e-05	5e-05	4e-05	-1e-05	7e-05	3e-05	3e-05	6
66514	7e-05	7e-05	5e-05	4e-05	-1e-05	7e-05	3e-05	3e-05	6
66515	7e-05	7e-05	5e-05	4e-05	-1e-05	7e-05	3e-05	3e-05	6
66516	7e-05	7e-05	5e-05	4e-05	-1e-05	7e-05	3e-05	3e-05	6
66517	7e-05	7e-05	5e-05	4e-05	-1e-05	7e-05	3e-05	3e-05	6
66518	7e-05	7e-05	5e-05	4e-05	-1e-05	7e-05	3e-05	3e-05	6
66519	7e-05	7e-05	5e-05	4e-05	-1e-05	7e-05	3e-05	3e-05	6
66520	7e-05	7e-05	5e-05	4e-05	-1e-05	7e-05	3e-05	3e-05	6
66521	7e-05	7e-05	5e-05	4e-05	-1e-05	7e-05	3e-05	3e-05	6
66522	7e-05	7e-05	5e-05	4e-05	-1e-05	7e-05	3e-05	3e-05	6
66523	7e-05	7e-05	5e-05	4e-05	-1e-05	7e-05	3e-05	3e-05	6
66524	7e-05	7e-05	5e-05	4e-05	-1e-05	7e-05	3e-05	3e-05	6
66525	7e-05	7e-05	5e-05	4e-05	-1e-05	7e-05	3e-05	3e-05	6
66526	7e-05	7e-05	5e-05	4e-05	-1e-05	7e-05	3e-05	3e-05	6
66527	7e-05	7e-05	5e-05	4e-05	-1e-05	7e-05	3e-05	3e-05	6
66528	7e-05	7e-05	5e-05	4e-05	-1e-05	7e-05	3e-05	3e-05	6
66529	7e-05	7e-05	5e-05	4e-05	-1e-05	7e-05	3e-05	3e-05	6
66530	7e-05	7e-05	5e-05	4e-05	-1e-05	7e-05	3e-05	3e-05	6
66531	7e-05	7e-05	5e-05	4e-05	-1e-05	7e-05	3e-05	3e-05	6
66532	7e-05	7e-05	5e-05	4e-05	-1e-05	7e-05	3e-05	3e-05	6
66533	7e-05	7e-05	5e-05	4e-05	-1e-05	7e-05	3e-05	3e-05	6
66534	6e-05	1e-05	-9e-05	-0.00011	-5e-05	-8e-05	-2e-05	0	6
66535	6e-05	1e-05	-9e-05	-0.00011	-5e-05	-8e-05	-2e-05	0	6
66536	6e-05	6e-05	2e-05	-3e-05	4e-05	-0.00017	-1e-05	0.0002	6
66538	6e-05	6e-05	2e-05	-3e-05	4e-05	-0.00017	-1e-05	0.0002	6
66539	6e-05	6e-05	2e-05	-3e-05	4e-05	-0.00017	-1e-05	0.0002	6
66540	6e-05	6e-05	2e-05	-3e-05	4e-05	-0.00017	-1e-05	0.0002	6
66541	6e-05	6e-05	2e-05	-3e-05	4e-05	-0.00017	-1e-05	0.0002	6
66542	6e-05	6e-05	2e-05	-3e-05	4e-05	-0.00017	-1e-05	0.0002	6
66543	6e-05	6e-05	2e-05	-3e-05	4e-05	-0.00017	-1e-05	0.0002	6
66544	6e-05	6e-05	2e-05	-3e-05	4e-05	-0.00017	-1e-05	0.0002	6
66545	6e-05	6e-05	2e-05	-3e-05	4e-05	-0.00017	-1e-05	0.0002	6
66546	6e-05	6e-05	2e-05	-3e-05	4e-05	-0.00017	-1e-05	0.0002	6
66547	6e-05	6e-05	2e-05	-3e-05	4e-05	-0.00017	-1e-05	0.0002	6
66548	6e-05	6e-05	2e-05	-3e-05	4e-05	-0.00017	-1e-05	0.0002	6
66549	-3e-05	-5e-05	-4e-05	0	-1e-05	5e-05	-6e-05	8e-05	6
66550	-3e-05	-5e-05	-4e-05	0	-1e-05	5e-05	-6e-05	8e-05	6
66551	5e-05	3e-05	0.0001	0.00012	0.00032	0.00034	8e-05	0.00012	6
66552	5e-05	3e-05	0.0001	0.00012	0.00032	0.00034	8e-05	0.00012	6
66553	5e-05	3e-05	0.0001	0.00012	0.00032	0.00034	8e-05	0.00012	6
66554	5e-05	3e-05	0.0001	0.00012	0.00032	0.00034	8e-05	0.00012	6
66555	5e-05	3e-05	0.0001	0.00012	0.00032	0.00034	8e-05	0.00012	6
66556	5e-05	3e-05	0.0001	0.00012	0.00032	0.00034	8e-05	0.00012	6
66557	5e-05	3e-05	0.0001	0.00012	0.00032	0.00034	8e-05	0.00012	6
66558	5e-05	3e-05	0.0001	0.00012	0.00032	0.00034	8e-05	0.00012	6
66559	5e-05	3e-05	0.0001	0.00012	0.00032	0.00034	8e-05	0.00012	6
66560	5e-05	3e-05	0.0001	0.00012	0.00032	0.00034	8e-05	0.00012	6
66561	5e-05	3e-05	0.0001	0.00012	0.00032	0.00034	8e-05	0.00012	6
66562	5e-05	3e-05	0.0001	0.00012	0.00032	0.00034	8e-05	0.00012	6
66563	5e-05	3e-05	0.0001	0.00012	0.00032	0.00034	8e-05	0.00012	6
66564	5e-05	3e-05	0.0001	0.00012	0.00032	0.00034	8e-05	0.00012	6
