24254	0.00026	4e-05	0.00012	0.00038	-0.00041	1e-05	7e-05	-7e-05	5
24255	0.00026	4e-05	0.00012	0.00038	-0.00041	1e-05	7e-05	-7e-05	5
24256	0.00026	4e-05	0.00012	0.00038	-0.00041	1e-05	7e-05	-7e-05	5
24257	0.00026	4e-05	0.00012	0.00038	-0.00041	1e-05	7e-05	-7e-05	5
24258	-0.00055	2e-05	6e-05	0.00054	0.00118	0.00025	3e-05	-6e-05	5
24260	0.00015	-0.00011	-0.00034	-0.00089	-0.00056	-0.00014	-6e-05	0	5
24261	0.00014	-0.0001	-3e-05	0.00047	0	-7e-05	-7e-05	-1e-05	5
24262	0.00014	-0.0001	-3e-05	0.00047	0	-7e-05	-7e-05	-1e-05	5
24263	0.00014	-0.0001	-3e-05	0.00047	0	-7e-05	-7e-05	-1e-05	5
24264	0.00014	-0.0001	-3e-05	0.00047	0	-7e-05	-7e-05	-1e-05	5
24265	0.00014	-0.0001	-3e-05	0.00047	0	-7e-05	-7e-05	-1e-05	5
24266	0.00014	-0.0001	-3e-05	0.00047	0	-7e-05	-7e-05	-1e-05	5
24267	0.00014	-0.0001	-3e-05	0.00047	0	-7e-05	-7e-05	-1e-05	5
24268	0.00014	-0.0001	-3e-05	0.00047	0	-7e-05	-7e-05	-1e-05	5
24269	0.00014	-0.0001	-3e-05	0.00047	0	-7e-05	-7e-05	-1e-05	5
24270	0.00014	-0.0001	-3e-05	0.00047	0	-7e-05	-7e-05	-1e-05	5
24271	0.00014	-0.0001	-3e-05	0.00047	0	-7e-05	-7e-05	-1e-05	5
24272	0.00014	-0.0001	-3e-05	0.00047	0	-7e-05	-7e-05	-1e-05	5
24273	-6e-05	-0.00015	-0.00042	-0.0006	-0.00036	5e-05	5e-05	1e-05	5
24274	-6e-05	-0.00015	-0.00042	-0.0006	-0.00036	5e-05	5e-05	1e-05	5
24275	-6e-05	-0.00015	-0.00042	-0.0006	-0.00036	5e-05	5e-05	1e-05	5
24276	-6e-05	-0.00015	-0.00042	-0.0006	-0.00036	5e-05	5e-05	1e-05	5
24277	-6e-05	-0.00015	-0.00042	-0.0006	-0.00036	5e-05	5e-05	1e-05	5
24278	-6e-05	-0.00015	-0.00042	-0.0006	-0.00036	5e-05	5e-05	1e-05	5
24279	-6e-05	-0.00015	-0.00042	-0.0006	-0.00036	5e-05	5e-05	1e-05	5
24280	-0.00014	-1e-05	0.00012	0.00033	-0.00027	0	0	1e-05	5
24281	-0.00014	-1e-05	0.00012	0.00033	-0.00027	0	0	1e-05	5
24282	-0.00014	-1e-05	0.00012	0.00033	-0.00027	0	0	1e-05	5
24283	-0.00014	-1e-05	0.00012	0.00033	-0.00027	0	0	1e-05	5
24284	-0.00014	-1e-05	0.00012	0.00033	-0.00027	0	0	1e-05	5
24285	-0.00014	-1e-05	0.00012	0.00033	-0.00027	0	0	1e-05	5
24286	-0.00014	-1e-05	0.00012	0.00033	-0.00027	0	0	1e-05	5
24288	-0.00014	-1e-05	0.00012	0.00033	-0.00027	0	0	1e-05	5
24289	-0.00014	-1e-05	0.00012	0.00033	-0.00027	0	0	1e-05	5
24290	-0.00014	-1e-05	0.00012	0.00033	-0.00027	0	0	1e-05	5
24291	-0.00014	-1e-05	0.00012	0.00033	-0.00027	0	0	1e-05	5
24292	-0.00014	-1e-05	0.00012	0.00033	-0.00027	0	0	1e-05	5
24293	-0.00014	-1e-05	0.00012	0.00033	-0.00027	0	0	1e-05	5
24294	-0.00014	-1e-05	0.00012	0.00033	-0.00027	0	0	1e-05	5
24295	-0.00014	-1e-05	0.00012	0.00033	-0.00027	0	0	1e-05	5
24296	-0.00026	-0.00013	0.00027	0.00113	0.0011	7e-05	-6e-05	-9e-05	5
24297	-0.00026	-0.00013	0.00027	0.00113	0.0011	7e-05	-6e-05	-9e-05	5
24298	2e-05	0.00011	-0.00014	-0.00012	0.00029	3e-05	0	0	5
24299	2e-05	0.00011	-0.00014	-0.00012	0.00029	3e-05	0	0	5
24300	2e-05	0.00011	-0.00014	-0.00012	0.00029	3e-05	0	0	5
24301	2e-05	0.00011	-0.00014	-0.00012	0.00029	3e-05	0	0	5
24302	2e-05	0.00011	-0.00014	-0.00012	0.00029	3e-05	0	0	5
24303	2e-05	0.00011	-0.00014	-0.00012	0.00029	3e-05	0	0	5
24304	2e-05	0.00011	-0.00014	-0.00012	0.00029	3e-05	0	0	5
24305	2e-05	0.00011	-0.00014	-0.00012	0.00029	3e-05	0	0	5
24306	2e-05	0.00011	-0.00014	-0.00012	0.00029	3e-05	0	0	5
24307	2e-05	0.00011	-0.00014	-0.00012	0.00029	3e-05	0	0	5
24308	2e-05	0.00011	-0.00014	-0.00012	0.00029	3e-05	0	0	5
24309	2e-05	0.00011	-0.00014	-0.00012	0.00029	3e-05	0	0	5
24310	2e-05	0.00011	-0.00014	-0.00012	0.00029	3e-05	0	0	5
24311	2e-05	0.00011	-0.00014	-0.00012	0.00029	3e-05	0	0	5
24312	2e-05	0.00011	-0.00014	-0.00012	0.00029	3e-05	0	0	5
24313	2e-05	0.00011	-0.00014	-0.00012	0.00029	3e-05	0	0	5
24314	2e-05	0.00011	-0.00014	-0.00012	0.00029	3e-05	0	0	5
24315	2e-05	0.00011	-0.00014	-0.00012	0.00029	3e-05	0	0	5
24316	2e-05	0.00011	-0.00014	-0.00012	0.00029	3e-05	0	0	5
24317	2e-05	0.00011	-0.00014	-0.00012	0.00029	3e-05	0	0	5
24318	2e-05	0.00011	-0.00014	-0.00012	0.00029	3e-05	0	0	5
24319	0.0008	1e-05	-0.0002	-0.00084	-0.00048	-0.00037	-0.00013	0	5
24320	-0.00064	-0.00034	-8e-05	0.00026	-0.00015	-4e-05	-4e-05	-0.00012	5
24321	-0.00023	-0.00011	0.00011	0.00032	0.00046	3e-05	-4e-05	-7e-05	5
24322	-0.00023	-0.00011	0.00011	0.00032	0.00046	3e-05	-4e-05	-7e-05	5
24323	-0.00023	-0.00011	0.00011	0.00032	0.00046	3e-05	-4e-05	-7e-05	5
24324	-0.00023	-0.00011	0.00011	0.00032	0.00046	3e-05	-4e-05	-7e-05	5
24325	-0.00023	-0.00011	0.00011	0.00032	0.00046	3e-05	-4e-05	-7e-05	5
24326	-0.00023	-0.00011	0.00011	0.00032	0.00046	3e-05	-4e-05	-7e-05	5
24327	-0.00023	-0.00011	0.00011	0.00032	0.00046	3e-05	-4e-05	-7e-05	5
24328	-0.00023	-0.00011	0.00011	0.00032	0.00046	3e-05	-4e-05	-7e-05	5
24329	-0.00023	-0.00011	0.00011	0.00032	0.00046	3e-05	-4e-05	-7e-05	5
24330	-0.00023	-0.00011	0.00011	0.00032	0.00046	3e-05	-4e-05	-7e-05	5
24331	-0.00023	-0.00011	0.00011	0.00032	0.00046	3e-05	-4e-05	-7e-05	5
24332	-0.00023	-0.00011	0.00011	0.00032	0.00046	3e-05	-4e-05	-7e-05	5
24333	8e-05	-1e-05	-0.00012	-0.00062	6e-05	-0.00011	0	4e-05	5
24334	8e-05	-1e-05	-0.00012	-0.00062	6e-05	-0.00011	0	4e-05	5
24335	8e-05	-1e-05	-0.00012	-0.00062	6e-05	-0.00011	0	4e-05	5
24336	8e-05	-1e-05	-0.00012	-0.00062	6e-05	-0.00011	0	4e-05	5
24338	8e-05	-1e-05	-0.00012	-0.00062	6e-05	-0.00011	0	4e-05	5
24339	8e-05	-1e-05	-0.00012	-0.00062	6e-05	-0.00011	0	4e-05	5
24340	-0.00025	0.00013	2e-05	-0.00021	-0.00066	-0.00023	-6e-05	3e-05	5
24341	-0.00025	0.00013	2e-05	-0.00021	-0.00066	-0.00023	-6e-05	3e-05	5
24342	-0.00025	0.00013	2e-05	-0.00021	-0.00066	-0.00023	-6e-05	3e-05	5
24343	-0.00025	0.00013	2e-05	-0.00021	-0.00066	-0.00023	-6e-05	3e-05	5
24344	-0.00025	0.00013	2e-05	-0.00021	-0.00066	-0.00023	-6e-05	3e-05	5
24345	-0.00025	0.00013	2e-05	-0.00021	-0.00066	-0.00023	-6e-05	3e-05	5
24346	-0.00025	0.00013	2e-05	-0.00021	-0.00066	-0.00023	-6e-05	3e-05	5
24347	-0.00025	0.00013	2e-05	-0.00021	-0.00066	-0.00023	-6e-05	3e-05	5
24348	-0.00025	0.00013	2e-05	-0.00021	-0.00066	-0.00023	-6e-05	3e-05	5
24349	-0.00025	0.00013	2e-05	-0.00021	-0.00066	-0.00023	-6e-05	3e-05	5
24350	-0.00025	0.00013	2e-05	-0.00021	-0.00066	-0.00023	-6e-05	3e-05	5
24351	-0.00025	0.00013	2e-05	-0.00021	-0.00066	-0.00023	-6e-05	3e-05	5
24352	-0.00025	0.00013	2e-05	-0.00021	-0.00066	-0.00023	-6e-05	3e-05	5
24353	-0.00025	0.00013	2e-05	-0.00021	-0.00066	-0.00023	-6e-05	3e-05	5
24354	-0.00025	0.00013	2e-05	-0.00021	-0.00066	-0.00023	-6e-05	3e-05	5
24355	-0.00025	0.00013	2e-05	-0.00021	-0.00066	-0.00023	-6e-05	3e-05	5
24356	-5e-05	-8e-05	0.00017	0.00079	9e-05	0.00027	0.00012	-2e-05	5
24357	-5e-05	-8e-05	0.00017	0.00079	9e-05	0.00027	0.00012	-2e-05	5
24358	-1e-05	2e-05	-4e-05	-0.00029	0.00106	0.00011	-1e-05	3e-05	5
24359	-1e-05	2e-05	-4e-05	-0.00029	0.00106	0.00011	-1e-05	3e-05	5
24360	-1e-05	2e-05	-4e-05	-0.00029	0.00106	0.00011	-1e-05	3e-05	5
24361	-1e-05	2e-05	-4e-05	-0.00029	0.00106	0.00011	-1e-05	3e-05	5
24362	-1e-05	2e-05	-4e-05	-0.00029	0.00106	0.00011	-1e-05	3e-05	5
24363	-1e-05	2e-05	-4e-05	-0.00029	0.00106	0.00011	-1e-05	3e-05	5
24364	-1e-05	2e-05	-4e-05	-0.00029	0.00106	0.00011	-1e-05	3e-05	5
24365	-1e-05	2e-05	-4e-05	-0.00029	0.00106	0.00011	-1e-05	3e-05	5
24366	-1e-05	2e-05	-4e-05	-0.00029	0.00106	0.00011	-1e-05	3e-05	5
24367	-1e-05	2e-05	-4e-05	-0.00029	0.00106	0.00011	-1e-05	3e-05	5
24368	-1e-05	2e-05	-4e-05	-0.00029	0.00106	0.00011	-1e-05	3e-05	5
24369	-1e-05	2e-05	-4e-05	-0.00029	0.00106	0.00011	-1e-05	3e-05	5
24370	-1e-05	2e-05	-4e-05	-0.00029	0.00106	0.00011	-1e-05	3e-05	5
24371	-1e-05	2e-05	-4e-05	-0.00029	0.00106	0.00011	-1e-05	3e-05	5
24372	-1e-05	2e-05	-4e-05	-0.00029	0.00106	0.00011	-1e-05	3e-05	5
24373	-1e-05	2e-05	-4e-05	-0.00029	0.00106	0.00011	-1e-05	3e-05	5
24374	-1e-05	2e-05	-4e-05	-0.00029	0.00106	0.00011	-1e-05	3e-05	5
24375	-1e-05	2e-05	-4e-05	-0.00029	0.00106	0.00011	-1e-05	3e-05	5
24376	-1e-05	2e-05	-4e-05	-0.00029	0.00106	0.00011	-1e-05	3e-05	5
24377	-1e-05	2e-05	-4e-05	-0.00029	0.00106	0.00011	-1e-05	3e-05	5
24378	-1e-05	2e-05	-4e-05	-0.00029	0.00106	0.00011	-1e-05	3e-05	5
24379	-0.00019	-8e-05	3e-05	0.0007	7e-05	-4e-05	-3e-05	-2e-05	5
24380	2e-05	-8e-05	-0.00025	-0.00067	-0.00029	9e-05	6e-05	1e-05	5
24381	2e-05	-8e-05	-0.00025	-0.00067	-0.00029	9e-05	6e-05	1e-05	5
24382	2e-05	-8e-05	-0.00025	-0.00067	-0.00029	9e-05	6e-05	1e-05	5
24383	2e-05	-8e-05	-0.00025	-0.00067	-0.00029	9e-05	6e-05	1e-05	5
24384	2e-05	-8e-05	-0.00025	-0.00067	-0.00029	9e-05	6e-05	1e-05	5
24385	2e-05	-8e-05	-0.00025	-0.00067	-0.00029	9e-05	6e-05	1e-05	5
24386	2e-05	-8e-05	-0.00025	-0.00067	-0.00029	9e-05	6e-05	1e-05	5
24388	2e-05	-8e-05	-0.00025	-0.00067	-0.00029	9e-05	6e-05	1e-05	5
24389	2e-05	-8e-05	-0.00025	-0.00067	-0.00029	9e-05	6e-05	1e-05	5
24390	2e-05	-8e-05	-0.00025	-0.00067	-0.00029	9e-05	6e-05	1e-05	5
24391	2e-05	-8e-05	-0.00025	-0.00067	-0.00029	9e-05	6e-05	1e-05	5
24392	2e-05	-8e-05	-0.00025	-0.00067	-0.00029	9e-05	6e-05	1e-05	5
24393	2e-05	-8e-05	-0.00025	-0.00067	-0.00029	9e-05	6e-05	1e-05	5
24394	2e-05	-8e-05	-0.00025	-0.00067	-0.00029	9e-05	6e-05	1e-05	5
24395	2e-05	-8e-05	-0.00025	-0.00067	-0.00029	9e-05	6e-05	1e-05	5
24396	2e-05	-8e-05	-0.00025	-0.00067	-0.00029	9e-05	6e-05	1e-05	5
24397	2e-05	-8e-05	-0.00025	-0.00067	-0.00029	9e-05	6e-05	1e-05	5
24398	2e-05	-8e-05	-0.00025	-0.00067	-0.00029	9e-05	6e-05	1e-05	5
24399	2e-05	-8e-05	-0.00025	-0.00067	-0.00029	9e-05	6e-05	1e-05	5
24400	2e-05	-8e-05	-0.00025	-0.00067	-0.00029	9e-05	6e-05	1e-05	5
24401	0.00024	6e-05	0.0002	0.00044	0.00064	0.00015	5e-05	0.0002	5
24402	0.00024	6e-05	0.0002	0.00044	0.00064	0.00015	5e-05	0.0002	5
24403	-0.0004	-9e-05	1e-05	0.00068	0.00046	0.00016	8e-05	-7e-05	5
24404	-0.0004	-9e-05	1e-05	0.00068	0.00046	0.00016	8e-05	-7e-05	5
24405	-0.0004	-9e-05	1e-05	0.00068	0.00046	0.00016	8e-05	-7e-05	5
24406	-0.0004	-9e-05	1e-05	0.00068	0.00046	0.00016	8e-05	-7e-05	5
24407	-0.0004	-9e-05	1e-05	0.00068	0.00046	0.00016	8e-05	-7e-05	5
24408	-0.0004	-9e-05	1e-05	0.00068	0.00046	0.00016	8e-05	-7e-05	5
24409	-0.0004	-9e-05	1e-05	0.00068	0.00046	0.00016	8e-05	-7e-05	5
24410	-0.0004	-9e-05	1e-05	0.00068	0.00046	0.00016	8e-05	-7e-05	5
24411	-0.0004	-9e-05	1e-05	0.00068	0.00046	0.00016	8e-05	-7e-05	5
24412	-0.0004	-9e-05	1e-05	0.00068	0.00046	0.00016	8e-05	-7e-05	5
24413	-0.0004	-9e-05	1e-05	0.00068	0.00046	0.00016	8e-05	-7e-05	5
24414	-0.0004	-9e-05	1e-05	0.00068	0.00046	0.00016	8e-05	-7e-05	5
24415	-0.0004	-9e-05	1e-05	0.00068	0.00046	0.00016	8e-05	-7e-05	5
24416	-0.0004	-9e-05	1e-05	0.00068	0.00046	0.00016	8e-05	-7e-05	5
24417	-0.0004	-9e-05	1e-05	0.00068	0.00046	0.00016	8e-05	-7e-05	5
24418	-0.0004	-9e-05	1e-05	0.00068	0.00046	0.00016	8e-05	-7e-05	5
24419	-0.0004	-9e-05	1e-05	0.00068	0.00046	0.00016	8e-05	-7e-05	5
24420	-0.0004	-9e-05	1e-05	0.00068	0.00046	0.00016	8e-05	-7e-05	5
24421	-0.0004	-9e-05	1e-05	0.00068	0.00046	0.00016	8e-05	-7e-05	5
24422	-0.0004	-9e-05	1e-05	0.00068	0.00046	0.00016	8e-05	-7e-05	5
24423	-0.0004	-9e-05	1e-05	0.00068	0.00046	0.00016	8e-05	-7e-05	5
24424	-1e-05	4e-05	-6e-05	-0.00035	-0.00061	-6e-05	0	1e-05	5
24425	-0.00018	-0.00023	-0.00021	-0.00036	-0.00017	-7e-05	-2e-05	-0.0001	5
24427	-0.00018	-0.00023	-0.00021	-0.00036	-0.00017	-7e-05	-2e-05	-0.0001	5
24428	-0.00018	-0.00023	-0.00021	-0.00036	-0.00017	-7e-05	-2e-05	-0.0001	5
24429	-0.00018	-0.00023	-0.00021	-0.00036	-0.00017	-7e-05	-2e-05	-0.0001	5
24430	-0.00018	-0.00023	-0.00021	-0.00036	-0.00017	-7e-05	-2e-05	-0.0001	5
24431	-0.00018	-0.00023	-0.00021	-0.00036	-0.00017	-7e-05	-2e-05	-0.0001	5
24432	-0.00018	-0.00023	-0.00021	-0.00036	-0.00017	-7e-05	-2e-05	-0.0001	5
24433	-0.00018	-0.00023	-0.00021	-0.00036	-0.00017	-7e-05	-2e-05	-0.0001	5
24434	-0.00018	-0.00023	-0.00021	-0.00036	-0.00017	-7e-05	-2e-05	-0.0001	5
24435	-0.00018	-0.00023	-0.00021	-0.00036	-0.00017	-7e-05	-2e-05	-0.0001	5
24436	-0.00018	-0.00023	-0.00021	-0.00036	-0.00017	-7e-05	-2e-05	-0.0001	5
24438	-0.00019	3e-05	7e-05	0.00035	0.00105	0.00017	2e-05	-3e-05	5
24439	-0.00019	3e-05	7e-05	0.00035	0.00105	0.00017	2e-05	-3e-05	5
24440	-0.00026	-6e-05	0.00012	0.00035	-0.00071	-0.0001	-2e-05	-7e-05	5
24441	3e-05	1e-05	7e-05	-2e-05	-8e-05	8e-05	-1e-05	-6e-05	5
24442	3e-05	1e-05	7e-05	-2e-05	-8e-05	8e-05	-1e-05	-6e-05	5
24443	3e-05	1e-05	7e-05	-2e-05	-8e-05	8e-05	-1e-05	-6e-05	5
24444	3e-05	1e-05	7e-05	-2e-05	-8e-05	8e-05	-1e-05	-6e-05	5
24445	3e-05	1e-05	7e-05	-2e-05	-8e-05	8e-05	-1e-05	-6e-05	5
24446	3e-05	1e-05	7e-05	-2e-05	-8e-05	8e-05	-1e-05	-6e-05	5
24447	3e-05	1e-05	7e-05	-2e-05	-8e-05	8e-05	-1e-05	-6e-05	5
24448	3e-05	1e-05	7e-05	-2e-05	-8e-05	8e-05	-1e-05	-6e-05	5
24449	3e-05	1e-05	7e-05	-2e-05	-8e-05	8e-05	-1e-05	-6e-05	5
24450	3e-05	1e-05	7e-05	-2e-05	-8e-05	8e-05	-1e-05	-6e-05	5
24451	3e-05	1e-05	7e-05	-2e-05	-8e-05	8e-05	-1e-05	-6e-05	5
24452	3e-05	1e-05	7e-05	-2e-05	-8e-05	8e-05	-1e-05	-6e-05	5
24453	1e-05	-6e-05	-0.00023	-0.00093	-0.00047	-0.00016	-0.00011	-7e-05	5
24454	1e-05	-6e-05	-0.00023	-0.00093	-0.00047	-0.00016	-0.00011	-7e-05	5
24455	1e-05	-6e-05	-0.00023	-0.00093	-0.00047	-0.00016	-0.00011	-7e-05	5
24456	1e-05	-6e-05	-0.00023	-0.00093	-0.00047	-0.00016	-0.00011	-7e-05	5
24457	1e-05	-6e-05	-0.00023	-0.00093	-0.00047	-0.00016	-0.00011	-7e-05	5
24458	1e-05	-6e-05	-0.00023	-0.00093	-0.00047	-0.00016	-0.00011	-7e-05	5
24459	1e-05	-6e-05	-0.00023	-0.00093	-0.00047	-0.00016	-0.00011	-7e-05	5
24460	0.0001	0.00015	0.00026	0.00013	-0.00128	6e-05	4e-05	8e-05	5
24461	0.0001	0.00015	0.00026	0.00013	-0.00128	6e-05	4e-05	8e-05	5
24462	0.0001	0.00015	0.00026	0.00013	-0.00128	6e-05	4e-05	8e-05	5
24463	0.0001	0.00015	0.00026	0.00013	-0.00128	6e-05	4e-05	8e-05	5
24464	0.0001	0.00015	0.00026	0.00013	-0.00128	6e-05	4e-05	8e-05	5
24465	0.0001	0.00015	0.00026	0.00013	-0.00128	6e-05	4e-05	8e-05	5
24466	0.0001	0.00015	0.00026	0.00013	-0.00128	6e-05	4e-05	8e-05	5
24467	0.0001	0.00015	0.00026	0.00013	-0.00128	6e-05	4e-05	8e-05	5
24468	0.0001	0.00015	0.00026	0.00013	-0.00128	6e-05	4e-05	8e-05	5
24469	0.0001	0.00015	0.00026	0.00013	-0.00128	6e-05	4e-05	8e-05	5
24470	0.0001	0.00015	0.00026	0.00013	-0.00128	6e-05	4e-05	8e-05	5
24471	0.0001	0.00015	0.00026	0.00013	-0.00128	6e-05	4e-05	8e-05	5
24472	0.0001	0.00015	0.00026	0.00013	-0.00128	6e-05	4e-05	8e-05	5
24473	0.0001	0.00015	0.00026	0.00013	-0.00128	6e-05	4e-05	8e-05	5
24474	0.0001	0.00015	0.00026	0.00013	-0.00128	6e-05	4e-05	8e-05	5
24475	0.0001	0.00015	0.00026	0.00013	-0.00128	6e-05	4e-05	8e-05	5
24476	-0.00035	0.00019	0.0002	0.00024	-0.00031	0.00011	4e-05	-3e-05	5
24477	-0.00035	0.00019	0.0002	0.00024	-0.00031	0.00011	4e-05	-3e-05	5
24478	0.00022	0.00019	2e-05	0.00012	-0.00057	-0.00016	-4e-05	7e-05	5
24479	0.00022	0.00019	2e-05	0.00012	-0.00057	-0.00016	-4e-05	7e-05	5
24480	0.00022	0.00019	2e-05	0.00012	-0.00057	-0.00016	-4e-05	7e-05	5
24481	0.00022	0.00019	2e-05	0.00012	-0.00057	-0.00016	-4e-05	7e-05	5
24482	0.00022	0.00019	2e-05	0.00012	-0.00057	-0.00016	-4e-05	7e-05	5
24483	0.00022	0.00019	2e-05	0.00012	-0.00057	-0.00016	-4e-05	7e-05	5
24484	0.00022	0.00019	2e-05	0.00012	-0.00057	-0.00016	-4e-05	7e-05	5
24485	0.00022	0.00019	2e-05	0.00012	-0.00057	-0.00016	-4e-05	7e-05	5
24487	0.00022	0.00019	2e-05	0.00012	-0.00057	-0.00016	-4e-05	7e-05	5
24489	0.00022	0.00019	2e-05	0.00012	-0.00057	-0.00016	-4e-05	7e-05	5
24491	0.00022	0.00019	2e-05	0.00012	-0.00057	-0.00016	-4e-05	7e-05	5
24492	0.00022	0.00019	2e-05	0.00012	-0.00057	-0.00016	-4e-05	7e-05	5
24493	0.00022	0.00019	2e-05	0.00012	-0.00057	-0.00016	-4e-05	7e-05	5
24494	0.00022	0.00019	2e-05	0.00012	-0.00057	-0.00016	-4e-05	7e-05	5
24495	0.00022	0.00019	2e-05	0.00012	-0.00057	-0.00016	-4e-05	7e-05	5
24496	0.00022	0.00019	2e-05	0.00012	-0.00057	-0.00016	-4e-05	7e-05	5
24497	0.00022	0.00019	2e-05	0.00012	-0.00057	-0.00016	-4e-05	7e-05	5
24498	0.00022	0.00019	2e-05	0.00012	-0.00057	-0.00016	-4e-05	7e-05	5
24499	0.00022	0.00019	2e-05	0.00012	-0.00057	-0.00016	-4e-05	7e-05	5
24500	0.00022	0.00019	2e-05	0.00012	-0.00057	-0.00016	-4e-05	7e-05	5
24501	0.00022	0.00019	2e-05	0.00012	-0.00057	-0.00016	-4e-05	7e-05	5
24502	0.00022	0.00019	2e-05	0.00012	-0.00057	-0.00016	-4e-05	7e-05	5
24503	0.00022	0.00019	2e-05	0.00012	-0.00057	-0.00016	-4e-05	7e-05	5
24504	0.00022	0.00019	2e-05	0.00012	-0.00057	-0.00016	-4e-05	7e-05	5
24505	0.00022	0.00019	2e-05	0.00012	-0.00057	-0.00016	-4e-05	7e-05	5
24506	-0.00046	-0.00022	-8e-05	-0.00075	-0.0003	-0.00019	-2e-05	-0.00017	5
24507	-0.00046	-0.00022	-8e-05	-0.00075	-0.0003	-0.00019	-2e-05	-0.00017	5
24508	0.00046	-7e-05	-2e-05	0.00014	0.00046	-8e-05	-7e-05	0.00013	5
24509	0.00046	-7e-05	-2e-05	0.00014	0.00046	-8e-05	-7e-05	0.00013	5
24510	0.00046	-7e-05	-2e-05	0.00014	0.00046	-8e-05	-7e-05	0.00013	5
24511	0.00046	-7e-05	-2e-05	0.00014	0.00046	-8e-05	-7e-05	0.00013	5
24512	0.00046	-7e-05	-2e-05	0.00014	0.00046	-8e-05	-7e-05	0.00013	5
24513	-0.00059	-9e-05	1e-05	9e-05	-0.00057	-5e-05	-3e-05	-4e-05	5
24514	-0.00059	-9e-05	1e-05	9e-05	-0.00057	-5e-05	-3e-05	-4e-05	5
24515	-0.00059	-9e-05	1e-05	9e-05	-0.00057	-5e-05	-3e-05	-4e-05	5
24516	-0.00059	-9e-05	1e-05	9e-05	-0.00057	-5e-05	-3e-05	-4e-05	5
24517	-0.00059	-9e-05	1e-05	9e-05	-0.00057	-5e-05	-3e-05	-4e-05	5
24518	-0.00059	-9e-05	1e-05	9e-05	-0.00057	-5e-05	-3e-05	-4e-05	5
24519	-0.00059	-9e-05	1e-05	9e-05	-0.00057	-5e-05	-3e-05	-4e-05	5
24520	-5e-05	-3e-05	0.00013	0.00016	0.00036	9e-05	0	-9e-05	5
24521	-5e-05	-3e-05	0.00013	0.00016	0.00036	9e-05	0	-9e-05	5
24522	-5e-05	-3e-05	0.00013	0.00016	0.00036	9e-05	0	-9e-05	5
24523	-5e-05	-3e-05	0.00013	0.00016	0.00036	9e-05	0	-9e-05	5
24524	-5e-05	-3e-05	0.00013	0.00016	0.00036	9e-05	0	-9e-05	5
24525	-5e-05	-3e-05	0.00013	0.00016	0.00036	9e-05	0	-9e-05	5
24526	-5e-05	-3e-05	0.00013	0.00016	0.00036	9e-05	0	-9e-05	5
24527	-5e-05	-3e-05	0.00013	0.00016	0.00036	9e-05	0	-9e-05	5
24528	-5e-05	-3e-05	0.00013	0.00016	0.00036	9e-05	0	-9e-05	5
24529	-5e-05	-3e-05	0.00013	0.00016	0.00036	9e-05	0	-9e-05	5
24530	-5e-05	-3e-05	0.00013	0.00016	0.00036	9e-05	0	-9e-05	5
24531	-5e-05	-3e-05	0.00013	0.00016	0.00036	9e-05	0	-9e-05	5
24532	-5e-05	-3e-05	0.00013	0.00016	0.00036	9e-05	0	-9e-05	5
24533	-5e-05	-3e-05	0.00013	0.00016	0.00036	9e-05	0	-9e-05	5
24534	-5e-05	-3e-05	0.00013	0.00016	0.00036	9e-05	0	-9e-05	5
24535	-5e-05	-3e-05	0.00013	0.00016	0.00036	9e-05	0	-9e-05	5
24536	0.00014	4e-05	-0.00016	0.00021	-0.00058	-0.00014	0	5e-05	5
24539	-2e-05	3e-05	-0.00011	-0.00113	-0.00024	6e-05	-3e-05	1e-05	5
24540	-2e-05	3e-05	-0.00011	-0.00113	-0.00024	6e-05	-3e-05	1e-05	5
24541	-2e-05	3e-05	-0.00011	-0.00113	-0.00024	6e-05	-3e-05	1e-05	5
24542	-2e-05	3e-05	-0.00011	-0.00113	-0.00024	6e-05	-3e-05	1e-05	5
24543	-2e-05	3e-05	-0.00011	-0.00113	-0.00024	6e-05	-3e-05	1e-05	5
24544	-2e-05	3e-05	-0.00011	-0.00113	-0.00024	6e-05	-3e-05	1e-05	5
24545	-2e-05	3e-05	-0.00011	-0.00113	-0.00024	6e-05	-3e-05	1e-05	5
24546	-2e-05	3e-05	-0.00011	-0.00113	-0.00024	6e-05	-3e-05	1e-05	5
24547	-2e-05	3e-05	-0.00011	-0.00113	-0.00024	6e-05	-3e-05	1e-05	5
24548	-2e-05	3e-05	-0.00011	-0.00113	-0.00024	6e-05	-3e-05	1e-05	5
24549	-2e-05	3e-05	-0.00011	-0.00113	-0.00024	6e-05	-3e-05	1e-05	5
24550	-2e-05	3e-05	-0.00011	-0.00113	-0.00024	6e-05	-3e-05	1e-05	5
24551	-2e-05	3e-05	-0.00011	-0.00113	-0.00024	6e-05	-3e-05	1e-05	5
24552	-2e-05	3e-05	-0.00011	-0.00113	-0.00024	6e-05	-3e-05	1e-05	5
24553	-2e-05	3e-05	-0.00011	-0.00113	-0.00024	6e-05	-3e-05	1e-05	5
24554	-2e-05	3e-05	-0.00011	-0.00113	-0.00024	6e-05	-3e-05	1e-05	5
24555	-2e-05	3e-05	-0.00011	-0.00113	-0.00024	6e-05	-3e-05	1e-05	5
24556	-2e-05	3e-05	-0.00011	-0.00113	-0.00024	6e-05	-3e-05	1e-05	5
24557	-2e-05	3e-05	-0.00011	-0.00113	-0.00024	6e-05	-3e-05	1e-05	5
24558	-2e-05	3e-05	-0.00011	-0.00113	-0.00024	6e-05	-3e-05	1e-05	5
24559	0	-2e-05	-0.00028	-0.00037	-4e-05	-0.00035	-0.00012	-7e-05	5
24560	0	-2e-05	-0.00028	-0.00037	-4e-05	-0.00035	-0.00012	-7e-05	5
24561	-9e-05	-0.00012	-3e-05	2e-05	0.00016	0.00018	0	-2e-05	5
24562	-9e-05	-0.00012	-3e-05	2e-05	0.00016	0.00018	0	-2e-05	5
24563	-9e-05	-0.00012	-3e-05	2e-05	0.00016	0.00018	0	-2e-05	5
24564	-9e-05	-0.00012	-3e-05	2e-05	0.00016	0.00018	0	-2e-05	5
24565	-9e-05	-0.00012	-3e-05	2e-05	0.00016	0.00018	0	-2e-05	5
24566	-9e-05	-0.00012	-3e-05	2e-05	0.00016	0.00018	0	-2e-05	5
24567	-9e-05	-0.00012	-3e-05	2e-05	0.00016	0.00018	0	-2e-05	5
24568	-9e-05	-0.00012	-3e-05	2e-05	0.00016	0.00018	0	-2e-05	5
24569	-9e-05	-0.00012	-3e-05	2e-05	0.00016	0.00018	0	-2e-05	5
24570	-9e-05	-0.00012	-3e-05	2e-05	0.00016	0.00018	0	-2e-05	5
24571	-9e-05	-0.00012	-3e-05	2e-05	0.00016	0.00018	0	-2e-05	5
24572	0.00012	-1e-05	-4e-05	0.00041	0.00085	9e-05	1e-05	1e-05	5
24573	0.00012	-1e-05	-4e-05	0.00041	0.00085	9e-05	1e-05	1e-05	5
24574	0.00012	-1e-05	-4e-05	0.00041	0.00085	9e-05	1e-05	1e-05	5
24575	0.00012	-1e-05	-4e-05	0.00041	0.00085	9e-05	1e-05	1e-05	5
24576	0.00012	-1e-05	-4e-05	0.00041	0.00085	9e-05	1e-05	1e-05	5
24577	0.00012	-1e-05	-4e-05	0.00041	0.00085	9e-05	1e-05	1e-05	5
24578	0.00012	-1e-05	-4e-05	0.00041	0.00085	9e-05	1e-05	1e-05	5
24579	0.00012	-1e-05	-4e-05	0.00041	0.00085	9e-05	1e-05	1e-05	5
24580	0.00012	-1e-05	-4e-05	0.00041	0.00085	9e-05	1e-05	1e-05	5
24581	0.00012	-1e-05	-4e-05	0.00041	0.00085	9e-05	1e-05	1e-05	5
24582	0.00012	-1e-05	-4e-05	0.00041	0.00085	9e-05	1e-05	1e-05	5
24583	0.00012	-1e-05	-4e-05	0.00041	0.00085	9e-05	1e-05	1e-05	5
24584	0.00012	-1e-05	-4e-05	0.00041	0.00085	9e-05	1e-05	1e-05	5
24585	0.00012	-1e-05	-4e-05	0.00041	0.00085	9e-05	1e-05	1e-05	5
24586	0.00012	-1e-05	-4e-05	0.00041	0.00085	9e-05	1e-05	1e-05	5
24589	0.0001	-0.00018	0.00016	0.00072	0.00038	-9e-05	-5e-05	0	5
24590	0.0001	-0.00018	0.00016	0.00072	0.00038	-9e-05	-5e-05	0	5
24591	0.0001	-0.00018	0.00016	0.00072	0.00038	-9e-05	-5e-05	0	5
24592	0.0001	-0.00018	0.00016	0.00072	0.00038	-9e-05	-5e-05	0	5
24593	0.0001	-0.00018	0.00016	0.00072	0.00038	-9e-05	-5e-05	0	5
24594	0.0001	-0.00018	0.00016	0.00072	0.00038	-9e-05	-5e-05	0	5
24595	0.0001	-0.00018	0.00016	0.00072	0.00038	-9e-05	-5e-05	0	5
24596	0.00025	0	0.00026	0.00085	0.00025	0.00014	5e-05	5e-05	5
24597	0.00025	0	0.00026	0.00085	0.00025	0.00014	5e-05	5e-05	5
24598	-2e-05	8e-05	-0.00015	-0.00032	-0.00053	-0.00011	-3e-05	3e-05	5
24599	-2e-05	8e-05	-0.00015	-0.00032	-0.00053	-0.00011	-3e-05	3e-05	5
24600	-2e-05	8e-05	-0.00015	-0.00032	-0.00053	-0.00011	-3e-05	3e-05	5
24601	-2e-05	8e-05	-0.00015	-0.00032	-0.00053	-0.00011	-3e-05	3e-05	5
24602	-2e-05	8e-05	-0.00015	-0.00032	-0.00053	-0.00011	-3e-05	3e-05	5
24603	-2e-05	8e-05	-0.00015	-0.00032	-0.00053	-0.00011	-3e-05	3e-05	5
24604	-2e-05	8e-05	-0.00015	-0.00032	-0.00053	-0.00011	-3e-05	3e-05	5
24605	-2e-05	8e-05	-0.00015	-0.00032	-0.00053	-0.00011	-3e-05	3e-05	5
24606	-2e-05	8e-05	-0.00015	-0.00032	-0.00053	-0.00011	-3e-05	3e-05	5
24607	-2e-05	8e-05	-0.00015	-0.00032	-0.00053	-0.00011	-3e-05	3e-05	5
24608	-2e-05	8e-05	-0.00015	-0.00032	-0.00053	-0.00011	-3e-05	3e-05	5
24609	-2e-05	8e-05	-0.00015	-0.00032	-0.00053	-0.00011	-3e-05	3e-05	5
24610	-2e-05	8e-05	-0.00015	-0.00032	-0.00053	-0.00011	-3e-05	3e-05	5
24611	-2e-05	8e-05	-0.00015	-0.00032	-0.00053	-0.00011	-3e-05	3e-05	5
24612	-2e-05	8e-05	-0.00015	-0.00032	-0.00053	-0.00011	-3e-05	3e-05	5
24613	-2e-05	8e-05	-0.00015	-0.00032	-0.00053	-0.00011	-3e-05	3e-05	5
24614	-2e-05	8e-05	-0.00015	-0.00032	-0.00053	-0.00011	-3e-05	3e-05	5
24615	-2e-05	8e-05	-0.00015	-0.00032	-0.00053	-0.00011	-3e-05	3e-05	5
24616	-2e-05	8e-05	-0.00015	-0.00032	-0.00053	-0.00011	-3e-05	3e-05	5
24617	-2e-05	8e-05	-0.00015	-0.00032	-0.00053	-0.00011	-3e-05	3e-05	5
24618	-2e-05	8e-05	-0.00015	-0.00032	-0.00053	-0.00011	-3e-05	3e-05	5
24619	-0.00019	3e-05	0.00029	0.00068	0.00077	8e-05	-4e-05	-9e-05	5
24620	3e-05	0	-0.00045	-0.00118	-0.00082	-0.00027	-3e-05	0	5
24621	3e-05	0	-0.00045	-0.00118	-0.00082	-0.00027	-3e-05	0	5
24622	3e-05	0	-0.00045	-0.00118	-0.00082	-0.00027	-3e-05	0	5
24623	3e-05	0	-0.00045	-0.00118	-0.00082	-0.00027	-3e-05	0	5
24624	3e-05	0	-0.00045	-0.00118	-0.00082	-0.00027	-3e-05	0	5
24625	3e-05	0	-0.00045	-0.00118	-0.00082	-0.00027	-3e-05	0	5
24626	3e-05	0	-0.00045	-0.00118	-0.00082	-0.00027	-3e-05	0	5
24627	3e-05	0	-0.00045	-0.00118	-0.00082	-0.00027	-3e-05	0	5
24628	3e-05	0	-0.00045	-0.00118	-0.00082	-0.00027	-3e-05	0	5
24629	3e-05	0	-0.00045	-0.00118	-0.00082	-0.00027	-3e-05	0	5
24630	3e-05	0	-0.00045	-0.00118	-0.00082	-0.00027	-3e-05	0	5
24631	3e-05	0	-0.00045	-0.00118	-0.00082	-0.00027	-3e-05	0	5
24632	-7e-05	-0.00012	-2e-05	0.00012	-5e-05	6e-05	-6e-05	-4e-05	5
24633	7e-05	9e-05	9e-05	0.00015	-0.00073	-8e-05	-2e-05	6e-05	5
24634	7e-05	9e-05	9e-05	0.00015	-0.00073	-8e-05	-2e-05	6e-05	5
24635	7e-05	9e-05	9e-05	0.00015	-0.00073	-8e-05	-2e-05	6e-05	5
24636	7e-05	9e-05	9e-05	0.00015	-0.00073	-8e-05	-2e-05	6e-05	5
24638	7e-05	9e-05	9e-05	0.00015	-0.00073	-8e-05	-2e-05	6e-05	5
24639	7e-05	9e-05	9e-05	0.00015	-0.00073	-8e-05	-2e-05	6e-05	5
24640	7e-05	9e-05	9e-05	0.00015	-0.00073	-8e-05	-2e-05	6e-05	5
24641	-0.00035	4e-05	7e-05	0.00052	0.00112	0.00026	5e-05	0	5
24642	-0.00035	4e-05	7e-05	0.00052	0.00112	0.00026	5e-05	0	5
24643	-0.00035	4e-05	7e-05	0.00052	0.00112	0.00026	5e-05	0	5
24644	-0.00035	4e-05	7e-05	0.00052	0.00112	0.00026	5e-05	0	5
24645	-0.00035	4e-05	7e-05	0.00052	0.00112	0.00026	5e-05	0	5
24646	-0.00035	4e-05	7e-05	0.00052	0.00112	0.00026	5e-05	0	5
24647	-0.00035	4e-05	7e-05	0.00052	0.00112	0.00026	5e-05	0	5
24648	-0.00035	4e-05	7e-05	0.00052	0.00112	0.00026	5e-05	0	5
24649	-0.00035	4e-05	7e-05	0.00052	0.00112	0.00026	5e-05	0	5
24650	-0.00035	4e-05	7e-05	0.00052	0.00112	0.00026	5e-05	0	5
24651	-0.00035	4e-05	7e-05	0.00052	0.00112	0.00026	5e-05	0	5
24652	-0.00035	4e-05	7e-05	0.00052	0.00112	0.00026	5e-05	0	5
24653	-0.00035	4e-05	7e-05	0.00052	0.00112	0.00026	5e-05	0	5
24654	-0.00035	4e-05	7e-05	0.00052	0.00112	0.00026	5e-05	0	5
24655	-0.00035	4e-05	7e-05	0.00052	0.00112	0.00026	5e-05	0	5
24656	-0.00092	-0.00027	4e-05	0.00012	-6e-05	0.00015	0	-0.00023	5
24657	-0.00092	-0.00027	4e-05	0.00012	-6e-05	0.00015	0	-0.00023	5
24658	-4e-05	4e-05	-6e-05	8e-05	0	-5e-05	1e-05	-2e-05	5
24659	-4e-05	4e-05	-6e-05	8e-05	0	-5e-05	1e-05	-2e-05	5
24660	-4e-05	4e-05	-6e-05	8e-05	0	-5e-05	1e-05	-2e-05	5
24661	-4e-05	4e-05	-6e-05	8e-05	0	-5e-05	1e-05	-2e-05	5
24662	-4e-05	4e-05	-6e-05	8e-05	0	-5e-05	1e-05	-2e-05	5
24663	-4e-05	4e-05	-6e-05	8e-05	0	-5e-05	1e-05	-2e-05	5
24664	-4e-05	4e-05	-6e-05	8e-05	0	-5e-05	1e-05	-2e-05	5
24665	-4e-05	4e-05	-6e-05	8e-05	0	-5e-05	1e-05	-2e-05	5
24666	-4e-05	4e-05	-6e-05	8e-05	0	-5e-05	1e-05	-2e-05	5
24667	-4e-05	4e-05	-6e-05	8e-05	0	-5e-05	1e-05	-2e-05	5
24668	-4e-05	4e-05	-6e-05	8e-05	0	-5e-05	1e-05	-2e-05	5
24669	-4e-05	4e-05	-6e-05	8e-05	0	-5e-05	1e-05	-2e-05	5
24670	-4e-05	4e-05	-6e-05	8e-05	0	-5e-05	1e-05	-2e-05	5
24671	-4e-05	4e-05	-6e-05	8e-05	0	-5e-05	1e-05	-2e-05	5
24672	-4e-05	4e-05	-6e-05	8e-05	0	-5e-05	1e-05	-2e-05	5
24673	-4e-05	4e-05	-6e-05	8e-05	0	-5e-05	1e-05	-2e-05	5
24674	-4e-05	4e-05	-6e-05	8e-05	0	-5e-05	1e-05	-2e-05	5
24675	-4e-05	4e-05	-6e-05	8e-05	0	-5e-05	1e-05	-2e-05	5
24676	-4e-05	4e-05	-6e-05	8e-05	0	-5e-05	1e-05	-2e-05	5
24677	-4e-05	4e-05	-6e-05	8e-05	0	-5e-05	1e-05	-2e-05	5
24678	-4e-05	4e-05	-6e-05	8e-05	0	-5e-05	1e-05	-2e-05	5
24679	0.0003	1e-05	0.00022	0.00018	0.00067	0.00012	7e-05	3e-05	5
24680	0.0001	-1e-05	-3e-05	1e-05	3e-05	-4e-05	1e-05	-1e-05	5
24681	0.0001	-1e-05	-3e-05	1e-05	3e-05	-4e-05	1e-05	-1e-05	5
24682	0.0001	-1e-05	-3e-05	1e-05	3e-05	-4e-05	1e-05	-1e-05	5
24683	0.0001	-1e-05	-3e-05	1e-05	3e-05	-4e-05	1e-05	-1e-05	5
24684	0.0001	-1e-05	-3e-05	1e-05	3e-05	-4e-05	1e-05	-1e-05	5
24685	0.0001	-1e-05	-3e-05	1e-05	3e-05	-4e-05	1e-05	-1e-05	5
24686	0.0001	-1e-05	-3e-05	1e-05	3e-05	-4e-05	1e-05	-1e-05	5
24688	0.0001	-1e-05	-3e-05	1e-05	3e-05	-4e-05	1e-05	-1e-05	5
24689	0.0001	-1e-05	-3e-05	1e-05	3e-05	-4e-05	1e-05	-1e-05	5
24690	0.0001	-1e-05	-3e-05	1e-05	3e-05	-4e-05	1e-05	-1e-05	5
24691	0.0001	-1e-05	-3e-05	1e-05	3e-05	-4e-05	1e-05	-1e-05	5
24692	0.0001	-1e-05	-3e-05	1e-05	3e-05	-4e-05	1e-05	-1e-05	5
24693	0.0001	-1e-05	-3e-05	1e-05	3e-05	-4e-05	1e-05	-1e-05	5
24694	0.0001	-1e-05	-3e-05	1e-05	3e-05	-4e-05	1e-05	-1e-05	5
24695	0.0001	-1e-05	-3e-05	1e-05	3e-05	-4e-05	1e-05	-1e-05	5
24696	0.0001	-1e-05	-3e-05	1e-05	3e-05	-4e-05	1e-05	-1e-05	5
24697	0.0001	-1e-05	-3e-05	1e-05	3e-05	-4e-05	1e-05	-1e-05	5
24698	0.0001	-1e-05	-3e-05	1e-05	3e-05	-4e-05	1e-05	-1e-05	5
24699	0.0001	-1e-05	-3e-05	1e-05	3e-05	-4e-05	1e-05	-1e-05	5
24700	0.0001	-1e-05	-3e-05	1e-05	3e-05	-4e-05	1e-05	-1e-05	5
24701	0.0005	0.00012	-0.0003	-0.00112	-0.00083	-0.00025	2e-05	4e-05	5
24702	0.0005	0.00012	-0.0003	-0.00112	-0.00083	-0.00025	2e-05	4e-05	5
24703	0.00013	-0.00014	-6e-05	-0.00072	-0.00092	-0.00013	1e-05	-2e-05	5
24704	0.00013	-0.00014	-6e-05	-0.00072	-0.00092	-0.00013	1e-05	-2e-05	5
24705	0.00013	-0.00014	-6e-05	-0.00072	-0.00092	-0.00013	1e-05	-2e-05	5
24706	0.00013	-0.00014	-6e-05	-0.00072	-0.00092	-0.00013	1e-05	-2e-05	5
24707	0.00013	-0.00014	-6e-05	-0.00072	-0.00092	-0.00013	1e-05	-2e-05	5
24708	0.00013	-0.00014	-6e-05	-0.00072	-0.00092	-0.00013	1e-05	-2e-05	5
24709	0.00013	-0.00014	-6e-05	-0.00072	-0.00092	-0.00013	1e-05	-2e-05	5
24710	0.00013	-0.00014	-6e-05	-0.00072	-0.00092	-0.00013	1e-05	-2e-05	5
24711	0.00013	-0.00014	-6e-05	-0.00072	-0.00092	-0.00013	1e-05	-2e-05	5
24712	0.00013	-0.00014	-6e-05	-0.00072	-0.00092	-0.00013	1e-05	-2e-05	5
24713	0.00013	-0.00014	-6e-05	-0.00072	-0.00092	-0.00013	1e-05	-2e-05	5
24714	0.00013	-0.00014	-6e-05	-0.00072	-0.00092	-0.00013	1e-05	-2e-05	5
24715	0.00013	-0.00014	-6e-05	-0.00072	-0.00092	-0.00013	1e-05	-2e-05	5
24716	9e-05	0.00012	7e-05	0.00064	-9e-05	6e-05	6e-05	8e-05	5
24717	9e-05	0.00012	7e-05	0.00064	-9e-05	6e-05	6e-05	8e-05	5
24718	4e-05	7e-05	2e-05	0.00016	0.00024	4e-05	1e-05	8e-05	5
24719	4e-05	7e-05	2e-05	0.00016	0.00024	4e-05	1e-05	8e-05	5
24720	4e-05	7e-05	2e-05	0.00016	0.00024	4e-05	1e-05	8e-05	5
24721	4e-05	7e-05	2e-05	0.00016	0.00024	4e-05	1e-05	8e-05	5
24722	4e-05	7e-05	2e-05	0.00016	0.00024	4e-05	1e-05	8e-05	5
24723	4e-05	7e-05	2e-05	0.00016	0.00024	4e-05	1e-05	8e-05	5
24724	4e-05	7e-05	2e-05	0.00016	0.00024	4e-05	1e-05	8e-05	5
24725	4e-05	7e-05	2e-05	0.00016	0.00024	4e-05	1e-05	8e-05	5
24726	4e-05	7e-05	2e-05	0.00016	0.00024	4e-05	1e-05	8e-05	5
24727	4e-05	7e-05	2e-05	0.00016	0.00024	4e-05	1e-05	8e-05	5
24728	4e-05	7e-05	2e-05	0.00016	0.00024	4e-05	1e-05	8e-05	5
24729	4e-05	7e-05	2e-05	0.00016	0.00024	4e-05	1e-05	8e-05	5
24730	4e-05	7e-05	2e-05	0.00016	0.00024	4e-05	1e-05	8e-05	5
24731	4e-05	7e-05	2e-05	0.00016	0.00024	4e-05	1e-05	8e-05	5
24732	4e-05	7e-05	2e-05	0.00016	0.00024	4e-05	1e-05	8e-05	5
24733	4e-05	7e-05	2e-05	0.00016	0.00024	4e-05	1e-05	8e-05	5
24734	4e-05	7e-05	2e-05	0.00016	0.00024	4e-05	1e-05	8e-05	5
24735	4e-05	7e-05	2e-05	0.00016	0.00024	4e-05	1e-05	8e-05	5
24736	4e-05	7e-05	2e-05	0.00016	0.00024	4e-05	1e-05	8e-05	5
24739	-0.00011	-9e-05	-0.00011	0.00018	0.00025	0.00015	1e-05	-4e-05	5
24740	0.00012	0.00017	7e-05	1e-05	-0.00031	-0.00014	0	4e-05	5
24741	0.00012	0.00017	7e-05	1e-05	-0.00031	-0.00014	0	4e-05	5
24742	0.00012	0.00017	7e-05	1e-05	-0.00031	-0.00014	0	4e-05	5
24743	0.00012	0.00017	7e-05	1e-05	-0.00031	-0.00014	0	4e-05	5
24744	0.00012	0.00017	7e-05	1e-05	-0.00031	-0.00014	0	4e-05	5
24745	0.00012	0.00017	7e-05	1e-05	-0.00031	-0.00014	0	4e-05	5
24746	0.00012	0.00017	7e-05	1e-05	-0.00031	-0.00014	0	4e-05	5
24747	0.00012	0.00017	7e-05	1e-05	-0.00031	-0.00014	0	4e-05	5
24748	0.00012	0.00017	7e-05	1e-05	-0.00031	-0.00014	0	4e-05	5
24749	0.00012	0.00017	7e-05	1e-05	-0.00031	-0.00014	0	4e-05	5
24750	0.00012	0.00017	7e-05	1e-05	-0.00031	-0.00014	0	4e-05	5
24751	0.00012	0.00017	7e-05	1e-05	-0.00031	-0.00014	0	4e-05	5
24752	-0.00017	-1e-05	0.00013	0.00064	0.00034	0.00013	3e-05	0	5
24753	-5e-05	4e-05	0.00025	-0.00012	-0.00039	3e-05	-5e-05	3e-05	5
24754	-5e-05	4e-05	0.00025	-0.00012	-0.00039	3e-05	-5e-05	3e-05	5
24755	-5e-05	4e-05	0.00025	-0.00012	-0.00039	3e-05	-5e-05	3e-05	5
24756	-5e-05	4e-05	0.00025	-0.00012	-0.00039	3e-05	-5e-05	3e-05	5
24757	-5e-05	4e-05	0.00025	-0.00012	-0.00039	3e-05	-5e-05	3e-05	5
24758	-5e-05	4e-05	0.00025	-0.00012	-0.00039	3e-05	-5e-05	3e-05	5
24759	-5e-05	4e-05	0.00025	-0.00012	-0.00039	3e-05	-5e-05	3e-05	5
24760	-5e-05	4e-05	0.00025	-0.00012	-0.00039	3e-05	-5e-05	3e-05	5
24761	-5e-05	4e-05	0.00025	-0.00012	-0.00039	3e-05	-5e-05	3e-05	5
24762	-0.0001	7e-05	0.00019	-0.00024	7e-05	-0.00015	-4e-05	-6e-05	5
24763	-0.0001	7e-05	0.00019	-0.00024	7e-05	-0.00015	-4e-05	-6e-05	5
24764	-0.0001	7e-05	0.00019	-0.00024	7e-05	-0.00015	-4e-05	-6e-05	5
24765	-0.0001	7e-05	0.00019	-0.00024	7e-05	-0.00015	-4e-05	-6e-05	5
24766	-0.0001	7e-05	0.00019	-0.00024	7e-05	-0.00015	-4e-05	-6e-05	5
24767	-0.0001	7e-05	0.00019	-0.00024	7e-05	-0.00015	-4e-05	-6e-05	5
24768	-0.0001	7e-05	0.00019	-0.00024	7e-05	-0.00015	-4e-05	-6e-05	5
24769	-0.0001	7e-05	0.00019	-0.00024	7e-05	-0.00015	-4e-05	-6e-05	5
24770	-0.0001	7e-05	0.00019	-0.00024	7e-05	-0.00015	-4e-05	-6e-05	5
24771	-0.0001	7e-05	0.00019	-0.00024	7e-05	-0.00015	-4e-05	-6e-05	5
24772	-0.0001	7e-05	0.00019	-0.00024	7e-05	-0.00015	-4e-05	-6e-05	5
24773	-0.0001	7e-05	0.00019	-0.00024	7e-05	-0.00015	-4e-05	-6e-05	5
24774	-0.0001	7e-05	0.00019	-0.00024	7e-05	-0.00015	-4e-05	-6e-05	5
24775	-0.0001	7e-05	0.00019	-0.00024	7e-05	-0.00015	-4e-05	-6e-05	5
24776	-0.0001	7e-05	0.00019	-0.00024	7e-05	-0.00015	-4e-05	-6e-05	5
24777	-0.0001	7e-05	0.00019	-0.00024	7e-05	-0.00015	-4e-05	-6e-05	5
24778	-0.0001	7e-05	0.00019	-0.00024	7e-05	-0.00015	-4e-05	-6e-05	5
24779	-0.0001	7e-05	0.00019	-0.00024	7e-05	-0.00015	-4e-05	-6e-05	5
24780	-0.0001	7e-05	0.00019	-0.00024	7e-05	-0.00015	-4e-05	-6e-05	5
24781	-0.0001	7e-05	0.00019	-0.00024	7e-05	-0.00015	-4e-05	-6e-05	5
24782	-0.0001	7e-05	0.00019	-0.00024	7e-05	-0.00015	-4e-05	-6e-05	5
24783	-0.00049	-2e-05	-7e-05	-0.0001	0.0001	-2e-05	0	-5e-05	5
24784	-0.00049	-2e-05	-7e-05	-0.0001	0.0001	-2e-05	0	-5e-05	5
24785	-0.00019	1e-05	0.00019	0.00049	0.00035	5e-05	0	-0.0001	5
24786	-0.00019	1e-05	0.00019	0.00049	0.00035	5e-05	0	-0.0001	5
24788	-0.00019	1e-05	0.00019	0.00049	0.00035	5e-05	0	-0.0001	5
24789	-0.00019	1e-05	0.00019	0.00049	0.00035	5e-05	0	-0.0001	5
24790	-0.00019	1e-05	0.00019	0.00049	0.00035	5e-05	0	-0.0001	5
24791	-0.00019	1e-05	0.00019	0.00049	0.00035	5e-05	0	-0.0001	5
24792	-0.00019	1e-05	0.00019	0.00049	0.00035	5e-05	0	-0.0001	5
24793	-0.00019	1e-05	0.00019	0.00049	0.00035	5e-05	0	-0.0001	5
24794	-0.00019	1e-05	0.00019	0.00049	0.00035	5e-05	0	-0.0001	5
24795	-0.00019	1e-05	0.00019	0.00049	0.00035	5e-05	0	-0.0001	5
24796	-0.00019	1e-05	0.00019	0.00049	0.00035	5e-05	0	-0.0001	5
24797	-0.00019	1e-05	0.00019	0.00049	0.00035	5e-05	0	-0.0001	5
24798	-0.00019	1e-05	0.00019	0.00049	0.00035	5e-05	0	-0.0001	5
24799	0.00025	-0.00011	-0.00024	-0.00063	0.00036	0.00011	0	5e-05	5
24800	0	-3e-05	-0.00011	-3e-05	0.0004	-4e-05	-5e-05	-2e-05	5
24801	0	-3e-05	-0.00011	-3e-05	0.0004	-4e-05	-5e-05	-2e-05	5
24802	0	-3e-05	-0.00011	-3e-05	0.0004	-4e-05	-5e-05	-2e-05	5
24803	0	-3e-05	-0.00011	-3e-05	0.0004	-4e-05	-5e-05	-2e-05	5
24804	0	-3e-05	-0.00011	-3e-05	0.0004	-4e-05	-5e-05	-2e-05	5
24805	0	-3e-05	-0.00011	-3e-05	0.0004	-4e-05	-5e-05	-2e-05	5
24806	0	-3e-05	-0.00011	-3e-05	0.0004	-4e-05	-5e-05	-2e-05	5
24807	0	-3e-05	-0.00011	-3e-05	0.0004	-4e-05	-5e-05	-2e-05	5
24808	0	-3e-05	-0.00011	-3e-05	0.0004	-4e-05	-5e-05	-2e-05	5
24809	0	-3e-05	-0.00011	-3e-05	0.0004	-4e-05	-5e-05	-2e-05	5
24810	0	-3e-05	-0.00011	-3e-05	0.0004	-4e-05	-5e-05	-2e-05	5
24811	0	-3e-05	-0.00011	-3e-05	0.0004	-4e-05	-5e-05	-2e-05	5
24812	-0.00055	-0.0001	0.00042	0.00095	0.00068	0.00013	1e-05	-0.00023	5
24813	-0.00012	-6e-05	2e-05	0.00044	0.00024	3e-05	-1e-05	-6e-05	5
24814	-0.00012	-6e-05	2e-05	0.00044	0.00024	3e-05	-1e-05	-6e-05	5
24815	-0.00012	-6e-05	2e-05	0.00044	0.00024	3e-05	-1e-05	-6e-05	5
24816	-0.00012	-6e-05	2e-05	0.00044	0.00024	3e-05	-1e-05	-6e-05	5
24817	-0.00012	-6e-05	2e-05	0.00044	0.00024	3e-05	-1e-05	-6e-05	5
24818	-0.00012	-6e-05	2e-05	0.00044	0.00024	3e-05	-1e-05	-6e-05	5
24819	-0.00012	-6e-05	2e-05	0.00044	0.00024	3e-05	-1e-05	-6e-05	5
24820	-0.00012	-6e-05	2e-05	0.00044	0.00024	3e-05	-1e-05	-6e-05	5
24821	0.00048	3e-05	3e-05	0.00053	0.00073	0.00028	6e-05	9e-05	5
24822	0.00048	3e-05	3e-05	0.00053	0.00073	0.00028	6e-05	9e-05	5
24823	0.00048	3e-05	3e-05	0.00053	0.00073	0.00028	6e-05	9e-05	5
24824	0.00048	3e-05	3e-05	0.00053	0.00073	0.00028	6e-05	9e-05	5
24825	0.00048	3e-05	3e-05	0.00053	0.00073	0.00028	6e-05	9e-05	5
24826	0.00048	3e-05	3e-05	0.00053	0.00073	0.00028	6e-05	9e-05	5
24827	0.00048	3e-05	3e-05	0.00053	0.00073	0.00028	6e-05	9e-05	5
24828	0.00048	3e-05	3e-05	0.00053	0.00073	0.00028	6e-05	9e-05	5
24829	0.00048	3e-05	3e-05	0.00053	0.00073	0.00028	6e-05	9e-05	5
24830	0.00048	3e-05	3e-05	0.00053	0.00073	0.00028	6e-05	9e-05	5
24831	0.00048	3e-05	3e-05	0.00053	0.00073	0.00028	6e-05	9e-05	5
24832	0.00048	3e-05	3e-05	0.00053	0.00073	0.00028	6e-05	9e-05	5
24833	0.00048	3e-05	3e-05	0.00053	0.00073	0.00028	6e-05	9e-05	5
24834	0.00048	3e-05	3e-05	0.00053	0.00073	0.00028	6e-05	9e-05	5
24835	0.00048	3e-05	3e-05	0.00053	0.00073	0.00028	6e-05	9e-05	5
24836	0.00011	8e-05	0.00023	0.00061	0	0.00025	5e-05	1e-05	5
24839	0	1e-05	0.00021	0.001	-0.0001	3e-05	1e-05	-2e-05	5
24840	0	1e-05	0.00021	0.001	-0.0001	3e-05	1e-05	-2e-05	5
24841	0	1e-05	0.00021	0.001	-0.0001	3e-05	1e-05	-2e-05	5
24842	0	1e-05	0.00021	0.001	-0.0001	3e-05	1e-05	-2e-05	5
24843	0	1e-05	0.00021	0.001	-0.0001	3e-05	1e-05	-2e-05	5
24844	0	1e-05	0.00021	0.001	-0.0001	3e-05	1e-05	-2e-05	5
24845	0	1e-05	0.00021	0.001	-0.0001	3e-05	1e-05	-2e-05	5
24846	0	1e-05	0.00021	0.001	-0.0001	3e-05	1e-05	-2e-05	5
24847	0	1e-05	0.00021	0.001	-0.0001	3e-05	1e-05	-2e-05	5
24848	0	1e-05	0.00021	0.001	-0.0001	3e-05	1e-05	-2e-05	5
24849	0	1e-05	0.00021	0.001	-0.0001	3e-05	1e-05	-2e-05	5
24850	0	1e-05	0.00021	0.001	-0.0001	3e-05	1e-05	-2e-05	5
24851	0	1e-05	0.00021	0.001	-0.0001	3e-05	1e-05	-2e-05	5
24852	0	1e-05	0.00021	0.001	-0.0001	3e-05	1e-05	-2e-05	5
24853	0	1e-05	0.00021	0.001	-0.0001	3e-05	1e-05	-2e-05	5
24854	0	1e-05	0.00021	0.001	-0.0001	3e-05	1e-05	-2e-05	5
24855	0	1e-05	0.00021	0.001	-0.0001	3e-05	1e-05	-2e-05	5
24856	0	1e-05	0.00021	0.001	-0.0001	3e-05	1e-05	-2e-05	5
24857	0	1e-05	0.00021	0.001	-0.0001	3e-05	1e-05	-2e-05	5
24858	0	1e-05	0.00021	0.001	-0.0001	3e-05	1e-05	-2e-05	5
24859	0	1e-05	0.00021	0.001	-0.0001	3e-05	1e-05	-2e-05	5
24860	0	1e-05	0.00021	0.001	-0.0001	3e-05	1e-05	-2e-05	5
24861	0	1e-05	0.00021	0.001	-0.0001	3e-05	1e-05	-2e-05	5
24862	0	1e-05	0.00021	0.001	-0.0001	3e-05	1e-05	-2e-05	5
24863	0	1e-05	0.00021	0.001	-0.0001	3e-05	1e-05	-2e-05	5
24864	0	1e-05	0.00021	0.001	-0.0001	3e-05	1e-05	-2e-05	5
24865	0	1e-05	0.00021	0.001	-0.0001	3e-05	1e-05	-2e-05	5
24866	0.00024	-2e-05	-0.0002	-0.00057	-0.00023	-0.00014	-3e-05	4e-05	5
24867	0.00024	-2e-05	-0.0002	-0.00057	-0.00023	-0.00014	-3e-05	4e-05	5
24868	-0.00012	-0.0001	-0.00015	0.00046	0.00071	0.00015	-1e-05	-4e-05	5
24869	-0.00012	-0.0001	-0.00015	0.00046	0.00071	0.00015	-1e-05	-4e-05	5
24870	-0.00012	-0.0001	-0.00015	0.00046	0.00071	0.00015	-1e-05	-4e-05	5
24871	-0.00012	-0.0001	-0.00015	0.00046	0.00071	0.00015	-1e-05	-4e-05	5
24872	5e-05	-2e-05	5e-05	-0.00027	-0.00015	-8e-05	-4e-05	-2e-05	5
24873	4e-05	0.00012	6e-05	-0.00045	-0.00016	-7e-05	-7e-05	-2e-05	5
24874	4e-05	0.00012	6e-05	-0.00045	-0.00016	-7e-05	-7e-05	-2e-05	5
24875	4e-05	0.00012	6e-05	-0.00045	-0.00016	-7e-05	-7e-05	-2e-05	5
24876	4e-05	0.00012	6e-05	-0.00045	-0.00016	-7e-05	-7e-05	-2e-05	5
24877	4e-05	0.00012	6e-05	-0.00045	-0.00016	-7e-05	-7e-05	-2e-05	5
24878	4e-05	0.00012	6e-05	-0.00045	-0.00016	-7e-05	-7e-05	-2e-05	5
24879	4e-05	0.00012	6e-05	-0.00045	-0.00016	-7e-05	-7e-05	-2e-05	5
24880	4e-05	0.00012	6e-05	-0.00045	-0.00016	-7e-05	-7e-05	-2e-05	5
24881	-2e-05	-4e-05	0.00023	0.00013	-0.00022	0.00013	5e-05	-1e-05	5
24882	-2e-05	-4e-05	0.00023	0.00013	-0.00022	0.00013	5e-05	-1e-05	5
24883	-2e-05	-4e-05	0.00023	0.00013	-0.00022	0.00013	5e-05	-1e-05	5
24884	-2e-05	-4e-05	0.00023	0.00013	-0.00022	0.00013	5e-05	-1e-05	5
24885	-2e-05	-4e-05	0.00023	0.00013	-0.00022	0.00013	5e-05	-1e-05	5
24886	-2e-05	-4e-05	0.00023	0.00013	-0.00022	0.00013	5e-05	-1e-05	5
24888	-2e-05	-4e-05	0.00023	0.00013	-0.00022	0.00013	5e-05	-1e-05	5
24889	-2e-05	-4e-05	0.00023	0.00013	-0.00022	0.00013	5e-05	-1e-05	5
24890	-2e-05	-4e-05	0.00023	0.00013	-0.00022	0.00013	5e-05	-1e-05	5
24891	-2e-05	-4e-05	0.00023	0.00013	-0.00022	0.00013	5e-05	-1e-05	5
24892	-2e-05	-4e-05	0.00023	0.00013	-0.00022	0.00013	5e-05	-1e-05	5
24893	-2e-05	-4e-05	0.00023	0.00013	-0.00022	0.00013	5e-05	-1e-05	5
24894	-2e-05	-4e-05	0.00023	0.00013	-0.00022	0.00013	5e-05	-1e-05	5
24895	-2e-05	-4e-05	0.00023	0.00013	-0.00022	0.00013	5e-05	-1e-05	5
24896	0.00061	2e-05	0	-0.00021	0.00021	-0.00011	-4e-05	0	5
24897	0.00061	2e-05	0	-0.00021	0.00021	-0.00011	-4e-05	0	5
24898	-0.00026	-9e-05	-0.00013	-0.00084	-0.00098	-0.00018	-1e-05	-4e-05	5
24899	-0.00026	-9e-05	-0.00013	-0.00084	-0.00098	-0.00018	-1e-05	-4e-05	5
24900	-0.00026	-9e-05	-0.00013	-0.00084	-0.00098	-0.00018	-1e-05	-4e-05	5
24901	-0.00026	-9e-05	-0.00013	-0.00084	-0.00098	-0.00018	-1e-05	-4e-05	5
24902	-0.00026	-9e-05	-0.00013	-0.00084	-0.00098	-0.00018	-1e-05	-4e-05	5
24903	-0.00026	-9e-05	-0.00013	-0.00084	-0.00098	-0.00018	-1e-05	-4e-05	5
24904	-0.00026	-9e-05	-0.00013	-0.00084	-0.00098	-0.00018	-1e-05	-4e-05	5
24905	-0.00026	-9e-05	-0.00013	-0.00084	-0.00098	-0.00018	-1e-05	-4e-05	5
24906	-0.00026	-9e-05	-0.00013	-0.00084	-0.00098	-0.00018	-1e-05	-4e-05	5
24907	-0.00026	-9e-05	-0.00013	-0.00084	-0.00098	-0.00018	-1e-05	-4e-05	5
24908	-0.00026	-9e-05	-0.00013	-0.00084	-0.00098	-0.00018	-1e-05	-4e-05	5
24909	-0.00026	-9e-05	-0.00013	-0.00084	-0.00098	-0.00018	-1e-05	-4e-05	5
24910	-0.00026	-9e-05	-0.00013	-0.00084	-0.00098	-0.00018	-1e-05	-4e-05	5
24911	-0.00026	-9e-05	-0.00013	-0.00084	-0.00098	-0.00018	-1e-05	-4e-05	5
24912	-0.00026	-9e-05	-0.00013	-0.00084	-0.00098	-0.00018	-1e-05	-4e-05	5
24913	-0.00026	-9e-05	-0.00013	-0.00084	-0.00098	-0.00018	-1e-05	-4e-05	5
24914	-0.00026	-9e-05	-0.00013	-0.00084	-0.00098	-0.00018	-1e-05	-4e-05	5
24915	-0.00026	-9e-05	-0.00013	-0.00084	-0.00098	-0.00018	-1e-05	-4e-05	5
24916	-0.00026	-9e-05	-0.00013	-0.00084	-0.00098	-0.00018	-1e-05	-4e-05	5
24917	-0.00026	-9e-05	-0.00013	-0.00084	-0.00098	-0.00018	-1e-05	-4e-05	5
24918	-0.00026	-9e-05	-0.00013	-0.00084	-0.00098	-0.00018	-1e-05	-4e-05	5
24919	0.00017	0.00032	0.00052	0.00058	0.00068	0.00035	0.00018	0.00017	5
24920	6e-05	8e-05	0.00011	0.0004	-0.00026	-2e-05	-2e-05	-1e-05	5
24921	6e-05	8e-05	0.00011	0.0004	-0.00026	-2e-05	-2e-05	-1e-05	5
24922	6e-05	8e-05	0.00011	0.0004	-0.00026	-2e-05	-2e-05	-1e-05	5
24923	6e-05	8e-05	0.00011	0.0004	-0.00026	-2e-05	-2e-05	-1e-05	5
24924	6e-05	8e-05	0.00011	0.0004	-0.00026	-2e-05	-2e-05	-1e-05	5
24925	6e-05	8e-05	0.00011	0.0004	-0.00026	-2e-05	-2e-05	-1e-05	5
24926	6e-05	8e-05	0.00011	0.0004	-0.00026	-2e-05	-2e-05	-1e-05	5
24927	6e-05	8e-05	0.00011	0.0004	-0.00026	-2e-05	-2e-05	-1e-05	5
24928	6e-05	8e-05	0.00011	0.0004	-0.00026	-2e-05	-2e-05	-1e-05	5
24929	6e-05	8e-05	0.00011	0.0004	-0.00026	-2e-05	-2e-05	-1e-05	5
24930	6e-05	8e-05	0.00011	0.0004	-0.00026	-2e-05	-2e-05	-1e-05	5
24931	6e-05	8e-05	0.00011	0.0004	-0.00026	-2e-05	-2e-05	-1e-05	5
24932	6e-05	8e-05	0.00011	0.0004	-0.00026	-2e-05	-2e-05	-1e-05	5
24933	6e-05	8e-05	0.00011	0.0004	-0.00026	-2e-05	-2e-05	-1e-05	5
24934	6e-05	8e-05	0.00011	0.0004	-0.00026	-2e-05	-2e-05	-1e-05	5
24935	6e-05	8e-05	0.00011	0.0004	-0.00026	-2e-05	-2e-05	-1e-05	5
24936	6e-05	8e-05	0.00011	0.0004	-0.00026	-2e-05	-2e-05	-1e-05	5
24938	6e-05	8e-05	0.00011	0.0004	-0.00026	-2e-05	-2e-05	-1e-05	5
24939	6e-05	8e-05	0.00011	0.0004	-0.00026	-2e-05	-2e-05	-1e-05	5
24940	6e-05	8e-05	0.00011	0.0004	-0.00026	-2e-05	-2e-05	-1e-05	5
24941	6e-05	8e-05	0.00011	0.0004	-0.00026	-2e-05	-2e-05	-1e-05	5
24942	6e-05	8e-05	0.00011	0.0004	-0.00026	-2e-05	-2e-05	-1e-05	5
24943	6e-05	8e-05	0.00011	0.0004	-0.00026	-2e-05	-2e-05	-1e-05	5
24944	6e-05	8e-05	0.00011	0.0004	-0.00026	-2e-05	-2e-05	-1e-05	5
24945	6e-05	8e-05	0.00011	0.0004	-0.00026	-2e-05	-2e-05	-1e-05	5
24946	6e-05	8e-05	0.00011	0.0004	-0.00026	-2e-05	-2e-05	-1e-05	5
24947	6e-05	8e-05	0.00011	0.0004	-0.00026	-2e-05	-2e-05	-1e-05	5
24948	6e-05	8e-05	0.00011	0.0004	-0.00026	-2e-05	-2e-05	-1e-05	5
24949	6e-05	8e-05	0.00011	0.0004	-0.00026	-2e-05	-2e-05	-1e-05	5
24950	6e-05	8e-05	0.00011	0.0004	-0.00026	-2e-05	-2e-05	-1e-05	5
24951	6e-05	8e-05	0.00011	0.0004	-0.00026	-2e-05	-2e-05	-1e-05	5
24952	6e-05	8e-05	0.00011	0.0004	-0.00026	-2e-05	-2e-05	-1e-05	5
24953	6e-05	8e-05	0.00011	0.0004	-0.00026	-2e-05	-2e-05	-1e-05	5
24954	6e-05	8e-05	0.00011	0.0004	-0.00026	-2e-05	-2e-05	-1e-05	5
24955	6e-05	8e-05	0.00011	0.0004	-0.00026	-2e-05	-2e-05	-1e-05	5
24956	6e-05	8e-05	0.00011	0.0004	-0.00026	-2e-05	-2e-05	-1e-05	5
24957	-0.00017	-0.0001	-0.00032	-0.00087	-0.00044	-0.00014	-1e-05	-1e-05	5
24958	-1e-05	8e-05	0.00018	0.00011	-0.00013	-3e-05	1e-05	1e-05	5
24959	-0.0001	-0.00013	-0.00022	-0.00039	0	-0.00022	-9e-05	-4e-05	5
24960	-0.00013	-0.00029	-0.00047	-0.00075	-7e-05	-0.0002	-9e-05	-2e-05	5
24961	-0.00013	-0.00029	-0.00047	-0.00075	-7e-05	-0.0002	-9e-05	-2e-05	5
24962	-0.00013	-0.00029	-0.00047	-0.00075	-7e-05	-0.0002	-9e-05	-2e-05	5
24963	-0.00013	-0.00029	-0.00047	-0.00075	-7e-05	-0.0002	-9e-05	-2e-05	5
24964	0.00022	2e-05	-6e-05	-0.0012	-0.00068	0.00012	1e-05	5e-05	5
24965	0.00022	2e-05	-6e-05	-0.0012	-0.00068	0.00012	1e-05	5e-05	5
24966	0.00022	2e-05	-6e-05	-0.0012	-0.00068	0.00012	1e-05	5e-05	5
24967	0.00022	2e-05	-6e-05	-0.0012	-0.00068	0.00012	1e-05	5e-05	5
24968	0.00022	2e-05	-6e-05	-0.0012	-0.00068	0.00012	1e-05	5e-05	5
24969	0.00022	2e-05	-6e-05	-0.0012	-0.00068	0.00012	1e-05	5e-05	5
24970	0.00022	2e-05	-6e-05	-0.0012	-0.00068	0.00012	1e-05	5e-05	5
24971	0.00022	2e-05	-6e-05	-0.0012	-0.00068	0.00012	1e-05	5e-05	5
24972	0.00022	2e-05	-6e-05	-0.0012	-0.00068	0.00012	1e-05	5e-05	5
24973	0.00022	2e-05	-6e-05	-0.0012	-0.00068	0.00012	1e-05	5e-05	5
24974	0.00022	2e-05	-6e-05	-0.0012	-0.00068	0.00012	1e-05	5e-05	5
24975	0.00022	2e-05	-6e-05	-0.0012	-0.00068	0.00012	1e-05	5e-05	5
24976	0.00022	2e-05	-6e-05	-0.0012	-0.00068	0.00012	1e-05	5e-05	5
24977	0.00022	2e-05	-6e-05	-0.0012	-0.00068	0.00012	1e-05	5e-05	5
24978	0.00022	2e-05	-6e-05	-0.0012	-0.00068	0.00012	1e-05	5e-05	5
24979	0.00062	0.00012	-9e-05	-0.00027	-0.00035	-0.00019	-5e-05	1e-05	5
24980	-0.00027	4e-05	-0.00016	-0.00062	-0.00013	-8e-05	-2e-05	-5e-05	5
24981	-0.00027	4e-05	-0.00016	-0.00062	-0.00013	-8e-05	-2e-05	-5e-05	5
24982	-0.00027	4e-05	-0.00016	-0.00062	-0.00013	-8e-05	-2e-05	-5e-05	5
24983	-0.00027	4e-05	-0.00016	-0.00062	-0.00013	-8e-05	-2e-05	-5e-05	5
24984	-0.00027	4e-05	-0.00016	-0.00062	-0.00013	-8e-05	-2e-05	-5e-05	5
24985	-0.00027	4e-05	-0.00016	-0.00062	-0.00013	-8e-05	-2e-05	-5e-05	5
24986	-0.00027	4e-05	-0.00016	-0.00062	-0.00013	-8e-05	-2e-05	-5e-05	5
24988	-0.00027	4e-05	-0.00016	-0.00062	-0.00013	-8e-05	-2e-05	-5e-05	5
24989	-0.00027	4e-05	-0.00016	-0.00062	-0.00013	-8e-05	-2e-05	-5e-05	5
24990	-0.00027	4e-05	-0.00016	-0.00062	-0.00013	-8e-05	-2e-05	-5e-05	5
24991	-0.00027	4e-05	-0.00016	-0.00062	-0.00013	-8e-05	-2e-05	-5e-05	5
24992	-0.00027	4e-05	-0.00016	-0.00062	-0.00013	-8e-05	-2e-05	-5e-05	5
24993	-0.00027	4e-05	-0.00016	-0.00062	-0.00013	-8e-05	-2e-05	-5e-05	5
24994	-0.00027	4e-05	-0.00016	-0.00062	-0.00013	-8e-05	-2e-05	-5e-05	5
24995	-0.00027	4e-05	-0.00016	-0.00062	-0.00013	-8e-05	-2e-05	-5e-05	5
24996	-0.00027	4e-05	-0.00016	-0.00062	-0.00013	-8e-05	-2e-05	-5e-05	5
24997	-0.00027	4e-05	-0.00016	-0.00062	-0.00013	-8e-05	-2e-05	-5e-05	5
24998	-0.00027	4e-05	-0.00016	-0.00062	-0.00013	-8e-05	-2e-05	-5e-05	5
24999	-0.00027	4e-05	-0.00016	-0.00062	-0.00013	-8e-05	-2e-05	-5e-05	5
25000	-0.00027	4e-05	-0.00016	-0.00062	-0.00013	-8e-05	-2e-05	-5e-05	5
25001	-0.00018	3e-05	-0.00026	-0.00037	0.00048	-0.00015	-4e-05	-5e-05	5
25002	-0.00018	3e-05	-0.00026	-0.00037	0.00048	-0.00015	-4e-05	-5e-05	5
25003	-1e-05	-0.00015	0.00015	0.00072	0.00072	-2e-05	-3e-05	4e-05	5
25004	-1e-05	-0.00015	0.00015	0.00072	0.00072	-2e-05	-3e-05	4e-05	5
25005	-1e-05	-0.00015	0.00015	0.00072	0.00072	-2e-05	-3e-05	4e-05	5
25006	-1e-05	-0.00015	0.00015	0.00072	0.00072	-2e-05	-3e-05	4e-05	5
25007	-1e-05	-0.00015	0.00015	0.00072	0.00072	-2e-05	-3e-05	4e-05	5
25008	-1e-05	-0.00015	0.00015	0.00072	0.00072	-2e-05	-3e-05	4e-05	5
25009	-1e-05	-0.00015	0.00015	0.00072	0.00072	-2e-05	-3e-05	4e-05	5
25010	-1e-05	-0.00015	0.00015	0.00072	0.00072	-2e-05	-3e-05	4e-05	5
25011	-1e-05	-0.00015	0.00015	0.00072	0.00072	-2e-05	-3e-05	4e-05	5
25012	-1e-05	-0.00015	0.00015	0.00072	0.00072	-2e-05	-3e-05	4e-05	5
25013	-1e-05	-0.00015	0.00015	0.00072	0.00072	-2e-05	-3e-05	4e-05	5
25014	-1e-05	-0.00015	0.00015	0.00072	0.00072	-2e-05	-3e-05	4e-05	5
25015	-1e-05	-0.00015	0.00015	0.00072	0.00072	-2e-05	-3e-05	4e-05	5
25016	-0.00017	-4e-05	1e-05	0.00037	-0.00011	-9e-05	-9e-05	-4e-05	5
25017	-0.00017	-4e-05	1e-05	0.00037	-0.00011	-9e-05	-9e-05	-4e-05	5
25018	-0.00049	-9e-05	0.00011	0.00066	0.00064	6e-05	-3e-05	-9e-05	5
25019	-0.00049	-9e-05	0.00011	0.00066	0.00064	6e-05	-3e-05	-9e-05	5
25020	-0.00049	-9e-05	0.00011	0.00066	0.00064	6e-05	-3e-05	-9e-05	5
25021	-0.00049	-9e-05	0.00011	0.00066	0.00064	6e-05	-3e-05	-9e-05	5
25022	-0.00049	-9e-05	0.00011	0.00066	0.00064	6e-05	-3e-05	-9e-05	5
25023	-0.00049	-9e-05	0.00011	0.00066	0.00064	6e-05	-3e-05	-9e-05	5
25024	-0.00049	-9e-05	0.00011	0.00066	0.00064	6e-05	-3e-05	-9e-05	5
25025	-0.00049	-9e-05	0.00011	0.00066	0.00064	6e-05	-3e-05	-9e-05	5
25026	-0.00049	-9e-05	0.00011	0.00066	0.00064	6e-05	-3e-05	-9e-05	5
25027	-0.00049	-9e-05	0.00011	0.00066	0.00064	6e-05	-3e-05	-9e-05	5
25028	-0.00049	-9e-05	0.00011	0.00066	0.00064	6e-05	-3e-05	-9e-05	5
25029	-0.00049	-9e-05	0.00011	0.00066	0.00064	6e-05	-3e-05	-9e-05	5
25030	-0.00049	-9e-05	0.00011	0.00066	0.00064	6e-05	-3e-05	-9e-05	5
25031	-0.00049	-9e-05	0.00011	0.00066	0.00064	6e-05	-3e-05	-9e-05	5
25033	-0.00049	-9e-05	0.00011	0.00066	0.00064	6e-05	-3e-05	-9e-05	5
25034	-0.00049	-9e-05	0.00011	0.00066	0.00064	6e-05	-3e-05	-9e-05	5
25035	-0.00049	-9e-05	0.00011	0.00066	0.00064	6e-05	-3e-05	-9e-05	5
25036	-0.00049	-9e-05	0.00011	0.00066	0.00064	6e-05	-3e-05	-9e-05	5
25039	-3e-05	0.00016	0.00036	0.00066	0.00015	0.00034	0.00019	8e-05	5
25040	0.00044	3e-05	-7e-05	-6e-05	-0.00042	-0.00012	-6e-05	-1e-05	5
25041	0.00044	3e-05	-7e-05	-6e-05	-0.00042	-0.00012	-6e-05	-1e-05	5
25042	0.00044	3e-05	-7e-05	-6e-05	-0.00042	-0.00012	-6e-05	-1e-05	5
25043	0.00044	3e-05	-7e-05	-6e-05	-0.00042	-0.00012	-6e-05	-1e-05	5
25044	0.00044	3e-05	-7e-05	-6e-05	-0.00042	-0.00012	-6e-05	-1e-05	5
25045	0.00044	3e-05	-7e-05	-6e-05	-0.00042	-0.00012	-6e-05	-1e-05	5
25046	0.00044	3e-05	-7e-05	-6e-05	-0.00042	-0.00012	-6e-05	-1e-05	5
25047	0.00044	3e-05	-7e-05	-6e-05	-0.00042	-0.00012	-6e-05	-1e-05	5
25048	0.00044	3e-05	-7e-05	-6e-05	-0.00042	-0.00012	-6e-05	-1e-05	5
25049	0.00044	3e-05	-7e-05	-6e-05	-0.00042	-0.00012	-6e-05	-1e-05	5
25050	0.00044	3e-05	-7e-05	-6e-05	-0.00042	-0.00012	-6e-05	-1e-05	5
25051	0.00044	3e-05	-7e-05	-6e-05	-0.00042	-0.00012	-6e-05	-1e-05	5
25052	0.00044	3e-05	-7e-05	-6e-05	-0.00042	-0.00012	-6e-05	-1e-05	5
25053	0.00044	3e-05	-7e-05	-6e-05	-0.00042	-0.00012	-6e-05	-1e-05	5
25054	0.00044	3e-05	-7e-05	-6e-05	-0.00042	-0.00012	-6e-05	-1e-05	5
25055	0.00044	3e-05	-7e-05	-6e-05	-0.00042	-0.00012	-6e-05	-1e-05	5
25056	0.00044	3e-05	-7e-05	-6e-05	-0.00042	-0.00012	-6e-05	-1e-05	5
25057	0.00044	3e-05	-7e-05	-6e-05	-0.00042	-0.00012	-6e-05	-1e-05	5
25058	0.00044	3e-05	-7e-05	-6e-05	-0.00042	-0.00012	-6e-05	-1e-05	5
25059	0.00044	3e-05	-7e-05	-6e-05	-0.00042	-0.00012	-6e-05	-1e-05	5
25060	0.00044	3e-05	-7e-05	-6e-05	-0.00042	-0.00012	-6e-05	-1e-05	5
25061	-0.00058	-0.00016	-0.00025	-5e-05	-0.0001	-8e-05	-7e-05	-0.00015	5
25062	-0.00058	-0.00016	-0.00025	-5e-05	-0.0001	-8e-05	-7e-05	-0.00015	5
25063	-0.00058	-0.00016	-0.00025	-5e-05	-0.0001	-8e-05	-7e-05	-0.00015	5
25064	-0.0001	-5e-05	-0.00015	0.00018	-0.00018	-4e-05	-3e-05	-4e-05	5
25065	-0.0001	-5e-05	-0.00015	0.00018	-0.00018	-4e-05	-3e-05	-4e-05	5
25066	-0.0001	-5e-05	-0.00015	0.00018	-0.00018	-4e-05	-3e-05	-4e-05	5
25067	-0.0001	-5e-05	-0.00015	0.00018	-0.00018	-4e-05	-3e-05	-4e-05	5
25068	-0.0001	-5e-05	-0.00015	0.00018	-0.00018	-4e-05	-3e-05	-4e-05	5
25069	-0.0001	-5e-05	-0.00015	0.00018	-0.00018	-4e-05	-3e-05	-4e-05	5
25070	-0.0001	-5e-05	-0.00015	0.00018	-0.00018	-4e-05	-3e-05	-4e-05	5
25071	-0.0001	-5e-05	-0.00015	0.00018	-0.00018	-4e-05	-3e-05	-4e-05	5
25072	-0.0001	-5e-05	-0.00015	0.00018	-0.00018	-4e-05	-3e-05	-4e-05	5
25073	-0.0001	-5e-05	-0.00015	0.00018	-0.00018	-4e-05	-3e-05	-4e-05	5
25074	-0.0001	-5e-05	-0.00015	0.00018	-0.00018	-4e-05	-3e-05	-4e-05	5
25075	-0.0001	-5e-05	-0.00015	0.00018	-0.00018	-4e-05	-3e-05	-4e-05	5
25076	-4e-05	-0.00021	-0.00012	0.00067	0.00059	1e-05	-0.0001	-0.0001	5
25077	-4e-05	-0.00021	-0.00012	0.00067	0.00059	1e-05	-0.0001	-0.0001	5
25078	-0.00041	-0.00026	0	0.00047	0.00018	7e-05	0	-8e-05	5
25079	-0.00041	-0.00026	0	0.00047	0.00018	7e-05	0	-8e-05	5
25080	-0.00041	-0.00026	0	0.00047	0.00018	7e-05	0	-8e-05	5
25081	-0.00041	-0.00026	0	0.00047	0.00018	7e-05	0	-8e-05	5
25082	-0.00041	-0.00026	0	0.00047	0.00018	7e-05	0	-8e-05	5
25083	-0.00041	-0.00026	0	0.00047	0.00018	7e-05	0	-8e-05	5
25084	-0.00041	-0.00026	0	0.00047	0.00018	7e-05	0	-8e-05	5
25085	-0.00041	-0.00026	0	0.00047	0.00018	7e-05	0	-8e-05	5
25086	-0.00041	-0.00026	0	0.00047	0.00018	7e-05	0	-8e-05	5
25088	-0.00041	-0.00026	0	0.00047	0.00018	7e-05	0	-8e-05	5
25089	-0.00041	-0.00026	0	0.00047	0.00018	7e-05	0	-8e-05	5
25090	-0.00041	-0.00026	0	0.00047	0.00018	7e-05	0	-8e-05	5
25091	-0.00041	-0.00026	0	0.00047	0.00018	7e-05	0	-8e-05	5
25092	-0.00041	-0.00026	0	0.00047	0.00018	7e-05	0	-8e-05	5
25093	-0.00041	-0.00026	0	0.00047	0.00018	7e-05	0	-8e-05	5
25094	-0.00041	-0.00026	0	0.00047	0.00018	7e-05	0	-8e-05	5
25095	-0.00041	-0.00026	0	0.00047	0.00018	7e-05	0	-8e-05	5
25096	-0.00041	-0.00026	0	0.00047	0.00018	7e-05	0	-8e-05	5
25097	-0.00041	-0.00026	0	0.00047	0.00018	7e-05	0	-8e-05	5
25098	-0.00041	-0.00026	0	0.00047	0.00018	7e-05	0	-8e-05	5
25099	5e-05	4e-05	-8e-05	-0.00062	-0.00085	-0.00016	-2e-05	4e-05	5
25100	0.00039	0.00035	0.00035	8e-05	-0.00015	3e-05	6e-05	0.00011	5
25101	0.00039	0.00035	0.00035	8e-05	-0.00015	3e-05	6e-05	0.00011	5
25102	0.00039	0.00035	0.00035	8e-05	-0.00015	3e-05	6e-05	0.00011	5
25103	0.00039	0.00035	0.00035	8e-05	-0.00015	3e-05	6e-05	0.00011	5
25104	0.00039	0.00035	0.00035	8e-05	-0.00015	3e-05	6e-05	0.00011	5
25105	0.00039	0.00035	0.00035	8e-05	-0.00015	3e-05	6e-05	0.00011	5
25106	0.00039	0.00035	0.00035	8e-05	-0.00015	3e-05	6e-05	0.00011	5
25107	0.00039	0.00035	0.00035	8e-05	-0.00015	3e-05	6e-05	0.00011	5
25108	0.00039	0.00035	0.00035	8e-05	-0.00015	3e-05	6e-05	0.00011	5
25109	0.00039	0.00035	0.00035	8e-05	-0.00015	3e-05	6e-05	0.00011	5
25110	0.00039	0.00035	0.00035	8e-05	-0.00015	3e-05	6e-05	0.00011	5
25111	0.00039	0.00035	0.00035	8e-05	-0.00015	3e-05	6e-05	0.00011	5
25112	0.00039	0.00035	0.00035	8e-05	-0.00015	3e-05	6e-05	0.00011	5
25113	0.00039	0.00035	0.00035	8e-05	-0.00015	3e-05	6e-05	0.00011	5
25114	0.00039	0.00035	0.00035	8e-05	-0.00015	3e-05	6e-05	0.00011	5
25115	0.00039	0.00035	0.00035	8e-05	-0.00015	3e-05	6e-05	0.00011	5
25116	0.00039	0.00035	0.00035	8e-05	-0.00015	3e-05	6e-05	0.00011	5
25117	0.00039	0.00035	0.00035	8e-05	-0.00015	3e-05	6e-05	0.00011	5
25118	0.00039	0.00035	0.00035	8e-05	-0.00015	3e-05	6e-05	0.00011	5
25119	0.00039	0.00035	0.00035	8e-05	-0.00015	3e-05	6e-05	0.00011	5
25120	0.00039	0.00035	0.00035	8e-05	-0.00015	3e-05	6e-05	0.00011	5
25121	-0.00021	-0.00017	0	0.00049	0.00036	0.00014	3e-05	-7e-05	5
25122	-0.00021	-0.00017	0	0.00049	0.00036	0.00014	3e-05	-7e-05	5
25123	-0.00011	0.0001	0.00011	0.00053	0.00047	0.00018	0.0001	-3e-05	5
25124	-0.00011	0.0001	0.00011	0.00053	0.00047	0.00018	0.0001	-3e-05	5
25125	-0.00011	0.0001	0.00011	0.00053	0.00047	0.00018	0.0001	-3e-05	5
25126	-0.00011	0.0001	0.00011	0.00053	0.00047	0.00018	0.0001	-3e-05	5
25127	-0.00011	0.0001	0.00011	0.00053	0.00047	0.00018	0.0001	-3e-05	5
25128	-0.00011	0.0001	0.00011	0.00053	0.00047	0.00018	0.0001	-3e-05	5
25129	-0.00011	0.0001	0.00011	0.00053	0.00047	0.00018	0.0001	-3e-05	5
25130	-0.00011	0.0001	0.00011	0.00053	0.00047	0.00018	0.0001	-3e-05	5
25131	-0.00011	0.0001	0.00011	0.00053	0.00047	0.00018	0.0001	-3e-05	5
25132	-0.00011	0.0001	0.00011	0.00053	0.00047	0.00018	0.0001	-3e-05	5
25133	-0.00011	0.0001	0.00011	0.00053	0.00047	0.00018	0.0001	-3e-05	5
25134	-0.00011	0.0001	0.00011	0.00053	0.00047	0.00018	0.0001	-3e-05	5
25135	-0.00011	0.0001	0.00011	0.00053	0.00047	0.00018	0.0001	-3e-05	5
25136	-0.00011	0.0001	0.00011	0.00053	0.00047	0.00018	0.0001	-3e-05	5
25138	-0.00011	0.0001	0.00011	0.00053	0.00047	0.00018	0.0001	-3e-05	5
25139	-0.00011	0.0001	0.00011	0.00053	0.00047	0.00018	0.0001	-3e-05	5
25140	-0.00011	0.0001	0.00011	0.00053	0.00047	0.00018	0.0001	-3e-05	5
25141	-0.00011	0.0001	0.00011	0.00053	0.00047	0.00018	0.0001	-3e-05	5
25142	-0.00011	0.0001	0.00011	0.00053	0.00047	0.00018	0.0001	-3e-05	5
25143	-0.00011	0.0001	0.00011	0.00053	0.00047	0.00018	0.0001	-3e-05	5
25144	-7e-05	-0.00023	-0.00057	-0.00108	-0.00072	-5e-05	0	1e-05	5
25145	0.00021	0.00028	0.0003	0.00037	0.00029	-1e-05	5e-05	0.0001	5
25146	0.00021	0.00028	0.0003	0.00037	0.00029	-1e-05	5e-05	0.0001	5
25147	0.00021	0.00028	0.0003	0.00037	0.00029	-1e-05	5e-05	0.0001	5
25148	0.00021	0.00028	0.0003	0.00037	0.00029	-1e-05	5e-05	0.0001	5
25149	0.00021	0.00028	0.0003	0.00037	0.00029	-1e-05	5e-05	0.0001	5
25150	0.00021	0.00028	0.0003	0.00037	0.00029	-1e-05	5e-05	0.0001	5
25151	0.00021	0.00028	0.0003	0.00037	0.00029	-1e-05	5e-05	0.0001	5
25152	0.00021	0.00028	0.0003	0.00037	0.00029	-1e-05	5e-05	0.0001	5
25153	0.00021	0.00028	0.0003	0.00037	0.00029	-1e-05	5e-05	0.0001	5
25154	0.00021	0.00028	0.0003	0.00037	0.00029	-1e-05	5e-05	0.0001	5
25155	0.00021	0.00028	0.0003	0.00037	0.00029	-1e-05	5e-05	0.0001	5
25156	0.00021	0.00028	0.0003	0.00037	0.00029	-1e-05	5e-05	0.0001	5
25157	0.00021	0.00028	0.0003	0.00037	0.00029	-1e-05	5e-05	0.0001	5
25158	0.00021	0.00028	0.0003	0.00037	0.00029	-1e-05	5e-05	0.0001	5
25159	-0.00029	0	0.00024	0.00039	0.0003	0	-2e-05	-7e-05	5
25160	0.00013	-7e-05	-0.00043	-0.00014	-0.0002	0.0002	3e-05	-1e-05	5
25161	0.00013	-7e-05	-0.00043	-0.00014	-0.0002	0.0002	3e-05	-1e-05	5
25162	0.00013	-7e-05	-0.00043	-0.00014	-0.0002	0.0002	3e-05	-1e-05	5
25163	0.00013	-7e-05	-0.00043	-0.00014	-0.0002	0.0002	3e-05	-1e-05	5
25164	0.00013	-7e-05	-0.00043	-0.00014	-0.0002	0.0002	3e-05	-1e-05	5
25165	0.00013	-7e-05	-0.00043	-0.00014	-0.0002	0.0002	3e-05	-1e-05	5
25166	0.00013	-7e-05	-0.00043	-0.00014	-0.0002	0.0002	3e-05	-1e-05	5
25167	0.00013	-7e-05	-0.00043	-0.00014	-0.0002	0.0002	3e-05	-1e-05	5
25168	0.00013	-7e-05	-0.00043	-0.00014	-0.0002	0.0002	3e-05	-1e-05	5
25169	0.00013	-7e-05	-0.00043	-0.00014	-0.0002	0.0002	3e-05	-1e-05	5
25170	0.00013	-7e-05	-0.00043	-0.00014	-0.0002	0.0002	3e-05	-1e-05	5
25171	0.00013	-7e-05	-0.00043	-0.00014	-0.0002	0.0002	3e-05	-1e-05	5
25172	0.00013	-7e-05	-0.00043	-0.00014	-0.0002	0.0002	3e-05	-1e-05	5
25173	0.00013	-7e-05	-0.00043	-0.00014	-0.0002	0.0002	3e-05	-1e-05	5
25174	0.00013	-7e-05	-0.00043	-0.00014	-0.0002	0.0002	3e-05	-1e-05	5
25175	0.00013	-7e-05	-0.00043	-0.00014	-0.0002	0.0002	3e-05	-1e-05	5
25176	0.00013	-7e-05	-0.00043	-0.00014	-0.0002	0.0002	3e-05	-1e-05	5
25177	0.00013	-7e-05	-0.00043	-0.00014	-0.0002	0.0002	3e-05	-1e-05	5
25178	0.00013	-7e-05	-0.00043	-0.00014	-0.0002	0.0002	3e-05	-1e-05	5
25179	0.00013	-7e-05	-0.00043	-0.00014	-0.0002	0.0002	3e-05	-1e-05	5
25180	0.00013	-7e-05	-0.00043	-0.00014	-0.0002	0.0002	3e-05	-1e-05	5
25181	0	-9e-05	0.00022	0.0001	-0.00036	0.00032	6e-05	1e-05	5
25182	0	-9e-05	0.00022	0.0001	-0.00036	0.00032	6e-05	1e-05	5
25183	-0.00045	-0.0001	-0.00015	-7e-05	0.00026	0.00015	4e-05	-7e-05	5
25184	-0.00045	-0.0001	-0.00015	-7e-05	0.00026	0.00015	4e-05	-7e-05	5
25185	-0.00045	-0.0001	-0.00015	-7e-05	0.00026	0.00015	4e-05	-7e-05	5
25186	-0.00045	-0.0001	-0.00015	-7e-05	0.00026	0.00015	4e-05	-7e-05	5
25188	-0.00045	-0.0001	-0.00015	-7e-05	0.00026	0.00015	4e-05	-7e-05	5
25189	-0.00045	-0.0001	-0.00015	-7e-05	0.00026	0.00015	4e-05	-7e-05	5
25190	-0.00045	-0.0001	-0.00015	-7e-05	0.00026	0.00015	4e-05	-7e-05	5
25191	-0.00045	-0.0001	-0.00015	-7e-05	0.00026	0.00015	4e-05	-7e-05	5
25192	-0.00045	-0.0001	-0.00015	-7e-05	0.00026	0.00015	4e-05	-7e-05	5
25193	-0.00045	-0.0001	-0.00015	-7e-05	0.00026	0.00015	4e-05	-7e-05	5
25194	-0.00045	-0.0001	-0.00015	-7e-05	0.00026	0.00015	4e-05	-7e-05	5
25195	-0.00045	-0.0001	-0.00015	-7e-05	0.00026	0.00015	4e-05	-7e-05	5
25196	-0.00028	-4e-05	-0.00018	-0.00091	-0.00038	-0.00029	-8e-05	-5e-05	5
25197	-0.00028	-4e-05	-0.00018	-0.00091	-0.00038	-0.00029	-8e-05	-5e-05	5
25198	-0.00028	-4e-05	-0.00018	-0.00091	-0.00038	-0.00029	-8e-05	-5e-05	5
25199	-0.00028	-4e-05	-0.00018	-0.00091	-0.00038	-0.00029	-8e-05	-5e-05	5
25200	-0.00028	-4e-05	-0.00018	-0.00091	-0.00038	-0.00029	-8e-05	-5e-05	5
25201	-0.00028	-4e-05	-0.00018	-0.00091	-0.00038	-0.00029	-8e-05	-5e-05	5
25202	-1e-05	2e-05	-2e-05	-0.0005	0.00028	-8e-05	-6e-05	-9e-05	5
25203	-1e-05	2e-05	-2e-05	-0.0005	0.00028	-8e-05	-6e-05	-9e-05	5
25204	-1e-05	2e-05	-2e-05	-0.0005	0.00028	-8e-05	-6e-05	-9e-05	5
25205	-1e-05	2e-05	-2e-05	-0.0005	0.00028	-8e-05	-6e-05	-9e-05	5
25206	-1e-05	2e-05	-2e-05	-0.0005	0.00028	-8e-05	-6e-05	-9e-05	5
25207	-1e-05	2e-05	-2e-05	-0.0005	0.00028	-8e-05	-6e-05	-9e-05	5
25208	-1e-05	2e-05	-2e-05	-0.0005	0.00028	-8e-05	-6e-05	-9e-05	5
25209	-1e-05	2e-05	-2e-05	-0.0005	0.00028	-8e-05	-6e-05	-9e-05	5
25210	-1e-05	2e-05	-2e-05	-0.0005	0.00028	-8e-05	-6e-05	-9e-05	5
25211	-1e-05	2e-05	-2e-05	-0.0005	0.00028	-8e-05	-6e-05	-9e-05	5
25212	-1e-05	2e-05	-2e-05	-0.0005	0.00028	-8e-05	-6e-05	-9e-05	5
25213	-1e-05	2e-05	-2e-05	-0.0005	0.00028	-8e-05	-6e-05	-9e-05	5
25214	-1e-05	2e-05	-2e-05	-0.0005	0.00028	-8e-05	-6e-05	-9e-05	5
25215	-1e-05	2e-05	-2e-05	-0.0005	0.00028	-8e-05	-6e-05	-9e-05	5
25216	-1e-05	2e-05	-2e-05	-0.0005	0.00028	-8e-05	-6e-05	-9e-05	5
25217	-1e-05	2e-05	-2e-05	-0.0005	0.00028	-8e-05	-6e-05	-9e-05	5
25218	-1e-05	2e-05	-2e-05	-0.0005	0.00028	-8e-05	-6e-05	-9e-05	5
25219	-1e-05	2e-05	-2e-05	-0.0005	0.00028	-8e-05	-6e-05	-9e-05	5
25220	-1e-05	2e-05	-2e-05	-0.0005	0.00028	-8e-05	-6e-05	-9e-05	5
25221	-1e-05	2e-05	-2e-05	-0.0005	0.00028	-8e-05	-6e-05	-9e-05	5
25222	-1e-05	2e-05	-2e-05	-0.0005	0.00028	-8e-05	-6e-05	-9e-05	5
25223	-1e-05	2e-05	-2e-05	-0.0005	0.00028	-8e-05	-6e-05	-9e-05	5
25224	-1e-05	2e-05	-2e-05	-0.0005	0.00028	-8e-05	-6e-05	-9e-05	5
25225	-1e-05	2e-05	-2e-05	-0.0005	0.00028	-8e-05	-6e-05	-9e-05	5
25226	0.00015	2e-05	-0.00021	0.00045	0.00089	0.00013	-2e-05	6e-05	5
25227	0.00015	2e-05	-0.00021	0.00045	0.00089	0.00013	-2e-05	6e-05	5
25228	0.00015	2e-05	-0.00021	0.00045	0.00089	0.00013	-2e-05	6e-05	5
25229	0.00015	2e-05	-0.00021	0.00045	0.00089	0.00013	-2e-05	6e-05	5
25230	0.00015	2e-05	-0.00021	0.00045	0.00089	0.00013	-2e-05	6e-05	5
25231	0.00015	2e-05	-0.00021	0.00045	0.00089	0.00013	-2e-05	6e-05	5
25232	0.00015	2e-05	-0.0001	-0.00013	-1e-05	-0.00016	-7e-05	1e-05	5
25233	0.00015	2e-05	-0.0001	-0.00013	-1e-05	-0.00016	-7e-05	1e-05	5
25234	0.00015	2e-05	-0.0001	-0.00013	-1e-05	-0.00016	-7e-05	1e-05	5
25235	0.00015	2e-05	-0.0001	-0.00013	-1e-05	-0.00016	-7e-05	1e-05	5
25236	0.00015	2e-05	-0.0001	-0.00013	-1e-05	-0.00016	-7e-05	1e-05	5
25238	0.00015	2e-05	-0.0001	-0.00013	-1e-05	-0.00016	-7e-05	1e-05	5
25239	0.00015	2e-05	-0.0001	-0.00013	-1e-05	-0.00016	-7e-05	1e-05	5
25240	0.00015	2e-05	-0.0001	-0.00013	-1e-05	-0.00016	-7e-05	1e-05	5
25241	9e-05	-0.00021	-0.00059	-0.00108	1e-05	-0.00012	-5e-05	-1e-05	5
25242	9e-05	-0.00021	-0.00059	-0.00108	1e-05	-0.00012	-5e-05	-1e-05	5
25243	3e-05	2e-05	0.00037	0.00097	0.00064	0.00022	-1e-05	0	5
25244	3e-05	2e-05	0.00037	0.00097	0.00064	0.00022	-1e-05	0	5
25245	3e-05	2e-05	0.00037	0.00097	0.00064	0.00022	-1e-05	0	5
25246	3e-05	2e-05	0.00037	0.00097	0.00064	0.00022	-1e-05	0	5
25247	3e-05	2e-05	0.00037	0.00097	0.00064	0.00022	-1e-05	0	5
25248	3e-05	2e-05	0.00037	0.00097	0.00064	0.00022	-1e-05	0	5
25249	3e-05	2e-05	0.00037	0.00097	0.00064	0.00022	-1e-05	0	5
25250	3e-05	2e-05	0.00037	0.00097	0.00064	0.00022	-1e-05	0	5
25251	3e-05	2e-05	0.00037	0.00097	0.00064	0.00022	-1e-05	0	5
25252	3e-05	2e-05	0.00037	0.00097	0.00064	0.00022	-1e-05	0	5
25253	3e-05	2e-05	0.00037	0.00097	0.00064	0.00022	-1e-05	0	5
25254	3e-05	2e-05	0.00037	0.00097	0.00064	0.00022	-1e-05	0	5
25255	3e-05	2e-05	0.00037	0.00097	0.00064	0.00022	-1e-05	0	5
25256	-3e-05	4e-05	0.00011	0.00081	-7e-05	-0.0001	-2e-05	0	5
25257	-3e-05	4e-05	0.00011	0.00081	-7e-05	-0.0001	-2e-05	0	5
25258	-3e-05	4e-05	0.00011	0.00081	-7e-05	-0.0001	-2e-05	0	5
25259	-3e-05	4e-05	0.00011	0.00081	-7e-05	-0.0001	-2e-05	0	5
25260	-3e-05	4e-05	0.00011	0.00081	-7e-05	-0.0001	-2e-05	0	5
25261	-3e-05	4e-05	0.00011	0.00081	-7e-05	-0.0001	-2e-05	0	5
25262	-3e-05	-0.00011	-0.00024	-0.00049	0.00021	6e-05	1e-05	0	5
25263	-3e-05	-0.00011	-0.00024	-0.00049	0.00021	6e-05	1e-05	0	5
25264	-3e-05	-0.00011	-0.00024	-0.00049	0.00021	6e-05	1e-05	0	5
25265	-3e-05	-0.00011	-0.00024	-0.00049	0.00021	6e-05	1e-05	0	5
25266	-3e-05	-0.00011	-0.00024	-0.00049	0.00021	6e-05	1e-05	0	5
25267	-3e-05	-0.00011	-0.00024	-0.00049	0.00021	6e-05	1e-05	0	5
25268	-3e-05	-0.00011	-0.00024	-0.00049	0.00021	6e-05	1e-05	0	5
25269	-3e-05	-0.00011	-0.00024	-0.00049	0.00021	6e-05	1e-05	0	5
25270	-3e-05	-0.00011	-0.00024	-0.00049	0.00021	6e-05	1e-05	0	5
25271	-3e-05	-0.00011	-0.00024	-0.00049	0.00021	6e-05	1e-05	0	5
25272	-3e-05	-0.00011	-0.00024	-0.00049	0.00021	6e-05	1e-05	0	5
25273	-3e-05	-0.00011	-0.00024	-0.00049	0.00021	6e-05	1e-05	0	5
25274	-3e-05	-0.00011	-0.00024	-0.00049	0.00021	6e-05	1e-05	0	5
25275	-3e-05	-0.00011	-0.00024	-0.00049	0.00021	6e-05	1e-05	0	5
25276	-3e-05	-0.00011	-0.00024	-0.00049	0.00021	6e-05	1e-05	0	5
25277	-3e-05	-0.00011	-0.00024	-0.00049	0.00021	6e-05	1e-05	0	5
25278	-3e-05	-0.00011	-0.00024	-0.00049	0.00021	6e-05	1e-05	0	5
25279	0.00026	0.00015	0.00023	-0.00021	-0.0011	-0.0002	-2e-05	0.0001	5
25280	0.00014	4e-05	0.00017	0.00019	-0.00034	-0.0001	1e-05	9e-05	5
25281	0.00014	4e-05	0.00017	0.00019	-0.00034	-0.0001	1e-05	9e-05	5
25282	0.00014	4e-05	0.00017	0.00019	-0.00034	-0.0001	1e-05	9e-05	5
25283	0.00014	4e-05	0.00017	0.00019	-0.00034	-0.0001	1e-05	9e-05	5
25284	0.00014	4e-05	0.00017	0.00019	-0.00034	-0.0001	1e-05	9e-05	5
25285	0.00014	4e-05	0.00017	0.00019	-0.00034	-0.0001	1e-05	9e-05	5
25286	0.00014	4e-05	0.00017	0.00019	-0.00034	-0.0001	1e-05	9e-05	5
25288	0.00014	4e-05	0.00017	0.00019	-0.00034	-0.0001	1e-05	9e-05	5
25289	0.00014	4e-05	0.00017	0.00019	-0.00034	-0.0001	1e-05	9e-05	5
25290	0.00014	4e-05	0.00017	0.00019	-0.00034	-0.0001	1e-05	9e-05	5
25291	0.00014	4e-05	0.00017	0.00019	-0.00034	-0.0001	1e-05	9e-05	5
25292	0.00014	4e-05	0.00017	0.00019	-0.00034	-0.0001	1e-05	9e-05	5
25293	0.00014	4e-05	0.00017	0.00019	-0.00034	-0.0001	1e-05	9e-05	5
25294	0.00014	4e-05	0.00017	0.00019	-0.00034	-0.0001	1e-05	9e-05	5
25295	0.00014	4e-05	0.00017	0.00019	-0.00034	-0.0001	1e-05	9e-05	5
25296	0.00014	4e-05	0.00017	0.00019	-0.00034	-0.0001	1e-05	9e-05	5
25297	0.00014	4e-05	0.00017	0.00019	-0.00034	-0.0001	1e-05	9e-05	5
25298	0.00014	4e-05	0.00017	0.00019	-0.00034	-0.0001	1e-05	9e-05	5
25299	0.00014	4e-05	0.00017	0.00019	-0.00034	-0.0001	1e-05	9e-05	5
25300	0.00014	4e-05	0.00017	0.00019	-0.00034	-0.0001	1e-05	9e-05	5
25301	0.00014	4e-05	0.00017	0.00019	-0.00034	-0.0001	1e-05	9e-05	5
25302	0.00014	4e-05	0.00017	0.00019	-0.00034	-0.0001	1e-05	9e-05	5
25303	0.00014	4e-05	0.00017	0.00019	-0.00034	-0.0001	1e-05	9e-05	5
25304	0.00014	4e-05	0.00017	0.00019	-0.00034	-0.0001	1e-05	9e-05	5
25305	0.00014	4e-05	0.00017	0.00019	-0.00034	-0.0001	1e-05	9e-05	5
25306	0.00014	4e-05	0.00017	0.00019	-0.00034	-0.0001	1e-05	9e-05	5
25307	0.00014	4e-05	0.00017	0.00019	-0.00034	-0.0001	1e-05	9e-05	5
25308	0.00014	4e-05	0.00017	0.00019	-0.00034	-0.0001	1e-05	9e-05	5
25309	4e-05	-4e-05	0.0001	0.00036	-1e-05	-8e-05	1e-05	1e-05	5
25310	6e-05	-7e-05	-0.00012	-0.00066	-0.00066	-0.00024	-8e-05	-1e-05	5
25311	6e-05	-7e-05	-0.00012	-0.00066	-0.00066	-0.00024	-8e-05	-1e-05	5
25312	6e-05	-7e-05	-0.00012	-0.00066	-0.00066	-0.00024	-8e-05	-1e-05	5
25313	6e-05	-7e-05	-0.00012	-0.00066	-0.00066	-0.00024	-8e-05	-1e-05	5
25314	6e-05	-7e-05	-0.00012	-0.00066	-0.00066	-0.00024	-8e-05	-1e-05	5
25315	0.00015	-8e-05	-0.00012	0.00074	0.00036	8e-05	4e-05	4e-05	5
25316	-2e-05	0.00029	0.00077	0.00013	-0.0004	0.0002	-2e-05	-2e-05	5
25317	-2e-05	0.00029	0.00077	0.00013	-0.0004	0.0002	-2e-05	-2e-05	5
25318	-2e-05	0.00029	0.00077	0.00013	-0.0004	0.0002	-2e-05	-2e-05	5
25319	-2e-05	0.00029	0.00077	0.00013	-0.0004	0.0002	-2e-05	-2e-05	5
25320	-2e-05	0.00029	0.00077	0.00013	-0.0004	0.0002	-2e-05	-2e-05	5
25321	-2e-05	0.00029	0.00077	0.00013	-0.0004	0.0002	-2e-05	-2e-05	5
25322	3e-05	4e-05	7e-05	-0.00017	-0.00019	-0.0002	-8e-05	-6e-05	5
25323	3e-05	4e-05	7e-05	-0.00017	-0.00019	-0.0002	-8e-05	-6e-05	5
25324	3e-05	4e-05	7e-05	-0.00017	-0.00019	-0.0002	-8e-05	-6e-05	5
25325	3e-05	4e-05	7e-05	-0.00017	-0.00019	-0.0002	-8e-05	-6e-05	5
25326	3e-05	4e-05	7e-05	-0.00017	-0.00019	-0.0002	-8e-05	-6e-05	5
25327	3e-05	4e-05	7e-05	-0.00017	-0.00019	-0.0002	-8e-05	-6e-05	5
25328	3e-05	4e-05	7e-05	-0.00017	-0.00019	-0.0002	-8e-05	-6e-05	5
25329	3e-05	4e-05	7e-05	-0.00017	-0.00019	-0.0002	-8e-05	-6e-05	5
25330	3e-05	4e-05	7e-05	-0.00017	-0.00019	-0.0002	-8e-05	-6e-05	5
25331	3e-05	4e-05	7e-05	-0.00017	-0.00019	-0.0002	-8e-05	-6e-05	5
25332	3e-05	4e-05	7e-05	-0.00017	-0.00019	-0.0002	-8e-05	-6e-05	5
25333	3e-05	4e-05	7e-05	-0.00017	-0.00019	-0.0002	-8e-05	-6e-05	5
25334	3e-05	4e-05	7e-05	-0.00017	-0.00019	-0.0002	-8e-05	-6e-05	5
25335	3e-05	4e-05	7e-05	-0.00017	-0.00019	-0.0002	-8e-05	-6e-05	5
25336	3e-05	4e-05	7e-05	-0.00017	-0.00019	-0.0002	-8e-05	-6e-05	5
25338	3e-05	4e-05	7e-05	-0.00017	-0.00019	-0.0002	-8e-05	-6e-05	5
25339	-8e-05	4e-05	0.00013	0.00065	0.00072	-0.00011	-7e-05	-4e-05	5
25340	3e-05	-4e-05	-0.00035	-0.00056	-0.00011	6e-05	2e-05	0	5
25341	3e-05	-4e-05	-0.00035	-0.00056	-0.00011	6e-05	2e-05	0	5
25342	3e-05	-4e-05	-0.00035	-0.00056	-0.00011	6e-05	2e-05	0	5
25343	3e-05	-4e-05	-0.00035	-0.00056	-0.00011	6e-05	2e-05	0	5
25344	3e-05	-4e-05	-0.00035	-0.00056	-0.00011	6e-05	2e-05	0	5
25345	3e-05	-4e-05	-0.00035	-0.00056	-0.00011	6e-05	2e-05	0	5
25346	3e-05	-4e-05	-0.00035	-0.00056	-0.00011	6e-05	2e-05	0	5
25347	3e-05	-4e-05	-0.00035	-0.00056	-0.00011	6e-05	2e-05	0	5
25348	3e-05	-4e-05	-0.00035	-0.00056	-0.00011	6e-05	2e-05	0	5
25349	3e-05	-4e-05	-0.00035	-0.00056	-0.00011	6e-05	2e-05	0	5
25350	3e-05	-4e-05	-0.00035	-0.00056	-0.00011	6e-05	2e-05	0	5
25351	3e-05	-4e-05	-0.00035	-0.00056	-0.00011	6e-05	2e-05	0	5
25352	3e-05	-4e-05	-0.00035	-0.00056	-0.00011	6e-05	2e-05	0	5
25353	3e-05	-4e-05	-0.00035	-0.00056	-0.00011	6e-05	2e-05	0	5
25354	3e-05	-4e-05	-0.00035	-0.00056	-0.00011	6e-05	2e-05	0	5
25355	3e-05	-4e-05	-0.00035	-0.00056	-0.00011	6e-05	2e-05	0	5
25356	3e-05	-4e-05	-0.00035	-0.00056	-0.00011	6e-05	2e-05	0	5
25357	3e-05	-4e-05	-0.00035	-0.00056	-0.00011	6e-05	2e-05	0	5
25358	3e-05	-4e-05	-0.00035	-0.00056	-0.00011	6e-05	2e-05	0	5
25359	3e-05	-4e-05	-0.00035	-0.00056	-0.00011	6e-05	2e-05	0	5
25360	3e-05	-4e-05	-0.00035	-0.00056	-0.00011	6e-05	2e-05	0	5
25361	0.00029	8e-05	-8e-05	-0.00034	0.00017	0.0001	4e-05	7e-05	5
25362	0.00029	8e-05	-8e-05	-0.00034	0.00017	0.0001	4e-05	7e-05	5
25363	-0.00071	-0.00012	-0.00044	-0.00059	-0.00085	-0.00022	-5e-05	-0.00013	5
25364	-0.00071	-0.00012	-0.00044	-0.00059	-0.00085	-0.00022	-5e-05	-0.00013	5
25365	-0.00071	-0.00012	-0.00044	-0.00059	-0.00085	-0.00022	-5e-05	-0.00013	5
25366	-0.00071	-0.00012	-0.00044	-0.00059	-0.00085	-0.00022	-5e-05	-0.00013	5
25367	-0.00071	-0.00012	-0.00044	-0.00059	-0.00085	-0.00022	-5e-05	-0.00013	5
25368	-0.00071	-0.00012	-0.00044	-0.00059	-0.00085	-0.00022	-5e-05	-0.00013	5
25369	-0.00071	-0.00012	-0.00044	-0.00059	-0.00085	-0.00022	-5e-05	-0.00013	5
25370	-0.00071	-0.00012	-0.00044	-0.00059	-0.00085	-0.00022	-5e-05	-0.00013	5
25371	-0.00071	-0.00012	-0.00044	-0.00059	-0.00085	-0.00022	-5e-05	-0.00013	5
25372	-0.00071	-0.00012	-0.00044	-0.00059	-0.00085	-0.00022	-5e-05	-0.00013	5
25373	-0.00071	-0.00012	-0.00044	-0.00059	-0.00085	-0.00022	-5e-05	-0.00013	5
25374	-0.00071	-0.00012	-0.00044	-0.00059	-0.00085	-0.00022	-5e-05	-0.00013	5
25375	0.00055	0.00024	0.00048	0.00039	-2e-05	0.00013	6e-05	0.00013	5
25376	-0.00017	2e-05	8e-05	-0.00024	-0.00026	3e-05	0	-8e-05	5
25377	-0.00017	2e-05	8e-05	-0.00024	-0.00026	3e-05	0	-8e-05	5
25378	-0.00017	2e-05	8e-05	-0.00024	-0.00026	3e-05	0	-8e-05	5
25379	-0.00017	2e-05	8e-05	-0.00024	-0.00026	3e-05	0	-8e-05	5
25380	-0.00017	2e-05	8e-05	-0.00024	-0.00026	3e-05	0	-8e-05	5
25381	-0.00017	2e-05	8e-05	-0.00024	-0.00026	3e-05	0	-8e-05	5
25382	3e-05	-0.00012	-0.00023	-0.00083	-0.00055	-0.00015	-7e-05	-4e-05	5
25383	3e-05	-0.00012	-0.00023	-0.00083	-0.00055	-0.00015	-7e-05	-4e-05	5
25384	3e-05	-0.00012	-0.00023	-0.00083	-0.00055	-0.00015	-7e-05	-4e-05	5
25385	3e-05	-0.00012	-0.00023	-0.00083	-0.00055	-0.00015	-7e-05	-4e-05	5
25386	3e-05	-0.00012	-0.00023	-0.00083	-0.00055	-0.00015	-7e-05	-4e-05	5
25388	3e-05	-0.00012	-0.00023	-0.00083	-0.00055	-0.00015	-7e-05	-4e-05	5
25389	3e-05	-0.00012	-0.00023	-0.00083	-0.00055	-0.00015	-7e-05	-4e-05	5
25390	3e-05	-0.00012	-0.00023	-0.00083	-0.00055	-0.00015	-7e-05	-4e-05	5
25391	3e-05	-0.00012	-0.00023	-0.00083	-0.00055	-0.00015	-7e-05	-4e-05	5
25392	3e-05	-0.00012	-0.00023	-0.00083	-0.00055	-0.00015	-7e-05	-4e-05	5
25393	3e-05	-0.00012	-0.00023	-0.00083	-0.00055	-0.00015	-7e-05	-4e-05	5
25394	3e-05	-0.00012	-0.00023	-0.00083	-0.00055	-0.00015	-7e-05	-4e-05	5
25395	3e-05	-0.00012	-0.00023	-0.00083	-0.00055	-0.00015	-7e-05	-4e-05	5
25396	3e-05	-0.00012	-0.00023	-0.00083	-0.00055	-0.00015	-7e-05	-4e-05	5
25397	3e-05	-0.00012	-0.00023	-0.00083	-0.00055	-0.00015	-7e-05	-4e-05	5
25398	-2e-05	2e-05	-3e-05	-0.00023	0.00012	3e-05	3e-05	1e-05	5
25399	6e-05	-2e-05	-2e-05	0.00027	0.00021	-0.00011	-7e-05	1e-05	5
25400	6e-05	0.00026	0.00044	-0.00056	-0.00073	-7e-05	9e-05	0.00013	5
25401	-1e-05	-0.00014	0.0002	0.00085	0.00075	0.00017	-2e-05	-8e-05	5
25402	-1e-05	-0.00014	0.0002	0.00085	0.00075	0.00017	-2e-05	-8e-05	5
25403	-1e-05	-0.00014	0.0002	0.00085	0.00075	0.00017	-2e-05	-8e-05	5
25404	-1e-05	-0.00014	0.0002	0.00085	0.00075	0.00017	-2e-05	-8e-05	5
25405	-1e-05	-0.00014	0.0002	0.00085	0.00075	0.00017	-2e-05	-8e-05	5
25406	-1e-05	-0.00014	0.0002	0.00085	0.00075	0.00017	-2e-05	-8e-05	5
25407	-1e-05	-0.00014	0.0002	0.00085	0.00075	0.00017	-2e-05	-8e-05	5
25408	-1e-05	-0.00014	0.0002	0.00085	0.00075	0.00017	-2e-05	-8e-05	5
25409	-1e-05	-0.00014	0.0002	0.00085	0.00075	0.00017	-2e-05	-8e-05	5
25410	-1e-05	-0.00014	0.0002	0.00085	0.00075	0.00017	-2e-05	-8e-05	5
25411	-1e-05	-0.00014	0.0002	0.00085	0.00075	0.00017	-2e-05	-8e-05	5
25412	-1e-05	-0.00014	0.0002	0.00085	0.00075	0.00017	-2e-05	-8e-05	5
25413	-1e-05	-0.00014	0.0002	0.00085	0.00075	0.00017	-2e-05	-8e-05	5
25414	-1e-05	-0.00014	0.0002	0.00085	0.00075	0.00017	-2e-05	-8e-05	5
25415	-1e-05	-0.00014	0.0002	0.00085	0.00075	0.00017	-2e-05	-8e-05	5
25416	-1e-05	-0.00014	0.0002	0.00085	0.00075	0.00017	-2e-05	-8e-05	5
25417	-1e-05	-0.00014	0.0002	0.00085	0.00075	0.00017	-2e-05	-8e-05	5
25418	-1e-05	-0.00014	0.0002	0.00085	0.00075	0.00017	-2e-05	-8e-05	5
25419	-1e-05	-0.00014	0.0002	0.00085	0.00075	0.00017	-2e-05	-8e-05	5
25420	-1e-05	-0.00014	0.0002	0.00085	0.00075	0.00017	-2e-05	-8e-05	5
25421	0.00014	-5e-05	-7e-05	0.00127	0.00052	0.00026	0.00013	0	5
25422	0.00014	-5e-05	-7e-05	0.00127	0.00052	0.00026	0.00013	0	5
25423	-2e-05	-0.0001	-0.00028	-0.00039	2e-05	-6e-05	-4e-05	0	5
25424	-2e-05	-0.0001	-0.00028	-0.00039	2e-05	-6e-05	-4e-05	0	5
25425	-2e-05	-0.0001	-0.00028	-0.00039	2e-05	-6e-05	-4e-05	0	5
25426	-2e-05	-0.0001	-0.00028	-0.00039	2e-05	-6e-05	-4e-05	0	5
25427	-2e-05	-0.0001	-0.00028	-0.00039	2e-05	-6e-05	-4e-05	0	5
25428	-2e-05	-0.0001	-0.00028	-0.00039	2e-05	-6e-05	-4e-05	0	5
25429	-2e-05	-0.0001	-0.00028	-0.00039	2e-05	-6e-05	-4e-05	0	5
25430	-2e-05	-0.0001	-0.00028	-0.00039	2e-05	-6e-05	-4e-05	0	5
25431	-2e-05	-0.0001	-0.00028	-0.00039	2e-05	-6e-05	-4e-05	0	5
25432	-2e-05	-0.0001	-0.00028	-0.00039	2e-05	-6e-05	-4e-05	0	5
25433	-2e-05	-0.0001	-0.00028	-0.00039	2e-05	-6e-05	-4e-05	0	5
25434	-2e-05	-0.0001	-0.00028	-0.00039	2e-05	-6e-05	-4e-05	0	5
25435	5e-05	-8e-05	2e-05	0.00057	6e-05	0.00018	2e-05	-5e-05	5
25436	5e-05	-8e-05	2e-05	0.00057	6e-05	0.00018	2e-05	-5e-05	5
25439	5e-05	-8e-05	2e-05	0.00057	6e-05	0.00018	2e-05	-5e-05	5
25440	5e-05	-8e-05	2e-05	0.00057	6e-05	0.00018	2e-05	-5e-05	5
25441	5e-05	-8e-05	2e-05	0.00057	6e-05	0.00018	2e-05	-5e-05	5
25442	5e-05	-8e-05	2e-05	0.00057	6e-05	0.00018	2e-05	-5e-05	5
25443	5e-05	-8e-05	2e-05	0.00057	6e-05	0.00018	2e-05	-5e-05	5
25444	0.00024	0.00024	0.00012	0.00031	-0.00042	-0.00034	-2e-05	6e-05	5
25445	0.00024	0.00024	0.00012	0.00031	-0.00042	-0.00034	-2e-05	6e-05	5
25446	0.00024	0.00024	0.00012	0.00031	-0.00042	-0.00034	-2e-05	6e-05	5
25447	0.00024	0.00024	0.00012	0.00031	-0.00042	-0.00034	-2e-05	6e-05	5
25448	0.00024	0.00024	0.00012	0.00031	-0.00042	-0.00034	-2e-05	6e-05	5
25449	0.00024	0.00024	0.00012	0.00031	-0.00042	-0.00034	-2e-05	6e-05	5
25450	0.00024	0.00024	0.00012	0.00031	-0.00042	-0.00034	-2e-05	6e-05	5
25451	0.00024	0.00024	0.00012	0.00031	-0.00042	-0.00034	-2e-05	6e-05	5
25452	0.00024	0.00024	0.00012	0.00031	-0.00042	-0.00034	-2e-05	6e-05	5
25453	0.00024	0.00024	0.00012	0.00031	-0.00042	-0.00034	-2e-05	6e-05	5
25454	0.00024	0.00024	0.00012	0.00031	-0.00042	-0.00034	-2e-05	6e-05	5
25455	0.00024	0.00024	0.00012	0.00031	-0.00042	-0.00034	-2e-05	6e-05	5
25456	0.00024	0.00024	0.00012	0.00031	-0.00042	-0.00034	-2e-05	6e-05	5
25457	0.00024	0.00024	0.00012	0.00031	-0.00042	-0.00034	-2e-05	6e-05	5
25458	0.00024	0.00024	0.00012	0.00031	-0.00042	-0.00034	-2e-05	6e-05	5
25459	4e-05	0.00011	-0.00036	-0.00128	-0.00053	2e-05	-1e-05	1e-05	5
25460	0.00052	0.00017	0.00015	0.0001	-0.0004	6e-05	5e-05	7e-05	5
25461	0.00052	0.00017	0.00015	0.0001	-0.0004	6e-05	5e-05	7e-05	5
25462	0.00052	0.00017	0.00015	0.0001	-0.0004	6e-05	5e-05	7e-05	5
25463	0.00052	0.00017	0.00015	0.0001	-0.0004	6e-05	5e-05	7e-05	5
25464	0.00052	0.00017	0.00015	0.0001	-0.0004	6e-05	5e-05	7e-05	5
25465	0.00052	0.00017	0.00015	0.0001	-0.0004	6e-05	5e-05	7e-05	5
25466	0.00052	0.00017	0.00015	0.0001	-0.0004	6e-05	5e-05	7e-05	5
25467	0.00052	0.00017	0.00015	0.0001	-0.0004	6e-05	5e-05	7e-05	5
25468	0.00052	0.00017	0.00015	0.0001	-0.0004	6e-05	5e-05	7e-05	5
25469	0.00052	0.00017	0.00015	0.0001	-0.0004	6e-05	5e-05	7e-05	5
25470	0.00052	0.00017	0.00015	0.0001	-0.0004	6e-05	5e-05	7e-05	5
25471	0.00052	0.00017	0.00015	0.0001	-0.0004	6e-05	5e-05	7e-05	5
25472	0.00052	0.00017	0.00015	0.0001	-0.0004	6e-05	5e-05	7e-05	5
25473	0.00052	0.00017	0.00015	0.0001	-0.0004	6e-05	5e-05	7e-05	5
25474	0.00052	0.00017	0.00015	0.0001	-0.0004	6e-05	5e-05	7e-05	5
25475	0.00052	0.00017	0.00015	0.0001	-0.0004	6e-05	5e-05	7e-05	5
25476	0.00052	0.00017	0.00015	0.0001	-0.0004	6e-05	5e-05	7e-05	5
25477	0.00052	0.00017	0.00015	0.0001	-0.0004	6e-05	5e-05	7e-05	5
25478	0.00052	0.00017	0.00015	0.0001	-0.0004	6e-05	5e-05	7e-05	5
25479	0.00052	0.00017	0.00015	0.0001	-0.0004	6e-05	5e-05	7e-05	5
25480	0.00052	0.00017	0.00015	0.0001	-0.0004	6e-05	5e-05	7e-05	5
25481	-0.00034	1e-05	0.00013	-0.0002	-7e-05	-2e-05	-3e-05	-3e-05	5
25482	-0.00034	1e-05	0.00013	-0.0002	-7e-05	-2e-05	-3e-05	-3e-05	5
25483	0.00017	-0.00013	1e-05	1e-05	8e-05	0.00016	3e-05	-1e-05	5
25484	0.00017	-0.00013	1e-05	1e-05	8e-05	0.00016	3e-05	-1e-05	5
25485	0.00017	-0.00013	1e-05	1e-05	8e-05	0.00016	3e-05	-1e-05	5
25486	0.00017	-0.00013	1e-05	1e-05	8e-05	0.00016	3e-05	-1e-05	5
25489	0.00017	-0.00013	1e-05	1e-05	8e-05	0.00016	3e-05	-1e-05	5
25490	0.00017	-0.00013	1e-05	1e-05	8e-05	0.00016	3e-05	-1e-05	5
25491	0.00017	-0.00013	1e-05	1e-05	8e-05	0.00016	3e-05	-1e-05	5
25492	0.00017	-0.00013	1e-05	1e-05	8e-05	0.00016	3e-05	-1e-05	5
25493	0.00017	-0.00013	1e-05	1e-05	8e-05	0.00016	3e-05	-1e-05	5
25494	0.00017	-0.00013	1e-05	1e-05	8e-05	0.00016	3e-05	-1e-05	5
25495	0.00027	-0.0001	5e-05	0.00017	-6e-05	0.0003	4e-05	2e-05	5
25496	0.00027	-0.0001	5e-05	0.00017	-6e-05	0.0003	4e-05	2e-05	5
25497	0.00027	-0.0001	5e-05	0.00017	-6e-05	0.0003	4e-05	2e-05	5
25498	0.00027	-0.0001	5e-05	0.00017	-6e-05	0.0003	4e-05	2e-05	5
25499	0.00027	-0.0001	5e-05	0.00017	-6e-05	0.0003	4e-05	2e-05	5
25500	0.00027	-0.0001	5e-05	0.00017	-6e-05	0.0003	4e-05	2e-05	5
25501	0.00027	-0.0001	5e-05	0.00017	-6e-05	0.0003	4e-05	2e-05	5
25502	0.00027	-0.0001	5e-05	0.00017	-6e-05	0.0003	4e-05	2e-05	5
25503	0.00027	-0.0001	5e-05	0.00017	-6e-05	0.0003	4e-05	2e-05	5
25504	1e-05	0.00022	0.00042	0.00033	-5e-05	0.00027	0.00011	7e-05	5
25505	1e-05	0.00022	0.00042	0.00033	-5e-05	0.00027	0.00011	7e-05	5
25506	1e-05	0.00022	0.00042	0.00033	-5e-05	0.00027	0.00011	7e-05	5
25507	1e-05	0.00022	0.00042	0.00033	-5e-05	0.00027	0.00011	7e-05	5
25508	1e-05	0.00022	0.00042	0.00033	-5e-05	0.00027	0.00011	7e-05	5
25509	1e-05	0.00022	0.00042	0.00033	-5e-05	0.00027	0.00011	7e-05	5
25510	1e-05	0.00022	0.00042	0.00033	-5e-05	0.00027	0.00011	7e-05	5
25511	1e-05	0.00022	0.00042	0.00033	-5e-05	0.00027	0.00011	7e-05	5
25512	1e-05	0.00022	0.00042	0.00033	-5e-05	0.00027	0.00011	7e-05	5
25513	1e-05	0.00022	0.00042	0.00033	-5e-05	0.00027	0.00011	7e-05	5
25514	1e-05	0.00022	0.00042	0.00033	-5e-05	0.00027	0.00011	7e-05	5
25515	1e-05	0.00022	0.00042	0.00033	-5e-05	0.00027	0.00011	7e-05	5
25516	1e-05	0.00022	0.00042	0.00033	-5e-05	0.00027	0.00011	7e-05	5
25517	1e-05	0.00022	0.00042	0.00033	-5e-05	0.00027	0.00011	7e-05	5
25518	1e-05	0.00022	0.00042	0.00033	-5e-05	0.00027	0.00011	7e-05	5
25519	0.00015	-7e-05	-0.00014	-0.0003	0.00054	-0.00021	-7e-05	-2e-05	5
25520	-0.00029	-0.00014	-9e-05	0.0005	-9e-05	1e-05	-1e-05	-6e-05	5
25521	-0.00029	-0.00014	-9e-05	0.0005	-9e-05	1e-05	-1e-05	-6e-05	5
25522	-0.00029	-0.00014	-9e-05	0.0005	-9e-05	1e-05	-1e-05	-6e-05	5
25523	-0.00029	-0.00014	-9e-05	0.0005	-9e-05	1e-05	-1e-05	-6e-05	5
25524	-0.00029	-0.00014	-9e-05	0.0005	-9e-05	1e-05	-1e-05	-6e-05	5
25525	-0.00029	-0.00014	-9e-05	0.0005	-9e-05	1e-05	-1e-05	-6e-05	5
25526	-0.00029	-0.00014	-9e-05	0.0005	-9e-05	1e-05	-1e-05	-6e-05	5
25527	-0.00029	-0.00014	-9e-05	0.0005	-9e-05	1e-05	-1e-05	-6e-05	5
25528	-0.00029	-0.00014	-9e-05	0.0005	-9e-05	1e-05	-1e-05	-6e-05	5
25529	-0.00029	-0.00014	-9e-05	0.0005	-9e-05	1e-05	-1e-05	-6e-05	5
25530	-0.00029	-0.00014	-9e-05	0.0005	-9e-05	1e-05	-1e-05	-6e-05	5
25531	-0.00029	-0.00014	-9e-05	0.0005	-9e-05	1e-05	-1e-05	-6e-05	5
25532	-0.00029	-0.00014	-9e-05	0.0005	-9e-05	1e-05	-1e-05	-6e-05	5
25533	-0.00029	-0.00014	-9e-05	0.0005	-9e-05	1e-05	-1e-05	-6e-05	5
25534	-0.00029	-0.00014	-9e-05	0.0005	-9e-05	1e-05	-1e-05	-6e-05	5
25535	-0.00029	-0.00014	-9e-05	0.0005	-9e-05	1e-05	-1e-05	-6e-05	5
25536	-0.00029	-0.00014	-9e-05	0.0005	-9e-05	1e-05	-1e-05	-6e-05	5
25538	-0.00029	-0.00014	-9e-05	0.0005	-9e-05	1e-05	-1e-05	-6e-05	5
25539	-0.00029	-0.00014	-9e-05	0.0005	-9e-05	1e-05	-1e-05	-6e-05	5
25540	-0.00029	-0.00014	-9e-05	0.0005	-9e-05	1e-05	-1e-05	-6e-05	5
25541	-0.00011	-1e-05	2e-05	0.00016	0.00037	-9e-05	-2e-05	-1e-05	5
25542	-0.00011	-1e-05	2e-05	0.00016	0.00037	-9e-05	-2e-05	-1e-05	5
25543	2e-05	0	-0.00016	-0.00023	-0.00021	-0.0001	-7e-05	8e-05	5
25544	2e-05	0	-0.00016	-0.00023	-0.00021	-0.0001	-7e-05	8e-05	5
25545	2e-05	0	-0.00016	-0.00023	-0.00021	-0.0001	-7e-05	8e-05	5
25546	2e-05	0	-0.00016	-0.00023	-0.00021	-0.0001	-7e-05	8e-05	5
25547	2e-05	0	-0.00016	-0.00023	-0.00021	-0.0001	-7e-05	8e-05	5
25548	2e-05	0	-0.00016	-0.00023	-0.00021	-0.0001	-7e-05	8e-05	5
25549	2e-05	0	-0.00016	-0.00023	-0.00021	-0.0001	-7e-05	8e-05	5
25550	2e-05	0	-0.00016	-0.00023	-0.00021	-0.0001	-7e-05	8e-05	5
25551	2e-05	0	-0.00016	-0.00023	-0.00021	-0.0001	-7e-05	8e-05	5
25552	2e-05	0	-0.00016	-0.00023	-0.00021	-0.0001	-7e-05	8e-05	5
25553	2e-05	0	-0.00016	-0.00023	-0.00021	-0.0001	-7e-05	8e-05	5
25554	2e-05	0	-0.00016	-0.00023	-0.00021	-0.0001	-7e-05	8e-05	5
25555	0.00022	0	9e-05	-0.00054	-4e-05	6e-05	-2e-05	1e-05	5
25556	0.00022	0	9e-05	-0.00054	-4e-05	6e-05	-2e-05	1e-05	5
25557	0.00022	0	9e-05	-0.00054	-4e-05	6e-05	-2e-05	1e-05	5
25558	0.00022	0	9e-05	-0.00054	-4e-05	6e-05	-2e-05	1e-05	5
25559	0.00022	0	9e-05	-0.00054	-4e-05	6e-05	-2e-05	1e-05	5
25560	0.00022	0	9e-05	-0.00054	-4e-05	6e-05	-2e-05	1e-05	5
25561	0.00022	0	9e-05	-0.00054	-4e-05	6e-05	-2e-05	1e-05	5
25562	0.00022	0	9e-05	-0.00054	-4e-05	6e-05	-2e-05	1e-05	5
25563	0.00022	0	9e-05	-0.00054	-4e-05	6e-05	-2e-05	1e-05	5
25564	-0.00017	7e-05	0.0001	-0.00015	-0.00018	-0.0003	-0.0001	-5e-05	5
25565	-0.00017	7e-05	0.0001	-0.00015	-0.00018	-0.0003	-0.0001	-5e-05	5
25566	-0.00017	7e-05	0.0001	-0.00015	-0.00018	-0.0003	-0.0001	-5e-05	5
25567	-0.00017	7e-05	0.0001	-0.00015	-0.00018	-0.0003	-0.0001	-5e-05	5
25568	-0.00017	7e-05	0.0001	-0.00015	-0.00018	-0.0003	-0.0001	-5e-05	5
25569	-0.00017	7e-05	0.0001	-0.00015	-0.00018	-0.0003	-0.0001	-5e-05	5
25570	-0.00017	7e-05	0.0001	-0.00015	-0.00018	-0.0003	-0.0001	-5e-05	5
25571	-0.00017	7e-05	0.0001	-0.00015	-0.00018	-0.0003	-0.0001	-5e-05	5
25572	-0.00017	7e-05	0.0001	-0.00015	-0.00018	-0.0003	-0.0001	-5e-05	5
25573	-0.00017	7e-05	0.0001	-0.00015	-0.00018	-0.0003	-0.0001	-5e-05	5
25574	-0.00017	7e-05	0.0001	-0.00015	-0.00018	-0.0003	-0.0001	-5e-05	5
25575	-0.00017	7e-05	0.0001	-0.00015	-0.00018	-0.0003	-0.0001	-5e-05	5
25576	-0.00017	7e-05	0.0001	-0.00015	-0.00018	-0.0003	-0.0001	-5e-05	5
25577	-0.00017	7e-05	0.0001	-0.00015	-0.00018	-0.0003	-0.0001	-5e-05	5
25578	-0.00017	7e-05	0.0001	-0.00015	-0.00018	-0.0003	-0.0001	-5e-05	5
25579	0.00023	0.00025	0.00034	0.0007	-0.00052	-0.00025	-6e-05	2e-05	5
25581	0.00023	0.00025	0.00034	0.0007	-0.00052	-0.00025	-6e-05	2e-05	5
25582	0.00023	0.00025	0.00034	0.0007	-0.00052	-0.00025	-6e-05	2e-05	5
25583	0.00023	0.00025	0.00034	0.0007	-0.00052	-0.00025	-6e-05	2e-05	5
25584	0.00023	0.00025	0.00034	0.0007	-0.00052	-0.00025	-6e-05	2e-05	5
25585	0.00023	0.00025	0.00034	0.0007	-0.00052	-0.00025	-6e-05	2e-05	5
25586	0.00038	2e-05	-0.00011	-0.00064	0.00017	-7e-05	-6e-05	0	5
25588	0.00038	2e-05	-0.00011	-0.00064	0.00017	-7e-05	-6e-05	0	5
25589	0.00038	2e-05	-0.00011	-0.00064	0.00017	-7e-05	-6e-05	0	5
25590	0.00038	2e-05	-0.00011	-0.00064	0.00017	-7e-05	-6e-05	0	5
25591	0.00038	2e-05	-0.00011	-0.00064	0.00017	-7e-05	-6e-05	0	5
25592	0.00038	2e-05	-0.00011	-0.00064	0.00017	-7e-05	-6e-05	0	5
25593	0.00038	2e-05	-0.00011	-0.00064	0.00017	-7e-05	-6e-05	0	5
25594	0.00038	2e-05	-0.00011	-0.00064	0.00017	-7e-05	-6e-05	0	5
25595	0.00038	2e-05	-0.00011	-0.00064	0.00017	-7e-05	-6e-05	0	5
25596	0.00038	2e-05	-0.00011	-0.00064	0.00017	-7e-05	-6e-05	0	5
25597	0.00038	2e-05	-0.00011	-0.00064	0.00017	-7e-05	-6e-05	0	5
25598	0.00038	2e-05	-0.00011	-0.00064	0.00017	-7e-05	-6e-05	0	5
25599	0.00038	2e-05	-0.00011	-0.00064	0.00017	-7e-05	-6e-05	0	5
25600	0.00038	2e-05	-0.00011	-0.00064	0.00017	-7e-05	-6e-05	0	5
25601	-0.00024	7e-05	0.00012	0.00065	0.00058	0.00038	0.00012	-1e-05	5
25602	-0.00029	-0.00016	-0.00012	0.00053	0.00019	-0.00012	-6e-05	-6e-05	5
25603	-0.00029	-0.00016	-0.00012	0.00053	0.00019	-0.00012	-6e-05	-6e-05	5
25605	-0.00029	-0.00016	-0.00012	0.00053	0.00019	-0.00012	-6e-05	-6e-05	5
25606	-0.00029	-0.00016	-0.00012	0.00053	0.00019	-0.00012	-6e-05	-6e-05	5
25607	-0.00029	-0.00016	-0.00012	0.00053	0.00019	-0.00012	-6e-05	-6e-05	5
25608	-0.00029	-0.00016	-0.00012	0.00053	0.00019	-0.00012	-6e-05	-6e-05	5
25609	-0.00029	-0.00016	-0.00012	0.00053	0.00019	-0.00012	-6e-05	-6e-05	5
25610	-0.00029	-0.00016	-0.00012	0.00053	0.00019	-0.00012	-6e-05	-6e-05	5
25611	-0.00029	-0.00016	-0.00012	0.00053	0.00019	-0.00012	-6e-05	-6e-05	5
25612	-0.00029	-0.00016	-0.00012	0.00053	0.00019	-0.00012	-6e-05	-6e-05	5
25613	-0.00029	-0.00016	-0.00012	0.00053	0.00019	-0.00012	-6e-05	-6e-05	5
25614	-0.00029	-0.00016	-0.00012	0.00053	0.00019	-0.00012	-6e-05	-6e-05	5
25615	-0.00029	-0.00016	-0.00012	0.00053	0.00019	-0.00012	-6e-05	-6e-05	5
25616	-9e-05	-0.00014	-0.00029	-0.00012	-0.00016	-0.00027	-8e-05	-6e-05	5
25617	-9e-05	-0.00014	-0.00029	-0.00012	-0.00016	-0.00027	-8e-05	-6e-05	5
25618	-9e-05	-0.00014	-0.00029	-0.00012	-0.00016	-0.00027	-8e-05	-6e-05	5
25619	-9e-05	-0.00014	-0.00029	-0.00012	-0.00016	-0.00027	-8e-05	-6e-05	5
25620	-9e-05	-0.00014	-0.00029	-0.00012	-0.00016	-0.00027	-8e-05	-6e-05	5
25621	-9e-05	-0.00014	-0.00029	-0.00012	-0.00016	-0.00027	-8e-05	-6e-05	5
25622	-9e-05	-0.00014	-0.00029	-0.00012	-0.00016	-0.00027	-8e-05	-6e-05	5
25623	-9e-05	-0.00014	-0.00029	-0.00012	-0.00016	-0.00027	-8e-05	-6e-05	5
25624	-7e-05	-0.00015	-5e-05	-0.00055	0.00044	-7e-05	-5e-05	-4e-05	5
25625	-7e-05	-0.00015	-5e-05	-0.00055	0.00044	-7e-05	-5e-05	-4e-05	5
25626	-7e-05	-0.00015	-5e-05	-0.00055	0.00044	-7e-05	-5e-05	-4e-05	5
25627	-7e-05	-0.00015	-5e-05	-0.00055	0.00044	-7e-05	-5e-05	-4e-05	5
25628	-7e-05	-0.00015	-5e-05	-0.00055	0.00044	-7e-05	-5e-05	-4e-05	5
25629	-7e-05	-0.00015	-5e-05	-0.00055	0.00044	-7e-05	-5e-05	-4e-05	5
25630	-7e-05	-0.00015	-5e-05	-0.00055	0.00044	-7e-05	-5e-05	-4e-05	5
25631	-7e-05	-0.00015	-5e-05	-0.00055	0.00044	-7e-05	-5e-05	-4e-05	5
25632	-7e-05	-0.00015	-5e-05	-0.00055	0.00044	-7e-05	-5e-05	-4e-05	5
25633	-7e-05	-0.00015	-5e-05	-0.00055	0.00044	-7e-05	-5e-05	-4e-05	5
25634	-7e-05	-0.00015	-5e-05	-0.00055	0.00044	-7e-05	-5e-05	-4e-05	5
25635	-7e-05	-0.00015	-5e-05	-0.00055	0.00044	-7e-05	-5e-05	-4e-05	5
25636	-7e-05	-0.00015	-5e-05	-0.00055	0.00044	-7e-05	-5e-05	-4e-05	5
25638	0.00014	0.00018	0.0005	0.00057	0.00019	0.00044	0.0001	5e-05	5
25640	4e-05	7e-05	0.00039	0.00127	0.00031	0.00017	-2e-05	-1e-05	5
25641	-0.00034	-0.00011	-0.00019	-0.00086	6e-05	-1e-05	3e-05	-0.00012	5
25642	-0.00034	-0.00011	-0.00019	-0.00086	6e-05	-1e-05	3e-05	-0.00012	5
25643	-0.00034	-0.00011	-0.00019	-0.00086	6e-05	-1e-05	3e-05	-0.00012	5
25644	-0.00034	-0.00011	-0.00019	-0.00086	6e-05	-1e-05	3e-05	-0.00012	5
25645	-0.00034	-0.00011	-0.00019	-0.00086	6e-05	-1e-05	3e-05	-0.00012	5
25646	-0.00034	-0.00011	-0.00019	-0.00086	6e-05	-1e-05	3e-05	-0.00012	5
25647	-0.00034	-0.00011	-0.00019	-0.00086	6e-05	-1e-05	3e-05	-0.00012	5
25648	-0.00034	-0.00011	-0.00019	-0.00086	6e-05	-1e-05	3e-05	-0.00012	5
25649	-0.00034	-0.00011	-0.00019	-0.00086	6e-05	-1e-05	3e-05	-0.00012	5
25650	-0.00034	-0.00011	-0.00019	-0.00086	6e-05	-1e-05	3e-05	-0.00012	5
25651	-0.00034	-0.00011	-0.00019	-0.00086	6e-05	-1e-05	3e-05	-0.00012	5
25652	-0.00034	-0.00011	-0.00019	-0.00086	6e-05	-1e-05	3e-05	-0.00012	5
25653	-0.00034	-0.00011	-0.00019	-0.00086	6e-05	-1e-05	3e-05	-0.00012	5
25654	-0.00034	-0.00011	-0.00019	-0.00086	6e-05	-1e-05	3e-05	-0.00012	5
25655	-0.00034	-0.00011	-0.00019	-0.00086	6e-05	-1e-05	3e-05	-0.00012	5
25656	-0.00034	-0.00011	-0.00019	-0.00086	6e-05	-1e-05	3e-05	-0.00012	5
25657	-0.00034	-0.00011	-0.00019	-0.00086	6e-05	-1e-05	3e-05	-0.00012	5
25658	-0.00034	-0.00011	-0.00019	-0.00086	6e-05	-1e-05	3e-05	-0.00012	5
25659	-0.00034	-0.00011	-0.00019	-0.00086	6e-05	-1e-05	3e-05	-0.00012	5
25660	-0.00034	-0.00011	-0.00019	-0.00086	6e-05	-1e-05	3e-05	-0.00012	5
25661	-0.00043	1e-05	0.00011	0.00029	0.00033	0.00039	0.00011	-2e-05	5
25662	-0.00043	1e-05	0.00011	0.00029	0.00033	0.00039	0.00011	-2e-05	5
25663	0.00048	-0.00013	-0.00031	-0.00071	-0.00034	-0.00015	0	9e-05	5
25664	0.00048	-0.00013	-0.00031	-0.00071	-0.00034	-0.00015	0	9e-05	5
25665	0.00048	-0.00013	-0.00031	-0.00071	-0.00034	-0.00015	0	9e-05	5
25666	0.00048	-0.00013	-0.00031	-0.00071	-0.00034	-0.00015	0	9e-05	5
25667	0.00048	-0.00013	-0.00031	-0.00071	-0.00034	-0.00015	0	9e-05	5
25668	0.00048	-0.00013	-0.00031	-0.00071	-0.00034	-0.00015	0	9e-05	5
25669	0.00048	-0.00013	-0.00031	-0.00071	-0.00034	-0.00015	0	9e-05	5
25670	0.00048	-0.00013	-0.00031	-0.00071	-0.00034	-0.00015	0	9e-05	5
25671	0.00048	-0.00013	-0.00031	-0.00071	-0.00034	-0.00015	0	9e-05	5
25672	0.00048	-0.00013	-0.00031	-0.00071	-0.00034	-0.00015	0	9e-05	5
25673	0.00048	-0.00013	-0.00031	-0.00071	-0.00034	-0.00015	0	9e-05	5
25674	0.00048	-0.00013	-0.00031	-0.00071	-0.00034	-0.00015	0	9e-05	5
25675	0.00013	-0.00021	-0.00022	-0.00057	-0.00069	-0.00028	-1e-05	-1e-05	5
25676	0.00013	-0.00021	-0.00022	-0.00057	-0.00069	-0.00028	-1e-05	-1e-05	5
25677	0.00013	-0.00021	-0.00022	-0.00057	-0.00069	-0.00028	-1e-05	-1e-05	5
25678	0.00013	-0.00021	-0.00022	-0.00057	-0.00069	-0.00028	-1e-05	-1e-05	5
25679	0.00013	-0.00021	-0.00022	-0.00057	-0.00069	-0.00028	-1e-05	-1e-05	5
25680	0.00013	-0.00021	-0.00022	-0.00057	-0.00069	-0.00028	-1e-05	-1e-05	5
25681	0.00013	-0.00021	-0.00022	-0.00057	-0.00069	-0.00028	-1e-05	-1e-05	5
25682	0.00013	-0.00021	-0.00022	-0.00057	-0.00069	-0.00028	-1e-05	-1e-05	5
25683	0.00013	-0.00021	-0.00022	-0.00057	-0.00069	-0.00028	-1e-05	-1e-05	5
25684	-0.00019	0.00014	0.00042	0.00072	0.00021	0.0001	2e-05	0	5
25685	-0.00019	0.00014	0.00042	0.00072	0.00021	0.0001	2e-05	0	5
25686	-0.00019	0.00014	0.00042	0.00072	0.00021	0.0001	2e-05	0	5
25688	-0.00019	0.00014	0.00042	0.00072	0.00021	0.0001	2e-05	0	5
25689	-0.00019	0.00014	0.00042	0.00072	0.00021	0.0001	2e-05	0	5
25690	-0.00019	0.00014	0.00042	0.00072	0.00021	0.0001	2e-05	0	5
25691	-0.00019	0.00014	0.00042	0.00072	0.00021	0.0001	2e-05	0	5
25692	-0.00019	0.00014	0.00042	0.00072	0.00021	0.0001	2e-05	0	5
25693	-0.00019	0.00014	0.00042	0.00072	0.00021	0.0001	2e-05	0	5
25694	-0.00019	0.00014	0.00042	0.00072	0.00021	0.0001	2e-05	0	5
25695	-0.00019	0.00014	0.00042	0.00072	0.00021	0.0001	2e-05	0	5
25696	-0.00019	0.00014	0.00042	0.00072	0.00021	0.0001	2e-05	0	5
25697	-0.00019	0.00014	0.00042	0.00072	0.00021	0.0001	2e-05	0	5
25698	-0.00019	0.00014	0.00042	0.00072	0.00021	0.0001	2e-05	0	5
25699	0.0004	-8e-05	-0.00018	-0.0007	-0.00054	-5e-05	-5e-05	0	5
25700	0.00039	0.00018	2e-05	3e-05	5e-05	-6e-05	-5e-05	0.00011	5
25701	0.00039	0.00018	2e-05	3e-05	5e-05	-6e-05	-5e-05	0.00011	5
25702	0.00039	0.00018	2e-05	3e-05	5e-05	-6e-05	-5e-05	0.00011	5
25703	0.00039	0.00018	2e-05	3e-05	5e-05	-6e-05	-5e-05	0.00011	5
25704	0.00039	0.00018	2e-05	3e-05	5e-05	-6e-05	-5e-05	0.00011	5
25705	0.00039	0.00018	2e-05	3e-05	5e-05	-6e-05	-5e-05	0.00011	5
25706	0.00039	0.00018	2e-05	3e-05	5e-05	-6e-05	-5e-05	0.00011	5
25707	0.00039	0.00018	2e-05	3e-05	5e-05	-6e-05	-5e-05	0.00011	5
25708	0.00039	0.00018	2e-05	3e-05	5e-05	-6e-05	-5e-05	0.00011	5
25709	0.00039	0.00018	2e-05	3e-05	5e-05	-6e-05	-5e-05	0.00011	5
25710	0.00039	0.00018	2e-05	3e-05	5e-05	-6e-05	-5e-05	0.00011	5
25711	0.00039	0.00018	2e-05	3e-05	5e-05	-6e-05	-5e-05	0.00011	5
25712	0.00039	0.00018	2e-05	3e-05	5e-05	-6e-05	-5e-05	0.00011	5
25713	0.00039	0.00018	2e-05	3e-05	5e-05	-6e-05	-5e-05	0.00011	5
25714	0.00039	0.00018	2e-05	3e-05	5e-05	-6e-05	-5e-05	0.00011	5
25715	0.00039	0.00018	2e-05	3e-05	5e-05	-6e-05	-5e-05	0.00011	5
25716	0.00039	0.00018	2e-05	3e-05	5e-05	-6e-05	-5e-05	0.00011	5
25717	0.00039	0.00018	2e-05	3e-05	5e-05	-6e-05	-5e-05	0.00011	5
25718	0.00039	0.00018	2e-05	3e-05	5e-05	-6e-05	-5e-05	0.00011	5
25719	0.00039	0.00018	2e-05	3e-05	5e-05	-6e-05	-5e-05	0.00011	5
25720	0.00039	0.00018	2e-05	3e-05	5e-05	-6e-05	-5e-05	0.00011	5
25721	-0.00042	-6e-05	0	-0.0001	-0.00021	-9e-05	-7e-05	-7e-05	5
25722	-0.00042	-6e-05	0	-0.0001	-0.00021	-9e-05	-7e-05	-7e-05	5
25723	0.00015	-8e-05	-0.00024	-0.00038	-0.00052	2e-05	3e-05	1e-05	5
25724	0.00015	-8e-05	-0.00024	-0.00038	-0.00052	2e-05	3e-05	1e-05	5
25725	0.00015	-8e-05	-0.00024	-0.00038	-0.00052	2e-05	3e-05	1e-05	5
25726	0.00015	-8e-05	-0.00024	-0.00038	-0.00052	2e-05	3e-05	1e-05	5
25727	0.00015	-8e-05	-0.00024	-0.00038	-0.00052	2e-05	3e-05	1e-05	5
25728	0.00015	-8e-05	-0.00024	-0.00038	-0.00052	2e-05	3e-05	1e-05	5
25729	0.00015	-8e-05	-0.00024	-0.00038	-0.00052	2e-05	3e-05	1e-05	5
25730	0.00015	-8e-05	-0.00024	-0.00038	-0.00052	2e-05	3e-05	1e-05	5
25731	0.00015	-8e-05	-0.00024	-0.00038	-0.00052	2e-05	3e-05	1e-05	5
25732	0.00015	-8e-05	-0.00024	-0.00038	-0.00052	2e-05	3e-05	1e-05	5
25733	0.00015	-8e-05	-0.00024	-0.00038	-0.00052	2e-05	3e-05	1e-05	5
25734	0.00015	-8e-05	-0.00024	-0.00038	-0.00052	2e-05	3e-05	1e-05	5
25735	-8e-05	-2e-05	8e-05	-0.00037	-0.00041	2e-05	5e-05	0	5
25736	-8e-05	-2e-05	8e-05	-0.00037	-0.00041	2e-05	5e-05	0	5
25738	-8e-05	-2e-05	8e-05	-0.00037	-0.00041	2e-05	5e-05	0	5
25739	-8e-05	-2e-05	8e-05	-0.00037	-0.00041	2e-05	5e-05	0	5
25740	-8e-05	-2e-05	8e-05	-0.00037	-0.00041	2e-05	5e-05	0	5
25741	-8e-05	-2e-05	8e-05	-0.00037	-0.00041	2e-05	5e-05	0	5
25742	-8e-05	-2e-05	8e-05	-0.00037	-0.00041	2e-05	5e-05	0	5
25743	-8e-05	-2e-05	8e-05	-0.00037	-0.00041	2e-05	5e-05	0	5
25744	-8e-05	0.0001	4e-05	0.00023	0	0.00012	-1e-05	0	5
25745	-8e-05	0.0001	4e-05	0.00023	0	0.00012	-1e-05	0	5
25746	-8e-05	0.0001	4e-05	0.00023	0	0.00012	-1e-05	0	5
25747	-8e-05	0.0001	4e-05	0.00023	0	0.00012	-1e-05	0	5
25748	-8e-05	0.0001	4e-05	0.00023	0	0.00012	-1e-05	0	5
25749	-8e-05	0.0001	4e-05	0.00023	0	0.00012	-1e-05	0	5
25750	-8e-05	0.0001	4e-05	0.00023	0	0.00012	-1e-05	0	5
25751	-8e-05	0.0001	4e-05	0.00023	0	0.00012	-1e-05	0	5
25752	-8e-05	0.0001	4e-05	0.00023	0	0.00012	-1e-05	0	5
25753	-8e-05	0.0001	4e-05	0.00023	0	0.00012	-1e-05	0	5
25754	-8e-05	0.0001	4e-05	0.00023	0	0.00012	-1e-05	0	5
25755	-8e-05	0.0001	4e-05	0.00023	0	0.00012	-1e-05	0	5
25756	-8e-05	0.0001	4e-05	0.00023	0	0.00012	-1e-05	0	5
25757	-8e-05	0.0001	4e-05	0.00023	0	0.00012	-1e-05	0	5
25758	6e-05	3e-05	0.00011	-0.00041	-4e-05	-8e-05	5e-05	4e-05	5
25759	-8e-05	-0.00012	-0.00021	0.00015	-5e-05	-6e-05	-7e-05	-6e-05	5
25760	0.00061	9e-05	0.00025	0.00035	0.00054	0.00018	1e-05	5e-05	5
25761	-0.00013	-5e-05	0.00012	-4e-05	-0.00016	-0.00012	-3e-05	1e-05	5
25762	-0.00013	-5e-05	0.00012	-4e-05	-0.00016	-0.00012	-3e-05	1e-05	5
25763	-0.00013	-5e-05	0.00012	-4e-05	-0.00016	-0.00012	-3e-05	1e-05	5
25764	-0.00013	-5e-05	0.00012	-4e-05	-0.00016	-0.00012	-3e-05	1e-05	5
25765	-0.00013	-5e-05	0.00012	-4e-05	-0.00016	-0.00012	-3e-05	1e-05	5
25766	-0.00013	-5e-05	0.00012	-4e-05	-0.00016	-0.00012	-3e-05	1e-05	5
25767	-0.00013	-5e-05	0.00012	-4e-05	-0.00016	-0.00012	-3e-05	1e-05	5
25768	-0.00013	-5e-05	0.00012	-4e-05	-0.00016	-0.00012	-3e-05	1e-05	5
25769	-0.00013	-5e-05	0.00012	-4e-05	-0.00016	-0.00012	-3e-05	1e-05	5
25770	-0.00013	-5e-05	0.00012	-4e-05	-0.00016	-0.00012	-3e-05	1e-05	5
25771	-0.00013	-5e-05	0.00012	-4e-05	-0.00016	-0.00012	-3e-05	1e-05	5
25772	-0.00013	-5e-05	0.00012	-4e-05	-0.00016	-0.00012	-3e-05	1e-05	5
25773	-0.00013	-5e-05	0.00012	-4e-05	-0.00016	-0.00012	-3e-05	1e-05	5
25774	-0.00013	-5e-05	0.00012	-4e-05	-0.00016	-0.00012	-3e-05	1e-05	5
25775	-0.00013	-5e-05	0.00012	-4e-05	-0.00016	-0.00012	-3e-05	1e-05	5
25776	-0.00013	-5e-05	0.00012	-4e-05	-0.00016	-0.00012	-3e-05	1e-05	5
25777	-0.00013	-5e-05	0.00012	-4e-05	-0.00016	-0.00012	-3e-05	1e-05	5
25778	-0.00013	-5e-05	0.00012	-4e-05	-0.00016	-0.00012	-3e-05	1e-05	5
25779	-0.00013	-5e-05	0.00012	-4e-05	-0.00016	-0.00012	-3e-05	1e-05	5
25780	-0.00013	-5e-05	0.00012	-4e-05	-0.00016	-0.00012	-3e-05	1e-05	5
25781	-0.00019	-0.00011	-0.00014	2e-05	0	-4e-05	-6e-05	-0.0001	5
25782	-0.00019	-0.00011	-0.00014	2e-05	0	-4e-05	-6e-05	-0.0001	5
25783	-0.00019	-0.00011	-0.00014	2e-05	0	-4e-05	-6e-05	-0.0001	5
25784	-0.00019	-0.00011	-0.00014	2e-05	0	-4e-05	-6e-05	-0.0001	5
25785	-0.00019	-0.00011	-0.00014	2e-05	0	-4e-05	-6e-05	-0.0001	5
25786	-0.00019	-0.00011	-0.00014	2e-05	0	-4e-05	-6e-05	-0.0001	5
25789	-0.00038	0.0002	0.00015	0.00091	0.0004	3e-05	-1e-05	-8e-05	5
25790	-0.00038	0.0002	0.00015	0.00091	0.0004	3e-05	-1e-05	-8e-05	5
25791	-0.00038	0.0002	0.00015	0.00091	0.0004	3e-05	-1e-05	-8e-05	5
25792	-0.00038	0.0002	0.00015	0.00091	0.0004	3e-05	-1e-05	-8e-05	5
25793	-0.00038	0.0002	0.00015	0.00091	0.0004	3e-05	-1e-05	-8e-05	5
25794	-0.00038	0.0002	0.00015	0.00091	0.0004	3e-05	-1e-05	-8e-05	5
25795	-4e-05	1e-05	5e-05	0.00078	0.00076	6e-05	2e-05	5e-05	5
25796	-4e-05	1e-05	5e-05	0.00078	0.00076	6e-05	2e-05	5e-05	5
25797	-4e-05	1e-05	5e-05	0.00078	0.00076	6e-05	2e-05	5e-05	5
25798	-4e-05	1e-05	5e-05	0.00078	0.00076	6e-05	2e-05	5e-05	5
25799	-4e-05	1e-05	5e-05	0.00078	0.00076	6e-05	2e-05	5e-05	5
25800	-4e-05	1e-05	5e-05	0.00078	0.00076	6e-05	2e-05	5e-05	5
25801	-4e-05	1e-05	5e-05	0.00078	0.00076	6e-05	2e-05	5e-05	5
25802	-4e-05	1e-05	5e-05	0.00078	0.00076	6e-05	2e-05	5e-05	5
25803	-4e-05	1e-05	5e-05	0.00078	0.00076	6e-05	2e-05	5e-05	5
25804	-4e-05	1e-05	5e-05	0.00078	0.00076	6e-05	2e-05	5e-05	5
25805	-4e-05	1e-05	5e-05	0.00078	0.00076	6e-05	2e-05	5e-05	5
25806	-4e-05	1e-05	5e-05	0.00078	0.00076	6e-05	2e-05	5e-05	5
25807	-4e-05	1e-05	5e-05	0.00078	0.00076	6e-05	2e-05	5e-05	5
25808	-4e-05	1e-05	5e-05	0.00078	0.00076	6e-05	2e-05	5e-05	5
25809	-4e-05	1e-05	5e-05	0.00078	0.00076	6e-05	2e-05	5e-05	5
25810	-4e-05	1e-05	5e-05	0.00078	0.00076	6e-05	2e-05	5e-05	5
25811	-3e-05	0.00012	0.00057	0.00068	0.00027	-4e-05	-2e-05	-4e-05	5
25813	-3e-05	0.00012	0.00057	0.00068	0.00027	-4e-05	-2e-05	-4e-05	5
25814	-3e-05	0.00012	0.00057	0.00068	0.00027	-4e-05	-2e-05	-4e-05	5
25815	-3e-05	0.00012	0.00057	0.00068	0.00027	-4e-05	-2e-05	-4e-05	5
25816	-3e-05	0.00012	0.00057	0.00068	0.00027	-4e-05	-2e-05	-4e-05	5
25817	-3e-05	0.00012	0.00057	0.00068	0.00027	-4e-05	-2e-05	-4e-05	5
25818	-3e-05	0.00012	0.00057	0.00068	0.00027	-4e-05	-2e-05	-4e-05	5
25819	0.00016	-9e-05	-0.0001	0.00012	0.00023	-8e-05	-4e-05	4e-05	5
25820	2e-05	1e-05	0.00014	-0.00025	0.00014	0.00022	0.00015	-1e-05	5
25821	2e-05	1e-05	0.00014	-0.00025	0.00014	0.00022	0.00015	-1e-05	5
25822	2e-05	1e-05	0.00014	-0.00025	0.00014	0.00022	0.00015	-1e-05	5
25823	2e-05	1e-05	0.00014	-0.00025	0.00014	0.00022	0.00015	-1e-05	5
25824	2e-05	1e-05	0.00014	-0.00025	0.00014	0.00022	0.00015	-1e-05	5
25825	2e-05	1e-05	0.00014	-0.00025	0.00014	0.00022	0.00015	-1e-05	5
25826	2e-05	1e-05	0.00014	-0.00025	0.00014	0.00022	0.00015	-1e-05	5
25827	2e-05	1e-05	0.00014	-0.00025	0.00014	0.00022	0.00015	-1e-05	5
25828	2e-05	1e-05	0.00014	-0.00025	0.00014	0.00022	0.00015	-1e-05	5
25829	2e-05	1e-05	0.00014	-0.00025	0.00014	0.00022	0.00015	-1e-05	5
25830	2e-05	1e-05	0.00014	-0.00025	0.00014	0.00022	0.00015	-1e-05	5
25831	2e-05	1e-05	0.00014	-0.00025	0.00014	0.00022	0.00015	-1e-05	5
25832	2e-05	1e-05	0.00014	-0.00025	0.00014	0.00022	0.00015	-1e-05	5
25833	2e-05	1e-05	0.00014	-0.00025	0.00014	0.00022	0.00015	-1e-05	5
25834	2e-05	1e-05	0.00014	-0.00025	0.00014	0.00022	0.00015	-1e-05	5
25835	2e-05	1e-05	0.00014	-0.00025	0.00014	0.00022	0.00015	-1e-05	5
25836	2e-05	1e-05	0.00014	-0.00025	0.00014	0.00022	0.00015	-1e-05	5
25838	2e-05	1e-05	0.00014	-0.00025	0.00014	0.00022	0.00015	-1e-05	5
25839	2e-05	1e-05	0.00014	-0.00025	0.00014	0.00022	0.00015	-1e-05	5
25840	2e-05	1e-05	0.00014	-0.00025	0.00014	0.00022	0.00015	-1e-05	5
25841	1e-05	-3e-05	7e-05	-7e-05	-5e-05	0	-2e-05	-1e-05	5
25842	1e-05	-3e-05	7e-05	-7e-05	-5e-05	0	-2e-05	-1e-05	5
25843	0	-9e-05	-0.00026	-0.00042	0.00049	2e-05	0	-4e-05	5
25844	0	-9e-05	-0.00026	-0.00042	0.00049	2e-05	0	-4e-05	5
25845	0	-9e-05	-0.00026	-0.00042	0.00049	2e-05	0	-4e-05	5
25846	0	-9e-05	-0.00026	-0.00042	0.00049	2e-05	0	-4e-05	5
25847	0	-9e-05	-0.00026	-0.00042	0.00049	2e-05	0	-4e-05	5
25848	0	-9e-05	-0.00026	-0.00042	0.00049	2e-05	0	-4e-05	5
25849	0	-9e-05	-0.00026	-0.00042	0.00049	2e-05	0	-4e-05	5
25850	0	-9e-05	-0.00026	-0.00042	0.00049	2e-05	0	-4e-05	5
25851	0	-9e-05	-0.00026	-0.00042	0.00049	2e-05	0	-4e-05	5
25852	0	-9e-05	-0.00026	-0.00042	0.00049	2e-05	0	-4e-05	5
25853	0	-9e-05	-0.00026	-0.00042	0.00049	2e-05	0	-4e-05	5
25854	0	-9e-05	-0.00026	-0.00042	0.00049	2e-05	0	-4e-05	5
25855	0	-9e-05	-0.00026	-0.00042	0.00049	2e-05	0	-4e-05	5
25856	0	-9e-05	-0.00026	-0.00042	0.00049	2e-05	0	-4e-05	5
25857	0	-9e-05	-0.00026	-0.00042	0.00049	2e-05	0	-4e-05	5
25858	0	-9e-05	-0.00026	-0.00042	0.00049	2e-05	0	-4e-05	5
25859	0	-9e-05	-0.00026	-0.00042	0.00049	2e-05	0	-4e-05	5
25860	0	-9e-05	-0.00026	-0.00042	0.00049	2e-05	0	-4e-05	5
25861	0	-9e-05	-0.00026	-0.00042	0.00049	2e-05	0	-4e-05	5
25862	0	-9e-05	-0.00026	-0.00042	0.00049	2e-05	0	-4e-05	5
25863	0	-9e-05	-0.00026	-0.00042	0.00049	2e-05	0	-4e-05	5
25864	0.00021	0.00014	0.0002	0.00035	0.00033	0.00014	9e-05	3e-05	5
25865	0.00021	0.00014	0.0002	0.00035	0.00033	0.00014	9e-05	3e-05	5
25866	-0.00028	-0.00019	-0.00031	6e-05	-0.00019	6e-05	-5e-05	-4e-05	5
25867	-0.00028	-0.00019	-0.00031	6e-05	-0.00019	6e-05	-5e-05	-4e-05	5
25868	-0.00028	-0.00019	-0.00031	6e-05	-0.00019	6e-05	-5e-05	-4e-05	5
54806	0.00024	6e-05	7e-05	0.00026	0.00017	0.00038	0.0001	0.00013	5
54807	0.00024	6e-05	7e-05	0.00026	0.00017	0.00038	0.0001	0.00013	5
54808	0.00024	6e-05	7e-05	0.00026	0.00017	0.00038	0.0001	0.00013	5
54809	0.00024	6e-05	7e-05	0.00026	0.00017	0.00038	0.0001	0.00013	5
54810	0.00024	6e-05	7e-05	0.00026	0.00017	0.00038	0.0001	0.00013	5
54811	0.00024	6e-05	7e-05	0.00026	0.00017	0.00038	0.0001	0.00013	5
54812	0.00024	6e-05	7e-05	0.00026	0.00017	0.00038	0.0001	0.00013	5
54813	0.00024	6e-05	7e-05	0.00026	0.00017	0.00038	0.0001	0.00013	5
54814	7e-05	0	-9e-05	-0.00014	-0.00012	6e-05	1e-05	0	5
54815	7e-05	0	-9e-05	-0.00014	-0.00012	6e-05	1e-05	0	5
54816	7e-05	0	-9e-05	-0.00014	-0.00012	6e-05	1e-05	0	5
54817	7e-05	0	-9e-05	-0.00014	-0.00012	6e-05	1e-05	0	5
54818	7e-05	0	-9e-05	-0.00014	-0.00012	6e-05	1e-05	0	5
54819	7e-05	0	-9e-05	-0.00014	-0.00012	6e-05	1e-05	0	5
54820	-7e-05	-5e-05	-7e-05	-8e-05	-0.00034	0.0001	4e-05	0	5
54821	0.00018	9e-05	7e-05	0.00012	-0.00016	-0.00019	1e-05	3e-05	5
54822	0.00018	9e-05	7e-05	0.00012	-0.00016	-0.00019	1e-05	3e-05	5
54823	0.00018	9e-05	7e-05	0.00012	-0.00016	-0.00019	1e-05	3e-05	5
54824	0.00018	9e-05	7e-05	0.00012	-0.00016	-0.00019	1e-05	3e-05	5
54825	0.00018	9e-05	7e-05	0.00012	-0.00016	-0.00019	1e-05	3e-05	5
54826	0.00018	9e-05	7e-05	0.00012	-0.00016	-0.00019	1e-05	3e-05	5
54827	0.00018	9e-05	7e-05	0.00012	-0.00016	-0.00019	1e-05	3e-05	5
54828	0.00018	9e-05	7e-05	0.00012	-0.00016	-0.00019	1e-05	3e-05	5
54829	0.00018	9e-05	7e-05	0.00012	-0.00016	-0.00019	1e-05	3e-05	5
54830	0.00018	9e-05	7e-05	0.00012	-0.00016	-0.00019	1e-05	3e-05	5
54831	0.00018	9e-05	7e-05	0.00012	-0.00016	-0.00019	1e-05	3e-05	5
54832	0.00018	9e-05	7e-05	0.00012	-0.00016	-0.00019	1e-05	3e-05	5
54833	0.00018	9e-05	7e-05	0.00012	-0.00016	-0.00019	1e-05	3e-05	5
54834	0.00018	9e-05	7e-05	0.00012	-0.00016	-0.00019	1e-05	3e-05	5
54835	0.00018	9e-05	7e-05	0.00012	-0.00016	-0.00019	1e-05	3e-05	5
54836	0.00018	9e-05	7e-05	0.00012	-0.00016	-0.00019	1e-05	3e-05	5
54839	0.00016	-5e-05	-0.00017	-0.0003	-0.00023	-0.0002	-4e-05	-0.0001	5
54840	0.00016	-5e-05	-0.00017	-0.0003	-0.00023	-0.0002	-4e-05	-0.0001	5
54841	0.00016	-5e-05	-0.00017	-0.0003	-0.00023	-0.0002	-4e-05	-0.0001	5
54842	0.00016	-5e-05	-0.00017	-0.0003	-0.00023	-0.0002	-4e-05	-0.0001	5
54843	0.00016	-5e-05	-0.00017	-0.0003	-0.00023	-0.0002	-4e-05	-0.0001	5
54844	0.00016	-5e-05	-0.00017	-0.0003	-0.00023	-0.0002	-4e-05	-0.0001	5
54845	0.00016	-5e-05	-0.00017	-0.0003	-0.00023	-0.0002	-4e-05	-0.0001	5
54846	0.00016	-5e-05	-0.00017	-0.0003	-0.00023	-0.0002	-4e-05	-0.0001	5
54847	0.00016	-5e-05	-0.00017	-0.0003	-0.00023	-0.0002	-4e-05	-0.0001	5
54848	0.00016	-5e-05	-0.00017	-0.0003	-0.00023	-0.0002	-4e-05	-0.0001	5
54849	0.00016	-5e-05	-0.00017	-0.0003	-0.00023	-0.0002	-4e-05	-0.0001	5
54850	0.00016	-5e-05	-0.00017	-0.0003	-0.00023	-0.0002	-4e-05	-0.0001	5
54851	0.00016	-5e-05	-0.00017	-0.0003	-0.00023	-0.0002	-4e-05	-0.0001	5
54852	0.00016	-5e-05	-0.00017	-0.0003	-0.00023	-0.0002	-4e-05	-0.0001	5
54853	0.00016	-5e-05	-0.00017	-0.0003	-0.00023	-0.0002	-4e-05	-0.0001	5
54854	0.00016	-5e-05	-0.00017	-0.0003	-0.00023	-0.0002	-4e-05	-0.0001	5
54855	0.00016	-5e-05	-0.00017	-0.0003	-0.00023	-0.0002	-4e-05	-0.0001	5
54856	0.00016	-5e-05	-0.00017	-0.0003	-0.00023	-0.0002	-4e-05	-0.0001	5
54857	0.00016	-5e-05	-0.00017	-0.0003	-0.00023	-0.0002	-4e-05	-0.0001	5
54858	0.00016	-5e-05	-0.00017	-0.0003	-0.00023	-0.0002	-4e-05	-0.0001	5
54859	0.00019	6e-05	3e-05	-0.00064	-0.00059	-9e-05	-1e-05	3e-05	5
54860	0.00019	6e-05	3e-05	-0.00064	-0.00059	-9e-05	-1e-05	3e-05	5
54861	9e-05	1e-05	6e-05	0.00016	0.0002	3e-05	4e-05	4e-05	5
54862	9e-05	1e-05	6e-05	0.00016	0.0002	3e-05	4e-05	4e-05	5
54863	9e-05	1e-05	6e-05	0.00016	0.0002	3e-05	4e-05	4e-05	5
54864	9e-05	1e-05	6e-05	0.00016	0.0002	3e-05	4e-05	4e-05	5
54865	9e-05	1e-05	6e-05	0.00016	0.0002	3e-05	4e-05	4e-05	5
54866	9e-05	1e-05	6e-05	0.00016	0.0002	3e-05	4e-05	4e-05	5
54867	9e-05	1e-05	6e-05	0.00016	0.0002	3e-05	4e-05	4e-05	5
54868	9e-05	1e-05	6e-05	0.00016	0.0002	3e-05	4e-05	4e-05	5
54869	9e-05	1e-05	6e-05	0.00016	0.0002	3e-05	4e-05	4e-05	5
54870	9e-05	1e-05	6e-05	0.00016	0.0002	3e-05	4e-05	4e-05	5
54871	9e-05	1e-05	6e-05	0.00016	0.0002	3e-05	4e-05	4e-05	5
54872	9e-05	1e-05	6e-05	0.00016	0.0002	3e-05	4e-05	4e-05	5
54873	9e-05	1e-05	6e-05	0.00016	0.0002	3e-05	4e-05	4e-05	5
54874	-0.00047	-1e-05	-4e-05	0.00033	0.00071	-4e-05	-8e-05	-0.0001	5
54875	-0.00047	-1e-05	-4e-05	0.00033	0.00071	-4e-05	-8e-05	-0.0001	5
54876	-0.00047	-1e-05	-4e-05	0.00033	0.00071	-4e-05	-8e-05	-0.0001	5
54877	-0.00047	-1e-05	-4e-05	0.00033	0.00071	-4e-05	-8e-05	-0.0001	5
54878	-0.00047	-1e-05	-4e-05	0.00033	0.00071	-4e-05	-8e-05	-0.0001	5
54879	-0.00047	-1e-05	-4e-05	0.00033	0.00071	-4e-05	-8e-05	-0.0001	5
54880	0.00011	0.00015	0.00017	0.00013	0.00027	0.00023	0.0001	4e-05	5
54881	5e-05	1e-05	0.0001	3e-05	-0.00027	0.00017	-1e-05	5e-05	5
54882	5e-05	1e-05	0.0001	3e-05	-0.00027	0.00017	-1e-05	5e-05	5
54883	5e-05	1e-05	0.0001	3e-05	-0.00027	0.00017	-1e-05	5e-05	5
54884	5e-05	1e-05	0.0001	3e-05	-0.00027	0.00017	-1e-05	5e-05	5
54885	5e-05	1e-05	0.0001	3e-05	-0.00027	0.00017	-1e-05	5e-05	5
54886	5e-05	1e-05	0.0001	3e-05	-0.00027	0.00017	-1e-05	5e-05	5
54888	5e-05	1e-05	0.0001	3e-05	-0.00027	0.00017	-1e-05	5e-05	5
54889	5e-05	1e-05	0.0001	3e-05	-0.00027	0.00017	-1e-05	5e-05	5
54890	5e-05	1e-05	0.0001	3e-05	-0.00027	0.00017	-1e-05	5e-05	5
54891	5e-05	1e-05	0.0001	3e-05	-0.00027	0.00017	-1e-05	5e-05	5
54892	5e-05	1e-05	0.0001	3e-05	-0.00027	0.00017	-1e-05	5e-05	5
54893	5e-05	1e-05	0.0001	3e-05	-0.00027	0.00017	-1e-05	5e-05	5
54894	5e-05	1e-05	0.0001	3e-05	-0.00027	0.00017	-1e-05	5e-05	5
54895	5e-05	1e-05	0.0001	3e-05	-0.00027	0.00017	-1e-05	5e-05	5
54896	5e-05	1e-05	0.0001	3e-05	-0.00027	0.00017	-1e-05	5e-05	5
54897	-0.00013	-0.00011	8e-05	0.00058	1e-05	0.0001	6e-05	-3e-05	5
54898	2e-05	0	-3e-05	-0.0001	1e-05	-2e-05	0	-3e-05	5
54899	-0.00024	3e-05	-1e-05	0.00019	0.00019	-2e-05	-2e-05	-5e-05	5
54900	-0.00024	3e-05	-1e-05	0.00019	0.00019	-2e-05	-2e-05	-5e-05	5
54901	-0.00024	3e-05	-1e-05	0.00019	0.00019	-2e-05	-2e-05	-5e-05	5
54902	-0.00024	3e-05	-1e-05	0.00019	0.00019	-2e-05	-2e-05	-5e-05	5
54903	-0.00024	3e-05	-1e-05	0.00019	0.00019	-2e-05	-2e-05	-5e-05	5
54904	-0.00024	3e-05	-1e-05	0.00019	0.00019	-2e-05	-2e-05	-5e-05	5
54905	-0.00024	3e-05	-1e-05	0.00019	0.00019	-2e-05	-2e-05	-5e-05	5
54906	-0.00024	3e-05	-1e-05	0.00019	0.00019	-2e-05	-2e-05	-5e-05	5
54907	-0.00024	3e-05	-1e-05	0.00019	0.00019	-2e-05	-2e-05	-5e-05	5
54908	-0.00024	3e-05	-1e-05	0.00019	0.00019	-2e-05	-2e-05	-5e-05	5
54909	-0.00024	3e-05	-1e-05	0.00019	0.00019	-2e-05	-2e-05	-5e-05	5
54910	-0.00024	3e-05	-1e-05	0.00019	0.00019	-2e-05	-2e-05	-5e-05	5
54911	-0.00024	3e-05	-1e-05	0.00019	0.00019	-2e-05	-2e-05	-5e-05	5
54912	-0.00024	3e-05	-1e-05	0.00019	0.00019	-2e-05	-2e-05	-5e-05	5
54913	-0.00024	3e-05	-1e-05	0.00019	0.00019	-2e-05	-2e-05	-5e-05	5
54914	-0.00024	3e-05	-1e-05	0.00019	0.00019	-2e-05	-2e-05	-5e-05	5
54915	-0.00024	3e-05	-1e-05	0.00019	0.00019	-2e-05	-2e-05	-5e-05	5
54916	-0.00024	3e-05	-1e-05	0.00019	0.00019	-2e-05	-2e-05	-5e-05	5
54917	-0.00024	3e-05	-1e-05	0.00019	0.00019	-2e-05	-2e-05	-5e-05	5
54918	-0.00024	3e-05	-1e-05	0.00019	0.00019	-2e-05	-2e-05	-5e-05	5
54919	0.00025	7e-05	0.00014	0.00013	0.00044	0.0002	8e-05	8e-05	5
54920	0.00025	7e-05	0.00014	0.00013	0.00044	0.0002	8e-05	8e-05	5
54921	0.00025	7e-05	0.00014	0.00013	0.00044	0.0002	8e-05	8e-05	5
54922	0.00025	7e-05	0.00014	0.00013	0.00044	0.0002	8e-05	8e-05	5
54923	0.00025	7e-05	0.00014	0.00013	0.00044	0.0002	8e-05	8e-05	5
54924	0.00025	7e-05	0.00014	0.00013	0.00044	0.0002	8e-05	8e-05	5
54925	2e-05	0.00012	0.00019	-0.00043	-0.00045	-0.0002	-5e-05	3e-05	5
54926	0.00015	-0.00011	-0.00027	9e-05	0.00066	0.00025	3e-05	-2e-05	5
54927	0.00015	-0.00011	-0.00027	9e-05	0.00066	0.00025	3e-05	-2e-05	5
54928	0.00015	-0.00011	-0.00027	9e-05	0.00066	0.00025	3e-05	-2e-05	5
54929	0.00015	-0.00011	-0.00027	9e-05	0.00066	0.00025	3e-05	-2e-05	5
54930	0.00015	-0.00011	-0.00027	9e-05	0.00066	0.00025	3e-05	-2e-05	5
54931	0.00015	-0.00011	-0.00027	9e-05	0.00066	0.00025	3e-05	-2e-05	5
54932	0.00015	-0.00011	-0.00027	9e-05	0.00066	0.00025	3e-05	-2e-05	5
54933	0.00015	-0.00011	-0.00027	9e-05	0.00066	0.00025	3e-05	-2e-05	5
54934	0	5e-05	-7e-05	-0.00011	9e-05	-2e-05	0	0	5
54935	0	5e-05	-7e-05	-0.00011	9e-05	-2e-05	0	0	5
54936	0	5e-05	-7e-05	-0.00011	9e-05	-2e-05	0	0	5
54938	0	5e-05	-7e-05	-0.00011	9e-05	-2e-05	0	0	5
54939	0	5e-05	-7e-05	-0.00011	9e-05	-2e-05	0	0	5
54940	0	5e-05	-7e-05	-0.00011	9e-05	-2e-05	0	0	5
54941	0	5e-05	-7e-05	-0.00011	9e-05	-2e-05	0	0	5
54942	0	5e-05	-7e-05	-0.00011	9e-05	-2e-05	0	0	5
54943	0	5e-05	-7e-05	-0.00011	9e-05	-2e-05	0	0	5
54944	0	5e-05	-7e-05	-0.00011	9e-05	-2e-05	0	0	5
54945	0	5e-05	-7e-05	-0.00011	9e-05	-2e-05	0	0	5
54946	0	5e-05	-7e-05	-0.00011	9e-05	-2e-05	0	0	5
54947	0	5e-05	-7e-05	-0.00011	9e-05	-2e-05	0	0	5
54948	0.0001	4e-05	0.00012	0.00023	0.0004	-8e-05	-3e-05	4e-05	5
54949	0.0001	4e-05	0.00012	0.00023	0.0004	-8e-05	-3e-05	4e-05	5
54950	0.0001	4e-05	0.00012	0.00023	0.0004	-8e-05	-3e-05	4e-05	5
54951	0.0001	4e-05	0.00012	0.00023	0.0004	-8e-05	-3e-05	4e-05	5
54952	0.0001	4e-05	0.00012	0.00023	0.0004	-8e-05	-3e-05	4e-05	5
54953	0.0001	4e-05	0.00012	0.00023	0.0004	-8e-05	-3e-05	4e-05	5
54954	0.0001	4e-05	0.00012	0.00023	0.0004	-8e-05	-3e-05	4e-05	5
54955	0.0001	4e-05	0.00012	0.00023	0.0004	-8e-05	-3e-05	4e-05	5
54956	0.0001	4e-05	0.00012	0.00023	0.0004	-8e-05	-3e-05	4e-05	5
54957	-0.00012	3e-05	-1e-05	0.00034	0.0001	0.00013	2e-05	0	5
54958	-2e-05	-8e-05	-0.00021	-0.00084	-0.00038	-0.00027	-0.0001	-3e-05	5
54959	-0.00026	-0.00017	-2e-05	0.00031	-3e-05	0.00011	2e-05	-2e-05	5
54960	-0.00026	-0.00017	-2e-05	0.00031	-3e-05	0.00011	2e-05	-2e-05	5
54961	-0.00026	-0.00017	-2e-05	0.00031	-3e-05	0.00011	2e-05	-2e-05	5
54962	-0.00026	-0.00017	-2e-05	0.00031	-3e-05	0.00011	2e-05	-2e-05	5
54963	-0.00026	-0.00017	-2e-05	0.00031	-3e-05	0.00011	2e-05	-2e-05	5
54964	-0.00026	-0.00017	-2e-05	0.00031	-3e-05	0.00011	2e-05	-2e-05	5
54965	-0.00026	-0.00017	-2e-05	0.00031	-3e-05	0.00011	2e-05	-2e-05	5
54966	-0.00026	-0.00017	-2e-05	0.00031	-3e-05	0.00011	2e-05	-2e-05	5
54967	-0.00026	-0.00017	-2e-05	0.00031	-3e-05	0.00011	2e-05	-2e-05	5
54968	-0.00026	-0.00017	-2e-05	0.00031	-3e-05	0.00011	2e-05	-2e-05	5
54969	-0.00026	-0.00017	-2e-05	0.00031	-3e-05	0.00011	2e-05	-2e-05	5
54970	-0.00026	-0.00017	-2e-05	0.00031	-3e-05	0.00011	2e-05	-2e-05	5
54971	-0.00026	-0.00017	-2e-05	0.00031	-3e-05	0.00011	2e-05	-2e-05	5
54972	-0.00026	-0.00017	-2e-05	0.00031	-3e-05	0.00011	2e-05	-2e-05	5
54973	-0.00026	-0.00017	-2e-05	0.00031	-3e-05	0.00011	2e-05	-2e-05	5
54974	-0.00026	-0.00017	-2e-05	0.00031	-3e-05	0.00011	2e-05	-2e-05	5
54975	-0.00026	-0.00017	-2e-05	0.00031	-3e-05	0.00011	2e-05	-2e-05	5
54976	-0.00026	-0.00017	-2e-05	0.00031	-3e-05	0.00011	2e-05	-2e-05	5
54977	-0.00026	-0.00017	-2e-05	0.00031	-3e-05	0.00011	2e-05	-2e-05	5
54978	-0.00026	-0.00017	-2e-05	0.00031	-3e-05	0.00011	2e-05	-2e-05	5
54979	0.00029	0.00016	2e-05	-0.00016	0.00012	1e-05	-1e-05	5e-05	5
54980	0.00029	0.00016	2e-05	-0.00016	0.00012	1e-05	-1e-05	5e-05	5
54981	-9e-05	6e-05	0	-6e-05	-0.00027	-0.00024	-0.00011	-1e-05	5
54982	-9e-05	6e-05	0	-6e-05	-0.00027	-0.00024	-0.00011	-1e-05	5
54983	-9e-05	6e-05	0	-6e-05	-0.00027	-0.00024	-0.00011	-1e-05	5
54984	-9e-05	6e-05	0	-6e-05	-0.00027	-0.00024	-0.00011	-1e-05	5
54985	-9e-05	6e-05	0	-6e-05	-0.00027	-0.00024	-0.00011	-1e-05	5
54986	-9e-05	6e-05	0	-6e-05	-0.00027	-0.00024	-0.00011	-1e-05	5
54988	-9e-05	6e-05	0	-6e-05	-0.00027	-0.00024	-0.00011	-1e-05	5
54989	-9e-05	6e-05	0	-6e-05	-0.00027	-0.00024	-0.00011	-1e-05	5
54990	-9e-05	6e-05	0	-6e-05	-0.00027	-0.00024	-0.00011	-1e-05	5
54991	-9e-05	6e-05	0	-6e-05	-0.00027	-0.00024	-0.00011	-1e-05	5
54992	-9e-05	6e-05	0	-6e-05	-0.00027	-0.00024	-0.00011	-1e-05	5
54993	-0.00014	1e-05	-5e-05	-0.00027	-4e-05	6e-05	-4e-05	-2e-05	5
54994	-0.00014	1e-05	-5e-05	-0.00027	-4e-05	6e-05	-4e-05	-2e-05	5
54995	-0.00014	1e-05	-5e-05	-0.00027	-4e-05	6e-05	-4e-05	-2e-05	5
54996	-0.00014	1e-05	-5e-05	-0.00027	-4e-05	6e-05	-4e-05	-2e-05	5
54997	-0.00014	1e-05	-5e-05	-0.00027	-4e-05	6e-05	-4e-05	-2e-05	5
54998	-0.00014	1e-05	-5e-05	-0.00027	-4e-05	6e-05	-4e-05	-2e-05	5
54999	-0.00014	1e-05	-5e-05	-0.00027	-4e-05	6e-05	-4e-05	-2e-05	5
55000	-0.00014	1e-05	-5e-05	-0.00027	-4e-05	6e-05	-4e-05	-2e-05	5
55001	-0.00014	1e-05	-5e-05	-0.00027	-4e-05	6e-05	-4e-05	-2e-05	5
55002	2e-05	4e-05	8e-05	4e-05	0.00028	-5e-05	-6e-05	-8e-05	5
55003	2e-05	4e-05	8e-05	4e-05	0.00028	-5e-05	-6e-05	-8e-05	5
55004	2e-05	4e-05	8e-05	4e-05	0.00028	-5e-05	-6e-05	-8e-05	5
55005	2e-05	4e-05	8e-05	4e-05	0.00028	-5e-05	-6e-05	-8e-05	5
55006	2e-05	4e-05	8e-05	4e-05	0.00028	-5e-05	-6e-05	-8e-05	5
55007	2e-05	4e-05	8e-05	4e-05	0.00028	-5e-05	-6e-05	-8e-05	5
55008	2e-05	4e-05	8e-05	4e-05	0.00028	-5e-05	-6e-05	-8e-05	5
55009	2e-05	4e-05	8e-05	4e-05	0.00028	-5e-05	-6e-05	-8e-05	5
55010	2e-05	4e-05	8e-05	4e-05	0.00028	-5e-05	-6e-05	-8e-05	5
55011	2e-05	4e-05	8e-05	4e-05	0.00028	-5e-05	-6e-05	-8e-05	5
55012	2e-05	4e-05	8e-05	4e-05	0.00028	-5e-05	-6e-05	-8e-05	5
55013	2e-05	4e-05	8e-05	4e-05	0.00028	-5e-05	-6e-05	-8e-05	5
55014	2e-05	4e-05	8e-05	4e-05	0.00028	-5e-05	-6e-05	-8e-05	5
55015	2e-05	4e-05	8e-05	4e-05	0.00028	-5e-05	-6e-05	-8e-05	5
55016	2e-05	4e-05	8e-05	4e-05	0.00028	-5e-05	-6e-05	-8e-05	5
55017	9e-05	-0.00016	-0.0003	-0.00033	0.00039	-4e-05	-1e-05	1e-05	5
55018	9e-05	-0.00016	-0.0003	-0.00033	0.00039	-4e-05	-1e-05	1e-05	5
55019	3e-05	2e-05	1e-05	-0.00029	-0.00098	-0.00021	-2e-05	1e-05	5
55020	3e-05	2e-05	1e-05	-0.00029	-0.00098	-0.00021	-2e-05	1e-05	5
55021	3e-05	2e-05	1e-05	-0.00029	-0.00098	-0.00021	-2e-05	1e-05	5
55022	3e-05	2e-05	1e-05	-0.00029	-0.00098	-0.00021	-2e-05	1e-05	5
55023	3e-05	2e-05	1e-05	-0.00029	-0.00098	-0.00021	-2e-05	1e-05	5
55024	3e-05	2e-05	1e-05	-0.00029	-0.00098	-0.00021	-2e-05	1e-05	5
55025	3e-05	2e-05	1e-05	-0.00029	-0.00098	-0.00021	-2e-05	1e-05	5
55026	3e-05	2e-05	1e-05	-0.00029	-0.00098	-0.00021	-2e-05	1e-05	5
55027	3e-05	2e-05	1e-05	-0.00029	-0.00098	-0.00021	-2e-05	1e-05	5
55028	3e-05	2e-05	1e-05	-0.00029	-0.00098	-0.00021	-2e-05	1e-05	5
55029	3e-05	2e-05	1e-05	-0.00029	-0.00098	-0.00021	-2e-05	1e-05	5
55030	3e-05	2e-05	1e-05	-0.00029	-0.00098	-0.00021	-2e-05	1e-05	5
55031	3e-05	2e-05	1e-05	-0.00029	-0.00098	-0.00021	-2e-05	1e-05	5
55033	3e-05	2e-05	1e-05	-0.00029	-0.00098	-0.00021	-2e-05	1e-05	5
55034	3e-05	2e-05	1e-05	-0.00029	-0.00098	-0.00021	-2e-05	1e-05	5
55035	3e-05	2e-05	1e-05	-0.00029	-0.00098	-0.00021	-2e-05	1e-05	5
55036	3e-05	2e-05	1e-05	-0.00029	-0.00098	-0.00021	-2e-05	1e-05	5
55038	3e-05	2e-05	1e-05	-0.00029	-0.00098	-0.00021	-2e-05	1e-05	5
55039	0.0002	0.00013	0.00036	0.00058	0.00075	0.00021	-1e-05	1e-05	5
55040	0	-7e-05	-0.00013	-0.00072	-0.00029	-0.00013	-3e-05	-3e-05	5
55041	0.00053	0.00013	5e-05	0.00011	0.00096	0.00017	5e-05	6e-05	5
55042	0.00053	0.00013	5e-05	0.00011	0.00096	0.00017	5e-05	6e-05	5
55043	0.00053	0.00013	5e-05	0.00011	0.00096	0.00017	5e-05	6e-05	5
55044	0.00053	0.00013	5e-05	0.00011	0.00096	0.00017	5e-05	6e-05	5
55045	0.00053	0.00013	5e-05	0.00011	0.00096	0.00017	5e-05	6e-05	5
55046	0.00053	0.00013	5e-05	0.00011	0.00096	0.00017	5e-05	6e-05	5
55047	0.00053	0.00013	5e-05	0.00011	0.00096	0.00017	5e-05	6e-05	5
55048	0.00053	0.00013	5e-05	0.00011	0.00096	0.00017	5e-05	6e-05	5
55049	0.00053	0.00013	5e-05	0.00011	0.00096	0.00017	5e-05	6e-05	5
55050	0.00053	0.00013	5e-05	0.00011	0.00096	0.00017	5e-05	6e-05	5
55051	0.00053	0.00013	5e-05	0.00011	0.00096	0.00017	5e-05	6e-05	5
55052	0.00053	0.00013	5e-05	0.00011	0.00096	0.00017	5e-05	6e-05	5
55053	-3e-05	0.00011	0.00023	0.00054	7e-05	0.00013	4e-05	-1e-05	5
55054	-3e-05	0.00011	0.00023	0.00054	7e-05	0.00013	4e-05	-1e-05	5
55055	-3e-05	0.00011	0.00023	0.00054	7e-05	0.00013	4e-05	-1e-05	5
55056	-3e-05	0.00011	0.00023	0.00054	7e-05	0.00013	4e-05	-1e-05	5
55057	-3e-05	0.00011	0.00023	0.00054	7e-05	0.00013	4e-05	-1e-05	5
55058	-3e-05	0.00011	0.00023	0.00054	7e-05	0.00013	4e-05	-1e-05	5
55059	-3e-05	0.00011	0.00023	0.00054	7e-05	0.00013	4e-05	-1e-05	5
55060	-3e-05	0.00011	0.00023	0.00054	7e-05	0.00013	4e-05	-1e-05	5
55061	-3e-05	0.00011	0.00023	0.00054	7e-05	0.00013	4e-05	-1e-05	5
55062	6e-05	0.0001	-0.0001	-0.00025	5e-05	-0.00021	-6e-05	5e-05	5
55063	6e-05	0.0001	-0.0001	-0.00025	5e-05	-0.00021	-6e-05	5e-05	5
55064	6e-05	0.0001	-0.0001	-0.00025	5e-05	-0.00021	-6e-05	5e-05	5
55065	6e-05	0.0001	-0.0001	-0.00025	5e-05	-0.00021	-6e-05	5e-05	5
55066	6e-05	0.0001	-0.0001	-0.00025	5e-05	-0.00021	-6e-05	5e-05	5
55067	6e-05	0.0001	-0.0001	-0.00025	5e-05	-0.00021	-6e-05	5e-05	5
55068	6e-05	0.0001	-0.0001	-0.00025	5e-05	-0.00021	-6e-05	5e-05	5
55069	6e-05	0.0001	-0.0001	-0.00025	5e-05	-0.00021	-6e-05	5e-05	5
