30246	-0.00022	-5e-05	-6e-05	-8e-05	-3e-05	-0.0005	-3e-05	-0.0003	6
30247	-0.00022	-5e-05	-6e-05	-8e-05	-3e-05	-0.0005	-3e-05	-0.0003	6
30248	-0.00022	-5e-05	-6e-05	-8e-05	-3e-05	-0.0005	-3e-05	-0.0003	6
30249	-0.00022	-5e-05	-6e-05	-8e-05	-3e-05	-0.0005	-3e-05	-0.0003	6
30250	-0.00022	-5e-05	-6e-05	-8e-05	-3e-05	-0.0005	-3e-05	-0.0003	6
30251	0.00019	4e-05	3e-05	0.00018	7e-05	0.00013	-0.00044	0.00021	6
30252	0.00019	4e-05	3e-05	0.00018	7e-05	0.00013	-0.00044	0.00021	6
30253	0.00013	-0.00013	-0.00011	0.00011	-0.00031	-0.00057	-0.00014	-1e-05	6
30254	0.00013	-0.00013	-0.00011	0.00011	-0.00031	-0.00057	-0.00014	-1e-05	6
30255	0.00013	-0.00013	-0.00011	0.00011	-0.00031	-0.00057	-0.00014	-1e-05	6
30256	0.00013	-0.00013	-0.00011	0.00011	-0.00031	-0.00057	-0.00014	-1e-05	6
30257	0.00013	-0.00013	-0.00011	0.00011	-0.00031	-0.00057	-0.00014	-1e-05	6
30258	0.00013	-0.00013	-0.00011	0.00011	-0.00031	-0.00057	-0.00014	-1e-05	6
30259	0.00013	-0.00013	-0.00011	0.00011	-0.00031	-0.00057	-0.00014	-1e-05	6
30260	0.00013	-0.00013	-0.00011	0.00011	-0.00031	-0.00057	-0.00014	-1e-05	6
30261	0.00013	-0.00013	-0.00011	0.00011	-0.00031	-0.00057	-0.00014	-1e-05	6
30262	0.00013	-0.00013	-0.00011	0.00011	-0.00031	-0.00057	-0.00014	-1e-05	6
30263	0.00013	-0.00013	-0.00011	0.00011	-0.00031	-0.00057	-0.00014	-1e-05	6
30264	0.00013	-0.00013	-0.00011	0.00011	-0.00031	-0.00057	-0.00014	-1e-05	6
30265	0.00013	-0.00013	-0.00011	0.00011	-0.00031	-0.00057	-0.00014	-1e-05	6
30266	0.00013	-0.00013	-0.00011	0.00011	-0.00031	-0.00057	-0.00014	-1e-05	6
30267	0.00013	-0.00013	-0.00011	0.00011	-0.00031	-0.00057	-0.00014	-1e-05	6
30268	0.00013	-0.00013	-0.00011	0.00011	-0.00031	-0.00057	-0.00014	-1e-05	6
30269	0.00013	-0.00013	-0.00011	0.00011	-0.00031	-0.00057	-0.00014	-1e-05	6
30270	0.00013	-0.00013	-0.00011	0.00011	-0.00031	-0.00057	-0.00014	-1e-05	6
30271	0.00013	-0.00013	-0.00011	0.00011	-0.00031	-0.00057	-0.00014	-1e-05	6
30272	0.00013	-0.00013	-0.00011	0.00011	-0.00031	-0.00057	-0.00014	-1e-05	6
30273	0.00013	-0.00013	-0.00011	0.00011	-0.00031	-0.00057	-0.00014	-1e-05	6
30274	4e-05	4e-05	5e-05	0.0001	-0.00068	-0.00029	2e-05	-0.00023	6
30275	-7e-05	-0.00017	-0.0002	-0.00024	0.00049	0	-1e-05	0	6
30276	0.00039	5e-05	5e-05	-8e-05	-0.00044	-8e-05	-1e-05	1e-05	6
30277	0.00039	5e-05	5e-05	-8e-05	-0.00044	-8e-05	-1e-05	1e-05	6
30278	0.00039	5e-05	5e-05	-8e-05	-0.00044	-8e-05	-1e-05	1e-05	6
30279	0.00039	5e-05	5e-05	-8e-05	-0.00044	-8e-05	-1e-05	1e-05	6
30280	0.00039	5e-05	5e-05	-8e-05	-0.00044	-8e-05	-1e-05	1e-05	6
30281	0.00039	5e-05	5e-05	-8e-05	-0.00044	-8e-05	-1e-05	1e-05	6
30282	0.00039	5e-05	5e-05	-8e-05	-0.00044	-8e-05	-1e-05	1e-05	6
30283	0.00039	5e-05	5e-05	-8e-05	-0.00044	-8e-05	-1e-05	1e-05	6
30284	0.00039	5e-05	5e-05	-8e-05	-0.00044	-8e-05	-1e-05	1e-05	6
30285	0.00039	5e-05	5e-05	-8e-05	-0.00044	-8e-05	-1e-05	1e-05	6
30286	0.00039	5e-05	5e-05	-8e-05	-0.00044	-8e-05	-1e-05	1e-05	6
30289	7e-05	2e-05	-1e-05	8e-05	0.00083	-0.00052	2e-05	-5e-05	6
30290	7e-05	2e-05	-1e-05	8e-05	0.00083	-0.00052	2e-05	-5e-05	6
30291	7e-05	2e-05	-1e-05	8e-05	0.00083	-0.00052	2e-05	-5e-05	6
30292	7e-05	2e-05	-1e-05	8e-05	0.00083	-0.00052	2e-05	-5e-05	6
30293	7e-05	2e-05	-1e-05	8e-05	0.00083	-0.00052	2e-05	-5e-05	6
30294	7e-05	2e-05	-1e-05	8e-05	0.00083	-0.00052	2e-05	-5e-05	6
30295	7e-05	2e-05	-1e-05	8e-05	0.00083	-0.00052	2e-05	-5e-05	6
30296	7e-05	2e-05	-1e-05	8e-05	0.00083	-0.00052	2e-05	-5e-05	6
30297	7e-05	2e-05	-1e-05	8e-05	0.00083	-0.00052	2e-05	-5e-05	6
30298	7e-05	2e-05	-1e-05	8e-05	0.00083	-0.00052	2e-05	-5e-05	6
30299	7e-05	2e-05	-1e-05	8e-05	0.00083	-0.00052	2e-05	-5e-05	6
30300	7e-05	2e-05	-1e-05	8e-05	0.00083	-0.00052	2e-05	-5e-05	6
30301	7e-05	2e-05	-1e-05	8e-05	0.00083	-0.00052	2e-05	-5e-05	6
30302	7e-05	2e-05	-1e-05	8e-05	0.00083	-0.00052	2e-05	-5e-05	6
30303	-0.00012	5e-05	1e-05	-0.00011	-0.00101	-0.00077	-0.00045	-1e-05	6
30304	-0.00019	-5e-05	-2e-05	-7e-05	0.00027	-7e-05	0.0001	0.00011	6
30305	-0.00019	-5e-05	-2e-05	-7e-05	0.00027	-7e-05	0.0001	0.00011	6
30306	-0.00019	-5e-05	-2e-05	-7e-05	0.00027	-7e-05	0.0001	0.00011	6
30307	-0.00019	-5e-05	-2e-05	-7e-05	0.00027	-7e-05	0.0001	0.00011	6
30308	-0.00019	-5e-05	-2e-05	-7e-05	0.00027	-7e-05	0.0001	0.00011	6
30309	-0.00019	-5e-05	-2e-05	-7e-05	0.00027	-7e-05	0.0001	0.00011	6
30310	-0.00019	-5e-05	-2e-05	-7e-05	0.00027	-7e-05	0.0001	0.00011	6
30311	-1e-05	0	1e-05	-6e-05	-6e-05	0.00016	8e-05	0.00044	6
30312	0.0001	4e-05	5e-05	-9e-05	-0.00057	0.00025	-0.00012	-0.0006	6
30313	0.0001	4e-05	5e-05	-9e-05	-0.00057	0.00025	-0.00012	-0.0006	6
30314	0.0001	4e-05	5e-05	-9e-05	-0.00057	0.00025	-0.00012	-0.0006	6
30315	0.0001	4e-05	5e-05	-9e-05	-0.00057	0.00025	-0.00012	-0.0006	6
30316	0.0001	4e-05	5e-05	-9e-05	-0.00057	0.00025	-0.00012	-0.0006	6
30317	0.0001	4e-05	5e-05	-9e-05	-0.00057	0.00025	-0.00012	-0.0006	6
30318	0.0001	4e-05	5e-05	-9e-05	-0.00057	0.00025	-0.00012	-0.0006	6
30319	0.0001	4e-05	5e-05	-9e-05	-0.00057	0.00025	-0.00012	-0.0006	6
30320	0.0001	4e-05	5e-05	-9e-05	-0.00057	0.00025	-0.00012	-0.0006	6
30321	0.0001	4e-05	5e-05	-9e-05	-0.00057	0.00025	-0.00012	-0.0006	6
30322	0.0001	4e-05	5e-05	-9e-05	-0.00057	0.00025	-0.00012	-0.0006	6
30323	0.0001	4e-05	5e-05	-9e-05	-0.00057	0.00025	-0.00012	-0.0006	6
30324	0.0001	4e-05	5e-05	-9e-05	-0.00057	0.00025	-0.00012	-0.0006	6
30325	0.0001	4e-05	5e-05	-9e-05	-0.00057	0.00025	-0.00012	-0.0006	6
30326	0.0001	4e-05	5e-05	-9e-05	-0.00057	0.00025	-0.00012	-0.0006	6
30327	0.0001	4e-05	5e-05	-9e-05	-0.00057	0.00025	-0.00012	-0.0006	6
30328	0.0001	4e-05	5e-05	-9e-05	-0.00057	0.00025	-0.00012	-0.0006	6
30329	0.0001	4e-05	5e-05	-9e-05	-0.00057	0.00025	-0.00012	-0.0006	6
30330	0.0001	4e-05	5e-05	-9e-05	-0.00057	0.00025	-0.00012	-0.0006	6
30331	0.0001	4e-05	5e-05	-9e-05	-0.00057	0.00025	-0.00012	-0.0006	6
30332	0.0001	4e-05	5e-05	-9e-05	-0.00057	0.00025	-0.00012	-0.0006	6
30333	1e-05	8e-05	2e-05	9e-05	1e-05	0.00074	0.00032	0.00051	6
30334	8e-05	4e-05	5e-05	2e-05	-5e-05	0.00049	0.00047	-1e-05	6
30335	-0.00018	-6e-05	-3e-05	1e-05	0.00034	0.0002	3e-05	-0.00072	6
30336	-0.00018	-6e-05	-3e-05	1e-05	0.00034	0.0002	3e-05	-0.00072	6
30338	-0.00018	-6e-05	-3e-05	1e-05	0.00034	0.0002	3e-05	-0.00072	6
30339	-0.00018	-6e-05	-3e-05	1e-05	0.00034	0.0002	3e-05	-0.00072	6
30340	-0.00018	-6e-05	-3e-05	1e-05	0.00034	0.0002	3e-05	-0.00072	6
30341	-0.00018	-6e-05	-3e-05	1e-05	0.00034	0.0002	3e-05	-0.00072	6
30342	-0.00018	-6e-05	-3e-05	1e-05	0.00034	0.0002	3e-05	-0.00072	6
30343	-0.00018	-6e-05	-3e-05	1e-05	0.00034	0.0002	3e-05	-0.00072	6
30344	-0.00018	-6e-05	-3e-05	1e-05	0.00034	0.0002	3e-05	-0.00072	6
30345	-0.00018	-6e-05	-3e-05	1e-05	0.00034	0.0002	3e-05	-0.00072	6
30346	-0.00018	-6e-05	-3e-05	1e-05	0.00034	0.0002	3e-05	-0.00072	6
30347	6e-05	-4e-05	-6e-05	-0.00029	-0.00035	-0.00027	-0.00035	-0.00113	6
30348	0.0002	2e-05	-1e-05	0.00011	4e-05	5e-05	-6e-05	0.00029	6
30349	0.0002	2e-05	-1e-05	0.00011	4e-05	5e-05	-6e-05	0.00029	6
30350	0.0002	2e-05	-1e-05	0.00011	4e-05	5e-05	-6e-05	0.00029	6
30351	0.0002	2e-05	-1e-05	0.00011	4e-05	5e-05	-6e-05	0.00029	6
30352	0.0002	2e-05	-1e-05	0.00011	4e-05	5e-05	-6e-05	0.00029	6
30353	0.0002	2e-05	-1e-05	0.00011	4e-05	5e-05	-6e-05	0.00029	6
30354	0.0002	2e-05	-1e-05	0.00011	4e-05	5e-05	-6e-05	0.00029	6
30355	0.0002	2e-05	-1e-05	0.00011	4e-05	5e-05	-6e-05	0.00029	6
30356	0.0001	3e-05	2e-05	-9e-05	-4e-05	-9e-05	0.00037	0.00059	6
30357	0.0001	3e-05	2e-05	-9e-05	-4e-05	-9e-05	0.00037	0.00059	6
30358	0.0001	3e-05	2e-05	-9e-05	-4e-05	-9e-05	0.00037	0.00059	6
30359	0.0001	3e-05	2e-05	-9e-05	-4e-05	-9e-05	0.00037	0.00059	6
30360	0.0001	3e-05	2e-05	-9e-05	-4e-05	-9e-05	0.00037	0.00059	6
30361	0.0001	3e-05	2e-05	-9e-05	-4e-05	-9e-05	0.00037	0.00059	6
30362	0.0001	3e-05	2e-05	-9e-05	-4e-05	-9e-05	0.00037	0.00059	6
30363	0.0001	3e-05	2e-05	-9e-05	-4e-05	-9e-05	0.00037	0.00059	6
30364	0.0001	3e-05	2e-05	-9e-05	-4e-05	-9e-05	0.00037	0.00059	6
30365	0.0001	3e-05	2e-05	-9e-05	-4e-05	-9e-05	0.00037	0.00059	6
30366	0.0001	3e-05	2e-05	-9e-05	-4e-05	-9e-05	0.00037	0.00059	6
30367	0.0001	3e-05	2e-05	-9e-05	-4e-05	-9e-05	0.00037	0.00059	6
30368	0.0001	3e-05	2e-05	-9e-05	-4e-05	-9e-05	0.00037	0.00059	6
30369	0.0001	3e-05	2e-05	-9e-05	-4e-05	-9e-05	0.00037	0.00059	6
30370	0.0001	3e-05	2e-05	-9e-05	-4e-05	-9e-05	0.00037	0.00059	6
30371	0.00012	9e-05	5e-05	-0.00014	-0.00047	-0.00032	-8e-05	0.00091	6
30372	-0.00025	-0.00011	-7e-05	9e-05	0.00083	0.00014	-0.00016	-0.00098	6
30373	-4e-05	3e-05	-1e-05	-4e-05	-0.00032	0.00012	-3e-05	4e-05	6
30374	-4e-05	3e-05	-1e-05	-4e-05	-0.00032	0.00012	-3e-05	4e-05	6
30375	-4e-05	3e-05	-1e-05	-4e-05	-0.00032	0.00012	-3e-05	4e-05	6
30376	-4e-05	3e-05	-1e-05	-4e-05	-0.00032	0.00012	-3e-05	4e-05	6
30377	-4e-05	3e-05	-1e-05	-4e-05	-0.00032	0.00012	-3e-05	4e-05	6
30378	-4e-05	3e-05	-1e-05	-4e-05	-0.00032	0.00012	-3e-05	4e-05	6
30379	-4e-05	3e-05	-1e-05	-4e-05	-0.00032	0.00012	-3e-05	4e-05	6
30380	-4e-05	3e-05	-1e-05	-4e-05	-0.00032	0.00012	-3e-05	4e-05	6
30381	-4e-05	3e-05	-1e-05	-4e-05	-0.00032	0.00012	-3e-05	4e-05	6
30382	-4e-05	3e-05	-1e-05	-4e-05	-0.00032	0.00012	-3e-05	4e-05	6
30383	-4e-05	3e-05	-1e-05	-4e-05	-0.00032	0.00012	-3e-05	4e-05	6
30384	-4e-05	3e-05	-1e-05	-4e-05	-0.00032	0.00012	-3e-05	4e-05	6
30385	-4e-05	3e-05	-1e-05	-4e-05	-0.00032	0.00012	-3e-05	4e-05	6
30386	-4e-05	3e-05	-1e-05	-4e-05	-0.00032	0.00012	-3e-05	4e-05	6
30388	-4e-05	3e-05	-1e-05	-4e-05	-0.00032	0.00012	-3e-05	4e-05	6
30389	-4e-05	3e-05	-1e-05	-4e-05	-0.00032	0.00012	-3e-05	4e-05	6
30390	-4e-05	3e-05	-1e-05	-4e-05	-0.00032	0.00012	-3e-05	4e-05	6
30391	-4e-05	3e-05	-1e-05	-4e-05	-0.00032	0.00012	-3e-05	4e-05	6
30392	-4e-05	3e-05	-1e-05	-4e-05	-0.00032	0.00012	-3e-05	4e-05	6
30393	0.00018	-3e-05	-6e-05	-0.0002	-9e-05	-0.00014	-7e-05	0.00013	6
30394	5e-05	5e-05	5e-05	3e-05	-0.0005	-0.00018	0.00018	-0.00019	6
30395	-6e-05	-0.00013	-0.00012	0.00012	0.00059	-0.00038	-0.00032	0	6
30396	-6e-05	-0.00013	-0.00012	0.00012	0.00059	-0.00038	-0.00032	0	6
30397	-6e-05	-0.00013	-0.00012	0.00012	0.00059	-0.00038	-0.00032	0	6
30398	-6e-05	-0.00013	-0.00012	0.00012	0.00059	-0.00038	-0.00032	0	6
30399	-6e-05	-0.00013	-0.00012	0.00012	0.00059	-0.00038	-0.00032	0	6
30400	-6e-05	-0.00013	-0.00012	0.00012	0.00059	-0.00038	-0.00032	0	6
30401	-6e-05	-0.00013	-0.00012	0.00012	0.00059	-0.00038	-0.00032	0	6
30402	-6e-05	-0.00013	-0.00012	0.00012	0.00059	-0.00038	-0.00032	0	6
30403	-6e-05	-0.00013	-0.00012	0.00012	0.00059	-0.00038	-0.00032	0	6
30404	-6e-05	-0.00013	-0.00012	0.00012	0.00059	-0.00038	-0.00032	0	6
30405	-6e-05	-0.00013	-0.00012	0.00012	0.00059	-0.00038	-0.00032	0	6
30406	-6e-05	-0.00013	-0.00012	0.00012	0.00059	-0.00038	-0.00032	0	6
30407	-6e-05	-0.00013	-0.00012	0.00012	0.00059	-0.00038	-0.00032	0	6
30408	-6e-05	-0.00013	-0.00012	0.00012	0.00059	-0.00038	-0.00032	0	6
30409	-6e-05	-0.00013	-0.00012	0.00012	0.00059	-0.00038	-0.00032	0	6
30410	-6e-05	-0.00013	-0.00012	0.00012	0.00059	-0.00038	-0.00032	0	6
30411	-6e-05	-0.00013	-0.00012	0.00012	0.00059	-0.00038	-0.00032	0	6
30412	-6e-05	-0.00013	-0.00012	0.00012	0.00059	-0.00038	-0.00032	0	6
30413	-6e-05	-0.00013	-0.00012	0.00012	0.00059	-0.00038	-0.00032	0	6
30414	-6e-05	-0.00013	-0.00012	0.00012	0.00059	-0.00038	-0.00032	0	6
30415	-6e-05	-0.00013	-0.00012	0.00012	0.00059	-0.00038	-0.00032	0	6
30416	-6e-05	-0.00013	-0.00012	0.00012	0.00059	-0.00038	-0.00032	0	6
30417	-6e-05	-0.00013	-0.00012	0.00012	0.00059	-0.00038	-0.00032	0	6
30418	-6e-05	-0.00013	-0.00012	0.00012	0.00059	-0.00038	-0.00032	0	6
30419	-6e-05	-0.00013	-0.00012	0.00012	0.00059	-0.00038	-0.00032	0	6
30420	-6e-05	-0.00013	-0.00012	0.00012	0.00059	-0.00038	-0.00032	0	6
30421	-6e-05	-0.00013	-0.00012	0.00012	0.00059	-0.00038	-0.00032	0	6
30422	-6e-05	-0.00013	-0.00012	0.00012	0.00059	-0.00038	-0.00032	0	6
30423	0	8e-05	0.00011	0.00011	0.00046	0.00072	0.00019	0.00014	6
30424	-0.00017	-3e-05	-3e-05	-6e-05	-2e-05	0.00066	-9e-05	-0.00038	6
30425	2e-05	-3e-05	0	0.00035	0.00101	1e-05	7e-05	-2e-05	6
30426	2e-05	-3e-05	0	0.00035	0.00101	1e-05	7e-05	-2e-05	6
30427	2e-05	-3e-05	0	0.00035	0.00101	1e-05	7e-05	-2e-05	6
30428	2e-05	-3e-05	0	0.00035	0.00101	1e-05	7e-05	-2e-05	6
30429	2e-05	-3e-05	0	0.00035	0.00101	1e-05	7e-05	-2e-05	6
30430	2e-05	-3e-05	0	0.00035	0.00101	1e-05	7e-05	-2e-05	6
30431	-0.00014	-5e-05	-6e-05	-0.00022	-0.0005	-0.00039	0.00019	0.00029	6
30432	0.00014	8e-05	0.0001	4e-05	7e-05	0.00014	-5e-05	1e-05	6
30433	0.00014	8e-05	0.0001	4e-05	7e-05	0.00014	-5e-05	1e-05	6
30434	0.00014	8e-05	0.0001	4e-05	7e-05	0.00014	-5e-05	1e-05	6
30435	0.00014	8e-05	0.0001	4e-05	7e-05	0.00014	-5e-05	1e-05	6
30436	0.00014	8e-05	0.0001	4e-05	7e-05	0.00014	-5e-05	1e-05	6
30438	0.00014	8e-05	0.0001	4e-05	7e-05	0.00014	-5e-05	1e-05	6
30439	0.00014	8e-05	0.0001	4e-05	7e-05	0.00014	-5e-05	1e-05	6
30440	0.00014	8e-05	0.0001	4e-05	7e-05	0.00014	-5e-05	1e-05	6
30441	0.00014	8e-05	0.0001	4e-05	7e-05	0.00014	-5e-05	1e-05	6
30442	0.00014	8e-05	0.0001	4e-05	7e-05	0.00014	-5e-05	1e-05	6
30443	0.00014	8e-05	0.0001	4e-05	7e-05	0.00014	-5e-05	1e-05	6
30444	0.00014	8e-05	0.0001	4e-05	7e-05	0.00014	-5e-05	1e-05	6
30445	0.00014	8e-05	0.0001	4e-05	7e-05	0.00014	-5e-05	1e-05	6
30446	0.00014	8e-05	0.0001	4e-05	7e-05	0.00014	-5e-05	1e-05	6
30447	0.00014	8e-05	0.0001	4e-05	7e-05	0.00014	-5e-05	1e-05	6
30448	0.00014	8e-05	0.0001	4e-05	7e-05	0.00014	-5e-05	1e-05	6
30449	0.00014	8e-05	0.0001	4e-05	7e-05	0.00014	-5e-05	1e-05	6
30450	0.00014	8e-05	0.0001	4e-05	7e-05	0.00014	-5e-05	1e-05	6
30451	0.00014	8e-05	0.0001	4e-05	7e-05	0.00014	-5e-05	1e-05	6
30452	0.00014	8e-05	0.0001	4e-05	7e-05	0.00014	-5e-05	1e-05	6
30453	3e-05	-3e-05	-5e-05	-5e-05	-0.00028	-0.00011	0.00051	0.00024	6
30454	0.00014	0	2e-05	8e-05	-1e-05	-3e-05	-2e-05	-0.00022	6
30455	0.00014	-3e-05	-4e-05	-0.00011	-0.00027	-0.00048	-3e-05	0.00065	6
30456	0.00014	-3e-05	-4e-05	-0.00011	-0.00027	-0.00048	-3e-05	0.00065	6
30457	0.00014	-3e-05	-4e-05	-0.00011	-0.00027	-0.00048	-3e-05	0.00065	6
30458	0.00014	-3e-05	-4e-05	-0.00011	-0.00027	-0.00048	-3e-05	0.00065	6
30459	0.00014	-3e-05	-4e-05	-0.00011	-0.00027	-0.00048	-3e-05	0.00065	6
30460	0.00014	-3e-05	-4e-05	-0.00011	-0.00027	-0.00048	-3e-05	0.00065	6
30461	0.00014	-3e-05	-4e-05	-0.00011	-0.00027	-0.00048	-3e-05	0.00065	6
30462	0.00014	-3e-05	-4e-05	-0.00011	-0.00027	-0.00048	-3e-05	0.00065	6
30463	0.00014	-3e-05	-4e-05	-0.00011	-0.00027	-0.00048	-3e-05	0.00065	6
30464	0.00014	-3e-05	-4e-05	-0.00011	-0.00027	-0.00048	-3e-05	0.00065	6
30465	0.00014	-3e-05	-4e-05	-0.00011	-0.00027	-0.00048	-3e-05	0.00065	6
30466	0.00014	-3e-05	-4e-05	-0.00011	-0.00027	-0.00048	-3e-05	0.00065	6
30467	0	-5e-05	-3e-05	0.00022	0.00061	0.0001	0	-0.00038	6
30468	0	-5e-05	-3e-05	0.00022	0.00061	0.0001	0	-0.00038	6
30469	0	-5e-05	-3e-05	0.00022	0.00061	0.0001	0	-0.00038	6
30470	0	-5e-05	-3e-05	0.00022	0.00061	0.0001	0	-0.00038	6
30471	0	-5e-05	-3e-05	0.00022	0.00061	0.0001	0	-0.00038	6
30472	0	-5e-05	-3e-05	0.00022	0.00061	0.0001	0	-0.00038	6
30473	0	-5e-05	-3e-05	0.00022	0.00061	0.0001	0	-0.00038	6
30474	0	-5e-05	-3e-05	0.00022	0.00061	0.0001	0	-0.00038	6
30475	0	-5e-05	-3e-05	0.00022	0.00061	0.0001	0	-0.00038	6
30476	-2e-05	0	1e-05	0.0003	0.00027	0.00063	-7e-05	0.00042	6
30477	-2e-05	0	1e-05	0.0003	0.00027	0.00063	-7e-05	0.00042	6
30478	-2e-05	0	1e-05	0.0003	0.00027	0.00063	-7e-05	0.00042	6
30479	-2e-05	0	1e-05	0.0003	0.00027	0.00063	-7e-05	0.00042	6
30480	-2e-05	0	1e-05	0.0003	0.00027	0.00063	-7e-05	0.00042	6
30481	-2e-05	0	1e-05	0.0003	0.00027	0.00063	-7e-05	0.00042	6
30482	-2e-05	0	1e-05	0.0003	0.00027	0.00063	-7e-05	0.00042	6
30483	-2e-05	0	1e-05	0.0003	0.00027	0.00063	-7e-05	0.00042	6
30484	-2e-05	0	1e-05	0.0003	0.00027	0.00063	-7e-05	0.00042	6
30485	-2e-05	0	1e-05	0.0003	0.00027	0.00063	-7e-05	0.00042	6
30486	-2e-05	0	1e-05	0.0003	0.00027	0.00063	-7e-05	0.00042	6
30488	-2e-05	0	1e-05	0.0003	0.00027	0.00063	-7e-05	0.00042	6
30489	-2e-05	0	1e-05	0.0003	0.00027	0.00063	-7e-05	0.00042	6
30490	-2e-05	0	1e-05	0.0003	0.00027	0.00063	-7e-05	0.00042	6
30491	-2e-05	0	1e-05	0.0003	0.00027	0.00063	-7e-05	0.00042	6
30492	-2e-05	0	1e-05	0.0003	0.00027	0.00063	-7e-05	0.00042	6
30493	-2e-05	0	1e-05	0.0003	0.00027	0.00063	-7e-05	0.00042	6
30494	-2e-05	0	1e-05	0.0003	0.00027	0.00063	-7e-05	0.00042	6
30495	-2e-05	0	1e-05	0.0003	0.00027	0.00063	-7e-05	0.00042	6
30496	-2e-05	0	1e-05	0.0003	0.00027	0.00063	-7e-05	0.00042	6
30497	-2e-05	0	1e-05	0.0003	0.00027	0.00063	-7e-05	0.00042	6
30498	0.00018	-2e-05	-7e-05	-0.00024	-0.00075	-0.00087	-6e-05	0.00018	6
30499	-0.00019	-8e-05	-7e-05	6e-05	-0.00021	-3e-05	8e-05	-1e-05	6
30500	-0.00019	-8e-05	-7e-05	6e-05	-0.00021	-3e-05	8e-05	-1e-05	6
30501	-0.00019	-8e-05	-7e-05	6e-05	-0.00021	-3e-05	8e-05	-1e-05	6
30502	-0.00019	-8e-05	-7e-05	6e-05	-0.00021	-3e-05	8e-05	-1e-05	6
30503	-0.00019	-8e-05	-7e-05	6e-05	-0.00021	-3e-05	8e-05	-1e-05	6
30504	-0.00019	-8e-05	-7e-05	6e-05	-0.00021	-3e-05	8e-05	-1e-05	6
30505	-0.00019	-8e-05	-7e-05	6e-05	-0.00021	-3e-05	8e-05	-1e-05	6
30506	-0.00018	5e-05	8e-05	0.00014	0.00052	7e-05	0.00018	0.00057	6
30507	-0.00018	5e-05	8e-05	0.00014	0.00052	7e-05	0.00018	0.00057	6
30508	-0.00018	5e-05	8e-05	0.00014	0.00052	7e-05	0.00018	0.00057	6
30509	-0.00018	5e-05	8e-05	0.00014	0.00052	7e-05	0.00018	0.00057	6
30510	-0.00018	5e-05	8e-05	0.00014	0.00052	7e-05	0.00018	0.00057	6
30511	-0.00018	5e-05	8e-05	0.00014	0.00052	7e-05	0.00018	0.00057	6
30512	-0.00018	5e-05	8e-05	0.00014	0.00052	7e-05	0.00018	0.00057	6
30513	9e-05	-0.00011	-0.00013	-0.00021	-0.00026	-0.00024	-0.00017	0.00018	6
30514	0.00015	3e-05	-1e-05	-0.00017	-0.00059	-0.00054	2e-05	5e-05	6
30515	0.00015	3e-05	-1e-05	-0.00017	-0.00059	-0.00054	2e-05	5e-05	6
30516	-0.0003	2e-05	1e-05	5e-05	-0.00047	0.00043	6e-05	0.00053	6
30517	-0.0003	2e-05	1e-05	5e-05	-0.00047	0.00043	6e-05	0.00053	6
30518	-0.0003	2e-05	1e-05	5e-05	-0.00047	0.00043	6e-05	0.00053	6
30519	-0.0003	2e-05	1e-05	5e-05	-0.00047	0.00043	6e-05	0.00053	6
30520	-0.0003	2e-05	1e-05	5e-05	-0.00047	0.00043	6e-05	0.00053	6
30521	-0.0003	2e-05	1e-05	5e-05	-0.00047	0.00043	6e-05	0.00053	6
30522	-0.0003	2e-05	1e-05	5e-05	-0.00047	0.00043	6e-05	0.00053	6
30523	-0.0003	2e-05	1e-05	5e-05	-0.00047	0.00043	6e-05	0.00053	6
30524	-0.0003	2e-05	1e-05	5e-05	-0.00047	0.00043	6e-05	0.00053	6
30525	-0.0003	2e-05	1e-05	5e-05	-0.00047	0.00043	6e-05	0.00053	6
30526	-0.0003	2e-05	1e-05	5e-05	-0.00047	0.00043	6e-05	0.00053	6
30527	-0.00025	-7e-05	-3e-05	1e-05	-0.0002	0.00033	5e-05	-0.0003	6
30528	-0.00025	-7e-05	-3e-05	1e-05	-0.0002	0.00033	5e-05	-0.0003	6
30529	-0.00025	-7e-05	-3e-05	1e-05	-0.0002	0.00033	5e-05	-0.0003	6
30530	-0.00025	-7e-05	-3e-05	1e-05	-0.0002	0.00033	5e-05	-0.0003	6
30531	-0.00025	-7e-05	-3e-05	1e-05	-0.0002	0.00033	5e-05	-0.0003	6
30532	-0.00025	-7e-05	-3e-05	1e-05	-0.0002	0.00033	5e-05	-0.0003	6
30533	-0.00025	-7e-05	-3e-05	1e-05	-0.0002	0.00033	5e-05	-0.0003	6
30534	-0.00025	-7e-05	-3e-05	1e-05	-0.0002	0.00033	5e-05	-0.0003	6
30535	-0.00025	-7e-05	-3e-05	1e-05	-0.0002	0.00033	5e-05	-0.0003	6
30536	0.00011	-2e-05	-6e-05	-0.00024	-0.00082	0.00101	0.00014	-0.00023	6
30538	0.00011	-2e-05	-6e-05	-0.00024	-0.00082	0.00101	0.00014	-0.00023	6
30539	0.00011	-2e-05	-6e-05	-0.00024	-0.00082	0.00101	0.00014	-0.00023	6
30540	0.00011	-2e-05	-6e-05	-0.00024	-0.00082	0.00101	0.00014	-0.00023	6
30541	0.00011	-2e-05	-6e-05	-0.00024	-0.00082	0.00101	0.00014	-0.00023	6
30542	0.00011	-2e-05	-6e-05	-0.00024	-0.00082	0.00101	0.00014	-0.00023	6
30543	0.00011	-2e-05	-6e-05	-0.00024	-0.00082	0.00101	0.00014	-0.00023	6
30544	0.00011	-2e-05	-6e-05	-0.00024	-0.00082	0.00101	0.00014	-0.00023	6
30545	0.00011	-2e-05	-6e-05	-0.00024	-0.00082	0.00101	0.00014	-0.00023	6
30546	0.00011	-2e-05	-6e-05	-0.00024	-0.00082	0.00101	0.00014	-0.00023	6
30547	0.00011	-2e-05	-6e-05	-0.00024	-0.00082	0.00101	0.00014	-0.00023	6
30548	0.00011	-2e-05	-6e-05	-0.00024	-0.00082	0.00101	0.00014	-0.00023	6
30549	0.00011	-2e-05	-6e-05	-0.00024	-0.00082	0.00101	0.00014	-0.00023	6
30550	0.00011	-2e-05	-6e-05	-0.00024	-0.00082	0.00101	0.00014	-0.00023	6
30551	0.00022	0	-5e-05	-9e-05	0.00015	-2e-05	-0.00015	-0.00014	6
30552	0.00022	0	-5e-05	-9e-05	0.00015	-2e-05	-0.00015	-0.00014	6
30553	-0.00031	-5e-05	3e-05	0.00012	0.00048	0.00046	-9e-05	-0.00069	6
30555	-0.00031	-5e-05	3e-05	0.00012	0.00048	0.00046	-9e-05	-0.00069	6
30556	-0.00031	-5e-05	3e-05	0.00012	0.00048	0.00046	-9e-05	-0.00069	6
30557	-0.00031	-5e-05	3e-05	0.00012	0.00048	0.00046	-9e-05	-0.00069	6
30558	-0.00031	-5e-05	3e-05	0.00012	0.00048	0.00046	-9e-05	-0.00069	6
30559	-0.00031	-5e-05	3e-05	0.00012	0.00048	0.00046	-9e-05	-0.00069	6
30560	-0.00031	-5e-05	3e-05	0.00012	0.00048	0.00046	-9e-05	-0.00069	6
30561	-0.00031	-5e-05	3e-05	0.00012	0.00048	0.00046	-9e-05	-0.00069	6
30562	-0.00031	-5e-05	3e-05	0.00012	0.00048	0.00046	-9e-05	-0.00069	6
30563	-0.00031	-5e-05	3e-05	0.00012	0.00048	0.00046	-9e-05	-0.00069	6
30564	-0.00031	-5e-05	3e-05	0.00012	0.00048	0.00046	-9e-05	-0.00069	6
30565	-0.00031	-5e-05	3e-05	0.00012	0.00048	0.00046	-9e-05	-0.00069	6
30566	-0.00031	-5e-05	3e-05	0.00012	0.00048	0.00046	-9e-05	-0.00069	6
30567	-0.00031	-5e-05	3e-05	0.00012	0.00048	0.00046	-9e-05	-0.00069	6
30568	-0.00031	-5e-05	3e-05	0.00012	0.00048	0.00046	-9e-05	-0.00069	6
30569	-0.00031	-5e-05	3e-05	0.00012	0.00048	0.00046	-9e-05	-0.00069	6
30570	-0.00031	-5e-05	3e-05	0.00012	0.00048	0.00046	-9e-05	-0.00069	6
30571	-0.00031	-5e-05	3e-05	0.00012	0.00048	0.00046	-9e-05	-0.00069	6
30572	-0.00031	-5e-05	3e-05	0.00012	0.00048	0.00046	-9e-05	-0.00069	6
30573	-0.00031	-5e-05	3e-05	0.00012	0.00048	0.00046	-9e-05	-0.00069	6
30574	-0.00031	-5e-05	3e-05	0.00012	0.00048	0.00046	-9e-05	-0.00069	6
30575	-0.00031	-5e-05	3e-05	0.00012	0.00048	0.00046	-9e-05	-0.00069	6
30576	-0.00031	-5e-05	3e-05	0.00012	0.00048	0.00046	-9e-05	-0.00069	6
30577	-0.00031	-5e-05	3e-05	0.00012	0.00048	0.00046	-9e-05	-0.00069	6
30578	-0.00031	-5e-05	3e-05	0.00012	0.00048	0.00046	-9e-05	-0.00069	6
30579	-0.00031	-5e-05	3e-05	0.00012	0.00048	0.00046	-9e-05	-0.00069	6
30580	-0.00031	-5e-05	3e-05	0.00012	0.00048	0.00046	-9e-05	-0.00069	6
30581	-0.00031	-5e-05	3e-05	0.00012	0.00048	0.00046	-9e-05	-0.00069	6
30582	-5e-05	-2e-05	-7e-05	-0.00023	-0.00033	-0.00076	-0.00021	0.00022	6
30583	1e-05	7e-05	4e-05	0.00041	0.00068	0.00044	-0.00018	-0.0003	6
30584	1e-05	7e-05	4e-05	0.00041	0.00068	0.00044	-0.00018	-0.0003	6
30585	1e-05	7e-05	4e-05	0.00041	0.00068	0.00044	-0.00018	-0.0003	6
30586	1e-05	7e-05	4e-05	0.00041	0.00068	0.00044	-0.00018	-0.0003	6
30588	0.00012	2e-05	3e-05	-0.00032	-0.0007	-0.00066	-1e-05	-0.00032	6
30589	0.00012	2e-05	3e-05	-0.00032	-0.0007	-0.00066	-1e-05	-0.00032	6
30590	0.00012	2e-05	3e-05	-0.00032	-0.0007	-0.00066	-1e-05	-0.00032	6
30591	0.00012	2e-05	3e-05	-0.00032	-0.0007	-0.00066	-1e-05	-0.00032	6
30592	0.00012	2e-05	3e-05	-0.00032	-0.0007	-0.00066	-1e-05	-0.00032	6
30593	0.00012	2e-05	3e-05	-0.00032	-0.0007	-0.00066	-1e-05	-0.00032	6
30594	0.00012	2e-05	3e-05	-0.00032	-0.0007	-0.00066	-1e-05	-0.00032	6
30595	0.00012	2e-05	3e-05	-0.00032	-0.0007	-0.00066	-1e-05	-0.00032	6
30596	0.0002	-5e-05	-7e-05	-0.00038	-0.00032	-0.00078	-6e-05	-0.00029	6
30597	0.0002	-5e-05	-7e-05	-0.00038	-0.00032	-0.00078	-6e-05	-0.00029	6
30598	0.0002	-5e-05	-7e-05	-0.00038	-0.00032	-0.00078	-6e-05	-0.00029	6
30599	0.0002	-5e-05	-7e-05	-0.00038	-0.00032	-0.00078	-6e-05	-0.00029	6
30600	0.0002	-5e-05	-7e-05	-0.00038	-0.00032	-0.00078	-6e-05	-0.00029	6
30601	0.0002	-5e-05	-7e-05	-0.00038	-0.00032	-0.00078	-6e-05	-0.00029	6
30602	0.0002	-5e-05	-7e-05	-0.00038	-0.00032	-0.00078	-6e-05	-0.00029	6
30603	0.0002	-5e-05	-7e-05	-0.00038	-0.00032	-0.00078	-6e-05	-0.00029	6
30604	0.0002	-5e-05	-7e-05	-0.00038	-0.00032	-0.00078	-6e-05	-0.00029	6
30605	0.0002	-5e-05	-7e-05	-0.00038	-0.00032	-0.00078	-6e-05	-0.00029	6
30606	0.0002	-5e-05	-7e-05	-0.00038	-0.00032	-0.00078	-6e-05	-0.00029	6
30607	0.0002	-5e-05	-7e-05	-0.00038	-0.00032	-0.00078	-6e-05	-0.00029	6
30608	0.0002	-5e-05	-7e-05	-0.00038	-0.00032	-0.00078	-6e-05	-0.00029	6
30609	0.0002	-5e-05	-7e-05	-0.00038	-0.00032	-0.00078	-6e-05	-0.00029	6
30610	0.0002	-5e-05	-7e-05	-0.00038	-0.00032	-0.00078	-6e-05	-0.00029	6
30611	0.00017	8e-05	0.00012	0.00038	0.00089	0.00079	-4e-05	0.00036	6
30612	0.00017	8e-05	0.00012	0.00038	0.00089	0.00079	-4e-05	0.00036	6
30613	0.00017	-3e-05	-4e-05	-0.0002	-0.00032	0.00039	0.00024	-0.00042	6
30614	0.00017	-3e-05	-4e-05	-0.0002	-0.00032	0.00039	0.00024	-0.00042	6
30615	0.00017	-3e-05	-4e-05	-0.0002	-0.00032	0.00039	0.00024	-0.00042	6
30616	0.00017	-3e-05	-4e-05	-0.0002	-0.00032	0.00039	0.00024	-0.00042	6
30617	0.00017	-3e-05	-4e-05	-0.0002	-0.00032	0.00039	0.00024	-0.00042	6
30618	0.00017	-3e-05	-4e-05	-0.0002	-0.00032	0.00039	0.00024	-0.00042	6
30619	0.00017	-3e-05	-4e-05	-0.0002	-0.00032	0.00039	0.00024	-0.00042	6
30620	0.00017	-3e-05	-4e-05	-0.0002	-0.00032	0.00039	0.00024	-0.00042	6
30621	0.00017	-3e-05	-4e-05	-0.0002	-0.00032	0.00039	0.00024	-0.00042	6
30622	0.00017	-3e-05	-4e-05	-0.0002	-0.00032	0.00039	0.00024	-0.00042	6
30623	0.00017	-3e-05	-4e-05	-0.0002	-0.00032	0.00039	0.00024	-0.00042	6
30624	0.00017	-3e-05	-4e-05	-0.0002	-0.00032	0.00039	0.00024	-0.00042	6
30625	0.00017	-3e-05	-4e-05	-0.0002	-0.00032	0.00039	0.00024	-0.00042	6
30626	0.00017	-3e-05	-4e-05	-0.0002	-0.00032	0.00039	0.00024	-0.00042	6
30627	0.00017	-3e-05	-4e-05	-0.0002	-0.00032	0.00039	0.00024	-0.00042	6
30628	0.00017	-3e-05	-4e-05	-0.0002	-0.00032	0.00039	0.00024	-0.00042	6
30629	0.00017	-3e-05	-4e-05	-0.0002	-0.00032	0.00039	0.00024	-0.00042	6
30630	0.00017	-3e-05	-4e-05	-0.0002	-0.00032	0.00039	0.00024	-0.00042	6
30631	0.00017	-3e-05	-4e-05	-0.0002	-0.00032	0.00039	0.00024	-0.00042	6
30632	0.00017	-3e-05	-4e-05	-0.0002	-0.00032	0.00039	0.00024	-0.00042	6
30633	0.00017	-3e-05	-4e-05	-0.0002	-0.00032	0.00039	0.00024	-0.00042	6
30634	0.00017	-3e-05	-4e-05	-0.0002	-0.00032	0.00039	0.00024	-0.00042	6
30635	0.00017	-3e-05	-4e-05	-0.0002	-0.00032	0.00039	0.00024	-0.00042	6
30636	0.00017	-3e-05	-4e-05	-0.0002	-0.00032	0.00039	0.00024	-0.00042	6
30638	0.00017	-3e-05	-4e-05	-0.0002	-0.00032	0.00039	0.00024	-0.00042	6
30639	0.00017	-3e-05	-4e-05	-0.0002	-0.00032	0.00039	0.00024	-0.00042	6
30640	0.00017	-3e-05	-4e-05	-0.0002	-0.00032	0.00039	0.00024	-0.00042	6
30641	-0.00016	1e-05	0	-5e-05	-0.00096	-0.0008	4e-05	-0.00056	6
30642	-0.00017	-2e-05	0	2e-05	0.00041	-0.00115	-0.00023	-0.0002	6
30643	-0.00017	-2e-05	0	2e-05	0.00041	-0.00115	-0.00023	-0.0002	6
30644	-0.00017	-2e-05	0	2e-05	0.00041	-0.00115	-0.00023	-0.0002	6
30645	-0.00017	-2e-05	0	2e-05	0.00041	-0.00115	-0.00023	-0.0002	6
30646	-0.00017	-2e-05	0	2e-05	0.00041	-0.00115	-0.00023	-0.0002	6
30647	-0.0002	-7e-05	-0.00014	-0.00023	-0.00042	-0.00018	0.00044	0.00027	6
30648	-0.0002	-7e-05	-0.00014	-0.00023	-0.00042	-0.00018	0.00044	0.00027	6
30649	-0.0002	-7e-05	-0.00014	-0.00023	-0.00042	-0.00018	0.00044	0.00027	6
30650	-0.0002	-7e-05	-0.00014	-0.00023	-0.00042	-0.00018	0.00044	0.00027	6
30651	-0.0002	-7e-05	-0.00014	-0.00023	-0.00042	-0.00018	0.00044	0.00027	6
30652	-0.0002	-7e-05	-0.00014	-0.00023	-0.00042	-0.00018	0.00044	0.00027	6
30653	-0.0002	-7e-05	-0.00014	-0.00023	-0.00042	-0.00018	0.00044	0.00027	6
30654	-0.0002	-7e-05	-0.00014	-0.00023	-0.00042	-0.00018	0.00044	0.00027	6
30655	-0.0002	-7e-05	-0.00014	-0.00023	-0.00042	-0.00018	0.00044	0.00027	6
30656	-0.0002	-7e-05	-0.00014	-0.00023	-0.00042	-0.00018	0.00044	0.00027	6
30657	6e-05	-1e-05	-4e-05	-0.00021	-0.00128	0.00078	4e-05	0.00039	6
30658	6e-05	-1e-05	-4e-05	-0.00021	-0.00128	0.00078	4e-05	0.00039	6
30659	6e-05	-1e-05	-4e-05	-0.00021	-0.00128	0.00078	4e-05	0.00039	6
30660	6e-05	-1e-05	-4e-05	-0.00021	-0.00128	0.00078	4e-05	0.00039	6
30661	6e-05	-1e-05	-4e-05	-0.00021	-0.00128	0.00078	4e-05	0.00039	6
30662	6e-05	-1e-05	-4e-05	-0.00021	-0.00128	0.00078	4e-05	0.00039	6
30663	6e-05	-1e-05	-4e-05	-0.00021	-0.00128	0.00078	4e-05	0.00039	6
30664	6e-05	-1e-05	-4e-05	-0.00021	-0.00128	0.00078	4e-05	0.00039	6
30665	6e-05	-1e-05	-4e-05	-0.00021	-0.00128	0.00078	4e-05	0.00039	6
30666	6e-05	-1e-05	-4e-05	-0.00021	-0.00128	0.00078	4e-05	0.00039	6
30667	6e-05	-1e-05	-4e-05	-0.00021	-0.00128	0.00078	4e-05	0.00039	6
30668	6e-05	-1e-05	-4e-05	-0.00021	-0.00128	0.00078	4e-05	0.00039	6
30669	6e-05	-1e-05	-4e-05	-0.00021	-0.00128	0.00078	4e-05	0.00039	6
30670	6e-05	-1e-05	-4e-05	-0.00021	-0.00128	0.00078	4e-05	0.00039	6
30671	-6e-05	1e-05	4e-05	0.00018	0.00075	0.00035	7e-05	9e-05	6
30672	-0.00011	-6e-05	-3e-05	4e-05	0.00018	0.0001	0.0003	-0.00067	6
30673	-0.00011	-6e-05	-3e-05	4e-05	0.00018	0.0001	0.0003	-0.00067	6
30674	-0.00011	-6e-05	-3e-05	4e-05	0.00018	0.0001	0.0003	-0.00067	6
30675	-0.00011	-6e-05	-3e-05	4e-05	0.00018	0.0001	0.0003	-0.00067	6
30676	-0.00011	-6e-05	-3e-05	4e-05	0.00018	0.0001	0.0003	-0.00067	6
30677	-0.00011	-6e-05	-3e-05	4e-05	0.00018	0.0001	0.0003	-0.00067	6
30678	-0.00011	-6e-05	-3e-05	4e-05	0.00018	0.0001	0.0003	-0.00067	6
30679	-0.00011	-6e-05	-3e-05	4e-05	0.00018	0.0001	0.0003	-0.00067	6
30680	-0.00011	-6e-05	-3e-05	4e-05	0.00018	0.0001	0.0003	-0.00067	6
30681	-0.00011	-6e-05	-3e-05	4e-05	0.00018	0.0001	0.0003	-0.00067	6
30682	-0.00011	-6e-05	-3e-05	4e-05	0.00018	0.0001	0.0003	-0.00067	6
30683	-0.00011	-6e-05	-3e-05	4e-05	0.00018	0.0001	0.0003	-0.00067	6
30684	-0.00011	-6e-05	-3e-05	4e-05	0.00018	0.0001	0.0003	-0.00067	6
30685	-0.00011	-6e-05	-3e-05	4e-05	0.00018	0.0001	0.0003	-0.00067	6
30686	-0.00011	-6e-05	-3e-05	4e-05	0.00018	0.0001	0.0003	-0.00067	6
30688	-0.00011	-6e-05	-3e-05	4e-05	0.00018	0.0001	0.0003	-0.00067	6
30689	-0.00011	-6e-05	-3e-05	4e-05	0.00018	0.0001	0.0003	-0.00067	6
30690	-0.00011	-6e-05	-3e-05	4e-05	0.00018	0.0001	0.0003	-0.00067	6
30691	-0.00011	-6e-05	-3e-05	4e-05	0.00018	0.0001	0.0003	-0.00067	6
30692	-0.00011	-6e-05	-3e-05	4e-05	0.00018	0.0001	0.0003	-0.00067	6
30693	-0.00021	-1e-05	-3e-05	-0.00033	0.00047	0.00099	-0.00013	0.00021	6
30694	-0.00021	-1e-05	-3e-05	-0.00033	0.00047	0.00099	-0.00013	0.00021	6
30695	9e-05	-2e-05	-3e-05	-0.00022	-0.00013	-3e-05	-6e-05	-9e-05	6
30696	9e-05	-2e-05	-3e-05	-0.00022	-0.00013	-3e-05	-6e-05	-9e-05	6
30697	9e-05	-2e-05	-3e-05	-0.00022	-0.00013	-3e-05	-6e-05	-9e-05	6
30698	9e-05	-2e-05	-3e-05	-0.00022	-0.00013	-3e-05	-6e-05	-9e-05	6
30699	9e-05	-2e-05	-3e-05	-0.00022	-0.00013	-3e-05	-6e-05	-9e-05	6
30700	9e-05	-2e-05	-3e-05	-0.00022	-0.00013	-3e-05	-6e-05	-9e-05	6
30701	9e-05	-2e-05	-3e-05	-0.00022	-0.00013	-3e-05	-6e-05	-9e-05	6
30702	9e-05	-2e-05	-3e-05	-0.00022	-0.00013	-3e-05	-6e-05	-9e-05	6
30703	9e-05	-2e-05	-3e-05	-0.00022	-0.00013	-3e-05	-6e-05	-9e-05	6
30704	9e-05	-2e-05	-3e-05	-0.00022	-0.00013	-3e-05	-6e-05	-9e-05	6
30705	9e-05	-2e-05	-3e-05	-0.00022	-0.00013	-3e-05	-6e-05	-9e-05	6
30706	9e-05	-2e-05	-3e-05	-0.00022	-0.00013	-3e-05	-6e-05	-9e-05	6
30707	9e-05	-2e-05	-3e-05	-0.00022	-0.00013	-3e-05	-6e-05	-9e-05	6
30708	9e-05	-2e-05	-3e-05	-0.00022	-0.00013	-3e-05	-6e-05	-9e-05	6
30709	9e-05	-2e-05	-3e-05	-0.00022	-0.00013	-3e-05	-6e-05	-9e-05	6
30710	9e-05	-2e-05	-3e-05	-0.00022	-0.00013	-3e-05	-6e-05	-9e-05	6
30711	9e-05	-2e-05	-3e-05	-0.00022	-0.00013	-3e-05	-6e-05	-9e-05	6
30712	9e-05	-2e-05	-3e-05	-0.00022	-0.00013	-3e-05	-6e-05	-9e-05	6
30713	9e-05	-2e-05	-3e-05	-0.00022	-0.00013	-3e-05	-6e-05	-9e-05	6
30714	9e-05	-2e-05	-3e-05	-0.00022	-0.00013	-3e-05	-6e-05	-9e-05	6
30715	9e-05	-2e-05	-3e-05	-0.00022	-0.00013	-3e-05	-6e-05	-9e-05	6
30716	9e-05	-2e-05	-3e-05	-0.00022	-0.00013	-3e-05	-6e-05	-9e-05	6
30717	9e-05	-2e-05	-3e-05	-0.00022	-0.00013	-3e-05	-6e-05	-9e-05	6
30718	9e-05	-2e-05	-3e-05	-0.00022	-0.00013	-3e-05	-6e-05	-9e-05	6
30719	9e-05	-2e-05	-3e-05	-0.00022	-0.00013	-3e-05	-6e-05	-9e-05	6
30720	9e-05	-2e-05	-3e-05	-0.00022	-0.00013	-3e-05	-6e-05	-9e-05	6
30721	9e-05	-2e-05	-3e-05	-0.00022	-0.00013	-3e-05	-6e-05	-9e-05	6
30722	9e-05	-2e-05	-3e-05	-0.00022	-0.00013	-3e-05	-6e-05	-9e-05	6
30723	0.00019	6e-05	0.0001	0.00049	-0.00038	-0.00029	-0.00013	0.00014	6
30724	0.00019	6e-05	0.0001	0.00049	-0.00038	-0.00029	-0.00013	0.00014	6
30725	-4e-05	7e-05	4e-05	8e-05	0.00049	-0.00084	-3e-05	0.00029	6
30726	-4e-05	7e-05	4e-05	8e-05	0.00049	-0.00084	-3e-05	0.00029	6
30727	-4e-05	7e-05	4e-05	8e-05	0.00049	-0.00084	-3e-05	0.00029	6
30728	-4e-05	7e-05	4e-05	8e-05	0.00049	-0.00084	-3e-05	0.00029	6
30729	-4e-05	7e-05	4e-05	8e-05	0.00049	-0.00084	-3e-05	0.00029	6
30730	-4e-05	7e-05	4e-05	8e-05	0.00049	-0.00084	-3e-05	0.00029	6
30731	-5e-05	-3e-05	-6e-05	-0.00014	0.00058	-0.0002	-2e-05	0.00021	6
30732	-5e-05	-3e-05	-6e-05	-0.00014	0.00058	-0.0002	-2e-05	0.00021	6
30733	0.00013	2e-05	-1e-05	-4e-05	1e-05	0.00044	0.00021	0.00087	6
30734	0.00013	2e-05	-1e-05	-4e-05	1e-05	0.00044	0.00021	0.00087	6
30735	0.00013	2e-05	-1e-05	-4e-05	1e-05	0.00044	0.00021	0.00087	6
30736	0.00013	2e-05	-1e-05	-4e-05	1e-05	0.00044	0.00021	0.00087	6
30738	0.00013	2e-05	-1e-05	-4e-05	1e-05	0.00044	0.00021	0.00087	6
30739	0.00013	2e-05	-1e-05	-4e-05	1e-05	0.00044	0.00021	0.00087	6
30740	0.00013	2e-05	-1e-05	-4e-05	1e-05	0.00044	0.00021	0.00087	6
30741	0.00013	2e-05	-1e-05	-4e-05	1e-05	0.00044	0.00021	0.00087	6
30742	0.00013	2e-05	-1e-05	-4e-05	1e-05	0.00044	0.00021	0.00087	6
30743	0.00013	2e-05	-1e-05	-4e-05	1e-05	0.00044	0.00021	0.00087	6
30744	0.00013	2e-05	-1e-05	-4e-05	1e-05	0.00044	0.00021	0.00087	6
30745	0.00013	2e-05	-1e-05	-4e-05	1e-05	0.00044	0.00021	0.00087	6
30746	0.00013	2e-05	-1e-05	-4e-05	1e-05	0.00044	0.00021	0.00087	6
30747	0.00013	2e-05	-1e-05	-4e-05	1e-05	0.00044	0.00021	0.00087	6
30748	0.00013	2e-05	-1e-05	-4e-05	1e-05	0.00044	0.00021	0.00087	6
30749	0.00013	2e-05	-1e-05	-4e-05	1e-05	0.00044	0.00021	0.00087	6
30750	0.00013	2e-05	-1e-05	-4e-05	1e-05	0.00044	0.00021	0.00087	6
30751	0.00013	2e-05	-1e-05	-4e-05	1e-05	0.00044	0.00021	0.00087	6
30752	0.00013	2e-05	-1e-05	-4e-05	1e-05	0.00044	0.00021	0.00087	6
30753	-0.00018	1e-05	3e-05	0.00022	0.00038	0.00055	0.00015	-0.00026	6
30754	-0.00018	1e-05	3e-05	0.00022	0.00038	0.00055	0.00015	-0.00026	6
30755	-2e-05	-8e-05	-0.0001	-0.00032	-0.00035	-0.00081	-0.0002	0.00049	6
30756	-2e-05	-8e-05	-0.0001	-0.00032	-0.00035	-0.00081	-0.0002	0.00049	6
30757	-2e-05	-8e-05	-0.0001	-0.00032	-0.00035	-0.00081	-0.0002	0.00049	6
30758	-2e-05	-8e-05	-0.0001	-0.00032	-0.00035	-0.00081	-0.0002	0.00049	6
30759	-2e-05	-8e-05	-0.0001	-0.00032	-0.00035	-0.00081	-0.0002	0.00049	6
30760	-2e-05	-8e-05	-0.0001	-0.00032	-0.00035	-0.00081	-0.0002	0.00049	6
30761	-2e-05	-8e-05	-0.0001	-0.00032	-0.00035	-0.00081	-0.0002	0.00049	6
30762	-2e-05	-8e-05	-0.0001	-0.00032	-0.00035	-0.00081	-0.0002	0.00049	6
30763	-2e-05	-8e-05	-0.0001	-0.00032	-0.00035	-0.00081	-0.0002	0.00049	6
30764	-2e-05	-8e-05	-0.0001	-0.00032	-0.00035	-0.00081	-0.0002	0.00049	6
30765	-2e-05	-8e-05	-0.0001	-0.00032	-0.00035	-0.00081	-0.0002	0.00049	6
30766	-2e-05	-8e-05	-0.0001	-0.00032	-0.00035	-0.00081	-0.0002	0.00049	6
30767	-2e-05	-8e-05	-0.0001	-0.00032	-0.00035	-0.00081	-0.0002	0.00049	6
30768	-2e-05	-8e-05	-0.0001	-0.00032	-0.00035	-0.00081	-0.0002	0.00049	6
30769	-2e-05	-8e-05	-0.0001	-0.00032	-0.00035	-0.00081	-0.0002	0.00049	6
30770	-2e-05	-8e-05	-0.0001	-0.00032	-0.00035	-0.00081	-0.0002	0.00049	6
30771	-2e-05	-8e-05	-0.0001	-0.00032	-0.00035	-0.00081	-0.0002	0.00049	6
30772	-2e-05	-8e-05	-0.0001	-0.00032	-0.00035	-0.00081	-0.0002	0.00049	6
30773	-2e-05	-8e-05	-0.0001	-0.00032	-0.00035	-0.00081	-0.0002	0.00049	6
30774	-2e-05	-8e-05	-0.0001	-0.00032	-0.00035	-0.00081	-0.0002	0.00049	6
30775	-2e-05	-8e-05	-0.0001	-0.00032	-0.00035	-0.00081	-0.0002	0.00049	6
30776	0.00016	-3e-05	0	-0.00012	-0.00027	-0.00037	6e-05	-0.00018	6
30777	0.00016	-3e-05	0	-0.00012	-0.00027	-0.00037	6e-05	-0.00018	6
30778	0.00016	-3e-05	0	-0.00012	-0.00027	-0.00037	6e-05	-0.00018	6
30779	0.00016	-3e-05	0	-0.00012	-0.00027	-0.00037	6e-05	-0.00018	6
30780	0.00016	-3e-05	0	-0.00012	-0.00027	-0.00037	6e-05	-0.00018	6
30781	0.00016	-3e-05	0	-0.00012	-0.00027	-0.00037	6e-05	-0.00018	6
30782	-0.00014	-0.0001	-9e-05	7e-05	-0.00023	-0.00034	-0.00019	-0.00025	6
30783	-0.00014	-0.0001	-9e-05	7e-05	-0.00023	-0.00034	-0.00019	-0.00025	6
30784	-0.00014	-0.0001	-9e-05	7e-05	-0.00023	-0.00034	-0.00019	-0.00025	6
30785	-0.00014	-0.0001	-9e-05	7e-05	-0.00023	-0.00034	-0.00019	-0.00025	6
30786	-0.00014	-0.0001	-9e-05	7e-05	-0.00023	-0.00034	-0.00019	-0.00025	6
30789	-0.00014	-0.0001	-9e-05	7e-05	-0.00023	-0.00034	-0.00019	-0.00025	6
30790	-0.00014	-0.0001	-9e-05	7e-05	-0.00023	-0.00034	-0.00019	-0.00025	6
30791	-0.00018	-9e-05	-7e-05	0.00012	-3e-05	-0.00118	-0.00035	-0.00024	6
30792	0.00021	1e-05	4e-05	4e-05	2e-05	0.00062	0.00026	-0.00059	6
30793	0.0001	3e-05	5e-05	0.0002	0.00014	-0.00035	-0.00023	-0.00071	6
30794	0.0001	3e-05	5e-05	0.0002	0.00014	-0.00035	-0.00023	-0.00071	6
30795	0.0001	3e-05	5e-05	0.0002	0.00014	-0.00035	-0.00023	-0.00071	6
30796	0.0001	3e-05	5e-05	0.0002	0.00014	-0.00035	-0.00023	-0.00071	6
30797	0.0001	3e-05	5e-05	0.0002	0.00014	-0.00035	-0.00023	-0.00071	6
30798	0.0001	3e-05	5e-05	0.0002	0.00014	-0.00035	-0.00023	-0.00071	6
30799	0.0001	3e-05	5e-05	0.0002	0.00014	-0.00035	-0.00023	-0.00071	6
30800	0.0001	3e-05	5e-05	0.0002	0.00014	-0.00035	-0.00023	-0.00071	6
30801	0.0001	3e-05	5e-05	0.0002	0.00014	-0.00035	-0.00023	-0.00071	6
30802	0.0001	3e-05	5e-05	0.0002	0.00014	-0.00035	-0.00023	-0.00071	6
30803	0.0001	3e-05	5e-05	0.0002	0.00014	-0.00035	-0.00023	-0.00071	6
30804	0.0001	3e-05	5e-05	0.0002	0.00014	-0.00035	-0.00023	-0.00071	6
30805	0.0001	3e-05	5e-05	0.0002	0.00014	-0.00035	-0.00023	-0.00071	6
30806	0.0001	3e-05	5e-05	0.0002	0.00014	-0.00035	-0.00023	-0.00071	6
30807	0.0001	3e-05	5e-05	0.0002	0.00014	-0.00035	-0.00023	-0.00071	6
30808	0.0001	3e-05	5e-05	0.0002	0.00014	-0.00035	-0.00023	-0.00071	6
30809	0.0001	3e-05	5e-05	0.0002	0.00014	-0.00035	-0.00023	-0.00071	6
30810	0.0001	3e-05	5e-05	0.0002	0.00014	-0.00035	-0.00023	-0.00071	6
30811	0.0001	3e-05	5e-05	0.0002	0.00014	-0.00035	-0.00023	-0.00071	6
30812	0.0001	3e-05	5e-05	0.0002	0.00014	-0.00035	-0.00023	-0.00071	6
30813	-0.00017	7e-05	5e-05	-5e-05	0.00055	0.00059	0.00015	-9e-05	6
30814	-0.00017	7e-05	5e-05	-5e-05	0.00055	0.00059	0.00015	-9e-05	6
30815	5e-05	4e-05	-1e-05	0.00016	0.00076	-0.00025	0.00021	-0.00018	6
30817	5e-05	4e-05	-1e-05	0.00016	0.00076	-0.00025	0.00021	-0.00018	6
30818	5e-05	4e-05	-1e-05	0.00016	0.00076	-0.00025	0.00021	-0.00018	6
30819	5e-05	4e-05	-1e-05	0.00016	0.00076	-0.00025	0.00021	-0.00018	6
30820	5e-05	4e-05	-1e-05	0.00016	0.00076	-0.00025	0.00021	-0.00018	6
30821	5e-05	4e-05	-1e-05	0.00016	0.00076	-0.00025	0.00021	-0.00018	6
30822	5e-05	4e-05	-1e-05	0.00016	0.00076	-0.00025	0.00021	-0.00018	6
30823	5e-05	4e-05	-1e-05	0.00016	0.00076	-0.00025	0.00021	-0.00018	6
30824	5e-05	4e-05	-1e-05	0.00016	0.00076	-0.00025	0.00021	-0.00018	6
30825	5e-05	4e-05	-1e-05	0.00016	0.00076	-0.00025	0.00021	-0.00018	6
30826	5e-05	4e-05	-1e-05	0.00016	0.00076	-0.00025	0.00021	-0.00018	6
30827	5e-05	4e-05	-1e-05	0.00016	0.00076	-0.00025	0.00021	-0.00018	6
30828	5e-05	4e-05	-1e-05	0.00016	0.00076	-0.00025	0.00021	-0.00018	6
30829	5e-05	4e-05	-1e-05	0.00016	0.00076	-0.00025	0.00021	-0.00018	6
30830	5e-05	4e-05	-1e-05	0.00016	0.00076	-0.00025	0.00021	-0.00018	6
30831	5e-05	4e-05	-1e-05	0.00016	0.00076	-0.00025	0.00021	-0.00018	6
30832	5e-05	4e-05	-1e-05	0.00016	0.00076	-0.00025	0.00021	-0.00018	6
30833	5e-05	4e-05	-1e-05	0.00016	0.00076	-0.00025	0.00021	-0.00018	6
30834	5e-05	4e-05	-1e-05	0.00016	0.00076	-0.00025	0.00021	-0.00018	6
30836	-5e-05	-1e-05	1e-05	0.00012	-0.00024	5e-05	-8e-05	-0.00029	6
30837	-0.00015	-9e-05	-0.0001	-0.00021	0.00014	-5e-05	-0.00019	5e-05	6
30838	-0.00015	-9e-05	-0.0001	-0.00021	0.00014	-5e-05	-0.00019	5e-05	6
30839	-0.00015	-9e-05	-0.0001	-0.00021	0.00014	-5e-05	-0.00019	5e-05	6
30840	-0.00015	-9e-05	-0.0001	-0.00021	0.00014	-5e-05	-0.00019	5e-05	6
30841	-0.00015	-9e-05	-0.0001	-0.00021	0.00014	-5e-05	-0.00019	5e-05	6
30842	-0.00015	-9e-05	-0.0001	-0.00021	0.00014	-5e-05	-0.00019	5e-05	6
30843	-0.00015	-9e-05	-0.0001	-0.00021	0.00014	-5e-05	-0.00019	5e-05	6
30844	-0.00015	-9e-05	-0.0001	-0.00021	0.00014	-5e-05	-0.00019	5e-05	6
30845	-0.00015	-9e-05	-0.0001	-0.00021	0.00014	-5e-05	-0.00019	5e-05	6
30846	-0.00015	-9e-05	-0.0001	-0.00021	0.00014	-5e-05	-0.00019	5e-05	6
30847	-0.00015	-9e-05	-0.0001	-0.00021	0.00014	-5e-05	-0.00019	5e-05	6
30848	-0.00015	-9e-05	-0.0001	-0.00021	0.00014	-5e-05	-0.00019	5e-05	6
30849	-0.00015	-9e-05	-0.0001	-0.00021	0.00014	-5e-05	-0.00019	5e-05	6
30850	-0.00015	-9e-05	-0.0001	-0.00021	0.00014	-5e-05	-0.00019	5e-05	6
30851	-0.00015	-9e-05	-0.0001	-0.00021	0.00014	-5e-05	-0.00019	5e-05	6
30852	-0.00015	-9e-05	-0.0001	-0.00021	0.00014	-5e-05	-0.00019	5e-05	6
30853	-0.00015	-9e-05	-0.0001	-0.00021	0.00014	-5e-05	-0.00019	5e-05	6
30854	-0.00015	-9e-05	-0.0001	-0.00021	0.00014	-5e-05	-0.00019	5e-05	6
30855	-0.00015	-9e-05	-0.0001	-0.00021	0.00014	-5e-05	-0.00019	5e-05	6
30856	-0.00015	-9e-05	-0.0001	-0.00021	0.00014	-5e-05	-0.00019	5e-05	6
30857	-0.00015	-9e-05	-0.0001	-0.00021	0.00014	-5e-05	-0.00019	5e-05	6
30858	-3e-05	-8e-05	-5e-05	-7e-05	-0.00035	-0.00043	-8e-05	0.00017	6
30859	-3e-05	-8e-05	-5e-05	-7e-05	-0.00035	-0.00043	-8e-05	0.00017	6
30860	-0.00011	-5e-05	0	-3e-05	4e-05	2e-05	6e-05	2e-05	6
30861	-0.00011	-5e-05	0	-3e-05	4e-05	2e-05	6e-05	2e-05	6
30862	-0.00011	-5e-05	0	-3e-05	4e-05	2e-05	6e-05	2e-05	6
30863	-0.00011	-5e-05	0	-3e-05	4e-05	2e-05	6e-05	2e-05	6
30864	-0.00011	-5e-05	0	-3e-05	4e-05	2e-05	6e-05	2e-05	6
30865	-0.00011	-5e-05	0	-3e-05	4e-05	2e-05	6e-05	2e-05	6
30866	-0.00011	-5e-05	0	-3e-05	4e-05	2e-05	6e-05	2e-05	6
30867	-0.00011	-5e-05	0	-3e-05	4e-05	2e-05	6e-05	2e-05	6
30868	-0.00011	-5e-05	0	-3e-05	4e-05	2e-05	6e-05	2e-05	6
30869	-0.00011	-5e-05	0	-3e-05	4e-05	2e-05	6e-05	2e-05	6
30870	-0.00011	-5e-05	0	-3e-05	4e-05	2e-05	6e-05	2e-05	6
30871	-0.00011	-5e-05	0	-3e-05	4e-05	2e-05	6e-05	2e-05	6
30872	-0.00011	-5e-05	0	-3e-05	4e-05	2e-05	6e-05	2e-05	6
30873	0.00034	5e-05	-1e-05	-0.0001	-0.00019	0.00088	5e-05	0.00052	6
30874	0.00034	5e-05	-1e-05	-0.0001	-0.00019	0.00088	5e-05	0.00052	6
30875	0.00032	4e-05	-1e-05	-6e-05	-3e-05	0.00094	0.00012	-0.00022	6
30876	0.00032	4e-05	-1e-05	-6e-05	-3e-05	0.00094	0.00012	-0.00022	6
30877	0.00032	4e-05	-1e-05	-6e-05	-3e-05	0.00094	0.00012	-0.00022	6
30878	0.00032	4e-05	-1e-05	-6e-05	-3e-05	0.00094	0.00012	-0.00022	6
30879	0.00032	4e-05	-1e-05	-6e-05	-3e-05	0.00094	0.00012	-0.00022	6
30880	0.00032	4e-05	-1e-05	-6e-05	-3e-05	0.00094	0.00012	-0.00022	6
30881	0.00032	4e-05	-1e-05	-6e-05	-3e-05	0.00094	0.00012	-0.00022	6
30882	0.00032	4e-05	-1e-05	-6e-05	-3e-05	0.00094	0.00012	-0.00022	6
30883	0.00032	4e-05	-1e-05	-6e-05	-3e-05	0.00094	0.00012	-0.00022	6
30884	0.00032	4e-05	-1e-05	-6e-05	-3e-05	0.00094	0.00012	-0.00022	6
30885	0.00032	4e-05	-1e-05	-6e-05	-3e-05	0.00094	0.00012	-0.00022	6
30886	0.00032	4e-05	-1e-05	-6e-05	-3e-05	0.00094	0.00012	-0.00022	6
30889	0.00032	4e-05	-1e-05	-6e-05	-3e-05	0.00094	0.00012	-0.00022	6
30890	0.00032	4e-05	-1e-05	-6e-05	-3e-05	0.00094	0.00012	-0.00022	6
30891	0.00032	4e-05	-1e-05	-6e-05	-3e-05	0.00094	0.00012	-0.00022	6
30892	0.00032	4e-05	-1e-05	-6e-05	-3e-05	0.00094	0.00012	-0.00022	6
30893	0.00032	4e-05	-1e-05	-6e-05	-3e-05	0.00094	0.00012	-0.00022	6
30894	0.00032	4e-05	-1e-05	-6e-05	-3e-05	0.00094	0.00012	-0.00022	6
30895	0.00032	4e-05	-1e-05	-6e-05	-3e-05	0.00094	0.00012	-0.00022	6
30896	-0.00019	-0.00018	-0.00017	-0.00019	0.00013	-0.00031	-1e-05	-0.00031	6
30897	0.00018	6e-05	5e-05	-3e-05	-0.00066	-0.00087	-0.00023	0.00018	6
30898	-0.0001	5e-05	4e-05	4e-05	0.00013	0.00064	-2e-05	-0.00015	6
30899	-0.0001	5e-05	4e-05	4e-05	0.00013	0.00064	-2e-05	-0.00015	6
30900	-0.0001	5e-05	4e-05	4e-05	0.00013	0.00064	-2e-05	-0.00015	6
30901	-0.0001	5e-05	4e-05	4e-05	0.00013	0.00064	-2e-05	-0.00015	6
30902	-0.0001	5e-05	4e-05	4e-05	0.00013	0.00064	-2e-05	-0.00015	6
30903	-0.0001	5e-05	4e-05	4e-05	0.00013	0.00064	-2e-05	-0.00015	6
30904	-0.0001	5e-05	4e-05	4e-05	0.00013	0.00064	-2e-05	-0.00015	6
30905	-0.0001	5e-05	4e-05	4e-05	0.00013	0.00064	-2e-05	-0.00015	6
30906	-0.0001	5e-05	4e-05	4e-05	0.00013	0.00064	-2e-05	-0.00015	6
30907	-0.0001	5e-05	4e-05	4e-05	0.00013	0.00064	-2e-05	-0.00015	6
30908	-0.0001	5e-05	4e-05	4e-05	0.00013	0.00064	-2e-05	-0.00015	6
30909	-0.0001	5e-05	4e-05	4e-05	0.00013	0.00064	-2e-05	-0.00015	6
30910	-3e-05	-1e-05	-3e-05	2e-05	0.00011	0.00023	7e-05	-0.00015	6
30911	-3e-05	-1e-05	-3e-05	2e-05	0.00011	0.00023	7e-05	-0.00015	6
30912	-3e-05	-1e-05	-3e-05	2e-05	0.00011	0.00023	7e-05	-0.00015	6
30913	-3e-05	-1e-05	-3e-05	2e-05	0.00011	0.00023	7e-05	-0.00015	6
30914	-3e-05	-1e-05	-3e-05	2e-05	0.00011	0.00023	7e-05	-0.00015	6
30915	-3e-05	-1e-05	-3e-05	2e-05	0.00011	0.00023	7e-05	-0.00015	6
30916	-3e-05	-1e-05	-3e-05	2e-05	0.00011	0.00023	7e-05	-0.00015	6
30917	-3e-05	-1e-05	-3e-05	2e-05	0.00011	0.00023	7e-05	-0.00015	6
30918	-3e-05	-1e-05	-3e-05	2e-05	0.00011	0.00023	7e-05	-0.00015	6
30919	-9e-05	4e-05	3e-05	-0.00011	0.00037	0.00035	-0.00017	-0.0005	6
30920	-9e-05	4e-05	3e-05	-0.00011	0.00037	0.00035	-0.00017	-0.0005	6
30921	-9e-05	4e-05	3e-05	-0.00011	0.00037	0.00035	-0.00017	-0.0005	6
30922	-9e-05	4e-05	3e-05	-0.00011	0.00037	0.00035	-0.00017	-0.0005	6
30923	-9e-05	4e-05	3e-05	-0.00011	0.00037	0.00035	-0.00017	-0.0005	6
30924	-9e-05	4e-05	3e-05	-0.00011	0.00037	0.00035	-0.00017	-0.0005	6
30925	-9e-05	4e-05	3e-05	-0.00011	0.00037	0.00035	-0.00017	-0.0005	6
30926	-9e-05	4e-05	3e-05	-0.00011	0.00037	0.00035	-0.00017	-0.0005	6
30927	-9e-05	4e-05	3e-05	-0.00011	0.00037	0.00035	-0.00017	-0.0005	6
30928	-9e-05	4e-05	3e-05	-0.00011	0.00037	0.00035	-0.00017	-0.0005	6
30929	-9e-05	4e-05	3e-05	-0.00011	0.00037	0.00035	-0.00017	-0.0005	6
30930	-9e-05	4e-05	3e-05	-0.00011	0.00037	0.00035	-0.00017	-0.0005	6
30931	-9e-05	4e-05	3e-05	-0.00011	0.00037	0.00035	-0.00017	-0.0005	6
30932	-9e-05	4e-05	3e-05	-0.00011	0.00037	0.00035	-0.00017	-0.0005	6
30933	-9e-05	4e-05	3e-05	-0.00011	0.00037	0.00035	-0.00017	-0.0005	6
30934	-9e-05	4e-05	3e-05	-0.00011	0.00037	0.00035	-0.00017	-0.0005	6
30935	-9e-05	4e-05	3e-05	-0.00011	0.00037	0.00035	-0.00017	-0.0005	6
30936	-9e-05	4e-05	3e-05	-0.00011	0.00037	0.00035	-0.00017	-0.0005	6
30938	-9e-05	4e-05	3e-05	-0.00011	0.00037	0.00035	-0.00017	-0.0005	6
30939	-9e-05	4e-05	3e-05	-0.00011	0.00037	0.00035	-0.00017	-0.0005	6
30940	-9e-05	4e-05	3e-05	-0.00011	0.00037	0.00035	-0.00017	-0.0005	6
30941	-0.00026	-6e-05	-1e-05	-7e-05	-0.00069	-0.00091	-0.00025	0.00023	6
30942	0.00022	0	-2e-05	2e-05	-0.00018	-0.00037	0.00013	0.00042	6
30943	-8e-05	-2e-05	4e-05	0.00019	4e-05	-0.00101	2e-05	-9e-05	6
30944	-8e-05	-2e-05	4e-05	0.00019	4e-05	-0.00101	2e-05	-9e-05	6
30945	-8e-05	-2e-05	4e-05	0.00019	4e-05	-0.00101	2e-05	-9e-05	6
30946	-8e-05	-2e-05	4e-05	0.00019	4e-05	-0.00101	2e-05	-9e-05	6
30947	-8e-05	-2e-05	4e-05	0.00019	4e-05	-0.00101	2e-05	-9e-05	6
30948	-8e-05	-2e-05	4e-05	0.00019	4e-05	-0.00101	2e-05	-9e-05	6
30949	-8e-05	-2e-05	4e-05	0.00019	4e-05	-0.00101	2e-05	-9e-05	6
30950	-8e-05	-2e-05	4e-05	0.00019	4e-05	-0.00101	2e-05	-9e-05	6
30951	-8e-05	-2e-05	4e-05	0.00019	4e-05	-0.00101	2e-05	-9e-05	6
30952	-8e-05	-2e-05	4e-05	0.00019	4e-05	-0.00101	2e-05	-9e-05	6
30953	-8e-05	-2e-05	4e-05	0.00019	4e-05	-0.00101	2e-05	-9e-05	6
30954	-8e-05	-2e-05	4e-05	0.00019	4e-05	-0.00101	2e-05	-9e-05	6
30955	-8e-05	-2e-05	4e-05	0.00019	4e-05	-0.00101	2e-05	-9e-05	6
30956	0.00012	1e-05	1e-05	2e-05	-5e-05	-0.00021	9e-05	-0.00042	6
30957	-0.00018	-3e-05	-4e-05	-0.0002	-0.00055	-5e-05	-0.00011	-0.0001	6
30958	-3e-05	-6e-05	-6e-05	6e-05	-0.00026	0.00017	2e-05	0.00051	6
30959	-3e-05	-6e-05	-6e-05	6e-05	-0.00026	0.00017	2e-05	0.00051	6
30960	-3e-05	-6e-05	-6e-05	6e-05	-0.00026	0.00017	2e-05	0.00051	6
30961	-3e-05	-6e-05	-6e-05	6e-05	-0.00026	0.00017	2e-05	0.00051	6
30962	-3e-05	-6e-05	-6e-05	6e-05	-0.00026	0.00017	2e-05	0.00051	6
30963	-3e-05	-6e-05	-6e-05	6e-05	-0.00026	0.00017	2e-05	0.00051	6
30964	-3e-05	-6e-05	-6e-05	6e-05	-0.00026	0.00017	2e-05	0.00051	6
30965	-3e-05	-6e-05	-6e-05	6e-05	-0.00026	0.00017	2e-05	0.00051	6
30966	-3e-05	-6e-05	-6e-05	6e-05	-0.00026	0.00017	2e-05	0.00051	6
30967	-3e-05	-6e-05	-6e-05	6e-05	-0.00026	0.00017	2e-05	0.00051	6
30968	-3e-05	-6e-05	-6e-05	6e-05	-0.00026	0.00017	2e-05	0.00051	6
30969	-3e-05	-6e-05	-6e-05	6e-05	-0.00026	0.00017	2e-05	0.00051	6
30970	2e-05	-5e-05	-4e-05	-5e-05	0.00024	0.00013	-5e-05	-0.0001	6
30971	2e-05	-5e-05	-4e-05	-5e-05	0.00024	0.00013	-5e-05	-0.0001	6
30972	2e-05	-5e-05	-4e-05	-5e-05	0.00024	0.00013	-5e-05	-0.0001	6
30973	2e-05	-5e-05	-4e-05	-5e-05	0.00024	0.00013	-5e-05	-0.0001	6
30974	2e-05	-5e-05	-4e-05	-5e-05	0.00024	0.00013	-5e-05	-0.0001	6
30976	2e-05	-5e-05	-4e-05	-5e-05	0.00024	0.00013	-5e-05	-0.0001	6
30977	1e-05	4e-05	0.00011	0.00012	-0.00033	0.00018	-4e-05	9e-05	6
30978	1e-05	4e-05	0.00011	0.00012	-0.00033	0.00018	-4e-05	9e-05	6
30979	1e-05	4e-05	0.00011	0.00012	-0.00033	0.00018	-4e-05	9e-05	6
30980	1e-05	4e-05	0.00011	0.00012	-0.00033	0.00018	-4e-05	9e-05	6
30981	1e-05	4e-05	0.00011	0.00012	-0.00033	0.00018	-4e-05	9e-05	6
30982	1e-05	4e-05	0.00011	0.00012	-0.00033	0.00018	-4e-05	9e-05	6
30983	1e-05	4e-05	0.00011	0.00012	-0.00033	0.00018	-4e-05	9e-05	6
30984	1e-05	4e-05	0.00011	0.00012	-0.00033	0.00018	-4e-05	9e-05	6
30985	1e-05	4e-05	0.00011	0.00012	-0.00033	0.00018	-4e-05	9e-05	6
30986	1e-05	4e-05	0.00011	0.00012	-0.00033	0.00018	-4e-05	9e-05	6
30988	1e-05	4e-05	0.00011	0.00012	-0.00033	0.00018	-4e-05	9e-05	6
30989	1e-05	4e-05	0.00011	0.00012	-0.00033	0.00018	-4e-05	9e-05	6
30990	1e-05	4e-05	0.00011	0.00012	-0.00033	0.00018	-4e-05	9e-05	6
30991	1e-05	4e-05	0.00011	0.00012	-0.00033	0.00018	-4e-05	9e-05	6
30992	1e-05	4e-05	0.00011	0.00012	-0.00033	0.00018	-4e-05	9e-05	6
30993	1e-05	4e-05	0.00011	0.00012	-0.00033	0.00018	-4e-05	9e-05	6
30994	1e-05	4e-05	0.00011	0.00012	-0.00033	0.00018	-4e-05	9e-05	6
30995	1e-05	4e-05	0.00011	0.00012	-0.00033	0.00018	-4e-05	9e-05	6
30996	1e-05	4e-05	0.00011	0.00012	-0.00033	0.00018	-4e-05	9e-05	6
30997	1e-05	4e-05	0.00011	0.00012	-0.00033	0.00018	-4e-05	9e-05	6
30998	1e-05	4e-05	0.00011	0.00012	-0.00033	0.00018	-4e-05	9e-05	6
30999	1e-05	4e-05	0.00011	0.00012	-0.00033	0.00018	-4e-05	9e-05	6
31000	1e-05	4e-05	0.00011	0.00012	-0.00033	0.00018	-4e-05	9e-05	6
31001	3e-05	5e-05	6e-05	3e-05	-0.00013	0.00114	0.0002	0.00081	6
31002	0.00013	4e-05	-5e-05	-0.00012	-0.00013	0.00022	-0.00018	0.00082	6
31003	0.00013	4e-05	-5e-05	-0.00012	-0.00013	0.00022	-0.00018	0.00082	6
31004	0.00013	4e-05	-5e-05	-0.00012	-0.00013	0.00022	-0.00018	0.00082	6
31005	0.00013	4e-05	-5e-05	-0.00012	-0.00013	0.00022	-0.00018	0.00082	6
31006	0.00013	4e-05	-5e-05	-0.00012	-0.00013	0.00022	-0.00018	0.00082	6
31007	0.00013	4e-05	-5e-05	-0.00012	-0.00013	0.00022	-0.00018	0.00082	6
31008	0.00013	4e-05	-5e-05	-0.00012	-0.00013	0.00022	-0.00018	0.00082	6
31009	0.00013	4e-05	-5e-05	-0.00012	-0.00013	0.00022	-0.00018	0.00082	6
31010	0.00013	4e-05	-5e-05	-0.00012	-0.00013	0.00022	-0.00018	0.00082	6
31011	0.00013	4e-05	-5e-05	-0.00012	-0.00013	0.00022	-0.00018	0.00082	6
31012	0.00013	4e-05	-5e-05	-0.00012	-0.00013	0.00022	-0.00018	0.00082	6
31013	0.00013	4e-05	-5e-05	-0.00012	-0.00013	0.00022	-0.00018	0.00082	6
31014	0.00013	4e-05	-5e-05	-0.00012	-0.00013	0.00022	-0.00018	0.00082	6
31015	0.00013	4e-05	-5e-05	-0.00012	-0.00013	0.00022	-0.00018	0.00082	6
31016	0.00013	4e-05	-5e-05	-0.00012	-0.00013	0.00022	-0.00018	0.00082	6
31017	0.00013	4e-05	-5e-05	-0.00012	-0.00013	0.00022	-0.00018	0.00082	6
31018	0.00013	4e-05	-5e-05	-0.00012	-0.00013	0.00022	-0.00018	0.00082	6
31019	0.00013	4e-05	-5e-05	-0.00012	-0.00013	0.00022	-0.00018	0.00082	6
31020	0.00013	4e-05	-5e-05	-0.00012	-0.00013	0.00022	-0.00018	0.00082	6
31021	0.00013	4e-05	-5e-05	-0.00012	-0.00013	0.00022	-0.00018	0.00082	6
31022	0.00013	4e-05	-5e-05	-0.00012	-0.00013	0.00022	-0.00018	0.00082	6
31023	-0.00041	-8e-05	-8e-05	-8e-05	-7e-05	-0.00111	-0.00026	-8e-05	6
31024	-0.0003	-1e-05	4e-05	3e-05	0	8e-05	8e-05	8e-05	6
31025	-0.00023	-7e-05	-3e-05	-0.00015	0.00012	3e-05	-7e-05	-0.00032	6
31026	-0.00023	-7e-05	-3e-05	-0.00015	0.00012	3e-05	-7e-05	-0.00032	6
31027	-0.00023	-7e-05	-3e-05	-0.00015	0.00012	3e-05	-7e-05	-0.00032	6
31028	-0.00023	-7e-05	-3e-05	-0.00015	0.00012	3e-05	-7e-05	-0.00032	6
31029	-0.00023	-7e-05	-3e-05	-0.00015	0.00012	3e-05	-7e-05	-0.00032	6
31030	7e-05	1e-05	3e-05	9e-05	0.00059	0.00038	-0.00016	0.00016	6
31031	7e-05	1e-05	3e-05	9e-05	0.00059	0.00038	-0.00016	0.00016	6
31032	7e-05	1e-05	3e-05	9e-05	0.00059	0.00038	-0.00016	0.00016	6
31033	7e-05	1e-05	3e-05	9e-05	0.00059	0.00038	-0.00016	0.00016	6
31034	7e-05	1e-05	3e-05	9e-05	0.00059	0.00038	-0.00016	0.00016	6
31035	7e-05	1e-05	3e-05	9e-05	0.00059	0.00038	-0.00016	0.00016	6
31036	7e-05	1e-05	3e-05	9e-05	0.00059	0.00038	-0.00016	0.00016	6
31038	0.00023	4e-05	1e-05	6e-05	-0.00011	-0.00074	-0.00017	-0.00011	6
31039	0.00023	4e-05	1e-05	6e-05	-0.00011	-0.00074	-0.00017	-0.00011	6
31040	0.00023	4e-05	1e-05	6e-05	-0.00011	-0.00074	-0.00017	-0.00011	6
31041	0.00023	4e-05	1e-05	6e-05	-0.00011	-0.00074	-0.00017	-0.00011	6
31042	0.00023	4e-05	1e-05	6e-05	-0.00011	-0.00074	-0.00017	-0.00011	6
31043	0.00023	4e-05	1e-05	6e-05	-0.00011	-0.00074	-0.00017	-0.00011	6
31044	0.00023	4e-05	1e-05	6e-05	-0.00011	-0.00074	-0.00017	-0.00011	6
31045	0.00023	4e-05	1e-05	6e-05	-0.00011	-0.00074	-0.00017	-0.00011	6
31046	0.00023	4e-05	1e-05	6e-05	-0.00011	-0.00074	-0.00017	-0.00011	6
31047	0.00023	4e-05	1e-05	6e-05	-0.00011	-0.00074	-0.00017	-0.00011	6
31048	0.00023	4e-05	1e-05	6e-05	-0.00011	-0.00074	-0.00017	-0.00011	6
31049	0.00023	4e-05	1e-05	6e-05	-0.00011	-0.00074	-0.00017	-0.00011	6
31050	0.00023	4e-05	1e-05	6e-05	-0.00011	-0.00074	-0.00017	-0.00011	6
31051	0.00023	4e-05	1e-05	6e-05	-0.00011	-0.00074	-0.00017	-0.00011	6
31052	0.00023	4e-05	1e-05	6e-05	-0.00011	-0.00074	-0.00017	-0.00011	6
31053	0.00023	4e-05	1e-05	6e-05	-0.00011	-0.00074	-0.00017	-0.00011	6
31054	0.00023	4e-05	1e-05	6e-05	-0.00011	-0.00074	-0.00017	-0.00011	6
31055	0.00023	4e-05	1e-05	6e-05	-0.00011	-0.00074	-0.00017	-0.00011	6
31056	0.00023	4e-05	1e-05	6e-05	-0.00011	-0.00074	-0.00017	-0.00011	6
31057	0.00023	4e-05	1e-05	6e-05	-0.00011	-0.00074	-0.00017	-0.00011	6
31058	0.00023	4e-05	1e-05	6e-05	-0.00011	-0.00074	-0.00017	-0.00011	6
31059	0.00023	4e-05	1e-05	6e-05	-0.00011	-0.00074	-0.00017	-0.00011	6
31060	0.00023	4e-05	1e-05	6e-05	-0.00011	-0.00074	-0.00017	-0.00011	6
31061	-0.00012	1e-05	-1e-05	-0.00018	4e-05	-0.00068	0.00014	-0.0003	6
31062	-0.00021	0	2e-05	5e-05	0.00067	0.00027	0.00036	0.0001	6
31063	-0.00021	0	2e-05	5e-05	0.00067	0.00027	0.00036	0.0001	6
31064	-0.00021	0	2e-05	5e-05	0.00067	0.00027	0.00036	0.0001	6
31065	-0.00021	0	2e-05	5e-05	0.00067	0.00027	0.00036	0.0001	6
31066	-0.00021	0	2e-05	5e-05	0.00067	0.00027	0.00036	0.0001	6
31067	-0.00021	0	2e-05	5e-05	0.00067	0.00027	0.00036	0.0001	6
31068	-0.00021	0	2e-05	5e-05	0.00067	0.00027	0.00036	0.0001	6
31069	-0.00021	0	2e-05	5e-05	0.00067	0.00027	0.00036	0.0001	6
31070	-0.00021	0	2e-05	5e-05	0.00067	0.00027	0.00036	0.0001	6
31071	-0.00021	0	2e-05	5e-05	0.00067	0.00027	0.00036	0.0001	6
31072	-0.00021	0	2e-05	5e-05	0.00067	0.00027	0.00036	0.0001	6
31073	-0.00021	0	2e-05	5e-05	0.00067	0.00027	0.00036	0.0001	6
31074	-0.00021	0	2e-05	5e-05	0.00067	0.00027	0.00036	0.0001	6
31075	-0.00021	0	2e-05	5e-05	0.00067	0.00027	0.00036	0.0001	6
31076	-0.00021	0	2e-05	5e-05	0.00067	0.00027	0.00036	0.0001	6
31077	-0.00021	0	2e-05	5e-05	0.00067	0.00027	0.00036	0.0001	6
31078	-0.00021	0	2e-05	5e-05	0.00067	0.00027	0.00036	0.0001	6
31079	-0.00021	0	2e-05	5e-05	0.00067	0.00027	0.00036	0.0001	6
31080	-0.00021	0	2e-05	5e-05	0.00067	0.00027	0.00036	0.0001	6
31081	-0.00021	0	2e-05	5e-05	0.00067	0.00027	0.00036	0.0001	6
31082	-0.00021	0	2e-05	5e-05	0.00067	0.00027	0.00036	0.0001	6
31083	0.00013	1e-05	0	-2e-05	0.00022	0.00061	9e-05	0.00024	6
31084	9e-05	1e-05	-2e-05	-1e-05	9e-05	-0.0001	-0.00025	-7e-05	6
31085	0.0003	2e-05	-1e-05	-0.0002	-0.00128	-0.00053	0.00018	0.00027	6
31086	0.0003	2e-05	-1e-05	-0.0002	-0.00128	-0.00053	0.00018	0.00027	6
31088	0.0003	2e-05	-1e-05	-0.0002	-0.00128	-0.00053	0.00018	0.00027	6
31089	0.0003	2e-05	-1e-05	-0.0002	-0.00128	-0.00053	0.00018	0.00027	6
31090	-0.00013	3e-05	0	6e-05	0.0002	0.00014	-0.0001	0	6
31091	-0.00013	3e-05	0	6e-05	0.0002	0.00014	-0.0001	0	6
31092	-0.00013	3e-05	0	6e-05	0.0002	0.00014	-0.0001	0	6
31093	-0.00013	3e-05	0	6e-05	0.0002	0.00014	-0.0001	0	6
31094	-0.00013	3e-05	0	6e-05	0.0002	0.00014	-0.0001	0	6
31095	-0.00013	3e-05	0	6e-05	0.0002	0.00014	-0.0001	0	6
31096	-0.00013	3e-05	0	6e-05	0.0002	0.00014	-0.0001	0	6
31097	-0.0001	-9e-05	-6e-05	-0.00014	-0.00021	7e-05	-4e-05	-0.00036	6
31098	-0.0001	-9e-05	-6e-05	-0.00014	-0.00021	7e-05	-4e-05	-0.00036	6
31099	-0.0001	-9e-05	-6e-05	-0.00014	-0.00021	7e-05	-4e-05	-0.00036	6
31100	-0.0001	-9e-05	-6e-05	-0.00014	-0.00021	7e-05	-4e-05	-0.00036	6
31101	-0.0001	-9e-05	-6e-05	-0.00014	-0.00021	7e-05	-4e-05	-0.00036	6
31102	-0.0001	-9e-05	-6e-05	-0.00014	-0.00021	7e-05	-4e-05	-0.00036	6
31103	-0.0001	-9e-05	-6e-05	-0.00014	-0.00021	7e-05	-4e-05	-0.00036	6
31104	-0.0001	-9e-05	-6e-05	-0.00014	-0.00021	7e-05	-4e-05	-0.00036	6
31105	-0.0001	-9e-05	-6e-05	-0.00014	-0.00021	7e-05	-4e-05	-0.00036	6
31106	-0.0001	-9e-05	-6e-05	-0.00014	-0.00021	7e-05	-4e-05	-0.00036	6
31107	-0.0001	-9e-05	-6e-05	-0.00014	-0.00021	7e-05	-4e-05	-0.00036	6
31108	-0.0001	-9e-05	-6e-05	-0.00014	-0.00021	7e-05	-4e-05	-0.00036	6
31109	-0.0001	-9e-05	-6e-05	-0.00014	-0.00021	7e-05	-4e-05	-0.00036	6
31110	-0.0001	-9e-05	-6e-05	-0.00014	-0.00021	7e-05	-4e-05	-0.00036	6
31111	-0.0001	-9e-05	-6e-05	-0.00014	-0.00021	7e-05	-4e-05	-0.00036	6
31112	-0.0001	-9e-05	-6e-05	-0.00014	-0.00021	7e-05	-4e-05	-0.00036	6
31113	-7e-05	-5e-05	-3e-05	-0.00013	-0.00028	-0.00049	-1e-05	2e-05	6
31114	-7e-05	-5e-05	-3e-05	-0.00013	-0.00028	-0.00049	-1e-05	2e-05	6
31115	4e-05	4e-05	0	-1e-05	0.00044	-0.00049	-2e-05	-0.00071	6
31117	4e-05	4e-05	0	-1e-05	0.00044	-0.00049	-2e-05	-0.00071	6
31118	4e-05	4e-05	0	-1e-05	0.00044	-0.00049	-2e-05	-0.00071	6
31119	4e-05	4e-05	0	-1e-05	0.00044	-0.00049	-2e-05	-0.00071	6
31120	4e-05	4e-05	0	-1e-05	0.00044	-0.00049	-2e-05	-0.00071	6
31121	4e-05	4e-05	0	-1e-05	0.00044	-0.00049	-2e-05	-0.00071	6
31122	4e-05	4e-05	0	-1e-05	0.00044	-0.00049	-2e-05	-0.00071	6
31123	4e-05	4e-05	0	-1e-05	0.00044	-0.00049	-2e-05	-0.00071	6
31124	4e-05	4e-05	0	-1e-05	0.00044	-0.00049	-2e-05	-0.00071	6
31125	4e-05	4e-05	0	-1e-05	0.00044	-0.00049	-2e-05	-0.00071	6
31126	4e-05	4e-05	0	-1e-05	0.00044	-0.00049	-2e-05	-0.00071	6
31127	4e-05	4e-05	0	-1e-05	0.00044	-0.00049	-2e-05	-0.00071	6
31128	4e-05	4e-05	0	-1e-05	0.00044	-0.00049	-2e-05	-0.00071	6
31129	4e-05	4e-05	0	-1e-05	0.00044	-0.00049	-2e-05	-0.00071	6
31130	4e-05	4e-05	0	-1e-05	0.00044	-0.00049	-2e-05	-0.00071	6
31131	4e-05	4e-05	0	-1e-05	0.00044	-0.00049	-2e-05	-0.00071	6
31132	4e-05	4e-05	0	-1e-05	0.00044	-0.00049	-2e-05	-0.00071	6
31133	4e-05	4e-05	0	-1e-05	0.00044	-0.00049	-2e-05	-0.00071	6
31134	4e-05	4e-05	0	-1e-05	0.00044	-0.00049	-2e-05	-0.00071	6
31135	4e-05	4e-05	0	-1e-05	0.00044	-0.00049	-2e-05	-0.00071	6
31136	0.00016	4e-05	6e-05	0.00023	-0.00071	-0.00018	-0.00012	0.00044	6
31138	0	0	3e-05	8e-05	0.00037	0.00039	4e-05	0.00046	6
31139	0	0	3e-05	8e-05	0.00037	0.00039	4e-05	0.00046	6
31140	0	0	3e-05	8e-05	0.00037	0.00039	4e-05	0.00046	6
31141	0	0	3e-05	8e-05	0.00037	0.00039	4e-05	0.00046	6
31142	0	0	3e-05	8e-05	0.00037	0.00039	4e-05	0.00046	6
31143	0	0	3e-05	8e-05	0.00037	0.00039	4e-05	0.00046	6
31144	0	0	3e-05	8e-05	0.00037	0.00039	4e-05	0.00046	6
31145	0	0	3e-05	8e-05	0.00037	0.00039	4e-05	0.00046	6
31146	0	0	3e-05	8e-05	0.00037	0.00039	4e-05	0.00046	6
31147	0	0	3e-05	8e-05	0.00037	0.00039	4e-05	0.00046	6
31148	0	0	3e-05	8e-05	0.00037	0.00039	4e-05	0.00046	6
31149	0	0	3e-05	8e-05	0.00037	0.00039	4e-05	0.00046	6
31150	4e-05	2e-05	-1e-05	6e-05	0.00044	4e-05	-0.0001	-0.00053	6
31151	4e-05	2e-05	-1e-05	6e-05	0.00044	4e-05	-0.0001	-0.00053	6
31152	4e-05	2e-05	-1e-05	6e-05	0.00044	4e-05	-0.0001	-0.00053	6
31153	4e-05	2e-05	-1e-05	6e-05	0.00044	4e-05	-0.0001	-0.00053	6
31154	4e-05	2e-05	-1e-05	6e-05	0.00044	4e-05	-0.0001	-0.00053	6
31155	4e-05	2e-05	-1e-05	6e-05	0.00044	4e-05	-0.0001	-0.00053	6
31156	4e-05	2e-05	-1e-05	6e-05	0.00044	4e-05	-0.0001	-0.00053	6
31157	4e-05	2e-05	-1e-05	6e-05	0.00044	4e-05	-0.0001	-0.00053	6
31158	4e-05	2e-05	-1e-05	6e-05	0.00044	4e-05	-0.0001	-0.00053	6
31159	4e-05	2e-05	-1e-05	6e-05	0.00044	4e-05	-0.0001	-0.00053	6
31160	4e-05	2e-05	-1e-05	6e-05	0.00044	4e-05	-0.0001	-0.00053	6
31161	4e-05	2e-05	-1e-05	6e-05	0.00044	4e-05	-0.0001	-0.00053	6
31162	4e-05	2e-05	-1e-05	6e-05	0.00044	4e-05	-0.0001	-0.00053	6
31164	4e-05	2e-05	-1e-05	6e-05	0.00044	4e-05	-0.0001	-0.00053	6
31165	3e-05	0	-2e-05	-7e-05	-0.00012	0.00062	-1e-05	-0.00015	6
31166	3e-05	0	-2e-05	-7e-05	-0.00012	0.00062	-1e-05	-0.00015	6
31167	3e-05	0	-2e-05	-7e-05	-0.00012	0.00062	-1e-05	-0.00015	6
31168	3e-05	0	-2e-05	-7e-05	-0.00012	0.00062	-1e-05	-0.00015	6
31169	3e-05	0	-2e-05	-7e-05	-0.00012	0.00062	-1e-05	-0.00015	6
31170	3e-05	0	-2e-05	-7e-05	-0.00012	0.00062	-1e-05	-0.00015	6
31171	3e-05	0	-2e-05	-7e-05	-0.00012	0.00062	-1e-05	-0.00015	6
31172	3e-05	0	-2e-05	-7e-05	-0.00012	0.00062	-1e-05	-0.00015	6
31173	-9e-05	-7e-05	-1e-05	0.00013	-0.00028	0.00032	0.00035	0.00041	6
31174	-9e-05	-7e-05	-1e-05	0.00013	-0.00028	0.00032	0.00035	0.00041	6
31175	-9e-05	-7e-05	-1e-05	0.00013	-0.00028	0.00032	0.00035	0.00041	6
31176	-9e-05	-7e-05	-1e-05	0.00013	-0.00028	0.00032	0.00035	0.00041	6
31177	-9e-05	-7e-05	-1e-05	0.00013	-0.00028	0.00032	0.00035	0.00041	6
31178	-9e-05	-7e-05	-1e-05	0.00013	-0.00028	0.00032	0.00035	0.00041	6
31179	-9e-05	-7e-05	-1e-05	0.00013	-0.00028	0.00032	0.00035	0.00041	6
31180	-9e-05	-7e-05	-1e-05	0.00013	-0.00028	0.00032	0.00035	0.00041	6
31181	-9e-05	-7e-05	-1e-05	0.00013	-0.00028	0.00032	0.00035	0.00041	6
31182	-9e-05	-7e-05	-1e-05	0.00013	-0.00028	0.00032	0.00035	0.00041	6
31183	-9e-05	-7e-05	-1e-05	0.00013	-0.00028	0.00032	0.00035	0.00041	6
31184	-9e-05	-7e-05	-1e-05	0.00013	-0.00028	0.00032	0.00035	0.00041	6
31185	-9e-05	-7e-05	-1e-05	0.00013	-0.00028	0.00032	0.00035	0.00041	6
31186	-9e-05	-7e-05	-1e-05	0.00013	-0.00028	0.00032	0.00035	0.00041	6
31188	-9e-05	-7e-05	-1e-05	0.00013	-0.00028	0.00032	0.00035	0.00041	6
31189	-9e-05	-7e-05	-1e-05	0.00013	-0.00028	0.00032	0.00035	0.00041	6
31190	-9e-05	-7e-05	-1e-05	0.00013	-0.00028	0.00032	0.00035	0.00041	6
31191	-9e-05	-7e-05	-1e-05	0.00013	-0.00028	0.00032	0.00035	0.00041	6
31192	-9e-05	-7e-05	-1e-05	0.00013	-0.00028	0.00032	0.00035	0.00041	6
31193	-9e-05	-7e-05	-1e-05	0.00013	-0.00028	0.00032	0.00035	0.00041	6
31194	-9e-05	-7e-05	-1e-05	0.00013	-0.00028	0.00032	0.00035	0.00041	6
31195	-0.00039	-0.0001	-7e-05	-0.00022	-0.00034	-0.00035	-0.00013	-0.00016	6
31196	5e-05	4e-05	3e-05	0.00025	0.0007	0.00038	-0.00015	-0.00032	6
31197	5e-05	4e-05	3e-05	0.00025	0.0007	0.00038	-0.00015	-0.00032	6
31198	5e-05	4e-05	3e-05	0.00025	0.0007	0.00038	-0.00015	-0.00032	6
31199	5e-05	4e-05	3e-05	0.00025	0.0007	0.00038	-0.00015	-0.00032	6
31200	5e-05	4e-05	3e-05	0.00025	0.0007	0.00038	-0.00015	-0.00032	6
31201	5e-05	4e-05	3e-05	0.00025	0.0007	0.00038	-0.00015	-0.00032	6
31202	5e-05	4e-05	3e-05	0.00025	0.0007	0.00038	-0.00015	-0.00032	6
31203	5e-05	4e-05	3e-05	0.00025	0.0007	0.00038	-0.00015	-0.00032	6
31204	5e-05	4e-05	3e-05	0.00025	0.0007	0.00038	-0.00015	-0.00032	6
31205	5e-05	4e-05	3e-05	0.00025	0.0007	0.00038	-0.00015	-0.00032	6
31206	5e-05	4e-05	3e-05	0.00025	0.0007	0.00038	-0.00015	-0.00032	6
31207	5e-05	4e-05	3e-05	0.00025	0.0007	0.00038	-0.00015	-0.00032	6
31208	5e-05	4e-05	3e-05	0.00025	0.0007	0.00038	-0.00015	-0.00032	6
31209	5e-05	4e-05	3e-05	0.00025	0.0007	0.00038	-0.00015	-0.00032	6
31210	5e-05	4e-05	3e-05	0.00025	0.0007	0.00038	-0.00015	-0.00032	6
31211	5e-05	4e-05	3e-05	0.00025	0.0007	0.00038	-0.00015	-0.00032	6
31212	5e-05	4e-05	3e-05	0.00025	0.0007	0.00038	-0.00015	-0.00032	6
31213	5e-05	4e-05	3e-05	0.00025	0.0007	0.00038	-0.00015	-0.00032	6
31214	5e-05	4e-05	3e-05	0.00025	0.0007	0.00038	-0.00015	-0.00032	6
31215	5e-05	4e-05	3e-05	0.00025	0.0007	0.00038	-0.00015	-0.00032	6
31216	5e-05	4e-05	3e-05	0.00025	0.0007	0.00038	-0.00015	-0.00032	6
31217	5e-05	4e-05	3e-05	0.00025	0.0007	0.00038	-0.00015	-0.00032	6
31218	5e-05	4e-05	3e-05	0.00025	0.0007	0.00038	-0.00015	-0.00032	6
31219	-0.00025	-1e-05	5e-05	-0.00011	-0.00021	-0.00021	-0.00014	-0.00025	6
31220	-3e-05	0	1e-05	7e-05	-0.0002	-0.00025	-0.00015	-0.00034	6
31221	-3e-05	0	1e-05	7e-05	-0.0002	-0.00025	-0.00015	-0.00034	6
31222	-3e-05	0	1e-05	7e-05	-0.0002	-0.00025	-0.00015	-0.00034	6
31223	-3e-05	0	1e-05	7e-05	-0.0002	-0.00025	-0.00015	-0.00034	6
31224	-3e-05	0	1e-05	7e-05	-0.0002	-0.00025	-0.00015	-0.00034	6
31225	-3e-05	0	1e-05	7e-05	-0.0002	-0.00025	-0.00015	-0.00034	6
31226	-3e-05	0	1e-05	7e-05	-0.0002	-0.00025	-0.00015	-0.00034	6
31227	-3e-05	0	1e-05	7e-05	-0.0002	-0.00025	-0.00015	-0.00034	6
31228	-3e-05	0	1e-05	7e-05	-0.0002	-0.00025	-0.00015	-0.00034	6
31229	-3e-05	0	1e-05	7e-05	-0.0002	-0.00025	-0.00015	-0.00034	6
31230	-3e-05	0	1e-05	7e-05	-0.0002	-0.00025	-0.00015	-0.00034	6
31231	-3e-05	0	1e-05	7e-05	-0.0002	-0.00025	-0.00015	-0.00034	6
31232	0.00048	0	-1e-05	0.00013	-0.00045	-0.0002	-1e-05	-6e-05	6
31234	-8e-05	-2e-05	1e-05	-3e-05	-0.00039	-0.00027	-0.00025	0.00017	6
31235	-8e-05	-2e-05	1e-05	-3e-05	-0.00039	-0.00027	-0.00025	0.00017	6
31236	-8e-05	-2e-05	1e-05	-3e-05	-0.00039	-0.00027	-0.00025	0.00017	6
31238	-8e-05	-2e-05	1e-05	-3e-05	-0.00039	-0.00027	-0.00025	0.00017	6
31239	-8e-05	-2e-05	1e-05	-3e-05	-0.00039	-0.00027	-0.00025	0.00017	6
31240	-8e-05	-2e-05	1e-05	-3e-05	-0.00039	-0.00027	-0.00025	0.00017	6
31241	-8e-05	-2e-05	1e-05	-3e-05	-0.00039	-0.00027	-0.00025	0.00017	6
31242	-8e-05	-2e-05	1e-05	-3e-05	-0.00039	-0.00027	-0.00025	0.00017	6
31243	-8e-05	-2e-05	1e-05	-3e-05	-0.00039	-0.00027	-0.00025	0.00017	6
31244	-8e-05	-2e-05	1e-05	-3e-05	-0.00039	-0.00027	-0.00025	0.00017	6
31245	-8e-05	-2e-05	1e-05	-3e-05	-0.00039	-0.00027	-0.00025	0.00017	6
31246	-8e-05	-2e-05	1e-05	-3e-05	-0.00039	-0.00027	-0.00025	0.00017	6
31247	-8e-05	-2e-05	1e-05	-3e-05	-0.00039	-0.00027	-0.00025	0.00017	6
31248	-8e-05	-2e-05	1e-05	-3e-05	-0.00039	-0.00027	-0.00025	0.00017	6
31249	-8e-05	-2e-05	1e-05	-3e-05	-0.00039	-0.00027	-0.00025	0.00017	6
31250	-8e-05	-2e-05	1e-05	-3e-05	-0.00039	-0.00027	-0.00025	0.00017	6
31251	-8e-05	-2e-05	1e-05	-3e-05	-0.00039	-0.00027	-0.00025	0.00017	6
31252	-8e-05	-2e-05	1e-05	-3e-05	-0.00039	-0.00027	-0.00025	0.00017	6
31253	-8e-05	-2e-05	1e-05	-3e-05	-0.00039	-0.00027	-0.00025	0.00017	6
31254	-8e-05	-2e-05	1e-05	-3e-05	-0.00039	-0.00027	-0.00025	0.00017	6
31255	-0.0001	-7e-05	-8e-05	-6e-05	-0.00036	0.00017	0.00023	-0.00054	6
31256	-0.00012	8e-05	1e-05	-3e-05	0.00018	-4e-05	-0.00015	0.00014	6
31257	-0.00012	8e-05	1e-05	-3e-05	0.00018	-4e-05	-0.00015	0.00014	6
31258	-0.00012	8e-05	1e-05	-3e-05	0.00018	-4e-05	-0.00015	0.00014	6
31259	-0.00012	8e-05	1e-05	-3e-05	0.00018	-4e-05	-0.00015	0.00014	6
31260	-0.00012	8e-05	1e-05	-3e-05	0.00018	-4e-05	-0.00015	0.00014	6
31261	-0.00012	8e-05	1e-05	-3e-05	0.00018	-4e-05	-0.00015	0.00014	6
31262	-0.00012	8e-05	1e-05	-3e-05	0.00018	-4e-05	-0.00015	0.00014	6
31263	-0.00012	8e-05	1e-05	-3e-05	0.00018	-4e-05	-0.00015	0.00014	6
31264	-0.00012	8e-05	1e-05	-3e-05	0.00018	-4e-05	-0.00015	0.00014	6
31265	-0.00012	8e-05	1e-05	-3e-05	0.00018	-4e-05	-0.00015	0.00014	6
31266	-0.00012	8e-05	1e-05	-3e-05	0.00018	-4e-05	-0.00015	0.00014	6
31267	-0.00012	8e-05	1e-05	-3e-05	0.00018	-4e-05	-0.00015	0.00014	6
31268	-0.00012	8e-05	1e-05	-3e-05	0.00018	-4e-05	-0.00015	0.00014	6
31269	-0.00012	8e-05	1e-05	-3e-05	0.00018	-4e-05	-0.00015	0.00014	6
31270	-0.00012	8e-05	1e-05	-3e-05	0.00018	-4e-05	-0.00015	0.00014	6
31271	-0.00012	8e-05	1e-05	-3e-05	0.00018	-4e-05	-0.00015	0.00014	6
31272	-0.00012	8e-05	1e-05	-3e-05	0.00018	-4e-05	-0.00015	0.00014	6
31273	-0.00012	8e-05	1e-05	-3e-05	0.00018	-4e-05	-0.00015	0.00014	6
31274	-0.00012	8e-05	1e-05	-3e-05	0.00018	-4e-05	-0.00015	0.00014	6
31275	-0.00012	8e-05	1e-05	-3e-05	0.00018	-4e-05	-0.00015	0.00014	6
31276	-0.00012	8e-05	1e-05	-3e-05	0.00018	-4e-05	-0.00015	0.00014	6
31277	-0.00012	8e-05	1e-05	-3e-05	0.00018	-4e-05	-0.00015	0.00014	6
31278	0.00015	4e-05	4e-05	0.00022	4e-05	-0.00017	-0.0001	-0.00044	6
31279	-0.00011	-7e-05	-3e-05	-4e-05	-0.00052	-0.00022	-0.00021	-0.00027	6
31280	-0.00011	-7e-05	-3e-05	-4e-05	-0.00052	-0.00022	-0.00021	-0.00027	6
31281	-0.00011	-7e-05	-3e-05	-4e-05	-0.00052	-0.00022	-0.00021	-0.00027	6
31282	-0.00011	-7e-05	-3e-05	-4e-05	-0.00052	-0.00022	-0.00021	-0.00027	6
31283	-0.00011	-7e-05	-3e-05	-4e-05	-0.00052	-0.00022	-0.00021	-0.00027	6
31284	-0.00011	-7e-05	-3e-05	-4e-05	-0.00052	-0.00022	-0.00021	-0.00027	6
31285	-0.00011	-7e-05	-3e-05	-4e-05	-0.00052	-0.00022	-0.00021	-0.00027	6
31286	-0.00011	-7e-05	-3e-05	-4e-05	-0.00052	-0.00022	-0.00021	-0.00027	6
31288	-0.00011	-7e-05	-3e-05	-4e-05	-0.00052	-0.00022	-0.00021	-0.00027	6
31289	-0.00011	-7e-05	-3e-05	-4e-05	-0.00052	-0.00022	-0.00021	-0.00027	6
31290	-0.00011	-7e-05	-3e-05	-4e-05	-0.00052	-0.00022	-0.00021	-0.00027	6
31291	-0.00011	-7e-05	-3e-05	-4e-05	-0.00052	-0.00022	-0.00021	-0.00027	6
31292	-0.00011	-7e-05	-3e-05	-4e-05	-0.00052	-0.00022	-0.00021	-0.00027	6
31293	-8e-05	-5e-05	-2e-05	1e-05	-8e-05	-0.00064	-0.00014	3e-05	6
31294	0.00021	4e-05	5e-05	4e-05	0.00048	-0.00032	0.0001	0.00018	6
31295	0.00021	4e-05	5e-05	4e-05	0.00048	-0.00032	0.0001	0.00018	6
31296	0.00021	4e-05	5e-05	4e-05	0.00048	-0.00032	0.0001	0.00018	6
31297	0.00021	4e-05	5e-05	4e-05	0.00048	-0.00032	0.0001	0.00018	6
31298	0.00021	4e-05	5e-05	4e-05	0.00048	-0.00032	0.0001	0.00018	6
31299	0.00021	4e-05	5e-05	4e-05	0.00048	-0.00032	0.0001	0.00018	6
31300	0.00021	4e-05	5e-05	4e-05	0.00048	-0.00032	0.0001	0.00018	6
31301	0.00021	4e-05	5e-05	4e-05	0.00048	-0.00032	0.0001	0.00018	6
31302	0.00021	4e-05	5e-05	4e-05	0.00048	-0.00032	0.0001	0.00018	6
31303	0.00021	4e-05	5e-05	4e-05	0.00048	-0.00032	0.0001	0.00018	6
31304	0.00021	4e-05	5e-05	4e-05	0.00048	-0.00032	0.0001	0.00018	6
31305	0.00021	4e-05	5e-05	4e-05	0.00048	-0.00032	0.0001	0.00018	6
31306	0.00021	4e-05	5e-05	4e-05	0.00048	-0.00032	0.0001	0.00018	6
31307	0.00021	4e-05	5e-05	4e-05	0.00048	-0.00032	0.0001	0.00018	6
31308	0.00021	4e-05	5e-05	4e-05	0.00048	-0.00032	0.0001	0.00018	6
31309	0.00021	4e-05	5e-05	4e-05	0.00048	-0.00032	0.0001	0.00018	6
31310	0.00021	4e-05	5e-05	4e-05	0.00048	-0.00032	0.0001	0.00018	6
31311	0.00021	4e-05	5e-05	4e-05	0.00048	-0.00032	0.0001	0.00018	6
31312	0.00021	4e-05	5e-05	4e-05	0.00048	-0.00032	0.0001	0.00018	6
31313	0.00021	4e-05	5e-05	4e-05	0.00048	-0.00032	0.0001	0.00018	6
31314	0.00021	4e-05	5e-05	4e-05	0.00048	-0.00032	0.0001	0.00018	6
31315	-0.00024	0	8e-05	0.00011	0.00063	0.00039	6e-05	-0.00035	6
31316	-0.00028	-9e-05	-0.00012	-0.00017	-0.00026	0.00026	-8e-05	-0.00023	6
31317	-0.00028	-9e-05	-0.00012	-0.00017	-0.00026	0.00026	-8e-05	-0.00023	6
31318	-0.00028	-9e-05	-0.00012	-0.00017	-0.00026	0.00026	-8e-05	-0.00023	6
31319	-0.00028	-9e-05	-0.00012	-0.00017	-0.00026	0.00026	-8e-05	-0.00023	6
31320	-0.00028	-9e-05	-0.00012	-0.00017	-0.00026	0.00026	-8e-05	-0.00023	6
31321	-0.00028	-9e-05	-0.00012	-0.00017	-0.00026	0.00026	-8e-05	-0.00023	6
31322	-0.00028	-9e-05	-0.00012	-0.00017	-0.00026	0.00026	-8e-05	-0.00023	6
31323	-0.00028	-9e-05	-0.00012	-0.00017	-0.00026	0.00026	-8e-05	-0.00023	6
31324	-0.00028	-9e-05	-0.00012	-0.00017	-0.00026	0.00026	-8e-05	-0.00023	6
31325	-0.00028	-9e-05	-0.00012	-0.00017	-0.00026	0.00026	-8e-05	-0.00023	6
31326	-0.00028	-9e-05	-0.00012	-0.00017	-0.00026	0.00026	-8e-05	-0.00023	6
31327	-0.00028	-9e-05	-0.00012	-0.00017	-0.00026	0.00026	-8e-05	-0.00023	6
31328	-0.00028	-9e-05	-0.00012	-0.00017	-0.00026	0.00026	-8e-05	-0.00023	6
31329	-0.00028	-9e-05	-0.00012	-0.00017	-0.00026	0.00026	-8e-05	-0.00023	6
31330	-0.00028	-9e-05	-0.00012	-0.00017	-0.00026	0.00026	-8e-05	-0.00023	6
31331	-0.00028	-9e-05	-0.00012	-0.00017	-0.00026	0.00026	-8e-05	-0.00023	6
31332	-0.00028	-9e-05	-0.00012	-0.00017	-0.00026	0.00026	-8e-05	-0.00023	6
31333	-0.00028	-9e-05	-0.00012	-0.00017	-0.00026	0.00026	-8e-05	-0.00023	6
31334	-0.00028	-9e-05	-0.00012	-0.00017	-0.00026	0.00026	-8e-05	-0.00023	6
31335	-0.00028	-9e-05	-0.00012	-0.00017	-0.00026	0.00026	-8e-05	-0.00023	6
31336	-0.00028	-9e-05	-0.00012	-0.00017	-0.00026	0.00026	-8e-05	-0.00023	6
31338	0.00023	-6e-05	-8e-05	-0.00026	-0.00064	1e-05	7e-05	0.00025	6
31339	-7e-05	-6e-05	-4e-05	-5e-05	-6e-05	-0.00064	-8e-05	-0.00103	6
31340	-7e-05	-6e-05	-4e-05	-5e-05	-6e-05	-0.00064	-8e-05	-0.00103	6
31341	-7e-05	-6e-05	-4e-05	-5e-05	-6e-05	-0.00064	-8e-05	-0.00103	6
31342	-7e-05	-6e-05	-4e-05	-5e-05	-6e-05	-0.00064	-8e-05	-0.00103	6
31343	-7e-05	-6e-05	-4e-05	-5e-05	-6e-05	-0.00064	-8e-05	-0.00103	6
31344	-7e-05	-6e-05	-4e-05	-5e-05	-6e-05	-0.00064	-8e-05	-0.00103	6
31345	-7e-05	-6e-05	-4e-05	-5e-05	-6e-05	-0.00064	-8e-05	-0.00103	6
31346	-7e-05	-6e-05	-4e-05	-5e-05	-6e-05	-0.00064	-8e-05	-0.00103	6
31347	-7e-05	-6e-05	-4e-05	-5e-05	-6e-05	-0.00064	-8e-05	-0.00103	6
31348	-7e-05	-6e-05	-4e-05	-5e-05	-6e-05	-0.00064	-8e-05	-0.00103	6
31349	-7e-05	-6e-05	-4e-05	-5e-05	-6e-05	-0.00064	-8e-05	-0.00103	6
31350	-7e-05	-6e-05	-4e-05	-5e-05	-6e-05	-0.00064	-8e-05	-0.00103	6
31351	-7e-05	-6e-05	-4e-05	-5e-05	-6e-05	-0.00064	-8e-05	-0.00103	6
31352	-7e-05	-6e-05	-4e-05	-5e-05	-6e-05	-0.00064	-8e-05	-0.00103	6
31353	-7e-05	-6e-05	-4e-05	-5e-05	-6e-05	-0.00064	-8e-05	-0.00103	6
31354	-7e-05	-6e-05	-4e-05	-5e-05	-6e-05	-0.00064	-8e-05	-0.00103	6
31355	-7e-05	-6e-05	-4e-05	-5e-05	-6e-05	-0.00064	-8e-05	-0.00103	6
31356	-7e-05	-6e-05	-4e-05	-5e-05	-6e-05	-0.00064	-8e-05	-0.00103	6
31357	-7e-05	-6e-05	-4e-05	-5e-05	-6e-05	-0.00064	-8e-05	-0.00103	6
31358	-7e-05	-6e-05	-4e-05	-5e-05	-6e-05	-0.00064	-8e-05	-0.00103	6
31359	-7e-05	-6e-05	-4e-05	-5e-05	-6e-05	-0.00064	-8e-05	-0.00103	6
31360	-7e-05	-6e-05	-4e-05	-5e-05	-6e-05	-0.00064	-8e-05	-0.00103	6
31361	0.00012	-3e-05	-6e-05	-9e-05	-0.00122	0.00029	-8e-05	0.00015	6
31362	0.00032	3e-05	-2e-05	0	-1e-05	0.00011	3e-05	9e-05	6
31363	0.00032	3e-05	-2e-05	0	-1e-05	0.00011	3e-05	9e-05	6
31364	0.00032	3e-05	-2e-05	0	-1e-05	0.00011	3e-05	9e-05	6
31365	0.00032	3e-05	-2e-05	0	-1e-05	0.00011	3e-05	9e-05	6
31366	0.00032	3e-05	-2e-05	0	-1e-05	0.00011	3e-05	9e-05	6
31367	0.00032	3e-05	-2e-05	0	-1e-05	0.00011	3e-05	9e-05	6
31368	0.00032	3e-05	-2e-05	0	-1e-05	0.00011	3e-05	9e-05	6
31369	0.00032	3e-05	-2e-05	0	-1e-05	0.00011	3e-05	9e-05	6
31370	0.00032	3e-05	-2e-05	0	-1e-05	0.00011	3e-05	9e-05	6
31371	0.00032	3e-05	-2e-05	0	-1e-05	0.00011	3e-05	9e-05	6
31372	0.00032	3e-05	-2e-05	0	-1e-05	0.00011	3e-05	9e-05	6
31373	0.00032	3e-05	-2e-05	0	-1e-05	0.00011	3e-05	9e-05	6
31374	0.00032	3e-05	-2e-05	0	-1e-05	0.00011	3e-05	9e-05	6
31375	-0.00021	-8e-05	-6e-05	-1e-05	-6e-05	-0.00043	-7e-05	-1e-05	6
31376	-6e-05	2e-05	-3e-05	-0.00012	-0.00039	0.00045	3e-05	-0.00057	6
31377	-6e-05	2e-05	-3e-05	-0.00012	-0.00039	0.00045	3e-05	-0.00057	6
31378	-6e-05	2e-05	-3e-05	-0.00012	-0.00039	0.00045	3e-05	-0.00057	6
31379	-6e-05	2e-05	-3e-05	-0.00012	-0.00039	0.00045	3e-05	-0.00057	6
31380	-6e-05	2e-05	-3e-05	-0.00012	-0.00039	0.00045	3e-05	-0.00057	6
31381	-6e-05	2e-05	-3e-05	-0.00012	-0.00039	0.00045	3e-05	-0.00057	6
31382	-6e-05	2e-05	-3e-05	-0.00012	-0.00039	0.00045	3e-05	-0.00057	6
31383	-6e-05	2e-05	-3e-05	-0.00012	-0.00039	0.00045	3e-05	-0.00057	6
31384	-6e-05	2e-05	-3e-05	-0.00012	-0.00039	0.00045	3e-05	-0.00057	6
31385	-6e-05	2e-05	-3e-05	-0.00012	-0.00039	0.00045	3e-05	-0.00057	6
31386	-6e-05	2e-05	-3e-05	-0.00012	-0.00039	0.00045	3e-05	-0.00057	6
31388	-6e-05	2e-05	-3e-05	-0.00012	-0.00039	0.00045	3e-05	-0.00057	6
31389	-6e-05	2e-05	-3e-05	-0.00012	-0.00039	0.00045	3e-05	-0.00057	6
31390	0.00011	2e-05	-1e-05	-3e-05	2e-05	-0.00045	0.00026	0.00027	6
31391	0.00011	2e-05	-1e-05	-3e-05	2e-05	-0.00045	0.00026	0.00027	6
31392	0.00011	2e-05	-1e-05	-3e-05	2e-05	-0.00045	0.00026	0.00027	6
31393	0.00011	2e-05	-1e-05	-3e-05	2e-05	-0.00045	0.00026	0.00027	6
31394	0.00011	2e-05	-1e-05	-3e-05	2e-05	-0.00045	0.00026	0.00027	6
31395	0.00011	2e-05	-1e-05	-3e-05	2e-05	-0.00045	0.00026	0.00027	6
31396	0.00011	2e-05	-1e-05	-3e-05	2e-05	-0.00045	0.00026	0.00027	6
31397	0.00011	2e-05	-1e-05	-3e-05	2e-05	-0.00045	0.00026	0.00027	6
31398	9e-05	-1e-05	0	9e-05	0.00032	-0.00018	-9e-05	0.00025	6
31399	9e-05	-1e-05	0	9e-05	0.00032	-0.00018	-9e-05	0.00025	6
31400	9e-05	-1e-05	0	9e-05	0.00032	-0.00018	-9e-05	0.00025	6
31401	9e-05	-1e-05	0	9e-05	0.00032	-0.00018	-9e-05	0.00025	6
31402	9e-05	-1e-05	0	9e-05	0.00032	-0.00018	-9e-05	0.00025	6
31403	9e-05	-1e-05	0	9e-05	0.00032	-0.00018	-9e-05	0.00025	6
31404	9e-05	-1e-05	0	9e-05	0.00032	-0.00018	-9e-05	0.00025	6
31405	9e-05	-1e-05	0	9e-05	0.00032	-0.00018	-9e-05	0.00025	6
31406	9e-05	-1e-05	0	9e-05	0.00032	-0.00018	-9e-05	0.00025	6
31407	9e-05	-1e-05	0	9e-05	0.00032	-0.00018	-9e-05	0.00025	6
31408	9e-05	-1e-05	0	9e-05	0.00032	-0.00018	-9e-05	0.00025	6
31409	9e-05	-1e-05	0	9e-05	0.00032	-0.00018	-9e-05	0.00025	6
31410	9e-05	-1e-05	0	9e-05	0.00032	-0.00018	-9e-05	0.00025	6
31411	9e-05	-1e-05	0	9e-05	0.00032	-0.00018	-9e-05	0.00025	6
31412	9e-05	-1e-05	0	9e-05	0.00032	-0.00018	-9e-05	0.00025	6
31413	-0.00033	-8e-05	-3e-05	-0.00012	-0.00072	-0.00019	1e-05	0.00018	6
31414	-0.00033	-8e-05	-3e-05	-0.00012	-0.00072	-0.00019	1e-05	0.00018	6
31415	-0.00033	-8e-05	-3e-05	-0.00012	-0.00072	-0.00019	1e-05	0.00018	6
31416	-0.00033	-8e-05	-3e-05	-0.00012	-0.00072	-0.00019	1e-05	0.00018	6
31417	-0.00033	-8e-05	-3e-05	-0.00012	-0.00072	-0.00019	1e-05	0.00018	6
31418	-0.00033	-8e-05	-3e-05	-0.00012	-0.00072	-0.00019	1e-05	0.00018	6
31419	-0.00033	-8e-05	-3e-05	-0.00012	-0.00072	-0.00019	1e-05	0.00018	6
31420	-0.00033	-8e-05	-3e-05	-0.00012	-0.00072	-0.00019	1e-05	0.00018	6
31421	-0.00033	-8e-05	-3e-05	-0.00012	-0.00072	-0.00019	1e-05	0.00018	6
31422	-0.00033	-8e-05	-3e-05	-0.00012	-0.00072	-0.00019	1e-05	0.00018	6
31423	-0.00033	-8e-05	-3e-05	-0.00012	-0.00072	-0.00019	1e-05	0.00018	6
31424	-0.00033	-8e-05	-3e-05	-0.00012	-0.00072	-0.00019	1e-05	0.00018	6
31425	-0.00033	-8e-05	-3e-05	-0.00012	-0.00072	-0.00019	1e-05	0.00018	6
31426	-0.00033	-8e-05	-3e-05	-0.00012	-0.00072	-0.00019	1e-05	0.00018	6
31427	-0.00033	-8e-05	-3e-05	-0.00012	-0.00072	-0.00019	1e-05	0.00018	6
31428	-0.00033	-8e-05	-3e-05	-0.00012	-0.00072	-0.00019	1e-05	0.00018	6
31429	-0.00033	-8e-05	-3e-05	-0.00012	-0.00072	-0.00019	1e-05	0.00018	6
31430	-0.00033	-8e-05	-3e-05	-0.00012	-0.00072	-0.00019	1e-05	0.00018	6
31431	-0.00033	-8e-05	-3e-05	-0.00012	-0.00072	-0.00019	1e-05	0.00018	6
31432	-0.00033	-8e-05	-3e-05	-0.00012	-0.00072	-0.00019	1e-05	0.00018	6
31433	-0.00033	-8e-05	-3e-05	-0.00012	-0.00072	-0.00019	1e-05	0.00018	6
31434	-0.00033	-8e-05	-3e-05	-0.00012	-0.00072	-0.00019	1e-05	0.00018	6
31435	-0.00033	-8e-05	-3e-05	-0.00012	-0.00072	-0.00019	1e-05	0.00018	6
31436	-0.00033	-8e-05	-3e-05	-0.00012	-0.00072	-0.00019	1e-05	0.00018	6
31438	-0.00033	-8e-05	-3e-05	-0.00012	-0.00072	-0.00019	1e-05	0.00018	6
31439	-0.00033	-8e-05	-3e-05	-0.00012	-0.00072	-0.00019	1e-05	0.00018	6
31440	-0.00033	-8e-05	-3e-05	-0.00012	-0.00072	-0.00019	1e-05	0.00018	6
31441	-0.00033	-8e-05	-3e-05	-0.00012	-0.00072	-0.00019	1e-05	0.00018	6
31442	-0.00033	-8e-05	-3e-05	-0.00012	-0.00072	-0.00019	1e-05	0.00018	6
31443	-2e-05	3e-05	4e-05	0.0003	0.00086	-6e-05	-3e-05	-3e-05	6
31444	8e-05	0	3e-05	0.00016	0.00062	-0.00022	1e-05	0.00054	6
31445	8e-05	0	3e-05	0.00016	0.00062	-0.00022	1e-05	0.00054	6
31446	8e-05	0	3e-05	0.00016	0.00062	-0.00022	1e-05	0.00054	6
31447	8e-05	0	3e-05	0.00016	0.00062	-0.00022	1e-05	0.00054	6
31448	8e-05	0	3e-05	0.00016	0.00062	-0.00022	1e-05	0.00054	6
31449	1e-05	-8e-05	-3e-05	-7e-05	-0.00017	-0.00011	0.00023	0.00024	6
31450	-0.00012	2e-05	-2e-05	-2e-05	0.00041	0.00029	-0.00038	-0.00055	6
31451	-0.00012	2e-05	-2e-05	-2e-05	0.00041	0.00029	-0.00038	-0.00055	6
31452	-0.00012	2e-05	-2e-05	-2e-05	0.00041	0.00029	-0.00038	-0.00055	6
31453	-0.00012	2e-05	-2e-05	-2e-05	0.00041	0.00029	-0.00038	-0.00055	6
31454	-0.00012	2e-05	-2e-05	-2e-05	0.00041	0.00029	-0.00038	-0.00055	6
31455	-0.00012	2e-05	-2e-05	-2e-05	0.00041	0.00029	-0.00038	-0.00055	6
31456	-0.00012	2e-05	-2e-05	-2e-05	0.00041	0.00029	-0.00038	-0.00055	6
31457	-0.00012	2e-05	-2e-05	-2e-05	0.00041	0.00029	-0.00038	-0.00055	6
31458	-0.00018	-4e-05	-2e-05	-0.00018	0.00039	-0.00059	3e-05	-0.00076	6
31459	-0.00018	-4e-05	-2e-05	-0.00018	0.00039	-0.00059	3e-05	-0.00076	6
31460	-0.00018	-4e-05	-2e-05	-0.00018	0.00039	-0.00059	3e-05	-0.00076	6
31461	-0.00018	-4e-05	-2e-05	-0.00018	0.00039	-0.00059	3e-05	-0.00076	6
31462	-0.00018	-4e-05	-2e-05	-0.00018	0.00039	-0.00059	3e-05	-0.00076	6
31463	-0.00018	-4e-05	-2e-05	-0.00018	0.00039	-0.00059	3e-05	-0.00076	6
31464	-0.00018	-4e-05	-2e-05	-0.00018	0.00039	-0.00059	3e-05	-0.00076	6
31465	-0.00018	-4e-05	-2e-05	-0.00018	0.00039	-0.00059	3e-05	-0.00076	6
31466	-0.00018	-4e-05	-2e-05	-0.00018	0.00039	-0.00059	3e-05	-0.00076	6
31467	-0.00018	-4e-05	-2e-05	-0.00018	0.00039	-0.00059	3e-05	-0.00076	6
31468	-0.00018	-4e-05	-2e-05	-0.00018	0.00039	-0.00059	3e-05	-0.00076	6
31469	-0.00018	-4e-05	-2e-05	-0.00018	0.00039	-0.00059	3e-05	-0.00076	6
31470	-0.00018	-4e-05	-2e-05	-0.00018	0.00039	-0.00059	3e-05	-0.00076	6
31471	-0.00018	-4e-05	-2e-05	-0.00018	0.00039	-0.00059	3e-05	-0.00076	6
31472	-0.00018	-4e-05	-2e-05	-0.00018	0.00039	-0.00059	3e-05	-0.00076	6
31473	8e-05	-0.0001	-0.00011	-4e-05	-0.0002	0.00012	0.0001	0.00031	6
31474	8e-05	-0.0001	-0.00011	-4e-05	-0.0002	0.00012	0.0001	0.00031	6
31475	8e-05	-0.0001	-0.00011	-4e-05	-0.0002	0.00012	0.0001	0.00031	6
31476	8e-05	-0.0001	-0.00011	-4e-05	-0.0002	0.00012	0.0001	0.00031	6
31477	8e-05	-0.0001	-0.00011	-4e-05	-0.0002	0.00012	0.0001	0.00031	6
31478	8e-05	-0.0001	-0.00011	-4e-05	-0.0002	0.00012	0.0001	0.00031	6
31479	8e-05	-0.0001	-0.00011	-4e-05	-0.0002	0.00012	0.0001	0.00031	6
31480	8e-05	-0.0001	-0.00011	-4e-05	-0.0002	0.00012	0.0001	0.00031	6
31481	8e-05	-0.0001	-0.00011	-4e-05	-0.0002	0.00012	0.0001	0.00031	6
31482	8e-05	-0.0001	-0.00011	-4e-05	-0.0002	0.00012	0.0001	0.00031	6
31483	8e-05	-0.0001	-0.00011	-4e-05	-0.0002	0.00012	0.0001	0.00031	6
31484	8e-05	-0.0001	-0.00011	-4e-05	-0.0002	0.00012	0.0001	0.00031	6
31485	8e-05	-0.0001	-0.00011	-4e-05	-0.0002	0.00012	0.0001	0.00031	6
31486	8e-05	-0.0001	-0.00011	-4e-05	-0.0002	0.00012	0.0001	0.00031	6
31488	8e-05	-0.0001	-0.00011	-4e-05	-0.0002	0.00012	0.0001	0.00031	6
31489	8e-05	-0.0001	-0.00011	-4e-05	-0.0002	0.00012	0.0001	0.00031	6
31490	8e-05	-0.0001	-0.00011	-4e-05	-0.0002	0.00012	0.0001	0.00031	6
31491	8e-05	-0.0001	-0.00011	-4e-05	-0.0002	0.00012	0.0001	0.00031	6
31492	8e-05	-0.0001	-0.00011	-4e-05	-0.0002	0.00012	0.0001	0.00031	6
31493	8e-05	-0.0001	-0.00011	-4e-05	-0.0002	0.00012	0.0001	0.00031	6
31494	8e-05	-0.0001	-0.00011	-4e-05	-0.0002	0.00012	0.0001	0.00031	6
31495	1e-05	4e-05	3e-05	0.00014	0.00027	-0.00019	2e-05	-3e-05	6
31496	0.00022	0	1e-05	8e-05	0.00025	-6e-05	0.0001	0.0003	6
31497	-7e-05	7e-05	6e-05	-0.00024	-0.00074	0.00046	0.00018	0.00104	6
31498	-7e-05	7e-05	6e-05	-0.00024	-0.00074	0.00046	0.00018	0.00104	6
31499	-7e-05	7e-05	6e-05	-0.00024	-0.00074	0.00046	0.00018	0.00104	6
31500	-7e-05	7e-05	6e-05	-0.00024	-0.00074	0.00046	0.00018	0.00104	6
31501	-7e-05	7e-05	6e-05	-0.00024	-0.00074	0.00046	0.00018	0.00104	6
31502	-7e-05	7e-05	6e-05	-0.00024	-0.00074	0.00046	0.00018	0.00104	6
31503	-7e-05	7e-05	6e-05	-0.00024	-0.00074	0.00046	0.00018	0.00104	6
31504	-7e-05	7e-05	6e-05	-0.00024	-0.00074	0.00046	0.00018	0.00104	6
31505	-7e-05	7e-05	6e-05	-0.00024	-0.00074	0.00046	0.00018	0.00104	6
31506	-7e-05	7e-05	6e-05	-0.00024	-0.00074	0.00046	0.00018	0.00104	6
31507	-7e-05	7e-05	6e-05	-0.00024	-0.00074	0.00046	0.00018	0.00104	6
31508	-7e-05	7e-05	6e-05	-0.00024	-0.00074	0.00046	0.00018	0.00104	6
31509	-0.00017	-0.00012	-0.0001	-6e-05	-0.00041	0.00031	8e-05	-0.0005	6
31510	-0.00012	-3e-05	-6e-05	-7e-05	-0.0005	-0.00022	-0.0001	-0.00017	6
31511	-0.00012	-3e-05	-6e-05	-7e-05	-0.0005	-0.00022	-0.0001	-0.00017	6
31512	-0.00012	-3e-05	-6e-05	-7e-05	-0.0005	-0.00022	-0.0001	-0.00017	6
31513	-0.00012	-3e-05	-6e-05	-7e-05	-0.0005	-0.00022	-0.0001	-0.00017	6
31514	-0.00012	-3e-05	-6e-05	-7e-05	-0.0005	-0.00022	-0.0001	-0.00017	6
31515	-0.00012	-3e-05	-6e-05	-7e-05	-0.0005	-0.00022	-0.0001	-0.00017	6
31516	-0.00012	-3e-05	-6e-05	-7e-05	-0.0005	-0.00022	-0.0001	-0.00017	6
31517	-0.00012	-3e-05	-6e-05	-7e-05	-0.0005	-0.00022	-0.0001	-0.00017	6
31518	-0.00012	-3e-05	-6e-05	-7e-05	-0.0005	-0.00022	-0.0001	-0.00017	6
31519	-0.00012	-3e-05	-6e-05	-7e-05	-0.0005	-0.00022	-0.0001	-0.00017	6
31520	-0.00012	-3e-05	-6e-05	-7e-05	-0.0005	-0.00022	-0.0001	-0.00017	6
31521	-0.00012	-3e-05	-6e-05	-7e-05	-0.0005	-0.00022	-0.0001	-0.00017	6
31522	-0.00012	-3e-05	-6e-05	-7e-05	-0.0005	-0.00022	-0.0001	-0.00017	6
31523	-0.00012	-3e-05	-6e-05	-7e-05	-0.0005	-0.00022	-0.0001	-0.00017	6
31524	-0.00012	-3e-05	-6e-05	-7e-05	-0.0005	-0.00022	-0.0001	-0.00017	6
31525	1e-05	-2e-05	-2e-05	-8e-05	-0.00014	0.00039	-0.00063	-0.00059	6
31526	1e-05	-2e-05	-2e-05	-8e-05	-0.00014	0.00039	-0.00063	-0.00059	6
31527	1e-05	-2e-05	-2e-05	-8e-05	-0.00014	0.00039	-0.00063	-0.00059	6
31528	1e-05	-2e-05	-2e-05	-8e-05	-0.00014	0.00039	-0.00063	-0.00059	6
31529	1e-05	-2e-05	-2e-05	-8e-05	-0.00014	0.00039	-0.00063	-0.00059	6
31530	1e-05	-2e-05	-2e-05	-8e-05	-0.00014	0.00039	-0.00063	-0.00059	6
31531	1e-05	-2e-05	-2e-05	-8e-05	-0.00014	0.00039	-0.00063	-0.00059	6
31532	1e-05	-2e-05	-2e-05	-8e-05	-0.00014	0.00039	-0.00063	-0.00059	6
31533	-8e-05	-1e-05	-6e-05	-0.00023	-0.0001	-0.00061	6e-05	0.00025	6
31534	-6e-05	-0.00013	-0.0001	-8e-05	-0.00013	0.00036	-1e-05	-0.00058	6
31535	-6e-05	-0.00013	-0.0001	-8e-05	-0.00013	0.00036	-1e-05	-0.00058	6
31536	-6e-05	-0.00013	-0.0001	-8e-05	-0.00013	0.00036	-1e-05	-0.00058	6
31539	-6e-05	-0.00013	-0.0001	-8e-05	-0.00013	0.00036	-1e-05	-0.00058	6
31540	-6e-05	-0.00013	-0.0001	-8e-05	-0.00013	0.00036	-1e-05	-0.00058	6
31541	-6e-05	-0.00013	-0.0001	-8e-05	-0.00013	0.00036	-1e-05	-0.00058	6
31542	-6e-05	-0.00013	-0.0001	-8e-05	-0.00013	0.00036	-1e-05	-0.00058	6
31543	-6e-05	-0.00013	-0.0001	-8e-05	-0.00013	0.00036	-1e-05	-0.00058	6
31544	-6e-05	-0.00013	-0.0001	-8e-05	-0.00013	0.00036	-1e-05	-0.00058	6
31545	-6e-05	-0.00013	-0.0001	-8e-05	-0.00013	0.00036	-1e-05	-0.00058	6
31546	-6e-05	-0.00013	-0.0001	-8e-05	-0.00013	0.00036	-1e-05	-0.00058	6
31547	-6e-05	-0.00013	-0.0001	-8e-05	-0.00013	0.00036	-1e-05	-0.00058	6
31548	-6e-05	-0.00013	-0.0001	-8e-05	-0.00013	0.00036	-1e-05	-0.00058	6
31549	-6e-05	-0.00013	-0.0001	-8e-05	-0.00013	0.00036	-1e-05	-0.00058	6
31550	-6e-05	-0.00013	-0.0001	-8e-05	-0.00013	0.00036	-1e-05	-0.00058	6
31551	-6e-05	-0.00013	-0.0001	-8e-05	-0.00013	0.00036	-1e-05	-0.00058	6
31552	-6e-05	-0.00013	-0.0001	-8e-05	-0.00013	0.00036	-1e-05	-0.00058	6
31553	-6e-05	-0.00013	-0.0001	-8e-05	-0.00013	0.00036	-1e-05	-0.00058	6
31554	-6e-05	-0.00013	-0.0001	-8e-05	-0.00013	0.00036	-1e-05	-0.00058	6
31555	-6e-05	-1e-05	4e-05	4e-05	-0.00052	0.00025	-0.00012	-0.00026	6
31556	-0.0002	-1e-05	-3e-05	6e-05	-0.00016	0.00013	3e-05	-0.00063	6
31557	-0.0002	-1e-05	-3e-05	6e-05	-0.00016	0.00013	3e-05	-0.00063	6
31558	-0.0002	-1e-05	-3e-05	6e-05	-0.00016	0.00013	3e-05	-0.00063	6
31559	-0.0002	-1e-05	-3e-05	6e-05	-0.00016	0.00013	3e-05	-0.00063	6
31560	-0.0002	-1e-05	-3e-05	6e-05	-0.00016	0.00013	3e-05	-0.00063	6
31561	-0.0002	-1e-05	-3e-05	6e-05	-0.00016	0.00013	3e-05	-0.00063	6
31562	-0.0002	-1e-05	-3e-05	6e-05	-0.00016	0.00013	3e-05	-0.00063	6
31563	-0.0002	-1e-05	-3e-05	6e-05	-0.00016	0.00013	3e-05	-0.00063	6
31564	-0.0002	-1e-05	-3e-05	6e-05	-0.00016	0.00013	3e-05	-0.00063	6
31565	-0.0002	-1e-05	-3e-05	6e-05	-0.00016	0.00013	3e-05	-0.00063	6
31566	-0.0002	-1e-05	-3e-05	6e-05	-0.00016	0.00013	3e-05	-0.00063	6
31567	-0.0002	-1e-05	-3e-05	6e-05	-0.00016	0.00013	3e-05	-0.00063	6
31568	-0.0002	-1e-05	-3e-05	6e-05	-0.00016	0.00013	3e-05	-0.00063	6
31569	-0.0002	-1e-05	-3e-05	6e-05	-0.00016	0.00013	3e-05	-0.00063	6
31570	-0.0002	-1e-05	-3e-05	6e-05	-0.00016	0.00013	3e-05	-0.00063	6
31571	-0.0002	-1e-05	-3e-05	6e-05	-0.00016	0.00013	3e-05	-0.00063	6
31572	-0.0002	-1e-05	-3e-05	6e-05	-0.00016	0.00013	3e-05	-0.00063	6
31573	-0.0002	-1e-05	-3e-05	6e-05	-0.00016	0.00013	3e-05	-0.00063	6
31574	-0.0002	-1e-05	-3e-05	6e-05	-0.00016	0.00013	3e-05	-0.00063	6
31575	-0.0002	-1e-05	-3e-05	6e-05	-0.00016	0.00013	3e-05	-0.00063	6
31576	-0.0002	-1e-05	-3e-05	6e-05	-0.00016	0.00013	3e-05	-0.00063	6
31577	-0.0002	-1e-05	-3e-05	6e-05	-0.00016	0.00013	3e-05	-0.00063	6
31578	-5e-05	-2e-05	0	0.0001	0.00014	0.00023	-4e-05	0.00015	6
31579	-0.00018	-1e-05	2e-05	-3e-05	-0.00091	0.00018	-0.00019	-0.00034	6
31580	0.00024	8e-05	4e-05	3e-05	0.00015	-0.00038	8e-05	0.00011	6
31581	0.00024	8e-05	4e-05	3e-05	0.00015	-0.00038	8e-05	0.00011	6
31582	0.00024	8e-05	4e-05	3e-05	0.00015	-0.00038	8e-05	0.00011	6
31583	0.00024	8e-05	4e-05	3e-05	0.00015	-0.00038	8e-05	0.00011	6
31584	0.00024	8e-05	4e-05	3e-05	0.00015	-0.00038	8e-05	0.00011	6
31585	0.00024	8e-05	4e-05	3e-05	0.00015	-0.00038	8e-05	0.00011	6
31586	0.00024	8e-05	4e-05	3e-05	0.00015	-0.00038	8e-05	0.00011	6
31588	0.00024	8e-05	4e-05	3e-05	0.00015	-0.00038	8e-05	0.00011	6
31589	0.00024	8e-05	4e-05	3e-05	0.00015	-0.00038	8e-05	0.00011	6
31590	0.00024	8e-05	4e-05	3e-05	0.00015	-0.00038	8e-05	0.00011	6
31591	0.00024	8e-05	4e-05	3e-05	0.00015	-0.00038	8e-05	0.00011	6
31592	0.00024	8e-05	4e-05	3e-05	0.00015	-0.00038	8e-05	0.00011	6
31593	0.00029	0.0001	5e-05	5e-05	0.00018	-0.00069	-0.0002	-7e-05	6
31594	0.00029	0.0001	5e-05	5e-05	0.00018	-0.00069	-0.0002	-7e-05	6
31595	0.00029	0.0001	5e-05	5e-05	0.00018	-0.00069	-0.0002	-7e-05	6
31596	0.00029	0.0001	5e-05	5e-05	0.00018	-0.00069	-0.0002	-7e-05	6
31597	0.00029	0.0001	5e-05	5e-05	0.00018	-0.00069	-0.0002	-7e-05	6
31598	0.00029	0.0001	5e-05	5e-05	0.00018	-0.00069	-0.0002	-7e-05	6
31599	0.00029	0.0001	5e-05	5e-05	0.00018	-0.00069	-0.0002	-7e-05	6
31600	0.00029	0.0001	5e-05	5e-05	0.00018	-0.00069	-0.0002	-7e-05	6
31601	0.00029	0.0001	5e-05	5e-05	0.00018	-0.00069	-0.0002	-7e-05	6
31602	0.00029	0.0001	5e-05	5e-05	0.00018	-0.00069	-0.0002	-7e-05	6
31603	0.00029	0.0001	5e-05	5e-05	0.00018	-0.00069	-0.0002	-7e-05	6
31604	0.00029	0.0001	5e-05	5e-05	0.00018	-0.00069	-0.0002	-7e-05	6
31605	0.00029	0.0001	5e-05	5e-05	0.00018	-0.00069	-0.0002	-7e-05	6
31606	0.00029	0.0001	5e-05	5e-05	0.00018	-0.00069	-0.0002	-7e-05	6
31607	0.00029	0.0001	5e-05	5e-05	0.00018	-0.00069	-0.0002	-7e-05	6
31608	0.00029	0.0001	5e-05	5e-05	0.00018	-0.00069	-0.0002	-7e-05	6
31609	0.00029	0.0001	5e-05	5e-05	0.00018	-0.00069	-0.0002	-7e-05	6
31610	0.00029	0.0001	5e-05	5e-05	0.00018	-0.00069	-0.0002	-7e-05	6
31611	0.00029	0.0001	5e-05	5e-05	0.00018	-0.00069	-0.0002	-7e-05	6
31612	0.00029	0.0001	5e-05	5e-05	0.00018	-0.00069	-0.0002	-7e-05	6
31613	0.00029	0.0001	5e-05	5e-05	0.00018	-0.00069	-0.0002	-7e-05	6
31614	0.00029	0.0001	5e-05	5e-05	0.00018	-0.00069	-0.0002	-7e-05	6
31615	-4e-05	-7e-05	-0.00012	-0.00018	-0.00044	-0.00058	-2e-05	0.00012	6
31616	0.00053	5e-05	4e-05	0.00016	-8e-05	-0.00065	6e-05	0.0004	6
31617	0.00053	5e-05	4e-05	0.00016	-8e-05	-0.00065	6e-05	0.0004	6
31618	0.00053	5e-05	4e-05	0.00016	-8e-05	-0.00065	6e-05	0.0004	6
31619	0.00053	5e-05	4e-05	0.00016	-8e-05	-0.00065	6e-05	0.0004	6
31620	0.00053	5e-05	4e-05	0.00016	-8e-05	-0.00065	6e-05	0.0004	6
31621	0.00053	5e-05	4e-05	0.00016	-8e-05	-0.00065	6e-05	0.0004	6
31622	0.00053	5e-05	4e-05	0.00016	-8e-05	-0.00065	6e-05	0.0004	6
31623	0.00053	5e-05	4e-05	0.00016	-8e-05	-0.00065	6e-05	0.0004	6
31624	0.00053	5e-05	4e-05	0.00016	-8e-05	-0.00065	6e-05	0.0004	6
31625	0.00053	5e-05	4e-05	0.00016	-8e-05	-0.00065	6e-05	0.0004	6
31626	0.00053	5e-05	4e-05	0.00016	-8e-05	-0.00065	6e-05	0.0004	6
31627	0.00053	5e-05	4e-05	0.00016	-8e-05	-0.00065	6e-05	0.0004	6
31628	0.00053	5e-05	4e-05	0.00016	-8e-05	-0.00065	6e-05	0.0004	6
31629	0.00053	5e-05	4e-05	0.00016	-8e-05	-0.00065	6e-05	0.0004	6
31630	0.00053	5e-05	4e-05	0.00016	-8e-05	-0.00065	6e-05	0.0004	6
31631	0.00053	5e-05	4e-05	0.00016	-8e-05	-0.00065	6e-05	0.0004	6
31632	0.00053	5e-05	4e-05	0.00016	-8e-05	-0.00065	6e-05	0.0004	6
31633	0.00053	5e-05	4e-05	0.00016	-8e-05	-0.00065	6e-05	0.0004	6
31634	0.00053	5e-05	4e-05	0.00016	-8e-05	-0.00065	6e-05	0.0004	6
31635	0.00053	5e-05	4e-05	0.00016	-8e-05	-0.00065	6e-05	0.0004	6
31636	0.00053	5e-05	4e-05	0.00016	-8e-05	-0.00065	6e-05	0.0004	6
31638	8e-05	0	-1e-05	7e-05	-0.00041	-0.00034	-3e-05	-0.00028	6
31639	-0.00069	-3e-05	3e-05	0.00011	0.00066	0.00083	0.00043	-0.00022	6
31640	-0.00069	-3e-05	3e-05	0.00011	0.00066	0.00083	0.00043	-0.00022	6
31641	-0.00069	-3e-05	3e-05	0.00011	0.00066	0.00083	0.00043	-0.00022	6
31642	-0.00069	-3e-05	3e-05	0.00011	0.00066	0.00083	0.00043	-0.00022	6
31643	-0.00069	-3e-05	3e-05	0.00011	0.00066	0.00083	0.00043	-0.00022	6
31644	-0.00069	-3e-05	3e-05	0.00011	0.00066	0.00083	0.00043	-0.00022	6
31645	-0.00069	-3e-05	3e-05	0.00011	0.00066	0.00083	0.00043	-0.00022	6
31646	-0.00069	-3e-05	3e-05	0.00011	0.00066	0.00083	0.00043	-0.00022	6
31647	-0.00069	-3e-05	3e-05	0.00011	0.00066	0.00083	0.00043	-0.00022	6
31648	-0.00069	-3e-05	3e-05	0.00011	0.00066	0.00083	0.00043	-0.00022	6
31649	-0.00069	-3e-05	3e-05	0.00011	0.00066	0.00083	0.00043	-0.00022	6
31650	-0.00069	-3e-05	3e-05	0.00011	0.00066	0.00083	0.00043	-0.00022	6
31651	-0.00069	-3e-05	3e-05	0.00011	0.00066	0.00083	0.00043	-0.00022	6
31652	-0.00069	-3e-05	3e-05	0.00011	0.00066	0.00083	0.00043	-0.00022	6
31653	3e-05	-2e-05	-3e-05	0.00015	-3e-05	-0.00071	-0.00012	0.0007	6
31654	3e-05	-2e-05	-3e-05	0.00015	-3e-05	-0.00071	-0.00012	0.0007	6
31655	3e-05	-2e-05	-3e-05	0.00015	-3e-05	-0.00071	-0.00012	0.0007	6
31656	3e-05	-2e-05	-3e-05	0.00015	-3e-05	-0.00071	-0.00012	0.0007	6
31657	3e-05	-2e-05	-3e-05	0.00015	-3e-05	-0.00071	-0.00012	0.0007	6
31658	3e-05	-2e-05	-3e-05	0.00015	-3e-05	-0.00071	-0.00012	0.0007	6
31659	3e-05	-2e-05	-3e-05	0.00015	-3e-05	-0.00071	-0.00012	0.0007	6
31660	3e-05	-2e-05	-3e-05	0.00015	-3e-05	-0.00071	-0.00012	0.0007	6
31661	3e-05	-2e-05	-3e-05	0.00015	-3e-05	-0.00071	-0.00012	0.0007	6
31662	3e-05	-2e-05	-3e-05	0.00015	-3e-05	-0.00071	-0.00012	0.0007	6
31663	3e-05	-2e-05	-3e-05	0.00015	-3e-05	-0.00071	-0.00012	0.0007	6
31664	3e-05	-2e-05	-3e-05	0.00015	-3e-05	-0.00071	-0.00012	0.0007	6
31665	3e-05	-2e-05	-3e-05	0.00015	-3e-05	-0.00071	-0.00012	0.0007	6
31666	3e-05	-2e-05	-3e-05	0.00015	-3e-05	-0.00071	-0.00012	0.0007	6
31667	3e-05	-2e-05	-3e-05	0.00015	-3e-05	-0.00071	-0.00012	0.0007	6
31668	3e-05	-2e-05	-3e-05	0.00015	-3e-05	-0.00071	-0.00012	0.0007	6
31669	3e-05	-2e-05	-3e-05	0.00015	-3e-05	-0.00071	-0.00012	0.0007	6
31670	3e-05	-2e-05	-3e-05	0.00015	-3e-05	-0.00071	-0.00012	0.0007	6
31671	3e-05	-2e-05	-3e-05	0.00015	-3e-05	-0.00071	-0.00012	0.0007	6
31672	3e-05	-2e-05	-3e-05	0.00015	-3e-05	-0.00071	-0.00012	0.0007	6
31673	3e-05	-2e-05	-3e-05	0.00015	-3e-05	-0.00071	-0.00012	0.0007	6
31674	3e-05	-2e-05	-3e-05	0.00015	-3e-05	-0.00071	-0.00012	0.0007	6
31675	-1e-05	-1e-05	-6e-05	-0.00013	0.00053	0.00063	0.00025	6e-05	6
31676	-4e-05	-5e-05	-9e-05	-0.00036	-0.00076	0.0001	-4e-05	2e-05	6
31677	-4e-05	-5e-05	-9e-05	-0.00036	-0.00076	0.0001	-4e-05	2e-05	6
31678	-4e-05	-5e-05	-9e-05	-0.00036	-0.00076	0.0001	-4e-05	2e-05	6
31679	-4e-05	-5e-05	-9e-05	-0.00036	-0.00076	0.0001	-4e-05	2e-05	6
31680	-4e-05	-5e-05	-9e-05	-0.00036	-0.00076	0.0001	-4e-05	2e-05	6
31681	-4e-05	-5e-05	-9e-05	-0.00036	-0.00076	0.0001	-4e-05	2e-05	6
31682	-4e-05	-5e-05	-9e-05	-0.00036	-0.00076	0.0001	-4e-05	2e-05	6
31683	-4e-05	-5e-05	-9e-05	-0.00036	-0.00076	0.0001	-4e-05	2e-05	6
31684	-4e-05	-5e-05	-9e-05	-0.00036	-0.00076	0.0001	-4e-05	2e-05	6
31685	-4e-05	-5e-05	-9e-05	-0.00036	-0.00076	0.0001	-4e-05	2e-05	6
31686	-4e-05	-5e-05	-9e-05	-0.00036	-0.00076	0.0001	-4e-05	2e-05	6
31688	-4e-05	-5e-05	-9e-05	-0.00036	-0.00076	0.0001	-4e-05	2e-05	6
31689	-4e-05	-5e-05	-9e-05	-0.00036	-0.00076	0.0001	-4e-05	2e-05	6
31690	-4e-05	-5e-05	-9e-05	-0.00036	-0.00076	0.0001	-4e-05	2e-05	6
31691	-4e-05	-5e-05	-9e-05	-0.00036	-0.00076	0.0001	-4e-05	2e-05	6
31692	-4e-05	-5e-05	-9e-05	-0.00036	-0.00076	0.0001	-4e-05	2e-05	6
31693	-4e-05	-5e-05	-9e-05	-0.00036	-0.00076	0.0001	-4e-05	2e-05	6
31694	-4e-05	-5e-05	-9e-05	-0.00036	-0.00076	0.0001	-4e-05	2e-05	6
31695	-4e-05	-5e-05	-9e-05	-0.00036	-0.00076	0.0001	-4e-05	2e-05	6
31696	-4e-05	-5e-05	-9e-05	-0.00036	-0.00076	0.0001	-4e-05	2e-05	6
31697	-4e-05	-5e-05	-9e-05	-0.00036	-0.00076	0.0001	-4e-05	2e-05	6
31698	-4e-05	-5e-05	-9e-05	-0.00036	-0.00076	0.0001	-4e-05	2e-05	6
31699	-4e-05	-5e-05	-9e-05	-0.00036	-0.00076	0.0001	-4e-05	2e-05	6
31700	0.00013	3e-05	1e-05	-0.00012	-0.00031	-0.00033	-4e-05	0.00054	6
31701	-0.00011	-0.00011	-2e-05	2e-05	-0.00037	0.00044	0.00029	0.00015	6
31702	-0.00011	-0.00011	-2e-05	2e-05	-0.00037	0.00044	0.00029	0.00015	6
31703	-0.00011	-0.00011	-2e-05	2e-05	-0.00037	0.00044	0.00029	0.00015	6
31704	-0.00011	-0.00011	-2e-05	2e-05	-0.00037	0.00044	0.00029	0.00015	6
31705	-0.00011	-0.00011	-2e-05	2e-05	-0.00037	0.00044	0.00029	0.00015	6
31706	-0.00011	-0.00011	-2e-05	2e-05	-0.00037	0.00044	0.00029	0.00015	6
31707	-0.00011	-0.00011	-2e-05	2e-05	-0.00037	0.00044	0.00029	0.00015	6
31708	-0.00011	-0.00011	-2e-05	2e-05	-0.00037	0.00044	0.00029	0.00015	6
31709	-0.00011	-0.00011	-2e-05	2e-05	-0.00037	0.00044	0.00029	0.00015	6
31710	-0.00011	-0.00011	-2e-05	2e-05	-0.00037	0.00044	0.00029	0.00015	6
31711	-0.00011	-0.00011	-2e-05	2e-05	-0.00037	0.00044	0.00029	0.00015	6
31712	-0.00011	-0.00011	-2e-05	2e-05	-0.00037	0.00044	0.00029	0.00015	6
31713	-0.00011	-0.00011	-2e-05	2e-05	-0.00037	0.00044	0.00029	0.00015	6
31714	-0.00011	-0.00011	-2e-05	2e-05	-0.00037	0.00044	0.00029	0.00015	6
31715	-0.00011	-0.00011	-2e-05	2e-05	-0.00037	0.00044	0.00029	0.00015	6
31716	-0.00011	-0.00011	-2e-05	2e-05	-0.00037	0.00044	0.00029	0.00015	6
31717	-0.00011	-0.00011	-2e-05	2e-05	-0.00037	0.00044	0.00029	0.00015	6
31718	-0.00011	-0.00011	-2e-05	2e-05	-0.00037	0.00044	0.00029	0.00015	6
31719	-0.00011	-0.00011	-2e-05	2e-05	-0.00037	0.00044	0.00029	0.00015	6
31720	-0.00011	-0.00011	-2e-05	2e-05	-0.00037	0.00044	0.00029	0.00015	6
31721	0.00014	-0.0001	-0.0001	-0.00019	-0.00019	-0.00011	-8e-05	2e-05	6
31722	-6e-05	1e-05	-1e-05	0.00012	-0.00075	-5e-05	6e-05	-0.00018	6
31723	-6e-05	1e-05	-1e-05	0.00012	-0.00075	-5e-05	6e-05	-0.00018	6
31725	-6e-05	1e-05	-1e-05	0.00012	-0.00075	-5e-05	6e-05	-0.00018	6
31726	-6e-05	1e-05	-1e-05	0.00012	-0.00075	-5e-05	6e-05	-0.00018	6
31727	-6e-05	1e-05	-1e-05	0.00012	-0.00075	-5e-05	6e-05	-0.00018	6
31728	-6e-05	1e-05	-1e-05	0.00012	-0.00075	-5e-05	6e-05	-0.00018	6
31729	-6e-05	1e-05	-1e-05	0.00012	-0.00075	-5e-05	6e-05	-0.00018	6
31730	-6e-05	1e-05	-1e-05	0.00012	-0.00075	-5e-05	6e-05	-0.00018	6
31731	-6e-05	1e-05	-1e-05	0.00012	-0.00075	-5e-05	6e-05	-0.00018	6
31732	-6e-05	1e-05	-1e-05	0.00012	-0.00075	-5e-05	6e-05	-0.00018	6
31733	-6e-05	1e-05	-1e-05	0.00012	-0.00075	-5e-05	6e-05	-0.00018	6
31734	-6e-05	1e-05	-1e-05	0.00012	-0.00075	-5e-05	6e-05	-0.00018	6
31735	8e-05	-3e-05	-5e-05	-0.00011	6e-05	0.00069	-8e-05	0.0005	6
31736	0.00023	7e-05	3e-05	0.00027	0.00112	-0.00032	-0.00034	-0.00015	6
31738	0.00023	7e-05	3e-05	0.00027	0.00112	-0.00032	-0.00034	-0.00015	6
31739	0.00023	7e-05	3e-05	0.00027	0.00112	-0.00032	-0.00034	-0.00015	6
31740	0.00023	7e-05	3e-05	0.00027	0.00112	-0.00032	-0.00034	-0.00015	6
31741	0.00023	7e-05	3e-05	0.00027	0.00112	-0.00032	-0.00034	-0.00015	6
31742	0.00023	7e-05	3e-05	0.00027	0.00112	-0.00032	-0.00034	-0.00015	6
31743	0.00023	7e-05	3e-05	0.00027	0.00112	-0.00032	-0.00034	-0.00015	6
31744	0.00023	7e-05	3e-05	0.00027	0.00112	-0.00032	-0.00034	-0.00015	6
31745	0.00023	7e-05	3e-05	0.00027	0.00112	-0.00032	-0.00034	-0.00015	6
31746	0.00023	7e-05	3e-05	0.00027	0.00112	-0.00032	-0.00034	-0.00015	6
31747	0.00023	7e-05	3e-05	0.00027	0.00112	-0.00032	-0.00034	-0.00015	6
31748	0.00023	7e-05	3e-05	0.00027	0.00112	-0.00032	-0.00034	-0.00015	6
31749	0.00023	7e-05	3e-05	0.00027	0.00112	-0.00032	-0.00034	-0.00015	6
31750	0.00023	7e-05	3e-05	0.00027	0.00112	-0.00032	-0.00034	-0.00015	6
31751	0.00023	7e-05	3e-05	0.00027	0.00112	-0.00032	-0.00034	-0.00015	6
31752	0.00023	7e-05	3e-05	0.00027	0.00112	-0.00032	-0.00034	-0.00015	6
31753	0.00023	7e-05	3e-05	0.00027	0.00112	-0.00032	-0.00034	-0.00015	6
31754	0.00023	7e-05	3e-05	0.00027	0.00112	-0.00032	-0.00034	-0.00015	6
31755	0.00023	7e-05	3e-05	0.00027	0.00112	-0.00032	-0.00034	-0.00015	6
31756	0.00023	7e-05	3e-05	0.00027	0.00112	-0.00032	-0.00034	-0.00015	6
31757	0.00023	7e-05	3e-05	0.00027	0.00112	-0.00032	-0.00034	-0.00015	6
31758	0.00024	-3e-05	-1e-05	5e-05	8e-05	-6e-05	-9e-05	-0.00011	6
31759	0.00014	0.0001	5e-05	2e-05	0.00054	0.00041	-2e-05	0.00016	6
31760	0.00014	0.0001	5e-05	2e-05	0.00054	0.00041	-2e-05	0.00016	6
31761	0.00014	0.0001	5e-05	2e-05	0.00054	0.00041	-2e-05	0.00016	6
31762	0.00014	0.0001	5e-05	2e-05	0.00054	0.00041	-2e-05	0.00016	6
31763	0.00014	0.0001	5e-05	2e-05	0.00054	0.00041	-2e-05	0.00016	6
31764	0.00014	0.0001	5e-05	2e-05	0.00054	0.00041	-2e-05	0.00016	6
31765	0.00014	0.0001	5e-05	2e-05	0.00054	0.00041	-2e-05	0.00016	6
31766	0.00014	0.0001	5e-05	2e-05	0.00054	0.00041	-2e-05	0.00016	6
31767	0.00014	0.0001	5e-05	2e-05	0.00054	0.00041	-2e-05	0.00016	6
31768	0.00014	0.0001	5e-05	2e-05	0.00054	0.00041	-2e-05	0.00016	6
31769	0.00014	0.0001	5e-05	2e-05	0.00054	0.00041	-2e-05	0.00016	6
31770	0.00014	0.0001	5e-05	2e-05	0.00054	0.00041	-2e-05	0.00016	6
31771	0.00014	0.0001	5e-05	2e-05	0.00054	0.00041	-2e-05	0.00016	6
31772	0.00014	0.0001	5e-05	2e-05	0.00054	0.00041	-2e-05	0.00016	6
31773	-1e-05	6e-05	7e-05	0.00016	-0.00031	0.00031	0.00015	-0.00046	6
31774	7e-05	2e-05	0	-0.00011	-0.00053	-0.00058	0.00026	0.00022	6
31775	7e-05	2e-05	0	-0.00011	-0.00053	-0.00058	0.00026	0.00022	6
31776	7e-05	2e-05	0	-0.00011	-0.00053	-0.00058	0.00026	0.00022	6
31777	7e-05	2e-05	0	-0.00011	-0.00053	-0.00058	0.00026	0.00022	6
31778	7e-05	2e-05	0	-0.00011	-0.00053	-0.00058	0.00026	0.00022	6
31779	7e-05	2e-05	0	-0.00011	-0.00053	-0.00058	0.00026	0.00022	6
31780	7e-05	2e-05	0	-0.00011	-0.00053	-0.00058	0.00026	0.00022	6
31781	7e-05	2e-05	0	-0.00011	-0.00053	-0.00058	0.00026	0.00022	6
31782	7e-05	2e-05	0	-0.00011	-0.00053	-0.00058	0.00026	0.00022	6
31783	7e-05	2e-05	0	-0.00011	-0.00053	-0.00058	0.00026	0.00022	6
31784	7e-05	2e-05	0	-0.00011	-0.00053	-0.00058	0.00026	0.00022	6
31785	7e-05	2e-05	0	-0.00011	-0.00053	-0.00058	0.00026	0.00022	6
31786	7e-05	2e-05	0	-0.00011	-0.00053	-0.00058	0.00026	0.00022	6
31788	7e-05	2e-05	0	-0.00011	-0.00053	-0.00058	0.00026	0.00022	6
31789	7e-05	2e-05	0	-0.00011	-0.00053	-0.00058	0.00026	0.00022	6
31790	7e-05	2e-05	0	-0.00011	-0.00053	-0.00058	0.00026	0.00022	6
31791	7e-05	2e-05	0	-0.00011	-0.00053	-0.00058	0.00026	0.00022	6
31792	7e-05	2e-05	0	-0.00011	-0.00053	-0.00058	0.00026	0.00022	6
31793	7e-05	2e-05	0	-0.00011	-0.00053	-0.00058	0.00026	0.00022	6
31794	7e-05	2e-05	0	-0.00011	-0.00053	-0.00058	0.00026	0.00022	6
31795	7e-05	2e-05	0	-0.00011	-0.00053	-0.00058	0.00026	0.00022	6
31796	7e-05	2e-05	0	-0.00011	-0.00053	-0.00058	0.00026	0.00022	6
31797	7e-05	2e-05	0	-0.00011	-0.00053	-0.00058	0.00026	0.00022	6
31798	7e-05	2e-05	0	-0.00011	-0.00053	-0.00058	0.00026	0.00022	6
31799	7e-05	2e-05	0	-0.00011	-0.00053	-0.00058	0.00026	0.00022	6
31800	7e-05	2e-05	0	-0.00011	-0.00053	-0.00058	0.00026	0.00022	6
31801	7e-05	2e-05	0	-0.00011	-0.00053	-0.00058	0.00026	0.00022	6
31802	7e-05	2e-05	0	-0.00011	-0.00053	-0.00058	0.00026	0.00022	6
31803	-0.00013	0	5e-05	-0.0002	-0.00079	-0.00031	0.00013	-0.00021	6
31804	-0.00017	-3e-05	-2e-05	3e-05	0.00052	0.00085	0.00019	-0.00025	6
31805	-0.00017	-3e-05	-2e-05	3e-05	0.00052	0.00085	0.00019	-0.00025	6
31806	-0.00017	-3e-05	-2e-05	3e-05	0.00052	0.00085	0.00019	-0.00025	6
31807	-0.00017	-3e-05	-2e-05	3e-05	0.00052	0.00085	0.00019	-0.00025	6
31808	-0.00017	-3e-05	-2e-05	3e-05	0.00052	0.00085	0.00019	-0.00025	6
31809	-0.00017	-3e-05	-2e-05	3e-05	0.00052	0.00085	0.00019	-0.00025	6
31810	-0.00017	-3e-05	-2e-05	3e-05	0.00052	0.00085	0.00019	-0.00025	6
31811	-0.00017	-3e-05	-2e-05	3e-05	0.00052	0.00085	0.00019	-0.00025	6
31812	-0.00017	-3e-05	-2e-05	3e-05	0.00052	0.00085	0.00019	-0.00025	6
31813	-0.00017	-3e-05	-2e-05	3e-05	0.00052	0.00085	0.00019	-0.00025	6
31814	-0.00017	-3e-05	-2e-05	3e-05	0.00052	0.00085	0.00019	-0.00025	6
31815	-0.00017	-3e-05	-2e-05	3e-05	0.00052	0.00085	0.00019	-0.00025	6
31816	-0.00017	-3e-05	-2e-05	3e-05	0.00052	0.00085	0.00019	-0.00025	6
31817	-0.00017	-3e-05	-2e-05	3e-05	0.00052	0.00085	0.00019	-0.00025	6
31819	-0.00017	-3e-05	-2e-05	3e-05	0.00052	0.00085	0.00019	-0.00025	6
31820	-0.00027	2e-05	8e-05	0.00029	0.00051	1e-05	-0.00022	-5e-05	6
31821	-0.00027	2e-05	8e-05	0.00029	0.00051	1e-05	-0.00022	-5e-05	6
31822	-0.00027	2e-05	8e-05	0.00029	0.00051	1e-05	-0.00022	-5e-05	6
31823	-0.00027	2e-05	8e-05	0.00029	0.00051	1e-05	-0.00022	-5e-05	6
31824	-0.00027	2e-05	8e-05	0.00029	0.00051	1e-05	-0.00022	-5e-05	6
31825	-0.00027	2e-05	8e-05	0.00029	0.00051	1e-05	-0.00022	-5e-05	6
31826	-0.00027	2e-05	8e-05	0.00029	0.00051	1e-05	-0.00022	-5e-05	6
31827	-0.00027	2e-05	8e-05	0.00029	0.00051	1e-05	-0.00022	-5e-05	6
31828	-0.00027	2e-05	8e-05	0.00029	0.00051	1e-05	-0.00022	-5e-05	6
31829	-0.00027	2e-05	8e-05	0.00029	0.00051	1e-05	-0.00022	-5e-05	6
31830	-0.00027	2e-05	8e-05	0.00029	0.00051	1e-05	-0.00022	-5e-05	6
31831	-0.00027	2e-05	8e-05	0.00029	0.00051	1e-05	-0.00022	-5e-05	6
31832	-0.00027	2e-05	8e-05	0.00029	0.00051	1e-05	-0.00022	-5e-05	6
31833	-0.00027	2e-05	8e-05	0.00029	0.00051	1e-05	-0.00022	-5e-05	6
31834	3e-05	-2e-05	-4e-05	-5e-05	0.00011	0.00041	-0.00011	-0.0002	6
31835	-0.00042	-6e-05	0	-0.00011	-0.00031	-0.00017	6e-05	2e-05	6
31836	-0.00042	-6e-05	0	-0.00011	-0.00031	-0.00017	6e-05	2e-05	6
31838	-0.00042	-6e-05	0	-0.00011	-0.00031	-0.00017	6e-05	2e-05	6
31839	-0.00042	-6e-05	0	-0.00011	-0.00031	-0.00017	6e-05	2e-05	6
31840	-0.00042	-6e-05	0	-0.00011	-0.00031	-0.00017	6e-05	2e-05	6
31841	-0.00042	-6e-05	0	-0.00011	-0.00031	-0.00017	6e-05	2e-05	6
31842	-0.00042	-6e-05	0	-0.00011	-0.00031	-0.00017	6e-05	2e-05	6
31843	-0.00042	-6e-05	0	-0.00011	-0.00031	-0.00017	6e-05	2e-05	6
31844	-0.00042	-6e-05	0	-0.00011	-0.00031	-0.00017	6e-05	2e-05	6
31845	-0.00042	-6e-05	0	-0.00011	-0.00031	-0.00017	6e-05	2e-05	6
31846	-0.00042	-6e-05	0	-0.00011	-0.00031	-0.00017	6e-05	2e-05	6
31847	-0.00042	-6e-05	0	-0.00011	-0.00031	-0.00017	6e-05	2e-05	6
31848	-0.00042	-6e-05	0	-0.00011	-0.00031	-0.00017	6e-05	2e-05	6
31849	-0.00042	-6e-05	0	-0.00011	-0.00031	-0.00017	6e-05	2e-05	6
31850	-0.00042	-6e-05	0	-0.00011	-0.00031	-0.00017	6e-05	2e-05	6
31851	-0.00042	-6e-05	0	-0.00011	-0.00031	-0.00017	6e-05	2e-05	6
31852	-0.00042	-6e-05	0	-0.00011	-0.00031	-0.00017	6e-05	2e-05	6
31853	-0.00042	-6e-05	0	-0.00011	-0.00031	-0.00017	6e-05	2e-05	6
31854	-0.00042	-6e-05	0	-0.00011	-0.00031	-0.00017	6e-05	2e-05	6
31855	-0.00042	-6e-05	0	-0.00011	-0.00031	-0.00017	6e-05	2e-05	6
31856	0.00025	-3e-05	-2e-05	-0.00014	3e-05	5e-05	3e-05	-0.00033	6
31857	0.00025	-3e-05	-2e-05	-0.00014	3e-05	5e-05	3e-05	-0.00033	6
31858	0.00025	-3e-05	-2e-05	-0.00014	3e-05	5e-05	3e-05	-0.00033	6
31859	0.00025	-3e-05	-2e-05	-0.00014	3e-05	5e-05	3e-05	-0.00033	6
31860	0.00025	-3e-05	-2e-05	-0.00014	3e-05	5e-05	3e-05	-0.00033	6
31861	0.00025	-3e-05	-2e-05	-0.00014	3e-05	5e-05	3e-05	-0.00033	6
31862	0.00025	-3e-05	-2e-05	-0.00014	3e-05	5e-05	3e-05	-0.00033	6
31863	0.00025	-3e-05	-2e-05	-0.00014	3e-05	5e-05	3e-05	-0.00033	6
31864	0.00025	-3e-05	-2e-05	-0.00014	3e-05	5e-05	3e-05	-0.00033	6
31865	0.00025	-3e-05	-2e-05	-0.00014	3e-05	5e-05	3e-05	-0.00033	6
31866	0.00025	-3e-05	-2e-05	-0.00014	3e-05	5e-05	3e-05	-0.00033	6
31867	0.00025	-3e-05	-2e-05	-0.00014	3e-05	5e-05	3e-05	-0.00033	6
31868	0.00025	-3e-05	-2e-05	-0.00014	3e-05	5e-05	3e-05	-0.00033	6
31869	0.00025	-3e-05	-2e-05	-0.00014	3e-05	5e-05	3e-05	-0.00033	6
31870	0.00025	-3e-05	-2e-05	-0.00014	3e-05	5e-05	3e-05	-0.00033	6
31871	0.00025	-3e-05	-2e-05	-0.00014	3e-05	5e-05	3e-05	-0.00033	6
31872	0.00025	-3e-05	-2e-05	-0.00014	3e-05	5e-05	3e-05	-0.00033	6
31873	0.00025	-3e-05	-2e-05	-0.00014	3e-05	5e-05	3e-05	-0.00033	6
31874	0.00025	-3e-05	-2e-05	-0.00014	3e-05	5e-05	3e-05	-0.00033	6
31875	0.00025	-3e-05	-2e-05	-0.00014	3e-05	5e-05	3e-05	-0.00033	6
31876	0.00025	-3e-05	-2e-05	-0.00014	3e-05	5e-05	3e-05	-0.00033	6
31877	0.00025	-3e-05	-2e-05	-0.00014	3e-05	5e-05	3e-05	-0.00033	6
31878	0.00025	-3e-05	-2e-05	-0.00014	3e-05	5e-05	3e-05	-0.00033	6
31879	0.00025	-3e-05	-2e-05	-0.00014	3e-05	5e-05	3e-05	-0.00033	6
31880	0.00025	-3e-05	-2e-05	-0.00014	3e-05	5e-05	3e-05	-0.00033	6
31881	0.00025	-3e-05	-2e-05	-0.00014	3e-05	5e-05	3e-05	-0.00033	6
31882	0.00025	-3e-05	-2e-05	-0.00014	3e-05	5e-05	3e-05	-0.00033	6
31883	0.00025	-3e-05	-2e-05	-0.00014	3e-05	5e-05	3e-05	-0.00033	6
31884	0.00025	-3e-05	-2e-05	-0.00014	3e-05	5e-05	3e-05	-0.00033	6
31885	0.00025	-3e-05	-2e-05	-0.00014	3e-05	5e-05	3e-05	-0.00033	6
31886	0.00025	-3e-05	-2e-05	-0.00014	3e-05	5e-05	3e-05	-0.00033	6
31888	0.00025	-3e-05	-2e-05	-0.00014	3e-05	5e-05	3e-05	-0.00033	6
31889	0.00025	-3e-05	-2e-05	-0.00014	3e-05	5e-05	3e-05	-0.00033	6
31890	0.00025	-3e-05	-2e-05	-0.00014	3e-05	5e-05	3e-05	-0.00033	6
31891	0.00025	-3e-05	-2e-05	-0.00014	3e-05	5e-05	3e-05	-0.00033	6
31892	0.00025	-3e-05	-2e-05	-0.00014	3e-05	5e-05	3e-05	-0.00033	6
31893	0.00025	-3e-05	-2e-05	-0.00014	3e-05	5e-05	3e-05	-0.00033	6
31894	0.00025	-3e-05	-2e-05	-0.00014	3e-05	5e-05	3e-05	-0.00033	6
31895	-1e-05	-6e-05	-6e-05	7e-05	-0.00029	-0.00042	-1e-05	5e-05	6
31896	-1e-05	-6e-05	-6e-05	7e-05	-0.00029	-0.00042	-1e-05	5e-05	6
31897	-0.00025	-2e-05	0	-1e-05	0.00061	-0.00014	7e-05	9e-05	6
31898	-0.00025	-2e-05	0	-1e-05	0.00061	-0.00014	7e-05	9e-05	6
31899	-0.00025	-2e-05	0	-1e-05	0.00061	-0.00014	7e-05	9e-05	6
31900	4e-05	-2e-05	0	7e-05	-0.00015	-0.00076	-0.00015	4e-05	6
31901	4e-05	-2e-05	0	7e-05	-0.00015	-0.00076	-0.00015	4e-05	6
31902	4e-05	-2e-05	0	7e-05	-0.00015	-0.00076	-0.00015	4e-05	6
31903	4e-05	-2e-05	0	7e-05	-0.00015	-0.00076	-0.00015	4e-05	6
31904	4e-05	-2e-05	0	7e-05	-0.00015	-0.00076	-0.00015	4e-05	6
31905	4e-05	-2e-05	0	7e-05	-0.00015	-0.00076	-0.00015	4e-05	6
31906	4e-05	-2e-05	0	7e-05	-0.00015	-0.00076	-0.00015	4e-05	6
31907	4e-05	-2e-05	0	7e-05	-0.00015	-0.00076	-0.00015	4e-05	6
31908	4e-05	-2e-05	0	7e-05	-0.00015	-0.00076	-0.00015	4e-05	6
31909	4e-05	-2e-05	0	7e-05	-0.00015	-0.00076	-0.00015	4e-05	6
31910	4e-05	-2e-05	0	7e-05	-0.00015	-0.00076	-0.00015	4e-05	6
31911	4e-05	-2e-05	0	7e-05	-0.00015	-0.00076	-0.00015	4e-05	6
31912	4e-05	-2e-05	0	7e-05	-0.00015	-0.00076	-0.00015	4e-05	6
31913	4e-05	-2e-05	0	7e-05	-0.00015	-0.00076	-0.00015	4e-05	6
31914	4e-05	-2e-05	0	7e-05	-0.00015	-0.00076	-0.00015	4e-05	6
31915	-0.00014	-7e-05	-5e-05	-0.00012	-0.00033	0.00051	-0.00025	-0.00066	6
31916	8e-05	-4e-05	-2e-05	-5e-05	-0.00022	-0.00118	0.00014	0.00052	6
31917	8e-05	-4e-05	-2e-05	-5e-05	-0.00022	-0.00118	0.00014	0.00052	6
31918	8e-05	-4e-05	-2e-05	-5e-05	-0.00022	-0.00118	0.00014	0.00052	6
31919	8e-05	-4e-05	-2e-05	-5e-05	-0.00022	-0.00118	0.00014	0.00052	6
31920	8e-05	-4e-05	-2e-05	-5e-05	-0.00022	-0.00118	0.00014	0.00052	6
31921	8e-05	-4e-05	-2e-05	-5e-05	-0.00022	-0.00118	0.00014	0.00052	6
31922	8e-05	-4e-05	-2e-05	-5e-05	-0.00022	-0.00118	0.00014	0.00052	6
31923	8e-05	-4e-05	-2e-05	-5e-05	-0.00022	-0.00118	0.00014	0.00052	6
31924	8e-05	-4e-05	-2e-05	-5e-05	-0.00022	-0.00118	0.00014	0.00052	6
31925	8e-05	-4e-05	-2e-05	-5e-05	-0.00022	-0.00118	0.00014	0.00052	6
31926	8e-05	-4e-05	-2e-05	-5e-05	-0.00022	-0.00118	0.00014	0.00052	6
31927	8e-05	-4e-05	-2e-05	-5e-05	-0.00022	-0.00118	0.00014	0.00052	6
31928	8e-05	-4e-05	-2e-05	-5e-05	-0.00022	-0.00118	0.00014	0.00052	6
31929	8e-05	-4e-05	-2e-05	-5e-05	-0.00022	-0.00118	0.00014	0.00052	6
31930	8e-05	-4e-05	-2e-05	-5e-05	-0.00022	-0.00118	0.00014	0.00052	6
31931	8e-05	-4e-05	-2e-05	-5e-05	-0.00022	-0.00118	0.00014	0.00052	6
31932	8e-05	-4e-05	-2e-05	-5e-05	-0.00022	-0.00118	0.00014	0.00052	6
31933	8e-05	-4e-05	-2e-05	-5e-05	-0.00022	-0.00118	0.00014	0.00052	6
31934	8e-05	-4e-05	-2e-05	-5e-05	-0.00022	-0.00118	0.00014	0.00052	6
31935	8e-05	-4e-05	-2e-05	-5e-05	-0.00022	-0.00118	0.00014	0.00052	6
31937	8e-05	-4e-05	-2e-05	-5e-05	-0.00022	-0.00118	0.00014	0.00052	6
31940	6e-05	6e-05	3e-05	4e-05	0.00027	0.00021	-0.00014	6e-05	6
31941	6e-05	6e-05	3e-05	4e-05	0.00027	0.00021	-0.00014	6e-05	6
31942	6e-05	6e-05	3e-05	4e-05	0.00027	0.00021	-0.00014	6e-05	6
31943	6e-05	6e-05	3e-05	4e-05	0.00027	0.00021	-0.00014	6e-05	6
31944	6e-05	6e-05	3e-05	4e-05	0.00027	0.00021	-0.00014	6e-05	6
31945	6e-05	6e-05	3e-05	4e-05	0.00027	0.00021	-0.00014	6e-05	6
31946	6e-05	6e-05	3e-05	4e-05	0.00027	0.00021	-0.00014	6e-05	6
31947	6e-05	6e-05	3e-05	4e-05	0.00027	0.00021	-0.00014	6e-05	6
31948	6e-05	6e-05	3e-05	4e-05	0.00027	0.00021	-0.00014	6e-05	6
31949	6e-05	6e-05	3e-05	4e-05	0.00027	0.00021	-0.00014	6e-05	6
31950	6e-05	6e-05	3e-05	4e-05	0.00027	0.00021	-0.00014	6e-05	6
31951	6e-05	6e-05	3e-05	4e-05	0.00027	0.00021	-0.00014	6e-05	6
31952	-4e-05	-9e-05	-0.0001	-0.00024	-0.00028	-0.00031	0.00022	-0.00061	6
31953	-2e-05	-7e-05	-0.00012	-0.00022	-0.00084	0.0002	-4e-05	-0.00011	6
31954	-2e-05	-7e-05	-0.00012	-0.00022	-0.00084	0.0002	-4e-05	-0.00011	6
31955	-2e-05	-7e-05	-0.00012	-0.00022	-0.00084	0.0002	-4e-05	-0.00011	6
31956	-2e-05	-7e-05	-0.00012	-0.00022	-0.00084	0.0002	-4e-05	-0.00011	6
31957	-2e-05	-7e-05	-0.00012	-0.00022	-0.00084	0.0002	-4e-05	-0.00011	6
31958	-2e-05	-7e-05	-0.00012	-0.00022	-0.00084	0.0002	-4e-05	-0.00011	6
31959	-2e-05	-7e-05	-0.00012	-0.00022	-0.00084	0.0002	-4e-05	-0.00011	6
31960	-2e-05	-7e-05	-0.00012	-0.00022	-0.00084	0.0002	-4e-05	-0.00011	6
31961	-2e-05	-7e-05	-0.00012	-0.00022	-0.00084	0.0002	-4e-05	-0.00011	6
31962	-2e-05	-7e-05	-0.00012	-0.00022	-0.00084	0.0002	-4e-05	-0.00011	6
31963	-2e-05	-7e-05	-0.00012	-0.00022	-0.00084	0.0002	-4e-05	-0.00011	6
31964	-2e-05	-7e-05	-0.00012	-0.00022	-0.00084	0.0002	-4e-05	-0.00011	6
31965	-2e-05	-7e-05	-0.00012	-0.00022	-0.00084	0.0002	-4e-05	-0.00011	6
31966	-2e-05	-7e-05	-0.00012	-0.00022	-0.00084	0.0002	-4e-05	-0.00011	6
31967	-2e-05	-7e-05	-0.00012	-0.00022	-0.00084	0.0002	-4e-05	-0.00011	6
31968	-2e-05	-7e-05	-0.00012	-0.00022	-0.00084	0.0002	-4e-05	-0.00011	6
31969	-2e-05	-7e-05	-0.00012	-0.00022	-0.00084	0.0002	-4e-05	-0.00011	6
31970	-2e-05	-7e-05	-0.00012	-0.00022	-0.00084	0.0002	-4e-05	-0.00011	6
31971	-2e-05	-7e-05	-0.00012	-0.00022	-0.00084	0.0002	-4e-05	-0.00011	6
31972	-2e-05	-7e-05	-0.00012	-0.00022	-0.00084	0.0002	-4e-05	-0.00011	6
31973	-2e-05	-7e-05	-0.00012	-0.00022	-0.00084	0.0002	-4e-05	-0.00011	6
31974	-2e-05	-7e-05	-0.00012	-0.00022	-0.00084	0.0002	-4e-05	-0.00011	6
31975	-0.00012	3e-05	7e-05	0.00021	5e-05	-0.0004	3e-05	-0.00096	6
31976	-0.00024	-0.0001	-6e-05	-0.00013	0.00032	0.00025	0	0.00017	6
31977	-0.00024	-0.0001	-6e-05	-0.00013	0.00032	0.00025	0	0.00017	6
31978	-0.00024	-0.0001	-6e-05	-0.00013	0.00032	0.00025	0	0.00017	6
31979	-0.00024	-0.0001	-6e-05	-0.00013	0.00032	0.00025	0	0.00017	6
31980	-0.00024	-0.0001	-6e-05	-0.00013	0.00032	0.00025	0	0.00017	6
31981	-0.00024	-0.0001	-6e-05	-0.00013	0.00032	0.00025	0	0.00017	6
31982	-0.00024	-0.0001	-6e-05	-0.00013	0.00032	0.00025	0	0.00017	6
31983	-0.00024	-0.0001	-6e-05	-0.00013	0.00032	0.00025	0	0.00017	6
31984	-0.00024	-0.0001	-6e-05	-0.00013	0.00032	0.00025	0	0.00017	6
31985	-0.00024	-0.0001	-6e-05	-0.00013	0.00032	0.00025	0	0.00017	6
31987	-0.00024	-0.0001	-6e-05	-0.00013	0.00032	0.00025	0	0.00017	6
31989	-0.00024	-0.0001	-6e-05	-0.00013	0.00032	0.00025	0	0.00017	6
31990	-0.00024	-0.0001	-6e-05	-0.00013	0.00032	0.00025	0	0.00017	6
31991	-0.00024	-0.0001	-6e-05	-0.00013	0.00032	0.00025	0	0.00017	6
31992	-0.00024	-0.0001	-6e-05	-0.00013	0.00032	0.00025	0	0.00017	6
31993	-0.00024	-0.0001	-6e-05	-0.00013	0.00032	0.00025	0	0.00017	6
31994	-0.00024	-0.0001	-6e-05	-0.00013	0.00032	0.00025	0	0.00017	6
31995	-0.00024	-0.0001	-6e-05	-0.00013	0.00032	0.00025	0	0.00017	6
31996	-0.00024	-0.0001	-6e-05	-0.00013	0.00032	0.00025	0	0.00017	6
31997	-0.00024	-0.0001	-6e-05	-0.00013	0.00032	0.00025	0	0.00017	6
31998	0.00016	-2e-05	-3e-05	-7e-05	0.00053	0.00057	2e-05	-0.00019	6
31999	-1e-05	-3e-05	-4e-05	-0.00019	0.00015	0.00019	5e-05	-0.00012	6
32000	-1e-05	-3e-05	-4e-05	-0.00019	0.00015	0.00019	5e-05	-0.00012	6
32001	-1e-05	-3e-05	-4e-05	-0.00019	0.00015	0.00019	5e-05	-0.00012	6
32002	-1e-05	-3e-05	-4e-05	-0.00019	0.00015	0.00019	5e-05	-0.00012	6
32003	-1e-05	-3e-05	-4e-05	-0.00019	0.00015	0.00019	5e-05	-0.00012	6
32004	-1e-05	-3e-05	-4e-05	-0.00019	0.00015	0.00019	5e-05	-0.00012	6
32005	-1e-05	-3e-05	-4e-05	-0.00019	0.00015	0.00019	5e-05	-0.00012	6
32006	-1e-05	-3e-05	-4e-05	-0.00019	0.00015	0.00019	5e-05	-0.00012	6
32007	-1e-05	-3e-05	-4e-05	-0.00019	0.00015	0.00019	5e-05	-0.00012	6
32008	-1e-05	-3e-05	-4e-05	-0.00019	0.00015	0.00019	5e-05	-0.00012	6
32009	-1e-05	-3e-05	-4e-05	-0.00019	0.00015	0.00019	5e-05	-0.00012	6
32010	-1e-05	-3e-05	-4e-05	-0.00019	0.00015	0.00019	5e-05	-0.00012	6
32011	-1e-05	-3e-05	-4e-05	-0.00019	0.00015	0.00019	5e-05	-0.00012	6
32012	-1e-05	-3e-05	-4e-05	-0.00019	0.00015	0.00019	5e-05	-0.00012	6
32013	-1e-05	-3e-05	-4e-05	-0.00019	0.00015	0.00019	5e-05	-0.00012	6
32014	-1e-05	-3e-05	-4e-05	-0.00019	0.00015	0.00019	5e-05	-0.00012	6
32015	-1e-05	-3e-05	-4e-05	-0.00019	0.00015	0.00019	5e-05	-0.00012	6
32016	-1e-05	-3e-05	-4e-05	-0.00019	0.00015	0.00019	5e-05	-0.00012	6
32017	-1e-05	-3e-05	-4e-05	-0.00019	0.00015	0.00019	5e-05	-0.00012	6
32018	-1e-05	-3e-05	-4e-05	-0.00019	0.00015	0.00019	5e-05	-0.00012	6
32019	-1e-05	-3e-05	-4e-05	-0.00019	0.00015	0.00019	5e-05	-0.00012	6
32020	-1e-05	-3e-05	-4e-05	-0.00019	0.00015	0.00019	5e-05	-0.00012	6
32021	0.00021	-1e-05	-6e-05	-0.00016	5e-05	0.00013	4e-05	0.00068	6
32022	0.00038	8e-05	0.0001	0.00049	0.00089	0.00117	0.00015	1e-05	6
32023	0.00038	8e-05	0.0001	0.00049	0.00089	0.00117	0.00015	1e-05	6
32024	0.00038	8e-05	0.0001	0.00049	0.00089	0.00117	0.00015	1e-05	6
32025	0.00038	8e-05	0.0001	0.00049	0.00089	0.00117	0.00015	1e-05	6
32026	0.00038	8e-05	0.0001	0.00049	0.00089	0.00117	0.00015	1e-05	6
32027	0.00038	8e-05	0.0001	0.00049	0.00089	0.00117	0.00015	1e-05	6
32028	0.00038	8e-05	0.0001	0.00049	0.00089	0.00117	0.00015	1e-05	6
32029	0.00038	8e-05	0.0001	0.00049	0.00089	0.00117	0.00015	1e-05	6
32030	0.00038	8e-05	0.0001	0.00049	0.00089	0.00117	0.00015	1e-05	6
32031	0.00038	8e-05	0.0001	0.00049	0.00089	0.00117	0.00015	1e-05	6
32032	0.00038	8e-05	0.0001	0.00049	0.00089	0.00117	0.00015	1e-05	6
32033	0.00038	8e-05	0.0001	0.00049	0.00089	0.00117	0.00015	1e-05	6
32034	0.00038	8e-05	0.0001	0.00049	0.00089	0.00117	0.00015	1e-05	6
32035	-0.00019	3e-05	6e-05	-7e-05	-0.00021	-0.00055	0.00012	0.00066	6
32037	0.00019	-3e-05	-1e-05	-7e-05	0.00039	-0.00078	-0.00015	-0.00019	6
32039	0.00019	-3e-05	-1e-05	-7e-05	0.00039	-0.00078	-0.00015	-0.00019	6
32040	0.00019	-3e-05	-1e-05	-7e-05	0.00039	-0.00078	-0.00015	-0.00019	6
32041	0.00019	-3e-05	-1e-05	-7e-05	0.00039	-0.00078	-0.00015	-0.00019	6
32042	0.00019	-3e-05	-1e-05	-7e-05	0.00039	-0.00078	-0.00015	-0.00019	6
32043	0.00019	-3e-05	-1e-05	-7e-05	0.00039	-0.00078	-0.00015	-0.00019	6
32044	0.00019	-3e-05	-1e-05	-7e-05	0.00039	-0.00078	-0.00015	-0.00019	6
32045	0.00019	-3e-05	-1e-05	-7e-05	0.00039	-0.00078	-0.00015	-0.00019	6
32046	0.00019	-3e-05	-1e-05	-7e-05	0.00039	-0.00078	-0.00015	-0.00019	6
32047	0.00019	-3e-05	-1e-05	-7e-05	0.00039	-0.00078	-0.00015	-0.00019	6
32048	0.00019	-3e-05	-1e-05	-7e-05	0.00039	-0.00078	-0.00015	-0.00019	6
32049	0.00019	-3e-05	-1e-05	-7e-05	0.00039	-0.00078	-0.00015	-0.00019	6
32050	0.00019	-3e-05	-1e-05	-7e-05	0.00039	-0.00078	-0.00015	-0.00019	6
32051	0.00019	-3e-05	-1e-05	-7e-05	0.00039	-0.00078	-0.00015	-0.00019	6
32052	0.00019	-3e-05	-1e-05	-7e-05	0.00039	-0.00078	-0.00015	-0.00019	6
32053	0.00019	-3e-05	-1e-05	-7e-05	0.00039	-0.00078	-0.00015	-0.00019	6
32054	0.00019	-3e-05	-1e-05	-7e-05	0.00039	-0.00078	-0.00015	-0.00019	6
32055	0.00019	-3e-05	-1e-05	-7e-05	0.00039	-0.00078	-0.00015	-0.00019	6
32056	0.00019	-3e-05	-1e-05	-7e-05	0.00039	-0.00078	-0.00015	-0.00019	6
32057	0.00019	-3e-05	-1e-05	-7e-05	0.00039	-0.00078	-0.00015	-0.00019	6
32058	6e-05	5e-05	7e-05	0.00028	0.0002	-0.00095	-1e-05	-0.00034	6
32059	-9e-05	-2e-05	-2e-05	-2e-05	3e-05	-0.00013	8e-05	0.00043	6
32060	-9e-05	-2e-05	-2e-05	-2e-05	3e-05	-0.00013	8e-05	0.00043	6
32061	-9e-05	-2e-05	-2e-05	-2e-05	3e-05	-0.00013	8e-05	0.00043	6
32062	-9e-05	-2e-05	-2e-05	-2e-05	3e-05	-0.00013	8e-05	0.00043	6
32063	-9e-05	-2e-05	-2e-05	-2e-05	3e-05	-0.00013	8e-05	0.00043	6
32064	-9e-05	-2e-05	-2e-05	-2e-05	3e-05	-0.00013	8e-05	0.00043	6
32065	-9e-05	-2e-05	-2e-05	-2e-05	3e-05	-0.00013	8e-05	0.00043	6
32066	-9e-05	-2e-05	-2e-05	-2e-05	3e-05	-0.00013	8e-05	0.00043	6
32067	-9e-05	-2e-05	-2e-05	-2e-05	3e-05	-0.00013	8e-05	0.00043	6
32068	-9e-05	-2e-05	-2e-05	-2e-05	3e-05	-0.00013	8e-05	0.00043	6
32069	-9e-05	-2e-05	-2e-05	-2e-05	3e-05	-0.00013	8e-05	0.00043	6
32070	-9e-05	-2e-05	-2e-05	-2e-05	3e-05	-0.00013	8e-05	0.00043	6
32071	-9e-05	-2e-05	-2e-05	-2e-05	3e-05	-0.00013	8e-05	0.00043	6
