21503	-0.00019	-8e-05	-0.00012	0.00014	-8e-05	-0.00038	5e-05	0	5
21504	-0.00019	-8e-05	-0.00012	0.00014	-8e-05	-0.00038	5e-05	0	5
21505	-0.00019	-8e-05	-0.00012	0.00014	-8e-05	-0.00038	5e-05	0	5
21506	-0.00019	-8e-05	-0.00012	0.00014	-8e-05	-0.00038	5e-05	0	5
21507	-0.00019	-8e-05	-0.00012	0.00014	-8e-05	-0.00038	5e-05	0	5
21508	3e-05	-3e-05	-5e-05	-0.00041	-4e-05	0	-5e-05	-5e-05	5
21509	0	-6e-05	-6e-05	-6e-05	2e-05	-8e-05	-8e-05	-6e-05	5
21510	0	-6e-05	-6e-05	-6e-05	2e-05	-8e-05	-8e-05	-6e-05	5
21511	0	-6e-05	-6e-05	-6e-05	2e-05	-8e-05	-8e-05	-6e-05	5
21512	0	-6e-05	-6e-05	-6e-05	2e-05	-8e-05	-8e-05	-6e-05	5
21513	0	-6e-05	-6e-05	-6e-05	2e-05	-8e-05	-8e-05	-6e-05	5
21514	0	-6e-05	-6e-05	-6e-05	2e-05	-8e-05	-8e-05	-6e-05	5
21515	0	-6e-05	-6e-05	-6e-05	2e-05	-8e-05	-8e-05	-6e-05	5
21516	0	-6e-05	-6e-05	-6e-05	2e-05	-8e-05	-8e-05	-6e-05	5
21517	0	-6e-05	-6e-05	-6e-05	2e-05	-8e-05	-8e-05	-6e-05	5
21518	0	-6e-05	-6e-05	-6e-05	2e-05	-8e-05	-8e-05	-6e-05	5
21519	0	-6e-05	-6e-05	-6e-05	2e-05	-8e-05	-8e-05	-6e-05	5
21520	0	-6e-05	-6e-05	-6e-05	2e-05	-8e-05	-8e-05	-6e-05	5
21521	0	-6e-05	-6e-05	-6e-05	2e-05	-8e-05	-8e-05	-6e-05	5
21522	0	-6e-05	-6e-05	-6e-05	2e-05	-8e-05	-8e-05	-6e-05	5
21523	0	-6e-05	-6e-05	-6e-05	2e-05	-8e-05	-8e-05	-6e-05	5
21524	0	-6e-05	-6e-05	-6e-05	2e-05	-8e-05	-8e-05	-6e-05	5
21525	0	-6e-05	-6e-05	-6e-05	2e-05	-8e-05	-8e-05	-6e-05	5
21526	0	-6e-05	-6e-05	-6e-05	2e-05	-8e-05	-8e-05	-6e-05	5
21527	0	-6e-05	-6e-05	-6e-05	2e-05	-8e-05	-8e-05	-6e-05	5
21528	0	-6e-05	-6e-05	-6e-05	2e-05	-8e-05	-8e-05	-6e-05	5
21529	0	-6e-05	-6e-05	-6e-05	2e-05	-8e-05	-8e-05	-6e-05	5
21530	0	-0.00012	3e-05	2e-05	-4e-05	-0.00036	-9e-05	-1e-05	5
21531	-4e-05	3e-05	3e-05	-0.0002	1e-05	-6e-05	-0.00011	-7e-05	5
21532	-0.00034	-0.00011	-4e-05	-4e-05	-5e-05	-2e-05	-3e-05	-6e-05	5
21533	-0.00034	-0.00011	-4e-05	-4e-05	-5e-05	-2e-05	-3e-05	-6e-05	5
21534	-0.00034	-0.00011	-4e-05	-4e-05	-5e-05	-2e-05	-3e-05	-6e-05	5
21535	-0.00034	-0.00011	-4e-05	-4e-05	-5e-05	-2e-05	-3e-05	-6e-05	5
21536	-0.00034	-0.00011	-4e-05	-4e-05	-5e-05	-2e-05	-3e-05	-6e-05	5
21538	-0.00034	-0.00011	-4e-05	-4e-05	-5e-05	-2e-05	-3e-05	-6e-05	5
21539	-0.00034	-0.00011	-4e-05	-4e-05	-5e-05	-2e-05	-3e-05	-6e-05	5
21540	-0.00034	-0.00011	-4e-05	-4e-05	-5e-05	-2e-05	-3e-05	-6e-05	5
21541	-0.00034	-0.00011	-4e-05	-4e-05	-5e-05	-2e-05	-3e-05	-6e-05	5
21542	-0.00034	-0.00011	-4e-05	-4e-05	-5e-05	-2e-05	-3e-05	-6e-05	5
21543	-0.00034	-0.00011	-4e-05	-4e-05	-5e-05	-2e-05	-3e-05	-6e-05	5
21544	3e-05	2e-05	-1e-05	0.0001	-2e-05	4e-05	-5e-05	-3e-05	5
21545	3e-05	2e-05	-1e-05	0.0001	-2e-05	4e-05	-5e-05	-3e-05	5
21546	3e-05	2e-05	-1e-05	0.0001	-2e-05	4e-05	-5e-05	-3e-05	5
21547	3e-05	2e-05	-1e-05	0.0001	-2e-05	4e-05	-5e-05	-3e-05	5
21548	3e-05	2e-05	-1e-05	0.0001	-2e-05	4e-05	-5e-05	-3e-05	5
21549	3e-05	2e-05	-1e-05	0.0001	-2e-05	4e-05	-5e-05	-3e-05	5
21550	3e-05	2e-05	-1e-05	0.0001	-2e-05	4e-05	-5e-05	-3e-05	5
21551	3e-05	2e-05	-1e-05	0.0001	-2e-05	4e-05	-5e-05	-3e-05	5
21552	-0.00051	-3e-05	4e-05	-4e-05	-9e-05	-0.00023	-1e-05	6e-05	5
21553	0.00071	-0.00012	6e-05	0.00027	5e-05	0.00016	-7e-05	-1e-05	5
21554	0.00071	-0.00012	6e-05	0.00027	5e-05	0.00016	-7e-05	-1e-05	5
21555	0.00071	-0.00012	6e-05	0.00027	5e-05	0.00016	-7e-05	-1e-05	5
21556	0.00071	-0.00012	6e-05	0.00027	5e-05	0.00016	-7e-05	-1e-05	5
21557	0.00071	-0.00012	6e-05	0.00027	5e-05	0.00016	-7e-05	-1e-05	5
21558	0.00071	-0.00012	6e-05	0.00027	5e-05	0.00016	-7e-05	-1e-05	5
21559	0.00071	-0.00012	6e-05	0.00027	5e-05	0.00016	-7e-05	-1e-05	5
21560	0.00071	-0.00012	6e-05	0.00027	5e-05	0.00016	-7e-05	-1e-05	5
21561	0.00071	-0.00012	6e-05	0.00027	5e-05	0.00016	-7e-05	-1e-05	5
21562	0.00071	-0.00012	6e-05	0.00027	5e-05	0.00016	-7e-05	-1e-05	5
21563	0.00071	-0.00012	6e-05	0.00027	5e-05	0.00016	-7e-05	-1e-05	5
21564	0.00071	-0.00012	6e-05	0.00027	5e-05	0.00016	-7e-05	-1e-05	5
21565	0.00071	-0.00012	6e-05	0.00027	5e-05	0.00016	-7e-05	-1e-05	5
21566	0.00071	-0.00012	6e-05	0.00027	5e-05	0.00016	-7e-05	-1e-05	5
21567	-0.00046	5e-05	-6e-05	-0.00091	4e-05	-0.00018	-3e-05	-0.0001	5
21568	-0.00015	-7e-05	-0.0002	0.00087	-1e-05	-1e-05	4e-05	0	5
21569	0.00018	4e-05	8e-05	-0.00038	0	0.00013	6e-05	4e-05	5
21570	0.00018	4e-05	8e-05	-0.00038	0	0.00013	6e-05	4e-05	5
21571	0.00018	4e-05	8e-05	-0.00038	0	0.00013	6e-05	4e-05	5
21572	0.00018	4e-05	8e-05	-0.00038	0	0.00013	6e-05	4e-05	5
21573	0.00018	4e-05	8e-05	-0.00038	0	0.00013	6e-05	4e-05	5
21574	0.00018	4e-05	8e-05	-0.00038	0	0.00013	6e-05	4e-05	5
21575	0.00018	4e-05	8e-05	-0.00038	0	0.00013	6e-05	4e-05	5
21576	0.00018	4e-05	8e-05	-0.00038	0	0.00013	6e-05	4e-05	5
21577	0.00018	4e-05	8e-05	-0.00038	0	0.00013	6e-05	4e-05	5
21578	0.00018	4e-05	8e-05	-0.00038	0	0.00013	6e-05	4e-05	5
21579	0.00018	4e-05	8e-05	-0.00038	0	0.00013	6e-05	4e-05	5
21580	0.00018	4e-05	8e-05	-0.00038	0	0.00013	6e-05	4e-05	5
21581	0.00018	4e-05	8e-05	-0.00038	0	0.00013	6e-05	4e-05	5
21582	0.00018	4e-05	8e-05	-0.00038	0	0.00013	6e-05	4e-05	5
21583	0.00018	4e-05	8e-05	-0.00038	0	0.00013	6e-05	4e-05	5
21584	0.00018	4e-05	8e-05	-0.00038	0	0.00013	6e-05	4e-05	5
21585	0.00018	4e-05	8e-05	-0.00038	0	0.00013	6e-05	4e-05	5
21586	0.00018	4e-05	8e-05	-0.00038	0	0.00013	6e-05	4e-05	5
21588	0.00018	4e-05	8e-05	-0.00038	0	0.00013	6e-05	4e-05	5
21589	0.00018	4e-05	8e-05	-0.00038	0	0.00013	6e-05	4e-05	5
21590	0.00018	4e-05	8e-05	-0.00038	0	0.00013	6e-05	4e-05	5
21591	0.00018	4e-05	8e-05	-0.00038	0	0.00013	6e-05	4e-05	5
21592	0.00018	4e-05	8e-05	-0.00038	0	0.00013	6e-05	4e-05	5
21593	0.00018	4e-05	8e-05	-0.00038	0	0.00013	6e-05	4e-05	5
21594	0.00018	4e-05	8e-05	-0.00038	0	0.00013	6e-05	4e-05	5
21595	0.00018	4e-05	8e-05	-0.00038	0	0.00013	6e-05	4e-05	5
21596	0.00018	4e-05	8e-05	-0.00038	0	0.00013	6e-05	4e-05	5
21597	2e-05	-4e-05	-0.00024	0.00029	0	0.00011	-6e-05	5e-05	5
21598	4e-05	4e-05	1e-05	0.00036	0	-2e-05	-7e-05	-6e-05	5
21599	-0.00017	-5e-05	-6e-05	-0.00027	5e-05	-0.0005	-0.00012	-6e-05	5
21600	-0.00017	-5e-05	-6e-05	-0.00027	5e-05	-0.0005	-0.00012	-6e-05	5
21601	-0.00017	-5e-05	-6e-05	-0.00027	5e-05	-0.0005	-0.00012	-6e-05	5
21602	-0.00017	-5e-05	-6e-05	-0.00027	5e-05	-0.0005	-0.00012	-6e-05	5
21603	-0.00017	-5e-05	-6e-05	-0.00027	5e-05	-0.0005	-0.00012	-6e-05	5
21604	-0.00017	-5e-05	-6e-05	-0.00027	5e-05	-0.0005	-0.00012	-6e-05	5
21605	-0.00017	-5e-05	-6e-05	-0.00027	5e-05	-0.0005	-0.00012	-6e-05	5
21606	-0.00017	-5e-05	-6e-05	-0.00027	5e-05	-0.0005	-0.00012	-6e-05	5
21607	-0.00017	-5e-05	-6e-05	-0.00027	5e-05	-0.0005	-0.00012	-6e-05	5
21608	-0.00017	-5e-05	-6e-05	-0.00027	5e-05	-0.0005	-0.00012	-6e-05	5
21609	-0.00017	-5e-05	-6e-05	-0.00027	5e-05	-0.0005	-0.00012	-6e-05	5
21610	-0.00017	-5e-05	-6e-05	-0.00027	5e-05	-0.0005	-0.00012	-6e-05	5
21611	-0.00017	-5e-05	-6e-05	-0.00027	5e-05	-0.0005	-0.00012	-6e-05	5
21612	0.00021	7e-05	7e-05	-3e-05	-1e-05	0.00021	0.00012	3e-05	5
21613	-0.00017	9e-05	-7e-05	-0.00037	4e-05	-0.00025	-0.0001	-8e-05	5
21614	-0.00014	0.00018	-6e-05	-6e-05	2e-05	0.00017	1e-05	5e-05	5
21615	-0.00014	0.00018	-6e-05	-6e-05	2e-05	0.00017	1e-05	5e-05	5
21616	-0.00014	0.00018	-6e-05	-6e-05	2e-05	0.00017	1e-05	5e-05	5
21617	-0.00014	0.00018	-6e-05	-6e-05	2e-05	0.00017	1e-05	5e-05	5
21618	-0.00014	0.00018	-6e-05	-6e-05	2e-05	0.00017	1e-05	5e-05	5
21619	-0.00014	0.00018	-6e-05	-6e-05	2e-05	0.00017	1e-05	5e-05	5
21620	-0.00014	0.00018	-6e-05	-6e-05	2e-05	0.00017	1e-05	5e-05	5
21621	-0.00014	0.00018	-6e-05	-6e-05	2e-05	0.00017	1e-05	5e-05	5
21622	-0.00014	0.00018	-6e-05	-6e-05	2e-05	0.00017	1e-05	5e-05	5
21623	-0.00014	0.00018	-6e-05	-6e-05	2e-05	0.00017	1e-05	5e-05	5
21624	-0.00014	0.00018	-6e-05	-6e-05	2e-05	0.00017	1e-05	5e-05	5
21625	-0.00014	0.00018	-6e-05	-6e-05	2e-05	0.00017	1e-05	5e-05	5
21626	-0.00014	0.00018	-6e-05	-6e-05	2e-05	0.00017	1e-05	5e-05	5
21627	-0.00029	-6e-05	2e-05	0.00019	0	0.00015	6e-05	-0.00011	5
21628	0.0002	2e-05	2e-05	-0.00016	0	-2e-05	3e-05	3e-05	5
21629	-0.00038	-4e-05	4e-05	0.00011	6e-05	0.00047	0.00016	4e-05	5
21630	-0.00038	-4e-05	4e-05	0.00011	6e-05	0.00047	0.00016	4e-05	5
21631	-0.00038	-4e-05	4e-05	0.00011	6e-05	0.00047	0.00016	4e-05	5
21632	-0.00038	-4e-05	4e-05	0.00011	6e-05	0.00047	0.00016	4e-05	5
21633	-0.00038	-4e-05	4e-05	0.00011	6e-05	0.00047	0.00016	4e-05	5
21634	-0.00038	-4e-05	4e-05	0.00011	6e-05	0.00047	0.00016	4e-05	5
21635	-0.00038	-4e-05	4e-05	0.00011	6e-05	0.00047	0.00016	4e-05	5
21636	-0.00038	-4e-05	4e-05	0.00011	6e-05	0.00047	0.00016	4e-05	5
21638	-0.00038	-4e-05	4e-05	0.00011	6e-05	0.00047	0.00016	4e-05	5
21639	-0.00038	-4e-05	4e-05	0.00011	6e-05	0.00047	0.00016	4e-05	5
21640	-0.00038	-4e-05	4e-05	0.00011	6e-05	0.00047	0.00016	4e-05	5
21641	-0.00038	-4e-05	4e-05	0.00011	6e-05	0.00047	0.00016	4e-05	5
21642	-0.00038	-4e-05	4e-05	0.00011	6e-05	0.00047	0.00016	4e-05	5
21643	-0.00038	-4e-05	4e-05	0.00011	6e-05	0.00047	0.00016	4e-05	5
21644	-0.00038	-4e-05	4e-05	0.00011	6e-05	0.00047	0.00016	4e-05	5
21645	-0.00038	-4e-05	4e-05	0.00011	6e-05	0.00047	0.00016	4e-05	5
21646	-0.00038	-4e-05	4e-05	0.00011	6e-05	0.00047	0.00016	4e-05	5
21647	-0.00038	-4e-05	4e-05	0.00011	6e-05	0.00047	0.00016	4e-05	5
21648	-0.00038	-4e-05	4e-05	0.00011	6e-05	0.00047	0.00016	4e-05	5
21649	-0.00038	-4e-05	4e-05	0.00011	6e-05	0.00047	0.00016	4e-05	5
21650	-8e-05	0	0.00016	0.00022	0	0.00013	5e-05	-2e-05	5
21651	-8e-05	0	0.00016	0.00022	0	0.00013	5e-05	-2e-05	5
21652	0.00023	0	-8e-05	-0.00043	-7e-05	-0.00014	5e-05	5e-05	5
21653	0.00023	0	-8e-05	-0.00043	-7e-05	-0.00014	5e-05	5e-05	5
21654	0.00023	0	-8e-05	-0.00043	-7e-05	-0.00014	5e-05	5e-05	5
21655	0.00023	0	-8e-05	-0.00043	-7e-05	-0.00014	5e-05	5e-05	5
21656	0.00023	0	-8e-05	-0.00043	-7e-05	-0.00014	5e-05	5e-05	5
21657	0.00023	0	-8e-05	-0.00043	-7e-05	-0.00014	5e-05	5e-05	5
21658	0.00023	0	-8e-05	-0.00043	-7e-05	-0.00014	5e-05	5e-05	5
21659	0.00023	0	-8e-05	-0.00043	-7e-05	-0.00014	5e-05	5e-05	5
21660	0.00023	0	-8e-05	-0.00043	-7e-05	-0.00014	5e-05	5e-05	5
21661	0.00023	0	-8e-05	-0.00043	-7e-05	-0.00014	5e-05	5e-05	5
21662	0.00023	0	-8e-05	-0.00043	-7e-05	-0.00014	5e-05	5e-05	5
21663	0.00023	0	-8e-05	-0.00043	-7e-05	-0.00014	5e-05	5e-05	5
21664	0.00023	0	-8e-05	-0.00043	-7e-05	-0.00014	5e-05	5e-05	5
21665	0.00023	0	-8e-05	-0.00043	-7e-05	-0.00014	5e-05	5e-05	5
21666	0.00023	0	-8e-05	-0.00043	-7e-05	-0.00014	5e-05	5e-05	5
21667	0.00023	0	-8e-05	-0.00043	-7e-05	-0.00014	5e-05	5e-05	5
21668	0.00023	0	-8e-05	-0.00043	-7e-05	-0.00014	5e-05	5e-05	5
21669	0.00023	0	-8e-05	-0.00043	-7e-05	-0.00014	5e-05	5e-05	5
21670	0.00023	0	-8e-05	-0.00043	-7e-05	-0.00014	5e-05	5e-05	5
21671	0.00023	0	-8e-05	-0.00043	-7e-05	-0.00014	5e-05	5e-05	5
21672	8e-05	1e-05	7e-05	0.00037	0	0	5e-05	4e-05	5
21673	-0.00014	0	0.00019	-3e-05	4e-05	1e-05	-6e-05	-5e-05	5
21674	5e-05	1e-05	1e-05	0.0002	2e-05	-0.00018	-0.00011	-8e-05	5
21675	5e-05	1e-05	1e-05	0.0002	2e-05	-0.00018	-0.00011	-8e-05	5
21676	5e-05	1e-05	1e-05	0.0002	2e-05	-0.00018	-0.00011	-8e-05	5
21677	5e-05	1e-05	1e-05	0.0002	2e-05	-0.00018	-0.00011	-8e-05	5
21678	5e-05	1e-05	1e-05	0.0002	2e-05	-0.00018	-0.00011	-8e-05	5
21679	5e-05	1e-05	1e-05	0.0002	2e-05	-0.00018	-0.00011	-8e-05	5
21680	5e-05	1e-05	1e-05	0.0002	2e-05	-0.00018	-0.00011	-8e-05	5
21681	5e-05	1e-05	1e-05	0.0002	2e-05	-0.00018	-0.00011	-8e-05	5
21682	5e-05	1e-05	1e-05	0.0002	2e-05	-0.00018	-0.00011	-8e-05	5
21683	5e-05	1e-05	1e-05	0.0002	2e-05	-0.00018	-0.00011	-8e-05	5
21684	5e-05	1e-05	1e-05	0.0002	2e-05	-0.00018	-0.00011	-8e-05	5
21685	5e-05	1e-05	1e-05	0.0002	2e-05	-0.00018	-0.00011	-8e-05	5
21686	5e-05	1e-05	1e-05	0.0002	2e-05	-0.00018	-0.00011	-8e-05	5
21689	4e-05	-4e-05	1e-05	0.0001	1e-05	0.00015	8e-05	1e-05	5
21690	4e-05	-4e-05	1e-05	0.0001	1e-05	0.00015	8e-05	1e-05	5
21691	4e-05	-4e-05	1e-05	0.0001	1e-05	0.00015	8e-05	1e-05	5
21692	4e-05	-4e-05	1e-05	0.0001	1e-05	0.00015	8e-05	1e-05	5
21693	4e-05	-4e-05	1e-05	0.0001	1e-05	0.00015	8e-05	1e-05	5
21694	4e-05	-4e-05	1e-05	0.0001	1e-05	0.00015	8e-05	1e-05	5
21695	4e-05	-4e-05	1e-05	0.0001	1e-05	0.00015	8e-05	1e-05	5
21696	4e-05	-4e-05	1e-05	0.0001	1e-05	0.00015	8e-05	1e-05	5
21697	4e-05	-4e-05	1e-05	0.0001	1e-05	0.00015	8e-05	1e-05	5
21698	4e-05	-4e-05	1e-05	0.0001	1e-05	0.00015	8e-05	1e-05	5
21699	4e-05	-4e-05	1e-05	0.0001	1e-05	0.00015	8e-05	1e-05	5
21700	4e-05	-4e-05	1e-05	0.0001	1e-05	0.00015	8e-05	1e-05	5
21701	4e-05	-4e-05	1e-05	0.0001	1e-05	0.00015	8e-05	1e-05	5
21702	4e-05	-4e-05	1e-05	0.0001	1e-05	0.00015	8e-05	1e-05	5
21703	4e-05	-4e-05	1e-05	0.0001	1e-05	0.00015	8e-05	1e-05	5
21704	4e-05	-4e-05	1e-05	0.0001	1e-05	0.00015	8e-05	1e-05	5
21705	4e-05	-4e-05	1e-05	0.0001	1e-05	0.00015	8e-05	1e-05	5
21706	4e-05	-4e-05	1e-05	0.0001	1e-05	0.00015	8e-05	1e-05	5
21707	4e-05	-4e-05	1e-05	0.0001	1e-05	0.00015	8e-05	1e-05	5
21708	4e-05	-4e-05	1e-05	0.0001	1e-05	0.00015	8e-05	1e-05	5
21709	4e-05	-4e-05	1e-05	0.0001	1e-05	0.00015	8e-05	1e-05	5
21710	2e-05	3e-05	-0.00016	-0.00015	0	-0.00016	-0.00012	-7e-05	5
21711	2e-05	3e-05	-0.00016	-0.00015	0	-0.00016	-0.00012	-7e-05	5
21712	-0.00015	0	2e-05	-4e-05	-2e-05	-0.00016	-7e-05	-2e-05	5
21713	-0.00015	0	2e-05	-4e-05	-2e-05	-0.00016	-7e-05	-2e-05	5
21714	-0.00015	0	2e-05	-4e-05	-2e-05	-0.00016	-7e-05	-2e-05	5
21715	-0.00015	0	2e-05	-4e-05	-2e-05	-0.00016	-7e-05	-2e-05	5
21716	-0.00015	0	2e-05	-4e-05	-2e-05	-0.00016	-7e-05	-2e-05	5
21717	-0.00015	0	2e-05	-4e-05	-2e-05	-0.00016	-7e-05	-2e-05	5
21718	-0.00015	0	2e-05	-4e-05	-2e-05	-0.00016	-7e-05	-2e-05	5
21719	-0.00015	0	2e-05	-4e-05	-2e-05	-0.00016	-7e-05	-2e-05	5
21720	-0.00015	0	2e-05	-4e-05	-2e-05	-0.00016	-7e-05	-2e-05	5
21721	-0.00015	0	2e-05	-4e-05	-2e-05	-0.00016	-7e-05	-2e-05	5
21722	-0.00015	0	2e-05	-4e-05	-2e-05	-0.00016	-7e-05	-2e-05	5
21723	-0.00015	0	2e-05	-4e-05	-2e-05	-0.00016	-7e-05	-2e-05	5
21724	-0.00015	0	2e-05	-4e-05	-2e-05	-0.00016	-7e-05	-2e-05	5
21725	-0.00015	0	2e-05	-4e-05	-2e-05	-0.00016	-7e-05	-2e-05	5
21726	-0.00015	0	2e-05	-4e-05	-2e-05	-0.00016	-7e-05	-2e-05	5
21727	-0.00015	0	2e-05	-4e-05	-2e-05	-0.00016	-7e-05	-2e-05	5
21728	-0.00015	0	2e-05	-4e-05	-2e-05	-0.00016	-7e-05	-2e-05	5
21729	-0.00015	0	2e-05	-4e-05	-2e-05	-0.00016	-7e-05	-2e-05	5
21730	-0.00015	0	2e-05	-4e-05	-2e-05	-0.00016	-7e-05	-2e-05	5
21731	-0.00015	0	2e-05	-4e-05	-2e-05	-0.00016	-7e-05	-2e-05	5
21732	0.0003	0	-9e-05	4e-05	-7e-05	0.00023	0.00011	0.00011	5
21733	-5e-05	2e-05	-4e-05	-0.00049	-2e-05	-0.00012	-7e-05	-8e-05	5
21734	0.00016	-6e-05	-6e-05	-0.00017	-3e-05	-8e-05	-7e-05	-8e-05	5
21735	0.00016	-6e-05	-6e-05	-0.00017	-3e-05	-8e-05	-7e-05	-8e-05	5
21736	0.00016	-6e-05	-6e-05	-0.00017	-3e-05	-8e-05	-7e-05	-8e-05	5
21738	0.00016	-6e-05	-6e-05	-0.00017	-3e-05	-8e-05	-7e-05	-8e-05	5
21739	0.00016	-6e-05	-6e-05	-0.00017	-3e-05	-8e-05	-7e-05	-8e-05	5
21740	0.00016	-6e-05	-6e-05	-0.00017	-3e-05	-8e-05	-7e-05	-8e-05	5
21741	0.00016	-6e-05	-6e-05	-0.00017	-3e-05	-8e-05	-7e-05	-8e-05	5
21742	0.00016	-6e-05	-6e-05	-0.00017	-3e-05	-8e-05	-7e-05	-8e-05	5
21743	0.00016	-6e-05	-6e-05	-0.00017	-3e-05	-8e-05	-7e-05	-8e-05	5
21744	0.00016	-6e-05	-6e-05	-0.00017	-3e-05	-8e-05	-7e-05	-8e-05	5
21745	0.00016	-6e-05	-6e-05	-0.00017	-3e-05	-8e-05	-7e-05	-8e-05	5
21746	0.00016	-6e-05	-6e-05	-0.00017	-3e-05	-8e-05	-7e-05	-8e-05	5
21747	3e-05	-2e-05	8e-05	0.0003	-0.00012	6e-05	1e-05	-4e-05	5
21748	3e-05	-2e-05	8e-05	0.0003	-0.00012	6e-05	1e-05	-4e-05	5
21749	-7e-05	-7e-05	-2e-05	-1e-05	-1e-05	0.00034	2e-05	-2e-05	5
21750	-7e-05	-7e-05	-2e-05	-1e-05	-1e-05	0.00034	2e-05	-2e-05	5
21751	-7e-05	-7e-05	-2e-05	-1e-05	-1e-05	0.00034	2e-05	-2e-05	5
21752	-7e-05	-7e-05	-2e-05	-1e-05	-1e-05	0.00034	2e-05	-2e-05	5
21753	-7e-05	-7e-05	-2e-05	-1e-05	-1e-05	0.00034	2e-05	-2e-05	5
21754	-7e-05	-7e-05	-2e-05	-1e-05	-1e-05	0.00034	2e-05	-2e-05	5
21755	-7e-05	-7e-05	-2e-05	-1e-05	-1e-05	0.00034	2e-05	-2e-05	5
21756	-7e-05	-7e-05	-2e-05	-1e-05	-1e-05	0.00034	2e-05	-2e-05	5
21757	-7e-05	-7e-05	-2e-05	-1e-05	-1e-05	0.00034	2e-05	-2e-05	5
21758	-7e-05	-7e-05	-2e-05	-1e-05	-1e-05	0.00034	2e-05	-2e-05	5
21759	-7e-05	-7e-05	-2e-05	-1e-05	-1e-05	0.00034	2e-05	-2e-05	5
21760	-7e-05	-7e-05	-2e-05	-1e-05	-1e-05	0.00034	2e-05	-2e-05	5
21761	-7e-05	-7e-05	-2e-05	-1e-05	-1e-05	0.00034	2e-05	-2e-05	5
21762	-7e-05	-7e-05	-2e-05	-1e-05	-1e-05	0.00034	2e-05	-2e-05	5
21763	-7e-05	-7e-05	-2e-05	-1e-05	-1e-05	0.00034	2e-05	-2e-05	5
21764	-7e-05	-7e-05	-2e-05	-1e-05	-1e-05	0.00034	2e-05	-2e-05	5
21765	-7e-05	-7e-05	-2e-05	-1e-05	-1e-05	0.00034	2e-05	-2e-05	5
21766	-7e-05	-7e-05	-2e-05	-1e-05	-1e-05	0.00034	2e-05	-2e-05	5
21767	-7e-05	-7e-05	-2e-05	-1e-05	-1e-05	0.00034	2e-05	-2e-05	5
21768	-7e-05	-7e-05	-2e-05	-1e-05	-1e-05	0.00034	2e-05	-2e-05	5
21769	-7e-05	-7e-05	-2e-05	-1e-05	-1e-05	0.00034	2e-05	-2e-05	5
21770	2e-05	-6e-05	-7e-05	-0.00014	1e-05	0.0002	7e-05	4e-05	5
21771	0.0001	0	-7e-05	0.00015	-6e-05	-9e-05	1e-05	1e-05	5
21772	0.0001	0	-7e-05	0.00015	-6e-05	-9e-05	1e-05	1e-05	5
21773	0.0001	0	-7e-05	0.00015	-6e-05	-9e-05	1e-05	1e-05	5
21774	0.0001	0	-7e-05	0.00015	-6e-05	-9e-05	1e-05	1e-05	5
21775	0.0001	0	-7e-05	0.00015	-6e-05	-9e-05	1e-05	1e-05	5
21776	0.0001	0	-7e-05	0.00015	-6e-05	-9e-05	1e-05	1e-05	5
21777	0.0001	0	-7e-05	0.00015	-6e-05	-9e-05	1e-05	1e-05	5
21778	0.0001	0	-7e-05	0.00015	-6e-05	-9e-05	1e-05	1e-05	5
21779	0.0001	0	-7e-05	0.00015	-6e-05	-9e-05	1e-05	1e-05	5
21780	0.0001	0	-7e-05	0.00015	-6e-05	-9e-05	1e-05	1e-05	5
21781	0.0001	0	-7e-05	0.00015	-6e-05	-9e-05	1e-05	1e-05	5
21782	0.0001	0	-7e-05	0.00015	-6e-05	-9e-05	1e-05	1e-05	5
21783	0.0001	0	-7e-05	0.00015	-6e-05	-9e-05	1e-05	1e-05	5
21784	0.0001	0	-7e-05	0.00015	-6e-05	-9e-05	1e-05	1e-05	5
21785	0.0001	0	-7e-05	0.00015	-6e-05	-9e-05	1e-05	1e-05	5
21786	0.0001	0	-7e-05	0.00015	-6e-05	-9e-05	1e-05	1e-05	5
21788	0.0001	0	-7e-05	0.00015	-6e-05	-9e-05	1e-05	1e-05	5
21789	0.0001	0	-7e-05	0.00015	-6e-05	-9e-05	1e-05	1e-05	5
21790	0.0001	0	-7e-05	0.00015	-6e-05	-9e-05	1e-05	1e-05	5
21791	0.0001	0	-7e-05	0.00015	-6e-05	-9e-05	1e-05	1e-05	5
21792	-0.00044	-0.00022	-4e-05	0.00016	3e-05	-0.00011	-4e-05	-4e-05	5
21793	-8e-05	2e-05	-2e-05	-0.00016	1e-05	-4e-05	-3e-05	-8e-05	5
21794	-0.00028	-8e-05	-1e-05	8e-05	1e-05	2e-05	-5e-05	-5e-05	5
21795	-0.00028	-8e-05	-1e-05	8e-05	1e-05	2e-05	-5e-05	-5e-05	5
21796	-0.00028	-8e-05	-1e-05	8e-05	1e-05	2e-05	-5e-05	-5e-05	5
21797	-0.00028	-8e-05	-1e-05	8e-05	1e-05	2e-05	-5e-05	-5e-05	5
21798	-0.00028	-8e-05	-1e-05	8e-05	1e-05	2e-05	-5e-05	-5e-05	5
21799	-0.00028	-8e-05	-1e-05	8e-05	1e-05	2e-05	-5e-05	-5e-05	5
21800	-0.00028	-8e-05	-1e-05	8e-05	1e-05	2e-05	-5e-05	-5e-05	5
21801	-0.00028	-8e-05	-1e-05	8e-05	1e-05	2e-05	-5e-05	-5e-05	5
21802	-0.00028	-8e-05	-1e-05	8e-05	1e-05	2e-05	-5e-05	-5e-05	5
21803	-0.00028	-8e-05	-1e-05	8e-05	1e-05	2e-05	-5e-05	-5e-05	5
21804	-0.00028	-8e-05	-1e-05	8e-05	1e-05	2e-05	-5e-05	-5e-05	5
21805	-0.00028	-8e-05	-1e-05	8e-05	1e-05	2e-05	-5e-05	-5e-05	5
21806	-0.00028	-8e-05	-1e-05	8e-05	1e-05	2e-05	-5e-05	-5e-05	5
21807	-0.00028	-8e-05	-1e-05	8e-05	1e-05	2e-05	-5e-05	-5e-05	5
21808	-0.00028	-8e-05	-1e-05	8e-05	1e-05	2e-05	-5e-05	-5e-05	5
21809	-0.00028	-8e-05	-1e-05	8e-05	1e-05	2e-05	-5e-05	-5e-05	5
21810	-0.00028	-8e-05	-1e-05	8e-05	1e-05	2e-05	-5e-05	-5e-05	5
21811	-0.00028	-8e-05	-1e-05	8e-05	1e-05	2e-05	-5e-05	-5e-05	5
21812	-0.00028	-8e-05	-1e-05	8e-05	1e-05	2e-05	-5e-05	-5e-05	5
21813	-0.00028	-8e-05	-1e-05	8e-05	1e-05	2e-05	-5e-05	-5e-05	5
21814	-0.00028	-8e-05	-1e-05	8e-05	1e-05	2e-05	-5e-05	-5e-05	5
21815	0.00013	-0.00025	6e-05	0.00014	0	7e-05	7e-05	0.00015	5
21816	-4e-05	2e-05	-5e-05	-0.00044	-0.0001	-0.00013	-2e-05	1e-05	5
21817	3e-05	0.00011	4e-05	0.00026	2e-05	-0.00026	-6e-05	-6e-05	5
21818	3e-05	0.00011	4e-05	0.00026	2e-05	-0.00026	-6e-05	-6e-05	5
21819	3e-05	0.00011	4e-05	0.00026	2e-05	-0.00026	-6e-05	-6e-05	5
21820	3e-05	0.00011	4e-05	0.00026	2e-05	-0.00026	-6e-05	-6e-05	5
21821	3e-05	0.00011	4e-05	0.00026	2e-05	-0.00026	-6e-05	-6e-05	5
21822	3e-05	0.00011	4e-05	0.00026	2e-05	-0.00026	-6e-05	-6e-05	5
21823	3e-05	0.00011	4e-05	0.00026	2e-05	-0.00026	-6e-05	-6e-05	5
21824	3e-05	0.00011	4e-05	0.00026	2e-05	-0.00026	-6e-05	-6e-05	5
21825	3e-05	0.00011	4e-05	0.00026	2e-05	-0.00026	-6e-05	-6e-05	5
21826	3e-05	0.00011	4e-05	0.00026	2e-05	-0.00026	-6e-05	-6e-05	5
21827	3e-05	0.00011	4e-05	0.00026	2e-05	-0.00026	-6e-05	-6e-05	5
21828	3e-05	0.00011	4e-05	0.00026	2e-05	-0.00026	-6e-05	-6e-05	5
21829	3e-05	0.00011	4e-05	0.00026	2e-05	-0.00026	-6e-05	-6e-05	5
21830	0.00032	0.00019	0.00028	0.00081	-0.00013	0.00015	8e-05	6e-05	5
21831	0.00032	0.00019	0.00028	0.00081	-0.00013	0.00015	8e-05	6e-05	5
21832	0.00016	3e-05	0.00018	0.00012	4e-05	-0.0002	-2e-05	3e-05	5
21833	0.00016	3e-05	0.00018	0.00012	4e-05	-0.0002	-2e-05	3e-05	5
21834	0.00016	3e-05	0.00018	0.00012	4e-05	-0.0002	-2e-05	3e-05	5
21835	0.00016	3e-05	0.00018	0.00012	4e-05	-0.0002	-2e-05	3e-05	5
21836	0.00016	3e-05	0.00018	0.00012	4e-05	-0.0002	-2e-05	3e-05	5
21838	0.00016	3e-05	0.00018	0.00012	4e-05	-0.0002	-2e-05	3e-05	5
21839	0.00016	3e-05	0.00018	0.00012	4e-05	-0.0002	-2e-05	3e-05	5
21840	0.00016	3e-05	0.00018	0.00012	4e-05	-0.0002	-2e-05	3e-05	5
21841	0.00016	3e-05	0.00018	0.00012	4e-05	-0.0002	-2e-05	3e-05	5
21842	0.00016	3e-05	0.00018	0.00012	4e-05	-0.0002	-2e-05	3e-05	5
21843	0.00016	3e-05	0.00018	0.00012	4e-05	-0.0002	-2e-05	3e-05	5
21844	0.00016	3e-05	0.00018	0.00012	4e-05	-0.0002	-2e-05	3e-05	5
21845	0.00016	3e-05	0.00018	0.00012	4e-05	-0.0002	-2e-05	3e-05	5
21846	0.00016	3e-05	0.00018	0.00012	4e-05	-0.0002	-2e-05	3e-05	5
21847	0.00016	3e-05	0.00018	0.00012	4e-05	-0.0002	-2e-05	3e-05	5
21848	0.00016	3e-05	0.00018	0.00012	4e-05	-0.0002	-2e-05	3e-05	5
21849	0.00016	3e-05	0.00018	0.00012	4e-05	-0.0002	-2e-05	3e-05	5
21850	0.00016	3e-05	0.00018	0.00012	4e-05	-0.0002	-2e-05	3e-05	5
21851	0.00016	3e-05	0.00018	0.00012	4e-05	-0.0002	-2e-05	3e-05	5
21852	-1e-05	-6e-05	-0.00023	-0.00037	-1e-05	0.00013	6e-05	7e-05	5
21853	4e-05	1e-05	0	0.00048	-8e-05	-0.00015	3e-05	-1e-05	5
21854	-9e-05	2e-05	0	-0.00017	5e-05	-8e-05	-6e-05	-4e-05	5
21855	-9e-05	2e-05	0	-0.00017	5e-05	-8e-05	-6e-05	-4e-05	5
21856	-9e-05	2e-05	0	-0.00017	5e-05	-8e-05	-6e-05	-4e-05	5
21857	-9e-05	2e-05	0	-0.00017	5e-05	-8e-05	-6e-05	-4e-05	5
21858	-9e-05	2e-05	0	-0.00017	5e-05	-8e-05	-6e-05	-4e-05	5
21859	-9e-05	2e-05	0	-0.00017	5e-05	-8e-05	-6e-05	-4e-05	5
21860	-9e-05	2e-05	0	-0.00017	5e-05	-8e-05	-6e-05	-4e-05	5
21861	-9e-05	2e-05	0	-0.00017	5e-05	-8e-05	-6e-05	-4e-05	5
21862	-9e-05	2e-05	0	-0.00017	5e-05	-8e-05	-6e-05	-4e-05	5
21863	-9e-05	2e-05	0	-0.00017	5e-05	-8e-05	-6e-05	-4e-05	5
21864	-9e-05	2e-05	0	-0.00017	5e-05	-8e-05	-6e-05	-4e-05	5
21865	-9e-05	2e-05	0	-0.00017	5e-05	-8e-05	-6e-05	-4e-05	5
21866	-9e-05	2e-05	0	-0.00017	5e-05	-8e-05	-6e-05	-4e-05	5
21867	-9e-05	2e-05	0	-0.00017	5e-05	-8e-05	-6e-05	-4e-05	5
21868	-9e-05	2e-05	0	-0.00017	5e-05	-8e-05	-6e-05	-4e-05	5
21869	-9e-05	2e-05	0	-0.00017	5e-05	-8e-05	-6e-05	-4e-05	5
21870	-9e-05	2e-05	0	-0.00017	5e-05	-8e-05	-6e-05	-4e-05	5
21871	-9e-05	2e-05	0	-0.00017	5e-05	-8e-05	-6e-05	-4e-05	5
21872	-9e-05	2e-05	0	-0.00017	5e-05	-8e-05	-6e-05	-4e-05	5
21873	-9e-05	2e-05	0	-0.00017	5e-05	-8e-05	-6e-05	-4e-05	5
21874	-9e-05	2e-05	0	-0.00017	5e-05	-8e-05	-6e-05	-4e-05	5
21875	-4e-05	-2e-05	-0.00019	-0.00038	5e-05	5e-05	0	-1e-05	5
21876	-4e-05	-2e-05	-0.00019	-0.00038	5e-05	5e-05	0	-1e-05	5
21877	0	-2e-05	-0.00021	-7e-05	-9e-05	9e-05	-1e-05	1e-05	5
21878	0	-2e-05	-0.00021	-7e-05	-9e-05	9e-05	-1e-05	1e-05	5
21879	0	-2e-05	-0.00021	-7e-05	-9e-05	9e-05	-1e-05	1e-05	5
21880	0	-2e-05	-0.00021	-7e-05	-9e-05	9e-05	-1e-05	1e-05	5
21881	0	-2e-05	-0.00021	-7e-05	-9e-05	9e-05	-1e-05	1e-05	5
21882	0	-2e-05	-0.00021	-7e-05	-9e-05	9e-05	-1e-05	1e-05	5
21883	0	-2e-05	-0.00021	-7e-05	-9e-05	9e-05	-1e-05	1e-05	5
21884	0	-2e-05	-0.00021	-7e-05	-9e-05	9e-05	-1e-05	1e-05	5
21885	0	-2e-05	-0.00021	-7e-05	-9e-05	9e-05	-1e-05	1e-05	5
21886	0	-2e-05	-0.00021	-7e-05	-9e-05	9e-05	-1e-05	1e-05	5
21888	0	-2e-05	-0.00021	-7e-05	-9e-05	9e-05	-1e-05	1e-05	5
21889	0	-2e-05	-0.00021	-7e-05	-9e-05	9e-05	-1e-05	1e-05	5
21890	2e-05	-6e-05	-7e-05	-0.00036	-7e-05	4e-05	3e-05	-2e-05	5
21891	2e-05	-6e-05	-7e-05	-0.00036	-7e-05	4e-05	3e-05	-2e-05	5
21892	4e-05	-6e-05	-2e-05	0.00018	1e-05	-0.00013	-1e-05	3e-05	5
21893	-0.00046	-8e-05	-7e-05	-0.00019	2e-05	1e-05	1e-05	-3e-05	5
21894	-0.00046	-8e-05	-7e-05	-0.00019	2e-05	1e-05	1e-05	-3e-05	5
21895	-0.00046	-8e-05	-7e-05	-0.00019	2e-05	1e-05	1e-05	-3e-05	5
21896	-0.00046	-8e-05	-7e-05	-0.00019	2e-05	1e-05	1e-05	-3e-05	5
21897	-0.00046	-8e-05	-7e-05	-0.00019	2e-05	1e-05	1e-05	-3e-05	5
21898	-0.00046	-8e-05	-7e-05	-0.00019	2e-05	1e-05	1e-05	-3e-05	5
21899	-0.00046	-8e-05	-7e-05	-0.00019	2e-05	1e-05	1e-05	-3e-05	5
21900	-0.00046	-8e-05	-7e-05	-0.00019	2e-05	1e-05	1e-05	-3e-05	5
21901	-0.00046	-8e-05	-7e-05	-0.00019	2e-05	1e-05	1e-05	-3e-05	5
21902	-0.00046	-8e-05	-7e-05	-0.00019	2e-05	1e-05	1e-05	-3e-05	5
21903	-0.00046	-8e-05	-7e-05	-0.00019	2e-05	1e-05	1e-05	-3e-05	5
21904	-0.00046	-8e-05	-7e-05	-0.00019	2e-05	1e-05	1e-05	-3e-05	5
21905	-0.00046	-8e-05	-7e-05	-0.00019	2e-05	1e-05	1e-05	-3e-05	5
21906	-0.00046	-8e-05	-7e-05	-0.00019	2e-05	1e-05	1e-05	-3e-05	5
21907	-0.00046	-8e-05	-7e-05	-0.00019	2e-05	1e-05	1e-05	-3e-05	5
21908	-0.00046	-8e-05	-7e-05	-0.00019	2e-05	1e-05	1e-05	-3e-05	5
21909	-0.00046	-8e-05	-7e-05	-0.00019	2e-05	1e-05	1e-05	-3e-05	5
21910	-0.00046	-8e-05	-7e-05	-0.00019	2e-05	1e-05	1e-05	-3e-05	5
21911	-0.00046	-8e-05	-7e-05	-0.00019	2e-05	1e-05	1e-05	-3e-05	5
21912	0.00015	8e-05	-2e-05	0.00038	-9e-05	0.00048	-2e-05	1e-05	5
21913	-0.00019	-5e-05	4e-05	0	0	0.00012	2e-05	-1e-05	5
21914	0.00016	2e-05	9e-05	0.00036	-3e-05	0.00011	-1e-05	9e-05	5
21915	0.00016	2e-05	9e-05	0.00036	-3e-05	0.00011	-1e-05	9e-05	5
21916	0.00016	2e-05	9e-05	0.00036	-3e-05	0.00011	-1e-05	9e-05	5
21917	0.00016	2e-05	9e-05	0.00036	-3e-05	0.00011	-1e-05	9e-05	5
21918	0.00016	2e-05	9e-05	0.00036	-3e-05	0.00011	-1e-05	9e-05	5
21919	0.00016	2e-05	9e-05	0.00036	-3e-05	0.00011	-1e-05	9e-05	5
21920	0.00016	2e-05	9e-05	0.00036	-3e-05	0.00011	-1e-05	9e-05	5
21921	0.00016	2e-05	9e-05	0.00036	-3e-05	0.00011	-1e-05	9e-05	5
21922	0.00016	2e-05	9e-05	0.00036	-3e-05	0.00011	-1e-05	9e-05	5
21923	0.00016	2e-05	9e-05	0.00036	-3e-05	0.00011	-1e-05	9e-05	5
21924	0.00016	2e-05	9e-05	0.00036	-3e-05	0.00011	-1e-05	9e-05	5
21925	0.00016	2e-05	9e-05	0.00036	-3e-05	0.00011	-1e-05	9e-05	5
21926	0.00016	2e-05	9e-05	0.00036	-3e-05	0.00011	-1e-05	9e-05	5
21927	-2e-05	0.00011	-3e-05	-0.00042	-4e-05	6e-05	3e-05	3e-05	5
21928	-2e-05	0.00011	-3e-05	-0.00042	-4e-05	6e-05	3e-05	3e-05	5
21929	-2e-05	0.00011	-3e-05	-0.00042	-4e-05	6e-05	3e-05	3e-05	5
21930	-2e-05	0.00011	-3e-05	-0.00042	-4e-05	6e-05	3e-05	3e-05	5
21931	-2e-05	0.00011	-3e-05	-0.00042	-4e-05	6e-05	3e-05	3e-05	5
21932	-2e-05	0.00011	-3e-05	-0.00042	-4e-05	6e-05	3e-05	3e-05	5
21933	-2e-05	0.00011	-3e-05	-0.00042	-4e-05	6e-05	3e-05	3e-05	5
21934	4e-05	-1e-05	7e-05	0.00026	-4e-05	-8e-05	-1e-05	-2e-05	5
21935	4e-05	-1e-05	7e-05	0.00026	-4e-05	-8e-05	-1e-05	-2e-05	5
21936	4e-05	-1e-05	7e-05	0.00026	-4e-05	-8e-05	-1e-05	-2e-05	5
21938	4e-05	-1e-05	7e-05	0.00026	-4e-05	-8e-05	-1e-05	-2e-05	5
21939	4e-05	-1e-05	7e-05	0.00026	-4e-05	-8e-05	-1e-05	-2e-05	5
21940	4e-05	-1e-05	7e-05	0.00026	-4e-05	-8e-05	-1e-05	-2e-05	5
21941	4e-05	-1e-05	7e-05	0.00026	-4e-05	-8e-05	-1e-05	-2e-05	5
21942	4e-05	-1e-05	7e-05	0.00026	-4e-05	-8e-05	-1e-05	-2e-05	5
21943	4e-05	-1e-05	7e-05	0.00026	-4e-05	-8e-05	-1e-05	-2e-05	5
21944	4e-05	-1e-05	7e-05	0.00026	-4e-05	-8e-05	-1e-05	-2e-05	5
21945	4e-05	-1e-05	7e-05	0.00026	-4e-05	-8e-05	-1e-05	-2e-05	5
21946	4e-05	-1e-05	7e-05	0.00026	-4e-05	-8e-05	-1e-05	-2e-05	5
21947	4e-05	-1e-05	7e-05	0.00026	-4e-05	-8e-05	-1e-05	-2e-05	5
21948	4e-05	-1e-05	7e-05	0.00026	-4e-05	-8e-05	-1e-05	-2e-05	5
21949	4e-05	-1e-05	7e-05	0.00026	-4e-05	-8e-05	-1e-05	-2e-05	5
21950	7e-05	0	-2e-05	-9e-05	6e-05	-0.00012	-4e-05	-3e-05	5
21951	1e-05	5e-05	2e-05	-0.00056	4e-05	-0.00014	-3e-05	1e-05	5
21952	6e-05	6e-05	0.00019	0.00048	-5e-05	0.00027	0.00021	0.00012	5
21953	6e-05	6e-05	0.00019	0.00048	-5e-05	0.00027	0.00021	0.00012	5
21954	6e-05	6e-05	0.00019	0.00048	-5e-05	0.00027	0.00021	0.00012	5
21955	6e-05	6e-05	0.00019	0.00048	-5e-05	0.00027	0.00021	0.00012	5
21956	6e-05	6e-05	0.00019	0.00048	-5e-05	0.00027	0.00021	0.00012	5
21957	6e-05	6e-05	0.00019	0.00048	-5e-05	0.00027	0.00021	0.00012	5
21958	6e-05	6e-05	0.00019	0.00048	-5e-05	0.00027	0.00021	0.00012	5
21959	6e-05	6e-05	0.00019	0.00048	-5e-05	0.00027	0.00021	0.00012	5
21960	6e-05	6e-05	0.00019	0.00048	-5e-05	0.00027	0.00021	0.00012	5
21961	6e-05	6e-05	0.00019	0.00048	-5e-05	0.00027	0.00021	0.00012	5
21962	6e-05	6e-05	0.00019	0.00048	-5e-05	0.00027	0.00021	0.00012	5
21963	6e-05	6e-05	0.00019	0.00048	-5e-05	0.00027	0.00021	0.00012	5
21964	6e-05	6e-05	0.00019	0.00048	-5e-05	0.00027	0.00021	0.00012	5
21965	6e-05	6e-05	0.00019	0.00048	-5e-05	0.00027	0.00021	0.00012	5
21966	6e-05	6e-05	0.00019	0.00048	-5e-05	0.00027	0.00021	0.00012	5
21967	6e-05	6e-05	0.00019	0.00048	-5e-05	0.00027	0.00021	0.00012	5
21968	6e-05	6e-05	0.00019	0.00048	-5e-05	0.00027	0.00021	0.00012	5
21969	6e-05	6e-05	0.00019	0.00048	-5e-05	0.00027	0.00021	0.00012	5
21970	6e-05	6e-05	0.00019	0.00048	-5e-05	0.00027	0.00021	0.00012	5
21971	6e-05	6e-05	0.00019	0.00048	-5e-05	0.00027	0.00021	0.00012	5
21972	-9e-05	-0.00011	0	0.00019	4e-05	-0.00023	-6e-05	-3e-05	5
21973	-2e-05	-4e-05	-0.00013	-0.00022	9e-05	-0.00038	-0.00014	-0.00013	5
21974	-6e-05	-5e-05	-5e-05	-0.00046	0.0001	-7e-05	-0.00017	-7e-05	5
21975	-6e-05	-5e-05	-5e-05	-0.00046	0.0001	-7e-05	-0.00017	-7e-05	5
21976	-6e-05	-5e-05	-5e-05	-0.00046	0.0001	-7e-05	-0.00017	-7e-05	5
21977	-6e-05	-5e-05	-5e-05	-0.00046	0.0001	-7e-05	-0.00017	-7e-05	5
21978	-6e-05	-5e-05	-5e-05	-0.00046	0.0001	-7e-05	-0.00017	-7e-05	5
21979	-6e-05	-5e-05	-5e-05	-0.00046	0.0001	-7e-05	-0.00017	-7e-05	5
21980	-6e-05	-5e-05	-5e-05	-0.00046	0.0001	-7e-05	-0.00017	-7e-05	5
21981	-6e-05	-5e-05	-5e-05	-0.00046	0.0001	-7e-05	-0.00017	-7e-05	5
21982	-6e-05	-5e-05	-5e-05	-0.00046	0.0001	-7e-05	-0.00017	-7e-05	5
21983	-6e-05	-5e-05	-5e-05	-0.00046	0.0001	-7e-05	-0.00017	-7e-05	5
21984	-6e-05	-5e-05	-5e-05	-0.00046	0.0001	-7e-05	-0.00017	-7e-05	5
21985	-6e-05	-5e-05	-5e-05	-0.00046	0.0001	-7e-05	-0.00017	-7e-05	5
21986	-6e-05	-5e-05	-5e-05	-0.00046	0.0001	-7e-05	-0.00017	-7e-05	5
21988	0.00013	-0.0001	0	0.00021	-8e-05	0.00031	0.0001	7e-05	5
21990	0.00013	-0.0001	0	0.00021	-8e-05	0.00031	0.0001	7e-05	5
21991	0.00013	-0.0001	0	0.00021	-8e-05	0.00031	0.0001	7e-05	5
21992	0.00013	-0.0001	0	0.00021	-8e-05	0.00031	0.0001	7e-05	5
21993	0	4e-05	-3e-05	-0.00038	0	5e-05	1e-05	1e-05	5
21994	0	-0.00017	-8e-05	0.00063	1e-05	-6e-05	4e-05	-4e-05	5
21995	0	-0.00017	-8e-05	0.00063	1e-05	-6e-05	4e-05	-4e-05	5
21996	0	-0.00017	-8e-05	0.00063	1e-05	-6e-05	4e-05	-4e-05	5
21997	0	-0.00017	-8e-05	0.00063	1e-05	-6e-05	4e-05	-4e-05	5
21998	0	-0.00017	-8e-05	0.00063	1e-05	-6e-05	4e-05	-4e-05	5
21999	0	-0.00017	-8e-05	0.00063	1e-05	-6e-05	4e-05	-4e-05	5
22000	0	-0.00017	-8e-05	0.00063	1e-05	-6e-05	4e-05	-4e-05	5
22001	0	-0.00017	-8e-05	0.00063	1e-05	-6e-05	4e-05	-4e-05	5
22002	0	-0.00017	-8e-05	0.00063	1e-05	-6e-05	4e-05	-4e-05	5
22003	0	-0.00017	-8e-05	0.00063	1e-05	-6e-05	4e-05	-4e-05	5
22004	0	-0.00017	-8e-05	0.00063	1e-05	-6e-05	4e-05	-4e-05	5
22005	0	-0.00017	-8e-05	0.00063	1e-05	-6e-05	4e-05	-4e-05	5
22006	0	-0.00017	-8e-05	0.00063	1e-05	-6e-05	4e-05	-4e-05	5
22007	0	-0.00017	-8e-05	0.00063	1e-05	-6e-05	4e-05	-4e-05	5
22008	0	-0.00017	-8e-05	0.00063	1e-05	-6e-05	4e-05	-4e-05	5
22009	0	-0.00017	-8e-05	0.00063	1e-05	-6e-05	4e-05	-4e-05	5
22010	6e-05	0.00013	-4e-05	-0.0002	5e-05	-5e-05	1e-05	5e-05	5
22011	-0.00047	-3e-05	-0.00017	-0.00039	-5e-05	0.00025	4e-05	0	5
22012	-0.00047	-3e-05	-0.00017	-0.00039	-5e-05	0.00025	4e-05	0	5
22013	-0.00047	-3e-05	-0.00017	-0.00039	-5e-05	0.00025	4e-05	0	5
22015	-0.00047	-3e-05	-0.00017	-0.00039	-5e-05	0.00025	4e-05	0	5
22016	-0.00047	-3e-05	-0.00017	-0.00039	-5e-05	0.00025	4e-05	0	5
22017	-0.00047	-3e-05	-0.00017	-0.00039	-5e-05	0.00025	4e-05	0	5
22018	-0.00047	-3e-05	-0.00017	-0.00039	-5e-05	0.00025	4e-05	0	5
22019	-0.00047	-3e-05	-0.00017	-0.00039	-5e-05	0.00025	4e-05	0	5
22020	-0.00047	-3e-05	-0.00017	-0.00039	-5e-05	0.00025	4e-05	0	5
22021	-0.00047	-3e-05	-0.00017	-0.00039	-5e-05	0.00025	4e-05	0	5
22022	-0.00047	-3e-05	-0.00017	-0.00039	-5e-05	0.00025	4e-05	0	5
22023	-0.00047	-3e-05	-0.00017	-0.00039	-5e-05	0.00025	4e-05	0	5
22024	-0.00047	-3e-05	-0.00017	-0.00039	-5e-05	0.00025	4e-05	0	5
22025	-0.00047	-3e-05	-0.00017	-0.00039	-5e-05	0.00025	4e-05	0	5
22026	-0.00047	-3e-05	-0.00017	-0.00039	-5e-05	0.00025	4e-05	0	5
22027	-0.00047	-3e-05	-0.00017	-0.00039	-5e-05	0.00025	4e-05	0	5
22028	-0.00047	-3e-05	-0.00017	-0.00039	-5e-05	0.00025	4e-05	0	5
22029	-0.00047	-3e-05	-0.00017	-0.00039	-5e-05	0.00025	4e-05	0	5
22030	-0.00047	-3e-05	-0.00017	-0.00039	-5e-05	0.00025	4e-05	0	5
22032	-0.00019	-0.00013	-6e-05	-0.00031	-4e-05	-0.00016	-7e-05	-7e-05	5
22033	-0.00019	-0.00013	-6e-05	-0.00031	-4e-05	-0.00016	-7e-05	-7e-05	5
22034	-0.00019	-0.00013	-6e-05	-0.00031	-4e-05	-0.00016	-7e-05	-7e-05	5
22035	-0.00019	-0.00013	-6e-05	-0.00031	-4e-05	-0.00016	-7e-05	-7e-05	5
22036	-0.00019	-0.00013	-6e-05	-0.00031	-4e-05	-0.00016	-7e-05	-7e-05	5
22038	1e-05	0.00018	2e-05	0.00023	1e-05	0.00019	1e-05	2e-05	5
22039	9e-05	-3e-05	-2e-05	-0.00017	-5e-05	-0.00028	-0.00011	-8e-05	5
22040	9e-05	-3e-05	-2e-05	-0.00017	-5e-05	-0.00028	-0.00011	-8e-05	5
22041	9e-05	-3e-05	-2e-05	-0.00017	-5e-05	-0.00028	-0.00011	-8e-05	5
22042	9e-05	-3e-05	-2e-05	-0.00017	-5e-05	-0.00028	-0.00011	-8e-05	5
22043	9e-05	-3e-05	-2e-05	-0.00017	-5e-05	-0.00028	-0.00011	-8e-05	5
22044	9e-05	-3e-05	-2e-05	-0.00017	-5e-05	-0.00028	-0.00011	-8e-05	5
22045	9e-05	-3e-05	-2e-05	-0.00017	-5e-05	-0.00028	-0.00011	-8e-05	5
22046	9e-05	-3e-05	-2e-05	-0.00017	-5e-05	-0.00028	-0.00011	-8e-05	5
22047	-8e-05	0	-3e-05	-0.00015	1e-05	-0.00015	-8e-05	-4e-05	5
22048	-8e-05	0	-3e-05	-0.00015	1e-05	-0.00015	-8e-05	-4e-05	5
22049	-8e-05	0	-3e-05	-0.00015	1e-05	-0.00015	-8e-05	-4e-05	5
22050	-8e-05	0	-3e-05	-0.00015	1e-05	-0.00015	-8e-05	-4e-05	5
22051	-8e-05	0	-3e-05	-0.00015	1e-05	-0.00015	-8e-05	-4e-05	5
22052	-8e-05	0	-3e-05	-0.00015	1e-05	-0.00015	-8e-05	-4e-05	5
22053	-8e-05	0	-3e-05	-0.00015	1e-05	-0.00015	-8e-05	-4e-05	5
22054	0.00013	0	0	-0.00026	0	-0.00027	-4e-05	0	5
22055	0.00013	0	0	-0.00026	0	-0.00027	-4e-05	0	5
22056	0.00013	0	0	-0.00026	0	-0.00027	-4e-05	0	5
22057	0.00013	0	0	-0.00026	0	-0.00027	-4e-05	0	5
22058	0.00013	0	0	-0.00026	0	-0.00027	-4e-05	0	5
22060	0.00013	0	0	-0.00026	0	-0.00027	-4e-05	0	5
22061	0.00013	0	0	-0.00026	0	-0.00027	-4e-05	0	5
22062	0.00013	0	0	-0.00026	0	-0.00027	-4e-05	0	5
22063	0.00013	0	0	-0.00026	0	-0.00027	-4e-05	0	5
22064	0.00013	0	0	-0.00026	0	-0.00027	-4e-05	0	5
22065	0.00013	0	0	-0.00026	0	-0.00027	-4e-05	0	5
22066	0.00013	0	0	-0.00026	0	-0.00027	-4e-05	0	5
22067	0.00013	0	0	-0.00026	0	-0.00027	-4e-05	0	5
22068	0.00013	0	0	-0.00026	0	-0.00027	-4e-05	0	5
22069	0.00013	0	0	-0.00026	0	-0.00027	-4e-05	0	5
22070	0.00017	6e-05	3e-05	0.00046	-4e-05	0.00023	0.00014	7e-05	5
22071	0.00017	6e-05	3e-05	0.00046	-4e-05	0.00023	0.00014	7e-05	5
22072	6e-05	0.0001	4e-05	-1e-05	3e-05	-3e-05	-3e-05	-6e-05	5
22073	6e-05	0.0001	4e-05	-1e-05	3e-05	-3e-05	-3e-05	-6e-05	5
22074	6e-05	0.0001	4e-05	-1e-05	3e-05	-3e-05	-3e-05	-6e-05	5
22075	6e-05	0.0001	4e-05	-1e-05	3e-05	-3e-05	-3e-05	-6e-05	5
22076	6e-05	0.0001	4e-05	-1e-05	3e-05	-3e-05	-3e-05	-6e-05	5
22077	6e-05	0.0001	4e-05	-1e-05	3e-05	-3e-05	-3e-05	-6e-05	5
22078	6e-05	0.0001	4e-05	-1e-05	3e-05	-3e-05	-3e-05	-6e-05	5
22079	6e-05	0.0001	4e-05	-1e-05	3e-05	-3e-05	-3e-05	-6e-05	5
22080	6e-05	0.0001	4e-05	-1e-05	3e-05	-3e-05	-3e-05	-6e-05	5
22081	6e-05	0.0001	4e-05	-1e-05	3e-05	-3e-05	-3e-05	-6e-05	5
22082	6e-05	0.0001	4e-05	-1e-05	3e-05	-3e-05	-3e-05	-6e-05	5
22083	6e-05	0.0001	4e-05	-1e-05	3e-05	-3e-05	-3e-05	-6e-05	5
22084	6e-05	0.0001	4e-05	-1e-05	3e-05	-3e-05	-3e-05	-6e-05	5
22085	6e-05	0.0001	4e-05	-1e-05	3e-05	-3e-05	-3e-05	-6e-05	5
22086	6e-05	0.0001	4e-05	-1e-05	3e-05	-3e-05	-3e-05	-6e-05	5
22088	6e-05	0.0001	4e-05	-1e-05	3e-05	-3e-05	-3e-05	-6e-05	5
22089	6e-05	0.0001	4e-05	-1e-05	3e-05	-3e-05	-3e-05	-6e-05	5
22090	6e-05	0.0001	4e-05	-1e-05	3e-05	-3e-05	-3e-05	-6e-05	5
22091	6e-05	0.0001	4e-05	-1e-05	3e-05	-3e-05	-3e-05	-6e-05	5
22092	6e-05	0.0001	4e-05	-1e-05	3e-05	-3e-05	-3e-05	-6e-05	5
22093	-7e-05	-0.00011	-6e-05	-0.00037	-2e-05	-0.00034	-9e-05	-2e-05	5
22094	-9e-05	-9e-05	0	8e-05	2e-05	9e-05	-1e-05	-4e-05	5
22095	-9e-05	-9e-05	0	8e-05	2e-05	9e-05	-1e-05	-4e-05	5
22096	-9e-05	-9e-05	0	8e-05	2e-05	9e-05	-1e-05	-4e-05	5
22097	-9e-05	-9e-05	0	8e-05	2e-05	9e-05	-1e-05	-4e-05	5
22098	-9e-05	-9e-05	0	8e-05	2e-05	9e-05	-1e-05	-4e-05	5
22099	-9e-05	-9e-05	0	8e-05	2e-05	9e-05	-1e-05	-4e-05	5
22100	-9e-05	-9e-05	0	8e-05	2e-05	9e-05	-1e-05	-4e-05	5
22101	-9e-05	-9e-05	0	8e-05	2e-05	9e-05	-1e-05	-4e-05	5
22102	-9e-05	-9e-05	0	8e-05	2e-05	9e-05	-1e-05	-4e-05	5
22103	-9e-05	-9e-05	0	8e-05	2e-05	9e-05	-1e-05	-4e-05	5
22104	-9e-05	-9e-05	0	8e-05	2e-05	9e-05	-1e-05	-4e-05	5
22105	-9e-05	-9e-05	0	8e-05	2e-05	9e-05	-1e-05	-4e-05	5
22106	-9e-05	-9e-05	0	8e-05	2e-05	9e-05	-1e-05	-4e-05	5
22107	-0.00015	-0.00012	-4e-05	0.00043	3e-05	-0.00016	-0.00011	-7e-05	5
22108	-0.00015	-0.00012	-4e-05	0.00043	3e-05	-0.00016	-0.00011	-7e-05	5
22109	-0.00015	-0.00012	-4e-05	0.00043	3e-05	-0.00016	-0.00011	-7e-05	5
22110	-0.00015	-0.00012	-4e-05	0.00043	3e-05	-0.00016	-0.00011	-7e-05	5
22111	-0.00015	-0.00012	-4e-05	0.00043	3e-05	-0.00016	-0.00011	-7e-05	5
22112	-0.00015	-0.00012	-4e-05	0.00043	3e-05	-0.00016	-0.00011	-7e-05	5
22113	-0.00015	-0.00012	-4e-05	0.00043	3e-05	-0.00016	-0.00011	-7e-05	5
22114	0.00017	1e-05	0	0	-8e-05	0.00017	-2e-05	-4e-05	5
22115	0.00017	1e-05	0	0	-8e-05	0.00017	-2e-05	-4e-05	5
22116	0.00017	1e-05	0	0	-8e-05	0.00017	-2e-05	-4e-05	5
22117	0.00017	1e-05	0	0	-8e-05	0.00017	-2e-05	-4e-05	5
22118	0.00017	1e-05	0	0	-8e-05	0.00017	-2e-05	-4e-05	5
22119	0.00017	1e-05	0	0	-8e-05	0.00017	-2e-05	-4e-05	5
22120	0.00017	1e-05	0	0	-8e-05	0.00017	-2e-05	-4e-05	5
22121	0.00017	1e-05	0	0	-8e-05	0.00017	-2e-05	-4e-05	5
22122	0.00017	1e-05	0	0	-8e-05	0.00017	-2e-05	-4e-05	5
22123	0.00017	1e-05	0	0	-8e-05	0.00017	-2e-05	-4e-05	5
22124	0.00017	1e-05	0	0	-8e-05	0.00017	-2e-05	-4e-05	5
22125	0.00017	1e-05	0	0	-8e-05	0.00017	-2e-05	-4e-05	5
22126	0.00017	1e-05	0	0	-8e-05	0.00017	-2e-05	-4e-05	5
22127	0.00017	1e-05	0	0	-8e-05	0.00017	-2e-05	-4e-05	5
22128	0.00017	1e-05	0	0	-8e-05	0.00017	-2e-05	-4e-05	5
22129	0.00017	1e-05	0	0	-8e-05	0.00017	-2e-05	-4e-05	5
22130	0.00013	0.00013	2e-05	-0.00025	6e-05	0.00029	8e-05	7e-05	5
22131	1e-05	-6e-05	-8e-05	-0.00014	-3e-05	-0.00024	1e-05	2e-05	5
22132	0.0002	0.00018	0.00012	0.00042	-4e-05	0.00053	0.00031	0.00018	5
22133	0.0002	0.00018	0.00012	0.00042	-4e-05	0.00053	0.00031	0.00018	5
22134	0.0002	0.00018	0.00012	0.00042	-4e-05	0.00053	0.00031	0.00018	5
22135	0.0002	0.00018	0.00012	0.00042	-4e-05	0.00053	0.00031	0.00018	5
22136	0.0002	0.00018	0.00012	0.00042	-4e-05	0.00053	0.00031	0.00018	5
22138	0.0002	0.00018	0.00012	0.00042	-4e-05	0.00053	0.00031	0.00018	5
22139	0.0002	0.00018	0.00012	0.00042	-4e-05	0.00053	0.00031	0.00018	5
22140	0.0002	0.00018	0.00012	0.00042	-4e-05	0.00053	0.00031	0.00018	5
22141	0.0002	0.00018	0.00012	0.00042	-4e-05	0.00053	0.00031	0.00018	5
22142	0.0002	0.00018	0.00012	0.00042	-4e-05	0.00053	0.00031	0.00018	5
22143	0.0002	0.00018	0.00012	0.00042	-4e-05	0.00053	0.00031	0.00018	5
22144	0.0002	0.00018	0.00012	0.00042	-4e-05	0.00053	0.00031	0.00018	5
22145	0.0002	0.00018	0.00012	0.00042	-4e-05	0.00053	0.00031	0.00018	5
22146	0.0002	0.00018	0.00012	0.00042	-4e-05	0.00053	0.00031	0.00018	5
22147	0.0002	0.00018	0.00012	0.00042	-4e-05	0.00053	0.00031	0.00018	5
22148	0.0002	0.00018	0.00012	0.00042	-4e-05	0.00053	0.00031	0.00018	5
22149	0.0002	0.00018	0.00012	0.00042	-4e-05	0.00053	0.00031	0.00018	5
22150	0.0002	0.00018	0.00012	0.00042	-4e-05	0.00053	0.00031	0.00018	5
22151	0.0002	0.00018	0.00012	0.00042	-4e-05	0.00053	0.00031	0.00018	5
22152	-5e-05	-5e-05	-7e-05	3e-05	1e-05	6e-05	-6e-05	-5e-05	5
22153	-5e-05	-5e-05	-7e-05	3e-05	1e-05	6e-05	-6e-05	-5e-05	5
22154	-0.0001	-9e-05	3e-05	-0.00018	-4e-05	-0.0002	-7e-05	-1e-05	5
22155	-0.0001	-9e-05	3e-05	-0.00018	-4e-05	-0.0002	-7e-05	-1e-05	5
22156	-0.0001	-9e-05	3e-05	-0.00018	-4e-05	-0.0002	-7e-05	-1e-05	5
22157	-0.0001	-9e-05	3e-05	-0.00018	-4e-05	-0.0002	-7e-05	-1e-05	5
22158	-0.0001	-9e-05	3e-05	-0.00018	-4e-05	-0.0002	-7e-05	-1e-05	5
22159	-0.0001	-9e-05	3e-05	-0.00018	-4e-05	-0.0002	-7e-05	-1e-05	5
22160	-0.0001	-9e-05	3e-05	-0.00018	-4e-05	-0.0002	-7e-05	-1e-05	5
22161	-0.0001	-9e-05	3e-05	-0.00018	-4e-05	-0.0002	-7e-05	-1e-05	5
22162	-0.0001	-9e-05	3e-05	-0.00018	-4e-05	-0.0002	-7e-05	-1e-05	5
22163	-0.0001	-9e-05	3e-05	-0.00018	-4e-05	-0.0002	-7e-05	-1e-05	5
22164	-0.0001	-9e-05	3e-05	-0.00018	-4e-05	-0.0002	-7e-05	-1e-05	5
22165	-0.0001	-9e-05	3e-05	-0.00018	-4e-05	-0.0002	-7e-05	-1e-05	5
22166	3e-05	2e-05	3e-05	9e-05	-9e-05	-2e-05	2e-05	-1e-05	5
22167	3e-05	2e-05	3e-05	9e-05	-9e-05	-2e-05	2e-05	-1e-05	5
22168	3e-05	2e-05	3e-05	9e-05	-9e-05	-2e-05	2e-05	-1e-05	5
22169	3e-05	2e-05	3e-05	9e-05	-9e-05	-2e-05	2e-05	-1e-05	5
22170	3e-05	2e-05	3e-05	9e-05	-9e-05	-2e-05	2e-05	-1e-05	5
22171	3e-05	2e-05	3e-05	9e-05	-9e-05	-2e-05	2e-05	-1e-05	5
22172	3e-05	2e-05	3e-05	9e-05	-9e-05	-2e-05	2e-05	-1e-05	5
22173	3e-05	2e-05	3e-05	9e-05	-9e-05	-2e-05	2e-05	-1e-05	5
22174	3e-05	2e-05	3e-05	9e-05	-9e-05	-2e-05	2e-05	-1e-05	5
22175	-0.00011	-7e-05	6e-05	0.0001	-3e-05	-6e-05	-8e-05	-9e-05	5
22176	-0.00011	-7e-05	6e-05	0.0001	-3e-05	-6e-05	-8e-05	-9e-05	5
22177	-0.00011	-7e-05	6e-05	0.0001	-3e-05	-6e-05	-8e-05	-9e-05	5
22178	-0.00011	-7e-05	6e-05	0.0001	-3e-05	-6e-05	-8e-05	-9e-05	5
22179	-0.00011	-7e-05	6e-05	0.0001	-3e-05	-6e-05	-8e-05	-9e-05	5
22180	-0.00011	-7e-05	6e-05	0.0001	-3e-05	-6e-05	-8e-05	-9e-05	5
22181	-0.00011	-7e-05	6e-05	0.0001	-3e-05	-6e-05	-8e-05	-9e-05	5
22182	-0.00011	-7e-05	6e-05	0.0001	-3e-05	-6e-05	-8e-05	-9e-05	5
22183	-0.00011	-7e-05	6e-05	0.0001	-3e-05	-6e-05	-8e-05	-9e-05	5
22184	-0.00011	-7e-05	6e-05	0.0001	-3e-05	-6e-05	-8e-05	-9e-05	5
22185	-0.00011	-7e-05	6e-05	0.0001	-3e-05	-6e-05	-8e-05	-9e-05	5
22186	-0.00011	-7e-05	6e-05	0.0001	-3e-05	-6e-05	-8e-05	-9e-05	5
22188	-0.00011	-7e-05	6e-05	0.0001	-3e-05	-6e-05	-8e-05	-9e-05	5
22189	-0.00011	-7e-05	6e-05	0.0001	-3e-05	-6e-05	-8e-05	-9e-05	5
22190	-6e-05	-4e-05	-5e-05	-8e-05	3e-05	-0.00024	-4e-05	-4e-05	5
22191	0.00014	6e-05	1e-05	0.00052	-2e-05	-0.00013	-5e-05	1e-05	5
22192	0.00014	6e-05	1e-05	0.00052	-2e-05	-0.00013	-5e-05	1e-05	5
22193	0.00014	6e-05	1e-05	0.00052	-2e-05	-0.00013	-5e-05	1e-05	5
22194	0.00014	6e-05	1e-05	0.00052	-2e-05	-0.00013	-5e-05	1e-05	5
22195	0.00014	6e-05	1e-05	0.00052	-2e-05	-0.00013	-5e-05	1e-05	5
22196	0.00014	6e-05	1e-05	0.00052	-2e-05	-0.00013	-5e-05	1e-05	5
22197	0.00014	6e-05	1e-05	0.00052	-2e-05	-0.00013	-5e-05	1e-05	5
22198	0.00014	6e-05	1e-05	0.00052	-2e-05	-0.00013	-5e-05	1e-05	5
22199	0.00014	6e-05	1e-05	0.00052	-2e-05	-0.00013	-5e-05	1e-05	5
22200	0.00014	6e-05	1e-05	0.00052	-2e-05	-0.00013	-5e-05	1e-05	5
22201	0.00014	6e-05	1e-05	0.00052	-2e-05	-0.00013	-5e-05	1e-05	5
22202	0.00014	6e-05	1e-05	0.00052	-2e-05	-0.00013	-5e-05	1e-05	5
22203	0.00014	6e-05	1e-05	0.00052	-2e-05	-0.00013	-5e-05	1e-05	5
22204	0.00014	6e-05	1e-05	0.00052	-2e-05	-0.00013	-5e-05	1e-05	5
22205	0.00014	6e-05	1e-05	0.00052	-2e-05	-0.00013	-5e-05	1e-05	5
22206	0.00014	6e-05	1e-05	0.00052	-2e-05	-0.00013	-5e-05	1e-05	5
22207	0.00014	6e-05	1e-05	0.00052	-2e-05	-0.00013	-5e-05	1e-05	5
22208	0.00014	6e-05	1e-05	0.00052	-2e-05	-0.00013	-5e-05	1e-05	5
22209	0.00014	6e-05	1e-05	0.00052	-2e-05	-0.00013	-5e-05	1e-05	5
22210	0.00014	6e-05	1e-05	0.00052	-2e-05	-0.00013	-5e-05	1e-05	5
22211	0.00014	6e-05	1e-05	0.00052	-2e-05	-0.00013	-5e-05	1e-05	5
22212	-0.00013	-6e-05	-2e-05	-0.00012	5e-05	-0.00014	2e-05	-4e-05	5
22213	4e-05	0	4e-05	-0.00018	2e-05	-0.00019	-7e-05	-2e-05	5
22214	7e-05	-1e-05	-0.00018	-0.00081	4e-05	5e-05	3e-05	2e-05	5
22215	7e-05	-1e-05	-0.00018	-0.00081	4e-05	5e-05	3e-05	2e-05	5
22216	7e-05	-1e-05	-0.00018	-0.00081	4e-05	5e-05	3e-05	2e-05	5
22217	7e-05	-1e-05	-0.00018	-0.00081	4e-05	5e-05	3e-05	2e-05	5
22218	7e-05	-1e-05	-0.00018	-0.00081	4e-05	5e-05	3e-05	2e-05	5
22219	7e-05	-1e-05	-0.00018	-0.00081	4e-05	5e-05	3e-05	2e-05	5
22220	7e-05	-1e-05	-0.00018	-0.00081	4e-05	5e-05	3e-05	2e-05	5
22221	7e-05	-1e-05	-0.00018	-0.00081	4e-05	5e-05	3e-05	2e-05	5
22222	7e-05	-1e-05	-0.00018	-0.00081	4e-05	5e-05	3e-05	2e-05	5
22223	7e-05	-1e-05	-0.00018	-0.00081	4e-05	5e-05	3e-05	2e-05	5
22224	7e-05	-1e-05	-0.00018	-0.00081	4e-05	5e-05	3e-05	2e-05	5
22225	7e-05	-1e-05	-0.00018	-0.00081	4e-05	5e-05	3e-05	2e-05	5
22226	3e-05	-4e-05	2e-05	0.0002	-7e-05	-9e-05	-4e-05	3e-05	5
22227	-1e-05	2e-05	-4e-05	0.00038	-0.0001	-6e-05	-9e-05	0	5
22228	-1e-05	2e-05	-4e-05	0.00038	-0.0001	-6e-05	-9e-05	0	5
22229	-1e-05	2e-05	-4e-05	0.00038	-0.0001	-6e-05	-9e-05	0	5
22230	-1e-05	2e-05	-4e-05	0.00038	-0.0001	-6e-05	-9e-05	0	5
22231	-1e-05	2e-05	-4e-05	0.00038	-0.0001	-6e-05	-9e-05	0	5
22232	-1e-05	2e-05	-4e-05	0.00038	-0.0001	-6e-05	-9e-05	0	5
22233	-1e-05	2e-05	-4e-05	0.00038	-0.0001	-6e-05	-9e-05	0	5
22234	-1e-05	2e-05	-4e-05	0.00038	-0.0001	-6e-05	-9e-05	0	5
22235	-5e-05	-5e-05	-0.00015	-8e-05	-2e-05	3e-05	-4e-05	-5e-05	5
22236	-5e-05	-5e-05	-0.00015	-8e-05	-2e-05	3e-05	-4e-05	-5e-05	5
22238	-5e-05	-5e-05	-0.00015	-8e-05	-2e-05	3e-05	-4e-05	-5e-05	5
22239	-5e-05	-5e-05	-0.00015	-8e-05	-2e-05	3e-05	-4e-05	-5e-05	5
22240	-5e-05	-5e-05	-0.00015	-8e-05	-2e-05	3e-05	-4e-05	-5e-05	5
22241	-5e-05	-5e-05	-0.00015	-8e-05	-2e-05	3e-05	-4e-05	-5e-05	5
22242	-5e-05	-5e-05	-0.00015	-8e-05	-2e-05	3e-05	-4e-05	-5e-05	5
22243	-5e-05	-5e-05	-0.00015	-8e-05	-2e-05	3e-05	-4e-05	-5e-05	5
22244	-5e-05	-5e-05	-0.00015	-8e-05	-2e-05	3e-05	-4e-05	-5e-05	5
22245	-5e-05	-5e-05	-0.00015	-8e-05	-2e-05	3e-05	-4e-05	-5e-05	5
22246	-5e-05	-5e-05	-0.00015	-8e-05	-2e-05	3e-05	-4e-05	-5e-05	5
22247	-5e-05	-5e-05	-0.00015	-8e-05	-2e-05	3e-05	-4e-05	-5e-05	5
22248	-5e-05	-5e-05	-0.00015	-8e-05	-2e-05	3e-05	-4e-05	-5e-05	5
22249	-5e-05	-5e-05	-0.00015	-8e-05	-2e-05	3e-05	-4e-05	-5e-05	5
22250	-0.00012	-0.00013	-0.00023	-0.00057	-5e-05	-0.00014	-0.00011	-0.0001	5
22251	-7e-05	-0.00014	-9e-05	0.00032	-0.00011	7e-05	-2e-05	-3e-05	5
22252	2e-05	1e-05	-3e-05	-0.00013	-2e-05	-1e-05	-0.00011	-2e-05	5
22253	2e-05	1e-05	-3e-05	-0.00013	-2e-05	-1e-05	-0.00011	-2e-05	5
22254	2e-05	1e-05	-3e-05	-0.00013	-2e-05	-1e-05	-0.00011	-2e-05	5
22255	2e-05	1e-05	-3e-05	-0.00013	-2e-05	-1e-05	-0.00011	-2e-05	5
22256	2e-05	1e-05	-3e-05	-0.00013	-2e-05	-1e-05	-0.00011	-2e-05	5
22257	2e-05	1e-05	-3e-05	-0.00013	-2e-05	-1e-05	-0.00011	-2e-05	5
22258	2e-05	1e-05	-3e-05	-0.00013	-2e-05	-1e-05	-0.00011	-2e-05	5
22259	2e-05	1e-05	-3e-05	-0.00013	-2e-05	-1e-05	-0.00011	-2e-05	5
22260	2e-05	1e-05	-3e-05	-0.00013	-2e-05	-1e-05	-0.00011	-2e-05	5
22261	2e-05	1e-05	-3e-05	-0.00013	-2e-05	-1e-05	-0.00011	-2e-05	5
22262	2e-05	1e-05	-3e-05	-0.00013	-2e-05	-1e-05	-0.00011	-2e-05	5
22263	2e-05	1e-05	-3e-05	-0.00013	-2e-05	-1e-05	-0.00011	-2e-05	5
22264	2e-05	1e-05	-3e-05	-0.00013	-2e-05	-1e-05	-0.00011	-2e-05	5
22265	2e-05	1e-05	-3e-05	-0.00013	-2e-05	-1e-05	-0.00011	-2e-05	5
22266	2e-05	1e-05	-3e-05	-0.00013	-2e-05	-1e-05	-0.00011	-2e-05	5
22267	2e-05	1e-05	-3e-05	-0.00013	-2e-05	-1e-05	-0.00011	-2e-05	5
22268	2e-05	1e-05	-3e-05	-0.00013	-2e-05	-1e-05	-0.00011	-2e-05	5
22269	2e-05	1e-05	-3e-05	-0.00013	-2e-05	-1e-05	-0.00011	-2e-05	5
22270	2e-05	1e-05	-3e-05	-0.00013	-2e-05	-1e-05	-0.00011	-2e-05	5
22271	2e-05	1e-05	-3e-05	-0.00013	-2e-05	-1e-05	-0.00011	-2e-05	5
22272	-1e-05	-3e-05	8e-05	0.00032	-8e-05	0.00014	9e-05	6e-05	5
22273	-1e-05	-3e-05	8e-05	0.00032	-8e-05	0.00014	9e-05	6e-05	5
22274	-1e-05	-3e-05	-7e-05	-0.00026	1e-05	-9e-05	-5e-05	-4e-05	5
22275	-1e-05	-3e-05	-7e-05	-0.00026	1e-05	-9e-05	-5e-05	-4e-05	5
22276	-1e-05	-3e-05	-7e-05	-0.00026	1e-05	-9e-05	-5e-05	-4e-05	5
22277	-1e-05	-3e-05	-7e-05	-0.00026	1e-05	-9e-05	-5e-05	-4e-05	5
22278	-1e-05	-3e-05	-7e-05	-0.00026	1e-05	-9e-05	-5e-05	-4e-05	5
22279	-1e-05	-3e-05	-7e-05	-0.00026	1e-05	-9e-05	-5e-05	-4e-05	5
22280	-1e-05	-3e-05	-7e-05	-0.00026	1e-05	-9e-05	-5e-05	-4e-05	5
22281	-1e-05	-3e-05	-7e-05	-0.00026	1e-05	-9e-05	-5e-05	-4e-05	5
22282	-1e-05	-3e-05	-7e-05	-0.00026	1e-05	-9e-05	-5e-05	-4e-05	5
22283	-1e-05	-3e-05	-7e-05	-0.00026	1e-05	-9e-05	-5e-05	-4e-05	5
22284	-1e-05	-3e-05	-7e-05	-0.00026	1e-05	-9e-05	-5e-05	-4e-05	5
22285	-1e-05	-3e-05	-7e-05	-0.00026	1e-05	-9e-05	-5e-05	-4e-05	5
22286	-1e-05	-3e-05	-7e-05	-0.00026	1e-05	-9e-05	-5e-05	-4e-05	5
22288	-1e-05	-3e-05	-7e-05	-0.00026	1e-05	-9e-05	-5e-05	-4e-05	5
22289	-4e-05	-8e-05	9e-05	0.00012	3e-05	0.00029	5e-05	-8e-05	5
22290	-4e-05	-8e-05	9e-05	0.00012	3e-05	0.00029	5e-05	-8e-05	5
22291	-4e-05	-8e-05	9e-05	0.00012	3e-05	0.00029	5e-05	-8e-05	5
22292	-4e-05	-8e-05	9e-05	0.00012	3e-05	0.00029	5e-05	-8e-05	5
22294	-4e-05	-8e-05	9e-05	0.00012	3e-05	0.00029	5e-05	-8e-05	5
22296	-4e-05	-8e-05	9e-05	0.00012	3e-05	0.00029	5e-05	-8e-05	5
22297	-9e-05	-5e-05	-6e-05	-0.00017	6e-05	1e-05	-4e-05	0	5
22298	-9e-05	-5e-05	-6e-05	-0.00017	6e-05	1e-05	-4e-05	0	5
22299	-9e-05	-5e-05	-6e-05	-0.00017	6e-05	1e-05	-4e-05	0	5
22300	-9e-05	-5e-05	-6e-05	-0.00017	6e-05	1e-05	-4e-05	0	5
22301	-9e-05	-5e-05	-6e-05	-0.00017	6e-05	1e-05	-4e-05	0	5
22302	-9e-05	-5e-05	-6e-05	-0.00017	6e-05	1e-05	-4e-05	0	5
22303	-9e-05	-5e-05	-6e-05	-0.00017	6e-05	1e-05	-4e-05	0	5
22304	-9e-05	-5e-05	-6e-05	-0.00017	6e-05	1e-05	-4e-05	0	5
22305	-9e-05	-5e-05	-6e-05	-0.00017	6e-05	1e-05	-4e-05	0	5
22306	-9e-05	-5e-05	-6e-05	-0.00017	6e-05	1e-05	-4e-05	0	5
22307	-9e-05	-5e-05	-6e-05	-0.00017	6e-05	1e-05	-4e-05	0	5
22308	-9e-05	-5e-05	-6e-05	-0.00017	6e-05	1e-05	-4e-05	0	5
22309	-9e-05	-5e-05	-6e-05	-0.00017	6e-05	1e-05	-4e-05	0	5
22310	1e-05	3e-05	1e-05	-0.00016	7e-05	5e-05	1e-05	-4e-05	5
22311	1e-05	3e-05	1e-05	-0.00016	7e-05	5e-05	1e-05	-4e-05	5
22312	-9e-05	4e-05	9e-05	-0.00024	8e-05	-0.00016	-0.00012	-9e-05	5
22313	-9e-05	4e-05	9e-05	-0.00024	8e-05	-0.00016	-0.00012	-9e-05	5
22314	-9e-05	4e-05	9e-05	-0.00024	8e-05	-0.00016	-0.00012	-9e-05	5
22315	-9e-05	4e-05	9e-05	-0.00024	8e-05	-0.00016	-0.00012	-9e-05	5
22316	-9e-05	4e-05	9e-05	-0.00024	8e-05	-0.00016	-0.00012	-9e-05	5
22317	-9e-05	4e-05	9e-05	-0.00024	8e-05	-0.00016	-0.00012	-9e-05	5
22318	-9e-05	4e-05	9e-05	-0.00024	8e-05	-0.00016	-0.00012	-9e-05	5
22319	-9e-05	4e-05	9e-05	-0.00024	8e-05	-0.00016	-0.00012	-9e-05	5
22320	-9e-05	4e-05	9e-05	-0.00024	8e-05	-0.00016	-0.00012	-9e-05	5
22321	-9e-05	4e-05	9e-05	-0.00024	8e-05	-0.00016	-0.00012	-9e-05	5
22322	-9e-05	4e-05	9e-05	-0.00024	8e-05	-0.00016	-0.00012	-9e-05	5
22323	-9e-05	4e-05	9e-05	-0.00024	8e-05	-0.00016	-0.00012	-9e-05	5
22324	-9e-05	4e-05	9e-05	-0.00024	8e-05	-0.00016	-0.00012	-9e-05	5
22325	-9e-05	4e-05	9e-05	-0.00024	8e-05	-0.00016	-0.00012	-9e-05	5
22326	-9e-05	4e-05	9e-05	-0.00024	8e-05	-0.00016	-0.00012	-9e-05	5
22327	-9e-05	4e-05	9e-05	-0.00024	8e-05	-0.00016	-0.00012	-9e-05	5
22328	-9e-05	4e-05	9e-05	-0.00024	8e-05	-0.00016	-0.00012	-9e-05	5
22329	-9e-05	4e-05	9e-05	-0.00024	8e-05	-0.00016	-0.00012	-9e-05	5
22330	-9e-05	4e-05	9e-05	-0.00024	8e-05	-0.00016	-0.00012	-9e-05	5
22331	-9e-05	4e-05	9e-05	-0.00024	8e-05	-0.00016	-0.00012	-9e-05	5
22332	0	1e-05	-7e-05	0.00072	1e-05	0.0005	1e-05	3e-05	5
22333	0	1e-05	-7e-05	0.00072	1e-05	0.0005	1e-05	3e-05	5
22334	0.00015	8e-05	0.00012	0.00057	-0.0001	0.00014	0.00015	0.00012	5
22335	0.00015	8e-05	0.00012	0.00057	-0.0001	0.00014	0.00015	0.00012	5
22336	0.00015	8e-05	0.00012	0.00057	-0.0001	0.00014	0.00015	0.00012	5
22338	0.00015	8e-05	0.00012	0.00057	-0.0001	0.00014	0.00015	0.00012	5
22339	0.00015	8e-05	0.00012	0.00057	-0.0001	0.00014	0.00015	0.00012	5
22340	0.00015	8e-05	0.00012	0.00057	-0.0001	0.00014	0.00015	0.00012	5
22341	0.00015	8e-05	0.00012	0.00057	-0.0001	0.00014	0.00015	0.00012	5
22342	0.00015	8e-05	0.00012	0.00057	-0.0001	0.00014	0.00015	0.00012	5
22343	0.00015	8e-05	0.00012	0.00057	-0.0001	0.00014	0.00015	0.00012	5
22344	0.00015	8e-05	0.00012	0.00057	-0.0001	0.00014	0.00015	0.00012	5
22345	0.00015	8e-05	0.00012	0.00057	-0.0001	0.00014	0.00015	0.00012	5
22346	7e-05	5e-05	-4e-05	-0.00039	5e-05	-5e-05	0	2e-05	5
22347	7e-05	5e-05	-4e-05	-0.00039	5e-05	-5e-05	0	2e-05	5
22348	7e-05	5e-05	-4e-05	-0.00039	5e-05	-5e-05	0	2e-05	5
22349	7e-05	5e-05	-4e-05	-0.00039	5e-05	-5e-05	0	2e-05	5
22350	7e-05	5e-05	-4e-05	-0.00039	5e-05	-5e-05	0	2e-05	5
22351	7e-05	5e-05	-4e-05	-0.00039	5e-05	-5e-05	0	2e-05	5
22352	7e-05	5e-05	-4e-05	-0.00039	5e-05	-5e-05	0	2e-05	5
22353	7e-05	5e-05	-4e-05	-0.00039	5e-05	-5e-05	0	2e-05	5
22354	7e-05	5e-05	-4e-05	-0.00039	5e-05	-5e-05	0	2e-05	5
22355	0	-7e-05	-7e-05	-0.0002	0	3e-05	3e-05	-1e-05	5
22356	0	-7e-05	-7e-05	-0.0002	0	3e-05	3e-05	-1e-05	5
22357	0	-7e-05	-7e-05	-0.0002	0	3e-05	3e-05	-1e-05	5
22358	0	-7e-05	-7e-05	-0.0002	0	3e-05	3e-05	-1e-05	5
22359	0	-7e-05	-7e-05	-0.0002	0	3e-05	3e-05	-1e-05	5
22360	0	-7e-05	-7e-05	-0.0002	0	3e-05	3e-05	-1e-05	5
22361	0	-7e-05	-7e-05	-0.0002	0	3e-05	3e-05	-1e-05	5
22362	0	-7e-05	-7e-05	-0.0002	0	3e-05	3e-05	-1e-05	5
22363	0	-7e-05	-7e-05	-0.0002	0	3e-05	3e-05	-1e-05	5
22364	0	-7e-05	-7e-05	-0.0002	0	3e-05	3e-05	-1e-05	5
22365	0	-7e-05	-7e-05	-0.0002	0	3e-05	3e-05	-1e-05	5
22366	0	-7e-05	-7e-05	-0.0002	0	3e-05	3e-05	-1e-05	5
22367	0	-7e-05	-7e-05	-0.0002	0	3e-05	3e-05	-1e-05	5
22368	0	-7e-05	-7e-05	-0.0002	0	3e-05	3e-05	-1e-05	5
22369	0	-7e-05	-7e-05	-0.0002	0	3e-05	3e-05	-1e-05	5
22370	-9e-05	9e-05	7e-05	0.00023	-1e-05	-2e-05	3e-05	4e-05	5
22371	-9e-05	9e-05	7e-05	0.00023	-1e-05	-2e-05	3e-05	4e-05	5
22372	-6e-05	0.00017	3e-05	0.00038	-4e-05	0.00014	5e-05	2e-05	5
22373	-6e-05	0.00017	3e-05	0.00038	-4e-05	0.00014	5e-05	2e-05	5
22374	-6e-05	0.00017	3e-05	0.00038	-4e-05	0.00014	5e-05	2e-05	5
22375	-6e-05	0.00017	3e-05	0.00038	-4e-05	0.00014	5e-05	2e-05	5
22376	-6e-05	0.00017	3e-05	0.00038	-4e-05	0.00014	5e-05	2e-05	5
22377	-6e-05	0.00017	3e-05	0.00038	-4e-05	0.00014	5e-05	2e-05	5
22378	-6e-05	0.00017	3e-05	0.00038	-4e-05	0.00014	5e-05	2e-05	5
22379	-6e-05	0.00017	3e-05	0.00038	-4e-05	0.00014	5e-05	2e-05	5
22380	-6e-05	0.00017	3e-05	0.00038	-4e-05	0.00014	5e-05	2e-05	5
22381	-6e-05	0.00017	3e-05	0.00038	-4e-05	0.00014	5e-05	2e-05	5
22382	-6e-05	0.00017	3e-05	0.00038	-4e-05	0.00014	5e-05	2e-05	5
22383	-6e-05	0.00017	3e-05	0.00038	-4e-05	0.00014	5e-05	2e-05	5
22384	-6e-05	0.00017	3e-05	0.00038	-4e-05	0.00014	5e-05	2e-05	5
22385	-6e-05	0.00017	3e-05	0.00038	-4e-05	0.00014	5e-05	2e-05	5
22386	-6e-05	0.00017	3e-05	0.00038	-4e-05	0.00014	5e-05	2e-05	5
22389	-6e-05	0.00017	3e-05	0.00038	-4e-05	0.00014	5e-05	2e-05	5
22390	-6e-05	0.00017	3e-05	0.00038	-4e-05	0.00014	5e-05	2e-05	5
22391	-6e-05	0.00017	3e-05	0.00038	-4e-05	0.00014	5e-05	2e-05	5
22392	-0.00012	0	-5e-05	-0.00031	1e-05	-7e-05	-1e-05	-3e-05	5
22393	-0.00012	0	-5e-05	-0.00031	1e-05	-7e-05	-1e-05	-3e-05	5
22394	-0.00012	0	-5e-05	-0.00031	1e-05	-7e-05	-1e-05	-3e-05	5
22395	-3e-05	-6e-05	3e-05	0.00014	-3e-05	9e-05	6e-05	3e-05	5
22396	-3e-05	-6e-05	3e-05	0.00014	-3e-05	9e-05	6e-05	3e-05	5
22397	-3e-05	-6e-05	3e-05	0.00014	-3e-05	9e-05	6e-05	3e-05	5
22398	-3e-05	-6e-05	3e-05	0.00014	-3e-05	9e-05	6e-05	3e-05	5
22400	-3e-05	-6e-05	3e-05	0.00014	-3e-05	9e-05	6e-05	3e-05	5
22401	-3e-05	-6e-05	3e-05	0.00014	-3e-05	9e-05	6e-05	3e-05	5
22402	-3e-05	-6e-05	3e-05	0.00014	-3e-05	9e-05	6e-05	3e-05	5
22403	-3e-05	-6e-05	3e-05	0.00014	-3e-05	9e-05	6e-05	3e-05	5
22404	-3e-05	-6e-05	3e-05	0.00014	-3e-05	9e-05	6e-05	3e-05	5
22405	-3e-05	-6e-05	3e-05	0.00014	-3e-05	9e-05	6e-05	3e-05	5
22406	0.00011	7e-05	1e-05	-0.00033	-0.00011	-2e-05	9e-05	7e-05	5
22407	0.00011	7e-05	1e-05	-0.00033	-0.00011	-2e-05	9e-05	7e-05	5
22408	0.00011	7e-05	1e-05	-0.00033	-0.00011	-2e-05	9e-05	7e-05	5
22409	0.00011	7e-05	1e-05	-0.00033	-0.00011	-2e-05	9e-05	7e-05	5
22410	0.00011	7e-05	1e-05	-0.00033	-0.00011	-2e-05	9e-05	7e-05	5
22411	0.00011	7e-05	1e-05	-0.00033	-0.00011	-2e-05	9e-05	7e-05	5
22412	0.00011	7e-05	1e-05	-0.00033	-0.00011	-2e-05	9e-05	7e-05	5
22413	0.00011	7e-05	1e-05	-0.00033	-0.00011	-2e-05	9e-05	7e-05	5
22414	0.00011	7e-05	1e-05	-0.00033	-0.00011	-2e-05	9e-05	7e-05	5
22415	4e-05	-5e-05	-2e-05	0.00018	0	-4e-05	-9e-05	-6e-05	5
22416	4e-05	-5e-05	-2e-05	0.00018	0	-4e-05	-9e-05	-6e-05	5
22417	4e-05	-5e-05	-2e-05	0.00018	0	-4e-05	-9e-05	-6e-05	5
22418	4e-05	-5e-05	-2e-05	0.00018	0	-4e-05	-9e-05	-6e-05	5
22419	4e-05	-5e-05	-2e-05	0.00018	0	-4e-05	-9e-05	-6e-05	5
22420	4e-05	-5e-05	-2e-05	0.00018	0	-4e-05	-9e-05	-6e-05	5
22421	4e-05	-5e-05	-2e-05	0.00018	0	-4e-05	-9e-05	-6e-05	5
22422	4e-05	-5e-05	-2e-05	0.00018	0	-4e-05	-9e-05	-6e-05	5
22423	4e-05	-5e-05	-2e-05	0.00018	0	-4e-05	-9e-05	-6e-05	5
22424	4e-05	-5e-05	-2e-05	0.00018	0	-4e-05	-9e-05	-6e-05	5
22425	4e-05	-5e-05	-2e-05	0.00018	0	-4e-05	-9e-05	-6e-05	5
22426	4e-05	-5e-05	-2e-05	0.00018	0	-4e-05	-9e-05	-6e-05	5
22427	4e-05	-5e-05	-2e-05	0.00018	0	-4e-05	-9e-05	-6e-05	5
22428	4e-05	-5e-05	-2e-05	0.00018	0	-4e-05	-9e-05	-6e-05	5
22429	4e-05	-5e-05	-2e-05	0.00018	0	-4e-05	-9e-05	-6e-05	5
22430	0.00011	0	8e-05	7e-05	-3e-05	-1e-05	7e-05	5e-05	5
22431	-1e-05	-2e-05	1e-05	0.00012	-3e-05	-0.00023	-2e-05	-2e-05	5
22432	-1e-05	-2e-05	1e-05	0.00012	-3e-05	-0.00023	-2e-05	-2e-05	5
22433	-1e-05	-2e-05	1e-05	0.00012	-3e-05	-0.00023	-2e-05	-2e-05	5
22434	-1e-05	-2e-05	1e-05	0.00012	-3e-05	-0.00023	-2e-05	-2e-05	5
22435	-1e-05	-2e-05	1e-05	0.00012	-3e-05	-0.00023	-2e-05	-2e-05	5
22436	-1e-05	-2e-05	1e-05	0.00012	-3e-05	-0.00023	-2e-05	-2e-05	5
22438	-1e-05	-2e-05	1e-05	0.00012	-3e-05	-0.00023	-2e-05	-2e-05	5
22439	-1e-05	-2e-05	1e-05	0.00012	-3e-05	-0.00023	-2e-05	-2e-05	5
22440	-1e-05	-2e-05	1e-05	0.00012	-3e-05	-0.00023	-2e-05	-2e-05	5
22441	-1e-05	-2e-05	1e-05	0.00012	-3e-05	-0.00023	-2e-05	-2e-05	5
22442	-1e-05	-2e-05	1e-05	0.00012	-3e-05	-0.00023	-2e-05	-2e-05	5
22443	-1e-05	-2e-05	1e-05	0.00012	-3e-05	-0.00023	-2e-05	-2e-05	5
22444	-1e-05	-2e-05	1e-05	0.00012	-3e-05	-0.00023	-2e-05	-2e-05	5
22445	-1e-05	-2e-05	1e-05	0.00012	-3e-05	-0.00023	-2e-05	-2e-05	5
22446	-1e-05	-2e-05	1e-05	0.00012	-3e-05	-0.00023	-2e-05	-2e-05	5
22447	-1e-05	-2e-05	1e-05	0.00012	-3e-05	-0.00023	-2e-05	-2e-05	5
22448	-1e-05	-2e-05	1e-05	0.00012	-3e-05	-0.00023	-2e-05	-2e-05	5
22449	-1e-05	-2e-05	1e-05	0.00012	-3e-05	-0.00023	-2e-05	-2e-05	5
22450	-1e-05	-2e-05	1e-05	0.00012	-3e-05	-0.00023	-2e-05	-2e-05	5
22451	-1e-05	-2e-05	1e-05	0.00012	-3e-05	-0.00023	-2e-05	-2e-05	5
22452	5e-05	8e-05	0.00017	0.00018	-6e-05	0.00027	4e-05	3e-05	5
22453	5e-05	8e-05	0.00017	0.00018	-6e-05	0.00027	4e-05	3e-05	5
22454	4e-05	1e-05	-9e-05	-0.00028	1e-05	-6e-05	0	-2e-05	5
22455	4e-05	1e-05	-9e-05	-0.00028	1e-05	-6e-05	0	-2e-05	5
22456	4e-05	1e-05	-9e-05	-0.00028	1e-05	-6e-05	0	-2e-05	5
22457	4e-05	1e-05	-9e-05	-0.00028	1e-05	-6e-05	0	-2e-05	5
22458	4e-05	1e-05	-9e-05	-0.00028	1e-05	-6e-05	0	-2e-05	5
22459	4e-05	1e-05	-9e-05	-0.00028	1e-05	-6e-05	0	-2e-05	5
22460	4e-05	1e-05	-9e-05	-0.00028	1e-05	-6e-05	0	-2e-05	5
22461	4e-05	1e-05	-9e-05	-0.00028	1e-05	-6e-05	0	-2e-05	5
22462	4e-05	1e-05	-9e-05	-0.00028	1e-05	-6e-05	0	-2e-05	5
22463	4e-05	1e-05	-9e-05	-0.00028	1e-05	-6e-05	0	-2e-05	5
22464	4e-05	1e-05	-9e-05	-0.00028	1e-05	-6e-05	0	-2e-05	5
22465	4e-05	1e-05	-9e-05	-0.00028	1e-05	-6e-05	0	-2e-05	5
22466	-0.0001	6e-05	-5e-05	-6e-05	4e-05	-0.00033	-8e-05	-3e-05	5
22467	-0.0001	6e-05	-5e-05	-6e-05	4e-05	-0.00033	-8e-05	-3e-05	5
22468	-0.0001	6e-05	-5e-05	-6e-05	4e-05	-0.00033	-8e-05	-3e-05	5
22469	-0.0001	6e-05	-5e-05	-6e-05	4e-05	-0.00033	-8e-05	-3e-05	5
22470	-0.0001	6e-05	-5e-05	-6e-05	4e-05	-0.00033	-8e-05	-3e-05	5
22471	-0.0001	6e-05	-5e-05	-6e-05	4e-05	-0.00033	-8e-05	-3e-05	5
22472	-0.0001	6e-05	-5e-05	-6e-05	4e-05	-0.00033	-8e-05	-3e-05	5
22473	-0.0001	6e-05	-5e-05	-6e-05	4e-05	-0.00033	-8e-05	-3e-05	5
22474	-0.0001	6e-05	-5e-05	-6e-05	4e-05	-0.00033	-8e-05	-3e-05	5
22475	4e-05	-0.00011	-0.00011	-0.00037	3e-05	-0.00018	-4e-05	-2e-05	5
22476	4e-05	-0.00011	-0.00011	-0.00037	3e-05	-0.00018	-4e-05	-2e-05	5
22477	4e-05	-0.00011	-0.00011	-0.00037	3e-05	-0.00018	-4e-05	-2e-05	5
22478	4e-05	-0.00011	-0.00011	-0.00037	3e-05	-0.00018	-4e-05	-2e-05	5
22479	4e-05	-0.00011	-0.00011	-0.00037	3e-05	-0.00018	-4e-05	-2e-05	5
22480	4e-05	-0.00011	-0.00011	-0.00037	3e-05	-0.00018	-4e-05	-2e-05	5
22481	4e-05	-0.00011	-0.00011	-0.00037	3e-05	-0.00018	-4e-05	-2e-05	5
22482	4e-05	-0.00011	-0.00011	-0.00037	3e-05	-0.00018	-4e-05	-2e-05	5
22483	4e-05	-0.00011	-0.00011	-0.00037	3e-05	-0.00018	-4e-05	-2e-05	5
22484	4e-05	-0.00011	-0.00011	-0.00037	3e-05	-0.00018	-4e-05	-2e-05	5
22485	4e-05	-0.00011	-0.00011	-0.00037	3e-05	-0.00018	-4e-05	-2e-05	5
22486	4e-05	-0.00011	-0.00011	-0.00037	3e-05	-0.00018	-4e-05	-2e-05	5
22490	-2e-05	-0.00024	-2e-05	0.0003	0	-0.00017	4e-05	-4e-05	5
22491	-2e-05	-0.00024	-2e-05	0.0003	0	-0.00017	4e-05	-4e-05	5
22492	0.00019	5e-05	4e-05	4e-05	3e-05	0.00013	2e-05	2e-05	5
22493	0.00019	5e-05	4e-05	4e-05	3e-05	0.00013	2e-05	2e-05	5
22494	0.00019	5e-05	4e-05	4e-05	3e-05	0.00013	2e-05	2e-05	5
22495	0.00019	5e-05	4e-05	4e-05	3e-05	0.00013	2e-05	2e-05	5
22496	0.00019	5e-05	4e-05	4e-05	3e-05	0.00013	2e-05	2e-05	5
22497	0.00019	5e-05	4e-05	4e-05	3e-05	0.00013	2e-05	2e-05	5
22498	0.00019	5e-05	4e-05	4e-05	3e-05	0.00013	2e-05	2e-05	5
22499	0.00019	5e-05	4e-05	4e-05	3e-05	0.00013	2e-05	2e-05	5
22500	0.00019	5e-05	4e-05	4e-05	3e-05	0.00013	2e-05	2e-05	5
22501	0.00019	5e-05	4e-05	4e-05	3e-05	0.00013	2e-05	2e-05	5
22502	0.00019	5e-05	4e-05	4e-05	3e-05	0.00013	2e-05	2e-05	5
22503	0.00019	5e-05	4e-05	4e-05	3e-05	0.00013	2e-05	2e-05	5
22504	0.00019	5e-05	4e-05	4e-05	3e-05	0.00013	2e-05	2e-05	5
22505	0.00019	5e-05	4e-05	4e-05	3e-05	0.00013	2e-05	2e-05	5
22506	0.00019	5e-05	4e-05	4e-05	3e-05	0.00013	2e-05	2e-05	5
22507	0.00019	5e-05	4e-05	4e-05	3e-05	0.00013	2e-05	2e-05	5
22508	0.00019	5e-05	4e-05	4e-05	3e-05	0.00013	2e-05	2e-05	5
22509	0.00019	5e-05	4e-05	4e-05	3e-05	0.00013	2e-05	2e-05	5
22510	0.00019	5e-05	4e-05	4e-05	3e-05	0.00013	2e-05	2e-05	5
22511	0.00019	5e-05	4e-05	4e-05	3e-05	0.00013	2e-05	2e-05	5
22512	0.00019	5e-05	4e-05	4e-05	3e-05	0.00013	2e-05	2e-05	5
22513	-4e-05	-6e-05	-8e-05	0.00037	-0.00013	0.00032	8e-05	-2e-05	5
22514	-1e-05	1e-05	5e-05	0.00039	2e-05	0.00012	3e-05	0	5
22515	-1e-05	1e-05	5e-05	0.00039	2e-05	0.00012	3e-05	0	5
22516	-1e-05	1e-05	5e-05	0.00039	2e-05	0.00012	3e-05	0	5
22517	-1e-05	1e-05	5e-05	0.00039	2e-05	0.00012	3e-05	0	5
22518	-1e-05	1e-05	5e-05	0.00039	2e-05	0.00012	3e-05	0	5
22519	-1e-05	1e-05	5e-05	0.00039	2e-05	0.00012	3e-05	0	5
22520	-1e-05	1e-05	5e-05	0.00039	2e-05	0.00012	3e-05	0	5
22521	-1e-05	1e-05	5e-05	0.00039	2e-05	0.00012	3e-05	0	5
22522	-1e-05	1e-05	5e-05	0.00039	2e-05	0.00012	3e-05	0	5
22523	-1e-05	1e-05	5e-05	0.00039	2e-05	0.00012	3e-05	0	5
22524	-1e-05	1e-05	5e-05	0.00039	2e-05	0.00012	3e-05	0	5
22525	-1e-05	1e-05	5e-05	0.00039	2e-05	0.00012	3e-05	0	5
22526	1e-05	-1e-05	-3e-05	0.00054	4e-05	-0.00029	-5e-05	-4e-05	5
22527	1e-05	-1e-05	-3e-05	0.00054	4e-05	-0.00029	-5e-05	-4e-05	5
22528	1e-05	-1e-05	-3e-05	0.00054	4e-05	-0.00029	-5e-05	-4e-05	5
22529	1e-05	-1e-05	-3e-05	0.00054	4e-05	-0.00029	-5e-05	-4e-05	5
22530	1e-05	-1e-05	-3e-05	0.00054	4e-05	-0.00029	-5e-05	-4e-05	5
22531	1e-05	-1e-05	-3e-05	0.00054	4e-05	-0.00029	-5e-05	-4e-05	5
22532	1e-05	-1e-05	-3e-05	0.00054	4e-05	-0.00029	-5e-05	-4e-05	5
22533	1e-05	-1e-05	-3e-05	0.00054	4e-05	-0.00029	-5e-05	-4e-05	5
22534	1e-05	-1e-05	-3e-05	0.00054	4e-05	-0.00029	-5e-05	-4e-05	5
22535	2e-05	-4e-05	-7e-05	-0.00045	-2e-05	-0.0002	-8e-05	-3e-05	5
22536	2e-05	-4e-05	-7e-05	-0.00045	-2e-05	-0.0002	-8e-05	-3e-05	5
22539	2e-05	-4e-05	-7e-05	-0.00045	-2e-05	-0.0002	-8e-05	-3e-05	5
22540	2e-05	-4e-05	-7e-05	-0.00045	-2e-05	-0.0002	-8e-05	-3e-05	5
22541	2e-05	-4e-05	-7e-05	-0.00045	-2e-05	-0.0002	-8e-05	-3e-05	5
22542	2e-05	-4e-05	-7e-05	-0.00045	-2e-05	-0.0002	-8e-05	-3e-05	5
22543	2e-05	-4e-05	-7e-05	-0.00045	-2e-05	-0.0002	-8e-05	-3e-05	5
22544	2e-05	-4e-05	-7e-05	-0.00045	-2e-05	-0.0002	-8e-05	-3e-05	5
22545	2e-05	-4e-05	-7e-05	-0.00045	-2e-05	-0.0002	-8e-05	-3e-05	5
22546	2e-05	-4e-05	-7e-05	-0.00045	-2e-05	-0.0002	-8e-05	-3e-05	5
22547	2e-05	-4e-05	-7e-05	-0.00045	-2e-05	-0.0002	-8e-05	-3e-05	5
22548	2e-05	-4e-05	-7e-05	-0.00045	-2e-05	-0.0002	-8e-05	-3e-05	5
22549	2e-05	-4e-05	-7e-05	-0.00045	-2e-05	-0.0002	-8e-05	-3e-05	5
22550	0	2e-05	3e-05	-0.00039	0	-2e-05	-9e-05	-5e-05	5
22551	7e-05	-3e-05	-0.0001	-0.00016	-8e-05	-7e-05	1e-05	2e-05	5
22552	-3e-05	0	6e-05	0.0003	-2e-05	7e-05	2e-05	0	5
22553	-3e-05	0	6e-05	0.0003	-2e-05	7e-05	2e-05	0	5
22554	-3e-05	0	6e-05	0.0003	-2e-05	7e-05	2e-05	0	5
22555	-3e-05	0	6e-05	0.0003	-2e-05	7e-05	2e-05	0	5
22556	-3e-05	0	6e-05	0.0003	-2e-05	7e-05	2e-05	0	5
22557	-3e-05	0	6e-05	0.0003	-2e-05	7e-05	2e-05	0	5
22558	-3e-05	0	6e-05	0.0003	-2e-05	7e-05	2e-05	0	5
22559	-3e-05	0	6e-05	0.0003	-2e-05	7e-05	2e-05	0	5
22560	-3e-05	0	6e-05	0.0003	-2e-05	7e-05	2e-05	0	5
22561	-3e-05	0	6e-05	0.0003	-2e-05	7e-05	2e-05	0	5
22562	-3e-05	0	6e-05	0.0003	-2e-05	7e-05	2e-05	0	5
22563	-3e-05	0	6e-05	0.0003	-2e-05	7e-05	2e-05	0	5
22564	-3e-05	0	6e-05	0.0003	-2e-05	7e-05	2e-05	0	5
22565	-3e-05	0	6e-05	0.0003	-2e-05	7e-05	2e-05	0	5
22566	-3e-05	0	6e-05	0.0003	-2e-05	7e-05	2e-05	0	5
22567	-3e-05	0	6e-05	0.0003	-2e-05	7e-05	2e-05	0	5
22568	-3e-05	0	6e-05	0.0003	-2e-05	7e-05	2e-05	0	5
22569	-3e-05	0	6e-05	0.0003	-2e-05	7e-05	2e-05	0	5
22570	-3e-05	0	6e-05	0.0003	-2e-05	7e-05	2e-05	0	5
22571	-3e-05	0	6e-05	0.0003	-2e-05	7e-05	2e-05	0	5
22572	-9e-05	-5e-05	4e-05	-0.0006	3e-05	-0.00024	-0.0001	-4e-05	5
22573	4e-05	2e-05	7e-05	0.00066	0	8e-05	4e-05	3e-05	5
22574	-6e-05	-8e-05	-0.00014	-0.00058	2e-05	9e-05	1e-05	-1e-05	5
22575	-6e-05	-8e-05	-0.00014	-0.00058	2e-05	9e-05	1e-05	-1e-05	5
22576	-6e-05	-8e-05	-0.00014	-0.00058	2e-05	9e-05	1e-05	-1e-05	5
22577	-6e-05	-8e-05	-0.00014	-0.00058	2e-05	9e-05	1e-05	-1e-05	5
22578	-6e-05	-8e-05	-0.00014	-0.00058	2e-05	9e-05	1e-05	-1e-05	5
22579	-6e-05	-8e-05	-0.00014	-0.00058	2e-05	9e-05	1e-05	-1e-05	5
22580	-6e-05	-8e-05	-0.00014	-0.00058	2e-05	9e-05	1e-05	-1e-05	5
22581	-6e-05	-8e-05	-0.00014	-0.00058	2e-05	9e-05	1e-05	-1e-05	5
22582	-6e-05	-8e-05	-0.00014	-0.00058	2e-05	9e-05	1e-05	-1e-05	5
22583	-6e-05	-8e-05	-0.00014	-0.00058	2e-05	9e-05	1e-05	-1e-05	5
22584	-6e-05	-8e-05	-0.00014	-0.00058	2e-05	9e-05	1e-05	-1e-05	5
22585	-6e-05	-8e-05	-0.00014	-0.00058	2e-05	9e-05	1e-05	-1e-05	5
22586	-6e-05	-8e-05	-0.00014	-0.00058	2e-05	9e-05	1e-05	-1e-05	5
22588	-6e-05	-8e-05	-0.00014	-0.00058	2e-05	9e-05	1e-05	-1e-05	5
22589	-6e-05	-8e-05	-0.00014	-0.00058	2e-05	9e-05	1e-05	-1e-05	5
22590	-6e-05	-8e-05	-0.00014	-0.00058	2e-05	9e-05	1e-05	-1e-05	5
22591	-6e-05	-8e-05	-0.00014	-0.00058	2e-05	9e-05	1e-05	-1e-05	5
22592	-6e-05	-8e-05	-0.00014	-0.00058	2e-05	9e-05	1e-05	-1e-05	5
22593	-6e-05	-8e-05	-0.00014	-0.00058	2e-05	9e-05	1e-05	-1e-05	5
22594	-6e-05	-8e-05	-0.00014	-0.00058	2e-05	9e-05	1e-05	-1e-05	5
22595	0	4e-05	-5e-05	-0.00011	5e-05	-6e-05	-7e-05	-2e-05	5
22596	0	4e-05	-5e-05	-0.00011	5e-05	-6e-05	-7e-05	-2e-05	5
22597	-0.00013	-2e-05	-3e-05	0.00067	-5e-05	-0.0001	-5e-05	-4e-05	5
22598	-0.00013	-2e-05	-3e-05	0.00067	-5e-05	-0.0001	-5e-05	-4e-05	5
22599	-0.00013	-2e-05	-3e-05	0.00067	-5e-05	-0.0001	-5e-05	-4e-05	5
22600	-0.00013	-2e-05	-3e-05	0.00067	-5e-05	-0.0001	-5e-05	-4e-05	5
22601	-0.00013	-2e-05	-3e-05	0.00067	-5e-05	-0.0001	-5e-05	-4e-05	5
22602	-0.00013	-2e-05	-3e-05	0.00067	-5e-05	-0.0001	-5e-05	-4e-05	5
22603	-0.00013	-2e-05	-3e-05	0.00067	-5e-05	-0.0001	-5e-05	-4e-05	5
22604	-0.00013	-2e-05	-3e-05	0.00067	-5e-05	-0.0001	-5e-05	-4e-05	5
22605	-0.00013	-2e-05	-3e-05	0.00067	-5e-05	-0.0001	-5e-05	-4e-05	5
22606	-0.00013	-2e-05	-3e-05	0.00067	-5e-05	-0.0001	-5e-05	-4e-05	5
22607	-0.00013	-2e-05	-3e-05	0.00067	-5e-05	-0.0001	-5e-05	-4e-05	5
22608	-0.00013	-2e-05	-3e-05	0.00067	-5e-05	-0.0001	-5e-05	-4e-05	5
22609	-0.00013	-2e-05	-3e-05	0.00067	-5e-05	-0.0001	-5e-05	-4e-05	5
22610	-0.00011	3e-05	0	-0.00048	3e-05	-0.00026	-9e-05	-4e-05	5
22611	-0.00011	3e-05	0	-0.00048	3e-05	-0.00026	-9e-05	-4e-05	5
22612	0.0001	-0.00011	6e-05	-0.00018	-5e-05	-7e-05	1e-05	0	5
22613	0.0001	-0.00011	6e-05	-0.00018	-5e-05	-7e-05	1e-05	0	5
22614	0.0001	-0.00011	6e-05	-0.00018	-5e-05	-7e-05	1e-05	0	5
22615	0.0001	-0.00011	6e-05	-0.00018	-5e-05	-7e-05	1e-05	0	5
22616	0.0001	-0.00011	6e-05	-0.00018	-5e-05	-7e-05	1e-05	0	5
22617	0.0001	-0.00011	6e-05	-0.00018	-5e-05	-7e-05	1e-05	0	5
22618	0.0001	-0.00011	6e-05	-0.00018	-5e-05	-7e-05	1e-05	0	5
22619	0.0001	-0.00011	6e-05	-0.00018	-5e-05	-7e-05	1e-05	0	5
22620	0.0001	-0.00011	6e-05	-0.00018	-5e-05	-7e-05	1e-05	0	5
22621	0.0001	-0.00011	6e-05	-0.00018	-5e-05	-7e-05	1e-05	0	5
22622	0.0001	-0.00011	6e-05	-0.00018	-5e-05	-7e-05	1e-05	0	5
22623	0.0001	-0.00011	6e-05	-0.00018	-5e-05	-7e-05	1e-05	0	5
22624	0.0001	-0.00011	6e-05	-0.00018	-5e-05	-7e-05	1e-05	0	5
22625	0.0001	-0.00011	6e-05	-0.00018	-5e-05	-7e-05	1e-05	0	5
22626	0.0001	-0.00011	6e-05	-0.00018	-5e-05	-7e-05	1e-05	0	5
22627	0.0001	-0.00011	6e-05	-0.00018	-5e-05	-7e-05	1e-05	0	5
22628	0.0001	-0.00011	6e-05	-0.00018	-5e-05	-7e-05	1e-05	0	5
22629	0.0001	-0.00011	6e-05	-0.00018	-5e-05	-7e-05	1e-05	0	5
22630	0.0001	-0.00011	6e-05	-0.00018	-5e-05	-7e-05	1e-05	0	5
22631	0.0001	-0.00011	6e-05	-0.00018	-5e-05	-7e-05	1e-05	0	5
22632	0	7e-05	-1e-05	7e-05	-8e-05	-0.00015	-4e-05	-2e-05	5
22633	4e-05	-0.00015	0	0.00024	-2e-05	-1e-05	-1e-05	0	5
22634	-8e-05	0.00011	2e-05	-2e-05	-0.00011	-0.00029	-7e-05	-2e-05	5
22635	-8e-05	0.00011	2e-05	-2e-05	-0.00011	-0.00029	-7e-05	-2e-05	5
22636	-8e-05	0.00011	2e-05	-2e-05	-0.00011	-0.00029	-7e-05	-2e-05	5
22638	-8e-05	0.00011	2e-05	-2e-05	-0.00011	-0.00029	-7e-05	-2e-05	5
22639	-8e-05	0.00011	2e-05	-2e-05	-0.00011	-0.00029	-7e-05	-2e-05	5
22640	-8e-05	0.00011	2e-05	-2e-05	-0.00011	-0.00029	-7e-05	-2e-05	5
22641	-8e-05	0.00011	2e-05	-2e-05	-0.00011	-0.00029	-7e-05	-2e-05	5
22642	-8e-05	0.00011	2e-05	-2e-05	-0.00011	-0.00029	-7e-05	-2e-05	5
22643	-8e-05	0.00011	2e-05	-2e-05	-0.00011	-0.00029	-7e-05	-2e-05	5
22644	-8e-05	0.00011	2e-05	-2e-05	-0.00011	-0.00029	-7e-05	-2e-05	5
22645	-8e-05	0.00011	2e-05	-2e-05	-0.00011	-0.00029	-7e-05	-2e-05	5
22646	-8e-05	0.00011	2e-05	-2e-05	-0.00011	-0.00029	-7e-05	-2e-05	5
22647	-8e-05	0.00011	2e-05	-2e-05	-0.00011	-0.00029	-7e-05	-2e-05	5
22648	-8e-05	0.00011	2e-05	-2e-05	-0.00011	-0.00029	-7e-05	-2e-05	5
22649	-8e-05	0.00011	2e-05	-2e-05	-0.00011	-0.00029	-7e-05	-2e-05	5
22650	-8e-05	0.00011	2e-05	-2e-05	-0.00011	-0.00029	-7e-05	-2e-05	5
22651	-8e-05	0.00011	2e-05	-2e-05	-0.00011	-0.00029	-7e-05	-2e-05	5
22652	-8e-05	0.00011	2e-05	-2e-05	-0.00011	-0.00029	-7e-05	-2e-05	5
22653	-8e-05	0.00011	2e-05	-2e-05	-0.00011	-0.00029	-7e-05	-2e-05	5
22654	-8e-05	0.00011	2e-05	-2e-05	-0.00011	-0.00029	-7e-05	-2e-05	5
22655	5e-05	-1e-05	-3e-05	-9e-05	0	3e-05	3e-05	6e-05	5
22656	-5e-05	4e-05	6e-05	0.00013	-5e-05	0.00031	3e-05	-3e-05	5
22657	-5e-05	4e-05	6e-05	0.00013	-5e-05	0.00031	3e-05	-3e-05	5
22658	-5e-05	4e-05	6e-05	0.00013	-5e-05	0.00031	3e-05	-3e-05	5
22659	-5e-05	4e-05	6e-05	0.00013	-5e-05	0.00031	3e-05	-3e-05	5
22660	-5e-05	4e-05	6e-05	0.00013	-5e-05	0.00031	3e-05	-3e-05	5
22661	-5e-05	4e-05	6e-05	0.00013	-5e-05	0.00031	3e-05	-3e-05	5
22662	-5e-05	4e-05	6e-05	0.00013	-5e-05	0.00031	3e-05	-3e-05	5
22663	-5e-05	4e-05	6e-05	0.00013	-5e-05	0.00031	3e-05	-3e-05	5
22664	-5e-05	4e-05	6e-05	0.00013	-5e-05	0.00031	3e-05	-3e-05	5
22665	-5e-05	4e-05	6e-05	0.00013	-5e-05	0.00031	3e-05	-3e-05	5
22666	-5e-05	4e-05	6e-05	0.00013	-5e-05	0.00031	3e-05	-3e-05	5
22667	-5e-05	4e-05	6e-05	0.00013	-5e-05	0.00031	3e-05	-3e-05	5
22668	-5e-05	4e-05	6e-05	0.00013	-5e-05	0.00031	3e-05	-3e-05	5
22669	-5e-05	4e-05	6e-05	0.00013	-5e-05	0.00031	3e-05	-3e-05	5
22670	-3e-05	-1e-05	-7e-05	-0.00023	-2e-05	-1e-05	0	1e-05	5
22671	4e-05	3e-05	3e-05	-0.00039	5e-05	-6e-05	0	1e-05	5
22672	4e-05	3e-05	3e-05	-0.00039	5e-05	-6e-05	0	1e-05	5
22673	4e-05	3e-05	3e-05	-0.00039	5e-05	-6e-05	0	1e-05	5
22674	4e-05	3e-05	3e-05	-0.00039	5e-05	-6e-05	0	1e-05	5
22675	4e-05	3e-05	3e-05	-0.00039	5e-05	-6e-05	0	1e-05	5
22676	4e-05	3e-05	3e-05	-0.00039	5e-05	-6e-05	0	1e-05	5
22677	4e-05	3e-05	3e-05	-0.00039	5e-05	-6e-05	0	1e-05	5
22678	4e-05	3e-05	3e-05	-0.00039	5e-05	-6e-05	0	1e-05	5
22679	4e-05	3e-05	3e-05	-0.00039	5e-05	-6e-05	0	1e-05	5
22680	4e-05	3e-05	3e-05	-0.00039	5e-05	-6e-05	0	1e-05	5
22681	4e-05	3e-05	3e-05	-0.00039	5e-05	-6e-05	0	1e-05	5
22682	4e-05	3e-05	3e-05	-0.00039	5e-05	-6e-05	0	1e-05	5
22683	4e-05	3e-05	3e-05	-0.00039	5e-05	-6e-05	0	1e-05	5
22684	4e-05	3e-05	3e-05	-0.00039	5e-05	-6e-05	0	1e-05	5
22685	4e-05	3e-05	3e-05	-0.00039	5e-05	-6e-05	0	1e-05	5
22686	4e-05	3e-05	3e-05	-0.00039	5e-05	-6e-05	0	1e-05	5
22688	4e-05	3e-05	3e-05	-0.00039	5e-05	-6e-05	0	1e-05	5
22689	4e-05	3e-05	3e-05	-0.00039	5e-05	-6e-05	0	1e-05	5
22690	4e-05	3e-05	3e-05	-0.00039	5e-05	-6e-05	0	1e-05	5
22691	4e-05	3e-05	3e-05	-0.00039	5e-05	-6e-05	0	1e-05	5
22692	-8e-05	-3e-05	5e-05	0.00035	-1e-05	-0.00013	-2e-05	-4e-05	5
22693	5e-05	-6e-05	-8e-05	-6e-05	-8e-05	0.00019	3e-05	1e-05	5
22694	-2e-05	1e-05	-1e-05	-0.00014	4e-05	8e-05	2e-05	2e-05	5
22695	-2e-05	1e-05	-1e-05	-0.00014	4e-05	8e-05	2e-05	2e-05	5
22696	-2e-05	1e-05	-1e-05	-0.00014	4e-05	8e-05	2e-05	2e-05	5
22697	-2e-05	1e-05	-1e-05	-0.00014	4e-05	8e-05	2e-05	2e-05	5
22698	-2e-05	1e-05	-1e-05	-0.00014	4e-05	8e-05	2e-05	2e-05	5
22699	-2e-05	1e-05	-1e-05	-0.00014	4e-05	8e-05	2e-05	2e-05	5
22700	-2e-05	1e-05	-1e-05	-0.00014	4e-05	8e-05	2e-05	2e-05	5
22701	-2e-05	1e-05	-1e-05	-0.00014	4e-05	8e-05	2e-05	2e-05	5
22702	-2e-05	1e-05	-1e-05	-0.00014	4e-05	8e-05	2e-05	2e-05	5
22703	-2e-05	1e-05	-1e-05	-0.00014	4e-05	8e-05	2e-05	2e-05	5
22704	-2e-05	1e-05	-1e-05	-0.00014	4e-05	8e-05	2e-05	2e-05	5
22705	-2e-05	1e-05	-1e-05	-0.00014	4e-05	8e-05	2e-05	2e-05	5
22706	-2e-05	1e-05	-1e-05	-0.00014	4e-05	8e-05	2e-05	2e-05	5
22707	-2e-05	1e-05	-1e-05	-0.00014	4e-05	8e-05	2e-05	2e-05	5
22708	-2e-05	1e-05	-1e-05	-0.00014	4e-05	8e-05	2e-05	2e-05	5
22709	-2e-05	1e-05	-1e-05	-0.00014	4e-05	8e-05	2e-05	2e-05	5
22710	-2e-05	1e-05	-1e-05	-0.00014	4e-05	8e-05	2e-05	2e-05	5
22711	-2e-05	1e-05	-1e-05	-0.00014	4e-05	8e-05	2e-05	2e-05	5
22712	-2e-05	1e-05	-1e-05	-0.00014	4e-05	8e-05	2e-05	2e-05	5
22713	-2e-05	1e-05	-1e-05	-0.00014	4e-05	8e-05	2e-05	2e-05	5
22714	-2e-05	1e-05	-1e-05	-0.00014	4e-05	8e-05	2e-05	2e-05	5
22715	4e-05	6e-05	8e-05	-0.00055	-4e-05	8e-05	1e-05	-2e-05	5
22716	-7e-05	0	-8e-05	-0.00018	-1e-05	-7e-05	-3e-05	-3e-05	5
22717	-7e-05	0	-8e-05	-0.00018	-1e-05	-7e-05	-3e-05	-3e-05	5
22718	-7e-05	0	-8e-05	-0.00018	-1e-05	-7e-05	-3e-05	-3e-05	5
22719	-7e-05	0	-8e-05	-0.00018	-1e-05	-7e-05	-3e-05	-3e-05	5
22720	-7e-05	0	-8e-05	-0.00018	-1e-05	-7e-05	-3e-05	-3e-05	5
22721	-7e-05	0	-8e-05	-0.00018	-1e-05	-7e-05	-3e-05	-3e-05	5
22722	-7e-05	0	-8e-05	-0.00018	-1e-05	-7e-05	-3e-05	-3e-05	5
22723	-7e-05	0	-8e-05	-0.00018	-1e-05	-7e-05	-3e-05	-3e-05	5
22724	-7e-05	0	-8e-05	-0.00018	-1e-05	-7e-05	-3e-05	-3e-05	5
22725	-7e-05	0	-8e-05	-0.00018	-1e-05	-7e-05	-3e-05	-3e-05	5
22726	-7e-05	0	-8e-05	-0.00018	-1e-05	-7e-05	-3e-05	-3e-05	5
22727	-7e-05	0	-8e-05	-0.00018	-1e-05	-7e-05	-3e-05	-3e-05	5
22728	-7e-05	0	-8e-05	-0.00018	-1e-05	-7e-05	-3e-05	-3e-05	5
22729	-7e-05	0	-8e-05	-0.00018	-1e-05	-7e-05	-3e-05	-3e-05	5
22730	-3e-05	-1e-05	6e-05	8e-05	-2e-05	2e-05	-3e-05	-2e-05	5
22731	-3e-05	-3e-05	4e-05	0.0004	-3e-05	0.00021	5e-05	5e-05	5
22732	-3e-05	-3e-05	4e-05	0.0004	-3e-05	0.00021	5e-05	5e-05	5
22733	-3e-05	-3e-05	4e-05	0.0004	-3e-05	0.00021	5e-05	5e-05	5
22734	-3e-05	-3e-05	4e-05	0.0004	-3e-05	0.00021	5e-05	5e-05	5
22735	-3e-05	-3e-05	4e-05	0.0004	-3e-05	0.00021	5e-05	5e-05	5
22736	-3e-05	-3e-05	4e-05	0.0004	-3e-05	0.00021	5e-05	5e-05	5
22738	-3e-05	-3e-05	4e-05	0.0004	-3e-05	0.00021	5e-05	5e-05	5
22739	-3e-05	-3e-05	4e-05	0.0004	-3e-05	0.00021	5e-05	5e-05	5
22740	-3e-05	-3e-05	4e-05	0.0004	-3e-05	0.00021	5e-05	5e-05	5
22741	-3e-05	-3e-05	4e-05	0.0004	-3e-05	0.00021	5e-05	5e-05	5
22742	-3e-05	-3e-05	4e-05	0.0004	-3e-05	0.00021	5e-05	5e-05	5
22743	-3e-05	-3e-05	4e-05	0.0004	-3e-05	0.00021	5e-05	5e-05	5
22744	-3e-05	-3e-05	4e-05	0.0004	-3e-05	0.00021	5e-05	5e-05	5
22745	-3e-05	-3e-05	4e-05	0.0004	-3e-05	0.00021	5e-05	5e-05	5
22746	-3e-05	-3e-05	4e-05	0.0004	-3e-05	0.00021	5e-05	5e-05	5
22747	-3e-05	-3e-05	4e-05	0.0004	-3e-05	0.00021	5e-05	5e-05	5
22748	-3e-05	-3e-05	4e-05	0.0004	-3e-05	0.00021	5e-05	5e-05	5
22749	-3e-05	-3e-05	4e-05	0.0004	-3e-05	0.00021	5e-05	5e-05	5
22750	-3e-05	-3e-05	4e-05	0.0004	-3e-05	0.00021	5e-05	5e-05	5
22751	-3e-05	-3e-05	4e-05	0.0004	-3e-05	0.00021	5e-05	5e-05	5
22752	6e-05	-2e-05	-8e-05	-0.00029	3e-05	-2e-05	3e-05	-1e-05	5
22753	6e-05	-2e-05	-8e-05	-0.00029	3e-05	-2e-05	3e-05	-1e-05	5
22754	-2e-05	-0.0001	-0.0001	-0.00017	5e-05	2e-05	2e-05	0	5
22755	-2e-05	-0.0001	-0.0001	-0.00017	5e-05	2e-05	2e-05	0	5
22756	-2e-05	-0.0001	-0.0001	-0.00017	5e-05	2e-05	2e-05	0	5
22757	-2e-05	-0.0001	-0.0001	-0.00017	5e-05	2e-05	2e-05	0	5
22758	-2e-05	-0.0001	-0.0001	-0.00017	5e-05	2e-05	2e-05	0	5
22759	-2e-05	-0.0001	-0.0001	-0.00017	5e-05	2e-05	2e-05	0	5
22760	-2e-05	-0.0001	-0.0001	-0.00017	5e-05	2e-05	2e-05	0	5
22761	-2e-05	-0.0001	-0.0001	-0.00017	5e-05	2e-05	2e-05	0	5
22762	-2e-05	-0.0001	-0.0001	-0.00017	5e-05	2e-05	2e-05	0	5
22763	-2e-05	-0.0001	-0.0001	-0.00017	5e-05	2e-05	2e-05	0	5
22764	-2e-05	-0.0001	-0.0001	-0.00017	5e-05	2e-05	2e-05	0	5
22765	-2e-05	-0.0001	-0.0001	-0.00017	5e-05	2e-05	2e-05	0	5
22766	-2e-05	-0.0001	-0.0001	-0.00017	5e-05	2e-05	2e-05	0	5
22767	-2e-05	-0.0001	-0.0001	-0.00017	5e-05	2e-05	2e-05	0	5
22768	-2e-05	-0.0001	-0.0001	-0.00017	5e-05	2e-05	2e-05	0	5
22769	-2e-05	-0.0001	-0.0001	-0.00017	5e-05	2e-05	2e-05	0	5
22770	-2e-05	-0.0001	-0.0001	-0.00017	5e-05	2e-05	2e-05	0	5
22771	-2e-05	-0.0001	-0.0001	-0.00017	5e-05	2e-05	2e-05	0	5
22772	-2e-05	-0.0001	-0.0001	-0.00017	5e-05	2e-05	2e-05	0	5
22773	-2e-05	-0.0001	-0.0001	-0.00017	5e-05	2e-05	2e-05	0	5
22774	-2e-05	-0.0001	-0.0001	-0.00017	5e-05	2e-05	2e-05	0	5
22775	0	3e-05	-2e-05	0.0001	4e-05	-5e-05	-5e-05	-2e-05	5
22776	-0.00014	-1e-05	5e-05	1e-05	-3e-05	-0.0001	-5e-05	-4e-05	5
22777	-0.00014	-1e-05	5e-05	1e-05	-3e-05	-0.0001	-5e-05	-4e-05	5
22778	-0.00014	-1e-05	5e-05	1e-05	-3e-05	-0.0001	-5e-05	-4e-05	5
22779	-0.00014	-1e-05	5e-05	1e-05	-3e-05	-0.0001	-5e-05	-4e-05	5
22780	-0.00014	-1e-05	5e-05	1e-05	-3e-05	-0.0001	-5e-05	-4e-05	5
22781	-0.00014	-1e-05	5e-05	1e-05	-3e-05	-0.0001	-5e-05	-4e-05	5
22782	-0.00014	-1e-05	5e-05	1e-05	-3e-05	-0.0001	-5e-05	-4e-05	5
22783	-0.00014	-1e-05	5e-05	1e-05	-3e-05	-0.0001	-5e-05	-4e-05	5
22784	-0.00014	-1e-05	5e-05	1e-05	-3e-05	-0.0001	-5e-05	-4e-05	5
22785	-0.00014	-1e-05	5e-05	1e-05	-3e-05	-0.0001	-5e-05	-4e-05	5
22786	-0.00014	-1e-05	5e-05	1e-05	-3e-05	-0.0001	-5e-05	-4e-05	5
22788	-0.00014	-1e-05	5e-05	1e-05	-3e-05	-0.0001	-5e-05	-4e-05	5
22789	-3e-05	-4e-05	-8e-05	9e-05	3e-05	8e-05	-3e-05	-3e-05	5
22790	-3e-05	-4e-05	-8e-05	9e-05	3e-05	8e-05	-3e-05	-3e-05	5
22791	-3e-05	-4e-05	-8e-05	9e-05	3e-05	8e-05	-3e-05	-3e-05	5
22792	-3e-05	-4e-05	-8e-05	9e-05	3e-05	8e-05	-3e-05	-3e-05	5
22793	-3e-05	-4e-05	-8e-05	9e-05	3e-05	8e-05	-3e-05	-3e-05	5
22794	-3e-05	-4e-05	-8e-05	9e-05	3e-05	8e-05	-3e-05	-3e-05	5
22795	-3e-05	-4e-05	-8e-05	9e-05	3e-05	8e-05	-3e-05	-3e-05	5
22796	8e-05	1e-05	2e-05	0.00014	0	-4e-05	2e-05	-1e-05	5
22797	8e-05	1e-05	2e-05	0.00014	0	-4e-05	2e-05	-1e-05	5
22798	8e-05	1e-05	2e-05	0.00014	0	-4e-05	2e-05	-1e-05	5
22799	8e-05	1e-05	2e-05	0.00014	0	-4e-05	2e-05	-1e-05	5
22800	8e-05	1e-05	2e-05	0.00014	0	-4e-05	2e-05	-1e-05	5
22801	8e-05	1e-05	2e-05	0.00014	0	-4e-05	2e-05	-1e-05	5
22802	8e-05	1e-05	2e-05	0.00014	0	-4e-05	2e-05	-1e-05	5
22803	8e-05	1e-05	2e-05	0.00014	0	-4e-05	2e-05	-1e-05	5
22804	8e-05	1e-05	2e-05	0.00014	0	-4e-05	2e-05	-1e-05	5
22805	8e-05	1e-05	2e-05	0.00014	0	-4e-05	2e-05	-1e-05	5
22806	8e-05	1e-05	2e-05	0.00014	0	-4e-05	2e-05	-1e-05	5
22807	8e-05	1e-05	2e-05	0.00014	0	-4e-05	2e-05	-1e-05	5
22808	8e-05	1e-05	2e-05	0.00014	0	-4e-05	2e-05	-1e-05	5
22809	8e-05	1e-05	2e-05	0.00014	0	-4e-05	2e-05	-1e-05	5
22810	8e-05	1e-05	2e-05	0.00014	0	-4e-05	2e-05	-1e-05	5
22811	8e-05	1e-05	2e-05	0.00014	0	-4e-05	2e-05	-1e-05	5
22812	-4e-05	-1e-05	-5e-05	0.00017	-1e-05	1e-05	-4e-05	-1e-05	5
22813	-4e-05	-1e-05	-5e-05	0.00017	-1e-05	1e-05	-4e-05	-1e-05	5
22814	3e-05	1e-05	-1e-05	0.00012	-3e-05	-2e-05	0	1e-05	5
22815	3e-05	1e-05	-1e-05	0.00012	-3e-05	-2e-05	0	1e-05	5
22816	3e-05	1e-05	-1e-05	0.00012	-3e-05	-2e-05	0	1e-05	5
22817	3e-05	1e-05	-1e-05	0.00012	-3e-05	-2e-05	0	1e-05	5
22818	3e-05	1e-05	-1e-05	0.00012	-3e-05	-2e-05	0	1e-05	5
22819	3e-05	1e-05	-1e-05	0.00012	-3e-05	-2e-05	0	1e-05	5
22820	3e-05	1e-05	-1e-05	0.00012	-3e-05	-2e-05	0	1e-05	5
22821	3e-05	1e-05	-1e-05	0.00012	-3e-05	-2e-05	0	1e-05	5
22822	3e-05	1e-05	-1e-05	0.00012	-3e-05	-2e-05	0	1e-05	5
22823	3e-05	1e-05	-1e-05	0.00012	-3e-05	-2e-05	0	1e-05	5
22824	3e-05	1e-05	-1e-05	0.00012	-3e-05	-2e-05	0	1e-05	5
22825	3e-05	1e-05	-1e-05	0.00012	-3e-05	-2e-05	0	1e-05	5
22826	3e-05	1e-05	-1e-05	0.00012	-3e-05	-2e-05	0	1e-05	5
22827	3e-05	1e-05	-1e-05	0.00012	-3e-05	-2e-05	0	1e-05	5
22828	3e-05	1e-05	-1e-05	0.00012	-3e-05	-2e-05	0	1e-05	5
22829	3e-05	1e-05	-1e-05	0.00012	-3e-05	-2e-05	0	1e-05	5
22830	3e-05	1e-05	-1e-05	0.00012	-3e-05	-2e-05	0	1e-05	5
22831	3e-05	1e-05	-1e-05	0.00012	-3e-05	-2e-05	0	1e-05	5
22832	3e-05	1e-05	-1e-05	0.00012	-3e-05	-2e-05	0	1e-05	5
22833	3e-05	1e-05	-1e-05	0.00012	-3e-05	-2e-05	0	1e-05	5
22834	3e-05	1e-05	-1e-05	0.00012	-3e-05	-2e-05	0	1e-05	5
22835	0	0	4e-05	2e-05	-5e-05	-1e-05	1e-05	1e-05	5
22836	4e-05	2e-05	3e-05	3e-05	-5e-05	-0.00013	-1e-05	-1e-05	5
22838	-1e-05	-3e-05	-0.0001	-0.00016	-3e-05	-4e-05	-4e-05	1e-05	5
22839	-1e-05	-3e-05	-0.0001	-0.00016	-3e-05	-4e-05	-4e-05	1e-05	5
22840	-1e-05	-3e-05	-0.0001	-0.00016	-3e-05	-4e-05	-4e-05	1e-05	5
22841	-1e-05	-3e-05	-0.0001	-0.00016	-3e-05	-4e-05	-4e-05	1e-05	5
22842	-1e-05	-3e-05	-0.0001	-0.00016	-3e-05	-4e-05	-4e-05	1e-05	5
22843	-1e-05	-3e-05	-0.0001	-0.00016	-3e-05	-4e-05	-4e-05	1e-05	5
22844	-1e-05	-3e-05	-0.0001	-0.00016	-3e-05	-4e-05	-4e-05	1e-05	5
22845	-1e-05	-3e-05	-0.0001	-0.00016	-3e-05	-4e-05	-4e-05	1e-05	5
22846	-1e-05	-3e-05	-0.0001	-0.00016	-3e-05	-4e-05	-4e-05	1e-05	5
22847	-1e-05	-3e-05	-0.0001	-0.00016	-3e-05	-4e-05	-4e-05	1e-05	5
22848	-1e-05	-3e-05	-0.0001	-0.00016	-3e-05	-4e-05	-4e-05	1e-05	5
22849	-9e-05	2e-05	-1e-05	0.00011	-3e-05	-3e-05	3e-05	1e-05	5
22850	-9e-05	2e-05	-1e-05	0.00011	-3e-05	-3e-05	3e-05	1e-05	5
22851	-9e-05	2e-05	-1e-05	0.00011	-3e-05	-3e-05	3e-05	1e-05	5
22852	-9e-05	2e-05	-1e-05	0.00011	-3e-05	-3e-05	3e-05	1e-05	5
22853	-9e-05	2e-05	-1e-05	0.00011	-3e-05	-3e-05	3e-05	1e-05	5
22854	-9e-05	2e-05	-1e-05	0.00011	-3e-05	-3e-05	3e-05	1e-05	5
22855	-9e-05	2e-05	-1e-05	0.00011	-3e-05	-3e-05	3e-05	1e-05	5
22856	1e-05	-3e-05	-2e-05	0.00024	1e-05	2e-05	-3e-05	-3e-05	5
22857	1e-05	-3e-05	-2e-05	0.00024	1e-05	2e-05	-3e-05	-3e-05	5
22858	1e-05	-3e-05	-2e-05	0.00024	1e-05	2e-05	-3e-05	-3e-05	5
22859	1e-05	-3e-05	-2e-05	0.00024	1e-05	2e-05	-3e-05	-3e-05	5
22860	1e-05	-3e-05	-2e-05	0.00024	1e-05	2e-05	-3e-05	-3e-05	5
22861	1e-05	-3e-05	-2e-05	0.00024	1e-05	2e-05	-3e-05	-3e-05	5
22862	1e-05	-3e-05	-2e-05	0.00024	1e-05	2e-05	-3e-05	-3e-05	5
22863	1e-05	-3e-05	-2e-05	0.00024	1e-05	2e-05	-3e-05	-3e-05	5
22864	1e-05	-3e-05	-2e-05	0.00024	1e-05	2e-05	-3e-05	-3e-05	5
22865	1e-05	-3e-05	-2e-05	0.00024	1e-05	2e-05	-3e-05	-3e-05	5
22866	1e-05	-3e-05	-2e-05	0.00024	1e-05	2e-05	-3e-05	-3e-05	5
22867	1e-05	-3e-05	-2e-05	0.00024	1e-05	2e-05	-3e-05	-3e-05	5
22868	1e-05	-3e-05	-2e-05	0.00024	1e-05	2e-05	-3e-05	-3e-05	5
22869	1e-05	-3e-05	-2e-05	0.00024	1e-05	2e-05	-3e-05	-3e-05	5
22870	1e-05	-3e-05	-2e-05	0.00024	1e-05	2e-05	-3e-05	-3e-05	5
22871	1e-05	-3e-05	-2e-05	0.00024	1e-05	2e-05	-3e-05	-3e-05	5
22872	1e-05	-3e-05	-2e-05	0.00024	1e-05	2e-05	-3e-05	-3e-05	5
22873	0.0001	-2e-05	2e-05	0.00019	-3e-05	1e-05	3e-05	8e-05	5
22874	-0.00014	0	-6e-05	-0.00025	2e-05	-7e-05	-3e-05	-4e-05	5
22875	-0.00014	0	-6e-05	-0.00025	2e-05	-7e-05	-3e-05	-4e-05	5
22876	-0.00014	0	-6e-05	-0.00025	2e-05	-7e-05	-3e-05	-4e-05	5
22877	-0.00014	0	-6e-05	-0.00025	2e-05	-7e-05	-3e-05	-4e-05	5
22878	-0.00014	0	-6e-05	-0.00025	2e-05	-7e-05	-3e-05	-4e-05	5
22879	-0.00014	0	-6e-05	-0.00025	2e-05	-7e-05	-3e-05	-4e-05	5
22880	-0.00014	0	-6e-05	-0.00025	2e-05	-7e-05	-3e-05	-4e-05	5
22881	-0.00014	0	-6e-05	-0.00025	2e-05	-7e-05	-3e-05	-4e-05	5
22882	-0.00014	0	-6e-05	-0.00025	2e-05	-7e-05	-3e-05	-4e-05	5
22883	-0.00014	0	-6e-05	-0.00025	2e-05	-7e-05	-3e-05	-4e-05	5
22884	-0.00014	0	-6e-05	-0.00025	2e-05	-7e-05	-3e-05	-4e-05	5
22885	-0.00014	0	-6e-05	-0.00025	2e-05	-7e-05	-3e-05	-4e-05	5
22886	-0.00014	0	-6e-05	-0.00025	2e-05	-7e-05	-3e-05	-4e-05	5
22888	-0.00014	0	-6e-05	-0.00025	2e-05	-7e-05	-3e-05	-4e-05	5
22889	-0.00014	0	-6e-05	-0.00025	2e-05	-7e-05	-3e-05	-4e-05	5
22890	-0.00014	0	-6e-05	-0.00025	2e-05	-7e-05	-3e-05	-4e-05	5
22891	-0.00014	0	-6e-05	-0.00025	2e-05	-7e-05	-3e-05	-4e-05	5
22892	-0.00014	0	-6e-05	-0.00025	2e-05	-7e-05	-3e-05	-4e-05	5
22893	-0.00014	0	-6e-05	-0.00025	2e-05	-7e-05	-3e-05	-4e-05	5
22894	-0.00014	0	-6e-05	-0.00025	2e-05	-7e-05	-3e-05	-4e-05	5
22895	0	-4e-05	1e-05	-0.00021	-5e-05	0.0001	-2e-05	-1e-05	5
22896	-0.00021	-6e-05	-0.00018	-0.00048	9e-05	-0.00058	-0.00018	-8e-05	5
22897	7e-05	-8e-05	5e-05	9e-05	-6e-05	0.00011	-3e-05	-3e-05	5
22898	7e-05	-8e-05	5e-05	9e-05	-6e-05	0.00011	-3e-05	-3e-05	5
22899	7e-05	-8e-05	5e-05	9e-05	-6e-05	0.00011	-3e-05	-3e-05	5
22900	7e-05	-8e-05	5e-05	9e-05	-6e-05	0.00011	-3e-05	-3e-05	5
22901	7e-05	-8e-05	5e-05	9e-05	-6e-05	0.00011	-3e-05	-3e-05	5
22902	7e-05	-8e-05	5e-05	9e-05	-6e-05	0.00011	-3e-05	-3e-05	5
22903	7e-05	-8e-05	5e-05	9e-05	-6e-05	0.00011	-3e-05	-3e-05	5
22904	7e-05	-8e-05	5e-05	9e-05	-6e-05	0.00011	-3e-05	-3e-05	5
22905	7e-05	-8e-05	5e-05	9e-05	-6e-05	0.00011	-3e-05	-3e-05	5
22906	7e-05	-8e-05	5e-05	9e-05	-6e-05	0.00011	-3e-05	-3e-05	5
22907	7e-05	-8e-05	5e-05	9e-05	-6e-05	0.00011	-3e-05	-3e-05	5
22908	7e-05	-8e-05	5e-05	9e-05	-6e-05	0.00011	-3e-05	-3e-05	5
22909	0	-3e-05	0	0.00021	-2e-05	-6e-05	3e-05	-1e-05	5
22910	0	-3e-05	0	0.00021	-2e-05	-6e-05	3e-05	-1e-05	5
22911	0	-3e-05	0	0.00021	-2e-05	-6e-05	3e-05	-1e-05	5
22912	0	-3e-05	0	0.00021	-2e-05	-6e-05	3e-05	-1e-05	5
22913	0	-3e-05	0	0.00021	-2e-05	-6e-05	3e-05	-1e-05	5
22914	0	-3e-05	0	0.00021	-2e-05	-6e-05	3e-05	-1e-05	5
22915	0	-3e-05	0	0.00021	-2e-05	-6e-05	3e-05	-1e-05	5
22916	-1e-05	2e-05	0	-0.0005	-1e-05	3e-05	3e-05	0	5
22917	-1e-05	2e-05	0	-0.0005	-1e-05	3e-05	3e-05	0	5
22918	-1e-05	2e-05	0	-0.0005	-1e-05	3e-05	3e-05	0	5
22919	-1e-05	2e-05	0	-0.0005	-1e-05	3e-05	3e-05	0	5
22920	-1e-05	2e-05	0	-0.0005	-1e-05	3e-05	3e-05	0	5
22921	-1e-05	2e-05	0	-0.0005	-1e-05	3e-05	3e-05	0	5
22922	-1e-05	2e-05	0	-0.0005	-1e-05	3e-05	3e-05	0	5
22923	-1e-05	2e-05	0	-0.0005	-1e-05	3e-05	3e-05	0	5
22924	-1e-05	2e-05	0	-0.0005	-1e-05	3e-05	3e-05	0	5
22925	-1e-05	2e-05	0	-0.0005	-1e-05	3e-05	3e-05	0	5
22926	-1e-05	2e-05	0	-0.0005	-1e-05	3e-05	3e-05	0	5
22927	-1e-05	2e-05	0	-0.0005	-1e-05	3e-05	3e-05	0	5
22928	-1e-05	2e-05	0	-0.0005	-1e-05	3e-05	3e-05	0	5
22929	-1e-05	2e-05	0	-0.0005	-1e-05	3e-05	3e-05	0	5
22930	-1e-05	2e-05	0	-0.0005	-1e-05	3e-05	3e-05	0	5
22931	-1e-05	2e-05	0	-0.0005	-1e-05	3e-05	3e-05	0	5
22932	-6e-05	1e-05	0	9e-05	1e-05	-0.00022	-0.00011	-8e-05	5
22933	-6e-05	1e-05	0	9e-05	1e-05	-0.00022	-0.00011	-8e-05	5
22934	-9e-05	7e-05	4e-05	6e-05	3e-05	-0.00011	-2e-05	1e-05	5
22935	-9e-05	7e-05	4e-05	6e-05	3e-05	-0.00011	-2e-05	1e-05	5
22936	-9e-05	7e-05	4e-05	6e-05	3e-05	-0.00011	-2e-05	1e-05	5
22938	-9e-05	7e-05	4e-05	6e-05	3e-05	-0.00011	-2e-05	1e-05	5
22939	-9e-05	7e-05	4e-05	6e-05	3e-05	-0.00011	-2e-05	1e-05	5
22940	-9e-05	7e-05	4e-05	6e-05	3e-05	-0.00011	-2e-05	1e-05	5
22941	-9e-05	7e-05	4e-05	6e-05	3e-05	-0.00011	-2e-05	1e-05	5
22942	-9e-05	7e-05	4e-05	6e-05	3e-05	-0.00011	-2e-05	1e-05	5
22943	-9e-05	7e-05	4e-05	6e-05	3e-05	-0.00011	-2e-05	1e-05	5
22944	-9e-05	7e-05	4e-05	6e-05	3e-05	-0.00011	-2e-05	1e-05	5
22945	-9e-05	7e-05	4e-05	6e-05	3e-05	-0.00011	-2e-05	1e-05	5
22946	-9e-05	7e-05	4e-05	6e-05	3e-05	-0.00011	-2e-05	1e-05	5
22947	-9e-05	7e-05	4e-05	6e-05	3e-05	-0.00011	-2e-05	1e-05	5
22948	-9e-05	7e-05	4e-05	6e-05	3e-05	-0.00011	-2e-05	1e-05	5
22949	-9e-05	7e-05	4e-05	6e-05	3e-05	-0.00011	-2e-05	1e-05	5
22950	-9e-05	7e-05	4e-05	6e-05	3e-05	-0.00011	-2e-05	1e-05	5
22951	-9e-05	7e-05	4e-05	6e-05	3e-05	-0.00011	-2e-05	1e-05	5
22952	-9e-05	7e-05	4e-05	6e-05	3e-05	-0.00011	-2e-05	1e-05	5
22953	-9e-05	7e-05	4e-05	6e-05	3e-05	-0.00011	-2e-05	1e-05	5
22954	-9e-05	7e-05	4e-05	6e-05	3e-05	-0.00011	-2e-05	1e-05	5
22955	2e-05	4e-05	4e-05	-0.00026	-2e-05	-0.00052	0.00011	-1e-05	5
22956	4e-05	2e-05	3e-05	1e-05	4e-05	0.00021	0.00011	8e-05	5
22957	-1e-05	-5e-05	0	9e-05	-3e-05	0.00011	-2e-05	-3e-05	5
22958	-1e-05	-5e-05	0	9e-05	-3e-05	0.00011	-2e-05	-3e-05	5
22959	-1e-05	-5e-05	0	9e-05	-3e-05	0.00011	-2e-05	-3e-05	5
22960	-1e-05	-5e-05	0	9e-05	-3e-05	0.00011	-2e-05	-3e-05	5
22961	-1e-05	-5e-05	0	9e-05	-3e-05	0.00011	-2e-05	-3e-05	5
22962	-1e-05	-5e-05	0	9e-05	-3e-05	0.00011	-2e-05	-3e-05	5
22963	-1e-05	-5e-05	0	9e-05	-3e-05	0.00011	-2e-05	-3e-05	5
22964	-1e-05	-5e-05	0	9e-05	-3e-05	0.00011	-2e-05	-3e-05	5
22965	-1e-05	-5e-05	0	9e-05	-3e-05	0.00011	-2e-05	-3e-05	5
22966	-1e-05	-5e-05	0	9e-05	-3e-05	0.00011	-2e-05	-3e-05	5
22967	-1e-05	-5e-05	0	9e-05	-3e-05	0.00011	-2e-05	-3e-05	5
22968	-1e-05	-5e-05	0	9e-05	-3e-05	0.00011	-2e-05	-3e-05	5
22969	-0.00012	0.0001	7e-05	0	-9e-05	0.00018	-5e-05	-2e-05	5
22970	-0.00012	0.0001	7e-05	0	-9e-05	0.00018	-5e-05	-2e-05	5
22971	-0.00012	0.0001	7e-05	0	-9e-05	0.00018	-5e-05	-2e-05	5
22972	-0.00012	0.0001	7e-05	0	-9e-05	0.00018	-5e-05	-2e-05	5
22973	-0.00012	0.0001	7e-05	0	-9e-05	0.00018	-5e-05	-2e-05	5
22974	-0.00012	0.0001	7e-05	0	-9e-05	0.00018	-5e-05	-2e-05	5
22975	-0.00012	0.0001	7e-05	0	-9e-05	0.00018	-5e-05	-2e-05	5
22976	-0.00012	0.0001	7e-05	0	-9e-05	0.00018	-5e-05	-2e-05	5
22977	-0.00012	0.0001	7e-05	0	-9e-05	0.00018	-5e-05	-2e-05	5
22978	-0.00012	0.0001	7e-05	0	-9e-05	0.00018	-5e-05	-2e-05	5
22979	-0.00012	0.0001	7e-05	0	-9e-05	0.00018	-5e-05	-2e-05	5
22980	-0.00012	0.0001	7e-05	0	-9e-05	0.00018	-5e-05	-2e-05	5
22981	-0.00012	0.0001	7e-05	0	-9e-05	0.00018	-5e-05	-2e-05	5
22982	-0.00012	0.0001	7e-05	0	-9e-05	0.00018	-5e-05	-2e-05	5
22983	0.00015	-0.00018	-0.00016	-0.0005	8e-05	3e-05	0	0	5
22984	0	1e-05	2e-05	0.00039	1e-05	-9e-05	1e-05	-2e-05	5
22985	0	1e-05	2e-05	0.00039	1e-05	-9e-05	1e-05	-2e-05	5
22986	0	1e-05	2e-05	0.00039	1e-05	-9e-05	1e-05	-2e-05	5
22988	0	1e-05	2e-05	0.00039	1e-05	-9e-05	1e-05	-2e-05	5
22989	0	1e-05	2e-05	0.00039	1e-05	-9e-05	1e-05	-2e-05	5
22990	0	1e-05	2e-05	0.00039	1e-05	-9e-05	1e-05	-2e-05	5
22991	0	1e-05	2e-05	0.00039	1e-05	-9e-05	1e-05	-2e-05	5
22992	-3e-05	-2e-05	-6e-05	0	-3e-05	0	-7e-05	-5e-05	5
22993	-3e-05	-2e-05	-6e-05	0	-3e-05	0	-7e-05	-5e-05	5
22994	3e-05	-5e-05	-3e-05	-0.00031	-4e-05	-2e-05	5e-05	0	5
22995	3e-05	-5e-05	-3e-05	-0.00031	-4e-05	-2e-05	5e-05	0	5
22996	3e-05	-5e-05	-3e-05	-0.00031	-4e-05	-2e-05	5e-05	0	5
22997	3e-05	-5e-05	-3e-05	-0.00031	-4e-05	-2e-05	5e-05	0	5
22998	3e-05	-5e-05	-3e-05	-0.00031	-4e-05	-2e-05	5e-05	0	5
22999	3e-05	-5e-05	-3e-05	-0.00031	-4e-05	-2e-05	5e-05	0	5
23000	3e-05	-5e-05	-3e-05	-0.00031	-4e-05	-2e-05	5e-05	0	5
23001	3e-05	-5e-05	-3e-05	-0.00031	-4e-05	-2e-05	5e-05	0	5
23002	3e-05	-5e-05	-3e-05	-0.00031	-4e-05	-2e-05	5e-05	0	5
23003	3e-05	-5e-05	-3e-05	-0.00031	-4e-05	-2e-05	5e-05	0	5
23004	3e-05	-5e-05	-3e-05	-0.00031	-4e-05	-2e-05	5e-05	0	5
23005	3e-05	-5e-05	-3e-05	-0.00031	-4e-05	-2e-05	5e-05	0	5
23006	3e-05	-5e-05	-3e-05	-0.00031	-4e-05	-2e-05	5e-05	0	5
23007	3e-05	-5e-05	-3e-05	-0.00031	-4e-05	-2e-05	5e-05	0	5
23008	3e-05	-5e-05	-3e-05	-0.00031	-4e-05	-2e-05	5e-05	0	5
23009	3e-05	-5e-05	-3e-05	-0.00031	-4e-05	-2e-05	5e-05	0	5
23010	3e-05	-5e-05	-3e-05	-0.00031	-4e-05	-2e-05	5e-05	0	5
23011	3e-05	-5e-05	-3e-05	-0.00031	-4e-05	-2e-05	5e-05	0	5
23012	3e-05	-5e-05	-3e-05	-0.00031	-4e-05	-2e-05	5e-05	0	5
23013	3e-05	-5e-05	-3e-05	-0.00031	-4e-05	-2e-05	5e-05	0	5
23014	3e-05	-5e-05	-3e-05	-0.00031	-4e-05	-2e-05	5e-05	0	5
23015	1e-05	-7e-05	-0.00018	0.00022	3e-05	0.00012	1e-05	1e-05	5
23016	-4e-05	-1e-05	-2e-05	-0.00027	-5e-05	-0.00013	0	-3e-05	5
23017	0.0001	-1e-05	0	0.00026	-7e-05	0.00028	9e-05	6e-05	5
23018	0.0001	-1e-05	0	0.00026	-7e-05	0.00028	9e-05	6e-05	5
23019	0.0001	-1e-05	0	0.00026	-7e-05	0.00028	9e-05	6e-05	5
23020	0.0001	-1e-05	0	0.00026	-7e-05	0.00028	9e-05	6e-05	5
23021	0.0001	-1e-05	0	0.00026	-7e-05	0.00028	9e-05	6e-05	5
23022	0.0001	-1e-05	0	0.00026	-7e-05	0.00028	9e-05	6e-05	5
23023	0.0001	-1e-05	0	0.00026	-7e-05	0.00028	9e-05	6e-05	5
23024	0.0001	-1e-05	0	0.00026	-7e-05	0.00028	9e-05	6e-05	5
23025	0.0001	-1e-05	0	0.00026	-7e-05	0.00028	9e-05	6e-05	5
23026	0.0001	-1e-05	0	0.00026	-7e-05	0.00028	9e-05	6e-05	5
23027	0.0001	-1e-05	0	0.00026	-7e-05	0.00028	9e-05	6e-05	5
23028	0.0001	-1e-05	0	0.00026	-7e-05	0.00028	9e-05	6e-05	5
48102	6e-05	0.00016	-2e-05	-0.00022	-2e-05	-0.00024	-3e-05	5e-05	5
48103	6e-05	0.00016	-2e-05	-0.00022	-2e-05	-0.00024	-3e-05	5e-05	5
48104	0.00034	-0.00016	0.00013	0.00042	-4e-05	0.00018	0.00011	5e-05	5
48105	0.00034	-0.00016	0.00013	0.00042	-4e-05	0.00018	0.00011	5e-05	5
48106	0.00034	-0.00016	0.00013	0.00042	-4e-05	0.00018	0.00011	5e-05	5
48107	0.00034	-0.00016	0.00013	0.00042	-4e-05	0.00018	0.00011	5e-05	5
48108	0.00034	-0.00016	0.00013	0.00042	-4e-05	0.00018	0.00011	5e-05	5
48109	0.00034	-0.00016	0.00013	0.00042	-4e-05	0.00018	0.00011	5e-05	5
48110	0.00034	-0.00016	0.00013	0.00042	-4e-05	0.00018	0.00011	5e-05	5
48111	0.00034	-0.00016	0.00013	0.00042	-4e-05	0.00018	0.00011	5e-05	5
48112	0.00034	-0.00016	0.00013	0.00042	-4e-05	0.00018	0.00011	5e-05	5
48113	0.00034	-0.00016	0.00013	0.00042	-4e-05	0.00018	0.00011	5e-05	5
48114	0.00034	-0.00016	0.00013	0.00042	-4e-05	0.00018	0.00011	5e-05	5
48115	0.00034	-0.00016	0.00013	0.00042	-4e-05	0.00018	0.00011	5e-05	5
48116	0.00034	-0.00016	0.00013	0.00042	-4e-05	0.00018	0.00011	5e-05	5
48117	0.00034	-0.00016	0.00013	0.00042	-4e-05	0.00018	0.00011	5e-05	5
48118	-0.00036	-1e-05	9e-05	8e-05	-1e-05	-1e-05	-4e-05	-5e-05	5
48119	0.00016	0	9e-05	-0.0005	-0.00016	-0.0006	2e-05	0.0001	5
48120	0.00016	0	9e-05	-0.0005	-0.00016	-0.0006	2e-05	0.0001	5
48121	0.00016	0	9e-05	-0.0005	-0.00016	-0.0006	2e-05	0.0001	5
48122	0.00016	0	9e-05	-0.0005	-0.00016	-0.0006	2e-05	0.0001	5
48123	0.00016	0	9e-05	-0.0005	-0.00016	-0.0006	2e-05	0.0001	5
48124	0.00016	0	9e-05	-0.0005	-0.00016	-0.0006	2e-05	0.0001	5
48125	0.00016	0	9e-05	-0.0005	-0.00016	-0.0006	2e-05	0.0001	5
48126	0.00016	0	9e-05	-0.0005	-0.00016	-0.0006	2e-05	0.0001	5
48127	0.00016	0	9e-05	-0.0005	-0.00016	-0.0006	2e-05	0.0001	5
48128	0.00016	0	9e-05	-0.0005	-0.00016	-0.0006	2e-05	0.0001	5
48129	0.00016	0	9e-05	-0.0005	-0.00016	-0.0006	2e-05	0.0001	5
48130	0.00016	0	9e-05	-0.0005	-0.00016	-0.0006	2e-05	0.0001	5
48131	0.00016	0	9e-05	-0.0005	-0.00016	-0.0006	2e-05	0.0001	5
48132	0.00016	0	9e-05	-0.0005	-0.00016	-0.0006	2e-05	0.0001	5
48133	0.00016	0	9e-05	-0.0005	-0.00016	-0.0006	2e-05	0.0001	5
48134	0.00016	0	9e-05	-0.0005	-0.00016	-0.0006	2e-05	0.0001	5
48135	0.00016	0	9e-05	-0.0005	-0.00016	-0.0006	2e-05	0.0001	5
48136	0.00016	0	9e-05	-0.0005	-0.00016	-0.0006	2e-05	0.0001	5
48138	0.00016	0	9e-05	-0.0005	-0.00016	-0.0006	2e-05	0.0001	5
48139	0.00016	0	9e-05	-0.0005	-0.00016	-0.0006	2e-05	0.0001	5
48140	-9e-05	-9e-05	8e-05	0.00031	1e-05	-0.00017	-6e-05	-5e-05	5
48141	-0.00025	-0.0001	1e-05	-4e-05	3e-05	-3e-05	-0.00011	-0.00013	5
48142	-0.00025	-0.0001	1e-05	-4e-05	3e-05	-3e-05	-0.00011	-0.00013	5
48143	-0.00025	-0.0001	1e-05	-4e-05	3e-05	-3e-05	-0.00011	-0.00013	5
48144	-0.00025	-0.0001	1e-05	-4e-05	3e-05	-3e-05	-0.00011	-0.00013	5
48145	-0.00025	-0.0001	1e-05	-4e-05	3e-05	-3e-05	-0.00011	-0.00013	5
48146	-0.00025	-0.0001	1e-05	-4e-05	3e-05	-3e-05	-0.00011	-0.00013	5
48147	-0.00025	-0.0001	1e-05	-4e-05	3e-05	-3e-05	-0.00011	-0.00013	5
48148	-0.00025	-0.0001	1e-05	-4e-05	3e-05	-3e-05	-0.00011	-0.00013	5
48149	-0.00025	-0.0001	1e-05	-4e-05	3e-05	-3e-05	-0.00011	-0.00013	5
48150	-0.00025	-0.0001	1e-05	-4e-05	3e-05	-3e-05	-0.00011	-0.00013	5
48151	-0.00025	-0.0001	1e-05	-4e-05	3e-05	-3e-05	-0.00011	-0.00013	5
48152	-0.00025	-0.0001	1e-05	-4e-05	3e-05	-3e-05	-0.00011	-0.00013	5
48153	-0.00025	-0.0001	1e-05	-4e-05	3e-05	-3e-05	-0.00011	-0.00013	5
48154	-0.00025	-0.0001	1e-05	-4e-05	3e-05	-3e-05	-0.00011	-0.00013	5
48155	-0.00025	-0.0001	1e-05	-4e-05	3e-05	-3e-05	-0.00011	-0.00013	5
48156	-0.00025	-0.0001	1e-05	-4e-05	3e-05	-3e-05	-0.00011	-0.00013	5
48157	-0.00025	-0.0001	1e-05	-4e-05	3e-05	-3e-05	-0.00011	-0.00013	5
48158	-0.00025	-0.0001	1e-05	-4e-05	3e-05	-3e-05	-0.00011	-0.00013	5
48159	-0.00025	-0.0001	1e-05	-4e-05	3e-05	-3e-05	-0.00011	-0.00013	5
48160	-0.00025	-0.0001	1e-05	-4e-05	3e-05	-3e-05	-0.00011	-0.00013	5
48161	-0.00025	-0.0001	1e-05	-4e-05	3e-05	-3e-05	-0.00011	-0.00013	5
48162	-0.00061	-8e-05	5e-05	-0.00027	7e-05	-0.00032	-9e-05	-4e-05	5
48163	-0.00061	-8e-05	5e-05	-0.00027	7e-05	-0.00032	-9e-05	-4e-05	5
48164	-0.00061	-8e-05	5e-05	-0.00027	7e-05	-0.00032	-9e-05	-4e-05	5
48165	-0.00061	-8e-05	5e-05	-0.00027	7e-05	-0.00032	-9e-05	-4e-05	5
48166	-0.00061	-8e-05	5e-05	-0.00027	7e-05	-0.00032	-9e-05	-4e-05	5
48167	-0.00061	-8e-05	5e-05	-0.00027	7e-05	-0.00032	-9e-05	-4e-05	5
48168	-0.00061	-8e-05	5e-05	-0.00027	7e-05	-0.00032	-9e-05	-4e-05	5
48169	-0.00061	-8e-05	5e-05	-0.00027	7e-05	-0.00032	-9e-05	-4e-05	5
48170	-9e-05	0.00014	9e-05	-7e-05	-3e-05	-2e-05	4e-05	0.0001	5
48171	-9e-05	0.00014	9e-05	-7e-05	-3e-05	-2e-05	4e-05	0.0001	5
48172	-9e-05	0.00014	9e-05	-7e-05	-3e-05	-2e-05	4e-05	0.0001	5
48173	-9e-05	0.00014	9e-05	-7e-05	-3e-05	-2e-05	4e-05	0.0001	5
48174	-9e-05	0.00014	9e-05	-7e-05	-3e-05	-2e-05	4e-05	0.0001	5
48175	-9e-05	0.00014	9e-05	-7e-05	-3e-05	-2e-05	4e-05	0.0001	5
48176	-9e-05	0.00014	9e-05	-7e-05	-3e-05	-2e-05	4e-05	0.0001	5
48177	0.00011	9e-05	-8e-05	-0.00028	3e-05	9e-05	9e-05	4e-05	5
48178	0.00011	9e-05	-8e-05	-0.00028	3e-05	9e-05	9e-05	4e-05	5
48179	0.00019	2e-05	-1e-05	0.00019	0	0.00047	3e-05	1e-05	5
48180	0.00019	2e-05	-1e-05	0.00019	0	0.00047	3e-05	1e-05	5
48181	0.00019	2e-05	-1e-05	0.00019	0	0.00047	3e-05	1e-05	5
48182	0.00019	2e-05	-1e-05	0.00019	0	0.00047	3e-05	1e-05	5
48183	0.00019	2e-05	-1e-05	0.00019	0	0.00047	3e-05	1e-05	5
48184	0.00019	2e-05	-1e-05	0.00019	0	0.00047	3e-05	1e-05	5
48185	0.00019	2e-05	-1e-05	0.00019	0	0.00047	3e-05	1e-05	5
48186	0.00019	2e-05	-1e-05	0.00019	0	0.00047	3e-05	1e-05	5
48188	0.00019	2e-05	-1e-05	0.00019	0	0.00047	3e-05	1e-05	5
48189	0.00019	2e-05	-1e-05	0.00019	0	0.00047	3e-05	1e-05	5
48190	0.00019	2e-05	-1e-05	0.00019	0	0.00047	3e-05	1e-05	5
48191	0.00019	2e-05	-1e-05	0.00019	0	0.00047	3e-05	1e-05	5
48192	0.00019	2e-05	-1e-05	0.00019	0	0.00047	3e-05	1e-05	5
48193	0.00019	2e-05	-1e-05	0.00019	0	0.00047	3e-05	1e-05	5
48194	0.00019	2e-05	-1e-05	0.00019	0	0.00047	3e-05	1e-05	5
48195	0.00019	2e-05	-1e-05	0.00019	0	0.00047	3e-05	1e-05	5
48196	0.00019	2e-05	-1e-05	0.00019	0	0.00047	3e-05	1e-05	5
48197	0.00019	2e-05	-1e-05	0.00019	0	0.00047	3e-05	1e-05	5
48198	0.00019	2e-05	-1e-05	0.00019	0	0.00047	3e-05	1e-05	5
48199	0.00019	2e-05	-1e-05	0.00019	0	0.00047	3e-05	1e-05	5
48200	0.00019	2e-05	-1e-05	0.00019	0	0.00047	3e-05	1e-05	5
48201	0.00041	-6e-05	-0.00011	-0.00032	-2e-05	-0.00019	-8e-05	-1e-05	5
48202	0.00041	-6e-05	-0.00011	-0.00032	-2e-05	-0.00019	-8e-05	-1e-05	5
48203	0.00012	9e-05	-9e-05	-0.00021	4e-05	-0.00015	-0.0001	-8e-05	5
48204	0.00012	9e-05	-9e-05	-0.00021	4e-05	-0.00015	-0.0001	-8e-05	5
48205	0.00012	9e-05	-9e-05	-0.00021	4e-05	-0.00015	-0.0001	-8e-05	5
48206	0.00012	9e-05	-9e-05	-0.00021	4e-05	-0.00015	-0.0001	-8e-05	5
48207	0.00012	9e-05	-9e-05	-0.00021	4e-05	-0.00015	-0.0001	-8e-05	5
48208	0.00012	9e-05	-9e-05	-0.00021	4e-05	-0.00015	-0.0001	-8e-05	5
48209	0.00012	9e-05	-9e-05	-0.00021	4e-05	-0.00015	-0.0001	-8e-05	5
48210	0.00012	9e-05	-9e-05	-0.00021	4e-05	-0.00015	-0.0001	-8e-05	5
48211	0.00012	9e-05	-9e-05	-0.00021	4e-05	-0.00015	-0.0001	-8e-05	5
48212	0.00012	9e-05	-9e-05	-0.00021	4e-05	-0.00015	-0.0001	-8e-05	5
48213	0.00012	9e-05	-9e-05	-0.00021	4e-05	-0.00015	-0.0001	-8e-05	5
48214	0.00012	9e-05	-9e-05	-0.00021	4e-05	-0.00015	-0.0001	-8e-05	5
48215	0.00012	9e-05	-9e-05	-0.00021	4e-05	-0.00015	-0.0001	-8e-05	5
48216	0.00012	9e-05	-9e-05	-0.00021	4e-05	-0.00015	-0.0001	-8e-05	5
48217	0.00012	9e-05	-9e-05	-0.00021	4e-05	-0.00015	-0.0001	-8e-05	5
48218	0.00012	9e-05	-9e-05	-0.00021	4e-05	-0.00015	-0.0001	-8e-05	5
48219	0.00012	9e-05	-9e-05	-0.00021	4e-05	-0.00015	-0.0001	-8e-05	5
48220	0.00012	9e-05	-9e-05	-0.00021	4e-05	-0.00015	-0.0001	-8e-05	5
48221	0.00012	9e-05	-9e-05	-0.00021	4e-05	-0.00015	-0.0001	-8e-05	5
48222	-0.00031	0.00014	0.0001	8e-05	-8e-05	0.00037	0.0001	-2e-05	5
48223	-0.00031	0.00014	0.0001	8e-05	-8e-05	0.00037	0.0001	-2e-05	5
48224	-4e-05	-3e-05	-0.00017	-0.00031	6e-05	-9e-05	-0.0001	-7e-05	5
48225	-4e-05	-3e-05	-0.00017	-0.00031	6e-05	-9e-05	-0.0001	-7e-05	5
48226	-4e-05	-3e-05	-0.00017	-0.00031	6e-05	-9e-05	-0.0001	-7e-05	5
48227	-4e-05	-3e-05	-0.00017	-0.00031	6e-05	-9e-05	-0.0001	-7e-05	5
48228	-4e-05	-3e-05	-0.00017	-0.00031	6e-05	-9e-05	-0.0001	-7e-05	5
48229	-4e-05	-3e-05	-0.00017	-0.00031	6e-05	-9e-05	-0.0001	-7e-05	5
48230	-4e-05	-3e-05	-0.00017	-0.00031	6e-05	-9e-05	-0.0001	-7e-05	5
48231	-4e-05	-3e-05	-0.00017	-0.00031	6e-05	-9e-05	-0.0001	-7e-05	5
48232	-4e-05	-3e-05	-0.00017	-0.00031	6e-05	-9e-05	-0.0001	-7e-05	5
48233	-4e-05	-3e-05	-0.00017	-0.00031	6e-05	-9e-05	-0.0001	-7e-05	5
48234	-4e-05	-3e-05	-0.00017	-0.00031	6e-05	-9e-05	-0.0001	-7e-05	5
48235	-4e-05	-3e-05	-0.00017	-0.00031	6e-05	-9e-05	-0.0001	-7e-05	5
48236	-4e-05	-3e-05	-0.00017	-0.00031	6e-05	-9e-05	-0.0001	-7e-05	5
48238	0.00014	-2e-05	0	-4e-05	-3e-05	-4e-05	0.00014	8e-05	5
48239	0.00014	-2e-05	0	-4e-05	-3e-05	-4e-05	0.00014	8e-05	5
48240	0.00014	-2e-05	0	-4e-05	-3e-05	-4e-05	0.00014	8e-05	5
48241	0.00014	-2e-05	0	-4e-05	-3e-05	-4e-05	0.00014	8e-05	5
48242	0.00014	-2e-05	0	-4e-05	-3e-05	-4e-05	0.00014	8e-05	5
48243	-5e-05	-2e-05	7e-05	0	-7e-05	9e-05	-5e-05	2e-05	5
48244	-0.00041	-0.00012	3e-05	3e-05	3e-05	-0.00022	-0.00012	-9e-05	5
48245	-0.00041	-0.00012	3e-05	3e-05	3e-05	-0.00022	-0.00012	-9e-05	5
48246	-0.00041	-0.00012	3e-05	3e-05	3e-05	-0.00022	-0.00012	-9e-05	5
48247	-0.00041	-0.00012	3e-05	3e-05	3e-05	-0.00022	-0.00012	-9e-05	5
48248	-0.00041	-0.00012	3e-05	3e-05	3e-05	-0.00022	-0.00012	-9e-05	5
48249	-0.00041	-0.00012	3e-05	3e-05	3e-05	-0.00022	-0.00012	-9e-05	5
48250	-0.00041	-0.00012	3e-05	3e-05	3e-05	-0.00022	-0.00012	-9e-05	5
48251	-0.00041	-0.00012	3e-05	3e-05	3e-05	-0.00022	-0.00012	-9e-05	5
48252	-0.00041	-0.00012	3e-05	3e-05	3e-05	-0.00022	-0.00012	-9e-05	5
48253	-0.00041	-0.00012	3e-05	3e-05	3e-05	-0.00022	-0.00012	-9e-05	5
48254	-0.00041	-0.00012	3e-05	3e-05	3e-05	-0.00022	-0.00012	-9e-05	5
48255	-0.00041	-0.00012	3e-05	3e-05	3e-05	-0.00022	-0.00012	-9e-05	5
48256	-0.00041	-0.00012	3e-05	3e-05	3e-05	-0.00022	-0.00012	-9e-05	5
48257	-0.00041	-0.00012	3e-05	3e-05	3e-05	-0.00022	-0.00012	-9e-05	5
48258	-0.00041	-0.00012	3e-05	3e-05	3e-05	-0.00022	-0.00012	-9e-05	5
48259	-0.00041	-0.00012	3e-05	3e-05	3e-05	-0.00022	-0.00012	-9e-05	5
48260	-3e-05	0.00012	0.00014	0.00071	5e-05	6e-05	-8e-05	-9e-05	5
48261	0.00021	-0.00011	-0.00013	-9e-05	-2e-05	-0.00019	1e-05	1e-05	5
48262	0.00021	-0.00011	-0.00013	-9e-05	-2e-05	-0.00019	1e-05	1e-05	5
48263	0.00021	-0.00011	-0.00013	-9e-05	-2e-05	-0.00019	1e-05	1e-05	5
48264	0.00021	-0.00011	-0.00013	-9e-05	-2e-05	-0.00019	1e-05	1e-05	5
48265	0.00021	-0.00011	-0.00013	-9e-05	-2e-05	-0.00019	1e-05	1e-05	5
48266	0.00021	-0.00011	-0.00013	-9e-05	-2e-05	-0.00019	1e-05	1e-05	5
48267	0.00021	-0.00011	-0.00013	-9e-05	-2e-05	-0.00019	1e-05	1e-05	5
48268	0.00021	-0.00011	-0.00013	-9e-05	-2e-05	-0.00019	1e-05	1e-05	5
48269	0.00021	-0.00011	-0.00013	-9e-05	-2e-05	-0.00019	1e-05	1e-05	5
48270	0.00021	-0.00011	-0.00013	-9e-05	-2e-05	-0.00019	1e-05	1e-05	5
48271	0.00021	-0.00011	-0.00013	-9e-05	-2e-05	-0.00019	1e-05	1e-05	5
48272	0.00021	-0.00011	-0.00013	-9e-05	-2e-05	-0.00019	1e-05	1e-05	5
48273	0.00021	-0.00011	-0.00013	-9e-05	-2e-05	-0.00019	1e-05	1e-05	5
48274	0.00021	-0.00011	-0.00013	-9e-05	-2e-05	-0.00019	1e-05	1e-05	5
48275	0.00021	-0.00011	-0.00013	-9e-05	-2e-05	-0.00019	1e-05	1e-05	5
48276	0.00021	-0.00011	-0.00013	-9e-05	-2e-05	-0.00019	1e-05	1e-05	5
48277	0.00021	-0.00011	-0.00013	-9e-05	-2e-05	-0.00019	1e-05	1e-05	5
48278	0.00021	-0.00011	-0.00013	-9e-05	-2e-05	-0.00019	1e-05	1e-05	5
48279	0.00021	-0.00011	-0.00013	-9e-05	-2e-05	-0.00019	1e-05	1e-05	5
48280	0.00021	-0.00011	-0.00013	-9e-05	-2e-05	-0.00019	1e-05	1e-05	5
48281	0.00021	-0.00011	-0.00013	-9e-05	-2e-05	-0.00019	1e-05	1e-05	5
48282	0.00047	0.00012	-9e-05	0.00024	7e-05	-0.00012	-3e-05	0	5
48283	0.00047	0.00012	-9e-05	0.00024	7e-05	-0.00012	-3e-05	0	5
48284	-0.00014	6e-05	1e-05	0.00061	-2e-05	0.00028	5e-05	3e-05	5
48285	-0.00014	6e-05	1e-05	0.00061	-2e-05	0.00028	5e-05	3e-05	5
48286	-0.00014	6e-05	1e-05	0.00061	-2e-05	0.00028	5e-05	3e-05	5
48288	-0.00014	6e-05	1e-05	0.00061	-2e-05	0.00028	5e-05	3e-05	5
48289	-0.00014	6e-05	1e-05	0.00061	-2e-05	0.00028	5e-05	3e-05	5
48290	-0.00014	6e-05	1e-05	0.00061	-2e-05	0.00028	5e-05	3e-05	5
48291	-0.00014	6e-05	1e-05	0.00061	-2e-05	0.00028	5e-05	3e-05	5
48292	-0.00014	6e-05	1e-05	0.00061	-2e-05	0.00028	5e-05	3e-05	5
48293	-0.00014	6e-05	1e-05	0.00061	-2e-05	0.00028	5e-05	3e-05	5
48294	-0.00014	6e-05	1e-05	0.00061	-2e-05	0.00028	5e-05	3e-05	5
48295	-0.00014	6e-05	1e-05	0.00061	-2e-05	0.00028	5e-05	3e-05	5
48296	-0.00014	6e-05	1e-05	0.00061	-2e-05	0.00028	5e-05	3e-05	5
48297	-8e-05	-8e-05	-7e-05	-0.00019	6e-05	9e-05	3e-05	3e-05	5
48298	-8e-05	-8e-05	-7e-05	-0.00019	6e-05	9e-05	3e-05	3e-05	5
48299	-8e-05	-8e-05	-7e-05	-0.00019	6e-05	9e-05	3e-05	3e-05	5
48300	-8e-05	-8e-05	-7e-05	-0.00019	6e-05	9e-05	3e-05	3e-05	5
48301	-8e-05	-8e-05	-7e-05	-0.00019	6e-05	9e-05	3e-05	3e-05	5
48302	-8e-05	-8e-05	-7e-05	-0.00019	6e-05	9e-05	3e-05	3e-05	5
48303	6e-05	0	0.00014	-0.00043	-4e-05	-0.00022	-3e-05	0	5
48304	-5e-05	-4e-05	-7e-05	3e-05	-4e-05	2e-05	1e-05	1e-05	5
48305	-5e-05	-4e-05	-7e-05	3e-05	-4e-05	2e-05	1e-05	1e-05	5
48306	-5e-05	-4e-05	-7e-05	3e-05	-4e-05	2e-05	1e-05	1e-05	5
48307	-5e-05	-4e-05	-7e-05	3e-05	-4e-05	2e-05	1e-05	1e-05	5
48308	-5e-05	-4e-05	-7e-05	3e-05	-4e-05	2e-05	1e-05	1e-05	5
48309	-5e-05	-4e-05	-7e-05	3e-05	-4e-05	2e-05	1e-05	1e-05	5
48310	-5e-05	-4e-05	-7e-05	3e-05	-4e-05	2e-05	1e-05	1e-05	5
48311	-5e-05	-4e-05	-7e-05	3e-05	-4e-05	2e-05	1e-05	1e-05	5
48312	-5e-05	-4e-05	-7e-05	3e-05	-4e-05	2e-05	1e-05	1e-05	5
48313	-5e-05	-4e-05	-7e-05	3e-05	-4e-05	2e-05	1e-05	1e-05	5
48314	-5e-05	-4e-05	-7e-05	3e-05	-4e-05	2e-05	1e-05	1e-05	5
48315	-5e-05	-4e-05	-7e-05	3e-05	-4e-05	2e-05	1e-05	1e-05	5
48316	-5e-05	-4e-05	-7e-05	3e-05	-4e-05	2e-05	1e-05	1e-05	5
48317	-5e-05	-4e-05	-7e-05	3e-05	-4e-05	2e-05	1e-05	1e-05	5
48318	-5e-05	-4e-05	-7e-05	3e-05	-4e-05	2e-05	1e-05	1e-05	5
48319	-5e-05	-4e-05	-7e-05	3e-05	-4e-05	2e-05	1e-05	1e-05	5
48320	7e-05	-1e-05	-0.00017	-0.00058	6e-05	-3e-05	-0.00011	-7e-05	5
48321	-0.00025	-5e-05	2e-05	-0.00027	5e-05	1e-05	4e-05	-5e-05	5
48322	-0.00025	-5e-05	2e-05	-0.00027	5e-05	1e-05	4e-05	-5e-05	5
48323	-0.00025	-5e-05	2e-05	-0.00027	5e-05	1e-05	4e-05	-5e-05	5
48324	-0.00025	-5e-05	2e-05	-0.00027	5e-05	1e-05	4e-05	-5e-05	5
48325	-0.00025	-5e-05	2e-05	-0.00027	5e-05	1e-05	4e-05	-5e-05	5
48326	-0.00025	-5e-05	2e-05	-0.00027	5e-05	1e-05	4e-05	-5e-05	5
48327	-0.00025	-5e-05	2e-05	-0.00027	5e-05	1e-05	4e-05	-5e-05	5
48328	-0.00025	-5e-05	2e-05	-0.00027	5e-05	1e-05	4e-05	-5e-05	5
48329	-0.00025	-5e-05	2e-05	-0.00027	5e-05	1e-05	4e-05	-5e-05	5
48330	-0.00025	-5e-05	2e-05	-0.00027	5e-05	1e-05	4e-05	-5e-05	5
48331	-0.00025	-5e-05	2e-05	-0.00027	5e-05	1e-05	4e-05	-5e-05	5
48332	-0.00025	-5e-05	2e-05	-0.00027	5e-05	1e-05	4e-05	-5e-05	5
48333	-0.00025	-5e-05	2e-05	-0.00027	5e-05	1e-05	4e-05	-5e-05	5
48334	-0.00025	-5e-05	2e-05	-0.00027	5e-05	1e-05	4e-05	-5e-05	5
48335	-0.00025	-5e-05	2e-05	-0.00027	5e-05	1e-05	4e-05	-5e-05	5
48336	-0.00025	-5e-05	2e-05	-0.00027	5e-05	1e-05	4e-05	-5e-05	5
48338	-0.00025	-5e-05	2e-05	-0.00027	5e-05	1e-05	4e-05	-5e-05	5
48339	-0.00025	-5e-05	2e-05	-0.00027	5e-05	1e-05	4e-05	-5e-05	5
48340	-0.00025	-5e-05	2e-05	-0.00027	5e-05	1e-05	4e-05	-5e-05	5
48341	-0.00025	-5e-05	2e-05	-0.00027	5e-05	1e-05	4e-05	-5e-05	5
48342	-9e-05	-1e-05	0	0.00029	-2e-05	-0.00016	-0.00015	-0.0001	5
48343	-9e-05	-1e-05	0	0.00029	-2e-05	-0.00016	-0.00015	-0.0001	5
48344	9e-05	5e-05	0.0002	0.00044	-7e-05	0.00033	0.00014	4e-05	5
48345	9e-05	5e-05	0.0002	0.00044	-7e-05	0.00033	0.00014	4e-05	5
48346	9e-05	5e-05	0.0002	0.00044	-7e-05	0.00033	0.00014	4e-05	5
48347	9e-05	5e-05	0.0002	0.00044	-7e-05	0.00033	0.00014	4e-05	5
48348	9e-05	5e-05	0.0002	0.00044	-7e-05	0.00033	0.00014	4e-05	5
48349	9e-05	5e-05	0.0002	0.00044	-7e-05	0.00033	0.00014	4e-05	5
48350	9e-05	5e-05	0.0002	0.00044	-7e-05	0.00033	0.00014	4e-05	5
48351	9e-05	5e-05	0.0002	0.00044	-7e-05	0.00033	0.00014	4e-05	5
48352	9e-05	5e-05	0.0002	0.00044	-7e-05	0.00033	0.00014	4e-05	5
48353	9e-05	5e-05	0.0002	0.00044	-7e-05	0.00033	0.00014	4e-05	5
48354	9e-05	5e-05	0.0002	0.00044	-7e-05	0.00033	0.00014	4e-05	5
48355	9e-05	5e-05	0.0002	0.00044	-7e-05	0.00033	0.00014	4e-05	5
48356	9e-05	5e-05	0.0002	0.00044	-7e-05	0.00033	0.00014	4e-05	5
48357	6e-05	-0.00029	0	-0.00011	-2e-05	0.00014	0.0001	0.0001	5
48358	6e-05	-0.00029	0	-0.00011	-2e-05	0.00014	0.0001	0.0001	5
48359	6e-05	-0.00029	0	-0.00011	-2e-05	0.00014	0.0001	0.0001	5
48360	6e-05	-0.00029	0	-0.00011	-2e-05	0.00014	0.0001	0.0001	5
48361	6e-05	-0.00029	0	-0.00011	-2e-05	0.00014	0.0001	0.0001	5
48362	6e-05	-0.00029	0	-0.00011	-2e-05	0.00014	0.0001	0.0001	5
48363	-0.00074	4e-05	6e-05	-0.00024	3e-05	0.00023	2e-05	0	5
48364	-0.00074	4e-05	6e-05	-0.00024	3e-05	0.00023	2e-05	0	5
48365	-0.00074	4e-05	6e-05	-0.00024	3e-05	0.00023	2e-05	0	5
48366	-0.00074	4e-05	6e-05	-0.00024	3e-05	0.00023	2e-05	0	5
48367	-0.00074	4e-05	6e-05	-0.00024	3e-05	0.00023	2e-05	0	5
48368	-0.00074	4e-05	6e-05	-0.00024	3e-05	0.00023	2e-05	0	5
48369	-0.00074	4e-05	6e-05	-0.00024	3e-05	0.00023	2e-05	0	5
48370	-0.00074	4e-05	6e-05	-0.00024	3e-05	0.00023	2e-05	0	5
48371	-0.00074	4e-05	6e-05	-0.00024	3e-05	0.00023	2e-05	0	5
48372	-0.00074	4e-05	6e-05	-0.00024	3e-05	0.00023	2e-05	0	5
48373	-0.00074	4e-05	6e-05	-0.00024	3e-05	0.00023	2e-05	0	5
48374	-0.00074	4e-05	6e-05	-0.00024	3e-05	0.00023	2e-05	0	5
48375	-0.00074	4e-05	6e-05	-0.00024	3e-05	0.00023	2e-05	0	5
48376	-0.00074	4e-05	6e-05	-0.00024	3e-05	0.00023	2e-05	0	5
48377	-0.00074	4e-05	6e-05	-0.00024	3e-05	0.00023	2e-05	0	5
48378	-0.00074	4e-05	6e-05	-0.00024	3e-05	0.00023	2e-05	0	5
48379	-0.00074	4e-05	6e-05	-0.00024	3e-05	0.00023	2e-05	0	5
48380	-0.00012	-0.00013	-6e-05	0.00046	-3e-05	0.00013	-7e-05	-0.00011	5
48381	0.00019	-1e-05	-3e-05	-0.00025	-1e-05	-0.0001	-4e-05	0	5
48382	0.00019	-1e-05	-3e-05	-0.00025	-1e-05	-0.0001	-4e-05	0	5
48383	0.00019	-1e-05	-3e-05	-0.00025	-1e-05	-0.0001	-4e-05	0	5
48384	0.00019	-1e-05	-3e-05	-0.00025	-1e-05	-0.0001	-4e-05	0	5
48385	0.00019	-1e-05	-3e-05	-0.00025	-1e-05	-0.0001	-4e-05	0	5
48386	0.00019	-1e-05	-3e-05	-0.00025	-1e-05	-0.0001	-4e-05	0	5
48388	0.00019	-1e-05	-3e-05	-0.00025	-1e-05	-0.0001	-4e-05	0	5
48389	0.00019	-1e-05	-3e-05	-0.00025	-1e-05	-0.0001	-4e-05	0	5
48390	0.00019	-1e-05	-3e-05	-0.00025	-1e-05	-0.0001	-4e-05	0	5
48391	0.00019	-1e-05	-3e-05	-0.00025	-1e-05	-0.0001	-4e-05	0	5
48392	0.00019	-1e-05	-3e-05	-0.00025	-1e-05	-0.0001	-4e-05	0	5
48393	0.00019	-1e-05	-3e-05	-0.00025	-1e-05	-0.0001	-4e-05	0	5
48394	0.00019	-1e-05	-3e-05	-0.00025	-1e-05	-0.0001	-4e-05	0	5
48395	0.00019	-1e-05	-3e-05	-0.00025	-1e-05	-0.0001	-4e-05	0	5
48396	0.00019	-1e-05	-3e-05	-0.00025	-1e-05	-0.0001	-4e-05	0	5
48397	0.00019	-1e-05	-3e-05	-0.00025	-1e-05	-0.0001	-4e-05	0	5
48398	0.00019	-1e-05	-3e-05	-0.00025	-1e-05	-0.0001	-4e-05	0	5
48399	0.00019	-1e-05	-3e-05	-0.00025	-1e-05	-0.0001	-4e-05	0	5
48400	0.00019	-1e-05	-3e-05	-0.00025	-1e-05	-0.0001	-4e-05	0	5
48401	0.00019	-1e-05	-3e-05	-0.00025	-1e-05	-0.0001	-4e-05	0	5
48402	-0.00039	-6e-05	8e-05	0.00022	-5e-05	0.00023	0.00019	0.0001	5
48403	-0.00039	-6e-05	8e-05	0.00022	-5e-05	0.00023	0.00019	0.0001	5
48404	0.00027	-5e-05	-6e-05	0.00018	0	-0.00034	-5e-05	-1e-05	5
48405	0.00027	-5e-05	-6e-05	0.00018	0	-0.00034	-5e-05	-1e-05	5
48406	0.00027	-5e-05	-6e-05	0.00018	0	-0.00034	-5e-05	-1e-05	5
48407	0.00027	-5e-05	-6e-05	0.00018	0	-0.00034	-5e-05	-1e-05	5
48408	0.00027	-5e-05	-6e-05	0.00018	0	-0.00034	-5e-05	-1e-05	5
48409	0.00027	-5e-05	-6e-05	0.00018	0	-0.00034	-5e-05	-1e-05	5
48410	0.00027	-5e-05	-6e-05	0.00018	0	-0.00034	-5e-05	-1e-05	5
48411	0.00027	-5e-05	-6e-05	0.00018	0	-0.00034	-5e-05	-1e-05	5
48412	0.00027	-5e-05	-6e-05	0.00018	0	-0.00034	-5e-05	-1e-05	5
48413	0.00027	-5e-05	-6e-05	0.00018	0	-0.00034	-5e-05	-1e-05	5
48414	0.00027	-5e-05	-6e-05	0.00018	0	-0.00034	-5e-05	-1e-05	5
48415	0.00027	-5e-05	-6e-05	0.00018	0	-0.00034	-5e-05	-1e-05	5
48416	0.00027	-5e-05	-6e-05	0.00018	0	-0.00034	-5e-05	-1e-05	5
48417	0.0002	8e-05	2e-05	-0.0004	3e-05	0	-3e-05	2e-05	5
48418	0.0002	8e-05	2e-05	-0.0004	3e-05	0	-3e-05	2e-05	5
48419	0.0002	8e-05	2e-05	-0.0004	3e-05	0	-3e-05	2e-05	5
48420	0.0002	8e-05	2e-05	-0.0004	3e-05	0	-3e-05	2e-05	5
48421	0.0002	8e-05	2e-05	-0.0004	3e-05	0	-3e-05	2e-05	5
48422	0.0002	8e-05	2e-05	-0.0004	3e-05	0	-3e-05	2e-05	5
48423	-4e-05	-4e-05	-0.00027	-0.0003	5e-05	-0.00012	-8e-05	-6e-05	5
48424	-0.00015	-0.00019	-1e-05	-0.00015	1e-05	0.00034	3e-05	-3e-05	5
48425	-0.00015	-0.00019	-1e-05	-0.00015	1e-05	0.00034	3e-05	-3e-05	5
48426	-0.00015	-0.00019	-1e-05	-0.00015	1e-05	0.00034	3e-05	-3e-05	5
48427	-0.00015	-0.00019	-1e-05	-0.00015	1e-05	0.00034	3e-05	-3e-05	5
48428	-0.00015	-0.00019	-1e-05	-0.00015	1e-05	0.00034	3e-05	-3e-05	5
48429	-0.00015	-0.00019	-1e-05	-0.00015	1e-05	0.00034	3e-05	-3e-05	5
48430	-0.00015	-0.00019	-1e-05	-0.00015	1e-05	0.00034	3e-05	-3e-05	5
48431	-0.00015	-0.00019	-1e-05	-0.00015	1e-05	0.00034	3e-05	-3e-05	5
48432	-0.00015	-0.00019	-1e-05	-0.00015	1e-05	0.00034	3e-05	-3e-05	5
48433	-0.00015	-0.00019	-1e-05	-0.00015	1e-05	0.00034	3e-05	-3e-05	5
48434	-0.00015	-0.00019	-1e-05	-0.00015	1e-05	0.00034	3e-05	-3e-05	5
48435	-0.00015	-0.00019	-1e-05	-0.00015	1e-05	0.00034	3e-05	-3e-05	5
48436	-0.00015	-0.00019	-1e-05	-0.00015	1e-05	0.00034	3e-05	-3e-05	5
48438	-0.00015	-0.00019	-1e-05	-0.00015	1e-05	0.00034	3e-05	-3e-05	5
48439	-0.00015	-0.00019	-1e-05	-0.00015	1e-05	0.00034	3e-05	-3e-05	5
48440	-0.00025	5e-05	-2e-05	-0.00033	-1e-05	-0.0001	-3e-05	-2e-05	5
48441	-4e-05	9e-05	-7e-05	-0.00035	4e-05	-0.00021	-2e-05	-3e-05	5
48442	-4e-05	9e-05	-7e-05	-0.00035	4e-05	-0.00021	-2e-05	-3e-05	5
48443	-4e-05	9e-05	-7e-05	-0.00035	4e-05	-0.00021	-2e-05	-3e-05	5
48444	-4e-05	9e-05	-7e-05	-0.00035	4e-05	-0.00021	-2e-05	-3e-05	5
48445	-4e-05	9e-05	-7e-05	-0.00035	4e-05	-0.00021	-2e-05	-3e-05	5
48446	-4e-05	9e-05	-7e-05	-0.00035	4e-05	-0.00021	-2e-05	-3e-05	5
48447	-4e-05	9e-05	-7e-05	-0.00035	4e-05	-0.00021	-2e-05	-3e-05	5
48448	-4e-05	9e-05	-7e-05	-0.00035	4e-05	-0.00021	-2e-05	-3e-05	5
48449	-4e-05	9e-05	-7e-05	-0.00035	4e-05	-0.00021	-2e-05	-3e-05	5
48450	-4e-05	9e-05	-7e-05	-0.00035	4e-05	-0.00021	-2e-05	-3e-05	5
48451	-4e-05	9e-05	-7e-05	-0.00035	4e-05	-0.00021	-2e-05	-3e-05	5
48452	-4e-05	9e-05	-7e-05	-0.00035	4e-05	-0.00021	-2e-05	-3e-05	5
48453	-4e-05	9e-05	-7e-05	-0.00035	4e-05	-0.00021	-2e-05	-3e-05	5
48454	-4e-05	9e-05	-7e-05	-0.00035	4e-05	-0.00021	-2e-05	-3e-05	5
48455	-4e-05	9e-05	-7e-05	-0.00035	4e-05	-0.00021	-2e-05	-3e-05	5
48456	-4e-05	9e-05	-7e-05	-0.00035	4e-05	-0.00021	-2e-05	-3e-05	5
48457	-4e-05	9e-05	-7e-05	-0.00035	4e-05	-0.00021	-2e-05	-3e-05	5
48458	-4e-05	9e-05	-7e-05	-0.00035	4e-05	-0.00021	-2e-05	-3e-05	5
48459	-4e-05	9e-05	-7e-05	-0.00035	4e-05	-0.00021	-2e-05	-3e-05	5
48460	-4e-05	9e-05	-7e-05	-0.00035	4e-05	-0.00021	-2e-05	-3e-05	5
48461	-4e-05	9e-05	-7e-05	-0.00035	4e-05	-0.00021	-2e-05	-3e-05	5
48462	-0.00026	-3e-05	-2e-05	-0.00018	3e-05	-0.00011	-6e-05	-4e-05	5
48463	-0.00026	-3e-05	-2e-05	-0.00018	3e-05	-0.00011	-6e-05	-4e-05	5
48464	3e-05	-9e-05	-2e-05	0	2e-05	5e-05	-2e-05	1e-05	5
48465	3e-05	-9e-05	-2e-05	0	2e-05	5e-05	-2e-05	1e-05	5
48466	3e-05	-9e-05	-2e-05	0	2e-05	5e-05	-2e-05	1e-05	5
48467	3e-05	-9e-05	-2e-05	0	2e-05	5e-05	-2e-05	1e-05	5
48468	3e-05	-9e-05	-2e-05	0	2e-05	5e-05	-2e-05	1e-05	5
48469	3e-05	-9e-05	-2e-05	0	2e-05	5e-05	-2e-05	1e-05	5
48470	3e-05	-9e-05	-2e-05	0	2e-05	5e-05	-2e-05	1e-05	5
48471	3e-05	-9e-05	-2e-05	0	2e-05	5e-05	-2e-05	1e-05	5
48472	3e-05	-9e-05	-2e-05	0	2e-05	5e-05	-2e-05	1e-05	5
48473	3e-05	-9e-05	-2e-05	0	2e-05	5e-05	-2e-05	1e-05	5
48474	3e-05	-9e-05	-2e-05	0	2e-05	5e-05	-2e-05	1e-05	5
48475	3e-05	-9e-05	-2e-05	0	2e-05	5e-05	-2e-05	1e-05	5
48476	3e-05	-9e-05	-2e-05	0	2e-05	5e-05	-2e-05	1e-05	5
48477	0.00015	4e-05	3e-05	-8e-05	-0.00011	-0.0001	-2e-05	2e-05	5
48478	0.00015	4e-05	3e-05	-8e-05	-0.00011	-0.0001	-2e-05	2e-05	5
48479	0.00015	4e-05	3e-05	-8e-05	-0.00011	-0.0001	-2e-05	2e-05	5
48480	0.00015	4e-05	3e-05	-8e-05	-0.00011	-0.0001	-2e-05	2e-05	5
48481	0.00015	4e-05	3e-05	-8e-05	-0.00011	-0.0001	-2e-05	2e-05	5
48482	0.00015	4e-05	3e-05	-8e-05	-0.00011	-0.0001	-2e-05	2e-05	5
48483	-0.00012	7e-05	5e-05	6e-05	2e-05	-2e-05	2e-05	-1e-05	5
48484	-0.00012	7e-05	5e-05	6e-05	2e-05	-2e-05	2e-05	-1e-05	5
48486	-0.00012	7e-05	5e-05	6e-05	2e-05	-2e-05	2e-05	-1e-05	5
48487	-0.00012	7e-05	5e-05	6e-05	2e-05	-2e-05	2e-05	-1e-05	5
48488	-0.00012	7e-05	5e-05	6e-05	2e-05	-2e-05	2e-05	-1e-05	5
48489	-0.00012	7e-05	5e-05	6e-05	2e-05	-2e-05	2e-05	-1e-05	5
48490	-0.00012	7e-05	5e-05	6e-05	2e-05	-2e-05	2e-05	-1e-05	5
48491	-0.00012	7e-05	5e-05	6e-05	2e-05	-2e-05	2e-05	-1e-05	5
48492	-0.00012	7e-05	5e-05	6e-05	2e-05	-2e-05	2e-05	-1e-05	5
48493	-0.00012	7e-05	5e-05	6e-05	2e-05	-2e-05	2e-05	-1e-05	5
48494	-0.00012	7e-05	5e-05	6e-05	2e-05	-2e-05	2e-05	-1e-05	5
48495	-0.00012	7e-05	5e-05	6e-05	2e-05	-2e-05	2e-05	-1e-05	5
48496	-0.00012	7e-05	5e-05	6e-05	2e-05	-2e-05	2e-05	-1e-05	5
48497	-0.00012	7e-05	5e-05	6e-05	2e-05	-2e-05	2e-05	-1e-05	5
48498	-0.00012	7e-05	5e-05	6e-05	2e-05	-2e-05	2e-05	-1e-05	5
48499	-0.00012	7e-05	5e-05	6e-05	2e-05	-2e-05	2e-05	-1e-05	5
48500	0.0001	-0.00017	-0.00012	0.00019	-4e-05	-9e-05	-2e-05	1e-05	5
48501	9e-05	2e-05	4e-05	-0.0001	1e-05	-5e-05	-0.0001	-1e-05	5
48502	9e-05	2e-05	4e-05	-0.0001	1e-05	-5e-05	-0.0001	-1e-05	5
48503	9e-05	2e-05	4e-05	-0.0001	1e-05	-5e-05	-0.0001	-1e-05	5
48504	9e-05	2e-05	4e-05	-0.0001	1e-05	-5e-05	-0.0001	-1e-05	5
48505	9e-05	2e-05	4e-05	-0.0001	1e-05	-5e-05	-0.0001	-1e-05	5
48506	9e-05	2e-05	4e-05	-0.0001	1e-05	-5e-05	-0.0001	-1e-05	5
48507	9e-05	2e-05	4e-05	-0.0001	1e-05	-5e-05	-0.0001	-1e-05	5
48508	9e-05	2e-05	4e-05	-0.0001	1e-05	-5e-05	-0.0001	-1e-05	5
48509	9e-05	2e-05	4e-05	-0.0001	1e-05	-5e-05	-0.0001	-1e-05	5
48510	9e-05	2e-05	4e-05	-0.0001	1e-05	-5e-05	-0.0001	-1e-05	5
48511	9e-05	2e-05	4e-05	-0.0001	1e-05	-5e-05	-0.0001	-1e-05	5
48512	9e-05	2e-05	4e-05	-0.0001	1e-05	-5e-05	-0.0001	-1e-05	5
48513	9e-05	2e-05	4e-05	-0.0001	1e-05	-5e-05	-0.0001	-1e-05	5
48514	9e-05	2e-05	4e-05	-0.0001	1e-05	-5e-05	-0.0001	-1e-05	5
48515	9e-05	2e-05	4e-05	-0.0001	1e-05	-5e-05	-0.0001	-1e-05	5
48516	9e-05	2e-05	4e-05	-0.0001	1e-05	-5e-05	-0.0001	-1e-05	5
48517	9e-05	2e-05	4e-05	-0.0001	1e-05	-5e-05	-0.0001	-1e-05	5
48518	9e-05	2e-05	4e-05	-0.0001	1e-05	-5e-05	-0.0001	-1e-05	5
48519	9e-05	2e-05	4e-05	-0.0001	1e-05	-5e-05	-0.0001	-1e-05	5
48520	9e-05	2e-05	4e-05	-0.0001	1e-05	-5e-05	-0.0001	-1e-05	5
48521	9e-05	2e-05	4e-05	-0.0001	1e-05	-5e-05	-0.0001	-1e-05	5
48522	3e-05	0.00014	7e-05	-0.00021	-1e-05	9e-05	-8e-05	-8e-05	5
48523	3e-05	0.00014	7e-05	-0.00021	-1e-05	9e-05	-8e-05	-8e-05	5
48524	6e-05	0.00017	-7e-05	-0.00024	0.0001	-0.00029	-0.00013	-1e-05	5
48525	6e-05	0.00017	-7e-05	-0.00024	0.0001	-0.00029	-0.00013	-1e-05	5
48526	6e-05	0.00017	-7e-05	-0.00024	0.0001	-0.00029	-0.00013	-1e-05	5
48527	6e-05	0.00017	-7e-05	-0.00024	0.0001	-0.00029	-0.00013	-1e-05	5
48528	6e-05	0.00017	-7e-05	-0.00024	0.0001	-0.00029	-0.00013	-1e-05	5
48529	6e-05	0.00017	-7e-05	-0.00024	0.0001	-0.00029	-0.00013	-1e-05	5
48530	6e-05	0.00017	-7e-05	-0.00024	0.0001	-0.00029	-0.00013	-1e-05	5
48531	6e-05	0.00017	-7e-05	-0.00024	0.0001	-0.00029	-0.00013	-1e-05	5
48532	6e-05	0.00017	-7e-05	-0.00024	0.0001	-0.00029	-0.00013	-1e-05	5
48533	6e-05	0.00017	-7e-05	-0.00024	0.0001	-0.00029	-0.00013	-1e-05	5
48534	6e-05	0.00017	-7e-05	-0.00024	0.0001	-0.00029	-0.00013	-1e-05	5
48535	6e-05	0.00017	-7e-05	-0.00024	0.0001	-0.00029	-0.00013	-1e-05	5
48536	6e-05	0.00017	-7e-05	-0.00024	0.0001	-0.00029	-0.00013	-1e-05	5
48538	-0.00016	-0.00016	-0.0002	-0.00034	0.0001	-0.00021	-5e-05	-4e-05	5
48539	-0.00016	-0.00016	-0.0002	-0.00034	0.0001	-0.00021	-5e-05	-4e-05	5
48540	-0.00016	-0.00016	-0.0002	-0.00034	0.0001	-0.00021	-5e-05	-4e-05	5
48541	-0.00016	-0.00016	-0.0002	-0.00034	0.0001	-0.00021	-5e-05	-4e-05	5
