5446	0.00016	0.00056	0.00016	0.00024	-0.00028	-0.00016	0.00054	0.00025	2
5447	0.00016	0.00056	0.00016	0.00024	-0.00028	-0.00016	0.00054	0.00025	2
5448	0.00016	0.00056	0.00016	0.00024	-0.00028	-0.00016	0.00054	0.00025	2
5449	0.00016	0.00056	0.00016	0.00024	-0.00028	-0.00016	0.00054	0.00025	2
5450	0.00016	0.00056	0.00016	0.00024	-0.00028	-0.00016	0.00054	0.00025	2
5451	0.00016	0.00056	0.00016	0.00024	-0.00028	-0.00016	0.00054	0.00025	2
5452	0.00016	0.00056	0.00016	0.00024	-0.00028	-0.00016	0.00054	0.00025	2
5453	0.00016	0.00056	0.00016	0.00024	-0.00028	-0.00016	0.00054	0.00025	2
5454	0.00016	0.00056	0.00016	0.00024	-0.00028	-0.00016	0.00054	0.00025	2
5455	0.00016	0.00056	0.00016	0.00024	-0.00028	-0.00016	0.00054	0.00025	2
5456	0.00016	0.00056	0.00016	0.00024	-0.00028	-0.00016	0.00054	0.00025	2
5457	0.00016	0.00056	0.00016	0.00024	-0.00028	-0.00016	0.00054	0.00025	2
5458	0.00016	0.00056	0.00016	0.00024	-0.00028	-0.00016	0.00054	0.00025	2
5459	0.00016	0.00056	0.00016	0.00024	-0.00028	-0.00016	0.00054	0.00025	2
5460	0.00016	0.00056	0.00016	0.00024	-0.00028	-0.00016	0.00054	0.00025	2
5461	0.00016	0.00056	0.00016	0.00024	-0.00028	-0.00016	0.00054	0.00025	2
5462	0.00043	-3e-05	0.00016	-1e-05	-0.00016	0.00053	0.00078	0.0003	2
5463	-0.0004	3e-05	0.00033	0.00045	-2e-05	0.00031	0.00019	0.00032	2
5464	-0.0004	3e-05	0.00033	0.00045	-2e-05	0.00031	0.00019	0.00032	2
5465	-0.0004	3e-05	0.00033	0.00045	-2e-05	0.00031	0.00019	0.00032	2
5466	-0.0004	3e-05	0.00033	0.00045	-2e-05	0.00031	0.00019	0.00032	2
5467	-0.0004	3e-05	0.00033	0.00045	-2e-05	0.00031	0.00019	0.00032	2
5468	-0.0004	3e-05	0.00033	0.00045	-2e-05	0.00031	0.00019	0.00032	2
5469	-0.0004	3e-05	0.00033	0.00045	-2e-05	0.00031	0.00019	0.00032	2
5470	-0.0004	3e-05	0.00033	0.00045	-2e-05	0.00031	0.00019	0.00032	2
5471	-0.0004	3e-05	0.00033	0.00045	-2e-05	0.00031	0.00019	0.00032	2
5472	-0.0004	3e-05	0.00033	0.00045	-2e-05	0.00031	0.00019	0.00032	2
5473	-0.0004	3e-05	0.00033	0.00045	-2e-05	0.00031	0.00019	0.00032	2
5474	-0.0004	3e-05	0.00033	0.00045	-2e-05	0.00031	0.00019	0.00032	2
5475	0.00024	0.00011	6e-05	-0.00025	-0.0002	0.0001	0.00014	-0.00012	2
5476	0.00044	-4e-05	0.00026	0.0005	0.00019	-7e-05	0.00012	0.0003	2
5477	0.00044	-4e-05	0.00026	0.0005	0.00019	-7e-05	0.00012	0.0003	2
5478	0.00044	-4e-05	0.00026	0.0005	0.00019	-7e-05	0.00012	0.0003	2
5479	0.00044	-4e-05	0.00026	0.0005	0.00019	-7e-05	0.00012	0.0003	2
5481	0.00044	-4e-05	0.00026	0.0005	0.00019	-7e-05	0.00012	0.0003	2
5482	0.00044	-4e-05	0.00026	0.0005	0.00019	-7e-05	0.00012	0.0003	2
5483	0.00044	-4e-05	0.00026	0.0005	0.00019	-7e-05	0.00012	0.0003	2
5484	0.00044	-4e-05	0.00026	0.0005	0.00019	-7e-05	0.00012	0.0003	2
5485	4e-05	4e-05	-0.00011	-0.00017	9e-05	-0.00015	-4e-05	-9e-05	2
5486	4e-05	4e-05	-0.00011	-0.00017	9e-05	-0.00015	-4e-05	-9e-05	2
5489	4e-05	4e-05	-0.00011	-0.00017	9e-05	-0.00015	-4e-05	-9e-05	2
5490	4e-05	4e-05	-0.00011	-0.00017	9e-05	-0.00015	-4e-05	-9e-05	2
5491	4e-05	4e-05	-0.00011	-0.00017	9e-05	-0.00015	-4e-05	-9e-05	2
5492	4e-05	4e-05	-0.00011	-0.00017	9e-05	-0.00015	-4e-05	-9e-05	2
5493	4e-05	4e-05	-0.00011	-0.00017	9e-05	-0.00015	-4e-05	-9e-05	2
5494	4e-05	4e-05	-0.00011	-0.00017	9e-05	-0.00015	-4e-05	-9e-05	2
5495	4e-05	4e-05	-0.00011	-0.00017	9e-05	-0.00015	-4e-05	-9e-05	2
5496	4e-05	4e-05	-0.00011	-0.00017	9e-05	-0.00015	-4e-05	-9e-05	2
5497	4e-05	4e-05	-0.00011	-0.00017	9e-05	-0.00015	-4e-05	-9e-05	2
5498	4e-05	4e-05	-0.00011	-0.00017	9e-05	-0.00015	-4e-05	-9e-05	2
5499	-0.00043	0.0002	6e-05	-3e-05	0.0002	0.0002	0.00058	3e-05	2
5500	-0.00043	0.0002	6e-05	-3e-05	0.0002	0.0002	0.00058	3e-05	2
5501	-0.00021	-8e-05	-0.00036	-0.00036	-7e-05	0.0001	-3e-05	-7e-05	2
5502	-0.00021	-8e-05	-0.00036	-0.00036	-7e-05	0.0001	-3e-05	-7e-05	2
5503	-0.00021	-8e-05	-0.00036	-0.00036	-7e-05	0.0001	-3e-05	-7e-05	2
5504	-0.00021	-8e-05	-0.00036	-0.00036	-7e-05	0.0001	-3e-05	-7e-05	2
5505	-0.00021	-8e-05	-0.00036	-0.00036	-7e-05	0.0001	-3e-05	-7e-05	2
5506	-0.00021	-8e-05	-0.00036	-0.00036	-7e-05	0.0001	-3e-05	-7e-05	2
5507	-0.00021	-8e-05	-0.00036	-0.00036	-7e-05	0.0001	-3e-05	-7e-05	2
5508	-0.00021	-8e-05	-0.00036	-0.00036	-7e-05	0.0001	-3e-05	-7e-05	2
5509	-0.00021	-8e-05	-0.00036	-0.00036	-7e-05	0.0001	-3e-05	-7e-05	2
5510	-0.00021	-8e-05	-0.00036	-0.00036	-7e-05	0.0001	-3e-05	-7e-05	2
5511	-0.00021	-8e-05	-0.00036	-0.00036	-7e-05	0.0001	-3e-05	-7e-05	2
5512	-0.00021	-8e-05	-0.00036	-0.00036	-7e-05	0.0001	-3e-05	-7e-05	2
5513	-0.00021	-8e-05	-0.00036	-0.00036	-7e-05	0.0001	-3e-05	-7e-05	2
5514	-0.00021	-8e-05	-0.00036	-0.00036	-7e-05	0.0001	-3e-05	-7e-05	2
5515	-0.00021	-8e-05	-0.00036	-0.00036	-7e-05	0.0001	-3e-05	-7e-05	2
5516	-0.00021	-8e-05	-0.00036	-0.00036	-7e-05	0.0001	-3e-05	-7e-05	2
5517	-0.00021	-8e-05	-0.00036	-0.00036	-7e-05	0.0001	-3e-05	-7e-05	2
5518	-0.00021	-8e-05	-0.00036	-0.00036	-7e-05	0.0001	-3e-05	-7e-05	2
5519	-0.00021	-8e-05	-0.00036	-0.00036	-7e-05	0.0001	-3e-05	-7e-05	2
5520	-0.00021	-8e-05	-0.00036	-0.00036	-7e-05	0.0001	-3e-05	-7e-05	2
5521	-0.00021	-8e-05	-0.00036	-0.00036	-7e-05	0.0001	-3e-05	-7e-05	2
5522	-0.00021	-8e-05	-0.00036	-0.00036	-7e-05	0.0001	-3e-05	-7e-05	2
5523	9e-05	0.00011	0.00021	0.00025	-0.00028	-0.00011	-0.00043	-1e-05	2
5524	0.0001	-0.00044	6e-05	-5e-05	-4e-05	-0.00018	-0.00084	-0.00021	2
5525	0.0001	-0.00044	6e-05	-5e-05	-4e-05	-0.00018	-0.00084	-0.00021	2
5526	0.0001	-0.00044	6e-05	-5e-05	-4e-05	-0.00018	-0.00084	-0.00021	2
5527	0.0001	-0.00044	6e-05	-5e-05	-4e-05	-0.00018	-0.00084	-0.00021	2
5528	0.0001	-0.00044	6e-05	-5e-05	-4e-05	-0.00018	-0.00084	-0.00021	2
5529	0.0001	-0.00044	6e-05	-5e-05	-4e-05	-0.00018	-0.00084	-0.00021	2
5530	0.0001	-0.00044	6e-05	-5e-05	-4e-05	-0.00018	-0.00084	-0.00021	2
5531	0.0001	-0.00044	6e-05	-5e-05	-4e-05	-0.00018	-0.00084	-0.00021	2
5532	0.0001	-0.00044	6e-05	-5e-05	-4e-05	-0.00018	-0.00084	-0.00021	2
5533	0.0001	-0.00044	6e-05	-5e-05	-4e-05	-0.00018	-0.00084	-0.00021	2
5534	0.0001	-0.00044	6e-05	-5e-05	-4e-05	-0.00018	-0.00084	-0.00021	2
5535	0.00059	0.00023	5e-05	0.00029	-1e-05	0.00023	-0.0007	0.0004	2
5536	0.00059	0.00023	5e-05	0.00029	-1e-05	0.00023	-0.0007	0.0004	2
5539	0.00059	0.00023	5e-05	0.00029	-1e-05	0.00023	-0.0007	0.0004	2
5540	0.00059	0.00023	5e-05	0.00029	-1e-05	0.00023	-0.0007	0.0004	2
5541	0.00059	0.00023	5e-05	0.00029	-1e-05	0.00023	-0.0007	0.0004	2
5542	0.00059	0.00023	5e-05	0.00029	-1e-05	0.00023	-0.0007	0.0004	2
5543	0.00059	0.00023	5e-05	0.00029	-1e-05	0.00023	-0.0007	0.0004	2
5544	0.00059	0.00023	5e-05	0.00029	-1e-05	0.00023	-0.0007	0.0004	2
5545	0.00059	0.00023	5e-05	0.00029	-1e-05	0.00023	-0.0007	0.0004	2
5546	0.00059	0.00023	5e-05	0.00029	-1e-05	0.00023	-0.0007	0.0004	2
5547	0.00059	0.00023	5e-05	0.00029	-1e-05	0.00023	-0.0007	0.0004	2
5548	0.00059	0.00023	5e-05	0.00029	-1e-05	0.00023	-0.0007	0.0004	2
5549	0.00059	0.00023	5e-05	0.00029	-1e-05	0.00023	-0.0007	0.0004	2
5550	0.00059	0.00023	5e-05	0.00029	-1e-05	0.00023	-0.0007	0.0004	2
5551	0.00059	0.00023	5e-05	0.00029	-1e-05	0.00023	-0.0007	0.0004	2
5552	0.00015	0.00033	0.00033	-4e-05	-3e-05	-0.00018	-0.00069	-0.00015	2
5553	0.00015	0.00033	0.00033	-4e-05	-3e-05	-0.00018	-0.00069	-0.00015	2
5554	0.00015	0.00033	0.00033	-4e-05	-3e-05	-0.00018	-0.00069	-0.00015	2
5555	0.00015	0.00033	0.00033	-4e-05	-3e-05	-0.00018	-0.00069	-0.00015	2
5556	0.00015	0.00033	0.00033	-4e-05	-3e-05	-0.00018	-0.00069	-0.00015	2
5557	0.00015	0.00033	0.00033	-4e-05	-3e-05	-0.00018	-0.00069	-0.00015	2
5558	0.00015	0.00033	0.00033	-4e-05	-3e-05	-0.00018	-0.00069	-0.00015	2
5559	-0.00059	-1e-05	-4e-05	-0.0002	0.00039	0.0004	-0.00021	-0.00018	2
5560	-0.00059	-1e-05	-4e-05	-0.0002	0.00039	0.0004	-0.00021	-0.00018	2
5561	-0.00016	0	5e-05	0.00032	-3e-05	0.00015	7e-05	0.00014	2
5562	-0.00016	0	5e-05	0.00032	-3e-05	0.00015	7e-05	0.00014	2
5563	-0.00016	0	5e-05	0.00032	-3e-05	0.00015	7e-05	0.00014	2
5564	-0.00016	0	5e-05	0.00032	-3e-05	0.00015	7e-05	0.00014	2
5565	-0.00016	0	5e-05	0.00032	-3e-05	0.00015	7e-05	0.00014	2
5566	-0.00016	0	5e-05	0.00032	-3e-05	0.00015	7e-05	0.00014	2
5567	-0.00016	0	5e-05	0.00032	-3e-05	0.00015	7e-05	0.00014	2
5568	-0.00016	0	5e-05	0.00032	-3e-05	0.00015	7e-05	0.00014	2
5569	-0.00016	0	5e-05	0.00032	-3e-05	0.00015	7e-05	0.00014	2
5570	-0.00016	0	5e-05	0.00032	-3e-05	0.00015	7e-05	0.00014	2
5571	-0.00016	0	5e-05	0.00032	-3e-05	0.00015	7e-05	0.00014	2
5572	-0.00016	0	5e-05	0.00032	-3e-05	0.00015	7e-05	0.00014	2
5573	-0.00016	0	5e-05	0.00032	-3e-05	0.00015	7e-05	0.00014	2
5574	-0.00016	0	5e-05	0.00032	-3e-05	0.00015	7e-05	0.00014	2
5575	-0.00016	0	5e-05	0.00032	-3e-05	0.00015	7e-05	0.00014	2
5576	-0.00016	0	5e-05	0.00032	-3e-05	0.00015	7e-05	0.00014	2
5577	-0.00016	0	5e-05	0.00032	-3e-05	0.00015	7e-05	0.00014	2
5578	-0.00016	0	5e-05	0.00032	-3e-05	0.00015	7e-05	0.00014	2
5579	-0.00016	0	5e-05	0.00032	-3e-05	0.00015	7e-05	0.00014	2
5580	-0.00016	0	5e-05	0.00032	-3e-05	0.00015	7e-05	0.00014	2
5581	-0.00016	0	5e-05	0.00032	-3e-05	0.00015	7e-05	0.00014	2
5582	0.00043	9e-05	-0.00013	-0.0002	-0.00022	0.0001	0.00043	0.00035	2
5583	0.0002	0.00027	0.00027	-7e-05	-0.00015	-0.00047	-0.00014	-5e-05	2
5584	0.0002	0.00027	0.00027	-7e-05	-0.00015	-0.00047	-0.00014	-5e-05	2
5585	0.0002	0.00027	0.00027	-7e-05	-0.00015	-0.00047	-0.00014	-5e-05	2
5586	0.0002	0.00027	0.00027	-7e-05	-0.00015	-0.00047	-0.00014	-5e-05	2
5589	0.0002	0.00027	0.00027	-7e-05	-0.00015	-0.00047	-0.00014	-5e-05	2
5590	0.0002	0.00027	0.00027	-7e-05	-0.00015	-0.00047	-0.00014	-5e-05	2
5591	0.0002	0.00027	0.00027	-7e-05	-0.00015	-0.00047	-0.00014	-5e-05	2
5592	0.0002	0.00027	0.00027	-7e-05	-0.00015	-0.00047	-0.00014	-5e-05	2
5593	0.0002	0.00027	0.00027	-7e-05	-0.00015	-0.00047	-0.00014	-5e-05	2
5594	0.0002	0.00027	0.00027	-7e-05	-0.00015	-0.00047	-0.00014	-5e-05	2
5595	1e-05	1e-05	8e-05	0.00023	-0.00016	0.00031	-0.00087	-8e-05	2
5596	-0.00054	-0.00011	-0.0006	-0.00039	-0.00011	-0.0002	0.00073	-5e-05	2
5597	-0.00054	-0.00011	-0.0006	-0.00039	-0.00011	-0.0002	0.00073	-5e-05	2
5598	-0.00054	-0.00011	-0.0006	-0.00039	-0.00011	-0.0002	0.00073	-5e-05	2
5599	-0.00054	-0.00011	-0.0006	-0.00039	-0.00011	-0.0002	0.00073	-5e-05	2
5600	-0.00054	-0.00011	-0.0006	-0.00039	-0.00011	-0.0002	0.00073	-5e-05	2
5601	-0.00054	-0.00011	-0.0006	-0.00039	-0.00011	-0.0002	0.00073	-5e-05	2
5602	-0.00054	-0.00011	-0.0006	-0.00039	-0.00011	-0.0002	0.00073	-5e-05	2
5603	-0.00054	-0.00011	-0.0006	-0.00039	-0.00011	-0.0002	0.00073	-5e-05	2
5604	0.00034	-0.00018	0.00032	0.0004	0.00045	0.00071	-4e-05	0.00018	2
5605	0.00039	4e-05	-8e-05	-1e-05	-9e-05	-4e-05	-0.00017	2e-05	2
5606	0.00039	4e-05	-8e-05	-1e-05	-9e-05	-4e-05	-0.00017	2e-05	2
5607	0.00039	4e-05	-8e-05	-1e-05	-9e-05	-4e-05	-0.00017	2e-05	2
5608	0.00039	4e-05	-8e-05	-1e-05	-9e-05	-4e-05	-0.00017	2e-05	2
5609	0.00039	4e-05	-8e-05	-1e-05	-9e-05	-4e-05	-0.00017	2e-05	2
5610	0.00039	4e-05	-8e-05	-1e-05	-9e-05	-4e-05	-0.00017	2e-05	2
5611	0.00039	4e-05	-8e-05	-1e-05	-9e-05	-4e-05	-0.00017	2e-05	2
5612	0.00039	4e-05	-8e-05	-1e-05	-9e-05	-4e-05	-0.00017	2e-05	2
5613	0.00039	4e-05	-8e-05	-1e-05	-9e-05	-4e-05	-0.00017	2e-05	2
5614	0.00039	4e-05	-8e-05	-1e-05	-9e-05	-4e-05	-0.00017	2e-05	2
5615	0.00039	4e-05	-8e-05	-1e-05	-9e-05	-4e-05	-0.00017	2e-05	2
5616	0.00039	4e-05	-8e-05	-1e-05	-9e-05	-4e-05	-0.00017	2e-05	2
5617	0.00039	4e-05	-8e-05	-1e-05	-9e-05	-4e-05	-0.00017	2e-05	2
5618	0.00039	4e-05	-8e-05	-1e-05	-9e-05	-4e-05	-0.00017	2e-05	2
5619	-9e-05	0	-0.0001	0.00017	-0.00044	-0.00056	-0.00012	-9e-05	2
5620	-9e-05	0	-0.0001	0.00017	-0.00044	-0.00056	-0.00012	-9e-05	2
5621	-0.00026	-0.0002	-0.00015	-0.00029	-8e-05	0.00069	0.00111	-0.00017	2
5622	-0.00026	-0.0002	-0.00015	-0.00029	-8e-05	0.00069	0.00111	-0.00017	2
5623	-0.00026	-0.0002	-0.00015	-0.00029	-8e-05	0.00069	0.00111	-0.00017	2
5624	-0.00026	-0.0002	-0.00015	-0.00029	-8e-05	0.00069	0.00111	-0.00017	2
5625	-0.00026	-0.0002	-0.00015	-0.00029	-8e-05	0.00069	0.00111	-0.00017	2
5626	-0.00026	-0.0002	-0.00015	-0.00029	-8e-05	0.00069	0.00111	-0.00017	2
5627	-0.00026	-0.0002	-0.00015	-0.00029	-8e-05	0.00069	0.00111	-0.00017	2
5628	-0.00026	-0.0002	-0.00015	-0.00029	-8e-05	0.00069	0.00111	-0.00017	2
5629	-0.00026	-0.0002	-0.00015	-0.00029	-8e-05	0.00069	0.00111	-0.00017	2
5630	-0.00026	-0.0002	-0.00015	-0.00029	-8e-05	0.00069	0.00111	-0.00017	2
5631	-0.00026	-0.0002	-0.00015	-0.00029	-8e-05	0.00069	0.00111	-0.00017	2
5632	-0.00026	-0.0002	-0.00015	-0.00029	-8e-05	0.00069	0.00111	-0.00017	2
5633	-0.00026	-0.0002	-0.00015	-0.00029	-8e-05	0.00069	0.00111	-0.00017	2
5634	-0.00026	-0.0002	-0.00015	-0.00029	-8e-05	0.00069	0.00111	-0.00017	2
5635	-0.00026	-0.0002	-0.00015	-0.00029	-8e-05	0.00069	0.00111	-0.00017	2
5636	-0.00026	-0.0002	-0.00015	-0.00029	-8e-05	0.00069	0.00111	-0.00017	2
5639	-0.00026	-0.0002	-0.00015	-0.00029	-8e-05	0.00069	0.00111	-0.00017	2
5640	-0.00026	-0.0002	-0.00015	-0.00029	-8e-05	0.00069	0.00111	-0.00017	2
5641	-0.00026	-0.0002	-0.00015	-0.00029	-8e-05	0.00069	0.00111	-0.00017	2
5642	-0.00035	-0.00025	-4e-05	-9e-05	-0.0001	-0.00036	-0.00027	-0.00034	2
5643	-0.00034	7e-05	0.00013	0.00021	0.00013	-5e-05	-0.00015	-0.0001	2
5644	-0.00034	7e-05	0.00013	0.00021	0.00013	-5e-05	-0.00015	-0.0001	2
5645	-0.00034	7e-05	0.00013	0.00021	0.00013	-5e-05	-0.00015	-0.0001	2
5646	-0.00034	7e-05	0.00013	0.00021	0.00013	-5e-05	-0.00015	-0.0001	2
5647	-0.00034	7e-05	0.00013	0.00021	0.00013	-5e-05	-0.00015	-0.0001	2
5648	-0.00034	7e-05	0.00013	0.00021	0.00013	-5e-05	-0.00015	-0.0001	2
5649	-0.00034	7e-05	0.00013	0.00021	0.00013	-5e-05	-0.00015	-0.0001	2
5650	-0.00034	7e-05	0.00013	0.00021	0.00013	-5e-05	-0.00015	-0.0001	2
5651	-0.00034	7e-05	0.00013	0.00021	0.00013	-5e-05	-0.00015	-0.0001	2
5652	-0.00034	7e-05	0.00013	0.00021	0.00013	-5e-05	-0.00015	-0.0001	2
5653	-0.00034	7e-05	0.00013	0.00021	0.00013	-5e-05	-0.00015	-0.0001	2
5654	-0.00034	7e-05	0.00013	0.00021	0.00013	-5e-05	-0.00015	-0.0001	2
5655	-0.00034	7e-05	0.00013	0.00021	0.00013	-5e-05	-0.00015	-0.0001	2
5656	-0.0005	-0.0007	-0.00072	-0.00037	-0.00023	-0.00031	-0.00053	-0.00021	2
5657	0.00021	-8e-05	1e-05	-0.00032	-3e-05	0.00052	0.00072	7e-05	2
5658	0.00021	-8e-05	1e-05	-0.00032	-3e-05	0.00052	0.00072	7e-05	2
5659	0.00021	-8e-05	1e-05	-0.00032	-3e-05	0.00052	0.00072	7e-05	2
5660	0.00021	-8e-05	1e-05	-0.00032	-3e-05	0.00052	0.00072	7e-05	2
5661	0.00021	-8e-05	1e-05	-0.00032	-3e-05	0.00052	0.00072	7e-05	2
5662	0.00021	-8e-05	1e-05	-0.00032	-3e-05	0.00052	0.00072	7e-05	2
5663	0.00021	-8e-05	1e-05	-0.00032	-3e-05	0.00052	0.00072	7e-05	2
5664	-0.00086	0.00039	0.00026	0.00033	2e-05	-0.00037	-0.00053	-0.00016	2
5665	-0.00027	-0.00016	6e-05	-1e-05	6e-05	-0.00014	0.00031	0.0001	2
5666	-0.00027	-0.00016	6e-05	-1e-05	6e-05	-0.00014	0.00031	0.0001	2
5667	-0.00027	-0.00016	6e-05	-1e-05	6e-05	-0.00014	0.00031	0.0001	2
5668	-0.00027	-0.00016	6e-05	-1e-05	6e-05	-0.00014	0.00031	0.0001	2
5669	-0.00027	-0.00016	6e-05	-1e-05	6e-05	-0.00014	0.00031	0.0001	2
5670	-0.00027	-0.00016	6e-05	-1e-05	6e-05	-0.00014	0.00031	0.0001	2
5671	-0.00027	-0.00016	6e-05	-1e-05	6e-05	-0.00014	0.00031	0.0001	2
5672	-0.00027	-0.00016	6e-05	-1e-05	6e-05	-0.00014	0.00031	0.0001	2
5673	-0.00027	-0.00016	6e-05	-1e-05	6e-05	-0.00014	0.00031	0.0001	2
5674	-0.00027	-0.00016	6e-05	-1e-05	6e-05	-0.00014	0.00031	0.0001	2
5675	-0.00027	-0.00016	6e-05	-1e-05	6e-05	-0.00014	0.00031	0.0001	2
5676	-0.00027	-0.00016	6e-05	-1e-05	6e-05	-0.00014	0.00031	0.0001	2
5677	-0.00027	-0.00016	6e-05	-1e-05	6e-05	-0.00014	0.00031	0.0001	2
5678	-2e-05	-0.00038	0.00017	0.00031	0.00071	-6e-05	-0.00068	-0.00015	2
5679	-2e-05	-0.00038	0.00017	0.00031	0.00071	-6e-05	-0.00068	-0.00015	2
5681	-2e-05	-0.00038	0.00017	0.00031	0.00071	-6e-05	-0.00068	-0.00015	2
5682	-2e-05	-0.00038	0.00017	0.00031	0.00071	-6e-05	-0.00068	-0.00015	2
5683	-2e-05	-0.00038	0.00017	0.00031	0.00071	-6e-05	-0.00068	-0.00015	2
5684	-2e-05	-0.00038	0.00017	0.00031	0.00071	-6e-05	-0.00068	-0.00015	2
5685	-2e-05	-0.00038	0.00017	0.00031	0.00071	-6e-05	-0.00068	-0.00015	2
5687	3e-05	3e-05	-7e-05	3e-05	8e-05	-0.00022	-0.00061	-1e-05	2
5690	3e-05	3e-05	-7e-05	3e-05	8e-05	-0.00022	-0.00061	-1e-05	2
5691	3e-05	3e-05	-7e-05	3e-05	8e-05	-0.00022	-0.00061	-1e-05	2
5692	3e-05	3e-05	-7e-05	3e-05	8e-05	-0.00022	-0.00061	-1e-05	2
5693	3e-05	3e-05	-7e-05	3e-05	8e-05	-0.00022	-0.00061	-1e-05	2
5694	3e-05	3e-05	-7e-05	3e-05	8e-05	-0.00022	-0.00061	-1e-05	2
5695	3e-05	3e-05	-7e-05	3e-05	8e-05	-0.00022	-0.00061	-1e-05	2
5696	3e-05	3e-05	-7e-05	3e-05	8e-05	-0.00022	-0.00061	-1e-05	2
5697	3e-05	3e-05	-7e-05	3e-05	8e-05	-0.00022	-0.00061	-1e-05	2
5698	3e-05	3e-05	-7e-05	3e-05	8e-05	-0.00022	-0.00061	-1e-05	2
5699	3e-05	3e-05	-7e-05	3e-05	8e-05	-0.00022	-0.00061	-1e-05	2
5701	3e-05	3e-05	-7e-05	3e-05	8e-05	-0.00022	-0.00061	-1e-05	2
5702	-9e-05	-0.00031	-3e-05	0.0003	-0.00034	0	-0.00051	3e-05	2
5703	-0.00016	-0.00011	-0.0001	-0.0001	-0.00021	1e-05	-0.00032	5e-05	2
5704	-0.00016	-0.00011	-0.0001	-0.0001	-0.00021	1e-05	-0.00032	5e-05	2
5705	-0.00016	-0.00011	-0.0001	-0.0001	-0.00021	1e-05	-0.00032	5e-05	2
5706	-0.00016	-0.00011	-0.0001	-0.0001	-0.00021	1e-05	-0.00032	5e-05	2
5707	-0.00016	-0.00011	-0.0001	-0.0001	-0.00021	1e-05	-0.00032	5e-05	2
5708	-0.00016	-0.00011	-0.0001	-0.0001	-0.00021	1e-05	-0.00032	5e-05	2
5709	-0.00016	-0.00011	-0.0001	-0.0001	-0.00021	1e-05	-0.00032	5e-05	2
5710	-0.00016	-0.00011	-0.0001	-0.0001	-0.00021	1e-05	-0.00032	5e-05	2
5711	-0.00016	-0.00011	-0.0001	-0.0001	-0.00021	1e-05	-0.00032	5e-05	2
5712	-0.00016	-0.00011	-0.0001	-0.0001	-0.00021	1e-05	-0.00032	5e-05	2
5713	-0.00016	-0.00011	-0.0001	-0.0001	-0.00021	1e-05	-0.00032	5e-05	2
5714	-0.00016	-0.00011	-0.0001	-0.0001	-0.00021	1e-05	-0.00032	5e-05	2
5715	4e-05	0.00023	-2e-05	0.0001	-0.00029	-8e-05	9e-05	-0.0001	2
5716	4e-05	0.00023	-2e-05	0.0001	-0.00029	-8e-05	9e-05	-0.0001	2
5717	4e-05	0.00023	-2e-05	0.0001	-0.00029	-8e-05	9e-05	-0.0001	2
5718	4e-05	0.00023	-2e-05	0.0001	-0.00029	-8e-05	9e-05	-0.0001	2
5719	4e-05	0.00023	-2e-05	0.0001	-0.00029	-8e-05	9e-05	-0.0001	2
5720	4e-05	0.00023	-2e-05	0.0001	-0.00029	-8e-05	9e-05	-0.0001	2
5721	4e-05	0.00023	-2e-05	0.0001	-0.00029	-8e-05	9e-05	-0.0001	2
5722	4e-05	0.00023	-2e-05	0.0001	-0.00029	-8e-05	9e-05	-0.0001	2
5723	4e-05	0.00023	-2e-05	0.0001	-0.00029	-8e-05	9e-05	-0.0001	2
5724	3e-05	-0.00016	-0.00014	9e-05	4e-05	-0.00016	-0.00014	-0.00022	2
5725	0.00015	5e-05	8e-05	8e-05	0.0002	7e-05	2e-05	0.00033	2
5726	0.00015	5e-05	8e-05	8e-05	0.0002	7e-05	2e-05	0.00033	2
5727	0.00015	5e-05	8e-05	8e-05	0.0002	7e-05	2e-05	0.00033	2
5728	0.00015	5e-05	8e-05	8e-05	0.0002	7e-05	2e-05	0.00033	2
5729	0.00015	5e-05	8e-05	8e-05	0.0002	7e-05	2e-05	0.00033	2
5731	0.00015	5e-05	8e-05	8e-05	0.0002	7e-05	2e-05	0.00033	2
5732	0.00015	5e-05	8e-05	8e-05	0.0002	7e-05	2e-05	0.00033	2
5733	0.00015	5e-05	8e-05	8e-05	0.0002	7e-05	2e-05	0.00033	2
5734	0.00015	5e-05	8e-05	8e-05	0.0002	7e-05	2e-05	0.00033	2
5735	0.00015	5e-05	8e-05	8e-05	0.0002	7e-05	2e-05	0.00033	2
5736	0.00015	5e-05	8e-05	8e-05	0.0002	7e-05	2e-05	0.00033	2
5739	0.00015	5e-05	8e-05	8e-05	0.0002	7e-05	2e-05	0.00033	2
5741	0.00015	0.00021	0.0002	-2e-05	6e-05	0.00011	2e-05	-2e-05	2
5742	0.00042	4e-05	-0.00027	-1e-05	-0.00019	-0.0003	-0.00029	-0.00012	2
5743	0.00042	4e-05	-0.00027	-1e-05	-0.00019	-0.0003	-0.00029	-0.00012	2
5744	0.00042	4e-05	-0.00027	-1e-05	-0.00019	-0.0003	-0.00029	-0.00012	2
5745	0.00042	4e-05	-0.00027	-1e-05	-0.00019	-0.0003	-0.00029	-0.00012	2
5746	0.00042	4e-05	-0.00027	-1e-05	-0.00019	-0.0003	-0.00029	-0.00012	2
5747	0.00042	4e-05	-0.00027	-1e-05	-0.00019	-0.0003	-0.00029	-0.00012	2
5748	0.00042	4e-05	-0.00027	-1e-05	-0.00019	-0.0003	-0.00029	-0.00012	2
5749	0.00042	4e-05	-0.00027	-1e-05	-0.00019	-0.0003	-0.00029	-0.00012	2
5750	0.00042	4e-05	-0.00027	-1e-05	-0.00019	-0.0003	-0.00029	-0.00012	2
5751	0.00042	4e-05	-0.00027	-1e-05	-0.00019	-0.0003	-0.00029	-0.00012	2
5752	0.00042	4e-05	-0.00027	-1e-05	-0.00019	-0.0003	-0.00029	-0.00012	2
5753	0.00042	4e-05	-0.00027	-1e-05	-0.00019	-0.0003	-0.00029	-0.00012	2
5754	0.00042	4e-05	-0.00027	-1e-05	-0.00019	-0.0003	-0.00029	-0.00012	2
5755	0.00042	4e-05	-0.00027	-1e-05	-0.00019	-0.0003	-0.00029	-0.00012	2
5756	0.00042	4e-05	-0.00027	-1e-05	-0.00019	-0.0003	-0.00029	-0.00012	2
5757	0.00042	4e-05	-0.00027	-1e-05	-0.00019	-0.0003	-0.00029	-0.00012	2
5758	0.00042	4e-05	-0.00027	-1e-05	-0.00019	-0.0003	-0.00029	-0.00012	2
5759	0.00042	4e-05	-0.00027	-1e-05	-0.00019	-0.0003	-0.00029	-0.00012	2
5760	0.00042	4e-05	-0.00027	-1e-05	-0.00019	-0.0003	-0.00029	-0.00012	2
5761	0.00042	4e-05	-0.00027	-1e-05	-0.00019	-0.0003	-0.00029	-0.00012	2
5762	0.00043	9e-05	0.00014	0.00015	6e-05	-0.00018	-6e-05	0.0001	2
5763	0.00085	0.00016	-0.00018	-9e-05	0.00018	-0.00021	0.00037	-0.00018	2
5764	0.00085	0.00016	-0.00018	-9e-05	0.00018	-0.00021	0.00037	-0.00018	2
5765	0.00085	0.00016	-0.00018	-9e-05	0.00018	-0.00021	0.00037	-0.00018	2
5766	0.00085	0.00016	-0.00018	-9e-05	0.00018	-0.00021	0.00037	-0.00018	2
5767	0.00085	0.00016	-0.00018	-9e-05	0.00018	-0.00021	0.00037	-0.00018	2
5768	0.00085	0.00016	-0.00018	-9e-05	0.00018	-0.00021	0.00037	-0.00018	2
5769	0.00085	0.00016	-0.00018	-9e-05	0.00018	-0.00021	0.00037	-0.00018	2
5770	0.00085	0.00016	-0.00018	-9e-05	0.00018	-0.00021	0.00037	-0.00018	2
5771	0.00085	0.00016	-0.00018	-9e-05	0.00018	-0.00021	0.00037	-0.00018	2
5772	0.00085	0.00016	-0.00018	-9e-05	0.00018	-0.00021	0.00037	-0.00018	2
5773	0.00085	0.00016	-0.00018	-9e-05	0.00018	-0.00021	0.00037	-0.00018	2
5774	0.00085	0.00016	-0.00018	-9e-05	0.00018	-0.00021	0.00037	-0.00018	2
5775	0	0.00015	-0.00022	-0.00038	-0.00029	0.00023	-3e-05	4e-05	2
5776	0	0.00015	-0.00022	-0.00038	-0.00029	0.00023	-3e-05	4e-05	2
5777	0	0.00015	-0.00022	-0.00038	-0.00029	0.00023	-3e-05	4e-05	2
5778	0	0.00015	-0.00022	-0.00038	-0.00029	0.00023	-3e-05	4e-05	2
5779	0	0.00015	-0.00022	-0.00038	-0.00029	0.00023	-3e-05	4e-05	2
5780	0	0.00015	-0.00022	-0.00038	-0.00029	0.00023	-3e-05	4e-05	2
5781	0	0.00015	-0.00022	-0.00038	-0.00029	0.00023	-3e-05	4e-05	2
5782	0	0.00015	-0.00022	-0.00038	-0.00029	0.00023	-3e-05	4e-05	2
5783	0	0.00015	-0.00022	-0.00038	-0.00029	0.00023	-3e-05	4e-05	2
5784	-1e-05	-0.00014	-1e-05	-1e-05	0.00024	-0.00022	-0.00042	-2e-05	2
5785	-0.00067	0.00014	0.00023	0.00017	0.00026	0.00041	0.00073	1e-05	2
5786	-0.00067	0.00014	0.00023	0.00017	0.00026	0.00041	0.00073	1e-05	2
5789	-0.00067	0.00014	0.00023	0.00017	0.00026	0.00041	0.00073	1e-05	2
5790	-0.00067	0.00014	0.00023	0.00017	0.00026	0.00041	0.00073	1e-05	2
5791	-0.00067	0.00014	0.00023	0.00017	0.00026	0.00041	0.00073	1e-05	2
5792	-0.00067	0.00014	0.00023	0.00017	0.00026	0.00041	0.00073	1e-05	2
5793	-0.00067	0.00014	0.00023	0.00017	0.00026	0.00041	0.00073	1e-05	2
5794	-0.00067	0.00014	0.00023	0.00017	0.00026	0.00041	0.00073	1e-05	2
5795	-0.00067	0.00014	0.00023	0.00017	0.00026	0.00041	0.00073	1e-05	2
5796	-0.00067	0.00014	0.00023	0.00017	0.00026	0.00041	0.00073	1e-05	2
5797	-0.00067	0.00014	0.00023	0.00017	0.00026	0.00041	0.00073	1e-05	2
5798	-0.00067	0.00014	0.00023	0.00017	0.00026	0.00041	0.00073	1e-05	2
5799	-1e-05	-6e-05	-6e-05	2e-05	0.00011	0.0001	-8e-05	-3e-05	2
5800	-1e-05	-6e-05	-6e-05	2e-05	0.00011	0.0001	-8e-05	-3e-05	2
5801	-0.00041	-0.00024	-0.00014	2e-05	2e-05	-8e-05	-0.00095	-6e-05	2
5802	-0.00041	-0.00024	-0.00014	2e-05	2e-05	-8e-05	-0.00095	-6e-05	2
5803	-0.00041	-0.00024	-0.00014	2e-05	2e-05	-8e-05	-0.00095	-6e-05	2
5804	-0.00041	-0.00024	-0.00014	2e-05	2e-05	-8e-05	-0.00095	-6e-05	2
5805	-0.00041	-0.00024	-0.00014	2e-05	2e-05	-8e-05	-0.00095	-6e-05	2
5806	-0.00041	-0.00024	-0.00014	2e-05	2e-05	-8e-05	-0.00095	-6e-05	2
5807	-0.00041	-0.00024	-0.00014	2e-05	2e-05	-8e-05	-0.00095	-6e-05	2
5808	-0.00041	-0.00024	-0.00014	2e-05	2e-05	-8e-05	-0.00095	-6e-05	2
5809	-0.00041	-0.00024	-0.00014	2e-05	2e-05	-8e-05	-0.00095	-6e-05	2
5810	-0.00041	-0.00024	-0.00014	2e-05	2e-05	-8e-05	-0.00095	-6e-05	2
5811	-0.00041	-0.00024	-0.00014	2e-05	2e-05	-8e-05	-0.00095	-6e-05	2
5812	-0.00041	-0.00024	-0.00014	2e-05	2e-05	-8e-05	-0.00095	-6e-05	2
5813	-0.00041	-0.00024	-0.00014	2e-05	2e-05	-8e-05	-0.00095	-6e-05	2
5814	-0.00041	-0.00024	-0.00014	2e-05	2e-05	-8e-05	-0.00095	-6e-05	2
5815	-0.00041	-0.00024	-0.00014	2e-05	2e-05	-8e-05	-0.00095	-6e-05	2
5816	-0.00041	-0.00024	-0.00014	2e-05	2e-05	-8e-05	-0.00095	-6e-05	2
5817	-0.00041	-0.00024	-0.00014	2e-05	2e-05	-8e-05	-0.00095	-6e-05	2
5818	-0.00041	-0.00024	-0.00014	2e-05	2e-05	-8e-05	-0.00095	-6e-05	2
5819	-0.00041	-0.00024	-0.00014	2e-05	2e-05	-8e-05	-0.00095	-6e-05	2
5820	-0.00041	-0.00024	-0.00014	2e-05	2e-05	-8e-05	-0.00095	-6e-05	2
5821	-0.00041	-0.00024	-0.00014	2e-05	2e-05	-8e-05	-0.00095	-6e-05	2
5822	-0.00041	-0.00024	-0.00014	2e-05	2e-05	-8e-05	-0.00095	-6e-05	2
5823	-0.00041	-0.00024	-0.00014	2e-05	2e-05	-8e-05	-0.00095	-6e-05	2
5825	-0.00041	-0.00024	-0.00014	2e-05	2e-05	-8e-05	-0.00095	-6e-05	2
5826	-0.00041	-0.00024	-0.00014	2e-05	2e-05	-8e-05	-0.00095	-6e-05	2
5827	-0.00041	-0.00024	-0.00014	2e-05	2e-05	-8e-05	-0.00095	-6e-05	2
5828	-0.00041	-0.00024	-0.00014	2e-05	2e-05	-8e-05	-0.00095	-6e-05	2
5829	-0.00023	-2e-05	0.00013	0.0002	0.0002	0.00033	-8e-05	0.00027	2
5830	-0.00023	-2e-05	0.00013	0.0002	0.0002	0.00033	-8e-05	0.00027	2
5831	-5e-05	-0.0001	-0.00021	-0.00038	-0.00027	-3e-05	-0.00076	-0.0002	2
5832	-5e-05	-0.0001	-0.00021	-0.00038	-0.00027	-3e-05	-0.00076	-0.0002	2
5833	-5e-05	-0.0001	-0.00021	-0.00038	-0.00027	-3e-05	-0.00076	-0.0002	2
5834	-5e-05	-0.0001	-0.00021	-0.00038	-0.00027	-3e-05	-0.00076	-0.0002	2
5835	-5e-05	-0.0001	-0.00021	-0.00038	-0.00027	-3e-05	-0.00076	-0.0002	2
5836	-5e-05	-0.0001	-0.00021	-0.00038	-0.00027	-3e-05	-0.00076	-0.0002	2
5839	-5e-05	-0.0001	-0.00021	-0.00038	-0.00027	-3e-05	-0.00076	-0.0002	2
5840	-5e-05	-0.0001	-0.00021	-0.00038	-0.00027	-3e-05	-0.00076	-0.0002	2
5841	-5e-05	-0.0001	-0.00021	-0.00038	-0.00027	-3e-05	-0.00076	-0.0002	2
5842	-5e-05	-0.0001	-0.00021	-0.00038	-0.00027	-3e-05	-0.00076	-0.0002	2
5843	-5e-05	-0.0001	-0.00021	-0.00038	-0.00027	-3e-05	-0.00076	-0.0002	2
5844	-0.00012	-6e-05	-0.00017	-0.00032	0.00038	-0.00054	-0.0007	-0.00035	2
5845	-0.00012	-6e-05	-0.00017	-0.00032	0.00038	-0.00054	-0.0007	-0.00035	2
5846	0.00047	-0.00027	-8e-05	4e-05	5e-05	0.00016	0.00028	0.00027	2
5847	0.00047	-0.00027	-8e-05	4e-05	5e-05	0.00016	0.00028	0.00027	2
5848	0.00047	-0.00027	-8e-05	4e-05	5e-05	0.00016	0.00028	0.00027	2
5849	0.00047	-0.00027	-8e-05	4e-05	5e-05	0.00016	0.00028	0.00027	2
5850	0.00047	-0.00027	-8e-05	4e-05	5e-05	0.00016	0.00028	0.00027	2
5851	0.00047	-0.00027	-8e-05	4e-05	5e-05	0.00016	0.00028	0.00027	2
5852	0.00047	-0.00027	-8e-05	4e-05	5e-05	0.00016	0.00028	0.00027	2
5853	0.00047	-0.00027	-8e-05	4e-05	5e-05	0.00016	0.00028	0.00027	2
5854	0.00047	-0.00027	-8e-05	4e-05	5e-05	0.00016	0.00028	0.00027	2
5855	0.00047	-0.00027	-8e-05	4e-05	5e-05	0.00016	0.00028	0.00027	2
5856	0.00047	-0.00027	-8e-05	4e-05	5e-05	0.00016	0.00028	0.00027	2
5857	0.00047	-0.00027	-8e-05	4e-05	5e-05	0.00016	0.00028	0.00027	2
5858	0.00047	-0.00027	-8e-05	4e-05	5e-05	0.00016	0.00028	0.00027	2
5859	-3e-05	-8e-05	0.00019	3e-05	-0.00013	0.00018	0.0001	-3e-05	2
5860	-3e-05	-8e-05	0.00019	3e-05	-0.00013	0.00018	0.0001	-3e-05	2
5861	-2e-05	-0.00032	-0.00013	-3e-05	-0.00023	-0.00033	-0.00032	-0.00018	2
5862	-2e-05	-0.00032	-0.00013	-3e-05	-0.00023	-0.00033	-0.00032	-0.00018	2
5863	-2e-05	-0.00032	-0.00013	-3e-05	-0.00023	-0.00033	-0.00032	-0.00018	2
5864	-2e-05	-0.00032	-0.00013	-3e-05	-0.00023	-0.00033	-0.00032	-0.00018	2
5865	-2e-05	-0.00032	-0.00013	-3e-05	-0.00023	-0.00033	-0.00032	-0.00018	2
5866	-2e-05	-0.00032	-0.00013	-3e-05	-0.00023	-0.00033	-0.00032	-0.00018	2
5867	-2e-05	-0.00032	-0.00013	-3e-05	-0.00023	-0.00033	-0.00032	-0.00018	2
5868	-2e-05	-0.00032	-0.00013	-3e-05	-0.00023	-0.00033	-0.00032	-0.00018	2
5869	-2e-05	-0.00032	-0.00013	-3e-05	-0.00023	-0.00033	-0.00032	-0.00018	2
5870	-2e-05	-0.00032	-0.00013	-3e-05	-0.00023	-0.00033	-0.00032	-0.00018	2
5872	-2e-05	-0.00032	-0.00013	-3e-05	-0.00023	-0.00033	-0.00032	-0.00018	2
5873	-2e-05	-0.00032	-0.00013	-3e-05	-0.00023	-0.00033	-0.00032	-0.00018	2
5874	-2e-05	-0.00032	-0.00013	-3e-05	-0.00023	-0.00033	-0.00032	-0.00018	2
5875	-2e-05	-0.00032	-0.00013	-3e-05	-0.00023	-0.00033	-0.00032	-0.00018	2
5876	-2e-05	-0.00032	-0.00013	-3e-05	-0.00023	-0.00033	-0.00032	-0.00018	2
5877	-2e-05	-0.00032	-0.00013	-3e-05	-0.00023	-0.00033	-0.00032	-0.00018	2
5878	-2e-05	-0.00032	-0.00013	-3e-05	-0.00023	-0.00033	-0.00032	-0.00018	2
5879	-2e-05	-0.00032	-0.00013	-3e-05	-0.00023	-0.00033	-0.00032	-0.00018	2
5880	-2e-05	-0.00032	-0.00013	-3e-05	-0.00023	-0.00033	-0.00032	-0.00018	2
5881	-0.00022	-1e-05	8e-05	-9e-05	0	-0.00013	-0.00041	-0.00023	2
5882	-0.00022	-1e-05	8e-05	-9e-05	0	-0.00013	-0.00041	-0.00023	2
5883	-0.00022	-1e-05	8e-05	-9e-05	0	-0.00013	-0.00041	-0.00023	2
5884	-0.00022	-1e-05	8e-05	-9e-05	0	-0.00013	-0.00041	-0.00023	2
5885	-0.00022	-1e-05	8e-05	-9e-05	0	-0.00013	-0.00041	-0.00023	2
5886	-0.00022	-1e-05	8e-05	-9e-05	0	-0.00013	-0.00041	-0.00023	2
5889	-7e-05	-0.00024	8e-05	0.00016	-8e-05	-5e-05	-0.00042	2e-05	2
5890	-0.00052	0.00019	0.0002	0.00024	-8e-05	5e-05	0.00051	0	2
5891	-0.00052	0.00019	0.0002	0.00024	-8e-05	5e-05	0.00051	0	2
5892	-0.00052	0.00019	0.0002	0.00024	-8e-05	5e-05	0.00051	0	2
5893	-0.00052	0.00019	0.0002	0.00024	-8e-05	5e-05	0.00051	0	2
5894	-0.00052	0.00019	0.0002	0.00024	-8e-05	5e-05	0.00051	0	2
5895	-0.00052	0.00019	0.0002	0.00024	-8e-05	5e-05	0.00051	0	2
5896	-0.00052	0.00019	0.0002	0.00024	-8e-05	5e-05	0.00051	0	2
5897	-0.00052	0.00019	0.0002	0.00024	-8e-05	5e-05	0.00051	0	2
5898	-0.00052	0.00019	0.0002	0.00024	-8e-05	5e-05	0.00051	0	2
5899	-0.00052	0.00019	0.0002	0.00024	-8e-05	5e-05	0.00051	0	2
5900	-0.00052	0.00019	0.0002	0.00024	-8e-05	5e-05	0.00051	0	2
5901	-0.00052	0.00019	0.0002	0.00024	-8e-05	5e-05	0.00051	0	2
5902	-0.00052	0.00019	0.0002	0.00024	-8e-05	5e-05	0.00051	0	2
5903	-0.00052	0.00019	0.0002	0.00024	-8e-05	5e-05	0.00051	0	2
5904	0.00062	0.0003	3e-05	0.00012	0.00025	0.00024	-0.00014	0.00011	2
5905	0.00062	0.0003	3e-05	0.00012	0.00025	0.00024	-0.00014	0.00011	2
5906	-0.00012	-0.00032	-1e-05	-0.0001	3e-05	6e-05	-8e-05	-0.0002	2
5907	-0.00012	-0.00032	-1e-05	-0.0001	3e-05	6e-05	-8e-05	-0.0002	2
5908	-0.00012	-0.00032	-1e-05	-0.0001	3e-05	6e-05	-8e-05	-0.0002	2
5909	-0.00012	-0.00032	-1e-05	-0.0001	3e-05	6e-05	-8e-05	-0.0002	2
5910	-0.00012	-0.00032	-1e-05	-0.0001	3e-05	6e-05	-8e-05	-0.0002	2
5911	-0.00012	-0.00032	-1e-05	-0.0001	3e-05	6e-05	-8e-05	-0.0002	2
5912	-0.00012	-0.00032	-1e-05	-0.0001	3e-05	6e-05	-8e-05	-0.0002	2
5913	-0.00012	-0.00032	-1e-05	-0.0001	3e-05	6e-05	-8e-05	-0.0002	2
5914	-0.00012	-0.00032	-1e-05	-0.0001	3e-05	6e-05	-8e-05	-0.0002	2
5915	-0.00012	-0.00032	-1e-05	-0.0001	3e-05	6e-05	-8e-05	-0.0002	2
5916	-0.00012	-0.00032	-1e-05	-0.0001	3e-05	6e-05	-8e-05	-0.0002	2
5917	-0.00012	-0.00032	-1e-05	-0.0001	3e-05	6e-05	-8e-05	-0.0002	2
5918	-0.00012	-0.00032	-1e-05	-0.0001	3e-05	6e-05	-8e-05	-0.0002	2
5919	0.00029	6e-05	-0.00056	-0.00019	0.00018	0.00015	0.00111	0.00041	2
5920	0.00029	6e-05	-0.00056	-0.00019	0.00018	0.00015	0.00111	0.00041	2
5921	0.00038	0.00023	-2e-05	0.0001	0.00017	-3e-05	-0.00016	-0.00026	2
5922	0.00038	0.00023	-2e-05	0.0001	0.00017	-3e-05	-0.00016	-0.00026	2
5923	0.00038	0.00023	-2e-05	0.0001	0.00017	-3e-05	-0.00016	-0.00026	2
5924	0.00038	0.00023	-2e-05	0.0001	0.00017	-3e-05	-0.00016	-0.00026	2
5925	0.00038	0.00023	-2e-05	0.0001	0.00017	-3e-05	-0.00016	-0.00026	2
5926	0.00038	0.00023	-2e-05	0.0001	0.00017	-3e-05	-0.00016	-0.00026	2
5927	0.00038	0.00023	-2e-05	0.0001	0.00017	-3e-05	-0.00016	-0.00026	2
5928	0.00038	0.00023	-2e-05	0.0001	0.00017	-3e-05	-0.00016	-0.00026	2
5929	0.00038	0.00023	-2e-05	0.0001	0.00017	-3e-05	-0.00016	-0.00026	2
5930	0.00038	0.00023	-2e-05	0.0001	0.00017	-3e-05	-0.00016	-0.00026	2
5931	0.00038	0.00023	-2e-05	0.0001	0.00017	-3e-05	-0.00016	-0.00026	2
5932	0.00038	0.00023	-2e-05	0.0001	0.00017	-3e-05	-0.00016	-0.00026	2
5933	0.00038	0.00023	-2e-05	0.0001	0.00017	-3e-05	-0.00016	-0.00026	2
5934	0.00038	0.00023	-2e-05	0.0001	0.00017	-3e-05	-0.00016	-0.00026	2
5935	0.00038	0.00023	-2e-05	0.0001	0.00017	-3e-05	-0.00016	-0.00026	2
5936	0.00038	0.00023	-2e-05	0.0001	0.00017	-3e-05	-0.00016	-0.00026	2
5938	0.00038	0.00023	-2e-05	0.0001	0.00017	-3e-05	-0.00016	-0.00026	2
5939	0.00038	0.00023	-2e-05	0.0001	0.00017	-3e-05	-0.00016	-0.00026	2
5940	0.00038	0.00023	-2e-05	0.0001	0.00017	-3e-05	-0.00016	-0.00026	2
5941	0.00038	0.00023	-2e-05	0.0001	0.00017	-3e-05	-0.00016	-0.00026	2
5942	4e-05	-9e-05	-0.00013	-1e-05	-0.00026	0	5e-05	6e-05	2
5943	3e-05	0.00024	-0.00021	-0.00037	-7e-05	-3e-05	-0.00046	0.00017	2
5944	3e-05	0.00024	-0.00021	-0.00037	-7e-05	-3e-05	-0.00046	0.00017	2
5945	3e-05	0.00024	-0.00021	-0.00037	-7e-05	-3e-05	-0.00046	0.00017	2
5946	3e-05	0.00024	-0.00021	-0.00037	-7e-05	-3e-05	-0.00046	0.00017	2
5947	3e-05	0.00024	-0.00021	-0.00037	-7e-05	-3e-05	-0.00046	0.00017	2
5948	3e-05	0.00024	-0.00021	-0.00037	-7e-05	-3e-05	-0.00046	0.00017	2
5949	3e-05	0.00024	-0.00021	-0.00037	-7e-05	-3e-05	-0.00046	0.00017	2
5951	3e-05	0.00024	-0.00021	-0.00037	-7e-05	-3e-05	-0.00046	0.00017	2
5952	3e-05	0.00024	-0.00021	-0.00037	-7e-05	-3e-05	-0.00046	0.00017	2
5953	3e-05	0.00024	-0.00021	-0.00037	-7e-05	-3e-05	-0.00046	0.00017	2
5954	3e-05	0.00024	-0.00021	-0.00037	-7e-05	-3e-05	-0.00046	0.00017	2
5955	3e-05	0.00024	-0.00021	-0.00037	-7e-05	-3e-05	-0.00046	0.00017	2
5956	3e-05	0.00024	-0.00021	-0.00037	-7e-05	-3e-05	-0.00046	0.00017	2
5957	3e-05	0.00024	-0.00021	-0.00037	-7e-05	-3e-05	-0.00046	0.00017	2
5958	3e-05	0.00024	-0.00021	-0.00037	-7e-05	-3e-05	-0.00046	0.00017	2
5959	3e-05	0.00024	-0.00021	-0.00037	-7e-05	-3e-05	-0.00046	0.00017	2
5961	3e-05	0.00024	-0.00021	-0.00037	-7e-05	-3e-05	-0.00046	0.00017	2
5962	3e-05	0.00024	-0.00021	-0.00037	-7e-05	-3e-05	-0.00046	0.00017	2
5963	3e-05	0.00024	-0.00021	-0.00037	-7e-05	-3e-05	-0.00046	0.00017	2
5964	-0.00075	-0.00011	1e-05	0	7e-05	-0.00033	-8e-05	-0.00016	2
5965	-0.00075	-0.00011	1e-05	0	7e-05	-0.00033	-8e-05	-0.00016	2
5966	-0.00044	0.00012	9e-05	-0.00014	-3e-05	-0.00012	-9e-05	-2e-05	2
5967	-0.00044	0.00012	9e-05	-0.00014	-3e-05	-0.00012	-9e-05	-2e-05	2
5968	-0.00044	0.00012	9e-05	-0.00014	-3e-05	-0.00012	-9e-05	-2e-05	2
5969	-0.00044	0.00012	9e-05	-0.00014	-3e-05	-0.00012	-9e-05	-2e-05	2
5971	-0.00044	0.00012	9e-05	-0.00014	-3e-05	-0.00012	-9e-05	-2e-05	2
5972	-0.00044	0.00012	9e-05	-0.00014	-3e-05	-0.00012	-9e-05	-2e-05	2
5973	-0.00044	0.00012	9e-05	-0.00014	-3e-05	-0.00012	-9e-05	-2e-05	2
5974	-0.00044	0.00012	9e-05	-0.00014	-3e-05	-0.00012	-9e-05	-2e-05	2
5975	-0.00044	0.00012	9e-05	-0.00014	-3e-05	-0.00012	-9e-05	-2e-05	2
5976	-0.00044	0.00012	9e-05	-0.00014	-3e-05	-0.00012	-9e-05	-2e-05	2
5977	-0.00044	0.00012	9e-05	-0.00014	-3e-05	-0.00012	-9e-05	-2e-05	2
5978	-0.00044	0.00012	9e-05	-0.00014	-3e-05	-0.00012	-9e-05	-2e-05	2
5979	0.00013	-0.00015	-1e-05	-0.00022	-0.0003	-0.00019	-0.00066	-0.00011	2
5980	0.00013	-0.00015	-1e-05	-0.00022	-0.0003	-0.00019	-0.00066	-0.00011	2
5981	4e-05	4e-05	-4e-05	-0.00013	-0.00027	0.00011	0.00028	-2e-05	2
5982	4e-05	4e-05	-4e-05	-0.00013	-0.00027	0.00011	0.00028	-2e-05	2
5983	4e-05	4e-05	-4e-05	-0.00013	-0.00027	0.00011	0.00028	-2e-05	2
5984	4e-05	4e-05	-4e-05	-0.00013	-0.00027	0.00011	0.00028	-2e-05	2
5985	4e-05	4e-05	-4e-05	-0.00013	-0.00027	0.00011	0.00028	-2e-05	2
5986	4e-05	4e-05	-4e-05	-0.00013	-0.00027	0.00011	0.00028	-2e-05	2
5988	4e-05	4e-05	-4e-05	-0.00013	-0.00027	0.00011	0.00028	-2e-05	2
5989	4e-05	4e-05	-4e-05	-0.00013	-0.00027	0.00011	0.00028	-2e-05	2
5990	4e-05	4e-05	-4e-05	-0.00013	-0.00027	0.00011	0.00028	-2e-05	2
5991	4e-05	4e-05	-4e-05	-0.00013	-0.00027	0.00011	0.00028	-2e-05	2
5992	4e-05	4e-05	-4e-05	-0.00013	-0.00027	0.00011	0.00028	-2e-05	2
5993	4e-05	4e-05	-4e-05	-0.00013	-0.00027	0.00011	0.00028	-2e-05	2
5994	4e-05	4e-05	-4e-05	-0.00013	-0.00027	0.00011	0.00028	-2e-05	2
5995	4e-05	4e-05	-4e-05	-0.00013	-0.00027	0.00011	0.00028	-2e-05	2
5996	4e-05	4e-05	-4e-05	-0.00013	-0.00027	0.00011	0.00028	-2e-05	2
5997	4e-05	4e-05	-4e-05	-0.00013	-0.00027	0.00011	0.00028	-2e-05	2
5998	4e-05	4e-05	-4e-05	-0.00013	-0.00027	0.00011	0.00028	-2e-05	2
5999	4e-05	4e-05	-4e-05	-0.00013	-0.00027	0.00011	0.00028	-2e-05	2
6000	4e-05	4e-05	-4e-05	-0.00013	-0.00027	0.00011	0.00028	-2e-05	2
6001	4e-05	4e-05	-4e-05	-0.00013	-0.00027	0.00011	0.00028	-2e-05	2
6002	-0.0003	-0.00019	0.00024	0.0003	-0.00017	-0.00011	0.00038	-2e-05	2
6003	-0.00015	-0.00055	-0.00012	0.00022	-0.00016	-0.00021	0.00012	3e-05	2
6004	-0.00015	-0.00055	-0.00012	0.00022	-0.00016	-0.00021	0.00012	3e-05	2
6005	-0.00015	-0.00055	-0.00012	0.00022	-0.00016	-0.00021	0.00012	3e-05	2
6006	-0.00015	-0.00055	-0.00012	0.00022	-0.00016	-0.00021	0.00012	3e-05	2
6007	-0.00015	-0.00055	-0.00012	0.00022	-0.00016	-0.00021	0.00012	3e-05	2
6008	-0.00015	-0.00055	-0.00012	0.00022	-0.00016	-0.00021	0.00012	3e-05	2
6009	-0.00015	-0.00055	-0.00012	0.00022	-0.00016	-0.00021	0.00012	3e-05	2
6010	-0.00015	-0.00055	-0.00012	0.00022	-0.00016	-0.00021	0.00012	3e-05	2
6011	-0.00015	-0.00055	-0.00012	0.00022	-0.00016	-0.00021	0.00012	3e-05	2
6013	-0.00015	-0.00055	-0.00012	0.00022	-0.00016	-0.00021	0.00012	3e-05	2
6014	-0.00015	-0.00055	-0.00012	0.00022	-0.00016	-0.00021	0.00012	3e-05	2
6015	-0.00015	-0.00055	-0.00012	0.00022	-0.00016	-0.00021	0.00012	3e-05	2
6016	-0.00015	-0.00055	-0.00012	0.00022	-0.00016	-0.00021	0.00012	3e-05	2
6017	-0.00015	-0.00055	-0.00012	0.00022	-0.00016	-0.00021	0.00012	3e-05	2
6018	-0.00015	-0.00055	-0.00012	0.00022	-0.00016	-0.00021	0.00012	3e-05	2
6019	-0.00015	-0.00055	-0.00012	0.00022	-0.00016	-0.00021	0.00012	3e-05	2
6020	-0.00015	-0.00055	-0.00012	0.00022	-0.00016	-0.00021	0.00012	3e-05	2
6021	-0.00015	-0.00055	-0.00012	0.00022	-0.00016	-0.00021	0.00012	3e-05	2
6022	-0.00015	-0.00055	-0.00012	0.00022	-0.00016	-0.00021	0.00012	3e-05	2
6023	-0.00015	-0.00055	-0.00012	0.00022	-0.00016	-0.00021	0.00012	3e-05	2
6024	9e-05	0.00023	0.00016	-2e-05	3e-05	0.00016	0.00031	-6e-05	2
6025	9e-05	0.00023	0.00016	-2e-05	3e-05	0.00016	0.00031	-6e-05	2
6026	8e-05	-0.00011	-0.00017	-0.00016	-4e-05	-7e-05	2e-05	0.00011	2
6027	8e-05	-0.00011	-0.00017	-0.00016	-4e-05	-7e-05	2e-05	0.00011	2
6028	8e-05	-0.00011	-0.00017	-0.00016	-4e-05	-7e-05	2e-05	0.00011	2
6029	8e-05	-0.00011	-0.00017	-0.00016	-4e-05	-7e-05	2e-05	0.00011	2
6030	8e-05	-0.00011	-0.00017	-0.00016	-4e-05	-7e-05	2e-05	0.00011	2
6031	8e-05	-0.00011	-0.00017	-0.00016	-4e-05	-7e-05	2e-05	0.00011	2
6032	8e-05	-0.00011	-0.00017	-0.00016	-4e-05	-7e-05	2e-05	0.00011	2
6033	8e-05	-0.00011	-0.00017	-0.00016	-4e-05	-7e-05	2e-05	0.00011	2
6034	8e-05	-0.00011	-0.00017	-0.00016	-4e-05	-7e-05	2e-05	0.00011	2
6035	8e-05	-0.00011	-0.00017	-0.00016	-4e-05	-7e-05	2e-05	0.00011	2
6036	8e-05	-0.00011	-0.00017	-0.00016	-4e-05	-7e-05	2e-05	0.00011	2
6039	-0.00036	-0.00012	-7e-05	0.00011	0.00035	1e-05	0.00049	-1e-05	2
6040	-0.00036	-0.00012	-7e-05	0.00011	0.00035	1e-05	0.00049	-1e-05	2
6041	-0.00036	-0.00012	-7e-05	0.00011	0.00035	1e-05	0.00049	-1e-05	2
6042	-0.00036	-0.00012	-7e-05	0.00011	0.00035	1e-05	0.00049	-1e-05	2
6043	-0.00036	-0.00012	-7e-05	0.00011	0.00035	1e-05	0.00049	-1e-05	2
6044	-0.00036	-0.00012	-7e-05	0.00011	0.00035	1e-05	0.00049	-1e-05	2
6045	-0.00036	-0.00012	-7e-05	0.00011	0.00035	1e-05	0.00049	-1e-05	2
6046	-0.00036	-0.00012	-7e-05	0.00011	0.00035	1e-05	0.00049	-1e-05	2
6047	0.00041	0.00027	0.00012	1e-05	-0.00022	0.00021	0.00062	0.00019	2
6048	0.00041	0.00027	0.00012	1e-05	-0.00022	0.00021	0.00062	0.00019	2
6049	0.00041	0.00027	0.00012	1e-05	-0.00022	0.00021	0.00062	0.00019	2
6050	0.00041	0.00027	0.00012	1e-05	-0.00022	0.00021	0.00062	0.00019	2
6051	0.00041	0.00027	0.00012	1e-05	-0.00022	0.00021	0.00062	0.00019	2
6052	0.00041	0.00027	0.00012	1e-05	-0.00022	0.00021	0.00062	0.00019	2
6053	0.00041	0.00027	0.00012	1e-05	-0.00022	0.00021	0.00062	0.00019	2
6054	0.00041	0.00027	0.00012	1e-05	-0.00022	0.00021	0.00062	0.00019	2
6055	0.00041	0.00027	0.00012	1e-05	-0.00022	0.00021	0.00062	0.00019	2
6057	0.00041	0.00027	0.00012	1e-05	-0.00022	0.00021	0.00062	0.00019	2
6058	0.00041	0.00027	0.00012	1e-05	-0.00022	0.00021	0.00062	0.00019	2
6059	0.00041	0.00027	0.00012	1e-05	-0.00022	0.00021	0.00062	0.00019	2
6060	0.00041	0.00027	0.00012	1e-05	-0.00022	0.00021	0.00062	0.00019	2
6061	0.00041	0.00027	0.00012	1e-05	-0.00022	0.00021	0.00062	0.00019	2
6062	0.00049	7e-05	0.00036	0.00025	0.00017	9e-05	-0.00026	0.00011	2
6063	-0.0007	-3e-05	-0.00023	-1e-05	0.00019	0.00016	0.00057	3e-05	2
6064	-0.0007	-3e-05	-0.00023	-1e-05	0.00019	0.00016	0.00057	3e-05	2
6065	-0.0007	-3e-05	-0.00023	-1e-05	0.00019	0.00016	0.00057	3e-05	2
6066	-0.0007	-3e-05	-0.00023	-1e-05	0.00019	0.00016	0.00057	3e-05	2
6067	-0.0007	-3e-05	-0.00023	-1e-05	0.00019	0.00016	0.00057	3e-05	2
6068	-0.0007	-3e-05	-0.00023	-1e-05	0.00019	0.00016	0.00057	3e-05	2
6069	-0.0007	-3e-05	-0.00023	-1e-05	0.00019	0.00016	0.00057	3e-05	2
6070	-0.0007	-3e-05	-0.00023	-1e-05	0.00019	0.00016	0.00057	3e-05	2
6071	-0.0007	-3e-05	-0.00023	-1e-05	0.00019	0.00016	0.00057	3e-05	2
6072	-0.0007	-3e-05	-0.00023	-1e-05	0.00019	0.00016	0.00057	3e-05	2
6073	-0.0007	-3e-05	-0.00023	-1e-05	0.00019	0.00016	0.00057	3e-05	2
6074	-0.0007	-3e-05	-0.00023	-1e-05	0.00019	0.00016	0.00057	3e-05	2
6075	-0.0007	-3e-05	-0.00023	-1e-05	0.00019	0.00016	0.00057	3e-05	2
6076	-0.0007	-3e-05	-0.00023	-1e-05	0.00019	0.00016	0.00057	3e-05	2
6077	-0.0007	-3e-05	-0.00023	-1e-05	0.00019	0.00016	0.00057	3e-05	2
6078	-0.0007	-3e-05	-0.00023	-1e-05	0.00019	0.00016	0.00057	3e-05	2
6079	-0.0007	-3e-05	-0.00023	-1e-05	0.00019	0.00016	0.00057	3e-05	2
6080	-0.0007	-3e-05	-0.00023	-1e-05	0.00019	0.00016	0.00057	3e-05	2
6081	-0.0007	-3e-05	-0.00023	-1e-05	0.00019	0.00016	0.00057	3e-05	2
6082	-0.0007	-3e-05	-0.00023	-1e-05	0.00019	0.00016	0.00057	3e-05	2
6083	-0.0007	-3e-05	-0.00023	-1e-05	0.00019	0.00016	0.00057	3e-05	2
6084	5e-05	0.00029	0.00034	0.0004	0.00037	0.00012	0.00084	-9e-05	2
6085	5e-05	0.00029	0.00034	0.0004	0.00037	0.00012	0.00084	-9e-05	2
6087	0.00038	0.00031	0.00027	0.00012	-0.00057	-0.00032	-0.00068	-0.00015	2
6089	0.00038	0.00031	0.00027	0.00012	-0.00057	-0.00032	-0.00068	-0.00015	2
6090	0.00038	0.00031	0.00027	0.00012	-0.00057	-0.00032	-0.00068	-0.00015	2
6091	0.00038	0.00031	0.00027	0.00012	-0.00057	-0.00032	-0.00068	-0.00015	2
6092	0.00038	0.00031	0.00027	0.00012	-0.00057	-0.00032	-0.00068	-0.00015	2
6093	0.00038	0.00031	0.00027	0.00012	-0.00057	-0.00032	-0.00068	-0.00015	2
6094	0.00038	0.00031	0.00027	0.00012	-0.00057	-0.00032	-0.00068	-0.00015	2
6095	0.00038	0.00031	0.00027	0.00012	-0.00057	-0.00032	-0.00068	-0.00015	2
6096	0.00038	0.00031	0.00027	0.00012	-0.00057	-0.00032	-0.00068	-0.00015	2
6097	0.00038	0.00031	0.00027	0.00012	-0.00057	-0.00032	-0.00068	-0.00015	2
6098	0.00038	0.00031	0.00027	0.00012	-0.00057	-0.00032	-0.00068	-0.00015	2
6099	0.00038	0.00031	0.00027	0.00012	-0.00057	-0.00032	-0.00068	-0.00015	2
6100	0.00038	0.00031	0.00027	0.00012	-0.00057	-0.00032	-0.00068	-0.00015	2
6101	0.00038	0.00031	0.00027	0.00012	-0.00057	-0.00032	-0.00068	-0.00015	2
6102	0.00038	0.00031	0.00027	0.00012	-0.00057	-0.00032	-0.00068	-0.00015	2
6103	0.00038	0.00031	0.00027	0.00012	-0.00057	-0.00032	-0.00068	-0.00015	2
6104	0.00038	0.00031	0.00027	0.00012	-0.00057	-0.00032	-0.00068	-0.00015	2
6105	0.00038	0.00031	0.00027	0.00012	-0.00057	-0.00032	-0.00068	-0.00015	2
6106	0.00038	0.00031	0.00027	0.00012	-0.00057	-0.00032	-0.00068	-0.00015	2
6107	-5e-05	0.00024	-0.00041	-0.00021	0	0.00022	-0.00011	9e-05	2
6108	-0.00038	-0.00027	7e-05	6e-05	-0.00011	-3e-05	-0.00057	0	2
6109	-5e-05	7e-05	0.00015	0.00022	0.00052	0.00033	0.00069	-0.0001	2
6110	-5e-05	7e-05	0.00015	0.00022	0.00052	0.00033	0.00069	-0.0001	2
6111	-5e-05	7e-05	0.00015	0.00022	0.00052	0.00033	0.00069	-0.0001	2
6112	-5e-05	7e-05	0.00015	0.00022	0.00052	0.00033	0.00069	-0.0001	2
6113	-5e-05	7e-05	0.00015	0.00022	0.00052	0.00033	0.00069	-0.0001	2
6114	-5e-05	7e-05	0.00015	0.00022	0.00052	0.00033	0.00069	-0.0001	2
6115	-5e-05	7e-05	0.00015	0.00022	0.00052	0.00033	0.00069	-0.0001	2
6116	-5e-05	7e-05	0.00015	0.00022	0.00052	0.00033	0.00069	-0.0001	2
6117	-5e-05	7e-05	0.00015	0.00022	0.00052	0.00033	0.00069	-0.0001	2
6118	-5e-05	7e-05	0.00015	0.00022	0.00052	0.00033	0.00069	-0.0001	2
6119	-5e-05	7e-05	0.00015	0.00022	0.00052	0.00033	0.00069	-0.0001	2
6120	-5e-05	7e-05	0.00015	0.00022	0.00052	0.00033	0.00069	-0.0001	2
6121	-5e-05	7e-05	0.00015	0.00022	0.00052	0.00033	0.00069	-0.0001	2
6122	1e-05	8e-05	-0.0002	-0.00013	5e-05	0.00055	0.00011	-0.00014	2
6123	-0.0002	-0.00021	-0.00021	-0.00012	7e-05	-2e-05	-0.00041	-0.00017	2
6124	-0.0002	-0.00021	-0.00021	-0.00012	7e-05	-2e-05	-0.00041	-0.00017	2
6125	-0.0002	-0.00021	-0.00021	-0.00012	7e-05	-2e-05	-0.00041	-0.00017	2
6126	-0.0002	-0.00021	-0.00021	-0.00012	7e-05	-2e-05	-0.00041	-0.00017	2
6127	-0.0002	-0.00021	-0.00021	-0.00012	7e-05	-2e-05	-0.00041	-0.00017	2
6128	-0.0002	-0.00021	-0.00021	-0.00012	7e-05	-2e-05	-0.00041	-0.00017	2
6129	-0.0002	-0.00021	-0.00021	-0.00012	7e-05	-2e-05	-0.00041	-0.00017	2
6130	-0.0002	-0.00021	-0.00021	-0.00012	7e-05	-2e-05	-0.00041	-0.00017	2
6131	-0.0002	-0.00021	-0.00021	-0.00012	7e-05	-2e-05	-0.00041	-0.00017	2
6132	-0.0002	-0.00021	-0.00021	-0.00012	7e-05	-2e-05	-0.00041	-0.00017	2
6133	-0.0002	-0.00021	-0.00021	-0.00012	7e-05	-2e-05	-0.00041	-0.00017	2
6134	-0.0002	-0.00021	-0.00021	-0.00012	7e-05	-2e-05	-0.00041	-0.00017	2
6135	-0.0002	-0.00021	-0.00021	-0.00012	7e-05	-2e-05	-0.00041	-0.00017	2
6136	-0.0002	-0.00021	-0.00021	-0.00012	7e-05	-2e-05	-0.00041	-0.00017	2
6138	-0.0002	-0.00021	-0.00021	-0.00012	7e-05	-2e-05	-0.00041	-0.00017	2
6140	-0.0002	-0.00021	-0.00021	-0.00012	7e-05	-2e-05	-0.00041	-0.00017	2
6141	-0.0002	-0.00021	-0.00021	-0.00012	7e-05	-2e-05	-0.00041	-0.00017	2
6142	-0.0002	-0.00021	-0.00021	-0.00012	7e-05	-2e-05	-0.00041	-0.00017	2
6143	-0.0002	-0.00021	-0.00021	-0.00012	7e-05	-2e-05	-0.00041	-0.00017	2
6144	-0.00036	0.0001	1e-05	-0.00022	-0.00036	-0.00037	-0.00058	-0.0001	2
6145	-0.00036	0.0001	1e-05	-0.00022	-0.00036	-0.00037	-0.00058	-0.0001	2
6146	-0.0004	7e-05	2e-05	-2e-05	0.00011	0.00019	0.00047	-5e-05	2
6147	-0.0004	7e-05	2e-05	-2e-05	0.00011	0.00019	0.00047	-5e-05	2
6148	-0.0004	7e-05	2e-05	-2e-05	0.00011	0.00019	0.00047	-5e-05	2
6149	-0.0004	7e-05	2e-05	-2e-05	0.00011	0.00019	0.00047	-5e-05	2
6150	-0.0004	7e-05	2e-05	-2e-05	0.00011	0.00019	0.00047	-5e-05	2
6151	-0.0004	7e-05	2e-05	-2e-05	0.00011	0.00019	0.00047	-5e-05	2
6152	-0.0004	7e-05	2e-05	-2e-05	0.00011	0.00019	0.00047	-5e-05	2
6153	-0.0004	7e-05	2e-05	-2e-05	0.00011	0.00019	0.00047	-5e-05	2
6154	-0.0004	7e-05	2e-05	-2e-05	0.00011	0.00019	0.00047	-5e-05	2
6155	-0.0004	7e-05	2e-05	-2e-05	0.00011	0.00019	0.00047	-5e-05	2
6156	-0.0004	7e-05	2e-05	-2e-05	0.00011	0.00019	0.00047	-5e-05	2
6157	-0.0004	7e-05	2e-05	-2e-05	0.00011	0.00019	0.00047	-5e-05	2
6158	-0.0004	7e-05	2e-05	-2e-05	0.00011	0.00019	0.00047	-5e-05	2
6159	-0.00012	-2e-05	-0.00023	-6e-05	-9e-05	7e-05	-0.0003	-4e-05	2
6160	-0.00012	-2e-05	-0.00023	-6e-05	-9e-05	7e-05	-0.0003	-4e-05	2
6161	-0.00012	-2e-05	-0.00023	-6e-05	-9e-05	7e-05	-0.0003	-4e-05	2
6162	-0.00012	-2e-05	-0.00023	-6e-05	-9e-05	7e-05	-0.0003	-4e-05	2
6163	-0.00012	-2e-05	-0.00023	-6e-05	-9e-05	7e-05	-0.0003	-4e-05	2
6164	-0.00012	-2e-05	-0.00023	-6e-05	-9e-05	7e-05	-0.0003	-4e-05	2
6165	3e-05	0.00013	0.00021	7e-05	-3e-05	-2e-05	0.00041	4e-05	2
6166	0.00026	-7e-05	0.00021	0.00014	-0.00014	-7e-05	0	0.00012	2
6167	0.00026	-7e-05	0.00021	0.00014	-0.00014	-7e-05	0	0.00012	2
6168	0.00026	-7e-05	0.00021	0.00014	-0.00014	-7e-05	0	0.00012	2
6169	0.00026	-7e-05	0.00021	0.00014	-0.00014	-7e-05	0	0.00012	2
6170	0.00026	-7e-05	0.00021	0.00014	-0.00014	-7e-05	0	0.00012	2
6171	0.00026	-7e-05	0.00021	0.00014	-0.00014	-7e-05	0	0.00012	2
6172	0.00026	-7e-05	0.00021	0.00014	-0.00014	-7e-05	0	0.00012	2
6173	0.00026	-7e-05	0.00021	0.00014	-0.00014	-7e-05	0	0.00012	2
6174	0.00026	-7e-05	0.00021	0.00014	-0.00014	-7e-05	0	0.00012	2
6175	0.00026	-7e-05	0.00021	0.00014	-0.00014	-7e-05	0	0.00012	2
6176	0.00026	-7e-05	0.00021	0.00014	-0.00014	-7e-05	0	0.00012	2
6177	0.00026	-7e-05	0.00021	0.00014	-0.00014	-7e-05	0	0.00012	2
6178	0.00026	-7e-05	0.00021	0.00014	-0.00014	-7e-05	0	0.00012	2
6179	0.00026	-7e-05	0.00021	0.00014	-0.00014	-7e-05	0	0.00012	2
6180	0.00026	-7e-05	0.00021	0.00014	-0.00014	-7e-05	0	0.00012	2
6181	0.00026	-7e-05	0.00021	0.00014	-0.00014	-7e-05	0	0.00012	2
6182	0.0003	-2e-05	-0.00035	-0.00021	-0.00021	-8e-05	0.00014	7e-05	2
6183	-0.00039	-0.00017	-6e-05	1e-05	0.00022	2e-05	-0.00042	-0.00021	2
6184	-6e-05	0.00011	0.00017	0.00038	0.00018	1e-05	-0.00015	5e-05	2
6185	-6e-05	0.00011	0.00017	0.00038	0.00018	1e-05	-0.00015	5e-05	2
6186	-6e-05	0.00011	0.00017	0.00038	0.00018	1e-05	-0.00015	5e-05	2
6188	-6e-05	0.00011	0.00017	0.00038	0.00018	1e-05	-0.00015	5e-05	2
6189	-6e-05	0.00011	0.00017	0.00038	0.00018	1e-05	-0.00015	5e-05	2
6190	-6e-05	0.00011	0.00017	0.00038	0.00018	1e-05	-0.00015	5e-05	2
6191	-6e-05	0.00011	0.00017	0.00038	0.00018	1e-05	-0.00015	5e-05	2
6192	-6e-05	0.00011	0.00017	0.00038	0.00018	1e-05	-0.00015	5e-05	2
6193	-6e-05	0.00011	0.00017	0.00038	0.00018	1e-05	-0.00015	5e-05	2
6194	-6e-05	0.00011	0.00017	0.00038	0.00018	1e-05	-0.00015	5e-05	2
6195	-6e-05	0.00011	0.00017	0.00038	0.00018	1e-05	-0.00015	5e-05	2
6196	-6e-05	0.00011	0.00017	0.00038	0.00018	1e-05	-0.00015	5e-05	2
6197	-6e-05	0.00011	0.00017	0.00038	0.00018	1e-05	-0.00015	5e-05	2
6198	-6e-05	0.00011	0.00017	0.00038	0.00018	1e-05	-0.00015	5e-05	2
6199	-6e-05	0.00011	0.00017	0.00038	0.00018	1e-05	-0.00015	5e-05	2
6200	-6e-05	0.00011	0.00017	0.00038	0.00018	1e-05	-0.00015	5e-05	2
6201	-6e-05	0.00011	0.00017	0.00038	0.00018	1e-05	-0.00015	5e-05	2
6202	-6e-05	0.00011	0.00017	0.00038	0.00018	1e-05	-0.00015	5e-05	2
6203	-6e-05	0.00011	0.00017	0.00038	0.00018	1e-05	-0.00015	5e-05	2
6204	-0.00046	-0.00052	-0.00033	8e-05	1e-05	-0.00012	-0.00013	-0.00019	2
6205	-0.00046	-0.00052	-0.00033	8e-05	1e-05	-0.00012	-0.00013	-0.00019	2
6206	-0.00017	-0.00035	-0.0003	-6e-05	-0.00014	-0.00024	-0.00067	-0.00039	2
6207	-0.00017	-0.00035	-0.0003	-6e-05	-0.00014	-0.00024	-0.00067	-0.00039	2
6208	-0.00017	-0.00035	-0.0003	-6e-05	-0.00014	-0.00024	-0.00067	-0.00039	2
6209	-0.00017	-0.00035	-0.0003	-6e-05	-0.00014	-0.00024	-0.00067	-0.00039	2
6210	-0.00017	-0.00035	-0.0003	-6e-05	-0.00014	-0.00024	-0.00067	-0.00039	2
6211	-0.00017	-0.00035	-0.0003	-6e-05	-0.00014	-0.00024	-0.00067	-0.00039	2
6212	-0.00017	-0.00035	-0.0003	-6e-05	-0.00014	-0.00024	-0.00067	-0.00039	2
6213	-0.00017	-0.00035	-0.0003	-6e-05	-0.00014	-0.00024	-0.00067	-0.00039	2
6214	-0.00017	-0.00035	-0.0003	-6e-05	-0.00014	-0.00024	-0.00067	-0.00039	2
6215	-0.00017	-0.00035	-0.0003	-6e-05	-0.00014	-0.00024	-0.00067	-0.00039	2
6216	-0.00017	-0.00035	-0.0003	-6e-05	-0.00014	-0.00024	-0.00067	-0.00039	2
6217	-0.00017	-0.00035	-0.0003	-6e-05	-0.00014	-0.00024	-0.00067	-0.00039	2
6218	-0.00017	-0.00035	-0.0003	-6e-05	-0.00014	-0.00024	-0.00067	-0.00039	2
6219	0.00041	0.00017	-5e-05	-9e-05	-1e-05	4e-05	-0.00027	8e-05	2
6220	0.00041	0.00017	-5e-05	-9e-05	-1e-05	4e-05	-0.00027	8e-05	2
6221	0.00041	0.00017	-5e-05	-9e-05	-1e-05	4e-05	-0.00027	8e-05	2
6222	0.00041	0.00017	-5e-05	-9e-05	-1e-05	4e-05	-0.00027	8e-05	2
6223	0.00041	0.00017	-5e-05	-9e-05	-1e-05	4e-05	-0.00027	8e-05	2
6224	0.00041	0.00017	-5e-05	-9e-05	-1e-05	4e-05	-0.00027	8e-05	2
6225	0.00041	0.00017	-5e-05	-9e-05	-1e-05	4e-05	-0.00027	8e-05	2
6226	-0.00019	-0.00028	0.00023	0.00016	9e-05	-4e-05	-0.00031	3e-05	2
6227	-0.00019	-0.00028	0.00023	0.00016	9e-05	-4e-05	-0.00031	3e-05	2
6228	-0.00019	-0.00028	0.00023	0.00016	9e-05	-4e-05	-0.00031	3e-05	2
6229	-0.00019	-0.00028	0.00023	0.00016	9e-05	-4e-05	-0.00031	3e-05	2
6230	-0.00019	-0.00028	0.00023	0.00016	9e-05	-4e-05	-0.00031	3e-05	2
6231	-0.00019	-0.00028	0.00023	0.00016	9e-05	-4e-05	-0.00031	3e-05	2
6232	-0.00019	-0.00028	0.00023	0.00016	9e-05	-4e-05	-0.00031	3e-05	2
6233	-0.00019	-0.00028	0.00023	0.00016	9e-05	-4e-05	-0.00031	3e-05	2
6234	-0.00019	-0.00028	0.00023	0.00016	9e-05	-4e-05	-0.00031	3e-05	2
6235	-0.00019	-0.00028	0.00023	0.00016	9e-05	-4e-05	-0.00031	3e-05	2
6236	-0.00019	-0.00028	0.00023	0.00016	9e-05	-4e-05	-0.00031	3e-05	2
6239	-0.00019	-0.00028	0.00023	0.00016	9e-05	-4e-05	-0.00031	3e-05	2
6240	-0.00019	-0.00028	0.00023	0.00016	9e-05	-4e-05	-0.00031	3e-05	2
6241	-0.00019	-0.00028	0.00023	0.00016	9e-05	-4e-05	-0.00031	3e-05	2
6242	0.00027	-0.00031	-7e-05	-0.00016	-0.00026	-0.00024	0.00032	0.0002	2
6243	0.0003	0.00015	0.00032	0.00017	0.00026	0.00036	0.00025	0.00036	2
6245	0.0003	0.00015	0.00032	0.00017	0.00026	0.00036	0.00025	0.00036	2
6246	0.0003	0.00015	0.00032	0.00017	0.00026	0.00036	0.00025	0.00036	2
6247	0.0003	0.00015	0.00032	0.00017	0.00026	0.00036	0.00025	0.00036	2
6248	0.0003	0.00015	0.00032	0.00017	0.00026	0.00036	0.00025	0.00036	2
6249	0.0003	0.00015	0.00032	0.00017	0.00026	0.00036	0.00025	0.00036	2
6250	0.0003	0.00015	0.00032	0.00017	0.00026	0.00036	0.00025	0.00036	2
6251	0.0003	0.00015	0.00032	0.00017	0.00026	0.00036	0.00025	0.00036	2
6252	0.0003	0.00015	0.00032	0.00017	0.00026	0.00036	0.00025	0.00036	2
6253	0.0003	0.00015	0.00032	0.00017	0.00026	0.00036	0.00025	0.00036	2
6254	0.0003	0.00015	0.00032	0.00017	0.00026	0.00036	0.00025	0.00036	2
6255	0.0003	0.00015	0.00032	0.00017	0.00026	0.00036	0.00025	0.00036	2
6256	0.0003	0.00015	0.00032	0.00017	0.00026	0.00036	0.00025	0.00036	2
6257	0.0003	0.00015	0.00032	0.00017	0.00026	0.00036	0.00025	0.00036	2
6258	0.0003	0.00015	0.00032	0.00017	0.00026	0.00036	0.00025	0.00036	2
6259	0.0003	0.00015	0.00032	0.00017	0.00026	0.00036	0.00025	0.00036	2
6260	0.0003	0.00015	0.00032	0.00017	0.00026	0.00036	0.00025	0.00036	2
6261	0.0003	0.00015	0.00032	0.00017	0.00026	0.00036	0.00025	0.00036	2
6262	0.0003	0.00015	0.00032	0.00017	0.00026	0.00036	0.00025	0.00036	2
6263	0.0003	0.00015	0.00032	0.00017	0.00026	0.00036	0.00025	0.00036	2
6264	0.0003	2e-05	0.00026	2e-05	0.00011	-0.00012	-0.00014	0.00014	2
6265	0.0003	2e-05	0.00026	2e-05	0.00011	-0.00012	-0.00014	0.00014	2
6266	5e-05	-9e-05	0	-0.00011	7e-05	4e-05	-0.00053	-2e-05	2
6267	5e-05	-9e-05	0	-0.00011	7e-05	4e-05	-0.00053	-2e-05	2
6268	5e-05	-9e-05	0	-0.00011	7e-05	4e-05	-0.00053	-2e-05	2
6269	5e-05	-9e-05	0	-0.00011	7e-05	4e-05	-0.00053	-2e-05	2
6270	5e-05	-9e-05	0	-0.00011	7e-05	4e-05	-0.00053	-2e-05	2
6271	5e-05	-9e-05	0	-0.00011	7e-05	4e-05	-0.00053	-2e-05	2
6272	5e-05	-9e-05	0	-0.00011	7e-05	4e-05	-0.00053	-2e-05	2
6273	5e-05	-9e-05	0	-0.00011	7e-05	4e-05	-0.00053	-2e-05	2
6274	5e-05	-9e-05	0	-0.00011	7e-05	4e-05	-0.00053	-2e-05	2
6275	5e-05	-9e-05	0	-0.00011	7e-05	4e-05	-0.00053	-2e-05	2
6276	5e-05	-9e-05	0	-0.00011	7e-05	4e-05	-0.00053	-2e-05	2
6277	5e-05	-9e-05	0	-0.00011	7e-05	4e-05	-0.00053	-2e-05	2
6278	5e-05	-9e-05	0	-0.00011	7e-05	4e-05	-0.00053	-2e-05	2
6279	0.00012	0.00021	-9e-05	-0.00017	-0.00013	-0.00011	-0.00025	0.00014	2
6280	0.00012	0.00021	-9e-05	-0.00017	-0.00013	-0.00011	-0.00025	0.00014	2
6281	0.00012	0.00021	-9e-05	-0.00017	-0.00013	-0.00011	-0.00025	0.00014	2
6282	0.00012	0.00021	-9e-05	-0.00017	-0.00013	-0.00011	-0.00025	0.00014	2
6283	0.00012	0.00021	-9e-05	-0.00017	-0.00013	-0.00011	-0.00025	0.00014	2
6284	0.00012	0.00021	-9e-05	-0.00017	-0.00013	-0.00011	-0.00025	0.00014	2
6285	2e-05	-1e-05	-0.00015	-0.0002	-0.00022	-0.00016	5e-05	4e-05	2
6287	2e-05	-1e-05	-0.00015	-0.0002	-0.00022	-0.00016	5e-05	4e-05	2
6289	2e-05	-1e-05	-0.00015	-0.0002	-0.00022	-0.00016	5e-05	4e-05	2
6290	2e-05	-1e-05	-0.00015	-0.0002	-0.00022	-0.00016	5e-05	4e-05	2
6291	2e-05	-1e-05	-0.00015	-0.0002	-0.00022	-0.00016	5e-05	4e-05	2
6293	2e-05	-1e-05	-0.00015	-0.0002	-0.00022	-0.00016	5e-05	4e-05	2
6294	2e-05	-1e-05	-0.00015	-0.0002	-0.00022	-0.00016	5e-05	4e-05	2
6295	2e-05	-1e-05	-0.00015	-0.0002	-0.00022	-0.00016	5e-05	4e-05	2
6296	2e-05	-1e-05	-0.00015	-0.0002	-0.00022	-0.00016	5e-05	4e-05	2
6297	2e-05	-1e-05	-0.00015	-0.0002	-0.00022	-0.00016	5e-05	4e-05	2
6298	2e-05	-1e-05	-0.00015	-0.0002	-0.00022	-0.00016	5e-05	4e-05	2
6299	2e-05	-1e-05	-0.00015	-0.0002	-0.00022	-0.00016	5e-05	4e-05	2
6300	2e-05	-1e-05	-0.00015	-0.0002	-0.00022	-0.00016	5e-05	4e-05	2
6301	2e-05	-1e-05	-0.00015	-0.0002	-0.00022	-0.00016	5e-05	4e-05	2
6302	0.0002	3e-05	-7e-05	-0.00016	-2e-05	0.0002	0.0008	6e-05	2
6303	-0.00036	-0.00016	-0.00022	-0.00019	-5e-05	0.00012	-0.00016	-0.00016	2
6304	-0.00033	-0.00026	-0.00021	-6e-05	-0.00018	-0.00037	-1e-05	-5e-05	2
6305	-0.00033	-0.00026	-0.00021	-6e-05	-0.00018	-0.00037	-1e-05	-5e-05	2
6306	-0.00033	-0.00026	-0.00021	-6e-05	-0.00018	-0.00037	-1e-05	-5e-05	2
6307	-0.00033	-0.00026	-0.00021	-6e-05	-0.00018	-0.00037	-1e-05	-5e-05	2
6308	-0.00033	-0.00026	-0.00021	-6e-05	-0.00018	-0.00037	-1e-05	-5e-05	2
6309	-0.00033	-0.00026	-0.00021	-6e-05	-0.00018	-0.00037	-1e-05	-5e-05	2
6311	-0.00033	-0.00026	-0.00021	-6e-05	-0.00018	-0.00037	-1e-05	-5e-05	2
6312	-0.00033	-0.00026	-0.00021	-6e-05	-0.00018	-0.00037	-1e-05	-5e-05	2
6313	-0.00033	-0.00026	-0.00021	-6e-05	-0.00018	-0.00037	-1e-05	-5e-05	2
6314	-0.00033	-0.00026	-0.00021	-6e-05	-0.00018	-0.00037	-1e-05	-5e-05	2
6315	-0.00033	-0.00026	-0.00021	-6e-05	-0.00018	-0.00037	-1e-05	-5e-05	2
6316	-0.00033	-0.00026	-0.00021	-6e-05	-0.00018	-0.00037	-1e-05	-5e-05	2
6317	-0.00033	-0.00026	-0.00021	-6e-05	-0.00018	-0.00037	-1e-05	-5e-05	2
6318	-0.00033	-0.00026	-0.00021	-6e-05	-0.00018	-0.00037	-1e-05	-5e-05	2
6319	-0.00033	-0.00026	-0.00021	-6e-05	-0.00018	-0.00037	-1e-05	-5e-05	2
6320	-0.00033	-0.00026	-0.00021	-6e-05	-0.00018	-0.00037	-1e-05	-5e-05	2
6321	-0.00033	-0.00026	-0.00021	-6e-05	-0.00018	-0.00037	-1e-05	-5e-05	2
6322	-0.00033	-0.00026	-0.00021	-6e-05	-0.00018	-0.00037	-1e-05	-5e-05	2
6323	-0.00033	-0.00026	-0.00021	-6e-05	-0.00018	-0.00037	-1e-05	-5e-05	2
6324	-0.00059	-0.00039	0.00011	0.00032	-5e-05	5e-05	0.00079	8e-05	2
6325	-0.00059	-0.00039	0.00011	0.00032	-5e-05	5e-05	0.00079	8e-05	2
6326	-0.00059	-0.00039	0.00011	0.00032	-5e-05	5e-05	0.00079	8e-05	2
6327	-0.00024	-1e-05	-0.0001	-0.00029	3e-05	9e-05	-0.00014	-9e-05	2
6328	-0.00024	-1e-05	-0.0001	-0.00029	3e-05	9e-05	-0.00014	-9e-05	2
6329	-0.00024	-1e-05	-0.0001	-0.00029	3e-05	9e-05	-0.00014	-9e-05	2
6330	-0.00024	-1e-05	-0.0001	-0.00029	3e-05	9e-05	-0.00014	-9e-05	2
6331	-0.00024	-1e-05	-0.0001	-0.00029	3e-05	9e-05	-0.00014	-9e-05	2
6332	-0.00024	-1e-05	-0.0001	-0.00029	3e-05	9e-05	-0.00014	-9e-05	2
6333	-0.00024	-1e-05	-0.0001	-0.00029	3e-05	9e-05	-0.00014	-9e-05	2
6334	-0.00024	-1e-05	-0.0001	-0.00029	3e-05	9e-05	-0.00014	-9e-05	2
6335	-0.00024	-1e-05	-0.0001	-0.00029	3e-05	9e-05	-0.00014	-9e-05	2
6336	-0.00024	-1e-05	-0.0001	-0.00029	3e-05	9e-05	-0.00014	-9e-05	2
6339	-0.00043	-9e-05	-0.00021	-0.00025	-0.00023	-0.00019	-0.0005	-0.00036	2
6340	-0.00043	-9e-05	-0.00021	-0.00025	-0.00023	-0.00019	-0.0005	-0.00036	2
6341	-0.00043	-9e-05	-0.00021	-0.00025	-0.00023	-0.00019	-0.0005	-0.00036	2
6342	-0.00043	-9e-05	-0.00021	-0.00025	-0.00023	-0.00019	-0.0005	-0.00036	2
6343	-0.00043	-9e-05	-0.00021	-0.00025	-0.00023	-0.00019	-0.0005	-0.00036	2
6344	-0.00043	-9e-05	-0.00021	-0.00025	-0.00023	-0.00019	-0.0005	-0.00036	2
6345	-0.00043	-9e-05	-0.00021	-0.00025	-0.00023	-0.00019	-0.0005	-0.00036	2
6346	-0.00043	-9e-05	-0.00021	-0.00025	-0.00023	-0.00019	-0.0005	-0.00036	2
6347	-0.00043	-9e-05	-0.00021	-0.00025	-0.00023	-0.00019	-0.0005	-0.00036	2
6348	-0.00043	-9e-05	-0.00021	-0.00025	-0.00023	-0.00019	-0.0005	-0.00036	2
6349	-0.00043	-9e-05	-0.00021	-0.00025	-0.00023	-0.00019	-0.0005	-0.00036	2
6351	-0.00043	-9e-05	-0.00021	-0.00025	-0.00023	-0.00019	-0.0005	-0.00036	2
6352	-0.00043	-9e-05	-0.00021	-0.00025	-0.00023	-0.00019	-0.0005	-0.00036	2
6353	0.00033	-1e-05	-0.00027	-0.00026	-4e-05	0.00023	0.001	0.00037	2
6354	0.00033	-1e-05	-0.00027	-0.00026	-4e-05	0.00023	0.001	0.00037	2
6355	0.00033	-1e-05	-0.00027	-0.00026	-4e-05	0.00023	0.001	0.00037	2
6356	0.00033	-1e-05	-0.00027	-0.00026	-4e-05	0.00023	0.001	0.00037	2
6357	0.00033	-1e-05	-0.00027	-0.00026	-4e-05	0.00023	0.001	0.00037	2
6358	0.00033	-1e-05	-0.00027	-0.00026	-4e-05	0.00023	0.001	0.00037	2
6359	0.00033	-1e-05	-0.00027	-0.00026	-4e-05	0.00023	0.001	0.00037	2
6360	0.00033	-1e-05	-0.00027	-0.00026	-4e-05	0.00023	0.001	0.00037	2
6361	0.00033	-1e-05	-0.00027	-0.00026	-4e-05	0.00023	0.001	0.00037	2
6362	0.00021	0.00041	0.00016	7e-05	0.0001	-0.00013	-0.00115	-9e-05	2
6363	0.00025	0.0002	-4e-05	-6e-05	1e-05	-0.00031	-0.00059	-0.00033	2
6364	0.00025	0.0002	-4e-05	-6e-05	1e-05	-0.00031	-0.00059	-0.00033	2
6365	0.00025	0.0002	-4e-05	-6e-05	1e-05	-0.00031	-0.00059	-0.00033	2
6366	0.00025	0.0002	-4e-05	-6e-05	1e-05	-0.00031	-0.00059	-0.00033	2
6367	0.00025	0.0002	-4e-05	-6e-05	1e-05	-0.00031	-0.00059	-0.00033	2
6368	0.00025	0.0002	-4e-05	-6e-05	1e-05	-0.00031	-0.00059	-0.00033	2
6369	0.00025	0.0002	-4e-05	-6e-05	1e-05	-0.00031	-0.00059	-0.00033	2
6370	0.00025	0.0002	-4e-05	-6e-05	1e-05	-0.00031	-0.00059	-0.00033	2
6371	0.00025	0.0002	-4e-05	-6e-05	1e-05	-0.00031	-0.00059	-0.00033	2
6372	0.00025	0.0002	-4e-05	-6e-05	1e-05	-0.00031	-0.00059	-0.00033	2
6373	0.00025	0.0002	-4e-05	-6e-05	1e-05	-0.00031	-0.00059	-0.00033	2
6374	0.00025	0.0002	-4e-05	-6e-05	1e-05	-0.00031	-0.00059	-0.00033	2
6375	0.00025	0.0002	-4e-05	-6e-05	1e-05	-0.00031	-0.00059	-0.00033	2
6376	0.00025	0.0002	-4e-05	-6e-05	1e-05	-0.00031	-0.00059	-0.00033	2
6377	0.00025	0.0002	-4e-05	-6e-05	1e-05	-0.00031	-0.00059	-0.00033	2
6378	0.00025	0.0002	-4e-05	-6e-05	1e-05	-0.00031	-0.00059	-0.00033	2
6379	0.00025	0.0002	-4e-05	-6e-05	1e-05	-0.00031	-0.00059	-0.00033	2
6380	0.00025	0.0002	-4e-05	-6e-05	1e-05	-0.00031	-0.00059	-0.00033	2
6381	0.00025	0.0002	-4e-05	-6e-05	1e-05	-0.00031	-0.00059	-0.00033	2
6382	0.00025	0.0002	-4e-05	-6e-05	1e-05	-0.00031	-0.00059	-0.00033	2
6383	0.00025	0.0002	-4e-05	-6e-05	1e-05	-0.00031	-0.00059	-0.00033	2
6384	0.00025	0.0002	-4e-05	-6e-05	1e-05	-0.00031	-0.00059	-0.00033	2
6385	0.00011	-3e-05	0.00013	5e-05	7e-05	0.00031	0.00014	0.0001	2
6386	0.00014	0.00019	-3e-05	-0.00011	-0.0001	-6e-05	-0.00028	0.00011	2
6388	-7e-05	0.00011	0.00028	0.00017	4e-05	-0.0002	0.00022	-3e-05	2
6390	-7e-05	0.00011	0.00028	0.00017	4e-05	-0.0002	0.00022	-3e-05	2
6391	-7e-05	0.00011	0.00028	0.00017	4e-05	-0.0002	0.00022	-3e-05	2
6392	-7e-05	0.00011	0.00028	0.00017	4e-05	-0.0002	0.00022	-3e-05	2
6393	-7e-05	0.00011	0.00028	0.00017	4e-05	-0.0002	0.00022	-3e-05	2
6394	-7e-05	0.00011	0.00028	0.00017	4e-05	-0.0002	0.00022	-3e-05	2
6395	-7e-05	0.00011	0.00028	0.00017	4e-05	-0.0002	0.00022	-3e-05	2
6396	-7e-05	0.00011	0.00028	0.00017	4e-05	-0.0002	0.00022	-3e-05	2
6397	-7e-05	0.00011	0.00028	0.00017	4e-05	-0.0002	0.00022	-3e-05	2
6398	-0.00013	-0.00013	-0.00012	3e-05	5e-05	-0.00045	-0.00049	-9e-05	2
6399	-0.00013	-0.00013	-0.00012	3e-05	5e-05	-0.00045	-0.00049	-9e-05	2
6400	-0.00013	-0.00013	-0.00012	3e-05	5e-05	-0.00045	-0.00049	-9e-05	2
6401	-0.00013	-0.00013	-0.00012	3e-05	5e-05	-0.00045	-0.00049	-9e-05	2
6402	-0.00013	-0.00013	-0.00012	3e-05	5e-05	-0.00045	-0.00049	-9e-05	2
6403	-0.00013	-0.00013	-0.00012	3e-05	5e-05	-0.00045	-0.00049	-9e-05	2
6404	-0.00013	-0.00013	-0.00012	3e-05	5e-05	-0.00045	-0.00049	-9e-05	2
6405	-0.00013	-0.00013	-0.00012	3e-05	5e-05	-0.00045	-0.00049	-9e-05	2
6406	-0.00013	-0.00013	-0.00012	3e-05	5e-05	-0.00045	-0.00049	-9e-05	2
6407	-0.00013	-0.00013	-0.00012	3e-05	5e-05	-0.00045	-0.00049	-9e-05	2
6408	-0.00013	-0.00013	-0.00012	3e-05	5e-05	-0.00045	-0.00049	-9e-05	2
6409	-0.00013	-0.00013	-0.00012	3e-05	5e-05	-0.00045	-0.00049	-9e-05	2
6410	-0.00013	-0.00013	-0.00012	3e-05	5e-05	-0.00045	-0.00049	-9e-05	2
6411	-0.00013	-0.00013	-0.00012	3e-05	5e-05	-0.00045	-0.00049	-9e-05	2
6412	-0.00013	-0.00013	-0.00012	3e-05	5e-05	-0.00045	-0.00049	-9e-05	2
6413	-0.00013	-0.00013	-0.00012	3e-05	5e-05	-0.00045	-0.00049	-9e-05	2
6414	4e-05	9e-05	1e-05	-0.00023	0.00014	0.00028	0.00021	0.0001	2
6415	1e-05	0.00029	6e-05	6e-05	5e-05	2e-05	5e-05	-0.00012	2
6416	1e-05	0.00029	6e-05	6e-05	5e-05	2e-05	5e-05	-0.00012	2
6417	1e-05	0.00029	6e-05	6e-05	5e-05	2e-05	5e-05	-0.00012	2
6418	1e-05	0.00029	6e-05	6e-05	5e-05	2e-05	5e-05	-0.00012	2
6419	1e-05	0.00029	6e-05	6e-05	5e-05	2e-05	5e-05	-0.00012	2
6420	1e-05	0.00029	6e-05	6e-05	5e-05	2e-05	5e-05	-0.00012	2
6421	1e-05	0.00029	6e-05	6e-05	5e-05	2e-05	5e-05	-0.00012	2
6422	0.00012	0.00019	-0.00012	-5e-05	-1e-05	-0.00024	-0.00017	-6e-05	2
6423	7e-05	-7e-05	-0.00018	-0.00026	-2e-05	-0.00016	5e-05	-0.00024	2
6424	7e-05	-7e-05	-0.00018	-0.00026	-2e-05	-0.00016	5e-05	-0.00024	2
6425	7e-05	-7e-05	-0.00018	-0.00026	-2e-05	-0.00016	5e-05	-0.00024	2
6426	7e-05	-7e-05	-0.00018	-0.00026	-2e-05	-0.00016	5e-05	-0.00024	2
6427	7e-05	-7e-05	-0.00018	-0.00026	-2e-05	-0.00016	5e-05	-0.00024	2
6428	7e-05	-7e-05	-0.00018	-0.00026	-2e-05	-0.00016	5e-05	-0.00024	2
6429	7e-05	-7e-05	-0.00018	-0.00026	-2e-05	-0.00016	5e-05	-0.00024	2
6430	7e-05	-7e-05	-0.00018	-0.00026	-2e-05	-0.00016	5e-05	-0.00024	2
6431	7e-05	-7e-05	-0.00018	-0.00026	-2e-05	-0.00016	5e-05	-0.00024	2
6432	7e-05	-7e-05	-0.00018	-0.00026	-2e-05	-0.00016	5e-05	-0.00024	2
6433	7e-05	-7e-05	-0.00018	-0.00026	-2e-05	-0.00016	5e-05	-0.00024	2
6434	7e-05	-7e-05	-0.00018	-0.00026	-2e-05	-0.00016	5e-05	-0.00024	2
6435	7e-05	-7e-05	-0.00018	-0.00026	-2e-05	-0.00016	5e-05	-0.00024	2
6436	7e-05	-7e-05	-0.00018	-0.00026	-2e-05	-0.00016	5e-05	-0.00024	2
6439	7e-05	-7e-05	-0.00018	-0.00026	-2e-05	-0.00016	5e-05	-0.00024	2
6440	7e-05	-7e-05	-0.00018	-0.00026	-2e-05	-0.00016	5e-05	-0.00024	2
6441	7e-05	-7e-05	-0.00018	-0.00026	-2e-05	-0.00016	5e-05	-0.00024	2
6442	7e-05	-7e-05	-0.00018	-0.00026	-2e-05	-0.00016	5e-05	-0.00024	2
6443	7e-05	-7e-05	-0.00018	-0.00026	-2e-05	-0.00016	5e-05	-0.00024	2
6444	-7e-05	-0.00046	-0.00012	-9e-05	-0.00024	-0.00021	-0.0003	-0.00012	2
6445	-7e-05	-0.00046	-0.00012	-9e-05	-0.00024	-0.00021	-0.0003	-0.00012	2
6446	0.00031	0.00018	-8e-05	-8e-05	-0.00011	0	1e-05	0.00015	2
6447	0.00031	0.00018	-8e-05	-8e-05	-0.00011	0	1e-05	0.00015	2
6448	0.00031	0.00018	-8e-05	-8e-05	-0.00011	0	1e-05	0.00015	2
6449	0.00031	0.00018	-8e-05	-8e-05	-0.00011	0	1e-05	0.00015	2
6450	0.00031	0.00018	-8e-05	-8e-05	-0.00011	0	1e-05	0.00015	2
6451	0.00031	0.00018	-8e-05	-8e-05	-0.00011	0	1e-05	0.00015	2
6452	0.00031	0.00018	-8e-05	-8e-05	-0.00011	0	1e-05	0.00015	2
6453	0.00031	0.00018	-8e-05	-8e-05	-0.00011	0	1e-05	0.00015	2
6454	0.00031	0.00018	-8e-05	-8e-05	-0.00011	0	1e-05	0.00015	2
6455	0.00031	0.00018	-8e-05	-8e-05	-0.00011	0	1e-05	0.00015	2
6456	0.00031	0.00018	-8e-05	-8e-05	-0.00011	0	1e-05	0.00015	2
6457	0.00031	0.00018	-8e-05	-8e-05	-0.00011	0	1e-05	0.00015	2
6458	-1e-05	0.00022	0.00035	9e-05	8e-05	0.00019	0.00057	5e-05	2
6459	-1e-05	0.00022	0.00035	9e-05	8e-05	0.00019	0.00057	5e-05	2
6460	-1e-05	0.00022	0.00035	9e-05	8e-05	0.00019	0.00057	5e-05	2
6461	-1e-05	0.00022	0.00035	9e-05	8e-05	0.00019	0.00057	5e-05	2
6462	-1e-05	0.00022	0.00035	9e-05	8e-05	0.00019	0.00057	5e-05	2
6463	-1e-05	0.00022	0.00035	9e-05	8e-05	0.00019	0.00057	5e-05	2
6464	-1e-05	0.00022	0.00035	9e-05	8e-05	0.00019	0.00057	5e-05	2
6465	-1e-05	0.00022	0.00035	9e-05	8e-05	0.00019	0.00057	5e-05	2
6466	-1e-05	0.00022	0.00035	9e-05	8e-05	0.00019	0.00057	5e-05	2
6467	-7e-05	-4e-05	4e-05	-5e-05	0.00029	-0.00015	0.0001	8e-05	2
6468	-7e-05	-4e-05	4e-05	-5e-05	0.00029	-0.00015	0.0001	8e-05	2
6469	-7e-05	-4e-05	4e-05	-5e-05	0.00029	-0.00015	0.0001	8e-05	2
6470	-7e-05	-4e-05	4e-05	-5e-05	0.00029	-0.00015	0.0001	8e-05	2
6471	-7e-05	-4e-05	4e-05	-5e-05	0.00029	-0.00015	0.0001	8e-05	2
6472	-7e-05	-4e-05	4e-05	-5e-05	0.00029	-0.00015	0.0001	8e-05	2
6473	-7e-05	-4e-05	4e-05	-5e-05	0.00029	-0.00015	0.0001	8e-05	2
6474	-7e-05	-4e-05	4e-05	-5e-05	0.00029	-0.00015	0.0001	8e-05	2
6475	-7e-05	-4e-05	4e-05	-5e-05	0.00029	-0.00015	0.0001	8e-05	2
6476	-7e-05	-4e-05	4e-05	-5e-05	0.00029	-0.00015	0.0001	8e-05	2
6477	-7e-05	-4e-05	4e-05	-5e-05	0.00029	-0.00015	0.0001	8e-05	2
6478	-7e-05	-4e-05	4e-05	-5e-05	0.00029	-0.00015	0.0001	8e-05	2
6479	-7e-05	-4e-05	4e-05	-5e-05	0.00029	-0.00015	0.0001	8e-05	2
6480	-7e-05	-4e-05	4e-05	-5e-05	0.00029	-0.00015	0.0001	8e-05	2
6481	-7e-05	-4e-05	4e-05	-5e-05	0.00029	-0.00015	0.0001	8e-05	2
6482	0.00028	0.00021	0.0002	0.00012	-5e-05	0.00014	0.0004	4e-05	2
6483	-0.00041	4e-05	0.00022	0.00027	-0.0001	0.00019	-0.00025	-8e-05	2
6484	-0.00041	4e-05	0.00022	0.00027	-0.0001	0.00019	-0.00025	-8e-05	2
6485	-0.00041	4e-05	0.00022	0.00027	-0.0001	0.00019	-0.00025	-8e-05	2
6486	-0.00041	4e-05	0.00022	0.00027	-0.0001	0.00019	-0.00025	-8e-05	2
6488	-0.00041	4e-05	0.00022	0.00027	-0.0001	0.00019	-0.00025	-8e-05	2
6489	-0.00041	4e-05	0.00022	0.00027	-0.0001	0.00019	-0.00025	-8e-05	2
6490	-0.00041	4e-05	0.00022	0.00027	-0.0001	0.00019	-0.00025	-8e-05	2
6491	-0.00041	4e-05	0.00022	0.00027	-0.0001	0.00019	-0.00025	-8e-05	2
6492	-0.00041	4e-05	0.00022	0.00027	-0.0001	0.00019	-0.00025	-8e-05	2
6493	-0.00041	4e-05	0.00022	0.00027	-0.0001	0.00019	-0.00025	-8e-05	2
6494	-0.00041	4e-05	0.00022	0.00027	-0.0001	0.00019	-0.00025	-8e-05	2
6495	-0.00041	4e-05	0.00022	0.00027	-0.0001	0.00019	-0.00025	-8e-05	2
6496	-0.00041	4e-05	0.00022	0.00027	-0.0001	0.00019	-0.00025	-8e-05	2
6497	-0.00041	4e-05	0.00022	0.00027	-0.0001	0.00019	-0.00025	-8e-05	2
6498	-0.00041	4e-05	0.00022	0.00027	-0.0001	0.00019	-0.00025	-8e-05	2
6499	-0.00041	4e-05	0.00022	0.00027	-0.0001	0.00019	-0.00025	-8e-05	2
6500	-0.00041	4e-05	0.00022	0.00027	-0.0001	0.00019	-0.00025	-8e-05	2
6501	-0.00041	4e-05	0.00022	0.00027	-0.0001	0.00019	-0.00025	-8e-05	2
6502	-0.00041	4e-05	0.00022	0.00027	-0.0001	0.00019	-0.00025	-8e-05	2
6503	-0.00041	4e-05	0.00022	0.00027	-0.0001	0.00019	-0.00025	-8e-05	2
6504	-8e-05	0.00022	-4e-05	0.00016	7e-05	-0.00021	-0.00015	0.00025	2
6505	-8e-05	0.00022	-4e-05	0.00016	7e-05	-0.00021	-0.00015	0.00025	2
6506	0.00034	-0.00034	-0.00031	-0.00021	-6e-05	-7e-05	-0.00014	0.00012	2
6507	0.00034	-0.00034	-0.00031	-0.00021	-6e-05	-7e-05	-0.00014	0.00012	2
6508	0.00034	-0.00034	-0.00031	-0.00021	-6e-05	-7e-05	-0.00014	0.00012	2
6509	0.00034	-0.00034	-0.00031	-0.00021	-6e-05	-7e-05	-0.00014	0.00012	2
6510	0.00034	-0.00034	-0.00031	-0.00021	-6e-05	-7e-05	-0.00014	0.00012	2
6511	0.00034	-0.00034	-0.00031	-0.00021	-6e-05	-7e-05	-0.00014	0.00012	2
6512	0.00034	-0.00034	-0.00031	-0.00021	-6e-05	-7e-05	-0.00014	0.00012	2
6513	0.00034	-0.00034	-0.00031	-0.00021	-6e-05	-7e-05	-0.00014	0.00012	2
6514	0.00034	-0.00034	-0.00031	-0.00021	-6e-05	-7e-05	-0.00014	0.00012	2
6515	0.00034	-0.00034	-0.00031	-0.00021	-6e-05	-7e-05	-0.00014	0.00012	2
6516	0.00034	-0.00034	-0.00031	-0.00021	-6e-05	-7e-05	-0.00014	0.00012	2
6517	0.00034	-0.00034	-0.00031	-0.00021	-6e-05	-7e-05	-0.00014	0.00012	2
6518	-0.00012	-0.00031	-7e-05	-7e-05	-2e-05	0.00014	-0.00021	-7e-05	2
6519	-0.00012	-0.00031	-7e-05	-7e-05	-2e-05	0.00014	-0.00021	-7e-05	2
6520	-0.00012	-0.00031	-7e-05	-7e-05	-2e-05	0.00014	-0.00021	-7e-05	2
6521	-0.00012	-0.00031	-7e-05	-7e-05	-2e-05	0.00014	-0.00021	-7e-05	2
6522	-0.00012	-0.00031	-7e-05	-7e-05	-2e-05	0.00014	-0.00021	-7e-05	2
6523	-0.00012	-0.00031	-7e-05	-7e-05	-2e-05	0.00014	-0.00021	-7e-05	2
6524	-0.00012	-0.00031	-7e-05	-7e-05	-2e-05	0.00014	-0.00021	-7e-05	2
6525	-0.00012	-0.00031	-7e-05	-7e-05	-2e-05	0.00014	-0.00021	-7e-05	2
6526	-0.00012	-0.00031	-7e-05	-7e-05	-2e-05	0.00014	-0.00021	-7e-05	2
6527	-0.00016	0.00015	0.0001	7e-05	1e-05	0.00028	-0.00026	0.00019	2
6528	-0.00016	0.00015	0.0001	7e-05	1e-05	0.00028	-0.00026	0.00019	2
6529	-0.00016	0.00015	0.0001	7e-05	1e-05	0.00028	-0.00026	0.00019	2
6531	-0.00016	0.00015	0.0001	7e-05	1e-05	0.00028	-0.00026	0.00019	2
6532	-0.00016	0.00015	0.0001	7e-05	1e-05	0.00028	-0.00026	0.00019	2
6533	-0.00016	0.00015	0.0001	7e-05	1e-05	0.00028	-0.00026	0.00019	2
6534	-0.00016	0.00015	0.0001	7e-05	1e-05	0.00028	-0.00026	0.00019	2
6535	-0.00016	0.00015	0.0001	7e-05	1e-05	0.00028	-0.00026	0.00019	2
6536	-0.00016	0.00015	0.0001	7e-05	1e-05	0.00028	-0.00026	0.00019	2
6539	-0.00016	0.00015	0.0001	7e-05	1e-05	0.00028	-0.00026	0.00019	2
6540	-0.00016	0.00015	0.0001	7e-05	1e-05	0.00028	-0.00026	0.00019	2
6541	-0.00016	0.00015	0.0001	7e-05	1e-05	0.00028	-0.00026	0.00019	2
6543	0.00029	2e-05	-0.00016	0	0.00078	0.00026	-0.00022	0	2
6544	-0.00011	-0.00025	-0.00029	-0.00043	-0.00043	-0.00021	-0.0002	-2e-05	2
6545	-0.00011	-0.00025	-0.00029	-0.00043	-0.00043	-0.00021	-0.0002	-2e-05	2
6546	-0.00011	-0.00025	-0.00029	-0.00043	-0.00043	-0.00021	-0.0002	-2e-05	2
6547	-0.00011	-0.00025	-0.00029	-0.00043	-0.00043	-0.00021	-0.0002	-2e-05	2
6548	-0.00011	-0.00025	-0.00029	-0.00043	-0.00043	-0.00021	-0.0002	-2e-05	2
6549	-0.00011	-0.00025	-0.00029	-0.00043	-0.00043	-0.00021	-0.0002	-2e-05	2
6551	-0.00011	-0.00025	-0.00029	-0.00043	-0.00043	-0.00021	-0.0002	-2e-05	2
6552	-0.00011	-0.00025	-0.00029	-0.00043	-0.00043	-0.00021	-0.0002	-2e-05	2
6553	-0.00011	-0.00025	-0.00029	-0.00043	-0.00043	-0.00021	-0.0002	-2e-05	2
6554	-0.00011	-0.00025	-0.00029	-0.00043	-0.00043	-0.00021	-0.0002	-2e-05	2
6555	-0.00011	-0.00025	-0.00029	-0.00043	-0.00043	-0.00021	-0.0002	-2e-05	2
6556	-0.00011	-0.00025	-0.00029	-0.00043	-0.00043	-0.00021	-0.0002	-2e-05	2
6557	-0.00011	-0.00025	-0.00029	-0.00043	-0.00043	-0.00021	-0.0002	-2e-05	2
6558	-0.00011	-0.00025	-0.00029	-0.00043	-0.00043	-0.00021	-0.0002	-2e-05	2
6559	-0.00011	-0.00025	-0.00029	-0.00043	-0.00043	-0.00021	-0.0002	-2e-05	2
6560	-0.00011	-0.00025	-0.00029	-0.00043	-0.00043	-0.00021	-0.0002	-2e-05	2
6561	-0.00011	-0.00025	-0.00029	-0.00043	-0.00043	-0.00021	-0.0002	-2e-05	2
6562	-0.00011	-0.00025	-0.00029	-0.00043	-0.00043	-0.00021	-0.0002	-2e-05	2
6563	-0.00011	-0.00025	-0.00029	-0.00043	-0.00043	-0.00021	-0.0002	-2e-05	2
6564	0.00021	0.0004	5e-05	6e-05	0.00041	0.00024	-0.00025	3e-05	2
6565	0.00021	0.0004	5e-05	6e-05	0.00041	0.00024	-0.00025	3e-05	2
6566	-0.00031	0.00023	-2e-05	0.00028	-0.0002	-2e-05	-0.00031	-0.00032	2
6567	-0.00031	0.00023	-2e-05	0.00028	-0.0002	-2e-05	-0.00031	-0.00032	2
6568	-0.00031	0.00023	-2e-05	0.00028	-0.0002	-2e-05	-0.00031	-0.00032	2
6569	-0.00031	0.00023	-2e-05	0.00028	-0.0002	-2e-05	-0.00031	-0.00032	2
6570	-0.00031	0.00023	-2e-05	0.00028	-0.0002	-2e-05	-0.00031	-0.00032	2
6571	-0.00031	0.00023	-2e-05	0.00028	-0.0002	-2e-05	-0.00031	-0.00032	2
6572	-0.00031	0.00023	-2e-05	0.00028	-0.0002	-2e-05	-0.00031	-0.00032	2
6573	-0.00031	0.00023	-2e-05	0.00028	-0.0002	-2e-05	-0.00031	-0.00032	2
6574	-0.00031	0.00023	-2e-05	0.00028	-0.0002	-2e-05	-0.00031	-0.00032	2
6575	-0.00031	0.00023	-2e-05	0.00028	-0.0002	-2e-05	-0.00031	-0.00032	2
6576	-0.00031	0.00023	-2e-05	0.00028	-0.0002	-2e-05	-0.00031	-0.00032	2
6577	-0.00031	0.00023	-2e-05	0.00028	-0.0002	-2e-05	-0.00031	-0.00032	2
6578	-9e-05	0.00011	-1e-05	-8e-05	0	-0.0003	-0.00042	-0.00023	2
6579	-9e-05	0.00011	-1e-05	-8e-05	0	-0.0003	-0.00042	-0.00023	2
6580	-9e-05	0.00011	-1e-05	-8e-05	0	-0.0003	-0.00042	-0.00023	2
6581	-9e-05	0.00011	-1e-05	-8e-05	0	-0.0003	-0.00042	-0.00023	2
6582	-9e-05	0.00011	-1e-05	-8e-05	0	-0.0003	-0.00042	-0.00023	2
6583	-9e-05	0.00011	-1e-05	-8e-05	0	-0.0003	-0.00042	-0.00023	2
6584	-9e-05	0.00011	-1e-05	-8e-05	0	-0.0003	-0.00042	-0.00023	2
6585	-9e-05	0.00011	-1e-05	-8e-05	0	-0.0003	-0.00042	-0.00023	2
6586	-9e-05	0.00011	-1e-05	-8e-05	0	-0.0003	-0.00042	-0.00023	2
6588	1e-05	-0.0001	0.00017	-7e-05	5e-05	0.00016	0.00064	0.00012	2
6590	1e-05	-0.0001	0.00017	-7e-05	5e-05	0.00016	0.00064	0.00012	2
6591	1e-05	-0.0001	0.00017	-7e-05	5e-05	0.00016	0.00064	0.00012	2
6592	1e-05	-0.0001	0.00017	-7e-05	5e-05	0.00016	0.00064	0.00012	2
6593	1e-05	-0.0001	0.00017	-7e-05	5e-05	0.00016	0.00064	0.00012	2
6594	1e-05	-0.0001	0.00017	-7e-05	5e-05	0.00016	0.00064	0.00012	2
6595	1e-05	-0.0001	0.00017	-7e-05	5e-05	0.00016	0.00064	0.00012	2
6596	1e-05	-0.0001	0.00017	-7e-05	5e-05	0.00016	0.00064	0.00012	2
6597	1e-05	-0.0001	0.00017	-7e-05	5e-05	0.00016	0.00064	0.00012	2
6598	1e-05	-0.0001	0.00017	-7e-05	5e-05	0.00016	0.00064	0.00012	2
6599	1e-05	-0.0001	0.00017	-7e-05	5e-05	0.00016	0.00064	0.00012	2
6600	1e-05	-0.0001	0.00017	-7e-05	5e-05	0.00016	0.00064	0.00012	2
6601	1e-05	-0.0001	0.00017	-7e-05	5e-05	0.00016	0.00064	0.00012	2
6602	-0.00026	-4e-05	-0.0002	-0.00012	0.00017	0.00022	0.00065	2e-05	2
6603	-0.00012	-9e-05	0.00029	0.00014	0.00048	0.00018	-0.00051	1e-05	2
6605	-0.00012	-9e-05	0.00029	0.00014	0.00048	0.00018	-0.00051	1e-05	2
6606	-0.00012	-9e-05	0.00029	0.00014	0.00048	0.00018	-0.00051	1e-05	2
6607	-0.00012	-9e-05	0.00029	0.00014	0.00048	0.00018	-0.00051	1e-05	2
6608	-0.00012	-9e-05	0.00029	0.00014	0.00048	0.00018	-0.00051	1e-05	2
6609	-0.00012	-9e-05	0.00029	0.00014	0.00048	0.00018	-0.00051	1e-05	2
6610	-0.00012	-9e-05	0.00029	0.00014	0.00048	0.00018	-0.00051	1e-05	2
6611	-0.00012	-9e-05	0.00029	0.00014	0.00048	0.00018	-0.00051	1e-05	2
6612	-0.00012	-9e-05	0.00029	0.00014	0.00048	0.00018	-0.00051	1e-05	2
6613	-0.00012	-9e-05	0.00029	0.00014	0.00048	0.00018	-0.00051	1e-05	2
6614	-0.00012	-9e-05	0.00029	0.00014	0.00048	0.00018	-0.00051	1e-05	2
6615	-0.00012	-9e-05	0.00029	0.00014	0.00048	0.00018	-0.00051	1e-05	2
6616	-0.00012	-9e-05	0.00029	0.00014	0.00048	0.00018	-0.00051	1e-05	2
6617	-0.00012	-9e-05	0.00029	0.00014	0.00048	0.00018	-0.00051	1e-05	2
6618	-0.00012	-9e-05	0.00029	0.00014	0.00048	0.00018	-0.00051	1e-05	2
6619	-0.00012	-9e-05	0.00029	0.00014	0.00048	0.00018	-0.00051	1e-05	2
6620	-0.00012	-9e-05	0.00029	0.00014	0.00048	0.00018	-0.00051	1e-05	2
6621	-0.00012	-9e-05	0.00029	0.00014	0.00048	0.00018	-0.00051	1e-05	2
6622	-0.00012	-9e-05	0.00029	0.00014	0.00048	0.00018	-0.00051	1e-05	2
6623	-0.00012	-9e-05	0.00029	0.00014	0.00048	0.00018	-0.00051	1e-05	2
6624	-0.00012	-9e-05	0.00029	0.00014	0.00048	0.00018	-0.00051	1e-05	2
6625	-0.00012	-9e-05	0.00029	0.00014	0.00048	0.00018	-0.00051	1e-05	2
6626	-0.00012	-9e-05	0.00029	0.00014	0.00048	0.00018	-0.00051	1e-05	2
6627	-0.00012	-9e-05	0.00029	0.00014	0.00048	0.00018	-0.00051	1e-05	2
6628	-0.00012	-9e-05	0.00029	0.00014	0.00048	0.00018	-0.00051	1e-05	2
6629	-0.00012	-9e-05	0.00029	0.00014	0.00048	0.00018	-0.00051	1e-05	2
6631	-0.00012	-9e-05	0.00029	0.00014	0.00048	0.00018	-0.00051	1e-05	2
6632	-0.00023	-0.00012	-0.00035	-0.00015	-0.00017	-7e-05	0.00058	8e-05	2
6633	-0.00017	-0.00036	-0.00012	-5e-05	-0.00013	-3e-05	5e-05	3e-05	2
6634	-0.00017	-0.00036	-0.00012	-5e-05	-0.00013	-3e-05	5e-05	3e-05	2
6635	-0.00017	-0.00036	-0.00012	-5e-05	-0.00013	-3e-05	5e-05	3e-05	2
6636	-0.00017	-0.00036	-0.00012	-5e-05	-0.00013	-3e-05	5e-05	3e-05	2
6639	-0.00017	-0.00036	-0.00012	-5e-05	-0.00013	-3e-05	5e-05	3e-05	2
6640	-0.00017	-0.00036	-0.00012	-5e-05	-0.00013	-3e-05	5e-05	3e-05	2
6641	-0.00017	-0.00036	-0.00012	-5e-05	-0.00013	-3e-05	5e-05	3e-05	2
6642	-0.00017	-0.00036	-0.00012	-5e-05	-0.00013	-3e-05	5e-05	3e-05	2
6643	-0.00017	-0.00036	-0.00012	-5e-05	-0.00013	-3e-05	5e-05	3e-05	2
6644	-0.00017	-0.00036	-0.00012	-5e-05	-0.00013	-3e-05	5e-05	3e-05	2
6645	-0.00017	-0.00036	-0.00012	-5e-05	-0.00013	-3e-05	5e-05	3e-05	2
6646	-0.00017	-0.00036	-0.00012	-5e-05	-0.00013	-3e-05	5e-05	3e-05	2
6647	0.00011	-6e-05	-0.0001	-0.00013	-0.00024	-2e-05	0.00042	6e-05	2
6648	0.00053	-1e-05	0.00016	0.00059	0.00029	-4e-05	0.00015	0.00024	2
6649	0.00053	-1e-05	0.00016	0.00059	0.00029	-4e-05	0.00015	0.00024	2
6650	0.00053	-1e-05	0.00016	0.00059	0.00029	-4e-05	0.00015	0.00024	2
6651	0.00053	-1e-05	0.00016	0.00059	0.00029	-4e-05	0.00015	0.00024	2
6652	0.00053	-1e-05	0.00016	0.00059	0.00029	-4e-05	0.00015	0.00024	2
6653	0.00053	-1e-05	0.00016	0.00059	0.00029	-4e-05	0.00015	0.00024	2
6654	0.00053	-1e-05	0.00016	0.00059	0.00029	-4e-05	0.00015	0.00024	2
6655	0.00053	-1e-05	0.00016	0.00059	0.00029	-4e-05	0.00015	0.00024	2
6656	0.00053	-1e-05	0.00016	0.00059	0.00029	-4e-05	0.00015	0.00024	2
6657	0.00053	-1e-05	0.00016	0.00059	0.00029	-4e-05	0.00015	0.00024	2
6658	0.00053	-1e-05	0.00016	0.00059	0.00029	-4e-05	0.00015	0.00024	2
6659	0.00053	-1e-05	0.00016	0.00059	0.00029	-4e-05	0.00015	0.00024	2
6660	0.00053	-1e-05	0.00016	0.00059	0.00029	-4e-05	0.00015	0.00024	2
6661	0.00053	-1e-05	0.00016	0.00059	0.00029	-4e-05	0.00015	0.00024	2
6662	0.00044	-0.00026	0	0.00031	-0.00017	0.00024	-0.00032	0.00018	2
6663	-0.0005	3e-05	-3e-05	5e-05	0.00041	-0.0001	-0.00036	-0.00024	2
6664	-0.0005	3e-05	-3e-05	5e-05	0.00041	-0.0001	-0.00036	-0.00024	2
6666	-0.0005	3e-05	-3e-05	5e-05	0.00041	-0.0001	-0.00036	-0.00024	2
6667	-0.0005	3e-05	-3e-05	5e-05	0.00041	-0.0001	-0.00036	-0.00024	2
6668	-0.0005	3e-05	-3e-05	5e-05	0.00041	-0.0001	-0.00036	-0.00024	2
6669	-0.0005	3e-05	-3e-05	5e-05	0.00041	-0.0001	-0.00036	-0.00024	2
6670	-0.0005	3e-05	-3e-05	5e-05	0.00041	-0.0001	-0.00036	-0.00024	2
6671	-0.0005	3e-05	-3e-05	5e-05	0.00041	-0.0001	-0.00036	-0.00024	2
6672	-0.0005	3e-05	-3e-05	5e-05	0.00041	-0.0001	-0.00036	-0.00024	2
6673	-0.0005	3e-05	-3e-05	5e-05	0.00041	-0.0001	-0.00036	-0.00024	2
6674	-0.0005	3e-05	-3e-05	5e-05	0.00041	-0.0001	-0.00036	-0.00024	2
6675	-0.0005	3e-05	-3e-05	5e-05	0.00041	-0.0001	-0.00036	-0.00024	2
6676	-0.0005	3e-05	-3e-05	5e-05	0.00041	-0.0001	-0.00036	-0.00024	2
6677	-0.0005	3e-05	-3e-05	5e-05	0.00041	-0.0001	-0.00036	-0.00024	2
6678	-0.0005	3e-05	-3e-05	5e-05	0.00041	-0.0001	-0.00036	-0.00024	2
6679	-0.0005	3e-05	-3e-05	5e-05	0.00041	-0.0001	-0.00036	-0.00024	2
6681	-0.0005	3e-05	-3e-05	5e-05	0.00041	-0.0001	-0.00036	-0.00024	2
6682	-0.0005	3e-05	-3e-05	5e-05	0.00041	-0.0001	-0.00036	-0.00024	2
6683	-0.0005	3e-05	-3e-05	5e-05	0.00041	-0.0001	-0.00036	-0.00024	2
6684	-0.0005	3e-05	-3e-05	5e-05	0.00041	-0.0001	-0.00036	-0.00024	2
6685	-0.0005	3e-05	-3e-05	5e-05	0.00041	-0.0001	-0.00036	-0.00024	2
6686	-0.0005	3e-05	-3e-05	5e-05	0.00041	-0.0001	-0.00036	-0.00024	2
6688	-0.0005	3e-05	-3e-05	5e-05	0.00041	-0.0001	-0.00036	-0.00024	2
6689	-0.0005	3e-05	-3e-05	5e-05	0.00041	-0.0001	-0.00036	-0.00024	2
6690	-0.0005	3e-05	-3e-05	5e-05	0.00041	-0.0001	-0.00036	-0.00024	2
6691	-0.0005	3e-05	-3e-05	5e-05	0.00041	-0.0001	-0.00036	-0.00024	2
6692	1e-05	2e-05	-0.00015	-0.00013	1e-05	0.00036	-0.00014	-6e-05	2
6694	-0.00023	-0.00013	1e-05	0.00025	-0.00024	-9e-05	-0.00025	-0.00011	2
6695	-0.00023	-0.00013	1e-05	0.00025	-0.00024	-9e-05	-0.00025	-0.00011	2
6696	-0.00023	-0.00013	1e-05	0.00025	-0.00024	-9e-05	-0.00025	-0.00011	2
6697	-0.00023	-0.00013	1e-05	0.00025	-0.00024	-9e-05	-0.00025	-0.00011	2
6698	-0.0002	4e-05	-0.0001	-0.00013	-3e-05	0.00013	0.00015	-0.00014	2
6699	-0.0002	4e-05	-0.0001	-0.00013	-3e-05	0.00013	0.00015	-0.00014	2
6700	-0.0002	4e-05	-0.0001	-0.00013	-3e-05	0.00013	0.00015	-0.00014	2
6701	-0.0002	4e-05	-0.0001	-0.00013	-3e-05	0.00013	0.00015	-0.00014	2
6702	-0.0002	4e-05	-0.0001	-0.00013	-3e-05	0.00013	0.00015	-0.00014	2
6703	-0.0002	4e-05	-0.0001	-0.00013	-3e-05	0.00013	0.00015	-0.00014	2
6704	-0.0002	4e-05	-0.0001	-0.00013	-3e-05	0.00013	0.00015	-0.00014	2
6705	-0.0002	4e-05	-0.0001	-0.00013	-3e-05	0.00013	0.00015	-0.00014	2
6706	-0.0002	4e-05	-0.0001	-0.00013	-3e-05	0.00013	0.00015	-0.00014	2
6707	1e-05	0.00014	0	-5e-05	-5e-05	8e-05	0.00038	-0.00012	2
6708	1e-05	0.00014	0	-5e-05	-5e-05	8e-05	0.00038	-0.00012	2
6709	1e-05	0.00014	0	-5e-05	-5e-05	8e-05	0.00038	-0.00012	2
6710	1e-05	0.00014	0	-5e-05	-5e-05	8e-05	0.00038	-0.00012	2
6711	1e-05	0.00014	0	-5e-05	-5e-05	8e-05	0.00038	-0.00012	2
6712	1e-05	0.00014	0	-5e-05	-5e-05	8e-05	0.00038	-0.00012	2
6713	1e-05	0.00014	0	-5e-05	-5e-05	8e-05	0.00038	-0.00012	2
6714	1e-05	0.00014	0	-5e-05	-5e-05	8e-05	0.00038	-0.00012	2
6715	1e-05	0.00014	0	-5e-05	-5e-05	8e-05	0.00038	-0.00012	2
6716	1e-05	0.00014	0	-5e-05	-5e-05	8e-05	0.00038	-0.00012	2
6717	1e-05	0.00014	0	-5e-05	-5e-05	8e-05	0.00038	-0.00012	2
6718	1e-05	0.00014	0	-5e-05	-5e-05	8e-05	0.00038	-0.00012	2
6719	1e-05	0.00014	0	-5e-05	-5e-05	8e-05	0.00038	-0.00012	2
6721	1e-05	0.00014	0	-5e-05	-5e-05	8e-05	0.00038	-0.00012	2
6722	-0.00022	-2e-05	0.00011	-0.00015	-0.00037	-0.00029	-0.00046	7e-05	2
6723	4e-05	3e-05	-0.00026	-0.00053	-0.00012	7e-05	0	0.0001	2
6724	4e-05	3e-05	-0.00026	-0.00053	-0.00012	7e-05	0	0.0001	2
6725	4e-05	3e-05	-0.00026	-0.00053	-0.00012	7e-05	0	0.0001	2
6726	4e-05	3e-05	-0.00026	-0.00053	-0.00012	7e-05	0	0.0001	2
6727	4e-05	3e-05	-0.00026	-0.00053	-0.00012	7e-05	0	0.0001	2
6728	4e-05	3e-05	-0.00026	-0.00053	-0.00012	7e-05	0	0.0001	2
6729	4e-05	3e-05	-0.00026	-0.00053	-0.00012	7e-05	0	0.0001	2
6730	4e-05	3e-05	-0.00026	-0.00053	-0.00012	7e-05	0	0.0001	2
6731	4e-05	3e-05	-0.00026	-0.00053	-0.00012	7e-05	0	0.0001	2
6732	4e-05	3e-05	-0.00026	-0.00053	-0.00012	7e-05	0	0.0001	2
6733	4e-05	3e-05	-0.00026	-0.00053	-0.00012	7e-05	0	0.0001	2
6734	4e-05	3e-05	-0.00026	-0.00053	-0.00012	7e-05	0	0.0001	2
6735	4e-05	3e-05	-0.00026	-0.00053	-0.00012	7e-05	0	0.0001	2
6736	4e-05	3e-05	-0.00026	-0.00053	-0.00012	7e-05	0	0.0001	2
6738	4e-05	3e-05	-0.00026	-0.00053	-0.00012	7e-05	0	0.0001	2
6739	4e-05	3e-05	-0.00026	-0.00053	-0.00012	7e-05	0	0.0001	2
6740	4e-05	3e-05	-0.00026	-0.00053	-0.00012	7e-05	0	0.0001	2
6741	4e-05	3e-05	-0.00026	-0.00053	-0.00012	7e-05	0	0.0001	2
6742	4e-05	3e-05	-0.00026	-0.00053	-0.00012	7e-05	0	0.0001	2
6743	4e-05	3e-05	-0.00026	-0.00053	-0.00012	7e-05	0	0.0001	2
6744	4e-05	3e-05	-0.00026	-0.00053	-0.00012	7e-05	0	0.0001	2
6745	0.00018	-3e-05	0.00018	0.00025	0.0002	-0.00016	-0.00072	-0.0002	2
6746	-0.00031	-0.00027	5e-05	2e-05	-0.00016	-2e-05	0.00042	0.00016	2
6747	-0.00031	-0.00027	5e-05	2e-05	-0.00016	-2e-05	0.00042	0.00016	2
6748	-0.00031	-0.00027	5e-05	2e-05	-0.00016	-2e-05	0.00042	0.00016	2
6749	-0.00031	-0.00027	5e-05	2e-05	-0.00016	-2e-05	0.00042	0.00016	2
6751	-0.00031	-0.00027	5e-05	2e-05	-0.00016	-2e-05	0.00042	0.00016	2
6752	-0.00031	-0.00027	5e-05	2e-05	-0.00016	-2e-05	0.00042	0.00016	2
6753	-0.00031	-0.00027	5e-05	2e-05	-0.00016	-2e-05	0.00042	0.00016	2
6754	-0.00031	-0.00027	5e-05	2e-05	-0.00016	-2e-05	0.00042	0.00016	2
6755	-0.00031	-0.00027	5e-05	2e-05	-0.00016	-2e-05	0.00042	0.00016	2
6756	-0.00031	-0.00027	5e-05	2e-05	-0.00016	-2e-05	0.00042	0.00016	2
6757	-0.00031	-0.00027	5e-05	2e-05	-0.00016	-2e-05	0.00042	0.00016	2
6758	-0.00018	0.00013	0.0001	-2e-05	5e-05	-3e-05	0.00023	0.00013	2
6759	-0.00018	0.00013	0.0001	-2e-05	5e-05	-3e-05	0.00023	0.00013	2
6760	-0.00018	0.00013	0.0001	-2e-05	5e-05	-3e-05	0.00023	0.00013	2
6761	-0.00018	0.00013	0.0001	-2e-05	5e-05	-3e-05	0.00023	0.00013	2
6762	-0.00018	0.00013	0.0001	-2e-05	5e-05	-3e-05	0.00023	0.00013	2
6763	-0.00018	0.00013	0.0001	-2e-05	5e-05	-3e-05	0.00023	0.00013	2
6764	-0.00018	0.00013	0.0001	-2e-05	5e-05	-3e-05	0.00023	0.00013	2
6765	-0.00018	0.00013	0.0001	-2e-05	5e-05	-3e-05	0.00023	0.00013	2
6766	-0.00018	0.00013	0.0001	-2e-05	5e-05	-3e-05	0.00023	0.00013	2
6767	-5e-05	-0.00018	-0.00017	-0.00013	-0.0002	-0.00012	-0.00049	-0.00018	2
6768	-5e-05	-0.00018	-0.00017	-0.00013	-0.0002	-0.00012	-0.00049	-0.00018	2
6769	-5e-05	-0.00018	-0.00017	-0.00013	-0.0002	-0.00012	-0.00049	-0.00018	2
6771	-5e-05	-0.00018	-0.00017	-0.00013	-0.0002	-0.00012	-0.00049	-0.00018	2
6772	-5e-05	-0.00018	-0.00017	-0.00013	-0.0002	-0.00012	-0.00049	-0.00018	2
6773	-5e-05	-0.00018	-0.00017	-0.00013	-0.0002	-0.00012	-0.00049	-0.00018	2
6774	-5e-05	-0.00018	-0.00017	-0.00013	-0.0002	-0.00012	-0.00049	-0.00018	2
6775	-5e-05	-0.00018	-0.00017	-0.00013	-0.0002	-0.00012	-0.00049	-0.00018	2
6776	-5e-05	-0.00018	-0.00017	-0.00013	-0.0002	-0.00012	-0.00049	-0.00018	2
6777	-5e-05	-0.00018	-0.00017	-0.00013	-0.0002	-0.00012	-0.00049	-0.00018	2
6778	-5e-05	-0.00018	-0.00017	-0.00013	-0.0002	-0.00012	-0.00049	-0.00018	2
6779	-5e-05	-0.00018	-0.00017	-0.00013	-0.0002	-0.00012	-0.00049	-0.00018	2
6780	-5e-05	-0.00018	-0.00017	-0.00013	-0.0002	-0.00012	-0.00049	-0.00018	2
6781	-5e-05	-0.00018	-0.00017	-0.00013	-0.0002	-0.00012	-0.00049	-0.00018	2
6782	0.00016	-0.00012	-9e-05	6e-05	0.00029	0.00032	0.00103	5e-05	2
6783	0.00018	0.00017	-0.00019	-0.00011	5e-05	-4e-05	0.0002	0.00017	2
6784	0.00018	0.00017	-0.00019	-0.00011	5e-05	-4e-05	0.0002	0.00017	2
6785	0.00018	0.00017	-0.00019	-0.00011	5e-05	-4e-05	0.0002	0.00017	2
6786	0.00018	0.00017	-0.00019	-0.00011	5e-05	-4e-05	0.0002	0.00017	2
6788	0.00018	0.00017	-0.00019	-0.00011	5e-05	-4e-05	0.0002	0.00017	2
6789	0.00018	0.00017	-0.00019	-0.00011	5e-05	-4e-05	0.0002	0.00017	2
6790	0.00018	0.00017	-0.00019	-0.00011	5e-05	-4e-05	0.0002	0.00017	2
6791	0.00018	0.00017	-0.00019	-0.00011	5e-05	-4e-05	0.0002	0.00017	2
6792	0.00018	0.00017	-0.00019	-0.00011	5e-05	-4e-05	0.0002	0.00017	2
6793	0.00018	0.00017	-0.00019	-0.00011	5e-05	-4e-05	0.0002	0.00017	2
6794	0.00018	0.00017	-0.00019	-0.00011	5e-05	-4e-05	0.0002	0.00017	2
6795	0.00018	0.00017	-0.00019	-0.00011	5e-05	-4e-05	0.0002	0.00017	2
6796	0.00018	0.00017	-0.00019	-0.00011	5e-05	-4e-05	0.0002	0.00017	2
6797	0.00018	0.00017	-0.00019	-0.00011	5e-05	-4e-05	0.0002	0.00017	2
6798	0.00018	0.00017	-0.00019	-0.00011	5e-05	-4e-05	0.0002	0.00017	2
6799	0.00018	0.00017	-0.00019	-0.00011	5e-05	-4e-05	0.0002	0.00017	2
6800	0.00018	0.00017	-0.00019	-0.00011	5e-05	-4e-05	0.0002	0.00017	2
6801	0.00018	0.00017	-0.00019	-0.00011	5e-05	-4e-05	0.0002	0.00017	2
6802	0.00018	0.00017	-0.00019	-0.00011	5e-05	-4e-05	0.0002	0.00017	2
6803	0.00018	0.00017	-0.00019	-0.00011	5e-05	-4e-05	0.0002	0.00017	2
6804	-0.00042	0	-5e-05	-0.00015	-0.00019	-0.00017	-0.00018	-1e-05	2
6805	-0.00042	0	-5e-05	-0.00015	-0.00019	-0.00017	-0.00018	-1e-05	2
6806	0.00026	-0.00018	0.00015	0.00023	0.00027	8e-05	-0.00027	0	2
6807	0.00026	-0.00018	0.00015	0.00023	0.00027	8e-05	-0.00027	0	2
6808	0.00026	-0.00018	0.00015	0.00023	0.00027	8e-05	-0.00027	0	2
6809	0.00026	-0.00018	0.00015	0.00023	0.00027	8e-05	-0.00027	0	2
6810	0.00026	-0.00018	0.00015	0.00023	0.00027	8e-05	-0.00027	0	2
6811	0.00026	-0.00018	0.00015	0.00023	0.00027	8e-05	-0.00027	0	2
6812	0.00026	-0.00018	0.00015	0.00023	0.00027	8e-05	-0.00027	0	2
6813	0.00026	-0.00018	0.00015	0.00023	0.00027	8e-05	-0.00027	0	2
6814	0.00026	-0.00018	0.00015	0.00023	0.00027	8e-05	-0.00027	0	2
6815	0.00026	-0.00018	0.00015	0.00023	0.00027	8e-05	-0.00027	0	2
6816	0.00026	-0.00018	0.00015	0.00023	0.00027	8e-05	-0.00027	0	2
6817	0.00026	-0.00018	0.00015	0.00023	0.00027	8e-05	-0.00027	0	2
6818	0.00026	-0.00018	0.00015	0.00023	0.00027	8e-05	-0.00027	0	2
6819	0.00026	-0.00018	0.00015	0.00023	0.00027	8e-05	-0.00027	0	2
6820	0.00026	-0.00018	0.00015	0.00023	0.00027	8e-05	-0.00027	0	2
6821	0.00026	-0.00018	0.00015	0.00023	0.00027	8e-05	-0.00027	0	2
6822	0.00026	-0.00018	0.00015	0.00023	0.00027	8e-05	-0.00027	0	2
6823	0.00026	-0.00018	0.00015	0.00023	0.00027	8e-05	-0.00027	0	2
6824	0.00026	-0.00018	0.00015	0.00023	0.00027	8e-05	-0.00027	0	2
6825	0.00026	-0.00018	0.00015	0.00023	0.00027	8e-05	-0.00027	0	2
6826	0.00026	-0.00018	0.00015	0.00023	0.00027	8e-05	-0.00027	0	2
6827	0.00026	-0.00018	0.00015	0.00023	0.00027	8e-05	-0.00027	0	2
6828	-0.00047	-0.00021	-0.00016	-0.00014	0.0003	0.00017	-3e-05	-0.00012	2
6829	0.00025	3e-05	-0.0003	-6e-05	-0.00019	1e-05	0.00036	0.0002	2
6830	0.00025	3e-05	-0.0003	-6e-05	-0.00019	1e-05	0.00036	0.0002	2
6831	0.00025	3e-05	-0.0003	-6e-05	-0.00019	1e-05	0.00036	0.0002	2
6832	0.00025	3e-05	-0.0003	-6e-05	-0.00019	1e-05	0.00036	0.0002	2
6833	0.00025	3e-05	-0.0003	-6e-05	-0.00019	1e-05	0.00036	0.0002	2
6834	0.00025	3e-05	-0.0003	-6e-05	-0.00019	1e-05	0.00036	0.0002	2
6835	0.00025	3e-05	-0.0003	-6e-05	-0.00019	1e-05	0.00036	0.0002	2
6836	0.00025	3e-05	-0.0003	-6e-05	-0.00019	1e-05	0.00036	0.0002	2
6839	0.00025	3e-05	-0.0003	-6e-05	-0.00019	1e-05	0.00036	0.0002	2
6840	0.00025	3e-05	-0.0003	-6e-05	-0.00019	1e-05	0.00036	0.0002	2
6841	0.00025	3e-05	-0.0003	-6e-05	-0.00019	1e-05	0.00036	0.0002	2
6842	-0.0008	-0.00019	9e-05	0.00016	3e-05	0.0002	0.00021	6e-05	2
6843	-0.0008	-0.00019	9e-05	0.00016	3e-05	0.0002	0.00021	6e-05	2
6844	0.00016	0.00021	0.0001	0	-3e-05	-6e-05	2e-05	6e-05	2
6845	0.00016	0.00021	0.0001	0	-3e-05	-6e-05	2e-05	6e-05	2
6846	0.00016	0.00021	0.0001	0	-3e-05	-6e-05	2e-05	6e-05	2
6847	0.00016	0.00021	0.0001	0	-3e-05	-6e-05	2e-05	6e-05	2
6848	0.00016	0.00021	0.0001	0	-3e-05	-6e-05	2e-05	6e-05	2
6849	0.00016	0.00021	0.0001	0	-3e-05	-6e-05	2e-05	6e-05	2
6850	0.00016	0.00021	0.0001	0	-3e-05	-6e-05	2e-05	6e-05	2
6851	0.00016	0.00021	0.0001	0	-3e-05	-6e-05	2e-05	6e-05	2
6852	0.00016	0.00021	0.0001	0	-3e-05	-6e-05	2e-05	6e-05	2
6854	0.00016	0.00021	0.0001	0	-3e-05	-6e-05	2e-05	6e-05	2
6855	0.00016	0.00021	0.0001	0	-3e-05	-6e-05	2e-05	6e-05	2
6856	0.00016	0.00021	0.0001	0	-3e-05	-6e-05	2e-05	6e-05	2
6857	0.00016	0.00021	0.0001	0	-3e-05	-6e-05	2e-05	6e-05	2
6858	0.00016	0.00021	0.0001	0	-3e-05	-6e-05	2e-05	6e-05	2
6859	0.00016	0.00021	0.0001	0	-3e-05	-6e-05	2e-05	6e-05	2
6860	0.00016	0.00021	0.0001	0	-3e-05	-6e-05	2e-05	6e-05	2
6861	0.00016	0.00021	0.0001	0	-3e-05	-6e-05	2e-05	6e-05	2
6862	0.00016	0.00021	0.0001	0	-3e-05	-6e-05	2e-05	6e-05	2
6863	0.00016	0.00021	0.0001	0	-3e-05	-6e-05	2e-05	6e-05	2
6864	-0.00019	-0.00018	-0.00023	0	-5e-05	8e-05	-0.00023	-0.00018	2
6865	-6e-05	9e-05	9e-05	-0.00025	0.00013	1e-05	0.00047	-6e-05	2
6866	-0.00012	8e-05	7e-05	4e-05	1e-05	4e-05	-0.00012	-5e-05	2
6867	-0.00012	8e-05	7e-05	4e-05	1e-05	4e-05	-0.00012	-5e-05	2
6868	-0.00012	8e-05	7e-05	4e-05	1e-05	4e-05	-0.00012	-5e-05	2
6869	-0.00012	8e-05	7e-05	4e-05	1e-05	4e-05	-0.00012	-5e-05	2
6870	-0.00012	8e-05	7e-05	4e-05	1e-05	4e-05	-0.00012	-5e-05	2
6871	-0.00012	8e-05	7e-05	4e-05	1e-05	4e-05	-0.00012	-5e-05	2
6872	-0.00012	8e-05	7e-05	4e-05	1e-05	4e-05	-0.00012	-5e-05	2
6873	-0.00012	8e-05	7e-05	4e-05	1e-05	4e-05	-0.00012	-5e-05	2
6874	-0.00012	8e-05	7e-05	4e-05	1e-05	4e-05	-0.00012	-5e-05	2
6875	-0.00012	8e-05	7e-05	4e-05	1e-05	4e-05	-0.00012	-5e-05	2
6876	-0.00012	8e-05	7e-05	4e-05	1e-05	4e-05	-0.00012	-5e-05	2
6877	-0.00012	8e-05	7e-05	4e-05	1e-05	4e-05	-0.00012	-5e-05	2
6878	-0.00012	8e-05	7e-05	4e-05	1e-05	4e-05	-0.00012	-5e-05	2
6879	-0.00012	8e-05	7e-05	4e-05	1e-05	4e-05	-0.00012	-5e-05	2
6880	-0.00012	8e-05	7e-05	4e-05	1e-05	4e-05	-0.00012	-5e-05	2
6881	-0.00012	8e-05	7e-05	4e-05	1e-05	4e-05	-0.00012	-5e-05	2
6882	-0.00012	8e-05	7e-05	4e-05	1e-05	4e-05	-0.00012	-5e-05	2
6883	-0.00012	8e-05	7e-05	4e-05	1e-05	4e-05	-0.00012	-5e-05	2
6884	-0.00012	8e-05	7e-05	4e-05	1e-05	4e-05	-0.00012	-5e-05	2
6885	-0.00012	8e-05	7e-05	4e-05	1e-05	4e-05	-0.00012	-5e-05	2
6886	-0.00012	8e-05	7e-05	4e-05	1e-05	4e-05	-0.00012	-5e-05	2
6889	-0.00046	-0.00013	8e-05	0.00022	0.00049	0.00018	0.0009	0.00016	2
6890	-0.00046	-0.00013	8e-05	0.00022	0.00049	0.00018	0.0009	0.00016	2
6891	-0.00046	-0.00013	8e-05	0.00022	0.00049	0.00018	0.0009	0.00016	2
6892	-0.00046	-0.00013	8e-05	0.00022	0.00049	0.00018	0.0009	0.00016	2
6893	0.00036	-3e-05	-0.00025	-0.0003	-0.00028	-3e-05	1e-05	0	2
6894	0.00036	-3e-05	-0.00025	-0.0003	-0.00028	-3e-05	1e-05	0	2
6895	0.00036	-3e-05	-0.00025	-0.0003	-0.00028	-3e-05	1e-05	0	2
6896	0.00036	-3e-05	-0.00025	-0.0003	-0.00028	-3e-05	1e-05	0	2
6897	0.00036	-3e-05	-0.00025	-0.0003	-0.00028	-3e-05	1e-05	0	2
6898	0.00036	-3e-05	-0.00025	-0.0003	-0.00028	-3e-05	1e-05	0	2
6899	0.00036	-3e-05	-0.00025	-0.0003	-0.00028	-3e-05	1e-05	0	2
6900	0.00036	-3e-05	-0.00025	-0.0003	-0.00028	-3e-05	1e-05	0	2
6901	0.00036	-3e-05	-0.00025	-0.0003	-0.00028	-3e-05	1e-05	0	2
6902	0.00036	-3e-05	-0.00025	-0.0003	-0.00028	-3e-05	1e-05	0	2
6903	0.00036	-3e-05	-0.00025	-0.0003	-0.00028	-3e-05	1e-05	0	2
6904	0.00036	-3e-05	-0.00025	-0.0003	-0.00028	-3e-05	1e-05	0	2
6905	0.00036	-3e-05	-0.00025	-0.0003	-0.00028	-3e-05	1e-05	0	2
6906	0.00036	-3e-05	-0.00025	-0.0003	-0.00028	-3e-05	1e-05	0	2
6907	0.00036	-3e-05	-0.00025	-0.0003	-0.00028	-3e-05	1e-05	0	2
6908	0.00036	-3e-05	-0.00025	-0.0003	-0.00028	-3e-05	1e-05	0	2
6909	5e-05	-1e-05	9e-05	-4e-05	-0.00019	-0.00013	-0.00041	-6e-05	2
6910	5e-05	-1e-05	9e-05	-4e-05	-0.00019	-0.00013	-0.00041	-6e-05	2
6911	9e-05	-2e-05	0.00011	8e-05	-0.00032	0.00024	0.00071	9e-05	2
6912	-0.00041	9e-05	-8e-05	8e-05	0.00029	-0.00011	-0.00068	-0.00011	2
6913	-0.00041	9e-05	-8e-05	8e-05	0.00029	-0.00011	-0.00068	-0.00011	2
6914	-0.00041	9e-05	-8e-05	8e-05	0.00029	-0.00011	-0.00068	-0.00011	2
6915	-0.00041	9e-05	-8e-05	8e-05	0.00029	-0.00011	-0.00068	-0.00011	2
6916	-0.00041	9e-05	-8e-05	8e-05	0.00029	-0.00011	-0.00068	-0.00011	2
6917	-0.00041	9e-05	-8e-05	8e-05	0.00029	-0.00011	-0.00068	-0.00011	2
6918	-0.00041	9e-05	-8e-05	8e-05	0.00029	-0.00011	-0.00068	-0.00011	2
6919	-0.00041	9e-05	-8e-05	8e-05	0.00029	-0.00011	-0.00068	-0.00011	2
6920	-0.00041	9e-05	-8e-05	8e-05	0.00029	-0.00011	-0.00068	-0.00011	2
6921	-0.00041	9e-05	-8e-05	8e-05	0.00029	-0.00011	-0.00068	-0.00011	2
6922	-0.00041	9e-05	-8e-05	8e-05	0.00029	-0.00011	-0.00068	-0.00011	2
6923	-0.00041	9e-05	-8e-05	8e-05	0.00029	-0.00011	-0.00068	-0.00011	2
6924	0.00014	0.00012	4e-05	0.0002	0.00011	9e-05	-0.00055	-6e-05	2
6925	0.00014	0.00012	4e-05	0.0002	0.00011	9e-05	-0.00055	-6e-05	2
6926	-4e-05	-0.0001	6e-05	0.0001	-0.00023	8e-05	-4e-05	-6e-05	2
6927	-4e-05	-0.0001	6e-05	0.0001	-0.00023	8e-05	-4e-05	-6e-05	2
6928	-4e-05	-0.0001	6e-05	0.0001	-0.00023	8e-05	-4e-05	-6e-05	2
6929	-4e-05	-0.0001	6e-05	0.0001	-0.00023	8e-05	-4e-05	-6e-05	2
6930	-4e-05	-0.0001	6e-05	0.0001	-0.00023	8e-05	-4e-05	-6e-05	2
6931	-4e-05	-0.0001	6e-05	0.0001	-0.00023	8e-05	-4e-05	-6e-05	2
6932	-4e-05	-0.0001	6e-05	0.0001	-0.00023	8e-05	-4e-05	-6e-05	2
6933	-4e-05	-0.0001	6e-05	0.0001	-0.00023	8e-05	-4e-05	-6e-05	2
6934	-4e-05	-0.0001	6e-05	0.0001	-0.00023	8e-05	-4e-05	-6e-05	2
6935	-4e-05	-0.0001	6e-05	0.0001	-0.00023	8e-05	-4e-05	-6e-05	2
6936	-4e-05	-0.0001	6e-05	0.0001	-0.00023	8e-05	-4e-05	-6e-05	2
6938	-4e-05	-0.0001	6e-05	0.0001	-0.00023	8e-05	-4e-05	-6e-05	2
6939	-4e-05	-0.0001	6e-05	0.0001	-0.00023	8e-05	-4e-05	-6e-05	2
6940	-4e-05	-0.0001	6e-05	0.0001	-0.00023	8e-05	-4e-05	-6e-05	2
6941	-4e-05	-0.0001	6e-05	0.0001	-0.00023	8e-05	-4e-05	-6e-05	2
6942	-4e-05	-0.0001	6e-05	0.0001	-0.00023	8e-05	-4e-05	-6e-05	2
6943	-4e-05	-0.0001	6e-05	0.0001	-0.00023	8e-05	-4e-05	-6e-05	2
6944	-4e-05	-0.0001	6e-05	0.0001	-0.00023	8e-05	-4e-05	-6e-05	2
6945	-4e-05	-0.0001	6e-05	0.0001	-0.00023	8e-05	-4e-05	-6e-05	2
6946	-4e-05	-0.0001	6e-05	0.0001	-0.00023	8e-05	-4e-05	-6e-05	2
6947	0.00027	-3e-05	-0.00032	-0.00021	-0.0001	-0.0002	-8e-05	-7e-05	2
6948	-9e-05	-0.00053	4e-05	7e-05	-7e-05	-0.00019	-0.00039	-0.00016	2
6949	-0.00021	0.00024	0.00013	0	0.00021	0.00016	0.00028	1e-05	2
6950	-0.00021	0.00024	0.00013	0	0.00021	0.00016	0.00028	1e-05	2
6951	-0.00021	0.00024	0.00013	0	0.00021	0.00016	0.00028	1e-05	2
6952	-0.00021	0.00024	0.00013	0	0.00021	0.00016	0.00028	1e-05	2
6953	-0.00021	0.00024	0.00013	0	0.00021	0.00016	0.00028	1e-05	2
6954	-0.00021	0.00024	0.00013	0	0.00021	0.00016	0.00028	1e-05	2
6955	-0.00021	0.00024	0.00013	0	0.00021	0.00016	0.00028	1e-05	2
6956	-0.00021	0.00024	0.00013	0	0.00021	0.00016	0.00028	1e-05	2
6957	-0.00021	0.00024	0.00013	0	0.00021	0.00016	0.00028	1e-05	2
6958	-0.00021	0.00024	0.00013	0	0.00021	0.00016	0.00028	1e-05	2
6959	-0.00021	0.00024	0.00013	0	0.00021	0.00016	0.00028	1e-05	2
6960	-0.00021	0.00024	0.00013	0	0.00021	0.00016	0.00028	1e-05	2
6961	-0.00021	0.00024	0.00013	0	0.00021	0.00016	0.00028	1e-05	2
6962	-0.00021	0.00024	0.00013	0	0.00021	0.00016	0.00028	1e-05	2
6963	-0.00021	0.00024	0.00013	0	0.00021	0.00016	0.00028	1e-05	2
6964	-0.00021	0.00024	0.00013	0	0.00021	0.00016	0.00028	1e-05	2
6965	-0.00021	0.00024	0.00013	0	0.00021	0.00016	0.00028	1e-05	2
6966	-0.00021	0.00024	0.00013	0	0.00021	0.00016	0.00028	1e-05	2
6967	-0.00021	0.00024	0.00013	0	0.00021	0.00016	0.00028	1e-05	2
6968	-0.00021	0.00024	0.00013	0	0.00021	0.00016	0.00028	1e-05	2
6969	0.00015	0.00021	-0.00021	-0.0001	-5e-05	-0.00015	-0.0005	-6e-05	2
6970	0.00015	0.00021	-0.00021	-0.0001	-5e-05	-0.00015	-0.0005	-6e-05	2
6971	-2e-05	7e-05	0.00026	0.00023	0.00032	6e-05	-2e-05	0.00012	2
6972	-2e-05	7e-05	0.00026	0.00023	0.00032	6e-05	-2e-05	0.00012	2
6973	-2e-05	7e-05	0.00026	0.00023	0.00032	6e-05	-2e-05	0.00012	2
6974	-2e-05	7e-05	0.00026	0.00023	0.00032	6e-05	-2e-05	0.00012	2
6975	-2e-05	7e-05	0.00026	0.00023	0.00032	6e-05	-2e-05	0.00012	2
6976	-2e-05	7e-05	0.00026	0.00023	0.00032	6e-05	-2e-05	0.00012	2
6977	-2e-05	7e-05	0.00026	0.00023	0.00032	6e-05	-2e-05	0.00012	2
6978	-2e-05	7e-05	0.00026	0.00023	0.00032	6e-05	-2e-05	0.00012	2
6979	-2e-05	7e-05	0.00026	0.00023	0.00032	6e-05	-2e-05	0.00012	2
6980	-2e-05	7e-05	0.00026	0.00023	0.00032	6e-05	-2e-05	0.00012	2
6981	-2e-05	7e-05	0.00026	0.00023	0.00032	6e-05	-2e-05	0.00012	2
6982	-2e-05	7e-05	0.00026	0.00023	0.00032	6e-05	-2e-05	0.00012	2
6983	-2e-05	7e-05	0.00026	0.00023	0.00032	6e-05	-2e-05	0.00012	2
6984	-0.00028	-1e-05	0.00017	0.00013	6e-05	3e-05	0.00068	1e-05	2
6985	-0.00028	-1e-05	0.00017	0.00013	6e-05	3e-05	0.00068	1e-05	2
6986	1e-05	-0.00017	3e-05	4e-05	5e-05	-2e-05	3e-05	-0.00013	2
6988	1e-05	-0.00017	3e-05	4e-05	5e-05	-2e-05	3e-05	-0.00013	2
6989	1e-05	-0.00017	3e-05	4e-05	5e-05	-2e-05	3e-05	-0.00013	2
6990	1e-05	-0.00017	3e-05	4e-05	5e-05	-2e-05	3e-05	-0.00013	2
6991	1e-05	-0.00017	3e-05	4e-05	5e-05	-2e-05	3e-05	-0.00013	2
6992	1e-05	-0.00017	3e-05	4e-05	5e-05	-2e-05	3e-05	-0.00013	2
6993	1e-05	-0.00017	3e-05	4e-05	5e-05	-2e-05	3e-05	-0.00013	2
6994	1e-05	-0.00017	3e-05	4e-05	5e-05	-2e-05	3e-05	-0.00013	2
6995	1e-05	-0.00017	3e-05	4e-05	5e-05	-2e-05	3e-05	-0.00013	2
6996	1e-05	-0.00017	3e-05	4e-05	5e-05	-2e-05	3e-05	-0.00013	2
6997	1e-05	-0.00017	3e-05	4e-05	5e-05	-2e-05	3e-05	-0.00013	2
6998	1e-05	-0.00017	3e-05	4e-05	5e-05	-2e-05	3e-05	-0.00013	2
6999	1e-05	-0.00017	3e-05	4e-05	5e-05	-2e-05	3e-05	-0.00013	2
7001	1e-05	-0.00017	3e-05	4e-05	5e-05	-2e-05	3e-05	-0.00013	2
7002	1e-05	-0.00017	3e-05	4e-05	5e-05	-2e-05	3e-05	-0.00013	2
7003	1e-05	-0.00017	3e-05	4e-05	5e-05	-2e-05	3e-05	-0.00013	2
7004	1e-05	-0.00017	3e-05	4e-05	5e-05	-2e-05	3e-05	-0.00013	2
7005	1e-05	-0.00017	3e-05	4e-05	5e-05	-2e-05	3e-05	-0.00013	2
7006	1e-05	-0.00017	3e-05	4e-05	5e-05	-2e-05	3e-05	-0.00013	2
7007	0.00031	-1e-05	0.00014	5e-05	0.00012	6e-05	-0.00028	0.00037	2
7008	0.00033	0.00048	0.00025	-5e-05	-0.00026	0.00027	0.0008	0.00011	2
7009	0.00033	0.00048	0.00025	-5e-05	-0.00026	0.00027	0.0008	0.00011	2
7010	0.00033	0.00048	0.00025	-5e-05	-0.00026	0.00027	0.0008	0.00011	2
7011	0.00033	0.00048	0.00025	-5e-05	-0.00026	0.00027	0.0008	0.00011	2
7012	0.00033	0.00048	0.00025	-5e-05	-0.00026	0.00027	0.0008	0.00011	2
7013	0.00033	0.00048	0.00025	-5e-05	-0.00026	0.00027	0.0008	0.00011	2
7014	0.00033	0.00048	0.00025	-5e-05	-0.00026	0.00027	0.0008	0.00011	2
7015	0.00033	0.00048	0.00025	-5e-05	-0.00026	0.00027	0.0008	0.00011	2
7016	0.00033	0.00048	0.00025	-5e-05	-0.00026	0.00027	0.0008	0.00011	2
7017	0.00033	0.00048	0.00025	-5e-05	-0.00026	0.00027	0.0008	0.00011	2
7018	0.00033	0.00048	0.00025	-5e-05	-0.00026	0.00027	0.0008	0.00011	2
7019	0.00033	0.00048	0.00025	-5e-05	-0.00026	0.00027	0.0008	0.00011	2
7020	0.00033	0.00048	0.00025	-5e-05	-0.00026	0.00027	0.0008	0.00011	2
7021	-0.00033	-0.00038	-0.00027	-0.0002	0	0.0001	-0.0002	-0.00023	2
7022	-0.00033	-0.00038	-0.00027	-0.0002	0	0.0001	-0.0002	-0.00023	2
7023	-0.00033	-0.00038	-0.00027	-0.0002	0	0.0001	-0.0002	-0.00023	2
7024	-0.00033	-0.00038	-0.00027	-0.0002	0	0.0001	-0.0002	-0.00023	2
7025	-0.00033	-0.00038	-0.00027	-0.0002	0	0.0001	-0.0002	-0.00023	2
7026	-0.00033	-0.00038	-0.00027	-0.0002	0	0.0001	-0.0002	-0.00023	2
7027	-0.00033	-0.00038	-0.00027	-0.0002	0	0.0001	-0.0002	-0.00023	2
7028	-0.00033	-0.00038	-0.00027	-0.0002	0	0.0001	-0.0002	-0.00023	2
7029	0.00042	-2e-05	2e-05	0.00019	0.00037	0.00045	2e-05	0.00026	2
7030	0.00042	-2e-05	2e-05	0.00019	0.00037	0.00045	2e-05	0.00026	2
7031	0.00042	-2e-05	2e-05	0.00019	0.00037	0.00045	2e-05	0.00026	2
7032	0.00042	-2e-05	2e-05	0.00019	0.00037	0.00045	2e-05	0.00026	2
7033	0.00042	-2e-05	2e-05	0.00019	0.00037	0.00045	2e-05	0.00026	2
7034	0.00042	-2e-05	2e-05	0.00019	0.00037	0.00045	2e-05	0.00026	2
7035	0.00042	-2e-05	2e-05	0.00019	0.00037	0.00045	2e-05	0.00026	2
7036	0.00042	-2e-05	2e-05	0.00019	0.00037	0.00045	2e-05	0.00026	2
7039	0.00042	-2e-05	2e-05	0.00019	0.00037	0.00045	2e-05	0.00026	2
7040	0.00042	-2e-05	2e-05	0.00019	0.00037	0.00045	2e-05	0.00026	2
7041	0.00042	-2e-05	2e-05	0.00019	0.00037	0.00045	2e-05	0.00026	2
7042	0.00042	-2e-05	2e-05	0.00019	0.00037	0.00045	2e-05	0.00026	2
7043	0.00042	-2e-05	2e-05	0.00019	0.00037	0.00045	2e-05	0.00026	2
7044	0.00042	-2e-05	2e-05	0.00019	0.00037	0.00045	2e-05	0.00026	2
7045	-0.00066	0	-0.0001	-0.0002	0.00012	-0.00019	0.00034	-0.0004	2
7046	0.00026	0.00026	-4e-05	-0.0003	-0.00031	-0.00012	0.00021	-6e-05	2
7047	0.00026	0.00026	-4e-05	-0.0003	-0.00031	-0.00012	0.00021	-6e-05	2
7048	0.00026	0.00026	-4e-05	-0.0003	-0.00031	-0.00012	0.00021	-6e-05	2
7049	0.00026	0.00026	-4e-05	-0.0003	-0.00031	-0.00012	0.00021	-6e-05	2
7050	0.00026	0.00026	-4e-05	-0.0003	-0.00031	-0.00012	0.00021	-6e-05	2
7051	0.00026	0.00026	-4e-05	-0.0003	-0.00031	-0.00012	0.00021	-6e-05	2
7052	0.00026	0.00026	-4e-05	-0.0003	-0.00031	-0.00012	0.00021	-6e-05	2
7053	0.00026	0.00026	-4e-05	-0.0003	-0.00031	-0.00012	0.00021	-6e-05	2
7054	0.00026	0.00026	-4e-05	-0.0003	-0.00031	-0.00012	0.00021	-6e-05	2
7055	0.00026	0.00026	-4e-05	-0.0003	-0.00031	-0.00012	0.00021	-6e-05	2
7056	0.00026	0.00026	-4e-05	-0.0003	-0.00031	-0.00012	0.00021	-6e-05	2
7057	0.00026	0.00026	-4e-05	-0.0003	-0.00031	-0.00012	0.00021	-6e-05	2
7058	0.00026	0.00026	-4e-05	-0.0003	-0.00031	-0.00012	0.00021	-6e-05	2
7059	0.00026	0.00026	-4e-05	-0.0003	-0.00031	-0.00012	0.00021	-6e-05	2
7060	0.00026	0.00026	-4e-05	-0.0003	-0.00031	-0.00012	0.00021	-6e-05	2
7061	0.00026	0.00026	-4e-05	-0.0003	-0.00031	-0.00012	0.00021	-6e-05	2
7062	0.00026	0.00026	-4e-05	-0.0003	-0.00031	-0.00012	0.00021	-6e-05	2
7063	0.00026	0.00026	-4e-05	-0.0003	-0.00031	-0.00012	0.00021	-6e-05	2
7064	0.00026	0.00026	-4e-05	-0.0003	-0.00031	-0.00012	0.00021	-6e-05	2
7065	0.00026	0.00026	-4e-05	-0.0003	-0.00031	-0.00012	0.00021	-6e-05	2
7066	0.00026	0.00026	-4e-05	-0.0003	-0.00031	-0.00012	0.00021	-6e-05	2
7067	0.00026	0.00026	-4e-05	-0.0003	-0.00031	-0.00012	0.00021	-6e-05	2
7068	0.00026	0.00026	-4e-05	-0.0003	-0.00031	-0.00012	0.00021	-6e-05	2
7069	0.00026	0.00026	-4e-05	-0.0003	-0.00031	-0.00012	0.00021	-6e-05	2
7070	0.00026	0.00026	-4e-05	-0.0003	-0.00031	-0.00012	0.00021	-6e-05	2
7071	0.00026	0.00026	-4e-05	-0.0003	-0.00031	-0.00012	0.00021	-6e-05	2
7072	0.00026	0.00026	-4e-05	-0.0003	-0.00031	-0.00012	0.00021	-6e-05	2
7073	0.00026	0.00026	-4e-05	-0.0003	-0.00031	-0.00012	0.00021	-6e-05	2
7074	-3e-05	-6e-05	-7e-05	-1e-05	-0.00041	-0.0003	-0.00061	-0.00034	2
7075	-3e-05	-6e-05	-7e-05	-1e-05	-0.00041	-0.0003	-0.00061	-0.00034	2
7076	-4e-05	-0.00022	-0.00031	-0.00025	0.00021	-0.00019	-0.00059	-0.00021	2
7077	-4e-05	-0.00022	-0.00031	-0.00025	0.00021	-0.00019	-0.00059	-0.00021	2
7078	-4e-05	-0.00022	-0.00031	-0.00025	0.00021	-0.00019	-0.00059	-0.00021	2
7079	-4e-05	-0.00022	-0.00031	-0.00025	0.00021	-0.00019	-0.00059	-0.00021	2
7080	-4e-05	-0.00022	-0.00031	-0.00025	0.00021	-0.00019	-0.00059	-0.00021	2
7081	-0.00013	0.00024	-0.00022	-0.00026	-0.00023	-0.00019	0.00054	7e-05	2
7082	-0.00013	0.00024	-0.00022	-0.00026	-0.00023	-0.00019	0.00054	7e-05	2
7083	-0.00013	0.00024	-0.00022	-0.00026	-0.00023	-0.00019	0.00054	7e-05	2
7084	-0.00013	0.00024	-0.00022	-0.00026	-0.00023	-0.00019	0.00054	7e-05	2
7085	-0.00013	0.00024	-0.00022	-0.00026	-0.00023	-0.00019	0.00054	7e-05	2
7086	-0.00013	0.00024	-0.00022	-0.00026	-0.00023	-0.00019	0.00054	7e-05	2
7088	-0.00013	0.00024	-0.00022	-0.00026	-0.00023	-0.00019	0.00054	7e-05	2
7089	-0.00013	0.00024	-0.00022	-0.00026	-0.00023	-0.00019	0.00054	7e-05	2
7090	-0.00055	-0.0004	-0.0001	5e-05	0.00038	-0.00026	-0.00063	2e-05	2
7091	-0.00055	-0.0004	-0.0001	5e-05	0.00038	-0.00026	-0.00063	2e-05	2
7092	-0.00055	-0.0004	-0.0001	5e-05	0.00038	-0.00026	-0.00063	2e-05	2
7093	-0.00055	-0.0004	-0.0001	5e-05	0.00038	-0.00026	-0.00063	2e-05	2
7094	-0.00055	-0.0004	-0.0001	5e-05	0.00038	-0.00026	-0.00063	2e-05	2
7095	-0.00055	-0.0004	-0.0001	5e-05	0.00038	-0.00026	-0.00063	2e-05	2
7096	-0.00055	-0.0004	-0.0001	5e-05	0.00038	-0.00026	-0.00063	2e-05	2
7097	-0.00055	-0.0004	-0.0001	5e-05	0.00038	-0.00026	-0.00063	2e-05	2
7098	-0.00055	-0.0004	-0.0001	5e-05	0.00038	-0.00026	-0.00063	2e-05	2
7099	-0.00055	-0.0004	-0.0001	5e-05	0.00038	-0.00026	-0.00063	2e-05	2
7100	-0.00055	-0.0004	-0.0001	5e-05	0.00038	-0.00026	-0.00063	2e-05	2
7101	-0.00055	-0.0004	-0.0001	5e-05	0.00038	-0.00026	-0.00063	2e-05	2
7102	-0.00055	-0.0004	-0.0001	5e-05	0.00038	-0.00026	-0.00063	2e-05	2
7103	-0.00055	-0.0004	-0.0001	5e-05	0.00038	-0.00026	-0.00063	2e-05	2
7104	0.00034	0.00013	4e-05	0.00021	-0.00018	0.00014	0.00073	0.00032	2
7105	0.00034	0.00013	4e-05	0.00021	-0.00018	0.00014	0.00073	0.00032	2
7106	-0.00044	-1e-05	-7e-05	-5e-05	-0.00012	-0.00028	-0.00057	-0.00031	2
7107	-0.00044	-1e-05	-7e-05	-5e-05	-0.00012	-0.00028	-0.00057	-0.00031	2
7108	-0.00044	-1e-05	-7e-05	-5e-05	-0.00012	-0.00028	-0.00057	-0.00031	2
7109	-0.00044	-1e-05	-7e-05	-5e-05	-0.00012	-0.00028	-0.00057	-0.00031	2
7110	-0.00044	-1e-05	-7e-05	-5e-05	-0.00012	-0.00028	-0.00057	-0.00031	2
7111	-0.00044	-1e-05	-7e-05	-5e-05	-0.00012	-0.00028	-0.00057	-0.00031	2
7112	-0.00044	-1e-05	-7e-05	-5e-05	-0.00012	-0.00028	-0.00057	-0.00031	2
7113	-0.00044	-1e-05	-7e-05	-5e-05	-0.00012	-0.00028	-0.00057	-0.00031	2
7114	-0.00044	-1e-05	-7e-05	-5e-05	-0.00012	-0.00028	-0.00057	-0.00031	2
7115	-0.00044	-1e-05	-7e-05	-5e-05	-0.00012	-0.00028	-0.00057	-0.00031	2
7116	-0.00044	-1e-05	-7e-05	-5e-05	-0.00012	-0.00028	-0.00057	-0.00031	2
7117	-0.00044	-1e-05	-7e-05	-5e-05	-0.00012	-0.00028	-0.00057	-0.00031	2
7118	-0.00044	-1e-05	-7e-05	-5e-05	-0.00012	-0.00028	-0.00057	-0.00031	2
7120	-0.00044	-1e-05	-7e-05	-5e-05	-0.00012	-0.00028	-0.00057	-0.00031	2
7121	-0.00044	-1e-05	-7e-05	-5e-05	-0.00012	-0.00028	-0.00057	-0.00031	2
7122	-0.00044	-1e-05	-7e-05	-5e-05	-0.00012	-0.00028	-0.00057	-0.00031	2
7123	-0.00044	-1e-05	-7e-05	-5e-05	-0.00012	-0.00028	-0.00057	-0.00031	2
7124	-0.00044	-1e-05	-7e-05	-5e-05	-0.00012	-0.00028	-0.00057	-0.00031	2
7125	-0.00044	-1e-05	-7e-05	-5e-05	-0.00012	-0.00028	-0.00057	-0.00031	2
7126	-0.00044	-1e-05	-7e-05	-5e-05	-0.00012	-0.00028	-0.00057	-0.00031	2
7127	0.00014	0.00017	0.0001	-0.0001	0.00012	6e-05	-0.00034	5e-05	2
7128	0.00014	0.00017	0.0001	-0.0001	0.00012	6e-05	-0.00034	5e-05	2
7129	-0.00024	-0.00023	0.00022	0.00032	0.00019	-4e-05	2e-05	-0.00025	2
7130	-0.00024	-0.00023	0.00022	0.00032	0.00019	-4e-05	2e-05	-0.00025	2
7131	-0.00024	-0.00023	0.00022	0.00032	0.00019	-4e-05	2e-05	-0.00025	2
7132	-0.00024	-0.00023	0.00022	0.00032	0.00019	-4e-05	2e-05	-0.00025	2
7133	-0.00024	-0.00023	0.00022	0.00032	0.00019	-4e-05	2e-05	-0.00025	2
7134	-0.00024	-0.00023	0.00022	0.00032	0.00019	-4e-05	2e-05	-0.00025	2
7135	-0.00024	-0.00023	0.00022	0.00032	0.00019	-4e-05	2e-05	-0.00025	2
7136	-0.00024	-0.00023	0.00022	0.00032	0.00019	-4e-05	2e-05	-0.00025	2
7138	-0.00024	-0.00023	0.00022	0.00032	0.00019	-4e-05	2e-05	-0.00025	2
7139	-0.00024	-0.00023	0.00022	0.00032	0.00019	-4e-05	2e-05	-0.00025	2
7140	-0.00024	-0.00023	0.00022	0.00032	0.00019	-4e-05	2e-05	-0.00025	2
7141	0.0001	0.00016	9e-05	-0.00022	-2e-05	-3e-05	0.00016	0.0001	2
7142	0.0001	0.00016	9e-05	-0.00022	-2e-05	-3e-05	0.00016	0.0001	2
7143	0.0001	0.00016	9e-05	-0.00022	-2e-05	-3e-05	0.00016	0.0001	2
7144	0.0001	0.00016	9e-05	-0.00022	-2e-05	-3e-05	0.00016	0.0001	2
7145	0.0001	0.00016	9e-05	-0.00022	-2e-05	-3e-05	0.00016	0.0001	2
7146	0.0001	0.00016	9e-05	-0.00022	-2e-05	-3e-05	0.00016	0.0001	2
7147	0.0001	0.00016	9e-05	-0.00022	-2e-05	-3e-05	0.00016	0.0001	2
7148	-1e-05	1e-05	3e-05	-4e-05	-0.00017	-0.00038	-0.00028	6e-05	2
7149	-1e-05	1e-05	3e-05	-4e-05	-0.00017	-0.00038	-0.00028	6e-05	2
7150	-1e-05	1e-05	3e-05	-4e-05	-0.00017	-0.00038	-0.00028	6e-05	2
7151	-1e-05	1e-05	3e-05	-4e-05	-0.00017	-0.00038	-0.00028	6e-05	2
7152	-1e-05	1e-05	3e-05	-4e-05	-0.00017	-0.00038	-0.00028	6e-05	2
7153	-1e-05	1e-05	3e-05	-4e-05	-0.00017	-0.00038	-0.00028	6e-05	2
7154	-1e-05	1e-05	3e-05	-4e-05	-0.00017	-0.00038	-0.00028	6e-05	2
7155	-1e-05	1e-05	3e-05	-4e-05	-0.00017	-0.00038	-0.00028	6e-05	2
7156	-1e-05	1e-05	3e-05	-4e-05	-0.00017	-0.00038	-0.00028	6e-05	2
7157	-1e-05	1e-05	3e-05	-4e-05	-0.00017	-0.00038	-0.00028	6e-05	2
7158	-1e-05	1e-05	3e-05	-4e-05	-0.00017	-0.00038	-0.00028	6e-05	2
7159	-1e-05	1e-05	3e-05	-4e-05	-0.00017	-0.00038	-0.00028	6e-05	2
7160	-1e-05	1e-05	3e-05	-4e-05	-0.00017	-0.00038	-0.00028	6e-05	2
7161	-1e-05	1e-05	3e-05	-4e-05	-0.00017	-0.00038	-0.00028	6e-05	2
7162	-1e-05	1e-05	3e-05	-4e-05	-0.00017	-0.00038	-0.00028	6e-05	2
7163	-1e-05	1e-05	3e-05	-4e-05	-0.00017	-0.00038	-0.00028	6e-05	2
7164	-0.0003	1e-05	7e-05	9e-05	-0.00014	-0.00013	-0.00031	2e-05	2
7165	0.00066	0.00024	0.00019	0.00025	0.00028	0.00024	-0.00014	6e-05	2
7166	2e-05	-0.00024	-0.00026	-0.00013	5e-05	0.00029	0.00078	0.0001	2
7167	2e-05	-0.00024	-0.00026	-0.00013	5e-05	0.00029	0.00078	0.0001	2
7168	2e-05	-0.00024	-0.00026	-0.00013	5e-05	0.00029	0.00078	0.0001	2
7169	2e-05	-0.00024	-0.00026	-0.00013	5e-05	0.00029	0.00078	0.0001	2
7170	2e-05	-0.00024	-0.00026	-0.00013	5e-05	0.00029	0.00078	0.0001	2
7171	2e-05	-0.00024	-0.00026	-0.00013	5e-05	0.00029	0.00078	0.0001	2
7172	2e-05	-0.00024	-0.00026	-0.00013	5e-05	0.00029	0.00078	0.0001	2
7173	2e-05	-0.00024	-0.00026	-0.00013	5e-05	0.00029	0.00078	0.0001	2
7174	2e-05	-0.00024	-0.00026	-0.00013	5e-05	0.00029	0.00078	0.0001	2
7175	2e-05	-0.00024	-0.00026	-0.00013	5e-05	0.00029	0.00078	0.0001	2
7176	2e-05	-0.00024	-0.00026	-0.00013	5e-05	0.00029	0.00078	0.0001	2
7177	2e-05	-0.00024	-0.00026	-0.00013	5e-05	0.00029	0.00078	0.0001	2
7178	2e-05	-0.00024	-0.00026	-0.00013	5e-05	0.00029	0.00078	0.0001	2
7179	2e-05	-0.00024	-0.00026	-0.00013	5e-05	0.00029	0.00078	0.0001	2
7180	2e-05	-0.00024	-0.00026	-0.00013	5e-05	0.00029	0.00078	0.0001	2
7181	2e-05	-0.00024	-0.00026	-0.00013	5e-05	0.00029	0.00078	0.0001	2
7182	2e-05	-0.00024	-0.00026	-0.00013	5e-05	0.00029	0.00078	0.0001	2
7183	2e-05	-0.00024	-0.00026	-0.00013	5e-05	0.00029	0.00078	0.0001	2
7184	2e-05	-0.00024	-0.00026	-0.00013	5e-05	0.00029	0.00078	0.0001	2
7185	2e-05	-0.00024	-0.00026	-0.00013	5e-05	0.00029	0.00078	0.0001	2
7186	2e-05	-0.00024	-0.00026	-0.00013	5e-05	0.00029	0.00078	0.0001	2
7189	0.00022	0.00013	-0.00019	-0.00023	-0.00042	0.00018	0.00055	0.00019	2
7190	0.00022	0.00013	-0.00019	-0.00023	-0.00042	0.00018	0.00055	0.00019	2
7191	0.00022	0.00013	-0.00019	-0.00023	-0.00042	0.00018	0.00055	0.00019	2
7192	0.00022	0.00013	-0.00019	-0.00023	-0.00042	0.00018	0.00055	0.00019	2
7193	0.00022	0.00013	-0.00019	-0.00023	-0.00042	0.00018	0.00055	0.00019	2
7194	0.00022	0.00013	-0.00019	-0.00023	-0.00042	0.00018	0.00055	0.00019	2
7195	0.00022	0.00013	-0.00019	-0.00023	-0.00042	0.00018	0.00055	0.00019	2
7196	0.00022	0.00013	-0.00019	-0.00023	-0.00042	0.00018	0.00055	0.00019	2
35254	0.00042	-0.00022	7e-05	0.00015	-0.0001	-0.00048	-0.00023	0.00034	2
35255	0.00042	-0.00022	7e-05	0.00015	-0.0001	-0.00048	-0.00023	0.00034	2
35256	0.00042	-0.00022	7e-05	0.00015	-0.0001	-0.00048	-0.00023	0.00034	2
35257	0.00042	-0.00022	7e-05	0.00015	-0.0001	-0.00048	-0.00023	0.00034	2
35258	0.00042	-0.00022	7e-05	0.00015	-0.0001	-0.00048	-0.00023	0.00034	2
35259	0.00042	-0.00022	7e-05	0.00015	-0.0001	-0.00048	-0.00023	0.00034	2
35260	0.00042	-0.00022	7e-05	0.00015	-0.0001	-0.00048	-0.00023	0.00034	2
35261	-0.00062	-0.00046	0	-0.0004	0.00037	0	-0.00045	-0.00042	2
35262	-0.00062	-0.00046	0	-0.0004	0.00037	0	-0.00045	-0.00042	2
35263	-0.00062	-0.00046	0	-0.0004	0.00037	0	-0.00045	-0.00042	2
35264	-0.00062	-0.00046	0	-0.0004	0.00037	0	-0.00045	-0.00042	2
35265	-0.00062	-0.00046	0	-0.0004	0.00037	0	-0.00045	-0.00042	2
35266	-0.00062	-0.00046	0	-0.0004	0.00037	0	-0.00045	-0.00042	2
35267	-0.00062	-0.00046	0	-0.0004	0.00037	0	-0.00045	-0.00042	2
35268	-0.00062	-0.00046	0	-0.0004	0.00037	0	-0.00045	-0.00042	2
35269	-0.00062	-0.00046	0	-0.0004	0.00037	0	-0.00045	-0.00042	2
35270	-0.00062	-0.00046	0	-0.0004	0.00037	0	-0.00045	-0.00042	2
35271	-0.00062	-0.00046	0	-0.0004	0.00037	0	-0.00045	-0.00042	2
35272	-0.00062	-0.00046	0	-0.0004	0.00037	0	-0.00045	-0.00042	2
35273	-0.00062	-0.00046	0	-0.0004	0.00037	0	-0.00045	-0.00042	2
35274	-0.00046	-0.00029	-0.00031	-0.00107	-0.00048	-0.0003	-0.00033	-0.00029	2
35275	-0.00046	-0.00029	-0.00031	-0.00107	-0.00048	-0.0003	-0.00033	-0.00029	2
35276	-0.00046	-0.00029	-0.00031	-0.00107	-0.00048	-0.0003	-0.00033	-0.00029	2
35277	-0.00046	-0.00029	-0.00031	-0.00107	-0.00048	-0.0003	-0.00033	-0.00029	2
35278	-0.00046	-0.00029	-0.00031	-0.00107	-0.00048	-0.0003	-0.00033	-0.00029	2
35279	-0.00046	-0.00029	-0.00031	-0.00107	-0.00048	-0.0003	-0.00033	-0.00029	2
35280	-0.00046	-0.00029	-0.00031	-0.00107	-0.00048	-0.0003	-0.00033	-0.00029	2
35281	-0.00046	-0.00029	-0.00031	-0.00107	-0.00048	-0.0003	-0.00033	-0.00029	2
35282	-7e-05	6e-05	-0.00018	-0.00019	-0.00015	-0.00022	0.00013	0.0004	2
35283	-7e-05	6e-05	-0.00018	-0.00019	-0.00015	-0.00022	0.00013	0.0004	2
35284	-7e-05	6e-05	-0.00018	-0.00019	-0.00015	-0.00022	0.00013	0.0004	2
35285	-7e-05	6e-05	-0.00018	-0.00019	-0.00015	-0.00022	0.00013	0.0004	2
35286	-7e-05	6e-05	-0.00018	-0.00019	-0.00015	-0.00022	0.00013	0.0004	2
35288	-7e-05	6e-05	-0.00018	-0.00019	-0.00015	-0.00022	0.00013	0.0004	2
35289	-7e-05	6e-05	-0.00018	-0.00019	-0.00015	-0.00022	0.00013	0.0004	2
35291	-7e-05	6e-05	-0.00018	-0.00019	-0.00015	-0.00022	0.00013	0.0004	2
35292	-7e-05	6e-05	-0.00018	-0.00019	-0.00015	-0.00022	0.00013	0.0004	2
35293	-7e-05	6e-05	-0.00018	-0.00019	-0.00015	-0.00022	0.00013	0.0004	2
35294	-7e-05	6e-05	-0.00018	-0.00019	-0.00015	-0.00022	0.00013	0.0004	2
35295	-7e-05	6e-05	-0.00018	-0.00019	-0.00015	-0.00022	0.00013	0.0004	2
35296	-7e-05	6e-05	-0.00018	-0.00019	-0.00015	-0.00022	0.00013	0.0004	2
35297	6e-05	0.00015	0.00046	0.0004	0.00048	-7e-05	-0.0009	-0.00022	2
35298	8e-05	0	-3e-05	-0.00034	0.00012	0.00048	0.00042	0.00021	2
35299	8e-05	0	-3e-05	-0.00034	0.00012	0.00048	0.00042	0.00021	2
35300	8e-05	0	-3e-05	-0.00034	0.00012	0.00048	0.00042	0.00021	2
35302	8e-05	0	-3e-05	-0.00034	0.00012	0.00048	0.00042	0.00021	2
35303	8e-05	0	-3e-05	-0.00034	0.00012	0.00048	0.00042	0.00021	2
35304	8e-05	0	-3e-05	-0.00034	0.00012	0.00048	0.00042	0.00021	2
35305	8e-05	0	-3e-05	-0.00034	0.00012	0.00048	0.00042	0.00021	2
35306	8e-05	0	-3e-05	-0.00034	0.00012	0.00048	0.00042	0.00021	2
35307	8e-05	0	-3e-05	-0.00034	0.00012	0.00048	0.00042	0.00021	2
35308	8e-05	0	-3e-05	-0.00034	0.00012	0.00048	0.00042	0.00021	2
35309	8e-05	0	-3e-05	-0.00034	0.00012	0.00048	0.00042	0.00021	2
35310	8e-05	0	-3e-05	-0.00034	0.00012	0.00048	0.00042	0.00021	2
35311	8e-05	0	-3e-05	-0.00034	0.00012	0.00048	0.00042	0.00021	2
35312	8e-05	0	-3e-05	-0.00034	0.00012	0.00048	0.00042	0.00021	2
35313	8e-05	0	-3e-05	-0.00034	0.00012	0.00048	0.00042	0.00021	2
35314	8e-05	0	-3e-05	-0.00034	0.00012	0.00048	0.00042	0.00021	2
35315	8e-05	0	-3e-05	-0.00034	0.00012	0.00048	0.00042	0.00021	2
35316	8e-05	0	-3e-05	-0.00034	0.00012	0.00048	0.00042	0.00021	2
35317	8e-05	0	-3e-05	-0.00034	0.00012	0.00048	0.00042	0.00021	2
35318	8e-05	0	-3e-05	-0.00034	0.00012	0.00048	0.00042	0.00021	2
35319	8e-05	0	-3e-05	-0.00034	0.00012	0.00048	0.00042	0.00021	2
35320	0.0002	0.00011	-5e-05	0.00032	-4e-05	0.00012	-8e-05	0.00012	2
35321	8e-05	4e-05	0.0001	0.00051	0.00011	0.00019	0.00094	0.00036	2
35322	8e-05	4e-05	0.0001	0.00051	0.00011	0.00019	0.00094	0.00036	2
35323	8e-05	4e-05	0.0001	0.00051	0.00011	0.00019	0.00094	0.00036	2
35324	8e-05	4e-05	0.0001	0.00051	0.00011	0.00019	0.00094	0.00036	2
35325	8e-05	4e-05	0.0001	0.00051	0.00011	0.00019	0.00094	0.00036	2
35326	8e-05	4e-05	0.0001	0.00051	0.00011	0.00019	0.00094	0.00036	2
35327	8e-05	4e-05	0.0001	0.00051	0.00011	0.00019	0.00094	0.00036	2
35328	8e-05	4e-05	0.0001	0.00051	0.00011	0.00019	0.00094	0.00036	2
35329	8e-05	4e-05	0.0001	0.00051	0.00011	0.00019	0.00094	0.00036	2
35330	8e-05	4e-05	0.0001	0.00051	0.00011	0.00019	0.00094	0.00036	2
35331	8e-05	4e-05	0.0001	0.00051	0.00011	0.00019	0.00094	0.00036	2
35332	8e-05	4e-05	0.0001	0.00051	0.00011	0.00019	0.00094	0.00036	2
35333	8e-05	4e-05	0.0001	0.00051	0.00011	0.00019	0.00094	0.00036	2
35334	8e-05	4e-05	0.0001	0.00051	0.00011	0.00019	0.00094	0.00036	2
35335	8e-05	4e-05	0.0001	0.00051	0.00011	0.00019	0.00094	0.00036	2
35336	8e-05	4e-05	0.0001	0.00051	0.00011	0.00019	0.00094	0.00036	2
35339	8e-05	4e-05	0.0001	0.00051	0.00011	0.00019	0.00094	0.00036	2
35340	8e-05	4e-05	0.0001	0.00051	0.00011	0.00019	0.00094	0.00036	2
35341	8e-05	4e-05	0.0001	0.00051	0.00011	0.00019	0.00094	0.00036	2
35342	8e-05	4e-05	0.0001	0.00051	0.00011	0.00019	0.00094	0.00036	2
35343	-0.00016	0.00022	0.00033	0.00031	-0.00018	3e-05	0.00037	-0.00027	2
35344	0.00033	9e-05	0.00014	-0.00031	-0.00033	0.00017	-0.0001	-0.00011	2
35345	0.00033	9e-05	0.00014	-0.00031	-0.00033	0.00017	-0.0001	-0.00011	2
35346	0.00033	9e-05	0.00014	-0.00031	-0.00033	0.00017	-0.0001	-0.00011	2
35347	0.00033	9e-05	0.00014	-0.00031	-0.00033	0.00017	-0.0001	-0.00011	2
35348	0.00033	9e-05	0.00014	-0.00031	-0.00033	0.00017	-0.0001	-0.00011	2
35349	0.00033	9e-05	0.00014	-0.00031	-0.00033	0.00017	-0.0001	-0.00011	2
35350	0.00033	9e-05	0.00014	-0.00031	-0.00033	0.00017	-0.0001	-0.00011	2
35351	0.00033	9e-05	0.00014	-0.00031	-0.00033	0.00017	-0.0001	-0.00011	2
35352	0.00033	9e-05	0.00014	-0.00031	-0.00033	0.00017	-0.0001	-0.00011	2
