10254	0.00112	0.00127	9e-05	-6e-05	-0.00013	-0.00018	-0.00023	0.00039	3
10255	0.00112	0.00127	9e-05	-6e-05	-0.00013	-0.00018	-0.00023	0.00039	3
10256	0.00112	0.00127	9e-05	-6e-05	-0.00013	-0.00018	-0.00023	0.00039	3
10257	0.00112	0.00127	9e-05	-6e-05	-0.00013	-0.00018	-0.00023	0.00039	3
10258	0.00112	0.00127	9e-05	-6e-05	-0.00013	-0.00018	-0.00023	0.00039	3
10259	0.00112	0.00127	9e-05	-6e-05	-0.00013	-0.00018	-0.00023	0.00039	3
10260	0.00112	0.00127	9e-05	-6e-05	-0.00013	-0.00018	-0.00023	0.00039	3
10261	0.00112	0.00127	9e-05	-6e-05	-0.00013	-0.00018	-0.00023	0.00039	3
10263	0.00033	0.00075	0.00012	0	-7e-05	-7e-05	0.00011	0.00041	3
10264	0.00033	0.00075	0.00012	0	-7e-05	-7e-05	0.00011	0.00041	3
10265	0.00033	0.00075	0.00012	0	-7e-05	-7e-05	0.00011	0.00041	3
10266	0.00033	0.00075	0.00012	0	-7e-05	-7e-05	0.00011	0.00041	3
10267	0.00033	0.00075	0.00012	0	-7e-05	-7e-05	0.00011	0.00041	3
10268	0.00033	0.00075	0.00012	0	-7e-05	-7e-05	0.00011	0.00041	3
10269	0.00033	0.00075	0.00012	0	-7e-05	-7e-05	0.00011	0.00041	3
10270	0.00033	0.00075	0.00012	0	-7e-05	-7e-05	0.00011	0.00041	3
10271	0.00033	0.00075	0.00012	0	-7e-05	-7e-05	0.00011	0.00041	3
10272	0.00033	0.00075	0.00012	0	-7e-05	-7e-05	0.00011	0.00041	3
10273	0.00033	0.00075	0.00012	0	-7e-05	-7e-05	0.00011	0.00041	3
10274	0.00033	0.00075	0.00012	0	-7e-05	-7e-05	0.00011	0.00041	3
10275	0.00018	0.00045	5e-05	6e-05	2e-05	-5e-05	-3e-05	-0.00013	3
10276	0.00018	0.00045	5e-05	6e-05	2e-05	-5e-05	-3e-05	-0.00013	3
10277	0.00018	0.00045	5e-05	6e-05	2e-05	-5e-05	-3e-05	-0.00013	3
10278	0.00018	0.00045	5e-05	6e-05	2e-05	-5e-05	-3e-05	-0.00013	3
10279	0.00018	0.00045	5e-05	6e-05	2e-05	-5e-05	-3e-05	-0.00013	3
10280	0.00018	0.00045	5e-05	6e-05	2e-05	-5e-05	-3e-05	-0.00013	3
10281	-0.00054	-0.00088	-0.00019	-9e-05	-7e-05	1e-05	-2e-05	-8e-05	3
10283	-0.00024	-0.00044	-6e-05	-9e-05	-0.00025	-0.0002	0.00014	-0.00011	3
10284	-0.00024	-0.00044	-6e-05	-9e-05	-0.00025	-0.0002	0.00014	-0.00011	3
10285	-0.00024	-0.00044	-6e-05	-9e-05	-0.00025	-0.0002	0.00014	-0.00011	3
10286	-0.00024	-0.00044	-6e-05	-9e-05	-0.00025	-0.0002	0.00014	-0.00011	3
10289	-0.00024	-0.00044	-6e-05	-9e-05	-0.00025	-0.0002	0.00014	-0.00011	3
10290	-0.00024	-0.00044	-6e-05	-9e-05	-0.00025	-0.0002	0.00014	-0.00011	3
10291	-0.00024	-0.00044	-6e-05	-9e-05	-0.00025	-0.0002	0.00014	-0.00011	3
10292	-0.00024	-0.00044	-6e-05	-9e-05	-0.00025	-0.0002	0.00014	-0.00011	3
10293	-0.00024	-0.00044	-6e-05	-9e-05	-0.00025	-0.0002	0.00014	-0.00011	3
10294	-0.00024	-0.00044	-6e-05	-9e-05	-0.00025	-0.0002	0.00014	-0.00011	3
10295	-0.00024	-0.00044	-6e-05	-9e-05	-0.00025	-0.0002	0.00014	-0.00011	3
10296	-0.00024	-0.00044	-6e-05	-9e-05	-0.00025	-0.0002	0.00014	-0.00011	3
10297	-0.00024	-0.00044	-6e-05	-9e-05	-0.00025	-0.0002	0.00014	-0.00011	3
10298	-2e-05	0.00014	-4e-05	-0.0001	-6e-05	-9e-05	-0.00012	0.0001	3
10299	-0.00027	-0.00035	1e-05	8e-05	0.00017	0.0002	-7e-05	-0.00073	3
10300	-0.00027	-0.00035	1e-05	8e-05	0.00017	0.0002	-7e-05	-0.00073	3
10301	-0.00027	-0.00035	1e-05	8e-05	0.00017	0.0002	-7e-05	-0.00073	3
10302	-0.00027	-0.00035	1e-05	8e-05	0.00017	0.0002	-7e-05	-0.00073	3
10303	-0.00027	-0.00035	1e-05	8e-05	0.00017	0.0002	-7e-05	-0.00073	3
10304	-0.00027	-0.00035	1e-05	8e-05	0.00017	0.0002	-7e-05	-0.00073	3
10305	-0.00027	-0.00035	1e-05	8e-05	0.00017	0.0002	-7e-05	-0.00073	3
10306	-0.00027	-0.00035	1e-05	8e-05	0.00017	0.0002	-7e-05	-0.00073	3
10307	-0.00027	-0.00035	1e-05	8e-05	0.00017	0.0002	-7e-05	-0.00073	3
10308	-0.00027	-0.00035	1e-05	8e-05	0.00017	0.0002	-7e-05	-0.00073	3
10309	-0.00027	-0.00035	1e-05	8e-05	0.00017	0.0002	-7e-05	-0.00073	3
10310	-0.00027	-0.00035	1e-05	8e-05	0.00017	0.0002	-7e-05	-0.00073	3
10311	-0.00027	-0.00035	1e-05	8e-05	0.00017	0.0002	-7e-05	-0.00073	3
10312	-0.00027	-0.00035	1e-05	8e-05	0.00017	0.0002	-7e-05	-0.00073	3
10313	-0.00027	-0.00035	1e-05	8e-05	0.00017	0.0002	-7e-05	-0.00073	3
10314	-0.00027	-0.00035	1e-05	8e-05	0.00017	0.0002	-7e-05	-0.00073	3
10315	-0.00027	-0.00035	1e-05	8e-05	0.00017	0.0002	-7e-05	-0.00073	3
10316	-0.00027	-0.00035	1e-05	8e-05	0.00017	0.0002	-7e-05	-0.00073	3
10317	-0.00027	-0.00035	1e-05	8e-05	0.00017	0.0002	-7e-05	-0.00073	3
10318	-0.00027	-0.00035	1e-05	8e-05	0.00017	0.0002	-7e-05	-0.00073	3
10319	-0.00027	-0.00035	1e-05	8e-05	0.00017	0.0002	-7e-05	-0.00073	3
10320	0.00043	0.00074	0.00014	0.00011	9e-05	5e-05	-1e-05	0.00024	3
10321	-0.00013	-0.00023	-0.0001	-7e-05	-9e-05	1e-05	-4e-05	-0.00023	3
10322	-0.00013	-0.00023	-0.0001	-7e-05	-9e-05	1e-05	-4e-05	-0.00023	3
10323	-0.00013	-0.00023	-0.0001	-7e-05	-9e-05	1e-05	-4e-05	-0.00023	3
10324	-0.00013	-0.00023	-0.0001	-7e-05	-9e-05	1e-05	-4e-05	-0.00023	3
10325	-0.00013	-0.00023	-0.0001	-7e-05	-9e-05	1e-05	-4e-05	-0.00023	3
10326	-0.00013	-0.00023	-0.0001	-7e-05	-9e-05	1e-05	-4e-05	-0.00023	3
10327	-0.00013	-0.00023	-0.0001	-7e-05	-9e-05	1e-05	-4e-05	-0.00023	3
10328	-0.00013	-0.00023	-0.0001	-7e-05	-9e-05	1e-05	-4e-05	-0.00023	3
10329	-0.00013	-0.00023	-0.0001	-7e-05	-9e-05	1e-05	-4e-05	-0.00023	3
10330	-0.00013	-0.00023	-0.0001	-7e-05	-9e-05	1e-05	-4e-05	-0.00023	3
10331	-0.00013	-0.00023	-0.0001	-7e-05	-9e-05	1e-05	-4e-05	-0.00023	3
10332	-0.00013	-0.00023	-0.0001	-7e-05	-9e-05	1e-05	-4e-05	-0.00023	3
10333	-0.00013	-0.00023	-0.0001	-7e-05	-9e-05	1e-05	-4e-05	-0.00023	3
10334	-0.00013	-0.00023	-0.0001	-7e-05	-9e-05	1e-05	-4e-05	-0.00023	3
10335	-0.00013	-0.00023	-0.0001	-7e-05	-9e-05	1e-05	-4e-05	-0.00023	3
10336	-0.00013	-0.00023	-0.0001	-7e-05	-9e-05	1e-05	-4e-05	-0.00023	3
10338	-0.00013	-0.00023	-0.0001	-7e-05	-9e-05	1e-05	-4e-05	-0.00023	3
10339	-0.00013	-0.00023	-0.0001	-7e-05	-9e-05	1e-05	-4e-05	-0.00023	3
10340	-0.00013	-0.00023	-0.0001	-7e-05	-9e-05	1e-05	-4e-05	-0.00023	3
10341	-0.00013	-0.00023	-0.0001	-7e-05	-9e-05	1e-05	-4e-05	-0.00023	3
10342	-0.00013	-0.00023	-0.0001	-7e-05	-9e-05	1e-05	-4e-05	-0.00023	3
10343	3e-05	0.00023	7e-05	2e-05	5e-05	2e-05	-5e-05	-0.00019	3
10344	0.00027	5e-05	-2e-05	4e-05	0.00015	8e-05	-3e-05	0.00018	3
10345	-0.00059	-0.00065	-0.00019	-2e-05	0.00014	7e-05	-5e-05	-0.00034	3
10346	-0.00059	-0.00065	-0.00019	-2e-05	0.00014	7e-05	-5e-05	-0.00034	3
10347	-0.00059	-0.00065	-0.00019	-2e-05	0.00014	7e-05	-5e-05	-0.00034	3
10348	-0.00059	-0.00065	-0.00019	-2e-05	0.00014	7e-05	-5e-05	-0.00034	3
10349	-0.00059	-0.00065	-0.00019	-2e-05	0.00014	7e-05	-5e-05	-0.00034	3
10350	-0.00059	-0.00065	-0.00019	-2e-05	0.00014	7e-05	-5e-05	-0.00034	3
10351	-0.00059	-0.00065	-0.00019	-2e-05	0.00014	7e-05	-5e-05	-0.00034	3
10352	-0.00059	-0.00065	-0.00019	-2e-05	0.00014	7e-05	-5e-05	-0.00034	3
10353	-0.00059	-0.00065	-0.00019	-2e-05	0.00014	7e-05	-5e-05	-0.00034	3
10354	-0.00059	-0.00065	-0.00019	-2e-05	0.00014	7e-05	-5e-05	-0.00034	3
10355	-0.00059	-0.00065	-0.00019	-2e-05	0.00014	7e-05	-5e-05	-0.00034	3
10357	-0.00059	-0.00065	-0.00019	-2e-05	0.00014	7e-05	-5e-05	-0.00034	3
10358	-0.00011	-0.00038	-5e-05	-0.00013	-0.00032	-0.00018	3e-05	-0.00015	3
10359	0.00016	0.00017	2e-05	-3e-05	-5e-05	-1e-05	-8e-05	-0.00023	3
10360	0.00016	0.00017	2e-05	-3e-05	-5e-05	-1e-05	-8e-05	-0.00023	3
10361	0.00016	0.00017	2e-05	-3e-05	-5e-05	-1e-05	-8e-05	-0.00023	3
10362	0.00016	0.00017	2e-05	-3e-05	-5e-05	-1e-05	-8e-05	-0.00023	3
10363	0.00016	0.00017	2e-05	-3e-05	-5e-05	-1e-05	-8e-05	-0.00023	3
10364	0.00016	0.00017	2e-05	-3e-05	-5e-05	-1e-05	-8e-05	-0.00023	3
10365	0.00016	0.00017	2e-05	-3e-05	-5e-05	-1e-05	-8e-05	-0.00023	3
10366	0.00016	0.00017	2e-05	-3e-05	-5e-05	-1e-05	-8e-05	-0.00023	3
10367	0.00016	0.00017	2e-05	-3e-05	-5e-05	-1e-05	-8e-05	-0.00023	3
10368	0.00016	0.00017	2e-05	-3e-05	-5e-05	-1e-05	-8e-05	-0.00023	3
10369	0.00016	0.00017	2e-05	-3e-05	-5e-05	-1e-05	-8e-05	-0.00023	3
10370	0.00016	0.00017	2e-05	-3e-05	-5e-05	-1e-05	-8e-05	-0.00023	3
10371	0.00016	0.00017	2e-05	-3e-05	-5e-05	-1e-05	-8e-05	-0.00023	3
10372	0.00016	0.00017	2e-05	-3e-05	-5e-05	-1e-05	-8e-05	-0.00023	3
10373	0.00016	0.00017	2e-05	-3e-05	-5e-05	-1e-05	-8e-05	-0.00023	3
10374	0.00016	0.00017	2e-05	-3e-05	-5e-05	-1e-05	-8e-05	-0.00023	3
10375	0.00016	0.00017	2e-05	-3e-05	-5e-05	-1e-05	-8e-05	-0.00023	3
10376	0.00016	0.00017	2e-05	-3e-05	-5e-05	-1e-05	-8e-05	-0.00023	3
10377	0.00016	0.00017	2e-05	-3e-05	-5e-05	-1e-05	-8e-05	-0.00023	3
10378	0.00016	0.00017	2e-05	-3e-05	-5e-05	-1e-05	-8e-05	-0.00023	3
10379	0.00016	0.00017	2e-05	-3e-05	-5e-05	-1e-05	-8e-05	-0.00023	3
10380	0.00023	0.00066	6e-05	1e-05	2e-05	0.00016	-0.00011	-6e-05	3
10381	-1e-05	-0.00024	-2e-05	1e-05	0.00013	1e-05	-9e-05	0.00023	3
10382	-1e-05	-0.00024	-2e-05	1e-05	0.00013	1e-05	-9e-05	0.00023	3
10383	-1e-05	-0.00024	-2e-05	1e-05	0.00013	1e-05	-9e-05	0.00023	3
10384	-1e-05	-0.00024	-2e-05	1e-05	0.00013	1e-05	-9e-05	0.00023	3
10385	-1e-05	-0.00024	-2e-05	1e-05	0.00013	1e-05	-9e-05	0.00023	3
10386	-1e-05	-0.00024	-2e-05	1e-05	0.00013	1e-05	-9e-05	0.00023	3
10388	-1e-05	-0.00024	-2e-05	1e-05	0.00013	1e-05	-9e-05	0.00023	3
10389	-1e-05	-0.00024	-2e-05	1e-05	0.00013	1e-05	-9e-05	0.00023	3
10390	-1e-05	-0.00024	-2e-05	1e-05	0.00013	1e-05	-9e-05	0.00023	3
10391	-1e-05	-0.00024	-2e-05	1e-05	0.00013	1e-05	-9e-05	0.00023	3
10392	-1e-05	-0.00024	-2e-05	1e-05	0.00013	1e-05	-9e-05	0.00023	3
10393	-1e-05	-0.00024	-2e-05	1e-05	0.00013	1e-05	-9e-05	0.00023	3
10394	-1e-05	-0.00024	-2e-05	1e-05	0.00013	1e-05	-9e-05	0.00023	3
10395	0.00025	0.00013	-4e-05	0	0	1e-05	2e-05	0.00018	3
10396	0.00025	0.00013	-4e-05	0	0	1e-05	2e-05	0.00018	3
10397	0.00025	0.00013	-4e-05	0	0	1e-05	2e-05	0.00018	3
10398	0.00025	0.00013	-4e-05	0	0	1e-05	2e-05	0.00018	3
10399	0.00025	0.00013	-4e-05	0	0	1e-05	2e-05	0.00018	3
10400	0.00025	0.00013	-4e-05	0	0	1e-05	2e-05	0.00018	3
10401	0.00025	0.00013	-4e-05	0	0	1e-05	2e-05	0.00018	3
10402	0.00025	0.00013	-4e-05	0	0	1e-05	2e-05	0.00018	3
10403	0.00025	0.00013	-4e-05	0	0	1e-05	2e-05	0.00018	3
10404	0.00025	0.00013	-4e-05	0	0	1e-05	2e-05	0.00018	3
10405	0.00025	0.00013	-4e-05	0	0	1e-05	2e-05	0.00018	3
10406	0.00025	0.00013	-4e-05	0	0	1e-05	2e-05	0.00018	3
10407	0.00025	0.00013	-4e-05	0	0	1e-05	2e-05	0.00018	3
10408	0.00025	0.00013	-4e-05	0	0	1e-05	2e-05	0.00018	3
10409	0.00025	0.00013	-4e-05	0	0	1e-05	2e-05	0.00018	3
10410	-0.00027	-0.00021	0	3e-05	4e-05	-0.00017	-1e-05	7e-05	3
10411	-0.00027	-0.00021	0	3e-05	4e-05	-0.00017	-1e-05	7e-05	3
10412	-0.00027	-0.00021	0	3e-05	4e-05	-0.00017	-1e-05	7e-05	3
10413	-0.00027	-0.00021	0	3e-05	4e-05	-0.00017	-1e-05	7e-05	3
10414	-0.00027	-0.00021	0	3e-05	4e-05	-0.00017	-1e-05	7e-05	3
10415	-0.00027	-0.00021	0	3e-05	4e-05	-0.00017	-1e-05	7e-05	3
10416	-0.00027	-0.00021	0	3e-05	4e-05	-0.00017	-1e-05	7e-05	3
10417	-0.00027	-0.00021	0	3e-05	4e-05	-0.00017	-1e-05	7e-05	3
10418	-0.00027	-0.00021	0	3e-05	4e-05	-0.00017	-1e-05	7e-05	3
10419	-0.00027	-0.00021	0	3e-05	4e-05	-0.00017	-1e-05	7e-05	3
10420	-0.00027	-0.00021	0	3e-05	4e-05	-0.00017	-1e-05	7e-05	3
10421	-0.00027	-0.00021	0	3e-05	4e-05	-0.00017	-1e-05	7e-05	3
10422	-0.00027	-0.00021	0	3e-05	4e-05	-0.00017	-1e-05	7e-05	3
10423	-0.00027	-0.00021	0	3e-05	4e-05	-0.00017	-1e-05	7e-05	3
10424	-0.00027	-0.00021	0	3e-05	4e-05	-0.00017	-1e-05	7e-05	3
10425	-0.00027	-0.00021	0	3e-05	4e-05	-0.00017	-1e-05	7e-05	3
10426	-0.00027	-0.00021	0	3e-05	4e-05	-0.00017	-1e-05	7e-05	3
10427	-0.00027	-0.00021	0	3e-05	4e-05	-0.00017	-1e-05	7e-05	3
10428	-0.00027	-0.00021	0	3e-05	4e-05	-0.00017	-1e-05	7e-05	3
10429	-0.00027	-0.00021	0	3e-05	4e-05	-0.00017	-1e-05	7e-05	3
10430	-0.00027	-0.00021	0	3e-05	4e-05	-0.00017	-1e-05	7e-05	3
10431	-0.00027	-0.00021	0	3e-05	4e-05	-0.00017	-1e-05	7e-05	3
10432	-0.00027	-0.00021	0	3e-05	4e-05	-0.00017	-1e-05	7e-05	3
10433	9e-05	0.00029	0	2e-05	0.00011	4e-05	3e-05	0	3
10434	9e-05	0.00029	0	2e-05	0.00011	4e-05	3e-05	0	3
10435	9e-05	0.00029	0	2e-05	0.00011	4e-05	3e-05	0	3
10436	9e-05	0.00029	0	2e-05	0.00011	4e-05	3e-05	0	3
10438	9e-05	0.00029	0	2e-05	0.00011	4e-05	3e-05	0	3
10439	9e-05	0.00029	0	2e-05	0.00011	4e-05	3e-05	0	3
10440	9e-05	0.00029	0	2e-05	0.00011	4e-05	3e-05	0	3
10441	9e-05	0.00029	0	2e-05	0.00011	4e-05	3e-05	0	3
10442	9e-05	0.00029	0	2e-05	0.00011	4e-05	3e-05	0	3
10443	9e-05	0.00029	0	2e-05	0.00011	4e-05	3e-05	0	3
10444	9e-05	0.00029	0	2e-05	0.00011	4e-05	3e-05	0	3
10445	9e-05	0.00029	0	2e-05	0.00011	4e-05	3e-05	0	3
10446	9e-05	0.00029	0	2e-05	0.00011	4e-05	3e-05	0	3
10447	9e-05	0.00029	0	2e-05	0.00011	4e-05	3e-05	0	3
10448	9e-05	0.00029	0	2e-05	0.00011	4e-05	3e-05	0	3
10449	9e-05	0.00029	0	2e-05	0.00011	4e-05	3e-05	0	3
10450	9e-05	0.00029	0	2e-05	0.00011	4e-05	3e-05	0	3
10451	9e-05	0.00029	0	2e-05	0.00011	4e-05	3e-05	0	3
10452	9e-05	0.00029	0	2e-05	0.00011	4e-05	3e-05	0	3
10453	9e-05	0.00029	0	2e-05	0.00011	4e-05	3e-05	0	3
10454	9e-05	0.00029	0	2e-05	0.00011	4e-05	3e-05	0	3
10455	9e-05	0.00029	0	2e-05	0.00011	4e-05	3e-05	0	3
10456	0.00011	5e-05	-8e-05	0	2e-05	-8e-05	-2e-05	0.00011	3
10457	0.00024	0.00031	3e-05	3e-05	-7e-05	4e-05	-1e-05	0.00018	3
10458	0.00024	0.00031	3e-05	3e-05	-7e-05	4e-05	-1e-05	0.00018	3
10459	0.00024	0.00031	3e-05	3e-05	-7e-05	4e-05	-1e-05	0.00018	3
10460	0.00024	0.00031	3e-05	3e-05	-7e-05	4e-05	-1e-05	0.00018	3
10461	0.00024	0.00031	3e-05	3e-05	-7e-05	4e-05	-1e-05	0.00018	3
10462	0.00024	0.00031	3e-05	3e-05	-7e-05	4e-05	-1e-05	0.00018	3
10463	0.00024	0.00031	3e-05	3e-05	-7e-05	4e-05	-1e-05	0.00018	3
10464	0.00024	0.00031	3e-05	3e-05	-7e-05	4e-05	-1e-05	0.00018	3
10465	0.00024	0.00031	3e-05	3e-05	-7e-05	4e-05	-1e-05	0.00018	3
10466	0.00024	0.00031	3e-05	3e-05	-7e-05	4e-05	-1e-05	0.00018	3
10467	0.00024	0.00031	3e-05	3e-05	-7e-05	4e-05	-1e-05	0.00018	3
10468	0.00024	0.00031	3e-05	3e-05	-7e-05	4e-05	-1e-05	0.00018	3
10469	0.00024	0.00031	3e-05	3e-05	-7e-05	4e-05	-1e-05	0.00018	3
10470	0.00024	0.00031	3e-05	3e-05	-7e-05	4e-05	-1e-05	0.00018	3
10471	0.00024	0.00031	3e-05	3e-05	-7e-05	4e-05	-1e-05	0.00018	3
10472	0.00024	0.00031	3e-05	3e-05	-7e-05	4e-05	-1e-05	0.00018	3
10473	0.00024	0.00031	3e-05	3e-05	-7e-05	4e-05	-1e-05	0.00018	3
10474	0.00024	0.00031	3e-05	3e-05	-7e-05	4e-05	-1e-05	0.00018	3
10475	0.00024	0.00031	3e-05	3e-05	-7e-05	4e-05	-1e-05	0.00018	3
10476	0.00024	0.00031	3e-05	3e-05	-7e-05	4e-05	-1e-05	0.00018	3
10477	0.00024	0.00031	3e-05	3e-05	-7e-05	4e-05	-1e-05	0.00018	3
10478	0.00024	0.00031	3e-05	3e-05	-7e-05	4e-05	-1e-05	0.00018	3
10479	0.00024	0.00031	3e-05	3e-05	-7e-05	4e-05	-1e-05	0.00018	3
10480	0.00024	0.00031	3e-05	3e-05	-7e-05	4e-05	-1e-05	0.00018	3
10481	0.00024	0.00031	3e-05	3e-05	-7e-05	4e-05	-1e-05	0.00018	3
10482	0.00024	0.00031	3e-05	3e-05	-7e-05	4e-05	-1e-05	0.00018	3
10483	0.00024	0.00031	3e-05	3e-05	-7e-05	4e-05	-1e-05	0.00018	3
10484	0.00024	0.00031	3e-05	3e-05	-7e-05	4e-05	-1e-05	0.00018	3
10485	-0.00025	-0.00032	-0.0001	-4e-05	5e-05	-4e-05	-2e-05	6e-05	3
10487	-0.00023	-0.00058	-2e-05	-1e-05	4e-05	5e-05	-9e-05	-0.00015	3
10490	-0.00023	-0.00058	-2e-05	-1e-05	4e-05	5e-05	-9e-05	-0.00015	3
10491	-0.00023	-0.00058	-2e-05	-1e-05	4e-05	5e-05	-9e-05	-0.00015	3
10492	-0.00023	-0.00058	-2e-05	-1e-05	4e-05	5e-05	-9e-05	-0.00015	3
10493	-0.00023	-0.00058	-2e-05	-1e-05	4e-05	5e-05	-9e-05	-0.00015	3
10494	-0.00023	-0.00058	-2e-05	-1e-05	4e-05	5e-05	-9e-05	-0.00015	3
10495	-0.00023	-0.00058	-2e-05	-1e-05	4e-05	5e-05	-9e-05	-0.00015	3
10496	-0.00023	-0.00058	-2e-05	-1e-05	4e-05	5e-05	-9e-05	-0.00015	3
10497	-0.00023	-0.00058	-2e-05	-1e-05	4e-05	5e-05	-9e-05	-0.00015	3
10498	-0.00023	-0.00058	-2e-05	-1e-05	4e-05	5e-05	-9e-05	-0.00015	3
10499	-0.00023	-0.00058	-2e-05	-1e-05	4e-05	5e-05	-9e-05	-0.00015	3
10500	-0.00023	-0.00058	-2e-05	-1e-05	4e-05	5e-05	-9e-05	-0.00015	3
10501	-0.00023	-0.00058	-2e-05	-1e-05	4e-05	5e-05	-9e-05	-0.00015	3
10502	-0.00023	-0.00058	-2e-05	-1e-05	4e-05	5e-05	-9e-05	-0.00015	3
10503	-0.00023	-0.00058	-2e-05	-1e-05	4e-05	5e-05	-9e-05	-0.00015	3
10504	-0.00023	-0.00058	-2e-05	-1e-05	4e-05	5e-05	-9e-05	-0.00015	3
10505	-0.00023	-0.00058	-2e-05	-1e-05	4e-05	5e-05	-9e-05	-0.00015	3
10506	-0.00023	-0.00058	-2e-05	-1e-05	4e-05	5e-05	-9e-05	-0.00015	3
10507	-0.00023	-0.00058	-2e-05	-1e-05	4e-05	5e-05	-9e-05	-0.00015	3
10508	-0.00023	-0.00058	-2e-05	-1e-05	4e-05	5e-05	-9e-05	-0.00015	3
10509	0.00018	0.00047	0.00015	-2e-05	-0.00018	-0.0001	-7e-05	5e-05	3
10510	0.00018	0.00047	0.00015	-2e-05	-0.00018	-0.0001	-7e-05	5e-05	3
10511	0.00018	0.00047	0.00015	-2e-05	-0.00018	-0.0001	-7e-05	5e-05	3
10512	0.00018	0.00047	0.00015	-2e-05	-0.00018	-0.0001	-7e-05	5e-05	3
10513	0.00018	0.00047	0.00015	-2e-05	-0.00018	-0.0001	-7e-05	5e-05	3
10514	0.00018	0.00047	0.00015	-2e-05	-0.00018	-0.0001	-7e-05	5e-05	3
10516	0.00018	0.00047	0.00015	-2e-05	-0.00018	-0.0001	-7e-05	5e-05	3
10517	0.00018	0.00047	0.00015	-2e-05	-0.00018	-0.0001	-7e-05	5e-05	3
10518	0.00018	0.00047	0.00015	-2e-05	-0.00018	-0.0001	-7e-05	5e-05	3
10519	0.00018	0.00047	0.00015	-2e-05	-0.00018	-0.0001	-7e-05	5e-05	3
10520	0.00018	0.00047	0.00015	-2e-05	-0.00018	-0.0001	-7e-05	5e-05	3
10521	0.00018	0.00047	0.00015	-2e-05	-0.00018	-0.0001	-7e-05	5e-05	3
10522	0.00018	0.00047	0.00015	-2e-05	-0.00018	-0.0001	-7e-05	5e-05	3
10523	0.00018	0.00047	0.00015	-2e-05	-0.00018	-0.0001	-7e-05	5e-05	3
10524	0.00018	0.00047	0.00015	-2e-05	-0.00018	-0.0001	-7e-05	5e-05	3
10525	0.00018	0.00047	0.00015	-2e-05	-0.00018	-0.0001	-7e-05	5e-05	3
10526	0.00018	0.00047	0.00015	-2e-05	-0.00018	-0.0001	-7e-05	5e-05	3
10527	0.00018	0.00047	0.00015	-2e-05	-0.00018	-0.0001	-7e-05	5e-05	3
10528	0.00018	0.00047	0.00015	-2e-05	-0.00018	-0.0001	-7e-05	5e-05	3
10529	0.00018	0.00047	0.00015	-2e-05	-0.00018	-0.0001	-7e-05	5e-05	3
10530	0.00018	0.00047	0.00015	-2e-05	-0.00018	-0.0001	-7e-05	5e-05	3
10531	0.00018	0.00047	0.00015	-2e-05	-0.00018	-0.0001	-7e-05	5e-05	3
10532	0.00018	0.00047	0.00015	-2e-05	-0.00018	-0.0001	-7e-05	5e-05	3
10533	0.00018	0.00047	0.00015	-2e-05	-0.00018	-0.0001	-7e-05	5e-05	3
10534	0.00018	0.00047	0.00015	-2e-05	-0.00018	-0.0001	-7e-05	5e-05	3
10535	0.00018	0.00047	0.00015	-2e-05	-0.00018	-0.0001	-7e-05	5e-05	3
10536	0.00018	0.00047	0.00015	-2e-05	-0.00018	-0.0001	-7e-05	5e-05	3
10538	0.00018	0.00047	0.00015	-2e-05	-0.00018	-0.0001	-7e-05	5e-05	3
10539	0.00018	0.00047	0.00015	-2e-05	-0.00018	-0.0001	-7e-05	5e-05	3
10540	0.00018	0.00047	0.00015	-2e-05	-0.00018	-0.0001	-7e-05	5e-05	3
10541	0.00018	0.00047	0.00015	-2e-05	-0.00018	-0.0001	-7e-05	5e-05	3
10542	0.00018	0.00047	0.00015	-2e-05	-0.00018	-0.0001	-7e-05	5e-05	3
10543	0.00018	0.00047	0.00015	-2e-05	-0.00018	-0.0001	-7e-05	5e-05	3
10544	0.00018	0.00047	0.00015	-2e-05	-0.00018	-0.0001	-7e-05	5e-05	3
10545	0.00018	0.00047	0.00015	-2e-05	-0.00018	-0.0001	-7e-05	5e-05	3
10546	0.00018	0.00047	0.00015	-2e-05	-0.00018	-0.0001	-7e-05	5e-05	3
10547	0.00018	0.00047	0.00015	-2e-05	-0.00018	-0.0001	-7e-05	5e-05	3
10548	0.00018	0.00047	0.00015	-2e-05	-0.00018	-0.0001	-7e-05	5e-05	3
10549	0.00018	0.00047	0.00015	-2e-05	-0.00018	-0.0001	-7e-05	5e-05	3
10550	0.00018	0.00047	0.00015	-2e-05	-0.00018	-0.0001	-7e-05	5e-05	3
10551	0.00018	0.00047	0.00015	-2e-05	-0.00018	-0.0001	-7e-05	5e-05	3
10552	0.00018	0.00047	0.00015	-2e-05	-0.00018	-0.0001	-7e-05	5e-05	3
10553	0.00018	0.00047	0.00015	-2e-05	-0.00018	-0.0001	-7e-05	5e-05	3
10554	0.00018	0.00047	0.00015	-2e-05	-0.00018	-0.0001	-7e-05	5e-05	3
10555	0.00018	0.00047	0.00015	-2e-05	-0.00018	-0.0001	-7e-05	5e-05	3
10556	0.00018	0.00047	0.00015	-2e-05	-0.00018	-0.0001	-7e-05	5e-05	3
10557	0.00018	0.00047	0.00015	-2e-05	-0.00018	-0.0001	-7e-05	5e-05	3
10558	0.00018	0.00047	0.00015	-2e-05	-0.00018	-0.0001	-7e-05	5e-05	3
10559	0.00018	0.00047	0.00015	-2e-05	-0.00018	-0.0001	-7e-05	5e-05	3
10560	0.00018	0.00047	0.00015	-2e-05	-0.00018	-0.0001	-7e-05	5e-05	3
10561	0.00018	0.00047	0.00015	-2e-05	-0.00018	-0.0001	-7e-05	5e-05	3
10562	-0.00059	-0.00097	-0.00025	-0.00014	-0.00021	3e-05	3e-05	2e-05	3
10563	-0.00059	-0.00097	-0.00025	-0.00014	-0.00021	3e-05	3e-05	2e-05	3
10564	-9e-05	-0.00036	-0.00011	-8e-05	-5e-05	-5e-05	-0.00019	-4e-05	3
10565	-9e-05	-0.00036	-0.00011	-8e-05	-5e-05	-5e-05	-0.00019	-4e-05	3
10566	-9e-05	-0.00036	-0.00011	-8e-05	-5e-05	-5e-05	-0.00019	-4e-05	3
10567	-9e-05	-0.00036	-0.00011	-8e-05	-5e-05	-5e-05	-0.00019	-4e-05	3
10568	-9e-05	-0.00036	-0.00011	-8e-05	-5e-05	-5e-05	-0.00019	-4e-05	3
10569	-9e-05	-0.00036	-0.00011	-8e-05	-5e-05	-5e-05	-0.00019	-4e-05	3
10570	-9e-05	-0.00036	-0.00011	-8e-05	-5e-05	-5e-05	-0.00019	-4e-05	3
10571	-9e-05	-0.00036	-0.00011	-8e-05	-5e-05	-5e-05	-0.00019	-4e-05	3
10572	-9e-05	-0.00036	-0.00011	-8e-05	-5e-05	-5e-05	-0.00019	-4e-05	3
10573	-9e-05	-0.00036	-0.00011	-8e-05	-5e-05	-5e-05	-0.00019	-4e-05	3
10574	-9e-05	-0.00036	-0.00011	-8e-05	-5e-05	-5e-05	-0.00019	-4e-05	3
10575	-9e-05	-0.00036	-0.00011	-8e-05	-5e-05	-5e-05	-0.00019	-4e-05	3
10576	-9e-05	-0.00036	-0.00011	-8e-05	-5e-05	-5e-05	-0.00019	-4e-05	3
10577	-9e-05	-0.00036	-0.00011	-8e-05	-5e-05	-5e-05	-0.00019	-4e-05	3
10578	-9e-05	-0.00036	-0.00011	-8e-05	-5e-05	-5e-05	-0.00019	-4e-05	3
10579	-9e-05	-0.00036	-0.00011	-8e-05	-5e-05	-5e-05	-0.00019	-4e-05	3
10580	-9e-05	-0.00036	-0.00011	-8e-05	-5e-05	-5e-05	-0.00019	-4e-05	3
10581	-9e-05	-0.00036	-0.00011	-8e-05	-5e-05	-5e-05	-0.00019	-4e-05	3
10582	-9e-05	-0.00036	-0.00011	-8e-05	-5e-05	-5e-05	-0.00019	-4e-05	3
10583	-9e-05	-0.00036	-0.00011	-8e-05	-5e-05	-5e-05	-0.00019	-4e-05	3
10584	0.00026	0.00046	6e-05	-4e-05	-0.00013	-2e-05	-4e-05	2e-05	3
10585	0.00026	0.00046	6e-05	-4e-05	-0.00013	-2e-05	-4e-05	2e-05	3
10586	0.00011	0.00035	-2e-05	8e-05	0.00015	-5e-05	-8e-05	-0.00024	3
10588	-0.00027	-0.0004	3e-05	3e-05	1e-05	-5e-05	1e-05	2e-05	3
10589	-0.00027	-0.0004	3e-05	3e-05	1e-05	-5e-05	1e-05	2e-05	3
10590	-0.00027	-0.0004	3e-05	3e-05	1e-05	-5e-05	1e-05	2e-05	3
10591	-0.00027	-0.0004	3e-05	3e-05	1e-05	-5e-05	1e-05	2e-05	3
10592	-0.00027	-0.0004	3e-05	3e-05	1e-05	-5e-05	1e-05	2e-05	3
10593	-0.00027	-0.0004	3e-05	3e-05	1e-05	-5e-05	1e-05	2e-05	3
10594	-0.00027	-0.0004	3e-05	3e-05	1e-05	-5e-05	1e-05	2e-05	3
10595	-0.00027	-0.0004	3e-05	3e-05	1e-05	-5e-05	1e-05	2e-05	3
10596	-0.00027	-0.0004	3e-05	3e-05	1e-05	-5e-05	1e-05	2e-05	3
10597	-0.00027	-0.0004	3e-05	3e-05	1e-05	-5e-05	1e-05	2e-05	3
10598	-0.00027	-0.0004	3e-05	3e-05	1e-05	-5e-05	1e-05	2e-05	3
10599	-0.00027	-0.0004	3e-05	3e-05	1e-05	-5e-05	1e-05	2e-05	3
10600	-0.00027	-0.0004	3e-05	3e-05	1e-05	-5e-05	1e-05	2e-05	3
10601	-0.00027	-0.0004	3e-05	3e-05	1e-05	-5e-05	1e-05	2e-05	3
10602	-0.00027	-0.0004	3e-05	3e-05	1e-05	-5e-05	1e-05	2e-05	3
10604	-0.00027	-0.0004	3e-05	3e-05	1e-05	-5e-05	1e-05	2e-05	3
10605	-0.00027	-0.0004	3e-05	3e-05	1e-05	-5e-05	1e-05	2e-05	3
10606	-0.00027	-0.0004	3e-05	3e-05	1e-05	-5e-05	1e-05	2e-05	3
10607	-0.00027	-0.0004	3e-05	3e-05	1e-05	-5e-05	1e-05	2e-05	3
10608	-0.00027	-0.0004	3e-05	3e-05	1e-05	-5e-05	1e-05	2e-05	3
10609	-0.00027	-0.0004	3e-05	3e-05	1e-05	-5e-05	1e-05	2e-05	3
10610	-0.00027	-0.0004	3e-05	3e-05	1e-05	-5e-05	1e-05	2e-05	3
10611	-0.00027	-0.0004	3e-05	3e-05	1e-05	-5e-05	1e-05	2e-05	3
10612	-0.00027	-0.0004	3e-05	3e-05	1e-05	-5e-05	1e-05	2e-05	3
10613	-0.00027	-0.0004	3e-05	3e-05	1e-05	-5e-05	1e-05	2e-05	3
10614	-0.00027	-0.0004	3e-05	3e-05	1e-05	-5e-05	1e-05	2e-05	3
10615	-0.00027	-0.0004	3e-05	3e-05	1e-05	-5e-05	1e-05	2e-05	3
10616	-0.00027	-0.0004	3e-05	3e-05	1e-05	-5e-05	1e-05	2e-05	3
10617	-0.00027	-0.0004	3e-05	3e-05	1e-05	-5e-05	1e-05	2e-05	3
10618	-0.00027	-0.0004	3e-05	3e-05	1e-05	-5e-05	1e-05	2e-05	3
10619	-0.00027	-0.0004	3e-05	3e-05	1e-05	-5e-05	1e-05	2e-05	3
10620	-0.00027	-0.0004	3e-05	3e-05	1e-05	-5e-05	1e-05	2e-05	3
10621	-0.00027	-0.0004	3e-05	3e-05	1e-05	-5e-05	1e-05	2e-05	3
10622	-0.00027	-0.0004	3e-05	3e-05	1e-05	-5e-05	1e-05	2e-05	3
10623	-0.00027	-0.0004	3e-05	3e-05	1e-05	-5e-05	1e-05	2e-05	3
10624	-0.00027	-0.0004	3e-05	3e-05	1e-05	-5e-05	1e-05	2e-05	3
10625	-0.00027	-0.0004	3e-05	3e-05	1e-05	-5e-05	1e-05	2e-05	3
10626	-0.00027	-0.0004	3e-05	3e-05	1e-05	-5e-05	1e-05	2e-05	3
10627	-0.00027	-0.0004	3e-05	3e-05	1e-05	-5e-05	1e-05	2e-05	3
10628	-0.00027	-0.0004	3e-05	3e-05	1e-05	-5e-05	1e-05	2e-05	3
10629	-0.00027	-0.0004	3e-05	3e-05	1e-05	-5e-05	1e-05	2e-05	3
10630	-0.00027	-0.0004	3e-05	3e-05	1e-05	-5e-05	1e-05	2e-05	3
10631	-0.00027	-0.0004	3e-05	3e-05	1e-05	-5e-05	1e-05	2e-05	3
10632	-0.00027	-0.0004	3e-05	3e-05	1e-05	-5e-05	1e-05	2e-05	3
10633	-0.00027	-0.0004	3e-05	3e-05	1e-05	-5e-05	1e-05	2e-05	3
10634	-0.00027	-0.0004	3e-05	3e-05	1e-05	-5e-05	1e-05	2e-05	3
10635	-0.00027	-0.0004	3e-05	3e-05	1e-05	-5e-05	1e-05	2e-05	3
10636	-0.00027	-0.0004	3e-05	3e-05	1e-05	-5e-05	1e-05	2e-05	3
10639	1e-05	1e-05	4e-05	0.00018	0.00052	0.00016	6e-05	5e-05	3
10640	1e-05	1e-05	4e-05	0.00018	0.00052	0.00016	6e-05	5e-05	3
10641	1e-05	1e-05	4e-05	0.00018	0.00052	0.00016	6e-05	5e-05	3
10642	1e-05	1e-05	4e-05	0.00018	0.00052	0.00016	6e-05	5e-05	3
10643	1e-05	1e-05	4e-05	0.00018	0.00052	0.00016	6e-05	5e-05	3
10644	1e-05	1e-05	4e-05	0.00018	0.00052	0.00016	6e-05	5e-05	3
10645	1e-05	1e-05	4e-05	0.00018	0.00052	0.00016	6e-05	5e-05	3
10646	1e-05	1e-05	4e-05	0.00018	0.00052	0.00016	6e-05	5e-05	3
10647	1e-05	1e-05	4e-05	0.00018	0.00052	0.00016	6e-05	5e-05	3
10648	1e-05	1e-05	4e-05	0.00018	0.00052	0.00016	6e-05	5e-05	3
10649	1e-05	1e-05	4e-05	0.00018	0.00052	0.00016	6e-05	5e-05	3
10650	1e-05	1e-05	4e-05	0.00018	0.00052	0.00016	6e-05	5e-05	3
10651	1e-05	1e-05	4e-05	0.00018	0.00052	0.00016	6e-05	5e-05	3
10652	1e-05	1e-05	4e-05	0.00018	0.00052	0.00016	6e-05	5e-05	3
10653	1e-05	1e-05	4e-05	0.00018	0.00052	0.00016	6e-05	5e-05	3
10654	1e-05	1e-05	4e-05	0.00018	0.00052	0.00016	6e-05	5e-05	3
10655	1e-05	1e-05	4e-05	0.00018	0.00052	0.00016	6e-05	5e-05	3
10656	1e-05	1e-05	4e-05	0.00018	0.00052	0.00016	6e-05	5e-05	3
10657	1e-05	1e-05	4e-05	0.00018	0.00052	0.00016	6e-05	5e-05	3
10658	1e-05	1e-05	4e-05	0.00018	0.00052	0.00016	6e-05	5e-05	3
10659	1e-05	1e-05	4e-05	0.00018	0.00052	0.00016	6e-05	5e-05	3
10660	-0.00035	-0.00036	-0.00015	-7e-05	-9e-05	-1e-05	-1e-05	-0.00016	3
10661	0.00038	0.00079	7e-05	-4e-05	-0.00017	-0.00018	5e-05	0.00019	3
10662	-8e-05	-9e-05	3e-05	5e-05	2e-05	1e-05	-4e-05	1e-05	3
10663	-8e-05	-9e-05	3e-05	5e-05	2e-05	1e-05	-4e-05	1e-05	3
10664	-8e-05	-9e-05	3e-05	5e-05	2e-05	1e-05	-4e-05	1e-05	3
10665	-8e-05	-9e-05	3e-05	5e-05	2e-05	1e-05	-4e-05	1e-05	3
10666	-8e-05	-9e-05	3e-05	5e-05	2e-05	1e-05	-4e-05	1e-05	3
10667	-8e-05	-9e-05	3e-05	5e-05	2e-05	1e-05	-4e-05	1e-05	3
10668	-8e-05	-9e-05	3e-05	5e-05	2e-05	1e-05	-4e-05	1e-05	3
10669	-8e-05	-9e-05	3e-05	5e-05	2e-05	1e-05	-4e-05	1e-05	3
10670	-8e-05	-9e-05	3e-05	5e-05	2e-05	1e-05	-4e-05	1e-05	3
10671	-8e-05	-9e-05	3e-05	5e-05	2e-05	1e-05	-4e-05	1e-05	3
10672	-8e-05	-9e-05	3e-05	5e-05	2e-05	1e-05	-4e-05	1e-05	3
10673	-8e-05	-9e-05	3e-05	5e-05	2e-05	1e-05	-4e-05	1e-05	3
10674	-8e-05	-9e-05	3e-05	5e-05	2e-05	1e-05	-4e-05	1e-05	3
10675	-8e-05	-9e-05	3e-05	5e-05	2e-05	1e-05	-4e-05	1e-05	3
10676	-8e-05	-9e-05	3e-05	5e-05	2e-05	1e-05	-4e-05	1e-05	3
10677	-8e-05	-9e-05	3e-05	5e-05	2e-05	1e-05	-4e-05	1e-05	3
10678	-8e-05	-9e-05	3e-05	5e-05	2e-05	1e-05	-4e-05	1e-05	3
10679	-8e-05	-9e-05	3e-05	5e-05	2e-05	1e-05	-4e-05	1e-05	3
10680	0.00021	0.00015	-4e-05	-6e-05	-3e-05	0	0.0001	0.00018	3
10681	0.00021	0.00015	-4e-05	-6e-05	-3e-05	0	0.0001	0.00018	3
10682	0.00021	0.00015	-4e-05	-6e-05	-3e-05	0	0.0001	0.00018	3
10683	0.00021	0.00015	-4e-05	-6e-05	-3e-05	0	0.0001	0.00018	3
10684	0.00021	0.00015	-4e-05	-6e-05	-3e-05	0	0.0001	0.00018	3
10685	0.00021	0.00015	-4e-05	-6e-05	-3e-05	0	0.0001	0.00018	3
10686	0.00021	0.00015	-4e-05	-6e-05	-3e-05	0	0.0001	0.00018	3
10689	0	4e-05	7e-05	6e-05	0.00018	0.00021	9e-05	9e-05	3
10690	-0.00017	-0.00038	-5e-05	-7e-05	-0.00015	-7e-05	-7e-05	-0.00027	3
10691	-0.00017	-0.00038	-5e-05	-7e-05	-0.00015	-7e-05	-7e-05	-0.00027	3
10692	-0.00017	-0.00038	-5e-05	-7e-05	-0.00015	-7e-05	-7e-05	-0.00027	3
10693	-0.00017	-0.00038	-5e-05	-7e-05	-0.00015	-7e-05	-7e-05	-0.00027	3
10694	-0.00017	-0.00038	-5e-05	-7e-05	-0.00015	-7e-05	-7e-05	-0.00027	3
10695	-0.00017	-0.00038	-5e-05	-7e-05	-0.00015	-7e-05	-7e-05	-0.00027	3
10696	-0.00017	-0.00038	-5e-05	-7e-05	-0.00015	-7e-05	-7e-05	-0.00027	3
10697	-0.00017	-0.00038	-5e-05	-7e-05	-0.00015	-7e-05	-7e-05	-0.00027	3
10698	-0.00017	-0.00038	-5e-05	-7e-05	-0.00015	-7e-05	-7e-05	-0.00027	3
10699	-0.00017	-0.00038	-5e-05	-7e-05	-0.00015	-7e-05	-7e-05	-0.00027	3
10700	-0.00017	-0.00038	-5e-05	-7e-05	-0.00015	-7e-05	-7e-05	-0.00027	3
10701	-0.00017	-0.00038	-5e-05	-7e-05	-0.00015	-7e-05	-7e-05	-0.00027	3
10702	-0.00017	-0.00038	-5e-05	-7e-05	-0.00015	-7e-05	-7e-05	-0.00027	3
10703	-0.00017	-0.00038	-5e-05	-7e-05	-0.00015	-7e-05	-7e-05	-0.00027	3
10704	-0.00017	-0.00038	-5e-05	-7e-05	-0.00015	-7e-05	-7e-05	-0.00027	3
10705	-0.00017	-0.00038	-5e-05	-7e-05	-0.00015	-7e-05	-7e-05	-0.00027	3
10706	-0.00017	-0.00038	-5e-05	-7e-05	-0.00015	-7e-05	-7e-05	-0.00027	3
10707	-0.00017	-0.00038	-5e-05	-7e-05	-0.00015	-7e-05	-7e-05	-0.00027	3
10708	-0.00017	-0.00038	-5e-05	-7e-05	-0.00015	-7e-05	-7e-05	-0.00027	3
10709	-0.00017	-0.00038	-5e-05	-7e-05	-0.00015	-7e-05	-7e-05	-0.00027	3
10710	-0.00017	-0.00038	-5e-05	-7e-05	-0.00015	-7e-05	-7e-05	-0.00027	3
10711	-0.00017	-0.00038	-5e-05	-7e-05	-0.00015	-7e-05	-7e-05	-0.00027	3
10712	-0.00016	-0.00024	5e-05	2e-05	2e-05	-2e-05	-0.00018	-0.00022	3
10713	-0.00016	-0.00024	5e-05	2e-05	2e-05	-2e-05	-0.00018	-0.00022	3
10714	5e-05	-0.00032	-7e-05	-0.00013	-0.00017	-8e-05	-0.0001	-5e-05	3
10715	5e-05	-0.00032	-7e-05	-0.00013	-0.00017	-8e-05	-0.0001	-5e-05	3
10716	5e-05	-0.00032	-7e-05	-0.00013	-0.00017	-8e-05	-0.0001	-5e-05	3
10717	5e-05	-0.00032	-7e-05	-0.00013	-0.00017	-8e-05	-0.0001	-5e-05	3
10718	5e-05	-0.00032	-7e-05	-0.00013	-0.00017	-8e-05	-0.0001	-5e-05	3
10719	5e-05	-0.00032	-7e-05	-0.00013	-0.00017	-8e-05	-0.0001	-5e-05	3
10720	5e-05	-0.00032	-7e-05	-0.00013	-0.00017	-8e-05	-0.0001	-5e-05	3
10721	5e-05	-0.00032	-7e-05	-0.00013	-0.00017	-8e-05	-0.0001	-5e-05	3
10722	5e-05	-0.00032	-7e-05	-0.00013	-0.00017	-8e-05	-0.0001	-5e-05	3
10723	5e-05	-0.00032	-7e-05	-0.00013	-0.00017	-8e-05	-0.0001	-5e-05	3
10724	5e-05	-0.00032	-7e-05	-0.00013	-0.00017	-8e-05	-0.0001	-5e-05	3
10725	5e-05	-0.00032	-7e-05	-0.00013	-0.00017	-8e-05	-0.0001	-5e-05	3
10726	5e-05	-0.00032	-7e-05	-0.00013	-0.00017	-8e-05	-0.0001	-5e-05	3
10727	5e-05	-0.00032	-7e-05	-0.00013	-0.00017	-8e-05	-0.0001	-5e-05	3
10728	5e-05	-0.00032	-7e-05	-0.00013	-0.00017	-8e-05	-0.0001	-5e-05	3
10729	5e-05	-0.00032	-7e-05	-0.00013	-0.00017	-8e-05	-0.0001	-5e-05	3
10730	5e-05	-0.00032	-7e-05	-0.00013	-0.00017	-8e-05	-0.0001	-5e-05	3
10731	5e-05	-0.00032	-7e-05	-0.00013	-0.00017	-8e-05	-0.0001	-5e-05	3
10732	5e-05	-0.00032	-7e-05	-0.00013	-0.00017	-8e-05	-0.0001	-5e-05	3
10733	5e-05	-0.00032	-7e-05	-0.00013	-0.00017	-8e-05	-0.0001	-5e-05	3
10734	-0.00017	-0.00026	-0.00013	-7e-05	-0.00011	-5e-05	-0.00013	-0.00035	3
10735	0.00015	0.00058	0.00023	0.00014	0.00018	0.00014	0.00016	0.00014	3
10736	-1e-05	1e-05	2e-05	-5e-05	-0.00014	-2e-05	-8e-05	3e-05	3
10738	-1e-05	1e-05	2e-05	-5e-05	-0.00014	-2e-05	-8e-05	3e-05	3
10739	-1e-05	1e-05	2e-05	-5e-05	-0.00014	-2e-05	-8e-05	3e-05	3
10740	-1e-05	1e-05	2e-05	-5e-05	-0.00014	-2e-05	-8e-05	3e-05	3
10741	-1e-05	1e-05	2e-05	-5e-05	-0.00014	-2e-05	-8e-05	3e-05	3
10742	-1e-05	1e-05	2e-05	-5e-05	-0.00014	-2e-05	-8e-05	3e-05	3
10743	-1e-05	1e-05	2e-05	-5e-05	-0.00014	-2e-05	-8e-05	3e-05	3
10744	-1e-05	1e-05	2e-05	-5e-05	-0.00014	-2e-05	-8e-05	3e-05	3
10745	-1e-05	1e-05	2e-05	-5e-05	-0.00014	-2e-05	-8e-05	3e-05	3
10746	-1e-05	1e-05	2e-05	-5e-05	-0.00014	-2e-05	-8e-05	3e-05	3
10747	-1e-05	1e-05	2e-05	-5e-05	-0.00014	-2e-05	-8e-05	3e-05	3
10748	-1e-05	1e-05	2e-05	-5e-05	-0.00014	-2e-05	-8e-05	3e-05	3
10749	-1e-05	1e-05	2e-05	-5e-05	-0.00014	-2e-05	-8e-05	3e-05	3
10750	-1e-05	1e-05	2e-05	-5e-05	-0.00014	-2e-05	-8e-05	3e-05	3
10751	-1e-05	1e-05	2e-05	-5e-05	-0.00014	-2e-05	-8e-05	3e-05	3
10752	-1e-05	1e-05	2e-05	-5e-05	-0.00014	-2e-05	-8e-05	3e-05	3
10753	-1e-05	1e-05	2e-05	-5e-05	-0.00014	-2e-05	-8e-05	3e-05	3
10754	-1e-05	1e-05	2e-05	-5e-05	-0.00014	-2e-05	-8e-05	3e-05	3
10755	-1e-05	1e-05	2e-05	-5e-05	-0.00014	-2e-05	-8e-05	3e-05	3
10756	-1e-05	1e-05	2e-05	-5e-05	-0.00014	-2e-05	-8e-05	3e-05	3
10757	-1e-05	1e-05	2e-05	-5e-05	-0.00014	-2e-05	-8e-05	3e-05	3
10758	-1e-05	1e-05	2e-05	-5e-05	-0.00014	-2e-05	-8e-05	3e-05	3
10759	-1e-05	1e-05	2e-05	-5e-05	-0.00014	-2e-05	-8e-05	3e-05	3
10760	-1e-05	1e-05	2e-05	-5e-05	-0.00014	-2e-05	-8e-05	3e-05	3
10761	-1e-05	1e-05	2e-05	-5e-05	-0.00014	-2e-05	-8e-05	3e-05	3
10762	-1e-05	1e-05	2e-05	-5e-05	-0.00014	-2e-05	-8e-05	3e-05	3
10763	-1e-05	1e-05	2e-05	-5e-05	-0.00014	-2e-05	-8e-05	3e-05	3
10764	-0.00025	-0.00011	-2e-05	0	6e-05	-2e-05	3e-05	5e-05	3
10765	9e-05	0.00031	3e-05	3e-05	0	-9e-05	-3e-05	7e-05	3
10766	9e-05	0.00031	3e-05	3e-05	0	-9e-05	-3e-05	7e-05	3
10767	9e-05	0.00031	3e-05	3e-05	0	-9e-05	-3e-05	7e-05	3
10768	9e-05	0.00031	3e-05	3e-05	0	-9e-05	-3e-05	7e-05	3
10769	9e-05	0.00031	3e-05	3e-05	0	-9e-05	-3e-05	7e-05	3
10770	9e-05	0.00031	3e-05	3e-05	0	-9e-05	-3e-05	7e-05	3
10771	9e-05	0.00031	3e-05	3e-05	0	-9e-05	-3e-05	7e-05	3
10772	9e-05	0.00031	3e-05	3e-05	0	-9e-05	-3e-05	7e-05	3
10773	9e-05	0.00031	3e-05	3e-05	0	-9e-05	-3e-05	7e-05	3
10774	9e-05	0.00031	3e-05	3e-05	0	-9e-05	-3e-05	7e-05	3
10775	9e-05	0.00031	3e-05	3e-05	0	-9e-05	-3e-05	7e-05	3
10776	9e-05	0.00031	3e-05	3e-05	0	-9e-05	-3e-05	7e-05	3
10777	9e-05	0.00031	3e-05	3e-05	0	-9e-05	-3e-05	7e-05	3
10778	9e-05	0.00031	3e-05	3e-05	0	-9e-05	-3e-05	7e-05	3
10779	9e-05	0.00031	3e-05	3e-05	0	-9e-05	-3e-05	7e-05	3
10780	9e-05	0.00031	3e-05	3e-05	0	-9e-05	-3e-05	7e-05	3
10781	9e-05	0.00031	3e-05	3e-05	0	-9e-05	-3e-05	7e-05	3
10782	9e-05	0.00031	3e-05	3e-05	0	-9e-05	-3e-05	7e-05	3
10783	9e-05	0.00031	3e-05	3e-05	0	-9e-05	-3e-05	7e-05	3
10784	9e-05	0.00031	3e-05	3e-05	0	-9e-05	-3e-05	7e-05	3
10785	0.00012	-0.00025	-0.00018	3e-05	0.00011	0	-1e-05	1e-05	3
10787	-0.00019	-0.00015	-3e-05	0	-6e-05	-2e-05	3e-05	-1e-05	3
10789	-0.00019	-0.00015	-3e-05	0	-6e-05	-2e-05	3e-05	-1e-05	3
10790	-0.00019	-0.00015	-3e-05	0	-6e-05	-2e-05	3e-05	-1e-05	3
10792	-0.00019	-0.00015	-3e-05	0	-6e-05	-2e-05	3e-05	-1e-05	3
10793	-0.00019	-0.00015	-3e-05	0	-6e-05	-2e-05	3e-05	-1e-05	3
10794	-0.00019	-0.00015	-3e-05	0	-6e-05	-2e-05	3e-05	-1e-05	3
10795	-0.00019	-0.00015	-3e-05	0	-6e-05	-2e-05	3e-05	-1e-05	3
10796	-0.00019	-0.00015	-3e-05	0	-6e-05	-2e-05	3e-05	-1e-05	3
10797	-0.00019	-0.00015	-3e-05	0	-6e-05	-2e-05	3e-05	-1e-05	3
10798	-0.00019	-0.00015	-3e-05	0	-6e-05	-2e-05	3e-05	-1e-05	3
10799	-0.00019	-0.00015	-3e-05	0	-6e-05	-2e-05	3e-05	-1e-05	3
10800	-0.00019	-0.00015	-3e-05	0	-6e-05	-2e-05	3e-05	-1e-05	3
10801	-0.00019	-0.00015	-3e-05	0	-6e-05	-2e-05	3e-05	-1e-05	3
10802	-0.00019	-0.00015	-3e-05	0	-6e-05	-2e-05	3e-05	-1e-05	3
10803	-0.00019	-0.00015	-3e-05	0	-6e-05	-2e-05	3e-05	-1e-05	3
10804	-0.00019	-0.00015	-3e-05	0	-6e-05	-2e-05	3e-05	-1e-05	3
10805	-0.00019	-0.00015	-3e-05	0	-6e-05	-2e-05	3e-05	-1e-05	3
10806	-0.00019	-0.00015	-3e-05	0	-6e-05	-2e-05	3e-05	-1e-05	3
10807	-0.00019	-0.00015	-3e-05	0	-6e-05	-2e-05	3e-05	-1e-05	3
10808	-7e-05	0.00015	9e-05	1e-05	-9e-05	5e-05	6e-05	7e-05	3
10809	-7e-05	0.00015	9e-05	1e-05	-9e-05	5e-05	6e-05	7e-05	3
10810	-7e-05	0.00015	9e-05	1e-05	-9e-05	5e-05	6e-05	7e-05	3
10811	-7e-05	0.00015	9e-05	1e-05	-9e-05	5e-05	6e-05	7e-05	3
10812	-7e-05	0.00015	9e-05	1e-05	-9e-05	5e-05	6e-05	7e-05	3
10813	-7e-05	0.00015	9e-05	1e-05	-9e-05	5e-05	6e-05	7e-05	3
10814	-7e-05	0.00015	9e-05	1e-05	-9e-05	5e-05	6e-05	7e-05	3
10815	-7e-05	0.00015	9e-05	1e-05	-9e-05	5e-05	6e-05	7e-05	3
10816	-7e-05	0.00015	9e-05	1e-05	-9e-05	5e-05	6e-05	7e-05	3
10817	-7e-05	0.00015	9e-05	1e-05	-9e-05	5e-05	6e-05	7e-05	3
10818	-7e-05	0.00015	9e-05	1e-05	-9e-05	5e-05	6e-05	7e-05	3
10819	-7e-05	0.00015	9e-05	1e-05	-9e-05	5e-05	6e-05	7e-05	3
10820	-7e-05	0.00015	9e-05	1e-05	-9e-05	5e-05	6e-05	7e-05	3
10821	-7e-05	0.00015	9e-05	1e-05	-9e-05	5e-05	6e-05	7e-05	3
10822	-7e-05	0.00015	9e-05	1e-05	-9e-05	5e-05	6e-05	7e-05	3
10823	-7e-05	0.00015	9e-05	1e-05	-9e-05	5e-05	6e-05	7e-05	3
10824	-7e-05	0.00015	9e-05	1e-05	-9e-05	5e-05	6e-05	7e-05	3
10825	-7e-05	0.00015	9e-05	1e-05	-9e-05	5e-05	6e-05	7e-05	3
10826	-7e-05	0.00015	9e-05	1e-05	-9e-05	5e-05	6e-05	7e-05	3
10827	-7e-05	0.00015	9e-05	1e-05	-9e-05	5e-05	6e-05	7e-05	3
10828	-7e-05	0.00015	9e-05	1e-05	-9e-05	5e-05	6e-05	7e-05	3
10829	-7e-05	0.00015	9e-05	1e-05	-9e-05	5e-05	6e-05	7e-05	3
10830	-7e-05	0.00015	9e-05	1e-05	-9e-05	5e-05	6e-05	7e-05	3
10831	-7e-05	0.00015	9e-05	1e-05	-9e-05	5e-05	6e-05	7e-05	3
10832	-7e-05	0.00015	9e-05	1e-05	-9e-05	5e-05	6e-05	7e-05	3
10833	-7e-05	0.00015	9e-05	1e-05	-9e-05	5e-05	6e-05	7e-05	3
10834	-7e-05	0.00015	9e-05	1e-05	-9e-05	5e-05	6e-05	7e-05	3
10835	-7e-05	0.00015	9e-05	1e-05	-9e-05	5e-05	6e-05	7e-05	3
10836	-7e-05	0.00015	9e-05	1e-05	-9e-05	5e-05	6e-05	7e-05	3
10839	-0.00033	-0.00042	-6e-05	-1e-05	1e-05	5e-05	0.00015	0.00013	3
10840	-0.00033	-0.00042	-6e-05	-1e-05	1e-05	5e-05	0.00015	0.00013	3
10841	0.0001	0.0002	-6e-05	-3e-05	-0.00011	-4e-05	-0.00013	-4e-05	3
10842	0.0003	0.00046	-8e-05	4e-05	0.00016	7e-05	7e-05	5e-05	3
10843	0.0003	0.00046	-8e-05	4e-05	0.00016	7e-05	7e-05	5e-05	3
10844	0.0003	0.00046	-8e-05	4e-05	0.00016	7e-05	7e-05	5e-05	3
10845	0.0003	0.00046	-8e-05	4e-05	0.00016	7e-05	7e-05	5e-05	3
10846	0.0003	0.00046	-8e-05	4e-05	0.00016	7e-05	7e-05	5e-05	3
10847	0.0003	0.00046	-8e-05	4e-05	0.00016	7e-05	7e-05	5e-05	3
10848	0.0003	0.00046	-8e-05	4e-05	0.00016	7e-05	7e-05	5e-05	3
10849	0.0003	0.00046	-8e-05	4e-05	0.00016	7e-05	7e-05	5e-05	3
10850	0.0003	0.00046	-8e-05	4e-05	0.00016	7e-05	7e-05	5e-05	3
10851	0.0003	0.00046	-8e-05	4e-05	0.00016	7e-05	7e-05	5e-05	3
10852	0.0003	0.00046	-8e-05	4e-05	0.00016	7e-05	7e-05	5e-05	3
10853	0.0003	0.00046	-8e-05	4e-05	0.00016	7e-05	7e-05	5e-05	3
10854	0.0003	0.00046	-8e-05	4e-05	0.00016	7e-05	7e-05	5e-05	3
10855	0.0003	0.00046	-8e-05	4e-05	0.00016	7e-05	7e-05	5e-05	3
10856	0.0003	0.00046	-8e-05	4e-05	0.00016	7e-05	7e-05	5e-05	3
10857	0.0003	0.00046	-8e-05	4e-05	0.00016	7e-05	7e-05	5e-05	3
10858	0.0003	0.00046	-8e-05	4e-05	0.00016	7e-05	7e-05	5e-05	3
10859	0.0003	0.00046	-8e-05	4e-05	0.00016	7e-05	7e-05	5e-05	3
10860	0.0003	0.00046	-8e-05	4e-05	0.00016	7e-05	7e-05	5e-05	3
10861	0.0003	0.00046	-8e-05	4e-05	0.00016	7e-05	7e-05	5e-05	3
10862	1e-05	-0.0001	1e-05	7e-05	0.00024	0.00014	7e-05	0.00012	3
10863	7e-05	0.00018	0.00013	3e-05	-4e-05	-4e-05	-5e-05	-0.0002	3
10864	2e-05	8e-05	7e-05	-5e-05	-6e-05	-6e-05	5e-05	0.00035	3
10865	2e-05	8e-05	7e-05	-5e-05	-6e-05	-6e-05	5e-05	0.00035	3
10866	2e-05	8e-05	7e-05	-5e-05	-6e-05	-6e-05	5e-05	0.00035	3
10867	2e-05	8e-05	7e-05	-5e-05	-6e-05	-6e-05	5e-05	0.00035	3
10868	2e-05	8e-05	7e-05	-5e-05	-6e-05	-6e-05	5e-05	0.00035	3
10869	2e-05	8e-05	7e-05	-5e-05	-6e-05	-6e-05	5e-05	0.00035	3
10870	2e-05	8e-05	7e-05	-5e-05	-6e-05	-6e-05	5e-05	0.00035	3
10871	2e-05	8e-05	7e-05	-5e-05	-6e-05	-6e-05	5e-05	0.00035	3
10872	2e-05	8e-05	7e-05	-5e-05	-6e-05	-6e-05	5e-05	0.00035	3
10873	2e-05	8e-05	7e-05	-5e-05	-6e-05	-6e-05	5e-05	0.00035	3
10874	2e-05	8e-05	7e-05	-5e-05	-6e-05	-6e-05	5e-05	0.00035	3
10875	2e-05	8e-05	7e-05	-5e-05	-6e-05	-6e-05	5e-05	0.00035	3
10876	2e-05	8e-05	7e-05	-5e-05	-6e-05	-6e-05	5e-05	0.00035	3
10877	2e-05	8e-05	7e-05	-5e-05	-6e-05	-6e-05	5e-05	0.00035	3
10878	2e-05	8e-05	7e-05	-5e-05	-6e-05	-6e-05	5e-05	0.00035	3
10879	2e-05	8e-05	7e-05	-5e-05	-6e-05	-6e-05	5e-05	0.00035	3
10880	2e-05	8e-05	7e-05	-5e-05	-6e-05	-6e-05	5e-05	0.00035	3
10881	2e-05	8e-05	7e-05	-5e-05	-6e-05	-6e-05	5e-05	0.00035	3
10882	2e-05	8e-05	7e-05	-5e-05	-6e-05	-6e-05	5e-05	0.00035	3
10883	2e-05	8e-05	7e-05	-5e-05	-6e-05	-6e-05	5e-05	0.00035	3
10884	2e-05	8e-05	7e-05	-5e-05	-6e-05	-6e-05	5e-05	0.00035	3
10885	2e-05	8e-05	7e-05	-5e-05	-6e-05	-6e-05	5e-05	0.00035	3
10886	2e-05	8e-05	7e-05	-5e-05	-6e-05	-6e-05	5e-05	0.00035	3
10889	2e-05	8e-05	7e-05	-5e-05	-6e-05	-6e-05	5e-05	0.00035	3
10890	2e-05	8e-05	7e-05	-5e-05	-6e-05	-6e-05	5e-05	0.00035	3
10891	0.00014	0.00048	0.00017	0.00011	0.0002	0.00013	0.00013	7e-05	3
10892	0.00014	0.00048	0.00017	0.00011	0.0002	0.00013	0.00013	7e-05	3
10893	0.00014	0.00048	0.00017	0.00011	0.0002	0.00013	0.00013	7e-05	3
10894	0.00014	0.00048	0.00017	0.00011	0.0002	0.00013	0.00013	7e-05	3
10895	0.00014	0.00048	0.00017	0.00011	0.0002	0.00013	0.00013	7e-05	3
10896	0.00014	0.00048	0.00017	0.00011	0.0002	0.00013	0.00013	7e-05	3
10897	0.00014	0.00048	0.00017	0.00011	0.0002	0.00013	0.00013	7e-05	3
10898	0.00014	0.00048	0.00017	0.00011	0.0002	0.00013	0.00013	7e-05	3
10899	0.00014	0.00048	0.00017	0.00011	0.0002	0.00013	0.00013	7e-05	3
10900	0.00014	0.00048	0.00017	0.00011	0.0002	0.00013	0.00013	7e-05	3
10901	0.00014	0.00048	0.00017	0.00011	0.0002	0.00013	0.00013	7e-05	3
10902	0.00014	0.00048	0.00017	0.00011	0.0002	0.00013	0.00013	7e-05	3
10903	0.00014	0.00048	0.00017	0.00011	0.0002	0.00013	0.00013	7e-05	3
10904	0.00014	0.00048	0.00017	0.00011	0.0002	0.00013	0.00013	7e-05	3
10905	0.00014	0.00048	0.00017	0.00011	0.0002	0.00013	0.00013	7e-05	3
10906	0.00014	0.00048	0.00017	0.00011	0.0002	0.00013	0.00013	7e-05	3
10907	0.00014	0.00048	0.00017	0.00011	0.0002	0.00013	0.00013	7e-05	3
10908	0.00014	0.00048	0.00017	0.00011	0.0002	0.00013	0.00013	7e-05	3
10909	0.00014	0.00048	0.00017	0.00011	0.0002	0.00013	0.00013	7e-05	3
10910	0.00014	0.00048	0.00017	0.00011	0.0002	0.00013	0.00013	7e-05	3
10911	0.00014	0.00048	0.00017	0.00011	0.0002	0.00013	0.00013	7e-05	3
10912	0.00014	0.00048	0.00017	0.00011	0.0002	0.00013	0.00013	7e-05	3
10913	0.00014	0.00048	0.00017	0.00011	0.0002	0.00013	0.00013	7e-05	3
10914	0.00044	0.00031	6e-05	-1e-05	-3e-05	-2e-05	-0.00013	-0.00015	3
10915	-0.00036	-0.00072	-9e-05	-5e-05	-0.00014	-0.00012	-5e-05	-0.00056	3
10916	-0.00036	-0.00072	-9e-05	-5e-05	-0.00014	-0.00012	-5e-05	-0.00056	3
10917	-0.00013	-0.00012	-6e-05	-1e-05	0.0001	-3e-05	6e-05	-6e-05	3
10918	-0.00013	-0.00012	-6e-05	-1e-05	0.0001	-3e-05	6e-05	-6e-05	3
10919	-0.00013	-0.00012	-6e-05	-1e-05	0.0001	-3e-05	6e-05	-6e-05	3
10920	-0.00013	-0.00012	-6e-05	-1e-05	0.0001	-3e-05	6e-05	-6e-05	3
10921	-0.00013	-0.00012	-6e-05	-1e-05	0.0001	-3e-05	6e-05	-6e-05	3
10922	-0.00013	-0.00012	-6e-05	-1e-05	0.0001	-3e-05	6e-05	-6e-05	3
10923	-0.00013	-0.00012	-6e-05	-1e-05	0.0001	-3e-05	6e-05	-6e-05	3
10924	-0.00013	-0.00012	-6e-05	-1e-05	0.0001	-3e-05	6e-05	-6e-05	3
10925	-0.00013	-0.00012	-6e-05	-1e-05	0.0001	-3e-05	6e-05	-6e-05	3
10926	-0.00013	-0.00012	-6e-05	-1e-05	0.0001	-3e-05	6e-05	-6e-05	3
10927	-0.00013	-0.00012	-6e-05	-1e-05	0.0001	-3e-05	6e-05	-6e-05	3
10928	-0.00013	-0.00012	-6e-05	-1e-05	0.0001	-3e-05	6e-05	-6e-05	3
10929	-0.00013	-0.00012	-6e-05	-1e-05	0.0001	-3e-05	6e-05	-6e-05	3
10930	-0.00013	-0.00012	-6e-05	-1e-05	0.0001	-3e-05	6e-05	-6e-05	3
10931	-0.00013	-0.00012	-6e-05	-1e-05	0.0001	-3e-05	6e-05	-6e-05	3
10932	-0.00013	-0.00012	-6e-05	-1e-05	0.0001	-3e-05	6e-05	-6e-05	3
10933	-0.00013	-0.00012	-6e-05	-1e-05	0.0001	-3e-05	6e-05	-6e-05	3
10934	-0.00013	-0.00012	-6e-05	-1e-05	0.0001	-3e-05	6e-05	-6e-05	3
10935	-0.00013	-0.00012	-6e-05	-1e-05	0.0001	-3e-05	6e-05	-6e-05	3
10936	0.00014	0.00046	0.00012	7e-05	0.00015	9e-05	-1e-05	0.00036	3
10939	0.0001	0.00012	0	-3e-05	-0.00013	-0.00012	-6e-05	0.00033	3
10940	0.0001	0.00012	0	-3e-05	-0.00013	-0.00012	-6e-05	0.00033	3
10941	0.0001	0.00012	0	-3e-05	-0.00013	-0.00012	-6e-05	0.00033	3
10942	0.0001	0.00012	0	-3e-05	-0.00013	-0.00012	-6e-05	0.00033	3
10943	0.0001	0.00012	0	-3e-05	-0.00013	-0.00012	-6e-05	0.00033	3
10944	0.0001	0.00012	0	-3e-05	-0.00013	-0.00012	-6e-05	0.00033	3
10945	0.0001	0.00012	0	-3e-05	-0.00013	-0.00012	-6e-05	0.00033	3
10946	0.0001	0.00012	0	-3e-05	-0.00013	-0.00012	-6e-05	0.00033	3
10947	0.0001	0.00012	0	-3e-05	-0.00013	-0.00012	-6e-05	0.00033	3
10948	0.0001	0.00012	0	-3e-05	-0.00013	-0.00012	-6e-05	0.00033	3
10949	0.0001	0.00012	0	-3e-05	-0.00013	-0.00012	-6e-05	0.00033	3
10950	0.0001	0.00012	0	-3e-05	-0.00013	-0.00012	-6e-05	0.00033	3
10951	0.0001	0.00012	0	-3e-05	-0.00013	-0.00012	-6e-05	0.00033	3
10952	0.0001	0.00012	0	-3e-05	-0.00013	-0.00012	-6e-05	0.00033	3
10953	0.0001	0.00012	0	-3e-05	-0.00013	-0.00012	-6e-05	0.00033	3
10954	0.0001	0.00012	0	-3e-05	-0.00013	-0.00012	-6e-05	0.00033	3
10955	0.0001	0.00012	0	-3e-05	-0.00013	-0.00012	-6e-05	0.00033	3
10956	0.0001	0.00012	0	-3e-05	-0.00013	-0.00012	-6e-05	0.00033	3
10957	3e-05	2e-05	4e-05	-9e-05	-0.00011	-0.00012	-6e-05	0.00013	3
10958	3e-05	2e-05	4e-05	-9e-05	-0.00011	-0.00012	-6e-05	0.00013	3
10959	3e-05	2e-05	4e-05	-9e-05	-0.00011	-0.00012	-6e-05	0.00013	3
10960	3e-05	2e-05	4e-05	-9e-05	-0.00011	-0.00012	-6e-05	0.00013	3
10961	3e-05	2e-05	4e-05	-9e-05	-0.00011	-0.00012	-6e-05	0.00013	3
10962	3e-05	2e-05	4e-05	-9e-05	-0.00011	-0.00012	-6e-05	0.00013	3
10963	3e-05	2e-05	4e-05	-9e-05	-0.00011	-0.00012	-6e-05	0.00013	3
10964	3e-05	2e-05	4e-05	-9e-05	-0.00011	-0.00012	-6e-05	0.00013	3
10965	3e-05	2e-05	4e-05	-9e-05	-0.00011	-0.00012	-6e-05	0.00013	3
10966	3e-05	2e-05	4e-05	-9e-05	-0.00011	-0.00012	-6e-05	0.00013	3
10967	0.00048	0.00031	-2e-05	-1e-05	8e-05	0.00011	7e-05	0.00021	3
10968	-0.00032	-0.00065	-0.00023	-8e-05	0	-5e-05	-0.0001	-0.00037	3
10969	-0.00017	-9e-05	-3e-05	1e-05	2e-05	-4e-05	-0.00015	-2e-05	3
10970	-0.00017	-9e-05	-3e-05	1e-05	2e-05	-4e-05	-0.00015	-2e-05	3
10971	-0.00017	-9e-05	-3e-05	1e-05	2e-05	-4e-05	-0.00015	-2e-05	3
10972	-0.00017	-9e-05	-3e-05	1e-05	2e-05	-4e-05	-0.00015	-2e-05	3
10973	-0.00017	-9e-05	-3e-05	1e-05	2e-05	-4e-05	-0.00015	-2e-05	3
10974	-0.00017	-9e-05	-3e-05	1e-05	2e-05	-4e-05	-0.00015	-2e-05	3
10975	-0.00017	-9e-05	-3e-05	1e-05	2e-05	-4e-05	-0.00015	-2e-05	3
10976	-0.00017	-9e-05	-3e-05	1e-05	2e-05	-4e-05	-0.00015	-2e-05	3
10977	-0.00017	-9e-05	-3e-05	1e-05	2e-05	-4e-05	-0.00015	-2e-05	3
10978	-0.00017	-9e-05	-3e-05	1e-05	2e-05	-4e-05	-0.00015	-2e-05	3
10979	-0.00017	-9e-05	-3e-05	1e-05	2e-05	-4e-05	-0.00015	-2e-05	3
10980	-0.00017	-9e-05	-3e-05	1e-05	2e-05	-4e-05	-0.00015	-2e-05	3
10981	-0.00017	-9e-05	-3e-05	1e-05	2e-05	-4e-05	-0.00015	-2e-05	3
10982	-0.00017	-9e-05	-3e-05	1e-05	2e-05	-4e-05	-0.00015	-2e-05	3
10983	-0.00017	-9e-05	-3e-05	1e-05	2e-05	-4e-05	-0.00015	-2e-05	3
10984	-0.00017	-9e-05	-3e-05	1e-05	2e-05	-4e-05	-0.00015	-2e-05	3
10985	-0.00017	-9e-05	-3e-05	1e-05	2e-05	-4e-05	-0.00015	-2e-05	3
10986	-0.00017	-9e-05	-3e-05	1e-05	2e-05	-4e-05	-0.00015	-2e-05	3
10989	-4e-05	0.00027	-4e-05	-6e-05	-0.00017	-3e-05	-3e-05	6e-05	3
10990	-2e-05	4e-05	-2e-05	-6e-05	-9e-05	-7e-05	-7e-05	0.00014	3
10991	-2e-05	4e-05	-2e-05	-6e-05	-9e-05	-7e-05	-7e-05	0.00014	3
10992	-2e-05	4e-05	-2e-05	-6e-05	-9e-05	-7e-05	-7e-05	0.00014	3
10993	-2e-05	4e-05	-2e-05	-6e-05	-9e-05	-7e-05	-7e-05	0.00014	3
10994	-2e-05	4e-05	-2e-05	-6e-05	-9e-05	-7e-05	-7e-05	0.00014	3
10995	-2e-05	4e-05	-2e-05	-6e-05	-9e-05	-7e-05	-7e-05	0.00014	3
10996	-2e-05	4e-05	-2e-05	-6e-05	-9e-05	-7e-05	-7e-05	0.00014	3
10997	-2e-05	4e-05	-2e-05	-6e-05	-9e-05	-7e-05	-7e-05	0.00014	3
10998	-2e-05	4e-05	-2e-05	-6e-05	-9e-05	-7e-05	-7e-05	0.00014	3
10999	-2e-05	4e-05	-2e-05	-6e-05	-9e-05	-7e-05	-7e-05	0.00014	3
11000	-2e-05	4e-05	-2e-05	-6e-05	-9e-05	-7e-05	-7e-05	0.00014	3
11001	-2e-05	4e-05	-2e-05	-6e-05	-9e-05	-7e-05	-7e-05	0.00014	3
11002	-2e-05	4e-05	-2e-05	-6e-05	-9e-05	-7e-05	-7e-05	0.00014	3
11003	-2e-05	4e-05	-2e-05	-6e-05	-9e-05	-7e-05	-7e-05	0.00014	3
11004	-2e-05	4e-05	-2e-05	-6e-05	-9e-05	-7e-05	-7e-05	0.00014	3
11005	-2e-05	4e-05	-2e-05	-6e-05	-9e-05	-7e-05	-7e-05	0.00014	3
11006	-2e-05	4e-05	-2e-05	-6e-05	-9e-05	-7e-05	-7e-05	0.00014	3
11007	-2e-05	4e-05	-2e-05	-6e-05	-9e-05	-7e-05	-7e-05	0.00014	3
11008	-2e-05	4e-05	-2e-05	-6e-05	-9e-05	-7e-05	-7e-05	0.00014	3
11009	-0.00018	-9e-05	0	0	3e-05	4e-05	7e-05	0.00018	3
11010	-0.0001	-0.00015	-5e-05	1e-05	0	1e-05	-0.0001	-8e-05	3
11011	-0.0001	-0.00015	-5e-05	1e-05	0	1e-05	-0.0001	-8e-05	3
11012	-0.0001	-0.00015	-5e-05	1e-05	0	1e-05	-0.0001	-8e-05	3
11013	-0.0001	-0.00015	-5e-05	1e-05	0	1e-05	-0.0001	-8e-05	3
11014	-0.0001	-0.00015	-5e-05	1e-05	0	1e-05	-0.0001	-8e-05	3
11015	-0.0001	-0.00015	-5e-05	1e-05	0	1e-05	-0.0001	-8e-05	3
11016	-0.0001	-0.00015	-5e-05	1e-05	0	1e-05	-0.0001	-8e-05	3
11017	-0.0001	-0.00015	-5e-05	1e-05	0	1e-05	-0.0001	-8e-05	3
11018	-0.0001	-0.00015	-5e-05	1e-05	0	1e-05	-0.0001	-8e-05	3
11019	-0.0001	-0.00015	-5e-05	1e-05	0	1e-05	-0.0001	-8e-05	3
11020	-0.0001	-0.00015	-5e-05	1e-05	0	1e-05	-0.0001	-8e-05	3
11021	-0.0001	-0.00015	-5e-05	1e-05	0	1e-05	-0.0001	-8e-05	3
11022	-0.0001	-0.00015	-5e-05	1e-05	0	1e-05	-0.0001	-8e-05	3
11023	-0.0001	-0.00015	-5e-05	1e-05	0	1e-05	-0.0001	-8e-05	3
11024	-0.0001	-0.00015	-5e-05	1e-05	0	1e-05	-0.0001	-8e-05	3
11025	-0.0001	-0.00015	-5e-05	1e-05	0	1e-05	-0.0001	-8e-05	3
11026	-0.0001	-0.00015	-5e-05	1e-05	0	1e-05	-0.0001	-8e-05	3
11027	-0.0001	-0.00015	-5e-05	1e-05	0	1e-05	-0.0001	-8e-05	3
11028	-0.0001	-0.00015	-5e-05	1e-05	0	1e-05	-0.0001	-8e-05	3
11029	-0.0001	-0.00015	-5e-05	1e-05	0	1e-05	-0.0001	-8e-05	3
11030	-0.0001	-0.00015	-5e-05	1e-05	0	1e-05	-0.0001	-8e-05	3
11031	-0.0001	-0.00015	-5e-05	1e-05	0	1e-05	-0.0001	-8e-05	3
11032	-3e-05	-4e-05	0	-5e-05	-3e-05	6e-05	4e-05	-4e-05	3
11033	-3e-05	-4e-05	0	-5e-05	-3e-05	6e-05	4e-05	-4e-05	3
11034	-3e-05	-4e-05	0	-5e-05	-3e-05	6e-05	4e-05	-4e-05	3
11035	-3e-05	-4e-05	0	-5e-05	-3e-05	6e-05	4e-05	-4e-05	3
11036	-3e-05	-4e-05	0	-5e-05	-3e-05	6e-05	4e-05	-4e-05	3
11038	-3e-05	-4e-05	0	-5e-05	-3e-05	6e-05	4e-05	-4e-05	3
11039	-3e-05	-4e-05	0	-5e-05	-3e-05	6e-05	4e-05	-4e-05	3
11040	-3e-05	-4e-05	0	-5e-05	-3e-05	6e-05	4e-05	-4e-05	3
11041	-3e-05	-4e-05	0	-5e-05	-3e-05	6e-05	4e-05	-4e-05	3
11042	-0.00014	-8e-05	-0.00011	-7e-05	-0.00014	-9e-05	-0.0001	-0.00014	3
11043	-0.00021	-0.00027	-0.00013	-1e-05	0	-3e-05	1e-05	-1e-05	3
11044	-0.00021	-0.00027	-0.00013	-1e-05	0	-3e-05	1e-05	-1e-05	3
11045	-0.00021	-0.00027	-0.00013	-1e-05	0	-3e-05	1e-05	-1e-05	3
11046	-0.00021	-0.00027	-0.00013	-1e-05	0	-3e-05	1e-05	-1e-05	3
11047	-0.00021	-0.00027	-0.00013	-1e-05	0	-3e-05	1e-05	-1e-05	3
11048	-0.00021	-0.00027	-0.00013	-1e-05	0	-3e-05	1e-05	-1e-05	3
11049	-0.00021	-0.00027	-0.00013	-1e-05	0	-3e-05	1e-05	-1e-05	3
11050	-0.00021	-0.00027	-0.00013	-1e-05	0	-3e-05	1e-05	-1e-05	3
11051	-0.00021	-0.00027	-0.00013	-1e-05	0	-3e-05	1e-05	-1e-05	3
11052	-0.00021	-0.00027	-0.00013	-1e-05	0	-3e-05	1e-05	-1e-05	3
11053	-0.00021	-0.00027	-0.00013	-1e-05	0	-3e-05	1e-05	-1e-05	3
11054	-0.00021	-0.00027	-0.00013	-1e-05	0	-3e-05	1e-05	-1e-05	3
11055	-0.00021	-0.00027	-0.00013	-1e-05	0	-3e-05	1e-05	-1e-05	3
11056	-0.00021	-0.00027	-0.00013	-1e-05	0	-3e-05	1e-05	-1e-05	3
11057	-0.00021	-0.00027	-0.00013	-1e-05	0	-3e-05	1e-05	-1e-05	3
11058	-0.00021	-0.00027	-0.00013	-1e-05	0	-3e-05	1e-05	-1e-05	3
11059	-0.00021	-0.00027	-0.00013	-1e-05	0	-3e-05	1e-05	-1e-05	3
11060	-0.00021	-0.00027	-0.00013	-1e-05	0	-3e-05	1e-05	-1e-05	3
11061	-0.00021	-0.00027	-0.00013	-1e-05	0	-3e-05	1e-05	-1e-05	3
11062	-0.00021	-0.00027	-0.00013	-1e-05	0	-3e-05	1e-05	-1e-05	3
11063	-0.00021	-0.00027	-0.00013	-1e-05	0	-3e-05	1e-05	-1e-05	3
11064	7e-05	7e-05	-3e-05	4e-05	7e-05	4e-05	-1e-05	-0.00013	3
11065	-0.00027	-7e-05	-3e-05	4e-05	-1e-05	-0.00015	-0.00014	-0.00041	3
11066	-0.00027	-7e-05	-3e-05	4e-05	-1e-05	-0.00015	-0.00014	-0.00041	3
11067	5e-05	-0.00028	-9e-05	-3e-05	2e-05	-5e-05	-0.00011	-0.00036	3
11068	5e-05	-0.00028	-9e-05	-3e-05	2e-05	-5e-05	-0.00011	-0.00036	3
11069	5e-05	-0.00028	-9e-05	-3e-05	2e-05	-5e-05	-0.00011	-0.00036	3
11070	5e-05	-0.00028	-9e-05	-3e-05	2e-05	-5e-05	-0.00011	-0.00036	3
11071	5e-05	-0.00028	-9e-05	-3e-05	2e-05	-5e-05	-0.00011	-0.00036	3
11073	5e-05	-0.00028	-9e-05	-3e-05	2e-05	-5e-05	-0.00011	-0.00036	3
11074	5e-05	-0.00028	-9e-05	-3e-05	2e-05	-5e-05	-0.00011	-0.00036	3
11075	5e-05	-0.00028	-9e-05	-3e-05	2e-05	-5e-05	-0.00011	-0.00036	3
11076	5e-05	-0.00028	-9e-05	-3e-05	2e-05	-5e-05	-0.00011	-0.00036	3
11077	5e-05	-0.00028	-9e-05	-3e-05	2e-05	-5e-05	-0.00011	-0.00036	3
11078	5e-05	-0.00028	-9e-05	-3e-05	2e-05	-5e-05	-0.00011	-0.00036	3
11079	5e-05	-0.00028	-9e-05	-3e-05	2e-05	-5e-05	-0.00011	-0.00036	3
11080	5e-05	-0.00028	-9e-05	-3e-05	2e-05	-5e-05	-0.00011	-0.00036	3
11081	5e-05	-0.00028	-9e-05	-3e-05	2e-05	-5e-05	-0.00011	-0.00036	3
11082	5e-05	-0.00028	-9e-05	-3e-05	2e-05	-5e-05	-0.00011	-0.00036	3
11083	5e-05	-0.00028	-9e-05	-3e-05	2e-05	-5e-05	-0.00011	-0.00036	3
11084	5e-05	-0.00028	-9e-05	-3e-05	2e-05	-5e-05	-0.00011	-0.00036	3
11085	5e-05	-0.00028	-9e-05	-3e-05	2e-05	-5e-05	-0.00011	-0.00036	3
11086	-0.00015	-0.00019	-8e-05	-7e-05	-0.00013	-3e-05	-8e-05	-0.00017	3
11089	4e-05	-3e-05	0.00015	0	-6e-05	9e-05	-4e-05	-0.00016	3
11090	4e-05	-3e-05	0.00015	0	-6e-05	9e-05	-4e-05	-0.00016	3
11091	4e-05	-3e-05	0.00015	0	-6e-05	9e-05	-4e-05	-0.00016	3
11092	4e-05	-3e-05	0.00015	0	-6e-05	9e-05	-4e-05	-0.00016	3
11093	4e-05	-3e-05	0.00015	0	-6e-05	9e-05	-4e-05	-0.00016	3
11094	4e-05	-3e-05	0.00015	0	-6e-05	9e-05	-4e-05	-0.00016	3
11095	4e-05	-3e-05	0.00015	0	-6e-05	9e-05	-4e-05	-0.00016	3
11096	4e-05	-3e-05	0.00015	0	-6e-05	9e-05	-4e-05	-0.00016	3
11097	4e-05	-3e-05	0.00015	0	-6e-05	9e-05	-4e-05	-0.00016	3
11098	4e-05	-3e-05	0.00015	0	-6e-05	9e-05	-4e-05	-0.00016	3
11099	4e-05	-3e-05	0.00015	0	-6e-05	9e-05	-4e-05	-0.00016	3
11100	4e-05	-3e-05	0.00015	0	-6e-05	9e-05	-4e-05	-0.00016	3
11101	4e-05	-3e-05	0.00015	0	-6e-05	9e-05	-4e-05	-0.00016	3
11102	4e-05	-3e-05	0.00015	0	-6e-05	9e-05	-4e-05	-0.00016	3
11103	4e-05	-3e-05	0.00015	0	-6e-05	9e-05	-4e-05	-0.00016	3
11104	4e-05	-3e-05	0.00015	0	-6e-05	9e-05	-4e-05	-0.00016	3
11105	4e-05	-3e-05	0.00015	0	-6e-05	9e-05	-4e-05	-0.00016	3
11106	4e-05	-3e-05	0.00015	0	-6e-05	9e-05	-4e-05	-0.00016	3
11107	4e-05	-3e-05	0.00015	0	-6e-05	9e-05	-4e-05	-0.00016	3
11108	4e-05	-3e-05	0.00015	0	-6e-05	9e-05	-4e-05	-0.00016	3
11109	4e-05	-3e-05	0.00015	0	-6e-05	9e-05	-4e-05	-0.00016	3
11110	4e-05	-3e-05	0.00015	0	-6e-05	9e-05	-4e-05	-0.00016	3
11111	4e-05	-3e-05	0.00015	0	-6e-05	9e-05	-4e-05	-0.00016	3
11112	4e-05	-3e-05	0.00015	0	-6e-05	9e-05	-4e-05	-0.00016	3
11113	4e-05	-3e-05	0.00015	0	-6e-05	9e-05	-4e-05	-0.00016	3
11114	4e-05	-3e-05	0.00015	0	-6e-05	9e-05	-4e-05	-0.00016	3
11115	4e-05	-3e-05	0.00015	0	-6e-05	9e-05	-4e-05	-0.00016	3
11116	4e-05	-3e-05	0.00015	0	-6e-05	9e-05	-4e-05	-0.00016	3
11117	0.00061	0.00054	-5e-05	-7e-05	0	0.00015	0.00017	0.00043	3
11119	0.00047	0.00031	0.00012	-2e-05	-0.00022	-0.0001	-0.00012	0.00022	3
11120	0.00047	0.00031	0.00012	-2e-05	-0.00022	-0.0001	-0.00012	0.00022	3
11121	0.00047	0.00031	0.00012	-2e-05	-0.00022	-0.0001	-0.00012	0.00022	3
11122	0.00047	0.00031	0.00012	-2e-05	-0.00022	-0.0001	-0.00012	0.00022	3
11123	0.00047	0.00031	0.00012	-2e-05	-0.00022	-0.0001	-0.00012	0.00022	3
11124	0.00047	0.00031	0.00012	-2e-05	-0.00022	-0.0001	-0.00012	0.00022	3
11125	0.00047	0.00031	0.00012	-2e-05	-0.00022	-0.0001	-0.00012	0.00022	3
11126	0.00047	0.00031	0.00012	-2e-05	-0.00022	-0.0001	-0.00012	0.00022	3
11127	0.00047	0.00031	0.00012	-2e-05	-0.00022	-0.0001	-0.00012	0.00022	3
11128	0.00047	0.00031	0.00012	-2e-05	-0.00022	-0.0001	-0.00012	0.00022	3
11129	0.00047	0.00031	0.00012	-2e-05	-0.00022	-0.0001	-0.00012	0.00022	3
11130	0.00047	0.00031	0.00012	-2e-05	-0.00022	-0.0001	-0.00012	0.00022	3
11131	0.00047	0.00031	0.00012	-2e-05	-0.00022	-0.0001	-0.00012	0.00022	3
11132	0.00047	0.00031	0.00012	-2e-05	-0.00022	-0.0001	-0.00012	0.00022	3
11133	0.00047	0.00031	0.00012	-2e-05	-0.00022	-0.0001	-0.00012	0.00022	3
11134	0.00047	0.00031	0.00012	-2e-05	-0.00022	-0.0001	-0.00012	0.00022	3
11135	0.00047	0.00031	0.00012	-2e-05	-0.00022	-0.0001	-0.00012	0.00022	3
11137	0.00047	0.00031	0.00012	-2e-05	-0.00022	-0.0001	-0.00012	0.00022	3
11140	-2e-05	-8e-05	-2e-05	-2e-05	-1e-05	-0.00017	-2e-05	0	3
11141	3e-05	2e-05	7e-05	-6e-05	-0.00016	-0.0002	-0.00012	8e-05	3
11142	3e-05	2e-05	7e-05	-6e-05	-0.00016	-0.0002	-0.00012	8e-05	3
11143	3e-05	2e-05	7e-05	-6e-05	-0.00016	-0.0002	-0.00012	8e-05	3
11144	3e-05	2e-05	7e-05	-6e-05	-0.00016	-0.0002	-0.00012	8e-05	3
11145	3e-05	2e-05	7e-05	-6e-05	-0.00016	-0.0002	-0.00012	8e-05	3
11146	3e-05	2e-05	7e-05	-6e-05	-0.00016	-0.0002	-0.00012	8e-05	3
11147	3e-05	2e-05	7e-05	-6e-05	-0.00016	-0.0002	-0.00012	8e-05	3
11148	3e-05	2e-05	7e-05	-6e-05	-0.00016	-0.0002	-0.00012	8e-05	3
11149	3e-05	2e-05	7e-05	-6e-05	-0.00016	-0.0002	-0.00012	8e-05	3
11150	3e-05	2e-05	7e-05	-6e-05	-0.00016	-0.0002	-0.00012	8e-05	3
11151	3e-05	2e-05	7e-05	-6e-05	-0.00016	-0.0002	-0.00012	8e-05	3
11152	3e-05	2e-05	7e-05	-6e-05	-0.00016	-0.0002	-0.00012	8e-05	3
11153	3e-05	2e-05	7e-05	-6e-05	-0.00016	-0.0002	-0.00012	8e-05	3
11154	3e-05	2e-05	7e-05	-6e-05	-0.00016	-0.0002	-0.00012	8e-05	3
11155	3e-05	2e-05	7e-05	-6e-05	-0.00016	-0.0002	-0.00012	8e-05	3
11156	3e-05	2e-05	7e-05	-6e-05	-0.00016	-0.0002	-0.00012	8e-05	3
11157	3e-05	2e-05	7e-05	-6e-05	-0.00016	-0.0002	-0.00012	8e-05	3
11158	3e-05	2e-05	7e-05	-6e-05	-0.00016	-0.0002	-0.00012	8e-05	3
11159	3e-05	2e-05	7e-05	-6e-05	-0.00016	-0.0002	-0.00012	8e-05	3
11160	3e-05	2e-05	7e-05	-6e-05	-0.00016	-0.0002	-0.00012	8e-05	3
11161	3e-05	2e-05	7e-05	-6e-05	-0.00016	-0.0002	-0.00012	8e-05	3
11162	3e-05	2e-05	7e-05	-6e-05	-0.00016	-0.0002	-0.00012	8e-05	3
11163	3e-05	2e-05	7e-05	-6e-05	-0.00016	-0.0002	-0.00012	8e-05	3
11164	3e-05	2e-05	7e-05	-6e-05	-0.00016	-0.0002	-0.00012	8e-05	3
11165	3e-05	2e-05	7e-05	-6e-05	-0.00016	-0.0002	-0.00012	8e-05	3
11166	3e-05	2e-05	7e-05	-6e-05	-0.00016	-0.0002	-0.00012	8e-05	3
11167	3e-05	2e-05	7e-05	-6e-05	-0.00016	-0.0002	-0.00012	8e-05	3
11168	3e-05	2e-05	7e-05	-6e-05	-0.00016	-0.0002	-0.00012	8e-05	3
11169	-0.00023	-0.00021	-1e-05	3e-05	8e-05	0	-5e-05	-0.00022	3
11170	4e-05	-5e-05	-6e-05	-4e-05	-4e-05	2e-05	-9e-05	0.00021	3
11171	4e-05	-5e-05	-6e-05	-4e-05	-4e-05	2e-05	-9e-05	0.00021	3
11172	4e-05	-5e-05	-6e-05	-4e-05	-4e-05	2e-05	-9e-05	0.00021	3
11173	4e-05	-5e-05	-6e-05	-4e-05	-4e-05	2e-05	-9e-05	0.00021	3
11174	4e-05	-5e-05	-6e-05	-4e-05	-4e-05	2e-05	-9e-05	0.00021	3
11175	7e-05	0.00042	4e-05	0.00017	0.00041	8e-05	0.00018	0.00013	3
11176	2e-05	0.0002	1e-05	2e-05	8e-05	2e-05	-3e-05	-4e-05	3
11177	2e-05	0.0002	1e-05	2e-05	8e-05	2e-05	-3e-05	-4e-05	3
11178	2e-05	0.0002	1e-05	2e-05	8e-05	2e-05	-3e-05	-4e-05	3
11179	2e-05	0.0002	1e-05	2e-05	8e-05	2e-05	-3e-05	-4e-05	3
11180	2e-05	0.0002	1e-05	2e-05	8e-05	2e-05	-3e-05	-4e-05	3
11181	2e-05	0.0002	1e-05	2e-05	8e-05	2e-05	-3e-05	-4e-05	3
11182	2e-05	0.0002	1e-05	2e-05	8e-05	2e-05	-3e-05	-4e-05	3
11183	2e-05	0.0002	1e-05	2e-05	8e-05	2e-05	-3e-05	-4e-05	3
11184	2e-05	0.0002	1e-05	2e-05	8e-05	2e-05	-3e-05	-4e-05	3
11185	2e-05	0.0002	1e-05	2e-05	8e-05	2e-05	-3e-05	-4e-05	3
11186	2e-05	0.0002	1e-05	2e-05	8e-05	2e-05	-3e-05	-4e-05	3
11189	0.00059	0.00068	0.00019	7e-05	-7e-05	-1e-05	6e-05	0.00025	3
11190	0.00059	0.00068	0.00019	7e-05	-7e-05	-1e-05	6e-05	0.00025	3
11191	0.00059	0.00068	0.00019	7e-05	-7e-05	-1e-05	6e-05	0.00025	3
11192	0.00059	0.00068	0.00019	7e-05	-7e-05	-1e-05	6e-05	0.00025	3
11193	0.00059	0.00068	0.00019	7e-05	-7e-05	-1e-05	6e-05	0.00025	3
11194	0.00059	0.00068	0.00019	7e-05	-7e-05	-1e-05	6e-05	0.00025	3
11195	0.00059	0.00068	0.00019	7e-05	-7e-05	-1e-05	6e-05	0.00025	3
11196	0.00059	0.00068	0.00019	7e-05	-7e-05	-1e-05	6e-05	0.00025	3
11197	0.00059	0.00068	0.00019	7e-05	-7e-05	-1e-05	6e-05	0.00025	3
11198	0.00059	0.00068	0.00019	7e-05	-7e-05	-1e-05	6e-05	0.00025	3
11199	0.00059	0.00068	0.00019	7e-05	-7e-05	-1e-05	6e-05	0.00025	3
11200	0.00059	0.00068	0.00019	7e-05	-7e-05	-1e-05	6e-05	0.00025	3
11201	0.00059	0.00068	0.00019	7e-05	-7e-05	-1e-05	6e-05	0.00025	3
11202	0.00059	0.00068	0.00019	7e-05	-7e-05	-1e-05	6e-05	0.00025	3
11203	0.00059	0.00068	0.00019	7e-05	-7e-05	-1e-05	6e-05	0.00025	3
11204	0.00059	0.00068	0.00019	7e-05	-7e-05	-1e-05	6e-05	0.00025	3
11205	0.00059	0.00068	0.00019	7e-05	-7e-05	-1e-05	6e-05	0.00025	3
11206	0.00059	0.00068	0.00019	7e-05	-7e-05	-1e-05	6e-05	0.00025	3
11207	0.00059	0.00068	0.00019	7e-05	-7e-05	-1e-05	6e-05	0.00025	3
11208	0.00059	0.00068	0.00019	7e-05	-7e-05	-1e-05	6e-05	0.00025	3
11209	0.00059	0.00068	0.00019	7e-05	-7e-05	-1e-05	6e-05	0.00025	3
11210	0.00059	0.00068	0.00019	7e-05	-7e-05	-1e-05	6e-05	0.00025	3
11211	0.00059	0.00068	0.00019	7e-05	-7e-05	-1e-05	6e-05	0.00025	3
11212	0.00059	0.00068	0.00019	7e-05	-7e-05	-1e-05	6e-05	0.00025	3
11213	2e-05	-3e-05	-8e-05	3e-05	0.0003	0.00011	8e-05	-0.00014	3
11214	2e-05	-3e-05	-8e-05	3e-05	0.0003	0.00011	8e-05	-0.00014	3
11215	4e-05	0	3e-05	-6e-05	-0.00025	-0.00015	-0.00021	-0.00027	3
11216	-0.00087	-0.00113	-0.00027	1e-05	2e-05	0.00012	-4e-05	-0.00027	3
11217	-0.00087	-0.00113	-0.00027	1e-05	2e-05	0.00012	-4e-05	-0.00027	3
11218	-0.00087	-0.00113	-0.00027	1e-05	2e-05	0.00012	-4e-05	-0.00027	3
11219	-0.00087	-0.00113	-0.00027	1e-05	2e-05	0.00012	-4e-05	-0.00027	3
11220	-0.00087	-0.00113	-0.00027	1e-05	2e-05	0.00012	-4e-05	-0.00027	3
11221	-0.00087	-0.00113	-0.00027	1e-05	2e-05	0.00012	-4e-05	-0.00027	3
11222	-0.00087	-0.00113	-0.00027	1e-05	2e-05	0.00012	-4e-05	-0.00027	3
11223	-0.00087	-0.00113	-0.00027	1e-05	2e-05	0.00012	-4e-05	-0.00027	3
11224	-0.00087	-0.00113	-0.00027	1e-05	2e-05	0.00012	-4e-05	-0.00027	3
11225	-0.00087	-0.00113	-0.00027	1e-05	2e-05	0.00012	-4e-05	-0.00027	3
11226	-0.00087	-0.00113	-0.00027	1e-05	2e-05	0.00012	-4e-05	-0.00027	3
11227	-0.00087	-0.00113	-0.00027	1e-05	2e-05	0.00012	-4e-05	-0.00027	3
11228	-0.00087	-0.00113	-0.00027	1e-05	2e-05	0.00012	-4e-05	-0.00027	3
11229	-0.00087	-0.00113	-0.00027	1e-05	2e-05	0.00012	-4e-05	-0.00027	3
11230	-0.00087	-0.00113	-0.00027	1e-05	2e-05	0.00012	-4e-05	-0.00027	3
11231	-0.00087	-0.00113	-0.00027	1e-05	2e-05	0.00012	-4e-05	-0.00027	3
11232	-0.00087	-0.00113	-0.00027	1e-05	2e-05	0.00012	-4e-05	-0.00027	3
11233	-0.00087	-0.00113	-0.00027	1e-05	2e-05	0.00012	-4e-05	-0.00027	3
11234	-0.00087	-0.00113	-0.00027	1e-05	2e-05	0.00012	-4e-05	-0.00027	3
11235	-0.00087	-0.00113	-0.00027	1e-05	2e-05	0.00012	-4e-05	-0.00027	3
11236	-0.00014	6e-05	-1e-05	-9e-05	-0.0001	-4e-05	-4e-05	-3e-05	3
11238	0.0003	0.00024	2e-05	-4e-05	-0.0001	-0.0001	-4e-05	0.00021	3
11239	0.0003	0.00024	2e-05	-4e-05	-0.0001	-0.0001	-4e-05	0.00021	3
11240	0.0003	0.00024	2e-05	-4e-05	-0.0001	-0.0001	-4e-05	0.00021	3
11241	0.0003	0.00024	2e-05	-4e-05	-0.0001	-0.0001	-4e-05	0.00021	3
11242	0.0003	0.00024	2e-05	-4e-05	-0.0001	-0.0001	-4e-05	0.00021	3
11243	0.0003	0.00024	2e-05	-4e-05	-0.0001	-0.0001	-4e-05	0.00021	3
11244	0.0003	0.00024	2e-05	-4e-05	-0.0001	-0.0001	-4e-05	0.00021	3
11245	0.0003	0.00024	2e-05	-4e-05	-0.0001	-0.0001	-4e-05	0.00021	3
11246	0.0003	0.00024	2e-05	-4e-05	-0.0001	-0.0001	-4e-05	0.00021	3
11247	0.0003	0.00024	2e-05	-4e-05	-0.0001	-0.0001	-4e-05	0.00021	3
11248	0.0003	0.00024	2e-05	-4e-05	-0.0001	-0.0001	-4e-05	0.00021	3
11249	-0.00025	-0.00057	-2e-05	1e-05	0.0001	0.00014	8e-05	-5e-05	3
11250	-0.00025	-0.00057	-2e-05	1e-05	0.0001	0.00014	8e-05	-5e-05	3
11251	-0.00025	-0.00057	-2e-05	1e-05	0.0001	0.00014	8e-05	-5e-05	3
11252	-0.00025	-0.00057	-2e-05	1e-05	0.0001	0.00014	8e-05	-5e-05	3
11253	-0.00025	-0.00057	-2e-05	1e-05	0.0001	0.00014	8e-05	-5e-05	3
11254	-0.00025	-0.00057	-2e-05	1e-05	0.0001	0.00014	8e-05	-5e-05	3
11255	-0.00025	-0.00057	-2e-05	1e-05	0.0001	0.00014	8e-05	-5e-05	3
11256	-0.00025	-0.00057	-2e-05	1e-05	0.0001	0.00014	8e-05	-5e-05	3
11257	-0.00025	-0.00057	-2e-05	1e-05	0.0001	0.00014	8e-05	-5e-05	3
11258	-0.00025	-0.00057	-2e-05	1e-05	0.0001	0.00014	8e-05	-5e-05	3
11259	-0.00025	-0.00057	-2e-05	1e-05	0.0001	0.00014	8e-05	-5e-05	3
11260	0.00049	0.00065	0.00013	3e-05	-5e-05	-4e-05	6e-05	4e-05	3
11261	0.00049	0.00065	0.00013	3e-05	-5e-05	-4e-05	6e-05	4e-05	3
11262	0.00049	0.00065	0.00013	3e-05	-5e-05	-4e-05	6e-05	4e-05	3
11263	0.00049	0.00065	0.00013	3e-05	-5e-05	-4e-05	6e-05	4e-05	3
11264	0.00049	0.00065	0.00013	3e-05	-5e-05	-4e-05	6e-05	4e-05	3
11265	0.00049	0.00065	0.00013	3e-05	-5e-05	-4e-05	6e-05	4e-05	3
11266	0.00049	0.00065	0.00013	3e-05	-5e-05	-4e-05	6e-05	4e-05	3
11267	0.00049	0.00065	0.00013	3e-05	-5e-05	-4e-05	6e-05	4e-05	3
11268	0.00049	0.00065	0.00013	3e-05	-5e-05	-4e-05	6e-05	4e-05	3
11269	0.00049	0.00065	0.00013	3e-05	-5e-05	-4e-05	6e-05	4e-05	3
11270	0.00049	0.00065	0.00013	3e-05	-5e-05	-4e-05	6e-05	4e-05	3
11271	0.00049	0.00065	0.00013	3e-05	-5e-05	-4e-05	6e-05	4e-05	3
11272	0.00049	0.00065	0.00013	3e-05	-5e-05	-4e-05	6e-05	4e-05	3
11274	0.00049	0.00065	0.00013	3e-05	-5e-05	-4e-05	6e-05	4e-05	3
11275	0.00049	0.00065	0.00013	3e-05	-5e-05	-4e-05	6e-05	4e-05	3
11276	0.00049	0.00065	0.00013	3e-05	-5e-05	-4e-05	6e-05	4e-05	3
11277	0.00049	0.00065	0.00013	3e-05	-5e-05	-4e-05	6e-05	4e-05	3
11278	0.00049	0.00065	0.00013	3e-05	-5e-05	-4e-05	6e-05	4e-05	3
11279	0.00049	0.00065	0.00013	3e-05	-5e-05	-4e-05	6e-05	4e-05	3
11280	-7e-05	-0.00012	-4e-05	-1e-05	2e-05	-7e-05	5e-05	0.00028	3
11281	-0.00012	-0.0001	-6e-05	-0.00011	-0.00029	-0.00018	-0.00015	-0.00015	3
11282	-0.00012	-0.0001	-6e-05	-0.00011	-0.00029	-0.00018	-0.00015	-0.00015	3
11283	-0.00012	-0.0001	-6e-05	-0.00011	-0.00029	-0.00018	-0.00015	-0.00015	3
11284	-0.00012	-0.0001	-6e-05	-0.00011	-0.00029	-0.00018	-0.00015	-0.00015	3
11285	-0.00012	-0.0001	-6e-05	-0.00011	-0.00029	-0.00018	-0.00015	-0.00015	3
11286	-0.00012	-0.0001	-6e-05	-0.00011	-0.00029	-0.00018	-0.00015	-0.00015	3
11288	-0.00012	-0.0001	-6e-05	-0.00011	-0.00029	-0.00018	-0.00015	-0.00015	3
11289	-0.00012	-0.0001	-6e-05	-0.00011	-0.00029	-0.00018	-0.00015	-0.00015	3
11290	-0.00012	-0.0001	-6e-05	-0.00011	-0.00029	-0.00018	-0.00015	-0.00015	3
11291	-0.00012	-0.0001	-6e-05	-0.00011	-0.00029	-0.00018	-0.00015	-0.00015	3
11292	-0.00012	-0.0001	-6e-05	-0.00011	-0.00029	-0.00018	-0.00015	-0.00015	3
11293	-0.00012	-0.0001	-6e-05	-0.00011	-0.00029	-0.00018	-0.00015	-0.00015	3
11294	-0.00012	-0.0001	-6e-05	-0.00011	-0.00029	-0.00018	-0.00015	-0.00015	3
11295	-0.00012	-0.0001	-6e-05	-0.00011	-0.00029	-0.00018	-0.00015	-0.00015	3
11296	-0.00035	-0.00023	0	4e-05	9e-05	3e-05	9e-05	-3e-05	3
11297	-8e-05	-0.00017	-5e-05	-3e-05	-9e-05	2e-05	8e-05	-5e-05	3
11298	-8e-05	-0.00017	-5e-05	-3e-05	-9e-05	2e-05	8e-05	-5e-05	3
11299	-8e-05	-0.00017	-5e-05	-3e-05	-9e-05	2e-05	8e-05	-5e-05	3
11300	-8e-05	-0.00017	-5e-05	-3e-05	-9e-05	2e-05	8e-05	-5e-05	3
11301	-8e-05	-0.00017	-5e-05	-3e-05	-9e-05	2e-05	8e-05	-5e-05	3
11302	-8e-05	-0.00017	-5e-05	-3e-05	-9e-05	2e-05	8e-05	-5e-05	3
11303	-8e-05	-0.00017	-5e-05	-3e-05	-9e-05	2e-05	8e-05	-5e-05	3
11304	-8e-05	-0.00017	-5e-05	-3e-05	-9e-05	2e-05	8e-05	-5e-05	3
11305	-8e-05	-0.00017	-5e-05	-3e-05	-9e-05	2e-05	8e-05	-5e-05	3
11306	-8e-05	-0.00017	-5e-05	-3e-05	-9e-05	2e-05	8e-05	-5e-05	3
11307	-8e-05	-0.00017	-5e-05	-3e-05	-9e-05	2e-05	8e-05	-5e-05	3
11308	-8e-05	-0.00017	-5e-05	-3e-05	-9e-05	2e-05	8e-05	-5e-05	3
11309	-8e-05	-0.00017	-5e-05	-3e-05	-9e-05	2e-05	8e-05	-5e-05	3
11310	-8e-05	-0.00017	-5e-05	-3e-05	-9e-05	2e-05	8e-05	-5e-05	3
11311	-8e-05	-0.00017	-5e-05	-3e-05	-9e-05	2e-05	8e-05	-5e-05	3
11312	-8e-05	-0.00017	-5e-05	-3e-05	-9e-05	2e-05	8e-05	-5e-05	3
11313	-8e-05	-0.00017	-5e-05	-3e-05	-9e-05	2e-05	8e-05	-5e-05	3
11314	-8e-05	-0.00017	-5e-05	-3e-05	-9e-05	2e-05	8e-05	-5e-05	3
11315	-8e-05	-0.00017	-5e-05	-3e-05	-9e-05	2e-05	8e-05	-5e-05	3
11316	-8e-05	-0.00017	-5e-05	-3e-05	-9e-05	2e-05	8e-05	-5e-05	3
11317	-8e-05	-0.00017	-5e-05	-3e-05	-9e-05	2e-05	8e-05	-5e-05	3
11318	-8e-05	-0.00017	-5e-05	-3e-05	-9e-05	2e-05	8e-05	-5e-05	3
11319	-4e-05	-0.0001	1e-05	2e-05	5e-05	3e-05	3e-05	8e-05	3
11320	-4e-05	-0.0001	1e-05	2e-05	5e-05	3e-05	3e-05	8e-05	3
11321	-4e-05	-0.0001	1e-05	2e-05	5e-05	3e-05	3e-05	8e-05	3
11322	-4e-05	-0.0001	1e-05	2e-05	5e-05	3e-05	3e-05	8e-05	3
11323	-4e-05	-0.0001	1e-05	2e-05	5e-05	3e-05	3e-05	8e-05	3
11324	-4e-05	-0.0001	1e-05	2e-05	5e-05	3e-05	3e-05	8e-05	3
11325	-4e-05	-0.0001	1e-05	2e-05	5e-05	3e-05	3e-05	8e-05	3
11326	-4e-05	-0.0001	1e-05	2e-05	5e-05	3e-05	3e-05	8e-05	3
11327	-4e-05	-0.0001	1e-05	2e-05	5e-05	3e-05	3e-05	8e-05	3
11328	-4e-05	-0.0001	1e-05	2e-05	5e-05	3e-05	3e-05	8e-05	3
11329	-4e-05	-0.0001	1e-05	2e-05	5e-05	3e-05	3e-05	8e-05	3
11330	-4e-05	-0.0001	1e-05	2e-05	5e-05	3e-05	3e-05	8e-05	3
11331	-4e-05	-0.0001	1e-05	2e-05	5e-05	3e-05	3e-05	8e-05	3
11332	-4e-05	-0.0001	1e-05	2e-05	5e-05	3e-05	3e-05	8e-05	3
11333	-0.00015	-0.00018	1e-05	-5e-05	-7e-05	-3e-05	-8e-05	-3e-05	3
11334	9e-05	0.00022	5e-05	6e-05	0.00015	9e-05	2e-05	-0.0001	3
11335	9e-05	0.00022	5e-05	6e-05	0.00015	9e-05	2e-05	-0.0001	3
11336	9e-05	0.00022	5e-05	6e-05	0.00015	9e-05	2e-05	-0.0001	3
11340	9e-05	0.00022	5e-05	6e-05	0.00015	9e-05	2e-05	-0.0001	3
11341	9e-05	0.00022	5e-05	6e-05	0.00015	9e-05	2e-05	-0.0001	3
11342	9e-05	0.00022	5e-05	6e-05	0.00015	9e-05	2e-05	-0.0001	3
11343	9e-05	0.00022	5e-05	6e-05	0.00015	9e-05	2e-05	-0.0001	3
11344	9e-05	0.00022	5e-05	6e-05	0.00015	9e-05	2e-05	-0.0001	3
11345	9e-05	0.00022	5e-05	6e-05	0.00015	9e-05	2e-05	-0.0001	3
11346	9e-05	0.00022	5e-05	6e-05	0.00015	9e-05	2e-05	-0.0001	3
11347	9e-05	0.00022	5e-05	6e-05	0.00015	9e-05	2e-05	-0.0001	3
11348	9e-05	0.00022	5e-05	6e-05	0.00015	9e-05	2e-05	-0.0001	3
11349	9e-05	0.00022	5e-05	6e-05	0.00015	9e-05	2e-05	-0.0001	3
11350	9e-05	0.00022	5e-05	6e-05	0.00015	9e-05	2e-05	-0.0001	3
11351	9e-05	0.00022	5e-05	6e-05	0.00015	9e-05	2e-05	-0.0001	3
11352	9e-05	0.00022	5e-05	6e-05	0.00015	9e-05	2e-05	-0.0001	3
11353	9e-05	0.00022	5e-05	6e-05	0.00015	9e-05	2e-05	-0.0001	3
11354	9e-05	0.00022	5e-05	6e-05	0.00015	9e-05	2e-05	-0.0001	3
11355	9e-05	0.00022	5e-05	6e-05	0.00015	9e-05	2e-05	-0.0001	3
11356	0	-0.00011	0	0	0	0	-1e-05	-0.00014	3
11357	9e-05	0.00018	5e-05	3e-05	7e-05	5e-05	2e-05	1e-05	3
11358	9e-05	0.00018	5e-05	3e-05	7e-05	5e-05	2e-05	1e-05	3
11359	9e-05	0.00018	5e-05	3e-05	7e-05	5e-05	2e-05	1e-05	3
11360	9e-05	0.00018	5e-05	3e-05	7e-05	5e-05	2e-05	1e-05	3
11361	9e-05	0.00018	5e-05	3e-05	7e-05	5e-05	2e-05	1e-05	3
11362	9e-05	0.00018	5e-05	3e-05	7e-05	5e-05	2e-05	1e-05	3
11363	9e-05	0.00018	5e-05	3e-05	7e-05	5e-05	2e-05	1e-05	3
11364	9e-05	0.00018	5e-05	3e-05	7e-05	5e-05	2e-05	1e-05	3
11365	9e-05	0.00018	5e-05	3e-05	7e-05	5e-05	2e-05	1e-05	3
11366	9e-05	0.00018	5e-05	3e-05	7e-05	5e-05	2e-05	1e-05	3
11367	9e-05	0.00018	5e-05	3e-05	7e-05	5e-05	2e-05	1e-05	3
11368	9e-05	0.00018	5e-05	3e-05	7e-05	5e-05	2e-05	1e-05	3
11369	9e-05	0.00018	5e-05	3e-05	7e-05	5e-05	2e-05	1e-05	3
11370	9e-05	0.00018	5e-05	3e-05	7e-05	5e-05	2e-05	1e-05	3
11371	9e-05	0.00018	5e-05	3e-05	7e-05	5e-05	2e-05	1e-05	3
11372	9e-05	0.00018	5e-05	3e-05	7e-05	5e-05	2e-05	1e-05	3
11373	9e-05	0.00018	5e-05	3e-05	7e-05	5e-05	2e-05	1e-05	3
11374	9e-05	0.00018	5e-05	3e-05	7e-05	5e-05	2e-05	1e-05	3
11375	9e-05	0.00018	5e-05	3e-05	7e-05	5e-05	2e-05	1e-05	3
11376	9e-05	0.00018	5e-05	3e-05	7e-05	5e-05	2e-05	1e-05	3
11377	9e-05	0.00018	5e-05	3e-05	7e-05	5e-05	2e-05	1e-05	3
11378	-0.00012	0.00033	0.00013	7e-05	8e-05	0.00011	6e-05	9e-05	3
11379	-0.00025	-0.00018	1e-05	2e-05	6e-05	2e-05	-2e-05	-8e-05	3
11380	-0.00025	-0.00018	1e-05	2e-05	6e-05	2e-05	-2e-05	-8e-05	3
11381	-0.00025	-0.00018	1e-05	2e-05	6e-05	2e-05	-2e-05	-8e-05	3
11382	-0.00025	-0.00018	1e-05	2e-05	6e-05	2e-05	-2e-05	-8e-05	3
11383	-0.00025	-0.00018	1e-05	2e-05	6e-05	2e-05	-2e-05	-8e-05	3
11384	-0.00025	-0.00018	1e-05	2e-05	6e-05	2e-05	-2e-05	-8e-05	3
11385	-0.00025	-0.00018	1e-05	2e-05	6e-05	2e-05	-2e-05	-8e-05	3
11386	-0.00025	-0.00018	1e-05	2e-05	6e-05	2e-05	-2e-05	-8e-05	3
11388	-0.00025	-0.00018	1e-05	2e-05	6e-05	2e-05	-2e-05	-8e-05	3
11389	-0.00025	-0.00018	1e-05	2e-05	6e-05	2e-05	-2e-05	-8e-05	3
11390	-0.00025	-0.00018	1e-05	2e-05	6e-05	2e-05	-2e-05	-8e-05	3
11391	-0.00025	-0.00018	1e-05	2e-05	6e-05	2e-05	-2e-05	-8e-05	3
11392	-1e-05	-0.00017	-8e-05	-5e-05	2e-05	-2e-05	7e-05	9e-05	3
11393	0.00016	0.00039	-1e-05	-1e-05	-4e-05	-0.00013	-2e-05	-0.00013	3
11394	0.00016	0.00039	-1e-05	-1e-05	-4e-05	-0.00013	-2e-05	-0.00013	3
11395	0.00016	0.00039	-1e-05	-1e-05	-4e-05	-0.00013	-2e-05	-0.00013	3
11396	0.00016	0.00039	-1e-05	-1e-05	-4e-05	-0.00013	-2e-05	-0.00013	3
11397	0.00016	0.00039	-1e-05	-1e-05	-4e-05	-0.00013	-2e-05	-0.00013	3
11398	0.00016	0.00039	-1e-05	-1e-05	-4e-05	-0.00013	-2e-05	-0.00013	3
11399	0.00016	0.00039	-1e-05	-1e-05	-4e-05	-0.00013	-2e-05	-0.00013	3
11401	0.00016	0.00039	-1e-05	-1e-05	-4e-05	-0.00013	-2e-05	-0.00013	3
11402	0.00016	0.00039	-1e-05	-1e-05	-4e-05	-0.00013	-2e-05	-0.00013	3
11403	0.00016	0.00039	-1e-05	-1e-05	-4e-05	-0.00013	-2e-05	-0.00013	3
11404	0.00016	0.00039	-1e-05	-1e-05	-4e-05	-0.00013	-2e-05	-0.00013	3
11405	0.00016	0.00039	-1e-05	-1e-05	-4e-05	-0.00013	-2e-05	-0.00013	3
11406	0.00016	0.00039	-1e-05	-1e-05	-4e-05	-0.00013	-2e-05	-0.00013	3
11407	0.00016	0.00039	-1e-05	-1e-05	-4e-05	-0.00013	-2e-05	-0.00013	3
11408	0.00016	0.00039	-1e-05	-1e-05	-4e-05	-0.00013	-2e-05	-0.00013	3
11409	0.00016	0.00039	-1e-05	-1e-05	-4e-05	-0.00013	-2e-05	-0.00013	3
11410	0.00016	0.00039	-1e-05	-1e-05	-4e-05	-0.00013	-2e-05	-0.00013	3
11411	0.00016	0.00039	-1e-05	-1e-05	-4e-05	-0.00013	-2e-05	-0.00013	3
11412	0.00016	0.00039	-1e-05	-1e-05	-4e-05	-0.00013	-2e-05	-0.00013	3
11413	0.00016	0.00039	-1e-05	-1e-05	-4e-05	-0.00013	-2e-05	-0.00013	3
11414	0.00016	0.00039	-1e-05	-1e-05	-4e-05	-0.00013	-2e-05	-0.00013	3
11415	0.00016	0.00039	-1e-05	-1e-05	-4e-05	-0.00013	-2e-05	-0.00013	3
11416	0.00027	0.00014	4e-05	4e-05	3e-05	8e-05	0.00014	0.00031	3
11417	-0.00019	-0.0005	-2e-05	3e-05	6e-05	7e-05	-2e-05	5e-05	3
11418	-0.00019	-0.0005	-2e-05	3e-05	6e-05	7e-05	-2e-05	5e-05	3
11419	-0.00019	-0.0005	-2e-05	3e-05	6e-05	7e-05	-2e-05	5e-05	3
11420	-0.00019	-0.0005	-2e-05	3e-05	6e-05	7e-05	-2e-05	5e-05	3
11421	-0.00019	-0.0005	-2e-05	3e-05	6e-05	7e-05	-2e-05	5e-05	3
11422	-0.00019	-0.0005	-2e-05	3e-05	6e-05	7e-05	-2e-05	5e-05	3
11423	-0.00019	-0.0005	-2e-05	3e-05	6e-05	7e-05	-2e-05	5e-05	3
11424	-0.00019	-0.0005	-2e-05	3e-05	6e-05	7e-05	-2e-05	5e-05	3
11425	-0.00019	-0.0005	-2e-05	3e-05	6e-05	7e-05	-2e-05	5e-05	3
11426	-0.00019	-0.0005	-2e-05	3e-05	6e-05	7e-05	-2e-05	5e-05	3
11427	-0.00019	-0.0005	-2e-05	3e-05	6e-05	7e-05	-2e-05	5e-05	3
11428	-0.00019	-0.0005	-2e-05	3e-05	6e-05	7e-05	-2e-05	5e-05	3
11429	-0.00019	-0.0005	-2e-05	3e-05	6e-05	7e-05	-2e-05	5e-05	3
11430	-0.00019	-0.0005	-2e-05	3e-05	6e-05	7e-05	-2e-05	5e-05	3
11431	-0.00019	-0.0005	-2e-05	3e-05	6e-05	7e-05	-2e-05	5e-05	3
11432	-0.00019	-0.0005	-2e-05	3e-05	6e-05	7e-05	-2e-05	5e-05	3
11433	-0.00019	-0.0005	-2e-05	3e-05	6e-05	7e-05	-2e-05	5e-05	3
11434	-0.00019	-0.0005	-2e-05	3e-05	6e-05	7e-05	-2e-05	5e-05	3
11435	-0.00019	-0.0005	-2e-05	3e-05	6e-05	7e-05	-2e-05	5e-05	3
11436	-0.00019	-0.0005	-2e-05	3e-05	6e-05	7e-05	-2e-05	5e-05	3
11439	7e-05	0.0001	3e-05	-2e-05	4e-05	1e-05	-5e-05	9e-05	3
11440	7e-05	0.0001	3e-05	-2e-05	4e-05	1e-05	-5e-05	9e-05	3
11441	7e-05	0.0001	3e-05	-2e-05	4e-05	1e-05	-5e-05	9e-05	3
11442	7e-05	0.0001	3e-05	-2e-05	4e-05	1e-05	-5e-05	9e-05	3
11443	7e-05	0.0001	3e-05	-2e-05	4e-05	1e-05	-5e-05	9e-05	3
11444	7e-05	0.0001	3e-05	-2e-05	4e-05	1e-05	-5e-05	9e-05	3
11445	7e-05	0.0001	3e-05	-2e-05	4e-05	1e-05	-5e-05	9e-05	3
11446	7e-05	0.0001	3e-05	-2e-05	4e-05	1e-05	-5e-05	9e-05	3
11447	7e-05	0.0001	3e-05	-2e-05	4e-05	1e-05	-5e-05	9e-05	3
11448	7e-05	0.0001	3e-05	-2e-05	4e-05	1e-05	-5e-05	9e-05	3
11449	7e-05	0.0001	3e-05	-2e-05	4e-05	1e-05	-5e-05	9e-05	3
11450	7e-05	0.0001	3e-05	-2e-05	4e-05	1e-05	-5e-05	9e-05	3
11451	7e-05	0.0001	3e-05	-2e-05	4e-05	1e-05	-5e-05	9e-05	3
11452	7e-05	0.0001	3e-05	-2e-05	4e-05	1e-05	-5e-05	9e-05	3
11453	7e-05	0.0001	3e-05	-2e-05	4e-05	1e-05	-5e-05	9e-05	3
11454	7e-05	0.0001	3e-05	-2e-05	4e-05	1e-05	-5e-05	9e-05	3
11455	-0.00023	-0.00023	-6e-05	7e-05	0.00025	0.00012	0	0.00021	3
11456	-0.00023	-0.00023	-6e-05	7e-05	0.00025	0.00012	0	0.00021	3
11457	-0.00023	-0.00023	-6e-05	7e-05	0.00025	0.00012	0	0.00021	3
11458	-0.00023	-0.00023	-6e-05	7e-05	0.00025	0.00012	0	0.00021	3
11459	-0.00023	-0.00023	-6e-05	7e-05	0.00025	0.00012	0	0.00021	3
11460	4e-05	7e-05	7e-05	-1e-05	-2e-05	-1e-05	0.00018	0.00032	3
11461	4e-05	7e-05	7e-05	-1e-05	-2e-05	-1e-05	0.00018	0.00032	3
11462	4e-05	7e-05	7e-05	-1e-05	-2e-05	-1e-05	0.00018	0.00032	3
11463	4e-05	7e-05	7e-05	-1e-05	-2e-05	-1e-05	0.00018	0.00032	3
11464	4e-05	7e-05	7e-05	-1e-05	-2e-05	-1e-05	0.00018	0.00032	3
11465	4e-05	7e-05	7e-05	-1e-05	-2e-05	-1e-05	0.00018	0.00032	3
11466	4e-05	7e-05	7e-05	-1e-05	-2e-05	-1e-05	0.00018	0.00032	3
11467	4e-05	7e-05	7e-05	-1e-05	-2e-05	-1e-05	0.00018	0.00032	3
11468	4e-05	7e-05	7e-05	-1e-05	-2e-05	-1e-05	0.00018	0.00032	3
11469	4e-05	7e-05	7e-05	-1e-05	-2e-05	-1e-05	0.00018	0.00032	3
11470	4e-05	7e-05	7e-05	-1e-05	-2e-05	-1e-05	0.00018	0.00032	3
11471	4e-05	7e-05	7e-05	-1e-05	-2e-05	-1e-05	0.00018	0.00032	3
11472	4e-05	7e-05	7e-05	-1e-05	-2e-05	-1e-05	0.00018	0.00032	3
11473	4e-05	7e-05	7e-05	-1e-05	-2e-05	-1e-05	0.00018	0.00032	3
11474	4e-05	7e-05	7e-05	-1e-05	-2e-05	-1e-05	0.00018	0.00032	3
11475	4e-05	7e-05	7e-05	-1e-05	-2e-05	-1e-05	0.00018	0.00032	3
11476	4e-05	7e-05	7e-05	-1e-05	-2e-05	-1e-05	0.00018	0.00032	3
11477	4e-05	7e-05	7e-05	-1e-05	-2e-05	-1e-05	0.00018	0.00032	3
11478	4e-05	7e-05	7e-05	-1e-05	-2e-05	-1e-05	0.00018	0.00032	3
11479	4e-05	7e-05	7e-05	-1e-05	-2e-05	-1e-05	0.00018	0.00032	3
11480	4e-05	7e-05	7e-05	-1e-05	-2e-05	-1e-05	0.00018	0.00032	3
11481	4e-05	7e-05	7e-05	-1e-05	-2e-05	-1e-05	0.00018	0.00032	3
11482	4e-05	7e-05	7e-05	-1e-05	-2e-05	-1e-05	0.00018	0.00032	3
11483	4e-05	7e-05	7e-05	-1e-05	-2e-05	-1e-05	0.00018	0.00032	3
11484	4e-05	7e-05	7e-05	-1e-05	-2e-05	-1e-05	0.00018	0.00032	3
11485	4e-05	7e-05	7e-05	-1e-05	-2e-05	-1e-05	0.00018	0.00032	3
11486	4e-05	7e-05	7e-05	-1e-05	-2e-05	-1e-05	0.00018	0.00032	3
11489	4e-05	7e-05	7e-05	-1e-05	-2e-05	-1e-05	0.00018	0.00032	3
11490	4e-05	7e-05	7e-05	-1e-05	-2e-05	-1e-05	0.00018	0.00032	3
11491	-0.00039	-0.00064	-0.00014	-0.0001	-0.00016	-0.00011	-6e-05	-0.00013	3
11492	0.00018	0.00024	2e-05	-1e-05	7e-05	0.00011	-5e-05	-9e-05	3
11493	0.00018	0.00024	2e-05	-1e-05	7e-05	0.00011	-5e-05	-9e-05	3
11494	0.00018	0.00024	2e-05	-1e-05	7e-05	0.00011	-5e-05	-9e-05	3
11495	0.00018	0.00024	2e-05	-1e-05	7e-05	0.00011	-5e-05	-9e-05	3
11496	0.00018	0.00024	2e-05	-1e-05	7e-05	0.00011	-5e-05	-9e-05	3
11497	0.00018	0.00024	2e-05	-1e-05	7e-05	0.00011	-5e-05	-9e-05	3
11498	-9e-05	-0.00019	-3e-05	-5e-05	-7e-05	-3e-05	-5e-05	5e-05	3
11499	0.00014	0.00018	-7e-05	-3e-05	-7e-05	-5e-05	-1e-05	2e-05	3
11500	0.00014	0.00018	-7e-05	-3e-05	-7e-05	-5e-05	-1e-05	2e-05	3
11501	0.00014	0.00018	-7e-05	-3e-05	-7e-05	-5e-05	-1e-05	2e-05	3
11502	0.00014	0.00018	-7e-05	-3e-05	-7e-05	-5e-05	-1e-05	2e-05	3
11503	0.00014	0.00018	-7e-05	-3e-05	-7e-05	-5e-05	-1e-05	2e-05	3
11504	0.00014	0.00018	-7e-05	-3e-05	-7e-05	-5e-05	-1e-05	2e-05	3
11505	1e-05	3e-05	4e-05	2e-05	0	-5e-05	0	-6e-05	3
11506	1e-05	3e-05	4e-05	2e-05	0	-5e-05	0	-6e-05	3
11507	1e-05	3e-05	4e-05	2e-05	0	-5e-05	0	-6e-05	3
11508	1e-05	3e-05	4e-05	2e-05	0	-5e-05	0	-6e-05	3
11509	1e-05	3e-05	4e-05	2e-05	0	-5e-05	0	-6e-05	3
11510	1e-05	3e-05	4e-05	2e-05	0	-5e-05	0	-6e-05	3
11511	1e-05	3e-05	4e-05	2e-05	0	-5e-05	0	-6e-05	3
11512	1e-05	3e-05	4e-05	2e-05	0	-5e-05	0	-6e-05	3
11513	-0.00035	-0.00055	-0.00017	-1e-05	0.00011	9e-05	-0.00011	-0.00028	3
11514	-0.00035	-0.00055	-0.00017	-1e-05	0.00011	9e-05	-0.00011	-0.00028	3
11515	-0.00035	-0.00055	-0.00017	-1e-05	0.00011	9e-05	-0.00011	-0.00028	3
11516	-0.00035	-0.00055	-0.00017	-1e-05	0.00011	9e-05	-0.00011	-0.00028	3
11517	-0.00035	-0.00055	-0.00017	-1e-05	0.00011	9e-05	-0.00011	-0.00028	3
11518	-0.00035	-0.00055	-0.00017	-1e-05	0.00011	9e-05	-0.00011	-0.00028	3
11519	-0.00035	-0.00055	-0.00017	-1e-05	0.00011	9e-05	-0.00011	-0.00028	3
11520	-0.00035	-0.00055	-0.00017	-1e-05	0.00011	9e-05	-0.00011	-0.00028	3
11521	0.0001	0.0001	3e-05	-2e-05	-4e-05	-4e-05	-5e-05	-5e-05	3
11522	0.0001	0.0001	3e-05	-2e-05	-4e-05	-4e-05	-5e-05	-5e-05	3
11523	0.0001	0.0001	3e-05	-2e-05	-4e-05	-4e-05	-5e-05	-5e-05	3
11524	0.0001	0.0001	3e-05	-2e-05	-4e-05	-4e-05	-5e-05	-5e-05	3
11525	0.0001	0.0001	3e-05	-2e-05	-4e-05	-4e-05	-5e-05	-5e-05	3
11526	0.0001	0.0001	3e-05	-2e-05	-4e-05	-4e-05	-5e-05	-5e-05	3
11527	0.0001	0.0001	3e-05	-2e-05	-4e-05	-4e-05	-5e-05	-5e-05	3
11528	0.0001	0.0001	3e-05	-2e-05	-4e-05	-4e-05	-5e-05	-5e-05	3
11529	0.0001	0.0001	3e-05	-2e-05	-4e-05	-4e-05	-5e-05	-5e-05	3
11530	0.0001	0.0001	3e-05	-2e-05	-4e-05	-4e-05	-5e-05	-5e-05	3
11531	0.0001	0.0001	3e-05	-2e-05	-4e-05	-4e-05	-5e-05	-5e-05	3
11532	0.0001	0.0001	3e-05	-2e-05	-4e-05	-4e-05	-5e-05	-5e-05	3
11533	0.0001	0.0001	3e-05	-2e-05	-4e-05	-4e-05	-5e-05	-5e-05	3
11534	0.0001	0.0001	3e-05	-2e-05	-4e-05	-4e-05	-5e-05	-5e-05	3
11535	0.0001	0.0001	3e-05	-2e-05	-4e-05	-4e-05	-5e-05	-5e-05	3
11536	0.0001	0.0001	3e-05	-2e-05	-4e-05	-4e-05	-5e-05	-5e-05	3
11538	-0.00014	0.00024	2e-05	0.00014	0.0003	1e-05	-1e-05	0	3
11539	-0.00014	0.00024	2e-05	0.00014	0.0003	1e-05	-1e-05	0	3
11540	-0.00014	0.00024	2e-05	0.00014	0.0003	1e-05	-1e-05	0	3
11541	-0.00014	0.00024	2e-05	0.00014	0.0003	1e-05	-1e-05	0	3
11542	-0.00014	0.00024	2e-05	0.00014	0.0003	1e-05	-1e-05	0	3
11543	-0.00014	0.00024	2e-05	0.00014	0.0003	1e-05	-1e-05	0	3
11544	-0.00014	0.00024	2e-05	0.00014	0.0003	1e-05	-1e-05	0	3
11545	-0.00014	0.00024	2e-05	0.00014	0.0003	1e-05	-1e-05	0	3
11546	-0.00014	0.00024	2e-05	0.00014	0.0003	1e-05	-1e-05	0	3
11547	-0.00014	0.00024	2e-05	0.00014	0.0003	1e-05	-1e-05	0	3
11548	-0.00014	0.00024	2e-05	0.00014	0.0003	1e-05	-1e-05	0	3
11549	-0.00014	0.00024	2e-05	0.00014	0.0003	1e-05	-1e-05	0	3
11550	-0.00014	0.00024	2e-05	0.00014	0.0003	1e-05	-1e-05	0	3
11551	-0.00014	0.00024	2e-05	0.00014	0.0003	1e-05	-1e-05	0	3
11552	-0.00014	0.00024	2e-05	0.00014	0.0003	1e-05	-1e-05	0	3
11553	-0.00014	0.00024	2e-05	0.00014	0.0003	1e-05	-1e-05	0	3
11554	-0.00014	0.00024	2e-05	0.00014	0.0003	1e-05	-1e-05	0	3
11555	-0.00014	0.00024	2e-05	0.00014	0.0003	1e-05	-1e-05	0	3
11556	-0.00014	0.00024	2e-05	0.00014	0.0003	1e-05	-1e-05	0	3
11557	-0.00014	0.00024	2e-05	0.00014	0.0003	1e-05	-1e-05	0	3
11558	-2e-05	-5e-05	4e-05	0	-2e-05	0.0001	-2e-05	8e-05	3
11559	9e-05	0.00011	-2e-05	-3e-05	-0.0002	5e-05	0.0002	0.00035	3
11560	9e-05	0.00011	-2e-05	-3e-05	-0.0002	5e-05	0.0002	0.00035	3
11561	9e-05	0.00011	-2e-05	-3e-05	-0.0002	5e-05	0.0002	0.00035	3
11562	9e-05	0.00011	-2e-05	-3e-05	-0.0002	5e-05	0.0002	0.00035	3
11563	9e-05	0.00011	-2e-05	-3e-05	-0.0002	5e-05	0.0002	0.00035	3
11564	9e-05	0.00011	-2e-05	-3e-05	-0.0002	5e-05	0.0002	0.00035	3
11565	9e-05	0.00011	-2e-05	-3e-05	-0.0002	5e-05	0.0002	0.00035	3
11566	9e-05	0.00011	-2e-05	-3e-05	-0.0002	5e-05	0.0002	0.00035	3
11567	9e-05	0.00011	-2e-05	-3e-05	-0.0002	5e-05	0.0002	0.00035	3
11568	9e-05	0.00011	-2e-05	-3e-05	-0.0002	5e-05	0.0002	0.00035	3
11569	9e-05	0.00011	-2e-05	-3e-05	-0.0002	5e-05	0.0002	0.00035	3
11570	9e-05	0.00011	-2e-05	-3e-05	-0.0002	5e-05	0.0002	0.00035	3
11571	9e-05	0.00011	-2e-05	-3e-05	-0.0002	5e-05	0.0002	0.00035	3
11572	3e-05	-1e-05	3e-05	8e-05	0.0002	0.00015	7e-05	0.00011	3
11573	3e-05	-0.00017	-7e-05	-4e-05	-9e-05	-0.00011	-6e-05	-0.0001	3
11574	3e-05	-0.00017	-7e-05	-4e-05	-9e-05	-0.00011	-6e-05	-0.0001	3
11575	3e-05	-0.00017	-7e-05	-4e-05	-9e-05	-0.00011	-6e-05	-0.0001	3
11576	3e-05	-0.00017	-7e-05	-4e-05	-9e-05	-0.00011	-6e-05	-0.0001	3
11577	3e-05	-0.00017	-7e-05	-4e-05	-9e-05	-0.00011	-6e-05	-0.0001	3
11578	3e-05	-0.00017	-7e-05	-4e-05	-9e-05	-0.00011	-6e-05	-0.0001	3
11579	3e-05	-0.00017	-7e-05	-4e-05	-9e-05	-0.00011	-6e-05	-0.0001	3
11580	3e-05	-0.00017	-7e-05	-4e-05	-9e-05	-0.00011	-6e-05	-0.0001	3
11581	3e-05	-0.00017	-7e-05	-4e-05	-9e-05	-0.00011	-6e-05	-0.0001	3
11582	3e-05	-0.00017	-7e-05	-4e-05	-9e-05	-0.00011	-6e-05	-0.0001	3
11583	3e-05	-0.00017	-7e-05	-4e-05	-9e-05	-0.00011	-6e-05	-0.0001	3
11584	3e-05	-0.00017	-7e-05	-4e-05	-9e-05	-0.00011	-6e-05	-0.0001	3
11585	3e-05	-0.00017	-7e-05	-4e-05	-9e-05	-0.00011	-6e-05	-0.0001	3
11587	3e-05	-0.00017	-7e-05	-4e-05	-9e-05	-0.00011	-6e-05	-0.0001	3
11589	3e-05	-0.00017	-7e-05	-4e-05	-9e-05	-0.00011	-6e-05	-0.0001	3
11590	3e-05	-0.00017	-7e-05	-4e-05	-9e-05	-0.00011	-6e-05	-0.0001	3
11591	3e-05	-0.00017	-7e-05	-4e-05	-9e-05	-0.00011	-6e-05	-0.0001	3
11592	3e-05	-0.00017	-7e-05	-4e-05	-9e-05	-0.00011	-6e-05	-0.0001	3
11593	3e-05	-0.00017	-7e-05	-4e-05	-9e-05	-0.00011	-6e-05	-0.0001	3
11594	3e-05	-0.00017	-7e-05	-4e-05	-9e-05	-0.00011	-6e-05	-0.0001	3
11595	0.00014	0.00021	2e-05	0	-0.00011	-0.00015	-3e-05	0.0001	3
11596	-0.00035	-0.00051	-6e-05	0	-1e-05	1e-05	-1e-05	-8e-05	3
11597	-0.00035	-0.00051	-6e-05	0	-1e-05	1e-05	-1e-05	-8e-05	3
11598	-0.00035	-0.00051	-6e-05	0	-1e-05	1e-05	-1e-05	-8e-05	3
11599	-0.00035	-0.00051	-6e-05	0	-1e-05	1e-05	-1e-05	-8e-05	3
11600	-0.00035	-0.00051	-6e-05	0	-1e-05	1e-05	-1e-05	-8e-05	3
11601	-0.00035	-0.00051	-6e-05	0	-1e-05	1e-05	-1e-05	-8e-05	3
11602	-0.00035	-0.00051	-6e-05	0	-1e-05	1e-05	-1e-05	-8e-05	3
11603	-0.00035	-0.00051	-6e-05	0	-1e-05	1e-05	-1e-05	-8e-05	3
11604	-0.00035	-0.00051	-6e-05	0	-1e-05	1e-05	-1e-05	-8e-05	3
11605	-0.00035	-0.00051	-6e-05	0	-1e-05	1e-05	-1e-05	-8e-05	3
11606	-0.00035	-0.00051	-6e-05	0	-1e-05	1e-05	-1e-05	-8e-05	3
11607	-0.00035	-0.00051	-6e-05	0	-1e-05	1e-05	-1e-05	-8e-05	3
11608	-0.00035	-0.00051	-6e-05	0	-1e-05	1e-05	-1e-05	-8e-05	3
11609	-0.00035	-0.00051	-6e-05	0	-1e-05	1e-05	-1e-05	-8e-05	3
11610	-0.00035	-0.00051	-6e-05	0	-1e-05	1e-05	-1e-05	-8e-05	3
11611	-0.00035	-0.00051	-6e-05	0	-1e-05	1e-05	-1e-05	-8e-05	3
11612	-0.00035	-0.00051	-6e-05	0	-1e-05	1e-05	-1e-05	-8e-05	3
11613	-0.00035	-0.00051	-6e-05	0	-1e-05	1e-05	-1e-05	-8e-05	3
11614	-0.00035	-0.00051	-6e-05	0	-1e-05	1e-05	-1e-05	-8e-05	3
11615	-0.00035	-0.00051	-6e-05	0	-1e-05	1e-05	-1e-05	-8e-05	3
11616	-0.00035	-0.00051	-6e-05	0	-1e-05	1e-05	-1e-05	-8e-05	3
11617	-0.00035	-0.00051	-6e-05	0	-1e-05	1e-05	-1e-05	-8e-05	3
11618	-0.00022	-0.00036	-0.00019	-0.00014	-0.00019	-0.00015	-0.00013	0.00012	3
11619	4e-05	-0.00012	3e-05	-7e-05	-0.00011	-3e-05	2e-05	9e-05	3
11620	-0.00021	-7e-05	-2e-05	4e-05	0.00012	9e-05	-7e-05	-8e-05	3
11621	-0.00021	-7e-05	-2e-05	4e-05	0.00012	9e-05	-7e-05	-8e-05	3
11622	-0.00021	-7e-05	-2e-05	4e-05	0.00012	9e-05	-7e-05	-8e-05	3
11623	-0.00021	-7e-05	-2e-05	4e-05	0.00012	9e-05	-7e-05	-8e-05	3
11624	-0.00021	-7e-05	-2e-05	4e-05	0.00012	9e-05	-7e-05	-8e-05	3
11625	-0.00021	-7e-05	-2e-05	4e-05	0.00012	9e-05	-7e-05	-8e-05	3
11626	-0.00021	-7e-05	-2e-05	4e-05	0.00012	9e-05	-7e-05	-8e-05	3
11627	-0.00021	-7e-05	-2e-05	4e-05	0.00012	9e-05	-7e-05	-8e-05	3
11628	-0.00021	-7e-05	-2e-05	4e-05	0.00012	9e-05	-7e-05	-8e-05	3
11629	-0.00021	-7e-05	-2e-05	4e-05	0.00012	9e-05	-7e-05	-8e-05	3
11630	-0.00021	-7e-05	-2e-05	4e-05	0.00012	9e-05	-7e-05	-8e-05	3
11631	-0.00021	-7e-05	-2e-05	4e-05	0.00012	9e-05	-7e-05	-8e-05	3
11632	-6e-05	0.00012	-0.00013	-0.0001	-0.00015	-6e-05	-5e-05	-0.0001	3
11633	3e-05	-0.00045	-0.00012	-0.0001	-0.00016	-9e-05	-9e-05	-0.00024	3
11634	3e-05	-0.00045	-0.00012	-0.0001	-0.00016	-9e-05	-9e-05	-0.00024	3
11635	3e-05	-0.00045	-0.00012	-0.0001	-0.00016	-9e-05	-9e-05	-0.00024	3
11637	3e-05	-0.00045	-0.00012	-0.0001	-0.00016	-9e-05	-9e-05	-0.00024	3
11640	3e-05	-0.00045	-0.00012	-0.0001	-0.00016	-9e-05	-9e-05	-0.00024	3
11641	3e-05	-0.00045	-0.00012	-0.0001	-0.00016	-9e-05	-9e-05	-0.00024	3
11642	3e-05	-0.00045	-0.00012	-0.0001	-0.00016	-9e-05	-9e-05	-0.00024	3
11643	3e-05	-0.00045	-0.00012	-0.0001	-0.00016	-9e-05	-9e-05	-0.00024	3
11644	3e-05	-0.00045	-0.00012	-0.0001	-0.00016	-9e-05	-9e-05	-0.00024	3
11645	3e-05	-0.00045	-0.00012	-0.0001	-0.00016	-9e-05	-9e-05	-0.00024	3
11646	3e-05	-0.00045	-0.00012	-0.0001	-0.00016	-9e-05	-9e-05	-0.00024	3
11647	3e-05	-0.00045	-0.00012	-0.0001	-0.00016	-9e-05	-9e-05	-0.00024	3
11648	3e-05	-0.00045	-0.00012	-0.0001	-0.00016	-9e-05	-9e-05	-0.00024	3
11649	3e-05	-0.00045	-0.00012	-0.0001	-0.00016	-9e-05	-9e-05	-0.00024	3
11650	3e-05	-0.00045	-0.00012	-0.0001	-0.00016	-9e-05	-9e-05	-0.00024	3
11651	3e-05	-0.00045	-0.00012	-0.0001	-0.00016	-9e-05	-9e-05	-0.00024	3
11652	3e-05	-0.00045	-0.00012	-0.0001	-0.00016	-9e-05	-9e-05	-0.00024	3
11653	3e-05	-0.00045	-0.00012	-0.0001	-0.00016	-9e-05	-9e-05	-0.00024	3
11654	3e-05	-0.00045	-0.00012	-0.0001	-0.00016	-9e-05	-9e-05	-0.00024	3
11655	0.0003	0.00058	0.00025	0.0001	0.00013	0.00011	0	6e-05	3
11656	0.00033	0.00021	3e-05	3e-05	0.0001	-2e-05	-2e-05	2e-05	3
11657	0.00033	0.00021	3e-05	3e-05	0.0001	-2e-05	-2e-05	2e-05	3
11658	0.00033	0.00021	3e-05	3e-05	0.0001	-2e-05	-2e-05	2e-05	3
11659	0.00033	0.00021	3e-05	3e-05	0.0001	-2e-05	-2e-05	2e-05	3
11660	0.00033	0.00021	3e-05	3e-05	0.0001	-2e-05	-2e-05	2e-05	3
11661	0.00033	0.00021	3e-05	3e-05	0.0001	-2e-05	-2e-05	2e-05	3
11662	0.00033	0.00021	3e-05	3e-05	0.0001	-2e-05	-2e-05	2e-05	3
11663	0.00033	0.00021	3e-05	3e-05	0.0001	-2e-05	-2e-05	2e-05	3
11664	0.00033	0.00021	3e-05	3e-05	0.0001	-2e-05	-2e-05	2e-05	3
11665	0.00033	0.00021	3e-05	3e-05	0.0001	-2e-05	-2e-05	2e-05	3
11666	0.00033	0.00021	3e-05	3e-05	0.0001	-2e-05	-2e-05	2e-05	3
11667	0.00033	0.00021	3e-05	3e-05	0.0001	-2e-05	-2e-05	2e-05	3
11668	0.00033	0.00021	3e-05	3e-05	0.0001	-2e-05	-2e-05	2e-05	3
11669	0.00033	0.00021	3e-05	3e-05	0.0001	-2e-05	-2e-05	2e-05	3
11670	0.00033	0.00021	3e-05	3e-05	0.0001	-2e-05	-2e-05	2e-05	3
11671	0.00033	0.00021	3e-05	3e-05	0.0001	-2e-05	-2e-05	2e-05	3
11672	0.00033	0.00021	3e-05	3e-05	0.0001	-2e-05	-2e-05	2e-05	3
11673	0.00033	0.00021	3e-05	3e-05	0.0001	-2e-05	-2e-05	2e-05	3
11674	0.00033	0.00021	3e-05	3e-05	0.0001	-2e-05	-2e-05	2e-05	3
11675	0.00033	0.00021	3e-05	3e-05	0.0001	-2e-05	-2e-05	2e-05	3
11676	0.00033	0.00021	3e-05	3e-05	0.0001	-2e-05	-2e-05	2e-05	3
11677	0.00033	0.00021	3e-05	3e-05	0.0001	-2e-05	-2e-05	2e-05	3
11678	0.00033	0.00021	3e-05	3e-05	0.0001	-2e-05	-2e-05	2e-05	3
11679	0.00033	0.00021	3e-05	3e-05	0.0001	-2e-05	-2e-05	2e-05	3
11680	0.00033	0.00021	3e-05	3e-05	0.0001	-2e-05	-2e-05	2e-05	3
11681	0.00033	0.00021	3e-05	3e-05	0.0001	-2e-05	-2e-05	2e-05	3
11682	0.00033	0.00021	3e-05	3e-05	0.0001	-2e-05	-2e-05	2e-05	3
11683	0.00033	0.00021	3e-05	3e-05	0.0001	-2e-05	-2e-05	2e-05	3
11684	0.00033	0.00021	3e-05	3e-05	0.0001	-2e-05	-2e-05	2e-05	3
11685	0.00033	0.00021	3e-05	3e-05	0.0001	-2e-05	-2e-05	2e-05	3
11687	0.0001	0.00013	-3e-05	-4e-05	-8e-05	-9e-05	0	3e-05	3
11690	-0.00025	-9e-05	-2e-05	1e-05	7e-05	1e-05	3e-05	-6e-05	3
11691	-0.00025	-9e-05	-2e-05	1e-05	7e-05	1e-05	3e-05	-6e-05	3
11692	-0.00025	-9e-05	-2e-05	1e-05	7e-05	1e-05	3e-05	-6e-05	3
11693	-0.00025	-9e-05	-2e-05	1e-05	7e-05	1e-05	3e-05	-6e-05	3
11694	-1e-05	0.00017	-7e-05	-1e-05	-4e-05	-1e-05	-3e-05	-0.00011	3
11695	-1e-05	0.00017	-7e-05	-1e-05	-4e-05	-1e-05	-3e-05	-0.00011	3
11696	-1e-05	0.00017	-7e-05	-1e-05	-4e-05	-1e-05	-3e-05	-0.00011	3
11697	-1e-05	0.00017	-7e-05	-1e-05	-4e-05	-1e-05	-3e-05	-0.00011	3
11698	-1e-05	0.00017	-7e-05	-1e-05	-4e-05	-1e-05	-3e-05	-0.00011	3
11699	-1e-05	0.00017	-7e-05	-1e-05	-4e-05	-1e-05	-3e-05	-0.00011	3
11700	-1e-05	0.00017	-7e-05	-1e-05	-4e-05	-1e-05	-3e-05	-0.00011	3
11701	-1e-05	0.00017	-7e-05	-1e-05	-4e-05	-1e-05	-3e-05	-0.00011	3
11702	-1e-05	0.00017	-7e-05	-1e-05	-4e-05	-1e-05	-3e-05	-0.00011	3
11703	-1e-05	0.00017	-7e-05	-1e-05	-4e-05	-1e-05	-3e-05	-0.00011	3
11704	-1e-05	0.00017	-7e-05	-1e-05	-4e-05	-1e-05	-3e-05	-0.00011	3
11705	-1e-05	0.00017	-7e-05	-1e-05	-4e-05	-1e-05	-3e-05	-0.00011	3
11706	-1e-05	0.00017	-7e-05	-1e-05	-4e-05	-1e-05	-3e-05	-0.00011	3
11707	-1e-05	0.00017	-7e-05	-1e-05	-4e-05	-1e-05	-3e-05	-0.00011	3
11708	-1e-05	0.00017	-7e-05	-1e-05	-4e-05	-1e-05	-3e-05	-0.00011	3
11709	-1e-05	0.00017	-7e-05	-1e-05	-4e-05	-1e-05	-3e-05	-0.00011	3
11710	-1e-05	0.00017	-7e-05	-1e-05	-4e-05	-1e-05	-3e-05	-0.00011	3
11711	-1e-05	0.00017	-7e-05	-1e-05	-4e-05	-1e-05	-3e-05	-0.00011	3
11712	-1e-05	0.00017	-7e-05	-1e-05	-4e-05	-1e-05	-3e-05	-0.00011	3
11713	-1e-05	0.00017	-7e-05	-1e-05	-4e-05	-1e-05	-3e-05	-0.00011	3
11714	-1e-05	0.00017	-7e-05	-1e-05	-4e-05	-1e-05	-3e-05	-0.00011	3
11715	-0.00026	-0.00012	-2e-05	-4e-05	-3e-05	-0.00018	-2e-05	-6e-05	3
11716	0	0.00014	9e-05	-5e-05	-0.00024	-0.00022	-0.00016	-2e-05	3
11717	0	0.00014	9e-05	-5e-05	-0.00024	-0.00022	-0.00016	-2e-05	3
11718	0	0.00014	9e-05	-5e-05	-0.00024	-0.00022	-0.00016	-2e-05	3
11719	0	0.00014	9e-05	-5e-05	-0.00024	-0.00022	-0.00016	-2e-05	3
11720	0	0.00014	9e-05	-5e-05	-0.00024	-0.00022	-0.00016	-2e-05	3
11721	0	0.00014	9e-05	-5e-05	-0.00024	-0.00022	-0.00016	-2e-05	3
11722	0	0.00014	9e-05	-5e-05	-0.00024	-0.00022	-0.00016	-2e-05	3
11723	0	0.00014	9e-05	-5e-05	-0.00024	-0.00022	-0.00016	-2e-05	3
11724	0	0.00014	9e-05	-5e-05	-0.00024	-0.00022	-0.00016	-2e-05	3
11725	0	0.00014	9e-05	-5e-05	-0.00024	-0.00022	-0.00016	-2e-05	3
11726	0	0.00014	9e-05	-5e-05	-0.00024	-0.00022	-0.00016	-2e-05	3
11727	0	0.00014	9e-05	-5e-05	-0.00024	-0.00022	-0.00016	-2e-05	3
11728	0	0.00014	9e-05	-5e-05	-0.00024	-0.00022	-0.00016	-2e-05	3
11729	0	0.00014	9e-05	-5e-05	-0.00024	-0.00022	-0.00016	-2e-05	3
11730	0	0.00014	9e-05	-5e-05	-0.00024	-0.00022	-0.00016	-2e-05	3
11731	0	0.00014	9e-05	-5e-05	-0.00024	-0.00022	-0.00016	-2e-05	3
11732	0	0.00014	9e-05	-5e-05	-0.00024	-0.00022	-0.00016	-2e-05	3
11733	0	0.00014	9e-05	-5e-05	-0.00024	-0.00022	-0.00016	-2e-05	3
11734	0	0.00014	9e-05	-5e-05	-0.00024	-0.00022	-0.00016	-2e-05	3
11735	0	0.00014	9e-05	-5e-05	-0.00024	-0.00022	-0.00016	-2e-05	3
11737	0	0.00014	9e-05	-5e-05	-0.00024	-0.00022	-0.00016	-2e-05	3
11739	7e-05	-4e-05	0.00013	4e-05	-6e-05	-3e-05	1e-05	-0.00012	3
11740	7e-05	-4e-05	0.00013	4e-05	-6e-05	-3e-05	1e-05	-0.00012	3
11741	7e-05	-4e-05	0.00013	4e-05	-6e-05	-3e-05	1e-05	-0.00012	3
11742	7e-05	-4e-05	0.00013	4e-05	-6e-05	-3e-05	1e-05	-0.00012	3
11743	7e-05	-4e-05	0.00013	4e-05	-6e-05	-3e-05	1e-05	-0.00012	3
11744	7e-05	-4e-05	0.00013	4e-05	-6e-05	-3e-05	1e-05	-0.00012	3
11745	-1e-05	4e-05	-0.00012	-8e-05	-8e-05	-8e-05	2e-05	0.00026	3
11746	-1e-05	4e-05	-0.00012	-8e-05	-8e-05	-8e-05	2e-05	0.00026	3
11747	-1e-05	4e-05	-0.00012	-8e-05	-8e-05	-8e-05	2e-05	0.00026	3
11748	-1e-05	4e-05	-0.00012	-8e-05	-8e-05	-8e-05	2e-05	0.00026	3
11749	-1e-05	4e-05	-0.00012	-8e-05	-8e-05	-8e-05	2e-05	0.00026	3
11750	-1e-05	4e-05	-0.00012	-8e-05	-8e-05	-8e-05	2e-05	0.00026	3
11751	-1e-05	4e-05	-0.00012	-8e-05	-8e-05	-8e-05	2e-05	0.00026	3
11752	-1e-05	4e-05	-0.00012	-8e-05	-8e-05	-8e-05	2e-05	0.00026	3
11753	-1e-05	4e-05	-0.00012	-8e-05	-8e-05	-8e-05	2e-05	0.00026	3
11754	-1e-05	4e-05	-0.00012	-8e-05	-8e-05	-8e-05	2e-05	0.00026	3
11755	-1e-05	4e-05	-0.00012	-8e-05	-8e-05	-8e-05	2e-05	0.00026	3
11756	-1e-05	4e-05	-0.00012	-8e-05	-8e-05	-8e-05	2e-05	0.00026	3
11757	-1e-05	4e-05	-0.00012	-8e-05	-8e-05	-8e-05	2e-05	0.00026	3
11758	-1e-05	4e-05	-0.00012	-8e-05	-8e-05	-8e-05	2e-05	0.00026	3
11759	-1e-05	4e-05	-0.00012	-8e-05	-8e-05	-8e-05	2e-05	0.00026	3
11760	-1e-05	4e-05	-0.00012	-8e-05	-8e-05	-8e-05	2e-05	0.00026	3
11761	-1e-05	4e-05	-0.00012	-8e-05	-8e-05	-8e-05	2e-05	0.00026	3
11762	-1e-05	4e-05	-0.00012	-8e-05	-8e-05	-8e-05	2e-05	0.00026	3
11763	-1e-05	4e-05	-0.00012	-8e-05	-8e-05	-8e-05	2e-05	0.00026	3
11764	-1e-05	4e-05	-0.00012	-8e-05	-8e-05	-8e-05	2e-05	0.00026	3
11765	-1e-05	4e-05	-0.00012	-8e-05	-8e-05	-8e-05	2e-05	0.00026	3
11766	-1e-05	4e-05	-0.00012	-8e-05	-8e-05	-8e-05	2e-05	0.00026	3
11767	-1e-05	4e-05	-0.00012	-8e-05	-8e-05	-8e-05	2e-05	0.00026	3
11768	0	0.00017	7e-05	6e-05	-1e-05	8e-05	0.00018	3e-05	3
11769	-6e-05	2e-05	-2e-05	3e-05	5e-05	5e-05	-2e-05	-9e-05	3
11770	-6e-05	2e-05	-2e-05	3e-05	5e-05	5e-05	-2e-05	-9e-05	3
11771	-6e-05	2e-05	-2e-05	3e-05	5e-05	5e-05	-2e-05	-9e-05	3
11772	-6e-05	2e-05	-2e-05	3e-05	5e-05	5e-05	-2e-05	-9e-05	3
11773	-6e-05	2e-05	-2e-05	3e-05	5e-05	5e-05	-2e-05	-9e-05	3
11774	-6e-05	2e-05	-2e-05	3e-05	5e-05	5e-05	-2e-05	-9e-05	3
11775	-6e-05	2e-05	-2e-05	3e-05	5e-05	5e-05	-2e-05	-9e-05	3
11776	-0.00012	-0.00028	6e-05	6e-05	0.0001	0.00011	0	-0.00018	3
11777	0.00024	0.00011	-2e-05	0	9e-05	0.00011	7e-05	6e-05	3
11778	0.00024	0.00011	-2e-05	0	9e-05	0.00011	7e-05	6e-05	3
11779	0.00024	0.00011	-2e-05	0	9e-05	0.00011	7e-05	6e-05	3
11780	0.00024	0.00011	-2e-05	0	9e-05	0.00011	7e-05	6e-05	3
11781	0.00024	0.00011	-2e-05	0	9e-05	0.00011	7e-05	6e-05	3
11782	0.00024	0.00011	-2e-05	0	9e-05	0.00011	7e-05	6e-05	3
11783	0.00024	0.00011	-2e-05	0	9e-05	0.00011	7e-05	6e-05	3
11784	0.00024	0.00011	-2e-05	0	9e-05	0.00011	7e-05	6e-05	3
11785	0.00024	0.00011	-2e-05	0	9e-05	0.00011	7e-05	6e-05	3
11787	0.00024	0.00011	-2e-05	0	9e-05	0.00011	7e-05	6e-05	3
11789	0.00024	0.00011	-2e-05	0	9e-05	0.00011	7e-05	6e-05	3
11790	0.00024	0.00011	-2e-05	0	9e-05	0.00011	7e-05	6e-05	3
11791	0.00024	0.00011	-2e-05	0	9e-05	0.00011	7e-05	6e-05	3
11792	0.00024	0.00011	-2e-05	0	9e-05	0.00011	7e-05	6e-05	3
11793	0.00024	0.00011	-2e-05	0	9e-05	0.00011	7e-05	6e-05	3
11794	0.00024	0.00011	-2e-05	0	9e-05	0.00011	7e-05	6e-05	3
11795	0.00024	0.00011	-2e-05	0	9e-05	0.00011	7e-05	6e-05	3
11796	0.00024	0.00011	-2e-05	0	9e-05	0.00011	7e-05	6e-05	3
11797	0.00024	0.00011	-2e-05	0	9e-05	0.00011	7e-05	6e-05	3
11798	3e-05	0.00023	-2e-05	-4e-05	-0.00013	-5e-05	5e-05	2e-05	3
11799	-3e-05	5e-05	3e-05	-6e-05	-0.00011	-2e-05	6e-05	-0.00011	3
11800	-3e-05	5e-05	3e-05	-6e-05	-0.00011	-2e-05	6e-05	-0.00011	3
11801	-3e-05	5e-05	3e-05	-6e-05	-0.00011	-2e-05	6e-05	-0.00011	3
11802	-3e-05	5e-05	3e-05	-6e-05	-0.00011	-2e-05	6e-05	-0.00011	3
11803	-3e-05	5e-05	3e-05	-6e-05	-0.00011	-2e-05	6e-05	-0.00011	3
11804	-3e-05	5e-05	3e-05	-6e-05	-0.00011	-2e-05	6e-05	-0.00011	3
11805	-3e-05	5e-05	3e-05	-6e-05	-0.00011	-2e-05	6e-05	-0.00011	3
11806	-3e-05	5e-05	3e-05	-6e-05	-0.00011	-2e-05	6e-05	-0.00011	3
11807	-3e-05	5e-05	3e-05	-6e-05	-0.00011	-2e-05	6e-05	-0.00011	3
11808	-3e-05	5e-05	3e-05	-6e-05	-0.00011	-2e-05	6e-05	-0.00011	3
11809	-3e-05	5e-05	3e-05	-6e-05	-0.00011	-2e-05	6e-05	-0.00011	3
11810	-3e-05	5e-05	3e-05	-6e-05	-0.00011	-2e-05	6e-05	-0.00011	3
11811	-3e-05	5e-05	3e-05	-6e-05	-0.00011	-2e-05	6e-05	-0.00011	3
11812	-3e-05	5e-05	3e-05	-6e-05	-0.00011	-2e-05	6e-05	-0.00011	3
11813	-3e-05	5e-05	3e-05	-6e-05	-0.00011	-2e-05	6e-05	-0.00011	3
11814	-3e-05	5e-05	3e-05	-6e-05	-0.00011	-2e-05	6e-05	-0.00011	3
11815	-3e-05	5e-05	3e-05	-6e-05	-0.00011	-2e-05	6e-05	-0.00011	3
11816	-3e-05	5e-05	3e-05	-6e-05	-0.00011	-2e-05	6e-05	-0.00011	3
11817	-3e-05	5e-05	3e-05	-6e-05	-0.00011	-2e-05	6e-05	-0.00011	3
11818	-3e-05	5e-05	3e-05	-6e-05	-0.00011	-2e-05	6e-05	-0.00011	3
11819	-3e-05	5e-05	3e-05	-6e-05	-0.00011	-2e-05	6e-05	-0.00011	3
11820	-3e-05	5e-05	3e-05	-6e-05	-0.00011	-2e-05	6e-05	-0.00011	3
11821	-6e-05	-0.0002	-0.0001	4e-05	0.00026	0.00012	0.00017	0.00024	3
11822	0.00011	0.00029	7e-05	4e-05	4e-05	6e-05	6e-05	0	3
11823	0.00011	0.00029	7e-05	4e-05	4e-05	6e-05	6e-05	0	3
11824	0.00011	0.00029	7e-05	4e-05	4e-05	6e-05	6e-05	0	3
11825	0.00011	0.00029	7e-05	4e-05	4e-05	6e-05	6e-05	0	3
11826	0.00011	0.00029	7e-05	4e-05	4e-05	6e-05	6e-05	0	3
11827	0.00011	0.00029	7e-05	4e-05	4e-05	6e-05	6e-05	0	3
11828	0.00011	0.00029	7e-05	4e-05	4e-05	6e-05	6e-05	0	3
11829	0.00011	0.00029	7e-05	4e-05	4e-05	6e-05	6e-05	0	3
11830	0.00011	0.00029	7e-05	4e-05	4e-05	6e-05	6e-05	0	3
11831	0.00011	0.00029	7e-05	4e-05	4e-05	6e-05	6e-05	0	3
11832	0.00011	0.00029	7e-05	4e-05	4e-05	6e-05	6e-05	0	3
11833	0.00011	0.00029	7e-05	4e-05	4e-05	6e-05	6e-05	0	3
11834	0.00011	0.00029	7e-05	4e-05	4e-05	6e-05	6e-05	0	3
11835	-0.0001	-0.00021	-0.0001	-2e-05	-2e-05	-3e-05	-5e-05	6e-05	3
11837	0	0.00014	3e-05	3e-05	0.00021	7e-05	5e-05	2e-05	3
11840	0.00011	-0.00012	-3e-05	-4e-05	-8e-05	-7e-05	-9e-05	3e-05	3
11841	0.00011	-0.00012	-3e-05	-4e-05	-8e-05	-7e-05	-9e-05	3e-05	3
11842	0.00011	-0.00012	-3e-05	-4e-05	-8e-05	-7e-05	-9e-05	3e-05	3
11843	0.00011	-0.00012	-3e-05	-4e-05	-8e-05	-7e-05	-9e-05	3e-05	3
11844	0.00011	-0.00012	-3e-05	-4e-05	-8e-05	-7e-05	-9e-05	3e-05	3
11845	0.00011	-0.00012	-3e-05	-4e-05	-8e-05	-7e-05	-9e-05	3e-05	3
11846	0.00011	-0.00012	-3e-05	-4e-05	-8e-05	-7e-05	-9e-05	3e-05	3
11847	0.00011	-0.00012	-3e-05	-4e-05	-8e-05	-7e-05	-9e-05	3e-05	3
11848	0.00011	-0.00012	-3e-05	-4e-05	-8e-05	-7e-05	-9e-05	3e-05	3
11849	0.00011	-0.00012	-3e-05	-4e-05	-8e-05	-7e-05	-9e-05	3e-05	3
11850	0.00011	-0.00012	-3e-05	-4e-05	-8e-05	-7e-05	-9e-05	3e-05	3
11851	0.00011	-0.00012	-3e-05	-4e-05	-8e-05	-7e-05	-9e-05	3e-05	3
11852	0.00011	-0.00012	-3e-05	-4e-05	-8e-05	-7e-05	-9e-05	3e-05	3
11853	0.00011	-0.00012	-3e-05	-4e-05	-8e-05	-7e-05	-9e-05	3e-05	3
11854	0.00011	-0.00012	-3e-05	-4e-05	-8e-05	-7e-05	-9e-05	3e-05	3
11855	0.00011	-0.00012	-3e-05	-4e-05	-8e-05	-7e-05	-9e-05	3e-05	3
11856	0.00011	-0.00012	-3e-05	-4e-05	-8e-05	-7e-05	-9e-05	3e-05	3
11857	0.00011	-0.00012	-3e-05	-4e-05	-8e-05	-7e-05	-9e-05	3e-05	3
11858	6e-05	0.00017	-5e-05	-4e-05	-4e-05	-7e-05	-4e-05	1e-05	3
11859	-0.00023	-0.00024	-7e-05	1e-05	-2e-05	2e-05	4e-05	-6e-05	3
11860	-0.00023	-0.00024	-7e-05	1e-05	-2e-05	2e-05	4e-05	-6e-05	3
11861	-0.00023	-0.00024	-7e-05	1e-05	-2e-05	2e-05	4e-05	-6e-05	3
11862	-0.00023	-0.00024	-7e-05	1e-05	-2e-05	2e-05	4e-05	-6e-05	3
11863	-0.00023	-0.00024	-7e-05	1e-05	-2e-05	2e-05	4e-05	-6e-05	3
11864	-0.00023	-0.00024	-7e-05	1e-05	-2e-05	2e-05	4e-05	-6e-05	3
11865	-0.00023	-0.00024	-7e-05	1e-05	-2e-05	2e-05	4e-05	-6e-05	3
11866	-0.00023	-0.00024	-7e-05	1e-05	-2e-05	2e-05	4e-05	-6e-05	3
11867	-0.00023	-0.00024	-7e-05	1e-05	-2e-05	2e-05	4e-05	-6e-05	3
11868	-0.00023	-0.00024	-7e-05	1e-05	-2e-05	2e-05	4e-05	-6e-05	3
11869	-0.00023	-0.00024	-7e-05	1e-05	-2e-05	2e-05	4e-05	-6e-05	3
11870	-0.00023	-0.00024	-7e-05	1e-05	-2e-05	2e-05	4e-05	-6e-05	3
11871	0.00021	1e-05	-6e-05	-5e-05	-5e-05	-6e-05	-8e-05	-7e-05	3
11872	0.00015	4e-05	5e-05	-1e-05	-6e-05	3e-05	-2e-05	0.00016	3
11873	0.00015	4e-05	5e-05	-1e-05	-6e-05	3e-05	-2e-05	0.00016	3
11874	0.00015	4e-05	5e-05	-1e-05	-6e-05	3e-05	-2e-05	0.00016	3
11875	0.00015	4e-05	5e-05	-1e-05	-6e-05	3e-05	-2e-05	0.00016	3
11876	0.00015	4e-05	5e-05	-1e-05	-6e-05	3e-05	-2e-05	0.00016	3
11877	0.00015	4e-05	5e-05	-1e-05	-6e-05	3e-05	-2e-05	0.00016	3
11878	0.00015	4e-05	5e-05	-1e-05	-6e-05	3e-05	-2e-05	0.00016	3
11879	0.00015	4e-05	5e-05	-1e-05	-6e-05	3e-05	-2e-05	0.00016	3
11880	0.00017	0.00021	6e-05	4e-05	6e-05	0	-2e-05	-3e-05	3
11881	0.00017	0.00021	6e-05	4e-05	6e-05	0	-2e-05	-3e-05	3
11882	0.00017	0.00021	6e-05	4e-05	6e-05	0	-2e-05	-3e-05	3
11883	0.00017	0.00021	6e-05	4e-05	6e-05	0	-2e-05	-3e-05	3
11884	0.00017	0.00021	6e-05	4e-05	6e-05	0	-2e-05	-3e-05	3
11885	0.00017	0.00021	6e-05	4e-05	6e-05	0	-2e-05	-3e-05	3
11886	0.00017	0.00021	6e-05	4e-05	6e-05	0	-2e-05	-3e-05	3
11890	0.00017	0.00021	6e-05	4e-05	6e-05	0	-2e-05	-3e-05	3
11891	0.00017	0.00021	6e-05	4e-05	6e-05	0	-2e-05	-3e-05	3
11892	0.00017	0.00021	6e-05	4e-05	6e-05	0	-2e-05	-3e-05	3
11893	0.00017	0.00021	6e-05	4e-05	6e-05	0	-2e-05	-3e-05	3
11894	0.00017	0.00021	6e-05	4e-05	6e-05	0	-2e-05	-3e-05	3
11895	-6e-05	8e-05	0	0	4e-05	-7e-05	-8e-05	-0.00022	3
11897	-0.00012	-0.0002	-4e-05	-8e-05	-0.00021	-5e-05	-0.00011	-0.00014	3
11898	-0.00012	-0.0002	-4e-05	-8e-05	-0.00021	-5e-05	-0.00011	-0.00014	3
11899	-0.00012	-0.0002	-4e-05	-8e-05	-0.00021	-5e-05	-0.00011	-0.00014	3
11901	-0.00012	-0.0002	-4e-05	-8e-05	-0.00021	-5e-05	-0.00011	-0.00014	3
11902	-0.00012	-0.0002	-4e-05	-8e-05	-0.00021	-5e-05	-0.00011	-0.00014	3
11903	-0.00012	-0.0002	-4e-05	-8e-05	-0.00021	-5e-05	-0.00011	-0.00014	3
11904	-0.00012	-0.0002	-4e-05	-8e-05	-0.00021	-5e-05	-0.00011	-0.00014	3
11905	-0.00012	-0.0002	-4e-05	-8e-05	-0.00021	-5e-05	-0.00011	-0.00014	3
11906	-0.00012	-0.0002	-4e-05	-8e-05	-0.00021	-5e-05	-0.00011	-0.00014	3
11907	-0.00012	-0.0002	-4e-05	-8e-05	-0.00021	-5e-05	-0.00011	-0.00014	3
11908	-0.00012	-0.0002	-4e-05	-8e-05	-0.00021	-5e-05	-0.00011	-0.00014	3
11909	-0.00012	-0.0002	-4e-05	-8e-05	-0.00021	-5e-05	-0.00011	-0.00014	3
11910	-0.00012	-0.0002	-4e-05	-8e-05	-0.00021	-5e-05	-0.00011	-0.00014	3
11911	-0.00012	-0.0002	-4e-05	-8e-05	-0.00021	-5e-05	-0.00011	-0.00014	3
11912	-0.00012	-0.0002	-4e-05	-8e-05	-0.00021	-5e-05	-0.00011	-0.00014	3
11913	-0.00012	-0.0002	-4e-05	-8e-05	-0.00021	-5e-05	-0.00011	-0.00014	3
11914	-0.00012	-0.0002	-4e-05	-8e-05	-0.00021	-5e-05	-0.00011	-0.00014	3
11915	-0.00012	-0.0002	-4e-05	-8e-05	-0.00021	-5e-05	-0.00011	-0.00014	3
11916	-0.00012	-0.0002	-4e-05	-8e-05	-0.00021	-5e-05	-0.00011	-0.00014	3
11917	-0.00012	-0.0002	-4e-05	-8e-05	-0.00021	-5e-05	-0.00011	-0.00014	3
11918	-0.00019	-0.00018	-6e-05	-2e-05	-3e-05	-2e-05	-3e-05	-0.00031	3
11919	-0.00019	-0.00018	-6e-05	-2e-05	-3e-05	-2e-05	-3e-05	-0.00031	3
11920	-0.00019	-0.00018	-6e-05	-2e-05	-3e-05	-2e-05	-3e-05	-0.00031	3
11921	9e-05	0.00023	-0.00012	-6e-05	-3e-05	-4e-05	-4e-05	-6e-05	3
11922	9e-05	0.00023	-0.00012	-6e-05	-3e-05	-4e-05	-4e-05	-6e-05	3
11923	9e-05	0.00023	-0.00012	-6e-05	-3e-05	-4e-05	-4e-05	-6e-05	3
11924	9e-05	0.00023	-0.00012	-6e-05	-3e-05	-4e-05	-4e-05	-6e-05	3
11925	9e-05	0.00023	-0.00012	-6e-05	-3e-05	-4e-05	-4e-05	-6e-05	3
11926	9e-05	0.00023	-0.00012	-6e-05	-3e-05	-4e-05	-4e-05	-6e-05	3
11927	9e-05	0.00023	-0.00012	-6e-05	-3e-05	-4e-05	-4e-05	-6e-05	3
11928	9e-05	0.00023	-0.00012	-6e-05	-3e-05	-4e-05	-4e-05	-6e-05	3
11929	9e-05	0.00023	-0.00012	-6e-05	-3e-05	-4e-05	-4e-05	-6e-05	3
11930	9e-05	0.00023	-0.00012	-6e-05	-3e-05	-4e-05	-4e-05	-6e-05	3
11931	-2e-05	-1e-05	-1e-05	-4e-05	-9e-05	1e-05	1e-05	2e-05	3
11932	-2e-05	-1e-05	-1e-05	-4e-05	-9e-05	1e-05	1e-05	2e-05	3
11933	-2e-05	-1e-05	-1e-05	-4e-05	-9e-05	1e-05	1e-05	2e-05	3
11934	-2e-05	-1e-05	-1e-05	-4e-05	-9e-05	1e-05	1e-05	2e-05	3
11935	-2e-05	-1e-05	-1e-05	-4e-05	-9e-05	1e-05	1e-05	2e-05	3
11936	-2e-05	-1e-05	-1e-05	-4e-05	-9e-05	1e-05	1e-05	2e-05	3
11938	-2e-05	-1e-05	-1e-05	-4e-05	-9e-05	1e-05	1e-05	2e-05	3
11939	-2e-05	-1e-05	-1e-05	-4e-05	-9e-05	1e-05	1e-05	2e-05	3
11940	-2e-05	-1e-05	-1e-05	-4e-05	-9e-05	1e-05	1e-05	2e-05	3
11941	-2e-05	-1e-05	-1e-05	-4e-05	-9e-05	1e-05	1e-05	2e-05	3
11942	-2e-05	-1e-05	-1e-05	-4e-05	-9e-05	1e-05	1e-05	2e-05	3
11943	-2e-05	-1e-05	-1e-05	-4e-05	-9e-05	1e-05	1e-05	2e-05	3
11944	-2e-05	-1e-05	-1e-05	-4e-05	-9e-05	1e-05	1e-05	2e-05	3
11945	-2e-05	-1e-05	-1e-05	-4e-05	-9e-05	1e-05	1e-05	2e-05	3
11947	-2e-05	-1e-05	-1e-05	-4e-05	-9e-05	1e-05	1e-05	2e-05	3
11948	-6e-05	0.00015	0.00015	0.00013	0.00019	2e-05	-6e-05	-0.00017	3
11949	-6e-05	0.00015	0.00015	0.00013	0.00019	2e-05	-6e-05	-0.00017	3
11950	-6e-05	0.00015	0.00015	0.00013	0.00019	2e-05	-6e-05	-0.00017	3
11951	-6e-05	0.00015	0.00015	0.00013	0.00019	2e-05	-6e-05	-0.00017	3
11952	-6e-05	0.00015	0.00015	0.00013	0.00019	2e-05	-6e-05	-0.00017	3
11953	-6e-05	0.00015	0.00015	0.00013	0.00019	2e-05	-6e-05	-0.00017	3
11954	-6e-05	0.00015	0.00015	0.00013	0.00019	2e-05	-6e-05	-0.00017	3
11955	0.00017	1e-05	-8e-05	-1e-05	9e-05	-2e-05	5e-05	0.00028	3
11956	0.00017	1e-05	-8e-05	-1e-05	9e-05	-2e-05	5e-05	0.00028	3
11957	0.00017	1e-05	-8e-05	-1e-05	9e-05	-2e-05	5e-05	0.00028	3
11958	0.00017	1e-05	-8e-05	-1e-05	9e-05	-2e-05	5e-05	0.00028	3
11959	0.00017	1e-05	-8e-05	-1e-05	9e-05	-2e-05	5e-05	0.00028	3
11960	0.00017	1e-05	-8e-05	-1e-05	9e-05	-2e-05	5e-05	0.00028	3
11961	0.00017	1e-05	-8e-05	-1e-05	9e-05	-2e-05	5e-05	0.00028	3
11962	0.00017	1e-05	-8e-05	-1e-05	9e-05	-2e-05	5e-05	0.00028	3
11963	-0.00016	-0.00036	4e-05	0	-8e-05	-1e-05	1e-05	0.0001	3
11964	-0.00016	-0.00036	4e-05	0	-8e-05	-1e-05	1e-05	0.0001	3
11965	-0.00016	-0.00036	4e-05	0	-8e-05	-1e-05	1e-05	0.0001	3
11966	-0.00016	-0.00036	4e-05	0	-8e-05	-1e-05	1e-05	0.0001	3
11967	-0.00016	-0.00036	4e-05	0	-8e-05	-1e-05	1e-05	0.0001	3
11968	-0.00016	-0.00036	4e-05	0	-8e-05	-1e-05	1e-05	0.0001	3
11969	-0.00016	-0.00036	4e-05	0	-8e-05	-1e-05	1e-05	0.0001	3
11970	-0.00016	-0.00036	4e-05	0	-8e-05	-1e-05	1e-05	0.0001	3
11971	-0.00016	-0.00036	4e-05	0	-8e-05	-1e-05	1e-05	0.0001	3
11972	-0.00016	-0.00036	4e-05	0	-8e-05	-1e-05	1e-05	0.0001	3
11973	-0.00016	-0.00036	4e-05	0	-8e-05	-1e-05	1e-05	0.0001	3
11974	-0.00016	-0.00036	4e-05	0	-8e-05	-1e-05	1e-05	0.0001	3
11975	-0.00016	-0.00036	4e-05	0	-8e-05	-1e-05	1e-05	0.0001	3
11976	-0.00016	-0.00036	4e-05	0	-8e-05	-1e-05	1e-05	0.0001	3
11977	-0.00016	-0.00036	4e-05	0	-8e-05	-1e-05	1e-05	0.0001	3
11978	-0.00016	-0.00036	4e-05	0	-8e-05	-1e-05	1e-05	0.0001	3
11979	-0.00016	-0.00036	4e-05	0	-8e-05	-1e-05	1e-05	0.0001	3
11980	-0.00016	-0.00036	4e-05	0	-8e-05	-1e-05	1e-05	0.0001	3
11981	-0.00016	-0.00036	4e-05	0	-8e-05	-1e-05	1e-05	0.0001	3
11982	-0.00016	-0.00036	4e-05	0	-8e-05	-1e-05	1e-05	0.0001	3
11983	-0.00016	-0.00036	4e-05	0	-8e-05	-1e-05	1e-05	0.0001	3
11984	-0.00016	-0.00036	4e-05	0	-8e-05	-1e-05	1e-05	0.0001	3
11985	-1e-05	-0.0002	6e-05	-3e-05	-6e-05	1e-05	-4e-05	-7e-05	3
11986	-1e-05	-0.0002	6e-05	-3e-05	-6e-05	1e-05	-4e-05	-7e-05	3
11988	-0.00028	-0.00046	-0.00018	-5e-05	1e-05	-5e-05	-0.0001	-0.00033	3
11989	-0.00028	-0.00046	-0.00018	-5e-05	1e-05	-5e-05	-0.0001	-0.00033	3
11990	-0.00028	-0.00046	-0.00018	-5e-05	1e-05	-5e-05	-0.0001	-0.00033	3
11991	-2e-05	-4e-05	8e-05	5e-05	-5e-05	-2e-05	6e-05	0	3
11992	0.00016	0.00045	7e-05	2e-05	2e-05	2e-05	2e-05	3e-05	3
11993	0.00016	0.00045	7e-05	2e-05	2e-05	2e-05	2e-05	3e-05	3
11994	0.00016	0.00045	7e-05	2e-05	2e-05	2e-05	2e-05	3e-05	3
11995	0.00016	0.00045	7e-05	2e-05	2e-05	2e-05	2e-05	3e-05	3
11996	0.00016	0.00045	7e-05	2e-05	2e-05	2e-05	2e-05	3e-05	3
11997	0.00016	0.00045	7e-05	2e-05	2e-05	2e-05	2e-05	3e-05	3
11998	0.00016	0.00045	7e-05	2e-05	2e-05	2e-05	2e-05	3e-05	3
11999	0.00016	0.00045	7e-05	2e-05	2e-05	2e-05	2e-05	3e-05	3
12000	0.00016	0.00045	7e-05	2e-05	2e-05	2e-05	2e-05	3e-05	3
12001	0.00016	0.00045	7e-05	2e-05	2e-05	2e-05	2e-05	3e-05	3
12002	0.00016	0.00045	7e-05	2e-05	2e-05	2e-05	2e-05	3e-05	3
12003	0.00016	0.00045	7e-05	2e-05	2e-05	2e-05	2e-05	3e-05	3
12004	0.00016	0.00045	7e-05	2e-05	2e-05	2e-05	2e-05	3e-05	3
12005	0.00016	0.00045	7e-05	2e-05	2e-05	2e-05	2e-05	3e-05	3
12006	0.00016	0.00045	7e-05	2e-05	2e-05	2e-05	2e-05	3e-05	3
12007	0.00016	0.00045	7e-05	2e-05	2e-05	2e-05	2e-05	3e-05	3
12008	0.00019	0.00014	-1e-05	-4e-05	-3e-05	-3e-05	8e-05	0.0001	3
12009	0.00019	0.00014	-1e-05	-4e-05	-3e-05	-3e-05	8e-05	0.0001	3
12010	0.00019	0.00014	-1e-05	-4e-05	-3e-05	-3e-05	8e-05	0.0001	3
12011	0.00019	0.00014	-1e-05	-4e-05	-3e-05	-3e-05	8e-05	0.0001	3
12012	0.00019	0.00014	-1e-05	-4e-05	-3e-05	-3e-05	8e-05	0.0001	3
12013	0.00019	0.00014	-1e-05	-4e-05	-3e-05	-3e-05	8e-05	0.0001	3
12014	0.00019	0.00014	-1e-05	-4e-05	-3e-05	-3e-05	8e-05	0.0001	3
12015	0.00019	0.00014	-1e-05	-4e-05	-3e-05	-3e-05	8e-05	0.0001	3
12016	-0.0001	-0.0001	-5e-05	-0.00011	-0.00015	-0.00011	-6e-05	-0.00018	3
12017	-0.0001	-0.0001	-5e-05	-0.00011	-0.00015	-0.00011	-6e-05	-0.00018	3
12018	-0.0001	-0.0001	-5e-05	-0.00011	-0.00015	-0.00011	-6e-05	-0.00018	3
12019	-0.0001	-0.0001	-5e-05	-0.00011	-0.00015	-0.00011	-6e-05	-0.00018	3
12020	-0.0001	-0.0001	-5e-05	-0.00011	-0.00015	-0.00011	-6e-05	-0.00018	3
12021	-0.0001	-0.0001	-5e-05	-0.00011	-0.00015	-0.00011	-6e-05	-0.00018	3
12022	5e-05	0.00029	4e-05	2e-05	0.0001	7e-05	5e-05	0.00017	3
12023	5e-05	0.00029	4e-05	2e-05	0.0001	7e-05	5e-05	0.00017	3
12024	5e-05	0.00029	4e-05	2e-05	0.0001	7e-05	5e-05	0.00017	3
12025	5e-05	0.00029	4e-05	2e-05	0.0001	7e-05	5e-05	0.00017	3
12026	5e-05	0.00029	4e-05	2e-05	0.0001	7e-05	5e-05	0.00017	3
12027	5e-05	0.00029	4e-05	2e-05	0.0001	7e-05	5e-05	0.00017	3
12028	5e-05	0.00029	4e-05	2e-05	0.0001	7e-05	5e-05	0.00017	3
41063	3e-05	0.00018	-5e-05	-0.0001	-0.00013	-4e-05	-2e-05	6e-05	3
41064	3e-05	0.00018	-5e-05	-0.0001	-0.00013	-4e-05	-2e-05	6e-05	3
41065	3e-05	0.00018	-5e-05	-0.0001	-0.00013	-4e-05	-2e-05	6e-05	3
41066	3e-05	0.00018	-5e-05	-0.0001	-0.00013	-4e-05	-2e-05	6e-05	3
41067	3e-05	0.00018	-5e-05	-0.0001	-0.00013	-4e-05	-2e-05	6e-05	3
41068	3e-05	0.00018	-5e-05	-0.0001	-0.00013	-4e-05	-2e-05	6e-05	3
41069	3e-05	0.00018	-5e-05	-0.0001	-0.00013	-4e-05	-2e-05	6e-05	3
41070	3e-05	0.00018	-5e-05	-0.0001	-0.00013	-4e-05	-2e-05	6e-05	3
41071	3e-05	0.00018	-5e-05	-0.0001	-0.00013	-4e-05	-2e-05	6e-05	3
41072	3e-05	0.00018	-5e-05	-0.0001	-0.00013	-4e-05	-2e-05	6e-05	3
41073	3e-05	0.00018	-5e-05	-0.0001	-0.00013	-4e-05	-2e-05	6e-05	3
41074	3e-05	0.00018	-5e-05	-0.0001	-0.00013	-4e-05	-2e-05	6e-05	3
41075	3e-05	0.00018	-5e-05	-0.0001	-0.00013	-4e-05	-2e-05	6e-05	3
41076	3e-05	0.00018	-5e-05	-0.0001	-0.00013	-4e-05	-2e-05	6e-05	3
41077	3e-05	0.00018	-5e-05	-0.0001	-0.00013	-4e-05	-2e-05	6e-05	3
41078	3e-05	0.00018	-5e-05	-0.0001	-0.00013	-4e-05	-2e-05	6e-05	3
41079	3e-05	0.00018	-5e-05	-0.0001	-0.00013	-4e-05	-2e-05	6e-05	3
41080	3e-05	0.00018	-5e-05	-0.0001	-0.00013	-4e-05	-2e-05	6e-05	3
41081	3e-05	0.00018	-5e-05	-0.0001	-0.00013	-4e-05	-2e-05	6e-05	3
41082	3e-05	0.00018	-5e-05	-0.0001	-0.00013	-4e-05	-2e-05	6e-05	3
41083	3e-05	0.00018	-5e-05	-0.0001	-0.00013	-4e-05	-2e-05	6e-05	3
41084	3e-05	0.00018	-5e-05	-0.0001	-0.00013	-4e-05	-2e-05	6e-05	3
41085	3e-05	0.00018	-5e-05	-0.0001	-0.00013	-4e-05	-2e-05	6e-05	3
41086	3e-05	0.00018	-5e-05	-0.0001	-0.00013	-4e-05	-2e-05	6e-05	3
41089	-6e-05	-0.00033	-0.00017	-6e-05	-0.00017	-1e-05	4e-05	-1e-05	3
41090	3e-05	4e-05	0.00014	-7e-05	-0.00023	0	-6e-05	-0.00012	3
41091	3e-05	4e-05	0.00014	-7e-05	-0.00023	0	-6e-05	-0.00012	3
41092	3e-05	4e-05	0.00014	-7e-05	-0.00023	0	-6e-05	-0.00012	3
41093	3e-05	4e-05	0.00014	-7e-05	-0.00023	0	-6e-05	-0.00012	3
41094	3e-05	4e-05	0.00014	-7e-05	-0.00023	0	-6e-05	-0.00012	3
41095	3e-05	4e-05	0.00014	-7e-05	-0.00023	0	-6e-05	-0.00012	3
41096	3e-05	4e-05	0.00014	-7e-05	-0.00023	0	-6e-05	-0.00012	3
41097	3e-05	4e-05	0.00014	-7e-05	-0.00023	0	-6e-05	-0.00012	3
41098	3e-05	4e-05	0.00014	-7e-05	-0.00023	0	-6e-05	-0.00012	3
41099	3e-05	4e-05	0.00014	-7e-05	-0.00023	0	-6e-05	-0.00012	3
41100	3e-05	4e-05	0.00014	-7e-05	-0.00023	0	-6e-05	-0.00012	3
41101	3e-05	4e-05	0.00014	-7e-05	-0.00023	0	-6e-05	-0.00012	3
41102	3e-05	4e-05	0.00014	-7e-05	-0.00023	0	-6e-05	-0.00012	3
41104	3e-05	4e-05	0.00014	-7e-05	-0.00023	0	-6e-05	-0.00012	3
41105	3e-05	4e-05	0.00014	-7e-05	-0.00023	0	-6e-05	-0.00012	3
41106	3e-05	4e-05	0.00014	-7e-05	-0.00023	0	-6e-05	-0.00012	3
41107	3e-05	4e-05	0.00014	-7e-05	-0.00023	0	-6e-05	-0.00012	3
41108	3e-05	4e-05	0.00014	-7e-05	-0.00023	0	-6e-05	-0.00012	3
41109	3e-05	4e-05	0.00014	-7e-05	-0.00023	0	-6e-05	-0.00012	3
41110	0.00046	0.00035	0	-0.0001	-0.00027	-7e-05	8e-05	0.00036	3
41111	2e-05	-0.00011	1e-05	0.00012	0.00031	0.00014	0.00012	0.00027	3
41112	9e-05	0.00013	8e-05	9e-05	0.00029	0.00011	0	-9e-05	3
41113	9e-05	0.00013	8e-05	9e-05	0.00029	0.00011	0	-9e-05	3
41114	9e-05	0.00013	8e-05	9e-05	0.00029	0.00011	0	-9e-05	3
41115	9e-05	0.00013	8e-05	9e-05	0.00029	0.00011	0	-9e-05	3
41116	9e-05	0.00013	8e-05	9e-05	0.00029	0.00011	0	-9e-05	3
41117	9e-05	0.00013	8e-05	9e-05	0.00029	0.00011	0	-9e-05	3
41118	9e-05	0.00013	8e-05	9e-05	0.00029	0.00011	0	-9e-05	3
41119	9e-05	0.00013	8e-05	9e-05	0.00029	0.00011	0	-9e-05	3
41120	9e-05	0.00013	8e-05	9e-05	0.00029	0.00011	0	-9e-05	3
41121	9e-05	0.00013	8e-05	9e-05	0.00029	0.00011	0	-9e-05	3
41122	9e-05	0.00013	8e-05	9e-05	0.00029	0.00011	0	-9e-05	3
41123	9e-05	0.00013	8e-05	9e-05	0.00029	0.00011	0	-9e-05	3
41124	-3e-05	0.00045	1e-05	-6e-05	-0.00015	-5e-05	-3e-05	3e-05	3
41125	-3e-05	0.00045	1e-05	-6e-05	-0.00015	-5e-05	-3e-05	3e-05	3
41126	-3e-05	0.00045	1e-05	-6e-05	-0.00015	-5e-05	-3e-05	3e-05	3
41127	-3e-05	0.00045	1e-05	-6e-05	-0.00015	-5e-05	-3e-05	3e-05	3
41128	-3e-05	0.00045	1e-05	-6e-05	-0.00015	-5e-05	-3e-05	3e-05	3
41129	-3e-05	0.00045	1e-05	-6e-05	-0.00015	-5e-05	-3e-05	3e-05	3
41130	-3e-05	0.00045	1e-05	-6e-05	-0.00015	-5e-05	-3e-05	3e-05	3
41131	-3e-05	0.00045	1e-05	-6e-05	-0.00015	-5e-05	-3e-05	3e-05	3
41132	-3e-05	0.00045	1e-05	-6e-05	-0.00015	-5e-05	-3e-05	3e-05	3
41133	-3e-05	0.00045	1e-05	-6e-05	-0.00015	-5e-05	-3e-05	3e-05	3
41134	-3e-05	0.00045	1e-05	-6e-05	-0.00015	-5e-05	-3e-05	3e-05	3
41135	-3e-05	0.00045	1e-05	-6e-05	-0.00015	-5e-05	-3e-05	3e-05	3
41136	-3e-05	0.00045	1e-05	-6e-05	-0.00015	-5e-05	-3e-05	3e-05	3
41139	-3e-05	0.00045	1e-05	-6e-05	-0.00015	-5e-05	-3e-05	3e-05	3
41140	-3e-05	0.00045	1e-05	-6e-05	-0.00015	-5e-05	-3e-05	3e-05	3
41141	-3e-05	0.00045	1e-05	-6e-05	-0.00015	-5e-05	-3e-05	3e-05	3
41142	-3e-05	0.00045	1e-05	-6e-05	-0.00015	-5e-05	-3e-05	3e-05	3
41143	-3e-05	0.00045	1e-05	-6e-05	-0.00015	-5e-05	-3e-05	3e-05	3
41144	-3e-05	0.00045	1e-05	-6e-05	-0.00015	-5e-05	-3e-05	3e-05	3
41145	-3e-05	0.00045	1e-05	-6e-05	-0.00015	-5e-05	-3e-05	3e-05	3
41146	-3e-05	0.00045	1e-05	-6e-05	-0.00015	-5e-05	-3e-05	3e-05	3
41147	-3e-05	0.00045	1e-05	-6e-05	-0.00015	-5e-05	-3e-05	3e-05	3
41148	-3e-05	0.00045	1e-05	-6e-05	-0.00015	-5e-05	-3e-05	3e-05	3
41149	-3e-05	0.00045	1e-05	-6e-05	-0.00015	-5e-05	-3e-05	3e-05	3
41150	-3e-05	0.00045	1e-05	-6e-05	-0.00015	-5e-05	-3e-05	3e-05	3
41152	-3e-05	0.00045	1e-05	-6e-05	-0.00015	-5e-05	-3e-05	3e-05	3
41153	-3e-05	0.00045	1e-05	-6e-05	-0.00015	-5e-05	-3e-05	3e-05	3
41154	-3e-05	0.00045	1e-05	-6e-05	-0.00015	-5e-05	-3e-05	3e-05	3
41155	-3e-05	0.00045	1e-05	-6e-05	-0.00015	-5e-05	-3e-05	3e-05	3
41156	-3e-05	0.00045	1e-05	-6e-05	-0.00015	-5e-05	-3e-05	3e-05	3
41157	-3e-05	0.00045	1e-05	-6e-05	-0.00015	-5e-05	-3e-05	3e-05	3
41158	-3e-05	0.00045	1e-05	-6e-05	-0.00015	-5e-05	-3e-05	3e-05	3
41159	-3e-05	0.00045	1e-05	-6e-05	-0.00015	-5e-05	-3e-05	3e-05	3
41160	-3e-05	0.00045	1e-05	-6e-05	-0.00015	-5e-05	-3e-05	3e-05	3
41161	-3e-05	0.00045	1e-05	-6e-05	-0.00015	-5e-05	-3e-05	3e-05	3
41162	-3e-05	0.00045	1e-05	-6e-05	-0.00015	-5e-05	-3e-05	3e-05	3
41163	-0.0001	2e-05	2e-05	-5e-05	-0.0001	-2e-05	0.00017	9e-05	3
41164	0.00015	0.00041	0.00012	7e-05	0.00011	0.00014	0.00011	-8e-05	3
41165	0.00015	0.00041	0.00012	7e-05	0.00011	0.00014	0.00011	-8e-05	3
41166	0.00015	0.00041	0.00012	7e-05	0.00011	0.00014	0.00011	-8e-05	3
41167	0.00015	0.00041	0.00012	7e-05	0.00011	0.00014	0.00011	-8e-05	3
41168	0.00015	0.00041	0.00012	7e-05	0.00011	0.00014	0.00011	-8e-05	3
41169	0.00015	0.00041	0.00012	7e-05	0.00011	0.00014	0.00011	-8e-05	3
41170	0.00015	0.00041	0.00012	7e-05	0.00011	0.00014	0.00011	-8e-05	3
41171	0.00015	0.00041	0.00012	7e-05	0.00011	0.00014	0.00011	-8e-05	3
41172	0.00015	0.00041	0.00012	7e-05	0.00011	0.00014	0.00011	-8e-05	3
41173	0.00015	0.00041	0.00012	7e-05	0.00011	0.00014	0.00011	-8e-05	3
41174	0.00015	0.00041	0.00012	7e-05	0.00011	0.00014	0.00011	-8e-05	3
41175	0.00015	0.00041	0.00012	7e-05	0.00011	0.00014	0.00011	-8e-05	3
41176	0.00015	0.00041	0.00012	7e-05	0.00011	0.00014	0.00011	-8e-05	3
41177	0.00015	0.00041	0.00012	7e-05	0.00011	0.00014	0.00011	-8e-05	3
41178	0.00015	0.00041	0.00012	7e-05	0.00011	0.00014	0.00011	-8e-05	3
41179	0.00015	0.00041	0.00012	7e-05	0.00011	0.00014	0.00011	-8e-05	3
41180	0.00015	0.00041	0.00012	7e-05	0.00011	0.00014	0.00011	-8e-05	3
41181	0.00015	0.00041	0.00012	7e-05	0.00011	0.00014	0.00011	-8e-05	3
41182	0.00015	0.00041	0.00012	7e-05	0.00011	0.00014	0.00011	-8e-05	3
41183	0.00015	0.00041	0.00012	7e-05	0.00011	0.00014	0.00011	-8e-05	3
41184	0.00015	0.00041	0.00012	7e-05	0.00011	0.00014	0.00011	-8e-05	3
41185	6e-05	0	-5e-05	-9e-05	-0.00032	-0.00016	-2e-05	2e-05	3
41187	-0.0001	-3e-05	1e-05	-3e-05	-0.00015	-0.00017	-4e-05	0.00031	3
41190	-0.0001	-3e-05	1e-05	-3e-05	-0.00015	-0.00017	-4e-05	0.00031	3
41191	-0.0001	-3e-05	1e-05	-3e-05	-0.00015	-0.00017	-4e-05	0.00031	3
41192	-0.0001	-3e-05	1e-05	-3e-05	-0.00015	-0.00017	-4e-05	0.00031	3
41193	-0.0001	-3e-05	1e-05	-3e-05	-0.00015	-0.00017	-4e-05	0.00031	3
41194	-0.0001	-3e-05	1e-05	-3e-05	-0.00015	-0.00017	-4e-05	0.00031	3
41195	-0.0001	-3e-05	1e-05	-3e-05	-0.00015	-0.00017	-4e-05	0.00031	3
41196	-0.0001	-3e-05	1e-05	-3e-05	-0.00015	-0.00017	-4e-05	0.00031	3
41197	-0.0001	-3e-05	1e-05	-3e-05	-0.00015	-0.00017	-4e-05	0.00031	3
41198	-0.0001	-3e-05	1e-05	-3e-05	-0.00015	-0.00017	-4e-05	0.00031	3
41199	-0.0001	-3e-05	1e-05	-3e-05	-0.00015	-0.00017	-4e-05	0.00031	3
41200	-0.0001	-3e-05	1e-05	-3e-05	-0.00015	-0.00017	-4e-05	0.00031	3
41201	-2e-05	0.0001	-9e-05	-0.0002	-0.00038	-0.00021	-1e-05	0.00051	3
41202	4e-05	0.0001	5e-05	0.00017	0.00047	0.00021	6e-05	0	3
41203	4e-05	0.0001	5e-05	0.00017	0.00047	0.00021	6e-05	0	3
41204	4e-05	0.0001	5e-05	0.00017	0.00047	0.00021	6e-05	0	3
41205	-0.00036	-0.00059	-6e-05	-3e-05	-2e-05	-7e-05	-9e-05	-3e-05	3
41206	-0.00036	-0.00059	-6e-05	-3e-05	-2e-05	-7e-05	-9e-05	-3e-05	3
41207	-0.00036	-0.00059	-6e-05	-3e-05	-2e-05	-7e-05	-9e-05	-3e-05	3
41208	-0.00036	-0.00059	-6e-05	-3e-05	-2e-05	-7e-05	-9e-05	-3e-05	3
41209	-0.00036	-0.00059	-6e-05	-3e-05	-2e-05	-7e-05	-9e-05	-3e-05	3
41210	-0.00036	-0.00059	-6e-05	-3e-05	-2e-05	-7e-05	-9e-05	-3e-05	3
41211	-0.00036	-0.00059	-6e-05	-3e-05	-2e-05	-7e-05	-9e-05	-3e-05	3
41212	-0.00036	-0.00059	-6e-05	-3e-05	-2e-05	-7e-05	-9e-05	-3e-05	3
41213	-0.00019	6e-05	-3e-05	1e-05	5e-05	5e-05	5e-05	-0.00011	3
41214	-2e-05	-0.0003	-0.00012	-0.00018	-0.00035	5e-05	-0.0001	-1e-05	3
41215	0.00015	0.00029	4e-05	9e-05	0.0002	7e-05	-5e-05	5e-05	3
41216	0.00015	0.00029	4e-05	9e-05	0.0002	7e-05	-5e-05	5e-05	3
41217	0.00015	0.00029	4e-05	9e-05	0.0002	7e-05	-5e-05	5e-05	3
41218	0.00015	0.00029	4e-05	9e-05	0.0002	7e-05	-5e-05	5e-05	3
41219	0.00015	0.00029	4e-05	9e-05	0.0002	7e-05	-5e-05	5e-05	3
41220	0.00015	0.00029	4e-05	9e-05	0.0002	7e-05	-5e-05	5e-05	3
41221	0.00015	0.00029	4e-05	9e-05	0.0002	7e-05	-5e-05	5e-05	3
41222	0.00015	0.00029	4e-05	9e-05	0.0002	7e-05	-5e-05	5e-05	3
41223	0.00015	0.00029	4e-05	9e-05	0.0002	7e-05	-5e-05	5e-05	3
41224	0.00015	0.00029	4e-05	9e-05	0.0002	7e-05	-5e-05	5e-05	3
41225	0.00015	0.00029	4e-05	9e-05	0.0002	7e-05	-5e-05	5e-05	3
41226	0.00015	0.00029	4e-05	9e-05	0.0002	7e-05	-5e-05	5e-05	3
41227	0.00015	0.00029	4e-05	9e-05	0.0002	7e-05	-5e-05	5e-05	3
41228	0.00015	0.00029	4e-05	9e-05	0.0002	7e-05	-5e-05	5e-05	3
41229	0.00015	0.00029	4e-05	9e-05	0.0002	7e-05	-5e-05	5e-05	3
41230	0.00015	0.00029	4e-05	9e-05	0.0002	7e-05	-5e-05	5e-05	3
41231	0.00015	0.00029	4e-05	9e-05	0.0002	7e-05	-5e-05	5e-05	3
41232	0.00015	0.00029	4e-05	9e-05	0.0002	7e-05	-5e-05	5e-05	3
