15863	-4e-05	1e-05	0	-4e-05	-0.0003	-3e-05	-0.0001	-0.00018	4
15864	-4e-05	1e-05	0	-4e-05	-0.0003	-3e-05	-0.0001	-0.00018	4
15865	-4e-05	1e-05	0	-4e-05	-0.0003	-3e-05	-0.0001	-0.00018	4
15866	-4e-05	1e-05	0	-4e-05	-0.0003	-3e-05	-0.0001	-0.00018	4
15867	-4e-05	1e-05	0	-4e-05	-0.0003	-3e-05	-0.0001	-0.00018	4
15868	-4e-05	1e-05	0	-4e-05	-0.0003	-3e-05	-0.0001	-0.00018	4
15869	-4e-05	1e-05	0	-4e-05	-0.0003	-3e-05	-0.0001	-0.00018	4
15870	-4e-05	1e-05	0	-4e-05	-0.0003	-3e-05	-0.0001	-0.00018	4
15871	-4e-05	1e-05	0	-4e-05	-0.0003	-3e-05	-0.0001	-0.00018	4
15872	-4e-05	1e-05	0	-4e-05	-0.0003	-3e-05	-0.0001	-0.00018	4
15873	-4e-05	1e-05	0	-4e-05	-0.0003	-3e-05	-0.0001	-0.00018	4
15874	-4e-05	1e-05	0	-4e-05	-0.0003	-3e-05	-0.0001	-0.00018	4
15875	-4e-05	1e-05	0	-4e-05	-0.0003	-3e-05	-0.0001	-0.00018	4
15876	-4e-05	1e-05	0	-4e-05	-0.0003	-3e-05	-0.0001	-0.00018	4
15877	-4e-05	1e-05	0	-4e-05	-0.0003	-3e-05	-0.0001	-0.00018	4
15878	-4e-05	1e-05	0	-4e-05	-0.0003	-3e-05	-0.0001	-0.00018	4
15879	-4e-05	1e-05	0	-4e-05	-0.0003	-3e-05	-0.0001	-0.00018	4
15880	-4e-05	1e-05	0	-4e-05	-0.0003	-3e-05	-0.0001	-0.00018	4
15881	-4e-05	1e-05	0	-4e-05	-0.0003	-3e-05	-0.0001	-0.00018	4
15882	-4e-05	1e-05	0	-4e-05	-0.0003	-3e-05	-0.0001	-0.00018	4
15883	-4e-05	1e-05	0	-4e-05	-0.0003	-3e-05	-0.0001	-0.00018	4
15884	-4e-05	1e-05	0	-4e-05	-0.0003	-3e-05	-0.0001	-0.00018	4
15885	-4e-05	1e-05	0	-4e-05	-0.0003	-3e-05	-0.0001	-0.00018	4
15886	9e-05	0.00013	0.00029	0.00063	0.00047	0.0003	0.00019	0.00011	4
15888	9e-05	0.00013	0.00029	0.00063	0.00047	0.0003	0.00019	0.00011	4
15889	9e-05	0.00013	0.00029	0.00063	0.00047	0.0003	0.00019	0.00011	4
15890	9e-05	0.00013	0.00029	0.00063	0.00047	0.0003	0.00019	0.00011	4
15891	9e-05	0.00013	0.00029	0.00063	0.00047	0.0003	0.00019	0.00011	4
15892	9e-05	0.00013	0.00029	0.00063	0.00047	0.0003	0.00019	0.00011	4
15894	9e-05	0.00013	0.00029	0.00063	0.00047	0.0003	0.00019	0.00011	4
15895	9e-05	0.00013	0.00029	0.00063	0.00047	0.0003	0.00019	0.00011	4
15896	9e-05	0.00013	0.00029	0.00063	0.00047	0.0003	0.00019	0.00011	4
15897	9e-05	0.00013	0.00029	0.00063	0.00047	0.0003	0.00019	0.00011	4
15898	9e-05	0.00013	0.00029	0.00063	0.00047	0.0003	0.00019	0.00011	4
15899	9e-05	0.00013	0.00029	0.00063	0.00047	0.0003	0.00019	0.00011	4
15900	9e-05	0.00013	0.00029	0.00063	0.00047	0.0003	0.00019	0.00011	4
15901	9e-05	0.00013	0.00029	0.00063	0.00047	0.0003	0.00019	0.00011	4
15902	9e-05	0.00013	0.00029	0.00063	0.00047	0.0003	0.00019	0.00011	4
15903	9e-05	0.00013	0.00029	0.00063	0.00047	0.0003	0.00019	0.00011	4
15904	9e-05	0.00013	0.00029	0.00063	0.00047	0.0003	0.00019	0.00011	4
15905	9e-05	0.00013	0.00029	0.00063	0.00047	0.0003	0.00019	0.00011	4
15906	9e-05	0.00013	0.00029	0.00063	0.00047	0.0003	0.00019	0.00011	4
15907	9e-05	0.00013	0.00029	0.00063	0.00047	0.0003	0.00019	0.00011	4
15908	1e-05	0	5e-05	0.00021	0.00027	-0.00016	-6e-05	3e-05	4
15909	1e-05	0	5e-05	0.00021	0.00027	-0.00016	-6e-05	3e-05	4
15910	1e-05	0	5e-05	0.00021	0.00027	-0.00016	-6e-05	3e-05	4
15911	1e-05	0	5e-05	0.00021	0.00027	-0.00016	-6e-05	3e-05	4
15912	1e-05	0	5e-05	0.00021	0.00027	-0.00016	-6e-05	3e-05	4
15913	1e-05	0	5e-05	0.00021	0.00027	-0.00016	-6e-05	3e-05	4
15914	1e-05	0	5e-05	0.00021	0.00027	-0.00016	-6e-05	3e-05	4
15915	1e-05	0	5e-05	0.00021	0.00027	-0.00016	-6e-05	3e-05	4
15916	1e-05	0	5e-05	0.00021	0.00027	-0.00016	-6e-05	3e-05	4
15917	1e-05	0	5e-05	0.00021	0.00027	-0.00016	-6e-05	3e-05	4
15918	1e-05	0	5e-05	0.00021	0.00027	-0.00016	-6e-05	3e-05	4
15919	1e-05	0	5e-05	0.00021	0.00027	-0.00016	-6e-05	3e-05	4
15920	1e-05	0	5e-05	0.00021	0.00027	-0.00016	-6e-05	3e-05	4
15921	1e-05	0	5e-05	0.00021	0.00027	-0.00016	-6e-05	3e-05	4
15922	1e-05	0	5e-05	0.00021	0.00027	-0.00016	-6e-05	3e-05	4
15924	1e-05	0	5e-05	0.00021	0.00027	-0.00016	-6e-05	3e-05	4
15925	1e-05	0	5e-05	0.00021	0.00027	-0.00016	-6e-05	3e-05	4
15926	1e-05	0	5e-05	0.00021	0.00027	-0.00016	-6e-05	3e-05	4
15927	1e-05	0	5e-05	0.00021	0.00027	-0.00016	-6e-05	3e-05	4
15928	1e-05	0	5e-05	0.00021	0.00027	-0.00016	-6e-05	3e-05	4
15929	1e-05	0	5e-05	0.00021	0.00027	-0.00016	-6e-05	3e-05	4
15930	1e-05	0	5e-05	0.00021	0.00027	-0.00016	-6e-05	3e-05	4
15931	1e-05	0	5e-05	0.00021	0.00027	-0.00016	-6e-05	3e-05	4
15932	1e-05	0	5e-05	0.00021	0.00027	-0.00016	-6e-05	3e-05	4
15933	1e-05	0	5e-05	0.00021	0.00027	-0.00016	-6e-05	3e-05	4
15934	1e-05	0	5e-05	0.00021	0.00027	-0.00016	-6e-05	3e-05	4
15935	1e-05	0	5e-05	0.00021	0.00027	-0.00016	-6e-05	3e-05	4
15936	1e-05	0	5e-05	0.00021	0.00027	-0.00016	-6e-05	3e-05	4
15939	1e-05	0	5e-05	0.00021	0.00027	-0.00016	-6e-05	3e-05	4
15940	1e-05	0	5e-05	0.00021	0.00027	-0.00016	-6e-05	3e-05	4
15941	1e-05	0	5e-05	0.00021	0.00027	-0.00016	-6e-05	3e-05	4
15942	1e-05	0	5e-05	0.00021	0.00027	-0.00016	-6e-05	3e-05	4
15943	1e-05	0	5e-05	0.00021	0.00027	-0.00016	-6e-05	3e-05	4
15944	1e-05	0	5e-05	0.00021	0.00027	-0.00016	-6e-05	3e-05	4
15945	1e-05	0	5e-05	0.00021	0.00027	-0.00016	-6e-05	3e-05	4
15946	1e-05	0	5e-05	0.00021	0.00027	-0.00016	-6e-05	3e-05	4
15947	1e-05	0	5e-05	0.00021	0.00027	-0.00016	-6e-05	3e-05	4
15948	1e-05	0	5e-05	0.00021	0.00027	-0.00016	-6e-05	3e-05	4
15949	1e-05	0	5e-05	0.00021	0.00027	-0.00016	-6e-05	3e-05	4
15950	1e-05	0	5e-05	0.00021	0.00027	-0.00016	-6e-05	3e-05	4
15951	1e-05	0	5e-05	0.00021	0.00027	-0.00016	-6e-05	3e-05	4
15952	1e-05	0	5e-05	0.00021	0.00027	-0.00016	-6e-05	3e-05	4
15953	1e-05	0	5e-05	0.00021	0.00027	-0.00016	-6e-05	3e-05	4
15954	1e-05	0	5e-05	0.00021	0.00027	-0.00016	-6e-05	3e-05	4
15955	1e-05	0	5e-05	0.00021	0.00027	-0.00016	-6e-05	3e-05	4
15956	1e-05	0	5e-05	0.00021	0.00027	-0.00016	-6e-05	3e-05	4
15957	1e-05	0	5e-05	0.00021	0.00027	-0.00016	-6e-05	3e-05	4
15958	1e-05	0	5e-05	0.00021	0.00027	-0.00016	-6e-05	3e-05	4
15959	1e-05	0	5e-05	0.00021	0.00027	-0.00016	-6e-05	3e-05	4
15960	1e-05	0	5e-05	0.00021	0.00027	-0.00016	-6e-05	3e-05	4
15961	1e-05	0	5e-05	0.00021	0.00027	-0.00016	-6e-05	3e-05	4
15962	1e-05	0	5e-05	0.00021	0.00027	-0.00016	-6e-05	3e-05	4
15963	2e-05	5e-05	0	-0.00021	-0.00024	-0.00013	2e-05	0	4
15964	-4e-05	-7e-05	7e-05	0.00029	0.00032	0.00012	4e-05	-2e-05	4
15965	-2e-05	5e-05	0.00011	0.00038	0.00068	-3e-05	-6e-05	-5e-05	4
15966	-2e-05	5e-05	0.00011	0.00038	0.00068	-3e-05	-6e-05	-5e-05	4
15967	-2e-05	5e-05	0.00011	0.00038	0.00068	-3e-05	-6e-05	-5e-05	4
15968	-2e-05	5e-05	0.00011	0.00038	0.00068	-3e-05	-6e-05	-5e-05	4
15969	-2e-05	5e-05	0.00011	0.00038	0.00068	-3e-05	-6e-05	-5e-05	4
15970	-2e-05	5e-05	0.00011	0.00038	0.00068	-3e-05	-6e-05	-5e-05	4
15971	-2e-05	5e-05	0.00011	0.00038	0.00068	-3e-05	-6e-05	-5e-05	4
15972	-2e-05	5e-05	0.00011	0.00038	0.00068	-3e-05	-6e-05	-5e-05	4
15973	-2e-05	5e-05	0.00011	0.00038	0.00068	-3e-05	-6e-05	-5e-05	4
15974	-2e-05	5e-05	0.00011	0.00038	0.00068	-3e-05	-6e-05	-5e-05	4
15975	-2e-05	5e-05	0.00011	0.00038	0.00068	-3e-05	-6e-05	-5e-05	4
15976	-2e-05	5e-05	0.00011	0.00038	0.00068	-3e-05	-6e-05	-5e-05	4
15977	-2e-05	5e-05	0.00011	0.00038	0.00068	-3e-05	-6e-05	-5e-05	4
15978	-2e-05	5e-05	0.00011	0.00038	0.00068	-3e-05	-6e-05	-5e-05	4
15979	-2e-05	5e-05	0.00011	0.00038	0.00068	-3e-05	-6e-05	-5e-05	4
15980	-2e-05	5e-05	0.00011	0.00038	0.00068	-3e-05	-6e-05	-5e-05	4
15981	-2e-05	5e-05	0.00011	0.00038	0.00068	-3e-05	-6e-05	-5e-05	4
15982	-2e-05	5e-05	0.00011	0.00038	0.00068	-3e-05	-6e-05	-5e-05	4
15983	-2e-05	5e-05	0.00011	0.00038	0.00068	-3e-05	-6e-05	-5e-05	4
15984	-2e-05	5e-05	0.00011	0.00038	0.00068	-3e-05	-6e-05	-5e-05	4
15985	8e-05	0.0001	0.00036	0.00052	0.00076	0.00039	0.00026	0.00015	4
15986	8e-05	0.0001	0.00036	0.00052	0.00076	0.00039	0.00026	0.00015	4
15988	0	0	-2e-05	9e-05	3e-05	0.00012	8e-05	4e-05	4
15990	0	0	-2e-05	9e-05	3e-05	0.00012	8e-05	4e-05	4
15991	0	0	-2e-05	9e-05	3e-05	0.00012	8e-05	4e-05	4
15992	0	0	-2e-05	9e-05	3e-05	0.00012	8e-05	4e-05	4
15993	0	0	-2e-05	9e-05	3e-05	0.00012	8e-05	4e-05	4
15994	0	0	-2e-05	9e-05	3e-05	0.00012	8e-05	4e-05	4
15995	0	0	-2e-05	9e-05	3e-05	0.00012	8e-05	4e-05	4
15996	0	0	-2e-05	9e-05	3e-05	0.00012	8e-05	4e-05	4
15997	0	0	-2e-05	9e-05	3e-05	0.00012	8e-05	4e-05	4
15998	0	0	-2e-05	9e-05	3e-05	0.00012	8e-05	4e-05	4
15999	0	0	-2e-05	9e-05	3e-05	0.00012	8e-05	4e-05	4
16000	0	0	-2e-05	9e-05	3e-05	0.00012	8e-05	4e-05	4
16001	0	0	-2e-05	9e-05	3e-05	0.00012	8e-05	4e-05	4
16002	0	0	-2e-05	9e-05	3e-05	0.00012	8e-05	4e-05	4
16003	0	0	-2e-05	9e-05	3e-05	0.00012	8e-05	4e-05	4
16004	0	0	-2e-05	9e-05	3e-05	0.00012	8e-05	4e-05	4
16005	0	0	-2e-05	9e-05	3e-05	0.00012	8e-05	4e-05	4
16006	0	0	-2e-05	9e-05	3e-05	0.00012	8e-05	4e-05	4
16007	0	0	-2e-05	9e-05	3e-05	0.00012	8e-05	4e-05	4
16008	0	0	-2e-05	9e-05	3e-05	0.00012	8e-05	4e-05	4
16009	0	0	-2e-05	9e-05	3e-05	0.00012	8e-05	4e-05	4
16010	0	0	-2e-05	9e-05	3e-05	0.00012	8e-05	4e-05	4
16011	0	0	-2e-05	9e-05	3e-05	0.00012	8e-05	4e-05	4
16012	0	0	-2e-05	9e-05	3e-05	0.00012	8e-05	4e-05	4
16013	0	0	-2e-05	9e-05	3e-05	0.00012	8e-05	4e-05	4
16014	0	0	-2e-05	9e-05	3e-05	0.00012	8e-05	4e-05	4
16015	0	0	-2e-05	9e-05	3e-05	0.00012	8e-05	4e-05	4
16016	0	0	-2e-05	9e-05	3e-05	0.00012	8e-05	4e-05	4
16017	0	0	-2e-05	9e-05	3e-05	0.00012	8e-05	4e-05	4
16018	0	0	-2e-05	9e-05	3e-05	0.00012	8e-05	4e-05	4
16019	0	0	-2e-05	9e-05	3e-05	0.00012	8e-05	4e-05	4
16020	0	0	-2e-05	9e-05	3e-05	0.00012	8e-05	4e-05	4
16021	0	0	-2e-05	9e-05	3e-05	0.00012	8e-05	4e-05	4
16022	0	0	-2e-05	9e-05	3e-05	0.00012	8e-05	4e-05	4
16023	0	0	-2e-05	9e-05	3e-05	0.00012	8e-05	4e-05	4
16024	0	0	-2e-05	9e-05	3e-05	0.00012	8e-05	4e-05	4
16025	0	0	-2e-05	9e-05	3e-05	0.00012	8e-05	4e-05	4
16026	0	0	-2e-05	9e-05	3e-05	0.00012	8e-05	4e-05	4
16027	0	0	-2e-05	9e-05	3e-05	0.00012	8e-05	4e-05	4
16028	0	0	-2e-05	9e-05	3e-05	0.00012	8e-05	4e-05	4
16029	0	0	-2e-05	9e-05	3e-05	0.00012	8e-05	4e-05	4
16030	0	0	-2e-05	9e-05	3e-05	0.00012	8e-05	4e-05	4
16031	0	0	-2e-05	9e-05	3e-05	0.00012	8e-05	4e-05	4
16032	0	0	-2e-05	9e-05	3e-05	0.00012	8e-05	4e-05	4
16033	0	0	-2e-05	9e-05	3e-05	0.00012	8e-05	4e-05	4
16034	0	0	-2e-05	9e-05	3e-05	0.00012	8e-05	4e-05	4
16035	0	0	-2e-05	9e-05	3e-05	0.00012	8e-05	4e-05	4
16036	0	0	-2e-05	9e-05	3e-05	0.00012	8e-05	4e-05	4
16039	-4e-05	0	2e-05	-0.00033	-0.00033	-0.00015	-0.0001	-0.00018	4
16040	-4e-05	0	2e-05	-0.00033	-0.00033	-0.00015	-0.0001	-0.00018	4
16041	-4e-05	0	2e-05	-0.00033	-0.00033	-0.00015	-0.0001	-0.00018	4
16042	-4e-05	0	2e-05	-0.00033	-0.00033	-0.00015	-0.0001	-0.00018	4
16043	-4e-05	0	2e-05	-0.00033	-0.00033	-0.00015	-0.0001	-0.00018	4
16044	-4e-05	0	2e-05	-0.00033	-0.00033	-0.00015	-0.0001	-0.00018	4
16045	-4e-05	0	2e-05	-0.00033	-0.00033	-0.00015	-0.0001	-0.00018	4
16046	-4e-05	0	2e-05	-0.00033	-0.00033	-0.00015	-0.0001	-0.00018	4
16047	-4e-05	0	2e-05	-0.00033	-0.00033	-0.00015	-0.0001	-0.00018	4
16048	-4e-05	0	2e-05	-0.00033	-0.00033	-0.00015	-0.0001	-0.00018	4
16049	-4e-05	0	2e-05	-0.00033	-0.00033	-0.00015	-0.0001	-0.00018	4
16050	-4e-05	0	2e-05	-0.00033	-0.00033	-0.00015	-0.0001	-0.00018	4
16051	-4e-05	0	2e-05	-0.00033	-0.00033	-0.00015	-0.0001	-0.00018	4
16052	-4e-05	0	2e-05	-0.00033	-0.00033	-0.00015	-0.0001	-0.00018	4
16053	-4e-05	0	2e-05	-0.00033	-0.00033	-0.00015	-0.0001	-0.00018	4
16054	-4e-05	0	2e-05	-0.00033	-0.00033	-0.00015	-0.0001	-0.00018	4
16055	-4e-05	0	2e-05	-0.00033	-0.00033	-0.00015	-0.0001	-0.00018	4
16056	-4e-05	0	2e-05	-0.00033	-0.00033	-0.00015	-0.0001	-0.00018	4
16057	-4e-05	0	2e-05	-0.00033	-0.00033	-0.00015	-0.0001	-0.00018	4
16058	-4e-05	0	2e-05	-0.00033	-0.00033	-0.00015	-0.0001	-0.00018	4
16059	-4e-05	0	2e-05	-0.00033	-0.00033	-0.00015	-0.0001	-0.00018	4
16060	-2e-05	-5e-05	0.00013	0.0006	0.00069	0.00035	0.00017	5e-05	4
16061	-3e-05	-2e-05	-7e-05	-0.00013	-0.00031	-9e-05	-0.00014	-6e-05	4
16062	0.00011	0.00012	3e-05	-0.0005	-0.00033	4e-05	0.00014	0.00011	4
16063	0	4e-05	5e-05	0.00038	3e-05	4e-05	0	-2e-05	4
16064	0	4e-05	5e-05	0.00038	3e-05	4e-05	0	-2e-05	4
16065	0	4e-05	5e-05	0.00038	3e-05	4e-05	0	-2e-05	4
16066	0	4e-05	5e-05	0.00038	3e-05	4e-05	0	-2e-05	4
16067	0	4e-05	5e-05	0.00038	3e-05	4e-05	0	-2e-05	4
16068	0	4e-05	5e-05	0.00038	3e-05	4e-05	0	-2e-05	4
16069	0	4e-05	5e-05	0.00038	3e-05	4e-05	0	-2e-05	4
16070	0	4e-05	5e-05	0.00038	3e-05	4e-05	0	-2e-05	4
16071	0	4e-05	5e-05	0.00038	3e-05	4e-05	0	-2e-05	4
16072	0	4e-05	5e-05	0.00038	3e-05	4e-05	0	-2e-05	4
16073	0	4e-05	5e-05	0.00038	3e-05	4e-05	0	-2e-05	4
16074	0	4e-05	5e-05	0.00038	3e-05	4e-05	0	-2e-05	4
16075	0	4e-05	5e-05	0.00038	3e-05	4e-05	0	-2e-05	4
16076	0	4e-05	5e-05	0.00038	3e-05	4e-05	0	-2e-05	4
16077	0	4e-05	5e-05	0.00038	3e-05	4e-05	0	-2e-05	4
16078	0	4e-05	5e-05	0.00038	3e-05	4e-05	0	-2e-05	4
16079	0	4e-05	5e-05	0.00038	3e-05	4e-05	0	-2e-05	4
16080	0	4e-05	5e-05	0.00038	3e-05	4e-05	0	-2e-05	4
16081	0	4e-05	5e-05	0.00038	3e-05	4e-05	0	-2e-05	4
16082	0	4e-05	5e-05	0.00038	3e-05	4e-05	0	-2e-05	4
16083	0	4e-05	5e-05	0.00038	3e-05	4e-05	0	-2e-05	4
16084	0	4e-05	5e-05	0.00038	3e-05	4e-05	0	-2e-05	4
16085	0	4e-05	5e-05	0.00038	3e-05	4e-05	0	-2e-05	4
16087	0	4e-05	5e-05	0.00038	3e-05	4e-05	0	-2e-05	4
16090	0	4e-05	5e-05	0.00038	3e-05	4e-05	0	-2e-05	4
16091	0	4e-05	5e-05	0.00038	3e-05	4e-05	0	-2e-05	4
16092	0	4e-05	5e-05	0.00038	3e-05	4e-05	0	-2e-05	4
16093	0	4e-05	5e-05	0.00038	3e-05	4e-05	0	-2e-05	4
16094	0	4e-05	5e-05	0.00038	3e-05	4e-05	0	-2e-05	4
16095	0	4e-05	5e-05	0.00038	3e-05	4e-05	0	-2e-05	4
16096	0	4e-05	5e-05	0.00038	3e-05	4e-05	0	-2e-05	4
16097	0	4e-05	5e-05	0.00038	3e-05	4e-05	0	-2e-05	4
16098	0	4e-05	5e-05	0.00038	3e-05	4e-05	0	-2e-05	4
16099	0	4e-05	5e-05	0.00038	3e-05	4e-05	0	-2e-05	4
16100	0	4e-05	5e-05	0.00038	3e-05	4e-05	0	-2e-05	4
16101	0	4e-05	5e-05	0.00038	3e-05	4e-05	0	-2e-05	4
16102	0	4e-05	5e-05	0.00038	3e-05	4e-05	0	-2e-05	4
16103	0	4e-05	5e-05	0.00038	3e-05	4e-05	0	-2e-05	4
16104	0	4e-05	5e-05	0.00038	3e-05	4e-05	0	-2e-05	4
16105	0	4e-05	5e-05	0.00038	3e-05	4e-05	0	-2e-05	4
16106	0	4e-05	5e-05	0.00038	3e-05	4e-05	0	-2e-05	4
16107	0	4e-05	5e-05	0.00038	3e-05	4e-05	0	-2e-05	4
16108	0	4e-05	5e-05	0.00038	3e-05	4e-05	0	-2e-05	4
16109	0	4e-05	5e-05	0.00038	3e-05	4e-05	0	-2e-05	4
16110	0	4e-05	5e-05	0.00038	3e-05	4e-05	0	-2e-05	4
16111	0	4e-05	5e-05	0.00038	3e-05	4e-05	0	-2e-05	4
16112	0	4e-05	5e-05	0.00038	3e-05	4e-05	0	-2e-05	4
16113	-0.0001	-0.00015	-0.00028	-0.00023	-0.00042	-0.00034	-0.00032	-0.00017	4
16114	-0.0001	-0.00015	-0.00028	-0.00023	-0.00042	-0.00034	-0.00032	-0.00017	4
16115	-0.0001	-0.00015	-0.00028	-0.00023	-0.00042	-0.00034	-0.00032	-0.00017	4
16116	-0.0001	-0.00015	-0.00028	-0.00023	-0.00042	-0.00034	-0.00032	-0.00017	4
16117	-0.0001	-0.00015	-0.00028	-0.00023	-0.00042	-0.00034	-0.00032	-0.00017	4
16118	-0.0001	-0.00015	-0.00028	-0.00023	-0.00042	-0.00034	-0.00032	-0.00017	4
16119	-0.0001	-0.00015	-0.00028	-0.00023	-0.00042	-0.00034	-0.00032	-0.00017	4
16120	-0.0001	-0.00015	-0.00028	-0.00023	-0.00042	-0.00034	-0.00032	-0.00017	4
16121	-0.0001	-0.00015	-0.00028	-0.00023	-0.00042	-0.00034	-0.00032	-0.00017	4
16122	-0.0001	-0.00015	-0.00028	-0.00023	-0.00042	-0.00034	-0.00032	-0.00017	4
16123	-0.0001	-0.00015	-0.00028	-0.00023	-0.00042	-0.00034	-0.00032	-0.00017	4
16124	-0.0001	-0.00015	-0.00028	-0.00023	-0.00042	-0.00034	-0.00032	-0.00017	4
16125	-0.0001	-0.00015	-0.00028	-0.00023	-0.00042	-0.00034	-0.00032	-0.00017	4
16126	-0.0001	-0.00015	-0.00028	-0.00023	-0.00042	-0.00034	-0.00032	-0.00017	4
16127	-0.0001	-0.00015	-0.00028	-0.00023	-0.00042	-0.00034	-0.00032	-0.00017	4
16128	-0.0001	-0.00015	-0.00028	-0.00023	-0.00042	-0.00034	-0.00032	-0.00017	4
16129	-0.0001	-0.00015	-0.00028	-0.00023	-0.00042	-0.00034	-0.00032	-0.00017	4
16130	-0.0001	-0.00015	-0.00028	-0.00023	-0.00042	-0.00034	-0.00032	-0.00017	4
16131	-0.0001	-0.00015	-0.00028	-0.00023	-0.00042	-0.00034	-0.00032	-0.00017	4
16132	-0.0001	-0.00015	-0.00028	-0.00023	-0.00042	-0.00034	-0.00032	-0.00017	4
16133	-0.0001	-0.00015	-0.00028	-0.00023	-0.00042	-0.00034	-0.00032	-0.00017	4
16134	-0.0001	-0.00015	-0.00028	-0.00023	-0.00042	-0.00034	-0.00032	-0.00017	4
16135	-2e-05	1e-05	-9e-05	-0.00029	-0.00031	-0.00019	-7e-05	-2e-05	4
16137	-2e-05	1e-05	-9e-05	-0.00029	-0.00031	-0.00019	-7e-05	-2e-05	4
16139	-4e-05	-9e-05	0	7e-05	-6e-05	-0.00022	-5e-05	-2e-05	4
16140	5e-05	9e-05	0.00016	0.00017	0.00013	0.0001	6e-05	1e-05	4
16141	5e-05	9e-05	0.00016	0.00017	0.00013	0.0001	6e-05	1e-05	4
16142	5e-05	9e-05	0.00016	0.00017	0.00013	0.0001	6e-05	1e-05	4
16143	5e-05	9e-05	0.00016	0.00017	0.00013	0.0001	6e-05	1e-05	4
16144	5e-05	9e-05	0.00016	0.00017	0.00013	0.0001	6e-05	1e-05	4
16145	5e-05	9e-05	0.00016	0.00017	0.00013	0.0001	6e-05	1e-05	4
16146	5e-05	9e-05	0.00016	0.00017	0.00013	0.0001	6e-05	1e-05	4
16147	5e-05	9e-05	0.00016	0.00017	0.00013	0.0001	6e-05	1e-05	4
16148	5e-05	9e-05	0.00016	0.00017	0.00013	0.0001	6e-05	1e-05	4
16149	5e-05	9e-05	0.00016	0.00017	0.00013	0.0001	6e-05	1e-05	4
16150	5e-05	9e-05	0.00016	0.00017	0.00013	0.0001	6e-05	1e-05	4
16151	5e-05	9e-05	0.00016	0.00017	0.00013	0.0001	6e-05	1e-05	4
16152	5e-05	9e-05	0.00016	0.00017	0.00013	0.0001	6e-05	1e-05	4
16153	5e-05	9e-05	0.00016	0.00017	0.00013	0.0001	6e-05	1e-05	4
16154	5e-05	9e-05	0.00016	0.00017	0.00013	0.0001	6e-05	1e-05	4
16155	5e-05	9e-05	0.00016	0.00017	0.00013	0.0001	6e-05	1e-05	4
16156	5e-05	9e-05	0.00016	0.00017	0.00013	0.0001	6e-05	1e-05	4
16157	5e-05	9e-05	0.00016	0.00017	0.00013	0.0001	6e-05	1e-05	4
16158	5e-05	9e-05	0.00016	0.00017	0.00013	0.0001	6e-05	1e-05	4
16159	5e-05	9e-05	0.00016	0.00017	0.00013	0.0001	6e-05	1e-05	4
16160	5e-05	9e-05	0.00016	0.00017	0.00013	0.0001	6e-05	1e-05	4
16161	5e-05	9e-05	0.00016	0.00017	0.00013	0.0001	6e-05	1e-05	4
16162	5e-05	9e-05	0.00016	0.00017	0.00013	0.0001	6e-05	1e-05	4
16163	5e-05	9e-05	0.00016	0.00017	0.00013	0.0001	6e-05	1e-05	4
16164	5e-05	9e-05	0.00016	0.00017	0.00013	0.0001	6e-05	1e-05	4
16165	5e-05	9e-05	0.00016	0.00017	0.00013	0.0001	6e-05	1e-05	4
16166	5e-05	9e-05	0.00016	0.00017	0.00013	0.0001	6e-05	1e-05	4
16167	5e-05	9e-05	0.00016	0.00017	0.00013	0.0001	6e-05	1e-05	4
16168	5e-05	9e-05	0.00016	0.00017	0.00013	0.0001	6e-05	1e-05	4
16169	5e-05	9e-05	0.00016	0.00017	0.00013	0.0001	6e-05	1e-05	4
16170	5e-05	9e-05	0.00016	0.00017	0.00013	0.0001	6e-05	1e-05	4
16171	5e-05	9e-05	0.00016	0.00017	0.00013	0.0001	6e-05	1e-05	4
16172	0	-1e-05	-8e-05	-0.00023	-0.00018	-0.00017	-4e-05	5e-05	4
16173	2e-05	-1e-05	-4e-05	0.00016	0.00046	0.00032	0.00013	8e-05	4
16174	-1e-05	-1e-05	-2e-05	-0.00017	-0.00022	-0.00023	-9e-05	-2e-05	4
16175	-1e-05	-1e-05	-2e-05	-0.00017	-0.00022	-0.00023	-9e-05	-2e-05	4
16176	-1e-05	-1e-05	-2e-05	-0.00017	-0.00022	-0.00023	-9e-05	-2e-05	4
16177	-1e-05	-1e-05	-2e-05	-0.00017	-0.00022	-0.00023	-9e-05	-2e-05	4
16178	-1e-05	-1e-05	-2e-05	-0.00017	-0.00022	-0.00023	-9e-05	-2e-05	4
16179	-1e-05	-1e-05	-2e-05	-0.00017	-0.00022	-0.00023	-9e-05	-2e-05	4
16180	-1e-05	-1e-05	-2e-05	-0.00017	-0.00022	-0.00023	-9e-05	-2e-05	4
16181	-1e-05	-1e-05	-2e-05	-0.00017	-0.00022	-0.00023	-9e-05	-2e-05	4
16182	-1e-05	-1e-05	-2e-05	-0.00017	-0.00022	-0.00023	-9e-05	-2e-05	4
16183	-1e-05	-1e-05	-2e-05	-0.00017	-0.00022	-0.00023	-9e-05	-2e-05	4
16184	-1e-05	-1e-05	-2e-05	-0.00017	-0.00022	-0.00023	-9e-05	-2e-05	4
16185	-1e-05	-1e-05	-2e-05	-0.00017	-0.00022	-0.00023	-9e-05	-2e-05	4
16186	-1e-05	-1e-05	-2e-05	-0.00017	-0.00022	-0.00023	-9e-05	-2e-05	4
16189	4e-05	9e-05	3e-05	-6e-05	-0.00021	0.00011	8e-05	3e-05	4
16190	4e-05	9e-05	3e-05	-6e-05	-0.00021	0.00011	8e-05	3e-05	4
16191	-0.00011	-0.00019	-0.00011	3e-05	8e-05	0.00012	-5e-05	-6e-05	4
16192	-0.00011	-0.00019	-0.00011	3e-05	8e-05	0.00012	-5e-05	-6e-05	4
16193	1e-05	-3e-05	3e-05	6e-05	4e-05	1e-05	0	0	4
16194	1e-05	-3e-05	3e-05	6e-05	4e-05	1e-05	0	0	4
16195	1e-05	-3e-05	3e-05	6e-05	4e-05	1e-05	0	0	4
16196	1e-05	-3e-05	3e-05	6e-05	4e-05	1e-05	0	0	4
16197	1e-05	-3e-05	3e-05	6e-05	4e-05	1e-05	0	0	4
16198	1e-05	-3e-05	3e-05	6e-05	4e-05	1e-05	0	0	4
16199	1e-05	-3e-05	3e-05	6e-05	4e-05	1e-05	0	0	4
16200	1e-05	-3e-05	3e-05	6e-05	4e-05	1e-05	0	0	4
16201	1e-05	-3e-05	3e-05	6e-05	4e-05	1e-05	0	0	4
16202	1e-05	-3e-05	3e-05	6e-05	4e-05	1e-05	0	0	4
16203	1e-05	-3e-05	3e-05	6e-05	4e-05	1e-05	0	0	4
16204	1e-05	-3e-05	3e-05	6e-05	4e-05	1e-05	0	0	4
16205	1e-05	-3e-05	3e-05	6e-05	4e-05	1e-05	0	0	4
16206	1e-05	-3e-05	3e-05	6e-05	4e-05	1e-05	0	0	4
16207	1e-05	-3e-05	3e-05	6e-05	4e-05	1e-05	0	0	4
16208	5e-05	0.00013	0.00031	0.00051	0.00045	0.00033	0.00014	8e-05	4
16209	-4e-05	-4e-05	-0.0001	-0.00016	-0.00017	-0.00016	-9e-05	-7e-05	4
16210	-4e-05	-4e-05	-0.0001	-0.00016	-0.00017	-0.00016	-9e-05	-7e-05	4
16211	-4e-05	-4e-05	-0.0001	-0.00016	-0.00017	-0.00016	-9e-05	-7e-05	4
16212	-4e-05	-4e-05	-0.0001	-0.00016	-0.00017	-0.00016	-9e-05	-7e-05	4
16213	-4e-05	-4e-05	-0.0001	-0.00016	-0.00017	-0.00016	-9e-05	-7e-05	4
16214	-4e-05	-4e-05	-0.0001	-0.00016	-0.00017	-0.00016	-9e-05	-7e-05	4
16215	-4e-05	-4e-05	-0.0001	-0.00016	-0.00017	-0.00016	-9e-05	-7e-05	4
16216	-4e-05	-4e-05	-0.0001	-0.00016	-0.00017	-0.00016	-9e-05	-7e-05	4
16217	-4e-05	-4e-05	-0.0001	-0.00016	-0.00017	-0.00016	-9e-05	-7e-05	4
16218	-4e-05	-4e-05	-0.0001	-0.00016	-0.00017	-0.00016	-9e-05	-7e-05	4
16219	-4e-05	-4e-05	-0.0001	-0.00016	-0.00017	-0.00016	-9e-05	-7e-05	4
16220	-4e-05	-4e-05	-0.0001	-0.00016	-0.00017	-0.00016	-9e-05	-7e-05	4
16221	-4e-05	-4e-05	-0.0001	-0.00016	-0.00017	-0.00016	-9e-05	-7e-05	4
16222	-4e-05	-4e-05	-0.0001	-0.00016	-0.00017	-0.00016	-9e-05	-7e-05	4
16223	-4e-05	-4e-05	-0.0001	-0.00016	-0.00017	-0.00016	-9e-05	-7e-05	4
16224	-4e-05	-4e-05	-0.0001	-0.00016	-0.00017	-0.00016	-9e-05	-7e-05	4
16225	-4e-05	-4e-05	-0.0001	-0.00016	-0.00017	-0.00016	-9e-05	-7e-05	4
16226	-4e-05	-4e-05	-0.0001	-0.00016	-0.00017	-0.00016	-9e-05	-7e-05	4
16227	-4e-05	-4e-05	-0.0001	-0.00016	-0.00017	-0.00016	-9e-05	-7e-05	4
16228	-4e-05	-4e-05	-0.0001	-0.00016	-0.00017	-0.00016	-9e-05	-7e-05	4
16229	-4e-05	-4e-05	-0.0001	-0.00016	-0.00017	-0.00016	-9e-05	-7e-05	4
16230	-4e-05	-4e-05	-0.0001	-0.00016	-0.00017	-0.00016	-9e-05	-7e-05	4
16231	-4e-05	-4e-05	-0.0001	-0.00016	-0.00017	-0.00016	-9e-05	-7e-05	4
16232	-4e-05	-4e-05	-0.0001	-0.00016	-0.00017	-0.00016	-9e-05	-7e-05	4
16233	-4e-05	-4e-05	-0.0001	-0.00016	-0.00017	-0.00016	-9e-05	-7e-05	4
16234	-4e-05	-4e-05	-0.0001	-0.00016	-0.00017	-0.00016	-9e-05	-7e-05	4
16235	-4e-05	-4e-05	-0.0001	-0.00016	-0.00017	-0.00016	-9e-05	-7e-05	4
16236	-4e-05	-4e-05	-0.0001	-0.00016	-0.00017	-0.00016	-9e-05	-7e-05	4
16239	1e-05	-0.0001	-0.00011	-5e-05	-1e-05	-9e-05	1e-05	4e-05	4
16240	1e-05	-0.0001	-0.00011	-5e-05	-1e-05	-9e-05	1e-05	4e-05	4
16241	1e-05	-0.0001	-0.00011	-5e-05	-1e-05	-9e-05	1e-05	4e-05	4
16242	1e-05	-0.0001	-0.00011	-5e-05	-1e-05	-9e-05	1e-05	4e-05	4
16243	1e-05	-0.0001	-0.00011	-5e-05	-1e-05	-9e-05	1e-05	4e-05	4
16244	1e-05	-0.0001	-0.00011	-5e-05	-1e-05	-9e-05	1e-05	4e-05	4
16245	5e-05	4e-05	-7e-05	-0.00017	-0.00019	0.00013	9e-05	-3e-05	4
16246	0	-8e-05	-0.0001	-7e-05	-0.00044	-0.00011	-1e-05	-3e-05	4
16247	0	-8e-05	-0.0001	-7e-05	-0.00044	-0.00011	-1e-05	-3e-05	4
16248	0	-8e-05	-0.0001	-7e-05	-0.00044	-0.00011	-1e-05	-3e-05	4
16249	0	-8e-05	-0.0001	-7e-05	-0.00044	-0.00011	-1e-05	-3e-05	4
16250	0	-8e-05	-0.0001	-7e-05	-0.00044	-0.00011	-1e-05	-3e-05	4
16251	0	-8e-05	-0.0001	-7e-05	-0.00044	-0.00011	-1e-05	-3e-05	4
16252	0	-8e-05	-0.0001	-7e-05	-0.00044	-0.00011	-1e-05	-3e-05	4
16253	0	-8e-05	-0.0001	-7e-05	-0.00044	-0.00011	-1e-05	-3e-05	4
16254	0	-8e-05	-0.0001	-7e-05	-0.00044	-0.00011	-1e-05	-3e-05	4
16255	0	-8e-05	-0.0001	-7e-05	-0.00044	-0.00011	-1e-05	-3e-05	4
16256	0	-8e-05	-0.0001	-7e-05	-0.00044	-0.00011	-1e-05	-3e-05	4
16257	0	-8e-05	-0.0001	-7e-05	-0.00044	-0.00011	-1e-05	-3e-05	4
16258	0	-8e-05	-0.0001	-7e-05	-0.00044	-0.00011	-1e-05	-3e-05	4
16259	0	-8e-05	-0.0001	-7e-05	-0.00044	-0.00011	-1e-05	-3e-05	4
16260	0	-8e-05	-0.0001	-7e-05	-0.00044	-0.00011	-1e-05	-3e-05	4
16261	0	-8e-05	-0.0001	-7e-05	-0.00044	-0.00011	-1e-05	-3e-05	4
16262	0	-8e-05	-0.0001	-7e-05	-0.00044	-0.00011	-1e-05	-3e-05	4
16263	0	-8e-05	-0.0001	-7e-05	-0.00044	-0.00011	-1e-05	-3e-05	4
16264	0	-8e-05	-0.0001	-7e-05	-0.00044	-0.00011	-1e-05	-3e-05	4
16265	0	-8e-05	-0.0001	-7e-05	-0.00044	-0.00011	-1e-05	-3e-05	4
16266	0	-8e-05	-0.0001	-7e-05	-0.00044	-0.00011	-1e-05	-3e-05	4
16267	0	-8e-05	-0.0001	-7e-05	-0.00044	-0.00011	-1e-05	-3e-05	4
16268	0.00012	0.00021	0.00028	0.00032	0.00047	0.0002	0.00016	0.00014	4
16269	-0.0001	-2e-05	6e-05	-0.00047	-0.00063	-0.00019	-0.00021	-0.00011	4
16270	-0.0001	-2e-05	6e-05	-0.00047	-0.00063	-0.00019	-0.00021	-0.00011	4
16271	-0.0001	-2e-05	6e-05	-0.00047	-0.00063	-0.00019	-0.00021	-0.00011	4
16272	-0.0001	-2e-05	6e-05	-0.00047	-0.00063	-0.00019	-0.00021	-0.00011	4
16274	-0.0001	-2e-05	6e-05	-0.00047	-0.00063	-0.00019	-0.00021	-0.00011	4
16275	-0.0001	-2e-05	6e-05	-0.00047	-0.00063	-0.00019	-0.00021	-0.00011	4
16276	-0.0001	-2e-05	6e-05	-0.00047	-0.00063	-0.00019	-0.00021	-0.00011	4
16277	-0.0001	-2e-05	6e-05	-0.00047	-0.00063	-0.00019	-0.00021	-0.00011	4
16278	-0.0001	-2e-05	6e-05	-0.00047	-0.00063	-0.00019	-0.00021	-0.00011	4
16279	-0.0001	-2e-05	6e-05	-0.00047	-0.00063	-0.00019	-0.00021	-0.00011	4
16280	-0.0001	-2e-05	6e-05	-0.00047	-0.00063	-0.00019	-0.00021	-0.00011	4
16281	-0.0001	-2e-05	6e-05	-0.00047	-0.00063	-0.00019	-0.00021	-0.00011	4
16282	-0.0001	-2e-05	6e-05	-0.00047	-0.00063	-0.00019	-0.00021	-0.00011	4
16283	-0.0001	-2e-05	6e-05	-0.00047	-0.00063	-0.00019	-0.00021	-0.00011	4
16285	-0.0001	-2e-05	6e-05	-0.00047	-0.00063	-0.00019	-0.00021	-0.00011	4
16286	-0.0001	-2e-05	6e-05	-0.00047	-0.00063	-0.00019	-0.00021	-0.00011	4
16288	-0.0001	-2e-05	6e-05	-0.00047	-0.00063	-0.00019	-0.00021	-0.00011	4
16289	-0.0001	-2e-05	6e-05	-0.00047	-0.00063	-0.00019	-0.00021	-0.00011	4
16290	-0.0001	-2e-05	6e-05	-0.00047	-0.00063	-0.00019	-0.00021	-0.00011	4
16291	-0.0001	-2e-05	6e-05	-0.00047	-0.00063	-0.00019	-0.00021	-0.00011	4
16292	-0.0001	-2e-05	6e-05	-0.00047	-0.00063	-0.00019	-0.00021	-0.00011	4
16293	-0.0001	-2e-05	6e-05	-0.00047	-0.00063	-0.00019	-0.00021	-0.00011	4
16294	-0.0001	-2e-05	6e-05	-0.00047	-0.00063	-0.00019	-0.00021	-0.00011	4
16295	-0.0001	-2e-05	6e-05	-0.00047	-0.00063	-0.00019	-0.00021	-0.00011	4
16296	-0.0001	-2e-05	6e-05	-0.00047	-0.00063	-0.00019	-0.00021	-0.00011	4
16297	-0.0001	-2e-05	6e-05	-0.00047	-0.00063	-0.00019	-0.00021	-0.00011	4
16298	-0.0001	-2e-05	6e-05	-0.00047	-0.00063	-0.00019	-0.00021	-0.00011	4
16299	-0.00015	-0.00023	-0.00045	-0.00041	-0.00072	-0.00053	-0.00019	-0.00015	4
16300	7e-05	0.00018	0.00035	0.00072	0.00075	9e-05	4e-05	3e-05	4
16301	-8e-05	-7e-05	-3e-05	8e-05	0.00021	-2e-05	-3e-05	-2e-05	4
16302	-8e-05	-7e-05	-3e-05	8e-05	0.00021	-2e-05	-3e-05	-2e-05	4
16303	-8e-05	-7e-05	-3e-05	8e-05	0.00021	-2e-05	-3e-05	-2e-05	4
16304	-8e-05	-7e-05	-3e-05	8e-05	0.00021	-2e-05	-3e-05	-2e-05	4
16305	-8e-05	-7e-05	-3e-05	8e-05	0.00021	-2e-05	-3e-05	-2e-05	4
16306	-8e-05	-7e-05	-3e-05	8e-05	0.00021	-2e-05	-3e-05	-2e-05	4
16307	-8e-05	-7e-05	-3e-05	8e-05	0.00021	-2e-05	-3e-05	-2e-05	4
16308	-8e-05	-7e-05	-3e-05	8e-05	0.00021	-2e-05	-3e-05	-2e-05	4
16309	-8e-05	-7e-05	-3e-05	8e-05	0.00021	-2e-05	-3e-05	-2e-05	4
16310	-8e-05	-7e-05	-3e-05	8e-05	0.00021	-2e-05	-3e-05	-2e-05	4
16311	-8e-05	-7e-05	-3e-05	8e-05	0.00021	-2e-05	-3e-05	-2e-05	4
16312	-8e-05	-7e-05	-3e-05	8e-05	0.00021	-2e-05	-3e-05	-2e-05	4
16313	-8e-05	-7e-05	-3e-05	8e-05	0.00021	-2e-05	-3e-05	-2e-05	4
16314	-2e-05	1e-05	5e-05	0.00011	0.0001	0.00012	-1e-05	2e-05	4
16315	2e-05	6e-05	5e-05	0.00015	8e-05	-0.00017	-5e-05	-2e-05	4
16316	2e-05	6e-05	5e-05	0.00015	8e-05	-0.00017	-5e-05	-2e-05	4
16317	2e-05	6e-05	5e-05	0.00015	8e-05	-0.00017	-5e-05	-2e-05	4
16318	2e-05	6e-05	5e-05	0.00015	8e-05	-0.00017	-5e-05	-2e-05	4
16319	2e-05	6e-05	5e-05	0.00015	8e-05	-0.00017	-5e-05	-2e-05	4
16320	2e-05	6e-05	5e-05	0.00015	8e-05	-0.00017	-5e-05	-2e-05	4
16321	2e-05	6e-05	5e-05	0.00015	8e-05	-0.00017	-5e-05	-2e-05	4
16322	2e-05	6e-05	5e-05	0.00015	8e-05	-0.00017	-5e-05	-2e-05	4
16323	2e-05	6e-05	5e-05	0.00015	8e-05	-0.00017	-5e-05	-2e-05	4
16324	2e-05	6e-05	5e-05	0.00015	8e-05	-0.00017	-5e-05	-2e-05	4
16325	2e-05	6e-05	5e-05	0.00015	8e-05	-0.00017	-5e-05	-2e-05	4
16326	2e-05	6e-05	5e-05	0.00015	8e-05	-0.00017	-5e-05	-2e-05	4
16327	2e-05	6e-05	5e-05	0.00015	8e-05	-0.00017	-5e-05	-2e-05	4
16328	-0.00017	-0.0003	-0.00034	-0.00049	-0.0007	-0.0004	-0.00025	-0.00015	4
16329	-1e-05	-1e-05	0.00011	0.00024	0.00023	0.0001	1e-05	1e-05	4
16331	-1e-05	-1e-05	0.00011	0.00024	0.00023	0.0001	1e-05	1e-05	4
16332	-1e-05	-1e-05	0.00011	0.00024	0.00023	0.0001	1e-05	1e-05	4
16333	-1e-05	-1e-05	0.00011	0.00024	0.00023	0.0001	1e-05	1e-05	4
16334	-1e-05	-1e-05	0.00011	0.00024	0.00023	0.0001	1e-05	1e-05	4
16335	-1e-05	-1e-05	0.00011	0.00024	0.00023	0.0001	1e-05	1e-05	4
16337	-1e-05	-1e-05	0.00011	0.00024	0.00023	0.0001	1e-05	1e-05	4
16339	-1e-05	-1e-05	0.00011	0.00024	0.00023	0.0001	1e-05	1e-05	4
16340	-1e-05	-1e-05	0.00011	0.00024	0.00023	0.0001	1e-05	1e-05	4
16341	-1e-05	-1e-05	0.00011	0.00024	0.00023	0.0001	1e-05	1e-05	4
16342	-1e-05	-1e-05	0.00011	0.00024	0.00023	0.0001	1e-05	1e-05	4
16343	-1e-05	-1e-05	0.00011	0.00024	0.00023	0.0001	1e-05	1e-05	4
16344	-1e-05	-1e-05	0.00011	0.00024	0.00023	0.0001	1e-05	1e-05	4
16345	-1e-05	-1e-05	0.00011	0.00024	0.00023	0.0001	1e-05	1e-05	4
16346	-1e-05	-1e-05	0.00011	0.00024	0.00023	0.0001	1e-05	1e-05	4
16347	-1e-05	-1e-05	0.00011	0.00024	0.00023	0.0001	1e-05	1e-05	4
16348	-1e-05	-1e-05	0.00011	0.00024	0.00023	0.0001	1e-05	1e-05	4
16349	-1e-05	-1e-05	0.00011	0.00024	0.00023	0.0001	1e-05	1e-05	4
16350	-1e-05	-1e-05	0.00011	0.00024	0.00023	0.0001	1e-05	1e-05	4
16351	-4e-05	-0.00012	-0.0001	-5e-05	0.00012	-0.00013	2e-05	7e-05	4
16352	5e-05	5e-05	4e-05	0.00015	-3e-05	-6e-05	-6e-05	0	4
16353	5e-05	5e-05	4e-05	0.00015	-3e-05	-6e-05	-6e-05	0	4
16354	5e-05	5e-05	4e-05	0.00015	-3e-05	-6e-05	-6e-05	0	4
16355	5e-05	5e-05	4e-05	0.00015	-3e-05	-6e-05	-6e-05	0	4
16356	5e-05	5e-05	4e-05	0.00015	-3e-05	-6e-05	-6e-05	0	4
16357	5e-05	5e-05	4e-05	0.00015	-3e-05	-6e-05	-6e-05	0	4
16358	5e-05	5e-05	4e-05	0.00015	-3e-05	-6e-05	-6e-05	0	4
16359	5e-05	5e-05	4e-05	0.00015	-3e-05	-6e-05	-6e-05	0	4
16360	5e-05	5e-05	4e-05	0.00015	-3e-05	-6e-05	-6e-05	0	4
16361	5e-05	5e-05	4e-05	0.00015	-3e-05	-6e-05	-6e-05	0	4
16362	5e-05	5e-05	4e-05	0.00015	-3e-05	-6e-05	-6e-05	0	4
16363	5e-05	5e-05	4e-05	0.00015	-3e-05	-6e-05	-6e-05	0	4
16364	5e-05	5e-05	4e-05	0.00015	-3e-05	-6e-05	-6e-05	0	4
16365	5e-05	5e-05	4e-05	0.00015	-3e-05	-6e-05	-6e-05	0	4
16366	-3e-05	-5e-05	-0.00011	-0.00022	-7e-05	0	0	-3e-05	4
16367	-7e-05	-9e-05	-0.0001	-0.00028	-4e-05	0.00011	0.00011	0	4
16368	-7e-05	-9e-05	-0.0001	-0.00028	-4e-05	0.00011	0.00011	0	4
16369	-7e-05	-9e-05	-0.0001	-0.00028	-4e-05	0.00011	0.00011	0	4
16370	-7e-05	-9e-05	-0.0001	-0.00028	-4e-05	0.00011	0.00011	0	4
16371	-7e-05	-9e-05	-0.0001	-0.00028	-4e-05	0.00011	0.00011	0	4
16372	-7e-05	-9e-05	-0.0001	-0.00028	-4e-05	0.00011	0.00011	0	4
16373	-7e-05	-9e-05	-0.0001	-0.00028	-4e-05	0.00011	0.00011	0	4
16374	-7e-05	-9e-05	-0.0001	-0.00028	-4e-05	0.00011	0.00011	0	4
16375	-7e-05	-9e-05	-0.0001	-0.00028	-4e-05	0.00011	0.00011	0	4
16376	-7e-05	-9e-05	-0.0001	-0.00028	-4e-05	0.00011	0.00011	0	4
16377	-7e-05	-9e-05	-0.0001	-0.00028	-4e-05	0.00011	0.00011	0	4
16379	-7e-05	-9e-05	-0.0001	-0.00028	-4e-05	0.00011	0.00011	0	4
16380	-7e-05	-9e-05	-0.0001	-0.00028	-4e-05	0.00011	0.00011	0	4
16381	-7e-05	-9e-05	-0.0001	-0.00028	-4e-05	0.00011	0.00011	0	4
16382	-7e-05	-9e-05	-0.0001	-0.00028	-4e-05	0.00011	0.00011	0	4
16383	-7e-05	-9e-05	-0.0001	-0.00028	-4e-05	0.00011	0.00011	0	4
16384	-7e-05	-9e-05	-0.0001	-0.00028	-4e-05	0.00011	0.00011	0	4
16385	-7e-05	-9e-05	-0.0001	-0.00028	-4e-05	0.00011	0.00011	0	4
16387	-7e-05	-9e-05	-0.0001	-0.00028	-4e-05	0.00011	0.00011	0	4
16390	-2e-05	1e-05	-5e-05	-0.00016	-9e-05	-6e-05	-8e-05	-9e-05	4
16391	-2e-05	1e-05	-5e-05	-0.00016	-9e-05	-6e-05	-8e-05	-9e-05	4
16392	-2e-05	1e-05	-5e-05	-0.00016	-9e-05	-6e-05	-8e-05	-9e-05	4
16393	-2e-05	1e-05	-5e-05	-0.00016	-9e-05	-6e-05	-8e-05	-9e-05	4
16394	-2e-05	1e-05	-5e-05	-0.00016	-9e-05	-6e-05	-8e-05	-9e-05	4
16395	-2e-05	1e-05	-5e-05	-0.00016	-9e-05	-6e-05	-8e-05	-9e-05	4
16396	-2e-05	1e-05	-5e-05	-0.00016	-9e-05	-6e-05	-8e-05	-9e-05	4
16397	-2e-05	1e-05	-5e-05	-0.00016	-9e-05	-6e-05	-8e-05	-9e-05	4
16398	-2e-05	1e-05	-5e-05	-0.00016	-9e-05	-6e-05	-8e-05	-9e-05	4
16399	-2e-05	1e-05	-5e-05	-0.00016	-9e-05	-6e-05	-8e-05	-9e-05	4
16400	-2e-05	1e-05	-5e-05	-0.00016	-9e-05	-6e-05	-8e-05	-9e-05	4
16401	-2e-05	1e-05	-5e-05	-0.00016	-9e-05	-6e-05	-8e-05	-9e-05	4
16402	-2e-05	1e-05	-5e-05	-0.00016	-9e-05	-6e-05	-8e-05	-9e-05	4
16403	-2e-05	1e-05	-5e-05	-0.00016	-9e-05	-6e-05	-8e-05	-9e-05	4
16404	-2e-05	1e-05	-5e-05	-0.00016	-9e-05	-6e-05	-8e-05	-9e-05	4
16405	-2e-05	1e-05	-5e-05	-0.00016	-9e-05	-6e-05	-8e-05	-9e-05	4
16406	-2e-05	1e-05	-5e-05	-0.00016	-9e-05	-6e-05	-8e-05	-9e-05	4
16407	-2e-05	1e-05	-5e-05	-0.00016	-9e-05	-6e-05	-8e-05	-9e-05	4
16408	-2e-05	1e-05	-5e-05	-0.00016	-9e-05	-6e-05	-8e-05	-9e-05	4
16409	-2e-05	1e-05	-5e-05	-0.00016	-9e-05	-6e-05	-8e-05	-9e-05	4
16410	-2e-05	1e-05	-5e-05	-0.00016	-9e-05	-6e-05	-8e-05	-9e-05	4
16411	-2e-05	1e-05	-5e-05	-0.00016	-9e-05	-6e-05	-8e-05	-9e-05	4
16412	-2e-05	1e-05	-5e-05	-0.00016	-9e-05	-6e-05	-8e-05	-9e-05	4
16413	-2e-05	1e-05	-5e-05	-0.00016	-9e-05	-6e-05	-8e-05	-9e-05	4
16414	-2e-05	1e-05	-5e-05	-0.00016	-9e-05	-6e-05	-8e-05	-9e-05	4
16415	-2e-05	1e-05	-5e-05	-0.00016	-9e-05	-6e-05	-8e-05	-9e-05	4
16416	-2e-05	1e-05	-5e-05	-0.00016	-9e-05	-6e-05	-8e-05	-9e-05	4
16417	-2e-05	1e-05	-5e-05	-0.00016	-9e-05	-6e-05	-8e-05	-9e-05	4
16418	-2e-05	1e-05	-5e-05	-0.00016	-9e-05	-6e-05	-8e-05	-9e-05	4
16419	3e-05	8e-05	0.00017	0.00036	0.00031	0.00013	7e-05	2e-05	4
16420	-4e-05	-9e-05	-0.00017	-0.00053	-0.00086	5e-05	5e-05	1e-05	4
16421	-4e-05	-9e-05	-0.00017	-0.00053	-0.00086	5e-05	5e-05	1e-05	4
16422	-4e-05	-9e-05	-0.00017	-0.00053	-0.00086	5e-05	5e-05	1e-05	4
16423	-4e-05	-9e-05	-0.00017	-0.00053	-0.00086	5e-05	5e-05	1e-05	4
16424	-4e-05	-9e-05	-0.00017	-0.00053	-0.00086	5e-05	5e-05	1e-05	4
16425	-4e-05	-9e-05	-0.00017	-0.00053	-0.00086	5e-05	5e-05	1e-05	4
16426	-3e-05	-4e-05	-2e-05	-0.0001	-0.00042	-0.00018	-5e-05	0	4
16427	-2e-05	-7e-05	-0.00011	0.00024	0.00055	-3e-05	0	0	4
16428	-2e-05	-7e-05	-0.00011	0.00024	0.00055	-3e-05	0	0	4
16429	-2e-05	-7e-05	-0.00011	0.00024	0.00055	-3e-05	0	0	4
16430	-2e-05	-7e-05	-0.00011	0.00024	0.00055	-3e-05	0	0	4
16431	-2e-05	-7e-05	-0.00011	0.00024	0.00055	-3e-05	0	0	4
16432	-2e-05	-7e-05	-0.00011	0.00024	0.00055	-3e-05	0	0	4
16433	-2e-05	-7e-05	-0.00011	0.00024	0.00055	-3e-05	0	0	4
16434	-2e-05	-7e-05	-0.00011	0.00024	0.00055	-3e-05	0	0	4
16435	-2e-05	-7e-05	-0.00011	0.00024	0.00055	-3e-05	0	0	4
16437	-2e-05	-7e-05	-0.00011	0.00024	0.00055	-3e-05	0	0	4
16439	-2e-05	-7e-05	-0.00011	0.00024	0.00055	-3e-05	0	0	4
16440	-2e-05	-7e-05	-0.00011	0.00024	0.00055	-3e-05	0	0	4
16441	-2e-05	-7e-05	-0.00011	0.00024	0.00055	-3e-05	0	0	4
16442	-2e-05	-7e-05	-0.00011	0.00024	0.00055	-3e-05	0	0	4
16443	-2e-05	-7e-05	-0.00011	0.00024	0.00055	-3e-05	0	0	4
16444	-2e-05	-7e-05	-0.00011	0.00024	0.00055	-3e-05	0	0	4
16445	-2e-05	-7e-05	-0.00011	0.00024	0.00055	-3e-05	0	0	4
16446	-2e-05	-7e-05	-0.00011	0.00024	0.00055	-3e-05	0	0	4
16447	-2e-05	-7e-05	-0.00011	0.00024	0.00055	-3e-05	0	0	4
16448	-2e-05	-7e-05	-0.00011	0.00024	0.00055	-3e-05	0	0	4
16449	4e-05	0.0001	0.00022	0.0005	0.00057	2e-05	-9e-05	-7e-05	4
16450	3e-05	7e-05	0.0001	-2e-05	-0.00018	5e-05	5e-05	1e-05	4
16451	3e-05	7e-05	0.0001	-2e-05	-0.00018	5e-05	5e-05	1e-05	4
16452	3e-05	7e-05	0.0001	-2e-05	-0.00018	5e-05	5e-05	1e-05	4
16453	3e-05	7e-05	0.0001	-2e-05	-0.00018	5e-05	5e-05	1e-05	4
16454	3e-05	7e-05	0.0001	-2e-05	-0.00018	5e-05	5e-05	1e-05	4
16455	3e-05	7e-05	0.0001	-2e-05	-0.00018	5e-05	5e-05	1e-05	4
16456	3e-05	7e-05	0.0001	-2e-05	-0.00018	5e-05	5e-05	1e-05	4
16457	3e-05	7e-05	0.0001	-2e-05	-0.00018	5e-05	5e-05	1e-05	4
16458	3e-05	7e-05	0.0001	-2e-05	-0.00018	5e-05	5e-05	1e-05	4
16459	3e-05	7e-05	0.0001	-2e-05	-0.00018	5e-05	5e-05	1e-05	4
16460	3e-05	7e-05	0.0001	-2e-05	-0.00018	5e-05	5e-05	1e-05	4
16461	3e-05	7e-05	0.0001	-2e-05	-0.00018	5e-05	5e-05	1e-05	4
16462	3e-05	7e-05	0.0001	-2e-05	-0.00018	5e-05	5e-05	1e-05	4
16463	3e-05	7e-05	0.0001	-2e-05	-0.00018	5e-05	5e-05	1e-05	4
16464	3e-05	7e-05	0.0001	-2e-05	-0.00018	5e-05	5e-05	1e-05	4
16465	3e-05	7e-05	0.0001	-2e-05	-0.00018	5e-05	5e-05	1e-05	4
16466	3e-05	7e-05	0.0001	-2e-05	-0.00018	5e-05	5e-05	1e-05	4
16467	3e-05	7e-05	0.0001	-2e-05	-0.00018	5e-05	5e-05	1e-05	4
16468	3e-05	7e-05	0.0001	-2e-05	-0.00018	5e-05	5e-05	1e-05	4
16469	3e-05	7e-05	0.0001	-2e-05	-0.00018	5e-05	5e-05	1e-05	4
16470	3e-05	7e-05	0.0001	-2e-05	-0.00018	5e-05	5e-05	1e-05	4
16471	3e-05	7e-05	0.0001	-2e-05	-0.00018	5e-05	5e-05	1e-05	4
16472	3e-05	8e-05	5e-05	0.00031	0.00058	0.00032	5e-05	1e-05	4
16473	3e-05	8e-05	5e-05	0.00031	0.00058	0.00032	5e-05	1e-05	4
16474	3e-05	8e-05	5e-05	0.00031	0.00058	0.00032	5e-05	1e-05	4
16475	3e-05	8e-05	5e-05	0.00031	0.00058	0.00032	5e-05	1e-05	4
16476	3e-05	8e-05	5e-05	0.00031	0.00058	0.00032	5e-05	1e-05	4
16477	3e-05	8e-05	5e-05	0.00031	0.00058	0.00032	5e-05	1e-05	4
16478	3e-05	8e-05	5e-05	0.00031	0.00058	0.00032	5e-05	1e-05	4
16479	3e-05	8e-05	5e-05	0.00031	0.00058	0.00032	5e-05	1e-05	4
16480	3e-05	8e-05	5e-05	0.00031	0.00058	0.00032	5e-05	1e-05	4
16481	3e-05	8e-05	5e-05	0.00031	0.00058	0.00032	5e-05	1e-05	4
16482	3e-05	8e-05	5e-05	0.00031	0.00058	0.00032	5e-05	1e-05	4
16483	3e-05	8e-05	5e-05	0.00031	0.00058	0.00032	5e-05	1e-05	4
16484	3e-05	8e-05	5e-05	0.00031	0.00058	0.00032	5e-05	1e-05	4
16485	-4e-05	-2e-05	4e-05	6e-05	0.0001	-0.00013	-2e-05	6e-05	4
16487	-9e-05	-0.00016	-0.00015	-0.00019	-8e-05	8e-05	-6e-05	-4e-05	4
16489	-9e-05	-0.00016	-0.00015	-0.00019	-8e-05	8e-05	-6e-05	-4e-05	4
16490	-9e-05	-0.00016	-0.00015	-0.00019	-8e-05	8e-05	-6e-05	-4e-05	4
16491	-9e-05	-0.00016	-0.00015	-0.00019	-8e-05	8e-05	-6e-05	-4e-05	4
16492	-9e-05	-0.00016	-0.00015	-0.00019	-8e-05	8e-05	-6e-05	-4e-05	4
16493	-9e-05	-0.00016	-0.00015	-0.00019	-8e-05	8e-05	-6e-05	-4e-05	4
16494	-9e-05	-0.00016	-0.00015	-0.00019	-8e-05	8e-05	-6e-05	-4e-05	4
16495	-9e-05	-0.00016	-0.00015	-0.00019	-8e-05	8e-05	-6e-05	-4e-05	4
16496	-9e-05	-0.00016	-0.00015	-0.00019	-8e-05	8e-05	-6e-05	-4e-05	4
16497	-9e-05	-0.00016	-0.00015	-0.00019	-8e-05	8e-05	-6e-05	-4e-05	4
16498	-9e-05	-0.00016	-0.00015	-0.00019	-8e-05	8e-05	-6e-05	-4e-05	4
16499	-9e-05	-0.00016	-0.00015	-0.00019	-8e-05	8e-05	-6e-05	-4e-05	4
16500	-9e-05	-0.00016	-0.00015	-0.00019	-8e-05	8e-05	-6e-05	-4e-05	4
16501	-9e-05	-0.00016	-0.00015	-0.00019	-8e-05	8e-05	-6e-05	-4e-05	4
16502	-9e-05	-0.00016	-0.00015	-0.00019	-8e-05	8e-05	-6e-05	-4e-05	4
16503	-9e-05	-0.00016	-0.00015	-0.00019	-8e-05	8e-05	-6e-05	-4e-05	4
16504	-9e-05	-0.00016	-0.00015	-0.00019	-8e-05	8e-05	-6e-05	-4e-05	4
16505	-9e-05	-0.00016	-0.00015	-0.00019	-8e-05	8e-05	-6e-05	-4e-05	4
16506	-9e-05	-0.00016	-0.00015	-0.00019	-8e-05	8e-05	-6e-05	-4e-05	4
16507	-9e-05	-0.00016	-0.00015	-0.00019	-8e-05	8e-05	-6e-05	-4e-05	4
16508	-9e-05	-0.00016	-0.00015	-0.00019	-8e-05	8e-05	-6e-05	-4e-05	4
16509	-9e-05	-0.00016	-0.00015	-0.00019	-8e-05	8e-05	-6e-05	-4e-05	4
16510	-9e-05	-0.00016	-0.00015	-0.00019	-8e-05	8e-05	-6e-05	-4e-05	4
16511	-9e-05	-0.00016	-0.00015	-0.00019	-8e-05	8e-05	-6e-05	-4e-05	4
16512	-9e-05	-0.00016	-0.00015	-0.00019	-8e-05	8e-05	-6e-05	-4e-05	4
16513	-9e-05	-0.00016	-0.00015	-0.00019	-8e-05	8e-05	-6e-05	-4e-05	4
16514	-9e-05	-0.00016	-0.00015	-0.00019	-8e-05	8e-05	-6e-05	-4e-05	4
16515	-9e-05	-0.00016	-0.00015	-0.00019	-8e-05	8e-05	-6e-05	-4e-05	4
16516	0	-8e-05	-2e-05	7e-05	0.00044	0.00048	0.00018	9e-05	4
16517	-3e-05	-2e-05	-6e-05	2e-05	-6e-05	-0.00042	-0.00016	-7e-05	4
16518	-3e-05	-2e-05	-6e-05	2e-05	-6e-05	-0.00042	-0.00016	-7e-05	4
16519	-3e-05	-2e-05	-6e-05	2e-05	-6e-05	-0.00042	-0.00016	-7e-05	4
16520	-3e-05	-2e-05	-6e-05	2e-05	-6e-05	-0.00042	-0.00016	-7e-05	4
16521	-3e-05	-2e-05	-6e-05	2e-05	-6e-05	-0.00042	-0.00016	-7e-05	4
16522	-3e-05	-2e-05	-6e-05	2e-05	-6e-05	-0.00042	-0.00016	-7e-05	4
16523	-3e-05	-2e-05	-6e-05	2e-05	-6e-05	-0.00042	-0.00016	-7e-05	4
16524	-3e-05	-2e-05	-6e-05	2e-05	-6e-05	-0.00042	-0.00016	-7e-05	4
16525	-3e-05	-2e-05	-6e-05	2e-05	-6e-05	-0.00042	-0.00016	-7e-05	4
16526	-3e-05	-2e-05	-6e-05	2e-05	-6e-05	-0.00042	-0.00016	-7e-05	4
16527	-3e-05	-2e-05	-6e-05	2e-05	-6e-05	-0.00042	-0.00016	-7e-05	4
16528	-3e-05	-2e-05	-6e-05	2e-05	-6e-05	-0.00042	-0.00016	-7e-05	4
16529	-3e-05	-2e-05	-6e-05	2e-05	-6e-05	-0.00042	-0.00016	-7e-05	4
16530	-3e-05	-2e-05	-6e-05	2e-05	-6e-05	-0.00042	-0.00016	-7e-05	4
16531	-3e-05	-2e-05	-6e-05	2e-05	-6e-05	-0.00042	-0.00016	-7e-05	4
16532	-3e-05	-2e-05	-6e-05	2e-05	-6e-05	-0.00042	-0.00016	-7e-05	4
16533	-3e-05	-2e-05	-6e-05	2e-05	-6e-05	-0.00042	-0.00016	-7e-05	4
16534	-3e-05	-2e-05	-6e-05	2e-05	-6e-05	-0.00042	-0.00016	-7e-05	4
16535	-3e-05	-2e-05	-6e-05	2e-05	-6e-05	-0.00042	-0.00016	-7e-05	4
16536	-3e-05	-2e-05	-6e-05	2e-05	-6e-05	-0.00042	-0.00016	-7e-05	4
16540	1e-05	2e-05	0.00011	0.00026	0.00023	0.00011	0.00012	9e-05	4
16541	1e-05	2e-05	0.00011	0.00026	0.00023	0.00011	0.00012	9e-05	4
16542	1e-05	2e-05	0.00011	0.00026	0.00023	0.00011	0.00012	9e-05	4
16543	1e-05	2e-05	0.00011	0.00026	0.00023	0.00011	0.00012	9e-05	4
16544	1e-05	2e-05	0.00011	0.00026	0.00023	0.00011	0.00012	9e-05	4
16545	4e-05	8e-05	0	8e-05	0.00049	0.00033	7e-05	2e-05	4
16546	7e-05	0.00012	3e-05	0.00025	-7e-05	6e-05	5e-05	7e-05	4
16547	7e-05	0.00012	3e-05	0.00025	-7e-05	6e-05	5e-05	7e-05	4
16548	7e-05	0.00012	3e-05	0.00025	-7e-05	6e-05	5e-05	7e-05	4
16549	7e-05	0.00012	3e-05	0.00025	-7e-05	6e-05	5e-05	7e-05	4
16550	7e-05	0.00012	3e-05	0.00025	-7e-05	6e-05	5e-05	7e-05	4
16551	7e-05	0.00012	3e-05	0.00025	-7e-05	6e-05	5e-05	7e-05	4
16552	7e-05	0.00012	3e-05	0.00025	-7e-05	6e-05	5e-05	7e-05	4
16553	7e-05	0.00012	3e-05	0.00025	-7e-05	6e-05	5e-05	7e-05	4
16554	7e-05	0.00012	3e-05	0.00025	-7e-05	6e-05	5e-05	7e-05	4
16555	7e-05	0.00012	3e-05	0.00025	-7e-05	6e-05	5e-05	7e-05	4
16556	7e-05	0.00012	3e-05	0.00025	-7e-05	6e-05	5e-05	7e-05	4
16557	7e-05	0.00012	3e-05	0.00025	-7e-05	6e-05	5e-05	7e-05	4
16558	7e-05	0.00012	3e-05	0.00025	-7e-05	6e-05	5e-05	7e-05	4
16559	7e-05	0.00012	3e-05	0.00025	-7e-05	6e-05	5e-05	7e-05	4
16560	7e-05	0.00012	3e-05	0.00025	-7e-05	6e-05	5e-05	7e-05	4
16561	7e-05	0.00012	3e-05	0.00025	-7e-05	6e-05	5e-05	7e-05	4
16562	7e-05	0.00012	3e-05	0.00025	-7e-05	6e-05	5e-05	7e-05	4
16563	7e-05	0.00012	3e-05	0.00025	-7e-05	6e-05	5e-05	7e-05	4
16564	7e-05	0.00012	3e-05	0.00025	-7e-05	6e-05	5e-05	7e-05	4
16565	7e-05	0.00012	3e-05	0.00025	-7e-05	6e-05	5e-05	7e-05	4
16566	7e-05	0.00012	3e-05	0.00025	-7e-05	6e-05	5e-05	7e-05	4
16567	7e-05	0.00012	3e-05	0.00025	-7e-05	6e-05	5e-05	7e-05	4
16568	7e-05	0.00012	3e-05	0.00025	-7e-05	6e-05	5e-05	7e-05	4
16569	7e-05	0.00012	3e-05	0.00025	-7e-05	6e-05	5e-05	7e-05	4
16570	5e-05	0.00013	0.00017	0.0007	0.00101	0.00064	0.00022	9e-05	4
16571	5e-05	0.00013	0.00017	0.0007	0.00101	0.00064	0.00022	9e-05	4
16572	5e-05	0.00013	0.00017	0.0007	0.00101	0.00064	0.00022	9e-05	4
16573	5e-05	0.00013	0.00017	0.0007	0.00101	0.00064	0.00022	9e-05	4
16574	5e-05	0.00013	0.00017	0.0007	0.00101	0.00064	0.00022	9e-05	4
16575	0	4e-05	0.0001	0.00015	0.00024	8e-05	0	3e-05	4
16576	-8e-05	-0.00013	-0.00019	-1e-05	-0.00011	3e-05	-0.00011	-0.0001	4
16577	-8e-05	-0.00013	-0.00019	-1e-05	-0.00011	3e-05	-0.00011	-0.0001	4
16578	-8e-05	-0.00013	-0.00019	-1e-05	-0.00011	3e-05	-0.00011	-0.0001	4
16579	-8e-05	-0.00013	-0.00019	-1e-05	-0.00011	3e-05	-0.00011	-0.0001	4
16580	-8e-05	-0.00013	-0.00019	-1e-05	-0.00011	3e-05	-0.00011	-0.0001	4
16581	-8e-05	-0.00013	-0.00019	-1e-05	-0.00011	3e-05	-0.00011	-0.0001	4
16582	-8e-05	-0.00013	-0.00019	-1e-05	-0.00011	3e-05	-0.00011	-0.0001	4
16583	-8e-05	-0.00013	-0.00019	-1e-05	-0.00011	3e-05	-0.00011	-0.0001	4
16584	-8e-05	-0.00013	-0.00019	-1e-05	-0.00011	3e-05	-0.00011	-0.0001	4
16585	-8e-05	-0.00013	-0.00019	-1e-05	-0.00011	3e-05	-0.00011	-0.0001	4
16586	-8e-05	-0.00013	-0.00019	-1e-05	-0.00011	3e-05	-0.00011	-0.0001	4
16589	-8e-05	-0.00013	-0.00019	-1e-05	-0.00011	3e-05	-0.00011	-0.0001	4
16590	-8e-05	-0.00013	-0.00019	-1e-05	-0.00011	3e-05	-0.00011	-0.0001	4
16591	-2e-05	-1e-05	-4e-05	-0.00023	-0.00025	8e-05	-5e-05	-4e-05	4
16592	0	3e-05	0.00014	-8e-05	0	-1e-05	3e-05	0	4
16593	0	3e-05	0.00014	-8e-05	0	-1e-05	3e-05	0	4
16594	0	3e-05	0.00014	-8e-05	0	-1e-05	3e-05	0	4
16595	0	3e-05	0.00014	-8e-05	0	-1e-05	3e-05	0	4
16596	0	3e-05	0.00014	-8e-05	0	-1e-05	3e-05	0	4
16597	0	3e-05	0.00014	-8e-05	0	-1e-05	3e-05	0	4
16598	0	3e-05	0.00014	-8e-05	0	-1e-05	3e-05	0	4
16599	0	3e-05	0.00014	-8e-05	0	-1e-05	3e-05	0	4
16600	0	3e-05	0.00014	-8e-05	0	-1e-05	3e-05	0	4
16601	0	3e-05	0.00014	-8e-05	0	-1e-05	3e-05	0	4
16602	0	3e-05	0.00014	-8e-05	0	-1e-05	3e-05	0	4
16603	0	3e-05	0.00014	-8e-05	0	-1e-05	3e-05	0	4
16604	0	3e-05	0.00014	-8e-05	0	-1e-05	3e-05	0	4
16605	0	-2e-05	-0.00016	-0.00032	-0.00068	-0.00038	-0.00011	-6e-05	4
16606	0	-2e-05	-0.00016	-0.00032	-0.00068	-0.00038	-0.00011	-6e-05	4
16607	0	-2e-05	-0.00016	-0.00032	-0.00068	-0.00038	-0.00011	-6e-05	4
16608	0	-2e-05	-0.00016	-0.00032	-0.00068	-0.00038	-0.00011	-6e-05	4
16609	0	-2e-05	-0.00016	-0.00032	-0.00068	-0.00038	-0.00011	-6e-05	4
16610	0	-2e-05	-0.00016	-0.00032	-0.00068	-0.00038	-0.00011	-6e-05	4
16611	0	-2e-05	-0.00016	-0.00032	-0.00068	-0.00038	-0.00011	-6e-05	4
16612	0	-2e-05	-0.00016	-0.00032	-0.00068	-0.00038	-0.00011	-6e-05	4
16613	3e-05	-2e-05	-7e-05	-0.0001	-1e-05	-0.00018	-5e-05	-1e-05	4
16614	3e-05	-2e-05	-7e-05	-0.0001	-1e-05	-0.00018	-5e-05	-1e-05	4
16615	3e-05	-2e-05	-7e-05	-0.0001	-1e-05	-0.00018	-5e-05	-1e-05	4
16616	3e-05	-2e-05	-7e-05	-0.0001	-1e-05	-0.00018	-5e-05	-1e-05	4
16617	3e-05	-2e-05	-7e-05	-0.0001	-1e-05	-0.00018	-5e-05	-1e-05	4
16618	3e-05	-2e-05	-7e-05	-0.0001	-1e-05	-0.00018	-5e-05	-1e-05	4
16619	3e-05	-2e-05	-7e-05	-0.0001	-1e-05	-0.00018	-5e-05	-1e-05	4
16620	3e-05	-2e-05	-7e-05	-0.0001	-1e-05	-0.00018	-5e-05	-1e-05	4
16621	3e-05	-2e-05	-7e-05	-0.0001	-1e-05	-0.00018	-5e-05	-1e-05	4
16622	3e-05	-2e-05	-7e-05	-0.0001	-1e-05	-0.00018	-5e-05	-1e-05	4
16624	3e-05	-2e-05	-7e-05	-0.0001	-1e-05	-0.00018	-5e-05	-1e-05	4
16625	3e-05	-2e-05	-7e-05	-0.0001	-1e-05	-0.00018	-5e-05	-1e-05	4
16626	3e-05	-2e-05	-7e-05	-0.0001	-1e-05	-0.00018	-5e-05	-1e-05	4
16627	3e-05	-2e-05	-7e-05	-0.0001	-1e-05	-0.00018	-5e-05	-1e-05	4
16628	-2e-05	-5e-05	-0.0001	0	-0.00017	-0.00021	-5e-05	-3e-05	4
16629	6e-05	7e-05	6e-05	0.00025	0.00023	9e-05	7e-05	8e-05	4
16630	6e-05	7e-05	6e-05	0.00025	0.00023	9e-05	7e-05	8e-05	4
16631	6e-05	7e-05	6e-05	0.00025	0.00023	9e-05	7e-05	8e-05	4
16632	6e-05	7e-05	6e-05	0.00025	0.00023	9e-05	7e-05	8e-05	4
16633	6e-05	7e-05	6e-05	0.00025	0.00023	9e-05	7e-05	8e-05	4
16634	6e-05	7e-05	6e-05	0.00025	0.00023	9e-05	7e-05	8e-05	4
16635	6e-05	7e-05	6e-05	0.00025	0.00023	9e-05	7e-05	8e-05	4
16636	6e-05	7e-05	6e-05	0.00025	0.00023	9e-05	7e-05	8e-05	4
16639	6e-05	7e-05	6e-05	0.00025	0.00023	9e-05	7e-05	8e-05	4
16640	6e-05	7e-05	6e-05	0.00025	0.00023	9e-05	7e-05	8e-05	4
16641	6e-05	7e-05	6e-05	0.00025	0.00023	9e-05	7e-05	8e-05	4
16642	6e-05	7e-05	6e-05	0.00025	0.00023	9e-05	7e-05	8e-05	4
16643	6e-05	7e-05	6e-05	0.00025	0.00023	9e-05	7e-05	8e-05	4
16644	6e-05	7e-05	6e-05	0.00025	0.00023	9e-05	7e-05	8e-05	4
16645	6e-05	7e-05	6e-05	0.00025	0.00023	9e-05	7e-05	8e-05	4
16646	6e-05	7e-05	6e-05	0.00025	0.00023	9e-05	7e-05	8e-05	4
16647	6e-05	7e-05	6e-05	0.00025	0.00023	9e-05	7e-05	8e-05	4
16648	6e-05	7e-05	6e-05	0.00025	0.00023	9e-05	7e-05	8e-05	4
16649	6e-05	7e-05	6e-05	0.00025	0.00023	9e-05	7e-05	8e-05	4
16650	6e-05	7e-05	6e-05	0.00025	0.00023	9e-05	7e-05	8e-05	4
16651	6e-05	7e-05	6e-05	0.00025	0.00023	9e-05	7e-05	8e-05	4
16652	-0.00011	-9e-05	0	-0.00013	0	-2e-05	-6e-05	-0.00017	4
16653	-7e-05	-9e-05	-0.0001	-0.0003	-0.00048	-0.0005	-0.00028	-0.00012	4
16654	-7e-05	-9e-05	-0.0001	-0.0003	-0.00048	-0.0005	-0.00028	-0.00012	4
16656	-7e-05	-9e-05	-0.0001	-0.0003	-0.00048	-0.0005	-0.00028	-0.00012	4
16657	-7e-05	-9e-05	-0.0001	-0.0003	-0.00048	-0.0005	-0.00028	-0.00012	4
16658	-7e-05	-9e-05	-0.0001	-0.0003	-0.00048	-0.0005	-0.00028	-0.00012	4
16659	-7e-05	-9e-05	-0.0001	-0.0003	-0.00048	-0.0005	-0.00028	-0.00012	4
16660	-7e-05	-9e-05	-0.0001	-0.0003	-0.00048	-0.0005	-0.00028	-0.00012	4
16661	-7e-05	-9e-05	-0.0001	-0.0003	-0.00048	-0.0005	-0.00028	-0.00012	4
16662	-7e-05	-9e-05	-0.0001	-0.0003	-0.00048	-0.0005	-0.00028	-0.00012	4
16663	-7e-05	-9e-05	-0.0001	-0.0003	-0.00048	-0.0005	-0.00028	-0.00012	4
16664	-7e-05	-9e-05	-0.0001	-0.0003	-0.00048	-0.0005	-0.00028	-0.00012	4
16665	-1e-05	4e-05	5e-05	-0.0002	-9e-05	-1e-05	-5e-05	-3e-05	4
16666	-1e-05	4e-05	5e-05	-0.0002	-9e-05	-1e-05	-5e-05	-3e-05	4
16667	-1e-05	4e-05	5e-05	-0.0002	-9e-05	-1e-05	-5e-05	-3e-05	4
16668	-1e-05	4e-05	5e-05	-0.0002	-9e-05	-1e-05	-5e-05	-3e-05	4
16669	-1e-05	4e-05	5e-05	-0.0002	-9e-05	-1e-05	-5e-05	-3e-05	4
16670	-1e-05	4e-05	5e-05	-0.0002	-9e-05	-1e-05	-5e-05	-3e-05	4
16671	-1e-05	4e-05	5e-05	-0.0002	-9e-05	-1e-05	-5e-05	-3e-05	4
16672	-1e-05	4e-05	5e-05	-0.0002	-9e-05	-1e-05	-5e-05	-3e-05	4
16673	-1e-05	4e-05	5e-05	-0.0002	-9e-05	-1e-05	-5e-05	-3e-05	4
16674	-1e-05	4e-05	5e-05	-0.0002	-9e-05	-1e-05	-5e-05	-3e-05	4
16675	-1e-05	4e-05	5e-05	-0.0002	-9e-05	-1e-05	-5e-05	-3e-05	4
16676	-1e-05	4e-05	5e-05	-0.0002	-9e-05	-1e-05	-5e-05	-3e-05	4
16677	-1e-05	4e-05	5e-05	-0.0002	-9e-05	-1e-05	-5e-05	-3e-05	4
16678	-1e-05	4e-05	5e-05	-0.0002	-9e-05	-1e-05	-5e-05	-3e-05	4
16679	-1e-05	4e-05	5e-05	-0.0002	-9e-05	-1e-05	-5e-05	-3e-05	4
16680	-1e-05	4e-05	5e-05	-0.0002	-9e-05	-1e-05	-5e-05	-3e-05	4
16681	-1e-05	4e-05	5e-05	-0.0002	-9e-05	-1e-05	-5e-05	-3e-05	4
16682	-1e-05	4e-05	5e-05	-0.0002	-9e-05	-1e-05	-5e-05	-3e-05	4
16683	-1e-05	4e-05	5e-05	-0.0002	-9e-05	-1e-05	-5e-05	-3e-05	4
16684	-1e-05	4e-05	5e-05	-0.0002	-9e-05	-1e-05	-5e-05	-3e-05	4
16685	-1e-05	4e-05	5e-05	-0.0002	-9e-05	-1e-05	-5e-05	-3e-05	4
16686	-1e-05	4e-05	5e-05	-0.0002	-9e-05	-1e-05	-5e-05	-3e-05	4
16689	-1e-05	4e-05	5e-05	-0.0002	-9e-05	-1e-05	-5e-05	-3e-05	4
16690	-1e-05	4e-05	5e-05	-0.0002	-9e-05	-1e-05	-5e-05	-3e-05	4
16691	-1e-05	4e-05	5e-05	-0.0002	-9e-05	-1e-05	-5e-05	-3e-05	4
16692	-1e-05	4e-05	5e-05	-0.0002	-9e-05	-1e-05	-5e-05	-3e-05	4
16693	-1e-05	4e-05	5e-05	-0.0002	-9e-05	-1e-05	-5e-05	-3e-05	4
16694	-1e-05	4e-05	5e-05	-0.0002	-9e-05	-1e-05	-5e-05	-3e-05	4
16695	-1e-05	4e-05	5e-05	-0.0002	-9e-05	-1e-05	-5e-05	-3e-05	4
16696	-1e-05	4e-05	5e-05	-0.0002	-9e-05	-1e-05	-5e-05	-3e-05	4
16697	-1e-05	4e-05	5e-05	-0.0002	-9e-05	-1e-05	-5e-05	-3e-05	4
16698	-4e-05	-7e-05	-0.00015	-0.00013	0.00032	-6e-05	3e-05	-3e-05	4
16699	5e-05	9e-05	4e-05	-6e-05	0.00016	0.00034	0.00016	5e-05	4
16700	5e-05	9e-05	4e-05	-6e-05	0.00016	0.00034	0.00016	5e-05	4
16701	5e-05	9e-05	4e-05	-6e-05	0.00016	0.00034	0.00016	5e-05	4
16702	5e-05	9e-05	4e-05	-6e-05	0.00016	0.00034	0.00016	5e-05	4
16703	5e-05	9e-05	4e-05	-6e-05	0.00016	0.00034	0.00016	5e-05	4
16704	5e-05	9e-05	4e-05	-6e-05	0.00016	0.00034	0.00016	5e-05	4
16705	5e-05	9e-05	4e-05	-6e-05	0.00016	0.00034	0.00016	5e-05	4
16706	5e-05	9e-05	4e-05	-6e-05	0.00016	0.00034	0.00016	5e-05	4
16707	5e-05	9e-05	4e-05	-6e-05	0.00016	0.00034	0.00016	5e-05	4
16708	5e-05	9e-05	4e-05	-6e-05	0.00016	0.00034	0.00016	5e-05	4
16709	5e-05	9e-05	4e-05	-6e-05	0.00016	0.00034	0.00016	5e-05	4
16710	5e-05	9e-05	4e-05	-6e-05	0.00016	0.00034	0.00016	5e-05	4
16711	5e-05	9e-05	4e-05	-6e-05	0.00016	0.00034	0.00016	5e-05	4
16712	5e-05	9e-05	4e-05	-6e-05	0.00016	0.00034	0.00016	5e-05	4
16713	5e-05	9e-05	4e-05	-6e-05	0.00016	0.00034	0.00016	5e-05	4
16714	5e-05	9e-05	4e-05	-6e-05	0.00016	0.00034	0.00016	5e-05	4
16715	5e-05	9e-05	4e-05	-6e-05	0.00016	0.00034	0.00016	5e-05	4
16716	5e-05	9e-05	4e-05	-6e-05	0.00016	0.00034	0.00016	5e-05	4
16717	5e-05	9e-05	4e-05	-6e-05	0.00016	0.00034	0.00016	5e-05	4
16718	5e-05	9e-05	4e-05	-6e-05	0.00016	0.00034	0.00016	5e-05	4
16719	5e-05	9e-05	4e-05	-6e-05	0.00016	0.00034	0.00016	5e-05	4
16720	5e-05	9e-05	4e-05	-6e-05	0.00016	0.00034	0.00016	5e-05	4
16721	5e-05	9e-05	4e-05	-6e-05	0.00016	0.00034	0.00016	5e-05	4
16722	5e-05	9e-05	4e-05	-6e-05	0.00016	0.00034	0.00016	5e-05	4
16723	5e-05	9e-05	4e-05	-6e-05	0.00016	0.00034	0.00016	5e-05	4
16724	5e-05	9e-05	4e-05	-6e-05	0.00016	0.00034	0.00016	5e-05	4
16725	5e-05	9e-05	4e-05	-6e-05	0.00016	0.00034	0.00016	5e-05	4
16726	5e-05	9e-05	4e-05	-6e-05	0.00016	0.00034	0.00016	5e-05	4
16727	5e-05	9e-05	4e-05	-6e-05	0.00016	0.00034	0.00016	5e-05	4
16728	5e-05	9e-05	4e-05	-6e-05	0.00016	0.00034	0.00016	5e-05	4
16729	5e-05	9e-05	4e-05	-6e-05	0.00016	0.00034	0.00016	5e-05	4
16730	5e-05	9e-05	4e-05	-6e-05	0.00016	0.00034	0.00016	5e-05	4
16731	5e-05	9e-05	4e-05	-6e-05	0.00016	0.00034	0.00016	5e-05	4
16732	5e-05	9e-05	4e-05	-6e-05	0.00016	0.00034	0.00016	5e-05	4
16733	5e-05	9e-05	4e-05	-6e-05	0.00016	0.00034	0.00016	5e-05	4
16734	5e-05	9e-05	4e-05	-6e-05	0.00016	0.00034	0.00016	5e-05	4
16735	5e-05	9e-05	4e-05	-6e-05	0.00016	0.00034	0.00016	5e-05	4
16736	5e-05	9e-05	4e-05	-6e-05	0.00016	0.00034	0.00016	5e-05	4
16740	5e-05	9e-05	4e-05	-6e-05	0.00016	0.00034	0.00016	5e-05	4
16741	1e-05	3e-05	8e-05	7e-05	0.00022	0.00026	6e-05	0	4
16742	1e-05	3e-05	8e-05	7e-05	0.00022	0.00026	6e-05	0	4
16743	1e-05	3e-05	8e-05	7e-05	0.00022	0.00026	6e-05	0	4
16744	1e-05	3e-05	8e-05	7e-05	0.00022	0.00026	6e-05	0	4
16745	1e-05	3e-05	8e-05	7e-05	0.00022	0.00026	6e-05	0	4
16746	1e-05	3e-05	8e-05	7e-05	0.00022	0.00026	6e-05	0	4
16747	1e-05	3e-05	8e-05	7e-05	0.00022	0.00026	6e-05	0	4
16748	1e-05	3e-05	8e-05	7e-05	0.00022	0.00026	6e-05	0	4
16749	1e-05	3e-05	8e-05	7e-05	0.00022	0.00026	6e-05	0	4
16750	1e-05	3e-05	8e-05	7e-05	0.00022	0.00026	6e-05	0	4
16751	1e-05	3e-05	8e-05	7e-05	0.00022	0.00026	6e-05	0	4
16752	1e-05	3e-05	8e-05	7e-05	0.00022	0.00026	6e-05	0	4
16753	1e-05	3e-05	8e-05	7e-05	0.00022	0.00026	6e-05	0	4
16754	1e-05	3e-05	8e-05	7e-05	0.00022	0.00026	6e-05	0	4
16755	1e-05	3e-05	8e-05	7e-05	0.00022	0.00026	6e-05	0	4
16756	1e-05	3e-05	8e-05	7e-05	0.00022	0.00026	6e-05	0	4
16757	1e-05	3e-05	8e-05	7e-05	0.00022	0.00026	6e-05	0	4
16758	1e-05	3e-05	8e-05	7e-05	0.00022	0.00026	6e-05	0	4
16759	1e-05	3e-05	8e-05	7e-05	0.00022	0.00026	6e-05	0	4
16760	1e-05	3e-05	8e-05	7e-05	0.00022	0.00026	6e-05	0	4
16761	1e-05	3e-05	8e-05	7e-05	0.00022	0.00026	6e-05	0	4
16762	1e-05	3e-05	8e-05	7e-05	0.00022	0.00026	6e-05	0	4
16763	1e-05	3e-05	8e-05	7e-05	0.00022	0.00026	6e-05	0	4
16764	1e-05	3e-05	8e-05	7e-05	0.00022	0.00026	6e-05	0	4
16765	1e-05	3e-05	8e-05	7e-05	0.00022	0.00026	6e-05	0	4
16766	1e-05	3e-05	8e-05	7e-05	0.00022	0.00026	6e-05	0	4
16767	1e-05	3e-05	8e-05	7e-05	0.00022	0.00026	6e-05	0	4
16768	1e-05	3e-05	8e-05	7e-05	0.00022	0.00026	6e-05	0	4
16769	1e-05	3e-05	8e-05	7e-05	0.00022	0.00026	6e-05	0	4
16770	1e-05	3e-05	8e-05	7e-05	0.00022	0.00026	6e-05	0	4
16771	1e-05	3e-05	8e-05	7e-05	0.00022	0.00026	6e-05	0	4
16772	1e-05	3e-05	8e-05	7e-05	0.00022	0.00026	6e-05	0	4
16773	1e-05	3e-05	8e-05	7e-05	0.00022	0.00026	6e-05	0	4
16774	1e-05	3e-05	8e-05	7e-05	0.00022	0.00026	6e-05	0	4
16775	1e-05	3e-05	8e-05	7e-05	0.00022	0.00026	6e-05	0	4
16776	1e-05	3e-05	8e-05	7e-05	0.00022	0.00026	6e-05	0	4
16777	1e-05	3e-05	8e-05	7e-05	0.00022	0.00026	6e-05	0	4
16778	1e-05	3e-05	8e-05	7e-05	0.00022	0.00026	6e-05	0	4
16779	1e-05	3e-05	8e-05	7e-05	0.00022	0.00026	6e-05	0	4
16780	1e-05	3e-05	8e-05	7e-05	0.00022	0.00026	6e-05	0	4
16781	1e-05	3e-05	8e-05	7e-05	0.00022	0.00026	6e-05	0	4
16782	1e-05	3e-05	8e-05	7e-05	0.00022	0.00026	6e-05	0	4
16783	1e-05	3e-05	8e-05	7e-05	0.00022	0.00026	6e-05	0	4
16784	1e-05	3e-05	8e-05	7e-05	0.00022	0.00026	6e-05	0	4
16785	1e-05	3e-05	8e-05	7e-05	0.00022	0.00026	6e-05	0	4
16786	1e-05	3e-05	8e-05	7e-05	0.00022	0.00026	6e-05	0	4
16789	1e-05	3e-05	8e-05	7e-05	0.00022	0.00026	6e-05	0	4
16790	1e-05	3e-05	8e-05	7e-05	0.00022	0.00026	6e-05	0	4
16791	1e-05	3e-05	8e-05	7e-05	0.00022	0.00026	6e-05	0	4
16792	1e-05	3e-05	8e-05	7e-05	0.00022	0.00026	6e-05	0	4
16793	1e-05	3e-05	8e-05	7e-05	0.00022	0.00026	6e-05	0	4
16794	1e-05	3e-05	8e-05	7e-05	0.00022	0.00026	6e-05	0	4
16795	1e-05	3e-05	8e-05	7e-05	0.00022	0.00026	6e-05	0	4
16796	1e-05	2e-05	-1e-05	0	0.0001	0.00023	9e-05	2e-05	4
16797	1e-05	2e-05	-1e-05	0	0.0001	0.00023	9e-05	2e-05	4
16799	1e-05	2e-05	-1e-05	0	0.0001	0.00023	9e-05	2e-05	4
16800	1e-05	2e-05	-1e-05	0	0.0001	0.00023	9e-05	2e-05	4
16801	1e-05	2e-05	-1e-05	0	0.0001	0.00023	9e-05	2e-05	4
16802	1e-05	2e-05	-1e-05	0	0.0001	0.00023	9e-05	2e-05	4
16803	1e-05	2e-05	-1e-05	0	0.0001	0.00023	9e-05	2e-05	4
16804	1e-05	2e-05	-1e-05	0	0.0001	0.00023	9e-05	2e-05	4
16805	1e-05	2e-05	-1e-05	0	0.0001	0.00023	9e-05	2e-05	4
16806	1e-05	2e-05	-1e-05	0	0.0001	0.00023	9e-05	2e-05	4
16807	1e-05	2e-05	-1e-05	0	0.0001	0.00023	9e-05	2e-05	4
16808	1e-05	2e-05	-1e-05	0	0.0001	0.00023	9e-05	2e-05	4
16809	1e-05	2e-05	-1e-05	0	0.0001	0.00023	9e-05	2e-05	4
16810	1e-05	2e-05	-1e-05	0	0.0001	0.00023	9e-05	2e-05	4
16811	1e-05	2e-05	-1e-05	0	0.0001	0.00023	9e-05	2e-05	4
16812	1e-05	2e-05	-1e-05	0	0.0001	0.00023	9e-05	2e-05	4
16813	1e-05	2e-05	-1e-05	0	0.0001	0.00023	9e-05	2e-05	4
16814	1e-05	2e-05	-1e-05	0	0.0001	0.00023	9e-05	2e-05	4
16815	1e-05	2e-05	-1e-05	0	0.0001	0.00023	9e-05	2e-05	4
16816	1e-05	2e-05	-1e-05	0	0.0001	0.00023	9e-05	2e-05	4
16817	1e-05	2e-05	-1e-05	0	0.0001	0.00023	9e-05	2e-05	4
16818	-5e-05	-9e-05	-8e-05	-0.00016	-0.00048	-0.00016	-0.0001	-6e-05	4
16819	-2e-05	-4e-05	-3e-05	6e-05	2e-05	5e-05	2e-05	-1e-05	4
16820	-8e-05	-7e-05	-9e-05	2e-05	-0.00015	-0.00021	-0.00016	-9e-05	4
16821	-8e-05	-7e-05	-9e-05	2e-05	-0.00015	-0.00021	-0.00016	-9e-05	4
16822	-8e-05	-7e-05	-9e-05	2e-05	-0.00015	-0.00021	-0.00016	-9e-05	4
16823	-8e-05	-7e-05	-9e-05	2e-05	-0.00015	-0.00021	-0.00016	-9e-05	4
16824	-8e-05	-7e-05	-9e-05	2e-05	-0.00015	-0.00021	-0.00016	-9e-05	4
16825	-8e-05	-7e-05	-9e-05	2e-05	-0.00015	-0.00021	-0.00016	-9e-05	4
16826	-8e-05	-7e-05	-9e-05	2e-05	-0.00015	-0.00021	-0.00016	-9e-05	4
16827	-8e-05	-7e-05	-9e-05	2e-05	-0.00015	-0.00021	-0.00016	-9e-05	4
16828	-8e-05	-7e-05	-9e-05	2e-05	-0.00015	-0.00021	-0.00016	-9e-05	4
16829	-8e-05	-7e-05	-9e-05	2e-05	-0.00015	-0.00021	-0.00016	-9e-05	4
16830	-8e-05	-7e-05	-9e-05	2e-05	-0.00015	-0.00021	-0.00016	-9e-05	4
16831	-8e-05	-7e-05	-9e-05	2e-05	-0.00015	-0.00021	-0.00016	-9e-05	4
16832	-8e-05	-7e-05	-9e-05	2e-05	-0.00015	-0.00021	-0.00016	-9e-05	4
16833	-8e-05	-7e-05	-9e-05	2e-05	-0.00015	-0.00021	-0.00016	-9e-05	4
16834	-8e-05	-7e-05	-9e-05	2e-05	-0.00015	-0.00021	-0.00016	-9e-05	4
16835	-8e-05	-7e-05	-9e-05	2e-05	-0.00015	-0.00021	-0.00016	-9e-05	4
16836	-8e-05	-7e-05	-9e-05	2e-05	-0.00015	-0.00021	-0.00016	-9e-05	4
16839	-8e-05	-7e-05	-9e-05	2e-05	-0.00015	-0.00021	-0.00016	-9e-05	4
16840	-8e-05	-7e-05	-9e-05	2e-05	-0.00015	-0.00021	-0.00016	-9e-05	4
16841	-8e-05	-7e-05	-9e-05	2e-05	-0.00015	-0.00021	-0.00016	-9e-05	4
16842	-8e-05	-7e-05	-9e-05	2e-05	-0.00015	-0.00021	-0.00016	-9e-05	4
16843	-8e-05	-7e-05	-9e-05	2e-05	-0.00015	-0.00021	-0.00016	-9e-05	4
16844	-8e-05	-7e-05	-9e-05	2e-05	-0.00015	-0.00021	-0.00016	-9e-05	4
16845	-8e-05	-7e-05	-9e-05	2e-05	-0.00015	-0.00021	-0.00016	-9e-05	4
16846	-8e-05	-7e-05	-9e-05	2e-05	-0.00015	-0.00021	-0.00016	-9e-05	4
16847	-8e-05	-7e-05	-9e-05	2e-05	-0.00015	-0.00021	-0.00016	-9e-05	4
16848	-8e-05	-7e-05	-9e-05	2e-05	-0.00015	-0.00021	-0.00016	-9e-05	4
16849	-8e-05	-7e-05	-9e-05	2e-05	-0.00015	-0.00021	-0.00016	-9e-05	4
16850	-8e-05	-7e-05	-9e-05	2e-05	-0.00015	-0.00021	-0.00016	-9e-05	4
16851	-8e-05	-7e-05	-9e-05	2e-05	-0.00015	-0.00021	-0.00016	-9e-05	4
16852	-8e-05	-7e-05	-9e-05	2e-05	-0.00015	-0.00021	-0.00016	-9e-05	4
16853	-8e-05	-7e-05	-9e-05	2e-05	-0.00015	-0.00021	-0.00016	-9e-05	4
16854	-8e-05	-7e-05	-9e-05	2e-05	-0.00015	-0.00021	-0.00016	-9e-05	4
16855	-8e-05	-7e-05	-9e-05	2e-05	-0.00015	-0.00021	-0.00016	-9e-05	4
16856	-8e-05	-7e-05	-9e-05	2e-05	-0.00015	-0.00021	-0.00016	-9e-05	4
16857	-8e-05	-7e-05	-9e-05	2e-05	-0.00015	-0.00021	-0.00016	-9e-05	4
16858	-8e-05	-7e-05	-9e-05	2e-05	-0.00015	-0.00021	-0.00016	-9e-05	4
16859	-8e-05	-7e-05	-9e-05	2e-05	-0.00015	-0.00021	-0.00016	-9e-05	4
16860	-8e-05	-7e-05	-9e-05	2e-05	-0.00015	-0.00021	-0.00016	-9e-05	4
16861	-8e-05	-7e-05	-9e-05	2e-05	-0.00015	-0.00021	-0.00016	-9e-05	4
16862	-8e-05	-7e-05	-9e-05	2e-05	-0.00015	-0.00021	-0.00016	-9e-05	4
16863	-8e-05	-7e-05	-9e-05	2e-05	-0.00015	-0.00021	-0.00016	-9e-05	4
16864	-8e-05	-7e-05	-9e-05	2e-05	-0.00015	-0.00021	-0.00016	-9e-05	4
16865	-8e-05	-7e-05	-9e-05	2e-05	-0.00015	-0.00021	-0.00016	-9e-05	4
16866	-8e-05	-7e-05	-9e-05	2e-05	-0.00015	-0.00021	-0.00016	-9e-05	4
16867	-8e-05	-7e-05	-9e-05	2e-05	-0.00015	-0.00021	-0.00016	-9e-05	4
16868	-8e-05	-7e-05	-9e-05	2e-05	-0.00015	-0.00021	-0.00016	-9e-05	4
16869	-8e-05	-7e-05	-9e-05	2e-05	-0.00015	-0.00021	-0.00016	-9e-05	4
16870	7e-05	9e-05	0.00014	0.00037	0.00036	0.00012	8e-05	7e-05	4
16871	2e-05	9e-05	8e-05	-3e-05	3e-05	-1e-05	-2e-05	0	4
16872	2e-05	9e-05	8e-05	-3e-05	3e-05	-1e-05	-2e-05	0	4
16873	-4e-05	-4e-05	-3e-05	-0.00015	-0.00017	-0.00014	-9e-05	-6e-05	4
16874	-4e-05	-4e-05	-3e-05	-0.00015	-0.00017	-0.00014	-9e-05	-6e-05	4
16875	-4e-05	-4e-05	-3e-05	-0.00015	-0.00017	-0.00014	-9e-05	-6e-05	4
16876	-4e-05	-4e-05	-3e-05	-0.00015	-0.00017	-0.00014	-9e-05	-6e-05	4
16877	-4e-05	-4e-05	-3e-05	-0.00015	-0.00017	-0.00014	-9e-05	-6e-05	4
16878	-4e-05	-4e-05	-3e-05	-0.00015	-0.00017	-0.00014	-9e-05	-6e-05	4
16879	-4e-05	-4e-05	-3e-05	-0.00015	-0.00017	-0.00014	-9e-05	-6e-05	4
16880	-4e-05	-4e-05	-3e-05	-0.00015	-0.00017	-0.00014	-9e-05	-6e-05	4
16881	-4e-05	-4e-05	-3e-05	-0.00015	-0.00017	-0.00014	-9e-05	-6e-05	4
16882	-4e-05	-4e-05	-3e-05	-0.00015	-0.00017	-0.00014	-9e-05	-6e-05	4
16883	-4e-05	-4e-05	-3e-05	-0.00015	-0.00017	-0.00014	-9e-05	-6e-05	4
16884	-4e-05	-4e-05	-3e-05	-0.00015	-0.00017	-0.00014	-9e-05	-6e-05	4
16885	-4e-05	-4e-05	-3e-05	-0.00015	-0.00017	-0.00014	-9e-05	-6e-05	4
16886	-4e-05	-4e-05	-3e-05	-0.00015	-0.00017	-0.00014	-9e-05	-6e-05	4
16889	-4e-05	-4e-05	-3e-05	-0.00015	-0.00017	-0.00014	-9e-05	-6e-05	4
16890	-4e-05	-4e-05	-3e-05	-0.00015	-0.00017	-0.00014	-9e-05	-6e-05	4
16891	-4e-05	-4e-05	-3e-05	-0.00015	-0.00017	-0.00014	-9e-05	-6e-05	4
16892	-1e-05	1e-05	3e-05	-6e-05	-0.00023	-8e-05	-0.0001	-5e-05	4
16893	-1e-05	1e-05	3e-05	-6e-05	-0.00023	-8e-05	-0.0001	-5e-05	4
16894	-1e-05	1e-05	3e-05	-6e-05	-0.00023	-8e-05	-0.0001	-5e-05	4
16895	-1e-05	1e-05	3e-05	-6e-05	-0.00023	-8e-05	-0.0001	-5e-05	4
16896	-1e-05	1e-05	3e-05	-6e-05	-0.00023	-8e-05	-0.0001	-5e-05	4
16897	-1e-05	1e-05	3e-05	-6e-05	-0.00023	-8e-05	-0.0001	-5e-05	4
16898	-1e-05	1e-05	3e-05	-6e-05	-0.00023	-8e-05	-0.0001	-5e-05	4
16899	-1e-05	1e-05	3e-05	-6e-05	-0.00023	-8e-05	-0.0001	-5e-05	4
16900	-1e-05	1e-05	3e-05	-6e-05	-0.00023	-8e-05	-0.0001	-5e-05	4
16901	-1e-05	1e-05	3e-05	-6e-05	-0.00023	-8e-05	-0.0001	-5e-05	4
16902	-1e-05	1e-05	3e-05	-6e-05	-0.00023	-8e-05	-0.0001	-5e-05	4
16903	-1e-05	1e-05	3e-05	-6e-05	-0.00023	-8e-05	-0.0001	-5e-05	4
16904	-1e-05	1e-05	3e-05	-6e-05	-0.00023	-8e-05	-0.0001	-5e-05	4
16905	-1e-05	1e-05	3e-05	-6e-05	-0.00023	-8e-05	-0.0001	-5e-05	4
16906	-1e-05	1e-05	3e-05	-6e-05	-0.00023	-8e-05	-0.0001	-5e-05	4
16907	-1e-05	1e-05	3e-05	-6e-05	-0.00023	-8e-05	-0.0001	-5e-05	4
16908	-1e-05	1e-05	3e-05	-6e-05	-0.00023	-8e-05	-0.0001	-5e-05	4
16909	-1e-05	1e-05	3e-05	-6e-05	-0.00023	-8e-05	-0.0001	-5e-05	4
16910	-1e-05	1e-05	3e-05	-6e-05	-0.00023	-8e-05	-0.0001	-5e-05	4
16911	-1e-05	1e-05	3e-05	-6e-05	-0.00023	-8e-05	-0.0001	-5e-05	4
16912	-1e-05	1e-05	3e-05	-6e-05	-0.00023	-8e-05	-0.0001	-5e-05	4
16913	-1e-05	1e-05	3e-05	-6e-05	-0.00023	-8e-05	-0.0001	-5e-05	4
16914	-1e-05	1e-05	3e-05	-6e-05	-0.00023	-8e-05	-0.0001	-5e-05	4
16915	-1e-05	1e-05	3e-05	-6e-05	-0.00023	-8e-05	-0.0001	-5e-05	4
16916	-1e-05	1e-05	3e-05	-6e-05	-0.00023	-8e-05	-0.0001	-5e-05	4
16917	-1e-05	1e-05	3e-05	-6e-05	-0.00023	-8e-05	-0.0001	-5e-05	4
16918	-1e-05	1e-05	3e-05	-6e-05	-0.00023	-8e-05	-0.0001	-5e-05	4
16919	-1e-05	1e-05	3e-05	-6e-05	-0.00023	-8e-05	-0.0001	-5e-05	4
16920	-1e-05	1e-05	3e-05	-6e-05	-0.00023	-8e-05	-0.0001	-5e-05	4
16921	-1e-05	1e-05	3e-05	-6e-05	-0.00023	-8e-05	-0.0001	-5e-05	4
16922	-1e-05	1e-05	3e-05	-6e-05	-0.00023	-8e-05	-0.0001	-5e-05	4
16923	-1e-05	1e-05	3e-05	-6e-05	-0.00023	-8e-05	-0.0001	-5e-05	4
16924	-1e-05	1e-05	3e-05	-6e-05	-0.00023	-8e-05	-0.0001	-5e-05	4
16925	-1e-05	1e-05	3e-05	-6e-05	-0.00023	-8e-05	-0.0001	-5e-05	4
16926	-1e-05	1e-05	3e-05	-6e-05	-0.00023	-8e-05	-0.0001	-5e-05	4
16927	-1e-05	1e-05	3e-05	-6e-05	-0.00023	-8e-05	-0.0001	-5e-05	4
16928	-1e-05	1e-05	3e-05	-6e-05	-0.00023	-8e-05	-0.0001	-5e-05	4
16929	-1e-05	1e-05	3e-05	-6e-05	-0.00023	-8e-05	-0.0001	-5e-05	4
16930	-1e-05	1e-05	3e-05	-6e-05	-0.00023	-8e-05	-0.0001	-5e-05	4
16931	-1e-05	1e-05	3e-05	-6e-05	-0.00023	-8e-05	-0.0001	-5e-05	4
16932	-1e-05	1e-05	3e-05	-6e-05	-0.00023	-8e-05	-0.0001	-5e-05	4
16933	-1e-05	1e-05	3e-05	-6e-05	-0.00023	-8e-05	-0.0001	-5e-05	4
16934	-1e-05	1e-05	3e-05	-6e-05	-0.00023	-8e-05	-0.0001	-5e-05	4
16935	-1e-05	1e-05	3e-05	-6e-05	-0.00023	-8e-05	-0.0001	-5e-05	4
16936	-1e-05	1e-05	3e-05	-6e-05	-0.00023	-8e-05	-0.0001	-5e-05	4
16939	-1e-05	1e-05	3e-05	-6e-05	-0.00023	-8e-05	-0.0001	-5e-05	4
16940	-1e-05	1e-05	3e-05	-6e-05	-0.00023	-8e-05	-0.0001	-5e-05	4
16941	-1e-05	1e-05	3e-05	-6e-05	-0.00023	-8e-05	-0.0001	-5e-05	4
16942	-1e-05	1e-05	3e-05	-6e-05	-0.00023	-8e-05	-0.0001	-5e-05	4
16943	-1e-05	1e-05	3e-05	-6e-05	-0.00023	-8e-05	-0.0001	-5e-05	4
16944	-1e-05	1e-05	3e-05	-6e-05	-0.00023	-8e-05	-0.0001	-5e-05	4
16945	-1e-05	1e-05	3e-05	-6e-05	-0.00023	-8e-05	-0.0001	-5e-05	4
16946	-1e-05	1e-05	3e-05	-6e-05	-0.00023	-8e-05	-0.0001	-5e-05	4
16947	-1e-05	1e-05	3e-05	-6e-05	-0.00023	-8e-05	-0.0001	-5e-05	4
16948	-1e-05	1e-05	3e-05	-6e-05	-0.00023	-8e-05	-0.0001	-5e-05	4
16949	-1e-05	1e-05	3e-05	-6e-05	-0.00023	-8e-05	-0.0001	-5e-05	4
16950	-1e-05	1e-05	3e-05	-6e-05	-0.00023	-8e-05	-0.0001	-5e-05	4
16951	-2e-05	-7e-05	-9e-05	-0.00013	-0.00016	9e-05	7e-05	1e-05	4
16952	-2e-05	-7e-05	-9e-05	-0.00013	-0.00016	9e-05	7e-05	1e-05	4
16953	-2e-05	-7e-05	-9e-05	-0.00013	-0.00016	9e-05	7e-05	1e-05	4
16954	-2e-05	-7e-05	-9e-05	-0.00013	-0.00016	9e-05	7e-05	1e-05	4
16955	-2e-05	-7e-05	-9e-05	-0.00013	-0.00016	9e-05	7e-05	1e-05	4
16956	-2e-05	-7e-05	-9e-05	-0.00013	-0.00016	9e-05	7e-05	1e-05	4
16957	-2e-05	-7e-05	-9e-05	-0.00013	-0.00016	9e-05	7e-05	1e-05	4
16958	-2e-05	-7e-05	-9e-05	-0.00013	-0.00016	9e-05	7e-05	1e-05	4
16959	-2e-05	-7e-05	-9e-05	-0.00013	-0.00016	9e-05	7e-05	1e-05	4
16960	-2e-05	-7e-05	-9e-05	-0.00013	-0.00016	9e-05	7e-05	1e-05	4
16961	-2e-05	-7e-05	-9e-05	-0.00013	-0.00016	9e-05	7e-05	1e-05	4
16962	-2e-05	-7e-05	-9e-05	-0.00013	-0.00016	9e-05	7e-05	1e-05	4
16963	-2e-05	-7e-05	-9e-05	-0.00013	-0.00016	9e-05	7e-05	1e-05	4
16964	-2e-05	-7e-05	-9e-05	-0.00013	-0.00016	9e-05	7e-05	1e-05	4
16965	-2e-05	-7e-05	-9e-05	-0.00013	-0.00016	9e-05	7e-05	1e-05	4
16966	-2e-05	-7e-05	-9e-05	-0.00013	-0.00016	9e-05	7e-05	1e-05	4
16967	0	9e-05	0.00013	0.00012	-2e-05	1e-05	-0.0001	-0.00011	4
16968	1e-05	-3e-05	-1e-05	-7e-05	-0.00022	0.0001	-1e-05	3e-05	4
16969	1e-05	-3e-05	-1e-05	-7e-05	-0.00022	0.0001	-1e-05	3e-05	4
16970	1e-05	-3e-05	-1e-05	-7e-05	-0.00022	0.0001	-1e-05	3e-05	4
16971	1e-05	-3e-05	-1e-05	-7e-05	-0.00022	0.0001	-1e-05	3e-05	4
16972	1e-05	-3e-05	-1e-05	-7e-05	-0.00022	0.0001	-1e-05	3e-05	4
16973	1e-05	-3e-05	-1e-05	-7e-05	-0.00022	0.0001	-1e-05	3e-05	4
16974	1e-05	-3e-05	-1e-05	-7e-05	-0.00022	0.0001	-1e-05	3e-05	4
16975	1e-05	-3e-05	-1e-05	-7e-05	-0.00022	0.0001	-1e-05	3e-05	4
16976	1e-05	-3e-05	-1e-05	-7e-05	-0.00022	0.0001	-1e-05	3e-05	4
16977	1e-05	-3e-05	-1e-05	-7e-05	-0.00022	0.0001	-1e-05	3e-05	4
16978	1e-05	-3e-05	-1e-05	-7e-05	-0.00022	0.0001	-1e-05	3e-05	4
16979	1e-05	-3e-05	-1e-05	-7e-05	-0.00022	0.0001	-1e-05	3e-05	4
16980	1e-05	-3e-05	-1e-05	-7e-05	-0.00022	0.0001	-1e-05	3e-05	4
16981	1e-05	-3e-05	-1e-05	-7e-05	-0.00022	0.0001	-1e-05	3e-05	4
16982	1e-05	-3e-05	-1e-05	-7e-05	-0.00022	0.0001	-1e-05	3e-05	4
16983	1e-05	-3e-05	-1e-05	-7e-05	-0.00022	0.0001	-1e-05	3e-05	4
16984	1e-05	-3e-05	-1e-05	-7e-05	-0.00022	0.0001	-1e-05	3e-05	4
16985	1e-05	-3e-05	-1e-05	-7e-05	-0.00022	0.0001	-1e-05	3e-05	4
16986	1e-05	-3e-05	-1e-05	-7e-05	-0.00022	0.0001	-1e-05	3e-05	4
16989	1e-05	-3e-05	-1e-05	-7e-05	-0.00022	0.0001	-1e-05	3e-05	4
16990	1e-05	-3e-05	-1e-05	-7e-05	-0.00022	0.0001	-1e-05	3e-05	4
16991	1e-05	-3e-05	-1e-05	-7e-05	-0.00022	0.0001	-1e-05	3e-05	4
16992	1e-05	-3e-05	-1e-05	-7e-05	-0.00022	0.0001	-1e-05	3e-05	4
16993	1e-05	-3e-05	-1e-05	-7e-05	-0.00022	0.0001	-1e-05	3e-05	4
16994	1e-05	-3e-05	-1e-05	-7e-05	-0.00022	0.0001	-1e-05	3e-05	4
16995	1e-05	-3e-05	-1e-05	-7e-05	-0.00022	0.0001	-1e-05	3e-05	4
16996	1e-05	-3e-05	-1e-05	-7e-05	-0.00022	0.0001	-1e-05	3e-05	4
16997	1e-05	-3e-05	-1e-05	-7e-05	-0.00022	0.0001	-1e-05	3e-05	4
16998	1e-05	-3e-05	-1e-05	-7e-05	-0.00022	0.0001	-1e-05	3e-05	4
16999	1e-05	-3e-05	-1e-05	-7e-05	-0.00022	0.0001	-1e-05	3e-05	4
17000	1e-05	-3e-05	-1e-05	-7e-05	-0.00022	0.0001	-1e-05	3e-05	4
17001	1e-05	-3e-05	-1e-05	-7e-05	-0.00022	0.0001	-1e-05	3e-05	4
17002	1e-05	-3e-05	-1e-05	-7e-05	-0.00022	0.0001	-1e-05	3e-05	4
17003	1e-05	-3e-05	-1e-05	-7e-05	-0.00022	0.0001	-1e-05	3e-05	4
17004	1e-05	-3e-05	-1e-05	-7e-05	-0.00022	0.0001	-1e-05	3e-05	4
17005	1e-05	-3e-05	-1e-05	-7e-05	-0.00022	0.0001	-1e-05	3e-05	4
17006	1e-05	-3e-05	-1e-05	-7e-05	-0.00022	0.0001	-1e-05	3e-05	4
17007	1e-05	-3e-05	-1e-05	-7e-05	-0.00022	0.0001	-1e-05	3e-05	4
17008	1e-05	-3e-05	-1e-05	-7e-05	-0.00022	0.0001	-1e-05	3e-05	4
17009	1e-05	-3e-05	-1e-05	-7e-05	-0.00022	0.0001	-1e-05	3e-05	4
17010	1e-05	-3e-05	-1e-05	-7e-05	-0.00022	0.0001	-1e-05	3e-05	4
17011	1e-05	-3e-05	-1e-05	-7e-05	-0.00022	0.0001	-1e-05	3e-05	4
17012	1e-05	-3e-05	-1e-05	-7e-05	-0.00022	0.0001	-1e-05	3e-05	4
17013	1e-05	-3e-05	-1e-05	-7e-05	-0.00022	0.0001	-1e-05	3e-05	4
17014	1e-05	-3e-05	-1e-05	-7e-05	-0.00022	0.0001	-1e-05	3e-05	4
17015	1e-05	-3e-05	-1e-05	-7e-05	-0.00022	0.0001	-1e-05	3e-05	4
17016	1e-05	-3e-05	-1e-05	-7e-05	-0.00022	0.0001	-1e-05	3e-05	4
17017	1e-05	-3e-05	-1e-05	-7e-05	-0.00022	0.0001	-1e-05	3e-05	4
17018	1e-05	-3e-05	-1e-05	-7e-05	-0.00022	0.0001	-1e-05	3e-05	4
17019	1e-05	-3e-05	-1e-05	-7e-05	-0.00022	0.0001	-1e-05	3e-05	4
17020	-4e-05	-2e-05	-0.0001	1e-05	-0.00013	-8e-05	-8e-05	-6e-05	4
17021	4e-05	0.00012	0.00012	-6e-05	-0.00014	7e-05	-4e-05	-1e-05	4
17022	4e-05	0.00012	0.00012	-6e-05	-0.00014	7e-05	-4e-05	-1e-05	4
17023	-7e-05	-0.00011	-0.00017	-0.00022	-0.00032	-0.00017	-0.00017	-0.00011	4
17024	-7e-05	-0.00011	-0.00017	-0.00022	-0.00032	-0.00017	-0.00017	-0.00011	4
17025	-7e-05	-0.00011	-0.00017	-0.00022	-0.00032	-0.00017	-0.00017	-0.00011	4
17026	-7e-05	-0.00011	-0.00017	-0.00022	-0.00032	-0.00017	-0.00017	-0.00011	4
17027	-7e-05	-0.00011	-0.00017	-0.00022	-0.00032	-0.00017	-0.00017	-0.00011	4
17028	-7e-05	-0.00011	-0.00017	-0.00022	-0.00032	-0.00017	-0.00017	-0.00011	4
17029	-7e-05	-0.00011	-0.00017	-0.00022	-0.00032	-0.00017	-0.00017	-0.00011	4
17030	-7e-05	-0.00011	-0.00017	-0.00022	-0.00032	-0.00017	-0.00017	-0.00011	4
17031	-7e-05	-0.00011	-0.00017	-0.00022	-0.00032	-0.00017	-0.00017	-0.00011	4
17033	-7e-05	-0.00011	-0.00017	-0.00022	-0.00032	-0.00017	-0.00017	-0.00011	4
17034	-1e-05	3e-05	-6e-05	-1e-05	2e-05	-0.00011	-7e-05	-3e-05	4
17035	-1e-05	3e-05	-6e-05	-1e-05	2e-05	-0.00011	-7e-05	-3e-05	4
17036	-1e-05	3e-05	-6e-05	-1e-05	2e-05	-0.00011	-7e-05	-3e-05	4
17039	-1e-05	3e-05	-6e-05	-1e-05	2e-05	-0.00011	-7e-05	-3e-05	4
17040	-1e-05	3e-05	-6e-05	-1e-05	2e-05	-0.00011	-7e-05	-3e-05	4
17041	-1e-05	3e-05	-6e-05	-1e-05	2e-05	-0.00011	-7e-05	-3e-05	4
17042	-1e-05	3e-05	-6e-05	-1e-05	2e-05	-0.00011	-7e-05	-3e-05	4
17043	-1e-05	3e-05	-6e-05	-1e-05	2e-05	-0.00011	-7e-05	-3e-05	4
17044	-1e-05	3e-05	-6e-05	-1e-05	2e-05	-0.00011	-7e-05	-3e-05	4
17045	-1e-05	3e-05	-6e-05	-1e-05	2e-05	-0.00011	-7e-05	-3e-05	4
17046	-1e-05	3e-05	-6e-05	-1e-05	2e-05	-0.00011	-7e-05	-3e-05	4
17047	-1e-05	3e-05	-6e-05	-1e-05	2e-05	-0.00011	-7e-05	-3e-05	4
17048	-1e-05	3e-05	-6e-05	-1e-05	2e-05	-0.00011	-7e-05	-3e-05	4
17049	-1e-05	3e-05	-6e-05	-1e-05	2e-05	-0.00011	-7e-05	-3e-05	4
17050	-1e-05	3e-05	-6e-05	-1e-05	2e-05	-0.00011	-7e-05	-3e-05	4
17051	-1e-05	3e-05	-6e-05	-1e-05	2e-05	-0.00011	-7e-05	-3e-05	4
17052	-1e-05	3e-05	-6e-05	-1e-05	2e-05	-0.00011	-7e-05	-3e-05	4
17053	-1e-05	3e-05	-6e-05	-1e-05	2e-05	-0.00011	-7e-05	-3e-05	4
17054	-1e-05	3e-05	-6e-05	-1e-05	2e-05	-0.00011	-7e-05	-3e-05	4
17055	-1e-05	3e-05	-6e-05	-1e-05	2e-05	-0.00011	-7e-05	-3e-05	4
17056	-1e-05	3e-05	-6e-05	-1e-05	2e-05	-0.00011	-7e-05	-3e-05	4
17057	-1e-05	3e-05	-6e-05	-1e-05	2e-05	-0.00011	-7e-05	-3e-05	4
17058	-1e-05	3e-05	-6e-05	-1e-05	2e-05	-0.00011	-7e-05	-3e-05	4
17059	-1e-05	3e-05	-6e-05	-1e-05	2e-05	-0.00011	-7e-05	-3e-05	4
17060	-1e-05	3e-05	-6e-05	-1e-05	2e-05	-0.00011	-7e-05	-3e-05	4
17061	-1e-05	3e-05	-6e-05	-1e-05	2e-05	-0.00011	-7e-05	-3e-05	4
17062	-1e-05	3e-05	-6e-05	-1e-05	2e-05	-0.00011	-7e-05	-3e-05	4
17063	-1e-05	3e-05	-6e-05	-1e-05	2e-05	-0.00011	-7e-05	-3e-05	4
17064	-1e-05	3e-05	-6e-05	-1e-05	2e-05	-0.00011	-7e-05	-3e-05	4
17065	-1e-05	3e-05	-6e-05	-1e-05	2e-05	-0.00011	-7e-05	-3e-05	4
17066	-1e-05	3e-05	-6e-05	-1e-05	2e-05	-0.00011	-7e-05	-3e-05	4
17067	-1e-05	3e-05	-6e-05	-1e-05	2e-05	-0.00011	-7e-05	-3e-05	4
17068	-1e-05	3e-05	-6e-05	-1e-05	2e-05	-0.00011	-7e-05	-3e-05	4
17069	-1e-05	3e-05	-6e-05	-1e-05	2e-05	-0.00011	-7e-05	-3e-05	4
17070	-1e-05	3e-05	-6e-05	-1e-05	2e-05	-0.00011	-7e-05	-3e-05	4
17071	-1e-05	3e-05	-6e-05	-1e-05	2e-05	-0.00011	-7e-05	-3e-05	4
17072	-1e-05	3e-05	-6e-05	-1e-05	2e-05	-0.00011	-7e-05	-3e-05	4
17073	-2e-05	-8e-05	0.00012	0.00017	0.00011	-0.00014	-2e-05	-1e-05	4
17074	6e-05	0.00011	0.00015	0.00025	0.0003	0.00032	1e-05	3e-05	4
17075	6e-05	0.00011	0.00015	0.00025	0.0003	0.00032	1e-05	3e-05	4
17076	6e-05	0.00011	0.00015	0.00025	0.0003	0.00032	1e-05	3e-05	4
17077	6e-05	0.00011	0.00015	0.00025	0.0003	0.00032	1e-05	3e-05	4
17078	6e-05	0.00011	0.00015	0.00025	0.0003	0.00032	1e-05	3e-05	4
17079	6e-05	0.00011	0.00015	0.00025	0.0003	0.00032	1e-05	3e-05	4
17080	6e-05	0.00011	0.00015	0.00025	0.0003	0.00032	1e-05	3e-05	4
17081	6e-05	0.00011	0.00015	0.00025	0.0003	0.00032	1e-05	3e-05	4
17082	6e-05	0.00011	0.00015	0.00025	0.0003	0.00032	1e-05	3e-05	4
17083	6e-05	0.00011	0.00015	0.00025	0.0003	0.00032	1e-05	3e-05	4
17084	6e-05	0.00011	0.00015	0.00025	0.0003	0.00032	1e-05	3e-05	4
17085	6e-05	0.00011	0.00015	0.00025	0.0003	0.00032	1e-05	3e-05	4
17086	6e-05	0.00011	0.00015	0.00025	0.0003	0.00032	1e-05	3e-05	4
17089	6e-05	0.00011	0.00015	0.00025	0.0003	0.00032	1e-05	3e-05	4
17090	6e-05	0.00011	0.00015	0.00025	0.0003	0.00032	1e-05	3e-05	4
17091	6e-05	0.00011	0.00015	0.00025	0.0003	0.00032	1e-05	3e-05	4
17092	6e-05	0.00011	0.00015	0.00025	0.0003	0.00032	1e-05	3e-05	4
17093	6e-05	0.00011	0.00015	0.00025	0.0003	0.00032	1e-05	3e-05	4
17094	6e-05	0.00011	0.00015	0.00025	0.0003	0.00032	1e-05	3e-05	4
17095	6e-05	0.00011	0.00015	0.00025	0.0003	0.00032	1e-05	3e-05	4
17096	1e-05	4e-05	4e-05	-5e-05	-0.00018	6e-05	4e-05	1e-05	4
17097	-6e-05	-9e-05	-2e-05	0.00013	6e-05	5e-05	0	-1e-05	4
17098	-6e-05	-9e-05	-2e-05	0.00013	6e-05	5e-05	0	-1e-05	4
17099	-6e-05	-9e-05	-2e-05	0.00013	6e-05	5e-05	0	-1e-05	4
17100	-6e-05	-9e-05	-2e-05	0.00013	6e-05	5e-05	0	-1e-05	4
17101	-6e-05	-9e-05	-2e-05	0.00013	6e-05	5e-05	0	-1e-05	4
17102	-6e-05	-9e-05	-2e-05	0.00013	6e-05	5e-05	0	-1e-05	4
17103	-6e-05	-9e-05	-2e-05	0.00013	6e-05	5e-05	0	-1e-05	4
17104	-6e-05	-9e-05	-2e-05	0.00013	6e-05	5e-05	0	-1e-05	4
17105	-6e-05	-9e-05	-2e-05	0.00013	6e-05	5e-05	0	-1e-05	4
17106	-6e-05	-9e-05	-2e-05	0.00013	6e-05	5e-05	0	-1e-05	4
17107	-6e-05	-9e-05	-2e-05	0.00013	6e-05	5e-05	0	-1e-05	4
17108	-6e-05	-9e-05	-2e-05	0.00013	6e-05	5e-05	0	-1e-05	4
17109	-6e-05	-9e-05	-2e-05	0.00013	6e-05	5e-05	0	-1e-05	4
17110	-6e-05	-9e-05	-2e-05	0.00013	6e-05	5e-05	0	-1e-05	4
17111	-6e-05	-9e-05	-2e-05	0.00013	6e-05	5e-05	0	-1e-05	4
17112	-6e-05	-9e-05	-2e-05	0.00013	6e-05	5e-05	0	-1e-05	4
17113	-6e-05	-9e-05	-2e-05	0.00013	6e-05	5e-05	0	-1e-05	4
17114	-6e-05	-9e-05	-2e-05	0.00013	6e-05	5e-05	0	-1e-05	4
17115	-6e-05	-9e-05	-2e-05	0.00013	6e-05	5e-05	0	-1e-05	4
17116	-6e-05	-9e-05	-2e-05	0.00013	6e-05	5e-05	0	-1e-05	4
17117	-6e-05	-9e-05	-2e-05	0.00013	6e-05	5e-05	0	-1e-05	4
17118	-6e-05	-9e-05	-2e-05	0.00013	6e-05	5e-05	0	-1e-05	4
17119	-6e-05	-9e-05	-2e-05	0.00013	6e-05	5e-05	0	-1e-05	4
17120	-6e-05	-9e-05	-2e-05	0.00013	6e-05	5e-05	0	-1e-05	4
17121	-6e-05	-9e-05	-2e-05	0.00013	6e-05	5e-05	0	-1e-05	4
17122	-6e-05	-9e-05	-2e-05	0.00013	6e-05	5e-05	0	-1e-05	4
17123	-6e-05	-9e-05	-2e-05	0.00013	6e-05	5e-05	0	-1e-05	4
17124	-6e-05	-9e-05	-2e-05	0.00013	6e-05	5e-05	0	-1e-05	4
17125	-6e-05	-9e-05	-2e-05	0.00013	6e-05	5e-05	0	-1e-05	4
17126	-6e-05	-9e-05	-2e-05	0.00013	6e-05	5e-05	0	-1e-05	4
17127	-6e-05	-9e-05	-2e-05	0.00013	6e-05	5e-05	0	-1e-05	4
17128	-6e-05	-9e-05	-2e-05	0.00013	6e-05	5e-05	0	-1e-05	4
17129	-6e-05	-9e-05	-2e-05	0.00013	6e-05	5e-05	0	-1e-05	4
17130	-6e-05	-9e-05	-2e-05	0.00013	6e-05	5e-05	0	-1e-05	4
17131	-6e-05	-9e-05	-2e-05	0.00013	6e-05	5e-05	0	-1e-05	4
17132	-6e-05	-9e-05	-2e-05	0.00013	6e-05	5e-05	0	-1e-05	4
17133	-6e-05	-9e-05	-2e-05	0.00013	6e-05	5e-05	0	-1e-05	4
17134	-6e-05	-9e-05	-2e-05	0.00013	6e-05	5e-05	0	-1e-05	4
17135	-6e-05	-9e-05	-2e-05	0.00013	6e-05	5e-05	0	-1e-05	4
17136	-6e-05	-9e-05	-2e-05	0.00013	6e-05	5e-05	0	-1e-05	4
17139	-6e-05	-9e-05	-2e-05	0.00013	6e-05	5e-05	0	-1e-05	4
17140	-6e-05	-9e-05	-2e-05	0.00013	6e-05	5e-05	0	-1e-05	4
17141	-6e-05	-9e-05	-2e-05	0.00013	6e-05	5e-05	0	-1e-05	4
17142	-6e-05	-9e-05	-2e-05	0.00013	6e-05	5e-05	0	-1e-05	4
17143	-6e-05	-9e-05	-2e-05	0.00013	6e-05	5e-05	0	-1e-05	4
17144	-6e-05	-9e-05	-2e-05	0.00013	6e-05	5e-05	0	-1e-05	4
17145	-6e-05	-9e-05	-2e-05	0.00013	6e-05	5e-05	0	-1e-05	4
17146	-6e-05	-9e-05	-2e-05	0.00013	6e-05	5e-05	0	-1e-05	4
17147	-6e-05	-9e-05	-2e-05	0.00013	6e-05	5e-05	0	-1e-05	4
17148	-6e-05	-9e-05	-2e-05	0.00013	6e-05	5e-05	0	-1e-05	4
17149	-6e-05	-9e-05	-2e-05	0.00013	6e-05	5e-05	0	-1e-05	4
17150	-6e-05	-9e-05	-2e-05	0.00013	6e-05	5e-05	0	-1e-05	4
17151	-6e-05	-9e-05	-2e-05	0.00013	6e-05	5e-05	0	-1e-05	4
17152	-6e-05	-9e-05	-2e-05	0.00013	6e-05	5e-05	0	-1e-05	4
17153	-6e-05	-9e-05	-2e-05	0.00013	6e-05	5e-05	0	-1e-05	4
17154	-6e-05	-9e-05	-2e-05	0.00013	6e-05	5e-05	0	-1e-05	4
17155	-6e-05	-9e-05	-2e-05	0.00013	6e-05	5e-05	0	-1e-05	4
17156	-6e-05	-9e-05	-2e-05	0.00013	6e-05	5e-05	0	-1e-05	4
17157	-6e-05	-9e-05	-2e-05	0.00013	6e-05	5e-05	0	-1e-05	4
17158	-6e-05	-9e-05	-2e-05	0.00013	6e-05	5e-05	0	-1e-05	4
17159	-6e-05	-9e-05	-2e-05	0.00013	6e-05	5e-05	0	-1e-05	4
17160	-6e-05	-9e-05	-2e-05	0.00013	6e-05	5e-05	0	-1e-05	4
17161	-6e-05	-9e-05	-2e-05	0.00013	6e-05	5e-05	0	-1e-05	4
17162	-6e-05	-9e-05	-2e-05	0.00013	6e-05	5e-05	0	-1e-05	4
17163	-6e-05	-9e-05	-2e-05	0.00013	6e-05	5e-05	0	-1e-05	4
17164	-6e-05	-9e-05	-2e-05	0.00013	6e-05	5e-05	0	-1e-05	4
17165	-6e-05	-9e-05	-2e-05	0.00013	6e-05	5e-05	0	-1e-05	4
17166	-6e-05	-9e-05	-2e-05	0.00013	6e-05	5e-05	0	-1e-05	4
17167	-6e-05	-9e-05	-2e-05	0.00013	6e-05	5e-05	0	-1e-05	4
17168	-6e-05	-9e-05	-2e-05	0.00013	6e-05	5e-05	0	-1e-05	4
17169	-6e-05	-9e-05	-2e-05	0.00013	6e-05	5e-05	0	-1e-05	4
17170	-1e-05	3e-05	5e-05	-0.00013	-0.00022	-0.00011	-6e-05	-2e-05	4
17171	-1e-05	3e-05	5e-05	-0.00013	-0.00022	-0.00011	-6e-05	-2e-05	4
17172	-2e-05	-8e-05	-0.00021	-0.00019	-0.00031	-0.00014	-4e-05	3e-05	4
17173	-2e-05	-8e-05	-0.00021	-0.00019	-0.00031	-0.00014	-4e-05	3e-05	4
17174	-2e-05	-8e-05	-0.00021	-0.00019	-0.00031	-0.00014	-4e-05	3e-05	4
17175	-2e-05	-8e-05	-0.00021	-0.00019	-0.00031	-0.00014	-4e-05	3e-05	4
17176	-2e-05	-8e-05	-0.00021	-0.00019	-0.00031	-0.00014	-4e-05	3e-05	4
17177	0	9e-05	0.00017	0.00019	0.00016	-1e-05	-3e-05	-3e-05	4
17178	-3e-05	-0.0001	-0.0002	-0.00028	-0.00051	-0.00022	-0.00013	-7e-05	4
17179	-3e-05	-0.0001	-0.0002	-0.00028	-0.00051	-0.00022	-0.00013	-7e-05	4
17180	-3e-05	-0.0001	-0.0002	-0.00028	-0.00051	-0.00022	-0.00013	-7e-05	4
17181	-3e-05	-0.0001	-0.0002	-0.00028	-0.00051	-0.00022	-0.00013	-7e-05	4
17182	-3e-05	-0.0001	-0.0002	-0.00028	-0.00051	-0.00022	-0.00013	-7e-05	4
17183	-3e-05	-0.0001	-0.0002	-0.00028	-0.00051	-0.00022	-0.00013	-7e-05	4
17184	-3e-05	-0.0001	-0.0002	-0.00028	-0.00051	-0.00022	-0.00013	-7e-05	4
17185	-3e-05	-0.0001	-0.0002	-0.00028	-0.00051	-0.00022	-0.00013	-7e-05	4
17186	-3e-05	-0.0001	-0.0002	-0.00028	-0.00051	-0.00022	-0.00013	-7e-05	4
17189	-3e-05	-0.0001	-0.0002	-0.00028	-0.00051	-0.00022	-0.00013	-7e-05	4
17191	-3e-05	-0.0001	-0.0002	-0.00028	-0.00051	-0.00022	-0.00013	-7e-05	4
17192	-3e-05	-0.0001	-0.0002	-0.00028	-0.00051	-0.00022	-0.00013	-7e-05	4
17193	-3e-05	-0.0001	-0.0002	-0.00028	-0.00051	-0.00022	-0.00013	-7e-05	4
17194	-3e-05	-0.0001	-0.0002	-0.00028	-0.00051	-0.00022	-0.00013	-7e-05	4
17195	-3e-05	-0.0001	-0.0002	-0.00028	-0.00051	-0.00022	-0.00013	-7e-05	4
17196	-3e-05	-0.0001	-0.0002	-0.00028	-0.00051	-0.00022	-0.00013	-7e-05	4
17197	-3e-05	-0.0001	-0.0002	-0.00028	-0.00051	-0.00022	-0.00013	-7e-05	4
17198	-5e-05	-0.0001	2e-05	-0.00016	-0.00011	-0.00012	-7e-05	-4e-05	4
17199	-5e-05	-0.0001	2e-05	-0.00016	-0.00011	-0.00012	-7e-05	-4e-05	4
17200	-5e-05	-0.0001	2e-05	-0.00016	-0.00011	-0.00012	-7e-05	-4e-05	4
17201	-5e-05	-0.0001	2e-05	-0.00016	-0.00011	-0.00012	-7e-05	-4e-05	4
17202	-5e-05	-0.0001	2e-05	-0.00016	-0.00011	-0.00012	-7e-05	-4e-05	4
17203	-5e-05	-0.0001	2e-05	-0.00016	-0.00011	-0.00012	-7e-05	-4e-05	4
17204	-5e-05	-0.0001	2e-05	-0.00016	-0.00011	-0.00012	-7e-05	-4e-05	4
17205	-5e-05	-0.0001	2e-05	-0.00016	-0.00011	-0.00012	-7e-05	-4e-05	4
17206	-5e-05	-0.0001	2e-05	-0.00016	-0.00011	-0.00012	-7e-05	-4e-05	4
17207	0	-3e-05	-0.00013	-0.00024	-0.00032	-0.00014	-8e-05	-4e-05	4
17208	0	-3e-05	-0.00013	-0.00024	-0.00032	-0.00014	-8e-05	-4e-05	4
17209	0	-3e-05	-0.00013	-0.00024	-0.00032	-0.00014	-8e-05	-4e-05	4
17210	0	-3e-05	-0.00013	-0.00024	-0.00032	-0.00014	-8e-05	-4e-05	4
17211	0	-3e-05	-0.00013	-0.00024	-0.00032	-0.00014	-8e-05	-4e-05	4
17212	0	-3e-05	-0.00013	-0.00024	-0.00032	-0.00014	-8e-05	-4e-05	4
17213	0	-3e-05	-0.00013	-0.00024	-0.00032	-0.00014	-8e-05	-4e-05	4
17214	0	-3e-05	-0.00013	-0.00024	-0.00032	-0.00014	-8e-05	-4e-05	4
17215	0	-3e-05	-0.00013	-0.00024	-0.00032	-0.00014	-8e-05	-4e-05	4
17216	0	-3e-05	-0.00013	-0.00024	-0.00032	-0.00014	-8e-05	-4e-05	4
17217	0	-3e-05	-0.00013	-0.00024	-0.00032	-0.00014	-8e-05	-4e-05	4
17218	0	-3e-05	-0.00013	-0.00024	-0.00032	-0.00014	-8e-05	-4e-05	4
17219	0	-3e-05	-0.00013	-0.00024	-0.00032	-0.00014	-8e-05	-4e-05	4
17220	0	-3e-05	-0.00013	-0.00024	-0.00032	-0.00014	-8e-05	-4e-05	4
17221	0	-3e-05	-0.00013	-0.00024	-0.00032	-0.00014	-8e-05	-4e-05	4
17222	0	-3e-05	-0.00013	-0.00024	-0.00032	-0.00014	-8e-05	-4e-05	4
17223	3e-05	0.00013	0.0002	0.00012	4e-05	4e-05	8e-05	5e-05	4
17224	3e-05	0.00013	0.0002	0.00012	4e-05	4e-05	8e-05	5e-05	4
17225	3e-05	0.00013	0.0002	0.00012	4e-05	4e-05	8e-05	5e-05	4
17226	3e-05	0.00013	0.0002	0.00012	4e-05	4e-05	8e-05	5e-05	4
17227	3e-05	0.00013	0.0002	0.00012	4e-05	4e-05	8e-05	5e-05	4
17228	1e-05	-6e-05	-0.00017	-9e-05	0.00026	0.00021	0.0001	4e-05	4
17229	-2e-05	-6e-05	1e-05	-0.00016	-0.00021	0.0001	8e-05	1e-05	4
17230	-2e-05	-6e-05	1e-05	-0.00016	-0.00021	0.0001	8e-05	1e-05	4
17231	-2e-05	-6e-05	1e-05	-0.00016	-0.00021	0.0001	8e-05	1e-05	4
17232	-2e-05	-6e-05	1e-05	-0.00016	-0.00021	0.0001	8e-05	1e-05	4
17233	-2e-05	-6e-05	1e-05	-0.00016	-0.00021	0.0001	8e-05	1e-05	4
17234	-2e-05	-6e-05	1e-05	-0.00016	-0.00021	0.0001	8e-05	1e-05	4
17235	-8e-05	-0.00018	-0.00014	-9e-05	9e-05	-3e-05	-3e-05	-6e-05	4
17236	-8e-05	-0.00018	-0.00014	-9e-05	9e-05	-3e-05	-3e-05	-6e-05	4
17238	-8e-05	-0.00018	-0.00014	-9e-05	9e-05	-3e-05	-3e-05	-6e-05	4
17239	-8e-05	-0.00018	-0.00014	-9e-05	9e-05	-3e-05	-3e-05	-6e-05	4
17240	-8e-05	-0.00018	-0.00014	-9e-05	9e-05	-3e-05	-3e-05	-6e-05	4
17241	-8e-05	-0.00018	-0.00014	-9e-05	9e-05	-3e-05	-3e-05	-6e-05	4
17242	-8e-05	-0.00018	-0.00014	-9e-05	9e-05	-3e-05	-3e-05	-6e-05	4
17243	-8e-05	-0.00018	-0.00014	-9e-05	9e-05	-3e-05	-3e-05	-6e-05	4
17244	-8e-05	-0.00018	-0.00014	-9e-05	9e-05	-3e-05	-3e-05	-6e-05	4
17245	-8e-05	-0.00018	-0.00014	-9e-05	9e-05	-3e-05	-3e-05	-6e-05	4
17246	-8e-05	-0.00018	-0.00014	-9e-05	9e-05	-3e-05	-3e-05	-6e-05	4
17247	-8e-05	-0.00018	-0.00014	-9e-05	9e-05	-3e-05	-3e-05	-6e-05	4
17248	-8e-05	-0.00018	-0.00014	-9e-05	9e-05	-3e-05	-3e-05	-6e-05	4
17249	-8e-05	-0.00018	-0.00014	-9e-05	9e-05	-3e-05	-3e-05	-6e-05	4
17250	-8e-05	-0.00018	-0.00014	-9e-05	9e-05	-3e-05	-3e-05	-6e-05	4
17251	0	5e-05	3e-05	2e-05	0.00017	-5e-05	4e-05	2e-05	4
17252	0	5e-05	3e-05	2e-05	0.00017	-5e-05	4e-05	2e-05	4
17253	-1e-05	1e-05	-3e-05	2e-05	6e-05	4e-05	-2e-05	-1e-05	4
17254	-1e-05	1e-05	-3e-05	2e-05	6e-05	4e-05	-2e-05	-1e-05	4
17255	-1e-05	1e-05	-3e-05	2e-05	6e-05	4e-05	-2e-05	-1e-05	4
17256	-1e-05	1e-05	-3e-05	2e-05	6e-05	4e-05	-2e-05	-1e-05	4
17257	-1e-05	1e-05	-3e-05	2e-05	6e-05	4e-05	-2e-05	-1e-05	4
17258	-1e-05	1e-05	-3e-05	2e-05	6e-05	4e-05	-2e-05	-1e-05	4
17259	-1e-05	1e-05	-3e-05	2e-05	6e-05	4e-05	-2e-05	-1e-05	4
17260	-1e-05	1e-05	-3e-05	2e-05	6e-05	4e-05	-2e-05	-1e-05	4
17261	-1e-05	1e-05	-3e-05	2e-05	6e-05	4e-05	-2e-05	-1e-05	4
17262	-1e-05	1e-05	-3e-05	2e-05	6e-05	4e-05	-2e-05	-1e-05	4
17263	-1e-05	1e-05	-3e-05	2e-05	6e-05	4e-05	-2e-05	-1e-05	4
17264	-1e-05	1e-05	-3e-05	2e-05	6e-05	4e-05	-2e-05	-1e-05	4
17265	-1e-05	1e-05	-3e-05	2e-05	6e-05	4e-05	-2e-05	-1e-05	4
17266	-1e-05	1e-05	-3e-05	2e-05	6e-05	4e-05	-2e-05	-1e-05	4
17267	-1e-05	1e-05	-3e-05	2e-05	6e-05	4e-05	-2e-05	-1e-05	4
17268	-1e-05	1e-05	-3e-05	2e-05	6e-05	4e-05	-2e-05	-1e-05	4
17269	-1e-05	1e-05	-3e-05	2e-05	6e-05	4e-05	-2e-05	-1e-05	4
17270	-1e-05	1e-05	-3e-05	2e-05	6e-05	4e-05	-2e-05	-1e-05	4
17271	-1e-05	1e-05	-3e-05	2e-05	6e-05	4e-05	-2e-05	-1e-05	4
17272	-1e-05	1e-05	-3e-05	2e-05	6e-05	4e-05	-2e-05	-1e-05	4
17273	-1e-05	1e-05	-3e-05	2e-05	6e-05	4e-05	-2e-05	-1e-05	4
17274	-1e-05	1e-05	-3e-05	2e-05	6e-05	4e-05	-2e-05	-1e-05	4
17275	-1e-05	1e-05	-3e-05	2e-05	6e-05	4e-05	-2e-05	-1e-05	4
17276	-1e-05	1e-05	-3e-05	2e-05	6e-05	4e-05	-2e-05	-1e-05	4
17277	-1e-05	1e-05	-3e-05	2e-05	6e-05	4e-05	-2e-05	-1e-05	4
17278	-1e-05	1e-05	-3e-05	2e-05	6e-05	4e-05	-2e-05	-1e-05	4
17279	-1e-05	1e-05	-3e-05	2e-05	6e-05	4e-05	-2e-05	-1e-05	4
17280	4e-05	1e-05	2e-05	-4e-05	0	0.00019	3e-05	1e-05	4
17281	4e-05	1e-05	2e-05	-4e-05	0	0.00019	3e-05	1e-05	4
17282	4e-05	1e-05	2e-05	-4e-05	0	0.00019	3e-05	1e-05	4
17283	4e-05	1e-05	2e-05	-4e-05	0	0.00019	3e-05	1e-05	4
17284	4e-05	1e-05	2e-05	-4e-05	0	0.00019	3e-05	1e-05	4
17285	4e-05	1e-05	2e-05	-4e-05	0	0.00019	3e-05	1e-05	4
17286	4e-05	1e-05	2e-05	-4e-05	0	0.00019	3e-05	1e-05	4
17289	4e-05	1e-05	2e-05	-4e-05	0	0.00019	3e-05	1e-05	4
17290	4e-05	1e-05	2e-05	-4e-05	0	0.00019	3e-05	1e-05	4
17291	4e-05	1e-05	2e-05	-4e-05	0	0.00019	3e-05	1e-05	4
17292	4e-05	1e-05	2e-05	-4e-05	0	0.00019	3e-05	1e-05	4
17293	4e-05	1e-05	2e-05	-4e-05	0	0.00019	3e-05	1e-05	4
17294	4e-05	1e-05	2e-05	-4e-05	0	0.00019	3e-05	1e-05	4
17295	4e-05	1e-05	2e-05	-4e-05	0	0.00019	3e-05	1e-05	4
17296	4e-05	1e-05	2e-05	-4e-05	0	0.00019	3e-05	1e-05	4
17297	-8e-05	-9e-05	0	-0.00012	1e-05	-0.00011	-0.0001	-0.00012	4
17298	-5e-05	0	-5e-05	0.00013	-0.00019	-5e-05	-9e-05	-5e-05	4
17299	-3e-05	-9e-05	-0.00022	-0.00019	1e-05	-6e-05	-6e-05	-1e-05	4
17300	-3e-05	-9e-05	-0.00022	-0.00019	1e-05	-6e-05	-6e-05	-1e-05	4
17301	-3e-05	-9e-05	-0.00022	-0.00019	1e-05	-6e-05	-6e-05	-1e-05	4
17302	-3e-05	-9e-05	-0.00022	-0.00019	1e-05	-6e-05	-6e-05	-1e-05	4
17303	-3e-05	-9e-05	-0.00022	-0.00019	1e-05	-6e-05	-6e-05	-1e-05	4
17304	-3e-05	-9e-05	-0.00022	-0.00019	1e-05	-6e-05	-6e-05	-1e-05	4
17305	-3e-05	-9e-05	-0.00022	-0.00019	1e-05	-6e-05	-6e-05	-1e-05	4
17306	-3e-05	-9e-05	-0.00022	-0.00019	1e-05	-6e-05	-6e-05	-1e-05	4
17307	-3e-05	-9e-05	-0.00022	-0.00019	1e-05	-6e-05	-6e-05	-1e-05	4
17308	-3e-05	-9e-05	-0.00022	-0.00019	1e-05	-6e-05	-6e-05	-1e-05	4
17309	-3e-05	-9e-05	-0.00022	-0.00019	1e-05	-6e-05	-6e-05	-1e-05	4
17310	-3e-05	-9e-05	-0.00022	-0.00019	1e-05	-6e-05	-6e-05	-1e-05	4
17311	4e-05	0.0001	5e-05	8e-05	7e-05	-1e-05	2e-05	1e-05	4
17312	4e-05	0.0001	5e-05	8e-05	7e-05	-1e-05	2e-05	1e-05	4
17313	1e-05	4e-05	0.00012	-4e-05	-0.00012	-7e-05	-6e-05	-5e-05	4
17315	1e-05	4e-05	0.00012	-4e-05	-0.00012	-7e-05	-6e-05	-5e-05	4
17316	1e-05	4e-05	0.00012	-4e-05	-0.00012	-7e-05	-6e-05	-5e-05	4
17317	1e-05	4e-05	0.00012	-4e-05	-0.00012	-7e-05	-6e-05	-5e-05	4
17318	1e-05	4e-05	0.00012	-4e-05	-0.00012	-7e-05	-6e-05	-5e-05	4
17319	1e-05	4e-05	0.00012	-4e-05	-0.00012	-7e-05	-6e-05	-5e-05	4
17320	1e-05	4e-05	0.00012	-4e-05	-0.00012	-7e-05	-6e-05	-5e-05	4
17321	1e-05	4e-05	0.00012	-4e-05	-0.00012	-7e-05	-6e-05	-5e-05	4
17322	1e-05	4e-05	0.00012	-4e-05	-0.00012	-7e-05	-6e-05	-5e-05	4
17323	1e-05	4e-05	0.00012	-4e-05	-0.00012	-7e-05	-6e-05	-5e-05	4
17324	1e-05	4e-05	0.00012	-4e-05	-0.00012	-7e-05	-6e-05	-5e-05	4
17325	1e-05	4e-05	0.00012	-4e-05	-0.00012	-7e-05	-6e-05	-5e-05	4
17326	1e-05	4e-05	0.00012	-4e-05	-0.00012	-7e-05	-6e-05	-5e-05	4
17327	1e-05	4e-05	0.00012	-4e-05	-0.00012	-7e-05	-6e-05	-5e-05	4
17328	1e-05	4e-05	0.00012	-4e-05	-0.00012	-7e-05	-6e-05	-5e-05	4
17329	1e-05	4e-05	0.00012	-4e-05	-0.00012	-7e-05	-6e-05	-5e-05	4
17330	1e-05	4e-05	0.00012	-4e-05	-0.00012	-7e-05	-6e-05	-5e-05	4
17331	1e-05	4e-05	0.00012	-4e-05	-0.00012	-7e-05	-6e-05	-5e-05	4
17332	1e-05	4e-05	0.00012	-4e-05	-0.00012	-7e-05	-6e-05	-5e-05	4
17333	1e-05	4e-05	0.00012	-4e-05	-0.00012	-7e-05	-6e-05	-5e-05	4
17334	3e-05	1e-05	4e-05	0.00024	0.00059	0.00023	0.00013	9e-05	4
17335	-1e-05	1e-05	4e-05	-4e-05	-0.00014	-0.0001	-6e-05	-4e-05	4
17336	-1e-05	1e-05	4e-05	-4e-05	-0.00014	-0.0001	-6e-05	-4e-05	4
17339	-1e-05	1e-05	4e-05	-4e-05	-0.00014	-0.0001	-6e-05	-4e-05	4
17340	-1e-05	1e-05	4e-05	-4e-05	-0.00014	-0.0001	-6e-05	-4e-05	4
17341	-1e-05	1e-05	4e-05	-4e-05	-0.00014	-0.0001	-6e-05	-4e-05	4
17342	-1e-05	1e-05	4e-05	-4e-05	-0.00014	-0.0001	-6e-05	-4e-05	4
17343	-1e-05	1e-05	4e-05	-4e-05	-0.00014	-0.0001	-6e-05	-4e-05	4
17344	-1e-05	1e-05	4e-05	-4e-05	-0.00014	-0.0001	-6e-05	-4e-05	4
17345	-1e-05	1e-05	4e-05	-4e-05	-0.00014	-0.0001	-6e-05	-4e-05	4
17346	-1e-05	1e-05	4e-05	-4e-05	-0.00014	-0.0001	-6e-05	-4e-05	4
17347	-1e-05	1e-05	4e-05	-4e-05	-0.00014	-0.0001	-6e-05	-4e-05	4
17348	-4e-05	0	-1e-05	-0.00028	-0.00031	-0.0002	-0.0001	-3e-05	4
17349	-4e-05	0	-1e-05	-0.00028	-0.00031	-0.0002	-0.0001	-3e-05	4
17350	-4e-05	0	-1e-05	-0.00028	-0.00031	-0.0002	-0.0001	-3e-05	4
17351	-4e-05	0	-1e-05	-0.00028	-0.00031	-0.0002	-0.0001	-3e-05	4
17352	-4e-05	0	-1e-05	-0.00028	-0.00031	-0.0002	-0.0001	-3e-05	4
17353	-4e-05	0	-1e-05	-0.00028	-0.00031	-0.0002	-0.0001	-3e-05	4
17354	-4e-05	0	-1e-05	-0.00028	-0.00031	-0.0002	-0.0001	-3e-05	4
17355	1e-05	7e-05	0.00027	0.00029	0.00026	0.00012	-2e-05	-1e-05	4
17356	1e-05	7e-05	0.00027	0.00029	0.00026	0.00012	-2e-05	-1e-05	4
17357	1e-05	7e-05	0.00027	0.00029	0.00026	0.00012	-2e-05	-1e-05	4
17358	1e-05	7e-05	0.00027	0.00029	0.00026	0.00012	-2e-05	-1e-05	4
17359	1e-05	7e-05	0.00027	0.00029	0.00026	0.00012	-2e-05	-1e-05	4
17360	1e-05	7e-05	0.00027	0.00029	0.00026	0.00012	-2e-05	-1e-05	4
17361	1e-05	7e-05	0.00027	0.00029	0.00026	0.00012	-2e-05	-1e-05	4
17362	1e-05	7e-05	0.00027	0.00029	0.00026	0.00012	-2e-05	-1e-05	4
17363	1e-05	7e-05	0.00027	0.00029	0.00026	0.00012	-2e-05	-1e-05	4
17364	1e-05	7e-05	0.00027	0.00029	0.00026	0.00012	-2e-05	-1e-05	4
17365	1e-05	7e-05	0.00027	0.00029	0.00026	0.00012	-2e-05	-1e-05	4
17366	1e-05	7e-05	0.00027	0.00029	0.00026	0.00012	-2e-05	-1e-05	4
17367	1e-05	7e-05	0.00027	0.00029	0.00026	0.00012	-2e-05	-1e-05	4
17368	1e-05	7e-05	0.00027	0.00029	0.00026	0.00012	-2e-05	-1e-05	4
17369	1e-05	7e-05	0.00027	0.00029	0.00026	0.00012	-2e-05	-1e-05	4
17370	1e-05	7e-05	0.00027	0.00029	0.00026	0.00012	-2e-05	-1e-05	4
17371	-2e-05	-2e-05	3e-05	0.00011	0.00018	-1e-05	-1e-05	-2e-05	4
17372	-2e-05	-2e-05	3e-05	0.00011	0.00018	-1e-05	-1e-05	-2e-05	4
17373	-4e-05	-6e-05	-0.00015	-7e-05	0.00031	-0.00013	-0.0002	-8e-05	4
17374	-4e-05	-6e-05	-0.00015	-7e-05	0.00031	-0.00013	-0.0002	-8e-05	4
17375	-4e-05	-6e-05	-0.00015	-7e-05	0.00031	-0.00013	-0.0002	-8e-05	4
17376	-4e-05	-6e-05	-0.00015	-7e-05	0.00031	-0.00013	-0.0002	-8e-05	4
17377	-4e-05	-6e-05	-0.00015	-7e-05	0.00031	-0.00013	-0.0002	-8e-05	4
17378	-4e-05	-6e-05	-0.00015	-7e-05	0.00031	-0.00013	-0.0002	-8e-05	4
17379	-4e-05	-6e-05	-0.00015	-7e-05	0.00031	-0.00013	-0.0002	-8e-05	4
17380	-4e-05	-6e-05	-0.00015	-7e-05	0.00031	-0.00013	-0.0002	-8e-05	4
17381	-4e-05	-6e-05	-0.00015	-7e-05	0.00031	-0.00013	-0.0002	-8e-05	4
17382	-4e-05	-6e-05	-0.00015	-7e-05	0.00031	-0.00013	-0.0002	-8e-05	4
17383	-4e-05	-6e-05	-0.00015	-7e-05	0.00031	-0.00013	-0.0002	-8e-05	4
17384	-4e-05	-6e-05	-0.00015	-7e-05	0.00031	-0.00013	-0.0002	-8e-05	4
17385	-4e-05	-6e-05	-0.00015	-7e-05	0.00031	-0.00013	-0.0002	-8e-05	4
17386	-4e-05	-6e-05	-0.00015	-7e-05	0.00031	-0.00013	-0.0002	-8e-05	4
17388	-4e-05	-6e-05	-0.00015	-7e-05	0.00031	-0.00013	-0.0002	-8e-05	4
17389	-4e-05	-6e-05	-0.00015	-7e-05	0.00031	-0.00013	-0.0002	-8e-05	4
17390	-4e-05	-6e-05	-0.00015	-7e-05	0.00031	-0.00013	-0.0002	-8e-05	4
17391	-4e-05	-6e-05	-0.00015	-7e-05	0.00031	-0.00013	-0.0002	-8e-05	4
17392	-4e-05	-6e-05	-0.00015	-7e-05	0.00031	-0.00013	-0.0002	-8e-05	4
17393	-4e-05	-6e-05	-0.00015	-7e-05	0.00031	-0.00013	-0.0002	-8e-05	4
17394	-4e-05	-6e-05	-0.00015	-7e-05	0.00031	-0.00013	-0.0002	-8e-05	4
17395	-4e-05	-6e-05	-0.00015	-7e-05	0.00031	-0.00013	-0.0002	-8e-05	4
17396	-4e-05	-6e-05	-0.00015	-7e-05	0.00031	-0.00013	-0.0002	-8e-05	4
17397	-4e-05	-6e-05	-0.00015	-7e-05	0.00031	-0.00013	-0.0002	-8e-05	4
17398	-4e-05	-6e-05	-0.00015	-7e-05	0.00031	-0.00013	-0.0002	-8e-05	4
17399	-4e-05	-6e-05	-0.00015	-7e-05	0.00031	-0.00013	-0.0002	-8e-05	4
17400	-4e-05	-6e-05	-0.00015	-7e-05	0.00031	-0.00013	-0.0002	-8e-05	4
17401	-4e-05	-6e-05	-0.00015	-7e-05	0.00031	-0.00013	-0.0002	-8e-05	4
17402	-4e-05	0	0	8e-05	0.00013	8e-05	0	-9e-05	4
17403	-4e-05	0	0	8e-05	0.00013	8e-05	0	-9e-05	4
17404	-4e-05	0	0	8e-05	0.00013	8e-05	0	-9e-05	4
17405	-4e-05	0	0	8e-05	0.00013	8e-05	0	-9e-05	4
17406	-4e-05	0	0	8e-05	0.00013	8e-05	0	-9e-05	4
17407	-4e-05	0	0	8e-05	0.00013	8e-05	0	-9e-05	4
17408	-4e-05	0	0	8e-05	0.00013	8e-05	0	-9e-05	4
17409	0.00012	0.00017	0.00018	0.00042	0.00058	0.00031	0.00022	0.00013	4
17410	0.00012	0.00017	0.00018	0.00042	0.00058	0.00031	0.00022	0.00013	4
17411	0.00012	0.00017	0.00018	0.00042	0.00058	0.00031	0.00022	0.00013	4
17412	0.00012	0.00017	0.00018	0.00042	0.00058	0.00031	0.00022	0.00013	4
17413	0.00012	0.00017	0.00018	0.00042	0.00058	0.00031	0.00022	0.00013	4
17414	0.00012	0.00017	0.00018	0.00042	0.00058	0.00031	0.00022	0.00013	4
17415	0.00012	0.00017	0.00018	0.00042	0.00058	0.00031	0.00022	0.00013	4
17416	0.00012	0.00017	0.00018	0.00042	0.00058	0.00031	0.00022	0.00013	4
17417	0.00012	0.00017	0.00018	0.00042	0.00058	0.00031	0.00022	0.00013	4
17418	0.00012	0.00017	0.00018	0.00042	0.00058	0.00031	0.00022	0.00013	4
17419	0.00012	0.00017	0.00018	0.00042	0.00058	0.00031	0.00022	0.00013	4
17420	0.00012	0.00017	0.00018	0.00042	0.00058	0.00031	0.00022	0.00013	4
17421	0.00012	0.00017	0.00018	0.00042	0.00058	0.00031	0.00022	0.00013	4
17422	0.00012	0.00017	0.00018	0.00042	0.00058	0.00031	0.00022	0.00013	4
17423	0.00012	0.00017	0.00018	0.00042	0.00058	0.00031	0.00022	0.00013	4
17424	-4e-05	-2e-05	7e-05	-0.00016	-0.0004	-1e-05	0	-5e-05	4
17425	-2e-05	2e-05	-2e-05	1e-05	0.00012	8e-05	7e-05	2e-05	4
17426	-2e-05	2e-05	-2e-05	1e-05	0.00012	8e-05	7e-05	2e-05	4
17427	-2e-05	2e-05	-2e-05	1e-05	0.00012	8e-05	7e-05	2e-05	4
17428	-2e-05	2e-05	-2e-05	1e-05	0.00012	8e-05	7e-05	2e-05	4
17429	-2e-05	2e-05	-2e-05	1e-05	0.00012	8e-05	7e-05	2e-05	4
17430	-2e-05	2e-05	-2e-05	1e-05	0.00012	8e-05	7e-05	2e-05	4
17431	-2e-05	1e-05	-7e-05	-6e-05	1e-05	-5e-05	-3e-05	-1e-05	4
17432	-2e-05	1e-05	-7e-05	-6e-05	1e-05	-5e-05	-3e-05	-1e-05	4
17433	1e-05	0	2e-05	4e-05	1e-05	0.00011	2e-05	3e-05	4
17434	1e-05	0	2e-05	4e-05	1e-05	0.00011	2e-05	3e-05	4
17435	1e-05	0	2e-05	4e-05	1e-05	0.00011	2e-05	3e-05	4
17436	1e-05	0	2e-05	4e-05	1e-05	0.00011	2e-05	3e-05	4
17438	1e-05	0	2e-05	4e-05	1e-05	0.00011	2e-05	3e-05	4
17439	1e-05	0	2e-05	4e-05	1e-05	0.00011	2e-05	3e-05	4
17440	1e-05	0	2e-05	4e-05	1e-05	0.00011	2e-05	3e-05	4
17441	1e-05	0	2e-05	4e-05	1e-05	0.00011	2e-05	3e-05	4
17442	1e-05	0	2e-05	4e-05	1e-05	0.00011	2e-05	3e-05	4
17443	1e-05	0	2e-05	4e-05	1e-05	0.00011	2e-05	3e-05	4
17444	1e-05	0	2e-05	4e-05	1e-05	0.00011	2e-05	3e-05	4
17445	1e-05	0	2e-05	4e-05	1e-05	0.00011	2e-05	3e-05	4
17446	1e-05	0	2e-05	4e-05	1e-05	0.00011	2e-05	3e-05	4
17447	1e-05	0	2e-05	4e-05	1e-05	0.00011	2e-05	3e-05	4
17448	1e-05	0	2e-05	4e-05	1e-05	0.00011	2e-05	3e-05	4
17449	1e-05	0	2e-05	4e-05	1e-05	0.00011	2e-05	3e-05	4
17450	1e-05	0	2e-05	4e-05	1e-05	0.00011	2e-05	3e-05	4
17451	1e-05	0	2e-05	4e-05	1e-05	0.00011	2e-05	3e-05	4
17452	1e-05	0	2e-05	4e-05	1e-05	0.00011	2e-05	3e-05	4
17453	1e-05	0	2e-05	4e-05	1e-05	0.00011	2e-05	3e-05	4
17454	1e-05	0	-4e-05	-7e-05	5e-05	0	4e-05	3e-05	4
17455	-6e-05	-9e-05	-0.0001	-0.00029	-0.0006	-0.00027	-0.00011	-8e-05	4
17456	-6e-05	-9e-05	-0.0001	-0.00029	-0.0006	-0.00027	-0.00011	-8e-05	4
17457	-6e-05	-9e-05	-0.0001	-0.00029	-0.0006	-0.00027	-0.00011	-8e-05	4
17458	-6e-05	-9e-05	-0.0001	-0.00029	-0.0006	-0.00027	-0.00011	-8e-05	4
17459	-6e-05	-9e-05	-0.0001	-0.00029	-0.0006	-0.00027	-0.00011	-8e-05	4
17460	-6e-05	-9e-05	-0.0001	-0.00029	-0.0006	-0.00027	-0.00011	-8e-05	4
17461	-6e-05	-9e-05	-0.0001	-0.00029	-0.0006	-0.00027	-0.00011	-8e-05	4
17462	-6e-05	-9e-05	-0.0001	-0.00029	-0.0006	-0.00027	-0.00011	-8e-05	4
17463	-6e-05	-9e-05	-0.0001	-0.00029	-0.0006	-0.00027	-0.00011	-8e-05	4
17464	-6e-05	-9e-05	-0.0001	-0.00029	-0.0006	-0.00027	-0.00011	-8e-05	4
17465	-6e-05	-9e-05	-0.0001	-0.00029	-0.0006	-0.00027	-0.00011	-8e-05	4
17466	-6e-05	-9e-05	-0.0001	-0.00029	-0.0006	-0.00027	-0.00011	-8e-05	4
17467	-6e-05	-9e-05	-0.0001	-0.00029	-0.0006	-0.00027	-0.00011	-8e-05	4
17468	-6e-05	-9e-05	-0.0001	-0.00029	-0.0006	-0.00027	-0.00011	-8e-05	4
17469	-6e-05	-9e-05	-0.0001	-0.00029	-0.0006	-0.00027	-0.00011	-8e-05	4
17470	-6e-05	-9e-05	-0.0001	-0.00029	-0.0006	-0.00027	-0.00011	-8e-05	4
17471	-6e-05	-9e-05	-0.0001	-0.00029	-0.0006	-0.00027	-0.00011	-8e-05	4
17472	-6e-05	-9e-05	-0.0001	-0.00029	-0.0006	-0.00027	-0.00011	-8e-05	4
17473	-6e-05	-9e-05	-0.0001	-0.00029	-0.0006	-0.00027	-0.00011	-8e-05	4
17474	-6e-05	-9e-05	-0.0001	-0.00029	-0.0006	-0.00027	-0.00011	-8e-05	4
17475	1e-05	1e-05	-1e-05	6e-05	0.0002	-4e-05	-2e-05	1e-05	4
17476	1e-05	1e-05	-1e-05	6e-05	0.0002	-4e-05	-2e-05	1e-05	4
17477	1e-05	1e-05	-1e-05	6e-05	0.0002	-4e-05	-2e-05	1e-05	4
17478	1e-05	1e-05	-1e-05	6e-05	0.0002	-4e-05	-2e-05	1e-05	4
17479	1e-05	1e-05	-1e-05	6e-05	0.0002	-4e-05	-2e-05	1e-05	4
17480	1e-05	1e-05	-1e-05	6e-05	0.0002	-4e-05	-2e-05	1e-05	4
17481	1e-05	1e-05	-1e-05	6e-05	0.0002	-4e-05	-2e-05	1e-05	4
17482	1e-05	1e-05	-1e-05	6e-05	0.0002	-4e-05	-2e-05	1e-05	4
17483	1e-05	1e-05	-1e-05	6e-05	0.0002	-4e-05	-2e-05	1e-05	4
17484	-6e-05	-0.00014	-5e-05	0.00014	7e-05	4e-05	1e-05	0	4
17485	-6e-05	-0.00014	-5e-05	0.00014	7e-05	4e-05	1e-05	0	4
17486	-6e-05	-0.00014	-5e-05	0.00014	7e-05	4e-05	1e-05	0	4
17488	-6e-05	-0.00014	-5e-05	0.00014	7e-05	4e-05	1e-05	0	4
17489	-6e-05	-0.00014	-5e-05	0.00014	7e-05	4e-05	1e-05	0	4
17490	-6e-05	-0.00014	-5e-05	0.00014	7e-05	4e-05	1e-05	0	4
17491	-6e-05	-0.00014	-5e-05	0.00014	7e-05	4e-05	1e-05	0	4
17492	-6e-05	-0.00014	-5e-05	0.00014	7e-05	4e-05	1e-05	0	4
17493	-6e-05	-0.00014	-5e-05	0.00014	7e-05	4e-05	1e-05	0	4
17494	-6e-05	-0.00014	-5e-05	0.00014	7e-05	4e-05	1e-05	0	4
17495	-6e-05	-0.00014	-5e-05	0.00014	7e-05	4e-05	1e-05	0	4
17496	-6e-05	-0.00014	-5e-05	0.00014	7e-05	4e-05	1e-05	0	4
17497	-6e-05	-0.00014	-5e-05	0.00014	7e-05	4e-05	1e-05	0	4
17498	-6e-05	-0.00014	-5e-05	0.00014	7e-05	4e-05	1e-05	0	4
17499	5e-05	4e-05	6e-05	-0.00012	-6e-05	-1e-05	7e-05	4e-05	4
17500	0	-3e-05	2e-05	4e-05	-1e-05	-9e-05	-1e-05	1e-05	4
17501	0	-3e-05	2e-05	4e-05	-1e-05	-9e-05	-1e-05	1e-05	4
17502	0	-3e-05	2e-05	4e-05	-1e-05	-9e-05	-1e-05	1e-05	4
17503	0	-3e-05	2e-05	4e-05	-1e-05	-9e-05	-1e-05	1e-05	4
17504	0	-3e-05	2e-05	4e-05	-1e-05	-9e-05	-1e-05	1e-05	4
17505	0	-3e-05	2e-05	4e-05	-1e-05	-9e-05	-1e-05	1e-05	4
17506	0	-3e-05	2e-05	4e-05	-1e-05	-9e-05	-1e-05	1e-05	4
17507	0	-3e-05	2e-05	4e-05	-1e-05	-9e-05	-1e-05	1e-05	4
17508	0	-3e-05	2e-05	4e-05	-1e-05	-9e-05	-1e-05	1e-05	4
17509	0	-3e-05	2e-05	4e-05	-1e-05	-9e-05	-1e-05	1e-05	4
17510	0	-3e-05	2e-05	4e-05	-1e-05	-9e-05	-1e-05	1e-05	4
17511	0	-3e-05	2e-05	4e-05	-1e-05	-9e-05	-1e-05	1e-05	4
17512	0	-3e-05	2e-05	4e-05	-1e-05	-9e-05	-1e-05	1e-05	4
17513	0	-3e-05	2e-05	4e-05	-1e-05	-9e-05	-1e-05	1e-05	4
17514	-4e-05	-5e-05	-3e-05	0.0001	0.00012	-8e-05	-9e-05	-5e-05	4
17515	-1e-05	1e-05	2e-05	-0.00016	-0.00033	-0.00012	2e-05	2e-05	4
17516	-1e-05	1e-05	2e-05	-0.00016	-0.00033	-0.00012	2e-05	2e-05	4
17517	-1e-05	1e-05	2e-05	-0.00016	-0.00033	-0.00012	2e-05	2e-05	4
17518	-1e-05	1e-05	2e-05	-0.00016	-0.00033	-0.00012	2e-05	2e-05	4
17519	-1e-05	1e-05	2e-05	-0.00016	-0.00033	-0.00012	2e-05	2e-05	4
17520	-1e-05	1e-05	2e-05	-0.00016	-0.00033	-0.00012	2e-05	2e-05	4
17521	-1e-05	1e-05	2e-05	-0.00016	-0.00033	-0.00012	2e-05	2e-05	4
17522	-1e-05	1e-05	2e-05	-0.00016	-0.00033	-0.00012	2e-05	2e-05	4
17523	-1e-05	1e-05	2e-05	-0.00016	-0.00033	-0.00012	2e-05	2e-05	4
17524	-1e-05	1e-05	2e-05	-0.00016	-0.00033	-0.00012	2e-05	2e-05	4
17525	-1e-05	1e-05	2e-05	-0.00016	-0.00033	-0.00012	2e-05	2e-05	4
17526	-1e-05	1e-05	2e-05	-0.00016	-0.00033	-0.00012	2e-05	2e-05	4
17527	-2e-05	-6e-05	-6e-05	-9e-05	-0.00013	6e-05	2e-05	-2e-05	4
17528	-2e-05	-6e-05	-6e-05	-9e-05	-0.00013	6e-05	2e-05	-2e-05	4
17529	-2e-05	-6e-05	-6e-05	-9e-05	-0.00013	6e-05	2e-05	-2e-05	4
17530	-2e-05	-6e-05	-6e-05	-9e-05	-0.00013	6e-05	2e-05	-2e-05	4
17531	-2e-05	-6e-05	-6e-05	-9e-05	-0.00013	6e-05	2e-05	-2e-05	4
17532	-2e-05	-6e-05	-6e-05	-9e-05	-0.00013	6e-05	2e-05	-2e-05	4
17533	-2e-05	-6e-05	-6e-05	-9e-05	-0.00013	6e-05	2e-05	-2e-05	4
17534	-2e-05	-6e-05	-6e-05	-9e-05	-0.00013	6e-05	2e-05	-2e-05	4
17535	-2e-05	-6e-05	-6e-05	-9e-05	-0.00013	6e-05	2e-05	-2e-05	4
17536	0	5e-05	0.00017	0.00025	0.00035	0.00023	5e-05	0	4
17539	0	5e-05	0.00017	0.00025	0.00035	0.00023	5e-05	0	4
17540	0	5e-05	0.00017	0.00025	0.00035	0.00023	5e-05	0	4
17541	0	5e-05	0.00017	0.00025	0.00035	0.00023	5e-05	0	4
17542	0	5e-05	0.00017	0.00025	0.00035	0.00023	5e-05	0	4
17543	0	5e-05	0.00017	0.00025	0.00035	0.00023	5e-05	0	4
17544	0	5e-05	0.00017	0.00025	0.00035	0.00023	5e-05	0	4
17545	0	5e-05	0.00017	0.00025	0.00035	0.00023	5e-05	0	4
17546	0	5e-05	0.00017	0.00025	0.00035	0.00023	5e-05	0	4
17547	0	5e-05	0.00017	0.00025	0.00035	0.00023	5e-05	0	4
17548	0	5e-05	0.00017	0.00025	0.00035	0.00023	5e-05	0	4
17549	0	5e-05	0.00017	0.00025	0.00035	0.00023	5e-05	0	4
17550	0	5e-05	0.00017	0.00025	0.00035	0.00023	5e-05	0	4
17551	0	5e-05	0.00017	0.00025	0.00035	0.00023	5e-05	0	4
17552	0	5e-05	0.00017	0.00025	0.00035	0.00023	5e-05	0	4
17553	0	5e-05	0.00017	0.00025	0.00035	0.00023	5e-05	0	4
17554	0	5e-05	0.00017	0.00025	0.00035	0.00023	5e-05	0	4
17555	0	5e-05	0.00017	0.00025	0.00035	0.00023	5e-05	0	4
17556	0	5e-05	0.00017	0.00025	0.00035	0.00023	5e-05	0	4
17557	0	5e-05	0.00017	0.00025	0.00035	0.00023	5e-05	0	4
17558	0	5e-05	0.00017	0.00025	0.00035	0.00023	5e-05	0	4
17559	-5e-05	-2e-05	4e-05	5e-05	3e-05	-0.0001	-0.0001	-6e-05	4
17560	5e-05	3e-05	-2e-05	-0.0001	1e-05	4e-05	8e-05	5e-05	4
17561	5e-05	3e-05	-2e-05	-0.0001	1e-05	4e-05	8e-05	5e-05	4
17562	5e-05	3e-05	-2e-05	-0.0001	1e-05	4e-05	8e-05	5e-05	4
17563	5e-05	3e-05	-2e-05	-0.0001	1e-05	4e-05	8e-05	5e-05	4
17564	5e-05	3e-05	-2e-05	-0.0001	1e-05	4e-05	8e-05	5e-05	4
17565	5e-05	3e-05	-2e-05	-0.0001	1e-05	4e-05	8e-05	5e-05	4
17566	5e-05	3e-05	-2e-05	-0.0001	1e-05	4e-05	8e-05	5e-05	4
17567	5e-05	3e-05	-2e-05	-0.0001	1e-05	4e-05	8e-05	5e-05	4
17568	5e-05	3e-05	-2e-05	-0.0001	1e-05	4e-05	8e-05	5e-05	4
17569	5e-05	3e-05	-2e-05	-0.0001	1e-05	4e-05	8e-05	5e-05	4
17570	5e-05	3e-05	-2e-05	-0.0001	1e-05	4e-05	8e-05	5e-05	4
17571	5e-05	3e-05	-2e-05	-0.0001	1e-05	4e-05	8e-05	5e-05	4
17572	5e-05	3e-05	-2e-05	-0.0001	1e-05	4e-05	8e-05	5e-05	4
17573	5e-05	3e-05	-2e-05	-0.0001	1e-05	4e-05	8e-05	5e-05	4
17574	-4e-05	-8e-05	-0.00016	-0.00012	0.00013	6e-05	4e-05	1e-05	4
17575	-2e-05	-2e-05	5e-05	0	-3e-05	-0.00015	-5e-05	-4e-05	4
17576	0	4e-05	-2e-05	-8e-05	-0.00025	3e-05	4e-05	-2e-05	4
17577	0	4e-05	-2e-05	-8e-05	-0.00025	3e-05	4e-05	-2e-05	4
17578	0	4e-05	-2e-05	-8e-05	-0.00025	3e-05	4e-05	-2e-05	4
17579	0	4e-05	-2e-05	-8e-05	-0.00025	3e-05	4e-05	-2e-05	4
17580	0	4e-05	-2e-05	-8e-05	-0.00025	3e-05	4e-05	-2e-05	4
17581	0	4e-05	-2e-05	-8e-05	-0.00025	3e-05	4e-05	-2e-05	4
17582	0	4e-05	-2e-05	-8e-05	-0.00025	3e-05	4e-05	-2e-05	4
17583	0	4e-05	-2e-05	-8e-05	-0.00025	3e-05	4e-05	-2e-05	4
17584	0	4e-05	-2e-05	-8e-05	-0.00025	3e-05	4e-05	-2e-05	4
17585	0	4e-05	-2e-05	-8e-05	-0.00025	3e-05	4e-05	-2e-05	4
17586	0	4e-05	-2e-05	-8e-05	-0.00025	3e-05	4e-05	-2e-05	4
17589	-8e-05	-0.00015	-0.0001	-2e-05	-0.00029	-0.00044	-0.00017	-6e-05	4
17590	-8e-05	-0.00015	-0.0001	-2e-05	-0.00029	-0.00044	-0.00017	-6e-05	4
17591	-8e-05	-0.00015	-0.0001	-2e-05	-0.00029	-0.00044	-0.00017	-6e-05	4
17592	-8e-05	-0.00015	-0.0001	-2e-05	-0.00029	-0.00044	-0.00017	-6e-05	4
17593	-8e-05	-0.00015	-0.0001	-2e-05	-0.00029	-0.00044	-0.00017	-6e-05	4
17594	-8e-05	-0.00015	-0.0001	-2e-05	-0.00029	-0.00044	-0.00017	-6e-05	4
17595	-8e-05	-0.00015	-0.0001	-2e-05	-0.00029	-0.00044	-0.00017	-6e-05	4
17596	2e-05	-1e-05	-7e-05	-8e-05	-8e-05	8e-05	-5e-05	-1e-05	4
17597	2e-05	-1e-05	-7e-05	-8e-05	-8e-05	8e-05	-5e-05	-1e-05	4
17598	2e-05	-1e-05	-7e-05	-8e-05	-8e-05	8e-05	-5e-05	-1e-05	4
17599	2e-05	-1e-05	-7e-05	-8e-05	-8e-05	8e-05	-5e-05	-1e-05	4
17600	2e-05	-1e-05	-7e-05	-8e-05	-8e-05	8e-05	-5e-05	-1e-05	4
17601	2e-05	-1e-05	-7e-05	-8e-05	-8e-05	8e-05	-5e-05	-1e-05	4
17602	2e-05	-1e-05	-7e-05	-8e-05	-8e-05	8e-05	-5e-05	-1e-05	4
17603	2e-05	-1e-05	-7e-05	-8e-05	-8e-05	8e-05	-5e-05	-1e-05	4
17604	2e-05	-1e-05	-7e-05	-8e-05	-8e-05	8e-05	-5e-05	-1e-05	4
17605	2e-05	-1e-05	-7e-05	-8e-05	-8e-05	8e-05	-5e-05	-1e-05	4
17606	2e-05	-1e-05	-7e-05	-8e-05	-8e-05	8e-05	-5e-05	-1e-05	4
17607	2e-05	-1e-05	-7e-05	-8e-05	-8e-05	8e-05	-5e-05	-1e-05	4
17608	2e-05	-1e-05	-7e-05	-8e-05	-8e-05	8e-05	-5e-05	-1e-05	4
17609	2e-05	-1e-05	-7e-05	-8e-05	-8e-05	8e-05	-5e-05	-1e-05	4
17610	2e-05	-1e-05	-7e-05	-8e-05	-8e-05	8e-05	-5e-05	-1e-05	4
17611	-2e-05	-3e-05	-7e-05	-0.00019	-0.0004	-2e-05	6e-05	1e-05	4
17612	-2e-05	-3e-05	-7e-05	-0.00019	-0.0004	-2e-05	6e-05	1e-05	4
17613	-2e-05	-2e-05	-4e-05	-3e-05	-0.00023	-4e-05	-4e-05	-5e-05	4
17614	-2e-05	-2e-05	-4e-05	-3e-05	-0.00023	-4e-05	-4e-05	-5e-05	4
17615	-2e-05	-2e-05	-4e-05	-3e-05	-0.00023	-4e-05	-4e-05	-5e-05	4
17616	-2e-05	-2e-05	-4e-05	-3e-05	-0.00023	-4e-05	-4e-05	-5e-05	4
17617	-2e-05	-2e-05	-4e-05	-3e-05	-0.00023	-4e-05	-4e-05	-5e-05	4
17618	-2e-05	-2e-05	-4e-05	-3e-05	-0.00023	-4e-05	-4e-05	-5e-05	4
17619	-2e-05	-2e-05	-4e-05	-3e-05	-0.00023	-4e-05	-4e-05	-5e-05	4
17620	-2e-05	-2e-05	-4e-05	-3e-05	-0.00023	-4e-05	-4e-05	-5e-05	4
17621	-2e-05	-2e-05	-4e-05	-3e-05	-0.00023	-4e-05	-4e-05	-5e-05	4
17622	-2e-05	-2e-05	-4e-05	-3e-05	-0.00023	-4e-05	-4e-05	-5e-05	4
17623	-2e-05	-2e-05	-4e-05	-3e-05	-0.00023	-4e-05	-4e-05	-5e-05	4
17624	-2e-05	-2e-05	-4e-05	-3e-05	-0.00023	-4e-05	-4e-05	-5e-05	4
17625	-2e-05	-2e-05	-4e-05	-3e-05	-0.00023	-4e-05	-4e-05	-5e-05	4
17626	-2e-05	-2e-05	-4e-05	-3e-05	-0.00023	-4e-05	-4e-05	-5e-05	4
17627	-2e-05	-2e-05	-4e-05	-3e-05	-0.00023	-4e-05	-4e-05	-5e-05	4
17628	-2e-05	-2e-05	-4e-05	-3e-05	-0.00023	-4e-05	-4e-05	-5e-05	4
17629	-2e-05	-2e-05	-4e-05	-3e-05	-0.00023	-4e-05	-4e-05	-5e-05	4
17630	-2e-05	-2e-05	-4e-05	-3e-05	-0.00023	-4e-05	-4e-05	-5e-05	4
17631	-2e-05	-2e-05	-4e-05	-3e-05	-0.00023	-4e-05	-4e-05	-5e-05	4
17632	-2e-05	-2e-05	-4e-05	-3e-05	-0.00023	-4e-05	-4e-05	-5e-05	4
17633	-2e-05	-2e-05	-4e-05	-3e-05	-0.00023	-4e-05	-4e-05	-5e-05	4
17634	2e-05	5e-05	9e-05	3e-05	-8e-05	-2e-05	-3e-05	-2e-05	4
17635	-5e-05	-0.00012	-0.00034	-0.00024	-0.00022	-0.00012	-3e-05	-2e-05	4
17636	-5e-05	-0.00012	-0.00034	-0.00024	-0.00022	-0.00012	-3e-05	-2e-05	4
17638	-5e-05	-0.00012	-0.00034	-0.00024	-0.00022	-0.00012	-3e-05	-2e-05	4
17639	-5e-05	-0.00012	-0.00034	-0.00024	-0.00022	-0.00012	-3e-05	-2e-05	4
17640	-5e-05	-0.00012	-0.00034	-0.00024	-0.00022	-0.00012	-3e-05	-2e-05	4
17641	-5e-05	-0.00012	-0.00034	-0.00024	-0.00022	-0.00012	-3e-05	-2e-05	4
17642	-5e-05	-0.00012	-0.00034	-0.00024	-0.00022	-0.00012	-3e-05	-2e-05	4
17643	-5e-05	-0.00012	-0.00034	-0.00024	-0.00022	-0.00012	-3e-05	-2e-05	4
17644	-5e-05	-0.00012	-0.00034	-0.00024	-0.00022	-0.00012	-3e-05	-2e-05	4
17645	-5e-05	-0.00012	-0.00034	-0.00024	-0.00022	-0.00012	-3e-05	-2e-05	4
17646	-5e-05	-0.00012	-0.00034	-0.00024	-0.00022	-0.00012	-3e-05	-2e-05	4
17647	-5e-05	-0.00012	-0.00034	-0.00024	-0.00022	-0.00012	-3e-05	-2e-05	4
17648	0	1e-05	-4e-05	3e-05	0.00012	-5e-05	-6e-05	-4e-05	4
17649	0	1e-05	-4e-05	3e-05	0.00012	-5e-05	-6e-05	-4e-05	4
17650	0	1e-05	-4e-05	3e-05	0.00012	-5e-05	-6e-05	-4e-05	4
17651	0	1e-05	-4e-05	3e-05	0.00012	-5e-05	-6e-05	-4e-05	4
17652	0	1e-05	-4e-05	3e-05	0.00012	-5e-05	-6e-05	-4e-05	4
17653	0	1e-05	-4e-05	3e-05	0.00012	-5e-05	-6e-05	-4e-05	4
17654	0	1e-05	-4e-05	3e-05	0.00012	-5e-05	-6e-05	-4e-05	4
17655	0	1e-05	-4e-05	3e-05	0.00012	-5e-05	-6e-05	-4e-05	4
17656	4e-05	8e-05	0.00014	0.00018	0.00026	3e-05	4e-05	5e-05	4
17657	4e-05	8e-05	0.00014	0.00018	0.00026	3e-05	4e-05	5e-05	4
17658	4e-05	8e-05	0.00014	0.00018	0.00026	3e-05	4e-05	5e-05	4
17659	4e-05	8e-05	0.00014	0.00018	0.00026	3e-05	4e-05	5e-05	4
17660	4e-05	8e-05	0.00014	0.00018	0.00026	3e-05	4e-05	5e-05	4
17661	4e-05	8e-05	0.00014	0.00018	0.00026	3e-05	4e-05	5e-05	4
17662	4e-05	8e-05	0.00014	0.00018	0.00026	3e-05	4e-05	5e-05	4
17663	4e-05	8e-05	0.00014	0.00018	0.00026	3e-05	4e-05	5e-05	4
17664	4e-05	8e-05	0.00014	0.00018	0.00026	3e-05	4e-05	5e-05	4
17665	4e-05	8e-05	0.00014	0.00018	0.00026	3e-05	4e-05	5e-05	4
17666	4e-05	8e-05	0.00014	0.00018	0.00026	3e-05	4e-05	5e-05	4
17667	4e-05	8e-05	0.00014	0.00018	0.00026	3e-05	4e-05	5e-05	4
17668	4e-05	8e-05	0.00014	0.00018	0.00026	3e-05	4e-05	5e-05	4
17669	4e-05	8e-05	0.00014	0.00018	0.00026	3e-05	4e-05	5e-05	4
17670	4e-05	8e-05	0.00014	0.00018	0.00026	3e-05	4e-05	5e-05	4
17671	4e-05	8e-05	0.00014	0.00018	0.00026	3e-05	4e-05	5e-05	4
17672	4e-05	8e-05	0.00014	0.00018	0.00026	3e-05	4e-05	5e-05	4
17673	4e-05	8e-05	0.00014	0.00018	0.00026	3e-05	4e-05	5e-05	4
17674	4e-05	8e-05	0.00014	0.00018	0.00026	3e-05	4e-05	5e-05	4
17675	4e-05	8e-05	0.00014	0.00018	0.00026	3e-05	4e-05	5e-05	4
17676	4e-05	8e-05	0.00014	0.00018	0.00026	3e-05	4e-05	5e-05	4
17677	4e-05	8e-05	0.00014	0.00018	0.00026	3e-05	4e-05	5e-05	4
17678	4e-05	8e-05	0.00014	0.00018	0.00026	3e-05	4e-05	5e-05	4
17679	4e-05	8e-05	0.00014	0.00018	0.00026	3e-05	4e-05	5e-05	4
17680	4e-05	8e-05	0.00014	0.00018	0.00026	3e-05	4e-05	5e-05	4
17681	4e-05	8e-05	0.00014	0.00018	0.00026	3e-05	4e-05	5e-05	4
17682	4e-05	8e-05	0.00014	0.00018	0.00026	3e-05	4e-05	5e-05	4
17683	4e-05	8e-05	0.00014	0.00018	0.00026	3e-05	4e-05	5e-05	4
17684	4e-05	8e-05	0.00014	0.00018	0.00026	3e-05	4e-05	5e-05	4
17685	4e-05	8e-05	0.00014	0.00018	0.00026	3e-05	4e-05	5e-05	4
17687	4e-05	8e-05	0.00014	0.00018	0.00026	3e-05	4e-05	5e-05	4
17690	-3e-05	-6e-05	-7e-05	-8e-05	-6e-05	-6e-05	-8e-05	-6e-05	4
17691	-3e-05	-6e-05	-7e-05	-8e-05	-6e-05	-6e-05	-8e-05	-6e-05	4
17692	-3e-05	-6e-05	-7e-05	-8e-05	-6e-05	-6e-05	-8e-05	-6e-05	4
17693	-3e-05	-6e-05	-7e-05	-8e-05	-6e-05	-6e-05	-8e-05	-6e-05	4
17694	-3e-05	-6e-05	-7e-05	-8e-05	-6e-05	-6e-05	-8e-05	-6e-05	4
17695	-3e-05	-6e-05	-7e-05	-8e-05	-6e-05	-6e-05	-8e-05	-6e-05	4
17696	-3e-05	-6e-05	-7e-05	-8e-05	-6e-05	-6e-05	-8e-05	-6e-05	4
17697	-3e-05	-6e-05	-7e-05	-8e-05	-6e-05	-6e-05	-8e-05	-6e-05	4
17698	-3e-05	-6e-05	-7e-05	-8e-05	-6e-05	-6e-05	-8e-05	-6e-05	4
17699	-3e-05	-6e-05	-7e-05	-8e-05	-6e-05	-6e-05	-8e-05	-6e-05	4
17700	-3e-05	-6e-05	-7e-05	-8e-05	-6e-05	-6e-05	-8e-05	-6e-05	4
17701	-6e-05	-0.00013	-2e-05	0.0001	0.00026	0.00043	6e-05	-1e-05	4
17702	-6e-05	-0.00013	-2e-05	0.0001	0.00026	0.00043	6e-05	-1e-05	4
17703	1e-05	3e-05	0.00012	2e-05	7e-05	1e-05	-2e-05	0	4
17704	1e-05	3e-05	0.00012	2e-05	7e-05	1e-05	-2e-05	0	4
17705	1e-05	3e-05	0.00012	2e-05	7e-05	1e-05	-2e-05	0	4
17706	1e-05	3e-05	0.00012	2e-05	7e-05	1e-05	-2e-05	0	4
17707	-2e-05	1e-05	4e-05	9e-05	4e-05	7e-05	4e-05	2e-05	4
17708	3e-05	0	0	0.00022	0.00012	-0.00014	-1e-05	1e-05	4
17709	3e-05	0	0	0.00022	0.00012	-0.00014	-1e-05	1e-05	4
46542	-0.00014	-0.00017	-0.00026	-0.00049	-0.00075	-0.00048	-0.00035	-0.00018	4
46543	-0.00014	-0.00017	-0.00026	-0.00049	-0.00075	-0.00048	-0.00035	-0.00018	4
46544	-0.00014	-0.00017	-0.00026	-0.00049	-0.00075	-0.00048	-0.00035	-0.00018	4
46545	-0.00014	-0.00017	-0.00026	-0.00049	-0.00075	-0.00048	-0.00035	-0.00018	4
46546	-0.00014	-0.00017	-0.00026	-0.00049	-0.00075	-0.00048	-0.00035	-0.00018	4
46547	-0.00014	-0.00017	-0.00026	-0.00049	-0.00075	-0.00048	-0.00035	-0.00018	4
46549	-0.00014	-0.00017	-0.00026	-0.00049	-0.00075	-0.00048	-0.00035	-0.00018	4
46550	-0.00014	-0.00017	-0.00026	-0.00049	-0.00075	-0.00048	-0.00035	-0.00018	4
46551	-0.00014	-0.00017	-0.00026	-0.00049	-0.00075	-0.00048	-0.00035	-0.00018	4
46552	-0.00014	-0.00017	-0.00026	-0.00049	-0.00075	-0.00048	-0.00035	-0.00018	4
46553	-0.00014	-0.00017	-0.00026	-0.00049	-0.00075	-0.00048	-0.00035	-0.00018	4
46554	-0.00014	-0.00017	-0.00026	-0.00049	-0.00075	-0.00048	-0.00035	-0.00018	4
46555	-0.00014	-0.00017	-0.00026	-0.00049	-0.00075	-0.00048	-0.00035	-0.00018	4
46556	-0.00014	-0.00017	-0.00026	-0.00049	-0.00075	-0.00048	-0.00035	-0.00018	4
46557	-0.00014	-0.00017	-0.00026	-0.00049	-0.00075	-0.00048	-0.00035	-0.00018	4
46558	-0.00014	-0.00017	-0.00026	-0.00049	-0.00075	-0.00048	-0.00035	-0.00018	4
46559	-0.00014	-0.00017	-0.00026	-0.00049	-0.00075	-0.00048	-0.00035	-0.00018	4
46560	-0.00014	-0.00017	-0.00026	-0.00049	-0.00075	-0.00048	-0.00035	-0.00018	4
46561	-0.00014	-0.00017	-0.00026	-0.00049	-0.00075	-0.00048	-0.00035	-0.00018	4
46562	-0.00014	-0.00017	-0.00026	-0.00049	-0.00075	-0.00048	-0.00035	-0.00018	4
46563	-0.00013	-0.00015	-0.0003	-0.00074	-0.00096	-0.00057	-0.00025	-0.00012	4
46564	0	-3e-05	-8e-05	-8e-05	-0.00029	-0.00029	-0.00013	-3e-05	4
46565	0	-3e-05	-8e-05	-8e-05	-0.00029	-0.00029	-0.00013	-3e-05	4
46566	0	-3e-05	-8e-05	-8e-05	-0.00029	-0.00029	-0.00013	-3e-05	4
46567	0	-3e-05	-8e-05	-8e-05	-0.00029	-0.00029	-0.00013	-3e-05	4
46568	0	-3e-05	-8e-05	-8e-05	-0.00029	-0.00029	-0.00013	-3e-05	4
46569	0	-3e-05	-8e-05	-8e-05	-0.00029	-0.00029	-0.00013	-3e-05	4
46570	0	-3e-05	-8e-05	-8e-05	-0.00029	-0.00029	-0.00013	-3e-05	4
46571	0	-3e-05	-8e-05	-8e-05	-0.00029	-0.00029	-0.00013	-3e-05	4
46572	0	-3e-05	-8e-05	-8e-05	-0.00029	-0.00029	-0.00013	-3e-05	4
46573	0	-3e-05	-8e-05	-8e-05	-0.00029	-0.00029	-0.00013	-3e-05	4
46574	0	-3e-05	-8e-05	-8e-05	-0.00029	-0.00029	-0.00013	-3e-05	4
46575	0	-3e-05	-8e-05	-8e-05	-0.00029	-0.00029	-0.00013	-3e-05	4
46576	0	-3e-05	-8e-05	-8e-05	-0.00029	-0.00029	-0.00013	-3e-05	4
46577	0	-3e-05	-8e-05	-8e-05	-0.00029	-0.00029	-0.00013	-3e-05	4
46578	0	-3e-05	-8e-05	-8e-05	-0.00029	-0.00029	-0.00013	-3e-05	4
46579	0	-3e-05	-8e-05	-8e-05	-0.00029	-0.00029	-0.00013	-3e-05	4
46580	0	-3e-05	-8e-05	-8e-05	-0.00029	-0.00029	-0.00013	-3e-05	4
46581	0	-3e-05	-8e-05	-8e-05	-0.00029	-0.00029	-0.00013	-3e-05	4
46582	-0.0001	-0.00017	-0.00023	-0.00017	-0.00036	-0.00024	-0.00018	-0.00014	4
46583	2e-05	3e-05	0.00011	0.00021	0.00023	0.0002	0.0001	5e-05	4
46584	2e-05	3e-05	0.00011	0.00021	0.00023	0.0002	0.0001	5e-05	4
46585	2e-05	3e-05	0.00011	0.00021	0.00023	0.0002	0.0001	5e-05	4
46586	2e-05	3e-05	0.00011	0.00021	0.00023	0.0002	0.0001	5e-05	4
46588	2e-05	3e-05	0.00011	0.00021	0.00023	0.0002	0.0001	5e-05	4
46589	2e-05	3e-05	0.00011	0.00021	0.00023	0.0002	0.0001	5e-05	4
46590	2e-05	3e-05	0.00011	0.00021	0.00023	0.0002	0.0001	5e-05	4
46591	2e-05	3e-05	0.00011	0.00021	0.00023	0.0002	0.0001	5e-05	4
46592	2e-05	3e-05	0.00011	0.00021	0.00023	0.0002	0.0001	5e-05	4
46593	2e-05	3e-05	0.00011	0.00021	0.00023	0.0002	0.0001	5e-05	4
46594	2e-05	3e-05	0.00011	0.00021	0.00023	0.0002	0.0001	5e-05	4
46595	2e-05	3e-05	0.00011	0.00021	0.00023	0.0002	0.0001	5e-05	4
46597	2e-05	3e-05	0.00011	0.00021	0.00023	0.0002	0.0001	5e-05	4
46598	2e-05	3e-05	0.00011	0.00021	0.00023	0.0002	0.0001	5e-05	4
46599	2e-05	3e-05	0.00011	0.00021	0.00023	0.0002	0.0001	5e-05	4
46600	2e-05	3e-05	0.00011	0.00021	0.00023	0.0002	0.0001	5e-05	4
46601	2e-05	3e-05	0.00011	0.00021	0.00023	0.0002	0.0001	5e-05	4
46602	2e-05	3e-05	0.00011	0.00021	0.00023	0.0002	0.0001	5e-05	4
46603	2e-05	3e-05	0.00011	0.00021	0.00023	0.0002	0.0001	5e-05	4
46604	2e-05	3e-05	0.00011	0.00021	0.00023	0.0002	0.0001	5e-05	4
46605	2e-05	3e-05	0.00011	0.00021	0.00023	0.0002	0.0001	5e-05	4
46606	2e-05	3e-05	0.00011	0.00021	0.00023	0.0002	0.0001	5e-05	4
46607	2e-05	3e-05	0.00011	0.00021	0.00023	0.0002	0.0001	5e-05	4
46608	2e-05	3e-05	0.00011	0.00021	0.00023	0.0002	0.0001	5e-05	4
46609	2e-05	3e-05	0.00011	0.00021	0.00023	0.0002	0.0001	5e-05	4
46610	2e-05	3e-05	0.00011	0.00021	0.00023	0.0002	0.0001	5e-05	4
46611	2e-05	3e-05	0.00011	0.00021	0.00023	0.0002	0.0001	5e-05	4
46612	2e-05	3e-05	0.00011	0.00021	0.00023	0.0002	0.0001	5e-05	4
46613	2e-05	3e-05	0.00011	0.00021	0.00023	0.0002	0.0001	5e-05	4
46614	2e-05	3e-05	0.00011	0.00021	0.00023	0.0002	0.0001	5e-05	4
46615	2e-05	3e-05	0.00011	0.00021	0.00023	0.0002	0.0001	5e-05	4
46616	2e-05	3e-05	0.00011	0.00021	0.00023	0.0002	0.0001	5e-05	4
46617	2e-05	3e-05	0.00011	0.00021	0.00023	0.0002	0.0001	5e-05	4
46618	2e-05	3e-05	0.00011	0.00021	0.00023	0.0002	0.0001	5e-05	4
46619	2e-05	3e-05	0.00011	0.00021	0.00023	0.0002	0.0001	5e-05	4
46620	2e-05	3e-05	0.00011	0.00021	0.00023	0.0002	0.0001	5e-05	4
46621	2e-05	3e-05	0.00011	0.00021	0.00023	0.0002	0.0001	5e-05	4
46622	-3e-05	-5e-05	-0.00011	0	0.00015	-0.00017	-5e-05	-1e-05	4
46623	-3e-05	-5e-05	-0.00011	0	0.00015	-0.00017	-5e-05	-1e-05	4
46624	4e-05	5e-05	6e-05	-0.00015	-0.00041	0.00012	9e-05	6e-05	4
46626	4e-05	5e-05	6e-05	-0.00015	-0.00041	0.00012	9e-05	6e-05	4
46627	4e-05	5e-05	6e-05	-0.00015	-0.00041	0.00012	9e-05	6e-05	4
46628	4e-05	5e-05	6e-05	-0.00015	-0.00041	0.00012	9e-05	6e-05	4
46629	4e-05	5e-05	6e-05	-0.00015	-0.00041	0.00012	9e-05	6e-05	4
46630	4e-05	5e-05	6e-05	-0.00015	-0.00041	0.00012	9e-05	6e-05	4
46631	4e-05	5e-05	6e-05	-0.00015	-0.00041	0.00012	9e-05	6e-05	4
46632	4e-05	5e-05	6e-05	-0.00015	-0.00041	0.00012	9e-05	6e-05	4
46633	4e-05	5e-05	6e-05	-0.00015	-0.00041	0.00012	9e-05	6e-05	4
46634	4e-05	5e-05	6e-05	-0.00015	-0.00041	0.00012	9e-05	6e-05	4
46635	4e-05	5e-05	6e-05	-0.00015	-0.00041	0.00012	9e-05	6e-05	4
46636	4e-05	5e-05	6e-05	-0.00015	-0.00041	0.00012	9e-05	6e-05	4
46639	-0.0001	-0.00011	-9e-05	3e-05	5e-05	-0.00014	-0.0002	-0.00019	4
46640	-0.0001	-0.00011	-9e-05	3e-05	5e-05	-0.00014	-0.0002	-0.00019	4
46641	-0.0002	-0.00021	-0.00032	-0.00044	-0.00094	-0.00095	-0.00039	-0.00032	4
46642	-0.0002	-0.00021	-0.00032	-0.00044	-0.00094	-0.00095	-0.00039	-0.00032	4
46643	-0.0002	-0.00021	-0.00032	-0.00044	-0.00094	-0.00095	-0.00039	-0.00032	4
46644	-0.0002	-0.00021	-0.00032	-0.00044	-0.00094	-0.00095	-0.00039	-0.00032	4
46645	-0.0002	-0.00021	-0.00032	-0.00044	-0.00094	-0.00095	-0.00039	-0.00032	4
46646	-0.0002	-0.00021	-0.00032	-0.00044	-0.00094	-0.00095	-0.00039	-0.00032	4
46647	-0.0002	-0.00021	-0.00032	-0.00044	-0.00094	-0.00095	-0.00039	-0.00032	4
46648	-0.0002	-0.00021	-0.00032	-0.00044	-0.00094	-0.00095	-0.00039	-0.00032	4
46649	-0.0002	-0.00021	-0.00032	-0.00044	-0.00094	-0.00095	-0.00039	-0.00032	4
46650	-0.0002	-0.00021	-0.00032	-0.00044	-0.00094	-0.00095	-0.00039	-0.00032	4
46651	-0.0002	-0.00021	-0.00032	-0.00044	-0.00094	-0.00095	-0.00039	-0.00032	4
46652	-0.0002	-0.00021	-0.00032	-0.00044	-0.00094	-0.00095	-0.00039	-0.00032	4
46653	-0.0002	-0.00021	-0.00032	-0.00044	-0.00094	-0.00095	-0.00039	-0.00032	4
46654	-0.0002	-0.00021	-0.00032	-0.00044	-0.00094	-0.00095	-0.00039	-0.00032	4
46655	-0.0002	-0.00021	-0.00032	-0.00044	-0.00094	-0.00095	-0.00039	-0.00032	4
46656	-0.0002	-0.00021	-0.00032	-0.00044	-0.00094	-0.00095	-0.00039	-0.00032	4
46657	-0.0002	-0.00021	-0.00032	-0.00044	-0.00094	-0.00095	-0.00039	-0.00032	4
46658	-0.0002	-0.00021	-0.00032	-0.00044	-0.00094	-0.00095	-0.00039	-0.00032	4
46659	-0.0002	-0.00021	-0.00032	-0.00044	-0.00094	-0.00095	-0.00039	-0.00032	4
46660	-0.0002	-0.00021	-0.00032	-0.00044	-0.00094	-0.00095	-0.00039	-0.00032	4
46661	-0.0002	-0.00021	-0.00032	-0.00044	-0.00094	-0.00095	-0.00039	-0.00032	4
46662	-0.0002	-0.00021	-0.00032	-0.00044	-0.00094	-0.00095	-0.00039	-0.00032	4
46663	-0.0002	-0.00021	-0.00032	-0.00044	-0.00094	-0.00095	-0.00039	-0.00032	4
46664	-0.0002	-0.00021	-0.00032	-0.00044	-0.00094	-0.00095	-0.00039	-0.00032	4
46665	-0.0002	-0.00021	-0.00032	-0.00044	-0.00094	-0.00095	-0.00039	-0.00032	4
46666	-0.0002	-0.00021	-0.00032	-0.00044	-0.00094	-0.00095	-0.00039	-0.00032	4
46667	-0.0002	-0.00021	-0.00032	-0.00044	-0.00094	-0.00095	-0.00039	-0.00032	4
46668	-0.0002	-0.00021	-0.00032	-0.00044	-0.00094	-0.00095	-0.00039	-0.00032	4
46669	-0.0002	-0.00021	-0.00032	-0.00044	-0.00094	-0.00095	-0.00039	-0.00032	4
