21640	-2e-05	2e-05	0.00024	-1e-05	-0.00043	-5e-05	-2e-05	1e-05	5
21641	-2e-05	2e-05	0.00024	-1e-05	-0.00043	-5e-05	-2e-05	1e-05	5
21642	-2e-05	2e-05	0.00024	-1e-05	-0.00043	-5e-05	-2e-05	1e-05	5
21643	-2e-05	2e-05	0.00024	-1e-05	-0.00043	-5e-05	-2e-05	1e-05	5
21644	-2e-05	2e-05	0.00024	-1e-05	-0.00043	-5e-05	-2e-05	1e-05	5
21645	-2e-05	2e-05	0.00024	-1e-05	-0.00043	-5e-05	-2e-05	1e-05	5
21646	5e-05	0.00024	0.00047	0.00057	0.00026	0.00015	0.00011	6e-05	5
21647	-1e-05	3e-05	-0.00011	0.00016	0.00042	5e-05	-8e-05	-5e-05	5
21648	-1e-05	3e-05	-0.00011	0.00016	0.00042	5e-05	-8e-05	-5e-05	5
21649	-1e-05	3e-05	-0.00011	0.00016	0.00042	5e-05	-8e-05	-5e-05	5
21650	-1e-05	3e-05	-0.00011	0.00016	0.00042	5e-05	-8e-05	-5e-05	5
21651	-1e-05	3e-05	-0.00011	0.00016	0.00042	5e-05	-8e-05	-5e-05	5
21652	-1e-05	3e-05	-0.00011	0.00016	0.00042	5e-05	-8e-05	-5e-05	5
21653	-1e-05	3e-05	-0.00011	0.00016	0.00042	5e-05	-8e-05	-5e-05	5
21654	-1e-05	3e-05	-0.00011	0.00016	0.00042	5e-05	-8e-05	-5e-05	5
21655	-1e-05	3e-05	-0.00011	0.00016	0.00042	5e-05	-8e-05	-5e-05	5
21656	-1e-05	3e-05	-0.00011	0.00016	0.00042	5e-05	-8e-05	-5e-05	5
21657	-1e-05	3e-05	-0.00011	0.00016	0.00042	5e-05	-8e-05	-5e-05	5
21658	-1e-05	3e-05	-0.00011	0.00016	0.00042	5e-05	-8e-05	-5e-05	5
21659	-1e-05	3e-05	-0.00011	0.00016	0.00042	5e-05	-8e-05	-5e-05	5
21660	-4e-05	-1e-05	4e-05	9e-05	-0.00012	-0.00013	-7e-05	-4e-05	5
21661	-4e-05	-0.00011	0.00024	0.00013	-7e-05	-6e-05	-2e-05	-2e-05	5
21662	-4e-05	-0.00011	0.00024	0.00013	-7e-05	-6e-05	-2e-05	-2e-05	5
21663	-4e-05	-0.00011	0.00024	0.00013	-7e-05	-6e-05	-2e-05	-2e-05	5
21664	-4e-05	-0.00011	0.00024	0.00013	-7e-05	-6e-05	-2e-05	-2e-05	5
21665	-4e-05	-0.00011	0.00024	0.00013	-7e-05	-6e-05	-2e-05	-2e-05	5
21666	-4e-05	-0.00011	0.00024	0.00013	-7e-05	-6e-05	-2e-05	-2e-05	5
21667	-4e-05	-0.00011	0.00024	0.00013	-7e-05	-6e-05	-2e-05	-2e-05	5
21668	-4e-05	-0.00011	0.00024	0.00013	-7e-05	-6e-05	-2e-05	-2e-05	5
21669	-4e-05	-0.00011	0.00024	0.00013	-7e-05	-6e-05	-2e-05	-2e-05	5
21670	-4e-05	-0.00011	0.00024	0.00013	-7e-05	-6e-05	-2e-05	-2e-05	5
21671	-4e-05	-0.00011	0.00024	0.00013	-7e-05	-6e-05	-2e-05	-2e-05	5
21672	-4e-05	-0.00011	0.00024	0.00013	-7e-05	-6e-05	-2e-05	-2e-05	5
21673	-4e-05	-0.00011	0.00024	0.00013	-7e-05	-6e-05	-2e-05	-2e-05	5
21674	-4e-05	-0.00011	0.00024	0.00013	-7e-05	-6e-05	-2e-05	-2e-05	5
21675	-4e-05	-0.00011	0.00024	0.00013	-7e-05	-6e-05	-2e-05	-2e-05	5
21676	-4e-05	-0.00011	0.00024	0.00013	-7e-05	-6e-05	-2e-05	-2e-05	5
21677	-4e-05	-0.00011	0.00024	0.00013	-7e-05	-6e-05	-2e-05	-2e-05	5
21678	-4e-05	-0.00011	0.00024	0.00013	-7e-05	-6e-05	-2e-05	-2e-05	5
21679	-4e-05	-0.00011	0.00024	0.00013	-7e-05	-6e-05	-2e-05	-2e-05	5
21680	-4e-05	-0.00011	0.00024	0.00013	-7e-05	-6e-05	-2e-05	-2e-05	5
21681	-4e-05	-0.00011	0.00024	0.00013	-7e-05	-6e-05	-2e-05	-2e-05	5
21682	-4e-05	-0.00011	0.00024	0.00013	-7e-05	-6e-05	-2e-05	-2e-05	5
21683	3e-05	-0.0002	-0.00044	-0.00105	-0.00068	-0.00052	-6e-05	3e-05	5
21684	0	-0.00018	-0.0004	-0.00049	-0.00068	-3e-05	1e-05	-3e-05	5
21685	0	-0.00018	-0.0004	-0.00049	-0.00068	-3e-05	1e-05	-3e-05	5
21686	0	-0.00018	-0.0004	-0.00049	-0.00068	-3e-05	1e-05	-3e-05	5
21689	0	-0.00018	-0.0004	-0.00049	-0.00068	-3e-05	1e-05	-3e-05	5
21690	0	-0.00018	-0.0004	-0.00049	-0.00068	-3e-05	1e-05	-3e-05	5
21691	0	-0.00018	-0.0004	-0.00049	-0.00068	-3e-05	1e-05	-3e-05	5
21692	0	-0.00018	-0.0004	-0.00049	-0.00068	-3e-05	1e-05	-3e-05	5
21693	0	-0.00018	-0.0004	-0.00049	-0.00068	-3e-05	1e-05	-3e-05	5
21694	0	-0.00018	-0.0004	-0.00049	-0.00068	-3e-05	1e-05	-3e-05	5
21695	0	-0.00018	-0.0004	-0.00049	-0.00068	-3e-05	1e-05	-3e-05	5
21696	0	-0.00018	-0.0004	-0.00049	-0.00068	-3e-05	1e-05	-3e-05	5
21697	-7e-05	-0.00016	-0.00022	4e-05	0.00035	0.00012	1e-05	-1e-05	5
21698	-7e-05	-0.00016	-0.00022	4e-05	0.00035	0.00012	1e-05	-1e-05	5
21699	-7e-05	-0.00016	-0.00022	4e-05	0.00035	0.00012	1e-05	-1e-05	5
21700	-7e-05	-0.00016	-0.00022	4e-05	0.00035	0.00012	1e-05	-1e-05	5
21701	-7e-05	-0.00016	-0.00022	4e-05	0.00035	0.00012	1e-05	-1e-05	5
21702	-7e-05	-0.00016	-0.00022	4e-05	0.00035	0.00012	1e-05	-1e-05	5
21703	-7e-05	-0.00016	-0.00022	4e-05	0.00035	0.00012	1e-05	-1e-05	5
21704	-7e-05	-0.00016	-0.00022	4e-05	0.00035	0.00012	1e-05	-1e-05	5
21705	0	5e-05	-7e-05	-0.00014	8e-05	2e-05	0	-2e-05	5
21706	0	5e-05	-7e-05	-0.00014	8e-05	2e-05	0	-2e-05	5
21707	0	5e-05	-7e-05	-0.00014	8e-05	2e-05	0	-2e-05	5
21708	0	5e-05	-7e-05	-0.00014	8e-05	2e-05	0	-2e-05	5
21709	0	5e-05	-7e-05	-0.00014	8e-05	2e-05	0	-2e-05	5
21710	0	5e-05	-7e-05	-0.00014	8e-05	2e-05	0	-2e-05	5
21711	0	5e-05	-7e-05	-0.00014	8e-05	2e-05	0	-2e-05	5
21712	0	5e-05	-7e-05	-0.00014	8e-05	2e-05	0	-2e-05	5
21714	0	5e-05	-7e-05	-0.00014	8e-05	2e-05	0	-2e-05	5
21715	0	5e-05	-7e-05	-0.00014	8e-05	2e-05	0	-2e-05	5
21716	0	5e-05	-7e-05	-0.00014	8e-05	2e-05	0	-2e-05	5
21717	0	5e-05	-7e-05	-0.00014	8e-05	2e-05	0	-2e-05	5
21718	0	5e-05	-7e-05	-0.00014	8e-05	2e-05	0	-2e-05	5
21719	0	5e-05	-7e-05	-0.00014	8e-05	2e-05	0	-2e-05	5
21720	0	5e-05	-7e-05	-0.00014	8e-05	2e-05	0	-2e-05	5
21721	0	5e-05	-7e-05	-0.00014	8e-05	2e-05	0	-2e-05	5
21722	-7e-05	-0.00015	-0.0004	-0.00039	-0.00024	-0.00029	-9e-05	-7e-05	5
21723	-7e-05	-0.00015	-0.0004	-0.00039	-0.00024	-0.00029	-9e-05	-7e-05	5
21724	-7e-05	-0.00015	-0.0004	-0.00039	-0.00024	-0.00029	-9e-05	-7e-05	5
21725	-7e-05	-0.00015	-0.0004	-0.00039	-0.00024	-0.00029	-9e-05	-7e-05	5
21726	-7e-05	-0.00015	-0.0004	-0.00039	-0.00024	-0.00029	-9e-05	-7e-05	5
21727	-7e-05	-0.00015	-0.0004	-0.00039	-0.00024	-0.00029	-9e-05	-7e-05	5
21728	-7e-05	-0.00015	-0.0004	-0.00039	-0.00024	-0.00029	-9e-05	-7e-05	5
21729	-7e-05	-0.00015	-0.0004	-0.00039	-0.00024	-0.00029	-9e-05	-7e-05	5
21730	-7e-05	-0.00015	-0.0004	-0.00039	-0.00024	-0.00029	-9e-05	-7e-05	5
21731	-7e-05	-0.00015	-0.0004	-0.00039	-0.00024	-0.00029	-9e-05	-7e-05	5
21732	-7e-05	-0.00015	-0.0004	-0.00039	-0.00024	-0.00029	-9e-05	-7e-05	5
21733	-7e-05	-0.00015	-0.0004	-0.00039	-0.00024	-0.00029	-9e-05	-7e-05	5
21734	-7e-05	-0.00015	-0.0004	-0.00039	-0.00024	-0.00029	-9e-05	-7e-05	5
21735	-7e-05	-0.00015	-0.0004	-0.00039	-0.00024	-0.00029	-9e-05	-7e-05	5
21736	-7e-05	-0.00015	-0.0004	-0.00039	-0.00024	-0.00029	-9e-05	-7e-05	5
21740	-7e-05	-0.00015	-0.0004	-0.00039	-0.00024	-0.00029	-9e-05	-7e-05	5
21741	-7e-05	-0.00015	-0.0004	-0.00039	-0.00024	-0.00029	-9e-05	-7e-05	5
21742	-7e-05	-0.00015	-0.0004	-0.00039	-0.00024	-0.00029	-9e-05	-7e-05	5
21743	-4e-05	-2e-05	-7e-05	0.00015	0.00021	0.00035	9e-05	1e-05	5
21744	1e-05	5e-05	0.0002	0.00015	0.00024	-4e-05	2e-05	1e-05	5
21745	1e-05	5e-05	0.0002	0.00015	0.00024	-4e-05	2e-05	1e-05	5
21746	1e-05	5e-05	0.0002	0.00015	0.00024	-4e-05	2e-05	1e-05	5
21747	1e-05	5e-05	0.0002	0.00015	0.00024	-4e-05	2e-05	1e-05	5
21748	1e-05	5e-05	0.0002	0.00015	0.00024	-4e-05	2e-05	1e-05	5
21749	1e-05	5e-05	0.0002	0.00015	0.00024	-4e-05	2e-05	1e-05	5
21750	1e-05	5e-05	0.0002	0.00015	0.00024	-4e-05	2e-05	1e-05	5
21751	1e-05	5e-05	0.0002	0.00015	0.00024	-4e-05	2e-05	1e-05	5
21752	1e-05	5e-05	0.0002	0.00015	0.00024	-4e-05	2e-05	1e-05	5
21753	1e-05	5e-05	0.0002	0.00015	0.00024	-4e-05	2e-05	1e-05	5
21754	1e-05	5e-05	0.0002	0.00015	0.00024	-4e-05	2e-05	1e-05	5
21755	1e-05	5e-05	0.0002	0.00015	0.00024	-4e-05	2e-05	1e-05	5
21756	1e-05	5e-05	0.0002	0.00015	0.00024	-4e-05	2e-05	1e-05	5
21757	1e-05	5e-05	0.0002	0.00015	0.00024	-4e-05	2e-05	1e-05	5
21758	1e-05	5e-05	0.0002	0.00015	0.00024	-4e-05	2e-05	1e-05	5
21759	1e-05	5e-05	0.0002	0.00015	0.00024	-4e-05	2e-05	1e-05	5
21760	1e-05	5e-05	0.0002	0.00015	0.00024	-4e-05	2e-05	1e-05	5
21761	1e-05	5e-05	0.0002	0.00015	0.00024	-4e-05	2e-05	1e-05	5
21762	1e-05	5e-05	0.0002	0.00015	0.00024	-4e-05	2e-05	1e-05	5
21763	1e-05	5e-05	0.0002	0.00015	0.00024	-4e-05	2e-05	1e-05	5
21764	1e-05	5e-05	0.0002	0.00015	0.00024	-4e-05	2e-05	1e-05	5
21765	1e-05	5e-05	0.0002	0.00015	0.00024	-4e-05	2e-05	1e-05	5
21766	1e-05	5e-05	0.0002	0.00015	0.00024	-4e-05	2e-05	1e-05	5
21767	1e-05	5e-05	0.0002	0.00015	0.00024	-4e-05	2e-05	1e-05	5
21768	1e-05	5e-05	0.0002	0.00015	0.00024	-4e-05	2e-05	1e-05	5
21769	1e-05	5e-05	0.0002	0.00015	0.00024	-4e-05	2e-05	1e-05	5
21770	1e-05	5e-05	0.0002	0.00015	0.00024	-4e-05	2e-05	1e-05	5
21771	1e-05	5e-05	0.0002	0.00015	0.00024	-4e-05	2e-05	1e-05	5
21772	1e-05	5e-05	0.0002	0.00015	0.00024	-4e-05	2e-05	1e-05	5
21773	9e-05	0.00021	0.0002	0.00031	-0.00041	-2e-05	9e-05	9e-05	5
21774	9e-05	0.00021	0.0002	0.00031	-0.00041	-2e-05	9e-05	9e-05	5
21775	9e-05	0.00021	0.0002	0.00031	-0.00041	-2e-05	9e-05	9e-05	5
21776	9e-05	0.00021	0.0002	0.00031	-0.00041	-2e-05	9e-05	9e-05	5
21777	9e-05	0.00021	0.0002	0.00031	-0.00041	-2e-05	9e-05	9e-05	5
21778	9e-05	0.00021	0.0002	0.00031	-0.00041	-2e-05	9e-05	9e-05	5
21779	9e-05	0.00021	0.0002	0.00031	-0.00041	-2e-05	9e-05	9e-05	5
21780	9e-05	0.00021	0.0002	0.00031	-0.00041	-2e-05	9e-05	9e-05	5
21781	9e-05	0.00021	0.0002	0.00031	-0.00041	-2e-05	9e-05	9e-05	5
21782	1e-05	0.0001	0.00022	1e-05	9e-05	8e-05	-8e-05	-5e-05	5
21783	-3e-05	0.00017	0.00016	-0.0003	-0.00051	-0.00028	-0.0002	-0.0001	5
21784	7e-05	0.00013	0.00016	0.00034	0.00052	0.0003	0.00016	0.00011	5
21785	7e-05	0.00013	0.00016	0.00034	0.00052	0.0003	0.00016	0.00011	5
21786	7e-05	0.00013	0.00016	0.00034	0.00052	0.0003	0.00016	0.00011	5
21790	7e-05	0.00013	0.00016	0.00034	0.00052	0.0003	0.00016	0.00011	5
21791	7e-05	0.00013	0.00016	0.00034	0.00052	0.0003	0.00016	0.00011	5
21792	7e-05	0.00013	0.00016	0.00034	0.00052	0.0003	0.00016	0.00011	5
21793	7e-05	0.00013	0.00016	0.00034	0.00052	0.0003	0.00016	0.00011	5
21794	7e-05	0.00013	0.00016	0.00034	0.00052	0.0003	0.00016	0.00011	5
21795	7e-05	0.00013	0.00016	0.00034	0.00052	0.0003	0.00016	0.00011	5
21796	7e-05	0.00013	0.00016	0.00034	0.00052	0.0003	0.00016	0.00011	5
21797	7e-05	0.00013	0.00016	0.00034	0.00052	0.0003	0.00016	0.00011	5
21798	7e-05	0.00013	0.00016	0.00034	0.00052	0.0003	0.00016	0.00011	5
21799	7e-05	0.00013	0.00016	0.00034	0.00052	0.0003	0.00016	0.00011	5
21800	7e-05	0.00013	0.00016	0.00034	0.00052	0.0003	0.00016	0.00011	5
21801	7e-05	0.00013	0.00016	0.00034	0.00052	0.0003	0.00016	0.00011	5
21802	7e-05	0.00013	0.00016	0.00034	0.00052	0.0003	0.00016	0.00011	5
21803	7e-05	0.00013	0.00016	0.00034	0.00052	0.0003	0.00016	0.00011	5
21804	-0.0001	-0.00011	-0.00022	-0.00039	-0.00027	-0.0003	-0.00015	-0.00011	5
21805	-0.0001	-0.00011	-0.00022	-0.00039	-0.00027	-0.0003	-0.00015	-0.00011	5
21806	-0.0001	-0.00011	-0.00022	-0.00039	-0.00027	-0.0003	-0.00015	-0.00011	5
21807	-0.0001	-0.00011	-0.00022	-0.00039	-0.00027	-0.0003	-0.00015	-0.00011	5
21808	-0.0001	-0.00011	-0.00022	-0.00039	-0.00027	-0.0003	-0.00015	-0.00011	5
21809	-0.0001	-0.00011	-0.00022	-0.00039	-0.00027	-0.0003	-0.00015	-0.00011	5
21810	-0.0001	-0.00011	-0.00022	-0.00039	-0.00027	-0.0003	-0.00015	-0.00011	5
21811	-0.0001	-0.00011	-0.00022	-0.00039	-0.00027	-0.0003	-0.00015	-0.00011	5
21812	-0.0001	-0.00011	-0.00022	-0.00039	-0.00027	-0.0003	-0.00015	-0.00011	5
21813	-0.0001	-0.00011	-0.00022	-0.00039	-0.00027	-0.0003	-0.00015	-0.00011	5
21814	-0.0001	-0.00011	-0.00022	-0.00039	-0.00027	-0.0003	-0.00015	-0.00011	5
21815	-0.0001	-0.00011	-0.00022	-0.00039	-0.00027	-0.0003	-0.00015	-0.00011	5
21816	-0.0001	-0.00011	-0.00022	-0.00039	-0.00027	-0.0003	-0.00015	-0.00011	5
21817	-0.0001	-0.00011	-0.00022	-0.00039	-0.00027	-0.0003	-0.00015	-0.00011	5
21818	-0.0001	-0.00011	-0.00022	-0.00039	-0.00027	-0.0003	-0.00015	-0.00011	5
21819	-0.0001	-0.00011	-0.00022	-0.00039	-0.00027	-0.0003	-0.00015	-0.00011	5
21820	-0.0001	-0.00011	-0.00022	-0.00039	-0.00027	-0.0003	-0.00015	-0.00011	5
21821	-0.0001	-0.00011	-0.00022	-0.00039	-0.00027	-0.0003	-0.00015	-0.00011	5
21822	-0.0001	-0.00011	-0.00022	-0.00039	-0.00027	-0.0003	-0.00015	-0.00011	5
21823	-0.0001	-0.00011	-0.00022	-0.00039	-0.00027	-0.0003	-0.00015	-0.00011	5
21824	-0.0001	-0.00011	-0.00022	-0.00039	-0.00027	-0.0003	-0.00015	-0.00011	5
21825	-0.0001	-0.00011	-0.00022	-0.00039	-0.00027	-0.0003	-0.00015	-0.00011	5
21826	4e-05	0.00012	0.00023	0.00012	-6e-05	-2e-05	0	4e-05	5
21827	-6e-05	-4e-05	0.00015	1e-05	-3e-05	6e-05	-2e-05	-4e-05	5
21828	-6e-05	-4e-05	0.00015	1e-05	-3e-05	6e-05	-2e-05	-4e-05	5
21829	-6e-05	-4e-05	0.00015	1e-05	-3e-05	6e-05	-2e-05	-4e-05	5
21830	-6e-05	-4e-05	0.00015	1e-05	-3e-05	6e-05	-2e-05	-4e-05	5
21831	-6e-05	-4e-05	0.00015	1e-05	-3e-05	6e-05	-2e-05	-4e-05	5
21832	-6e-05	-4e-05	0.00015	1e-05	-3e-05	6e-05	-2e-05	-4e-05	5
21833	-6e-05	-4e-05	0.00015	1e-05	-3e-05	6e-05	-2e-05	-4e-05	5
21834	-6e-05	-4e-05	0.00015	1e-05	-3e-05	6e-05	-2e-05	-4e-05	5
21835	-6e-05	-4e-05	0.00015	1e-05	-3e-05	6e-05	-2e-05	-4e-05	5
21836	-6e-05	-4e-05	0.00015	1e-05	-3e-05	6e-05	-2e-05	-4e-05	5
21839	-6e-05	-4e-05	0.00015	1e-05	-3e-05	6e-05	-2e-05	-4e-05	5
21840	-6e-05	-4e-05	0.00015	1e-05	-3e-05	6e-05	-2e-05	-4e-05	5
21841	-6e-05	-4e-05	0.00015	1e-05	-3e-05	6e-05	-2e-05	-4e-05	5
21842	-6e-05	-4e-05	0.00015	1e-05	-3e-05	6e-05	-2e-05	-4e-05	5
21843	-6e-05	-4e-05	0.00015	1e-05	-3e-05	6e-05	-2e-05	-4e-05	5
21844	-6e-05	-4e-05	0.00015	1e-05	-3e-05	6e-05	-2e-05	-4e-05	5
21845	-6e-05	-4e-05	0.00015	1e-05	-3e-05	6e-05	-2e-05	-4e-05	5
21846	-6e-05	-4e-05	0.00015	1e-05	-3e-05	6e-05	-2e-05	-4e-05	5
21847	-6e-05	-4e-05	0.00015	1e-05	-3e-05	6e-05	-2e-05	-4e-05	5
21848	6e-05	0.00024	0.00014	5e-05	1e-05	6e-05	0	1e-05	5
21849	6e-05	0.00024	0.00014	5e-05	1e-05	6e-05	0	1e-05	5
21850	6e-05	0.00024	0.00014	5e-05	1e-05	6e-05	0	1e-05	5
21851	6e-05	0.00024	0.00014	5e-05	1e-05	6e-05	0	1e-05	5
21852	6e-05	0.00024	0.00014	5e-05	1e-05	6e-05	0	1e-05	5
21854	6e-05	0.00024	0.00014	5e-05	1e-05	6e-05	0	1e-05	5
21855	6e-05	0.00024	0.00014	5e-05	1e-05	6e-05	0	1e-05	5
21856	-4e-05	-0.00026	-0.00045	-0.00047	-0.00056	-0.00031	-0.00012	-5e-05	5
21857	-4e-05	-0.00026	-0.00045	-0.00047	-0.00056	-0.00031	-0.00012	-5e-05	5
21858	-4e-05	-0.00026	-0.00045	-0.00047	-0.00056	-0.00031	-0.00012	-5e-05	5
21859	-4e-05	-0.00026	-0.00045	-0.00047	-0.00056	-0.00031	-0.00012	-5e-05	5
21860	-4e-05	-0.00026	-0.00045	-0.00047	-0.00056	-0.00031	-0.00012	-5e-05	5
21861	-4e-05	-0.00026	-0.00045	-0.00047	-0.00056	-0.00031	-0.00012	-5e-05	5
21862	-4e-05	-0.00026	-0.00045	-0.00047	-0.00056	-0.00031	-0.00012	-5e-05	5
21863	-4e-05	-0.00026	-0.00045	-0.00047	-0.00056	-0.00031	-0.00012	-5e-05	5
21864	-2e-05	1e-05	2e-05	2e-05	1e-05	-2e-05	-5e-05	-2e-05	5
21865	-2e-05	1e-05	2e-05	2e-05	1e-05	-2e-05	-5e-05	-2e-05	5
21866	-2e-05	1e-05	2e-05	2e-05	1e-05	-2e-05	-5e-05	-2e-05	5
21867	-2e-05	1e-05	2e-05	2e-05	1e-05	-2e-05	-5e-05	-2e-05	5
21868	-2e-05	1e-05	2e-05	2e-05	1e-05	-2e-05	-5e-05	-2e-05	5
21869	-2e-05	1e-05	2e-05	2e-05	1e-05	-2e-05	-5e-05	-2e-05	5
21870	-2e-05	1e-05	2e-05	2e-05	1e-05	-2e-05	-5e-05	-2e-05	5
21871	-2e-05	1e-05	2e-05	2e-05	1e-05	-2e-05	-5e-05	-2e-05	5
21872	-2e-05	1e-05	2e-05	2e-05	1e-05	-2e-05	-5e-05	-2e-05	5
21873	-2e-05	1e-05	2e-05	2e-05	1e-05	-2e-05	-5e-05	-2e-05	5
21874	-2e-05	1e-05	2e-05	2e-05	1e-05	-2e-05	-5e-05	-2e-05	5
21875	-2e-05	1e-05	2e-05	2e-05	1e-05	-2e-05	-5e-05	-2e-05	5
21876	-2e-05	1e-05	2e-05	2e-05	1e-05	-2e-05	-5e-05	-2e-05	5
21877	-2e-05	1e-05	2e-05	2e-05	1e-05	-2e-05	-5e-05	-2e-05	5
21878	-2e-05	1e-05	2e-05	2e-05	1e-05	-2e-05	-5e-05	-2e-05	5
21879	-2e-05	1e-05	2e-05	2e-05	1e-05	-2e-05	-5e-05	-2e-05	5
21880	-2e-05	1e-05	2e-05	2e-05	1e-05	-2e-05	-5e-05	-2e-05	5
21881	-2e-05	1e-05	2e-05	2e-05	1e-05	-2e-05	-5e-05	-2e-05	5
21882	-2e-05	1e-05	2e-05	2e-05	1e-05	-2e-05	-5e-05	-2e-05	5
21883	-2e-05	1e-05	2e-05	2e-05	1e-05	-2e-05	-5e-05	-2e-05	5
21884	-2e-05	1e-05	2e-05	2e-05	1e-05	-2e-05	-5e-05	-2e-05	5
21885	-2e-05	1e-05	2e-05	2e-05	1e-05	-2e-05	-5e-05	-2e-05	5
21886	-2e-05	1e-05	2e-05	2e-05	1e-05	-2e-05	-5e-05	-2e-05	5
21889	1e-05	0.00013	0.0003	0.00071	0.0003	4e-05	4e-05	2e-05	5
21890	1e-05	0.00013	0.0003	0.00071	0.0003	4e-05	4e-05	2e-05	5
21891	1e-05	0.00013	0.0003	0.00071	0.0003	4e-05	4e-05	2e-05	5
21892	1e-05	0.00013	0.0003	0.00071	0.0003	4e-05	4e-05	2e-05	5
21893	1e-05	0.00013	0.0003	0.00071	0.0003	4e-05	4e-05	2e-05	5
21894	1e-05	0.00013	0.0003	0.00071	0.0003	4e-05	4e-05	2e-05	5
21895	1e-05	0.00013	0.0003	0.00071	0.0003	4e-05	4e-05	2e-05	5
21896	1e-05	0.00013	0.0003	0.00071	0.0003	4e-05	4e-05	2e-05	5
21897	1e-05	0.00013	0.0003	0.00071	0.0003	4e-05	4e-05	2e-05	5
21898	1e-05	0.00013	0.0003	0.00071	0.0003	4e-05	4e-05	2e-05	5
21900	8e-05	0.00026	0.00033	0.00063	0.0007	0.00064	0.0003	0.00015	5
21901	0	0	-0.00012	-0.00014	-4e-05	0.00016	7e-05	2e-05	5
21902	0	0	-0.00012	-0.00014	-4e-05	0.00016	7e-05	2e-05	5
21903	0	0	-0.00012	-0.00014	-4e-05	0.00016	7e-05	2e-05	5
21904	0	0	-0.00012	-0.00014	-4e-05	0.00016	7e-05	2e-05	5
21905	0	0	-0.00012	-0.00014	-4e-05	0.00016	7e-05	2e-05	5
21906	0	0	-0.00012	-0.00014	-4e-05	0.00016	7e-05	2e-05	5
21907	0	0	-0.00012	-0.00014	-4e-05	0.00016	7e-05	2e-05	5
21908	0	0	-0.00012	-0.00014	-4e-05	0.00016	7e-05	2e-05	5
21909	0	0	-0.00012	-0.00014	-4e-05	0.00016	7e-05	2e-05	5
21910	0	0	-0.00012	-0.00014	-4e-05	0.00016	7e-05	2e-05	5
21911	0	0	-0.00012	-0.00014	-4e-05	0.00016	7e-05	2e-05	5
21912	0	0	-0.00012	-0.00014	-4e-05	0.00016	7e-05	2e-05	5
21913	0	0	-0.00012	-0.00014	-4e-05	0.00016	7e-05	2e-05	5
21914	0	0	-0.00012	-0.00014	-4e-05	0.00016	7e-05	2e-05	5
21915	0	0	-0.00012	-0.00014	-4e-05	0.00016	7e-05	2e-05	5
21916	0	0	-0.00012	-0.00014	-4e-05	0.00016	7e-05	2e-05	5
21917	0	0	-0.00012	-0.00014	-4e-05	0.00016	7e-05	2e-05	5
21918	0	0	-0.00012	-0.00014	-4e-05	0.00016	7e-05	2e-05	5
21919	0	0	-0.00012	-0.00014	-4e-05	0.00016	7e-05	2e-05	5
21920	0	0	-0.00012	-0.00014	-4e-05	0.00016	7e-05	2e-05	5
21921	0	0	-0.00012	-0.00014	-4e-05	0.00016	7e-05	2e-05	5
21922	0	0	-0.00012	-0.00014	-4e-05	0.00016	7e-05	2e-05	5
21923	0	0	-0.00012	-0.00014	-4e-05	0.00016	7e-05	2e-05	5
21924	4e-05	0.00016	0.00035	4e-05	-0.00019	-0.00017	-2e-05	-1e-05	5
21925	6e-05	8e-05	9e-05	0.00015	0.00014	0.00016	9e-05	3e-05	5
21926	6e-05	8e-05	9e-05	0.00015	0.00014	0.00016	9e-05	3e-05	5
21927	6e-05	8e-05	9e-05	0.00015	0.00014	0.00016	9e-05	3e-05	5
21928	6e-05	8e-05	9e-05	0.00015	0.00014	0.00016	9e-05	3e-05	5
21929	6e-05	8e-05	9e-05	0.00015	0.00014	0.00016	9e-05	3e-05	5
21930	6e-05	8e-05	9e-05	0.00015	0.00014	0.00016	9e-05	3e-05	5
21931	6e-05	8e-05	9e-05	0.00015	0.00014	0.00016	9e-05	3e-05	5
21932	6e-05	8e-05	9e-05	0.00015	0.00014	0.00016	9e-05	3e-05	5
21933	6e-05	8e-05	9e-05	0.00015	0.00014	0.00016	9e-05	3e-05	5
21934	6e-05	8e-05	9e-05	0.00015	0.00014	0.00016	9e-05	3e-05	5
21935	6e-05	8e-05	9e-05	0.00015	0.00014	0.00016	9e-05	3e-05	5
21936	6e-05	8e-05	9e-05	0.00015	0.00014	0.00016	9e-05	3e-05	5
21939	6e-05	8e-05	9e-05	0.00015	0.00014	0.00016	9e-05	3e-05	5
21940	6e-05	8e-05	9e-05	0.00015	0.00014	0.00016	9e-05	3e-05	5
21941	6e-05	8e-05	9e-05	0.00015	0.00014	0.00016	9e-05	3e-05	5
21942	6e-05	8e-05	9e-05	0.00015	0.00014	0.00016	9e-05	3e-05	5
21943	6e-05	8e-05	9e-05	0.00015	0.00014	0.00016	9e-05	3e-05	5
21944	6e-05	8e-05	9e-05	0.00015	0.00014	0.00016	9e-05	3e-05	5
21945	6e-05	8e-05	9e-05	0.00015	0.00014	0.00016	9e-05	3e-05	5
21946	4e-05	4e-05	0.00017	0.00014	0.00012	0.0001	2e-05	4e-05	5
21947	-1e-05	-7e-05	-0.00014	-0.00025	5e-05	-2e-05	4e-05	-1e-05	5
21948	-1e-05	-7e-05	-0.00014	-0.00025	5e-05	-2e-05	4e-05	-1e-05	5
21949	-1e-05	-7e-05	-0.00014	-0.00025	5e-05	-2e-05	4e-05	-1e-05	5
21950	-1e-05	-7e-05	-0.00014	-0.00025	5e-05	-2e-05	4e-05	-1e-05	5
21951	-1e-05	-7e-05	-0.00014	-0.00025	5e-05	-2e-05	4e-05	-1e-05	5
21952	-1e-05	-7e-05	-0.00014	-0.00025	5e-05	-2e-05	4e-05	-1e-05	5
21953	-1e-05	-7e-05	-0.00014	-0.00025	5e-05	-2e-05	4e-05	-1e-05	5
21954	-1e-05	-7e-05	-0.00014	-0.00025	5e-05	-2e-05	4e-05	-1e-05	5
21955	-1e-05	-7e-05	-0.00014	-0.00025	5e-05	-2e-05	4e-05	-1e-05	5
21956	-1e-05	-7e-05	-0.00014	-0.00025	5e-05	-2e-05	4e-05	-1e-05	5
21957	-1e-05	-7e-05	-0.00014	-0.00025	5e-05	-2e-05	4e-05	-1e-05	5
21958	-1e-05	-7e-05	-0.00014	-0.00025	5e-05	-2e-05	4e-05	-1e-05	5
21959	-1e-05	-7e-05	-0.00014	-0.00025	5e-05	-2e-05	4e-05	-1e-05	5
21960	5e-05	0.00013	0.0003	-7e-05	-0.00024	-8e-05	-0.00013	-2e-05	5
21961	-1e-05	-5e-05	-0.00023	0.00075	0.00088	0.00021	6e-05	2e-05	5
21962	-1e-05	-5e-05	-0.00023	0.00075	0.00088	0.00021	6e-05	2e-05	5
21963	-1e-05	-5e-05	-0.00023	0.00075	0.00088	0.00021	6e-05	2e-05	5
21964	-1e-05	-5e-05	-0.00023	0.00075	0.00088	0.00021	6e-05	2e-05	5
21965	-1e-05	-5e-05	-0.00023	0.00075	0.00088	0.00021	6e-05	2e-05	5
21966	-1e-05	-5e-05	-0.00023	0.00075	0.00088	0.00021	6e-05	2e-05	5
21967	-1e-05	-5e-05	-0.00023	0.00075	0.00088	0.00021	6e-05	2e-05	5
21968	-1e-05	-5e-05	-0.00023	0.00075	0.00088	0.00021	6e-05	2e-05	5
21969	-1e-05	-5e-05	-0.00023	0.00075	0.00088	0.00021	6e-05	2e-05	5
21970	-1e-05	-5e-05	-0.00023	0.00075	0.00088	0.00021	6e-05	2e-05	5
21971	-1e-05	-5e-05	-0.00023	0.00075	0.00088	0.00021	6e-05	2e-05	5
21972	-1e-05	-5e-05	-0.00023	0.00075	0.00088	0.00021	6e-05	2e-05	5
21973	-1e-05	-5e-05	-0.00023	0.00075	0.00088	0.00021	6e-05	2e-05	5
21974	-1e-05	-5e-05	-0.00023	0.00075	0.00088	0.00021	6e-05	2e-05	5
21975	-1e-05	-5e-05	-0.00023	0.00075	0.00088	0.00021	6e-05	2e-05	5
21976	-1e-05	-5e-05	-0.00023	0.00075	0.00088	0.00021	6e-05	2e-05	5
21977	-1e-05	-5e-05	-0.00023	0.00075	0.00088	0.00021	6e-05	2e-05	5
21978	-1e-05	-5e-05	-0.00023	0.00075	0.00088	0.00021	6e-05	2e-05	5
21979	-1e-05	-5e-05	-0.00023	0.00075	0.00088	0.00021	6e-05	2e-05	5
21980	-1e-05	-5e-05	-0.00023	0.00075	0.00088	0.00021	6e-05	2e-05	5
21981	-1e-05	-5e-05	-0.00023	0.00075	0.00088	0.00021	6e-05	2e-05	5
21982	-1e-05	-5e-05	-0.00023	0.00075	0.00088	0.00021	6e-05	2e-05	5
21983	5e-05	0.00018	0.00031	-5e-05	-0.00018	-4e-05	4e-05	3e-05	5
21984	4e-05	6e-05	0.00023	0.0007	0.00069	0.00042	0.00011	-2e-05	5
21985	4e-05	6e-05	0.00023	0.0007	0.00069	0.00042	0.00011	-2e-05	5
21986	4e-05	6e-05	0.00023	0.0007	0.00069	0.00042	0.00011	-2e-05	5
21989	4e-05	6e-05	0.00023	0.0007	0.00069	0.00042	0.00011	-2e-05	5
21990	4e-05	6e-05	0.00023	0.0007	0.00069	0.00042	0.00011	-2e-05	5
21991	4e-05	6e-05	0.00023	0.0007	0.00069	0.00042	0.00011	-2e-05	5
21992	4e-05	6e-05	0.00023	0.0007	0.00069	0.00042	0.00011	-2e-05	5
21993	4e-05	6e-05	0.00023	0.0007	0.00069	0.00042	0.00011	-2e-05	5
21994	4e-05	6e-05	0.00023	0.0007	0.00069	0.00042	0.00011	-2e-05	5
21995	4e-05	6e-05	0.00023	0.0007	0.00069	0.00042	0.00011	-2e-05	5
21996	4e-05	6e-05	0.00023	0.0007	0.00069	0.00042	0.00011	-2e-05	5
21997	4e-05	6e-05	0.00023	0.0007	0.00069	0.00042	0.00011	-2e-05	5
21998	4e-05	6e-05	0.00023	0.0007	0.00069	0.00042	0.00011	-2e-05	5
21999	4e-05	6e-05	0.00023	0.0007	0.00069	0.00042	0.00011	-2e-05	5
22000	4e-05	6e-05	0.00023	0.0007	0.00069	0.00042	0.00011	-2e-05	5
22001	4e-05	6e-05	0.00023	0.0007	0.00069	0.00042	0.00011	-2e-05	5
22002	4e-05	6e-05	0.00023	0.0007	0.00069	0.00042	0.00011	-2e-05	5
22003	4e-05	6e-05	0.00023	0.0007	0.00069	0.00042	0.00011	-2e-05	5
22004	4e-05	6e-05	0.00023	0.0007	0.00069	0.00042	0.00011	-2e-05	5
22005	4e-05	6e-05	0.00023	0.0007	0.00069	0.00042	0.00011	-2e-05	5
22006	-2e-05	-0.00024	-0.00014	-0.00055	-0.0001	-0.00011	-9e-05	-2e-05	5
22007	3e-05	0.00019	0.0003	0.00026	-2e-05	0.00022	0.00015	0.0001	5
22008	3e-05	0.00019	0.0003	0.00026	-2e-05	0.00022	0.00015	0.0001	5
22009	3e-05	0.00019	0.0003	0.00026	-2e-05	0.00022	0.00015	0.0001	5
22010	3e-05	0.00019	0.0003	0.00026	-2e-05	0.00022	0.00015	0.0001	5
22011	3e-05	0.00019	0.0003	0.00026	-2e-05	0.00022	0.00015	0.0001	5
22012	3e-05	0.00019	0.0003	0.00026	-2e-05	0.00022	0.00015	0.0001	5
22013	3e-05	0.00019	0.0003	0.00026	-2e-05	0.00022	0.00015	0.0001	5
22014	3e-05	0.00019	0.0003	0.00026	-2e-05	0.00022	0.00015	0.0001	5
22015	3e-05	0.00019	0.0003	0.00026	-2e-05	0.00022	0.00015	0.0001	5
22016	3e-05	0.00019	0.0003	0.00026	-2e-05	0.00022	0.00015	0.0001	5
22017	3e-05	0.00019	0.0003	0.00026	-2e-05	0.00022	0.00015	0.0001	5
22018	3e-05	0.00019	0.0003	0.00026	-2e-05	0.00022	0.00015	0.0001	5
22019	3e-05	0.00019	0.0003	0.00026	-2e-05	0.00022	0.00015	0.0001	5
22020	5e-05	0.00019	0.00023	0.00034	0.00062	0.00024	5e-05	0	5
22021	6e-05	0.00016	0.00022	6e-05	-0.00013	-0.00013	-6e-05	1e-05	5
22022	6e-05	0.00016	0.00022	6e-05	-0.00013	-0.00013	-6e-05	1e-05	5
22023	6e-05	0.00016	0.00022	6e-05	-0.00013	-0.00013	-6e-05	1e-05	5
22024	6e-05	0.00016	0.00022	6e-05	-0.00013	-0.00013	-6e-05	1e-05	5
22025	6e-05	0.00016	0.00022	6e-05	-0.00013	-0.00013	-6e-05	1e-05	5
22026	6e-05	0.00016	0.00022	6e-05	-0.00013	-0.00013	-6e-05	1e-05	5
22027	6e-05	0.00016	0.00022	6e-05	-0.00013	-0.00013	-6e-05	1e-05	5
22028	6e-05	0.00016	0.00022	6e-05	-0.00013	-0.00013	-6e-05	1e-05	5
22029	6e-05	0.00016	0.00022	6e-05	-0.00013	-0.00013	-6e-05	1e-05	5
22030	6e-05	0.00016	0.00022	6e-05	-0.00013	-0.00013	-6e-05	1e-05	5
22031	6e-05	0.00016	0.00022	6e-05	-0.00013	-0.00013	-6e-05	1e-05	5
22032	6e-05	0.00016	0.00022	6e-05	-0.00013	-0.00013	-6e-05	1e-05	5
22033	6e-05	0.00016	0.00022	6e-05	-0.00013	-0.00013	-6e-05	1e-05	5
22034	6e-05	0.00016	0.00022	6e-05	-0.00013	-0.00013	-6e-05	1e-05	5
22035	6e-05	0.00016	0.00022	6e-05	-0.00013	-0.00013	-6e-05	1e-05	5
22036	6e-05	0.00016	0.00022	6e-05	-0.00013	-0.00013	-6e-05	1e-05	5
22039	6e-05	0.00016	0.00022	6e-05	-0.00013	-0.00013	-6e-05	1e-05	5
22040	6e-05	0.00016	0.00022	6e-05	-0.00013	-0.00013	-6e-05	1e-05	5
22041	6e-05	0.00016	0.00022	6e-05	-0.00013	-0.00013	-6e-05	1e-05	5
22042	6e-05	0.00016	0.00022	6e-05	-0.00013	-0.00013	-6e-05	1e-05	5
22043	6e-05	0.00016	0.00022	6e-05	-0.00013	-0.00013	-6e-05	1e-05	5
22044	6e-05	0.00016	0.00022	6e-05	-0.00013	-0.00013	-6e-05	1e-05	5
22045	6e-05	0.00016	0.00022	6e-05	-0.00013	-0.00013	-6e-05	1e-05	5
22046	6e-05	0.00016	0.00022	6e-05	-0.00013	-0.00013	-6e-05	1e-05	5
22047	6e-05	0.00016	0.00022	6e-05	-0.00013	-0.00013	-6e-05	1e-05	5
22048	6e-05	0.00016	0.00022	6e-05	-0.00013	-0.00013	-6e-05	1e-05	5
22049	6e-05	0.00016	0.00022	6e-05	-0.00013	-0.00013	-6e-05	1e-05	5
22050	6e-05	0.00016	0.00022	6e-05	-0.00013	-0.00013	-6e-05	1e-05	5
22051	-0.00025	-0.00066	-0.00073	-0.00112	-0.00119	-0.00029	-7e-05	-8e-05	5
22052	-4e-05	-3e-05	-0.00011	-0.00056	-0.00049	-0.00028	-0.00015	-5e-05	5
22053	-4e-05	-3e-05	-0.00011	-0.00056	-0.00049	-0.00028	-0.00015	-5e-05	5
22054	-4e-05	-3e-05	-0.00011	-0.00056	-0.00049	-0.00028	-0.00015	-5e-05	5
22055	-4e-05	-3e-05	-0.00011	-0.00056	-0.00049	-0.00028	-0.00015	-5e-05	5
22056	-4e-05	-3e-05	-0.00011	-0.00056	-0.00049	-0.00028	-0.00015	-5e-05	5
22057	-4e-05	-3e-05	-0.00011	-0.00056	-0.00049	-0.00028	-0.00015	-5e-05	5
22058	-4e-05	-3e-05	-0.00011	-0.00056	-0.00049	-0.00028	-0.00015	-5e-05	5
22059	-4e-05	-3e-05	-0.00011	-0.00056	-0.00049	-0.00028	-0.00015	-5e-05	5
22060	-4e-05	-3e-05	-0.00011	-0.00056	-0.00049	-0.00028	-0.00015	-5e-05	5
22061	-4e-05	-3e-05	-0.00011	-0.00056	-0.00049	-0.00028	-0.00015	-5e-05	5
22062	-4e-05	-3e-05	-0.00011	-0.00056	-0.00049	-0.00028	-0.00015	-5e-05	5
22063	-4e-05	-3e-05	-0.00011	-0.00056	-0.00049	-0.00028	-0.00015	-5e-05	5
22064	-4e-05	-3e-05	-0.00011	-0.00056	-0.00049	-0.00028	-0.00015	-5e-05	5
22065	-4e-05	-3e-05	-0.00011	-0.00056	-0.00049	-0.00028	-0.00015	-5e-05	5
22066	2e-05	0.00019	0.00013	0.00026	0.0005	-0.00015	-4e-05	-4e-05	5
22067	-0.00011	-0.00029	-0.00029	-0.00051	-0.00021	-0.00017	-0.00011	-7e-05	5
22068	-0.00011	-0.00029	-0.00029	-0.00051	-0.00021	-0.00017	-0.00011	-7e-05	5
22069	-0.00011	-0.00029	-0.00029	-0.00051	-0.00021	-0.00017	-0.00011	-7e-05	5
22070	-0.00011	-0.00029	-0.00029	-0.00051	-0.00021	-0.00017	-0.00011	-7e-05	5
22071	-0.00011	-0.00029	-0.00029	-0.00051	-0.00021	-0.00017	-0.00011	-7e-05	5
22072	-0.00011	-0.00029	-0.00029	-0.00051	-0.00021	-0.00017	-0.00011	-7e-05	5
22073	-0.00011	-0.00029	-0.00029	-0.00051	-0.00021	-0.00017	-0.00011	-7e-05	5
22074	-0.00011	-0.00029	-0.00029	-0.00051	-0.00021	-0.00017	-0.00011	-7e-05	5
22075	-0.00011	-0.00029	-0.00029	-0.00051	-0.00021	-0.00017	-0.00011	-7e-05	5
22076	-0.00011	-0.00029	-0.00029	-0.00051	-0.00021	-0.00017	-0.00011	-7e-05	5
22077	-0.00011	-0.00029	-0.00029	-0.00051	-0.00021	-0.00017	-0.00011	-7e-05	5
22078	-0.00011	-0.00029	-0.00029	-0.00051	-0.00021	-0.00017	-0.00011	-7e-05	5
22079	-0.00011	-0.00029	-0.00029	-0.00051	-0.00021	-0.00017	-0.00011	-7e-05	5
22080	-0.00011	-0.00029	-0.00029	-0.00051	-0.00021	-0.00017	-0.00011	-7e-05	5
22081	0	9e-05	9e-05	-4e-05	-0.00014	-5e-05	-7e-05	-6e-05	5
22082	6e-05	2e-05	-6e-05	4e-05	0.0004	0.0002	0.00013	7e-05	5
22083	6e-05	2e-05	-6e-05	4e-05	0.0004	0.0002	0.00013	7e-05	5
22084	6e-05	2e-05	-6e-05	4e-05	0.0004	0.0002	0.00013	7e-05	5
22085	6e-05	2e-05	-6e-05	4e-05	0.0004	0.0002	0.00013	7e-05	5
22086	6e-05	2e-05	-6e-05	4e-05	0.0004	0.0002	0.00013	7e-05	5
22089	6e-05	2e-05	-6e-05	4e-05	0.0004	0.0002	0.00013	7e-05	5
22090	6e-05	2e-05	-6e-05	4e-05	0.0004	0.0002	0.00013	7e-05	5
22091	6e-05	2e-05	-6e-05	4e-05	0.0004	0.0002	0.00013	7e-05	5
22092	6e-05	2e-05	-6e-05	4e-05	0.0004	0.0002	0.00013	7e-05	5
22093	6e-05	2e-05	-6e-05	4e-05	0.0004	0.0002	0.00013	7e-05	5
22094	6e-05	2e-05	-6e-05	4e-05	0.0004	0.0002	0.00013	7e-05	5
22095	6e-05	2e-05	-6e-05	4e-05	0.0004	0.0002	0.00013	7e-05	5
22096	6e-05	2e-05	-6e-05	4e-05	0.0004	0.0002	0.00013	7e-05	5
22097	6e-05	2e-05	-6e-05	4e-05	0.0004	0.0002	0.00013	7e-05	5
22099	6e-05	2e-05	-6e-05	4e-05	0.0004	0.0002	0.00013	7e-05	5
22100	6e-05	2e-05	-6e-05	4e-05	0.0004	0.0002	0.00013	7e-05	5
22101	6e-05	2e-05	-6e-05	4e-05	0.0004	0.0002	0.00013	7e-05	5
22102	6e-05	2e-05	-6e-05	4e-05	0.0004	0.0002	0.00013	7e-05	5
22103	6e-05	0.00024	0.0003	0.00062	0.00045	0.00018	3e-05	4e-05	5
22104	5e-05	0.00022	0.00028	-0.00015	-0.00035	-8e-05	-9e-05	-2e-05	5
22105	5e-05	0.00022	0.00028	-0.00015	-0.00035	-8e-05	-9e-05	-2e-05	5
22107	5e-05	0.00022	0.00028	-0.00015	-0.00035	-8e-05	-9e-05	-2e-05	5
22108	5e-05	0.00022	0.00028	-0.00015	-0.00035	-8e-05	-9e-05	-2e-05	5
22109	5e-05	0.00022	0.00028	-0.00015	-0.00035	-8e-05	-9e-05	-2e-05	5
22110	5e-05	0.00022	0.00028	-0.00015	-0.00035	-8e-05	-9e-05	-2e-05	5
22111	5e-05	0.00022	0.00028	-0.00015	-0.00035	-8e-05	-9e-05	-2e-05	5
22112	5e-05	0.00022	0.00028	-0.00015	-0.00035	-8e-05	-9e-05	-2e-05	5
22113	5e-05	0.00022	0.00028	-0.00015	-0.00035	-8e-05	-9e-05	-2e-05	5
22114	5e-05	0.00022	0.00028	-0.00015	-0.00035	-8e-05	-9e-05	-2e-05	5
22115	5e-05	0.00022	0.00028	-0.00015	-0.00035	-8e-05	-9e-05	-2e-05	5
22116	5e-05	0.00022	0.00028	-0.00015	-0.00035	-8e-05	-9e-05	-2e-05	5
22117	5e-05	0.00022	0.00028	-0.00015	-0.00035	-8e-05	-9e-05	-2e-05	5
22118	5e-05	0.00022	0.00028	-0.00015	-0.00035	-8e-05	-9e-05	-2e-05	5
22119	5e-05	0.00022	0.00028	-0.00015	-0.00035	-8e-05	-9e-05	-2e-05	5
22120	5e-05	0.00022	0.00028	-0.00015	-0.00035	-8e-05	-9e-05	-2e-05	5
22121	5e-05	0.00022	0.00028	-0.00015	-0.00035	-8e-05	-9e-05	-2e-05	5
22122	5e-05	0.00022	0.00028	-0.00015	-0.00035	-8e-05	-9e-05	-2e-05	5
22123	5e-05	0.00022	0.00028	-0.00015	-0.00035	-8e-05	-9e-05	-2e-05	5
22124	5e-05	0.00022	0.00028	-0.00015	-0.00035	-8e-05	-9e-05	-2e-05	5
22125	5e-05	0.00022	0.00028	-0.00015	-0.00035	-8e-05	-9e-05	-2e-05	5
22126	5e-05	0.00022	0.00028	-0.00015	-0.00035	-8e-05	-9e-05	-2e-05	5
22127	5e-05	0.00022	0.00028	-0.00015	-0.00035	-8e-05	-9e-05	-2e-05	5
22128	5e-05	0.00022	0.00028	-0.00015	-0.00035	-8e-05	-9e-05	-2e-05	5
22129	5e-05	0.00022	0.00028	-0.00015	-0.00035	-8e-05	-9e-05	-2e-05	5
22130	5e-05	0.00022	0.00028	-0.00015	-0.00035	-8e-05	-9e-05	-2e-05	5
22131	5e-05	0.00022	0.00028	-0.00015	-0.00035	-8e-05	-9e-05	-2e-05	5
22132	5e-05	0.00022	0.00028	-0.00015	-0.00035	-8e-05	-9e-05	-2e-05	5
22133	6e-05	0.00029	0.00045	0.0007	0.00032	0.00013	2e-05	4e-05	5
22134	-0.00011	2e-05	0.00012	-0.00024	-0.00043	-9e-05	-6e-05	-6e-05	5
22135	-0.00011	2e-05	0.00012	-0.00024	-0.00043	-9e-05	-6e-05	-6e-05	5
22136	-0.00011	2e-05	0.00012	-0.00024	-0.00043	-9e-05	-6e-05	-6e-05	5
22139	-0.00011	2e-05	0.00012	-0.00024	-0.00043	-9e-05	-6e-05	-6e-05	5
22140	-0.00011	2e-05	0.00012	-0.00024	-0.00043	-9e-05	-6e-05	-6e-05	5
22141	0	-2e-05	-7e-05	-0.00018	-0.00011	-1e-05	0	-4e-05	5
22142	0.0001	0.0003	0.00042	0	-0.00024	-1e-05	-2e-05	5e-05	5
22143	0.0001	0.0003	0.00042	0	-0.00024	-1e-05	-2e-05	5e-05	5
22144	0.0001	0.0003	0.00042	0	-0.00024	-1e-05	-2e-05	5e-05	5
22145	0.0001	0.0003	0.00042	0	-0.00024	-1e-05	-2e-05	5e-05	5
22146	0.0001	0.0003	0.00042	0	-0.00024	-1e-05	-2e-05	5e-05	5
22147	0.0001	0.0003	0.00042	0	-0.00024	-1e-05	-2e-05	5e-05	5
22148	0.0001	0.0003	0.00042	0	-0.00024	-1e-05	-2e-05	5e-05	5
22149	0.0001	0.0003	0.00042	0	-0.00024	-1e-05	-2e-05	5e-05	5
22150	0.0001	0.0003	0.00042	0	-0.00024	-1e-05	-2e-05	5e-05	5
22151	0.0001	0.0003	0.00042	0	-0.00024	-1e-05	-2e-05	5e-05	5
22152	0.0001	0.0003	0.00042	0	-0.00024	-1e-05	-2e-05	5e-05	5
22153	0.0001	0.0003	0.00042	0	-0.00024	-1e-05	-2e-05	5e-05	5
22154	0.0001	0.0003	0.00042	0	-0.00024	-1e-05	-2e-05	5e-05	5
22155	0.0001	0.0003	0.00042	0	-0.00024	-1e-05	-2e-05	5e-05	5
22156	0.0001	0.0003	0.00042	0	-0.00024	-1e-05	-2e-05	5e-05	5
22157	0.0001	0.0003	0.00042	0	-0.00024	-1e-05	-2e-05	5e-05	5
22158	0.0001	0.0003	0.00042	0	-0.00024	-1e-05	-2e-05	5e-05	5
22159	0.0001	0.0003	0.00042	0	-0.00024	-1e-05	-2e-05	5e-05	5
22160	0.0001	0.0003	0.00042	0	-0.00024	-1e-05	-2e-05	5e-05	5
22161	0.0001	0.0003	0.00042	0	-0.00024	-1e-05	-2e-05	5e-05	5
22162	0.0001	0.0003	0.00042	0	-0.00024	-1e-05	-2e-05	5e-05	5
22163	4e-05	0	5e-05	0.00031	0.00017	8e-05	5e-05	4e-05	5
22164	-8e-05	-0.00023	-0.00044	-0.00032	5e-05	-0.00011	-8e-05	-8e-05	5
22165	-8e-05	-0.00023	-0.00044	-0.00032	5e-05	-0.00011	-8e-05	-8e-05	5
22166	-8e-05	-0.00023	-0.00044	-0.00032	5e-05	-0.00011	-8e-05	-8e-05	5
22167	-8e-05	-0.00023	-0.00044	-0.00032	5e-05	-0.00011	-8e-05	-8e-05	5
22168	-8e-05	-0.00023	-0.00044	-0.00032	5e-05	-0.00011	-8e-05	-8e-05	5
22169	-8e-05	-0.00023	-0.00044	-0.00032	5e-05	-0.00011	-8e-05	-8e-05	5
22170	-8e-05	-0.00023	-0.00044	-0.00032	5e-05	-0.00011	-8e-05	-8e-05	5
22171	-8e-05	-0.00023	-0.00044	-0.00032	5e-05	-0.00011	-8e-05	-8e-05	5
22172	-8e-05	-0.00023	-0.00044	-0.00032	5e-05	-0.00011	-8e-05	-8e-05	5
22173	-8e-05	-0.00023	-0.00044	-0.00032	5e-05	-0.00011	-8e-05	-8e-05	5
22174	-8e-05	-0.00023	-0.00044	-0.00032	5e-05	-0.00011	-8e-05	-8e-05	5
22175	-8e-05	-0.00023	-0.00044	-0.00032	5e-05	-0.00011	-8e-05	-8e-05	5
22176	-8e-05	-0.00023	-0.00044	-0.00032	5e-05	-0.00011	-8e-05	-8e-05	5
22177	-8e-05	-0.00023	-0.00044	-0.00032	5e-05	-0.00011	-8e-05	-8e-05	5
22178	-8e-05	-0.00023	-0.00044	-0.00032	5e-05	-0.00011	-8e-05	-8e-05	5
22179	-8e-05	-0.00023	-0.00044	-0.00032	5e-05	-0.00011	-8e-05	-8e-05	5
22180	-8e-05	-0.00023	-0.00044	-0.00032	5e-05	-0.00011	-8e-05	-8e-05	5
22181	-8e-05	-0.00023	-0.00044	-0.00032	5e-05	-0.00011	-8e-05	-8e-05	5
22182	-8e-05	-0.00023	-0.00044	-0.00032	5e-05	-0.00011	-8e-05	-8e-05	5
22183	-8e-05	-0.00023	-0.00044	-0.00032	5e-05	-0.00011	-8e-05	-8e-05	5
22184	-8e-05	-0.00023	-0.00044	-0.00032	5e-05	-0.00011	-8e-05	-8e-05	5
22185	-8e-05	-0.00023	-0.00044	-0.00032	5e-05	-0.00011	-8e-05	-8e-05	5
22186	-4e-05	-0.0001	-0.0002	-6e-05	-2e-05	0.00011	6e-05	-1e-05	5
22189	-0.00014	-0.00033	-0.00049	0.00027	0.00024	-0.00023	-0.00021	-0.00018	5
22190	-0.00014	-0.00033	-0.00049	0.00027	0.00024	-0.00023	-0.00021	-0.00018	5
22191	-0.00014	-0.00033	-0.00049	0.00027	0.00024	-0.00023	-0.00021	-0.00018	5
22192	-0.00014	-0.00033	-0.00049	0.00027	0.00024	-0.00023	-0.00021	-0.00018	5
22193	-0.00014	-0.00033	-0.00049	0.00027	0.00024	-0.00023	-0.00021	-0.00018	5
22194	-0.00014	-0.00033	-0.00049	0.00027	0.00024	-0.00023	-0.00021	-0.00018	5
22195	-0.00014	-0.00033	-0.00049	0.00027	0.00024	-0.00023	-0.00021	-0.00018	5
22196	-0.00014	-0.00033	-0.00049	0.00027	0.00024	-0.00023	-0.00021	-0.00018	5
22197	-0.00014	-0.00033	-0.00049	0.00027	0.00024	-0.00023	-0.00021	-0.00018	5
22198	-0.00014	-0.00033	-0.00049	0.00027	0.00024	-0.00023	-0.00021	-0.00018	5
22199	-0.00014	-0.00033	-0.00049	0.00027	0.00024	-0.00023	-0.00021	-0.00018	5
22200	0	1e-05	0	-0.00046	-0.00046	-3e-05	5e-05	3e-05	5
22201	0	1e-05	0	-0.00046	-0.00046	-3e-05	5e-05	3e-05	5
22202	0	1e-05	0	-0.00046	-0.00046	-3e-05	5e-05	3e-05	5
22203	0	1e-05	0	-0.00046	-0.00046	-3e-05	5e-05	3e-05	5
22204	0	1e-05	0	-0.00046	-0.00046	-3e-05	5e-05	3e-05	5
22205	0	1e-05	0	-0.00046	-0.00046	-3e-05	5e-05	3e-05	5
22206	0	1e-05	0	-0.00046	-0.00046	-3e-05	5e-05	3e-05	5
22207	0	1e-05	0	-0.00046	-0.00046	-3e-05	5e-05	3e-05	5
22208	-0.00012	-0.00028	-0.00061	-0.00081	-0.00058	-9e-05	2e-05	-4e-05	5
22209	-0.00012	-0.00028	-0.00061	-0.00081	-0.00058	-9e-05	2e-05	-4e-05	5
22210	-0.00012	-0.00028	-0.00061	-0.00081	-0.00058	-9e-05	2e-05	-4e-05	5
22211	-0.00012	-0.00028	-0.00061	-0.00081	-0.00058	-9e-05	2e-05	-4e-05	5
22212	-0.00012	-0.00028	-0.00061	-0.00081	-0.00058	-9e-05	2e-05	-4e-05	5
22213	-0.00012	-0.00028	-0.00061	-0.00081	-0.00058	-9e-05	2e-05	-4e-05	5
22214	-0.00012	-0.00028	-0.00061	-0.00081	-0.00058	-9e-05	2e-05	-4e-05	5
22215	-0.00012	-0.00028	-0.00061	-0.00081	-0.00058	-9e-05	2e-05	-4e-05	5
22216	-0.00012	-0.00028	-0.00061	-0.00081	-0.00058	-9e-05	2e-05	-4e-05	5
22217	-0.00012	-0.00028	-0.00061	-0.00081	-0.00058	-9e-05	2e-05	-4e-05	5
22218	-0.00012	-0.00028	-0.00061	-0.00081	-0.00058	-9e-05	2e-05	-4e-05	5
22219	-0.00012	-0.00028	-0.00061	-0.00081	-0.00058	-9e-05	2e-05	-4e-05	5
22220	-0.00012	-0.00028	-0.00061	-0.00081	-0.00058	-9e-05	2e-05	-4e-05	5
22221	-0.00012	-0.00028	-0.00061	-0.00081	-0.00058	-9e-05	2e-05	-4e-05	5
22222	-0.00012	-0.00028	-0.00061	-0.00081	-0.00058	-9e-05	2e-05	-4e-05	5
22223	-4e-05	-8e-05	-0.00014	-0.0005	-0.00057	-0.00035	-0.0001	-5e-05	5
22224	-4e-05	-8e-05	-0.00014	-0.0005	-0.00057	-0.00035	-0.0001	-5e-05	5
22225	-3e-05	-0.00021	-0.00017	0.00026	0.00043	0.00033	0.00015	3e-05	5
22226	-3e-05	-0.00021	-0.00017	0.00026	0.00043	0.00033	0.00015	3e-05	5
22227	-3e-05	-0.00021	-0.00017	0.00026	0.00043	0.00033	0.00015	3e-05	5
22228	-3e-05	-0.00021	-0.00017	0.00026	0.00043	0.00033	0.00015	3e-05	5
22229	-3e-05	-0.00021	-0.00017	0.00026	0.00043	0.00033	0.00015	3e-05	5
22230	-3e-05	-0.00021	-0.00017	0.00026	0.00043	0.00033	0.00015	3e-05	5
22231	-3e-05	-0.00021	-0.00017	0.00026	0.00043	0.00033	0.00015	3e-05	5
22232	-3e-05	-0.00021	-0.00017	0.00026	0.00043	0.00033	0.00015	3e-05	5
22233	-3e-05	-0.00021	-0.00017	0.00026	0.00043	0.00033	0.00015	3e-05	5
22234	-3e-05	-0.00021	-0.00017	0.00026	0.00043	0.00033	0.00015	3e-05	5
22235	-3e-05	-0.00021	-0.00017	0.00026	0.00043	0.00033	0.00015	3e-05	5
22236	-3e-05	-0.00021	-0.00017	0.00026	0.00043	0.00033	0.00015	3e-05	5
22239	-3e-05	-0.00021	-0.00017	0.00026	0.00043	0.00033	0.00015	3e-05	5
22240	-3e-05	-0.00021	-0.00017	0.00026	0.00043	0.00033	0.00015	3e-05	5
22241	-3e-05	-0.00021	-0.00017	0.00026	0.00043	0.00033	0.00015	3e-05	5
22242	-3e-05	-0.00021	-0.00017	0.00026	0.00043	0.00033	0.00015	3e-05	5
22243	-3e-05	-0.00021	-0.00017	0.00026	0.00043	0.00033	0.00015	3e-05	5
22244	-3e-05	-0.00021	-0.00017	0.00026	0.00043	0.00033	0.00015	3e-05	5
22245	-3e-05	-0.00021	-0.00017	0.00026	0.00043	0.00033	0.00015	3e-05	5
22246	-7e-05	-7e-05	-0.0001	6e-05	-1e-05	-6e-05	-7e-05	-4e-05	5
22247	3e-05	0.00032	0.00044	0.00061	0.0001	-0.00012	-0.0001	-1e-05	5
22248	3e-05	0.00032	0.00044	0.00061	0.0001	-0.00012	-0.0001	-1e-05	5
22249	3e-05	0.00032	0.00044	0.00061	0.0001	-0.00012	-0.0001	-1e-05	5
22250	3e-05	0.00032	0.00044	0.00061	0.0001	-0.00012	-0.0001	-1e-05	5
22251	3e-05	0.00032	0.00044	0.00061	0.0001	-0.00012	-0.0001	-1e-05	5
22252	3e-05	0.00032	0.00044	0.00061	0.0001	-0.00012	-0.0001	-1e-05	5
22253	3e-05	0.00032	0.00044	0.00061	0.0001	-0.00012	-0.0001	-1e-05	5
22254	3e-05	0.00032	0.00044	0.00061	0.0001	-0.00012	-0.0001	-1e-05	5
22255	3e-05	0.00032	0.00044	0.00061	0.0001	-0.00012	-0.0001	-1e-05	5
22256	3e-05	0.00032	0.00044	0.00061	0.0001	-0.00012	-0.0001	-1e-05	5
22257	3e-05	0.00032	0.00044	0.00061	0.0001	-0.00012	-0.0001	-1e-05	5
22258	3e-05	0.00032	0.00044	0.00061	0.0001	-0.00012	-0.0001	-1e-05	5
22259	3e-05	0.00032	0.00044	0.00061	0.0001	-0.00012	-0.0001	-1e-05	5
22260	-2e-05	-8e-05	-0.00019	-0.00071	-0.00084	-0.00035	-0.00011	-3e-05	5
22261	-2e-05	-8e-05	-0.00019	-0.00071	-0.00084	-0.00035	-0.00011	-3e-05	5
22262	-2e-05	-8e-05	-0.00019	-0.00071	-0.00084	-0.00035	-0.00011	-3e-05	5
22263	-2e-05	-8e-05	-0.00019	-0.00071	-0.00084	-0.00035	-0.00011	-3e-05	5
22264	-2e-05	-8e-05	-0.00019	-0.00071	-0.00084	-0.00035	-0.00011	-3e-05	5
22265	-2e-05	-8e-05	-0.00019	-0.00071	-0.00084	-0.00035	-0.00011	-3e-05	5
22266	-2e-05	-8e-05	-0.00019	-0.00071	-0.00084	-0.00035	-0.00011	-3e-05	5
22267	-2e-05	-8e-05	-0.00019	-0.00071	-0.00084	-0.00035	-0.00011	-3e-05	5
22268	-2e-05	-8e-05	-0.00019	-0.00071	-0.00084	-0.00035	-0.00011	-3e-05	5
22269	-2e-05	-8e-05	-0.00019	-0.00071	-0.00084	-0.00035	-0.00011	-3e-05	5
22270	-2e-05	-8e-05	-0.00019	-0.00071	-0.00084	-0.00035	-0.00011	-3e-05	5
22271	-2e-05	-8e-05	-0.00019	-0.00071	-0.00084	-0.00035	-0.00011	-3e-05	5
22272	-2e-05	-8e-05	-0.00019	-0.00071	-0.00084	-0.00035	-0.00011	-3e-05	5
22273	-2e-05	-8e-05	-0.00019	-0.00071	-0.00084	-0.00035	-0.00011	-3e-05	5
22274	-2e-05	-8e-05	-0.00019	-0.00071	-0.00084	-0.00035	-0.00011	-3e-05	5
22275	-2e-05	-8e-05	-0.00019	-0.00071	-0.00084	-0.00035	-0.00011	-3e-05	5
22276	5e-05	0.0001	-7e-05	-7e-05	3e-05	-2e-05	0	0	5
22277	5e-05	0.0001	-7e-05	-7e-05	3e-05	-2e-05	0	0	5
22278	5e-05	0.0001	-7e-05	-7e-05	3e-05	-2e-05	0	0	5
22279	5e-05	0.0001	-7e-05	-7e-05	3e-05	-2e-05	0	0	5
22280	5e-05	0.0001	-7e-05	-7e-05	3e-05	-2e-05	0	0	5
22281	5e-05	0.0001	-7e-05	-7e-05	3e-05	-2e-05	0	0	5
22282	5e-05	0.0001	-7e-05	-7e-05	3e-05	-2e-05	0	0	5
22283	5e-05	0.0001	-7e-05	-7e-05	3e-05	-2e-05	0	0	5
22284	4e-05	6e-05	1e-05	-0.00032	-0.00013	0.00015	9e-05	7e-05	5
22285	4e-05	6e-05	1e-05	-0.00032	-0.00013	0.00015	9e-05	7e-05	5
22286	-1e-05	0.0001	8e-05	3e-05	-1e-05	-0.00015	-9e-05	-4e-05	5
22288	-1e-05	0.0001	8e-05	3e-05	-1e-05	-0.00015	-9e-05	-4e-05	5
22290	-1e-05	0.0001	8e-05	3e-05	-1e-05	-0.00015	-9e-05	-4e-05	5
22291	-1e-05	0.0001	8e-05	3e-05	-1e-05	-0.00015	-9e-05	-4e-05	5
22292	-1e-05	0.0001	8e-05	3e-05	-1e-05	-0.00015	-9e-05	-4e-05	5
22293	-1e-05	0.0001	8e-05	3e-05	-1e-05	-0.00015	-9e-05	-4e-05	5
22294	-1e-05	0.0001	8e-05	3e-05	-1e-05	-0.00015	-9e-05	-4e-05	5
22295	-1e-05	0.0001	8e-05	3e-05	-1e-05	-0.00015	-9e-05	-4e-05	5
22296	-1e-05	0.0001	8e-05	3e-05	-1e-05	-0.00015	-9e-05	-4e-05	5
22297	-1e-05	0.0001	8e-05	3e-05	-1e-05	-0.00015	-9e-05	-4e-05	5
22298	-1e-05	0.0001	8e-05	3e-05	-1e-05	-0.00015	-9e-05	-4e-05	5
22299	-1e-05	0.0001	8e-05	3e-05	-1e-05	-0.00015	-9e-05	-4e-05	5
22300	-1e-05	0.0001	8e-05	3e-05	-1e-05	-0.00015	-9e-05	-4e-05	5
22301	-1e-05	0.0001	8e-05	3e-05	-1e-05	-0.00015	-9e-05	-4e-05	5
22302	-1e-05	0.0001	8e-05	3e-05	-1e-05	-0.00015	-9e-05	-4e-05	5
22303	-1e-05	0.0001	8e-05	3e-05	-1e-05	-0.00015	-9e-05	-4e-05	5
22304	-1e-05	0.0001	8e-05	3e-05	-1e-05	-0.00015	-9e-05	-4e-05	5
22305	-1e-05	0.0001	8e-05	3e-05	-1e-05	-0.00015	-9e-05	-4e-05	5
22306	-1e-05	0.0001	8e-05	3e-05	-1e-05	-0.00015	-9e-05	-4e-05	5
22307	-1e-05	0.0001	8e-05	3e-05	-1e-05	-0.00015	-9e-05	-4e-05	5
22308	-1e-05	0.0001	8e-05	3e-05	-1e-05	-0.00015	-9e-05	-4e-05	5
22309	-1e-05	0.0001	8e-05	3e-05	-1e-05	-0.00015	-9e-05	-4e-05	5
22310	-1e-05	0.0001	8e-05	3e-05	-1e-05	-0.00015	-9e-05	-4e-05	5
22311	-1e-05	0.0001	8e-05	3e-05	-1e-05	-0.00015	-9e-05	-4e-05	5
22312	-1e-05	0.0001	8e-05	3e-05	-1e-05	-0.00015	-9e-05	-4e-05	5
22313	-0.0001	-0.0003	-0.00033	-0.00043	-0.00067	-0.00046	-0.00013	-5e-05	5
22314	-0.0001	-0.0003	-0.00033	-0.00043	-0.00067	-0.00046	-0.00013	-5e-05	5
22315	-4e-05	-0.00013	-3e-05	0.00034	0.00052	0.00027	9e-05	1e-05	5
22316	-4e-05	-0.00013	-3e-05	0.00034	0.00052	0.00027	9e-05	1e-05	5
22317	-4e-05	-0.00013	-3e-05	0.00034	0.00052	0.00027	9e-05	1e-05	5
22318	-4e-05	-0.00013	-3e-05	0.00034	0.00052	0.00027	9e-05	1e-05	5
22319	6e-05	0.00017	7e-05	8e-05	0.00032	9e-05	0.0001	7e-05	5
22320	-4e-05	1e-05	0.00024	0.00028	-2e-05	-1e-05	-7e-05	-1e-05	5
22321	-4e-05	1e-05	0.00024	0.00028	-2e-05	-1e-05	-7e-05	-1e-05	5
22322	-4e-05	1e-05	0.00024	0.00028	-2e-05	-1e-05	-7e-05	-1e-05	5
22323	-4e-05	1e-05	0.00024	0.00028	-2e-05	-1e-05	-7e-05	-1e-05	5
22324	-4e-05	1e-05	0.00024	0.00028	-2e-05	-1e-05	-7e-05	-1e-05	5
22325	-4e-05	1e-05	0.00024	0.00028	-2e-05	-1e-05	-7e-05	-1e-05	5
22326	-4e-05	1e-05	0.00024	0.00028	-2e-05	-1e-05	-7e-05	-1e-05	5
22327	-4e-05	1e-05	0.00024	0.00028	-2e-05	-1e-05	-7e-05	-1e-05	5
22328	-4e-05	1e-05	0.00024	0.00028	-2e-05	-1e-05	-7e-05	-1e-05	5
22329	-4e-05	1e-05	0.00024	0.00028	-2e-05	-1e-05	-7e-05	-1e-05	5
22330	-4e-05	1e-05	0.00024	0.00028	-2e-05	-1e-05	-7e-05	-1e-05	5
22331	-4e-05	1e-05	0.00024	0.00028	-2e-05	-1e-05	-7e-05	-1e-05	5
22332	-4e-05	1e-05	0.00024	0.00028	-2e-05	-1e-05	-7e-05	-1e-05	5
22333	-4e-05	1e-05	0.00024	0.00028	-2e-05	-1e-05	-7e-05	-1e-05	5
22334	-6e-05	-0.00018	-0.00025	-0.00058	-0.00046	-0.00027	-0.00014	-7e-05	5
22335	-6e-05	-0.00018	-0.00025	-0.00058	-0.00046	-0.00027	-0.00014	-7e-05	5
22336	-6e-05	-0.00018	-0.00025	-0.00058	-0.00046	-0.00027	-0.00014	-7e-05	5
22339	-6e-05	-0.00018	-0.00025	-0.00058	-0.00046	-0.00027	-0.00014	-7e-05	5
22340	-6e-05	-0.00018	-0.00025	-0.00058	-0.00046	-0.00027	-0.00014	-7e-05	5
22341	-6e-05	-0.00018	-0.00025	-0.00058	-0.00046	-0.00027	-0.00014	-7e-05	5
22342	-6e-05	-0.00018	-0.00025	-0.00058	-0.00046	-0.00027	-0.00014	-7e-05	5
22343	9e-05	0.00011	0.00022	8e-05	0.0003	0.00024	9e-05	4e-05	5
22344	9e-05	0.00011	0.00022	8e-05	0.0003	0.00024	9e-05	4e-05	5
22345	9e-05	0.00011	0.00022	8e-05	0.0003	0.00024	9e-05	4e-05	5
22346	9e-05	0.00011	0.00022	8e-05	0.0003	0.00024	9e-05	4e-05	5
22347	9e-05	0.00011	0.00022	8e-05	0.0003	0.00024	9e-05	4e-05	5
22348	9e-05	0.00011	0.00022	8e-05	0.0003	0.00024	9e-05	4e-05	5
22349	9e-05	0.00011	0.00022	8e-05	0.0003	0.00024	9e-05	4e-05	5
22350	9e-05	0.00011	0.00022	8e-05	0.0003	0.00024	9e-05	4e-05	5
22351	7e-05	7e-05	9e-05	-0.00033	-0.00011	8e-05	3e-05	2e-05	5
22352	7e-05	7e-05	9e-05	-0.00033	-0.00011	8e-05	3e-05	2e-05	5
22353	7e-05	7e-05	9e-05	-0.00033	-0.00011	8e-05	3e-05	2e-05	5
22354	7e-05	7e-05	9e-05	-0.00033	-0.00011	8e-05	3e-05	2e-05	5
22355	7e-05	7e-05	9e-05	-0.00033	-0.00011	8e-05	3e-05	2e-05	5
22356	7e-05	7e-05	9e-05	-0.00033	-0.00011	8e-05	3e-05	2e-05	5
22357	7e-05	7e-05	9e-05	-0.00033	-0.00011	8e-05	3e-05	2e-05	5
22358	7e-05	7e-05	9e-05	-0.00033	-0.00011	8e-05	3e-05	2e-05	5
22359	7e-05	7e-05	9e-05	-0.00033	-0.00011	8e-05	3e-05	2e-05	5
22360	7e-05	7e-05	9e-05	-0.00033	-0.00011	8e-05	3e-05	2e-05	5
22361	7e-05	7e-05	9e-05	-0.00033	-0.00011	8e-05	3e-05	2e-05	5
22362	7e-05	7e-05	9e-05	-0.00033	-0.00011	8e-05	3e-05	2e-05	5
22363	7e-05	7e-05	9e-05	-0.00033	-0.00011	8e-05	3e-05	2e-05	5
22364	7e-05	7e-05	9e-05	-0.00033	-0.00011	8e-05	3e-05	2e-05	5
22365	7e-05	7e-05	9e-05	-0.00033	-0.00011	8e-05	3e-05	2e-05	5
22366	-8e-05	-9e-05	0.00011	0.00029	0.00021	0	-7e-05	-8e-05	5
22367	-3e-05	-7e-05	-9e-05	-0.00019	-0.00041	-0.00024	-7e-05	-3e-05	5
22368	-3e-05	-7e-05	-9e-05	-0.00019	-0.00041	-0.00024	-7e-05	-3e-05	5
22369	-3e-05	-7e-05	-9e-05	-0.00019	-0.00041	-0.00024	-7e-05	-3e-05	5
22370	-3e-05	-7e-05	-9e-05	-0.00019	-0.00041	-0.00024	-7e-05	-3e-05	5
22371	-3e-05	-7e-05	-9e-05	-0.00019	-0.00041	-0.00024	-7e-05	-3e-05	5
22372	-3e-05	-7e-05	-9e-05	-0.00019	-0.00041	-0.00024	-7e-05	-3e-05	5
22373	-3e-05	-7e-05	-9e-05	-0.00019	-0.00041	-0.00024	-7e-05	-3e-05	5
22374	-3e-05	-7e-05	-9e-05	-0.00019	-0.00041	-0.00024	-7e-05	-3e-05	5
22375	-3e-05	-7e-05	-9e-05	-0.00019	-0.00041	-0.00024	-7e-05	-3e-05	5
22376	-3e-05	-7e-05	-9e-05	-0.00019	-0.00041	-0.00024	-7e-05	-3e-05	5
22377	-3e-05	-7e-05	-9e-05	-0.00019	-0.00041	-0.00024	-7e-05	-3e-05	5
22378	-3e-05	-7e-05	-9e-05	-0.00019	-0.00041	-0.00024	-7e-05	-3e-05	5
22379	-3e-05	-7e-05	-9e-05	-0.00019	-0.00041	-0.00024	-7e-05	-3e-05	5
22380	2e-05	0.00015	0.00025	0.00019	-5e-05	-0.00013	-7e-05	-4e-05	5
22381	2e-05	0.00015	0.00025	0.00019	-5e-05	-0.00013	-7e-05	-4e-05	5
22382	2e-05	0.00015	0.00025	0.00019	-5e-05	-0.00013	-7e-05	-4e-05	5
22383	2e-05	0.00015	0.00025	0.00019	-5e-05	-0.00013	-7e-05	-4e-05	5
22384	2e-05	0.00015	0.00025	0.00019	-5e-05	-0.00013	-7e-05	-4e-05	5
22385	2e-05	0.00015	0.00025	0.00019	-5e-05	-0.00013	-7e-05	-4e-05	5
22386	2e-05	0.00015	0.00025	0.00019	-5e-05	-0.00013	-7e-05	-4e-05	5
22389	1e-05	0.00014	0.00011	0.00016	-4e-05	3e-05	0.0001	6e-05	5
22390	1e-05	0.00014	0.00011	0.00016	-4e-05	3e-05	0.0001	6e-05	5
22391	1e-05	0.00014	0.00011	0.00016	-4e-05	3e-05	0.0001	6e-05	5
22392	1e-05	0.00014	0.00011	0.00016	-4e-05	3e-05	0.0001	6e-05	5
22393	1e-05	0.00014	0.00011	0.00016	-4e-05	3e-05	0.0001	6e-05	5
22394	1e-05	0.00014	0.00011	0.00016	-4e-05	3e-05	0.0001	6e-05	5
22395	1e-05	0.00014	0.00011	0.00016	-4e-05	3e-05	0.0001	6e-05	5
22396	1e-05	0.00014	0.00011	0.00016	-4e-05	3e-05	0.0001	6e-05	5
22397	1e-05	0.00014	0.00011	0.00016	-4e-05	3e-05	0.0001	6e-05	5
22398	1e-05	0.00014	0.00011	0.00016	-4e-05	3e-05	0.0001	6e-05	5
22399	1e-05	0.00014	0.00011	0.00016	-4e-05	3e-05	0.0001	6e-05	5
22400	1e-05	0.00014	0.00011	0.00016	-4e-05	3e-05	0.0001	6e-05	5
22401	1e-05	0.00014	0.00011	0.00016	-4e-05	3e-05	0.0001	6e-05	5
22402	1e-05	0.00014	0.00011	0.00016	-4e-05	3e-05	0.0001	6e-05	5
22403	1e-05	0.00014	0.00011	0.00016	-4e-05	3e-05	0.0001	6e-05	5
22404	0	3e-05	-3e-05	-3e-05	8e-05	-5e-05	-1e-05	-1e-05	5
22405	-5e-05	-6e-05	-1e-05	-0.00033	-0.00031	-0.00013	-0.00011	-4e-05	5
22406	-5e-05	-6e-05	-1e-05	-0.00033	-0.00031	-0.00013	-0.00011	-4e-05	5
22407	-5e-05	-6e-05	-1e-05	-0.00033	-0.00031	-0.00013	-0.00011	-4e-05	5
22408	-5e-05	-6e-05	-1e-05	-0.00033	-0.00031	-0.00013	-0.00011	-4e-05	5
22409	-5e-05	-6e-05	-1e-05	-0.00033	-0.00031	-0.00013	-0.00011	-4e-05	5
22410	-5e-05	-6e-05	-1e-05	-0.00033	-0.00031	-0.00013	-0.00011	-4e-05	5
22411	-5e-05	-6e-05	-1e-05	-0.00033	-0.00031	-0.00013	-0.00011	-4e-05	5
22412	-5e-05	-6e-05	-1e-05	-0.00033	-0.00031	-0.00013	-0.00011	-4e-05	5
22413	-5e-05	-6e-05	-1e-05	-0.00033	-0.00031	-0.00013	-0.00011	-4e-05	5
22415	-5e-05	-6e-05	-1e-05	-0.00033	-0.00031	-0.00013	-0.00011	-4e-05	5
22416	-5e-05	-6e-05	-1e-05	-0.00033	-0.00031	-0.00013	-0.00011	-4e-05	5
22417	-5e-05	-6e-05	-1e-05	-0.00033	-0.00031	-0.00013	-0.00011	-4e-05	5
22418	-5e-05	-6e-05	-1e-05	-0.00033	-0.00031	-0.00013	-0.00011	-4e-05	5
22419	-5e-05	-6e-05	-1e-05	-0.00033	-0.00031	-0.00013	-0.00011	-4e-05	5
22420	-5e-05	-6e-05	-1e-05	-0.00033	-0.00031	-0.00013	-0.00011	-4e-05	5
22421	-5e-05	-6e-05	-1e-05	-0.00033	-0.00031	-0.00013	-0.00011	-4e-05	5
22422	-5e-05	-6e-05	-1e-05	-0.00033	-0.00031	-0.00013	-0.00011	-4e-05	5
22423	-5e-05	-6e-05	-1e-05	-0.00033	-0.00031	-0.00013	-0.00011	-4e-05	5
22424	-5e-05	-6e-05	-1e-05	-0.00033	-0.00031	-0.00013	-0.00011	-4e-05	5
22425	-5e-05	-6e-05	-1e-05	-0.00033	-0.00031	-0.00013	-0.00011	-4e-05	5
22426	-3e-05	-1e-05	-0.0001	-0.00011	7e-05	0.00016	-5e-05	-4e-05	5
22427	7e-05	-0.00018	-0.00052	-0.00059	-0.00036	-0.00042	-0.00015	6e-05	5
22428	9e-05	-2e-05	0.00012	0.00035	0.00037	0.00034	0.00023	0.00014	5
22429	9e-05	-2e-05	0.00012	0.00035	0.00037	0.00034	0.00023	0.00014	5
22430	9e-05	-2e-05	0.00012	0.00035	0.00037	0.00034	0.00023	0.00014	5
22431	9e-05	-2e-05	0.00012	0.00035	0.00037	0.00034	0.00023	0.00014	5
22432	9e-05	-2e-05	0.00012	0.00035	0.00037	0.00034	0.00023	0.00014	5
22433	9e-05	-2e-05	0.00012	0.00035	0.00037	0.00034	0.00023	0.00014	5
22434	9e-05	-2e-05	0.00012	0.00035	0.00037	0.00034	0.00023	0.00014	5
22435	9e-05	-2e-05	0.00012	0.00035	0.00037	0.00034	0.00023	0.00014	5
22436	9e-05	-2e-05	0.00012	0.00035	0.00037	0.00034	0.00023	0.00014	5
22438	9e-05	-2e-05	0.00012	0.00035	0.00037	0.00034	0.00023	0.00014	5
22439	-0.00028	-0.00015	-0.0002	2e-05	0.00036	0.00024	9e-05	-0.00019	5
22440	0.00061	0.00035	0.00029	0.00031	-2e-05	-0.00031	-3e-05	0.00045	5
22441	0.00061	0.00035	0.00029	0.00031	-2e-05	-0.00031	-3e-05	0.00045	5
22442	0.00061	0.00035	0.00029	0.00031	-2e-05	-0.00031	-3e-05	0.00045	5
22443	0.00061	0.00035	0.00029	0.00031	-2e-05	-0.00031	-3e-05	0.00045	5
22444	0.00061	0.00035	0.00029	0.00031	-2e-05	-0.00031	-3e-05	0.00045	5
22445	0.00061	0.00035	0.00029	0.00031	-2e-05	-0.00031	-3e-05	0.00045	5
22446	0.00061	0.00035	0.00029	0.00031	-2e-05	-0.00031	-3e-05	0.00045	5
22447	0.00061	0.00035	0.00029	0.00031	-2e-05	-0.00031	-3e-05	0.00045	5
22448	0.00061	0.00035	0.00029	0.00031	-2e-05	-0.00031	-3e-05	0.00045	5
22449	0.00061	0.00035	0.00029	0.00031	-2e-05	-0.00031	-3e-05	0.00045	5
22450	0.00061	0.00035	0.00029	0.00031	-2e-05	-0.00031	-3e-05	0.00045	5
22451	0.00061	0.00035	0.00029	0.00031	-2e-05	-0.00031	-3e-05	0.00045	5
22452	0.00061	0.00035	0.00029	0.00031	-2e-05	-0.00031	-3e-05	0.00045	5
22453	0.00061	0.00035	0.00029	0.00031	-2e-05	-0.00031	-3e-05	0.00045	5
22454	0.00061	0.00035	0.00029	0.00031	-2e-05	-0.00031	-3e-05	0.00045	5
22455	0.00061	0.00035	0.00029	0.00031	-2e-05	-0.00031	-3e-05	0.00045	5
22456	5e-05	8e-05	0.00011	0.00019	0.00012	-0.00014	-1e-05	5e-05	5
22457	5e-05	8e-05	0.00011	0.00019	0.00012	-0.00014	-1e-05	5e-05	5
22458	5e-05	8e-05	0.00011	0.00019	0.00012	-0.00014	-1e-05	5e-05	5
22459	5e-05	8e-05	0.00011	0.00019	0.00012	-0.00014	-1e-05	5e-05	5
22460	5e-05	8e-05	0.00011	0.00019	0.00012	-0.00014	-1e-05	5e-05	5
22461	5e-05	8e-05	0.00011	0.00019	0.00012	-0.00014	-1e-05	5e-05	5
22462	5e-05	8e-05	0.00011	0.00019	0.00012	-0.00014	-1e-05	5e-05	5
22463	-0.00031	1e-05	-8e-05	-0.00049	-0.00032	0.00016	5e-05	-0.0003	5
22464	-0.00031	1e-05	-8e-05	-0.00049	-0.00032	0.00016	5e-05	-0.0003	5
22465	0.00018	2e-05	1e-05	0.00015	0.00029	0.00026	0.00012	0.00016	5
22466	0.00018	2e-05	1e-05	0.00015	0.00029	0.00026	0.00012	0.00016	5
22467	0.00018	2e-05	1e-05	0.00015	0.00029	0.00026	0.00012	0.00016	5
22468	0.00018	2e-05	1e-05	0.00015	0.00029	0.00026	0.00012	0.00016	5
22469	0.00018	2e-05	1e-05	0.00015	0.00029	0.00026	0.00012	0.00016	5
22470	0.00018	2e-05	1e-05	0.00015	0.00029	0.00026	0.00012	0.00016	5
22471	0.00018	2e-05	1e-05	0.00015	0.00029	0.00026	0.00012	0.00016	5
22472	0.00018	2e-05	1e-05	0.00015	0.00029	0.00026	0.00012	0.00016	5
22473	0.00018	2e-05	1e-05	0.00015	0.00029	0.00026	0.00012	0.00016	5
22474	0.00018	2e-05	1e-05	0.00015	0.00029	0.00026	0.00012	0.00016	5
22475	0.00018	2e-05	1e-05	0.00015	0.00029	0.00026	0.00012	0.00016	5
22476	0.00018	2e-05	1e-05	0.00015	0.00029	0.00026	0.00012	0.00016	5
22477	0.00018	2e-05	1e-05	0.00015	0.00029	0.00026	0.00012	0.00016	5
22478	0.00018	2e-05	1e-05	0.00015	0.00029	0.00026	0.00012	0.00016	5
22479	0.00018	2e-05	1e-05	0.00015	0.00029	0.00026	0.00012	0.00016	5
22480	0.00018	2e-05	1e-05	0.00015	0.00029	0.00026	0.00012	0.00016	5
22481	0.00018	2e-05	1e-05	0.00015	0.00029	0.00026	0.00012	0.00016	5
22482	0.00018	2e-05	1e-05	0.00015	0.00029	0.00026	0.00012	0.00016	5
22483	0.00018	2e-05	1e-05	0.00015	0.00029	0.00026	0.00012	0.00016	5
22484	0.00018	2e-05	1e-05	0.00015	0.00029	0.00026	0.00012	0.00016	5
22485	0.00018	2e-05	1e-05	0.00015	0.00029	0.00026	0.00012	0.00016	5
22487	-0.00022	-0.00012	0	0.00033	0.00037	0.00011	-9e-05	-0.00019	5
22489	-0.00022	-0.00012	0	0.00033	0.00037	0.00011	-9e-05	-0.00019	5
22492	-0.00022	-0.00012	0	0.00033	0.00037	0.00011	-9e-05	-0.00019	5
22493	-0.00022	-0.00012	0	0.00033	0.00037	0.00011	-9e-05	-0.00019	5
22494	-0.00022	-0.00012	0	0.00033	0.00037	0.00011	-9e-05	-0.00019	5
22495	-0.00022	-0.00012	0	0.00033	0.00037	0.00011	-9e-05	-0.00019	5
22496	-0.00022	-0.00012	0	0.00033	0.00037	0.00011	-9e-05	-0.00019	5
22497	-0.00022	-0.00012	0	0.00033	0.00037	0.00011	-9e-05	-0.00019	5
22498	-0.00022	-0.00012	0	0.00033	0.00037	0.00011	-9e-05	-0.00019	5
22499	-0.00022	-0.00012	0	0.00033	0.00037	0.00011	-9e-05	-0.00019	5
22500	-1e-05	3e-05	2e-05	0.0008	0.00106	0.00048	0.00018	6e-05	5
22501	-1e-05	3e-05	2e-05	0.0008	0.00106	0.00048	0.00018	6e-05	5
22502	-1e-05	3e-05	2e-05	0.0008	0.00106	0.00048	0.00018	6e-05	5
22503	-1e-05	3e-05	2e-05	0.0008	0.00106	0.00048	0.00018	6e-05	5
22504	-1e-05	3e-05	2e-05	0.0008	0.00106	0.00048	0.00018	6e-05	5
22505	-1e-05	3e-05	2e-05	0.0008	0.00106	0.00048	0.00018	6e-05	5
22506	-1e-05	3e-05	2e-05	0.0008	0.00106	0.00048	0.00018	6e-05	5
22507	-1e-05	3e-05	2e-05	0.0008	0.00106	0.00048	0.00018	6e-05	5
22508	-1e-05	3e-05	2e-05	0.0008	0.00106	0.00048	0.00018	6e-05	5
22510	-1e-05	3e-05	2e-05	0.0008	0.00106	0.00048	0.00018	6e-05	5
22511	6e-05	9e-05	-0.0001	-0.00032	-0.00054	-6e-05	-1e-05	1e-05	5
22512	6e-05	9e-05	-0.0001	-0.00032	-0.00054	-6e-05	-1e-05	1e-05	5
22513	6e-05	9e-05	-0.0001	-0.00032	-0.00054	-6e-05	-1e-05	1e-05	5
22514	6e-05	9e-05	-0.0001	-0.00032	-0.00054	-6e-05	-1e-05	1e-05	5
22515	6e-05	9e-05	-0.0001	-0.00032	-0.00054	-6e-05	-1e-05	1e-05	5
22516	6e-05	9e-05	-0.0001	-0.00032	-0.00054	-6e-05	-1e-05	1e-05	5
22517	6e-05	9e-05	-0.0001	-0.00032	-0.00054	-6e-05	-1e-05	1e-05	5
22518	6e-05	9e-05	-0.0001	-0.00032	-0.00054	-6e-05	-1e-05	1e-05	5
22519	6e-05	9e-05	-0.0001	-0.00032	-0.00054	-6e-05	-1e-05	1e-05	5
22520	6e-05	9e-05	-0.0001	-0.00032	-0.00054	-6e-05	-1e-05	1e-05	5
22521	6e-05	9e-05	-0.0001	-0.00032	-0.00054	-6e-05	-1e-05	1e-05	5
22522	6e-05	9e-05	-0.0001	-0.00032	-0.00054	-6e-05	-1e-05	1e-05	5
22523	6e-05	9e-05	-0.0001	-0.00032	-0.00054	-6e-05	-1e-05	1e-05	5
22524	0	0.00015	-0.00026	-0.00048	-0.00055	-0.00031	-0.00016	-9e-05	5
22525	0	0.00015	-0.00026	-0.00048	-0.00055	-0.00031	-0.00016	-9e-05	5
22526	0	0.00015	-0.00026	-0.00048	-0.00055	-0.00031	-0.00016	-9e-05	5
22527	0	0.00015	-0.00026	-0.00048	-0.00055	-0.00031	-0.00016	-9e-05	5
22528	0	0.00015	-0.00026	-0.00048	-0.00055	-0.00031	-0.00016	-9e-05	5
22529	0	0.00015	-0.00026	-0.00048	-0.00055	-0.00031	-0.00016	-9e-05	5
22530	-7e-05	-1e-05	0.00022	0.00119	0.00127	0.00031	7e-05	-9e-05	5
22531	0.00011	0.00013	0.00029	0.00047	0.00023	1e-05	0.0001	0.0001	5
22532	0.00011	0.00013	0.00029	0.00047	0.00023	1e-05	0.0001	0.0001	5
22533	0.00011	0.00013	0.00029	0.00047	0.00023	1e-05	0.0001	0.0001	5
22534	0.00011	0.00013	0.00029	0.00047	0.00023	1e-05	0.0001	0.0001	5
22535	0.00011	0.00013	0.00029	0.00047	0.00023	1e-05	0.0001	0.0001	5
22536	0.00011	0.00013	0.00029	0.00047	0.00023	1e-05	0.0001	0.0001	5
22538	0.00011	0.00013	0.00029	0.00047	0.00023	1e-05	0.0001	0.0001	5
22539	0.00011	0.00013	0.00029	0.00047	0.00023	1e-05	0.0001	0.0001	5
22540	0.00011	0.00013	0.00029	0.00047	0.00023	1e-05	0.0001	0.0001	5
22541	0.00011	0.00013	0.00029	0.00047	0.00023	1e-05	0.0001	0.0001	5
22542	0.00011	0.00013	0.00029	0.00047	0.00023	1e-05	0.0001	0.0001	5
22543	0.00011	0.00013	0.00029	0.00047	0.00023	1e-05	0.0001	0.0001	5
22544	0.00011	0.00013	0.00029	0.00047	0.00023	1e-05	0.0001	0.0001	5
22545	0.00011	0.00013	0.00029	0.00047	0.00023	1e-05	0.0001	0.0001	5
22546	0.00011	0.00013	0.00029	0.00047	0.00023	1e-05	0.0001	0.0001	5
22547	0.00011	0.00013	0.00029	0.00047	0.00023	1e-05	0.0001	0.0001	5
22548	0.00011	0.00013	0.00029	0.00047	0.00023	1e-05	0.0001	0.0001	5
22549	0.00011	0.00013	0.00029	0.00047	0.00023	1e-05	0.0001	0.0001	5
22550	0.00011	0.00013	0.00029	0.00047	0.00023	1e-05	0.0001	0.0001	5
22551	0.00011	0.00013	0.00029	0.00047	0.00023	1e-05	0.0001	0.0001	5
22552	0.00011	0.00013	0.00029	0.00047	0.00023	1e-05	0.0001	0.0001	5
22553	-8e-05	-0.00015	-0.0003	-0.00042	-0.00029	8e-05	0	-6e-05	5
22554	-8e-05	-0.00015	-0.0003	-0.00042	-0.00029	8e-05	0	-6e-05	5
22555	-8e-05	-0.00016	-0.0001	-0.00023	-0.0001	-0.00028	-0.00014	-9e-05	5
22556	-8e-05	-0.00016	-0.0001	-0.00023	-0.0001	-0.00028	-0.00014	-9e-05	5
22557	-8e-05	-0.00016	-0.0001	-0.00023	-0.0001	-0.00028	-0.00014	-9e-05	5
22558	-8e-05	-0.00016	-0.0001	-0.00023	-0.0001	-0.00028	-0.00014	-9e-05	5
22559	0.00012	0.00012	0.00031	0.00026	-0.00012	0.00027	0.00021	0.00018	5
22560	0.00012	0.00012	0.00031	0.00026	-0.00012	0.00027	0.00021	0.00018	5
22561	0.00012	0.00012	0.00031	0.00026	-0.00012	0.00027	0.00021	0.00018	5
22562	0.00012	0.00012	0.00031	0.00026	-0.00012	0.00027	0.00021	0.00018	5
22563	0.00012	0.00012	0.00031	0.00026	-0.00012	0.00027	0.00021	0.00018	5
22564	0.00012	0.00012	0.00031	0.00026	-0.00012	0.00027	0.00021	0.00018	5
22565	0.00012	0.00012	0.00031	0.00026	-0.00012	0.00027	0.00021	0.00018	5
22566	0.00012	0.00012	0.00031	0.00026	-0.00012	0.00027	0.00021	0.00018	5
22567	0.00012	0.00012	0.00031	0.00026	-0.00012	0.00027	0.00021	0.00018	5
22568	-7e-05	-0.00025	-0.00012	0.00013	0.00019	0.00011	3e-05	-2e-05	5
22569	-7e-05	-0.00025	-0.00012	0.00013	0.00019	0.00011	3e-05	-2e-05	5
22570	-7e-05	-0.00025	-0.00012	0.00013	0.00019	0.00011	3e-05	-2e-05	5
22571	-7e-05	-0.00025	-0.00012	0.00013	0.00019	0.00011	3e-05	-2e-05	5
22572	-7e-05	-0.00025	-0.00012	0.00013	0.00019	0.00011	3e-05	-2e-05	5
22573	-7e-05	-0.00025	-0.00012	0.00013	0.00019	0.00011	3e-05	-2e-05	5
22574	-7e-05	-0.00025	-0.00012	0.00013	0.00019	0.00011	3e-05	-2e-05	5
22575	-7e-05	-0.00025	-0.00012	0.00013	0.00019	0.00011	3e-05	-2e-05	5
22576	-7e-05	-0.00025	-0.00012	0.00013	0.00019	0.00011	3e-05	-2e-05	5
22577	-7e-05	-0.00025	-0.00012	0.00013	0.00019	0.00011	3e-05	-2e-05	5
22578	-7e-05	-0.00025	-0.00012	0.00013	0.00019	0.00011	3e-05	-2e-05	5
22579	-7e-05	-0.00025	-0.00012	0.00013	0.00019	0.00011	3e-05	-2e-05	5
22580	-7e-05	-0.00025	-0.00012	0.00013	0.00019	0.00011	3e-05	-2e-05	5
22581	-7e-05	-0.00025	-0.00012	0.00013	0.00019	0.00011	3e-05	-2e-05	5
22582	-7e-05	-0.00025	-0.00012	0.00013	0.00019	0.00011	3e-05	-2e-05	5
22583	-7e-05	-0.00025	-0.00012	0.00013	0.00019	0.00011	3e-05	-2e-05	5
22584	-7e-05	-0.00025	-0.00012	0.00013	0.00019	0.00011	3e-05	-2e-05	5
22585	-7e-05	-0.00025	-0.00012	0.00013	0.00019	0.00011	3e-05	-2e-05	5
22586	-7e-05	-0.00025	-0.00012	0.00013	0.00019	0.00011	3e-05	-2e-05	5
22588	-7e-05	-0.00025	-0.00012	0.00013	0.00019	0.00011	3e-05	-2e-05	5
22589	-7e-05	-0.00025	-0.00012	0.00013	0.00019	0.00011	3e-05	-2e-05	5
22590	-7e-05	-0.00025	-0.00012	0.00013	0.00019	0.00011	3e-05	-2e-05	5
22591	-7e-05	-0.00025	-0.00012	0.00013	0.00019	0.00011	3e-05	-2e-05	5
22592	4e-05	0.00031	0.00059	0.00067	0.00023	0.00016	9e-05	7e-05	5
22593	4e-05	0.00031	0.00059	0.00067	0.00023	0.00016	9e-05	7e-05	5
22594	4e-05	0.00031	0.00059	0.00067	0.00023	0.00016	9e-05	7e-05	5
22595	4e-05	0.00031	0.00059	0.00067	0.00023	0.00016	9e-05	7e-05	5
22596	4e-05	0.00031	0.00059	0.00067	0.00023	0.00016	9e-05	7e-05	5
22597	4e-05	0.00031	0.00059	0.00067	0.00023	0.00016	9e-05	7e-05	5
22598	4e-05	0.00031	0.00059	0.00067	0.00023	0.00016	9e-05	7e-05	5
22599	4e-05	0.00031	0.00059	0.00067	0.00023	0.00016	9e-05	7e-05	5
22600	4e-05	0.00031	0.00059	0.00067	0.00023	0.00016	9e-05	7e-05	5
22601	4e-05	0.00031	0.00059	0.00067	0.00023	0.00016	9e-05	7e-05	5
22602	4e-05	0.00031	0.00059	0.00067	0.00023	0.00016	9e-05	7e-05	5
22603	4e-05	0.00031	0.00059	0.00067	0.00023	0.00016	9e-05	7e-05	5
22604	4e-05	0.00031	0.00059	0.00067	0.00023	0.00016	9e-05	7e-05	5
22605	4e-05	0.00031	0.00059	0.00067	0.00023	0.00016	9e-05	7e-05	5
22606	4e-05	0.00031	0.00059	0.00067	0.00023	0.00016	9e-05	7e-05	5
22607	-4e-05	-0.0001	0.0001	-4e-05	-0.00017	-0.0002	-2e-05	-6e-05	5
22608	-4e-05	-0.0001	0.0001	-4e-05	-0.00017	-0.0002	-2e-05	-6e-05	5
22609	-5e-05	-8e-05	-0.00025	-0.0004	-0.00022	-0.00015	-5e-05	-3e-05	5
22610	-5e-05	-8e-05	-0.00025	-0.0004	-0.00022	-0.00015	-5e-05	-3e-05	5
22611	-5e-05	-8e-05	-0.00025	-0.0004	-0.00022	-0.00015	-5e-05	-3e-05	5
22612	-5e-05	-8e-05	-0.00025	-0.0004	-0.00022	-0.00015	-5e-05	-3e-05	5
22613	-5e-05	-8e-05	-0.00025	-0.0004	-0.00022	-0.00015	-5e-05	-3e-05	5
22614	-5e-05	-8e-05	-0.00025	-0.0004	-0.00022	-0.00015	-5e-05	-3e-05	5
22615	-5e-05	-8e-05	-0.00025	-0.0004	-0.00022	-0.00015	-5e-05	-3e-05	5
22616	-5e-05	-8e-05	-0.00025	-0.0004	-0.00022	-0.00015	-5e-05	-3e-05	5
22617	-5e-05	-8e-05	-0.00025	-0.0004	-0.00022	-0.00015	-5e-05	-3e-05	5
22618	-5e-05	-8e-05	-0.00025	-0.0004	-0.00022	-0.00015	-5e-05	-3e-05	5
22619	1e-05	1e-05	0.00011	-7e-05	-2e-05	-2e-05	-3e-05	1e-05	5
22620	1e-05	1e-05	0.00011	-7e-05	-2e-05	-2e-05	-3e-05	1e-05	5
22621	1e-05	1e-05	0.00011	-7e-05	-2e-05	-2e-05	-3e-05	1e-05	5
22622	1e-05	1e-05	0.00011	-7e-05	-2e-05	-2e-05	-3e-05	1e-05	5
22623	1e-05	1e-05	0.00011	-7e-05	-2e-05	-2e-05	-3e-05	1e-05	5
22624	1e-05	1e-05	0.00011	-7e-05	-2e-05	-2e-05	-3e-05	1e-05	5
22625	1e-05	1e-05	0.00011	-7e-05	-2e-05	-2e-05	-3e-05	1e-05	5
22626	1e-05	1e-05	0.00011	-7e-05	-2e-05	-2e-05	-3e-05	1e-05	5
22627	1e-05	1e-05	0.00011	-7e-05	-2e-05	-2e-05	-3e-05	1e-05	5
22628	-2e-05	0	-4e-05	9e-05	-9e-05	-0.00012	-1e-05	-1e-05	5
22629	-1e-05	-0.00013	-0.00041	-0.00048	-0.00024	-0.00013	0	3e-05	5
22630	-1e-05	-0.00013	-0.00041	-0.00048	-0.00024	-0.00013	0	3e-05	5
22631	-1e-05	-0.00013	-0.00041	-0.00048	-0.00024	-0.00013	0	3e-05	5
22632	-1e-05	-0.00013	-0.00041	-0.00048	-0.00024	-0.00013	0	3e-05	5
22633	-1e-05	-0.00013	-0.00041	-0.00048	-0.00024	-0.00013	0	3e-05	5
22634	-1e-05	-0.00013	-0.00041	-0.00048	-0.00024	-0.00013	0	3e-05	5
22635	-1e-05	-0.00013	-0.00041	-0.00048	-0.00024	-0.00013	0	3e-05	5
22636	-1e-05	-0.00013	-0.00041	-0.00048	-0.00024	-0.00013	0	3e-05	5
22638	-1e-05	-0.00013	-0.00041	-0.00048	-0.00024	-0.00013	0	3e-05	5
22639	-1e-05	-0.00013	-0.00041	-0.00048	-0.00024	-0.00013	0	3e-05	5
22640	-1e-05	-0.00013	-0.00041	-0.00048	-0.00024	-0.00013	0	3e-05	5
22641	-1e-05	-0.00013	-0.00041	-0.00048	-0.00024	-0.00013	0	3e-05	5
22642	-1e-05	-0.00013	-0.00041	-0.00048	-0.00024	-0.00013	0	3e-05	5
22643	-3e-05	-1e-05	7e-05	0.00023	-0.00021	-0.00011	-3e-05	-3e-05	5
22644	-3e-05	-1e-05	7e-05	0.00023	-0.00021	-0.00011	-3e-05	-3e-05	5
22645	-4e-05	7e-05	8e-05	-0.00059	-0.00032	-9e-05	-8e-05	-4e-05	5
22646	-4e-05	7e-05	8e-05	-0.00059	-0.00032	-9e-05	-8e-05	-4e-05	5
22647	-4e-05	7e-05	8e-05	-0.00059	-0.00032	-9e-05	-8e-05	-4e-05	5
22648	-4e-05	7e-05	8e-05	-0.00059	-0.00032	-9e-05	-8e-05	-4e-05	5
22649	-4e-05	7e-05	8e-05	-0.00059	-0.00032	-9e-05	-8e-05	-4e-05	5
22650	-4e-05	7e-05	8e-05	-0.00059	-0.00032	-9e-05	-8e-05	-4e-05	5
22651	-4e-05	7e-05	8e-05	-0.00059	-0.00032	-9e-05	-8e-05	-4e-05	5
22652	-4e-05	7e-05	8e-05	-0.00059	-0.00032	-9e-05	-8e-05	-4e-05	5
22653	-4e-05	7e-05	8e-05	-0.00059	-0.00032	-9e-05	-8e-05	-4e-05	5
22654	-4e-05	7e-05	8e-05	-0.00059	-0.00032	-9e-05	-8e-05	-4e-05	5
22655	-4e-05	7e-05	8e-05	-0.00059	-0.00032	-9e-05	-8e-05	-4e-05	5
22656	-4e-05	7e-05	8e-05	-0.00059	-0.00032	-9e-05	-8e-05	-4e-05	5
22657	-4e-05	7e-05	8e-05	-0.00059	-0.00032	-9e-05	-8e-05	-4e-05	5
22658	-4e-05	7e-05	8e-05	-0.00059	-0.00032	-9e-05	-8e-05	-4e-05	5
22659	-4e-05	7e-05	8e-05	-0.00059	-0.00032	-9e-05	-8e-05	-4e-05	5
22660	-4e-05	7e-05	8e-05	-0.00059	-0.00032	-9e-05	-8e-05	-4e-05	5
22661	-4e-05	7e-05	8e-05	-0.00059	-0.00032	-9e-05	-8e-05	-4e-05	5
22662	-4e-05	7e-05	8e-05	-0.00059	-0.00032	-9e-05	-8e-05	-4e-05	5
22663	-4e-05	7e-05	8e-05	-0.00059	-0.00032	-9e-05	-8e-05	-4e-05	5
22664	-4e-05	7e-05	8e-05	-0.00059	-0.00032	-9e-05	-8e-05	-4e-05	5
22665	-4e-05	7e-05	8e-05	-0.00059	-0.00032	-9e-05	-8e-05	-4e-05	5
22666	-0.00016	-9e-05	-6e-05	-0.00027	-0.00032	-0.00015	-8e-05	-5e-05	5
22667	4e-05	6e-05	0.00016	-0.00029	-0.00017	-0.00011	-7e-05	5e-05	5
22668	4e-05	6e-05	0.00016	-0.00029	-0.00017	-0.00011	-7e-05	5e-05	5
22669	4e-05	6e-05	0.00016	-0.00029	-0.00017	-0.00011	-7e-05	5e-05	5
22670	4e-05	6e-05	0.00016	-0.00029	-0.00017	-0.00011	-7e-05	5e-05	5
22671	4e-05	6e-05	0.00016	-0.00029	-0.00017	-0.00011	-7e-05	5e-05	5
22672	4e-05	6e-05	0.00016	-0.00029	-0.00017	-0.00011	-7e-05	5e-05	5
22673	4e-05	6e-05	0.00016	-0.00029	-0.00017	-0.00011	-7e-05	5e-05	5
22674	4e-05	6e-05	0.00016	-0.00029	-0.00017	-0.00011	-7e-05	5e-05	5
22675	4e-05	6e-05	0.00016	-0.00029	-0.00017	-0.00011	-7e-05	5e-05	5
22676	4e-05	6e-05	0.00016	-0.00029	-0.00017	-0.00011	-7e-05	5e-05	5
22677	4e-05	6e-05	0.00016	-0.00029	-0.00017	-0.00011	-7e-05	5e-05	5
22678	4e-05	6e-05	0.00016	-0.00029	-0.00017	-0.00011	-7e-05	5e-05	5
22679	4e-05	6e-05	0.00016	-0.00029	-0.00017	-0.00011	-7e-05	5e-05	5
22680	4e-05	6e-05	0.00016	-0.00029	-0.00017	-0.00011	-7e-05	5e-05	5
22681	4e-05	6e-05	0.00016	-0.00029	-0.00017	-0.00011	-7e-05	5e-05	5
22682	4e-05	6e-05	0.00016	-0.00029	-0.00017	-0.00011	-7e-05	5e-05	5
22683	4e-05	6e-05	0.00016	-0.00029	-0.00017	-0.00011	-7e-05	5e-05	5
22684	4e-05	6e-05	0.00016	-0.00029	-0.00017	-0.00011	-7e-05	5e-05	5
22685	4e-05	6e-05	0.00016	-0.00029	-0.00017	-0.00011	-7e-05	5e-05	5
22686	4e-05	6e-05	0.00016	-0.00029	-0.00017	-0.00011	-7e-05	5e-05	5
22689	-0.00012	-0.00027	-0.00035	-0.00056	-0.00055	-0.00034	-0.00013	-0.0001	5
22690	-0.00012	-0.00027	-0.00035	-0.00056	-0.00055	-0.00034	-0.00013	-0.0001	5
22691	-0.00012	-0.00027	-0.00035	-0.00056	-0.00055	-0.00034	-0.00013	-0.0001	5
22692	-0.00012	-0.00027	-0.00035	-0.00056	-0.00055	-0.00034	-0.00013	-0.0001	5
22693	-0.00012	-0.00027	-0.00035	-0.00056	-0.00055	-0.00034	-0.00013	-0.0001	5
22694	-0.00012	-0.00027	-0.00035	-0.00056	-0.00055	-0.00034	-0.00013	-0.0001	5
22695	-0.00012	-0.00027	-0.00035	-0.00056	-0.00055	-0.00034	-0.00013	-0.0001	5
22696	-0.0001	-6e-05	-0.00018	-3e-05	-0.00018	-3e-05	-7e-05	-0.00016	5
22697	-0.0001	-6e-05	-0.00018	-3e-05	-0.00018	-3e-05	-7e-05	-0.00016	5
22698	-0.0001	-6e-05	-0.00018	-3e-05	-0.00018	-3e-05	-7e-05	-0.00016	5
22699	-0.0001	-6e-05	-0.00018	-3e-05	-0.00018	-3e-05	-7e-05	-0.00016	5
22700	-0.0001	-6e-05	-0.00018	-3e-05	-0.00018	-3e-05	-7e-05	-0.00016	5
22701	-0.0001	-6e-05	-0.00018	-3e-05	-0.00018	-3e-05	-7e-05	-0.00016	5
22702	-0.0001	-6e-05	-0.00018	-3e-05	-0.00018	-3e-05	-7e-05	-0.00016	5
22703	-0.0001	-6e-05	-0.00018	-3e-05	-0.00018	-3e-05	-7e-05	-0.00016	5
22704	-0.0001	-6e-05	-0.00018	-3e-05	-0.00018	-3e-05	-7e-05	-0.00016	5
22705	-0.0001	-6e-05	-0.00018	-3e-05	-0.00018	-3e-05	-7e-05	-0.00016	5
22706	-0.0001	-6e-05	-0.00018	-3e-05	-0.00018	-3e-05	-7e-05	-0.00016	5
22707	-0.0001	-6e-05	-0.00018	-3e-05	-0.00018	-3e-05	-7e-05	-0.00016	5
22708	-0.0001	-6e-05	-0.00018	-3e-05	-0.00018	-3e-05	-7e-05	-0.00016	5
22709	-0.0001	-6e-05	-0.00018	-3e-05	-0.00018	-3e-05	-7e-05	-0.00016	5
22710	-0.0001	-6e-05	-0.00018	-3e-05	-0.00018	-3e-05	-7e-05	-0.00016	5
22711	-0.0001	-6e-05	-0.00018	-3e-05	-0.00018	-3e-05	-7e-05	-0.00016	5
22712	-0.0001	-6e-05	-0.00018	-3e-05	-0.00018	-3e-05	-7e-05	-0.00016	5
22713	-0.0001	-6e-05	-0.00018	-3e-05	-0.00018	-3e-05	-7e-05	-0.00016	5
22714	-0.0001	-6e-05	-0.00018	-3e-05	-0.00018	-3e-05	-7e-05	-0.00016	5
22715	-0.0001	-6e-05	-0.00018	-3e-05	-0.00018	-3e-05	-7e-05	-0.00016	5
22716	-0.0001	-6e-05	-0.00018	-3e-05	-0.00018	-3e-05	-7e-05	-0.00016	5
22717	-0.0001	-6e-05	-0.00018	-3e-05	-0.00018	-3e-05	-7e-05	-0.00016	5
22718	0.00011	-4e-05	-0.00021	-0.00011	0	1e-05	-2e-05	8e-05	5
22719	0.00011	-4e-05	-0.00021	-0.00011	0	1e-05	-2e-05	8e-05	5
22720	0	-7e-05	-5e-05	0.00014	-0.0002	-0.00025	-5e-05	-6e-05	5
22721	0	-7e-05	-5e-05	0.00014	-0.0002	-0.00025	-5e-05	-6e-05	5
22722	0	-7e-05	-5e-05	0.00014	-0.0002	-0.00025	-5e-05	-6e-05	5
22723	0	-7e-05	-5e-05	0.00014	-0.0002	-0.00025	-5e-05	-6e-05	5
22724	0	-7e-05	-5e-05	0.00014	-0.0002	-0.00025	-5e-05	-6e-05	5
22725	0	-7e-05	-5e-05	0.00014	-0.0002	-0.00025	-5e-05	-6e-05	5
22726	0	-7e-05	-5e-05	0.00014	-0.0002	-0.00025	-5e-05	-6e-05	5
22727	0	-7e-05	-5e-05	0.00014	-0.0002	-0.00025	-5e-05	-6e-05	5
22728	0	-7e-05	-5e-05	0.00014	-0.0002	-0.00025	-5e-05	-6e-05	5
22729	0	-7e-05	-5e-05	0.00014	-0.0002	-0.00025	-5e-05	-6e-05	5
22730	0	-7e-05	-5e-05	0.00014	-0.0002	-0.00025	-5e-05	-6e-05	5
22731	0	-7e-05	-5e-05	0.00014	-0.0002	-0.00025	-5e-05	-6e-05	5
22732	0	-7e-05	-5e-05	0.00014	-0.0002	-0.00025	-5e-05	-6e-05	5
22733	0	-7e-05	-5e-05	0.00014	-0.0002	-0.00025	-5e-05	-6e-05	5
22734	0	-7e-05	-5e-05	0.00014	-0.0002	-0.00025	-5e-05	-6e-05	5
22735	0	-7e-05	-5e-05	0.00014	-0.0002	-0.00025	-5e-05	-6e-05	5
22736	0	-7e-05	-5e-05	0.00014	-0.0002	-0.00025	-5e-05	-6e-05	5
22738	0	-7e-05	-5e-05	0.00014	-0.0002	-0.00025	-5e-05	-6e-05	5
22739	0	-7e-05	-5e-05	0.00014	-0.0002	-0.00025	-5e-05	-6e-05	5
22740	0	-7e-05	-5e-05	0.00014	-0.0002	-0.00025	-5e-05	-6e-05	5
22741	-5e-05	-5e-05	-5e-05	-0.00011	0.0003	0.0002	8e-05	5e-05	5
22742	3e-05	7e-05	0.00011	0.00013	-0.00018	-0.00016	-8e-05	-5e-05	5
22743	3e-05	7e-05	0.00011	0.00013	-0.00018	-0.00016	-8e-05	-5e-05	5
22744	6e-05	0.00011	0.00018	0.00041	0.0007	0.00021	3e-05	2e-05	5
22745	6e-05	0.00011	0.00018	0.00041	0.0007	0.00021	3e-05	2e-05	5
22746	6e-05	0.00011	0.00018	0.00041	0.0007	0.00021	3e-05	2e-05	5
22747	6e-05	0.00011	0.00018	0.00041	0.0007	0.00021	3e-05	2e-05	5
22748	6e-05	0.00011	0.00018	0.00041	0.0007	0.00021	3e-05	2e-05	5
22749	6e-05	0.00011	0.00018	0.00041	0.0007	0.00021	3e-05	2e-05	5
22750	6e-05	0.00011	0.00018	0.00041	0.0007	0.00021	3e-05	2e-05	5
22751	6e-05	0.00011	0.00018	0.00041	0.0007	0.00021	3e-05	2e-05	5
22752	6e-05	0.00011	0.00018	0.00041	0.0007	0.00021	3e-05	2e-05	5
22753	6e-05	0.00011	0.00018	0.00041	0.0007	0.00021	3e-05	2e-05	5
22754	6e-05	0.00011	0.00018	0.00041	0.0007	0.00021	3e-05	2e-05	5
22755	6e-05	0.00011	0.00018	0.00041	0.0007	0.00021	3e-05	2e-05	5
22756	6e-05	0.00011	0.00018	0.00041	0.0007	0.00021	3e-05	2e-05	5
22757	6e-05	0.00011	0.00018	0.00041	0.0007	0.00021	3e-05	2e-05	5
22758	6e-05	0.00011	0.00018	0.00041	0.0007	0.00021	3e-05	2e-05	5
22759	6e-05	0.00011	0.00018	0.00041	0.0007	0.00021	3e-05	2e-05	5
22760	6e-05	0.00011	0.00018	0.00041	0.0007	0.00021	3e-05	2e-05	5
22761	6e-05	0.00011	0.00018	0.00041	0.0007	0.00021	3e-05	2e-05	5
22762	6e-05	0.00011	0.00018	0.00041	0.0007	0.00021	3e-05	2e-05	5
22763	6e-05	0.00011	0.00018	0.00041	0.0007	0.00021	3e-05	2e-05	5
22764	6e-05	0.00011	0.00018	0.00041	0.0007	0.00021	3e-05	2e-05	5
22765	4e-05	-8e-05	-0.00034	0.00021	0.00077	0.00036	0.00016	8e-05	5
22766	-3e-05	-4e-05	8e-05	0.0002	3e-05	5e-05	-1e-05	0	5
22767	8e-05	9e-05	0.00029	0.00012	8e-05	0.00024	0.00012	8e-05	5
22768	8e-05	9e-05	0.00029	0.00012	8e-05	0.00024	0.00012	8e-05	5
22769	8e-05	9e-05	0.00029	0.00012	8e-05	0.00024	0.00012	8e-05	5
22770	8e-05	9e-05	0.00029	0.00012	8e-05	0.00024	0.00012	8e-05	5
22771	-7e-05	-0.00015	-0.00016	-0.00014	-0.00058	-0.00013	-4e-05	-8e-05	5
22772	-7e-05	-0.00015	-0.00016	-0.00014	-0.00058	-0.00013	-4e-05	-8e-05	5
22773	-7e-05	-0.00015	-0.00016	-0.00014	-0.00058	-0.00013	-4e-05	-8e-05	5
22774	-7e-05	-0.00015	-0.00016	-0.00014	-0.00058	-0.00013	-4e-05	-8e-05	5
22775	-7e-05	-0.00015	-0.00016	-0.00014	-0.00058	-0.00013	-4e-05	-8e-05	5
22776	-7e-05	-0.00015	-0.00016	-0.00014	-0.00058	-0.00013	-4e-05	-8e-05	5
22777	-7e-05	-0.00015	-0.00016	-0.00014	-0.00058	-0.00013	-4e-05	-8e-05	5
22778	-7e-05	-0.00015	-0.00016	-0.00014	-0.00058	-0.00013	-4e-05	-8e-05	5
22779	-7e-05	-0.00015	-0.00016	-0.00014	-0.00058	-0.00013	-4e-05	-8e-05	5
22780	-7e-05	-0.00015	-0.00016	-0.00014	-0.00058	-0.00013	-4e-05	-8e-05	5
22781	-7e-05	-0.00015	-0.00016	-0.00014	-0.00058	-0.00013	-4e-05	-8e-05	5
22782	-7e-05	-0.00015	-0.00016	-0.00014	-0.00058	-0.00013	-4e-05	-8e-05	5
22783	-7e-05	-0.00015	-0.00016	-0.00014	-0.00058	-0.00013	-4e-05	-8e-05	5
22784	-7e-05	-0.00015	-0.00016	-0.00014	-0.00058	-0.00013	-4e-05	-8e-05	5
22785	-7e-05	-0.00015	-0.00016	-0.00014	-0.00058	-0.00013	-4e-05	-8e-05	5
22786	-7e-05	-0.00015	-0.00016	-0.00014	-0.00058	-0.00013	-4e-05	-8e-05	5
22789	-7e-05	-0.00015	-0.00016	-0.00014	-0.00058	-0.00013	-4e-05	-8e-05	5
22790	-7e-05	-0.00015	-0.00016	-0.00014	-0.00058	-0.00013	-4e-05	-8e-05	5
22791	-7e-05	-0.00015	-0.00016	-0.00014	-0.00058	-0.00013	-4e-05	-8e-05	5
22792	-7e-05	-0.00015	-0.00016	-0.00014	-0.00058	-0.00013	-4e-05	-8e-05	5
22793	-7e-05	-0.00015	-0.00016	-0.00014	-0.00058	-0.00013	-4e-05	-8e-05	5
22794	5e-05	0.00014	0.00035	0.00026	0.00012	-9e-05	-6e-05	0	5
22795	-8e-05	-8e-05	-0.00013	-0.00066	-0.00052	-0.00012	-0.00012	-8e-05	5
22797	-8e-05	-8e-05	-0.00013	-0.00066	-0.00052	-0.00012	-0.00012	-8e-05	5
22798	-8e-05	-8e-05	-0.00013	-0.00066	-0.00052	-0.00012	-0.00012	-8e-05	5
22799	-8e-05	-8e-05	-0.00013	-0.00066	-0.00052	-0.00012	-0.00012	-8e-05	5
22800	-8e-05	-8e-05	-0.00013	-0.00066	-0.00052	-0.00012	-0.00012	-8e-05	5
22801	-8e-05	-8e-05	-0.00013	-0.00066	-0.00052	-0.00012	-0.00012	-8e-05	5
22802	-8e-05	-8e-05	-0.00013	-0.00066	-0.00052	-0.00012	-0.00012	-8e-05	5
22803	-8e-05	-8e-05	-0.00013	-0.00066	-0.00052	-0.00012	-0.00012	-8e-05	5
22804	-8e-05	-8e-05	-0.00013	-0.00066	-0.00052	-0.00012	-0.00012	-8e-05	5
22805	-8e-05	-8e-05	-0.00013	-0.00066	-0.00052	-0.00012	-0.00012	-8e-05	5
22806	-8e-05	-8e-05	-0.00013	-0.00066	-0.00052	-0.00012	-0.00012	-8e-05	5
22807	-8e-05	-8e-05	-0.00013	-0.00066	-0.00052	-0.00012	-0.00012	-8e-05	5
22808	-8e-05	-8e-05	-0.00013	-0.00066	-0.00052	-0.00012	-0.00012	-8e-05	5
22809	-8e-05	-8e-05	-0.00013	-0.00066	-0.00052	-0.00012	-0.00012	-8e-05	5
22810	-8e-05	-8e-05	-0.00013	-0.00066	-0.00052	-0.00012	-0.00012	-8e-05	5
22811	-8e-05	-8e-05	-0.00013	-0.00066	-0.00052	-0.00012	-0.00012	-8e-05	5
22812	-8e-05	-8e-05	-0.00013	-0.00066	-0.00052	-0.00012	-0.00012	-8e-05	5
22813	-8e-05	-8e-05	-0.00013	-0.00066	-0.00052	-0.00012	-0.00012	-8e-05	5
22814	-8e-05	-8e-05	-0.00013	-0.00066	-0.00052	-0.00012	-0.00012	-8e-05	5
22815	-8e-05	-8e-05	-0.00013	-0.00066	-0.00052	-0.00012	-0.00012	-8e-05	5
22816	1e-05	9e-05	-5e-05	-0.00011	-0.00017	-0.0001	-4e-05	-4e-05	5
22817	1e-05	9e-05	-5e-05	-0.00011	-0.00017	-0.0001	-4e-05	-4e-05	5
22818	-0.0002	-0.00022	-0.00029	-0.00014	-0.00017	-1e-05	-7e-05	-0.00015	5
22819	-0.0002	-0.00022	-0.00029	-0.00014	-0.00017	-1e-05	-7e-05	-0.00015	5
22820	-0.0002	-0.00022	-0.00029	-0.00014	-0.00017	-1e-05	-7e-05	-0.00015	5
22821	-0.0002	-0.00022	-0.00029	-0.00014	-0.00017	-1e-05	-7e-05	-0.00015	5
22822	-0.0002	-0.00022	-0.00029	-0.00014	-0.00017	-1e-05	-7e-05	-0.00015	5
22824	-0.0002	-0.00022	-0.00029	-0.00014	-0.00017	-1e-05	-7e-05	-0.00015	5
22825	-0.0002	-0.00022	-0.00029	-0.00014	-0.00017	-1e-05	-7e-05	-0.00015	5
22826	-0.0002	-0.00022	-0.00029	-0.00014	-0.00017	-1e-05	-7e-05	-0.00015	5
22827	-0.0002	-0.00022	-0.00029	-0.00014	-0.00017	-1e-05	-7e-05	-0.00015	5
22828	-0.0002	-0.00022	-0.00029	-0.00014	-0.00017	-1e-05	-7e-05	-0.00015	5
22829	-0.0002	-0.00022	-0.00029	-0.00014	-0.00017	-1e-05	-7e-05	-0.00015	5
22830	-0.0002	-0.00022	-0.00029	-0.00014	-0.00017	-1e-05	-7e-05	-0.00015	5
22831	-0.0002	-0.00022	-0.00029	-0.00014	-0.00017	-1e-05	-7e-05	-0.00015	5
22832	-0.0002	-0.00022	-0.00029	-0.00014	-0.00017	-1e-05	-7e-05	-0.00015	5
22833	-0.0002	-0.00022	-0.00029	-0.00014	-0.00017	-1e-05	-7e-05	-0.00015	5
22834	-0.0002	-0.00022	-0.00029	-0.00014	-0.00017	-1e-05	-7e-05	-0.00015	5
22835	-0.0002	-0.00022	-0.00029	-0.00014	-0.00017	-1e-05	-7e-05	-0.00015	5
22836	-0.0002	-0.00022	-0.00029	-0.00014	-0.00017	-1e-05	-7e-05	-0.00015	5
22838	-0.0002	-0.00022	-0.00029	-0.00014	-0.00017	-1e-05	-7e-05	-0.00015	5
22840	-0.0002	-0.00022	-0.00029	-0.00014	-0.00017	-1e-05	-7e-05	-0.00015	5
22841	-0.0002	-0.00022	-0.00029	-0.00014	-0.00017	-1e-05	-7e-05	-0.00015	5
22842	-0.0002	-0.00022	-0.00029	-0.00014	-0.00017	-1e-05	-7e-05	-0.00015	5
22843	-0.0002	-0.00022	-0.00029	-0.00014	-0.00017	-1e-05	-7e-05	-0.00015	5
22844	-0.0002	-0.00022	-0.00029	-0.00014	-0.00017	-1e-05	-7e-05	-0.00015	5
22845	-0.0002	-0.00022	-0.00029	-0.00014	-0.00017	-1e-05	-7e-05	-0.00015	5
22846	-0.0002	-0.00022	-0.00029	-0.00014	-0.00017	-1e-05	-7e-05	-0.00015	5
22847	4e-05	-0.00011	-0.00015	-2e-05	9e-05	-1e-05	3e-05	3e-05	5
22848	4e-05	-0.00011	-0.00015	-2e-05	9e-05	-1e-05	3e-05	3e-05	5
22849	1e-05	0.00026	0.00069	0.00092	0.00052	0.00037	0.00015	3e-05	5
22850	-2e-05	-5e-05	-1e-05	-0.00019	-0.00024	-0.00012	-3e-05	3e-05	5
22851	-2e-05	-5e-05	-1e-05	-0.00019	-0.00024	-0.00012	-3e-05	3e-05	5
22852	-2e-05	-5e-05	-1e-05	-0.00019	-0.00024	-0.00012	-3e-05	3e-05	5
22853	-2e-05	-5e-05	-1e-05	-0.00019	-0.00024	-0.00012	-3e-05	3e-05	5
22854	-2e-05	-5e-05	-1e-05	-0.00019	-0.00024	-0.00012	-3e-05	3e-05	5
22855	-2e-05	-5e-05	-1e-05	-0.00019	-0.00024	-0.00012	-3e-05	3e-05	5
22856	-2e-05	-5e-05	-1e-05	-0.00019	-0.00024	-0.00012	-3e-05	3e-05	5
22857	-2e-05	-5e-05	-1e-05	-0.00019	-0.00024	-0.00012	-3e-05	3e-05	5
22858	-2e-05	-5e-05	-1e-05	-0.00019	-0.00024	-0.00012	-3e-05	3e-05	5
22859	-2e-05	-5e-05	-1e-05	-0.00019	-0.00024	-0.00012	-3e-05	3e-05	5
22860	-2e-05	-5e-05	-1e-05	-0.00019	-0.00024	-0.00012	-3e-05	3e-05	5
22861	-2e-05	-5e-05	-1e-05	-0.00019	-0.00024	-0.00012	-3e-05	3e-05	5
22862	-2e-05	-5e-05	-1e-05	-0.00019	-0.00024	-0.00012	-3e-05	3e-05	5
22863	-2e-05	-5e-05	-1e-05	-0.00019	-0.00024	-0.00012	-3e-05	3e-05	5
22864	-2e-05	-5e-05	-1e-05	-0.00019	-0.00024	-0.00012	-3e-05	3e-05	5
22865	-2e-05	-5e-05	-1e-05	-0.00019	-0.00024	-0.00012	-3e-05	3e-05	5
22866	-2e-05	-5e-05	-1e-05	-0.00019	-0.00024	-0.00012	-3e-05	3e-05	5
22867	-2e-05	-5e-05	-1e-05	-0.00019	-0.00024	-0.00012	-3e-05	3e-05	5
22868	-2e-05	-5e-05	-1e-05	-0.00019	-0.00024	-0.00012	-3e-05	3e-05	5
22869	-2e-05	-5e-05	-1e-05	-0.00019	-0.00024	-0.00012	-3e-05	3e-05	5
22870	-2e-05	-0.00015	-0.00019	-0.00024	-0.00045	-0.00015	-7e-05	-5e-05	5
22871	-0.00025	-0.00014	-0.00012	-3e-05	8e-05	-1e-05	-4e-05	-0.00017	5
22872	-0.00025	-0.00014	-0.00012	-3e-05	8e-05	-1e-05	-4e-05	-0.00017	5
22873	-0.00025	-0.00014	-0.00012	-3e-05	8e-05	-1e-05	-4e-05	-0.00017	5
22874	-0.00025	-0.00014	-0.00012	-3e-05	8e-05	-1e-05	-4e-05	-0.00017	5
22875	-0.00025	-0.00014	-0.00012	-3e-05	8e-05	-1e-05	-4e-05	-0.00017	5
22876	-0.00025	-0.00014	-0.00012	-3e-05	8e-05	-1e-05	-4e-05	-0.00017	5
22877	-0.00025	-0.00014	-0.00012	-3e-05	8e-05	-1e-05	-4e-05	-0.00017	5
22878	-0.00025	-0.00014	-0.00012	-3e-05	8e-05	-1e-05	-4e-05	-0.00017	5
22879	-0.00025	-0.00014	-0.00012	-3e-05	8e-05	-1e-05	-4e-05	-0.00017	5
22880	-0.00025	-0.00014	-0.00012	-3e-05	8e-05	-1e-05	-4e-05	-0.00017	5
22881	-0.00025	-0.00014	-0.00012	-3e-05	8e-05	-1e-05	-4e-05	-0.00017	5
22882	-0.00025	-0.00014	-0.00012	-3e-05	8e-05	-1e-05	-4e-05	-0.00017	5
22883	-0.00025	-0.00014	-0.00012	-3e-05	8e-05	-1e-05	-4e-05	-0.00017	5
22884	-0.00025	-0.00014	-0.00012	-3e-05	8e-05	-1e-05	-4e-05	-0.00017	5
22885	-0.00025	-0.00014	-0.00012	-3e-05	8e-05	-1e-05	-4e-05	-0.00017	5
22886	-0.00025	-0.00014	-0.00012	-3e-05	8e-05	-1e-05	-4e-05	-0.00017	5
22889	-0.00025	-0.00014	-0.00012	-3e-05	8e-05	-1e-05	-4e-05	-0.00017	5
22890	-0.00025	-0.00014	-0.00012	-3e-05	8e-05	-1e-05	-4e-05	-0.00017	5
22891	-0.00025	-0.00014	-0.00012	-3e-05	8e-05	-1e-05	-4e-05	-0.00017	5
22892	-0.00025	-0.00014	-0.00012	-3e-05	8e-05	-1e-05	-4e-05	-0.00017	5
22893	0.00036	0.00029	0.00045	0.00096	0.00084	0.00018	0.00012	0.0002	5
22894	-9e-05	-7e-05	-0.00013	-0.00021	-0.00014	-0.00019	-0.0001	-7e-05	5
22895	-9e-05	-0.00014	-0.00013	-0.00024	-0.00031	-0.00024	-0.00012	-0.0001	5
22896	-9e-05	-0.00014	-0.00013	-0.00024	-0.00031	-0.00024	-0.00012	-0.0001	5
22897	-9e-05	-0.00014	-0.00013	-0.00024	-0.00031	-0.00024	-0.00012	-0.0001	5
22898	-9e-05	-0.00014	-0.00013	-0.00024	-0.00031	-0.00024	-0.00012	-0.0001	5
22899	-9e-05	-0.00014	-0.00013	-0.00024	-0.00031	-0.00024	-0.00012	-0.0001	5
22900	-9e-05	-0.00014	-0.00013	-0.00024	-0.00031	-0.00024	-0.00012	-0.0001	5
22901	-9e-05	-0.00014	-0.00013	-0.00024	-0.00031	-0.00024	-0.00012	-0.0001	5
22902	-9e-05	-0.00014	-0.00013	-0.00024	-0.00031	-0.00024	-0.00012	-0.0001	5
22903	-9e-05	-0.00014	-0.00013	-0.00024	-0.00031	-0.00024	-0.00012	-0.0001	5
22904	-9e-05	-0.00014	-0.00013	-0.00024	-0.00031	-0.00024	-0.00012	-0.0001	5
22905	-9e-05	-0.00014	-0.00013	-0.00024	-0.00031	-0.00024	-0.00012	-0.0001	5
22906	-9e-05	-0.00014	-0.00013	-0.00024	-0.00031	-0.00024	-0.00012	-0.0001	5
22907	-9e-05	-0.00014	-0.00013	-0.00024	-0.00031	-0.00024	-0.00012	-0.0001	5
22908	-9e-05	-0.00014	-0.00013	-0.00024	-0.00031	-0.00024	-0.00012	-0.0001	5
22909	-9e-05	-0.00014	-0.00013	-0.00024	-0.00031	-0.00024	-0.00012	-0.0001	5
22910	-9e-05	-0.00014	-0.00013	-0.00024	-0.00031	-0.00024	-0.00012	-0.0001	5
22911	-9e-05	-0.00014	-0.00013	-0.00024	-0.00031	-0.00024	-0.00012	-0.0001	5
22912	-9e-05	9e-05	0.00038	0.00037	0.0002	0.00019	0.0001	-1e-05	5
22913	-9e-05	9e-05	0.00038	0.00037	0.0002	0.00019	0.0001	-1e-05	5
22914	-9e-05	9e-05	0.00038	0.00037	0.0002	0.00019	0.0001	-1e-05	5
22915	-9e-05	9e-05	0.00038	0.00037	0.0002	0.00019	0.0001	-1e-05	5
22916	-9e-05	9e-05	0.00038	0.00037	0.0002	0.00019	0.0001	-1e-05	5
22917	-9e-05	9e-05	0.00038	0.00037	0.0002	0.00019	0.0001	-1e-05	5
22918	-9e-05	9e-05	0.00038	0.00037	0.0002	0.00019	0.0001	-1e-05	5
22919	-9e-05	9e-05	0.00038	0.00037	0.0002	0.00019	0.0001	-1e-05	5
22920	-9e-05	9e-05	0.00038	0.00037	0.0002	0.00019	0.0001	-1e-05	5
22921	-9e-05	-0.00014	-0.00021	-0.00018	-0.00023	-0.0003	-0.00019	-0.00013	5
22922	-9e-05	-0.00014	-0.00021	-0.00018	-0.00023	-0.0003	-0.00019	-0.00013	5
22923	-9e-05	-0.00014	-0.00021	-0.00018	-0.00023	-0.0003	-0.00019	-0.00013	5
22924	-9e-05	-0.00014	-0.00021	-0.00018	-0.00023	-0.0003	-0.00019	-0.00013	5
22925	-9e-05	-0.00014	-0.00021	-0.00018	-0.00023	-0.0003	-0.00019	-0.00013	5
22926	-9e-05	-0.00014	-0.00021	-0.00018	-0.00023	-0.0003	-0.00019	-0.00013	5
22927	-9e-05	-0.00014	-0.00021	-0.00018	-0.00023	-0.0003	-0.00019	-0.00013	5
22929	-9e-05	-0.00014	-0.00021	-0.00018	-0.00023	-0.0003	-0.00019	-0.00013	5
22931	-9e-05	-0.00014	-0.00021	-0.00018	-0.00023	-0.0003	-0.00019	-0.00013	5
22932	-9e-05	-0.00014	-0.00021	-0.00018	-0.00023	-0.0003	-0.00019	-0.00013	5
22933	-9e-05	-0.00014	-0.00021	-0.00018	-0.00023	-0.0003	-0.00019	-0.00013	5
22934	-9e-05	-0.00014	-0.00021	-0.00018	-0.00023	-0.0003	-0.00019	-0.00013	5
22935	-9e-05	-0.00014	-0.00021	-0.00018	-0.00023	-0.0003	-0.00019	-0.00013	5
22936	-9e-05	-0.00014	-0.00021	-0.00018	-0.00023	-0.0003	-0.00019	-0.00013	5
22938	-9e-05	-0.00014	-0.00021	-0.00018	-0.00023	-0.0003	-0.00019	-0.00013	5
22940	-9e-05	-0.00014	-0.00021	-0.00018	-0.00023	-0.0003	-0.00019	-0.00013	5
22941	-9e-05	-0.00014	-0.00021	-0.00018	-0.00023	-0.0003	-0.00019	-0.00013	5
22942	-9e-05	-0.00014	-0.00021	-0.00018	-0.00023	-0.0003	-0.00019	-0.00013	5
22943	-9e-05	-0.00014	-0.00021	-0.00018	-0.00023	-0.0003	-0.00019	-0.00013	5
22944	-9e-05	-0.00014	-0.00021	-0.00018	-0.00023	-0.0003	-0.00019	-0.00013	5
22945	0.00016	0.00021	0.00017	0.00015	-3e-05	-9e-05	-6e-05	5e-05	5
22946	-0.0001	-3e-05	2e-05	0.00071	0.00104	0.00029	6e-05	-6e-05	5
22947	3e-05	1e-05	-0.00013	-0.0004	-0.00012	0	3e-05	2e-05	5
22948	3e-05	1e-05	-0.00013	-0.0004	-0.00012	0	3e-05	2e-05	5
22949	3e-05	1e-05	-0.00013	-0.0004	-0.00012	0	3e-05	2e-05	5
22950	3e-05	1e-05	-0.00013	-0.0004	-0.00012	0	3e-05	2e-05	5
22951	3e-05	1e-05	-0.00013	-0.0004	-0.00012	0	3e-05	2e-05	5
22952	3e-05	1e-05	-0.00013	-0.0004	-0.00012	0	3e-05	2e-05	5
22953	3e-05	1e-05	-0.00013	-0.0004	-0.00012	0	3e-05	2e-05	5
22954	3e-05	1e-05	-0.00013	-0.0004	-0.00012	0	3e-05	2e-05	5
22955	3e-05	1e-05	-0.00013	-0.0004	-0.00012	0	3e-05	2e-05	5
22956	3e-05	1e-05	-0.00013	-0.0004	-0.00012	0	3e-05	2e-05	5
22957	3e-05	1e-05	-0.00013	-0.0004	-0.00012	0	3e-05	2e-05	5
22958	3e-05	1e-05	-0.00013	-0.0004	-0.00012	0	3e-05	2e-05	5
22959	3e-05	1e-05	-0.00013	-0.0004	-0.00012	0	3e-05	2e-05	5
22960	3e-05	1e-05	-0.00013	-0.0004	-0.00012	0	3e-05	2e-05	5
22961	3e-05	1e-05	-0.00013	-0.0004	-0.00012	0	3e-05	2e-05	5
22962	3e-05	1e-05	-0.00013	-0.0004	-0.00012	0	3e-05	2e-05	5
22963	3e-05	1e-05	-0.00013	-0.0004	-0.00012	0	3e-05	2e-05	5
22964	3e-05	1e-05	-0.00013	-0.0004	-0.00012	0	3e-05	2e-05	5
22965	3e-05	1e-05	-0.00013	-0.0004	-0.00012	0	3e-05	2e-05	5
22966	3e-05	1e-05	-0.00013	-0.0004	-0.00012	0	3e-05	2e-05	5
22967	3e-05	1e-05	-0.00013	-0.0004	-0.00012	0	3e-05	2e-05	5
22968	-5e-05	-7e-05	5e-05	0.00017	0.00023	0.0003	0.00011	6e-05	5
22969	5e-05	-6e-05	-3e-05	0.00023	0.00063	-1e-05	-6e-05	2e-05	5
22970	5e-05	-6e-05	-3e-05	0.00023	0.00063	-1e-05	-6e-05	2e-05	5
22971	5e-05	-6e-05	-3e-05	0.00023	0.00063	-1e-05	-6e-05	2e-05	5
22972	-0.00021	-0.00018	-0.00017	-0.00031	-0.00024	4e-05	0	-9e-05	5
22973	-0.00021	-0.00018	-0.00017	-0.00031	-0.00024	4e-05	0	-9e-05	5
22974	-0.00021	-0.00018	-0.00017	-0.00031	-0.00024	4e-05	0	-9e-05	5
22975	-0.00021	-0.00018	-0.00017	-0.00031	-0.00024	4e-05	0	-9e-05	5
22976	-0.00021	-0.00018	-0.00017	-0.00031	-0.00024	4e-05	0	-9e-05	5
22977	-0.00021	-0.00018	-0.00017	-0.00031	-0.00024	4e-05	0	-9e-05	5
22978	-0.00021	-0.00018	-0.00017	-0.00031	-0.00024	4e-05	0	-9e-05	5
22979	-0.00021	-0.00018	-0.00017	-0.00031	-0.00024	4e-05	0	-9e-05	5
22980	-0.00021	-0.00018	-0.00017	-0.00031	-0.00024	4e-05	0	-9e-05	5
22981	-0.00021	-0.00018	-0.00017	-0.00031	-0.00024	4e-05	0	-9e-05	5
22982	-0.00021	-0.00018	-0.00017	-0.00031	-0.00024	4e-05	0	-9e-05	5
22983	-0.00021	-0.00018	-0.00017	-0.00031	-0.00024	4e-05	0	-9e-05	5
22984	-0.00021	-0.00018	-0.00017	-0.00031	-0.00024	4e-05	0	-9e-05	5
22985	-0.00021	-0.00018	-0.00017	-0.00031	-0.00024	4e-05	0	-9e-05	5
22986	-0.00021	-0.00018	-0.00017	-0.00031	-0.00024	4e-05	0	-9e-05	5
22988	-0.00021	-0.00018	-0.00017	-0.00031	-0.00024	4e-05	0	-9e-05	5
22989	-0.00021	-0.00018	-0.00017	-0.00031	-0.00024	4e-05	0	-9e-05	5
22990	-0.00021	-0.00018	-0.00017	-0.00031	-0.00024	4e-05	0	-9e-05	5
22991	-0.00021	-0.00018	-0.00017	-0.00031	-0.00024	4e-05	0	-9e-05	5
22992	-0.00021	-0.00018	-0.00017	-0.00031	-0.00024	4e-05	0	-9e-05	5
22993	-0.00021	-0.00018	-0.00017	-0.00031	-0.00024	4e-05	0	-9e-05	5
22994	-0.00021	-0.00018	-0.00017	-0.00031	-0.00024	4e-05	0	-9e-05	5
22995	-0.00021	-0.00018	-0.00017	-0.00031	-0.00024	4e-05	0	-9e-05	5
22996	-4e-05	-0.00013	-0.00029	-0.00021	6e-05	-0.00014	-6e-05	-6e-05	5
22997	-4e-05	-0.00013	-0.00029	-0.00021	6e-05	-0.00014	-6e-05	-6e-05	5
22998	3e-05	0.00013	-1e-05	-0.00031	-0.00037	-0.00012	-6e-05	1e-05	5
22999	3e-05	0.00013	-1e-05	-0.00031	-0.00037	-0.00012	-6e-05	1e-05	5
23000	3e-05	0.00013	-1e-05	-0.00031	-0.00037	-0.00012	-6e-05	1e-05	5
23001	3e-05	0.00013	-1e-05	-0.00031	-0.00037	-0.00012	-6e-05	1e-05	5
23002	3e-05	0.00013	-1e-05	-0.00031	-0.00037	-0.00012	-6e-05	1e-05	5
23003	3e-05	0.00013	-1e-05	-0.00031	-0.00037	-0.00012	-6e-05	1e-05	5
23004	3e-05	0.00013	-1e-05	-0.00031	-0.00037	-0.00012	-6e-05	1e-05	5
23005	3e-05	0.00013	-1e-05	-0.00031	-0.00037	-0.00012	-6e-05	1e-05	5
23006	3e-05	0.00013	-1e-05	-0.00031	-0.00037	-0.00012	-6e-05	1e-05	5
23007	3e-05	0.00013	-1e-05	-0.00031	-0.00037	-0.00012	-6e-05	1e-05	5
23008	3e-05	0.00013	-1e-05	-0.00031	-0.00037	-0.00012	-6e-05	1e-05	5
23009	3e-05	0.00013	-1e-05	-0.00031	-0.00037	-0.00012	-6e-05	1e-05	5
23010	3e-05	0.00013	-1e-05	-0.00031	-0.00037	-0.00012	-6e-05	1e-05	5
23011	3e-05	0.00013	-1e-05	-0.00031	-0.00037	-0.00012	-6e-05	1e-05	5
23012	3e-05	0.00013	-1e-05	-0.00031	-0.00037	-0.00012	-6e-05	1e-05	5
23013	3e-05	0.00013	-1e-05	-0.00031	-0.00037	-0.00012	-6e-05	1e-05	5
23014	3e-05	0.00013	-1e-05	-0.00031	-0.00037	-0.00012	-6e-05	1e-05	5
23015	3e-05	0.00013	-1e-05	-0.00031	-0.00037	-0.00012	-6e-05	1e-05	5
23016	3e-05	0.00013	-1e-05	-0.00031	-0.00037	-0.00012	-6e-05	1e-05	5
23017	3e-05	0.00013	-1e-05	-0.00031	-0.00037	-0.00012	-6e-05	1e-05	5
23018	3e-05	-9e-05	0.00013	0.0003	0.0001	0.00011	-1e-05	-3e-05	5
23019	3e-05	-9e-05	0.00013	0.0003	0.0001	0.00011	-1e-05	-3e-05	5
23020	6e-05	6e-05	2e-05	-0.00031	-0.00032	-0.0002	1e-05	9e-05	5
23021	6e-05	6e-05	2e-05	-0.00031	-0.00032	-0.0002	1e-05	9e-05	5
23022	6e-05	6e-05	2e-05	-0.00031	-0.00032	-0.0002	1e-05	9e-05	5
23023	6e-05	6e-05	2e-05	-0.00031	-0.00032	-0.0002	1e-05	9e-05	5
23024	6e-05	6e-05	2e-05	-0.00031	-0.00032	-0.0002	1e-05	9e-05	5
23025	6e-05	6e-05	2e-05	-0.00031	-0.00032	-0.0002	1e-05	9e-05	5
23026	6e-05	6e-05	2e-05	-0.00031	-0.00032	-0.0002	1e-05	9e-05	5
23027	6e-05	6e-05	2e-05	-0.00031	-0.00032	-0.0002	1e-05	9e-05	5
23028	6e-05	6e-05	2e-05	-0.00031	-0.00032	-0.0002	1e-05	9e-05	5
23029	6e-05	6e-05	2e-05	-0.00031	-0.00032	-0.0002	1e-05	9e-05	5
23030	6e-05	6e-05	2e-05	-0.00031	-0.00032	-0.0002	1e-05	9e-05	5
23031	6e-05	6e-05	2e-05	-0.00031	-0.00032	-0.0002	1e-05	9e-05	5
23032	6e-05	6e-05	2e-05	-0.00031	-0.00032	-0.0002	1e-05	9e-05	5
23033	6e-05	6e-05	2e-05	-0.00031	-0.00032	-0.0002	1e-05	9e-05	5
23034	6e-05	6e-05	2e-05	-0.00031	-0.00032	-0.0002	1e-05	9e-05	5
23035	6e-05	6e-05	2e-05	-0.00031	-0.00032	-0.0002	1e-05	9e-05	5
23036	6e-05	6e-05	2e-05	-0.00031	-0.00032	-0.0002	1e-05	9e-05	5
23038	6e-05	6e-05	2e-05	-0.00031	-0.00032	-0.0002	1e-05	9e-05	5
23039	6e-05	6e-05	2e-05	-0.00031	-0.00032	-0.0002	1e-05	9e-05	5
23040	6e-05	6e-05	2e-05	-0.00031	-0.00032	-0.0002	1e-05	9e-05	5
23041	6e-05	6e-05	2e-05	-0.00031	-0.00032	-0.0002	1e-05	9e-05	5
23042	6e-05	6e-05	2e-05	-0.00031	-0.00032	-0.0002	1e-05	9e-05	5
23043	6e-05	6e-05	2e-05	-0.00031	-0.00032	-0.0002	1e-05	9e-05	5
23044	6e-05	6e-05	2e-05	-0.00031	-0.00032	-0.0002	1e-05	9e-05	5
23045	6e-05	6e-05	2e-05	-0.00031	-0.00032	-0.0002	1e-05	9e-05	5
23046	6e-05	6e-05	2e-05	-0.00031	-0.00032	-0.0002	1e-05	9e-05	5
23047	6e-05	6e-05	2e-05	-0.00031	-0.00032	-0.0002	1e-05	9e-05	5
23048	6e-05	6e-05	2e-05	-0.00031	-0.00032	-0.0002	1e-05	9e-05	5
23049	6e-05	6e-05	2e-05	-0.00031	-0.00032	-0.0002	1e-05	9e-05	5
23050	-4e-05	-4e-05	5e-05	-0.00016	-0.0003	8e-05	6e-05	0	5
23051	-8e-05	-6e-05	-8e-05	-0.00023	-3e-05	-2e-05	-2e-05	-6e-05	5
23052	-9e-05	-2e-05	0.00011	0.00018	1e-05	-0.00012	-4e-05	-1e-05	5
23053	-9e-05	-2e-05	0.00011	0.00018	1e-05	-0.00012	-4e-05	-1e-05	5
23054	-9e-05	-2e-05	0.00011	0.00018	1e-05	-0.00012	-4e-05	-1e-05	5
23055	-9e-05	-2e-05	0.00011	0.00018	1e-05	-0.00012	-4e-05	-1e-05	5
23056	-9e-05	-2e-05	0.00011	0.00018	1e-05	-0.00012	-4e-05	-1e-05	5
23057	-9e-05	-2e-05	0.00011	0.00018	1e-05	-0.00012	-4e-05	-1e-05	5
23058	-9e-05	-2e-05	0.00011	0.00018	1e-05	-0.00012	-4e-05	-1e-05	5
23059	-9e-05	-2e-05	0.00011	0.00018	1e-05	-0.00012	-4e-05	-1e-05	5
23060	-9e-05	-2e-05	0.00011	0.00018	1e-05	-0.00012	-4e-05	-1e-05	5
23061	-9e-05	-2e-05	0.00011	0.00018	1e-05	-0.00012	-4e-05	-1e-05	5
23062	-9e-05	-2e-05	0.00011	0.00018	1e-05	-0.00012	-4e-05	-1e-05	5
23063	-9e-05	-2e-05	0.00011	0.00018	1e-05	-0.00012	-4e-05	-1e-05	5
23064	-9e-05	-2e-05	0.00011	0.00018	1e-05	-0.00012	-4e-05	-1e-05	5
23065	-9e-05	-2e-05	0.00011	0.00018	1e-05	-0.00012	-4e-05	-1e-05	5
23066	-9e-05	-2e-05	0.00011	0.00018	1e-05	-0.00012	-4e-05	-1e-05	5
23067	-9e-05	-2e-05	0.00011	0.00018	1e-05	-0.00012	-4e-05	-1e-05	5
23068	-9e-05	-2e-05	0.00011	0.00018	1e-05	-0.00012	-4e-05	-1e-05	5
23069	-9e-05	-2e-05	0.00011	0.00018	1e-05	-0.00012	-4e-05	-1e-05	5
23071	-9e-05	-2e-05	0.00011	0.00018	1e-05	-0.00012	-4e-05	-1e-05	5
23072	-9e-05	-2e-05	0.00011	0.00018	1e-05	-0.00012	-4e-05	-1e-05	5
23073	0.00011	0.0001	0.00035	0.00093	0.00091	0.00033	0.00014	0.00014	5
23074	0	0.00017	0.0003	0.00027	0.00021	0.00018	4e-05	1e-05	5
23075	0	0.00017	0.0003	0.00027	0.00021	0.00018	4e-05	1e-05	5
23076	0	0.00017	0.0003	0.00027	0.00021	0.00018	4e-05	1e-05	5
23077	0	0.00017	0.0003	0.00027	0.00021	0.00018	4e-05	1e-05	5
23078	0	0.00017	0.0003	0.00027	0.00021	0.00018	4e-05	1e-05	5
23079	0	0.00017	0.0003	0.00027	0.00021	0.00018	4e-05	1e-05	5
23080	0	0.00017	0.0003	0.00027	0.00021	0.00018	4e-05	1e-05	5
23081	0	0.00017	0.0003	0.00027	0.00021	0.00018	4e-05	1e-05	5
23082	0	0.00017	0.0003	0.00027	0.00021	0.00018	4e-05	1e-05	5
23083	0	0.00017	0.0003	0.00027	0.00021	0.00018	4e-05	1e-05	5
23084	0	0.00017	0.0003	0.00027	0.00021	0.00018	4e-05	1e-05	5
23085	0	0.00017	0.0003	0.00027	0.00021	0.00018	4e-05	1e-05	5
23086	0	0.00017	0.0003	0.00027	0.00021	0.00018	4e-05	1e-05	5
23088	0	0.00017	0.0003	0.00027	0.00021	0.00018	4e-05	1e-05	5
23089	0	0.00017	0.0003	0.00027	0.00021	0.00018	4e-05	1e-05	5
23090	0	0.00017	0.0003	0.00027	0.00021	0.00018	4e-05	1e-05	5
23091	0	0.00017	0.0003	0.00027	0.00021	0.00018	4e-05	1e-05	5
23092	0	0.00017	0.0003	0.00027	0.00021	0.00018	4e-05	1e-05	5
23093	0	0.00017	0.0003	0.00027	0.00021	0.00018	4e-05	1e-05	5
23094	2e-05	-6e-05	-8e-05	-7e-05	-7e-05	-1e-05	-3e-05	-3e-05	5
23095	-1e-05	0.0001	0	0.0003	0.00025	0.0002	7e-05	-1e-05	5
23096	3e-05	-5e-05	-0.00021	-0.00025	-0.00041	-8e-05	-5e-05	-2e-05	5
23097	3e-05	-5e-05	-0.00021	-0.00025	-0.00041	-8e-05	-5e-05	-2e-05	5
23098	3e-05	-5e-05	-0.00021	-0.00025	-0.00041	-8e-05	-5e-05	-2e-05	5
23099	3e-05	-5e-05	-0.00021	-0.00025	-0.00041	-8e-05	-5e-05	-2e-05	5
23100	3e-05	-5e-05	-0.00021	-0.00025	-0.00041	-8e-05	-5e-05	-2e-05	5
23101	3e-05	-5e-05	-0.00021	-0.00025	-0.00041	-8e-05	-5e-05	-2e-05	5
23102	3e-05	-5e-05	-0.00021	-0.00025	-0.00041	-8e-05	-5e-05	-2e-05	5
23103	3e-05	-5e-05	-0.00021	-0.00025	-0.00041	-8e-05	-5e-05	-2e-05	5
23104	3e-05	-5e-05	-0.00021	-0.00025	-0.00041	-8e-05	-5e-05	-2e-05	5
23105	3e-05	-5e-05	-0.00021	-0.00025	-0.00041	-8e-05	-5e-05	-2e-05	5
23106	3e-05	-5e-05	-0.00021	-0.00025	-0.00041	-8e-05	-5e-05	-2e-05	5
23107	3e-05	-5e-05	-0.00021	-0.00025	-0.00041	-8e-05	-5e-05	-2e-05	5
23108	3e-05	-5e-05	-0.00021	-0.00025	-0.00041	-8e-05	-5e-05	-2e-05	5
23109	3e-05	-5e-05	-0.00021	-0.00025	-0.00041	-8e-05	-5e-05	-2e-05	5
23110	3e-05	-5e-05	-0.00021	-0.00025	-0.00041	-8e-05	-5e-05	-2e-05	5
23111	3e-05	-5e-05	-0.00021	-0.00025	-0.00041	-8e-05	-5e-05	-2e-05	5
23112	3e-05	-5e-05	-0.00021	-0.00025	-0.00041	-8e-05	-5e-05	-2e-05	5
23113	3e-05	-5e-05	-0.00021	-0.00025	-0.00041	-8e-05	-5e-05	-2e-05	5
23114	3e-05	-5e-05	-0.00021	-0.00025	-0.00041	-8e-05	-5e-05	-2e-05	5
23115	3e-05	-5e-05	-0.00021	-0.00025	-0.00041	-8e-05	-5e-05	-2e-05	5
23116	3e-05	-5e-05	-0.00021	-0.00025	-0.00041	-8e-05	-5e-05	-2e-05	5
23117	3e-05	-5e-05	-0.00021	-0.00025	-0.00041	-8e-05	-5e-05	-2e-05	5
23118	3e-05	-5e-05	-0.00021	-0.00025	-0.00041	-8e-05	-5e-05	-2e-05	5
23119	3e-05	-5e-05	-0.00021	-0.00025	-0.00041	-8e-05	-5e-05	-2e-05	5
23120	3e-05	-5e-05	-0.00021	-0.00025	-0.00041	-8e-05	-5e-05	-2e-05	5
23121	3e-05	-5e-05	-0.00021	-0.00025	-0.00041	-8e-05	-5e-05	-2e-05	5
23122	3e-05	-5e-05	-0.00021	-0.00025	-0.00041	-8e-05	-5e-05	-2e-05	5
23123	3e-05	-5e-05	-0.00021	-0.00025	-0.00041	-8e-05	-5e-05	-2e-05	5
23124	3e-05	-5e-05	-0.00021	-0.00025	-0.00041	-8e-05	-5e-05	-2e-05	5
23125	2e-05	4e-05	-2e-05	-0.00021	-0.00025	6e-05	1e-05	1e-05	5
23126	2e-05	4e-05	-2e-05	-0.00021	-0.00025	6e-05	1e-05	1e-05	5
23127	5e-05	-2e-05	-0.00016	4e-05	0.00022	-1e-05	0	8e-05	5
23128	5e-05	-2e-05	-0.00016	4e-05	0.00022	-1e-05	0	8e-05	5
23129	5e-05	-2e-05	-0.00016	4e-05	0.00022	-1e-05	0	8e-05	5
23130	5e-05	-2e-05	-0.00016	4e-05	0.00022	-1e-05	0	8e-05	5
23131	5e-05	-2e-05	-0.00016	4e-05	0.00022	-1e-05	0	8e-05	5
23132	5e-05	-2e-05	-0.00016	4e-05	0.00022	-1e-05	0	8e-05	5
23133	5e-05	-2e-05	-0.00016	4e-05	0.00022	-1e-05	0	8e-05	5
23134	5e-05	-2e-05	-0.00016	4e-05	0.00022	-1e-05	0	8e-05	5
23135	5e-05	-2e-05	-0.00016	4e-05	0.00022	-1e-05	0	8e-05	5
23136	5e-05	-2e-05	-0.00016	4e-05	0.00022	-1e-05	0	8e-05	5
23138	5e-05	-2e-05	-0.00016	4e-05	0.00022	-1e-05	0	8e-05	5
23139	5e-05	-2e-05	-0.00016	4e-05	0.00022	-1e-05	0	8e-05	5
23140	5e-05	-2e-05	-0.00016	4e-05	0.00022	-1e-05	0	8e-05	5
23141	5e-05	-2e-05	-0.00016	4e-05	0.00022	-1e-05	0	8e-05	5
23142	5e-05	-2e-05	-0.00016	4e-05	0.00022	-1e-05	0	8e-05	5
23143	5e-05	-2e-05	-0.00016	4e-05	0.00022	-1e-05	0	8e-05	5
23144	5e-05	-2e-05	-0.00016	4e-05	0.00022	-1e-05	0	8e-05	5
23145	5e-05	-2e-05	-0.00016	4e-05	0.00022	-1e-05	0	8e-05	5
23146	5e-05	-2e-05	-0.00016	4e-05	0.00022	-1e-05	0	8e-05	5
23147	5e-05	-2e-05	-0.00016	4e-05	0.00022	-1e-05	0	8e-05	5
23148	1e-05	0.00012	0.00028	0.00069	0.00061	0.00019	5e-05	0	5
23149	8e-05	7e-05	-4e-05	-7e-05	-2e-05	0.00019	0.00014	6e-05	5
23150	8e-05	7e-05	-4e-05	-7e-05	-2e-05	0.00019	0.00014	6e-05	5
23151	8e-05	7e-05	-4e-05	-7e-05	-2e-05	0.00019	0.00014	6e-05	5
23152	8e-05	7e-05	-4e-05	-7e-05	-2e-05	0.00019	0.00014	6e-05	5
23153	8e-05	7e-05	-4e-05	-7e-05	-2e-05	0.00019	0.00014	6e-05	5
23154	8e-05	7e-05	-4e-05	-7e-05	-2e-05	0.00019	0.00014	6e-05	5
23155	8e-05	7e-05	-4e-05	-7e-05	-2e-05	0.00019	0.00014	6e-05	5
23156	8e-05	7e-05	-4e-05	-7e-05	-2e-05	0.00019	0.00014	6e-05	5
23157	8e-05	7e-05	-4e-05	-7e-05	-2e-05	0.00019	0.00014	6e-05	5
23158	8e-05	7e-05	-4e-05	-7e-05	-2e-05	0.00019	0.00014	6e-05	5
23159	8e-05	7e-05	-4e-05	-7e-05	-2e-05	0.00019	0.00014	6e-05	5
23160	8e-05	7e-05	-4e-05	-7e-05	-2e-05	0.00019	0.00014	6e-05	5
23161	8e-05	7e-05	-4e-05	-7e-05	-2e-05	0.00019	0.00014	6e-05	5
23162	8e-05	7e-05	-4e-05	-7e-05	-2e-05	0.00019	0.00014	6e-05	5
23163	8e-05	7e-05	-4e-05	-7e-05	-2e-05	0.00019	0.00014	6e-05	5
23164	8e-05	7e-05	-4e-05	-7e-05	-2e-05	0.00019	0.00014	6e-05	5
23165	8e-05	7e-05	-4e-05	-7e-05	-2e-05	0.00019	0.00014	6e-05	5
23166	8e-05	7e-05	-4e-05	-7e-05	-2e-05	0.00019	0.00014	6e-05	5
23167	8e-05	7e-05	-4e-05	-7e-05	-2e-05	0.00019	0.00014	6e-05	5
23168	8e-05	7e-05	-4e-05	-7e-05	-2e-05	0.00019	0.00014	6e-05	5
23169	0	-4e-05	-8e-05	-0.00016	-0.00017	-0.00021	-9e-05	-2e-05	5
23170	-0.0001	-0.0001	-0.00015	-0.00046	-0.00031	-0.00014	-5e-05	-8e-05	5
23171	5e-05	6e-05	-0.00021	-0.00041	-0.00032	-7e-05	-3e-05	3e-05	5
23172	5e-05	6e-05	-0.00021	-0.00041	-0.00032	-7e-05	-3e-05	3e-05	5
23173	5e-05	6e-05	-0.00021	-0.00041	-0.00032	-7e-05	-3e-05	3e-05	5
23174	5e-05	6e-05	-0.00021	-0.00041	-0.00032	-7e-05	-3e-05	3e-05	5
23175	5e-05	6e-05	-0.00021	-0.00041	-0.00032	-7e-05	-3e-05	3e-05	5
23176	5e-05	6e-05	-0.00021	-0.00041	-0.00032	-7e-05	-3e-05	3e-05	5
23177	5e-05	6e-05	-0.00021	-0.00041	-0.00032	-7e-05	-3e-05	3e-05	5
23178	5e-05	6e-05	-0.00021	-0.00041	-0.00032	-7e-05	-3e-05	3e-05	5
23179	5e-05	6e-05	-0.00021	-0.00041	-0.00032	-7e-05	-3e-05	3e-05	5
23180	5e-05	6e-05	-0.00021	-0.00041	-0.00032	-7e-05	-3e-05	3e-05	5
23181	5e-05	6e-05	-0.00021	-0.00041	-0.00032	-7e-05	-3e-05	3e-05	5
23182	5e-05	6e-05	-0.00021	-0.00041	-0.00032	-7e-05	-3e-05	3e-05	5
23183	-7e-05	-6e-05	5e-05	-0.00032	-0.00034	-0.00025	-0.00015	-3e-05	5
23184	-7e-05	-6e-05	5e-05	-0.00032	-0.00034	-0.00025	-0.00015	-3e-05	5
23185	-7e-05	-6e-05	5e-05	-0.00032	-0.00034	-0.00025	-0.00015	-3e-05	5
23186	-7e-05	-6e-05	5e-05	-0.00032	-0.00034	-0.00025	-0.00015	-3e-05	5
23188	-7e-05	-6e-05	5e-05	-0.00032	-0.00034	-0.00025	-0.00015	-3e-05	5
23189	-7e-05	-6e-05	5e-05	-0.00032	-0.00034	-0.00025	-0.00015	-3e-05	5
23190	-7e-05	-6e-05	5e-05	-0.00032	-0.00034	-0.00025	-0.00015	-3e-05	5
23191	-7e-05	-6e-05	5e-05	-0.00032	-0.00034	-0.00025	-0.00015	-3e-05	5
23192	-7e-05	-6e-05	5e-05	-0.00032	-0.00034	-0.00025	-0.00015	-3e-05	5
23193	-7e-05	-6e-05	5e-05	-0.00032	-0.00034	-0.00025	-0.00015	-3e-05	5
23194	-7e-05	-6e-05	5e-05	-0.00032	-0.00034	-0.00025	-0.00015	-3e-05	5
23195	-7e-05	-6e-05	5e-05	-0.00032	-0.00034	-0.00025	-0.00015	-3e-05	5
23196	-7e-05	-6e-05	5e-05	-0.00032	-0.00034	-0.00025	-0.00015	-3e-05	5
23197	-3e-05	-7e-05	-0.00013	-0.00011	-0.00032	-0.00016	-6e-05	-8e-05	5
23198	-3e-05	-7e-05	-0.00013	-0.00011	-0.00032	-0.00016	-6e-05	-8e-05	5
23199	-3e-05	-7e-05	-0.00013	-0.00011	-0.00032	-0.00016	-6e-05	-8e-05	5
23200	-3e-05	-7e-05	-0.00013	-0.00011	-0.00032	-0.00016	-6e-05	-8e-05	5
23201	-3e-05	-7e-05	-0.00013	-0.00011	-0.00032	-0.00016	-6e-05	-8e-05	5
23202	-3e-05	-7e-05	-0.00013	-0.00011	-0.00032	-0.00016	-6e-05	-8e-05	5
23203	-3e-05	-7e-05	-0.00013	-0.00011	-0.00032	-0.00016	-6e-05	-8e-05	5
23204	-3e-05	-7e-05	-0.00013	-0.00011	-0.00032	-0.00016	-6e-05	-8e-05	5
23205	-3e-05	-7e-05	-0.00013	-0.00011	-0.00032	-0.00016	-6e-05	-8e-05	5
23206	-3e-05	-7e-05	-0.00013	-0.00011	-0.00032	-0.00016	-6e-05	-8e-05	5
23207	-3e-05	-7e-05	-0.00013	-0.00011	-0.00032	-0.00016	-6e-05	-8e-05	5
23208	-3e-05	-7e-05	-0.00013	-0.00011	-0.00032	-0.00016	-6e-05	-8e-05	5
23209	-3e-05	-7e-05	-0.00013	-0.00011	-0.00032	-0.00016	-6e-05	-8e-05	5
23210	-3e-05	-7e-05	-0.00013	-0.00011	-0.00032	-0.00016	-6e-05	-8e-05	5
23211	-3e-05	-7e-05	-0.00013	-0.00011	-0.00032	-0.00016	-6e-05	-8e-05	5
23212	-3e-05	-7e-05	-0.00013	-0.00011	-0.00032	-0.00016	-6e-05	-8e-05	5
23213	2e-05	-8e-05	-0.00016	-9e-05	-0.00013	-2e-05	-3e-05	0	5
23214	2e-05	-8e-05	-0.00016	-9e-05	-0.00013	-2e-05	-3e-05	0	5
23215	3e-05	-8e-05	-5e-05	3e-05	3e-05	5e-05	4e-05	5e-05	5
23216	3e-05	-8e-05	-5e-05	3e-05	3e-05	5e-05	4e-05	5e-05	5
23217	3e-05	-8e-05	-5e-05	3e-05	3e-05	5e-05	4e-05	5e-05	5
23218	3e-05	-8e-05	-5e-05	3e-05	3e-05	5e-05	4e-05	5e-05	5
23219	3e-05	-8e-05	-5e-05	3e-05	3e-05	5e-05	4e-05	5e-05	5
23220	3e-05	-8e-05	-5e-05	3e-05	3e-05	5e-05	4e-05	5e-05	5
23221	3e-05	-8e-05	-5e-05	3e-05	3e-05	5e-05	4e-05	5e-05	5
23222	3e-05	-8e-05	-5e-05	3e-05	3e-05	5e-05	4e-05	5e-05	5
23223	3e-05	-8e-05	-5e-05	3e-05	3e-05	5e-05	4e-05	5e-05	5
23224	3e-05	-8e-05	-5e-05	3e-05	3e-05	5e-05	4e-05	5e-05	5
23225	3e-05	-8e-05	-5e-05	3e-05	3e-05	5e-05	4e-05	5e-05	5
23226	3e-05	-8e-05	-5e-05	3e-05	3e-05	5e-05	4e-05	5e-05	5
23227	3e-05	-8e-05	-5e-05	3e-05	3e-05	5e-05	4e-05	5e-05	5
23228	3e-05	-8e-05	-5e-05	3e-05	3e-05	5e-05	4e-05	5e-05	5
23229	3e-05	-8e-05	-5e-05	3e-05	3e-05	5e-05	4e-05	5e-05	5
23230	3e-05	-8e-05	-5e-05	3e-05	3e-05	5e-05	4e-05	5e-05	5
23231	3e-05	-8e-05	-5e-05	3e-05	3e-05	5e-05	4e-05	5e-05	5
23232	3e-05	-8e-05	-5e-05	3e-05	3e-05	5e-05	4e-05	5e-05	5
23233	3e-05	-8e-05	-5e-05	3e-05	3e-05	5e-05	4e-05	5e-05	5
23234	3e-05	-8e-05	-5e-05	3e-05	3e-05	5e-05	4e-05	5e-05	5
23235	3e-05	-8e-05	-5e-05	3e-05	3e-05	5e-05	4e-05	5e-05	5
23236	6e-05	0.00012	0.0001	0.0003	0.00017	0.00018	6e-05	2e-05	5
23238	-8e-05	-4e-05	-0.00016	-0.00049	-0.00052	-1e-05	4e-05	0	5
23239	-8e-05	-4e-05	-0.00016	-0.00049	-0.00052	-1e-05	4e-05	0	5
23240	-8e-05	-4e-05	-0.00016	-0.00049	-0.00052	-1e-05	4e-05	0	5
23242	-1e-05	5e-05	2e-05	-7e-05	-0.00014	-0.00014	-8e-05	-5e-05	5
23243	-1e-05	5e-05	2e-05	-7e-05	-0.00014	-0.00014	-8e-05	-5e-05	5
23244	-1e-05	5e-05	2e-05	-7e-05	-0.00014	-0.00014	-8e-05	-5e-05	5
23245	-1e-05	5e-05	2e-05	-7e-05	-0.00014	-0.00014	-8e-05	-5e-05	5
23246	-1e-05	5e-05	2e-05	-7e-05	-0.00014	-0.00014	-8e-05	-5e-05	5
23247	-1e-05	5e-05	2e-05	-7e-05	-0.00014	-0.00014	-8e-05	-5e-05	5
23248	-1e-05	5e-05	2e-05	-7e-05	-0.00014	-0.00014	-8e-05	-5e-05	5
23249	-1e-05	5e-05	2e-05	-7e-05	-0.00014	-0.00014	-8e-05	-5e-05	5
23250	-1e-05	5e-05	2e-05	-7e-05	-0.00014	-0.00014	-8e-05	-5e-05	5
23251	2e-05	-1e-05	0	-0.00022	-0.00054	-0.00014	-2e-05	4e-05	5
23252	2e-05	-1e-05	0	-0.00022	-0.00054	-0.00014	-2e-05	4e-05	5
23253	2e-05	-1e-05	0	-0.00022	-0.00054	-0.00014	-2e-05	4e-05	5
23254	2e-05	-1e-05	0	-0.00022	-0.00054	-0.00014	-2e-05	4e-05	5
23255	2e-05	-1e-05	0	-0.00022	-0.00054	-0.00014	-2e-05	4e-05	5
23256	2e-05	-1e-05	0	-0.00022	-0.00054	-0.00014	-2e-05	4e-05	5
23257	2e-05	-1e-05	0	-0.00022	-0.00054	-0.00014	-2e-05	4e-05	5
23258	2e-05	-1e-05	0	-0.00022	-0.00054	-0.00014	-2e-05	4e-05	5
23259	2e-05	-1e-05	0	-0.00022	-0.00054	-0.00014	-2e-05	4e-05	5
23260	2e-05	-1e-05	0	-0.00022	-0.00054	-0.00014	-2e-05	4e-05	5
23261	2e-05	-1e-05	0	-0.00022	-0.00054	-0.00014	-2e-05	4e-05	5
23262	2e-05	-1e-05	0	-0.00022	-0.00054	-0.00014	-2e-05	4e-05	5
23263	2e-05	-1e-05	0	-0.00022	-0.00054	-0.00014	-2e-05	4e-05	5
23264	2e-05	-1e-05	0	-0.00022	-0.00054	-0.00014	-2e-05	4e-05	5
23265	3e-05	2e-05	-6e-05	0.00017	0.00024	-3e-05	-3e-05	1e-05	5
23266	-0.00015	-0.00013	-0.00013	-7e-05	5e-05	-0.00011	-3e-05	-8e-05	5
23267	-0.00015	-0.00013	-0.00013	-7e-05	5e-05	-0.00011	-3e-05	-8e-05	5
23268	-0.00015	-0.00013	-0.00013	-7e-05	5e-05	-0.00011	-3e-05	-8e-05	5
23269	-0.00015	-0.00013	-0.00013	-7e-05	5e-05	-0.00011	-3e-05	-8e-05	5
23270	-0.00015	-0.00013	-0.00013	-7e-05	5e-05	-0.00011	-3e-05	-8e-05	5
23271	-0.00015	-0.00013	-0.00013	-7e-05	5e-05	-0.00011	-3e-05	-8e-05	5
23272	-0.00015	-0.00013	-0.00013	-7e-05	5e-05	-0.00011	-3e-05	-8e-05	5
23273	-0.00016	-0.00017	-0.00023	-0.00049	-0.00014	-0.0002	-0.0001	-2e-05	5
23274	-0.00016	-0.00017	-0.00023	-0.00049	-0.00014	-0.0002	-0.0001	-2e-05	5
23275	-0.00016	-0.00017	-0.00023	-0.00049	-0.00014	-0.0002	-0.0001	-2e-05	5
23276	-0.00016	-0.00017	-0.00023	-0.00049	-0.00014	-0.0002	-0.0001	-2e-05	5
23277	-0.00016	-0.00017	-0.00023	-0.00049	-0.00014	-0.0002	-0.0001	-2e-05	5
23278	-0.00016	-0.00017	-0.00023	-0.00049	-0.00014	-0.0002	-0.0001	-2e-05	5
23279	-0.00016	-0.00017	-0.00023	-0.00049	-0.00014	-0.0002	-0.0001	-2e-05	5
23280	-0.00016	-0.00017	-0.00023	-0.00049	-0.00014	-0.0002	-0.0001	-2e-05	5
23281	-0.00016	-0.00017	-0.00023	-0.00049	-0.00014	-0.0002	-0.0001	-2e-05	5
23282	-0.00016	-0.00017	-0.00023	-0.00049	-0.00014	-0.0002	-0.0001	-2e-05	5
23283	-0.00016	-0.00017	-0.00023	-0.00049	-0.00014	-0.0002	-0.0001	-2e-05	5
23284	-0.00016	-0.00017	-0.00023	-0.00049	-0.00014	-0.0002	-0.0001	-2e-05	5
23285	-0.00016	-0.00017	-0.00023	-0.00049	-0.00014	-0.0002	-0.0001	-2e-05	5
23286	-0.00016	-0.00017	-0.00023	-0.00049	-0.00014	-0.0002	-0.0001	-2e-05	5
23289	5e-05	0.00015	0.00018	0.00018	0.00016	-2e-05	3e-05	-2e-05	5
23290	-5e-05	-7e-05	9e-05	5e-05	-5e-05	-0.00018	-0.0001	-6e-05	5
23291	-5e-05	-7e-05	9e-05	5e-05	-5e-05	-0.00018	-0.0001	-6e-05	5
23292	-5e-05	-7e-05	9e-05	5e-05	-5e-05	-0.00018	-0.0001	-6e-05	5
23293	-5e-05	-7e-05	9e-05	5e-05	-5e-05	-0.00018	-0.0001	-6e-05	5
23294	-5e-05	-7e-05	9e-05	5e-05	-5e-05	-0.00018	-0.0001	-6e-05	5
23295	-5e-05	-7e-05	9e-05	5e-05	-5e-05	-0.00018	-0.0001	-6e-05	5
23296	-5e-05	-7e-05	9e-05	5e-05	-5e-05	-0.00018	-0.0001	-6e-05	5
23297	-5e-05	-7e-05	9e-05	5e-05	-5e-05	-0.00018	-0.0001	-6e-05	5
23298	-5e-05	-7e-05	9e-05	5e-05	-5e-05	-0.00018	-0.0001	-6e-05	5
23299	-5e-05	-7e-05	9e-05	5e-05	-5e-05	-0.00018	-0.0001	-6e-05	5
23300	-5e-05	-7e-05	9e-05	5e-05	-5e-05	-0.00018	-0.0001	-6e-05	5
23301	-5e-05	-7e-05	9e-05	5e-05	-5e-05	-0.00018	-0.0001	-6e-05	5
23302	-5e-05	-7e-05	9e-05	5e-05	-5e-05	-0.00018	-0.0001	-6e-05	5
23303	-5e-05	-7e-05	9e-05	5e-05	-5e-05	-0.00018	-0.0001	-6e-05	5
23304	-5e-05	-7e-05	9e-05	5e-05	-5e-05	-0.00018	-0.0001	-6e-05	5
23305	-5e-05	-7e-05	9e-05	5e-05	-5e-05	-0.00018	-0.0001	-6e-05	5
23306	-5e-05	-7e-05	9e-05	5e-05	-5e-05	-0.00018	-0.0001	-6e-05	5
23307	-5e-05	-7e-05	9e-05	5e-05	-5e-05	-0.00018	-0.0001	-6e-05	5
23308	-5e-05	-7e-05	9e-05	5e-05	-5e-05	-0.00018	-0.0001	-6e-05	5
23309	-5e-05	-7e-05	9e-05	5e-05	-5e-05	-0.00018	-0.0001	-6e-05	5
23310	-5e-05	-7e-05	9e-05	5e-05	-5e-05	-0.00018	-0.0001	-6e-05	5
23311	4e-05	-4e-05	6e-05	0.00025	0.00039	0.00032	6e-05	7e-05	5
23312	-1e-05	1e-05	6e-05	0.0005	0.00064	0.00025	3e-05	-2e-05	5
23313	-1e-05	1e-05	6e-05	0.0005	0.00064	0.00025	3e-05	-2e-05	5
23314	-1e-05	1e-05	6e-05	0.0005	0.00064	0.00025	3e-05	-2e-05	5
23315	-1e-05	1e-05	6e-05	0.0005	0.00064	0.00025	3e-05	-2e-05	5
23316	-1e-05	1e-05	6e-05	0.0005	0.00064	0.00025	3e-05	-2e-05	5
23317	-1e-05	1e-05	6e-05	0.0005	0.00064	0.00025	3e-05	-2e-05	5
23318	-1e-05	1e-05	6e-05	0.0005	0.00064	0.00025	3e-05	-2e-05	5
23319	-1e-05	1e-05	6e-05	0.0005	0.00064	0.00025	3e-05	-2e-05	5
23320	-1e-05	1e-05	6e-05	0.0005	0.00064	0.00025	3e-05	-2e-05	5
23321	-1e-05	1e-05	6e-05	0.0005	0.00064	0.00025	3e-05	-2e-05	5
23322	-1e-05	1e-05	6e-05	0.0005	0.00064	0.00025	3e-05	-2e-05	5
23323	-1e-05	1e-05	6e-05	0.0005	0.00064	0.00025	3e-05	-2e-05	5
23324	-1e-05	1e-05	6e-05	0.0005	0.00064	0.00025	3e-05	-2e-05	5
23325	-1e-05	1e-05	6e-05	0.0005	0.00064	0.00025	3e-05	-2e-05	5
23326	0.0001	-1e-05	-4e-05	5e-05	-0.00012	5e-05	2e-05	4e-05	5
23327	-1e-05	-0.00015	-0.00016	0.00023	0.00029	0.00011	0.0001	3e-05	5
23328	-1e-05	-0.00015	-0.00016	0.00023	0.00029	0.00011	0.0001	3e-05	5
23329	-1e-05	-0.00015	-0.00016	0.00023	0.00029	0.00011	0.0001	3e-05	5
23330	-1e-05	-0.00015	-0.00016	0.00023	0.00029	0.00011	0.0001	3e-05	5
23331	-1e-05	-0.00015	-0.00016	0.00023	0.00029	0.00011	0.0001	3e-05	5
23332	-1e-05	-0.00015	-0.00016	0.00023	0.00029	0.00011	0.0001	3e-05	5
23333	-1e-05	-0.00015	-0.00016	0.00023	0.00029	0.00011	0.0001	3e-05	5
23334	-1e-05	-0.00015	-0.00016	0.00023	0.00029	0.00011	0.0001	3e-05	5
23335	-1e-05	-0.00015	-0.00016	0.00023	0.00029	0.00011	0.0001	3e-05	5
23336	-1e-05	-0.00015	-0.00016	0.00023	0.00029	0.00011	0.0001	3e-05	5
23338	-1e-05	-0.00015	-0.00016	0.00023	0.00029	0.00011	0.0001	3e-05	5
23339	-1e-05	-0.00015	-0.00016	0.00023	0.00029	0.00011	0.0001	3e-05	5
23340	-1e-05	-0.00015	-0.00016	0.00023	0.00029	0.00011	0.0001	3e-05	5
23341	-1e-05	-0.00015	-0.00016	0.00023	0.00029	0.00011	0.0001	3e-05	5
23342	-1e-05	-0.00015	-0.00016	0.00023	0.00029	0.00011	0.0001	3e-05	5
23343	-1e-05	-0.00015	-0.00016	0.00023	0.00029	0.00011	0.0001	3e-05	5
23344	-1e-05	-0.00015	-0.00016	0.00023	0.00029	0.00011	0.0001	3e-05	5
23345	-1e-05	-0.00015	-0.00016	0.00023	0.00029	0.00011	0.0001	3e-05	5
23346	-1e-05	-0.00015	-0.00016	0.00023	0.00029	0.00011	0.0001	3e-05	5
23347	-1e-05	-0.00015	-0.00016	0.00023	0.00029	0.00011	0.0001	3e-05	5
23348	-1e-05	-0.00015	-0.00016	0.00023	0.00029	0.00011	0.0001	3e-05	5
23349	-5e-05	3e-05	-3e-05	-7e-05	-7e-05	-0.00014	-5e-05	-2e-05	5
23350	-1e-05	7e-05	-0.0002	-0.00049	-0.00044	-0.00013	-0.0001	-9e-05	5
23351	-1e-05	7e-05	-0.0002	-0.00049	-0.00044	-0.00013	-0.0001	-9e-05	5
23352	-1e-05	7e-05	-0.0002	-0.00049	-0.00044	-0.00013	-0.0001	-9e-05	5
23353	-1e-05	7e-05	-0.0002	-0.00049	-0.00044	-0.00013	-0.0001	-9e-05	5
23354	-1e-05	7e-05	-0.0002	-0.00049	-0.00044	-0.00013	-0.0001	-9e-05	5
23355	-1e-05	7e-05	-0.0002	-0.00049	-0.00044	-0.00013	-0.0001	-9e-05	5
23356	-1e-05	7e-05	-0.0002	-0.00049	-0.00044	-0.00013	-0.0001	-9e-05	5
23357	-1e-05	7e-05	-0.0002	-0.00049	-0.00044	-0.00013	-0.0001	-9e-05	5
23358	-1e-05	7e-05	-0.0002	-0.00049	-0.00044	-0.00013	-0.0001	-9e-05	5
23359	-1e-05	7e-05	-0.0002	-0.00049	-0.00044	-0.00013	-0.0001	-9e-05	5
23360	-1e-05	7e-05	-0.0002	-0.00049	-0.00044	-0.00013	-0.0001	-9e-05	5
23361	-1e-05	7e-05	-0.0002	-0.00049	-0.00044	-0.00013	-0.0001	-9e-05	5
23362	-1e-05	7e-05	-0.0002	-0.00049	-0.00044	-0.00013	-0.0001	-9e-05	5
23363	-1e-05	7e-05	-0.0002	-0.00049	-0.00044	-0.00013	-0.0001	-9e-05	5
23364	-1e-05	7e-05	-0.0002	-0.00049	-0.00044	-0.00013	-0.0001	-9e-05	5
23365	-1e-05	7e-05	-0.0002	-0.00049	-0.00044	-0.00013	-0.0001	-9e-05	5
23366	-1e-05	7e-05	-0.0002	-0.00049	-0.00044	-0.00013	-0.0001	-9e-05	5
23367	-1e-05	7e-05	-0.0002	-0.00049	-0.00044	-0.00013	-0.0001	-9e-05	5
23368	-1e-05	7e-05	-0.0002	-0.00049	-0.00044	-0.00013	-0.0001	-9e-05	5
23369	-1e-05	7e-05	-0.0002	-0.00049	-0.00044	-0.00013	-0.0001	-9e-05	5
23370	-1e-05	7e-05	-0.0002	-0.00049	-0.00044	-0.00013	-0.0001	-9e-05	5
23371	-0.00016	-0.00015	-0.00022	0.00012	0.00024	3e-05	0	-9e-05	5
23372	0	3e-05	0.00012	0.00013	0.00019	8e-05	3e-05	1e-05	5
23373	0	3e-05	0.00012	0.00013	0.00019	8e-05	3e-05	1e-05	5
23374	0	3e-05	0.00012	0.00013	0.00019	8e-05	3e-05	1e-05	5
23375	0	3e-05	0.00012	0.00013	0.00019	8e-05	3e-05	1e-05	5
23376	0	3e-05	0.00012	0.00013	0.00019	8e-05	3e-05	1e-05	5
23377	0	3e-05	0.00012	0.00013	0.00019	8e-05	3e-05	1e-05	5
23378	0	3e-05	0.00012	0.00013	0.00019	8e-05	3e-05	1e-05	5
23379	0	3e-05	0.00012	0.00013	0.00019	8e-05	3e-05	1e-05	5
23380	0	3e-05	0.00012	0.00013	0.00019	8e-05	3e-05	1e-05	5
23382	0	3e-05	0.00012	0.00013	0.00019	8e-05	3e-05	1e-05	5
23383	0	3e-05	0.00012	0.00013	0.00019	8e-05	3e-05	1e-05	5
23384	0	3e-05	0.00012	0.00013	0.00019	8e-05	3e-05	1e-05	5
23385	0	3e-05	0.00012	0.00013	0.00019	8e-05	3e-05	1e-05	5
23386	-1e-05	-0.00013	-7e-05	3e-05	-9e-05	0.00012	4e-05	5e-05	5
23388	-1e-05	1e-05	1e-05	0.00043	0.00054	0.00018	6e-05	-1e-05	5
23389	-1e-05	1e-05	1e-05	0.00043	0.00054	0.00018	6e-05	-1e-05	5
23390	-1e-05	1e-05	1e-05	0.00043	0.00054	0.00018	6e-05	-1e-05	5
23391	-1e-05	1e-05	1e-05	0.00043	0.00054	0.00018	6e-05	-1e-05	5
23392	-1e-05	1e-05	1e-05	0.00043	0.00054	0.00018	6e-05	-1e-05	5
23393	-1e-05	1e-05	1e-05	0.00043	0.00054	0.00018	6e-05	-1e-05	5
23394	-1e-05	1e-05	1e-05	0.00043	0.00054	0.00018	6e-05	-1e-05	5
23395	-1e-05	1e-05	1e-05	0.00043	0.00054	0.00018	6e-05	-1e-05	5
23396	-1e-05	1e-05	1e-05	0.00043	0.00054	0.00018	6e-05	-1e-05	5
23397	-1e-05	1e-05	1e-05	0.00043	0.00054	0.00018	6e-05	-1e-05	5
23398	-1e-05	1e-05	1e-05	0.00043	0.00054	0.00018	6e-05	-1e-05	5
23399	-1e-05	1e-05	1e-05	0.00043	0.00054	0.00018	6e-05	-1e-05	5
23400	-1e-05	1e-05	1e-05	0.00043	0.00054	0.00018	6e-05	-1e-05	5
23401	-1e-05	1e-05	1e-05	0.00043	0.00054	0.00018	6e-05	-1e-05	5
23402	-1e-05	1e-05	1e-05	0.00043	0.00054	0.00018	6e-05	-1e-05	5
23403	-1e-05	1e-05	1e-05	0.00043	0.00054	0.00018	6e-05	-1e-05	5
23404	-1e-05	1e-05	1e-05	0.00043	0.00054	0.00018	6e-05	-1e-05	5
23405	-1e-05	1e-05	1e-05	0.00043	0.00054	0.00018	6e-05	-1e-05	5
23406	-1e-05	1e-05	1e-05	0.00043	0.00054	0.00018	6e-05	-1e-05	5
23407	-1e-05	1e-05	1e-05	0.00043	0.00054	0.00018	6e-05	-1e-05	5
23408	7e-05	7e-05	0.00026	0.00039	0.00023	7e-05	3e-05	5e-05	5
23409	7e-05	7e-05	0.00026	0.00039	0.00023	7e-05	3e-05	5e-05	5
23410	5e-05	8e-05	0.00014	0.00022	0.00031	0.0001	0	0	5
23411	5e-05	8e-05	0.00014	0.00022	0.00031	0.0001	0	0	5
23412	5e-05	8e-05	0.00014	0.00022	0.00031	0.0001	0	0	5
52255	1e-05	0.0002	0.00037	0.00071	0.00061	0.00025	0.00011	3e-05	5
52256	1e-05	0.0002	0.00037	0.00071	0.00061	0.00025	0.00011	3e-05	5
52257	1e-05	0.0002	0.00037	0.00071	0.00061	0.00025	0.00011	3e-05	5
52258	1e-05	0.0002	0.00037	0.00071	0.00061	0.00025	0.00011	3e-05	5
52259	1e-05	0.0002	0.00037	0.00071	0.00061	0.00025	0.00011	3e-05	5
52260	1e-05	0.0002	0.00037	0.00071	0.00061	0.00025	0.00011	3e-05	5
52261	1e-05	0.0002	0.00037	0.00071	0.00061	0.00025	0.00011	3e-05	5
52262	7e-05	-0.00018	-0.00025	0.0001	4e-05	-0.00014	-0.00011	-1e-05	5
52263	7e-05	-0.00018	-0.00025	0.0001	4e-05	-0.00014	-0.00011	-1e-05	5
52264	7e-05	-0.00018	-0.00025	0.0001	4e-05	-0.00014	-0.00011	-1e-05	5
52265	7e-05	-0.00018	-0.00025	0.0001	4e-05	-0.00014	-0.00011	-1e-05	5
52266	7e-05	-0.00018	-0.00025	0.0001	4e-05	-0.00014	-0.00011	-1e-05	5
52267	7e-05	-0.00018	-0.00025	0.0001	4e-05	-0.00014	-0.00011	-1e-05	5
52268	7e-05	-0.00018	-0.00025	0.0001	4e-05	-0.00014	-0.00011	-1e-05	5
52269	7e-05	-0.00018	-0.00025	0.0001	4e-05	-0.00014	-0.00011	-1e-05	5
52270	7e-05	-0.00018	-0.00025	0.0001	4e-05	-0.00014	-0.00011	-1e-05	5
52271	7e-05	-0.00018	-0.00025	0.0001	4e-05	-0.00014	-0.00011	-1e-05	5
52272	7e-05	-0.00018	-0.00025	0.0001	4e-05	-0.00014	-0.00011	-1e-05	5
52273	7e-05	-0.00018	-0.00025	0.0001	4e-05	-0.00014	-0.00011	-1e-05	5
52274	7e-05	-0.00018	-0.00025	0.0001	4e-05	-0.00014	-0.00011	-1e-05	5
52275	7e-05	-0.00018	-0.00025	0.0001	4e-05	-0.00014	-0.00011	-1e-05	5
52276	7e-05	-0.00018	-0.00025	0.0001	4e-05	-0.00014	-0.00011	-1e-05	5
52277	7e-05	-0.00018	-0.00025	0.0001	4e-05	-0.00014	-0.00011	-1e-05	5
52278	7e-05	-0.00018	-0.00025	0.0001	4e-05	-0.00014	-0.00011	-1e-05	5
52279	7e-05	-0.00018	-0.00025	0.0001	4e-05	-0.00014	-0.00011	-1e-05	5
52280	7e-05	-0.00018	-0.00025	0.0001	4e-05	-0.00014	-0.00011	-1e-05	5
52281	7e-05	-0.00018	-0.00025	0.0001	4e-05	-0.00014	-0.00011	-1e-05	5
52282	7e-05	-0.00018	-0.00025	0.0001	4e-05	-0.00014	-0.00011	-1e-05	5
52283	7e-05	-0.00018	-0.00025	0.0001	4e-05	-0.00014	-0.00011	-1e-05	5
52284	-6e-05	-6e-05	-0.00011	-0.00024	-0.00038	-0.00018	-7e-05	-5e-05	5
52285	8e-05	0.0002	0.00031	-0.00034	-0.00052	-4e-05	2e-05	5e-05	5
52286	8e-05	0.0002	0.00031	-0.00034	-0.00052	-4e-05	2e-05	5e-05	5
52288	8e-05	0.0002	0.00031	-0.00034	-0.00052	-4e-05	2e-05	5e-05	5
52289	8e-05	0.0002	0.00031	-0.00034	-0.00052	-4e-05	2e-05	5e-05	5
52290	8e-05	0.0002	0.00031	-0.00034	-0.00052	-4e-05	2e-05	5e-05	5
52291	8e-05	0.0002	0.00031	-0.00034	-0.00052	-4e-05	2e-05	5e-05	5
52292	8e-05	0.0002	0.00031	-0.00034	-0.00052	-4e-05	2e-05	5e-05	5
52293	8e-05	0.0002	0.00031	-0.00034	-0.00052	-4e-05	2e-05	5e-05	5
52294	8e-05	0.0002	0.00031	-0.00034	-0.00052	-4e-05	2e-05	5e-05	5
52295	8e-05	0.0002	0.00031	-0.00034	-0.00052	-4e-05	2e-05	5e-05	5
52296	8e-05	0.0002	0.00031	-0.00034	-0.00052	-4e-05	2e-05	5e-05	5
52297	8e-05	0.0002	0.00031	-0.00034	-0.00052	-4e-05	2e-05	5e-05	5
52298	8e-05	0.0002	0.00031	-0.00034	-0.00052	-4e-05	2e-05	5e-05	5
52299	8e-05	0.0002	0.00031	-0.00034	-0.00052	-4e-05	2e-05	5e-05	5
52300	8e-05	0.0002	0.00031	-0.00034	-0.00052	-4e-05	2e-05	5e-05	5
52301	8e-05	0.0002	0.00031	-0.00034	-0.00052	-4e-05	2e-05	5e-05	5
52302	8e-05	0.0002	0.00031	-0.00034	-0.00052	-4e-05	2e-05	5e-05	5
52304	8e-05	0.0002	0.00031	-0.00034	-0.00052	-4e-05	2e-05	5e-05	5
52305	8e-05	0.0002	0.00031	-0.00034	-0.00052	-4e-05	2e-05	5e-05	5
52306	8e-05	0.0002	0.00031	-0.00034	-0.00052	-4e-05	2e-05	5e-05	5
52307	8e-05	0.0002	0.00031	-0.00034	-0.00052	-4e-05	2e-05	5e-05	5
52308	-0.0001	-0.00026	-0.0003	0.0003	0.00047	-0.00022	-0.00016	-9e-05	5
52309	-4e-05	1e-05	0	5e-05	0.00024	0.00012	7e-05	2e-05	5
52310	-4e-05	1e-05	0	5e-05	0.00024	0.00012	7e-05	2e-05	5
52311	-4e-05	1e-05	0	5e-05	0.00024	0.00012	7e-05	2e-05	5
52312	-4e-05	1e-05	0	5e-05	0.00024	0.00012	7e-05	2e-05	5
52313	-4e-05	1e-05	0	5e-05	0.00024	0.00012	7e-05	2e-05	5
52314	-4e-05	1e-05	0	5e-05	0.00024	0.00012	7e-05	2e-05	5
52315	-4e-05	1e-05	0	5e-05	0.00024	0.00012	7e-05	2e-05	5
52316	-4e-05	1e-05	0	5e-05	0.00024	0.00012	7e-05	2e-05	5
52317	-4e-05	1e-05	0	5e-05	0.00024	0.00012	7e-05	2e-05	5
52318	-4e-05	1e-05	0	5e-05	0.00024	0.00012	7e-05	2e-05	5
52319	-4e-05	1e-05	0	5e-05	0.00024	0.00012	7e-05	2e-05	5
52320	-4e-05	1e-05	0	5e-05	0.00024	0.00012	7e-05	2e-05	5
52321	0.0001	0.00011	0.00013	-0.00033	-0.00031	2e-05	6e-05	7e-05	5
52322	-2e-05	0.0001	0.00019	0.00034	0.00017	7e-05	0	1e-05	5
52323	-2e-05	0.0001	0.00019	0.00034	0.00017	7e-05	0	1e-05	5
52324	-2e-05	0.0001	0.00019	0.00034	0.00017	7e-05	0	1e-05	5
52325	-2e-05	0.0001	0.00019	0.00034	0.00017	7e-05	0	1e-05	5
52326	-2e-05	0.0001	0.00019	0.00034	0.00017	7e-05	0	1e-05	5
52327	-2e-05	0.0001	0.00019	0.00034	0.00017	7e-05	0	1e-05	5
52328	-2e-05	0.0001	0.00019	0.00034	0.00017	7e-05	0	1e-05	5
52329	-2e-05	0.0001	0.00019	0.00034	0.00017	7e-05	0	1e-05	5
52330	-2e-05	0.0001	0.00019	0.00034	0.00017	7e-05	0	1e-05	5
52331	-2e-05	0.0001	0.00019	0.00034	0.00017	7e-05	0	1e-05	5
52332	-2e-05	0.0001	0.00019	0.00034	0.00017	7e-05	0	1e-05	5
52333	-2e-05	0.0001	0.00019	0.00034	0.00017	7e-05	0	1e-05	5
52334	-2e-05	0.0001	0.00019	0.00034	0.00017	7e-05	0	1e-05	5
52335	-2e-05	0.0001	0.00019	0.00034	0.00017	7e-05	0	1e-05	5
52336	-2e-05	0.0001	0.00019	0.00034	0.00017	7e-05	0	1e-05	5
52339	-2e-05	0.0001	0.00019	0.00034	0.00017	7e-05	0	1e-05	5
52340	-2e-05	0.0001	0.00019	0.00034	0.00017	7e-05	0	1e-05	5
52341	-2e-05	0.0001	0.00019	0.00034	0.00017	7e-05	0	1e-05	5
52342	-2e-05	0.0001	0.00019	0.00034	0.00017	7e-05	0	1e-05	5
52343	-2e-05	0.0001	0.00019	0.00034	0.00017	7e-05	0	1e-05	5
52344	5e-05	-5e-05	-3e-05	1e-05	-0.00035	-0.00019	-0.00011	0	5
52345	5e-05	-5e-05	-3e-05	1e-05	-0.00035	-0.00019	-0.00011	0	5
52346	5e-05	-5e-05	-3e-05	1e-05	-0.00035	-0.00019	-0.00011	0	5
52347	5e-05	-5e-05	-3e-05	1e-05	-0.00035	-0.00019	-0.00011	0	5
52348	5e-05	-5e-05	-3e-05	1e-05	-0.00035	-0.00019	-0.00011	0	5
52349	5e-05	-5e-05	-3e-05	1e-05	-0.00035	-0.00019	-0.00011	0	5
52350	5e-05	-5e-05	-3e-05	1e-05	-0.00035	-0.00019	-0.00011	0	5
52351	-9e-05	1e-05	5e-05	-0.00032	-0.00022	-0.00017	-0.00015	-0.00012	5
