9628	-0.00022	-0.00014	0.00029	2e-05	5e-05	-0.00014	-0.0001	-0.00018	3
9629	-0.00022	-0.00014	0.00029	2e-05	5e-05	-0.00014	-0.0001	-0.00018	3
9630	-0.00022	-0.00014	0.00029	2e-05	5e-05	-0.00014	-0.0001	-0.00018	3
9631	-0.00022	-0.00014	0.00029	2e-05	5e-05	-0.00014	-0.0001	-0.00018	3
9632	-0.00022	-0.00014	0.00029	2e-05	5e-05	-0.00014	-0.0001	-0.00018	3
9633	-0.00022	-0.00014	0.00029	2e-05	5e-05	-0.00014	-0.0001	-0.00018	3
9634	-0.00022	-0.00014	0.00029	2e-05	5e-05	-0.00014	-0.0001	-0.00018	3
9635	-0.00022	-0.00014	0.00029	2e-05	5e-05	-0.00014	-0.0001	-0.00018	3
9636	-0.00022	-0.00014	0.00029	2e-05	5e-05	-0.00014	-0.0001	-0.00018	3
9638	-0.00022	-0.00014	0.00029	2e-05	5e-05	-0.00014	-0.0001	-0.00018	3
9639	-0.00023	-0.00011	-0.0002	-9e-05	-3e-05	0.00012	1e-05	-0.00016	3
9640	-1e-05	0.0002	0.00049	1e-05	-0.00027	-0.00014	-0.0001	-7e-05	3
9641	-1e-05	0.0002	0.00049	1e-05	-0.00027	-0.00014	-0.0001	-7e-05	3
9642	-1e-05	0.0002	0.00049	1e-05	-0.00027	-0.00014	-0.0001	-7e-05	3
9643	-1e-05	0.0002	0.00049	1e-05	-0.00027	-0.00014	-0.0001	-7e-05	3
9644	-1e-05	0.0002	0.00049	1e-05	-0.00027	-0.00014	-0.0001	-7e-05	3
9645	-1e-05	0.0002	0.00049	1e-05	-0.00027	-0.00014	-0.0001	-7e-05	3
9646	-1e-05	0.0002	0.00049	1e-05	-0.00027	-0.00014	-0.0001	-7e-05	3
9647	-1e-05	0.0002	0.00049	1e-05	-0.00027	-0.00014	-0.0001	-7e-05	3
9648	-1e-05	0.0002	0.00049	1e-05	-0.00027	-0.00014	-0.0001	-7e-05	3
9649	-1e-05	0.0002	0.00049	1e-05	-0.00027	-0.00014	-0.0001	-7e-05	3
9650	-1e-05	0.0002	0.00049	1e-05	-0.00027	-0.00014	-0.0001	-7e-05	3
9651	-1e-05	0.0002	0.00049	1e-05	-0.00027	-0.00014	-0.0001	-7e-05	3
9652	-1e-05	0.0002	0.00049	1e-05	-0.00027	-0.00014	-0.0001	-7e-05	3
9653	-1e-05	0.0002	0.00049	1e-05	-0.00027	-0.00014	-0.0001	-7e-05	3
9654	-1e-05	0.0002	0.00049	1e-05	-0.00027	-0.00014	-0.0001	-7e-05	3
9655	-1e-05	0.0002	0.00049	1e-05	-0.00027	-0.00014	-0.0001	-7e-05	3
9657	-1e-05	0.0002	0.00049	1e-05	-0.00027	-0.00014	-0.0001	-7e-05	3
9658	-1e-05	0.0002	0.00049	1e-05	-0.00027	-0.00014	-0.0001	-7e-05	3
9659	-1e-05	0.0002	0.00049	1e-05	-0.00027	-0.00014	-0.0001	-7e-05	3
9660	-1e-05	0.0002	0.00049	1e-05	-0.00027	-0.00014	-0.0001	-7e-05	3
9661	0.00037	4e-05	-2e-05	-3e-05	-6e-05	-0.00014	-8e-05	0.0001	3
9662	0.00037	4e-05	-2e-05	-3e-05	-6e-05	-0.00014	-8e-05	0.0001	3
9663	0.00014	0.00022	-0.00028	0.00017	0.00033	-2e-05	0.0001	0.00014	3
9664	0.00014	0.00022	-0.00028	0.00017	0.00033	-2e-05	0.0001	0.00014	3
9665	0.00014	0.00022	-0.00028	0.00017	0.00033	-2e-05	0.0001	0.00014	3
9666	0.00014	0.00022	-0.00028	0.00017	0.00033	-2e-05	0.0001	0.00014	3
9667	0.00014	0.00022	-0.00028	0.00017	0.00033	-2e-05	0.0001	0.00014	3
9668	0.00014	0.00022	-0.00028	0.00017	0.00033	-2e-05	0.0001	0.00014	3
9669	0.00014	0.00022	-0.00028	0.00017	0.00033	-2e-05	0.0001	0.00014	3
9670	0.00014	0.00022	-0.00028	0.00017	0.00033	-2e-05	0.0001	0.00014	3
9671	0.00014	0.00022	-0.00028	0.00017	0.00033	-2e-05	0.0001	0.00014	3
9672	0.00014	0.00022	-0.00028	0.00017	0.00033	-2e-05	0.0001	0.00014	3
9673	0.00014	0.00022	-0.00028	0.00017	0.00033	-2e-05	0.0001	0.00014	3
9674	0.00014	0.00022	-0.00028	0.00017	0.00033	-2e-05	0.0001	0.00014	3
9675	-0.00016	-7e-05	0	5e-05	3e-05	-0.00018	-0.00017	-0.0002	3
9676	-0.00016	-7e-05	0	5e-05	3e-05	-0.00018	-0.00017	-0.0002	3
9677	-0.00016	-7e-05	0	5e-05	3e-05	-0.00018	-0.00017	-0.0002	3
9678	-0.00016	-7e-05	0	5e-05	3e-05	-0.00018	-0.00017	-0.0002	3
9679	-0.00016	-7e-05	0	5e-05	3e-05	-0.00018	-0.00017	-0.0002	3
9680	-0.00016	-7e-05	0	5e-05	3e-05	-0.00018	-0.00017	-0.0002	3
9681	-0.00016	-7e-05	0	5e-05	3e-05	-0.00018	-0.00017	-0.0002	3
9682	-0.00016	-7e-05	0	5e-05	3e-05	-0.00018	-0.00017	-0.0002	3
9683	-0.00016	-7e-05	0	5e-05	3e-05	-0.00018	-0.00017	-0.0002	3
9684	0.0004	1e-05	-0.00013	3e-05	0.00013	0.00014	5e-05	-6e-05	3
9685	0.0004	1e-05	-0.00013	3e-05	0.00013	0.00014	5e-05	-6e-05	3
9686	0.0004	1e-05	-0.00013	3e-05	0.00013	0.00014	5e-05	-6e-05	3
9688	0.0004	1e-05	-0.00013	3e-05	0.00013	0.00014	5e-05	-6e-05	3
9689	0.0004	1e-05	-0.00013	3e-05	0.00013	0.00014	5e-05	-6e-05	3
9690	0.0004	1e-05	-0.00013	3e-05	0.00013	0.00014	5e-05	-6e-05	3
9691	0.0004	1e-05	-0.00013	3e-05	0.00013	0.00014	5e-05	-6e-05	3
9692	0.0004	1e-05	-0.00013	3e-05	0.00013	0.00014	5e-05	-6e-05	3
9693	0.0004	1e-05	-0.00013	3e-05	0.00013	0.00014	5e-05	-6e-05	3
9694	0.0004	1e-05	-0.00013	3e-05	0.00013	0.00014	5e-05	-6e-05	3
9695	0.0004	1e-05	-0.00013	3e-05	0.00013	0.00014	5e-05	-6e-05	3
9696	0.0004	1e-05	-0.00013	3e-05	0.00013	0.00014	5e-05	-6e-05	3
9697	0.0004	1e-05	-0.00013	3e-05	0.00013	0.00014	5e-05	-6e-05	3
9698	0.0004	1e-05	-0.00013	3e-05	0.00013	0.00014	5e-05	-6e-05	3
9699	7e-05	0.00012	-1e-05	-2e-05	-8e-05	-4e-05	6e-05	5e-05	3
9700	0.00012	-0.00013	-0.00014	0.00015	0.00016	5e-05	0.00012	4e-05	3
9702	0.00012	-0.00013	-0.00014	0.00015	0.00016	5e-05	0.00012	4e-05	3
9703	0.00012	-0.00013	-0.00014	0.00015	0.00016	5e-05	0.00012	4e-05	3
9704	0.00012	-0.00013	-0.00014	0.00015	0.00016	5e-05	0.00012	4e-05	3
9705	0.00012	-0.00013	-0.00014	0.00015	0.00016	5e-05	0.00012	4e-05	3
9706	0.00012	-0.00013	-0.00014	0.00015	0.00016	5e-05	0.00012	4e-05	3
9707	0.00012	-0.00013	-0.00014	0.00015	0.00016	5e-05	0.00012	4e-05	3
9708	0.00012	-0.00013	-0.00014	0.00015	0.00016	5e-05	0.00012	4e-05	3
9712	0.00012	-0.00013	-0.00014	0.00015	0.00016	5e-05	0.00012	4e-05	3
9713	0.00012	-0.00013	-0.00014	0.00015	0.00016	5e-05	0.00012	4e-05	3
9714	0.00012	-0.00013	-0.00014	0.00015	0.00016	5e-05	0.00012	4e-05	3
9715	0.00012	-0.00013	-0.00014	0.00015	0.00016	5e-05	0.00012	4e-05	3
9716	0.00012	-0.00013	-0.00014	0.00015	0.00016	5e-05	0.00012	4e-05	3
9717	0.00012	-0.00013	-0.00014	0.00015	0.00016	5e-05	0.00012	4e-05	3
9718	0.00012	-0.00013	-0.00014	0.00015	0.00016	5e-05	0.00012	4e-05	3
9719	0.00012	-0.00013	-0.00014	0.00015	0.00016	5e-05	0.00012	4e-05	3
9720	0.00012	-0.00013	-0.00014	0.00015	0.00016	5e-05	0.00012	4e-05	3
9721	9e-05	0	-1e-05	-0.00013	-0.00014	0	-0.0002	-0.00017	3
9722	9e-05	0	-1e-05	-0.00013	-0.00014	0	-0.0002	-0.00017	3
9723	3e-05	-6e-05	-0.00024	-0.00017	-0.00023	-7e-05	-3e-05	4e-05	3
9724	3e-05	-6e-05	-0.00024	-0.00017	-0.00023	-7e-05	-3e-05	4e-05	3
9725	3e-05	-6e-05	-0.00024	-0.00017	-0.00023	-7e-05	-3e-05	4e-05	3
9726	3e-05	-6e-05	-0.00024	-0.00017	-0.00023	-7e-05	-3e-05	4e-05	3
9727	3e-05	-6e-05	-0.00024	-0.00017	-0.00023	-7e-05	-3e-05	4e-05	3
9728	3e-05	-6e-05	-0.00024	-0.00017	-0.00023	-7e-05	-3e-05	4e-05	3
9729	3e-05	-6e-05	-0.00024	-0.00017	-0.00023	-7e-05	-3e-05	4e-05	3
9730	3e-05	-6e-05	-0.00024	-0.00017	-0.00023	-7e-05	-3e-05	4e-05	3
9731	3e-05	-6e-05	-0.00024	-0.00017	-0.00023	-7e-05	-3e-05	4e-05	3
9732	3e-05	-6e-05	-0.00024	-0.00017	-0.00023	-7e-05	-3e-05	4e-05	3
9733	3e-05	-6e-05	-0.00024	-0.00017	-0.00023	-7e-05	-3e-05	4e-05	3
9734	3e-05	-6e-05	-0.00024	-0.00017	-0.00023	-7e-05	-3e-05	4e-05	3
9735	0.0001	0.00026	7e-05	0.00013	9e-05	6e-05	1e-05	6e-05	3
9736	0.0001	0.00026	7e-05	0.00013	9e-05	6e-05	1e-05	6e-05	3
9738	0.0001	0.00026	7e-05	0.00013	9e-05	6e-05	1e-05	6e-05	3
9739	0.0001	0.00026	7e-05	0.00013	9e-05	6e-05	1e-05	6e-05	3
9740	0.0001	0.00026	7e-05	0.00013	9e-05	6e-05	1e-05	6e-05	3
9741	0.0001	0.00026	7e-05	0.00013	9e-05	6e-05	1e-05	6e-05	3
9742	0.0001	0.00026	7e-05	0.00013	9e-05	6e-05	1e-05	6e-05	3
9743	0.0001	0.00026	7e-05	0.00013	9e-05	6e-05	1e-05	6e-05	3
9744	8e-05	-3e-05	0.00033	-1e-05	-0.00022	8e-05	5e-05	0.00027	3
9745	8e-05	-3e-05	0.00033	-1e-05	-0.00022	8e-05	5e-05	0.00027	3
9746	8e-05	-3e-05	0.00033	-1e-05	-0.00022	8e-05	5e-05	0.00027	3
9747	8e-05	-3e-05	0.00033	-1e-05	-0.00022	8e-05	5e-05	0.00027	3
9748	8e-05	-3e-05	0.00033	-1e-05	-0.00022	8e-05	5e-05	0.00027	3
9749	8e-05	-3e-05	0.00033	-1e-05	-0.00022	8e-05	5e-05	0.00027	3
9750	8e-05	-3e-05	0.00033	-1e-05	-0.00022	8e-05	5e-05	0.00027	3
9751	8e-05	-3e-05	0.00033	-1e-05	-0.00022	8e-05	5e-05	0.00027	3
9752	8e-05	-3e-05	0.00033	-1e-05	-0.00022	8e-05	5e-05	0.00027	3
9753	8e-05	-3e-05	0.00033	-1e-05	-0.00022	8e-05	5e-05	0.00027	3
9754	8e-05	-3e-05	0.00033	-1e-05	-0.00022	8e-05	5e-05	0.00027	3
9755	8e-05	-3e-05	0.00033	-1e-05	-0.00022	8e-05	5e-05	0.00027	3
9756	8e-05	-3e-05	0.00033	-1e-05	-0.00022	8e-05	5e-05	0.00027	3
9757	8e-05	-3e-05	0.00033	-1e-05	-0.00022	8e-05	5e-05	0.00027	3
9758	8e-05	-3e-05	0.00033	-1e-05	-0.00022	8e-05	5e-05	0.00027	3
9759	-0.00042	-0.00022	0	-0.00017	-0.00012	0.00025	-4e-05	-0.00015	3
9760	-3e-05	-0.0002	-0.00036	-0.00014	-0.00011	8e-05	2e-05	-6e-05	3
9761	-3e-05	-0.0002	-0.00036	-0.00014	-0.00011	8e-05	2e-05	-6e-05	3
9762	-3e-05	-0.0002	-0.00036	-0.00014	-0.00011	8e-05	2e-05	-6e-05	3
9763	-3e-05	-0.0002	-0.00036	-0.00014	-0.00011	8e-05	2e-05	-6e-05	3
9764	-3e-05	-0.0002	-0.00036	-0.00014	-0.00011	8e-05	2e-05	-6e-05	3
9765	-3e-05	-0.0002	-0.00036	-0.00014	-0.00011	8e-05	2e-05	-6e-05	3
9766	-3e-05	-0.0002	-0.00036	-0.00014	-0.00011	8e-05	2e-05	-6e-05	3
9767	-3e-05	-0.0002	-0.00036	-0.00014	-0.00011	8e-05	2e-05	-6e-05	3
9768	-3e-05	-0.0002	-0.00036	-0.00014	-0.00011	8e-05	2e-05	-6e-05	3
9769	-3e-05	-0.0002	-0.00036	-0.00014	-0.00011	8e-05	2e-05	-6e-05	3
9770	-3e-05	-0.0002	-0.00036	-0.00014	-0.00011	8e-05	2e-05	-6e-05	3
9771	-3e-05	-0.0002	-0.00036	-0.00014	-0.00011	8e-05	2e-05	-6e-05	3
9772	-3e-05	-0.0002	-0.00036	-0.00014	-0.00011	8e-05	2e-05	-6e-05	3
9773	-3e-05	-0.0002	-0.00036	-0.00014	-0.00011	8e-05	2e-05	-6e-05	3
9774	-3e-05	-0.0002	-0.00036	-0.00014	-0.00011	8e-05	2e-05	-6e-05	3
9775	-3e-05	-0.0002	-0.00036	-0.00014	-0.00011	8e-05	2e-05	-6e-05	3
9776	-3e-05	-0.0002	-0.00036	-0.00014	-0.00011	8e-05	2e-05	-6e-05	3
9777	-3e-05	-0.0002	-0.00036	-0.00014	-0.00011	8e-05	2e-05	-6e-05	3
9778	-3e-05	-0.0002	-0.00036	-0.00014	-0.00011	8e-05	2e-05	-6e-05	3
9779	-3e-05	-0.0002	-0.00036	-0.00014	-0.00011	8e-05	2e-05	-6e-05	3
9780	-3e-05	-0.0002	-0.00036	-0.00014	-0.00011	8e-05	2e-05	-6e-05	3
9781	2e-05	0.00012	0.00028	8e-05	-3e-05	-0.00012	-3e-05	-0.00016	3
9782	2e-05	0.00012	0.00028	8e-05	-3e-05	-0.00012	-3e-05	-0.00016	3
9783	-0.00029	-0.0001	-7e-05	-0.00023	-0.0001	-7e-05	-0.0001	-0.00061	3
9784	-0.00029	-0.0001	-7e-05	-0.00023	-0.0001	-7e-05	-0.0001	-0.00061	3
9785	-0.00029	-0.0001	-7e-05	-0.00023	-0.0001	-7e-05	-0.0001	-0.00061	3
9786	-0.00029	-0.0001	-7e-05	-0.00023	-0.0001	-7e-05	-0.0001	-0.00061	3
9788	-0.00029	-0.0001	-7e-05	-0.00023	-0.0001	-7e-05	-0.0001	-0.00061	3
9789	-0.00029	-0.0001	-7e-05	-0.00023	-0.0001	-7e-05	-0.0001	-0.00061	3
9790	-0.00029	-0.0001	-7e-05	-0.00023	-0.0001	-7e-05	-0.0001	-0.00061	3
9791	-0.00029	-0.0001	-7e-05	-0.00023	-0.0001	-7e-05	-0.0001	-0.00061	3
9792	-0.00029	-0.0001	-7e-05	-0.00023	-0.0001	-7e-05	-0.0001	-0.00061	3
9793	-0.00029	-0.0001	-7e-05	-0.00023	-0.0001	-7e-05	-0.0001	-0.00061	3
9794	-0.00029	-0.0001	-7e-05	-0.00023	-0.0001	-7e-05	-0.0001	-0.00061	3
9796	-0.00069	-9e-05	7e-05	-3e-05	-6e-05	-8e-05	-5e-05	-0.00021	3
9797	-0.00069	-9e-05	7e-05	-3e-05	-6e-05	-8e-05	-5e-05	-0.00021	3
9798	-0.00069	-9e-05	7e-05	-3e-05	-6e-05	-8e-05	-5e-05	-0.00021	3
9799	-0.00069	-9e-05	7e-05	-3e-05	-6e-05	-8e-05	-5e-05	-0.00021	3
9800	-0.00069	-9e-05	7e-05	-3e-05	-6e-05	-8e-05	-5e-05	-0.00021	3
9801	-0.00069	-9e-05	7e-05	-3e-05	-6e-05	-8e-05	-5e-05	-0.00021	3
9802	-0.00069	-9e-05	7e-05	-3e-05	-6e-05	-8e-05	-5e-05	-0.00021	3
9803	-0.00069	-9e-05	7e-05	-3e-05	-6e-05	-8e-05	-5e-05	-0.00021	3
9804	0.00027	0.00021	6e-05	0.00016	1e-05	-1e-05	-0.00017	0.00014	3
9805	0.00027	0.00021	6e-05	0.00016	1e-05	-1e-05	-0.00017	0.00014	3
9806	0.00027	0.00021	6e-05	0.00016	1e-05	-1e-05	-0.00017	0.00014	3
9807	0.00027	0.00021	6e-05	0.00016	1e-05	-1e-05	-0.00017	0.00014	3
9808	0.00027	0.00021	6e-05	0.00016	1e-05	-1e-05	-0.00017	0.00014	3
9809	0.00027	0.00021	6e-05	0.00016	1e-05	-1e-05	-0.00017	0.00014	3
9810	0.00027	0.00021	6e-05	0.00016	1e-05	-1e-05	-0.00017	0.00014	3
9811	0.00027	0.00021	6e-05	0.00016	1e-05	-1e-05	-0.00017	0.00014	3
9812	0.00027	0.00021	6e-05	0.00016	1e-05	-1e-05	-0.00017	0.00014	3
9813	0.00027	0.00021	6e-05	0.00016	1e-05	-1e-05	-0.00017	0.00014	3
9814	0.00027	0.00021	6e-05	0.00016	1e-05	-1e-05	-0.00017	0.00014	3
9815	0.00027	0.00021	6e-05	0.00016	1e-05	-1e-05	-0.00017	0.00014	3
9816	0.00027	0.00021	6e-05	0.00016	1e-05	-1e-05	-0.00017	0.00014	3
9817	0.00027	0.00021	6e-05	0.00016	1e-05	-1e-05	-0.00017	0.00014	3
9818	0.00027	0.00021	6e-05	0.00016	1e-05	-1e-05	-0.00017	0.00014	3
9819	0.00031	-0.00022	4e-05	-3e-05	0.00021	-1e-05	0	0.00011	3
9820	-0.00017	-0.00025	-9e-05	2e-05	-0.00012	-0.00029	5e-05	0.00019	3
9821	-0.00017	-0.00025	-9e-05	2e-05	-0.00012	-0.00029	5e-05	0.00019	3
9822	-0.00017	-0.00025	-9e-05	2e-05	-0.00012	-0.00029	5e-05	0.00019	3
9823	-0.00017	-0.00025	-9e-05	2e-05	-0.00012	-0.00029	5e-05	0.00019	3
9824	-0.00017	-0.00025	-9e-05	2e-05	-0.00012	-0.00029	5e-05	0.00019	3
9825	-0.00017	-0.00025	-9e-05	2e-05	-0.00012	-0.00029	5e-05	0.00019	3
9826	-0.00017	-0.00025	-9e-05	2e-05	-0.00012	-0.00029	5e-05	0.00019	3
9827	-0.00017	-0.00025	-9e-05	2e-05	-0.00012	-0.00029	5e-05	0.00019	3
9828	-0.00017	-0.00025	-9e-05	2e-05	-0.00012	-0.00029	5e-05	0.00019	3
9829	-0.00017	-0.00025	-9e-05	2e-05	-0.00012	-0.00029	5e-05	0.00019	3
9830	-0.00017	-0.00025	-9e-05	2e-05	-0.00012	-0.00029	5e-05	0.00019	3
9831	-0.00017	-0.00025	-9e-05	2e-05	-0.00012	-0.00029	5e-05	0.00019	3
9832	-0.00017	-0.00025	-9e-05	2e-05	-0.00012	-0.00029	5e-05	0.00019	3
9833	-0.00017	-0.00025	-9e-05	2e-05	-0.00012	-0.00029	5e-05	0.00019	3
9834	-0.00017	-0.00025	-9e-05	2e-05	-0.00012	-0.00029	5e-05	0.00019	3
9835	-0.00017	-0.00025	-9e-05	2e-05	-0.00012	-0.00029	5e-05	0.00019	3
9836	-0.00017	-0.00025	-9e-05	2e-05	-0.00012	-0.00029	5e-05	0.00019	3
9838	-0.00017	-0.00025	-9e-05	2e-05	-0.00012	-0.00029	5e-05	0.00019	3
9839	-0.00017	-0.00025	-9e-05	2e-05	-0.00012	-0.00029	5e-05	0.00019	3
9840	-0.00017	-0.00025	-9e-05	2e-05	-0.00012	-0.00029	5e-05	0.00019	3
9841	-0.00037	-0.00027	-0.0006	-0.00019	0.0001	-6e-05	2e-05	-2e-05	3
9842	-0.00037	-0.00027	-0.0006	-0.00019	0.0001	-6e-05	2e-05	-2e-05	3
9844	0.00039	0.00016	5e-05	4e-05	3e-05	-0.00014	-1e-05	3e-05	3
9845	0.00039	0.00016	5e-05	4e-05	3e-05	-0.00014	-1e-05	3e-05	3
9846	0.00039	0.00016	5e-05	4e-05	3e-05	-0.00014	-1e-05	3e-05	3
9847	0.00039	0.00016	5e-05	4e-05	3e-05	-0.00014	-1e-05	3e-05	3
9848	0.00039	0.00016	5e-05	4e-05	3e-05	-0.00014	-1e-05	3e-05	3
9849	0.00039	0.00016	5e-05	4e-05	3e-05	-0.00014	-1e-05	3e-05	3
9850	0.00039	0.00016	5e-05	4e-05	3e-05	-0.00014	-1e-05	3e-05	3
9851	0.00039	0.00016	5e-05	4e-05	3e-05	-0.00014	-1e-05	3e-05	3
9852	0.00039	0.00016	5e-05	4e-05	3e-05	-0.00014	-1e-05	3e-05	3
9853	0.00039	0.00016	5e-05	4e-05	3e-05	-0.00014	-1e-05	3e-05	3
9854	0.00039	0.00016	5e-05	4e-05	3e-05	-0.00014	-1e-05	3e-05	3
9855	0.00033	6e-05	-1e-05	-5e-05	-9e-05	1e-05	3e-05	4e-05	3
9856	0.00033	6e-05	-1e-05	-5e-05	-9e-05	1e-05	3e-05	4e-05	3
9857	0.00033	6e-05	-1e-05	-5e-05	-9e-05	1e-05	3e-05	4e-05	3
9858	0.00033	6e-05	-1e-05	-5e-05	-9e-05	1e-05	3e-05	4e-05	3
9859	0.00033	6e-05	-1e-05	-5e-05	-9e-05	1e-05	3e-05	4e-05	3
9860	0.00033	6e-05	-1e-05	-5e-05	-9e-05	1e-05	3e-05	4e-05	3
9861	0.00033	6e-05	-1e-05	-5e-05	-9e-05	1e-05	3e-05	4e-05	3
9862	0.00033	6e-05	-1e-05	-5e-05	-9e-05	1e-05	3e-05	4e-05	3
9863	0.00033	6e-05	-1e-05	-5e-05	-9e-05	1e-05	3e-05	4e-05	3
9864	-0.0005	3e-05	0.00026	5e-05	-5e-05	0.00013	2e-05	-0.00021	3
9865	-0.0005	3e-05	0.00026	5e-05	-5e-05	0.00013	2e-05	-0.00021	3
9866	-0.0005	3e-05	0.00026	5e-05	-5e-05	0.00013	2e-05	-0.00021	3
9867	-0.0005	3e-05	0.00026	5e-05	-5e-05	0.00013	2e-05	-0.00021	3
9868	-0.0005	3e-05	0.00026	5e-05	-5e-05	0.00013	2e-05	-0.00021	3
9869	-0.0005	3e-05	0.00026	5e-05	-5e-05	0.00013	2e-05	-0.00021	3
9870	-0.0005	3e-05	0.00026	5e-05	-5e-05	0.00013	2e-05	-0.00021	3
9871	-0.0005	3e-05	0.00026	5e-05	-5e-05	0.00013	2e-05	-0.00021	3
9872	-0.0005	3e-05	0.00026	5e-05	-5e-05	0.00013	2e-05	-0.00021	3
9873	-0.0005	3e-05	0.00026	5e-05	-5e-05	0.00013	2e-05	-0.00021	3
9874	-0.0005	3e-05	0.00026	5e-05	-5e-05	0.00013	2e-05	-0.00021	3
9875	-0.0005	3e-05	0.00026	5e-05	-5e-05	0.00013	2e-05	-0.00021	3
9876	-0.0005	3e-05	0.00026	5e-05	-5e-05	0.00013	2e-05	-0.00021	3
9877	-0.0005	3e-05	0.00026	5e-05	-5e-05	0.00013	2e-05	-0.00021	3
9878	-0.0005	3e-05	0.00026	5e-05	-5e-05	0.00013	2e-05	-0.00021	3
9879	-5e-05	-0.00019	-0.00038	-4e-05	-0.00011	6e-05	2e-05	-0.00032	3
9880	0.00051	7e-05	-0.00025	-0.00015	0	0.00015	2e-05	0.00026	3
9881	0.00051	7e-05	-0.00025	-0.00015	0	0.00015	2e-05	0.00026	3
9882	0.00051	7e-05	-0.00025	-0.00015	0	0.00015	2e-05	0.00026	3
9883	0.00051	7e-05	-0.00025	-0.00015	0	0.00015	2e-05	0.00026	3
9884	0.00051	7e-05	-0.00025	-0.00015	0	0.00015	2e-05	0.00026	3
9885	0.00051	7e-05	-0.00025	-0.00015	0	0.00015	2e-05	0.00026	3
9886	0.00051	7e-05	-0.00025	-0.00015	0	0.00015	2e-05	0.00026	3
9888	0.00051	7e-05	-0.00025	-0.00015	0	0.00015	2e-05	0.00026	3
9890	0.00051	7e-05	-0.00025	-0.00015	0	0.00015	2e-05	0.00026	3
9891	0.00051	7e-05	-0.00025	-0.00015	0	0.00015	2e-05	0.00026	3
9892	0.00051	7e-05	-0.00025	-0.00015	0	0.00015	2e-05	0.00026	3
9893	0.00051	7e-05	-0.00025	-0.00015	0	0.00015	2e-05	0.00026	3
9894	0.00051	7e-05	-0.00025	-0.00015	0	0.00015	2e-05	0.00026	3
9895	0.00051	7e-05	-0.00025	-0.00015	0	0.00015	2e-05	0.00026	3
9896	0.00051	7e-05	-0.00025	-0.00015	0	0.00015	2e-05	0.00026	3
9897	0.00051	7e-05	-0.00025	-0.00015	0	0.00015	2e-05	0.00026	3
9898	0.00051	7e-05	-0.00025	-0.00015	0	0.00015	2e-05	0.00026	3
9899	0.00051	7e-05	-0.00025	-0.00015	0	0.00015	2e-05	0.00026	3
9900	0.00051	7e-05	-0.00025	-0.00015	0	0.00015	2e-05	0.00026	3
9901	-3e-05	-9e-05	0	0.00025	0.00037	3e-05	-1e-05	4e-05	3
9902	-3e-05	-9e-05	0	0.00025	0.00037	3e-05	-1e-05	4e-05	3
9903	0.00011	-0.00067	-0.00087	1e-05	0.00022	-5e-05	-1e-05	7e-05	3
9904	0.00011	-0.00067	-0.00087	1e-05	0.00022	-5e-05	-1e-05	7e-05	3
9905	0.00011	-0.00067	-0.00087	1e-05	0.00022	-5e-05	-1e-05	7e-05	3
9906	0.00011	-0.00067	-0.00087	1e-05	0.00022	-5e-05	-1e-05	7e-05	3
9907	0.00011	-0.00067	-0.00087	1e-05	0.00022	-5e-05	-1e-05	7e-05	3
9908	0.00011	-0.00067	-0.00087	1e-05	0.00022	-5e-05	-1e-05	7e-05	3
9909	0.00011	-0.00067	-0.00087	1e-05	0.00022	-5e-05	-1e-05	7e-05	3
9910	0.00011	-0.00067	-0.00087	1e-05	0.00022	-5e-05	-1e-05	7e-05	3
9911	0.00011	-0.00067	-0.00087	1e-05	0.00022	-5e-05	-1e-05	7e-05	3
9912	0.00011	-0.00067	-0.00087	1e-05	0.00022	-5e-05	-1e-05	7e-05	3
9913	0.00011	-0.00067	-0.00087	1e-05	0.00022	-5e-05	-1e-05	7e-05	3
9914	0.00011	-0.00067	-0.00087	1e-05	0.00022	-5e-05	-1e-05	7e-05	3
9915	0.00094	0.00037	0.00059	0.00011	-7e-05	-7e-05	7e-05	0.0002	3
9916	0.00094	0.00037	0.00059	0.00011	-7e-05	-7e-05	7e-05	0.0002	3
9917	0.00094	0.00037	0.00059	0.00011	-7e-05	-7e-05	7e-05	0.0002	3
9918	0.00094	0.00037	0.00059	0.00011	-7e-05	-7e-05	7e-05	0.0002	3
9919	0.00094	0.00037	0.00059	0.00011	-7e-05	-7e-05	7e-05	0.0002	3
9920	0.00094	0.00037	0.00059	0.00011	-7e-05	-7e-05	7e-05	0.0002	3
9921	0.00094	0.00037	0.00059	0.00011	-7e-05	-7e-05	7e-05	0.0002	3
9922	0.00094	0.00037	0.00059	0.00011	-7e-05	-7e-05	7e-05	0.0002	3
9923	0.00094	0.00037	0.00059	0.00011	-7e-05	-7e-05	7e-05	0.0002	3
9924	-0.00022	0.00033	0.00034	0.00011	0.0003	-6e-05	-0.00017	-0.00015	3
9925	-0.00022	0.00033	0.00034	0.00011	0.0003	-6e-05	-0.00017	-0.00015	3
9926	-0.00022	0.00033	0.00034	0.00011	0.0003	-6e-05	-0.00017	-0.00015	3
9927	-0.00022	0.00033	0.00034	0.00011	0.0003	-6e-05	-0.00017	-0.00015	3
9928	-0.00022	0.00033	0.00034	0.00011	0.0003	-6e-05	-0.00017	-0.00015	3
9929	-0.00022	0.00033	0.00034	0.00011	0.0003	-6e-05	-0.00017	-0.00015	3
9930	-0.00022	0.00033	0.00034	0.00011	0.0003	-6e-05	-0.00017	-0.00015	3
9931	-0.00022	0.00033	0.00034	0.00011	0.0003	-6e-05	-0.00017	-0.00015	3
9932	-0.00022	0.00033	0.00034	0.00011	0.0003	-6e-05	-0.00017	-0.00015	3
9933	-0.00022	0.00033	0.00034	0.00011	0.0003	-6e-05	-0.00017	-0.00015	3
9934	-0.00022	0.00033	0.00034	0.00011	0.0003	-6e-05	-0.00017	-0.00015	3
9936	-0.00022	0.00033	0.00034	0.00011	0.0003	-6e-05	-0.00017	-0.00015	3
9937	-0.00022	0.00033	0.00034	0.00011	0.0003	-6e-05	-0.00017	-0.00015	3
9938	-0.00022	0.00033	0.00034	0.00011	0.0003	-6e-05	-0.00017	-0.00015	3
9939	0.00019	0.00016	4e-05	9e-05	0.00011	-0.00011	2e-05	-2e-05	3
9940	-5e-05	-0.0001	-0.00016	-0.00017	-0.00021	-0.00016	-0.0001	-0.00024	3
9941	-5e-05	-0.0001	-0.00016	-0.00017	-0.00021	-0.00016	-0.0001	-0.00024	3
9942	-5e-05	-0.0001	-0.00016	-0.00017	-0.00021	-0.00016	-0.0001	-0.00024	3
9943	-5e-05	-0.0001	-0.00016	-0.00017	-0.00021	-0.00016	-0.0001	-0.00024	3
9944	-5e-05	-0.0001	-0.00016	-0.00017	-0.00021	-0.00016	-0.0001	-0.00024	3
9945	-5e-05	-0.0001	-0.00016	-0.00017	-0.00021	-0.00016	-0.0001	-0.00024	3
9946	-5e-05	-0.0001	-0.00016	-0.00017	-0.00021	-0.00016	-0.0001	-0.00024	3
9947	-5e-05	-0.0001	-0.00016	-0.00017	-0.00021	-0.00016	-0.0001	-0.00024	3
9948	-5e-05	-0.0001	-0.00016	-0.00017	-0.00021	-0.00016	-0.0001	-0.00024	3
9949	-5e-05	-0.0001	-0.00016	-0.00017	-0.00021	-0.00016	-0.0001	-0.00024	3
9950	-5e-05	-0.0001	-0.00016	-0.00017	-0.00021	-0.00016	-0.0001	-0.00024	3
9951	-5e-05	-0.0001	-0.00016	-0.00017	-0.00021	-0.00016	-0.0001	-0.00024	3
9952	-5e-05	-0.0001	-0.00016	-0.00017	-0.00021	-0.00016	-0.0001	-0.00024	3
9953	-5e-05	-0.0001	-0.00016	-0.00017	-0.00021	-0.00016	-0.0001	-0.00024	3
9954	-5e-05	-0.0001	-0.00016	-0.00017	-0.00021	-0.00016	-0.0001	-0.00024	3
9955	-5e-05	-0.0001	-0.00016	-0.00017	-0.00021	-0.00016	-0.0001	-0.00024	3
9956	-5e-05	-0.0001	-0.00016	-0.00017	-0.00021	-0.00016	-0.0001	-0.00024	3
9957	-5e-05	-0.0001	-0.00016	-0.00017	-0.00021	-0.00016	-0.0001	-0.00024	3
9958	-5e-05	-0.0001	-0.00016	-0.00017	-0.00021	-0.00016	-0.0001	-0.00024	3
9959	-5e-05	-0.0001	-0.00016	-0.00017	-0.00021	-0.00016	-0.0001	-0.00024	3
9960	-5e-05	-0.0001	-0.00016	-0.00017	-0.00021	-0.00016	-0.0001	-0.00024	3
9961	-0.00047	0.0001	0.00026	0.00027	0.00054	7e-05	-3e-05	-6e-05	3
9962	-0.00047	0.0001	0.00026	0.00027	0.00054	7e-05	-3e-05	-6e-05	3
9963	-0.00032	8e-05	0.00042	0.00021	3e-05	-1e-05	3e-05	-6e-05	3
9964	-0.00032	8e-05	0.00042	0.00021	3e-05	-1e-05	3e-05	-6e-05	3
9965	-0.00032	8e-05	0.00042	0.00021	3e-05	-1e-05	3e-05	-6e-05	3
9966	-0.00032	8e-05	0.00042	0.00021	3e-05	-1e-05	3e-05	-6e-05	3
9967	-0.00032	8e-05	0.00042	0.00021	3e-05	-1e-05	3e-05	-6e-05	3
9968	-0.00032	8e-05	0.00042	0.00021	3e-05	-1e-05	3e-05	-6e-05	3
9969	-0.00032	8e-05	0.00042	0.00021	3e-05	-1e-05	3e-05	-6e-05	3
9970	-0.00032	8e-05	0.00042	0.00021	3e-05	-1e-05	3e-05	-6e-05	3
9971	-0.00032	8e-05	0.00042	0.00021	3e-05	-1e-05	3e-05	-6e-05	3
9972	-0.00032	8e-05	0.00042	0.00021	3e-05	-1e-05	3e-05	-6e-05	3
9973	-0.00032	8e-05	0.00042	0.00021	3e-05	-1e-05	3e-05	-6e-05	3
9974	-0.00032	8e-05	0.00042	0.00021	3e-05	-1e-05	3e-05	-6e-05	3
9975	-0.00032	8e-05	0.00042	0.00021	3e-05	-1e-05	3e-05	-6e-05	3
9976	-0.00032	8e-05	0.00042	0.00021	3e-05	-1e-05	3e-05	-6e-05	3
9977	-0.00032	8e-05	0.00042	0.00021	3e-05	-1e-05	3e-05	-6e-05	3
9978	-0.00032	8e-05	0.00042	0.00021	3e-05	-1e-05	3e-05	-6e-05	3
9979	-0.00032	8e-05	0.00042	0.00021	3e-05	-1e-05	3e-05	-6e-05	3
9980	-0.00032	8e-05	0.00042	0.00021	3e-05	-1e-05	3e-05	-6e-05	3
9981	-0.00032	8e-05	0.00042	0.00021	3e-05	-1e-05	3e-05	-6e-05	3
9983	-0.00032	8e-05	0.00042	0.00021	3e-05	-1e-05	3e-05	-6e-05	3
9984	0.00013	8e-05	0.00023	-0.00013	-0.00042	-0.00013	-0.00013	7e-05	3
9985	0.0004	0.0004	0.00072	0.0001	9e-05	-0.00011	-9e-05	4e-05	3
9986	0.0004	0.0004	0.00072	0.0001	9e-05	-0.00011	-9e-05	4e-05	3
9988	0.0004	0.0004	0.00072	0.0001	9e-05	-0.00011	-9e-05	4e-05	3
9989	0.0004	0.0004	0.00072	0.0001	9e-05	-0.00011	-9e-05	4e-05	3
9990	0.0004	0.0004	0.00072	0.0001	9e-05	-0.00011	-9e-05	4e-05	3
9991	0.0004	0.0004	0.00072	0.0001	9e-05	-0.00011	-9e-05	4e-05	3
9992	0.0004	0.0004	0.00072	0.0001	9e-05	-0.00011	-9e-05	4e-05	3
9993	0.0004	0.0004	0.00072	0.0001	9e-05	-0.00011	-9e-05	4e-05	3
9994	0.0004	0.0004	0.00072	0.0001	9e-05	-0.00011	-9e-05	4e-05	3
9995	0.0004	0.0004	0.00072	0.0001	9e-05	-0.00011	-9e-05	4e-05	3
9996	0.0004	0.0004	0.00072	0.0001	9e-05	-0.00011	-9e-05	4e-05	3
9997	0.0004	0.0004	0.00072	0.0001	9e-05	-0.00011	-9e-05	4e-05	3
9998	0.0004	0.0004	0.00072	0.0001	9e-05	-0.00011	-9e-05	4e-05	3
9999	0.00011	-0.00027	-0.00043	1e-05	0.00016	0.00012	-4e-05	7e-05	3
10000	5e-05	-2e-05	-9e-05	-0.00014	-0.00016	3e-05	2e-05	0.00027	3
10001	5e-05	-2e-05	-9e-05	-0.00014	-0.00016	3e-05	2e-05	0.00027	3
10002	5e-05	-2e-05	-9e-05	-0.00014	-0.00016	3e-05	2e-05	0.00027	3
10003	5e-05	-2e-05	-9e-05	-0.00014	-0.00016	3e-05	2e-05	0.00027	3
10004	5e-05	-2e-05	-9e-05	-0.00014	-0.00016	3e-05	2e-05	0.00027	3
10005	5e-05	-2e-05	-9e-05	-0.00014	-0.00016	3e-05	2e-05	0.00027	3
10006	5e-05	-2e-05	-9e-05	-0.00014	-0.00016	3e-05	2e-05	0.00027	3
10007	5e-05	-2e-05	-9e-05	-0.00014	-0.00016	3e-05	2e-05	0.00027	3
10008	5e-05	-2e-05	-9e-05	-0.00014	-0.00016	3e-05	2e-05	0.00027	3
10009	5e-05	-2e-05	-9e-05	-0.00014	-0.00016	3e-05	2e-05	0.00027	3
10010	5e-05	-2e-05	-9e-05	-0.00014	-0.00016	3e-05	2e-05	0.00027	3
10011	5e-05	-2e-05	-9e-05	-0.00014	-0.00016	3e-05	2e-05	0.00027	3
10012	5e-05	-2e-05	-9e-05	-0.00014	-0.00016	3e-05	2e-05	0.00027	3
10013	5e-05	-2e-05	-9e-05	-0.00014	-0.00016	3e-05	2e-05	0.00027	3
10014	5e-05	-2e-05	-9e-05	-0.00014	-0.00016	3e-05	2e-05	0.00027	3
10015	5e-05	-2e-05	-9e-05	-0.00014	-0.00016	3e-05	2e-05	0.00027	3
10016	5e-05	-2e-05	-9e-05	-0.00014	-0.00016	3e-05	2e-05	0.00027	3
10017	5e-05	-2e-05	-9e-05	-0.00014	-0.00016	3e-05	2e-05	0.00027	3
10018	5e-05	-2e-05	-9e-05	-0.00014	-0.00016	3e-05	2e-05	0.00027	3
10019	5e-05	-2e-05	-9e-05	-0.00014	-0.00016	3e-05	2e-05	0.00027	3
10020	5e-05	-2e-05	-9e-05	-0.00014	-0.00016	3e-05	2e-05	0.00027	3
10021	-0.00053	4e-05	-0.00022	-0.00018	-0.00025	7e-05	4e-05	0	3
10022	-0.00053	4e-05	-0.00022	-0.00018	-0.00025	7e-05	4e-05	0	3
10023	0.0001	-4e-05	-0.00027	-8e-05	0.00011	0.00016	0.00019	0.0001	3
10024	0.0001	-4e-05	-0.00027	-8e-05	0.00011	0.00016	0.00019	0.0001	3
10025	0.0001	-4e-05	-0.00027	-8e-05	0.00011	0.00016	0.00019	0.0001	3
10026	0.0001	-4e-05	-0.00027	-8e-05	0.00011	0.00016	0.00019	0.0001	3
10027	0.0001	-4e-05	-0.00027	-8e-05	0.00011	0.00016	0.00019	0.0001	3
10028	0.0001	-4e-05	-0.00027	-8e-05	0.00011	0.00016	0.00019	0.0001	3
10030	0.0001	-4e-05	-0.00027	-8e-05	0.00011	0.00016	0.00019	0.0001	3
10031	0.0001	-4e-05	-0.00027	-8e-05	0.00011	0.00016	0.00019	0.0001	3
10032	0.0001	-4e-05	-0.00027	-8e-05	0.00011	0.00016	0.00019	0.0001	3
10033	0.0001	-4e-05	-0.00027	-8e-05	0.00011	0.00016	0.00019	0.0001	3
10034	0.0001	-4e-05	-0.00027	-8e-05	0.00011	0.00016	0.00019	0.0001	3
10035	0.0001	-4e-05	-0.00027	-8e-05	0.00011	0.00016	0.00019	0.0001	3
10039	0.0001	-4e-05	-0.00027	-8e-05	0.00011	0.00016	0.00019	0.0001	3
10040	0.0001	-4e-05	-0.00027	-8e-05	0.00011	0.00016	0.00019	0.0001	3
10041	0.0001	-4e-05	-0.00027	-8e-05	0.00011	0.00016	0.00019	0.0001	3
10042	0.0001	-4e-05	-0.00027	-8e-05	0.00011	0.00016	0.00019	0.0001	3
10043	0.0001	-4e-05	-0.00027	-8e-05	0.00011	0.00016	0.00019	0.0001	3
10044	0.00028	-0.00022	-0.00047	-0.00018	-0.00024	-7e-05	7e-05	6e-05	3
10045	-0.00048	-0.00023	1e-05	-0.0001	-0.00029	-0.00015	-3e-05	-0.00018	3
10046	-0.00048	-0.00023	1e-05	-0.0001	-0.00029	-0.00015	-3e-05	-0.00018	3
10048	-0.00048	-0.00023	1e-05	-0.0001	-0.00029	-0.00015	-3e-05	-0.00018	3
10049	-0.00048	-0.00023	1e-05	-0.0001	-0.00029	-0.00015	-3e-05	-0.00018	3
10050	-0.00048	-0.00023	1e-05	-0.0001	-0.00029	-0.00015	-3e-05	-0.00018	3
10051	-0.00048	-0.00023	1e-05	-0.0001	-0.00029	-0.00015	-3e-05	-0.00018	3
10052	-0.00048	-0.00023	1e-05	-0.0001	-0.00029	-0.00015	-3e-05	-0.00018	3
10053	-0.00048	-0.00023	1e-05	-0.0001	-0.00029	-0.00015	-3e-05	-0.00018	3
10054	-0.00048	-0.00023	1e-05	-0.0001	-0.00029	-0.00015	-3e-05	-0.00018	3
10055	-0.00048	-0.00023	1e-05	-0.0001	-0.00029	-0.00015	-3e-05	-0.00018	3
10056	-0.00048	-0.00023	1e-05	-0.0001	-0.00029	-0.00015	-3e-05	-0.00018	3
10057	-0.00048	-0.00023	1e-05	-0.0001	-0.00029	-0.00015	-3e-05	-0.00018	3
10058	-0.00048	-0.00023	1e-05	-0.0001	-0.00029	-0.00015	-3e-05	-0.00018	3
10059	-4e-05	-7e-05	7e-05	-5e-05	-0.00035	1e-05	1e-05	8e-05	3
10060	9e-05	3e-05	-0.00017	-7e-05	-3e-05	-5e-05	-0.00011	-4e-05	3
10061	9e-05	3e-05	-0.00017	-7e-05	-3e-05	-5e-05	-0.00011	-4e-05	3
10062	9e-05	3e-05	-0.00017	-7e-05	-3e-05	-5e-05	-0.00011	-4e-05	3
10063	9e-05	3e-05	-0.00017	-7e-05	-3e-05	-5e-05	-0.00011	-4e-05	3
10064	9e-05	3e-05	-0.00017	-7e-05	-3e-05	-5e-05	-0.00011	-4e-05	3
10065	9e-05	3e-05	-0.00017	-7e-05	-3e-05	-5e-05	-0.00011	-4e-05	3
10066	9e-05	3e-05	-0.00017	-7e-05	-3e-05	-5e-05	-0.00011	-4e-05	3
10067	9e-05	3e-05	-0.00017	-7e-05	-3e-05	-5e-05	-0.00011	-4e-05	3
10068	9e-05	3e-05	-0.00017	-7e-05	-3e-05	-5e-05	-0.00011	-4e-05	3
10069	9e-05	3e-05	-0.00017	-7e-05	-3e-05	-5e-05	-0.00011	-4e-05	3
10070	9e-05	3e-05	-0.00017	-7e-05	-3e-05	-5e-05	-0.00011	-4e-05	3
10071	9e-05	3e-05	-0.00017	-7e-05	-3e-05	-5e-05	-0.00011	-4e-05	3
10072	9e-05	3e-05	-0.00017	-7e-05	-3e-05	-5e-05	-0.00011	-4e-05	3
10073	9e-05	3e-05	-0.00017	-7e-05	-3e-05	-5e-05	-0.00011	-4e-05	3
10074	9e-05	3e-05	-0.00017	-7e-05	-3e-05	-5e-05	-0.00011	-4e-05	3
10075	9e-05	3e-05	-0.00017	-7e-05	-3e-05	-5e-05	-0.00011	-4e-05	3
10077	9e-05	3e-05	-0.00017	-7e-05	-3e-05	-5e-05	-0.00011	-4e-05	3
10078	9e-05	3e-05	-0.00017	-7e-05	-3e-05	-5e-05	-0.00011	-4e-05	3
10079	9e-05	3e-05	-0.00017	-7e-05	-3e-05	-5e-05	-0.00011	-4e-05	3
10080	9e-05	3e-05	-0.00017	-7e-05	-3e-05	-5e-05	-0.00011	-4e-05	3
10081	0.00047	0.00012	8e-05	-2e-05	7e-05	1e-05	0	4e-05	3
10082	0.00047	0.00012	8e-05	-2e-05	7e-05	1e-05	0	4e-05	3
10083	-0.0001	-0.00024	-0.00032	-6e-05	5e-05	0.00023	1e-05	0.00011	3
10084	-0.0001	-0.00024	-0.00032	-6e-05	5e-05	0.00023	1e-05	0.00011	3
10085	-0.0001	-0.00024	-0.00032	-6e-05	5e-05	0.00023	1e-05	0.00011	3
10086	-0.0001	-0.00024	-0.00032	-6e-05	5e-05	0.00023	1e-05	0.00011	3
10088	-0.0001	-0.00024	-0.00032	-6e-05	5e-05	0.00023	1e-05	0.00011	3
10089	-0.0001	-0.00024	-0.00032	-6e-05	5e-05	0.00023	1e-05	0.00011	3
10090	-0.0001	-0.00024	-0.00032	-6e-05	5e-05	0.00023	1e-05	0.00011	3
10091	-0.0001	-0.00024	-0.00032	-6e-05	5e-05	0.00023	1e-05	0.00011	3
10092	-0.0001	-0.00024	-0.00032	-6e-05	5e-05	0.00023	1e-05	0.00011	3
10093	-0.0001	-0.00024	-0.00032	-6e-05	5e-05	0.00023	1e-05	0.00011	3
10094	-0.0001	-0.00024	-0.00032	-6e-05	5e-05	0.00023	1e-05	0.00011	3
10095	-0.0001	-0.00024	-0.00032	-6e-05	5e-05	0.00023	1e-05	0.00011	3
10096	-0.0001	-0.00024	-0.00032	-6e-05	5e-05	0.00023	1e-05	0.00011	3
10097	-0.0001	-0.00024	-0.00032	-6e-05	5e-05	0.00023	1e-05	0.00011	3
10098	-0.0001	-0.00024	-0.00032	-6e-05	5e-05	0.00023	1e-05	0.00011	3
10099	-0.0001	-0.00024	-0.00032	-6e-05	5e-05	0.00023	1e-05	0.00011	3
10100	-0.0001	-0.00024	-0.00032	-6e-05	5e-05	0.00023	1e-05	0.00011	3
10101	-0.0001	-0.00024	-0.00032	-6e-05	5e-05	0.00023	1e-05	0.00011	3
10102	-0.0001	-0.00024	-0.00032	-6e-05	5e-05	0.00023	1e-05	0.00011	3
10103	-0.0001	-0.00024	-0.00032	-6e-05	5e-05	0.00023	1e-05	0.00011	3
10104	5e-05	-6e-05	2e-05	4e-05	0.00054	0.00027	0.00013	0.00011	3
10105	0.00023	9e-05	3e-05	-8e-05	-0.00019	-8e-05	-8e-05	9e-05	3
10106	0.00023	9e-05	3e-05	-8e-05	-0.00019	-8e-05	-8e-05	9e-05	3
10107	0.00023	9e-05	3e-05	-8e-05	-0.00019	-8e-05	-8e-05	9e-05	3
10108	0.00023	9e-05	3e-05	-8e-05	-0.00019	-8e-05	-8e-05	9e-05	3
10109	0.00023	9e-05	3e-05	-8e-05	-0.00019	-8e-05	-8e-05	9e-05	3
10110	0.00023	9e-05	3e-05	-8e-05	-0.00019	-8e-05	-8e-05	9e-05	3
10111	0.00023	9e-05	3e-05	-8e-05	-0.00019	-8e-05	-8e-05	9e-05	3
10112	0.00023	9e-05	3e-05	-8e-05	-0.00019	-8e-05	-8e-05	9e-05	3
10113	0.00023	9e-05	3e-05	-8e-05	-0.00019	-8e-05	-8e-05	9e-05	3
10114	0.00023	9e-05	3e-05	-8e-05	-0.00019	-8e-05	-8e-05	9e-05	3
10115	0.00023	9e-05	3e-05	-8e-05	-0.00019	-8e-05	-8e-05	9e-05	3
10116	0.00023	9e-05	3e-05	-8e-05	-0.00019	-8e-05	-8e-05	9e-05	3
10117	0.00023	9e-05	3e-05	-8e-05	-0.00019	-8e-05	-8e-05	9e-05	3
10118	-0.00026	9e-05	-0.00022	-0.00014	-0.00024	0.00012	2e-05	-0.0001	3
10119	-0.00026	9e-05	-0.00022	-0.00014	-0.00024	0.00012	2e-05	-0.0001	3
10120	-0.00026	9e-05	-0.00022	-0.00014	-0.00024	0.00012	2e-05	-0.0001	3
10121	-0.00026	9e-05	-0.00022	-0.00014	-0.00024	0.00012	2e-05	-0.0001	3
10122	-0.00026	9e-05	-0.00022	-0.00014	-0.00024	0.00012	2e-05	-0.0001	3
10123	-0.00026	9e-05	-0.00022	-0.00014	-0.00024	0.00012	2e-05	-0.0001	3
10125	-1e-05	5e-05	0.00018	-5e-05	-0.0001	3e-05	2e-05	-8e-05	3
10126	-1e-05	5e-05	0.00018	-5e-05	-0.0001	3e-05	2e-05	-8e-05	3
10127	-1e-05	5e-05	0.00018	-5e-05	-0.0001	3e-05	2e-05	-8e-05	3
10128	-1e-05	5e-05	0.00018	-5e-05	-0.0001	3e-05	2e-05	-8e-05	3
10129	-1e-05	5e-05	0.00018	-5e-05	-0.0001	3e-05	2e-05	-8e-05	3
10130	-1e-05	5e-05	0.00018	-5e-05	-0.0001	3e-05	2e-05	-8e-05	3
10131	-1e-05	5e-05	0.00018	-5e-05	-0.0001	3e-05	2e-05	-8e-05	3
10132	-1e-05	5e-05	0.00018	-5e-05	-0.0001	3e-05	2e-05	-8e-05	3
10133	-1e-05	5e-05	0.00018	-5e-05	-0.0001	3e-05	2e-05	-8e-05	3
10134	-1e-05	5e-05	0.00018	-5e-05	-0.0001	3e-05	2e-05	-8e-05	3
10135	-1e-05	5e-05	0.00018	-5e-05	-0.0001	3e-05	2e-05	-8e-05	3
10136	-1e-05	5e-05	0.00018	-5e-05	-0.0001	3e-05	2e-05	-8e-05	3
10138	-1e-05	5e-05	0.00018	-5e-05	-0.0001	3e-05	2e-05	-8e-05	3
10139	-1e-05	5e-05	0.00018	-5e-05	-0.0001	3e-05	2e-05	-8e-05	3
10140	-1e-05	5e-05	0.00018	-5e-05	-0.0001	3e-05	2e-05	-8e-05	3
10141	-6e-05	-3e-05	0.0002	-2e-05	-0.00028	-0.00028	-8e-05	1e-05	3
10142	-6e-05	-3e-05	0.0002	-2e-05	-0.00028	-0.00028	-8e-05	1e-05	3
10143	-0.00014	0.00011	0.00018	-6e-05	-0.00031	-5e-05	0	0.00011	3
10144	-0.00014	0.00011	0.00018	-6e-05	-0.00031	-5e-05	0	0.00011	3
10145	-0.00014	0.00011	0.00018	-6e-05	-0.00031	-5e-05	0	0.00011	3
10146	-0.00014	0.00011	0.00018	-6e-05	-0.00031	-5e-05	0	0.00011	3
10148	-0.00014	0.00011	0.00018	-6e-05	-0.00031	-5e-05	0	0.00011	3
10149	-0.00014	0.00011	0.00018	-6e-05	-0.00031	-5e-05	0	0.00011	3
10150	-0.00014	0.00011	0.00018	-6e-05	-0.00031	-5e-05	0	0.00011	3
10151	-0.00014	0.00011	0.00018	-6e-05	-0.00031	-5e-05	0	0.00011	3
10152	-0.00014	0.00011	0.00018	-6e-05	-0.00031	-5e-05	0	0.00011	3
10153	-0.00014	0.00011	0.00018	-6e-05	-0.00031	-5e-05	0	0.00011	3
10154	-0.00014	0.00011	0.00018	-6e-05	-0.00031	-5e-05	0	0.00011	3
10155	-0.00014	0.00011	0.00018	-6e-05	-0.00031	-5e-05	0	0.00011	3
10156	-0.00014	0.00011	0.00018	-6e-05	-0.00031	-5e-05	0	0.00011	3
10157	-0.00014	0.00011	0.00018	-6e-05	-0.00031	-5e-05	0	0.00011	3
10158	-0.00014	0.00011	0.00018	-6e-05	-0.00031	-5e-05	0	0.00011	3
10159	-0.00014	0.00011	0.00018	-6e-05	-0.00031	-5e-05	0	0.00011	3
10160	-0.00014	0.00011	0.00018	-6e-05	-0.00031	-5e-05	0	0.00011	3
10161	-0.00014	0.00011	0.00018	-6e-05	-0.00031	-5e-05	0	0.00011	3
10162	-0.00014	0.00011	0.00018	-6e-05	-0.00031	-5e-05	0	0.00011	3
10163	-0.00014	0.00011	0.00018	-6e-05	-0.00031	-5e-05	0	0.00011	3
10164	-0.00023	-0.00014	0.00024	-8e-05	-0.00012	-0.00013	-9e-05	-6e-05	3
10165	-4e-05	-7e-05	0.00026	6e-05	7e-05	-2e-05	1e-05	-4e-05	3
10166	-4e-05	-7e-05	0.00026	6e-05	7e-05	-2e-05	1e-05	-4e-05	3
10167	-4e-05	-7e-05	0.00026	6e-05	7e-05	-2e-05	1e-05	-4e-05	3
10168	-4e-05	-7e-05	0.00026	6e-05	7e-05	-2e-05	1e-05	-4e-05	3
10170	-4e-05	-7e-05	0.00026	6e-05	7e-05	-2e-05	1e-05	-4e-05	3
10171	-4e-05	-7e-05	0.00026	6e-05	7e-05	-2e-05	1e-05	-4e-05	3
10172	-4e-05	-7e-05	0.00026	6e-05	7e-05	-2e-05	1e-05	-4e-05	3
10173	-4e-05	-7e-05	0.00026	6e-05	7e-05	-2e-05	1e-05	-4e-05	3
10174	-4e-05	-7e-05	0.00026	6e-05	7e-05	-2e-05	1e-05	-4e-05	3
10175	-4e-05	-7e-05	0.00026	6e-05	7e-05	-2e-05	1e-05	-4e-05	3
10176	-4e-05	-7e-05	0.00026	6e-05	7e-05	-2e-05	1e-05	-4e-05	3
10177	-4e-05	-7e-05	0.00026	6e-05	7e-05	-2e-05	1e-05	-4e-05	3
10178	2e-05	0.00016	-6e-05	0.00011	0.0001	-6e-05	-0.00018	-7e-05	3
10179	2e-05	0.00016	-6e-05	0.00011	0.0001	-6e-05	-0.00018	-7e-05	3
10180	2e-05	0.00016	-6e-05	0.00011	0.0001	-6e-05	-0.00018	-7e-05	3
10181	2e-05	0.00016	-6e-05	0.00011	0.0001	-6e-05	-0.00018	-7e-05	3
10182	2e-05	0.00016	-6e-05	0.00011	0.0001	-6e-05	-0.00018	-7e-05	3
10183	2e-05	0.00016	-6e-05	0.00011	0.0001	-6e-05	-0.00018	-7e-05	3
10184	2e-05	0.00016	-6e-05	0.00011	0.0001	-6e-05	-0.00018	-7e-05	3
10185	-0.00023	-0.00025	4e-05	5e-05	0.00019	0.00016	5e-05	6e-05	3
10186	-0.00023	-0.00025	4e-05	5e-05	0.00019	0.00016	5e-05	6e-05	3
10188	-0.00023	-0.00025	4e-05	5e-05	0.00019	0.00016	5e-05	6e-05	3
10189	-0.00023	-0.00025	4e-05	5e-05	0.00019	0.00016	5e-05	6e-05	3
10190	-0.00023	-0.00025	4e-05	5e-05	0.00019	0.00016	5e-05	6e-05	3
10191	-0.00023	-0.00025	4e-05	5e-05	0.00019	0.00016	5e-05	6e-05	3
10192	-0.00023	-0.00025	4e-05	5e-05	0.00019	0.00016	5e-05	6e-05	3
10193	-0.00023	-0.00025	4e-05	5e-05	0.00019	0.00016	5e-05	6e-05	3
10194	-0.00023	-0.00025	4e-05	5e-05	0.00019	0.00016	5e-05	6e-05	3
10195	-0.00023	-0.00025	4e-05	5e-05	0.00019	0.00016	5e-05	6e-05	3
10196	-0.00023	-0.00025	4e-05	5e-05	0.00019	0.00016	5e-05	6e-05	3
10197	-0.00023	-0.00025	4e-05	5e-05	0.00019	0.00016	5e-05	6e-05	3
10198	-0.00023	-0.00025	4e-05	5e-05	0.00019	0.00016	5e-05	6e-05	3
10199	-0.00023	-0.00025	4e-05	5e-05	0.00019	0.00016	5e-05	6e-05	3
10200	-0.00023	-0.00025	4e-05	5e-05	0.00019	0.00016	5e-05	6e-05	3
10201	-2e-05	-0.00015	-7e-05	2e-05	0.00018	-1e-05	0.0001	0.00012	3
10202	-2e-05	-0.00015	-7e-05	2e-05	0.00018	-1e-05	0.0001	0.00012	3
10203	0.00011	0.00034	3e-05	5e-05	0	3e-05	-3e-05	-0.00028	3
10204	0.00011	0.00034	3e-05	5e-05	0	3e-05	-3e-05	-0.00028	3
10205	0.00011	0.00034	3e-05	5e-05	0	3e-05	-3e-05	-0.00028	3
10206	0.00011	0.00034	3e-05	5e-05	0	3e-05	-3e-05	-0.00028	3
10207	0.00011	0.00034	3e-05	5e-05	0	3e-05	-3e-05	-0.00028	3
10208	0.00011	0.00034	3e-05	5e-05	0	3e-05	-3e-05	-0.00028	3
10209	0.00011	0.00034	3e-05	5e-05	0	3e-05	-3e-05	-0.00028	3
10210	0.00011	0.00034	3e-05	5e-05	0	3e-05	-3e-05	-0.00028	3
10211	0.00011	0.00034	3e-05	5e-05	0	3e-05	-3e-05	-0.00028	3
10212	0.00011	0.00034	3e-05	5e-05	0	3e-05	-3e-05	-0.00028	3
10213	0.00011	0.00034	3e-05	5e-05	0	3e-05	-3e-05	-0.00028	3
10214	0.00011	0.00034	3e-05	5e-05	0	3e-05	-3e-05	-0.00028	3
10215	0.00011	0.00034	3e-05	5e-05	0	3e-05	-3e-05	-0.00028	3
10216	0.00011	0.00034	3e-05	5e-05	0	3e-05	-3e-05	-0.00028	3
10218	0.00011	0.00034	3e-05	5e-05	0	3e-05	-3e-05	-0.00028	3
10219	0.00011	0.00034	3e-05	5e-05	0	3e-05	-3e-05	-0.00028	3
10220	0.00011	0.00034	3e-05	5e-05	0	3e-05	-3e-05	-0.00028	3
10221	0.00011	0.00034	3e-05	5e-05	0	3e-05	-3e-05	-0.00028	3
10222	0.00011	0.00034	3e-05	5e-05	0	3e-05	-3e-05	-0.00028	3
10223	0.00011	0.00034	3e-05	5e-05	0	3e-05	-3e-05	-0.00028	3
10224	0	-7e-05	-0.00017	4e-05	0.00012	-0.00019	-5e-05	-0.0002	3
10225	0.00022	-8e-05	2e-05	8e-05	0.00029	-0.00013	-4e-05	0.00032	3
10226	0.00022	-8e-05	2e-05	8e-05	0.00029	-0.00013	-4e-05	0.00032	3
10227	0.00022	-8e-05	2e-05	8e-05	0.00029	-0.00013	-4e-05	0.00032	3
10228	0.00022	-8e-05	2e-05	8e-05	0.00029	-0.00013	-4e-05	0.00032	3
10229	0.00022	-8e-05	2e-05	8e-05	0.00029	-0.00013	-4e-05	0.00032	3
10230	0.00022	-8e-05	2e-05	8e-05	0.00029	-0.00013	-4e-05	0.00032	3
10231	0.00022	-8e-05	2e-05	8e-05	0.00029	-0.00013	-4e-05	0.00032	3
10232	0.00022	-8e-05	2e-05	8e-05	0.00029	-0.00013	-4e-05	0.00032	3
10233	0.00022	-8e-05	2e-05	8e-05	0.00029	-0.00013	-4e-05	0.00032	3
10234	0.00022	-8e-05	2e-05	8e-05	0.00029	-0.00013	-4e-05	0.00032	3
10235	0.00022	-8e-05	2e-05	8e-05	0.00029	-0.00013	-4e-05	0.00032	3
10236	0.00022	-8e-05	2e-05	8e-05	0.00029	-0.00013	-4e-05	0.00032	3
10238	-1e-05	2e-05	-0.0001	0.00013	0.00029	5e-05	1e-05	1e-05	3
10239	-1e-05	2e-05	-0.0001	0.00013	0.00029	5e-05	1e-05	1e-05	3
10240	-1e-05	2e-05	-0.0001	0.00013	0.00029	5e-05	1e-05	1e-05	3
10241	-1e-05	2e-05	-0.0001	0.00013	0.00029	5e-05	1e-05	1e-05	3
10242	-1e-05	2e-05	-0.0001	0.00013	0.00029	5e-05	1e-05	1e-05	3
10243	-1e-05	2e-05	-0.0001	0.00013	0.00029	5e-05	1e-05	1e-05	3
10244	-1e-05	2e-05	-0.0001	0.00013	0.00029	5e-05	1e-05	1e-05	3
10245	-0.00012	3e-05	-0.00021	-0.00014	0	-5e-05	2e-05	-0.00011	3
10246	-0.00012	3e-05	-0.00021	-0.00014	0	-5e-05	2e-05	-0.00011	3
10248	-0.00012	3e-05	-0.00021	-0.00014	0	-5e-05	2e-05	-0.00011	3
10249	-0.00012	3e-05	-0.00021	-0.00014	0	-5e-05	2e-05	-0.00011	3
10250	-0.00012	3e-05	-0.00021	-0.00014	0	-5e-05	2e-05	-0.00011	3
10251	-0.00012	3e-05	-0.00021	-0.00014	0	-5e-05	2e-05	-0.00011	3
10252	-0.00012	3e-05	-0.00021	-0.00014	0	-5e-05	2e-05	-0.00011	3
10253	-0.00012	3e-05	-0.00021	-0.00014	0	-5e-05	2e-05	-0.00011	3
10254	-0.00012	3e-05	-0.00021	-0.00014	0	-5e-05	2e-05	-0.00011	3
10255	-0.00012	3e-05	-0.00021	-0.00014	0	-5e-05	2e-05	-0.00011	3
10256	-0.00012	3e-05	-0.00021	-0.00014	0	-5e-05	2e-05	-0.00011	3
10257	-0.00012	3e-05	-0.00021	-0.00014	0	-5e-05	2e-05	-0.00011	3
10258	-0.00012	3e-05	-0.00021	-0.00014	0	-5e-05	2e-05	-0.00011	3
10259	-0.00012	3e-05	-0.00021	-0.00014	0	-5e-05	2e-05	-0.00011	3
10260	-0.00012	3e-05	-0.00021	-0.00014	0	-5e-05	2e-05	-0.00011	3
10261	3e-05	0.00032	0.00058	0.00017	0.00011	0.00012	0	9e-05	3
10262	3e-05	0.00032	0.00058	0.00017	0.00011	0.00012	0	9e-05	3
10264	-0.00025	-0.00031	-0.00017	-0.00011	-0.0001	7e-05	-6e-05	-0.0002	3
10265	-0.00025	-0.00031	-0.00017	-0.00011	-0.0001	7e-05	-6e-05	-0.0002	3
10266	-0.00025	-0.00031	-0.00017	-0.00011	-0.0001	7e-05	-6e-05	-0.0002	3
10267	-0.00025	-0.00031	-0.00017	-0.00011	-0.0001	7e-05	-6e-05	-0.0002	3
10268	-0.00025	-0.00031	-0.00017	-0.00011	-0.0001	7e-05	-6e-05	-0.0002	3
10269	-0.00025	-0.00031	-0.00017	-0.00011	-0.0001	7e-05	-6e-05	-0.0002	3
10270	-0.00025	-0.00031	-0.00017	-0.00011	-0.0001	7e-05	-6e-05	-0.0002	3
10271	-0.00025	-0.00031	-0.00017	-0.00011	-0.0001	7e-05	-6e-05	-0.0002	3
10272	-0.00025	-0.00031	-0.00017	-0.00011	-0.0001	7e-05	-6e-05	-0.0002	3
10273	-0.00025	-0.00031	-0.00017	-0.00011	-0.0001	7e-05	-6e-05	-0.0002	3
10274	-0.00025	-0.00031	-0.00017	-0.00011	-0.0001	7e-05	-6e-05	-0.0002	3
10275	-0.00025	-0.00031	-0.00017	-0.00011	-0.0001	7e-05	-6e-05	-0.0002	3
10276	-0.00025	-0.00031	-0.00017	-0.00011	-0.0001	7e-05	-6e-05	-0.0002	3
10277	-0.00025	-0.00031	-0.00017	-0.00011	-0.0001	7e-05	-6e-05	-0.0002	3
10278	-0.00025	-0.00031	-0.00017	-0.00011	-0.0001	7e-05	-6e-05	-0.0002	3
10279	-0.00025	-0.00031	-0.00017	-0.00011	-0.0001	7e-05	-6e-05	-0.0002	3
10280	-0.00025	-0.00031	-0.00017	-0.00011	-0.0001	7e-05	-6e-05	-0.0002	3
10281	-0.00025	-0.00031	-0.00017	-0.00011	-0.0001	7e-05	-6e-05	-0.0002	3
10282	-0.00025	-0.00031	-0.00017	-0.00011	-0.0001	7e-05	-6e-05	-0.0002	3
10283	-0.00025	-0.00031	-0.00017	-0.00011	-0.0001	7e-05	-6e-05	-0.0002	3
10284	5e-05	-0.00011	9e-05	-4e-05	-0.00022	-7e-05	9e-05	8e-05	3
10285	9e-05	-0.00014	-0.00014	1e-05	9e-05	-5e-05	6e-05	3e-05	3
10286	9e-05	-0.00014	-0.00014	1e-05	9e-05	-5e-05	6e-05	3e-05	3
10288	9e-05	-0.00014	-0.00014	1e-05	9e-05	-5e-05	6e-05	3e-05	3
10289	9e-05	-0.00014	-0.00014	1e-05	9e-05	-5e-05	6e-05	3e-05	3
10290	9e-05	-0.00014	-0.00014	1e-05	9e-05	-5e-05	6e-05	3e-05	3
10291	9e-05	-0.00014	-0.00014	1e-05	9e-05	-5e-05	6e-05	3e-05	3
10292	9e-05	-0.00014	-0.00014	1e-05	9e-05	-5e-05	6e-05	3e-05	3
10293	9e-05	-0.00014	-0.00014	1e-05	9e-05	-5e-05	6e-05	3e-05	3
10294	9e-05	-0.00014	-0.00014	1e-05	9e-05	-5e-05	6e-05	3e-05	3
10295	9e-05	-0.00014	-0.00014	1e-05	9e-05	-5e-05	6e-05	3e-05	3
10296	9e-05	-0.00014	-0.00014	1e-05	9e-05	-5e-05	6e-05	3e-05	3
10297	9e-05	-0.00014	-0.00014	1e-05	9e-05	-5e-05	6e-05	3e-05	3
10298	-0.00021	-6e-05	-0.00029	-8e-05	-5e-05	0.00028	-6e-05	-0.00015	3
10299	-0.00021	-6e-05	-0.00029	-8e-05	-5e-05	0.00028	-6e-05	-0.00015	3
10300	-0.00021	-6e-05	-0.00029	-8e-05	-5e-05	0.00028	-6e-05	-0.00015	3
10301	-0.00021	-6e-05	-0.00029	-8e-05	-5e-05	0.00028	-6e-05	-0.00015	3
10302	-0.00021	-6e-05	-0.00029	-8e-05	-5e-05	0.00028	-6e-05	-0.00015	3
10303	-0.00021	-6e-05	-0.00029	-8e-05	-5e-05	0.00028	-6e-05	-0.00015	3
10304	-0.00021	-6e-05	-0.00029	-8e-05	-5e-05	0.00028	-6e-05	-0.00015	3
10305	0.00025	4e-05	7e-05	3e-05	1e-05	-8e-05	-5e-05	4e-05	3
10306	0.00025	4e-05	7e-05	3e-05	1e-05	-8e-05	-5e-05	4e-05	3
10307	0.00025	4e-05	7e-05	3e-05	1e-05	-8e-05	-5e-05	4e-05	3
10308	0.00025	4e-05	7e-05	3e-05	1e-05	-8e-05	-5e-05	4e-05	3
10309	0.00025	4e-05	7e-05	3e-05	1e-05	-8e-05	-5e-05	4e-05	3
10311	0.00025	4e-05	7e-05	3e-05	1e-05	-8e-05	-5e-05	4e-05	3
10312	0.00025	4e-05	7e-05	3e-05	1e-05	-8e-05	-5e-05	4e-05	3
10313	0.00025	4e-05	7e-05	3e-05	1e-05	-8e-05	-5e-05	4e-05	3
10314	0.00025	4e-05	7e-05	3e-05	1e-05	-8e-05	-5e-05	4e-05	3
10315	0.00025	4e-05	7e-05	3e-05	1e-05	-8e-05	-5e-05	4e-05	3
10316	0.00025	4e-05	7e-05	3e-05	1e-05	-8e-05	-5e-05	4e-05	3
10317	0.00025	4e-05	7e-05	3e-05	1e-05	-8e-05	-5e-05	4e-05	3
10318	0.00025	4e-05	7e-05	3e-05	1e-05	-8e-05	-5e-05	4e-05	3
10319	0.00025	4e-05	7e-05	3e-05	1e-05	-8e-05	-5e-05	4e-05	3
10320	0.00025	4e-05	7e-05	3e-05	1e-05	-8e-05	-5e-05	4e-05	3
10321	9e-05	2e-05	8e-05	-8e-05	-0.00018	-0.0001	-0.00014	5e-05	3
10322	9e-05	2e-05	8e-05	-8e-05	-0.00018	-0.0001	-0.00014	5e-05	3
10323	-0.00018	0.00011	0.00024	0.00026	0.0004	8e-05	7e-05	-6e-05	3
10324	-0.00018	0.00011	0.00024	0.00026	0.0004	8e-05	7e-05	-6e-05	3
10325	-0.00018	0.00011	0.00024	0.00026	0.0004	8e-05	7e-05	-6e-05	3
10326	-0.00018	0.00011	0.00024	0.00026	0.0004	8e-05	7e-05	-6e-05	3
10327	-0.00018	0.00011	0.00024	0.00026	0.0004	8e-05	7e-05	-6e-05	3
10328	-0.00018	0.00011	0.00024	0.00026	0.0004	8e-05	7e-05	-6e-05	3
10329	-0.00018	0.00011	0.00024	0.00026	0.0004	8e-05	7e-05	-6e-05	3
10330	-0.00018	0.00011	0.00024	0.00026	0.0004	8e-05	7e-05	-6e-05	3
10331	-0.00018	0.00011	0.00024	0.00026	0.0004	8e-05	7e-05	-6e-05	3
10332	-0.00018	0.00011	0.00024	0.00026	0.0004	8e-05	7e-05	-6e-05	3
10333	-0.00018	0.00011	0.00024	0.00026	0.0004	8e-05	7e-05	-6e-05	3
10334	-0.00018	0.00011	0.00024	0.00026	0.0004	8e-05	7e-05	-6e-05	3
10335	-0.00018	0.00011	0.00024	0.00026	0.0004	8e-05	7e-05	-6e-05	3
10336	-0.00018	0.00011	0.00024	0.00026	0.0004	8e-05	7e-05	-6e-05	3
10338	-0.00018	0.00011	0.00024	0.00026	0.0004	8e-05	7e-05	-6e-05	3
10339	-0.00018	0.00011	0.00024	0.00026	0.0004	8e-05	7e-05	-6e-05	3
10340	-0.00018	0.00011	0.00024	0.00026	0.0004	8e-05	7e-05	-6e-05	3
10341	-0.00018	0.00011	0.00024	0.00026	0.0004	8e-05	7e-05	-6e-05	3
10342	-0.00018	0.00011	0.00024	0.00026	0.0004	8e-05	7e-05	-6e-05	3
10343	-0.00018	0.00011	0.00024	0.00026	0.0004	8e-05	7e-05	-6e-05	3
10344	0.00013	0.00016	-0.00012	-5e-05	-0.0001	-7e-05	9e-05	2e-05	3
10345	0.00018	0.00016	0.0001	5e-05	0.00011	-0.00014	-9e-05	-0.00023	3
10346	0.00018	0.00016	0.0001	5e-05	0.00011	-0.00014	-9e-05	-0.00023	3
10347	0.00018	0.00016	0.0001	5e-05	0.00011	-0.00014	-9e-05	-0.00023	3
10348	0.00018	0.00016	0.0001	5e-05	0.00011	-0.00014	-9e-05	-0.00023	3
10349	0.00018	0.00016	0.0001	5e-05	0.00011	-0.00014	-9e-05	-0.00023	3
10350	0.00018	0.00016	0.0001	5e-05	0.00011	-0.00014	-9e-05	-0.00023	3
10351	0.00018	0.00016	0.0001	5e-05	0.00011	-0.00014	-9e-05	-0.00023	3
10352	0.00018	0.00016	0.0001	5e-05	0.00011	-0.00014	-9e-05	-0.00023	3
10353	0.00018	0.00016	0.0001	5e-05	0.00011	-0.00014	-9e-05	-0.00023	3
10354	0.00018	0.00016	0.0001	5e-05	0.00011	-0.00014	-9e-05	-0.00023	3
10355	0.00018	0.00016	0.0001	5e-05	0.00011	-0.00014	-9e-05	-0.00023	3
10356	0.00018	0.00016	0.0001	5e-05	0.00011	-0.00014	-9e-05	-0.00023	3
10358	-0.00074	-0.00024	-6e-05	-9e-05	-0.00013	0.00014	0	-0.00012	3
10359	-0.00074	-0.00024	-6e-05	-9e-05	-0.00013	0.00014	0	-0.00012	3
10360	-0.00074	-0.00024	-6e-05	-9e-05	-0.00013	0.00014	0	-0.00012	3
10361	-0.00074	-0.00024	-6e-05	-9e-05	-0.00013	0.00014	0	-0.00012	3
10362	-0.00074	-0.00024	-6e-05	-9e-05	-0.00013	0.00014	0	-0.00012	3
10363	-0.00074	-0.00024	-6e-05	-9e-05	-0.00013	0.00014	0	-0.00012	3
10364	-0.00074	-0.00024	-6e-05	-9e-05	-0.00013	0.00014	0	-0.00012	3
10365	8e-05	8e-05	-0.00016	6e-05	0.00011	2e-05	1e-05	0.00011	3
10366	8e-05	8e-05	-0.00016	6e-05	0.00011	2e-05	1e-05	0.00011	3
10367	8e-05	8e-05	-0.00016	6e-05	0.00011	2e-05	1e-05	0.00011	3
10368	8e-05	8e-05	-0.00016	6e-05	0.00011	2e-05	1e-05	0.00011	3
10369	8e-05	8e-05	-0.00016	6e-05	0.00011	2e-05	1e-05	0.00011	3
10370	8e-05	8e-05	-0.00016	6e-05	0.00011	2e-05	1e-05	0.00011	3
10371	8e-05	8e-05	-0.00016	6e-05	0.00011	2e-05	1e-05	0.00011	3
10372	8e-05	8e-05	-0.00016	6e-05	0.00011	2e-05	1e-05	0.00011	3
10373	8e-05	8e-05	-0.00016	6e-05	0.00011	2e-05	1e-05	0.00011	3
10374	8e-05	8e-05	-0.00016	6e-05	0.00011	2e-05	1e-05	0.00011	3
10375	8e-05	8e-05	-0.00016	6e-05	0.00011	2e-05	1e-05	0.00011	3
10376	8e-05	8e-05	-0.00016	6e-05	0.00011	2e-05	1e-05	0.00011	3
10377	8e-05	8e-05	-0.00016	6e-05	0.00011	2e-05	1e-05	0.00011	3
10378	8e-05	8e-05	-0.00016	6e-05	0.00011	2e-05	1e-05	0.00011	3
10379	8e-05	8e-05	-0.00016	6e-05	0.00011	2e-05	1e-05	0.00011	3
10380	8e-05	8e-05	-0.00016	6e-05	0.00011	2e-05	1e-05	0.00011	3
10381	0.00016	-0.00025	-0.00012	-7e-05	-0.0002	1e-05	1e-05	5e-05	3
10382	0.00016	-0.00025	-0.00012	-7e-05	-0.0002	1e-05	1e-05	5e-05	3
10383	-0.00045	-0.00016	-0.00017	-2e-05	0.00027	7e-05	3e-05	0.00014	3
10384	-0.00045	-0.00016	-0.00017	-2e-05	0.00027	7e-05	3e-05	0.00014	3
10385	-0.00045	-0.00016	-0.00017	-2e-05	0.00027	7e-05	3e-05	0.00014	3
10386	-0.00045	-0.00016	-0.00017	-2e-05	0.00027	7e-05	3e-05	0.00014	3
10388	-0.00045	-0.00016	-0.00017	-2e-05	0.00027	7e-05	3e-05	0.00014	3
10389	-0.00045	-0.00016	-0.00017	-2e-05	0.00027	7e-05	3e-05	0.00014	3
10390	-0.00045	-0.00016	-0.00017	-2e-05	0.00027	7e-05	3e-05	0.00014	3
10391	-0.00045	-0.00016	-0.00017	-2e-05	0.00027	7e-05	3e-05	0.00014	3
10392	-0.00045	-0.00016	-0.00017	-2e-05	0.00027	7e-05	3e-05	0.00014	3
10393	-0.00045	-0.00016	-0.00017	-2e-05	0.00027	7e-05	3e-05	0.00014	3
10394	-0.00045	-0.00016	-0.00017	-2e-05	0.00027	7e-05	3e-05	0.00014	3
10395	-0.00045	-0.00016	-0.00017	-2e-05	0.00027	7e-05	3e-05	0.00014	3
10396	-0.00045	-0.00016	-0.00017	-2e-05	0.00027	7e-05	3e-05	0.00014	3
10397	-0.00045	-0.00016	-0.00017	-2e-05	0.00027	7e-05	3e-05	0.00014	3
10398	-0.00045	-0.00016	-0.00017	-2e-05	0.00027	7e-05	3e-05	0.00014	3
10399	-0.00045	-0.00016	-0.00017	-2e-05	0.00027	7e-05	3e-05	0.00014	3
10400	-0.00045	-0.00016	-0.00017	-2e-05	0.00027	7e-05	3e-05	0.00014	3
10401	-0.00045	-0.00016	-0.00017	-2e-05	0.00027	7e-05	3e-05	0.00014	3
10402	-0.00045	-0.00016	-0.00017	-2e-05	0.00027	7e-05	3e-05	0.00014	3
10404	-0.00045	-0.00016	-0.00017	-2e-05	0.00027	7e-05	3e-05	0.00014	3
10405	0.00063	0.00044	0.00032	8e-05	-0.00025	6e-05	5e-05	0.00021	3
10406	0.00063	0.00044	0.00032	8e-05	-0.00025	6e-05	5e-05	0.00021	3
10407	0.00063	0.00044	0.00032	8e-05	-0.00025	6e-05	5e-05	0.00021	3
10408	0.00063	0.00044	0.00032	8e-05	-0.00025	6e-05	5e-05	0.00021	3
10409	0.00063	0.00044	0.00032	8e-05	-0.00025	6e-05	5e-05	0.00021	3
10410	0.00063	0.00044	0.00032	8e-05	-0.00025	6e-05	5e-05	0.00021	3
10411	0.00063	0.00044	0.00032	8e-05	-0.00025	6e-05	5e-05	0.00021	3
10412	0.00063	0.00044	0.00032	8e-05	-0.00025	6e-05	5e-05	0.00021	3
10413	0.00063	0.00044	0.00032	8e-05	-0.00025	6e-05	5e-05	0.00021	3
10414	0.00063	0.00044	0.00032	8e-05	-0.00025	6e-05	5e-05	0.00021	3
10415	0.00063	0.00044	0.00032	8e-05	-0.00025	6e-05	5e-05	0.00021	3
10416	0.00063	0.00044	0.00032	8e-05	-0.00025	6e-05	5e-05	0.00021	3
10417	0.00063	0.00044	0.00032	8e-05	-0.00025	6e-05	5e-05	0.00021	3
10418	-5e-05	-0.00011	-0.00029	-0.00016	-1e-05	-4e-05	-1e-05	-0.00017	3
10419	-5e-05	-0.00011	-0.00029	-0.00016	-1e-05	-4e-05	-1e-05	-0.00017	3
10420	-5e-05	-0.00011	-0.00029	-0.00016	-1e-05	-4e-05	-1e-05	-0.00017	3
10421	-5e-05	-0.00011	-0.00029	-0.00016	-1e-05	-4e-05	-1e-05	-0.00017	3
10422	-5e-05	-0.00011	-0.00029	-0.00016	-1e-05	-4e-05	-1e-05	-0.00017	3
10423	-5e-05	-0.00011	-0.00029	-0.00016	-1e-05	-4e-05	-1e-05	-0.00017	3
10424	-5e-05	-0.00011	-0.00029	-0.00016	-1e-05	-4e-05	-1e-05	-0.00017	3
10425	9e-05	-9e-05	-7e-05	-0.0001	-0.00023	-2e-05	-0.00011	7e-05	3
10426	9e-05	-9e-05	-7e-05	-0.0001	-0.00023	-2e-05	-0.00011	7e-05	3
10427	9e-05	-9e-05	-7e-05	-0.0001	-0.00023	-2e-05	-0.00011	7e-05	3
10428	9e-05	-9e-05	-7e-05	-0.0001	-0.00023	-2e-05	-0.00011	7e-05	3
10429	9e-05	-9e-05	-7e-05	-0.0001	-0.00023	-2e-05	-0.00011	7e-05	3
10430	9e-05	-9e-05	-7e-05	-0.0001	-0.00023	-2e-05	-0.00011	7e-05	3
10431	9e-05	-9e-05	-7e-05	-0.0001	-0.00023	-2e-05	-0.00011	7e-05	3
10432	9e-05	-9e-05	-7e-05	-0.0001	-0.00023	-2e-05	-0.00011	7e-05	3
10433	9e-05	-9e-05	-7e-05	-0.0001	-0.00023	-2e-05	-0.00011	7e-05	3
10434	9e-05	-9e-05	-7e-05	-0.0001	-0.00023	-2e-05	-0.00011	7e-05	3
10435	9e-05	-9e-05	-7e-05	-0.0001	-0.00023	-2e-05	-0.00011	7e-05	3
10436	9e-05	-9e-05	-7e-05	-0.0001	-0.00023	-2e-05	-0.00011	7e-05	3
10438	9e-05	-9e-05	-7e-05	-0.0001	-0.00023	-2e-05	-0.00011	7e-05	3
10439	9e-05	-9e-05	-7e-05	-0.0001	-0.00023	-2e-05	-0.00011	7e-05	3
10440	9e-05	-9e-05	-7e-05	-0.0001	-0.00023	-2e-05	-0.00011	7e-05	3
10441	5e-05	4e-05	3e-05	7e-05	-3e-05	-3e-05	-3e-05	-0.00024	3
10442	5e-05	4e-05	3e-05	7e-05	-3e-05	-3e-05	-3e-05	-0.00024	3
10443	-0.00054	-0.00019	-0.00042	-0.00018	-0.00012	-2e-05	1e-05	-0.00016	3
10444	-0.00054	-0.00019	-0.00042	-0.00018	-0.00012	-2e-05	1e-05	-0.00016	3
10445	-0.00054	-0.00019	-0.00042	-0.00018	-0.00012	-2e-05	1e-05	-0.00016	3
10446	-0.00054	-0.00019	-0.00042	-0.00018	-0.00012	-2e-05	1e-05	-0.00016	3
10447	-0.00054	-0.00019	-0.00042	-0.00018	-0.00012	-2e-05	1e-05	-0.00016	3
10448	-0.00054	-0.00019	-0.00042	-0.00018	-0.00012	-2e-05	1e-05	-0.00016	3
10449	-0.00054	-0.00019	-0.00042	-0.00018	-0.00012	-2e-05	1e-05	-0.00016	3
10450	-0.00054	-0.00019	-0.00042	-0.00018	-0.00012	-2e-05	1e-05	-0.00016	3
10452	-0.00054	-0.00019	-0.00042	-0.00018	-0.00012	-2e-05	1e-05	-0.00016	3
10453	-0.00054	-0.00019	-0.00042	-0.00018	-0.00012	-2e-05	1e-05	-0.00016	3
10454	-0.00054	-0.00019	-0.00042	-0.00018	-0.00012	-2e-05	1e-05	-0.00016	3
10455	-0.00054	-0.00019	-0.00042	-0.00018	-0.00012	-2e-05	1e-05	-0.00016	3
10456	-0.00054	-0.00019	-0.00042	-0.00018	-0.00012	-2e-05	1e-05	-0.00016	3
10457	-0.00054	-0.00019	-0.00042	-0.00018	-0.00012	-2e-05	1e-05	-0.00016	3
10458	-0.00054	-0.00019	-0.00042	-0.00018	-0.00012	-2e-05	1e-05	-0.00016	3
10459	-0.00054	-0.00019	-0.00042	-0.00018	-0.00012	-2e-05	1e-05	-0.00016	3
10460	-0.00054	-0.00019	-0.00042	-0.00018	-0.00012	-2e-05	1e-05	-0.00016	3
10461	-0.00054	-0.00019	-0.00042	-0.00018	-0.00012	-2e-05	1e-05	-0.00016	3
10462	-0.00054	-0.00019	-0.00042	-0.00018	-0.00012	-2e-05	1e-05	-0.00016	3
10463	-0.00054	-0.00019	-0.00042	-0.00018	-0.00012	-2e-05	1e-05	-0.00016	3
10464	-1e-05	9e-05	0.00042	0.00022	0.00012	-7e-05	1e-05	-4e-05	3
10465	6e-05	-0.00034	-0.00051	-0.00017	-0.00017	-8e-05	-8e-05	3e-05	3
10466	6e-05	-0.00034	-0.00051	-0.00017	-0.00017	-8e-05	-8e-05	3e-05	3
10467	6e-05	-0.00034	-0.00051	-0.00017	-0.00017	-8e-05	-8e-05	3e-05	3
10468	6e-05	-0.00034	-0.00051	-0.00017	-0.00017	-8e-05	-8e-05	3e-05	3
10469	6e-05	-0.00034	-0.00051	-0.00017	-0.00017	-8e-05	-8e-05	3e-05	3
10470	6e-05	-0.00034	-0.00051	-0.00017	-0.00017	-8e-05	-8e-05	3e-05	3
10471	6e-05	-0.00034	-0.00051	-0.00017	-0.00017	-8e-05	-8e-05	3e-05	3
10472	6e-05	-0.00034	-0.00051	-0.00017	-0.00017	-8e-05	-8e-05	3e-05	3
10473	6e-05	-0.00034	-0.00051	-0.00017	-0.00017	-8e-05	-8e-05	3e-05	3
10474	6e-05	-0.00034	-0.00051	-0.00017	-0.00017	-8e-05	-8e-05	3e-05	3
10475	6e-05	-0.00034	-0.00051	-0.00017	-0.00017	-8e-05	-8e-05	3e-05	3
10476	6e-05	-0.00034	-0.00051	-0.00017	-0.00017	-8e-05	-8e-05	3e-05	3
10477	-1e-05	0.00026	0.00012	2e-05	0.00021	1e-05	2e-05	6e-05	3
10478	-1e-05	0.00026	0.00012	2e-05	0.00021	1e-05	2e-05	6e-05	3
10479	-1e-05	0.00026	0.00012	2e-05	0.00021	1e-05	2e-05	6e-05	3
10480	-1e-05	0.00026	0.00012	2e-05	0.00021	1e-05	2e-05	6e-05	3
10481	-1e-05	0.00026	0.00012	2e-05	0.00021	1e-05	2e-05	6e-05	3
10482	-1e-05	0.00026	0.00012	2e-05	0.00021	1e-05	2e-05	6e-05	3
10486	1e-05	0.0001	0.00044	0.00017	0.00012	2e-05	8e-05	4e-05	3
10487	1e-05	0.0001	0.00044	0.00017	0.00012	2e-05	8e-05	4e-05	3
10488	1e-05	0.0001	0.00044	0.00017	0.00012	2e-05	8e-05	4e-05	3
10489	1e-05	0.0001	0.00044	0.00017	0.00012	2e-05	8e-05	4e-05	3
10490	1e-05	0.0001	0.00044	0.00017	0.00012	2e-05	8e-05	4e-05	3
10491	1e-05	0.0001	0.00044	0.00017	0.00012	2e-05	8e-05	4e-05	3
10492	1e-05	0.0001	0.00044	0.00017	0.00012	2e-05	8e-05	4e-05	3
10493	1e-05	0.0001	0.00044	0.00017	0.00012	2e-05	8e-05	4e-05	3
10494	1e-05	0.0001	0.00044	0.00017	0.00012	2e-05	8e-05	4e-05	3
10495	1e-05	0.0001	0.00044	0.00017	0.00012	2e-05	8e-05	4e-05	3
10496	1e-05	0.0001	0.00044	0.00017	0.00012	2e-05	8e-05	4e-05	3
10497	1e-05	0.0001	0.00044	0.00017	0.00012	2e-05	8e-05	4e-05	3
10499	1e-05	0.0001	0.00044	0.00017	0.00012	2e-05	8e-05	4e-05	3
10500	1e-05	0.0001	0.00044	0.00017	0.00012	2e-05	8e-05	4e-05	3
10501	0.00035	-0.00023	-0.00046	-0.00021	0.00012	0.00035	3e-05	5e-05	3
10502	0.00035	-0.00023	-0.00046	-0.00021	0.00012	0.00035	3e-05	5e-05	3
10503	0.00024	0.00013	-0.00036	-5e-05	7e-05	0.00013	-2e-05	-7e-05	3
10504	0.00024	0.00013	-0.00036	-5e-05	7e-05	0.00013	-2e-05	-7e-05	3
10505	0.00024	0.00013	-0.00036	-5e-05	7e-05	0.00013	-2e-05	-7e-05	3
10506	0.00024	0.00013	-0.00036	-5e-05	7e-05	0.00013	-2e-05	-7e-05	3
10507	0.00024	0.00013	-0.00036	-5e-05	7e-05	0.00013	-2e-05	-7e-05	3
10508	0.00024	0.00013	-0.00036	-5e-05	7e-05	0.00013	-2e-05	-7e-05	3
10509	0.00024	0.00013	-0.00036	-5e-05	7e-05	0.00013	-2e-05	-7e-05	3
10510	0.00024	0.00013	-0.00036	-5e-05	7e-05	0.00013	-2e-05	-7e-05	3
10511	0.00024	0.00013	-0.00036	-5e-05	7e-05	0.00013	-2e-05	-7e-05	3
10512	0.00024	0.00013	-0.00036	-5e-05	7e-05	0.00013	-2e-05	-7e-05	3
10513	0.00024	0.00013	-0.00036	-5e-05	7e-05	0.00013	-2e-05	-7e-05	3
10514	0.00024	0.00013	-0.00036	-5e-05	7e-05	0.00013	-2e-05	-7e-05	3
10515	0.00024	0.00013	-0.00036	-5e-05	7e-05	0.00013	-2e-05	-7e-05	3
10516	0.00024	0.00013	-0.00036	-5e-05	7e-05	0.00013	-2e-05	-7e-05	3
10517	0.00024	0.00013	-0.00036	-5e-05	7e-05	0.00013	-2e-05	-7e-05	3
10518	0.00024	0.00013	-0.00036	-5e-05	7e-05	0.00013	-2e-05	-7e-05	3
10519	0.00024	0.00013	-0.00036	-5e-05	7e-05	0.00013	-2e-05	-7e-05	3
10520	0.00024	0.00013	-0.00036	-5e-05	7e-05	0.00013	-2e-05	-7e-05	3
10521	0.00024	0.00013	-0.00036	-5e-05	7e-05	0.00013	-2e-05	-7e-05	3
10522	0.00024	0.00013	-0.00036	-5e-05	7e-05	0.00013	-2e-05	-7e-05	3
10523	0.00024	0.00013	-0.00036	-5e-05	7e-05	0.00013	-2e-05	-7e-05	3
10524	-0.0002	0.0001	0.00027	0.0001	2e-05	-0.00011	-5e-05	-8e-05	3
10525	2e-05	-6e-05	0.00015	0	-1e-05	0.00011	-1e-05	-2e-05	3
10526	2e-05	-6e-05	0.00015	0	-1e-05	0.00011	-1e-05	-2e-05	3
10527	2e-05	-6e-05	0.00015	0	-1e-05	0.00011	-1e-05	-2e-05	3
10528	2e-05	-6e-05	0.00015	0	-1e-05	0.00011	-1e-05	-2e-05	3
10529	2e-05	-6e-05	0.00015	0	-1e-05	0.00011	-1e-05	-2e-05	3
10530	2e-05	-6e-05	0.00015	0	-1e-05	0.00011	-1e-05	-2e-05	3
10531	2e-05	-6e-05	0.00015	0	-1e-05	0.00011	-1e-05	-2e-05	3
10532	2e-05	-6e-05	0.00015	0	-1e-05	0.00011	-1e-05	-2e-05	3
10533	2e-05	-6e-05	0.00015	0	-1e-05	0.00011	-1e-05	-2e-05	3
10534	2e-05	-6e-05	0.00015	0	-1e-05	0.00011	-1e-05	-2e-05	3
10535	2e-05	-6e-05	0.00015	0	-1e-05	0.00011	-1e-05	-2e-05	3
10536	2e-05	-6e-05	0.00015	0	-1e-05	0.00011	-1e-05	-2e-05	3
10538	-4e-05	-6e-05	-0.00011	-0.00021	-0.00033	-0.0001	3e-05	0.0001	3
10539	-4e-05	-6e-05	-0.00011	-0.00021	-0.00033	-0.0001	3e-05	0.0001	3
10540	-4e-05	-6e-05	-0.00011	-0.00021	-0.00033	-0.0001	3e-05	0.0001	3
10541	-4e-05	-6e-05	-0.00011	-0.00021	-0.00033	-0.0001	3e-05	0.0001	3
10542	-4e-05	-6e-05	-0.00011	-0.00021	-0.00033	-0.0001	3e-05	0.0001	3
10543	-4e-05	-6e-05	-0.00011	-0.00021	-0.00033	-0.0001	3e-05	0.0001	3
10545	-4e-05	-6e-05	-0.00011	-0.00021	-0.00033	-0.0001	3e-05	0.0001	3
10546	-0.00018	-0.0001	-2e-05	-0.00021	-0.00054	-0.00025	-5e-05	7e-05	3
10547	-0.00018	-0.0001	-2e-05	-0.00021	-0.00054	-0.00025	-5e-05	7e-05	3
10548	-0.00018	-0.0001	-2e-05	-0.00021	-0.00054	-0.00025	-5e-05	7e-05	3
10549	-0.00018	-0.0001	-2e-05	-0.00021	-0.00054	-0.00025	-5e-05	7e-05	3
10550	-0.00018	-0.0001	-2e-05	-0.00021	-0.00054	-0.00025	-5e-05	7e-05	3
10551	-0.00018	-0.0001	-2e-05	-0.00021	-0.00054	-0.00025	-5e-05	7e-05	3
10552	-0.00018	-0.0001	-2e-05	-0.00021	-0.00054	-0.00025	-5e-05	7e-05	3
10553	-0.00018	-0.0001	-2e-05	-0.00021	-0.00054	-0.00025	-5e-05	7e-05	3
10554	-0.00018	-0.0001	-2e-05	-0.00021	-0.00054	-0.00025	-5e-05	7e-05	3
10555	-0.00018	-0.0001	-2e-05	-0.00021	-0.00054	-0.00025	-5e-05	7e-05	3
10556	-0.00018	-0.0001	-2e-05	-0.00021	-0.00054	-0.00025	-5e-05	7e-05	3
10557	-0.00018	-0.0001	-2e-05	-0.00021	-0.00054	-0.00025	-5e-05	7e-05	3
10558	-0.00018	-0.0001	-2e-05	-0.00021	-0.00054	-0.00025	-5e-05	7e-05	3
10559	-0.00018	-0.0001	-2e-05	-0.00021	-0.00054	-0.00025	-5e-05	7e-05	3
10560	-0.00018	-0.0001	-2e-05	-0.00021	-0.00054	-0.00025	-5e-05	7e-05	3
10561	0.00023	-7e-05	0.00013	-0.0001	0	-8e-05	5e-05	0.00024	3
10562	0.00023	-7e-05	0.00013	-0.0001	0	-8e-05	5e-05	0.00024	3
10563	8e-05	-2e-05	0.00012	0.0001	-0.00015	-6e-05	-5e-05	-9e-05	3
10564	8e-05	-2e-05	0.00012	0.0001	-0.00015	-6e-05	-5e-05	-9e-05	3
10565	8e-05	-2e-05	0.00012	0.0001	-0.00015	-6e-05	-5e-05	-9e-05	3
10566	8e-05	-2e-05	0.00012	0.0001	-0.00015	-6e-05	-5e-05	-9e-05	3
10567	8e-05	-2e-05	0.00012	0.0001	-0.00015	-6e-05	-5e-05	-9e-05	3
10568	8e-05	-2e-05	0.00012	0.0001	-0.00015	-6e-05	-5e-05	-9e-05	3
10569	8e-05	-2e-05	0.00012	0.0001	-0.00015	-6e-05	-5e-05	-9e-05	3
10570	8e-05	-2e-05	0.00012	0.0001	-0.00015	-6e-05	-5e-05	-9e-05	3
10571	8e-05	-2e-05	0.00012	0.0001	-0.00015	-6e-05	-5e-05	-9e-05	3
10572	8e-05	-2e-05	0.00012	0.0001	-0.00015	-6e-05	-5e-05	-9e-05	3
10573	8e-05	-2e-05	0.00012	0.0001	-0.00015	-6e-05	-5e-05	-9e-05	3
10574	8e-05	-2e-05	0.00012	0.0001	-0.00015	-6e-05	-5e-05	-9e-05	3
10575	8e-05	-2e-05	0.00012	0.0001	-0.00015	-6e-05	-5e-05	-9e-05	3
10576	8e-05	-2e-05	0.00012	0.0001	-0.00015	-6e-05	-5e-05	-9e-05	3
10577	8e-05	-2e-05	0.00012	0.0001	-0.00015	-6e-05	-5e-05	-9e-05	3
10578	8e-05	-2e-05	0.00012	0.0001	-0.00015	-6e-05	-5e-05	-9e-05	3
10579	8e-05	-2e-05	0.00012	0.0001	-0.00015	-6e-05	-5e-05	-9e-05	3
10580	8e-05	-2e-05	0.00012	0.0001	-0.00015	-6e-05	-5e-05	-9e-05	3
10581	8e-05	-2e-05	0.00012	0.0001	-0.00015	-6e-05	-5e-05	-9e-05	3
10582	8e-05	-2e-05	0.00012	0.0001	-0.00015	-6e-05	-5e-05	-9e-05	3
10583	8e-05	-2e-05	0.00012	0.0001	-0.00015	-6e-05	-5e-05	-9e-05	3
10584	-0.00019	-0.00031	-0.00035	-0.00015	-0.00016	4e-05	-3e-05	-0.00023	3
10585	-0.00012	-0.00019	-0.00012	-4e-05	-0.00015	0.00013	0.00012	0.00039	3
10586	-0.00012	-0.00019	-0.00012	-4e-05	-0.00015	0.00013	0.00012	0.00039	3
10588	-0.00012	-0.00019	-0.00012	-4e-05	-0.00015	0.00013	0.00012	0.00039	3
10589	-0.00012	-0.00019	-0.00012	-4e-05	-0.00015	0.00013	0.00012	0.00039	3
10590	-0.00012	-0.00019	-0.00012	-4e-05	-0.00015	0.00013	0.00012	0.00039	3
10591	-0.00012	-0.00019	-0.00012	-4e-05	-0.00015	0.00013	0.00012	0.00039	3
10593	-0.00012	-0.00019	-0.00012	-4e-05	-0.00015	0.00013	0.00012	0.00039	3
10594	-0.00012	-0.00019	-0.00012	-4e-05	-0.00015	0.00013	0.00012	0.00039	3
10595	-0.00012	-0.00019	-0.00012	-4e-05	-0.00015	0.00013	0.00012	0.00039	3
10596	-0.00012	-0.00019	-0.00012	-4e-05	-0.00015	0.00013	0.00012	0.00039	3
10598	-0.00014	4e-05	0.00011	4e-05	0.00012	0.0001	6e-05	-7e-05	3
10599	-0.00014	4e-05	0.00011	4e-05	0.00012	0.0001	6e-05	-7e-05	3
10600	-0.00014	4e-05	0.00011	4e-05	0.00012	0.0001	6e-05	-7e-05	3
10601	-0.00014	4e-05	0.00011	4e-05	0.00012	0.0001	6e-05	-7e-05	3
10602	-0.00014	4e-05	0.00011	4e-05	0.00012	0.0001	6e-05	-7e-05	3
10603	-0.00014	4e-05	0.00011	4e-05	0.00012	0.0001	6e-05	-7e-05	3
10604	-0.00014	4e-05	0.00011	4e-05	0.00012	0.0001	6e-05	-7e-05	3
10605	-0.00014	4e-05	0.00011	4e-05	0.00012	0.0001	6e-05	-7e-05	3
10606	0.00013	0.00025	0.00021	-2e-05	9e-05	-9e-05	1e-05	-0.0001	3
10607	0.00013	0.00025	0.00021	-2e-05	9e-05	-9e-05	1e-05	-0.0001	3
10608	0.00013	0.00025	0.00021	-2e-05	9e-05	-9e-05	1e-05	-0.0001	3
10609	0.00013	0.00025	0.00021	-2e-05	9e-05	-9e-05	1e-05	-0.0001	3
10610	0.00013	0.00025	0.00021	-2e-05	9e-05	-9e-05	1e-05	-0.0001	3
10611	0.00013	0.00025	0.00021	-2e-05	9e-05	-9e-05	1e-05	-0.0001	3
10612	0.00013	0.00025	0.00021	-2e-05	9e-05	-9e-05	1e-05	-0.0001	3
10613	0.00013	0.00025	0.00021	-2e-05	9e-05	-9e-05	1e-05	-0.0001	3
10614	0.00013	0.00025	0.00021	-2e-05	9e-05	-9e-05	1e-05	-0.0001	3
10615	0.00013	0.00025	0.00021	-2e-05	9e-05	-9e-05	1e-05	-0.0001	3
10616	0.00013	0.00025	0.00021	-2e-05	9e-05	-9e-05	1e-05	-0.0001	3
10617	0.00013	0.00025	0.00021	-2e-05	9e-05	-9e-05	1e-05	-0.0001	3
10618	0.00013	0.00025	0.00021	-2e-05	9e-05	-9e-05	1e-05	-0.0001	3
10619	0.00013	0.00025	0.00021	-2e-05	9e-05	-9e-05	1e-05	-0.0001	3
10620	0.00013	0.00025	0.00021	-2e-05	9e-05	-9e-05	1e-05	-0.0001	3
10621	-0.00059	0.0002	0.00039	-1e-05	-8e-05	-4e-05	0	-0.0002	3
10622	-0.00059	0.0002	0.00039	-1e-05	-8e-05	-4e-05	0	-0.0002	3
10623	5e-05	0.00027	0.00021	0.00022	0.00017	-9e-05	-0.00011	-0.00015	3
10624	5e-05	0.00027	0.00021	0.00022	0.00017	-9e-05	-0.00011	-0.00015	3
10625	5e-05	0.00027	0.00021	0.00022	0.00017	-9e-05	-0.00011	-0.00015	3
10626	5e-05	0.00027	0.00021	0.00022	0.00017	-9e-05	-0.00011	-0.00015	3
10627	5e-05	0.00027	0.00021	0.00022	0.00017	-9e-05	-0.00011	-0.00015	3
10628	5e-05	0.00027	0.00021	0.00022	0.00017	-9e-05	-0.00011	-0.00015	3
10629	5e-05	0.00027	0.00021	0.00022	0.00017	-9e-05	-0.00011	-0.00015	3
10630	5e-05	0.00027	0.00021	0.00022	0.00017	-9e-05	-0.00011	-0.00015	3
10631	5e-05	0.00027	0.00021	0.00022	0.00017	-9e-05	-0.00011	-0.00015	3
10632	5e-05	0.00027	0.00021	0.00022	0.00017	-9e-05	-0.00011	-0.00015	3
10633	5e-05	0.00027	0.00021	0.00022	0.00017	-9e-05	-0.00011	-0.00015	3
10634	5e-05	0.00027	0.00021	0.00022	0.00017	-9e-05	-0.00011	-0.00015	3
10635	5e-05	0.00027	0.00021	0.00022	0.00017	-9e-05	-0.00011	-0.00015	3
10636	5e-05	0.00027	0.00021	0.00022	0.00017	-9e-05	-0.00011	-0.00015	3
10639	5e-05	0.00027	0.00021	0.00022	0.00017	-9e-05	-0.00011	-0.00015	3
10640	5e-05	0.00027	0.00021	0.00022	0.00017	-9e-05	-0.00011	-0.00015	3
10641	5e-05	0.00027	0.00021	0.00022	0.00017	-9e-05	-0.00011	-0.00015	3
10642	5e-05	0.00027	0.00021	0.00022	0.00017	-9e-05	-0.00011	-0.00015	3
10643	5e-05	0.00027	0.00021	0.00022	0.00017	-9e-05	-0.00011	-0.00015	3
10644	0.00101	9e-05	-5e-05	0.00011	0.00021	-0.00014	3e-05	0.00043	3
10645	-0.00019	2e-05	0.0002	3e-05	0.00011	0.00011	-6e-05	-0.00058	3
10646	-0.00019	2e-05	0.0002	3e-05	0.00011	0.00011	-6e-05	-0.00058	3
10648	-0.00019	2e-05	0.0002	3e-05	0.00011	0.00011	-6e-05	-0.00058	3
10649	-0.00019	2e-05	0.0002	3e-05	0.00011	0.00011	-6e-05	-0.00058	3
10650	-0.00019	2e-05	0.0002	3e-05	0.00011	0.00011	-6e-05	-0.00058	3
10651	-0.00019	2e-05	0.0002	3e-05	0.00011	0.00011	-6e-05	-0.00058	3
10652	-0.00019	2e-05	0.0002	3e-05	0.00011	0.00011	-6e-05	-0.00058	3
10653	-0.00019	2e-05	0.0002	3e-05	0.00011	0.00011	-6e-05	-0.00058	3
10654	-0.00019	2e-05	0.0002	3e-05	0.00011	0.00011	-6e-05	-0.00058	3
10655	-0.00019	2e-05	0.0002	3e-05	0.00011	0.00011	-6e-05	-0.00058	3
10656	-0.00019	2e-05	0.0002	3e-05	0.00011	0.00011	-6e-05	-0.00058	3
10657	-0.0003	-0.00038	-0.00083	-8e-05	-1e-05	-4e-05	-0.00018	6e-05	3
10658	-0.0003	-0.00038	-0.00083	-8e-05	-1e-05	-4e-05	-0.00018	6e-05	3
10659	-0.0003	-0.00038	-0.00083	-8e-05	-1e-05	-4e-05	-0.00018	6e-05	3
10660	-0.0003	-0.00038	-0.00083	-8e-05	-1e-05	-4e-05	-0.00018	6e-05	3
10661	-0.0003	-0.00038	-0.00083	-8e-05	-1e-05	-4e-05	-0.00018	6e-05	3
10662	-0.0003	-0.00038	-0.00083	-8e-05	-1e-05	-4e-05	-0.00018	6e-05	3
10663	-0.0003	-0.00038	-0.00083	-8e-05	-1e-05	-4e-05	-0.00018	6e-05	3
10664	-0.0003	-0.00038	-0.00083	-8e-05	-1e-05	-4e-05	-0.00018	6e-05	3
10665	-0.0003	-0.00038	-0.00083	-8e-05	-1e-05	-4e-05	-0.00018	6e-05	3
10666	0.00032	-1e-05	0.00013	4e-05	0.00014	0.00028	0.00023	0.00021	3
10667	0.00032	-1e-05	0.00013	4e-05	0.00014	0.00028	0.00023	0.00021	3
10668	0.00032	-1e-05	0.00013	4e-05	0.00014	0.00028	0.00023	0.00021	3
10669	0.00032	-1e-05	0.00013	4e-05	0.00014	0.00028	0.00023	0.00021	3
10670	0.00032	-1e-05	0.00013	4e-05	0.00014	0.00028	0.00023	0.00021	3
10671	0.00032	-1e-05	0.00013	4e-05	0.00014	0.00028	0.00023	0.00021	3
10672	0.00032	-1e-05	0.00013	4e-05	0.00014	0.00028	0.00023	0.00021	3
10673	0.00032	-1e-05	0.00013	4e-05	0.00014	0.00028	0.00023	0.00021	3
10674	0.00032	-1e-05	0.00013	4e-05	0.00014	0.00028	0.00023	0.00021	3
10675	0.00032	-1e-05	0.00013	4e-05	0.00014	0.00028	0.00023	0.00021	3
10676	0.00032	-1e-05	0.00013	4e-05	0.00014	0.00028	0.00023	0.00021	3
10677	0.00032	-1e-05	0.00013	4e-05	0.00014	0.00028	0.00023	0.00021	3
10678	0.00032	-1e-05	0.00013	4e-05	0.00014	0.00028	0.00023	0.00021	3
10679	0.00032	-1e-05	0.00013	4e-05	0.00014	0.00028	0.00023	0.00021	3
10680	0.00032	-1e-05	0.00013	4e-05	0.00014	0.00028	0.00023	0.00021	3
10681	-0.00014	2e-05	-6e-05	-0.0001	-0.00017	-5e-05	-3e-05	-0.00018	3
10682	-0.00014	2e-05	-6e-05	-0.0001	-0.00017	-5e-05	-3e-05	-0.00018	3
10683	-0.00091	-0.00024	-0.00013	-0.00023	-6e-05	2e-05	-1e-05	-0.00036	3
10684	-0.00091	-0.00024	-0.00013	-0.00023	-6e-05	2e-05	-1e-05	-0.00036	3
10686	-0.00091	-0.00024	-0.00013	-0.00023	-6e-05	2e-05	-1e-05	-0.00036	3
10687	-0.00091	-0.00024	-0.00013	-0.00023	-6e-05	2e-05	-1e-05	-0.00036	3
10688	-0.00091	-0.00024	-0.00013	-0.00023	-6e-05	2e-05	-1e-05	-0.00036	3
10689	-0.00091	-0.00024	-0.00013	-0.00023	-6e-05	2e-05	-1e-05	-0.00036	3
10690	-0.00091	-0.00024	-0.00013	-0.00023	-6e-05	2e-05	-1e-05	-0.00036	3
10691	-0.00091	-0.00024	-0.00013	-0.00023	-6e-05	2e-05	-1e-05	-0.00036	3
10692	-0.00091	-0.00024	-0.00013	-0.00023	-6e-05	2e-05	-1e-05	-0.00036	3
10693	-0.00091	-0.00024	-0.00013	-0.00023	-6e-05	2e-05	-1e-05	-0.00036	3
10694	-0.00091	-0.00024	-0.00013	-0.00023	-6e-05	2e-05	-1e-05	-0.00036	3
10695	-0.00091	-0.00024	-0.00013	-0.00023	-6e-05	2e-05	-1e-05	-0.00036	3
10696	-0.00091	-0.00024	-0.00013	-0.00023	-6e-05	2e-05	-1e-05	-0.00036	3
10697	-0.00091	-0.00024	-0.00013	-0.00023	-6e-05	2e-05	-1e-05	-0.00036	3
10698	-0.00091	-0.00024	-0.00013	-0.00023	-6e-05	2e-05	-1e-05	-0.00036	3
10699	-0.00091	-0.00024	-0.00013	-0.00023	-6e-05	2e-05	-1e-05	-0.00036	3
10700	-0.00091	-0.00024	-0.00013	-0.00023	-6e-05	2e-05	-1e-05	-0.00036	3
10701	-0.00091	-0.00024	-0.00013	-0.00023	-6e-05	2e-05	-1e-05	-0.00036	3
10702	-0.00091	-0.00024	-0.00013	-0.00023	-6e-05	2e-05	-1e-05	-0.00036	3
10703	-0.00091	-0.00024	-0.00013	-0.00023	-6e-05	2e-05	-1e-05	-0.00036	3
10704	-0.00011	0.00027	0.00029	0.0001	-8e-05	-4e-05	3e-05	6e-05	3
10705	0.00021	-0.0002	-2e-05	-9e-05	-0.0002	-0.00026	0	0.0002	3
10706	0.00021	-0.0002	-2e-05	-9e-05	-0.0002	-0.00026	0	0.0002	3
10707	0.00021	-0.0002	-2e-05	-9e-05	-0.0002	-0.00026	0	0.0002	3
10708	0.00021	-0.0002	-2e-05	-9e-05	-0.0002	-0.00026	0	0.0002	3
10712	0.00021	-0.0002	-2e-05	-9e-05	-0.0002	-0.00026	0	0.0002	3
10713	0.00021	-0.0002	-2e-05	-9e-05	-0.0002	-0.00026	0	0.0002	3
10714	0.00021	-0.0002	-2e-05	-9e-05	-0.0002	-0.00026	0	0.0002	3
10715	0.00021	-0.0002	-2e-05	-9e-05	-0.0002	-0.00026	0	0.0002	3
10716	0.00021	-0.0002	-2e-05	-9e-05	-0.0002	-0.00026	0	0.0002	3
10717	0.00013	0.00029	0.00034	-1e-05	-0.00017	-0.00019	-6e-05	-0.00013	3
10718	0.00013	0.00029	0.00034	-1e-05	-0.00017	-0.00019	-6e-05	-0.00013	3
10719	0.00013	0.00029	0.00034	-1e-05	-0.00017	-0.00019	-6e-05	-0.00013	3
10720	0.00013	0.00029	0.00034	-1e-05	-0.00017	-0.00019	-6e-05	-0.00013	3
10721	0.00013	0.00029	0.00034	-1e-05	-0.00017	-0.00019	-6e-05	-0.00013	3
10722	0.00013	0.00029	0.00034	-1e-05	-0.00017	-0.00019	-6e-05	-0.00013	3
10723	0.00013	0.00029	0.00034	-1e-05	-0.00017	-0.00019	-6e-05	-0.00013	3
10724	0.00013	0.00029	0.00034	-1e-05	-0.00017	-0.00019	-6e-05	-0.00013	3
10725	0.00013	0.00029	0.00034	-1e-05	-0.00017	-0.00019	-6e-05	-0.00013	3
10726	0.00015	0.00013	0.00015	-5e-05	-0.00015	-8e-05	-1e-05	-4e-05	3
10727	0.00015	0.00013	0.00015	-5e-05	-0.00015	-8e-05	-1e-05	-4e-05	3
10728	0.00015	0.00013	0.00015	-5e-05	-0.00015	-8e-05	-1e-05	-4e-05	3
10729	0.00015	0.00013	0.00015	-5e-05	-0.00015	-8e-05	-1e-05	-4e-05	3
10730	0.00015	0.00013	0.00015	-5e-05	-0.00015	-8e-05	-1e-05	-4e-05	3
10731	0.00015	0.00013	0.00015	-5e-05	-0.00015	-8e-05	-1e-05	-4e-05	3
10733	0.00015	0.00013	0.00015	-5e-05	-0.00015	-8e-05	-1e-05	-4e-05	3
10734	0.00015	0.00013	0.00015	-5e-05	-0.00015	-8e-05	-1e-05	-4e-05	3
10735	0.00015	0.00013	0.00015	-5e-05	-0.00015	-8e-05	-1e-05	-4e-05	3
10736	0.00015	0.00013	0.00015	-5e-05	-0.00015	-8e-05	-1e-05	-4e-05	3
10738	0.00015	0.00013	0.00015	-5e-05	-0.00015	-8e-05	-1e-05	-4e-05	3
10739	0.00015	0.00013	0.00015	-5e-05	-0.00015	-8e-05	-1e-05	-4e-05	3
10740	0.00015	0.00013	0.00015	-5e-05	-0.00015	-8e-05	-1e-05	-4e-05	3
10741	0.00023	-0.00019	0.0001	0	-4e-05	-0.00015	-9e-05	3e-05	3
10742	0.00023	-0.00019	0.0001	0	-4e-05	-0.00015	-9e-05	3e-05	3
10743	0.00035	-0.00036	-0.00033	3e-05	0.00019	-3e-05	1e-05	0	3
10744	0.00035	-0.00036	-0.00033	3e-05	0.00019	-3e-05	1e-05	0	3
10745	0.00035	-0.00036	-0.00033	3e-05	0.00019	-3e-05	1e-05	0	3
10746	0.00035	-0.00036	-0.00033	3e-05	0.00019	-3e-05	1e-05	0	3
10748	0.00035	-0.00036	-0.00033	3e-05	0.00019	-3e-05	1e-05	0	3
10749	0.00035	-0.00036	-0.00033	3e-05	0.00019	-3e-05	1e-05	0	3
10750	0.00035	-0.00036	-0.00033	3e-05	0.00019	-3e-05	1e-05	0	3
10751	0.00035	-0.00036	-0.00033	3e-05	0.00019	-3e-05	1e-05	0	3
10752	0.00035	-0.00036	-0.00033	3e-05	0.00019	-3e-05	1e-05	0	3
10753	0.00035	-0.00036	-0.00033	3e-05	0.00019	-3e-05	1e-05	0	3
10754	0.00035	-0.00036	-0.00033	3e-05	0.00019	-3e-05	1e-05	0	3
10755	0.00035	-0.00036	-0.00033	3e-05	0.00019	-3e-05	1e-05	0	3
10756	0.00035	-0.00036	-0.00033	3e-05	0.00019	-3e-05	1e-05	0	3
10757	0.00035	-0.00036	-0.00033	3e-05	0.00019	-3e-05	1e-05	0	3
10758	0.00035	-0.00036	-0.00033	3e-05	0.00019	-3e-05	1e-05	0	3
10759	0.00035	-0.00036	-0.00033	3e-05	0.00019	-3e-05	1e-05	0	3
10760	0.00035	-0.00036	-0.00033	3e-05	0.00019	-3e-05	1e-05	0	3
10761	0.00035	-0.00036	-0.00033	3e-05	0.00019	-3e-05	1e-05	0	3
10762	0.00035	-0.00036	-0.00033	3e-05	0.00019	-3e-05	1e-05	0	3
10763	0.00035	-0.00036	-0.00033	3e-05	0.00019	-3e-05	1e-05	0	3
10764	0.00038	0.00023	0.00026	6e-05	-6e-05	4e-05	-7e-05	-8e-05	3
10765	-0.00041	0.00018	0.00019	0.0001	2e-05	-0.00016	-2e-05	8e-05	3
10766	-0.00041	0.00018	0.00019	0.0001	2e-05	-0.00016	-2e-05	8e-05	3
10767	-0.00041	0.00018	0.00019	0.0001	2e-05	-0.00016	-2e-05	8e-05	3
10768	-0.00041	0.00018	0.00019	0.0001	2e-05	-0.00016	-2e-05	8e-05	3
10769	-0.00041	0.00018	0.00019	0.0001	2e-05	-0.00016	-2e-05	8e-05	3
10770	-0.00041	0.00018	0.00019	0.0001	2e-05	-0.00016	-2e-05	8e-05	3
10771	-0.00041	0.00018	0.00019	0.0001	2e-05	-0.00016	-2e-05	8e-05	3
10772	-0.00041	0.00018	0.00019	0.0001	2e-05	-0.00016	-2e-05	8e-05	3
10773	-0.00041	0.00018	0.00019	0.0001	2e-05	-0.00016	-2e-05	8e-05	3
10774	-0.00041	0.00018	0.00019	0.0001	2e-05	-0.00016	-2e-05	8e-05	3
10775	-0.00041	0.00018	0.00019	0.0001	2e-05	-0.00016	-2e-05	8e-05	3
10776	-0.00041	0.00018	0.00019	0.0001	2e-05	-0.00016	-2e-05	8e-05	3
10777	-0.00054	-0.00033	-9e-05	-0.0001	6e-05	-4e-05	-6e-05	-0.00021	3
10779	-0.00054	-0.00033	-9e-05	-0.0001	6e-05	-4e-05	-6e-05	-0.00021	3
10780	-0.00054	-0.00033	-9e-05	-0.0001	6e-05	-4e-05	-6e-05	-0.00021	3
10781	-0.00054	-0.00033	-9e-05	-0.0001	6e-05	-4e-05	-6e-05	-0.00021	3
10782	-0.00054	-0.00033	-9e-05	-0.0001	6e-05	-4e-05	-6e-05	-0.00021	3
10783	-0.00054	-0.00033	-9e-05	-0.0001	6e-05	-4e-05	-6e-05	-0.00021	3
10784	-0.00054	-0.00033	-9e-05	-0.0001	6e-05	-4e-05	-6e-05	-0.00021	3
10785	-0.00054	-0.00033	-9e-05	-0.0001	6e-05	-4e-05	-6e-05	-0.00021	3
10786	-0.00054	-0.00033	-9e-05	-0.0001	6e-05	-4e-05	-6e-05	-0.00021	3
10787	-0.00054	-0.00033	-9e-05	-0.0001	6e-05	-4e-05	-6e-05	-0.00021	3
10788	-9e-05	-0.00031	-0.00042	-9e-05	-6e-05	0.0001	-8e-05	-2e-05	3
10789	-9e-05	-0.00031	-0.00042	-9e-05	-6e-05	0.0001	-8e-05	-2e-05	3
10790	-9e-05	-0.00031	-0.00042	-9e-05	-6e-05	0.0001	-8e-05	-2e-05	3
10791	-9e-05	-0.00031	-0.00042	-9e-05	-6e-05	0.0001	-8e-05	-2e-05	3
10792	-9e-05	-0.00031	-0.00042	-9e-05	-6e-05	0.0001	-8e-05	-2e-05	3
10793	-9e-05	-0.00031	-0.00042	-9e-05	-6e-05	0.0001	-8e-05	-2e-05	3
10794	-9e-05	-0.00031	-0.00042	-9e-05	-6e-05	0.0001	-8e-05	-2e-05	3
10795	-9e-05	-0.00031	-0.00042	-9e-05	-6e-05	0.0001	-8e-05	-2e-05	3
10796	-9e-05	-0.00031	-0.00042	-9e-05	-6e-05	0.0001	-8e-05	-2e-05	3
10797	-9e-05	-0.00031	-0.00042	-9e-05	-6e-05	0.0001	-8e-05	-2e-05	3
10798	-9e-05	-0.00031	-0.00042	-9e-05	-6e-05	0.0001	-8e-05	-2e-05	3
10799	-9e-05	-0.00031	-0.00042	-9e-05	-6e-05	0.0001	-8e-05	-2e-05	3
10800	-9e-05	-0.00031	-0.00042	-9e-05	-6e-05	0.0001	-8e-05	-2e-05	3
10801	-0.00018	1e-05	8e-05	0.0002	2e-05	5e-05	0.00013	0.00015	3
10802	-0.00018	1e-05	8e-05	0.0002	2e-05	5e-05	0.00013	0.00015	3
10803	7e-05	0.00023	0.00041	0.0001	-2e-05	0.00011	6e-05	0.00014	3
10804	7e-05	0.00023	0.00041	0.0001	-2e-05	0.00011	6e-05	0.00014	3
10805	7e-05	0.00023	0.00041	0.0001	-2e-05	0.00011	6e-05	0.00014	3
10806	7e-05	0.00023	0.00041	0.0001	-2e-05	0.00011	6e-05	0.00014	3
10807	7e-05	0.00023	0.00041	0.0001	-2e-05	0.00011	6e-05	0.00014	3
10808	7e-05	0.00023	0.00041	0.0001	-2e-05	0.00011	6e-05	0.00014	3
10809	7e-05	0.00023	0.00041	0.0001	-2e-05	0.00011	6e-05	0.00014	3
10810	7e-05	0.00023	0.00041	0.0001	-2e-05	0.00011	6e-05	0.00014	3
10811	7e-05	0.00023	0.00041	0.0001	-2e-05	0.00011	6e-05	0.00014	3
10812	7e-05	0.00023	0.00041	0.0001	-2e-05	0.00011	6e-05	0.00014	3
10813	7e-05	0.00023	0.00041	0.0001	-2e-05	0.00011	6e-05	0.00014	3
10814	7e-05	0.00023	0.00041	0.0001	-2e-05	0.00011	6e-05	0.00014	3
10815	7e-05	0.00023	0.00041	0.0001	-2e-05	0.00011	6e-05	0.00014	3
10816	7e-05	0.00023	0.00041	0.0001	-2e-05	0.00011	6e-05	0.00014	3
10817	7e-05	0.00023	0.00041	0.0001	-2e-05	0.00011	6e-05	0.00014	3
10818	7e-05	0.00023	0.00041	0.0001	-2e-05	0.00011	6e-05	0.00014	3
10819	7e-05	0.00023	0.00041	0.0001	-2e-05	0.00011	6e-05	0.00014	3
10820	7e-05	0.00023	0.00041	0.0001	-2e-05	0.00011	6e-05	0.00014	3
10821	7e-05	0.00023	0.00041	0.0001	-2e-05	0.00011	6e-05	0.00014	3
10822	7e-05	0.00023	0.00041	0.0001	-2e-05	0.00011	6e-05	0.00014	3
10823	7e-05	0.00023	0.00041	0.0001	-2e-05	0.00011	6e-05	0.00014	3
10824	4e-05	-7e-05	5e-05	4e-05	-4e-05	1e-05	-2e-05	-8e-05	3
10825	0.00028	-0.00011	-0.00017	-4e-05	6e-05	-6e-05	0	0.00016	3
10827	0.00028	-0.00011	-0.00017	-4e-05	6e-05	-6e-05	0	0.00016	3
10828	0.00028	-0.00011	-0.00017	-4e-05	6e-05	-6e-05	0	0.00016	3
10829	0.00028	-0.00011	-0.00017	-4e-05	6e-05	-6e-05	0	0.00016	3
10830	0.00028	-0.00011	-0.00017	-4e-05	6e-05	-6e-05	0	0.00016	3
10831	0.00028	-0.00011	-0.00017	-4e-05	6e-05	-6e-05	0	0.00016	3
10832	0.00028	-0.00011	-0.00017	-4e-05	6e-05	-6e-05	0	0.00016	3
10833	0.00028	-0.00011	-0.00017	-4e-05	6e-05	-6e-05	0	0.00016	3
10834	0.00028	-0.00011	-0.00017	-4e-05	6e-05	-6e-05	0	0.00016	3
10835	0.00028	-0.00011	-0.00017	-4e-05	6e-05	-6e-05	0	0.00016	3
10836	0.00028	-0.00011	-0.00017	-4e-05	6e-05	-6e-05	0	0.00016	3
10838	-0.00016	-6e-05	-0.00023	-1e-05	0.00014	8e-05	1e-05	-5e-05	3
10839	-0.00016	-6e-05	-0.00023	-1e-05	0.00014	8e-05	1e-05	-5e-05	3
10840	-0.00016	-6e-05	-0.00023	-1e-05	0.00014	8e-05	1e-05	-5e-05	3
10841	-0.00016	-6e-05	-0.00023	-1e-05	0.00014	8e-05	1e-05	-5e-05	3
10842	-0.00016	-6e-05	-0.00023	-1e-05	0.00014	8e-05	1e-05	-5e-05	3
10843	-0.00016	-6e-05	-0.00023	-1e-05	0.00014	8e-05	1e-05	-5e-05	3
10844	-0.00016	-6e-05	-0.00023	-1e-05	0.00014	8e-05	1e-05	-5e-05	3
10846	0.00017	0.00014	-9e-05	6e-05	0.00054	6e-05	3e-05	0.0001	3
10847	0.00017	0.00014	-9e-05	6e-05	0.00054	6e-05	3e-05	0.0001	3
10848	0.00017	0.00014	-9e-05	6e-05	0.00054	6e-05	3e-05	0.0001	3
10849	0.00017	0.00014	-9e-05	6e-05	0.00054	6e-05	3e-05	0.0001	3
10850	0.00017	0.00014	-9e-05	6e-05	0.00054	6e-05	3e-05	0.0001	3
10851	0.00017	0.00014	-9e-05	6e-05	0.00054	6e-05	3e-05	0.0001	3
10852	0.00017	0.00014	-9e-05	6e-05	0.00054	6e-05	3e-05	0.0001	3
10853	0.00017	0.00014	-9e-05	6e-05	0.00054	6e-05	3e-05	0.0001	3
10854	0.00017	0.00014	-9e-05	6e-05	0.00054	6e-05	3e-05	0.0001	3
10855	0.00017	0.00014	-9e-05	6e-05	0.00054	6e-05	3e-05	0.0001	3
10856	0.00017	0.00014	-9e-05	6e-05	0.00054	6e-05	3e-05	0.0001	3
10857	0.00017	0.00014	-9e-05	6e-05	0.00054	6e-05	3e-05	0.0001	3
10858	0.00017	0.00014	-9e-05	6e-05	0.00054	6e-05	3e-05	0.0001	3
10859	0.00017	0.00014	-9e-05	6e-05	0.00054	6e-05	3e-05	0.0001	3
10860	0.00017	0.00014	-9e-05	6e-05	0.00054	6e-05	3e-05	0.0001	3
10861	0.00029	0.00018	-0.00015	-7e-05	-6e-05	-3e-05	0	5e-05	3
10862	0.00029	0.00018	-0.00015	-7e-05	-6e-05	-3e-05	0	5e-05	3
10863	0.00013	1e-05	-8e-05	-0.00012	-0.0001	3e-05	-0.0001	-6e-05	3
10864	0.00013	1e-05	-8e-05	-0.00012	-0.0001	3e-05	-0.0001	-6e-05	3
10865	0.00013	1e-05	-8e-05	-0.00012	-0.0001	3e-05	-0.0001	-6e-05	3
10866	0.00013	1e-05	-8e-05	-0.00012	-0.0001	3e-05	-0.0001	-6e-05	3
10867	0.00013	1e-05	-8e-05	-0.00012	-0.0001	3e-05	-0.0001	-6e-05	3
10868	0.00013	1e-05	-8e-05	-0.00012	-0.0001	3e-05	-0.0001	-6e-05	3
10869	0.00013	1e-05	-8e-05	-0.00012	-0.0001	3e-05	-0.0001	-6e-05	3
10870	0.00013	1e-05	-8e-05	-0.00012	-0.0001	3e-05	-0.0001	-6e-05	3
10871	0.00013	1e-05	-8e-05	-0.00012	-0.0001	3e-05	-0.0001	-6e-05	3
10872	0.00013	1e-05	-8e-05	-0.00012	-0.0001	3e-05	-0.0001	-6e-05	3
10873	0.00013	1e-05	-8e-05	-0.00012	-0.0001	3e-05	-0.0001	-6e-05	3
10874	0.00013	1e-05	-8e-05	-0.00012	-0.0001	3e-05	-0.0001	-6e-05	3
10875	0.00013	1e-05	-8e-05	-0.00012	-0.0001	3e-05	-0.0001	-6e-05	3
10876	0.00013	1e-05	-8e-05	-0.00012	-0.0001	3e-05	-0.0001	-6e-05	3
10877	0.00013	1e-05	-8e-05	-0.00012	-0.0001	3e-05	-0.0001	-6e-05	3
10878	0.00013	1e-05	-8e-05	-0.00012	-0.0001	3e-05	-0.0001	-6e-05	3
10879	0.00013	1e-05	-8e-05	-0.00012	-0.0001	3e-05	-0.0001	-6e-05	3
10880	0.00013	1e-05	-8e-05	-0.00012	-0.0001	3e-05	-0.0001	-6e-05	3
10881	0.00013	1e-05	-8e-05	-0.00012	-0.0001	3e-05	-0.0001	-6e-05	3
10882	0.00013	1e-05	-8e-05	-0.00012	-0.0001	3e-05	-0.0001	-6e-05	3
10883	0.00013	1e-05	-8e-05	-0.00012	-0.0001	3e-05	-0.0001	-6e-05	3
10884	-3e-05	-0.0003	-0.00034	-7e-05	-5e-05	5e-05	8e-05	0.00017	3
10885	-0.00029	6e-05	7e-05	6e-05	-0.0001	-8e-05	2e-05	-9e-05	3
10886	-0.00029	6e-05	7e-05	6e-05	-0.0001	-8e-05	2e-05	-9e-05	3
10889	-0.00029	6e-05	7e-05	6e-05	-0.0001	-8e-05	2e-05	-9e-05	3
10890	-0.00029	6e-05	7e-05	6e-05	-0.0001	-8e-05	2e-05	-9e-05	3
10891	-0.00029	6e-05	7e-05	6e-05	-0.0001	-8e-05	2e-05	-9e-05	3
10892	-0.00029	6e-05	7e-05	6e-05	-0.0001	-8e-05	2e-05	-9e-05	3
10893	-0.00029	6e-05	7e-05	6e-05	-0.0001	-8e-05	2e-05	-9e-05	3
10894	-0.00029	6e-05	7e-05	6e-05	-0.0001	-8e-05	2e-05	-9e-05	3
10895	-0.00029	6e-05	7e-05	6e-05	-0.0001	-8e-05	2e-05	-9e-05	3
10896	-0.00029	6e-05	7e-05	6e-05	-0.0001	-8e-05	2e-05	-9e-05	3
10898	-0.00029	6e-05	7e-05	6e-05	-0.0001	-8e-05	2e-05	-9e-05	3
10899	-0.00029	6e-05	7e-05	6e-05	-0.0001	-8e-05	2e-05	-9e-05	3
10900	-0.00029	6e-05	7e-05	6e-05	-0.0001	-8e-05	2e-05	-9e-05	3
10901	-0.00029	6e-05	7e-05	6e-05	-0.0001	-8e-05	2e-05	-9e-05	3
10902	-0.00029	6e-05	7e-05	6e-05	-0.0001	-8e-05	2e-05	-9e-05	3
10903	-0.00029	6e-05	7e-05	6e-05	-0.0001	-8e-05	2e-05	-9e-05	3
10904	-0.00029	6e-05	7e-05	6e-05	-0.0001	-8e-05	2e-05	-9e-05	3
10905	-0.00029	6e-05	7e-05	6e-05	-0.0001	-8e-05	2e-05	-9e-05	3
10906	3e-05	3e-05	4e-05	-0.0001	-0.00019	0	-0.0001	-0.00019	3
10907	3e-05	3e-05	4e-05	-0.0001	-0.00019	0	-0.0001	-0.00019	3
10908	1e-05	0.00019	0.00028	3e-05	3e-05	9e-05	3e-05	-4e-05	3
10909	1e-05	0.00019	0.00028	3e-05	3e-05	9e-05	3e-05	-4e-05	3
10910	1e-05	0.00019	0.00028	3e-05	3e-05	9e-05	3e-05	-4e-05	3
10911	1e-05	0.00019	0.00028	3e-05	3e-05	9e-05	3e-05	-4e-05	3
10912	1e-05	0.00019	0.00028	3e-05	3e-05	9e-05	3e-05	-4e-05	3
10913	1e-05	0.00019	0.00028	3e-05	3e-05	9e-05	3e-05	-4e-05	3
10914	1e-05	0.00019	0.00028	3e-05	3e-05	9e-05	3e-05	-4e-05	3
10915	1e-05	0.00019	0.00028	3e-05	3e-05	9e-05	3e-05	-4e-05	3
10916	1e-05	0.00019	0.00028	3e-05	3e-05	9e-05	3e-05	-4e-05	3
10917	1e-05	0.00019	0.00028	3e-05	3e-05	9e-05	3e-05	-4e-05	3
10918	1e-05	0.00019	0.00028	3e-05	3e-05	9e-05	3e-05	-4e-05	3
10919	1e-05	0.00019	0.00028	3e-05	3e-05	9e-05	3e-05	-4e-05	3
10920	-0.00027	6e-05	-0.00011	-0.00017	-0.00015	-5e-05	-1e-05	1e-05	3
10921	-0.00027	6e-05	-0.00011	-0.00017	-0.00015	-5e-05	-1e-05	1e-05	3
10922	-0.00027	6e-05	-0.00011	-0.00017	-0.00015	-5e-05	-1e-05	1e-05	3
10923	-0.00027	6e-05	-0.00011	-0.00017	-0.00015	-5e-05	-1e-05	1e-05	3
10924	-0.00027	6e-05	-0.00011	-0.00017	-0.00015	-5e-05	-1e-05	1e-05	3
10925	-0.00027	6e-05	-0.00011	-0.00017	-0.00015	-5e-05	-1e-05	1e-05	3
10926	-0.00027	6e-05	-0.00011	-0.00017	-0.00015	-5e-05	-1e-05	1e-05	3
10927	7e-05	1e-05	1e-05	-2e-05	-0.00017	-0.00013	-2e-05	-1e-05	3
10928	7e-05	1e-05	1e-05	-2e-05	-0.00017	-0.00013	-2e-05	-1e-05	3
10929	7e-05	1e-05	1e-05	-2e-05	-0.00017	-0.00013	-2e-05	-1e-05	3
10930	7e-05	1e-05	1e-05	-2e-05	-0.00017	-0.00013	-2e-05	-1e-05	3
10931	7e-05	1e-05	1e-05	-2e-05	-0.00017	-0.00013	-2e-05	-1e-05	3
10932	7e-05	1e-05	1e-05	-2e-05	-0.00017	-0.00013	-2e-05	-1e-05	3
10933	7e-05	1e-05	1e-05	-2e-05	-0.00017	-0.00013	-2e-05	-1e-05	3
10934	7e-05	1e-05	1e-05	-2e-05	-0.00017	-0.00013	-2e-05	-1e-05	3
10936	7e-05	1e-05	1e-05	-2e-05	-0.00017	-0.00013	-2e-05	-1e-05	3
10937	7e-05	1e-05	1e-05	-2e-05	-0.00017	-0.00013	-2e-05	-1e-05	3
10938	7e-05	1e-05	1e-05	-2e-05	-0.00017	-0.00013	-2e-05	-1e-05	3
10939	7e-05	1e-05	1e-05	-2e-05	-0.00017	-0.00013	-2e-05	-1e-05	3
10940	7e-05	1e-05	1e-05	-2e-05	-0.00017	-0.00013	-2e-05	-1e-05	3
10941	7e-05	1e-05	1e-05	-2e-05	-0.00017	-0.00013	-2e-05	-1e-05	3
10942	7e-05	1e-05	1e-05	-2e-05	-0.00017	-0.00013	-2e-05	-1e-05	3
10943	7e-05	1e-05	1e-05	-2e-05	-0.00017	-0.00013	-2e-05	-1e-05	3
10944	0.00016	0.00019	0.0004	0.00015	-5e-05	-0.00014	-3e-05	-3e-05	3
10945	-0.00034	-0.00023	-0.00032	-6e-05	3e-05	-5e-05	3e-05	1e-05	3
10946	-0.00034	-0.00023	-0.00032	-6e-05	3e-05	-5e-05	3e-05	1e-05	3
10947	-0.00034	-0.00023	-0.00032	-6e-05	3e-05	-5e-05	3e-05	1e-05	3
10948	-0.00034	-0.00023	-0.00032	-6e-05	3e-05	-5e-05	3e-05	1e-05	3
10949	-0.00034	-0.00023	-0.00032	-6e-05	3e-05	-5e-05	3e-05	1e-05	3
10950	-0.00034	-0.00023	-0.00032	-6e-05	3e-05	-5e-05	3e-05	1e-05	3
10951	-0.00034	-0.00023	-0.00032	-6e-05	3e-05	-5e-05	3e-05	1e-05	3
10952	-0.00034	-0.00023	-0.00032	-6e-05	3e-05	-5e-05	3e-05	1e-05	3
10953	-0.00034	-0.00023	-0.00032	-6e-05	3e-05	-5e-05	3e-05	1e-05	3
10954	-0.00034	-0.00023	-0.00032	-6e-05	3e-05	-5e-05	3e-05	1e-05	3
10955	-0.00034	-0.00023	-0.00032	-6e-05	3e-05	-5e-05	3e-05	1e-05	3
10956	-0.00034	-0.00023	-0.00032	-6e-05	3e-05	-5e-05	3e-05	1e-05	3
10957	-0.00034	-0.00023	-0.00032	-6e-05	3e-05	-5e-05	3e-05	1e-05	3
10958	-0.00034	-0.00023	-0.00032	-6e-05	3e-05	-5e-05	3e-05	1e-05	3
10959	-0.00034	-0.00023	-0.00032	-6e-05	3e-05	-5e-05	3e-05	1e-05	3
10960	-0.00034	-0.00023	-0.00032	-6e-05	3e-05	-5e-05	3e-05	1e-05	3
10961	-0.00034	-0.00023	-0.00032	-6e-05	3e-05	-5e-05	3e-05	1e-05	3
10962	-0.00034	-0.00023	-0.00032	-6e-05	3e-05	-5e-05	3e-05	1e-05	3
10963	-0.00034	-0.00023	-0.00032	-6e-05	3e-05	-5e-05	3e-05	1e-05	3
10964	-0.00034	-0.00023	-0.00032	-6e-05	3e-05	-5e-05	3e-05	1e-05	3
10965	-0.00034	-0.00023	-0.00032	-6e-05	3e-05	-5e-05	3e-05	1e-05	3
10966	0	-1e-05	0.00023	0.00011	3e-05	-0.0001	2e-05	3e-05	3
10967	0	-1e-05	0.00023	0.00011	3e-05	-0.0001	2e-05	3e-05	3
10968	5e-05	-8e-05	0.00013	-5e-05	-9e-05	-0.0001	-9e-05	-4e-05	3
10969	5e-05	-8e-05	0.00013	-5e-05	-9e-05	-0.0001	-9e-05	-4e-05	3
10970	5e-05	-8e-05	0.00013	-5e-05	-9e-05	-0.0001	-9e-05	-4e-05	3
10971	5e-05	-8e-05	0.00013	-5e-05	-9e-05	-0.0001	-9e-05	-4e-05	3
10972	5e-05	-8e-05	0.00013	-5e-05	-9e-05	-0.0001	-9e-05	-4e-05	3
10973	5e-05	-8e-05	0.00013	-5e-05	-9e-05	-0.0001	-9e-05	-4e-05	3
10974	5e-05	-8e-05	0.00013	-5e-05	-9e-05	-0.0001	-9e-05	-4e-05	3
10975	5e-05	-8e-05	0.00013	-5e-05	-9e-05	-0.0001	-9e-05	-4e-05	3
10976	5e-05	-8e-05	0.00013	-5e-05	-9e-05	-0.0001	-9e-05	-4e-05	3
10977	5e-05	-8e-05	0.00013	-5e-05	-9e-05	-0.0001	-9e-05	-4e-05	3
10978	5e-05	-8e-05	0.00013	-5e-05	-9e-05	-0.0001	-9e-05	-4e-05	3
10979	5e-05	-8e-05	0.00013	-5e-05	-9e-05	-0.0001	-9e-05	-4e-05	3
10980	5e-05	-8e-05	0.00013	-5e-05	-9e-05	-0.0001	-9e-05	-4e-05	3
10981	0.00015	-8e-05	9e-05	0	-7e-05	-8e-05	0	0.00011	3
10983	0.00049	0.00014	0.00023	3e-05	-0.00018	-4e-05	-2e-05	1e-05	3
10984	0.00049	0.00014	0.00023	3e-05	-0.00018	-4e-05	-2e-05	1e-05	3
10985	0.00049	0.00014	0.00023	3e-05	-0.00018	-4e-05	-2e-05	1e-05	3
10986	0.00049	0.00014	0.00023	3e-05	-0.00018	-4e-05	-2e-05	1e-05	3
10988	0.00049	0.00014	0.00023	3e-05	-0.00018	-4e-05	-2e-05	1e-05	3
10989	0.00049	0.00014	0.00023	3e-05	-0.00018	-4e-05	-2e-05	1e-05	3
10990	0.00049	0.00014	0.00023	3e-05	-0.00018	-4e-05	-2e-05	1e-05	3
10991	0.00049	0.00014	0.00023	3e-05	-0.00018	-4e-05	-2e-05	1e-05	3
10992	0.00049	0.00014	0.00023	3e-05	-0.00018	-4e-05	-2e-05	1e-05	3
10993	0.00049	0.00014	0.00023	3e-05	-0.00018	-4e-05	-2e-05	1e-05	3
10994	0.00049	0.00014	0.00023	3e-05	-0.00018	-4e-05	-2e-05	1e-05	3
10995	0.00049	0.00014	0.00023	3e-05	-0.00018	-4e-05	-2e-05	1e-05	3
10996	0.00049	0.00014	0.00023	3e-05	-0.00018	-4e-05	-2e-05	1e-05	3
10997	0.00049	0.00014	0.00023	3e-05	-0.00018	-4e-05	-2e-05	1e-05	3
10998	0.00049	0.00014	0.00023	3e-05	-0.00018	-4e-05	-2e-05	1e-05	3
10999	0.00049	0.00014	0.00023	3e-05	-0.00018	-4e-05	-2e-05	1e-05	3
11000	0.00049	0.00014	0.00023	3e-05	-0.00018	-4e-05	-2e-05	1e-05	3
11001	0.00049	0.00014	0.00023	3e-05	-0.00018	-4e-05	-2e-05	1e-05	3
11002	0.00049	0.00014	0.00023	3e-05	-0.00018	-4e-05	-2e-05	1e-05	3
11003	0.00049	0.00014	0.00023	3e-05	-0.00018	-4e-05	-2e-05	1e-05	3
11004	5e-05	0	-0.00012	-7e-05	0.00016	0.00018	4e-05	-8e-05	3
11005	-0.00026	-0.00014	-0.00018	6e-05	1e-05	0.00011	3e-05	-9e-05	3
11006	-0.00026	-0.00014	-0.00018	6e-05	1e-05	0.00011	3e-05	-9e-05	3
11007	-0.00026	-0.00014	-0.00018	6e-05	1e-05	0.00011	3e-05	-9e-05	3
11008	-0.00026	-0.00014	-0.00018	6e-05	1e-05	0.00011	3e-05	-9e-05	3
11009	-0.00026	-0.00014	-0.00018	6e-05	1e-05	0.00011	3e-05	-9e-05	3
11010	-0.00026	-0.00014	-0.00018	6e-05	1e-05	0.00011	3e-05	-9e-05	3
11011	-0.00026	-0.00014	-0.00018	6e-05	1e-05	0.00011	3e-05	-9e-05	3
11012	-0.00026	-0.00014	-0.00018	6e-05	1e-05	0.00011	3e-05	-9e-05	3
11013	-0.00026	-0.00014	-0.00018	6e-05	1e-05	0.00011	3e-05	-9e-05	3
11014	-0.00026	-0.00014	-0.00018	6e-05	1e-05	0.00011	3e-05	-9e-05	3
11015	-0.00026	-0.00014	-0.00018	6e-05	1e-05	0.00011	3e-05	-9e-05	3
11016	-0.00026	-0.00014	-0.00018	6e-05	1e-05	0.00011	3e-05	-9e-05	3
11017	-0.00026	-0.00014	-0.00018	6e-05	1e-05	0.00011	3e-05	-9e-05	3
11018	-0.00026	-0.00014	-0.00018	6e-05	1e-05	0.00011	3e-05	-9e-05	3
11019	-0.00026	-0.00014	-0.00018	6e-05	1e-05	0.00011	3e-05	-9e-05	3
11020	-0.00026	-0.00014	-0.00018	6e-05	1e-05	0.00011	3e-05	-9e-05	3
11021	-0.00026	-0.00014	-0.00018	6e-05	1e-05	0.00011	3e-05	-9e-05	3
11022	-0.00026	-0.00014	-0.00018	6e-05	1e-05	0.00011	3e-05	-9e-05	3
11023	-0.00026	-0.00014	-0.00018	6e-05	1e-05	0.00011	3e-05	-9e-05	3
11024	-0.00026	-0.00014	-0.00018	6e-05	1e-05	0.00011	3e-05	-9e-05	3
11025	-0.00026	-0.00014	-0.00018	6e-05	1e-05	0.00011	3e-05	-9e-05	3
11026	2e-05	0.00026	0.00025	8e-05	1e-05	9e-05	1e-05	1e-05	3
11028	0.00019	0.00014	0	0.00012	0.00028	8e-05	-8e-05	1e-05	3
11029	0.00019	0.00014	0	0.00012	0.00028	8e-05	-8e-05	1e-05	3
11030	0.00019	0.00014	0	0.00012	0.00028	8e-05	-8e-05	1e-05	3
11031	0.00019	0.00014	0	0.00012	0.00028	8e-05	-8e-05	1e-05	3
11032	0.00019	0.00014	0	0.00012	0.00028	8e-05	-8e-05	1e-05	3
11033	0.00019	0.00014	0	0.00012	0.00028	8e-05	-8e-05	1e-05	3
11034	0.00019	0.00014	0	0.00012	0.00028	8e-05	-8e-05	1e-05	3
11035	0.00019	0.00014	0	0.00012	0.00028	8e-05	-8e-05	1e-05	3
11036	0.00019	0.00014	0	0.00012	0.00028	8e-05	-8e-05	1e-05	3
11038	0.00019	0.00014	0	0.00012	0.00028	8e-05	-8e-05	1e-05	3
11039	0.00019	0.00014	0	0.00012	0.00028	8e-05	-8e-05	1e-05	3
11040	0.00019	0.00014	0	0.00012	0.00028	8e-05	-8e-05	1e-05	3
11041	-0.00029	-0.00023	-0.00033	-0.00012	-1e-05	-6e-05	-3e-05	0	3
11042	-0.00029	-0.00023	-0.00033	-0.00012	-1e-05	-6e-05	-3e-05	0	3
11043	0.00033	0.00031	-0.00011	-6e-05	-0.00019	9e-05	0.00011	0.00012	3
11044	0.00033	0.00031	-0.00011	-6e-05	-0.00019	9e-05	0.00011	0.00012	3
11045	0.00033	0.00031	-0.00011	-6e-05	-0.00019	9e-05	0.00011	0.00012	3
11046	0.00033	0.00031	-0.00011	-6e-05	-0.00019	9e-05	0.00011	0.00012	3
11047	0.00033	0.00031	-0.00011	-6e-05	-0.00019	9e-05	0.00011	0.00012	3
11048	0.00033	0.00031	-0.00011	-6e-05	-0.00019	9e-05	0.00011	0.00012	3
11049	0.00033	0.00031	-0.00011	-6e-05	-0.00019	9e-05	0.00011	0.00012	3
11050	0.00033	0.00031	-0.00011	-6e-05	-0.00019	9e-05	0.00011	0.00012	3
39502	-0.00035	-7e-05	8e-05	0.00022	0.00073	0.00013	1e-05	-0.00011	3
39503	-0.00035	-7e-05	8e-05	0.00022	0.00073	0.00013	1e-05	-0.00011	3
39504	-0.00035	-7e-05	8e-05	0.00022	0.00073	0.00013	1e-05	-0.00011	3
39505	-0.00035	-7e-05	8e-05	0.00022	0.00073	0.00013	1e-05	-0.00011	3
39506	-0.00035	-7e-05	8e-05	0.00022	0.00073	0.00013	1e-05	-0.00011	3
39507	-0.00035	-7e-05	8e-05	0.00022	0.00073	0.00013	1e-05	-0.00011	3
39508	-0.00035	-7e-05	8e-05	0.00022	0.00073	0.00013	1e-05	-0.00011	3
39509	-0.00035	-7e-05	8e-05	0.00022	0.00073	0.00013	1e-05	-0.00011	3
39510	-0.00035	-7e-05	8e-05	0.00022	0.00073	0.00013	1e-05	-0.00011	3
39511	-0.00035	-7e-05	8e-05	0.00022	0.00073	0.00013	1e-05	-0.00011	3
39512	-0.00035	-7e-05	8e-05	0.00022	0.00073	0.00013	1e-05	-0.00011	3
39513	-0.00035	-7e-05	8e-05	0.00022	0.00073	0.00013	1e-05	-0.00011	3
39514	-0.00035	-7e-05	8e-05	0.00022	0.00073	0.00013	1e-05	-0.00011	3
39515	-0.00035	-7e-05	8e-05	0.00022	0.00073	0.00013	1e-05	-0.00011	3
39516	-0.00035	-7e-05	8e-05	0.00022	0.00073	0.00013	1e-05	-0.00011	3
39517	-0.00035	-7e-05	8e-05	0.00022	0.00073	0.00013	1e-05	-0.00011	3
39518	-0.00035	-7e-05	8e-05	0.00022	0.00073	0.00013	1e-05	-0.00011	3
39519	-0.00035	-7e-05	8e-05	0.00022	0.00073	0.00013	1e-05	-0.00011	3
39520	-0.00035	-7e-05	8e-05	0.00022	0.00073	0.00013	1e-05	-0.00011	3
39521	-0.00035	-7e-05	8e-05	0.00022	0.00073	0.00013	1e-05	-0.00011	3
39522	-0.00035	-7e-05	8e-05	0.00022	0.00073	0.00013	1e-05	-0.00011	3
39523	-0.00035	-7e-05	8e-05	0.00022	0.00073	0.00013	1e-05	-0.00011	3
39524	-0.00035	-7e-05	8e-05	0.00022	0.00073	0.00013	1e-05	-0.00011	3
39525	-0.00035	-7e-05	8e-05	0.00022	0.00073	0.00013	1e-05	-0.00011	3
39526	-0.00035	-7e-05	8e-05	0.00022	0.00073	0.00013	1e-05	-0.00011	3
39527	-0.00035	-7e-05	8e-05	0.00022	0.00073	0.00013	1e-05	-0.00011	3
39528	-0.00035	-7e-05	8e-05	0.00022	0.00073	0.00013	1e-05	-0.00011	3
39529	-0.00035	-7e-05	8e-05	0.00022	0.00073	0.00013	1e-05	-0.00011	3
39530	-0.00035	-7e-05	8e-05	0.00022	0.00073	0.00013	1e-05	-0.00011	3
39531	-0.00035	-7e-05	8e-05	0.00022	0.00073	0.00013	1e-05	-0.00011	3
39532	-0.00035	-7e-05	8e-05	0.00022	0.00073	0.00013	1e-05	-0.00011	3
39533	-0.00035	-7e-05	8e-05	0.00022	0.00073	0.00013	1e-05	-0.00011	3
39534	0.00012	3e-05	-0.00027	-0.00014	-0.00028	-5e-05	-9e-05	0.00012	3
39535	0.00012	3e-05	-0.00027	-0.00014	-0.00028	-5e-05	-9e-05	0.00012	3
39536	0.00012	3e-05	-0.00027	-0.00014	-0.00028	-5e-05	-9e-05	0.00012	3
39538	0.00012	3e-05	-0.00027	-0.00014	-0.00028	-5e-05	-9e-05	0.00012	3
39539	0.00012	3e-05	-0.00027	-0.00014	-0.00028	-5e-05	-9e-05	0.00012	3
39540	0.00012	3e-05	-0.00027	-0.00014	-0.00028	-5e-05	-9e-05	0.00012	3
39541	0.00012	3e-05	-0.00027	-0.00014	-0.00028	-5e-05	-9e-05	0.00012	3
39542	0.00012	3e-05	-0.00027	-0.00014	-0.00028	-5e-05	-9e-05	0.00012	3
39543	0.00012	3e-05	-0.00027	-0.00014	-0.00028	-5e-05	-9e-05	0.00012	3
39545	0.00012	3e-05	-0.00027	-0.00014	-0.00028	-5e-05	-9e-05	0.00012	3
39546	0.00012	3e-05	-0.00027	-0.00014	-0.00028	-5e-05	-9e-05	0.00012	3
39547	0.00012	3e-05	-0.00027	-0.00014	-0.00028	-5e-05	-9e-05	0.00012	3
39548	-0.00101	-0.00037	0.00016	-2e-05	-0.00046	-0.00025	-0.00024	-0.00058	3
39549	-0.00101	-0.00037	0.00016	-2e-05	-0.00046	-0.00025	-0.00024	-0.00058	3
39550	-0.00101	-0.00037	0.00016	-2e-05	-0.00046	-0.00025	-0.00024	-0.00058	3
39551	-0.00101	-0.00037	0.00016	-2e-05	-0.00046	-0.00025	-0.00024	-0.00058	3
39552	-0.00101	-0.00037	0.00016	-2e-05	-0.00046	-0.00025	-0.00024	-0.00058	3
39553	-0.00101	-0.00037	0.00016	-2e-05	-0.00046	-0.00025	-0.00024	-0.00058	3
39554	-0.00101	-0.00037	0.00016	-2e-05	-0.00046	-0.00025	-0.00024	-0.00058	3
39555	0.00079	0.00024	-9e-05	-0.00019	-0.00045	5e-05	2e-05	5e-05	3
39556	-0.00039	0	0.00025	8e-05	7e-05	-0.00016	-9e-05	-0.00034	3
39557	-0.00039	0	0.00025	8e-05	7e-05	-0.00016	-9e-05	-0.00034	3
39558	-0.00039	0	0.00025	8e-05	7e-05	-0.00016	-9e-05	-0.00034	3
39559	-0.00039	0	0.00025	8e-05	7e-05	-0.00016	-9e-05	-0.00034	3
39560	-0.00039	0	0.00025	8e-05	7e-05	-0.00016	-9e-05	-0.00034	3
39561	-0.00039	0	0.00025	8e-05	7e-05	-0.00016	-9e-05	-0.00034	3
39562	-0.00039	0	0.00025	8e-05	7e-05	-0.00016	-9e-05	-0.00034	3
39563	-0.00039	0	0.00025	8e-05	7e-05	-0.00016	-9e-05	-0.00034	3
39564	-0.00039	0	0.00025	8e-05	7e-05	-0.00016	-9e-05	-0.00034	3
39565	-0.00039	0	0.00025	8e-05	7e-05	-0.00016	-9e-05	-0.00034	3
39566	-0.00039	0	0.00025	8e-05	7e-05	-0.00016	-9e-05	-0.00034	3
39567	-0.00039	0	0.00025	8e-05	7e-05	-0.00016	-9e-05	-0.00034	3
39568	-0.00039	0	0.00025	8e-05	7e-05	-0.00016	-9e-05	-0.00034	3
39569	-0.00039	0	0.00025	8e-05	7e-05	-0.00016	-9e-05	-0.00034	3
39570	-0.00039	0	0.00025	8e-05	7e-05	-0.00016	-9e-05	-0.00034	3
39571	-0.00039	0	0.00025	8e-05	7e-05	-0.00016	-9e-05	-0.00034	3
39572	-0.00039	0	0.00025	8e-05	7e-05	-0.00016	-9e-05	-0.00034	3
39573	-0.00039	0	0.00025	8e-05	7e-05	-0.00016	-9e-05	-0.00034	3
39574	-0.00039	0	0.00025	8e-05	7e-05	-0.00016	-9e-05	-0.00034	3
39575	-0.00039	0	0.00025	8e-05	7e-05	-0.00016	-9e-05	-0.00034	3
39576	-0.00039	0	0.00025	8e-05	7e-05	-0.00016	-9e-05	-0.00034	3
39577	-0.00017	0.00027	8e-05	-3e-05	-0.00015	-0.00011	1e-05	-0.00024	3
39578	-0.00053	-0.00032	-3e-05	-1e-05	7e-05	0	-0.00028	0.00029	3
39579	-0.00053	-0.00032	-3e-05	-1e-05	7e-05	0	-0.00028	0.00029	3
39580	-0.00053	-0.00032	-3e-05	-1e-05	7e-05	0	-0.00028	0.00029	3
39581	-0.00053	-0.00032	-3e-05	-1e-05	7e-05	0	-0.00028	0.00029	3
39582	-0.00053	-0.00032	-3e-05	-1e-05	7e-05	0	-0.00028	0.00029	3
39583	-0.00053	-0.00032	-3e-05	-1e-05	7e-05	0	-0.00028	0.00029	3
39584	-0.00053	-0.00032	-3e-05	-1e-05	7e-05	0	-0.00028	0.00029	3
39585	-0.00053	-0.00032	-3e-05	-1e-05	7e-05	0	-0.00028	0.00029	3
39586	-0.00053	-0.00032	-3e-05	-1e-05	7e-05	0	-0.00028	0.00029	3
39587	-0.00053	-0.00032	-3e-05	-1e-05	7e-05	0	-0.00028	0.00029	3
39589	-0.00053	-0.00032	-3e-05	-1e-05	7e-05	0	-0.00028	0.00029	3
39590	-0.00053	-0.00032	-3e-05	-1e-05	7e-05	0	-0.00028	0.00029	3
39591	-0.00053	-0.00032	-3e-05	-1e-05	7e-05	0	-0.00028	0.00029	3
39592	-0.00053	-0.00032	-3e-05	-1e-05	7e-05	0	-0.00028	0.00029	3
39593	-0.00053	-0.00032	-3e-05	-1e-05	7e-05	0	-0.00028	0.00029	3
39594	-0.00053	-0.00032	-3e-05	-1e-05	7e-05	0	-0.00028	0.00029	3
39595	-0.00053	-0.00032	-3e-05	-1e-05	7e-05	0	-0.00028	0.00029	3
39596	-0.00053	-0.00032	-3e-05	-1e-05	7e-05	0	-0.00028	0.00029	3
39597	-0.00053	-0.00032	-3e-05	-1e-05	7e-05	0	-0.00028	0.00029	3
39598	-0.00053	-0.00032	-3e-05	-1e-05	7e-05	0	-0.00028	0.00029	3
39599	-0.00053	-0.00032	-3e-05	-1e-05	7e-05	0	-0.00028	0.00029	3
39600	0.00051	0.00014	-5e-05	0	0.00018	-4e-05	0.00018	0.00019	3
39601	-0.00049	3e-05	4e-05	0.00024	0.0002	0.00028	0.00011	-0.00016	3
39602	-0.00049	3e-05	4e-05	0.00024	0.0002	0.00028	0.00011	-0.00016	3
39603	-0.00049	3e-05	4e-05	0.00024	0.0002	0.00028	0.00011	-0.00016	3
39604	-0.00049	3e-05	4e-05	0.00024	0.0002	0.00028	0.00011	-0.00016	3
39605	-0.00049	3e-05	4e-05	0.00024	0.0002	0.00028	0.00011	-0.00016	3
39606	-0.00049	3e-05	4e-05	0.00024	0.0002	0.00028	0.00011	-0.00016	3
39607	-0.00049	3e-05	4e-05	0.00024	0.0002	0.00028	0.00011	-0.00016	3
39608	-0.00049	3e-05	4e-05	0.00024	0.0002	0.00028	0.00011	-0.00016	3
39609	-0.00049	3e-05	4e-05	0.00024	0.0002	0.00028	0.00011	-0.00016	3
39610	-0.00049	3e-05	4e-05	0.00024	0.0002	0.00028	0.00011	-0.00016	3
39611	-0.00049	3e-05	4e-05	0.00024	0.0002	0.00028	0.00011	-0.00016	3
39612	-0.00049	3e-05	4e-05	0.00024	0.0002	0.00028	0.00011	-0.00016	3
39613	-0.00049	3e-05	4e-05	0.00024	0.0002	0.00028	0.00011	-0.00016	3
39614	-0.00018	-3e-05	-7e-05	-9e-05	-0.00015	-0.0001	0.00033	0.00032	3
39615	0.00127	0.00033	0.00013	-9e-05	-0.00031	1e-05	2e-05	-9e-05	3
39616	0.00127	0.00033	0.00013	-9e-05	-0.00031	1e-05	2e-05	-9e-05	3
39617	0.00127	0.00033	0.00013	-9e-05	-0.00031	1e-05	2e-05	-9e-05	3
39618	0.00127	0.00033	0.00013	-9e-05	-0.00031	1e-05	2e-05	-9e-05	3
39619	0.00127	0.00033	0.00013	-9e-05	-0.00031	1e-05	2e-05	-9e-05	3
39620	0.00127	0.00033	0.00013	-9e-05	-0.00031	1e-05	2e-05	-9e-05	3
39621	0.00127	0.00033	0.00013	-9e-05	-0.00031	1e-05	2e-05	-9e-05	3
39622	0.00127	0.00033	0.00013	-9e-05	-0.00031	1e-05	2e-05	-9e-05	3
39623	0.00127	0.00033	0.00013	-9e-05	-0.00031	1e-05	2e-05	-9e-05	3
39624	0.00127	0.00033	0.00013	-9e-05	-0.00031	1e-05	2e-05	-9e-05	3
39625	0.00127	0.00033	0.00013	-9e-05	-0.00031	1e-05	2e-05	-9e-05	3
39626	0.00127	0.00033	0.00013	-9e-05	-0.00031	1e-05	2e-05	-9e-05	3
39627	0.00127	0.00033	0.00013	-9e-05	-0.00031	1e-05	2e-05	-9e-05	3
39628	0.00127	0.00033	0.00013	-9e-05	-0.00031	1e-05	2e-05	-9e-05	3
39629	0.00127	0.00033	0.00013	-9e-05	-0.00031	1e-05	2e-05	-9e-05	3
39630	0.00127	0.00033	0.00013	-9e-05	-0.00031	1e-05	2e-05	-9e-05	3
39631	0.00127	0.00033	0.00013	-9e-05	-0.00031	1e-05	2e-05	-9e-05	3
39632	0.00127	0.00033	0.00013	-9e-05	-0.00031	1e-05	2e-05	-9e-05	3
39633	0.00127	0.00033	0.00013	-9e-05	-0.00031	1e-05	2e-05	-9e-05	3
39634	0.00127	0.00033	0.00013	-9e-05	-0.00031	1e-05	2e-05	-9e-05	3
39635	0.00127	0.00033	0.00013	-9e-05	-0.00031	1e-05	2e-05	-9e-05	3
39636	0.00127	0.00033	0.00013	-9e-05	-0.00031	1e-05	2e-05	-9e-05	3
39638	0.00036	6e-05	-6e-05	-2e-05	8e-05	-0.00012	5e-05	8e-05	3
39639	0.00036	6e-05	-6e-05	-2e-05	8e-05	-0.00012	5e-05	8e-05	3
39640	0.00036	6e-05	-6e-05	-2e-05	8e-05	-0.00012	5e-05	8e-05	3
39641	0.00036	6e-05	-6e-05	-2e-05	8e-05	-0.00012	5e-05	8e-05	3
39642	0.00036	6e-05	-6e-05	-2e-05	8e-05	-0.00012	5e-05	8e-05	3
39643	0.00036	6e-05	-6e-05	-2e-05	8e-05	-0.00012	5e-05	8e-05	3
39644	0.00036	6e-05	-6e-05	-2e-05	8e-05	-0.00012	5e-05	8e-05	3
39645	0.00036	6e-05	-6e-05	-2e-05	8e-05	-0.00012	5e-05	8e-05	3
39646	0.00036	6e-05	-6e-05	-2e-05	8e-05	-0.00012	5e-05	8e-05	3
39647	0.00036	6e-05	-6e-05	-2e-05	8e-05	-0.00012	5e-05	8e-05	3
39648	0.00036	6e-05	-6e-05	-2e-05	8e-05	-0.00012	5e-05	8e-05	3
39649	0.00036	6e-05	-6e-05	-2e-05	8e-05	-0.00012	5e-05	8e-05	3
39650	0.00036	6e-05	-6e-05	-2e-05	8e-05	-0.00012	5e-05	8e-05	3
39651	0.00036	6e-05	-6e-05	-2e-05	8e-05	-0.00012	5e-05	8e-05	3
39652	0.00036	6e-05	-6e-05	-2e-05	8e-05	-0.00012	5e-05	8e-05	3
39653	0.00036	6e-05	-6e-05	-2e-05	8e-05	-0.00012	5e-05	8e-05	3
39654	0.00036	6e-05	-6e-05	-2e-05	8e-05	-0.00012	5e-05	8e-05	3
39655	0.00036	6e-05	-6e-05	-2e-05	8e-05	-0.00012	5e-05	8e-05	3
39656	0.00036	6e-05	-6e-05	-2e-05	8e-05	-0.00012	5e-05	8e-05	3
39657	0.00036	6e-05	-6e-05	-2e-05	8e-05	-0.00012	5e-05	8e-05	3
39658	0.00036	6e-05	-6e-05	-2e-05	8e-05	-0.00012	5e-05	8e-05	3
39659	0.00036	6e-05	-6e-05	-2e-05	8e-05	-0.00012	5e-05	8e-05	3
39660	-0.00037	-0.00073	-8e-05	9e-05	0.00027	0.00013	-1e-05	-0.00011	3
39661	-0.00013	0	0.00013	0.00042	0.00086	0.00028	-0.00026	-0.0007	3
39662	-0.00013	0	0.00013	0.00042	0.00086	0.00028	-0.00026	-0.0007	3
39663	-0.00013	0	0.00013	0.00042	0.00086	0.00028	-0.00026	-0.0007	3
39664	-0.00013	0	0.00013	0.00042	0.00086	0.00028	-0.00026	-0.0007	3
39665	-0.00013	0	0.00013	0.00042	0.00086	0.00028	-0.00026	-0.0007	3
39666	-0.00013	0	0.00013	0.00042	0.00086	0.00028	-0.00026	-0.0007	3
39667	-0.00013	0	0.00013	0.00042	0.00086	0.00028	-0.00026	-0.0007	3
39668	-0.00013	0	0.00013	0.00042	0.00086	0.00028	-0.00026	-0.0007	3
39669	-0.00013	0	0.00013	0.00042	0.00086	0.00028	-0.00026	-0.0007	3
39670	-0.00013	0	0.00013	0.00042	0.00086	0.00028	-0.00026	-0.0007	3
39671	-0.00013	0	0.00013	0.00042	0.00086	0.00028	-0.00026	-0.0007	3
39672	-0.00013	0	0.00013	0.00042	0.00086	0.00028	-0.00026	-0.0007	3
39673	-0.00013	0	0.00013	0.00042	0.00086	0.00028	-0.00026	-0.0007	3
39674	-0.00079	-0.00026	-0.00012	-0.00015	-0.00052	-0.00034	-0.00028	-0.0002	3
39675	-3e-05	0.00016	-8e-05	0.0002	0.00062	-3e-05	0	0	3
39676	-3e-05	0.00016	-8e-05	0.0002	0.00062	-3e-05	0	0	3
39677	-3e-05	0.00016	-8e-05	0.0002	0.00062	-3e-05	0	0	3
39678	-3e-05	0.00016	-8e-05	0.0002	0.00062	-3e-05	0	0	3
39679	-3e-05	0.00016	-8e-05	0.0002	0.00062	-3e-05	0	0	3
39680	-3e-05	0.00016	-8e-05	0.0002	0.00062	-3e-05	0	0	3
39681	-3e-05	0.00016	-8e-05	0.0002	0.00062	-3e-05	0	0	3
39682	-3e-05	0.00016	-8e-05	0.0002	0.00062	-3e-05	0	0	3
39683	-3e-05	0.00016	-8e-05	0.0002	0.00062	-3e-05	0	0	3
39684	-3e-05	0.00016	-8e-05	0.0002	0.00062	-3e-05	0	0	3
39685	-3e-05	0.00016	-8e-05	0.0002	0.00062	-3e-05	0	0	3
39686	-3e-05	0.00016	-8e-05	0.0002	0.00062	-3e-05	0	0	3
39687	-3e-05	0.00016	-8e-05	0.0002	0.00062	-3e-05	0	0	3
39689	-3e-05	0.00016	-8e-05	0.0002	0.00062	-3e-05	0	0	3
39690	-3e-05	0.00016	-8e-05	0.0002	0.00062	-3e-05	0	0	3
39691	-3e-05	0.00016	-8e-05	0.0002	0.00062	-3e-05	0	0	3
39692	-3e-05	0.00016	-8e-05	0.0002	0.00062	-3e-05	0	0	3
39693	-3e-05	0.00016	-8e-05	0.0002	0.00062	-3e-05	0	0	3
39694	-3e-05	0.00016	-8e-05	0.0002	0.00062	-3e-05	0	0	3
39695	-3e-05	0.00016	-8e-05	0.0002	0.00062	-3e-05	0	0	3
39696	-3e-05	0.00016	-8e-05	0.0002	0.00062	-3e-05	0	0	3
39697	-3e-05	0.00016	-8e-05	0.0002	0.00062	-3e-05	0	0	3
39698	-3e-05	0.00016	-8e-05	0.0002	0.00062	-3e-05	0	0	3
39699	-0.00049	-0.00034	2e-05	-1e-05	-0.00011	-0.00015	-1e-05	0.00011	3
39700	-0.00015	0.00024	1e-05	-0.00021	-0.00056	-0.00021	6e-05	0.00046	3
39701	-0.00015	0.00024	1e-05	-0.00021	-0.00056	-0.00021	6e-05	0.00046	3
39702	-0.00015	0.00024	1e-05	-0.00021	-0.00056	-0.00021	6e-05	0.00046	3
39703	-0.00015	0.00024	1e-05	-0.00021	-0.00056	-0.00021	6e-05	0.00046	3
39704	-0.00015	0.00024	1e-05	-0.00021	-0.00056	-0.00021	6e-05	0.00046	3
39705	-0.00015	0.00024	1e-05	-0.00021	-0.00056	-0.00021	6e-05	0.00046	3
39706	-0.00015	0.00024	1e-05	-0.00021	-0.00056	-0.00021	6e-05	0.00046	3
39707	-0.00015	0.00024	1e-05	-0.00021	-0.00056	-0.00021	6e-05	0.00046	3
39708	-0.00015	0.00024	1e-05	-0.00021	-0.00056	-0.00021	6e-05	0.00046	3
39709	-0.00015	0.00024	1e-05	-0.00021	-0.00056	-0.00021	6e-05	0.00046	3
39711	-0.00015	0.00024	1e-05	-0.00021	-0.00056	-0.00021	6e-05	0.00046	3
39712	-0.00015	0.00024	1e-05	-0.00021	-0.00056	-0.00021	6e-05	0.00046	3
39713	-0.00015	0.00024	1e-05	-0.00021	-0.00056	-0.00021	6e-05	0.00046	3
39714	-0.00015	0.00024	1e-05	-0.00021	-0.00056	-0.00021	6e-05	0.00046	3
39715	-0.00015	0.00024	1e-05	-0.00021	-0.00056	-0.00021	6e-05	0.00046	3
39716	-0.00015	0.00024	1e-05	-0.00021	-0.00056	-0.00021	6e-05	0.00046	3
39717	-0.00015	0.00024	1e-05	-0.00021	-0.00056	-0.00021	6e-05	0.00046	3
39718	-0.00015	0.00024	1e-05	-0.00021	-0.00056	-0.00021	6e-05	0.00046	3
39719	-0.00015	0.00024	1e-05	-0.00021	-0.00056	-0.00021	6e-05	0.00046	3
39720	0.00044	0.00018	-0.00012	-0.00024	-0.00049	-0.00011	9e-05	-0.00016	3
39721	-1e-05	-0.00024	-4e-05	0.00012	0.00025	0.00014	0.00018	0.00026	3
39722	-1e-05	-0.00024	-4e-05	0.00012	0.00025	0.00014	0.00018	0.00026	3
39723	-1e-05	-0.00024	-4e-05	0.00012	0.00025	0.00014	0.00018	0.00026	3
39724	-1e-05	-0.00024	-4e-05	0.00012	0.00025	0.00014	0.00018	0.00026	3
39725	-1e-05	-0.00024	-4e-05	0.00012	0.00025	0.00014	0.00018	0.00026	3
39726	-1e-05	-0.00024	-4e-05	0.00012	0.00025	0.00014	0.00018	0.00026	3
39727	-1e-05	-0.00024	-4e-05	0.00012	0.00025	0.00014	0.00018	0.00026	3
39728	-1e-05	-0.00024	-4e-05	0.00012	0.00025	0.00014	0.00018	0.00026	3
39729	-1e-05	-0.00024	-4e-05	0.00012	0.00025	0.00014	0.00018	0.00026	3
39730	-1e-05	-0.00024	-4e-05	0.00012	0.00025	0.00014	0.00018	0.00026	3
39731	-1e-05	-0.00024	-4e-05	0.00012	0.00025	0.00014	0.00018	0.00026	3
39732	-1e-05	-0.00024	-4e-05	0.00012	0.00025	0.00014	0.00018	0.00026	3
39733	-1e-05	-0.00024	-4e-05	0.00012	0.00025	0.00014	0.00018	0.00026	3
39734	-1e-05	-0.00024	-4e-05	0.00012	0.00025	0.00014	0.00018	0.00026	3
39735	0.00093	0.00041	8e-05	-0.00014	-0.00032	-0.00016	-0.00011	-0.00019	3
39736	0.00093	0.00041	8e-05	-0.00014	-0.00032	-0.00016	-0.00011	-0.00019	3
39738	0.00093	0.00041	8e-05	-0.00014	-0.00032	-0.00016	-0.00011	-0.00019	3
39739	0.00093	0.00041	8e-05	-0.00014	-0.00032	-0.00016	-0.00011	-0.00019	3
39740	0.00093	0.00041	8e-05	-0.00014	-0.00032	-0.00016	-0.00011	-0.00019	3
39741	0.00093	0.00041	8e-05	-0.00014	-0.00032	-0.00016	-0.00011	-0.00019	3
39742	0.00093	0.00041	8e-05	-0.00014	-0.00032	-0.00016	-0.00011	-0.00019	3
39743	0.00093	0.00041	8e-05	-0.00014	-0.00032	-0.00016	-0.00011	-0.00019	3
39744	0.00093	0.00041	8e-05	-0.00014	-0.00032	-0.00016	-0.00011	-0.00019	3
39745	0.00093	0.00041	8e-05	-0.00014	-0.00032	-0.00016	-0.00011	-0.00019	3
39746	0.00093	0.00041	8e-05	-0.00014	-0.00032	-0.00016	-0.00011	-0.00019	3
39747	0.00093	0.00041	8e-05	-0.00014	-0.00032	-0.00016	-0.00011	-0.00019	3
39748	0.00093	0.00041	8e-05	-0.00014	-0.00032	-0.00016	-0.00011	-0.00019	3
39749	0.00093	0.00041	8e-05	-0.00014	-0.00032	-0.00016	-0.00011	-0.00019	3
39750	0.00093	0.00041	8e-05	-0.00014	-0.00032	-0.00016	-0.00011	-0.00019	3
39751	0.00093	0.00041	8e-05	-0.00014	-0.00032	-0.00016	-0.00011	-0.00019	3
39752	0.00093	0.00041	8e-05	-0.00014	-0.00032	-0.00016	-0.00011	-0.00019	3
39753	0.00093	0.00041	8e-05	-0.00014	-0.00032	-0.00016	-0.00011	-0.00019	3
39754	0.00093	0.00041	8e-05	-0.00014	-0.00032	-0.00016	-0.00011	-0.00019	3
39755	0.00093	0.00041	8e-05	-0.00014	-0.00032	-0.00016	-0.00011	-0.00019	3
39756	0.00093	0.00041	8e-05	-0.00014	-0.00032	-0.00016	-0.00011	-0.00019	3
39757	0.00093	0.00041	8e-05	-0.00014	-0.00032	-0.00016	-0.00011	-0.00019	3
39758	-0.0003	-7e-05	0.00027	0.00025	0.00032	-0.00023	-0.00043	-0.00031	3
39759	0.00024	0	3e-05	-0.00019	-0.00041	-0.00018	0.00017	0.00041	3
39760	0.00024	0	3e-05	-0.00019	-0.00041	-0.00018	0.00017	0.00041	3
39761	0.00024	0	3e-05	-0.00019	-0.00041	-0.00018	0.00017	0.00041	3
39762	0.00024	0	3e-05	-0.00019	-0.00041	-0.00018	0.00017	0.00041	3
39763	0.00024	0	3e-05	-0.00019	-0.00041	-0.00018	0.00017	0.00041	3
39764	0.00024	0	3e-05	-0.00019	-0.00041	-0.00018	0.00017	0.00041	3
39765	0.00024	0	3e-05	-0.00019	-0.00041	-0.00018	0.00017	0.00041	3
39766	0.00024	0	3e-05	-0.00019	-0.00041	-0.00018	0.00017	0.00041	3
39767	0.00024	0	3e-05	-0.00019	-0.00041	-0.00018	0.00017	0.00041	3
39768	0.00024	0	3e-05	-0.00019	-0.00041	-0.00018	0.00017	0.00041	3
39769	0.00024	0	3e-05	-0.00019	-0.00041	-0.00018	0.00017	0.00041	3
39770	0.00024	0	3e-05	-0.00019	-0.00041	-0.00018	0.00017	0.00041	3
39771	0.00024	0	3e-05	-0.00019	-0.00041	-0.00018	0.00017	0.00041	3
39772	0.00024	0	3e-05	-0.00019	-0.00041	-0.00018	0.00017	0.00041	3
39773	0.00024	0	3e-05	-0.00019	-0.00041	-0.00018	0.00017	0.00041	3
39774	0.00024	0	3e-05	-0.00019	-0.00041	-0.00018	0.00017	0.00041	3
39775	0.00024	0	3e-05	-0.00019	-0.00041	-0.00018	0.00017	0.00041	3
39776	0.00024	0	3e-05	-0.00019	-0.00041	-0.00018	0.00017	0.00041	3
39777	0.00024	0	3e-05	-0.00019	-0.00041	-0.00018	0.00017	0.00041	3
39778	0.00024	0	3e-05	-0.00019	-0.00041	-0.00018	0.00017	0.00041	3
39779	0.00024	0	3e-05	-0.00019	-0.00041	-0.00018	0.00017	0.00041	3
39780	0.00048	0.00049	-4e-05	-7e-05	-0.00025	2e-05	0	0.00032	3
39781	0.00026	-4e-05	-4e-05	-8e-05	0	0.00017	0.00021	0.00026	3
39782	0.00026	-4e-05	-4e-05	-8e-05	0	0.00017	0.00021	0.00026	3
39783	0.00026	-4e-05	-4e-05	-8e-05	0	0.00017	0.00021	0.00026	3
39784	0.00026	-4e-05	-4e-05	-8e-05	0	0.00017	0.00021	0.00026	3
39785	0.00026	-4e-05	-4e-05	-8e-05	0	0.00017	0.00021	0.00026	3
39786	0.00026	-4e-05	-4e-05	-8e-05	0	0.00017	0.00021	0.00026	3
39788	0.00026	-4e-05	-4e-05	-8e-05	0	0.00017	0.00021	0.00026	3
39789	0.00026	-4e-05	-4e-05	-8e-05	0	0.00017	0.00021	0.00026	3
39790	0.00026	-4e-05	-4e-05	-8e-05	0	0.00017	0.00021	0.00026	3
39791	0.00026	-4e-05	-4e-05	-8e-05	0	0.00017	0.00021	0.00026	3
39792	0.00026	-4e-05	-4e-05	-8e-05	0	0.00017	0.00021	0.00026	3
39793	0.00026	-4e-05	-4e-05	-8e-05	0	0.00017	0.00021	0.00026	3
39794	0.00026	-4e-05	-4e-05	-8e-05	0	0.00017	0.00021	0.00026	3
39795	-0.00066	-0.00015	-8e-05	-8e-05	-9e-05	0.00027	0.00019	-6e-05	3
39796	-0.00066	-0.00015	-8e-05	-8e-05	-9e-05	0.00027	0.00019	-6e-05	3
39797	-0.00066	-0.00015	-8e-05	-8e-05	-9e-05	0.00027	0.00019	-6e-05	3
39798	-0.00066	-0.00015	-8e-05	-8e-05	-9e-05	0.00027	0.00019	-6e-05	3
39799	-0.00066	-0.00015	-8e-05	-8e-05	-9e-05	0.00027	0.00019	-6e-05	3
39800	-0.00066	-0.00015	-8e-05	-8e-05	-9e-05	0.00027	0.00019	-6e-05	3
39801	-0.00066	-0.00015	-8e-05	-8e-05	-9e-05	0.00027	0.00019	-6e-05	3
39802	-0.00066	-0.00015	-8e-05	-8e-05	-9e-05	0.00027	0.00019	-6e-05	3
39803	-0.00066	-0.00015	-8e-05	-8e-05	-9e-05	0.00027	0.00019	-6e-05	3
39804	-0.00066	-0.00015	-8e-05	-8e-05	-9e-05	0.00027	0.00019	-6e-05	3
39805	-0.00066	-0.00015	-8e-05	-8e-05	-9e-05	0.00027	0.00019	-6e-05	3
39806	-0.00066	-0.00015	-8e-05	-8e-05	-9e-05	0.00027	0.00019	-6e-05	3
39807	-0.00066	-0.00015	-8e-05	-8e-05	-9e-05	0.00027	0.00019	-6e-05	3
39808	-0.00066	-0.00015	-8e-05	-8e-05	-9e-05	0.00027	0.00019	-6e-05	3
39809	-0.00066	-0.00015	-8e-05	-8e-05	-9e-05	0.00027	0.00019	-6e-05	3
39810	-0.00066	-0.00015	-8e-05	-8e-05	-9e-05	0.00027	0.00019	-6e-05	3
39811	-0.00066	-0.00015	-8e-05	-8e-05	-9e-05	0.00027	0.00019	-6e-05	3
39812	-0.00066	-0.00015	-8e-05	-8e-05	-9e-05	0.00027	0.00019	-6e-05	3
39813	-0.00066	-0.00015	-8e-05	-8e-05	-9e-05	0.00027	0.00019	-6e-05	3
39814	-0.00066	-0.00015	-8e-05	-8e-05	-9e-05	0.00027	0.00019	-6e-05	3
39815	-0.00066	-0.00015	-8e-05	-8e-05	-9e-05	0.00027	0.00019	-6e-05	3
39816	-0.00066	-0.00015	-8e-05	-8e-05	-9e-05	0.00027	0.00019	-6e-05	3
39817	-0.00066	-0.00015	-8e-05	-8e-05	-9e-05	0.00027	0.00019	-6e-05	3
39818	0.00014	0	0	0.00011	0.00029	0.00012	0.00017	-1e-05	3
39819	0.00066	0.00036	2e-05	-6e-05	-0.00017	-0.00016	-7e-05	-2e-05	3
39820	0.00066	0.00036	2e-05	-6e-05	-0.00017	-0.00016	-7e-05	-2e-05	3
39821	0.00066	0.00036	2e-05	-6e-05	-0.00017	-0.00016	-7e-05	-2e-05	3
39822	0.00066	0.00036	2e-05	-6e-05	-0.00017	-0.00016	-7e-05	-2e-05	3
39823	0.00066	0.00036	2e-05	-6e-05	-0.00017	-0.00016	-7e-05	-2e-05	3
39824	0.00066	0.00036	2e-05	-6e-05	-0.00017	-0.00016	-7e-05	-2e-05	3
39825	0.00066	0.00036	2e-05	-6e-05	-0.00017	-0.00016	-7e-05	-2e-05	3
39826	0.00066	0.00036	2e-05	-6e-05	-0.00017	-0.00016	-7e-05	-2e-05	3
39827	0.00066	0.00036	2e-05	-6e-05	-0.00017	-0.00016	-7e-05	-2e-05	3
39828	0.00066	0.00036	2e-05	-6e-05	-0.00017	-0.00016	-7e-05	-2e-05	3
39829	0.00066	0.00036	2e-05	-6e-05	-0.00017	-0.00016	-7e-05	-2e-05	3
39830	0.00066	0.00036	2e-05	-6e-05	-0.00017	-0.00016	-7e-05	-2e-05	3
39831	0.00066	0.00036	2e-05	-6e-05	-0.00017	-0.00016	-7e-05	-2e-05	3
39832	0.00066	0.00036	2e-05	-6e-05	-0.00017	-0.00016	-7e-05	-2e-05	3
39833	0.00066	0.00036	2e-05	-6e-05	-0.00017	-0.00016	-7e-05	-2e-05	3
39834	0.00066	0.00036	2e-05	-6e-05	-0.00017	-0.00016	-7e-05	-2e-05	3
39835	0.00066	0.00036	2e-05	-6e-05	-0.00017	-0.00016	-7e-05	-2e-05	3
39836	0.00066	0.00036	2e-05	-6e-05	-0.00017	-0.00016	-7e-05	-2e-05	3
39838	0.00066	0.00036	2e-05	-6e-05	-0.00017	-0.00016	-7e-05	-2e-05	3
39839	0.00066	0.00036	2e-05	-6e-05	-0.00017	-0.00016	-7e-05	-2e-05	3
39840	-0.00058	0.00072	0.00023	-6e-05	-5e-05	-0.0001	9e-05	0.00012	3
39841	-0.00016	-0.00046	0.00017	-2e-05	-0.00019	-0.00025	-9e-05	4e-05	3
39842	-0.00016	-0.00046	0.00017	-2e-05	-0.00019	-0.00025	-9e-05	4e-05	3
39843	-0.00016	-0.00046	0.00017	-2e-05	-0.00019	-0.00025	-9e-05	4e-05	3
39844	-0.00016	-0.00046	0.00017	-2e-05	-0.00019	-0.00025	-9e-05	4e-05	3
39845	-0.00016	-0.00046	0.00017	-2e-05	-0.00019	-0.00025	-9e-05	4e-05	3
39846	-0.00016	-0.00046	0.00017	-2e-05	-0.00019	-0.00025	-9e-05	4e-05	3
39847	-0.00016	-0.00046	0.00017	-2e-05	-0.00019	-0.00025	-9e-05	4e-05	3
39848	-0.00016	-0.00046	0.00017	-2e-05	-0.00019	-0.00025	-9e-05	4e-05	3
39849	-0.00016	-0.00046	0.00017	-2e-05	-0.00019	-0.00025	-9e-05	4e-05	3
39850	-0.00016	-0.00046	0.00017	-2e-05	-0.00019	-0.00025	-9e-05	4e-05	3
39851	-0.00016	-0.00046	0.00017	-2e-05	-0.00019	-0.00025	-9e-05	4e-05	3
39852	-0.00016	-0.00046	0.00017	-2e-05	-0.00019	-0.00025	-9e-05	4e-05	3
39853	-0.00016	-0.00046	0.00017	-2e-05	-0.00019	-0.00025	-9e-05	4e-05	3
39854	-0.00016	-0.00046	0.00017	-2e-05	-0.00019	-0.00025	-9e-05	4e-05	3
39855	0.00047	0.00027	-0.00013	0	-8e-05	8e-05	0.00018	0.00052	3
39857	0.00047	0.00027	-0.00013	0	-8e-05	8e-05	0.00018	0.00052	3
39858	0.00047	0.00027	-0.00013	0	-8e-05	8e-05	0.00018	0.00052	3
39859	0.00047	0.00027	-0.00013	0	-8e-05	8e-05	0.00018	0.00052	3
39860	0.00047	0.00027	-0.00013	0	-8e-05	8e-05	0.00018	0.00052	3
39861	0.00047	0.00027	-0.00013	0	-8e-05	8e-05	0.00018	0.00052	3
39862	0.00047	0.00027	-0.00013	0	-8e-05	8e-05	0.00018	0.00052	3
39863	0.00047	0.00027	-0.00013	0	-8e-05	8e-05	0.00018	0.00052	3
39864	0.00047	0.00027	-0.00013	0	-8e-05	8e-05	0.00018	0.00052	3
39865	0.00047	0.00027	-0.00013	0	-8e-05	8e-05	0.00018	0.00052	3
39866	0.00047	0.00027	-0.00013	0	-8e-05	8e-05	0.00018	0.00052	3
39867	0.00047	0.00027	-0.00013	0	-8e-05	8e-05	0.00018	0.00052	3
39868	0.00047	0.00027	-0.00013	0	-8e-05	8e-05	0.00018	0.00052	3
39869	0.00047	0.00027	-0.00013	0	-8e-05	8e-05	0.00018	0.00052	3
39870	0.00047	0.00027	-0.00013	0	-8e-05	8e-05	0.00018	0.00052	3
39871	0.00047	0.00027	-0.00013	0	-8e-05	8e-05	0.00018	0.00052	3
39872	0.00047	0.00027	-0.00013	0	-8e-05	8e-05	0.00018	0.00052	3
39873	0.00047	0.00027	-0.00013	0	-8e-05	8e-05	0.00018	0.00052	3
39874	0.00047	0.00027	-0.00013	0	-8e-05	8e-05	0.00018	0.00052	3
39875	0.00047	0.00027	-0.00013	0	-8e-05	8e-05	0.00018	0.00052	3
39876	0.00047	0.00027	-0.00013	0	-8e-05	8e-05	0.00018	0.00052	3
39877	0.00047	0.00027	-0.00013	0	-8e-05	8e-05	0.00018	0.00052	3
39878	-0.00012	0.00016	6e-05	0.00016	0.00029	0.00019	0.00017	-0.00019	3
39879	-0.00012	0.00016	6e-05	0.00016	0.00029	0.00019	0.00017	-0.00019	3
39880	-0.00012	0.00016	6e-05	0.00016	0.00029	0.00019	0.00017	-0.00019	3
39881	-0.00012	0.00016	6e-05	0.00016	0.00029	0.00019	0.00017	-0.00019	3
39882	-0.00012	0.00016	6e-05	0.00016	0.00029	0.00019	0.00017	-0.00019	3
39883	-0.00012	0.00016	6e-05	0.00016	0.00029	0.00019	0.00017	-0.00019	3
39884	-0.00012	0.00016	6e-05	0.00016	0.00029	0.00019	0.00017	-0.00019	3
39885	-0.00012	0.00016	6e-05	0.00016	0.00029	0.00019	0.00017	-0.00019	3
39886	-0.00012	0.00016	6e-05	0.00016	0.00029	0.00019	0.00017	-0.00019	3
39888	-0.00012	0.00016	6e-05	0.00016	0.00029	0.00019	0.00017	-0.00019	3
39889	-0.00012	0.00016	6e-05	0.00016	0.00029	0.00019	0.00017	-0.00019	3
39890	-0.00012	0.00016	6e-05	0.00016	0.00029	0.00019	0.00017	-0.00019	3
39891	-0.00012	0.00016	6e-05	0.00016	0.00029	0.00019	0.00017	-0.00019	3
39892	-0.00012	0.00016	6e-05	0.00016	0.00029	0.00019	0.00017	-0.00019	3
39893	-0.00012	0.00016	6e-05	0.00016	0.00029	0.00019	0.00017	-0.00019	3
39894	-0.00012	0.00016	6e-05	0.00016	0.00029	0.00019	0.00017	-0.00019	3
39895	-0.00012	0.00016	6e-05	0.00016	0.00029	0.00019	0.00017	-0.00019	3
39896	-0.00012	0.00016	6e-05	0.00016	0.00029	0.00019	0.00017	-0.00019	3
39897	-0.00012	0.00016	6e-05	0.00016	0.00029	0.00019	0.00017	-0.00019	3
39898	-0.00012	0.00016	6e-05	0.00016	0.00029	0.00019	0.00017	-0.00019	3
39899	-0.00012	0.00016	6e-05	0.00016	0.00029	0.00019	0.00017	-0.00019	3
39900	-0.00016	-0.00031	-0.00028	-4e-05	4e-05	4e-05	0.00017	-0.00031	3
39901	0.00031	9e-05	5e-05	-0.00012	-0.00014	0.00047	0.00021	0.00033	3
39902	0.00031	9e-05	5e-05	-0.00012	-0.00014	0.00047	0.00021	0.00033	3
39904	0.00031	9e-05	5e-05	-0.00012	-0.00014	0.00047	0.00021	0.00033	3
39905	0.00031	9e-05	5e-05	-0.00012	-0.00014	0.00047	0.00021	0.00033	3
39906	0.00031	9e-05	5e-05	-0.00012	-0.00014	0.00047	0.00021	0.00033	3
39907	0.00031	9e-05	5e-05	-0.00012	-0.00014	0.00047	0.00021	0.00033	3
39908	0.00031	9e-05	5e-05	-0.00012	-0.00014	0.00047	0.00021	0.00033	3
39909	0.00031	9e-05	5e-05	-0.00012	-0.00014	0.00047	0.00021	0.00033	3
39910	0.00031	9e-05	5e-05	-0.00012	-0.00014	0.00047	0.00021	0.00033	3
39911	0.00031	9e-05	5e-05	-0.00012	-0.00014	0.00047	0.00021	0.00033	3
39912	0.00031	9e-05	5e-05	-0.00012	-0.00014	0.00047	0.00021	0.00033	3
39913	0.00031	9e-05	5e-05	-0.00012	-0.00014	0.00047	0.00021	0.00033	3
39914	0.00031	9e-05	5e-05	-0.00012	-0.00014	0.00047	0.00021	0.00033	3
39915	0.00031	9e-05	5e-05	-0.00012	-0.00014	0.00047	0.00021	0.00033	3
39916	0.00031	9e-05	5e-05	-0.00012	-0.00014	0.00047	0.00021	0.00033	3
39917	0.00031	9e-05	5e-05	-0.00012	-0.00014	0.00047	0.00021	0.00033	3
39918	0.00031	9e-05	5e-05	-0.00012	-0.00014	0.00047	0.00021	0.00033	3
39919	0.00031	9e-05	5e-05	-0.00012	-0.00014	0.00047	0.00021	0.00033	3
39920	0.00031	9e-05	5e-05	-0.00012	-0.00014	0.00047	0.00021	0.00033	3
39921	0.00031	9e-05	5e-05	-0.00012	-0.00014	0.00047	0.00021	0.00033	3
39922	0.00031	9e-05	5e-05	-0.00012	-0.00014	0.00047	0.00021	0.00033	3
39923	-0.0012	-0.00023	0.00028	0.00025	0.00029	-9e-05	0.00017	-0.00032	3
39924	-0.00023	0.00026	-0.00019	-1e-05	9e-05	3e-05	2e-05	8e-05	3
39925	-0.00023	0.00026	-0.00019	-1e-05	9e-05	3e-05	2e-05	8e-05	3
39926	-0.00023	0.00026	-0.00019	-1e-05	9e-05	3e-05	2e-05	8e-05	3
39927	-0.00023	0.00026	-0.00019	-1e-05	9e-05	3e-05	2e-05	8e-05	3
39928	-0.00023	0.00026	-0.00019	-1e-05	9e-05	3e-05	2e-05	8e-05	3
39929	-0.00023	0.00026	-0.00019	-1e-05	9e-05	3e-05	2e-05	8e-05	3
39930	-0.00023	0.00026	-0.00019	-1e-05	9e-05	3e-05	2e-05	8e-05	3
39931	-0.00023	0.00026	-0.00019	-1e-05	9e-05	3e-05	2e-05	8e-05	3
39932	-0.00023	0.00026	-0.00019	-1e-05	9e-05	3e-05	2e-05	8e-05	3
39933	-0.00023	0.00026	-0.00019	-1e-05	9e-05	3e-05	2e-05	8e-05	3
39934	-0.00023	0.00026	-0.00019	-1e-05	9e-05	3e-05	2e-05	8e-05	3
39935	-0.00023	0.00026	-0.00019	-1e-05	9e-05	3e-05	2e-05	8e-05	3
39936	-0.00023	0.00026	-0.00019	-1e-05	9e-05	3e-05	2e-05	8e-05	3
39938	-0.0001	9e-05	0.00042	0.00021	0.00079	8e-05	-0.00013	-0.00041	3
39939	-0.0001	9e-05	0.00042	0.00021	0.00079	8e-05	-0.00013	-0.00041	3
39940	-0.0001	9e-05	0.00042	0.00021	0.00079	8e-05	-0.00013	-0.00041	3
39941	-0.0001	9e-05	0.00042	0.00021	0.00079	8e-05	-0.00013	-0.00041	3
39942	-0.0001	9e-05	0.00042	0.00021	0.00079	8e-05	-0.00013	-0.00041	3
39943	-0.0001	9e-05	0.00042	0.00021	0.00079	8e-05	-0.00013	-0.00041	3
39944	-0.0001	9e-05	0.00042	0.00021	0.00079	8e-05	-0.00013	-0.00041	3
39945	-0.0001	9e-05	0.00042	0.00021	0.00079	8e-05	-0.00013	-0.00041	3
39946	-0.0001	9e-05	0.00042	0.00021	0.00079	8e-05	-0.00013	-0.00041	3
39947	-0.0001	9e-05	0.00042	0.00021	0.00079	8e-05	-0.00013	-0.00041	3
39948	-0.0001	9e-05	0.00042	0.00021	0.00079	8e-05	-0.00013	-0.00041	3
39949	-0.0001	9e-05	0.00042	0.00021	0.00079	8e-05	-0.00013	-0.00041	3
39951	-0.0001	9e-05	0.00042	0.00021	0.00079	8e-05	-0.00013	-0.00041	3
