6727	0.00016	1e-05	-5e-05	5e-05	0.00011	-0.00018	-8e-05	-9e-05	2
6728	0.00016	1e-05	-5e-05	5e-05	0.00011	-0.00018	-8e-05	-9e-05	2
6729	0.00016	1e-05	-5e-05	5e-05	0.00011	-0.00018	-8e-05	-9e-05	2
6730	3e-05	4e-05	2e-05	-0.00014	-1e-05	6e-05	0.00011	0.00019	2
6731	3e-05	4e-05	2e-05	-0.00014	-1e-05	6e-05	0.00011	0.00019	2
6732	0.00019	2e-05	-1e-05	4e-05	6e-05	-0.00019	0.00027	-3e-05	2
6733	0.00019	2e-05	-1e-05	4e-05	6e-05	-0.00019	0.00027	-3e-05	2
6734	0.00019	2e-05	-1e-05	4e-05	6e-05	-0.00019	0.00027	-3e-05	2
6735	0.00019	2e-05	-1e-05	4e-05	6e-05	-0.00019	0.00027	-3e-05	2
6736	0.00019	2e-05	-1e-05	4e-05	6e-05	-0.00019	0.00027	-3e-05	2
6738	0.00019	2e-05	-1e-05	4e-05	6e-05	-0.00019	0.00027	-3e-05	2
6739	0.00019	2e-05	-1e-05	4e-05	6e-05	-0.00019	0.00027	-3e-05	2
6740	0.00019	2e-05	-1e-05	4e-05	6e-05	-0.00019	0.00027	-3e-05	2
6741	0.00019	2e-05	-1e-05	4e-05	6e-05	-0.00019	0.00027	-3e-05	2
6742	0.00019	2e-05	-1e-05	4e-05	6e-05	-0.00019	0.00027	-3e-05	2
6743	0.00019	2e-05	-1e-05	4e-05	6e-05	-0.00019	0.00027	-3e-05	2
6744	0.00019	2e-05	-1e-05	4e-05	6e-05	-0.00019	0.00027	-3e-05	2
6745	0.00019	2e-05	-1e-05	4e-05	6e-05	-0.00019	0.00027	-3e-05	2
6746	0.00019	2e-05	-1e-05	4e-05	6e-05	-0.00019	0.00027	-3e-05	2
6747	0.00019	2e-05	-1e-05	4e-05	6e-05	-0.00019	0.00027	-3e-05	2
6748	0.00019	2e-05	-1e-05	4e-05	6e-05	-0.00019	0.00027	-3e-05	2
6749	0.00019	2e-05	-1e-05	4e-05	6e-05	-0.00019	0.00027	-3e-05	2
6750	0.00019	2e-05	-1e-05	4e-05	6e-05	-0.00019	0.00027	-3e-05	2
6751	0.00019	2e-05	-1e-05	4e-05	6e-05	-0.00019	0.00027	-3e-05	2
6752	0.00019	2e-05	-1e-05	4e-05	6e-05	-0.00019	0.00027	-3e-05	2
6753	-0.0003	-5e-05	-0.00015	-0.00025	0.00041	-1e-05	0.00038	9e-05	2
6754	-0.00029	-1e-05	-6e-05	-0.00054	-8e-05	-0.00011	0.00011	3e-05	2
6755	-0.00029	-1e-05	-6e-05	-0.00054	-8e-05	-0.00011	0.00011	3e-05	2
6756	-0.00029	-1e-05	-6e-05	-0.00054	-8e-05	-0.00011	0.00011	3e-05	2
6757	-0.00029	-1e-05	-6e-05	-0.00054	-8e-05	-0.00011	0.00011	3e-05	2
6758	-0.00029	-1e-05	-6e-05	-0.00054	-8e-05	-0.00011	0.00011	3e-05	2
6759	-0.00029	-1e-05	-6e-05	-0.00054	-8e-05	-0.00011	0.00011	3e-05	2
6760	-0.00029	-1e-05	-6e-05	-0.00054	-8e-05	-0.00011	0.00011	3e-05	2
6761	-0.00029	-1e-05	-6e-05	-0.00054	-8e-05	-0.00011	0.00011	3e-05	2
6762	-0.00029	-1e-05	-6e-05	-0.00054	-8e-05	-0.00011	0.00011	3e-05	2
6763	-0.00029	-1e-05	-6e-05	-0.00054	-8e-05	-0.00011	0.00011	3e-05	2
6764	-0.00029	-1e-05	-6e-05	-0.00054	-8e-05	-0.00011	0.00011	3e-05	2
6765	-0.00029	-1e-05	-6e-05	-0.00054	-8e-05	-0.00011	0.00011	3e-05	2
6766	0.00046	1e-05	-4e-05	-3e-05	-0.00017	0.0002	-0.00017	0.0002	2
6767	0.00046	1e-05	-4e-05	-3e-05	-0.00017	0.0002	-0.00017	0.0002	2
6768	0.00046	1e-05	-4e-05	-3e-05	-0.00017	0.0002	-0.00017	0.0002	2
6769	0.00046	1e-05	-4e-05	-3e-05	-0.00017	0.0002	-0.00017	0.0002	2
6770	0.00046	1e-05	-4e-05	-3e-05	-0.00017	0.0002	-0.00017	0.0002	2
6771	0.00046	1e-05	-4e-05	-3e-05	-0.00017	0.0002	-0.00017	0.0002	2
6772	0.00046	1e-05	-4e-05	-3e-05	-0.00017	0.0002	-0.00017	0.0002	2
6773	0.00046	1e-05	-4e-05	-3e-05	-0.00017	0.0002	-0.00017	0.0002	2
6774	0.00046	1e-05	-4e-05	-3e-05	-0.00017	0.0002	-0.00017	0.0002	2
6775	-2e-05	0	3e-05	0.00032	0.00023	-1e-05	-7e-05	-0.00027	2
6776	-2e-05	0	3e-05	0.00032	0.00023	-1e-05	-7e-05	-0.00027	2
6777	-2e-05	0	3e-05	0.00032	0.00023	-1e-05	-7e-05	-0.00027	2
6778	-2e-05	0	3e-05	0.00032	0.00023	-1e-05	-7e-05	-0.00027	2
6779	-2e-05	0	3e-05	0.00032	0.00023	-1e-05	-7e-05	-0.00027	2
6780	-2e-05	0	3e-05	0.00032	0.00023	-1e-05	-7e-05	-0.00027	2
6781	-2e-05	0	3e-05	0.00032	0.00023	-1e-05	-7e-05	-0.00027	2
6782	-2e-05	0	3e-05	0.00032	0.00023	-1e-05	-7e-05	-0.00027	2
6783	-2e-05	0	3e-05	0.00032	0.00023	-1e-05	-7e-05	-0.00027	2
6784	-2e-05	0	3e-05	0.00032	0.00023	-1e-05	-7e-05	-0.00027	2
6785	-2e-05	0	3e-05	0.00032	0.00023	-1e-05	-7e-05	-0.00027	2
6786	-2e-05	0	3e-05	0.00032	0.00023	-1e-05	-7e-05	-0.00027	2
6788	-2e-05	0	3e-05	0.00032	0.00023	-1e-05	-7e-05	-0.00027	2
6789	-2e-05	0	3e-05	0.00032	0.00023	-1e-05	-7e-05	-0.00027	2
6790	1e-05	4e-05	2e-05	8e-05	0.00024	-3e-05	4e-05	0	2
6791	1e-05	4e-05	2e-05	8e-05	0.00024	-3e-05	4e-05	0	2
6792	-0.0003	8e-05	-7e-05	-0.00025	-7e-05	-0.00017	0.00023	0.00011	2
6793	-0.0003	8e-05	-7e-05	-0.00025	-7e-05	-0.00017	0.00023	0.00011	2
6795	-0.0003	8e-05	-7e-05	-0.00025	-7e-05	-0.00017	0.00023	0.00011	2
6796	-0.0003	8e-05	-7e-05	-0.00025	-7e-05	-0.00017	0.00023	0.00011	2
6797	-0.0003	8e-05	-7e-05	-0.00025	-7e-05	-0.00017	0.00023	0.00011	2
6798	-0.0003	8e-05	-7e-05	-0.00025	-7e-05	-0.00017	0.00023	0.00011	2
6799	-0.0003	8e-05	-7e-05	-0.00025	-7e-05	-0.00017	0.00023	0.00011	2
6800	-0.0003	8e-05	-7e-05	-0.00025	-7e-05	-0.00017	0.00023	0.00011	2
6801	-0.0003	8e-05	-7e-05	-0.00025	-7e-05	-0.00017	0.00023	0.00011	2
6802	-0.0003	8e-05	-7e-05	-0.00025	-7e-05	-0.00017	0.00023	0.00011	2
6803	-0.0003	8e-05	-7e-05	-0.00025	-7e-05	-0.00017	0.00023	0.00011	2
6804	-0.0003	8e-05	-7e-05	-0.00025	-7e-05	-0.00017	0.00023	0.00011	2
6805	-0.0003	8e-05	-7e-05	-0.00025	-7e-05	-0.00017	0.00023	0.00011	2
6806	-0.0003	8e-05	-7e-05	-0.00025	-7e-05	-0.00017	0.00023	0.00011	2
6807	-0.0003	8e-05	-7e-05	-0.00025	-7e-05	-0.00017	0.00023	0.00011	2
6808	-0.0003	8e-05	-7e-05	-0.00025	-7e-05	-0.00017	0.00023	0.00011	2
6809	-0.0003	8e-05	-7e-05	-0.00025	-7e-05	-0.00017	0.00023	0.00011	2
6810	-0.0003	8e-05	-7e-05	-0.00025	-7e-05	-0.00017	0.00023	0.00011	2
6811	-0.0003	8e-05	-7e-05	-0.00025	-7e-05	-0.00017	0.00023	0.00011	2
6812	-0.0003	8e-05	-7e-05	-0.00025	-7e-05	-0.00017	0.00023	0.00011	2
6813	-2e-05	1e-05	3e-05	0.00024	-0.00018	-0.00017	-0.00038	-0.0002	2
6814	-2e-05	1e-05	3e-05	0.00024	-0.00018	-0.00017	-0.00038	-0.0002	2
6815	-2e-05	1e-05	3e-05	0.00024	-0.00018	-0.00017	-0.00038	-0.0002	2
6816	-2e-05	1e-05	3e-05	0.00024	-0.00018	-0.00017	-0.00038	-0.0002	2
6817	-2e-05	1e-05	3e-05	0.00024	-0.00018	-0.00017	-0.00038	-0.0002	2
6818	-2e-05	1e-05	3e-05	0.00024	-0.00018	-0.00017	-0.00038	-0.0002	2
6819	-2e-05	1e-05	3e-05	0.00024	-0.00018	-0.00017	-0.00038	-0.0002	2
6820	0.00017	-2e-05	1e-05	4e-05	-7e-05	-5e-05	0.00034	7e-05	2
6821	0.00017	-2e-05	1e-05	4e-05	-7e-05	-5e-05	0.00034	7e-05	2
6822	0.00017	-2e-05	1e-05	4e-05	-7e-05	-5e-05	0.00034	7e-05	2
6823	0.00017	-2e-05	1e-05	4e-05	-7e-05	-5e-05	0.00034	7e-05	2
6824	0.00017	-2e-05	1e-05	4e-05	-7e-05	-5e-05	0.00034	7e-05	2
6825	0.00017	-2e-05	1e-05	4e-05	-7e-05	-5e-05	0.00034	7e-05	2
6826	-0.00065	-3e-05	-0.00012	-0.00054	-0.0001	5e-05	0.0005	7e-05	2
6827	-0.00065	-3e-05	-0.00012	-0.00054	-0.0001	5e-05	0.0005	7e-05	2
6828	-0.00065	-3e-05	-0.00012	-0.00054	-0.0001	5e-05	0.0005	7e-05	2
6829	-0.00065	-3e-05	-0.00012	-0.00054	-0.0001	5e-05	0.0005	7e-05	2
6830	-0.00065	-3e-05	-0.00012	-0.00054	-0.0001	5e-05	0.0005	7e-05	2
6831	-0.00065	-3e-05	-0.00012	-0.00054	-0.0001	5e-05	0.0005	7e-05	2
6832	-0.00065	-3e-05	-0.00012	-0.00054	-0.0001	5e-05	0.0005	7e-05	2
6833	-0.00065	-3e-05	-0.00012	-0.00054	-0.0001	5e-05	0.0005	7e-05	2
6834	-0.00065	-3e-05	-0.00012	-0.00054	-0.0001	5e-05	0.0005	7e-05	2
6835	0.00013	5e-05	8e-05	0.00051	-0.0003	7e-05	-0.00021	1e-05	2
6836	0.00013	5e-05	8e-05	0.00051	-0.0003	7e-05	-0.00021	1e-05	2
6838	0.00013	5e-05	8e-05	0.00051	-0.0003	7e-05	-0.00021	1e-05	2
6839	0.00013	5e-05	8e-05	0.00051	-0.0003	7e-05	-0.00021	1e-05	2
6840	0.00013	5e-05	8e-05	0.00051	-0.0003	7e-05	-0.00021	1e-05	2
6841	0.00013	5e-05	8e-05	0.00051	-0.0003	7e-05	-0.00021	1e-05	2
6842	0.00013	5e-05	8e-05	0.00051	-0.0003	7e-05	-0.00021	1e-05	2
6843	0.00013	5e-05	8e-05	0.00051	-0.0003	7e-05	-0.00021	1e-05	2
6844	0.00013	5e-05	8e-05	0.00051	-0.0003	7e-05	-0.00021	1e-05	2
6845	0.00013	5e-05	8e-05	0.00051	-0.0003	7e-05	-0.00021	1e-05	2
6846	0.00013	5e-05	8e-05	0.00051	-0.0003	7e-05	-0.00021	1e-05	2
6847	0.00013	5e-05	8e-05	0.00051	-0.0003	7e-05	-0.00021	1e-05	2
6848	0.00013	5e-05	8e-05	0.00051	-0.0003	7e-05	-0.00021	1e-05	2
6849	0.00013	5e-05	8e-05	0.00051	-0.0003	7e-05	-0.00021	1e-05	2
6850	2e-05	-1e-05	0.00011	0.00062	-0.00015	-0.0002	-0.00023	2e-05	2
6851	2e-05	-1e-05	0.00011	0.00062	-0.00015	-0.0002	-0.00023	2e-05	2
6852	-7e-05	-5e-05	-5e-05	0.00038	-3e-05	7e-05	6e-05	-7e-05	2
6853	-7e-05	-5e-05	-5e-05	0.00038	-3e-05	7e-05	6e-05	-7e-05	2
6854	-7e-05	-5e-05	-5e-05	0.00038	-3e-05	7e-05	6e-05	-7e-05	2
6855	-7e-05	-5e-05	-5e-05	0.00038	-3e-05	7e-05	6e-05	-7e-05	2
6856	-7e-05	-5e-05	-5e-05	0.00038	-3e-05	7e-05	6e-05	-7e-05	2
6857	-7e-05	-5e-05	-5e-05	0.00038	-3e-05	7e-05	6e-05	-7e-05	2
6858	-7e-05	-5e-05	-5e-05	0.00038	-3e-05	7e-05	6e-05	-7e-05	2
6859	-7e-05	-5e-05	-5e-05	0.00038	-3e-05	7e-05	6e-05	-7e-05	2
6860	-7e-05	-5e-05	-5e-05	0.00038	-3e-05	7e-05	6e-05	-7e-05	2
6861	-7e-05	-5e-05	-5e-05	0.00038	-3e-05	7e-05	6e-05	-7e-05	2
6862	-7e-05	-5e-05	-5e-05	0.00038	-3e-05	7e-05	6e-05	-7e-05	2
6863	-7e-05	-5e-05	-5e-05	0.00038	-3e-05	7e-05	6e-05	-7e-05	2
6864	-7e-05	-5e-05	-5e-05	0.00038	-3e-05	7e-05	6e-05	-7e-05	2
6865	-7e-05	-5e-05	-5e-05	0.00038	-3e-05	7e-05	6e-05	-7e-05	2
6866	-7e-05	-5e-05	-5e-05	0.00038	-3e-05	7e-05	6e-05	-7e-05	2
6867	-7e-05	-5e-05	-5e-05	0.00038	-3e-05	7e-05	6e-05	-7e-05	2
6868	-7e-05	-5e-05	-5e-05	0.00038	-3e-05	7e-05	6e-05	-7e-05	2
6869	-7e-05	-5e-05	-5e-05	0.00038	-3e-05	7e-05	6e-05	-7e-05	2
6870	-7e-05	-5e-05	-5e-05	0.00038	-3e-05	7e-05	6e-05	-7e-05	2
6871	-7e-05	-5e-05	-5e-05	0.00038	-3e-05	7e-05	6e-05	-7e-05	2
6872	0.00019	6e-05	7e-05	0.00024	-5e-05	-0.00013	6e-05	-2e-05	2
6873	-0.0001	-9e-05	-9e-05	-0.00072	-7e-05	-8e-05	0.00021	-5e-05	2
6874	0.00012	0.0001	0.00014	0.0004	0	0.00011	-0.00037	0.0001	2
6875	0.00028	-5e-05	-0.00015	-0.00075	-1e-05	-9e-05	-0.0001	2e-05	2
6876	0.00028	-5e-05	-0.00015	-0.00075	-1e-05	-9e-05	-0.0001	2e-05	2
6877	0.00028	-5e-05	-0.00015	-0.00075	-1e-05	-9e-05	-0.0001	2e-05	2
6878	0.00028	-5e-05	-0.00015	-0.00075	-1e-05	-9e-05	-0.0001	2e-05	2
6879	0.00028	-5e-05	-0.00015	-0.00075	-1e-05	-9e-05	-0.0001	2e-05	2
6880	0.00028	-5e-05	-0.00015	-0.00075	-1e-05	-9e-05	-0.0001	2e-05	2
6881	0.00028	-5e-05	-0.00015	-0.00075	-1e-05	-9e-05	-0.0001	2e-05	2
6882	0.00028	-5e-05	-0.00015	-0.00075	-1e-05	-9e-05	-0.0001	2e-05	2
6883	0.00028	-5e-05	-0.00015	-0.00075	-1e-05	-9e-05	-0.0001	2e-05	2
6884	0.00028	-5e-05	-0.00015	-0.00075	-1e-05	-9e-05	-0.0001	2e-05	2
6885	0.00028	-5e-05	-0.00015	-0.00075	-1e-05	-9e-05	-0.0001	2e-05	2
6886	0.0002	-1e-05	-2e-05	-0.00015	2e-05	3e-05	0.00053	-5e-05	2
6889	0.0002	-1e-05	-2e-05	-0.00015	2e-05	3e-05	0.00053	-5e-05	2
6890	0.0002	-1e-05	-2e-05	-0.00015	2e-05	3e-05	0.00053	-5e-05	2
6891	0.0002	-1e-05	-2e-05	-0.00015	2e-05	3e-05	0.00053	-5e-05	2
6892	0.0002	-1e-05	-2e-05	-0.00015	2e-05	3e-05	0.00053	-5e-05	2
6893	0.0002	-1e-05	-2e-05	-0.00015	2e-05	3e-05	0.00053	-5e-05	2
6894	0.0002	-1e-05	-2e-05	-0.00015	2e-05	3e-05	0.00053	-5e-05	2
6895	0.0002	-1e-05	-2e-05	-0.00015	2e-05	3e-05	0.00053	-5e-05	2
6896	6e-05	1e-05	2e-05	-0.0003	1e-05	0.00012	0.00013	6e-05	2
6897	6e-05	1e-05	2e-05	-0.0003	1e-05	0.00012	0.00013	6e-05	2
6898	6e-05	1e-05	2e-05	-0.0003	1e-05	0.00012	0.00013	6e-05	2
6899	6e-05	1e-05	2e-05	-0.0003	1e-05	0.00012	0.00013	6e-05	2
6900	6e-05	1e-05	2e-05	-0.0003	1e-05	0.00012	0.00013	6e-05	2
6901	6e-05	1e-05	2e-05	-0.0003	1e-05	0.00012	0.00013	6e-05	2
6902	6e-05	1e-05	2e-05	-0.0003	1e-05	0.00012	0.00013	6e-05	2
6903	6e-05	1e-05	2e-05	-0.0003	1e-05	0.00012	0.00013	6e-05	2
6904	6e-05	1e-05	2e-05	-0.0003	1e-05	0.00012	0.00013	6e-05	2
6905	6e-05	1e-05	2e-05	-0.0003	1e-05	0.00012	0.00013	6e-05	2
6906	6e-05	1e-05	2e-05	-0.0003	1e-05	0.00012	0.00013	6e-05	2
6907	6e-05	1e-05	2e-05	-0.0003	1e-05	0.00012	0.00013	6e-05	2
6908	6e-05	1e-05	2e-05	-0.0003	1e-05	0.00012	0.00013	6e-05	2
6909	6e-05	1e-05	2e-05	-0.0003	1e-05	0.00012	0.00013	6e-05	2
6910	6e-05	5e-05	5e-05	2e-05	-0.0001	-0.00023	-0.00017	0.0001	2
6911	6e-05	5e-05	5e-05	2e-05	-0.0001	-0.00023	-0.00017	0.0001	2
6912	0.0002	0	-6e-05	-0.00051	1e-05	0.00025	0.0001	0.00015	2
6913	-0.00037	-6e-05	-7e-05	0.0001	-0.00011	-5e-05	-0.00014	-0.00027	2
6914	-0.00037	-6e-05	-7e-05	0.0001	-0.00011	-5e-05	-0.00014	-0.00027	2
6915	-0.00037	-6e-05	-7e-05	0.0001	-0.00011	-5e-05	-0.00014	-0.00027	2
6916	-0.00037	-6e-05	-7e-05	0.0001	-0.00011	-5e-05	-0.00014	-0.00027	2
6917	-0.00037	-6e-05	-7e-05	0.0001	-0.00011	-5e-05	-0.00014	-0.00027	2
6918	-0.00037	-6e-05	-7e-05	0.0001	-0.00011	-5e-05	-0.00014	-0.00027	2
6919	-0.00037	-6e-05	-7e-05	0.0001	-0.00011	-5e-05	-0.00014	-0.00027	2
6920	-0.00037	-6e-05	-7e-05	0.0001	-0.00011	-5e-05	-0.00014	-0.00027	2
6921	-0.00037	-6e-05	-7e-05	0.0001	-0.00011	-5e-05	-0.00014	-0.00027	2
6922	-0.00037	-6e-05	-7e-05	0.0001	-0.00011	-5e-05	-0.00014	-0.00027	2
6923	-0.00037	-6e-05	-7e-05	0.0001	-0.00011	-5e-05	-0.00014	-0.00027	2
6924	-0.00037	-6e-05	-7e-05	0.0001	-0.00011	-5e-05	-0.00014	-0.00027	2
6925	-0.00037	-6e-05	-7e-05	0.0001	-0.00011	-5e-05	-0.00014	-0.00027	2
6926	-0.00037	-6e-05	-7e-05	0.0001	-0.00011	-5e-05	-0.00014	-0.00027	2
6927	-0.00037	-6e-05	-7e-05	0.0001	-0.00011	-5e-05	-0.00014	-0.00027	2
6928	-0.00037	-6e-05	-7e-05	0.0001	-0.00011	-5e-05	-0.00014	-0.00027	2
6929	-0.00037	-6e-05	-7e-05	0.0001	-0.00011	-5e-05	-0.00014	-0.00027	2
6930	-0.00037	-6e-05	-7e-05	0.0001	-0.00011	-5e-05	-0.00014	-0.00027	2
6931	-0.00037	-6e-05	-7e-05	0.0001	-0.00011	-5e-05	-0.00014	-0.00027	2
6932	-0.0002	-3e-05	0	-8e-05	0.00011	-8e-05	0.0001	6e-05	2
6933	0.00016	-1e-05	-0.00014	-0.00041	-2e-05	1e-05	-0.00035	-0.0001	2
6934	-0.00013	-2e-05	2e-05	9e-05	0.00015	7e-05	0.00012	5e-05	2
6935	-0.00013	-2e-05	2e-05	9e-05	0.00015	7e-05	0.00012	5e-05	2
6936	-0.00013	-2e-05	2e-05	9e-05	0.00015	7e-05	0.00012	5e-05	2
6938	-0.00013	-2e-05	2e-05	9e-05	0.00015	7e-05	0.00012	5e-05	2
6939	-0.00013	-2e-05	2e-05	9e-05	0.00015	7e-05	0.00012	5e-05	2
6940	-0.00013	-2e-05	2e-05	9e-05	0.00015	7e-05	0.00012	5e-05	2
6941	-0.00013	-2e-05	2e-05	9e-05	0.00015	7e-05	0.00012	5e-05	2
6942	-0.00013	-2e-05	2e-05	9e-05	0.00015	7e-05	0.00012	5e-05	2
6943	-0.00013	-2e-05	2e-05	9e-05	0.00015	7e-05	0.00012	5e-05	2
6944	-0.00013	-2e-05	2e-05	9e-05	0.00015	7e-05	0.00012	5e-05	2
6945	-0.00013	-2e-05	2e-05	9e-05	0.00015	7e-05	0.00012	5e-05	2
6946	9e-05	1e-05	-4e-05	-0.00024	0.00011	4e-05	-0.00047	-0.00011	2
6947	9e-05	1e-05	-4e-05	-0.00024	0.00011	4e-05	-0.00047	-0.00011	2
6948	9e-05	1e-05	-4e-05	-0.00024	0.00011	4e-05	-0.00047	-0.00011	2
6949	9e-05	1e-05	-4e-05	-0.00024	0.00011	4e-05	-0.00047	-0.00011	2
6950	9e-05	1e-05	-4e-05	-0.00024	0.00011	4e-05	-0.00047	-0.00011	2
6951	9e-05	1e-05	-4e-05	-0.00024	0.00011	4e-05	-0.00047	-0.00011	2
6952	9e-05	1e-05	-4e-05	-0.00024	0.00011	4e-05	-0.00047	-0.00011	2
6953	9e-05	1e-05	-4e-05	-0.00024	0.00011	4e-05	-0.00047	-0.00011	2
6954	9e-05	1e-05	-4e-05	-0.00024	0.00011	4e-05	-0.00047	-0.00011	2
6955	7e-05	3e-05	2e-05	0.00023	6e-05	-2e-05	-0.00068	-6e-05	2
6957	7e-05	3e-05	2e-05	0.00023	6e-05	-2e-05	-0.00068	-6e-05	2
6958	7e-05	3e-05	2e-05	0.00023	6e-05	-2e-05	-0.00068	-6e-05	2
6959	7e-05	3e-05	2e-05	0.00023	6e-05	-2e-05	-0.00068	-6e-05	2
6960	7e-05	3e-05	2e-05	0.00023	6e-05	-2e-05	-0.00068	-6e-05	2
6961	7e-05	3e-05	2e-05	0.00023	6e-05	-2e-05	-0.00068	-6e-05	2
6962	7e-05	3e-05	2e-05	0.00023	6e-05	-2e-05	-0.00068	-6e-05	2
6963	7e-05	3e-05	2e-05	0.00023	6e-05	-2e-05	-0.00068	-6e-05	2
6964	7e-05	3e-05	2e-05	0.00023	6e-05	-2e-05	-0.00068	-6e-05	2
6965	7e-05	3e-05	2e-05	0.00023	6e-05	-2e-05	-0.00068	-6e-05	2
6966	7e-05	3e-05	2e-05	0.00023	6e-05	-2e-05	-0.00068	-6e-05	2
6967	7e-05	3e-05	2e-05	0.00023	6e-05	-2e-05	-0.00068	-6e-05	2
6968	7e-05	3e-05	2e-05	0.00023	6e-05	-2e-05	-0.00068	-6e-05	2
6969	7e-05	3e-05	2e-05	0.00023	6e-05	-2e-05	-0.00068	-6e-05	2
6970	-0.00049	-2e-05	-7e-05	-0.00034	-1e-05	0.00014	0.00018	-5e-05	2
6971	-0.00049	-2e-05	-7e-05	-0.00034	-1e-05	0.00014	0.00018	-5e-05	2
6972	7e-05	1e-05	9e-05	0.00024	-5e-05	-0.00015	-0.00048	-0.00014	2
6973	7e-05	1e-05	9e-05	0.00024	-5e-05	-0.00015	-0.00048	-0.00014	2
6974	7e-05	1e-05	9e-05	0.00024	-5e-05	-0.00015	-0.00048	-0.00014	2
6975	7e-05	1e-05	9e-05	0.00024	-5e-05	-0.00015	-0.00048	-0.00014	2
6976	7e-05	1e-05	9e-05	0.00024	-5e-05	-0.00015	-0.00048	-0.00014	2
6977	7e-05	1e-05	9e-05	0.00024	-5e-05	-0.00015	-0.00048	-0.00014	2
6978	7e-05	1e-05	9e-05	0.00024	-5e-05	-0.00015	-0.00048	-0.00014	2
6979	7e-05	1e-05	9e-05	0.00024	-5e-05	-0.00015	-0.00048	-0.00014	2
6980	7e-05	1e-05	9e-05	0.00024	-5e-05	-0.00015	-0.00048	-0.00014	2
6981	7e-05	1e-05	9e-05	0.00024	-5e-05	-0.00015	-0.00048	-0.00014	2
6982	7e-05	1e-05	9e-05	0.00024	-5e-05	-0.00015	-0.00048	-0.00014	2
6983	7e-05	1e-05	9e-05	0.00024	-5e-05	-0.00015	-0.00048	-0.00014	2
6984	7e-05	1e-05	9e-05	0.00024	-5e-05	-0.00015	-0.00048	-0.00014	2
6985	7e-05	1e-05	9e-05	0.00024	-5e-05	-0.00015	-0.00048	-0.00014	2
6986	7e-05	1e-05	9e-05	0.00024	-5e-05	-0.00015	-0.00048	-0.00014	2
6988	7e-05	1e-05	9e-05	0.00024	-5e-05	-0.00015	-0.00048	-0.00014	2
6989	7e-05	1e-05	9e-05	0.00024	-5e-05	-0.00015	-0.00048	-0.00014	2
6990	7e-05	1e-05	9e-05	0.00024	-5e-05	-0.00015	-0.00048	-0.00014	2
6991	7e-05	1e-05	9e-05	0.00024	-5e-05	-0.00015	-0.00048	-0.00014	2
6992	7e-05	1e-05	9e-05	0.00024	-5e-05	-0.00015	-0.00048	-0.00014	2
6993	0.00029	3e-05	0.0001	0.00026	-8e-05	0.00014	0.00023	0.00019	2
6994	6e-05	-5e-05	3e-05	-0.00012	-1e-05	0.00058	0.00023	0.00013	2
6995	6e-05	-5e-05	3e-05	-0.00012	-1e-05	0.00058	0.00023	0.00013	2
6996	6e-05	-5e-05	3e-05	-0.00012	-1e-05	0.00058	0.00023	0.00013	2
6997	6e-05	-5e-05	3e-05	-0.00012	-1e-05	0.00058	0.00023	0.00013	2
6998	6e-05	-5e-05	3e-05	-0.00012	-1e-05	0.00058	0.00023	0.00013	2
6999	6e-05	-5e-05	3e-05	-0.00012	-1e-05	0.00058	0.00023	0.00013	2
7000	6e-05	-5e-05	3e-05	-0.00012	-1e-05	0.00058	0.00023	0.00013	2
7001	6e-05	-5e-05	3e-05	-0.00012	-1e-05	0.00058	0.00023	0.00013	2
7002	6e-05	-5e-05	3e-05	-0.00012	-1e-05	0.00058	0.00023	0.00013	2
7003	6e-05	-5e-05	3e-05	-0.00012	-1e-05	0.00058	0.00023	0.00013	2
7004	6e-05	-5e-05	3e-05	-0.00012	-1e-05	0.00058	0.00023	0.00013	2
7005	6e-05	-5e-05	3e-05	-0.00012	-1e-05	0.00058	0.00023	0.00013	2
7006	-0.00011	0	7e-05	0.00018	-1e-05	-2e-05	-0.00017	0.0001	2
7007	-0.00011	0	7e-05	0.00018	-1e-05	-2e-05	-0.00017	0.0001	2
7008	-0.00011	0	7e-05	0.00018	-1e-05	-2e-05	-0.00017	0.0001	2
7009	-0.00011	0	7e-05	0.00018	-1e-05	-2e-05	-0.00017	0.0001	2
7010	-0.00011	0	7e-05	0.00018	-1e-05	-2e-05	-0.00017	0.0001	2
7011	-0.00011	0	7e-05	0.00018	-1e-05	-2e-05	-0.00017	0.0001	2
7012	-0.00011	0	7e-05	0.00018	-1e-05	-2e-05	-0.00017	0.0001	2
7013	-0.00011	0	7e-05	0.00018	-1e-05	-2e-05	-0.00017	0.0001	2
7014	-0.00011	0	7e-05	0.00018	-1e-05	-2e-05	-0.00017	0.0001	2
7015	-6e-05	1e-05	0	-0.00013	0.00012	-0.00027	-0.00012	7e-05	2
7016	-6e-05	1e-05	0	-0.00013	0.00012	-0.00027	-0.00012	7e-05	2
7017	-6e-05	1e-05	0	-0.00013	0.00012	-0.00027	-0.00012	7e-05	2
7018	-6e-05	1e-05	0	-0.00013	0.00012	-0.00027	-0.00012	7e-05	2
7019	-6e-05	1e-05	0	-0.00013	0.00012	-0.00027	-0.00012	7e-05	2
7020	-6e-05	1e-05	0	-0.00013	0.00012	-0.00027	-0.00012	7e-05	2
7021	-6e-05	1e-05	0	-0.00013	0.00012	-0.00027	-0.00012	7e-05	2
7022	-6e-05	1e-05	0	-0.00013	0.00012	-0.00027	-0.00012	7e-05	2
7023	-6e-05	1e-05	0	-0.00013	0.00012	-0.00027	-0.00012	7e-05	2
7024	-6e-05	1e-05	0	-0.00013	0.00012	-0.00027	-0.00012	7e-05	2
7025	-6e-05	1e-05	0	-0.00013	0.00012	-0.00027	-0.00012	7e-05	2
7026	-6e-05	1e-05	0	-0.00013	0.00012	-0.00027	-0.00012	7e-05	2
7027	-6e-05	1e-05	0	-0.00013	0.00012	-0.00027	-0.00012	7e-05	2
7028	-6e-05	1e-05	0	-0.00013	0.00012	-0.00027	-0.00012	7e-05	2
7029	-6e-05	1e-05	0	-0.00013	0.00012	-0.00027	-0.00012	7e-05	2
7030	0.00011	-1e-05	-4e-05	-0.00014	-0.00028	-4e-05	-0.00024	6e-05	2
7031	0.00011	-1e-05	-4e-05	-0.00014	-0.00028	-4e-05	-0.00024	6e-05	2
7032	0.00011	4e-05	2e-05	-7e-05	7e-05	-0.00012	0.0002	-2e-05	2
7033	0.00011	4e-05	2e-05	-7e-05	7e-05	-0.00012	0.0002	-2e-05	2
7034	0.00011	4e-05	2e-05	-7e-05	7e-05	-0.00012	0.0002	-2e-05	2
7035	0.00011	4e-05	2e-05	-7e-05	7e-05	-0.00012	0.0002	-2e-05	2
7036	0.00011	4e-05	2e-05	-7e-05	7e-05	-0.00012	0.0002	-2e-05	2
7038	0.00011	4e-05	2e-05	-7e-05	7e-05	-0.00012	0.0002	-2e-05	2
7039	0.00011	4e-05	2e-05	-7e-05	7e-05	-0.00012	0.0002	-2e-05	2
7040	0.00011	4e-05	2e-05	-7e-05	7e-05	-0.00012	0.0002	-2e-05	2
7041	0.00011	4e-05	2e-05	-7e-05	7e-05	-0.00012	0.0002	-2e-05	2
7042	0.00011	4e-05	2e-05	-7e-05	7e-05	-0.00012	0.0002	-2e-05	2
7043	0.00011	4e-05	2e-05	-7e-05	7e-05	-0.00012	0.0002	-2e-05	2
7044	0.00011	4e-05	2e-05	-7e-05	7e-05	-0.00012	0.0002	-2e-05	2
7045	0.00011	4e-05	2e-05	-7e-05	7e-05	-0.00012	0.0002	-2e-05	2
7046	0.00011	4e-05	2e-05	-7e-05	7e-05	-0.00012	0.0002	-2e-05	2
7047	0.00011	4e-05	2e-05	-7e-05	7e-05	-0.00012	0.0002	-2e-05	2
7048	0.00011	4e-05	2e-05	-7e-05	7e-05	-0.00012	0.0002	-2e-05	2
7049	0.00011	4e-05	2e-05	-7e-05	7e-05	-0.00012	0.0002	-2e-05	2
7050	0.00011	4e-05	2e-05	-7e-05	7e-05	-0.00012	0.0002	-2e-05	2
7051	0.00011	4e-05	2e-05	-7e-05	7e-05	-0.00012	0.0002	-2e-05	2
7052	0.00011	4e-05	2e-05	-7e-05	7e-05	-0.00012	0.0002	-2e-05	2
7053	0.00038	0.0001	8e-05	0.00035	-8e-05	-7e-05	6e-05	-0.00014	2
7054	0.00014	-1e-05	-0.00012	-0.00039	-0.00015	-0.00031	-0.00014	4e-05	2
7055	0.00014	-1e-05	-0.00012	-0.00039	-0.00015	-0.00031	-0.00014	4e-05	2
7056	0.00014	-1e-05	-0.00012	-0.00039	-0.00015	-0.00031	-0.00014	4e-05	2
7057	0.00014	-1e-05	-0.00012	-0.00039	-0.00015	-0.00031	-0.00014	4e-05	2
7058	0.00014	-1e-05	-0.00012	-0.00039	-0.00015	-0.00031	-0.00014	4e-05	2
7059	0.00014	-1e-05	-0.00012	-0.00039	-0.00015	-0.00031	-0.00014	4e-05	2
7060	0.00014	-1e-05	-0.00012	-0.00039	-0.00015	-0.00031	-0.00014	4e-05	2
7061	0.00014	-1e-05	-0.00012	-0.00039	-0.00015	-0.00031	-0.00014	4e-05	2
7062	0.00014	-1e-05	-0.00012	-0.00039	-0.00015	-0.00031	-0.00014	4e-05	2
7063	0.00014	-1e-05	-0.00012	-0.00039	-0.00015	-0.00031	-0.00014	4e-05	2
7064	0.00014	-1e-05	-0.00012	-0.00039	-0.00015	-0.00031	-0.00014	4e-05	2
7065	0.00014	-1e-05	-0.00012	-0.00039	-0.00015	-0.00031	-0.00014	4e-05	2
7066	0.00014	-1e-05	-0.00012	-0.00039	-0.00015	-0.00031	-0.00014	4e-05	2
7067	0.00014	-1e-05	-0.00012	-0.00039	-0.00015	-0.00031	-0.00014	4e-05	2
7068	0.00014	-1e-05	-0.00012	-0.00039	-0.00015	-0.00031	-0.00014	4e-05	2
7069	0.00014	-1e-05	-0.00012	-0.00039	-0.00015	-0.00031	-0.00014	4e-05	2
7070	0.00014	-1e-05	-0.00012	-0.00039	-0.00015	-0.00031	-0.00014	4e-05	2
7071	0.00014	-1e-05	-0.00012	-0.00039	-0.00015	-0.00031	-0.00014	4e-05	2
7072	0.00014	-1e-05	-0.00012	-0.00039	-0.00015	-0.00031	-0.00014	4e-05	2
7073	0.00014	-1e-05	-0.00012	-0.00039	-0.00015	-0.00031	-0.00014	4e-05	2
7074	0.00014	-1e-05	-0.00012	-0.00039	-0.00015	-0.00031	-0.00014	4e-05	2
7075	0	-1e-05	6e-05	0.00037	2e-05	0	-0.00023	-2e-05	2
7076	0	-1e-05	6e-05	0.00037	2e-05	0	-0.00023	-2e-05	2
7077	-0.00013	-2e-05	1e-05	0.0001	-2e-05	2e-05	-0.00034	2e-05	2
7078	-0.00013	-2e-05	1e-05	0.0001	-2e-05	2e-05	-0.00034	2e-05	2
7079	-0.00013	-2e-05	1e-05	0.0001	-2e-05	2e-05	-0.00034	2e-05	2
7080	-0.00013	-2e-05	1e-05	0.0001	-2e-05	2e-05	-0.00034	2e-05	2
7081	-0.00013	-2e-05	1e-05	0.0001	-2e-05	2e-05	-0.00034	2e-05	2
7082	-0.00013	-2e-05	1e-05	0.0001	-2e-05	2e-05	-0.00034	2e-05	2
7083	-0.00013	-2e-05	1e-05	0.0001	-2e-05	2e-05	-0.00034	2e-05	2
7084	-0.00013	-2e-05	1e-05	0.0001	-2e-05	2e-05	-0.00034	2e-05	2
7085	-0.00013	-2e-05	1e-05	0.0001	-2e-05	2e-05	-0.00034	2e-05	2
7086	-0.00013	-2e-05	1e-05	0.0001	-2e-05	2e-05	-0.00034	2e-05	2
7088	-0.00013	-2e-05	1e-05	0.0001	-2e-05	2e-05	-0.00034	2e-05	2
7089	-0.00013	-2e-05	1e-05	0.0001	-2e-05	2e-05	-0.00034	2e-05	2
7090	-0.00013	-2e-05	1e-05	0.0001	-2e-05	2e-05	-0.00034	2e-05	2
7091	-0.00013	-2e-05	1e-05	0.0001	-2e-05	2e-05	-0.00034	2e-05	2
7092	-0.00013	-2e-05	1e-05	0.0001	-2e-05	2e-05	-0.00034	2e-05	2
7093	-0.00013	-2e-05	1e-05	0.0001	-2e-05	2e-05	-0.00034	2e-05	2
7094	-0.00013	-2e-05	1e-05	0.0001	-2e-05	2e-05	-0.00034	2e-05	2
7095	-0.00013	-2e-05	1e-05	0.0001	-2e-05	2e-05	-0.00034	2e-05	2
7096	-0.00013	-2e-05	1e-05	0.0001	-2e-05	2e-05	-0.00034	2e-05	2
7097	-0.00013	-2e-05	1e-05	0.0001	-2e-05	2e-05	-0.00034	2e-05	2
7098	-0.00037	-3e-05	4e-05	0.00024	-5e-05	9e-05	-0.00012	-0.00019	2
7099	-0.00053	-2e-05	-6e-05	-7e-05	-3e-05	1e-05	0	-0.00017	2
7101	-0.00053	-2e-05	-6e-05	-7e-05	-3e-05	1e-05	0	-0.00017	2
7102	-0.00053	-2e-05	-6e-05	-7e-05	-3e-05	1e-05	0	-0.00017	2
7103	-0.00053	-2e-05	-6e-05	-7e-05	-3e-05	1e-05	0	-0.00017	2
7104	-0.00053	-2e-05	-6e-05	-7e-05	-3e-05	1e-05	0	-0.00017	2
7105	-0.00053	-2e-05	-6e-05	-7e-05	-3e-05	1e-05	0	-0.00017	2
7106	-0.00053	-2e-05	-6e-05	-7e-05	-3e-05	1e-05	0	-0.00017	2
7107	-0.00053	-2e-05	-6e-05	-7e-05	-3e-05	1e-05	0	-0.00017	2
7108	-0.00053	-2e-05	-6e-05	-7e-05	-3e-05	1e-05	0	-0.00017	2
7109	-0.00053	-2e-05	-6e-05	-7e-05	-3e-05	1e-05	0	-0.00017	2
7110	-0.00053	-2e-05	-6e-05	-7e-05	-3e-05	1e-05	0	-0.00017	2
7111	-0.00053	-2e-05	-6e-05	-7e-05	-3e-05	1e-05	0	-0.00017	2
7112	-0.00053	-2e-05	-6e-05	-7e-05	-3e-05	1e-05	0	-0.00017	2
7113	0.00044	-8e-05	-0.00012	-0.00025	0.00025	0.00013	-0.00017	-1e-05	2
7114	0.00032	1e-05	5e-05	0.00015	-9e-05	-8e-05	-0.00023	-2e-05	2
7115	0.00032	1e-05	5e-05	0.00015	-9e-05	-8e-05	-0.00023	-2e-05	2
7116	0.00032	1e-05	5e-05	0.00015	-9e-05	-8e-05	-0.00023	-2e-05	2
7117	0.00032	1e-05	5e-05	0.00015	-9e-05	-8e-05	-0.00023	-2e-05	2
7118	0.00032	1e-05	5e-05	0.00015	-9e-05	-8e-05	-0.00023	-2e-05	2
7119	0.00032	1e-05	5e-05	0.00015	-9e-05	-8e-05	-0.00023	-2e-05	2
7120	0.00032	1e-05	5e-05	0.00015	-9e-05	-8e-05	-0.00023	-2e-05	2
7121	0.00032	1e-05	5e-05	0.00015	-9e-05	-8e-05	-0.00023	-2e-05	2
7122	0.00032	1e-05	5e-05	0.00015	-9e-05	-8e-05	-0.00023	-2e-05	2
7123	0.00032	1e-05	5e-05	0.00015	-9e-05	-8e-05	-0.00023	-2e-05	2
7124	0.00032	1e-05	5e-05	0.00015	-9e-05	-8e-05	-0.00023	-2e-05	2
7125	0.00032	1e-05	5e-05	0.00015	-9e-05	-8e-05	-0.00023	-2e-05	2
7126	0.00032	1e-05	5e-05	0.00015	-9e-05	-8e-05	-0.00023	-2e-05	2
7127	0.00032	1e-05	5e-05	0.00015	-9e-05	-8e-05	-0.00023	-2e-05	2
7128	0.00032	1e-05	5e-05	0.00015	-9e-05	-8e-05	-0.00023	-2e-05	2
7129	0.00032	1e-05	5e-05	0.00015	-9e-05	-8e-05	-0.00023	-2e-05	2
7130	0.00032	1e-05	5e-05	0.00015	-9e-05	-8e-05	-0.00023	-2e-05	2
7131	0.00032	1e-05	5e-05	0.00015	-9e-05	-8e-05	-0.00023	-2e-05	2
7132	0.00032	1e-05	5e-05	0.00015	-9e-05	-8e-05	-0.00023	-2e-05	2
7133	0.00032	1e-05	5e-05	0.00015	-9e-05	-8e-05	-0.00023	-2e-05	2
7134	0.00032	1e-05	5e-05	0.00015	-9e-05	-8e-05	-0.00023	-2e-05	2
7135	-0.00025	-8e-05	-9e-05	-0.00042	0.00012	-8e-05	-0.00029	-0.00016	2
7136	-0.00025	-8e-05	-9e-05	-0.00042	0.00012	-8e-05	-0.00029	-0.00016	2
7138	0.00025	-8e-05	-0.00012	-0.00094	-0.00019	6e-05	0.00026	0.0001	2
7139	0.00025	-8e-05	-0.00012	-0.00094	-0.00019	6e-05	0.00026	0.0001	2
7140	0.00025	-8e-05	-0.00012	-0.00094	-0.00019	6e-05	0.00026	0.0001	2
7141	0.00025	-8e-05	-0.00012	-0.00094	-0.00019	6e-05	0.00026	0.0001	2
7142	0.00025	-8e-05	-0.00012	-0.00094	-0.00019	6e-05	0.00026	0.0001	2
7143	0.00025	-8e-05	-0.00012	-0.00094	-0.00019	6e-05	0.00026	0.0001	2
7144	0.00025	-8e-05	-0.00012	-0.00094	-0.00019	6e-05	0.00026	0.0001	2
7145	0.00025	-8e-05	-0.00012	-0.00094	-0.00019	6e-05	0.00026	0.0001	2
7146	0.00025	-8e-05	-0.00012	-0.00094	-0.00019	6e-05	0.00026	0.0001	2
7147	0.00025	-8e-05	-0.00012	-0.00094	-0.00019	6e-05	0.00026	0.0001	2
7148	0.00025	-8e-05	-0.00012	-0.00094	-0.00019	6e-05	0.00026	0.0001	2
7149	0.00025	-8e-05	-0.00012	-0.00094	-0.00019	6e-05	0.00026	0.0001	2
7150	-4e-05	2e-05	0.00011	0.0004	-1e-05	6e-05	0.00011	6e-05	2
7151	-4e-05	2e-05	0.00011	0.0004	-1e-05	6e-05	0.00011	6e-05	2
7152	0	3e-05	7e-05	0.00063	6e-05	9e-05	0.0001	3e-05	2
7153	0	3e-05	7e-05	0.00063	6e-05	9e-05	0.0001	3e-05	2
7154	0	3e-05	7e-05	0.00063	6e-05	9e-05	0.0001	3e-05	2
7155	0	3e-05	7e-05	0.00063	6e-05	9e-05	0.0001	3e-05	2
7156	0	3e-05	7e-05	0.00063	6e-05	9e-05	0.0001	3e-05	2
7157	0	3e-05	7e-05	0.00063	6e-05	9e-05	0.0001	3e-05	2
7158	0	3e-05	7e-05	0.00063	6e-05	9e-05	0.0001	3e-05	2
7159	0	3e-05	7e-05	0.00063	6e-05	9e-05	0.0001	3e-05	2
7160	0	3e-05	7e-05	0.00063	6e-05	9e-05	0.0001	3e-05	2
7161	0	3e-05	7e-05	0.00063	6e-05	9e-05	0.0001	3e-05	2
7162	0	3e-05	7e-05	0.00063	6e-05	9e-05	0.0001	3e-05	2
7163	0	3e-05	7e-05	0.00063	6e-05	9e-05	0.0001	3e-05	2
7164	0	3e-05	7e-05	0.00063	6e-05	9e-05	0.0001	3e-05	2
7165	0	3e-05	7e-05	0.00063	6e-05	9e-05	0.0001	3e-05	2
7166	0	3e-05	7e-05	0.00063	6e-05	9e-05	0.0001	3e-05	2
7167	0	3e-05	7e-05	0.00063	6e-05	9e-05	0.0001	3e-05	2
7168	0	3e-05	7e-05	0.00063	6e-05	9e-05	0.0001	3e-05	2
7169	0	3e-05	7e-05	0.00063	6e-05	9e-05	0.0001	3e-05	2
7170	0	3e-05	7e-05	0.00063	6e-05	9e-05	0.0001	3e-05	2
7171	0	3e-05	7e-05	0.00063	6e-05	9e-05	0.0001	3e-05	2
7172	0	3e-05	7e-05	0.00063	6e-05	9e-05	0.0001	3e-05	2
7173	-0.00018	4e-05	3e-05	0.00014	-5e-05	0.00012	0.00025	6e-05	2
7174	8e-05	2e-05	8e-05	0.00031	2e-05	3e-05	6e-05	-3e-05	2
7175	8e-05	2e-05	8e-05	0.00031	2e-05	3e-05	6e-05	-3e-05	2
7176	8e-05	2e-05	8e-05	0.00031	2e-05	3e-05	6e-05	-3e-05	2
7177	8e-05	2e-05	8e-05	0.00031	2e-05	3e-05	6e-05	-3e-05	2
7178	8e-05	2e-05	8e-05	0.00031	2e-05	3e-05	6e-05	-3e-05	2
7179	8e-05	2e-05	8e-05	0.00031	2e-05	3e-05	6e-05	-3e-05	2
7180	8e-05	2e-05	8e-05	0.00031	2e-05	3e-05	6e-05	-3e-05	2
7181	8e-05	2e-05	8e-05	0.00031	2e-05	3e-05	6e-05	-3e-05	2
7182	8e-05	2e-05	8e-05	0.00031	2e-05	3e-05	6e-05	-3e-05	2
7183	8e-05	2e-05	8e-05	0.00031	2e-05	3e-05	6e-05	-3e-05	2
7185	8e-05	2e-05	8e-05	0.00031	2e-05	3e-05	6e-05	-3e-05	2
7186	8e-05	2e-05	8e-05	0.00031	2e-05	3e-05	6e-05	-3e-05	2
7188	8e-05	2e-05	8e-05	0.00031	2e-05	3e-05	6e-05	-3e-05	2
7189	8e-05	2e-05	8e-05	0.00031	2e-05	3e-05	6e-05	-3e-05	2
7190	8e-05	2e-05	8e-05	0.00031	2e-05	3e-05	6e-05	-3e-05	2
7191	8e-05	2e-05	8e-05	0.00031	2e-05	3e-05	6e-05	-3e-05	2
7192	8e-05	2e-05	8e-05	0.00031	2e-05	3e-05	6e-05	-3e-05	2
7193	8e-05	2e-05	8e-05	0.00031	2e-05	3e-05	6e-05	-3e-05	2
7194	8e-05	2e-05	8e-05	0.00031	2e-05	3e-05	6e-05	-3e-05	2
7195	0.00028	-3e-05	1e-05	0.00047	7e-05	-0.00018	0.00034	0.00012	2
7196	0.00028	-3e-05	1e-05	0.00047	7e-05	-0.00018	0.00034	0.00012	2
7197	-0.00018	-2e-05	0	2e-05	-6e-05	-7e-05	2e-05	2e-05	2
7198	-0.00018	-2e-05	0	2e-05	-6e-05	-7e-05	2e-05	2e-05	2
7199	-0.00018	-2e-05	0	2e-05	-6e-05	-7e-05	2e-05	2e-05	2
7200	-0.00018	-2e-05	0	2e-05	-6e-05	-7e-05	2e-05	2e-05	2
7201	-0.00018	-2e-05	0	2e-05	-6e-05	-7e-05	2e-05	2e-05	2
7202	-0.00018	-2e-05	0	2e-05	-6e-05	-7e-05	2e-05	2e-05	2
7203	-0.00018	-2e-05	0	2e-05	-6e-05	-7e-05	2e-05	2e-05	2
7204	-0.00018	-2e-05	0	2e-05	-6e-05	-7e-05	2e-05	2e-05	2
7205	-0.00018	-2e-05	0	2e-05	-6e-05	-7e-05	2e-05	2e-05	2
7206	-0.00018	-2e-05	0	2e-05	-6e-05	-7e-05	2e-05	2e-05	2
7207	-0.00018	-2e-05	0	2e-05	-6e-05	-7e-05	2e-05	2e-05	2
7208	-0.00018	-2e-05	0	2e-05	-6e-05	-7e-05	2e-05	2e-05	2
7209	2e-05	0	6e-05	3e-05	-2e-05	-4e-05	-8e-05	-8e-05	2
7210	1e-05	-2e-05	-6e-05	1e-05	-2e-05	-8e-05	-0.00021	-5e-05	2
7211	1e-05	-2e-05	-6e-05	1e-05	-2e-05	-8e-05	-0.00021	-5e-05	2
7212	1e-05	-2e-05	-6e-05	1e-05	-2e-05	-8e-05	-0.00021	-5e-05	2
7213	1e-05	-2e-05	-6e-05	1e-05	-2e-05	-8e-05	-0.00021	-5e-05	2
7214	1e-05	-2e-05	-6e-05	1e-05	-2e-05	-8e-05	-0.00021	-5e-05	2
7215	1e-05	-2e-05	-6e-05	1e-05	-2e-05	-8e-05	-0.00021	-5e-05	2
7216	0.00019	-5e-05	-9e-05	-0.00069	-0.00011	-2e-05	0.00012	3e-05	2
7217	0.00019	-5e-05	-9e-05	-0.00069	-0.00011	-2e-05	0.00012	3e-05	2
7218	0.00019	-5e-05	-9e-05	-0.00069	-0.00011	-2e-05	0.00012	3e-05	2
7219	0.00019	-5e-05	-9e-05	-0.00069	-0.00011	-2e-05	0.00012	3e-05	2
7220	0.00019	-5e-05	-9e-05	-0.00069	-0.00011	-2e-05	0.00012	3e-05	2
7221	0.00019	-5e-05	-9e-05	-0.00069	-0.00011	-2e-05	0.00012	3e-05	2
7222	0.00019	-5e-05	-9e-05	-0.00069	-0.00011	-2e-05	0.00012	3e-05	2
7223	0.00019	-5e-05	-9e-05	-0.00069	-0.00011	-2e-05	0.00012	3e-05	2
7224	0.00019	-5e-05	-9e-05	-0.00069	-0.00011	-2e-05	0.00012	3e-05	2
7225	0.00019	-5e-05	-9e-05	-0.00069	-0.00011	-2e-05	0.00012	3e-05	2
7226	0.00019	-5e-05	-9e-05	-0.00069	-0.00011	-2e-05	0.00012	3e-05	2
7227	0.00019	-5e-05	-9e-05	-0.00069	-0.00011	-2e-05	0.00012	3e-05	2
7228	0.00019	-5e-05	-9e-05	-0.00069	-0.00011	-2e-05	0.00012	3e-05	2
7229	0.00019	-5e-05	-9e-05	-0.00069	-0.00011	-2e-05	0.00012	3e-05	2
7230	0.00019	-5e-05	-9e-05	-0.00069	-0.00011	-2e-05	0.00012	3e-05	2
7231	0.00019	-5e-05	-9e-05	-0.00069	-0.00011	-2e-05	0.00012	3e-05	2
7232	0.00019	-5e-05	-9e-05	-0.00069	-0.00011	-2e-05	0.00012	3e-05	2
7233	4e-05	-7e-05	-5e-05	-0.0001	-6e-05	-0.00012	0.00043	7e-05	2
7234	-0.00032	-4e-05	-0.00019	-0.00081	4e-05	-1e-05	-0.00018	-7e-05	2
7235	-0.00032	-4e-05	-0.00019	-0.00081	4e-05	-1e-05	-0.00018	-7e-05	2
7236	-0.00032	-4e-05	-0.00019	-0.00081	4e-05	-1e-05	-0.00018	-7e-05	2
7238	-0.00032	-4e-05	-0.00019	-0.00081	4e-05	-1e-05	-0.00018	-7e-05	2
7239	-0.00032	-4e-05	-0.00019	-0.00081	4e-05	-1e-05	-0.00018	-7e-05	2
7240	-0.00032	-4e-05	-0.00019	-0.00081	4e-05	-1e-05	-0.00018	-7e-05	2
7241	-0.00032	-4e-05	-0.00019	-0.00081	4e-05	-1e-05	-0.00018	-7e-05	2
7242	-0.00032	-4e-05	-0.00019	-0.00081	4e-05	-1e-05	-0.00018	-7e-05	2
7243	-0.00032	-4e-05	-0.00019	-0.00081	4e-05	-1e-05	-0.00018	-7e-05	2
7244	-0.00032	-4e-05	-0.00019	-0.00081	4e-05	-1e-05	-0.00018	-7e-05	2
7245	-0.00032	-4e-05	-0.00019	-0.00081	4e-05	-1e-05	-0.00018	-7e-05	2
7246	-0.00032	-4e-05	-0.00019	-0.00081	4e-05	-1e-05	-0.00018	-7e-05	2
7247	-0.00032	-4e-05	-0.00019	-0.00081	4e-05	-1e-05	-0.00018	-7e-05	2
7248	-0.00032	-4e-05	-0.00019	-0.00081	4e-05	-1e-05	-0.00018	-7e-05	2
7249	-0.00032	-4e-05	-0.00019	-0.00081	4e-05	-1e-05	-0.00018	-7e-05	2
7250	-0.00032	-4e-05	-0.00019	-0.00081	4e-05	-1e-05	-0.00018	-7e-05	2
7251	-0.00032	-4e-05	-0.00019	-0.00081	4e-05	-1e-05	-0.00018	-7e-05	2
7252	-0.00032	-4e-05	-0.00019	-0.00081	4e-05	-1e-05	-0.00018	-7e-05	2
7253	-0.00032	-4e-05	-0.00019	-0.00081	4e-05	-1e-05	-0.00018	-7e-05	2
7254	-0.00032	-4e-05	-0.00019	-0.00081	4e-05	-1e-05	-0.00018	-7e-05	2
7255	0.00025	3e-05	0.00011	0.0005	-1e-05	8e-05	0.00012	8e-05	2
7256	0.00025	3e-05	0.00011	0.0005	-1e-05	8e-05	0.00012	8e-05	2
7257	9e-05	0	6e-05	0.00056	3e-05	0.0001	0.00025	9e-05	2
7258	9e-05	0	6e-05	0.00056	3e-05	0.0001	0.00025	9e-05	2
7259	9e-05	0	6e-05	0.00056	3e-05	0.0001	0.00025	9e-05	2
7260	9e-05	0	6e-05	0.00056	3e-05	0.0001	0.00025	9e-05	2
7261	9e-05	0	6e-05	0.00056	3e-05	0.0001	0.00025	9e-05	2
7262	9e-05	0	6e-05	0.00056	3e-05	0.0001	0.00025	9e-05	2
7263	9e-05	0	6e-05	0.00056	3e-05	0.0001	0.00025	9e-05	2
7264	9e-05	0	6e-05	0.00056	3e-05	0.0001	0.00025	9e-05	2
7265	9e-05	0	6e-05	0.00056	3e-05	0.0001	0.00025	9e-05	2
7266	9e-05	0	6e-05	0.00056	3e-05	0.0001	0.00025	9e-05	2
7267	9e-05	0	6e-05	0.00056	3e-05	0.0001	0.00025	9e-05	2
7268	9e-05	0	6e-05	0.00056	3e-05	0.0001	0.00025	9e-05	2
7269	-0.00017	-7e-05	-6e-05	0.00011	3e-05	-0.00041	-0.00023	-4e-05	2
7270	-9e-05	1e-05	-7e-05	-0.00019	4e-05	0.00073	-0.0003	-0.00012	2
7271	-9e-05	1e-05	-7e-05	-0.00019	4e-05	0.00073	-0.0003	-0.00012	2
7272	-9e-05	1e-05	-7e-05	-0.00019	4e-05	0.00073	-0.0003	-0.00012	2
7273	-9e-05	1e-05	-7e-05	-0.00019	4e-05	0.00073	-0.0003	-0.00012	2
7274	-9e-05	1e-05	-7e-05	-0.00019	4e-05	0.00073	-0.0003	-0.00012	2
7275	-9e-05	1e-05	-7e-05	-0.00019	4e-05	0.00073	-0.0003	-0.00012	2
7276	1e-05	3e-05	0.00013	0.00027	-0.00012	-8e-05	0.00012	6e-05	2
7277	1e-05	3e-05	0.00013	0.00027	-0.00012	-8e-05	0.00012	6e-05	2
7278	1e-05	3e-05	0.00013	0.00027	-0.00012	-8e-05	0.00012	6e-05	2
7279	1e-05	3e-05	0.00013	0.00027	-0.00012	-8e-05	0.00012	6e-05	2
7280	1e-05	3e-05	0.00013	0.00027	-0.00012	-8e-05	0.00012	6e-05	2
7281	1e-05	3e-05	0.00013	0.00027	-0.00012	-8e-05	0.00012	6e-05	2
7282	1e-05	3e-05	0.00013	0.00027	-0.00012	-8e-05	0.00012	6e-05	2
7283	1e-05	3e-05	0.00013	0.00027	-0.00012	-8e-05	0.00012	6e-05	2
7284	1e-05	3e-05	0.00013	0.00027	-0.00012	-8e-05	0.00012	6e-05	2
7285	1e-05	3e-05	0.00013	0.00027	-0.00012	-8e-05	0.00012	6e-05	2
7286	1e-05	3e-05	0.00013	0.00027	-0.00012	-8e-05	0.00012	6e-05	2
7288	1e-05	3e-05	0.00013	0.00027	-0.00012	-8e-05	0.00012	6e-05	2
7289	1e-05	3e-05	0.00013	0.00027	-0.00012	-8e-05	0.00012	6e-05	2
7290	1e-05	3e-05	0.00013	0.00027	-0.00012	-8e-05	0.00012	6e-05	2
7291	1e-05	3e-05	0.00013	0.00027	-0.00012	-8e-05	0.00012	6e-05	2
7292	1e-05	3e-05	0.00013	0.00027	-0.00012	-8e-05	0.00012	6e-05	2
7293	-8e-05	-5e-05	-6e-05	-0.00026	8e-05	-0.0002	-0.0003	-2e-05	2
7294	9e-05	2e-05	9e-05	0.00048	-6e-05	-0.0001	0.00037	2e-05	2
7295	9e-05	2e-05	9e-05	0.00048	-6e-05	-0.0001	0.00037	2e-05	2
7296	9e-05	2e-05	9e-05	0.00048	-6e-05	-0.0001	0.00037	2e-05	2
7297	9e-05	2e-05	9e-05	0.00048	-6e-05	-0.0001	0.00037	2e-05	2
7298	9e-05	2e-05	9e-05	0.00048	-6e-05	-0.0001	0.00037	2e-05	2
7299	9e-05	2e-05	9e-05	0.00048	-6e-05	-0.0001	0.00037	2e-05	2
7300	9e-05	2e-05	9e-05	0.00048	-6e-05	-0.0001	0.00037	2e-05	2
7301	9e-05	2e-05	9e-05	0.00048	-6e-05	-0.0001	0.00037	2e-05	2
7302	9e-05	2e-05	9e-05	0.00048	-6e-05	-0.0001	0.00037	2e-05	2
7303	9e-05	2e-05	9e-05	0.00048	-6e-05	-0.0001	0.00037	2e-05	2
7304	9e-05	2e-05	9e-05	0.00048	-6e-05	-0.0001	0.00037	2e-05	2
7305	9e-05	2e-05	9e-05	0.00048	-6e-05	-0.0001	0.00037	2e-05	2
7306	9e-05	2e-05	9e-05	0.00048	-6e-05	-0.0001	0.00037	2e-05	2
7307	9e-05	2e-05	9e-05	0.00048	-6e-05	-0.0001	0.00037	2e-05	2
7308	9e-05	2e-05	9e-05	0.00048	-6e-05	-0.0001	0.00037	2e-05	2
7309	9e-05	2e-05	9e-05	0.00048	-6e-05	-0.0001	0.00037	2e-05	2
7310	9e-05	2e-05	9e-05	0.00048	-6e-05	-0.0001	0.00037	2e-05	2
7311	9e-05	2e-05	9e-05	0.00048	-6e-05	-0.0001	0.00037	2e-05	2
7312	9e-05	2e-05	9e-05	0.00048	-6e-05	-0.0001	0.00037	2e-05	2
7313	9e-05	2e-05	9e-05	0.00048	-6e-05	-0.0001	0.00037	2e-05	2
7314	9e-05	2e-05	9e-05	0.00048	-6e-05	-0.0001	0.00037	2e-05	2
7315	0.00015	9e-05	8e-05	0.00019	-4e-05	2e-05	-5e-05	8e-05	2
7316	0.00015	9e-05	8e-05	0.00019	-4e-05	2e-05	-5e-05	8e-05	2
7317	-0.00019	-4e-05	1e-05	0.00016	6e-05	-0.00023	-0.00011	-4e-05	2
7318	-0.00019	-4e-05	1e-05	0.00016	6e-05	-0.00023	-0.00011	-4e-05	2
7319	-0.00019	-4e-05	1e-05	0.00016	6e-05	-0.00023	-0.00011	-4e-05	2
7320	-0.00019	-4e-05	1e-05	0.00016	6e-05	-0.00023	-0.00011	-4e-05	2
7321	-0.00019	-4e-05	1e-05	0.00016	6e-05	-0.00023	-0.00011	-4e-05	2
7322	-0.00019	-4e-05	1e-05	0.00016	6e-05	-0.00023	-0.00011	-4e-05	2
7323	-0.00019	-4e-05	1e-05	0.00016	6e-05	-0.00023	-0.00011	-4e-05	2
7324	-0.00019	-4e-05	1e-05	0.00016	6e-05	-0.00023	-0.00011	-4e-05	2
7325	-0.00019	-4e-05	1e-05	0.00016	6e-05	-0.00023	-0.00011	-4e-05	2
7326	-0.00019	-4e-05	1e-05	0.00016	6e-05	-0.00023	-0.00011	-4e-05	2
7327	-0.00019	-4e-05	1e-05	0.00016	6e-05	-0.00023	-0.00011	-4e-05	2
7328	-0.00019	-4e-05	1e-05	0.00016	6e-05	-0.00023	-0.00011	-4e-05	2
7329	8e-05	5e-05	5e-05	0.0003	-3e-05	7e-05	0.00056	0	2
7330	-0.00038	-8e-05	-9e-05	-0.00089	-8e-05	-5e-05	0.0002	-2e-05	2
7331	-0.00038	-8e-05	-9e-05	-0.00089	-8e-05	-5e-05	0.0002	-2e-05	2
7332	-0.00038	-8e-05	-9e-05	-0.00089	-8e-05	-5e-05	0.0002	-2e-05	2
7333	-0.00038	-8e-05	-9e-05	-0.00089	-8e-05	-5e-05	0.0002	-2e-05	2
7334	-0.00038	-8e-05	-9e-05	-0.00089	-8e-05	-5e-05	0.0002	-2e-05	2
7335	-0.00038	-8e-05	-9e-05	-0.00089	-8e-05	-5e-05	0.0002	-2e-05	2
7336	-0.00038	-8e-05	-9e-05	-0.00089	-8e-05	-5e-05	0.0002	-2e-05	2
7338	-0.00038	-8e-05	-9e-05	-0.00089	-8e-05	-5e-05	0.0002	-2e-05	2
7339	-0.00038	-8e-05	-9e-05	-0.00089	-8e-05	-5e-05	0.0002	-2e-05	2
7340	-0.00038	-8e-05	-9e-05	-0.00089	-8e-05	-5e-05	0.0002	-2e-05	2
7341	-0.00038	-8e-05	-9e-05	-0.00089	-8e-05	-5e-05	0.0002	-2e-05	2
7342	-0.00038	-8e-05	-9e-05	-0.00089	-8e-05	-5e-05	0.0002	-2e-05	2
7343	-0.00038	-8e-05	-9e-05	-0.00089	-8e-05	-5e-05	0.0002	-2e-05	2
7344	0.00017	4e-05	0	0.00031	7e-05	8e-05	-0.00012	5e-05	2
7345	0.00017	4e-05	0	0.00031	7e-05	8e-05	-0.00012	5e-05	2
7346	0.00017	4e-05	0	0.00031	7e-05	8e-05	-0.00012	5e-05	2
7347	0.00017	4e-05	0	0.00031	7e-05	8e-05	-0.00012	5e-05	2
7348	0.00017	4e-05	0	0.00031	7e-05	8e-05	-0.00012	5e-05	2
7349	0.00017	4e-05	0	0.00031	7e-05	8e-05	-0.00012	5e-05	2
7350	0.00017	4e-05	0	0.00031	7e-05	8e-05	-0.00012	5e-05	2
7351	0.00017	4e-05	0	0.00031	7e-05	8e-05	-0.00012	5e-05	2
7352	-0.00016	-4e-05	-5e-05	-0.00077	-0.00018	4e-05	-0.00012	8e-05	2
7353	3e-05	4e-05	4e-05	-9e-05	7e-05	-0.00014	-9e-05	3e-05	2
7354	0.00014	-5e-05	-8e-05	5e-05	7e-05	3e-05	-0.00019	-8e-05	2
7355	0.00014	-5e-05	-8e-05	5e-05	7e-05	3e-05	-0.00019	-8e-05	2
7356	0.00014	-5e-05	-8e-05	5e-05	7e-05	3e-05	-0.00019	-8e-05	2
7357	0.00014	-5e-05	-8e-05	5e-05	7e-05	3e-05	-0.00019	-8e-05	2
7358	0.00014	-5e-05	-8e-05	5e-05	7e-05	3e-05	-0.00019	-8e-05	2
7359	0.00014	-5e-05	-8e-05	5e-05	7e-05	3e-05	-0.00019	-8e-05	2
7360	0.00014	-5e-05	-8e-05	5e-05	7e-05	3e-05	-0.00019	-8e-05	2
7361	0.00014	-5e-05	-8e-05	5e-05	7e-05	3e-05	-0.00019	-8e-05	2
7362	0.00014	-5e-05	-8e-05	5e-05	7e-05	3e-05	-0.00019	-8e-05	2
7363	0.00014	-5e-05	-8e-05	5e-05	7e-05	3e-05	-0.00019	-8e-05	2
7364	0.00014	-5e-05	-8e-05	5e-05	7e-05	3e-05	-0.00019	-8e-05	2
7365	0.00014	-5e-05	-8e-05	5e-05	7e-05	3e-05	-0.00019	-8e-05	2
7366	0.00014	-5e-05	-8e-05	5e-05	7e-05	3e-05	-0.00019	-8e-05	2
7367	0.00014	-5e-05	-8e-05	5e-05	7e-05	3e-05	-0.00019	-8e-05	2
7368	0.00014	-5e-05	-8e-05	5e-05	7e-05	3e-05	-0.00019	-8e-05	2
7369	0.00014	-5e-05	-8e-05	5e-05	7e-05	3e-05	-0.00019	-8e-05	2
7370	0.00014	-5e-05	-8e-05	5e-05	7e-05	3e-05	-0.00019	-8e-05	2
7371	0.00014	-5e-05	-8e-05	5e-05	7e-05	3e-05	-0.00019	-8e-05	2
7372	0.00014	-5e-05	-8e-05	5e-05	7e-05	3e-05	-0.00019	-8e-05	2
7373	0.00014	-5e-05	-8e-05	5e-05	7e-05	3e-05	-0.00019	-8e-05	2
7374	0.00014	-5e-05	-8e-05	5e-05	7e-05	3e-05	-0.00019	-8e-05	2
7375	-2e-05	-6e-05	0	0.00066	0	-0.00011	0.0003	-0.00017	2
7376	-2e-05	-6e-05	0	0.00066	0	-0.00011	0.0003	-0.00017	2
7377	-1e-05	1e-05	-4e-05	-0.0003	-5e-05	8e-05	-0.00013	-2e-05	2
7378	-1e-05	1e-05	-4e-05	-0.0003	-5e-05	8e-05	-0.00013	-2e-05	2
7379	-1e-05	1e-05	-4e-05	-0.0003	-5e-05	8e-05	-0.00013	-2e-05	2
7380	-1e-05	1e-05	-4e-05	-0.0003	-5e-05	8e-05	-0.00013	-2e-05	2
7381	-1e-05	1e-05	-4e-05	-0.0003	-5e-05	8e-05	-0.00013	-2e-05	2
7382	-1e-05	1e-05	-4e-05	-0.0003	-5e-05	8e-05	-0.00013	-2e-05	2
7383	-1e-05	1e-05	-4e-05	-0.0003	-5e-05	8e-05	-0.00013	-2e-05	2
7384	-1e-05	1e-05	-4e-05	-0.0003	-5e-05	8e-05	-0.00013	-2e-05	2
7385	-1e-05	1e-05	-4e-05	-0.0003	-5e-05	8e-05	-0.00013	-2e-05	2
7386	-1e-05	1e-05	-4e-05	-0.0003	-5e-05	8e-05	-0.00013	-2e-05	2
7388	-1e-05	1e-05	-4e-05	-0.0003	-5e-05	8e-05	-0.00013	-2e-05	2
7389	-0.0001	0	3e-05	0.00057	-1e-05	0.00019	0.0002	-0.00012	2
7390	-0.0001	0	3e-05	0.00057	-1e-05	0.00019	0.0002	-0.00012	2
7391	-0.0001	0	3e-05	0.00057	-1e-05	0.00019	0.0002	-0.00012	2
7392	-0.0001	0	3e-05	0.00057	-1e-05	0.00019	0.0002	-0.00012	2
7393	-0.0001	0	3e-05	0.00057	-1e-05	0.00019	0.0002	-0.00012	2
7394	-0.0001	0	3e-05	0.00057	-1e-05	0.00019	0.0002	-0.00012	2
7395	-0.0001	0	3e-05	0.00057	-1e-05	0.00019	0.0002	-0.00012	2
7396	-0.0001	0	3e-05	0.00057	-1e-05	0.00019	0.0002	-0.00012	2
7397	-0.0001	0	3e-05	0.00057	-1e-05	0.00019	0.0002	-0.00012	2
7398	-0.0001	0	3e-05	0.00057	-1e-05	0.00019	0.0002	-0.00012	2
7399	-0.0001	0	3e-05	0.00057	-1e-05	0.00019	0.0002	-0.00012	2
7400	-0.0001	0	3e-05	0.00057	-1e-05	0.00019	0.0002	-0.00012	2
7401	-0.0001	0	3e-05	0.00057	-1e-05	0.00019	0.0002	-0.00012	2
7402	-0.0001	0	3e-05	0.00057	-1e-05	0.00019	0.0002	-0.00012	2
7403	-0.0001	0	3e-05	0.00057	-1e-05	0.00019	0.0002	-0.00012	2
7404	-0.00032	-8e-05	-5e-05	-6e-05	1e-05	-0.00029	-3e-05	-2e-05	2
7405	-0.00032	-8e-05	-5e-05	-6e-05	1e-05	-0.00029	-3e-05	-2e-05	2
7406	-0.00032	-8e-05	-5e-05	-6e-05	1e-05	-0.00029	-3e-05	-2e-05	2
7407	-0.00032	-8e-05	-5e-05	-6e-05	1e-05	-0.00029	-3e-05	-2e-05	2
7408	-0.00032	-8e-05	-5e-05	-6e-05	1e-05	-0.00029	-3e-05	-2e-05	2
7409	-0.00032	-8e-05	-5e-05	-6e-05	1e-05	-0.00029	-3e-05	-2e-05	2
7410	-0.00032	-8e-05	-5e-05	-6e-05	1e-05	-0.00029	-3e-05	-2e-05	2
7411	-0.00032	-8e-05	-5e-05	-6e-05	1e-05	-0.00029	-3e-05	-2e-05	2
7412	2e-05	-5e-05	-0.00013	-0.00076	-0.00024	-0.00025	7e-05	2e-05	2
7413	2e-05	-5e-05	-0.00013	-0.00076	-0.00024	-0.00025	7e-05	2e-05	2
7414	2e-05	-5e-05	-0.00013	-0.00076	-0.00024	-0.00025	7e-05	2e-05	2
7415	0.0003	-5e-05	-3e-05	0	-3e-05	-5e-05	-8e-05	7e-05	2
7416	0.0003	-5e-05	-3e-05	0	-3e-05	-5e-05	-8e-05	7e-05	2
7417	0.0003	-5e-05	-3e-05	0	-3e-05	-5e-05	-8e-05	7e-05	2
7418	0.0003	-5e-05	-3e-05	0	-3e-05	-5e-05	-8e-05	7e-05	2
7419	0.0003	-5e-05	-3e-05	0	-3e-05	-5e-05	-8e-05	7e-05	2
7420	0.0003	-5e-05	-3e-05	0	-3e-05	-5e-05	-8e-05	7e-05	2
7421	0.0003	-5e-05	-3e-05	0	-3e-05	-5e-05	-8e-05	7e-05	2
7422	0.0003	-5e-05	-3e-05	0	-3e-05	-5e-05	-8e-05	7e-05	2
7423	0.0003	-5e-05	-3e-05	0	-3e-05	-5e-05	-8e-05	7e-05	2
7424	0.0003	-5e-05	-3e-05	0	-3e-05	-5e-05	-8e-05	7e-05	2
7425	0.0003	-5e-05	-3e-05	0	-3e-05	-5e-05	-8e-05	7e-05	2
7426	0.0003	-5e-05	-3e-05	0	-3e-05	-5e-05	-8e-05	7e-05	2
7427	0.0003	-5e-05	-3e-05	0	-3e-05	-5e-05	-8e-05	7e-05	2
7428	0.0003	-5e-05	-3e-05	0	-3e-05	-5e-05	-8e-05	7e-05	2
7429	0.0003	-5e-05	-3e-05	0	-3e-05	-5e-05	-8e-05	7e-05	2
7430	0.0003	-5e-05	-3e-05	0	-3e-05	-5e-05	-8e-05	7e-05	2
7431	0.0003	-5e-05	-3e-05	0	-3e-05	-5e-05	-8e-05	7e-05	2
7432	0.0003	-5e-05	-3e-05	0	-3e-05	-5e-05	-8e-05	7e-05	2
7433	0.0003	-5e-05	-3e-05	0	-3e-05	-5e-05	-8e-05	7e-05	2
7434	0.0003	-5e-05	-3e-05	0	-3e-05	-5e-05	-8e-05	7e-05	2
7435	-0.00024	3e-05	3e-05	-0.00018	2e-05	-0.00014	-0.00032	-6e-05	2
7436	-0.00024	3e-05	3e-05	-0.00018	2e-05	-0.00014	-0.00032	-6e-05	2
7438	0.00014	-8e-05	0	0	-3e-05	9e-05	0.00067	-7e-05	2
7439	0.00014	-8e-05	0	0	-3e-05	9e-05	0.00067	-7e-05	2
7440	0.00014	-8e-05	0	0	-3e-05	9e-05	0.00067	-7e-05	2
7441	0.00014	-8e-05	0	0	-3e-05	9e-05	0.00067	-7e-05	2
7442	0.00014	-8e-05	0	0	-3e-05	9e-05	0.00067	-7e-05	2
7443	0.00014	-8e-05	0	0	-3e-05	9e-05	0.00067	-7e-05	2
7444	0.00014	-8e-05	0	0	-3e-05	9e-05	0.00067	-7e-05	2
7445	0.00014	-8e-05	0	0	-3e-05	9e-05	0.00067	-7e-05	2
7446	0.00014	-8e-05	0	0	-3e-05	9e-05	0.00067	-7e-05	2
7447	0.00014	-8e-05	0	0	-3e-05	9e-05	0.00067	-7e-05	2
7448	0.00014	-8e-05	0	0	-3e-05	9e-05	0.00067	-7e-05	2
7449	6e-05	-2e-05	-8e-05	7e-05	0.0001	-5e-05	-0.0006	-0.0001	2
7450	0.0001	4e-05	5e-05	0.00012	-0.00013	2e-05	-1e-05	-0.0001	2
7451	0.0001	4e-05	5e-05	0.00012	-0.00013	2e-05	-1e-05	-0.0001	2
7452	0.0001	4e-05	5e-05	0.00012	-0.00013	2e-05	-1e-05	-0.0001	2
7453	0.0001	4e-05	5e-05	0.00012	-0.00013	2e-05	-1e-05	-0.0001	2
7454	0.0001	4e-05	5e-05	0.00012	-0.00013	2e-05	-1e-05	-0.0001	2
7455	0.0001	4e-05	5e-05	0.00012	-0.00013	2e-05	-1e-05	-0.0001	2
7456	-0.00037	0	-1e-05	5e-05	2e-05	0	-0.00015	1e-05	2
7457	-0.00037	0	-1e-05	5e-05	2e-05	0	-0.00015	1e-05	2
7458	-0.00037	0	-1e-05	5e-05	2e-05	0	-0.00015	1e-05	2
7459	-0.00037	0	-1e-05	5e-05	2e-05	0	-0.00015	1e-05	2
7460	-0.00037	0	-1e-05	5e-05	2e-05	0	-0.00015	1e-05	2
7461	-0.00037	0	-1e-05	5e-05	2e-05	0	-0.00015	1e-05	2
7462	-0.00037	0	-1e-05	5e-05	2e-05	0	-0.00015	1e-05	2
7463	-0.00037	0	-1e-05	5e-05	2e-05	0	-0.00015	1e-05	2
7464	-0.00037	0	-1e-05	5e-05	2e-05	0	-0.00015	1e-05	2
7465	-0.00037	0	-1e-05	5e-05	2e-05	0	-0.00015	1e-05	2
7466	-0.00037	0	-1e-05	5e-05	2e-05	0	-0.00015	1e-05	2
7467	-0.00037	0	-1e-05	5e-05	2e-05	0	-0.00015	1e-05	2
7468	-0.00037	0	-1e-05	5e-05	2e-05	0	-0.00015	1e-05	2
7469	-0.00037	0	-1e-05	5e-05	2e-05	0	-0.00015	1e-05	2
7470	-0.00037	0	-1e-05	5e-05	2e-05	0	-0.00015	1e-05	2
7471	-0.00037	0	-1e-05	5e-05	2e-05	0	-0.00015	1e-05	2
7472	0.0002	-3e-05	2e-05	0.00014	-8e-05	-8e-05	0.0004	0	2
7473	1e-05	4e-05	1e-05	2e-05	-8e-05	-0.00022	0.00012	1e-05	2
7474	2e-05	0	-3e-05	0.0003	-2e-05	8e-05	-0.00032	-1e-05	2
7475	2e-05	0	-3e-05	0.0003	-2e-05	8e-05	-0.00032	-1e-05	2
7476	2e-05	0	-3e-05	0.0003	-2e-05	8e-05	-0.00032	-1e-05	2
7477	2e-05	0	-3e-05	0.0003	-2e-05	8e-05	-0.00032	-1e-05	2
7478	2e-05	0	-3e-05	0.0003	-2e-05	8e-05	-0.00032	-1e-05	2
7479	2e-05	0	-3e-05	0.0003	-2e-05	8e-05	-0.00032	-1e-05	2
7480	2e-05	0	-3e-05	0.0003	-2e-05	8e-05	-0.00032	-1e-05	2
7481	2e-05	0	-3e-05	0.0003	-2e-05	8e-05	-0.00032	-1e-05	2
7482	2e-05	0	-3e-05	0.0003	-2e-05	8e-05	-0.00032	-1e-05	2
7483	2e-05	0	-3e-05	0.0003	-2e-05	8e-05	-0.00032	-1e-05	2
7484	2e-05	0	-3e-05	0.0003	-2e-05	8e-05	-0.00032	-1e-05	2
7485	2e-05	0	-3e-05	0.0003	-2e-05	8e-05	-0.00032	-1e-05	2
7486	2e-05	0	-3e-05	0.0003	-2e-05	8e-05	-0.00032	-1e-05	2
7488	2e-05	0	-3e-05	0.0003	-2e-05	8e-05	-0.00032	-1e-05	2
7489	2e-05	0	-3e-05	0.0003	-2e-05	8e-05	-0.00032	-1e-05	2
7490	2e-05	0	-3e-05	0.0003	-2e-05	8e-05	-0.00032	-1e-05	2
7491	2e-05	0	-3e-05	0.0003	-2e-05	8e-05	-0.00032	-1e-05	2
7492	2e-05	0	-3e-05	0.0003	-2e-05	8e-05	-0.00032	-1e-05	2
7493	2e-05	0	-3e-05	0.0003	-2e-05	8e-05	-0.00032	-1e-05	2
7494	2e-05	0	-3e-05	0.0003	-2e-05	8e-05	-0.00032	-1e-05	2
7495	-2e-05	-0.0001	-0.00011	0.00049	7e-05	-8e-05	-0.00016	0.00015	2
7496	-2e-05	-0.0001	-0.00011	0.00049	7e-05	-8e-05	-0.00016	0.00015	2
7497	-0.00047	0	1e-05	-0.00011	0.00014	0.00012	5e-05	5e-05	2
7498	-0.00047	0	1e-05	-0.00011	0.00014	0.00012	5e-05	5e-05	2
7499	-0.00047	0	1e-05	-0.00011	0.00014	0.00012	5e-05	5e-05	2
7500	-0.00047	0	1e-05	-0.00011	0.00014	0.00012	5e-05	5e-05	2
7501	-0.00047	0	1e-05	-0.00011	0.00014	0.00012	5e-05	5e-05	2
7502	-0.00047	0	1e-05	-0.00011	0.00014	0.00012	5e-05	5e-05	2
7503	-0.00047	0	1e-05	-0.00011	0.00014	0.00012	5e-05	5e-05	2
7504	-0.00047	0	1e-05	-0.00011	0.00014	0.00012	5e-05	5e-05	2
7505	-0.00047	0	1e-05	-0.00011	0.00014	0.00012	5e-05	5e-05	2
7506	-0.00047	0	1e-05	-0.00011	0.00014	0.00012	5e-05	5e-05	2
7507	-0.00047	0	1e-05	-0.00011	0.00014	0.00012	5e-05	5e-05	2
7508	-0.00047	0	1e-05	-0.00011	0.00014	0.00012	5e-05	5e-05	2
7509	5e-05	-2e-05	7e-05	0.00015	-4e-05	-0.0001	0.00021	-0.0002	2
7510	0.00016	-5e-05	-0.00017	-0.00032	-0.00011	-2e-05	0.00052	6e-05	2
7511	0.00016	-5e-05	-0.00017	-0.00032	-0.00011	-2e-05	0.00052	6e-05	2
7512	0.00016	-5e-05	-0.00017	-0.00032	-0.00011	-2e-05	0.00052	6e-05	2
7513	0.00016	-5e-05	-0.00017	-0.00032	-0.00011	-2e-05	0.00052	6e-05	2
7514	0.00016	-5e-05	-0.00017	-0.00032	-0.00011	-2e-05	0.00052	6e-05	2
7515	0.00016	-5e-05	-0.00017	-0.00032	-0.00011	-2e-05	0.00052	6e-05	2
7516	1e-05	1e-05	0	0.00027	0.00024	0.0003	-5e-05	-0.00014	2
7517	1e-05	1e-05	0	0.00027	0.00024	0.0003	-5e-05	-0.00014	2
7518	1e-05	1e-05	0	0.00027	0.00024	0.0003	-5e-05	-0.00014	2
7519	1e-05	1e-05	0	0.00027	0.00024	0.0003	-5e-05	-0.00014	2
7520	1e-05	1e-05	0	0.00027	0.00024	0.0003	-5e-05	-0.00014	2
7521	1e-05	1e-05	0	0.00027	0.00024	0.0003	-5e-05	-0.00014	2
7522	1e-05	1e-05	0	0.00027	0.00024	0.0003	-5e-05	-0.00014	2
7523	1e-05	1e-05	0	0.00027	0.00024	0.0003	-5e-05	-0.00014	2
7524	1e-05	1e-05	0	0.00027	0.00024	0.0003	-5e-05	-0.00014	2
7525	1e-05	1e-05	0	0.00027	0.00024	0.0003	-5e-05	-0.00014	2
7526	1e-05	1e-05	0	0.00027	0.00024	0.0003	-5e-05	-0.00014	2
7527	1e-05	1e-05	0	0.00027	0.00024	0.0003	-5e-05	-0.00014	2
7528	1e-05	1e-05	0	0.00027	0.00024	0.0003	-5e-05	-0.00014	2
7529	1e-05	1e-05	0	0.00027	0.00024	0.0003	-5e-05	-0.00014	2
7530	1e-05	1e-05	0	0.00027	0.00024	0.0003	-5e-05	-0.00014	2
7531	1e-05	1e-05	0	0.00027	0.00024	0.0003	-5e-05	-0.00014	2
7532	1e-05	1e-05	0	0.00027	0.00024	0.0003	-5e-05	-0.00014	2
7533	-6e-05	1e-05	2e-05	-0.0001	6e-05	0	9e-05	-4e-05	2
7534	4e-05	4e-05	2e-05	-0.00016	-0.0001	-0.00021	-0.00042	-6e-05	2
7535	4e-05	4e-05	2e-05	-0.00016	-0.0001	-0.00021	-0.00042	-6e-05	2
7536	4e-05	4e-05	2e-05	-0.00016	-0.0001	-0.00021	-0.00042	-6e-05	2
7538	4e-05	4e-05	2e-05	-0.00016	-0.0001	-0.00021	-0.00042	-6e-05	2
7539	4e-05	4e-05	2e-05	-0.00016	-0.0001	-0.00021	-0.00042	-6e-05	2
7540	4e-05	4e-05	2e-05	-0.00016	-0.0001	-0.00021	-0.00042	-6e-05	2
7541	4e-05	4e-05	2e-05	-0.00016	-0.0001	-0.00021	-0.00042	-6e-05	2
7542	4e-05	4e-05	2e-05	-0.00016	-0.0001	-0.00021	-0.00042	-6e-05	2
7543	4e-05	4e-05	2e-05	-0.00016	-0.0001	-0.00021	-0.00042	-6e-05	2
7544	4e-05	4e-05	2e-05	-0.00016	-0.0001	-0.00021	-0.00042	-6e-05	2
7545	4e-05	4e-05	2e-05	-0.00016	-0.0001	-0.00021	-0.00042	-6e-05	2
7546	4e-05	4e-05	2e-05	-0.00016	-0.0001	-0.00021	-0.00042	-6e-05	2
7547	4e-05	4e-05	2e-05	-0.00016	-0.0001	-0.00021	-0.00042	-6e-05	2
7548	4e-05	4e-05	2e-05	-0.00016	-0.0001	-0.00021	-0.00042	-6e-05	2
7549	4e-05	4e-05	2e-05	-0.00016	-0.0001	-0.00021	-0.00042	-6e-05	2
7550	4e-05	4e-05	2e-05	-0.00016	-0.0001	-0.00021	-0.00042	-6e-05	2
7551	4e-05	4e-05	2e-05	-0.00016	-0.0001	-0.00021	-0.00042	-6e-05	2
7552	4e-05	4e-05	2e-05	-0.00016	-0.0001	-0.00021	-0.00042	-6e-05	2
7553	4e-05	4e-05	2e-05	-0.00016	-0.0001	-0.00021	-0.00042	-6e-05	2
7554	4e-05	4e-05	2e-05	-0.00016	-0.0001	-0.00021	-0.00042	-6e-05	2
7555	0.00027	-2e-05	0	-0.00037	-6e-05	0.00011	5e-05	5e-05	2
7556	0.00027	-2e-05	0	-0.00037	-6e-05	0.00011	5e-05	5e-05	2
7557	4e-05	0	-4e-05	2e-05	-5e-05	-0.0002	-0.00035	-0.0001	2
7558	4e-05	0	-4e-05	2e-05	-5e-05	-0.0002	-0.00035	-0.0001	2
7559	4e-05	0	-4e-05	2e-05	-5e-05	-0.0002	-0.00035	-0.0001	2
7560	4e-05	0	-4e-05	2e-05	-5e-05	-0.0002	-0.00035	-0.0001	2
7561	4e-05	0	-4e-05	2e-05	-5e-05	-0.0002	-0.00035	-0.0001	2
7562	4e-05	0	-4e-05	2e-05	-5e-05	-0.0002	-0.00035	-0.0001	2
7563	4e-05	0	-4e-05	2e-05	-5e-05	-0.0002	-0.00035	-0.0001	2
7564	4e-05	0	-4e-05	2e-05	-5e-05	-0.0002	-0.00035	-0.0001	2
7565	4e-05	0	-4e-05	2e-05	-5e-05	-0.0002	-0.00035	-0.0001	2
7566	4e-05	0	-4e-05	2e-05	-5e-05	-0.0002	-0.00035	-0.0001	2
7567	4e-05	0	-4e-05	2e-05	-5e-05	-0.0002	-0.00035	-0.0001	2
7568	4e-05	0	-4e-05	2e-05	-5e-05	-0.0002	-0.00035	-0.0001	2
7569	0.00019	3e-05	-0.00013	-0.00029	5e-05	2e-05	-0.00054	-0.00013	2
7570	0.00019	3e-05	-0.00013	-0.00029	5e-05	2e-05	-0.00054	-0.00013	2
7571	0.00019	3e-05	-0.00013	-0.00029	5e-05	2e-05	-0.00054	-0.00013	2
7572	0.00019	3e-05	-0.00013	-0.00029	5e-05	2e-05	-0.00054	-0.00013	2
7573	0.00019	3e-05	-0.00013	-0.00029	5e-05	2e-05	-0.00054	-0.00013	2
7574	0.00019	3e-05	-0.00013	-0.00029	5e-05	2e-05	-0.00054	-0.00013	2
7575	0.00019	3e-05	-0.00013	-0.00029	5e-05	2e-05	-0.00054	-0.00013	2
7576	0.00019	3e-05	-0.00013	-0.00029	5e-05	2e-05	-0.00054	-0.00013	2
7577	0.00019	3e-05	-0.00013	-0.00029	5e-05	2e-05	-0.00054	-0.00013	2
7578	0.00013	-3e-05	0	4e-05	-5e-05	-8e-05	-0.00024	-9e-05	2
7579	0.00013	-3e-05	0	4e-05	-5e-05	-8e-05	-0.00024	-9e-05	2
7580	0.00013	-3e-05	0	4e-05	-5e-05	-8e-05	-0.00024	-9e-05	2
7581	0.00013	-3e-05	0	4e-05	-5e-05	-8e-05	-0.00024	-9e-05	2
7582	0.00013	-3e-05	0	4e-05	-5e-05	-8e-05	-0.00024	-9e-05	2
7583	0.00013	-3e-05	0	4e-05	-5e-05	-8e-05	-0.00024	-9e-05	2
7584	0.00013	-3e-05	0	4e-05	-5e-05	-8e-05	-0.00024	-9e-05	2
7585	0.00013	-3e-05	0	4e-05	-5e-05	-8e-05	-0.00024	-9e-05	2
7586	0.00013	-3e-05	0	4e-05	-5e-05	-8e-05	-0.00024	-9e-05	2
7588	0.00013	-3e-05	0	4e-05	-5e-05	-8e-05	-0.00024	-9e-05	2
7589	0.00013	-3e-05	0	4e-05	-5e-05	-8e-05	-0.00024	-9e-05	2
7590	0.00013	-3e-05	0	4e-05	-5e-05	-8e-05	-0.00024	-9e-05	2
7591	0.00013	-3e-05	0	4e-05	-5e-05	-8e-05	-0.00024	-9e-05	2
7592	0.00013	-3e-05	0	4e-05	-5e-05	-8e-05	-0.00024	-9e-05	2
7593	-0.00016	2e-05	0.00013	0.0004	-0.00022	-0.0003	-0.00023	-6e-05	2
7594	-2e-05	1e-05	-2e-05	-0.00016	0	-0.0002	0.0004	4e-05	2
7595	-2e-05	1e-05	-2e-05	-0.00016	0	-0.0002	0.0004	4e-05	2
7596	-2e-05	1e-05	-2e-05	-0.00016	0	-0.0002	0.0004	4e-05	2
7597	-2e-05	1e-05	-2e-05	-0.00016	0	-0.0002	0.0004	4e-05	2
7598	-2e-05	1e-05	-2e-05	-0.00016	0	-0.0002	0.0004	4e-05	2
7599	-2e-05	1e-05	-2e-05	-0.00016	0	-0.0002	0.0004	4e-05	2
7600	-2e-05	1e-05	-2e-05	-0.00016	0	-0.0002	0.0004	4e-05	2
7601	-2e-05	1e-05	-2e-05	-0.00016	0	-0.0002	0.0004	4e-05	2
7602	-2e-05	1e-05	-2e-05	-0.00016	0	-0.0002	0.0004	4e-05	2
7603	-2e-05	1e-05	-2e-05	-0.00016	0	-0.0002	0.0004	4e-05	2
7604	-2e-05	1e-05	-2e-05	-0.00016	0	-0.0002	0.0004	4e-05	2
7605	-2e-05	1e-05	-2e-05	-0.00016	0	-0.0002	0.0004	4e-05	2
7606	-2e-05	1e-05	-2e-05	-0.00016	0	-0.0002	0.0004	4e-05	2
7607	-2e-05	1e-05	-2e-05	-0.00016	0	-0.0002	0.0004	4e-05	2
7608	-2e-05	1e-05	-2e-05	-0.00016	0	-0.0002	0.0004	4e-05	2
7609	-2e-05	1e-05	-2e-05	-0.00016	0	-0.0002	0.0004	4e-05	2
7610	-2e-05	1e-05	-2e-05	-0.00016	0	-0.0002	0.0004	4e-05	2
7611	-2e-05	1e-05	-2e-05	-0.00016	0	-0.0002	0.0004	4e-05	2
7612	-2e-05	1e-05	-2e-05	-0.00016	0	-0.0002	0.0004	4e-05	2
7613	-2e-05	1e-05	-2e-05	-0.00016	0	-0.0002	0.0004	4e-05	2
7614	-2e-05	1e-05	-2e-05	-0.00016	0	-0.0002	0.0004	4e-05	2
7615	-0.00014	-3e-05	4e-05	5e-05	-3e-05	1e-05	0.00019	-8e-05	2
7616	-0.00014	-3e-05	4e-05	5e-05	-3e-05	1e-05	0.00019	-8e-05	2
7617	-0.00013	-5e-05	-4e-05	-0.00045	-9e-05	-0.00013	-0.00032	-8e-05	2
7618	-0.00013	-5e-05	-4e-05	-0.00045	-9e-05	-0.00013	-0.00032	-8e-05	2
7619	-0.00013	-5e-05	-4e-05	-0.00045	-9e-05	-0.00013	-0.00032	-8e-05	2
7620	-0.00013	-5e-05	-4e-05	-0.00045	-9e-05	-0.00013	-0.00032	-8e-05	2
7621	-0.00013	-5e-05	-4e-05	-0.00045	-9e-05	-0.00013	-0.00032	-8e-05	2
7622	-0.00013	-5e-05	-4e-05	-0.00045	-9e-05	-0.00013	-0.00032	-8e-05	2
7623	-0.00013	-5e-05	-4e-05	-0.00045	-9e-05	-0.00013	-0.00032	-8e-05	2
7624	-0.00013	-5e-05	-4e-05	-0.00045	-9e-05	-0.00013	-0.00032	-8e-05	2
7625	-0.00013	-5e-05	-4e-05	-0.00045	-9e-05	-0.00013	-0.00032	-8e-05	2
7626	-0.00013	-5e-05	-4e-05	-0.00045	-9e-05	-0.00013	-0.00032	-8e-05	2
7627	-0.00013	-5e-05	-4e-05	-0.00045	-9e-05	-0.00013	-0.00032	-8e-05	2
7628	-0.00013	-5e-05	-4e-05	-0.00045	-9e-05	-0.00013	-0.00032	-8e-05	2
7629	3e-05	5e-05	5e-05	-0.00013	1e-05	0.00016	-0.00015	-1e-05	2
7630	3e-05	5e-05	5e-05	-0.00013	1e-05	0.00016	-0.00015	-1e-05	2
7631	3e-05	5e-05	5e-05	-0.00013	1e-05	0.00016	-0.00015	-1e-05	2
7632	3e-05	5e-05	5e-05	-0.00013	1e-05	0.00016	-0.00015	-1e-05	2
7633	3e-05	5e-05	5e-05	-0.00013	1e-05	0.00016	-0.00015	-1e-05	2
7634	3e-05	5e-05	5e-05	-0.00013	1e-05	0.00016	-0.00015	-1e-05	2
7635	3e-05	5e-05	5e-05	-0.00013	1e-05	0.00016	-0.00015	-1e-05	2
7636	3e-05	5e-05	5e-05	-0.00013	1e-05	0.00016	-0.00015	-1e-05	2
7638	0.0001	2e-05	3e-05	0.00017	2e-05	0.0001	-4e-05	-3e-05	2
7639	0.0001	2e-05	3e-05	0.00017	2e-05	0.0001	-4e-05	-3e-05	2
7640	0.0001	2e-05	3e-05	0.00017	2e-05	0.0001	-4e-05	-3e-05	2
7641	0.0001	2e-05	3e-05	0.00017	2e-05	0.0001	-4e-05	-3e-05	2
7642	0.0001	2e-05	3e-05	0.00017	2e-05	0.0001	-4e-05	-3e-05	2
7643	0.0001	2e-05	3e-05	0.00017	2e-05	0.0001	-4e-05	-3e-05	2
7644	0.0001	2e-05	3e-05	0.00017	2e-05	0.0001	-4e-05	-3e-05	2
7645	0.0001	2e-05	3e-05	0.00017	2e-05	0.0001	-4e-05	-3e-05	2
7646	0.0001	2e-05	3e-05	0.00017	2e-05	0.0001	-4e-05	-3e-05	2
7647	0.0001	2e-05	3e-05	0.00017	2e-05	0.0001	-4e-05	-3e-05	2
7648	0.0001	2e-05	3e-05	0.00017	2e-05	0.0001	-4e-05	-3e-05	2
7649	0.0001	2e-05	3e-05	0.00017	2e-05	0.0001	-4e-05	-3e-05	2
7650	0.0001	2e-05	3e-05	0.00017	2e-05	0.0001	-4e-05	-3e-05	2
7651	0.0001	2e-05	3e-05	0.00017	2e-05	0.0001	-4e-05	-3e-05	2
7652	0.0001	2e-05	3e-05	0.00017	2e-05	0.0001	-4e-05	-3e-05	2
7653	0.00025	-3e-05	-2e-05	8e-05	3e-05	-4e-05	-0.00017	-0.00015	2
7654	3e-05	1e-05	-2e-05	-2e-05	3e-05	0.00019	-5e-05	0.00014	2
7655	3e-05	1e-05	-2e-05	-2e-05	3e-05	0.00019	-5e-05	0.00014	2
7656	3e-05	1e-05	-2e-05	-2e-05	3e-05	0.00019	-5e-05	0.00014	2
7657	3e-05	1e-05	-2e-05	-2e-05	3e-05	0.00019	-5e-05	0.00014	2
7658	3e-05	1e-05	-2e-05	-2e-05	3e-05	0.00019	-5e-05	0.00014	2
7659	3e-05	1e-05	-2e-05	-2e-05	3e-05	0.00019	-5e-05	0.00014	2
7660	3e-05	1e-05	-2e-05	-2e-05	3e-05	0.00019	-5e-05	0.00014	2
7661	3e-05	1e-05	-2e-05	-2e-05	3e-05	0.00019	-5e-05	0.00014	2
7662	3e-05	1e-05	-2e-05	-2e-05	3e-05	0.00019	-5e-05	0.00014	2
7663	3e-05	1e-05	-2e-05	-2e-05	3e-05	0.00019	-5e-05	0.00014	2
7664	3e-05	1e-05	-2e-05	-2e-05	3e-05	0.00019	-5e-05	0.00014	2
7665	3e-05	1e-05	-2e-05	-2e-05	3e-05	0.00019	-5e-05	0.00014	2
7666	3e-05	1e-05	-2e-05	-2e-05	3e-05	0.00019	-5e-05	0.00014	2
7667	3e-05	1e-05	-2e-05	-2e-05	3e-05	0.00019	-5e-05	0.00014	2
7668	3e-05	1e-05	-2e-05	-2e-05	3e-05	0.00019	-5e-05	0.00014	2
7669	3e-05	1e-05	-2e-05	-2e-05	3e-05	0.00019	-5e-05	0.00014	2
7670	3e-05	1e-05	-2e-05	-2e-05	3e-05	0.00019	-5e-05	0.00014	2
7671	3e-05	1e-05	-2e-05	-2e-05	3e-05	0.00019	-5e-05	0.00014	2
7672	3e-05	1e-05	-2e-05	-2e-05	3e-05	0.00019	-5e-05	0.00014	2
7673	3e-05	1e-05	-2e-05	-2e-05	3e-05	0.00019	-5e-05	0.00014	2
7674	3e-05	1e-05	-2e-05	-2e-05	3e-05	0.00019	-5e-05	0.00014	2
7675	-0.00023	-8e-05	-5e-05	-2e-05	3e-05	-0.0003	-0.00012	-1e-05	2
7676	-0.00023	-8e-05	-5e-05	-2e-05	3e-05	-0.0003	-0.00012	-1e-05	2
7677	5e-05	2e-05	8e-05	0.00019	-1e-05	8e-05	0.00031	-1e-05	2
7678	5e-05	2e-05	8e-05	0.00019	-1e-05	8e-05	0.00031	-1e-05	2
7679	5e-05	2e-05	8e-05	0.00019	-1e-05	8e-05	0.00031	-1e-05	2
7680	5e-05	2e-05	8e-05	0.00019	-1e-05	8e-05	0.00031	-1e-05	2
7681	5e-05	2e-05	8e-05	0.00019	-1e-05	8e-05	0.00031	-1e-05	2
7682	5e-05	2e-05	8e-05	0.00019	-1e-05	8e-05	0.00031	-1e-05	2
7683	5e-05	2e-05	8e-05	0.00019	-1e-05	8e-05	0.00031	-1e-05	2
7684	5e-05	2e-05	8e-05	0.00019	-1e-05	8e-05	0.00031	-1e-05	2
7685	5e-05	2e-05	8e-05	0.00019	-1e-05	8e-05	0.00031	-1e-05	2
7686	5e-05	2e-05	8e-05	0.00019	-1e-05	8e-05	0.00031	-1e-05	2
7688	5e-05	2e-05	8e-05	0.00019	-1e-05	8e-05	0.00031	-1e-05	2
7689	-2e-05	-3e-05	-5e-05	5e-05	3e-05	7e-05	0.00012	-1e-05	2
7690	-2e-05	-3e-05	-5e-05	5e-05	3e-05	7e-05	0.00012	-1e-05	2
7691	-2e-05	-3e-05	-5e-05	5e-05	3e-05	7e-05	0.00012	-1e-05	2
7692	-2e-05	-3e-05	-5e-05	5e-05	3e-05	7e-05	0.00012	-1e-05	2
7693	-2e-05	-3e-05	-5e-05	5e-05	3e-05	7e-05	0.00012	-1e-05	2
7694	-2e-05	-3e-05	-5e-05	5e-05	3e-05	7e-05	0.00012	-1e-05	2
7695	-2e-05	-3e-05	-5e-05	5e-05	3e-05	7e-05	0.00012	-1e-05	2
7696	-2e-05	-3e-05	-5e-05	5e-05	3e-05	7e-05	0.00012	-1e-05	2
7697	-2e-05	-3e-05	-5e-05	5e-05	3e-05	7e-05	0.00012	-1e-05	2
7698	-3e-05	-3e-05	-0.0001	6e-05	-2e-05	0	0.00055	1e-05	2
7699	-3e-05	-3e-05	-0.0001	6e-05	-2e-05	0	0.00055	1e-05	2
7700	-3e-05	-3e-05	-0.0001	6e-05	-2e-05	0	0.00055	1e-05	2
7701	-3e-05	-3e-05	-0.0001	6e-05	-2e-05	0	0.00055	1e-05	2
7702	-3e-05	-3e-05	-0.0001	6e-05	-2e-05	0	0.00055	1e-05	2
7703	-3e-05	-3e-05	-0.0001	6e-05	-2e-05	0	0.00055	1e-05	2
7704	-3e-05	-3e-05	-0.0001	6e-05	-2e-05	0	0.00055	1e-05	2
7705	-3e-05	-3e-05	-0.0001	6e-05	-2e-05	0	0.00055	1e-05	2
7706	-3e-05	-3e-05	-0.0001	6e-05	-2e-05	0	0.00055	1e-05	2
7707	-3e-05	-3e-05	-0.0001	6e-05	-2e-05	0	0.00055	1e-05	2
7708	-3e-05	-3e-05	-0.0001	6e-05	-2e-05	0	0.00055	1e-05	2
7709	-3e-05	-3e-05	-0.0001	6e-05	-2e-05	0	0.00055	1e-05	2
7710	-3e-05	-3e-05	-0.0001	6e-05	-2e-05	0	0.00055	1e-05	2
7711	-3e-05	-3e-05	-0.0001	6e-05	-2e-05	0	0.00055	1e-05	2
7712	0.00011	-1e-05	4e-05	0.00014	0	-4e-05	0.00018	0.0001	2
7713	0.00011	-1e-05	4e-05	0.00014	0	-4e-05	0.00018	0.0001	2
7715	-3e-05	2e-05	6e-05	1e-05	1e-05	2e-05	-0.00014	0.00012	2
7716	-4e-05	-4e-05	0	-0.00011	-0.00018	-5e-05	-0.00038	-2e-05	2
7717	-4e-05	-4e-05	0	-0.00011	-0.00018	-5e-05	-0.00038	-2e-05	2
7718	-4e-05	-4e-05	0	-0.00011	-0.00018	-5e-05	-0.00038	-2e-05	2
7719	-4e-05	-4e-05	0	-0.00011	-0.00018	-5e-05	-0.00038	-2e-05	2
7720	-4e-05	-4e-05	0	-0.00011	-0.00018	-5e-05	-0.00038	-2e-05	2
7721	-4e-05	-4e-05	0	-0.00011	-0.00018	-5e-05	-0.00038	-2e-05	2
7722	-4e-05	-4e-05	0	-0.00011	-0.00018	-5e-05	-0.00038	-2e-05	2
7723	-4e-05	-4e-05	0	-0.00011	-0.00018	-5e-05	-0.00038	-2e-05	2
7724	-4e-05	-4e-05	0	-0.00011	-0.00018	-5e-05	-0.00038	-2e-05	2
7725	-4e-05	-4e-05	0	-0.00011	-0.00018	-5e-05	-0.00038	-2e-05	2
7726	-4e-05	-4e-05	0	-0.00011	-0.00018	-5e-05	-0.00038	-2e-05	2
7727	-4e-05	-4e-05	0	-0.00011	-0.00018	-5e-05	-0.00038	-2e-05	2
7728	-4e-05	-4e-05	0	-0.00011	-0.00018	-5e-05	-0.00038	-2e-05	2
7729	-4e-05	-4e-05	0	-0.00011	-0.00018	-5e-05	-0.00038	-2e-05	2
7730	-4e-05	-4e-05	0	-0.00011	-0.00018	-5e-05	-0.00038	-2e-05	2
7731	-4e-05	-4e-05	0	-0.00011	-0.00018	-5e-05	-0.00038	-2e-05	2
7732	-4e-05	-4e-05	0	-0.00011	-0.00018	-5e-05	-0.00038	-2e-05	2
7733	-4e-05	-4e-05	0	-0.00011	-0.00018	-5e-05	-0.00038	-2e-05	2
7734	-4e-05	-4e-05	0	-0.00011	-0.00018	-5e-05	-0.00038	-2e-05	2
7735	0.00027	5e-05	1e-05	-6e-05	2e-05	-1e-05	-2e-05	0.00013	2
7736	0.00027	5e-05	1e-05	-6e-05	2e-05	-1e-05	-2e-05	0.00013	2
7738	-0.00011	-7e-05	-7e-05	-0.00032	0.00011	-0.00016	-0.00023	-9e-05	2
7739	-0.00011	-7e-05	-7e-05	-0.00032	0.00011	-0.00016	-0.00023	-9e-05	2
7740	-0.00011	-7e-05	-7e-05	-0.00032	0.00011	-0.00016	-0.00023	-9e-05	2
7741	-0.00011	-7e-05	-7e-05	-0.00032	0.00011	-0.00016	-0.00023	-9e-05	2
7742	-0.00011	-7e-05	-7e-05	-0.00032	0.00011	-0.00016	-0.00023	-9e-05	2
7743	-0.00011	-7e-05	-7e-05	-0.00032	0.00011	-0.00016	-0.00023	-9e-05	2
7744	-0.00011	-7e-05	-7e-05	-0.00032	0.00011	-0.00016	-0.00023	-9e-05	2
7745	-0.00011	-7e-05	-7e-05	-0.00032	0.00011	-0.00016	-0.00023	-9e-05	2
7746	-0.00011	-7e-05	-7e-05	-0.00032	0.00011	-0.00016	-0.00023	-9e-05	2
7747	-0.00011	-7e-05	-7e-05	-0.00032	0.00011	-0.00016	-0.00023	-9e-05	2
7748	-0.00011	-7e-05	-7e-05	-0.00032	0.00011	-0.00016	-0.00023	-9e-05	2
7749	-6e-05	-1e-05	-2e-05	2e-05	-0.00017	-0.00018	3e-05	-9e-05	2
7750	-6e-05	-1e-05	-2e-05	2e-05	-0.00017	-0.00018	3e-05	-9e-05	2
7751	-6e-05	-1e-05	-2e-05	2e-05	-0.00017	-0.00018	3e-05	-9e-05	2
7752	-6e-05	-1e-05	-2e-05	2e-05	-0.00017	-0.00018	3e-05	-9e-05	2
7753	-6e-05	-1e-05	-2e-05	2e-05	-0.00017	-0.00018	3e-05	-9e-05	2
7754	-6e-05	-1e-05	-2e-05	2e-05	-0.00017	-0.00018	3e-05	-9e-05	2
7755	-6e-05	-1e-05	-2e-05	2e-05	-0.00017	-0.00018	3e-05	-9e-05	2
7756	-6e-05	-1e-05	-2e-05	2e-05	-0.00017	-0.00018	3e-05	-9e-05	2
7757	-6e-05	-1e-05	-2e-05	2e-05	-0.00017	-0.00018	3e-05	-9e-05	2
7758	-3e-05	5e-05	5e-05	0.00035	-6e-05	9e-05	-0.00026	0.00018	2
7759	-3e-05	5e-05	5e-05	0.00035	-6e-05	9e-05	-0.00026	0.00018	2
7760	-3e-05	5e-05	5e-05	0.00035	-6e-05	9e-05	-0.00026	0.00018	2
7761	-3e-05	5e-05	5e-05	0.00035	-6e-05	9e-05	-0.00026	0.00018	2
7762	-3e-05	5e-05	5e-05	0.00035	-6e-05	9e-05	-0.00026	0.00018	2
7763	-3e-05	5e-05	5e-05	0.00035	-6e-05	9e-05	-0.00026	0.00018	2
7764	-3e-05	5e-05	5e-05	0.00035	-6e-05	9e-05	-0.00026	0.00018	2
7765	-3e-05	5e-05	5e-05	0.00035	-6e-05	9e-05	-0.00026	0.00018	2
7766	-3e-05	5e-05	5e-05	0.00035	-6e-05	9e-05	-0.00026	0.00018	2
7767	-3e-05	5e-05	5e-05	0.00035	-6e-05	9e-05	-0.00026	0.00018	2
7768	-3e-05	5e-05	5e-05	0.00035	-6e-05	9e-05	-0.00026	0.00018	2
7769	-3e-05	5e-05	5e-05	0.00035	-6e-05	9e-05	-0.00026	0.00018	2
7770	-3e-05	5e-05	5e-05	0.00035	-6e-05	9e-05	-0.00026	0.00018	2
7771	-3e-05	5e-05	5e-05	0.00035	-6e-05	9e-05	-0.00026	0.00018	2
7772	-8e-05	-5e-05	4e-05	4e-05	-0.00012	-0.00015	0.00014	-5e-05	2
7773	-0.00011	-3e-05	-6e-05	-4e-05	0.00015	0.00025	-6e-05	0.00012	2
7774	2e-05	-5e-05	0	-0.00012	-6e-05	-0.00013	-0.00056	-6e-05	2
7775	2e-05	-5e-05	0	-0.00012	-6e-05	-0.00013	-0.00056	-6e-05	2
7776	2e-05	-5e-05	0	-0.00012	-6e-05	-0.00013	-0.00056	-6e-05	2
7777	2e-05	-5e-05	0	-0.00012	-6e-05	-0.00013	-0.00056	-6e-05	2
7778	2e-05	-5e-05	0	-0.00012	-6e-05	-0.00013	-0.00056	-6e-05	2
7779	2e-05	-5e-05	0	-0.00012	-6e-05	-0.00013	-0.00056	-6e-05	2
7780	2e-05	-5e-05	0	-0.00012	-6e-05	-0.00013	-0.00056	-6e-05	2
7781	2e-05	-5e-05	0	-0.00012	-6e-05	-0.00013	-0.00056	-6e-05	2
7782	2e-05	-5e-05	0	-0.00012	-6e-05	-0.00013	-0.00056	-6e-05	2
7783	2e-05	-5e-05	0	-0.00012	-6e-05	-0.00013	-0.00056	-6e-05	2
7784	2e-05	-5e-05	0	-0.00012	-6e-05	-0.00013	-0.00056	-6e-05	2
7785	2e-05	-5e-05	0	-0.00012	-6e-05	-0.00013	-0.00056	-6e-05	2
7786	2e-05	-5e-05	0	-0.00012	-6e-05	-0.00013	-0.00056	-6e-05	2
7788	2e-05	-5e-05	0	-0.00012	-6e-05	-0.00013	-0.00056	-6e-05	2
7789	2e-05	-5e-05	0	-0.00012	-6e-05	-0.00013	-0.00056	-6e-05	2
7790	2e-05	-5e-05	0	-0.00012	-6e-05	-0.00013	-0.00056	-6e-05	2
7791	2e-05	-5e-05	0	-0.00012	-6e-05	-0.00013	-0.00056	-6e-05	2
7792	2e-05	-5e-05	0	-0.00012	-6e-05	-0.00013	-0.00056	-6e-05	2
7793	2e-05	-5e-05	0	-0.00012	-6e-05	-0.00013	-0.00056	-6e-05	2
7794	2e-05	-5e-05	0	-0.00012	-6e-05	-0.00013	-0.00056	-6e-05	2
7795	-0.00016	-4e-05	-2e-05	-0.00027	-5e-05	-3e-05	0.00012	-7e-05	2
7796	-0.00016	-4e-05	-2e-05	-0.00027	-5e-05	-3e-05	0.00012	-7e-05	2
7797	0.00015	-5e-05	-5e-05	6e-05	0.00021	-5e-05	0.00046	-0.00012	2
7798	0.00015	-5e-05	-5e-05	6e-05	0.00021	-5e-05	0.00046	-0.00012	2
7799	0.00015	-5e-05	-5e-05	6e-05	0.00021	-5e-05	0.00046	-0.00012	2
7800	0.00015	-5e-05	-5e-05	6e-05	0.00021	-5e-05	0.00046	-0.00012	2
7801	0.00015	-5e-05	-5e-05	6e-05	0.00021	-5e-05	0.00046	-0.00012	2
7802	0.00015	-5e-05	-5e-05	6e-05	0.00021	-5e-05	0.00046	-0.00012	2
7803	0.00015	-5e-05	-5e-05	6e-05	0.00021	-5e-05	0.00046	-0.00012	2
7804	0.00015	-5e-05	-5e-05	6e-05	0.00021	-5e-05	0.00046	-0.00012	2
7805	0.00015	-5e-05	-5e-05	6e-05	0.00021	-5e-05	0.00046	-0.00012	2
7806	0.00015	-5e-05	-5e-05	6e-05	0.00021	-5e-05	0.00046	-0.00012	2
7807	0.00015	-5e-05	-5e-05	6e-05	0.00021	-5e-05	0.00046	-0.00012	2
7808	0.00015	-5e-05	-5e-05	6e-05	0.00021	-5e-05	0.00046	-0.00012	2
7809	0.00016	-4e-05	7e-05	0.00056	5e-05	-2e-05	-0.0001	-0.0002	2
7810	0.00016	-4e-05	7e-05	0.00056	5e-05	-2e-05	-0.0001	-0.0002	2
7811	0.00016	-4e-05	7e-05	0.00056	5e-05	-2e-05	-0.0001	-0.0002	2
7812	0.00016	-4e-05	7e-05	0.00056	5e-05	-2e-05	-0.0001	-0.0002	2
7813	0.00016	-4e-05	7e-05	0.00056	5e-05	-2e-05	-0.0001	-0.0002	2
7814	0.00016	-4e-05	7e-05	0.00056	5e-05	-2e-05	-0.0001	-0.0002	2
7815	0.00016	-4e-05	7e-05	0.00056	5e-05	-2e-05	-0.0001	-0.0002	2
7816	0.00016	-4e-05	7e-05	0.00056	5e-05	-2e-05	-0.0001	-0.0002	2
7817	0.00016	-4e-05	7e-05	0.00056	5e-05	-2e-05	-0.0001	-0.0002	2
7818	0.00013	-2e-05	8e-05	0.00076	-1e-05	-0.0001	0.00051	2e-05	2
7819	0.00013	-2e-05	8e-05	0.00076	-1e-05	-0.0001	0.00051	2e-05	2
7820	0.00013	-2e-05	8e-05	0.00076	-1e-05	-0.0001	0.00051	2e-05	2
7821	0.00013	-2e-05	8e-05	0.00076	-1e-05	-0.0001	0.00051	2e-05	2
7822	0.00013	-2e-05	8e-05	0.00076	-1e-05	-0.0001	0.00051	2e-05	2
7823	0.00013	-2e-05	8e-05	0.00076	-1e-05	-0.0001	0.00051	2e-05	2
7824	0.00013	-2e-05	8e-05	0.00076	-1e-05	-0.0001	0.00051	2e-05	2
7825	0.00013	-2e-05	8e-05	0.00076	-1e-05	-0.0001	0.00051	2e-05	2
7826	0.00013	-2e-05	8e-05	0.00076	-1e-05	-0.0001	0.00051	2e-05	2
7827	0.00013	-2e-05	8e-05	0.00076	-1e-05	-0.0001	0.00051	2e-05	2
7828	0.00013	-2e-05	8e-05	0.00076	-1e-05	-0.0001	0.00051	2e-05	2
7829	0.00013	-2e-05	8e-05	0.00076	-1e-05	-0.0001	0.00051	2e-05	2
7830	0.00013	-2e-05	8e-05	0.00076	-1e-05	-0.0001	0.00051	2e-05	2
7831	0.00013	-2e-05	8e-05	0.00076	-1e-05	-0.0001	0.00051	2e-05	2
7832	0.00014	-2e-05	-0.00015	-0.00069	-6e-05	-0.00024	-0.00028	-6e-05	2
7833	-0.00019	-2e-05	-1e-05	-0.00019	0.0001	0.0001	3e-05	4e-05	2
7834	-0.0001	-2e-05	-7e-05	-0.00025	-2e-05	2e-05	-0.00012	-0.00012	2
7835	-0.0001	-2e-05	-7e-05	-0.00025	-2e-05	2e-05	-0.00012	-0.00012	2
7836	-0.0001	-2e-05	-7e-05	-0.00025	-2e-05	2e-05	-0.00012	-0.00012	2
7838	-0.0001	-2e-05	-7e-05	-0.00025	-2e-05	2e-05	-0.00012	-0.00012	2
7839	-0.0001	-2e-05	-7e-05	-0.00025	-2e-05	2e-05	-0.00012	-0.00012	2
7840	-0.0001	-2e-05	-7e-05	-0.00025	-2e-05	2e-05	-0.00012	-0.00012	2
7841	-0.0001	-2e-05	-7e-05	-0.00025	-2e-05	2e-05	-0.00012	-0.00012	2
7842	-0.0001	-2e-05	-7e-05	-0.00025	-2e-05	2e-05	-0.00012	-0.00012	2
7843	-0.0001	-2e-05	-7e-05	-0.00025	-2e-05	2e-05	-0.00012	-0.00012	2
7844	-0.0001	-2e-05	-7e-05	-0.00025	-2e-05	2e-05	-0.00012	-0.00012	2
7845	-0.0001	-2e-05	-7e-05	-0.00025	-2e-05	2e-05	-0.00012	-0.00012	2
7846	-0.0001	-2e-05	-7e-05	-0.00025	-2e-05	2e-05	-0.00012	-0.00012	2
7847	-0.0001	-2e-05	-7e-05	-0.00025	-2e-05	2e-05	-0.00012	-0.00012	2
7848	-0.0001	-2e-05	-7e-05	-0.00025	-2e-05	2e-05	-0.00012	-0.00012	2
7849	-0.0001	-2e-05	-7e-05	-0.00025	-2e-05	2e-05	-0.00012	-0.00012	2
7850	-0.0001	-2e-05	-7e-05	-0.00025	-2e-05	2e-05	-0.00012	-0.00012	2
7851	-0.0001	-2e-05	-7e-05	-0.00025	-2e-05	2e-05	-0.00012	-0.00012	2
7852	-0.0001	-2e-05	-7e-05	-0.00025	-2e-05	2e-05	-0.00012	-0.00012	2
7853	-0.0001	-2e-05	-7e-05	-0.00025	-2e-05	2e-05	-0.00012	-0.00012	2
7854	-0.0001	-2e-05	-7e-05	-0.00025	-2e-05	2e-05	-0.00012	-0.00012	2
7855	-5e-05	-1e-05	-8e-05	-1e-05	9e-05	-0.00016	-0.00038	-6e-05	2
7856	-5e-05	-1e-05	-8e-05	-1e-05	9e-05	-0.00016	-0.00038	-6e-05	2
7857	-3e-05	2e-05	0	-0.00027	-0.0001	-3e-05	0.00027	3e-05	2
7858	-3e-05	2e-05	0	-0.00027	-0.0001	-3e-05	0.00027	3e-05	2
7859	-3e-05	2e-05	0	-0.00027	-0.0001	-3e-05	0.00027	3e-05	2
7860	-3e-05	2e-05	0	-0.00027	-0.0001	-3e-05	0.00027	3e-05	2
7861	-3e-05	2e-05	0	-0.00027	-0.0001	-3e-05	0.00027	3e-05	2
7862	-3e-05	2e-05	0	-0.00027	-0.0001	-3e-05	0.00027	3e-05	2
7863	-3e-05	2e-05	0	-0.00027	-0.0001	-3e-05	0.00027	3e-05	2
7864	-3e-05	2e-05	0	-0.00027	-0.0001	-3e-05	0.00027	3e-05	2
7865	-3e-05	2e-05	0	-0.00027	-0.0001	-3e-05	0.00027	3e-05	2
7866	-3e-05	2e-05	0	-0.00027	-0.0001	-3e-05	0.00027	3e-05	2
7867	-3e-05	2e-05	0	-0.00027	-0.0001	-3e-05	0.00027	3e-05	2
7868	-3e-05	2e-05	0	-0.00027	-0.0001	-3e-05	0.00027	3e-05	2
7869	7e-05	5e-05	6e-05	2e-05	-0.00017	-0.00012	-0.0002	3e-05	2
7870	7e-05	5e-05	6e-05	2e-05	-0.00017	-0.00012	-0.0002	3e-05	2
7871	7e-05	5e-05	6e-05	2e-05	-0.00017	-0.00012	-0.0002	3e-05	2
7872	7e-05	5e-05	6e-05	2e-05	-0.00017	-0.00012	-0.0002	3e-05	2
7873	7e-05	5e-05	6e-05	2e-05	-0.00017	-0.00012	-0.0002	3e-05	2
7874	7e-05	5e-05	6e-05	2e-05	-0.00017	-0.00012	-0.0002	3e-05	2
7875	7e-05	5e-05	6e-05	2e-05	-0.00017	-0.00012	-0.0002	3e-05	2
7876	7e-05	5e-05	6e-05	2e-05	-0.00017	-0.00012	-0.0002	3e-05	2
7877	7e-05	5e-05	6e-05	2e-05	-0.00017	-0.00012	-0.0002	3e-05	2
7878	-0.00062	1e-05	-0.00011	-0.00015	-2e-05	5e-05	0.00062	0.00012	2
7879	-0.00062	1e-05	-0.00011	-0.00015	-2e-05	5e-05	0.00062	0.00012	2
7880	-0.00062	1e-05	-0.00011	-0.00015	-2e-05	5e-05	0.00062	0.00012	2
7881	-0.00062	1e-05	-0.00011	-0.00015	-2e-05	5e-05	0.00062	0.00012	2
7882	-0.00062	1e-05	-0.00011	-0.00015	-2e-05	5e-05	0.00062	0.00012	2
7883	-0.00062	1e-05	-0.00011	-0.00015	-2e-05	5e-05	0.00062	0.00012	2
7884	-0.00062	1e-05	-0.00011	-0.00015	-2e-05	5e-05	0.00062	0.00012	2
7885	-0.00062	1e-05	-0.00011	-0.00015	-2e-05	5e-05	0.00062	0.00012	2
7886	-0.00062	1e-05	-0.00011	-0.00015	-2e-05	5e-05	0.00062	0.00012	2
7888	-0.00062	1e-05	-0.00011	-0.00015	-2e-05	5e-05	0.00062	0.00012	2
7889	-0.00062	1e-05	-0.00011	-0.00015	-2e-05	5e-05	0.00062	0.00012	2
7890	-0.00062	1e-05	-0.00011	-0.00015	-2e-05	5e-05	0.00062	0.00012	2
7891	-0.00062	1e-05	-0.00011	-0.00015	-2e-05	5e-05	0.00062	0.00012	2
7892	-0.00062	1e-05	-0.00011	-0.00015	-2e-05	5e-05	0.00062	0.00012	2
7893	0.00035	0.0001	6e-05	-0.00026	-0.00013	2e-05	-8e-05	-7e-05	2
7894	0.00035	0.0001	6e-05	-0.00026	-0.00013	2e-05	-8e-05	-7e-05	2
7895	0.00035	0.0001	6e-05	-0.00026	-0.00013	2e-05	-8e-05	-7e-05	2
7896	0.00035	0.0001	6e-05	-0.00026	-0.00013	2e-05	-8e-05	-7e-05	2
7897	0.00035	0.0001	6e-05	-0.00026	-0.00013	2e-05	-8e-05	-7e-05	2
7898	0.00035	0.0001	6e-05	-0.00026	-0.00013	2e-05	-8e-05	-7e-05	2
7899	0.00035	0.0001	6e-05	-0.00026	-0.00013	2e-05	-8e-05	-7e-05	2
7900	0.00035	0.0001	6e-05	-0.00026	-0.00013	2e-05	-8e-05	-7e-05	2
7901	0.00035	0.0001	6e-05	-0.00026	-0.00013	2e-05	-8e-05	-7e-05	2
7902	0.00035	0.0001	6e-05	-0.00026	-0.00013	2e-05	-8e-05	-7e-05	2
7903	0.00035	0.0001	6e-05	-0.00026	-0.00013	2e-05	-8e-05	-7e-05	2
7904	0.00035	0.0001	6e-05	-0.00026	-0.00013	2e-05	-8e-05	-7e-05	2
7905	0.00035	0.0001	6e-05	-0.00026	-0.00013	2e-05	-8e-05	-7e-05	2
7906	0.00035	0.0001	6e-05	-0.00026	-0.00013	2e-05	-8e-05	-7e-05	2
7907	0.00035	0.0001	6e-05	-0.00026	-0.00013	2e-05	-8e-05	-7e-05	2
7908	0.00035	0.0001	6e-05	-0.00026	-0.00013	2e-05	-8e-05	-7e-05	2
7909	0.00035	0.0001	6e-05	-0.00026	-0.00013	2e-05	-8e-05	-7e-05	2
7910	0.00035	0.0001	6e-05	-0.00026	-0.00013	2e-05	-8e-05	-7e-05	2
7911	0.00035	0.0001	6e-05	-0.00026	-0.00013	2e-05	-8e-05	-7e-05	2
7912	0.00035	0.0001	6e-05	-0.00026	-0.00013	2e-05	-8e-05	-7e-05	2
7913	0.00035	0.0001	6e-05	-0.00026	-0.00013	2e-05	-8e-05	-7e-05	2
7914	-8e-05	-4e-05	-7e-05	-0.00024	0.00015	2e-05	-0.00034	-4e-05	2
7915	-0.00029	-5e-05	-3e-05	0.00036	0	-2e-05	0.00021	7e-05	2
7916	0	-4e-05	-0.0001	-6e-05	8e-05	8e-05	-4e-05	9e-05	2
7917	0	-4e-05	-0.0001	-6e-05	8e-05	8e-05	-4e-05	9e-05	2
7918	0	-4e-05	-0.0001	-6e-05	8e-05	8e-05	-4e-05	9e-05	2
7919	0	-4e-05	-0.0001	-6e-05	8e-05	8e-05	-4e-05	9e-05	2
7920	0	-4e-05	-0.0001	-6e-05	8e-05	8e-05	-4e-05	9e-05	2
7921	0	-4e-05	-0.0001	-6e-05	8e-05	8e-05	-4e-05	9e-05	2
7922	0	-4e-05	-0.0001	-6e-05	8e-05	8e-05	-4e-05	9e-05	2
7923	0	-4e-05	-0.0001	-6e-05	8e-05	8e-05	-4e-05	9e-05	2
7924	0	-4e-05	-0.0001	-6e-05	8e-05	8e-05	-4e-05	9e-05	2
7925	0	-4e-05	-0.0001	-6e-05	8e-05	8e-05	-4e-05	9e-05	2
7926	0	-4e-05	-0.0001	-6e-05	8e-05	8e-05	-4e-05	9e-05	2
7927	0	-4e-05	-0.0001	-6e-05	8e-05	8e-05	-4e-05	9e-05	2
7928	0	-4e-05	-0.0001	-6e-05	8e-05	8e-05	-4e-05	9e-05	2
7929	0	-4e-05	-0.0001	-6e-05	8e-05	8e-05	-4e-05	9e-05	2
7930	0	-4e-05	-0.0001	-6e-05	8e-05	8e-05	-4e-05	9e-05	2
7931	0	-4e-05	-0.0001	-6e-05	8e-05	8e-05	-4e-05	9e-05	2
7932	0	-4e-05	-0.0001	-6e-05	8e-05	8e-05	-4e-05	9e-05	2
7933	0	-4e-05	-0.0001	-6e-05	8e-05	8e-05	-4e-05	9e-05	2
7934	0	-4e-05	-0.0001	-6e-05	8e-05	8e-05	-4e-05	9e-05	2
7935	0	-4e-05	-0.0001	-6e-05	8e-05	8e-05	-4e-05	9e-05	2
7936	0	-4e-05	-0.0001	-6e-05	8e-05	8e-05	-4e-05	9e-05	2
7938	0	-4e-05	-0.0001	-6e-05	8e-05	8e-05	-4e-05	9e-05	2
7939	0	-4e-05	-0.0001	-6e-05	8e-05	8e-05	-4e-05	9e-05	2
7940	0	-4e-05	-0.0001	-6e-05	8e-05	8e-05	-4e-05	9e-05	2
7941	0	-4e-05	-0.0001	-6e-05	8e-05	8e-05	-4e-05	9e-05	2
7942	0	-4e-05	-0.0001	-6e-05	8e-05	8e-05	-4e-05	9e-05	2
7943	0	-4e-05	-0.0001	-6e-05	8e-05	8e-05	-4e-05	9e-05	2
7944	0	-4e-05	-0.0001	-6e-05	8e-05	8e-05	-4e-05	9e-05	2
7945	-2e-05	-2e-05	-2e-05	-3e-05	9e-05	6e-05	-0.00049	-0.00017	2
7946	0.00036	-2e-05	6e-05	7e-05	-4e-05	3e-05	0.00057	2e-05	2
7947	0.00036	-2e-05	6e-05	7e-05	-4e-05	3e-05	0.00057	2e-05	2
7948	0.00036	-2e-05	6e-05	7e-05	-4e-05	3e-05	0.00057	2e-05	2
7949	0.00036	-2e-05	6e-05	7e-05	-4e-05	3e-05	0.00057	2e-05	2
7950	0.00036	-2e-05	6e-05	7e-05	-4e-05	3e-05	0.00057	2e-05	2
7951	0.00036	-2e-05	6e-05	7e-05	-4e-05	3e-05	0.00057	2e-05	2
7952	5e-05	-0.0001	-0.00029	-0.00108	-8e-05	-7e-05	-0.00023	0.00011	2
7953	1e-05	-1e-05	0	0.00019	-8e-05	-0.00011	-0.00051	-0.00016	2
7954	1e-05	-1e-05	0	0.00019	-8e-05	-0.00011	-0.00051	-0.00016	2
7955	1e-05	-1e-05	0	0.00019	-8e-05	-0.00011	-0.00051	-0.00016	2
7956	1e-05	-1e-05	0	0.00019	-8e-05	-0.00011	-0.00051	-0.00016	2
7957	1e-05	-1e-05	0	0.00019	-8e-05	-0.00011	-0.00051	-0.00016	2
7958	1e-05	-1e-05	0	0.00019	-8e-05	-0.00011	-0.00051	-0.00016	2
7959	1e-05	-1e-05	0	0.00019	-8e-05	-0.00011	-0.00051	-0.00016	2
7960	1e-05	-1e-05	0	0.00019	-8e-05	-0.00011	-0.00051	-0.00016	2
7961	1e-05	-1e-05	0	0.00019	-8e-05	-0.00011	-0.00051	-0.00016	2
7962	1e-05	-1e-05	0	0.00019	-8e-05	-0.00011	-0.00051	-0.00016	2
7963	1e-05	-1e-05	0	0.00019	-8e-05	-0.00011	-0.00051	-0.00016	2
7964	1e-05	-1e-05	0	0.00019	-8e-05	-0.00011	-0.00051	-0.00016	2
7965	1e-05	-1e-05	0	0.00019	-8e-05	-0.00011	-0.00051	-0.00016	2
7966	1e-05	-1e-05	0	0.00019	-8e-05	-0.00011	-0.00051	-0.00016	2
7967	1e-05	-1e-05	0	0.00019	-8e-05	-0.00011	-0.00051	-0.00016	2
7968	1e-05	-1e-05	0	0.00019	-8e-05	-0.00011	-0.00051	-0.00016	2
7969	1e-05	-1e-05	0	0.00019	-8e-05	-0.00011	-0.00051	-0.00016	2
7970	1e-05	-1e-05	0	0.00019	-8e-05	-0.00011	-0.00051	-0.00016	2
7971	1e-05	-1e-05	0	0.00019	-8e-05	-0.00011	-0.00051	-0.00016	2
7972	1e-05	-1e-05	0	0.00019	-8e-05	-0.00011	-0.00051	-0.00016	2
7973	1e-05	-1e-05	0	0.00019	-8e-05	-0.00011	-0.00051	-0.00016	2
7974	0.00021	1e-05	0.0001	0.00028	-3e-05	7e-05	0.00029	0.00013	2
7975	-5e-05	0	-1e-05	-0.00027	5e-05	-4e-05	-0.00018	0	2
7976	-5e-05	0	-1e-05	-0.00027	5e-05	-4e-05	-0.00018	0	2
7977	-5e-05	0	-1e-05	-0.00027	5e-05	-4e-05	-0.00018	0	2
7978	-5e-05	0	-1e-05	-0.00027	5e-05	-4e-05	-0.00018	0	2
7979	-5e-05	0	-1e-05	-0.00027	5e-05	-4e-05	-0.00018	0	2
7980	-5e-05	0	-1e-05	-0.00027	5e-05	-4e-05	-0.00018	0	2
7981	-5e-05	0	-1e-05	-0.00027	5e-05	-4e-05	-0.00018	0	2
7982	-5e-05	0	-1e-05	-0.00027	5e-05	-4e-05	-0.00018	0	2
7983	-5e-05	0	-1e-05	-0.00027	5e-05	-4e-05	-0.00018	0	2
7984	-5e-05	0	-1e-05	-0.00027	5e-05	-4e-05	-0.00018	0	2
7985	-5e-05	0	-1e-05	-0.00027	5e-05	-4e-05	-0.00018	0	2
7986	-5e-05	0	-1e-05	-0.00027	5e-05	-4e-05	-0.00018	0	2
7988	-5e-05	0	-1e-05	-0.00027	5e-05	-4e-05	-0.00018	0	2
7989	-5e-05	0	-1e-05	-0.00027	5e-05	-4e-05	-0.00018	0	2
7990	-5e-05	0	-1e-05	-0.00027	5e-05	-4e-05	-0.00018	0	2
7991	-5e-05	0	-1e-05	-0.00027	5e-05	-4e-05	-0.00018	0	2
7992	-5e-05	0	-1e-05	-0.00027	5e-05	-4e-05	-0.00018	0	2
7993	-5e-05	0	-1e-05	-0.00027	5e-05	-4e-05	-0.00018	0	2
7994	-5e-05	0	-1e-05	-0.00027	5e-05	-4e-05	-0.00018	0	2
7995	-5e-05	0	-1e-05	-0.00027	5e-05	-4e-05	-0.00018	0	2
7996	-5e-05	0	-1e-05	-0.00027	5e-05	-4e-05	-0.00018	0	2
7997	0.00014	5e-05	6e-05	-8e-05	3e-05	4e-05	0.00034	6e-05	2
7998	-4e-05	-2e-05	-6e-05	-7e-05	2e-05	0.00012	-0.00017	5e-05	2
7999	-4e-05	-2e-05	-6e-05	-7e-05	2e-05	0.00012	-0.00017	5e-05	2
8000	-4e-05	-2e-05	-6e-05	-7e-05	2e-05	0.00012	-0.00017	5e-05	2
8001	-4e-05	-2e-05	-6e-05	-7e-05	2e-05	0.00012	-0.00017	5e-05	2
8002	-4e-05	-2e-05	-6e-05	-7e-05	2e-05	0.00012	-0.00017	5e-05	2
8003	-4e-05	-2e-05	-6e-05	-7e-05	2e-05	0.00012	-0.00017	5e-05	2
8004	-4e-05	-2e-05	-6e-05	-7e-05	2e-05	0.00012	-0.00017	5e-05	2
8005	-4e-05	-2e-05	-6e-05	-7e-05	2e-05	0.00012	-0.00017	5e-05	2
8006	-4e-05	-2e-05	-6e-05	-7e-05	2e-05	0.00012	-0.00017	5e-05	2
8007	-4e-05	-2e-05	-6e-05	-7e-05	2e-05	0.00012	-0.00017	5e-05	2
8008	-4e-05	-2e-05	-6e-05	-7e-05	2e-05	0.00012	-0.00017	5e-05	2
8009	-4e-05	-2e-05	-6e-05	-7e-05	2e-05	0.00012	-0.00017	5e-05	2
8010	-4e-05	-2e-05	-6e-05	-7e-05	2e-05	0.00012	-0.00017	5e-05	2
8011	-4e-05	-2e-05	-6e-05	-7e-05	2e-05	0.00012	-0.00017	5e-05	2
8012	-0.0002	-8e-05	1e-05	0.00034	6e-05	-5e-05	0.00017	-8e-05	2
8013	-5e-05	3e-05	-3e-05	-3e-05	-6e-05	1e-05	2e-05	-3e-05	2
8014	-5e-05	3e-05	-3e-05	-3e-05	-6e-05	1e-05	2e-05	-3e-05	2
8015	-5e-05	3e-05	-3e-05	-3e-05	-6e-05	1e-05	2e-05	-3e-05	2
8016	-5e-05	3e-05	-3e-05	-3e-05	-6e-05	1e-05	2e-05	-3e-05	2
8017	-5e-05	3e-05	-3e-05	-3e-05	-6e-05	1e-05	2e-05	-3e-05	2
8018	-5e-05	3e-05	-3e-05	-3e-05	-6e-05	1e-05	2e-05	-3e-05	2
8019	-5e-05	3e-05	-3e-05	-3e-05	-6e-05	1e-05	2e-05	-3e-05	2
8020	-5e-05	3e-05	-3e-05	-3e-05	-6e-05	1e-05	2e-05	-3e-05	2
8021	-5e-05	3e-05	-3e-05	-3e-05	-6e-05	1e-05	2e-05	-3e-05	2
8022	-5e-05	3e-05	-3e-05	-3e-05	-6e-05	1e-05	2e-05	-3e-05	2
8023	-5e-05	3e-05	-3e-05	-3e-05	-6e-05	1e-05	2e-05	-3e-05	2
8024	-5e-05	3e-05	-3e-05	-3e-05	-6e-05	1e-05	2e-05	-3e-05	2
8025	-5e-05	3e-05	-3e-05	-3e-05	-6e-05	1e-05	2e-05	-3e-05	2
8026	-5e-05	3e-05	-3e-05	-3e-05	-6e-05	1e-05	2e-05	-3e-05	2
8027	-5e-05	3e-05	-3e-05	-3e-05	-6e-05	1e-05	2e-05	-3e-05	2
8028	-5e-05	3e-05	-3e-05	-3e-05	-6e-05	1e-05	2e-05	-3e-05	2
8029	-5e-05	3e-05	-3e-05	-3e-05	-6e-05	1e-05	2e-05	-3e-05	2
8030	-5e-05	3e-05	-3e-05	-3e-05	-6e-05	1e-05	2e-05	-3e-05	2
8031	-5e-05	3e-05	-3e-05	-3e-05	-6e-05	1e-05	2e-05	-3e-05	2
8032	-5e-05	3e-05	-3e-05	-3e-05	-6e-05	1e-05	2e-05	-3e-05	2
8033	-5e-05	3e-05	-3e-05	-3e-05	-6e-05	1e-05	2e-05	-3e-05	2
8034	-0.00013	0	3e-05	0.00028	4e-05	0.00017	0.00063	4e-05	2
8035	-0.00013	-7e-05	-0.0001	-0.00078	-0.00017	-8e-05	0.00052	0.00022	2
8036	-0.00013	-7e-05	-0.0001	-0.00078	-0.00017	-8e-05	0.00052	0.00022	2
8038	-0.00013	-7e-05	-0.0001	-0.00078	-0.00017	-8e-05	0.00052	0.00022	2
8039	-0.00013	-7e-05	-0.0001	-0.00078	-0.00017	-8e-05	0.00052	0.00022	2
8040	-0.00013	-7e-05	-0.0001	-0.00078	-0.00017	-8e-05	0.00052	0.00022	2
8041	-0.00013	-7e-05	-0.0001	-0.00078	-0.00017	-8e-05	0.00052	0.00022	2
8042	-0.00013	-7e-05	-0.0001	-0.00078	-0.00017	-8e-05	0.00052	0.00022	2
8043	-0.00013	-7e-05	-0.0001	-0.00078	-0.00017	-8e-05	0.00052	0.00022	2
8044	-0.00013	-7e-05	-0.0001	-0.00078	-0.00017	-8e-05	0.00052	0.00022	2
8045	-0.00013	-7e-05	-0.0001	-0.00078	-0.00017	-8e-05	0.00052	0.00022	2
8046	-0.00013	-7e-05	-0.0001	-0.00078	-0.00017	-8e-05	0.00052	0.00022	2
8047	-0.00013	-7e-05	-0.0001	-0.00078	-0.00017	-8e-05	0.00052	0.00022	2
8048	-0.00013	-7e-05	-0.0001	-0.00078	-0.00017	-8e-05	0.00052	0.00022	2
8049	-0.00013	-7e-05	-0.0001	-0.00078	-0.00017	-8e-05	0.00052	0.00022	2
8050	-0.00013	-7e-05	-0.0001	-0.00078	-0.00017	-8e-05	0.00052	0.00022	2
8051	-0.00013	-7e-05	-0.0001	-0.00078	-0.00017	-8e-05	0.00052	0.00022	2
8052	-0.00013	-7e-05	-0.0001	-0.00078	-0.00017	-8e-05	0.00052	0.00022	2
8053	-0.00013	-7e-05	-0.0001	-0.00078	-0.00017	-8e-05	0.00052	0.00022	2
8054	-0.00013	-7e-05	-0.0001	-0.00078	-0.00017	-8e-05	0.00052	0.00022	2
8055	-0.00013	-7e-05	-0.0001	-0.00078	-0.00017	-8e-05	0.00052	0.00022	2
8056	-0.00013	-7e-05	-0.0001	-0.00078	-0.00017	-8e-05	0.00052	0.00022	2
8057	0.00046	0.00014	3e-05	0.00015	-2e-05	-0.00012	-0.00043	-0.00023	2
8058	5e-05	-1e-05	4e-05	0.00027	0.00012	6e-05	-0.00025	-5e-05	2
8059	5e-05	-1e-05	4e-05	0.00027	0.00012	6e-05	-0.00025	-5e-05	2
8060	5e-05	-1e-05	4e-05	0.00027	0.00012	6e-05	-0.00025	-5e-05	2
8061	5e-05	-1e-05	4e-05	0.00027	0.00012	6e-05	-0.00025	-5e-05	2
8062	5e-05	-1e-05	4e-05	0.00027	0.00012	6e-05	-0.00025	-5e-05	2
8063	5e-05	-1e-05	4e-05	0.00027	0.00012	6e-05	-0.00025	-5e-05	2
8064	5e-05	-1e-05	4e-05	0.00027	0.00012	6e-05	-0.00025	-5e-05	2
8065	5e-05	-1e-05	4e-05	0.00027	0.00012	6e-05	-0.00025	-5e-05	2
8066	5e-05	-1e-05	4e-05	0.00027	0.00012	6e-05	-0.00025	-5e-05	2
8067	5e-05	-1e-05	4e-05	0.00027	0.00012	6e-05	-0.00025	-5e-05	2
8068	5e-05	-1e-05	4e-05	0.00027	0.00012	6e-05	-0.00025	-5e-05	2
8069	5e-05	-1e-05	4e-05	0.00027	0.00012	6e-05	-0.00025	-5e-05	2
8070	5e-05	-1e-05	4e-05	0.00027	0.00012	6e-05	-0.00025	-5e-05	2
8071	5e-05	-1e-05	4e-05	0.00027	0.00012	6e-05	-0.00025	-5e-05	2
8072	-0.00016	-0.0001	-9e-05	-0.00098	-0.0001	7e-05	-2e-05	-0.0001	2
8073	-3e-05	-1e-05	-1e-05	8e-05	3e-05	1e-05	-0.00011	-0.00021	2
8074	-3e-05	-1e-05	-1e-05	8e-05	3e-05	1e-05	-0.00011	-0.00021	2
8075	-3e-05	-1e-05	-1e-05	8e-05	3e-05	1e-05	-0.00011	-0.00021	2
8076	-3e-05	-1e-05	-1e-05	8e-05	3e-05	1e-05	-0.00011	-0.00021	2
8077	-3e-05	-1e-05	-1e-05	8e-05	3e-05	1e-05	-0.00011	-0.00021	2
8078	-3e-05	-1e-05	-1e-05	8e-05	3e-05	1e-05	-0.00011	-0.00021	2
8079	-3e-05	-1e-05	-1e-05	8e-05	3e-05	1e-05	-0.00011	-0.00021	2
8080	-3e-05	-1e-05	-1e-05	8e-05	3e-05	1e-05	-0.00011	-0.00021	2
8081	-3e-05	-1e-05	-1e-05	8e-05	3e-05	1e-05	-0.00011	-0.00021	2
8082	-3e-05	-1e-05	-1e-05	8e-05	3e-05	1e-05	-0.00011	-0.00021	2
8083	-3e-05	-1e-05	-1e-05	8e-05	3e-05	1e-05	-0.00011	-0.00021	2
8084	-3e-05	-1e-05	-1e-05	8e-05	3e-05	1e-05	-0.00011	-0.00021	2
8085	-3e-05	-1e-05	-1e-05	8e-05	3e-05	1e-05	-0.00011	-0.00021	2
8086	-3e-05	-1e-05	-1e-05	8e-05	3e-05	1e-05	-0.00011	-0.00021	2
8088	-3e-05	-1e-05	-1e-05	8e-05	3e-05	1e-05	-0.00011	-0.00021	2
8089	-3e-05	-1e-05	-1e-05	8e-05	3e-05	1e-05	-0.00011	-0.00021	2
8090	-3e-05	-1e-05	-1e-05	8e-05	3e-05	1e-05	-0.00011	-0.00021	2
8091	-3e-05	-1e-05	-1e-05	8e-05	3e-05	1e-05	-0.00011	-0.00021	2
8092	-3e-05	-1e-05	-1e-05	8e-05	3e-05	1e-05	-0.00011	-0.00021	2
8093	-3e-05	-1e-05	-1e-05	8e-05	3e-05	1e-05	-0.00011	-0.00021	2
8094	8e-05	2e-05	4e-05	-0.00014	3e-05	3e-05	0.00033	0	2
8095	0.00013	3e-05	0.00013	0.00034	1e-05	5e-05	-0.00013	6e-05	2
8096	0.00013	3e-05	0.00013	0.00034	1e-05	5e-05	-0.00013	6e-05	2
8097	0.00013	3e-05	0.00013	0.00034	1e-05	5e-05	-0.00013	6e-05	2
8098	0.00013	3e-05	0.00013	0.00034	1e-05	5e-05	-0.00013	6e-05	2
8099	0.00013	3e-05	0.00013	0.00034	1e-05	5e-05	-0.00013	6e-05	2
8100	0.00013	3e-05	0.00013	0.00034	1e-05	5e-05	-0.00013	6e-05	2
8101	0.00013	3e-05	0.00013	0.00034	1e-05	5e-05	-0.00013	6e-05	2
8102	0.00013	3e-05	0.00013	0.00034	1e-05	5e-05	-0.00013	6e-05	2
8103	0.00013	3e-05	0.00013	0.00034	1e-05	5e-05	-0.00013	6e-05	2
8104	0.00013	3e-05	0.00013	0.00034	1e-05	5e-05	-0.00013	6e-05	2
8105	0.00013	3e-05	0.00013	0.00034	1e-05	5e-05	-0.00013	6e-05	2
8106	0.00013	3e-05	0.00013	0.00034	1e-05	5e-05	-0.00013	6e-05	2
8107	0.00013	3e-05	0.00013	0.00034	1e-05	5e-05	-0.00013	6e-05	2
8108	0.00013	3e-05	0.00013	0.00034	1e-05	5e-05	-0.00013	6e-05	2
8109	0.00013	3e-05	0.00013	0.00034	1e-05	5e-05	-0.00013	6e-05	2
8110	0.00013	3e-05	0.00013	0.00034	1e-05	5e-05	-0.00013	6e-05	2
8111	0.00013	3e-05	0.00013	0.00034	1e-05	5e-05	-0.00013	6e-05	2
8112	0.00013	3e-05	0.00013	0.00034	1e-05	5e-05	-0.00013	6e-05	2
8113	0.00013	3e-05	0.00013	0.00034	1e-05	5e-05	-0.00013	6e-05	2
8114	0.00013	3e-05	0.00013	0.00034	1e-05	5e-05	-0.00013	6e-05	2
8115	0.00013	3e-05	0.00013	0.00034	1e-05	5e-05	-0.00013	6e-05	2
8116	0.00013	3e-05	0.00013	0.00034	1e-05	5e-05	-0.00013	6e-05	2
8117	0.00039	3e-05	4e-05	0.00019	-3e-05	6e-05	8e-05	0.00012	2
8118	-1e-05	-5e-05	-0.00011	-0.00029	1e-05	3e-05	0.00013	7e-05	2
8119	-1e-05	-5e-05	-0.00011	-0.00029	1e-05	3e-05	0.00013	7e-05	2
8120	-1e-05	-5e-05	-0.00011	-0.00029	1e-05	3e-05	0.00013	7e-05	2
8121	-1e-05	-5e-05	-0.00011	-0.00029	1e-05	3e-05	0.00013	7e-05	2
8122	-1e-05	-5e-05	-0.00011	-0.00029	1e-05	3e-05	0.00013	7e-05	2
8123	-1e-05	-5e-05	-0.00011	-0.00029	1e-05	3e-05	0.00013	7e-05	2
8124	-1e-05	-5e-05	-0.00011	-0.00029	1e-05	3e-05	0.00013	7e-05	2
8125	-1e-05	-5e-05	-0.00011	-0.00029	1e-05	3e-05	0.00013	7e-05	2
8126	-1e-05	-5e-05	-0.00011	-0.00029	1e-05	3e-05	0.00013	7e-05	2
8127	-1e-05	-5e-05	-0.00011	-0.00029	1e-05	3e-05	0.00013	7e-05	2
8128	-1e-05	-5e-05	-0.00011	-0.00029	1e-05	3e-05	0.00013	7e-05	2
8129	-1e-05	-5e-05	-0.00011	-0.00029	1e-05	3e-05	0.00013	7e-05	2
8130	-1e-05	-5e-05	-0.00011	-0.00029	1e-05	3e-05	0.00013	7e-05	2
8131	-1e-05	-5e-05	-0.00011	-0.00029	1e-05	3e-05	0.00013	7e-05	2
8132	-0.0002	0	5e-05	3e-05	-4e-05	-5e-05	-0.00063	-0.00015	2
8133	7e-05	-1e-05	5e-05	0.00023	-9e-05	6e-05	-0.00059	-0.0001	2
8134	7e-05	-1e-05	5e-05	0.00023	-9e-05	6e-05	-0.00059	-0.0001	2
8135	7e-05	-1e-05	5e-05	0.00023	-9e-05	6e-05	-0.00059	-0.0001	2
8136	7e-05	-1e-05	5e-05	0.00023	-9e-05	6e-05	-0.00059	-0.0001	2
8138	7e-05	-1e-05	5e-05	0.00023	-9e-05	6e-05	-0.00059	-0.0001	2
8139	7e-05	-1e-05	5e-05	0.00023	-9e-05	6e-05	-0.00059	-0.0001	2
8140	7e-05	-1e-05	5e-05	0.00023	-9e-05	6e-05	-0.00059	-0.0001	2
8141	7e-05	-1e-05	5e-05	0.00023	-9e-05	6e-05	-0.00059	-0.0001	2
8142	7e-05	-1e-05	5e-05	0.00023	-9e-05	6e-05	-0.00059	-0.0001	2
8143	7e-05	-1e-05	5e-05	0.00023	-9e-05	6e-05	-0.00059	-0.0001	2
8144	7e-05	-1e-05	5e-05	0.00023	-9e-05	6e-05	-0.00059	-0.0001	2
8145	7e-05	-1e-05	5e-05	0.00023	-9e-05	6e-05	-0.00059	-0.0001	2
8146	7e-05	-1e-05	5e-05	0.00023	-9e-05	6e-05	-0.00059	-0.0001	2
8147	7e-05	-1e-05	5e-05	0.00023	-9e-05	6e-05	-0.00059	-0.0001	2
8148	7e-05	-1e-05	5e-05	0.00023	-9e-05	6e-05	-0.00059	-0.0001	2
8149	7e-05	-1e-05	5e-05	0.00023	-9e-05	6e-05	-0.00059	-0.0001	2
8150	7e-05	-1e-05	5e-05	0.00023	-9e-05	6e-05	-0.00059	-0.0001	2
8151	7e-05	-1e-05	5e-05	0.00023	-9e-05	6e-05	-0.00059	-0.0001	2
8152	7e-05	-1e-05	5e-05	0.00023	-9e-05	6e-05	-0.00059	-0.0001	2
8153	7e-05	-1e-05	5e-05	0.00023	-9e-05	6e-05	-0.00059	-0.0001	2
8154	0.00032	7e-05	-4e-05	-0.00033	0.00019	8e-05	3e-05	8e-05	2
8155	4e-05	-2e-05	-4e-05	-0.00056	-0.00011	-5e-05	3e-05	8e-05	2
8156	4e-05	-2e-05	-4e-05	-0.00056	-0.00011	-5e-05	3e-05	8e-05	2
8157	4e-05	-2e-05	-4e-05	-0.00056	-0.00011	-5e-05	3e-05	8e-05	2
8158	4e-05	-2e-05	-4e-05	-0.00056	-0.00011	-5e-05	3e-05	8e-05	2
8159	4e-05	-2e-05	-4e-05	-0.00056	-0.00011	-5e-05	3e-05	8e-05	2
8160	4e-05	-2e-05	-4e-05	-0.00056	-0.00011	-5e-05	3e-05	8e-05	2
8161	4e-05	-2e-05	-4e-05	-0.00056	-0.00011	-5e-05	3e-05	8e-05	2
8162	4e-05	-2e-05	-4e-05	-0.00056	-0.00011	-5e-05	3e-05	8e-05	2
8163	4e-05	-2e-05	-4e-05	-0.00056	-0.00011	-5e-05	3e-05	8e-05	2
8164	4e-05	-2e-05	-4e-05	-0.00056	-0.00011	-5e-05	3e-05	8e-05	2
8165	4e-05	-2e-05	-4e-05	-0.00056	-0.00011	-5e-05	3e-05	8e-05	2
8166	4e-05	-2e-05	-4e-05	-0.00056	-0.00011	-5e-05	3e-05	8e-05	2
8167	4e-05	-2e-05	-4e-05	-0.00056	-0.00011	-5e-05	3e-05	8e-05	2
8168	4e-05	-2e-05	-4e-05	-0.00056	-0.00011	-5e-05	3e-05	8e-05	2
8169	4e-05	-2e-05	-4e-05	-0.00056	-0.00011	-5e-05	3e-05	8e-05	2
8170	4e-05	-2e-05	-4e-05	-0.00056	-0.00011	-5e-05	3e-05	8e-05	2
8171	4e-05	-2e-05	-4e-05	-0.00056	-0.00011	-5e-05	3e-05	8e-05	2
8172	4e-05	-2e-05	-4e-05	-0.00056	-0.00011	-5e-05	3e-05	8e-05	2
8173	4e-05	-2e-05	-4e-05	-0.00056	-0.00011	-5e-05	3e-05	8e-05	2
8174	4e-05	-2e-05	-4e-05	-0.00056	-0.00011	-5e-05	3e-05	8e-05	2
8175	4e-05	-2e-05	-4e-05	-0.00056	-0.00011	-5e-05	3e-05	8e-05	2
8176	4e-05	-2e-05	-4e-05	-0.00056	-0.00011	-5e-05	3e-05	8e-05	2
8177	-0.0005	-3e-05	-1e-05	0.00016	-0.00012	0.00011	-1e-05	-0.00011	2
8178	-8e-05	1e-05	3e-05	0.00041	-1e-05	1e-05	0.00016	0.00025	2
8179	-8e-05	1e-05	3e-05	0.00041	-1e-05	1e-05	0.00016	0.00025	2
8180	-8e-05	1e-05	3e-05	0.00041	-1e-05	1e-05	0.00016	0.00025	2
8181	-8e-05	1e-05	3e-05	0.00041	-1e-05	1e-05	0.00016	0.00025	2
8182	-8e-05	1e-05	3e-05	0.00041	-1e-05	1e-05	0.00016	0.00025	2
8183	-8e-05	1e-05	3e-05	0.00041	-1e-05	1e-05	0.00016	0.00025	2
8184	-8e-05	1e-05	3e-05	0.00041	-1e-05	1e-05	0.00016	0.00025	2
8185	-8e-05	1e-05	3e-05	0.00041	-1e-05	1e-05	0.00016	0.00025	2
8186	-8e-05	1e-05	3e-05	0.00041	-1e-05	1e-05	0.00016	0.00025	2
8188	-8e-05	1e-05	3e-05	0.00041	-1e-05	1e-05	0.00016	0.00025	2
8189	-8e-05	1e-05	3e-05	0.00041	-1e-05	1e-05	0.00016	0.00025	2
8190	-8e-05	1e-05	3e-05	0.00041	-1e-05	1e-05	0.00016	0.00025	2
8191	-8e-05	1e-05	3e-05	0.00041	-1e-05	1e-05	0.00016	0.00025	2
8192	-1e-05	-1e-05	2e-05	9e-05	1e-05	-0.00015	-0.00098	-0.00011	2
8193	-0.00023	-6e-05	-0.0001	1e-05	0	-0.0003	1e-05	1e-05	2
8194	-0.00023	-6e-05	-0.0001	1e-05	0	-0.0003	1e-05	1e-05	2
8195	-0.00023	-6e-05	-0.0001	1e-05	0	-0.0003	1e-05	1e-05	2
8196	-0.00023	-6e-05	-0.0001	1e-05	0	-0.0003	1e-05	1e-05	2
8197	-0.00023	-6e-05	-0.0001	1e-05	0	-0.0003	1e-05	1e-05	2
8198	-0.00023	-6e-05	-0.0001	1e-05	0	-0.0003	1e-05	1e-05	2
8199	-0.00023	-6e-05	-0.0001	1e-05	0	-0.0003	1e-05	1e-05	2
8201	-0.00023	-6e-05	-0.0001	1e-05	0	-0.0003	1e-05	1e-05	2
8202	-0.00023	-6e-05	-0.0001	1e-05	0	-0.0003	1e-05	1e-05	2
8203	-0.00023	-6e-05	-0.0001	1e-05	0	-0.0003	1e-05	1e-05	2
8204	-0.00023	-6e-05	-0.0001	1e-05	0	-0.0003	1e-05	1e-05	2
8205	-0.00023	-6e-05	-0.0001	1e-05	0	-0.0003	1e-05	1e-05	2
8206	-0.00023	-6e-05	-0.0001	1e-05	0	-0.0003	1e-05	1e-05	2
8207	-0.00023	-6e-05	-0.0001	1e-05	0	-0.0003	1e-05	1e-05	2
8208	-0.00023	-6e-05	-0.0001	1e-05	0	-0.0003	1e-05	1e-05	2
8209	-0.00023	-6e-05	-0.0001	1e-05	0	-0.0003	1e-05	1e-05	2
8210	-0.00023	-6e-05	-0.0001	1e-05	0	-0.0003	1e-05	1e-05	2
8211	-0.00023	-6e-05	-0.0001	1e-05	0	-0.0003	1e-05	1e-05	2
8212	-0.00023	-6e-05	-0.0001	1e-05	0	-0.0003	1e-05	1e-05	2
8213	-0.00023	-6e-05	-0.0001	1e-05	0	-0.0003	1e-05	1e-05	2
8214	0.00012	-1e-05	-2e-05	9e-05	-1e-05	-9e-05	2e-05	2e-05	2
8215	0.0001	4e-05	0	7e-05	0	-6e-05	-7e-05	-0.00015	2
8216	0.0001	4e-05	0	7e-05	0	-6e-05	-7e-05	-0.00015	2
8217	0.0001	4e-05	0	7e-05	0	-6e-05	-7e-05	-0.00015	2
8218	0.0001	4e-05	0	7e-05	0	-6e-05	-7e-05	-0.00015	2
8219	0.0001	4e-05	0	7e-05	0	-6e-05	-7e-05	-0.00015	2
8220	0.0001	4e-05	0	7e-05	0	-6e-05	-7e-05	-0.00015	2
8221	0.0001	4e-05	0	7e-05	0	-6e-05	-7e-05	-0.00015	2
8222	0.0001	4e-05	0	7e-05	0	-6e-05	-7e-05	-0.00015	2
8223	0.0001	4e-05	0	7e-05	0	-6e-05	-7e-05	-0.00015	2
8224	0.0001	4e-05	0	7e-05	0	-6e-05	-7e-05	-0.00015	2
8225	0.0001	4e-05	0	7e-05	0	-6e-05	-7e-05	-0.00015	2
8226	0.0001	4e-05	0	7e-05	0	-6e-05	-7e-05	-0.00015	2
8227	0.0001	4e-05	0	7e-05	0	-6e-05	-7e-05	-0.00015	2
8228	0.0001	4e-05	0	7e-05	0	-6e-05	-7e-05	-0.00015	2
8229	0.0001	4e-05	0	7e-05	0	-6e-05	-7e-05	-0.00015	2
8230	0.0001	4e-05	0	7e-05	0	-6e-05	-7e-05	-0.00015	2
8231	0.0001	4e-05	0	7e-05	0	-6e-05	-7e-05	-0.00015	2
8232	0.0001	4e-05	0	7e-05	0	-6e-05	-7e-05	-0.00015	2
8233	0.0001	4e-05	0	7e-05	0	-6e-05	-7e-05	-0.00015	2
8234	0.0001	4e-05	0	7e-05	0	-6e-05	-7e-05	-0.00015	2
8235	0.0001	4e-05	0	7e-05	0	-6e-05	-7e-05	-0.00015	2
8236	0.0001	4e-05	0	7e-05	0	-6e-05	-7e-05	-0.00015	2
8238	-0.0001	-1e-05	0	0.00021	2e-05	4e-05	0.00011	2e-05	2
8239	-0.0001	-1e-05	0	0.00021	2e-05	4e-05	0.00011	2e-05	2
8240	-0.0001	-1e-05	0	0.00021	2e-05	4e-05	0.00011	2e-05	2
8241	-0.0001	-1e-05	0	0.00021	2e-05	4e-05	0.00011	2e-05	2
8242	-0.0001	-1e-05	0	0.00021	2e-05	4e-05	0.00011	2e-05	2
8243	-0.0001	-1e-05	0	0.00021	2e-05	4e-05	0.00011	2e-05	2
8244	-0.0001	-1e-05	0	0.00021	2e-05	4e-05	0.00011	2e-05	2
8245	-0.0001	-1e-05	0	0.00021	2e-05	4e-05	0.00011	2e-05	2
8246	-0.0001	-1e-05	0	0.00021	2e-05	4e-05	0.00011	2e-05	2
8247	-0.0001	-1e-05	0	0.00021	2e-05	4e-05	0.00011	2e-05	2
8248	-0.0001	-1e-05	0	0.00021	2e-05	4e-05	0.00011	2e-05	2
8249	-0.0001	-1e-05	0	0.00021	2e-05	4e-05	0.00011	2e-05	2
8250	-0.0001	-1e-05	0	0.00021	2e-05	4e-05	0.00011	2e-05	2
8251	-0.0001	-1e-05	0	0.00021	2e-05	4e-05	0.00011	2e-05	2
8252	-0.00027	-3e-05	-0.00013	-0.00079	-0.00014	0.00011	8e-05	6e-05	2
8253	-5e-05	-3e-05	2e-05	-2e-05	2e-05	1e-05	-0.00063	-0.00014	2
8254	-5e-05	-3e-05	2e-05	-2e-05	2e-05	1e-05	-0.00063	-0.00014	2
8255	-5e-05	-3e-05	2e-05	-2e-05	2e-05	1e-05	-0.00063	-0.00014	2
8256	-5e-05	-3e-05	2e-05	-2e-05	2e-05	1e-05	-0.00063	-0.00014	2
8257	-5e-05	-3e-05	2e-05	-2e-05	2e-05	1e-05	-0.00063	-0.00014	2
8258	-5e-05	-3e-05	2e-05	-2e-05	2e-05	1e-05	-0.00063	-0.00014	2
8259	-5e-05	-3e-05	2e-05	-2e-05	2e-05	1e-05	-0.00063	-0.00014	2
8260	-5e-05	-3e-05	2e-05	-2e-05	2e-05	1e-05	-0.00063	-0.00014	2
8261	-5e-05	-3e-05	2e-05	-2e-05	2e-05	1e-05	-0.00063	-0.00014	2
8262	-5e-05	-3e-05	2e-05	-2e-05	2e-05	1e-05	-0.00063	-0.00014	2
8263	-5e-05	-3e-05	2e-05	-2e-05	2e-05	1e-05	-0.00063	-0.00014	2
8264	-5e-05	-3e-05	2e-05	-2e-05	2e-05	1e-05	-0.00063	-0.00014	2
8265	-5e-05	-3e-05	2e-05	-2e-05	2e-05	1e-05	-0.00063	-0.00014	2
8266	-5e-05	-3e-05	2e-05	-2e-05	2e-05	1e-05	-0.00063	-0.00014	2
8267	-5e-05	-3e-05	2e-05	-2e-05	2e-05	1e-05	-0.00063	-0.00014	2
8268	-5e-05	-3e-05	2e-05	-2e-05	2e-05	1e-05	-0.00063	-0.00014	2
8269	-5e-05	-3e-05	2e-05	-2e-05	2e-05	1e-05	-0.00063	-0.00014	2
8270	-5e-05	-3e-05	2e-05	-2e-05	2e-05	1e-05	-0.00063	-0.00014	2
8271	-5e-05	-3e-05	2e-05	-2e-05	2e-05	1e-05	-0.00063	-0.00014	2
8272	-5e-05	-3e-05	2e-05	-2e-05	2e-05	1e-05	-0.00063	-0.00014	2
8273	-5e-05	-3e-05	2e-05	-2e-05	2e-05	1e-05	-0.00063	-0.00014	2
8274	-0.00021	0	6e-05	0.0002	-5e-05	3e-05	0.00036	0.00023	2
8275	1e-05	4e-05	6e-05	0.00013	2e-05	0	0.00048	-1e-05	2
8276	1e-05	4e-05	6e-05	0.00013	2e-05	0	0.00048	-1e-05	2
8277	1e-05	4e-05	6e-05	0.00013	2e-05	0	0.00048	-1e-05	2
8278	1e-05	4e-05	6e-05	0.00013	2e-05	0	0.00048	-1e-05	2
8279	1e-05	4e-05	6e-05	0.00013	2e-05	0	0.00048	-1e-05	2
8280	1e-05	4e-05	6e-05	0.00013	2e-05	0	0.00048	-1e-05	2
8281	1e-05	4e-05	6e-05	0.00013	2e-05	0	0.00048	-1e-05	2
8282	1e-05	4e-05	6e-05	0.00013	2e-05	0	0.00048	-1e-05	2
8283	1e-05	4e-05	6e-05	0.00013	2e-05	0	0.00048	-1e-05	2
8284	1e-05	4e-05	6e-05	0.00013	2e-05	0	0.00048	-1e-05	2
8285	1e-05	4e-05	6e-05	0.00013	2e-05	0	0.00048	-1e-05	2
8286	1e-05	4e-05	6e-05	0.00013	2e-05	0	0.00048	-1e-05	2
8288	1e-05	4e-05	6e-05	0.00013	2e-05	0	0.00048	-1e-05	2
8289	1e-05	4e-05	6e-05	0.00013	2e-05	0	0.00048	-1e-05	2
8290	1e-05	4e-05	6e-05	0.00013	2e-05	0	0.00048	-1e-05	2
8291	1e-05	4e-05	6e-05	0.00013	2e-05	0	0.00048	-1e-05	2
8292	1e-05	4e-05	6e-05	0.00013	2e-05	0	0.00048	-1e-05	2
8293	1e-05	4e-05	6e-05	0.00013	2e-05	0	0.00048	-1e-05	2
8294	1e-05	4e-05	6e-05	0.00013	2e-05	0	0.00048	-1e-05	2
8295	1e-05	4e-05	6e-05	0.00013	2e-05	0	0.00048	-1e-05	2
8296	1e-05	4e-05	6e-05	0.00013	2e-05	0	0.00048	-1e-05	2
8297	2e-05	0	7e-05	0.00026	0.00014	8e-05	-0.00012	-3e-05	2
8298	-0.00014	3e-05	-0.00016	-0.00038	-0.0001	-3e-05	0.00018	-6e-05	2
8299	-0.00014	3e-05	-0.00016	-0.00038	-0.0001	-3e-05	0.00018	-6e-05	2
8300	-0.00014	3e-05	-0.00016	-0.00038	-0.0001	-3e-05	0.00018	-6e-05	2
8301	-0.00014	3e-05	-0.00016	-0.00038	-0.0001	-3e-05	0.00018	-6e-05	2
8302	-0.00014	3e-05	-0.00016	-0.00038	-0.0001	-3e-05	0.00018	-6e-05	2
8303	-0.00014	3e-05	-0.00016	-0.00038	-0.0001	-3e-05	0.00018	-6e-05	2
8304	-0.00014	3e-05	-0.00016	-0.00038	-0.0001	-3e-05	0.00018	-6e-05	2
8305	-0.00014	3e-05	-0.00016	-0.00038	-0.0001	-3e-05	0.00018	-6e-05	2
8306	-0.00014	3e-05	-0.00016	-0.00038	-0.0001	-3e-05	0.00018	-6e-05	2
8307	-0.00014	3e-05	-0.00016	-0.00038	-0.0001	-3e-05	0.00018	-6e-05	2
8308	-0.00014	3e-05	-0.00016	-0.00038	-0.0001	-3e-05	0.00018	-6e-05	2
8309	-0.00014	3e-05	-0.00016	-0.00038	-0.0001	-3e-05	0.00018	-6e-05	2
8310	-0.00014	3e-05	-0.00016	-0.00038	-0.0001	-3e-05	0.00018	-6e-05	2
8311	-0.00014	3e-05	-0.00016	-0.00038	-0.0001	-3e-05	0.00018	-6e-05	2
8312	9e-05	0	1e-05	0.0004	5e-05	6e-05	-7e-05	6e-05	2
8313	0.00031	-6e-05	-2e-05	-1e-05	3e-05	0.00013	-6e-05	0.00016	2
8314	0.00031	-6e-05	-2e-05	-1e-05	3e-05	0.00013	-6e-05	0.00016	2
8315	0.00031	-6e-05	-2e-05	-1e-05	3e-05	0.00013	-6e-05	0.00016	2
8316	0.00031	-6e-05	-2e-05	-1e-05	3e-05	0.00013	-6e-05	0.00016	2
8317	0.00031	-6e-05	-2e-05	-1e-05	3e-05	0.00013	-6e-05	0.00016	2
8318	0.00031	-6e-05	-2e-05	-1e-05	3e-05	0.00013	-6e-05	0.00016	2
8319	0.00031	-6e-05	-2e-05	-1e-05	3e-05	0.00013	-6e-05	0.00016	2
8320	0.00031	-6e-05	-2e-05	-1e-05	3e-05	0.00013	-6e-05	0.00016	2
8321	0.00031	-6e-05	-2e-05	-1e-05	3e-05	0.00013	-6e-05	0.00016	2
8322	0.00031	-6e-05	-2e-05	-1e-05	3e-05	0.00013	-6e-05	0.00016	2
8323	0.00031	-6e-05	-2e-05	-1e-05	3e-05	0.00013	-6e-05	0.00016	2
8324	0.00031	-6e-05	-2e-05	-1e-05	3e-05	0.00013	-6e-05	0.00016	2
8325	0.00031	-6e-05	-2e-05	-1e-05	3e-05	0.00013	-6e-05	0.00016	2
8326	0.00031	-6e-05	-2e-05	-1e-05	3e-05	0.00013	-6e-05	0.00016	2
8327	0.00031	-6e-05	-2e-05	-1e-05	3e-05	0.00013	-6e-05	0.00016	2
8328	0.00031	-6e-05	-2e-05	-1e-05	3e-05	0.00013	-6e-05	0.00016	2
8329	0.00031	-6e-05	-2e-05	-1e-05	3e-05	0.00013	-6e-05	0.00016	2
8330	0.00031	-6e-05	-2e-05	-1e-05	3e-05	0.00013	-6e-05	0.00016	2
8331	0.00031	-6e-05	-2e-05	-1e-05	3e-05	0.00013	-6e-05	0.00016	2
8332	0.00031	-6e-05	-2e-05	-1e-05	3e-05	0.00013	-6e-05	0.00016	2
8333	0.00031	-6e-05	-2e-05	-1e-05	3e-05	0.00013	-6e-05	0.00016	2
8334	5e-05	0	-3e-05	-7e-05	-3e-05	2e-05	-0.00036	0.00023	2
8335	-0.00011	1e-05	-6e-05	-0.00021	0.0001	0.00059	-0.0004	-0.00036	2
8336	-0.00011	1e-05	-6e-05	-0.00021	0.0001	0.00059	-0.0004	-0.00036	2
8338	-0.00011	1e-05	-6e-05	-0.00021	0.0001	0.00059	-0.0004	-0.00036	2
8339	-0.00011	1e-05	-6e-05	-0.00021	0.0001	0.00059	-0.0004	-0.00036	2
8340	-0.00011	1e-05	-6e-05	-0.00021	0.0001	0.00059	-0.0004	-0.00036	2
8341	-0.00011	1e-05	-6e-05	-0.00021	0.0001	0.00059	-0.0004	-0.00036	2
8342	-0.00011	1e-05	-6e-05	-0.00021	0.0001	0.00059	-0.0004	-0.00036	2
8343	-0.00011	1e-05	-6e-05	-0.00021	0.0001	0.00059	-0.0004	-0.00036	2
8344	-0.00011	1e-05	-6e-05	-0.00021	0.0001	0.00059	-0.0004	-0.00036	2
8345	-0.00011	1e-05	-6e-05	-0.00021	0.0001	0.00059	-0.0004	-0.00036	2
8346	-0.00011	1e-05	-6e-05	-0.00021	0.0001	0.00059	-0.0004	-0.00036	2
8347	-0.00011	1e-05	-6e-05	-0.00021	0.0001	0.00059	-0.0004	-0.00036	2
8348	-0.00011	1e-05	-6e-05	-0.00021	0.0001	0.00059	-0.0004	-0.00036	2
8349	-0.00011	1e-05	-6e-05	-0.00021	0.0001	0.00059	-0.0004	-0.00036	2
8350	-0.00011	1e-05	-6e-05	-0.00021	0.0001	0.00059	-0.0004	-0.00036	2
8351	-0.00011	1e-05	-6e-05	-0.00021	0.0001	0.00059	-0.0004	-0.00036	2
8352	-0.00011	1e-05	-6e-05	-0.00021	0.0001	0.00059	-0.0004	-0.00036	2
8353	-0.00011	1e-05	-6e-05	-0.00021	0.0001	0.00059	-0.0004	-0.00036	2
8354	-0.00011	1e-05	-6e-05	-0.00021	0.0001	0.00059	-0.0004	-0.00036	2
8355	-0.00011	1e-05	-6e-05	-0.00021	0.0001	0.00059	-0.0004	-0.00036	2
8356	-0.00011	1e-05	-6e-05	-0.00021	0.0001	0.00059	-0.0004	-0.00036	2
8357	2e-05	-1e-05	-1e-05	0.00015	4e-05	-0.00014	-0.00016	1e-05	2
8358	-6e-05	0	-1e-05	-0.00011	1e-05	-0.00015	0.00027	0.00017	2
8359	-6e-05	0	-1e-05	-0.00011	1e-05	-0.00015	0.00027	0.00017	2
8360	-6e-05	0	-1e-05	-0.00011	1e-05	-0.00015	0.00027	0.00017	2
8361	-6e-05	0	-1e-05	-0.00011	1e-05	-0.00015	0.00027	0.00017	2
8362	-6e-05	0	-1e-05	-0.00011	1e-05	-0.00015	0.00027	0.00017	2
8363	-6e-05	0	-1e-05	-0.00011	1e-05	-0.00015	0.00027	0.00017	2
8364	-6e-05	0	-1e-05	-0.00011	1e-05	-0.00015	0.00027	0.00017	2
8365	-6e-05	0	-1e-05	-0.00011	1e-05	-0.00015	0.00027	0.00017	2
8366	-6e-05	0	-1e-05	-0.00011	1e-05	-0.00015	0.00027	0.00017	2
8367	-6e-05	0	-1e-05	-0.00011	1e-05	-0.00015	0.00027	0.00017	2
8368	-6e-05	0	-1e-05	-0.00011	1e-05	-0.00015	0.00027	0.00017	2
8369	-6e-05	0	-1e-05	-0.00011	1e-05	-0.00015	0.00027	0.00017	2
8370	-6e-05	0	-1e-05	-0.00011	1e-05	-0.00015	0.00027	0.00017	2
8371	-6e-05	0	-1e-05	-0.00011	1e-05	-0.00015	0.00027	0.00017	2
8372	0.0001	7e-05	4e-05	6e-05	-0.00011	0.00013	0.00082	0.00024	2
8373	-0.00018	-7e-05	-8e-05	0.00018	-5e-05	-2e-05	-0.00041	-6e-05	2
8374	-0.00018	-7e-05	-8e-05	0.00018	-5e-05	-2e-05	-0.00041	-6e-05	2
8375	-0.00018	-7e-05	-8e-05	0.00018	-5e-05	-2e-05	-0.00041	-6e-05	2
8376	-0.00018	-7e-05	-8e-05	0.00018	-5e-05	-2e-05	-0.00041	-6e-05	2
8377	-0.00018	-7e-05	-8e-05	0.00018	-5e-05	-2e-05	-0.00041	-6e-05	2
8378	-0.00018	-7e-05	-8e-05	0.00018	-5e-05	-2e-05	-0.00041	-6e-05	2
8379	-0.00018	-7e-05	-8e-05	0.00018	-5e-05	-2e-05	-0.00041	-6e-05	2
8380	-0.00018	-7e-05	-8e-05	0.00018	-5e-05	-2e-05	-0.00041	-6e-05	2
8381	-0.00018	-7e-05	-8e-05	0.00018	-5e-05	-2e-05	-0.00041	-6e-05	2
8382	-0.00018	-7e-05	-8e-05	0.00018	-5e-05	-2e-05	-0.00041	-6e-05	2
8383	-0.00018	-7e-05	-8e-05	0.00018	-5e-05	-2e-05	-0.00041	-6e-05	2
8384	-0.00018	-7e-05	-8e-05	0.00018	-5e-05	-2e-05	-0.00041	-6e-05	2
8385	-0.00018	-7e-05	-8e-05	0.00018	-5e-05	-2e-05	-0.00041	-6e-05	2
8386	-0.00018	-7e-05	-8e-05	0.00018	-5e-05	-2e-05	-0.00041	-6e-05	2
8388	-0.00018	-7e-05	-8e-05	0.00018	-5e-05	-2e-05	-0.00041	-6e-05	2
8389	-0.00018	-7e-05	-8e-05	0.00018	-5e-05	-2e-05	-0.00041	-6e-05	2
8390	-0.00018	-7e-05	-8e-05	0.00018	-5e-05	-2e-05	-0.00041	-6e-05	2
8391	-0.00018	-7e-05	-8e-05	0.00018	-5e-05	-2e-05	-0.00041	-6e-05	2
8392	-0.00018	-7e-05	-8e-05	0.00018	-5e-05	-2e-05	-0.00041	-6e-05	2
8393	-0.00018	-7e-05	-8e-05	0.00018	-5e-05	-2e-05	-0.00041	-6e-05	2
8394	-0.0001	-7e-05	-7e-05	0	0.00016	-0.00013	-0.00047	-0.00011	2
8395	-0.00032	-3e-05	0	0.00016	3e-05	-0.00028	-0.00096	-0.00022	2
8396	-0.00032	-3e-05	0	0.00016	3e-05	-0.00028	-0.00096	-0.00022	2
8397	-0.00032	-3e-05	0	0.00016	3e-05	-0.00028	-0.00096	-0.00022	2
8398	-0.00032	-3e-05	0	0.00016	3e-05	-0.00028	-0.00096	-0.00022	2
8399	-0.00032	-3e-05	0	0.00016	3e-05	-0.00028	-0.00096	-0.00022	2
8400	-0.00032	-3e-05	0	0.00016	3e-05	-0.00028	-0.00096	-0.00022	2
8401	-0.00032	-3e-05	0	0.00016	3e-05	-0.00028	-0.00096	-0.00022	2
8402	-0.00032	-3e-05	0	0.00016	3e-05	-0.00028	-0.00096	-0.00022	2
8403	-0.00032	-3e-05	0	0.00016	3e-05	-0.00028	-0.00096	-0.00022	2
8404	-0.00032	-3e-05	0	0.00016	3e-05	-0.00028	-0.00096	-0.00022	2
8405	-0.00032	-3e-05	0	0.00016	3e-05	-0.00028	-0.00096	-0.00022	2
8406	-0.00032	-3e-05	0	0.00016	3e-05	-0.00028	-0.00096	-0.00022	2
8407	-0.00032	-3e-05	0	0.00016	3e-05	-0.00028	-0.00096	-0.00022	2
8408	-0.00032	-3e-05	0	0.00016	3e-05	-0.00028	-0.00096	-0.00022	2
8409	-0.00032	-3e-05	0	0.00016	3e-05	-0.00028	-0.00096	-0.00022	2
8410	-0.00032	-3e-05	0	0.00016	3e-05	-0.00028	-0.00096	-0.00022	2
8411	-0.00032	-3e-05	0	0.00016	3e-05	-0.00028	-0.00096	-0.00022	2
8412	-0.00032	-3e-05	0	0.00016	3e-05	-0.00028	-0.00096	-0.00022	2
8413	-0.00032	-3e-05	0	0.00016	3e-05	-0.00028	-0.00096	-0.00022	2
8414	-0.00032	-3e-05	0	0.00016	3e-05	-0.00028	-0.00096	-0.00022	2
8415	-0.00032	-3e-05	0	0.00016	3e-05	-0.00028	-0.00096	-0.00022	2
8416	-0.00032	-3e-05	0	0.00016	3e-05	-0.00028	-0.00096	-0.00022	2
8417	-6e-05	-4e-05	1e-05	-0.00012	-0.00015	-1e-05	0.00075	-3e-05	2
8418	-3e-05	-3e-05	1e-05	0.00031	7e-05	-5e-05	5e-05	-7e-05	2
8419	-3e-05	-3e-05	1e-05	0.00031	7e-05	-5e-05	5e-05	-7e-05	2
8420	-3e-05	-3e-05	1e-05	0.00031	7e-05	-5e-05	5e-05	-7e-05	2
8421	-3e-05	-3e-05	1e-05	0.00031	7e-05	-5e-05	5e-05	-7e-05	2
8422	-3e-05	-3e-05	1e-05	0.00031	7e-05	-5e-05	5e-05	-7e-05	2
8423	-3e-05	-3e-05	1e-05	0.00031	7e-05	-5e-05	5e-05	-7e-05	2
8424	-3e-05	-3e-05	1e-05	0.00031	7e-05	-5e-05	5e-05	-7e-05	2
8425	-3e-05	-3e-05	1e-05	0.00031	7e-05	-5e-05	5e-05	-7e-05	2
8426	-3e-05	-3e-05	1e-05	0.00031	7e-05	-5e-05	5e-05	-7e-05	2
8427	-3e-05	-3e-05	1e-05	0.00031	7e-05	-5e-05	5e-05	-7e-05	2
8428	-3e-05	-3e-05	1e-05	0.00031	7e-05	-5e-05	5e-05	-7e-05	2
8429	-3e-05	-3e-05	1e-05	0.00031	7e-05	-5e-05	5e-05	-7e-05	2
8430	-3e-05	-3e-05	1e-05	0.00031	7e-05	-5e-05	5e-05	-7e-05	2
8431	-3e-05	-3e-05	1e-05	0.00031	7e-05	-5e-05	5e-05	-7e-05	2
8432	3e-05	0	-0.0001	-0.00068	-4e-05	-0.00012	0.00028	1e-05	2
8433	0.00015	-1e-05	6e-05	0.00013	-0.00013	6e-05	0.00036	6e-05	2
8434	0.00015	-1e-05	6e-05	0.00013	-0.00013	6e-05	0.00036	6e-05	2
8435	0.00015	-1e-05	6e-05	0.00013	-0.00013	6e-05	0.00036	6e-05	2
8436	0.00015	-1e-05	6e-05	0.00013	-0.00013	6e-05	0.00036	6e-05	2
8438	0.00015	-1e-05	6e-05	0.00013	-0.00013	6e-05	0.00036	6e-05	2
8439	0.00015	-1e-05	6e-05	0.00013	-0.00013	6e-05	0.00036	6e-05	2
8440	0.00015	-1e-05	6e-05	0.00013	-0.00013	6e-05	0.00036	6e-05	2
8441	0.00015	-1e-05	6e-05	0.00013	-0.00013	6e-05	0.00036	6e-05	2
8442	0.00015	-1e-05	6e-05	0.00013	-0.00013	6e-05	0.00036	6e-05	2
8443	0.00015	-1e-05	6e-05	0.00013	-0.00013	6e-05	0.00036	6e-05	2
8444	0.00015	-1e-05	6e-05	0.00013	-0.00013	6e-05	0.00036	6e-05	2
8445	0.00015	-1e-05	6e-05	0.00013	-0.00013	6e-05	0.00036	6e-05	2
8446	0.00015	-1e-05	6e-05	0.00013	-0.00013	6e-05	0.00036	6e-05	2
8447	0.00015	-1e-05	6e-05	0.00013	-0.00013	6e-05	0.00036	6e-05	2
8448	0.00015	-1e-05	6e-05	0.00013	-0.00013	6e-05	0.00036	6e-05	2
8449	0.00015	-1e-05	6e-05	0.00013	-0.00013	6e-05	0.00036	6e-05	2
8450	0.00015	-1e-05	6e-05	0.00013	-0.00013	6e-05	0.00036	6e-05	2
8451	0.00015	-1e-05	6e-05	0.00013	-0.00013	6e-05	0.00036	6e-05	2
8452	0.00015	-1e-05	6e-05	0.00013	-0.00013	6e-05	0.00036	6e-05	2
8453	0.00015	-1e-05	6e-05	0.00013	-0.00013	6e-05	0.00036	6e-05	2
8454	-4e-05	-5e-05	-0.00016	-0.00032	0.00015	7e-05	-0.00028	-2e-05	2
8455	1e-05	-2e-05	-9e-05	-0.0003	-2e-05	-9e-05	-0.00025	0.00015	2
8456	1e-05	-2e-05	-9e-05	-0.0003	-2e-05	-9e-05	-0.00025	0.00015	2
8457	1e-05	-2e-05	-9e-05	-0.0003	-2e-05	-9e-05	-0.00025	0.00015	2
8458	1e-05	-2e-05	-9e-05	-0.0003	-2e-05	-9e-05	-0.00025	0.00015	2
8459	1e-05	-2e-05	-9e-05	-0.0003	-2e-05	-9e-05	-0.00025	0.00015	2
8460	1e-05	-2e-05	-9e-05	-0.0003	-2e-05	-9e-05	-0.00025	0.00015	2
8461	1e-05	-2e-05	-9e-05	-0.0003	-2e-05	-9e-05	-0.00025	0.00015	2
8462	1e-05	-2e-05	-9e-05	-0.0003	-2e-05	-9e-05	-0.00025	0.00015	2
8463	1e-05	-2e-05	-9e-05	-0.0003	-2e-05	-9e-05	-0.00025	0.00015	2
8464	1e-05	-2e-05	-9e-05	-0.0003	-2e-05	-9e-05	-0.00025	0.00015	2
8465	1e-05	-2e-05	-9e-05	-0.0003	-2e-05	-9e-05	-0.00025	0.00015	2
8466	1e-05	-2e-05	-9e-05	-0.0003	-2e-05	-9e-05	-0.00025	0.00015	2
8467	1e-05	-2e-05	-9e-05	-0.0003	-2e-05	-9e-05	-0.00025	0.00015	2
8468	1e-05	-2e-05	-9e-05	-0.0003	-2e-05	-9e-05	-0.00025	0.00015	2
8469	1e-05	-2e-05	-9e-05	-0.0003	-2e-05	-9e-05	-0.00025	0.00015	2
8470	1e-05	-2e-05	-9e-05	-0.0003	-2e-05	-9e-05	-0.00025	0.00015	2
8471	1e-05	-2e-05	-9e-05	-0.0003	-2e-05	-9e-05	-0.00025	0.00015	2
8472	1e-05	-2e-05	-9e-05	-0.0003	-2e-05	-9e-05	-0.00025	0.00015	2
8473	1e-05	-2e-05	-9e-05	-0.0003	-2e-05	-9e-05	-0.00025	0.00015	2
8474	1e-05	-2e-05	-9e-05	-0.0003	-2e-05	-9e-05	-0.00025	0.00015	2
8475	1e-05	-2e-05	-9e-05	-0.0003	-2e-05	-9e-05	-0.00025	0.00015	2
8476	1e-05	-2e-05	-9e-05	-0.0003	-2e-05	-9e-05	-0.00025	0.00015	2
8477	1e-05	-2e-05	-9e-05	-0.0003	-2e-05	-9e-05	-0.00025	0.00015	2
8478	3e-05	3e-05	5e-05	-0.00032	-1e-05	-8e-05	0.00039	-3e-05	2
8479	3e-05	3e-05	5e-05	-0.00032	-1e-05	-8e-05	0.00039	-3e-05	2
8480	3e-05	3e-05	5e-05	-0.00032	-1e-05	-8e-05	0.00039	-3e-05	2
8481	3e-05	3e-05	5e-05	-0.00032	-1e-05	-8e-05	0.00039	-3e-05	2
8482	3e-05	3e-05	5e-05	-0.00032	-1e-05	-8e-05	0.00039	-3e-05	2
8483	3e-05	3e-05	5e-05	-0.00032	-1e-05	-8e-05	0.00039	-3e-05	2
8484	3e-05	3e-05	5e-05	-0.00032	-1e-05	-8e-05	0.00039	-3e-05	2
8485	3e-05	3e-05	5e-05	-0.00032	-1e-05	-8e-05	0.00039	-3e-05	2
8486	3e-05	3e-05	5e-05	-0.00032	-1e-05	-8e-05	0.00039	-3e-05	2
8488	3e-05	3e-05	5e-05	-0.00032	-1e-05	-8e-05	0.00039	-3e-05	2
8489	3e-05	3e-05	5e-05	-0.00032	-1e-05	-8e-05	0.00039	-3e-05	2
8490	3e-05	3e-05	5e-05	-0.00032	-1e-05	-8e-05	0.00039	-3e-05	2
8491	3e-05	3e-05	5e-05	-0.00032	-1e-05	-8e-05	0.00039	-3e-05	2
8492	0.00021	-5e-05	-2e-05	-0.00043	-1e-05	1e-05	0.00015	-0.00012	2
8493	-0.00017	-5e-05	1e-05	0.00017	1e-05	-4e-05	0.00034	4e-05	2
8494	-0.00017	-5e-05	1e-05	0.00017	1e-05	-4e-05	0.00034	4e-05	2
8495	-0.00017	-5e-05	1e-05	0.00017	1e-05	-4e-05	0.00034	4e-05	2
8496	-0.00017	-5e-05	1e-05	0.00017	1e-05	-4e-05	0.00034	4e-05	2
8497	-0.00017	-5e-05	1e-05	0.00017	1e-05	-4e-05	0.00034	4e-05	2
8498	-0.00017	-5e-05	1e-05	0.00017	1e-05	-4e-05	0.00034	4e-05	2
8499	-0.00017	-5e-05	1e-05	0.00017	1e-05	-4e-05	0.00034	4e-05	2
8500	-0.00017	-5e-05	1e-05	0.00017	1e-05	-4e-05	0.00034	4e-05	2
8501	-0.00017	-5e-05	1e-05	0.00017	1e-05	-4e-05	0.00034	4e-05	2
8502	-0.00017	-5e-05	1e-05	0.00017	1e-05	-4e-05	0.00034	4e-05	2
8503	-0.00017	-5e-05	1e-05	0.00017	1e-05	-4e-05	0.00034	4e-05	2
8504	-0.00017	-5e-05	1e-05	0.00017	1e-05	-4e-05	0.00034	4e-05	2
8505	-0.00017	-5e-05	1e-05	0.00017	1e-05	-4e-05	0.00034	4e-05	2
8506	-0.00017	-5e-05	1e-05	0.00017	1e-05	-4e-05	0.00034	4e-05	2
8507	-0.00017	-5e-05	1e-05	0.00017	1e-05	-4e-05	0.00034	4e-05	2
8508	-0.00017	-5e-05	1e-05	0.00017	1e-05	-4e-05	0.00034	4e-05	2
8509	-0.00017	-5e-05	1e-05	0.00017	1e-05	-4e-05	0.00034	4e-05	2
39655	0.00021	-2e-05	-4e-05	-0.0003	-6e-05	-9e-05	-0.00063	-9e-05	2
39656	0.00021	-2e-05	-4e-05	-0.0003	-6e-05	-9e-05	-0.00063	-9e-05	2
39657	0.00021	-2e-05	-4e-05	-0.0003	-6e-05	-9e-05	-0.00063	-9e-05	2
39658	0.00021	-2e-05	-4e-05	-0.0003	-6e-05	-9e-05	-0.00063	-9e-05	2
39659	0.00021	-2e-05	-4e-05	-0.0003	-6e-05	-9e-05	-0.00063	-9e-05	2
39660	0.00021	-2e-05	-4e-05	-0.0003	-6e-05	-9e-05	-0.00063	-9e-05	2
39661	0.00021	-2e-05	-4e-05	-0.0003	-6e-05	-9e-05	-0.00063	-9e-05	2
39662	-0.0001	-6e-05	-3e-05	0.00058	-0.00012	-0.00033	-0.0001	-0.00028	2
39663	-0.0001	-6e-05	-3e-05	0.00058	-0.00012	-0.00033	-0.0001	-0.00028	2
39664	-0.0001	-6e-05	-3e-05	0.00058	-0.00012	-0.00033	-0.0001	-0.00028	2
39665	-0.0001	-6e-05	-3e-05	0.00058	-0.00012	-0.00033	-0.0001	-0.00028	2
39666	-0.0001	-6e-05	-3e-05	0.00058	-0.00012	-0.00033	-0.0001	-0.00028	2
39667	-0.0001	-6e-05	-3e-05	0.00058	-0.00012	-0.00033	-0.0001	-0.00028	2
39668	-0.0001	-6e-05	-3e-05	0.00058	-0.00012	-0.00033	-0.0001	-0.00028	2
39669	-0.0001	-6e-05	-3e-05	0.00058	-0.00012	-0.00033	-0.0001	-0.00028	2
39670	-0.0001	-6e-05	-3e-05	0.00058	-0.00012	-0.00033	-0.0001	-0.00028	2
39671	-0.0001	-6e-05	-3e-05	0.00058	-0.00012	-0.00033	-0.0001	-0.00028	2
39672	-0.0001	-6e-05	-3e-05	0.00058	-0.00012	-0.00033	-0.0001	-0.00028	2
39673	-0.0001	-6e-05	-3e-05	0.00058	-0.00012	-0.00033	-0.0001	-0.00028	2
39674	-0.0001	-6e-05	-3e-05	0.00058	-0.00012	-0.00033	-0.0001	-0.00028	2
39675	-0.0001	-6e-05	-3e-05	0.00058	-0.00012	-0.00033	-0.0001	-0.00028	2
39676	-0.0001	-6e-05	-3e-05	0.00058	-0.00012	-0.00033	-0.0001	-0.00028	2
39677	-0.0001	-6e-05	-3e-05	0.00058	-0.00012	-0.00033	-0.0001	-0.00028	2
39678	-0.00073	3e-05	7e-05	0.00018	1e-05	-0.00012	0.00011	1e-05	2
39679	-0.00073	3e-05	7e-05	0.00018	1e-05	-0.00012	0.00011	1e-05	2
39680	-6e-05	2e-05	-4e-05	7e-05	-0.0001	0.00014	0.00035	-0.00019	2
39681	-6e-05	2e-05	-4e-05	7e-05	-0.0001	0.00014	0.00035	-0.00019	2
39682	-6e-05	2e-05	-4e-05	7e-05	-0.0001	0.00014	0.00035	-0.00019	2
39683	-6e-05	2e-05	-4e-05	7e-05	-0.0001	0.00014	0.00035	-0.00019	2
39684	-6e-05	2e-05	-4e-05	7e-05	-0.0001	0.00014	0.00035	-0.00019	2
39685	-6e-05	2e-05	-4e-05	7e-05	-0.0001	0.00014	0.00035	-0.00019	2
39686	-6e-05	2e-05	-4e-05	7e-05	-0.0001	0.00014	0.00035	-0.00019	2
39688	-6e-05	2e-05	-4e-05	7e-05	-0.0001	0.00014	0.00035	-0.00019	2
39689	-6e-05	2e-05	-4e-05	7e-05	-0.0001	0.00014	0.00035	-0.00019	2
39690	-6e-05	2e-05	-4e-05	7e-05	-0.0001	0.00014	0.00035	-0.00019	2
39691	-6e-05	2e-05	-4e-05	7e-05	-0.0001	0.00014	0.00035	-0.00019	2
39692	-6e-05	2e-05	-4e-05	7e-05	-0.0001	0.00014	0.00035	-0.00019	2
39693	-6e-05	2e-05	-4e-05	7e-05	-0.0001	0.00014	0.00035	-0.00019	2
39694	-6e-05	2e-05	-4e-05	7e-05	-0.0001	0.00014	0.00035	-0.00019	2
39695	-6e-05	2e-05	-4e-05	7e-05	-0.0001	0.00014	0.00035	-0.00019	2
39696	-6e-05	2e-05	-4e-05	7e-05	-0.0001	0.00014	0.00035	-0.00019	2
39697	-6e-05	2e-05	-4e-05	7e-05	-0.0001	0.00014	0.00035	-0.00019	2
39698	-6e-05	2e-05	-4e-05	7e-05	-0.0001	0.00014	0.00035	-0.00019	2
39699	-6e-05	2e-05	-4e-05	7e-05	-0.0001	0.00014	0.00035	-0.00019	2
39700	-6e-05	2e-05	-4e-05	7e-05	-0.0001	0.00014	0.00035	-0.00019	2
39701	-0.00058	-7e-05	-0.00013	-0.00069	-0.0002	-9e-05	3e-05	-4e-05	2
39702	0.00067	9e-05	0.00019	0.00102	3e-05	0.00014	-0.00015	2e-05	2
39703	0.00067	9e-05	0.00019	0.00102	3e-05	0.00014	-0.00015	2e-05	2
39704	0.00067	9e-05	0.00019	0.00102	3e-05	0.00014	-0.00015	2e-05	2
39705	0.00067	9e-05	0.00019	0.00102	3e-05	0.00014	-0.00015	2e-05	2
39706	0.00067	9e-05	0.00019	0.00102	3e-05	0.00014	-0.00015	2e-05	2
39707	0.00067	9e-05	0.00019	0.00102	3e-05	0.00014	-0.00015	2e-05	2
39708	0.00067	9e-05	0.00019	0.00102	3e-05	0.00014	-0.00015	2e-05	2
39709	0.00067	9e-05	0.00019	0.00102	3e-05	0.00014	-0.00015	2e-05	2
39710	0.00067	9e-05	0.00019	0.00102	3e-05	0.00014	-0.00015	2e-05	2
39711	0.00067	9e-05	0.00019	0.00102	3e-05	0.00014	-0.00015	2e-05	2
39712	0.00067	9e-05	0.00019	0.00102	3e-05	0.00014	-0.00015	2e-05	2
39713	0.00067	9e-05	0.00019	0.00102	3e-05	0.00014	-0.00015	2e-05	2
39714	0.00067	9e-05	0.00019	0.00102	3e-05	0.00014	-0.00015	2e-05	2
39715	0.00014	-3e-05	-4e-05	0.0003	6e-05	-0.00016	-0.00084	-0.00027	2
39716	0.00014	-3e-05	-4e-05	0.0003	6e-05	-0.00016	-0.00084	-0.00027	2
39717	0.00014	-3e-05	-4e-05	0.0003	6e-05	-0.00016	-0.00084	-0.00027	2
39718	0.00014	-3e-05	-4e-05	0.0003	6e-05	-0.00016	-0.00084	-0.00027	2
39719	0.00014	-3e-05	-4e-05	0.0003	6e-05	-0.00016	-0.00084	-0.00027	2
39720	0.00014	-3e-05	-4e-05	0.0003	6e-05	-0.00016	-0.00084	-0.00027	2
39721	0.00014	-3e-05	-4e-05	0.0003	6e-05	-0.00016	-0.00084	-0.00027	2
39722	-0.00016	-3e-05	-7e-05	-6e-05	5e-05	-0.00019	6e-05	-0.00018	2
39723	-0.00016	-3e-05	-7e-05	-6e-05	5e-05	-0.00019	6e-05	-0.00018	2
39724	-0.00016	-3e-05	-7e-05	-6e-05	5e-05	-0.00019	6e-05	-0.00018	2
39725	-0.00016	-3e-05	-7e-05	-6e-05	5e-05	-0.00019	6e-05	-0.00018	2
39726	-0.00016	-3e-05	-7e-05	-6e-05	5e-05	-0.00019	6e-05	-0.00018	2
39727	-0.00016	-3e-05	-7e-05	-6e-05	5e-05	-0.00019	6e-05	-0.00018	2
39728	-0.00016	-3e-05	-7e-05	-6e-05	5e-05	-0.00019	6e-05	-0.00018	2
39729	-0.00016	-3e-05	-7e-05	-6e-05	5e-05	-0.00019	6e-05	-0.00018	2
39730	-0.00016	-3e-05	-7e-05	-6e-05	5e-05	-0.00019	6e-05	-0.00018	2
39731	-0.00016	-3e-05	-7e-05	-6e-05	5e-05	-0.00019	6e-05	-0.00018	2
39732	-0.00016	-3e-05	-7e-05	-6e-05	5e-05	-0.00019	6e-05	-0.00018	2
39733	-0.00016	-3e-05	-7e-05	-6e-05	5e-05	-0.00019	6e-05	-0.00018	2
39734	-0.00016	-3e-05	-7e-05	-6e-05	5e-05	-0.00019	6e-05	-0.00018	2
39735	-0.00016	-3e-05	-7e-05	-6e-05	5e-05	-0.00019	6e-05	-0.00018	2
39736	-0.00016	-3e-05	-7e-05	-6e-05	5e-05	-0.00019	6e-05	-0.00018	2
39738	0.00015	6e-05	-2e-05	-1e-05	0.00017	0.00044	0.00045	0.00022	2
39739	0.00015	6e-05	-2e-05	-1e-05	0.00017	0.00044	0.00045	0.00022	2
39740	-0.00042	-4e-05	-8e-05	-0.0007	-0.00017	-0.00017	-0.00042	-8e-05	2
39741	-0.00042	-4e-05	-8e-05	-0.0007	-0.00017	-0.00017	-0.00042	-8e-05	2
39742	-0.00042	-4e-05	-8e-05	-0.0007	-0.00017	-0.00017	-0.00042	-8e-05	2
39743	-0.00042	-4e-05	-8e-05	-0.0007	-0.00017	-0.00017	-0.00042	-8e-05	2
39744	-0.00042	-4e-05	-8e-05	-0.0007	-0.00017	-0.00017	-0.00042	-8e-05	2
39745	-0.00042	-4e-05	-8e-05	-0.0007	-0.00017	-0.00017	-0.00042	-8e-05	2
39746	-0.00042	-4e-05	-8e-05	-0.0007	-0.00017	-0.00017	-0.00042	-8e-05	2
39747	-0.00042	-4e-05	-8e-05	-0.0007	-0.00017	-0.00017	-0.00042	-8e-05	2
39748	-0.00042	-4e-05	-8e-05	-0.0007	-0.00017	-0.00017	-0.00042	-8e-05	2
39749	-0.00042	-4e-05	-8e-05	-0.0007	-0.00017	-0.00017	-0.00042	-8e-05	2
39750	-0.00042	-4e-05	-8e-05	-0.0007	-0.00017	-0.00017	-0.00042	-8e-05	2
39751	-0.00042	-4e-05	-8e-05	-0.0007	-0.00017	-0.00017	-0.00042	-8e-05	2
39752	-0.00042	-4e-05	-8e-05	-0.0007	-0.00017	-0.00017	-0.00042	-8e-05	2
39753	-0.00042	-4e-05	-8e-05	-0.0007	-0.00017	-0.00017	-0.00042	-8e-05	2
39754	-0.00042	-4e-05	-8e-05	-0.0007	-0.00017	-0.00017	-0.00042	-8e-05	2
39755	-0.00042	-4e-05	-8e-05	-0.0007	-0.00017	-0.00017	-0.00042	-8e-05	2
39756	-0.00042	-4e-05	-8e-05	-0.0007	-0.00017	-0.00017	-0.00042	-8e-05	2
39757	-0.00042	-4e-05	-8e-05	-0.0007	-0.00017	-0.00017	-0.00042	-8e-05	2
39758	-0.00042	-4e-05	-8e-05	-0.0007	-0.00017	-0.00017	-0.00042	-8e-05	2
39759	-0.00042	-4e-05	-8e-05	-0.0007	-0.00017	-0.00017	-0.00042	-8e-05	2
39760	-0.00042	-4e-05	-8e-05	-0.0007	-0.00017	-0.00017	-0.00042	-8e-05	2
39761	-8e-05	1e-05	4e-05	-0.00026	-0.00018	0.00014	0.00011	-2e-05	2
39762	0.00014	-2e-05	3e-05	-0.00011	-1e-05	0.00011	0.00039	0.00015	2
39763	0.00014	-2e-05	3e-05	-0.00011	-1e-05	0.00011	0.00039	0.00015	2
39764	0.00014	-2e-05	3e-05	-0.00011	-1e-05	0.00011	0.00039	0.00015	2
39765	0.00014	-2e-05	3e-05	-0.00011	-1e-05	0.00011	0.00039	0.00015	2
39766	0.00014	-2e-05	3e-05	-0.00011	-1e-05	0.00011	0.00039	0.00015	2
39767	0.00014	-2e-05	3e-05	-0.00011	-1e-05	0.00011	0.00039	0.00015	2
39768	0.00014	-2e-05	3e-05	-0.00011	-1e-05	0.00011	0.00039	0.00015	2
39769	0.00014	-2e-05	3e-05	-0.00011	-1e-05	0.00011	0.00039	0.00015	2
39770	0.00014	-2e-05	3e-05	-0.00011	-1e-05	0.00011	0.00039	0.00015	2
39771	0.00014	-2e-05	3e-05	-0.00011	-1e-05	0.00011	0.00039	0.00015	2
39772	0.00014	-2e-05	3e-05	-0.00011	-1e-05	0.00011	0.00039	0.00015	2
39773	0.00014	-2e-05	3e-05	-0.00011	-1e-05	0.00011	0.00039	0.00015	2
39774	0.00014	-2e-05	3e-05	-0.00011	-1e-05	0.00011	0.00039	0.00015	2
39775	0.00011	-6e-05	6e-05	0.00043	7e-05	9e-05	4e-05	9e-05	2
39776	0.00011	-6e-05	6e-05	0.00043	7e-05	9e-05	4e-05	9e-05	2
39777	0.00011	-6e-05	6e-05	0.00043	7e-05	9e-05	4e-05	9e-05	2
39778	0.00011	-6e-05	6e-05	0.00043	7e-05	9e-05	4e-05	9e-05	2
39779	0.00011	-6e-05	6e-05	0.00043	7e-05	9e-05	4e-05	9e-05	2
39780	0.00011	-6e-05	6e-05	0.00043	7e-05	9e-05	4e-05	9e-05	2
39781	0.00011	-6e-05	6e-05	0.00043	7e-05	9e-05	4e-05	9e-05	2
39782	-0.00035	-3e-05	-7e-05	-0.00032	5e-05	2e-05	0.00032	-0.00016	2
39783	-0.00035	-3e-05	-7e-05	-0.00032	5e-05	2e-05	0.00032	-0.00016	2
39784	-0.00035	-3e-05	-7e-05	-0.00032	5e-05	2e-05	0.00032	-0.00016	2
39785	-0.00035	-3e-05	-7e-05	-0.00032	5e-05	2e-05	0.00032	-0.00016	2
39786	-0.00035	-3e-05	-7e-05	-0.00032	5e-05	2e-05	0.00032	-0.00016	2
39788	-0.00035	-3e-05	-7e-05	-0.00032	5e-05	2e-05	0.00032	-0.00016	2
39789	-0.00035	-3e-05	-7e-05	-0.00032	5e-05	2e-05	0.00032	-0.00016	2
39790	-0.00035	-3e-05	-7e-05	-0.00032	5e-05	2e-05	0.00032	-0.00016	2
39791	-0.00035	-3e-05	-7e-05	-0.00032	5e-05	2e-05	0.00032	-0.00016	2
39792	-0.00035	-3e-05	-7e-05	-0.00032	5e-05	2e-05	0.00032	-0.00016	2
39793	-0.00035	-3e-05	-7e-05	-0.00032	5e-05	2e-05	0.00032	-0.00016	2
39794	-0.00035	-3e-05	-7e-05	-0.00032	5e-05	2e-05	0.00032	-0.00016	2
