5102	-0.00027	-0.00016	-0.00027	-0.00013	0.00087	0.00064	0.00067	0.00022	2
5103	-0.00027	-0.00016	-0.00027	-0.00013	0.00087	0.00064	0.00067	0.00022	2
5104	-0.00027	-0.00016	-0.00027	-0.00013	0.00087	0.00064	0.00067	0.00022	2
5105	-0.00027	-0.00016	-0.00027	-0.00013	0.00087	0.00064	0.00067	0.00022	2
5106	-0.00027	-0.00016	-0.00027	-0.00013	0.00087	0.00064	0.00067	0.00022	2
5107	4e-05	0	0.00015	0.0008	-4e-05	0	-0.00047	0.00025	2
5108	4e-05	0	0.00015	0.0008	-4e-05	0	-0.00047	0.00025	2
5109	4e-05	0	0.00015	0.0008	-4e-05	0	-0.00047	0.00025	2
5110	4e-05	0	0.00015	0.0008	-4e-05	0	-0.00047	0.00025	2
5111	4e-05	0	0.00015	0.0008	-4e-05	0	-0.00047	0.00025	2
5112	4e-05	0	0.00015	0.0008	-4e-05	0	-0.00047	0.00025	2
5113	4e-05	0	0.00015	0.0008	-4e-05	0	-0.00047	0.00025	2
5114	4e-05	0	0.00015	0.0008	-4e-05	0	-0.00047	0.00025	2
5115	4e-05	0	0.00015	0.0008	-4e-05	0	-0.00047	0.00025	2
5116	4e-05	0	0.00015	0.0008	-4e-05	0	-0.00047	0.00025	2
5117	4e-05	0	0.00015	0.0008	-4e-05	0	-0.00047	0.00025	2
5118	4e-05	0	0.00015	0.0008	-4e-05	0	-0.00047	0.00025	2
5119	4e-05	0	0.00015	0.0008	-4e-05	0	-0.00047	0.00025	2
5120	4e-05	0	0.00015	0.0008	-4e-05	0	-0.00047	0.00025	2
5121	4e-05	0	0.00015	0.0008	-4e-05	0	-0.00047	0.00025	2
5122	4e-05	0	0.00015	0.0008	-4e-05	0	-0.00047	0.00025	2
5123	-0.00021	-2e-05	-3e-05	0.0004	-0.00034	-9e-05	4e-05	0.00015	2
5124	-0.00021	-2e-05	-3e-05	0.0004	-0.00034	-9e-05	4e-05	0.00015	2
5125	-0.00021	-2e-05	-3e-05	0.0004	-0.00034	-9e-05	4e-05	0.00015	2
5126	-0.00021	-2e-05	-3e-05	0.0004	-0.00034	-9e-05	4e-05	0.00015	2
5127	-0.00021	-2e-05	-3e-05	0.0004	-0.00034	-9e-05	4e-05	0.00015	2
5128	-0.00021	-2e-05	-3e-05	0.0004	-0.00034	-9e-05	4e-05	0.00015	2
5129	0.00083	4e-05	-8e-05	-9e-05	-7e-05	0.00042	0.00099	0.00021	2
5130	0.00083	4e-05	-8e-05	-9e-05	-7e-05	0.00042	0.00099	0.00021	2
5131	0.00083	4e-05	-8e-05	-9e-05	-7e-05	0.00042	0.00099	0.00021	2
5132	0.00083	4e-05	-8e-05	-9e-05	-7e-05	0.00042	0.00099	0.00021	2
5133	0.00083	4e-05	-8e-05	-9e-05	-7e-05	0.00042	0.00099	0.00021	2
5134	0.00083	4e-05	-8e-05	-9e-05	-7e-05	0.00042	0.00099	0.00021	2
5135	0.00083	4e-05	-8e-05	-9e-05	-7e-05	0.00042	0.00099	0.00021	2
5136	-0.00048	5e-05	3e-05	7e-05	1e-05	-0.00038	-3e-05	-0.0002	2
5138	-0.00018	-1e-05	2e-05	0.00023	-0.00014	7e-05	-0.00083	-0.0005	2
5139	-0.00018	-1e-05	2e-05	0.00023	-0.00014	7e-05	-0.00083	-0.0005	2
5141	-0.00018	-1e-05	2e-05	0.00023	-0.00014	7e-05	-0.00083	-0.0005	2
5142	-0.00018	-1e-05	2e-05	0.00023	-0.00014	7e-05	-0.00083	-0.0005	2
5143	-0.00018	-1e-05	2e-05	0.00023	-0.00014	7e-05	-0.00083	-0.0005	2
5144	-0.00018	-1e-05	2e-05	0.00023	-0.00014	7e-05	-0.00083	-0.0005	2
5145	0.00043	3e-05	0.0001	0.00038	-0.0001	-0.00011	0.00111	0.00096	2
5146	0.00048	-0.0001	-7e-05	0.00039	9e-05	-0.00017	-0.00099	-0.00011	2
5147	0.00048	-0.0001	-7e-05	0.00039	9e-05	-0.00017	-0.00099	-0.00011	2
5148	0.00048	-0.0001	-7e-05	0.00039	9e-05	-0.00017	-0.00099	-0.00011	2
5149	0.00048	-0.0001	-7e-05	0.00039	9e-05	-0.00017	-0.00099	-0.00011	2
5150	0.00048	-0.0001	-7e-05	0.00039	9e-05	-0.00017	-0.00099	-0.00011	2
5151	0.00048	-0.0001	-7e-05	0.00039	9e-05	-0.00017	-0.00099	-0.00011	2
5152	0.00048	-0.0001	-7e-05	0.00039	9e-05	-0.00017	-0.00099	-0.00011	2
5153	0.00048	-0.0001	-7e-05	0.00039	9e-05	-0.00017	-0.00099	-0.00011	2
5154	0.00048	-0.0001	-7e-05	0.00039	9e-05	-0.00017	-0.00099	-0.00011	2
5155	0.00048	-0.0001	-7e-05	0.00039	9e-05	-0.00017	-0.00099	-0.00011	2
5156	0.00048	-0.0001	-7e-05	0.00039	9e-05	-0.00017	-0.00099	-0.00011	2
5157	0.00048	-0.0001	-7e-05	0.00039	9e-05	-0.00017	-0.00099	-0.00011	2
5158	0.00048	-0.0001	-7e-05	0.00039	9e-05	-0.00017	-0.00099	-0.00011	2
5159	0.00048	-0.0001	-7e-05	0.00039	9e-05	-0.00017	-0.00099	-0.00011	2
5160	0.00048	-0.0001	-7e-05	0.00039	9e-05	-0.00017	-0.00099	-0.00011	2
5161	0.00072	1e-05	-0.00019	-0.00049	0.00037	-0.00015	-5e-05	-1e-05	2
5162	0.00072	1e-05	-0.00019	-0.00049	0.00037	-0.00015	-5e-05	-1e-05	2
5163	0.00072	1e-05	-0.00019	-0.00049	0.00037	-0.00015	-5e-05	-1e-05	2
5164	0.00072	1e-05	-0.00019	-0.00049	0.00037	-0.00015	-5e-05	-1e-05	2
5165	0.00072	1e-05	-0.00019	-0.00049	0.00037	-0.00015	-5e-05	-1e-05	2
5166	-0.00012	0.00013	0.0003	0.00087	-9e-05	0.00012	0.00021	7e-05	2
5167	-0.00106	-0.00012	0	0.00018	-0.00051	-0.00016	-1e-05	-0.00024	2
5168	-0.00106	-0.00012	0	0.00018	-0.00051	-0.00016	-1e-05	-0.00024	2
5169	-0.00106	-0.00012	0	0.00018	-0.00051	-0.00016	-1e-05	-0.00024	2
5170	-0.00106	-0.00012	0	0.00018	-0.00051	-0.00016	-1e-05	-0.00024	2
5171	-0.00106	-0.00012	0	0.00018	-0.00051	-0.00016	-1e-05	-0.00024	2
5172	-0.00106	-0.00012	0	0.00018	-0.00051	-0.00016	-1e-05	-0.00024	2
5173	-0.00106	-0.00012	0	0.00018	-0.00051	-0.00016	-1e-05	-0.00024	2
5174	-0.00106	-0.00012	0	0.00018	-0.00051	-0.00016	-1e-05	-0.00024	2
5175	-0.00106	-0.00012	0	0.00018	-0.00051	-0.00016	-1e-05	-0.00024	2
5176	-0.00106	-0.00012	0	0.00018	-0.00051	-0.00016	-1e-05	-0.00024	2
5177	-0.00106	-0.00012	0	0.00018	-0.00051	-0.00016	-1e-05	-0.00024	2
5178	-0.00106	-0.00012	0	0.00018	-0.00051	-0.00016	-1e-05	-0.00024	2
5179	-0.00106	-0.00012	0	0.00018	-0.00051	-0.00016	-1e-05	-0.00024	2
5180	-0.00106	-0.00012	0	0.00018	-0.00051	-0.00016	-1e-05	-0.00024	2
5181	-0.00106	-0.00012	0	0.00018	-0.00051	-0.00016	-1e-05	-0.00024	2
5182	-0.00106	-0.00012	0	0.00018	-0.00051	-0.00016	-1e-05	-0.00024	2
5183	-0.00011	0	6e-05	0.00023	-0.00023	-0.00013	-0.00016	-0.00022	2
5184	-0.00042	-2e-05	-3e-05	-3e-05	5e-05	2e-05	0.00057	-5e-05	2
5185	0.00034	4e-05	4e-05	-0.00024	-6e-05	-0.00033	-0.00022	-0.00018	2
5186	0.00034	4e-05	4e-05	-0.00024	-6e-05	-0.00033	-0.00022	-0.00018	2
5188	0.00034	4e-05	4e-05	-0.00024	-6e-05	-0.00033	-0.00022	-0.00018	2
5190	0.00034	4e-05	4e-05	-0.00024	-6e-05	-0.00033	-0.00022	-0.00018	2
5191	0.00034	4e-05	4e-05	-0.00024	-6e-05	-0.00033	-0.00022	-0.00018	2
5192	0.00034	4e-05	4e-05	-0.00024	-6e-05	-0.00033	-0.00022	-0.00018	2
5193	0.00034	4e-05	4e-05	-0.00024	-6e-05	-0.00033	-0.00022	-0.00018	2
5194	0.00034	4e-05	4e-05	-0.00024	-6e-05	-0.00033	-0.00022	-0.00018	2
5195	0.00034	4e-05	4e-05	-0.00024	-6e-05	-0.00033	-0.00022	-0.00018	2
5196	0.00034	4e-05	4e-05	-0.00024	-6e-05	-0.00033	-0.00022	-0.00018	2
5197	0.00034	4e-05	4e-05	-0.00024	-6e-05	-0.00033	-0.00022	-0.00018	2
5198	0.00034	4e-05	4e-05	-0.00024	-6e-05	-0.00033	-0.00022	-0.00018	2
5199	0.00034	4e-05	4e-05	-0.00024	-6e-05	-0.00033	-0.00022	-0.00018	2
5200	0.00034	4e-05	4e-05	-0.00024	-6e-05	-0.00033	-0.00022	-0.00018	2
5201	0.00034	4e-05	4e-05	-0.00024	-6e-05	-0.00033	-0.00022	-0.00018	2
5202	0.00034	4e-05	4e-05	-0.00024	-6e-05	-0.00033	-0.00022	-0.00018	2
5203	0.00034	4e-05	4e-05	-0.00024	-6e-05	-0.00033	-0.00022	-0.00018	2
5204	0.00034	4e-05	4e-05	-0.00024	-6e-05	-0.00033	-0.00022	-0.00018	2
5205	0.00042	-0.00011	-1e-05	0.00076	-0.00037	-0.00021	0.00035	-0.0001	2
5206	0.00042	-0.00011	-1e-05	0.00076	-0.00037	-0.00021	0.00035	-0.0001	2
5207	0.00022	5e-05	0.00014	0.0009	-8e-05	0.00017	-0.0002	-3e-05	2
5208	0.00022	5e-05	0.00014	0.0009	-8e-05	0.00017	-0.0002	-3e-05	2
5209	0.00022	5e-05	0.00014	0.0009	-8e-05	0.00017	-0.0002	-3e-05	2
5210	0.00022	5e-05	0.00014	0.0009	-8e-05	0.00017	-0.0002	-3e-05	2
5211	0.00022	5e-05	0.00014	0.0009	-8e-05	0.00017	-0.0002	-3e-05	2
5212	0.00022	5e-05	0.00014	0.0009	-8e-05	0.00017	-0.0002	-3e-05	2
5213	0.00022	5e-05	0.00014	0.0009	-8e-05	0.00017	-0.0002	-3e-05	2
5214	0.00022	5e-05	0.00014	0.0009	-8e-05	0.00017	-0.0002	-3e-05	2
5215	0.00022	5e-05	0.00014	0.0009	-8e-05	0.00017	-0.0002	-3e-05	2
5216	0.00022	5e-05	0.00014	0.0009	-8e-05	0.00017	-0.0002	-3e-05	2
5217	0.00022	5e-05	0.00014	0.0009	-8e-05	0.00017	-0.0002	-3e-05	2
5218	0.00022	5e-05	0.00014	0.0009	-8e-05	0.00017	-0.0002	-3e-05	2
5219	0.00022	5e-05	0.00014	0.0009	-8e-05	0.00017	-0.0002	-3e-05	2
5220	0.00022	5e-05	0.00014	0.0009	-8e-05	0.00017	-0.0002	-3e-05	2
5221	0.00022	5e-05	0.00014	0.0009	-8e-05	0.00017	-0.0002	-3e-05	2
5222	0.00022	5e-05	0.00014	0.0009	-8e-05	0.00017	-0.0002	-3e-05	2
5223	0.00022	5e-05	0.00014	0.0009	-8e-05	0.00017	-0.0002	-3e-05	2
5224	0.00022	5e-05	0.00014	0.0009	-8e-05	0.00017	-0.0002	-3e-05	2
5225	0.00022	5e-05	0.00014	0.0009	-8e-05	0.00017	-0.0002	-3e-05	2
5226	0.00022	5e-05	0.00014	0.0009	-8e-05	0.00017	-0.0002	-3e-05	2
5227	0.00022	5e-05	0.00014	0.0009	-8e-05	0.00017	-0.0002	-3e-05	2
5228	0.00048	0.00017	0.00027	0.00038	0.00011	0.00058	0.00065	0.00052	2
5229	-0.00021	-3e-05	-0.00013	-0.00064	0.00017	0.00022	9e-05	8e-05	2
5230	-0.00021	-3e-05	-0.00013	-0.00064	0.00017	0.00022	9e-05	8e-05	2
5231	-0.00021	-3e-05	-0.00013	-0.00064	0.00017	0.00022	9e-05	8e-05	2
5232	-0.00021	-3e-05	-0.00013	-0.00064	0.00017	0.00022	9e-05	8e-05	2
5234	-0.00021	-3e-05	-0.00013	-0.00064	0.00017	0.00022	9e-05	8e-05	2
5235	-0.00021	-3e-05	-0.00013	-0.00064	0.00017	0.00022	9e-05	8e-05	2
5236	-0.00021	-3e-05	-0.00013	-0.00064	0.00017	0.00022	9e-05	8e-05	2
5238	-0.00021	-3e-05	-0.00013	-0.00064	0.00017	0.00022	9e-05	8e-05	2
5239	-0.00021	-3e-05	-0.00013	-0.00064	0.00017	0.00022	9e-05	8e-05	2
5240	-0.00021	-3e-05	-0.00013	-0.00064	0.00017	0.00022	9e-05	8e-05	2
5241	-0.00021	-3e-05	-0.00013	-0.00064	0.00017	0.00022	9e-05	8e-05	2
5242	-0.00021	-3e-05	-0.00013	-0.00064	0.00017	0.00022	9e-05	8e-05	2
5243	-0.00021	-3e-05	-0.00013	-0.00064	0.00017	0.00022	9e-05	8e-05	2
5244	-0.00042	-6e-05	0	-0.00014	-0.0002	-0.0001	-0.0003	-0.00022	2
5245	-0.00041	-7e-05	-3e-05	0.00018	0.00025	0.00021	0.0002	7e-05	2
5246	-0.00041	-7e-05	-3e-05	0.00018	0.00025	0.00021	0.0002	7e-05	2
5247	-0.00041	-7e-05	-3e-05	0.00018	0.00025	0.00021	0.0002	7e-05	2
5248	-0.00041	-7e-05	-3e-05	0.00018	0.00025	0.00021	0.0002	7e-05	2
5249	-0.00041	-7e-05	-3e-05	0.00018	0.00025	0.00021	0.0002	7e-05	2
5250	-0.00041	-7e-05	-3e-05	0.00018	0.00025	0.00021	0.0002	7e-05	2
5251	-0.00041	-7e-05	-3e-05	0.00018	0.00025	0.00021	0.0002	7e-05	2
5252	-0.00041	-7e-05	-3e-05	0.00018	0.00025	0.00021	0.0002	7e-05	2
5253	-0.00041	-7e-05	-3e-05	0.00018	0.00025	0.00021	0.0002	7e-05	2
5254	-0.00041	-7e-05	-3e-05	0.00018	0.00025	0.00021	0.0002	7e-05	2
5255	-0.00041	-7e-05	-3e-05	0.00018	0.00025	0.00021	0.0002	7e-05	2
5256	-0.00041	-7e-05	-3e-05	0.00018	0.00025	0.00021	0.0002	7e-05	2
5257	-0.00041	-7e-05	-3e-05	0.00018	0.00025	0.00021	0.0002	7e-05	2
5258	-0.00041	-7e-05	-3e-05	0.00018	0.00025	0.00021	0.0002	7e-05	2
5259	-0.00041	-7e-05	-3e-05	0.00018	0.00025	0.00021	0.0002	7e-05	2
5260	-0.00041	-7e-05	-3e-05	0.00018	0.00025	0.00021	0.0002	7e-05	2
5261	-0.00041	-7e-05	-3e-05	0.00018	0.00025	0.00021	0.0002	7e-05	2
5262	-0.00041	-7e-05	-3e-05	0.00018	0.00025	0.00021	0.0002	7e-05	2
5263	-0.00041	-7e-05	-3e-05	0.00018	0.00025	0.00021	0.0002	7e-05	2
5264	-0.00041	-7e-05	-3e-05	0.00018	0.00025	0.00021	0.0002	7e-05	2
5265	-0.00011	3e-05	2e-05	0.00014	-6e-05	-0.00024	-0.00048	-7e-05	2
5266	-0.00011	3e-05	2e-05	0.00014	-6e-05	-0.00024	-0.00048	-7e-05	2
5267	5e-05	6e-05	-3e-05	-3e-05	0.00022	0.0003	0.00043	-0.00031	2
5268	5e-05	6e-05	-3e-05	-3e-05	0.00022	0.0003	0.00043	-0.00031	2
5269	5e-05	6e-05	-3e-05	-3e-05	0.00022	0.0003	0.00043	-0.00031	2
5270	5e-05	6e-05	-3e-05	-3e-05	0.00022	0.0003	0.00043	-0.00031	2
5271	5e-05	6e-05	-3e-05	-3e-05	0.00022	0.0003	0.00043	-0.00031	2
5272	5e-05	6e-05	-3e-05	-3e-05	0.00022	0.0003	0.00043	-0.00031	2
5273	5e-05	6e-05	-3e-05	-3e-05	0.00022	0.0003	0.00043	-0.00031	2
5274	5e-05	6e-05	-3e-05	-3e-05	0.00022	0.0003	0.00043	-0.00031	2
5275	5e-05	6e-05	-3e-05	-3e-05	0.00022	0.0003	0.00043	-0.00031	2
5276	5e-05	6e-05	-3e-05	-3e-05	0.00022	0.0003	0.00043	-0.00031	2
5277	5e-05	6e-05	-3e-05	-3e-05	0.00022	0.0003	0.00043	-0.00031	2
5278	5e-05	6e-05	-3e-05	-3e-05	0.00022	0.0003	0.00043	-0.00031	2
5279	5e-05	6e-05	-3e-05	-3e-05	0.00022	0.0003	0.00043	-0.00031	2
5280	5e-05	6e-05	-3e-05	-3e-05	0.00022	0.0003	0.00043	-0.00031	2
5281	5e-05	6e-05	-3e-05	-3e-05	0.00022	0.0003	0.00043	-0.00031	2
5282	5e-05	6e-05	-3e-05	-3e-05	0.00022	0.0003	0.00043	-0.00031	2
5283	5e-05	6e-05	-3e-05	-3e-05	0.00022	0.0003	0.00043	-0.00031	2
5284	5e-05	6e-05	-3e-05	-3e-05	0.00022	0.0003	0.00043	-0.00031	2
5285	5e-05	6e-05	-3e-05	-3e-05	0.00022	0.0003	0.00043	-0.00031	2
5286	5e-05	6e-05	-3e-05	-3e-05	0.00022	0.0003	0.00043	-0.00031	2
5289	-0.00024	-2e-05	1e-05	-0.00057	-0.00024	-0.00036	-0.00061	-6e-05	2
5290	-0.00047	-6e-05	-1e-05	0.00019	-0.00049	0.00037	7e-05	-4e-05	2
5291	-0.00047	-6e-05	-1e-05	0.00019	-0.00049	0.00037	7e-05	-4e-05	2
5292	-0.00047	-6e-05	-1e-05	0.00019	-0.00049	0.00037	7e-05	-4e-05	2
5293	-0.00047	-6e-05	-1e-05	0.00019	-0.00049	0.00037	7e-05	-4e-05	2
5294	-0.00047	-6e-05	-1e-05	0.00019	-0.00049	0.00037	7e-05	-4e-05	2
5295	-0.00047	-6e-05	-1e-05	0.00019	-0.00049	0.00037	7e-05	-4e-05	2
5296	-0.00047	-6e-05	-1e-05	0.00019	-0.00049	0.00037	7e-05	-4e-05	2
5297	-0.00047	-6e-05	-1e-05	0.00019	-0.00049	0.00037	7e-05	-4e-05	2
5298	-0.00047	-6e-05	-1e-05	0.00019	-0.00049	0.00037	7e-05	-4e-05	2
5299	-0.00047	-6e-05	-1e-05	0.00019	-0.00049	0.00037	7e-05	-4e-05	2
5300	-0.00047	-6e-05	-1e-05	0.00019	-0.00049	0.00037	7e-05	-4e-05	2
5301	-0.00047	-6e-05	-1e-05	0.00019	-0.00049	0.00037	7e-05	-4e-05	2
5302	-0.00047	-6e-05	-1e-05	0.00019	-0.00049	0.00037	7e-05	-4e-05	2
5303	-0.00047	-6e-05	-1e-05	0.00019	-0.00049	0.00037	7e-05	-4e-05	2
5304	-0.00047	-6e-05	-1e-05	0.00019	-0.00049	0.00037	7e-05	-4e-05	2
5305	-0.00047	-6e-05	-1e-05	0.00019	-0.00049	0.00037	7e-05	-4e-05	2
5306	-0.00047	-6e-05	-1e-05	0.00019	-0.00049	0.00037	7e-05	-4e-05	2
5307	-0.00047	-6e-05	-1e-05	0.00019	-0.00049	0.00037	7e-05	-4e-05	2
5308	-0.00047	-6e-05	-1e-05	0.00019	-0.00049	0.00037	7e-05	-4e-05	2
5309	-0.00047	-6e-05	-1e-05	0.00019	-0.00049	0.00037	7e-05	-4e-05	2
5310	-0.00047	-6e-05	-1e-05	0.00019	-0.00049	0.00037	7e-05	-4e-05	2
5311	-0.00047	-6e-05	-1e-05	0.00019	-0.00049	0.00037	7e-05	-4e-05	2
5312	-0.00047	-6e-05	-1e-05	0.00019	-0.00049	0.00037	7e-05	-4e-05	2
5313	-0.00047	-6e-05	-1e-05	0.00019	-0.00049	0.00037	7e-05	-4e-05	2
5314	-0.00047	-6e-05	-1e-05	0.00019	-0.00049	0.00037	7e-05	-4e-05	2
5315	-0.00047	-6e-05	-1e-05	0.00019	-0.00049	0.00037	7e-05	-4e-05	2
5316	-0.00047	-6e-05	-1e-05	0.00019	-0.00049	0.00037	7e-05	-4e-05	2
5317	-0.00047	-6e-05	-1e-05	0.00019	-0.00049	0.00037	7e-05	-4e-05	2
5318	-0.00029	-6e-05	-5e-05	-0.00053	-0.00014	-0.00017	-0.00047	-0.00017	2
5319	0.00034	3e-05	1e-05	0.00067	-6e-05	6e-05	-0.00026	5e-05	2
5320	-0.0005	7e-05	0.00011	0.00038	0.00015	-0.00011	0.00012	0.00033	2
5321	-0.0005	7e-05	0.00011	0.00038	0.00015	-0.00011	0.00012	0.00033	2
5322	-0.0005	7e-05	0.00011	0.00038	0.00015	-0.00011	0.00012	0.00033	2
5323	-0.0005	7e-05	0.00011	0.00038	0.00015	-0.00011	0.00012	0.00033	2
5324	-0.0005	7e-05	0.00011	0.00038	0.00015	-0.00011	0.00012	0.00033	2
5325	0.0001	-1e-05	-3e-05	3e-05	-3e-05	-0.00014	0.00034	0.00029	2
5326	0.0001	-1e-05	-3e-05	3e-05	-3e-05	-0.00014	0.00034	0.00029	2
5327	0.00048	-3e-05	-4e-05	-0.00035	0.00016	0.0001	-2e-05	9e-05	2
5328	0.00048	-3e-05	-4e-05	-0.00035	0.00016	0.0001	-2e-05	9e-05	2
5329	0.00048	-3e-05	-4e-05	-0.00035	0.00016	0.0001	-2e-05	9e-05	2
5330	0.00048	-3e-05	-4e-05	-0.00035	0.00016	0.0001	-2e-05	9e-05	2
5331	0.00048	-3e-05	-4e-05	-0.00035	0.00016	0.0001	-2e-05	9e-05	2
5332	0.00048	-3e-05	-4e-05	-0.00035	0.00016	0.0001	-2e-05	9e-05	2
5333	0.00048	-3e-05	-4e-05	-0.00035	0.00016	0.0001	-2e-05	9e-05	2
5334	0.00048	-3e-05	-4e-05	-0.00035	0.00016	0.0001	-2e-05	9e-05	2
5335	0.00048	-3e-05	-4e-05	-0.00035	0.00016	0.0001	-2e-05	9e-05	2
5336	0.00048	-3e-05	-4e-05	-0.00035	0.00016	0.0001	-2e-05	9e-05	2
5338	0.00048	-3e-05	-4e-05	-0.00035	0.00016	0.0001	-2e-05	9e-05	2
5339	0.00048	-3e-05	-4e-05	-0.00035	0.00016	0.0001	-2e-05	9e-05	2
5340	0.00048	-3e-05	-4e-05	-0.00035	0.00016	0.0001	-2e-05	9e-05	2
5341	0.00048	-3e-05	-4e-05	-0.00035	0.00016	0.0001	-2e-05	9e-05	2
5342	0.00048	-3e-05	-4e-05	-0.00035	0.00016	0.0001	-2e-05	9e-05	2
5343	0.00048	-3e-05	-4e-05	-0.00035	0.00016	0.0001	-2e-05	9e-05	2
5344	0.00048	-3e-05	-4e-05	-0.00035	0.00016	0.0001	-2e-05	9e-05	2
5345	0.00048	-3e-05	-4e-05	-0.00035	0.00016	0.0001	-2e-05	9e-05	2
5346	0.00048	-3e-05	-4e-05	-0.00035	0.00016	0.0001	-2e-05	9e-05	2
5347	0.00048	-3e-05	-4e-05	-0.00035	0.00016	0.0001	-2e-05	9e-05	2
5348	-0.00035	0	-0.00021	-0.00078	0.00012	-5e-05	0.00054	6e-05	2
5349	0	-0.0001	5e-05	1e-05	0.00021	8e-05	-0.00033	-0.00012	2
5350	0.00018	0	3e-05	-0.00051	-6e-05	0.00012	-0.00014	1e-05	2
5351	0.00018	0	3e-05	-0.00051	-6e-05	0.00012	-0.00014	1e-05	2
5352	0.00018	0	3e-05	-0.00051	-6e-05	0.00012	-0.00014	1e-05	2
5353	0.00018	0	3e-05	-0.00051	-6e-05	0.00012	-0.00014	1e-05	2
5354	0.00018	0	3e-05	-0.00051	-6e-05	0.00012	-0.00014	1e-05	2
5355	0.00018	0	3e-05	-0.00051	-6e-05	0.00012	-0.00014	1e-05	2
5356	0.00018	0	3e-05	-0.00051	-6e-05	0.00012	-0.00014	1e-05	2
5357	0.00018	0	3e-05	-0.00051	-6e-05	0.00012	-0.00014	1e-05	2
5358	0.00018	0	3e-05	-0.00051	-6e-05	0.00012	-0.00014	1e-05	2
5359	0.00018	0	3e-05	-0.00051	-6e-05	0.00012	-0.00014	1e-05	2
5360	0.00018	0	3e-05	-0.00051	-6e-05	0.00012	-0.00014	1e-05	2
5361	0.00018	0	3e-05	-0.00051	-6e-05	0.00012	-0.00014	1e-05	2
5362	0.00018	0	3e-05	-0.00051	-6e-05	0.00012	-0.00014	1e-05	2
5363	-6e-05	-2e-05	-7e-05	-6e-05	-0.00011	-4e-05	2e-05	0	2
5364	0.00018	4e-05	9e-05	0.0001	3e-05	0.00055	-3e-05	0.00013	2
5365	0.00037	-2e-05	-0.00011	-0.00027	3e-05	-0.00048	0.00022	0.00016	2
5366	0.00037	-2e-05	-0.00011	-0.00027	3e-05	-0.00048	0.00022	0.00016	2
5367	0.00037	-2e-05	-0.00011	-0.00027	3e-05	-0.00048	0.00022	0.00016	2
5368	0.00037	-2e-05	-0.00011	-0.00027	3e-05	-0.00048	0.00022	0.00016	2
5369	0.00037	-2e-05	-0.00011	-0.00027	3e-05	-0.00048	0.00022	0.00016	2
5370	0.00037	-2e-05	-0.00011	-0.00027	3e-05	-0.00048	0.00022	0.00016	2
5371	0.00037	-2e-05	-0.00011	-0.00027	3e-05	-0.00048	0.00022	0.00016	2
5372	0.00037	-2e-05	-0.00011	-0.00027	3e-05	-0.00048	0.00022	0.00016	2
5373	0.00037	-2e-05	-0.00011	-0.00027	3e-05	-0.00048	0.00022	0.00016	2
5374	0.00037	-2e-05	-0.00011	-0.00027	3e-05	-0.00048	0.00022	0.00016	2
5376	0.00037	-2e-05	-0.00011	-0.00027	3e-05	-0.00048	0.00022	0.00016	2
5377	0.00037	-2e-05	-0.00011	-0.00027	3e-05	-0.00048	0.00022	0.00016	2
5378	0.00037	-2e-05	-0.00011	-0.00027	3e-05	-0.00048	0.00022	0.00016	2
5379	0.00037	-2e-05	-0.00011	-0.00027	3e-05	-0.00048	0.00022	0.00016	2
5380	0.00037	-2e-05	-0.00011	-0.00027	3e-05	-0.00048	0.00022	0.00016	2
5381	0.00037	-2e-05	-0.00011	-0.00027	3e-05	-0.00048	0.00022	0.00016	2
5382	0.00037	-2e-05	-0.00011	-0.00027	3e-05	-0.00048	0.00022	0.00016	2
5383	0.00037	-2e-05	-0.00011	-0.00027	3e-05	-0.00048	0.00022	0.00016	2
5384	0.00037	-2e-05	-0.00011	-0.00027	3e-05	-0.00048	0.00022	0.00016	2
5385	0.0002	-4e-05	-9e-05	-0.00061	-3e-05	0.00022	-0.00017	-0.00016	2
5386	0.0002	-4e-05	-9e-05	-0.00061	-3e-05	0.00022	-0.00017	-0.00016	2
5388	9e-05	0	-7e-05	-0.00032	-0.00016	5e-05	0.00053	0.0001	2
5389	9e-05	0	-7e-05	-0.00032	-0.00016	5e-05	0.00053	0.0001	2
5390	9e-05	0	-7e-05	-0.00032	-0.00016	5e-05	0.00053	0.0001	2
5391	9e-05	0	-7e-05	-0.00032	-0.00016	5e-05	0.00053	0.0001	2
5392	9e-05	0	-7e-05	-0.00032	-0.00016	5e-05	0.00053	0.0001	2
5393	9e-05	0	-7e-05	-0.00032	-0.00016	5e-05	0.00053	0.0001	2
5394	9e-05	0	-7e-05	-0.00032	-0.00016	5e-05	0.00053	0.0001	2
5395	9e-05	0	-7e-05	-0.00032	-0.00016	5e-05	0.00053	0.0001	2
5396	9e-05	0	-7e-05	-0.00032	-0.00016	5e-05	0.00053	0.0001	2
5397	9e-05	0	-7e-05	-0.00032	-0.00016	5e-05	0.00053	0.0001	2
5398	9e-05	0	-7e-05	-0.00032	-0.00016	5e-05	0.00053	0.0001	2
5399	9e-05	0	-7e-05	-0.00032	-0.00016	5e-05	0.00053	0.0001	2
5400	9e-05	0	-7e-05	-0.00032	-0.00016	5e-05	0.00053	0.0001	2
5401	9e-05	0	-7e-05	-0.00032	-0.00016	5e-05	0.00053	0.0001	2
5402	9e-05	0	-7e-05	-0.00032	-0.00016	5e-05	0.00053	0.0001	2
5403	9e-05	0	-7e-05	-0.00032	-0.00016	5e-05	0.00053	0.0001	2
5404	9e-05	0	-7e-05	-0.00032	-0.00016	5e-05	0.00053	0.0001	2
5405	9e-05	0	-7e-05	-0.00032	-0.00016	5e-05	0.00053	0.0001	2
5406	9e-05	0	-7e-05	-0.00032	-0.00016	5e-05	0.00053	0.0001	2
5407	9e-05	0	-7e-05	-0.00032	-0.00016	5e-05	0.00053	0.0001	2
5408	-0.00023	-2e-05	3e-05	0.0003	-0.0001	-0.00016	0.00034	0.00011	2
5409	-0.00023	-2e-05	3e-05	0.0003	-0.0001	-0.00016	0.00034	0.00011	2
5410	-0.00064	-4e-05	-8e-05	-0.00098	-0.00011	-5e-05	0.00016	-1e-05	2
5411	-0.00064	-4e-05	-8e-05	-0.00098	-0.00011	-5e-05	0.00016	-1e-05	2
5412	-0.00064	-4e-05	-8e-05	-0.00098	-0.00011	-5e-05	0.00016	-1e-05	2
5413	-0.00064	-4e-05	-8e-05	-0.00098	-0.00011	-5e-05	0.00016	-1e-05	2
5414	-0.00064	-4e-05	-8e-05	-0.00098	-0.00011	-5e-05	0.00016	-1e-05	2
5415	-0.00064	-4e-05	-8e-05	-0.00098	-0.00011	-5e-05	0.00016	-1e-05	2
5416	-0.00064	-4e-05	-8e-05	-0.00098	-0.00011	-5e-05	0.00016	-1e-05	2
5417	-0.00064	-4e-05	-8e-05	-0.00098	-0.00011	-5e-05	0.00016	-1e-05	2
5418	-0.00064	-4e-05	-8e-05	-0.00098	-0.00011	-5e-05	0.00016	-1e-05	2
5419	-0.00064	-4e-05	-8e-05	-0.00098	-0.00011	-5e-05	0.00016	-1e-05	2
5420	-0.00064	-4e-05	-8e-05	-0.00098	-0.00011	-5e-05	0.00016	-1e-05	2
5421	-0.00064	-4e-05	-8e-05	-0.00098	-0.00011	-5e-05	0.00016	-1e-05	2
5422	-0.00064	-4e-05	-8e-05	-0.00098	-0.00011	-5e-05	0.00016	-1e-05	2
5423	0.00028	4e-05	7e-05	0.00037	0.00011	-0.00042	-0.00031	8e-05	2
5424	0.00069	-5e-05	-4e-05	4e-05	-0.00021	-0.00015	1e-05	-1e-05	2
5425	-0.00116	-9e-05	-0.0001	0.00032	0.0003	0.00042	-0.00047	-0.00027	2
5426	-0.00116	-9e-05	-0.0001	0.00032	0.0003	0.00042	-0.00047	-0.00027	2
5427	-0.00116	-9e-05	-0.0001	0.00032	0.0003	0.00042	-0.00047	-0.00027	2
5428	-0.00116	-9e-05	-0.0001	0.00032	0.0003	0.00042	-0.00047	-0.00027	2
5429	-0.00116	-9e-05	-0.0001	0.00032	0.0003	0.00042	-0.00047	-0.00027	2
5430	-0.00116	-9e-05	-0.0001	0.00032	0.0003	0.00042	-0.00047	-0.00027	2
5431	-0.00116	-9e-05	-0.0001	0.00032	0.0003	0.00042	-0.00047	-0.00027	2
5432	-0.00116	-9e-05	-0.0001	0.00032	0.0003	0.00042	-0.00047	-0.00027	2
5433	-0.00116	-9e-05	-0.0001	0.00032	0.0003	0.00042	-0.00047	-0.00027	2
5434	-0.00116	-9e-05	-0.0001	0.00032	0.0003	0.00042	-0.00047	-0.00027	2
5435	-0.00116	-9e-05	-0.0001	0.00032	0.0003	0.00042	-0.00047	-0.00027	2
5436	-0.00116	-9e-05	-0.0001	0.00032	0.0003	0.00042	-0.00047	-0.00027	2
5438	-0.00116	-9e-05	-0.0001	0.00032	0.0003	0.00042	-0.00047	-0.00027	2
5439	-0.00116	-9e-05	-0.0001	0.00032	0.0003	0.00042	-0.00047	-0.00027	2
5440	-0.00116	-9e-05	-0.0001	0.00032	0.0003	0.00042	-0.00047	-0.00027	2
5441	-0.00116	-9e-05	-0.0001	0.00032	0.0003	0.00042	-0.00047	-0.00027	2
5442	-0.00116	-9e-05	-0.0001	0.00032	0.0003	0.00042	-0.00047	-0.00027	2
5443	-0.00116	-9e-05	-0.0001	0.00032	0.0003	0.00042	-0.00047	-0.00027	2
5444	-0.00116	-9e-05	-0.0001	0.00032	0.0003	0.00042	-0.00047	-0.00027	2
5445	0.00046	5e-05	3e-05	-0.00027	-0.0001	4e-05	0.00047	0.00025	2
5446	-0.0003	5e-05	0.00015	0.00039	5e-05	-0.00023	0.00079	0.00027	2
5447	0.00035	-6e-05	-0.0001	0	-6e-05	-0.00018	-0.00077	-0.00034	2
5448	0.00035	-6e-05	-0.0001	0	-6e-05	-0.00018	-0.00077	-0.00034	2
5449	0.00035	-6e-05	-0.0001	0	-6e-05	-0.00018	-0.00077	-0.00034	2
5450	0.00035	-6e-05	-0.0001	0	-6e-05	-0.00018	-0.00077	-0.00034	2
5451	0.00035	-6e-05	-0.0001	0	-6e-05	-0.00018	-0.00077	-0.00034	2
5452	0.00035	-6e-05	-0.0001	0	-6e-05	-0.00018	-0.00077	-0.00034	2
5453	0.00035	-6e-05	-0.0001	0	-6e-05	-0.00018	-0.00077	-0.00034	2
5454	0.00035	-6e-05	-0.0001	0	-6e-05	-0.00018	-0.00077	-0.00034	2
5455	0.00035	-6e-05	-0.0001	0	-6e-05	-0.00018	-0.00077	-0.00034	2
5456	0.00035	-6e-05	-0.0001	0	-6e-05	-0.00018	-0.00077	-0.00034	2
5457	0.00035	-6e-05	-0.0001	0	-6e-05	-0.00018	-0.00077	-0.00034	2
5458	0.00035	-6e-05	-0.0001	0	-6e-05	-0.00018	-0.00077	-0.00034	2
5459	0.00035	-6e-05	-0.0001	0	-6e-05	-0.00018	-0.00077	-0.00034	2
5460	0.00057	0	-1e-05	-9e-05	-0.00012	0.00031	-1e-05	-0.00022	2
5461	0.00057	0	-1e-05	-9e-05	-0.00012	0.00031	-1e-05	-0.00022	2
5462	0.00057	0	-1e-05	-9e-05	-0.00012	0.00031	-1e-05	-0.00022	2
5463	0.00057	0	-1e-05	-9e-05	-0.00012	0.00031	-1e-05	-0.00022	2
5464	0.00057	0	-1e-05	-9e-05	-0.00012	0.00031	-1e-05	-0.00022	2
5465	0.00057	0	-1e-05	-9e-05	-0.00012	0.00031	-1e-05	-0.00022	2
5466	-0.00053	0.0001	3e-05	-0.00022	3e-05	2e-05	0.00061	0.00039	2
5467	0.00039	-3e-05	5e-05	0.00034	0.00014	-2e-05	-0.00025	0.00011	2
5468	0.00039	-3e-05	5e-05	0.00034	0.00014	-2e-05	-0.00025	0.00011	2
5469	0.00039	-3e-05	5e-05	0.00034	0.00014	-2e-05	-0.00025	0.00011	2
5470	0.00039	-3e-05	5e-05	0.00034	0.00014	-2e-05	-0.00025	0.00011	2
5471	0.00039	-3e-05	5e-05	0.00034	0.00014	-2e-05	-0.00025	0.00011	2
5472	0.00039	-3e-05	5e-05	0.00034	0.00014	-2e-05	-0.00025	0.00011	2
5473	0.00039	-3e-05	5e-05	0.00034	0.00014	-2e-05	-0.00025	0.00011	2
5474	0.00039	-3e-05	5e-05	0.00034	0.00014	-2e-05	-0.00025	0.00011	2
5475	0.00039	-3e-05	5e-05	0.00034	0.00014	-2e-05	-0.00025	0.00011	2
5476	0.00039	-3e-05	5e-05	0.00034	0.00014	-2e-05	-0.00025	0.00011	2
5477	0.00039	-3e-05	5e-05	0.00034	0.00014	-2e-05	-0.00025	0.00011	2
5478	0.00039	-3e-05	5e-05	0.00034	0.00014	-2e-05	-0.00025	0.00011	2
5479	0.00039	-3e-05	5e-05	0.00034	0.00014	-2e-05	-0.00025	0.00011	2
5480	0.00039	-3e-05	5e-05	0.00034	0.00014	-2e-05	-0.00025	0.00011	2
5481	0.00039	-3e-05	5e-05	0.00034	0.00014	-2e-05	-0.00025	0.00011	2
5482	0.00039	-3e-05	5e-05	0.00034	0.00014	-2e-05	-0.00025	0.00011	2
5483	-0.00042	-1e-05	0	-0.00015	-2e-05	-4e-05	-8e-05	-5e-05	2
5484	-6e-05	-5e-05	-0.00018	-0.00031	0.00047	0.00027	-0.00029	2e-05	2
5485	-6e-05	-5e-05	-0.00018	-0.00031	0.00047	0.00027	-0.00029	2e-05	2
5486	-6e-05	-5e-05	-0.00018	-0.00031	0.00047	0.00027	-0.00029	2e-05	2
5488	-6e-05	-5e-05	-0.00018	-0.00031	0.00047	0.00027	-0.00029	2e-05	2
5489	-6e-05	-5e-05	-0.00018	-0.00031	0.00047	0.00027	-0.00029	2e-05	2
5490	-6e-05	-5e-05	-0.00018	-0.00031	0.00047	0.00027	-0.00029	2e-05	2
5491	-6e-05	-5e-05	-0.00018	-0.00031	0.00047	0.00027	-0.00029	2e-05	2
5492	-6e-05	-5e-05	-0.00018	-0.00031	0.00047	0.00027	-0.00029	2e-05	2
5493	-6e-05	-5e-05	-0.00018	-0.00031	0.00047	0.00027	-0.00029	2e-05	2
5494	-6e-05	-5e-05	-0.00018	-0.00031	0.00047	0.00027	-0.00029	2e-05	2
5495	-6e-05	-5e-05	-0.00018	-0.00031	0.00047	0.00027	-0.00029	2e-05	2
5496	-6e-05	-5e-05	-0.00018	-0.00031	0.00047	0.00027	-0.00029	2e-05	2
5497	-6e-05	-5e-05	-0.00018	-0.00031	0.00047	0.00027	-0.00029	2e-05	2
5498	-6e-05	-5e-05	-0.00018	-0.00031	0.00047	0.00027	-0.00029	2e-05	2
5499	-6e-05	-5e-05	-0.00018	-0.00031	0.00047	0.00027	-0.00029	2e-05	2
5500	-6e-05	-5e-05	-0.00018	-0.00031	0.00047	0.00027	-0.00029	2e-05	2
5501	-6e-05	-5e-05	-0.00018	-0.00031	0.00047	0.00027	-0.00029	2e-05	2
5502	-6e-05	-5e-05	-0.00018	-0.00031	0.00047	0.00027	-0.00029	2e-05	2
5503	-6e-05	-5e-05	-0.00018	-0.00031	0.00047	0.00027	-0.00029	2e-05	2
5504	-6e-05	-5e-05	-0.00018	-0.00031	0.00047	0.00027	-0.00029	2e-05	2
5505	-0.00041	-1e-05	-3e-05	0	-1e-05	8e-05	0.00061	5e-05	2
5506	-0.00041	-1e-05	-3e-05	0	-1e-05	8e-05	0.00061	5e-05	2
5507	0.00083	-3e-05	2e-05	0.00037	-0.00019	-0.00013	0.0003	2e-05	2
5508	0.00083	-3e-05	2e-05	0.00037	-0.00019	-0.00013	0.0003	2e-05	2
5509	0.00083	-3e-05	2e-05	0.00037	-0.00019	-0.00013	0.0003	2e-05	2
5510	0.00083	-3e-05	2e-05	0.00037	-0.00019	-0.00013	0.0003	2e-05	2
5511	0.00083	-3e-05	2e-05	0.00037	-0.00019	-0.00013	0.0003	2e-05	2
5512	0.00083	-3e-05	2e-05	0.00037	-0.00019	-0.00013	0.0003	2e-05	2
5513	0.00083	-3e-05	2e-05	0.00037	-0.00019	-0.00013	0.0003	2e-05	2
5514	0.00083	-3e-05	2e-05	0.00037	-0.00019	-0.00013	0.0003	2e-05	2
5516	0.00083	-3e-05	2e-05	0.00037	-0.00019	-0.00013	0.0003	2e-05	2
5517	0.00083	-3e-05	2e-05	0.00037	-0.00019	-0.00013	0.0003	2e-05	2
5518	0.00083	-3e-05	2e-05	0.00037	-0.00019	-0.00013	0.0003	2e-05	2
5519	0.00083	-3e-05	2e-05	0.00037	-0.00019	-0.00013	0.0003	2e-05	2
5520	0.0002	-7e-05	3e-05	0.00054	0.00027	0.00073	-0.00012	-0.00024	2
5521	0.0002	-7e-05	3e-05	0.00054	0.00027	0.00073	-0.00012	-0.00024	2
5522	0.0002	-7e-05	3e-05	0.00054	0.00027	0.00073	-0.00012	-0.00024	2
5523	0.0002	-7e-05	3e-05	0.00054	0.00027	0.00073	-0.00012	-0.00024	2
5524	0.0002	-7e-05	3e-05	0.00054	0.00027	0.00073	-0.00012	-0.00024	2
5525	0.0002	-7e-05	3e-05	0.00054	0.00027	0.00073	-0.00012	-0.00024	2
5526	0.0002	-7e-05	3e-05	0.00054	0.00027	0.00073	-0.00012	-0.00024	2
5527	6e-05	-8e-05	-0.0001	-0.00055	0.00033	0.00013	0.0007	-9e-05	2
5528	6e-05	-8e-05	-0.0001	-0.00055	0.00033	0.00013	0.0007	-9e-05	2
5529	6e-05	-8e-05	-0.0001	-0.00055	0.00033	0.00013	0.0007	-9e-05	2
5530	6e-05	-8e-05	-0.0001	-0.00055	0.00033	0.00013	0.0007	-9e-05	2
5531	6e-05	-8e-05	-0.0001	-0.00055	0.00033	0.00013	0.0007	-9e-05	2
5532	6e-05	-8e-05	-0.0001	-0.00055	0.00033	0.00013	0.0007	-9e-05	2
5533	6e-05	-8e-05	-0.0001	-0.00055	0.00033	0.00013	0.0007	-9e-05	2
5534	6e-05	-8e-05	-0.0001	-0.00055	0.00033	0.00013	0.0007	-9e-05	2
5535	6e-05	-8e-05	-0.0001	-0.00055	0.00033	0.00013	0.0007	-9e-05	2
5536	6e-05	-8e-05	-0.0001	-0.00055	0.00033	0.00013	0.0007	-9e-05	2
5538	6e-05	-8e-05	-0.0001	-0.00055	0.00033	0.00013	0.0007	-9e-05	2
5539	6e-05	-8e-05	-0.0001	-0.00055	0.00033	0.00013	0.0007	-9e-05	2
5540	6e-05	-8e-05	-0.0001	-0.00055	0.00033	0.00013	0.0007	-9e-05	2
5541	6e-05	-8e-05	-0.0001	-0.00055	0.00033	0.00013	0.0007	-9e-05	2
5542	6e-05	-8e-05	-0.0001	-0.00055	0.00033	0.00013	0.0007	-9e-05	2
5543	6e-05	-8e-05	-0.0001	-0.00055	0.00033	0.00013	0.0007	-9e-05	2
5544	0.00025	-2e-05	-6e-05	-0.00042	1e-05	9e-05	5e-05	0.00016	2
5545	0.00024	0.00021	6e-05	0.0001	0.00022	3e-05	-0.00028	-0.00014	2
5546	0.00024	0.00021	6e-05	0.0001	0.00022	3e-05	-0.00028	-0.00014	2
5547	0.00024	0.00021	6e-05	0.0001	0.00022	3e-05	-0.00028	-0.00014	2
5548	0.00024	0.00021	6e-05	0.0001	0.00022	3e-05	-0.00028	-0.00014	2
5549	0.00024	0.00021	6e-05	0.0001	0.00022	3e-05	-0.00028	-0.00014	2
5550	0.00024	0.00021	6e-05	0.0001	0.00022	3e-05	-0.00028	-0.00014	2
5551	0.00024	0.00021	6e-05	0.0001	0.00022	3e-05	-0.00028	-0.00014	2
5552	0.00024	0.00021	6e-05	0.0001	0.00022	3e-05	-0.00028	-0.00014	2
5553	0.00024	0.00021	6e-05	0.0001	0.00022	3e-05	-0.00028	-0.00014	2
5554	0.00024	0.00021	6e-05	0.0001	0.00022	3e-05	-0.00028	-0.00014	2
5555	0.00024	0.00021	6e-05	0.0001	0.00022	3e-05	-0.00028	-0.00014	2
5556	0.00024	0.00021	6e-05	0.0001	0.00022	3e-05	-0.00028	-0.00014	2
5557	0.00024	0.00021	6e-05	0.0001	0.00022	3e-05	-0.00028	-0.00014	2
5558	0.00024	0.00021	6e-05	0.0001	0.00022	3e-05	-0.00028	-0.00014	2
5559	0.00024	0.00021	6e-05	0.0001	0.00022	3e-05	-0.00028	-0.00014	2
5560	0.00024	0.00021	6e-05	0.0001	0.00022	3e-05	-0.00028	-0.00014	2
5561	0.00024	0.00021	6e-05	0.0001	0.00022	3e-05	-0.00028	-0.00014	2
5562	0.00024	0.00021	6e-05	0.0001	0.00022	3e-05	-0.00028	-0.00014	2
5563	0.00024	0.00021	6e-05	0.0001	0.00022	3e-05	-0.00028	-0.00014	2
5564	0.00024	0.00021	6e-05	0.0001	0.00022	3e-05	-0.00028	-0.00014	2
5565	-7e-05	-2e-05	-0.00013	-0.00087	-5e-05	-0.00017	-4e-05	-2e-05	2
5566	-0.00036	-6e-05	8e-05	-0.00024	3e-05	0.00011	0.0001	-6e-05	2
5567	-0.00029	7e-05	0.00013	0.00041	-0.00022	-0.00011	-0.00021	9e-05	2
5568	-0.00029	7e-05	0.00013	0.00041	-0.00022	-0.00011	-0.00021	9e-05	2
5569	-0.00029	7e-05	0.00013	0.00041	-0.00022	-0.00011	-0.00021	9e-05	2
5570	-0.00029	7e-05	0.00013	0.00041	-0.00022	-0.00011	-0.00021	9e-05	2
5571	-0.00029	7e-05	0.00013	0.00041	-0.00022	-0.00011	-0.00021	9e-05	2
5572	-0.00029	7e-05	0.00013	0.00041	-0.00022	-0.00011	-0.00021	9e-05	2
5573	-0.00029	7e-05	0.00013	0.00041	-0.00022	-0.00011	-0.00021	9e-05	2
5574	-0.00029	7e-05	0.00013	0.00041	-0.00022	-0.00011	-0.00021	9e-05	2
5575	-0.00029	7e-05	0.00013	0.00041	-0.00022	-0.00011	-0.00021	9e-05	2
5576	-0.00029	7e-05	0.00013	0.00041	-0.00022	-0.00011	-0.00021	9e-05	2
5577	-0.00029	7e-05	0.00013	0.00041	-0.00022	-0.00011	-0.00021	9e-05	2
5578	-0.00029	7e-05	0.00013	0.00041	-0.00022	-0.00011	-0.00021	9e-05	2
5579	-0.00029	7e-05	0.00013	0.00041	-0.00022	-0.00011	-0.00021	9e-05	2
5580	-0.00029	7e-05	0.00013	0.00041	-0.00022	-0.00011	-0.00021	9e-05	2
5581	-0.00029	7e-05	0.00013	0.00041	-0.00022	-0.00011	-0.00021	9e-05	2
5582	-0.00029	7e-05	0.00013	0.00041	-0.00022	-0.00011	-0.00021	9e-05	2
5583	-0.00029	7e-05	0.00013	0.00041	-0.00022	-0.00011	-0.00021	9e-05	2
5584	-0.00029	7e-05	0.00013	0.00041	-0.00022	-0.00011	-0.00021	9e-05	2
5585	-0.00029	7e-05	0.00013	0.00041	-0.00022	-0.00011	-0.00021	9e-05	2
5586	-0.00029	7e-05	0.00013	0.00041	-0.00022	-0.00011	-0.00021	9e-05	2
5588	-0.00031	-5e-05	-5e-05	-0.0004	5e-05	0.00015	0.0001	-4e-05	2
5589	0.00057	-7e-05	-3e-05	-0.00034	0	-0.00018	-0.00016	-0.00015	2
5590	0.00057	-7e-05	-3e-05	-0.00034	0	-0.00018	-0.00016	-0.00015	2
5591	0.00057	-7e-05	-3e-05	-0.00034	0	-0.00018	-0.00016	-0.00015	2
5592	0.00057	-7e-05	-3e-05	-0.00034	0	-0.00018	-0.00016	-0.00015	2
5593	0.00057	-7e-05	-3e-05	-0.00034	0	-0.00018	-0.00016	-0.00015	2
5594	0.00057	-7e-05	-3e-05	-0.00034	0	-0.00018	-0.00016	-0.00015	2
5595	0.00057	-7e-05	-3e-05	-0.00034	0	-0.00018	-0.00016	-0.00015	2
5596	-0.00012	-3e-05	4e-05	0.00011	-0.00021	-0.00013	0.00016	-4e-05	2
5597	-0.00012	-3e-05	4e-05	0.00011	-0.00021	-0.00013	0.00016	-4e-05	2
5598	-0.00012	-3e-05	4e-05	0.00011	-0.00021	-0.00013	0.00016	-4e-05	2
5599	-0.00012	-3e-05	4e-05	0.00011	-0.00021	-0.00013	0.00016	-4e-05	2
5600	-0.00012	-3e-05	4e-05	0.00011	-0.00021	-0.00013	0.00016	-4e-05	2
5601	-0.00012	-3e-05	4e-05	0.00011	-0.00021	-0.00013	0.00016	-4e-05	2
5602	-0.00012	-3e-05	4e-05	0.00011	-0.00021	-0.00013	0.00016	-4e-05	2
5603	-0.00026	-4e-05	-0.00029	-0.00056	0.00061	0.00052	-0.00037	0.00035	2
5604	6e-05	6e-05	0.00024	0.0012	0.00016	0.00016	0.00016	0.00023	2
5605	6e-05	6e-05	0.00024	0.0012	0.00016	0.00016	0.00016	0.00023	2
5606	6e-05	6e-05	0.00024	0.0012	0.00016	0.00016	0.00016	0.00023	2
5607	6e-05	6e-05	0.00024	0.0012	0.00016	0.00016	0.00016	0.00023	2
5608	6e-05	6e-05	0.00024	0.0012	0.00016	0.00016	0.00016	0.00023	2
5609	6e-05	6e-05	0.00024	0.0012	0.00016	0.00016	0.00016	0.00023	2
5610	6e-05	6e-05	0.00024	0.0012	0.00016	0.00016	0.00016	0.00023	2
5611	6e-05	6e-05	0.00024	0.0012	0.00016	0.00016	0.00016	0.00023	2
5612	6e-05	6e-05	0.00024	0.0012	0.00016	0.00016	0.00016	0.00023	2
5613	6e-05	6e-05	0.00024	0.0012	0.00016	0.00016	0.00016	0.00023	2
5614	6e-05	6e-05	0.00024	0.0012	0.00016	0.00016	0.00016	0.00023	2
5615	6e-05	6e-05	0.00024	0.0012	0.00016	0.00016	0.00016	0.00023	2
5616	6e-05	6e-05	0.00024	0.0012	0.00016	0.00016	0.00016	0.00023	2
5617	6e-05	6e-05	0.00024	0.0012	0.00016	0.00016	0.00016	0.00023	2
5618	6e-05	6e-05	0.00024	0.0012	0.00016	0.00016	0.00016	0.00023	2
5619	6e-05	6e-05	0.00024	0.0012	0.00016	0.00016	0.00016	0.00023	2
5620	6e-05	6e-05	0.00024	0.0012	0.00016	0.00016	0.00016	0.00023	2
5621	6e-05	6e-05	0.00024	0.0012	0.00016	0.00016	0.00016	0.00023	2
5622	6e-05	6e-05	0.00024	0.0012	0.00016	0.00016	0.00016	0.00023	2
5623	6e-05	6e-05	0.00024	0.0012	0.00016	0.00016	0.00016	0.00023	2
5624	6e-05	6e-05	0.00024	0.0012	0.00016	0.00016	0.00016	0.00023	2
5625	-0.00041	-5e-05	5e-05	0.0002	-0.00022	-0.00028	-0.00061	5e-05	2
5626	-0.00041	-5e-05	5e-05	0.0002	-0.00022	-0.00028	-0.00061	5e-05	2
5627	-0.0011	-2e-05	1e-05	5e-05	-0.00016	-0.00038	-0.0003	-4e-05	2
5628	-0.0011	-2e-05	1e-05	5e-05	-0.00016	-0.00038	-0.0003	-4e-05	2
5629	-0.0011	-2e-05	1e-05	5e-05	-0.00016	-0.00038	-0.0003	-4e-05	2
5630	-0.0011	-2e-05	1e-05	5e-05	-0.00016	-0.00038	-0.0003	-4e-05	2
5631	-0.0011	-2e-05	1e-05	5e-05	-0.00016	-0.00038	-0.0003	-4e-05	2
5632	-0.0011	-2e-05	1e-05	5e-05	-0.00016	-0.00038	-0.0003	-4e-05	2
5633	-0.0011	-2e-05	1e-05	5e-05	-0.00016	-0.00038	-0.0003	-4e-05	2
5634	-0.0011	-2e-05	1e-05	5e-05	-0.00016	-0.00038	-0.0003	-4e-05	2
5635	-0.0011	-2e-05	1e-05	5e-05	-0.00016	-0.00038	-0.0003	-4e-05	2
5636	-0.0011	-2e-05	1e-05	5e-05	-0.00016	-0.00038	-0.0003	-4e-05	2
5638	-0.0011	-2e-05	1e-05	5e-05	-0.00016	-0.00038	-0.0003	-4e-05	2
5639	-0.0011	-2e-05	1e-05	5e-05	-0.00016	-0.00038	-0.0003	-4e-05	2
5640	0	6e-05	5e-05	0.00012	-2e-05	-4e-05	-0.0001	-7e-05	2
5641	0	6e-05	5e-05	0.00012	-2e-05	-4e-05	-0.0001	-7e-05	2
5642	0	6e-05	5e-05	0.00012	-2e-05	-4e-05	-0.0001	-7e-05	2
5643	0	6e-05	5e-05	0.00012	-2e-05	-4e-05	-0.0001	-7e-05	2
5644	0	6e-05	5e-05	0.00012	-2e-05	-4e-05	-0.0001	-7e-05	2
5645	0	6e-05	5e-05	0.00012	-2e-05	-4e-05	-0.0001	-7e-05	2
5646	0	6e-05	5e-05	0.00012	-2e-05	-4e-05	-0.0001	-7e-05	2
5647	0	6e-05	5e-05	0.00012	-2e-05	-4e-05	-0.0001	-7e-05	2
5648	0.00052	4e-05	5e-05	-0.00023	-1e-05	0	0.00021	9e-05	2
5649	0.00052	4e-05	5e-05	-0.00023	-1e-05	0	0.00021	9e-05	2
5650	0.00052	4e-05	5e-05	-0.00023	-1e-05	0	0.00021	9e-05	2
5651	0.00052	4e-05	5e-05	-0.00023	-1e-05	0	0.00021	9e-05	2
5652	0.00052	4e-05	5e-05	-0.00023	-1e-05	0	0.00021	9e-05	2
5653	0.00052	4e-05	5e-05	-0.00023	-1e-05	0	0.00021	9e-05	2
5654	0.00052	4e-05	5e-05	-0.00023	-1e-05	0	0.00021	9e-05	2
5655	0.00052	4e-05	5e-05	-0.00023	-1e-05	0	0.00021	9e-05	2
5656	0.00052	4e-05	5e-05	-0.00023	-1e-05	0	0.00021	9e-05	2
5657	0.00052	4e-05	5e-05	-0.00023	-1e-05	0	0.00021	9e-05	2
5658	0.00052	4e-05	5e-05	-0.00023	-1e-05	0	0.00021	9e-05	2
5659	0.00052	4e-05	5e-05	-0.00023	-1e-05	0	0.00021	9e-05	2
5660	0.00052	4e-05	5e-05	-0.00023	-1e-05	0	0.00021	9e-05	2
5661	0.00052	4e-05	5e-05	-0.00023	-1e-05	0	0.00021	9e-05	2
5662	0.00052	4e-05	5e-05	-0.00023	-1e-05	0	0.00021	9e-05	2
5663	-3e-05	0	-6e-05	-0.00022	4e-05	5e-05	0.00056	9e-05	2
5664	-0.00025	6e-05	0.00027	0.00023	-0.00049	-0.00024	-0.00028	9e-05	2
5665	-0.00025	6e-05	0.00027	0.00023	-0.00049	-0.00024	-0.00028	9e-05	2
5666	-0.00025	6e-05	0.00027	0.00023	-0.00049	-0.00024	-0.00028	9e-05	2
5667	-0.00025	6e-05	0.00027	0.00023	-0.00049	-0.00024	-0.00028	9e-05	2
5668	-0.00025	6e-05	0.00027	0.00023	-0.00049	-0.00024	-0.00028	9e-05	2
5669	-0.00025	6e-05	0.00027	0.00023	-0.00049	-0.00024	-0.00028	9e-05	2
5670	-0.00025	6e-05	0.00027	0.00023	-0.00049	-0.00024	-0.00028	9e-05	2
5671	-0.00025	6e-05	0.00027	0.00023	-0.00049	-0.00024	-0.00028	9e-05	2
5672	-0.00025	6e-05	0.00027	0.00023	-0.00049	-0.00024	-0.00028	9e-05	2
5673	-0.00025	6e-05	0.00027	0.00023	-0.00049	-0.00024	-0.00028	9e-05	2
5674	-0.00025	6e-05	0.00027	0.00023	-0.00049	-0.00024	-0.00028	9e-05	2
5675	-0.00025	6e-05	0.00027	0.00023	-0.00049	-0.00024	-0.00028	9e-05	2
5676	-0.00025	6e-05	0.00027	0.00023	-0.00049	-0.00024	-0.00028	9e-05	2
5677	-0.00025	6e-05	0.00027	0.00023	-0.00049	-0.00024	-0.00028	9e-05	2
5678	-0.00025	6e-05	0.00027	0.00023	-0.00049	-0.00024	-0.00028	9e-05	2
5679	-0.00025	6e-05	0.00027	0.00023	-0.00049	-0.00024	-0.00028	9e-05	2
5680	-0.00025	6e-05	0.00027	0.00023	-0.00049	-0.00024	-0.00028	9e-05	2
5681	-0.00025	6e-05	0.00027	0.00023	-0.00049	-0.00024	-0.00028	9e-05	2
5682	-0.00025	6e-05	0.00027	0.00023	-0.00049	-0.00024	-0.00028	9e-05	2
5683	-0.00025	6e-05	0.00027	0.00023	-0.00049	-0.00024	-0.00028	9e-05	2
5684	-0.00025	6e-05	0.00027	0.00023	-0.00049	-0.00024	-0.00028	9e-05	2
5685	0.0001	-1e-05	5e-05	0.0008	-0.00011	0.00068	0.00089	-2e-05	2
5686	0.0001	-1e-05	5e-05	0.0008	-0.00011	0.00068	0.00089	-2e-05	2
5688	-0.00031	8e-05	0.0001	0.00019	-0.00023	-8e-05	0.00031	-9e-05	2
5689	-0.00031	8e-05	0.0001	0.00019	-0.00023	-8e-05	0.00031	-9e-05	2
5690	-0.00031	8e-05	0.0001	0.00019	-0.00023	-8e-05	0.00031	-9e-05	2
5691	-0.00031	8e-05	0.0001	0.00019	-0.00023	-8e-05	0.00031	-9e-05	2
5692	-0.00031	8e-05	0.0001	0.00019	-0.00023	-8e-05	0.00031	-9e-05	2
5693	-0.00031	8e-05	0.0001	0.00019	-0.00023	-8e-05	0.00031	-9e-05	2
5694	-0.00031	8e-05	0.0001	0.00019	-0.00023	-8e-05	0.00031	-9e-05	2
5695	-0.00031	8e-05	0.0001	0.00019	-0.00023	-8e-05	0.00031	-9e-05	2
5696	-0.00031	8e-05	0.0001	0.00019	-0.00023	-8e-05	0.00031	-9e-05	2
5697	-0.00031	8e-05	0.0001	0.00019	-0.00023	-8e-05	0.00031	-9e-05	2
5698	-0.00031	8e-05	0.0001	0.00019	-0.00023	-8e-05	0.00031	-9e-05	2
5699	-0.00031	8e-05	0.0001	0.00019	-0.00023	-8e-05	0.00031	-9e-05	2
5700	-0.0005	5e-05	9e-05	-0.0002	-8e-05	-0.00015	0.00095	2e-05	2
5702	-0.0005	5e-05	9e-05	-0.0002	-8e-05	-0.00015	0.00095	2e-05	2
5703	-0.0005	5e-05	9e-05	-0.0002	-8e-05	-0.00015	0.00095	2e-05	2
5704	-0.0005	5e-05	9e-05	-0.0002	-8e-05	-0.00015	0.00095	2e-05	2
5705	-0.0005	5e-05	9e-05	-0.0002	-8e-05	-0.00015	0.00095	2e-05	2
5706	-0.0005	5e-05	9e-05	-0.0002	-8e-05	-0.00015	0.00095	2e-05	2
5707	-0.0005	5e-05	9e-05	-0.0002	-8e-05	-0.00015	0.00095	2e-05	2
5708	-0.0005	5e-05	9e-05	-0.0002	-8e-05	-0.00015	0.00095	2e-05	2
5709	-0.0005	5e-05	9e-05	-0.0002	-8e-05	-0.00015	0.00095	2e-05	2
5710	-0.0005	5e-05	9e-05	-0.0002	-8e-05	-0.00015	0.00095	2e-05	2
5711	-0.0005	5e-05	9e-05	-0.0002	-8e-05	-0.00015	0.00095	2e-05	2
5712	-0.0005	5e-05	9e-05	-0.0002	-8e-05	-0.00015	0.00095	2e-05	2
5714	0.00082	-7e-05	-0.00015	-0.00019	4e-05	-1e-05	-2e-05	-4e-05	2
5715	0.00082	-7e-05	-0.00015	-0.00019	4e-05	-1e-05	-2e-05	-4e-05	2
5716	0.00082	-7e-05	-0.00015	-0.00019	4e-05	-1e-05	-2e-05	-4e-05	2
5717	0.00082	-7e-05	-0.00015	-0.00019	4e-05	-1e-05	-2e-05	-4e-05	2
5718	0.00082	-7e-05	-0.00015	-0.00019	4e-05	-1e-05	-2e-05	-4e-05	2
5719	0.00082	-7e-05	-0.00015	-0.00019	4e-05	-1e-05	-2e-05	-4e-05	2
5720	0.00082	-7e-05	-0.00015	-0.00019	4e-05	-1e-05	-2e-05	-4e-05	2
5721	0.00082	-7e-05	-0.00015	-0.00019	4e-05	-1e-05	-2e-05	-4e-05	2
5722	0.00082	-7e-05	-0.00015	-0.00019	4e-05	-1e-05	-2e-05	-4e-05	2
5723	0.00123	-2e-05	-7e-05	0.00026	3e-05	-0.00016	0.00023	0.00018	2
5724	-0.00044	0.0001	0.00015	0.00035	0.00011	0.00027	-0.00052	-2e-05	2
5725	-0.00056	-2e-05	-0.0002	-0.0007	7e-05	-0.00018	0.00013	-0.0003	2
5726	-0.00056	-2e-05	-0.0002	-0.0007	7e-05	-0.00018	0.00013	-0.0003	2
5727	-0.00056	-2e-05	-0.0002	-0.0007	7e-05	-0.00018	0.00013	-0.0003	2
5728	-0.00056	-2e-05	-0.0002	-0.0007	7e-05	-0.00018	0.00013	-0.0003	2
5729	-0.00056	-2e-05	-0.0002	-0.0007	7e-05	-0.00018	0.00013	-0.0003	2
5730	-0.00056	-2e-05	-0.0002	-0.0007	7e-05	-0.00018	0.00013	-0.0003	2
5731	-0.00056	-2e-05	-0.0002	-0.0007	7e-05	-0.00018	0.00013	-0.0003	2
5732	-0.00056	-2e-05	-0.0002	-0.0007	7e-05	-0.00018	0.00013	-0.0003	2
5733	-0.00056	-2e-05	-0.0002	-0.0007	7e-05	-0.00018	0.00013	-0.0003	2
5734	-0.00056	-2e-05	-0.0002	-0.0007	7e-05	-0.00018	0.00013	-0.0003	2
5735	-0.00056	-2e-05	-0.0002	-0.0007	7e-05	-0.00018	0.00013	-0.0003	2
5736	-0.00056	-2e-05	-0.0002	-0.0007	7e-05	-0.00018	0.00013	-0.0003	2
5738	-0.00056	-2e-05	-0.0002	-0.0007	7e-05	-0.00018	0.00013	-0.0003	2
5739	-0.00056	-2e-05	-0.0002	-0.0007	7e-05	-0.00018	0.00013	-0.0003	2
5740	-0.00056	-2e-05	-0.0002	-0.0007	7e-05	-0.00018	0.00013	-0.0003	2
5741	-0.00056	-2e-05	-0.0002	-0.0007	7e-05	-0.00018	0.00013	-0.0003	2
5742	-0.00056	-2e-05	-0.0002	-0.0007	7e-05	-0.00018	0.00013	-0.0003	2
5743	-0.00056	-2e-05	-0.0002	-0.0007	7e-05	-0.00018	0.00013	-0.0003	2
5744	-0.00056	-2e-05	-0.0002	-0.0007	7e-05	-0.00018	0.00013	-0.0003	2
5745	0.0008	-3e-05	-2e-05	-0.00022	-0.00024	-0.00029	-0.00076	0.00014	2
5746	-0.00105	4e-05	0.00016	0.00038	-0.00036	-0.00032	-0.00036	0	2
5747	1e-05	-1e-05	5e-05	0.00067	-4e-05	0.00023	-8e-05	-3e-05	2
5748	1e-05	-1e-05	5e-05	0.00067	-4e-05	0.00023	-8e-05	-3e-05	2
5749	1e-05	-1e-05	5e-05	0.00067	-4e-05	0.00023	-8e-05	-3e-05	2
5750	1e-05	-1e-05	5e-05	0.00067	-4e-05	0.00023	-8e-05	-3e-05	2
5751	1e-05	-1e-05	5e-05	0.00067	-4e-05	0.00023	-8e-05	-3e-05	2
5752	1e-05	-1e-05	5e-05	0.00067	-4e-05	0.00023	-8e-05	-3e-05	2
5753	1e-05	-1e-05	5e-05	0.00067	-4e-05	0.00023	-8e-05	-3e-05	2
5754	1e-05	-1e-05	5e-05	0.00067	-4e-05	0.00023	-8e-05	-3e-05	2
5755	1e-05	-1e-05	5e-05	0.00067	-4e-05	0.00023	-8e-05	-3e-05	2
5756	1e-05	-1e-05	5e-05	0.00067	-4e-05	0.00023	-8e-05	-3e-05	2
5757	1e-05	-1e-05	5e-05	0.00067	-4e-05	0.00023	-8e-05	-3e-05	2
5758	1e-05	-1e-05	5e-05	0.00067	-4e-05	0.00023	-8e-05	-3e-05	2
5759	-0.00011	-2e-05	4e-05	2e-05	-0.00029	3e-05	0.00018	-2e-05	2
5760	-0.00011	-2e-05	4e-05	2e-05	-0.00029	3e-05	0.00018	-2e-05	2
5761	-0.00011	-2e-05	4e-05	2e-05	-0.00029	3e-05	0.00018	-2e-05	2
5762	-0.00011	-2e-05	4e-05	2e-05	-0.00029	3e-05	0.00018	-2e-05	2
5763	-0.00011	-2e-05	4e-05	2e-05	-0.00029	3e-05	0.00018	-2e-05	2
5764	-0.00011	-2e-05	4e-05	2e-05	-0.00029	3e-05	0.00018	-2e-05	2
5765	-0.00011	-2e-05	4e-05	2e-05	-0.00029	3e-05	0.00018	-2e-05	2
5766	-0.00011	-2e-05	4e-05	2e-05	-0.00029	3e-05	0.00018	-2e-05	2
5767	-0.00011	-2e-05	4e-05	2e-05	-0.00029	3e-05	0.00018	-2e-05	2
5768	-0.00023	-0.00015	-0.00041	-0.00085	0.00041	5e-05	-0.00037	-0.00043	2
5769	-0.00023	-0.00015	-0.00041	-0.00085	0.00041	5e-05	-0.00037	-0.00043	2
5770	-0.00023	-0.00015	-0.00041	-0.00085	0.00041	5e-05	-0.00037	-0.00043	2
5771	-0.00023	-0.00015	-0.00041	-0.00085	0.00041	5e-05	-0.00037	-0.00043	2
5772	-0.00023	-0.00015	-0.00041	-0.00085	0.00041	5e-05	-0.00037	-0.00043	2
5773	-0.00023	-0.00015	-0.00041	-0.00085	0.00041	5e-05	-0.00037	-0.00043	2
5774	-0.00023	-0.00015	-0.00041	-0.00085	0.00041	5e-05	-0.00037	-0.00043	2
5775	-0.00023	-0.00015	-0.00041	-0.00085	0.00041	5e-05	-0.00037	-0.00043	2
5776	-0.00023	-0.00015	-0.00041	-0.00085	0.00041	5e-05	-0.00037	-0.00043	2
5777	-0.00023	-0.00015	-0.00041	-0.00085	0.00041	5e-05	-0.00037	-0.00043	2
5778	-0.00023	-0.00015	-0.00041	-0.00085	0.00041	5e-05	-0.00037	-0.00043	2
5779	-0.00023	-0.00015	-0.00041	-0.00085	0.00041	5e-05	-0.00037	-0.00043	2
5780	-0.00023	-0.00015	-0.00041	-0.00085	0.00041	5e-05	-0.00037	-0.00043	2
5781	-0.00023	-0.00015	-0.00041	-0.00085	0.00041	5e-05	-0.00037	-0.00043	2
5782	-0.00023	-0.00015	-0.00041	-0.00085	0.00041	5e-05	-0.00037	-0.00043	2
5783	-0.00028	2e-05	1e-05	0.00017	0	-0.00019	-0.00054	-4e-05	2
5784	-0.00018	-3e-05	-8e-05	-0.00042	-5e-05	2e-05	0.00039	-0.00016	2
5785	0.00071	3e-05	-3e-05	0.00016	5e-05	-4e-05	-0.00033	0.0002	2
5786	0.00071	3e-05	-3e-05	0.00016	5e-05	-4e-05	-0.00033	0.0002	2
5788	0.00071	3e-05	-3e-05	0.00016	5e-05	-4e-05	-0.00033	0.0002	2
5789	0.00071	3e-05	-3e-05	0.00016	5e-05	-4e-05	-0.00033	0.0002	2
5790	0.00071	3e-05	-3e-05	0.00016	5e-05	-4e-05	-0.00033	0.0002	2
5791	0.00071	3e-05	-3e-05	0.00016	5e-05	-4e-05	-0.00033	0.0002	2
5792	0.00071	3e-05	-3e-05	0.00016	5e-05	-4e-05	-0.00033	0.0002	2
5793	0.00071	3e-05	-3e-05	0.00016	5e-05	-4e-05	-0.00033	0.0002	2
5794	0.00071	3e-05	-3e-05	0.00016	5e-05	-4e-05	-0.00033	0.0002	2
5795	0.00071	3e-05	-3e-05	0.00016	5e-05	-4e-05	-0.00033	0.0002	2
5796	0.00071	3e-05	-3e-05	0.00016	5e-05	-4e-05	-0.00033	0.0002	2
5797	0.00071	3e-05	-3e-05	0.00016	5e-05	-4e-05	-0.00033	0.0002	2
5798	0.00071	3e-05	-3e-05	0.00016	5e-05	-4e-05	-0.00033	0.0002	2
5799	0.00071	3e-05	-3e-05	0.00016	5e-05	-4e-05	-0.00033	0.0002	2
5800	0.00071	3e-05	-3e-05	0.00016	5e-05	-4e-05	-0.00033	0.0002	2
5801	0.00071	3e-05	-3e-05	0.00016	5e-05	-4e-05	-0.00033	0.0002	2
5802	0.00071	3e-05	-3e-05	0.00016	5e-05	-4e-05	-0.00033	0.0002	2
5803	0.00071	3e-05	-3e-05	0.00016	5e-05	-4e-05	-0.00033	0.0002	2
5804	0.00071	3e-05	-3e-05	0.00016	5e-05	-4e-05	-0.00033	0.0002	2
5805	0.00014	-0.00012	-0.00017	-0.00052	0.00019	0.00094	0.00027	-8e-05	2
5806	0	2e-05	-2e-05	0	-0.00022	-0.00039	0	0.00021	2
5807	0.00046	-9e-05	5e-05	0.0009	0.00012	-6e-05	0.00022	0.00013	2
5808	0.00046	-9e-05	5e-05	0.0009	0.00012	-6e-05	0.00022	0.00013	2
5809	0.00046	-9e-05	5e-05	0.0009	0.00012	-6e-05	0.00022	0.00013	2
5810	0.00046	-9e-05	5e-05	0.0009	0.00012	-6e-05	0.00022	0.00013	2
5811	0.00046	-9e-05	5e-05	0.0009	0.00012	-6e-05	0.00022	0.00013	2
5812	0.00046	-9e-05	5e-05	0.0009	0.00012	-6e-05	0.00022	0.00013	2
5813	0.00046	-9e-05	5e-05	0.0009	0.00012	-6e-05	0.00022	0.00013	2
5814	0.00046	-9e-05	5e-05	0.0009	0.00012	-6e-05	0.00022	0.00013	2
5815	0.00046	-9e-05	5e-05	0.0009	0.00012	-6e-05	0.00022	0.00013	2
5816	0.00046	-9e-05	5e-05	0.0009	0.00012	-6e-05	0.00022	0.00013	2
5817	0.00046	-9e-05	5e-05	0.0009	0.00012	-6e-05	0.00022	0.00013	2
5818	0.00046	-9e-05	5e-05	0.0009	0.00012	-6e-05	0.00022	0.00013	2
5819	-9e-05	0.00011	0.00013	0.00073	-0.00012	-0.00035	-0.0009	-0.00019	2
5820	-9e-05	0.00011	0.00013	0.00073	-0.00012	-0.00035	-0.0009	-0.00019	2
5821	-9e-05	0.00011	0.00013	0.00073	-0.00012	-0.00035	-0.0009	-0.00019	2
5822	-9e-05	0.00011	0.00013	0.00073	-0.00012	-0.00035	-0.0009	-0.00019	2
5823	-9e-05	0.00011	0.00013	0.00073	-0.00012	-0.00035	-0.0009	-0.00019	2
5824	-9e-05	0.00011	0.00013	0.00073	-0.00012	-0.00035	-0.0009	-0.00019	2
5825	-9e-05	0.00011	0.00013	0.00073	-0.00012	-0.00035	-0.0009	-0.00019	2
5826	-9e-05	0.00011	0.00013	0.00073	-0.00012	-0.00035	-0.0009	-0.00019	2
5827	-9e-05	0.00011	0.00013	0.00073	-0.00012	-0.00035	-0.0009	-0.00019	2
5828	-0.00023	-7e-05	-0.00012	-0.00018	-0.00023	0.00027	-0.00038	0.00013	2
5830	-0.00023	-7e-05	-0.00012	-0.00018	-0.00023	0.00027	-0.00038	0.00013	2
5831	-0.00023	-7e-05	-0.00012	-0.00018	-0.00023	0.00027	-0.00038	0.00013	2
5832	-0.00023	-7e-05	-0.00012	-0.00018	-0.00023	0.00027	-0.00038	0.00013	2
5833	-0.00023	-7e-05	-0.00012	-0.00018	-0.00023	0.00027	-0.00038	0.00013	2
5834	-0.00023	-7e-05	-0.00012	-0.00018	-0.00023	0.00027	-0.00038	0.00013	2
5835	-0.00023	-7e-05	-0.00012	-0.00018	-0.00023	0.00027	-0.00038	0.00013	2
5836	-0.00023	-7e-05	-0.00012	-0.00018	-0.00023	0.00027	-0.00038	0.00013	2
5838	-0.00023	-7e-05	-0.00012	-0.00018	-0.00023	0.00027	-0.00038	0.00013	2
5839	-0.00023	-7e-05	-0.00012	-0.00018	-0.00023	0.00027	-0.00038	0.00013	2
5840	-0.00023	-7e-05	-0.00012	-0.00018	-0.00023	0.00027	-0.00038	0.00013	2
5841	-0.00023	-7e-05	-0.00012	-0.00018	-0.00023	0.00027	-0.00038	0.00013	2
5842	-0.00023	-7e-05	-0.00012	-0.00018	-0.00023	0.00027	-0.00038	0.00013	2
5843	-0.00075	-0.00016	-0.00023	-0.00027	0.00011	-0.00017	4e-05	-8e-05	2
5844	-0.00075	-0.00016	-0.00023	-0.00027	0.00011	-0.00017	4e-05	-8e-05	2
5845	-1e-05	6e-05	0.00014	0.00019	-0.00011	0.00063	-0.00044	-1e-05	2
5846	-1e-05	6e-05	0.00014	0.00019	-0.00011	0.00063	-0.00044	-1e-05	2
5847	-1e-05	6e-05	0.00014	0.00019	-0.00011	0.00063	-0.00044	-1e-05	2
5848	-1e-05	6e-05	0.00014	0.00019	-0.00011	0.00063	-0.00044	-1e-05	2
5849	-1e-05	6e-05	0.00014	0.00019	-0.00011	0.00063	-0.00044	-1e-05	2
5850	-1e-05	6e-05	0.00014	0.00019	-0.00011	0.00063	-0.00044	-1e-05	2
5851	-1e-05	6e-05	0.00014	0.00019	-0.00011	0.00063	-0.00044	-1e-05	2
5852	-1e-05	6e-05	0.00014	0.00019	-0.00011	0.00063	-0.00044	-1e-05	2
5853	-1e-05	6e-05	0.00014	0.00019	-0.00011	0.00063	-0.00044	-1e-05	2
5854	-1e-05	6e-05	0.00014	0.00019	-0.00011	0.00063	-0.00044	-1e-05	2
5855	-1e-05	6e-05	0.00014	0.00019	-0.00011	0.00063	-0.00044	-1e-05	2
5856	-1e-05	6e-05	0.00014	0.00019	-0.00011	0.00063	-0.00044	-1e-05	2
5857	-1e-05	6e-05	0.00014	0.00019	-0.00011	0.00063	-0.00044	-1e-05	2
5858	-1e-05	6e-05	0.00014	0.00019	-0.00011	0.00063	-0.00044	-1e-05	2
5859	-1e-05	6e-05	0.00014	0.00019	-0.00011	0.00063	-0.00044	-1e-05	2
5860	-1e-05	6e-05	0.00014	0.00019	-0.00011	0.00063	-0.00044	-1e-05	2
5861	-1e-05	6e-05	0.00014	0.00019	-0.00011	0.00063	-0.00044	-1e-05	2
5862	-1e-05	6e-05	0.00014	0.00019	-0.00011	0.00063	-0.00044	-1e-05	2
5863	-1e-05	6e-05	0.00014	0.00019	-0.00011	0.00063	-0.00044	-1e-05	2
5864	-1e-05	6e-05	0.00014	0.00019	-0.00011	0.00063	-0.00044	-1e-05	2
5865	0.00022	4e-05	5e-05	0.00047	3e-05	-0.00022	-0.00018	6e-05	2
5866	0.00022	4e-05	5e-05	0.00047	3e-05	-0.00022	-0.00018	6e-05	2
5867	-0.00029	-1e-05	-0.00018	-0.0005	0.00021	-5e-05	0.00065	0.00011	2
5868	-0.00029	-1e-05	-0.00018	-0.0005	0.00021	-5e-05	0.00065	0.00011	2
5869	-0.00029	-1e-05	-0.00018	-0.0005	0.00021	-5e-05	0.00065	0.00011	2
5870	-0.00029	-1e-05	-0.00018	-0.0005	0.00021	-5e-05	0.00065	0.00011	2
5871	-0.00029	-1e-05	-0.00018	-0.0005	0.00021	-5e-05	0.00065	0.00011	2
5872	-0.00029	-1e-05	-0.00018	-0.0005	0.00021	-5e-05	0.00065	0.00011	2
5873	-0.00029	-1e-05	-0.00018	-0.0005	0.00021	-5e-05	0.00065	0.00011	2
5874	-0.00029	-1e-05	-0.00018	-0.0005	0.00021	-5e-05	0.00065	0.00011	2
5875	-0.00029	-1e-05	-0.00018	-0.0005	0.00021	-5e-05	0.00065	0.00011	2
5876	-0.00029	-1e-05	-0.00018	-0.0005	0.00021	-5e-05	0.00065	0.00011	2
5877	-0.00029	-1e-05	-0.00018	-0.0005	0.00021	-5e-05	0.00065	0.00011	2
5878	-0.00029	-1e-05	-0.00018	-0.0005	0.00021	-5e-05	0.00065	0.00011	2
5879	0.00052	0.00015	0.00013	0.00098	0.00012	0.00051	0.00044	0.00031	2
5880	0.00052	0.00015	0.00013	0.00098	0.00012	0.00051	0.00044	0.00031	2
5881	0.00052	0.00015	0.00013	0.00098	0.00012	0.00051	0.00044	0.00031	2
5882	0.00052	0.00015	0.00013	0.00098	0.00012	0.00051	0.00044	0.00031	2
5883	0.00052	0.00015	0.00013	0.00098	0.00012	0.00051	0.00044	0.00031	2
5884	0.00052	0.00015	0.00013	0.00098	0.00012	0.00051	0.00044	0.00031	2
5885	0.00052	0.00015	0.00013	0.00098	0.00012	0.00051	0.00044	0.00031	2
5886	0.00052	0.00015	0.00013	0.00098	0.00012	0.00051	0.00044	0.00031	2
5889	0.00081	4e-05	0.00011	0.0002	-9e-05	-4e-05	-8e-05	0.00011	2
5890	0.00081	4e-05	0.00011	0.0002	-9e-05	-4e-05	-8e-05	0.00011	2
5891	0.00081	4e-05	0.00011	0.0002	-9e-05	-4e-05	-8e-05	0.00011	2
5892	0.00081	4e-05	0.00011	0.0002	-9e-05	-4e-05	-8e-05	0.00011	2
5893	0.00081	4e-05	0.00011	0.0002	-9e-05	-4e-05	-8e-05	0.00011	2
5894	0.00081	4e-05	0.00011	0.0002	-9e-05	-4e-05	-8e-05	0.00011	2
5895	0.00081	4e-05	0.00011	0.0002	-9e-05	-4e-05	-8e-05	0.00011	2
5896	0.00081	4e-05	0.00011	0.0002	-9e-05	-4e-05	-8e-05	0.00011	2
5897	0.00081	4e-05	0.00011	0.0002	-9e-05	-4e-05	-8e-05	0.00011	2
5898	0.00081	4e-05	0.00011	0.0002	-9e-05	-4e-05	-8e-05	0.00011	2
5899	0.00081	4e-05	0.00011	0.0002	-9e-05	-4e-05	-8e-05	0.00011	2
5900	0.00081	4e-05	0.00011	0.0002	-9e-05	-4e-05	-8e-05	0.00011	2
5901	0.00081	4e-05	0.00011	0.0002	-9e-05	-4e-05	-8e-05	0.00011	2
5902	0.00081	4e-05	0.00011	0.0002	-9e-05	-4e-05	-8e-05	0.00011	2
5903	0.00034	-4e-05	-0.00014	-0.00052	-7e-05	-0.00055	-2e-05	-0.00033	2
5904	-0.00039	9e-05	4e-05	7e-05	-6e-05	0.00026	-8e-05	-0.00018	2
5905	-0.00039	9e-05	4e-05	7e-05	-6e-05	0.00026	-8e-05	-0.00018	2
5906	-0.00039	9e-05	4e-05	7e-05	-6e-05	0.00026	-8e-05	-0.00018	2
5907	-0.00039	9e-05	4e-05	7e-05	-6e-05	0.00026	-8e-05	-0.00018	2
5908	-0.00039	9e-05	4e-05	7e-05	-6e-05	0.00026	-8e-05	-0.00018	2
5909	-0.00039	9e-05	4e-05	7e-05	-6e-05	0.00026	-8e-05	-0.00018	2
5910	-0.00039	9e-05	4e-05	7e-05	-6e-05	0.00026	-8e-05	-0.00018	2
5911	-0.00039	9e-05	4e-05	7e-05	-6e-05	0.00026	-8e-05	-0.00018	2
5912	-0.00039	9e-05	4e-05	7e-05	-6e-05	0.00026	-8e-05	-0.00018	2
5913	-0.00039	9e-05	4e-05	7e-05	-6e-05	0.00026	-8e-05	-0.00018	2
5914	-0.00039	9e-05	4e-05	7e-05	-6e-05	0.00026	-8e-05	-0.00018	2
5915	-0.00039	9e-05	4e-05	7e-05	-6e-05	0.00026	-8e-05	-0.00018	2
5916	-0.00039	9e-05	4e-05	7e-05	-6e-05	0.00026	-8e-05	-0.00018	2
5917	-0.00039	9e-05	4e-05	7e-05	-6e-05	0.00026	-8e-05	-0.00018	2
5918	-0.00039	9e-05	4e-05	7e-05	-6e-05	0.00026	-8e-05	-0.00018	2
5919	-0.00039	9e-05	4e-05	7e-05	-6e-05	0.00026	-8e-05	-0.00018	2
5920	-0.00039	9e-05	4e-05	7e-05	-6e-05	0.00026	-8e-05	-0.00018	2
5921	-0.00039	9e-05	4e-05	7e-05	-6e-05	0.00026	-8e-05	-0.00018	2
5922	-0.00039	9e-05	4e-05	7e-05	-6e-05	0.00026	-8e-05	-0.00018	2
5923	-0.00039	9e-05	4e-05	7e-05	-6e-05	0.00026	-8e-05	-0.00018	2
5924	-0.00039	9e-05	4e-05	7e-05	-6e-05	0.00026	-8e-05	-0.00018	2
5925	0.00012	-4e-05	7e-05	-0.00034	-0.0001	-0.00027	-1e-05	0.00025	2
5926	0.00012	-4e-05	7e-05	-0.00034	-0.0001	-0.00027	-1e-05	0.00025	2
5927	-0.00014	-1e-05	7e-05	-7e-05	-7e-05	-0.00074	-0.0002	0	2
5928	-0.00014	-1e-05	7e-05	-7e-05	-7e-05	-0.00074	-0.0002	0	2
5929	-0.00014	-1e-05	7e-05	-7e-05	-7e-05	-0.00074	-0.0002	0	2
5930	-0.00014	-1e-05	7e-05	-7e-05	-7e-05	-0.00074	-0.0002	0	2
5931	-0.00014	-1e-05	7e-05	-7e-05	-7e-05	-0.00074	-0.0002	0	2
5932	-0.00014	-1e-05	7e-05	-7e-05	-7e-05	-0.00074	-0.0002	0	2
5933	-0.00014	-1e-05	7e-05	-7e-05	-7e-05	-0.00074	-0.0002	0	2
5934	-0.00014	-1e-05	7e-05	-7e-05	-7e-05	-0.00074	-0.0002	0	2
5935	-0.00014	-1e-05	7e-05	-7e-05	-7e-05	-0.00074	-0.0002	0	2
5936	-0.00014	-1e-05	7e-05	-7e-05	-7e-05	-0.00074	-0.0002	0	2
5938	-0.00014	-1e-05	7e-05	-7e-05	-7e-05	-0.00074	-0.0002	0	2
5939	-0.00014	-1e-05	7e-05	-7e-05	-7e-05	-0.00074	-0.0002	0	2
5940	-0.00014	-1e-05	7e-05	-7e-05	-7e-05	-0.00074	-0.0002	0	2
5941	-0.00014	-1e-05	7e-05	-7e-05	-7e-05	-0.00074	-0.0002	0	2
5942	-0.00014	-1e-05	7e-05	-7e-05	-7e-05	-0.00074	-0.0002	0	2
5943	-0.00014	-1e-05	7e-05	-7e-05	-7e-05	-0.00074	-0.0002	0	2
5944	-0.00014	-1e-05	7e-05	-7e-05	-7e-05	-0.00074	-0.0002	0	2
5945	-0.00014	-1e-05	7e-05	-7e-05	-7e-05	-0.00074	-0.0002	0	2
5946	-0.00014	-1e-05	7e-05	-7e-05	-7e-05	-0.00074	-0.0002	0	2
5947	-0.00014	-1e-05	7e-05	-7e-05	-7e-05	-0.00074	-0.0002	0	2
5948	-0.00072	0	-1e-05	-0.00012	-7e-05	-8e-05	0.00019	-4e-05	2
5949	-0.00066	-0.00014	-6e-05	-0.00016	0	-0.00022	0.00033	0.00018	2
5950	-0.00066	-0.00014	-6e-05	-0.00016	0	-0.00022	0.00033	0.00018	2
5951	-0.00066	-0.00014	-6e-05	-0.00016	0	-0.00022	0.00033	0.00018	2
5952	-0.00066	-0.00014	-6e-05	-0.00016	0	-0.00022	0.00033	0.00018	2
5953	-0.00066	-0.00014	-6e-05	-0.00016	0	-0.00022	0.00033	0.00018	2
5954	-0.00066	-0.00014	-6e-05	-0.00016	0	-0.00022	0.00033	0.00018	2
5955	-0.00066	-0.00014	-6e-05	-0.00016	0	-0.00022	0.00033	0.00018	2
5956	-0.00066	-0.00014	-6e-05	-0.00016	0	-0.00022	0.00033	0.00018	2
5957	-0.00066	-0.00014	-6e-05	-0.00016	0	-0.00022	0.00033	0.00018	2
5958	-0.00066	-0.00014	-6e-05	-0.00016	0	-0.00022	0.00033	0.00018	2
5959	-0.00066	-0.00014	-6e-05	-0.00016	0	-0.00022	0.00033	0.00018	2
5960	-0.00066	-0.00014	-6e-05	-0.00016	0	-0.00022	0.00033	0.00018	2
5961	-0.00066	-0.00014	-6e-05	-0.00016	0	-0.00022	0.00033	0.00018	2
5962	-0.00066	-0.00014	-6e-05	-0.00016	0	-0.00022	0.00033	0.00018	2
5963	0.00059	9e-05	0.00026	0.00127	9e-05	8e-05	-0.00019	0.00015	2
5964	-0.00044	-3e-05	-3e-05	-9e-05	0.00013	0.00046	0.00056	-3e-05	2
5965	-0.00044	-3e-05	-3e-05	-9e-05	0.00013	0.00046	0.00056	-3e-05	2
5966	-0.00044	-3e-05	-3e-05	-9e-05	0.00013	0.00046	0.00056	-3e-05	2
5967	-0.00044	-3e-05	-3e-05	-9e-05	0.00013	0.00046	0.00056	-3e-05	2
5968	-0.00044	-3e-05	-3e-05	-9e-05	0.00013	0.00046	0.00056	-3e-05	2
5969	-0.00044	-3e-05	-3e-05	-9e-05	0.00013	0.00046	0.00056	-3e-05	2
5970	-0.00044	-3e-05	-3e-05	-9e-05	0.00013	0.00046	0.00056	-3e-05	2
5971	-0.00044	-3e-05	-3e-05	-9e-05	0.00013	0.00046	0.00056	-3e-05	2
5972	-0.00044	-3e-05	-3e-05	-9e-05	0.00013	0.00046	0.00056	-3e-05	2
5973	-0.00044	-3e-05	-3e-05	-9e-05	0.00013	0.00046	0.00056	-3e-05	2
5974	-0.00044	-3e-05	-3e-05	-9e-05	0.00013	0.00046	0.00056	-3e-05	2
5975	-0.00044	-3e-05	-3e-05	-9e-05	0.00013	0.00046	0.00056	-3e-05	2
5976	-0.00044	-3e-05	-3e-05	-9e-05	0.00013	0.00046	0.00056	-3e-05	2
5977	-0.00044	-3e-05	-3e-05	-9e-05	0.00013	0.00046	0.00056	-3e-05	2
5978	-0.00044	-3e-05	-3e-05	-9e-05	0.00013	0.00046	0.00056	-3e-05	2
5979	-0.00044	-3e-05	-3e-05	-9e-05	0.00013	0.00046	0.00056	-3e-05	2
5980	-0.00044	-3e-05	-3e-05	-9e-05	0.00013	0.00046	0.00056	-3e-05	2
5981	-0.00044	-3e-05	-3e-05	-9e-05	0.00013	0.00046	0.00056	-3e-05	2
5982	-0.00044	-3e-05	-3e-05	-9e-05	0.00013	0.00046	0.00056	-3e-05	2
5983	-0.00044	-3e-05	-3e-05	-9e-05	0.00013	0.00046	0.00056	-3e-05	2
5984	-0.00044	-3e-05	-3e-05	-9e-05	0.00013	0.00046	0.00056	-3e-05	2
5985	8e-05	0	6e-05	0.00059	0	0.00012	-0.00013	0.0001	2
5987	1e-05	-2e-05	3e-05	0.00039	-9e-05	0.00036	-0.00015	4e-05	2
5989	1e-05	-2e-05	3e-05	0.00039	-9e-05	0.00036	-0.00015	4e-05	2
5990	1e-05	-2e-05	3e-05	0.00039	-9e-05	0.00036	-0.00015	4e-05	2
5991	1e-05	-2e-05	3e-05	0.00039	-9e-05	0.00036	-0.00015	4e-05	2
5992	1e-05	-2e-05	3e-05	0.00039	-9e-05	0.00036	-0.00015	4e-05	2
5994	1e-05	-2e-05	3e-05	0.00039	-9e-05	0.00036	-0.00015	4e-05	2
5995	1e-05	-2e-05	3e-05	0.00039	-9e-05	0.00036	-0.00015	4e-05	2
5996	1e-05	-2e-05	3e-05	0.00039	-9e-05	0.00036	-0.00015	4e-05	2
5997	1e-05	-2e-05	3e-05	0.00039	-9e-05	0.00036	-0.00015	4e-05	2
5998	1e-05	-2e-05	3e-05	0.00039	-9e-05	0.00036	-0.00015	4e-05	2
5999	0.0006	5e-05	0.00012	0.00016	-6e-05	-0.00037	-0.00021	-9e-05	2
6000	0.0006	5e-05	0.00012	0.00016	-6e-05	-0.00037	-0.00021	-9e-05	2
6001	0.0006	5e-05	0.00012	0.00016	-6e-05	-0.00037	-0.00021	-9e-05	2
6002	0.0006	5e-05	0.00012	0.00016	-6e-05	-0.00037	-0.00021	-9e-05	2
6003	0.0006	5e-05	0.00012	0.00016	-6e-05	-0.00037	-0.00021	-9e-05	2
6004	0.0006	5e-05	0.00012	0.00016	-6e-05	-0.00037	-0.00021	-9e-05	2
6005	0.0006	5e-05	0.00012	0.00016	-6e-05	-0.00037	-0.00021	-9e-05	2
6006	0.0006	5e-05	0.00012	0.00016	-6e-05	-0.00037	-0.00021	-9e-05	2
6007	0.0006	5e-05	0.00012	0.00016	-6e-05	-0.00037	-0.00021	-9e-05	2
6008	4e-05	0.00018	4e-05	-0.00014	8e-05	-0.00047	-0.00054	-0.00022	2
6009	4e-05	0.00018	4e-05	-0.00014	8e-05	-0.00047	-0.00054	-0.00022	2
6010	4e-05	0.00018	4e-05	-0.00014	8e-05	-0.00047	-0.00054	-0.00022	2
6011	4e-05	0.00018	4e-05	-0.00014	8e-05	-0.00047	-0.00054	-0.00022	2
6012	4e-05	0.00018	4e-05	-0.00014	8e-05	-0.00047	-0.00054	-0.00022	2
6013	4e-05	0.00018	4e-05	-0.00014	8e-05	-0.00047	-0.00054	-0.00022	2
6014	4e-05	0.00018	4e-05	-0.00014	8e-05	-0.00047	-0.00054	-0.00022	2
6015	4e-05	0.00018	4e-05	-0.00014	8e-05	-0.00047	-0.00054	-0.00022	2
6016	4e-05	0.00018	4e-05	-0.00014	8e-05	-0.00047	-0.00054	-0.00022	2
6017	4e-05	0.00018	4e-05	-0.00014	8e-05	-0.00047	-0.00054	-0.00022	2
6018	4e-05	0.00018	4e-05	-0.00014	8e-05	-0.00047	-0.00054	-0.00022	2
6019	4e-05	0.00018	4e-05	-0.00014	8e-05	-0.00047	-0.00054	-0.00022	2
6020	4e-05	0.00018	4e-05	-0.00014	8e-05	-0.00047	-0.00054	-0.00022	2
6021	4e-05	0.00018	4e-05	-0.00014	8e-05	-0.00047	-0.00054	-0.00022	2
6022	4e-05	0.00018	4e-05	-0.00014	8e-05	-0.00047	-0.00054	-0.00022	2
6023	9e-05	-0.00012	-6e-05	0.00017	7e-05	-0.00064	-0.0005	4e-05	2
6024	9e-05	-0.00012	-6e-05	0.00017	7e-05	-0.00064	-0.0005	4e-05	2
6025	9e-05	-0.00012	-6e-05	0.00017	7e-05	-0.00064	-0.0005	4e-05	2
6026	9e-05	-0.00012	-6e-05	0.00017	7e-05	-0.00064	-0.0005	4e-05	2
6027	9e-05	-0.00012	-6e-05	0.00017	7e-05	-0.00064	-0.0005	4e-05	2
6028	9e-05	-0.00012	-6e-05	0.00017	7e-05	-0.00064	-0.0005	4e-05	2
6029	-0.00023	0.00014	0.00012	0	-7e-05	6e-05	0.00067	2e-05	2
6030	-0.00023	0.00014	0.00012	0	-7e-05	6e-05	0.00067	2e-05	2
6031	-0.00023	0.00014	0.00012	0	-7e-05	6e-05	0.00067	2e-05	2
6032	-0.00023	0.00014	0.00012	0	-7e-05	6e-05	0.00067	2e-05	2
6033	-0.00023	0.00014	0.00012	0	-7e-05	6e-05	0.00067	2e-05	2
6034	-0.00023	0.00014	0.00012	0	-7e-05	6e-05	0.00067	2e-05	2
6035	-0.00023	0.00014	0.00012	0	-7e-05	6e-05	0.00067	2e-05	2
6036	-0.00023	0.00014	0.00012	0	-7e-05	6e-05	0.00067	2e-05	2
6038	-0.00023	0.00014	0.00012	0	-7e-05	6e-05	0.00067	2e-05	2
6039	-0.00023	0.00014	0.00012	0	-7e-05	6e-05	0.00067	2e-05	2
6040	-0.00023	0.00014	0.00012	0	-7e-05	6e-05	0.00067	2e-05	2
6041	-0.00023	0.00014	0.00012	0	-7e-05	6e-05	0.00067	2e-05	2
6042	-0.00023	0.00014	0.00012	0	-7e-05	6e-05	0.00067	2e-05	2
6043	-0.00023	0.00014	0.00012	0	-7e-05	6e-05	0.00067	2e-05	2
6044	-0.00023	0.00014	0.00012	0	-7e-05	6e-05	0.00067	2e-05	2
6045	-0.00023	0.00014	0.00012	0	-7e-05	6e-05	0.00067	2e-05	2
6046	-0.00019	-4e-05	0.00012	0.00075	-3e-05	-6e-05	-0.00022	-0.00011	2
6047	-0.00015	-9e-05	6e-05	0.0006	-0.0003	-0.00026	-0.0001	-0.00013	2
6048	-0.00015	-9e-05	6e-05	0.0006	-0.0003	-0.00026	-0.0001	-0.00013	2
6049	-0.00015	-9e-05	6e-05	0.0006	-0.0003	-0.00026	-0.0001	-0.00013	2
6050	-0.00015	-9e-05	6e-05	0.0006	-0.0003	-0.00026	-0.0001	-0.00013	2
6051	-0.00015	-9e-05	6e-05	0.0006	-0.0003	-0.00026	-0.0001	-0.00013	2
6052	-0.00015	-9e-05	6e-05	0.0006	-0.0003	-0.00026	-0.0001	-0.00013	2
6053	-0.00015	-9e-05	6e-05	0.0006	-0.0003	-0.00026	-0.0001	-0.00013	2
6054	-0.00015	-9e-05	6e-05	0.0006	-0.0003	-0.00026	-0.0001	-0.00013	2
6055	-0.00015	-9e-05	6e-05	0.0006	-0.0003	-0.00026	-0.0001	-0.00013	2
6056	-0.00015	-9e-05	6e-05	0.0006	-0.0003	-0.00026	-0.0001	-0.00013	2
6057	-0.00015	-9e-05	6e-05	0.0006	-0.0003	-0.00026	-0.0001	-0.00013	2
6058	-0.00015	-9e-05	6e-05	0.0006	-0.0003	-0.00026	-0.0001	-0.00013	2
6059	-0.00024	-2e-05	-0.00012	-0.00052	4e-05	-0.00011	4e-05	0	2
6060	0.0002	-7e-05	-0.00017	4e-05	0.00018	-0.00028	-1e-05	5e-05	2
6061	0.0002	-7e-05	-0.00017	4e-05	0.00018	-0.00028	-1e-05	5e-05	2
6062	0.0002	-7e-05	-0.00017	4e-05	0.00018	-0.00028	-1e-05	5e-05	2
6063	0.0002	-7e-05	-0.00017	4e-05	0.00018	-0.00028	-1e-05	5e-05	2
6064	0.0002	-7e-05	-0.00017	4e-05	0.00018	-0.00028	-1e-05	5e-05	2
6065	0.0002	-7e-05	-0.00017	4e-05	0.00018	-0.00028	-1e-05	5e-05	2
6066	0.0002	-7e-05	-0.00017	4e-05	0.00018	-0.00028	-1e-05	5e-05	2
6067	0.0002	-7e-05	-0.00017	4e-05	0.00018	-0.00028	-1e-05	5e-05	2
6068	0.00047	-7e-05	7e-05	0.00029	-0.00013	6e-05	0.00044	6e-05	2
6069	0.00047	-7e-05	7e-05	0.00029	-0.00013	6e-05	0.00044	6e-05	2
6070	0.00047	-7e-05	7e-05	0.00029	-0.00013	6e-05	0.00044	6e-05	2
6071	0.00047	-7e-05	7e-05	0.00029	-0.00013	6e-05	0.00044	6e-05	2
6072	0.00047	-7e-05	7e-05	0.00029	-0.00013	6e-05	0.00044	6e-05	2
6073	0.00047	-7e-05	7e-05	0.00029	-0.00013	6e-05	0.00044	6e-05	2
6074	0.00047	-7e-05	7e-05	0.00029	-0.00013	6e-05	0.00044	6e-05	2
6075	0.00047	-7e-05	7e-05	0.00029	-0.00013	6e-05	0.00044	6e-05	2
6076	0.00047	-7e-05	7e-05	0.00029	-0.00013	6e-05	0.00044	6e-05	2
6077	0.00047	-7e-05	7e-05	0.00029	-0.00013	6e-05	0.00044	6e-05	2
6078	0.00047	-7e-05	7e-05	0.00029	-0.00013	6e-05	0.00044	6e-05	2
6079	0.00047	-7e-05	7e-05	0.00029	-0.00013	6e-05	0.00044	6e-05	2
6080	0.00047	-7e-05	7e-05	0.00029	-0.00013	6e-05	0.00044	6e-05	2
6081	0.00047	-7e-05	7e-05	0.00029	-0.00013	6e-05	0.00044	6e-05	2
6082	0.00047	-7e-05	7e-05	0.00029	-0.00013	6e-05	0.00044	6e-05	2
6083	0.00047	-7e-05	7e-05	0.00029	-0.00013	6e-05	0.00044	6e-05	2
6084	0.00047	-7e-05	7e-05	0.00029	-0.00013	6e-05	0.00044	6e-05	2
6085	0.00047	-7e-05	7e-05	0.00029	-0.00013	6e-05	0.00044	6e-05	2
6086	0.00047	-7e-05	7e-05	0.00029	-0.00013	6e-05	0.00044	6e-05	2
6088	0.00047	-7e-05	7e-05	0.00029	-0.00013	6e-05	0.00044	6e-05	2
6089	0.00047	-7e-05	7e-05	0.00029	-0.00013	6e-05	0.00044	6e-05	2
6090	-0.00019	1e-05	1e-05	0.00011	0.00013	0.0002	-0.00021	-3e-05	2
6091	-0.00019	1e-05	1e-05	0.00011	0.00013	0.0002	-0.00021	-3e-05	2
6092	-0.00019	-0.00011	-0.00012	-0.0006	-0.00013	-0.00039	-1e-05	-0.00013	2
6093	-0.00019	-0.00011	-0.00012	-0.0006	-0.00013	-0.00039	-1e-05	-0.00013	2
6094	-0.00019	-0.00011	-0.00012	-0.0006	-0.00013	-0.00039	-1e-05	-0.00013	2
6095	-0.00019	-0.00011	-0.00012	-0.0006	-0.00013	-0.00039	-1e-05	-0.00013	2
6096	-0.00019	-0.00011	-0.00012	-0.0006	-0.00013	-0.00039	-1e-05	-0.00013	2
6097	-0.00019	-0.00011	-0.00012	-0.0006	-0.00013	-0.00039	-1e-05	-0.00013	2
6098	-0.00019	-0.00011	-0.00012	-0.0006	-0.00013	-0.00039	-1e-05	-0.00013	2
6099	-0.00019	-0.00011	-0.00012	-0.0006	-0.00013	-0.00039	-1e-05	-0.00013	2
6100	-0.00019	-0.00011	-0.00012	-0.0006	-0.00013	-0.00039	-1e-05	-0.00013	2
6101	-0.00019	-0.00011	-0.00012	-0.0006	-0.00013	-0.00039	-1e-05	-0.00013	2
6102	-0.00019	-0.00011	-0.00012	-0.0006	-0.00013	-0.00039	-1e-05	-0.00013	2
6103	-0.00019	-0.00011	-0.00012	-0.0006	-0.00013	-0.00039	-1e-05	-0.00013	2
6104	-0.00045	-3e-05	-5e-05	-0.00021	3e-05	0.00039	0.00048	-8e-05	2
6105	-0.00045	-3e-05	-5e-05	-0.00021	3e-05	0.00039	0.00048	-8e-05	2
6106	-0.00045	-3e-05	-5e-05	-0.00021	3e-05	0.00039	0.00048	-8e-05	2
6107	-0.00045	-3e-05	-5e-05	-0.00021	3e-05	0.00039	0.00048	-8e-05	2
6108	-0.00045	-3e-05	-5e-05	-0.00021	3e-05	0.00039	0.00048	-8e-05	2
6109	-0.00045	-3e-05	-5e-05	-0.00021	3e-05	0.00039	0.00048	-8e-05	2
6110	-0.00045	-3e-05	-5e-05	-0.00021	3e-05	0.00039	0.00048	-8e-05	2
6111	-0.00045	-3e-05	-5e-05	-0.00021	3e-05	0.00039	0.00048	-8e-05	2
6112	-0.00045	-3e-05	-5e-05	-0.00021	3e-05	0.00039	0.00048	-8e-05	2
6113	-0.00045	-3e-05	-5e-05	-0.00021	3e-05	0.00039	0.00048	-8e-05	2
6114	-0.00045	-3e-05	-5e-05	-0.00021	3e-05	0.00039	0.00048	-8e-05	2
6115	-0.00045	-3e-05	-5e-05	-0.00021	3e-05	0.00039	0.00048	-8e-05	2
6116	-0.00045	-3e-05	-5e-05	-0.00021	3e-05	0.00039	0.00048	-8e-05	2
6117	-0.00045	-3e-05	-5e-05	-0.00021	3e-05	0.00039	0.00048	-8e-05	2
6118	-0.00045	-3e-05	-5e-05	-0.00021	3e-05	0.00039	0.00048	-8e-05	2
6119	-0.00045	-3e-05	-5e-05	-0.00021	3e-05	0.00039	0.00048	-8e-05	2
6120	-0.00045	-3e-05	-5e-05	-0.00021	3e-05	0.00039	0.00048	-8e-05	2
6121	3e-05	-5e-05	-2e-05	0.00035	-0.0001	-7e-05	-0.00016	-3e-05	2
6122	-0.00034	6e-05	5e-05	-0.00024	7e-05	0.00019	0.00049	2e-05	2
6123	-0.00034	6e-05	5e-05	-0.00024	7e-05	0.00019	0.00049	2e-05	2
6124	-0.00034	6e-05	5e-05	-0.00024	7e-05	0.00019	0.00049	2e-05	2
6125	-0.00034	6e-05	5e-05	-0.00024	7e-05	0.00019	0.00049	2e-05	2
6126	-0.00034	6e-05	5e-05	-0.00024	7e-05	0.00019	0.00049	2e-05	2
6127	-0.00034	6e-05	5e-05	-0.00024	7e-05	0.00019	0.00049	2e-05	2
6128	0.00022	-0.00011	-0.00027	-0.00114	-0.00016	-9e-05	-0.00035	-5e-05	2
6129	0.00022	-0.00011	-0.00027	-0.00114	-0.00016	-9e-05	-0.00035	-5e-05	2
6130	0.00022	-0.00011	-0.00027	-0.00114	-0.00016	-9e-05	-0.00035	-5e-05	2
6131	0.00022	-0.00011	-0.00027	-0.00114	-0.00016	-9e-05	-0.00035	-5e-05	2
6132	0.00022	-0.00011	-0.00027	-0.00114	-0.00016	-9e-05	-0.00035	-5e-05	2
6133	0.00022	-0.00011	-0.00027	-0.00114	-0.00016	-9e-05	-0.00035	-5e-05	2
6134	0.00022	-0.00011	-0.00027	-0.00114	-0.00016	-9e-05	-0.00035	-5e-05	2
6135	0.00022	-0.00011	-0.00027	-0.00114	-0.00016	-9e-05	-0.00035	-5e-05	2
6136	0.00022	-0.00011	-0.00027	-0.00114	-0.00016	-9e-05	-0.00035	-5e-05	2
6138	0.00022	-0.00011	-0.00027	-0.00114	-0.00016	-9e-05	-0.00035	-5e-05	2
6139	0.00022	-0.00011	-0.00027	-0.00114	-0.00016	-9e-05	-0.00035	-5e-05	2
6140	0.00022	-0.00011	-0.00027	-0.00114	-0.00016	-9e-05	-0.00035	-5e-05	2
6141	0.00022	-0.00011	-0.00027	-0.00114	-0.00016	-9e-05	-0.00035	-5e-05	2
6142	0.00022	-0.00011	-0.00027	-0.00114	-0.00016	-9e-05	-0.00035	-5e-05	2
6143	0.00022	-0.00011	-0.00027	-0.00114	-0.00016	-9e-05	-0.00035	-5e-05	2
6144	0.00022	-0.00011	-0.00027	-0.00114	-0.00016	-9e-05	-0.00035	-5e-05	2
6145	0.00022	-0.00011	-0.00027	-0.00114	-0.00016	-9e-05	-0.00035	-5e-05	2
6146	0.00022	-0.00011	-0.00027	-0.00114	-0.00016	-9e-05	-0.00035	-5e-05	2
6147	0.00022	-0.00011	-0.00027	-0.00114	-0.00016	-9e-05	-0.00035	-5e-05	2
6148	0.00022	-0.00011	-0.00027	-0.00114	-0.00016	-9e-05	-0.00035	-5e-05	2
6149	0.00022	-0.00011	-0.00027	-0.00114	-0.00016	-9e-05	-0.00035	-5e-05	2
6150	-0.00024	-4e-05	-2e-05	-9e-05	0	4e-05	2e-05	1e-05	2
6151	0.00038	4e-05	9e-05	0.0002	3e-05	9e-05	0	4e-05	2
6152	-0.00081	8e-05	0	0.00016	0.00018	-0.0003	0.00035	0.00033	2
6153	-0.00081	8e-05	0	0.00016	0.00018	-0.0003	0.00035	0.00033	2
6154	-0.00081	8e-05	0	0.00016	0.00018	-0.0003	0.00035	0.00033	2
6155	-0.00081	8e-05	0	0.00016	0.00018	-0.0003	0.00035	0.00033	2
6156	-0.00081	8e-05	0	0.00016	0.00018	-0.0003	0.00035	0.00033	2
6157	-0.00081	8e-05	0	0.00016	0.00018	-0.0003	0.00035	0.00033	2
6158	-0.00081	8e-05	0	0.00016	0.00018	-0.0003	0.00035	0.00033	2
6159	-0.00081	8e-05	0	0.00016	0.00018	-0.0003	0.00035	0.00033	2
6160	-0.00081	8e-05	0	0.00016	0.00018	-0.0003	0.00035	0.00033	2
6161	-0.00081	8e-05	0	0.00016	0.00018	-0.0003	0.00035	0.00033	2
6162	-0.00081	8e-05	0	0.00016	0.00018	-0.0003	0.00035	0.00033	2
6163	-0.00081	8e-05	0	0.00016	0.00018	-0.0003	0.00035	0.00033	2
6164	-0.00081	8e-05	0	0.00016	0.00018	-0.0003	0.00035	0.00033	2
6165	-0.00093	-5e-05	1e-05	0.00017	0.00023	0.00052	6e-05	-0.00015	2
6166	0.00029	-4e-05	-9e-05	-9e-05	-0.00043	-0.00031	0.00019	0	2
6167	0.00059	-5e-05	-0.0001	0.00016	0.00056	0.00017	-0.00026	9e-05	2
6168	0.00059	-5e-05	-0.0001	0.00016	0.00056	0.00017	-0.00026	9e-05	2
6169	0.00059	-5e-05	-0.0001	0.00016	0.00056	0.00017	-0.00026	9e-05	2
6170	0.00059	-5e-05	-0.0001	0.00016	0.00056	0.00017	-0.00026	9e-05	2
6171	0.00059	-5e-05	-0.0001	0.00016	0.00056	0.00017	-0.00026	9e-05	2
6172	0.00059	-5e-05	-0.0001	0.00016	0.00056	0.00017	-0.00026	9e-05	2
6173	0.00059	-5e-05	-0.0001	0.00016	0.00056	0.00017	-0.00026	9e-05	2
6174	0.00059	-5e-05	-0.0001	0.00016	0.00056	0.00017	-0.00026	9e-05	2
6175	0.00059	-5e-05	-0.0001	0.00016	0.00056	0.00017	-0.00026	9e-05	2
6176	0.00059	-5e-05	-0.0001	0.00016	0.00056	0.00017	-0.00026	9e-05	2
6177	0.00059	-5e-05	-0.0001	0.00016	0.00056	0.00017	-0.00026	9e-05	2
6178	0.00059	-5e-05	-0.0001	0.00016	0.00056	0.00017	-0.00026	9e-05	2
6179	0.00059	-5e-05	-0.0001	0.00016	0.00056	0.00017	-0.00026	9e-05	2
6180	0.00059	-5e-05	-0.0001	0.00016	0.00056	0.00017	-0.00026	9e-05	2
6181	0.00059	-5e-05	-0.0001	0.00016	0.00056	0.00017	-0.00026	9e-05	2
6182	0.00059	-5e-05	-0.0001	0.00016	0.00056	0.00017	-0.00026	9e-05	2
6183	0.00059	-5e-05	-0.0001	0.00016	0.00056	0.00017	-0.00026	9e-05	2
6184	0.00059	-5e-05	-0.0001	0.00016	0.00056	0.00017	-0.00026	9e-05	2
6185	0.00059	-5e-05	-0.0001	0.00016	0.00056	0.00017	-0.00026	9e-05	2
6186	0.00059	-5e-05	-0.0001	0.00016	0.00056	0.00017	-0.00026	9e-05	2
6188	0.00011	5e-05	1e-05	-0.00024	-8e-05	-4e-05	-0.00011	-9e-05	2
6189	0.00011	5e-05	1e-05	-0.00024	-8e-05	-4e-05	-0.00011	-9e-05	2
6190	0.00011	5e-05	1e-05	-0.00024	-8e-05	-4e-05	-0.00011	-9e-05	2
6191	0.00011	5e-05	1e-05	-0.00024	-8e-05	-4e-05	-0.00011	-9e-05	2
6192	0.00011	5e-05	1e-05	-0.00024	-8e-05	-4e-05	-0.00011	-9e-05	2
6193	0.00011	5e-05	1e-05	-0.00024	-8e-05	-4e-05	-0.00011	-9e-05	2
6194	3e-05	5e-05	7e-05	0.00065	-4e-05	0.00014	0.00033	8e-05	2
6195	3e-05	5e-05	7e-05	0.00065	-4e-05	0.00014	0.00033	8e-05	2
6196	3e-05	5e-05	7e-05	0.00065	-4e-05	0.00014	0.00033	8e-05	2
6197	3e-05	5e-05	7e-05	0.00065	-4e-05	0.00014	0.00033	8e-05	2
6198	3e-05	5e-05	7e-05	0.00065	-4e-05	0.00014	0.00033	8e-05	2
6199	3e-05	5e-05	7e-05	0.00065	-4e-05	0.00014	0.00033	8e-05	2
6200	3e-05	5e-05	7e-05	0.00065	-4e-05	0.00014	0.00033	8e-05	2
6201	3e-05	5e-05	7e-05	0.00065	-4e-05	0.00014	0.00033	8e-05	2
6202	3e-05	5e-05	7e-05	0.00065	-4e-05	0.00014	0.00033	8e-05	2
6203	0.00075	-6e-05	-2e-05	-0.00039	-0.00018	0.0001	-0.00048	1e-05	2
6204	0.00075	-6e-05	-2e-05	-0.00039	-0.00018	0.0001	-0.00048	1e-05	2
6205	0.00075	-6e-05	-2e-05	-0.00039	-0.00018	0.0001	-0.00048	1e-05	2
6206	0.00075	-6e-05	-2e-05	-0.00039	-0.00018	0.0001	-0.00048	1e-05	2
6207	0.00075	-6e-05	-2e-05	-0.00039	-0.00018	0.0001	-0.00048	1e-05	2
6208	0.00075	-6e-05	-2e-05	-0.00039	-0.00018	0.0001	-0.00048	1e-05	2
6209	0.0005	-1e-05	0.00015	0.00059	-0.00023	-2e-05	-0.00028	0	2
6210	0.0005	-1e-05	0.00015	0.00059	-0.00023	-2e-05	-0.00028	0	2
6211	0.0005	-1e-05	0.00015	0.00059	-0.00023	-2e-05	-0.00028	0	2
6212	0.0005	-1e-05	0.00015	0.00059	-0.00023	-2e-05	-0.00028	0	2
6213	0.0005	-1e-05	0.00015	0.00059	-0.00023	-2e-05	-0.00028	0	2
6214	0.0005	-1e-05	0.00015	0.00059	-0.00023	-2e-05	-0.00028	0	2
6215	0.0005	-1e-05	0.00015	0.00059	-0.00023	-2e-05	-0.00028	0	2
6216	0.0005	-1e-05	0.00015	0.00059	-0.00023	-2e-05	-0.00028	0	2
6217	0.0005	-1e-05	0.00015	0.00059	-0.00023	-2e-05	-0.00028	0	2
6218	0.0005	-1e-05	0.00015	0.00059	-0.00023	-2e-05	-0.00028	0	2
6219	0.0005	-1e-05	0.00015	0.00059	-0.00023	-2e-05	-0.00028	0	2
6220	0.0005	-1e-05	0.00015	0.00059	-0.00023	-2e-05	-0.00028	0	2
6221	0.0005	-1e-05	0.00015	0.00059	-0.00023	-2e-05	-0.00028	0	2
6222	0.0005	-1e-05	0.00015	0.00059	-0.00023	-2e-05	-0.00028	0	2
6223	0.0005	-1e-05	0.00015	0.00059	-0.00023	-2e-05	-0.00028	0	2
6224	0.0005	-1e-05	0.00015	0.00059	-0.00023	-2e-05	-0.00028	0	2
6225	0.00041	2e-05	0.00011	0.0003	-0.00018	-0.00048	2e-05	-0.00011	2
6226	0.00041	2e-05	0.00011	0.0003	-0.00018	-0.00048	2e-05	-0.00011	2
6227	-0.00094	-0.00011	0.0002	0.00108	-0.00049	8e-05	-0.00028	-0.0002	2
6228	-0.00094	-0.00011	0.0002	0.00108	-0.00049	8e-05	-0.00028	-0.0002	2
6229	-0.00094	-0.00011	0.0002	0.00108	-0.00049	8e-05	-0.00028	-0.0002	2
6230	-0.00094	-0.00011	0.0002	0.00108	-0.00049	8e-05	-0.00028	-0.0002	2
6231	-0.00094	-0.00011	0.0002	0.00108	-0.00049	8e-05	-0.00028	-0.0002	2
6232	-0.00094	-0.00011	0.0002	0.00108	-0.00049	8e-05	-0.00028	-0.0002	2
6233	-0.00094	-0.00011	0.0002	0.00108	-0.00049	8e-05	-0.00028	-0.0002	2
6234	-0.00094	-0.00011	0.0002	0.00108	-0.00049	8e-05	-0.00028	-0.0002	2
6235	-0.00094	-0.00011	0.0002	0.00108	-0.00049	8e-05	-0.00028	-0.0002	2
6236	-0.00094	-0.00011	0.0002	0.00108	-0.00049	8e-05	-0.00028	-0.0002	2
6238	-0.00094	-0.00011	0.0002	0.00108	-0.00049	8e-05	-0.00028	-0.0002	2
6239	-0.00094	-0.00011	0.0002	0.00108	-0.00049	8e-05	-0.00028	-0.0002	2
6240	-0.00094	-0.00011	0.0002	0.00108	-0.00049	8e-05	-0.00028	-0.0002	2
6241	-0.00094	-0.00011	0.0002	0.00108	-0.00049	8e-05	-0.00028	-0.0002	2
6242	-0.00094	-0.00011	0.0002	0.00108	-0.00049	8e-05	-0.00028	-0.0002	2
6243	-0.00094	-0.00011	0.0002	0.00108	-0.00049	8e-05	-0.00028	-0.0002	2
6244	-0.00094	-0.00011	0.0002	0.00108	-0.00049	8e-05	-0.00028	-0.0002	2
6245	-0.00094	-0.00011	0.0002	0.00108	-0.00049	8e-05	-0.00028	-0.0002	2
6246	-0.00094	-0.00011	0.0002	0.00108	-0.00049	8e-05	-0.00028	-0.0002	2
6247	-0.00094	-0.00011	0.0002	0.00108	-0.00049	8e-05	-0.00028	-0.0002	2
6248	-0.0007	-1e-05	-4e-05	0.00055	-9e-05	-1e-05	-0.00029	-6e-05	2
6249	-0.0007	-1e-05	-4e-05	0.00055	-9e-05	-1e-05	-0.00029	-6e-05	2
6250	-0.0007	-1e-05	-4e-05	0.00055	-9e-05	-1e-05	-0.00029	-6e-05	2
6251	-0.0007	-1e-05	-4e-05	0.00055	-9e-05	-1e-05	-0.00029	-6e-05	2
6252	-0.0007	-1e-05	-4e-05	0.00055	-9e-05	-1e-05	-0.00029	-6e-05	2
6253	-0.0007	-1e-05	-4e-05	0.00055	-9e-05	-1e-05	-0.00029	-6e-05	2
6254	0.00048	5e-05	0.0001	1e-05	8e-05	8e-05	3e-05	0.00023	2
6255	0.00048	5e-05	0.0001	1e-05	8e-05	8e-05	3e-05	0.00023	2
6256	0.00048	5e-05	0.0001	1e-05	8e-05	8e-05	3e-05	0.00023	2
6257	0.00048	5e-05	0.0001	1e-05	8e-05	8e-05	3e-05	0.00023	2
6258	0.00048	5e-05	0.0001	1e-05	8e-05	8e-05	3e-05	0.00023	2
6259	0.00048	5e-05	0.0001	1e-05	8e-05	8e-05	3e-05	0.00023	2
6260	0.00048	5e-05	0.0001	1e-05	8e-05	8e-05	3e-05	0.00023	2
6261	0.00048	5e-05	0.0001	1e-05	8e-05	8e-05	3e-05	0.00023	2
6262	0.00048	5e-05	0.0001	1e-05	8e-05	8e-05	3e-05	0.00023	2
6264	0.00048	5e-05	0.0001	1e-05	8e-05	8e-05	3e-05	0.00023	2
6265	0.00048	5e-05	0.0001	1e-05	8e-05	8e-05	3e-05	0.00023	2
6266	0.00029	-0.00015	-0.00022	-0.00089	0.00012	0.00014	-4e-05	-8e-05	2
6267	0.00029	-0.00015	-0.00022	-0.00089	0.00012	0.00014	-4e-05	-8e-05	2
6268	0.00029	-0.00015	-0.00022	-0.00089	0.00012	0.00014	-4e-05	-8e-05	2
6269	0.00029	-0.00015	-0.00022	-0.00089	0.00012	0.00014	-4e-05	-8e-05	2
6270	0.00029	-0.00015	-0.00022	-0.00089	0.00012	0.00014	-4e-05	-8e-05	2
6271	0.00029	-0.00015	-0.00022	-0.00089	0.00012	0.00014	-4e-05	-8e-05	2
6272	0.00029	-0.00015	-0.00022	-0.00089	0.00012	0.00014	-4e-05	-8e-05	2
6273	0.00029	-0.00015	-0.00022	-0.00089	0.00012	0.00014	-4e-05	-8e-05	2
6274	0.00029	-0.00015	-0.00022	-0.00089	0.00012	0.00014	-4e-05	-8e-05	2
6275	0.00029	-0.00015	-0.00022	-0.00089	0.00012	0.00014	-4e-05	-8e-05	2
6276	0.00029	-0.00015	-0.00022	-0.00089	0.00012	0.00014	-4e-05	-8e-05	2
6277	0.00029	-0.00015	-0.00022	-0.00089	0.00012	0.00014	-4e-05	-8e-05	2
6278	0.00029	-0.00015	-0.00022	-0.00089	0.00012	0.00014	-4e-05	-8e-05	2
6279	0.00029	-0.00015	-0.00022	-0.00089	0.00012	0.00014	-4e-05	-8e-05	2
6280	0.00029	-0.00015	-0.00022	-0.00089	0.00012	0.00014	-4e-05	-8e-05	2
6281	0.00029	-0.00015	-0.00022	-0.00089	0.00012	0.00014	-4e-05	-8e-05	2
6282	0.00029	-0.00015	-0.00022	-0.00089	0.00012	0.00014	-4e-05	-8e-05	2
6283	0.00029	-0.00015	-0.00022	-0.00089	0.00012	0.00014	-4e-05	-8e-05	2
6284	0.00029	-0.00015	-0.00022	-0.00089	0.00012	0.00014	-4e-05	-8e-05	2
6285	-0.00069	-2e-05	-1e-05	-0.00013	4e-05	-0.00036	-0.0001	-0.00011	2
6286	-0.00069	-2e-05	-1e-05	-0.00013	4e-05	-0.00036	-0.0001	-0.00011	2
6288	0.00046	7e-05	-0.00013	-0.00095	4e-05	-0.00016	-2e-05	-2e-05	2
6289	0.00046	7e-05	-0.00013	-0.00095	4e-05	-0.00016	-2e-05	-2e-05	2
6290	0.00046	7e-05	-0.00013	-0.00095	4e-05	-0.00016	-2e-05	-2e-05	2
6291	0.00046	7e-05	-0.00013	-0.00095	4e-05	-0.00016	-2e-05	-2e-05	2
6292	0.00046	7e-05	-0.00013	-0.00095	4e-05	-0.00016	-2e-05	-2e-05	2
6293	0.00046	7e-05	-0.00013	-0.00095	4e-05	-0.00016	-2e-05	-2e-05	2
6294	0.00046	7e-05	-0.00013	-0.00095	4e-05	-0.00016	-2e-05	-2e-05	2
6295	0.00046	7e-05	-0.00013	-0.00095	4e-05	-0.00016	-2e-05	-2e-05	2
6296	0.00046	7e-05	-0.00013	-0.00095	4e-05	-0.00016	-2e-05	-2e-05	2
6297	0.00046	7e-05	-0.00013	-0.00095	4e-05	-0.00016	-2e-05	-2e-05	2
6298	0.00046	7e-05	-0.00013	-0.00095	4e-05	-0.00016	-2e-05	-2e-05	2
6299	0.00046	7e-05	-0.00013	-0.00095	4e-05	-0.00016	-2e-05	-2e-05	2
6300	0.00046	7e-05	-0.00013	-0.00095	4e-05	-0.00016	-2e-05	-2e-05	2
6301	0.00046	7e-05	-0.00013	-0.00095	4e-05	-0.00016	-2e-05	-2e-05	2
6302	0.00046	7e-05	-0.00013	-0.00095	4e-05	-0.00016	-2e-05	-2e-05	2
6303	0.00046	7e-05	-0.00013	-0.00095	4e-05	-0.00016	-2e-05	-2e-05	2
6304	0.00046	7e-05	-0.00013	-0.00095	4e-05	-0.00016	-2e-05	-2e-05	2
6305	0.00046	7e-05	-0.00013	-0.00095	4e-05	-0.00016	-2e-05	-2e-05	2
6306	0.00046	7e-05	-0.00013	-0.00095	4e-05	-0.00016	-2e-05	-2e-05	2
6307	0.00046	7e-05	-0.00013	-0.00095	4e-05	-0.00016	-2e-05	-2e-05	2
6308	0.00023	-2e-05	6e-05	0.00044	-0.00013	-0.00011	-0.00033	0.00014	2
6309	-0.00098	-2e-05	-7e-05	-0.0005	-7e-05	9e-05	0.00055	-0.00018	2
6310	-0.00098	-2e-05	-7e-05	-0.0005	-7e-05	9e-05	0.00055	-0.00018	2
6311	-0.00098	-2e-05	-7e-05	-0.0005	-7e-05	9e-05	0.00055	-0.00018	2
6312	-0.00098	-2e-05	-7e-05	-0.0005	-7e-05	9e-05	0.00055	-0.00018	2
6313	-0.00098	-2e-05	-7e-05	-0.0005	-7e-05	9e-05	0.00055	-0.00018	2
6314	-0.00098	-2e-05	-7e-05	-0.0005	-7e-05	9e-05	0.00055	-0.00018	2
6315	-0.00098	-2e-05	-7e-05	-0.0005	-7e-05	9e-05	0.00055	-0.00018	2
6316	-0.00098	-2e-05	-7e-05	-0.0005	-7e-05	9e-05	0.00055	-0.00018	2
6317	-0.00098	-2e-05	-7e-05	-0.0005	-7e-05	9e-05	0.00055	-0.00018	2
6318	-0.00098	-2e-05	-7e-05	-0.0005	-7e-05	9e-05	0.00055	-0.00018	2
6319	-0.00098	-2e-05	-7e-05	-0.0005	-7e-05	9e-05	0.00055	-0.00018	2
6320	-0.00098	-2e-05	-7e-05	-0.0005	-7e-05	9e-05	0.00055	-0.00018	2
6321	-0.00098	-2e-05	-7e-05	-0.0005	-7e-05	9e-05	0.00055	-0.00018	2
6322	0.00064	-5e-05	-0.00036	-0.00072	0.00022	0.00022	0.00014	-7e-05	2
6323	0.00064	-5e-05	-0.00036	-0.00072	0.00022	0.00022	0.00014	-7e-05	2
6324	0.00064	-5e-05	-0.00036	-0.00072	0.00022	0.00022	0.00014	-7e-05	2
6325	0.00064	-5e-05	-0.00036	-0.00072	0.00022	0.00022	0.00014	-7e-05	2
6326	0.00064	-5e-05	-0.00036	-0.00072	0.00022	0.00022	0.00014	-7e-05	2
6327	0.00064	-5e-05	-0.00036	-0.00072	0.00022	0.00022	0.00014	-7e-05	2
6328	0.00064	-5e-05	-0.00036	-0.00072	0.00022	0.00022	0.00014	-7e-05	2
6329	0.00064	-5e-05	-0.00036	-0.00072	0.00022	0.00022	0.00014	-7e-05	2
6330	0.00064	-5e-05	-0.00036	-0.00072	0.00022	0.00022	0.00014	-7e-05	2
6331	0.00064	-5e-05	-0.00036	-0.00072	0.00022	0.00022	0.00014	-7e-05	2
6332	0.00064	-5e-05	-0.00036	-0.00072	0.00022	0.00022	0.00014	-7e-05	2
6333	0.00064	-5e-05	-0.00036	-0.00072	0.00022	0.00022	0.00014	-7e-05	2
6334	0.00064	-5e-05	-0.00036	-0.00072	0.00022	0.00022	0.00014	-7e-05	2
6335	0.00064	-5e-05	-0.00036	-0.00072	0.00022	0.00022	0.00014	-7e-05	2
6336	0.00064	-5e-05	-0.00036	-0.00072	0.00022	0.00022	0.00014	-7e-05	2
6338	0.00015	0	1e-05	0.00056	0.00017	0.00035	-0.00015	-3e-05	2
6339	0.00015	0	1e-05	0.00056	0.00017	0.00035	-0.00015	-3e-05	2
6340	0.00015	0	1e-05	0.00056	0.00017	0.00035	-0.00015	-3e-05	2
6341	0.00015	0	1e-05	0.00056	0.00017	0.00035	-0.00015	-3e-05	2
6342	0.00015	0	1e-05	0.00056	0.00017	0.00035	-0.00015	-3e-05	2
6343	0.00015	0	1e-05	0.00056	0.00017	0.00035	-0.00015	-3e-05	2
6344	0.00015	0	1e-05	0.00056	0.00017	0.00035	-0.00015	-3e-05	2
6345	-0.00072	-1e-05	2e-05	6e-05	-4e-05	-0.00016	-2e-05	-0.00011	2
6346	-0.00072	-1e-05	2e-05	6e-05	-4e-05	-0.00016	-2e-05	-0.00011	2
6347	-0.00051	-0.00011	-7e-05	-5e-05	-4e-05	-0.0004	-0.00035	-0.00025	2
6348	-0.00051	-0.00011	-7e-05	-5e-05	-4e-05	-0.0004	-0.00035	-0.00025	2
6349	-0.00051	-0.00011	-7e-05	-5e-05	-4e-05	-0.0004	-0.00035	-0.00025	2
6350	-0.00051	-0.00011	-7e-05	-5e-05	-4e-05	-0.0004	-0.00035	-0.00025	2
6351	-0.00051	-0.00011	-7e-05	-5e-05	-4e-05	-0.0004	-0.00035	-0.00025	2
6352	-0.00051	-0.00011	-7e-05	-5e-05	-4e-05	-0.0004	-0.00035	-0.00025	2
6353	-0.00051	-0.00011	-7e-05	-5e-05	-4e-05	-0.0004	-0.00035	-0.00025	2
6354	-0.00051	-0.00011	-7e-05	-5e-05	-4e-05	-0.0004	-0.00035	-0.00025	2
6355	-0.00051	-0.00011	-7e-05	-5e-05	-4e-05	-0.0004	-0.00035	-0.00025	2
6356	-0.00051	-0.00011	-7e-05	-5e-05	-4e-05	-0.0004	-0.00035	-0.00025	2
6357	-0.00051	-0.00011	-7e-05	-5e-05	-4e-05	-0.0004	-0.00035	-0.00025	2
6358	-0.00051	-0.00011	-7e-05	-5e-05	-4e-05	-0.0004	-0.00035	-0.00025	2
6359	-0.00051	-0.00011	-7e-05	-5e-05	-4e-05	-0.0004	-0.00035	-0.00025	2
6360	-0.00051	-0.00011	-7e-05	-5e-05	-4e-05	-0.0004	-0.00035	-0.00025	2
6361	-0.00051	-0.00011	-7e-05	-5e-05	-4e-05	-0.0004	-0.00035	-0.00025	2
6362	-0.00051	-0.00011	-7e-05	-5e-05	-4e-05	-0.0004	-0.00035	-0.00025	2
6363	-0.00051	-0.00011	-7e-05	-5e-05	-4e-05	-0.0004	-0.00035	-0.00025	2
6364	-0.00051	-0.00011	-7e-05	-5e-05	-4e-05	-0.0004	-0.00035	-0.00025	2
6365	-0.00051	-0.00011	-7e-05	-5e-05	-4e-05	-0.0004	-0.00035	-0.00025	2
6366	-0.00051	-0.00011	-7e-05	-5e-05	-4e-05	-0.0004	-0.00035	-0.00025	2
6367	-0.00051	-0.00011	-7e-05	-5e-05	-4e-05	-0.0004	-0.00035	-0.00025	2
6368	0.00068	-4e-05	-7e-05	-9e-05	-0.0001	-2e-05	-0.00057	0.00011	2
6369	0.00023	7e-05	3e-05	-0.0002	-7e-05	6e-05	8e-05	-0.00015	2
6370	0.00023	7e-05	3e-05	-0.0002	-7e-05	6e-05	8e-05	-0.00015	2
6371	0.00023	7e-05	3e-05	-0.0002	-7e-05	6e-05	8e-05	-0.00015	2
6372	0.00023	7e-05	3e-05	-0.0002	-7e-05	6e-05	8e-05	-0.00015	2
6373	0.00023	7e-05	3e-05	-0.0002	-7e-05	6e-05	8e-05	-0.00015	2
6374	0.00023	7e-05	3e-05	-0.0002	-7e-05	6e-05	8e-05	-0.00015	2
6375	0.00023	7e-05	3e-05	-0.0002	-7e-05	6e-05	8e-05	-0.00015	2
6376	0.00023	7e-05	3e-05	-0.0002	-7e-05	6e-05	8e-05	-0.00015	2
6377	0.00023	7e-05	3e-05	-0.0002	-7e-05	6e-05	8e-05	-0.00015	2
6378	0.00023	7e-05	3e-05	-0.0002	-7e-05	6e-05	8e-05	-0.00015	2
6379	0.00023	7e-05	3e-05	-0.0002	-7e-05	6e-05	8e-05	-0.00015	2
6380	0.00023	7e-05	3e-05	-0.0002	-7e-05	6e-05	8e-05	-0.00015	2
6381	0.00023	7e-05	3e-05	-0.0002	-7e-05	6e-05	8e-05	-0.00015	2
6382	0.00034	-4e-05	-8e-05	-0.00023	-2e-05	-2e-05	0.00047	-4e-05	2
6383	0.00034	-4e-05	-8e-05	-0.00023	-2e-05	-2e-05	0.00047	-4e-05	2
6384	0.00034	-4e-05	-8e-05	-0.00023	-2e-05	-2e-05	0.00047	-4e-05	2
6385	0.00034	-4e-05	-8e-05	-0.00023	-2e-05	-2e-05	0.00047	-4e-05	2
6386	0.00034	-4e-05	-8e-05	-0.00023	-2e-05	-2e-05	0.00047	-4e-05	2
6388	0.00034	-4e-05	-8e-05	-0.00023	-2e-05	-2e-05	0.00047	-4e-05	2
6389	0.00034	-4e-05	-8e-05	-0.00023	-2e-05	-2e-05	0.00047	-4e-05	2
6390	0.00034	-4e-05	-8e-05	-0.00023	-2e-05	-2e-05	0.00047	-4e-05	2
6391	0.00034	-4e-05	-8e-05	-0.00023	-2e-05	-2e-05	0.00047	-4e-05	2
6392	0.00034	-4e-05	-8e-05	-0.00023	-2e-05	-2e-05	0.00047	-4e-05	2
6393	0.00034	-4e-05	-8e-05	-0.00023	-2e-05	-2e-05	0.00047	-4e-05	2
6394	0.00034	-4e-05	-8e-05	-0.00023	-2e-05	-2e-05	0.00047	-4e-05	2
6395	0.00034	-4e-05	-8e-05	-0.00023	-2e-05	-2e-05	0.00047	-4e-05	2
6396	0.00034	-4e-05	-8e-05	-0.00023	-2e-05	-2e-05	0.00047	-4e-05	2
6397	0.00052	4e-05	-0.00015	-0.00041	0	-5e-05	-9e-05	0.0002	2
6398	0.00052	4e-05	-0.00015	-0.00041	0	-5e-05	-9e-05	0.0002	2
6399	0.00052	4e-05	-0.00015	-0.00041	0	-5e-05	-9e-05	0.0002	2
6400	0.00052	4e-05	-0.00015	-0.00041	0	-5e-05	-9e-05	0.0002	2
6401	0.00052	4e-05	-0.00015	-0.00041	0	-5e-05	-9e-05	0.0002	2
6402	0.00052	4e-05	-0.00015	-0.00041	0	-5e-05	-9e-05	0.0002	2
6403	0.00052	4e-05	-0.00015	-0.00041	0	-5e-05	-9e-05	0.0002	2
6404	0.00052	4e-05	-0.00015	-0.00041	0	-5e-05	-9e-05	0.0002	2
6405	-0.0006	-2e-05	0.0001	0.00074	-0.0001	0.00024	1e-05	0	2
6406	-4e-05	0	2e-05	0.00056	-0.00029	-0.00035	-7e-05	-0.00014	2
6407	0.00018	-7e-05	-0.00031	-0.00048	0.00033	4e-05	-0.00025	6e-05	2
6408	0.00018	-7e-05	-0.00031	-0.00048	0.00033	4e-05	-0.00025	6e-05	2
6409	0.00018	-7e-05	-0.00031	-0.00048	0.00033	4e-05	-0.00025	6e-05	2
6410	0.00018	-7e-05	-0.00031	-0.00048	0.00033	4e-05	-0.00025	6e-05	2
6411	0.00018	-7e-05	-0.00031	-0.00048	0.00033	4e-05	-0.00025	6e-05	2
6412	0.00018	-7e-05	-0.00031	-0.00048	0.00033	4e-05	-0.00025	6e-05	2
6413	0.00018	-7e-05	-0.00031	-0.00048	0.00033	4e-05	-0.00025	6e-05	2
6414	0.00018	-7e-05	-0.00031	-0.00048	0.00033	4e-05	-0.00025	6e-05	2
6415	0.00018	-7e-05	-0.00031	-0.00048	0.00033	4e-05	-0.00025	6e-05	2
6416	0.00018	-7e-05	-0.00031	-0.00048	0.00033	4e-05	-0.00025	6e-05	2
6417	0.00018	-7e-05	-0.00031	-0.00048	0.00033	4e-05	-0.00025	6e-05	2
6418	0.00018	-7e-05	-0.00031	-0.00048	0.00033	4e-05	-0.00025	6e-05	2
6419	0.00018	-7e-05	-0.00031	-0.00048	0.00033	4e-05	-0.00025	6e-05	2
6420	0.00018	-7e-05	-0.00031	-0.00048	0.00033	4e-05	-0.00025	6e-05	2
6421	0.00018	-7e-05	-0.00031	-0.00048	0.00033	4e-05	-0.00025	6e-05	2
6422	0.00018	-7e-05	-0.00031	-0.00048	0.00033	4e-05	-0.00025	6e-05	2
6423	0.00018	-7e-05	-0.00031	-0.00048	0.00033	4e-05	-0.00025	6e-05	2
6424	0.00018	-7e-05	-0.00031	-0.00048	0.00033	4e-05	-0.00025	6e-05	2
6425	0.00018	-7e-05	-0.00031	-0.00048	0.00033	4e-05	-0.00025	6e-05	2
6426	0.00018	-7e-05	-0.00031	-0.00048	0.00033	4e-05	-0.00025	6e-05	2
6427	0.00018	-7e-05	-0.00031	-0.00048	0.00033	4e-05	-0.00025	6e-05	2
6428	-0.00015	7e-05	3e-05	9e-05	-3e-05	0.00011	7e-05	9e-05	2
6429	-0.00015	7e-05	3e-05	9e-05	-3e-05	0.00011	7e-05	9e-05	2
6430	-0.00104	4e-05	0.00015	0.00056	0	1e-05	0.00033	-0.00011	2
6431	-0.00104	4e-05	0.00015	0.00056	0	1e-05	0.00033	-0.00011	2
6432	-0.00104	4e-05	0.00015	0.00056	0	1e-05	0.00033	-0.00011	2
6433	-0.00104	4e-05	0.00015	0.00056	0	1e-05	0.00033	-0.00011	2
6434	-0.00104	4e-05	0.00015	0.00056	0	1e-05	0.00033	-0.00011	2
6435	-0.00104	4e-05	0.00015	0.00056	0	1e-05	0.00033	-0.00011	2
6436	-0.00104	4e-05	0.00015	0.00056	0	1e-05	0.00033	-0.00011	2
6438	-0.00104	4e-05	0.00015	0.00056	0	1e-05	0.00033	-0.00011	2
6439	-0.00104	4e-05	0.00015	0.00056	0	1e-05	0.00033	-0.00011	2
6440	-0.00104	4e-05	0.00015	0.00056	0	1e-05	0.00033	-0.00011	2
6441	-0.00104	4e-05	0.00015	0.00056	0	1e-05	0.00033	-0.00011	2
6442	0.00033	-3e-05	-3e-05	5e-05	1e-05	-0.0002	-0.00041	-0.00017	2
6443	0.00033	-3e-05	-3e-05	5e-05	1e-05	-0.0002	-0.00041	-0.00017	2
6444	0.00033	-3e-05	-3e-05	5e-05	1e-05	-0.0002	-0.00041	-0.00017	2
6445	0.00033	-3e-05	-3e-05	5e-05	1e-05	-0.0002	-0.00041	-0.00017	2
6446	0.00033	-3e-05	-3e-05	5e-05	1e-05	-0.0002	-0.00041	-0.00017	2
6447	0.00033	-3e-05	-3e-05	5e-05	1e-05	-0.0002	-0.00041	-0.00017	2
6448	0.00033	-3e-05	-3e-05	5e-05	1e-05	-0.0002	-0.00041	-0.00017	2
6449	4e-05	2e-05	-7e-05	-0.00035	4e-05	0.00049	0.00014	-1e-05	2
6450	0.00037	-3e-05	0.00015	0.00053	-0.00024	-9e-05	5e-05	-2e-05	2
6451	0.00037	-3e-05	0.00015	0.00053	-0.00024	-9e-05	5e-05	-2e-05	2
6452	0.00037	-3e-05	0.00015	0.00053	-0.00024	-9e-05	5e-05	-2e-05	2
6453	0.00037	-3e-05	0.00015	0.00053	-0.00024	-9e-05	5e-05	-2e-05	2
6454	0.00037	-3e-05	0.00015	0.00053	-0.00024	-9e-05	5e-05	-2e-05	2
6455	0.00037	-3e-05	0.00015	0.00053	-0.00024	-9e-05	5e-05	-2e-05	2
6456	0.00037	-3e-05	0.00015	0.00053	-0.00024	-9e-05	5e-05	-2e-05	2
6457	0.00037	-3e-05	0.00015	0.00053	-0.00024	-9e-05	5e-05	-2e-05	2
6458	0.00037	-3e-05	0.00015	0.00053	-0.00024	-9e-05	5e-05	-2e-05	2
6459	0.00037	-3e-05	0.00015	0.00053	-0.00024	-9e-05	5e-05	-2e-05	2
6460	0.00037	-3e-05	0.00015	0.00053	-0.00024	-9e-05	5e-05	-2e-05	2
6461	0.00037	-3e-05	0.00015	0.00053	-0.00024	-9e-05	5e-05	-2e-05	2
6462	0.00037	-3e-05	0.00015	0.00053	-0.00024	-9e-05	5e-05	-2e-05	2
6463	0.00037	-3e-05	0.00015	0.00053	-0.00024	-9e-05	5e-05	-2e-05	2
6464	0.00037	-3e-05	0.00015	0.00053	-0.00024	-9e-05	5e-05	-2e-05	2
6465	0.00037	-3e-05	0.00015	0.00053	-0.00024	-9e-05	5e-05	-2e-05	2
6466	0.00054	-7e-05	8e-05	0.00036	0.00014	0.00039	-0.00081	-1e-05	2
6467	0.00043	7e-05	0	-7e-05	-0.00019	-0.00024	1e-05	-7e-05	2
6468	0.00043	7e-05	0	-7e-05	-0.00019	-0.00024	1e-05	-7e-05	2
6469	0.00043	7e-05	0	-7e-05	-0.00019	-0.00024	1e-05	-7e-05	2
6470	0.00043	7e-05	0	-7e-05	-0.00019	-0.00024	1e-05	-7e-05	2
6471	0.00043	7e-05	0	-7e-05	-0.00019	-0.00024	1e-05	-7e-05	2
6472	0.00043	7e-05	0	-7e-05	-0.00019	-0.00024	1e-05	-7e-05	2
6473	0.00043	7e-05	0	-7e-05	-0.00019	-0.00024	1e-05	-7e-05	2
6474	0.00043	7e-05	0	-7e-05	-0.00019	-0.00024	1e-05	-7e-05	2
6475	0.00043	7e-05	0	-7e-05	-0.00019	-0.00024	1e-05	-7e-05	2
6476	0.00043	7e-05	0	-7e-05	-0.00019	-0.00024	1e-05	-7e-05	2
6477	0.00043	7e-05	0	-7e-05	-0.00019	-0.00024	1e-05	-7e-05	2
6478	0.00043	7e-05	0	-7e-05	-0.00019	-0.00024	1e-05	-7e-05	2
6479	0.00043	7e-05	0	-7e-05	-0.00019	-0.00024	1e-05	-7e-05	2
6480	0.00043	7e-05	0	-7e-05	-0.00019	-0.00024	1e-05	-7e-05	2
6481	0.00043	7e-05	0	-7e-05	-0.00019	-0.00024	1e-05	-7e-05	2
6482	0.00043	7e-05	0	-7e-05	-0.00019	-0.00024	1e-05	-7e-05	2
6483	0.00043	7e-05	0	-7e-05	-0.00019	-0.00024	1e-05	-7e-05	2
6484	0.00043	7e-05	0	-7e-05	-0.00019	-0.00024	1e-05	-7e-05	2
6485	0.00043	7e-05	0	-7e-05	-0.00019	-0.00024	1e-05	-7e-05	2
6486	0.00043	7e-05	0	-7e-05	-0.00019	-0.00024	1e-05	-7e-05	2
6488	-4e-05	-8e-05	-5e-05	-8e-05	0.00012	-5e-05	-0.0001	-9e-05	2
6489	-9e-05	-4e-05	-9e-05	-0.00012	0.00012	-5e-05	-0.00035	3e-05	2
6490	-9e-05	-4e-05	-9e-05	-0.00012	0.00012	-5e-05	-0.00035	3e-05	2
6491	-9e-05	-4e-05	-9e-05	-0.00012	0.00012	-5e-05	-0.00035	3e-05	2
6492	-9e-05	-4e-05	-9e-05	-0.00012	0.00012	-5e-05	-0.00035	3e-05	2
6493	-9e-05	-4e-05	-9e-05	-0.00012	0.00012	-5e-05	-0.00035	3e-05	2
6494	-9e-05	-4e-05	-9e-05	-0.00012	0.00012	-5e-05	-0.00035	3e-05	2
6495	-9e-05	-4e-05	-9e-05	-0.00012	0.00012	-5e-05	-0.00035	3e-05	2
6496	-9e-05	-4e-05	-9e-05	-0.00012	0.00012	-5e-05	-0.00035	3e-05	2
6497	-9e-05	-4e-05	-9e-05	-0.00012	0.00012	-5e-05	-0.00035	3e-05	2
6499	-9e-05	-4e-05	-9e-05	-0.00012	0.00012	-5e-05	-0.00035	3e-05	2
6500	-9e-05	-4e-05	-9e-05	-0.00012	0.00012	-5e-05	-0.00035	3e-05	2
6501	-9e-05	-4e-05	-9e-05	-0.00012	0.00012	-5e-05	-0.00035	3e-05	2
6502	0.00045	7e-05	-1e-05	-0.00019	-5e-05	-0.00012	0.00033	0	2
6503	0.00045	7e-05	-1e-05	-0.00019	-5e-05	-0.00012	0.00033	0	2
6504	0.00045	7e-05	-1e-05	-0.00019	-5e-05	-0.00012	0.00033	0	2
6505	0.00045	7e-05	-1e-05	-0.00019	-5e-05	-0.00012	0.00033	0	2
6506	0.00045	7e-05	-1e-05	-0.00019	-5e-05	-0.00012	0.00033	0	2
6507	0.00045	7e-05	-1e-05	-0.00019	-5e-05	-0.00012	0.00033	0	2
6508	0.00045	7e-05	-1e-05	-0.00019	-5e-05	-0.00012	0.00033	0	2
6509	0.00069	-6e-05	-0.00026	-0.00067	0.00045	0.00046	0.00047	-2e-05	2
6510	0.00069	-6e-05	-0.00026	-0.00067	0.00045	0.00046	0.00047	-2e-05	2
6511	0.00069	-6e-05	-0.00026	-0.00067	0.00045	0.00046	0.00047	-2e-05	2
6512	0.00069	-6e-05	-0.00026	-0.00067	0.00045	0.00046	0.00047	-2e-05	2
6513	0.00069	-6e-05	-0.00026	-0.00067	0.00045	0.00046	0.00047	-2e-05	2
6514	0.00069	-6e-05	-0.00026	-0.00067	0.00045	0.00046	0.00047	-2e-05	2
6515	0.00069	-6e-05	-0.00026	-0.00067	0.00045	0.00046	0.00047	-2e-05	2
6516	0.00069	-6e-05	-0.00026	-0.00067	0.00045	0.00046	0.00047	-2e-05	2
6517	0.00069	-6e-05	-0.00026	-0.00067	0.00045	0.00046	0.00047	-2e-05	2
6518	0.00069	-6e-05	-0.00026	-0.00067	0.00045	0.00046	0.00047	-2e-05	2
6519	0.00069	-6e-05	-0.00026	-0.00067	0.00045	0.00046	0.00047	-2e-05	2
6520	0.00069	-6e-05	-0.00026	-0.00067	0.00045	0.00046	0.00047	-2e-05	2
6521	0.00069	-6e-05	-0.00026	-0.00067	0.00045	0.00046	0.00047	-2e-05	2
6522	0.00069	-6e-05	-0.00026	-0.00067	0.00045	0.00046	0.00047	-2e-05	2
6523	0.00069	-6e-05	-0.00026	-0.00067	0.00045	0.00046	0.00047	-2e-05	2
6524	0.00069	-6e-05	-0.00026	-0.00067	0.00045	0.00046	0.00047	-2e-05	2
6525	-0.00024	0	4e-05	0.00018	-9e-05	0.00014	0.0003	-0.00015	2
6526	-0.00024	0	4e-05	0.00018	-9e-05	0.00014	0.0003	-0.00015	2
6527	0.00065	5e-05	-7e-05	-0.00055	0	-7e-05	-0.00031	-4e-05	2
6528	0.00065	5e-05	-7e-05	-0.00055	0	-7e-05	-0.00031	-4e-05	2
6529	0.00065	5e-05	-7e-05	-0.00055	0	-7e-05	-0.00031	-4e-05	2
6530	0.00065	5e-05	-7e-05	-0.00055	0	-7e-05	-0.00031	-4e-05	2
6531	0.00065	5e-05	-7e-05	-0.00055	0	-7e-05	-0.00031	-4e-05	2
6532	0.00065	5e-05	-7e-05	-0.00055	0	-7e-05	-0.00031	-4e-05	2
6533	0.00065	5e-05	-7e-05	-0.00055	0	-7e-05	-0.00031	-4e-05	2
6534	0.00065	5e-05	-7e-05	-0.00055	0	-7e-05	-0.00031	-4e-05	2
6535	0.00065	5e-05	-7e-05	-0.00055	0	-7e-05	-0.00031	-4e-05	2
6536	0.00065	5e-05	-7e-05	-0.00055	0	-7e-05	-0.00031	-4e-05	2
6538	0.00065	5e-05	-7e-05	-0.00055	0	-7e-05	-0.00031	-4e-05	2
6539	0.00065	5e-05	-7e-05	-0.00055	0	-7e-05	-0.00031	-4e-05	2
6540	0.00065	5e-05	-7e-05	-0.00055	0	-7e-05	-0.00031	-4e-05	2
6541	0.00065	5e-05	-7e-05	-0.00055	0	-7e-05	-0.00031	-4e-05	2
6542	0.00065	5e-05	-7e-05	-0.00055	0	-7e-05	-0.00031	-4e-05	2
6543	0.00065	5e-05	-7e-05	-0.00055	0	-7e-05	-0.00031	-4e-05	2
6544	0.00065	5e-05	-7e-05	-0.00055	0	-7e-05	-0.00031	-4e-05	2
6546	0.00065	5e-05	-7e-05	-0.00055	0	-7e-05	-0.00031	-4e-05	2
6547	0.00065	5e-05	-7e-05	-0.00055	0	-7e-05	-0.00031	-4e-05	2
6548	-0.00102	-0.00013	-4e-05	-0.00025	-4e-05	-2e-05	-0.00012	-0.00015	2
6549	-0.00102	-0.00013	-4e-05	-0.00025	-4e-05	-2e-05	-0.00012	-0.00015	2
6550	-0.00102	-0.00013	-4e-05	-0.00025	-4e-05	-2e-05	-0.00012	-0.00015	2
6551	-0.00102	-0.00013	-4e-05	-0.00025	-4e-05	-2e-05	-0.00012	-0.00015	2
6552	-0.00102	-0.00013	-4e-05	-0.00025	-4e-05	-2e-05	-0.00012	-0.00015	2
6553	-0.00102	-0.00013	-4e-05	-0.00025	-4e-05	-2e-05	-0.00012	-0.00015	2
6554	-0.00026	-1e-05	0.00018	0.00075	-0.00011	-3e-05	4e-05	-3e-05	2
6555	-0.00026	-1e-05	0.00018	0.00075	-0.00011	-3e-05	4e-05	-3e-05	2
6556	-0.00026	-1e-05	0.00018	0.00075	-0.00011	-3e-05	4e-05	-3e-05	2
6557	-0.00026	-1e-05	0.00018	0.00075	-0.00011	-3e-05	4e-05	-3e-05	2
6558	-0.00026	-1e-05	0.00018	0.00075	-0.00011	-3e-05	4e-05	-3e-05	2
6559	-0.00026	-1e-05	0.00018	0.00075	-0.00011	-3e-05	4e-05	-3e-05	2
6560	-0.00026	-1e-05	0.00018	0.00075	-0.00011	-3e-05	4e-05	-3e-05	2
6561	-0.00026	-1e-05	0.00018	0.00075	-0.00011	-3e-05	4e-05	-3e-05	2
6562	-2e-05	0.00011	8e-05	0.00011	-0.00031	-0.00019	0.00046	0.00016	2
6563	-2e-05	0.00011	8e-05	0.00011	-0.00031	-0.00019	0.00046	0.00016	2
6564	-2e-05	0.00011	8e-05	0.00011	-0.00031	-0.00019	0.00046	0.00016	2
6565	-2e-05	0.00011	8e-05	0.00011	-0.00031	-0.00019	0.00046	0.00016	2
6566	-2e-05	0.00011	8e-05	0.00011	-0.00031	-0.00019	0.00046	0.00016	2
6567	-2e-05	0.00011	8e-05	0.00011	-0.00031	-0.00019	0.00046	0.00016	2
6568	-2e-05	0.00011	8e-05	0.00011	-0.00031	-0.00019	0.00046	0.00016	2
6569	0.00014	2e-05	4e-05	0.00016	-0.00011	-0.0005	-0.00024	0.00032	2
6570	0.00014	2e-05	4e-05	0.00016	-0.00011	-0.0005	-0.00024	0.00032	2
6571	0.00014	2e-05	4e-05	0.00016	-0.00011	-0.0005	-0.00024	0.00032	2
6572	0.00014	2e-05	4e-05	0.00016	-0.00011	-0.0005	-0.00024	0.00032	2
6573	0.00014	2e-05	4e-05	0.00016	-0.00011	-0.0005	-0.00024	0.00032	2
6574	0.00014	2e-05	4e-05	0.00016	-0.00011	-0.0005	-0.00024	0.00032	2
6575	0.00014	2e-05	4e-05	0.00016	-0.00011	-0.0005	-0.00024	0.00032	2
6576	0.00014	2e-05	4e-05	0.00016	-0.00011	-0.0005	-0.00024	0.00032	2
6577	0.00014	2e-05	4e-05	0.00016	-0.00011	-0.0005	-0.00024	0.00032	2
6578	0.00014	2e-05	4e-05	0.00016	-0.00011	-0.0005	-0.00024	0.00032	2
6579	0.00014	2e-05	4e-05	0.00016	-0.00011	-0.0005	-0.00024	0.00032	2
6580	0.00014	2e-05	4e-05	0.00016	-0.00011	-0.0005	-0.00024	0.00032	2
6581	0.00014	2e-05	4e-05	0.00016	-0.00011	-0.0005	-0.00024	0.00032	2
6582	0.00014	2e-05	4e-05	0.00016	-0.00011	-0.0005	-0.00024	0.00032	2
6583	0.00014	2e-05	4e-05	0.00016	-0.00011	-0.0005	-0.00024	0.00032	2
6584	0.00014	2e-05	4e-05	0.00016	-0.00011	-0.0005	-0.00024	0.00032	2
6585	-0.00074	1e-05	-0.0001	-0.00039	0.00037	-0.00015	-2e-05	5e-05	2
6586	-0.00074	1e-05	-0.0001	-0.00039	0.00037	-0.00015	-2e-05	5e-05	2
6588	-0.00026	0	0.00011	0.00042	2e-05	-0.00012	-2e-05	-8e-05	2
6589	-0.00026	0	0.00011	0.00042	2e-05	-0.00012	-2e-05	-8e-05	2
6590	-0.00026	0	0.00011	0.00042	2e-05	-0.00012	-2e-05	-8e-05	2
6591	-0.00026	0	0.00011	0.00042	2e-05	-0.00012	-2e-05	-8e-05	2
6592	-0.00026	0	0.00011	0.00042	2e-05	-0.00012	-2e-05	-8e-05	2
6593	-0.00026	0	0.00011	0.00042	2e-05	-0.00012	-2e-05	-8e-05	2
6594	-0.00026	0	0.00011	0.00042	2e-05	-0.00012	-2e-05	-8e-05	2
6595	-0.00026	0	0.00011	0.00042	2e-05	-0.00012	-2e-05	-8e-05	2
6596	-0.00026	0	0.00011	0.00042	2e-05	-0.00012	-2e-05	-8e-05	2
6597	-0.00026	0	0.00011	0.00042	2e-05	-0.00012	-2e-05	-8e-05	2
6598	-0.00026	0	0.00011	0.00042	2e-05	-0.00012	-2e-05	-8e-05	2
6599	-0.00026	0	0.00011	0.00042	2e-05	-0.00012	-2e-05	-8e-05	2
6600	-0.00026	0	0.00011	0.00042	2e-05	-0.00012	-2e-05	-8e-05	2
6601	-0.00026	0	0.00011	0.00042	2e-05	-0.00012	-2e-05	-8e-05	2
6602	-0.00026	0	0.00011	0.00042	2e-05	-0.00012	-2e-05	-8e-05	2
6603	-0.00026	0	0.00011	0.00042	2e-05	-0.00012	-2e-05	-8e-05	2
6604	-0.00026	0	0.00011	0.00042	2e-05	-0.00012	-2e-05	-8e-05	2
6605	-0.00026	0	0.00011	0.00042	2e-05	-0.00012	-2e-05	-8e-05	2
6606	-0.00026	0	0.00011	0.00042	2e-05	-0.00012	-2e-05	-8e-05	2
6607	-0.00026	0	0.00011	0.00042	2e-05	-0.00012	-2e-05	-8e-05	2
6608	0.00025	7e-05	-9e-05	-0.00029	-0.00016	-0.00026	-2e-05	7e-05	2
6609	-0.00074	-0.00015	-3e-05	-0.00019	-0.00018	-0.00017	4e-05	-0.00017	2
6610	0.00023	1e-05	0	0.00013	-8e-05	6e-05	-0.00036	7e-05	2
6611	0.00023	1e-05	0	0.00013	-8e-05	6e-05	-0.00036	7e-05	2
6612	0.00023	1e-05	0	0.00013	-8e-05	6e-05	-0.00036	7e-05	2
6613	0.00023	1e-05	0	0.00013	-8e-05	6e-05	-0.00036	7e-05	2
6614	0.00023	1e-05	0	0.00013	-8e-05	6e-05	-0.00036	7e-05	2
6615	0.00023	1e-05	0	0.00013	-8e-05	6e-05	-0.00036	7e-05	2
6616	0.00023	1e-05	0	0.00013	-8e-05	6e-05	-0.00036	7e-05	2
6617	0.00023	1e-05	0	0.00013	-8e-05	6e-05	-0.00036	7e-05	2
6618	0.00023	1e-05	0	0.00013	-8e-05	6e-05	-0.00036	7e-05	2
6619	0.00023	1e-05	0	0.00013	-8e-05	6e-05	-0.00036	7e-05	2
6620	0.00023	1e-05	0	0.00013	-8e-05	6e-05	-0.00036	7e-05	2
6621	0.00023	1e-05	0	0.00013	-8e-05	6e-05	-0.00036	7e-05	2
6622	0.00084	2e-05	-0.00014	-0.00051	0.00011	-1e-05	-0.00012	8e-05	2
6623	0.00084	2e-05	-0.00014	-0.00051	0.00011	-1e-05	-0.00012	8e-05	2
6624	0.00084	2e-05	-0.00014	-0.00051	0.00011	-1e-05	-0.00012	8e-05	2
6625	0.00084	2e-05	-0.00014	-0.00051	0.00011	-1e-05	-0.00012	8e-05	2
6626	0.00084	2e-05	-0.00014	-0.00051	0.00011	-1e-05	-0.00012	8e-05	2
6627	0.00084	2e-05	-0.00014	-0.00051	0.00011	-1e-05	-0.00012	8e-05	2
6628	0.00084	2e-05	-0.00014	-0.00051	0.00011	-1e-05	-0.00012	8e-05	2
6629	-8e-05	-7e-05	8e-05	0.00025	-0.00014	0	-0.00054	-7e-05	2
6630	-8e-05	-7e-05	8e-05	0.00025	-0.00014	0	-0.00054	-7e-05	2
6631	-8e-05	-7e-05	8e-05	0.00025	-0.00014	0	-0.00054	-7e-05	2
6632	-8e-05	-7e-05	8e-05	0.00025	-0.00014	0	-0.00054	-7e-05	2
6633	-8e-05	-7e-05	8e-05	0.00025	-0.00014	0	-0.00054	-7e-05	2
6634	-8e-05	-7e-05	8e-05	0.00025	-0.00014	0	-0.00054	-7e-05	2
6635	-8e-05	-7e-05	8e-05	0.00025	-0.00014	0	-0.00054	-7e-05	2
6636	-8e-05	-7e-05	8e-05	0.00025	-0.00014	0	-0.00054	-7e-05	2
6639	-8e-05	-7e-05	8e-05	0.00025	-0.00014	0	-0.00054	-7e-05	2
6640	-8e-05	-7e-05	8e-05	0.00025	-0.00014	0	-0.00054	-7e-05	2
6641	-8e-05	-7e-05	8e-05	0.00025	-0.00014	0	-0.00054	-7e-05	2
6642	-8e-05	-7e-05	8e-05	0.00025	-0.00014	0	-0.00054	-7e-05	2
6643	-8e-05	-7e-05	8e-05	0.00025	-0.00014	0	-0.00054	-7e-05	2
6644	-8e-05	-7e-05	8e-05	0.00025	-0.00014	0	-0.00054	-7e-05	2
6645	0.0003	1e-05	1e-05	0	-0.00016	0.00018	-0.0002	1e-05	2
6646	-8e-05	-4e-05	-8e-05	1e-05	0.00029	-0.00026	0.00031	3e-05	2
6647	-0.00078	-5e-05	2e-05	9e-05	6e-05	0.00024	0.00016	-0.00012	2
6648	-0.00078	-5e-05	2e-05	9e-05	6e-05	0.00024	0.00016	-0.00012	2
6649	-0.00078	-5e-05	2e-05	9e-05	6e-05	0.00024	0.00016	-0.00012	2
6650	-0.00078	-5e-05	2e-05	9e-05	6e-05	0.00024	0.00016	-0.00012	2
6651	-0.00078	-5e-05	2e-05	9e-05	6e-05	0.00024	0.00016	-0.00012	2
6652	-0.00078	-5e-05	2e-05	9e-05	6e-05	0.00024	0.00016	-0.00012	2
6653	-0.00078	-5e-05	2e-05	9e-05	6e-05	0.00024	0.00016	-0.00012	2
6654	-0.00078	-5e-05	2e-05	9e-05	6e-05	0.00024	0.00016	-0.00012	2
6655	-0.00078	-5e-05	2e-05	9e-05	6e-05	0.00024	0.00016	-0.00012	2
6656	-0.00078	-5e-05	2e-05	9e-05	6e-05	0.00024	0.00016	-0.00012	2
6657	-0.00078	-5e-05	2e-05	9e-05	6e-05	0.00024	0.00016	-0.00012	2
6658	-0.00078	-5e-05	2e-05	9e-05	6e-05	0.00024	0.00016	-0.00012	2
6659	-0.00078	-5e-05	2e-05	9e-05	6e-05	0.00024	0.00016	-0.00012	2
6660	-0.00078	-5e-05	2e-05	9e-05	6e-05	0.00024	0.00016	-0.00012	2
6661	-0.00078	-5e-05	2e-05	9e-05	6e-05	0.00024	0.00016	-0.00012	2
6662	-0.00078	-5e-05	2e-05	9e-05	6e-05	0.00024	0.00016	-0.00012	2
6663	-0.00078	-5e-05	2e-05	9e-05	6e-05	0.00024	0.00016	-0.00012	2
6664	-0.00078	-5e-05	2e-05	9e-05	6e-05	0.00024	0.00016	-0.00012	2
6665	-0.00078	-5e-05	2e-05	9e-05	6e-05	0.00024	0.00016	-0.00012	2
6666	-0.00078	-5e-05	2e-05	9e-05	6e-05	0.00024	0.00016	-0.00012	2
6667	-0.00078	-5e-05	2e-05	9e-05	6e-05	0.00024	0.00016	-0.00012	2
6668	-0.00078	-5e-05	2e-05	9e-05	6e-05	0.00024	0.00016	-0.00012	2
6669	-0.00078	-5e-05	2e-05	9e-05	6e-05	0.00024	0.00016	-0.00012	2
6670	-0.00078	-5e-05	2e-05	9e-05	6e-05	0.00024	0.00016	-0.00012	2
6671	-0.00078	-5e-05	2e-05	9e-05	6e-05	0.00024	0.00016	-0.00012	2
6672	-0.00078	-5e-05	2e-05	9e-05	6e-05	0.00024	0.00016	-0.00012	2
6673	-0.00078	-5e-05	2e-05	9e-05	6e-05	0.00024	0.00016	-0.00012	2
6674	-0.00078	-5e-05	2e-05	9e-05	6e-05	0.00024	0.00016	-0.00012	2
6675	-0.00011	0	-0.00015	-0.00042	-0.00012	0.00028	-0.00023	-8e-05	2
6676	-0.00011	0	-0.00015	-0.00042	-0.00012	0.00028	-0.00023	-8e-05	2
6677	-0.00023	2e-05	4e-05	0.00027	-1e-05	4e-05	0.00013	0.0001	2
6678	-0.00023	2e-05	4e-05	0.00027	-1e-05	4e-05	0.00013	0.0001	2
6679	-0.00023	2e-05	4e-05	0.00027	-1e-05	4e-05	0.00013	0.0001	2
6680	-0.00023	2e-05	4e-05	0.00027	-1e-05	4e-05	0.00013	0.0001	2
6681	9e-05	9e-05	0.00014	0.00044	-8e-05	-3e-05	0.00019	0.00027	2
6682	9e-05	9e-05	0.00014	0.00044	-8e-05	-3e-05	0.00019	0.00027	2
6683	9e-05	9e-05	0.00014	0.00044	-8e-05	-3e-05	0.00019	0.00027	2
6684	9e-05	9e-05	0.00014	0.00044	-8e-05	-3e-05	0.00019	0.00027	2
6685	9e-05	9e-05	0.00014	0.00044	-8e-05	-3e-05	0.00019	0.00027	2
6686	9e-05	9e-05	0.00014	0.00044	-8e-05	-3e-05	0.00019	0.00027	2
6688	9e-05	9e-05	0.00014	0.00044	-8e-05	-3e-05	0.00019	0.00027	2
6689	9e-05	9e-05	0.00014	0.00044	-8e-05	-3e-05	0.00019	0.00027	2
6690	9e-05	9e-05	0.00014	0.00044	-8e-05	-3e-05	0.00019	0.00027	2
6691	9e-05	9e-05	0.00014	0.00044	-8e-05	-3e-05	0.00019	0.00027	2
6692	9e-05	9e-05	0.00014	0.00044	-8e-05	-3e-05	0.00019	0.00027	2
6693	9e-05	9e-05	0.00014	0.00044	-8e-05	-3e-05	0.00019	0.00027	2
6694	9e-05	9e-05	0.00014	0.00044	-8e-05	-3e-05	0.00019	0.00027	2
6695	9e-05	9e-05	0.00014	0.00044	-8e-05	-3e-05	0.00019	0.00027	2
6696	9e-05	9e-05	0.00014	0.00044	-8e-05	-3e-05	0.00019	0.00027	2
6697	9e-05	9e-05	0.00014	0.00044	-8e-05	-3e-05	0.00019	0.00027	2
6698	9e-05	9e-05	0.00014	0.00044	-8e-05	-3e-05	0.00019	0.00027	2
6699	9e-05	9e-05	0.00014	0.00044	-8e-05	-3e-05	0.00019	0.00027	2
6700	9e-05	9e-05	0.00014	0.00044	-8e-05	-3e-05	0.00019	0.00027	2
36782	0.00044	-7e-05	2e-05	0.0004	-2e-05	-0.00041	0	7e-05	2
36783	0.00044	-7e-05	2e-05	0.0004	-2e-05	-0.00041	0	7e-05	2
36784	0.00044	-7e-05	2e-05	0.0004	-2e-05	-0.00041	0	7e-05	2
36785	0.00044	-7e-05	2e-05	0.0004	-2e-05	-0.00041	0	7e-05	2
36786	0.00044	-7e-05	2e-05	0.0004	-2e-05	-0.00041	0	7e-05	2
36789	2e-05	-0.00013	-0.00012	7e-05	-0.0001	0.00011	-0.00046	9e-05	2
36790	2e-05	-0.00013	-0.00012	7e-05	-0.0001	0.00011	-0.00046	9e-05	2
36791	2e-05	-0.00013	-0.00012	7e-05	-0.0001	0.00011	-0.00046	9e-05	2
36792	2e-05	-0.00013	-0.00012	7e-05	-0.0001	0.00011	-0.00046	9e-05	2
36793	2e-05	-0.00013	-0.00012	7e-05	-0.0001	0.00011	-0.00046	9e-05	2
36794	2e-05	-0.00013	-0.00012	7e-05	-0.0001	0.00011	-0.00046	9e-05	2
36795	2e-05	-0.00013	-0.00012	7e-05	-0.0001	0.00011	-0.00046	9e-05	2
36796	0.00031	-2e-05	-4e-05	-0.00049	-0.0003	-0.00017	0.00014	0.00014	2
36797	0.00031	-2e-05	-4e-05	-0.00049	-0.0003	-0.00017	0.00014	0.00014	2
36798	0.00031	-2e-05	-4e-05	-0.00049	-0.0003	-0.00017	0.00014	0.00014	2
36799	0.00031	-2e-05	-4e-05	-0.00049	-0.0003	-0.00017	0.00014	0.00014	2
36800	0.00031	-2e-05	-4e-05	-0.00049	-0.0003	-0.00017	0.00014	0.00014	2
36801	0.00031	-2e-05	-4e-05	-0.00049	-0.0003	-0.00017	0.00014	0.00014	2
36802	0.00031	-2e-05	-4e-05	-0.00049	-0.0003	-0.00017	0.00014	0.00014	2
36803	0.0005	7e-05	-6e-05	2e-05	0.00028	-0.00023	0.00025	-0.00013	2
36804	-0.00093	-0.00014	-9e-05	-0.00074	8e-05	-5e-05	-0.00022	0	2
36805	-0.00093	-0.00014	-9e-05	-0.00074	8e-05	-5e-05	-0.00022	0	2
36806	-0.00093	-0.00014	-9e-05	-0.00074	8e-05	-5e-05	-0.00022	0	2
36807	-0.00093	-0.00014	-9e-05	-0.00074	8e-05	-5e-05	-0.00022	0	2
36808	-0.00093	-0.00014	-9e-05	-0.00074	8e-05	-5e-05	-0.00022	0	2
36809	-0.00093	-0.00014	-9e-05	-0.00074	8e-05	-5e-05	-0.00022	0	2
36810	0.0004	6e-05	8e-05	0.00016	-0.00018	9e-05	0.00018	-9e-05	2
36811	0.0004	6e-05	8e-05	0.00016	-0.00018	9e-05	0.00018	-9e-05	2
36812	0.0004	6e-05	8e-05	0.00016	-0.00018	9e-05	0.00018	-9e-05	2
36813	0.0004	6e-05	8e-05	0.00016	-0.00018	9e-05	0.00018	-9e-05	2
36814	0.0004	6e-05	8e-05	0.00016	-0.00018	9e-05	0.00018	-9e-05	2
36815	0.0004	6e-05	8e-05	0.00016	-0.00018	9e-05	0.00018	-9e-05	2
36816	0.0004	6e-05	8e-05	0.00016	-0.00018	9e-05	0.00018	-9e-05	2
36817	0.0004	6e-05	8e-05	0.00016	-0.00018	9e-05	0.00018	-9e-05	2
36818	0.0004	6e-05	8e-05	0.00016	-0.00018	9e-05	0.00018	-9e-05	2
36819	0.0004	6e-05	8e-05	0.00016	-0.00018	9e-05	0.00018	-9e-05	2
36820	0.0004	6e-05	8e-05	0.00016	-0.00018	9e-05	0.00018	-9e-05	2
36821	0.0004	6e-05	8e-05	0.00016	-0.00018	9e-05	0.00018	-9e-05	2
36822	0.0004	6e-05	8e-05	0.00016	-0.00018	9e-05	0.00018	-9e-05	2
36823	0.0004	6e-05	8e-05	0.00016	-0.00018	9e-05	0.00018	-9e-05	2
36824	0.0004	6e-05	8e-05	0.00016	-0.00018	9e-05	0.00018	-9e-05	2
36825	0.0004	6e-05	8e-05	0.00016	-0.00018	9e-05	0.00018	-9e-05	2
36826	0.00062	0	-5e-05	-2e-05	9e-05	-0.00016	0.00056	0.00017	2
36827	-0.00063	-0.00013	-0.00013	-0.00021	-8e-05	0.00014	0.00036	-8e-05	2
36828	-0.00037	8e-05	0.00011	0.00048	-0.00024	0	-0.00022	-0.00021	2
36829	-0.00037	8e-05	0.00011	0.00048	-0.00024	0	-0.00022	-0.00021	2
36830	-0.00037	8e-05	0.00011	0.00048	-0.00024	0	-0.00022	-0.00021	2
36831	-0.00037	8e-05	0.00011	0.00048	-0.00024	0	-0.00022	-0.00021	2
36832	-0.00037	8e-05	0.00011	0.00048	-0.00024	0	-0.00022	-0.00021	2
36833	-0.00037	8e-05	0.00011	0.00048	-0.00024	0	-0.00022	-0.00021	2
36834	-0.00037	8e-05	0.00011	0.00048	-0.00024	0	-0.00022	-0.00021	2
36835	-0.00037	8e-05	0.00011	0.00048	-0.00024	0	-0.00022	-0.00021	2
36836	-0.00037	8e-05	0.00011	0.00048	-0.00024	0	-0.00022	-0.00021	2
36838	-0.00037	8e-05	0.00011	0.00048	-0.00024	0	-0.00022	-0.00021	2
36839	-0.00037	8e-05	0.00011	0.00048	-0.00024	0	-0.00022	-0.00021	2
36840	-0.00037	8e-05	0.00011	0.00048	-0.00024	0	-0.00022	-0.00021	2
36841	-0.00037	8e-05	0.00011	0.00048	-0.00024	0	-0.00022	-0.00021	2
36842	-0.00037	8e-05	0.00011	0.00048	-0.00024	0	-0.00022	-0.00021	2
36843	-0.00037	8e-05	0.00011	0.00048	-0.00024	0	-0.00022	-0.00021	2
36844	-0.00037	8e-05	0.00011	0.00048	-0.00024	0	-0.00022	-0.00021	2
36845	-0.00037	8e-05	0.00011	0.00048	-0.00024	0	-0.00022	-0.00021	2
36846	-0.00037	8e-05	0.00011	0.00048	-0.00024	0	-0.00022	-0.00021	2
36847	-0.00037	8e-05	0.00011	0.00048	-0.00024	0	-0.00022	-0.00021	2
36848	-0.00037	8e-05	0.00011	0.00048	-0.00024	0	-0.00022	-0.00021	2
36849	0.00076	2e-05	0.00017	7e-05	-8e-05	-0.00049	-0.00119	-0.00027	2
36850	0.00035	-5e-05	-5e-05	-2e-05	1e-05	0.00041	0.00127	0.00021	2
36851	0.00035	-5e-05	-5e-05	-2e-05	1e-05	0.00041	0.00127	0.00021	2
36852	0.00035	-5e-05	-5e-05	-2e-05	1e-05	0.00041	0.00127	0.00021	2
36853	0.00035	-5e-05	-5e-05	-2e-05	1e-05	0.00041	0.00127	0.00021	2
36854	0.00035	-5e-05	-5e-05	-2e-05	1e-05	0.00041	0.00127	0.00021	2
36855	0.00035	-5e-05	-5e-05	-2e-05	1e-05	0.00041	0.00127	0.00021	2
36856	0.00035	-5e-05	-5e-05	-2e-05	1e-05	0.00041	0.00127	0.00021	2
36857	0.00035	-5e-05	-5e-05	-2e-05	1e-05	0.00041	0.00127	0.00021	2
36858	0.00035	-5e-05	-5e-05	-2e-05	1e-05	0.00041	0.00127	0.00021	2
36859	0.00035	-5e-05	-5e-05	-2e-05	1e-05	0.00041	0.00127	0.00021	2
36860	0.00035	-5e-05	-5e-05	-2e-05	1e-05	0.00041	0.00127	0.00021	2
36861	0.00035	-5e-05	-5e-05	-2e-05	1e-05	0.00041	0.00127	0.00021	2
36862	0.00035	-5e-05	-5e-05	-2e-05	1e-05	0.00041	0.00127	0.00021	2
36863	0.0003	1e-05	1e-05	5e-05	3e-05	0.00018	-0.00057	-9e-05	2
36864	0.0003	1e-05	1e-05	5e-05	3e-05	0.00018	-0.00057	-9e-05	2
36865	0.0003	1e-05	1e-05	5e-05	3e-05	0.00018	-0.00057	-9e-05	2
36866	0.0003	1e-05	1e-05	5e-05	3e-05	0.00018	-0.00057	-9e-05	2
36867	0.0003	1e-05	1e-05	5e-05	3e-05	0.00018	-0.00057	-9e-05	2
36868	0.0003	1e-05	1e-05	5e-05	3e-05	0.00018	-0.00057	-9e-05	2
36869	0.0003	1e-05	1e-05	5e-05	3e-05	0.00018	-0.00057	-9e-05	2
36870	5e-05	-5e-05	-3e-05	0.00054	0.00012	-0.00018	-0.00105	-9e-05	2
36871	5e-05	-5e-05	-3e-05	0.00054	0.00012	-0.00018	-0.00105	-9e-05	2
36872	5e-05	-5e-05	-3e-05	0.00054	0.00012	-0.00018	-0.00105	-9e-05	2
36873	5e-05	-5e-05	-3e-05	0.00054	0.00012	-0.00018	-0.00105	-9e-05	2
36874	5e-05	-5e-05	-3e-05	0.00054	0.00012	-0.00018	-0.00105	-9e-05	2
36875	5e-05	-5e-05	-3e-05	0.00054	0.00012	-0.00018	-0.00105	-9e-05	2
36876	5e-05	-5e-05	-3e-05	0.00054	0.00012	-0.00018	-0.00105	-9e-05	2
36877	5e-05	-5e-05	-3e-05	0.00054	0.00012	-0.00018	-0.00105	-9e-05	2
36878	5e-05	-5e-05	-3e-05	0.00054	0.00012	-0.00018	-0.00105	-9e-05	2
36879	5e-05	-5e-05	-3e-05	0.00054	0.00012	-0.00018	-0.00105	-9e-05	2
36880	5e-05	-5e-05	-3e-05	0.00054	0.00012	-0.00018	-0.00105	-9e-05	2
36881	5e-05	-5e-05	-3e-05	0.00054	0.00012	-0.00018	-0.00105	-9e-05	2
36882	5e-05	-5e-05	-3e-05	0.00054	0.00012	-0.00018	-0.00105	-9e-05	2
36883	5e-05	-5e-05	-3e-05	0.00054	0.00012	-0.00018	-0.00105	-9e-05	2
36884	5e-05	-5e-05	-3e-05	0.00054	0.00012	-0.00018	-0.00105	-9e-05	2
36885	5e-05	-5e-05	-3e-05	0.00054	0.00012	-0.00018	-0.00105	-9e-05	2
36887	3e-05	3e-05	-4e-05	-0.00024	-1e-05	-3e-05	0.00043	0.00012	2
36889	-0.00035	2e-05	0.00011	0.00043	0.00021	0.00011	0.00012	-0.00011	2
36890	-0.00035	2e-05	0.00011	0.00043	0.00021	0.00011	0.00012	-0.00011	2
36891	-0.00035	2e-05	0.00011	0.00043	0.00021	0.00011	0.00012	-0.00011	2
36892	-0.00035	2e-05	0.00011	0.00043	0.00021	0.00011	0.00012	-0.00011	2
36893	-0.00035	2e-05	0.00011	0.00043	0.00021	0.00011	0.00012	-0.00011	2
36894	-0.00035	2e-05	0.00011	0.00043	0.00021	0.00011	0.00012	-0.00011	2
36895	-0.00035	2e-05	0.00011	0.00043	0.00021	0.00011	0.00012	-0.00011	2
36896	-0.00035	2e-05	0.00011	0.00043	0.00021	0.00011	0.00012	-0.00011	2
36897	-0.00035	2e-05	0.00011	0.00043	0.00021	0.00011	0.00012	-0.00011	2
36898	-0.00035	2e-05	0.00011	0.00043	0.00021	0.00011	0.00012	-0.00011	2
36899	-0.00035	2e-05	0.00011	0.00043	0.00021	0.00011	0.00012	-0.00011	2
36900	-0.00035	2e-05	0.00011	0.00043	0.00021	0.00011	0.00012	-0.00011	2
36901	-0.00035	2e-05	0.00011	0.00043	0.00021	0.00011	0.00012	-0.00011	2
36902	-0.00035	2e-05	0.00011	0.00043	0.00021	0.00011	0.00012	-0.00011	2
36903	-0.00035	2e-05	0.00011	0.00043	0.00021	0.00011	0.00012	-0.00011	2
36904	-0.00035	2e-05	0.00011	0.00043	0.00021	0.00011	0.00012	-0.00011	2
36905	-0.00035	2e-05	0.00011	0.00043	0.00021	0.00011	0.00012	-0.00011	2
36906	-0.00035	2e-05	0.00011	0.00043	0.00021	0.00011	0.00012	-0.00011	2
36907	-0.00035	2e-05	0.00011	0.00043	0.00021	0.00011	0.00012	-0.00011	2
36908	-0.00035	2e-05	0.00011	0.00043	0.00021	0.00011	0.00012	-0.00011	2
36909	0.00091	4e-05	0	-0.00055	-0.00017	-0.00037	-0.00067	-2e-05	2
36910	0.00091	4e-05	0	-0.00055	-0.00017	-0.00037	-0.00067	-2e-05	2
36911	-0.00022	-1e-05	2e-05	0.00042	3e-05	0	5e-05	-8e-05	2
36912	-0.00022	-1e-05	2e-05	0.00042	3e-05	0	5e-05	-8e-05	2
36913	-0.00022	-1e-05	2e-05	0.00042	3e-05	0	5e-05	-8e-05	2
36914	-0.00022	-1e-05	2e-05	0.00042	3e-05	0	5e-05	-8e-05	2
36915	-0.00022	-1e-05	2e-05	0.00042	3e-05	0	5e-05	-8e-05	2
36916	-0.00022	-1e-05	2e-05	0.00042	3e-05	0	5e-05	-8e-05	2
36917	-0.00022	-1e-05	2e-05	0.00042	3e-05	0	5e-05	-8e-05	2
36918	-0.00022	-1e-05	2e-05	0.00042	3e-05	0	5e-05	-8e-05	2
36919	-0.00022	-1e-05	2e-05	0.00042	3e-05	0	5e-05	-8e-05	2
36920	-0.00022	-1e-05	2e-05	0.00042	3e-05	0	5e-05	-8e-05	2
36921	-0.00022	-1e-05	2e-05	0.00042	3e-05	0	5e-05	-8e-05	2
36922	-0.00022	-1e-05	2e-05	0.00042	3e-05	0	5e-05	-8e-05	2
36923	-3e-05	0	-3e-05	0.00027	0.00018	-1e-05	-2e-05	-8e-05	2
36924	-3e-05	0	-3e-05	0.00027	0.00018	-1e-05	-2e-05	-8e-05	2
36925	-3e-05	0	-3e-05	0.00027	0.00018	-1e-05	-2e-05	-8e-05	2
36926	-3e-05	0	-3e-05	0.00027	0.00018	-1e-05	-2e-05	-8e-05	2
36927	-3e-05	0	-3e-05	0.00027	0.00018	-1e-05	-2e-05	-8e-05	2
36928	-3e-05	0	-3e-05	0.00027	0.00018	-1e-05	-2e-05	-8e-05	2
36929	0.00031	5e-05	-1e-05	-6e-05	-5e-05	-0.00021	-0.00021	0.00014	2
36930	0.00032	-3e-05	2e-05	-8e-05	3e-05	-2e-05	5e-05	0.00011	2
36931	0.00032	-3e-05	2e-05	-8e-05	3e-05	-2e-05	5e-05	0.00011	2
36932	0.00032	-3e-05	2e-05	-8e-05	3e-05	-2e-05	5e-05	0.00011	2
36933	0.00032	-3e-05	2e-05	-8e-05	3e-05	-2e-05	5e-05	0.00011	2
36934	0.00032	-3e-05	2e-05	-8e-05	3e-05	-2e-05	5e-05	0.00011	2
36935	0.00032	-3e-05	2e-05	-8e-05	3e-05	-2e-05	5e-05	0.00011	2
36936	0.00032	-3e-05	2e-05	-8e-05	3e-05	-2e-05	5e-05	0.00011	2
36939	0.00032	-3e-05	2e-05	-8e-05	3e-05	-2e-05	5e-05	0.00011	2
36940	0.00032	-3e-05	2e-05	-8e-05	3e-05	-2e-05	5e-05	0.00011	2
36941	0.00032	-3e-05	2e-05	-8e-05	3e-05	-2e-05	5e-05	0.00011	2
36942	0.00032	-3e-05	2e-05	-8e-05	3e-05	-2e-05	5e-05	0.00011	2
36943	0.00032	-3e-05	2e-05	-8e-05	3e-05	-2e-05	5e-05	0.00011	2
36944	0.00032	-3e-05	2e-05	-8e-05	3e-05	-2e-05	5e-05	0.00011	2
36945	0.00032	-3e-05	2e-05	-8e-05	3e-05	-2e-05	5e-05	0.00011	2
36946	0.00084	2e-05	0	0.00021	-0.00033	-0.00029	-0.00081	0.00024	2
36947	-0.00112	-0.00022	-0.00043	-0.00011	0.00065	0.00042	0.001	-0.00024	2
36948	8e-05	8e-05	0.00021	0.0002	-4e-05	0.00013	-0.00013	-0.00014	2
36949	8e-05	8e-05	0.00021	0.0002	-4e-05	0.00013	-0.00013	-0.00014	2
36950	8e-05	8e-05	0.00021	0.0002	-4e-05	0.00013	-0.00013	-0.00014	2
36951	8e-05	8e-05	0.00021	0.0002	-4e-05	0.00013	-0.00013	-0.00014	2
36952	8e-05	8e-05	0.00021	0.0002	-4e-05	0.00013	-0.00013	-0.00014	2
36953	8e-05	8e-05	0.00021	0.0002	-4e-05	0.00013	-0.00013	-0.00014	2
36954	8e-05	8e-05	0.00021	0.0002	-4e-05	0.00013	-0.00013	-0.00014	2
36955	8e-05	8e-05	0.00021	0.0002	-4e-05	0.00013	-0.00013	-0.00014	2
36956	8e-05	8e-05	0.00021	0.0002	-4e-05	0.00013	-0.00013	-0.00014	2
36957	8e-05	8e-05	0.00021	0.0002	-4e-05	0.00013	-0.00013	-0.00014	2
36958	8e-05	8e-05	0.00021	0.0002	-4e-05	0.00013	-0.00013	-0.00014	2
36959	8e-05	8e-05	0.00021	0.0002	-4e-05	0.00013	-0.00013	-0.00014	2
36960	8e-05	8e-05	0.00021	0.0002	-4e-05	0.00013	-0.00013	-0.00014	2
36961	8e-05	8e-05	0.00021	0.0002	-4e-05	0.00013	-0.00013	-0.00014	2
36962	8e-05	8e-05	0.00021	0.0002	-4e-05	0.00013	-0.00013	-0.00014	2
36963	8e-05	8e-05	0.00021	0.0002	-4e-05	0.00013	-0.00013	-0.00014	2
36964	8e-05	8e-05	0.00021	0.0002	-4e-05	0.00013	-0.00013	-0.00014	2
36965	8e-05	8e-05	0.00021	0.0002	-4e-05	0.00013	-0.00013	-0.00014	2
36966	8e-05	8e-05	0.00021	0.0002	-4e-05	0.00013	-0.00013	-0.00014	2
36967	8e-05	8e-05	0.00021	0.0002	-4e-05	0.00013	-0.00013	-0.00014	2
36968	8e-05	8e-05	0.00021	0.0002	-4e-05	0.00013	-0.00013	-0.00014	2
36969	8e-05	8e-05	0.00021	0.0002	-4e-05	0.00013	-0.00013	-0.00014	2
36970	8e-05	8e-05	0.00021	0.0002	-4e-05	0.00013	-0.00013	-0.00014	2
36971	8e-05	8e-05	0.00021	0.0002	-4e-05	0.00013	-0.00013	-0.00014	2
36972	8e-05	8e-05	0.00021	0.0002	-4e-05	0.00013	-0.00013	-0.00014	2
36973	8e-05	8e-05	0.00021	0.0002	-4e-05	0.00013	-0.00013	-0.00014	2
36974	8e-05	8e-05	0.00021	0.0002	-4e-05	0.00013	-0.00013	-0.00014	2
36975	8e-05	8e-05	0.00021	0.0002	-4e-05	0.00013	-0.00013	-0.00014	2
36976	-0.0003	6e-05	8e-05	-0.00013	-0.00012	0.00034	-2e-05	5e-05	2
36977	-0.0003	6e-05	8e-05	-0.00013	-0.00012	0.00034	-2e-05	5e-05	2
36978	-0.00075	-0.00012	-7e-05	-0.00019	-0.00019	-0.00016	-0.00055	-0.00017	2
36979	-0.00075	-0.00012	-7e-05	-0.00019	-0.00019	-0.00016	-0.00055	-0.00017	2
36980	-0.00075	-0.00012	-7e-05	-0.00019	-0.00019	-0.00016	-0.00055	-0.00017	2
36981	-0.00075	-0.00012	-7e-05	-0.00019	-0.00019	-0.00016	-0.00055	-0.00017	2
36982	-0.00075	-0.00012	-7e-05	-0.00019	-0.00019	-0.00016	-0.00055	-0.00017	2
36983	-0.00043	1e-05	-0.00017	-0.00103	3e-05	-0.00022	0.00023	-7e-05	2
36984	-0.00043	1e-05	-0.00017	-0.00103	3e-05	-0.00022	0.00023	-7e-05	2
36985	-0.00043	1e-05	-0.00017	-0.00103	3e-05	-0.00022	0.00023	-7e-05	2
36986	-0.00043	1e-05	-0.00017	-0.00103	3e-05	-0.00022	0.00023	-7e-05	2
36988	-0.00043	1e-05	-0.00017	-0.00103	3e-05	-0.00022	0.00023	-7e-05	2
36989	-0.00043	1e-05	-0.00017	-0.00103	3e-05	-0.00022	0.00023	-7e-05	2
36990	-0.00043	1e-05	-0.00017	-0.00103	3e-05	-0.00022	0.00023	-7e-05	2
36991	-0.00043	1e-05	-0.00017	-0.00103	3e-05	-0.00022	0.00023	-7e-05	2
36992	-0.00043	1e-05	-0.00017	-0.00103	3e-05	-0.00022	0.00023	-7e-05	2
36993	-0.00043	1e-05	-0.00017	-0.00103	3e-05	-0.00022	0.00023	-7e-05	2
36994	-0.00043	1e-05	-0.00017	-0.00103	3e-05	-0.00022	0.00023	-7e-05	2
36995	-0.00043	1e-05	-0.00017	-0.00103	3e-05	-0.00022	0.00023	-7e-05	2
36996	-0.00043	1e-05	-0.00017	-0.00103	3e-05	-0.00022	0.00023	-7e-05	2
36997	-0.00043	1e-05	-0.00017	-0.00103	3e-05	-0.00022	0.00023	-7e-05	2
36998	-0.00043	1e-05	-0.00017	-0.00103	3e-05	-0.00022	0.00023	-7e-05	2
36999	-0.00043	1e-05	-0.00017	-0.00103	3e-05	-0.00022	0.00023	-7e-05	2
37000	-0.00043	1e-05	-0.00017	-0.00103	3e-05	-0.00022	0.00023	-7e-05	2
37001	-0.00043	1e-05	-0.00017	-0.00103	3e-05	-0.00022	0.00023	-7e-05	2
37002	-0.00043	1e-05	-0.00017	-0.00103	3e-05	-0.00022	0.00023	-7e-05	2
37003	-0.00043	1e-05	-0.00017	-0.00103	3e-05	-0.00022	0.00023	-7e-05	2
37004	-0.00043	1e-05	-0.00017	-0.00103	3e-05	-0.00022	0.00023	-7e-05	2
37005	-0.00043	1e-05	-0.00017	-0.00103	3e-05	-0.00022	0.00023	-7e-05	2
37006	-0.00043	1e-05	-0.00017	-0.00103	3e-05	-0.00022	0.00023	-7e-05	2
37007	-0.00123	-0.00017	7e-05	0.00038	6e-05	0.0001	0.00036	-9e-05	2
37008	-0.00123	-0.00017	7e-05	0.00038	6e-05	0.0001	0.00036	-9e-05	2
37009	0.00109	4e-05	-4e-05	0.00011	0.00012	-0.00025	0.00057	0.00017	2
37010	0.00109	4e-05	-4e-05	0.00011	0.00012	-0.00025	0.00057	0.00017	2
37011	0.00109	4e-05	-4e-05	0.00011	0.00012	-0.00025	0.00057	0.00017	2
37012	0.00109	4e-05	-4e-05	0.00011	0.00012	-0.00025	0.00057	0.00017	2
37013	0.00109	4e-05	-4e-05	0.00011	0.00012	-0.00025	0.00057	0.00017	2
37014	0.00109	4e-05	-4e-05	0.00011	0.00012	-0.00025	0.00057	0.00017	2
37015	0.00109	4e-05	-4e-05	0.00011	0.00012	-0.00025	0.00057	0.00017	2
37016	0.00109	4e-05	-4e-05	0.00011	0.00012	-0.00025	0.00057	0.00017	2
37017	0.00109	4e-05	-4e-05	0.00011	0.00012	-0.00025	0.00057	0.00017	2
37018	0.00109	4e-05	-4e-05	0.00011	0.00012	-0.00025	0.00057	0.00017	2
37019	0.00109	4e-05	-4e-05	0.00011	0.00012	-0.00025	0.00057	0.00017	2
37020	0.00109	4e-05	-4e-05	0.00011	0.00012	-0.00025	0.00057	0.00017	2
37021	0.00109	4e-05	-4e-05	0.00011	0.00012	-0.00025	0.00057	0.00017	2
37022	0.00109	4e-05	-4e-05	0.00011	0.00012	-0.00025	0.00057	0.00017	2
37023	0.00109	4e-05	-4e-05	0.00011	0.00012	-0.00025	0.00057	0.00017	2
37024	0.00109	4e-05	-4e-05	0.00011	0.00012	-0.00025	0.00057	0.00017	2
37025	0.00109	4e-05	-4e-05	0.00011	0.00012	-0.00025	0.00057	0.00017	2
