5958	2e-05	-2e-05	-0.00012	-0.00026	0.00033	6e-05	0.00045	0	2
5959	2e-05	-2e-05	-0.00012	-0.00026	0.00033	6e-05	0.00045	0	2
5960	2e-05	-2e-05	-0.00012	-0.00026	0.00033	6e-05	0.00045	0	2
5961	2e-05	-2e-05	-0.00012	-0.00026	0.00033	6e-05	0.00045	0	2
5962	2e-05	-2e-05	-0.00012	-0.00026	0.00033	6e-05	0.00045	0	2
5963	2e-05	-2e-05	-0.00012	-0.00026	0.00033	6e-05	0.00045	0	2
5964	2e-05	-2e-05	-0.00012	-0.00026	0.00033	6e-05	0.00045	0	2
5965	2e-05	-2e-05	-0.00012	-0.00026	0.00033	6e-05	0.00045	0	2
5966	2e-05	-2e-05	-0.00012	-0.00026	0.00033	6e-05	0.00045	0	2
5967	2e-05	-2e-05	-0.00012	-0.00026	0.00033	6e-05	0.00045	0	2
5968	2e-05	-2e-05	-0.00012	-0.00026	0.00033	6e-05	0.00045	0	2
5969	-7e-05	-3e-05	4e-05	-5e-05	-5e-05	9e-05	-2e-05	-1e-05	2
5970	-7e-05	-2e-05	-6e-05	-0.00024	0.00012	4e-05	2e-05	2e-05	2
5971	-7e-05	-2e-05	-6e-05	-0.00024	0.00012	4e-05	2e-05	2e-05	2
5972	-7e-05	-2e-05	-6e-05	-0.00024	0.00012	4e-05	2e-05	2e-05	2
5973	-7e-05	-2e-05	-6e-05	-0.00024	0.00012	4e-05	2e-05	2e-05	2
5974	-7e-05	-2e-05	-6e-05	-0.00024	0.00012	4e-05	2e-05	2e-05	2
5975	-7e-05	-2e-05	-6e-05	-0.00024	0.00012	4e-05	2e-05	2e-05	2
5976	-7e-05	-2e-05	-6e-05	-0.00024	0.00012	4e-05	2e-05	2e-05	2
5977	-7e-05	-2e-05	-6e-05	-0.00024	0.00012	4e-05	2e-05	2e-05	2
5978	-7e-05	-2e-05	-6e-05	-0.00024	0.00012	4e-05	2e-05	2e-05	2
5979	-7e-05	-2e-05	-6e-05	-0.00024	0.00012	4e-05	2e-05	2e-05	2
5980	-7e-05	-2e-05	-6e-05	-0.00024	0.00012	4e-05	2e-05	2e-05	2
5981	-7e-05	-2e-05	-6e-05	-0.00024	0.00012	4e-05	2e-05	2e-05	2
5982	-7e-05	-2e-05	-6e-05	-0.00024	0.00012	4e-05	2e-05	2e-05	2
5983	-7e-05	-2e-05	-6e-05	-0.00024	0.00012	4e-05	2e-05	2e-05	2
5984	-0.00011	1e-05	1e-05	7e-05	-0.00027	8e-05	0.00011	-0.00014	2
5985	-0.00012	-5e-05	2e-05	0.00013	6e-05	0.00024	-0.0001	-6e-05	2
5986	-0.00012	-5e-05	2e-05	0.00013	6e-05	0.00024	-0.0001	-6e-05	2
5988	-0.00012	-5e-05	2e-05	0.00013	6e-05	0.00024	-0.0001	-6e-05	2
5989	-0.00012	-5e-05	2e-05	0.00013	6e-05	0.00024	-0.0001	-6e-05	2
5990	-0.00012	-5e-05	2e-05	0.00013	6e-05	0.00024	-0.0001	-6e-05	2
5991	-0.00012	-5e-05	2e-05	0.00013	6e-05	0.00024	-0.0001	-6e-05	2
5992	-0.00012	-5e-05	2e-05	0.00013	6e-05	0.00024	-0.0001	-6e-05	2
5993	-0.00012	-5e-05	2e-05	0.00013	6e-05	0.00024	-0.0001	-6e-05	2
5994	-0.00012	-5e-05	2e-05	0.00013	6e-05	0.00024	-0.0001	-6e-05	2
5995	-0.00012	-5e-05	2e-05	0.00013	6e-05	0.00024	-0.0001	-6e-05	2
5996	-0.00012	-5e-05	2e-05	0.00013	6e-05	0.00024	-0.0001	-6e-05	2
5997	-0.00012	-5e-05	2e-05	0.00013	6e-05	0.00024	-0.0001	-6e-05	2
5998	-0.00012	-5e-05	2e-05	0.00013	6e-05	0.00024	-0.0001	-6e-05	2
5999	-0.00012	-5e-05	2e-05	0.00013	6e-05	0.00024	-0.0001	-6e-05	2
6000	-0.00012	-5e-05	2e-05	0.00013	6e-05	0.00024	-0.0001	-6e-05	2
6001	-0.00012	-5e-05	2e-05	0.00013	6e-05	0.00024	-0.0001	-6e-05	2
6002	-0.00012	-5e-05	2e-05	0.00013	6e-05	0.00024	-0.0001	-6e-05	2
6003	-0.00012	-5e-05	2e-05	0.00013	6e-05	0.00024	-0.0001	-6e-05	2
6004	-0.00012	-5e-05	2e-05	0.00013	6e-05	0.00024	-0.0001	-6e-05	2
6005	-0.00012	-5e-05	2e-05	0.00013	6e-05	0.00024	-0.0001	-6e-05	2
6006	8e-05	0	-6e-05	6e-05	-0.00013	-0.0001	3e-05	0.00024	2
6007	6e-05	-4e-05	-6e-05	0.00015	-0.00011	-0.00013	0.00042	0.00012	2
6008	6e-05	-4e-05	-6e-05	0.00015	-0.00011	-0.00013	0.00042	0.00012	2
6009	6e-05	-4e-05	-6e-05	0.00015	-0.00011	-0.00013	0.00042	0.00012	2
6010	6e-05	-4e-05	-6e-05	0.00015	-0.00011	-0.00013	0.00042	0.00012	2
6011	6e-05	-4e-05	-6e-05	0.00015	-0.00011	-0.00013	0.00042	0.00012	2
6012	6e-05	-4e-05	-6e-05	0.00015	-0.00011	-0.00013	0.00042	0.00012	2
6013	6e-05	-4e-05	-6e-05	0.00015	-0.00011	-0.00013	0.00042	0.00012	2
6014	6e-05	-4e-05	-6e-05	0.00015	-0.00011	-0.00013	0.00042	0.00012	2
6015	6e-05	-4e-05	-6e-05	0.00015	-0.00011	-0.00013	0.00042	0.00012	2
6016	6e-05	-4e-05	-6e-05	0.00015	-0.00011	-0.00013	0.00042	0.00012	2
6017	6e-05	-4e-05	-6e-05	0.00015	-0.00011	-0.00013	0.00042	0.00012	2
6018	6e-05	-4e-05	-6e-05	0.00015	-0.00011	-0.00013	0.00042	0.00012	2
6019	6e-05	-4e-05	-6e-05	0.00015	-0.00011	-0.00013	0.00042	0.00012	2
6020	6e-05	-4e-05	-6e-05	0.00015	-0.00011	-0.00013	0.00042	0.00012	2
6021	6e-05	-4e-05	-6e-05	0.00015	-0.00011	-0.00013	0.00042	0.00012	2
6022	6e-05	-4e-05	-6e-05	0.00015	-0.00011	-0.00013	0.00042	0.00012	2
6023	6e-05	-4e-05	-6e-05	0.00015	-0.00011	-0.00013	0.00042	0.00012	2
6024	6e-05	-4e-05	-6e-05	0.00015	-0.00011	-0.00013	0.00042	0.00012	2
6025	6e-05	-4e-05	-6e-05	0.00015	-0.00011	-0.00013	0.00042	0.00012	2
6026	6e-05	-4e-05	-6e-05	0.00015	-0.00011	-0.00013	0.00042	0.00012	2
6027	6e-05	-4e-05	-6e-05	0.00015	-0.00011	-0.00013	0.00042	0.00012	2
6028	6e-05	-4e-05	-6e-05	0.00015	-0.00011	-0.00013	0.00042	0.00012	2
6029	6e-05	-4e-05	-6e-05	0.00015	-0.00011	-0.00013	0.00042	0.00012	2
6030	-3e-05	-1e-05	1e-05	-0.00014	-0.00011	-6e-05	0.00012	9e-05	2
6031	2e-05	2e-05	3e-05	0.0002	-0.00025	-0.00021	-0.00033	-9e-05	2
6032	2e-05	2e-05	3e-05	0.0002	-0.00025	-0.00021	-0.00033	-9e-05	2
6033	2e-05	2e-05	3e-05	0.0002	-0.00025	-0.00021	-0.00033	-9e-05	2
6034	2e-05	2e-05	3e-05	0.0002	-0.00025	-0.00021	-0.00033	-9e-05	2
6035	2e-05	2e-05	3e-05	0.0002	-0.00025	-0.00021	-0.00033	-9e-05	2
6036	2e-05	2e-05	3e-05	0.0002	-0.00025	-0.00021	-0.00033	-9e-05	2
6038	2e-05	2e-05	3e-05	0.0002	-0.00025	-0.00021	-0.00033	-9e-05	2
6039	2e-05	2e-05	3e-05	0.0002	-0.00025	-0.00021	-0.00033	-9e-05	2
6040	2e-05	2e-05	3e-05	0.0002	-0.00025	-0.00021	-0.00033	-9e-05	2
6041	2e-05	2e-05	3e-05	0.0002	-0.00025	-0.00021	-0.00033	-9e-05	2
6042	2e-05	2e-05	3e-05	0.0002	-0.00025	-0.00021	-0.00033	-9e-05	2
6043	-0.00025	-0.0001	-0.00014	-0.0003	0.00028	0.0001	-6e-05	-3e-05	2
6044	-0.00025	-0.0001	-0.00014	-0.0003	0.00028	0.0001	-6e-05	-3e-05	2
6045	-0.00025	-0.0001	-0.00014	-0.0003	0.00028	0.0001	-6e-05	-3e-05	2
6046	-0.00025	-0.0001	-0.00014	-0.0003	0.00028	0.0001	-6e-05	-3e-05	2
6047	-0.00025	-0.0001	-0.00014	-0.0003	0.00028	0.0001	-6e-05	-3e-05	2
6048	-0.00025	-0.0001	-0.00014	-0.0003	0.00028	0.0001	-6e-05	-3e-05	2
6049	-0.00025	-0.0001	-0.00014	-0.0003	0.00028	0.0001	-6e-05	-3e-05	2
6050	-0.00025	-0.0001	-0.00014	-0.0003	0.00028	0.0001	-6e-05	-3e-05	2
6051	0	-6e-05	-0.00024	-0.0004	7e-05	-1e-05	5e-05	6e-05	2
6052	0	-6e-05	-0.00024	-0.0004	7e-05	-1e-05	5e-05	6e-05	2
6053	0	-6e-05	-0.00024	-0.0004	7e-05	-1e-05	5e-05	6e-05	2
6054	0	-6e-05	-0.00024	-0.0004	7e-05	-1e-05	5e-05	6e-05	2
6055	0	-6e-05	-0.00024	-0.0004	7e-05	-1e-05	5e-05	6e-05	2
6056	0	-6e-05	-0.00024	-0.0004	7e-05	-1e-05	5e-05	6e-05	2
6057	0	-6e-05	-0.00024	-0.0004	7e-05	-1e-05	5e-05	6e-05	2
6058	0	-6e-05	-0.00024	-0.0004	7e-05	-1e-05	5e-05	6e-05	2
6059	0	-6e-05	-0.00024	-0.0004	7e-05	-1e-05	5e-05	6e-05	2
6060	0	-6e-05	-0.00024	-0.0004	7e-05	-1e-05	5e-05	6e-05	2
6061	0	-6e-05	-0.00024	-0.0004	7e-05	-1e-05	5e-05	6e-05	2
6062	0	-6e-05	-0.00024	-0.0004	7e-05	-1e-05	5e-05	6e-05	2
6063	0	-6e-05	-0.00024	-0.0004	7e-05	-1e-05	5e-05	6e-05	2
6064	0	-6e-05	-0.00024	-0.0004	7e-05	-1e-05	5e-05	6e-05	2
6065	0	-6e-05	-0.00024	-0.0004	7e-05	-1e-05	5e-05	6e-05	2
6066	0	-6e-05	-0.00024	-0.0004	7e-05	-1e-05	5e-05	6e-05	2
6067	0	-6e-05	-0.00024	-0.0004	7e-05	-1e-05	5e-05	6e-05	2
6068	0	-6e-05	-0.00024	-0.0004	7e-05	-1e-05	5e-05	6e-05	2
6069	0	-6e-05	-0.00024	-0.0004	7e-05	-1e-05	5e-05	6e-05	2
6070	0	-6e-05	-0.00024	-0.0004	7e-05	-1e-05	5e-05	6e-05	2
6071	0	-6e-05	-0.00024	-0.0004	7e-05	-1e-05	5e-05	6e-05	2
6072	0	-6e-05	-0.00024	-0.0004	7e-05	-1e-05	5e-05	6e-05	2
6073	0	-6e-05	-0.00024	-0.0004	7e-05	-1e-05	5e-05	6e-05	2
6074	4e-05	3e-05	6e-05	9e-05	0.00034	1e-05	-8e-05	0.00011	2
6075	5e-05	5e-05	2e-05	6e-05	0.00013	-0.00017	0	-5e-05	2
6076	5e-05	5e-05	2e-05	6e-05	0.00013	-0.00017	0	-5e-05	2
6077	5e-05	5e-05	2e-05	6e-05	0.00013	-0.00017	0	-5e-05	2
6078	5e-05	5e-05	2e-05	6e-05	0.00013	-0.00017	0	-5e-05	2
6079	5e-05	5e-05	2e-05	6e-05	0.00013	-0.00017	0	-5e-05	2
6080	5e-05	5e-05	2e-05	6e-05	0.00013	-0.00017	0	-5e-05	2
6081	5e-05	5e-05	2e-05	6e-05	0.00013	-0.00017	0	-5e-05	2
6082	5e-05	5e-05	2e-05	6e-05	0.00013	-0.00017	0	-5e-05	2
6083	5e-05	5e-05	2e-05	6e-05	0.00013	-0.00017	0	-5e-05	2
6084	5e-05	5e-05	2e-05	6e-05	0.00013	-0.00017	0	-5e-05	2
6085	5e-05	5e-05	2e-05	6e-05	0.00013	-0.00017	0	-5e-05	2
6086	5e-05	5e-05	2e-05	6e-05	0.00013	-0.00017	0	-5e-05	2
6088	5e-05	5e-05	2e-05	6e-05	0.00013	-0.00017	0	-5e-05	2
6089	-0.00023	5e-05	0.00013	0.0002	4e-05	0.00016	0.00045	0.00012	2
6090	-0.00013	-1e-05	4e-05	8e-05	-9e-05	3e-05	1e-05	-0.00025	2
6091	-0.00013	-1e-05	4e-05	8e-05	-9e-05	3e-05	1e-05	-0.00025	2
6092	-0.00013	-1e-05	4e-05	8e-05	-9e-05	3e-05	1e-05	-0.00025	2
6093	-0.00013	-1e-05	4e-05	8e-05	-9e-05	3e-05	1e-05	-0.00025	2
6094	-0.00013	-1e-05	4e-05	8e-05	-9e-05	3e-05	1e-05	-0.00025	2
6095	-0.00013	-1e-05	4e-05	8e-05	-9e-05	3e-05	1e-05	-0.00025	2
6096	-0.00013	-1e-05	4e-05	8e-05	-9e-05	3e-05	1e-05	-0.00025	2
6097	-0.00013	-1e-05	4e-05	8e-05	-9e-05	3e-05	1e-05	-0.00025	2
6098	-0.00013	-1e-05	4e-05	8e-05	-9e-05	3e-05	1e-05	-0.00025	2
6099	-0.00013	-1e-05	4e-05	8e-05	-9e-05	3e-05	1e-05	-0.00025	2
6100	-0.00013	-1e-05	4e-05	8e-05	-9e-05	3e-05	1e-05	-0.00025	2
6101	-0.00013	-1e-05	4e-05	8e-05	-9e-05	3e-05	1e-05	-0.00025	2
6102	-0.00013	-1e-05	4e-05	8e-05	-9e-05	3e-05	1e-05	-0.00025	2
6103	-0.00015	-2e-05	-6e-05	-9e-05	-9e-05	6e-05	-0.00014	9e-05	2
6104	-0.00015	-2e-05	-6e-05	-9e-05	-9e-05	6e-05	-0.00014	9e-05	2
6105	-0.00015	-2e-05	-6e-05	-9e-05	-9e-05	6e-05	-0.00014	9e-05	2
6106	-0.00015	-2e-05	-6e-05	-9e-05	-9e-05	6e-05	-0.00014	9e-05	2
6107	-0.00015	-2e-05	-6e-05	-9e-05	-9e-05	6e-05	-0.00014	9e-05	2
6108	-0.00015	-2e-05	-6e-05	-9e-05	-9e-05	6e-05	-0.00014	9e-05	2
6109	-0.00015	-2e-05	-6e-05	-9e-05	-9e-05	6e-05	-0.00014	9e-05	2
6110	-0.00015	-2e-05	-6e-05	-9e-05	-9e-05	6e-05	-0.00014	9e-05	2
6111	8e-05	2e-05	3e-05	7e-05	4e-05	9e-05	0.00012	8e-05	2
6112	8e-05	2e-05	3e-05	7e-05	4e-05	9e-05	0.00012	8e-05	2
6113	8e-05	2e-05	3e-05	7e-05	4e-05	9e-05	0.00012	8e-05	2
6114	8e-05	2e-05	3e-05	7e-05	4e-05	9e-05	0.00012	8e-05	2
6115	8e-05	2e-05	3e-05	7e-05	4e-05	9e-05	0.00012	8e-05	2
6116	8e-05	2e-05	3e-05	7e-05	4e-05	9e-05	0.00012	8e-05	2
6117	8e-05	2e-05	3e-05	7e-05	4e-05	9e-05	0.00012	8e-05	2
6118	8e-05	2e-05	3e-05	7e-05	4e-05	9e-05	0.00012	8e-05	2
6119	8e-05	2e-05	3e-05	7e-05	4e-05	9e-05	0.00012	8e-05	2
6120	8e-05	2e-05	3e-05	7e-05	4e-05	9e-05	0.00012	8e-05	2
6121	8e-05	2e-05	3e-05	7e-05	4e-05	9e-05	0.00012	8e-05	2
6122	8e-05	2e-05	3e-05	7e-05	4e-05	9e-05	0.00012	8e-05	2
6123	8e-05	2e-05	3e-05	7e-05	4e-05	9e-05	0.00012	8e-05	2
6124	8e-05	2e-05	3e-05	7e-05	4e-05	9e-05	0.00012	8e-05	2
6125	8e-05	2e-05	3e-05	7e-05	4e-05	9e-05	0.00012	8e-05	2
6126	-5e-05	-1e-05	-6e-05	-0.00011	-0.00021	-0.00015	-0.00014	-3e-05	2
6127	-3e-05	-5e-05	0	3e-05	-0.00038	0.00017	-4e-05	-7e-05	2
6128	9e-05	0	0.0001	0.00099	0.00034	-7e-05	-0.00018	2e-05	2
6129	9e-05	0	0.0001	0.00099	0.00034	-7e-05	-0.00018	2e-05	2
6130	9e-05	0	0.0001	0.00099	0.00034	-7e-05	-0.00018	2e-05	2
6131	9e-05	0	0.0001	0.00099	0.00034	-7e-05	-0.00018	2e-05	2
6132	9e-05	0	0.0001	0.00099	0.00034	-7e-05	-0.00018	2e-05	2
6133	9e-05	0	0.0001	0.00099	0.00034	-7e-05	-0.00018	2e-05	2
6134	9e-05	0	0.0001	0.00099	0.00034	-7e-05	-0.00018	2e-05	2
6135	9e-05	0	0.0001	0.00099	0.00034	-7e-05	-0.00018	2e-05	2
6136	9e-05	0	0.0001	0.00099	0.00034	-7e-05	-0.00018	2e-05	2
6138	9e-05	0	0.0001	0.00099	0.00034	-7e-05	-0.00018	2e-05	2
6139	9e-05	0	0.0001	0.00099	0.00034	-7e-05	-0.00018	2e-05	2
6140	9e-05	0	0.0001	0.00099	0.00034	-7e-05	-0.00018	2e-05	2
6141	9e-05	0	0.0001	0.00099	0.00034	-7e-05	-0.00018	2e-05	2
6142	9e-05	0	0.0001	0.00099	0.00034	-7e-05	-0.00018	2e-05	2
6143	9e-05	0	0.0001	0.00099	0.00034	-7e-05	-0.00018	2e-05	2
6144	9e-05	0	0.0001	0.00099	0.00034	-7e-05	-0.00018	2e-05	2
6145	9e-05	0	0.0001	0.00099	0.00034	-7e-05	-0.00018	2e-05	2
6146	9e-05	0	0.0001	0.00099	0.00034	-7e-05	-0.00018	2e-05	2
6147	9e-05	0	0.0001	0.00099	0.00034	-7e-05	-0.00018	2e-05	2
6148	9e-05	0	0.0001	0.00099	0.00034	-7e-05	-0.00018	2e-05	2
6149	5e-05	2e-05	5e-05	0.00019	0	-7e-05	-0.00011	1e-05	2
6150	-3e-05	-3e-05	-1e-05	5e-05	-0.00022	-0.0001	-3e-05	-3e-05	2
6151	6e-05	4e-05	9e-05	0.00026	0.00016	0.0003	-5e-05	0.00013	2
6152	6e-05	4e-05	9e-05	0.00026	0.00016	0.0003	-5e-05	0.00013	2
6153	6e-05	4e-05	9e-05	0.00026	0.00016	0.0003	-5e-05	0.00013	2
6154	6e-05	4e-05	9e-05	0.00026	0.00016	0.0003	-5e-05	0.00013	2
6155	6e-05	4e-05	9e-05	0.00026	0.00016	0.0003	-5e-05	0.00013	2
6156	6e-05	4e-05	9e-05	0.00026	0.00016	0.0003	-5e-05	0.00013	2
6157	6e-05	4e-05	9e-05	0.00026	0.00016	0.0003	-5e-05	0.00013	2
6158	6e-05	4e-05	9e-05	0.00026	0.00016	0.0003	-5e-05	0.00013	2
6159	6e-05	4e-05	9e-05	0.00026	0.00016	0.0003	-5e-05	0.00013	2
6160	6e-05	4e-05	9e-05	0.00026	0.00016	0.0003	-5e-05	0.00013	2
6161	6e-05	4e-05	9e-05	0.00026	0.00016	0.0003	-5e-05	0.00013	2
6162	0.00026	5e-05	0.00024	0.0006	-0.00033	-0.00029	0.00014	-4e-05	2
6163	-6e-05	-0.00011	-0.00029	-0.00036	0.00025	-9e-05	-2e-05	0	2
6164	-6e-05	-0.00011	-0.00029	-0.00036	0.00025	-9e-05	-2e-05	0	2
6165	-6e-05	-0.00011	-0.00029	-0.00036	0.00025	-9e-05	-2e-05	0	2
6166	-6e-05	-0.00011	-0.00029	-0.00036	0.00025	-9e-05	-2e-05	0	2
6167	-6e-05	-0.00011	-0.00029	-0.00036	0.00025	-9e-05	-2e-05	0	2
6168	-6e-05	-0.00011	-0.00029	-0.00036	0.00025	-9e-05	-2e-05	0	2
6169	-6e-05	-0.00011	-0.00029	-0.00036	0.00025	-9e-05	-2e-05	0	2
6170	-6e-05	-0.00011	-0.00029	-0.00036	0.00025	-9e-05	-2e-05	0	2
6171	-6e-05	-0.00011	-0.00029	-0.00036	0.00025	-9e-05	-2e-05	0	2
6172	-6e-05	-0.00011	-0.00029	-0.00036	0.00025	-9e-05	-2e-05	0	2
6173	-6e-05	-0.00011	-0.00029	-0.00036	0.00025	-9e-05	-2e-05	0	2
6174	-6e-05	-0.00011	-0.00029	-0.00036	0.00025	-9e-05	-2e-05	0	2
6175	-6e-05	-0.00011	-0.00029	-0.00036	0.00025	-9e-05	-2e-05	0	2
6176	-6e-05	-0.00011	-0.00029	-0.00036	0.00025	-9e-05	-2e-05	0	2
6177	-6e-05	-0.00011	-0.00029	-0.00036	0.00025	-9e-05	-2e-05	0	2
6178	-6e-05	-0.00011	-0.00029	-0.00036	0.00025	-9e-05	-2e-05	0	2
6179	-6e-05	-0.00011	-0.00029	-0.00036	0.00025	-9e-05	-2e-05	0	2
6180	-6e-05	-0.00011	-0.00029	-0.00036	0.00025	-9e-05	-2e-05	0	2
6181	-6e-05	-0.00011	-0.00029	-0.00036	0.00025	-9e-05	-2e-05	0	2
6182	-6e-05	-0.00011	-0.00029	-0.00036	0.00025	-9e-05	-2e-05	0	2
6183	-6e-05	-0.00011	-0.00029	-0.00036	0.00025	-9e-05	-2e-05	0	2
6184	-6e-05	-0.00011	-0.00029	-0.00036	0.00025	-9e-05	-2e-05	0	2
6185	-6e-05	-0.00011	-0.00029	-0.00036	0.00025	-9e-05	-2e-05	0	2
6186	-6e-05	-0.00011	-0.00029	-0.00036	0.00025	-9e-05	-2e-05	0	2
6188	-6e-05	-0.00011	-0.00029	-0.00036	0.00025	-9e-05	-2e-05	0	2
6189	-6e-05	-0.00011	-0.00029	-0.00036	0.00025	-9e-05	-2e-05	0	2
6190	-6e-05	-0.00011	-0.00029	-0.00036	0.00025	-9e-05	-2e-05	0	2
6191	-6e-05	-0.00011	-0.00029	-0.00036	0.00025	-9e-05	-2e-05	0	2
6192	-6e-05	-0.00011	-0.00029	-0.00036	0.00025	-9e-05	-2e-05	0	2
6193	-6e-05	-0.00011	-0.00029	-0.00036	0.00025	-9e-05	-2e-05	0	2
6194	-6e-05	-0.00011	-0.00029	-0.00036	0.00025	-9e-05	-2e-05	0	2
6195	-6e-05	-0.00011	-0.00029	-0.00036	0.00025	-9e-05	-2e-05	0	2
6196	2e-05	3e-05	4e-05	-0.00021	5e-05	-8e-05	9e-05	3e-05	2
6197	0.00023	5e-05	0.0001	-0.00015	-1e-05	-0.00035	-0.0001	3e-05	2
6198	0.00023	5e-05	0.0001	-0.00015	-1e-05	-0.00035	-0.0001	3e-05	2
6199	0.00023	5e-05	0.0001	-0.00015	-1e-05	-0.00035	-0.0001	3e-05	2
6200	-6e-05	0	0	-0.00021	-0.00021	-2e-05	0.00014	4e-05	2
6201	-6e-05	0	0	-0.00021	-0.00021	-2e-05	0.00014	4e-05	2
6202	-6e-05	0	0	-0.00021	-0.00021	-2e-05	0.00014	4e-05	2
6203	-6e-05	0	0	-0.00021	-0.00021	-2e-05	0.00014	4e-05	2
6204	-6e-05	0	0	-0.00021	-0.00021	-2e-05	0.00014	4e-05	2
6205	-6e-05	0	0	-0.00021	-0.00021	-2e-05	0.00014	4e-05	2
6206	-6e-05	0	0	-0.00021	-0.00021	-2e-05	0.00014	4e-05	2
6207	-6e-05	0	0	-0.00021	-0.00021	-2e-05	0.00014	4e-05	2
6208	-6e-05	0	0	-0.00021	-0.00021	-2e-05	0.00014	4e-05	2
6209	0.0002	-2e-05	1e-05	0.00029	-0.00025	0.00019	0.00031	3e-05	2
6210	-0.00017	-1e-05	-8e-05	-0.00067	0.00024	-0.00016	0.00012	-1e-05	2
6211	-0.00017	-5e-05	-0.00012	-0.00044	-0.00023	6e-05	-0.00027	-0.00015	2
6212	-0.00017	-5e-05	-0.00012	-0.00044	-0.00023	6e-05	-0.00027	-0.00015	2
6213	-0.00017	-5e-05	-0.00012	-0.00044	-0.00023	6e-05	-0.00027	-0.00015	2
6214	-0.00017	-5e-05	-0.00012	-0.00044	-0.00023	6e-05	-0.00027	-0.00015	2
6215	-0.00017	-5e-05	-0.00012	-0.00044	-0.00023	6e-05	-0.00027	-0.00015	2
6216	-0.00017	-5e-05	-0.00012	-0.00044	-0.00023	6e-05	-0.00027	-0.00015	2
6217	-0.00017	-5e-05	-0.00012	-0.00044	-0.00023	6e-05	-0.00027	-0.00015	2
6218	-0.00017	-5e-05	-0.00012	-0.00044	-0.00023	6e-05	-0.00027	-0.00015	2
6219	-0.00017	-5e-05	-0.00012	-0.00044	-0.00023	6e-05	-0.00027	-0.00015	2
6220	-0.00017	-5e-05	-0.00012	-0.00044	-0.00023	6e-05	-0.00027	-0.00015	2
6221	-0.00017	-5e-05	-0.00012	-0.00044	-0.00023	6e-05	-0.00027	-0.00015	2
6222	-0.00017	-5e-05	-0.00012	-0.00044	-0.00023	6e-05	-0.00027	-0.00015	2
6223	-0.00013	0	-5e-05	-0.00014	-5e-05	-0.00021	-0.0004	-0.00017	2
6224	-0.00013	0	-5e-05	-0.00014	-5e-05	-0.00021	-0.0004	-0.00017	2
6225	-0.00013	0	-5e-05	-0.00014	-5e-05	-0.00021	-0.0004	-0.00017	2
6226	-0.00013	0	-5e-05	-0.00014	-5e-05	-0.00021	-0.0004	-0.00017	2
6227	-0.00013	0	-5e-05	-0.00014	-5e-05	-0.00021	-0.0004	-0.00017	2
6228	-0.00013	0	-5e-05	-0.00014	-5e-05	-0.00021	-0.0004	-0.00017	2
6229	-0.00013	0	-5e-05	-0.00014	-5e-05	-0.00021	-0.0004	-0.00017	2
6230	-0.00013	0	-5e-05	-0.00014	-5e-05	-0.00021	-0.0004	-0.00017	2
6231	8e-05	3e-05	0.00011	0.00051	9e-05	-7e-05	-2e-05	3e-05	2
6232	-7e-05	-5e-05	-0.00011	-0.00032	-0.00026	0.00019	0.0001	-6e-05	2
6233	-7e-05	-5e-05	-0.00011	-0.00032	-0.00026	0.00019	0.0001	-6e-05	2
6234	-7e-05	-5e-05	-0.00011	-0.00032	-0.00026	0.00019	0.0001	-6e-05	2
6235	-7e-05	-5e-05	-0.00011	-0.00032	-0.00026	0.00019	0.0001	-6e-05	2
6236	-7e-05	-5e-05	-0.00011	-0.00032	-0.00026	0.00019	0.0001	-6e-05	2
6238	-7e-05	-5e-05	-0.00011	-0.00032	-0.00026	0.00019	0.0001	-6e-05	2
6239	-7e-05	-5e-05	-0.00011	-0.00032	-0.00026	0.00019	0.0001	-6e-05	2
6240	-7e-05	-5e-05	-0.00011	-0.00032	-0.00026	0.00019	0.0001	-6e-05	2
6241	-7e-05	-5e-05	-0.00011	-0.00032	-0.00026	0.00019	0.0001	-6e-05	2
6242	-7e-05	-5e-05	-0.00011	-0.00032	-0.00026	0.00019	0.0001	-6e-05	2
6243	-7e-05	-5e-05	-0.00011	-0.00032	-0.00026	0.00019	0.0001	-6e-05	2
6244	-7e-05	-5e-05	-0.00011	-0.00032	-0.00026	0.00019	0.0001	-6e-05	2
6245	-7e-05	-5e-05	-0.00011	-0.00032	-0.00026	0.00019	0.0001	-6e-05	2
6246	3e-05	3e-05	4e-05	0.0002	0.00011	-5e-05	1e-05	0.0002	2
6247	-0.0004	-7e-05	0	-0.00045	-0.00014	7e-05	-8e-05	-0.00012	2
6248	-0.00017	-4e-05	2e-05	0.00022	-7e-05	-0.00034	-0.00017	-4e-05	2
6249	-0.00017	-4e-05	2e-05	0.00022	-7e-05	-0.00034	-0.00017	-4e-05	2
6250	-0.00017	-4e-05	2e-05	0.00022	-7e-05	-0.00034	-0.00017	-4e-05	2
6251	-0.00017	-4e-05	2e-05	0.00022	-7e-05	-0.00034	-0.00017	-4e-05	2
6252	-0.00017	-4e-05	2e-05	0.00022	-7e-05	-0.00034	-0.00017	-4e-05	2
6253	-0.00017	-4e-05	2e-05	0.00022	-7e-05	-0.00034	-0.00017	-4e-05	2
6254	-0.00017	-4e-05	2e-05	0.00022	-7e-05	-0.00034	-0.00017	-4e-05	2
6255	-0.00017	-4e-05	2e-05	0.00022	-7e-05	-0.00034	-0.00017	-4e-05	2
6256	-0.00017	-4e-05	2e-05	0.00022	-7e-05	-0.00034	-0.00017	-4e-05	2
6257	-0.00017	-4e-05	2e-05	0.00022	-7e-05	-0.00034	-0.00017	-4e-05	2
6258	-0.00017	-4e-05	2e-05	0.00022	-7e-05	-0.00034	-0.00017	-4e-05	2
6259	-0.00017	-4e-05	2e-05	0.00022	-7e-05	-0.00034	-0.00017	-4e-05	2
6260	-0.00017	-4e-05	2e-05	0.00022	-7e-05	-0.00034	-0.00017	-4e-05	2
6261	-0.00017	-4e-05	2e-05	0.00022	-7e-05	-0.00034	-0.00017	-4e-05	2
6262	-0.00017	-4e-05	2e-05	0.00022	-7e-05	-0.00034	-0.00017	-4e-05	2
6263	-0.00017	-4e-05	2e-05	0.00022	-7e-05	-0.00034	-0.00017	-4e-05	2
6264	-0.00017	-4e-05	2e-05	0.00022	-7e-05	-0.00034	-0.00017	-4e-05	2
6265	-0.00017	-4e-05	2e-05	0.00022	-7e-05	-0.00034	-0.00017	-4e-05	2
6266	-0.00017	-4e-05	2e-05	0.00022	-7e-05	-0.00034	-0.00017	-4e-05	2
6267	-0.00017	-4e-05	2e-05	0.00022	-7e-05	-0.00034	-0.00017	-4e-05	2
6268	-0.00017	-4e-05	2e-05	0.00022	-7e-05	-0.00034	-0.00017	-4e-05	2
6269	-1e-05	4e-05	7e-05	0.00028	0.0002	-0.00012	-0.00029	-5e-05	2
6270	-8e-05	-1e-05	0	-4e-05	1e-05	-7e-05	-9e-05	6e-05	2
6271	-8e-05	-1e-05	0	-4e-05	1e-05	-7e-05	-9e-05	6e-05	2
6272	-8e-05	-1e-05	0	-4e-05	1e-05	-7e-05	-9e-05	6e-05	2
6273	-8e-05	-1e-05	0	-4e-05	1e-05	-7e-05	-9e-05	6e-05	2
6274	-8e-05	-1e-05	0	-4e-05	1e-05	-7e-05	-9e-05	6e-05	2
6275	-8e-05	-1e-05	0	-4e-05	1e-05	-7e-05	-9e-05	6e-05	2
6276	-8e-05	-1e-05	0	-4e-05	1e-05	-7e-05	-9e-05	6e-05	2
6277	-8e-05	-1e-05	0	-4e-05	1e-05	-7e-05	-9e-05	6e-05	2
6278	-8e-05	-1e-05	0	-4e-05	1e-05	-7e-05	-9e-05	6e-05	2
6279	-8e-05	-1e-05	0	-4e-05	1e-05	-7e-05	-9e-05	6e-05	2
6280	-8e-05	-1e-05	0	-4e-05	1e-05	-7e-05	-9e-05	6e-05	2
6281	-8e-05	-1e-05	0	-4e-05	1e-05	-7e-05	-9e-05	6e-05	2
6282	-0.00016	-3e-05	-4e-05	3e-05	0.00015	7e-05	0.00015	-0.0001	2
6283	0.00042	3e-05	0	5e-05	0.00011	-0.00015	0.00017	9e-05	2
6284	0.00042	3e-05	0	5e-05	0.00011	-0.00015	0.00017	9e-05	2
6285	0.00042	3e-05	0	5e-05	0.00011	-0.00015	0.00017	9e-05	2
6286	0.00042	3e-05	0	5e-05	0.00011	-0.00015	0.00017	9e-05	2
6288	0.00042	3e-05	0	5e-05	0.00011	-0.00015	0.00017	9e-05	2
6289	0.00042	3e-05	0	5e-05	0.00011	-0.00015	0.00017	9e-05	2
6290	0.00042	3e-05	0	5e-05	0.00011	-0.00015	0.00017	9e-05	2
6291	0.00042	3e-05	0	5e-05	0.00011	-0.00015	0.00017	9e-05	2
6292	-0.00016	-4e-05	-0.00019	5e-05	-2e-05	-0.00017	3e-05	4e-05	2
6293	-0.00016	-4e-05	-0.00019	5e-05	-2e-05	-0.00017	3e-05	4e-05	2
6294	-0.00016	-4e-05	-0.00019	5e-05	-2e-05	-0.00017	3e-05	4e-05	2
6295	-0.00016	-4e-05	-0.00019	5e-05	-2e-05	-0.00017	3e-05	4e-05	2
6296	-0.00016	-4e-05	-0.00019	5e-05	-2e-05	-0.00017	3e-05	4e-05	2
6297	-0.00016	-4e-05	-0.00019	5e-05	-2e-05	-0.00017	3e-05	4e-05	2
6298	-0.00016	-4e-05	-0.00019	5e-05	-2e-05	-0.00017	3e-05	4e-05	2
6299	-0.00016	-4e-05	-0.00019	5e-05	-2e-05	-0.00017	3e-05	4e-05	2
6300	-0.00016	-4e-05	-0.00019	5e-05	-2e-05	-0.00017	3e-05	4e-05	2
6301	-0.00016	-4e-05	-0.00019	5e-05	-2e-05	-0.00017	3e-05	4e-05	2
6302	-0.00016	-4e-05	-0.00019	5e-05	-2e-05	-0.00017	3e-05	4e-05	2
6303	-0.00016	-4e-05	-0.00019	5e-05	-2e-05	-0.00017	3e-05	4e-05	2
6304	-0.00016	-4e-05	-0.00019	5e-05	-2e-05	-0.00017	3e-05	4e-05	2
6305	-0.00016	-4e-05	-0.00019	5e-05	-2e-05	-0.00017	3e-05	4e-05	2
6306	-0.00022	-4e-05	-0.00011	-4e-05	5e-05	0.00021	0	-0.00014	2
6307	-0.00022	-4e-05	-0.00011	-4e-05	5e-05	0.00021	0	-0.00014	2
6308	0.00011	-3e-05	8e-05	0.00028	-0.00033	-0.00011	2e-05	0.00012	2
6309	0.00011	-3e-05	8e-05	0.00028	-0.00033	-0.00011	2e-05	0.00012	2
6310	0.00011	-3e-05	8e-05	0.00028	-0.00033	-0.00011	2e-05	0.00012	2
6311	0.00011	-3e-05	8e-05	0.00028	-0.00033	-0.00011	2e-05	0.00012	2
6312	0.00011	-3e-05	8e-05	0.00028	-0.00033	-0.00011	2e-05	0.00012	2
6313	0.00011	-3e-05	8e-05	0.00028	-0.00033	-0.00011	2e-05	0.00012	2
6314	0.00011	-3e-05	8e-05	0.00028	-0.00033	-0.00011	2e-05	0.00012	2
6315	0.00011	-3e-05	8e-05	0.00028	-0.00033	-0.00011	2e-05	0.00012	2
6316	0.00011	-3e-05	8e-05	0.00028	-0.00033	-0.00011	2e-05	0.00012	2
6317	0.00011	-3e-05	8e-05	0.00028	-0.00033	-0.00011	2e-05	0.00012	2
6318	0.00011	-3e-05	8e-05	0.00028	-0.00033	-0.00011	2e-05	0.00012	2
6319	0.00011	-3e-05	8e-05	0.00028	-0.00033	-0.00011	2e-05	0.00012	2
6320	0.00011	-3e-05	8e-05	0.00028	-0.00033	-0.00011	2e-05	0.00012	2
6321	0.00011	-3e-05	8e-05	0.00028	-0.00033	-0.00011	2e-05	0.00012	2
6322	0.00011	-3e-05	8e-05	0.00028	-0.00033	-0.00011	2e-05	0.00012	2
6323	0.00011	-3e-05	8e-05	0.00028	-0.00033	-0.00011	2e-05	0.00012	2
6324	0.00011	-3e-05	8e-05	0.00028	-0.00033	-0.00011	2e-05	0.00012	2
6325	0.00011	-3e-05	8e-05	0.00028	-0.00033	-0.00011	2e-05	0.00012	2
6326	0.00011	-3e-05	8e-05	0.00028	-0.00033	-0.00011	2e-05	0.00012	2
6327	0.00011	-3e-05	8e-05	0.00028	-0.00033	-0.00011	2e-05	0.00012	2
6328	0.00011	-3e-05	8e-05	0.00028	-0.00033	-0.00011	2e-05	0.00012	2
6329	3e-05	-1e-05	-6e-05	-0.00032	-0.00011	0.00015	-0.00025	-2e-05	2
6330	5e-05	3e-05	3e-05	0.00017	4e-05	-6e-05	-8e-05	-4e-05	2
6331	0.00019	3e-05	-2e-05	-0.00036	5e-05	2e-05	-5e-05	0.00015	2
6332	0.00019	3e-05	-2e-05	-0.00036	5e-05	2e-05	-5e-05	0.00015	2
6333	0.00019	3e-05	-2e-05	-0.00036	5e-05	2e-05	-5e-05	0.00015	2
6334	0.00019	3e-05	-2e-05	-0.00036	5e-05	2e-05	-5e-05	0.00015	2
6335	0.00019	3e-05	-2e-05	-0.00036	5e-05	2e-05	-5e-05	0.00015	2
6336	0.00019	3e-05	-2e-05	-0.00036	5e-05	2e-05	-5e-05	0.00015	2
6338	0.00019	3e-05	-2e-05	-0.00036	5e-05	2e-05	-5e-05	0.00015	2
6339	0.00019	3e-05	-2e-05	-0.00036	5e-05	2e-05	-5e-05	0.00015	2
6340	0.00019	3e-05	-2e-05	-0.00036	5e-05	2e-05	-5e-05	0.00015	2
6341	0.00019	3e-05	-2e-05	-0.00036	5e-05	2e-05	-5e-05	0.00015	2
6342	0.00019	3e-05	-2e-05	-0.00036	5e-05	2e-05	-5e-05	0.00015	2
6343	4e-05	2e-05	2e-05	0.0001	-0.00023	-6e-05	7e-05	7e-05	2
6344	4e-05	2e-05	2e-05	0.0001	-0.00023	-6e-05	7e-05	7e-05	2
6345	4e-05	2e-05	2e-05	0.0001	-0.00023	-6e-05	7e-05	7e-05	2
6346	4e-05	2e-05	2e-05	0.0001	-0.00023	-6e-05	7e-05	7e-05	2
6347	4e-05	2e-05	2e-05	0.0001	-0.00023	-6e-05	7e-05	7e-05	2
6348	4e-05	2e-05	2e-05	0.0001	-0.00023	-6e-05	7e-05	7e-05	2
6349	4e-05	2e-05	2e-05	0.0001	-0.00023	-6e-05	7e-05	7e-05	2
6350	4e-05	2e-05	2e-05	0.0001	-0.00023	-6e-05	7e-05	7e-05	2
6351	4e-05	2e-05	2e-05	0.0001	-0.00023	-6e-05	7e-05	7e-05	2
6352	-1e-05	7e-05	0.00023	0.00048	0.00012	0	0.00033	1e-05	2
6353	-1e-05	7e-05	0.00023	0.00048	0.00012	0	0.00033	1e-05	2
6354	-1e-05	7e-05	0.00023	0.00048	0.00012	0	0.00033	1e-05	2
6355	-1e-05	7e-05	0.00023	0.00048	0.00012	0	0.00033	1e-05	2
6356	-1e-05	7e-05	0.00023	0.00048	0.00012	0	0.00033	1e-05	2
6357	-1e-05	7e-05	0.00023	0.00048	0.00012	0	0.00033	1e-05	2
6358	-1e-05	7e-05	0.00023	0.00048	0.00012	0	0.00033	1e-05	2
6359	-1e-05	7e-05	0.00023	0.00048	0.00012	0	0.00033	1e-05	2
6360	-1e-05	7e-05	0.00023	0.00048	0.00012	0	0.00033	1e-05	2
6361	-1e-05	7e-05	0.00023	0.00048	0.00012	0	0.00033	1e-05	2
6362	-1e-05	7e-05	0.00023	0.00048	0.00012	0	0.00033	1e-05	2
6363	-1e-05	7e-05	0.00023	0.00048	0.00012	0	0.00033	1e-05	2
6364	-1e-05	7e-05	0.00023	0.00048	0.00012	0	0.00033	1e-05	2
6365	-1e-05	7e-05	0.00023	0.00048	0.00012	0	0.00033	1e-05	2
6366	-0.00046	-3e-05	5e-05	-0.0001	9e-05	6e-05	0.00012	-0.00015	2
6367	-0.00046	-3e-05	5e-05	-0.0001	9e-05	6e-05	0.00012	-0.00015	2
6368	-6e-05	-5e-05	-9e-05	-0.00028	7e-05	-5e-05	-0.00012	-0.00025	2
6369	-6e-05	-5e-05	-9e-05	-0.00028	7e-05	-5e-05	-0.00012	-0.00025	2
6370	-6e-05	-5e-05	-9e-05	-0.00028	7e-05	-5e-05	-0.00012	-0.00025	2
6371	-6e-05	-5e-05	-9e-05	-0.00028	7e-05	-5e-05	-0.00012	-0.00025	2
6372	-6e-05	-5e-05	-9e-05	-0.00028	7e-05	-5e-05	-0.00012	-0.00025	2
6373	-6e-05	-5e-05	-9e-05	-0.00028	7e-05	-5e-05	-0.00012	-0.00025	2
6374	-6e-05	-5e-05	-9e-05	-0.00028	7e-05	-5e-05	-0.00012	-0.00025	2
6375	-6e-05	-5e-05	-9e-05	-0.00028	7e-05	-5e-05	-0.00012	-0.00025	2
6376	-6e-05	-5e-05	-9e-05	-0.00028	7e-05	-5e-05	-0.00012	-0.00025	2
6377	-6e-05	-5e-05	-9e-05	-0.00028	7e-05	-5e-05	-0.00012	-0.00025	2
6378	-6e-05	-5e-05	-9e-05	-0.00028	7e-05	-5e-05	-0.00012	-0.00025	2
6379	-6e-05	-5e-05	-9e-05	-0.00028	7e-05	-5e-05	-0.00012	-0.00025	2
6380	-6e-05	-5e-05	-9e-05	-0.00028	7e-05	-5e-05	-0.00012	-0.00025	2
6381	-6e-05	-5e-05	-9e-05	-0.00028	7e-05	-5e-05	-0.00012	-0.00025	2
6382	-6e-05	-5e-05	-9e-05	-0.00028	7e-05	-5e-05	-0.00012	-0.00025	2
6383	-6e-05	-5e-05	-9e-05	-0.00028	7e-05	-5e-05	-0.00012	-0.00025	2
6384	-6e-05	-5e-05	-9e-05	-0.00028	7e-05	-5e-05	-0.00012	-0.00025	2
6385	-6e-05	-5e-05	-9e-05	-0.00028	7e-05	-5e-05	-0.00012	-0.00025	2
6386	-6e-05	-5e-05	-9e-05	-0.00028	7e-05	-5e-05	-0.00012	-0.00025	2
6388	-6e-05	-5e-05	-9e-05	-0.00028	7e-05	-5e-05	-0.00012	-0.00025	2
6389	-3e-05	-2e-05	1e-05	3e-05	-7e-05	-0.00022	0.00017	3e-05	2
6390	6e-05	1e-05	9e-05	0.00015	0.00024	0.00027	-0.00017	-0.00012	2
6391	6e-05	1e-05	9e-05	0.00015	0.00024	0.00027	-0.00017	-0.00012	2
6392	6e-05	1e-05	9e-05	0.00015	0.00024	0.00027	-0.00017	-0.00012	2
6393	6e-05	1e-05	9e-05	0.00015	0.00024	0.00027	-0.00017	-0.00012	2
6394	6e-05	1e-05	9e-05	0.00015	0.00024	0.00027	-0.00017	-0.00012	2
6395	6e-05	1e-05	9e-05	0.00015	0.00024	0.00027	-0.00017	-0.00012	2
6396	6e-05	1e-05	9e-05	0.00015	0.00024	0.00027	-0.00017	-0.00012	2
6397	6e-05	1e-05	9e-05	0.00015	0.00024	0.00027	-0.00017	-0.00012	2
6398	6e-05	1e-05	9e-05	0.00015	0.00024	0.00027	-0.00017	-0.00012	2
6399	6e-05	1e-05	9e-05	0.00015	0.00024	0.00027	-0.00017	-0.00012	2
6400	6e-05	1e-05	9e-05	0.00015	0.00024	0.00027	-0.00017	-0.00012	2
6401	6e-05	1e-05	9e-05	0.00015	0.00024	0.00027	-0.00017	-0.00012	2
6402	6e-05	1e-05	9e-05	0.00015	0.00024	0.00027	-0.00017	-0.00012	2
6403	6e-05	1e-05	9e-05	0.00015	0.00024	0.00027	-0.00017	-0.00012	2
6404	6e-05	1e-05	9e-05	0.00015	0.00024	0.00027	-0.00017	-0.00012	2
6405	6e-05	1e-05	9e-05	0.00015	0.00024	0.00027	-0.00017	-0.00012	2
6406	6e-05	1e-05	9e-05	0.00015	0.00024	0.00027	-0.00017	-0.00012	2
6407	6e-05	1e-05	9e-05	0.00015	0.00024	0.00027	-0.00017	-0.00012	2
6408	6e-05	1e-05	9e-05	0.00015	0.00024	0.00027	-0.00017	-0.00012	2
6409	6e-05	1e-05	9e-05	0.00015	0.00024	0.00027	-0.00017	-0.00012	2
6410	6e-05	1e-05	9e-05	0.00015	0.00024	0.00027	-0.00017	-0.00012	2
6411	9e-05	1e-05	5e-05	0.0004	-0.0001	-0.00018	-0.00016	-8e-05	2
6412	9e-05	1e-05	5e-05	0.0004	-0.0001	-0.00018	-0.00016	-8e-05	2
6413	-4e-05	-2e-05	-1e-05	-0.00031	-0.00013	3e-05	-3e-05	-0.00015	2
6414	-4e-05	-2e-05	-1e-05	-0.00031	-0.00013	3e-05	-3e-05	-0.00015	2
6415	-4e-05	-2e-05	-1e-05	-0.00031	-0.00013	3e-05	-3e-05	-0.00015	2
6416	-4e-05	-2e-05	-1e-05	-0.00031	-0.00013	3e-05	-3e-05	-0.00015	2
6417	-4e-05	-2e-05	-1e-05	-0.00031	-0.00013	3e-05	-3e-05	-0.00015	2
6418	-4e-05	-2e-05	-1e-05	-0.00031	-0.00013	3e-05	-3e-05	-0.00015	2
6419	-4e-05	-2e-05	-1e-05	-0.00031	-0.00013	3e-05	-3e-05	-0.00015	2
6420	-4e-05	-2e-05	-1e-05	-0.00031	-0.00013	3e-05	-3e-05	-0.00015	2
6421	-4e-05	-2e-05	-1e-05	-0.00031	-0.00013	3e-05	-3e-05	-0.00015	2
6422	-4e-05	-2e-05	-1e-05	-0.00031	-0.00013	3e-05	-3e-05	-0.00015	2
6423	-4e-05	-2e-05	-1e-05	-0.00031	-0.00013	3e-05	-3e-05	-0.00015	2
6424	-4e-05	-2e-05	-1e-05	-0.00031	-0.00013	3e-05	-3e-05	-0.00015	2
6425	-4e-05	-2e-05	-1e-05	-0.00031	-0.00013	3e-05	-3e-05	-0.00015	2
6426	0.00012	2e-05	-1e-05	0.00023	-7e-05	5e-05	0.00027	8e-05	2
6427	0.00012	2e-05	-1e-05	0.00023	-7e-05	5e-05	0.00027	8e-05	2
6428	0	1e-05	-1e-05	-0.00017	0.00022	0.00017	-8e-05	-0.00014	2
6429	0	1e-05	-1e-05	-0.00017	0.00022	0.00017	-8e-05	-0.00014	2
6430	0	1e-05	-1e-05	-0.00017	0.00022	0.00017	-8e-05	-0.00014	2
6431	0	1e-05	-1e-05	-0.00017	0.00022	0.00017	-8e-05	-0.00014	2
6432	0	1e-05	-1e-05	-0.00017	0.00022	0.00017	-8e-05	-0.00014	2
6433	0	1e-05	-1e-05	-0.00017	0.00022	0.00017	-8e-05	-0.00014	2
6434	0	1e-05	-1e-05	-0.00017	0.00022	0.00017	-8e-05	-0.00014	2
6435	0	1e-05	-1e-05	-0.00017	0.00022	0.00017	-8e-05	-0.00014	2
6436	0	1e-05	-1e-05	-0.00017	0.00022	0.00017	-8e-05	-0.00014	2
6438	0	1e-05	-1e-05	-0.00017	0.00022	0.00017	-8e-05	-0.00014	2
6439	0	1e-05	-1e-05	-0.00017	0.00022	0.00017	-8e-05	-0.00014	2
6440	0	1e-05	-1e-05	-0.00017	0.00022	0.00017	-8e-05	-0.00014	2
6441	0	1e-05	-1e-05	-0.00017	0.00022	0.00017	-8e-05	-0.00014	2
6442	0	1e-05	-1e-05	-0.00017	0.00022	0.00017	-8e-05	-0.00014	2
6443	0	1e-05	-1e-05	-0.00017	0.00022	0.00017	-8e-05	-0.00014	2
6444	0	1e-05	-1e-05	-0.00017	0.00022	0.00017	-8e-05	-0.00014	2
6445	0	1e-05	-1e-05	-0.00017	0.00022	0.00017	-8e-05	-0.00014	2
6446	0	1e-05	-1e-05	-0.00017	0.00022	0.00017	-8e-05	-0.00014	2
6447	0	1e-05	-1e-05	-0.00017	0.00022	0.00017	-8e-05	-0.00014	2
6448	0	1e-05	-1e-05	-0.00017	0.00022	0.00017	-8e-05	-0.00014	2
6449	-0.0002	-7e-05	-0.00013	-0.00011	0.00014	-0.00012	-8e-05	-0.00015	2
6450	-7e-05	1e-05	-3e-05	0.00011	-0.00028	-0.0001	-0.00014	-2e-05	2
6451	-1e-05	-3e-05	2e-05	0.00034	0.00028	0.00014	-9e-05	-0.00011	2
6452	-1e-05	-3e-05	2e-05	0.00034	0.00028	0.00014	-9e-05	-0.00011	2
6453	-1e-05	-3e-05	2e-05	0.00034	0.00028	0.00014	-9e-05	-0.00011	2
6454	-1e-05	-3e-05	2e-05	0.00034	0.00028	0.00014	-9e-05	-0.00011	2
6455	-1e-05	-3e-05	2e-05	0.00034	0.00028	0.00014	-9e-05	-0.00011	2
6456	-1e-05	-3e-05	2e-05	0.00034	0.00028	0.00014	-9e-05	-0.00011	2
6457	-1e-05	-3e-05	2e-05	0.00034	0.00028	0.00014	-9e-05	-0.00011	2
6458	-1e-05	-3e-05	2e-05	0.00034	0.00028	0.00014	-9e-05	-0.00011	2
6459	-1e-05	-3e-05	2e-05	0.00034	0.00028	0.00014	-9e-05	-0.00011	2
6460	-1e-05	-3e-05	2e-05	0.00034	0.00028	0.00014	-9e-05	-0.00011	2
6461	-1e-05	-3e-05	2e-05	0.00034	0.00028	0.00014	-9e-05	-0.00011	2
6462	-1e-05	-3e-05	2e-05	0.00034	0.00028	0.00014	-9e-05	-0.00011	2
6463	-1e-05	-3e-05	2e-05	0.00034	0.00028	0.00014	-9e-05	-0.00011	2
6464	-1e-05	-3e-05	2e-05	0.00034	0.00028	0.00014	-9e-05	-0.00011	2
6465	-1e-05	-3e-05	2e-05	0.00034	0.00028	0.00014	-9e-05	-0.00011	2
6466	-1e-05	-3e-05	2e-05	0.00034	0.00028	0.00014	-9e-05	-0.00011	2
6467	-1e-05	-3e-05	2e-05	0.00034	0.00028	0.00014	-9e-05	-0.00011	2
6468	-1e-05	-3e-05	2e-05	0.00034	0.00028	0.00014	-9e-05	-0.00011	2
6469	-1e-05	-3e-05	2e-05	0.00034	0.00028	0.00014	-9e-05	-0.00011	2
6470	-1e-05	-3e-05	2e-05	0.00034	0.00028	0.00014	-9e-05	-0.00011	2
6471	0.0004	6e-05	0.00022	0.00031	0.00032	0.00026	-0.00012	8e-05	2
6472	0.0004	6e-05	0.00022	0.00031	0.00032	0.00026	-0.00012	8e-05	2
6473	-0.0002	-0.00012	-0.00014	-5e-05	5e-05	-0.0001	0.00036	8e-05	2
6474	-0.0002	-0.00012	-0.00014	-5e-05	5e-05	-0.0001	0.00036	8e-05	2
6475	-0.0002	-0.00012	-0.00014	-5e-05	5e-05	-0.0001	0.00036	8e-05	2
6476	-0.0002	-0.00012	-0.00014	-5e-05	5e-05	-0.0001	0.00036	8e-05	2
6477	-0.0002	-0.00012	-0.00014	-5e-05	5e-05	-0.0001	0.00036	8e-05	2
6478	-0.0002	-0.00012	-0.00014	-5e-05	5e-05	-0.0001	0.00036	8e-05	2
6479	-0.0002	-0.00012	-0.00014	-5e-05	5e-05	-0.0001	0.00036	8e-05	2
6480	-0.0002	-0.00012	-0.00014	-5e-05	5e-05	-0.0001	0.00036	8e-05	2
6481	-0.0002	-0.00012	-0.00014	-5e-05	5e-05	-0.0001	0.00036	8e-05	2
6482	-0.0002	-0.00012	-0.00014	-5e-05	5e-05	-0.0001	0.00036	8e-05	2
6483	-0.0002	-0.00012	-0.00014	-5e-05	5e-05	-0.0001	0.00036	8e-05	2
6484	-0.0002	-0.00012	-0.00014	-5e-05	5e-05	-0.0001	0.00036	8e-05	2
6485	-0.0002	-0.00012	-0.00014	-5e-05	5e-05	-0.0001	0.00036	8e-05	2
6486	-2e-05	-1e-05	-2e-05	0.00015	-3e-05	-0.00013	0.0001	-0.00013	2
6488	0.00025	5e-05	2e-05	-0.00022	-0.00014	-0.00034	0.00019	0.00021	2
6489	0.00025	5e-05	2e-05	-0.00022	-0.00014	-0.00034	0.00019	0.00021	2
6490	0.00025	5e-05	2e-05	-0.00022	-0.00014	-0.00034	0.00019	0.00021	2
6491	0.00025	5e-05	2e-05	-0.00022	-0.00014	-0.00034	0.00019	0.00021	2
6492	0.00025	5e-05	2e-05	-0.00022	-0.00014	-0.00034	0.00019	0.00021	2
6493	0.00025	5e-05	2e-05	-0.00022	-0.00014	-0.00034	0.00019	0.00021	2
6494	0.00025	5e-05	2e-05	-0.00022	-0.00014	-0.00034	0.00019	0.00021	2
6495	0.00025	5e-05	2e-05	-0.00022	-0.00014	-0.00034	0.00019	0.00021	2
6496	0.00025	5e-05	2e-05	-0.00022	-0.00014	-0.00034	0.00019	0.00021	2
6497	0.00025	5e-05	2e-05	-0.00022	-0.00014	-0.00034	0.00019	0.00021	2
6498	0.00025	5e-05	2e-05	-0.00022	-0.00014	-0.00034	0.00019	0.00021	2
6499	0.00025	5e-05	2e-05	-0.00022	-0.00014	-0.00034	0.00019	0.00021	2
6500	0.00025	5e-05	2e-05	-0.00022	-0.00014	-0.00034	0.00019	0.00021	2
6501	0.00025	5e-05	2e-05	-0.00022	-0.00014	-0.00034	0.00019	0.00021	2
6502	0.00025	5e-05	2e-05	-0.00022	-0.00014	-0.00034	0.00019	0.00021	2
6503	0.00025	5e-05	2e-05	-0.00022	-0.00014	-0.00034	0.00019	0.00021	2
6504	0.00025	5e-05	2e-05	-0.00022	-0.00014	-0.00034	0.00019	0.00021	2
6505	0.00025	5e-05	2e-05	-0.00022	-0.00014	-0.00034	0.00019	0.00021	2
6506	0.00025	5e-05	2e-05	-0.00022	-0.00014	-0.00034	0.00019	0.00021	2
6507	0.00025	5e-05	2e-05	-0.00022	-0.00014	-0.00034	0.00019	0.00021	2
6508	0.00025	5e-05	2e-05	-0.00022	-0.00014	-0.00034	0.00019	0.00021	2
6509	1e-05	-1e-05	-8e-05	-0.00035	0	0	0.00014	-3e-05	2
6510	-1e-05	-1e-05	-2e-05	-1e-05	-0.00019	-0.00026	-0.00012	8e-05	2
6511	-1e-05	-1e-05	-2e-05	-1e-05	-0.00019	-0.00026	-0.00012	8e-05	2
6512	-1e-05	-1e-05	-2e-05	-1e-05	-0.00019	-0.00026	-0.00012	8e-05	2
6513	-1e-05	-1e-05	-2e-05	-1e-05	-0.00019	-0.00026	-0.00012	8e-05	2
6514	-1e-05	-1e-05	-2e-05	-1e-05	-0.00019	-0.00026	-0.00012	8e-05	2
6515	-1e-05	-1e-05	-2e-05	-1e-05	-0.00019	-0.00026	-0.00012	8e-05	2
6516	-1e-05	-1e-05	-2e-05	-1e-05	-0.00019	-0.00026	-0.00012	8e-05	2
6517	-1e-05	-1e-05	-2e-05	-1e-05	-0.00019	-0.00026	-0.00012	8e-05	2
6518	-1e-05	-1e-05	-2e-05	-1e-05	-0.00019	-0.00026	-0.00012	8e-05	2
6519	-1e-05	-1e-05	-2e-05	-1e-05	-0.00019	-0.00026	-0.00012	8e-05	2
6520	-1e-05	-1e-05	-2e-05	-1e-05	-0.00019	-0.00026	-0.00012	8e-05	2
6521	-1e-05	-1e-05	-2e-05	-1e-05	-0.00019	-0.00026	-0.00012	8e-05	2
6522	-1e-05	-1e-05	-2e-05	-1e-05	-0.00019	-0.00026	-0.00012	8e-05	2
6523	-1e-05	-1e-05	-2e-05	-1e-05	-0.00019	-0.00026	-0.00012	8e-05	2
6524	-1e-05	-1e-05	-2e-05	-1e-05	-0.00019	-0.00026	-0.00012	8e-05	2
6525	-1e-05	-1e-05	-2e-05	-1e-05	-0.00019	-0.00026	-0.00012	8e-05	2
6526	-1e-05	-1e-05	-2e-05	-1e-05	-0.00019	-0.00026	-0.00012	8e-05	2
6527	-1e-05	-1e-05	-2e-05	-1e-05	-0.00019	-0.00026	-0.00012	8e-05	2
6528	-1e-05	-1e-05	-2e-05	-1e-05	-0.00019	-0.00026	-0.00012	8e-05	2
6529	-1e-05	-1e-05	-2e-05	-1e-05	-0.00019	-0.00026	-0.00012	8e-05	2
6530	-1e-05	-1e-05	-2e-05	-1e-05	-0.00019	-0.00026	-0.00012	8e-05	2
6531	-5e-05	-3e-05	-4e-05	-9e-05	-6e-05	0	-2e-05	2e-05	2
6532	-5e-05	-3e-05	-4e-05	-9e-05	-6e-05	0	-2e-05	2e-05	2
6533	0.00034	1e-05	4e-05	0.00036	-0.0001	-1e-05	-3e-05	6e-05	2
6534	0.00034	1e-05	4e-05	0.00036	-0.0001	-1e-05	-3e-05	6e-05	2
6535	0.00034	1e-05	4e-05	0.00036	-0.0001	-1e-05	-3e-05	6e-05	2
6536	0.00034	1e-05	4e-05	0.00036	-0.0001	-1e-05	-3e-05	6e-05	2
6538	0.00034	1e-05	4e-05	0.00036	-0.0001	-1e-05	-3e-05	6e-05	2
6539	0.00034	1e-05	4e-05	0.00036	-0.0001	-1e-05	-3e-05	6e-05	2
6540	0.00034	1e-05	4e-05	0.00036	-0.0001	-1e-05	-3e-05	6e-05	2
6541	0.00034	1e-05	4e-05	0.00036	-0.0001	-1e-05	-3e-05	6e-05	2
6542	0.00034	1e-05	4e-05	0.00036	-0.0001	-1e-05	-3e-05	6e-05	2
6543	0.00034	1e-05	4e-05	0.00036	-0.0001	-1e-05	-3e-05	6e-05	2
6544	0.00034	1e-05	4e-05	0.00036	-0.0001	-1e-05	-3e-05	6e-05	2
6545	0.00034	1e-05	4e-05	0.00036	-0.0001	-1e-05	-3e-05	6e-05	2
6546	5e-05	1e-05	4e-05	-2e-05	0.00011	0.00011	0.00012	0.00015	2
6547	5e-05	1e-05	4e-05	-2e-05	0.00011	0.00011	0.00012	0.00015	2
6548	5e-05	1e-05	4e-05	-2e-05	0.00011	0.00011	0.00012	0.00015	2
6549	5e-05	1e-05	4e-05	-2e-05	0.00011	0.00011	0.00012	0.00015	2
6550	5e-05	1e-05	4e-05	-2e-05	0.00011	0.00011	0.00012	0.00015	2
6551	5e-05	1e-05	4e-05	-2e-05	0.00011	0.00011	0.00012	0.00015	2
6552	-4e-05	-3e-05	0.00014	0.00063	0.00017	2e-05	-0.0002	-0.00015	2
6553	-0.00021	-0.0001	-0.00034	-0.00025	-0.00044	0.00017	-0.00017	-0.0001	2
6554	-0.00021	-0.0001	-0.00034	-0.00025	-0.00044	0.00017	-0.00017	-0.0001	2
6555	-0.00021	-0.0001	-0.00034	-0.00025	-0.00044	0.00017	-0.00017	-0.0001	2
6556	-0.00021	-0.0001	-0.00034	-0.00025	-0.00044	0.00017	-0.00017	-0.0001	2
6557	-0.00021	-0.0001	-0.00034	-0.00025	-0.00044	0.00017	-0.00017	-0.0001	2
6558	-0.00021	-0.0001	-0.00034	-0.00025	-0.00044	0.00017	-0.00017	-0.0001	2
6559	-0.00021	-0.0001	-0.00034	-0.00025	-0.00044	0.00017	-0.00017	-0.0001	2
6560	-0.00021	-0.0001	-0.00034	-0.00025	-0.00044	0.00017	-0.00017	-0.0001	2
6561	-0.00021	-0.0001	-0.00034	-0.00025	-0.00044	0.00017	-0.00017	-0.0001	2
6562	-0.00021	-0.0001	-0.00034	-0.00025	-0.00044	0.00017	-0.00017	-0.0001	2
6563	-0.00021	-0.0001	-0.00034	-0.00025	-0.00044	0.00017	-0.00017	-0.0001	2
6564	-0.00021	-0.0001	-0.00034	-0.00025	-0.00044	0.00017	-0.00017	-0.0001	2
6565	-0.00021	-0.0001	-0.00034	-0.00025	-0.00044	0.00017	-0.00017	-0.0001	2
6566	-0.00021	-0.0001	-0.00034	-0.00025	-0.00044	0.00017	-0.00017	-0.0001	2
6567	-0.00021	-0.0001	-0.00034	-0.00025	-0.00044	0.00017	-0.00017	-0.0001	2
6568	-0.00021	-0.0001	-0.00034	-0.00025	-0.00044	0.00017	-0.00017	-0.0001	2
6569	5e-05	1e-05	-1e-05	-1e-05	-0.00013	-0.00025	0.00017	-6e-05	2
6570	1e-05	2e-05	0.00013	5e-05	-3e-05	-0.00015	-0.00027	2e-05	2
6571	1e-05	2e-05	0.00013	5e-05	-3e-05	-0.00015	-0.00027	2e-05	2
6572	1e-05	2e-05	0.00013	5e-05	-3e-05	-0.00015	-0.00027	2e-05	2
6573	1e-05	2e-05	0.00013	5e-05	-3e-05	-0.00015	-0.00027	2e-05	2
6574	1e-05	2e-05	0.00013	5e-05	-3e-05	-0.00015	-0.00027	2e-05	2
6575	1e-05	2e-05	0.00013	5e-05	-3e-05	-0.00015	-0.00027	2e-05	2
6576	1e-05	2e-05	0.00013	5e-05	-3e-05	-0.00015	-0.00027	2e-05	2
6577	1e-05	2e-05	0.00013	5e-05	-3e-05	-0.00015	-0.00027	2e-05	2
6578	1e-05	2e-05	0.00013	5e-05	-3e-05	-0.00015	-0.00027	2e-05	2
6579	1e-05	2e-05	0.00013	5e-05	-3e-05	-0.00015	-0.00027	2e-05	2
6580	1e-05	2e-05	0.00013	5e-05	-3e-05	-0.00015	-0.00027	2e-05	2
6581	1e-05	2e-05	0.00013	5e-05	-3e-05	-0.00015	-0.00027	2e-05	2
6582	1e-05	2e-05	0.00013	5e-05	-3e-05	-0.00015	-0.00027	2e-05	2
6583	1e-05	2e-05	0.00013	5e-05	-3e-05	-0.00015	-0.00027	2e-05	2
6584	1e-05	2e-05	0.00013	5e-05	-3e-05	-0.00015	-0.00027	2e-05	2
6585	1e-05	2e-05	0.00013	5e-05	-3e-05	-0.00015	-0.00027	2e-05	2
6586	1e-05	2e-05	0.00013	5e-05	-3e-05	-0.00015	-0.00027	2e-05	2
6588	1e-05	2e-05	0.00013	5e-05	-3e-05	-0.00015	-0.00027	2e-05	2
6589	1e-05	2e-05	0.00013	5e-05	-3e-05	-0.00015	-0.00027	2e-05	2
6590	1e-05	2e-05	0.00013	5e-05	-3e-05	-0.00015	-0.00027	2e-05	2
6591	0.00018	4e-05	1e-05	3e-05	-0.0001	0.00012	-0.00036	-9e-05	2
6592	0.00018	4e-05	1e-05	3e-05	-0.0001	0.00012	-0.00036	-9e-05	2
6593	-7e-05	-1e-05	-2e-05	7e-05	0.00013	0.00012	-8e-05	-0.00012	2
6594	-7e-05	-1e-05	-2e-05	7e-05	0.00013	0.00012	-8e-05	-0.00012	2
6595	-7e-05	-1e-05	-2e-05	7e-05	0.00013	0.00012	-8e-05	-0.00012	2
6596	-7e-05	-1e-05	-2e-05	7e-05	0.00013	0.00012	-8e-05	-0.00012	2
6597	-7e-05	-1e-05	-2e-05	7e-05	0.00013	0.00012	-8e-05	-0.00012	2
6598	-7e-05	-1e-05	-2e-05	7e-05	0.00013	0.00012	-8e-05	-0.00012	2
6599	-7e-05	-1e-05	-2e-05	7e-05	0.00013	0.00012	-8e-05	-0.00012	2
6600	-7e-05	-1e-05	-2e-05	7e-05	0.00013	0.00012	-8e-05	-0.00012	2
6601	-7e-05	-1e-05	-2e-05	7e-05	0.00013	0.00012	-8e-05	-0.00012	2
6602	-7e-05	-1e-05	-2e-05	7e-05	0.00013	0.00012	-8e-05	-0.00012	2
6603	-7e-05	-1e-05	-2e-05	7e-05	0.00013	0.00012	-8e-05	-0.00012	2
6604	-7e-05	-1e-05	-2e-05	7e-05	0.00013	0.00012	-8e-05	-0.00012	2
6605	-7e-05	-1e-05	-2e-05	7e-05	0.00013	0.00012	-8e-05	-0.00012	2
6606	-6e-05	1e-05	2e-05	3e-05	-0.00011	-0.00029	4e-05	8e-05	2
6607	-6e-05	1e-05	2e-05	3e-05	-0.00011	-0.00029	4e-05	8e-05	2
6608	-6e-05	1e-05	2e-05	3e-05	-0.00011	-0.00029	4e-05	8e-05	2
6609	-6e-05	1e-05	2e-05	3e-05	-0.00011	-0.00029	4e-05	8e-05	2
6610	-6e-05	1e-05	2e-05	3e-05	-0.00011	-0.00029	4e-05	8e-05	2
6611	-6e-05	1e-05	2e-05	3e-05	-0.00011	-0.00029	4e-05	8e-05	2
6612	-6e-05	1e-05	2e-05	3e-05	-0.00011	-0.00029	4e-05	8e-05	2
6613	-6e-05	1e-05	2e-05	3e-05	-0.00011	-0.00029	4e-05	8e-05	2
6614	-6e-05	1e-05	2e-05	3e-05	-0.00011	-0.00029	4e-05	8e-05	2
6615	-6e-05	1e-05	2e-05	3e-05	-0.00011	-0.00029	4e-05	8e-05	2
6616	-6e-05	1e-05	2e-05	3e-05	-0.00011	-0.00029	4e-05	8e-05	2
6617	-6e-05	1e-05	2e-05	3e-05	-0.00011	-0.00029	4e-05	8e-05	2
6618	-6e-05	1e-05	2e-05	3e-05	-0.00011	-0.00029	4e-05	8e-05	2
6619	-6e-05	1e-05	2e-05	3e-05	-0.00011	-0.00029	4e-05	8e-05	2
6620	-6e-05	1e-05	2e-05	3e-05	-0.00011	-0.00029	4e-05	8e-05	2
6621	-6e-05	1e-05	2e-05	3e-05	-0.00011	-0.00029	4e-05	8e-05	2
6622	-6e-05	1e-05	2e-05	3e-05	-0.00011	-0.00029	4e-05	8e-05	2
6623	-6e-05	1e-05	2e-05	3e-05	-0.00011	-0.00029	4e-05	8e-05	2
6624	-6e-05	1e-05	2e-05	3e-05	-0.00011	-0.00029	4e-05	8e-05	2
6625	-6e-05	1e-05	2e-05	3e-05	-0.00011	-0.00029	4e-05	8e-05	2
6626	-6e-05	1e-05	2e-05	3e-05	-0.00011	-0.00029	4e-05	8e-05	2
6627	-6e-05	1e-05	2e-05	3e-05	-0.00011	-0.00029	4e-05	8e-05	2
6628	-6e-05	1e-05	2e-05	3e-05	-0.00011	-0.00029	4e-05	8e-05	2
6629	0	1e-05	-1e-05	-0.00027	0.00017	-9e-05	-8e-05	0.00016	2
6630	-9e-05	-6e-05	-0.00023	-0.00028	3e-05	0.00012	-9e-05	-0.00017	2
6631	-9e-05	-6e-05	-0.00023	-0.00028	3e-05	0.00012	-9e-05	-0.00017	2
6632	-9e-05	-1e-05	4e-05	7e-05	-0.0001	-0.00016	1e-05	-7e-05	2
6633	-9e-05	-1e-05	4e-05	7e-05	-0.0001	-0.00016	1e-05	-7e-05	2
6634	-9e-05	-1e-05	4e-05	7e-05	-0.0001	-0.00016	1e-05	-7e-05	2
6635	-9e-05	-1e-05	4e-05	7e-05	-0.0001	-0.00016	1e-05	-7e-05	2
6636	-9e-05	-1e-05	4e-05	7e-05	-0.0001	-0.00016	1e-05	-7e-05	2
6638	-9e-05	-1e-05	4e-05	7e-05	-0.0001	-0.00016	1e-05	-7e-05	2
6639	-9e-05	-1e-05	4e-05	7e-05	-0.0001	-0.00016	1e-05	-7e-05	2
6640	-9e-05	-1e-05	4e-05	7e-05	-0.0001	-0.00016	1e-05	-7e-05	2
6641	-9e-05	-1e-05	4e-05	7e-05	-0.0001	-0.00016	1e-05	-7e-05	2
6642	-9e-05	-1e-05	4e-05	7e-05	-0.0001	-0.00016	1e-05	-7e-05	2
6643	-9e-05	-1e-05	4e-05	7e-05	-0.0001	-0.00016	1e-05	-7e-05	2
6644	-9e-05	-1e-05	4e-05	7e-05	-0.0001	-0.00016	1e-05	-7e-05	2
6645	-9e-05	-1e-05	4e-05	7e-05	-0.0001	-0.00016	1e-05	-7e-05	2
6646	-9e-05	-1e-05	4e-05	7e-05	-0.0001	-0.00016	1e-05	-7e-05	2
6647	-9e-05	-1e-05	4e-05	7e-05	-0.0001	-0.00016	1e-05	-7e-05	2
6648	-9e-05	-1e-05	4e-05	7e-05	-0.0001	-0.00016	1e-05	-7e-05	2
6649	-9e-05	-1e-05	4e-05	7e-05	-0.0001	-0.00016	1e-05	-7e-05	2
6650	-9e-05	-1e-05	4e-05	7e-05	-0.0001	-0.00016	1e-05	-7e-05	2
6651	-9e-05	-1e-05	4e-05	7e-05	-0.0001	-0.00016	1e-05	-7e-05	2
6652	-9e-05	-1e-05	4e-05	7e-05	-0.0001	-0.00016	1e-05	-7e-05	2
6653	-9e-05	-1e-05	4e-05	7e-05	-0.0001	-0.00016	1e-05	-7e-05	2
6654	-9e-05	-1e-05	4e-05	7e-05	-0.0001	-0.00016	1e-05	-7e-05	2
6655	-9e-05	-1e-05	4e-05	7e-05	-0.0001	-0.00016	1e-05	-7e-05	2
6656	-9e-05	-1e-05	4e-05	7e-05	-0.0001	-0.00016	1e-05	-7e-05	2
6657	-9e-05	-1e-05	4e-05	7e-05	-0.0001	-0.00016	1e-05	-7e-05	2
6658	-9e-05	-1e-05	4e-05	7e-05	-0.0001	-0.00016	1e-05	-7e-05	2
6659	-9e-05	0	9e-05	-3e-05	-0.00049	0.00017	7e-05	5e-05	2
6660	8e-05	1e-05	1e-05	9e-05	0.00028	0.00015	8e-05	-3e-05	2
6661	8e-05	1e-05	1e-05	9e-05	0.00028	0.00015	8e-05	-3e-05	2
6662	8e-05	1e-05	1e-05	9e-05	0.00028	0.00015	8e-05	-3e-05	2
6663	8e-05	1e-05	1e-05	9e-05	0.00028	0.00015	8e-05	-3e-05	2
6664	8e-05	1e-05	1e-05	9e-05	0.00028	0.00015	8e-05	-3e-05	2
6665	8e-05	1e-05	1e-05	9e-05	0.00028	0.00015	8e-05	-3e-05	2
6666	-8e-05	3e-05	7e-05	0.00024	-8e-05	-0.00027	-0.00023	-2e-05	2
6667	-8e-05	3e-05	7e-05	0.00024	-8e-05	-0.00027	-0.00023	-2e-05	2
6668	-8e-05	3e-05	7e-05	0.00024	-8e-05	-0.00027	-0.00023	-2e-05	2
6669	-8e-05	3e-05	7e-05	0.00024	-8e-05	-0.00027	-0.00023	-2e-05	2
6670	-8e-05	3e-05	7e-05	0.00024	-8e-05	-0.00027	-0.00023	-2e-05	2
6671	-8e-05	3e-05	7e-05	0.00024	-8e-05	-0.00027	-0.00023	-2e-05	2
6672	0.00034	5e-05	0.00018	0.00022	2e-05	0.0002	3e-05	6e-05	2
6673	7e-05	4e-05	-5e-05	-0.00011	0.00032	9e-05	0.00012	5e-05	2
6674	7e-05	4e-05	-5e-05	-0.00011	0.00032	9e-05	0.00012	5e-05	2
6675	7e-05	4e-05	-5e-05	-0.00011	0.00032	9e-05	0.00012	5e-05	2
6676	7e-05	4e-05	-5e-05	-0.00011	0.00032	9e-05	0.00012	5e-05	2
6677	7e-05	4e-05	-5e-05	-0.00011	0.00032	9e-05	0.00012	5e-05	2
6678	7e-05	4e-05	-5e-05	-0.00011	0.00032	9e-05	0.00012	5e-05	2
6679	7e-05	4e-05	-5e-05	-0.00011	0.00032	9e-05	0.00012	5e-05	2
6680	7e-05	4e-05	-5e-05	-0.00011	0.00032	9e-05	0.00012	5e-05	2
6681	7e-05	4e-05	-5e-05	-0.00011	0.00032	9e-05	0.00012	5e-05	2
6682	7e-05	4e-05	-5e-05	-0.00011	0.00032	9e-05	0.00012	5e-05	2
6683	7e-05	4e-05	-5e-05	-0.00011	0.00032	9e-05	0.00012	5e-05	2
6684	7e-05	4e-05	-5e-05	-0.00011	0.00032	9e-05	0.00012	5e-05	2
6685	7e-05	4e-05	-5e-05	-0.00011	0.00032	9e-05	0.00012	5e-05	2
6687	7e-05	4e-05	-5e-05	-0.00011	0.00032	9e-05	0.00012	5e-05	2
6689	5e-05	-3e-05	3e-05	-0.00026	-0.00025	-5e-05	0	-1e-05	2
6690	-0.00017	-3e-05	1e-05	7e-05	-0.00012	-8e-05	2e-05	-6e-05	2
6691	-0.00017	-3e-05	1e-05	7e-05	-0.00012	-8e-05	2e-05	-6e-05	2
6692	-0.00017	-3e-05	1e-05	7e-05	-0.00012	-8e-05	2e-05	-6e-05	2
6693	-0.00017	-3e-05	1e-05	7e-05	-0.00012	-8e-05	2e-05	-6e-05	2
6694	-0.00017	-3e-05	1e-05	7e-05	-0.00012	-8e-05	2e-05	-6e-05	2
6695	-0.00017	-3e-05	1e-05	7e-05	-0.00012	-8e-05	2e-05	-6e-05	2
6696	-0.00017	-3e-05	1e-05	7e-05	-0.00012	-8e-05	2e-05	-6e-05	2
6697	-0.00017	-3e-05	1e-05	7e-05	-0.00012	-8e-05	2e-05	-6e-05	2
6698	-0.00017	-3e-05	1e-05	7e-05	-0.00012	-8e-05	2e-05	-6e-05	2
6699	-0.00017	-3e-05	1e-05	7e-05	-0.00012	-8e-05	2e-05	-6e-05	2
6700	-0.00017	-3e-05	1e-05	7e-05	-0.00012	-8e-05	2e-05	-6e-05	2
6701	-0.00017	-3e-05	1e-05	7e-05	-0.00012	-8e-05	2e-05	-6e-05	2
6702	-0.00017	-3e-05	1e-05	7e-05	-0.00012	-8e-05	2e-05	-6e-05	2
6703	-0.00017	-3e-05	1e-05	7e-05	-0.00012	-8e-05	2e-05	-6e-05	2
6704	-0.00017	-3e-05	1e-05	7e-05	-0.00012	-8e-05	2e-05	-6e-05	2
6705	-0.00017	-3e-05	1e-05	7e-05	-0.00012	-8e-05	2e-05	-6e-05	2
6706	-0.00017	-3e-05	1e-05	7e-05	-0.00012	-8e-05	2e-05	-6e-05	2
6707	-0.00017	-3e-05	1e-05	7e-05	-0.00012	-8e-05	2e-05	-6e-05	2
6708	-0.00017	-3e-05	1e-05	7e-05	-0.00012	-8e-05	2e-05	-6e-05	2
6709	-0.00017	-3e-05	1e-05	7e-05	-0.00012	-8e-05	2e-05	-6e-05	2
6710	-0.00017	-3e-05	1e-05	7e-05	-0.00012	-8e-05	2e-05	-6e-05	2
6711	0.00021	2e-05	-2e-05	0.0001	0.00013	4e-05	-7e-05	0.00013	2
6712	0.00021	2e-05	-2e-05	0.0001	0.00013	4e-05	-7e-05	0.00013	2
6713	0.0001	1e-05	4e-05	0.00012	0.00013	0.00012	1e-05	-4e-05	2
6714	0.0001	1e-05	4e-05	0.00012	0.00013	0.00012	1e-05	-4e-05	2
6715	0.0001	1e-05	4e-05	0.00012	0.00013	0.00012	1e-05	-4e-05	2
6716	0.0001	1e-05	4e-05	0.00012	0.00013	0.00012	1e-05	-4e-05	2
6717	0.0001	1e-05	4e-05	0.00012	0.00013	0.00012	1e-05	-4e-05	2
6718	0.0001	1e-05	4e-05	0.00012	0.00013	0.00012	1e-05	-4e-05	2
6719	0.0001	1e-05	4e-05	0.00012	0.00013	0.00012	1e-05	-4e-05	2
6720	0.0001	1e-05	4e-05	0.00012	0.00013	0.00012	1e-05	-4e-05	2
6721	0.0001	1e-05	4e-05	0.00012	0.00013	0.00012	1e-05	-4e-05	2
6722	0.0001	1e-05	4e-05	0.00012	0.00013	0.00012	1e-05	-4e-05	2
6723	0.0001	1e-05	4e-05	0.00012	0.00013	0.00012	1e-05	-4e-05	2
6724	0.0001	1e-05	4e-05	0.00012	0.00013	0.00012	1e-05	-4e-05	2
6725	0.0001	1e-05	4e-05	0.00012	0.00013	0.00012	1e-05	-4e-05	2
6726	-8e-05	-3e-05	-0.00012	-0.00027	0.00014	1e-05	4e-05	0.00012	2
6727	-8e-05	-3e-05	-0.00012	-0.00027	0.00014	1e-05	4e-05	0.00012	2
6728	-8e-05	-3e-05	-0.00012	-0.00027	0.00014	1e-05	4e-05	0.00012	2
6729	-8e-05	-3e-05	-0.00012	-0.00027	0.00014	1e-05	4e-05	0.00012	2
6730	-8e-05	-3e-05	-0.00012	-0.00027	0.00014	1e-05	4e-05	0.00012	2
6731	-8e-05	-3e-05	-0.00012	-0.00027	0.00014	1e-05	4e-05	0.00012	2
6732	8e-05	3e-05	0.00012	0.00048	0.00025	-0.00033	-0.00031	-0.0002	2
6733	-2e-05	-5e-05	-0.00036	-0.00062	-0.00013	0.00026	0.00027	0.00011	2
6734	-2e-05	-5e-05	-0.00036	-0.00062	-0.00013	0.00026	0.00027	0.00011	2
6735	-2e-05	-5e-05	-0.00036	-0.00062	-0.00013	0.00026	0.00027	0.00011	2
6737	-2e-05	-5e-05	-0.00036	-0.00062	-0.00013	0.00026	0.00027	0.00011	2
6739	-2e-05	-5e-05	-0.00036	-0.00062	-0.00013	0.00026	0.00027	0.00011	2
6740	-2e-05	-5e-05	-0.00036	-0.00062	-0.00013	0.00026	0.00027	0.00011	2
6741	-2e-05	-5e-05	-0.00036	-0.00062	-0.00013	0.00026	0.00027	0.00011	2
6742	-2e-05	-5e-05	-0.00036	-0.00062	-0.00013	0.00026	0.00027	0.00011	2
6743	-2e-05	-5e-05	-0.00036	-0.00062	-0.00013	0.00026	0.00027	0.00011	2
6744	-2e-05	-5e-05	-0.00036	-0.00062	-0.00013	0.00026	0.00027	0.00011	2
6745	-2e-05	-5e-05	-0.00036	-0.00062	-0.00013	0.00026	0.00027	0.00011	2
6746	-2e-05	-5e-05	-0.00036	-0.00062	-0.00013	0.00026	0.00027	0.00011	2
6747	-2e-05	-5e-05	-0.00036	-0.00062	-0.00013	0.00026	0.00027	0.00011	2
6748	-2e-05	-5e-05	-0.00036	-0.00062	-0.00013	0.00026	0.00027	0.00011	2
6749	-2e-05	-2e-05	2e-05	0.0001	-0.0002	0.00023	6e-05	-7e-05	2
6750	-2e-05	-2e-05	2e-05	0.0001	-0.0002	0.00023	6e-05	-7e-05	2
6751	-0.00019	0	3e-05	-2e-05	-0.00025	3e-05	-7e-05	-5e-05	2
6752	-0.00019	0	3e-05	-2e-05	-0.00025	3e-05	-7e-05	-5e-05	2
6753	-0.00019	0	3e-05	-2e-05	-0.00025	3e-05	-7e-05	-5e-05	2
6754	-0.00019	0	3e-05	-2e-05	-0.00025	3e-05	-7e-05	-5e-05	2
6755	-0.00019	0	3e-05	-2e-05	-0.00025	3e-05	-7e-05	-5e-05	2
6756	-0.00019	0	3e-05	-2e-05	-0.00025	3e-05	-7e-05	-5e-05	2
6757	-0.00019	0	3e-05	-2e-05	-0.00025	3e-05	-7e-05	-5e-05	2
6758	-0.00019	0	3e-05	-2e-05	-0.00025	3e-05	-7e-05	-5e-05	2
6759	-0.00019	0	3e-05	-2e-05	-0.00025	3e-05	-7e-05	-5e-05	2
6760	-0.00019	0	3e-05	-2e-05	-0.00025	3e-05	-7e-05	-5e-05	2
6761	-0.00019	0	3e-05	-2e-05	-0.00025	3e-05	-7e-05	-5e-05	2
6762	-0.00019	0	3e-05	-2e-05	-0.00025	3e-05	-7e-05	-5e-05	2
6763	-0.00019	0	3e-05	-2e-05	-0.00025	3e-05	-7e-05	-5e-05	2
6764	-0.00019	0	3e-05	-2e-05	-0.00025	3e-05	-7e-05	-5e-05	2
6765	-0.00019	0	3e-05	-2e-05	-0.00025	3e-05	-7e-05	-5e-05	2
6766	-0.00019	0	3e-05	-2e-05	-0.00025	3e-05	-7e-05	-5e-05	2
6767	-0.00019	0	3e-05	-2e-05	-0.00025	3e-05	-7e-05	-5e-05	2
6768	-0.00019	0	3e-05	-2e-05	-0.00025	3e-05	-7e-05	-5e-05	2
6769	-0.00019	0	3e-05	-2e-05	-0.00025	3e-05	-7e-05	-5e-05	2
6770	-0.00019	0	3e-05	-2e-05	-0.00025	3e-05	-7e-05	-5e-05	2
6771	-0.00019	0	3e-05	-2e-05	-0.00025	3e-05	-7e-05	-5e-05	2
6772	-0.00019	0	3e-05	-2e-05	-0.00025	3e-05	-7e-05	-5e-05	2
6773	-0.00019	0	3e-05	-2e-05	-0.00025	3e-05	-7e-05	-5e-05	2
6774	-0.00019	0	3e-05	-2e-05	-0.00025	3e-05	-7e-05	-5e-05	2
6775	-0.00019	0	3e-05	-2e-05	-0.00025	3e-05	-7e-05	-5e-05	2
6776	-0.00019	0	3e-05	-2e-05	-0.00025	3e-05	-7e-05	-5e-05	2
6777	-0.00019	0	3e-05	-2e-05	-0.00025	3e-05	-7e-05	-5e-05	2
6778	-0.00019	0	3e-05	-2e-05	-0.00025	3e-05	-7e-05	-5e-05	2
6779	-9e-05	-4e-05	-1e-05	-2e-05	0.00031	0.0001	0.00023	-2e-05	2
6780	-9e-05	-4e-05	-1e-05	-2e-05	0.00031	0.0001	0.00023	-2e-05	2
6781	-7e-05	-1e-05	9e-05	8e-05	-7e-05	-1e-05	-0.00013	-0.00012	2
6782	-7e-05	-1e-05	9e-05	8e-05	-7e-05	-1e-05	-0.00013	-0.00012	2
6783	-7e-05	-1e-05	9e-05	8e-05	-7e-05	-1e-05	-0.00013	-0.00012	2
6784	-7e-05	-1e-05	9e-05	8e-05	-7e-05	-1e-05	-0.00013	-0.00012	2
6785	-7e-05	-1e-05	9e-05	8e-05	-7e-05	-1e-05	-0.00013	-0.00012	2
6787	-0.00016	-4e-05	4e-05	9e-05	-0.00016	-0.00017	-0.00053	-0.00017	2
6789	-0.00016	-4e-05	4e-05	9e-05	-0.00016	-0.00017	-0.00053	-0.00017	2
6790	-0.00016	-4e-05	4e-05	9e-05	-0.00016	-0.00017	-0.00053	-0.00017	2
6791	-0.00016	-4e-05	4e-05	9e-05	-0.00016	-0.00017	-0.00053	-0.00017	2
6792	-0.00016	-4e-05	4e-05	9e-05	-0.00016	-0.00017	-0.00053	-0.00017	2
6793	-5e-05	-4e-05	-1e-05	-3e-05	0	-0.00013	-0.00021	-0.0001	2
6794	-5e-05	-4e-05	-1e-05	-3e-05	0	-0.00013	-0.00021	-0.0001	2
6795	-5e-05	-4e-05	-1e-05	-3e-05	0	-0.00013	-0.00021	-0.0001	2
6796	-5e-05	-4e-05	-1e-05	-3e-05	0	-0.00013	-0.00021	-0.0001	2
6797	-5e-05	-4e-05	-1e-05	-3e-05	0	-0.00013	-0.00021	-0.0001	2
6798	-5e-05	-4e-05	-1e-05	-3e-05	0	-0.00013	-0.00021	-0.0001	2
6799	-5e-05	-4e-05	-1e-05	-3e-05	0	-0.00013	-0.00021	-0.0001	2
6800	-5e-05	-4e-05	-1e-05	-3e-05	0	-0.00013	-0.00021	-0.0001	2
6801	-5e-05	-4e-05	-1e-05	-3e-05	0	-0.00013	-0.00021	-0.0001	2
6802	-5e-05	-4e-05	-1e-05	-3e-05	0	-0.00013	-0.00021	-0.0001	2
6803	-5e-05	-4e-05	-1e-05	-3e-05	0	-0.00013	-0.00021	-0.0001	2
6804	-5e-05	-4e-05	-1e-05	-3e-05	0	-0.00013	-0.00021	-0.0001	2
6805	-5e-05	-4e-05	-1e-05	-3e-05	0	-0.00013	-0.00021	-0.0001	2
6806	-5e-05	-4e-05	-1e-05	-3e-05	0	-0.00013	-0.00021	-0.0001	2
6807	-5e-05	-4e-05	-1e-05	-3e-05	0	-0.00013	-0.00021	-0.0001	2
6808	-5e-05	-4e-05	-1e-05	-3e-05	0	-0.00013	-0.00021	-0.0001	2
6809	0.00028	5e-05	4e-05	0.00022	-3e-05	-0.00017	8e-05	-0.00011	2
6810	0.00028	5e-05	4e-05	0.00022	-3e-05	-0.00017	8e-05	-0.00011	2
6811	4e-05	-2e-05	-1e-05	-0.00011	-0.00044	6e-05	0.0002	-8e-05	2
6812	4e-05	-2e-05	-1e-05	-0.00011	-0.00044	6e-05	0.0002	-8e-05	2
6813	4e-05	-2e-05	-1e-05	-0.00011	-0.00044	6e-05	0.0002	-8e-05	2
6814	4e-05	-2e-05	-1e-05	-0.00011	-0.00044	6e-05	0.0002	-8e-05	2
6815	4e-05	-2e-05	-1e-05	-0.00011	-0.00044	6e-05	0.0002	-8e-05	2
6816	4e-05	-2e-05	-1e-05	-0.00011	-0.00044	6e-05	0.0002	-8e-05	2
6817	4e-05	-2e-05	-1e-05	-0.00011	-0.00044	6e-05	0.0002	-8e-05	2
6818	4e-05	-2e-05	-1e-05	-0.00011	-0.00044	6e-05	0.0002	-8e-05	2
6819	4e-05	-2e-05	-1e-05	-0.00011	-0.00044	6e-05	0.0002	-8e-05	2
6821	4e-05	-2e-05	-1e-05	-0.00011	-0.00044	6e-05	0.0002	-8e-05	2
6822	4e-05	-2e-05	-1e-05	-0.00011	-0.00044	6e-05	0.0002	-8e-05	2
6823	4e-05	-2e-05	-1e-05	-0.00011	-0.00044	6e-05	0.0002	-8e-05	2
6824	4e-05	-2e-05	-1e-05	-0.00011	-0.00044	6e-05	0.0002	-8e-05	2
6825	4e-05	-2e-05	-1e-05	-0.00011	-0.00044	6e-05	0.0002	-8e-05	2
6826	4e-05	-2e-05	-1e-05	-0.00011	-0.00044	6e-05	0.0002	-8e-05	2
6827	4e-05	-2e-05	-1e-05	-0.00011	-0.00044	6e-05	0.0002	-8e-05	2
6828	4e-05	-2e-05	-1e-05	-0.00011	-0.00044	6e-05	0.0002	-8e-05	2
6829	4e-05	-2e-05	-1e-05	-0.00011	-0.00044	6e-05	0.0002	-8e-05	2
6830	4e-05	-2e-05	-1e-05	-0.00011	-0.00044	6e-05	0.0002	-8e-05	2
6831	-9e-05	-3e-05	-3e-05	-0.00013	0.0001	-0.00013	0.00023	4e-05	2
6832	-9e-05	-3e-05	-3e-05	-0.00013	0.0001	-0.00013	0.00023	4e-05	2
6833	-3e-05	2e-05	0	-0.00039	0.00014	-0.00014	-0.00025	-0.0001	2
6834	-3e-05	2e-05	0	-0.00039	0.00014	-0.00014	-0.00025	-0.0001	2
6835	-3e-05	2e-05	0	-0.00039	0.00014	-0.00014	-0.00025	-0.0001	2
6836	-3e-05	2e-05	0	-0.00039	0.00014	-0.00014	-0.00025	-0.0001	2
6838	-3e-05	2e-05	0	-0.00039	0.00014	-0.00014	-0.00025	-0.0001	2
6839	-3e-05	2e-05	0	-0.00039	0.00014	-0.00014	-0.00025	-0.0001	2
6840	-3e-05	2e-05	0	-0.00039	0.00014	-0.00014	-0.00025	-0.0001	2
6841	-3e-05	2e-05	0	-0.00039	0.00014	-0.00014	-0.00025	-0.0001	2
6842	-3e-05	2e-05	0	-0.00039	0.00014	-0.00014	-0.00025	-0.0001	2
6843	-3e-05	2e-05	0	-0.00039	0.00014	-0.00014	-0.00025	-0.0001	2
6844	-3e-05	2e-05	0	-0.00039	0.00014	-0.00014	-0.00025	-0.0001	2
6845	-3e-05	2e-05	0	-0.00039	0.00014	-0.00014	-0.00025	-0.0001	2
6846	2e-05	1e-05	-5e-05	0.00012	0.0001	-0.00012	0.00023	0.0001	2
6847	2e-05	1e-05	-5e-05	0.00012	0.0001	-0.00012	0.00023	0.0001	2
6848	2e-05	1e-05	-5e-05	0.00012	0.0001	-0.00012	0.00023	0.0001	2
6849	2e-05	1e-05	-5e-05	0.00012	0.0001	-0.00012	0.00023	0.0001	2
6850	2e-05	1e-05	-5e-05	0.00012	0.0001	-0.00012	0.00023	0.0001	2
6851	2e-05	1e-05	-5e-05	0.00012	0.0001	-0.00012	0.00023	0.0001	2
6852	4e-05	2e-05	4e-05	0.00018	0.00027	7e-05	-0.00016	0.0001	2
6853	4e-05	2e-05	4e-05	0.00018	0.00027	7e-05	-0.00016	0.0001	2
6854	4e-05	2e-05	4e-05	0.00018	0.00027	7e-05	-0.00016	0.0001	2
6855	4e-05	2e-05	4e-05	0.00018	0.00027	7e-05	-0.00016	0.0001	2
6856	4e-05	2e-05	4e-05	0.00018	0.00027	7e-05	-0.00016	0.0001	2
6857	4e-05	2e-05	4e-05	0.00018	0.00027	7e-05	-0.00016	0.0001	2
6858	4e-05	2e-05	4e-05	0.00018	0.00027	7e-05	-0.00016	0.0001	2
6859	4e-05	2e-05	4e-05	0.00018	0.00027	7e-05	-0.00016	0.0001	2
6860	4e-05	2e-05	4e-05	0.00018	0.00027	7e-05	-0.00016	0.0001	2
6861	4e-05	2e-05	4e-05	0.00018	0.00027	7e-05	-0.00016	0.0001	2
6862	4e-05	2e-05	4e-05	0.00018	0.00027	7e-05	-0.00016	0.0001	2
6863	4e-05	2e-05	4e-05	0.00018	0.00027	7e-05	-0.00016	0.0001	2
6864	4e-05	2e-05	4e-05	0.00018	0.00027	7e-05	-0.00016	0.0001	2
6865	4e-05	2e-05	4e-05	0.00018	0.00027	7e-05	-0.00016	0.0001	2
6866	4e-05	2e-05	4e-05	0.00018	0.00027	7e-05	-0.00016	0.0001	2
6867	4e-05	2e-05	4e-05	0.00018	0.00027	7e-05	-0.00016	0.0001	2
6868	-2e-05	-1e-05	1e-05	-9e-05	-4e-05	-8e-05	-6e-05	1e-05	2
6869	-2e-05	-1e-05	1e-05	-9e-05	-4e-05	-8e-05	-6e-05	1e-05	2
6870	-2e-05	-1e-05	1e-05	-9e-05	-4e-05	-8e-05	-6e-05	1e-05	2
6871	-2e-05	-1e-05	1e-05	-9e-05	-4e-05	-8e-05	-6e-05	1e-05	2
6872	-2e-05	-1e-05	1e-05	-9e-05	-4e-05	-8e-05	-6e-05	1e-05	2
6873	-2e-05	-1e-05	1e-05	-9e-05	-4e-05	-8e-05	-6e-05	1e-05	2
6874	-2e-05	-1e-05	1e-05	-9e-05	-4e-05	-8e-05	-6e-05	1e-05	2
6875	-2e-05	-1e-05	1e-05	-9e-05	-4e-05	-8e-05	-6e-05	1e-05	2
6876	3e-05	0	0	0.00013	0.00014	-6e-05	-5e-05	5e-05	2
6877	3e-05	0	0	0.00013	0.00014	-6e-05	-5e-05	5e-05	2
6878	3e-05	0	0	0.00013	0.00014	-6e-05	-5e-05	5e-05	2
6879	3e-05	0	0	0.00013	0.00014	-6e-05	-5e-05	5e-05	2
6880	3e-05	0	0	0.00013	0.00014	-6e-05	-5e-05	5e-05	2
6881	3e-05	0	0	0.00013	0.00014	-6e-05	-5e-05	5e-05	2
6882	3e-05	0	0	0.00013	0.00014	-6e-05	-5e-05	5e-05	2
6883	3e-05	0	0	0.00013	0.00014	-6e-05	-5e-05	5e-05	2
6884	3e-05	0	0	0.00013	0.00014	-6e-05	-5e-05	5e-05	2
6885	3e-05	0	0	0.00013	0.00014	-6e-05	-5e-05	5e-05	2
6886	3e-05	0	0	0.00013	0.00014	-6e-05	-5e-05	5e-05	2
6888	3e-05	0	0	0.00013	0.00014	-6e-05	-5e-05	5e-05	2
6889	3e-05	0	0	0.00013	0.00014	-6e-05	-5e-05	5e-05	2
6890	3e-05	0	0	0.00013	0.00014	-6e-05	-5e-05	5e-05	2
6891	3e-05	0	0	0.00013	0.00014	-6e-05	-5e-05	5e-05	2
6892	3e-05	0	0	0.00013	0.00014	-6e-05	-5e-05	5e-05	2
6893	3e-05	0	0	0.00013	0.00014	-6e-05	-5e-05	5e-05	2
6894	3e-05	0	0	0.00013	0.00014	-6e-05	-5e-05	5e-05	2
6895	3e-05	0	0	0.00013	0.00014	-6e-05	-5e-05	5e-05	2
6896	3e-05	0	0	0.00013	0.00014	-6e-05	-5e-05	5e-05	2
6897	3e-05	0	0	0.00013	0.00014	-6e-05	-5e-05	5e-05	2
6898	3e-05	0	0	0.00013	0.00014	-6e-05	-5e-05	5e-05	2
6899	0.00013	4e-05	5e-05	-1e-05	-0.00015	1e-05	1e-05	9e-05	2
6900	-0.00025	-7e-05	9e-05	-0.0001	-0.00013	-0.00025	-0.00031	-0.00018	2
6901	-0.00025	-7e-05	9e-05	-0.0001	-0.00013	-0.00025	-0.00031	-0.00018	2
6902	-0.00025	-7e-05	9e-05	-0.0001	-0.00013	-0.00025	-0.00031	-0.00018	2
6903	-0.00025	-7e-05	9e-05	-0.0001	-0.00013	-0.00025	-0.00031	-0.00018	2
6904	-0.00025	-7e-05	9e-05	-0.0001	-0.00013	-0.00025	-0.00031	-0.00018	2
6905	0.00036	-5e-05	1e-05	0.00014	-0.00011	0.00038	-1e-05	2e-05	2
6906	0.00036	-5e-05	1e-05	0.00014	-0.00011	0.00038	-1e-05	2e-05	2
6907	0.00036	-5e-05	1e-05	0.00014	-0.00011	0.00038	-1e-05	2e-05	2
6908	0.00036	-5e-05	1e-05	0.00014	-0.00011	0.00038	-1e-05	2e-05	2
6909	0.00036	-5e-05	1e-05	0.00014	-0.00011	0.00038	-1e-05	2e-05	2
6910	0.00036	-5e-05	1e-05	0.00014	-0.00011	0.00038	-1e-05	2e-05	2
6911	0.00036	-5e-05	1e-05	0.00014	-0.00011	0.00038	-1e-05	2e-05	2
6912	0.00036	-5e-05	1e-05	0.00014	-0.00011	0.00038	-1e-05	2e-05	2
6913	0.00036	-5e-05	1e-05	0.00014	-0.00011	0.00038	-1e-05	2e-05	2
6914	-5e-05	-1e-05	1e-05	-0.00014	-0.00028	0.00017	-0.00014	-7e-05	2
6915	-5e-05	-1e-05	1e-05	-0.00014	-0.00028	0.00017	-0.00014	-7e-05	2
6916	-5e-05	-1e-05	1e-05	-0.00014	-0.00028	0.00017	-0.00014	-7e-05	2
6917	-5e-05	-1e-05	1e-05	-0.00014	-0.00028	0.00017	-0.00014	-7e-05	2
6918	-5e-05	-1e-05	1e-05	-0.00014	-0.00028	0.00017	-0.00014	-7e-05	2
6919	-5e-05	-1e-05	1e-05	-0.00014	-0.00028	0.00017	-0.00014	-7e-05	2
6920	-5e-05	-1e-05	1e-05	-0.00014	-0.00028	0.00017	-0.00014	-7e-05	2
6921	-5e-05	-1e-05	1e-05	-0.00014	-0.00028	0.00017	-0.00014	-7e-05	2
6922	-5e-05	-1e-05	1e-05	-0.00014	-0.00028	0.00017	-0.00014	-7e-05	2
6923	-5e-05	-1e-05	1e-05	-0.00014	-0.00028	0.00017	-0.00014	-7e-05	2
6924	-5e-05	-1e-05	1e-05	-0.00014	-0.00028	0.00017	-0.00014	-7e-05	2
6925	-5e-05	-1e-05	1e-05	-0.00014	-0.00028	0.00017	-0.00014	-7e-05	2
6926	-5e-05	-1e-05	1e-05	-0.00014	-0.00028	0.00017	-0.00014	-7e-05	2
6927	-5e-05	-1e-05	1e-05	-0.00014	-0.00028	0.00017	-0.00014	-7e-05	2
6928	-5e-05	-1e-05	1e-05	-0.00014	-0.00028	0.00017	-0.00014	-7e-05	2
6929	-5e-05	-1e-05	1e-05	-0.00014	-0.00028	0.00017	-0.00014	-7e-05	2
6930	-5e-05	-1e-05	1e-05	-0.00014	-0.00028	0.00017	-0.00014	-7e-05	2
6931	-5e-05	-1e-05	1e-05	-0.00014	-0.00028	0.00017	-0.00014	-7e-05	2
6932	-5e-05	-1e-05	1e-05	-0.00014	-0.00028	0.00017	-0.00014	-7e-05	2
6933	-5e-05	-1e-05	1e-05	-0.00014	-0.00028	0.00017	-0.00014	-7e-05	2
6934	-5e-05	-1e-05	1e-05	-0.00014	-0.00028	0.00017	-0.00014	-7e-05	2
6935	-5e-05	-1e-05	1e-05	-0.00014	-0.00028	0.00017	-0.00014	-7e-05	2
6936	-0.00011	-3e-05	-6e-05	-0.00021	-0.0002	-5e-05	0.00021	1e-05	2
6939	0.00011	-2e-05	-2e-05	7e-05	0.00014	-0.00011	0.00017	7e-05	2
6940	0.00011	-2e-05	-2e-05	7e-05	0.00014	-0.00011	0.00017	7e-05	2
6941	0.00011	-2e-05	-2e-05	7e-05	0.00014	-0.00011	0.00017	7e-05	2
6942	0.00011	-2e-05	-2e-05	7e-05	0.00014	-0.00011	0.00017	7e-05	2
6943	0.00011	-2e-05	-2e-05	7e-05	0.00014	-0.00011	0.00017	7e-05	2
6944	0.00011	-2e-05	-2e-05	7e-05	0.00014	-0.00011	0.00017	7e-05	2
6945	0.00011	-2e-05	-2e-05	7e-05	0.00014	-0.00011	0.00017	7e-05	2
6946	0.00011	-2e-05	-2e-05	7e-05	0.00014	-0.00011	0.00017	7e-05	2
6947	0.00011	-2e-05	-2e-05	7e-05	0.00014	-0.00011	0.00017	7e-05	2
6948	0.00011	-2e-05	-2e-05	7e-05	0.00014	-0.00011	0.00017	7e-05	2
6949	0.00011	-2e-05	-2e-05	7e-05	0.00014	-0.00011	0.00017	7e-05	2
6950	0.00011	-2e-05	-2e-05	7e-05	0.00014	-0.00011	0.00017	7e-05	2
6951	-7e-05	-2e-05	3e-05	0.0007	-2e-05	0.00012	0.00027	3e-05	2
6952	-7e-05	-2e-05	3e-05	0.0007	-2e-05	0.00012	0.00027	3e-05	2
6953	0	-3e-05	-7e-05	8e-05	5e-05	1e-05	0.00016	4e-05	2
6954	0	-3e-05	-7e-05	8e-05	5e-05	1e-05	0.00016	4e-05	2
6955	0	-3e-05	-7e-05	8e-05	5e-05	1e-05	0.00016	4e-05	2
6956	0	-3e-05	-7e-05	8e-05	5e-05	1e-05	0.00016	4e-05	2
6957	0	-3e-05	-7e-05	8e-05	5e-05	1e-05	0.00016	4e-05	2
6958	0	-3e-05	-7e-05	8e-05	5e-05	1e-05	0.00016	4e-05	2
6959	0	-3e-05	-7e-05	8e-05	5e-05	1e-05	0.00016	4e-05	2
6960	0	-3e-05	-7e-05	8e-05	5e-05	1e-05	0.00016	4e-05	2
6961	0	-3e-05	-7e-05	8e-05	5e-05	1e-05	0.00016	4e-05	2
6962	0	-3e-05	-7e-05	8e-05	5e-05	1e-05	0.00016	4e-05	2
6963	0	-3e-05	-7e-05	8e-05	5e-05	1e-05	0.00016	4e-05	2
6964	0	-3e-05	-7e-05	8e-05	5e-05	1e-05	0.00016	4e-05	2
6965	-6e-05	-5e-05	-7e-05	-0.00019	2e-05	-8e-05	-0.00039	-0.00012	2
6966	-6e-05	-5e-05	-7e-05	-0.00019	2e-05	-8e-05	-0.00039	-0.00012	2
6967	-6e-05	-5e-05	-7e-05	-0.00019	2e-05	-8e-05	-0.00039	-0.00012	2
6968	-6e-05	-5e-05	-7e-05	-0.00019	2e-05	-8e-05	-0.00039	-0.00012	2
6969	-6e-05	-5e-05	-7e-05	-0.00019	2e-05	-8e-05	-0.00039	-0.00012	2
6970	-6e-05	-5e-05	-7e-05	-0.00019	2e-05	-8e-05	-0.00039	-0.00012	2
6971	-6e-05	-5e-05	-7e-05	-0.00019	2e-05	-8e-05	-0.00039	-0.00012	2
6972	-6e-05	-5e-05	-7e-05	-0.00019	2e-05	-8e-05	-0.00039	-0.00012	2
6973	-6e-05	-5e-05	-7e-05	-0.00019	2e-05	-8e-05	-0.00039	-0.00012	2
6974	-2e-05	0	-2e-05	0.0001	-0.00016	4e-05	2e-05	4e-05	2
6975	-2e-05	0	-2e-05	0.0001	-0.00016	4e-05	2e-05	4e-05	2
6976	-2e-05	0	-2e-05	0.0001	-0.00016	4e-05	2e-05	4e-05	2
6977	-2e-05	0	-2e-05	0.0001	-0.00016	4e-05	2e-05	4e-05	2
6978	-2e-05	0	-2e-05	0.0001	-0.00016	4e-05	2e-05	4e-05	2
6979	-2e-05	0	-2e-05	0.0001	-0.00016	4e-05	2e-05	4e-05	2
6980	-2e-05	0	-2e-05	0.0001	-0.00016	4e-05	2e-05	4e-05	2
6981	-2e-05	0	-2e-05	0.0001	-0.00016	4e-05	2e-05	4e-05	2
6982	-2e-05	0	-2e-05	0.0001	-0.00016	4e-05	2e-05	4e-05	2
6983	-2e-05	0	-2e-05	0.0001	-0.00016	4e-05	2e-05	4e-05	2
6984	-2e-05	0	-2e-05	0.0001	-0.00016	4e-05	2e-05	4e-05	2
6985	-2e-05	0	-2e-05	0.0001	-0.00016	4e-05	2e-05	4e-05	2
6986	-2e-05	0	-2e-05	0.0001	-0.00016	4e-05	2e-05	4e-05	2
6988	-2e-05	0	-2e-05	0.0001	-0.00016	4e-05	2e-05	4e-05	2
6989	5e-05	0	-1e-05	-0.00017	4e-05	0.00017	7e-05	9e-05	2
6990	8e-05	2e-05	0	2e-05	-1e-05	8e-05	0.00014	7e-05	2
6991	8e-05	2e-05	0	2e-05	-1e-05	8e-05	0.00014	7e-05	2
6992	8e-05	2e-05	0	2e-05	-1e-05	8e-05	0.00014	7e-05	2
6993	8e-05	2e-05	0	2e-05	-1e-05	8e-05	0.00014	7e-05	2
6994	8e-05	2e-05	0	2e-05	-1e-05	8e-05	0.00014	7e-05	2
6995	8e-05	2e-05	0	2e-05	-1e-05	8e-05	0.00014	7e-05	2
6996	8e-05	2e-05	0	2e-05	-1e-05	8e-05	0.00014	7e-05	2
6997	8e-05	2e-05	0	2e-05	-1e-05	8e-05	0.00014	7e-05	2
6998	8e-05	2e-05	0	2e-05	-1e-05	8e-05	0.00014	7e-05	2
6999	8e-05	2e-05	0	2e-05	-1e-05	8e-05	0.00014	7e-05	2
7000	8e-05	2e-05	0	2e-05	-1e-05	8e-05	0.00014	7e-05	2
7001	8e-05	2e-05	0	2e-05	-1e-05	8e-05	0.00014	7e-05	2
7002	8e-05	2e-05	0	2e-05	-1e-05	8e-05	0.00014	7e-05	2
7003	8e-05	2e-05	0	2e-05	-1e-05	8e-05	0.00014	7e-05	2
7004	8e-05	2e-05	0	2e-05	-1e-05	8e-05	0.00014	7e-05	2
7005	8e-05	2e-05	0	2e-05	-1e-05	8e-05	0.00014	7e-05	2
7006	8e-05	2e-05	0	2e-05	-1e-05	8e-05	0.00014	7e-05	2
7007	8e-05	2e-05	0	2e-05	-1e-05	8e-05	0.00014	7e-05	2
7008	8e-05	2e-05	0	2e-05	-1e-05	8e-05	0.00014	7e-05	2
7009	8e-05	2e-05	0	2e-05	-1e-05	8e-05	0.00014	7e-05	2
7010	8e-05	2e-05	0	2e-05	-1e-05	8e-05	0.00014	7e-05	2
7011	-0.00011	-1e-05	-5e-05	-0.00046	0.00029	-4e-05	5e-05	-1e-05	2
7012	-0.00011	-1e-05	-5e-05	-0.00046	0.00029	-4e-05	5e-05	-1e-05	2
7013	0.00023	0	-7e-05	0.0001	5e-05	-2e-05	6e-05	9e-05	2
7014	0.00023	0	-7e-05	0.0001	5e-05	-2e-05	6e-05	9e-05	2
7015	0.00023	0	-7e-05	0.0001	5e-05	-2e-05	6e-05	9e-05	2
7016	0.00023	0	-7e-05	0.0001	5e-05	-2e-05	6e-05	9e-05	2
7017	0.00023	0	-7e-05	0.0001	5e-05	-2e-05	6e-05	9e-05	2
7018	0.00023	0	-7e-05	0.0001	5e-05	-2e-05	6e-05	9e-05	2
7019	0.00023	0	-7e-05	0.0001	5e-05	-2e-05	6e-05	9e-05	2
7020	0.00023	0	-7e-05	0.0001	5e-05	-2e-05	6e-05	9e-05	2
7021	0.00023	0	-7e-05	0.0001	5e-05	-2e-05	6e-05	9e-05	2
7022	0.00023	0	-7e-05	0.0001	5e-05	-2e-05	6e-05	9e-05	2
7023	0.00023	0	-7e-05	0.0001	5e-05	-2e-05	6e-05	9e-05	2
7024	0.00023	0	-7e-05	0.0001	5e-05	-2e-05	6e-05	9e-05	2
7025	3e-05	-3e-05	-9e-05	-0.00037	0.00012	0	8e-05	-1e-05	2
7026	3e-05	-3e-05	-9e-05	-0.00037	0.00012	0	8e-05	-1e-05	2
7027	3e-05	-3e-05	-9e-05	-0.00037	0.00012	0	8e-05	-1e-05	2
7028	3e-05	-3e-05	-9e-05	-0.00037	0.00012	0	8e-05	-1e-05	2
7029	3e-05	-3e-05	-9e-05	-0.00037	0.00012	0	8e-05	-1e-05	2
7030	3e-05	-3e-05	-9e-05	-0.00037	0.00012	0	8e-05	-1e-05	2
7031	3e-05	-3e-05	-9e-05	-0.00037	0.00012	0	8e-05	-1e-05	2
7032	3e-05	-3e-05	-9e-05	-0.00037	0.00012	0	8e-05	-1e-05	2
7033	3e-05	-3e-05	-9e-05	-0.00037	0.00012	0	8e-05	-1e-05	2
7034	-1e-05	3e-05	0.00014	4e-05	-0.00033	-0.00011	0.00013	-9e-05	2
7035	-1e-05	3e-05	0.00014	4e-05	-0.00033	-0.00011	0.00013	-9e-05	2
7036	-1e-05	3e-05	0.00014	4e-05	-0.00033	-0.00011	0.00013	-9e-05	2
7039	-1e-05	3e-05	0.00014	4e-05	-0.00033	-0.00011	0.00013	-9e-05	2
7040	-1e-05	3e-05	0.00014	4e-05	-0.00033	-0.00011	0.00013	-9e-05	2
7041	-1e-05	3e-05	0.00014	4e-05	-0.00033	-0.00011	0.00013	-9e-05	2
7042	-1e-05	3e-05	0.00014	4e-05	-0.00033	-0.00011	0.00013	-9e-05	2
7043	-1e-05	3e-05	0.00014	4e-05	-0.00033	-0.00011	0.00013	-9e-05	2
7044	-1e-05	3e-05	0.00014	4e-05	-0.00033	-0.00011	0.00013	-9e-05	2
7045	-1e-05	3e-05	0.00014	4e-05	-0.00033	-0.00011	0.00013	-9e-05	2
7046	-1e-05	3e-05	0.00014	4e-05	-0.00033	-0.00011	0.00013	-9e-05	2
7047	-1e-05	3e-05	0.00014	4e-05	-0.00033	-0.00011	0.00013	-9e-05	2
7048	-1e-05	3e-05	0.00014	4e-05	-0.00033	-0.00011	0.00013	-9e-05	2
7049	-1e-05	3e-05	0.00014	4e-05	-0.00033	-0.00011	0.00013	-9e-05	2
7050	-1e-05	3e-05	0.00014	4e-05	-0.00033	-0.00011	0.00013	-9e-05	2
7051	-1e-05	3e-05	0.00014	4e-05	-0.00033	-0.00011	0.00013	-9e-05	2
7052	-1e-05	3e-05	0.00014	4e-05	-0.00033	-0.00011	0.00013	-9e-05	2
7053	-1e-05	3e-05	0.00014	4e-05	-0.00033	-0.00011	0.00013	-9e-05	2
7054	-1e-05	3e-05	0.00014	4e-05	-0.00033	-0.00011	0.00013	-9e-05	2
7055	-1e-05	3e-05	0.00014	4e-05	-0.00033	-0.00011	0.00013	-9e-05	2
7056	-2e-05	-1e-05	-1e-05	0.00012	-0.00019	-0.0002	-0.00022	-4e-05	2
7057	-2e-05	-1e-05	-1e-05	0.00012	-0.00019	-0.0002	-0.00022	-4e-05	2
7058	0.00018	-1e-05	-3e-05	-3e-05	3e-05	0	-0.00023	-0.0001	2
7059	0.00018	-1e-05	-3e-05	-3e-05	3e-05	0	-0.00023	-0.0001	2
7060	0.00018	-1e-05	-3e-05	-3e-05	3e-05	0	-0.00023	-0.0001	2
7061	0.00018	-1e-05	-3e-05	-3e-05	3e-05	0	-0.00023	-0.0001	2
7062	0.00018	-1e-05	-3e-05	-3e-05	3e-05	0	-0.00023	-0.0001	2
7063	0.00018	-1e-05	-3e-05	-3e-05	3e-05	0	-0.00023	-0.0001	2
7064	0.00018	-1e-05	-3e-05	-3e-05	3e-05	0	-0.00023	-0.0001	2
7065	0.00018	-1e-05	-3e-05	-3e-05	3e-05	0	-0.00023	-0.0001	2
7066	0.00018	-1e-05	-3e-05	-3e-05	3e-05	0	-0.00023	-0.0001	2
7067	0.00018	-1e-05	-3e-05	-3e-05	3e-05	0	-0.00023	-0.0001	2
7068	0.00018	-1e-05	-3e-05	-3e-05	3e-05	0	-0.00023	-0.0001	2
7069	0.00018	-1e-05	-3e-05	-3e-05	3e-05	0	-0.00023	-0.0001	2
7070	0.00018	-1e-05	-3e-05	-3e-05	3e-05	0	-0.00023	-0.0001	2
7071	0	0	0	-0.00023	-0.00014	2e-05	0.00025	3e-05	2
7072	-6e-05	1e-05	7e-05	0.00025	0.00011	7e-05	-8e-05	-1e-05	2
7073	-8e-05	-3e-05	-2e-05	1e-05	1e-05	-0.0001	-1e-05	-9e-05	2
7074	-8e-05	-3e-05	-2e-05	1e-05	1e-05	-0.0001	-1e-05	-9e-05	2
7075	-8e-05	-3e-05	-2e-05	1e-05	1e-05	-0.0001	-1e-05	-9e-05	2
7076	-8e-05	-3e-05	-2e-05	1e-05	1e-05	-0.0001	-1e-05	-9e-05	2
7077	-8e-05	-3e-05	-2e-05	1e-05	1e-05	-0.0001	-1e-05	-9e-05	2
7078	-8e-05	-3e-05	-2e-05	1e-05	1e-05	-0.0001	-1e-05	-9e-05	2
7079	-8e-05	-3e-05	-2e-05	1e-05	1e-05	-0.0001	-1e-05	-9e-05	2
7080	-8e-05	-3e-05	-2e-05	1e-05	1e-05	-0.0001	-1e-05	-9e-05	2
7081	-8e-05	-3e-05	-2e-05	1e-05	1e-05	-0.0001	-1e-05	-9e-05	2
7082	-8e-05	-3e-05	-2e-05	1e-05	1e-05	-0.0001	-1e-05	-9e-05	2
7083	-8e-05	-3e-05	-2e-05	1e-05	1e-05	-0.0001	-1e-05	-9e-05	2
7084	-8e-05	-3e-05	-2e-05	1e-05	1e-05	-0.0001	-1e-05	-9e-05	2
7085	9e-05	0	4e-05	0.00012	0	-2e-05	-0.00014	-0.00018	2
7087	9e-05	0	4e-05	0.00012	0	-2e-05	-0.00014	-0.00018	2
7089	9e-05	0	4e-05	0.00012	0	-2e-05	-0.00014	-0.00018	2
7090	9e-05	0	4e-05	0.00012	0	-2e-05	-0.00014	-0.00018	2
7091	9e-05	0	4e-05	0.00012	0	-2e-05	-0.00014	-0.00018	2
7092	9e-05	0	4e-05	0.00012	0	-2e-05	-0.00014	-0.00018	2
7093	9e-05	0	4e-05	0.00012	0	-2e-05	-0.00014	-0.00018	2
7094	-8e-05	0	-0.00011	-0.00044	-0.00048	0	6e-05	4e-05	2
7095	-8e-05	0	-0.00011	-0.00044	-0.00048	0	6e-05	4e-05	2
7096	-8e-05	0	-0.00011	-0.00044	-0.00048	0	6e-05	4e-05	2
7097	-8e-05	0	-0.00011	-0.00044	-0.00048	0	6e-05	4e-05	2
7098	-8e-05	0	-0.00011	-0.00044	-0.00048	0	6e-05	4e-05	2
7099	-8e-05	0	-0.00011	-0.00044	-0.00048	0	6e-05	4e-05	2
7100	-8e-05	0	-0.00011	-0.00044	-0.00048	0	6e-05	4e-05	2
7101	-8e-05	0	-0.00011	-0.00044	-0.00048	0	6e-05	4e-05	2
7102	-8e-05	0	-0.00011	-0.00044	-0.00048	0	6e-05	4e-05	2
7103	-8e-05	0	-0.00011	-0.00044	-0.00048	0	6e-05	4e-05	2
7104	-8e-05	0	-0.00011	-0.00044	-0.00048	0	6e-05	4e-05	2
7105	-8e-05	0	-0.00011	-0.00044	-0.00048	0	6e-05	4e-05	2
7106	-8e-05	0	-0.00011	-0.00044	-0.00048	0	6e-05	4e-05	2
7107	-8e-05	0	-0.00011	-0.00044	-0.00048	0	6e-05	4e-05	2
7108	-8e-05	0	-0.00011	-0.00044	-0.00048	0	6e-05	4e-05	2
7109	-0.00015	-2e-05	1e-05	0.0002	-0.00013	0.00033	9e-05	3e-05	2
7110	-0.00017	-2e-05	4e-05	-5e-05	6e-05	-0.00014	-4e-05	-1e-05	2
7111	-0.00017	-2e-05	4e-05	-5e-05	6e-05	-0.00014	-4e-05	-1e-05	2
7112	-0.00017	-2e-05	4e-05	-5e-05	6e-05	-0.00014	-4e-05	-1e-05	2
7113	-0.00017	-2e-05	4e-05	-5e-05	6e-05	-0.00014	-4e-05	-1e-05	2
7114	-0.00017	-2e-05	4e-05	-5e-05	6e-05	-0.00014	-4e-05	-1e-05	2
7115	-0.00017	-2e-05	4e-05	-5e-05	6e-05	-0.00014	-4e-05	-1e-05	2
7116	-0.00017	-2e-05	4e-05	-5e-05	6e-05	-0.00014	-4e-05	-1e-05	2
7117	-0.00017	-2e-05	4e-05	-5e-05	6e-05	-0.00014	-4e-05	-1e-05	2
7118	-0.00017	-2e-05	4e-05	-5e-05	6e-05	-0.00014	-4e-05	-1e-05	2
7119	-0.00017	-2e-05	4e-05	-5e-05	6e-05	-0.00014	-4e-05	-1e-05	2
7120	-0.00017	-2e-05	4e-05	-5e-05	6e-05	-0.00014	-4e-05	-1e-05	2
7121	-0.00017	-2e-05	4e-05	-5e-05	6e-05	-0.00014	-4e-05	-1e-05	2
7122	-0.00017	-2e-05	4e-05	-5e-05	6e-05	-0.00014	-4e-05	-1e-05	2
7123	-0.00017	-2e-05	4e-05	-5e-05	6e-05	-0.00014	-4e-05	-1e-05	2
7124	-0.00017	-2e-05	4e-05	-5e-05	6e-05	-0.00014	-4e-05	-1e-05	2
7125	-0.00017	-2e-05	4e-05	-5e-05	6e-05	-0.00014	-4e-05	-1e-05	2
7126	-0.00017	-2e-05	4e-05	-5e-05	6e-05	-0.00014	-4e-05	-1e-05	2
7127	-0.00017	-2e-05	4e-05	-5e-05	6e-05	-0.00014	-4e-05	-1e-05	2
7128	-0.00017	-2e-05	4e-05	-5e-05	6e-05	-0.00014	-4e-05	-1e-05	2
7129	-0.00017	-2e-05	4e-05	-5e-05	6e-05	-0.00014	-4e-05	-1e-05	2
7130	-0.00017	-2e-05	4e-05	-5e-05	6e-05	-0.00014	-4e-05	-1e-05	2
7131	0	0	-4e-05	0.00035	-0.00011	-8e-05	-0.00012	-3e-05	2
7132	0	0	-4e-05	0.00035	-0.00011	-8e-05	-0.00012	-3e-05	2
7133	8e-05	-1e-05	-2e-05	-4e-05	8e-05	-8e-05	-0.00011	0.00016	2
7134	8e-05	-1e-05	-2e-05	-4e-05	8e-05	-8e-05	-0.00011	0.00016	2
7135	8e-05	-1e-05	-2e-05	-4e-05	8e-05	-8e-05	-0.00011	0.00016	2
7136	8e-05	-1e-05	-2e-05	-4e-05	8e-05	-8e-05	-0.00011	0.00016	2
7139	8e-05	-1e-05	-2e-05	-4e-05	8e-05	-8e-05	-0.00011	0.00016	2
7140	8e-05	-1e-05	-2e-05	-4e-05	8e-05	-8e-05	-0.00011	0.00016	2
7141	8e-05	-1e-05	-2e-05	-4e-05	8e-05	-8e-05	-0.00011	0.00016	2
7142	8e-05	-1e-05	-2e-05	-4e-05	8e-05	-8e-05	-0.00011	0.00016	2
7143	8e-05	-1e-05	-2e-05	-4e-05	8e-05	-8e-05	-0.00011	0.00016	2
7144	8e-05	-1e-05	-2e-05	-4e-05	8e-05	-8e-05	-0.00011	0.00016	2
7145	8e-05	-1e-05	-2e-05	-4e-05	8e-05	-8e-05	-0.00011	0.00016	2
7146	0.00035	4e-05	3e-05	-0.00023	3e-05	0.00027	0.00015	0.00015	2
7147	0.00035	4e-05	3e-05	-0.00023	3e-05	0.00027	0.00015	0.00015	2
7148	0.00035	4e-05	3e-05	-0.00023	3e-05	0.00027	0.00015	0.00015	2
7149	0.00035	4e-05	3e-05	-0.00023	3e-05	0.00027	0.00015	0.00015	2
7150	0.00035	4e-05	3e-05	-0.00023	3e-05	0.00027	0.00015	0.00015	2
7151	0.00035	4e-05	3e-05	-0.00023	3e-05	0.00027	0.00015	0.00015	2
7152	0.00035	4e-05	3e-05	-0.00023	3e-05	0.00027	0.00015	0.00015	2
7153	0.00035	4e-05	3e-05	-0.00023	3e-05	0.00027	0.00015	0.00015	2
7154	5e-05	-2e-05	-1e-05	0.00012	6e-05	-2e-05	0.00042	8e-05	2
7155	5e-05	-2e-05	-1e-05	0.00012	6e-05	-2e-05	0.00042	8e-05	2
7156	5e-05	-2e-05	-1e-05	0.00012	6e-05	-2e-05	0.00042	8e-05	2
7157	5e-05	-2e-05	-1e-05	0.00012	6e-05	-2e-05	0.00042	8e-05	2
7158	5e-05	-2e-05	-1e-05	0.00012	6e-05	-2e-05	0.00042	8e-05	2
7159	5e-05	-2e-05	-1e-05	0.00012	6e-05	-2e-05	0.00042	8e-05	2
7160	5e-05	-2e-05	-1e-05	0.00012	6e-05	-2e-05	0.00042	8e-05	2
7161	5e-05	-2e-05	-1e-05	0.00012	6e-05	-2e-05	0.00042	8e-05	2
7162	5e-05	-2e-05	-1e-05	0.00012	6e-05	-2e-05	0.00042	8e-05	2
7163	5e-05	-2e-05	-1e-05	0.00012	6e-05	-2e-05	0.00042	8e-05	2
7164	5e-05	-2e-05	-1e-05	0.00012	6e-05	-2e-05	0.00042	8e-05	2
7165	5e-05	-2e-05	-1e-05	0.00012	6e-05	-2e-05	0.00042	8e-05	2
7166	5e-05	-2e-05	-1e-05	0.00012	6e-05	-2e-05	0.00042	8e-05	2
7167	5e-05	-2e-05	-1e-05	0.00012	6e-05	-2e-05	0.00042	8e-05	2
7168	5e-05	-2e-05	-1e-05	0.00012	6e-05	-2e-05	0.00042	8e-05	2
7169	5e-05	-2e-05	-1e-05	0.00012	6e-05	-2e-05	0.00042	8e-05	2
7170	5e-05	-2e-05	-1e-05	0.00012	6e-05	-2e-05	0.00042	8e-05	2
7171	5e-05	-2e-05	-1e-05	0.00012	6e-05	-2e-05	0.00042	8e-05	2
7172	5e-05	-2e-05	-1e-05	0.00012	6e-05	-2e-05	0.00042	8e-05	2
7173	5e-05	-2e-05	-1e-05	0.00012	6e-05	-2e-05	0.00042	8e-05	2
7174	5e-05	-2e-05	-1e-05	0.00012	6e-05	-2e-05	0.00042	8e-05	2
7175	5e-05	-2e-05	-1e-05	0.00012	6e-05	-2e-05	0.00042	8e-05	2
7176	-0.00012	-1e-05	1e-05	-5e-05	0.00014	-0.00011	1e-05	1e-05	2
7177	-0.00012	-1e-05	1e-05	-5e-05	0.00014	-0.00011	1e-05	1e-05	2
7178	0.00018	3e-05	3e-05	0.00023	0.00014	0.0001	-0.00022	-1e-05	2
7179	0.00018	3e-05	3e-05	0.00023	0.00014	0.0001	-0.00022	-1e-05	2
7180	0.00018	3e-05	3e-05	0.00023	0.00014	0.0001	-0.00022	-1e-05	2
7181	0.00018	3e-05	3e-05	0.00023	0.00014	0.0001	-0.00022	-1e-05	2
7182	0.00018	3e-05	3e-05	0.00023	0.00014	0.0001	-0.00022	-1e-05	2
7183	0.00018	3e-05	3e-05	0.00023	0.00014	0.0001	-0.00022	-1e-05	2
7184	0.00018	3e-05	3e-05	0.00023	0.00014	0.0001	-0.00022	-1e-05	2
7185	0.00018	3e-05	3e-05	0.00023	0.00014	0.0001	-0.00022	-1e-05	2
7186	0.00018	3e-05	3e-05	0.00023	0.00014	0.0001	-0.00022	-1e-05	2
7189	0.00018	3e-05	3e-05	0.00023	0.00014	0.0001	-0.00022	-1e-05	2
7190	0.00018	3e-05	3e-05	0.00023	0.00014	0.0001	-0.00022	-1e-05	2
7191	0.0001	-4e-05	-0.00011	-0.00025	-0.00011	0.0001	0.0001	-1e-05	2
7192	0.0001	-4e-05	-0.00011	-0.00025	-0.00011	0.0001	0.0001	-1e-05	2
7193	-0.00014	-3e-05	1e-05	0.0001	0.00014	1e-05	5e-05	-0.00015	2
7194	-0.00014	-3e-05	1e-05	0.0001	0.00014	1e-05	5e-05	-0.00015	2
7195	-0.00014	-3e-05	1e-05	0.0001	0.00014	1e-05	5e-05	-0.00015	2
7196	-0.00014	-3e-05	1e-05	0.0001	0.00014	1e-05	5e-05	-0.00015	2
7197	-0.00014	-3e-05	1e-05	0.0001	0.00014	1e-05	5e-05	-0.00015	2
7198	-0.00014	-3e-05	1e-05	0.0001	0.00014	1e-05	5e-05	-0.00015	2
7199	-0.00014	-3e-05	1e-05	0.0001	0.00014	1e-05	5e-05	-0.00015	2
7200	-0.00014	-3e-05	1e-05	0.0001	0.00014	1e-05	5e-05	-0.00015	2
7201	-0.00014	-3e-05	1e-05	0.0001	0.00014	1e-05	5e-05	-0.00015	2
7202	-0.00014	-3e-05	1e-05	0.0001	0.00014	1e-05	5e-05	-0.00015	2
7203	-0.00014	-3e-05	1e-05	0.0001	0.00014	1e-05	5e-05	-0.00015	2
7204	-0.00014	-3e-05	1e-05	0.0001	0.00014	1e-05	5e-05	-0.00015	2
7205	-0.00014	-3e-05	1e-05	0.0001	0.00014	1e-05	5e-05	-0.00015	2
7206	-0.00014	-3e-05	1e-05	0.0001	0.00014	1e-05	5e-05	-0.00015	2
7207	-0.00014	-3e-05	1e-05	0.0001	0.00014	1e-05	5e-05	-0.00015	2
7208	-0.00014	-3e-05	1e-05	0.0001	0.00014	1e-05	5e-05	-0.00015	2
7209	-0.00014	-3e-05	1e-05	0.0001	0.00014	1e-05	5e-05	-0.00015	2
7210	-0.00014	-3e-05	1e-05	0.0001	0.00014	1e-05	5e-05	-0.00015	2
7211	-0.00014	-3e-05	1e-05	0.0001	0.00014	1e-05	5e-05	-0.00015	2
7212	-0.00014	-3e-05	1e-05	0.0001	0.00014	1e-05	5e-05	-0.00015	2
7213	-0.00014	-3e-05	1e-05	0.0001	0.00014	1e-05	5e-05	-0.00015	2
7214	-0.00016	-7e-05	-0.00012	-0.00029	0.00025	-0.00017	-0.00023	-1e-05	2
7215	8e-05	1e-05	6e-05	0.0003	-0.00019	-0.00012	9e-05	-0.00011	2
7216	-2e-05	-3e-05	-4e-05	-9e-05	6e-05	0.00012	-0.00026	9e-05	2
7217	-2e-05	-3e-05	-4e-05	-9e-05	6e-05	0.00012	-0.00026	9e-05	2
7218	-2e-05	-3e-05	-4e-05	-9e-05	6e-05	0.00012	-0.00026	9e-05	2
7219	-2e-05	-3e-05	-4e-05	-9e-05	6e-05	0.00012	-0.00026	9e-05	2
7220	-2e-05	-3e-05	-4e-05	-9e-05	6e-05	0.00012	-0.00026	9e-05	2
7221	-2e-05	-3e-05	-4e-05	-9e-05	6e-05	0.00012	-0.00026	9e-05	2
7222	-2e-05	-3e-05	-4e-05	-9e-05	6e-05	0.00012	-0.00026	9e-05	2
7223	-2e-05	-3e-05	-4e-05	-9e-05	6e-05	0.00012	-0.00026	9e-05	2
7224	-2e-05	-3e-05	-4e-05	-9e-05	6e-05	0.00012	-0.00026	9e-05	2
7225	-2e-05	-3e-05	-4e-05	-9e-05	6e-05	0.00012	-0.00026	9e-05	2
7226	-2e-05	-3e-05	-4e-05	-9e-05	6e-05	0.00012	-0.00026	9e-05	2
7227	-2e-05	-3e-05	-4e-05	-9e-05	6e-05	0.00012	-0.00026	9e-05	2
7228	-2e-05	-3e-05	-4e-05	-9e-05	6e-05	0.00012	-0.00026	9e-05	2
7229	-0.00011	-5e-05	-0.00015	-0.00066	4e-05	-0.00025	-4e-05	-0.00013	2
7230	-4e-05	1e-05	2e-05	0.00016	6e-05	0.00049	0.00025	-9e-05	2
7232	-4e-05	1e-05	2e-05	0.00016	6e-05	0.00049	0.00025	-9e-05	2
7233	-4e-05	1e-05	2e-05	0.00016	6e-05	0.00049	0.00025	-9e-05	2
7234	-4e-05	1e-05	2e-05	0.00016	6e-05	0.00049	0.00025	-9e-05	2
7235	-4e-05	1e-05	2e-05	0.00016	6e-05	0.00049	0.00025	-9e-05	2
7236	-4e-05	1e-05	2e-05	0.00016	6e-05	0.00049	0.00025	-9e-05	2
7239	-4e-05	1e-05	2e-05	0.00016	6e-05	0.00049	0.00025	-9e-05	2
7240	-4e-05	1e-05	2e-05	0.00016	6e-05	0.00049	0.00025	-9e-05	2
7241	-4e-05	1e-05	2e-05	0.00016	6e-05	0.00049	0.00025	-9e-05	2
7242	-4e-05	1e-05	2e-05	0.00016	6e-05	0.00049	0.00025	-9e-05	2
7243	-4e-05	1e-05	2e-05	0.00016	6e-05	0.00049	0.00025	-9e-05	2
7244	-4e-05	1e-05	2e-05	0.00016	6e-05	0.00049	0.00025	-9e-05	2
7245	-4e-05	1e-05	2e-05	0.00016	6e-05	0.00049	0.00025	-9e-05	2
7246	-4e-05	1e-05	2e-05	0.00016	6e-05	0.00049	0.00025	-9e-05	2
7247	-4e-05	1e-05	2e-05	0.00016	6e-05	0.00049	0.00025	-9e-05	2
7248	-4e-05	1e-05	2e-05	0.00016	6e-05	0.00049	0.00025	-9e-05	2
7249	-4e-05	1e-05	2e-05	0.00016	6e-05	0.00049	0.00025	-9e-05	2
7250	-4e-05	1e-05	2e-05	0.00016	6e-05	0.00049	0.00025	-9e-05	2
7251	-0.00012	-2e-05	-2e-05	0.00013	-0.00022	-2e-05	0.00027	3e-05	2
7252	-0.00012	-2e-05	-2e-05	0.00013	-0.00022	-2e-05	0.00027	3e-05	2
7253	-0.00011	-1e-05	0	3e-05	-1e-05	-0.00034	-0.00026	-8e-05	2
7254	-0.00011	-1e-05	0	3e-05	-1e-05	-0.00034	-0.00026	-8e-05	2
7255	-0.00011	-1e-05	0	3e-05	-1e-05	-0.00034	-0.00026	-8e-05	2
7256	-0.00011	-1e-05	0	3e-05	-1e-05	-0.00034	-0.00026	-8e-05	2
7257	-0.00011	-1e-05	0	3e-05	-1e-05	-0.00034	-0.00026	-8e-05	2
7258	-0.00011	-1e-05	0	3e-05	-1e-05	-0.00034	-0.00026	-8e-05	2
7259	-0.00011	-1e-05	0	3e-05	-1e-05	-0.00034	-0.00026	-8e-05	2
7260	-0.00011	-1e-05	0	3e-05	-1e-05	-0.00034	-0.00026	-8e-05	2
7261	-0.00011	-1e-05	0	3e-05	-1e-05	-0.00034	-0.00026	-8e-05	2
7262	-0.00011	-1e-05	0	3e-05	-1e-05	-0.00034	-0.00026	-8e-05	2
7263	-0.00011	-1e-05	0	3e-05	-1e-05	-0.00034	-0.00026	-8e-05	2
7264	-0.00011	-1e-05	0	3e-05	-1e-05	-0.00034	-0.00026	-8e-05	2
7265	0.00012	5e-05	5e-05	0.00016	4e-05	-1e-05	0.00016	7e-05	2
7266	0.00012	5e-05	5e-05	0.00016	4e-05	-1e-05	0.00016	7e-05	2
7267	0.00012	5e-05	5e-05	0.00016	4e-05	-1e-05	0.00016	7e-05	2
7268	0.00012	5e-05	5e-05	0.00016	4e-05	-1e-05	0.00016	7e-05	2
7269	0.00012	5e-05	5e-05	0.00016	4e-05	-1e-05	0.00016	7e-05	2
7270	0.00012	5e-05	5e-05	0.00016	4e-05	-1e-05	0.00016	7e-05	2
7271	0.00012	5e-05	5e-05	0.00016	4e-05	-1e-05	0.00016	7e-05	2
7272	0.00012	5e-05	5e-05	0.00016	4e-05	-1e-05	0.00016	7e-05	2
7273	0.00012	5e-05	5e-05	0.00016	4e-05	-1e-05	0.00016	7e-05	2
7274	0.00021	0	0.0001	0.00031	6e-05	2e-05	-1e-05	-0.00011	2
7275	0.00021	0	0.0001	0.00031	6e-05	2e-05	-1e-05	-0.00011	2
7276	0.00021	0	0.0001	0.00031	6e-05	2e-05	-1e-05	-0.00011	2
7277	0.00021	0	0.0001	0.00031	6e-05	2e-05	-1e-05	-0.00011	2
7278	0.00021	0	0.0001	0.00031	6e-05	2e-05	-1e-05	-0.00011	2
7279	0.00021	0	0.0001	0.00031	6e-05	2e-05	-1e-05	-0.00011	2
7280	0.00021	0	0.0001	0.00031	6e-05	2e-05	-1e-05	-0.00011	2
7281	0.00021	0	0.0001	0.00031	6e-05	2e-05	-1e-05	-0.00011	2
7282	0.00021	0	0.0001	0.00031	6e-05	2e-05	-1e-05	-0.00011	2
7283	0.00021	0	0.0001	0.00031	6e-05	2e-05	-1e-05	-0.00011	2
7284	0.00021	0	0.0001	0.00031	6e-05	2e-05	-1e-05	-0.00011	2
7285	0.00021	0	0.0001	0.00031	6e-05	2e-05	-1e-05	-0.00011	2
7286	0.00021	0	0.0001	0.00031	6e-05	2e-05	-1e-05	-0.00011	2
7289	0.00021	0	0.0001	0.00031	6e-05	2e-05	-1e-05	-0.00011	2
7290	0.00021	0	0.0001	0.00031	6e-05	2e-05	-1e-05	-0.00011	2
7291	0.00021	0	0.0001	0.00031	6e-05	2e-05	-1e-05	-0.00011	2
7292	0.00021	0	0.0001	0.00031	6e-05	2e-05	-1e-05	-0.00011	2
7293	0.00021	0	0.0001	0.00031	6e-05	2e-05	-1e-05	-0.00011	2
7294	0.00021	0	0.0001	0.00031	6e-05	2e-05	-1e-05	-0.00011	2
7295	0.00021	0	0.0001	0.00031	6e-05	2e-05	-1e-05	-0.00011	2
7296	-2e-05	-7e-05	-0.00012	-9e-05	-2e-05	0	0.00016	5e-05	2
7297	-2e-05	1e-05	5e-05	0.00019	-5e-05	-0.00012	7e-05	3e-05	2
7298	-2e-05	1e-05	5e-05	0.00019	-5e-05	-0.00012	7e-05	3e-05	2
7299	-2e-05	1e-05	5e-05	0.00019	-5e-05	-0.00012	7e-05	3e-05	2
7300	-2e-05	1e-05	5e-05	0.00019	-5e-05	-0.00012	7e-05	3e-05	2
7301	-2e-05	1e-05	5e-05	0.00019	-5e-05	-0.00012	7e-05	3e-05	2
7302	-2e-05	1e-05	5e-05	0.00019	-5e-05	-0.00012	7e-05	3e-05	2
7303	-2e-05	1e-05	5e-05	0.00019	-5e-05	-0.00012	7e-05	3e-05	2
7304	-9e-05	0	-1e-05	0.00017	-6e-05	-2e-05	-4e-05	3e-05	2
7305	-9e-05	0	-1e-05	0.00017	-6e-05	-2e-05	-4e-05	3e-05	2
7306	-9e-05	0	-1e-05	0.00017	-6e-05	-2e-05	-4e-05	3e-05	2
7307	-9e-05	0	-1e-05	0.00017	-6e-05	-2e-05	-4e-05	3e-05	2
7308	-9e-05	0	-1e-05	0.00017	-6e-05	-2e-05	-4e-05	3e-05	2
7309	-9e-05	0	-1e-05	0.00017	-6e-05	-2e-05	-4e-05	3e-05	2
7310	-9e-05	0	-1e-05	0.00017	-6e-05	-2e-05	-4e-05	3e-05	2
7311	-7e-05	-2e-05	-3e-05	-0.00011	-0.00026	-0.00011	-0.0001	-2e-05	2
7312	-7e-05	-2e-05	-3e-05	-0.00011	-0.00026	-0.00011	-0.0001	-2e-05	2
7313	-5e-05	1e-05	-1e-05	-0.00058	0.00012	0.0001	-0.00028	-0.0001	2
7314	-5e-05	1e-05	-1e-05	-0.00058	0.00012	0.0001	-0.00028	-0.0001	2
7315	-5e-05	1e-05	-1e-05	-0.00058	0.00012	0.0001	-0.00028	-0.0001	2
7316	-5e-05	1e-05	-1e-05	-0.00058	0.00012	0.0001	-0.00028	-0.0001	2
7317	-5e-05	1e-05	-1e-05	-0.00058	0.00012	0.0001	-0.00028	-0.0001	2
7318	-5e-05	1e-05	-1e-05	-0.00058	0.00012	0.0001	-0.00028	-0.0001	2
7319	-5e-05	1e-05	-1e-05	-0.00058	0.00012	0.0001	-0.00028	-0.0001	2
7320	-5e-05	1e-05	-1e-05	-0.00058	0.00012	0.0001	-0.00028	-0.0001	2
7321	-5e-05	1e-05	-1e-05	-0.00058	0.00012	0.0001	-0.00028	-0.0001	2
7322	-5e-05	1e-05	-1e-05	-0.00058	0.00012	0.0001	-0.00028	-0.0001	2
7323	-5e-05	1e-05	-1e-05	-0.00058	0.00012	0.0001	-0.00028	-0.0001	2
7324	-5e-05	1e-05	-1e-05	-0.00058	0.00012	0.0001	-0.00028	-0.0001	2
7325	-5e-05	1e-05	-1e-05	-0.00058	0.00012	0.0001	-0.00028	-0.0001	2
7326	-5e-05	1e-05	-1e-05	-0.00058	0.00012	0.0001	-0.00028	-0.0001	2
7327	-5e-05	1e-05	-1e-05	-0.00058	0.00012	0.0001	-0.00028	-0.0001	2
7328	-5e-05	1e-05	-1e-05	-0.00058	0.00012	0.0001	-0.00028	-0.0001	2
7329	-5e-05	1e-05	-1e-05	-0.00058	0.00012	0.0001	-0.00028	-0.0001	2
7330	-5e-05	1e-05	-1e-05	-0.00058	0.00012	0.0001	-0.00028	-0.0001	2
7331	-5e-05	1e-05	-1e-05	-0.00058	0.00012	0.0001	-0.00028	-0.0001	2
7332	-5e-05	1e-05	-1e-05	-0.00058	0.00012	0.0001	-0.00028	-0.0001	2
7333	-5e-05	1e-05	-1e-05	-0.00058	0.00012	0.0001	-0.00028	-0.0001	2
7334	-7e-05	-3e-05	1e-05	0	-5e-05	8e-05	-2e-05	-1e-05	2
7335	-0.00012	-1e-05	4e-05	0.00014	-1e-05	-1e-05	-0.0001	5e-05	2
7336	-0.00012	-1e-05	4e-05	0.00014	-1e-05	-1e-05	-0.0001	5e-05	2
7339	-0.00012	-1e-05	4e-05	0.00014	-1e-05	-1e-05	-0.0001	5e-05	2
7340	-0.00012	-1e-05	4e-05	0.00014	-1e-05	-1e-05	-0.0001	5e-05	2
7341	-0.00012	-1e-05	4e-05	0.00014	-1e-05	-1e-05	-0.0001	5e-05	2
7342	-0.00012	-1e-05	4e-05	0.00014	-1e-05	-1e-05	-0.0001	5e-05	2
7343	-0.00012	-1e-05	4e-05	0.00014	-1e-05	-1e-05	-0.0001	5e-05	2
7344	-0.00012	-1e-05	4e-05	0.00014	-1e-05	-1e-05	-0.0001	5e-05	2
7345	-0.00012	-1e-05	4e-05	0.00014	-1e-05	-1e-05	-0.0001	5e-05	2
7346	-0.00012	-1e-05	4e-05	0.00014	-1e-05	-1e-05	-0.0001	5e-05	2
7347	-0.00012	-1e-05	4e-05	0.00014	-1e-05	-1e-05	-0.0001	5e-05	2
7348	-0.00012	-1e-05	4e-05	0.00014	-1e-05	-1e-05	-0.0001	5e-05	2
7349	0.00018	-2e-05	-4e-05	-3e-05	0.0001	-4e-05	-0.0001	-1e-05	2
7350	-2e-05	0	3e-05	0	-9e-05	-0.00016	-0.00028	-0.00011	2
7351	2e-05	0	-5e-05	4e-05	-3e-05	-9e-05	0.00032	7e-05	2
7352	2e-05	0	-5e-05	4e-05	-3e-05	-9e-05	0.00032	7e-05	2
7353	2e-05	0	-5e-05	4e-05	-3e-05	-9e-05	0.00032	7e-05	2
7354	2e-05	0	-5e-05	4e-05	-3e-05	-9e-05	0.00032	7e-05	2
7355	2e-05	0	-5e-05	4e-05	-3e-05	-9e-05	0.00032	7e-05	2
7356	2e-05	0	-5e-05	4e-05	-3e-05	-9e-05	0.00032	7e-05	2
7357	2e-05	0	-5e-05	4e-05	-3e-05	-9e-05	0.00032	7e-05	2
7358	2e-05	0	-5e-05	4e-05	-3e-05	-9e-05	0.00032	7e-05	2
7359	2e-05	0	-5e-05	4e-05	-3e-05	-9e-05	0.00032	7e-05	2
7360	2e-05	0	-5e-05	4e-05	-3e-05	-9e-05	0.00032	7e-05	2
7361	2e-05	0	-5e-05	4e-05	-3e-05	-9e-05	0.00032	7e-05	2
7362	2e-05	0	-5e-05	4e-05	-3e-05	-9e-05	0.00032	7e-05	2
7363	2e-05	0	-5e-05	4e-05	-3e-05	-9e-05	0.00032	7e-05	2
7364	2e-05	0	-5e-05	4e-05	-3e-05	-9e-05	0.00032	7e-05	2
7365	2e-05	0	-5e-05	4e-05	-3e-05	-9e-05	0.00032	7e-05	2
7366	2e-05	0	-5e-05	4e-05	-3e-05	-9e-05	0.00032	7e-05	2
7367	2e-05	0	-5e-05	4e-05	-3e-05	-9e-05	0.00032	7e-05	2
7368	2e-05	0	-5e-05	4e-05	-3e-05	-9e-05	0.00032	7e-05	2
7369	2e-05	0	-5e-05	4e-05	-3e-05	-9e-05	0.00032	7e-05	2
7370	2e-05	0	-5e-05	4e-05	-3e-05	-9e-05	0.00032	7e-05	2
7371	-0.00012	0	3e-05	0.00016	0	0.00014	0.00038	-5e-05	2
7372	-0.00012	0	3e-05	0.00016	0	0.00014	0.00038	-5e-05	2
7373	0.00017	2e-05	0.0001	3e-05	-0.00021	-8e-05	-0.00028	2e-05	2
7374	0.00017	2e-05	0.0001	3e-05	-0.00021	-8e-05	-0.00028	2e-05	2
7375	0.00017	2e-05	0.0001	3e-05	-0.00021	-8e-05	-0.00028	2e-05	2
7376	0.00017	2e-05	0.0001	3e-05	-0.00021	-8e-05	-0.00028	2e-05	2
7377	0.00017	2e-05	0.0001	3e-05	-0.00021	-8e-05	-0.00028	2e-05	2
7378	0.00017	2e-05	0.0001	3e-05	-0.00021	-8e-05	-0.00028	2e-05	2
7379	0.00017	2e-05	0.0001	3e-05	-0.00021	-8e-05	-0.00028	2e-05	2
7380	0.00017	2e-05	0.0001	3e-05	-0.00021	-8e-05	-0.00028	2e-05	2
7381	0.00017	2e-05	0.0001	3e-05	-0.00021	-8e-05	-0.00028	2e-05	2
7382	0.00017	2e-05	0.0001	3e-05	-0.00021	-8e-05	-0.00028	2e-05	2
7383	0.00017	2e-05	0.0001	3e-05	-0.00021	-8e-05	-0.00028	2e-05	2
7384	0.00017	2e-05	0.0001	3e-05	-0.00021	-8e-05	-0.00028	2e-05	2
7385	0.00017	2e-05	0.0001	3e-05	-0.00021	-8e-05	-0.00028	2e-05	2
7386	0.00017	2e-05	0.0001	3e-05	-0.00021	-8e-05	-0.00028	2e-05	2
7388	0.00017	2e-05	0.0001	3e-05	-0.00021	-8e-05	-0.00028	2e-05	2
7389	0.00017	2e-05	0.0001	3e-05	-0.00021	-8e-05	-0.00028	2e-05	2
7390	0.00017	2e-05	0.0001	3e-05	-0.00021	-8e-05	-0.00028	2e-05	2
7391	0.00017	2e-05	0.0001	3e-05	-0.00021	-8e-05	-0.00028	2e-05	2
7392	0.00017	2e-05	0.0001	3e-05	-0.00021	-8e-05	-0.00028	2e-05	2
7393	0.00017	2e-05	0.0001	3e-05	-0.00021	-8e-05	-0.00028	2e-05	2
7394	-6e-05	-2e-05	6e-05	-0.00031	-0.00017	-2e-05	-0.00011	-3e-05	2
7395	-0.00017	-2e-05	-2e-05	0.00017	0.00011	-7e-05	0.00022	-5e-05	2
7396	-0.00017	-2e-05	-2e-05	0.00017	0.00011	-7e-05	0.00022	-5e-05	2
7397	-0.00017	-2e-05	-2e-05	0.00017	0.00011	-7e-05	0.00022	-5e-05	2
7398	-0.00017	-2e-05	-2e-05	0.00017	0.00011	-7e-05	0.00022	-5e-05	2
7399	-0.00017	-2e-05	-2e-05	0.00017	0.00011	-7e-05	0.00022	-5e-05	2
7400	-0.00017	-2e-05	-2e-05	0.00017	0.00011	-7e-05	0.00022	-5e-05	2
7401	-0.00017	-2e-05	-2e-05	0.00017	0.00011	-7e-05	0.00022	-5e-05	2
7402	-0.00017	-2e-05	-2e-05	0.00017	0.00011	-7e-05	0.00022	-5e-05	2
7403	-0.00017	-2e-05	-2e-05	0.00017	0.00011	-7e-05	0.00022	-5e-05	2
7404	-0.00017	-2e-05	-2e-05	0.00017	0.00011	-7e-05	0.00022	-5e-05	2
7405	-0.00017	-2e-05	-2e-05	0.00017	0.00011	-7e-05	0.00022	-5e-05	2
7406	-0.00017	-2e-05	-2e-05	0.00017	0.00011	-7e-05	0.00022	-5e-05	2
7407	-0.00017	-2e-05	-2e-05	0.00017	0.00011	-7e-05	0.00022	-5e-05	2
7408	-0.00017	-2e-05	-2e-05	0.00017	0.00011	-7e-05	0.00022	-5e-05	2
7409	-6e-05	2e-05	1e-05	-0.00015	9e-05	-2e-05	-7e-05	1e-05	2
7410	-0.00018	0	1e-05	0.0001	-0.00015	8e-05	0.00017	-2e-05	2
7411	-0.00018	0	1e-05	0.0001	-0.00015	8e-05	0.00017	-2e-05	2
7412	-0.00018	0	1e-05	0.0001	-0.00015	8e-05	0.00017	-2e-05	2
7413	-0.00018	0	1e-05	0.0001	-0.00015	8e-05	0.00017	-2e-05	2
7414	-0.00018	0	1e-05	0.0001	-0.00015	8e-05	0.00017	-2e-05	2
7415	-0.00018	0	1e-05	0.0001	-0.00015	8e-05	0.00017	-2e-05	2
7416	-0.00018	0	1e-05	0.0001	-0.00015	8e-05	0.00017	-2e-05	2
7417	-0.00018	0	1e-05	0.0001	-0.00015	8e-05	0.00017	-2e-05	2
7418	-0.00018	0	1e-05	0.0001	-0.00015	8e-05	0.00017	-2e-05	2
7419	-0.00018	0	1e-05	0.0001	-0.00015	8e-05	0.00017	-2e-05	2
7420	-0.00018	0	1e-05	0.0001	-0.00015	8e-05	0.00017	-2e-05	2
7421	-0.00018	0	1e-05	0.0001	-0.00015	8e-05	0.00017	-2e-05	2
7422	-0.00018	0	1e-05	0.0001	-0.00015	8e-05	0.00017	-2e-05	2
7423	-0.00018	0	1e-05	0.0001	-0.00015	8e-05	0.00017	-2e-05	2
7424	-0.00018	0	1e-05	0.0001	-0.00015	8e-05	0.00017	-2e-05	2
7425	-0.00018	0	1e-05	0.0001	-0.00015	8e-05	0.00017	-2e-05	2
7426	-0.00018	0	1e-05	0.0001	-0.00015	8e-05	0.00017	-2e-05	2
7427	-0.00018	0	1e-05	0.0001	-0.00015	8e-05	0.00017	-2e-05	2
7428	-0.00018	0	1e-05	0.0001	-0.00015	8e-05	0.00017	-2e-05	2
7429	-0.00018	0	1e-05	0.0001	-0.00015	8e-05	0.00017	-2e-05	2
7430	-0.00018	0	1e-05	0.0001	-0.00015	8e-05	0.00017	-2e-05	2
7431	-0.00011	-3e-05	-4e-05	0.00018	-0.00012	-0.00019	-0.00047	-0.00012	2
7432	-0.00011	-3e-05	-4e-05	0.00018	-0.00012	-0.00019	-0.00047	-0.00012	2
7433	-1e-05	-4e-05	-8e-05	-0.0001	0.00014	-8e-05	-0.00014	-6e-05	2
7434	-1e-05	-4e-05	-8e-05	-0.0001	0.00014	-8e-05	-0.00014	-6e-05	2
7435	-1e-05	-4e-05	-8e-05	-0.0001	0.00014	-8e-05	-0.00014	-6e-05	2
7436	-1e-05	-4e-05	-8e-05	-0.0001	0.00014	-8e-05	-0.00014	-6e-05	2
7438	-1e-05	-4e-05	-8e-05	-0.0001	0.00014	-8e-05	-0.00014	-6e-05	2
7439	-1e-05	-4e-05	-8e-05	-0.0001	0.00014	-8e-05	-0.00014	-6e-05	2
7440	-1e-05	-4e-05	-8e-05	-0.0001	0.00014	-8e-05	-0.00014	-6e-05	2
7441	-1e-05	-4e-05	-8e-05	-0.0001	0.00014	-8e-05	-0.00014	-6e-05	2
7442	-1e-05	-4e-05	-8e-05	-0.0001	0.00014	-8e-05	-0.00014	-6e-05	2
7443	-1e-05	-4e-05	-8e-05	-0.0001	0.00014	-8e-05	-0.00014	-6e-05	2
7444	-1e-05	-4e-05	-8e-05	-0.0001	0.00014	-8e-05	-0.00014	-6e-05	2
7445	-1e-05	-4e-05	-8e-05	-0.0001	0.00014	-8e-05	-0.00014	-6e-05	2
7446	-1e-05	-4e-05	-8e-05	-0.0001	0.00014	-8e-05	-0.00014	-6e-05	2
7447	-1e-05	-4e-05	-8e-05	-0.0001	0.00014	-8e-05	-0.00014	-6e-05	2
7448	-1e-05	-4e-05	-8e-05	-0.0001	0.00014	-8e-05	-0.00014	-6e-05	2
7449	-1e-05	-4e-05	-8e-05	-0.0001	0.00014	-8e-05	-0.00014	-6e-05	2
7450	-1e-05	-4e-05	-8e-05	-0.0001	0.00014	-8e-05	-0.00014	-6e-05	2
7451	-1e-05	-4e-05	-8e-05	-0.0001	0.00014	-8e-05	-0.00014	-6e-05	2
7452	-1e-05	-4e-05	-8e-05	-0.0001	0.00014	-8e-05	-0.00014	-6e-05	2
7453	-1e-05	-4e-05	-8e-05	-0.0001	0.00014	-8e-05	-0.00014	-6e-05	2
7454	-1e-05	-4e-05	-8e-05	-0.0001	0.00014	-8e-05	-0.00014	-6e-05	2
7455	-7e-05	2e-05	0	1e-05	4e-05	-6e-05	-6e-05	3e-05	2
7456	4e-05	-1e-05	-5e-05	0	0.00013	-3e-05	-0.00012	8e-05	2
7457	4e-05	-1e-05	-5e-05	0	0.00013	-3e-05	-0.00012	8e-05	2
7458	4e-05	-1e-05	-5e-05	0	0.00013	-3e-05	-0.00012	8e-05	2
7459	4e-05	-1e-05	-5e-05	0	0.00013	-3e-05	-0.00012	8e-05	2
7460	4e-05	-1e-05	-5e-05	0	0.00013	-3e-05	-0.00012	8e-05	2
7461	4e-05	-1e-05	-5e-05	0	0.00013	-3e-05	-0.00012	8e-05	2
7462	4e-05	-1e-05	-5e-05	0	0.00013	-3e-05	-0.00012	8e-05	2
7463	4e-05	-1e-05	-5e-05	0	0.00013	-3e-05	-0.00012	8e-05	2
7464	4e-05	-1e-05	-5e-05	0	0.00013	-3e-05	-0.00012	8e-05	2
7465	4e-05	-1e-05	-5e-05	0	0.00013	-3e-05	-0.00012	8e-05	2
7466	4e-05	-1e-05	-5e-05	0	0.00013	-3e-05	-0.00012	8e-05	2
7467	4e-05	-1e-05	-5e-05	0	0.00013	-3e-05	-0.00012	8e-05	2
7468	4e-05	-1e-05	-5e-05	0	0.00013	-3e-05	-0.00012	8e-05	2
7469	-1e-05	-3e-05	4e-05	0.00011	4e-05	3e-05	0.00027	-0.00013	2
7470	3e-05	-1e-05	-9e-05	2e-05	-7e-05	9e-05	9e-05	2e-05	2
7471	3e-05	-1e-05	-9e-05	2e-05	-7e-05	9e-05	9e-05	2e-05	2
7472	3e-05	-1e-05	-9e-05	2e-05	-7e-05	9e-05	9e-05	2e-05	2
7473	3e-05	-1e-05	-9e-05	2e-05	-7e-05	9e-05	9e-05	2e-05	2
7474	3e-05	-1e-05	-9e-05	2e-05	-7e-05	9e-05	9e-05	2e-05	2
7475	3e-05	-1e-05	-9e-05	2e-05	-7e-05	9e-05	9e-05	2e-05	2
7476	3e-05	-1e-05	-9e-05	2e-05	-7e-05	9e-05	9e-05	2e-05	2
7477	3e-05	-1e-05	-9e-05	2e-05	-7e-05	9e-05	9e-05	2e-05	2
7478	3e-05	-1e-05	-9e-05	2e-05	-7e-05	9e-05	9e-05	2e-05	2
7479	3e-05	-1e-05	-9e-05	2e-05	-7e-05	9e-05	9e-05	2e-05	2
7480	3e-05	-1e-05	-9e-05	2e-05	-7e-05	9e-05	9e-05	2e-05	2
7481	3e-05	-1e-05	-9e-05	2e-05	-7e-05	9e-05	9e-05	2e-05	2
7482	3e-05	-1e-05	-9e-05	2e-05	-7e-05	9e-05	9e-05	2e-05	2
7483	3e-05	-1e-05	-9e-05	2e-05	-7e-05	9e-05	9e-05	2e-05	2
7484	3e-05	-1e-05	-9e-05	2e-05	-7e-05	9e-05	9e-05	2e-05	2
7485	3e-05	-1e-05	-9e-05	2e-05	-7e-05	9e-05	9e-05	2e-05	2
7486	3e-05	-1e-05	-9e-05	2e-05	-7e-05	9e-05	9e-05	2e-05	2
7488	3e-05	-1e-05	-9e-05	2e-05	-7e-05	9e-05	9e-05	2e-05	2
7489	3e-05	-1e-05	-9e-05	2e-05	-7e-05	9e-05	9e-05	2e-05	2
7490	3e-05	-1e-05	-9e-05	2e-05	-7e-05	9e-05	9e-05	2e-05	2
7491	3e-05	-1e-05	-9e-05	2e-05	-7e-05	9e-05	9e-05	2e-05	2
7492	7e-05	-2e-05	-8e-05	4e-05	-0.0003	-9e-05	-5e-05	-1e-05	2
7493	-8e-05	-2e-05	-3e-05	-0.00027	0.00012	0.00018	0	-0.00015	2
7494	-8e-05	-2e-05	-3e-05	-0.00027	0.00012	0.00018	0	-0.00015	2
7495	-8e-05	-2e-05	-3e-05	-0.00027	0.00012	0.00018	0	-0.00015	2
7496	-8e-05	-2e-05	-3e-05	-0.00027	0.00012	0.00018	0	-0.00015	2
7497	-8e-05	-2e-05	-3e-05	-0.00027	0.00012	0.00018	0	-0.00015	2
7498	-8e-05	-2e-05	-3e-05	-0.00027	0.00012	0.00018	0	-0.00015	2
7499	-8e-05	-2e-05	-3e-05	-0.00027	0.00012	0.00018	0	-0.00015	2
7500	-8e-05	-2e-05	-3e-05	-0.00027	0.00012	0.00018	0	-0.00015	2
7501	-8e-05	-2e-05	-3e-05	-0.00027	0.00012	0.00018	0	-0.00015	2
7502	-8e-05	-2e-05	-3e-05	-0.00027	0.00012	0.00018	0	-0.00015	2
7503	-8e-05	-2e-05	-3e-05	-0.00027	0.00012	0.00018	0	-0.00015	2
7504	-8e-05	-2e-05	-3e-05	-0.00027	0.00012	0.00018	0	-0.00015	2
7505	-8e-05	-2e-05	-3e-05	-0.00027	0.00012	0.00018	0	-0.00015	2
7506	-8e-05	-2e-05	-3e-05	-0.00027	0.00012	0.00018	0	-0.00015	2
7507	-8e-05	-2e-05	-3e-05	-0.00027	0.00012	0.00018	0	-0.00015	2
7508	-8e-05	-2e-05	-3e-05	-0.00027	0.00012	0.00018	0	-0.00015	2
7509	-8e-05	-2e-05	-3e-05	-0.00027	0.00012	0.00018	0	-0.00015	2
7510	-8e-05	-2e-05	-3e-05	-0.00027	0.00012	0.00018	0	-0.00015	2
7511	-8e-05	-2e-05	-3e-05	-0.00027	0.00012	0.00018	0	-0.00015	2
7512	-8e-05	-2e-05	-3e-05	-0.00027	0.00012	0.00018	0	-0.00015	2
7513	-8e-05	-2e-05	-3e-05	-0.00027	0.00012	0.00018	0	-0.00015	2
7514	0	0	5e-05	5e-05	0.00015	2e-05	-7e-05	4e-05	2
7515	9e-05	-3e-05	-0.00013	-0.00013	-8e-05	-2e-05	0.0003	0.00012	2
7516	9e-05	-3e-05	-0.00013	-0.00013	-8e-05	-2e-05	0.0003	0.00012	2
7517	9e-05	-3e-05	-0.00013	-0.00013	-8e-05	-2e-05	0.0003	0.00012	2
7518	9e-05	-3e-05	-0.00013	-0.00013	-8e-05	-2e-05	0.0003	0.00012	2
7519	9e-05	-3e-05	-0.00013	-0.00013	-8e-05	-2e-05	0.0003	0.00012	2
7520	9e-05	-3e-05	-0.00013	-0.00013	-8e-05	-2e-05	0.0003	0.00012	2
7521	9e-05	-3e-05	-0.00013	-0.00013	-8e-05	-2e-05	0.0003	0.00012	2
7522	9e-05	-3e-05	-0.00013	-0.00013	-8e-05	-2e-05	0.0003	0.00012	2
7523	9e-05	-3e-05	-0.00013	-0.00013	-8e-05	-2e-05	0.0003	0.00012	2
7524	9e-05	-3e-05	-0.00013	-0.00013	-8e-05	-2e-05	0.0003	0.00012	2
7525	9e-05	-3e-05	-0.00013	-0.00013	-8e-05	-2e-05	0.0003	0.00012	2
7526	9e-05	-3e-05	-0.00013	-0.00013	-8e-05	-2e-05	0.0003	0.00012	2
7527	9e-05	-3e-05	-0.00013	-0.00013	-8e-05	-2e-05	0.0003	0.00012	2
7528	-1e-05	3e-05	1e-05	7e-05	0.00013	-5e-05	-6e-05	4e-05	2
7529	-1e-05	3e-05	1e-05	7e-05	0.00013	-5e-05	-6e-05	4e-05	2
7530	-1e-05	3e-05	1e-05	7e-05	0.00013	-5e-05	-6e-05	4e-05	2
7531	-1e-05	3e-05	1e-05	7e-05	0.00013	-5e-05	-6e-05	4e-05	2
7532	-1e-05	3e-05	1e-05	7e-05	0.00013	-5e-05	-6e-05	4e-05	2
7533	-1e-05	3e-05	1e-05	7e-05	0.00013	-5e-05	-6e-05	4e-05	2
7534	-1e-05	3e-05	1e-05	7e-05	0.00013	-5e-05	-6e-05	4e-05	2
7535	3e-05	3e-05	-4e-05	-0.00026	-1e-05	-8e-05	9e-05	6e-05	2
7536	3e-05	3e-05	-4e-05	-0.00026	-1e-05	-8e-05	9e-05	6e-05	2
7538	3e-05	3e-05	-4e-05	-0.00026	-1e-05	-8e-05	9e-05	6e-05	2
7539	3e-05	3e-05	-4e-05	-0.00026	-1e-05	-8e-05	9e-05	6e-05	2
7540	3e-05	3e-05	-4e-05	-0.00026	-1e-05	-8e-05	9e-05	6e-05	2
7541	3e-05	3e-05	-4e-05	-0.00026	-1e-05	-8e-05	9e-05	6e-05	2
7542	3e-05	3e-05	-4e-05	-0.00026	-1e-05	-8e-05	9e-05	6e-05	2
7543	3e-05	3e-05	-4e-05	-0.00026	-1e-05	-8e-05	9e-05	6e-05	2
7544	3e-05	3e-05	-4e-05	-0.00026	-1e-05	-8e-05	9e-05	6e-05	2
7545	3e-05	3e-05	-4e-05	-0.00026	-1e-05	-8e-05	9e-05	6e-05	2
7546	3e-05	3e-05	-4e-05	-0.00026	-1e-05	-8e-05	9e-05	6e-05	2
7547	3e-05	3e-05	-4e-05	-0.00026	-1e-05	-8e-05	9e-05	6e-05	2
7548	3e-05	3e-05	-4e-05	-0.00026	-1e-05	-8e-05	9e-05	6e-05	2
7549	3e-05	3e-05	-4e-05	-0.00026	-1e-05	-8e-05	9e-05	6e-05	2
7550	3e-05	3e-05	-4e-05	-0.00026	-1e-05	-8e-05	9e-05	6e-05	2
7551	2e-05	-3e-05	0	-0.0001	-9e-05	4e-05	1e-05	6e-05	2
7552	2e-05	-3e-05	0	-0.0001	-9e-05	4e-05	1e-05	6e-05	2
7553	1e-05	-2e-05	4e-05	0.00038	8e-05	-0.00015	-0.00031	0	2
7554	1e-05	-2e-05	4e-05	0.00038	8e-05	-0.00015	-0.00031	0	2
7555	1e-05	-2e-05	4e-05	0.00038	8e-05	-0.00015	-0.00031	0	2
7556	1e-05	-2e-05	4e-05	0.00038	8e-05	-0.00015	-0.00031	0	2
7557	1e-05	-2e-05	4e-05	0.00038	8e-05	-0.00015	-0.00031	0	2
7558	1e-05	-2e-05	4e-05	0.00038	8e-05	-0.00015	-0.00031	0	2
7559	1e-05	-2e-05	4e-05	0.00038	8e-05	-0.00015	-0.00031	0	2
7560	1e-05	-2e-05	4e-05	0.00038	8e-05	-0.00015	-0.00031	0	2
7561	1e-05	-2e-05	4e-05	0.00038	8e-05	-0.00015	-0.00031	0	2
7562	1e-05	-2e-05	4e-05	0.00038	8e-05	-0.00015	-0.00031	0	2
7563	1e-05	-2e-05	4e-05	0.00038	8e-05	-0.00015	-0.00031	0	2
7564	1e-05	-2e-05	4e-05	0.00038	8e-05	-0.00015	-0.00031	0	2
7565	1e-05	-2e-05	4e-05	0.00038	8e-05	-0.00015	-0.00031	0	2
7566	1e-05	-2e-05	4e-05	0.00038	8e-05	-0.00015	-0.00031	0	2
7567	1e-05	-2e-05	4e-05	0.00038	8e-05	-0.00015	-0.00031	0	2
7568	1e-05	-2e-05	4e-05	0.00038	8e-05	-0.00015	-0.00031	0	2
7569	1e-05	-2e-05	4e-05	0.00038	8e-05	-0.00015	-0.00031	0	2
7570	1e-05	-2e-05	4e-05	0.00038	8e-05	-0.00015	-0.00031	0	2
7571	1e-05	-2e-05	4e-05	0.00038	8e-05	-0.00015	-0.00031	0	2
7572	1e-05	-2e-05	4e-05	0.00038	8e-05	-0.00015	-0.00031	0	2
7573	1e-05	-2e-05	4e-05	0.00038	8e-05	-0.00015	-0.00031	0	2
7574	1e-05	-2e-05	4e-05	0.00038	8e-05	-0.00015	-0.00031	0	2
7575	1e-05	-2e-05	4e-05	0.00038	8e-05	-0.00015	-0.00031	0	2
7576	1e-05	-2e-05	4e-05	0.00038	8e-05	-0.00015	-0.00031	0	2
7577	1e-05	-2e-05	4e-05	0.00038	8e-05	-0.00015	-0.00031	0	2
7578	1e-05	-2e-05	4e-05	0.00038	8e-05	-0.00015	-0.00031	0	2
7579	1e-05	-2e-05	4e-05	0.00038	8e-05	-0.00015	-0.00031	0	2
7580	1e-05	-2e-05	4e-05	0.00038	8e-05	-0.00015	-0.00031	0	2
7581	5e-05	-1e-05	-5e-05	0.00012	9e-05	9e-05	-8e-05	-0.0001	2
7582	5e-05	-1e-05	-5e-05	0.00012	9e-05	9e-05	-8e-05	-0.0001	2
7583	0	2e-05	2e-05	-8e-05	1e-05	0.00014	8e-05	3e-05	2
7584	0	2e-05	2e-05	-8e-05	1e-05	0.00014	8e-05	3e-05	2
7585	0	2e-05	2e-05	-8e-05	1e-05	0.00014	8e-05	3e-05	2
7586	0	2e-05	2e-05	-8e-05	1e-05	0.00014	8e-05	3e-05	2
7588	1e-05	-6e-05	-6e-05	1e-05	-0.0001	-4e-05	0.0001	0	2
7590	9e-05	9e-05	0.00013	-0.00013	4e-05	0.00024	0.0001	7e-05	2
7591	9e-05	9e-05	0.00013	-0.00013	4e-05	0.00024	0.0001	7e-05	2
7592	9e-05	9e-05	0.00013	-0.00013	4e-05	0.00024	0.0001	7e-05	2
7593	9e-05	9e-05	0.00013	-0.00013	4e-05	0.00024	0.0001	7e-05	2
7594	9e-05	9e-05	0.00013	-0.00013	4e-05	0.00024	0.0001	7e-05	2
7595	2e-05	-5e-05	9e-05	-0.0002	-7e-05	-9e-05	0.0001	2e-05	2
7596	2e-05	-5e-05	9e-05	-0.0002	-7e-05	-9e-05	0.0001	2e-05	2
7597	2e-05	-5e-05	9e-05	-0.0002	-7e-05	-9e-05	0.0001	2e-05	2
7598	2e-05	-5e-05	9e-05	-0.0002	-7e-05	-9e-05	0.0001	2e-05	2
7599	2e-05	-5e-05	9e-05	-0.0002	-7e-05	-9e-05	0.0001	2e-05	2
7600	2e-05	-5e-05	9e-05	-0.0002	-7e-05	-9e-05	0.0001	2e-05	2
7601	2e-05	-5e-05	9e-05	-0.0002	-7e-05	-9e-05	0.0001	2e-05	2
7602	2e-05	-5e-05	9e-05	-0.0002	-7e-05	-9e-05	0.0001	2e-05	2
7603	2e-05	-5e-05	9e-05	-0.0002	-7e-05	-9e-05	0.0001	2e-05	2
7604	2e-05	-5e-05	9e-05	-0.0002	-7e-05	-9e-05	0.0001	2e-05	2
7605	2e-05	-5e-05	9e-05	-0.0002	-7e-05	-9e-05	0.0001	2e-05	2
7606	2e-05	-5e-05	9e-05	-0.0002	-7e-05	-9e-05	0.0001	2e-05	2
7607	2e-05	-5e-05	9e-05	-0.0002	-7e-05	-9e-05	0.0001	2e-05	2
7608	2e-05	-5e-05	9e-05	-0.0002	-7e-05	-9e-05	0.0001	2e-05	2
7609	2e-05	-5e-05	9e-05	-0.0002	-7e-05	-9e-05	0.0001	2e-05	2
7610	2e-05	-5e-05	9e-05	-0.0002	-7e-05	-9e-05	0.0001	2e-05	2
7611	-6e-05	-4e-05	-5e-05	5e-05	2e-05	-2e-05	-2e-05	-5e-05	2
7612	-6e-05	-4e-05	-5e-05	5e-05	2e-05	-2e-05	-2e-05	-5e-05	2
7613	-8e-05	3e-05	4e-05	0.00011	0.00011	-1e-05	0.00019	-5e-05	2
7614	-8e-05	3e-05	4e-05	0.00011	0.00011	-1e-05	0.00019	-5e-05	2
7615	-8e-05	3e-05	4e-05	0.00011	0.00011	-1e-05	0.00019	-5e-05	2
7616	-8e-05	3e-05	4e-05	0.00011	0.00011	-1e-05	0.00019	-5e-05	2
7617	-8e-05	3e-05	4e-05	0.00011	0.00011	-1e-05	0.00019	-5e-05	2
7618	-8e-05	3e-05	4e-05	0.00011	0.00011	-1e-05	0.00019	-5e-05	2
7619	-8e-05	3e-05	4e-05	0.00011	0.00011	-1e-05	0.00019	-5e-05	2
7620	-8e-05	3e-05	4e-05	0.00011	0.00011	-1e-05	0.00019	-5e-05	2
7621	-8e-05	3e-05	4e-05	0.00011	0.00011	-1e-05	0.00019	-5e-05	2
7622	-8e-05	3e-05	4e-05	0.00011	0.00011	-1e-05	0.00019	-5e-05	2
7623	-8e-05	3e-05	4e-05	0.00011	0.00011	-1e-05	0.00019	-5e-05	2
7624	-8e-05	3e-05	4e-05	0.00011	0.00011	-1e-05	0.00019	-5e-05	2
7625	-8e-05	3e-05	4e-05	0.00011	0.00011	-1e-05	0.00019	-5e-05	2
7626	-8e-05	3e-05	4e-05	0.00011	0.00011	-1e-05	0.00019	-5e-05	2
7627	-8e-05	3e-05	4e-05	0.00011	0.00011	-1e-05	0.00019	-5e-05	2
7628	-8e-05	3e-05	4e-05	0.00011	0.00011	-1e-05	0.00019	-5e-05	2
7629	-8e-05	3e-05	4e-05	0.00011	0.00011	-1e-05	0.00019	-5e-05	2
7630	-8e-05	3e-05	4e-05	0.00011	0.00011	-1e-05	0.00019	-5e-05	2
7631	-8e-05	3e-05	4e-05	0.00011	0.00011	-1e-05	0.00019	-5e-05	2
7632	-8e-05	3e-05	4e-05	0.00011	0.00011	-1e-05	0.00019	-5e-05	2
7633	-8e-05	3e-05	4e-05	0.00011	0.00011	-1e-05	0.00019	-5e-05	2
7634	-0.0001	-9e-05	-0.00011	5e-05	-0.00022	-0.00021	-0.00044	-0.00015	2
7635	4e-05	-4e-05	-8e-05	-2e-05	6e-05	-0.00019	-0.00018	-4e-05	2
7636	4e-05	-4e-05	-8e-05	-2e-05	6e-05	-0.00019	-0.00018	-4e-05	2
7638	4e-05	-4e-05	-8e-05	-2e-05	6e-05	-0.00019	-0.00018	-4e-05	2
7639	4e-05	-4e-05	-8e-05	-2e-05	6e-05	-0.00019	-0.00018	-4e-05	2
7640	4e-05	-4e-05	-8e-05	-2e-05	6e-05	-0.00019	-0.00018	-4e-05	2
7641	4e-05	-4e-05	-8e-05	-2e-05	6e-05	-0.00019	-0.00018	-4e-05	2
7642	4e-05	-4e-05	-8e-05	-2e-05	6e-05	-0.00019	-0.00018	-4e-05	2
7643	4e-05	-4e-05	-8e-05	-2e-05	6e-05	-0.00019	-0.00018	-4e-05	2
7644	4e-05	-4e-05	-8e-05	-2e-05	6e-05	-0.00019	-0.00018	-4e-05	2
7645	4e-05	-4e-05	-8e-05	-2e-05	6e-05	-0.00019	-0.00018	-4e-05	2
7646	4e-05	-4e-05	-8e-05	-2e-05	6e-05	-0.00019	-0.00018	-4e-05	2
7647	4e-05	-4e-05	-8e-05	-2e-05	6e-05	-0.00019	-0.00018	-4e-05	2
7648	0.00014	5e-05	5e-05	4e-05	-0.00013	-2e-05	4e-05	9e-05	2
7649	0.00014	5e-05	5e-05	4e-05	-0.00013	-2e-05	4e-05	9e-05	2
7650	0.00014	5e-05	5e-05	4e-05	-0.00013	-2e-05	4e-05	9e-05	2
7651	0.00014	5e-05	5e-05	4e-05	-0.00013	-2e-05	4e-05	9e-05	2
7652	0.00014	5e-05	5e-05	4e-05	-0.00013	-2e-05	4e-05	9e-05	2
7653	0.00014	5e-05	5e-05	4e-05	-0.00013	-2e-05	4e-05	9e-05	2
7654	0.00014	5e-05	5e-05	4e-05	-0.00013	-2e-05	4e-05	9e-05	2
7655	-2e-05	-2e-05	-5e-05	7e-05	-0.0003	4e-05	7e-05	2e-05	2
7656	-2e-05	-2e-05	-5e-05	7e-05	-0.0003	4e-05	7e-05	2e-05	2
7657	-2e-05	-2e-05	-5e-05	7e-05	-0.0003	4e-05	7e-05	2e-05	2
7658	-2e-05	-2e-05	-5e-05	7e-05	-0.0003	4e-05	7e-05	2e-05	2
7659	-2e-05	-2e-05	-5e-05	7e-05	-0.0003	4e-05	7e-05	2e-05	2
7660	-2e-05	-2e-05	-5e-05	7e-05	-0.0003	4e-05	7e-05	2e-05	2
7661	-2e-05	-2e-05	-5e-05	7e-05	-0.0003	4e-05	7e-05	2e-05	2
7662	-2e-05	-2e-05	-5e-05	7e-05	-0.0003	4e-05	7e-05	2e-05	2
7663	-2e-05	-2e-05	-5e-05	7e-05	-0.0003	4e-05	7e-05	2e-05	2
7664	-2e-05	-2e-05	-5e-05	7e-05	-0.0003	4e-05	7e-05	2e-05	2
7665	-2e-05	-2e-05	-5e-05	7e-05	-0.0003	4e-05	7e-05	2e-05	2
7666	-2e-05	-2e-05	-5e-05	7e-05	-0.0003	4e-05	7e-05	2e-05	2
7667	-2e-05	-2e-05	-5e-05	7e-05	-0.0003	4e-05	7e-05	2e-05	2
7668	-2e-05	-2e-05	-5e-05	7e-05	-0.0003	4e-05	7e-05	2e-05	2
7669	-2e-05	-2e-05	-5e-05	7e-05	-0.0003	4e-05	7e-05	2e-05	2
7670	-2e-05	-2e-05	-5e-05	7e-05	-0.0003	4e-05	7e-05	2e-05	2
7671	-2e-05	-2e-05	-5e-05	7e-05	-0.0003	4e-05	7e-05	2e-05	2
7672	-0.00017	-4e-05	-2e-05	1e-05	0.00018	8e-05	8e-05	-7e-05	2
7673	0	-1e-05	-0.0001	-0.00019	0.00012	-6e-05	-0.00014	-0.0001	2
7674	0	-1e-05	-0.0001	-0.00019	0.00012	-6e-05	-0.00014	-0.0001	2
7675	0	-1e-05	-0.0001	-0.00019	0.00012	-6e-05	-0.00014	-0.0001	2
7676	0	-1e-05	-0.0001	-0.00019	0.00012	-6e-05	-0.00014	-0.0001	2
7677	0	-1e-05	-0.0001	-0.00019	0.00012	-6e-05	-0.00014	-0.0001	2
7678	0	-1e-05	-0.0001	-0.00019	0.00012	-6e-05	-0.00014	-0.0001	2
7679	0	-1e-05	-0.0001	-0.00019	0.00012	-6e-05	-0.00014	-0.0001	2
7680	0	-1e-05	-0.0001	-0.00019	0.00012	-6e-05	-0.00014	-0.0001	2
7681	0	-1e-05	-0.0001	-0.00019	0.00012	-6e-05	-0.00014	-0.0001	2
7682	0	-1e-05	-0.0001	-0.00019	0.00012	-6e-05	-0.00014	-0.0001	2
7683	0	-1e-05	-0.0001	-0.00019	0.00012	-6e-05	-0.00014	-0.0001	2
7684	0	-1e-05	-0.0001	-0.00019	0.00012	-6e-05	-0.00014	-0.0001	2
7685	0	-1e-05	-0.0001	-0.00019	0.00012	-6e-05	-0.00014	-0.0001	2
7686	0	-1e-05	-0.0001	-0.00019	0.00012	-6e-05	-0.00014	-0.0001	2
7688	0	-1e-05	-0.0001	-0.00019	0.00012	-6e-05	-0.00014	-0.0001	2
7690	0	-1e-05	-0.0001	-0.00019	0.00012	-6e-05	-0.00014	-0.0001	2
7691	0	-1e-05	-0.0001	-0.00019	0.00012	-6e-05	-0.00014	-0.0001	2
7692	0	-1e-05	-0.0001	-0.00019	0.00012	-6e-05	-0.00014	-0.0001	2
39806	-0.00011	3e-05	0	-0.00016	0.00026	7e-05	0.00013	-0.00017	2
39807	-0.00011	3e-05	0	-0.00016	0.00026	7e-05	0.00013	-0.00017	2
39808	-0.00011	3e-05	0	-0.00016	0.00026	7e-05	0.00013	-0.00017	2
39809	-0.00011	3e-05	0	-0.00016	0.00026	7e-05	0.00013	-0.00017	2
39810	-0.00042	-9e-05	0	9e-05	0	8e-05	-9e-05	-0.00015	2
39811	0.00051	3e-05	-0.00012	5e-05	0.00018	-0.00013	0.00019	0.00027	2
39812	0.00051	3e-05	-0.00012	5e-05	0.00018	-0.00013	0.00019	0.00027	2
39813	0.00051	3e-05	-0.00012	5e-05	0.00018	-0.00013	0.00019	0.00027	2
39814	0.00051	3e-05	-0.00012	5e-05	0.00018	-0.00013	0.00019	0.00027	2
39815	0.00051	3e-05	-0.00012	5e-05	0.00018	-0.00013	0.00019	0.00027	2
39816	0.00051	3e-05	-0.00012	5e-05	0.00018	-0.00013	0.00019	0.00027	2
39817	-0.00015	6e-05	0.00014	0.0001	7e-05	0.00021	0.00031	-0.00013	2
39818	-7e-05	-3e-05	-8e-05	-0.00023	-0.00025	0.00018	-0.00012	-5e-05	2
39819	-0.00038	-2e-05	3e-05	0.00073	-0.00044	-0.00062	-0.00017	2e-05	2
39820	-0.00038	-2e-05	3e-05	0.00073	-0.00044	-0.00062	-0.00017	2e-05	2
39821	-0.00038	-2e-05	3e-05	0.00073	-0.00044	-0.00062	-0.00017	2e-05	2
39822	-0.00038	-2e-05	3e-05	0.00073	-0.00044	-0.00062	-0.00017	2e-05	2
39823	-0.00038	-2e-05	3e-05	0.00073	-0.00044	-0.00062	-0.00017	2e-05	2
39824	-0.00038	-2e-05	3e-05	0.00073	-0.00044	-0.00062	-0.00017	2e-05	2
39825	-0.00038	-2e-05	3e-05	0.00073	-0.00044	-0.00062	-0.00017	2e-05	2
39826	-0.00038	-2e-05	3e-05	0.00073	-0.00044	-0.00062	-0.00017	2e-05	2
39827	-0.00038	-2e-05	3e-05	0.00073	-0.00044	-0.00062	-0.00017	2e-05	2
39828	-0.00038	-2e-05	3e-05	0.00073	-0.00044	-0.00062	-0.00017	2e-05	2
39829	-0.00038	-2e-05	3e-05	0.00073	-0.00044	-0.00062	-0.00017	2e-05	2
39830	-0.00038	-2e-05	3e-05	0.00073	-0.00044	-0.00062	-0.00017	2e-05	2
39831	-0.00038	-2e-05	3e-05	0.00073	-0.00044	-0.00062	-0.00017	2e-05	2
39832	-0.00038	-2e-05	3e-05	0.00073	-0.00044	-0.00062	-0.00017	2e-05	2
39833	-0.00038	-2e-05	3e-05	0.00073	-0.00044	-0.00062	-0.00017	2e-05	2
39834	-0.00038	-2e-05	3e-05	0.00073	-0.00044	-0.00062	-0.00017	2e-05	2
39835	-0.00038	-2e-05	3e-05	0.00073	-0.00044	-0.00062	-0.00017	2e-05	2
39836	-0.00038	-2e-05	3e-05	0.00073	-0.00044	-0.00062	-0.00017	2e-05	2
39839	-0.0001	0	1e-05	-2e-05	-6e-05	2e-05	-0.00022	-3e-05	2
39840	-0.0001	0	1e-05	-2e-05	-6e-05	2e-05	-0.00022	-3e-05	2
39841	-0.0001	0	1e-05	-2e-05	-6e-05	2e-05	-0.00022	-3e-05	2
39842	-0.0001	0	1e-05	-2e-05	-6e-05	2e-05	-0.00022	-3e-05	2
39843	-0.0001	0	1e-05	-2e-05	-6e-05	2e-05	-0.00022	-3e-05	2
39844	-0.0001	0	1e-05	-2e-05	-6e-05	2e-05	-0.00022	-3e-05	2
39845	-0.0001	0	1e-05	-2e-05	-6e-05	2e-05	-0.00022	-3e-05	2
39846	-0.0001	0	1e-05	-2e-05	-6e-05	2e-05	-0.00022	-3e-05	2
39847	0.00015	-4e-05	-0.00012	-0.00026	-8e-05	0.00043	0.00031	1e-05	2
39848	0.00015	-4e-05	-0.00012	-0.00026	-8e-05	0.00043	0.00031	1e-05	2
39849	0.00015	-4e-05	-0.00012	-0.00026	-8e-05	0.00043	0.00031	1e-05	2
39850	0.00015	-4e-05	-0.00012	-0.00026	-8e-05	0.00043	0.00031	1e-05	2
39851	0.00015	-4e-05	-0.00012	-0.00026	-8e-05	0.00043	0.00031	1e-05	2
39852	0.00015	-4e-05	-0.00012	-0.00026	-8e-05	0.00043	0.00031	1e-05	2
39853	0.00015	-4e-05	-0.00012	-0.00026	-8e-05	0.00043	0.00031	1e-05	2
39854	-3e-05	-1e-05	-1e-05	0.00012	0.00024	0.00022	3e-05	-8e-05	2
39855	-3e-05	-1e-05	-1e-05	0.00012	0.00024	0.00022	3e-05	-8e-05	2
39856	-3e-05	-1e-05	-1e-05	0.00012	0.00024	0.00022	3e-05	-8e-05	2
39857	-3e-05	-1e-05	-1e-05	0.00012	0.00024	0.00022	3e-05	-8e-05	2
39858	-3e-05	-1e-05	-1e-05	0.00012	0.00024	0.00022	3e-05	-8e-05	2
39859	-3e-05	-1e-05	-1e-05	0.00012	0.00024	0.00022	3e-05	-8e-05	2
39860	-3e-05	-1e-05	-1e-05	0.00012	0.00024	0.00022	3e-05	-8e-05	2
39861	-0.00018	-4e-05	9e-05	-0.00022	-0.00018	1e-05	0.00015	5e-05	2
39862	-0.00018	-4e-05	9e-05	-0.00022	-0.00018	1e-05	0.00015	5e-05	2
39863	-0.00018	-4e-05	9e-05	-0.00022	-0.00018	1e-05	0.00015	5e-05	2
39864	-0.00018	-4e-05	9e-05	-0.00022	-0.00018	1e-05	0.00015	5e-05	2
39865	-0.00018	-4e-05	9e-05	-0.00022	-0.00018	1e-05	0.00015	5e-05	2
39866	-0.00018	-4e-05	9e-05	-0.00022	-0.00018	1e-05	0.00015	5e-05	2
39867	-0.00018	-4e-05	9e-05	-0.00022	-0.00018	1e-05	0.00015	5e-05	2
39868	-0.00018	-4e-05	9e-05	-0.00022	-0.00018	1e-05	0.00015	5e-05	2
39869	-0.00018	-4e-05	9e-05	-0.00022	-0.00018	1e-05	0.00015	5e-05	2
39870	-0.00018	-4e-05	9e-05	-0.00022	-0.00018	1e-05	0.00015	5e-05	2
39871	-0.00018	-4e-05	9e-05	-0.00022	-0.00018	1e-05	0.00015	5e-05	2
39872	-0.00018	-4e-05	9e-05	-0.00022	-0.00018	1e-05	0.00015	5e-05	2
39873	-0.00018	-4e-05	9e-05	-0.00022	-0.00018	1e-05	0.00015	5e-05	2
39874	-0.00018	-4e-05	9e-05	-0.00022	-0.00018	1e-05	0.00015	5e-05	2
39875	-0.00018	-4e-05	9e-05	-0.00022	-0.00018	1e-05	0.00015	5e-05	2
39876	-0.00018	-4e-05	9e-05	-0.00022	-0.00018	1e-05	0.00015	5e-05	2
39877	-0.00018	-4e-05	9e-05	-0.00022	-0.00018	1e-05	0.00015	5e-05	2
39878	-0.00018	-4e-05	9e-05	-0.00022	-0.00018	1e-05	0.00015	5e-05	2
39879	-0.00018	-4e-05	9e-05	-0.00022	-0.00018	1e-05	0.00015	5e-05	2
39880	-0.00018	-4e-05	9e-05	-0.00022	-0.00018	1e-05	0.00015	5e-05	2
39881	-0.00018	-4e-05	9e-05	-0.00022	-0.00018	1e-05	0.00015	5e-05	2
39882	-0.00018	-4e-05	9e-05	-0.00022	-0.00018	1e-05	0.00015	5e-05	2
39883	-0.00018	-4e-05	9e-05	-0.00022	-0.00018	1e-05	0.00015	5e-05	2
39884	-0.00018	-4e-05	9e-05	-0.00022	-0.00018	1e-05	0.00015	5e-05	2
39886	-0.00018	-4e-05	9e-05	-0.00022	-0.00018	1e-05	0.00015	5e-05	2
39887	-0.00015	-5e-05	2e-05	0.00024	-0.00021	-0.0002	-0.00012	-0.00021	2
39888	-0.00023	-5e-05	-4e-05	-0.00012	0.00023	0.00042	0.00017	-0.0001	2
39889	-0.00023	-5e-05	-4e-05	-0.00012	0.00023	0.00042	0.00017	-0.0001	2
39890	-0.00023	-5e-05	-4e-05	-0.00012	0.00023	0.00042	0.00017	-0.0001	2
39891	-0.00023	-5e-05	-4e-05	-0.00012	0.00023	0.00042	0.00017	-0.0001	2
39892	-0.00023	-5e-05	-4e-05	-0.00012	0.00023	0.00042	0.00017	-0.0001	2
39893	-0.00023	-5e-05	-4e-05	-0.00012	0.00023	0.00042	0.00017	-0.0001	2
39894	-0.00023	-5e-05	-4e-05	-0.00012	0.00023	0.00042	0.00017	-0.0001	2
39895	-0.00023	-5e-05	-4e-05	-0.00012	0.00023	0.00042	0.00017	-0.0001	2
39896	-0.00023	-5e-05	-4e-05	-0.00012	0.00023	0.00042	0.00017	-0.0001	2
39897	-0.00023	-5e-05	-4e-05	-0.00012	0.00023	0.00042	0.00017	-0.0001	2
39898	-0.00023	-5e-05	-4e-05	-0.00012	0.00023	0.00042	0.00017	-0.0001	2
39899	-0.00023	-5e-05	-4e-05	-0.00012	0.00023	0.00042	0.00017	-0.0001	2
39900	-0.00023	0	0.00018	0.00089	-0.00025	-0.00012	0.00022	4e-05	2
39901	-0.00017	-9e-05	-0.00023	-0.00063	-0.00029	-0.00052	0.00011	-0.00019	2
39902	-0.00017	-9e-05	-0.00023	-0.00063	-0.00029	-0.00052	0.00011	-0.00019	2
39903	-0.00017	-9e-05	-0.00023	-0.00063	-0.00029	-0.00052	0.00011	-0.00019	2
39904	-0.00017	-9e-05	-0.00023	-0.00063	-0.00029	-0.00052	0.00011	-0.00019	2
39905	-0.00017	-9e-05	-0.00023	-0.00063	-0.00029	-0.00052	0.00011	-0.00019	2
39906	-0.00017	-9e-05	-0.00023	-0.00063	-0.00029	-0.00052	0.00011	-0.00019	2
39907	-0.00017	-9e-05	-0.00023	-0.00063	-0.00029	-0.00052	0.00011	-0.00019	2
39908	-0.00017	-9e-05	-0.00023	-0.00063	-0.00029	-0.00052	0.00011	-0.00019	2
39909	-0.00017	-9e-05	-0.00023	-0.00063	-0.00029	-0.00052	0.00011	-0.00019	2
39910	-0.00017	-9e-05	-0.00023	-0.00063	-0.00029	-0.00052	0.00011	-0.00019	2
39911	-0.00017	-9e-05	-0.00023	-0.00063	-0.00029	-0.00052	0.00011	-0.00019	2
39912	-0.00017	-9e-05	-0.00023	-0.00063	-0.00029	-0.00052	0.00011	-0.00019	2
39913	-0.00017	-9e-05	-0.00023	-0.00063	-0.00029	-0.00052	0.00011	-0.00019	2
39914	-0.00017	-9e-05	-0.00023	-0.00063	-0.00029	-0.00052	0.00011	-0.00019	2
39915	-0.00017	-9e-05	-0.00023	-0.00063	-0.00029	-0.00052	0.00011	-0.00019	2
39916	-0.00017	-9e-05	-0.00023	-0.00063	-0.00029	-0.00052	0.00011	-0.00019	2
39917	-0.00017	-9e-05	-0.00023	-0.00063	-0.00029	-0.00052	0.00011	-0.00019	2
39918	-0.00017	-9e-05	-0.00023	-0.00063	-0.00029	-0.00052	0.00011	-0.00019	2
39919	-0.00017	-9e-05	-0.00023	-0.00063	-0.00029	-0.00052	0.00011	-0.00019	2
39920	-0.00017	-9e-05	-0.00023	-0.00063	-0.00029	-0.00052	0.00011	-0.00019	2
39921	-0.00017	-9e-05	-0.00023	-0.00063	-0.00029	-0.00052	0.00011	-0.00019	2
39922	-0.00017	-9e-05	-0.00023	-0.00063	-0.00029	-0.00052	0.00011	-0.00019	2
39923	-4e-05	0	-2e-05	-0.00053	-6e-05	8e-05	0.00015	-0.0001	2
39924	-4e-05	0	-2e-05	-0.00053	-6e-05	8e-05	0.00015	-0.0001	2
39925	-0.00013	-9e-05	-9e-05	-0.00027	-0.00034	-0.00029	-0.00028	-0.0002	2
39926	-0.00013	-9e-05	-9e-05	-0.00027	-0.00034	-0.00029	-0.00028	-0.0002	2
39927	-0.00013	-9e-05	-9e-05	-0.00027	-0.00034	-0.00029	-0.00028	-0.0002	2
39928	-0.00013	-9e-05	-9e-05	-0.00027	-0.00034	-0.00029	-0.00028	-0.0002	2
39929	-0.00013	-9e-05	-9e-05	-0.00027	-0.00034	-0.00029	-0.00028	-0.0002	2
39930	-0.00013	-9e-05	-9e-05	-0.00027	-0.00034	-0.00029	-0.00028	-0.0002	2
39931	-0.00013	-9e-05	-9e-05	-0.00027	-0.00034	-0.00029	-0.00028	-0.0002	2
39932	-0.00013	-9e-05	-9e-05	-0.00027	-0.00034	-0.00029	-0.00028	-0.0002	2
39933	-0.00013	-9e-05	-9e-05	-0.00027	-0.00034	-0.00029	-0.00028	-0.0002	2
39934	-0.00013	-9e-05	-9e-05	-0.00027	-0.00034	-0.00029	-0.00028	-0.0002	2
39935	-0.00013	-9e-05	-9e-05	-0.00027	-0.00034	-0.00029	-0.00028	-0.0002	2
39936	-0.00013	-9e-05	-9e-05	-0.00027	-0.00034	-0.00029	-0.00028	-0.0002	2
39939	-4e-05	6e-05	8e-05	0.00013	0.00026	0.00039	0.0001	6e-05	2
39940	-4e-05	6e-05	8e-05	0.00013	0.00026	0.00039	0.0001	6e-05	2
39941	-4e-05	6e-05	8e-05	0.00013	0.00026	0.00039	0.0001	6e-05	2
39942	-4e-05	6e-05	8e-05	0.00013	0.00026	0.00039	0.0001	6e-05	2
39943	-4e-05	6e-05	8e-05	0.00013	0.00026	0.00039	0.0001	6e-05	2
39944	-4e-05	6e-05	8e-05	0.00013	0.00026	0.00039	0.0001	6e-05	2
39945	-4e-05	6e-05	8e-05	0.00013	0.00026	0.00039	0.0001	6e-05	2
39946	-4e-05	6e-05	8e-05	0.00013	0.00026	0.00039	0.0001	6e-05	2
39947	-4e-05	6e-05	8e-05	0.00013	0.00026	0.00039	0.0001	6e-05	2
39948	-4e-05	6e-05	8e-05	0.00013	0.00026	0.00039	0.0001	6e-05	2
39949	-4e-05	6e-05	8e-05	0.00013	0.00026	0.00039	0.0001	6e-05	2
39950	-4e-05	6e-05	8e-05	0.00013	0.00026	0.00039	0.0001	6e-05	2
39951	-4e-05	6e-05	8e-05	0.00013	0.00026	0.00039	0.0001	6e-05	2
39952	-4e-05	6e-05	8e-05	0.00013	0.00026	0.00039	0.0001	6e-05	2
39953	-4e-05	6e-05	8e-05	0.00013	0.00026	0.00039	0.0001	6e-05	2
39954	-4e-05	6e-05	8e-05	0.00013	0.00026	0.00039	0.0001	6e-05	2
39955	-4e-05	6e-05	8e-05	0.00013	0.00026	0.00039	0.0001	6e-05	2
39956	-4e-05	6e-05	8e-05	0.00013	0.00026	0.00039	0.0001	6e-05	2
39957	-4e-05	6e-05	8e-05	0.00013	0.00026	0.00039	0.0001	6e-05	2
39958	-4e-05	6e-05	8e-05	0.00013	0.00026	0.00039	0.0001	6e-05	2
39959	-4e-05	6e-05	8e-05	0.00013	0.00026	0.00039	0.0001	6e-05	2
39960	-4e-05	6e-05	8e-05	0.00013	0.00026	0.00039	0.0001	6e-05	2
39961	-4e-05	6e-05	8e-05	0.00013	0.00026	0.00039	0.0001	6e-05	2
39962	-4e-05	6e-05	8e-05	0.00013	0.00026	0.00039	0.0001	6e-05	2
39963	-4e-05	6e-05	8e-05	0.00013	0.00026	0.00039	0.0001	6e-05	2
39964	-4e-05	6e-05	8e-05	0.00013	0.00026	0.00039	0.0001	6e-05	2
39965	-4e-05	6e-05	8e-05	0.00013	0.00026	0.00039	0.0001	6e-05	2
39966	-4e-05	6e-05	8e-05	0.00013	0.00026	0.00039	0.0001	6e-05	2
39967	0	-3e-05	4e-05	0.0002	0.00041	-9e-05	-0.00051	2e-05	2
39968	0	-3e-05	4e-05	0.0002	0.00041	-9e-05	-0.00051	2e-05	2
39969	5e-05	0	0.00013	-2e-05	0.00011	0.00015	-9e-05	9e-05	2
39970	5e-05	0	0.00013	-2e-05	0.00011	0.00015	-9e-05	9e-05	2
39971	5e-05	0	0.00013	-2e-05	0.00011	0.00015	-9e-05	9e-05	2
39972	5e-05	0	0.00013	-2e-05	0.00011	0.00015	-9e-05	9e-05	2
39973	5e-05	0	0.00013	-2e-05	0.00011	0.00015	-9e-05	9e-05	2
39974	-1e-05	-8e-05	-0.00013	-0.0002	-0.00076	-0.00079	-0.00029	-8e-05	2
39975	-0.00012	-1e-05	6e-05	0.00022	0.00024	-0.00035	0.00067	3e-05	2
39976	-0.00012	-1e-05	6e-05	0.00022	0.00024	-0.00035	0.00067	3e-05	2
39977	-0.00012	-1e-05	6e-05	0.00022	0.00024	-0.00035	0.00067	3e-05	2
39978	-0.00012	-1e-05	6e-05	0.00022	0.00024	-0.00035	0.00067	3e-05	2
39979	-0.00012	-1e-05	6e-05	0.00022	0.00024	-0.00035	0.00067	3e-05	2
39980	-0.00012	-1e-05	6e-05	0.00022	0.00024	-0.00035	0.00067	3e-05	2
39981	9e-05	2e-05	1e-05	-0.0001	-0.00025	-0.00013	-0.00022	-4e-05	2
39982	9e-05	2e-05	1e-05	-0.0001	-0.00025	-0.00013	-0.00022	-4e-05	2
39983	9e-05	2e-05	1e-05	-0.0001	-0.00025	-0.00013	-0.00022	-4e-05	2
39984	9e-05	2e-05	1e-05	-0.0001	-0.00025	-0.00013	-0.00022	-4e-05	2
39985	9e-05	2e-05	1e-05	-0.0001	-0.00025	-0.00013	-0.00022	-4e-05	2
39987	9e-05	2e-05	1e-05	-0.0001	-0.00025	-0.00013	-0.00022	-4e-05	2
39990	9e-05	2e-05	1e-05	-0.0001	-0.00025	-0.00013	-0.00022	-4e-05	2
39991	9e-05	2e-05	1e-05	-0.0001	-0.00025	-0.00013	-0.00022	-4e-05	2
39992	9e-05	2e-05	1e-05	-0.0001	-0.00025	-0.00013	-0.00022	-4e-05	2
39993	9e-05	2e-05	1e-05	-0.0001	-0.00025	-0.00013	-0.00022	-4e-05	2
39994	9e-05	2e-05	1e-05	-0.0001	-0.00025	-0.00013	-0.00022	-4e-05	2
39995	9e-05	2e-05	1e-05	-0.0001	-0.00025	-0.00013	-0.00022	-4e-05	2
39996	9e-05	2e-05	1e-05	-0.0001	-0.00025	-0.00013	-0.00022	-4e-05	2
39997	9e-05	2e-05	1e-05	-0.0001	-0.00025	-0.00013	-0.00022	-4e-05	2
39998	-4e-05	-6e-05	-0.0001	0.00015	-2e-05	0.00029	-0.00027	1e-05	2
39999	-4e-05	-6e-05	-0.0001	0.00015	-2e-05	0.00029	-0.00027	1e-05	2
40000	-4e-05	-6e-05	-0.0001	0.00015	-2e-05	0.00029	-0.00027	1e-05	2
40001	-4e-05	-6e-05	-0.0001	0.00015	-2e-05	0.00029	-0.00027	1e-05	2
