18814	-0.00015	-0.00018	-0.00018	0.00012	0.0004	-0.00093	-0.00034	-0.00018	4
18815	-0.00015	-0.00018	-0.00018	0.00012	0.0004	-0.00093	-0.00034	-0.00018	4
18816	-0.00015	-0.00018	-0.00018	0.00012	0.0004	-0.00093	-0.00034	-0.00018	4
18817	-0.00015	-0.00018	-0.00018	0.00012	0.0004	-0.00093	-0.00034	-0.00018	4
18818	-0.00015	-0.00018	-0.00018	0.00012	0.0004	-0.00093	-0.00034	-0.00018	4
18819	-0.00015	-0.00018	-0.00018	0.00012	0.0004	-0.00093	-0.00034	-0.00018	4
18820	-0.00015	-0.00018	-0.00018	0.00012	0.0004	-0.00093	-0.00034	-0.00018	4
18821	-0.00015	-0.00018	-0.00018	0.00012	0.0004	-0.00093	-0.00034	-0.00018	4
18822	-0.00015	-0.00018	-0.00018	0.00012	0.0004	-0.00093	-0.00034	-0.00018	4
18823	-0.00015	-0.00018	-0.00018	0.00012	0.0004	-0.00093	-0.00034	-0.00018	4
18824	-0.00015	-0.00018	-0.00018	0.00012	0.0004	-0.00093	-0.00034	-0.00018	4
18825	-0.00015	-0.00018	-0.00018	0.00012	0.0004	-0.00093	-0.00034	-0.00018	4
18826	-0.00015	-0.00018	-0.00018	0.00012	0.0004	-0.00093	-0.00034	-0.00018	4
18827	-0.00015	-0.00018	-0.00018	0.00012	0.0004	-0.00093	-0.00034	-0.00018	4
18828	-0.00015	-0.00018	-0.00018	0.00012	0.0004	-0.00093	-0.00034	-0.00018	4
18829	-0.00015	-0.00018	-0.00018	0.00012	0.0004	-0.00093	-0.00034	-0.00018	4
18830	-0.00015	-0.00018	-0.00018	0.00012	0.0004	-0.00093	-0.00034	-0.00018	4
18831	-0.00015	-0.00018	-0.00018	0.00012	0.0004	-0.00093	-0.00034	-0.00018	4
18832	5e-05	0.0001	0.00014	0	-4e-05	0.00029	0.00012	7e-05	4
18833	5e-05	0.0001	0.00014	0	-4e-05	0.00029	0.00012	7e-05	4
18834	-2e-05	-8e-05	-1e-05	-0.00011	-0.00023	-0.00012	-0.0001	-8e-05	4
18835	-2e-05	-8e-05	-1e-05	-0.00011	-0.00023	-0.00012	-0.0001	-8e-05	4
18836	-2e-05	-8e-05	-1e-05	-0.00011	-0.00023	-0.00012	-0.0001	-8e-05	4
18838	3e-05	6e-05	-6e-05	8e-05	0.00011	-6e-05	-0.0001	0	4
18840	-0.00014	-0.00015	-0.00017	-0.00013	0.00035	-0.00028	-0.00028	-0.00015	4
18841	-0.0001	-8e-05	-0.0001	1e-05	-0.00067	2e-05	-0.00017	-0.0001	4
18842	-0.0001	-8e-05	-0.0001	1e-05	-0.00067	2e-05	-0.00017	-0.0001	4
18843	-0.0001	-8e-05	-0.0001	1e-05	-0.00067	2e-05	-0.00017	-0.0001	4
18844	-0.0001	-8e-05	-0.0001	1e-05	-0.00067	2e-05	-0.00017	-0.0001	4
18845	-0.0001	-8e-05	-0.0001	1e-05	-0.00067	2e-05	-0.00017	-0.0001	4
18846	-0.0001	-8e-05	-0.0001	1e-05	-0.00067	2e-05	-0.00017	-0.0001	4
18847	-0.0001	-8e-05	-0.0001	1e-05	-0.00067	2e-05	-0.00017	-0.0001	4
18848	-0.0001	-8e-05	-0.0001	1e-05	-0.00067	2e-05	-0.00017	-0.0001	4
18849	-0.0001	-8e-05	-0.0001	1e-05	-0.00067	2e-05	-0.00017	-0.0001	4
18850	-0.0001	-8e-05	-0.0001	1e-05	-0.00067	2e-05	-0.00017	-0.0001	4
18851	-0.0001	-8e-05	-0.0001	1e-05	-0.00067	2e-05	-0.00017	-0.0001	4
18852	-0.0001	-8e-05	-0.0001	1e-05	-0.00067	2e-05	-0.00017	-0.0001	4
18853	-0.0001	-8e-05	-0.0001	1e-05	-0.00067	2e-05	-0.00017	-0.0001	4
18854	-0.0001	-8e-05	-0.0001	1e-05	-0.00067	2e-05	-0.00017	-0.0001	4
18855	-0.0001	-8e-05	-0.0001	1e-05	-0.00067	2e-05	-0.00017	-0.0001	4
18856	-0.0001	-8e-05	-0.0001	1e-05	-0.00067	2e-05	-0.00017	-0.0001	4
18857	-0.0001	-8e-05	-0.0001	1e-05	-0.00067	2e-05	-0.00017	-0.0001	4
18858	-0.0001	-8e-05	-0.0001	1e-05	-0.00067	2e-05	-0.00017	-0.0001	4
18859	-0.0001	-8e-05	-0.0001	1e-05	-0.00067	2e-05	-0.00017	-0.0001	4
18860	-0.0001	-8e-05	-0.0001	1e-05	-0.00067	2e-05	-0.00017	-0.0001	4
18861	-0.0001	-8e-05	-0.0001	1e-05	-0.00067	2e-05	-0.00017	-0.0001	4
18862	-0.0001	-8e-05	-0.0001	1e-05	-0.00067	2e-05	-0.00017	-0.0001	4
18863	-4e-05	-8e-05	-0.00015	-0.00043	-0.0006	0.00029	-1e-05	-3e-05	4
18864	4e-05	5e-05	8e-05	0.00013	-0.00068	3e-05	0.00012	5e-05	4
18865	4e-05	5e-05	8e-05	0.00013	-0.00068	3e-05	0.00012	5e-05	4
18866	4e-05	5e-05	8e-05	0.00013	-0.00068	3e-05	0.00012	5e-05	4
18867	4e-05	5e-05	8e-05	0.00013	-0.00068	3e-05	0.00012	5e-05	4
18868	4e-05	5e-05	8e-05	0.00013	-0.00068	3e-05	0.00012	5e-05	4
18869	4e-05	5e-05	8e-05	0.00013	-0.00068	3e-05	0.00012	5e-05	4
18870	4e-05	5e-05	8e-05	0.00013	-0.00068	3e-05	0.00012	5e-05	4
18871	4e-05	5e-05	8e-05	0.00013	-0.00068	3e-05	0.00012	5e-05	4
18872	4e-05	5e-05	8e-05	0.00013	-0.00068	3e-05	0.00012	5e-05	4
18873	4e-05	5e-05	8e-05	0.00013	-0.00068	3e-05	0.00012	5e-05	4
18874	4e-05	5e-05	8e-05	0.00013	-0.00068	3e-05	0.00012	5e-05	4
18875	4e-05	5e-05	8e-05	0.00013	-0.00068	3e-05	0.00012	5e-05	4
18876	4e-05	5e-05	8e-05	0.00013	-0.00068	3e-05	0.00012	5e-05	4
18877	4e-05	5e-05	8e-05	0.00013	-0.00068	3e-05	0.00012	5e-05	4
18878	4e-05	5e-05	8e-05	0.00013	-0.00068	3e-05	0.00012	5e-05	4
18879	4e-05	5e-05	8e-05	0.00013	-0.00068	3e-05	0.00012	5e-05	4
18880	4e-05	5e-05	8e-05	0.00013	-0.00068	3e-05	0.00012	5e-05	4
18881	4e-05	5e-05	8e-05	0.00013	-0.00068	3e-05	0.00012	5e-05	4
18882	4e-05	5e-05	8e-05	0.00013	-0.00068	3e-05	0.00012	5e-05	4
18883	4e-05	5e-05	8e-05	0.00013	-0.00068	3e-05	0.00012	5e-05	4
18884	4e-05	5e-05	8e-05	0.00013	-0.00068	3e-05	0.00012	5e-05	4
18885	2e-05	3e-05	-8e-05	-0.00013	-0.0004	-1e-05	1e-05	0	4
18887	3e-05	8e-05	9e-05	7e-05	0.00063	0.00035	0.00012	5e-05	4
18889	3e-05	8e-05	9e-05	7e-05	0.00063	0.00035	0.00012	5e-05	4
18890	3e-05	8e-05	9e-05	7e-05	0.00063	0.00035	0.00012	5e-05	4
18891	3e-05	8e-05	9e-05	7e-05	0.00063	0.00035	0.00012	5e-05	4
18892	3e-05	8e-05	9e-05	7e-05	0.00063	0.00035	0.00012	5e-05	4
18893	3e-05	8e-05	9e-05	7e-05	0.00063	0.00035	0.00012	5e-05	4
18894	3e-05	8e-05	9e-05	7e-05	0.00063	0.00035	0.00012	5e-05	4
18895	3e-05	8e-05	9e-05	7e-05	0.00063	0.00035	0.00012	5e-05	4
18896	3e-05	8e-05	9e-05	7e-05	0.00063	0.00035	0.00012	5e-05	4
18897	3e-05	8e-05	9e-05	7e-05	0.00063	0.00035	0.00012	5e-05	4
18898	3e-05	8e-05	9e-05	7e-05	0.00063	0.00035	0.00012	5e-05	4
18899	7e-05	5e-05	6e-05	3e-05	0.0004	0.00061	9e-05	0.00011	4
18900	7e-05	5e-05	6e-05	3e-05	0.0004	0.00061	9e-05	0.00011	4
18901	7e-05	5e-05	6e-05	3e-05	0.0004	0.00061	9e-05	0.00011	4
18902	7e-05	5e-05	6e-05	3e-05	0.0004	0.00061	9e-05	0.00011	4
18903	7e-05	5e-05	6e-05	3e-05	0.0004	0.00061	9e-05	0.00011	4
18904	7e-05	5e-05	6e-05	3e-05	0.0004	0.00061	9e-05	0.00011	4
18905	-6e-05	-0.00012	-0.00014	-0.00029	-0.00085	-0.00067	-0.0001	-8e-05	4
18906	-3e-05	-4e-05	-5e-05	-8e-05	-0.00037	-0.00049	-0.00011	-3e-05	4
18907	-3e-05	-4e-05	-5e-05	-8e-05	-0.00037	-0.00049	-0.00011	-3e-05	4
18908	-3e-05	-4e-05	-5e-05	-8e-05	-0.00037	-0.00049	-0.00011	-3e-05	4
18909	-3e-05	-4e-05	-5e-05	-8e-05	-0.00037	-0.00049	-0.00011	-3e-05	4
18910	-3e-05	-4e-05	-5e-05	-8e-05	-0.00037	-0.00049	-0.00011	-3e-05	4
18911	-3e-05	-4e-05	-5e-05	-8e-05	-0.00037	-0.00049	-0.00011	-3e-05	4
18912	-3e-05	-4e-05	-5e-05	-8e-05	-0.00037	-0.00049	-0.00011	-3e-05	4
18913	-3e-05	-4e-05	-5e-05	-8e-05	-0.00037	-0.00049	-0.00011	-3e-05	4
18914	-3e-05	-4e-05	-5e-05	-8e-05	-0.00037	-0.00049	-0.00011	-3e-05	4
18915	-3e-05	-4e-05	-5e-05	-8e-05	-0.00037	-0.00049	-0.00011	-3e-05	4
18916	-3e-05	-4e-05	-5e-05	-8e-05	-0.00037	-0.00049	-0.00011	-3e-05	4
18917	-3e-05	-4e-05	-5e-05	-8e-05	-0.00037	-0.00049	-0.00011	-3e-05	4
18918	-3e-05	-4e-05	-5e-05	-8e-05	-0.00037	-0.00049	-0.00011	-3e-05	4
18919	-3e-05	-4e-05	-5e-05	-8e-05	-0.00037	-0.00049	-0.00011	-3e-05	4
18920	-3e-05	-4e-05	-5e-05	-8e-05	-0.00037	-0.00049	-0.00011	-3e-05	4
18921	-3e-05	-4e-05	-5e-05	-8e-05	-0.00037	-0.00049	-0.00011	-3e-05	4
18922	-4e-05	-1e-05	1e-05	3e-05	-0.00045	-0.00103	-0.00026	-0.0001	4
18923	-4e-05	-1e-05	1e-05	3e-05	-0.00045	-0.00103	-0.00026	-0.0001	4
18924	-3e-05	-1e-05	2e-05	-0.00038	-0.00017	-0.00028	-0.00015	-6e-05	4
18925	-3e-05	-1e-05	2e-05	-0.00038	-0.00017	-0.00028	-0.00015	-6e-05	4
18926	-3e-05	-1e-05	2e-05	-0.00038	-0.00017	-0.00028	-0.00015	-6e-05	4
18927	-3e-05	-1e-05	2e-05	-0.00038	-0.00017	-0.00028	-0.00015	-6e-05	4
18928	-3e-05	-1e-05	2e-05	-0.00038	-0.00017	-0.00028	-0.00015	-6e-05	4
18929	-3e-05	-1e-05	2e-05	-0.00038	-0.00017	-0.00028	-0.00015	-6e-05	4
18930	-3e-05	-1e-05	2e-05	-0.00038	-0.00017	-0.00028	-0.00015	-6e-05	4
18931	-3e-05	-1e-05	2e-05	-0.00038	-0.00017	-0.00028	-0.00015	-6e-05	4
18932	-3e-05	-1e-05	2e-05	-0.00038	-0.00017	-0.00028	-0.00015	-6e-05	4
18933	-3e-05	-1e-05	2e-05	-0.00038	-0.00017	-0.00028	-0.00015	-6e-05	4
18934	-3e-05	-1e-05	2e-05	-0.00038	-0.00017	-0.00028	-0.00015	-6e-05	4
18935	-3e-05	-1e-05	2e-05	-0.00038	-0.00017	-0.00028	-0.00015	-6e-05	4
18936	-3e-05	-1e-05	2e-05	-0.00038	-0.00017	-0.00028	-0.00015	-6e-05	4
18938	-3e-05	-1e-05	2e-05	-0.00038	-0.00017	-0.00028	-0.00015	-6e-05	4
18939	-3e-05	-1e-05	2e-05	-0.00038	-0.00017	-0.00028	-0.00015	-6e-05	4
18940	-3e-05	-1e-05	2e-05	-0.00038	-0.00017	-0.00028	-0.00015	-6e-05	4
18941	-3e-05	-1e-05	2e-05	-0.00038	-0.00017	-0.00028	-0.00015	-6e-05	4
18942	-3e-05	-1e-05	2e-05	-0.00038	-0.00017	-0.00028	-0.00015	-6e-05	4
18943	-3e-05	-1e-05	2e-05	-0.00038	-0.00017	-0.00028	-0.00015	-6e-05	4
18944	-3e-05	-1e-05	2e-05	-0.00038	-0.00017	-0.00028	-0.00015	-6e-05	4
18945	-3e-05	-1e-05	2e-05	-0.00038	-0.00017	-0.00028	-0.00015	-6e-05	4
18946	-3e-05	-1e-05	2e-05	-0.00038	-0.00017	-0.00028	-0.00015	-6e-05	4
18947	-3e-05	-1e-05	2e-05	-0.00038	-0.00017	-0.00028	-0.00015	-6e-05	4
18948	-3e-05	-1e-05	2e-05	-0.00038	-0.00017	-0.00028	-0.00015	-6e-05	4
18949	-3e-05	-1e-05	2e-05	-0.00038	-0.00017	-0.00028	-0.00015	-6e-05	4
18950	-3e-05	-1e-05	2e-05	-0.00038	-0.00017	-0.00028	-0.00015	-6e-05	4
18951	-3e-05	-1e-05	2e-05	-0.00038	-0.00017	-0.00028	-0.00015	-6e-05	4
18952	-2e-05	-5e-05	-1e-05	0.00029	0.00058	-0.00021	8e-05	0	4
18953	-2e-05	-5e-05	-1e-05	0.00029	0.00058	-0.00021	8e-05	0	4
18954	-3e-05	-1e-05	8e-05	0.00039	8e-05	-0.00031	0.00014	2e-05	4
18955	-3e-05	-1e-05	8e-05	0.00039	8e-05	-0.00031	0.00014	2e-05	4
18956	-3e-05	-1e-05	8e-05	0.00039	8e-05	-0.00031	0.00014	2e-05	4
18957	-3e-05	-1e-05	8e-05	0.00039	8e-05	-0.00031	0.00014	2e-05	4
18958	-3e-05	-1e-05	8e-05	0.00039	8e-05	-0.00031	0.00014	2e-05	4
18959	0	1e-05	0	-0.00017	-0.0005	-0.00023	0	2e-05	4
18960	0	1e-05	0	-0.00017	-0.0005	-0.00023	0	2e-05	4
18961	0	1e-05	0	-0.00017	-0.0005	-0.00023	0	2e-05	4
18962	0	1e-05	0	-0.00017	-0.0005	-0.00023	0	2e-05	4
18963	0	1e-05	0	-0.00017	-0.0005	-0.00023	0	2e-05	4
18964	0	1e-05	0	-0.00017	-0.0005	-0.00023	0	2e-05	4
18965	0	1e-05	0	-0.00017	-0.0005	-0.00023	0	2e-05	4
18966	8e-05	7e-05	8e-05	9e-05	2e-05	0.00045	0.0002	0.0001	4
18967	8e-05	7e-05	8e-05	9e-05	2e-05	0.00045	0.0002	0.0001	4
18968	8e-05	7e-05	8e-05	9e-05	2e-05	0.00045	0.0002	0.0001	4
18969	8e-05	7e-05	8e-05	9e-05	2e-05	0.00045	0.0002	0.0001	4
18970	8e-05	7e-05	8e-05	9e-05	2e-05	0.00045	0.0002	0.0001	4
18971	8e-05	7e-05	8e-05	9e-05	2e-05	0.00045	0.0002	0.0001	4
18972	8e-05	7e-05	8e-05	9e-05	2e-05	0.00045	0.0002	0.0001	4
18973	8e-05	7e-05	8e-05	9e-05	2e-05	0.00045	0.0002	0.0001	4
18974	8e-05	7e-05	8e-05	9e-05	2e-05	0.00045	0.0002	0.0001	4
18975	8e-05	7e-05	8e-05	9e-05	2e-05	0.00045	0.0002	0.0001	4
18976	8e-05	7e-05	8e-05	9e-05	2e-05	0.00045	0.0002	0.0001	4
18977	8e-05	7e-05	8e-05	9e-05	2e-05	0.00045	0.0002	0.0001	4
18978	8e-05	7e-05	8e-05	9e-05	2e-05	0.00045	0.0002	0.0001	4
18979	8e-05	7e-05	8e-05	9e-05	2e-05	0.00045	0.0002	0.0001	4
18980	8e-05	7e-05	8e-05	9e-05	2e-05	0.00045	0.0002	0.0001	4
18981	8e-05	7e-05	8e-05	9e-05	2e-05	0.00045	0.0002	0.0001	4
18982	8e-05	7e-05	8e-05	9e-05	2e-05	0.00045	0.0002	0.0001	4
18983	8e-05	7e-05	8e-05	9e-05	2e-05	0.00045	0.0002	0.0001	4
18984	8e-05	7e-05	8e-05	9e-05	2e-05	0.00045	0.0002	0.0001	4
18985	8e-05	7e-05	8e-05	9e-05	2e-05	0.00045	0.0002	0.0001	4
18986	8e-05	7e-05	8e-05	9e-05	2e-05	0.00045	0.0002	0.0001	4
18989	8e-05	7e-05	8e-05	9e-05	2e-05	0.00045	0.0002	0.0001	4
18990	7e-05	0.0001	0.00016	0.00067	0.00021	0	0.00017	7e-05	4
18991	7e-05	0.0001	0.00016	0.00067	0.00021	0	0.00017	7e-05	4
18992	7e-05	0.0001	0.00016	0.00067	0.00021	0	0.00017	7e-05	4
18993	7e-05	0.0001	0.00016	0.00067	0.00021	0	0.00017	7e-05	4
18994	7e-05	0.0001	0.00016	0.00067	0.00021	0	0.00017	7e-05	4
18995	7e-05	0.0001	0.00016	0.00067	0.00021	0	0.00017	7e-05	4
18996	7e-05	0.0001	0.00016	0.00067	0.00021	0	0.00017	7e-05	4
18997	-4e-05	-8e-05	-0.00014	-0.00025	-0.00013	-0.0001	-4e-05	-2e-05	4
18998	-4e-05	-8e-05	-0.00014	-0.00025	-0.00013	-0.0001	-4e-05	-2e-05	4
18999	-4e-05	-8e-05	-0.00014	-0.00025	-0.00013	-0.0001	-4e-05	-2e-05	4
19000	-4e-05	-8e-05	-0.00014	-0.00025	-0.00013	-0.0001	-4e-05	-2e-05	4
19001	-4e-05	-8e-05	-0.00014	-0.00025	-0.00013	-0.0001	-4e-05	-2e-05	4
19002	-4e-05	-8e-05	-0.00014	-0.00025	-0.00013	-0.0001	-4e-05	-2e-05	4
19003	-4e-05	-8e-05	-0.00014	-0.00025	-0.00013	-0.0001	-4e-05	-2e-05	4
19004	-3e-05	-8e-05	-0.00016	-0.00038	-0.00078	9e-05	3e-05	-1e-05	4
19005	-3e-05	-8e-05	-0.00016	-0.00038	-0.00078	9e-05	3e-05	-1e-05	4
19006	2e-05	5e-05	3e-05	-0.00011	7e-05	0.00024	0	-3e-05	4
19007	2e-05	5e-05	3e-05	-0.00011	7e-05	0.00024	0	-3e-05	4
19008	2e-05	5e-05	3e-05	-0.00011	7e-05	0.00024	0	-3e-05	4
19009	2e-05	5e-05	3e-05	-0.00011	7e-05	0.00024	0	-3e-05	4
19010	2e-05	5e-05	3e-05	-0.00011	7e-05	0.00024	0	-3e-05	4
19011	2e-05	5e-05	3e-05	-0.00011	7e-05	0.00024	0	-3e-05	4
19012	2e-05	5e-05	3e-05	-0.00011	7e-05	0.00024	0	-3e-05	4
19013	2e-05	5e-05	3e-05	-0.00011	7e-05	0.00024	0	-3e-05	4
19014	2e-05	5e-05	3e-05	-0.00011	7e-05	0.00024	0	-3e-05	4
19015	2e-05	5e-05	3e-05	-0.00011	7e-05	0.00024	0	-3e-05	4
19016	2e-05	5e-05	3e-05	-0.00011	7e-05	0.00024	0	-3e-05	4
19017	2e-05	5e-05	3e-05	-0.00011	7e-05	0.00024	0	-3e-05	4
19018	2e-05	5e-05	3e-05	-0.00011	7e-05	0.00024	0	-3e-05	4
19019	-0.0001	-9e-05	-7e-05	-0.00021	0.00022	-0.00079	-0.00011	-9e-05	4
19020	-0.0001	-9e-05	-7e-05	-0.00021	0.00022	-0.00079	-0.00011	-9e-05	4
19021	-0.0001	-9e-05	-7e-05	-0.00021	0.00022	-0.00079	-0.00011	-9e-05	4
19022	-0.0001	-9e-05	-7e-05	-0.00021	0.00022	-0.00079	-0.00011	-9e-05	4
19023	-0.0001	-9e-05	-7e-05	-0.00021	0.00022	-0.00079	-0.00011	-9e-05	4
19024	-0.0001	-9e-05	-7e-05	-0.00021	0.00022	-0.00079	-0.00011	-9e-05	4
19025	-0.0001	-9e-05	-7e-05	-0.00021	0.00022	-0.00079	-0.00011	-9e-05	4
19026	-5e-05	-6e-05	-0.00027	-0.0002	0.0003	-0.00019	-1e-05	-3e-05	4
19027	-5e-05	-6e-05	-0.00027	-0.0002	0.0003	-0.00019	-1e-05	-3e-05	4
19028	-5e-05	-6e-05	-0.00027	-0.0002	0.0003	-0.00019	-1e-05	-3e-05	4
19029	-5e-05	-6e-05	-0.00027	-0.0002	0.0003	-0.00019	-1e-05	-3e-05	4
19030	-5e-05	-6e-05	-0.00027	-0.0002	0.0003	-0.00019	-1e-05	-3e-05	4
19031	-5e-05	-6e-05	-0.00027	-0.0002	0.0003	-0.00019	-1e-05	-3e-05	4
19032	-5e-05	-6e-05	-0.00027	-0.0002	0.0003	-0.00019	-1e-05	-3e-05	4
19033	-5e-05	-6e-05	-0.00027	-0.0002	0.0003	-0.00019	-1e-05	-3e-05	4
19034	-5e-05	-6e-05	-0.00027	-0.0002	0.0003	-0.00019	-1e-05	-3e-05	4
19035	-5e-05	-6e-05	-0.00027	-0.0002	0.0003	-0.00019	-1e-05	-3e-05	4
19037	-5e-05	-6e-05	-0.00027	-0.0002	0.0003	-0.00019	-1e-05	-3e-05	4
19040	-5e-05	-6e-05	-0.00027	-0.0002	0.0003	-0.00019	-1e-05	-3e-05	4
19041	-5e-05	-6e-05	-0.00027	-0.0002	0.0003	-0.00019	-1e-05	-3e-05	4
19042	0	-4e-05	-0.00011	2e-05	0.00041	0.00054	-8e-05	-6e-05	4
19043	-1e-05	0	1e-05	-0.00027	-7e-05	-0.00023	-1e-05	0	4
19044	1e-05	2e-05	9e-05	0.00017	-0.00043	-0.0005	-9e-05	-2e-05	4
19045	1e-05	2e-05	9e-05	0.00017	-0.00043	-0.0005	-9e-05	-2e-05	4
19046	1e-05	2e-05	9e-05	0.00017	-0.00043	-0.0005	-9e-05	-2e-05	4
19047	1e-05	2e-05	9e-05	0.00017	-0.00043	-0.0005	-9e-05	-2e-05	4
19048	1e-05	2e-05	9e-05	0.00017	-0.00043	-0.0005	-9e-05	-2e-05	4
19049	1e-05	2e-05	9e-05	0.00017	-0.00043	-0.0005	-9e-05	-2e-05	4
19050	1e-05	2e-05	9e-05	0.00017	-0.00043	-0.0005	-9e-05	-2e-05	4
19051	1e-05	2e-05	9e-05	0.00017	-0.00043	-0.0005	-9e-05	-2e-05	4
19052	1e-05	2e-05	9e-05	0.00017	-0.00043	-0.0005	-9e-05	-2e-05	4
19053	1e-05	2e-05	9e-05	0.00017	-0.00043	-0.0005	-9e-05	-2e-05	4
19054	1e-05	2e-05	9e-05	0.00017	-0.00043	-0.0005	-9e-05	-2e-05	4
19055	1e-05	2e-05	9e-05	0.00017	-0.00043	-0.0005	-9e-05	-2e-05	4
19056	1e-05	2e-05	9e-05	0.00017	-0.00043	-0.0005	-9e-05	-2e-05	4
19057	1e-05	2e-05	9e-05	0.00017	-0.00043	-0.0005	-9e-05	-2e-05	4
19058	1e-05	2e-05	9e-05	0.00017	-0.00043	-0.0005	-9e-05	-2e-05	4
19059	1e-05	2e-05	9e-05	0.00017	-0.00043	-0.0005	-9e-05	-2e-05	4
19060	1e-05	2e-05	9e-05	0.00017	-0.00043	-0.0005	-9e-05	-2e-05	4
19061	1e-05	2e-05	9e-05	0.00017	-0.00043	-0.0005	-9e-05	-2e-05	4
19062	1e-05	2e-05	9e-05	0.00017	-0.00043	-0.0005	-9e-05	-2e-05	4
19063	1e-05	2e-05	9e-05	0.00017	-0.00043	-0.0005	-9e-05	-2e-05	4
19064	1e-05	2e-05	9e-05	0.00017	-0.00043	-0.0005	-9e-05	-2e-05	4
19065	1e-05	2e-05	9e-05	0.00017	-0.00043	-0.0005	-9e-05	-2e-05	4
19066	1e-05	2e-05	9e-05	0.00017	-0.00043	-0.0005	-9e-05	-2e-05	4
19067	1e-05	2e-05	9e-05	0.00017	-0.00043	-0.0005	-9e-05	-2e-05	4
19068	1e-05	2e-05	9e-05	0.00017	-0.00043	-0.0005	-9e-05	-2e-05	4
19069	1e-05	2e-05	9e-05	0.00017	-0.00043	-0.0005	-9e-05	-2e-05	4
19070	1e-05	2e-05	9e-05	0.00017	-0.00043	-0.0005	-9e-05	-2e-05	4
19071	1e-05	2e-05	9e-05	0.00017	-0.00043	-0.0005	-9e-05	-2e-05	4
19072	3e-05	0	1e-05	0.00023	0.00066	0.00087	5e-05	4e-05	4
19073	3e-05	0	1e-05	0.00023	0.00066	0.00087	5e-05	4e-05	4
19074	0	3e-05	0.00012	0.00051	0.00048	0.00023	-8e-05	-1e-05	4
19075	0	3e-05	0.00012	0.00051	0.00048	0.00023	-8e-05	-1e-05	4
19076	0	3e-05	0.00012	0.00051	0.00048	0.00023	-8e-05	-1e-05	4
19077	0	3e-05	0.00012	0.00051	0.00048	0.00023	-8e-05	-1e-05	4
19078	0	3e-05	0.00012	0.00051	0.00048	0.00023	-8e-05	-1e-05	4
19079	-8e-05	-3e-05	-0.0001	-0.00029	0.00052	0.00022	-4e-05	-4e-05	4
19080	-8e-05	-3e-05	-0.0001	-0.00029	0.00052	0.00022	-4e-05	-4e-05	4
19081	-8e-05	-3e-05	-0.0001	-0.00029	0.00052	0.00022	-4e-05	-4e-05	4
19083	-8e-05	-3e-05	-0.0001	-0.00029	0.00052	0.00022	-4e-05	-4e-05	4
19084	-8e-05	-3e-05	-0.0001	-0.00029	0.00052	0.00022	-4e-05	-4e-05	4
19085	-8e-05	-3e-05	-0.0001	-0.00029	0.00052	0.00022	-4e-05	-4e-05	4
19087	0.00013	0.00014	0.00025	0.00019	8e-05	0.00084	0.00036	0.0002	4
19090	0.00013	0.00014	0.00025	0.00019	8e-05	0.00084	0.00036	0.0002	4
19091	0.00013	0.00014	0.00025	0.00019	8e-05	0.00084	0.00036	0.0002	4
19092	0.00013	0.00014	0.00025	0.00019	8e-05	0.00084	0.00036	0.0002	4
19093	0.00013	0.00014	0.00025	0.00019	8e-05	0.00084	0.00036	0.0002	4
19094	0.00013	0.00014	0.00025	0.00019	8e-05	0.00084	0.00036	0.0002	4
19095	0.00013	0.00014	0.00025	0.00019	8e-05	0.00084	0.00036	0.0002	4
19096	0.00013	0.00014	0.00025	0.00019	8e-05	0.00084	0.00036	0.0002	4
19097	0.00013	0.00014	0.00025	0.00019	8e-05	0.00084	0.00036	0.0002	4
19098	0.00013	0.00014	0.00025	0.00019	8e-05	0.00084	0.00036	0.0002	4
19099	0.00013	0.00014	0.00025	0.00019	8e-05	0.00084	0.00036	0.0002	4
19100	0.00013	0.00014	0.00025	0.00019	8e-05	0.00084	0.00036	0.0002	4
19101	0.00013	0.00014	0.00025	0.00019	8e-05	0.00084	0.00036	0.0002	4
19102	0.00013	0.00014	0.00025	0.00019	8e-05	0.00084	0.00036	0.0002	4
19103	0.00013	0.00014	0.00025	0.00019	8e-05	0.00084	0.00036	0.0002	4
19104	0.00013	0.00014	0.00025	0.00019	8e-05	0.00084	0.00036	0.0002	4
19105	0.00013	0.00014	0.00025	0.00019	8e-05	0.00084	0.00036	0.0002	4
19106	0.00013	0.00014	0.00025	0.00019	8e-05	0.00084	0.00036	0.0002	4
19107	0.00013	0.00014	0.00025	0.00019	8e-05	0.00084	0.00036	0.0002	4
19108	0.00013	0.00014	0.00025	0.00019	8e-05	0.00084	0.00036	0.0002	4
19109	0.00013	0.00014	0.00025	0.00019	8e-05	0.00084	0.00036	0.0002	4
19110	-4e-05	-6e-05	-4e-05	-0.00021	-0.00128	-0.00032	-0.00013	-6e-05	4
19111	-4e-05	-6e-05	-4e-05	-0.00021	-0.00128	-0.00032	-0.00013	-6e-05	4
19112	-4e-05	-6e-05	-4e-05	-0.00021	-0.00128	-0.00032	-0.00013	-6e-05	4
19113	-4e-05	-6e-05	-4e-05	-0.00021	-0.00128	-0.00032	-0.00013	-6e-05	4
19114	-4e-05	-6e-05	-4e-05	-0.00021	-0.00128	-0.00032	-0.00013	-6e-05	4
19115	-4e-05	-6e-05	-4e-05	-0.00021	-0.00128	-0.00032	-0.00013	-6e-05	4
19116	-0.00012	-0.00018	-0.00028	-0.00038	0.00016	-0.00011	-0.00021	-0.00016	4
19117	-0.00012	-0.00018	-0.00028	-0.00038	0.00016	-0.00011	-0.00021	-0.00016	4
19118	-0.00012	-0.00018	-0.00028	-0.00038	0.00016	-0.00011	-0.00021	-0.00016	4
19119	-0.00012	-0.00018	-0.00028	-0.00038	0.00016	-0.00011	-0.00021	-0.00016	4
19120	-0.00012	-0.00018	-0.00028	-0.00038	0.00016	-0.00011	-0.00021	-0.00016	4
19121	-0.00012	-0.00018	-0.00028	-0.00038	0.00016	-0.00011	-0.00021	-0.00016	4
19122	-0.00012	-0.00018	-0.00028	-0.00038	0.00016	-0.00011	-0.00021	-0.00016	4
19123	-0.00012	-0.00018	-0.00028	-0.00038	0.00016	-0.00011	-0.00021	-0.00016	4
19124	4e-05	0	5e-05	0.0004	-0.00073	-0.00014	0.00012	5e-05	4
19125	-1e-05	0	-5e-05	-0.00033	-0.00027	-0.00031	-1e-05	-1e-05	4
19126	0	4e-05	3e-05	-5e-05	0.0006	0.00038	4e-05	2e-05	4
19127	0	4e-05	3e-05	-5e-05	0.0006	0.00038	4e-05	2e-05	4
19128	0	4e-05	3e-05	-5e-05	0.0006	0.00038	4e-05	2e-05	4
19129	0	4e-05	3e-05	-5e-05	0.0006	0.00038	4e-05	2e-05	4
19130	0	4e-05	3e-05	-5e-05	0.0006	0.00038	4e-05	2e-05	4
19131	0	4e-05	3e-05	-5e-05	0.0006	0.00038	4e-05	2e-05	4
19132	0	4e-05	3e-05	-5e-05	0.0006	0.00038	4e-05	2e-05	4
19133	0	4e-05	3e-05	-5e-05	0.0006	0.00038	4e-05	2e-05	4
19134	0	4e-05	3e-05	-5e-05	0.0006	0.00038	4e-05	2e-05	4
19135	0	4e-05	3e-05	-5e-05	0.0006	0.00038	4e-05	2e-05	4
19136	0	4e-05	3e-05	-5e-05	0.0006	0.00038	4e-05	2e-05	4
19139	1e-05	1e-05	8e-05	8e-05	-0.00051	-0.00034	-1e-05	-1e-05	4
19140	1e-05	1e-05	8e-05	8e-05	-0.00051	-0.00034	-1e-05	-1e-05	4
19141	1e-05	1e-05	8e-05	8e-05	-0.00051	-0.00034	-1e-05	-1e-05	4
19142	1e-05	1e-05	8e-05	8e-05	-0.00051	-0.00034	-1e-05	-1e-05	4
19143	1e-05	1e-05	8e-05	8e-05	-0.00051	-0.00034	-1e-05	-1e-05	4
19144	1e-05	1e-05	8e-05	8e-05	-0.00051	-0.00034	-1e-05	-1e-05	4
19145	1e-05	1e-05	8e-05	8e-05	-0.00051	-0.00034	-1e-05	-1e-05	4
19146	1e-05	1e-05	8e-05	8e-05	-0.00051	-0.00034	-1e-05	-1e-05	4
19147	-1e-05	-2e-05	-3e-05	0.00025	0.0001	-0.00035	-0.00013	-4e-05	4
19148	-5e-05	-5e-05	1e-05	-3e-05	-0.0003	-0.00071	4e-05	-5e-05	4
19149	-5e-05	-5e-05	1e-05	-3e-05	-0.0003	-0.00071	4e-05	-5e-05	4
19150	-5e-05	-5e-05	1e-05	-3e-05	-0.0003	-0.00071	4e-05	-5e-05	4
19151	-5e-05	-5e-05	1e-05	-3e-05	-0.0003	-0.00071	4e-05	-5e-05	4
19152	-5e-05	-5e-05	1e-05	-3e-05	-0.0003	-0.00071	4e-05	-5e-05	4
19153	-5e-05	-5e-05	1e-05	-3e-05	-0.0003	-0.00071	4e-05	-5e-05	4
19154	-5e-05	-5e-05	1e-05	-3e-05	-0.0003	-0.00071	4e-05	-5e-05	4
19155	-5e-05	-5e-05	1e-05	-3e-05	-0.0003	-0.00071	4e-05	-5e-05	4
19156	-5e-05	-5e-05	1e-05	-3e-05	-0.0003	-0.00071	4e-05	-5e-05	4
19157	-5e-05	-5e-05	1e-05	-3e-05	-0.0003	-0.00071	4e-05	-5e-05	4
19158	-5e-05	-5e-05	1e-05	-3e-05	-0.0003	-0.00071	4e-05	-5e-05	4
19159	-5e-05	-5e-05	1e-05	-3e-05	-0.0003	-0.00071	4e-05	-5e-05	4
19160	-5e-05	-5e-05	1e-05	-3e-05	-0.0003	-0.00071	4e-05	-5e-05	4
19161	-5e-05	-5e-05	1e-05	-3e-05	-0.0003	-0.00071	4e-05	-5e-05	4
19163	3e-05	-1e-05	0.00011	0.00044	0.00017	-0.0001	1e-05	-2e-05	4
19164	-6e-05	-0.0001	-9e-05	-0.00018	-0.00032	-0.0001	-7e-05	-5e-05	4
19165	-6e-05	-0.0001	-9e-05	-0.00018	-0.00032	-0.0001	-7e-05	-5e-05	4
19166	-6e-05	-0.0001	-9e-05	-0.00018	-0.00032	-0.0001	-7e-05	-5e-05	4
19167	-6e-05	-0.0001	-9e-05	-0.00018	-0.00032	-0.0001	-7e-05	-5e-05	4
19168	-6e-05	-0.0001	-9e-05	-0.00018	-0.00032	-0.0001	-7e-05	-5e-05	4
19169	-6e-05	-0.0001	-9e-05	-0.00018	-0.00032	-0.0001	-7e-05	-5e-05	4
19170	-6e-05	-0.0001	-9e-05	-0.00018	-0.00032	-0.0001	-7e-05	-5e-05	4
19171	-6e-05	-0.0001	-9e-05	-0.00018	-0.00032	-0.0001	-7e-05	-5e-05	4
19172	-6e-05	-0.0001	-9e-05	-0.00018	-0.00032	-0.0001	-7e-05	-5e-05	4
19173	-6e-05	-0.0001	-9e-05	-0.00018	-0.00032	-0.0001	-7e-05	-5e-05	4
19174	-6e-05	-0.0001	-9e-05	-0.00018	-0.00032	-0.0001	-7e-05	-5e-05	4
19175	-6e-05	-0.0001	-9e-05	-0.00018	-0.00032	-0.0001	-7e-05	-5e-05	4
19176	-6e-05	-0.0001	-9e-05	-0.00018	-0.00032	-0.0001	-7e-05	-5e-05	4
19177	-6e-05	-0.0001	-9e-05	-0.00018	-0.00032	-0.0001	-7e-05	-5e-05	4
19178	-6e-05	-0.0001	-9e-05	-0.00018	-0.00032	-0.0001	-7e-05	-5e-05	4
19179	-6e-05	-0.0001	-9e-05	-0.00018	-0.00032	-0.0001	-7e-05	-5e-05	4
19180	-6e-05	-0.0001	-9e-05	-0.00018	-0.00032	-0.0001	-7e-05	-5e-05	4
19181	-6e-05	-0.0001	-9e-05	-0.00018	-0.00032	-0.0001	-7e-05	-5e-05	4
19182	-6e-05	-0.0001	-9e-05	-0.00018	-0.00032	-0.0001	-7e-05	-5e-05	4
19183	-6e-05	-0.0001	-9e-05	-0.00018	-0.00032	-0.0001	-7e-05	-5e-05	4
19184	-6e-05	-0.0001	-9e-05	-0.00018	-0.00032	-0.0001	-7e-05	-5e-05	4
19185	-6e-05	-0.0001	-9e-05	-0.00018	-0.00032	-0.0001	-7e-05	-5e-05	4
19186	-6e-05	-0.0001	-9e-05	-0.00018	-0.00032	-0.0001	-7e-05	-5e-05	4
19188	-6e-05	-0.0001	-9e-05	-0.00018	-0.00032	-0.0001	-7e-05	-5e-05	4
19189	-6e-05	-0.0001	-9e-05	-0.00018	-0.00032	-0.0001	-7e-05	-5e-05	4
19190	-6e-05	-0.0001	-9e-05	-0.00018	-0.00032	-0.0001	-7e-05	-5e-05	4
19191	-6e-05	-0.0001	-9e-05	-0.00018	-0.00032	-0.0001	-7e-05	-5e-05	4
19192	-2e-05	2e-05	2e-05	-0.00013	0.00037	-0.00014	-1e-05	-2e-05	4
19193	-2e-05	2e-05	2e-05	-0.00013	0.00037	-0.00014	-1e-05	-2e-05	4
19194	-3e-05	-2e-05	-2e-05	-5e-05	0.00038	9e-05	-2e-05	-3e-05	4
19195	-3e-05	-2e-05	-2e-05	-5e-05	0.00038	9e-05	-2e-05	-3e-05	4
19196	-3e-05	-2e-05	-2e-05	-5e-05	0.00038	9e-05	-2e-05	-3e-05	4
19197	-3e-05	-2e-05	-2e-05	-5e-05	0.00038	9e-05	-2e-05	-3e-05	4
19198	-3e-05	-2e-05	-2e-05	-5e-05	0.00038	9e-05	-2e-05	-3e-05	4
19199	3e-05	-3e-05	0	-0.00025	-0.00012	0.00024	4e-05	2e-05	4
19200	3e-05	-3e-05	0	-0.00025	-0.00012	0.00024	4e-05	2e-05	4
19201	3e-05	-3e-05	0	-0.00025	-0.00012	0.00024	4e-05	2e-05	4
19202	3e-05	-3e-05	0	-0.00025	-0.00012	0.00024	4e-05	2e-05	4
19203	3e-05	-3e-05	0	-0.00025	-0.00012	0.00024	4e-05	2e-05	4
19204	3e-05	-3e-05	0	-0.00025	-0.00012	0.00024	4e-05	2e-05	4
19205	3e-05	-3e-05	0	-0.00025	-0.00012	0.00024	4e-05	2e-05	4
19206	5e-05	9e-05	0.00014	0.00018	-0.00025	-6e-05	8e-05	6e-05	4
19207	5e-05	9e-05	0.00014	0.00018	-0.00025	-6e-05	8e-05	6e-05	4
19208	5e-05	9e-05	0.00014	0.00018	-0.00025	-6e-05	8e-05	6e-05	4
19209	5e-05	9e-05	0.00014	0.00018	-0.00025	-6e-05	8e-05	6e-05	4
19210	5e-05	9e-05	0.00014	0.00018	-0.00025	-6e-05	8e-05	6e-05	4
19211	5e-05	9e-05	0.00014	0.00018	-0.00025	-6e-05	8e-05	6e-05	4
19212	5e-05	9e-05	0.00014	0.00018	-0.00025	-6e-05	8e-05	6e-05	4
19213	5e-05	9e-05	0.00014	0.00018	-0.00025	-6e-05	8e-05	6e-05	4
19214	5e-05	9e-05	0.00014	0.00018	-0.00025	-6e-05	8e-05	6e-05	4
19215	5e-05	9e-05	0.00014	0.00018	-0.00025	-6e-05	8e-05	6e-05	4
19216	5e-05	9e-05	0.00014	0.00018	-0.00025	-6e-05	8e-05	6e-05	4
19217	5e-05	9e-05	0.00014	0.00018	-0.00025	-6e-05	8e-05	6e-05	4
19218	5e-05	9e-05	0.00014	0.00018	-0.00025	-6e-05	8e-05	6e-05	4
19219	5e-05	9e-05	0.00014	0.00018	-0.00025	-6e-05	8e-05	6e-05	4
19220	5e-05	9e-05	0.00014	0.00018	-0.00025	-6e-05	8e-05	6e-05	4
19221	5e-05	9e-05	0.00014	0.00018	-0.00025	-6e-05	8e-05	6e-05	4
19222	5e-05	9e-05	0.00014	0.00018	-0.00025	-6e-05	8e-05	6e-05	4
19224	5e-05	9e-05	0.00014	0.00018	-0.00025	-6e-05	8e-05	6e-05	4
19225	5e-05	9e-05	0.00014	0.00018	-0.00025	-6e-05	8e-05	6e-05	4
19226	5e-05	9e-05	0.00014	0.00018	-0.00025	-6e-05	8e-05	6e-05	4
19227	5e-05	9e-05	0.00014	0.00018	-0.00025	-6e-05	8e-05	6e-05	4
19228	5e-05	9e-05	0.00014	0.00018	-0.00025	-6e-05	8e-05	6e-05	4
19229	5e-05	9e-05	0.00014	0.00018	-0.00025	-6e-05	8e-05	6e-05	4
19230	5e-05	9e-05	0.00014	0.00018	-0.00025	-6e-05	8e-05	6e-05	4
19231	6e-05	9e-05	1e-05	0.00016	0.00057	0.00058	0.00014	9e-05	4
19232	-8e-05	-5e-05	-4e-05	0.00017	0.00031	-0.00053	-0.00015	-6e-05	4
19233	-8e-05	-5e-05	-4e-05	0.00017	0.00031	-0.00053	-0.00015	-6e-05	4
19234	-8e-05	-5e-05	-4e-05	0.00017	0.00031	-0.00053	-0.00015	-6e-05	4
19235	-8e-05	-5e-05	-4e-05	0.00017	0.00031	-0.00053	-0.00015	-6e-05	4
19236	-8e-05	-5e-05	-4e-05	0.00017	0.00031	-0.00053	-0.00015	-6e-05	4
19238	-8e-05	-5e-05	-4e-05	0.00017	0.00031	-0.00053	-0.00015	-6e-05	4
19239	-8e-05	-5e-05	-4e-05	0.00017	0.00031	-0.00053	-0.00015	-6e-05	4
19240	-8e-05	-5e-05	-4e-05	0.00017	0.00031	-0.00053	-0.00015	-6e-05	4
19241	-8e-05	-5e-05	-4e-05	0.00017	0.00031	-0.00053	-0.00015	-6e-05	4
19242	-8e-05	-5e-05	-4e-05	0.00017	0.00031	-0.00053	-0.00015	-6e-05	4
19243	-8e-05	-5e-05	-4e-05	0.00017	0.00031	-0.00053	-0.00015	-6e-05	4
19244	-3e-05	-3e-05	-3e-05	-6e-05	-0.00012	4e-05	-0.00013	-7e-05	4
19245	-1e-05	-1e-05	-3e-05	3e-05	-0.00045	-0.00021	-7e-05	-2e-05	4
19246	-3e-05	-5e-05	-8e-05	0.0002	5e-05	0.00017	1e-05	-1e-05	4
19247	3e-05	-2e-05	-5e-05	0	-0.00038	-3e-05	-9e-05	-1e-05	4
19248	3e-05	-2e-05	-5e-05	0	-0.00038	-3e-05	-9e-05	-1e-05	4
19249	3e-05	-2e-05	-5e-05	0	-0.00038	-3e-05	-9e-05	-1e-05	4
19250	3e-05	-2e-05	-5e-05	0	-0.00038	-3e-05	-9e-05	-1e-05	4
19251	3e-05	-2e-05	-5e-05	0	-0.00038	-3e-05	-9e-05	-1e-05	4
19252	3e-05	-2e-05	-5e-05	0	-0.00038	-3e-05	-9e-05	-1e-05	4
19253	3e-05	-2e-05	-5e-05	0	-0.00038	-3e-05	-9e-05	-1e-05	4
19254	3e-05	-2e-05	-5e-05	0	-0.00038	-3e-05	-9e-05	-1e-05	4
19255	3e-05	-2e-05	-5e-05	0	-0.00038	-3e-05	-9e-05	-1e-05	4
19256	3e-05	-2e-05	-5e-05	0	-0.00038	-3e-05	-9e-05	-1e-05	4
19257	3e-05	-2e-05	-5e-05	0	-0.00038	-3e-05	-9e-05	-1e-05	4
19258	3e-05	-2e-05	-5e-05	0	-0.00038	-3e-05	-9e-05	-1e-05	4
19259	3e-05	-2e-05	-5e-05	0	-0.00038	-3e-05	-9e-05	-1e-05	4
19260	3e-05	-2e-05	-5e-05	0	-0.00038	-3e-05	-9e-05	-1e-05	4
19261	3e-05	-2e-05	-5e-05	0	-0.00038	-3e-05	-9e-05	-1e-05	4
19262	3e-05	-2e-05	-5e-05	0	-0.00038	-3e-05	-9e-05	-1e-05	4
19263	3e-05	-2e-05	-5e-05	0	-0.00038	-3e-05	-9e-05	-1e-05	4
19264	3e-05	-2e-05	-5e-05	0	-0.00038	-3e-05	-9e-05	-1e-05	4
19265	3e-05	-2e-05	-5e-05	0	-0.00038	-3e-05	-9e-05	-1e-05	4
19266	3e-05	-2e-05	-5e-05	0	-0.00038	-3e-05	-9e-05	-1e-05	4
19267	-0.00011	-0.00016	-0.00019	0.00023	0.00035	-0.00081	-0.0002	-0.00013	4
19268	-0.00011	-0.00016	-0.00019	0.00023	0.00035	-0.00081	-0.0002	-0.00013	4
19269	4e-05	6e-05	-3e-05	4e-05	-0.00032	0.00037	8e-05	2e-05	4
19271	4e-05	6e-05	-3e-05	4e-05	-0.00032	0.00037	8e-05	2e-05	4
19272	4e-05	6e-05	-3e-05	4e-05	-0.00032	0.00037	8e-05	2e-05	4
19273	4e-05	6e-05	-3e-05	4e-05	-0.00032	0.00037	8e-05	2e-05	4
19274	4e-05	6e-05	-3e-05	4e-05	-0.00032	0.00037	8e-05	2e-05	4
19275	4e-05	6e-05	-3e-05	4e-05	-0.00032	0.00037	8e-05	2e-05	4
19276	4e-05	6e-05	-3e-05	4e-05	-0.00032	0.00037	8e-05	2e-05	4
19277	4e-05	6e-05	-3e-05	4e-05	-0.00032	0.00037	8e-05	2e-05	4
19278	4e-05	6e-05	-3e-05	4e-05	-0.00032	0.00037	8e-05	2e-05	4
19279	4e-05	6e-05	-3e-05	4e-05	-0.00032	0.00037	8e-05	2e-05	4
19280	4e-05	6e-05	-3e-05	4e-05	-0.00032	0.00037	8e-05	2e-05	4
19281	4e-05	6e-05	-3e-05	4e-05	-0.00032	0.00037	8e-05	2e-05	4
19282	-2e-05	1e-05	-0.00011	-0.00033	-0.0008	0.00016	3e-05	-2e-05	4
19283	-2e-05	1e-05	-0.00011	-0.00033	-0.0008	0.00016	3e-05	-2e-05	4
19284	-3e-05	-5e-05	-9e-05	0.00016	-0.00028	0.00015	-0.00013	-5e-05	4
19285	-3e-05	-5e-05	-9e-05	0.00016	-0.00028	0.00015	-0.00013	-5e-05	4
19286	-3e-05	-5e-05	-9e-05	0.00016	-0.00028	0.00015	-0.00013	-5e-05	4
19288	-3e-05	-5e-05	-9e-05	0.00016	-0.00028	0.00015	-0.00013	-5e-05	4
19289	-3e-05	-5e-05	-9e-05	0.00016	-0.00028	0.00015	-0.00013	-5e-05	4
19290	-3e-05	-5e-05	-9e-05	0.00016	-0.00028	0.00015	-0.00013	-5e-05	4
19291	-3e-05	-5e-05	-9e-05	0.00016	-0.00028	0.00015	-0.00013	-5e-05	4
19292	-3e-05	-5e-05	-9e-05	0.00016	-0.00028	0.00015	-0.00013	-5e-05	4
19293	-3e-05	-5e-05	-9e-05	0.00016	-0.00028	0.00015	-0.00013	-5e-05	4
19294	-3e-05	-5e-05	-9e-05	0.00016	-0.00028	0.00015	-0.00013	-5e-05	4
19295	-3e-05	-5e-05	-9e-05	0.00016	-0.00028	0.00015	-0.00013	-5e-05	4
19296	-3e-05	-5e-05	-9e-05	0.00016	-0.00028	0.00015	-0.00013	-5e-05	4
19297	-3e-05	-5e-05	-9e-05	0.00016	-0.00028	0.00015	-0.00013	-5e-05	4
19298	-3e-05	-5e-05	-9e-05	0.00016	-0.00028	0.00015	-0.00013	-5e-05	4
19299	-3e-05	-5e-05	-9e-05	0.00016	-0.00028	0.00015	-0.00013	-5e-05	4
19300	-3e-05	-5e-05	-9e-05	0.00016	-0.00028	0.00015	-0.00013	-5e-05	4
19301	-3e-05	-5e-05	-9e-05	0.00016	-0.00028	0.00015	-0.00013	-5e-05	4
19302	-3e-05	-5e-05	-9e-05	0.00016	-0.00028	0.00015	-0.00013	-5e-05	4
19303	-3e-05	-5e-05	-9e-05	0.00016	-0.00028	0.00015	-0.00013	-5e-05	4
19304	-3e-05	-5e-05	-9e-05	0.00016	-0.00028	0.00015	-0.00013	-5e-05	4
19305	-3e-05	-5e-05	-9e-05	0.00016	-0.00028	0.00015	-0.00013	-5e-05	4
19306	-3e-05	-5e-05	-9e-05	0.00016	-0.00028	0.00015	-0.00013	-5e-05	4
19307	-3e-05	-5e-05	-9e-05	0.00016	-0.00028	0.00015	-0.00013	-5e-05	4
19308	-3e-05	-5e-05	-9e-05	0.00016	-0.00028	0.00015	-0.00013	-5e-05	4
19309	-3e-05	-5e-05	-9e-05	0.00016	-0.00028	0.00015	-0.00013	-5e-05	4
19310	-3e-05	-5e-05	-9e-05	0.00016	-0.00028	0.00015	-0.00013	-5e-05	4
19311	-3e-05	-5e-05	-9e-05	0.00016	-0.00028	0.00015	-0.00013	-5e-05	4
19312	4e-05	0	5e-05	-1e-05	-0.00011	0.00063	0.00018	9e-05	4
19313	4e-05	0	5e-05	-1e-05	-0.00011	0.00063	0.00018	9e-05	4
19314	2e-05	4e-05	9e-05	-0.00035	-0.00051	-0.00065	4e-05	2e-05	4
19315	2e-05	4e-05	9e-05	-0.00035	-0.00051	-0.00065	4e-05	2e-05	4
19316	2e-05	4e-05	9e-05	-0.00035	-0.00051	-0.00065	4e-05	2e-05	4
19317	2e-05	4e-05	9e-05	-0.00035	-0.00051	-0.00065	4e-05	2e-05	4
19318	-1e-05	1e-05	4e-05	6e-05	-0.00015	0.00018	0	1e-05	4
19319	-1e-05	1e-05	4e-05	6e-05	-0.00015	0.00018	0	1e-05	4
19320	-1e-05	1e-05	4e-05	6e-05	-0.00015	0.00018	0	1e-05	4
19321	-1e-05	1e-05	4e-05	6e-05	-0.00015	0.00018	0	1e-05	4
19322	-1e-05	1e-05	4e-05	6e-05	-0.00015	0.00018	0	1e-05	4
19323	-1e-05	1e-05	4e-05	6e-05	-0.00015	0.00018	0	1e-05	4
19324	-1e-05	1e-05	4e-05	6e-05	-0.00015	0.00018	0	1e-05	4
19325	-1e-05	1e-05	4e-05	6e-05	-0.00015	0.00018	0	1e-05	4
19326	-1e-05	1e-05	4e-05	6e-05	-0.00015	0.00018	0	1e-05	4
19327	2e-05	-1e-05	0	-8e-05	-0.00018	-0.00013	7e-05	3e-05	4
19328	2e-05	-1e-05	0	-8e-05	-0.00018	-0.00013	7e-05	3e-05	4
19329	2e-05	-1e-05	0	-8e-05	-0.00018	-0.00013	7e-05	3e-05	4
19330	2e-05	-1e-05	0	-8e-05	-0.00018	-0.00013	7e-05	3e-05	4
19331	2e-05	-1e-05	0	-8e-05	-0.00018	-0.00013	7e-05	3e-05	4
19332	2e-05	-1e-05	0	-8e-05	-0.00018	-0.00013	7e-05	3e-05	4
19333	2e-05	-1e-05	0	-8e-05	-0.00018	-0.00013	7e-05	3e-05	4
19334	2e-05	-1e-05	0	-8e-05	-0.00018	-0.00013	7e-05	3e-05	4
19335	2e-05	-1e-05	0	-8e-05	-0.00018	-0.00013	7e-05	3e-05	4
19336	2e-05	-1e-05	0	-8e-05	-0.00018	-0.00013	7e-05	3e-05	4
19338	2e-05	-1e-05	0	-8e-05	-0.00018	-0.00013	7e-05	3e-05	4
19339	2e-05	-1e-05	0	-8e-05	-0.00018	-0.00013	7e-05	3e-05	4
19340	2e-05	-1e-05	0	-8e-05	-0.00018	-0.00013	7e-05	3e-05	4
19341	2e-05	-1e-05	0	-8e-05	-0.00018	-0.00013	7e-05	3e-05	4
19342	2e-05	-1e-05	0	-8e-05	-0.00018	-0.00013	7e-05	3e-05	4
19343	2e-05	-1e-05	0	-8e-05	-0.00018	-0.00013	7e-05	3e-05	4
19344	2e-05	-1e-05	0	-8e-05	-0.00018	-0.00013	7e-05	3e-05	4
19345	2e-05	-1e-05	0	-8e-05	-0.00018	-0.00013	7e-05	3e-05	4
19346	2e-05	-1e-05	0	-8e-05	-0.00018	-0.00013	7e-05	3e-05	4
19347	2e-05	-1e-05	0	-8e-05	-0.00018	-0.00013	7e-05	3e-05	4
19348	2e-05	-1e-05	0	-8e-05	-0.00018	-0.00013	7e-05	3e-05	4
19349	2e-05	-1e-05	0	-8e-05	-0.00018	-0.00013	7e-05	3e-05	4
19350	0	3e-05	4e-05	-2e-05	0.00026	-0.00015	0.0001	2e-05	4
19351	-2e-05	-2e-05	0	-6e-05	7e-05	-6e-05	-3e-05	-2e-05	4
19352	-6e-05	-7e-05	-4e-05	9e-05	0.00044	0.00023	-0.0001	-7e-05	4
19353	-6e-05	-7e-05	-4e-05	9e-05	0.00044	0.00023	-0.0001	-7e-05	4
19354	-6e-05	-7e-05	-4e-05	9e-05	0.00044	0.00023	-0.0001	-7e-05	4
19355	-6e-05	-7e-05	-4e-05	9e-05	0.00044	0.00023	-0.0001	-7e-05	4
19356	-6e-05	-7e-05	-4e-05	9e-05	0.00044	0.00023	-0.0001	-7e-05	4
19357	-6e-05	-7e-05	-4e-05	9e-05	0.00044	0.00023	-0.0001	-7e-05	4
19358	-6e-05	-7e-05	-4e-05	9e-05	0.00044	0.00023	-0.0001	-7e-05	4
19359	-6e-05	-7e-05	-4e-05	9e-05	0.00044	0.00023	-0.0001	-7e-05	4
19360	-6e-05	-7e-05	-4e-05	9e-05	0.00044	0.00023	-0.0001	-7e-05	4
19361	-6e-05	-7e-05	-4e-05	9e-05	0.00044	0.00023	-0.0001	-7e-05	4
19362	-6e-05	-7e-05	-4e-05	9e-05	0.00044	0.00023	-0.0001	-7e-05	4
19364	-4e-05	-6e-05	1e-05	-0.00033	0.00021	-0.00052	-0.00014	-9e-05	4
19365	-4e-05	-6e-05	1e-05	-0.00033	0.00021	-0.00052	-0.00014	-9e-05	4
19366	-3e-05	-7e-05	-0.00015	-8e-05	0.00025	0.0002	-1e-05	0	4
19368	-3e-05	-7e-05	-0.00015	-8e-05	0.00025	0.0002	-1e-05	0	4
19369	-3e-05	-7e-05	-0.00015	-8e-05	0.00025	0.0002	-1e-05	0	4
19370	-3e-05	-7e-05	-0.00015	-8e-05	0.00025	0.0002	-1e-05	0	4
19371	-3e-05	-7e-05	-0.00015	-8e-05	0.00025	0.0002	-1e-05	0	4
19372	-3e-05	-7e-05	-0.00015	-8e-05	0.00025	0.0002	-1e-05	0	4
19373	-3e-05	-7e-05	-0.00015	-8e-05	0.00025	0.0002	-1e-05	0	4
19374	-3e-05	-7e-05	-0.00015	-8e-05	0.00025	0.0002	-1e-05	0	4
19375	-3e-05	-7e-05	-0.00015	-8e-05	0.00025	0.0002	-1e-05	0	4
19376	-3e-05	-7e-05	-0.00015	-8e-05	0.00025	0.0002	-1e-05	0	4
19377	-3e-05	-7e-05	-0.00015	-8e-05	0.00025	0.0002	-1e-05	0	4
19378	-3e-05	-7e-05	-0.00015	-8e-05	0.00025	0.0002	-1e-05	0	4
19379	-3e-05	-7e-05	-0.00015	-8e-05	0.00025	0.0002	-1e-05	0	4
19380	-3e-05	-7e-05	-0.00015	-8e-05	0.00025	0.0002	-1e-05	0	4
19381	-3e-05	-7e-05	-0.00015	-8e-05	0.00025	0.0002	-1e-05	0	4
19382	-3e-05	-7e-05	-0.00015	-8e-05	0.00025	0.0002	-1e-05	0	4
19383	-3e-05	-7e-05	-0.00015	-8e-05	0.00025	0.0002	-1e-05	0	4
19384	-3e-05	-7e-05	-0.00015	-8e-05	0.00025	0.0002	-1e-05	0	4
19385	-3e-05	-7e-05	-0.00015	-8e-05	0.00025	0.0002	-1e-05	0	4
19386	-3e-05	-7e-05	-0.00015	-8e-05	0.00025	0.0002	-1e-05	0	4
19389	1e-05	7e-05	0.00016	0.00021	-0.00055	-0.00011	-0.00011	-3e-05	4
19390	1e-05	7e-05	0.00016	0.00021	-0.00055	-0.00011	-0.00011	-3e-05	4
19391	1e-05	7e-05	0.00016	0.00021	-0.00055	-0.00011	-0.00011	-3e-05	4
19392	1e-05	7e-05	0.00016	0.00021	-0.00055	-0.00011	-0.00011	-3e-05	4
19393	1e-05	7e-05	0.00016	0.00021	-0.00055	-0.00011	-0.00011	-3e-05	4
19394	1e-05	7e-05	0.00016	0.00021	-0.00055	-0.00011	-0.00011	-3e-05	4
19395	1e-05	7e-05	0.00016	0.00021	-0.00055	-0.00011	-0.00011	-3e-05	4
19396	1e-05	7e-05	0.00016	0.00021	-0.00055	-0.00011	-0.00011	-3e-05	4
19397	1e-05	7e-05	0.00016	0.00021	-0.00055	-0.00011	-0.00011	-3e-05	4
19398	1e-05	7e-05	0.00016	0.00021	-0.00055	-0.00011	-0.00011	-3e-05	4
19399	1e-05	7e-05	0.00016	0.00021	-0.00055	-0.00011	-0.00011	-3e-05	4
19400	1e-05	7e-05	0.00016	0.00021	-0.00055	-0.00011	-0.00011	-3e-05	4
19401	1e-05	7e-05	0.00016	0.00021	-0.00055	-0.00011	-0.00011	-3e-05	4
19402	-4e-05	-0.00012	-0.00029	-0.00073	0.00019	-0.0008	-0.00014	-7e-05	4
19403	-4e-05	-0.00012	-0.00029	-0.00073	0.00019	-0.0008	-0.00014	-7e-05	4
19404	1e-05	3e-05	9e-05	-4e-05	-0.00099	0	1e-05	1e-05	4
19405	1e-05	3e-05	9e-05	-4e-05	-0.00099	0	1e-05	1e-05	4
19406	1e-05	3e-05	9e-05	-4e-05	-0.00099	0	1e-05	1e-05	4
19407	1e-05	3e-05	9e-05	-4e-05	-0.00099	0	1e-05	1e-05	4
19408	1e-05	3e-05	9e-05	-4e-05	-0.00099	0	1e-05	1e-05	4
19409	1e-05	3e-05	9e-05	-4e-05	-0.00099	0	1e-05	1e-05	4
19410	1e-05	3e-05	9e-05	-4e-05	-0.00099	0	1e-05	1e-05	4
19411	1e-05	3e-05	9e-05	-4e-05	-0.00099	0	1e-05	1e-05	4
19412	1e-05	3e-05	9e-05	-4e-05	-0.00099	0	1e-05	1e-05	4
19413	1e-05	3e-05	9e-05	-4e-05	-0.00099	0	1e-05	1e-05	4
19414	1e-05	3e-05	9e-05	-4e-05	-0.00099	0	1e-05	1e-05	4
19415	1e-05	3e-05	9e-05	-4e-05	-0.00099	0	1e-05	1e-05	4
19416	1e-05	3e-05	9e-05	-4e-05	-0.00099	0	1e-05	1e-05	4
19417	1e-05	3e-05	9e-05	-4e-05	-0.00099	0	1e-05	1e-05	4
19418	1e-05	3e-05	9e-05	-4e-05	-0.00099	0	1e-05	1e-05	4
19419	1e-05	3e-05	9e-05	-4e-05	-0.00099	0	1e-05	1e-05	4
19420	1e-05	3e-05	9e-05	-4e-05	-0.00099	0	1e-05	1e-05	4
19421	1e-05	3e-05	9e-05	-4e-05	-0.00099	0	1e-05	1e-05	4
19422	1e-05	3e-05	9e-05	-4e-05	-0.00099	0	1e-05	1e-05	4
19423	1e-05	3e-05	9e-05	-4e-05	-0.00099	0	1e-05	1e-05	4
19424	-2e-05	1e-05	3e-05	-0.00012	0.00031	0.00023	0	-3e-05	4
19425	0	5e-05	0.0001	0.00044	0.00036	0.00051	0.00015	4e-05	4
19426	-2e-05	-4e-05	-9e-05	-0.00014	0.00022	-0.00047	-1e-05	0	4
19427	-2e-05	-4e-05	-9e-05	-0.00014	0.00022	-0.00047	-1e-05	0	4
19428	-2e-05	-4e-05	-9e-05	-0.00014	0.00022	-0.00047	-1e-05	0	4
19429	-2e-05	-4e-05	-9e-05	-0.00014	0.00022	-0.00047	-1e-05	0	4
19430	-2e-05	-4e-05	-9e-05	-0.00014	0.00022	-0.00047	-1e-05	0	4
19431	-2e-05	-4e-05	-9e-05	-0.00014	0.00022	-0.00047	-1e-05	0	4
19432	-2e-05	-4e-05	-9e-05	-0.00014	0.00022	-0.00047	-1e-05	0	4
19433	-2e-05	-4e-05	-9e-05	-0.00014	0.00022	-0.00047	-1e-05	0	4
19434	-2e-05	-4e-05	-9e-05	-0.00014	0.00022	-0.00047	-1e-05	0	4
19435	-2e-05	-4e-05	-9e-05	-0.00014	0.00022	-0.00047	-1e-05	0	4
19436	-2e-05	-4e-05	-9e-05	-0.00014	0.00022	-0.00047	-1e-05	0	4
19439	3e-05	-1e-05	-2e-05	-0.0003	-0.00032	0	8e-05	3e-05	4
19440	3e-05	-1e-05	-2e-05	-0.0003	-0.00032	0	8e-05	3e-05	4
19441	3e-05	-1e-05	-2e-05	-0.0003	-0.00032	0	8e-05	3e-05	4
19442	3e-05	-1e-05	-2e-05	-0.0003	-0.00032	0	8e-05	3e-05	4
19443	3e-05	-1e-05	-2e-05	-0.0003	-0.00032	0	8e-05	3e-05	4
19444	3e-05	-1e-05	-2e-05	-0.0003	-0.00032	0	8e-05	3e-05	4
19445	3e-05	-1e-05	-2e-05	-0.0003	-0.00032	0	8e-05	3e-05	4
19446	3e-05	-1e-05	-2e-05	-0.0003	-0.00032	0	8e-05	3e-05	4
19447	-3e-05	-5e-05	-8e-05	0.00012	-0.00014	0	-8e-05	-6e-05	4
19448	-3e-05	-5e-05	-8e-05	0.00012	-0.00014	0	-8e-05	-6e-05	4
19449	-3e-05	-5e-05	-8e-05	0.00012	-0.00014	0	-8e-05	-6e-05	4
19450	-3e-05	-5e-05	-8e-05	0.00012	-0.00014	0	-8e-05	-6e-05	4
19451	-3e-05	-5e-05	-8e-05	0.00012	-0.00014	0	-8e-05	-6e-05	4
19452	-3e-05	-5e-05	-8e-05	0.00012	-0.00014	0	-8e-05	-6e-05	4
19453	-3e-05	-5e-05	-8e-05	0.00012	-0.00014	0	-8e-05	-6e-05	4
19454	-3e-05	-5e-05	-8e-05	0.00012	-0.00014	0	-8e-05	-6e-05	4
19455	-3e-05	-5e-05	-8e-05	0.00012	-0.00014	0	-8e-05	-6e-05	4
19456	-3e-05	-5e-05	-8e-05	0.00012	-0.00014	0	-8e-05	-6e-05	4
19457	-3e-05	-5e-05	-8e-05	0.00012	-0.00014	0	-8e-05	-6e-05	4
19458	-3e-05	-5e-05	-8e-05	0.00012	-0.00014	0	-8e-05	-6e-05	4
19459	-3e-05	-5e-05	-8e-05	0.00012	-0.00014	0	-8e-05	-6e-05	4
19460	-3e-05	-5e-05	-8e-05	0.00012	-0.00014	0	-8e-05	-6e-05	4
19461	-3e-05	-5e-05	-8e-05	0.00012	-0.00014	0	-8e-05	-6e-05	4
19462	-3e-05	-5e-05	-8e-05	0.00012	-0.00014	0	-8e-05	-6e-05	4
19463	-3e-05	-5e-05	-8e-05	0.00012	-0.00014	0	-8e-05	-6e-05	4
19464	-3e-05	-5e-05	-8e-05	0.00012	-0.00014	0	-8e-05	-6e-05	4
19465	-3e-05	-5e-05	-8e-05	0.00012	-0.00014	0	-8e-05	-6e-05	4
19466	-3e-05	-5e-05	-8e-05	0.00012	-0.00014	0	-8e-05	-6e-05	4
19467	-3e-05	-5e-05	-8e-05	0.00012	-0.00014	0	-8e-05	-6e-05	4
19468	-3e-05	-5e-05	-8e-05	0.00012	-0.00014	0	-8e-05	-6e-05	4
19469	-3e-05	-5e-05	-8e-05	0.00012	-0.00014	0	-8e-05	-6e-05	4
19470	-3e-05	-1e-05	-2e-05	-3e-05	-9e-05	-0.00028	-7e-05	-3e-05	4
19471	-1e-05	-3e-05	-0.00012	-0.00021	-0.0001	0	-3e-05	-2e-05	4
19472	-1e-05	-3e-05	-0.00012	-0.00021	-0.0001	0	-3e-05	-2e-05	4
19473	-1e-05	-3e-05	-0.00012	-0.00021	-0.0001	0	-3e-05	-2e-05	4
19474	-1e-05	-3e-05	-0.00012	-0.00021	-0.0001	0	-3e-05	-2e-05	4
19475	-1e-05	-3e-05	-0.00012	-0.00021	-0.0001	0	-3e-05	-2e-05	4
19476	-1e-05	-3e-05	-0.00012	-0.00021	-0.0001	0	-3e-05	-2e-05	4
19477	-1e-05	-3e-05	-0.00012	-0.00021	-0.0001	0	-3e-05	-2e-05	4
19478	-1e-05	-3e-05	-0.00012	-0.00021	-0.0001	0	-3e-05	-2e-05	4
19479	-1e-05	-3e-05	-0.00012	-0.00021	-0.0001	0	-3e-05	-2e-05	4
19480	-1e-05	-3e-05	-0.00012	-0.00021	-0.0001	0	-3e-05	-2e-05	4
19481	-1e-05	-3e-05	-0.00012	-0.00021	-0.0001	0	-3e-05	-2e-05	4
19482	-1e-05	-3e-05	-0.00012	-0.00021	-0.0001	0	-3e-05	-2e-05	4
19483	-1e-05	-3e-05	-0.00012	-0.00021	-0.0001	0	-3e-05	-2e-05	4
19484	0	-4e-05	-2e-05	-7e-05	2e-05	-0.00023	-7e-05	0	4
19485	-1e-05	3e-05	0.00012	0.00061	0.00026	-0.00034	1e-05	2e-05	4
19487	-6e-05	1e-05	4e-05	4e-05	-0.00041	-0.00044	-9e-05	-6e-05	4
19489	-6e-05	1e-05	4e-05	4e-05	-0.00041	-0.00044	-9e-05	-6e-05	4
19490	-6e-05	1e-05	4e-05	4e-05	-0.00041	-0.00044	-9e-05	-6e-05	4
19491	-6e-05	1e-05	4e-05	4e-05	-0.00041	-0.00044	-9e-05	-6e-05	4
19492	-6e-05	1e-05	4e-05	4e-05	-0.00041	-0.00044	-9e-05	-6e-05	4
19493	-6e-05	1e-05	4e-05	4e-05	-0.00041	-0.00044	-9e-05	-6e-05	4
19494	-6e-05	1e-05	4e-05	4e-05	-0.00041	-0.00044	-9e-05	-6e-05	4
19495	-6e-05	1e-05	4e-05	4e-05	-0.00041	-0.00044	-9e-05	-6e-05	4
19496	-6e-05	1e-05	4e-05	4e-05	-0.00041	-0.00044	-9e-05	-6e-05	4
19497	-6e-05	1e-05	4e-05	4e-05	-0.00041	-0.00044	-9e-05	-6e-05	4
19498	-6e-05	1e-05	4e-05	4e-05	-0.00041	-0.00044	-9e-05	-6e-05	4
19499	-6e-05	1e-05	4e-05	4e-05	-0.00041	-0.00044	-9e-05	-6e-05	4
19500	-6e-05	1e-05	4e-05	4e-05	-0.00041	-0.00044	-9e-05	-6e-05	4
19501	-6e-05	1e-05	4e-05	4e-05	-0.00041	-0.00044	-9e-05	-6e-05	4
19502	-6e-05	1e-05	4e-05	4e-05	-0.00041	-0.00044	-9e-05	-6e-05	4
19503	-6e-05	1e-05	4e-05	4e-05	-0.00041	-0.00044	-9e-05	-6e-05	4
19504	-6e-05	1e-05	4e-05	4e-05	-0.00041	-0.00044	-9e-05	-6e-05	4
19505	-6e-05	1e-05	4e-05	4e-05	-0.00041	-0.00044	-9e-05	-6e-05	4
19506	-6e-05	1e-05	4e-05	4e-05	-0.00041	-0.00044	-9e-05	-6e-05	4
19507	-6e-05	1e-05	4e-05	4e-05	-0.00041	-0.00044	-9e-05	-6e-05	4
19508	-6e-05	1e-05	4e-05	4e-05	-0.00041	-0.00044	-9e-05	-6e-05	4
19509	-6e-05	1e-05	4e-05	4e-05	-0.00041	-0.00044	-9e-05	-6e-05	4
19510	-6e-05	1e-05	4e-05	4e-05	-0.00041	-0.00044	-9e-05	-6e-05	4
19511	-6e-05	1e-05	4e-05	4e-05	-0.00041	-0.00044	-9e-05	-6e-05	4
19512	-6e-05	1e-05	4e-05	4e-05	-0.00041	-0.00044	-9e-05	-6e-05	4
19513	-6e-05	1e-05	4e-05	4e-05	-0.00041	-0.00044	-9e-05	-6e-05	4
19514	-6e-05	1e-05	4e-05	4e-05	-0.00041	-0.00044	-9e-05	-6e-05	4
19515	2e-05	6e-05	9e-05	1e-05	-0.00019	0.0003	5e-05	1e-05	4
19516	2e-05	6e-05	9e-05	1e-05	-0.00019	0.0003	5e-05	1e-05	4
19517	3e-05	2e-05	2e-05	2e-05	4e-05	-0.00032	2e-05	3e-05	4
19518	3e-05	2e-05	2e-05	2e-05	4e-05	-0.00032	2e-05	3e-05	4
19519	3e-05	2e-05	2e-05	2e-05	4e-05	-0.00032	2e-05	3e-05	4
19520	3e-05	2e-05	2e-05	2e-05	4e-05	-0.00032	2e-05	3e-05	4
19521	3e-05	2e-05	2e-05	2e-05	4e-05	-0.00032	2e-05	3e-05	4
19522	-1e-05	-3e-05	-6e-05	-8e-05	-0.00052	0.00014	-1e-05	-3e-05	4
19523	-1e-05	-3e-05	-6e-05	-8e-05	-0.00052	0.00014	-1e-05	-3e-05	4
19524	-1e-05	-4e-05	-5e-05	-2e-05	0.00069	0.00043	4e-05	-1e-05	4
19525	-1e-05	-4e-05	-5e-05	-2e-05	0.00069	0.00043	4e-05	-1e-05	4
19526	-1e-05	-4e-05	-5e-05	-2e-05	0.00069	0.00043	4e-05	-1e-05	4
19527	-1e-05	-4e-05	-5e-05	-2e-05	0.00069	0.00043	4e-05	-1e-05	4
19528	-1e-05	-4e-05	-5e-05	-2e-05	0.00069	0.00043	4e-05	-1e-05	4
19529	-1e-05	-4e-05	-5e-05	-2e-05	0.00069	0.00043	4e-05	-1e-05	4
19530	-1e-05	-4e-05	-5e-05	-2e-05	0.00069	0.00043	4e-05	-1e-05	4
19531	-1e-05	-4e-05	-5e-05	-2e-05	0.00069	0.00043	4e-05	-1e-05	4
19532	-1e-05	-4e-05	-5e-05	-2e-05	0.00069	0.00043	4e-05	-1e-05	4
19533	-1e-05	-4e-05	-5e-05	-2e-05	0.00069	0.00043	4e-05	-1e-05	4
19534	-1e-05	-4e-05	-5e-05	-2e-05	0.00069	0.00043	4e-05	-1e-05	4
19535	-1e-05	-4e-05	-5e-05	-2e-05	0.00069	0.00043	4e-05	-1e-05	4
19536	-1e-05	-4e-05	-5e-05	-2e-05	0.00069	0.00043	4e-05	-1e-05	4
19538	-1e-05	-4e-05	-5e-05	-2e-05	0.00069	0.00043	4e-05	-1e-05	4
19539	-1e-05	-4e-05	-5e-05	-2e-05	0.00069	0.00043	4e-05	-1e-05	4
19540	-1e-05	-4e-05	-5e-05	-2e-05	0.00069	0.00043	4e-05	-1e-05	4
19541	-1e-05	-4e-05	-5e-05	-2e-05	0.00069	0.00043	4e-05	-1e-05	4
19542	-1e-05	-4e-05	-5e-05	-2e-05	0.00069	0.00043	4e-05	-1e-05	4
19543	-1e-05	-4e-05	-5e-05	-2e-05	0.00069	0.00043	4e-05	-1e-05	4
19544	-1e-05	-4e-05	-5e-05	-2e-05	0.00069	0.00043	4e-05	-1e-05	4
19545	-3e-05	-4e-05	-6e-05	-2e-05	0.00053	-0.00018	-6e-05	-3e-05	4
19546	-3e-05	-4e-05	-6e-05	-2e-05	0.00053	-0.00018	-6e-05	-3e-05	4
19547	0	-2e-05	7e-05	0.00013	0.00088	0.00049	3e-05	2e-05	4
19548	0	-2e-05	7e-05	0.00013	0.00088	0.00049	3e-05	2e-05	4
19549	0	-2e-05	7e-05	0.00013	0.00088	0.00049	3e-05	2e-05	4
19550	0	-2e-05	7e-05	0.00013	0.00088	0.00049	3e-05	2e-05	4
19551	0	-2e-05	7e-05	0.00013	0.00088	0.00049	3e-05	2e-05	4
19552	0	-2e-05	7e-05	0.00013	0.00088	0.00049	3e-05	2e-05	4
19553	0	-2e-05	7e-05	0.00013	0.00088	0.00049	3e-05	2e-05	4
19554	0	-2e-05	7e-05	0.00013	0.00088	0.00049	3e-05	2e-05	4
19555	0	-2e-05	7e-05	0.00013	0.00088	0.00049	3e-05	2e-05	4
19556	0	-2e-05	7e-05	0.00013	0.00088	0.00049	3e-05	2e-05	4
19557	0	-2e-05	7e-05	0.00013	0.00088	0.00049	3e-05	2e-05	4
19558	-3e-05	-5e-05	-2e-05	6e-05	-0.00043	-0.00038	-8e-05	-4e-05	4
19559	-3e-05	-5e-05	-2e-05	6e-05	-0.00043	-0.00038	-8e-05	-4e-05	4
19560	-3e-05	-5e-05	-2e-05	6e-05	-0.00043	-0.00038	-8e-05	-4e-05	4
19561	-3e-05	-5e-05	-2e-05	6e-05	-0.00043	-0.00038	-8e-05	-4e-05	4
19562	-3e-05	-5e-05	-2e-05	6e-05	-0.00043	-0.00038	-8e-05	-4e-05	4
19563	-3e-05	-5e-05	-2e-05	6e-05	-0.00043	-0.00038	-8e-05	-4e-05	4
19564	-3e-05	-5e-05	-2e-05	6e-05	-0.00043	-0.00038	-8e-05	-4e-05	4
19565	-3e-05	-5e-05	-2e-05	6e-05	-0.00043	-0.00038	-8e-05	-4e-05	4
19566	-3e-05	-5e-05	-2e-05	6e-05	-0.00043	-0.00038	-8e-05	-4e-05	4
19567	-6e-05	-4e-05	-4e-05	-4e-05	-8e-05	-0.00042	0	-4e-05	4
19568	-6e-05	-4e-05	-4e-05	-4e-05	-8e-05	-0.00042	0	-4e-05	4
19569	-6e-05	-4e-05	-4e-05	-4e-05	-8e-05	-0.00042	0	-4e-05	4
19570	-6e-05	-4e-05	-4e-05	-4e-05	-8e-05	-0.00042	0	-4e-05	4
19571	-6e-05	-4e-05	-4e-05	-4e-05	-8e-05	-0.00042	0	-4e-05	4
19572	-6e-05	-4e-05	-4e-05	-4e-05	-8e-05	-0.00042	0	-4e-05	4
19573	-6e-05	-4e-05	-4e-05	-4e-05	-8e-05	-0.00042	0	-4e-05	4
19574	-6e-05	-4e-05	-4e-05	-4e-05	-8e-05	-0.00042	0	-4e-05	4
19575	-6e-05	-4e-05	-4e-05	-4e-05	-8e-05	-0.00042	0	-4e-05	4
19576	-6e-05	-4e-05	-4e-05	-4e-05	-8e-05	-0.00042	0	-4e-05	4
19577	-6e-05	-4e-05	-4e-05	-4e-05	-8e-05	-0.00042	0	-4e-05	4
19578	-6e-05	-4e-05	-4e-05	-4e-05	-8e-05	-0.00042	0	-4e-05	4
19579	-6e-05	-4e-05	-4e-05	-4e-05	-8e-05	-0.00042	0	-4e-05	4
19580	-6e-05	-4e-05	-4e-05	-4e-05	-8e-05	-0.00042	0	-4e-05	4
19581	-6e-05	-4e-05	-4e-05	-4e-05	-8e-05	-0.00042	0	-4e-05	4
19582	-6e-05	-4e-05	-4e-05	-4e-05	-8e-05	-0.00042	0	-4e-05	4
19583	-6e-05	-4e-05	-4e-05	-4e-05	-8e-05	-0.00042	0	-4e-05	4
19584	-6e-05	-4e-05	-4e-05	-4e-05	-8e-05	-0.00042	0	-4e-05	4
19585	-6e-05	-4e-05	-4e-05	-4e-05	-8e-05	-0.00042	0	-4e-05	4
19586	-6e-05	-4e-05	-4e-05	-4e-05	-8e-05	-0.00042	0	-4e-05	4
19588	-6e-05	-4e-05	-4e-05	-4e-05	-8e-05	-0.00042	0	-4e-05	4
19589	-5e-05	1e-05	0.0002	-0.00014	-0.00034	0	-4e-05	-1e-05	4
19590	0.0001	0.00016	0.0001	0.00088	-1e-05	0.00045	0.00022	0.00012	4
19591	0	-4e-05	-9e-05	-8e-05	-0.00031	-0.00024	1e-05	-2e-05	4
19592	0	-4e-05	-9e-05	-8e-05	-0.00031	-0.00024	1e-05	-2e-05	4
19593	0	-4e-05	-9e-05	-8e-05	-0.00031	-0.00024	1e-05	-2e-05	4
19594	0	-4e-05	-9e-05	-8e-05	-0.00031	-0.00024	1e-05	-2e-05	4
19595	0	-4e-05	-9e-05	-8e-05	-0.00031	-0.00024	1e-05	-2e-05	4
19596	0	-4e-05	-9e-05	-8e-05	-0.00031	-0.00024	1e-05	-2e-05	4
19597	0	-4e-05	-9e-05	-8e-05	-0.00031	-0.00024	1e-05	-2e-05	4
19599	0	-4e-05	-9e-05	-8e-05	-0.00031	-0.00024	1e-05	-2e-05	4
19600	0	-4e-05	-9e-05	-8e-05	-0.00031	-0.00024	1e-05	-2e-05	4
19601	0	-4e-05	-9e-05	-8e-05	-0.00031	-0.00024	1e-05	-2e-05	4
19602	0	-4e-05	-9e-05	-8e-05	-0.00031	-0.00024	1e-05	-2e-05	4
19603	0	-4e-05	-9e-05	-8e-05	-0.00031	-0.00024	1e-05	-2e-05	4
19604	2e-05	1e-05	-6e-05	-7e-05	-0.0002	-0.00013	7e-05	-1e-05	4
19605	-5e-05	-8e-05	-6e-05	-0.00031	-0.00062	-0.00041	-0.00011	-5e-05	4
19606	-1e-05	-3e-05	-4e-05	-0.00014	-0.0004	0.00017	-3e-05	-1e-05	4
19607	-1e-05	-3e-05	-4e-05	-0.00014	-0.0004	0.00017	-3e-05	-1e-05	4
19608	-1e-05	-3e-05	-4e-05	-0.00014	-0.0004	0.00017	-3e-05	-1e-05	4
19609	-1e-05	-3e-05	-4e-05	-0.00014	-0.0004	0.00017	-3e-05	-1e-05	4
19610	-1e-05	-3e-05	-4e-05	-0.00014	-0.0004	0.00017	-3e-05	-1e-05	4
19611	-1e-05	-3e-05	-4e-05	-0.00014	-0.0004	0.00017	-3e-05	-1e-05	4
19612	-1e-05	-3e-05	-4e-05	-0.00014	-0.0004	0.00017	-3e-05	-1e-05	4
19613	-1e-05	-3e-05	-4e-05	-0.00014	-0.0004	0.00017	-3e-05	-1e-05	4
19614	-1e-05	-3e-05	-4e-05	-0.00014	-0.0004	0.00017	-3e-05	-1e-05	4
19615	-1e-05	-3e-05	-4e-05	-0.00014	-0.0004	0.00017	-3e-05	-1e-05	4
19616	-1e-05	-3e-05	-4e-05	-0.00014	-0.0004	0.00017	-3e-05	-1e-05	4
19617	-1e-05	-3e-05	-4e-05	-0.00014	-0.0004	0.00017	-3e-05	-1e-05	4
19618	-1e-05	-3e-05	-4e-05	-0.00014	-0.0004	0.00017	-3e-05	-1e-05	4
19619	-1e-05	-3e-05	-4e-05	-0.00014	-0.0004	0.00017	-3e-05	-1e-05	4
19620	-1e-05	-3e-05	-4e-05	-0.00014	-0.0004	0.00017	-3e-05	-1e-05	4
19621	-1e-05	-3e-05	-4e-05	-0.00014	-0.0004	0.00017	-3e-05	-1e-05	4
19622	-1e-05	-3e-05	-4e-05	-0.00014	-0.0004	0.00017	-3e-05	-1e-05	4
19623	-1e-05	-3e-05	-4e-05	-0.00014	-0.0004	0.00017	-3e-05	-1e-05	4
19624	-1e-05	-3e-05	-4e-05	-0.00014	-0.0004	0.00017	-3e-05	-1e-05	4
19625	-1e-05	-3e-05	-4e-05	-0.00014	-0.0004	0.00017	-3e-05	-1e-05	4
19626	-1e-05	-3e-05	-4e-05	-0.00014	-0.0004	0.00017	-3e-05	-1e-05	4
19627	1e-05	-1e-05	0	-8e-05	0.00014	0.00011	-2e-05	0	4
19628	1e-05	-1e-05	0	-8e-05	0.00014	0.00011	-2e-05	0	4
19629	1e-05	4e-05	9e-05	0.00012	0.00014	0.00031	-1e-05	2e-05	4
19630	1e-05	4e-05	9e-05	0.00012	0.00014	0.00031	-1e-05	2e-05	4
19631	1e-05	4e-05	9e-05	0.00012	0.00014	0.00031	-1e-05	2e-05	4
19632	1e-05	4e-05	9e-05	0.00012	0.00014	0.00031	-1e-05	2e-05	4
19633	1e-05	4e-05	9e-05	0.00012	0.00014	0.00031	-1e-05	2e-05	4
19634	1e-05	4e-05	9e-05	0.00012	0.00014	0.00031	-1e-05	2e-05	4
19635	1e-05	4e-05	9e-05	0.00012	0.00014	0.00031	-1e-05	2e-05	4
19636	1e-05	4e-05	9e-05	0.00012	0.00014	0.00031	-1e-05	2e-05	4
19638	1e-05	4e-05	9e-05	0.00012	0.00014	0.00031	-1e-05	2e-05	4
19639	1e-05	4e-05	9e-05	0.00012	0.00014	0.00031	-1e-05	2e-05	4
19640	1e-05	4e-05	9e-05	0.00012	0.00014	0.00031	-1e-05	2e-05	4
19641	1e-05	4e-05	9e-05	0.00012	0.00014	0.00031	-1e-05	2e-05	4
19642	-3e-05	-8e-05	-0.00012	-0.00028	-7e-05	0.00013	-9e-05	-7e-05	4
19643	-3e-05	-8e-05	-0.00012	-0.00028	-7e-05	0.00013	-9e-05	-7e-05	4
19644	2e-05	3e-05	0.00016	0.0002	-0.00023	0.00084	0.00022	5e-05	4
19645	2e-05	3e-05	0.00016	0.0002	-0.00023	0.00084	0.00022	5e-05	4
19646	2e-05	3e-05	0.00016	0.0002	-0.00023	0.00084	0.00022	5e-05	4
19647	2e-05	3e-05	0.00016	0.0002	-0.00023	0.00084	0.00022	5e-05	4
19648	2e-05	3e-05	0.00016	0.0002	-0.00023	0.00084	0.00022	5e-05	4
19649	2e-05	3e-05	0.00016	0.0002	-0.00023	0.00084	0.00022	5e-05	4
19650	2e-05	3e-05	0.00016	0.0002	-0.00023	0.00084	0.00022	5e-05	4
19651	2e-05	3e-05	0.00016	0.0002	-0.00023	0.00084	0.00022	5e-05	4
19652	2e-05	3e-05	0.00016	0.0002	-0.00023	0.00084	0.00022	5e-05	4
19653	2e-05	3e-05	0.00016	0.0002	-0.00023	0.00084	0.00022	5e-05	4
19654	2e-05	3e-05	0.00016	0.0002	-0.00023	0.00084	0.00022	5e-05	4
19655	2e-05	3e-05	0.00016	0.0002	-0.00023	0.00084	0.00022	5e-05	4
19656	2e-05	3e-05	0.00016	0.0002	-0.00023	0.00084	0.00022	5e-05	4
19657	2e-05	3e-05	0.00016	0.0002	-0.00023	0.00084	0.00022	5e-05	4
19658	2e-05	3e-05	0.00016	0.0002	-0.00023	0.00084	0.00022	5e-05	4
19659	2e-05	3e-05	0.00016	0.0002	-0.00023	0.00084	0.00022	5e-05	4
19660	2e-05	3e-05	0.00016	0.0002	-0.00023	0.00084	0.00022	5e-05	4
19661	2e-05	3e-05	0.00016	0.0002	-0.00023	0.00084	0.00022	5e-05	4
19662	2e-05	3e-05	0.00016	0.0002	-0.00023	0.00084	0.00022	5e-05	4
19663	2e-05	3e-05	0.00016	0.0002	-0.00023	0.00084	0.00022	5e-05	4
19664	2e-05	3e-05	0.00016	0.0002	-0.00023	0.00084	0.00022	5e-05	4
19665	2e-05	1e-05	-4e-05	0.0003	-0.00014	6e-05	0.0001	4e-05	4
19666	-1e-05	-2e-05	-3e-05	-0.00017	0.00018	-2e-05	-2e-05	-3e-05	4
19667	3e-05	3e-05	2e-05	-0.00012	-0.00089	0.00017	7e-05	7e-05	4
19668	3e-05	3e-05	2e-05	-0.00012	-0.00089	0.00017	7e-05	7e-05	4
19669	3e-05	3e-05	2e-05	-0.00012	-0.00089	0.00017	7e-05	7e-05	4
19670	3e-05	3e-05	2e-05	-0.00012	-0.00089	0.00017	7e-05	7e-05	4
19671	3e-05	3e-05	2e-05	-0.00012	-0.00089	0.00017	7e-05	7e-05	4
19672	3e-05	3e-05	2e-05	-0.00012	-0.00089	0.00017	7e-05	7e-05	4
19673	3e-05	3e-05	2e-05	-0.00012	-0.00089	0.00017	7e-05	7e-05	4
19674	3e-05	3e-05	2e-05	-0.00012	-0.00089	0.00017	7e-05	7e-05	4
19675	3e-05	3e-05	2e-05	-0.00012	-0.00089	0.00017	7e-05	7e-05	4
19676	3e-05	3e-05	2e-05	-0.00012	-0.00089	0.00017	7e-05	7e-05	4
19677	3e-05	3e-05	2e-05	-0.00012	-0.00089	0.00017	7e-05	7e-05	4
19678	-3e-05	-7e-05	-7e-05	-0.00023	-0.00011	-8e-05	-6e-05	-5e-05	4
19679	-3e-05	-7e-05	-7e-05	-0.00023	-0.00011	-8e-05	-6e-05	-5e-05	4
19680	-3e-05	-7e-05	-7e-05	-0.00023	-0.00011	-8e-05	-6e-05	-5e-05	4
19681	-3e-05	-7e-05	-7e-05	-0.00023	-0.00011	-8e-05	-6e-05	-5e-05	4
19682	-3e-05	-7e-05	-7e-05	-0.00023	-0.00011	-8e-05	-6e-05	-5e-05	4
19683	-3e-05	-7e-05	-7e-05	-0.00023	-0.00011	-8e-05	-6e-05	-5e-05	4
19684	-3e-05	-7e-05	-7e-05	-0.00023	-0.00011	-8e-05	-6e-05	-5e-05	4
19685	-3e-05	-7e-05	-7e-05	-0.00023	-0.00011	-8e-05	-6e-05	-5e-05	4
19687	-5e-05	-4e-05	-0.00018	-0.00051	-0.00033	-0.00064	-0.00018	-6e-05	4
19690	-5e-05	-4e-05	-0.00018	-0.00051	-0.00033	-0.00064	-0.00018	-6e-05	4
19691	-5e-05	-4e-05	-0.00018	-0.00051	-0.00033	-0.00064	-0.00018	-6e-05	4
19692	-5e-05	-4e-05	-0.00018	-0.00051	-0.00033	-0.00064	-0.00018	-6e-05	4
19693	-5e-05	-4e-05	-0.00018	-0.00051	-0.00033	-0.00064	-0.00018	-6e-05	4
19694	-5e-05	-4e-05	-0.00018	-0.00051	-0.00033	-0.00064	-0.00018	-6e-05	4
19695	-5e-05	-4e-05	-0.00018	-0.00051	-0.00033	-0.00064	-0.00018	-6e-05	4
19696	-5e-05	-4e-05	-0.00018	-0.00051	-0.00033	-0.00064	-0.00018	-6e-05	4
19697	-5e-05	-4e-05	-0.00018	-0.00051	-0.00033	-0.00064	-0.00018	-6e-05	4
19698	-5e-05	-4e-05	-0.00018	-0.00051	-0.00033	-0.00064	-0.00018	-6e-05	4
19699	-5e-05	-4e-05	-0.00018	-0.00051	-0.00033	-0.00064	-0.00018	-6e-05	4
19700	-5e-05	-4e-05	-0.00018	-0.00051	-0.00033	-0.00064	-0.00018	-6e-05	4
19701	-5e-05	-4e-05	-0.00018	-0.00051	-0.00033	-0.00064	-0.00018	-6e-05	4
19702	-2e-05	0	-3e-05	4e-05	0.00052	-0.0001	-4e-05	-1e-05	4
19703	-1e-05	0	1e-05	-5e-05	0.00021	-0.00016	-0.00011	-5e-05	4
19704	0	-3e-05	-2e-05	0.00016	-0.00034	-0.00043	0.0001	-1e-05	4
19705	0	-3e-05	-2e-05	0.00016	-0.00034	-0.00043	0.0001	-1e-05	4
19706	0	-3e-05	-2e-05	0.00016	-0.00034	-0.00043	0.0001	-1e-05	4
19707	0	-3e-05	-2e-05	0.00016	-0.00034	-0.00043	0.0001	-1e-05	4
19708	0	-3e-05	-2e-05	0.00016	-0.00034	-0.00043	0.0001	-1e-05	4
19709	0	-3e-05	-2e-05	0.00016	-0.00034	-0.00043	0.0001	-1e-05	4
19710	0	-3e-05	-2e-05	0.00016	-0.00034	-0.00043	0.0001	-1e-05	4
19711	0	-3e-05	-2e-05	0.00016	-0.00034	-0.00043	0.0001	-1e-05	4
19712	0	-3e-05	-2e-05	0.00016	-0.00034	-0.00043	0.0001	-1e-05	4
19713	0	-3e-05	-2e-05	0.00016	-0.00034	-0.00043	0.0001	-1e-05	4
19714	0	-3e-05	-2e-05	0.00016	-0.00034	-0.00043	0.0001	-1e-05	4
19715	0	-3e-05	-2e-05	0.00016	-0.00034	-0.00043	0.0001	-1e-05	4
19716	0	-3e-05	-2e-05	0.00016	-0.00034	-0.00043	0.0001	-1e-05	4
19717	0	-3e-05	-2e-05	0.00016	-0.00034	-0.00043	0.0001	-1e-05	4
19718	0	-3e-05	-2e-05	0.00016	-0.00034	-0.00043	0.0001	-1e-05	4
19719	0	-3e-05	-2e-05	0.00016	-0.00034	-0.00043	0.0001	-1e-05	4
19720	0	-3e-05	-2e-05	0.00016	-0.00034	-0.00043	0.0001	-1e-05	4
19721	0	-3e-05	-2e-05	0.00016	-0.00034	-0.00043	0.0001	-1e-05	4
19722	0	-3e-05	-2e-05	0.00016	-0.00034	-0.00043	0.0001	-1e-05	4
19723	0	-3e-05	-2e-05	0.00016	-0.00034	-0.00043	0.0001	-1e-05	4
19724	-4e-05	-6e-05	-0.00013	-0.00049	4e-05	-0.00079	-0.00015	-7e-05	4
19725	0	-1e-05	-1e-05	0.00012	0.00055	0.00061	4e-05	1e-05	4
19726	0	-2e-05	-5e-05	-2e-05	0.00034	1e-05	-0.00014	-4e-05	4
19727	0	-2e-05	-5e-05	-2e-05	0.00034	1e-05	-0.00014	-4e-05	4
19728	0	-2e-05	-5e-05	-2e-05	0.00034	1e-05	-0.00014	-4e-05	4
19729	0	-2e-05	-5e-05	-2e-05	0.00034	1e-05	-0.00014	-4e-05	4
19730	0	-2e-05	-5e-05	-2e-05	0.00034	1e-05	-0.00014	-4e-05	4
19731	0	-2e-05	-5e-05	-2e-05	0.00034	1e-05	-0.00014	-4e-05	4
19732	0	-2e-05	-5e-05	-2e-05	0.00034	1e-05	-0.00014	-4e-05	4
19733	0	-2e-05	-5e-05	-2e-05	0.00034	1e-05	-0.00014	-4e-05	4
19734	0	-2e-05	-5e-05	-2e-05	0.00034	1e-05	-0.00014	-4e-05	4
19735	0	-2e-05	-5e-05	-2e-05	0.00034	1e-05	-0.00014	-4e-05	4
19736	0	-2e-05	-5e-05	-2e-05	0.00034	1e-05	-0.00014	-4e-05	4
19738	0	-2e-05	-5e-05	-2e-05	0.00034	1e-05	-0.00014	-4e-05	4
19739	0	-2e-05	-5e-05	-2e-05	0.00034	1e-05	-0.00014	-4e-05	4
19740	0	-2e-05	-5e-05	-2e-05	0.00034	1e-05	-0.00014	-4e-05	4
19741	0	-2e-05	-5e-05	-2e-05	0.00034	1e-05	-0.00014	-4e-05	4
19742	0	-2e-05	-5e-05	-2e-05	0.00034	1e-05	-0.00014	-4e-05	4
19743	0	-2e-05	-5e-05	-2e-05	0.00034	1e-05	-0.00014	-4e-05	4
19744	0	-2e-05	-5e-05	-2e-05	0.00034	1e-05	-0.00014	-4e-05	4
19745	0	-2e-05	-5e-05	-2e-05	0.00034	1e-05	-0.00014	-4e-05	4
19746	0	-2e-05	-5e-05	-2e-05	0.00034	1e-05	-0.00014	-4e-05	4
19747	0	-2e-05	-5e-05	-2e-05	0.00034	1e-05	-0.00014	-4e-05	4
19748	-7e-05	-7e-05	-0.00019	-0.00054	0.00029	-0.00058	-0.0001	-9e-05	4
19749	-2e-05	-2e-05	6e-05	-3e-05	0.00026	0.00024	-8e-05	-3e-05	4
19750	-2e-05	-2e-05	6e-05	-3e-05	0.00026	0.00024	-8e-05	-3e-05	4
19751	-2e-05	-2e-05	6e-05	-3e-05	0.00026	0.00024	-8e-05	-3e-05	4
19752	-2e-05	-2e-05	6e-05	-3e-05	0.00026	0.00024	-8e-05	-3e-05	4
19753	-2e-05	-2e-05	6e-05	-3e-05	0.00026	0.00024	-8e-05	-3e-05	4
19754	-2e-05	-2e-05	6e-05	-3e-05	0.00026	0.00024	-8e-05	-3e-05	4
19755	-2e-05	-2e-05	6e-05	-3e-05	0.00026	0.00024	-8e-05	-3e-05	4
19756	-2e-05	-2e-05	6e-05	-3e-05	0.00026	0.00024	-8e-05	-3e-05	4
19757	-2e-05	-2e-05	6e-05	-3e-05	0.00026	0.00024	-8e-05	-3e-05	4
19758	-2e-05	-2e-05	6e-05	-3e-05	0.00026	0.00024	-8e-05	-3e-05	4
19759	-2e-05	-2e-05	6e-05	-3e-05	0.00026	0.00024	-8e-05	-3e-05	4
19760	-2e-05	-2e-05	6e-05	-3e-05	0.00026	0.00024	-8e-05	-3e-05	4
19761	-2e-05	-2e-05	6e-05	-3e-05	0.00026	0.00024	-8e-05	-3e-05	4
19762	2e-05	6e-05	0.00015	-0.00032	-0.00046	0.00063	6e-05	4e-05	4
19763	2e-05	6e-05	0.00015	-0.00032	-0.00046	0.00063	6e-05	4e-05	4
19764	-6e-05	-6e-05	-6e-05	7e-05	0.00052	0.00012	-3e-05	-2e-05	4
19765	-6e-05	-6e-05	-6e-05	7e-05	0.00052	0.00012	-3e-05	-2e-05	4
19766	-6e-05	-6e-05	-6e-05	7e-05	0.00052	0.00012	-3e-05	-2e-05	4
19767	-6e-05	-6e-05	-6e-05	7e-05	0.00052	0.00012	-3e-05	-2e-05	4
19768	-6e-05	-6e-05	-6e-05	7e-05	0.00052	0.00012	-3e-05	-2e-05	4
19769	-6e-05	-6e-05	-6e-05	7e-05	0.00052	0.00012	-3e-05	-2e-05	4
19770	-6e-05	-6e-05	-6e-05	7e-05	0.00052	0.00012	-3e-05	-2e-05	4
19771	-6e-05	-6e-05	-6e-05	7e-05	0.00052	0.00012	-3e-05	-2e-05	4
19772	-6e-05	-6e-05	-6e-05	7e-05	0.00052	0.00012	-3e-05	-2e-05	4
19773	-6e-05	-6e-05	-6e-05	7e-05	0.00052	0.00012	-3e-05	-2e-05	4
19774	-6e-05	-6e-05	-6e-05	7e-05	0.00052	0.00012	-3e-05	-2e-05	4
19775	-6e-05	-6e-05	-6e-05	7e-05	0.00052	0.00012	-3e-05	-2e-05	4
19776	-6e-05	-6e-05	-6e-05	7e-05	0.00052	0.00012	-3e-05	-2e-05	4
19777	-6e-05	-6e-05	-6e-05	7e-05	0.00052	0.00012	-3e-05	-2e-05	4
19778	-6e-05	-6e-05	-6e-05	7e-05	0.00052	0.00012	-3e-05	-2e-05	4
19779	-6e-05	-6e-05	-6e-05	7e-05	0.00052	0.00012	-3e-05	-2e-05	4
19780	-6e-05	-6e-05	-6e-05	7e-05	0.00052	0.00012	-3e-05	-2e-05	4
19781	-6e-05	-6e-05	-6e-05	7e-05	0.00052	0.00012	-3e-05	-2e-05	4
19782	-6e-05	-6e-05	-6e-05	7e-05	0.00052	0.00012	-3e-05	-2e-05	4
19783	-6e-05	-6e-05	-6e-05	7e-05	0.00052	0.00012	-3e-05	-2e-05	4
19784	-6e-05	-6e-05	-6e-05	7e-05	0.00052	0.00012	-3e-05	-2e-05	4
19785	-6e-05	-6e-05	-6e-05	7e-05	0.00052	0.00012	-3e-05	-2e-05	4
19786	3e-05	4e-05	8e-05	6e-05	-0.00064	0.00023	1e-05	3e-05	4
19789	1e-05	3e-05	1e-05	9e-05	-0.00039	-7e-05	-5e-05	-3e-05	4
19790	1e-05	3e-05	1e-05	9e-05	-0.00039	-7e-05	-5e-05	-3e-05	4
19791	1e-05	3e-05	1e-05	9e-05	-0.00039	-7e-05	-5e-05	-3e-05	4
19792	1e-05	3e-05	1e-05	9e-05	-0.00039	-7e-05	-5e-05	-3e-05	4
19793	1e-05	3e-05	1e-05	9e-05	-0.00039	-7e-05	-5e-05	-3e-05	4
19794	1e-05	3e-05	1e-05	9e-05	-0.00039	-7e-05	-5e-05	-3e-05	4
19795	1e-05	3e-05	1e-05	9e-05	-0.00039	-7e-05	-5e-05	-3e-05	4
19796	1e-05	3e-05	1e-05	9e-05	-0.00039	-7e-05	-5e-05	-3e-05	4
19797	1e-05	3e-05	1e-05	9e-05	-0.00039	-7e-05	-5e-05	-3e-05	4
19798	1e-05	3e-05	1e-05	9e-05	-0.00039	-7e-05	-5e-05	-3e-05	4
19799	1e-05	3e-05	1e-05	9e-05	-0.00039	-7e-05	-5e-05	-3e-05	4
19800	1e-05	3e-05	1e-05	9e-05	-0.00039	-7e-05	-5e-05	-3e-05	4
19801	1e-05	3e-05	1e-05	9e-05	-0.00039	-7e-05	-5e-05	-3e-05	4
19802	1e-05	3e-05	1e-05	9e-05	-0.00039	-7e-05	-5e-05	-3e-05	4
19803	1e-05	3e-05	1e-05	9e-05	-0.00039	-7e-05	-5e-05	-3e-05	4
19804	1e-05	3e-05	1e-05	9e-05	-0.00039	-7e-05	-5e-05	-3e-05	4
19805	1e-05	3e-05	1e-05	9e-05	-0.00039	-7e-05	-5e-05	-3e-05	4
19806	1e-05	3e-05	1e-05	9e-05	-0.00039	-7e-05	-5e-05	-3e-05	4
19807	1e-05	3e-05	1e-05	9e-05	-0.00039	-7e-05	-5e-05	-3e-05	4
19808	1e-05	3e-05	1e-05	9e-05	-0.00039	-7e-05	-5e-05	-3e-05	4
19809	1e-05	3e-05	1e-05	9e-05	-0.00039	-7e-05	-5e-05	-3e-05	4
19810	1e-05	3e-05	1e-05	9e-05	-0.00039	-7e-05	-5e-05	-3e-05	4
19811	1e-05	3e-05	1e-05	9e-05	-0.00039	-7e-05	-5e-05	-3e-05	4
19812	1e-05	3e-05	1e-05	9e-05	-0.00039	-7e-05	-5e-05	-3e-05	4
19813	1e-05	3e-05	1e-05	9e-05	-0.00039	-7e-05	-5e-05	-3e-05	4
19814	1e-05	3e-05	1e-05	9e-05	-0.00039	-7e-05	-5e-05	-3e-05	4
19815	1e-05	3e-05	1e-05	9e-05	-0.00039	-7e-05	-5e-05	-3e-05	4
19816	1e-05	3e-05	1e-05	9e-05	-0.00039	-7e-05	-5e-05	-3e-05	4
19817	1e-05	3e-05	1e-05	9e-05	-0.00039	-7e-05	-5e-05	-3e-05	4
19818	1e-05	3e-05	1e-05	9e-05	-0.00039	-7e-05	-5e-05	-3e-05	4
19819	1e-05	3e-05	1e-05	9e-05	-0.00039	-7e-05	-5e-05	-3e-05	4
19821	1e-05	3e-05	1e-05	9e-05	-0.00039	-7e-05	-5e-05	-3e-05	4
19822	1e-05	3e-05	1e-05	9e-05	-0.00039	-7e-05	-5e-05	-3e-05	4
19823	-1e-05	-3e-05	2e-05	0.00029	0.00018	-0.00028	-6e-05	-5e-05	4
19824	-1e-05	-3e-05	2e-05	0.00029	0.00018	-0.00028	-6e-05	-5e-05	4
19825	-3e-05	-1e-05	-6e-05	1e-05	0.00033	0.00011	-4e-05	-6e-05	4
19826	-4e-05	-4e-05	-7e-05	-0.00014	-0.00044	-0.00024	-3e-05	-2e-05	4
19827	-4e-05	-4e-05	-7e-05	-0.00014	-0.00044	-0.00024	-3e-05	-2e-05	4
19828	-4e-05	-4e-05	-7e-05	-0.00014	-0.00044	-0.00024	-3e-05	-2e-05	4
19829	1e-05	3e-05	0.0001	9e-05	6e-05	0.00043	8e-05	2e-05	4
19830	1e-05	3e-05	0.0001	9e-05	6e-05	0.00043	8e-05	2e-05	4
19831	1e-05	3e-05	0.0001	9e-05	6e-05	0.00043	8e-05	2e-05	4
19832	1e-05	3e-05	0.0001	9e-05	6e-05	0.00043	8e-05	2e-05	4
19833	1e-05	3e-05	0.0001	9e-05	6e-05	0.00043	8e-05	2e-05	4
19834	1e-05	3e-05	0.0001	9e-05	6e-05	0.00043	8e-05	2e-05	4
19835	1e-05	3e-05	0.0001	9e-05	6e-05	0.00043	8e-05	2e-05	4
19836	1e-05	3e-05	0.0001	9e-05	6e-05	0.00043	8e-05	2e-05	4
19839	1e-05	3e-05	0.0001	9e-05	6e-05	0.00043	8e-05	2e-05	4
19840	1e-05	3e-05	0.0001	9e-05	6e-05	0.00043	8e-05	2e-05	4
19841	1e-05	3e-05	0.0001	9e-05	6e-05	0.00043	8e-05	2e-05	4
19842	1e-05	3e-05	0.0001	9e-05	6e-05	0.00043	8e-05	2e-05	4
19843	1e-05	3e-05	0.0001	9e-05	6e-05	0.00043	8e-05	2e-05	4
19844	2e-05	1e-05	1e-05	1e-05	-0.00032	0.00036	0.00013	6e-05	4
19845	-6e-05	-6e-05	-8e-05	9e-05	0.00023	-8e-05	-6e-05	-2e-05	4
19846	4e-05	1e-05	-3e-05	-0.00028	0.00011	0.00031	-7e-05	1e-05	4
19847	4e-05	1e-05	-3e-05	-0.00028	0.00011	0.00031	-7e-05	1e-05	4
19848	4e-05	1e-05	-3e-05	-0.00028	0.00011	0.00031	-7e-05	1e-05	4
19849	4e-05	1e-05	-3e-05	-0.00028	0.00011	0.00031	-7e-05	1e-05	4
19850	4e-05	1e-05	-3e-05	-0.00028	0.00011	0.00031	-7e-05	1e-05	4
19851	4e-05	1e-05	-3e-05	-0.00028	0.00011	0.00031	-7e-05	1e-05	4
19852	4e-05	1e-05	-3e-05	-0.00028	0.00011	0.00031	-7e-05	1e-05	4
19853	4e-05	1e-05	-3e-05	-0.00028	0.00011	0.00031	-7e-05	1e-05	4
19854	4e-05	1e-05	-3e-05	-0.00028	0.00011	0.00031	-7e-05	1e-05	4
19855	4e-05	1e-05	-3e-05	-0.00028	0.00011	0.00031	-7e-05	1e-05	4
19856	4e-05	1e-05	-3e-05	-0.00028	0.00011	0.00031	-7e-05	1e-05	4
19857	4e-05	1e-05	-3e-05	-0.00028	0.00011	0.00031	-7e-05	1e-05	4
19858	4e-05	1e-05	-3e-05	-0.00028	0.00011	0.00031	-7e-05	1e-05	4
19859	4e-05	1e-05	-3e-05	-0.00028	0.00011	0.00031	-7e-05	1e-05	4
19860	4e-05	1e-05	-3e-05	-0.00028	0.00011	0.00031	-7e-05	1e-05	4
19861	4e-05	1e-05	-3e-05	-0.00028	0.00011	0.00031	-7e-05	1e-05	4
19862	4e-05	1e-05	-3e-05	-0.00028	0.00011	0.00031	-7e-05	1e-05	4
19863	4e-05	1e-05	-3e-05	-0.00028	0.00011	0.00031	-7e-05	1e-05	4
19864	4e-05	1e-05	-3e-05	-0.00028	0.00011	0.00031	-7e-05	1e-05	4
19865	4e-05	1e-05	-3e-05	-0.00028	0.00011	0.00031	-7e-05	1e-05	4
19866	4e-05	1e-05	-3e-05	-0.00028	0.00011	0.00031	-7e-05	1e-05	4
19867	4e-05	1e-05	-3e-05	-0.00028	0.00011	0.00031	-7e-05	1e-05	4
19868	-4e-05	-7e-05	-0.0001	0.00019	-1e-05	-0.00053	-8e-05	-8e-05	4
19869	-4e-05	-7e-05	-0.0001	0.00019	-1e-05	-0.00053	-8e-05	-8e-05	4
19870	-1e-05	-5e-05	-0.00011	8e-05	0.00048	0.0001	3e-05	0	4
19871	-1e-05	-5e-05	-0.00011	8e-05	0.00048	0.0001	3e-05	0	4
19872	-1e-05	-5e-05	-0.00011	8e-05	0.00048	0.0001	3e-05	0	4
19873	-1e-05	-5e-05	-0.00011	8e-05	0.00048	0.0001	3e-05	0	4
19874	-1e-05	-5e-05	-0.00011	8e-05	0.00048	0.0001	3e-05	0	4
19875	-1e-05	-5e-05	-0.00011	8e-05	0.00048	0.0001	3e-05	0	4
19876	-1e-05	-5e-05	-0.00011	8e-05	0.00048	0.0001	3e-05	0	4
19877	-1e-05	-5e-05	-0.00011	8e-05	0.00048	0.0001	3e-05	0	4
19878	-1e-05	-5e-05	-0.00011	8e-05	0.00048	0.0001	3e-05	0	4
19879	-1e-05	-5e-05	-0.00011	8e-05	0.00048	0.0001	3e-05	0	4
19880	-1e-05	-5e-05	-0.00011	8e-05	0.00048	0.0001	3e-05	0	4
19881	4e-05	7e-05	4e-05	-2e-05	-0.00021	0	5e-05	2e-05	4
19882	4e-05	7e-05	4e-05	-2e-05	-0.00021	0	5e-05	2e-05	4
19883	4e-05	7e-05	4e-05	-2e-05	-0.00021	0	5e-05	2e-05	4
19884	4e-05	7e-05	4e-05	-2e-05	-0.00021	0	5e-05	2e-05	4
19885	4e-05	7e-05	4e-05	-2e-05	-0.00021	0	5e-05	2e-05	4
19886	4e-05	7e-05	4e-05	-2e-05	-0.00021	0	5e-05	2e-05	4
19889	4e-05	7e-05	4e-05	-2e-05	-0.00021	0	5e-05	2e-05	4
19890	4e-05	7e-05	4e-05	-2e-05	-0.00021	0	5e-05	2e-05	4
19891	4e-05	7e-05	4e-05	-2e-05	-0.00021	0	5e-05	2e-05	4
19892	4e-05	7e-05	4e-05	-2e-05	-0.00021	0	5e-05	2e-05	4
19893	4e-05	7e-05	4e-05	-2e-05	-0.00021	0	5e-05	2e-05	4
19894	4e-05	7e-05	4e-05	-2e-05	-0.00021	0	5e-05	2e-05	4
19895	4e-05	7e-05	4e-05	-2e-05	-0.00021	0	5e-05	2e-05	4
19896	4e-05	7e-05	4e-05	-2e-05	-0.00021	0	5e-05	2e-05	4
19897	4e-05	7e-05	4e-05	-2e-05	-0.00021	0	5e-05	2e-05	4
19898	4e-05	7e-05	4e-05	-2e-05	-0.00021	0	5e-05	2e-05	4
19899	4e-05	7e-05	4e-05	-2e-05	-0.00021	0	5e-05	2e-05	4
19900	4e-05	7e-05	4e-05	-2e-05	-0.00021	0	5e-05	2e-05	4
19901	4e-05	7e-05	4e-05	-2e-05	-0.00021	0	5e-05	2e-05	4
19902	4e-05	7e-05	4e-05	-2e-05	-0.00021	0	5e-05	2e-05	4
19903	4e-05	7e-05	4e-05	-2e-05	-0.00021	0	5e-05	2e-05	4
19904	4e-05	7e-05	4e-05	-2e-05	-0.00021	0	5e-05	2e-05	4
19905	-1e-05	2e-05	4e-05	-9e-05	-0.00041	-0.00037	3e-05	-2e-05	4
19906	1e-05	1e-05	0	-0.00021	0.00019	0.00013	5e-05	2e-05	4
19907	1e-05	1e-05	0	-0.00021	0.00019	0.00013	5e-05	2e-05	4
19908	0	1e-05	-3e-05	0.00013	8e-05	0.00012	5e-05	2e-05	4
19909	0	1e-05	-3e-05	0.00013	8e-05	0.00012	5e-05	2e-05	4
19910	0	1e-05	-3e-05	0.00013	8e-05	0.00012	5e-05	2e-05	4
19911	0	1e-05	-3e-05	0.00013	8e-05	0.00012	5e-05	2e-05	4
19912	0	1e-05	-3e-05	0.00013	8e-05	0.00012	5e-05	2e-05	4
19913	0	1e-05	-3e-05	0.00013	8e-05	0.00012	5e-05	2e-05	4
19914	0	1e-05	-3e-05	0.00013	8e-05	0.00012	5e-05	2e-05	4
19915	0	1e-05	-3e-05	0.00013	8e-05	0.00012	5e-05	2e-05	4
19916	0	1e-05	-3e-05	0.00013	8e-05	0.00012	5e-05	2e-05	4
19917	0	1e-05	-3e-05	0.00013	8e-05	0.00012	5e-05	2e-05	4
19918	0	1e-05	-3e-05	0.00013	8e-05	0.00012	5e-05	2e-05	4
19919	0	1e-05	-3e-05	0.00013	8e-05	0.00012	5e-05	2e-05	4
19920	0	1e-05	-3e-05	0.00013	8e-05	0.00012	5e-05	2e-05	4
19921	0	1e-05	-3e-05	0.00013	8e-05	0.00012	5e-05	2e-05	4
19922	0	1e-05	-3e-05	0.00013	8e-05	0.00012	5e-05	2e-05	4
19923	0	1e-05	-3e-05	0.00013	8e-05	0.00012	5e-05	2e-05	4
19924	0	1e-05	-3e-05	0.00013	8e-05	0.00012	5e-05	2e-05	4
19925	0	1e-05	-3e-05	0.00013	8e-05	0.00012	5e-05	2e-05	4
19926	0	1e-05	-3e-05	0.00013	8e-05	0.00012	5e-05	2e-05	4
19927	0	1e-05	-3e-05	0.00013	8e-05	0.00012	5e-05	2e-05	4
19928	0	1e-05	-3e-05	0.00013	8e-05	0.00012	5e-05	2e-05	4
19929	0	1e-05	-3e-05	0.00013	8e-05	0.00012	5e-05	2e-05	4
19930	0	1e-05	-3e-05	0.00013	8e-05	0.00012	5e-05	2e-05	4
19931	0	1e-05	-3e-05	0.00013	8e-05	0.00012	5e-05	2e-05	4
19932	0	1e-05	-3e-05	0.00013	8e-05	0.00012	5e-05	2e-05	4
19933	0	1e-05	-3e-05	0.00013	8e-05	0.00012	5e-05	2e-05	4
19934	0	1e-05	-3e-05	0.00013	8e-05	0.00012	5e-05	2e-05	4
19935	0	1e-05	-3e-05	0.00013	8e-05	0.00012	5e-05	2e-05	4
19936	0	1e-05	-3e-05	0.00013	8e-05	0.00012	5e-05	2e-05	4
19938	0	1e-05	-3e-05	0.00013	8e-05	0.00012	5e-05	2e-05	4
19939	0	1e-05	-3e-05	0.00013	8e-05	0.00012	5e-05	2e-05	4
19940	0	1e-05	-3e-05	0.00013	8e-05	0.00012	5e-05	2e-05	4
19941	0	1e-05	-3e-05	0.00013	8e-05	0.00012	5e-05	2e-05	4
19942	0	1e-05	-3e-05	0.00013	8e-05	0.00012	5e-05	2e-05	4
19943	-2e-05	-4e-05	-8e-05	-0.00011	-0.00019	-0.00033	-0.00014	-5e-05	4
19944	-4e-05	-7e-05	-7e-05	-0.00011	1e-05	-0.00018	-3e-05	-5e-05	4
19945	4e-05	3e-05	6e-05	0.00024	0.00054	0.00039	0.0001	4e-05	4
19946	0	0	0.00017	0	0.00033	0.00014	7e-05	4e-05	4
19947	0	0	0.00017	0	0.00033	0.00014	7e-05	4e-05	4
19948	0	0	0.00017	0	0.00033	0.00014	7e-05	4e-05	4
19949	-7e-05	-7e-05	-0.00015	-0.00051	-3e-05	0.00018	-0.0001	-6e-05	4
19950	-2e-05	2e-05	1e-05	0.00019	-0.0001	0.00025	6e-05	4e-05	4
19951	-2e-05	2e-05	1e-05	0.00019	-0.0001	0.00025	6e-05	4e-05	4
19952	-2e-05	2e-05	1e-05	0.00019	-0.0001	0.00025	6e-05	4e-05	4
19953	-2e-05	2e-05	1e-05	0.00019	-0.0001	0.00025	6e-05	4e-05	4
19954	-2e-05	2e-05	1e-05	0.00019	-0.0001	0.00025	6e-05	4e-05	4
19955	-2e-05	2e-05	1e-05	0.00019	-0.0001	0.00025	6e-05	4e-05	4
19956	-2e-05	2e-05	1e-05	0.00019	-0.0001	0.00025	6e-05	4e-05	4
19957	-2e-05	2e-05	1e-05	0.00019	-0.0001	0.00025	6e-05	4e-05	4
19958	-2e-05	2e-05	1e-05	0.00019	-0.0001	0.00025	6e-05	4e-05	4
19959	-2e-05	2e-05	1e-05	0.00019	-0.0001	0.00025	6e-05	4e-05	4
19960	-2e-05	2e-05	1e-05	0.00019	-0.0001	0.00025	6e-05	4e-05	4
19961	-2e-05	2e-05	1e-05	0.00019	-0.0001	0.00025	6e-05	4e-05	4
19962	-2e-05	2e-05	1e-05	0.00019	-0.0001	0.00025	6e-05	4e-05	4
19963	-2e-05	2e-05	1e-05	0.00019	-0.0001	0.00025	6e-05	4e-05	4
19964	5e-05	0	2e-05	0.00045	-0.00083	0.00051	0.0001	5e-05	4
19965	5e-05	0	2e-05	0.00045	-0.00083	0.00051	0.0001	5e-05	4
19966	1e-05	-6e-05	-5e-05	-0.00015	-0.00036	-0.00037	-3e-05	-3e-05	4
19967	1e-05	-6e-05	-5e-05	-0.00015	-0.00036	-0.00037	-3e-05	-3e-05	4
19968	1e-05	-6e-05	-5e-05	-0.00015	-0.00036	-0.00037	-3e-05	-3e-05	4
19969	1e-05	-6e-05	-5e-05	-0.00015	-0.00036	-0.00037	-3e-05	-3e-05	4
19970	1e-05	-6e-05	-5e-05	-0.00015	-0.00036	-0.00037	-3e-05	-3e-05	4
19971	1e-05	-6e-05	-5e-05	-0.00015	-0.00036	-0.00037	-3e-05	-3e-05	4
19973	1e-05	-6e-05	-5e-05	-0.00015	-0.00036	-0.00037	-3e-05	-3e-05	4
19974	1e-05	-6e-05	-5e-05	-0.00015	-0.00036	-0.00037	-3e-05	-3e-05	4
19975	1e-05	-6e-05	-5e-05	-0.00015	-0.00036	-0.00037	-3e-05	-3e-05	4
19976	1e-05	-6e-05	-5e-05	-0.00015	-0.00036	-0.00037	-3e-05	-3e-05	4
19977	1e-05	-6e-05	-5e-05	-0.00015	-0.00036	-0.00037	-3e-05	-3e-05	4
19978	1e-05	-6e-05	-5e-05	-0.00015	-0.00036	-0.00037	-3e-05	-3e-05	4
19979	1e-05	-6e-05	-5e-05	-0.00015	-0.00036	-0.00037	-3e-05	-3e-05	4
19980	1e-05	-6e-05	-5e-05	-0.00015	-0.00036	-0.00037	-3e-05	-3e-05	4
19981	1e-05	-6e-05	-5e-05	-0.00015	-0.00036	-0.00037	-3e-05	-3e-05	4
19982	1e-05	-6e-05	-5e-05	-0.00015	-0.00036	-0.00037	-3e-05	-3e-05	4
19983	1e-05	-6e-05	-5e-05	-0.00015	-0.00036	-0.00037	-3e-05	-3e-05	4
19984	1e-05	-6e-05	-5e-05	-0.00015	-0.00036	-0.00037	-3e-05	-3e-05	4
19985	1e-05	-6e-05	-5e-05	-0.00015	-0.00036	-0.00037	-3e-05	-3e-05	4
19986	1e-05	-6e-05	-5e-05	-0.00015	-0.00036	-0.00037	-3e-05	-3e-05	4
19989	-4e-05	-2e-05	-5e-05	4e-05	-0.00019	0.00025	-3e-05	-2e-05	4
19990	-4e-05	-2e-05	-5e-05	4e-05	-0.00019	0.00025	-3e-05	-2e-05	4
19991	-4e-05	-2e-05	-5e-05	4e-05	-0.00019	0.00025	-3e-05	-2e-05	4
19992	-4e-05	-2e-05	-5e-05	4e-05	-0.00019	0.00025	-3e-05	-2e-05	4
19993	-4e-05	-2e-05	-5e-05	4e-05	-0.00019	0.00025	-3e-05	-2e-05	4
19994	-4e-05	-2e-05	-5e-05	4e-05	-0.00019	0.00025	-3e-05	-2e-05	4
19995	-4e-05	-2e-05	-5e-05	4e-05	-0.00019	0.00025	-3e-05	-2e-05	4
19996	-4e-05	-2e-05	-5e-05	4e-05	-0.00019	0.00025	-3e-05	-2e-05	4
19997	-4e-05	-2e-05	-5e-05	4e-05	-0.00019	0.00025	-3e-05	-2e-05	4
19998	-4e-05	-2e-05	-5e-05	4e-05	-0.00019	0.00025	-3e-05	-2e-05	4
19999	-4e-05	-2e-05	-5e-05	4e-05	-0.00019	0.00025	-3e-05	-2e-05	4
20000	-4e-05	-2e-05	-5e-05	4e-05	-0.00019	0.00025	-3e-05	-2e-05	4
20001	-3e-05	-2e-05	3e-05	-2e-05	-1e-05	-0.00031	0	1e-05	4
20002	-3e-05	-2e-05	3e-05	-2e-05	-1e-05	-0.00031	0	1e-05	4
20003	-3e-05	-2e-05	3e-05	-2e-05	-1e-05	-0.00031	0	1e-05	4
20004	-3e-05	-2e-05	3e-05	-2e-05	-1e-05	-0.00031	0	1e-05	4
20005	-3e-05	-2e-05	3e-05	-2e-05	-1e-05	-0.00031	0	1e-05	4
20006	-3e-05	-2e-05	3e-05	-2e-05	-1e-05	-0.00031	0	1e-05	4
20007	-3e-05	-2e-05	3e-05	-2e-05	-1e-05	-0.00031	0	1e-05	4
20008	-4e-05	0	0	4e-05	0.00041	-0.00063	1e-05	-3e-05	4
20009	-4e-05	0	0	4e-05	0.00041	-0.00063	1e-05	-3e-05	4
20010	-4e-05	0	0	4e-05	0.00041	-0.00063	1e-05	-3e-05	4
20011	-4e-05	0	0	4e-05	0.00041	-0.00063	1e-05	-3e-05	4
20012	-4e-05	0	0	4e-05	0.00041	-0.00063	1e-05	-3e-05	4
20013	-4e-05	0	0	4e-05	0.00041	-0.00063	1e-05	-3e-05	4
20014	-4e-05	0	0	4e-05	0.00041	-0.00063	1e-05	-3e-05	4
20015	-4e-05	0	0	4e-05	0.00041	-0.00063	1e-05	-3e-05	4
20016	-4e-05	0	0	4e-05	0.00041	-0.00063	1e-05	-3e-05	4
20017	-4e-05	0	0	4e-05	0.00041	-0.00063	1e-05	-3e-05	4
20018	-4e-05	0	0	4e-05	0.00041	-0.00063	1e-05	-3e-05	4
20019	-4e-05	0	0	4e-05	0.00041	-0.00063	1e-05	-3e-05	4
20020	-4e-05	0	0	4e-05	0.00041	-0.00063	1e-05	-3e-05	4
20021	-4e-05	0	0	4e-05	0.00041	-0.00063	1e-05	-3e-05	4
20022	-4e-05	0	0	4e-05	0.00041	-0.00063	1e-05	-3e-05	4
20023	-4e-05	0	0	4e-05	0.00041	-0.00063	1e-05	-3e-05	4
20024	-4e-05	0	0	4e-05	0.00041	-0.00063	1e-05	-3e-05	4
20025	5e-05	0.00012	6e-05	-6e-05	-0.00031	-9e-05	0	2e-05	4
20026	-1e-05	3e-05	1e-05	-7e-05	-0.00062	-0.00026	-2e-05	-6e-05	4
20027	-3e-05	-3e-05	4e-05	0.00021	0.00016	0.00015	-2e-05	-2e-05	4
20028	-3e-05	-3e-05	4e-05	0.00021	0.00016	0.00015	-2e-05	-2e-05	4
20029	-3e-05	-3e-05	4e-05	0.00021	0.00016	0.00015	-2e-05	-2e-05	4
20030	-3e-05	-3e-05	4e-05	0.00021	0.00016	0.00015	-2e-05	-2e-05	4
20031	-3e-05	-3e-05	4e-05	0.00021	0.00016	0.00015	-2e-05	-2e-05	4
20033	-3e-05	-3e-05	4e-05	0.00021	0.00016	0.00015	-2e-05	-2e-05	4
20034	-3e-05	-3e-05	4e-05	0.00021	0.00016	0.00015	-2e-05	-2e-05	4
20035	-3e-05	-3e-05	4e-05	0.00021	0.00016	0.00015	-2e-05	-2e-05	4
20043	-3e-05	-3e-05	4e-05	0.00021	0.00016	0.00015	-2e-05	-2e-05	4
20044	-3e-05	-3e-05	4e-05	0.00021	0.00016	0.00015	-2e-05	-2e-05	4
20045	-3e-05	-3e-05	4e-05	0.00021	0.00016	0.00015	-2e-05	-2e-05	4
20046	-3e-05	-3e-05	4e-05	0.00021	0.00016	0.00015	-2e-05	-2e-05	4
20047	-3e-05	-3e-05	4e-05	0.00021	0.00016	0.00015	-2e-05	-2e-05	4
20048	-3e-05	-3e-05	4e-05	0.00021	0.00016	0.00015	-2e-05	-2e-05	4
20049	-3e-05	-3e-05	4e-05	0.00021	0.00016	0.00015	-2e-05	-2e-05	4
20050	-3e-05	-3e-05	4e-05	0.00021	0.00016	0.00015	-2e-05	-2e-05	4
20051	-3e-05	-3e-05	4e-05	0.00021	0.00016	0.00015	-2e-05	-2e-05	4
20052	-3e-05	-3e-05	4e-05	0.00021	0.00016	0.00015	-2e-05	-2e-05	4
20053	-3e-05	-3e-05	4e-05	0.00021	0.00016	0.00015	-2e-05	-2e-05	4
20054	-3e-05	-3e-05	4e-05	0.00021	0.00016	0.00015	-2e-05	-2e-05	4
20055	-3e-05	-3e-05	4e-05	0.00021	0.00016	0.00015	-2e-05	-2e-05	4
20056	-3e-05	-3e-05	4e-05	0.00021	0.00016	0.00015	-2e-05	-2e-05	4
20057	-3e-05	-3e-05	4e-05	0.00021	0.00016	0.00015	-2e-05	-2e-05	4
20058	-3e-05	-3e-05	4e-05	0.00021	0.00016	0.00015	-2e-05	-2e-05	4
20059	-3e-05	-3e-05	4e-05	0.00021	0.00016	0.00015	-2e-05	-2e-05	4
20060	-3e-05	-3e-05	4e-05	0.00021	0.00016	0.00015	-2e-05	-2e-05	4
20061	-3e-05	-3e-05	4e-05	0.00021	0.00016	0.00015	-2e-05	-2e-05	4
20062	-3e-05	-3e-05	4e-05	0.00021	0.00016	0.00015	-2e-05	-2e-05	4
20063	-0.00011	-0.00016	-0.00025	-0.00033	-0.00042	-0.00013	-0.00012	-7e-05	4
20064	-0.00011	-0.00016	-0.00025	-0.00033	-0.00042	-0.00013	-0.00012	-7e-05	4
20067	-0.00011	-0.00016	-0.00025	-0.00033	-0.00042	-0.00013	-0.00012	-7e-05	4
20068	2e-05	-1e-05	-5e-05	-0.00066	-0.00044	0.00023	1e-05	2e-05	4
20069	2e-05	-1e-05	-5e-05	-0.00066	-0.00044	0.00023	1e-05	2e-05	4
20070	2e-05	-1e-05	-5e-05	-0.00066	-0.00044	0.00023	1e-05	2e-05	4
20071	3e-05	3e-05	0.0001	1e-05	-1e-05	2e-05	2e-05	3e-05	4
20072	3e-05	3e-05	0.0001	1e-05	-1e-05	2e-05	2e-05	3e-05	4
20073	3e-05	3e-05	0.0001	1e-05	-1e-05	2e-05	2e-05	3e-05	4
20075	3e-05	3e-05	0.0001	1e-05	-1e-05	2e-05	2e-05	3e-05	4
20076	3e-05	3e-05	0.0001	1e-05	-1e-05	2e-05	2e-05	3e-05	4
20077	3e-05	3e-05	0.0001	1e-05	-1e-05	2e-05	2e-05	3e-05	4
20078	3e-05	3e-05	0.0001	1e-05	-1e-05	2e-05	2e-05	3e-05	4
20079	3e-05	3e-05	0.0001	1e-05	-1e-05	2e-05	2e-05	3e-05	4
20080	3e-05	3e-05	0.0001	1e-05	-1e-05	2e-05	2e-05	3e-05	4
20081	3e-05	3e-05	0.0001	1e-05	-1e-05	2e-05	2e-05	3e-05	4
20082	3e-05	3e-05	0.0001	1e-05	-1e-05	2e-05	2e-05	3e-05	4
20083	3e-05	3e-05	0.0001	1e-05	-1e-05	2e-05	2e-05	3e-05	4
20084	-4e-05	-5e-05	-0.00016	-0.00013	-0.0004	-0.00035	-7e-05	-6e-05	4
20085	-7e-05	-2e-05	0	8e-05	-0.00025	-0.00039	-4e-05	-2e-05	4
20087	-7e-05	-2e-05	0	8e-05	-0.00025	-0.00039	-4e-05	-2e-05	4
20089	-7e-05	-2e-05	0	8e-05	-0.00025	-0.00039	-4e-05	-2e-05	4
20090	-7e-05	-2e-05	0	8e-05	-0.00025	-0.00039	-4e-05	-2e-05	4
20091	-7e-05	-2e-05	0	8e-05	-0.00025	-0.00039	-4e-05	-2e-05	4
20092	-7e-05	-2e-05	0	8e-05	-0.00025	-0.00039	-4e-05	-2e-05	4
20093	-7e-05	-2e-05	0	8e-05	-0.00025	-0.00039	-4e-05	-2e-05	4
20094	-7e-05	-2e-05	0	8e-05	-0.00025	-0.00039	-4e-05	-2e-05	4
20095	-7e-05	-2e-05	0	8e-05	-0.00025	-0.00039	-4e-05	-2e-05	4
20096	-7e-05	-2e-05	0	8e-05	-0.00025	-0.00039	-4e-05	-2e-05	4
20097	-7e-05	-2e-05	0	8e-05	-0.00025	-0.00039	-4e-05	-2e-05	4
20098	-7e-05	-2e-05	0	8e-05	-0.00025	-0.00039	-4e-05	-2e-05	4
20099	-7e-05	-2e-05	0	8e-05	-0.00025	-0.00039	-4e-05	-2e-05	4
20100	-2e-05	1e-05	8e-05	0.00021	0.00038	0.00011	-3e-05	-3e-05	4
20101	-1e-05	2e-05	-1e-05	-0.00021	8e-05	-0.00036	0.00013	-1e-05	4
20102	-1e-05	2e-05	-1e-05	-0.00021	8e-05	-0.00036	0.00013	-1e-05	4
20103	-1e-05	2e-05	-1e-05	-0.00021	8e-05	-0.00036	0.00013	-1e-05	4
20104	-1e-05	2e-05	-1e-05	-0.00021	8e-05	-0.00036	0.00013	-1e-05	4
20105	-1e-05	2e-05	-1e-05	-0.00021	8e-05	-0.00036	0.00013	-1e-05	4
20106	-1e-05	2e-05	-1e-05	-0.00021	8e-05	-0.00036	0.00013	-1e-05	4
20107	-1e-05	-2e-05	-3e-05	0.0001	0.00038	-0.00034	-4e-05	-2e-05	4
20108	-1e-05	-2e-05	-3e-05	0.0001	0.00038	-0.00034	-4e-05	-2e-05	4
20109	-4e-05	-4e-05	-7e-05	-8e-05	-0.00012	-0.00024	-0.00016	-8e-05	4
20110	-4e-05	-4e-05	-7e-05	-8e-05	-0.00012	-0.00024	-0.00016	-8e-05	4
20111	-4e-05	-4e-05	-7e-05	-8e-05	-0.00012	-0.00024	-0.00016	-8e-05	4
20112	-4e-05	-4e-05	-7e-05	-8e-05	-0.00012	-0.00024	-0.00016	-8e-05	4
20113	-4e-05	-4e-05	-7e-05	-8e-05	-0.00012	-0.00024	-0.00016	-8e-05	4
20114	-4e-05	-4e-05	-7e-05	-8e-05	-0.00012	-0.00024	-0.00016	-8e-05	4
20115	-4e-05	-4e-05	-7e-05	-8e-05	-0.00012	-0.00024	-0.00016	-8e-05	4
20116	-4e-05	-4e-05	-7e-05	-8e-05	-0.00012	-0.00024	-0.00016	-8e-05	4
20117	-4e-05	-4e-05	-7e-05	-8e-05	-0.00012	-0.00024	-0.00016	-8e-05	4
20118	-4e-05	-4e-05	-7e-05	-8e-05	-0.00012	-0.00024	-0.00016	-8e-05	4
20119	-4e-05	-4e-05	-7e-05	-8e-05	-0.00012	-0.00024	-0.00016	-8e-05	4
20120	-4e-05	-4e-05	-7e-05	-8e-05	-0.00012	-0.00024	-0.00016	-8e-05	4
20121	1e-05	-3e-05	-0.0001	9e-05	-6e-05	0.00011	0.00011	1e-05	4
20122	1e-05	-3e-05	-0.0001	9e-05	-6e-05	0.00011	0.00011	1e-05	4
20123	1e-05	-3e-05	-0.0001	9e-05	-6e-05	0.00011	0.00011	1e-05	4
20124	1e-05	-3e-05	-0.0001	9e-05	-6e-05	0.00011	0.00011	1e-05	4
20125	1e-05	-3e-05	-0.0001	9e-05	-6e-05	0.00011	0.00011	1e-05	4
20126	1e-05	-3e-05	-0.0001	9e-05	-6e-05	0.00011	0.00011	1e-05	4
20127	1e-05	-3e-05	-0.0001	9e-05	-6e-05	0.00011	0.00011	1e-05	4
20128	1e-05	-3e-05	-0.0001	9e-05	-6e-05	0.00011	0.00011	1e-05	4
20129	-6e-05	-7e-05	-0.00011	-6e-05	0.00024	-0.00011	-0.00013	-4e-05	4
20130	-6e-05	-7e-05	-0.00011	-6e-05	0.00024	-0.00011	-0.00013	-4e-05	4
20131	-6e-05	-7e-05	-0.00011	-6e-05	0.00024	-0.00011	-0.00013	-4e-05	4
20132	-6e-05	-7e-05	-0.00011	-6e-05	0.00024	-0.00011	-0.00013	-4e-05	4
20133	-6e-05	-7e-05	-0.00011	-6e-05	0.00024	-0.00011	-0.00013	-4e-05	4
20134	-6e-05	-7e-05	-0.00011	-6e-05	0.00024	-0.00011	-0.00013	-4e-05	4
20135	-6e-05	-7e-05	-0.00011	-6e-05	0.00024	-0.00011	-0.00013	-4e-05	4
20136	-6e-05	-7e-05	-0.00011	-6e-05	0.00024	-0.00011	-0.00013	-4e-05	4
20138	-6e-05	-7e-05	-0.00011	-6e-05	0.00024	-0.00011	-0.00013	-4e-05	4
20139	-6e-05	-7e-05	-0.00011	-6e-05	0.00024	-0.00011	-0.00013	-4e-05	4
20140	-6e-05	-7e-05	-0.00011	-6e-05	0.00024	-0.00011	-0.00013	-4e-05	4
20141	-6e-05	-7e-05	-0.00011	-6e-05	0.00024	-0.00011	-0.00013	-4e-05	4
20142	-6e-05	-7e-05	-0.00011	-6e-05	0.00024	-0.00011	-0.00013	-4e-05	4
20143	-6e-05	-7e-05	-0.00011	-6e-05	0.00024	-0.00011	-0.00013	-4e-05	4
20144	1e-05	5e-05	0.00011	0.00033	0.00048	-0.00021	-6e-05	-1e-05	4
20145	9e-05	5e-05	4e-05	9e-05	0.00013	-5e-05	0.00015	0.0001	4
20146	9e-05	5e-05	4e-05	9e-05	0.00013	-5e-05	0.00015	0.0001	4
20147	9e-05	5e-05	4e-05	9e-05	0.00013	-5e-05	0.00015	0.0001	4
20148	9e-05	5e-05	4e-05	9e-05	0.00013	-5e-05	0.00015	0.0001	4
20149	9e-05	5e-05	4e-05	9e-05	0.00013	-5e-05	0.00015	0.0001	4
20150	9e-05	5e-05	4e-05	9e-05	0.00013	-5e-05	0.00015	0.0001	4
20151	9e-05	5e-05	4e-05	9e-05	0.00013	-5e-05	0.00015	0.0001	4
20152	9e-05	5e-05	4e-05	9e-05	0.00013	-5e-05	0.00015	0.0001	4
20153	9e-05	5e-05	4e-05	9e-05	0.00013	-5e-05	0.00015	0.0001	4
20154	9e-05	5e-05	4e-05	9e-05	0.00013	-5e-05	0.00015	0.0001	4
20155	9e-05	5e-05	4e-05	9e-05	0.00013	-5e-05	0.00015	0.0001	4
20156	9e-05	5e-05	4e-05	9e-05	0.00013	-5e-05	0.00015	0.0001	4
20157	9e-05	5e-05	4e-05	9e-05	0.00013	-5e-05	0.00015	0.0001	4
20158	9e-05	5e-05	4e-05	9e-05	0.00013	-5e-05	0.00015	0.0001	4
20159	9e-05	5e-05	4e-05	9e-05	0.00013	-5e-05	0.00015	0.0001	4
20160	9e-05	5e-05	4e-05	9e-05	0.00013	-5e-05	0.00015	0.0001	4
20161	9e-05	5e-05	4e-05	9e-05	0.00013	-5e-05	0.00015	0.0001	4
20162	9e-05	5e-05	4e-05	9e-05	0.00013	-5e-05	0.00015	0.0001	4
20163	9e-05	5e-05	4e-05	9e-05	0.00013	-5e-05	0.00015	0.0001	4
20164	9e-05	5e-05	4e-05	9e-05	0.00013	-5e-05	0.00015	0.0001	4
20165	9e-05	5e-05	4e-05	9e-05	0.00013	-5e-05	0.00015	0.0001	4
20166	9e-05	5e-05	4e-05	9e-05	0.00013	-5e-05	0.00015	0.0001	4
20167	9e-05	5e-05	4e-05	9e-05	0.00013	-5e-05	0.00015	0.0001	4
20168	9e-05	5e-05	4e-05	9e-05	0.00013	-5e-05	0.00015	0.0001	4
20169	9e-05	5e-05	4e-05	9e-05	0.00013	-5e-05	0.00015	0.0001	4
20170	9e-05	5e-05	4e-05	9e-05	0.00013	-5e-05	0.00015	0.0001	4
20171	9e-05	5e-05	4e-05	9e-05	0.00013	-5e-05	0.00015	0.0001	4
20172	9e-05	5e-05	4e-05	9e-05	0.00013	-5e-05	0.00015	0.0001	4
20173	9e-05	5e-05	4e-05	9e-05	0.00013	-5e-05	0.00015	0.0001	4
20174	9e-05	5e-05	4e-05	9e-05	0.00013	-5e-05	0.00015	0.0001	4
20175	9e-05	5e-05	4e-05	9e-05	0.00013	-5e-05	0.00015	0.0001	4
20176	9e-05	5e-05	4e-05	9e-05	0.00013	-5e-05	0.00015	0.0001	4
20177	9e-05	5e-05	4e-05	9e-05	0.00013	-5e-05	0.00015	0.0001	4
20178	9e-05	5e-05	4e-05	9e-05	0.00013	-5e-05	0.00015	0.0001	4
20179	9e-05	5e-05	4e-05	9e-05	0.00013	-5e-05	0.00015	0.0001	4
20180	9e-05	5e-05	4e-05	9e-05	0.00013	-5e-05	0.00015	0.0001	4
20181	9e-05	5e-05	4e-05	9e-05	0.00013	-5e-05	0.00015	0.0001	4
20182	9e-05	5e-05	4e-05	9e-05	0.00013	-5e-05	0.00015	0.0001	4
20183	-1e-05	-3e-05	-1e-05	0	0.00036	-0.00019	-4e-05	-4e-05	4
20184	-2e-05	-6e-05	-0.00013	-0.00012	0.00066	-0.00037	-8e-05	-9e-05	4
20185	1e-05	0	-7e-05	4e-05	1e-05	0.00016	0	4e-05	4
20186	1e-05	0	-7e-05	4e-05	1e-05	0.00016	0	4e-05	4
20188	-3e-05	-6e-05	-3e-05	0.0001	0.00028	-0.00015	-7e-05	-5e-05	4
20189	-4e-05	-2e-05	-5e-05	-7e-05	-0.00031	0.00033	-5e-05	-5e-05	4
20190	-4e-05	-2e-05	-5e-05	-7e-05	-0.00031	0.00033	-5e-05	-5e-05	4
20191	-4e-05	-2e-05	-5e-05	-7e-05	-0.00031	0.00033	-5e-05	-5e-05	4
20192	-4e-05	-2e-05	-5e-05	-7e-05	-0.00031	0.00033	-5e-05	-5e-05	4
20193	-4e-05	-2e-05	-5e-05	-7e-05	-0.00031	0.00033	-5e-05	-5e-05	4
20194	-4e-05	-2e-05	-5e-05	-7e-05	-0.00031	0.00033	-5e-05	-5e-05	4
20195	-4e-05	-2e-05	-5e-05	-7e-05	-0.00031	0.00033	-5e-05	-5e-05	4
20196	-4e-05	-2e-05	-5e-05	-7e-05	-0.00031	0.00033	-5e-05	-5e-05	4
20197	-4e-05	-2e-05	-5e-05	-7e-05	-0.00031	0.00033	-5e-05	-5e-05	4
20198	-4e-05	-2e-05	-5e-05	-7e-05	-0.00031	0.00033	-5e-05	-5e-05	4
20199	-4e-05	-2e-05	-5e-05	-7e-05	-0.00031	0.00033	-5e-05	-5e-05	4
20200	-4e-05	-2e-05	-5e-05	-7e-05	-0.00031	0.00033	-5e-05	-5e-05	4
20201	-4e-05	-2e-05	-5e-05	-7e-05	-0.00031	0.00033	-5e-05	-5e-05	4
20202	-4e-05	-2e-05	-5e-05	-7e-05	-0.00031	0.00033	-5e-05	-5e-05	4
20203	-4e-05	-2e-05	-5e-05	-7e-05	-0.00031	0.00033	-5e-05	-5e-05	4
20204	-4e-05	-1e-05	0	9e-05	9e-05	0.00041	-2e-05	0	4
20205	-4e-05	-2e-05	3e-05	3e-05	-0.00011	0.00014	-1e-05	2e-05	4
20206	-4e-05	-2e-05	3e-05	3e-05	-0.00011	0.00014	-1e-05	2e-05	4
20207	-4e-05	-2e-05	3e-05	3e-05	-0.00011	0.00014	-1e-05	2e-05	4
20208	-4e-05	-2e-05	3e-05	3e-05	-0.00011	0.00014	-1e-05	2e-05	4
20209	-4e-05	-2e-05	3e-05	3e-05	-0.00011	0.00014	-1e-05	2e-05	4
20210	-4e-05	-2e-05	3e-05	3e-05	-0.00011	0.00014	-1e-05	2e-05	4
20211	-4e-05	-2e-05	3e-05	3e-05	-0.00011	0.00014	-1e-05	2e-05	4
20212	-4e-05	-2e-05	3e-05	3e-05	-0.00011	0.00014	-1e-05	2e-05	4
20213	-4e-05	-2e-05	3e-05	3e-05	-0.00011	0.00014	-1e-05	2e-05	4
20214	-4e-05	-2e-05	3e-05	3e-05	-0.00011	0.00014	-1e-05	2e-05	4
20215	-4e-05	-2e-05	3e-05	3e-05	-0.00011	0.00014	-1e-05	2e-05	4
20216	-4e-05	-2e-05	3e-05	3e-05	-0.00011	0.00014	-1e-05	2e-05	4
20217	-4e-05	-2e-05	3e-05	3e-05	-0.00011	0.00014	-1e-05	2e-05	4
20218	-4e-05	-2e-05	3e-05	3e-05	-0.00011	0.00014	-1e-05	2e-05	4
20219	-4e-05	-2e-05	3e-05	3e-05	-0.00011	0.00014	-1e-05	2e-05	4
20220	-4e-05	-2e-05	3e-05	3e-05	-0.00011	0.00014	-1e-05	2e-05	4
20221	-4e-05	-2e-05	3e-05	3e-05	-0.00011	0.00014	-1e-05	2e-05	4
20222	-4e-05	-2e-05	3e-05	3e-05	-0.00011	0.00014	-1e-05	2e-05	4
20223	-4e-05	-2e-05	3e-05	3e-05	-0.00011	0.00014	-1e-05	2e-05	4
20224	-4e-05	-2e-05	3e-05	3e-05	-0.00011	0.00014	-1e-05	2e-05	4
20225	-4e-05	-2e-05	3e-05	3e-05	-0.00011	0.00014	-1e-05	2e-05	4
20226	-4e-05	-2e-05	3e-05	3e-05	-0.00011	0.00014	-1e-05	2e-05	4
20227	-4e-05	-2e-05	3e-05	3e-05	-0.00011	0.00014	-1e-05	2e-05	4
20228	-2e-05	-4e-05	-0.0001	-0.00025	-0.00013	-0.00026	-6e-05	-3e-05	4
20229	5e-05	5e-05	0.0001	0.00029	0.00021	-3e-05	6e-05	3e-05	4
20230	5e-05	5e-05	0.0001	0.00029	0.00021	-3e-05	6e-05	3e-05	4
20231	5e-05	5e-05	0.0001	0.00029	0.00021	-3e-05	6e-05	3e-05	4
20232	5e-05	5e-05	0.0001	0.00029	0.00021	-3e-05	6e-05	3e-05	4
20233	5e-05	5e-05	0.0001	0.00029	0.00021	-3e-05	6e-05	3e-05	4
20234	5e-05	5e-05	0.0001	0.00029	0.00021	-3e-05	6e-05	3e-05	4
20235	5e-05	5e-05	0.0001	0.00029	0.00021	-3e-05	6e-05	3e-05	4
20236	5e-05	5e-05	0.0001	0.00029	0.00021	-3e-05	6e-05	3e-05	4
20238	5e-05	5e-05	0.0001	0.00029	0.00021	-3e-05	6e-05	3e-05	4
20239	5e-05	5e-05	0.0001	0.00029	0.00021	-3e-05	6e-05	3e-05	4
20240	5e-05	5e-05	0.0001	0.00029	0.00021	-3e-05	6e-05	3e-05	4
20241	-2e-05	-2e-05	1e-05	-4e-05	-0.00029	0.00036	3e-05	0	4
20242	-2e-05	-2e-05	1e-05	-4e-05	-0.00029	0.00036	3e-05	0	4
20243	-2e-05	-2e-05	1e-05	-4e-05	-0.00029	0.00036	3e-05	0	4
20244	-2e-05	-2e-05	1e-05	-4e-05	-0.00029	0.00036	3e-05	0	4
20245	-2e-05	-2e-05	1e-05	-4e-05	-0.00029	0.00036	3e-05	0	4
20246	-2e-05	-2e-05	1e-05	-4e-05	-0.00029	0.00036	3e-05	0	4
20247	-2e-05	-2e-05	1e-05	-4e-05	-0.00029	0.00036	3e-05	0	4
20248	-2e-05	-2e-05	1e-05	-4e-05	-0.00029	0.00036	3e-05	0	4
20249	1e-05	2e-05	0.00014	3e-05	-0.0001	5e-05	-6e-05	2e-05	4
20250	1e-05	2e-05	0.00014	3e-05	-0.0001	5e-05	-6e-05	2e-05	4
20251	1e-05	2e-05	0.00014	3e-05	-0.0001	5e-05	-6e-05	2e-05	4
20252	1e-05	2e-05	0.00014	3e-05	-0.0001	5e-05	-6e-05	2e-05	4
20253	1e-05	2e-05	0.00014	3e-05	-0.0001	5e-05	-6e-05	2e-05	4
20254	1e-05	2e-05	0.00014	3e-05	-0.0001	5e-05	-6e-05	2e-05	4
20255	1e-05	2e-05	0.00014	3e-05	-0.0001	5e-05	-6e-05	2e-05	4
20256	1e-05	2e-05	0.00014	3e-05	-0.0001	5e-05	-6e-05	2e-05	4
20257	1e-05	2e-05	0.00014	3e-05	-0.0001	5e-05	-6e-05	2e-05	4
20258	1e-05	2e-05	0.00014	3e-05	-0.0001	5e-05	-6e-05	2e-05	4
20259	1e-05	2e-05	0.00014	3e-05	-0.0001	5e-05	-6e-05	2e-05	4
20260	1e-05	2e-05	0.00014	3e-05	-0.0001	5e-05	-6e-05	2e-05	4
20261	1e-05	2e-05	0.00014	3e-05	-0.0001	5e-05	-6e-05	2e-05	4
20262	1e-05	2e-05	0.00014	3e-05	-0.0001	5e-05	-6e-05	2e-05	4
20263	1e-05	2e-05	0.00014	3e-05	-0.0001	5e-05	-6e-05	2e-05	4
20264	0	-2e-05	-2e-05	7e-05	0.00018	-5e-05	-1e-05	-2e-05	4
20265	-4e-05	-2e-05	-9e-05	-0.00018	3e-05	0.0005	-0.0001	-1e-05	4
20266	-4e-05	-2e-05	-9e-05	-0.00018	3e-05	0.0005	-0.0001	-1e-05	4
20267	-4e-05	-2e-05	-9e-05	-0.00018	3e-05	0.0005	-0.0001	-1e-05	4
20268	-4e-05	-2e-05	-9e-05	-0.00018	3e-05	0.0005	-0.0001	-1e-05	4
20269	-4e-05	-2e-05	-9e-05	-0.00018	3e-05	0.0005	-0.0001	-1e-05	4
20270	-4e-05	-2e-05	-9e-05	-0.00018	3e-05	0.0005	-0.0001	-1e-05	4
20271	-4e-05	-2e-05	-9e-05	-0.00018	3e-05	0.0005	-0.0001	-1e-05	4
20272	-4e-05	-2e-05	-9e-05	-0.00018	3e-05	0.0005	-0.0001	-1e-05	4
20273	-4e-05	-2e-05	-9e-05	-0.00018	3e-05	0.0005	-0.0001	-1e-05	4
20274	-4e-05	-2e-05	-9e-05	-0.00018	3e-05	0.0005	-0.0001	-1e-05	4
20275	-4e-05	-2e-05	-9e-05	-0.00018	3e-05	0.0005	-0.0001	-1e-05	4
20276	-4e-05	-2e-05	-9e-05	-0.00018	3e-05	0.0005	-0.0001	-1e-05	4
20277	-4e-05	-2e-05	-9e-05	-0.00018	3e-05	0.0005	-0.0001	-1e-05	4
20278	-4e-05	-2e-05	-9e-05	-0.00018	3e-05	0.0005	-0.0001	-1e-05	4
20279	-4e-05	-2e-05	-9e-05	-0.00018	3e-05	0.0005	-0.0001	-1e-05	4
20280	-4e-05	-2e-05	-9e-05	-0.00018	3e-05	0.0005	-0.0001	-1e-05	4
20281	-4e-05	-2e-05	-9e-05	-0.00018	3e-05	0.0005	-0.0001	-1e-05	4
20282	-4e-05	-2e-05	-9e-05	-0.00018	3e-05	0.0005	-0.0001	-1e-05	4
20284	-4e-05	-2e-05	-9e-05	-0.00018	3e-05	0.0005	-0.0001	-1e-05	4
20285	-4e-05	-2e-05	-9e-05	-0.00018	3e-05	0.0005	-0.0001	-1e-05	4
20287	-5e-05	-0.0001	-0.00013	-0.00013	0.00041	-0.00023	-8e-05	-9e-05	4
20290	-5e-05	-0.0001	-0.00013	-0.00013	0.00041	-0.00023	-8e-05	-9e-05	4
20291	-5e-05	-0.0001	-0.00013	-0.00013	0.00041	-0.00023	-8e-05	-9e-05	4
20292	-5e-05	-0.0001	-0.00013	-0.00013	0.00041	-0.00023	-8e-05	-9e-05	4
20293	-5e-05	-0.0001	-0.00013	-0.00013	0.00041	-0.00023	-8e-05	-9e-05	4
20294	-5e-05	-0.0001	-0.00013	-0.00013	0.00041	-0.00023	-8e-05	-9e-05	4
20295	-5e-05	-0.0001	-0.00013	-0.00013	0.00041	-0.00023	-8e-05	-9e-05	4
20296	-5e-05	-0.0001	-0.00013	-0.00013	0.00041	-0.00023	-8e-05	-9e-05	4
20297	-5e-05	-0.0001	-0.00013	-0.00013	0.00041	-0.00023	-8e-05	-9e-05	4
20298	-5e-05	-0.0001	-0.00013	-0.00013	0.00041	-0.00023	-8e-05	-9e-05	4
20299	-5e-05	-0.0001	-0.00013	-0.00013	0.00041	-0.00023	-8e-05	-9e-05	4
20300	-5e-05	-0.0001	-0.00013	-0.00013	0.00041	-0.00023	-8e-05	-9e-05	4
20301	-5e-05	-0.0001	-0.00013	-0.00013	0.00041	-0.00023	-8e-05	-9e-05	4
20302	-1e-05	-3e-05	0	0.00015	4e-05	-0.0004	-0.0001	-6e-05	4
20303	-1e-05	-3e-05	0	0.00015	4e-05	-0.0004	-0.0001	-6e-05	4
20304	-1e-05	-3e-05	0	0.00015	4e-05	-0.0004	-0.0001	-6e-05	4
20305	-1e-05	-3e-05	0	0.00015	4e-05	-0.0004	-0.0001	-6e-05	4
20306	-1e-05	-3e-05	0	0.00015	4e-05	-0.0004	-0.0001	-6e-05	4
20307	-1e-05	-3e-05	0	0.00015	4e-05	-0.0004	-0.0001	-6e-05	4
20308	-1e-05	-3e-05	0	0.00015	4e-05	-0.0004	-0.0001	-6e-05	4
20309	-3e-05	-3e-05	-3e-05	3e-05	-9e-05	8e-05	2e-05	-2e-05	4
20310	-3e-05	-3e-05	-3e-05	3e-05	-9e-05	8e-05	2e-05	-2e-05	4
20311	-3e-05	-3e-05	-3e-05	3e-05	-9e-05	8e-05	2e-05	-2e-05	4
20312	-3e-05	-3e-05	-3e-05	3e-05	-9e-05	8e-05	2e-05	-2e-05	4
20313	-3e-05	-3e-05	-3e-05	3e-05	-9e-05	8e-05	2e-05	-2e-05	4
20314	-3e-05	-3e-05	-3e-05	3e-05	-9e-05	8e-05	2e-05	-2e-05	4
20315	-3e-05	-3e-05	-3e-05	3e-05	-9e-05	8e-05	2e-05	-2e-05	4
20316	-3e-05	-3e-05	-3e-05	3e-05	-9e-05	8e-05	2e-05	-2e-05	4
20317	-3e-05	-3e-05	-3e-05	3e-05	-9e-05	8e-05	2e-05	-2e-05	4
20318	-3e-05	-3e-05	-3e-05	3e-05	-9e-05	8e-05	2e-05	-2e-05	4
20319	-3e-05	-3e-05	-3e-05	3e-05	-9e-05	8e-05	2e-05	-2e-05	4
20320	-3e-05	-3e-05	-3e-05	3e-05	-9e-05	8e-05	2e-05	-2e-05	4
20321	-3e-05	-3e-05	-3e-05	3e-05	-9e-05	8e-05	2e-05	-2e-05	4
20322	-3e-05	-3e-05	-3e-05	3e-05	-9e-05	8e-05	2e-05	-2e-05	4
20323	-3e-05	-3e-05	-3e-05	3e-05	-9e-05	8e-05	2e-05	-2e-05	4
20324	-7e-05	-9e-05	-6e-05	0.00045	0.00069	-0.00014	-8e-05	-4e-05	4
20325	-1e-05	1e-05	-3e-05	-0.00036	-0.00019	7e-05	1e-05	0	4
20326	-1e-05	1e-05	-3e-05	-0.00036	-0.00019	7e-05	1e-05	0	4
20327	-1e-05	1e-05	-3e-05	-0.00036	-0.00019	7e-05	1e-05	0	4
20328	-1e-05	1e-05	-3e-05	-0.00036	-0.00019	7e-05	1e-05	0	4
20329	-1e-05	1e-05	-3e-05	-0.00036	-0.00019	7e-05	1e-05	0	4
20330	-1e-05	1e-05	-3e-05	-0.00036	-0.00019	7e-05	1e-05	0	4
20331	-1e-05	1e-05	-3e-05	-0.00036	-0.00019	7e-05	1e-05	0	4
20332	-1e-05	1e-05	-3e-05	-0.00036	-0.00019	7e-05	1e-05	0	4
20333	-1e-05	1e-05	-3e-05	-0.00036	-0.00019	7e-05	1e-05	0	4
20334	-1e-05	1e-05	-3e-05	-0.00036	-0.00019	7e-05	1e-05	0	4
20335	-1e-05	1e-05	-3e-05	-0.00036	-0.00019	7e-05	1e-05	0	4
20336	-1e-05	1e-05	-3e-05	-0.00036	-0.00019	7e-05	1e-05	0	4
20339	-1e-05	1e-05	-3e-05	-0.00036	-0.00019	7e-05	1e-05	0	4
20340	-1e-05	1e-05	-3e-05	-0.00036	-0.00019	7e-05	1e-05	0	4
20341	-1e-05	1e-05	-3e-05	-0.00036	-0.00019	7e-05	1e-05	0	4
20342	-1e-05	1e-05	-3e-05	-0.00036	-0.00019	7e-05	1e-05	0	4
20343	-1e-05	1e-05	-3e-05	-0.00036	-0.00019	7e-05	1e-05	0	4
20344	-1e-05	1e-05	-3e-05	-0.00036	-0.00019	7e-05	1e-05	0	4
20345	-1e-05	1e-05	-3e-05	-0.00036	-0.00019	7e-05	1e-05	0	4
20346	0	4e-05	2e-05	-5e-05	-0.00069	-0.00026	-5e-05	-5e-05	4
20347	8e-05	7e-05	0.00013	0.00013	0.00031	0.00011	0.00012	7e-05	4
20348	8e-05	7e-05	0.00013	0.00013	0.00031	0.00011	0.00012	7e-05	4
20349	8e-05	7e-05	0.00013	0.00013	0.00031	0.00011	0.00012	7e-05	4
20350	8e-05	7e-05	0.00013	0.00013	0.00031	0.00011	0.00012	7e-05	4
20351	8e-05	7e-05	0.00013	0.00013	0.00031	0.00011	0.00012	7e-05	4
20352	8e-05	7e-05	0.00013	0.00013	0.00031	0.00011	0.00012	7e-05	4
20353	8e-05	7e-05	0.00013	0.00013	0.00031	0.00011	0.00012	7e-05	4
20354	8e-05	7e-05	0.00013	0.00013	0.00031	0.00011	0.00012	7e-05	4
20355	8e-05	7e-05	0.00013	0.00013	0.00031	0.00011	0.00012	7e-05	4
20356	8e-05	7e-05	0.00013	0.00013	0.00031	0.00011	0.00012	7e-05	4
20357	8e-05	7e-05	0.00013	0.00013	0.00031	0.00011	0.00012	7e-05	4
20358	8e-05	7e-05	0.00013	0.00013	0.00031	0.00011	0.00012	7e-05	4
20359	8e-05	7e-05	0.00013	0.00013	0.00031	0.00011	0.00012	7e-05	4
20360	8e-05	7e-05	0.00013	0.00013	0.00031	0.00011	0.00012	7e-05	4
20361	-7e-05	-3e-05	-1e-05	6e-05	0.00019	-2e-05	-0.0001	-5e-05	4
20362	-7e-05	-3e-05	-1e-05	6e-05	0.00019	-2e-05	-0.0001	-5e-05	4
20363	-7e-05	-3e-05	-1e-05	6e-05	0.00019	-2e-05	-0.0001	-5e-05	4
20364	-7e-05	-3e-05	-1e-05	6e-05	0.00019	-2e-05	-0.0001	-5e-05	4
20365	-7e-05	-3e-05	-1e-05	6e-05	0.00019	-2e-05	-0.0001	-5e-05	4
20366	-7e-05	-3e-05	-1e-05	6e-05	0.00019	-2e-05	-0.0001	-5e-05	4
20367	-7e-05	-3e-05	-1e-05	6e-05	0.00019	-2e-05	-0.0001	-5e-05	4
20368	-7e-05	-3e-05	-1e-05	6e-05	0.00019	-2e-05	-0.0001	-5e-05	4
20369	-7e-05	-3e-05	-1e-05	6e-05	0.00019	-2e-05	-0.0001	-5e-05	4
20370	-7e-05	-3e-05	-1e-05	6e-05	0.00019	-2e-05	-0.0001	-5e-05	4
20371	-7e-05	-3e-05	-1e-05	6e-05	0.00019	-2e-05	-0.0001	-5e-05	4
20372	-7e-05	-3e-05	-1e-05	6e-05	0.00019	-2e-05	-0.0001	-5e-05	4
20373	-7e-05	-3e-05	-1e-05	6e-05	0.00019	-2e-05	-0.0001	-5e-05	4
20374	-7e-05	-3e-05	-1e-05	6e-05	0.00019	-2e-05	-0.0001	-5e-05	4
20375	-7e-05	-3e-05	-1e-05	6e-05	0.00019	-2e-05	-0.0001	-5e-05	4
20376	0	5e-05	0.00012	0.00036	-0.00049	-0.00032	1e-05	-1e-05	4
20377	0	5e-05	0.00012	0.00036	-0.00049	-0.00032	1e-05	-1e-05	4
20378	0	5e-05	0.00012	0.00036	-0.00049	-0.00032	1e-05	-1e-05	4
20379	0	5e-05	0.00012	0.00036	-0.00049	-0.00032	1e-05	-1e-05	4
20380	0	5e-05	0.00012	0.00036	-0.00049	-0.00032	1e-05	-1e-05	4
20381	0	5e-05	0.00012	0.00036	-0.00049	-0.00032	1e-05	-1e-05	4
20382	0	5e-05	0.00012	0.00036	-0.00049	-0.00032	1e-05	-1e-05	4
20383	0	5e-05	0.00012	0.00036	-0.00049	-0.00032	1e-05	-1e-05	4
20384	-1e-05	0	1e-05	0.00012	0.00048	0.00025	7e-05	2e-05	4
20385	-7e-05	-1e-05	0	5e-05	0.00035	-0.00024	-5e-05	-1e-05	4
20386	-7e-05	-1e-05	0	5e-05	0.00035	-0.00024	-5e-05	-1e-05	4
20388	-7e-05	-1e-05	0	5e-05	0.00035	-0.00024	-5e-05	-1e-05	4
20389	-7e-05	-1e-05	0	5e-05	0.00035	-0.00024	-5e-05	-1e-05	4
20390	-7e-05	-1e-05	0	5e-05	0.00035	-0.00024	-5e-05	-1e-05	4
20391	-7e-05	-1e-05	0	5e-05	0.00035	-0.00024	-5e-05	-1e-05	4
20392	-7e-05	-1e-05	0	5e-05	0.00035	-0.00024	-5e-05	-1e-05	4
20394	-7e-05	-1e-05	0	5e-05	0.00035	-0.00024	-5e-05	-1e-05	4
20395	-7e-05	-1e-05	0	5e-05	0.00035	-0.00024	-5e-05	-1e-05	4
20396	-7e-05	-1e-05	0	5e-05	0.00035	-0.00024	-5e-05	-1e-05	4
20397	-7e-05	-1e-05	0	5e-05	0.00035	-0.00024	-5e-05	-1e-05	4
20398	-7e-05	-1e-05	0	5e-05	0.00035	-0.00024	-5e-05	-1e-05	4
20399	-7e-05	-1e-05	0	5e-05	0.00035	-0.00024	-5e-05	-1e-05	4
20400	-7e-05	-1e-05	0	5e-05	0.00035	-0.00024	-5e-05	-1e-05	4
20401	-7e-05	-1e-05	0	5e-05	0.00035	-0.00024	-5e-05	-1e-05	4
20402	-7e-05	-1e-05	0	5e-05	0.00035	-0.00024	-5e-05	-1e-05	4
20403	-7e-05	-1e-05	0	5e-05	0.00035	-0.00024	-5e-05	-1e-05	4
20404	-7e-05	-1e-05	0	5e-05	0.00035	-0.00024	-5e-05	-1e-05	4
20405	-7e-05	-1e-05	0	5e-05	0.00035	-0.00024	-5e-05	-1e-05	4
20406	-4e-05	-2e-05	6e-05	8e-05	0.00044	2e-05	-7e-05	-4e-05	4
20407	-3e-05	-5e-05	-8e-05	-9e-05	-1e-05	0.00031	-5e-05	-5e-05	4
20408	-3e-05	-5e-05	-8e-05	-9e-05	-1e-05	0.00031	-5e-05	-5e-05	4
20409	-3e-05	-5e-05	-8e-05	-9e-05	-1e-05	0.00031	-5e-05	-5e-05	4
20410	-3e-05	-5e-05	-8e-05	-9e-05	-1e-05	0.00031	-5e-05	-5e-05	4
20411	-3e-05	-5e-05	-8e-05	-9e-05	-1e-05	0.00031	-5e-05	-5e-05	4
20412	-3e-05	-5e-05	-8e-05	-9e-05	-1e-05	0.00031	-5e-05	-5e-05	4
20413	-3e-05	-5e-05	-8e-05	-9e-05	-1e-05	0.00031	-5e-05	-5e-05	4
20414	-3e-05	-5e-05	-8e-05	-9e-05	-1e-05	0.00031	-5e-05	-5e-05	4
20415	-3e-05	-5e-05	-8e-05	-9e-05	-1e-05	0.00031	-5e-05	-5e-05	4
20416	-3e-05	-5e-05	-8e-05	-9e-05	-1e-05	0.00031	-5e-05	-5e-05	4
20417	-3e-05	-5e-05	-8e-05	-9e-05	-1e-05	0.00031	-5e-05	-5e-05	4
20418	-3e-05	-5e-05	-8e-05	-9e-05	-1e-05	0.00031	-5e-05	-5e-05	4
20419	-3e-05	-5e-05	-8e-05	-9e-05	-1e-05	0.00031	-5e-05	-5e-05	4
20420	-3e-05	-5e-05	-8e-05	-9e-05	-1e-05	0.00031	-5e-05	-5e-05	4
20421	1e-05	0	5e-05	3e-05	-0.00023	1e-05	-7e-05	0	4
20422	1e-05	0	5e-05	3e-05	-0.00023	1e-05	-7e-05	0	4
20423	1e-05	0	5e-05	3e-05	-0.00023	1e-05	-7e-05	0	4
20424	1e-05	0	5e-05	3e-05	-0.00023	1e-05	-7e-05	0	4
20425	1e-05	0	5e-05	3e-05	-0.00023	1e-05	-7e-05	0	4
20426	1e-05	0	5e-05	3e-05	-0.00023	1e-05	-7e-05	0	4
20427	1e-05	0	5e-05	3e-05	-0.00023	1e-05	-7e-05	0	4
20428	1e-05	0	5e-05	3e-05	-0.00023	1e-05	-7e-05	0	4
20429	4e-05	2e-05	-4e-05	-0.00018	-0.00033	8e-05	0.00019	7e-05	4
20430	4e-05	2e-05	-4e-05	-0.00018	-0.00033	8e-05	0.00019	7e-05	4
20431	4e-05	2e-05	-4e-05	-0.00018	-0.00033	8e-05	0.00019	7e-05	4
20432	4e-05	2e-05	-4e-05	-0.00018	-0.00033	8e-05	0.00019	7e-05	4
20433	4e-05	2e-05	-4e-05	-0.00018	-0.00033	8e-05	0.00019	7e-05	4
20434	4e-05	2e-05	-4e-05	-0.00018	-0.00033	8e-05	0.00019	7e-05	4
20435	4e-05	2e-05	-4e-05	-0.00018	-0.00033	8e-05	0.00019	7e-05	4
20436	4e-05	2e-05	-4e-05	-0.00018	-0.00033	8e-05	0.00019	7e-05	4
20438	4e-05	2e-05	-4e-05	-0.00018	-0.00033	8e-05	0.00019	7e-05	4
20440	4e-05	2e-05	-4e-05	-0.00018	-0.00033	8e-05	0.00019	7e-05	4
20441	4e-05	2e-05	-4e-05	-0.00018	-0.00033	8e-05	0.00019	7e-05	4
20442	4e-05	2e-05	-4e-05	-0.00018	-0.00033	8e-05	0.00019	7e-05	4
20443	4e-05	2e-05	-4e-05	-0.00018	-0.00033	8e-05	0.00019	7e-05	4
20444	4e-05	3e-05	6e-05	0.00024	4e-05	0.00085	0.00016	8e-05	4
20445	-4e-05	-8e-05	-0.0001	-0.0001	-0.00041	-0.00028	-7e-05	-5e-05	4
20446	-4e-05	-8e-05	-0.0001	-0.0001	-0.00041	-0.00028	-7e-05	-5e-05	4
20447	-4e-05	-8e-05	-0.0001	-0.0001	-0.00041	-0.00028	-7e-05	-5e-05	4
20448	-4e-05	-8e-05	-0.0001	-0.0001	-0.00041	-0.00028	-7e-05	-5e-05	4
20449	-4e-05	-8e-05	-0.0001	-0.0001	-0.00041	-0.00028	-7e-05	-5e-05	4
20450	-4e-05	-8e-05	-0.0001	-0.0001	-0.00041	-0.00028	-7e-05	-5e-05	4
20451	-4e-05	-8e-05	-0.0001	-0.0001	-0.00041	-0.00028	-7e-05	-5e-05	4
20452	-4e-05	-8e-05	-0.0001	-0.0001	-0.00041	-0.00028	-7e-05	-5e-05	4
20453	-4e-05	-8e-05	-0.0001	-0.0001	-0.00041	-0.00028	-7e-05	-5e-05	4
20454	-4e-05	-8e-05	-0.0001	-0.0001	-0.00041	-0.00028	-7e-05	-5e-05	4
20455	-4e-05	-8e-05	-0.0001	-0.0001	-0.00041	-0.00028	-7e-05	-5e-05	4
20456	-4e-05	-8e-05	-0.0001	-0.0001	-0.00041	-0.00028	-7e-05	-5e-05	4
20457	-4e-05	-8e-05	-0.0001	-0.0001	-0.00041	-0.00028	-7e-05	-5e-05	4
20458	-4e-05	-8e-05	-0.0001	-0.0001	-0.00041	-0.00028	-7e-05	-5e-05	4
20459	-4e-05	-8e-05	-0.0001	-0.0001	-0.00041	-0.00028	-7e-05	-5e-05	4
20460	-4e-05	-8e-05	-0.0001	-0.0001	-0.00041	-0.00028	-7e-05	-5e-05	4
20461	-4e-05	-8e-05	-0.0001	-0.0001	-0.00041	-0.00028	-7e-05	-5e-05	4
20462	-4e-05	-8e-05	-0.0001	-0.0001	-0.00041	-0.00028	-7e-05	-5e-05	4
20463	-4e-05	-8e-05	-0.0001	-0.0001	-0.00041	-0.00028	-7e-05	-5e-05	4
20464	-4e-05	-8e-05	-0.0001	-0.0001	-0.00041	-0.00028	-7e-05	-5e-05	4
20465	-4e-05	-8e-05	-0.0001	-0.0001	-0.00041	-0.00028	-7e-05	-5e-05	4
20466	-5e-05	-9e-05	-8e-05	-0.00034	-7e-05	-0.00035	-0.00015	-0.00011	4
20467	3e-05	4e-05	1e-05	-1e-05	0.00017	-0.00014	6e-05	1e-05	4
20468	-3e-05	-5e-05	-0.00011	-0.00016	-0.00041	3e-05	-6e-05	-5e-05	4
20469	-3e-05	-5e-05	-0.00011	-0.00016	-0.00041	3e-05	-6e-05	-5e-05	4
20470	-3e-05	-5e-05	-0.00011	-0.00016	-0.00041	3e-05	-6e-05	-5e-05	4
20471	-3e-05	-5e-05	-0.00011	-0.00016	-0.00041	3e-05	-6e-05	-5e-05	4
20472	-3e-05	-5e-05	-0.00011	-0.00016	-0.00041	3e-05	-6e-05	-5e-05	4
20473	-3e-05	-5e-05	-0.00011	-0.00016	-0.00041	3e-05	-6e-05	-5e-05	4
20474	-3e-05	-5e-05	-0.00011	-0.00016	-0.00041	3e-05	-6e-05	-5e-05	4
20475	-3e-05	-5e-05	-0.00011	-0.00016	-0.00041	3e-05	-6e-05	-5e-05	4
20476	-3e-05	-5e-05	-0.00011	-0.00016	-0.00041	3e-05	-6e-05	-5e-05	4
20477	-3e-05	-5e-05	-0.00011	-0.00016	-0.00041	3e-05	-6e-05	-5e-05	4
20478	-3e-05	-5e-05	-0.00011	-0.00016	-0.00041	3e-05	-6e-05	-5e-05	4
20479	-3e-05	-5e-05	-0.00011	-0.00016	-0.00041	3e-05	-6e-05	-5e-05	4
20480	-3e-05	-5e-05	-0.00011	-0.00016	-0.00041	3e-05	-6e-05	-5e-05	4
20481	-2e-05	1e-05	0	0.00012	-0.00069	-0.00039	-6e-05	-4e-05	4
20482	-2e-05	1e-05	0	0.00012	-0.00069	-0.00039	-6e-05	-4e-05	4
20483	-2e-05	1e-05	0	0.00012	-0.00069	-0.00039	-6e-05	-4e-05	4
20484	-2e-05	1e-05	0	0.00012	-0.00069	-0.00039	-6e-05	-4e-05	4
20485	-2e-05	1e-05	0	0.00012	-0.00069	-0.00039	-6e-05	-4e-05	4
20487	-2e-05	1e-05	0	0.00012	-0.00069	-0.00039	-6e-05	-4e-05	4
20490	-2e-05	1e-05	0	0.00012	-0.00069	-0.00039	-6e-05	-4e-05	4
20491	-2e-05	1e-05	0	0.00012	-0.00069	-0.00039	-6e-05	-4e-05	4
20492	-2e-05	1e-05	0	0.00012	-0.00069	-0.00039	-6e-05	-4e-05	4
20493	-2e-05	1e-05	0	0.00012	-0.00069	-0.00039	-6e-05	-4e-05	4
20494	-2e-05	1e-05	0	0.00012	-0.00069	-0.00039	-6e-05	-4e-05	4
20495	-2e-05	1e-05	0	0.00012	-0.00069	-0.00039	-6e-05	-4e-05	4
20496	3e-05	6e-05	-6e-05	0.0002	-3e-05	0.00023	0.00013	7e-05	4
20497	3e-05	6e-05	-6e-05	0.0002	-3e-05	0.00023	0.00013	7e-05	4
20498	3e-05	6e-05	-6e-05	0.0002	-3e-05	0.00023	0.00013	7e-05	4
20499	3e-05	6e-05	-6e-05	0.0002	-3e-05	0.00023	0.00013	7e-05	4
20500	3e-05	6e-05	-6e-05	0.0002	-3e-05	0.00023	0.00013	7e-05	4
20501	3e-05	6e-05	-6e-05	0.0002	-3e-05	0.00023	0.00013	7e-05	4
20502	3e-05	6e-05	-6e-05	0.0002	-3e-05	0.00023	0.00013	7e-05	4
20503	3e-05	6e-05	-6e-05	0.0002	-3e-05	0.00023	0.00013	7e-05	4
20504	-1e-05	-1e-05	-1e-05	-0.00017	-0.00024	-0.00024	0	-1e-05	4
20505	-7e-05	-6e-05	-6e-05	-0.00017	0	-0.0004	-0.00021	-8e-05	4
20506	-7e-05	-6e-05	-6e-05	-0.00017	0	-0.0004	-0.00021	-8e-05	4
20507	-7e-05	-6e-05	-6e-05	-0.00017	0	-0.0004	-0.00021	-8e-05	4
20508	-7e-05	-6e-05	-6e-05	-0.00017	0	-0.0004	-0.00021	-8e-05	4
20509	-7e-05	-6e-05	-6e-05	-0.00017	0	-0.0004	-0.00021	-8e-05	4
20510	-7e-05	-6e-05	-6e-05	-0.00017	0	-0.0004	-0.00021	-8e-05	4
20511	-7e-05	-6e-05	-6e-05	-0.00017	0	-0.0004	-0.00021	-8e-05	4
20512	-7e-05	-6e-05	-6e-05	-0.00017	0	-0.0004	-0.00021	-8e-05	4
20513	-7e-05	-6e-05	-6e-05	-0.00017	0	-0.0004	-0.00021	-8e-05	4
20514	-7e-05	-6e-05	-6e-05	-0.00017	0	-0.0004	-0.00021	-8e-05	4
20515	-7e-05	-6e-05	-6e-05	-0.00017	0	-0.0004	-0.00021	-8e-05	4
20516	-7e-05	-6e-05	-6e-05	-0.00017	0	-0.0004	-0.00021	-8e-05	4
20517	-7e-05	-6e-05	-6e-05	-0.00017	0	-0.0004	-0.00021	-8e-05	4
20518	-7e-05	-6e-05	-6e-05	-0.00017	0	-0.0004	-0.00021	-8e-05	4
20519	-7e-05	-6e-05	-6e-05	-0.00017	0	-0.0004	-0.00021	-8e-05	4
20520	-7e-05	-6e-05	-6e-05	-0.00017	0	-0.0004	-0.00021	-8e-05	4
20521	-7e-05	-6e-05	-6e-05	-0.00017	0	-0.0004	-0.00021	-8e-05	4
20522	-7e-05	-6e-05	-6e-05	-0.00017	0	-0.0004	-0.00021	-8e-05	4
20523	-7e-05	-6e-05	-6e-05	-0.00017	0	-0.0004	-0.00021	-8e-05	4
20524	-7e-05	-6e-05	-6e-05	-0.00017	0	-0.0004	-0.00021	-8e-05	4
20525	-7e-05	-6e-05	-6e-05	-0.00017	0	-0.0004	-0.00021	-8e-05	4
20526	-7e-05	-6e-05	-6e-05	-0.00017	0	-0.0004	-0.00021	-8e-05	4
20527	-7e-05	-6e-05	-6e-05	-0.00017	0	-0.0004	-0.00021	-8e-05	4
20528	-7e-05	-6e-05	-6e-05	-0.00017	0	-0.0004	-0.00021	-8e-05	4
20529	-7e-05	-6e-05	-6e-05	-0.00017	0	-0.0004	-0.00021	-8e-05	4
20530	-7e-05	-6e-05	-6e-05	-0.00017	0	-0.0004	-0.00021	-8e-05	4
20531	-7e-05	-6e-05	-6e-05	-0.00017	0	-0.0004	-0.00021	-8e-05	4
20532	-7e-05	-6e-05	-6e-05	-0.00017	0	-0.0004	-0.00021	-8e-05	4
20533	-7e-05	-6e-05	-6e-05	-0.00017	0	-0.0004	-0.00021	-8e-05	4
20534	-1e-05	-4e-05	-0.0001	-0.00012	0.00037	-0.00031	-6e-05	-5e-05	4
20535	0.00012	0.00019	0.00021	0.00023	0.00046	0.00082	0.00046	0.00023	4
20536	0.00012	0.00019	0.00021	0.00023	0.00046	0.00082	0.00046	0.00023	4
20538	0.00012	0.00019	0.00021	0.00023	0.00046	0.00082	0.00046	0.00023	4
20539	0.00012	0.00019	0.00021	0.00023	0.00046	0.00082	0.00046	0.00023	4
20540	0.00012	0.00019	0.00021	0.00023	0.00046	0.00082	0.00046	0.00023	4
20541	0.00012	0.00019	0.00021	0.00023	0.00046	0.00082	0.00046	0.00023	4
20542	0	-4e-05	0	8e-05	0.00019	-0.00042	-7e-05	-6e-05	4
20543	3e-05	3e-05	7e-05	3e-05	0.00026	3e-05	4e-05	1e-05	4
20544	-4e-05	-8e-05	-3e-05	4e-05	0.00053	-0.00014	-6e-05	-7e-05	4
20545	-4e-05	-8e-05	-3e-05	4e-05	0.00053	-0.00014	-6e-05	-7e-05	4
20546	-4e-05	-8e-05	-3e-05	4e-05	0.00053	-0.00014	-6e-05	-7e-05	4
20547	-4e-05	-8e-05	-3e-05	4e-05	0.00053	-0.00014	-6e-05	-7e-05	4
20548	-4e-05	-8e-05	-3e-05	4e-05	0.00053	-0.00014	-6e-05	-7e-05	4
20549	3e-05	8e-05	3e-05	-0.00022	7e-05	0.00047	0.00011	8e-05	4
20550	3e-05	8e-05	3e-05	-0.00022	7e-05	0.00047	0.00011	8e-05	4
20551	3e-05	8e-05	3e-05	-0.00022	7e-05	0.00047	0.00011	8e-05	4
20553	3e-05	8e-05	3e-05	-0.00022	7e-05	0.00047	0.00011	8e-05	4
20554	3e-05	8e-05	3e-05	-0.00022	7e-05	0.00047	0.00011	8e-05	4
20555	3e-05	8e-05	3e-05	-0.00022	7e-05	0.00047	0.00011	8e-05	4
20556	3e-05	8e-05	3e-05	-0.00022	7e-05	0.00047	0.00011	8e-05	4
20557	3e-05	8e-05	3e-05	-0.00022	7e-05	0.00047	0.00011	8e-05	4
20558	3e-05	8e-05	3e-05	-0.00022	7e-05	0.00047	0.00011	8e-05	4
20559	3e-05	8e-05	3e-05	-0.00022	7e-05	0.00047	0.00011	8e-05	4
20560	3e-05	8e-05	3e-05	-0.00022	7e-05	0.00047	0.00011	8e-05	4
20561	3e-05	8e-05	3e-05	-0.00022	7e-05	0.00047	0.00011	8e-05	4
20562	3e-05	8e-05	3e-05	-0.00022	7e-05	0.00047	0.00011	8e-05	4
20563	3e-05	8e-05	3e-05	-0.00022	7e-05	0.00047	0.00011	8e-05	4
20564	1e-05	0	7e-05	-0.0002	-0.00077	-0.00021	4e-05	3e-05	4
20565	-7e-05	-0.00014	-0.00021	0.00012	0.00039	0.00014	-6e-05	-7e-05	4
20566	-7e-05	-0.00014	-0.00021	0.00012	0.00039	0.00014	-6e-05	-7e-05	4
20567	-7e-05	-0.00014	-0.00021	0.00012	0.00039	0.00014	-6e-05	-7e-05	4
20568	-7e-05	-0.00014	-0.00021	0.00012	0.00039	0.00014	-6e-05	-7e-05	4
20569	-7e-05	-0.00014	-0.00021	0.00012	0.00039	0.00014	-6e-05	-7e-05	4
20570	-7e-05	-0.00014	-0.00021	0.00012	0.00039	0.00014	-6e-05	-7e-05	4
20571	-7e-05	-0.00014	-0.00021	0.00012	0.00039	0.00014	-6e-05	-7e-05	4
20572	-7e-05	-0.00014	-0.00021	0.00012	0.00039	0.00014	-6e-05	-7e-05	4
20573	-7e-05	-0.00014	-0.00021	0.00012	0.00039	0.00014	-6e-05	-7e-05	4
20574	-7e-05	-0.00014	-0.00021	0.00012	0.00039	0.00014	-6e-05	-7e-05	4
20575	-7e-05	-0.00014	-0.00021	0.00012	0.00039	0.00014	-6e-05	-7e-05	4
20576	-7e-05	-0.00014	-0.00021	0.00012	0.00039	0.00014	-6e-05	-7e-05	4
20577	-7e-05	-0.00014	-0.00021	0.00012	0.00039	0.00014	-6e-05	-7e-05	4
20578	-7e-05	-0.00014	-0.00021	0.00012	0.00039	0.00014	-6e-05	-7e-05	4
20579	-7e-05	-0.00014	-0.00021	0.00012	0.00039	0.00014	-6e-05	-7e-05	4
20580	-7e-05	-0.00014	-0.00021	0.00012	0.00039	0.00014	-6e-05	-7e-05	4
20581	-7e-05	-0.00014	-0.00021	0.00012	0.00039	0.00014	-6e-05	-7e-05	4
20582	-7e-05	-0.00014	-0.00021	0.00012	0.00039	0.00014	-6e-05	-7e-05	4
20583	-7e-05	-0.00014	-0.00021	0.00012	0.00039	0.00014	-6e-05	-7e-05	4
20584	-7e-05	-0.00014	-0.00021	0.00012	0.00039	0.00014	-6e-05	-7e-05	4
20585	-7e-05	-0.00014	-0.00021	0.00012	0.00039	0.00014	-6e-05	-7e-05	4
20586	4e-05	2e-05	3e-05	8e-05	-0.00043	6e-05	4e-05	2e-05	4
20589	1e-05	6e-05	0.00013	0.00014	-9e-05	5e-05	1e-05	0	4
20590	1e-05	6e-05	0.00013	0.00014	-9e-05	5e-05	1e-05	0	4
20591	1e-05	6e-05	0.00013	0.00014	-9e-05	5e-05	1e-05	0	4
20592	1e-05	6e-05	0.00013	0.00014	-9e-05	5e-05	1e-05	0	4
20593	1e-05	6e-05	0.00013	0.00014	-9e-05	5e-05	1e-05	0	4
20594	1e-05	6e-05	0.00013	0.00014	-9e-05	5e-05	1e-05	0	4
20595	1e-05	6e-05	0.00013	0.00014	-9e-05	5e-05	1e-05	0	4
20596	1e-05	6e-05	0.00013	0.00014	-9e-05	5e-05	1e-05	0	4
20597	1e-05	6e-05	0.00013	0.00014	-9e-05	5e-05	1e-05	0	4
20598	1e-05	6e-05	0.00013	0.00014	-9e-05	5e-05	1e-05	0	4
20599	1e-05	6e-05	0.00013	0.00014	-9e-05	5e-05	1e-05	0	4
20600	1e-05	6e-05	0.00013	0.00014	-9e-05	5e-05	1e-05	0	4
20601	1e-05	6e-05	0.00013	0.00014	-9e-05	5e-05	1e-05	0	4
20602	1e-05	6e-05	0.00013	0.00014	-9e-05	5e-05	1e-05	0	4
20603	1e-05	6e-05	0.00013	0.00014	-9e-05	5e-05	1e-05	0	4
20604	1e-05	6e-05	0.00013	0.00014	-9e-05	5e-05	1e-05	0	4
20605	1e-05	6e-05	0.00013	0.00014	-9e-05	5e-05	1e-05	0	4
20606	1e-05	6e-05	0.00013	0.00014	-9e-05	5e-05	1e-05	0	4
20607	1e-05	6e-05	0.00013	0.00014	-9e-05	5e-05	1e-05	0	4
20608	1e-05	6e-05	0.00013	0.00014	-9e-05	5e-05	1e-05	0	4
20609	1e-05	6e-05	0.00013	0.00014	-9e-05	5e-05	1e-05	0	4
20610	1e-05	6e-05	0.00013	0.00014	-9e-05	5e-05	1e-05	0	4
20611	1e-05	6e-05	0.00013	0.00014	-9e-05	5e-05	1e-05	0	4
20612	1e-05	6e-05	0.00013	0.00014	-9e-05	5e-05	1e-05	0	4
20613	1e-05	6e-05	0.00013	0.00014	-9e-05	5e-05	1e-05	0	4
20614	1e-05	6e-05	0.00013	0.00014	-9e-05	5e-05	1e-05	0	4
20615	1e-05	6e-05	0.00013	0.00014	-9e-05	5e-05	1e-05	0	4
20616	1e-05	6e-05	0.00013	0.00014	-9e-05	5e-05	1e-05	0	4
20617	-4e-05	-5e-05	-0.00028	-0.00012	-5e-05	-0.00022	-4e-05	-8e-05	4
20618	1e-05	6e-05	0.00011	2e-05	0.00059	-4e-05	-1e-05	5e-05	4
20619	1e-05	6e-05	0.00011	2e-05	0.00059	-4e-05	-1e-05	5e-05	4
20620	1e-05	6e-05	0.00011	2e-05	0.00059	-4e-05	-1e-05	5e-05	4
20621	1e-05	6e-05	0.00011	2e-05	0.00059	-4e-05	-1e-05	5e-05	4
20622	1e-05	6e-05	0.00011	2e-05	0.00059	-4e-05	-1e-05	5e-05	4
20623	1e-05	6e-05	0.00011	2e-05	0.00059	-4e-05	-1e-05	5e-05	4
20624	-3e-05	-6e-05	-0.00011	-0.00015	-0.00021	-0.00015	1e-05	-2e-05	4
20625	3e-05	6e-05	9e-05	5e-05	-0.00105	-9e-05	3e-05	4e-05	4
20626	3e-05	6e-05	9e-05	5e-05	-0.00105	-9e-05	3e-05	4e-05	4
20627	3e-05	6e-05	9e-05	5e-05	-0.00105	-9e-05	3e-05	4e-05	4
20628	3e-05	6e-05	9e-05	5e-05	-0.00105	-9e-05	3e-05	4e-05	4
20629	3e-05	6e-05	9e-05	5e-05	-0.00105	-9e-05	3e-05	4e-05	4
20630	3e-05	6e-05	9e-05	5e-05	-0.00105	-9e-05	3e-05	4e-05	4
20631	3e-05	6e-05	9e-05	5e-05	-0.00105	-9e-05	3e-05	4e-05	4
20632	3e-05	6e-05	9e-05	5e-05	-0.00105	-9e-05	3e-05	4e-05	4
20633	3e-05	6e-05	9e-05	5e-05	-0.00105	-9e-05	3e-05	4e-05	4
20634	3e-05	6e-05	9e-05	5e-05	-0.00105	-9e-05	3e-05	4e-05	4
20635	3e-05	6e-05	9e-05	5e-05	-0.00105	-9e-05	3e-05	4e-05	4
20636	3e-05	6e-05	9e-05	5e-05	-0.00105	-9e-05	3e-05	4e-05	4
20638	3e-05	6e-05	9e-05	5e-05	-0.00105	-9e-05	3e-05	4e-05	4
20639	3e-05	6e-05	9e-05	5e-05	-0.00105	-9e-05	3e-05	4e-05	4
20640	3e-05	6e-05	9e-05	5e-05	-0.00105	-9e-05	3e-05	4e-05	4
20641	3e-05	6e-05	9e-05	5e-05	-0.00105	-9e-05	3e-05	4e-05	4
20642	3e-05	6e-05	9e-05	5e-05	-0.00105	-9e-05	3e-05	4e-05	4
20643	3e-05	6e-05	9e-05	5e-05	-0.00105	-9e-05	3e-05	4e-05	4
20644	3e-05	6e-05	9e-05	5e-05	-0.00105	-9e-05	3e-05	4e-05	4
20645	3e-05	6e-05	9e-05	5e-05	-0.00105	-9e-05	3e-05	4e-05	4
20646	3e-05	6e-05	9e-05	5e-05	-0.00105	-9e-05	3e-05	4e-05	4
20647	3e-05	6e-05	9e-05	5e-05	-0.00105	-9e-05	3e-05	4e-05	4
20648	3e-05	6e-05	9e-05	5e-05	-0.00105	-9e-05	3e-05	4e-05	4
20649	3e-05	6e-05	9e-05	5e-05	-0.00105	-9e-05	3e-05	4e-05	4
20650	3e-05	6e-05	9e-05	5e-05	-0.00105	-9e-05	3e-05	4e-05	4
20651	3e-05	6e-05	9e-05	5e-05	-0.00105	-9e-05	3e-05	4e-05	4
20652	3e-05	6e-05	9e-05	5e-05	-0.00105	-9e-05	3e-05	4e-05	4
20653	3e-05	6e-05	9e-05	5e-05	-0.00105	-9e-05	3e-05	4e-05	4
20654	3e-05	6e-05	9e-05	5e-05	-0.00105	-9e-05	3e-05	4e-05	4
20655	3e-05	6e-05	9e-05	5e-05	-0.00105	-9e-05	3e-05	4e-05	4
20656	3e-05	6e-05	9e-05	5e-05	-0.00105	-9e-05	3e-05	4e-05	4
20657	3e-05	6e-05	9e-05	5e-05	-0.00105	-9e-05	3e-05	4e-05	4
20658	3e-05	6e-05	9e-05	5e-05	-0.00105	-9e-05	3e-05	4e-05	4
20659	3e-05	6e-05	9e-05	5e-05	-0.00105	-9e-05	3e-05	4e-05	4
20660	3e-05	6e-05	9e-05	5e-05	-0.00105	-9e-05	3e-05	4e-05	4
20661	3e-05	6e-05	9e-05	5e-05	-0.00105	-9e-05	3e-05	4e-05	4
20662	0	-2e-05	6e-05	3e-05	7e-05	-0.00017	-7e-05	-2e-05	4
20663	3e-05	1e-05	7e-05	0.00013	-0.00013	4e-05	4e-05	1e-05	4
20664	3e-05	1e-05	7e-05	0.00013	-0.00013	4e-05	4e-05	1e-05	4
20665	3e-05	1e-05	7e-05	0.00013	-0.00013	4e-05	4e-05	1e-05	4
20666	3e-05	1e-05	7e-05	0.00013	-0.00013	4e-05	4e-05	1e-05	4
20667	3e-05	1e-05	7e-05	0.00013	-0.00013	4e-05	4e-05	1e-05	4
20668	3e-05	1e-05	7e-05	0.00013	-0.00013	4e-05	4e-05	1e-05	4
20669	-2e-05	-3e-05	-3e-05	-0.00015	-0.00017	-0.00018	-5e-05	-6e-05	4
20670	-2e-05	2e-05	2e-05	-0.00011	-0.00017	0.00011	-2e-05	-3e-05	4
20671	-2e-05	-1e-05	1e-05	-2e-05	-0.00027	0.00029	2e-05	-2e-05	4
20672	-2e-05	-1e-05	1e-05	-2e-05	-0.00027	0.00029	2e-05	-2e-05	4
20673	-2e-05	-1e-05	1e-05	-2e-05	-0.00027	0.00029	2e-05	-2e-05	4
20675	-2e-05	-1e-05	1e-05	-2e-05	-0.00027	0.00029	2e-05	-2e-05	4
20676	-2e-05	-1e-05	1e-05	-2e-05	-0.00027	0.00029	2e-05	-2e-05	4
20677	-2e-05	-1e-05	1e-05	-2e-05	-0.00027	0.00029	2e-05	-2e-05	4
20678	-2e-05	-1e-05	1e-05	-2e-05	-0.00027	0.00029	2e-05	-2e-05	4
20679	-2e-05	-1e-05	1e-05	-2e-05	-0.00027	0.00029	2e-05	-2e-05	4
20680	-2e-05	-1e-05	1e-05	-2e-05	-0.00027	0.00029	2e-05	-2e-05	4
20681	-2e-05	-1e-05	1e-05	-2e-05	-0.00027	0.00029	2e-05	-2e-05	4
20682	-2e-05	-1e-05	1e-05	-2e-05	-0.00027	0.00029	2e-05	-2e-05	4
20683	-2e-05	-1e-05	1e-05	-2e-05	-0.00027	0.00029	2e-05	-2e-05	4
20684	-3e-05	-4e-05	-6e-05	-0.00043	0.00028	-9e-05	-5e-05	-2e-05	4
20685	-3e-05	-2e-05	-0.00012	0.00015	-1e-05	-0.00015	-5e-05	-3e-05	4
20687	-3e-05	-2e-05	-0.00012	0.00015	-1e-05	-0.00015	-5e-05	-3e-05	4
20690	-3e-05	-2e-05	-0.00012	0.00015	-1e-05	-0.00015	-5e-05	-3e-05	4
20691	-3e-05	-2e-05	-0.00012	0.00015	-1e-05	-0.00015	-5e-05	-3e-05	4
20692	-3e-05	-2e-05	-0.00012	0.00015	-1e-05	-0.00015	-5e-05	-3e-05	4
20693	-3e-05	-2e-05	-0.00012	0.00015	-1e-05	-0.00015	-5e-05	-3e-05	4
20694	-3e-05	-2e-05	-0.00012	0.00015	-1e-05	-0.00015	-5e-05	-3e-05	4
20695	-3e-05	-2e-05	-0.00012	0.00015	-1e-05	-0.00015	-5e-05	-3e-05	4
20696	-3e-05	-2e-05	-0.00012	0.00015	-1e-05	-0.00015	-5e-05	-3e-05	4
20697	-3e-05	-2e-05	-0.00012	0.00015	-1e-05	-0.00015	-5e-05	-3e-05	4
20698	-3e-05	-2e-05	-0.00012	0.00015	-1e-05	-0.00015	-5e-05	-3e-05	4
20699	-3e-05	-2e-05	-0.00012	0.00015	-1e-05	-0.00015	-5e-05	-3e-05	4
20700	-3e-05	-2e-05	-0.00012	0.00015	-1e-05	-0.00015	-5e-05	-3e-05	4
20701	-3e-05	-2e-05	-0.00012	0.00015	-1e-05	-0.00015	-5e-05	-3e-05	4
20702	-3e-05	-2e-05	-0.00012	0.00015	-1e-05	-0.00015	-5e-05	-3e-05	4
20703	-3e-05	-2e-05	-0.00012	0.00015	-1e-05	-0.00015	-5e-05	-3e-05	4
20704	-3e-05	-2e-05	-0.00012	0.00015	-1e-05	-0.00015	-5e-05	-3e-05	4
20705	-3e-05	-2e-05	-0.00012	0.00015	-1e-05	-0.00015	-5e-05	-3e-05	4
20706	0	0	5e-05	0.00016	-0.00015	0.00028	1e-05	-2e-05	4
20707	-8e-05	-4e-05	-4e-05	-0.00026	-0.0001	-8e-05	-9e-05	-7e-05	4
20708	-8e-05	-4e-05	-4e-05	-0.00026	-0.0001	-8e-05	-9e-05	-7e-05	4
20709	-8e-05	-4e-05	-4e-05	-0.00026	-0.0001	-8e-05	-9e-05	-7e-05	4
20710	-8e-05	-4e-05	-4e-05	-0.00026	-0.0001	-8e-05	-9e-05	-7e-05	4
20711	-8e-05	-4e-05	-4e-05	-0.00026	-0.0001	-8e-05	-9e-05	-7e-05	4
20712	-8e-05	-4e-05	-4e-05	-0.00026	-0.0001	-8e-05	-9e-05	-7e-05	4
20713	-8e-05	-4e-05	-4e-05	-0.00026	-0.0001	-8e-05	-9e-05	-7e-05	4
20714	-8e-05	-4e-05	-4e-05	-0.00026	-0.0001	-8e-05	-9e-05	-7e-05	4
20715	-8e-05	-4e-05	-4e-05	-0.00026	-0.0001	-8e-05	-9e-05	-7e-05	4
20716	-8e-05	-4e-05	-4e-05	-0.00026	-0.0001	-8e-05	-9e-05	-7e-05	4
20717	-8e-05	-4e-05	-4e-05	-0.00026	-0.0001	-8e-05	-9e-05	-7e-05	4
20718	-8e-05	-4e-05	-4e-05	-0.00026	-0.0001	-8e-05	-9e-05	-7e-05	4
20719	-8e-05	-4e-05	-4e-05	-0.00026	-0.0001	-8e-05	-9e-05	-7e-05	4
20720	-8e-05	-4e-05	-4e-05	-0.00026	-0.0001	-8e-05	-9e-05	-7e-05	4
20721	-8e-05	-4e-05	-4e-05	-0.00026	-0.0001	-8e-05	-9e-05	-7e-05	4
20722	-8e-05	-4e-05	-4e-05	-0.00026	-0.0001	-8e-05	-9e-05	-7e-05	4
20723	-8e-05	-4e-05	-4e-05	-0.00026	-0.0001	-8e-05	-9e-05	-7e-05	4
20724	-8e-05	-4e-05	-4e-05	-0.00026	-0.0001	-8e-05	-9e-05	-7e-05	4
20725	-8e-05	-4e-05	-4e-05	-0.00026	-0.0001	-8e-05	-9e-05	-7e-05	4
20726	-8e-05	-4e-05	-4e-05	-0.00026	-0.0001	-8e-05	-9e-05	-7e-05	4
20727	-8e-05	-4e-05	-4e-05	-0.00026	-0.0001	-8e-05	-9e-05	-7e-05	4
20728	-8e-05	-4e-05	-4e-05	-0.00026	-0.0001	-8e-05	-9e-05	-7e-05	4
20729	-8e-05	-4e-05	-4e-05	-0.00026	-0.0001	-8e-05	-9e-05	-7e-05	4
20730	-8e-05	-4e-05	-4e-05	-0.00026	-0.0001	-8e-05	-9e-05	-7e-05	4
20731	-8e-05	-4e-05	-4e-05	-0.00026	-0.0001	-8e-05	-9e-05	-7e-05	4
20732	-8e-05	-4e-05	-4e-05	-0.00026	-0.0001	-8e-05	-9e-05	-7e-05	4
20733	-8e-05	-4e-05	-4e-05	-0.00026	-0.0001	-8e-05	-9e-05	-7e-05	4
20734	-8e-05	-4e-05	-4e-05	-0.00026	-0.0001	-8e-05	-9e-05	-7e-05	4
20735	-8e-05	-4e-05	-4e-05	-0.00026	-0.0001	-8e-05	-9e-05	-7e-05	4
20736	-8e-05	-4e-05	-4e-05	-0.00026	-0.0001	-8e-05	-9e-05	-7e-05	4
20739	-2e-05	-4e-05	-4e-05	-2e-05	3e-05	-6e-05	-7e-05	-5e-05	4
20740	-2e-05	-4e-05	-4e-05	-2e-05	3e-05	-6e-05	-7e-05	-5e-05	4
20741	-2e-05	-4e-05	-4e-05	-2e-05	3e-05	-6e-05	-7e-05	-5e-05	4
20742	-2e-05	-4e-05	-4e-05	-2e-05	3e-05	-6e-05	-7e-05	-5e-05	4
20743	-2e-05	-4e-05	-4e-05	-2e-05	3e-05	-6e-05	-7e-05	-5e-05	4
20744	0	0	-1e-05	9e-05	0.00015	0.00011	2e-05	1e-05	4
20745	-3e-05	-3e-05	-2e-05	-0.00017	-0.00011	-0.00054	-4e-05	-3e-05	4
20746	-3e-05	-3e-05	-2e-05	-0.00017	-0.00011	-0.00054	-4e-05	-3e-05	4
20747	-3e-05	-3e-05	-2e-05	-0.00017	-0.00011	-0.00054	-4e-05	-3e-05	4
20748	-3e-05	-3e-05	-2e-05	-0.00017	-0.00011	-0.00054	-4e-05	-3e-05	4
20749	-3e-05	-3e-05	-2e-05	-0.00017	-0.00011	-0.00054	-4e-05	-3e-05	4
20750	-3e-05	-3e-05	-2e-05	-0.00017	-0.00011	-0.00054	-4e-05	-3e-05	4
20751	-3e-05	-3e-05	-2e-05	-0.00017	-0.00011	-0.00054	-4e-05	-3e-05	4
20752	-3e-05	-3e-05	-2e-05	-0.00017	-0.00011	-0.00054	-4e-05	-3e-05	4
20753	-3e-05	-3e-05	-2e-05	-0.00017	-0.00011	-0.00054	-4e-05	-3e-05	4
20754	-3e-05	-3e-05	-2e-05	-0.00017	-0.00011	-0.00054	-4e-05	-3e-05	4
20755	-3e-05	-3e-05	-2e-05	-0.00017	-0.00011	-0.00054	-4e-05	-3e-05	4
20756	-3e-05	-3e-05	-2e-05	-0.00017	-0.00011	-0.00054	-4e-05	-3e-05	4
20757	-3e-05	-3e-05	-2e-05	-0.00017	-0.00011	-0.00054	-4e-05	-3e-05	4
20758	-3e-05	-3e-05	-2e-05	-0.00017	-0.00011	-0.00054	-4e-05	-3e-05	4
20759	-3e-05	-3e-05	-2e-05	-0.00017	-0.00011	-0.00054	-4e-05	-3e-05	4
20760	-3e-05	-3e-05	-2e-05	-0.00017	-0.00011	-0.00054	-4e-05	-3e-05	4
20761	-3e-05	-3e-05	-2e-05	-0.00017	-0.00011	-0.00054	-4e-05	-3e-05	4
20762	-3e-05	-3e-05	-2e-05	-0.00017	-0.00011	-0.00054	-4e-05	-3e-05	4
20763	-3e-05	-3e-05	-2e-05	-0.00017	-0.00011	-0.00054	-4e-05	-3e-05	4
20764	-3e-05	-3e-05	-2e-05	-0.00017	-0.00011	-0.00054	-4e-05	-3e-05	4
20765	-3e-05	-3e-05	-2e-05	-0.00017	-0.00011	-0.00054	-4e-05	-3e-05	4
20766	-3e-05	-3e-05	-2e-05	-0.00017	-0.00011	-0.00054	-4e-05	-3e-05	4
20767	-3e-05	-3e-05	-2e-05	-0.00017	-0.00011	-0.00054	-4e-05	-3e-05	4
20768	-3e-05	-3e-05	-2e-05	-0.00017	-0.00011	-0.00054	-4e-05	-3e-05	4
20769	-3e-05	-3e-05	-2e-05	-0.00017	-0.00011	-0.00054	-4e-05	-3e-05	4
