16126	-8e-05	-9e-05	-0.00018	-0.00044	-0.00044	-0.00034	-0.00023	-0.00011	4
16127	-8e-05	-9e-05	-0.00018	-0.00044	-0.00044	-0.00034	-0.00023	-0.00011	4
16128	-8e-05	-9e-05	-0.00018	-0.00044	-0.00044	-0.00034	-0.00023	-0.00011	4
16129	-8e-05	-9e-05	-0.00018	-0.00044	-0.00044	-0.00034	-0.00023	-0.00011	4
16130	-8e-05	-9e-05	-0.00018	-0.00044	-0.00044	-0.00034	-0.00023	-0.00011	4
16131	-8e-05	-9e-05	-0.00018	-0.00044	-0.00044	-0.00034	-0.00023	-0.00011	4
16132	-8e-05	-9e-05	-0.00018	-0.00044	-0.00044	-0.00034	-0.00023	-0.00011	4
16133	-8e-05	-9e-05	-0.00018	-0.00044	-0.00044	-0.00034	-0.00023	-0.00011	4
16134	-8e-05	-9e-05	-0.00018	-0.00044	-0.00044	-0.00034	-0.00023	-0.00011	4
16135	-8e-05	-9e-05	-0.00018	-0.00044	-0.00044	-0.00034	-0.00023	-0.00011	4
16136	-8e-05	-9e-05	-0.00018	-0.00044	-0.00044	-0.00034	-0.00023	-0.00011	4
16138	5e-05	8e-05	0.00016	0.00088	-7e-05	0.00031	0.00012	9e-05	4
16139	0	-1e-05	-8e-05	-0.0005	-0.00015	0.00012	5e-05	1e-05	4
16140	0	-1e-05	-8e-05	-0.0005	-0.00015	0.00012	5e-05	1e-05	4
16141	0	-1e-05	-8e-05	-0.0005	-0.00015	0.00012	5e-05	1e-05	4
16142	0	-1e-05	-8e-05	-0.0005	-0.00015	0.00012	5e-05	1e-05	4
16143	0	-1e-05	-8e-05	-0.0005	-0.00015	0.00012	5e-05	1e-05	4
16144	0	-1e-05	-8e-05	-0.0005	-0.00015	0.00012	5e-05	1e-05	4
16145	0	-1e-05	-8e-05	-0.0005	-0.00015	0.00012	5e-05	1e-05	4
16146	0	-1e-05	-8e-05	-0.0005	-0.00015	0.00012	5e-05	1e-05	4
16147	0	-1e-05	-8e-05	-0.0005	-0.00015	0.00012	5e-05	1e-05	4
16149	0	-1e-05	-8e-05	-0.0005	-0.00015	0.00012	5e-05	1e-05	4
16150	0	-1e-05	-8e-05	-0.0005	-0.00015	0.00012	5e-05	1e-05	4
16151	0	-1e-05	-8e-05	-0.0005	-0.00015	0.00012	5e-05	1e-05	4
16152	0	-1e-05	-8e-05	-0.0005	-0.00015	0.00012	5e-05	1e-05	4
16153	0	-1e-05	-8e-05	-0.0005	-0.00015	0.00012	5e-05	1e-05	4
16154	0	-1e-05	-8e-05	-0.0005	-0.00015	0.00012	5e-05	1e-05	4
16155	0	-1e-05	-8e-05	-0.0005	-0.00015	0.00012	5e-05	1e-05	4
16156	0	-1e-05	-8e-05	-0.0005	-0.00015	0.00012	5e-05	1e-05	4
16157	0	-1e-05	-8e-05	-0.0005	-0.00015	0.00012	5e-05	1e-05	4
16158	0	-1e-05	-8e-05	-0.0005	-0.00015	0.00012	5e-05	1e-05	4
16159	0	-1e-05	-8e-05	-0.0005	-0.00015	0.00012	5e-05	1e-05	4
16160	0	-1e-05	-8e-05	-0.0005	-0.00015	0.00012	5e-05	1e-05	4
16161	0	-1e-05	-8e-05	-0.00059	-0.00058	-5e-05	6e-05	3e-05	4
16162	-7e-05	-7e-05	-0.0001	9e-05	0.00024	-5e-05	4e-05	0	4
16163	-7e-05	-7e-05	-0.0001	9e-05	0.00024	-5e-05	4e-05	0	4
16164	-7e-05	-7e-05	-0.0001	9e-05	0.00024	-5e-05	4e-05	0	4
16165	-7e-05	-7e-05	-0.0001	9e-05	0.00024	-5e-05	4e-05	0	4
16166	-7e-05	-7e-05	-0.0001	9e-05	0.00024	-5e-05	4e-05	0	4
16167	-7e-05	-7e-05	-0.0001	9e-05	0.00024	-5e-05	4e-05	0	4
16168	-7e-05	-7e-05	-0.0001	9e-05	0.00024	-5e-05	4e-05	0	4
16169	-7e-05	-7e-05	-0.0001	9e-05	0.00024	-5e-05	4e-05	0	4
16170	-7e-05	-7e-05	-0.0001	9e-05	0.00024	-5e-05	4e-05	0	4
16171	-7e-05	-7e-05	-0.0001	9e-05	0.00024	-5e-05	4e-05	0	4
16172	-7e-05	-7e-05	-0.0001	9e-05	0.00024	-5e-05	4e-05	0	4
16173	-7e-05	-7e-05	-0.0001	9e-05	0.00024	-5e-05	4e-05	0	4
16174	-7e-05	-7e-05	-0.0001	9e-05	0.00024	-5e-05	4e-05	0	4
16175	-7e-05	-6e-05	-5e-05	0.00011	-0.00039	0.00018	-0.00011	-7e-05	4
16176	-1e-05	-3e-05	-5e-05	3e-05	-0.00013	-0.00054	-6e-05	-1e-05	4
16177	-1e-05	-3e-05	-5e-05	3e-05	-0.00013	-0.00054	-6e-05	-1e-05	4
16178	-1e-05	-3e-05	-5e-05	3e-05	-0.00013	-0.00054	-6e-05	-1e-05	4
16179	-1e-05	-3e-05	-5e-05	3e-05	-0.00013	-0.00054	-6e-05	-1e-05	4
16180	-1e-05	-3e-05	-5e-05	3e-05	-0.00013	-0.00054	-6e-05	-1e-05	4
16181	-1e-05	-3e-05	-5e-05	3e-05	-0.00013	-0.00054	-6e-05	-1e-05	4
16182	-1e-05	-3e-05	-5e-05	3e-05	-0.00013	-0.00054	-6e-05	-1e-05	4
16183	-1e-05	-3e-05	-5e-05	3e-05	-0.00013	-0.00054	-6e-05	-1e-05	4
16184	-1e-05	-3e-05	-5e-05	3e-05	-0.00013	-0.00054	-6e-05	-1e-05	4
16185	-1e-05	-3e-05	-5e-05	3e-05	-0.00013	-0.00054	-6e-05	-1e-05	4
16186	-1e-05	-3e-05	-5e-05	3e-05	-0.00013	-0.00054	-6e-05	-1e-05	4
16188	-1e-05	-3e-05	-5e-05	3e-05	-0.00013	-0.00054	-6e-05	-1e-05	4
16189	-1e-05	-3e-05	-5e-05	3e-05	-0.00013	-0.00054	-6e-05	-1e-05	4
16190	-1e-05	-3e-05	-5e-05	3e-05	-0.00013	-0.00054	-6e-05	-1e-05	4
16191	-1e-05	-3e-05	-5e-05	3e-05	-0.00013	-0.00054	-6e-05	-1e-05	4
16192	-1e-05	-3e-05	-5e-05	3e-05	-0.00013	-0.00054	-6e-05	-1e-05	4
16193	-1e-05	-3e-05	-5e-05	3e-05	-0.00013	-0.00054	-6e-05	-1e-05	4
16194	-1e-05	-3e-05	-5e-05	3e-05	-0.00013	-0.00054	-6e-05	-1e-05	4
16195	-1e-05	-3e-05	-5e-05	3e-05	-0.00013	-0.00054	-6e-05	-1e-05	4
16196	-1e-05	-3e-05	-5e-05	3e-05	-0.00013	-0.00054	-6e-05	-1e-05	4
16197	-1e-05	-3e-05	-5e-05	3e-05	-0.00013	-0.00054	-6e-05	-1e-05	4
16198	-0.0001	-0.00018	-0.00029	-0.00055	-0.00021	-0.00095	-0.00017	-0.00011	4
16199	-3e-05	-3e-05	-5e-05	-0.00076	-0.00016	-6e-05	3e-05	-2e-05	4
16200	-3e-05	-3e-05	-5e-05	-0.00076	-0.00016	-6e-05	3e-05	-2e-05	4
16201	-3e-05	-3e-05	-5e-05	-0.00076	-0.00016	-6e-05	3e-05	-2e-05	4
16202	-3e-05	-3e-05	-5e-05	-0.00076	-0.00016	-6e-05	3e-05	-2e-05	4
16203	-3e-05	-3e-05	-5e-05	-0.00076	-0.00016	-6e-05	3e-05	-2e-05	4
16204	-3e-05	-3e-05	-5e-05	-0.00076	-0.00016	-6e-05	3e-05	-2e-05	4
16205	-3e-05	-3e-05	-5e-05	-0.00076	-0.00016	-6e-05	3e-05	-2e-05	4
16206	-3e-05	-3e-05	-5e-05	-0.00076	-0.00016	-6e-05	3e-05	-2e-05	4
16207	-3e-05	-3e-05	-5e-05	-0.00076	-0.00016	-6e-05	3e-05	-2e-05	4
16208	-3e-05	-3e-05	-5e-05	-0.00076	-0.00016	-6e-05	3e-05	-2e-05	4
16209	-3e-05	-3e-05	-5e-05	-0.00076	-0.00016	-6e-05	3e-05	-2e-05	4
16210	-3e-05	-3e-05	-5e-05	-0.00076	-0.00016	-6e-05	3e-05	-2e-05	4
16211	-3e-05	-3e-05	-5e-05	-0.00076	-0.00016	-6e-05	3e-05	-2e-05	4
16212	-3e-05	-3e-05	-5e-05	-0.00076	-0.00016	-6e-05	3e-05	-2e-05	4
16213	-3e-05	-3e-05	-5e-05	-0.00076	-0.00016	-6e-05	3e-05	-2e-05	4
16214	-3e-05	-3e-05	-5e-05	-0.00076	-0.00016	-6e-05	3e-05	-2e-05	4
16215	-3e-05	-3e-05	-5e-05	-0.00076	-0.00016	-6e-05	3e-05	-2e-05	4
16216	-3e-05	-3e-05	-5e-05	-0.00076	-0.00016	-6e-05	3e-05	-2e-05	4
16217	-3e-05	-3e-05	-5e-05	-0.00076	-0.00016	-6e-05	3e-05	-2e-05	4
16218	-3e-05	-3e-05	-5e-05	-0.00076	-0.00016	-6e-05	3e-05	-2e-05	4
16219	-3e-05	-3e-05	-5e-05	-0.00076	-0.00016	-6e-05	3e-05	-2e-05	4
16220	-3e-05	-3e-05	-5e-05	-0.00076	-0.00016	-6e-05	3e-05	-2e-05	4
16221	-6e-05	-7e-05	-0.00013	0.00037	0.00087	-0.00015	-8e-05	-6e-05	4
16222	-6e-05	-7e-05	-2e-05	1e-05	-0.00025	0.00013	-0.00013	-6e-05	4
16223	-6e-05	-7e-05	-2e-05	1e-05	-0.00025	0.00013	-0.00013	-6e-05	4
16224	-6e-05	-7e-05	-2e-05	1e-05	-0.00025	0.00013	-0.00013	-6e-05	4
16225	-6e-05	-7e-05	-2e-05	1e-05	-0.00025	0.00013	-0.00013	-6e-05	4
16226	-6e-05	-7e-05	-2e-05	1e-05	-0.00025	0.00013	-0.00013	-6e-05	4
16227	-6e-05	-7e-05	-2e-05	1e-05	-0.00025	0.00013	-0.00013	-6e-05	4
16228	-6e-05	-7e-05	-2e-05	1e-05	-0.00025	0.00013	-0.00013	-6e-05	4
16229	-6e-05	-7e-05	-2e-05	1e-05	-0.00025	0.00013	-0.00013	-6e-05	4
16230	-6e-05	-7e-05	-2e-05	1e-05	-0.00025	0.00013	-0.00013	-6e-05	4
16231	-6e-05	-7e-05	-2e-05	1e-05	-0.00025	0.00013	-0.00013	-6e-05	4
16232	-6e-05	-7e-05	-2e-05	1e-05	-0.00025	0.00013	-0.00013	-6e-05	4
16233	-6e-05	-7e-05	-2e-05	1e-05	-0.00025	0.00013	-0.00013	-6e-05	4
16234	-6e-05	-7e-05	-2e-05	1e-05	-0.00025	0.00013	-0.00013	-6e-05	4
16235	-0.0001	-0.00016	-0.00024	-0.00065	-0.00063	-0.00036	-0.00017	-0.0001	4
16236	-2e-05	-0.00011	-0.00022	0.0004	0.00099	-0.00016	-0.00012	-5e-05	4
16239	-2e-05	-0.00011	-0.00022	0.0004	0.00099	-0.00016	-0.00012	-5e-05	4
16240	-2e-05	-0.00011	-0.00022	0.0004	0.00099	-0.00016	-0.00012	-5e-05	4
16241	-2e-05	-0.00011	-0.00022	0.0004	0.00099	-0.00016	-0.00012	-5e-05	4
16242	-2e-05	-0.00011	-0.00022	0.0004	0.00099	-0.00016	-0.00012	-5e-05	4
16243	-2e-05	-0.00011	-0.00022	0.0004	0.00099	-0.00016	-0.00012	-5e-05	4
16244	-2e-05	-0.00011	-0.00022	0.0004	0.00099	-0.00016	-0.00012	-5e-05	4
16245	-2e-05	-0.00011	-0.00022	0.0004	0.00099	-0.00016	-0.00012	-5e-05	4
16246	-2e-05	-0.00011	-0.00022	0.0004	0.00099	-0.00016	-0.00012	-5e-05	4
16247	-2e-05	-0.00011	-0.00022	0.0004	0.00099	-0.00016	-0.00012	-5e-05	4
16248	-2e-05	-0.00011	-0.00022	0.0004	0.00099	-0.00016	-0.00012	-5e-05	4
16249	-2e-05	-0.00011	-0.00022	0.0004	0.00099	-0.00016	-0.00012	-5e-05	4
16250	-2e-05	-0.00011	-0.00022	0.0004	0.00099	-0.00016	-0.00012	-5e-05	4
16251	-2e-05	-0.00011	-0.00022	0.0004	0.00099	-0.00016	-0.00012	-5e-05	4
16252	-2e-05	-0.00011	-0.00022	0.0004	0.00099	-0.00016	-0.00012	-5e-05	4
16253	-2e-05	-0.00011	-0.00022	0.0004	0.00099	-0.00016	-0.00012	-5e-05	4
16254	-2e-05	-0.00011	-0.00022	0.0004	0.00099	-0.00016	-0.00012	-5e-05	4
16255	-2e-05	-0.00011	-0.00022	0.0004	0.00099	-0.00016	-0.00012	-5e-05	4
16256	-2e-05	-0.00011	-0.00022	0.0004	0.00099	-0.00016	-0.00012	-5e-05	4
16257	-2e-05	-0.00011	-0.00022	0.0004	0.00099	-0.00016	-0.00012	-5e-05	4
16258	3e-05	3e-05	6e-05	-0.00034	-3e-05	0.0002	3e-05	3e-05	4
16259	-2e-05	-3e-05	-4e-05	-0.00015	0.00028	-0.00016	-2e-05	-1e-05	4
16260	0	-5e-05	-6e-05	-0.00028	0.00022	-0.00016	7e-05	2e-05	4
16261	0	-5e-05	-6e-05	-0.00028	0.00022	-0.00016	7e-05	2e-05	4
16262	0	-5e-05	-6e-05	-0.00028	0.00022	-0.00016	7e-05	2e-05	4
16263	0	-5e-05	-6e-05	-0.00028	0.00022	-0.00016	7e-05	2e-05	4
16264	0	-5e-05	-6e-05	-0.00028	0.00022	-0.00016	7e-05	2e-05	4
16265	0	-5e-05	-6e-05	-0.00028	0.00022	-0.00016	7e-05	2e-05	4
16266	0	-5e-05	-6e-05	-0.00028	0.00022	-0.00016	7e-05	2e-05	4
16267	0	-5e-05	-6e-05	-0.00028	0.00022	-0.00016	7e-05	2e-05	4
16268	0	-5e-05	-6e-05	-0.00028	0.00022	-0.00016	7e-05	2e-05	4
16269	0	-5e-05	-6e-05	-0.00028	0.00022	-0.00016	7e-05	2e-05	4
16270	0	-5e-05	-6e-05	-0.00028	0.00022	-0.00016	7e-05	2e-05	4
16271	0	-5e-05	-6e-05	-0.00028	0.00022	-0.00016	7e-05	2e-05	4
16272	0	-5e-05	-6e-05	-0.00028	0.00022	-0.00016	7e-05	2e-05	4
16273	0	-5e-05	-6e-05	-0.00028	0.00022	-0.00016	7e-05	2e-05	4
16274	0	-5e-05	-6e-05	-0.00028	0.00022	-0.00016	7e-05	2e-05	4
16275	0	-5e-05	-6e-05	-0.00028	0.00022	-0.00016	7e-05	2e-05	4
16276	0	-5e-05	-6e-05	-0.00028	0.00022	-0.00016	7e-05	2e-05	4
16277	0	-5e-05	-6e-05	-0.00028	0.00022	-0.00016	7e-05	2e-05	4
16278	0	-5e-05	-6e-05	-0.00028	0.00022	-0.00016	7e-05	2e-05	4
16279	0	-5e-05	-6e-05	-0.00028	0.00022	-0.00016	7e-05	2e-05	4
16280	0	-5e-05	-6e-05	-0.00028	0.00022	-0.00016	7e-05	2e-05	4
16281	0	1e-05	4e-05	0.00092	0.00105	0.00013	2e-05	1e-05	4
16282	-6e-05	-7e-05	-7e-05	-0.00043	-9e-05	3e-05	-0.00012	-8e-05	4
16283	-6e-05	-7e-05	-7e-05	-0.00043	-9e-05	3e-05	-0.00012	-8e-05	4
16284	-6e-05	-7e-05	-7e-05	-0.00043	-9e-05	3e-05	-0.00012	-8e-05	4
16285	-6e-05	-7e-05	-7e-05	-0.00043	-9e-05	3e-05	-0.00012	-8e-05	4
16286	-6e-05	-7e-05	-7e-05	-0.00043	-9e-05	3e-05	-0.00012	-8e-05	4
16288	-6e-05	-7e-05	-7e-05	-0.00043	-9e-05	3e-05	-0.00012	-8e-05	4
16289	-6e-05	-7e-05	-7e-05	-0.00043	-9e-05	3e-05	-0.00012	-8e-05	4
16290	-6e-05	-7e-05	-7e-05	-0.00043	-9e-05	3e-05	-0.00012	-8e-05	4
16291	-6e-05	-7e-05	-7e-05	-0.00043	-9e-05	3e-05	-0.00012	-8e-05	4
16292	-6e-05	-7e-05	-7e-05	-0.00043	-9e-05	3e-05	-0.00012	-8e-05	4
16293	-6e-05	-7e-05	-7e-05	-0.00043	-9e-05	3e-05	-0.00012	-8e-05	4
16294	-6e-05	-7e-05	-7e-05	-0.00043	-9e-05	3e-05	-0.00012	-8e-05	4
16295	1e-05	5e-05	0.00014	-0.00029	-0.0004	0.00026	1e-05	1e-05	4
16296	1e-05	5e-05	0.00014	-0.00029	-0.0004	0.00026	1e-05	1e-05	4
16297	-3e-05	-6e-05	-0.00016	-0.00022	-0.0006	-0.00023	-7e-05	-5e-05	4
16298	-3e-05	-6e-05	-0.00016	-0.00022	-0.0006	-0.00023	-7e-05	-5e-05	4
16299	-3e-05	-6e-05	-0.00016	-0.00022	-0.0006	-0.00023	-7e-05	-5e-05	4
16300	-3e-05	-6e-05	-0.00016	-0.00022	-0.0006	-0.00023	-7e-05	-5e-05	4
16301	-3e-05	-6e-05	-0.00016	-0.00022	-0.0006	-0.00023	-7e-05	-5e-05	4
16302	-3e-05	-6e-05	-0.00016	-0.00022	-0.0006	-0.00023	-7e-05	-5e-05	4
16303	-3e-05	-6e-05	-0.00016	-0.00022	-0.0006	-0.00023	-7e-05	-5e-05	4
16304	-3e-05	-6e-05	-0.00016	-0.00022	-0.0006	-0.00023	-7e-05	-5e-05	4
16305	-3e-05	-6e-05	-0.00016	-0.00022	-0.0006	-0.00023	-7e-05	-5e-05	4
16306	-3e-05	-6e-05	-0.00016	-0.00022	-0.0006	-0.00023	-7e-05	-5e-05	4
16307	-3e-05	-6e-05	-0.00016	-0.00022	-0.0006	-0.00023	-7e-05	-5e-05	4
16308	-3e-05	-6e-05	-0.00016	-0.00022	-0.0006	-0.00023	-7e-05	-5e-05	4
16309	-3e-05	-6e-05	-0.00016	-0.00022	-0.0006	-0.00023	-7e-05	-5e-05	4
16310	-3e-05	-6e-05	-0.00016	-0.00022	-0.0006	-0.00023	-7e-05	-5e-05	4
16311	-3e-05	-6e-05	-0.00016	-0.00022	-0.0006	-0.00023	-7e-05	-5e-05	4
16312	-3e-05	-6e-05	-0.00016	-0.00022	-0.0006	-0.00023	-7e-05	-5e-05	4
16313	-3e-05	-6e-05	-0.00016	-0.00022	-0.0006	-0.00023	-7e-05	-5e-05	4
16314	-3e-05	-6e-05	-0.00016	-0.00022	-0.0006	-0.00023	-7e-05	-5e-05	4
16315	-3e-05	-6e-05	-0.00016	-0.00022	-0.0006	-0.00023	-7e-05	-5e-05	4
16316	-3e-05	-6e-05	-0.00016	-0.00022	-0.0006	-0.00023	-7e-05	-5e-05	4
16317	-3e-05	-6e-05	-0.00016	-0.00022	-0.0006	-0.00023	-7e-05	-5e-05	4
16318	-2e-05	1e-05	0	9e-05	-9e-05	7e-05	4e-05	4e-05	4
16319	2e-05	2e-05	4e-05	3e-05	-0.00036	6e-05	3e-05	2e-05	4
16320	2e-05	2e-05	4e-05	3e-05	-0.00036	6e-05	3e-05	2e-05	4
16321	2e-05	2e-05	4e-05	3e-05	-0.00036	6e-05	3e-05	2e-05	4
16322	2e-05	2e-05	4e-05	3e-05	-0.00036	6e-05	3e-05	2e-05	4
16323	2e-05	2e-05	4e-05	3e-05	-0.00036	6e-05	3e-05	2e-05	4
16324	2e-05	2e-05	4e-05	3e-05	-0.00036	6e-05	3e-05	2e-05	4
16325	2e-05	2e-05	4e-05	3e-05	-0.00036	6e-05	3e-05	2e-05	4
16326	2e-05	2e-05	4e-05	3e-05	-0.00036	6e-05	3e-05	2e-05	4
16327	2e-05	2e-05	4e-05	3e-05	-0.00036	6e-05	3e-05	2e-05	4
16328	2e-05	2e-05	4e-05	3e-05	-0.00036	6e-05	3e-05	2e-05	4
16329	2e-05	2e-05	4e-05	3e-05	-0.00036	6e-05	3e-05	2e-05	4
16330	2e-05	2e-05	4e-05	3e-05	-0.00036	6e-05	3e-05	2e-05	4
16331	2e-05	2e-05	4e-05	3e-05	-0.00036	6e-05	3e-05	2e-05	4
16332	2e-05	2e-05	4e-05	3e-05	-0.00036	6e-05	3e-05	2e-05	4
16333	2e-05	2e-05	4e-05	3e-05	-0.00036	6e-05	3e-05	2e-05	4
16334	2e-05	2e-05	4e-05	3e-05	-0.00036	6e-05	3e-05	2e-05	4
16336	2e-05	2e-05	4e-05	3e-05	-0.00036	6e-05	3e-05	2e-05	4
16337	2e-05	2e-05	4e-05	3e-05	-0.00036	6e-05	3e-05	2e-05	4
16338	2e-05	2e-05	4e-05	3e-05	-0.00036	6e-05	3e-05	2e-05	4
16339	2e-05	2e-05	4e-05	3e-05	-0.00036	6e-05	3e-05	2e-05	4
16340	2e-05	2e-05	4e-05	3e-05	-0.00036	6e-05	3e-05	2e-05	4
16341	1e-05	-1e-05	-2e-05	-0.00066	-0.0009	-0.00018	-3e-05	-3e-05	4
16342	0	-2e-05	-5e-05	0.00068	0.00099	0.00021	-4e-05	-1e-05	4
16343	-6e-05	1e-05	0	-0.00019	-0.00041	-3e-05	-1e-05	-1e-05	4
16344	-6e-05	1e-05	0	-0.00019	-0.00041	-3e-05	-1e-05	-1e-05	4
16345	-6e-05	1e-05	0	-0.00019	-0.00041	-3e-05	-1e-05	-1e-05	4
16346	-6e-05	1e-05	0	-0.00019	-0.00041	-3e-05	-1e-05	-1e-05	4
16347	-6e-05	1e-05	0	-0.00019	-0.00041	-3e-05	-1e-05	-1e-05	4
16348	-6e-05	1e-05	0	-0.00019	-0.00041	-3e-05	-1e-05	-1e-05	4
16349	-6e-05	1e-05	0	-0.00019	-0.00041	-3e-05	-1e-05	-1e-05	4
16350	-6e-05	1e-05	0	-0.00019	-0.00041	-3e-05	-1e-05	-1e-05	4
16351	-6e-05	1e-05	0	-0.00019	-0.00041	-3e-05	-1e-05	-1e-05	4
16352	-6e-05	1e-05	0	-0.00019	-0.00041	-3e-05	-1e-05	-1e-05	4
16353	-6e-05	1e-05	0	-0.00019	-0.00041	-3e-05	-1e-05	-1e-05	4
16354	-3e-05	-4e-05	-5e-05	-0.00036	-0.00053	-0.00018	-5e-05	-3e-05	4
16355	-3e-05	-5e-05	-0.00011	-0.00033	0.00025	-0.00014	2e-05	-2e-05	4
16356	-3e-05	-5e-05	-0.00011	-0.00033	0.00025	-0.00014	2e-05	-2e-05	4
16357	-3e-05	-5e-05	-0.00011	-0.00033	0.00025	-0.00014	2e-05	-2e-05	4
16358	-3e-05	-5e-05	-0.00011	-0.00033	0.00025	-0.00014	2e-05	-2e-05	4
16359	-3e-05	-5e-05	-0.00011	-0.00033	0.00025	-0.00014	2e-05	-2e-05	4
16360	-3e-05	-5e-05	-0.00011	-0.00033	0.00025	-0.00014	2e-05	-2e-05	4
16361	-3e-05	-5e-05	-0.00011	-0.00033	0.00025	-0.00014	2e-05	-2e-05	4
16362	-3e-05	-5e-05	-0.00011	-0.00033	0.00025	-0.00014	2e-05	-2e-05	4
16363	-3e-05	-5e-05	-0.00011	-0.00033	0.00025	-0.00014	2e-05	-2e-05	4
16364	1e-05	3e-05	0.0001	0.00053	0.00013	-0.00072	-3e-05	-1e-05	4
16365	1e-05	3e-05	0.0001	0.00053	0.00013	-0.00072	-3e-05	-1e-05	4
16366	1e-05	3e-05	0.0001	0.00053	0.00013	-0.00072	-3e-05	-1e-05	4
16367	1e-05	3e-05	0.0001	0.00053	0.00013	-0.00072	-3e-05	-1e-05	4
16368	1e-05	3e-05	0.0001	0.00053	0.00013	-0.00072	-3e-05	-1e-05	4
16369	1e-05	3e-05	0.0001	0.00053	0.00013	-0.00072	-3e-05	-1e-05	4
16370	1e-05	3e-05	0.0001	0.00053	0.00013	-0.00072	-3e-05	-1e-05	4
16371	1e-05	3e-05	0.0001	0.00053	0.00013	-0.00072	-3e-05	-1e-05	4
16372	1e-05	3e-05	0.0001	0.00053	0.00013	-0.00072	-3e-05	-1e-05	4
16373	1e-05	3e-05	0.0001	0.00053	0.00013	-0.00072	-3e-05	-1e-05	4
16374	1e-05	3e-05	0.0001	0.00053	0.00013	-0.00072	-3e-05	-1e-05	4
16375	1e-05	3e-05	0.0001	0.00053	0.00013	-0.00072	-3e-05	-1e-05	4
16376	1e-05	3e-05	0.0001	0.00053	0.00013	-0.00072	-3e-05	-1e-05	4
16377	1e-05	3e-05	0.0001	0.00053	0.00013	-0.00072	-3e-05	-1e-05	4
16378	7e-05	0.0001	0.0002	0.00027	0.001	0.00043	0.0001	6e-05	4
16379	7e-05	0.0001	0.0002	0.00027	0.001	0.00043	0.0001	6e-05	4
16380	-1e-05	-5e-05	-0.00012	-0.00012	0	0.00011	1e-05	-2e-05	4
16381	-1e-05	-5e-05	-0.00012	-0.00012	0	0.00011	1e-05	-2e-05	4
16382	-1e-05	-5e-05	-0.00012	-0.00012	0	0.00011	1e-05	-2e-05	4
16383	-1e-05	-5e-05	-0.00012	-0.00012	0	0.00011	1e-05	-2e-05	4
16384	-1e-05	-5e-05	-0.00012	-0.00012	0	0.00011	1e-05	-2e-05	4
16385	-1e-05	-5e-05	-0.00012	-0.00012	0	0.00011	1e-05	-2e-05	4
16386	-1e-05	-5e-05	-0.00012	-0.00012	0	0.00011	1e-05	-2e-05	4
16388	-1e-05	-5e-05	-0.00012	-0.00012	0	0.00011	1e-05	-2e-05	4
16389	-1e-05	-5e-05	-0.00012	-0.00012	0	0.00011	1e-05	-2e-05	4
16390	-1e-05	-5e-05	-0.00012	-0.00012	0	0.00011	1e-05	-2e-05	4
16391	-1e-05	-5e-05	-0.00012	-0.00012	0	0.00011	1e-05	-2e-05	4
16392	-1e-05	-5e-05	-0.00012	-0.00012	0	0.00011	1e-05	-2e-05	4
16393	-1e-05	-5e-05	-0.00012	-0.00012	0	0.00011	1e-05	-2e-05	4
16394	-1e-05	-5e-05	-0.00012	-0.00012	0	0.00011	1e-05	-2e-05	4
16395	-1e-05	-5e-05	-0.00012	-0.00012	0	0.00011	1e-05	-2e-05	4
16396	-1e-05	-5e-05	-0.00012	-0.00012	0	0.00011	1e-05	-2e-05	4
16397	-1e-05	-5e-05	-0.00012	-0.00012	0	0.00011	1e-05	-2e-05	4
16398	-1e-05	-5e-05	-0.00012	-0.00012	0	0.00011	1e-05	-2e-05	4
16399	-1e-05	-5e-05	-0.00012	-0.00012	0	0.00011	1e-05	-2e-05	4
16400	-1e-05	-5e-05	-0.00012	-0.00012	0	0.00011	1e-05	-2e-05	4
16401	-7e-05	-0.00011	-0.0003	-0.0001	-7e-05	-0.00023	-0.00012	-7e-05	4
16402	-1e-05	-1e-05	-4e-05	-0.00038	-1e-05	0.00035	0	-2e-05	4
16403	-1e-05	-1e-05	-4e-05	-0.00038	-1e-05	0.00035	0	-2e-05	4
16404	-1e-05	-1e-05	-4e-05	-0.00038	-1e-05	0.00035	0	-2e-05	4
16405	-1e-05	-1e-05	-4e-05	-0.00038	-1e-05	0.00035	0	-2e-05	4
16406	-1e-05	-1e-05	-4e-05	-0.00038	-1e-05	0.00035	0	-2e-05	4
16407	-1e-05	-1e-05	-4e-05	-0.00038	-1e-05	0.00035	0	-2e-05	4
16408	-1e-05	-1e-05	-4e-05	-0.00038	-1e-05	0.00035	0	-2e-05	4
16409	-1e-05	-1e-05	-4e-05	-0.00038	-1e-05	0.00035	0	-2e-05	4
16410	-1e-05	-1e-05	-4e-05	-0.00038	-1e-05	0.00035	0	-2e-05	4
16411	-1e-05	-1e-05	-4e-05	-0.00038	-1e-05	0.00035	0	-2e-05	4
16412	-1e-05	-1e-05	-4e-05	-0.00038	-1e-05	0.00035	0	-2e-05	4
16413	-1e-05	-1e-05	-4e-05	-0.00038	-1e-05	0.00035	0	-2e-05	4
16414	4e-05	4e-05	0.00011	0.00014	0.00063	3e-05	4e-05	3e-05	4
16415	5e-05	6e-05	-1e-05	-0.00017	-6e-05	0.00015	8e-05	6e-05	4
16416	5e-05	6e-05	-1e-05	-0.00017	-6e-05	0.00015	8e-05	6e-05	4
16417	5e-05	6e-05	-1e-05	-0.00017	-6e-05	0.00015	8e-05	6e-05	4
16418	5e-05	6e-05	-1e-05	-0.00017	-6e-05	0.00015	8e-05	6e-05	4
16419	5e-05	6e-05	-1e-05	-0.00017	-6e-05	0.00015	8e-05	6e-05	4
16420	5e-05	6e-05	-1e-05	-0.00017	-6e-05	0.00015	8e-05	6e-05	4
16421	5e-05	6e-05	-1e-05	-0.00017	-6e-05	0.00015	8e-05	6e-05	4
16422	5e-05	6e-05	-1e-05	-0.00017	-6e-05	0.00015	8e-05	6e-05	4
16423	1e-05	3e-05	8e-05	0.00041	0.00059	0.00021	2e-05	1e-05	4
16424	1e-05	3e-05	8e-05	0.00041	0.00059	0.00021	2e-05	1e-05	4
16425	1e-05	3e-05	8e-05	0.00041	0.00059	0.00021	2e-05	1e-05	4
16426	1e-05	3e-05	8e-05	0.00041	0.00059	0.00021	2e-05	1e-05	4
16427	1e-05	3e-05	8e-05	0.00041	0.00059	0.00021	2e-05	1e-05	4
16428	1e-05	3e-05	8e-05	0.00041	0.00059	0.00021	2e-05	1e-05	4
16429	1e-05	3e-05	8e-05	0.00041	0.00059	0.00021	2e-05	1e-05	4
16430	1e-05	3e-05	8e-05	0.00041	0.00059	0.00021	2e-05	1e-05	4
16431	1e-05	3e-05	8e-05	0.00041	0.00059	0.00021	2e-05	1e-05	4
16432	1e-05	3e-05	8e-05	0.00041	0.00059	0.00021	2e-05	1e-05	4
16433	1e-05	3e-05	8e-05	0.00041	0.00059	0.00021	2e-05	1e-05	4
16434	1e-05	3e-05	8e-05	0.00041	0.00059	0.00021	2e-05	1e-05	4
16435	1e-05	3e-05	8e-05	0.00041	0.00059	0.00021	2e-05	1e-05	4
16436	1e-05	3e-05	8e-05	0.00041	0.00059	0.00021	2e-05	1e-05	4
16438	-3e-05	0	3e-05	0.00038	0.00042	-2e-05	1e-05	0	4
16439	-3e-05	0	3e-05	0.00038	0.00042	-2e-05	1e-05	0	4
16440	3e-05	2e-05	4e-05	-0.00029	-0.00016	0.00013	2e-05	2e-05	4
16441	3e-05	2e-05	4e-05	-0.00029	-0.00016	0.00013	2e-05	2e-05	4
16442	3e-05	2e-05	4e-05	-0.00029	-0.00016	0.00013	2e-05	2e-05	4
16443	3e-05	2e-05	4e-05	-0.00029	-0.00016	0.00013	2e-05	2e-05	4
16444	3e-05	2e-05	4e-05	-0.00029	-0.00016	0.00013	2e-05	2e-05	4
16445	3e-05	2e-05	4e-05	-0.00029	-0.00016	0.00013	2e-05	2e-05	4
16446	3e-05	2e-05	4e-05	-0.00029	-0.00016	0.00013	2e-05	2e-05	4
16447	3e-05	2e-05	4e-05	-0.00029	-0.00016	0.00013	2e-05	2e-05	4
16448	3e-05	2e-05	4e-05	-0.00029	-0.00016	0.00013	2e-05	2e-05	4
16449	3e-05	2e-05	4e-05	-0.00029	-0.00016	0.00013	2e-05	2e-05	4
16450	3e-05	2e-05	4e-05	-0.00029	-0.00016	0.00013	2e-05	2e-05	4
16451	3e-05	2e-05	4e-05	-0.00029	-0.00016	0.00013	2e-05	2e-05	4
16452	3e-05	2e-05	4e-05	-0.00029	-0.00016	0.00013	2e-05	2e-05	4
16453	3e-05	2e-05	4e-05	-0.00029	-0.00016	0.00013	2e-05	2e-05	4
16454	3e-05	2e-05	4e-05	-0.00029	-0.00016	0.00013	2e-05	2e-05	4
16455	3e-05	2e-05	4e-05	-0.00029	-0.00016	0.00013	2e-05	2e-05	4
16456	3e-05	2e-05	4e-05	-0.00029	-0.00016	0.00013	2e-05	2e-05	4
16457	3e-05	2e-05	4e-05	-0.00029	-0.00016	0.00013	2e-05	2e-05	4
16458	3e-05	2e-05	4e-05	-0.00029	-0.00016	0.00013	2e-05	2e-05	4
16459	3e-05	2e-05	4e-05	-0.00029	-0.00016	0.00013	2e-05	2e-05	4
16460	3e-05	2e-05	4e-05	-0.00029	-0.00016	0.00013	2e-05	2e-05	4
16461	-6e-05	-0.00011	-0.00022	-0.00023	-0.00027	-0.00026	-0.00018	-8e-05	4
16462	-6e-05	-0.00011	-0.00022	-0.00023	-0.00027	-0.00026	-0.00018	-8e-05	4
16463	3e-05	5e-05	6e-05	0.00022	0.00024	0.00058	3e-05	3e-05	4
16464	3e-05	5e-05	6e-05	0.00022	0.00024	0.00058	3e-05	3e-05	4
16465	3e-05	5e-05	6e-05	0.00022	0.00024	0.00058	3e-05	3e-05	4
16466	3e-05	5e-05	6e-05	0.00022	0.00024	0.00058	3e-05	3e-05	4
16467	3e-05	5e-05	6e-05	0.00022	0.00024	0.00058	3e-05	3e-05	4
16468	3e-05	5e-05	6e-05	0.00022	0.00024	0.00058	3e-05	3e-05	4
16469	3e-05	5e-05	6e-05	0.00022	0.00024	0.00058	3e-05	3e-05	4
16470	3e-05	5e-05	6e-05	0.00022	0.00024	0.00058	3e-05	3e-05	4
16471	3e-05	5e-05	6e-05	0.00022	0.00024	0.00058	3e-05	3e-05	4
16472	3e-05	5e-05	6e-05	0.00022	0.00024	0.00058	3e-05	3e-05	4
16473	3e-05	5e-05	6e-05	0.00022	0.00024	0.00058	3e-05	3e-05	4
16474	4e-05	7e-05	0.00012	4e-05	0.00026	0.00046	6e-05	4e-05	4
16475	4e-05	7e-05	0.00012	4e-05	0.00026	0.00046	6e-05	4e-05	4
16476	4e-05	7e-05	0.00012	4e-05	0.00026	0.00046	6e-05	4e-05	4
16477	4e-05	7e-05	0.00012	4e-05	0.00026	0.00046	6e-05	4e-05	4
16478	4e-05	7e-05	0.00012	4e-05	0.00026	0.00046	6e-05	4e-05	4
16479	4e-05	7e-05	0.00012	4e-05	0.00026	0.00046	6e-05	4e-05	4
16480	4e-05	7e-05	0.00012	4e-05	0.00026	0.00046	6e-05	4e-05	4
16481	4e-05	7e-05	0.00012	4e-05	0.00026	0.00046	6e-05	4e-05	4
16482	4e-05	7e-05	0.00012	4e-05	0.00026	0.00046	6e-05	4e-05	4
16483	-9e-05	-0.00018	-0.00039	-0.00036	-0.00031	-0.00041	-0.00017	-0.00012	4
16484	4e-05	0.00013	0.00022	0.00054	-0.00012	0.0001	7e-05	5e-05	4
16485	4e-05	0.00013	0.00022	0.00054	-0.00012	0.0001	7e-05	5e-05	4
16486	4e-05	0.00013	0.00022	0.00054	-0.00012	0.0001	7e-05	5e-05	4
16488	4e-05	0.00013	0.00022	0.00054	-0.00012	0.0001	7e-05	5e-05	4
16489	4e-05	0.00013	0.00022	0.00054	-0.00012	0.0001	7e-05	5e-05	4
16490	4e-05	0.00013	0.00022	0.00054	-0.00012	0.0001	7e-05	5e-05	4
16491	4e-05	0.00013	0.00022	0.00054	-0.00012	0.0001	7e-05	5e-05	4
16492	4e-05	0.00013	0.00022	0.00054	-0.00012	0.0001	7e-05	5e-05	4
16493	4e-05	0.00013	0.00022	0.00054	-0.00012	0.0001	7e-05	5e-05	4
16494	4e-05	0.00013	0.00022	0.00054	-0.00012	0.0001	7e-05	5e-05	4
16495	4e-05	0.00013	0.00022	0.00054	-0.00012	0.0001	7e-05	5e-05	4
16496	4e-05	0.00013	0.00022	0.00054	-0.00012	0.0001	7e-05	5e-05	4
16497	4e-05	0.00013	0.00022	0.00054	-0.00012	0.0001	7e-05	5e-05	4
16498	-3e-05	-5e-05	-0.00012	0.00012	-0.00055	-7e-05	-6e-05	-3e-05	4
16499	-5e-05	-3e-05	-2e-05	-8e-05	-0.00037	-0.00016	-5e-05	-3e-05	4
16500	5e-05	9e-05	0.00027	0.00112	0.00096	0.00036	0.00014	8e-05	4
16501	5e-05	9e-05	0.00027	0.00112	0.00096	0.00036	0.00014	8e-05	4
16502	5e-05	9e-05	0.00027	0.00112	0.00096	0.00036	0.00014	8e-05	4
16503	5e-05	9e-05	0.00027	0.00112	0.00096	0.00036	0.00014	8e-05	4
16504	5e-05	9e-05	0.00027	0.00112	0.00096	0.00036	0.00014	8e-05	4
16505	5e-05	9e-05	0.00027	0.00112	0.00096	0.00036	0.00014	8e-05	4
16506	5e-05	9e-05	0.00027	0.00112	0.00096	0.00036	0.00014	8e-05	4
16507	5e-05	9e-05	0.00027	0.00112	0.00096	0.00036	0.00014	8e-05	4
16508	5e-05	9e-05	0.00027	0.00112	0.00096	0.00036	0.00014	8e-05	4
16509	5e-05	9e-05	0.00027	0.00112	0.00096	0.00036	0.00014	8e-05	4
16510	5e-05	9e-05	0.00027	0.00112	0.00096	0.00036	0.00014	8e-05	4
16511	5e-05	9e-05	0.00027	0.00112	0.00096	0.00036	0.00014	8e-05	4
16512	5e-05	9e-05	0.00027	0.00112	0.00096	0.00036	0.00014	8e-05	4
16513	5e-05	9e-05	0.00027	0.00112	0.00096	0.00036	0.00014	8e-05	4
16514	5e-05	9e-05	0.00027	0.00112	0.00096	0.00036	0.00014	8e-05	4
16515	5e-05	9e-05	0.00027	0.00112	0.00096	0.00036	0.00014	8e-05	4
16516	5e-05	9e-05	0.00027	0.00112	0.00096	0.00036	0.00014	8e-05	4
16517	5e-05	9e-05	0.00027	0.00112	0.00096	0.00036	0.00014	8e-05	4
16518	5e-05	9e-05	0.00027	0.00112	0.00096	0.00036	0.00014	8e-05	4
16519	5e-05	9e-05	0.00027	0.00112	0.00096	0.00036	0.00014	8e-05	4
16520	5e-05	9e-05	0.00027	0.00112	0.00096	0.00036	0.00014	8e-05	4
16521	4e-05	8e-05	0.00024	0.00041	-0.00017	0.00011	0.0001	6e-05	4
16522	4e-05	4e-05	-2e-05	-0.00015	0.0005	-0.00016	1e-05	1e-05	4
16523	-5e-05	-8e-05	-5e-05	0.00092	0.00071	0	-5e-05	-5e-05	4
16524	-5e-05	-8e-05	-5e-05	0.00092	0.00071	0	-5e-05	-5e-05	4
16525	-5e-05	-8e-05	-5e-05	0.00092	0.00071	0	-5e-05	-5e-05	4
16526	-5e-05	-8e-05	-5e-05	0.00092	0.00071	0	-5e-05	-5e-05	4
16527	-5e-05	-8e-05	-5e-05	0.00092	0.00071	0	-5e-05	-5e-05	4
16528	-5e-05	-8e-05	-5e-05	0.00092	0.00071	0	-5e-05	-5e-05	4
16529	-5e-05	-8e-05	-5e-05	0.00092	0.00071	0	-5e-05	-5e-05	4
16530	-5e-05	-8e-05	-5e-05	0.00092	0.00071	0	-5e-05	-5e-05	4
16531	-5e-05	-8e-05	-5e-05	0.00092	0.00071	0	-5e-05	-5e-05	4
16532	-5e-05	-8e-05	-5e-05	0.00092	0.00071	0	-5e-05	-5e-05	4
16533	-5e-05	-8e-05	-5e-05	0.00092	0.00071	0	-5e-05	-5e-05	4
16534	8e-05	0.00012	0.00014	-0.00062	-0.00039	0.00034	0.00016	9e-05	4
16535	-3e-05	-6e-05	-2e-05	0.00089	0.00048	-0.00014	-6e-05	-2e-05	4
16536	-3e-05	-6e-05	-2e-05	0.00089	0.00048	-0.00014	-6e-05	-2e-05	4
16538	-3e-05	-6e-05	-2e-05	0.00089	0.00048	-0.00014	-6e-05	-2e-05	4
16539	-3e-05	-6e-05	-2e-05	0.00089	0.00048	-0.00014	-6e-05	-2e-05	4
16540	-3e-05	-6e-05	-2e-05	0.00089	0.00048	-0.00014	-6e-05	-2e-05	4
16541	-3e-05	-6e-05	-2e-05	0.00089	0.00048	-0.00014	-6e-05	-2e-05	4
16542	-3e-05	-6e-05	-2e-05	0.00089	0.00048	-0.00014	-6e-05	-2e-05	4
16543	-4e-05	-4e-05	-8e-05	-0.00032	-0.00049	-4e-05	-1e-05	-1e-05	4
16544	-3e-05	-6e-05	-0.00014	-0.00098	-0.00128	-0.00015	-9e-05	-4e-05	4
16545	-3e-05	-6e-05	-0.00014	-0.00098	-0.00128	-0.00015	-9e-05	-4e-05	4
16546	-3e-05	-6e-05	-0.00014	-0.00098	-0.00128	-0.00015	-9e-05	-4e-05	4
16547	-3e-05	-6e-05	-0.00014	-0.00098	-0.00128	-0.00015	-9e-05	-4e-05	4
16548	-3e-05	-6e-05	-0.00014	-0.00098	-0.00128	-0.00015	-9e-05	-4e-05	4
16549	-3e-05	-6e-05	-0.00014	-0.00098	-0.00128	-0.00015	-9e-05	-4e-05	4
16550	-3e-05	-6e-05	-0.00014	-0.00098	-0.00128	-0.00015	-9e-05	-4e-05	4
16551	-3e-05	-6e-05	-0.00014	-0.00098	-0.00128	-0.00015	-9e-05	-4e-05	4
16552	-3e-05	-6e-05	-0.00014	-0.00098	-0.00128	-0.00015	-9e-05	-4e-05	4
16553	-3e-05	-6e-05	-0.00014	-0.00098	-0.00128	-0.00015	-9e-05	-4e-05	4
16554	-3e-05	-6e-05	-0.00014	-0.00098	-0.00128	-0.00015	-9e-05	-4e-05	4
16555	-3e-05	-6e-05	-0.00014	-0.00098	-0.00128	-0.00015	-9e-05	-4e-05	4
16556	-3e-05	-6e-05	-0.00014	-0.00098	-0.00128	-0.00015	-9e-05	-4e-05	4
16557	-3e-05	-6e-05	-0.00014	-0.00098	-0.00128	-0.00015	-9e-05	-4e-05	4
16558	-1e-05	-2e-05	-4e-05	0.00024	0.00033	-9e-05	-6e-05	-4e-05	4
16559	-6e-05	-4e-05	-0.00011	-0.00109	-0.00089	-0.00042	-4e-05	-5e-05	4
16560	-7e-05	-9e-05	-0.00019	-0.00026	0.00044	-0.0001	-5e-05	-4e-05	4
16561	-7e-05	-9e-05	-0.00019	-0.00026	0.00044	-0.0001	-5e-05	-4e-05	4
16562	-7e-05	-9e-05	-0.00019	-0.00026	0.00044	-0.0001	-5e-05	-4e-05	4
16563	-7e-05	-9e-05	-0.00019	-0.00026	0.00044	-0.0001	-5e-05	-4e-05	4
16564	-7e-05	-9e-05	-0.00019	-0.00026	0.00044	-0.0001	-5e-05	-4e-05	4
16565	-7e-05	-9e-05	-0.00019	-0.00026	0.00044	-0.0001	-5e-05	-4e-05	4
16566	-7e-05	-9e-05	-0.00019	-0.00026	0.00044	-0.0001	-5e-05	-4e-05	4
16567	-7e-05	-9e-05	-0.00019	-0.00026	0.00044	-0.0001	-5e-05	-4e-05	4
16568	-7e-05	-9e-05	-0.00019	-0.00026	0.00044	-0.0001	-5e-05	-4e-05	4
16569	-7e-05	-9e-05	-0.00019	-0.00026	0.00044	-0.0001	-5e-05	-4e-05	4
16570	-7e-05	-9e-05	-0.00019	-0.00026	0.00044	-0.0001	-5e-05	-4e-05	4
16571	-7e-05	-9e-05	-0.00019	-0.00026	0.00044	-0.0001	-5e-05	-4e-05	4
16572	-7e-05	-9e-05	-0.00019	-0.00026	0.00044	-0.0001	-5e-05	-4e-05	4
16573	-7e-05	-9e-05	-0.00019	-0.00026	0.00044	-0.0001	-5e-05	-4e-05	4
16574	-7e-05	-9e-05	-0.00019	-0.00026	0.00044	-0.0001	-5e-05	-4e-05	4
16575	-7e-05	-9e-05	-0.00019	-0.00026	0.00044	-0.0001	-5e-05	-4e-05	4
16576	-7e-05	-9e-05	-0.00019	-0.00026	0.00044	-0.0001	-5e-05	-4e-05	4
16577	-7e-05	-9e-05	-0.00019	-0.00026	0.00044	-0.0001	-5e-05	-4e-05	4
16578	-7e-05	-9e-05	-0.00019	-0.00026	0.00044	-0.0001	-5e-05	-4e-05	4
16579	-7e-05	-9e-05	-0.00019	-0.00026	0.00044	-0.0001	-5e-05	-4e-05	4
16580	-7e-05	-9e-05	-0.00019	-0.00026	0.00044	-0.0001	-5e-05	-4e-05	4
16581	1e-05	0	-3e-05	-0.00073	-0.00106	0.00019	-1e-05	1e-05	4
16582	1e-05	3e-05	3e-05	0.0002	0.00028	-0.00031	-7e-05	-1e-05	4
16583	-5e-05	-0.0001	-0.0001	-1e-05	8e-05	-0.0003	-0.00015	-8e-05	4
16584	-5e-05	-0.0001	-0.0001	-1e-05	8e-05	-0.0003	-0.00015	-8e-05	4
16585	-5e-05	-0.0001	-0.0001	-1e-05	8e-05	-0.0003	-0.00015	-8e-05	4
16586	-5e-05	-0.0001	-0.0001	-1e-05	8e-05	-0.0003	-0.00015	-8e-05	4
16588	-5e-05	-0.0001	-0.0001	-1e-05	8e-05	-0.0003	-0.00015	-8e-05	4
16589	-5e-05	-0.0001	-0.0001	-1e-05	8e-05	-0.0003	-0.00015	-8e-05	4
16590	-5e-05	-0.0001	-0.0001	-1e-05	8e-05	-0.0003	-0.00015	-8e-05	4
16591	-5e-05	-0.0001	-0.0001	-1e-05	8e-05	-0.0003	-0.00015	-8e-05	4
16592	-5e-05	-0.0001	-0.0001	-1e-05	8e-05	-0.0003	-0.00015	-8e-05	4
16593	-5e-05	-0.0001	-0.0001	-1e-05	8e-05	-0.0003	-0.00015	-8e-05	4
16594	-3e-05	-4e-05	-7e-05	0.00019	0.0012	0	-4e-05	-1e-05	4
16595	7e-05	5e-05	0.0001	0.00013	-0.00014	0.00015	0.00013	4e-05	4
16596	7e-05	5e-05	0.0001	0.00013	-0.00014	0.00015	0.00013	4e-05	4
16597	7e-05	5e-05	0.0001	0.00013	-0.00014	0.00015	0.00013	4e-05	4
16598	7e-05	5e-05	0.0001	0.00013	-0.00014	0.00015	0.00013	4e-05	4
16599	7e-05	5e-05	0.0001	0.00013	-0.00014	0.00015	0.00013	4e-05	4
16600	7e-05	5e-05	0.0001	0.00013	-0.00014	0.00015	0.00013	4e-05	4
16601	7e-05	5e-05	0.0001	0.00013	-0.00014	0.00015	0.00013	4e-05	4
16602	7e-05	5e-05	0.0001	0.00013	-0.00014	0.00015	0.00013	4e-05	4
16603	-3e-05	-5e-05	-0.00012	-0.00096	-0.00077	0.0001	-2e-05	-3e-05	4
16604	-2e-05	0	-5e-05	0.00016	-0.00029	0.00043	2e-05	-1e-05	4
16605	-2e-05	0	-5e-05	0.00016	-0.00029	0.00043	2e-05	-1e-05	4
16606	-2e-05	0	-5e-05	0.00016	-0.00029	0.00043	2e-05	-1e-05	4
16607	-2e-05	0	-5e-05	0.00016	-0.00029	0.00043	2e-05	-1e-05	4
16608	-2e-05	0	-5e-05	0.00016	-0.00029	0.00043	2e-05	-1e-05	4
16609	-2e-05	0	-5e-05	0.00016	-0.00029	0.00043	2e-05	-1e-05	4
16610	-2e-05	0	-5e-05	0.00016	-0.00029	0.00043	2e-05	-1e-05	4
16611	-2e-05	0	-5e-05	0.00016	-0.00029	0.00043	2e-05	-1e-05	4
16612	-2e-05	0	-5e-05	0.00016	-0.00029	0.00043	2e-05	-1e-05	4
16613	-2e-05	0	-5e-05	0.00016	-0.00029	0.00043	2e-05	-1e-05	4
16614	-2e-05	0	-5e-05	0.00016	-0.00029	0.00043	2e-05	-1e-05	4
16615	-2e-05	0	-5e-05	0.00016	-0.00029	0.00043	2e-05	-1e-05	4
16616	-2e-05	0	-5e-05	0.00016	-0.00029	0.00043	2e-05	-1e-05	4
16617	-2e-05	0	-5e-05	0.00016	-0.00029	0.00043	2e-05	-1e-05	4
16618	2e-05	7e-05	0.00019	0.00052	-0.00044	9e-05	7e-05	4e-05	4
16619	2e-05	7e-05	0.00019	0.00052	-0.00044	9e-05	7e-05	4e-05	4
16620	3e-05	1e-05	-6e-05	-0.00045	-0.00041	-0.00013	3e-05	5e-05	4
16621	3e-05	1e-05	-6e-05	-0.00045	-0.00041	-0.00013	3e-05	5e-05	4
16622	3e-05	1e-05	-6e-05	-0.00045	-0.00041	-0.00013	3e-05	5e-05	4
16623	3e-05	1e-05	-6e-05	-0.00045	-0.00041	-0.00013	3e-05	5e-05	4
16624	3e-05	1e-05	-6e-05	-0.00045	-0.00041	-0.00013	3e-05	5e-05	4
16625	3e-05	1e-05	-6e-05	-0.00045	-0.00041	-0.00013	3e-05	5e-05	4
16626	3e-05	1e-05	-6e-05	-0.00045	-0.00041	-0.00013	3e-05	5e-05	4
16627	3e-05	1e-05	-6e-05	-0.00045	-0.00041	-0.00013	3e-05	5e-05	4
16628	3e-05	1e-05	-6e-05	-0.00045	-0.00041	-0.00013	3e-05	5e-05	4
16629	3e-05	1e-05	-6e-05	-0.00045	-0.00041	-0.00013	3e-05	5e-05	4
16630	3e-05	1e-05	-6e-05	-0.00045	-0.00041	-0.00013	3e-05	5e-05	4
16631	3e-05	1e-05	-6e-05	-0.00045	-0.00041	-0.00013	3e-05	5e-05	4
16632	3e-05	1e-05	-6e-05	-0.00045	-0.00041	-0.00013	3e-05	5e-05	4
16633	3e-05	1e-05	-6e-05	-0.00045	-0.00041	-0.00013	3e-05	5e-05	4
16634	3e-05	1e-05	-6e-05	-0.00045	-0.00041	-0.00013	3e-05	5e-05	4
16635	3e-05	1e-05	-6e-05	-0.00045	-0.00041	-0.00013	3e-05	5e-05	4
16636	3e-05	1e-05	-6e-05	-0.00045	-0.00041	-0.00013	3e-05	5e-05	4
16638	3e-05	1e-05	-6e-05	-0.00045	-0.00041	-0.00013	3e-05	5e-05	4
16639	3e-05	1e-05	-6e-05	-0.00045	-0.00041	-0.00013	3e-05	5e-05	4
16640	3e-05	1e-05	-6e-05	-0.00045	-0.00041	-0.00013	3e-05	5e-05	4
16641	1e-05	-1e-05	-0.00013	-0.00068	-9e-05	0.0003	8e-05	3e-05	4
16642	-6e-05	-0.00013	-9e-05	-2e-05	-0.0006	-0.00026	-0.0001	-8e-05	4
16643	-6e-05	-0.00013	-9e-05	-2e-05	-0.0006	-0.00026	-0.0001	-8e-05	4
16644	-6e-05	-0.00013	-9e-05	-2e-05	-0.0006	-0.00026	-0.0001	-8e-05	4
16645	-6e-05	-0.00013	-9e-05	-2e-05	-0.0006	-0.00026	-0.0001	-8e-05	4
16646	-6e-05	-0.00013	-9e-05	-2e-05	-0.0006	-0.00026	-0.0001	-8e-05	4
16647	-6e-05	-0.00013	-9e-05	-2e-05	-0.0006	-0.00026	-0.0001	-8e-05	4
16648	-6e-05	-0.00013	-9e-05	-2e-05	-0.0006	-0.00026	-0.0001	-8e-05	4
16649	-6e-05	-0.00013	-9e-05	-2e-05	-0.0006	-0.00026	-0.0001	-8e-05	4
16650	-6e-05	-0.00013	-9e-05	-2e-05	-0.0006	-0.00026	-0.0001	-8e-05	4
16651	-6e-05	-0.00013	-9e-05	-2e-05	-0.0006	-0.00026	-0.0001	-8e-05	4
16652	-6e-05	-0.00013	-9e-05	-2e-05	-0.0006	-0.00026	-0.0001	-8e-05	4
16653	-6e-05	-0.00013	-9e-05	-2e-05	-0.0006	-0.00026	-0.0001	-8e-05	4
16654	3e-05	9e-05	8e-05	-0.00064	0.0001	0.0002	5e-05	3e-05	4
16655	2e-05	1e-05	0.00011	0.00039	0.00017	0.00047	-3e-05	0	4
16656	2e-05	1e-05	0.00011	0.00039	0.00017	0.00047	-3e-05	0	4
16657	2e-05	1e-05	0.00011	0.00039	0.00017	0.00047	-3e-05	0	4
16658	2e-05	1e-05	0.00011	0.00039	0.00017	0.00047	-3e-05	0	4
16659	2e-05	1e-05	0.00011	0.00039	0.00017	0.00047	-3e-05	0	4
16660	2e-05	1e-05	0.00011	0.00039	0.00017	0.00047	-3e-05	0	4
16661	2e-05	1e-05	0.00011	0.00039	0.00017	0.00047	-3e-05	0	4
16662	2e-05	1e-05	0.00011	0.00039	0.00017	0.00047	-3e-05	0	4
16663	-3e-05	-6e-05	-0.0001	5e-05	0.0009	-0.00014	-8e-05	-6e-05	4
16664	-3e-05	-6e-05	-0.0001	5e-05	0.0009	-0.00014	-8e-05	-6e-05	4
16665	-3e-05	-6e-05	-0.0001	5e-05	0.0009	-0.00014	-8e-05	-6e-05	4
16666	-3e-05	-6e-05	-0.0001	5e-05	0.0009	-0.00014	-8e-05	-6e-05	4
16667	-3e-05	-6e-05	-0.0001	5e-05	0.0009	-0.00014	-8e-05	-6e-05	4
16668	-3e-05	-6e-05	-0.0001	5e-05	0.0009	-0.00014	-8e-05	-6e-05	4
16669	-3e-05	-6e-05	-0.0001	5e-05	0.0009	-0.00014	-8e-05	-6e-05	4
16670	-3e-05	-6e-05	-0.0001	5e-05	0.0009	-0.00014	-8e-05	-6e-05	4
16671	-3e-05	-6e-05	-0.0001	5e-05	0.0009	-0.00014	-8e-05	-6e-05	4
16672	-3e-05	-6e-05	-0.0001	5e-05	0.0009	-0.00014	-8e-05	-6e-05	4
16673	-3e-05	-6e-05	-0.0001	5e-05	0.0009	-0.00014	-8e-05	-6e-05	4
16674	-3e-05	-6e-05	-0.0001	5e-05	0.0009	-0.00014	-8e-05	-6e-05	4
16675	-3e-05	-6e-05	-0.0001	5e-05	0.0009	-0.00014	-8e-05	-6e-05	4
16676	-3e-05	-6e-05	-0.0001	5e-05	0.0009	-0.00014	-8e-05	-6e-05	4
16677	-3e-05	-6e-05	-0.0001	5e-05	0.0009	-0.00014	-8e-05	-6e-05	4
16678	-2e-05	4e-05	0.0001	-1e-05	-0.00026	-0.00013	0	2e-05	4
16679	-2e-05	4e-05	0.0001	-1e-05	-0.00026	-0.00013	0	2e-05	4
16680	4e-05	3e-05	3e-05	-0.00014	-0.00026	-5e-05	-2e-05	1e-05	4
16681	4e-05	3e-05	3e-05	-0.00014	-0.00026	-5e-05	-2e-05	1e-05	4
16682	4e-05	3e-05	3e-05	-0.00014	-0.00026	-5e-05	-2e-05	1e-05	4
16683	4e-05	3e-05	3e-05	-0.00014	-0.00026	-5e-05	-2e-05	1e-05	4
16684	4e-05	3e-05	3e-05	-0.00014	-0.00026	-5e-05	-2e-05	1e-05	4
16685	4e-05	3e-05	3e-05	-0.00014	-0.00026	-5e-05	-2e-05	1e-05	4
16686	4e-05	3e-05	3e-05	-0.00014	-0.00026	-5e-05	-2e-05	1e-05	4
16688	4e-05	3e-05	3e-05	-0.00014	-0.00026	-5e-05	-2e-05	1e-05	4
16689	4e-05	3e-05	3e-05	-0.00014	-0.00026	-5e-05	-2e-05	1e-05	4
16690	4e-05	3e-05	3e-05	-0.00014	-0.00026	-5e-05	-2e-05	1e-05	4
16691	4e-05	3e-05	3e-05	-0.00014	-0.00026	-5e-05	-2e-05	1e-05	4
16692	4e-05	3e-05	3e-05	-0.00014	-0.00026	-5e-05	-2e-05	1e-05	4
16693	4e-05	3e-05	3e-05	-0.00014	-0.00026	-5e-05	-2e-05	1e-05	4
16694	4e-05	3e-05	3e-05	-0.00014	-0.00026	-5e-05	-2e-05	1e-05	4
16695	4e-05	3e-05	3e-05	-0.00014	-0.00026	-5e-05	-2e-05	1e-05	4
16696	4e-05	3e-05	3e-05	-0.00014	-0.00026	-5e-05	-2e-05	1e-05	4
16697	4e-05	3e-05	3e-05	-0.00014	-0.00026	-5e-05	-2e-05	1e-05	4
16698	4e-05	3e-05	3e-05	-0.00014	-0.00026	-5e-05	-2e-05	1e-05	4
16699	4e-05	3e-05	3e-05	-0.00014	-0.00026	-5e-05	-2e-05	1e-05	4
16700	4e-05	3e-05	3e-05	-0.00014	-0.00026	-5e-05	-2e-05	1e-05	4
16701	-4e-05	-4e-05	-5e-05	-0.00023	-0.00027	-9e-05	-9e-05	-3e-05	4
16702	-2e-05	3e-05	7e-05	0.00024	0.00024	0.00012	6e-05	3e-05	4
16703	-2e-05	3e-05	7e-05	0.00024	0.00024	0.00012	6e-05	3e-05	4
16704	-2e-05	3e-05	7e-05	0.00024	0.00024	0.00012	6e-05	3e-05	4
16705	-2e-05	3e-05	7e-05	0.00024	0.00024	0.00012	6e-05	3e-05	4
16706	-2e-05	3e-05	7e-05	0.00024	0.00024	0.00012	6e-05	3e-05	4
16707	-2e-05	3e-05	7e-05	0.00024	0.00024	0.00012	6e-05	3e-05	4
16708	-2e-05	3e-05	7e-05	0.00024	0.00024	0.00012	6e-05	3e-05	4
16709	-2e-05	3e-05	7e-05	0.00024	0.00024	0.00012	6e-05	3e-05	4
16710	-2e-05	3e-05	7e-05	0.00024	0.00024	0.00012	6e-05	3e-05	4
16711	-2e-05	3e-05	7e-05	0.00024	0.00024	0.00012	6e-05	3e-05	4
16712	-2e-05	3e-05	7e-05	0.00024	0.00024	0.00012	6e-05	3e-05	4
16713	-2e-05	3e-05	7e-05	0.00024	0.00024	0.00012	6e-05	3e-05	4
16714	-2e-05	3e-05	7e-05	0.00024	0.00024	0.00012	6e-05	3e-05	4
16715	-0.0001	-0.00015	-0.00028	-7e-05	0.00029	-0.00041	-0.00017	-0.00012	4
16716	-0.0001	-0.00015	-0.00028	-7e-05	0.00029	-0.00041	-0.00017	-0.00012	4
16717	-0.0001	-0.00015	-0.00028	-7e-05	0.00029	-0.00041	-0.00017	-0.00012	4
16718	-0.0001	-0.00015	-0.00028	-7e-05	0.00029	-0.00041	-0.00017	-0.00012	4
16719	-0.0001	-0.00015	-0.00028	-7e-05	0.00029	-0.00041	-0.00017	-0.00012	4
16720	-0.0001	-0.00015	-0.00028	-7e-05	0.00029	-0.00041	-0.00017	-0.00012	4
16721	-0.0001	-0.00015	-0.00028	-7e-05	0.00029	-0.00041	-0.00017	-0.00012	4
16722	-0.0001	-0.00015	-0.00028	-7e-05	0.00029	-0.00041	-0.00017	-0.00012	4
16723	3e-05	4e-05	6e-05	-0.00034	-0.00023	0.0001	0.00013	5e-05	4
16724	-6e-05	-6e-05	-0.0001	8e-05	8e-05	-4e-05	-8e-05	-8e-05	4
16725	-6e-05	-6e-05	-0.0001	8e-05	8e-05	-4e-05	-8e-05	-8e-05	4
16726	-6e-05	-6e-05	-0.0001	8e-05	8e-05	-4e-05	-8e-05	-8e-05	4
16727	-6e-05	-6e-05	-0.0001	8e-05	8e-05	-4e-05	-8e-05	-8e-05	4
16728	-6e-05	-6e-05	-0.0001	8e-05	8e-05	-4e-05	-8e-05	-8e-05	4
16729	-6e-05	-6e-05	-0.0001	8e-05	8e-05	-4e-05	-8e-05	-8e-05	4
16730	-6e-05	-6e-05	-0.0001	8e-05	8e-05	-4e-05	-8e-05	-8e-05	4
16731	-6e-05	-6e-05	-0.0001	8e-05	8e-05	-4e-05	-8e-05	-8e-05	4
16732	-6e-05	-6e-05	-0.0001	8e-05	8e-05	-4e-05	-8e-05	-8e-05	4
16733	-6e-05	-6e-05	-0.0001	8e-05	8e-05	-4e-05	-8e-05	-8e-05	4
16734	-6e-05	-6e-05	-0.0001	8e-05	8e-05	-4e-05	-8e-05	-8e-05	4
16735	-6e-05	-6e-05	-0.0001	8e-05	8e-05	-4e-05	-8e-05	-8e-05	4
16736	-6e-05	-6e-05	-0.0001	8e-05	8e-05	-4e-05	-8e-05	-8e-05	4
16738	-7e-05	-0.0001	-0.00019	-0.00042	0.00056	-0.00015	-5e-05	-7e-05	4
16739	-7e-05	-0.0001	-0.00019	-0.00042	0.00056	-0.00015	-5e-05	-7e-05	4
16740	7e-05	0.00016	0.00025	-5e-05	-0.00085	0.00016	0.00013	7e-05	4
16741	7e-05	0.00016	0.00025	-5e-05	-0.00085	0.00016	0.00013	7e-05	4
16742	7e-05	0.00016	0.00025	-5e-05	-0.00085	0.00016	0.00013	7e-05	4
16743	7e-05	0.00016	0.00025	-5e-05	-0.00085	0.00016	0.00013	7e-05	4
16744	7e-05	0.00016	0.00025	-5e-05	-0.00085	0.00016	0.00013	7e-05	4
16745	7e-05	0.00016	0.00025	-5e-05	-0.00085	0.00016	0.00013	7e-05	4
16746	7e-05	0.00016	0.00025	-5e-05	-0.00085	0.00016	0.00013	7e-05	4
16747	7e-05	0.00016	0.00025	-5e-05	-0.00085	0.00016	0.00013	7e-05	4
16748	7e-05	0.00016	0.00025	-5e-05	-0.00085	0.00016	0.00013	7e-05	4
16749	7e-05	0.00016	0.00025	-5e-05	-0.00085	0.00016	0.00013	7e-05	4
16750	7e-05	0.00016	0.00025	-5e-05	-0.00085	0.00016	0.00013	7e-05	4
16751	7e-05	0.00016	0.00025	-5e-05	-0.00085	0.00016	0.00013	7e-05	4
16752	7e-05	0.00016	0.00025	-5e-05	-0.00085	0.00016	0.00013	7e-05	4
16753	7e-05	0.00016	0.00025	-5e-05	-0.00085	0.00016	0.00013	7e-05	4
16754	7e-05	0.00016	0.00025	-5e-05	-0.00085	0.00016	0.00013	7e-05	4
16755	7e-05	0.00016	0.00025	-5e-05	-0.00085	0.00016	0.00013	7e-05	4
16756	7e-05	0.00016	0.00025	-5e-05	-0.00085	0.00016	0.00013	7e-05	4
16757	7e-05	0.00016	0.00025	-5e-05	-0.00085	0.00016	0.00013	7e-05	4
16758	7e-05	0.00016	0.00025	-5e-05	-0.00085	0.00016	0.00013	7e-05	4
16759	7e-05	0.00016	0.00025	-5e-05	-0.00085	0.00016	0.00013	7e-05	4
16760	7e-05	0.00016	0.00025	-5e-05	-0.00085	0.00016	0.00013	7e-05	4
16761	2e-05	0	-2e-05	0.0002	0.00036	-5e-05	3e-05	3e-05	4
16762	-0.00011	-0.00012	-0.00011	-8e-05	0.00013	-0.00015	-0.00015	-0.00011	4
16763	0	2e-05	3e-05	-0.00051	-0.00102	-6e-05	3e-05	4e-05	4
16764	0	2e-05	3e-05	-0.00051	-0.00102	-6e-05	3e-05	4e-05	4
16765	0	2e-05	3e-05	-0.00051	-0.00102	-6e-05	3e-05	4e-05	4
16766	0	2e-05	3e-05	-0.00051	-0.00102	-6e-05	3e-05	4e-05	4
16767	0	2e-05	3e-05	-0.00051	-0.00102	-6e-05	3e-05	4e-05	4
16768	0	2e-05	3e-05	-0.00051	-0.00102	-6e-05	3e-05	4e-05	4
16769	0	2e-05	3e-05	-0.00051	-0.00102	-6e-05	3e-05	4e-05	4
16770	0	2e-05	3e-05	-0.00051	-0.00102	-6e-05	3e-05	4e-05	4
16771	0	2e-05	3e-05	-0.00051	-0.00102	-6e-05	3e-05	4e-05	4
16772	0	2e-05	3e-05	-0.00051	-0.00102	-6e-05	3e-05	4e-05	4
16773	0	2e-05	3e-05	-0.00051	-0.00102	-6e-05	3e-05	4e-05	4
16774	-2e-05	-4e-05	-0.00011	-0.00032	0.00039	0	-2e-05	-4e-05	4
16775	-3e-05	-6e-05	-0.00013	7e-05	0.00028	-0.0001	-0.00013	-8e-05	4
16776	-3e-05	-6e-05	-0.00013	7e-05	0.00028	-0.0001	-0.00013	-8e-05	4
16777	-3e-05	-6e-05	-0.00013	7e-05	0.00028	-0.0001	-0.00013	-8e-05	4
16778	-3e-05	-6e-05	-0.00013	7e-05	0.00028	-0.0001	-0.00013	-8e-05	4
16779	-3e-05	-6e-05	-0.00013	7e-05	0.00028	-0.0001	-0.00013	-8e-05	4
16780	-3e-05	-6e-05	-0.00013	7e-05	0.00028	-0.0001	-0.00013	-8e-05	4
16781	-3e-05	-6e-05	-0.00013	7e-05	0.00028	-0.0001	-0.00013	-8e-05	4
16782	-3e-05	-6e-05	-0.00013	7e-05	0.00028	-0.0001	-0.00013	-8e-05	4
16783	3e-05	2e-05	0	-0.00018	-9e-05	-0.00013	1e-05	0	4
16784	-2e-05	-3e-05	3e-05	-0.00027	0.00036	-4e-05	0	2e-05	4
16785	-2e-05	-3e-05	3e-05	-0.00027	0.00036	-4e-05	0	2e-05	4
16786	-2e-05	-3e-05	3e-05	-0.00027	0.00036	-4e-05	0	2e-05	4
16788	-2e-05	-3e-05	3e-05	-0.00027	0.00036	-4e-05	0	2e-05	4
16789	-2e-05	-3e-05	3e-05	-0.00027	0.00036	-4e-05	0	2e-05	4
16790	-2e-05	-3e-05	3e-05	-0.00027	0.00036	-4e-05	0	2e-05	4
16791	-2e-05	-3e-05	3e-05	-0.00027	0.00036	-4e-05	0	2e-05	4
16792	-2e-05	-3e-05	3e-05	-0.00027	0.00036	-4e-05	0	2e-05	4
16793	-2e-05	-3e-05	3e-05	-0.00027	0.00036	-4e-05	0	2e-05	4
16794	-2e-05	-3e-05	3e-05	-0.00027	0.00036	-4e-05	0	2e-05	4
16795	-2e-05	-3e-05	3e-05	-0.00027	0.00036	-4e-05	0	2e-05	4
16796	-2e-05	-3e-05	3e-05	-0.00027	0.00036	-4e-05	0	2e-05	4
16797	-2e-05	-3e-05	3e-05	-0.00027	0.00036	-4e-05	0	2e-05	4
16798	-2e-05	-3e-05	3e-05	-0.00027	0.00036	-4e-05	0	2e-05	4
16799	-2e-05	-3e-05	3e-05	-0.00027	0.00036	-4e-05	0	2e-05	4
16800	-2e-05	-3e-05	3e-05	-0.00027	0.00036	-4e-05	0	2e-05	4
16801	-2e-05	-3e-05	3e-05	-0.00027	0.00036	-4e-05	0	2e-05	4
16802	-2e-05	-3e-05	3e-05	-0.00027	0.00036	-4e-05	0	2e-05	4
16803	-2e-05	-3e-05	3e-05	-0.00027	0.00036	-4e-05	0	2e-05	4
16804	-2e-05	-3e-05	3e-05	-0.00027	0.00036	-4e-05	0	2e-05	4
16805	-2e-05	-3e-05	3e-05	-0.00027	0.00036	-4e-05	0	2e-05	4
16806	7e-05	0.00021	0.00045	0.00107	0.00084	0.00058	0.00021	0.00012	4
16807	-3e-05	-1e-05	-7e-05	-0.00022	-7e-05	-8e-05	-3e-05	-3e-05	4
16808	0	4e-05	0.00011	0.00018	-0.00042	-5e-05	3e-05	1e-05	4
16809	0	4e-05	0.00011	0.00018	-0.00042	-5e-05	3e-05	1e-05	4
16810	0	4e-05	0.00011	0.00018	-0.00042	-5e-05	3e-05	1e-05	4
16811	0	4e-05	0.00011	0.00018	-0.00042	-5e-05	3e-05	1e-05	4
16812	0	4e-05	0.00011	0.00018	-0.00042	-5e-05	3e-05	1e-05	4
16813	0	4e-05	0.00011	0.00018	-0.00042	-5e-05	3e-05	1e-05	4
16814	0	4e-05	0.00011	0.00018	-0.00042	-5e-05	3e-05	1e-05	4
16815	0	4e-05	0.00011	0.00018	-0.00042	-5e-05	3e-05	1e-05	4
16816	0	4e-05	0.00011	0.00018	-0.00042	-5e-05	3e-05	1e-05	4
16817	0	4e-05	0.00011	0.00018	-0.00042	-5e-05	3e-05	1e-05	4
16818	0	4e-05	0.00011	0.00018	-0.00042	-5e-05	3e-05	1e-05	4
16819	0	4e-05	0.00011	0.00018	-0.00042	-5e-05	3e-05	1e-05	4
16820	0	4e-05	0.00011	0.00018	-0.00042	-5e-05	3e-05	1e-05	4
16821	-2e-05	-8e-05	-0.00012	0.00046	0.00083	-0.00012	0	-4e-05	4
16822	-2e-05	-8e-05	-0.00012	0.00046	0.00083	-0.00012	0	-4e-05	4
16823	-2e-05	-8e-05	-0.00012	0.00046	0.00083	-0.00012	0	-4e-05	4
16824	-2e-05	-8e-05	-0.00012	0.00046	0.00083	-0.00012	0	-4e-05	4
16825	-2e-05	-8e-05	-0.00012	0.00046	0.00083	-0.00012	0	-4e-05	4
16826	-2e-05	-8e-05	-0.00012	0.00046	0.00083	-0.00012	0	-4e-05	4
16827	-2e-05	-4e-05	-0.00018	-0.00045	-0.0012	0.0001	-2e-05	-4e-05	4
16828	-2e-05	-4e-05	-0.00018	-0.00045	-0.0012	0.0001	-2e-05	-4e-05	4
16829	-2e-05	-4e-05	-0.00018	-0.00045	-0.0012	0.0001	-2e-05	-4e-05	4
16830	-2e-05	-4e-05	-0.00018	-0.00045	-0.0012	0.0001	-2e-05	-4e-05	4
16831	-2e-05	-4e-05	-0.00018	-0.00045	-0.0012	0.0001	-2e-05	-4e-05	4
16832	-2e-05	-4e-05	-0.00018	-0.00045	-0.0012	0.0001	-2e-05	-4e-05	4
16833	-2e-05	-4e-05	-0.00018	-0.00045	-0.0012	0.0001	-2e-05	-4e-05	4
16834	-2e-05	-4e-05	-0.00018	-0.00045	-0.0012	0.0001	-2e-05	-4e-05	4
16835	-2e-05	-4e-05	-0.00018	-0.00045	-0.0012	0.0001	-2e-05	-4e-05	4
16836	-2e-05	-4e-05	-0.00018	-0.00045	-0.0012	0.0001	-2e-05	-4e-05	4
16838	-2e-05	-4e-05	-0.00018	-0.00045	-0.0012	0.0001	-2e-05	-4e-05	4
16839	-2e-05	-4e-05	-0.00018	-0.00045	-0.0012	0.0001	-2e-05	-4e-05	4
16840	-2e-05	-4e-05	-0.00018	-0.00045	-0.0012	0.0001	-2e-05	-4e-05	4
16841	-2e-05	-4e-05	-0.00018	-0.00045	-0.0012	0.0001	-2e-05	-4e-05	4
16842	-2e-05	-4e-05	-0.00018	-0.00045	-0.0012	0.0001	-2e-05	-4e-05	4
16843	5e-05	6e-05	0.00015	0.0008	0.00084	8e-05	0.00011	6e-05	4
16844	-4e-05	-8e-05	-0.00017	-0.00096	-0.00098	-0.00024	-0.00011	-8e-05	4
16845	-2e-05	-6e-05	-0.00012	-0.00064	-0.00042	-0.0003	-0.0001	-7e-05	4
16846	-2e-05	-6e-05	-0.00012	-0.00064	-0.00042	-0.0003	-0.0001	-7e-05	4
16847	-2e-05	-6e-05	-0.00012	-0.00064	-0.00042	-0.0003	-0.0001	-7e-05	4
16848	-2e-05	-6e-05	-0.00012	-0.00064	-0.00042	-0.0003	-0.0001	-7e-05	4
16849	-2e-05	-6e-05	-0.00012	-0.00064	-0.00042	-0.0003	-0.0001	-7e-05	4
16850	-2e-05	-6e-05	-0.00012	-0.00064	-0.00042	-0.0003	-0.0001	-7e-05	4
16851	-2e-05	-6e-05	-0.00012	-0.00064	-0.00042	-0.0003	-0.0001	-7e-05	4
16852	-2e-05	-6e-05	-0.00012	-0.00064	-0.00042	-0.0003	-0.0001	-7e-05	4
16853	-2e-05	-6e-05	-0.00012	-0.00064	-0.00042	-0.0003	-0.0001	-7e-05	4
16854	-2e-05	-6e-05	-0.00012	-0.00064	-0.00042	-0.0003	-0.0001	-7e-05	4
16855	-2e-05	-6e-05	-0.00012	-0.00064	-0.00042	-0.0003	-0.0001	-7e-05	4
16856	-2e-05	-6e-05	-0.00012	-0.00064	-0.00042	-0.0003	-0.0001	-7e-05	4
16857	-2e-05	-6e-05	-0.00012	-0.00064	-0.00042	-0.0003	-0.0001	-7e-05	4
16858	-6e-05	-0.0001	-0.00011	6e-05	-0.00127	-0.00032	-0.00012	-7e-05	4
16859	-6e-05	-0.0001	-0.00011	6e-05	-0.00127	-0.00032	-0.00012	-7e-05	4
16860	-1e-05	-2e-05	3e-05	0.00012	-0.00024	-7e-05	-5e-05	-1e-05	4
16861	-1e-05	-2e-05	3e-05	0.00012	-0.00024	-7e-05	-5e-05	-1e-05	4
16862	-1e-05	-2e-05	3e-05	0.00012	-0.00024	-7e-05	-5e-05	-1e-05	4
16863	-1e-05	-2e-05	3e-05	0.00012	-0.00024	-7e-05	-5e-05	-1e-05	4
16864	-1e-05	-2e-05	3e-05	0.00012	-0.00024	-7e-05	-5e-05	-1e-05	4
16865	-1e-05	-2e-05	3e-05	0.00012	-0.00024	-7e-05	-5e-05	-1e-05	4
16866	-1e-05	-2e-05	3e-05	0.00012	-0.00024	-7e-05	-5e-05	-1e-05	4
16867	-1e-05	-2e-05	3e-05	0.00012	-0.00024	-7e-05	-5e-05	-1e-05	4
16868	-1e-05	-2e-05	3e-05	0.00012	-0.00024	-7e-05	-5e-05	-1e-05	4
16869	-1e-05	-2e-05	3e-05	0.00012	-0.00024	-7e-05	-5e-05	-1e-05	4
16870	-1e-05	-2e-05	3e-05	0.00012	-0.00024	-7e-05	-5e-05	-1e-05	4
16871	-1e-05	-2e-05	3e-05	0.00012	-0.00024	-7e-05	-5e-05	-1e-05	4
16872	-1e-05	-2e-05	3e-05	0.00012	-0.00024	-7e-05	-5e-05	-1e-05	4
16873	-1e-05	-2e-05	3e-05	0.00012	-0.00024	-7e-05	-5e-05	-1e-05	4
16874	-1e-05	-2e-05	3e-05	0.00012	-0.00024	-7e-05	-5e-05	-1e-05	4
16875	-1e-05	-2e-05	3e-05	0.00012	-0.00024	-7e-05	-5e-05	-1e-05	4
16876	-1e-05	-2e-05	3e-05	0.00012	-0.00024	-7e-05	-5e-05	-1e-05	4
16877	-1e-05	-2e-05	3e-05	0.00012	-0.00024	-7e-05	-5e-05	-1e-05	4
16878	-1e-05	-2e-05	3e-05	0.00012	-0.00024	-7e-05	-5e-05	-1e-05	4
16879	-1e-05	-2e-05	3e-05	0.00012	-0.00024	-7e-05	-5e-05	-1e-05	4
16880	-1e-05	-2e-05	3e-05	0.00012	-0.00024	-7e-05	-5e-05	-1e-05	4
16881	1e-05	5e-05	9e-05	-9e-05	-0.00072	-5e-05	0.0001	2e-05	4
16882	5e-05	3e-05	5e-05	0.00127	0.00127	0.0002	9e-05	6e-05	4
16883	5e-05	3e-05	5e-05	0.00127	0.00127	0.0002	9e-05	6e-05	4
16884	5e-05	3e-05	5e-05	0.00127	0.00127	0.0002	9e-05	6e-05	4
16885	5e-05	3e-05	5e-05	0.00127	0.00127	0.0002	9e-05	6e-05	4
16886	5e-05	3e-05	5e-05	0.00127	0.00127	0.0002	9e-05	6e-05	4
16888	5e-05	3e-05	5e-05	0.00127	0.00127	0.0002	9e-05	6e-05	4
16889	5e-05	3e-05	5e-05	0.00127	0.00127	0.0002	9e-05	6e-05	4
16890	5e-05	3e-05	5e-05	0.00127	0.00127	0.0002	9e-05	6e-05	4
16891	5e-05	3e-05	5e-05	0.00127	0.00127	0.0002	9e-05	6e-05	4
16892	5e-05	3e-05	5e-05	0.00127	0.00127	0.0002	9e-05	6e-05	4
16893	5e-05	3e-05	5e-05	0.00127	0.00127	0.0002	9e-05	6e-05	4
16894	5e-05	3e-05	5e-05	0.00127	0.00127	0.0002	9e-05	6e-05	4
16895	5e-05	3e-05	5e-05	0.00127	0.00127	0.0002	9e-05	6e-05	4
16896	5e-05	3e-05	5e-05	0.00127	0.00127	0.0002	9e-05	6e-05	4
16897	5e-05	3e-05	5e-05	0.00127	0.00127	0.0002	9e-05	6e-05	4
16898	5e-05	3e-05	5e-05	0.00127	0.00127	0.0002	9e-05	6e-05	4
16899	5e-05	3e-05	5e-05	0.00127	0.00127	0.0002	9e-05	6e-05	4
16900	5e-05	3e-05	5e-05	0.00127	0.00127	0.0002	9e-05	6e-05	4
16901	5e-05	3e-05	5e-05	0.00127	0.00127	0.0002	9e-05	6e-05	4
16902	5e-05	3e-05	5e-05	0.00127	0.00127	0.0002	9e-05	6e-05	4
16903	-6e-05	-4e-05	2e-05	0.00042	0.00119	-0.00016	-0.00011	-6e-05	4
16904	-2e-05	-6e-05	-0.00015	0.0001	0.00023	-0.0002	-4e-05	-2e-05	4
16905	-5e-05	-0.0001	-0.00015	-0.00018	0.00052	-0.0008	-4e-05	-5e-05	4
16906	-5e-05	-0.0001	-0.00015	-0.00018	0.00052	-0.0008	-4e-05	-5e-05	4
16907	-5e-05	-0.0001	-0.00015	-0.00018	0.00052	-0.0008	-4e-05	-5e-05	4
16908	-5e-05	-0.0001	-0.00015	-0.00018	0.00052	-0.0008	-4e-05	-5e-05	4
16909	-5e-05	-0.0001	-0.00015	-0.00018	0.00052	-0.0008	-4e-05	-5e-05	4
16910	-5e-05	-0.0001	-0.00015	-0.00018	0.00052	-0.0008	-4e-05	-5e-05	4
16911	-5e-05	-0.0001	-0.00015	-0.00018	0.00052	-0.0008	-4e-05	-5e-05	4
16912	-5e-05	-0.0001	-0.00015	-0.00018	0.00052	-0.0008	-4e-05	-5e-05	4
16913	-5e-05	-0.0001	-0.00015	-0.00018	0.00052	-0.0008	-4e-05	-5e-05	4
16914	-5e-05	-0.0001	-0.00015	-0.00018	0.00052	-0.0008	-4e-05	-5e-05	4
16915	-5e-05	-0.0001	-0.00015	-0.00018	0.00052	-0.0008	-4e-05	-5e-05	4
16916	-5e-05	-0.0001	-0.00015	-0.00018	0.00052	-0.0008	-4e-05	-5e-05	4
16917	-5e-05	-0.0001	-0.00015	-0.00018	0.00052	-0.0008	-4e-05	-5e-05	4
16918	-7e-05	-0.00017	-0.00025	4e-05	0.00043	2e-05	-4e-05	-9e-05	4
16919	1e-05	3e-05	0.00013	0.00044	5e-05	0.00045	-3e-05	1e-05	4
16920	2e-05	1e-05	-1e-05	-7e-05	-0.0006	0.00034	4e-05	3e-05	4
16921	2e-05	1e-05	-1e-05	-7e-05	-0.0006	0.00034	4e-05	3e-05	4
16922	2e-05	1e-05	-1e-05	-7e-05	-0.0006	0.00034	4e-05	3e-05	4
16923	2e-05	1e-05	-1e-05	-7e-05	-0.0006	0.00034	4e-05	3e-05	4
16924	2e-05	1e-05	-1e-05	-7e-05	-0.0006	0.00034	4e-05	3e-05	4
16925	2e-05	1e-05	-1e-05	-7e-05	-0.0006	0.00034	4e-05	3e-05	4
16926	2e-05	1e-05	-1e-05	-7e-05	-0.0006	0.00034	4e-05	3e-05	4
16927	2e-05	1e-05	-1e-05	-7e-05	-0.0006	0.00034	4e-05	3e-05	4
16928	2e-05	1e-05	-1e-05	-7e-05	-0.0006	0.00034	4e-05	3e-05	4
16929	2e-05	1e-05	-1e-05	-7e-05	-0.0006	0.00034	4e-05	3e-05	4
16930	2e-05	1e-05	-1e-05	-7e-05	-0.0006	0.00034	4e-05	3e-05	4
16931	2e-05	1e-05	-1e-05	-7e-05	-0.0006	0.00034	4e-05	3e-05	4
16932	2e-05	1e-05	-1e-05	-7e-05	-0.0006	0.00034	4e-05	3e-05	4
16933	2e-05	1e-05	-1e-05	-7e-05	-0.0006	0.00034	4e-05	3e-05	4
16934	2e-05	1e-05	-1e-05	-7e-05	-0.0006	0.00034	4e-05	3e-05	4
16935	2e-05	1e-05	-1e-05	-7e-05	-0.0006	0.00034	4e-05	3e-05	4
16936	2e-05	1e-05	-1e-05	-7e-05	-0.0006	0.00034	4e-05	3e-05	4
16938	2e-05	1e-05	-1e-05	-7e-05	-0.0006	0.00034	4e-05	3e-05	4
16939	2e-05	1e-05	-1e-05	-7e-05	-0.0006	0.00034	4e-05	3e-05	4
16940	2e-05	1e-05	-1e-05	-7e-05	-0.0006	0.00034	4e-05	3e-05	4
16941	7e-05	0.00013	0.00021	0.00039	-6e-05	0.00016	0.00012	9e-05	4
16942	-4e-05	-3e-05	-7e-05	-0.00025	-0.00027	-1e-05	-7e-05	-4e-05	4
16943	2e-05	4e-05	9e-05	0.00037	0.00042	0.00022	4e-05	2e-05	4
16944	2e-05	4e-05	9e-05	0.00037	0.00042	0.00022	4e-05	2e-05	4
16945	2e-05	4e-05	9e-05	0.00037	0.00042	0.00022	4e-05	2e-05	4
16946	2e-05	4e-05	9e-05	0.00037	0.00042	0.00022	4e-05	2e-05	4
16947	2e-05	4e-05	9e-05	0.00037	0.00042	0.00022	4e-05	2e-05	4
16948	2e-05	4e-05	9e-05	0.00037	0.00042	0.00022	4e-05	2e-05	4
16949	2e-05	4e-05	9e-05	0.00037	0.00042	0.00022	4e-05	2e-05	4
16950	2e-05	4e-05	9e-05	0.00037	0.00042	0.00022	4e-05	2e-05	4
16951	2e-05	4e-05	9e-05	0.00037	0.00042	0.00022	4e-05	2e-05	4
16952	2e-05	4e-05	9e-05	0.00037	0.00042	0.00022	4e-05	2e-05	4
16953	2e-05	4e-05	9e-05	0.00037	0.00042	0.00022	4e-05	2e-05	4
16954	2e-05	4e-05	9e-05	0.00037	0.00042	0.00022	4e-05	2e-05	4
16955	2e-05	4e-05	9e-05	0.00037	0.00042	0.00022	4e-05	2e-05	4
16956	2e-05	4e-05	9e-05	0.00037	0.00042	0.00022	4e-05	2e-05	4
16957	2e-05	4e-05	9e-05	0.00037	0.00042	0.00022	4e-05	2e-05	4
16958	2e-05	4e-05	9e-05	0.00037	0.00042	0.00022	4e-05	2e-05	4
16959	2e-05	4e-05	9e-05	0.00037	0.00042	0.00022	4e-05	2e-05	4
16960	2e-05	4e-05	9e-05	0.00037	0.00042	0.00022	4e-05	2e-05	4
16961	2e-05	4e-05	9e-05	0.00037	0.00042	0.00022	4e-05	2e-05	4
16962	2e-05	4e-05	9e-05	0.00037	0.00042	0.00022	4e-05	2e-05	4
16963	-3e-05	-4e-05	-4e-05	-0.00037	6e-05	-3e-05	-4e-05	-5e-05	4
16964	-3e-05	-4e-05	-4e-05	-0.00037	6e-05	-3e-05	-4e-05	-5e-05	4
16965	0	5e-05	8e-05	-0.00084	-0.00053	-6e-05	-3e-05	-1e-05	4
16966	0	5e-05	8e-05	-0.00084	-0.00053	-6e-05	-3e-05	-1e-05	4
16967	0	5e-05	8e-05	-0.00084	-0.00053	-6e-05	-3e-05	-1e-05	4
16968	0	5e-05	8e-05	-0.00084	-0.00053	-6e-05	-3e-05	-1e-05	4
16969	0	5e-05	8e-05	-0.00084	-0.00053	-6e-05	-3e-05	-1e-05	4
16970	0	5e-05	8e-05	-0.00084	-0.00053	-6e-05	-3e-05	-1e-05	4
16971	0	5e-05	8e-05	-0.00084	-0.00053	-6e-05	-3e-05	-1e-05	4
16972	0	5e-05	8e-05	-0.00084	-0.00053	-6e-05	-3e-05	-1e-05	4
16973	0	5e-05	8e-05	-0.00084	-0.00053	-6e-05	-3e-05	-1e-05	4
16974	0	5e-05	8e-05	-0.00084	-0.00053	-6e-05	-3e-05	-1e-05	4
16975	0	5e-05	8e-05	-0.00084	-0.00053	-6e-05	-3e-05	-1e-05	4
16976	0	5e-05	8e-05	-0.00084	-0.00053	-6e-05	-3e-05	-1e-05	4
16977	0	5e-05	8e-05	-0.00084	-0.00053	-6e-05	-3e-05	-1e-05	4
16978	-2e-05	1e-05	4e-05	4e-05	0.00084	-0.00012	5e-05	0	4
16979	-2e-05	1e-05	4e-05	4e-05	0.00084	-0.00012	5e-05	0	4
16980	-2e-05	1e-05	4e-05	4e-05	0.00084	-0.00012	5e-05	0	4
16981	-2e-05	1e-05	4e-05	4e-05	0.00084	-0.00012	5e-05	0	4
16982	-2e-05	1e-05	4e-05	4e-05	0.00084	-0.00012	5e-05	0	4
16983	-2e-05	1e-05	4e-05	4e-05	0.00084	-0.00012	5e-05	0	4
16984	2e-05	7e-05	0.00019	0.00066	0.00021	0.00014	1e-05	-1e-05	4
16985	2e-05	7e-05	0.00019	0.00066	0.00021	0.00014	1e-05	-1e-05	4
16986	2e-05	7e-05	0.00019	0.00066	0.00021	0.00014	1e-05	-1e-05	4
16988	2e-05	7e-05	0.00019	0.00066	0.00021	0.00014	1e-05	-1e-05	4
16989	2e-05	7e-05	0.00019	0.00066	0.00021	0.00014	1e-05	-1e-05	4
16990	2e-05	7e-05	0.00019	0.00066	0.00021	0.00014	1e-05	-1e-05	4
16991	2e-05	7e-05	0.00019	0.00066	0.00021	0.00014	1e-05	-1e-05	4
16992	2e-05	7e-05	0.00019	0.00066	0.00021	0.00014	1e-05	-1e-05	4
16993	2e-05	7e-05	0.00019	0.00066	0.00021	0.00014	1e-05	-1e-05	4
16994	2e-05	7e-05	0.00019	0.00066	0.00021	0.00014	1e-05	-1e-05	4
16995	2e-05	7e-05	0.00019	0.00066	0.00021	0.00014	1e-05	-1e-05	4
16996	2e-05	7e-05	0.00019	0.00066	0.00021	0.00014	1e-05	-1e-05	4
16997	2e-05	7e-05	0.00019	0.00066	0.00021	0.00014	1e-05	-1e-05	4
16998	2e-05	7e-05	0.00019	0.00066	0.00021	0.00014	1e-05	-1e-05	4
16999	2e-05	7e-05	0.00019	0.00066	0.00021	0.00014	1e-05	-1e-05	4
17000	2e-05	7e-05	0.00019	0.00066	0.00021	0.00014	1e-05	-1e-05	4
17001	-2e-05	-9e-05	-0.00025	-0.00094	-0.00068	-0.00015	-5e-05	-4e-05	4
17002	2e-05	3e-05	4e-05	0.00022	0.00047	6e-05	-1e-05	2e-05	4
17003	6e-05	0.00012	0.00024	0.00011	-0.0003	0.00028	0.00015	6e-05	4
17004	6e-05	0.00012	0.00024	0.00011	-0.0003	0.00028	0.00015	6e-05	4
17005	6e-05	0.00012	0.00024	0.00011	-0.0003	0.00028	0.00015	6e-05	4
17006	6e-05	0.00012	0.00024	0.00011	-0.0003	0.00028	0.00015	6e-05	4
17007	6e-05	0.00012	0.00024	0.00011	-0.0003	0.00028	0.00015	6e-05	4
17008	6e-05	0.00012	0.00024	0.00011	-0.0003	0.00028	0.00015	6e-05	4
17009	6e-05	0.00012	0.00024	0.00011	-0.0003	0.00028	0.00015	6e-05	4
17010	6e-05	0.00012	0.00024	0.00011	-0.0003	0.00028	0.00015	6e-05	4
17011	6e-05	0.00012	0.00024	0.00011	-0.0003	0.00028	0.00015	6e-05	4
17012	6e-05	0.00012	0.00024	0.00011	-0.0003	0.00028	0.00015	6e-05	4
17013	6e-05	0.00012	0.00024	0.00011	-0.0003	0.00028	0.00015	6e-05	4
17014	6e-05	0.00012	0.00024	0.00011	-0.0003	0.00028	0.00015	6e-05	4
17015	6e-05	0.00012	0.00024	0.00011	-0.0003	0.00028	0.00015	6e-05	4
17016	6e-05	0.00012	0.00024	0.00011	-0.0003	0.00028	0.00015	6e-05	4
17017	6e-05	0.00012	0.00024	0.00011	-0.0003	0.00028	0.00015	6e-05	4
17018	6e-05	0.00012	0.00024	0.00011	-0.0003	0.00028	0.00015	6e-05	4
17019	6e-05	0.00012	0.00024	0.00011	-0.0003	0.00028	0.00015	6e-05	4
17020	6e-05	0.00012	0.00024	0.00011	-0.0003	0.00028	0.00015	6e-05	4
17021	6e-05	0.00012	0.00024	0.00011	-0.0003	0.00028	0.00015	6e-05	4
17022	6e-05	0.00012	0.00024	0.00011	-0.0003	0.00028	0.00015	6e-05	4
17023	1e-05	4e-05	2e-05	0.00026	-0.00011	0.0001	3e-05	1e-05	4
17024	-1e-05	-4e-05	-8e-05	-0.00018	-0.00018	-3e-05	-6e-05	-1e-05	4
17025	-3e-05	-7e-05	-0.00014	-0.00025	0.0001	-6e-05	-9e-05	-4e-05	4
17026	-3e-05	-7e-05	-0.00014	-0.00025	0.0001	-6e-05	-9e-05	-4e-05	4
17027	-3e-05	-7e-05	-0.00014	-0.00025	0.0001	-6e-05	-9e-05	-4e-05	4
17028	-3e-05	-7e-05	-0.00014	-0.00025	0.0001	-6e-05	-9e-05	-4e-05	4
17029	-3e-05	-7e-05	-0.00014	-0.00025	0.0001	-6e-05	-9e-05	-4e-05	4
17030	-3e-05	-7e-05	-0.00014	-0.00025	0.0001	-6e-05	-9e-05	-4e-05	4
17031	-3e-05	-7e-05	-0.00014	-0.00025	0.0001	-6e-05	-9e-05	-4e-05	4
17032	-3e-05	-7e-05	-0.00014	-0.00025	0.0001	-6e-05	-9e-05	-4e-05	4
17033	-3e-05	-7e-05	-0.00014	-0.00025	0.0001	-6e-05	-9e-05	-4e-05	4
17034	-3e-05	-7e-05	-0.00014	-0.00025	0.0001	-6e-05	-9e-05	-4e-05	4
17035	-3e-05	-7e-05	-0.00014	-0.00025	0.0001	-6e-05	-9e-05	-4e-05	4
17036	-3e-05	-7e-05	-0.00014	-0.00025	0.0001	-6e-05	-9e-05	-4e-05	4
17038	0.00011	0.00017	0.00027	0.00023	-0.00013	0.00021	0.00016	0.00012	4
17039	0.00011	0.00017	0.00027	0.00023	-0.00013	0.00021	0.00016	0.00012	4
17040	0.00011	0.00017	0.00027	0.00023	-0.00013	0.00021	0.00016	0.00012	4
17041	0.00011	0.00017	0.00027	0.00023	-0.00013	0.00021	0.00016	0.00012	4
17042	0.00011	0.00017	0.00027	0.00023	-0.00013	0.00021	0.00016	0.00012	4
17043	0.00011	0.00017	0.00027	0.00023	-0.00013	0.00021	0.00016	0.00012	4
17044	-1e-05	-6e-05	-0.0001	-0.00016	-0.00095	2e-05	-6e-05	-7e-05	4
17045	-4e-05	-8e-05	-0.00014	-0.00012	0.00058	1e-05	-5e-05	-3e-05	4
17046	-4e-05	-8e-05	-0.00014	-0.00012	0.00058	1e-05	-5e-05	-3e-05	4
17047	-4e-05	-8e-05	-0.00014	-0.00012	0.00058	1e-05	-5e-05	-3e-05	4
17048	-4e-05	-8e-05	-0.00014	-0.00012	0.00058	1e-05	-5e-05	-3e-05	4
17049	-4e-05	-8e-05	-0.00014	-0.00012	0.00058	1e-05	-5e-05	-3e-05	4
17050	-4e-05	-8e-05	-0.00014	-0.00012	0.00058	1e-05	-5e-05	-3e-05	4
17051	-4e-05	-8e-05	-0.00014	-0.00012	0.00058	1e-05	-5e-05	-3e-05	4
17052	-4e-05	-8e-05	-0.00014	-0.00012	0.00058	1e-05	-5e-05	-3e-05	4
17053	-4e-05	-8e-05	-0.00014	-0.00012	0.00058	1e-05	-5e-05	-3e-05	4
17054	-4e-05	-8e-05	-0.00014	-0.00012	0.00058	1e-05	-5e-05	-3e-05	4
17055	-4e-05	-8e-05	-0.00014	-0.00012	0.00058	1e-05	-5e-05	-3e-05	4
17056	-4e-05	-8e-05	-0.00014	-0.00012	0.00058	1e-05	-5e-05	-3e-05	4
17057	-4e-05	-8e-05	-0.00014	-0.00012	0.00058	1e-05	-5e-05	-3e-05	4
17058	-4e-05	-8e-05	-0.00014	-0.00012	0.00058	1e-05	-5e-05	-3e-05	4
17059	-4e-05	-8e-05	-0.00014	-0.00012	0.00058	1e-05	-5e-05	-3e-05	4
17060	-4e-05	-8e-05	-0.00014	-0.00012	0.00058	1e-05	-5e-05	-3e-05	4
17061	-5e-05	-6e-05	-0.0001	-0.00055	-0.00068	0.00038	-7e-05	-3e-05	4
17062	1e-05	8e-05	0.00013	0.00062	0.00023	0.00013	4e-05	3e-05	4
17063	-5e-05	-1e-05	2e-05	0.00054	0.00089	0.0003	-6e-05	-6e-05	4
17064	-5e-05	-1e-05	2e-05	0.00054	0.00089	0.0003	-6e-05	-6e-05	4
17065	-5e-05	-1e-05	2e-05	0.00054	0.00089	0.0003	-6e-05	-6e-05	4
17066	-5e-05	-1e-05	2e-05	0.00054	0.00089	0.0003	-6e-05	-6e-05	4
17067	-5e-05	-1e-05	2e-05	0.00054	0.00089	0.0003	-6e-05	-6e-05	4
17068	-5e-05	-1e-05	2e-05	0.00054	0.00089	0.0003	-6e-05	-6e-05	4
17069	-5e-05	-1e-05	2e-05	0.00054	0.00089	0.0003	-6e-05	-6e-05	4
17070	-5e-05	-1e-05	2e-05	0.00054	0.00089	0.0003	-6e-05	-6e-05	4
17071	-5e-05	-1e-05	2e-05	0.00054	0.00089	0.0003	-6e-05	-6e-05	4
17072	-5e-05	-1e-05	2e-05	0.00054	0.00089	0.0003	-6e-05	-6e-05	4
17073	-5e-05	-1e-05	2e-05	0.00054	0.00089	0.0003	-6e-05	-6e-05	4
17074	-5e-05	-1e-05	2e-05	0.00054	0.00089	0.0003	-6e-05	-6e-05	4
17075	-5e-05	-1e-05	2e-05	0.00054	0.00089	0.0003	-6e-05	-6e-05	4
17076	-5e-05	-1e-05	2e-05	0.00054	0.00089	0.0003	-6e-05	-6e-05	4
17077	-5e-05	-1e-05	2e-05	0.00054	0.00089	0.0003	-6e-05	-6e-05	4
17078	-5e-05	-1e-05	2e-05	0.00054	0.00089	0.0003	-6e-05	-6e-05	4
17079	-5e-05	-1e-05	2e-05	0.00054	0.00089	0.0003	-6e-05	-6e-05	4
17080	-5e-05	-1e-05	2e-05	0.00054	0.00089	0.0003	-6e-05	-6e-05	4
17081	-5e-05	-1e-05	2e-05	0.00054	0.00089	0.0003	-6e-05	-6e-05	4
17082	-5e-05	-1e-05	2e-05	0.00054	0.00089	0.0003	-6e-05	-6e-05	4
17083	6e-05	0.0001	0.00014	0.00016	-0.00018	0.0001	0.0001	7e-05	4
17084	-7e-05	-0.0001	-0.00012	2e-05	0.00021	-9e-05	-5e-05	-2e-05	4
17085	0	2e-05	-3e-05	-0.00041	-0.0002	8e-05	2e-05	2e-05	4
17086	0	2e-05	-3e-05	-0.00041	-0.0002	8e-05	2e-05	2e-05	4
17088	0	2e-05	-3e-05	-0.00041	-0.0002	8e-05	2e-05	2e-05	4
17089	0	2e-05	-3e-05	-0.00041	-0.0002	8e-05	2e-05	2e-05	4
17090	0	2e-05	-3e-05	-0.00041	-0.0002	8e-05	2e-05	2e-05	4
17091	0	2e-05	-3e-05	-0.00041	-0.0002	8e-05	2e-05	2e-05	4
17092	0	2e-05	-3e-05	-0.00041	-0.0002	8e-05	2e-05	2e-05	4
17093	0	2e-05	-3e-05	-0.00041	-0.0002	8e-05	2e-05	2e-05	4
17094	0	2e-05	-3e-05	-0.00041	-0.0002	8e-05	2e-05	2e-05	4
17095	0	2e-05	-3e-05	-0.00041	-0.0002	8e-05	2e-05	2e-05	4
17096	0	2e-05	-3e-05	-0.00041	-0.0002	8e-05	2e-05	2e-05	4
17097	-1e-05	-1e-05	0	0.00012	-3e-05	-0.00029	2e-05	-4e-05	4
17098	-1e-05	-1e-05	0	0.00012	-3e-05	-0.00029	2e-05	-4e-05	4
17099	-1e-05	-1e-05	0	0.00012	-3e-05	-0.00029	2e-05	-4e-05	4
17100	-1e-05	-1e-05	0	0.00012	-3e-05	-0.00029	2e-05	-4e-05	4
17101	-1e-05	-1e-05	0	0.00012	-3e-05	-0.00029	2e-05	-4e-05	4
17102	-1e-05	-1e-05	0	0.00012	-3e-05	-0.00029	2e-05	-4e-05	4
17103	-1e-05	-1e-05	0	0.00012	-3e-05	-0.00029	2e-05	-4e-05	4
17104	-1e-05	-1e-05	0	0.00012	-3e-05	-0.00029	2e-05	-4e-05	4
17105	-1e-05	-1e-05	0	0.00012	-3e-05	-0.00029	2e-05	-4e-05	4
17106	-3e-05	-4e-05	-7e-05	0.00015	0.00039	-0.00017	-5e-05	-2e-05	4
17107	-3e-05	-4e-05	-7e-05	0.00015	0.00039	-0.00017	-5e-05	-2e-05	4
17108	-3e-05	-4e-05	-7e-05	0.00015	0.00039	-0.00017	-5e-05	-2e-05	4
17109	-3e-05	-4e-05	-7e-05	0.00015	0.00039	-0.00017	-5e-05	-2e-05	4
17110	-3e-05	-4e-05	-7e-05	0.00015	0.00039	-0.00017	-5e-05	-2e-05	4
17111	-3e-05	-4e-05	-7e-05	0.00015	0.00039	-0.00017	-5e-05	-2e-05	4
17112	-3e-05	-4e-05	-7e-05	0.00015	0.00039	-0.00017	-5e-05	-2e-05	4
17113	-3e-05	-4e-05	-7e-05	0.00015	0.00039	-0.00017	-5e-05	-2e-05	4
17114	-3e-05	-4e-05	-7e-05	0.00015	0.00039	-0.00017	-5e-05	-2e-05	4
17115	-3e-05	-4e-05	-7e-05	0.00015	0.00039	-0.00017	-5e-05	-2e-05	4
17116	-3e-05	-4e-05	-7e-05	0.00015	0.00039	-0.00017	-5e-05	-2e-05	4
17117	-3e-05	-4e-05	-7e-05	0.00015	0.00039	-0.00017	-5e-05	-2e-05	4
17118	-3e-05	-4e-05	-7e-05	0.00015	0.00039	-0.00017	-5e-05	-2e-05	4
17119	-3e-05	-4e-05	-7e-05	0.00015	0.00039	-0.00017	-5e-05	-2e-05	4
17120	-3e-05	-4e-05	-7e-05	0.00015	0.00039	-0.00017	-5e-05	-2e-05	4
17121	3e-05	6e-05	0.00017	0.00081	0.00062	-7e-05	4e-05	3e-05	4
17122	-4e-05	-6e-05	-0.00021	-0.00041	0.00023	-0.0001	-0.00013	-6e-05	4
17123	1e-05	2e-05	5e-05	-0.00024	0	-0.00043	5e-05	1e-05	4
17124	1e-05	2e-05	5e-05	-0.00024	0	-0.00043	5e-05	1e-05	4
17125	1e-05	2e-05	5e-05	-0.00024	0	-0.00043	5e-05	1e-05	4
17126	1e-05	2e-05	5e-05	-0.00024	0	-0.00043	5e-05	1e-05	4
17127	1e-05	2e-05	5e-05	-0.00024	0	-0.00043	5e-05	1e-05	4
17128	1e-05	2e-05	5e-05	-0.00024	0	-0.00043	5e-05	1e-05	4
17129	1e-05	2e-05	5e-05	-0.00024	0	-0.00043	5e-05	1e-05	4
17130	1e-05	2e-05	5e-05	-0.00024	0	-0.00043	5e-05	1e-05	4
17131	1e-05	2e-05	5e-05	-0.00024	0	-0.00043	5e-05	1e-05	4
17132	1e-05	2e-05	5e-05	-0.00024	0	-0.00043	5e-05	1e-05	4
17133	1e-05	2e-05	5e-05	-0.00024	0	-0.00043	5e-05	1e-05	4
17134	1e-05	2e-05	5e-05	-0.00024	0	-0.00043	5e-05	1e-05	4
17135	1e-05	2e-05	5e-05	-0.00024	0	-0.00043	5e-05	1e-05	4
17136	1e-05	2e-05	5e-05	-0.00024	0	-0.00043	5e-05	1e-05	4
17138	1e-05	2e-05	5e-05	-0.00024	0	-0.00043	5e-05	1e-05	4
17139	1e-05	2e-05	5e-05	-0.00024	0	-0.00043	5e-05	1e-05	4
17140	1e-05	2e-05	5e-05	-0.00024	0	-0.00043	5e-05	1e-05	4
17141	1e-05	2e-05	5e-05	-0.00024	0	-0.00043	5e-05	1e-05	4
17142	1e-05	2e-05	5e-05	-0.00024	0	-0.00043	5e-05	1e-05	4
17143	3e-05	2e-05	-7e-05	-0.00067	-0.00066	5e-05	2e-05	4e-05	4
17144	-7e-05	-0.00014	-0.00012	0.0003	-0.00063	-0.00015	-8e-05	-6e-05	4
17145	5e-05	6e-05	0.00011	0.00028	-0.00029	0.00016	8e-05	4e-05	4
17146	5e-05	6e-05	0.00011	0.00028	-0.00029	0.00016	8e-05	4e-05	4
17147	5e-05	6e-05	0.00011	0.00028	-0.00029	0.00016	8e-05	4e-05	4
17148	5e-05	6e-05	0.00011	0.00028	-0.00029	0.00016	8e-05	4e-05	4
17149	5e-05	6e-05	0.00011	0.00028	-0.00029	0.00016	8e-05	4e-05	4
17150	5e-05	6e-05	0.00011	0.00028	-0.00029	0.00016	8e-05	4e-05	4
17151	5e-05	6e-05	0.00011	0.00028	-0.00029	0.00016	8e-05	4e-05	4
17152	5e-05	6e-05	0.00011	0.00028	-0.00029	0.00016	8e-05	4e-05	4
17153	5e-05	6e-05	0.00011	0.00028	-0.00029	0.00016	8e-05	4e-05	4
17154	5e-05	6e-05	0.00011	0.00028	-0.00029	0.00016	8e-05	4e-05	4
17155	5e-05	6e-05	0.00011	0.00028	-0.00029	0.00016	8e-05	4e-05	4
17156	5e-05	6e-05	0.00011	0.00028	-0.00029	0.00016	8e-05	4e-05	4
17157	5e-05	6e-05	0.00011	0.00028	-0.00029	0.00016	8e-05	4e-05	4
17158	6e-05	9e-05	4e-05	-0.00039	-0.00021	4e-05	0.0001	6e-05	4
17159	6e-05	9e-05	4e-05	-0.00039	-0.00021	4e-05	0.0001	6e-05	4
17160	6e-05	9e-05	4e-05	-0.00039	-0.00021	4e-05	0.0001	6e-05	4
17161	6e-05	9e-05	4e-05	-0.00039	-0.00021	4e-05	0.0001	6e-05	4
17162	6e-05	9e-05	4e-05	-0.00039	-0.00021	4e-05	0.0001	6e-05	4
17163	6e-05	9e-05	4e-05	-0.00039	-0.00021	4e-05	0.0001	6e-05	4
17164	3e-05	6e-05	0.00016	0.00043	-0.00054	-0.00017	3e-05	3e-05	4
17165	-5e-05	-0.0001	-0.00013	-0.00025	-2e-05	-6e-05	-7e-05	-4e-05	4
17166	-5e-05	-0.0001	-0.00013	-0.00025	-2e-05	-6e-05	-7e-05	-4e-05	4
17167	-5e-05	-0.0001	-0.00013	-0.00025	-2e-05	-6e-05	-7e-05	-4e-05	4
17168	-5e-05	-0.0001	-0.00013	-0.00025	-2e-05	-6e-05	-7e-05	-4e-05	4
17169	-5e-05	-0.0001	-0.00013	-0.00025	-2e-05	-6e-05	-7e-05	-4e-05	4
17170	-5e-05	-0.0001	-0.00013	-0.00025	-2e-05	-6e-05	-7e-05	-4e-05	4
17171	-5e-05	-0.0001	-0.00013	-0.00025	-2e-05	-6e-05	-7e-05	-4e-05	4
17172	-5e-05	-0.0001	-0.00013	-0.00025	-2e-05	-6e-05	-7e-05	-4e-05	4
17173	-5e-05	-0.0001	-0.00013	-0.00025	-2e-05	-6e-05	-7e-05	-4e-05	4
17174	-5e-05	-0.0001	-0.00013	-0.00025	-2e-05	-6e-05	-7e-05	-4e-05	4
17175	-5e-05	-0.0001	-0.00013	-0.00025	-2e-05	-6e-05	-7e-05	-4e-05	4
17176	-5e-05	-0.0001	-0.00013	-0.00025	-2e-05	-6e-05	-7e-05	-4e-05	4
17177	-5e-05	-0.0001	-0.00013	-0.00025	-2e-05	-6e-05	-7e-05	-4e-05	4
17178	-5e-05	-0.0001	-0.00013	-0.00025	-2e-05	-6e-05	-7e-05	-4e-05	4
17179	-5e-05	-0.0001	-0.00013	-0.00025	-2e-05	-6e-05	-7e-05	-4e-05	4
17180	-5e-05	-0.0001	-0.00013	-0.00025	-2e-05	-6e-05	-7e-05	-4e-05	4
17181	-0.0001	-0.0001	-0.00018	-0.00013	0.00035	-0.00012	-0.00014	-0.0001	4
17182	-0.0001	-0.0001	-0.00018	-0.00013	0.00035	-0.00012	-0.00014	-0.0001	4
17183	-5e-05	-7e-05	-9e-05	-0.00019	-0.00034	-9e-05	-3e-05	-4e-05	4
17184	-5e-05	-7e-05	-9e-05	-0.00019	-0.00034	-9e-05	-3e-05	-4e-05	4
17185	-5e-05	-7e-05	-9e-05	-0.00019	-0.00034	-9e-05	-3e-05	-4e-05	4
17186	-5e-05	-7e-05	-9e-05	-0.00019	-0.00034	-9e-05	-3e-05	-4e-05	4
17188	-5e-05	-7e-05	-9e-05	-0.00019	-0.00034	-9e-05	-3e-05	-4e-05	4
17189	-5e-05	-7e-05	-9e-05	-0.00019	-0.00034	-9e-05	-3e-05	-4e-05	4
17190	-5e-05	-7e-05	-9e-05	-0.00019	-0.00034	-9e-05	-3e-05	-4e-05	4
17191	-5e-05	-7e-05	-9e-05	-0.00019	-0.00034	-9e-05	-3e-05	-4e-05	4
17192	-5e-05	-7e-05	-9e-05	-0.00019	-0.00034	-9e-05	-3e-05	-4e-05	4
17193	-5e-05	-7e-05	-9e-05	-0.00019	-0.00034	-9e-05	-3e-05	-4e-05	4
17194	-5e-05	-7e-05	-9e-05	-0.00019	-0.00034	-9e-05	-3e-05	-4e-05	4
17195	-5e-05	-7e-05	-9e-05	-0.00019	-0.00034	-9e-05	-3e-05	-4e-05	4
17196	-5e-05	-7e-05	-9e-05	-0.00019	-0.00034	-9e-05	-3e-05	-4e-05	4
17197	-5e-05	-7e-05	-9e-05	-0.00019	-0.00034	-9e-05	-3e-05	-4e-05	4
17198	-5e-05	-7e-05	-9e-05	-0.00019	-0.00034	-9e-05	-3e-05	-4e-05	4
17199	-5e-05	-7e-05	-9e-05	-0.00019	-0.00034	-9e-05	-3e-05	-4e-05	4
17200	-5e-05	-7e-05	-9e-05	-0.00019	-0.00034	-9e-05	-3e-05	-4e-05	4
17201	-5e-05	-7e-05	-9e-05	-0.00019	-0.00034	-9e-05	-3e-05	-4e-05	4
17202	-5e-05	-7e-05	-9e-05	-0.00019	-0.00034	-9e-05	-3e-05	-4e-05	4
17203	-2e-05	-2e-05	1e-05	-0.00013	1e-05	-0.00057	-3e-05	-1e-05	4
17204	-2e-05	-2e-05	1e-05	-0.00013	1e-05	-0.00057	-3e-05	-1e-05	4
17205	-5e-05	-6e-05	-5e-05	0.00049	-0.00026	-6e-05	-6e-05	-4e-05	4
17206	-5e-05	-6e-05	-5e-05	0.00049	-0.00026	-6e-05	-6e-05	-4e-05	4
17207	-5e-05	-6e-05	-5e-05	0.00049	-0.00026	-6e-05	-6e-05	-4e-05	4
17208	-5e-05	-6e-05	-5e-05	0.00049	-0.00026	-6e-05	-6e-05	-4e-05	4
17209	-5e-05	-6e-05	-5e-05	0.00049	-0.00026	-6e-05	-6e-05	-4e-05	4
17210	-5e-05	-6e-05	-5e-05	0.00049	-0.00026	-6e-05	-6e-05	-4e-05	4
17211	-5e-05	-6e-05	-5e-05	0.00049	-0.00026	-6e-05	-6e-05	-4e-05	4
17212	-5e-05	-6e-05	-5e-05	0.00049	-0.00026	-6e-05	-6e-05	-4e-05	4
17213	-5e-05	-6e-05	-5e-05	0.00049	-0.00026	-6e-05	-6e-05	-4e-05	4
17214	-5e-05	-6e-05	-5e-05	0.00049	-0.00026	-6e-05	-6e-05	-4e-05	4
17215	-5e-05	-6e-05	-5e-05	0.00049	-0.00026	-6e-05	-6e-05	-4e-05	4
17216	-5e-05	-6e-05	-5e-05	0.00049	-0.00026	-6e-05	-6e-05	-4e-05	4
17217	-5e-05	-6e-05	-5e-05	0.00049	-0.00026	-6e-05	-6e-05	-4e-05	4
17218	2e-05	9e-05	0.00018	0.00021	-0.00029	0.00013	8e-05	4e-05	4
17219	2e-05	9e-05	0.00018	0.00021	-0.00029	0.00013	8e-05	4e-05	4
17220	2e-05	9e-05	0.00018	0.00021	-0.00029	0.00013	8e-05	4e-05	4
17221	2e-05	9e-05	0.00018	0.00021	-0.00029	0.00013	8e-05	4e-05	4
17222	2e-05	9e-05	0.00018	0.00021	-0.00029	0.00013	8e-05	4e-05	4
17223	2e-05	9e-05	0.00018	0.00021	-0.00029	0.00013	8e-05	4e-05	4
17224	-2e-05	-2e-05	4e-05	0.00036	9e-05	3e-05	-7e-05	-2e-05	4
17225	3e-05	0	-2e-05	-6e-05	0.00082	0.00055	6e-05	4e-05	4
17226	3e-05	0	-2e-05	-6e-05	0.00082	0.00055	6e-05	4e-05	4
17227	3e-05	0	-2e-05	-6e-05	0.00082	0.00055	6e-05	4e-05	4
17228	3e-05	0	-2e-05	-6e-05	0.00082	0.00055	6e-05	4e-05	4
17229	3e-05	0	-2e-05	-6e-05	0.00082	0.00055	6e-05	4e-05	4
17230	3e-05	0	-2e-05	-6e-05	0.00082	0.00055	6e-05	4e-05	4
17231	3e-05	0	-2e-05	-6e-05	0.00082	0.00055	6e-05	4e-05	4
17232	3e-05	0	-2e-05	-6e-05	0.00082	0.00055	6e-05	4e-05	4
17233	3e-05	0	-2e-05	-6e-05	0.00082	0.00055	6e-05	4e-05	4
17234	3e-05	0	-2e-05	-6e-05	0.00082	0.00055	6e-05	4e-05	4
17235	3e-05	0	-2e-05	-6e-05	0.00082	0.00055	6e-05	4e-05	4
17236	3e-05	0	-2e-05	-6e-05	0.00082	0.00055	6e-05	4e-05	4
17238	3e-05	0	-2e-05	-6e-05	0.00082	0.00055	6e-05	4e-05	4
17239	3e-05	0	-2e-05	-6e-05	0.00082	0.00055	6e-05	4e-05	4
17240	3e-05	0	-2e-05	-6e-05	0.00082	0.00055	6e-05	4e-05	4
17241	3e-05	5e-05	0.00011	8e-05	0.0004	0.00015	0	1e-05	4
17242	-4e-05	-5e-05	-1e-05	-0.00039	4e-05	-2e-05	-8e-05	-5e-05	4
17243	-4e-05	-5e-05	-1e-05	-0.00039	4e-05	-2e-05	-8e-05	-5e-05	4
17244	-4e-05	-5e-05	-1e-05	-0.00039	4e-05	-2e-05	-8e-05	-5e-05	4
17245	-4e-05	-5e-05	-1e-05	-0.00039	4e-05	-2e-05	-8e-05	-5e-05	4
17246	-4e-05	-5e-05	-1e-05	-0.00039	4e-05	-2e-05	-8e-05	-5e-05	4
17247	-4e-05	-5e-05	-1e-05	-0.00039	4e-05	-2e-05	-8e-05	-5e-05	4
17248	-4e-05	-5e-05	-1e-05	-0.00039	4e-05	-2e-05	-8e-05	-5e-05	4
17249	-4e-05	-5e-05	-1e-05	-0.00039	4e-05	-2e-05	-8e-05	-5e-05	4
17250	-4e-05	-5e-05	-1e-05	-0.00039	4e-05	-2e-05	-8e-05	-5e-05	4
17251	-4e-05	-5e-05	-1e-05	-0.00039	4e-05	-2e-05	-8e-05	-5e-05	4
17252	-4e-05	-5e-05	-1e-05	-0.00039	4e-05	-2e-05	-8e-05	-5e-05	4
17253	-4e-05	-5e-05	-1e-05	-0.00039	4e-05	-2e-05	-8e-05	-5e-05	4
17254	-4e-05	-5e-05	-1e-05	-0.00039	4e-05	-2e-05	-8e-05	-5e-05	4
17255	-4e-05	-5e-05	-1e-05	-0.00039	4e-05	-2e-05	-8e-05	-5e-05	4
17256	-4e-05	-5e-05	-1e-05	-0.00039	4e-05	-2e-05	-8e-05	-5e-05	4
17257	-4e-05	-5e-05	-1e-05	-0.00039	4e-05	-2e-05	-8e-05	-5e-05	4
17258	-4e-05	-5e-05	-1e-05	-0.00039	4e-05	-2e-05	-8e-05	-5e-05	4
17259	-4e-05	-5e-05	-1e-05	-0.00039	4e-05	-2e-05	-8e-05	-5e-05	4
17260	-4e-05	-5e-05	-1e-05	-0.00039	4e-05	-2e-05	-8e-05	-5e-05	4
17261	-4e-05	-5e-05	-1e-05	-0.00039	4e-05	-2e-05	-8e-05	-5e-05	4
17262	-4e-05	-5e-05	-1e-05	-0.00039	4e-05	-2e-05	-8e-05	-5e-05	4
17263	-3e-05	-3e-05	-0.00011	-1e-05	-0.00029	8e-05	-2e-05	1e-05	4
17264	-6e-05	-0.00012	-0.00023	0.00011	0.00067	5e-05	-0.00012	-0.0001	4
17265	-5e-05	1e-05	-1e-05	-0.00027	-0.00074	-0.00023	-7e-05	-2e-05	4
17266	-5e-05	1e-05	-1e-05	-0.00027	-0.00074	-0.00023	-7e-05	-2e-05	4
17267	-5e-05	1e-05	-1e-05	-0.00027	-0.00074	-0.00023	-7e-05	-2e-05	4
17268	-5e-05	1e-05	-1e-05	-0.00027	-0.00074	-0.00023	-7e-05	-2e-05	4
17269	-5e-05	1e-05	-1e-05	-0.00027	-0.00074	-0.00023	-7e-05	-2e-05	4
17270	-5e-05	1e-05	-1e-05	-0.00027	-0.00074	-0.00023	-7e-05	-2e-05	4
17271	-5e-05	1e-05	-1e-05	-0.00027	-0.00074	-0.00023	-7e-05	-2e-05	4
17272	-5e-05	1e-05	-1e-05	-0.00027	-0.00074	-0.00023	-7e-05	-2e-05	4
17273	-5e-05	1e-05	-1e-05	-0.00027	-0.00074	-0.00023	-7e-05	-2e-05	4
17274	-5e-05	1e-05	-1e-05	-0.00027	-0.00074	-0.00023	-7e-05	-2e-05	4
17275	-5e-05	1e-05	-1e-05	-0.00027	-0.00074	-0.00023	-7e-05	-2e-05	4
17276	-5e-05	1e-05	-1e-05	-0.00027	-0.00074	-0.00023	-7e-05	-2e-05	4
17277	-5e-05	1e-05	-1e-05	-0.00027	-0.00074	-0.00023	-7e-05	-2e-05	4
17278	-8e-05	-0.00012	-0.00023	-0.0006	-0.00021	-0.0001	-0.0001	-8e-05	4
17279	-8e-05	-0.00012	-0.00023	-0.0006	-0.00021	-0.0001	-0.0001	-8e-05	4
17280	-8e-05	-0.00012	-0.00023	-0.0006	-0.00021	-0.0001	-0.0001	-8e-05	4
17281	-8e-05	-0.00012	-0.00023	-0.0006	-0.00021	-0.0001	-0.0001	-8e-05	4
17282	-8e-05	-0.00012	-0.00023	-0.0006	-0.00021	-0.0001	-0.0001	-8e-05	4
17283	-8e-05	-0.00012	-0.00023	-0.0006	-0.00021	-0.0001	-0.0001	-8e-05	4
17284	0	1e-05	2e-05	-0.00018	-0.00038	-1e-05	4e-05	1e-05	4
17285	-2e-05	-3e-05	-5e-05	0.00017	1e-05	-6e-05	-3e-05	-4e-05	4
17286	-2e-05	-3e-05	-5e-05	0.00017	1e-05	-6e-05	-3e-05	-4e-05	4
17288	-2e-05	-3e-05	-5e-05	0.00017	1e-05	-6e-05	-3e-05	-4e-05	4
17289	-2e-05	-3e-05	-5e-05	0.00017	1e-05	-6e-05	-3e-05	-4e-05	4
17290	-2e-05	-3e-05	-5e-05	0.00017	1e-05	-6e-05	-3e-05	-4e-05	4
17291	-2e-05	-3e-05	-5e-05	0.00017	1e-05	-6e-05	-3e-05	-4e-05	4
17292	-2e-05	-3e-05	-5e-05	0.00017	1e-05	-6e-05	-3e-05	-4e-05	4
17293	-2e-05	-3e-05	-5e-05	0.00017	1e-05	-6e-05	-3e-05	-4e-05	4
17294	-2e-05	-3e-05	-5e-05	0.00017	1e-05	-6e-05	-3e-05	-4e-05	4
17295	-2e-05	-3e-05	-5e-05	0.00017	1e-05	-6e-05	-3e-05	-4e-05	4
17296	-2e-05	-3e-05	-5e-05	0.00017	1e-05	-6e-05	-3e-05	-4e-05	4
17297	-2e-05	-3e-05	-5e-05	0.00017	1e-05	-6e-05	-3e-05	-4e-05	4
17298	-2e-05	-3e-05	-5e-05	0.00017	1e-05	-6e-05	-3e-05	-4e-05	4
17299	-2e-05	-3e-05	-5e-05	0.00017	1e-05	-6e-05	-3e-05	-4e-05	4
17300	-2e-05	-3e-05	-5e-05	0.00017	1e-05	-6e-05	-3e-05	-4e-05	4
17301	-1e-05	0	-1e-05	0.00024	-5e-05	-2e-05	-8e-05	-4e-05	4
17302	-6e-05	-0.00011	-0.00018	-0.0003	0.00018	-0.00015	-0.0001	-9e-05	4
17303	-3e-05	-5e-05	-5e-05	-2e-05	4e-05	-0.00017	-1e-05	-3e-05	4
17304	-3e-05	-5e-05	-5e-05	-2e-05	4e-05	-0.00017	-1e-05	-3e-05	4
17305	-3e-05	-5e-05	-5e-05	-2e-05	4e-05	-0.00017	-1e-05	-3e-05	4
17306	-3e-05	-5e-05	-5e-05	-2e-05	4e-05	-0.00017	-1e-05	-3e-05	4
17307	-3e-05	-5e-05	-5e-05	-2e-05	4e-05	-0.00017	-1e-05	-3e-05	4
17308	-3e-05	-5e-05	-5e-05	-2e-05	4e-05	-0.00017	-1e-05	-3e-05	4
17309	-3e-05	-5e-05	-5e-05	-2e-05	4e-05	-0.00017	-1e-05	-3e-05	4
17310	-3e-05	-5e-05	-5e-05	-2e-05	4e-05	-0.00017	-1e-05	-3e-05	4
17311	-3e-05	-5e-05	-5e-05	-2e-05	4e-05	-0.00017	-1e-05	-3e-05	4
17312	-3e-05	-5e-05	-5e-05	-2e-05	4e-05	-0.00017	-1e-05	-3e-05	4
17313	-3e-05	-5e-05	-5e-05	-2e-05	4e-05	-0.00017	-1e-05	-3e-05	4
17314	-3e-05	-5e-05	-5e-05	-2e-05	4e-05	-0.00017	-1e-05	-3e-05	4
17315	-3e-05	-5e-05	-5e-05	-2e-05	4e-05	-0.00017	-1e-05	-3e-05	4
17316	-3e-05	-5e-05	-5e-05	-2e-05	4e-05	-0.00017	-1e-05	-3e-05	4
17317	-3e-05	-5e-05	-5e-05	-2e-05	4e-05	-0.00017	-1e-05	-3e-05	4
17318	-3e-05	-5e-05	-5e-05	-2e-05	4e-05	-0.00017	-1e-05	-3e-05	4
17319	-3e-05	-5e-05	-5e-05	-2e-05	4e-05	-0.00017	-1e-05	-3e-05	4
17320	-3e-05	-5e-05	-5e-05	-2e-05	4e-05	-0.00017	-1e-05	-3e-05	4
17321	-3e-05	-5e-05	-5e-05	-2e-05	4e-05	-0.00017	-1e-05	-3e-05	4
17322	-3e-05	-5e-05	-5e-05	-2e-05	4e-05	-0.00017	-1e-05	-3e-05	4
17323	-6e-05	-8e-05	-8e-05	-9e-05	0.00025	-0.00021	-5e-05	-3e-05	4
17324	-5e-05	-6e-05	-0.0001	-4e-05	0.00047	-7e-05	-4e-05	-1e-05	4
17325	-3e-05	2e-05	8e-05	0.00065	0.00093	-4e-05	-4e-05	-3e-05	4
17326	-3e-05	2e-05	8e-05	0.00065	0.00093	-4e-05	-4e-05	-3e-05	4
17327	-3e-05	2e-05	8e-05	0.00065	0.00093	-4e-05	-4e-05	-3e-05	4
17328	-3e-05	2e-05	8e-05	0.00065	0.00093	-4e-05	-4e-05	-3e-05	4
17329	-3e-05	2e-05	8e-05	0.00065	0.00093	-4e-05	-4e-05	-3e-05	4
17330	-3e-05	2e-05	8e-05	0.00065	0.00093	-4e-05	-4e-05	-3e-05	4
17331	-3e-05	2e-05	8e-05	0.00065	0.00093	-4e-05	-4e-05	-3e-05	4
17332	-3e-05	2e-05	8e-05	0.00065	0.00093	-4e-05	-4e-05	-3e-05	4
17333	-3e-05	2e-05	8e-05	0.00065	0.00093	-4e-05	-4e-05	-3e-05	4
17334	-3e-05	2e-05	8e-05	0.00065	0.00093	-4e-05	-4e-05	-3e-05	4
17335	-3e-05	2e-05	8e-05	0.00065	0.00093	-4e-05	-4e-05	-3e-05	4
17336	-3e-05	2e-05	8e-05	0.00065	0.00093	-4e-05	-4e-05	-3e-05	4
17338	-1e-05	1e-05	2e-05	-3e-05	-0.00057	7e-05	4e-05	1e-05	4
17339	-1e-05	1e-05	2e-05	-3e-05	-0.00057	7e-05	4e-05	1e-05	4
17340	-1e-05	1e-05	2e-05	-3e-05	-0.00057	7e-05	4e-05	1e-05	4
17341	-1e-05	1e-05	2e-05	-3e-05	-0.00057	7e-05	4e-05	1e-05	4
17342	-1e-05	1e-05	2e-05	-3e-05	-0.00057	7e-05	4e-05	1e-05	4
17343	-1e-05	1e-05	2e-05	-3e-05	-0.00057	7e-05	4e-05	1e-05	4
17344	-1e-05	1e-05	2e-05	-3e-05	-0.00057	7e-05	4e-05	1e-05	4
17345	-1e-05	1e-05	2e-05	-3e-05	-0.00057	7e-05	4e-05	1e-05	4
17346	3e-05	-2e-05	1e-05	0.00033	0.00015	-0.00023	-5e-05	-2e-05	4
17347	3e-05	-2e-05	1e-05	0.00033	0.00015	-0.00023	-5e-05	-2e-05	4
17348	3e-05	-2e-05	1e-05	0.00033	0.00015	-0.00023	-5e-05	-2e-05	4
17350	3e-05	-2e-05	1e-05	0.00033	0.00015	-0.00023	-5e-05	-2e-05	4
17351	3e-05	-2e-05	1e-05	0.00033	0.00015	-0.00023	-5e-05	-2e-05	4
17352	3e-05	-2e-05	1e-05	0.00033	0.00015	-0.00023	-5e-05	-2e-05	4
17353	3e-05	-2e-05	1e-05	0.00033	0.00015	-0.00023	-5e-05	-2e-05	4
17354	3e-05	-2e-05	1e-05	0.00033	0.00015	-0.00023	-5e-05	-2e-05	4
17355	3e-05	-2e-05	1e-05	0.00033	0.00015	-0.00023	-5e-05	-2e-05	4
17356	3e-05	-2e-05	1e-05	0.00033	0.00015	-0.00023	-5e-05	-2e-05	4
17357	3e-05	-2e-05	1e-05	0.00033	0.00015	-0.00023	-5e-05	-2e-05	4
17358	3e-05	-2e-05	1e-05	0.00033	0.00015	-0.00023	-5e-05	-2e-05	4
17359	3e-05	-2e-05	1e-05	0.00033	0.00015	-0.00023	-5e-05	-2e-05	4
17360	3e-05	-2e-05	1e-05	0.00033	0.00015	-0.00023	-5e-05	-2e-05	4
17361	4e-05	0	7e-05	0.00017	3e-05	1e-05	2e-05	1e-05	4
17362	1e-05	-4e-05	-0.0001	-0.00057	-0.00064	0.0001	3e-05	1e-05	4
17363	-2e-05	1e-05	-5e-05	-0.00059	-0.00094	-0.00011	-5e-05	0	4
17364	-2e-05	1e-05	-5e-05	-0.00059	-0.00094	-0.00011	-5e-05	0	4
17365	-2e-05	1e-05	-5e-05	-0.00059	-0.00094	-0.00011	-5e-05	0	4
17366	-2e-05	1e-05	-5e-05	-0.00059	-0.00094	-0.00011	-5e-05	0	4
17367	-2e-05	1e-05	-5e-05	-0.00059	-0.00094	-0.00011	-5e-05	0	4
17368	-2e-05	1e-05	-5e-05	-0.00059	-0.00094	-0.00011	-5e-05	0	4
17369	-2e-05	1e-05	-5e-05	-0.00059	-0.00094	-0.00011	-5e-05	0	4
17370	-2e-05	1e-05	-5e-05	-0.00059	-0.00094	-0.00011	-5e-05	0	4
17371	-2e-05	1e-05	-5e-05	-0.00059	-0.00094	-0.00011	-5e-05	0	4
17372	-2e-05	1e-05	-5e-05	-0.00059	-0.00094	-0.00011	-5e-05	0	4
17373	-2e-05	1e-05	-5e-05	-0.00059	-0.00094	-0.00011	-5e-05	0	4
17374	-2e-05	1e-05	-5e-05	-0.00059	-0.00094	-0.00011	-5e-05	0	4
17375	-2e-05	1e-05	-5e-05	-0.00059	-0.00094	-0.00011	-5e-05	0	4
17376	-2e-05	1e-05	-5e-05	-0.00059	-0.00094	-0.00011	-5e-05	0	4
17377	-2e-05	1e-05	-5e-05	-0.00059	-0.00094	-0.00011	-5e-05	0	4
17378	-2e-05	1e-05	-5e-05	-0.00059	-0.00094	-0.00011	-5e-05	0	4
17379	-2e-05	1e-05	-5e-05	-0.00059	-0.00094	-0.00011	-5e-05	0	4
17380	-2e-05	1e-05	-5e-05	-0.00059	-0.00094	-0.00011	-5e-05	0	4
17381	-2e-05	1e-05	-5e-05	-0.00059	-0.00094	-0.00011	-5e-05	0	4
17382	-2e-05	1e-05	-5e-05	-0.00059	-0.00094	-0.00011	-5e-05	0	4
17383	-2e-05	1e-05	-5e-05	-0.00059	-0.00094	-0.00011	-5e-05	0	4
17384	-5e-05	-7e-05	-0.0001	-0.00042	-0.0006	-0.00022	-0.0001	-7e-05	4
17385	-3e-05	-4e-05	-4e-05	0.00039	-0.00056	0.00032	-5e-05	-5e-05	4
17386	-1e-05	-1e-05	-6e-05	-0.00018	2e-05	0.00011	3e-05	2e-05	4
17388	-1e-05	-1e-05	-6e-05	-0.00018	2e-05	0.00011	3e-05	2e-05	4
17389	-1e-05	-1e-05	-6e-05	-0.00018	2e-05	0.00011	3e-05	2e-05	4
17390	-1e-05	-1e-05	-6e-05	-0.00018	2e-05	0.00011	3e-05	2e-05	4
17391	-1e-05	-1e-05	-6e-05	-0.00018	2e-05	0.00011	3e-05	2e-05	4
17392	-1e-05	-1e-05	-6e-05	-0.00018	2e-05	0.00011	3e-05	2e-05	4
17393	-1e-05	-1e-05	-6e-05	-0.00018	2e-05	0.00011	3e-05	2e-05	4
17394	-1e-05	-1e-05	-6e-05	-0.00018	2e-05	0.00011	3e-05	2e-05	4
17395	-1e-05	-1e-05	-6e-05	-0.00018	2e-05	0.00011	3e-05	2e-05	4
17396	-1e-05	-1e-05	-6e-05	-0.00018	2e-05	0.00011	3e-05	2e-05	4
17397	9e-05	0.00017	0.00021	-0.00032	-0.00025	0.00038	0.00018	0.00012	4
17398	9e-05	0.00017	0.00021	-0.00032	-0.00025	0.00038	0.00018	0.00012	4
17399	9e-05	0.00017	0.00021	-0.00032	-0.00025	0.00038	0.00018	0.00012	4
17400	9e-05	0.00017	0.00021	-0.00032	-0.00025	0.00038	0.00018	0.00012	4
17401	9e-05	0.00017	0.00021	-0.00032	-0.00025	0.00038	0.00018	0.00012	4
17402	9e-05	0.00017	0.00021	-0.00032	-0.00025	0.00038	0.00018	0.00012	4
17403	9e-05	0.00017	0.00021	-0.00032	-0.00025	0.00038	0.00018	0.00012	4
17404	9e-05	0.00017	0.00021	-0.00032	-0.00025	0.00038	0.00018	0.00012	4
17405	9e-05	0.00017	0.00021	-0.00032	-0.00025	0.00038	0.00018	0.00012	4
17406	9e-05	6e-05	7e-05	0.00041	0.00033	0.00041	0.00019	9e-05	4
17407	9e-05	6e-05	7e-05	0.00041	0.00033	0.00041	0.00019	9e-05	4
17408	9e-05	6e-05	7e-05	0.00041	0.00033	0.00041	0.00019	9e-05	4
17409	9e-05	6e-05	7e-05	0.00041	0.00033	0.00041	0.00019	9e-05	4
17410	9e-05	6e-05	7e-05	0.00041	0.00033	0.00041	0.00019	9e-05	4
17411	9e-05	6e-05	7e-05	0.00041	0.00033	0.00041	0.00019	9e-05	4
17412	9e-05	6e-05	7e-05	0.00041	0.00033	0.00041	0.00019	9e-05	4
17413	9e-05	6e-05	7e-05	0.00041	0.00033	0.00041	0.00019	9e-05	4
17414	9e-05	6e-05	7e-05	0.00041	0.00033	0.00041	0.00019	9e-05	4
17415	9e-05	6e-05	7e-05	0.00041	0.00033	0.00041	0.00019	9e-05	4
17416	9e-05	6e-05	7e-05	0.00041	0.00033	0.00041	0.00019	9e-05	4
17417	9e-05	6e-05	7e-05	0.00041	0.00033	0.00041	0.00019	9e-05	4
17418	9e-05	6e-05	7e-05	0.00041	0.00033	0.00041	0.00019	9e-05	4
17419	9e-05	6e-05	7e-05	0.00041	0.00033	0.00041	0.00019	9e-05	4
17420	9e-05	6e-05	7e-05	0.00041	0.00033	0.00041	0.00019	9e-05	4
17421	-3e-05	-8e-05	-0.0001	-0.00013	-0.00012	-0.00017	-9e-05	-7e-05	4
17422	-5e-05	-3e-05	-0.0001	-1e-05	-0.00015	-0.00018	-1e-05	-2e-05	4
17423	3e-05	7e-05	0.00012	-4e-05	-0.00023	9e-05	5e-05	3e-05	4
17424	3e-05	7e-05	0.00012	-4e-05	-0.00023	9e-05	5e-05	3e-05	4
17425	3e-05	7e-05	0.00012	-4e-05	-0.00023	9e-05	5e-05	3e-05	4
17426	3e-05	7e-05	0.00012	-4e-05	-0.00023	9e-05	5e-05	3e-05	4
17427	3e-05	7e-05	0.00012	-4e-05	-0.00023	9e-05	5e-05	3e-05	4
17428	3e-05	7e-05	0.00012	-4e-05	-0.00023	9e-05	5e-05	3e-05	4
17429	3e-05	7e-05	0.00012	-4e-05	-0.00023	9e-05	5e-05	3e-05	4
17430	3e-05	7e-05	0.00012	-4e-05	-0.00023	9e-05	5e-05	3e-05	4
17431	3e-05	7e-05	0.00012	-4e-05	-0.00023	9e-05	5e-05	3e-05	4
17432	3e-05	7e-05	0.00012	-4e-05	-0.00023	9e-05	5e-05	3e-05	4
17433	3e-05	7e-05	0.00012	-4e-05	-0.00023	9e-05	5e-05	3e-05	4
17434	3e-05	7e-05	0.00012	-4e-05	-0.00023	9e-05	5e-05	3e-05	4
17435	3e-05	7e-05	0.00012	-4e-05	-0.00023	9e-05	5e-05	3e-05	4
17436	3e-05	7e-05	0.00012	-4e-05	-0.00023	9e-05	5e-05	3e-05	4
17438	3e-05	7e-05	0.00012	-4e-05	-0.00023	9e-05	5e-05	3e-05	4
17439	3e-05	7e-05	0.00012	-4e-05	-0.00023	9e-05	5e-05	3e-05	4
17440	3e-05	7e-05	0.00012	-4e-05	-0.00023	9e-05	5e-05	3e-05	4
17441	3e-05	7e-05	0.00012	-4e-05	-0.00023	9e-05	5e-05	3e-05	4
17443	-4e-05	-4e-05	-8e-05	0.00018	-9e-05	0.00013	-3e-05	-3e-05	4
17444	-4e-05	-4e-05	-8e-05	0.00018	-9e-05	0.00013	-3e-05	-3e-05	4
17445	-1e-05	-2e-05	-7e-05	1e-05	-0.00051	-8e-05	-2e-05	-2e-05	4
17446	-1e-05	-2e-05	-7e-05	1e-05	-0.00051	-8e-05	-2e-05	-2e-05	4
17447	-1e-05	-2e-05	-7e-05	1e-05	-0.00051	-8e-05	-2e-05	-2e-05	4
17448	-1e-05	-2e-05	-7e-05	1e-05	-0.00051	-8e-05	-2e-05	-2e-05	4
17449	-1e-05	-2e-05	-7e-05	1e-05	-0.00051	-8e-05	-2e-05	-2e-05	4
17450	-1e-05	-2e-05	-7e-05	1e-05	-0.00051	-8e-05	-2e-05	-2e-05	4
17451	-1e-05	-2e-05	-7e-05	1e-05	-0.00051	-8e-05	-2e-05	-2e-05	4
17452	-1e-05	-2e-05	-7e-05	1e-05	-0.00051	-8e-05	-2e-05	-2e-05	4
17453	-1e-05	-2e-05	-7e-05	1e-05	-0.00051	-8e-05	-2e-05	-2e-05	4
17454	-1e-05	-2e-05	-7e-05	1e-05	-0.00051	-8e-05	-2e-05	-2e-05	4
17455	-1e-05	-2e-05	-7e-05	1e-05	-0.00051	-8e-05	-2e-05	-2e-05	4
17456	-1e-05	-2e-05	-7e-05	1e-05	-0.00051	-8e-05	-2e-05	-2e-05	4
17457	-2e-05	-2e-05	0	2e-05	0.00029	-6e-05	-6e-05	-6e-05	4
17458	-2e-05	-2e-05	0	2e-05	0.00029	-6e-05	-6e-05	-6e-05	4
17459	-2e-05	-2e-05	0	2e-05	0.00029	-6e-05	-6e-05	-6e-05	4
17460	-2e-05	-2e-05	0	2e-05	0.00029	-6e-05	-6e-05	-6e-05	4
17461	-2e-05	-2e-05	0	2e-05	0.00029	-6e-05	-6e-05	-6e-05	4
17462	-2e-05	-2e-05	0	2e-05	0.00029	-6e-05	-6e-05	-6e-05	4
17463	-2e-05	-2e-05	0	2e-05	0.00029	-6e-05	-6e-05	-6e-05	4
17464	-2e-05	-2e-05	0	2e-05	0.00029	-6e-05	-6e-05	-6e-05	4
17465	-3e-05	-3e-05	1e-05	0.0006	0.0004	-0.00022	-0.00014	-6e-05	4
17467	-1e-05	-5e-05	-0.00011	-0.00098	-0.00044	-2e-05	0.0001	-1e-05	4
17468	-1e-05	-5e-05	-0.00011	-0.00098	-0.00044	-2e-05	0.0001	-1e-05	4
17469	-1e-05	-5e-05	-0.00011	-0.00098	-0.00044	-2e-05	0.0001	-1e-05	4
17470	-1e-05	-5e-05	-0.00011	-0.00098	-0.00044	-2e-05	0.0001	-1e-05	4
17471	-1e-05	-5e-05	-0.00011	-0.00098	-0.00044	-2e-05	0.0001	-1e-05	4
17472	-1e-05	-5e-05	-0.00011	-0.00098	-0.00044	-2e-05	0.0001	-1e-05	4
17473	-1e-05	-5e-05	-0.00011	-0.00098	-0.00044	-2e-05	0.0001	-1e-05	4
17474	-1e-05	-5e-05	-0.00011	-0.00098	-0.00044	-2e-05	0.0001	-1e-05	4
17475	-1e-05	-5e-05	-0.00011	-0.00098	-0.00044	-2e-05	0.0001	-1e-05	4
17476	-1e-05	-5e-05	-0.00011	-0.00098	-0.00044	-2e-05	0.0001	-1e-05	4
17477	-1e-05	-5e-05	-0.00011	-0.00098	-0.00044	-2e-05	0.0001	-1e-05	4
17478	-1e-05	-5e-05	-0.00011	-0.00098	-0.00044	-2e-05	0.0001	-1e-05	4
17479	-1e-05	-5e-05	-0.00011	-0.00098	-0.00044	-2e-05	0.0001	-1e-05	4
17480	-1e-05	-5e-05	-0.00011	-0.00098	-0.00044	-2e-05	0.0001	-1e-05	4
17481	-1e-05	-1e-05	-1e-05	0.00034	0.00064	-0.00032	0.00011	3e-05	4
17482	-5e-05	-4e-05	0.00012	0.00092	0.00064	-3e-05	-8e-05	-3e-05	4
17483	-5e-05	-4e-05	0.00012	0.00092	0.00064	-3e-05	-8e-05	-3e-05	4
17484	-5e-05	-4e-05	0.00012	0.00092	0.00064	-3e-05	-8e-05	-3e-05	4
17485	-5e-05	-4e-05	0.00012	0.00092	0.00064	-3e-05	-8e-05	-3e-05	4
17486	-5e-05	-4e-05	0.00012	0.00092	0.00064	-3e-05	-8e-05	-3e-05	4
17488	-5e-05	-4e-05	0.00012	0.00092	0.00064	-3e-05	-8e-05	-3e-05	4
17489	-5e-05	-4e-05	0.00012	0.00092	0.00064	-3e-05	-8e-05	-3e-05	4
17490	-5e-05	-4e-05	0.00012	0.00092	0.00064	-3e-05	-8e-05	-3e-05	4
17491	-5e-05	-4e-05	0.00012	0.00092	0.00064	-3e-05	-8e-05	-3e-05	4
17492	-5e-05	-4e-05	0.00012	0.00092	0.00064	-3e-05	-8e-05	-3e-05	4
17493	-5e-05	-4e-05	0.00012	0.00092	0.00064	-3e-05	-8e-05	-3e-05	4
17494	-5e-05	-4e-05	0.00012	0.00092	0.00064	-3e-05	-8e-05	-3e-05	4
17495	-5e-05	-4e-05	0.00012	0.00092	0.00064	-3e-05	-8e-05	-3e-05	4
17496	-5e-05	-4e-05	0.00012	0.00092	0.00064	-3e-05	-8e-05	-3e-05	4
17497	-5e-05	-4e-05	0.00012	0.00092	0.00064	-3e-05	-8e-05	-3e-05	4
17498	-5e-05	-4e-05	0.00012	0.00092	0.00064	-3e-05	-8e-05	-3e-05	4
17499	-5e-05	-4e-05	0.00012	0.00092	0.00064	-3e-05	-8e-05	-3e-05	4
17500	-5e-05	-4e-05	0.00012	0.00092	0.00064	-3e-05	-8e-05	-3e-05	4
17501	-5e-05	-4e-05	0.00012	0.00092	0.00064	-3e-05	-8e-05	-3e-05	4
17502	-5e-05	-4e-05	0.00012	0.00092	0.00064	-3e-05	-8e-05	-3e-05	4
17503	-6e-05	-0.00015	-0.00028	-0.00048	-0.0002	-0.00025	-0.00011	-0.0001	4
17504	-6e-05	-0.00015	-0.00028	-0.00048	-0.0002	-0.00025	-0.00011	-0.0001	4
17505	-2e-05	2e-05	3e-05	0.00029	0.00029	-0.00027	0	-4e-05	4
17506	-2e-05	2e-05	3e-05	0.00029	0.00029	-0.00027	0	-4e-05	4
17507	-2e-05	2e-05	3e-05	0.00029	0.00029	-0.00027	0	-4e-05	4
17508	-2e-05	2e-05	3e-05	0.00029	0.00029	-0.00027	0	-4e-05	4
17509	-2e-05	2e-05	3e-05	0.00029	0.00029	-0.00027	0	-4e-05	4
17510	-2e-05	2e-05	3e-05	0.00029	0.00029	-0.00027	0	-4e-05	4
17511	-2e-05	2e-05	3e-05	0.00029	0.00029	-0.00027	0	-4e-05	4
17512	-2e-05	2e-05	3e-05	0.00029	0.00029	-0.00027	0	-4e-05	4
17513	-2e-05	2e-05	3e-05	0.00029	0.00029	-0.00027	0	-4e-05	4
17514	-2e-05	2e-05	3e-05	0.00029	0.00029	-0.00027	0	-4e-05	4
17515	-2e-05	2e-05	3e-05	0.00029	0.00029	-0.00027	0	-4e-05	4
17516	-2e-05	2e-05	3e-05	0.00029	0.00029	-0.00027	0	-4e-05	4
17517	-7e-05	-9e-05	-4e-05	0.00015	0.00047	-0.00011	-7e-05	-5e-05	4
17518	0	3e-05	2e-05	-0.00038	-0.00016	6e-05	-1e-05	0	4
17519	0	3e-05	2e-05	-0.00038	-0.00016	6e-05	-1e-05	0	4
17520	0	3e-05	2e-05	-0.00038	-0.00016	6e-05	-1e-05	0	4
17521	0	3e-05	2e-05	-0.00038	-0.00016	6e-05	-1e-05	0	4
17522	0	3e-05	2e-05	-0.00038	-0.00016	6e-05	-1e-05	0	4
17523	0	3e-05	2e-05	-0.00038	-0.00016	6e-05	-1e-05	0	4
17524	0	3e-05	2e-05	-0.00038	-0.00016	6e-05	-1e-05	0	4
17525	0	3e-05	2e-05	-0.00038	-0.00016	6e-05	-1e-05	0	4
17526	5e-05	7e-05	9e-05	0.00023	0.00042	0.00024	5e-05	3e-05	4
17527	5e-05	7e-05	9e-05	0.00023	0.00042	0.00024	5e-05	3e-05	4
17528	5e-05	7e-05	9e-05	0.00023	0.00042	0.00024	5e-05	3e-05	4
17529	5e-05	7e-05	9e-05	0.00023	0.00042	0.00024	5e-05	3e-05	4
17530	5e-05	7e-05	9e-05	0.00023	0.00042	0.00024	5e-05	3e-05	4
17531	5e-05	7e-05	9e-05	0.00023	0.00042	0.00024	5e-05	3e-05	4
17532	5e-05	7e-05	9e-05	0.00023	0.00042	0.00024	5e-05	3e-05	4
17533	5e-05	7e-05	9e-05	0.00023	0.00042	0.00024	5e-05	3e-05	4
17534	5e-05	7e-05	9e-05	0.00023	0.00042	0.00024	5e-05	3e-05	4
17535	5e-05	7e-05	9e-05	0.00023	0.00042	0.00024	5e-05	3e-05	4
17536	5e-05	7e-05	9e-05	0.00023	0.00042	0.00024	5e-05	3e-05	4
17538	5e-05	7e-05	9e-05	0.00023	0.00042	0.00024	5e-05	3e-05	4
17539	5e-05	7e-05	9e-05	0.00023	0.00042	0.00024	5e-05	3e-05	4
17540	5e-05	7e-05	9e-05	0.00023	0.00042	0.00024	5e-05	3e-05	4
17541	1e-05	2e-05	-5e-05	-0.00051	-0.00016	0.00016	4e-05	2e-05	4
17542	-1e-05	0	-1e-05	-0.00037	-0.00073	2e-05	-7e-05	-2e-05	4
17543	-1e-05	0	-1e-05	-0.00037	-0.00073	2e-05	-7e-05	-2e-05	4
17544	-1e-05	0	-1e-05	-0.00037	-0.00073	2e-05	-7e-05	-2e-05	4
17545	-1e-05	0	-1e-05	-0.00037	-0.00073	2e-05	-7e-05	-2e-05	4
17546	-1e-05	0	-1e-05	-0.00037	-0.00073	2e-05	-7e-05	-2e-05	4
17547	-1e-05	0	-1e-05	-0.00037	-0.00073	2e-05	-7e-05	-2e-05	4
17548	-1e-05	0	-1e-05	-0.00037	-0.00073	2e-05	-7e-05	-2e-05	4
17549	-1e-05	0	-1e-05	-0.00037	-0.00073	2e-05	-7e-05	-2e-05	4
17550	-1e-05	0	-1e-05	-0.00037	-0.00073	2e-05	-7e-05	-2e-05	4
17551	-1e-05	0	-1e-05	-0.00037	-0.00073	2e-05	-7e-05	-2e-05	4
17552	-1e-05	0	-1e-05	-0.00037	-0.00073	2e-05	-7e-05	-2e-05	4
17553	-1e-05	0	-1e-05	-0.00037	-0.00073	2e-05	-7e-05	-2e-05	4
17554	-1e-05	0	-1e-05	-0.00037	-0.00073	2e-05	-7e-05	-2e-05	4
17555	-1e-05	0	-1e-05	-0.00037	-0.00073	2e-05	-7e-05	-2e-05	4
17556	-1e-05	0	-1e-05	-0.00037	-0.00073	2e-05	-7e-05	-2e-05	4
17557	-1e-05	0	-1e-05	-0.00037	-0.00073	2e-05	-7e-05	-2e-05	4
17558	-1e-05	0	-1e-05	-0.00037	-0.00073	2e-05	-7e-05	-2e-05	4
17559	-1e-05	0	-1e-05	-0.00037	-0.00073	2e-05	-7e-05	-2e-05	4
17560	-1e-05	0	-1e-05	-0.00037	-0.00073	2e-05	-7e-05	-2e-05	4
17561	-1e-05	0	-1e-05	-0.00037	-0.00073	2e-05	-7e-05	-2e-05	4
17562	-1e-05	0	-1e-05	-0.00037	-0.00073	2e-05	-7e-05	-2e-05	4
17563	3e-05	4e-05	0.0001	0.00033	0.00068	0.00022	6e-05	3e-05	4
17564	3e-05	4e-05	0.0001	0.00033	0.00068	0.00022	6e-05	3e-05	4
17565	-2e-05	-2e-05	-5e-05	-0.00034	-0.00091	0	-4e-05	-2e-05	4
17566	-2e-05	-2e-05	-5e-05	-0.00034	-0.00091	0	-4e-05	-2e-05	4
17567	-2e-05	-2e-05	-5e-05	-0.00034	-0.00091	0	-4e-05	-2e-05	4
17568	-2e-05	-2e-05	-5e-05	-0.00034	-0.00091	0	-4e-05	-2e-05	4
17569	-2e-05	-2e-05	-5e-05	-0.00034	-0.00091	0	-4e-05	-2e-05	4
17570	-2e-05	-2e-05	-5e-05	-0.00034	-0.00091	0	-4e-05	-2e-05	4
17571	-2e-05	-2e-05	-5e-05	-0.00034	-0.00091	0	-4e-05	-2e-05	4
17572	-2e-05	-2e-05	-5e-05	-0.00034	-0.00091	0	-4e-05	-2e-05	4
17573	-2e-05	-2e-05	-5e-05	-0.00034	-0.00091	0	-4e-05	-2e-05	4
17574	-2e-05	-2e-05	-5e-05	-0.00034	-0.00091	0	-4e-05	-2e-05	4
17575	-2e-05	-2e-05	-5e-05	-0.00034	-0.00091	0	-4e-05	-2e-05	4
17576	-2e-05	-2e-05	-5e-05	-0.00034	-0.00091	0	-4e-05	-2e-05	4
17577	1e-05	2e-05	3e-05	5e-05	-0.00038	-8e-05	2e-05	0	4
17578	1e-05	2e-05	3e-05	5e-05	-0.00038	-8e-05	2e-05	0	4
17579	1e-05	2e-05	3e-05	5e-05	-0.00038	-8e-05	2e-05	0	4
17580	1e-05	2e-05	3e-05	5e-05	-0.00038	-8e-05	2e-05	0	4
17581	1e-05	2e-05	3e-05	5e-05	-0.00038	-8e-05	2e-05	0	4
17582	1e-05	2e-05	3e-05	5e-05	-0.00038	-8e-05	2e-05	0	4
17583	1e-05	2e-05	3e-05	5e-05	-0.00038	-8e-05	2e-05	0	4
17584	1e-05	2e-05	3e-05	5e-05	-0.00038	-8e-05	2e-05	0	4
17585	1e-05	2e-05	3e-05	5e-05	-0.00038	-8e-05	2e-05	0	4
17586	-1e-05	-2e-05	-2e-05	8e-05	-2e-05	-0.0001	-7e-05	-3e-05	4
17588	-1e-05	-2e-05	-2e-05	8e-05	-2e-05	-0.0001	-7e-05	-3e-05	4
17589	-1e-05	-2e-05	-2e-05	8e-05	-2e-05	-0.0001	-7e-05	-3e-05	4
17590	-1e-05	-2e-05	-2e-05	8e-05	-2e-05	-0.0001	-7e-05	-3e-05	4
17591	-1e-05	-2e-05	-2e-05	8e-05	-2e-05	-0.0001	-7e-05	-3e-05	4
17592	-1e-05	-2e-05	-2e-05	8e-05	-2e-05	-0.0001	-7e-05	-3e-05	4
17593	-1e-05	-2e-05	-2e-05	8e-05	-2e-05	-0.0001	-7e-05	-3e-05	4
17594	-1e-05	-2e-05	-2e-05	8e-05	-2e-05	-0.0001	-7e-05	-3e-05	4
17595	-1e-05	-2e-05	-2e-05	8e-05	-2e-05	-0.0001	-7e-05	-3e-05	4
17596	-1e-05	-2e-05	-2e-05	8e-05	-2e-05	-0.0001	-7e-05	-3e-05	4
17597	-1e-05	-2e-05	-2e-05	8e-05	-2e-05	-0.0001	-7e-05	-3e-05	4
17598	-1e-05	-2e-05	-2e-05	8e-05	-2e-05	-0.0001	-7e-05	-3e-05	4
17599	-1e-05	-2e-05	-2e-05	8e-05	-2e-05	-0.0001	-7e-05	-3e-05	4
17600	-1e-05	-2e-05	-2e-05	8e-05	-2e-05	-0.0001	-7e-05	-3e-05	4
17601	0	2e-05	6e-05	4e-05	-0.00012	-6e-05	-6e-05	-1e-05	4
17602	0	-1e-05	1e-05	0.00011	0.00081	-8e-05	-2e-05	0	4
17603	3e-05	1e-05	-2e-05	-0.00015	-1e-05	0.00016	7e-05	4e-05	4
17604	3e-05	1e-05	-2e-05	-0.00015	-1e-05	0.00016	7e-05	4e-05	4
17605	3e-05	1e-05	-2e-05	-0.00015	-1e-05	0.00016	7e-05	4e-05	4
17606	3e-05	1e-05	-2e-05	-0.00015	-1e-05	0.00016	7e-05	4e-05	4
17607	3e-05	1e-05	-2e-05	-0.00015	-1e-05	0.00016	7e-05	4e-05	4
17608	3e-05	1e-05	-2e-05	-0.00015	-1e-05	0.00016	7e-05	4e-05	4
17609	3e-05	1e-05	-2e-05	-0.00015	-1e-05	0.00016	7e-05	4e-05	4
17610	3e-05	1e-05	-2e-05	-0.00015	-1e-05	0.00016	7e-05	4e-05	4
17611	3e-05	1e-05	-2e-05	-0.00015	-1e-05	0.00016	7e-05	4e-05	4
17612	3e-05	1e-05	-2e-05	-0.00015	-1e-05	0.00016	7e-05	4e-05	4
17613	3e-05	1e-05	-2e-05	-0.00015	-1e-05	0.00016	7e-05	4e-05	4
17614	3e-05	1e-05	-2e-05	-0.00015	-1e-05	0.00016	7e-05	4e-05	4
17615	3e-05	1e-05	-2e-05	-0.00015	-1e-05	0.00016	7e-05	4e-05	4
17616	3e-05	1e-05	-2e-05	-0.00015	-1e-05	0.00016	7e-05	4e-05	4
17617	3e-05	1e-05	-2e-05	-0.00015	-1e-05	0.00016	7e-05	4e-05	4
17618	3e-05	1e-05	-2e-05	-0.00015	-1e-05	0.00016	7e-05	4e-05	4
17619	3e-05	1e-05	-2e-05	-0.00015	-1e-05	0.00016	7e-05	4e-05	4
17620	3e-05	1e-05	-2e-05	-0.00015	-1e-05	0.00016	7e-05	4e-05	4
17621	3e-05	1e-05	-2e-05	-0.00015	-1e-05	0.00016	7e-05	4e-05	4
17622	3e-05	1e-05	-2e-05	-0.00015	-1e-05	0.00016	7e-05	4e-05	4
17623	3e-05	5e-05	0.00015	0.00041	0.00052	0.00057	-1e-05	3e-05	4
17624	3e-05	5e-05	0.00015	0.00041	0.00052	0.00057	-1e-05	3e-05	4
17625	-6e-05	-0.0001	-0.00024	-0.00099	0.00034	-7e-05	-0.0001	-6e-05	4
17626	-6e-05	-0.0001	-0.00024	-0.00099	0.00034	-7e-05	-0.0001	-6e-05	4
17627	-6e-05	-0.0001	-0.00024	-0.00099	0.00034	-7e-05	-0.0001	-6e-05	4
17628	-6e-05	-0.0001	-0.00024	-0.00099	0.00034	-7e-05	-0.0001	-6e-05	4
17629	-6e-05	-0.0001	-0.00024	-0.00099	0.00034	-7e-05	-0.0001	-6e-05	4
17630	-6e-05	-0.0001	-0.00024	-0.00099	0.00034	-7e-05	-0.0001	-6e-05	4
17631	-6e-05	-0.0001	-0.00024	-0.00099	0.00034	-7e-05	-0.0001	-6e-05	4
17632	-6e-05	-0.0001	-0.00024	-0.00099	0.00034	-7e-05	-0.0001	-6e-05	4
17633	-6e-05	-0.0001	-0.00024	-0.00099	0.00034	-7e-05	-0.0001	-6e-05	4
17634	-6e-05	-0.0001	-0.00024	-0.00099	0.00034	-7e-05	-0.0001	-6e-05	4
17635	-6e-05	-0.0001	-0.00024	-0.00099	0.00034	-7e-05	-0.0001	-6e-05	4
17636	-6e-05	-0.0001	-0.00024	-0.00099	0.00034	-7e-05	-0.0001	-6e-05	4
17638	2e-05	-3e-05	-2e-05	0.00011	0.00026	4e-05	-1e-05	1e-05	4
17639	2e-05	-3e-05	-2e-05	0.00011	0.00026	4e-05	-1e-05	1e-05	4
17640	2e-05	-3e-05	-2e-05	0.00011	0.00026	4e-05	-1e-05	1e-05	4
17641	2e-05	-3e-05	-2e-05	0.00011	0.00026	4e-05	-1e-05	1e-05	4
17642	2e-05	-3e-05	-2e-05	0.00011	0.00026	4e-05	-1e-05	1e-05	4
17643	2e-05	-3e-05	-2e-05	0.00011	0.00026	4e-05	-1e-05	1e-05	4
17644	2e-05	-3e-05	-2e-05	0.00011	0.00026	4e-05	-1e-05	1e-05	4
17645	2e-05	-3e-05	-2e-05	0.00011	0.00026	4e-05	-1e-05	1e-05	4
17646	-2e-05	-1e-05	-6e-05	-0.00048	-6e-05	0.00022	-6e-05	-2e-05	4
17647	-2e-05	-1e-05	-6e-05	-0.00048	-6e-05	0.00022	-6e-05	-2e-05	4
17648	-2e-05	-1e-05	-6e-05	-0.00048	-6e-05	0.00022	-6e-05	-2e-05	4
17649	-2e-05	-1e-05	-6e-05	-0.00048	-6e-05	0.00022	-6e-05	-2e-05	4
17650	-2e-05	-1e-05	-6e-05	-0.00048	-6e-05	0.00022	-6e-05	-2e-05	4
17651	-2e-05	-1e-05	-6e-05	-0.00048	-6e-05	0.00022	-6e-05	-2e-05	4
17652	-2e-05	-1e-05	-6e-05	-0.00048	-6e-05	0.00022	-6e-05	-2e-05	4
17653	-2e-05	-1e-05	-6e-05	-0.00048	-6e-05	0.00022	-6e-05	-2e-05	4
17654	-2e-05	-1e-05	-6e-05	-0.00048	-6e-05	0.00022	-6e-05	-2e-05	4
17655	-2e-05	-1e-05	-6e-05	-0.00048	-6e-05	0.00022	-6e-05	-2e-05	4
17656	-2e-05	-1e-05	-6e-05	-0.00048	-6e-05	0.00022	-6e-05	-2e-05	4
17657	-2e-05	-1e-05	-6e-05	-0.00048	-6e-05	0.00022	-6e-05	-2e-05	4
17658	-2e-05	-1e-05	-6e-05	-0.00048	-6e-05	0.00022	-6e-05	-2e-05	4
17659	-2e-05	-1e-05	-6e-05	-0.00048	-6e-05	0.00022	-6e-05	-2e-05	4
17660	-2e-05	-1e-05	-6e-05	-0.00048	-6e-05	0.00022	-6e-05	-2e-05	4
17661	0	-3e-05	-6e-05	-7e-05	0.00032	4e-05	2e-05	0	4
17662	0	-3e-05	-6e-05	-7e-05	0.00032	4e-05	2e-05	0	4
17663	1e-05	3e-05	0.0001	0.00073	0.00018	-0.00021	2e-05	-1e-05	4
17664	1e-05	3e-05	0.0001	0.00073	0.00018	-0.00021	2e-05	-1e-05	4
17665	1e-05	3e-05	0.0001	0.00073	0.00018	-0.00021	2e-05	-1e-05	4
17666	1e-05	3e-05	0.0001	0.00073	0.00018	-0.00021	2e-05	-1e-05	4
17667	1e-05	3e-05	0.0001	0.00073	0.00018	-0.00021	2e-05	-1e-05	4
17668	1e-05	3e-05	0.0001	0.00073	0.00018	-0.00021	2e-05	-1e-05	4
17669	1e-05	3e-05	0.0001	0.00073	0.00018	-0.00021	2e-05	-1e-05	4
17670	1e-05	3e-05	0.0001	0.00073	0.00018	-0.00021	2e-05	-1e-05	4
17671	1e-05	3e-05	0.0001	0.00073	0.00018	-0.00021	2e-05	-1e-05	4
17672	1e-05	3e-05	0.0001	0.00073	0.00018	-0.00021	2e-05	-1e-05	4
17673	1e-05	3e-05	0.0001	0.00073	0.00018	-0.00021	2e-05	-1e-05	4
17674	1e-05	3e-05	0.0001	0.00073	0.00018	-0.00021	2e-05	-1e-05	4
17675	1e-05	3e-05	0.0001	0.00073	0.00018	-0.00021	2e-05	-1e-05	4
17677	1e-05	3e-05	0.0001	0.00073	0.00018	-0.00021	2e-05	-1e-05	4
17678	1e-05	3e-05	0.0001	0.00073	0.00018	-0.00021	2e-05	-1e-05	4
17679	1e-05	3e-05	0.0001	0.00073	0.00018	-0.00021	2e-05	-1e-05	4
17680	1e-05	3e-05	0.0001	0.00073	0.00018	-0.00021	2e-05	-1e-05	4
17681	1e-05	3e-05	0.0001	0.00073	0.00018	-0.00021	2e-05	-1e-05	4
17682	1e-05	3e-05	0.0001	0.00073	0.00018	-0.00021	2e-05	-1e-05	4
17683	1e-05	3e-05	0.0001	0.00073	0.00018	-0.00021	2e-05	-1e-05	4
17684	5e-05	6e-05	0.00012	-4e-05	0.00087	0.00068	8e-05	8e-05	4
17685	-7e-05	-0.00014	-0.00017	0.00037	0.00076	-7e-05	-0.0001	-7e-05	4
17686	-7e-05	-0.00014	-0.00017	0.00037	0.00076	-7e-05	-0.0001	-7e-05	4
17688	-7e-05	-0.00014	-0.00017	0.00037	0.00076	-7e-05	-0.0001	-7e-05	4
17689	-7e-05	-0.00014	-0.00017	0.00037	0.00076	-7e-05	-0.0001	-7e-05	4
17690	-7e-05	-0.00014	-0.00017	0.00037	0.00076	-7e-05	-0.0001	-7e-05	4
17691	-7e-05	-0.00014	-0.00017	0.00037	0.00076	-7e-05	-0.0001	-7e-05	4
17692	-7e-05	-0.00014	-0.00017	0.00037	0.00076	-7e-05	-0.0001	-7e-05	4
17693	-7e-05	-0.00014	-0.00017	0.00037	0.00076	-7e-05	-0.0001	-7e-05	4
17694	-7e-05	-0.00014	-0.00017	0.00037	0.00076	-7e-05	-0.0001	-7e-05	4
17695	-7e-05	-0.00014	-0.00017	0.00037	0.00076	-7e-05	-0.0001	-7e-05	4
17696	-7e-05	-0.00014	-0.00017	0.00037	0.00076	-7e-05	-0.0001	-7e-05	4
17697	-2e-05	-1e-05	7e-05	0.00011	0.00013	-0.00025	-3e-05	-4e-05	4
17698	-2e-05	-1e-05	7e-05	0.00011	0.00013	-0.00025	-3e-05	-4e-05	4
17699	-2e-05	-1e-05	7e-05	0.00011	0.00013	-0.00025	-3e-05	-4e-05	4
17700	-2e-05	-1e-05	7e-05	0.00011	0.00013	-0.00025	-3e-05	-4e-05	4
17701	-2e-05	-1e-05	7e-05	0.00011	0.00013	-0.00025	-3e-05	-4e-05	4
17702	-2e-05	-1e-05	7e-05	0.00011	0.00013	-0.00025	-3e-05	-4e-05	4
17703	-2e-05	-1e-05	7e-05	0.00011	0.00013	-0.00025	-3e-05	-4e-05	4
17704	-2e-05	-1e-05	7e-05	0.00011	0.00013	-0.00025	-3e-05	-4e-05	4
17705	-2e-05	-1e-05	7e-05	0.00011	0.00013	-0.00025	-3e-05	-4e-05	4
17706	-2e-05	-1e-05	-3e-05	0.0001	-0.00035	-8e-05	1e-05	0	4
17707	-2e-05	-1e-05	-3e-05	0.0001	-0.00035	-8e-05	1e-05	0	4
17708	-2e-05	-1e-05	-3e-05	0.0001	-0.00035	-8e-05	1e-05	0	4
17709	-2e-05	-1e-05	-3e-05	0.0001	-0.00035	-8e-05	1e-05	0	4
17710	-2e-05	-1e-05	-3e-05	0.0001	-0.00035	-8e-05	1e-05	0	4
17711	-2e-05	-1e-05	-3e-05	0.0001	-0.00035	-8e-05	1e-05	0	4
17712	-2e-05	-1e-05	-3e-05	0.0001	-0.00035	-8e-05	1e-05	0	4
17713	-2e-05	-1e-05	-3e-05	0.0001	-0.00035	-8e-05	1e-05	0	4
17714	-2e-05	-1e-05	-3e-05	0.0001	-0.00035	-8e-05	1e-05	0	4
17715	-2e-05	-1e-05	-3e-05	0.0001	-0.00035	-8e-05	1e-05	0	4
17716	-2e-05	-1e-05	-3e-05	0.0001	-0.00035	-8e-05	1e-05	0	4
17717	-2e-05	-1e-05	-3e-05	0.0001	-0.00035	-8e-05	1e-05	0	4
17718	-2e-05	-1e-05	-3e-05	0.0001	-0.00035	-8e-05	1e-05	0	4
17719	-2e-05	-1e-05	-3e-05	0.0001	-0.00035	-8e-05	1e-05	0	4
17720	-2e-05	-1e-05	-3e-05	0.0001	-0.00035	-8e-05	1e-05	0	4
17721	-2e-05	0	1e-05	7e-05	-8e-05	-0.00017	-2e-05	-3e-05	4
17722	5e-05	3e-05	0.00012	7e-05	-7e-05	-2e-05	7e-05	5e-05	4
17723	5e-05	3e-05	0.00012	7e-05	-7e-05	-2e-05	7e-05	5e-05	4
17724	5e-05	3e-05	0.00012	7e-05	-7e-05	-2e-05	7e-05	5e-05	4
17725	5e-05	3e-05	0.00012	7e-05	-7e-05	-2e-05	7e-05	5e-05	4
17726	5e-05	3e-05	0.00012	7e-05	-7e-05	-2e-05	7e-05	5e-05	4
17727	5e-05	3e-05	0.00012	7e-05	-7e-05	-2e-05	7e-05	5e-05	4
17728	5e-05	3e-05	0.00012	7e-05	-7e-05	-2e-05	7e-05	5e-05	4
17729	5e-05	3e-05	0.00012	7e-05	-7e-05	-2e-05	7e-05	5e-05	4
17730	5e-05	3e-05	0.00012	7e-05	-7e-05	-2e-05	7e-05	5e-05	4
17731	5e-05	3e-05	0.00012	7e-05	-7e-05	-2e-05	7e-05	5e-05	4
17732	5e-05	3e-05	0.00012	7e-05	-7e-05	-2e-05	7e-05	5e-05	4
17733	5e-05	3e-05	0.00012	7e-05	-7e-05	-2e-05	7e-05	5e-05	4
17734	5e-05	3e-05	0.00012	7e-05	-7e-05	-2e-05	7e-05	5e-05	4
17735	5e-05	3e-05	0.00012	7e-05	-7e-05	-2e-05	7e-05	5e-05	4
17736	5e-05	3e-05	0.00012	7e-05	-7e-05	-2e-05	7e-05	5e-05	4
17738	5e-05	3e-05	0.00012	7e-05	-7e-05	-2e-05	7e-05	5e-05	4
17739	5e-05	3e-05	0.00012	7e-05	-7e-05	-2e-05	7e-05	5e-05	4
17740	5e-05	3e-05	0.00012	7e-05	-7e-05	-2e-05	7e-05	5e-05	4
17741	5e-05	3e-05	0.00012	7e-05	-7e-05	-2e-05	7e-05	5e-05	4
17742	5e-05	3e-05	0.00012	7e-05	-7e-05	-2e-05	7e-05	5e-05	4
17743	3e-05	6e-05	0.00014	-1e-05	-0.00067	0	5e-05	5e-05	4
17744	3e-05	6e-05	0.00014	-1e-05	-0.00067	0	5e-05	5e-05	4
17745	0	0	0	-0.0001	0.00018	-0.00019	2e-05	-1e-05	4
17746	0	0	0	-0.0001	0.00018	-0.00019	2e-05	-1e-05	4
17747	0	0	0	-0.0001	0.00018	-0.00019	2e-05	-1e-05	4
17748	0	0	0	-0.0001	0.00018	-0.00019	2e-05	-1e-05	4
17749	0	0	0	-0.0001	0.00018	-0.00019	2e-05	-1e-05	4
17750	0	0	0	-0.0001	0.00018	-0.00019	2e-05	-1e-05	4
17751	0	0	0	-0.0001	0.00018	-0.00019	2e-05	-1e-05	4
17752	0	0	0	-0.0001	0.00018	-0.00019	2e-05	-1e-05	4
17753	0	0	0	-0.0001	0.00018	-0.00019	2e-05	-1e-05	4
17754	0	0	0	-0.0001	0.00018	-0.00019	2e-05	-1e-05	4
17755	0	0	0	-0.0001	0.00018	-0.00019	2e-05	-1e-05	4
17756	0	0	0	-0.0001	0.00018	-0.00019	2e-05	-1e-05	4
17757	0	0	0	-0.0001	0.00018	-0.00019	2e-05	-1e-05	4
17758	0	0	0	-0.0001	0.00018	-0.00019	2e-05	-1e-05	4
17759	0	0	0	-0.0001	0.00018	-0.00019	2e-05	-1e-05	4
17760	0	0	0	-0.0001	0.00018	-0.00019	2e-05	-1e-05	4
17761	0	0	0	-0.0001	0.00018	-0.00019	2e-05	-1e-05	4
17762	0	0	0	-0.0001	0.00018	-0.00019	2e-05	-1e-05	4
17763	0	0	0	-0.0001	0.00018	-0.00019	2e-05	-1e-05	4
17764	0	0	0	-0.0001	0.00018	-0.00019	2e-05	-1e-05	4
17765	0	0	0	-0.0001	0.00018	-0.00019	2e-05	-1e-05	4
17766	-3e-05	-3e-05	-5e-05	0.00042	0.00036	-0.00028	0	-1e-05	4
17767	0	4e-05	1e-05	-0.00043	-0.00058	0.00011	1e-05	1e-05	4
17768	-2e-05	-6e-05	-0.00016	-0.00052	-0.00081	-0.0001	-4e-05	-5e-05	4
17769	-2e-05	-6e-05	-0.00016	-0.00052	-0.00081	-0.0001	-4e-05	-5e-05	4
17770	-2e-05	-6e-05	-0.00016	-0.00052	-0.00081	-0.0001	-4e-05	-5e-05	4
17771	-2e-05	-6e-05	-0.00016	-0.00052	-0.00081	-0.0001	-4e-05	-5e-05	4
17772	-2e-05	-6e-05	-0.00016	-0.00052	-0.00081	-0.0001	-4e-05	-5e-05	4
17773	-2e-05	-6e-05	-0.00016	-0.00052	-0.00081	-0.0001	-4e-05	-5e-05	4
17774	-2e-05	-6e-05	-0.00016	-0.00052	-0.00081	-0.0001	-4e-05	-5e-05	4
17775	-2e-05	-6e-05	-0.00016	-0.00052	-0.00081	-0.0001	-4e-05	-5e-05	4
17776	-2e-05	-6e-05	-0.00016	-0.00052	-0.00081	-0.0001	-4e-05	-5e-05	4
17777	-2e-05	-6e-05	-0.00016	-0.00052	-0.00081	-0.0001	-4e-05	-5e-05	4
17778	-2e-05	-6e-05	-0.00016	-0.00052	-0.00081	-0.0001	-4e-05	-5e-05	4
17779	-2e-05	-6e-05	-0.00016	-0.00052	-0.00081	-0.0001	-4e-05	-5e-05	4
17780	-2e-05	-6e-05	-0.00016	-0.00052	-0.00081	-0.0001	-4e-05	-5e-05	4
17781	-4e-05	-5e-05	-8e-05	-0.00014	-0.00049	-0.0003	-3e-05	-3e-05	4
17782	2e-05	6e-05	0.00015	0.00019	-0.00029	9e-05	1e-05	1e-05	4
17783	2e-05	6e-05	0.00015	0.00019	-0.00029	9e-05	1e-05	1e-05	4
17784	2e-05	6e-05	0.00015	0.00019	-0.00029	9e-05	1e-05	1e-05	4
17785	2e-05	6e-05	0.00015	0.00019	-0.00029	9e-05	1e-05	1e-05	4
17786	2e-05	6e-05	0.00015	0.00019	-0.00029	9e-05	1e-05	1e-05	4
17788	2e-05	6e-05	0.00015	0.00019	-0.00029	9e-05	1e-05	1e-05	4
17789	2e-05	6e-05	0.00015	0.00019	-0.00029	9e-05	1e-05	1e-05	4
17790	2e-05	6e-05	0.00015	0.00019	-0.00029	9e-05	1e-05	1e-05	4
17791	2e-05	6e-05	0.00015	0.00019	-0.00029	9e-05	1e-05	1e-05	4
17792	2e-05	6e-05	0.00015	0.00019	-0.00029	9e-05	1e-05	1e-05	4
17793	2e-05	6e-05	0.00015	0.00019	-0.00029	9e-05	1e-05	1e-05	4
17794	2e-05	6e-05	0.00015	0.00019	-0.00029	9e-05	1e-05	1e-05	4
17795	2e-05	6e-05	0.00015	0.00019	-0.00029	9e-05	1e-05	1e-05	4
17796	2e-05	6e-05	0.00015	0.00019	-0.00029	9e-05	1e-05	1e-05	4
17797	2e-05	6e-05	0.00015	0.00019	-0.00029	9e-05	1e-05	1e-05	4
17798	2e-05	6e-05	0.00015	0.00019	-0.00029	9e-05	1e-05	1e-05	4
17799	2e-05	6e-05	0.00015	0.00019	-0.00029	9e-05	1e-05	1e-05	4
17800	2e-05	6e-05	0.00015	0.00019	-0.00029	9e-05	1e-05	1e-05	4
17802	2e-05	6e-05	0.00015	0.00019	-0.00029	9e-05	1e-05	1e-05	4
17803	2e-05	-1e-05	-5e-05	2e-05	-0.0002	0.00017	1e-05	0	4
17804	-3e-05	-3e-05	-0.0001	-0.00052	-0.00066	-0.00054	-1e-05	-2e-05	4
17805	-2e-05	-2e-05	2e-05	-1e-05	1e-05	-1e-05	-3e-05	-2e-05	4
17806	-2e-05	-2e-05	2e-05	-1e-05	1e-05	-1e-05	-3e-05	-2e-05	4
17807	-2e-05	-2e-05	2e-05	-1e-05	1e-05	-1e-05	-3e-05	-2e-05	4
17808	-2e-05	-2e-05	2e-05	-1e-05	1e-05	-1e-05	-3e-05	-2e-05	4
17809	-2e-05	-2e-05	2e-05	-1e-05	1e-05	-1e-05	-3e-05	-2e-05	4
17810	-2e-05	-2e-05	2e-05	-1e-05	1e-05	-1e-05	-3e-05	-2e-05	4
17811	-2e-05	-2e-05	2e-05	-1e-05	1e-05	-1e-05	-3e-05	-2e-05	4
17812	-2e-05	-2e-05	2e-05	-1e-05	1e-05	-1e-05	-3e-05	-2e-05	4
17813	-2e-05	-2e-05	2e-05	-1e-05	1e-05	-1e-05	-3e-05	-2e-05	4
17814	-2e-05	-2e-05	2e-05	-1e-05	1e-05	-1e-05	-3e-05	-2e-05	4
17815	-2e-05	-2e-05	2e-05	-1e-05	1e-05	-1e-05	-3e-05	-2e-05	4
17816	-2e-05	-2e-05	2e-05	-1e-05	1e-05	-1e-05	-3e-05	-2e-05	4
17817	-2e-05	-2e-05	2e-05	-1e-05	1e-05	-1e-05	-3e-05	-2e-05	4
17818	-2e-05	-2e-05	2e-05	-1e-05	1e-05	-1e-05	-3e-05	-2e-05	4
17819	-2e-05	-2e-05	2e-05	-1e-05	1e-05	-1e-05	-3e-05	-2e-05	4
17820	-2e-05	-2e-05	2e-05	-1e-05	1e-05	-1e-05	-3e-05	-2e-05	4
17821	-2e-05	-2e-05	2e-05	-1e-05	1e-05	-1e-05	-3e-05	-2e-05	4
17822	-2e-05	-2e-05	2e-05	-1e-05	1e-05	-1e-05	-3e-05	-2e-05	4
17823	-2e-05	-2e-05	2e-05	-1e-05	1e-05	-1e-05	-3e-05	-2e-05	4
17824	-2e-05	-2e-05	2e-05	-1e-05	1e-05	-1e-05	-3e-05	-2e-05	4
17825	-2e-05	-2e-05	2e-05	-1e-05	1e-05	-1e-05	-3e-05	-2e-05	4
17826	-1e-05	-2e-05	-9e-05	-6e-05	-0.0002	-0.00011	2e-05	-1e-05	4
17827	-1e-05	-6e-05	-0.00011	0.00011	0.00048	-5e-05	-2e-05	-2e-05	4
17828	-1e-05	-6e-05	-0.00011	0.00011	0.00048	-5e-05	-2e-05	-2e-05	4
17829	-1e-05	-6e-05	-0.00011	0.00011	0.00048	-5e-05	-2e-05	-2e-05	4
17830	-1e-05	-6e-05	-0.00011	0.00011	0.00048	-5e-05	-2e-05	-2e-05	4
17831	-1e-05	-6e-05	-0.00011	0.00011	0.00048	-5e-05	-2e-05	-2e-05	4
17832	-1e-05	-6e-05	-0.00011	0.00011	0.00048	-5e-05	-2e-05	-2e-05	4
17833	-1e-05	-6e-05	-0.00011	0.00011	0.00048	-5e-05	-2e-05	-2e-05	4
17834	-1e-05	-6e-05	-0.00011	0.00011	0.00048	-5e-05	-2e-05	-2e-05	4
17835	-1e-05	-6e-05	-0.00011	0.00011	0.00048	-5e-05	-2e-05	-2e-05	4
17836	-1e-05	-6e-05	-0.00011	0.00011	0.00048	-5e-05	-2e-05	-2e-05	4
17838	-1e-05	-6e-05	-0.00011	0.00011	0.00048	-5e-05	-2e-05	-2e-05	4
17839	-1e-05	-6e-05	-0.00011	0.00011	0.00048	-5e-05	-2e-05	-2e-05	4
17840	-1e-05	-6e-05	-0.00011	0.00011	0.00048	-5e-05	-2e-05	-2e-05	4
17841	-6e-05	-8e-05	-0.00014	-0.00015	-0.00016	0.0002	-0.00012	-6e-05	4
17842	1e-05	4e-05	7e-05	-4e-05	-7e-05	0.00013	2e-05	2e-05	4
17843	1e-05	4e-05	7e-05	-4e-05	-7e-05	0.00013	2e-05	2e-05	4
17844	1e-05	4e-05	7e-05	-4e-05	-7e-05	0.00013	2e-05	2e-05	4
17845	1e-05	4e-05	7e-05	-4e-05	-7e-05	0.00013	2e-05	2e-05	4
17846	1e-05	4e-05	7e-05	-4e-05	-7e-05	0.00013	2e-05	2e-05	4
17847	1e-05	4e-05	7e-05	-4e-05	-7e-05	0.00013	2e-05	2e-05	4
17848	1e-05	4e-05	7e-05	-4e-05	-7e-05	0.00013	2e-05	2e-05	4
17849	1e-05	4e-05	7e-05	-4e-05	-7e-05	0.00013	2e-05	2e-05	4
17850	1e-05	4e-05	7e-05	-4e-05	-7e-05	0.00013	2e-05	2e-05	4
17851	1e-05	4e-05	7e-05	-4e-05	-7e-05	0.00013	2e-05	2e-05	4
17852	1e-05	4e-05	7e-05	-4e-05	-7e-05	0.00013	2e-05	2e-05	4
17853	1e-05	4e-05	7e-05	-4e-05	-7e-05	0.00013	2e-05	2e-05	4
17854	1e-05	4e-05	7e-05	-4e-05	-7e-05	0.00013	2e-05	2e-05	4
17855	1e-05	4e-05	7e-05	-4e-05	-7e-05	0.00013	2e-05	2e-05	4
17856	1e-05	4e-05	7e-05	-4e-05	-7e-05	0.00013	2e-05	2e-05	4
17857	1e-05	4e-05	7e-05	-4e-05	-7e-05	0.00013	2e-05	2e-05	4
17858	1e-05	4e-05	7e-05	-4e-05	-7e-05	0.00013	2e-05	2e-05	4
17859	1e-05	4e-05	7e-05	-4e-05	-7e-05	0.00013	2e-05	2e-05	4
17860	1e-05	4e-05	7e-05	-4e-05	-7e-05	0.00013	2e-05	2e-05	4
17861	1e-05	4e-05	7e-05	-4e-05	-7e-05	0.00013	2e-05	2e-05	4
17862	1e-05	4e-05	7e-05	-4e-05	-7e-05	0.00013	2e-05	2e-05	4
17863	4e-05	6e-05	0.00014	0.00023	5e-05	0.00024	6e-05	3e-05	4
17864	4e-05	6e-05	0.00014	0.00023	5e-05	0.00024	6e-05	3e-05	4
17865	-2e-05	-5e-05	-4e-05	0.00014	-0.00032	-0.00022	-8e-05	-3e-05	4
17866	-2e-05	-5e-05	-4e-05	0.00014	-0.00032	-0.00022	-8e-05	-3e-05	4
17867	-2e-05	-5e-05	-4e-05	0.00014	-0.00032	-0.00022	-8e-05	-3e-05	4
17868	-2e-05	-5e-05	-4e-05	0.00014	-0.00032	-0.00022	-8e-05	-3e-05	4
17869	-2e-05	-5e-05	-4e-05	0.00014	-0.00032	-0.00022	-8e-05	-3e-05	4
17870	-2e-05	-5e-05	-4e-05	0.00014	-0.00032	-0.00022	-8e-05	-3e-05	4
17871	-2e-05	-5e-05	-4e-05	0.00014	-0.00032	-0.00022	-8e-05	-3e-05	4
17872	-2e-05	-5e-05	-4e-05	0.00014	-0.00032	-0.00022	-8e-05	-3e-05	4
17873	-2e-05	-5e-05	-4e-05	0.00014	-0.00032	-0.00022	-8e-05	-3e-05	4
17874	-2e-05	-5e-05	-4e-05	0.00014	-0.00032	-0.00022	-8e-05	-3e-05	4
17875	-2e-05	-5e-05	-4e-05	0.00014	-0.00032	-0.00022	-8e-05	-3e-05	4
17876	-2e-05	-5e-05	-4e-05	0.00014	-0.00032	-0.00022	-8e-05	-3e-05	4
17877	-2e-05	-5e-05	-4e-05	0.00014	-0.00032	-0.00022	-8e-05	-3e-05	4
17878	-2e-05	-5e-05	-4e-05	0.00014	-0.00032	-0.00022	-8e-05	-3e-05	4
17879	-2e-05	-5e-05	-4e-05	0.00014	-0.00032	-0.00022	-8e-05	-3e-05	4
17880	-2e-05	-5e-05	-4e-05	0.00014	-0.00032	-0.00022	-8e-05	-3e-05	4
17881	-2e-05	-5e-05	-4e-05	0.00014	-0.00032	-0.00022	-8e-05	-3e-05	4
17882	-2e-05	-5e-05	-4e-05	0.00014	-0.00032	-0.00022	-8e-05	-3e-05	4
17883	-2e-05	-5e-05	-4e-05	0.00014	-0.00032	-0.00022	-8e-05	-3e-05	4
17884	-2e-05	-5e-05	-4e-05	0.00014	-0.00032	-0.00022	-8e-05	-3e-05	4
17885	-2e-05	-5e-05	-4e-05	0.00014	-0.00032	-0.00022	-8e-05	-3e-05	4
17887	2e-05	6e-05	0.00015	1e-05	-5e-05	8e-05	7e-05	4e-05	4
17889	-5e-05	-3e-05	-9e-05	-0.00034	-0.00011	-0.00023	-2e-05	-3e-05	4
17890	-5e-05	-3e-05	-9e-05	-0.00034	-0.00011	-0.00023	-2e-05	-3e-05	4
17891	-5e-05	-3e-05	-9e-05	-0.00034	-0.00011	-0.00023	-2e-05	-3e-05	4
17892	-5e-05	-3e-05	-9e-05	-0.00034	-0.00011	-0.00023	-2e-05	-3e-05	4
17893	-5e-05	-3e-05	-9e-05	-0.00034	-0.00011	-0.00023	-2e-05	-3e-05	4
17894	-5e-05	-3e-05	-9e-05	-0.00034	-0.00011	-0.00023	-2e-05	-3e-05	4
17895	-5e-05	-3e-05	-9e-05	-0.00034	-0.00011	-0.00023	-2e-05	-3e-05	4
17896	-5e-05	-3e-05	-9e-05	-0.00034	-0.00011	-0.00023	-2e-05	-3e-05	4
17897	-5e-05	-3e-05	-9e-05	-0.00034	-0.00011	-0.00023	-2e-05	-3e-05	4
17898	-5e-05	-3e-05	-9e-05	-0.00034	-0.00011	-0.00023	-2e-05	-3e-05	4
17899	-5e-05	-3e-05	-9e-05	-0.00034	-0.00011	-0.00023	-2e-05	-3e-05	4
17900	-5e-05	-3e-05	-9e-05	-0.00034	-0.00011	-0.00023	-2e-05	-3e-05	4
17901	0	1e-05	0	0.00029	0.00075	-7e-05	-1e-05	0	4
17902	-5e-05	-8e-05	-0.0001	-0.00057	-0.00042	1e-05	-8e-05	-4e-05	4
17903	-5e-05	-8e-05	-0.0001	-0.00057	-0.00042	1e-05	-8e-05	-4e-05	4
17904	-5e-05	-8e-05	-0.0001	-0.00057	-0.00042	1e-05	-8e-05	-4e-05	4
17905	-5e-05	-8e-05	-0.0001	-0.00057	-0.00042	1e-05	-8e-05	-4e-05	4
17906	-5e-05	-8e-05	-0.0001	-0.00057	-0.00042	1e-05	-8e-05	-4e-05	4
17907	-5e-05	-8e-05	-0.0001	-0.00057	-0.00042	1e-05	-8e-05	-4e-05	4
17908	-5e-05	-8e-05	-0.0001	-0.00057	-0.00042	1e-05	-8e-05	-4e-05	4
17909	-5e-05	-8e-05	-0.0001	-0.00057	-0.00042	1e-05	-8e-05	-4e-05	4
17910	-5e-05	-8e-05	-0.0001	-0.00057	-0.00042	1e-05	-8e-05	-4e-05	4
17911	-5e-05	-8e-05	-0.0001	-0.00057	-0.00042	1e-05	-8e-05	-4e-05	4
17912	-5e-05	-8e-05	-0.0001	-0.00057	-0.00042	1e-05	-8e-05	-4e-05	4
17913	-5e-05	-8e-05	-0.0001	-0.00057	-0.00042	1e-05	-8e-05	-4e-05	4
17914	-5e-05	-8e-05	-0.0001	-0.00057	-0.00042	1e-05	-8e-05	-4e-05	4
17915	-5e-05	-8e-05	-0.0001	-0.00057	-0.00042	1e-05	-8e-05	-4e-05	4
17916	-5e-05	-8e-05	-0.0001	-0.00057	-0.00042	1e-05	-8e-05	-4e-05	4
51862	-3e-05	-3e-05	-0.00011	-0.00015	-0.00069	-6e-05	-5e-05	-4e-05	4
51863	-3e-05	-3e-05	-0.00011	-0.00015	-0.00069	-6e-05	-5e-05	-4e-05	4
51864	-3e-05	-3e-05	-0.00011	-0.00015	-0.00069	-6e-05	-5e-05	-4e-05	4
51865	-3e-05	-3e-05	-0.00011	-0.00015	-0.00069	-6e-05	-5e-05	-4e-05	4
51866	-3e-05	-3e-05	-0.00011	-0.00015	-0.00069	-6e-05	-5e-05	-4e-05	4
51867	-3e-05	-3e-05	-0.00011	-0.00015	-0.00069	-6e-05	-5e-05	-4e-05	4
51868	-3e-05	-3e-05	-0.00011	-0.00015	-0.00069	-6e-05	-5e-05	-4e-05	4
51869	-3e-05	-3e-05	-0.00011	-0.00015	-0.00069	-6e-05	-5e-05	-4e-05	4
51870	-3e-05	-3e-05	-0.00011	-0.00015	-0.00069	-6e-05	-5e-05	-4e-05	4
51871	-3e-05	-3e-05	-0.00011	-0.00015	-0.00069	-6e-05	-5e-05	-4e-05	4
51872	-3e-05	-3e-05	-0.00011	-0.00015	-0.00069	-6e-05	-5e-05	-4e-05	4
51873	-3e-05	-3e-05	-0.00011	-0.00015	-0.00069	-6e-05	-5e-05	-4e-05	4
51874	-3e-05	-3e-05	-0.00011	-0.00015	-0.00069	-6e-05	-5e-05	-4e-05	4
51875	-3e-05	-3e-05	-0.00011	-0.00015	-0.00069	-6e-05	-5e-05	-4e-05	4
51876	0	-5e-05	-9e-05	-0.00036	-0.00028	-6e-05	-4e-05	-2e-05	4
51877	0	-5e-05	-9e-05	-0.00036	-0.00028	-6e-05	-4e-05	-2e-05	4
51878	0	-5e-05	-9e-05	-0.00036	-0.00028	-6e-05	-4e-05	-2e-05	4
51879	0	-5e-05	-9e-05	-0.00036	-0.00028	-6e-05	-4e-05	-2e-05	4
51880	0	-5e-05	-9e-05	-0.00036	-0.00028	-6e-05	-4e-05	-2e-05	4
51881	0	-5e-05	-9e-05	-0.00036	-0.00028	-6e-05	-4e-05	-2e-05	4
51882	0	-5e-05	-9e-05	-0.00036	-0.00028	-6e-05	-4e-05	-2e-05	4
51883	0	-5e-05	-9e-05	-0.00036	-0.00028	-6e-05	-4e-05	-2e-05	4
51884	0	-5e-05	-9e-05	-0.00036	-0.00028	-6e-05	-4e-05	-2e-05	4
51885	0	-5e-05	-9e-05	-0.00036	-0.00028	-6e-05	-4e-05	-2e-05	4
51886	0	-5e-05	-9e-05	-0.00036	-0.00028	-6e-05	-4e-05	-2e-05	4
51889	0	-5e-05	-9e-05	-0.00036	-0.00028	-6e-05	-4e-05	-2e-05	4
51890	0	-5e-05	-9e-05	-0.00036	-0.00028	-6e-05	-4e-05	-2e-05	4
51891	-4e-05	-7e-05	-8e-05	-9e-05	0.00014	-5e-05	-2e-05	-3e-05	4
51892	-4e-05	-7e-05	-8e-05	-9e-05	0.00014	-5e-05	-2e-05	-3e-05	4
51893	-4e-05	-7e-05	-8e-05	-9e-05	0.00014	-5e-05	-2e-05	-3e-05	4
51894	-4e-05	-7e-05	-8e-05	-9e-05	0.00014	-5e-05	-2e-05	-3e-05	4
51895	-4e-05	-7e-05	-8e-05	-9e-05	0.00014	-5e-05	-2e-05	-3e-05	4
51896	-4e-05	-7e-05	-8e-05	-9e-05	0.00014	-5e-05	-2e-05	-3e-05	4
51897	-4e-05	-7e-05	-8e-05	-9e-05	0.00014	-5e-05	-2e-05	-3e-05	4
51898	-4e-05	-7e-05	-8e-05	-9e-05	0.00014	-5e-05	-2e-05	-3e-05	4
51899	-4e-05	-7e-05	-8e-05	-9e-05	0.00014	-5e-05	-2e-05	-3e-05	4
51900	-4e-05	-7e-05	-8e-05	-9e-05	0.00014	-5e-05	-2e-05	-3e-05	4
51901	-4e-05	-7e-05	-8e-05	-9e-05	0.00014	-5e-05	-2e-05	-3e-05	4
51902	-4e-05	-7e-05	-8e-05	-9e-05	0.00014	-5e-05	-2e-05	-3e-05	4
51903	-4e-05	-7e-05	-8e-05	-9e-05	0.00014	-5e-05	-2e-05	-3e-05	4
51904	-4e-05	-7e-05	-8e-05	-9e-05	0.00014	-5e-05	-2e-05	-3e-05	4
51905	-4e-05	-7e-05	-8e-05	-9e-05	0.00014	-5e-05	-2e-05	-3e-05	4
51906	-4e-05	-7e-05	-8e-05	-9e-05	0.00014	-5e-05	-2e-05	-3e-05	4
51907	-4e-05	-7e-05	-8e-05	-9e-05	0.00014	-5e-05	-2e-05	-3e-05	4
51908	-4e-05	-7e-05	-8e-05	-9e-05	0.00014	-5e-05	-2e-05	-3e-05	4
51909	-4e-05	-7e-05	-8e-05	-9e-05	0.00014	-5e-05	-2e-05	-3e-05	4
51910	-4e-05	-7e-05	-8e-05	-9e-05	0.00014	-5e-05	-2e-05	-3e-05	4
51911	-4e-05	-7e-05	-8e-05	-9e-05	0.00014	-5e-05	-2e-05	-3e-05	4
51912	-4e-05	-7e-05	-8e-05	-9e-05	0.00014	-5e-05	-2e-05	-3e-05	4
51913	2e-05	5e-05	5e-05	-0.00061	0.00017	0	0	0	4
51914	0	1e-05	3e-05	0.00019	-0.0002	3e-05	-1e-05	-4e-05	4
51915	0	1e-05	3e-05	0.00019	-0.0002	3e-05	-1e-05	-4e-05	4
51916	0	1e-05	3e-05	0.00019	-0.0002	3e-05	-1e-05	-4e-05	4
51917	0	1e-05	3e-05	0.00019	-0.0002	3e-05	-1e-05	-4e-05	4
51918	0	1e-05	3e-05	0.00019	-0.0002	3e-05	-1e-05	-4e-05	4
51919	0	1e-05	3e-05	0.00019	-0.0002	3e-05	-1e-05	-4e-05	4
51920	0	1e-05	3e-05	0.00019	-0.0002	3e-05	-1e-05	-4e-05	4
51921	0	1e-05	3e-05	0.00019	-0.0002	3e-05	-1e-05	-4e-05	4
51922	0	1e-05	3e-05	0.00019	-0.0002	3e-05	-1e-05	-4e-05	4
51923	0	1e-05	3e-05	0.00019	-0.0002	3e-05	-1e-05	-4e-05	4
51924	0	1e-05	3e-05	0.00019	-0.0002	3e-05	-1e-05	-4e-05	4
51925	0	1e-05	3e-05	0.00019	-0.0002	3e-05	-1e-05	-4e-05	4
51926	0	1e-05	3e-05	0.00019	-0.0002	3e-05	-1e-05	-4e-05	4
51927	0	1e-05	3e-05	0.00019	-0.0002	3e-05	-1e-05	-4e-05	4
51928	0	1e-05	3e-05	0.00019	-0.0002	3e-05	-1e-05	-4e-05	4
51929	0	1e-05	3e-05	0.00019	-0.0002	3e-05	-1e-05	-4e-05	4
51930	0	1e-05	3e-05	0.00019	-0.0002	3e-05	-1e-05	-4e-05	4
51931	0	1e-05	3e-05	0.00019	-0.0002	3e-05	-1e-05	-4e-05	4
51932	0	1e-05	3e-05	0.00019	-0.0002	3e-05	-1e-05	-4e-05	4
51933	0	1e-05	3e-05	0.00019	-0.0002	3e-05	-1e-05	-4e-05	4
51935	0	1e-05	3e-05	0.00019	-0.0002	3e-05	-1e-05	-4e-05	4
51937	-1e-05	4e-05	7e-05	0.00025	0.00035	0.00013	3e-05	-1e-05	4
51939	1e-05	-2e-05	4e-05	0.00036	0.00018	-8e-05	-4e-05	0	4
51940	1e-05	-2e-05	4e-05	0.00036	0.00018	-8e-05	-4e-05	0	4
51941	1e-05	-2e-05	4e-05	0.00036	0.00018	-8e-05	-4e-05	0	4
51942	1e-05	-2e-05	4e-05	0.00036	0.00018	-8e-05	-4e-05	0	4
51943	1e-05	-2e-05	4e-05	0.00036	0.00018	-8e-05	-4e-05	0	4
51944	1e-05	-2e-05	4e-05	0.00036	0.00018	-8e-05	-4e-05	0	4
51945	1e-05	-2e-05	4e-05	0.00036	0.00018	-8e-05	-4e-05	0	4
51946	1e-05	-2e-05	4e-05	0.00036	0.00018	-8e-05	-4e-05	0	4
51947	1e-05	-2e-05	4e-05	0.00036	0.00018	-8e-05	-4e-05	0	4
51948	1e-05	-2e-05	4e-05	0.00036	0.00018	-8e-05	-4e-05	0	4
51949	1e-05	-2e-05	4e-05	0.00036	0.00018	-8e-05	-4e-05	0	4
51950	0	-2e-05	-6e-05	-0.0005	-0.00066	-2e-05	3e-05	1e-05	4
51951	-1e-05	3e-05	6e-05	-4e-05	-0.00032	6e-05	-1e-05	-1e-05	4
51952	1e-05	6e-05	9e-05	0.00021	0.00027	0.00011	6e-05	2e-05	4
51953	1e-05	6e-05	9e-05	0.00021	0.00027	0.00011	6e-05	2e-05	4
51954	1e-05	6e-05	9e-05	0.00021	0.00027	0.00011	6e-05	2e-05	4
51955	1e-05	6e-05	9e-05	0.00021	0.00027	0.00011	6e-05	2e-05	4
51956	1e-05	6e-05	9e-05	0.00021	0.00027	0.00011	6e-05	2e-05	4
51957	1e-05	6e-05	9e-05	0.00021	0.00027	0.00011	6e-05	2e-05	4
51958	1e-05	6e-05	9e-05	0.00021	0.00027	0.00011	6e-05	2e-05	4
51959	1e-05	6e-05	9e-05	0.00021	0.00027	0.00011	6e-05	2e-05	4
51960	1e-05	6e-05	9e-05	0.00021	0.00027	0.00011	6e-05	2e-05	4
51961	1e-05	6e-05	9e-05	0.00021	0.00027	0.00011	6e-05	2e-05	4
51962	1e-05	6e-05	9e-05	0.00021	0.00027	0.00011	6e-05	2e-05	4
51963	1e-05	6e-05	9e-05	0.00021	0.00027	0.00011	6e-05	2e-05	4
51964	1e-05	6e-05	9e-05	0.00021	0.00027	0.00011	6e-05	2e-05	4
51965	1e-05	6e-05	9e-05	0.00021	0.00027	0.00011	6e-05	2e-05	4
51966	1e-05	6e-05	9e-05	0.00021	0.00027	0.00011	6e-05	2e-05	4
51967	1e-05	6e-05	9e-05	0.00021	0.00027	0.00011	6e-05	2e-05	4
51968	1e-05	6e-05	9e-05	0.00021	0.00027	0.00011	6e-05	2e-05	4
51969	1e-05	6e-05	9e-05	0.00021	0.00027	0.00011	6e-05	2e-05	4
51970	1e-05	6e-05	9e-05	0.00021	0.00027	0.00011	6e-05	2e-05	4
51971	1e-05	6e-05	9e-05	0.00021	0.00027	0.00011	6e-05	2e-05	4
51972	1e-05	6e-05	9e-05	0.00021	0.00027	0.00011	6e-05	2e-05	4
51973	-1e-05	0	4e-05	-7e-05	-0.00085	4e-05	0	0	4
