32703	-0.00019	7e-05	0.0001	6e-05	-2e-05	0.00081	2e-05	-0.00045	6
32704	-0.00019	7e-05	0.0001	6e-05	-2e-05	0.00081	2e-05	-0.00045	6
32705	-0.00019	7e-05	0.0001	6e-05	-2e-05	0.00081	2e-05	-0.00045	6
32706	-0.00019	7e-05	0.0001	6e-05	-2e-05	0.00081	2e-05	-0.00045	6
32707	-0.00019	7e-05	0.0001	6e-05	-2e-05	0.00081	2e-05	-0.00045	6
32708	-0.00019	7e-05	0.0001	6e-05	-2e-05	0.00081	2e-05	-0.00045	6
32709	-7e-05	-4e-05	-9e-05	-0.0002	-0.00058	-0.00091	-6e-05	-0.00092	6
32710	-7e-05	-4e-05	-9e-05	-0.0002	-0.00058	-0.00091	-6e-05	-0.00092	6
32711	-7e-05	-4e-05	-9e-05	-0.0002	-0.00058	-0.00091	-6e-05	-0.00092	6
32712	-7e-05	-4e-05	-9e-05	-0.0002	-0.00058	-0.00091	-6e-05	-0.00092	6
32713	-7e-05	-4e-05	-9e-05	-0.0002	-0.00058	-0.00091	-6e-05	-0.00092	6
32714	-7e-05	-4e-05	-9e-05	-0.0002	-0.00058	-0.00091	-6e-05	-0.00092	6
32715	-7e-05	-4e-05	-9e-05	-0.0002	-0.00058	-0.00091	-6e-05	-0.00092	6
32716	0.0002	0.00013	-1e-05	0.00011	-2e-05	0.00015	0.00015	0.00024	6
32717	0.0002	0.00013	-1e-05	0.00011	-2e-05	0.00015	0.00015	0.00024	6
32718	0.0002	0.00013	-1e-05	0.00011	-2e-05	0.00015	0.00015	0.00024	6
32719	0.0002	0.00013	-1e-05	0.00011	-2e-05	0.00015	0.00015	0.00024	6
32720	0.0002	0.00013	-1e-05	0.00011	-2e-05	0.00015	0.00015	0.00024	6
32721	0.0002	0.00013	-1e-05	0.00011	-2e-05	0.00015	0.00015	0.00024	6
32722	0.0002	0.00013	-1e-05	0.00011	-2e-05	0.00015	0.00015	0.00024	6
32723	0.0002	0.00013	-1e-05	0.00011	-2e-05	0.00015	0.00015	0.00024	6
32725	0.0002	0.00013	-1e-05	0.00011	-2e-05	0.00015	0.00015	0.00024	6
32726	0.0002	0.00013	-1e-05	0.00011	-2e-05	0.00015	0.00015	0.00024	6
32727	0.0002	0.00013	-1e-05	0.00011	-2e-05	0.00015	0.00015	0.00024	6
32728	0.0002	0.00013	-1e-05	0.00011	-2e-05	0.00015	0.00015	0.00024	6
32729	0.0002	0.00013	-1e-05	0.00011	-2e-05	0.00015	0.00015	0.00024	6
32730	0.0002	0.00013	-1e-05	0.00011	-2e-05	0.00015	0.00015	0.00024	6
32731	0.0002	0.00013	-1e-05	0.00011	-2e-05	0.00015	0.00015	0.00024	6
32732	-0.00016	-2e-05	4e-05	0.00011	0.00043	0.00061	0.0003	0.0002	6
32733	-0.00016	-2e-05	4e-05	0.00011	0.00043	0.00061	0.0003	0.0002	6
32734	9e-05	-0.00019	-0.00013	-7e-05	0.00029	-0.0002	6e-05	0.00018	6
32735	9e-05	-0.00019	-0.00013	-7e-05	0.00029	-0.0002	6e-05	0.00018	6
32736	9e-05	-0.00019	-0.00013	-7e-05	0.00029	-0.0002	6e-05	0.00018	6
32738	9e-05	-0.00019	-0.00013	-7e-05	0.00029	-0.0002	6e-05	0.00018	6
32739	9e-05	-0.00019	-0.00013	-7e-05	0.00029	-0.0002	6e-05	0.00018	6
32740	9e-05	-0.00019	-0.00013	-7e-05	0.00029	-0.0002	6e-05	0.00018	6
32741	9e-05	-0.00019	-0.00013	-7e-05	0.00029	-0.0002	6e-05	0.00018	6
32742	9e-05	-0.00019	-0.00013	-7e-05	0.00029	-0.0002	6e-05	0.00018	6
32743	9e-05	-0.00019	-0.00013	-7e-05	0.00029	-0.0002	6e-05	0.00018	6
32744	9e-05	-0.00019	-0.00013	-7e-05	0.00029	-0.0002	6e-05	0.00018	6
32745	9e-05	-0.00019	-0.00013	-7e-05	0.00029	-0.0002	6e-05	0.00018	6
32746	9e-05	-0.00019	-0.00013	-7e-05	0.00029	-0.0002	6e-05	0.00018	6
32747	9e-05	-0.00019	-0.00013	-7e-05	0.00029	-0.0002	6e-05	0.00018	6
32748	9e-05	-0.00019	-0.00013	-7e-05	0.00029	-0.0002	6e-05	0.00018	6
32749	9e-05	-0.00019	-0.00013	-7e-05	0.00029	-0.0002	6e-05	0.00018	6
32750	9e-05	-0.00019	-0.00013	-7e-05	0.00029	-0.0002	6e-05	0.00018	6
32751	9e-05	-0.00019	-0.00013	-7e-05	0.00029	-0.0002	6e-05	0.00018	6
32752	9e-05	-0.00019	-0.00013	-7e-05	0.00029	-0.0002	6e-05	0.00018	6
32753	9e-05	-0.00019	-0.00013	-7e-05	0.00029	-0.0002	6e-05	0.00018	6
32754	-0.00043	-5e-05	-3e-05	-0.00011	-0.00033	0.0006	0.00021	0.00026	6
32755	8e-05	-4e-05	3e-05	0.00022	0.00014	0.00022	0.0005	0.0004	6
32756	-0.00014	1e-05	1e-05	8e-05	0.00071	0.00038	-6e-05	-2e-05	6
32757	-0.00014	1e-05	1e-05	8e-05	0.00071	0.00038	-6e-05	-2e-05	6
32758	-0.00014	1e-05	1e-05	8e-05	0.00071	0.00038	-6e-05	-2e-05	6
32759	-0.00014	1e-05	1e-05	8e-05	0.00071	0.00038	-6e-05	-2e-05	6
32760	-0.00014	1e-05	1e-05	8e-05	0.00071	0.00038	-6e-05	-2e-05	6
32761	-0.00014	1e-05	1e-05	8e-05	0.00071	0.00038	-6e-05	-2e-05	6
32762	-0.00014	1e-05	1e-05	8e-05	0.00071	0.00038	-6e-05	-2e-05	6
32763	-0.00014	1e-05	1e-05	8e-05	0.00071	0.00038	-6e-05	-2e-05	6
32764	-0.00014	1e-05	1e-05	8e-05	0.00071	0.00038	-6e-05	-2e-05	6
32765	-0.00014	1e-05	1e-05	8e-05	0.00071	0.00038	-6e-05	-2e-05	6
32766	-0.00014	1e-05	1e-05	8e-05	0.00071	0.00038	-6e-05	-2e-05	6
32767	-0.00014	1e-05	1e-05	8e-05	0.00071	0.00038	-6e-05	-2e-05	6
32768	-0.00014	1e-05	1e-05	8e-05	0.00071	0.00038	-6e-05	-2e-05	6
32769	-8e-05	-0.00015	-8e-05	-5e-05	0.00023	-0.0002	-8e-05	0.00017	6
32770	-8e-05	-0.00015	-8e-05	-5e-05	0.00023	-0.0002	-8e-05	0.00017	6
32771	-8e-05	-0.00015	-8e-05	-5e-05	0.00023	-0.0002	-8e-05	0.00017	6
32772	-8e-05	-0.00015	-8e-05	-5e-05	0.00023	-0.0002	-8e-05	0.00017	6
32773	-8e-05	-0.00015	-8e-05	-5e-05	0.00023	-0.0002	-8e-05	0.00017	6
32774	-8e-05	-0.00015	-8e-05	-5e-05	0.00023	-0.0002	-8e-05	0.00017	6
32775	-8e-05	-0.00015	-8e-05	-5e-05	0.00023	-0.0002	-8e-05	0.00017	6
32776	5e-05	-3e-05	-1e-05	-6e-05	-0.00046	-0.00019	-2e-05	0.00048	6
32777	5e-05	-3e-05	-1e-05	-6e-05	-0.00046	-0.00019	-2e-05	0.00048	6
32778	5e-05	-3e-05	-1e-05	-6e-05	-0.00046	-0.00019	-2e-05	0.00048	6
32779	5e-05	-3e-05	-1e-05	-6e-05	-0.00046	-0.00019	-2e-05	0.00048	6
32780	5e-05	-3e-05	-1e-05	-6e-05	-0.00046	-0.00019	-2e-05	0.00048	6
32781	5e-05	-3e-05	-1e-05	-6e-05	-0.00046	-0.00019	-2e-05	0.00048	6
32782	5e-05	-3e-05	-1e-05	-6e-05	-0.00046	-0.00019	-2e-05	0.00048	6
32783	5e-05	-3e-05	-1e-05	-6e-05	-0.00046	-0.00019	-2e-05	0.00048	6
32784	5e-05	-3e-05	-1e-05	-6e-05	-0.00046	-0.00019	-2e-05	0.00048	6
32785	5e-05	-3e-05	-1e-05	-6e-05	-0.00046	-0.00019	-2e-05	0.00048	6
32786	5e-05	-3e-05	-1e-05	-6e-05	-0.00046	-0.00019	-2e-05	0.00048	6
32788	5e-05	-3e-05	-1e-05	-6e-05	-0.00046	-0.00019	-2e-05	0.00048	6
32789	5e-05	-3e-05	-1e-05	-6e-05	-0.00046	-0.00019	-2e-05	0.00048	6
32790	5e-05	-3e-05	-1e-05	-6e-05	-0.00046	-0.00019	-2e-05	0.00048	6
32791	5e-05	-3e-05	-1e-05	-6e-05	-0.00046	-0.00019	-2e-05	0.00048	6
32792	-0.00031	-3e-05	2e-05	7e-05	7e-05	-0.00061	-0.00022	-0.00066	6
32793	-0.00031	-3e-05	2e-05	7e-05	7e-05	-0.00061	-0.00022	-0.00066	6
32794	-0.00031	-3e-05	2e-05	7e-05	7e-05	-0.00061	-0.00022	-0.00066	6
32795	-0.0001	9e-05	4e-05	-2e-05	-9e-05	0.00022	-0.00028	-0.00049	6
32796	-0.0001	9e-05	4e-05	-2e-05	-9e-05	0.00022	-0.00028	-0.00049	6
32797	-0.0001	9e-05	4e-05	-2e-05	-9e-05	0.00022	-0.00028	-0.00049	6
32798	-0.0001	9e-05	4e-05	-2e-05	-9e-05	0.00022	-0.00028	-0.00049	6
32799	-0.0001	9e-05	4e-05	-2e-05	-9e-05	0.00022	-0.00028	-0.00049	6
32800	-0.0001	9e-05	4e-05	-2e-05	-9e-05	0.00022	-0.00028	-0.00049	6
32801	-0.0001	9e-05	4e-05	-2e-05	-9e-05	0.00022	-0.00028	-0.00049	6
32802	-0.0001	9e-05	4e-05	-2e-05	-9e-05	0.00022	-0.00028	-0.00049	6
32803	-0.0001	9e-05	4e-05	-2e-05	-9e-05	0.00022	-0.00028	-0.00049	6
32804	-0.0001	9e-05	4e-05	-2e-05	-9e-05	0.00022	-0.00028	-0.00049	6
32805	-0.0001	9e-05	4e-05	-2e-05	-9e-05	0.00022	-0.00028	-0.00049	6
32806	-0.0001	9e-05	4e-05	-2e-05	-9e-05	0.00022	-0.00028	-0.00049	6
32807	-0.0001	9e-05	4e-05	-2e-05	-9e-05	0.00022	-0.00028	-0.00049	6
32808	-0.0001	9e-05	4e-05	-2e-05	-9e-05	0.00022	-0.00028	-0.00049	6
32809	-0.0001	9e-05	4e-05	-2e-05	-9e-05	0.00022	-0.00028	-0.00049	6
32810	-0.0001	9e-05	4e-05	-2e-05	-9e-05	0.00022	-0.00028	-0.00049	6
32811	-0.0001	9e-05	4e-05	-2e-05	-9e-05	0.00022	-0.00028	-0.00049	6
32812	-0.0001	9e-05	4e-05	-2e-05	-9e-05	0.00022	-0.00028	-0.00049	6
32813	-0.0001	9e-05	4e-05	-2e-05	-9e-05	0.00022	-0.00028	-0.00049	6
32814	-0.0001	9e-05	4e-05	-2e-05	-9e-05	0.00022	-0.00028	-0.00049	6
32815	0.00016	3e-05	1e-05	-8e-05	-0.00026	0.00031	3e-05	0.0001	6
32816	5e-05	5e-05	2e-05	6e-05	0.00025	0.00021	0	0.00039	6
32817	-0.00069	-0.00021	-4e-05	-1e-05	-0.00022	-0.00102	0.00019	-0.00027	6
32818	-0.00069	-0.00021	-4e-05	-1e-05	-0.00022	-0.00102	0.00019	-0.00027	6
32819	-0.00069	-0.00021	-4e-05	-1e-05	-0.00022	-0.00102	0.00019	-0.00027	6
32820	-0.00069	-0.00021	-4e-05	-1e-05	-0.00022	-0.00102	0.00019	-0.00027	6
32821	-0.00069	-0.00021	-4e-05	-1e-05	-0.00022	-0.00102	0.00019	-0.00027	6
32822	-0.00069	-0.00021	-4e-05	-1e-05	-0.00022	-0.00102	0.00019	-0.00027	6
32823	-0.00069	-0.00021	-4e-05	-1e-05	-0.00022	-0.00102	0.00019	-0.00027	6
32824	-0.00069	-0.00021	-4e-05	-1e-05	-0.00022	-0.00102	0.00019	-0.00027	6
32825	-0.00069	-0.00021	-4e-05	-1e-05	-0.00022	-0.00102	0.00019	-0.00027	6
32826	-0.00069	-0.00021	-4e-05	-1e-05	-0.00022	-0.00102	0.00019	-0.00027	6
32827	-0.00069	-0.00021	-4e-05	-1e-05	-0.00022	-0.00102	0.00019	-0.00027	6
32828	-0.00069	-0.00021	-4e-05	-1e-05	-0.00022	-0.00102	0.00019	-0.00027	6
32829	-0.00031	-0.00011	-9e-05	-0.00014	-0.00022	0.0001	-0.00026	-0.00025	6
32830	-0.00031	-0.00011	-9e-05	-0.00014	-0.00022	0.0001	-0.00026	-0.00025	6
32831	-0.00031	-0.00011	-9e-05	-0.00014	-0.00022	0.0001	-0.00026	-0.00025	6
32832	-0.00031	-0.00011	-9e-05	-0.00014	-0.00022	0.0001	-0.00026	-0.00025	6
32833	-0.00031	-0.00011	-9e-05	-0.00014	-0.00022	0.0001	-0.00026	-0.00025	6
32834	-0.00031	-0.00011	-9e-05	-0.00014	-0.00022	0.0001	-0.00026	-0.00025	6
32835	-0.00031	-0.00011	-9e-05	-0.00014	-0.00022	0.0001	-0.00026	-0.00025	6
32836	0.0003	-4e-05	3e-05	2e-05	0.00027	0.00038	0.00036	0.00059	6
32838	0.0003	-4e-05	3e-05	2e-05	0.00027	0.00038	0.00036	0.00059	6
32839	0.0003	-4e-05	3e-05	2e-05	0.00027	0.00038	0.00036	0.00059	6
32840	0.0003	-4e-05	3e-05	2e-05	0.00027	0.00038	0.00036	0.00059	6
32841	0.0003	-4e-05	3e-05	2e-05	0.00027	0.00038	0.00036	0.00059	6
32842	0.0003	-4e-05	3e-05	2e-05	0.00027	0.00038	0.00036	0.00059	6
32843	0.0003	-4e-05	3e-05	2e-05	0.00027	0.00038	0.00036	0.00059	6
32844	0.0003	-4e-05	3e-05	2e-05	0.00027	0.00038	0.00036	0.00059	6
32845	0.0003	-4e-05	3e-05	2e-05	0.00027	0.00038	0.00036	0.00059	6
32846	0.0003	-4e-05	3e-05	2e-05	0.00027	0.00038	0.00036	0.00059	6
32847	0.0003	-4e-05	3e-05	2e-05	0.00027	0.00038	0.00036	0.00059	6
32848	0.0003	-4e-05	3e-05	2e-05	0.00027	0.00038	0.00036	0.00059	6
32849	0.0003	-4e-05	3e-05	2e-05	0.00027	0.00038	0.00036	0.00059	6
32850	0.0003	-4e-05	3e-05	2e-05	0.00027	0.00038	0.00036	0.00059	6
32851	0.0003	-4e-05	3e-05	2e-05	0.00027	0.00038	0.00036	0.00059	6
32852	-2e-05	3e-05	7e-05	0.0003	0.00074	1e-05	4e-05	0.00044	6
32853	-2e-05	3e-05	7e-05	0.0003	0.00074	1e-05	4e-05	0.00044	6
32854	0.00023	0.0001	0.00012	0.00029	7e-05	-0.00011	8e-05	-0.00027	6
32855	0.00023	0.0001	0.00012	0.00029	7e-05	-0.00011	8e-05	-0.00027	6
32856	0.00023	0.0001	0.00012	0.00029	7e-05	-0.00011	8e-05	-0.00027	6
32857	0.00023	0.0001	0.00012	0.00029	7e-05	-0.00011	8e-05	-0.00027	6
32858	0.00023	0.0001	0.00012	0.00029	7e-05	-0.00011	8e-05	-0.00027	6
32859	0.00023	0.0001	0.00012	0.00029	7e-05	-0.00011	8e-05	-0.00027	6
32860	0.00023	0.0001	0.00012	0.00029	7e-05	-0.00011	8e-05	-0.00027	6
32861	0.00023	0.0001	0.00012	0.00029	7e-05	-0.00011	8e-05	-0.00027	6
32862	0.00023	0.0001	0.00012	0.00029	7e-05	-0.00011	8e-05	-0.00027	6
32863	0.00023	0.0001	0.00012	0.00029	7e-05	-0.00011	8e-05	-0.00027	6
32864	0.00023	0.0001	0.00012	0.00029	7e-05	-0.00011	8e-05	-0.00027	6
32865	0.00023	0.0001	0.00012	0.00029	7e-05	-0.00011	8e-05	-0.00027	6
32866	0.00023	0.0001	0.00012	0.00029	7e-05	-0.00011	8e-05	-0.00027	6
32867	0.00023	0.0001	0.00012	0.00029	7e-05	-0.00011	8e-05	-0.00027	6
32868	0.00023	0.0001	0.00012	0.00029	7e-05	-0.00011	8e-05	-0.00027	6
32869	0.00023	0.0001	0.00012	0.00029	7e-05	-0.00011	8e-05	-0.00027	6
32870	0.00023	0.0001	0.00012	0.00029	7e-05	-0.00011	8e-05	-0.00027	6
32871	0.00023	0.0001	0.00012	0.00029	7e-05	-0.00011	8e-05	-0.00027	6
32872	0.00023	0.0001	0.00012	0.00029	7e-05	-0.00011	8e-05	-0.00027	6
32873	0.00023	0.0001	0.00012	0.00029	7e-05	-0.00011	8e-05	-0.00027	6
32874	0.00023	0.0001	0.00012	0.00029	7e-05	-0.00011	8e-05	-0.00027	6
32875	0.00064	8e-05	-7e-05	-7e-05	-0.00041	0.00027	0.00019	-0.00015	6
32876	0.00012	-4e-05	-8e-05	-0.00019	-0.00028	-0.00047	-0.00018	-0.00026	6
32877	0.00012	-4e-05	-8e-05	-0.00019	-0.00028	-0.00047	-0.00018	-0.00026	6
32878	0.00012	-4e-05	-8e-05	-0.00019	-0.00028	-0.00047	-0.00018	-0.00026	6
32879	0.00012	-4e-05	-8e-05	-0.00019	-0.00028	-0.00047	-0.00018	-0.00026	6
32880	0.00012	-4e-05	-8e-05	-0.00019	-0.00028	-0.00047	-0.00018	-0.00026	6
32881	0.00012	-4e-05	-8e-05	-0.00019	-0.00028	-0.00047	-0.00018	-0.00026	6
32882	0.00012	-4e-05	-8e-05	-0.00019	-0.00028	-0.00047	-0.00018	-0.00026	6
32883	0.00012	-4e-05	-8e-05	-0.00019	-0.00028	-0.00047	-0.00018	-0.00026	6
32884	0.00012	-4e-05	-8e-05	-0.00019	-0.00028	-0.00047	-0.00018	-0.00026	6
32885	0.00012	-4e-05	-8e-05	-0.00019	-0.00028	-0.00047	-0.00018	-0.00026	6
32886	0.00012	-4e-05	-8e-05	-0.00019	-0.00028	-0.00047	-0.00018	-0.00026	6
32888	-0.0003	-8e-05	-4e-05	-0.00019	-0.00015	-8e-05	6e-05	-0.00046	6
32889	0.00028	-7e-05	1e-05	4e-05	8e-05	0.00031	0.00012	-1e-05	6
32890	0.00028	-7e-05	1e-05	4e-05	8e-05	0.00031	0.00012	-1e-05	6
32891	0.00028	-7e-05	1e-05	4e-05	8e-05	0.00031	0.00012	-1e-05	6
32892	0.00028	-7e-05	1e-05	4e-05	8e-05	0.00031	0.00012	-1e-05	6
32893	0.00028	-7e-05	1e-05	4e-05	8e-05	0.00031	0.00012	-1e-05	6
32894	0.00028	-7e-05	1e-05	4e-05	8e-05	0.00031	0.00012	-1e-05	6
32895	0.00028	-7e-05	1e-05	4e-05	8e-05	0.00031	0.00012	-1e-05	6
32896	0.00028	-7e-05	1e-05	4e-05	8e-05	0.00031	0.00012	-1e-05	6
32897	0.0001	5e-05	0	1e-05	0.00015	-0.00045	2e-05	0.0002	6
32898	0.0001	5e-05	0	1e-05	0.00015	-0.00045	2e-05	0.0002	6
32899	0.0001	5e-05	0	1e-05	0.00015	-0.00045	2e-05	0.0002	6
32900	0.0001	5e-05	0	1e-05	0.00015	-0.00045	2e-05	0.0002	6
32901	0.0001	5e-05	0	1e-05	0.00015	-0.00045	2e-05	0.0002	6
32902	0.0001	5e-05	0	1e-05	0.00015	-0.00045	2e-05	0.0002	6
32903	0.0001	5e-05	0	1e-05	0.00015	-0.00045	2e-05	0.0002	6
32904	0.0001	5e-05	0	1e-05	0.00015	-0.00045	2e-05	0.0002	6
32905	0.0001	5e-05	0	1e-05	0.00015	-0.00045	2e-05	0.0002	6
32906	0.0001	5e-05	0	1e-05	0.00015	-0.00045	2e-05	0.0002	6
32907	0.0001	5e-05	0	1e-05	0.00015	-0.00045	2e-05	0.0002	6
32908	0.0001	5e-05	0	1e-05	0.00015	-0.00045	2e-05	0.0002	6
32909	0.0001	5e-05	0	1e-05	0.00015	-0.00045	2e-05	0.0002	6
32910	0.0001	5e-05	0	1e-05	0.00015	-0.00045	2e-05	0.0002	6
32911	0.0001	5e-05	0	1e-05	0.00015	-0.00045	2e-05	0.0002	6
32912	-0.00017	-4e-05	-2e-05	-5e-05	0.00011	0.00051	7e-05	-6e-05	6
32913	-0.00017	-4e-05	-2e-05	-5e-05	0.00011	0.00051	7e-05	-6e-05	6
32914	-0.00017	-7e-05	-0.0001	-0.0001	-0.00035	1e-05	5e-05	0.00027	6
32915	-0.00017	-7e-05	-0.0001	-0.0001	-0.00035	1e-05	5e-05	0.00027	6
32916	-0.00017	-7e-05	-0.0001	-0.0001	-0.00035	1e-05	5e-05	0.00027	6
32917	-0.00017	-7e-05	-0.0001	-0.0001	-0.00035	1e-05	5e-05	0.00027	6
32918	-0.00017	-7e-05	-0.0001	-0.0001	-0.00035	1e-05	5e-05	0.00027	6
32919	-0.00017	-7e-05	-0.0001	-0.0001	-0.00035	1e-05	5e-05	0.00027	6
32920	-0.00017	-7e-05	-0.0001	-0.0001	-0.00035	1e-05	5e-05	0.00027	6
32921	-0.00017	-7e-05	-0.0001	-0.0001	-0.00035	1e-05	5e-05	0.00027	6
32922	-0.00017	-7e-05	-0.0001	-0.0001	-0.00035	1e-05	5e-05	0.00027	6
32923	-0.00017	-7e-05	-0.0001	-0.0001	-0.00035	1e-05	5e-05	0.00027	6
32924	-0.00017	-7e-05	-0.0001	-0.0001	-0.00035	1e-05	5e-05	0.00027	6
32925	-0.00017	-7e-05	-0.0001	-0.0001	-0.00035	1e-05	5e-05	0.00027	6
32926	-0.00017	-7e-05	-0.0001	-0.0001	-0.00035	1e-05	5e-05	0.00027	6
32927	-0.00017	-7e-05	-0.0001	-0.0001	-0.00035	1e-05	5e-05	0.00027	6
32928	-0.00017	-7e-05	-0.0001	-0.0001	-0.00035	1e-05	5e-05	0.00027	6
32929	-0.00017	-7e-05	-0.0001	-0.0001	-0.00035	1e-05	5e-05	0.00027	6
32930	-0.00017	-7e-05	-0.0001	-0.0001	-0.00035	1e-05	5e-05	0.00027	6
32931	-0.00017	-7e-05	-0.0001	-0.0001	-0.00035	1e-05	5e-05	0.00027	6
32932	-0.00017	-7e-05	-0.0001	-0.0001	-0.00035	1e-05	5e-05	0.00027	6
32933	-0.00017	-7e-05	-0.0001	-0.0001	-0.00035	1e-05	5e-05	0.00027	6
32934	-0.00017	-7e-05	-0.0001	-0.0001	-0.00035	1e-05	5e-05	0.00027	6
32935	0.00014	7e-05	5e-05	-3e-05	0.00018	4e-05	-3e-05	0.00027	6
32936	3e-05	0	-1e-05	-6e-05	-0.00028	0.00018	-0.00038	-0.00093	6
32938	3e-05	0	-1e-05	-6e-05	-0.00028	0.00018	-0.00038	-0.00093	6
32939	3e-05	0	-1e-05	-6e-05	-0.00028	0.00018	-0.00038	-0.00093	6
32940	3e-05	0	-1e-05	-6e-05	-0.00028	0.00018	-0.00038	-0.00093	6
32941	3e-05	0	-1e-05	-6e-05	-0.00028	0.00018	-0.00038	-0.00093	6
32942	3e-05	0	-1e-05	-6e-05	-0.00028	0.00018	-0.00038	-0.00093	6
32943	3e-05	0	-1e-05	-6e-05	-0.00028	0.00018	-0.00038	-0.00093	6
32944	3e-05	0	-1e-05	-6e-05	-0.00028	0.00018	-0.00038	-0.00093	6
32945	3e-05	0	-1e-05	-6e-05	-0.00028	0.00018	-0.00038	-0.00093	6
32946	3e-05	0	-1e-05	-6e-05	-0.00028	0.00018	-0.00038	-0.00093	6
32947	3e-05	0	-1e-05	-6e-05	-0.00028	0.00018	-0.00038	-0.00093	6
32948	-0.0003	-3e-05	-1e-05	-5e-05	-0.00039	-0.00065	-2e-05	0.00028	6
32949	-0.0003	-3e-05	-1e-05	-5e-05	-0.00039	-0.00065	-2e-05	0.00028	6
32950	-0.0003	-3e-05	-1e-05	-5e-05	-0.00039	-0.00065	-2e-05	0.00028	6
32951	-0.0003	-3e-05	-1e-05	-5e-05	-0.00039	-0.00065	-2e-05	0.00028	6
32952	-0.0003	-3e-05	-1e-05	-5e-05	-0.00039	-0.00065	-2e-05	0.00028	6
32953	-0.0003	-3e-05	-1e-05	-5e-05	-0.00039	-0.00065	-2e-05	0.00028	6
32954	-0.0003	-3e-05	-1e-05	-5e-05	-0.00039	-0.00065	-2e-05	0.00028	6
32955	-0.0003	-3e-05	-1e-05	-5e-05	-0.00039	-0.00065	-2e-05	0.00028	6
32956	-0.0003	-3e-05	-1e-05	-5e-05	-0.00039	-0.00065	-2e-05	0.00028	6
32957	0.0001	-8e-05	-7e-05	-5e-05	9e-05	0.00016	-1e-05	0.00036	6
32958	0.0001	-8e-05	-7e-05	-5e-05	9e-05	0.00016	-1e-05	0.00036	6
32959	0.0001	-8e-05	-7e-05	-5e-05	9e-05	0.00016	-1e-05	0.00036	6
32960	0.0001	-8e-05	-7e-05	-5e-05	9e-05	0.00016	-1e-05	0.00036	6
32961	0.0001	-8e-05	-7e-05	-5e-05	9e-05	0.00016	-1e-05	0.00036	6
32962	0.0001	-8e-05	-7e-05	-5e-05	9e-05	0.00016	-1e-05	0.00036	6
32963	0.0001	-8e-05	-7e-05	-5e-05	9e-05	0.00016	-1e-05	0.00036	6
32964	0.0001	-8e-05	-7e-05	-5e-05	9e-05	0.00016	-1e-05	0.00036	6
32965	0.0001	-8e-05	-7e-05	-5e-05	9e-05	0.00016	-1e-05	0.00036	6
32966	0.0001	-8e-05	-7e-05	-5e-05	9e-05	0.00016	-1e-05	0.00036	6
32967	0.0001	-8e-05	-7e-05	-5e-05	9e-05	0.00016	-1e-05	0.00036	6
32968	0.0001	-8e-05	-7e-05	-5e-05	9e-05	0.00016	-1e-05	0.00036	6
32969	0.0001	-8e-05	-7e-05	-5e-05	9e-05	0.00016	-1e-05	0.00036	6
32970	0.0001	-8e-05	-7e-05	-5e-05	9e-05	0.00016	-1e-05	0.00036	6
32971	0.0001	-8e-05	-7e-05	-5e-05	9e-05	0.00016	-1e-05	0.00036	6
32972	0.00016	2e-05	1e-05	-8e-05	-0.00025	-8e-05	-5e-05	-5e-05	6
32973	0.00016	2e-05	1e-05	-8e-05	-0.00025	-8e-05	-5e-05	-5e-05	6
32974	-0.00016	6e-05	2e-05	3e-05	-0.00015	-2e-05	-0.00039	-0.00012	6
32975	-0.00016	6e-05	2e-05	3e-05	-0.00015	-2e-05	-0.00039	-0.00012	6
32976	-0.00016	6e-05	2e-05	3e-05	-0.00015	-2e-05	-0.00039	-0.00012	6
32977	-0.00016	6e-05	2e-05	3e-05	-0.00015	-2e-05	-0.00039	-0.00012	6
32978	-0.00016	6e-05	2e-05	3e-05	-0.00015	-2e-05	-0.00039	-0.00012	6
32979	-0.00016	6e-05	2e-05	3e-05	-0.00015	-2e-05	-0.00039	-0.00012	6
32980	-0.00016	6e-05	2e-05	3e-05	-0.00015	-2e-05	-0.00039	-0.00012	6
32981	-0.00016	6e-05	2e-05	3e-05	-0.00015	-2e-05	-0.00039	-0.00012	6
32982	-0.00016	6e-05	2e-05	3e-05	-0.00015	-2e-05	-0.00039	-0.00012	6
32983	-0.00016	6e-05	2e-05	3e-05	-0.00015	-2e-05	-0.00039	-0.00012	6
32984	-0.00016	6e-05	2e-05	3e-05	-0.00015	-2e-05	-0.00039	-0.00012	6
32985	-0.00016	6e-05	2e-05	3e-05	-0.00015	-2e-05	-0.00039	-0.00012	6
32986	-0.00016	6e-05	2e-05	3e-05	-0.00015	-2e-05	-0.00039	-0.00012	6
32988	-0.00016	6e-05	2e-05	3e-05	-0.00015	-2e-05	-0.00039	-0.00012	6
32989	-0.00016	6e-05	2e-05	3e-05	-0.00015	-2e-05	-0.00039	-0.00012	6
32990	-0.00016	6e-05	2e-05	3e-05	-0.00015	-2e-05	-0.00039	-0.00012	6
32991	-0.00016	6e-05	2e-05	3e-05	-0.00015	-2e-05	-0.00039	-0.00012	6
32992	-0.00016	6e-05	2e-05	3e-05	-0.00015	-2e-05	-0.00039	-0.00012	6
32993	-0.00016	6e-05	2e-05	3e-05	-0.00015	-2e-05	-0.00039	-0.00012	6
32994	-0.00016	6e-05	2e-05	3e-05	-0.00015	-2e-05	-0.00039	-0.00012	6
32995	0.0001	2e-05	-3e-05	0	2e-05	0.00059	0	-0.00054	6
32996	-0.00024	0	0	-5e-05	0.00013	-8e-05	0.0001	-2e-05	6
32997	-0.00024	0	0	-5e-05	0.00013	-8e-05	0.0001	-2e-05	6
32998	-0.00024	0	0	-5e-05	0.00013	-8e-05	0.0001	-2e-05	6
32999	-0.00024	0	0	-5e-05	0.00013	-8e-05	0.0001	-2e-05	6
33000	-0.00024	0	0	-5e-05	0.00013	-8e-05	0.0001	-2e-05	6
33001	-0.00024	0	0	-5e-05	0.00013	-8e-05	0.0001	-2e-05	6
33002	-0.00024	0	0	-5e-05	0.00013	-8e-05	0.0001	-2e-05	6
33003	-0.00024	0	0	-5e-05	0.00013	-8e-05	0.0001	-2e-05	6
33004	-0.00024	0	0	-5e-05	0.00013	-8e-05	0.0001	-2e-05	6
33005	-0.00024	0	0	-5e-05	0.00013	-8e-05	0.0001	-2e-05	6
33006	-0.00024	0	0	-5e-05	0.00013	-8e-05	0.0001	-2e-05	6
33007	-0.00024	0	0	-5e-05	0.00013	-8e-05	0.0001	-2e-05	6
33008	5e-05	3e-05	-6e-05	-6e-05	9e-05	-0.00035	-0.00014	0.00028	6
33009	5e-05	3e-05	-6e-05	-6e-05	9e-05	-0.00035	-0.00014	0.00028	6
33010	5e-05	3e-05	-6e-05	-6e-05	9e-05	-0.00035	-0.00014	0.00028	6
33011	5e-05	3e-05	-6e-05	-6e-05	9e-05	-0.00035	-0.00014	0.00028	6
33012	5e-05	3e-05	-6e-05	-6e-05	9e-05	-0.00035	-0.00014	0.00028	6
33013	5e-05	3e-05	-6e-05	-6e-05	9e-05	-0.00035	-0.00014	0.00028	6
33014	5e-05	3e-05	-6e-05	-6e-05	9e-05	-0.00035	-0.00014	0.00028	6
33015	5e-05	3e-05	-6e-05	-6e-05	9e-05	-0.00035	-0.00014	0.00028	6
33016	5e-05	3e-05	-6e-05	-6e-05	9e-05	-0.00035	-0.00014	0.00028	6
33017	-7e-05	-2e-05	2e-05	2e-05	0.00022	4e-05	0.00013	0.00024	6
33018	-7e-05	-2e-05	2e-05	2e-05	0.00022	4e-05	0.00013	0.00024	6
33019	-7e-05	-2e-05	2e-05	2e-05	0.00022	4e-05	0.00013	0.00024	6
33020	-7e-05	-2e-05	2e-05	2e-05	0.00022	4e-05	0.00013	0.00024	6
33021	-7e-05	-2e-05	2e-05	2e-05	0.00022	4e-05	0.00013	0.00024	6
33022	-7e-05	-2e-05	2e-05	2e-05	0.00022	4e-05	0.00013	0.00024	6
33023	-7e-05	-2e-05	2e-05	2e-05	0.00022	4e-05	0.00013	0.00024	6
33024	-7e-05	-2e-05	2e-05	2e-05	0.00022	4e-05	0.00013	0.00024	6
33025	-7e-05	-2e-05	2e-05	2e-05	0.00022	4e-05	0.00013	0.00024	6
33026	-7e-05	-2e-05	2e-05	2e-05	0.00022	4e-05	0.00013	0.00024	6
33027	-7e-05	-2e-05	2e-05	2e-05	0.00022	4e-05	0.00013	0.00024	6
33028	-7e-05	-2e-05	2e-05	2e-05	0.00022	4e-05	0.00013	0.00024	6
33029	-7e-05	-2e-05	2e-05	2e-05	0.00022	4e-05	0.00013	0.00024	6
33030	-7e-05	-2e-05	2e-05	2e-05	0.00022	4e-05	0.00013	0.00024	6
33031	-7e-05	-2e-05	2e-05	2e-05	0.00022	4e-05	0.00013	0.00024	6
33032	-0.00013	-9e-05	-7e-05	-9e-05	-0.00039	-0.00011	-5e-05	0.00038	6
33033	-0.00013	-9e-05	-7e-05	-9e-05	-0.00039	-0.00011	-5e-05	0.00038	6
33034	-0.00013	-4e-05	0	-4e-05	1e-05	0.00021	-7e-05	-0.0004	6
33035	-0.00013	-4e-05	0	-4e-05	1e-05	0.00021	-7e-05	-0.0004	6
33036	-0.00013	-4e-05	0	-4e-05	1e-05	0.00021	-7e-05	-0.0004	6
33038	-0.00013	-4e-05	0	-4e-05	1e-05	0.00021	-7e-05	-0.0004	6
33039	-0.00013	-4e-05	0	-4e-05	1e-05	0.00021	-7e-05	-0.0004	6
33040	-0.00013	-4e-05	0	-4e-05	1e-05	0.00021	-7e-05	-0.0004	6
33041	-0.00013	-4e-05	0	-4e-05	1e-05	0.00021	-7e-05	-0.0004	6
33042	-0.00013	-4e-05	0	-4e-05	1e-05	0.00021	-7e-05	-0.0004	6
33043	-0.00013	-4e-05	0	-4e-05	1e-05	0.00021	-7e-05	-0.0004	6
33044	-0.00013	-4e-05	0	-4e-05	1e-05	0.00021	-7e-05	-0.0004	6
33045	-0.00013	-4e-05	0	-4e-05	1e-05	0.00021	-7e-05	-0.0004	6
33046	-0.00013	-4e-05	0	-4e-05	1e-05	0.00021	-7e-05	-0.0004	6
33047	-0.00013	-4e-05	0	-4e-05	1e-05	0.00021	-7e-05	-0.0004	6
33048	-0.00013	-4e-05	0	-4e-05	1e-05	0.00021	-7e-05	-0.0004	6
33049	-0.00013	-4e-05	0	-4e-05	1e-05	0.00021	-7e-05	-0.0004	6
33050	-0.00013	-4e-05	0	-4e-05	1e-05	0.00021	-7e-05	-0.0004	6
33051	-0.00013	-4e-05	0	-4e-05	1e-05	0.00021	-7e-05	-0.0004	6
33052	-0.00013	-4e-05	0	-4e-05	1e-05	0.00021	-7e-05	-0.0004	6
33053	-0.00013	-4e-05	0	-4e-05	1e-05	0.00021	-7e-05	-0.0004	6
33054	0.00026	0	-8e-05	-0.00015	-8e-05	-1e-05	-9e-05	0.00043	6
33055	-9e-05	-4e-05	-4e-05	2e-05	6e-05	-2e-05	1e-05	0.00019	6
33056	9e-05	1e-05	3e-05	-4e-05	-0.00014	0.00025	0.00011	-0.00037	6
33057	9e-05	1e-05	3e-05	-4e-05	-0.00014	0.00025	0.00011	-0.00037	6
33058	9e-05	1e-05	3e-05	-4e-05	-0.00014	0.00025	0.00011	-0.00037	6
33059	9e-05	1e-05	3e-05	-4e-05	-0.00014	0.00025	0.00011	-0.00037	6
33060	9e-05	1e-05	3e-05	-4e-05	-0.00014	0.00025	0.00011	-0.00037	6
33061	9e-05	1e-05	3e-05	-4e-05	-0.00014	0.00025	0.00011	-0.00037	6
33062	9e-05	1e-05	3e-05	-4e-05	-0.00014	0.00025	0.00011	-0.00037	6
33063	9e-05	1e-05	3e-05	-4e-05	-0.00014	0.00025	0.00011	-0.00037	6
33064	9e-05	1e-05	3e-05	-4e-05	-0.00014	0.00025	0.00011	-0.00037	6
33065	9e-05	1e-05	3e-05	-4e-05	-0.00014	0.00025	0.00011	-0.00037	6
33066	9e-05	1e-05	3e-05	-4e-05	-0.00014	0.00025	0.00011	-0.00037	6
33067	9e-05	1e-05	3e-05	-4e-05	-0.00014	0.00025	0.00011	-0.00037	6
33068	-0.00015	-5e-05	-1e-05	4e-05	-4e-05	0.00021	-0.00029	-0.0011	6
33069	-0.00015	-5e-05	-1e-05	4e-05	-4e-05	0.00021	-0.00029	-0.0011	6
33070	-0.00015	-5e-05	-1e-05	4e-05	-4e-05	0.00021	-0.00029	-0.0011	6
33071	-0.00015	-5e-05	-1e-05	4e-05	-4e-05	0.00021	-0.00029	-0.0011	6
33072	-0.00015	-5e-05	-1e-05	4e-05	-4e-05	0.00021	-0.00029	-0.0011	6
33073	-0.00015	-5e-05	-1e-05	4e-05	-4e-05	0.00021	-0.00029	-0.0011	6
33074	-0.00015	-5e-05	-1e-05	4e-05	-4e-05	0.00021	-0.00029	-0.0011	6
33075	-0.00015	-5e-05	-1e-05	4e-05	-4e-05	0.00021	-0.00029	-0.0011	6
33076	-0.00015	-5e-05	-1e-05	4e-05	-4e-05	0.00021	-0.00029	-0.0011	6
33077	-4e-05	-4e-05	-3e-05	-3e-05	-0.00027	-0.0003	0	-0.00014	6
33078	-4e-05	-4e-05	-3e-05	-3e-05	-0.00027	-0.0003	0	-0.00014	6
33079	-4e-05	-4e-05	-3e-05	-3e-05	-0.00027	-0.0003	0	-0.00014	6
33080	-4e-05	-4e-05	-3e-05	-3e-05	-0.00027	-0.0003	0	-0.00014	6
33081	-4e-05	-4e-05	-3e-05	-3e-05	-0.00027	-0.0003	0	-0.00014	6
33082	-4e-05	-4e-05	-3e-05	-3e-05	-0.00027	-0.0003	0	-0.00014	6
33083	-4e-05	-4e-05	-3e-05	-3e-05	-0.00027	-0.0003	0	-0.00014	6
33084	-4e-05	-4e-05	-3e-05	-3e-05	-0.00027	-0.0003	0	-0.00014	6
33085	-4e-05	-4e-05	-3e-05	-3e-05	-0.00027	-0.0003	0	-0.00014	6
33086	-4e-05	-4e-05	-3e-05	-3e-05	-0.00027	-0.0003	0	-0.00014	6
33088	-4e-05	-4e-05	-3e-05	-3e-05	-0.00027	-0.0003	0	-0.00014	6
33089	-4e-05	-4e-05	-3e-05	-3e-05	-0.00027	-0.0003	0	-0.00014	6
33090	-4e-05	-4e-05	-3e-05	-3e-05	-0.00027	-0.0003	0	-0.00014	6
33091	-4e-05	-4e-05	-3e-05	-3e-05	-0.00027	-0.0003	0	-0.00014	6
33092	0.0002	5e-05	-2e-05	-6e-05	-0.00011	-0.00057	-8e-05	0.00076	6
33093	0.0002	5e-05	-2e-05	-6e-05	-0.00011	-0.00057	-8e-05	0.00076	6
33094	-1e-05	-8e-05	-0.00011	-0.0001	0.00014	-0.00028	-1e-05	0.0003	6
33095	-1e-05	-8e-05	-0.00011	-0.0001	0.00014	-0.00028	-1e-05	0.0003	6
33096	-1e-05	-8e-05	-0.00011	-0.0001	0.00014	-0.00028	-1e-05	0.0003	6
33097	-1e-05	-8e-05	-0.00011	-0.0001	0.00014	-0.00028	-1e-05	0.0003	6
33098	-1e-05	-8e-05	-0.00011	-0.0001	0.00014	-0.00028	-1e-05	0.0003	6
33099	-1e-05	-8e-05	-0.00011	-0.0001	0.00014	-0.00028	-1e-05	0.0003	6
33100	-1e-05	-8e-05	-0.00011	-0.0001	0.00014	-0.00028	-1e-05	0.0003	6
33101	-1e-05	-8e-05	-0.00011	-0.0001	0.00014	-0.00028	-1e-05	0.0003	6
33102	-1e-05	-8e-05	-0.00011	-0.0001	0.00014	-0.00028	-1e-05	0.0003	6
33103	-1e-05	-8e-05	-0.00011	-0.0001	0.00014	-0.00028	-1e-05	0.0003	6
33104	-1e-05	-8e-05	-0.00011	-0.0001	0.00014	-0.00028	-1e-05	0.0003	6
33105	-1e-05	-8e-05	-0.00011	-0.0001	0.00014	-0.00028	-1e-05	0.0003	6
33106	-1e-05	-8e-05	-0.00011	-0.0001	0.00014	-0.00028	-1e-05	0.0003	6
33107	-1e-05	-8e-05	-0.00011	-0.0001	0.00014	-0.00028	-1e-05	0.0003	6
33108	-1e-05	-8e-05	-0.00011	-0.0001	0.00014	-0.00028	-1e-05	0.0003	6
33109	-1e-05	-8e-05	-0.00011	-0.0001	0.00014	-0.00028	-1e-05	0.0003	6
33110	-1e-05	-8e-05	-0.00011	-0.0001	0.00014	-0.00028	-1e-05	0.0003	6
33111	-1e-05	-8e-05	-0.00011	-0.0001	0.00014	-0.00028	-1e-05	0.0003	6
33112	-1e-05	-8e-05	-0.00011	-0.0001	0.00014	-0.00028	-1e-05	0.0003	6
33113	-1e-05	-8e-05	-0.00011	-0.0001	0.00014	-0.00028	-1e-05	0.0003	6
33114	-1e-05	-8e-05	-0.00011	-0.0001	0.00014	-0.00028	-1e-05	0.0003	6
33115	-0.00032	-2e-05	2e-05	5e-05	0.00016	4e-05	-2e-05	-0.00085	6
33116	0.00024	4e-05	-1e-05	1e-05	0.00025	0.0003	0.00015	-9e-05	6
33117	0.00024	4e-05	-1e-05	1e-05	0.00025	0.0003	0.00015	-9e-05	6
33118	0.00024	4e-05	-1e-05	1e-05	0.00025	0.0003	0.00015	-9e-05	6
33119	0.00024	4e-05	-1e-05	1e-05	0.00025	0.0003	0.00015	-9e-05	6
33120	0.00024	4e-05	-1e-05	1e-05	0.00025	0.0003	0.00015	-9e-05	6
33121	0.00024	4e-05	-1e-05	1e-05	0.00025	0.0003	0.00015	-9e-05	6
33122	0.00024	4e-05	-1e-05	1e-05	0.00025	0.0003	0.00015	-9e-05	6
33123	0.00024	4e-05	-1e-05	1e-05	0.00025	0.0003	0.00015	-9e-05	6
33124	0.00024	4e-05	-1e-05	1e-05	0.00025	0.0003	0.00015	-9e-05	6
33125	0.00024	4e-05	-1e-05	1e-05	0.00025	0.0003	0.00015	-9e-05	6
33126	0.00024	4e-05	-1e-05	1e-05	0.00025	0.0003	0.00015	-9e-05	6
33127	0.00024	4e-05	-1e-05	1e-05	0.00025	0.0003	0.00015	-9e-05	6
33128	0.00025	-4e-05	-4e-05	-8e-05	0.00041	0.00016	-2e-05	4e-05	6
33129	0.00025	-4e-05	-4e-05	-8e-05	0.00041	0.00016	-2e-05	4e-05	6
33130	0.00025	-4e-05	-4e-05	-8e-05	0.00041	0.00016	-2e-05	4e-05	6
33131	0.00025	-4e-05	-4e-05	-8e-05	0.00041	0.00016	-2e-05	4e-05	6
33132	0.00025	-4e-05	-4e-05	-8e-05	0.00041	0.00016	-2e-05	4e-05	6
33133	0.00025	-4e-05	-4e-05	-8e-05	0.00041	0.00016	-2e-05	4e-05	6
33134	0.00025	-4e-05	-4e-05	-8e-05	0.00041	0.00016	-2e-05	4e-05	6
33135	0.00025	-4e-05	-4e-05	-8e-05	0.00041	0.00016	-2e-05	4e-05	6
33136	0.00025	-4e-05	-4e-05	-8e-05	0.00041	0.00016	-2e-05	4e-05	6
33138	-0.00016	2e-05	1e-05	5e-05	0.00029	0.00012	6e-05	-0.00025	6
33139	-0.00016	2e-05	1e-05	5e-05	0.00029	0.00012	6e-05	-0.00025	6
33140	-0.00016	2e-05	1e-05	5e-05	0.00029	0.00012	6e-05	-0.00025	6
33141	-0.00016	2e-05	1e-05	5e-05	0.00029	0.00012	6e-05	-0.00025	6
33142	-0.00016	2e-05	1e-05	5e-05	0.00029	0.00012	6e-05	-0.00025	6
33143	-0.00016	2e-05	1e-05	5e-05	0.00029	0.00012	6e-05	-0.00025	6
33144	-0.00016	2e-05	1e-05	5e-05	0.00029	0.00012	6e-05	-0.00025	6
33145	-0.00016	2e-05	1e-05	5e-05	0.00029	0.00012	6e-05	-0.00025	6
33146	-0.00016	2e-05	1e-05	5e-05	0.00029	0.00012	6e-05	-0.00025	6
33147	-0.00016	2e-05	1e-05	5e-05	0.00029	0.00012	6e-05	-0.00025	6
33148	-0.00016	2e-05	1e-05	5e-05	0.00029	0.00012	6e-05	-0.00025	6
33149	-0.00016	2e-05	1e-05	5e-05	0.00029	0.00012	6e-05	-0.00025	6
33150	-0.00016	2e-05	1e-05	5e-05	0.00029	0.00012	6e-05	-0.00025	6
33151	-0.00016	2e-05	1e-05	5e-05	0.00029	0.00012	6e-05	-0.00025	6
33152	8e-05	-1e-05	6e-05	0.0001	0.00035	0.00074	0.00021	0.00028	6
33153	8e-05	-1e-05	6e-05	0.0001	0.00035	0.00074	0.00021	0.00028	6
33154	0.00025	-1e-05	-1e-05	1e-05	-8e-05	-0.00011	-4e-05	0.00042	6
33155	0.00025	-1e-05	-1e-05	1e-05	-8e-05	-0.00011	-4e-05	0.00042	6
33156	0.00025	-1e-05	-1e-05	1e-05	-8e-05	-0.00011	-4e-05	0.00042	6
33157	0.00025	-1e-05	-1e-05	1e-05	-8e-05	-0.00011	-4e-05	0.00042	6
33158	0.00025	-1e-05	-1e-05	1e-05	-8e-05	-0.00011	-4e-05	0.00042	6
33159	0.00025	-1e-05	-1e-05	1e-05	-8e-05	-0.00011	-4e-05	0.00042	6
33160	0.00025	-1e-05	-1e-05	1e-05	-8e-05	-0.00011	-4e-05	0.00042	6
33161	0.00025	-1e-05	-1e-05	1e-05	-8e-05	-0.00011	-4e-05	0.00042	6
33162	0.00025	-1e-05	-1e-05	1e-05	-8e-05	-0.00011	-4e-05	0.00042	6
33163	0.00025	-1e-05	-1e-05	1e-05	-8e-05	-0.00011	-4e-05	0.00042	6
33164	0.00025	-1e-05	-1e-05	1e-05	-8e-05	-0.00011	-4e-05	0.00042	6
33165	0.00025	-1e-05	-1e-05	1e-05	-8e-05	-0.00011	-4e-05	0.00042	6
33166	0.00025	-1e-05	-1e-05	1e-05	-8e-05	-0.00011	-4e-05	0.00042	6
33167	0.00025	-1e-05	-1e-05	1e-05	-8e-05	-0.00011	-4e-05	0.00042	6
33168	0.00025	-1e-05	-1e-05	1e-05	-8e-05	-0.00011	-4e-05	0.00042	6
33169	0.00025	-1e-05	-1e-05	1e-05	-8e-05	-0.00011	-4e-05	0.00042	6
33170	0.00025	-1e-05	-1e-05	1e-05	-8e-05	-0.00011	-4e-05	0.00042	6
33171	0.00025	-1e-05	-1e-05	1e-05	-8e-05	-0.00011	-4e-05	0.00042	6
33172	0.00025	-1e-05	-1e-05	1e-05	-8e-05	-0.00011	-4e-05	0.00042	6
33173	0.00025	-1e-05	-1e-05	1e-05	-8e-05	-0.00011	-4e-05	0.00042	6
33174	0.00025	-1e-05	-1e-05	1e-05	-8e-05	-0.00011	-4e-05	0.00042	6
33175	0.00022	5e-05	1e-05	8e-05	3e-05	-0.0008	0.00021	0.00084	6
33176	9e-05	1e-05	0	-7e-05	9e-05	0.00021	-0.0001	0.00087	6
33177	9e-05	1e-05	0	-7e-05	9e-05	0.00021	-0.0001	0.00087	6
33178	9e-05	1e-05	0	-7e-05	9e-05	0.00021	-0.0001	0.00087	6
33179	9e-05	1e-05	0	-7e-05	9e-05	0.00021	-0.0001	0.00087	6
33180	9e-05	1e-05	0	-7e-05	9e-05	0.00021	-0.0001	0.00087	6
33181	9e-05	1e-05	0	-7e-05	9e-05	0.00021	-0.0001	0.00087	6
33182	9e-05	1e-05	0	-7e-05	9e-05	0.00021	-0.0001	0.00087	6
33183	9e-05	1e-05	0	-7e-05	9e-05	0.00021	-0.0001	0.00087	6
33184	9e-05	1e-05	0	-7e-05	9e-05	0.00021	-0.0001	0.00087	6
33185	9e-05	1e-05	0	-7e-05	9e-05	0.00021	-0.0001	0.00087	6
33186	9e-05	1e-05	0	-7e-05	9e-05	0.00021	-0.0001	0.00087	6
33188	-3e-05	2e-05	5e-05	6e-05	0.00035	-0.00023	-1e-05	-1e-05	6
33190	-3e-05	2e-05	5e-05	6e-05	0.00035	-0.00023	-1e-05	-1e-05	6
33191	-3e-05	2e-05	5e-05	6e-05	0.00035	-0.00023	-1e-05	-1e-05	6
33192	-3e-05	2e-05	5e-05	6e-05	0.00035	-0.00023	-1e-05	-1e-05	6
33193	-3e-05	2e-05	5e-05	6e-05	0.00035	-0.00023	-1e-05	-1e-05	6
33194	-3e-05	2e-05	5e-05	6e-05	0.00035	-0.00023	-1e-05	-1e-05	6
33195	-3e-05	2e-05	5e-05	6e-05	0.00035	-0.00023	-1e-05	-1e-05	6
33196	-3e-05	2e-05	5e-05	6e-05	0.00035	-0.00023	-1e-05	-1e-05	6
33197	-0.00013	5e-05	9e-05	0.00013	0.0001	-0.00016	-8e-05	-0.00061	6
33198	-0.00013	5e-05	9e-05	0.00013	0.0001	-0.00016	-8e-05	-0.00061	6
33199	-0.00013	5e-05	9e-05	0.00013	0.0001	-0.00016	-8e-05	-0.00061	6
33200	-0.00013	5e-05	9e-05	0.00013	0.0001	-0.00016	-8e-05	-0.00061	6
33201	-0.00013	5e-05	9e-05	0.00013	0.0001	-0.00016	-8e-05	-0.00061	6
33202	-0.00013	5e-05	9e-05	0.00013	0.0001	-0.00016	-8e-05	-0.00061	6
33203	-0.00013	5e-05	9e-05	0.00013	0.0001	-0.00016	-8e-05	-0.00061	6
33204	-0.00013	5e-05	9e-05	0.00013	0.0001	-0.00016	-8e-05	-0.00061	6
33205	-0.00013	5e-05	9e-05	0.00013	0.0001	-0.00016	-8e-05	-0.00061	6
33206	-0.00013	5e-05	9e-05	0.00013	0.0001	-0.00016	-8e-05	-0.00061	6
33207	-0.00013	5e-05	9e-05	0.00013	0.0001	-0.00016	-8e-05	-0.00061	6
33208	-0.00013	5e-05	9e-05	0.00013	0.0001	-0.00016	-8e-05	-0.00061	6
33209	-0.00013	5e-05	9e-05	0.00013	0.0001	-0.00016	-8e-05	-0.00061	6
33210	-0.00013	5e-05	9e-05	0.00013	0.0001	-0.00016	-8e-05	-0.00061	6
33211	-0.00013	5e-05	9e-05	0.00013	0.0001	-0.00016	-8e-05	-0.00061	6
33212	-3e-05	-4e-05	0	-8e-05	-0.00065	-0.00034	-8e-05	-0.00013	6
33213	0.00017	2e-05	-1e-05	-2e-05	-0.00012	0.00016	0.00014	0.00055	6
33214	0.00021	-7e-05	-2e-05	-6e-05	-0.00011	-0.00057	-0.00015	-0.00037	6
33215	0.00021	-7e-05	-2e-05	-6e-05	-0.00011	-0.00057	-0.00015	-0.00037	6
33216	0.00021	-7e-05	-2e-05	-6e-05	-0.00011	-0.00057	-0.00015	-0.00037	6
33217	0.00021	-7e-05	-2e-05	-6e-05	-0.00011	-0.00057	-0.00015	-0.00037	6
33218	0.00021	-7e-05	-2e-05	-6e-05	-0.00011	-0.00057	-0.00015	-0.00037	6
33219	0.00021	-7e-05	-2e-05	-6e-05	-0.00011	-0.00057	-0.00015	-0.00037	6
33220	0.00021	-7e-05	-2e-05	-6e-05	-0.00011	-0.00057	-0.00015	-0.00037	6
33221	0.00021	-7e-05	-2e-05	-6e-05	-0.00011	-0.00057	-0.00015	-0.00037	6
33222	0.00021	-7e-05	-2e-05	-6e-05	-0.00011	-0.00057	-0.00015	-0.00037	6
33223	0.00021	-7e-05	-2e-05	-6e-05	-0.00011	-0.00057	-0.00015	-0.00037	6
33224	0.00021	-7e-05	-2e-05	-6e-05	-0.00011	-0.00057	-0.00015	-0.00037	6
33225	0.00021	-7e-05	-2e-05	-6e-05	-0.00011	-0.00057	-0.00015	-0.00037	6
33226	0.00021	-7e-05	-2e-05	-6e-05	-0.00011	-0.00057	-0.00015	-0.00037	6
33227	0.00021	-7e-05	-2e-05	-6e-05	-0.00011	-0.00057	-0.00015	-0.00037	6
33228	0.00021	-7e-05	-2e-05	-6e-05	-0.00011	-0.00057	-0.00015	-0.00037	6
33229	0.00021	-7e-05	-2e-05	-6e-05	-0.00011	-0.00057	-0.00015	-0.00037	6
33230	0.00021	-7e-05	-2e-05	-6e-05	-0.00011	-0.00057	-0.00015	-0.00037	6
33231	0.00021	-7e-05	-2e-05	-6e-05	-0.00011	-0.00057	-0.00015	-0.00037	6
33232	0.00021	-7e-05	-2e-05	-6e-05	-0.00011	-0.00057	-0.00015	-0.00037	6
33233	0.00021	-7e-05	-2e-05	-6e-05	-0.00011	-0.00057	-0.00015	-0.00037	6
33234	0.00021	-7e-05	-2e-05	-6e-05	-0.00011	-0.00057	-0.00015	-0.00037	6
33235	-0.0002	1e-05	3e-05	-4e-05	-0.00032	-9e-05	-0.00015	-0.00018	6
33236	-0.0002	1e-05	3e-05	-4e-05	-0.00032	-9e-05	-0.00015	-0.00018	6
33239	0.00026	5e-05	-2e-05	-5e-05	-0.00025	3e-05	0	0.0001	6
33240	0.00026	5e-05	-2e-05	-5e-05	-0.00025	3e-05	0	0.0001	6
33241	0.00026	5e-05	-2e-05	-5e-05	-0.00025	3e-05	0	0.0001	6
33242	0.00026	5e-05	-2e-05	-5e-05	-0.00025	3e-05	0	0.0001	6
33243	0.00026	5e-05	-2e-05	-5e-05	-0.00025	3e-05	0	0.0001	6
33244	0.00026	5e-05	-2e-05	-5e-05	-0.00025	3e-05	0	0.0001	6
33245	0.00026	5e-05	-2e-05	-5e-05	-0.00025	3e-05	0	0.0001	6
33246	0.00026	5e-05	-2e-05	-5e-05	-0.00025	3e-05	0	0.0001	6
33247	0.00026	5e-05	-2e-05	-5e-05	-0.00025	3e-05	0	0.0001	6
33248	-0.00028	-4e-05	-4e-05	-7e-05	-0.0004	-0.00047	-0.0002	-0.00026	6
33249	-0.00028	-4e-05	-4e-05	-7e-05	-0.0004	-0.00047	-0.0002	-0.00026	6
33250	-0.00028	-4e-05	-4e-05	-7e-05	-0.0004	-0.00047	-0.0002	-0.00026	6
33251	-0.00028	-4e-05	-4e-05	-7e-05	-0.0004	-0.00047	-0.0002	-0.00026	6
33252	-0.00028	-4e-05	-4e-05	-7e-05	-0.0004	-0.00047	-0.0002	-0.00026	6
33253	-0.00028	-4e-05	-4e-05	-7e-05	-0.0004	-0.00047	-0.0002	-0.00026	6
33254	-0.00028	-4e-05	-4e-05	-7e-05	-0.0004	-0.00047	-0.0002	-0.00026	6
33255	-0.00028	-4e-05	-4e-05	-7e-05	-0.0004	-0.00047	-0.0002	-0.00026	6
33256	-0.00028	-4e-05	-4e-05	-7e-05	-0.0004	-0.00047	-0.0002	-0.00026	6
33257	-0.00012	-7e-05	-8e-05	-5e-05	-0.00021	0.00057	-0.00015	-0.0003	6
33258	-0.00012	-7e-05	-8e-05	-5e-05	-0.00021	0.00057	-0.00015	-0.0003	6
33259	-0.00012	-7e-05	-8e-05	-5e-05	-0.00021	0.00057	-0.00015	-0.0003	6
33260	-0.00012	-7e-05	-8e-05	-5e-05	-0.00021	0.00057	-0.00015	-0.0003	6
33261	-0.00012	-7e-05	-8e-05	-5e-05	-0.00021	0.00057	-0.00015	-0.0003	6
33262	-0.00012	-7e-05	-8e-05	-5e-05	-0.00021	0.00057	-0.00015	-0.0003	6
33263	-0.00012	-7e-05	-8e-05	-5e-05	-0.00021	0.00057	-0.00015	-0.0003	6
33264	-0.00012	-7e-05	-8e-05	-5e-05	-0.00021	0.00057	-0.00015	-0.0003	6
33265	-0.00012	-7e-05	-8e-05	-5e-05	-0.00021	0.00057	-0.00015	-0.0003	6
33266	-0.00012	-7e-05	-8e-05	-5e-05	-0.00021	0.00057	-0.00015	-0.0003	6
33267	-0.00012	-7e-05	-8e-05	-5e-05	-0.00021	0.00057	-0.00015	-0.0003	6
33268	-0.00012	-7e-05	-8e-05	-5e-05	-0.00021	0.00057	-0.00015	-0.0003	6
33269	-0.00012	-7e-05	-8e-05	-5e-05	-0.00021	0.00057	-0.00015	-0.0003	6
33270	-0.00012	-7e-05	-8e-05	-5e-05	-0.00021	0.00057	-0.00015	-0.0003	6
33271	-0.00012	-7e-05	-8e-05	-5e-05	-0.00021	0.00057	-0.00015	-0.0003	6
33272	0.00028	5e-05	2e-05	4e-05	0.00019	-0.0001	-0.00025	-6e-05	6
33273	0.00028	5e-05	2e-05	4e-05	0.00019	-0.0001	-0.00025	-6e-05	6
33274	-0.00014	1e-05	1e-05	-2e-05	0.00011	0.00033	9e-05	0.00028	6
33275	-0.00014	1e-05	1e-05	-2e-05	0.00011	0.00033	9e-05	0.00028	6
33276	-0.00014	1e-05	1e-05	-2e-05	0.00011	0.00033	9e-05	0.00028	6
33277	-0.00014	1e-05	1e-05	-2e-05	0.00011	0.00033	9e-05	0.00028	6
33278	-0.00014	1e-05	1e-05	-2e-05	0.00011	0.00033	9e-05	0.00028	6
33279	-0.00014	1e-05	1e-05	-2e-05	0.00011	0.00033	9e-05	0.00028	6
33280	-0.00014	1e-05	1e-05	-2e-05	0.00011	0.00033	9e-05	0.00028	6
33281	-0.00014	1e-05	1e-05	-2e-05	0.00011	0.00033	9e-05	0.00028	6
33282	-0.00014	1e-05	1e-05	-2e-05	0.00011	0.00033	9e-05	0.00028	6
33283	-0.00014	1e-05	1e-05	-2e-05	0.00011	0.00033	9e-05	0.00028	6
33284	-0.00014	1e-05	1e-05	-2e-05	0.00011	0.00033	9e-05	0.00028	6
33285	-0.00014	1e-05	1e-05	-2e-05	0.00011	0.00033	9e-05	0.00028	6
33286	-0.00014	1e-05	1e-05	-2e-05	0.00011	0.00033	9e-05	0.00028	6
33288	-0.00014	1e-05	1e-05	-2e-05	0.00011	0.00033	9e-05	0.00028	6
33289	-0.00014	1e-05	1e-05	-2e-05	0.00011	0.00033	9e-05	0.00028	6
33290	-0.00014	1e-05	1e-05	-2e-05	0.00011	0.00033	9e-05	0.00028	6
33291	-0.00014	1e-05	1e-05	-2e-05	0.00011	0.00033	9e-05	0.00028	6
33292	-0.00014	1e-05	1e-05	-2e-05	0.00011	0.00033	9e-05	0.00028	6
33293	-0.00014	1e-05	1e-05	-2e-05	0.00011	0.00033	9e-05	0.00028	6
33294	-2e-05	5e-05	3e-05	0.00012	0.0003	-0.00018	-0.00016	-0.00017	6
33295	3e-05	-8e-05	-7e-05	-8e-05	-0.00038	-2e-05	0.00028	0.00022	6
33296	3e-05	-8e-05	-7e-05	-8e-05	-0.00038	-2e-05	0.00028	0.00022	6
33297	-0.0001	-5e-05	-6e-05	-0.00014	-0.00026	7e-05	-0.00018	0.00022	6
33298	-0.0001	-5e-05	-6e-05	-0.00014	-0.00026	7e-05	-0.00018	0.00022	6
33299	-0.0001	-5e-05	-6e-05	-0.00014	-0.00026	7e-05	-0.00018	0.00022	6
33300	-0.0001	-5e-05	-6e-05	-0.00014	-0.00026	7e-05	-0.00018	0.00022	6
33301	-0.0001	-5e-05	-6e-05	-0.00014	-0.00026	7e-05	-0.00018	0.00022	6
33302	-0.0001	-5e-05	-6e-05	-0.00014	-0.00026	7e-05	-0.00018	0.00022	6
33303	-0.0001	-5e-05	-6e-05	-0.00014	-0.00026	7e-05	-0.00018	0.00022	6
33304	-0.0001	-5e-05	-6e-05	-0.00014	-0.00026	7e-05	-0.00018	0.00022	6
33305	-0.0001	-5e-05	-6e-05	-0.00014	-0.00026	7e-05	-0.00018	0.00022	6
33306	-0.0001	-5e-05	-6e-05	-0.00014	-0.00026	7e-05	-0.00018	0.00022	6
33307	-0.0001	-5e-05	-6e-05	-0.00014	-0.00026	7e-05	-0.00018	0.00022	6
33308	-0.0001	-5e-05	-6e-05	-0.00014	-0.00026	7e-05	-0.00018	0.00022	6
33309	-0.0001	-5e-05	-6e-05	-0.00014	-0.00026	7e-05	-0.00018	0.00022	6
33310	-0.0001	-5e-05	-6e-05	-0.00014	-0.00026	7e-05	-0.00018	0.00022	6
33311	-0.0001	-5e-05	-6e-05	-0.00014	-0.00026	7e-05	-0.00018	0.00022	6
33312	-0.0001	-5e-05	-6e-05	-0.00014	-0.00026	7e-05	-0.00018	0.00022	6
33313	-0.0001	-5e-05	-6e-05	-0.00014	-0.00026	7e-05	-0.00018	0.00022	6
33314	-0.0001	-5e-05	-6e-05	-0.00014	-0.00026	7e-05	-0.00018	0.00022	6
33315	-0.0001	-5e-05	-6e-05	-0.00014	-0.00026	7e-05	-0.00018	0.00022	6
33316	-0.0001	-5e-05	-6e-05	-0.00014	-0.00026	7e-05	-0.00018	0.00022	6
33317	-0.00024	4e-05	2e-05	6e-05	0.00016	0.00027	8e-05	2e-05	6
33318	-0.00024	4e-05	2e-05	6e-05	0.00016	0.00027	8e-05	2e-05	6
33319	-0.00024	4e-05	2e-05	6e-05	0.00016	0.00027	8e-05	2e-05	6
33320	-0.00024	4e-05	2e-05	6e-05	0.00016	0.00027	8e-05	2e-05	6
33321	-0.00024	4e-05	2e-05	6e-05	0.00016	0.00027	8e-05	2e-05	6
33322	-0.00024	4e-05	2e-05	6e-05	0.00016	0.00027	8e-05	2e-05	6
33323	-0.00024	4e-05	2e-05	6e-05	0.00016	0.00027	8e-05	2e-05	6
33324	-0.00024	4e-05	2e-05	6e-05	0.00016	0.00027	8e-05	2e-05	6
33325	0.0002	-7e-05	-9e-05	-8e-05	-0.00014	9e-05	1e-05	0.00017	6
33326	0.0002	-7e-05	-9e-05	-8e-05	-0.00014	9e-05	1e-05	0.00017	6
33327	0.0002	-7e-05	-9e-05	-8e-05	-0.00014	9e-05	1e-05	0.00017	6
33328	0.0002	-7e-05	-9e-05	-8e-05	-0.00014	9e-05	1e-05	0.00017	6
33329	0.0002	-7e-05	-9e-05	-8e-05	-0.00014	9e-05	1e-05	0.00017	6
33330	0.0002	-7e-05	-9e-05	-8e-05	-0.00014	9e-05	1e-05	0.00017	6
33331	0.0002	-7e-05	-9e-05	-8e-05	-0.00014	9e-05	1e-05	0.00017	6
33332	-8e-05	1e-05	2e-05	3e-05	-0.0001	0.00033	-3e-05	-0.00058	6
33333	-8e-05	1e-05	2e-05	3e-05	-0.0001	0.00033	-3e-05	-0.00058	6
33334	-0.0001	2e-05	1e-05	7e-05	1e-05	-0.00011	7e-05	-0.00035	6
33335	-0.0001	2e-05	1e-05	7e-05	1e-05	-0.00011	7e-05	-0.00035	6
33336	-0.0001	2e-05	1e-05	7e-05	1e-05	-0.00011	7e-05	-0.00035	6
33338	-0.0001	2e-05	1e-05	7e-05	1e-05	-0.00011	7e-05	-0.00035	6
33339	-0.0001	2e-05	1e-05	7e-05	1e-05	-0.00011	7e-05	-0.00035	6
33340	-0.0001	2e-05	1e-05	7e-05	1e-05	-0.00011	7e-05	-0.00035	6
33341	-0.0001	2e-05	1e-05	7e-05	1e-05	-0.00011	7e-05	-0.00035	6
33342	-0.0001	2e-05	1e-05	7e-05	1e-05	-0.00011	7e-05	-0.00035	6
33343	-0.0001	2e-05	1e-05	7e-05	1e-05	-0.00011	7e-05	-0.00035	6
33344	-0.0001	2e-05	1e-05	7e-05	1e-05	-0.00011	7e-05	-0.00035	6
33345	-0.0001	2e-05	1e-05	7e-05	1e-05	-0.00011	7e-05	-0.00035	6
33346	-0.0001	2e-05	1e-05	7e-05	1e-05	-0.00011	7e-05	-0.00035	6
33347	-0.0001	2e-05	1e-05	7e-05	1e-05	-0.00011	7e-05	-0.00035	6
33348	-0.0001	2e-05	1e-05	7e-05	1e-05	-0.00011	7e-05	-0.00035	6
33349	-0.0001	2e-05	1e-05	7e-05	1e-05	-0.00011	7e-05	-0.00035	6
33350	-0.0001	2e-05	1e-05	7e-05	1e-05	-0.00011	7e-05	-0.00035	6
33351	-0.0001	2e-05	1e-05	7e-05	1e-05	-0.00011	7e-05	-0.00035	6
33352	-0.0001	2e-05	1e-05	7e-05	1e-05	-0.00011	7e-05	-0.00035	6
33353	-0.0001	2e-05	1e-05	7e-05	1e-05	-0.00011	7e-05	-0.00035	6
33354	-0.0001	2e-05	1e-05	7e-05	1e-05	-0.00011	7e-05	-0.00035	6
33355	-0.00019	-8e-05	-1e-05	-1e-05	0.00018	-0.00016	1e-05	8e-05	6
33356	-0.00013	-4e-05	-1e-05	8e-05	0.00049	5e-05	0.00012	0.00042	6
33357	-0.00013	-4e-05	-1e-05	8e-05	0.00049	5e-05	0.00012	0.00042	6
33358	-0.00013	-4e-05	-1e-05	8e-05	0.00049	5e-05	0.00012	0.00042	6
33359	-0.00013	-4e-05	-1e-05	8e-05	0.00049	5e-05	0.00012	0.00042	6
33360	-0.00013	-4e-05	-1e-05	8e-05	0.00049	5e-05	0.00012	0.00042	6
33361	-0.00013	-4e-05	-1e-05	8e-05	0.00049	5e-05	0.00012	0.00042	6
33362	-0.00013	-4e-05	-1e-05	8e-05	0.00049	5e-05	0.00012	0.00042	6
33363	-0.00013	-4e-05	-1e-05	8e-05	0.00049	5e-05	0.00012	0.00042	6
33364	-0.00013	-4e-05	-1e-05	8e-05	0.00049	5e-05	0.00012	0.00042	6
33365	-0.00013	-4e-05	-1e-05	8e-05	0.00049	5e-05	0.00012	0.00042	6
33366	-0.00013	-4e-05	-1e-05	8e-05	0.00049	5e-05	0.00012	0.00042	6
33367	-0.00013	-4e-05	-1e-05	8e-05	0.00049	5e-05	0.00012	0.00042	6
33368	-0.00013	-4e-05	-1e-05	8e-05	0.00049	5e-05	0.00012	0.00042	6
33369	-0.00013	-4e-05	-1e-05	8e-05	0.00049	5e-05	0.00012	0.00042	6
33370	-0.00013	-4e-05	-1e-05	8e-05	0.00049	5e-05	0.00012	0.00042	6
33371	-0.00013	-4e-05	-1e-05	8e-05	0.00049	5e-05	0.00012	0.00042	6
33372	-0.00013	-4e-05	-1e-05	8e-05	0.00049	5e-05	0.00012	0.00042	6
33373	-0.00013	-4e-05	-1e-05	8e-05	0.00049	5e-05	0.00012	0.00042	6
33374	-0.00013	-4e-05	-1e-05	8e-05	0.00049	5e-05	0.00012	0.00042	6
33375	-0.00013	-4e-05	-1e-05	8e-05	0.00049	5e-05	0.00012	0.00042	6
33376	-0.00013	-4e-05	-1e-05	8e-05	0.00049	5e-05	0.00012	0.00042	6
33377	0.00021	6e-05	-4e-05	-4e-05	-0.00016	-0.00037	-0.00018	-0.0001	6
33378	0.00021	6e-05	-4e-05	-4e-05	-0.00016	-0.00037	-0.00018	-0.0001	6
33379	8e-05	1e-05	-2e-05	3e-05	0.00011	-0.00028	4e-05	9e-05	6
33380	8e-05	1e-05	-2e-05	3e-05	0.00011	-0.00028	4e-05	9e-05	6
33381	8e-05	1e-05	-2e-05	3e-05	0.00011	-0.00028	4e-05	9e-05	6
33382	8e-05	1e-05	-2e-05	3e-05	0.00011	-0.00028	4e-05	9e-05	6
33383	8e-05	1e-05	-2e-05	3e-05	0.00011	-0.00028	4e-05	9e-05	6
33384	8e-05	1e-05	-2e-05	3e-05	0.00011	-0.00028	4e-05	9e-05	6
33385	8e-05	1e-05	-2e-05	3e-05	0.00011	-0.00028	4e-05	9e-05	6
33386	8e-05	1e-05	-2e-05	3e-05	0.00011	-0.00028	4e-05	9e-05	6
33388	8e-05	1e-05	-2e-05	3e-05	0.00011	-0.00028	4e-05	9e-05	6
33389	8e-05	1e-05	-2e-05	3e-05	0.00011	-0.00028	4e-05	9e-05	6
33390	8e-05	1e-05	-2e-05	3e-05	0.00011	-0.00028	4e-05	9e-05	6
33391	8e-05	1e-05	-2e-05	3e-05	0.00011	-0.00028	4e-05	9e-05	6
33392	3e-05	0	1e-05	2e-05	0.00027	6e-05	-0.00016	0.00021	6
33393	3e-05	0	1e-05	2e-05	0.00027	6e-05	-0.00016	0.00021	6
33394	0.00012	8e-05	4e-05	9e-05	-0.00012	-0.00016	7e-05	9e-05	6
33395	0.00012	8e-05	4e-05	9e-05	-0.00012	-0.00016	7e-05	9e-05	6
33396	0.00012	8e-05	4e-05	9e-05	-0.00012	-0.00016	7e-05	9e-05	6
33397	0.00012	8e-05	4e-05	9e-05	-0.00012	-0.00016	7e-05	9e-05	6
33398	0.00012	8e-05	4e-05	9e-05	-0.00012	-0.00016	7e-05	9e-05	6
33399	0.00012	8e-05	4e-05	9e-05	-0.00012	-0.00016	7e-05	9e-05	6
33400	0.00012	8e-05	4e-05	9e-05	-0.00012	-0.00016	7e-05	9e-05	6
33401	0.00012	8e-05	4e-05	9e-05	-0.00012	-0.00016	7e-05	9e-05	6
33402	0.00012	8e-05	4e-05	9e-05	-0.00012	-0.00016	7e-05	9e-05	6
33403	0.00012	8e-05	4e-05	9e-05	-0.00012	-0.00016	7e-05	9e-05	6
33404	0.00012	8e-05	4e-05	9e-05	-0.00012	-0.00016	7e-05	9e-05	6
33405	0.00012	8e-05	4e-05	9e-05	-0.00012	-0.00016	7e-05	9e-05	6
33406	0.00012	8e-05	4e-05	9e-05	-0.00012	-0.00016	7e-05	9e-05	6
33407	0.00012	8e-05	4e-05	9e-05	-0.00012	-0.00016	7e-05	9e-05	6
33408	0.00012	8e-05	4e-05	9e-05	-0.00012	-0.00016	7e-05	9e-05	6
33409	0.00012	8e-05	4e-05	9e-05	-0.00012	-0.00016	7e-05	9e-05	6
33410	0.00012	8e-05	4e-05	9e-05	-0.00012	-0.00016	7e-05	9e-05	6
33411	0.00012	8e-05	4e-05	9e-05	-0.00012	-0.00016	7e-05	9e-05	6
33412	0.00012	8e-05	4e-05	9e-05	-0.00012	-0.00016	7e-05	9e-05	6
33413	0.00012	8e-05	4e-05	9e-05	-0.00012	-0.00016	7e-05	9e-05	6
33414	0.00012	8e-05	4e-05	9e-05	-0.00012	-0.00016	7e-05	9e-05	6
33415	-0.0001	-3e-05	-5e-05	-4e-05	5e-05	0.00032	2e-05	1e-05	6
33416	-0.00031	-1e-05	1e-05	-3e-05	-5e-05	2e-05	-4e-05	0.0002	6
33417	-0.00031	-1e-05	1e-05	-3e-05	-5e-05	2e-05	-4e-05	0.0002	6
33418	-0.00031	-1e-05	1e-05	-3e-05	-5e-05	2e-05	-4e-05	0.0002	6
33419	-0.00031	-1e-05	1e-05	-3e-05	-5e-05	2e-05	-4e-05	0.0002	6
33420	-0.00031	-1e-05	1e-05	-3e-05	-5e-05	2e-05	-4e-05	0.0002	6
33421	-0.00031	-1e-05	1e-05	-3e-05	-5e-05	2e-05	-4e-05	0.0002	6
33422	-0.00031	-1e-05	1e-05	-3e-05	-5e-05	2e-05	-4e-05	0.0002	6
33423	-0.00031	-1e-05	1e-05	-3e-05	-5e-05	2e-05	-4e-05	0.0002	6
33424	-0.00031	-1e-05	1e-05	-3e-05	-5e-05	2e-05	-4e-05	0.0002	6
33425	-0.00031	-1e-05	1e-05	-3e-05	-5e-05	2e-05	-4e-05	0.0002	6
33426	-0.00031	-1e-05	1e-05	-3e-05	-5e-05	2e-05	-4e-05	0.0002	6
33427	-0.00031	-1e-05	1e-05	-3e-05	-5e-05	2e-05	-4e-05	0.0002	6
33428	-0.00031	-1e-05	1e-05	-3e-05	-5e-05	2e-05	-4e-05	0.0002	6
33429	-0.00031	-1e-05	1e-05	-3e-05	-5e-05	2e-05	-4e-05	0.0002	6
33430	-0.00031	-1e-05	1e-05	-3e-05	-5e-05	2e-05	-4e-05	0.0002	6
33431	-0.00031	-1e-05	1e-05	-3e-05	-5e-05	2e-05	-4e-05	0.0002	6
33432	-0.00031	-1e-05	1e-05	-3e-05	-5e-05	2e-05	-4e-05	0.0002	6
33433	-0.00031	-1e-05	1e-05	-3e-05	-5e-05	2e-05	-4e-05	0.0002	6
33434	-0.00031	-1e-05	1e-05	-3e-05	-5e-05	2e-05	-4e-05	0.0002	6
33435	-0.00031	-1e-05	1e-05	-3e-05	-5e-05	2e-05	-4e-05	0.0002	6
33436	-0.00031	-1e-05	1e-05	-3e-05	-5e-05	2e-05	-4e-05	0.0002	6
33439	-0.00017	-6e-05	-3e-05	-2e-05	0.0004	0.00015	4e-05	-0.00043	6
33440	-0.00017	-6e-05	-3e-05	-2e-05	0.0004	0.00015	4e-05	-0.00043	6
33441	-0.00017	-6e-05	-3e-05	-2e-05	0.0004	0.00015	4e-05	-0.00043	6
33442	-0.00017	-6e-05	-3e-05	-2e-05	0.0004	0.00015	4e-05	-0.00043	6
33443	-0.00017	-6e-05	-3e-05	-2e-05	0.0004	0.00015	4e-05	-0.00043	6
33444	-0.00017	-6e-05	-3e-05	-2e-05	0.0004	0.00015	4e-05	-0.00043	6
33445	-0.00017	-6e-05	-3e-05	-2e-05	0.0004	0.00015	4e-05	-0.00043	6
33446	-0.00017	-6e-05	-3e-05	-2e-05	0.0004	0.00015	4e-05	-0.00043	6
33447	-0.00017	-6e-05	-3e-05	-2e-05	0.0004	0.00015	4e-05	-0.00043	6
33448	-0.00017	-6e-05	-3e-05	-2e-05	0.0004	0.00015	4e-05	-0.00043	6
33449	-0.00017	-6e-05	-3e-05	-2e-05	0.0004	0.00015	4e-05	-0.00043	6
33450	-0.00017	-6e-05	-3e-05	-2e-05	0.0004	0.00015	4e-05	-0.00043	6
33451	-0.00017	-6e-05	-3e-05	-2e-05	0.0004	0.00015	4e-05	-0.00043	6
33452	-8e-05	-2e-05	-1e-05	0.00013	0.00036	9e-05	-0.00014	-0.00016	6
33453	-8e-05	-2e-05	-1e-05	0.00013	0.00036	9e-05	-0.00014	-0.00016	6
33454	-4e-05	-9e-05	-5e-05	-8e-05	-0.0001	-0.00032	6e-05	-0.00023	6
33455	-4e-05	-9e-05	-5e-05	-8e-05	-0.0001	-0.00032	6e-05	-0.00023	6
33456	-4e-05	-9e-05	-5e-05	-8e-05	-0.0001	-0.00032	6e-05	-0.00023	6
33457	-4e-05	-9e-05	-5e-05	-8e-05	-0.0001	-0.00032	6e-05	-0.00023	6
33458	-4e-05	-9e-05	-5e-05	-8e-05	-0.0001	-0.00032	6e-05	-0.00023	6
33459	-4e-05	-9e-05	-5e-05	-8e-05	-0.0001	-0.00032	6e-05	-0.00023	6
33460	-4e-05	-9e-05	-5e-05	-8e-05	-0.0001	-0.00032	6e-05	-0.00023	6
33461	-4e-05	-9e-05	-5e-05	-8e-05	-0.0001	-0.00032	6e-05	-0.00023	6
33462	-4e-05	-9e-05	-5e-05	-8e-05	-0.0001	-0.00032	6e-05	-0.00023	6
33463	-4e-05	-9e-05	-5e-05	-8e-05	-0.0001	-0.00032	6e-05	-0.00023	6
33464	-4e-05	-9e-05	-5e-05	-8e-05	-0.0001	-0.00032	6e-05	-0.00023	6
33465	-4e-05	-9e-05	-5e-05	-8e-05	-0.0001	-0.00032	6e-05	-0.00023	6
33466	-4e-05	-9e-05	-5e-05	-8e-05	-0.0001	-0.00032	6e-05	-0.00023	6
33467	-4e-05	-9e-05	-5e-05	-8e-05	-0.0001	-0.00032	6e-05	-0.00023	6
33468	-4e-05	-9e-05	-5e-05	-8e-05	-0.0001	-0.00032	6e-05	-0.00023	6
33469	-4e-05	-9e-05	-5e-05	-8e-05	-0.0001	-0.00032	6e-05	-0.00023	6
33470	-4e-05	-9e-05	-5e-05	-8e-05	-0.0001	-0.00032	6e-05	-0.00023	6
33471	-4e-05	-9e-05	-5e-05	-8e-05	-0.0001	-0.00032	6e-05	-0.00023	6
33472	-4e-05	-9e-05	-5e-05	-8e-05	-0.0001	-0.00032	6e-05	-0.00023	6
33473	-4e-05	-9e-05	-5e-05	-8e-05	-0.0001	-0.00032	6e-05	-0.00023	6
33474	-4e-05	-9e-05	-5e-05	-8e-05	-0.0001	-0.00032	6e-05	-0.00023	6
33475	-0.00029	-3e-05	0	-2e-05	0.00014	0.00084	0.00019	8e-05	6
33476	8e-05	2e-05	5e-05	0.0001	-0.00031	-0.00012	-0.00017	-0.00018	6
33477	8e-05	2e-05	5e-05	0.0001	-0.00031	-0.00012	-0.00017	-0.00018	6
33478	8e-05	2e-05	5e-05	0.0001	-0.00031	-0.00012	-0.00017	-0.00018	6
33479	8e-05	2e-05	5e-05	0.0001	-0.00031	-0.00012	-0.00017	-0.00018	6
33480	8e-05	2e-05	5e-05	0.0001	-0.00031	-0.00012	-0.00017	-0.00018	6
33481	8e-05	2e-05	5e-05	0.0001	-0.00031	-0.00012	-0.00017	-0.00018	6
33482	8e-05	2e-05	5e-05	0.0001	-0.00031	-0.00012	-0.00017	-0.00018	6
33483	8e-05	2e-05	5e-05	0.0001	-0.00031	-0.00012	-0.00017	-0.00018	6
33484	8e-05	2e-05	5e-05	0.0001	-0.00031	-0.00012	-0.00017	-0.00018	6
33485	8e-05	2e-05	5e-05	0.0001	-0.00031	-0.00012	-0.00017	-0.00018	6
33486	8e-05	2e-05	5e-05	0.0001	-0.00031	-0.00012	-0.00017	-0.00018	6
33488	8e-05	2e-05	5e-05	0.0001	-0.00031	-0.00012	-0.00017	-0.00018	6
33489	8e-05	2e-05	5e-05	0.0001	-0.00031	-0.00012	-0.00017	-0.00018	6
33490	8e-05	2e-05	5e-05	0.0001	-0.00031	-0.00012	-0.00017	-0.00018	6
33491	8e-05	2e-05	5e-05	0.0001	-0.00031	-0.00012	-0.00017	-0.00018	6
33492	8e-05	2e-05	5e-05	0.0001	-0.00031	-0.00012	-0.00017	-0.00018	6
33493	8e-05	2e-05	5e-05	0.0001	-0.00031	-0.00012	-0.00017	-0.00018	6
33494	8e-05	2e-05	5e-05	0.0001	-0.00031	-0.00012	-0.00017	-0.00018	6
33495	8e-05	2e-05	5e-05	0.0001	-0.00031	-0.00012	-0.00017	-0.00018	6
33496	8e-05	2e-05	5e-05	0.0001	-0.00031	-0.00012	-0.00017	-0.00018	6
33497	-0.00016	-4e-05	-1e-05	-6e-05	-0.00013	-0.00012	6e-05	0.00028	6
33498	-0.00016	-4e-05	-1e-05	-6e-05	-0.00013	-0.00012	6e-05	0.00028	6
33499	-1e-05	-3e-05	-1e-05	3e-05	-0.00042	0.00036	0.00015	0.0003	6
33500	-1e-05	-3e-05	-1e-05	3e-05	-0.00042	0.00036	0.00015	0.0003	6
33501	-1e-05	-3e-05	-1e-05	3e-05	-0.00042	0.00036	0.00015	0.0003	6
33502	-1e-05	-3e-05	-1e-05	3e-05	-0.00042	0.00036	0.00015	0.0003	6
33503	-1e-05	-3e-05	-1e-05	3e-05	-0.00042	0.00036	0.00015	0.0003	6
33504	-1e-05	-3e-05	-1e-05	3e-05	-0.00042	0.00036	0.00015	0.0003	6
33505	-1e-05	-3e-05	-1e-05	3e-05	-0.00042	0.00036	0.00015	0.0003	6
33506	-1e-05	-3e-05	-1e-05	3e-05	-0.00042	0.00036	0.00015	0.0003	6
33507	-1e-05	-3e-05	-1e-05	3e-05	-0.00042	0.00036	0.00015	0.0003	6
33508	-1e-05	-3e-05	-1e-05	3e-05	-0.00042	0.00036	0.00015	0.0003	6
33509	-1e-05	-3e-05	-1e-05	3e-05	-0.00042	0.00036	0.00015	0.0003	6
33510	-1e-05	-3e-05	-1e-05	3e-05	-0.00042	0.00036	0.00015	0.0003	6
33511	0.00012	-1e-05	-1e-05	5e-05	0.0003	-0.00026	-3e-05	0.00018	6
33512	-0.00011	-0.00011	-4e-05	-6e-05	-0.00028	-1e-05	0.00013	0.00049	6
33513	-0.00011	-0.00011	-4e-05	-6e-05	-0.00028	-1e-05	0.00013	0.00049	6
33514	-0.00011	-0.00011	-4e-05	-6e-05	-0.00028	-1e-05	0.00013	0.00049	6
33515	-0.00011	-0.00011	-4e-05	-6e-05	-0.00028	-1e-05	0.00013	0.00049	6
33516	-0.00011	-0.00011	-4e-05	-6e-05	-0.00028	-1e-05	0.00013	0.00049	6
33517	-0.00011	-0.00011	-4e-05	-6e-05	-0.00028	-1e-05	0.00013	0.00049	6
33518	0.00022	-4e-05	-8e-05	-0.00013	0.00014	0.0002	1e-05	0.00031	6
33520	0.00022	-4e-05	-8e-05	-0.00013	0.00014	0.0002	1e-05	0.00031	6
33521	0.00022	-4e-05	-8e-05	-0.00013	0.00014	0.0002	1e-05	0.00031	6
33522	0.00022	-4e-05	-8e-05	-0.00013	0.00014	0.0002	1e-05	0.00031	6
33523	0.00022	-4e-05	-8e-05	-0.00013	0.00014	0.0002	1e-05	0.00031	6
33524	0.00022	-4e-05	-8e-05	-0.00013	0.00014	0.0002	1e-05	0.00031	6
33525	0.00022	-4e-05	-8e-05	-0.00013	0.00014	0.0002	1e-05	0.00031	6
33526	0.00022	-4e-05	-8e-05	-0.00013	0.00014	0.0002	1e-05	0.00031	6
33527	0.00022	-4e-05	-8e-05	-0.00013	0.00014	0.0002	1e-05	0.00031	6
33528	0.00022	-4e-05	-8e-05	-0.00013	0.00014	0.0002	1e-05	0.00031	6
33529	0.00022	-4e-05	-8e-05	-0.00013	0.00014	0.0002	1e-05	0.00031	6
33530	0.00022	-4e-05	-8e-05	-0.00013	0.00014	0.0002	1e-05	0.00031	6
33531	0.00022	-4e-05	-8e-05	-0.00013	0.00014	0.0002	1e-05	0.00031	6
33532	0.00022	-4e-05	-8e-05	-0.00013	0.00014	0.0002	1e-05	0.00031	6
33533	0.00022	-4e-05	-8e-05	-0.00013	0.00014	0.0002	1e-05	0.00031	6
33534	0.00022	-4e-05	-8e-05	-0.00013	0.00014	0.0002	1e-05	0.00031	6
33535	3e-05	-7e-05	-2e-05	1e-05	-0.00012	-0.00012	0.00015	-0.0003	6
33536	0.0001	0.0001	6e-05	1e-05	-0.00045	-0.00036	-0.00012	-0.00021	6
33538	0.0001	0.0001	6e-05	1e-05	-0.00045	-0.00036	-0.00012	-0.00021	6
33539	0.0001	0.0001	6e-05	1e-05	-0.00045	-0.00036	-0.00012	-0.00021	6
33540	0.0001	0.0001	6e-05	1e-05	-0.00045	-0.00036	-0.00012	-0.00021	6
33541	0.0001	0.0001	6e-05	1e-05	-0.00045	-0.00036	-0.00012	-0.00021	6
33542	0.0001	0.0001	6e-05	1e-05	-0.00045	-0.00036	-0.00012	-0.00021	6
33543	0.0001	0.0001	6e-05	1e-05	-0.00045	-0.00036	-0.00012	-0.00021	6
33544	0.0001	0.0001	6e-05	1e-05	-0.00045	-0.00036	-0.00012	-0.00021	6
33545	0.0001	0.0001	6e-05	1e-05	-0.00045	-0.00036	-0.00012	-0.00021	6
33546	0.0001	0.0001	6e-05	1e-05	-0.00045	-0.00036	-0.00012	-0.00021	6
33547	0.0001	0.0001	6e-05	1e-05	-0.00045	-0.00036	-0.00012	-0.00021	6
33548	0.0001	0.0001	6e-05	1e-05	-0.00045	-0.00036	-0.00012	-0.00021	6
33549	0.0001	0.0001	6e-05	1e-05	-0.00045	-0.00036	-0.00012	-0.00021	6
33550	0.0001	0.0001	6e-05	1e-05	-0.00045	-0.00036	-0.00012	-0.00021	6
33551	0.0001	0.0001	6e-05	1e-05	-0.00045	-0.00036	-0.00012	-0.00021	6
33552	0.0001	0.0001	6e-05	1e-05	-0.00045	-0.00036	-0.00012	-0.00021	6
33553	0.0001	0.0001	6e-05	1e-05	-0.00045	-0.00036	-0.00012	-0.00021	6
33554	0.0001	0.0001	6e-05	1e-05	-0.00045	-0.00036	-0.00012	-0.00021	6
33555	0.0001	0.0001	6e-05	1e-05	-0.00045	-0.00036	-0.00012	-0.00021	6
33556	0.0001	0.0001	6e-05	1e-05	-0.00045	-0.00036	-0.00012	-0.00021	6
33557	9e-05	2e-05	-4e-05	3e-05	-6e-05	0.00017	0.00014	-0.00021	6
33558	9e-05	2e-05	-4e-05	3e-05	-6e-05	0.00017	0.00014	-0.00021	6
33559	-5e-05	-1e-05	-1e-05	1e-05	6e-05	-9e-05	6e-05	0.00014	6
33560	-5e-05	-1e-05	-1e-05	1e-05	6e-05	-9e-05	6e-05	0.00014	6
33561	-5e-05	-1e-05	-1e-05	1e-05	6e-05	-9e-05	6e-05	0.00014	6
33562	-5e-05	-1e-05	-1e-05	1e-05	6e-05	-9e-05	6e-05	0.00014	6
33563	-5e-05	-1e-05	-1e-05	1e-05	6e-05	-9e-05	6e-05	0.00014	6
33564	-5e-05	-1e-05	-1e-05	1e-05	6e-05	-9e-05	6e-05	0.00014	6
33565	-5e-05	-1e-05	-1e-05	1e-05	6e-05	-9e-05	6e-05	0.00014	6
33566	-5e-05	-1e-05	-1e-05	1e-05	6e-05	-9e-05	6e-05	0.00014	6
33567	-5e-05	-1e-05	-1e-05	1e-05	6e-05	-9e-05	6e-05	0.00014	6
33568	-5e-05	-1e-05	-1e-05	1e-05	6e-05	-9e-05	6e-05	0.00014	6
33569	-5e-05	-1e-05	-1e-05	1e-05	6e-05	-9e-05	6e-05	0.00014	6
33570	-5e-05	-1e-05	-1e-05	1e-05	6e-05	-9e-05	6e-05	0.00014	6
33571	1e-05	0	-1e-05	0	0.0002	7e-05	-1e-05	2e-05	6
33572	1e-05	0	-1e-05	0	0.0002	7e-05	-1e-05	2e-05	6
33573	1e-05	0	-1e-05	0	0.0002	7e-05	-1e-05	2e-05	6
33574	1e-05	0	-1e-05	0	0.0002	7e-05	-1e-05	2e-05	6
33575	1e-05	0	-1e-05	0	0.0002	7e-05	-1e-05	2e-05	6
33576	1e-05	0	-1e-05	0	0.0002	7e-05	-1e-05	2e-05	6
33577	1e-05	0	-1e-05	0	0.0002	7e-05	-1e-05	2e-05	6
33578	8e-05	7e-05	-2e-05	-0.00014	-4e-05	-0.00013	1e-05	-0.00012	6
33579	8e-05	7e-05	-2e-05	-0.00014	-4e-05	-0.00013	1e-05	-0.00012	6
33580	8e-05	7e-05	-2e-05	-0.00014	-4e-05	-0.00013	1e-05	-0.00012	6
33581	8e-05	7e-05	-2e-05	-0.00014	-4e-05	-0.00013	1e-05	-0.00012	6
33582	8e-05	7e-05	-2e-05	-0.00014	-4e-05	-0.00013	1e-05	-0.00012	6
33583	8e-05	7e-05	-2e-05	-0.00014	-4e-05	-0.00013	1e-05	-0.00012	6
33584	8e-05	7e-05	-2e-05	-0.00014	-4e-05	-0.00013	1e-05	-0.00012	6
33585	8e-05	7e-05	-2e-05	-0.00014	-4e-05	-0.00013	1e-05	-0.00012	6
33586	8e-05	7e-05	-2e-05	-0.00014	-4e-05	-0.00013	1e-05	-0.00012	6
33588	8e-05	7e-05	-2e-05	-0.00014	-4e-05	-0.00013	1e-05	-0.00012	6
33589	8e-05	7e-05	-2e-05	-0.00014	-4e-05	-0.00013	1e-05	-0.00012	6
33590	8e-05	7e-05	-2e-05	-0.00014	-4e-05	-0.00013	1e-05	-0.00012	6
33591	8e-05	7e-05	-2e-05	-0.00014	-4e-05	-0.00013	1e-05	-0.00012	6
33592	8e-05	7e-05	-2e-05	-0.00014	-4e-05	-0.00013	1e-05	-0.00012	6
33593	8e-05	7e-05	-2e-05	-0.00014	-4e-05	-0.00013	1e-05	-0.00012	6
33594	8e-05	7e-05	-2e-05	-0.00014	-4e-05	-0.00013	1e-05	-0.00012	6
33595	0.00016	5e-05	2e-05	2e-05	5e-05	-4e-05	-0.00017	-0.00099	6
33596	0.00012	2e-05	-4e-05	-3e-05	2e-05	0.00038	-0.00016	-0.00028	6
33597	0.00012	2e-05	-4e-05	-3e-05	2e-05	0.00038	-0.00016	-0.00028	6
33598	0.00012	2e-05	-4e-05	-3e-05	2e-05	0.00038	-0.00016	-0.00028	6
33599	0.00012	2e-05	-4e-05	-3e-05	2e-05	0.00038	-0.00016	-0.00028	6
33600	0.00012	2e-05	-4e-05	-3e-05	2e-05	0.00038	-0.00016	-0.00028	6
33601	0.00012	2e-05	-4e-05	-3e-05	2e-05	0.00038	-0.00016	-0.00028	6
33602	0.00012	2e-05	-4e-05	-3e-05	2e-05	0.00038	-0.00016	-0.00028	6
33603	0.00012	2e-05	-4e-05	-3e-05	2e-05	0.00038	-0.00016	-0.00028	6
33604	0.00012	2e-05	-4e-05	-3e-05	2e-05	0.00038	-0.00016	-0.00028	6
33605	0.00012	2e-05	-4e-05	-3e-05	2e-05	0.00038	-0.00016	-0.00028	6
33606	0.00012	2e-05	-4e-05	-3e-05	2e-05	0.00038	-0.00016	-0.00028	6
33607	0.00012	2e-05	-4e-05	-3e-05	2e-05	0.00038	-0.00016	-0.00028	6
33608	0.00012	2e-05	-4e-05	-3e-05	2e-05	0.00038	-0.00016	-0.00028	6
33609	0.00012	2e-05	-4e-05	-3e-05	2e-05	0.00038	-0.00016	-0.00028	6
33610	0.00012	2e-05	-4e-05	-3e-05	2e-05	0.00038	-0.00016	-0.00028	6
33611	0.00012	2e-05	-4e-05	-3e-05	2e-05	0.00038	-0.00016	-0.00028	6
33612	0.00012	2e-05	-4e-05	-3e-05	2e-05	0.00038	-0.00016	-0.00028	6
33613	0.00012	2e-05	-4e-05	-3e-05	2e-05	0.00038	-0.00016	-0.00028	6
33614	0.00012	2e-05	-4e-05	-3e-05	2e-05	0.00038	-0.00016	-0.00028	6
33615	0.00012	2e-05	-4e-05	-3e-05	2e-05	0.00038	-0.00016	-0.00028	6
33616	0.00012	2e-05	-4e-05	-3e-05	2e-05	0.00038	-0.00016	-0.00028	6
33617	-9e-05	-3e-05	-2e-05	-4e-05	-0.00032	-0.00022	0	-8e-05	6
33618	-0.00023	0	1e-05	-1e-05	-8e-05	-0.00012	3e-05	-0.00012	6
33619	-0.00019	-6e-05	-3e-05	-1e-05	-2e-05	0.00043	9e-05	-8e-05	6
33620	-0.00019	-6e-05	-3e-05	-1e-05	-2e-05	0.00043	9e-05	-8e-05	6
33621	-0.00019	-6e-05	-3e-05	-1e-05	-2e-05	0.00043	9e-05	-8e-05	6
33622	-0.00019	-6e-05	-3e-05	-1e-05	-2e-05	0.00043	9e-05	-8e-05	6
33623	-0.00019	-6e-05	-3e-05	-1e-05	-2e-05	0.00043	9e-05	-8e-05	6
33624	-0.00019	-6e-05	-3e-05	-1e-05	-2e-05	0.00043	9e-05	-8e-05	6
33625	-0.00019	-6e-05	-3e-05	-1e-05	-2e-05	0.00043	9e-05	-8e-05	6
33626	-0.00019	-6e-05	-3e-05	-1e-05	-2e-05	0.00043	9e-05	-8e-05	6
33627	-0.00019	-6e-05	-3e-05	-1e-05	-2e-05	0.00043	9e-05	-8e-05	6
33628	-0.00019	-6e-05	-3e-05	-1e-05	-2e-05	0.00043	9e-05	-8e-05	6
33629	-0.00019	-6e-05	-3e-05	-1e-05	-2e-05	0.00043	9e-05	-8e-05	6
33630	-0.00019	-6e-05	-3e-05	-1e-05	-2e-05	0.00043	9e-05	-8e-05	6
33631	0	8e-05	-1e-05	-3e-05	0.00022	0.00039	-0.00032	0.00051	6
33632	0	8e-05	-1e-05	-3e-05	0.00022	0.00039	-0.00032	0.00051	6
33633	0	8e-05	-1e-05	-3e-05	0.00022	0.00039	-0.00032	0.00051	6
33634	0	8e-05	-1e-05	-3e-05	0.00022	0.00039	-0.00032	0.00051	6
33635	0	8e-05	-1e-05	-3e-05	0.00022	0.00039	-0.00032	0.00051	6
33636	0	8e-05	-1e-05	-3e-05	0.00022	0.00039	-0.00032	0.00051	6
33638	-6e-05	-2e-05	-1e-05	0.00011	0.00024	-8e-05	2e-05	0.00012	6
33639	-6e-05	-2e-05	-1e-05	0.00011	0.00024	-8e-05	2e-05	0.00012	6
33640	-6e-05	-2e-05	-1e-05	0.00011	0.00024	-8e-05	2e-05	0.00012	6
33641	-6e-05	-2e-05	-1e-05	0.00011	0.00024	-8e-05	2e-05	0.00012	6
33642	-6e-05	-2e-05	-1e-05	0.00011	0.00024	-8e-05	2e-05	0.00012	6
33643	-6e-05	-2e-05	-1e-05	0.00011	0.00024	-8e-05	2e-05	0.00012	6
33644	-6e-05	-2e-05	-1e-05	0.00011	0.00024	-8e-05	2e-05	0.00012	6
33645	-6e-05	-2e-05	-1e-05	0.00011	0.00024	-8e-05	2e-05	0.00012	6
33646	-6e-05	-2e-05	-1e-05	0.00011	0.00024	-8e-05	2e-05	0.00012	6
33647	-6e-05	-2e-05	-1e-05	0.00011	0.00024	-8e-05	2e-05	0.00012	6
33648	-6e-05	-2e-05	-1e-05	0.00011	0.00024	-8e-05	2e-05	0.00012	6
33649	-6e-05	-2e-05	-1e-05	0.00011	0.00024	-8e-05	2e-05	0.00012	6
33650	-6e-05	-2e-05	-1e-05	0.00011	0.00024	-8e-05	2e-05	0.00012	6
33651	-6e-05	-2e-05	-1e-05	0.00011	0.00024	-8e-05	2e-05	0.00012	6
33652	-6e-05	-2e-05	-1e-05	0.00011	0.00024	-8e-05	2e-05	0.00012	6
33653	-6e-05	-2e-05	-1e-05	0.00011	0.00024	-8e-05	2e-05	0.00012	6
33654	-6e-05	-2e-05	-1e-05	0.00011	0.00024	-8e-05	2e-05	0.00012	6
33655	0	-6e-05	-7e-05	4e-05	-0.00016	-0.00017	6e-05	0.0001	6
33656	0	1e-05	4e-05	0	-5e-05	-0.00061	-0.00026	0.00057	6
33657	0	1e-05	4e-05	0	-5e-05	-0.00061	-0.00026	0.00057	6
33658	0	1e-05	4e-05	0	-5e-05	-0.00061	-0.00026	0.00057	6
33660	0	1e-05	4e-05	0	-5e-05	-0.00061	-0.00026	0.00057	6
33661	0	1e-05	4e-05	0	-5e-05	-0.00061	-0.00026	0.00057	6
33662	0	1e-05	4e-05	0	-5e-05	-0.00061	-0.00026	0.00057	6
33663	0	1e-05	4e-05	0	-5e-05	-0.00061	-0.00026	0.00057	6
33664	0	1e-05	4e-05	0	-5e-05	-0.00061	-0.00026	0.00057	6
33665	0	1e-05	4e-05	0	-5e-05	-0.00061	-0.00026	0.00057	6
33666	0	1e-05	4e-05	0	-5e-05	-0.00061	-0.00026	0.00057	6
33667	0	1e-05	4e-05	0	-5e-05	-0.00061	-0.00026	0.00057	6
33668	0	1e-05	4e-05	0	-5e-05	-0.00061	-0.00026	0.00057	6
33669	0	1e-05	4e-05	0	-5e-05	-0.00061	-0.00026	0.00057	6
33670	0	1e-05	4e-05	0	-5e-05	-0.00061	-0.00026	0.00057	6
33671	0	1e-05	4e-05	0	-5e-05	-0.00061	-0.00026	0.00057	6
33672	0	1e-05	4e-05	0	-5e-05	-0.00061	-0.00026	0.00057	6
33673	0	1e-05	4e-05	0	-5e-05	-0.00061	-0.00026	0.00057	6
33674	0	1e-05	4e-05	0	-5e-05	-0.00061	-0.00026	0.00057	6
33675	0	1e-05	4e-05	0	-5e-05	-0.00061	-0.00026	0.00057	6
33676	0	1e-05	4e-05	0	-5e-05	-0.00061	-0.00026	0.00057	6
33677	4e-05	-1e-05	-2e-05	-6e-05	7e-05	-6e-05	0.00013	9e-05	6
33678	1e-05	-2e-05	-3e-05	1e-05	6e-05	0.00039	6e-05	2e-05	6
33679	1e-05	9e-05	7e-05	3e-05	0.00012	0.00026	8e-05	-0.00047	6
33680	1e-05	9e-05	7e-05	3e-05	0.00012	0.00026	8e-05	-0.00047	6
33681	1e-05	9e-05	7e-05	3e-05	0.00012	0.00026	8e-05	-0.00047	6
33682	1e-05	9e-05	7e-05	3e-05	0.00012	0.00026	8e-05	-0.00047	6
33683	1e-05	9e-05	7e-05	3e-05	0.00012	0.00026	8e-05	-0.00047	6
33684	1e-05	9e-05	7e-05	3e-05	0.00012	0.00026	8e-05	-0.00047	6
33685	1e-05	9e-05	7e-05	3e-05	0.00012	0.00026	8e-05	-0.00047	6
33686	1e-05	9e-05	7e-05	3e-05	0.00012	0.00026	8e-05	-0.00047	6
33688	1e-05	9e-05	7e-05	3e-05	0.00012	0.00026	8e-05	-0.00047	6
33689	1e-05	9e-05	7e-05	3e-05	0.00012	0.00026	8e-05	-0.00047	6
33690	1e-05	9e-05	7e-05	3e-05	0.00012	0.00026	8e-05	-0.00047	6
33691	9e-05	3e-05	9e-05	9e-05	9e-05	0	7e-05	0.00016	6
33692	9e-05	3e-05	9e-05	9e-05	9e-05	0	7e-05	0.00016	6
33693	9e-05	3e-05	9e-05	9e-05	9e-05	0	7e-05	0.00016	6
33694	9e-05	3e-05	9e-05	9e-05	9e-05	0	7e-05	0.00016	6
33695	9e-05	3e-05	9e-05	9e-05	9e-05	0	7e-05	0.00016	6
33696	9e-05	3e-05	9e-05	9e-05	9e-05	0	7e-05	0.00016	6
33697	9e-05	3e-05	9e-05	9e-05	9e-05	0	7e-05	0.00016	6
33698	-0.00025	-0.00012	-8e-05	0	-0.00011	-0.00031	2e-05	0.00018	6
33699	-0.00025	-0.00012	-8e-05	0	-0.00011	-0.00031	2e-05	0.00018	6
33700	-0.00025	-0.00012	-8e-05	0	-0.00011	-0.00031	2e-05	0.00018	6
33701	-0.00025	-0.00012	-8e-05	0	-0.00011	-0.00031	2e-05	0.00018	6
33702	-0.00025	-0.00012	-8e-05	0	-0.00011	-0.00031	2e-05	0.00018	6
33703	-0.00025	-0.00012	-8e-05	0	-0.00011	-0.00031	2e-05	0.00018	6
33704	-0.00025	-0.00012	-8e-05	0	-0.00011	-0.00031	2e-05	0.00018	6
33705	-0.00025	-0.00012	-8e-05	0	-0.00011	-0.00031	2e-05	0.00018	6
33706	-0.00025	-0.00012	-8e-05	0	-0.00011	-0.00031	2e-05	0.00018	6
33707	-0.00025	-0.00012	-8e-05	0	-0.00011	-0.00031	2e-05	0.00018	6
33708	-0.00025	-0.00012	-8e-05	0	-0.00011	-0.00031	2e-05	0.00018	6
33709	-0.00025	-0.00012	-8e-05	0	-0.00011	-0.00031	2e-05	0.00018	6
33710	-0.00025	-0.00012	-8e-05	0	-0.00011	-0.00031	2e-05	0.00018	6
33711	-0.00025	-0.00012	-8e-05	0	-0.00011	-0.00031	2e-05	0.00018	6
33712	-0.00025	-0.00012	-8e-05	0	-0.00011	-0.00031	2e-05	0.00018	6
33713	-0.00025	-0.00012	-8e-05	0	-0.00011	-0.00031	2e-05	0.00018	6
33714	-0.00025	-0.00012	-8e-05	0	-0.00011	-0.00031	2e-05	0.00018	6
33715	-3e-05	-3e-05	-1e-05	0	-7e-05	-2e-05	-0.0002	-0.00031	6
33716	-3e-05	-1e-05	4e-05	-7e-05	-0.00013	0.00026	-4e-05	0.00038	6
33717	-3e-05	-1e-05	4e-05	-7e-05	-0.00013	0.00026	-4e-05	0.00038	6
33718	-3e-05	-1e-05	4e-05	-7e-05	-0.00013	0.00026	-4e-05	0.00038	6
33719	-3e-05	-1e-05	4e-05	-7e-05	-0.00013	0.00026	-4e-05	0.00038	6
33720	-3e-05	-1e-05	4e-05	-7e-05	-0.00013	0.00026	-4e-05	0.00038	6
33721	-3e-05	-1e-05	4e-05	-7e-05	-0.00013	0.00026	-4e-05	0.00038	6
33722	-3e-05	-1e-05	4e-05	-7e-05	-0.00013	0.00026	-4e-05	0.00038	6
33723	-3e-05	-1e-05	4e-05	-7e-05	-0.00013	0.00026	-4e-05	0.00038	6
33724	-3e-05	-1e-05	4e-05	-7e-05	-0.00013	0.00026	-4e-05	0.00038	6
33725	-3e-05	-1e-05	4e-05	-7e-05	-0.00013	0.00026	-4e-05	0.00038	6
33726	-3e-05	-1e-05	4e-05	-7e-05	-0.00013	0.00026	-4e-05	0.00038	6
33727	-3e-05	-1e-05	4e-05	-7e-05	-0.00013	0.00026	-4e-05	0.00038	6
33728	-3e-05	-1e-05	4e-05	-7e-05	-0.00013	0.00026	-4e-05	0.00038	6
33729	-3e-05	-1e-05	4e-05	-7e-05	-0.00013	0.00026	-4e-05	0.00038	6
33730	-3e-05	-1e-05	4e-05	-7e-05	-0.00013	0.00026	-4e-05	0.00038	6
33731	-3e-05	-1e-05	4e-05	-7e-05	-0.00013	0.00026	-4e-05	0.00038	6
33732	-3e-05	-1e-05	4e-05	-7e-05	-0.00013	0.00026	-4e-05	0.00038	6
33733	-3e-05	-1e-05	4e-05	-7e-05	-0.00013	0.00026	-4e-05	0.00038	6
33734	-3e-05	-1e-05	4e-05	-7e-05	-0.00013	0.00026	-4e-05	0.00038	6
33735	-3e-05	-1e-05	4e-05	-7e-05	-0.00013	0.00026	-4e-05	0.00038	6
33736	-3e-05	-1e-05	4e-05	-7e-05	-0.00013	0.00026	-4e-05	0.00038	6
33739	-4e-05	-7e-05	-7e-05	-6e-05	6e-05	7e-05	-1e-05	-0.00022	6
33740	-4e-05	-7e-05	-7e-05	-6e-05	6e-05	7e-05	-1e-05	-0.00022	6
33741	-4e-05	-7e-05	-7e-05	-6e-05	6e-05	7e-05	-1e-05	-0.00022	6
33742	-4e-05	-7e-05	-7e-05	-6e-05	6e-05	7e-05	-1e-05	-0.00022	6
33743	-4e-05	-7e-05	-7e-05	-6e-05	6e-05	7e-05	-1e-05	-0.00022	6
33744	-4e-05	-7e-05	-7e-05	-6e-05	6e-05	7e-05	-1e-05	-0.00022	6
33745	-4e-05	-7e-05	-7e-05	-6e-05	6e-05	7e-05	-1e-05	-0.00022	6
33746	-4e-05	-7e-05	-7e-05	-6e-05	6e-05	7e-05	-1e-05	-0.00022	6
33747	-4e-05	-7e-05	-7e-05	-6e-05	6e-05	7e-05	-1e-05	-0.00022	6
33748	-4e-05	-7e-05	-7e-05	-6e-05	6e-05	7e-05	-1e-05	-0.00022	6
33749	-4e-05	-7e-05	-7e-05	-6e-05	6e-05	7e-05	-1e-05	-0.00022	6
33750	-4e-05	-7e-05	-7e-05	-6e-05	6e-05	7e-05	-1e-05	-0.00022	6
33751	-4e-05	-7e-05	-7e-05	-6e-05	6e-05	7e-05	-1e-05	-0.00022	6
33752	-1e-05	0	-1e-05	-0.00018	-0.00031	0.00039	7e-05	-8e-05	6
33753	-1e-05	0	-1e-05	-0.00018	-0.00031	0.00039	7e-05	-8e-05	6
33754	-1e-05	0	-1e-05	-0.00018	-0.00031	0.00039	7e-05	-8e-05	6
33755	-1e-05	0	-1e-05	-0.00018	-0.00031	0.00039	7e-05	-8e-05	6
33756	-1e-05	0	-1e-05	-0.00018	-0.00031	0.00039	7e-05	-8e-05	6
33757	-1e-05	0	-1e-05	-0.00018	-0.00031	0.00039	7e-05	-8e-05	6
33758	0.00017	0	1e-05	1e-05	0.00011	0.00061	0.0001	-3e-05	6
33759	0.00017	0	1e-05	1e-05	0.00011	0.00061	0.0001	-3e-05	6
33760	0.00017	0	1e-05	1e-05	0.00011	0.00061	0.0001	-3e-05	6
33761	0.00017	0	1e-05	1e-05	0.00011	0.00061	0.0001	-3e-05	6
33762	0.00017	0	1e-05	1e-05	0.00011	0.00061	0.0001	-3e-05	6
33763	0.00017	0	1e-05	1e-05	0.00011	0.00061	0.0001	-3e-05	6
33764	0.00017	0	1e-05	1e-05	0.00011	0.00061	0.0001	-3e-05	6
33765	0.00017	0	1e-05	1e-05	0.00011	0.00061	0.0001	-3e-05	6
33766	0.00017	0	1e-05	1e-05	0.00011	0.00061	0.0001	-3e-05	6
33767	0.00017	0	1e-05	1e-05	0.00011	0.00061	0.0001	-3e-05	6
33768	0.00017	0	1e-05	1e-05	0.00011	0.00061	0.0001	-3e-05	6
33769	0.00017	0	1e-05	1e-05	0.00011	0.00061	0.0001	-3e-05	6
33770	0.00017	0	1e-05	1e-05	0.00011	0.00061	0.0001	-3e-05	6
33771	0.00017	0	1e-05	1e-05	0.00011	0.00061	0.0001	-3e-05	6
33772	0.00017	0	1e-05	1e-05	0.00011	0.00061	0.0001	-3e-05	6
33773	0.00017	0	1e-05	1e-05	0.00011	0.00061	0.0001	-3e-05	6
33774	0.00017	0	1e-05	1e-05	0.00011	0.00061	0.0001	-3e-05	6
33775	7e-05	-1e-05	-4e-05	-7e-05	-0.00021	-0.00022	1e-05	-0.0001	6
33776	4e-05	-3e-05	-1e-05	2e-05	0.00012	-0.00028	0.00016	-9e-05	6
33777	4e-05	-3e-05	-1e-05	2e-05	0.00012	-0.00028	0.00016	-9e-05	6
33778	4e-05	-3e-05	-1e-05	2e-05	0.00012	-0.00028	0.00016	-9e-05	6
33779	4e-05	-3e-05	-1e-05	2e-05	0.00012	-0.00028	0.00016	-9e-05	6
33780	4e-05	-3e-05	-1e-05	2e-05	0.00012	-0.00028	0.00016	-9e-05	6
33781	4e-05	-3e-05	-1e-05	2e-05	0.00012	-0.00028	0.00016	-9e-05	6
33782	4e-05	-3e-05	-1e-05	2e-05	0.00012	-0.00028	0.00016	-9e-05	6
33783	4e-05	-3e-05	-1e-05	2e-05	0.00012	-0.00028	0.00016	-9e-05	6
33784	4e-05	-3e-05	-1e-05	2e-05	0.00012	-0.00028	0.00016	-9e-05	6
33785	4e-05	-3e-05	-1e-05	2e-05	0.00012	-0.00028	0.00016	-9e-05	6
33786	4e-05	-3e-05	-1e-05	2e-05	0.00012	-0.00028	0.00016	-9e-05	6
33788	4e-05	-3e-05	-1e-05	2e-05	0.00012	-0.00028	0.00016	-9e-05	6
33789	4e-05	-3e-05	-1e-05	2e-05	0.00012	-0.00028	0.00016	-9e-05	6
33790	4e-05	-3e-05	-1e-05	2e-05	0.00012	-0.00028	0.00016	-9e-05	6
33791	4e-05	-3e-05	-1e-05	2e-05	0.00012	-0.00028	0.00016	-9e-05	6
33792	4e-05	-3e-05	-1e-05	2e-05	0.00012	-0.00028	0.00016	-9e-05	6
33793	4e-05	-3e-05	-1e-05	2e-05	0.00012	-0.00028	0.00016	-9e-05	6
33794	4e-05	-3e-05	-1e-05	2e-05	0.00012	-0.00028	0.00016	-9e-05	6
33795	4e-05	-3e-05	-1e-05	2e-05	0.00012	-0.00028	0.00016	-9e-05	6
33796	4e-05	-3e-05	-1e-05	2e-05	0.00012	-0.00028	0.00016	-9e-05	6
33797	4e-05	-3e-05	-1e-05	2e-05	0.00012	-0.00028	0.00016	-9e-05	6
33798	-0.00013	-9e-05	-3e-05	-0.00011	8e-05	-3e-05	-9e-05	-4e-05	6
33799	-5e-05	3e-05	2e-05	-2e-05	-0.00017	-0.00025	1e-05	-0.0002	6
33800	-5e-05	3e-05	2e-05	-2e-05	-0.00017	-0.00025	1e-05	-0.0002	6
33801	-5e-05	3e-05	2e-05	-2e-05	-0.00017	-0.00025	1e-05	-0.0002	6
33802	-5e-05	3e-05	2e-05	-2e-05	-0.00017	-0.00025	1e-05	-0.0002	6
33803	-5e-05	3e-05	2e-05	-2e-05	-0.00017	-0.00025	1e-05	-0.0002	6
33804	-5e-05	3e-05	2e-05	-2e-05	-0.00017	-0.00025	1e-05	-0.0002	6
33805	-5e-05	3e-05	2e-05	-2e-05	-0.00017	-0.00025	1e-05	-0.0002	6
33806	-5e-05	3e-05	2e-05	-2e-05	-0.00017	-0.00025	1e-05	-0.0002	6
33807	-5e-05	3e-05	2e-05	-2e-05	-0.00017	-0.00025	1e-05	-0.0002	6
33808	-5e-05	3e-05	2e-05	-2e-05	-0.00017	-0.00025	1e-05	-0.0002	6
33809	-5e-05	3e-05	2e-05	-2e-05	-0.00017	-0.00025	1e-05	-0.0002	6
33810	0	-6e-05	-8e-05	-0.00012	-0.00011	0.00016	0	-0.00034	6
33811	-7e-05	-2e-05	2e-05	9e-05	-5e-05	-0.00056	0.00011	0.00022	6
33812	-7e-05	-2e-05	2e-05	9e-05	-5e-05	-0.00056	0.00011	0.00022	6
33813	-7e-05	-2e-05	2e-05	9e-05	-5e-05	-0.00056	0.00011	0.00022	6
33814	-7e-05	-2e-05	2e-05	9e-05	-5e-05	-0.00056	0.00011	0.00022	6
33815	-7e-05	-2e-05	2e-05	9e-05	-5e-05	-0.00056	0.00011	0.00022	6
33816	-7e-05	-2e-05	2e-05	9e-05	-5e-05	-0.00056	0.00011	0.00022	6
33817	-7e-05	-2e-05	2e-05	9e-05	-5e-05	-0.00056	0.00011	0.00022	6
33818	-7e-05	-2e-05	2e-05	9e-05	-5e-05	-0.00056	0.00011	0.00022	6
33819	-7e-05	-2e-05	2e-05	9e-05	-5e-05	-0.00056	0.00011	0.00022	6
33820	-0.0001	-2e-05	-3e-05	5e-05	0.00035	-2e-05	-6e-05	-0.00019	6
33821	-0.0001	-2e-05	-3e-05	5e-05	0.00035	-2e-05	-6e-05	-0.00019	6
33822	-0.0001	-2e-05	-3e-05	5e-05	0.00035	-2e-05	-6e-05	-0.00019	6
33823	-0.0001	-2e-05	-3e-05	5e-05	0.00035	-2e-05	-6e-05	-0.00019	6
33824	-0.0001	-2e-05	-3e-05	5e-05	0.00035	-2e-05	-6e-05	-0.00019	6
33825	-0.0001	-2e-05	-3e-05	5e-05	0.00035	-2e-05	-6e-05	-0.00019	6
33826	-0.0001	-2e-05	-3e-05	5e-05	0.00035	-2e-05	-6e-05	-0.00019	6
33827	-0.0001	-2e-05	-3e-05	5e-05	0.00035	-2e-05	-6e-05	-0.00019	6
33828	-0.0001	-2e-05	-3e-05	5e-05	0.00035	-2e-05	-6e-05	-0.00019	6
33829	-0.0001	-2e-05	-3e-05	5e-05	0.00035	-2e-05	-6e-05	-0.00019	6
33830	-0.0001	-2e-05	-3e-05	5e-05	0.00035	-2e-05	-6e-05	-0.00019	6
33831	-0.0001	-2e-05	-3e-05	5e-05	0.00035	-2e-05	-6e-05	-0.00019	6
33832	-0.0001	-2e-05	-3e-05	5e-05	0.00035	-2e-05	-6e-05	-0.00019	6
33833	-0.0001	-2e-05	-3e-05	5e-05	0.00035	-2e-05	-6e-05	-0.00019	6
33834	-0.0001	-2e-05	-3e-05	5e-05	0.00035	-2e-05	-6e-05	-0.00019	6
33835	0.00017	7e-05	5e-05	-5e-05	-0.00011	-8e-05	-4e-05	0.00015	6
33836	-1e-05	-3e-05	-4e-05	6e-05	2e-05	-0.0006	1e-05	2e-05	6
33838	-1e-05	-3e-05	-4e-05	6e-05	2e-05	-0.0006	1e-05	2e-05	6
33839	-1e-05	-3e-05	-4e-05	6e-05	2e-05	-0.0006	1e-05	2e-05	6
33840	-1e-05	-3e-05	-4e-05	6e-05	2e-05	-0.0006	1e-05	2e-05	6
33841	-1e-05	-3e-05	-4e-05	6e-05	2e-05	-0.0006	1e-05	2e-05	6
33842	-1e-05	-3e-05	-4e-05	6e-05	2e-05	-0.0006	1e-05	2e-05	6
33843	-1e-05	-3e-05	-4e-05	6e-05	2e-05	-0.0006	1e-05	2e-05	6
33844	-1e-05	-3e-05	-4e-05	6e-05	2e-05	-0.0006	1e-05	2e-05	6
33845	-1e-05	-3e-05	-4e-05	6e-05	2e-05	-0.0006	1e-05	2e-05	6
33846	-1e-05	-3e-05	-4e-05	6e-05	2e-05	-0.0006	1e-05	2e-05	6
33847	-1e-05	-3e-05	-4e-05	6e-05	2e-05	-0.0006	1e-05	2e-05	6
33848	-1e-05	-3e-05	-4e-05	6e-05	2e-05	-0.0006	1e-05	2e-05	6
33849	-1e-05	-3e-05	-4e-05	6e-05	2e-05	-0.0006	1e-05	2e-05	6
33850	-1e-05	-3e-05	-4e-05	6e-05	2e-05	-0.0006	1e-05	2e-05	6
33851	-1e-05	-3e-05	-4e-05	6e-05	2e-05	-0.0006	1e-05	2e-05	6
33852	-1e-05	-3e-05	-4e-05	6e-05	2e-05	-0.0006	1e-05	2e-05	6
33853	-1e-05	-3e-05	-4e-05	6e-05	2e-05	-0.0006	1e-05	2e-05	6
33854	-1e-05	-3e-05	-4e-05	6e-05	2e-05	-0.0006	1e-05	2e-05	6
33855	-1e-05	-3e-05	-4e-05	6e-05	2e-05	-0.0006	1e-05	2e-05	6
33856	-1e-05	-3e-05	-4e-05	6e-05	2e-05	-0.0006	1e-05	2e-05	6
33857	-0.00024	4e-05	-6e-05	-6e-05	-0.0001	0.00059	2e-05	-0.00043	6
33858	-0.00024	4e-05	-6e-05	-6e-05	-0.0001	0.00059	2e-05	-0.00043	6
33859	6e-05	-1e-05	-1e-05	-3e-05	3e-05	0.0001	-8e-05	0	6
33860	6e-05	-1e-05	-1e-05	-3e-05	3e-05	0.0001	-8e-05	0	6
33861	6e-05	-1e-05	-1e-05	-3e-05	3e-05	0.0001	-8e-05	0	6
33862	6e-05	-1e-05	-1e-05	-3e-05	3e-05	0.0001	-8e-05	0	6
33863	6e-05	-1e-05	-1e-05	-3e-05	3e-05	0.0001	-8e-05	0	6
33864	6e-05	-1e-05	-1e-05	-3e-05	3e-05	0.0001	-8e-05	0	6
33865	6e-05	-1e-05	-1e-05	-3e-05	3e-05	0.0001	-8e-05	0	6
33866	6e-05	-1e-05	-1e-05	-3e-05	3e-05	0.0001	-8e-05	0	6
33867	6e-05	-1e-05	-1e-05	-3e-05	3e-05	0.0001	-8e-05	0	6
33868	6e-05	-1e-05	-1e-05	-3e-05	3e-05	0.0001	-8e-05	0	6
33869	6e-05	-1e-05	-1e-05	-3e-05	3e-05	0.0001	-8e-05	0	6
33870	6e-05	-1e-05	-1e-05	-3e-05	3e-05	0.0001	-8e-05	0	6
33871	4e-05	-2e-05	1e-05	2e-05	-1e-05	-0.00019	9e-05	-2e-05	6
33872	4e-05	-2e-05	1e-05	2e-05	-1e-05	-0.00019	9e-05	-2e-05	6
33873	4e-05	-2e-05	1e-05	2e-05	-1e-05	-0.00019	9e-05	-2e-05	6
33874	4e-05	-2e-05	1e-05	2e-05	-1e-05	-0.00019	9e-05	-2e-05	6
33875	4e-05	-2e-05	1e-05	2e-05	-1e-05	-0.00019	9e-05	-2e-05	6
33876	4e-05	-2e-05	1e-05	2e-05	-1e-05	-0.00019	9e-05	-2e-05	6
33877	4e-05	-2e-05	1e-05	2e-05	-1e-05	-0.00019	9e-05	-2e-05	6
33878	4e-05	-2e-05	1e-05	2e-05	-1e-05	-0.00019	9e-05	-2e-05	6
33879	4e-05	-2e-05	1e-05	2e-05	-1e-05	-0.00019	9e-05	-2e-05	6
33880	0.00019	0	-2e-05	1e-05	2e-05	2e-05	2e-05	-9e-05	6
33881	0.00019	0	-2e-05	1e-05	2e-05	2e-05	2e-05	-9e-05	6
33882	0.00019	0	-2e-05	1e-05	2e-05	2e-05	2e-05	-9e-05	6
33883	0.00019	0	-2e-05	1e-05	2e-05	2e-05	2e-05	-9e-05	6
33884	0.00019	0	-2e-05	1e-05	2e-05	2e-05	2e-05	-9e-05	6
33885	0.00019	0	-2e-05	1e-05	2e-05	2e-05	2e-05	-9e-05	6
33886	0.00019	0	-2e-05	1e-05	2e-05	2e-05	2e-05	-9e-05	6
33888	0.00019	0	-2e-05	1e-05	2e-05	2e-05	2e-05	-9e-05	6
33889	0.00019	0	-2e-05	1e-05	2e-05	2e-05	2e-05	-9e-05	6
33890	0.00019	0	-2e-05	1e-05	2e-05	2e-05	2e-05	-9e-05	6
33891	0.00019	0	-2e-05	1e-05	2e-05	2e-05	2e-05	-9e-05	6
33892	0.00019	0	-2e-05	1e-05	2e-05	2e-05	2e-05	-9e-05	6
33893	0.00019	0	-2e-05	1e-05	2e-05	2e-05	2e-05	-9e-05	6
33894	0.00019	0	-2e-05	1e-05	2e-05	2e-05	2e-05	-9e-05	6
33895	2e-05	-5e-05	-0.00011	-0.00012	-0.00017	-7e-05	-3e-05	7e-05	6
33896	-1e-05	-1e-05	2e-05	1e-05	1e-05	-5e-05	9e-05	-8e-05	6
33897	-1e-05	-1e-05	2e-05	1e-05	1e-05	-5e-05	9e-05	-8e-05	6
33898	-1e-05	-1e-05	2e-05	1e-05	1e-05	-5e-05	9e-05	-8e-05	6
33899	-1e-05	-1e-05	2e-05	1e-05	1e-05	-5e-05	9e-05	-8e-05	6
33900	-1e-05	-1e-05	2e-05	1e-05	1e-05	-5e-05	9e-05	-8e-05	6
33901	-1e-05	-1e-05	2e-05	1e-05	1e-05	-5e-05	9e-05	-8e-05	6
33902	-1e-05	-1e-05	2e-05	1e-05	1e-05	-5e-05	9e-05	-8e-05	6
33903	-1e-05	-1e-05	2e-05	1e-05	1e-05	-5e-05	9e-05	-8e-05	6
33904	-1e-05	-1e-05	2e-05	1e-05	1e-05	-5e-05	9e-05	-8e-05	6
33905	-1e-05	-1e-05	2e-05	1e-05	1e-05	-5e-05	9e-05	-8e-05	6
33906	-1e-05	-1e-05	2e-05	1e-05	1e-05	-5e-05	9e-05	-8e-05	6
33907	-1e-05	-1e-05	2e-05	1e-05	1e-05	-5e-05	9e-05	-8e-05	6
33908	-1e-05	-1e-05	2e-05	1e-05	1e-05	-5e-05	9e-05	-8e-05	6
33909	-1e-05	-1e-05	2e-05	1e-05	1e-05	-5e-05	9e-05	-8e-05	6
33910	-1e-05	-1e-05	2e-05	1e-05	1e-05	-5e-05	9e-05	-8e-05	6
33911	-1e-05	-1e-05	2e-05	1e-05	1e-05	-5e-05	9e-05	-8e-05	6
33912	-1e-05	-1e-05	2e-05	1e-05	1e-05	-5e-05	9e-05	-8e-05	6
33913	-1e-05	-1e-05	2e-05	1e-05	1e-05	-5e-05	9e-05	-8e-05	6
33914	-1e-05	-1e-05	2e-05	1e-05	1e-05	-5e-05	9e-05	-8e-05	6
33915	-1e-05	-1e-05	2e-05	1e-05	1e-05	-5e-05	9e-05	-8e-05	6
33916	-1e-05	-1e-05	2e-05	1e-05	1e-05	-5e-05	9e-05	-8e-05	6
33917	3e-05	-7e-05	0	4e-05	0.00016	-3e-05	1e-05	2e-05	6
33918	2e-05	0	-2e-05	3e-05	0.00016	-4e-05	-6e-05	-0.00056	6
33919	0.00014	5e-05	-2e-05	-4e-05	-2e-05	-1e-05	-0.00018	-0.00015	6
33920	0.00014	5e-05	-2e-05	-4e-05	-2e-05	-1e-05	-0.00018	-0.00015	6
33921	0.00014	5e-05	-2e-05	-4e-05	-2e-05	-1e-05	-0.00018	-0.00015	6
33922	0.00014	5e-05	-2e-05	-4e-05	-2e-05	-1e-05	-0.00018	-0.00015	6
33923	0.00014	5e-05	-2e-05	-4e-05	-2e-05	-1e-05	-0.00018	-0.00015	6
33924	0.00014	5e-05	-2e-05	-4e-05	-2e-05	-1e-05	-0.00018	-0.00015	6
33925	0.00014	5e-05	-2e-05	-4e-05	-2e-05	-1e-05	-0.00018	-0.00015	6
33926	0.00014	5e-05	-2e-05	-4e-05	-2e-05	-1e-05	-0.00018	-0.00015	6
33927	0.00014	5e-05	-2e-05	-4e-05	-2e-05	-1e-05	-0.00018	-0.00015	6
33928	0.00014	5e-05	-2e-05	-4e-05	-2e-05	-1e-05	-0.00018	-0.00015	6
33929	0.00014	5e-05	-2e-05	-4e-05	-2e-05	-1e-05	-0.00018	-0.00015	6
33930	0.00014	5e-05	-2e-05	-4e-05	-2e-05	-1e-05	-0.00018	-0.00015	6
33931	0.00012	-2e-05	0	3e-05	0.00017	-8e-05	0	0.00031	6
33932	0.00012	-2e-05	0	3e-05	0.00017	-8e-05	0	0.00031	6
33933	0.00012	-2e-05	0	3e-05	0.00017	-8e-05	0	0.00031	6
33934	0.00012	-2e-05	0	3e-05	0.00017	-8e-05	0	0.00031	6
33935	0.00012	-2e-05	0	3e-05	0.00017	-8e-05	0	0.00031	6
33936	0.00012	-2e-05	0	3e-05	0.00017	-8e-05	0	0.00031	6
33938	0.00012	-2e-05	0	3e-05	0.00017	-8e-05	0	0.00031	6
33939	0.00012	-2e-05	0	3e-05	0.00017	-8e-05	0	0.00031	6
33940	-0.00019	-8e-05	-9e-05	-5e-05	-9e-05	0.0004	0.0001	-0.00026	6
33941	-0.00019	-8e-05	-9e-05	-5e-05	-9e-05	0.0004	0.0001	-0.00026	6
33942	-0.00019	-8e-05	-9e-05	-5e-05	-9e-05	0.0004	0.0001	-0.00026	6
33943	-0.00019	-8e-05	-9e-05	-5e-05	-9e-05	0.0004	0.0001	-0.00026	6
33944	-0.00019	-8e-05	-9e-05	-5e-05	-9e-05	0.0004	0.0001	-0.00026	6
33945	-0.00019	-8e-05	-9e-05	-5e-05	-9e-05	0.0004	0.0001	-0.00026	6
33946	-0.00019	-8e-05	-9e-05	-5e-05	-9e-05	0.0004	0.0001	-0.00026	6
33947	-0.00019	-8e-05	-9e-05	-5e-05	-9e-05	0.0004	0.0001	-0.00026	6
33948	-0.00019	-8e-05	-9e-05	-5e-05	-9e-05	0.0004	0.0001	-0.00026	6
33949	-0.00019	-8e-05	-9e-05	-5e-05	-9e-05	0.0004	0.0001	-0.00026	6
33950	-0.00019	-8e-05	-9e-05	-5e-05	-9e-05	0.0004	0.0001	-0.00026	6
33951	-0.00019	-8e-05	-9e-05	-5e-05	-9e-05	0.0004	0.0001	-0.00026	6
33952	-0.00019	-8e-05	-9e-05	-5e-05	-9e-05	0.0004	0.0001	-0.00026	6
33953	-0.00019	-8e-05	-9e-05	-5e-05	-9e-05	0.0004	0.0001	-0.00026	6
33954	-0.00019	-8e-05	-9e-05	-5e-05	-9e-05	0.0004	0.0001	-0.00026	6
33955	8e-05	4e-05	-1e-05	3e-05	1e-05	0.00011	-0.00024	0.00041	6
33956	-0.00016	-5e-05	-1e-05	-5e-05	-0.00012	0.00054	3e-05	0.00029	6
33957	-0.00016	-5e-05	-1e-05	-5e-05	-0.00012	0.00054	3e-05	0.00029	6
33958	-0.00016	-5e-05	-1e-05	-5e-05	-0.00012	0.00054	3e-05	0.00029	6
33959	-0.00016	-5e-05	-1e-05	-5e-05	-0.00012	0.00054	3e-05	0.00029	6
33960	-0.00016	-5e-05	-1e-05	-5e-05	-0.00012	0.00054	3e-05	0.00029	6
33961	-0.00016	-5e-05	-1e-05	-5e-05	-0.00012	0.00054	3e-05	0.00029	6
33962	-0.00016	-5e-05	-1e-05	-5e-05	-0.00012	0.00054	3e-05	0.00029	6
33963	-0.00016	-5e-05	-1e-05	-5e-05	-0.00012	0.00054	3e-05	0.00029	6
33964	-0.00016	-5e-05	-1e-05	-5e-05	-0.00012	0.00054	3e-05	0.00029	6
33965	-0.00016	-5e-05	-1e-05	-5e-05	-0.00012	0.00054	3e-05	0.00029	6
33966	-0.00016	-5e-05	-1e-05	-5e-05	-0.00012	0.00054	3e-05	0.00029	6
33967	-0.00016	-5e-05	-1e-05	-5e-05	-0.00012	0.00054	3e-05	0.00029	6
33968	-0.00016	-5e-05	-1e-05	-5e-05	-0.00012	0.00054	3e-05	0.00029	6
33969	-0.00016	-5e-05	-1e-05	-5e-05	-0.00012	0.00054	3e-05	0.00029	6
33970	-0.00016	-5e-05	-1e-05	-5e-05	-0.00012	0.00054	3e-05	0.00029	6
33971	-0.00016	-5e-05	-1e-05	-5e-05	-0.00012	0.00054	3e-05	0.00029	6
33972	-0.00016	-5e-05	-1e-05	-5e-05	-0.00012	0.00054	3e-05	0.00029	6
33973	-0.00016	-5e-05	-1e-05	-5e-05	-0.00012	0.00054	3e-05	0.00029	6
33974	-0.00016	-5e-05	-1e-05	-5e-05	-0.00012	0.00054	3e-05	0.00029	6
33975	-0.00016	-5e-05	-1e-05	-5e-05	-0.00012	0.00054	3e-05	0.00029	6
33976	-0.00016	-5e-05	-1e-05	-5e-05	-0.00012	0.00054	3e-05	0.00029	6
33977	4e-05	1e-05	4e-05	4e-05	-0.00011	0.00017	6e-05	-0.0002	6
33978	4e-05	1e-05	4e-05	4e-05	-0.00011	0.00017	6e-05	-0.0002	6
33979	-1e-05	-3e-05	-5e-05	2e-05	0.00011	-0.00038	5e-05	-7e-05	6
33980	-1e-05	-3e-05	-5e-05	2e-05	0.00011	-0.00038	5e-05	-7e-05	6
33981	-1e-05	-3e-05	-5e-05	2e-05	0.00011	-0.00038	5e-05	-7e-05	6
33982	-1e-05	-3e-05	-5e-05	2e-05	0.00011	-0.00038	5e-05	-7e-05	6
33983	-1e-05	-3e-05	-5e-05	2e-05	0.00011	-0.00038	5e-05	-7e-05	6
33984	-1e-05	-3e-05	-5e-05	2e-05	0.00011	-0.00038	5e-05	-7e-05	6
33985	-1e-05	-3e-05	-5e-05	2e-05	0.00011	-0.00038	5e-05	-7e-05	6
33986	-1e-05	-3e-05	-5e-05	2e-05	0.00011	-0.00038	5e-05	-7e-05	6
33988	-1e-05	-3e-05	-5e-05	2e-05	0.00011	-0.00038	5e-05	-7e-05	6
33989	-1e-05	-3e-05	-5e-05	2e-05	0.00011	-0.00038	5e-05	-7e-05	6
33990	-1e-05	-3e-05	-5e-05	2e-05	0.00011	-0.00038	5e-05	-7e-05	6
33991	7e-05	-1e-05	0	7e-05	0.00038	-0.00027	1e-05	-0.00011	6
33992	7e-05	-1e-05	0	7e-05	0.00038	-0.00027	1e-05	-0.00011	6
33993	7e-05	-1e-05	0	7e-05	0.00038	-0.00027	1e-05	-0.00011	6
33994	7e-05	-1e-05	0	7e-05	0.00038	-0.00027	1e-05	-0.00011	6
33995	7e-05	-1e-05	0	7e-05	0.00038	-0.00027	1e-05	-0.00011	6
33996	7e-05	-1e-05	0	7e-05	0.00038	-0.00027	1e-05	-0.00011	6
33997	7e-05	-1e-05	0	7e-05	0.00038	-0.00027	1e-05	-0.00011	6
33998	7e-05	-1e-05	0	7e-05	0.00038	-0.00027	1e-05	-0.00011	6
33999	7e-05	-1e-05	0	7e-05	0.00038	-0.00027	1e-05	-0.00011	6
34000	-9e-05	-4e-05	2e-05	-5e-05	-5e-05	-0.00043	-0.00013	-0.0001	6
34002	-9e-05	-4e-05	2e-05	-5e-05	-5e-05	-0.00043	-0.00013	-0.0001	6
34003	-9e-05	-4e-05	2e-05	-5e-05	-5e-05	-0.00043	-0.00013	-0.0001	6
34004	-9e-05	-4e-05	2e-05	-5e-05	-5e-05	-0.00043	-0.00013	-0.0001	6
34005	-9e-05	-4e-05	2e-05	-5e-05	-5e-05	-0.00043	-0.00013	-0.0001	6
34006	-9e-05	-4e-05	2e-05	-5e-05	-5e-05	-0.00043	-0.00013	-0.0001	6
34007	-9e-05	-4e-05	2e-05	-5e-05	-5e-05	-0.00043	-0.00013	-0.0001	6
34008	-9e-05	-4e-05	2e-05	-5e-05	-5e-05	-0.00043	-0.00013	-0.0001	6
34009	-9e-05	-4e-05	2e-05	-5e-05	-5e-05	-0.00043	-0.00013	-0.0001	6
34010	-9e-05	-4e-05	2e-05	-5e-05	-5e-05	-0.00043	-0.00013	-0.0001	6
34011	-9e-05	-4e-05	2e-05	-5e-05	-5e-05	-0.00043	-0.00013	-0.0001	6
34012	-9e-05	-4e-05	2e-05	-5e-05	-5e-05	-0.00043	-0.00013	-0.0001	6
34013	-9e-05	-4e-05	2e-05	-5e-05	-5e-05	-0.00043	-0.00013	-0.0001	6
34014	-9e-05	-4e-05	2e-05	-5e-05	-5e-05	-0.00043	-0.00013	-0.0001	6
34015	-9e-05	-4e-05	2e-05	-5e-05	-5e-05	-0.00043	-0.00013	-0.0001	6
34016	-4e-05	1e-05	1e-05	-7e-05	-0.00013	-0.00037	-7e-05	-2e-05	6
34017	-4e-05	1e-05	1e-05	-7e-05	-0.00013	-0.00037	-7e-05	-2e-05	6
34018	-4e-05	1e-05	1e-05	-7e-05	-0.00013	-0.00037	-7e-05	-2e-05	6
34019	-4e-05	1e-05	1e-05	-7e-05	-0.00013	-0.00037	-7e-05	-2e-05	6
34020	-4e-05	1e-05	1e-05	-7e-05	-0.00013	-0.00037	-7e-05	-2e-05	6
34021	-4e-05	1e-05	1e-05	-7e-05	-0.00013	-0.00037	-7e-05	-2e-05	6
34022	-4e-05	1e-05	1e-05	-7e-05	-0.00013	-0.00037	-7e-05	-2e-05	6
34023	-4e-05	1e-05	1e-05	-7e-05	-0.00013	-0.00037	-7e-05	-2e-05	6
34024	-4e-05	1e-05	1e-05	-7e-05	-0.00013	-0.00037	-7e-05	-2e-05	6
34025	-4e-05	1e-05	1e-05	-7e-05	-0.00013	-0.00037	-7e-05	-2e-05	6
34026	-4e-05	1e-05	1e-05	-7e-05	-0.00013	-0.00037	-7e-05	-2e-05	6
34027	-4e-05	1e-05	1e-05	-7e-05	-0.00013	-0.00037	-7e-05	-2e-05	6
34028	-4e-05	1e-05	1e-05	-7e-05	-0.00013	-0.00037	-7e-05	-2e-05	6
34029	-4e-05	1e-05	1e-05	-7e-05	-0.00013	-0.00037	-7e-05	-2e-05	6
34030	-4e-05	1e-05	1e-05	-7e-05	-0.00013	-0.00037	-7e-05	-2e-05	6
34031	-4e-05	1e-05	1e-05	-7e-05	-0.00013	-0.00037	-7e-05	-2e-05	6
34032	-4e-05	1e-05	1e-05	-7e-05	-0.00013	-0.00037	-7e-05	-2e-05	6
34033	-4e-05	1e-05	1e-05	-7e-05	-0.00013	-0.00037	-7e-05	-2e-05	6
34034	-4e-05	1e-05	1e-05	-7e-05	-0.00013	-0.00037	-7e-05	-2e-05	6
34035	-4e-05	1e-05	1e-05	-7e-05	-0.00013	-0.00037	-7e-05	-2e-05	6
34036	-4e-05	1e-05	1e-05	-7e-05	-0.00013	-0.00037	-7e-05	-2e-05	6
34039	7e-05	4e-05	0	0	-0.00029	-9e-05	-0.0001	-1e-05	6
34040	7e-05	4e-05	0	0	-0.00029	-9e-05	-0.0001	-1e-05	6
34041	7e-05	4e-05	0	0	-0.00029	-9e-05	-0.0001	-1e-05	6
34042	7e-05	4e-05	0	0	-0.00029	-9e-05	-0.0001	-1e-05	6
34043	7e-05	4e-05	0	0	-0.00029	-9e-05	-0.0001	-1e-05	6
34044	7e-05	4e-05	0	0	-0.00029	-9e-05	-0.0001	-1e-05	6
34045	7e-05	4e-05	0	0	-0.00029	-9e-05	-0.0001	-1e-05	6
34046	7e-05	4e-05	0	0	-0.00029	-9e-05	-0.0001	-1e-05	6
34047	7e-05	4e-05	0	0	-0.00029	-9e-05	-0.0001	-1e-05	6
34048	7e-05	4e-05	0	0	-0.00029	-9e-05	-0.0001	-1e-05	6
34049	7e-05	4e-05	0	0	-0.00029	-9e-05	-0.0001	-1e-05	6
34050	7e-05	4e-05	0	0	-0.00029	-9e-05	-0.0001	-1e-05	6
34051	6e-05	-6e-05	2e-05	0.0001	0.00025	-0.0002	0.00012	0.00014	6
34052	6e-05	-6e-05	2e-05	0.0001	0.00025	-0.0002	0.00012	0.00014	6
34053	6e-05	-6e-05	2e-05	0.0001	0.00025	-0.0002	0.00012	0.00014	6
34054	6e-05	-6e-05	2e-05	0.0001	0.00025	-0.0002	0.00012	0.00014	6
34055	6e-05	-6e-05	2e-05	0.0001	0.00025	-0.0002	0.00012	0.00014	6
34056	6e-05	-6e-05	2e-05	0.0001	0.00025	-0.0002	0.00012	0.00014	6
34057	6e-05	-6e-05	2e-05	0.0001	0.00025	-0.0002	0.00012	0.00014	6
34058	6e-05	-6e-05	2e-05	0.0001	0.00025	-0.0002	0.00012	0.00014	6
34059	6e-05	-6e-05	2e-05	0.0001	0.00025	-0.0002	0.00012	0.00014	6
34060	0.00011	4e-05	-2e-05	-8e-05	-6e-05	-5e-05	-0.00018	0.00014	6
34061	0.00011	4e-05	-2e-05	-8e-05	-6e-05	-5e-05	-0.00018	0.00014	6
34062	0.00011	4e-05	-2e-05	-8e-05	-6e-05	-5e-05	-0.00018	0.00014	6
34063	0.00011	4e-05	-2e-05	-8e-05	-6e-05	-5e-05	-0.00018	0.00014	6
34064	0.00011	4e-05	-2e-05	-8e-05	-6e-05	-5e-05	-0.00018	0.00014	6
34065	0.00011	4e-05	-2e-05	-8e-05	-6e-05	-5e-05	-0.00018	0.00014	6
34066	0.00011	4e-05	-2e-05	-8e-05	-6e-05	-5e-05	-0.00018	0.00014	6
34067	0.00011	4e-05	-2e-05	-8e-05	-6e-05	-5e-05	-0.00018	0.00014	6
34068	0.00011	4e-05	-2e-05	-8e-05	-6e-05	-5e-05	-0.00018	0.00014	6
34069	0.00011	4e-05	-2e-05	-8e-05	-6e-05	-5e-05	-0.00018	0.00014	6
34070	0.00011	4e-05	-2e-05	-8e-05	-6e-05	-5e-05	-0.00018	0.00014	6
34071	0.00011	4e-05	-2e-05	-8e-05	-6e-05	-5e-05	-0.00018	0.00014	6
34072	0.00011	4e-05	-2e-05	-8e-05	-6e-05	-5e-05	-0.00018	0.00014	6
34073	0.00011	4e-05	-2e-05	-8e-05	-6e-05	-5e-05	-0.00018	0.00014	6
34074	-0.0001	-3e-05	-6e-05	-3e-05	-1e-05	0.00016	-4e-05	0.00023	6
34075	-1e-05	-4e-05	-3e-05	1e-05	0.00019	0.00039	-0.00018	-0.00026	6
34076	-5e-05	-6e-05	1e-05	0	-0.00028	2e-05	-0.0001	0	6
34077	-5e-05	-6e-05	1e-05	0	-0.00028	2e-05	-0.0001	0	6
34078	-5e-05	-6e-05	1e-05	0	-0.00028	2e-05	-0.0001	0	6
34079	-5e-05	-6e-05	1e-05	0	-0.00028	2e-05	-0.0001	0	6
34080	-5e-05	-6e-05	1e-05	0	-0.00028	2e-05	-0.0001	0	6
34081	-5e-05	-6e-05	1e-05	0	-0.00028	2e-05	-0.0001	0	6
34082	-5e-05	-6e-05	1e-05	0	-0.00028	2e-05	-0.0001	0	6
34083	-5e-05	-6e-05	1e-05	0	-0.00028	2e-05	-0.0001	0	6
34084	-5e-05	-6e-05	1e-05	0	-0.00028	2e-05	-0.0001	0	6
34085	-5e-05	-6e-05	1e-05	0	-0.00028	2e-05	-0.0001	0	6
34086	-5e-05	-6e-05	1e-05	0	-0.00028	2e-05	-0.0001	0	6
34088	-5e-05	-6e-05	1e-05	0	-0.00028	2e-05	-0.0001	0	6
34089	-5e-05	-6e-05	1e-05	0	-0.00028	2e-05	-0.0001	0	6
34090	-5e-05	-6e-05	1e-05	0	-0.00028	2e-05	-0.0001	0	6
34091	-5e-05	-6e-05	1e-05	0	-0.00028	2e-05	-0.0001	0	6
34092	-5e-05	-6e-05	1e-05	0	-0.00028	2e-05	-0.0001	0	6
34093	-5e-05	-6e-05	1e-05	0	-0.00028	2e-05	-0.0001	0	6
34094	-5e-05	-6e-05	1e-05	0	-0.00028	2e-05	-0.0001	0	6
34095	-5e-05	-6e-05	1e-05	0	-0.00028	2e-05	-0.0001	0	6
34096	-5e-05	-6e-05	1e-05	0	-0.00028	2e-05	-0.0001	0	6
34097	4e-05	5e-05	1e-05	-0.0001	-0.0002	-0.00046	6e-05	7e-05	6
34098	4e-05	5e-05	1e-05	-0.0001	-0.0002	-0.00046	6e-05	7e-05	6
34099	-1e-05	1e-05	-2e-05	-2e-05	3e-05	5e-05	5e-05	-6e-05	6
34100	-1e-05	1e-05	-2e-05	-2e-05	3e-05	5e-05	5e-05	-6e-05	6
34101	-1e-05	1e-05	-2e-05	-2e-05	3e-05	5e-05	5e-05	-6e-05	6
34102	-1e-05	1e-05	-2e-05	-2e-05	3e-05	5e-05	5e-05	-6e-05	6
34103	-1e-05	1e-05	-2e-05	-2e-05	3e-05	5e-05	5e-05	-6e-05	6
34104	-1e-05	1e-05	-2e-05	-2e-05	3e-05	5e-05	5e-05	-6e-05	6
34105	-1e-05	1e-05	-2e-05	-2e-05	3e-05	5e-05	5e-05	-6e-05	6
34106	-1e-05	1e-05	-2e-05	-2e-05	3e-05	5e-05	5e-05	-6e-05	6
34107	-1e-05	1e-05	-2e-05	-2e-05	3e-05	5e-05	5e-05	-6e-05	6
34108	-1e-05	1e-05	-2e-05	-2e-05	3e-05	5e-05	5e-05	-6e-05	6
34109	-1e-05	1e-05	-2e-05	-2e-05	3e-05	5e-05	5e-05	-6e-05	6
34110	2e-05	0	2e-05	5e-05	7e-05	3e-05	8e-05	0	6
34111	1e-05	-8e-05	-4e-05	-4e-05	-0.00011	-5e-05	0	-4e-05	6
34112	1e-05	-8e-05	-4e-05	-4e-05	-0.00011	-5e-05	0	-4e-05	6
34113	1e-05	-8e-05	-4e-05	-4e-05	-0.00011	-5e-05	0	-4e-05	6
34114	1e-05	-8e-05	-4e-05	-4e-05	-0.00011	-5e-05	0	-4e-05	6
34115	1e-05	-8e-05	-4e-05	-4e-05	-0.00011	-5e-05	0	-4e-05	6
34116	1e-05	-8e-05	-4e-05	-4e-05	-0.00011	-5e-05	0	-4e-05	6
34117	1e-05	-8e-05	-4e-05	-4e-05	-0.00011	-5e-05	0	-4e-05	6
34118	1e-05	-8e-05	-4e-05	-4e-05	-0.00011	-5e-05	0	-4e-05	6
34119	1e-05	-8e-05	-4e-05	-4e-05	-0.00011	-5e-05	0	-4e-05	6
34120	-0.0001	-9e-05	-8e-05	-4e-05	-0.00013	-0.00021	-5e-05	-0.00046	6
34121	-0.0001	-9e-05	-8e-05	-4e-05	-0.00013	-0.00021	-5e-05	-0.00046	6
34122	-0.0001	-9e-05	-8e-05	-4e-05	-0.00013	-0.00021	-5e-05	-0.00046	6
34123	-0.0001	-9e-05	-8e-05	-4e-05	-0.00013	-0.00021	-5e-05	-0.00046	6
34124	-0.0001	-9e-05	-8e-05	-4e-05	-0.00013	-0.00021	-5e-05	-0.00046	6
34125	-0.0001	-9e-05	-8e-05	-4e-05	-0.00013	-0.00021	-5e-05	-0.00046	6
34126	-0.0001	-9e-05	-8e-05	-4e-05	-0.00013	-0.00021	-5e-05	-0.00046	6
34127	-0.0001	-9e-05	-8e-05	-4e-05	-0.00013	-0.00021	-5e-05	-0.00046	6
34128	-0.0001	-9e-05	-8e-05	-4e-05	-0.00013	-0.00021	-5e-05	-0.00046	6
34129	-0.0001	-9e-05	-8e-05	-4e-05	-0.00013	-0.00021	-5e-05	-0.00046	6
34130	-0.0001	-9e-05	-8e-05	-4e-05	-0.00013	-0.00021	-5e-05	-0.00046	6
34131	-0.0001	-9e-05	-8e-05	-4e-05	-0.00013	-0.00021	-5e-05	-0.00046	6
34132	-0.0001	-9e-05	-8e-05	-4e-05	-0.00013	-0.00021	-5e-05	-0.00046	6
34133	-0.0001	-9e-05	-8e-05	-4e-05	-0.00013	-0.00021	-5e-05	-0.00046	6
34134	0.00014	0.0001	9e-05	6e-05	-0.00012	-0.00023	-0.00011	0.0003	6
34135	1e-05	5e-05	4e-05	6e-05	0.00017	-2e-05	0.00012	0.00021	6
34136	5e-05	-2e-05	-7e-05	7e-05	0.00014	0.00012	0.00012	0.00012	6
34138	5e-05	-2e-05	-7e-05	7e-05	0.00014	0.00012	0.00012	0.00012	6
34139	5e-05	-2e-05	-7e-05	7e-05	0.00014	0.00012	0.00012	0.00012	6
34140	5e-05	-2e-05	-7e-05	7e-05	0.00014	0.00012	0.00012	0.00012	6
34141	5e-05	-2e-05	-7e-05	7e-05	0.00014	0.00012	0.00012	0.00012	6
34142	5e-05	-2e-05	-7e-05	7e-05	0.00014	0.00012	0.00012	0.00012	6
34143	5e-05	-2e-05	-7e-05	7e-05	0.00014	0.00012	0.00012	0.00012	6
34144	5e-05	-2e-05	-7e-05	7e-05	0.00014	0.00012	0.00012	0.00012	6
34145	5e-05	-2e-05	-7e-05	7e-05	0.00014	0.00012	0.00012	0.00012	6
34146	5e-05	-2e-05	-7e-05	7e-05	0.00014	0.00012	0.00012	0.00012	6
34147	5e-05	-2e-05	-7e-05	7e-05	0.00014	0.00012	0.00012	0.00012	6
34148	5e-05	-2e-05	-7e-05	7e-05	0.00014	0.00012	0.00012	0.00012	6
34149	5e-05	-2e-05	-7e-05	7e-05	0.00014	0.00012	0.00012	0.00012	6
34150	5e-05	-2e-05	-7e-05	7e-05	0.00014	0.00012	0.00012	0.00012	6
34151	5e-05	-2e-05	-7e-05	7e-05	0.00014	0.00012	0.00012	0.00012	6
34152	5e-05	-2e-05	-7e-05	7e-05	0.00014	0.00012	0.00012	0.00012	6
34153	5e-05	-2e-05	-7e-05	7e-05	0.00014	0.00012	0.00012	0.00012	6
34154	5e-05	-2e-05	-7e-05	7e-05	0.00014	0.00012	0.00012	0.00012	6
34155	5e-05	-2e-05	-7e-05	7e-05	0.00014	0.00012	0.00012	0.00012	6
34156	5e-05	-2e-05	-7e-05	7e-05	0.00014	0.00012	0.00012	0.00012	6
34157	-8e-05	-2e-05	-1e-05	0	-9e-05	-6e-05	-7e-05	-0.00026	6
34158	-0.0001	-2e-05	1e-05	-4e-05	1e-05	-0.00015	3e-05	6e-05	6
34159	3e-05	2e-05	-1e-05	-2e-05	0.00019	-0.00017	7e-05	0.00018	6
34160	3e-05	2e-05	-1e-05	-2e-05	0.00019	-0.00017	7e-05	0.00018	6
34161	3e-05	2e-05	-1e-05	-2e-05	0.00019	-0.00017	7e-05	0.00018	6
34162	3e-05	2e-05	-1e-05	-2e-05	0.00019	-0.00017	7e-05	0.00018	6
34163	3e-05	2e-05	-1e-05	-2e-05	0.00019	-0.00017	7e-05	0.00018	6
34164	3e-05	2e-05	-1e-05	-2e-05	0.00019	-0.00017	7e-05	0.00018	6
34165	3e-05	2e-05	-1e-05	-2e-05	0.00019	-0.00017	7e-05	0.00018	6
34166	3e-05	2e-05	-1e-05	-2e-05	0.00019	-0.00017	7e-05	0.00018	6
34167	3e-05	2e-05	-1e-05	-2e-05	0.00019	-0.00017	7e-05	0.00018	6
34168	3e-05	2e-05	-1e-05	-2e-05	0.00019	-0.00017	7e-05	0.00018	6
34169	3e-05	2e-05	-1e-05	-2e-05	0.00019	-0.00017	7e-05	0.00018	6
34170	3e-05	2e-05	-1e-05	-2e-05	0.00019	-0.00017	7e-05	0.00018	6
34171	-9e-05	-2e-05	-1e-05	-7e-05	-0.00019	-0.00012	-2e-05	-3e-05	6
34172	-9e-05	-2e-05	-1e-05	-7e-05	-0.00019	-0.00012	-2e-05	-3e-05	6
34173	-9e-05	-2e-05	-1e-05	-7e-05	-0.00019	-0.00012	-2e-05	-3e-05	6
34174	-9e-05	-2e-05	-1e-05	-7e-05	-0.00019	-0.00012	-2e-05	-3e-05	6
34175	-9e-05	-2e-05	-1e-05	-7e-05	-0.00019	-0.00012	-2e-05	-3e-05	6
34176	-9e-05	-2e-05	-1e-05	-7e-05	-0.00019	-0.00012	-2e-05	-3e-05	6
34177	-9e-05	-2e-05	-1e-05	-7e-05	-0.00019	-0.00012	-2e-05	-3e-05	6
34178	-9e-05	-2e-05	-1e-05	-7e-05	-0.00019	-0.00012	-2e-05	-3e-05	6
34179	-9e-05	-2e-05	-1e-05	-7e-05	-0.00019	-0.00012	-2e-05	-3e-05	6
34180	9e-05	0	5e-05	7e-05	0.00018	0.00048	1e-05	4e-05	6
34181	9e-05	0	5e-05	7e-05	0.00018	0.00048	1e-05	4e-05	6
34182	9e-05	0	5e-05	7e-05	0.00018	0.00048	1e-05	4e-05	6
34183	9e-05	0	5e-05	7e-05	0.00018	0.00048	1e-05	4e-05	6
34184	9e-05	0	5e-05	7e-05	0.00018	0.00048	1e-05	4e-05	6
34185	9e-05	0	5e-05	7e-05	0.00018	0.00048	1e-05	4e-05	6
34186	9e-05	0	5e-05	7e-05	0.00018	0.00048	1e-05	4e-05	6
34189	9e-05	0	5e-05	7e-05	0.00018	0.00048	1e-05	4e-05	6
34190	9e-05	0	5e-05	7e-05	0.00018	0.00048	1e-05	4e-05	6
34191	9e-05	0	5e-05	7e-05	0.00018	0.00048	1e-05	4e-05	6
34192	9e-05	0	5e-05	7e-05	0.00018	0.00048	1e-05	4e-05	6
34193	9e-05	0	5e-05	7e-05	0.00018	0.00048	1e-05	4e-05	6
34194	9e-05	0	5e-05	7e-05	0.00018	0.00048	1e-05	4e-05	6
34195	-0.00023	-7e-05	-3e-05	-0.00011	-0.00017	0.00038	-4e-05	-9e-05	6
34196	8e-05	8e-05	0	1e-05	-0.00021	0.00048	7e-05	0.00035	6
34197	8e-05	8e-05	0	1e-05	-0.00021	0.00048	7e-05	0.00035	6
34198	8e-05	8e-05	0	1e-05	-0.00021	0.00048	7e-05	0.00035	6
34199	8e-05	8e-05	0	1e-05	-0.00021	0.00048	7e-05	0.00035	6
34200	8e-05	8e-05	0	1e-05	-0.00021	0.00048	7e-05	0.00035	6
34201	8e-05	8e-05	0	1e-05	-0.00021	0.00048	7e-05	0.00035	6
34202	8e-05	8e-05	0	1e-05	-0.00021	0.00048	7e-05	0.00035	6
34203	8e-05	8e-05	0	1e-05	-0.00021	0.00048	7e-05	0.00035	6
34204	8e-05	8e-05	0	1e-05	-0.00021	0.00048	7e-05	0.00035	6
34205	8e-05	8e-05	0	1e-05	-0.00021	0.00048	7e-05	0.00035	6
34206	8e-05	8e-05	0	1e-05	-0.00021	0.00048	7e-05	0.00035	6
34207	8e-05	8e-05	0	1e-05	-0.00021	0.00048	7e-05	0.00035	6
34208	8e-05	8e-05	0	1e-05	-0.00021	0.00048	7e-05	0.00035	6
34209	8e-05	8e-05	0	1e-05	-0.00021	0.00048	7e-05	0.00035	6
34210	8e-05	8e-05	0	1e-05	-0.00021	0.00048	7e-05	0.00035	6
34211	8e-05	8e-05	0	1e-05	-0.00021	0.00048	7e-05	0.00035	6
34212	8e-05	8e-05	0	1e-05	-0.00021	0.00048	7e-05	0.00035	6
34213	8e-05	8e-05	0	1e-05	-0.00021	0.00048	7e-05	0.00035	6
34214	8e-05	8e-05	0	1e-05	-0.00021	0.00048	7e-05	0.00035	6
34215	8e-05	8e-05	0	1e-05	-0.00021	0.00048	7e-05	0.00035	6
34216	8e-05	8e-05	0	1e-05	-0.00021	0.00048	7e-05	0.00035	6
34217	-1e-05	-3e-05	-3e-05	-3e-05	4e-05	0.00013	-7e-05	-0.00014	6
34218	6e-05	-2e-05	-5e-05	-6e-05	6e-05	-0.00017	-0.00011	0.00016	6
34219	-4e-05	0	2e-05	9e-05	0.00019	-5e-05	-5e-05	1e-05	6
34220	-4e-05	0	2e-05	9e-05	0.00019	-5e-05	-5e-05	1e-05	6
34221	-4e-05	0	2e-05	9e-05	0.00019	-5e-05	-5e-05	1e-05	6
34222	-4e-05	0	2e-05	9e-05	0.00019	-5e-05	-5e-05	1e-05	6
34223	-4e-05	0	2e-05	9e-05	0.00019	-5e-05	-5e-05	1e-05	6
34224	-4e-05	0	2e-05	9e-05	0.00019	-5e-05	-5e-05	1e-05	6
34225	-4e-05	0	2e-05	9e-05	0.00019	-5e-05	-5e-05	1e-05	6
34226	-4e-05	0	2e-05	9e-05	0.00019	-5e-05	-5e-05	1e-05	6
34227	-4e-05	0	2e-05	9e-05	0.00019	-5e-05	-5e-05	1e-05	6
34228	-4e-05	0	2e-05	9e-05	0.00019	-5e-05	-5e-05	1e-05	6
34229	-4e-05	0	2e-05	9e-05	0.00019	-5e-05	-5e-05	1e-05	6
34230	-4e-05	0	2e-05	9e-05	0.00019	-5e-05	-5e-05	1e-05	6
34231	9e-05	-1e-05	-3e-05	3e-05	0.00022	-1e-05	3e-05	0.0001	6
34232	9e-05	-1e-05	-3e-05	3e-05	0.00022	-1e-05	3e-05	0.0001	6
34233	9e-05	-1e-05	-3e-05	3e-05	0.00022	-1e-05	3e-05	0.0001	6
34234	9e-05	-1e-05	-3e-05	3e-05	0.00022	-1e-05	3e-05	0.0001	6
34235	9e-05	-1e-05	-3e-05	3e-05	0.00022	-1e-05	3e-05	0.0001	6
34236	9e-05	-1e-05	-3e-05	3e-05	0.00022	-1e-05	3e-05	0.0001	6
34238	9e-05	-1e-05	-3e-05	3e-05	0.00022	-1e-05	3e-05	0.0001	6
34239	9e-05	-1e-05	-3e-05	3e-05	0.00022	-1e-05	3e-05	0.0001	6
34240	2e-05	-4e-05	1e-05	0	0.00018	-0.00012	5e-05	-1e-05	6
34241	2e-05	-4e-05	1e-05	0	0.00018	-0.00012	5e-05	-1e-05	6
34242	2e-05	-4e-05	1e-05	0	0.00018	-0.00012	5e-05	-1e-05	6
34243	2e-05	-4e-05	1e-05	0	0.00018	-0.00012	5e-05	-1e-05	6
34244	2e-05	-4e-05	1e-05	0	0.00018	-0.00012	5e-05	-1e-05	6
34245	2e-05	-4e-05	1e-05	0	0.00018	-0.00012	5e-05	-1e-05	6
34246	2e-05	-4e-05	1e-05	0	0.00018	-0.00012	5e-05	-1e-05	6
34247	2e-05	-4e-05	1e-05	0	0.00018	-0.00012	5e-05	-1e-05	6
34248	2e-05	-4e-05	1e-05	0	0.00018	-0.00012	5e-05	-1e-05	6
34249	2e-05	-4e-05	1e-05	0	0.00018	-0.00012	5e-05	-1e-05	6
34250	2e-05	-4e-05	1e-05	0	0.00018	-0.00012	5e-05	-1e-05	6
34251	2e-05	-4e-05	1e-05	0	0.00018	-0.00012	5e-05	-1e-05	6
34252	2e-05	-4e-05	1e-05	0	0.00018	-0.00012	5e-05	-1e-05	6
34253	2e-05	-4e-05	1e-05	0	0.00018	-0.00012	5e-05	-1e-05	6
34254	2e-05	-4e-05	1e-05	0	0.00018	-0.00012	5e-05	-1e-05	6
34255	-6e-05	-4e-05	-0.00013	-0.00011	-9e-05	-5e-05	-6e-05	-0.00018	6
34256	-0.00012	-7e-05	4e-05	-3e-05	-0.00016	-0.00014	2e-05	2e-05	6
34257	-0.00012	-7e-05	4e-05	-3e-05	-0.00016	-0.00014	2e-05	2e-05	6
34258	-0.00012	-7e-05	4e-05	-3e-05	-0.00016	-0.00014	2e-05	2e-05	6
34259	-0.00012	-7e-05	4e-05	-3e-05	-0.00016	-0.00014	2e-05	2e-05	6
34260	-0.00012	-7e-05	4e-05	-3e-05	-0.00016	-0.00014	2e-05	2e-05	6
34261	-0.00012	-7e-05	4e-05	-3e-05	-0.00016	-0.00014	2e-05	2e-05	6
34262	-0.00012	-7e-05	4e-05	-3e-05	-0.00016	-0.00014	2e-05	2e-05	6
34263	-0.00012	-7e-05	4e-05	-3e-05	-0.00016	-0.00014	2e-05	2e-05	6
34264	-0.00012	-7e-05	4e-05	-3e-05	-0.00016	-0.00014	2e-05	2e-05	6
34265	-0.00012	-7e-05	4e-05	-3e-05	-0.00016	-0.00014	2e-05	2e-05	6
34266	-0.00012	-7e-05	4e-05	-3e-05	-0.00016	-0.00014	2e-05	2e-05	6
34267	-0.00012	-7e-05	4e-05	-3e-05	-0.00016	-0.00014	2e-05	2e-05	6
34268	-0.00012	-7e-05	4e-05	-3e-05	-0.00016	-0.00014	2e-05	2e-05	6
34269	-0.00012	-7e-05	4e-05	-3e-05	-0.00016	-0.00014	2e-05	2e-05	6
34270	-0.00012	-7e-05	4e-05	-3e-05	-0.00016	-0.00014	2e-05	2e-05	6
34271	-0.00012	-7e-05	4e-05	-3e-05	-0.00016	-0.00014	2e-05	2e-05	6
34272	-0.00012	-7e-05	4e-05	-3e-05	-0.00016	-0.00014	2e-05	2e-05	6
34273	-0.00012	-7e-05	4e-05	-3e-05	-0.00016	-0.00014	2e-05	2e-05	6
34274	-0.00012	-7e-05	4e-05	-3e-05	-0.00016	-0.00014	2e-05	2e-05	6
34275	-0.00012	-7e-05	4e-05	-3e-05	-0.00016	-0.00014	2e-05	2e-05	6
34276	-0.00012	-7e-05	4e-05	-3e-05	-0.00016	-0.00014	2e-05	2e-05	6
34277	0.00017	6e-05	0.00014	8e-05	-7e-05	-7e-05	-3e-05	0.00022	6
34278	0.00017	6e-05	0.00014	8e-05	-7e-05	-7e-05	-3e-05	0.00022	6
34279	7e-05	1e-05	-4e-05	-0.00018	-0.00028	0.00012	-5e-05	-0.00031	6
34280	7e-05	1e-05	-4e-05	-0.00018	-0.00028	0.00012	-5e-05	-0.00031	6
34281	7e-05	1e-05	-4e-05	-0.00018	-0.00028	0.00012	-5e-05	-0.00031	6
34282	7e-05	1e-05	-4e-05	-0.00018	-0.00028	0.00012	-5e-05	-0.00031	6
34283	7e-05	1e-05	-4e-05	-0.00018	-0.00028	0.00012	-5e-05	-0.00031	6
34284	7e-05	1e-05	-4e-05	-0.00018	-0.00028	0.00012	-5e-05	-0.00031	6
34285	7e-05	1e-05	-4e-05	-0.00018	-0.00028	0.00012	-5e-05	-0.00031	6
34286	7e-05	1e-05	-4e-05	-0.00018	-0.00028	0.00012	-5e-05	-0.00031	6
34288	7e-05	1e-05	-4e-05	-0.00018	-0.00028	0.00012	-5e-05	-0.00031	6
34289	7e-05	1e-05	-4e-05	-0.00018	-0.00028	0.00012	-5e-05	-0.00031	6
34290	7e-05	1e-05	-4e-05	-0.00018	-0.00028	0.00012	-5e-05	-0.00031	6
34291	7e-05	1e-05	-4e-05	-0.00018	-0.00028	0.00012	-5e-05	-0.00031	6
34292	7e-05	1e-05	-4e-05	-0.00018	-0.00028	0.00012	-5e-05	-0.00031	6
34293	7e-05	1e-05	-4e-05	-0.00018	-0.00028	0.00012	-5e-05	-0.00031	6
34294	7e-05	1e-05	-4e-05	-0.00018	-0.00028	0.00012	-5e-05	-0.00031	6
34295	7e-05	1e-05	-4e-05	-0.00018	-0.00028	0.00012	-5e-05	-0.00031	6
34296	7e-05	1e-05	-4e-05	-0.00018	-0.00028	0.00012	-5e-05	-0.00031	6
34297	7e-05	1e-05	-4e-05	-0.00018	-0.00028	0.00012	-5e-05	-0.00031	6
34298	7e-05	1e-05	-4e-05	-0.00018	-0.00028	0.00012	-5e-05	-0.00031	6
34299	7e-05	1e-05	-4e-05	-0.00018	-0.00028	0.00012	-5e-05	-0.00031	6
34300	-0.0001	7e-05	9e-05	0.00023	0.00045	1e-05	2e-05	-0.0001	6
34301	-8e-05	-2e-05	-6e-05	-5e-05	0.00012	-3e-05	-0.00021	-0.00013	6
34302	-8e-05	-2e-05	-6e-05	-5e-05	0.00012	-3e-05	-0.00021	-0.00013	6
34303	-8e-05	-2e-05	-6e-05	-5e-05	0.00012	-3e-05	-0.00021	-0.00013	6
34304	-8e-05	-2e-05	-6e-05	-5e-05	0.00012	-3e-05	-0.00021	-0.00013	6
34305	-8e-05	-2e-05	-6e-05	-5e-05	0.00012	-3e-05	-0.00021	-0.00013	6
34306	-8e-05	-2e-05	-6e-05	-5e-05	0.00012	-3e-05	-0.00021	-0.00013	6
34307	-8e-05	-2e-05	-6e-05	-5e-05	0.00012	-3e-05	-0.00021	-0.00013	6
34308	-8e-05	-2e-05	-6e-05	-5e-05	0.00012	-3e-05	-0.00021	-0.00013	6
34309	-8e-05	-2e-05	-6e-05	-5e-05	0.00012	-3e-05	-0.00021	-0.00013	6
34310	-8e-05	-2e-05	-6e-05	-5e-05	0.00012	-3e-05	-0.00021	-0.00013	6
34311	-8e-05	-2e-05	-6e-05	-5e-05	0.00012	-3e-05	-0.00021	-0.00013	6
34312	-8e-05	-2e-05	-6e-05	-5e-05	0.00012	-3e-05	-0.00021	-0.00013	6
34313	-8e-05	-2e-05	-6e-05	-5e-05	0.00012	-3e-05	-0.00021	-0.00013	6
34314	-1e-05	-1e-05	-4e-05	-1e-05	5e-05	-0.00032	-4e-05	-1e-05	6
34315	-1e-05	-1e-05	-5e-05	-0.0001	-0.00023	5e-05	7e-05	-5e-05	6
34316	-3e-05	4e-05	4e-05	4e-05	-8e-05	0	4e-05	0.00022	6
34317	-3e-05	4e-05	4e-05	4e-05	-8e-05	0	4e-05	0.00022	6
34318	-3e-05	4e-05	4e-05	4e-05	-8e-05	0	4e-05	0.00022	6
34319	-3e-05	4e-05	4e-05	4e-05	-8e-05	0	4e-05	0.00022	6
34320	-3e-05	4e-05	4e-05	4e-05	-8e-05	0	4e-05	0.00022	6
34321	-3e-05	4e-05	4e-05	4e-05	-8e-05	0	4e-05	0.00022	6
34322	-3e-05	4e-05	4e-05	4e-05	-8e-05	0	4e-05	0.00022	6
34323	-3e-05	4e-05	4e-05	4e-05	-8e-05	0	4e-05	0.00022	6
34324	-3e-05	4e-05	4e-05	4e-05	-8e-05	0	4e-05	0.00022	6
34325	-3e-05	4e-05	4e-05	4e-05	-8e-05	0	4e-05	0.00022	6
34326	-3e-05	4e-05	4e-05	4e-05	-8e-05	0	4e-05	0.00022	6
34327	-3e-05	4e-05	4e-05	4e-05	-8e-05	0	4e-05	0.00022	6
34328	-3e-05	4e-05	4e-05	4e-05	-8e-05	0	4e-05	0.00022	6
34329	-3e-05	4e-05	4e-05	4e-05	-8e-05	0	4e-05	0.00022	6
34331	-3e-05	4e-05	4e-05	4e-05	-8e-05	0	4e-05	0.00022	6
34332	-3e-05	4e-05	4e-05	4e-05	-8e-05	0	4e-05	0.00022	6
34333	-3e-05	4e-05	4e-05	4e-05	-8e-05	0	4e-05	0.00022	6
34334	-3e-05	4e-05	4e-05	4e-05	-8e-05	0	4e-05	0.00022	6
34335	-3e-05	4e-05	4e-05	4e-05	-8e-05	0	4e-05	0.00022	6
34336	-3e-05	4e-05	4e-05	4e-05	-8e-05	0	4e-05	0.00022	6
34338	1e-05	1e-05	2e-05	1e-05	-0.00024	-3e-05	-1e-05	-3e-05	6
34339	-5e-05	-1e-05	-3e-05	-1e-05	-2e-05	-0.00015	1e-05	0.00012	6
34340	-5e-05	-1e-05	-3e-05	-1e-05	-2e-05	-0.00015	1e-05	0.00012	6
34341	-5e-05	-1e-05	-3e-05	-1e-05	-2e-05	-0.00015	1e-05	0.00012	6
34342	-5e-05	-1e-05	-3e-05	-1e-05	-2e-05	-0.00015	1e-05	0.00012	6
34343	-5e-05	-1e-05	-3e-05	-1e-05	-2e-05	-0.00015	1e-05	0.00012	6
34344	-5e-05	-1e-05	-3e-05	-1e-05	-2e-05	-0.00015	1e-05	0.00012	6
34345	-5e-05	-1e-05	-3e-05	-1e-05	-2e-05	-0.00015	1e-05	0.00012	6
34346	-5e-05	-1e-05	-3e-05	-1e-05	-2e-05	-0.00015	1e-05	0.00012	6
34347	-5e-05	-1e-05	-3e-05	-1e-05	-2e-05	-0.00015	1e-05	0.00012	6
34348	-5e-05	-1e-05	-3e-05	-1e-05	-2e-05	-0.00015	1e-05	0.00012	6
34349	-5e-05	-1e-05	-3e-05	-1e-05	-2e-05	-0.00015	1e-05	0.00012	6
34350	-5e-05	-1e-05	-3e-05	-1e-05	-2e-05	-0.00015	1e-05	0.00012	6
34351	-5e-05	-1e-05	-3e-05	-1e-05	-2e-05	-0.00015	1e-05	0.00012	6
34352	-5e-05	-1e-05	-3e-05	-1e-05	-2e-05	-0.00015	1e-05	0.00012	6
34353	-5e-05	-1e-05	-3e-05	-1e-05	-2e-05	-0.00015	1e-05	0.00012	6
34354	-5e-05	-1e-05	-3e-05	-1e-05	-2e-05	-0.00015	1e-05	0.00012	6
34355	-5e-05	-1e-05	-3e-05	-1e-05	-2e-05	-0.00015	1e-05	0.00012	6
34356	-5e-05	-1e-05	-3e-05	-1e-05	-2e-05	-0.00015	1e-05	0.00012	6
34357	-5e-05	-1e-05	-3e-05	-1e-05	-2e-05	-0.00015	1e-05	0.00012	6
34358	-5e-05	-1e-05	-3e-05	-1e-05	-2e-05	-0.00015	1e-05	0.00012	6
34359	-5e-05	-1e-05	-3e-05	-1e-05	-2e-05	-0.00015	1e-05	0.00012	6
34360	4e-05	0	-7e-05	-5e-05	-0.00014	-1e-05	0	-7e-05	6
34361	-5e-05	-4e-05	2e-05	4e-05	0.0002	-6e-05	-2e-05	3e-05	6
34362	-5e-05	-4e-05	2e-05	4e-05	0.0002	-6e-05	-2e-05	3e-05	6
34363	-5e-05	-4e-05	2e-05	4e-05	0.0002	-6e-05	-2e-05	3e-05	6
34364	-5e-05	-4e-05	2e-05	4e-05	0.0002	-6e-05	-2e-05	3e-05	6
34365	-5e-05	-4e-05	2e-05	4e-05	0.0002	-6e-05	-2e-05	3e-05	6
34366	-5e-05	-4e-05	2e-05	4e-05	0.0002	-6e-05	-2e-05	3e-05	6
34367	-5e-05	-4e-05	2e-05	4e-05	0.0002	-6e-05	-2e-05	3e-05	6
34368	-5e-05	-4e-05	2e-05	4e-05	0.0002	-6e-05	-2e-05	3e-05	6
34369	-5e-05	-4e-05	2e-05	4e-05	0.0002	-6e-05	-2e-05	3e-05	6
34370	-5e-05	-4e-05	2e-05	4e-05	0.0002	-6e-05	-2e-05	3e-05	6
34371	-5e-05	-4e-05	2e-05	4e-05	0.0002	-6e-05	-2e-05	3e-05	6
34372	-5e-05	-4e-05	2e-05	4e-05	0.0002	-6e-05	-2e-05	3e-05	6
34373	-5e-05	-4e-05	2e-05	4e-05	0.0002	-6e-05	-2e-05	3e-05	6
34374	6e-05	5e-05	-7e-05	2e-05	2e-05	0.00023	-5e-05	0.00022	6
34375	2e-05	-1e-05	0	-7e-05	-4e-05	7e-05	-2e-05	1e-05	6
34376	2e-05	-1e-05	0	-7e-05	-4e-05	7e-05	-2e-05	1e-05	6
34377	-0.0001	-2e-05	-2e-05	0.00015	0.00035	0.00014	7e-05	-0.00029	6
34378	-0.0001	-2e-05	-2e-05	0.00015	0.00035	0.00014	7e-05	-0.00029	6
34379	-0.0001	-2e-05	-2e-05	0.00015	0.00035	0.00014	7e-05	-0.00029	6
34380	-0.0001	-2e-05	-2e-05	0.00015	0.00035	0.00014	7e-05	-0.00029	6
34381	-0.0001	-2e-05	-2e-05	0.00015	0.00035	0.00014	7e-05	-0.00029	6
34382	-0.0001	-2e-05	-2e-05	0.00015	0.00035	0.00014	7e-05	-0.00029	6
34383	-0.0001	-2e-05	-2e-05	0.00015	0.00035	0.00014	7e-05	-0.00029	6
34384	-0.0001	-2e-05	-2e-05	0.00015	0.00035	0.00014	7e-05	-0.00029	6
34385	-0.0001	-2e-05	-2e-05	0.00015	0.00035	0.00014	7e-05	-0.00029	6
34386	-0.0001	-2e-05	-2e-05	0.00015	0.00035	0.00014	7e-05	-0.00029	6
34388	-0.0001	-2e-05	-2e-05	0.00015	0.00035	0.00014	7e-05	-0.00029	6
34389	-0.0001	-2e-05	-2e-05	0.00015	0.00035	0.00014	7e-05	-0.00029	6
34390	-0.0001	-2e-05	-2e-05	0.00015	0.00035	0.00014	7e-05	-0.00029	6
34391	-0.0001	-2e-05	-2e-05	0.00015	0.00035	0.00014	7e-05	-0.00029	6
34392	-0.0001	-2e-05	-2e-05	0.00015	0.00035	0.00014	7e-05	-0.00029	6
34393	-0.0001	-2e-05	-2e-05	0.00015	0.00035	0.00014	7e-05	-0.00029	6
34394	-0.0001	-2e-05	-2e-05	0.00015	0.00035	0.00014	7e-05	-0.00029	6
34395	-0.0001	-2e-05	-2e-05	0.00015	0.00035	0.00014	7e-05	-0.00029	6
34396	-0.0001	-2e-05	-2e-05	0.00015	0.00035	0.00014	7e-05	-0.00029	6
34397	-0.00011	-7e-05	-9e-05	-7e-05	6e-05	0.00032	-0.00013	0.0001	6
34398	-0.00011	-7e-05	-9e-05	-7e-05	6e-05	0.00032	-0.00013	0.0001	6
34399	8e-05	3e-05	8e-05	-7e-05	-0.00035	-0.00015	-1e-05	0.00021	6
34400	8e-05	3e-05	8e-05	-7e-05	-0.00035	-0.00015	-1e-05	0.00021	6
34401	8e-05	3e-05	8e-05	-7e-05	-0.00035	-0.00015	-1e-05	0.00021	6
34402	8e-05	3e-05	8e-05	-7e-05	-0.00035	-0.00015	-1e-05	0.00021	6
34403	8e-05	3e-05	8e-05	-7e-05	-0.00035	-0.00015	-1e-05	0.00021	6
34404	8e-05	3e-05	8e-05	-7e-05	-0.00035	-0.00015	-1e-05	0.00021	6
34405	8e-05	3e-05	8e-05	-7e-05	-0.00035	-0.00015	-1e-05	0.00021	6
34406	8e-05	3e-05	8e-05	-7e-05	-0.00035	-0.00015	-1e-05	0.00021	6
34407	8e-05	3e-05	8e-05	-7e-05	-0.00035	-0.00015	-1e-05	0.00021	6
34408	8e-05	3e-05	8e-05	-7e-05	-0.00035	-0.00015	-1e-05	0.00021	6
34409	8e-05	3e-05	8e-05	-7e-05	-0.00035	-0.00015	-1e-05	0.00021	6
34410	8e-05	3e-05	8e-05	-7e-05	-0.00035	-0.00015	-1e-05	0.00021	6
34411	8e-05	3e-05	8e-05	-7e-05	-0.00035	-0.00015	-1e-05	0.00021	6
34412	8e-05	3e-05	8e-05	-7e-05	-0.00035	-0.00015	-1e-05	0.00021	6
34413	8e-05	3e-05	8e-05	-7e-05	-0.00035	-0.00015	-1e-05	0.00021	6
34414	8e-05	3e-05	8e-05	-7e-05	-0.00035	-0.00015	-1e-05	0.00021	6
34415	8e-05	3e-05	8e-05	-7e-05	-0.00035	-0.00015	-1e-05	0.00021	6
34416	8e-05	3e-05	8e-05	-7e-05	-0.00035	-0.00015	-1e-05	0.00021	6
34417	8e-05	3e-05	8e-05	-7e-05	-0.00035	-0.00015	-1e-05	0.00021	6
34418	8e-05	3e-05	8e-05	-7e-05	-0.00035	-0.00015	-1e-05	0.00021	6
34419	8e-05	3e-05	8e-05	-7e-05	-0.00035	-0.00015	-1e-05	0.00021	6
34420	0.0001	1e-05	1e-05	-2e-05	-0.00036	-0.00057	0	-0.00017	6
34421	-7e-05	2e-05	-1e-05	-2e-05	0.00018	0.00015	-0.0001	-0.00031	6
34422	-7e-05	2e-05	-1e-05	-2e-05	0.00018	0.00015	-0.0001	-0.00031	6
34423	-7e-05	2e-05	-1e-05	-2e-05	0.00018	0.00015	-0.0001	-0.00031	6
34424	-7e-05	2e-05	-1e-05	-2e-05	0.00018	0.00015	-0.0001	-0.00031	6
34425	-7e-05	2e-05	-1e-05	-2e-05	0.00018	0.00015	-0.0001	-0.00031	6
34426	-7e-05	2e-05	-1e-05	-2e-05	0.00018	0.00015	-0.0001	-0.00031	6
34427	-7e-05	2e-05	-1e-05	-2e-05	0.00018	0.00015	-0.0001	-0.00031	6
34428	-7e-05	2e-05	-1e-05	-2e-05	0.00018	0.00015	-0.0001	-0.00031	6
34429	-7e-05	2e-05	-1e-05	-2e-05	0.00018	0.00015	-0.0001	-0.00031	6
34430	-7e-05	2e-05	-1e-05	-2e-05	0.00018	0.00015	-0.0001	-0.00031	6
34431	-7e-05	2e-05	-1e-05	-2e-05	0.00018	0.00015	-0.0001	-0.00031	6
34432	-7e-05	2e-05	-1e-05	-2e-05	0.00018	0.00015	-0.0001	-0.00031	6
34433	-7e-05	2e-05	-1e-05	-2e-05	0.00018	0.00015	-0.0001	-0.00031	6
34434	-1e-05	-5e-05	-3e-05	-8e-05	-0.00039	-0.00048	1e-05	0.0003	6
34435	-1e-05	-5e-05	-3e-05	-8e-05	-0.00039	-0.00048	1e-05	0.0003	6
34436	-1e-05	-5e-05	-3e-05	-8e-05	-0.00039	-0.00048	1e-05	0.0003	6
34438	-1e-05	-5e-05	-3e-05	-8e-05	-0.00039	-0.00048	1e-05	0.0003	6
34439	-1e-05	-5e-05	-3e-05	-8e-05	-0.00039	-0.00048	1e-05	0.0003	6
34440	-1e-05	-5e-05	-3e-05	-8e-05	-0.00039	-0.00048	1e-05	0.0003	6
34441	4e-05	-5e-05	-5e-05	-4e-05	0.0001	6e-05	1e-05	0.00031	6
34442	4e-05	-5e-05	-5e-05	-4e-05	0.0001	6e-05	1e-05	0.00031	6
34443	4e-05	-5e-05	-5e-05	-4e-05	0.0001	6e-05	1e-05	0.00031	6
34444	4e-05	-5e-05	-5e-05	-4e-05	0.0001	6e-05	1e-05	0.00031	6
34445	4e-05	-5e-05	-5e-05	-4e-05	0.0001	6e-05	1e-05	0.00031	6
34446	4e-05	-5e-05	-5e-05	-4e-05	0.0001	6e-05	1e-05	0.00031	6
34447	4e-05	-5e-05	-5e-05	-4e-05	0.0001	6e-05	1e-05	0.00031	6
34448	4e-05	-5e-05	-5e-05	-4e-05	0.0001	6e-05	1e-05	0.00031	6
34449	4e-05	-5e-05	-5e-05	-4e-05	0.0001	6e-05	1e-05	0.00031	6
34450	4e-05	-5e-05	-5e-05	-4e-05	0.0001	6e-05	1e-05	0.00031	6
34451	4e-05	-5e-05	-5e-05	-4e-05	0.0001	6e-05	1e-05	0.00031	6
34452	4e-05	-5e-05	-5e-05	-4e-05	0.0001	6e-05	1e-05	0.00031	6
34453	4e-05	-5e-05	-5e-05	-4e-05	0.0001	6e-05	1e-05	0.00031	6
34454	4e-05	-5e-05	-5e-05	-4e-05	0.0001	6e-05	1e-05	0.00031	6
34455	4e-05	-5e-05	-5e-05	-4e-05	0.0001	6e-05	1e-05	0.00031	6
34456	4e-05	-5e-05	-5e-05	-4e-05	0.0001	6e-05	1e-05	0.00031	6
34457	5e-05	0	-4e-05	-2e-05	0.0001	9e-05	-3e-05	-0.0003	6
34458	5e-05	0	-4e-05	-2e-05	0.0001	9e-05	-3e-05	-0.0003	6
34459	-0.0001	-5e-05	-3e-05	0	3e-05	-0.00013	-1e-05	-0.00029	6
34460	-0.0001	-5e-05	-3e-05	0	3e-05	-0.00013	-1e-05	-0.00029	6
34461	-0.0001	-5e-05	-3e-05	0	3e-05	-0.00013	-1e-05	-0.00029	6
34462	-0.0001	-5e-05	-3e-05	0	3e-05	-0.00013	-1e-05	-0.00029	6
34463	-0.0001	-5e-05	-3e-05	0	3e-05	-0.00013	-1e-05	-0.00029	6
34464	-0.0001	-5e-05	-3e-05	0	3e-05	-0.00013	-1e-05	-0.00029	6
34465	-0.0001	-5e-05	-3e-05	0	3e-05	-0.00013	-1e-05	-0.00029	6
34466	-0.0001	-5e-05	-3e-05	0	3e-05	-0.00013	-1e-05	-0.00029	6
34467	-0.0001	-5e-05	-3e-05	0	3e-05	-0.00013	-1e-05	-0.00029	6
34468	-0.0001	-5e-05	-3e-05	0	3e-05	-0.00013	-1e-05	-0.00029	6
34469	-0.0001	-5e-05	-3e-05	0	3e-05	-0.00013	-1e-05	-0.00029	6
34470	-0.0001	-5e-05	-3e-05	0	3e-05	-0.00013	-1e-05	-0.00029	6
34471	-0.0001	-5e-05	-3e-05	0	3e-05	-0.00013	-1e-05	-0.00029	6
34472	-0.0001	-5e-05	-3e-05	0	3e-05	-0.00013	-1e-05	-0.00029	6
34473	-0.0001	-5e-05	-3e-05	0	3e-05	-0.00013	-1e-05	-0.00029	6
34474	-0.0001	-5e-05	-3e-05	0	3e-05	-0.00013	-1e-05	-0.00029	6
34475	-0.0001	-5e-05	-3e-05	0	3e-05	-0.00013	-1e-05	-0.00029	6
34476	-0.0001	-5e-05	-3e-05	0	3e-05	-0.00013	-1e-05	-0.00029	6
34477	-0.0001	-5e-05	-3e-05	0	3e-05	-0.00013	-1e-05	-0.00029	6
34478	-0.0001	-5e-05	-3e-05	0	3e-05	-0.00013	-1e-05	-0.00029	6
34479	-0.0001	-5e-05	-3e-05	0	3e-05	-0.00013	-1e-05	-0.00029	6
34480	-0.00014	-3e-05	2e-05	3e-05	-0.00014	-0.00011	1e-05	0.00014	6
34481	-6e-05	1e-05	2e-05	3e-05	-0.0001	-0.00012	-3e-05	-0.0004	6
34482	-6e-05	1e-05	2e-05	3e-05	-0.0001	-0.00012	-3e-05	-0.0004	6
34483	-6e-05	1e-05	2e-05	3e-05	-0.0001	-0.00012	-3e-05	-0.0004	6
34484	-6e-05	1e-05	2e-05	3e-05	-0.0001	-0.00012	-3e-05	-0.0004	6
34485	-6e-05	1e-05	2e-05	3e-05	-0.0001	-0.00012	-3e-05	-0.0004	6
34486	-6e-05	1e-05	2e-05	3e-05	-0.0001	-0.00012	-3e-05	-0.0004	6
34488	-6e-05	1e-05	2e-05	3e-05	-0.0001	-0.00012	-3e-05	-0.0004	6
34489	-6e-05	1e-05	2e-05	3e-05	-0.0001	-0.00012	-3e-05	-0.0004	6
34490	-6e-05	1e-05	2e-05	3e-05	-0.0001	-0.00012	-3e-05	-0.0004	6
34491	-6e-05	1e-05	2e-05	3e-05	-0.0001	-0.00012	-3e-05	-0.0004	6
34492	-6e-05	1e-05	2e-05	3e-05	-0.0001	-0.00012	-3e-05	-0.0004	6
34493	-6e-05	1e-05	2e-05	3e-05	-0.0001	-0.00012	-3e-05	-0.0004	6
34494	-3e-05	2e-05	-2e-05	-2e-05	-4e-05	-1e-05	-6e-05	-0.00022	6
34495	-3e-05	2e-05	-2e-05	-2e-05	-4e-05	-1e-05	-6e-05	-0.00022	6
34496	-3e-05	2e-05	-2e-05	-2e-05	-4e-05	-1e-05	-6e-05	-0.00022	6
34497	-3e-05	2e-05	-2e-05	-2e-05	-4e-05	-1e-05	-6e-05	-0.00022	6
34498	-3e-05	2e-05	-2e-05	-2e-05	-4e-05	-1e-05	-6e-05	-0.00022	6
34499	-3e-05	2e-05	-2e-05	-2e-05	-4e-05	-1e-05	-6e-05	-0.00022	6
34500	-3e-05	2e-05	-2e-05	-2e-05	-4e-05	-1e-05	-6e-05	-0.00022	6
34501	4e-05	-1e-05	-4e-05	-3e-05	-0.00012	-7e-05	4e-05	0.00011	6
34502	4e-05	-1e-05	-4e-05	-3e-05	-0.00012	-7e-05	4e-05	0.00011	6
34503	4e-05	-1e-05	-4e-05	-3e-05	-0.00012	-7e-05	4e-05	0.00011	6
34504	4e-05	-1e-05	-4e-05	-3e-05	-0.00012	-7e-05	4e-05	0.00011	6
34505	4e-05	-1e-05	-4e-05	-3e-05	-0.00012	-7e-05	4e-05	0.00011	6
34506	4e-05	-1e-05	-4e-05	-3e-05	-0.00012	-7e-05	4e-05	0.00011	6
34507	4e-05	-1e-05	-4e-05	-3e-05	-0.00012	-7e-05	4e-05	0.00011	6
34508	4e-05	-1e-05	-4e-05	-3e-05	-0.00012	-7e-05	4e-05	0.00011	6
34509	4e-05	-1e-05	-4e-05	-3e-05	-0.00012	-7e-05	4e-05	0.00011	6
34510	4e-05	-1e-05	-4e-05	-3e-05	-0.00012	-7e-05	4e-05	0.00011	6
34511	4e-05	-1e-05	-4e-05	-3e-05	-0.00012	-7e-05	4e-05	0.00011	6
34512	4e-05	-1e-05	-4e-05	-3e-05	-0.00012	-7e-05	4e-05	0.00011	6
34513	4e-05	-1e-05	-4e-05	-3e-05	-0.00012	-7e-05	4e-05	0.00011	6
34514	4e-05	-1e-05	-4e-05	-3e-05	-0.00012	-7e-05	4e-05	0.00011	6
34515	4e-05	-1e-05	-4e-05	-3e-05	-0.00012	-7e-05	4e-05	0.00011	6
34516	4e-05	-1e-05	-4e-05	-3e-05	-0.00012	-7e-05	4e-05	0.00011	6
34517	-3e-05	0	-1e-05	0	0.00047	0.00023	-4e-05	2e-05	6
34518	1e-05	-1e-05	0	2e-05	0	0.00012	0	0.00021	6
34519	-2e-05	-2e-05	-4e-05	-3e-05	-8e-05	0.0003	-0.0001	6e-05	6
34520	-2e-05	-2e-05	-4e-05	-3e-05	-8e-05	0.0003	-0.0001	6e-05	6
34521	-2e-05	-2e-05	-4e-05	-3e-05	-8e-05	0.0003	-0.0001	6e-05	6
34522	-2e-05	-2e-05	-4e-05	-3e-05	-8e-05	0.0003	-0.0001	6e-05	6
34523	-2e-05	-2e-05	-4e-05	-3e-05	-8e-05	0.0003	-0.0001	6e-05	6
34524	-2e-05	-2e-05	-4e-05	-3e-05	-8e-05	0.0003	-0.0001	6e-05	6
34525	-2e-05	-2e-05	-4e-05	-3e-05	-8e-05	0.0003	-0.0001	6e-05	6
34526	-2e-05	-2e-05	-4e-05	-3e-05	-8e-05	0.0003	-0.0001	6e-05	6
34527	-2e-05	-2e-05	-4e-05	-3e-05	-8e-05	0.0003	-0.0001	6e-05	6
34528	-2e-05	-2e-05	-4e-05	-3e-05	-8e-05	0.0003	-0.0001	6e-05	6
34529	-2e-05	-2e-05	-4e-05	-3e-05	-8e-05	0.0003	-0.0001	6e-05	6
34530	-2e-05	-2e-05	-4e-05	-3e-05	-8e-05	0.0003	-0.0001	6e-05	6
34531	-2e-05	-2e-05	-4e-05	-3e-05	-8e-05	0.0003	-0.0001	6e-05	6
34532	-2e-05	-2e-05	-4e-05	-3e-05	-8e-05	0.0003	-0.0001	6e-05	6
34533	-2e-05	-2e-05	-4e-05	-3e-05	-8e-05	0.0003	-0.0001	6e-05	6
34534	-2e-05	-2e-05	-4e-05	-3e-05	-8e-05	0.0003	-0.0001	6e-05	6
34535	-2e-05	-2e-05	-4e-05	-3e-05	-8e-05	0.0003	-0.0001	6e-05	6
34536	-2e-05	-2e-05	-4e-05	-3e-05	-8e-05	0.0003	-0.0001	6e-05	6
34538	-2e-05	-2e-05	-4e-05	-3e-05	-8e-05	0.0003	-0.0001	6e-05	6
34539	-2e-05	-2e-05	-4e-05	-3e-05	-8e-05	0.0003	-0.0001	6e-05	6
34540	-3e-05	-1e-05	-9e-05	-9e-05	-0.00016	-0.00016	-0.00011	-0.0001	6
34541	0.00011	0	-6e-05	-5e-05	-9e-05	-0.00016	5e-05	0.00012	6
34542	0.00011	0	-6e-05	-5e-05	-9e-05	-0.00016	5e-05	0.00012	6
34543	0.00011	0	-6e-05	-5e-05	-9e-05	-0.00016	5e-05	0.00012	6
34544	0.00011	0	-6e-05	-5e-05	-9e-05	-0.00016	5e-05	0.00012	6
34545	0.00011	0	-6e-05	-5e-05	-9e-05	-0.00016	5e-05	0.00012	6
34546	0.00011	0	-6e-05	-5e-05	-9e-05	-0.00016	5e-05	0.00012	6
34547	0.00011	0	-6e-05	-5e-05	-9e-05	-0.00016	5e-05	0.00012	6
34548	0.00011	0	-6e-05	-5e-05	-9e-05	-0.00016	5e-05	0.00012	6
34549	0.00011	0	-6e-05	-5e-05	-9e-05	-0.00016	5e-05	0.00012	6
34550	0.00011	0	-6e-05	-5e-05	-9e-05	-0.00016	5e-05	0.00012	6
34551	0.00011	0	-6e-05	-5e-05	-9e-05	-0.00016	5e-05	0.00012	6
34552	0.00011	0	-6e-05	-5e-05	-9e-05	-0.00016	5e-05	0.00012	6
34553	0.00011	0	-6e-05	-5e-05	-9e-05	-0.00016	5e-05	0.00012	6
34554	0	2e-05	5e-05	9e-05	0.0001	0.00039	1e-05	0.00028	6
34555	0	2e-05	5e-05	9e-05	0.0001	0.00039	1e-05	0.00028	6
34556	0	2e-05	5e-05	9e-05	0.0001	0.00039	1e-05	0.00028	6
34557	0	2e-05	5e-05	9e-05	0.0001	0.00039	1e-05	0.00028	6
34558	0	2e-05	5e-05	9e-05	0.0001	0.00039	1e-05	0.00028	6
34559	0	2e-05	5e-05	9e-05	0.0001	0.00039	1e-05	0.00028	6
34560	0	2e-05	5e-05	9e-05	0.0001	0.00039	1e-05	0.00028	6
34561	0.00011	4e-05	2e-05	2e-05	0.0002	0.00021	0.00012	3e-05	6
34562	0.00011	4e-05	2e-05	2e-05	0.0002	0.00021	0.00012	3e-05	6
34563	0.00011	4e-05	2e-05	2e-05	0.0002	0.00021	0.00012	3e-05	6
34564	0.00011	4e-05	2e-05	2e-05	0.0002	0.00021	0.00012	3e-05	6
34565	0.00011	4e-05	2e-05	2e-05	0.0002	0.00021	0.00012	3e-05	6
34566	0.00011	4e-05	2e-05	2e-05	0.0002	0.00021	0.00012	3e-05	6
34567	0.00011	4e-05	2e-05	2e-05	0.0002	0.00021	0.00012	3e-05	6
34568	0.00011	4e-05	2e-05	2e-05	0.0002	0.00021	0.00012	3e-05	6
34569	0.00011	4e-05	2e-05	2e-05	0.0002	0.00021	0.00012	3e-05	6
34570	0.00011	4e-05	2e-05	2e-05	0.0002	0.00021	0.00012	3e-05	6
34571	0.00011	4e-05	2e-05	2e-05	0.0002	0.00021	0.00012	3e-05	6
34572	0.00011	4e-05	2e-05	2e-05	0.0002	0.00021	0.00012	3e-05	6
34573	0.00011	4e-05	2e-05	2e-05	0.0002	0.00021	0.00012	3e-05	6
34574	0.00011	4e-05	2e-05	2e-05	0.0002	0.00021	0.00012	3e-05	6
34575	0.00011	4e-05	2e-05	2e-05	0.0002	0.00021	0.00012	3e-05	6
34576	0.00011	4e-05	2e-05	2e-05	0.0002	0.00021	0.00012	3e-05	6
34577	-8e-05	-7e-05	0	-3e-05	6e-05	0.00044	6e-05	-0.00037	6
34578	-8e-05	-7e-05	0	-3e-05	6e-05	0.00044	6e-05	-0.00037	6
34579	-0.00019	-7e-05	4e-05	3e-05	2e-05	5e-05	-1e-05	0.00014	6
34580	-0.00019	-7e-05	4e-05	3e-05	2e-05	5e-05	-1e-05	0.00014	6
34581	-0.00019	-7e-05	4e-05	3e-05	2e-05	5e-05	-1e-05	0.00014	6
34582	-0.00019	-7e-05	4e-05	3e-05	2e-05	5e-05	-1e-05	0.00014	6
34583	-0.00019	-7e-05	4e-05	3e-05	2e-05	5e-05	-1e-05	0.00014	6
34584	-0.00019	-7e-05	4e-05	3e-05	2e-05	5e-05	-1e-05	0.00014	6
34585	-0.00019	-7e-05	4e-05	3e-05	2e-05	5e-05	-1e-05	0.00014	6
34586	-0.00019	-7e-05	4e-05	3e-05	2e-05	5e-05	-1e-05	0.00014	6
34588	-0.00019	-7e-05	4e-05	3e-05	2e-05	5e-05	-1e-05	0.00014	6
34589	-0.00019	-7e-05	4e-05	3e-05	2e-05	5e-05	-1e-05	0.00014	6
34590	-0.00019	-7e-05	4e-05	3e-05	2e-05	5e-05	-1e-05	0.00014	6
34591	-0.00019	-7e-05	4e-05	3e-05	2e-05	5e-05	-1e-05	0.00014	6
34592	-0.00019	-7e-05	4e-05	3e-05	2e-05	5e-05	-1e-05	0.00014	6
34593	-0.00019	-7e-05	4e-05	3e-05	2e-05	5e-05	-1e-05	0.00014	6
34594	-0.00019	-7e-05	4e-05	3e-05	2e-05	5e-05	-1e-05	0.00014	6
