10593	0.00024	6e-05	-3e-05	2e-05	6e-05	-0.0001	-0.00028	0.00012	3
10594	0.00024	6e-05	-3e-05	2e-05	6e-05	-0.0001	-0.00028	0.00012	3
10595	0.00024	6e-05	-3e-05	2e-05	6e-05	-0.0001	-0.00028	0.00012	3
10596	0.00024	6e-05	-3e-05	2e-05	6e-05	-0.0001	-0.00028	0.00012	3
10597	0.00024	6e-05	-3e-05	2e-05	6e-05	-0.0001	-0.00028	0.00012	3
10598	0.00024	6e-05	-3e-05	2e-05	6e-05	-0.0001	-0.00028	0.00012	3
10599	0.00024	6e-05	-3e-05	2e-05	6e-05	-0.0001	-0.00028	0.00012	3
10600	0.00024	6e-05	-3e-05	2e-05	6e-05	-0.0001	-0.00028	0.00012	3
10601	0.00024	6e-05	-3e-05	2e-05	6e-05	-0.0001	-0.00028	0.00012	3
10602	0.00024	6e-05	-3e-05	2e-05	6e-05	-0.0001	-0.00028	0.00012	3
10603	0.00012	2e-05	2e-05	4e-05	1e-05	-0.00011	0.0001	-7e-05	3
10604	0.00012	2e-05	2e-05	4e-05	1e-05	-0.00011	0.0001	-7e-05	3
10605	8e-05	0	-4e-05	5e-05	1e-05	-3e-05	-4e-05	-0.00018	3
10606	8e-05	0	-4e-05	5e-05	1e-05	-3e-05	-4e-05	-0.00018	3
10607	8e-05	0	-4e-05	5e-05	1e-05	-3e-05	-4e-05	-0.00018	3
10608	8e-05	0	-4e-05	5e-05	1e-05	-3e-05	-4e-05	-0.00018	3
10609	8e-05	0	-4e-05	5e-05	1e-05	-3e-05	-4e-05	-0.00018	3
10610	1e-05	8e-05	1e-05	-0.00013	-0.00013	-6e-05	0.00026	-0.00051	3
10611	-0.00085	-0.00016	-9e-05	-0.00012	-0.00016	-0.0002	1e-05	-0.00054	3
10612	-0.00085	-0.00016	-9e-05	-0.00012	-0.00016	-0.0002	1e-05	-0.00054	3
10613	-0.00085	-0.00016	-9e-05	-0.00012	-0.00016	-0.0002	1e-05	-0.00054	3
10614	-0.00085	-0.00016	-9e-05	-0.00012	-0.00016	-0.0002	1e-05	-0.00054	3
10615	-0.00085	-0.00016	-9e-05	-0.00012	-0.00016	-0.0002	1e-05	-0.00054	3
10616	-0.00085	-0.00016	-9e-05	-0.00012	-0.00016	-0.0002	1e-05	-0.00054	3
10617	-0.00085	-0.00016	-9e-05	-0.00012	-0.00016	-0.0002	1e-05	-0.00054	3
10620	-0.00085	-0.00016	-9e-05	-0.00012	-0.00016	-0.0002	1e-05	-0.00054	3
10621	-0.00085	-0.00016	-9e-05	-0.00012	-0.00016	-0.0002	1e-05	-0.00054	3
10622	-0.00085	-0.00016	-9e-05	-0.00012	-0.00016	-0.0002	1e-05	-0.00054	3
10623	-0.00085	-0.00016	-9e-05	-0.00012	-0.00016	-0.0002	1e-05	-0.00054	3
10624	-0.00085	-0.00016	-9e-05	-0.00012	-0.00016	-0.0002	1e-05	-0.00054	3
10625	-0.00085	-0.00016	-9e-05	-0.00012	-0.00016	-0.0002	1e-05	-0.00054	3
10626	-0.00085	-0.00016	-9e-05	-0.00012	-0.00016	-0.0002	1e-05	-0.00054	3
10627	-0.00085	-0.00016	-9e-05	-0.00012	-0.00016	-0.0002	1e-05	-0.00054	3
10628	-0.00085	-0.00016	-9e-05	-0.00012	-0.00016	-0.0002	1e-05	-0.00054	3
10629	-0.00085	-0.00016	-9e-05	-0.00012	-0.00016	-0.0002	1e-05	-0.00054	3
10630	-0.00085	-0.00016	-9e-05	-0.00012	-0.00016	-0.0002	1e-05	-0.00054	3
10631	-0.00085	-0.00016	-9e-05	-0.00012	-0.00016	-0.0002	1e-05	-0.00054	3
10632	-0.00085	-0.00016	-9e-05	-0.00012	-0.00016	-0.0002	1e-05	-0.00054	3
10634	-0.00085	-0.00016	-9e-05	-0.00012	-0.00016	-0.0002	1e-05	-0.00054	3
10635	-0.00085	-0.00016	-9e-05	-0.00012	-0.00016	-0.0002	1e-05	-0.00054	3
10637	-0.00085	-0.00016	-9e-05	-0.00012	-0.00016	-0.0002	1e-05	-0.00054	3
10641	-0.00085	-0.00016	-9e-05	-0.00012	-0.00016	-0.0002	1e-05	-0.00054	3
10642	-0.00085	-0.00016	-9e-05	-0.00012	-0.00016	-0.0002	1e-05	-0.00054	3
10643	-0.00085	-0.00016	-9e-05	-0.00012	-0.00016	-0.0002	1e-05	-0.00054	3
10644	-0.00085	-0.00016	-9e-05	-0.00012	-0.00016	-0.0002	1e-05	-0.00054	3
10645	-9e-05	-5e-05	-5e-05	0	-4e-05	4e-05	-5e-05	-9e-05	3
10646	-9e-05	-5e-05	-5e-05	0	-4e-05	4e-05	-5e-05	-9e-05	3
10647	-9e-05	-5e-05	-5e-05	0	-4e-05	4e-05	-5e-05	-9e-05	3
10648	-9e-05	-5e-05	-5e-05	0	-4e-05	4e-05	-5e-05	-9e-05	3
10649	-9e-05	-5e-05	-5e-05	0	-4e-05	4e-05	-5e-05	-9e-05	3
10650	-9e-05	-5e-05	-5e-05	0	-4e-05	4e-05	-5e-05	-9e-05	3
10651	-9e-05	-5e-05	-5e-05	0	-4e-05	4e-05	-5e-05	-9e-05	3
10652	-9e-05	-5e-05	-5e-05	0	-4e-05	4e-05	-5e-05	-9e-05	3
10653	-9e-05	-5e-05	-5e-05	0	-4e-05	4e-05	-5e-05	-9e-05	3
10654	0.0003	0.0001	3e-05	4e-05	8e-05	8e-05	-0.00016	0	3
10655	0.0003	0.0001	3e-05	4e-05	8e-05	8e-05	-0.00016	0	3
10656	0.00041	5e-05	-1e-05	-2e-05	1e-05	-2e-05	-0.00019	0.0003	3
10657	0.00041	5e-05	-1e-05	-2e-05	1e-05	-2e-05	-0.00019	0.0003	3
10658	0.00041	5e-05	-1e-05	-2e-05	1e-05	-2e-05	-0.00019	0.0003	3
10659	0.00041	5e-05	-1e-05	-2e-05	1e-05	-2e-05	-0.00019	0.0003	3
10660	0.00041	5e-05	-1e-05	-2e-05	1e-05	-2e-05	-0.00019	0.0003	3
10661	0.00036	6e-05	4e-05	2e-05	-4e-05	-0.0001	0	0.0002	3
10662	-0.00043	-0.0001	-5e-05	-1e-05	-3e-05	-0.00011	-8e-05	-0.00028	3
10663	-0.00043	-0.0001	-5e-05	-1e-05	-3e-05	-0.00011	-8e-05	-0.00028	3
10664	-0.00043	-0.0001	-5e-05	-1e-05	-3e-05	-0.00011	-8e-05	-0.00028	3
10665	-0.00043	-0.0001	-5e-05	-1e-05	-3e-05	-0.00011	-8e-05	-0.00028	3
10666	-0.00043	-0.0001	-5e-05	-1e-05	-3e-05	-0.00011	-8e-05	-0.00028	3
10667	-0.00043	-0.0001	-5e-05	-1e-05	-3e-05	-0.00011	-8e-05	-0.00028	3
10668	-0.00043	-0.0001	-5e-05	-1e-05	-3e-05	-0.00011	-8e-05	-0.00028	3
10670	-0.00043	-0.0001	-5e-05	-1e-05	-3e-05	-0.00011	-8e-05	-0.00028	3
10671	-0.00043	-0.0001	-5e-05	-1e-05	-3e-05	-0.00011	-8e-05	-0.00028	3
10672	-0.00043	-0.0001	-5e-05	-1e-05	-3e-05	-0.00011	-8e-05	-0.00028	3
10673	-0.00043	-0.0001	-5e-05	-1e-05	-3e-05	-0.00011	-8e-05	-0.00028	3
10674	-0.00043	-0.0001	-5e-05	-1e-05	-3e-05	-0.00011	-8e-05	-0.00028	3
10675	-0.00043	-0.0001	-5e-05	-1e-05	-3e-05	-0.00011	-8e-05	-0.00028	3
10676	-0.00043	-0.0001	-5e-05	-1e-05	-3e-05	-0.00011	-8e-05	-0.00028	3
10677	-0.00043	-0.0001	-5e-05	-1e-05	-3e-05	-0.00011	-8e-05	-0.00028	3
10678	-0.00043	-0.0001	-5e-05	-1e-05	-3e-05	-0.00011	-8e-05	-0.00028	3
10679	-0.00043	-0.0001	-5e-05	-1e-05	-3e-05	-0.00011	-8e-05	-0.00028	3
10680	-0.00043	-0.0001	-5e-05	-1e-05	-3e-05	-0.00011	-8e-05	-0.00028	3
10681	-0.00043	-0.0001	-5e-05	-1e-05	-3e-05	-0.00011	-8e-05	-0.00028	3
10682	-0.00043	-0.0001	-5e-05	-1e-05	-3e-05	-0.00011	-8e-05	-0.00028	3
10683	-0.00043	-0.0001	-5e-05	-1e-05	-3e-05	-0.00011	-8e-05	-0.00028	3
10684	-0.00043	-0.0001	-5e-05	-1e-05	-3e-05	-0.00011	-8e-05	-0.00028	3
10685	-0.00043	-0.0001	-5e-05	-1e-05	-3e-05	-0.00011	-8e-05	-0.00028	3
10687	-0.00043	-0.0001	-5e-05	-1e-05	-3e-05	-0.00011	-8e-05	-0.00028	3
10692	-0.00043	-0.0001	-5e-05	-1e-05	-3e-05	-0.00011	-8e-05	-0.00028	3
10693	-0.00043	-0.0001	-5e-05	-1e-05	-3e-05	-0.00011	-8e-05	-0.00028	3
10694	-0.00043	-0.0001	-5e-05	-1e-05	-3e-05	-0.00011	-8e-05	-0.00028	3
10695	-0.00043	-0.0001	-5e-05	-1e-05	-3e-05	-0.00011	-8e-05	-0.00028	3
10696	-0.00043	-0.0001	-5e-05	-1e-05	-3e-05	-0.00011	-8e-05	-0.00028	3
10697	-0.00043	-0.0001	-5e-05	-1e-05	-3e-05	-0.00011	-8e-05	-0.00028	3
10698	-0.00043	-0.0001	-5e-05	-1e-05	-3e-05	-0.00011	-8e-05	-0.00028	3
10699	-0.00043	-0.0001	-5e-05	-1e-05	-3e-05	-0.00011	-8e-05	-0.00028	3
10701	-0.00043	-0.0001	-5e-05	-1e-05	-3e-05	-0.00011	-8e-05	-0.00028	3
10702	-0.00043	-0.0001	-5e-05	-1e-05	-3e-05	-0.00011	-8e-05	-0.00028	3
10703	-0.00043	-0.0001	-5e-05	-1e-05	-3e-05	-0.00011	-8e-05	-0.00028	3
10704	-0.00043	-0.0001	-5e-05	-1e-05	-3e-05	-0.00011	-8e-05	-0.00028	3
10705	-0.00043	-0.0001	-5e-05	-1e-05	-3e-05	-0.00011	-8e-05	-0.00028	3
10706	-0.00043	-0.0001	-5e-05	-1e-05	-3e-05	-0.00011	-8e-05	-0.00028	3
10707	-4e-05	-0.00013	-7e-05	-5e-05	9e-05	0.00015	-3e-05	3e-05	3
10708	0.00011	-3e-05	0	2e-05	2e-05	6e-05	-1e-05	0.00018	3
10709	0.00021	8e-05	2e-05	1e-05	3e-05	0.00015	-0.00019	0.00033	3
10710	0.00021	8e-05	2e-05	1e-05	3e-05	0.00015	-0.00019	0.00033	3
10711	0.00021	8e-05	2e-05	1e-05	3e-05	0.00015	-0.00019	0.00033	3
10712	0.00013	-3e-05	1e-05	6e-05	7e-05	7e-05	-5e-05	6e-05	3
10713	0.00013	-3e-05	1e-05	6e-05	7e-05	7e-05	-5e-05	6e-05	3
10714	0.00013	-3e-05	1e-05	6e-05	7e-05	7e-05	-5e-05	6e-05	3
10715	0.00013	-3e-05	1e-05	6e-05	7e-05	7e-05	-5e-05	6e-05	3
10716	0.00013	-3e-05	1e-05	6e-05	7e-05	7e-05	-5e-05	6e-05	3
10717	0.00013	-3e-05	1e-05	6e-05	7e-05	7e-05	-5e-05	6e-05	3
10719	2e-05	-1e-05	4e-05	3e-05	6e-05	0.0001	0.00018	0.00041	3
10721	-0.00053	-3e-05	1e-05	1e-05	-2e-05	-0.00017	-2e-05	-0.00052	3
10722	-0.00053	-3e-05	1e-05	1e-05	-2e-05	-0.00017	-2e-05	-0.00052	3
10725	-0.00053	-3e-05	1e-05	1e-05	-2e-05	-0.00017	-2e-05	-0.00052	3
10726	-0.00053	-3e-05	1e-05	1e-05	-2e-05	-0.00017	-2e-05	-0.00052	3
10727	0.00025	7e-05	-1e-05	-6e-05	3e-05	0.00013	8e-05	0.00022	3
10730	0.00025	7e-05	-1e-05	-6e-05	3e-05	0.00013	8e-05	0.00022	3
10731	0.00025	7e-05	-1e-05	-6e-05	3e-05	0.00013	8e-05	0.00022	3
10732	0.00025	7e-05	-1e-05	-6e-05	3e-05	0.00013	8e-05	0.00022	3
10733	0.00025	7e-05	-1e-05	-6e-05	3e-05	0.00013	8e-05	0.00022	3
10734	0.00025	7e-05	-1e-05	-6e-05	3e-05	0.00013	8e-05	0.00022	3
10735	0.00025	7e-05	-1e-05	-6e-05	3e-05	0.00013	8e-05	0.00022	3
10737	0.00025	7e-05	-1e-05	-6e-05	3e-05	0.00013	8e-05	0.00022	3
10741	0.00025	7e-05	-1e-05	-6e-05	3e-05	0.00013	8e-05	0.00022	3
10742	0.00025	7e-05	-1e-05	-6e-05	3e-05	0.00013	8e-05	0.00022	3
10743	0.00025	7e-05	-1e-05	-6e-05	3e-05	0.00013	8e-05	0.00022	3
10744	0.00025	7e-05	-1e-05	-6e-05	3e-05	0.00013	8e-05	0.00022	3
10745	0.00025	7e-05	-1e-05	-6e-05	3e-05	0.00013	8e-05	0.00022	3
10746	0.00025	7e-05	-1e-05	-6e-05	3e-05	0.00013	8e-05	0.00022	3
10747	0.00025	7e-05	-1e-05	-6e-05	3e-05	0.00013	8e-05	0.00022	3
10748	0.00025	7e-05	-1e-05	-6e-05	3e-05	0.00013	8e-05	0.00022	3
10749	0.00025	7e-05	-1e-05	-6e-05	3e-05	0.00013	8e-05	0.00022	3
10750	0.00025	7e-05	-1e-05	-6e-05	3e-05	0.00013	8e-05	0.00022	3
10751	0.00025	7e-05	-1e-05	-6e-05	3e-05	0.00013	8e-05	0.00022	3
10753	0.00025	7e-05	-1e-05	-6e-05	3e-05	0.00013	8e-05	0.00022	3
10754	0.00025	7e-05	-1e-05	-6e-05	3e-05	0.00013	8e-05	0.00022	3
10755	0.00025	7e-05	-1e-05	-6e-05	3e-05	0.00013	8e-05	0.00022	3
10756	0.00025	7e-05	-1e-05	-6e-05	3e-05	0.00013	8e-05	0.00022	3
10757	0.00025	7e-05	-1e-05	-6e-05	3e-05	0.00013	8e-05	0.00022	3
10758	0.00025	7e-05	-1e-05	-6e-05	3e-05	0.00013	8e-05	0.00022	3
10759	0.00012	-5e-05	-4e-05	0	1e-05	-5e-05	0.00013	-6e-05	3
10760	8e-05	5e-05	-1e-05	-5e-05	-2e-05	-2e-05	2e-05	-0.00015	3
10761	8e-05	5e-05	-1e-05	-5e-05	-2e-05	-2e-05	2e-05	-0.00015	3
10762	8e-05	5e-05	-1e-05	-5e-05	-2e-05	-2e-05	2e-05	-0.00015	3
10763	8e-05	5e-05	-1e-05	-5e-05	-2e-05	-2e-05	2e-05	-0.00015	3
10764	8e-05	5e-05	-1e-05	-5e-05	-2e-05	-2e-05	2e-05	-0.00015	3
10765	8e-05	5e-05	-1e-05	-5e-05	-2e-05	-2e-05	2e-05	-0.00015	3
10766	8e-05	5e-05	-1e-05	-5e-05	-2e-05	-2e-05	2e-05	-0.00015	3
10767	0.00027	1e-05	-1e-05	4e-05	-1e-05	-3e-05	-3e-05	-5e-05	3
10770	-0.00018	-7e-05	-5e-05	-5e-05	-5e-05	-1e-05	2e-05	9e-05	3
10771	-0.00018	-7e-05	-5e-05	-5e-05	-5e-05	-1e-05	2e-05	9e-05	3
10772	-0.00018	-7e-05	-5e-05	-5e-05	-5e-05	-1e-05	2e-05	9e-05	3
10773	-0.00018	-7e-05	-5e-05	-5e-05	-5e-05	-1e-05	2e-05	9e-05	3
10774	-0.00018	-7e-05	-5e-05	-5e-05	-5e-05	-1e-05	2e-05	9e-05	3
10776	-0.00018	-7e-05	-5e-05	-5e-05	-5e-05	-1e-05	2e-05	9e-05	3
10777	-0.00018	-7e-05	-5e-05	-5e-05	-5e-05	-1e-05	2e-05	9e-05	3
10778	-0.00018	-7e-05	-5e-05	-5e-05	-5e-05	-1e-05	2e-05	9e-05	3
10779	-0.00018	-7e-05	-5e-05	-5e-05	-5e-05	-1e-05	2e-05	9e-05	3
10780	-2e-05	-7e-05	-5e-05	-4e-05	-0.0001	-8e-05	-0.00015	-0.0003	3
10781	-2e-05	-7e-05	-5e-05	-4e-05	-0.0001	-8e-05	-0.00015	-0.0003	3
10782	-2e-05	-7e-05	-5e-05	-4e-05	-0.0001	-8e-05	-0.00015	-0.0003	3
10783	-2e-05	-7e-05	-5e-05	-4e-05	-0.0001	-8e-05	-0.00015	-0.0003	3
10784	-2e-05	-7e-05	-5e-05	-4e-05	-0.0001	-8e-05	-0.00015	-0.0003	3
10786	-2e-05	-7e-05	-5e-05	-4e-05	-0.0001	-8e-05	-0.00015	-0.0003	3
10787	-2e-05	-7e-05	-5e-05	-4e-05	-0.0001	-8e-05	-0.00015	-0.0003	3
10788	-2e-05	-7e-05	-5e-05	-4e-05	-0.0001	-8e-05	-0.00015	-0.0003	3
10789	-2e-05	-7e-05	-5e-05	-4e-05	-0.0001	-8e-05	-0.00015	-0.0003	3
10790	-2e-05	-7e-05	-5e-05	-4e-05	-0.0001	-8e-05	-0.00015	-0.0003	3
10791	-2e-05	-7e-05	-5e-05	-4e-05	-0.0001	-8e-05	-0.00015	-0.0003	3
10792	-2e-05	-7e-05	-5e-05	-4e-05	-0.0001	-8e-05	-0.00015	-0.0003	3
10793	-2e-05	-7e-05	-5e-05	-4e-05	-0.0001	-8e-05	-0.00015	-0.0003	3
10794	-2e-05	-7e-05	-5e-05	-4e-05	-0.0001	-8e-05	-0.00015	-0.0003	3
10795	-2e-05	-7e-05	-5e-05	-4e-05	-0.0001	-8e-05	-0.00015	-0.0003	3
10796	-2e-05	-7e-05	-5e-05	-4e-05	-0.0001	-8e-05	-0.00015	-0.0003	3
10797	-2e-05	-7e-05	-5e-05	-4e-05	-0.0001	-8e-05	-0.00015	-0.0003	3
10798	-2e-05	-7e-05	-5e-05	-4e-05	-0.0001	-8e-05	-0.00015	-0.0003	3
10799	-2e-05	-7e-05	-5e-05	-4e-05	-0.0001	-8e-05	-0.00015	-0.0003	3
10800	-2e-05	-7e-05	-5e-05	-4e-05	-0.0001	-8e-05	-0.00015	-0.0003	3
10801	-2e-05	-7e-05	-5e-05	-4e-05	-0.0001	-8e-05	-0.00015	-0.0003	3
10802	-2e-05	-7e-05	-5e-05	-4e-05	-0.0001	-8e-05	-0.00015	-0.0003	3
10803	-2e-05	-7e-05	-5e-05	-4e-05	-0.0001	-8e-05	-0.00015	-0.0003	3
10804	-2e-05	-7e-05	-5e-05	-4e-05	-0.0001	-8e-05	-0.00015	-0.0003	3
10805	-2e-05	-7e-05	-5e-05	-4e-05	-0.0001	-8e-05	-0.00015	-0.0003	3
10806	-2e-05	-7e-05	-5e-05	-4e-05	-0.0001	-8e-05	-0.00015	-0.0003	3
10807	-2e-05	-7e-05	-5e-05	-4e-05	-0.0001	-8e-05	-0.00015	-0.0003	3
10808	-2e-05	-7e-05	-5e-05	-4e-05	-0.0001	-8e-05	-0.00015	-0.0003	3
10809	-2e-05	-7e-05	-5e-05	-4e-05	-0.0001	-8e-05	-0.00015	-0.0003	3
10810	-2e-05	-7e-05	-5e-05	-4e-05	-0.0001	-8e-05	-0.00015	-0.0003	3
10811	-2e-05	-7e-05	-5e-05	-4e-05	-0.0001	-8e-05	-0.00015	-0.0003	3
10812	-2e-05	-7e-05	-5e-05	-4e-05	-0.0001	-8e-05	-0.00015	-0.0003	3
10813	-2e-05	-7e-05	-5e-05	-4e-05	-0.0001	-8e-05	-0.00015	-0.0003	3
10814	-2e-05	-7e-05	-5e-05	-4e-05	-0.0001	-8e-05	-0.00015	-0.0003	3
10815	-2e-05	-7e-05	-5e-05	-4e-05	-0.0001	-8e-05	-0.00015	-0.0003	3
10816	-2e-05	-7e-05	-5e-05	-4e-05	-0.0001	-8e-05	-0.00015	-0.0003	3
10817	-2e-05	-7e-05	-5e-05	-4e-05	-0.0001	-8e-05	-0.00015	-0.0003	3
10818	-2e-05	-7e-05	-5e-05	-4e-05	-0.0001	-8e-05	-0.00015	-0.0003	3
10819	-2e-05	-7e-05	-5e-05	-4e-05	-0.0001	-8e-05	-0.00015	-0.0003	3
10820	-0.00011	1e-05	2e-05	2e-05	1e-05	-2e-05	-2e-05	-4e-05	3
10821	-0.00011	1e-05	2e-05	2e-05	1e-05	-2e-05	-2e-05	-4e-05	3
10824	-0.00011	1e-05	2e-05	2e-05	1e-05	-2e-05	-2e-05	-4e-05	3
10825	-0.00011	1e-05	2e-05	2e-05	1e-05	-2e-05	-2e-05	-4e-05	3
10826	-0.00011	1e-05	2e-05	2e-05	1e-05	-2e-05	-2e-05	-4e-05	3
10827	-0.00046	-0.00018	-3e-05	-1e-05	-1e-05	-0.0001	-9e-05	-0.0001	3
10828	-0.00046	-0.00018	-3e-05	-1e-05	-1e-05	-0.0001	-9e-05	-0.0001	3
10829	-0.00046	-0.00018	-3e-05	-1e-05	-1e-05	-0.0001	-9e-05	-0.0001	3
10830	-0.00046	-0.00018	-3e-05	-1e-05	-1e-05	-0.0001	-9e-05	-0.0001	3
10831	-0.00046	-0.00018	-3e-05	-1e-05	-1e-05	-0.0001	-9e-05	-0.0001	3
10832	-0.00046	-0.00018	-3e-05	-1e-05	-1e-05	-0.0001	-9e-05	-0.0001	3
10833	-0.00046	-0.00018	-3e-05	-1e-05	-1e-05	-0.0001	-9e-05	-0.0001	3
10835	-0.00046	-0.00018	-3e-05	-1e-05	-1e-05	-0.0001	-9e-05	-0.0001	3
10836	-0.00046	-0.00018	-3e-05	-1e-05	-1e-05	-0.0001	-9e-05	-0.0001	3
10838	-0.00046	-0.00018	-3e-05	-1e-05	-1e-05	-0.0001	-9e-05	-0.0001	3
10839	-0.00046	-0.00018	-3e-05	-1e-05	-1e-05	-0.0001	-9e-05	-0.0001	3
10840	0.00054	0.00011	4e-05	3e-05	7e-05	0.00016	0.00014	0.00037	3
10841	0.00014	0.00014	6e-05	5e-05	2e-05	-1e-05	-4e-05	-0.00011	3
10842	0.00014	0.00014	6e-05	5e-05	2e-05	-1e-05	-4e-05	-0.00011	3
10843	0.00014	0.00014	6e-05	5e-05	2e-05	-1e-05	-4e-05	-0.00011	3
10844	0.00014	0.00014	6e-05	5e-05	2e-05	-1e-05	-4e-05	-0.00011	3
10845	0.00014	0.00014	6e-05	5e-05	2e-05	-1e-05	-4e-05	-0.00011	3
10846	0.00014	0.00014	6e-05	5e-05	2e-05	-1e-05	-4e-05	-0.00011	3
10847	0.00014	0.00014	6e-05	5e-05	2e-05	-1e-05	-4e-05	-0.00011	3
10848	0.00014	0.00014	6e-05	5e-05	2e-05	-1e-05	-4e-05	-0.00011	3
10849	0.00014	0.00014	6e-05	5e-05	2e-05	-1e-05	-4e-05	-0.00011	3
10850	0.00014	0.00014	6e-05	5e-05	2e-05	-1e-05	-4e-05	-0.00011	3
10851	0.00014	0.00014	6e-05	5e-05	2e-05	-1e-05	-4e-05	-0.00011	3
10853	0.00014	0.00014	6e-05	5e-05	2e-05	-1e-05	-4e-05	-0.00011	3
10854	0.00014	0.00014	6e-05	5e-05	2e-05	-1e-05	-4e-05	-0.00011	3
10855	0.00014	0.00014	6e-05	5e-05	2e-05	-1e-05	-4e-05	-0.00011	3
10856	0.00014	0.00014	6e-05	5e-05	2e-05	-1e-05	-4e-05	-0.00011	3
10857	0.00014	0.00014	6e-05	5e-05	2e-05	-1e-05	-4e-05	-0.00011	3
10858	0.00014	0.00014	6e-05	5e-05	2e-05	-1e-05	-4e-05	-0.00011	3
10859	0.00014	0.00014	6e-05	5e-05	2e-05	-1e-05	-4e-05	-0.00011	3
10860	0.00014	0.00014	6e-05	5e-05	2e-05	-1e-05	-4e-05	-0.00011	3
10861	0.00014	0.00014	6e-05	5e-05	2e-05	-1e-05	-4e-05	-0.00011	3
10862	0.00014	0.00014	6e-05	5e-05	2e-05	-1e-05	-4e-05	-0.00011	3
10863	0.00014	0.00014	6e-05	5e-05	2e-05	-1e-05	-4e-05	-0.00011	3
10864	0.00014	0.00014	6e-05	5e-05	2e-05	-1e-05	-4e-05	-0.00011	3
10865	0.00014	0.00014	6e-05	5e-05	2e-05	-1e-05	-4e-05	-0.00011	3
10866	0.00014	0.00014	6e-05	5e-05	2e-05	-1e-05	-4e-05	-0.00011	3
10867	0.00014	0.00014	6e-05	5e-05	2e-05	-1e-05	-4e-05	-0.00011	3
10868	0.00014	0.00014	6e-05	5e-05	2e-05	-1e-05	-4e-05	-0.00011	3
10869	0.00014	0.00014	6e-05	5e-05	2e-05	-1e-05	-4e-05	-0.00011	3
10871	0.00014	0.00014	6e-05	5e-05	2e-05	-1e-05	-4e-05	-0.00011	3
10872	0.00014	0.00014	6e-05	5e-05	2e-05	-1e-05	-4e-05	-0.00011	3
10873	0.00014	0.00014	6e-05	5e-05	2e-05	-1e-05	-4e-05	-0.00011	3
10874	0.00014	0.00014	6e-05	5e-05	2e-05	-1e-05	-4e-05	-0.00011	3
10875	0.00014	0.00014	6e-05	5e-05	2e-05	-1e-05	-4e-05	-0.00011	3
10876	0.00014	0.00014	6e-05	5e-05	2e-05	-1e-05	-4e-05	-0.00011	3
10877	0.00014	0.00014	6e-05	5e-05	2e-05	-1e-05	-4e-05	-0.00011	3
10878	0.00014	0.00014	6e-05	5e-05	2e-05	-1e-05	-4e-05	-0.00011	3
10879	0.00014	0.00014	6e-05	5e-05	2e-05	-1e-05	-4e-05	-0.00011	3
10880	0.00035	-2e-05	-0.0001	-8e-05	-6e-05	1e-05	-4e-05	0.00027	3
10881	0.00013	5e-05	1e-05	0	2e-05	-4e-05	-1e-05	0.00021	3
10882	0.00013	5e-05	1e-05	0	2e-05	-4e-05	-1e-05	0.00021	3
10883	0.00013	5e-05	1e-05	0	2e-05	-4e-05	-1e-05	0.00021	3
10884	0.00013	5e-05	1e-05	0	2e-05	-4e-05	-1e-05	0.00021	3
10886	0.00013	5e-05	1e-05	0	2e-05	-4e-05	-1e-05	0.00021	3
10887	7e-05	-1e-05	-5e-05	-7e-05	-4e-05	-3e-05	6e-05	1e-05	3
10888	7e-05	-1e-05	-5e-05	-7e-05	-4e-05	-3e-05	6e-05	1e-05	3
10889	7e-05	-1e-05	-5e-05	-7e-05	-4e-05	-3e-05	6e-05	1e-05	3
10890	7e-05	-1e-05	-5e-05	-7e-05	-4e-05	-3e-05	6e-05	1e-05	3
10891	7e-05	-1e-05	-5e-05	-7e-05	-4e-05	-3e-05	6e-05	1e-05	3
10892	7e-05	-1e-05	-5e-05	-7e-05	-4e-05	-3e-05	6e-05	1e-05	3
10893	7e-05	-1e-05	-5e-05	-7e-05	-4e-05	-3e-05	6e-05	1e-05	3
10894	7e-05	-1e-05	-5e-05	-7e-05	-4e-05	-3e-05	6e-05	1e-05	3
10895	7e-05	-1e-05	-5e-05	-7e-05	-4e-05	-3e-05	6e-05	1e-05	3
10896	7e-05	-1e-05	-5e-05	-7e-05	-4e-05	-3e-05	6e-05	1e-05	3
10897	7e-05	-1e-05	-5e-05	-7e-05	-4e-05	-3e-05	6e-05	1e-05	3
10898	7e-05	-1e-05	-5e-05	-7e-05	-4e-05	-3e-05	6e-05	1e-05	3
10899	7e-05	-1e-05	-5e-05	-7e-05	-4e-05	-3e-05	6e-05	1e-05	3
10900	7e-05	-1e-05	-5e-05	-7e-05	-4e-05	-3e-05	6e-05	1e-05	3
10901	7e-05	-1e-05	-5e-05	-7e-05	-4e-05	-3e-05	6e-05	1e-05	3
10903	7e-05	-1e-05	-5e-05	-7e-05	-4e-05	-3e-05	6e-05	1e-05	3
10904	7e-05	-1e-05	-5e-05	-7e-05	-4e-05	-3e-05	6e-05	1e-05	3
10905	7e-05	-1e-05	-5e-05	-7e-05	-4e-05	-3e-05	6e-05	1e-05	3
10906	7e-05	-1e-05	-5e-05	-7e-05	-4e-05	-3e-05	6e-05	1e-05	3
10907	7e-05	-1e-05	-5e-05	-7e-05	-4e-05	-3e-05	6e-05	1e-05	3
10908	7e-05	-1e-05	-5e-05	-7e-05	-4e-05	-3e-05	6e-05	1e-05	3
10909	7e-05	-1e-05	-5e-05	-7e-05	-4e-05	-3e-05	6e-05	1e-05	3
10910	7e-05	-1e-05	-5e-05	-7e-05	-4e-05	-3e-05	6e-05	1e-05	3
10911	7e-05	-1e-05	-5e-05	-7e-05	-4e-05	-3e-05	6e-05	1e-05	3
10912	7e-05	-1e-05	-5e-05	-7e-05	-4e-05	-3e-05	6e-05	1e-05	3
10913	7e-05	-1e-05	-5e-05	-7e-05	-4e-05	-3e-05	6e-05	1e-05	3
10914	7e-05	-1e-05	-5e-05	-7e-05	-4e-05	-3e-05	6e-05	1e-05	3
10915	7e-05	-1e-05	-5e-05	-7e-05	-4e-05	-3e-05	6e-05	1e-05	3
10916	7e-05	-1e-05	-5e-05	-7e-05	-4e-05	-3e-05	6e-05	1e-05	3
10917	7e-05	-1e-05	-5e-05	-7e-05	-4e-05	-3e-05	6e-05	1e-05	3
10918	7e-05	-1e-05	-5e-05	-7e-05	-4e-05	-3e-05	6e-05	1e-05	3
10919	7e-05	-1e-05	-5e-05	-7e-05	-4e-05	-3e-05	6e-05	1e-05	3
10920	7e-05	-1e-05	-5e-05	-7e-05	-4e-05	-3e-05	6e-05	1e-05	3
10921	7e-05	-1e-05	-5e-05	-7e-05	-4e-05	-3e-05	6e-05	1e-05	3
10922	7e-05	-1e-05	-5e-05	-7e-05	-4e-05	-3e-05	6e-05	1e-05	3
10923	7e-05	-1e-05	-5e-05	-7e-05	-4e-05	-3e-05	6e-05	1e-05	3
10924	7e-05	-1e-05	-5e-05	-7e-05	-4e-05	-3e-05	6e-05	1e-05	3
10925	7e-05	-1e-05	-5e-05	-7e-05	-4e-05	-3e-05	6e-05	1e-05	3
10926	7e-05	-1e-05	-5e-05	-7e-05	-4e-05	-3e-05	6e-05	1e-05	3
10927	7e-05	-1e-05	-5e-05	-7e-05	-4e-05	-3e-05	6e-05	1e-05	3
10928	7e-05	-1e-05	-5e-05	-7e-05	-4e-05	-3e-05	6e-05	1e-05	3
10929	7e-05	-1e-05	-5e-05	-7e-05	-4e-05	-3e-05	6e-05	1e-05	3
10930	7e-05	-1e-05	-5e-05	-7e-05	-4e-05	-3e-05	6e-05	1e-05	3
10931	7e-05	-1e-05	-5e-05	-7e-05	-4e-05	-3e-05	6e-05	1e-05	3
10932	0.00028	0.00016	3e-05	3e-05	2e-05	-0.0001	-3e-05	-5e-05	3
10933	-3e-05	-2e-05	-6e-05	-3e-05	-5e-05	6e-05	-6e-05	-0.00012	3
10934	0.00014	-2e-05	-5e-05	-5e-05	-5e-05	-4e-05	-9e-05	-0.0001	3
10935	0.00014	-2e-05	-5e-05	-5e-05	-5e-05	-4e-05	-9e-05	-0.0001	3
10937	0.00014	-2e-05	-5e-05	-5e-05	-5e-05	-4e-05	-9e-05	-0.0001	3
10941	2e-05	0.00012	2e-05	-4e-05	-7e-05	-0.0002	-0.00023	-0.00039	3
10942	2e-05	0.00012	2e-05	-4e-05	-7e-05	-0.0002	-0.00023	-0.00039	3
10943	2e-05	0.00012	2e-05	-4e-05	-7e-05	-0.0002	-0.00023	-0.00039	3
10944	2e-05	0.00012	2e-05	-4e-05	-7e-05	-0.0002	-0.00023	-0.00039	3
10945	2e-05	0.00012	2e-05	-4e-05	-7e-05	-0.0002	-0.00023	-0.00039	3
10946	2e-05	0.00012	2e-05	-4e-05	-7e-05	-0.0002	-0.00023	-0.00039	3
10947	2e-05	0.00012	2e-05	-4e-05	-7e-05	-0.0002	-0.00023	-0.00039	3
10948	2e-05	0.00012	2e-05	-4e-05	-7e-05	-0.0002	-0.00023	-0.00039	3
10949	2e-05	0.00012	2e-05	-4e-05	-7e-05	-0.0002	-0.00023	-0.00039	3
10950	2e-05	0.00012	2e-05	-4e-05	-7e-05	-0.0002	-0.00023	-0.00039	3
10951	2e-05	0.00012	2e-05	-4e-05	-7e-05	-0.0002	-0.00023	-0.00039	3
10952	2e-05	0.00012	2e-05	-4e-05	-7e-05	-0.0002	-0.00023	-0.00039	3
10953	2e-05	0.00012	2e-05	-4e-05	-7e-05	-0.0002	-0.00023	-0.00039	3
10954	2e-05	0.00012	2e-05	-4e-05	-7e-05	-0.0002	-0.00023	-0.00039	3
10955	2e-05	0.00012	2e-05	-4e-05	-7e-05	-0.0002	-0.00023	-0.00039	3
10956	2e-05	0.00012	2e-05	-4e-05	-7e-05	-0.0002	-0.00023	-0.00039	3
10957	2e-05	0.00012	2e-05	-4e-05	-7e-05	-0.0002	-0.00023	-0.00039	3
10958	2e-05	0.00012	2e-05	-4e-05	-7e-05	-0.0002	-0.00023	-0.00039	3
10959	2e-05	0.00012	2e-05	-4e-05	-7e-05	-0.0002	-0.00023	-0.00039	3
10960	2e-05	0.00012	2e-05	-4e-05	-7e-05	-0.0002	-0.00023	-0.00039	3
10961	2e-05	0.00012	2e-05	-4e-05	-7e-05	-0.0002	-0.00023	-0.00039	3
10962	2e-05	0.00012	2e-05	-4e-05	-7e-05	-0.0002	-0.00023	-0.00039	3
10963	2e-05	0.00012	2e-05	-4e-05	-7e-05	-0.0002	-0.00023	-0.00039	3
10964	2e-05	0.00012	2e-05	-4e-05	-7e-05	-0.0002	-0.00023	-0.00039	3
10965	2e-05	0.00012	2e-05	-4e-05	-7e-05	-0.0002	-0.00023	-0.00039	3
10966	2e-05	0.00012	2e-05	-4e-05	-7e-05	-0.0002	-0.00023	-0.00039	3
10967	2e-05	0.00012	2e-05	-4e-05	-7e-05	-0.0002	-0.00023	-0.00039	3
10970	2e-05	0.00012	2e-05	-4e-05	-7e-05	-0.0002	-0.00023	-0.00039	3
10971	2e-05	0.00012	2e-05	-4e-05	-7e-05	-0.0002	-0.00023	-0.00039	3
10972	2e-05	0.00012	2e-05	-4e-05	-7e-05	-0.0002	-0.00023	-0.00039	3
10973	2e-05	0.00012	2e-05	-4e-05	-7e-05	-0.0002	-0.00023	-0.00039	3
10974	2e-05	0.00012	2e-05	-4e-05	-7e-05	-0.0002	-0.00023	-0.00039	3
10975	2e-05	0.00012	2e-05	-4e-05	-7e-05	-0.0002	-0.00023	-0.00039	3
10976	2e-05	0.00012	2e-05	-4e-05	-7e-05	-0.0002	-0.00023	-0.00039	3
10977	2e-05	0.00012	2e-05	-4e-05	-7e-05	-0.0002	-0.00023	-0.00039	3
10978	2e-05	0.00012	2e-05	-4e-05	-7e-05	-0.0002	-0.00023	-0.00039	3
10979	2e-05	0.00012	2e-05	-4e-05	-7e-05	-0.0002	-0.00023	-0.00039	3
10980	2e-05	0.00012	2e-05	-4e-05	-7e-05	-0.0002	-0.00023	-0.00039	3
10981	2e-05	0.00012	2e-05	-4e-05	-7e-05	-0.0002	-0.00023	-0.00039	3
10982	2e-05	0.00012	2e-05	-4e-05	-7e-05	-0.0002	-0.00023	-0.00039	3
10983	2e-05	0.00012	2e-05	-4e-05	-7e-05	-0.0002	-0.00023	-0.00039	3
10984	-0.00015	-6e-05	3e-05	4e-05	0.00016	0.0003	-1e-05	0.00012	3
10985	-1e-05	-2e-05	0	-1e-05	-3e-05	2e-05	2e-05	9e-05	3
10988	-1e-05	-2e-05	0	-1e-05	-3e-05	2e-05	2e-05	9e-05	3
10993	-1e-05	-2e-05	0	-1e-05	-3e-05	2e-05	2e-05	9e-05	3
10994	0.00021	8e-05	4e-05	7e-05	1e-05	-4e-05	-0.00012	0.00011	3
10995	0.00021	8e-05	4e-05	7e-05	1e-05	-4e-05	-0.00012	0.00011	3
10996	0.00021	8e-05	4e-05	7e-05	1e-05	-4e-05	-0.00012	0.00011	3
10997	0.00023	-3e-05	-6e-05	-5e-05	1e-05	-6e-05	5e-05	4e-05	3
10998	0.00023	-3e-05	-6e-05	-5e-05	1e-05	-6e-05	5e-05	4e-05	3
10999	0.00023	-3e-05	-6e-05	-5e-05	1e-05	-6e-05	5e-05	4e-05	3
11000	0.00023	-3e-05	-6e-05	-5e-05	1e-05	-6e-05	5e-05	4e-05	3
11001	0.00023	-3e-05	-6e-05	-5e-05	1e-05	-6e-05	5e-05	4e-05	3
11003	0.00023	-3e-05	-6e-05	-5e-05	1e-05	-6e-05	5e-05	4e-05	3
11004	0.00023	-3e-05	-6e-05	-5e-05	1e-05	-6e-05	5e-05	4e-05	3
11005	0.00022	6e-05	1e-05	-4e-05	-1e-05	-2e-05	0.00011	0.00013	3
11006	0.00022	6e-05	1e-05	-4e-05	-1e-05	-2e-05	0.00011	0.00013	3
11007	0.00022	6e-05	1e-05	-4e-05	-1e-05	-2e-05	0.00011	0.00013	3
11008	0.00022	6e-05	1e-05	-4e-05	-1e-05	-2e-05	0.00011	0.00013	3
11010	0.00022	6e-05	1e-05	-4e-05	-1e-05	-2e-05	0.00011	0.00013	3
11011	0.00022	6e-05	1e-05	-4e-05	-1e-05	-2e-05	0.00011	0.00013	3
11012	0.00022	6e-05	1e-05	-4e-05	-1e-05	-2e-05	0.00011	0.00013	3
11013	0.00022	6e-05	1e-05	-4e-05	-1e-05	-2e-05	0.00011	0.00013	3
11014	0.00022	6e-05	1e-05	-4e-05	-1e-05	-2e-05	0.00011	0.00013	3
11015	0.00022	6e-05	1e-05	-4e-05	-1e-05	-2e-05	0.00011	0.00013	3
11016	0.00022	6e-05	1e-05	-4e-05	-1e-05	-2e-05	0.00011	0.00013	3
11017	0.00022	6e-05	1e-05	-4e-05	-1e-05	-2e-05	0.00011	0.00013	3
11018	0.00022	6e-05	1e-05	-4e-05	-1e-05	-2e-05	0.00011	0.00013	3
11020	0.00022	6e-05	1e-05	-4e-05	-1e-05	-2e-05	0.00011	0.00013	3
11021	0.00022	6e-05	1e-05	-4e-05	-1e-05	-2e-05	0.00011	0.00013	3
11022	0.00022	6e-05	1e-05	-4e-05	-1e-05	-2e-05	0.00011	0.00013	3
11023	0.00022	6e-05	1e-05	-4e-05	-1e-05	-2e-05	0.00011	0.00013	3
11024	0.00022	6e-05	1e-05	-4e-05	-1e-05	-2e-05	0.00011	0.00013	3
11025	0.00022	6e-05	1e-05	-4e-05	-1e-05	-2e-05	0.00011	0.00013	3
11026	0.00022	6e-05	1e-05	-4e-05	-1e-05	-2e-05	0.00011	0.00013	3
11027	0.00022	6e-05	1e-05	-4e-05	-1e-05	-2e-05	0.00011	0.00013	3
11028	0.00022	6e-05	1e-05	-4e-05	-1e-05	-2e-05	0.00011	0.00013	3
11029	0.00022	6e-05	1e-05	-4e-05	-1e-05	-2e-05	0.00011	0.00013	3
11030	0.00022	6e-05	1e-05	-4e-05	-1e-05	-2e-05	0.00011	0.00013	3
11031	0.00022	6e-05	1e-05	-4e-05	-1e-05	-2e-05	0.00011	0.00013	3
11032	0.00022	6e-05	1e-05	-4e-05	-1e-05	-2e-05	0.00011	0.00013	3
11033	0.00022	6e-05	1e-05	-4e-05	-1e-05	-2e-05	0.00011	0.00013	3
11034	0.00022	6e-05	1e-05	-4e-05	-1e-05	-2e-05	0.00011	0.00013	3
11035	0.00022	6e-05	1e-05	-4e-05	-1e-05	-2e-05	0.00011	0.00013	3
11038	5e-05	-1e-05	-2e-05	1e-05	7e-05	0.00017	8e-05	0.00015	3
11043	5e-05	-1e-05	-2e-05	1e-05	7e-05	0.00017	8e-05	0.00015	3
11044	5e-05	-1e-05	-2e-05	1e-05	7e-05	0.00017	8e-05	0.00015	3
11045	0.00018	-2e-05	-5e-05	-0.0001	-5e-05	-7e-05	-8e-05	0.00015	3
11046	-0.00017	-0.00012	-4e-05	-1e-05	1e-05	4e-05	3e-05	-0.00012	3
11047	-0.00017	-0.00012	-4e-05	-1e-05	1e-05	4e-05	3e-05	-0.00012	3
11048	-0.00017	-0.00012	-4e-05	-1e-05	1e-05	4e-05	3e-05	-0.00012	3
11049	-0.00017	-0.00012	-4e-05	-1e-05	1e-05	4e-05	3e-05	-0.00012	3
11050	-0.00017	-0.00012	-4e-05	-1e-05	1e-05	4e-05	3e-05	-0.00012	3
11051	-0.00017	-0.00012	-4e-05	-1e-05	1e-05	4e-05	3e-05	-0.00012	3
11052	-0.00017	-0.00012	-4e-05	-1e-05	1e-05	4e-05	3e-05	-0.00012	3
11053	-0.00017	-0.00012	-4e-05	-1e-05	1e-05	4e-05	3e-05	-0.00012	3
11054	-0.00017	-0.00012	-4e-05	-1e-05	1e-05	4e-05	3e-05	-0.00012	3
11055	-0.00017	-0.00012	-4e-05	-1e-05	1e-05	4e-05	3e-05	-0.00012	3
11058	-0.0002	-8e-05	-3e-05	-5e-05	-6e-05	-7e-05	-2e-05	-0.00017	3
11059	-0.0002	-8e-05	-3e-05	-5e-05	-6e-05	-7e-05	-2e-05	-0.00017	3
11060	-0.0002	-8e-05	-3e-05	-5e-05	-6e-05	-7e-05	-2e-05	-0.00017	3
11061	-0.0002	-8e-05	-3e-05	-5e-05	-6e-05	-7e-05	-2e-05	-0.00017	3
11062	-0.0002	-8e-05	-3e-05	-5e-05	-6e-05	-7e-05	-2e-05	-0.00017	3
11063	-0.0002	-8e-05	-3e-05	-5e-05	-6e-05	-7e-05	-2e-05	-0.00017	3
11064	-0.0002	-8e-05	-3e-05	-5e-05	-6e-05	-7e-05	-2e-05	-0.00017	3
11065	-0.0002	-8e-05	-3e-05	-5e-05	-6e-05	-7e-05	-2e-05	-0.00017	3
11066	-0.0002	-8e-05	-3e-05	-5e-05	-6e-05	-7e-05	-2e-05	-0.00017	3
11067	-0.0002	-8e-05	-3e-05	-5e-05	-6e-05	-7e-05	-2e-05	-0.00017	3
11068	-0.0002	-8e-05	-3e-05	-5e-05	-6e-05	-7e-05	-2e-05	-0.00017	3
11070	-0.0002	-8e-05	-3e-05	-5e-05	-6e-05	-7e-05	-2e-05	-0.00017	3
11071	-0.0002	-8e-05	-3e-05	-5e-05	-6e-05	-7e-05	-2e-05	-0.00017	3
11072	-0.0002	-8e-05	-3e-05	-5e-05	-6e-05	-7e-05	-2e-05	-0.00017	3
11073	-0.0002	-8e-05	-3e-05	-5e-05	-6e-05	-7e-05	-2e-05	-0.00017	3
11074	-0.0002	-8e-05	-3e-05	-5e-05	-6e-05	-7e-05	-2e-05	-0.00017	3
11075	-0.0002	-8e-05	-3e-05	-5e-05	-6e-05	-7e-05	-2e-05	-0.00017	3
11076	-0.0002	-8e-05	-3e-05	-5e-05	-6e-05	-7e-05	-2e-05	-0.00017	3
11077	-0.0002	-8e-05	-3e-05	-5e-05	-6e-05	-7e-05	-2e-05	-0.00017	3
11078	-0.0002	-8e-05	-3e-05	-5e-05	-6e-05	-7e-05	-2e-05	-0.00017	3
11079	-0.0002	-8e-05	-3e-05	-5e-05	-6e-05	-7e-05	-2e-05	-0.00017	3
11080	-0.0002	-8e-05	-3e-05	-5e-05	-6e-05	-7e-05	-2e-05	-0.00017	3
11081	-0.0002	-8e-05	-3e-05	-5e-05	-6e-05	-7e-05	-2e-05	-0.00017	3
11082	-0.0002	-8e-05	-3e-05	-5e-05	-6e-05	-7e-05	-2e-05	-0.00017	3
11083	-0.0002	-8e-05	-3e-05	-5e-05	-6e-05	-7e-05	-2e-05	-0.00017	3
11084	-0.0002	-8e-05	-3e-05	-5e-05	-6e-05	-7e-05	-2e-05	-0.00017	3
11085	-0.0002	-8e-05	-3e-05	-5e-05	-6e-05	-7e-05	-2e-05	-0.00017	3
11088	-0.0002	-8e-05	-3e-05	-5e-05	-6e-05	-7e-05	-2e-05	-0.00017	3
11092	-0.0002	-8e-05	-3e-05	-5e-05	-6e-05	-7e-05	-2e-05	-0.00017	3
11093	-0.0002	-8e-05	-3e-05	-5e-05	-6e-05	-7e-05	-2e-05	-0.00017	3
11094	-0.0002	-8e-05	-3e-05	-5e-05	-6e-05	-7e-05	-2e-05	-0.00017	3
11095	-0.0002	-8e-05	-3e-05	-5e-05	-6e-05	-7e-05	-2e-05	-0.00017	3
11096	-1e-05	-5e-05	-1e-05	-5e-05	-9e-05	-5e-05	-6e-05	-0.00011	3
11097	-1e-05	-5e-05	-1e-05	-5e-05	-9e-05	-5e-05	-6e-05	-0.00011	3
11098	-1e-05	-5e-05	-1e-05	-5e-05	-9e-05	-5e-05	-6e-05	-0.00011	3
11099	-1e-05	-5e-05	-1e-05	-5e-05	-9e-05	-5e-05	-6e-05	-0.00011	3
11100	-1e-05	-5e-05	-1e-05	-5e-05	-9e-05	-5e-05	-6e-05	-0.00011	3
11101	-1e-05	-5e-05	-1e-05	-5e-05	-9e-05	-5e-05	-6e-05	-0.00011	3
11102	-1e-05	-5e-05	-1e-05	-5e-05	-9e-05	-5e-05	-6e-05	-0.00011	3
11105	-1e-05	-5e-05	-1e-05	-5e-05	-9e-05	-5e-05	-6e-05	-0.00011	3
11106	-0.00034	-5e-05	2e-05	6e-05	0	-2e-05	3e-05	-3e-05	3
11107	-0.00034	-5e-05	2e-05	6e-05	0	-2e-05	3e-05	-3e-05	3
11108	-0.00034	-5e-05	2e-05	6e-05	0	-2e-05	3e-05	-3e-05	3
11109	-0.00034	-5e-05	2e-05	6e-05	0	-2e-05	3e-05	-3e-05	3
11110	-0.00034	-5e-05	2e-05	6e-05	0	-2e-05	3e-05	-3e-05	3
11111	-0.00034	-5e-05	2e-05	6e-05	0	-2e-05	3e-05	-3e-05	3
11112	-0.00034	-5e-05	2e-05	6e-05	0	-2e-05	3e-05	-3e-05	3
11113	-0.00034	-5e-05	2e-05	6e-05	0	-2e-05	3e-05	-3e-05	3
11114	-0.00034	-5e-05	2e-05	6e-05	0	-2e-05	3e-05	-3e-05	3
11115	-0.00034	-5e-05	2e-05	6e-05	0	-2e-05	3e-05	-3e-05	3
11116	-0.00034	-5e-05	2e-05	6e-05	0	-2e-05	3e-05	-3e-05	3
11117	0.00025	9e-05	2e-05	0	5e-05	0.00012	0.00016	7e-05	3
11118	0	-7e-05	0	3e-05	3e-05	9e-05	-0.00011	-0.00015	3
11120	0	-7e-05	0	3e-05	3e-05	9e-05	-0.00011	-0.00015	3
11121	0	-7e-05	0	3e-05	3e-05	9e-05	-0.00011	-0.00015	3
11122	0	-7e-05	0	3e-05	3e-05	9e-05	-0.00011	-0.00015	3
11123	0	-7e-05	0	3e-05	3e-05	9e-05	-0.00011	-0.00015	3
11124	0	-7e-05	0	3e-05	3e-05	9e-05	-0.00011	-0.00015	3
11125	0	-7e-05	0	3e-05	3e-05	9e-05	-0.00011	-0.00015	3
11126	0	-7e-05	0	3e-05	3e-05	9e-05	-0.00011	-0.00015	3
11127	0	-7e-05	0	3e-05	3e-05	9e-05	-0.00011	-0.00015	3
11128	0	-7e-05	0	3e-05	3e-05	9e-05	-0.00011	-0.00015	3
11129	0	-7e-05	0	3e-05	3e-05	9e-05	-0.00011	-0.00015	3
11130	0	-7e-05	0	3e-05	3e-05	9e-05	-0.00011	-0.00015	3
11131	0	-7e-05	0	3e-05	3e-05	9e-05	-0.00011	-0.00015	3
11132	0	-7e-05	0	3e-05	3e-05	9e-05	-0.00011	-0.00015	3
11133	0	-7e-05	0	3e-05	3e-05	9e-05	-0.00011	-0.00015	3
11134	0	-7e-05	0	3e-05	3e-05	9e-05	-0.00011	-0.00015	3
11135	0	-7e-05	0	3e-05	3e-05	9e-05	-0.00011	-0.00015	3
11138	0	-7e-05	0	3e-05	3e-05	9e-05	-0.00011	-0.00015	3
11142	0	-7e-05	0	3e-05	3e-05	9e-05	-0.00011	-0.00015	3
11143	0	-7e-05	0	3e-05	3e-05	9e-05	-0.00011	-0.00015	3
11144	0	-7e-05	0	3e-05	3e-05	9e-05	-0.00011	-0.00015	3
11145	0	-7e-05	0	3e-05	3e-05	9e-05	-0.00011	-0.00015	3
11146	0	-7e-05	0	3e-05	3e-05	9e-05	-0.00011	-0.00015	3
11147	0	-7e-05	0	3e-05	3e-05	9e-05	-0.00011	-0.00015	3
11148	0.0002	-3e-05	-2e-05	1e-05	8e-05	0.00011	0.00013	0.00014	3
11149	0.0002	-3e-05	-2e-05	1e-05	8e-05	0.00011	0.00013	0.00014	3
11150	0.0002	-3e-05	-2e-05	1e-05	8e-05	0.00011	0.00013	0.00014	3
11151	0.0002	-3e-05	-2e-05	1e-05	8e-05	0.00011	0.00013	0.00014	3
11152	0.0002	-3e-05	-2e-05	1e-05	8e-05	0.00011	0.00013	0.00014	3
11154	0.0002	-3e-05	-2e-05	1e-05	8e-05	0.00011	0.00013	0.00014	3
11155	0.0002	-3e-05	-2e-05	1e-05	8e-05	0.00011	0.00013	0.00014	3
11156	0.0002	-3e-05	-2e-05	1e-05	8e-05	0.00011	0.00013	0.00014	3
11157	0.0002	-3e-05	-2e-05	1e-05	8e-05	0.00011	0.00013	0.00014	3
11158	0.0002	-3e-05	-2e-05	1e-05	8e-05	0.00011	0.00013	0.00014	3
11159	0.0002	-3e-05	-2e-05	1e-05	8e-05	0.00011	0.00013	0.00014	3
11160	0.0002	-3e-05	-2e-05	1e-05	8e-05	0.00011	0.00013	0.00014	3
11161	0.0002	-3e-05	-2e-05	1e-05	8e-05	0.00011	0.00013	0.00014	3
11162	0.0002	-3e-05	-2e-05	1e-05	8e-05	0.00011	0.00013	0.00014	3
11163	-3e-05	-5e-05	-1e-05	3e-05	9e-05	0.00019	-6e-05	5e-05	3
11164	-2e-05	-1e-05	-2e-05	-1e-05	-8e-05	-9e-05	-9e-05	6e-05	3
11165	-2e-05	-1e-05	-2e-05	-1e-05	-8e-05	-9e-05	-9e-05	6e-05	3
11166	-2e-05	-1e-05	-2e-05	-1e-05	-8e-05	-9e-05	-9e-05	6e-05	3
11167	-2e-05	-1e-05	-2e-05	-1e-05	-8e-05	-9e-05	-9e-05	6e-05	3
11168	-2e-05	-1e-05	-2e-05	-1e-05	-8e-05	-9e-05	-9e-05	6e-05	3
11169	-2e-05	-1e-05	-2e-05	-1e-05	-8e-05	-9e-05	-9e-05	6e-05	3
11170	-2e-05	-1e-05	-2e-05	-1e-05	-8e-05	-9e-05	-9e-05	6e-05	3
11171	-2e-05	-1e-05	-2e-05	-1e-05	-8e-05	-9e-05	-9e-05	6e-05	3
11172	-2e-05	-1e-05	-2e-05	-1e-05	-8e-05	-9e-05	-9e-05	6e-05	3
11173	-2e-05	-1e-05	-2e-05	-1e-05	-8e-05	-9e-05	-9e-05	6e-05	3
11174	-2e-05	-1e-05	-2e-05	-1e-05	-8e-05	-9e-05	-9e-05	6e-05	3
11175	-2e-05	-1e-05	-2e-05	-1e-05	-8e-05	-9e-05	-9e-05	6e-05	3
11176	9e-05	-2e-05	-3e-05	0	6e-05	0.0001	2e-05	0.00025	3
11177	9e-05	-2e-05	-3e-05	0	6e-05	0.0001	2e-05	0.00025	3
11178	9e-05	-2e-05	-3e-05	0	6e-05	0.0001	2e-05	0.00025	3
11179	9e-05	-2e-05	-3e-05	0	6e-05	0.0001	2e-05	0.00025	3
11180	9e-05	-2e-05	-3e-05	0	6e-05	0.0001	2e-05	0.00025	3
11181	9e-05	-2e-05	-3e-05	0	6e-05	0.0001	2e-05	0.00025	3
11182	9e-05	-2e-05	-3e-05	0	6e-05	0.0001	2e-05	0.00025	3
11183	9e-05	-2e-05	-3e-05	0	6e-05	0.0001	2e-05	0.00025	3
11184	9e-05	-2e-05	-3e-05	0	6e-05	0.0001	2e-05	0.00025	3
11185	9e-05	-2e-05	-3e-05	0	6e-05	0.0001	2e-05	0.00025	3
11186	9e-05	-2e-05	-3e-05	0	6e-05	0.0001	2e-05	0.00025	3
11191	-7e-05	-6e-05	-5e-05	-2e-05	-7e-05	-7e-05	0	-0.00015	3
11192	-7e-05	-6e-05	-5e-05	-2e-05	-7e-05	-7e-05	0	-0.00015	3
11193	-7e-05	-6e-05	-5e-05	-2e-05	-7e-05	-7e-05	0	-0.00015	3
11194	-7e-05	-6e-05	-5e-05	-2e-05	-7e-05	-7e-05	0	-0.00015	3
11195	-7e-05	-6e-05	-5e-05	-2e-05	-7e-05	-7e-05	0	-0.00015	3
11196	-7e-05	-6e-05	-5e-05	-2e-05	-7e-05	-7e-05	0	-0.00015	3
11197	-7e-05	-6e-05	-5e-05	-2e-05	-7e-05	-7e-05	0	-0.00015	3
11198	-7e-05	-6e-05	-5e-05	-2e-05	-7e-05	-7e-05	0	-0.00015	3
11199	-7e-05	-6e-05	-5e-05	-2e-05	-7e-05	-7e-05	0	-0.00015	3
11200	-7e-05	-6e-05	-5e-05	-2e-05	-7e-05	-7e-05	0	-0.00015	3
11201	-7e-05	-6e-05	-5e-05	-2e-05	-7e-05	-7e-05	0	-0.00015	3
11202	-7e-05	-6e-05	-5e-05	-2e-05	-7e-05	-7e-05	0	-0.00015	3
11203	-7e-05	-6e-05	-5e-05	-2e-05	-7e-05	-7e-05	0	-0.00015	3
11204	-7e-05	-6e-05	-5e-05	-2e-05	-7e-05	-7e-05	0	-0.00015	3
11205	-7e-05	-6e-05	-5e-05	-2e-05	-7e-05	-7e-05	0	-0.00015	3
11206	-7e-05	-6e-05	-5e-05	-2e-05	-7e-05	-7e-05	0	-0.00015	3
11207	-7e-05	-6e-05	-5e-05	-2e-05	-7e-05	-7e-05	0	-0.00015	3
11208	-7e-05	-6e-05	-5e-05	-2e-05	-7e-05	-7e-05	0	-0.00015	3
11209	-3e-05	-1e-05	1e-05	-3e-05	3e-05	8e-05	8e-05	-6e-05	3
11210	-3e-05	-1e-05	1e-05	-3e-05	3e-05	8e-05	8e-05	-6e-05	3
11211	-3e-05	-1e-05	1e-05	-3e-05	3e-05	8e-05	8e-05	-6e-05	3
11212	-3e-05	-1e-05	1e-05	-3e-05	3e-05	8e-05	8e-05	-6e-05	3
11213	-3e-05	-1e-05	1e-05	-3e-05	3e-05	8e-05	8e-05	-6e-05	3
11214	-3e-05	-1e-05	1e-05	-3e-05	3e-05	8e-05	8e-05	-6e-05	3
11215	-3e-05	-1e-05	1e-05	-3e-05	3e-05	8e-05	8e-05	-6e-05	3
11216	-3e-05	-1e-05	1e-05	-3e-05	3e-05	8e-05	8e-05	-6e-05	3
11217	-3e-05	-1e-05	1e-05	-3e-05	3e-05	8e-05	8e-05	-6e-05	3
11218	-3e-05	-1e-05	1e-05	-3e-05	3e-05	8e-05	8e-05	-6e-05	3
11219	-3e-05	-1e-05	1e-05	-3e-05	3e-05	8e-05	8e-05	-6e-05	3
11220	-3e-05	-1e-05	1e-05	-3e-05	3e-05	8e-05	8e-05	-6e-05	3
11221	-3e-05	-1e-05	1e-05	-3e-05	3e-05	8e-05	8e-05	-6e-05	3
11222	-3e-05	-1e-05	1e-05	-3e-05	3e-05	8e-05	8e-05	-6e-05	3
11223	0.00024	0.0001	4e-05	-3e-05	1e-05	-2e-05	0.00011	7e-05	3
11224	0.00024	0.0001	4e-05	-3e-05	1e-05	-2e-05	0.00011	7e-05	3
11225	0.00012	8e-05	4e-05	1e-05	4e-05	0	-2e-05	0.00011	3
11226	0.00012	8e-05	4e-05	1e-05	4e-05	0	-2e-05	0.00011	3
11227	0.00012	8e-05	4e-05	1e-05	4e-05	0	-2e-05	0.00011	3
11228	0.00012	8e-05	4e-05	1e-05	4e-05	0	-2e-05	0.00011	3
11229	0.00012	8e-05	4e-05	1e-05	4e-05	0	-2e-05	0.00011	3
11230	0.00012	8e-05	4e-05	1e-05	4e-05	0	-2e-05	0.00011	3
11231	0.00012	8e-05	4e-05	1e-05	4e-05	0	-2e-05	0.00011	3
11232	0.00012	8e-05	4e-05	1e-05	4e-05	0	-2e-05	0.00011	3
11233	0.00012	8e-05	4e-05	1e-05	4e-05	0	-2e-05	0.00011	3
11234	0.00012	8e-05	4e-05	1e-05	4e-05	0	-2e-05	0.00011	3
11235	0.00012	8e-05	4e-05	1e-05	4e-05	0	-2e-05	0.00011	3
11237	0.00026	-8e-05	-4e-05	0	-3e-05	-3e-05	-5e-05	7e-05	3
11239	0.00026	-8e-05	-4e-05	0	-3e-05	-3e-05	-5e-05	7e-05	3
11240	0.00026	-8e-05	-4e-05	0	-3e-05	-3e-05	-5e-05	7e-05	3
11241	0.00026	-8e-05	-4e-05	0	-3e-05	-3e-05	-5e-05	7e-05	3
11242	0.00026	-8e-05	-4e-05	0	-3e-05	-3e-05	-5e-05	7e-05	3
11243	0.00026	-8e-05	-4e-05	0	-3e-05	-3e-05	-5e-05	7e-05	3
11244	-3e-05	-5e-05	2e-05	8e-05	5e-05	-2e-05	1e-05	8e-05	3
11245	-3e-05	-5e-05	2e-05	8e-05	5e-05	-2e-05	1e-05	8e-05	3
11246	-3e-05	-5e-05	2e-05	8e-05	5e-05	-2e-05	1e-05	8e-05	3
11247	-3e-05	-5e-05	2e-05	8e-05	5e-05	-2e-05	1e-05	8e-05	3
11248	-3e-05	-5e-05	2e-05	8e-05	5e-05	-2e-05	1e-05	8e-05	3
11249	-3e-05	-5e-05	2e-05	8e-05	5e-05	-2e-05	1e-05	8e-05	3
11250	-3e-05	-5e-05	2e-05	8e-05	5e-05	-2e-05	1e-05	8e-05	3
11251	-3e-05	-5e-05	2e-05	8e-05	5e-05	-2e-05	1e-05	8e-05	3
11252	-3e-05	-5e-05	2e-05	8e-05	5e-05	-2e-05	1e-05	8e-05	3
11253	-3e-05	-5e-05	2e-05	8e-05	5e-05	-2e-05	1e-05	8e-05	3
11254	-3e-05	-5e-05	2e-05	8e-05	5e-05	-2e-05	1e-05	8e-05	3
11255	-3e-05	-5e-05	2e-05	8e-05	5e-05	-2e-05	1e-05	8e-05	3
11256	-3e-05	-5e-05	2e-05	8e-05	5e-05	-2e-05	1e-05	8e-05	3
11257	-3e-05	-5e-05	2e-05	8e-05	5e-05	-2e-05	1e-05	8e-05	3
11258	-3e-05	-5e-05	2e-05	8e-05	5e-05	-2e-05	1e-05	8e-05	3
11259	-3e-05	-5e-05	2e-05	8e-05	5e-05	-2e-05	1e-05	8e-05	3
11260	-3e-05	-5e-05	2e-05	8e-05	5e-05	-2e-05	1e-05	8e-05	3
11261	-3e-05	-5e-05	2e-05	8e-05	5e-05	-2e-05	1e-05	8e-05	3
11262	-3e-05	-5e-05	2e-05	8e-05	5e-05	-2e-05	1e-05	8e-05	3
11263	-3e-05	-5e-05	2e-05	8e-05	5e-05	-2e-05	1e-05	8e-05	3
11264	-3e-05	-5e-05	2e-05	8e-05	5e-05	-2e-05	1e-05	8e-05	3
11265	-3e-05	-5e-05	2e-05	8e-05	5e-05	-2e-05	1e-05	8e-05	3
11266	-3e-05	-5e-05	2e-05	8e-05	5e-05	-2e-05	1e-05	8e-05	3
11267	-3e-05	-5e-05	2e-05	8e-05	5e-05	-2e-05	1e-05	8e-05	3
11268	-0.00021	-5e-05	0	-1e-05	-4e-05	-0.00016	-0.00013	-0.00017	3
11269	-0.00021	-5e-05	0	-1e-05	-4e-05	-0.00016	-0.00013	-0.00017	3
11271	-0.00021	-5e-05	0	-1e-05	-4e-05	-0.00016	-0.00013	-0.00017	3
11272	-0.00021	-5e-05	0	-1e-05	-4e-05	-0.00016	-0.00013	-0.00017	3
11273	-0.00021	-5e-05	0	-1e-05	-4e-05	-0.00016	-0.00013	-0.00017	3
11274	-0.00021	-5e-05	0	-1e-05	-4e-05	-0.00016	-0.00013	-0.00017	3
11275	-0.00021	-5e-05	0	-1e-05	-4e-05	-0.00016	-0.00013	-0.00017	3
11276	-0.00021	-5e-05	0	-1e-05	-4e-05	-0.00016	-0.00013	-0.00017	3
11277	-0.00021	-5e-05	0	-1e-05	-4e-05	-0.00016	-0.00013	-0.00017	3
11278	-0.00021	-5e-05	0	-1e-05	-4e-05	-0.00016	-0.00013	-0.00017	3
11279	-0.00021	-5e-05	0	-1e-05	-4e-05	-0.00016	-0.00013	-0.00017	3
11280	-0.00021	-5e-05	0	-1e-05	-4e-05	-0.00016	-0.00013	-0.00017	3
11281	-0.00021	-5e-05	0	-1e-05	-4e-05	-0.00016	-0.00013	-0.00017	3
11282	-0.00021	-5e-05	0	-1e-05	-4e-05	-0.00016	-0.00013	-0.00017	3
11283	0.00028	5e-05	-2e-05	-7e-05	-1e-05	4e-05	0.00023	0.00023	3
11284	0.00028	5e-05	-2e-05	-7e-05	-1e-05	4e-05	0.00023	0.00023	3
11285	0.00028	5e-05	-2e-05	-7e-05	-1e-05	4e-05	0.00023	0.00023	3
11288	0.00028	5e-05	-2e-05	-7e-05	-1e-05	4e-05	0.00023	0.00023	3
11293	0.00028	5e-05	-2e-05	-7e-05	-1e-05	4e-05	0.00023	0.00023	3
11294	0.00028	5e-05	-2e-05	-7e-05	-1e-05	4e-05	0.00023	0.00023	3
11295	0.00028	5e-05	-2e-05	-7e-05	-1e-05	4e-05	0.00023	0.00023	3
11296	0.00028	5e-05	-2e-05	-7e-05	-1e-05	4e-05	0.00023	0.00023	3
11297	-9e-05	-2e-05	1e-05	-1e-05	0	3e-05	4e-05	0	3
11298	-9e-05	-2e-05	1e-05	-1e-05	0	3e-05	4e-05	0	3
11299	-9e-05	-2e-05	1e-05	-1e-05	0	3e-05	4e-05	0	3
11300	-9e-05	-2e-05	1e-05	-1e-05	0	3e-05	4e-05	0	3
11301	-9e-05	-2e-05	1e-05	-1e-05	0	3e-05	4e-05	0	3
11302	-9e-05	-2e-05	1e-05	-1e-05	0	3e-05	4e-05	0	3
11303	-9e-05	-2e-05	1e-05	-1e-05	0	3e-05	4e-05	0	3
11304	-9e-05	-2e-05	1e-05	-1e-05	0	3e-05	4e-05	0	3
11305	-9e-05	-2e-05	1e-05	-1e-05	0	3e-05	4e-05	0	3
11306	-9e-05	-2e-05	1e-05	-1e-05	0	3e-05	4e-05	0	3
11307	-9e-05	-2e-05	1e-05	-1e-05	0	3e-05	4e-05	0	3
11308	-9e-05	-2e-05	1e-05	-1e-05	0	3e-05	4e-05	0	3
11309	-9e-05	-2e-05	1e-05	-1e-05	0	3e-05	4e-05	0	3
11310	-9e-05	-2e-05	1e-05	-1e-05	0	3e-05	4e-05	0	3
11311	-9e-05	-2e-05	1e-05	-1e-05	0	3e-05	4e-05	0	3
11312	-9e-05	-2e-05	1e-05	-1e-05	0	3e-05	4e-05	0	3
11313	0.00024	1e-05	-1e-05	1e-05	6e-05	6e-05	9e-05	0.00021	3
11314	0.00024	1e-05	-1e-05	1e-05	6e-05	6e-05	9e-05	0.00021	3
11315	0.00024	1e-05	-1e-05	1e-05	6e-05	6e-05	9e-05	0.00021	3
11316	0.00024	1e-05	-1e-05	1e-05	6e-05	6e-05	9e-05	0.00021	3
11317	0.00024	1e-05	-1e-05	1e-05	6e-05	6e-05	9e-05	0.00021	3
11318	0.00024	1e-05	-1e-05	1e-05	6e-05	6e-05	9e-05	0.00021	3
11319	0.00024	1e-05	-1e-05	1e-05	6e-05	6e-05	9e-05	0.00021	3
11321	0.00024	1e-05	-1e-05	1e-05	6e-05	6e-05	9e-05	0.00021	3
11322	4e-05	6e-05	-5e-05	-4e-05	-2e-05	-9e-05	-6e-05	-4e-05	3
11323	4e-05	6e-05	-5e-05	-4e-05	-2e-05	-9e-05	-6e-05	-4e-05	3
11324	4e-05	6e-05	-5e-05	-4e-05	-2e-05	-9e-05	-6e-05	-4e-05	3
11325	4e-05	6e-05	-5e-05	-4e-05	-2e-05	-9e-05	-6e-05	-4e-05	3
11326	4e-05	6e-05	-5e-05	-4e-05	-2e-05	-9e-05	-6e-05	-4e-05	3
11327	4e-05	6e-05	-5e-05	-4e-05	-2e-05	-9e-05	-6e-05	-4e-05	3
11328	4e-05	6e-05	-5e-05	-4e-05	-2e-05	-9e-05	-6e-05	-4e-05	3
11329	4e-05	6e-05	-5e-05	-4e-05	-2e-05	-9e-05	-6e-05	-4e-05	3
11330	4e-05	6e-05	-5e-05	-4e-05	-2e-05	-9e-05	-6e-05	-4e-05	3
11331	4e-05	6e-05	-5e-05	-4e-05	-2e-05	-9e-05	-6e-05	-4e-05	3
11332	4e-05	6e-05	-5e-05	-4e-05	-2e-05	-9e-05	-6e-05	-4e-05	3
11333	4e-05	6e-05	-5e-05	-4e-05	-2e-05	-9e-05	-6e-05	-4e-05	3
11334	4e-05	6e-05	-5e-05	-4e-05	-2e-05	-9e-05	-6e-05	-4e-05	3
11335	4e-05	6e-05	-5e-05	-4e-05	-2e-05	-9e-05	-6e-05	-4e-05	3
11337	4e-05	6e-05	-5e-05	-4e-05	-2e-05	-9e-05	-6e-05	-4e-05	3
11342	4e-05	6e-05	-5e-05	-4e-05	-2e-05	-9e-05	-6e-05	-4e-05	3
11343	4e-05	6e-05	-5e-05	-4e-05	-2e-05	-9e-05	-6e-05	-4e-05	3
11344	4e-05	6e-05	-5e-05	-4e-05	-2e-05	-9e-05	-6e-05	-4e-05	3
11345	-9e-05	1e-05	4e-05	1e-05	-2e-05	5e-05	3e-05	-2e-05	3
11346	-9e-05	1e-05	4e-05	1e-05	-2e-05	5e-05	3e-05	-2e-05	3
11347	-9e-05	1e-05	4e-05	1e-05	-2e-05	5e-05	3e-05	-2e-05	3
11348	-9e-05	1e-05	4e-05	1e-05	-2e-05	5e-05	3e-05	-2e-05	3
11349	-9e-05	1e-05	4e-05	1e-05	-2e-05	5e-05	3e-05	-2e-05	3
11350	-9e-05	1e-05	4e-05	1e-05	-2e-05	5e-05	3e-05	-2e-05	3
11351	-9e-05	1e-05	4e-05	1e-05	-2e-05	5e-05	3e-05	-2e-05	3
11352	-9e-05	1e-05	4e-05	1e-05	-2e-05	5e-05	3e-05	-2e-05	3
11353	-9e-05	1e-05	4e-05	1e-05	-2e-05	5e-05	3e-05	-2e-05	3
11355	-9e-05	1e-05	4e-05	1e-05	-2e-05	5e-05	3e-05	-2e-05	3
11356	-9e-05	1e-05	4e-05	1e-05	-2e-05	5e-05	3e-05	-2e-05	3
11357	-9e-05	1e-05	4e-05	1e-05	-2e-05	5e-05	3e-05	-2e-05	3
11358	-9e-05	1e-05	4e-05	1e-05	-2e-05	5e-05	3e-05	-2e-05	3
11359	-9e-05	1e-05	4e-05	1e-05	-2e-05	5e-05	3e-05	-2e-05	3
11360	-9e-05	1e-05	4e-05	1e-05	-2e-05	5e-05	3e-05	-2e-05	3
11361	-9e-05	1e-05	4e-05	1e-05	-2e-05	5e-05	3e-05	-2e-05	3
11362	-9e-05	1e-05	4e-05	1e-05	-2e-05	5e-05	3e-05	-2e-05	3
11363	-9e-05	1e-05	4e-05	1e-05	-2e-05	5e-05	3e-05	-2e-05	3
11364	-9e-05	1e-05	4e-05	1e-05	-2e-05	5e-05	3e-05	-2e-05	3
11365	-9e-05	1e-05	4e-05	1e-05	-2e-05	5e-05	3e-05	-2e-05	3
11366	-9e-05	1e-05	4e-05	1e-05	-2e-05	5e-05	3e-05	-2e-05	3
11367	-9e-05	1e-05	4e-05	1e-05	-2e-05	5e-05	3e-05	-2e-05	3
11368	-9e-05	1e-05	4e-05	1e-05	-2e-05	5e-05	3e-05	-2e-05	3
11369	-9e-05	1e-05	4e-05	1e-05	-2e-05	5e-05	3e-05	-2e-05	3
11371	-9e-05	1e-05	4e-05	1e-05	-2e-05	5e-05	3e-05	-2e-05	3
11372	-9e-05	1e-05	4e-05	1e-05	-2e-05	5e-05	3e-05	-2e-05	3
11373	-9e-05	1e-05	4e-05	1e-05	-2e-05	5e-05	3e-05	-2e-05	3
11374	-0.00014	-6e-05	-5e-05	-1e-05	-2e-05	-0.00013	-0.00019	0.00021	3
11375	-0.00013	2e-05	4e-05	3e-05	6e-05	7e-05	-3e-05	3e-05	3
11376	-0.00013	2e-05	4e-05	3e-05	6e-05	7e-05	-3e-05	3e-05	3
11377	-0.00013	2e-05	4e-05	3e-05	6e-05	7e-05	-3e-05	3e-05	3
11378	-0.00013	2e-05	4e-05	3e-05	6e-05	7e-05	-3e-05	3e-05	3
11379	0	-6e-05	0	7e-05	-7e-05	-9e-05	2e-05	-2e-05	3
11380	0.00023	4e-05	-1e-05	-3e-05	-4e-05	-0.0001	-0.00012	0.00016	3
11381	0.00023	4e-05	-1e-05	-3e-05	-4e-05	-0.0001	-0.00012	0.00016	3
11382	0.00023	4e-05	-1e-05	-3e-05	-4e-05	-0.0001	-0.00012	0.00016	3
11383	0.00023	4e-05	-1e-05	-3e-05	-4e-05	-0.0001	-0.00012	0.00016	3
11384	0.00023	4e-05	-1e-05	-3e-05	-4e-05	-0.0001	-0.00012	0.00016	3
11385	0.00023	4e-05	-1e-05	-3e-05	-4e-05	-0.0001	-0.00012	0.00016	3
11386	0.00023	4e-05	-1e-05	-3e-05	-4e-05	-0.0001	-0.00012	0.00016	3
11391	0.00023	4e-05	-1e-05	-3e-05	-4e-05	-0.0001	-0.00012	0.00016	3
11393	0.00023	4e-05	-1e-05	-3e-05	-4e-05	-0.0001	-0.00012	0.00016	3
11394	0.00023	4e-05	-1e-05	-3e-05	-4e-05	-0.0001	-0.00012	0.00016	3
11395	0.00023	4e-05	-1e-05	-3e-05	-4e-05	-0.0001	-0.00012	0.00016	3
11396	0.00023	4e-05	-1e-05	-3e-05	-4e-05	-0.0001	-0.00012	0.00016	3
11397	0.00023	4e-05	-1e-05	-3e-05	-4e-05	-0.0001	-0.00012	0.00016	3
11398	0.00023	4e-05	-1e-05	-3e-05	-4e-05	-0.0001	-0.00012	0.00016	3
11399	0.00023	4e-05	-1e-05	-3e-05	-4e-05	-0.0001	-0.00012	0.00016	3
11400	0.00023	4e-05	-1e-05	-3e-05	-4e-05	-0.0001	-0.00012	0.00016	3
11401	0.00023	4e-05	-1e-05	-3e-05	-4e-05	-0.0001	-0.00012	0.00016	3
11402	0.00023	4e-05	-1e-05	-3e-05	-4e-05	-0.0001	-0.00012	0.00016	3
11403	0.00023	4e-05	-1e-05	-3e-05	-4e-05	-0.0001	-0.00012	0.00016	3
11405	-0.00028	-0.00011	-3e-05	3e-05	-2e-05	4e-05	3e-05	-0.00014	3
11406	-0.00028	-0.00011	-3e-05	3e-05	-2e-05	4e-05	3e-05	-0.00014	3
11407	-0.00028	-0.00011	-3e-05	3e-05	-2e-05	4e-05	3e-05	-0.00014	3
11408	-0.00028	-0.00011	-3e-05	3e-05	-2e-05	4e-05	3e-05	-0.00014	3
11409	-0.00028	-0.00011	-3e-05	3e-05	-2e-05	4e-05	3e-05	-0.00014	3
11410	-0.00028	-0.00011	-3e-05	3e-05	-2e-05	4e-05	3e-05	-0.00014	3
11411	-0.00028	-0.00011	-3e-05	3e-05	-2e-05	4e-05	3e-05	-0.00014	3
11412	-0.00028	-0.00011	-3e-05	3e-05	-2e-05	4e-05	3e-05	-0.00014	3
11413	-0.00028	-0.00011	-3e-05	3e-05	-2e-05	4e-05	3e-05	-0.00014	3
11414	-0.00028	-0.00011	-3e-05	3e-05	-2e-05	4e-05	3e-05	-0.00014	3
11415	-0.00028	-0.00011	-3e-05	3e-05	-2e-05	4e-05	3e-05	-0.00014	3
11416	-0.00028	-0.00011	-3e-05	3e-05	-2e-05	4e-05	3e-05	-0.00014	3
11417	-0.00028	-0.00011	-3e-05	3e-05	-2e-05	4e-05	3e-05	-0.00014	3
11419	-0.00028	-0.00011	-3e-05	3e-05	-2e-05	4e-05	3e-05	-0.00014	3
11420	-0.00028	-0.00011	-3e-05	3e-05	-2e-05	4e-05	3e-05	-0.00014	3
11421	-0.00028	-0.00011	-3e-05	3e-05	-2e-05	4e-05	3e-05	-0.00014	3
11422	-0.00028	-0.00011	-3e-05	3e-05	-2e-05	4e-05	3e-05	-0.00014	3
11423	-0.00028	-0.00011	-3e-05	3e-05	-2e-05	4e-05	3e-05	-0.00014	3
11424	-0.00028	-0.00011	-3e-05	3e-05	-2e-05	4e-05	3e-05	-0.00014	3
11425	-0.00031	-0.00012	-2e-05	-1e-05	-2e-05	1e-05	0.00013	-0.00024	3
11426	-0.00031	-0.00012	-2e-05	-1e-05	-2e-05	1e-05	0.00013	-0.00024	3
11427	-0.00031	-0.00012	-2e-05	-1e-05	-2e-05	1e-05	0.00013	-0.00024	3
11428	-0.00031	-0.00012	-2e-05	-1e-05	-2e-05	1e-05	0.00013	-0.00024	3
11429	-0.00031	-0.00012	-2e-05	-1e-05	-2e-05	1e-05	0.00013	-0.00024	3
11430	-0.00031	-0.00012	-2e-05	-1e-05	-2e-05	1e-05	0.00013	-0.00024	3
11431	-0.00031	-0.00012	-2e-05	-1e-05	-2e-05	1e-05	0.00013	-0.00024	3
11432	2e-05	-2e-05	-6e-05	-5e-05	-9e-05	-0.0001	8e-05	-1e-05	3
11433	2e-05	-2e-05	-6e-05	-5e-05	-9e-05	-0.0001	8e-05	-1e-05	3
11434	2e-05	-2e-05	-6e-05	-5e-05	-9e-05	-0.0001	8e-05	-1e-05	3
11435	2e-05	-2e-05	-6e-05	-5e-05	-9e-05	-0.0001	8e-05	-1e-05	3
11436	2e-05	-2e-05	-6e-05	-5e-05	-9e-05	-0.0001	8e-05	-1e-05	3
11440	-0.00031	-4e-05	0	0	7e-05	0.0001	7e-05	-5e-05	3
11441	-0.00014	-3e-05	-2e-05	-2e-05	8e-05	-2e-05	-8e-05	8e-05	3
11442	-0.00014	-3e-05	-2e-05	-2e-05	8e-05	-2e-05	-8e-05	8e-05	3
11443	-0.00014	-3e-05	-2e-05	-2e-05	8e-05	-2e-05	-8e-05	8e-05	3
11444	-0.00014	-3e-05	-2e-05	-2e-05	8e-05	-2e-05	-8e-05	8e-05	3
11445	-0.00014	-3e-05	-2e-05	-2e-05	8e-05	-2e-05	-8e-05	8e-05	3
11446	-0.00014	-3e-05	-2e-05	-2e-05	8e-05	-2e-05	-8e-05	8e-05	3
11448	-0.00014	-3e-05	-2e-05	-2e-05	8e-05	-2e-05	-8e-05	8e-05	3
11449	-0.00014	-3e-05	-2e-05	-2e-05	8e-05	-2e-05	-8e-05	8e-05	3
11450	-0.00014	-3e-05	-2e-05	-2e-05	8e-05	-2e-05	-8e-05	8e-05	3
11451	-0.00014	-3e-05	-2e-05	-2e-05	8e-05	-2e-05	-8e-05	8e-05	3
11452	-0.00014	-3e-05	-2e-05	-2e-05	8e-05	-2e-05	-8e-05	8e-05	3
11453	-0.00014	-3e-05	-2e-05	-2e-05	8e-05	-2e-05	-8e-05	8e-05	3
11455	-0.00014	-3e-05	-2e-05	-2e-05	8e-05	-2e-05	-8e-05	8e-05	3
11456	-0.00014	-3e-05	-2e-05	-2e-05	8e-05	-2e-05	-8e-05	8e-05	3
11457	-0.00014	-3e-05	-2e-05	-2e-05	8e-05	-2e-05	-8e-05	8e-05	3
11458	-0.00014	-3e-05	-2e-05	-2e-05	8e-05	-2e-05	-8e-05	8e-05	3
11459	-0.00014	-3e-05	-2e-05	-2e-05	8e-05	-2e-05	-8e-05	8e-05	3
11460	-0.00014	-3e-05	-2e-05	-2e-05	8e-05	-2e-05	-8e-05	8e-05	3
11461	-0.00014	-3e-05	-2e-05	-2e-05	8e-05	-2e-05	-8e-05	8e-05	3
11462	-0.00014	-3e-05	-2e-05	-2e-05	8e-05	-2e-05	-8e-05	8e-05	3
11463	0.00032	9e-05	-2e-05	-1e-05	-2e-05	-1e-05	0.00016	0	3
11464	0.00032	9e-05	-2e-05	-1e-05	-2e-05	-1e-05	0.00016	0	3
11465	0.00032	9e-05	-2e-05	-1e-05	-2e-05	-1e-05	0.00016	0	3
11466	0.00032	9e-05	-2e-05	-1e-05	-2e-05	-1e-05	0.00016	0	3
11467	0.00032	9e-05	-2e-05	-1e-05	-2e-05	-1e-05	0.00016	0	3
11468	0.00032	9e-05	-2e-05	-1e-05	-2e-05	-1e-05	0.00016	0	3
11469	0.00032	9e-05	-2e-05	-1e-05	-2e-05	-1e-05	0.00016	0	3
11471	0.00032	9e-05	-2e-05	-1e-05	-2e-05	-1e-05	0.00016	0	3
11472	0.00032	9e-05	-2e-05	-1e-05	-2e-05	-1e-05	0.00016	0	3
11473	0.00032	9e-05	-2e-05	-1e-05	-2e-05	-1e-05	0.00016	0	3
11474	0.00032	9e-05	-2e-05	-1e-05	-2e-05	-1e-05	0.00016	0	3
11475	0.00032	9e-05	-2e-05	-1e-05	-2e-05	-1e-05	0.00016	0	3
11476	0.00032	9e-05	-2e-05	-1e-05	-2e-05	-1e-05	0.00016	0	3
11478	0.00032	9e-05	-2e-05	-1e-05	-2e-05	-1e-05	0.00016	0	3
11479	0.00032	9e-05	-2e-05	-1e-05	-2e-05	-1e-05	0.00016	0	3
11480	0.00032	9e-05	-2e-05	-1e-05	-2e-05	-1e-05	0.00016	0	3
11481	0.00032	9e-05	-2e-05	-1e-05	-2e-05	-1e-05	0.00016	0	3
11482	0.00032	9e-05	-2e-05	-1e-05	-2e-05	-1e-05	0.00016	0	3
11483	0.00032	9e-05	-2e-05	-1e-05	-2e-05	-1e-05	0.00016	0	3
11484	0.00032	9e-05	-2e-05	-1e-05	-2e-05	-1e-05	0.00016	0	3
11485	0.00018	0.00015	9e-05	0.0001	0.00012	0.00021	4e-05	0.00014	3
11486	0.00018	0.00015	9e-05	0.0001	0.00012	0.00021	4e-05	0.00014	3
11492	0.00018	0.00015	9e-05	0.0001	0.00012	0.00021	4e-05	0.00014	3
11493	0.00019	7e-05	6e-05	0	0	-6e-05	-0.00011	0.00013	3
11494	0.00019	7e-05	6e-05	0	0	-6e-05	-0.00011	0.00013	3
11495	0.00019	7e-05	6e-05	0	0	-6e-05	-0.00011	0.00013	3
11496	0.00019	7e-05	6e-05	0	0	-6e-05	-0.00011	0.00013	3
11497	0.00019	7e-05	6e-05	0	0	-6e-05	-0.00011	0.00013	3
11498	0.00019	7e-05	6e-05	0	0	-6e-05	-0.00011	0.00013	3
11499	-0.00043	-0.00024	-0.0001	-6e-05	-8e-05	2e-05	3e-05	-6e-05	3
11500	-0.00045	-0.00013	-9e-05	-8e-05	-7e-05	1e-05	4e-05	7e-05	3
11501	-0.00045	-0.00013	-9e-05	-8e-05	-7e-05	1e-05	4e-05	7e-05	3
11502	-0.00045	-0.00013	-9e-05	-8e-05	-7e-05	1e-05	4e-05	7e-05	3
11503	-0.00045	-0.00013	-9e-05	-8e-05	-7e-05	1e-05	4e-05	7e-05	3
11504	-0.00045	-0.00013	-9e-05	-8e-05	-7e-05	1e-05	4e-05	7e-05	3
11505	-0.00045	-0.00013	-9e-05	-8e-05	-7e-05	1e-05	4e-05	7e-05	3
11506	-0.00045	-0.00013	-9e-05	-8e-05	-7e-05	1e-05	4e-05	7e-05	3
11507	-0.00045	-0.00013	-9e-05	-8e-05	-7e-05	1e-05	4e-05	7e-05	3
11508	-0.00045	-0.00013	-9e-05	-8e-05	-7e-05	1e-05	4e-05	7e-05	3
11509	-0.00045	-0.00013	-9e-05	-8e-05	-7e-05	1e-05	4e-05	7e-05	3
11510	-0.00045	-0.00013	-9e-05	-8e-05	-7e-05	1e-05	4e-05	7e-05	3
11511	-0.00045	-0.00013	-9e-05	-8e-05	-7e-05	1e-05	4e-05	7e-05	3
11512	-0.00045	-0.00013	-9e-05	-8e-05	-7e-05	1e-05	4e-05	7e-05	3
11513	-0.00045	-0.00013	-9e-05	-8e-05	-7e-05	1e-05	4e-05	7e-05	3
11514	-0.00045	-0.00013	-9e-05	-8e-05	-7e-05	1e-05	4e-05	7e-05	3
11515	-0.00045	-0.00013	-9e-05	-8e-05	-7e-05	1e-05	4e-05	7e-05	3
11516	-0.00045	-0.00013	-9e-05	-8e-05	-7e-05	1e-05	4e-05	7e-05	3
11517	-0.00045	-0.00013	-9e-05	-8e-05	-7e-05	1e-05	4e-05	7e-05	3
11518	-0.00045	-0.00013	-9e-05	-8e-05	-7e-05	1e-05	4e-05	7e-05	3
11519	-0.00045	-0.00013	-9e-05	-8e-05	-7e-05	1e-05	4e-05	7e-05	3
11520	-0.00045	-0.00013	-9e-05	-8e-05	-7e-05	1e-05	4e-05	7e-05	3
11521	-0.00045	-0.00013	-9e-05	-8e-05	-7e-05	1e-05	4e-05	7e-05	3
11522	-0.00045	-0.00013	-9e-05	-8e-05	-7e-05	1e-05	4e-05	7e-05	3
11523	0.00018	-2e-05	-3e-05	-1e-05	1e-05	-0.00019	-0.00027	-7e-05	3
11524	0.00018	-2e-05	-3e-05	-1e-05	1e-05	-0.00019	-0.00027	-7e-05	3
11526	-9e-05	-0.00017	-5e-05	-4e-05	-2e-05	0	-3e-05	1e-05	3
11527	-9e-05	-0.00017	-5e-05	-4e-05	-2e-05	0	-3e-05	1e-05	3
11529	-9e-05	-0.00017	-5e-05	-4e-05	-2e-05	0	-3e-05	1e-05	3
11530	-9e-05	-0.00017	-5e-05	-4e-05	-2e-05	0	-3e-05	1e-05	3
11531	-9e-05	-0.00017	-5e-05	-4e-05	-2e-05	0	-3e-05	1e-05	3
11532	-9e-05	-0.00017	-5e-05	-4e-05	-2e-05	0	-3e-05	1e-05	3
11533	-9e-05	-0.00017	-5e-05	-4e-05	-2e-05	0	-3e-05	1e-05	3
11534	-9e-05	-0.00017	-5e-05	-4e-05	-2e-05	0	-3e-05	1e-05	3
11535	-9e-05	-0.00017	-5e-05	-4e-05	-2e-05	0	-3e-05	1e-05	3
11536	-9e-05	-0.00017	-5e-05	-4e-05	-2e-05	0	-3e-05	1e-05	3
11540	-9e-05	-0.00017	-5e-05	-4e-05	-2e-05	0	-3e-05	1e-05	3
11542	-9e-05	-0.00017	-5e-05	-4e-05	-2e-05	0	-3e-05	1e-05	3
11543	-9e-05	-0.00017	-5e-05	-4e-05	-2e-05	0	-3e-05	1e-05	3
11544	-9e-05	-0.00017	-5e-05	-4e-05	-2e-05	0	-3e-05	1e-05	3
11545	-9e-05	-0.00017	-5e-05	-4e-05	-2e-05	0	-3e-05	1e-05	3
11546	-9e-05	-0.00017	-5e-05	-4e-05	-2e-05	0	-3e-05	1e-05	3
11547	-9e-05	-0.00017	-5e-05	-4e-05	-2e-05	0	-3e-05	1e-05	3
11548	-9e-05	-0.00017	-5e-05	-4e-05	-2e-05	0	-3e-05	1e-05	3
11549	-9e-05	-0.00017	-5e-05	-4e-05	-2e-05	0	-3e-05	1e-05	3
11550	-9e-05	-0.00017	-5e-05	-4e-05	-2e-05	0	-3e-05	1e-05	3
11551	-9e-05	-0.00017	-5e-05	-4e-05	-2e-05	0	-3e-05	1e-05	3
11552	-0.0001	-3e-05	-5e-05	-6e-05	-3e-05	-0.00014	2e-05	-0.00018	3
11553	0.00016	8e-05	0	0	-0.00011	-0.00027	-0.00017	-0.00017	3
11555	0.00016	8e-05	0	0	-0.00011	-0.00027	-0.00017	-0.00017	3
11556	0.00016	8e-05	0	0	-0.00011	-0.00027	-0.00017	-0.00017	3
11557	0.00016	8e-05	0	0	-0.00011	-0.00027	-0.00017	-0.00017	3
11558	0.00016	8e-05	0	0	-0.00011	-0.00027	-0.00017	-0.00017	3
11559	0.00016	8e-05	0	0	-0.00011	-0.00027	-0.00017	-0.00017	3
11560	0.00016	8e-05	0	0	-0.00011	-0.00027	-0.00017	-0.00017	3
11561	0.00016	8e-05	0	0	-0.00011	-0.00027	-0.00017	-0.00017	3
11562	1e-05	0	-5e-05	-8e-05	-0.00012	-0.00014	0.00013	0.00011	3
11563	-8e-05	3e-05	-1e-05	-6e-05	-4e-05	0.00031	1e-05	-7e-05	3
11564	-8e-05	3e-05	-1e-05	-6e-05	-4e-05	0.00031	1e-05	-7e-05	3
11565	-8e-05	3e-05	-1e-05	-6e-05	-4e-05	0.00031	1e-05	-7e-05	3
11566	-8e-05	3e-05	-1e-05	-6e-05	-4e-05	0.00031	1e-05	-7e-05	3
11567	-8e-05	3e-05	-1e-05	-6e-05	-4e-05	0.00031	1e-05	-7e-05	3
11568	-8e-05	3e-05	-1e-05	-6e-05	-4e-05	0.00031	1e-05	-7e-05	3
11569	-8e-05	3e-05	-1e-05	-6e-05	-4e-05	0.00031	1e-05	-7e-05	3
11570	-8e-05	3e-05	-1e-05	-6e-05	-4e-05	0.00031	1e-05	-7e-05	3
11573	-8e-05	3e-05	-1e-05	-6e-05	-4e-05	0.00031	1e-05	-7e-05	3
11574	-8e-05	3e-05	-1e-05	-6e-05	-4e-05	0.00031	1e-05	-7e-05	3
11575	-8e-05	3e-05	-1e-05	-6e-05	-4e-05	0.00031	1e-05	-7e-05	3
11576	-8e-05	3e-05	-1e-05	-6e-05	-4e-05	0.00031	1e-05	-7e-05	3
11577	-8e-05	3e-05	-1e-05	-6e-05	-4e-05	0.00031	1e-05	-7e-05	3
11578	-8e-05	3e-05	-1e-05	-6e-05	-4e-05	0.00031	1e-05	-7e-05	3
11579	-8e-05	3e-05	-1e-05	-6e-05	-4e-05	0.00031	1e-05	-7e-05	3
11580	-8e-05	3e-05	-1e-05	-6e-05	-4e-05	0.00031	1e-05	-7e-05	3
11581	-8e-05	3e-05	-1e-05	-6e-05	-4e-05	0.00031	1e-05	-7e-05	3
11582	-8e-05	3e-05	-1e-05	-6e-05	-4e-05	0.00031	1e-05	-7e-05	3
11583	-8e-05	3e-05	-1e-05	-6e-05	-4e-05	0.00031	1e-05	-7e-05	3
11584	-8e-05	3e-05	-1e-05	-6e-05	-4e-05	0.00031	1e-05	-7e-05	3
11585	-8e-05	3e-05	-1e-05	-6e-05	-4e-05	0.00031	1e-05	-7e-05	3
11586	-8e-05	3e-05	-1e-05	-6e-05	-4e-05	0.00031	1e-05	-7e-05	3
11590	-8e-05	3e-05	-1e-05	-6e-05	-4e-05	0.00031	1e-05	-7e-05	3
11592	-8e-05	3e-05	-1e-05	-6e-05	-4e-05	0.00031	1e-05	-7e-05	3
11593	-8e-05	3e-05	-1e-05	-6e-05	-4e-05	0.00031	1e-05	-7e-05	3
11594	-8e-05	3e-05	-1e-05	-6e-05	-4e-05	0.00031	1e-05	-7e-05	3
11595	-8e-05	3e-05	-1e-05	-6e-05	-4e-05	0.00031	1e-05	-7e-05	3
11596	-8e-05	3e-05	-1e-05	-6e-05	-4e-05	0.00031	1e-05	-7e-05	3
11597	-8e-05	3e-05	-1e-05	-6e-05	-4e-05	0.00031	1e-05	-7e-05	3
11598	-7e-05	-1e-05	-2e-05	0	0	-6e-05	-1e-05	-3e-05	3
11599	-7e-05	-1e-05	-2e-05	0	0	-6e-05	-1e-05	-3e-05	3
11600	-7e-05	-1e-05	-2e-05	0	0	-6e-05	-1e-05	-3e-05	3
11601	-7e-05	-1e-05	-2e-05	0	0	-6e-05	-1e-05	-3e-05	3
11602	-7e-05	-1e-05	-2e-05	0	0	-6e-05	-1e-05	-3e-05	3
11603	-7e-05	-1e-05	-2e-05	0	0	-6e-05	-1e-05	-3e-05	3
11605	-7e-05	-1e-05	-2e-05	0	0	-6e-05	-1e-05	-3e-05	3
11606	-0.00015	-0.0001	-5e-05	-1e-05	-4e-05	-1e-05	-0.0001	-0.00017	3
11607	-0.00015	-0.0001	-5e-05	-1e-05	-4e-05	-1e-05	-0.0001	-0.00017	3
11608	-0.00015	-0.0001	-5e-05	-1e-05	-4e-05	-1e-05	-0.0001	-0.00017	3
11609	-0.00015	-0.0001	-5e-05	-1e-05	-4e-05	-1e-05	-0.0001	-0.00017	3
11610	-0.00015	-0.0001	-5e-05	-1e-05	-4e-05	-1e-05	-0.0001	-0.00017	3
11611	-0.00015	-0.0001	-5e-05	-1e-05	-4e-05	-1e-05	-0.0001	-0.00017	3
11612	-0.00015	-0.0001	-5e-05	-1e-05	-4e-05	-1e-05	-0.0001	-0.00017	3
11613	-0.00015	-0.0001	-5e-05	-1e-05	-4e-05	-1e-05	-0.0001	-0.00017	3
11614	-0.00015	-0.0001	-5e-05	-1e-05	-4e-05	-1e-05	-0.0001	-0.00017	3
11615	-0.00015	-0.0001	-5e-05	-1e-05	-4e-05	-1e-05	-0.0001	-0.00017	3
11616	-0.00015	-0.0001	-5e-05	-1e-05	-4e-05	-1e-05	-0.0001	-0.00017	3
11617	-0.00015	-0.0001	-5e-05	-1e-05	-4e-05	-1e-05	-0.0001	-0.00017	3
11618	-0.00015	-0.0001	-5e-05	-1e-05	-4e-05	-1e-05	-0.0001	-0.00017	3
11619	-0.00015	-0.0001	-5e-05	-1e-05	-4e-05	-1e-05	-0.0001	-0.00017	3
11620	-0.00019	4e-05	1e-05	2e-05	-2e-05	1e-05	-0.00017	-1e-05	3
11622	-0.00019	4e-05	1e-05	2e-05	-2e-05	1e-05	-0.00017	-1e-05	3
11623	8e-05	3e-05	2e-05	2e-05	3e-05	3e-05	-1e-05	0.00013	3
11624	8e-05	3e-05	2e-05	2e-05	3e-05	3e-05	-1e-05	0.00013	3
11625	8e-05	3e-05	2e-05	2e-05	3e-05	3e-05	-1e-05	0.00013	3
11626	8e-05	3e-05	2e-05	2e-05	3e-05	3e-05	-1e-05	0.00013	3
11627	8e-05	3e-05	2e-05	2e-05	3e-05	3e-05	-1e-05	0.00013	3
11628	8e-05	3e-05	2e-05	2e-05	3e-05	3e-05	-1e-05	0.00013	3
11629	8e-05	3e-05	2e-05	2e-05	3e-05	3e-05	-1e-05	0.00013	3
11630	8e-05	3e-05	2e-05	2e-05	3e-05	3e-05	-1e-05	0.00013	3
11631	8e-05	3e-05	2e-05	2e-05	3e-05	3e-05	-1e-05	0.00013	3
11632	8e-05	3e-05	2e-05	2e-05	3e-05	3e-05	-1e-05	0.00013	3
11633	8e-05	3e-05	2e-05	2e-05	3e-05	3e-05	-1e-05	0.00013	3
11634	8e-05	3e-05	2e-05	2e-05	3e-05	3e-05	-1e-05	0.00013	3
11635	8e-05	3e-05	2e-05	2e-05	3e-05	3e-05	-1e-05	0.00013	3
11636	8e-05	3e-05	2e-05	2e-05	3e-05	3e-05	-1e-05	0.00013	3
11640	8e-05	3e-05	2e-05	2e-05	3e-05	3e-05	-1e-05	0.00013	3
11642	8e-05	3e-05	2e-05	2e-05	3e-05	3e-05	-1e-05	0.00013	3
11643	8e-05	3e-05	2e-05	2e-05	3e-05	3e-05	-1e-05	0.00013	3
11644	8e-05	3e-05	2e-05	2e-05	3e-05	3e-05	-1e-05	0.00013	3
11645	8e-05	3e-05	2e-05	2e-05	3e-05	3e-05	-1e-05	0.00013	3
11646	8e-05	3e-05	2e-05	2e-05	3e-05	3e-05	-1e-05	0.00013	3
11647	8e-05	3e-05	2e-05	2e-05	3e-05	3e-05	-1e-05	0.00013	3
11648	8e-05	3e-05	2e-05	2e-05	3e-05	3e-05	-1e-05	0.00013	3
11649	8e-05	3e-05	2e-05	2e-05	3e-05	3e-05	-1e-05	0.00013	3
11650	-0.00015	-4e-05	0	1e-05	2e-05	7e-05	5e-05	2e-05	3
11651	5e-05	-5e-05	0	6e-05	5e-05	0	-9e-05	-8e-05	3
11652	5e-05	-5e-05	0	6e-05	5e-05	0	-9e-05	-8e-05	3
11653	5e-05	-5e-05	0	6e-05	5e-05	0	-9e-05	-8e-05	3
11654	5e-05	-5e-05	0	6e-05	5e-05	0	-9e-05	-8e-05	3
11656	5e-05	-5e-05	0	6e-05	5e-05	0	-9e-05	-8e-05	3
11657	5e-05	-5e-05	0	6e-05	5e-05	0	-9e-05	-8e-05	3
11658	5e-05	-5e-05	0	6e-05	5e-05	0	-9e-05	-8e-05	3
11659	5e-05	-5e-05	0	6e-05	5e-05	0	-9e-05	-8e-05	3
11660	5e-05	-5e-05	0	6e-05	5e-05	0	-9e-05	-8e-05	3
11661	5e-05	-5e-05	0	6e-05	5e-05	0	-9e-05	-8e-05	3
11662	5e-05	-5e-05	0	6e-05	5e-05	0	-9e-05	-8e-05	3
11663	5e-05	-5e-05	0	6e-05	5e-05	0	-9e-05	-8e-05	3
11664	5e-05	-5e-05	0	6e-05	5e-05	0	-9e-05	-8e-05	3
11665	-9e-05	-5e-05	2e-05	-4e-05	-2e-05	0.00014	8e-05	-7e-05	3
11666	-0.00026	-3e-05	-2e-05	-2e-05	-3e-05	-0.00019	-0.00013	-0.00016	3
11667	-0.00026	-3e-05	-2e-05	-2e-05	-3e-05	-0.00019	-0.00013	-0.00016	3
11668	-0.00026	-3e-05	-2e-05	-2e-05	-3e-05	-0.00019	-0.00013	-0.00016	3
11669	-0.00026	-3e-05	-2e-05	-2e-05	-3e-05	-0.00019	-0.00013	-0.00016	3
11670	-0.00026	-3e-05	-2e-05	-2e-05	-3e-05	-0.00019	-0.00013	-0.00016	3
11671	-0.00026	-3e-05	-2e-05	-2e-05	-3e-05	-0.00019	-0.00013	-0.00016	3
11672	-0.00026	-3e-05	-2e-05	-2e-05	-3e-05	-0.00019	-0.00013	-0.00016	3
11673	-0.00026	-3e-05	-2e-05	-2e-05	-3e-05	-0.00019	-0.00013	-0.00016	3
11674	-0.00026	-3e-05	-2e-05	-2e-05	-3e-05	-0.00019	-0.00013	-0.00016	3
11675	-0.00026	-3e-05	-2e-05	-2e-05	-3e-05	-0.00019	-0.00013	-0.00016	3
11676	-0.00026	-3e-05	-2e-05	-2e-05	-3e-05	-0.00019	-0.00013	-0.00016	3
11677	-0.00026	-3e-05	-2e-05	-2e-05	-3e-05	-0.00019	-0.00013	-0.00016	3
11678	-0.00026	-3e-05	-2e-05	-2e-05	-3e-05	-0.00019	-0.00013	-0.00016	3
11679	-0.00026	-3e-05	-2e-05	-2e-05	-3e-05	-0.00019	-0.00013	-0.00016	3
11680	-0.00026	-3e-05	-2e-05	-2e-05	-3e-05	-0.00019	-0.00013	-0.00016	3
11681	-0.00026	-3e-05	-2e-05	-2e-05	-3e-05	-0.00019	-0.00013	-0.00016	3
11682	-0.00026	-3e-05	-2e-05	-2e-05	-3e-05	-0.00019	-0.00013	-0.00016	3
11683	-0.00026	-3e-05	-2e-05	-2e-05	-3e-05	-0.00019	-0.00013	-0.00016	3
11684	-0.00026	-3e-05	-2e-05	-2e-05	-3e-05	-0.00019	-0.00013	-0.00016	3
11685	-0.00026	-3e-05	-2e-05	-2e-05	-3e-05	-0.00019	-0.00013	-0.00016	3
11686	-0.00026	-3e-05	-2e-05	-2e-05	-3e-05	-0.00019	-0.00013	-0.00016	3
11689	-0.00026	-3e-05	-2e-05	-2e-05	-3e-05	-0.00019	-0.00013	-0.00016	3
11690	-0.00026	-3e-05	-2e-05	-2e-05	-3e-05	-0.00019	-0.00013	-0.00016	3
11691	3e-05	-4e-05	-2e-05	-2e-05	-1e-05	-3e-05	-6e-05	2e-05	3
11692	3e-05	-4e-05	-2e-05	-2e-05	-1e-05	-3e-05	-6e-05	2e-05	3
11693	3e-05	-4e-05	-2e-05	-2e-05	-1e-05	-3e-05	-6e-05	2e-05	3
11694	3e-05	-4e-05	-2e-05	-2e-05	-1e-05	-3e-05	-6e-05	2e-05	3
11695	3e-05	-4e-05	-2e-05	-2e-05	-1e-05	-3e-05	-6e-05	2e-05	3
11696	3e-05	-4e-05	-2e-05	-2e-05	-1e-05	-3e-05	-6e-05	2e-05	3
11697	3e-05	-4e-05	-2e-05	-2e-05	-1e-05	-3e-05	-6e-05	2e-05	3
11698	3e-05	-4e-05	-2e-05	-2e-05	-1e-05	-3e-05	-6e-05	2e-05	3
11699	3e-05	-4e-05	-2e-05	-2e-05	-1e-05	-3e-05	-6e-05	2e-05	3
11700	3e-05	-4e-05	-2e-05	-2e-05	-1e-05	-3e-05	-6e-05	2e-05	3
11701	3e-05	-4e-05	-2e-05	-2e-05	-1e-05	-3e-05	-6e-05	2e-05	3
11702	3e-05	-4e-05	-2e-05	-2e-05	-1e-05	-3e-05	-6e-05	2e-05	3
11703	3e-05	-4e-05	-2e-05	-2e-05	-1e-05	-3e-05	-6e-05	2e-05	3
11705	-0.00017	-4e-05	-3e-05	-4e-05	-3e-05	7e-05	4e-05	8e-05	3
11706	-5e-05	-5e-05	0	-1e-05	4e-05	0.00017	0.00012	3e-05	3
11707	-5e-05	-5e-05	0	-1e-05	4e-05	0.00017	0.00012	3e-05	3
11708	-5e-05	-5e-05	0	-1e-05	4e-05	0.00017	0.00012	3e-05	3
11709	-5e-05	-5e-05	0	-1e-05	4e-05	0.00017	0.00012	3e-05	3
11710	-5e-05	-5e-05	0	-1e-05	4e-05	0.00017	0.00012	3e-05	3
11711	-5e-05	-5e-05	0	-1e-05	4e-05	0.00017	0.00012	3e-05	3
11712	-5e-05	-5e-05	0	-1e-05	4e-05	0.00017	0.00012	3e-05	3
11713	-5e-05	-5e-05	0	-1e-05	4e-05	0.00017	0.00012	3e-05	3
11714	-5e-05	-5e-05	0	-1e-05	4e-05	0.00017	0.00012	3e-05	3
11715	-5e-05	-5e-05	0	-1e-05	4e-05	0.00017	0.00012	3e-05	3
11716	-5e-05	-5e-05	0	-1e-05	4e-05	0.00017	0.00012	3e-05	3
11717	-5e-05	-5e-05	0	-1e-05	4e-05	0.00017	0.00012	3e-05	3
11718	-5e-05	-5e-05	0	-1e-05	4e-05	0.00017	0.00012	3e-05	3
11719	-5e-05	-5e-05	0	-1e-05	4e-05	0.00017	0.00012	3e-05	3
11720	-5e-05	-5e-05	0	-1e-05	4e-05	0.00017	0.00012	3e-05	3
11722	-5e-05	-5e-05	0	-1e-05	4e-05	0.00017	0.00012	3e-05	3
11723	-5e-05	-5e-05	0	-1e-05	4e-05	0.00017	0.00012	3e-05	3
11724	-5e-05	-5e-05	0	-1e-05	4e-05	0.00017	0.00012	3e-05	3
11725	-1e-05	1e-05	1e-05	-4e-05	-1e-05	6e-05	0	-1e-05	3
11726	7e-05	-2e-05	-1e-05	-3e-05	-3e-05	-6e-05	-6e-05	-1e-05	3
11727	0.00021	8e-05	0	-5e-05	-9e-05	-0.0001	-0.00014	7e-05	3
11728	-3e-05	1e-05	2e-05	2e-05	5e-05	0.00011	0.00026	-2e-05	3
11729	-3e-05	1e-05	2e-05	2e-05	5e-05	0.00011	0.00026	-2e-05	3
11730	-3e-05	1e-05	2e-05	2e-05	5e-05	0.00011	0.00026	-2e-05	3
11731	-3e-05	1e-05	2e-05	2e-05	5e-05	0.00011	0.00026	-2e-05	3
11732	-3e-05	1e-05	2e-05	2e-05	5e-05	0.00011	0.00026	-2e-05	3
11733	-3e-05	1e-05	2e-05	2e-05	5e-05	0.00011	0.00026	-2e-05	3
11734	-3e-05	1e-05	2e-05	2e-05	5e-05	0.00011	0.00026	-2e-05	3
11735	-3e-05	1e-05	2e-05	2e-05	5e-05	0.00011	0.00026	-2e-05	3
11736	-3e-05	1e-05	2e-05	2e-05	5e-05	0.00011	0.00026	-2e-05	3
11738	-3e-05	1e-05	2e-05	2e-05	5e-05	0.00011	0.00026	-2e-05	3
11741	-3e-05	1e-05	2e-05	2e-05	5e-05	0.00011	0.00026	-2e-05	3
11742	-3e-05	1e-05	2e-05	2e-05	5e-05	0.00011	0.00026	-2e-05	3
11743	-3e-05	1e-05	2e-05	2e-05	5e-05	0.00011	0.00026	-2e-05	3
11744	-3e-05	1e-05	2e-05	2e-05	5e-05	0.00011	0.00026	-2e-05	3
11745	-3e-05	1e-05	2e-05	2e-05	5e-05	0.00011	0.00026	-2e-05	3
11746	-3e-05	1e-05	2e-05	2e-05	5e-05	0.00011	0.00026	-2e-05	3
11747	-3e-05	1e-05	2e-05	2e-05	5e-05	0.00011	0.00026	-2e-05	3
11748	-3e-05	1e-05	2e-05	2e-05	5e-05	0.00011	0.00026	-2e-05	3
11749	-3e-05	1e-05	2e-05	2e-05	5e-05	0.00011	0.00026	-2e-05	3
11750	-3e-05	1e-05	2e-05	2e-05	5e-05	0.00011	0.00026	-2e-05	3
11751	-3e-05	1e-05	2e-05	2e-05	5e-05	0.00011	0.00026	-2e-05	3
11752	-3e-05	1e-05	2e-05	2e-05	5e-05	0.00011	0.00026	-2e-05	3
11753	-3e-05	1e-05	2e-05	2e-05	5e-05	0.00011	0.00026	-2e-05	3
11754	-3e-05	1e-05	2e-05	2e-05	5e-05	0.00011	0.00026	-2e-05	3
11756	-3e-05	1e-05	2e-05	2e-05	5e-05	0.00011	0.00026	-2e-05	3
11757	-3e-05	1e-05	2e-05	2e-05	5e-05	0.00011	0.00026	-2e-05	3
11758	-3e-05	1e-05	2e-05	2e-05	5e-05	0.00011	0.00026	-2e-05	3
11759	-3e-05	1e-05	2e-05	2e-05	5e-05	0.00011	0.00026	-2e-05	3
11760	-3e-05	1e-05	2e-05	2e-05	5e-05	0.00011	0.00026	-2e-05	3
11761	-3e-05	1e-05	2e-05	2e-05	5e-05	0.00011	0.00026	-2e-05	3
11762	-3e-05	1e-05	2e-05	2e-05	5e-05	0.00011	0.00026	-2e-05	3
11763	-3e-05	1e-05	2e-05	2e-05	5e-05	0.00011	0.00026	-2e-05	3
11764	0.00025	5e-05	0	-2e-05	-2e-05	4e-05	4e-05	0.00016	3
11765	9e-05	8e-05	2e-05	2e-05	5e-05	-3e-05	1e-05	2e-05	3
11766	-0.0003	-3e-05	-2e-05	3e-05	1e-05	-9e-05	-0.0001	-0.00024	3
11767	-0.0003	-3e-05	-2e-05	3e-05	1e-05	-9e-05	-0.0001	-0.00024	3
11768	-0.0003	-3e-05	-2e-05	3e-05	1e-05	-9e-05	-0.0001	-0.00024	3
11769	-0.0003	-3e-05	-2e-05	3e-05	1e-05	-9e-05	-0.0001	-0.00024	3
11770	5e-05	1e-05	0	0	-4e-05	-5e-05	-0.0001	1e-05	3
11771	5e-05	1e-05	0	0	-4e-05	-5e-05	-0.0001	1e-05	3
11773	5e-05	1e-05	0	0	-4e-05	-5e-05	-0.0001	1e-05	3
11776	5e-05	1e-05	0	0	-4e-05	-5e-05	-0.0001	1e-05	3
11777	5e-05	1e-05	0	0	-4e-05	-5e-05	-0.0001	1e-05	3
11778	5e-05	1e-05	0	0	-4e-05	-5e-05	-0.0001	1e-05	3
11779	5e-05	1e-05	0	0	-4e-05	-5e-05	-0.0001	1e-05	3
11780	5e-05	1e-05	0	0	-4e-05	-5e-05	-0.0001	1e-05	3
11781	5e-05	1e-05	0	0	-4e-05	-5e-05	-0.0001	1e-05	3
11782	5e-05	1e-05	0	0	-4e-05	-5e-05	-0.0001	1e-05	3
11783	5e-05	1e-05	0	0	-4e-05	-5e-05	-0.0001	1e-05	3
11784	5e-05	1e-05	0	0	-4e-05	-5e-05	-0.0001	1e-05	3
11785	5e-05	3e-05	-5e-05	-4e-05	-1e-05	-0.00018	-0.0001	-3e-05	3
11786	0.00031	6e-05	3e-05	2e-05	6e-05	0.00015	0.00012	-2e-05	3
11789	0.00031	6e-05	3e-05	2e-05	6e-05	0.00015	0.00012	-2e-05	3
11793	0.00031	6e-05	3e-05	2e-05	6e-05	0.00015	0.00012	-2e-05	3
11794	0.00031	6e-05	3e-05	2e-05	6e-05	0.00015	0.00012	-2e-05	3
11795	0.00031	6e-05	3e-05	2e-05	6e-05	0.00015	0.00012	-2e-05	3
11796	0.00031	6e-05	3e-05	2e-05	6e-05	0.00015	0.00012	-2e-05	3
11797	0.00031	6e-05	3e-05	2e-05	6e-05	0.00015	0.00012	-2e-05	3
11798	0.00031	6e-05	3e-05	2e-05	6e-05	0.00015	0.00012	-2e-05	3
11799	0.00031	6e-05	3e-05	2e-05	6e-05	0.00015	0.00012	-2e-05	3
11800	0.00031	6e-05	3e-05	2e-05	6e-05	0.00015	0.00012	-2e-05	3
11801	0.00031	6e-05	3e-05	2e-05	6e-05	0.00015	0.00012	-2e-05	3
11802	0.00031	6e-05	3e-05	2e-05	6e-05	0.00015	0.00012	-2e-05	3
11803	0.00031	6e-05	3e-05	2e-05	6e-05	0.00015	0.00012	-2e-05	3
11804	0.00031	6e-05	3e-05	2e-05	6e-05	0.00015	0.00012	-2e-05	3
11807	0.00031	6e-05	3e-05	2e-05	6e-05	0.00015	0.00012	-2e-05	3
11808	0.00031	6e-05	3e-05	2e-05	6e-05	0.00015	0.00012	-2e-05	3
11809	0.00031	6e-05	3e-05	2e-05	6e-05	0.00015	0.00012	-2e-05	3
11810	0.00031	6e-05	3e-05	2e-05	6e-05	0.00015	0.00012	-2e-05	3
11811	0.00031	6e-05	3e-05	2e-05	6e-05	0.00015	0.00012	-2e-05	3
11812	0.00031	6e-05	3e-05	2e-05	6e-05	0.00015	0.00012	-2e-05	3
11813	0.00031	6e-05	3e-05	2e-05	6e-05	0.00015	0.00012	-2e-05	3
11814	0.00031	6e-05	3e-05	2e-05	6e-05	0.00015	0.00012	-2e-05	3
11815	8e-05	-2e-05	-6e-05	1e-05	1e-05	-3e-05	-3e-05	3e-05	3
11816	8e-05	-2e-05	-6e-05	1e-05	1e-05	-3e-05	-3e-05	3e-05	3
11817	0.00013	1e-05	-7e-05	-8e-05	1e-05	-0.0001	6e-05	0.00024	3
11818	0.00013	1e-05	-7e-05	-8e-05	1e-05	-0.0001	6e-05	0.00024	3
11819	0.00013	1e-05	-7e-05	-8e-05	1e-05	-0.0001	6e-05	0.00024	3
11820	0.00013	1e-05	-7e-05	-8e-05	1e-05	-0.0001	6e-05	0.00024	3
11821	0.00013	1e-05	-7e-05	-8e-05	1e-05	-0.0001	6e-05	0.00024	3
11825	0.00013	1e-05	-7e-05	-8e-05	1e-05	-0.0001	6e-05	0.00024	3
11826	-8e-05	-7e-05	-5e-05	-6e-05	-8e-05	-3e-05	-0.00014	-4e-05	3
11827	-8e-05	-7e-05	-5e-05	-6e-05	-8e-05	-3e-05	-0.00014	-4e-05	3
11828	-8e-05	-7e-05	-5e-05	-6e-05	-8e-05	-3e-05	-0.00014	-4e-05	3
11829	-8e-05	-7e-05	-5e-05	-6e-05	-8e-05	-3e-05	-0.00014	-4e-05	3
11830	-8e-05	-7e-05	-5e-05	-6e-05	-8e-05	-3e-05	-0.00014	-4e-05	3
11831	-8e-05	-7e-05	-5e-05	-6e-05	-8e-05	-3e-05	-0.00014	-4e-05	3
11832	-8e-05	-7e-05	-5e-05	-6e-05	-8e-05	-3e-05	-0.00014	-4e-05	3
11833	-8e-05	-7e-05	-5e-05	-6e-05	-8e-05	-3e-05	-0.00014	-4e-05	3
11834	-8e-05	-7e-05	-5e-05	-6e-05	-8e-05	-3e-05	-0.00014	-4e-05	3
11835	-8e-05	-7e-05	-5e-05	-6e-05	-8e-05	-3e-05	-0.00014	-4e-05	3
11836	-8e-05	-7e-05	-5e-05	-6e-05	-8e-05	-3e-05	-0.00014	-4e-05	3
11838	-8e-05	-7e-05	-5e-05	-6e-05	-8e-05	-3e-05	-0.00014	-4e-05	3
11839	-8e-05	-7e-05	-5e-05	-6e-05	-8e-05	-3e-05	-0.00014	-4e-05	3
11841	-8e-05	-7e-05	-5e-05	-6e-05	-8e-05	-3e-05	-0.00014	-4e-05	3
11842	-8e-05	-7e-05	-5e-05	-6e-05	-8e-05	-3e-05	-0.00014	-4e-05	3
11843	-8e-05	-7e-05	-5e-05	-6e-05	-8e-05	-3e-05	-0.00014	-4e-05	3
11844	-8e-05	-7e-05	-5e-05	-6e-05	-8e-05	-3e-05	-0.00014	-4e-05	3
11845	-8e-05	-7e-05	-5e-05	-6e-05	-8e-05	-3e-05	-0.00014	-4e-05	3
11846	-8e-05	-7e-05	-5e-05	-6e-05	-8e-05	-3e-05	-0.00014	-4e-05	3
11847	-8e-05	-7e-05	-5e-05	-6e-05	-8e-05	-3e-05	-0.00014	-4e-05	3
11848	-8e-05	-7e-05	-5e-05	-6e-05	-8e-05	-3e-05	-0.00014	-4e-05	3
11849	-8e-05	-7e-05	-5e-05	-6e-05	-8e-05	-3e-05	-0.00014	-4e-05	3
11850	-8e-05	-7e-05	-5e-05	-6e-05	-8e-05	-3e-05	-0.00014	-4e-05	3
11851	-8e-05	-7e-05	-5e-05	-6e-05	-8e-05	-3e-05	-0.00014	-4e-05	3
11852	-8e-05	-7e-05	-5e-05	-6e-05	-8e-05	-3e-05	-0.00014	-4e-05	3
11853	0.00015	4e-05	2e-05	3e-05	2e-05	-7e-05	-2e-05	0.00011	3
11854	0.00015	4e-05	2e-05	3e-05	2e-05	-7e-05	-2e-05	0.00011	3
11857	-0.00016	-4e-05	4e-05	4e-05	0	-3e-05	-2e-05	2e-05	3
11858	-0.00016	-4e-05	4e-05	4e-05	0	-3e-05	-2e-05	2e-05	3
11859	-0.00016	-4e-05	4e-05	4e-05	0	-3e-05	-2e-05	2e-05	3
11860	-0.00016	-4e-05	4e-05	4e-05	0	-3e-05	-2e-05	2e-05	3
11861	-0.00016	-4e-05	4e-05	4e-05	0	-3e-05	-2e-05	2e-05	3
11862	-0.00016	-4e-05	4e-05	4e-05	0	-3e-05	-2e-05	2e-05	3
11863	-0.00016	-4e-05	4e-05	4e-05	0	-3e-05	-2e-05	2e-05	3
11864	-0.00016	-4e-05	4e-05	4e-05	0	-3e-05	-2e-05	2e-05	3
11865	-0.00016	-4e-05	4e-05	4e-05	0	-3e-05	-2e-05	2e-05	3
11866	-0.00016	-4e-05	4e-05	4e-05	0	-3e-05	-2e-05	2e-05	3
11867	-0.00016	-4e-05	4e-05	4e-05	0	-3e-05	-2e-05	2e-05	3
11868	4e-05	1e-05	-3e-05	-5e-05	-2e-05	0.00016	0.00014	0.00021	3
11869	4e-05	1e-05	-3e-05	-5e-05	-2e-05	0.00016	0.00014	0.00021	3
11870	4e-05	1e-05	-3e-05	-5e-05	-2e-05	0.00016	0.00014	0.00021	3
11871	4e-05	1e-05	-3e-05	-5e-05	-2e-05	0.00016	0.00014	0.00021	3
11872	4e-05	1e-05	-3e-05	-5e-05	-2e-05	0.00016	0.00014	0.00021	3
11873	4e-05	1e-05	-3e-05	-5e-05	-2e-05	0.00016	0.00014	0.00021	3
11874	4e-05	1e-05	-3e-05	-5e-05	-2e-05	0.00016	0.00014	0.00021	3
11875	4e-05	1e-05	-3e-05	-5e-05	-2e-05	0.00016	0.00014	0.00021	3
11876	0.00029	0.00013	5e-05	-3e-05	2e-05	0.00012	2e-05	-6e-05	3
11877	0.00029	0.00013	5e-05	-3e-05	2e-05	0.00012	2e-05	-6e-05	3
11878	0.00029	0.00013	5e-05	-3e-05	2e-05	0.00012	2e-05	-6e-05	3
11879	0.00029	0.00013	5e-05	-3e-05	2e-05	0.00012	2e-05	-6e-05	3
11880	0.00029	0.00013	5e-05	-3e-05	2e-05	0.00012	2e-05	-6e-05	3
11881	0.00029	0.00013	5e-05	-3e-05	2e-05	0.00012	2e-05	-6e-05	3
11882	0.00029	0.00013	5e-05	-3e-05	2e-05	0.00012	2e-05	-6e-05	3
11883	0.00013	3e-05	1e-05	-1e-05	-0.0001	-7e-05	-7e-05	5e-05	3
11884	-1e-05	-1e-05	-2e-05	-3e-05	-8e-05	-0.00014	-0.00011	-1e-05	3
11885	-1e-05	-1e-05	-2e-05	-3e-05	-8e-05	-0.00014	-0.00011	-1e-05	3
11886	-1e-05	-1e-05	-2e-05	-3e-05	-8e-05	-0.00014	-0.00011	-1e-05	3
11888	-1e-05	-1e-05	-2e-05	-3e-05	-8e-05	-0.00014	-0.00011	-1e-05	3
11890	-1e-05	-1e-05	-2e-05	-3e-05	-8e-05	-0.00014	-0.00011	-1e-05	3
11891	-1e-05	-1e-05	-2e-05	-3e-05	-8e-05	-0.00014	-0.00011	-1e-05	3
11892	-1e-05	-1e-05	-2e-05	-3e-05	-8e-05	-0.00014	-0.00011	-1e-05	3
11893	-1e-05	-1e-05	-2e-05	-3e-05	-8e-05	-0.00014	-0.00011	-1e-05	3
11894	-1e-05	-1e-05	-2e-05	-3e-05	-8e-05	-0.00014	-0.00011	-1e-05	3
11895	-1e-05	-1e-05	-2e-05	-3e-05	-8e-05	-0.00014	-0.00011	-1e-05	3
11896	-1e-05	-1e-05	-2e-05	-3e-05	-8e-05	-0.00014	-0.00011	-1e-05	3
11897	-1e-05	-1e-05	-2e-05	-3e-05	-8e-05	-0.00014	-0.00011	-1e-05	3
11898	-1e-05	-1e-05	-2e-05	-3e-05	-8e-05	-0.00014	-0.00011	-1e-05	3
11899	-1e-05	-1e-05	-2e-05	-3e-05	-8e-05	-0.00014	-0.00011	-1e-05	3
11900	-1e-05	-1e-05	-2e-05	-3e-05	-8e-05	-0.00014	-0.00011	-1e-05	3
11901	-1e-05	-1e-05	-2e-05	-3e-05	-8e-05	-0.00014	-0.00011	-1e-05	3
11902	-1e-05	-1e-05	-2e-05	-3e-05	-8e-05	-0.00014	-0.00011	-1e-05	3
11903	-1e-05	-1e-05	-2e-05	-3e-05	-8e-05	-0.00014	-0.00011	-1e-05	3
11904	-1e-05	-1e-05	-2e-05	-3e-05	-8e-05	-0.00014	-0.00011	-1e-05	3
11905	-1e-05	-1e-05	-2e-05	-3e-05	-8e-05	-0.00014	-0.00011	-1e-05	3
11906	-1e-05	-1e-05	-2e-05	-3e-05	-8e-05	-0.00014	-0.00011	-1e-05	3
11907	-1e-05	-1e-05	-2e-05	-3e-05	-8e-05	-0.00014	-0.00011	-1e-05	3
11908	-1e-05	-1e-05	-2e-05	-3e-05	-8e-05	-0.00014	-0.00011	-1e-05	3
11909	-1e-05	-1e-05	-2e-05	-3e-05	-8e-05	-0.00014	-0.00011	-1e-05	3
11910	-1e-05	-1e-05	-2e-05	-3e-05	-8e-05	-0.00014	-0.00011	-1e-05	3
11911	-1e-05	-1e-05	-2e-05	-3e-05	-8e-05	-0.00014	-0.00011	-1e-05	3
11912	-1e-05	-1e-05	-2e-05	-3e-05	-8e-05	-0.00014	-0.00011	-1e-05	3
11913	-1e-05	-1e-05	-2e-05	-3e-05	-8e-05	-0.00014	-0.00011	-1e-05	3
11914	-1e-05	-1e-05	-2e-05	-3e-05	-8e-05	-0.00014	-0.00011	-1e-05	3
11915	-1e-05	-1e-05	-2e-05	-3e-05	-8e-05	-0.00014	-0.00011	-1e-05	3
11916	-1e-05	-1e-05	-2e-05	-3e-05	-8e-05	-0.00014	-0.00011	-1e-05	3
11917	-1e-05	-1e-05	-2e-05	-3e-05	-8e-05	-0.00014	-0.00011	-1e-05	3
11918	-1e-05	-1e-05	-2e-05	-3e-05	-8e-05	-0.00014	-0.00011	-1e-05	3
11919	-1e-05	-1e-05	-2e-05	-3e-05	-8e-05	-0.00014	-0.00011	-1e-05	3
11920	-1e-05	-1e-05	-2e-05	-3e-05	-8e-05	-0.00014	-0.00011	-1e-05	3
11921	-1e-05	-1e-05	-2e-05	-3e-05	-8e-05	-0.00014	-0.00011	-1e-05	3
11923	-1e-05	-1e-05	-2e-05	-3e-05	-8e-05	-0.00014	-0.00011	-1e-05	3
11924	-1e-05	-1e-05	-2e-05	-3e-05	-8e-05	-0.00014	-0.00011	-1e-05	3
11925	-1e-05	-1e-05	-2e-05	-3e-05	-8e-05	-0.00014	-0.00011	-1e-05	3
11926	-1e-05	-1e-05	-2e-05	-3e-05	-8e-05	-0.00014	-0.00011	-1e-05	3
11927	-1e-05	-1e-05	-2e-05	-3e-05	-8e-05	-0.00014	-0.00011	-1e-05	3
11928	-1e-05	-1e-05	-2e-05	-3e-05	-8e-05	-0.00014	-0.00011	-1e-05	3
11929	-1e-05	-1e-05	-2e-05	-3e-05	-8e-05	-0.00014	-0.00011	-1e-05	3
11930	-1e-05	-1e-05	-2e-05	-3e-05	-8e-05	-0.00014	-0.00011	-1e-05	3
11931	-1e-05	-1e-05	-2e-05	-3e-05	-8e-05	-0.00014	-0.00011	-1e-05	3
11932	-1e-05	-1e-05	-2e-05	-3e-05	-8e-05	-0.00014	-0.00011	-1e-05	3
11933	-1e-05	-1e-05	-2e-05	-3e-05	-8e-05	-0.00014	-0.00011	-1e-05	3
11934	-1e-05	-1e-05	-2e-05	-3e-05	-8e-05	-0.00014	-0.00011	-1e-05	3
11935	-1e-05	-1e-05	-2e-05	-3e-05	-8e-05	-0.00014	-0.00011	-1e-05	3
11936	8e-05	-2e-05	-5e-05	-4e-05	-1e-05	8e-05	5e-05	-0.0001	3
11938	-0.00011	-4e-05	0	0	0	1e-05	7e-05	-0.00012	3
11939	-0.00011	-4e-05	0	0	0	1e-05	7e-05	-0.00012	3
11941	-0.0001	-2e-05	-5e-05	-7e-05	-5e-05	-0.0001	-6e-05	-7e-05	3
11942	-0.0001	-2e-05	-5e-05	-7e-05	-5e-05	-0.0001	-6e-05	-7e-05	3
11943	-0.0001	-2e-05	-5e-05	-7e-05	-5e-05	-0.0001	-6e-05	-7e-05	3
11944	-0.0001	-2e-05	-5e-05	-7e-05	-5e-05	-0.0001	-6e-05	-7e-05	3
11945	-0.0001	-2e-05	-5e-05	-7e-05	-5e-05	-0.0001	-6e-05	-7e-05	3
11946	-0.0001	-2e-05	-5e-05	-7e-05	-5e-05	-0.0001	-6e-05	-7e-05	3
11947	-0.0001	-2e-05	-5e-05	-7e-05	-5e-05	-0.0001	-6e-05	-7e-05	3
11948	-0.0001	-2e-05	-5e-05	-7e-05	-5e-05	-0.0001	-6e-05	-7e-05	3
11949	-0.0001	-2e-05	-5e-05	-7e-05	-5e-05	-0.0001	-6e-05	-7e-05	3
11950	-0.0001	-2e-05	-5e-05	-7e-05	-5e-05	-0.0001	-6e-05	-7e-05	3
11951	-0.0001	-2e-05	-5e-05	-7e-05	-5e-05	-0.0001	-6e-05	-7e-05	3
11952	-0.00031	-8e-05	1e-05	4e-05	6e-05	0.00024	0.00016	-4e-05	3
11953	0.00012	4e-05	4e-05	0	3e-05	0.00012	4e-05	-5e-05	3
11954	0.00012	4e-05	4e-05	0	3e-05	0.00012	4e-05	-5e-05	3
11955	0.00012	4e-05	4e-05	0	3e-05	0.00012	4e-05	-5e-05	3
11956	0.00012	4e-05	4e-05	0	3e-05	0.00012	4e-05	-5e-05	3
11957	0.00012	4e-05	4e-05	0	3e-05	0.00012	4e-05	-5e-05	3
11958	0.00012	4e-05	4e-05	0	3e-05	0.00012	4e-05	-5e-05	3
11959	0.00012	4e-05	4e-05	0	3e-05	0.00012	4e-05	-5e-05	3
11960	0.00012	4e-05	4e-05	0	3e-05	0.00012	4e-05	-5e-05	3
11961	0.00012	4e-05	4e-05	0	3e-05	0.00012	4e-05	-5e-05	3
11962	0.00012	4e-05	4e-05	0	3e-05	0.00012	4e-05	-5e-05	3
11963	0.00012	4e-05	4e-05	0	3e-05	0.00012	4e-05	-5e-05	3
11964	0.00012	4e-05	4e-05	0	3e-05	0.00012	4e-05	-5e-05	3
11965	0.00012	4e-05	4e-05	0	3e-05	0.00012	4e-05	-5e-05	3
11966	0.00012	4e-05	4e-05	0	3e-05	0.00012	4e-05	-5e-05	3
11967	0.00012	4e-05	4e-05	0	3e-05	0.00012	4e-05	-5e-05	3
11968	0.00012	4e-05	4e-05	0	3e-05	0.00012	4e-05	-5e-05	3
11969	0.00012	4e-05	4e-05	0	3e-05	0.00012	4e-05	-5e-05	3
11970	0.00012	4e-05	4e-05	0	3e-05	0.00012	4e-05	-5e-05	3
11971	0.00012	4e-05	4e-05	0	3e-05	0.00012	4e-05	-5e-05	3
11972	0.00012	4e-05	4e-05	0	3e-05	0.00012	4e-05	-5e-05	3
11973	0.00012	4e-05	4e-05	0	3e-05	0.00012	4e-05	-5e-05	3
11974	0.00012	4e-05	4e-05	0	3e-05	0.00012	4e-05	-5e-05	3
11975	0.00012	4e-05	4e-05	0	3e-05	0.00012	4e-05	-5e-05	3
11976	0.00012	4e-05	4e-05	0	3e-05	0.00012	4e-05	-5e-05	3
11977	0.00012	4e-05	4e-05	0	3e-05	0.00012	4e-05	-5e-05	3
11978	0.00012	4e-05	4e-05	0	3e-05	0.00012	4e-05	-5e-05	3
11979	0.00012	4e-05	4e-05	0	3e-05	0.00012	4e-05	-5e-05	3
11980	0.00012	4e-05	4e-05	0	3e-05	0.00012	4e-05	-5e-05	3
11981	0.00012	4e-05	4e-05	0	3e-05	0.00012	4e-05	-5e-05	3
11982	0.00012	4e-05	4e-05	0	3e-05	0.00012	4e-05	-5e-05	3
11983	0.00012	4e-05	4e-05	0	3e-05	0.00012	4e-05	-5e-05	3
11984	0.00012	4e-05	4e-05	0	3e-05	0.00012	4e-05	-5e-05	3
11985	0.00012	4e-05	4e-05	0	3e-05	0.00012	4e-05	-5e-05	3
11986	0.00012	4e-05	4e-05	0	3e-05	0.00012	4e-05	-5e-05	3
11988	0.00012	4e-05	4e-05	0	3e-05	0.00012	4e-05	-5e-05	3
11991	0.00012	4e-05	4e-05	0	3e-05	0.00012	4e-05	-5e-05	3
11992	7e-05	-4e-05	-9e-05	-8e-05	-8e-05	-0.0001	-2e-05	0.00012	3
11993	0.00016	6e-05	6e-05	0.00011	0.00011	0.00012	7e-05	2e-05	3
11994	0.00016	6e-05	6e-05	0.00011	0.00011	0.00012	7e-05	2e-05	3
11995	-7e-05	-9e-05	-5e-05	-5e-05	2e-05	-2e-05	-8e-05	0.00012	3
11996	-7e-05	-9e-05	-5e-05	-5e-05	2e-05	-2e-05	-8e-05	0.00012	3
11997	-7e-05	-2e-05	1e-05	1e-05	-3e-05	-0.00011	-9e-05	6e-05	3
11998	-7e-05	-2e-05	1e-05	1e-05	-3e-05	-0.00011	-9e-05	6e-05	3
11999	-7e-05	-2e-05	1e-05	1e-05	-3e-05	-0.00011	-9e-05	6e-05	3
12000	-7e-05	-2e-05	1e-05	1e-05	-3e-05	-0.00011	-9e-05	6e-05	3
12001	-7e-05	-2e-05	1e-05	1e-05	-3e-05	-0.00011	-9e-05	6e-05	3
12002	-7e-05	-2e-05	1e-05	1e-05	-3e-05	-0.00011	-9e-05	6e-05	3
12003	-5e-05	-6e-05	-2e-05	1e-05	-6e-05	-3e-05	1e-05	-0.0001	3
12004	-8e-05	-8e-05	-6e-05	-7e-05	-7e-05	-0.00015	-0.00011	-0.00016	3
12005	-8e-05	-8e-05	-6e-05	-7e-05	-7e-05	-0.00015	-0.00011	-0.00016	3
12007	-8e-05	-8e-05	-6e-05	-7e-05	-7e-05	-0.00015	-0.00011	-0.00016	3
12009	-8e-05	-8e-05	-6e-05	-7e-05	-7e-05	-0.00015	-0.00011	-0.00016	3
12010	-8e-05	-8e-05	-6e-05	-7e-05	-7e-05	-0.00015	-0.00011	-0.00016	3
12011	-8e-05	-8e-05	-6e-05	-7e-05	-7e-05	-0.00015	-0.00011	-0.00016	3
12012	-8e-05	-8e-05	-6e-05	-7e-05	-7e-05	-0.00015	-0.00011	-0.00016	3
12013	-8e-05	-8e-05	-6e-05	-7e-05	-7e-05	-0.00015	-0.00011	-0.00016	3
12014	-8e-05	-8e-05	-6e-05	-7e-05	-7e-05	-0.00015	-0.00011	-0.00016	3
12015	-8e-05	-8e-05	-6e-05	-7e-05	-7e-05	-0.00015	-0.00011	-0.00016	3
12016	-8e-05	-8e-05	-6e-05	-7e-05	-7e-05	-0.00015	-0.00011	-0.00016	3
12017	-8e-05	-8e-05	-6e-05	-7e-05	-7e-05	-0.00015	-0.00011	-0.00016	3
12018	-8e-05	-8e-05	-6e-05	-7e-05	-7e-05	-0.00015	-0.00011	-0.00016	3
12019	-8e-05	-8e-05	-6e-05	-7e-05	-7e-05	-0.00015	-0.00011	-0.00016	3
12020	-8e-05	-8e-05	-6e-05	-7e-05	-7e-05	-0.00015	-0.00011	-0.00016	3
12021	-8e-05	-8e-05	-6e-05	-7e-05	-7e-05	-0.00015	-0.00011	-0.00016	3
12022	-8e-05	-8e-05	-6e-05	-7e-05	-7e-05	-0.00015	-0.00011	-0.00016	3
12024	-8e-05	-8e-05	-6e-05	-7e-05	-7e-05	-0.00015	-0.00011	-0.00016	3
12025	-8e-05	-8e-05	-6e-05	-7e-05	-7e-05	-0.00015	-0.00011	-0.00016	3
12026	-8e-05	-8e-05	-6e-05	-7e-05	-7e-05	-0.00015	-0.00011	-0.00016	3
12027	-8e-05	-8e-05	-6e-05	-7e-05	-7e-05	-0.00015	-0.00011	-0.00016	3
12028	-8e-05	-8e-05	-6e-05	-7e-05	-7e-05	-0.00015	-0.00011	-0.00016	3
12029	-8e-05	-8e-05	-6e-05	-7e-05	-7e-05	-0.00015	-0.00011	-0.00016	3
12030	-8e-05	-8e-05	-6e-05	-7e-05	-7e-05	-0.00015	-0.00011	-0.00016	3
12031	-8e-05	-8e-05	-6e-05	-7e-05	-7e-05	-0.00015	-0.00011	-0.00016	3
12032	-8e-05	-8e-05	-6e-05	-7e-05	-7e-05	-0.00015	-0.00011	-0.00016	3
12033	-8e-05	-8e-05	-6e-05	-7e-05	-7e-05	-0.00015	-0.00011	-0.00016	3
12034	-8e-05	-8e-05	-6e-05	-7e-05	-7e-05	-0.00015	-0.00011	-0.00016	3
12035	-8e-05	-8e-05	-6e-05	-7e-05	-7e-05	-0.00015	-0.00011	-0.00016	3
12036	-8e-05	-8e-05	-6e-05	-7e-05	-7e-05	-0.00015	-0.00011	-0.00016	3
12038	-8e-05	-8e-05	-6e-05	-7e-05	-7e-05	-0.00015	-0.00011	-0.00016	3
12039	-8e-05	-8e-05	-6e-05	-7e-05	-7e-05	-0.00015	-0.00011	-0.00016	3
12041	-8e-05	-8e-05	-6e-05	-7e-05	-7e-05	-0.00015	-0.00011	-0.00016	3
12042	-0.00052	-0.00014	2e-05	-5e-05	-1e-05	-5e-05	0.00016	-6e-05	3
12043	-0.00052	-0.00014	2e-05	-5e-05	-1e-05	-5e-05	0.00016	-6e-05	3
12044	-0.00052	-0.00014	2e-05	-5e-05	-1e-05	-5e-05	0.00016	-6e-05	3
12045	-0.00052	-0.00014	2e-05	-5e-05	-1e-05	-5e-05	0.00016	-6e-05	3
12046	-0.00052	-0.00014	2e-05	-5e-05	-1e-05	-5e-05	0.00016	-6e-05	3
12047	-0.00052	-0.00014	2e-05	-5e-05	-1e-05	-5e-05	0.00016	-6e-05	3
12048	0.00032	0.0001	0	2e-05	3e-05	3e-05	-6e-05	0.00043	3
12049	-0.00023	-1e-05	-3e-05	-3e-05	-8e-05	-4e-05	-7e-05	-0.00025	3
12050	-0.00023	-1e-05	-3e-05	-3e-05	-8e-05	-4e-05	-7e-05	-0.00025	3
12051	2e-05	-5e-05	-1e-05	1e-05	-1e-05	6e-05	-2e-05	1e-05	3
12052	2e-05	-5e-05	-1e-05	1e-05	-1e-05	6e-05	-2e-05	1e-05	3
12053	2e-05	-5e-05	-1e-05	1e-05	-1e-05	6e-05	-2e-05	1e-05	3
12054	2e-05	-5e-05	-1e-05	1e-05	-1e-05	6e-05	-2e-05	1e-05	3
12055	2e-05	-5e-05	-1e-05	1e-05	-1e-05	6e-05	-2e-05	1e-05	3
12058	2e-05	-5e-05	-1e-05	1e-05	-1e-05	6e-05	-2e-05	1e-05	3
12059	2e-05	-5e-05	-1e-05	1e-05	-1e-05	6e-05	-2e-05	1e-05	3
12060	2e-05	-5e-05	-1e-05	1e-05	-1e-05	6e-05	-2e-05	1e-05	3
12061	2e-05	-5e-05	-1e-05	1e-05	-1e-05	6e-05	-2e-05	1e-05	3
12062	2e-05	-5e-05	-1e-05	1e-05	-1e-05	6e-05	-2e-05	1e-05	3
12063	0.0001	-1e-05	-2e-05	-1e-05	0	-0.00014	-5e-05	-0.00017	3
12064	0.0001	-1e-05	-2e-05	-1e-05	0	-0.00014	-5e-05	-0.00017	3
12065	0.0001	-1e-05	-2e-05	-1e-05	0	-0.00014	-5e-05	-0.00017	3
12066	0.0001	-1e-05	-2e-05	-1e-05	0	-0.00014	-5e-05	-0.00017	3
12067	0.0001	-1e-05	-2e-05	-1e-05	0	-0.00014	-5e-05	-0.00017	3
12068	0.0001	-1e-05	-2e-05	-1e-05	0	-0.00014	-5e-05	-0.00017	3
12069	0.0001	-1e-05	-2e-05	-1e-05	0	-0.00014	-5e-05	-0.00017	3
12070	0.0001	-1e-05	-2e-05	-1e-05	0	-0.00014	-5e-05	-0.00017	3
12071	0.0001	-1e-05	-2e-05	-1e-05	0	-0.00014	-5e-05	-0.00017	3
12072	0.0001	-1e-05	-2e-05	-1e-05	0	-0.00014	-5e-05	-0.00017	3
12074	0.0001	-1e-05	-2e-05	-1e-05	0	-0.00014	-5e-05	-0.00017	3
12075	0.0001	-1e-05	-2e-05	-1e-05	0	-0.00014	-5e-05	-0.00017	3
12076	0.0001	-1e-05	-2e-05	-1e-05	0	-0.00014	-5e-05	-0.00017	3
12077	0.0001	-1e-05	-2e-05	-1e-05	0	-0.00014	-5e-05	-0.00017	3
12078	0.0001	-1e-05	-2e-05	-1e-05	0	-0.00014	-5e-05	-0.00017	3
12079	0.0001	-1e-05	-2e-05	-1e-05	0	-0.00014	-5e-05	-0.00017	3
12080	0.0001	-1e-05	-2e-05	-1e-05	0	-0.00014	-5e-05	-0.00017	3
12081	0.0001	-1e-05	-2e-05	-1e-05	0	-0.00014	-5e-05	-0.00017	3
12082	0.0001	-1e-05	-2e-05	-1e-05	0	-0.00014	-5e-05	-0.00017	3
12083	0.0001	-1e-05	-2e-05	-1e-05	0	-0.00014	-5e-05	-0.00017	3
12084	0.0001	-1e-05	-2e-05	-1e-05	0	-0.00014	-5e-05	-0.00017	3
12085	0.0001	-1e-05	-2e-05	-1e-05	0	-0.00014	-5e-05	-0.00017	3
12086	0.0001	-1e-05	-2e-05	-1e-05	0	-0.00014	-5e-05	-0.00017	3
12088	0.0001	-1e-05	-2e-05	-1e-05	0	-0.00014	-5e-05	-0.00017	3
12091	0.0001	-1e-05	-2e-05	-1e-05	0	-0.00014	-5e-05	-0.00017	3
12092	0.0001	-1e-05	-2e-05	-1e-05	0	-0.00014	-5e-05	-0.00017	3
12093	0.0001	-1e-05	-2e-05	-1e-05	0	-0.00014	-5e-05	-0.00017	3
12094	0.0001	-1e-05	-2e-05	-1e-05	0	-0.00014	-5e-05	-0.00017	3
12095	0.0001	-1e-05	-2e-05	-1e-05	0	-0.00014	-5e-05	-0.00017	3
12096	0.0001	-1e-05	-2e-05	-1e-05	0	-0.00014	-5e-05	-0.00017	3
12097	0.0001	-1e-05	-2e-05	-1e-05	0	-0.00014	-5e-05	-0.00017	3
12098	0.0001	-1e-05	-2e-05	-1e-05	0	-0.00014	-5e-05	-0.00017	3
12099	0.0001	-1e-05	-2e-05	-1e-05	0	-0.00014	-5e-05	-0.00017	3
12100	0.0001	-1e-05	-2e-05	-1e-05	0	-0.00014	-5e-05	-0.00017	3
12101	0.0001	-1e-05	-2e-05	-1e-05	0	-0.00014	-5e-05	-0.00017	3
12102	0.00011	4e-05	1e-05	3e-05	1e-05	-5e-05	-8e-05	-7e-05	3
12103	-8e-05	0	3e-05	-1e-05	5e-05	0.00013	-3e-05	0.00019	3
12104	-8e-05	0	3e-05	-1e-05	5e-05	0.00013	-3e-05	0.00019	3
12105	-8e-05	0	3e-05	-1e-05	5e-05	0.00013	-3e-05	0.00019	3
12107	-8e-05	0	3e-05	-1e-05	5e-05	0.00013	-3e-05	0.00019	3
12108	-0.00017	-5e-05	-2e-05	-2e-05	2e-05	6e-05	0.00015	0.00026	3
12109	-0.00017	-5e-05	-2e-05	-2e-05	2e-05	6e-05	0.00015	0.00026	3
12110	-0.00017	-5e-05	-2e-05	-2e-05	2e-05	6e-05	0.00015	0.00026	3
12111	-0.00017	-5e-05	-2e-05	-2e-05	2e-05	6e-05	0.00015	0.00026	3
12112	-0.00017	-5e-05	-2e-05	-2e-05	2e-05	6e-05	0.00015	0.00026	3
12113	-0.00017	-5e-05	-2e-05	-2e-05	2e-05	6e-05	0.00015	0.00026	3
12114	-0.00017	-5e-05	-2e-05	-2e-05	2e-05	6e-05	0.00015	0.00026	3
12115	-4e-05	-3e-05	-3e-05	0	-2e-05	-5e-05	-4e-05	5e-05	3
12116	-4e-05	-3e-05	-3e-05	0	-2e-05	-5e-05	-4e-05	5e-05	3
12117	-2e-05	4e-05	-3e-05	-1e-05	-2e-05	1e-05	-4e-05	-7e-05	3
12118	-2e-05	4e-05	-3e-05	-1e-05	-2e-05	1e-05	-4e-05	-7e-05	3
12119	-2e-05	4e-05	-3e-05	-1e-05	-2e-05	1e-05	-4e-05	-7e-05	3
12120	-2e-05	4e-05	-3e-05	-1e-05	-2e-05	1e-05	-4e-05	-7e-05	3
12121	-2e-05	4e-05	-3e-05	-1e-05	-2e-05	1e-05	-4e-05	-7e-05	3
12122	-2e-05	4e-05	-3e-05	-1e-05	-2e-05	1e-05	-4e-05	-7e-05	3
12124	-2e-05	4e-05	-3e-05	-1e-05	-2e-05	1e-05	-4e-05	-7e-05	3
12125	-2e-05	4e-05	-3e-05	-1e-05	-2e-05	1e-05	-4e-05	-7e-05	3
12126	-2e-05	4e-05	-3e-05	-1e-05	-2e-05	1e-05	-4e-05	-7e-05	3
12127	-2e-05	4e-05	-3e-05	-1e-05	-2e-05	1e-05	-4e-05	-7e-05	3
12128	-2e-05	4e-05	-3e-05	-1e-05	-2e-05	1e-05	-4e-05	-7e-05	3
12129	-2e-05	4e-05	-3e-05	-1e-05	-2e-05	1e-05	-4e-05	-7e-05	3
12130	-2e-05	4e-05	-3e-05	-1e-05	-2e-05	1e-05	-4e-05	-7e-05	3
12131	-2e-05	4e-05	-3e-05	-1e-05	-2e-05	1e-05	-4e-05	-7e-05	3
12132	-2e-05	4e-05	-3e-05	-1e-05	-2e-05	1e-05	-4e-05	-7e-05	3
12133	-2e-05	4e-05	-3e-05	-1e-05	-2e-05	1e-05	-4e-05	-7e-05	3
12134	-2e-05	4e-05	-3e-05	-1e-05	-2e-05	1e-05	-4e-05	-7e-05	3
12135	-2e-05	4e-05	-3e-05	-1e-05	-2e-05	1e-05	-4e-05	-7e-05	3
12136	-2e-05	4e-05	-3e-05	-1e-05	-2e-05	1e-05	-4e-05	-7e-05	3
12138	-2e-05	4e-05	-3e-05	-1e-05	-2e-05	1e-05	-4e-05	-7e-05	3
12139	-2e-05	4e-05	-3e-05	-1e-05	-2e-05	1e-05	-4e-05	-7e-05	3
12141	-2e-05	4e-05	-3e-05	-1e-05	-2e-05	1e-05	-4e-05	-7e-05	3
12142	-2e-05	4e-05	-3e-05	-1e-05	-2e-05	1e-05	-4e-05	-7e-05	3
12143	-2e-05	4e-05	-3e-05	-1e-05	-2e-05	1e-05	-4e-05	-7e-05	3
12144	-2e-05	4e-05	-3e-05	-1e-05	-2e-05	1e-05	-4e-05	-7e-05	3
12145	-2e-05	4e-05	-3e-05	-1e-05	-2e-05	1e-05	-4e-05	-7e-05	3
12146	-2e-05	4e-05	-3e-05	-1e-05	-2e-05	1e-05	-4e-05	-7e-05	3
12147	-2e-05	4e-05	-3e-05	-1e-05	-2e-05	1e-05	-4e-05	-7e-05	3
12148	-2e-05	4e-05	-3e-05	-1e-05	-2e-05	1e-05	-4e-05	-7e-05	3
12149	-2e-05	4e-05	-3e-05	-1e-05	-2e-05	1e-05	-4e-05	-7e-05	3
12150	-2e-05	4e-05	-3e-05	-1e-05	-2e-05	1e-05	-4e-05	-7e-05	3
12151	-2e-05	4e-05	-3e-05	-1e-05	-2e-05	1e-05	-4e-05	-7e-05	3
12152	-2e-05	4e-05	-3e-05	-1e-05	-2e-05	1e-05	-4e-05	-7e-05	3
12153	-2e-05	4e-05	-3e-05	-1e-05	-2e-05	1e-05	-4e-05	-7e-05	3
12154	1e-05	0	3e-05	4e-05	8e-05	0.00013	1e-05	9e-05	3
12155	1e-05	0	3e-05	4e-05	8e-05	0.00013	1e-05	9e-05	3
12159	1e-05	0	3e-05	4e-05	8e-05	0.00013	1e-05	9e-05	3
12160	9e-05	-1e-05	-5e-05	-7e-05	-7e-05	-0.00017	-2e-05	-6e-05	3
12161	9e-05	-1e-05	-5e-05	-7e-05	-7e-05	-0.00017	-2e-05	-6e-05	3
12162	9e-05	-1e-05	-5e-05	-7e-05	-7e-05	-0.00017	-2e-05	-6e-05	3
12163	0.00028	5e-05	-1e-05	1e-05	-3e-05	-9e-05	-0.00017	5e-05	3
12164	0.00028	5e-05	-1e-05	1e-05	-3e-05	-9e-05	-0.00017	5e-05	3
12165	0.00028	5e-05	-1e-05	1e-05	-3e-05	-9e-05	-0.00017	5e-05	3
12166	0.00028	5e-05	-1e-05	1e-05	-3e-05	-9e-05	-0.00017	5e-05	3
12167	0.00028	5e-05	-1e-05	1e-05	-3e-05	-9e-05	-0.00017	5e-05	3
12168	-0.00022	-0.00015	-4e-05	-4e-05	-7e-05	-9e-05	-0.00012	-0.00024	3
12169	-0.00022	-0.00015	-4e-05	-4e-05	-7e-05	-9e-05	-0.00012	-0.00024	3
12170	-0.00022	-0.00015	-4e-05	-4e-05	-7e-05	-9e-05	-0.00012	-0.00024	3
12171	-0.00022	-0.00015	-4e-05	-4e-05	-7e-05	-9e-05	-0.00012	-0.00024	3
12172	-0.00022	-0.00015	-4e-05	-4e-05	-7e-05	-9e-05	-0.00012	-0.00024	3
38279	-0.00011	-9e-05	-0.0001	-0.00014	-4e-05	-9e-05	-0.00015	-0.00037	3
38280	-0.00011	-9e-05	-0.0001	-0.00014	-4e-05	-9e-05	-0.00015	-0.00037	3
38281	-0.00011	-9e-05	-0.0001	-0.00014	-4e-05	-9e-05	-0.00015	-0.00037	3
38282	-0.00011	-9e-05	-0.0001	-0.00014	-4e-05	-9e-05	-0.00015	-0.00037	3
38283	-0.00011	-9e-05	-0.0001	-0.00014	-4e-05	-9e-05	-0.00015	-0.00037	3
38284	-0.00011	-9e-05	-0.0001	-0.00014	-4e-05	-9e-05	-0.00015	-0.00037	3
38285	-0.00011	-9e-05	-0.0001	-0.00014	-4e-05	-9e-05	-0.00015	-0.00037	3
38286	-0.00011	-9e-05	-0.0001	-0.00014	-4e-05	-9e-05	-0.00015	-0.00037	3
38288	-0.00011	-9e-05	-0.0001	-0.00014	-4e-05	-9e-05	-0.00015	-0.00037	3
38289	-0.00011	-9e-05	-0.0001	-0.00014	-4e-05	-9e-05	-0.00015	-0.00037	3
38290	-0.00011	-9e-05	-0.0001	-0.00014	-4e-05	-9e-05	-0.00015	-0.00037	3
38291	-0.00011	-9e-05	-0.0001	-0.00014	-4e-05	-9e-05	-0.00015	-0.00037	3
38292	-0.00011	-9e-05	-0.0001	-0.00014	-4e-05	-9e-05	-0.00015	-0.00037	3
38293	-0.00011	-9e-05	-0.0001	-0.00014	-4e-05	-9e-05	-0.00015	-0.00037	3
38294	-0.00011	-9e-05	-0.0001	-0.00014	-4e-05	-9e-05	-0.00015	-0.00037	3
38295	-0.00011	-9e-05	-0.0001	-0.00014	-4e-05	-9e-05	-0.00015	-0.00037	3
38296	-0.00011	-9e-05	-0.0001	-0.00014	-4e-05	-9e-05	-0.00015	-0.00037	3
38297	-0.00011	-9e-05	-0.0001	-0.00014	-4e-05	-9e-05	-0.00015	-0.00037	3
38298	-0.00011	-9e-05	-0.0001	-0.00014	-4e-05	-9e-05	-0.00015	-0.00037	3
38299	0.00013	-2e-05	6e-05	5e-05	-8e-05	6e-05	0.00016	0.00015	3
38300	0.00027	0.00012	7e-05	8e-05	4e-05	-0.0001	-0.00012	-1e-05	3
38301	0.00027	0.00012	7e-05	8e-05	4e-05	-0.0001	-0.00012	-1e-05	3
38302	0.00021	4e-05	-1e-05	-4e-05	-2e-05	-6e-05	3e-05	0.00053	3
38303	0.00021	4e-05	-1e-05	-4e-05	-2e-05	-6e-05	3e-05	0.00053	3
38304	0.00021	4e-05	-1e-05	-4e-05	-2e-05	-6e-05	3e-05	0.00053	3
38305	0.00021	4e-05	-1e-05	-4e-05	-2e-05	-6e-05	3e-05	0.00053	3
38306	0.00021	4e-05	-1e-05	-4e-05	-2e-05	-6e-05	3e-05	0.00053	3
38307	0.00021	4e-05	-1e-05	-4e-05	-2e-05	-6e-05	3e-05	0.00053	3
38308	0.00021	4e-05	-1e-05	-4e-05	-2e-05	-6e-05	3e-05	0.00053	3
38309	0.00021	4e-05	-1e-05	-4e-05	-2e-05	-6e-05	3e-05	0.00053	3
38310	0.00021	4e-05	-1e-05	-4e-05	-2e-05	-6e-05	3e-05	0.00053	3
38311	0.00021	4e-05	-1e-05	-4e-05	-2e-05	-6e-05	3e-05	0.00053	3
38312	0.00021	4e-05	-1e-05	-4e-05	-2e-05	-6e-05	3e-05	0.00053	3
38313	0.00021	4e-05	-1e-05	-4e-05	-2e-05	-6e-05	3e-05	0.00053	3
38314	0.00021	4e-05	-1e-05	-4e-05	-2e-05	-6e-05	3e-05	0.00053	3
38315	-0.00065	-0.00013	-2e-05	-4e-05	-0.00021	-0.00019	-0.00054	-0.00012	3
38316	-0.00065	-0.00013	-2e-05	-4e-05	-0.00021	-0.00019	-0.00054	-0.00012	3
38317	-0.00065	-0.00013	-2e-05	-4e-05	-0.00021	-0.00019	-0.00054	-0.00012	3
38318	-0.00065	-0.00013	-2e-05	-4e-05	-0.00021	-0.00019	-0.00054	-0.00012	3
38319	-0.00065	-0.00013	-2e-05	-4e-05	-0.00021	-0.00019	-0.00054	-0.00012	3
38320	0.00066	0.00011	0	-2e-05	2e-05	0.00012	-0.00013	0.00022	3
38321	0.00066	0.00011	0	-2e-05	2e-05	0.00012	-0.00013	0.00022	3
38322	0.00066	0.00011	0	-2e-05	2e-05	0.00012	-0.00013	0.00022	3
38323	0.00066	0.00011	0	-2e-05	2e-05	0.00012	-0.00013	0.00022	3
38324	0.00066	0.00011	0	-2e-05	2e-05	0.00012	-0.00013	0.00022	3
38325	0.00066	0.00011	0	-2e-05	2e-05	0.00012	-0.00013	0.00022	3
38326	0.00066	0.00011	0	-2e-05	2e-05	0.00012	-0.00013	0.00022	3
38327	0.00066	0.00011	0	-2e-05	2e-05	0.00012	-0.00013	0.00022	3
38328	0.00066	0.00011	0	-2e-05	2e-05	0.00012	-0.00013	0.00022	3
38329	0.00066	0.00011	0	-2e-05	2e-05	0.00012	-0.00013	0.00022	3
38330	0.00066	0.00011	0	-2e-05	2e-05	0.00012	-0.00013	0.00022	3
38331	0.00066	0.00011	0	-2e-05	2e-05	0.00012	-0.00013	0.00022	3
38332	0.00066	0.00011	0	-2e-05	2e-05	0.00012	-0.00013	0.00022	3
38333	0.00066	0.00011	0	-2e-05	2e-05	0.00012	-0.00013	0.00022	3
38334	0.00066	0.00011	0	-2e-05	2e-05	0.00012	-0.00013	0.00022	3
38335	0.00066	0.00011	0	-2e-05	2e-05	0.00012	-0.00013	0.00022	3
38336	-8e-05	0	-1e-05	-1e-05	-3e-05	-6e-05	-0.00011	-0.00019	3
38338	-0.00064	-0.00013	-7e-05	-0.0001	-0.00024	-0.00016	-0.00011	-0.0001	3
38339	-0.00064	-0.00013	-7e-05	-0.0001	-0.00024	-0.00016	-0.00011	-0.0001	3
38340	-0.00064	-0.00013	-7e-05	-0.0001	-0.00024	-0.00016	-0.00011	-0.0001	3
38341	-0.00064	-0.00013	-7e-05	-0.0001	-0.00024	-0.00016	-0.00011	-0.0001	3
38342	-0.00064	-0.00013	-7e-05	-0.0001	-0.00024	-0.00016	-0.00011	-0.0001	3
38343	-0.00064	-0.00013	-7e-05	-0.0001	-0.00024	-0.00016	-0.00011	-0.0001	3
38344	-0.00064	-0.00013	-7e-05	-0.0001	-0.00024	-0.00016	-0.00011	-0.0001	3
38345	-0.00064	-0.00013	-7e-05	-0.0001	-0.00024	-0.00016	-0.00011	-0.0001	3
38346	-0.00064	-0.00013	-7e-05	-0.0001	-0.00024	-0.00016	-0.00011	-0.0001	3
38347	-0.00064	-0.00013	-7e-05	-0.0001	-0.00024	-0.00016	-0.00011	-0.0001	3
38348	-0.00064	-0.00013	-7e-05	-0.0001	-0.00024	-0.00016	-0.00011	-0.0001	3
38349	-0.00064	-0.00013	-7e-05	-0.0001	-0.00024	-0.00016	-0.00011	-0.0001	3
38350	-0.00064	-0.00013	-7e-05	-0.0001	-0.00024	-0.00016	-0.00011	-0.0001	3
38351	-0.0001	-0.00013	5e-05	0.00014	0.00026	0.00011	0.00027	0.00033	3
38352	-0.0001	-0.00013	5e-05	0.00014	0.00026	0.00011	0.00027	0.00033	3
38353	-0.0001	-0.00013	5e-05	0.00014	0.00026	0.00011	0.00027	0.00033	3
38354	-0.0001	-0.00013	5e-05	0.00014	0.00026	0.00011	0.00027	0.00033	3
38355	-0.0001	-0.00013	5e-05	0.00014	0.00026	0.00011	0.00027	0.00033	3
38356	-0.0001	-0.00013	5e-05	0.00014	0.00026	0.00011	0.00027	0.00033	3
38357	-9e-05	-2e-05	-4e-05	-7e-05	-6e-05	-6e-05	1e-05	-0.00039	3
38358	-9e-05	-2e-05	-4e-05	-7e-05	-6e-05	-6e-05	1e-05	-0.00039	3
38359	-9e-05	-2e-05	-4e-05	-7e-05	-6e-05	-6e-05	1e-05	-0.00039	3
38360	-9e-05	-2e-05	-4e-05	-7e-05	-6e-05	-6e-05	1e-05	-0.00039	3
38361	-9e-05	-2e-05	-4e-05	-7e-05	-6e-05	-6e-05	1e-05	-0.00039	3
38362	-9e-05	-2e-05	-4e-05	-7e-05	-6e-05	-6e-05	1e-05	-0.00039	3
38363	-9e-05	-2e-05	-4e-05	-7e-05	-6e-05	-6e-05	1e-05	-0.00039	3
38364	-9e-05	-2e-05	-4e-05	-7e-05	-6e-05	-6e-05	1e-05	-0.00039	3
38365	-9e-05	-2e-05	-4e-05	-7e-05	-6e-05	-6e-05	1e-05	-0.00039	3
38366	-9e-05	-2e-05	-4e-05	-7e-05	-6e-05	-6e-05	1e-05	-0.00039	3
38367	-9e-05	-2e-05	-4e-05	-7e-05	-6e-05	-6e-05	1e-05	-0.00039	3
38368	-9e-05	-2e-05	-4e-05	-7e-05	-6e-05	-6e-05	1e-05	-0.00039	3
38369	-9e-05	-2e-05	-4e-05	-7e-05	-6e-05	-6e-05	1e-05	-0.00039	3
38370	-9e-05	-2e-05	-4e-05	-7e-05	-6e-05	-6e-05	1e-05	-0.00039	3
38371	-9e-05	-2e-05	-4e-05	-7e-05	-6e-05	-6e-05	1e-05	-0.00039	3
38372	-9e-05	-2e-05	-4e-05	-7e-05	-6e-05	-6e-05	1e-05	-0.00039	3
38373	-9e-05	-2e-05	-4e-05	-7e-05	-6e-05	-6e-05	1e-05	-0.00039	3
38374	0.00085	0.00021	0.00015	0.0001	0.00013	-0.00011	0.00017	0.00019	3
38375	-0.00063	-0.00012	4e-05	1e-05	-4e-05	8e-05	0.00025	-0.00047	3
38376	-0.00063	-0.00012	4e-05	1e-05	-4e-05	8e-05	0.00025	-0.00047	3
38377	-0.00063	-0.00012	4e-05	1e-05	-4e-05	8e-05	0.00025	-0.00047	3
38378	-0.00063	-0.00012	4e-05	1e-05	-4e-05	8e-05	0.00025	-0.00047	3
38379	-0.00063	-0.00012	4e-05	1e-05	-4e-05	8e-05	0.00025	-0.00047	3
38380	-0.00063	-0.00012	4e-05	1e-05	-4e-05	8e-05	0.00025	-0.00047	3
38381	-0.00063	-0.00012	4e-05	1e-05	-4e-05	8e-05	0.00025	-0.00047	3
38382	-0.00063	-0.00012	4e-05	1e-05	-4e-05	8e-05	0.00025	-0.00047	3
38383	-0.00063	-0.00012	4e-05	1e-05	-4e-05	8e-05	0.00025	-0.00047	3
38384	-0.00063	-0.00012	4e-05	1e-05	-4e-05	8e-05	0.00025	-0.00047	3
38385	-0.00063	-0.00012	4e-05	1e-05	-4e-05	8e-05	0.00025	-0.00047	3
38386	-0.00063	-0.00012	4e-05	1e-05	-4e-05	8e-05	0.00025	-0.00047	3
38388	-0.00063	-0.00012	4e-05	1e-05	-4e-05	8e-05	0.00025	-0.00047	3
38389	-0.00063	-0.00012	4e-05	1e-05	-4e-05	8e-05	0.00025	-0.00047	3
38390	-0.00063	-0.00012	4e-05	1e-05	-4e-05	8e-05	0.00025	-0.00047	3
38391	-0.00063	-0.00012	4e-05	1e-05	-4e-05	8e-05	0.00025	-0.00047	3
38392	-0.00063	-0.00012	4e-05	1e-05	-4e-05	8e-05	0.00025	-0.00047	3
38393	-0.00063	-0.00012	4e-05	1e-05	-4e-05	8e-05	0.00025	-0.00047	3
38394	-0.00063	-0.00012	4e-05	1e-05	-4e-05	8e-05	0.00025	-0.00047	3
38395	-0.00063	-0.00012	4e-05	1e-05	-4e-05	8e-05	0.00025	-0.00047	3
38396	-0.00063	-0.00012	4e-05	1e-05	-4e-05	8e-05	0.00025	-0.00047	3
38397	-0.00063	-0.00012	4e-05	1e-05	-4e-05	8e-05	0.00025	-0.00047	3
38398	-0.00063	-0.00012	4e-05	1e-05	-4e-05	8e-05	0.00025	-0.00047	3
38399	-0.00063	-0.00012	4e-05	1e-05	-4e-05	8e-05	0.00025	-0.00047	3
38400	-0.00063	-0.00012	4e-05	1e-05	-4e-05	8e-05	0.00025	-0.00047	3
38401	-0.00063	-0.00012	4e-05	1e-05	-4e-05	8e-05	0.00025	-0.00047	3
38402	-0.00063	-0.00012	4e-05	1e-05	-4e-05	8e-05	0.00025	-0.00047	3
38403	-0.00063	-0.00012	4e-05	1e-05	-4e-05	8e-05	0.00025	-0.00047	3
38404	0.00042	5e-05	-0.00012	-0.00016	-0.00024	-0.00016	9e-05	0.00039	3
38405	0.0002	-8e-05	-6e-05	-5e-05	-1e-05	2e-05	-5e-05	-0.00019	3
38406	0.0002	-8e-05	-6e-05	-5e-05	-1e-05	2e-05	-5e-05	-0.00019	3
38407	0.0002	-8e-05	-6e-05	-5e-05	-1e-05	2e-05	-5e-05	-0.00019	3
38408	0.0002	-8e-05	-6e-05	-5e-05	-1e-05	2e-05	-5e-05	-0.00019	3
38409	0.0002	-8e-05	-6e-05	-5e-05	-1e-05	2e-05	-5e-05	-0.00019	3
38410	0.00036	0.00014	6e-05	2e-05	-0.00019	-0.0002	4e-05	-0.00013	3
38411	-0.00093	-0.00031	-0.00012	0	-2e-05	0.0001	0.00014	-0.00058	3
38412	-0.00093	-0.00031	-0.00012	0	-2e-05	0.0001	0.00014	-0.00058	3
38413	-0.00093	-0.00031	-0.00012	0	-2e-05	0.0001	0.00014	-0.00058	3
38414	-0.00093	-0.00031	-0.00012	0	-2e-05	0.0001	0.00014	-0.00058	3
38415	-0.00093	-0.00031	-0.00012	0	-2e-05	0.0001	0.00014	-0.00058	3
38416	-0.00093	-0.00031	-0.00012	0	-2e-05	0.0001	0.00014	-0.00058	3
38417	0.00045	0.00013	2e-05	5e-05	-4e-05	-0.0001	-0.00014	0.00029	3
38418	0.00022	0.00013	-9e-05	-7e-05	2e-05	-7e-05	-0.00014	-3e-05	3
38419	0.00022	0.00013	-9e-05	-7e-05	2e-05	-7e-05	-0.00014	-3e-05	3
38420	0.00022	0.00013	-9e-05	-7e-05	2e-05	-7e-05	-0.00014	-3e-05	3
38421	0.00022	0.00013	-9e-05	-7e-05	2e-05	-7e-05	-0.00014	-3e-05	3
38422	0.00022	0.00013	-9e-05	-7e-05	2e-05	-7e-05	-0.00014	-3e-05	3
38423	0.00022	0.00013	-9e-05	-7e-05	2e-05	-7e-05	-0.00014	-3e-05	3
38424	0.00022	0.00013	-9e-05	-7e-05	2e-05	-7e-05	-0.00014	-3e-05	3
38425	0.00022	0.00013	-9e-05	-7e-05	2e-05	-7e-05	-0.00014	-3e-05	3
38426	0.00022	0.00013	-9e-05	-7e-05	2e-05	-7e-05	-0.00014	-3e-05	3
38427	0.00022	0.00013	-9e-05	-7e-05	2e-05	-7e-05	-0.00014	-3e-05	3
38428	0.00022	0.00013	-9e-05	-7e-05	2e-05	-7e-05	-0.00014	-3e-05	3
38429	0.00022	0.00013	-9e-05	-7e-05	2e-05	-7e-05	-0.00014	-3e-05	3
38430	0.00022	0.00013	-9e-05	-7e-05	2e-05	-7e-05	-0.00014	-3e-05	3
38431	0.00022	0.00013	-9e-05	-7e-05	2e-05	-7e-05	-0.00014	-3e-05	3
38432	0.00022	0.00013	-9e-05	-7e-05	2e-05	-7e-05	-0.00014	-3e-05	3
38433	0.00022	0.00013	-9e-05	-7e-05	2e-05	-7e-05	-0.00014	-3e-05	3
38434	-0.00031	2e-05	-2e-05	-0.0001	-6e-05	4e-05	-2e-05	-0.00011	3
38435	-0.00031	2e-05	-2e-05	-0.0001	-6e-05	4e-05	-2e-05	-0.00011	3
38436	-0.00026	-0.0001	-7e-05	-7e-05	-9e-05	0.00027	0.00021	6e-05	3
38438	-0.00026	-0.0001	-7e-05	-7e-05	-9e-05	0.00027	0.00021	6e-05	3
38439	-0.00026	-0.0001	-7e-05	-7e-05	-9e-05	0.00027	0.00021	6e-05	3
38440	-0.00026	-0.0001	-7e-05	-7e-05	-9e-05	0.00027	0.00021	6e-05	3
38441	-0.00026	-0.0001	-7e-05	-7e-05	-9e-05	0.00027	0.00021	6e-05	3
38442	-0.00026	-0.0001	-7e-05	-7e-05	-9e-05	0.00027	0.00021	6e-05	3
38443	-0.00026	-0.0001	-7e-05	-7e-05	-9e-05	0.00027	0.00021	6e-05	3
38444	-0.00026	-0.0001	-7e-05	-7e-05	-9e-05	0.00027	0.00021	6e-05	3
38445	-0.00026	-0.0001	-7e-05	-7e-05	-9e-05	0.00027	0.00021	6e-05	3
38446	-0.00026	-0.0001	-7e-05	-7e-05	-9e-05	0.00027	0.00021	6e-05	3
38447	-0.00026	-0.0001	-7e-05	-7e-05	-9e-05	0.00027	0.00021	6e-05	3
38448	-0.00026	-0.0001	-7e-05	-7e-05	-9e-05	0.00027	0.00021	6e-05	3
38449	-0.00026	-0.0001	-7e-05	-7e-05	-9e-05	0.00027	0.00021	6e-05	3
38450	-0.00026	-0.0001	-7e-05	-7e-05	-9e-05	0.00027	0.00021	6e-05	3
38451	-0.00026	-0.0001	-7e-05	-7e-05	-9e-05	0.00027	0.00021	6e-05	3
38452	-0.00026	-0.0001	-7e-05	-7e-05	-9e-05	0.00027	0.00021	6e-05	3
38453	-0.00026	-0.0001	-7e-05	-7e-05	-9e-05	0.00027	0.00021	6e-05	3
38454	-0.00026	-0.0001	-7e-05	-7e-05	-9e-05	0.00027	0.00021	6e-05	3
38455	-0.00026	-0.0001	-7e-05	-7e-05	-9e-05	0.00027	0.00021	6e-05	3
38456	0.00024	7e-05	6e-05	4e-05	8e-05	-0.00011	-0.00036	8e-05	3
38457	0.00024	7e-05	6e-05	4e-05	8e-05	-0.00011	-0.00036	8e-05	3
38458	0.00052	0.00015	0	1e-05	9e-05	3e-05	-0.00024	0.00017	3
38459	0.00052	0.00015	0	1e-05	9e-05	3e-05	-0.00024	0.00017	3
38460	0.00052	0.00015	0	1e-05	9e-05	3e-05	-0.00024	0.00017	3
38461	0.00052	0.00015	0	1e-05	9e-05	3e-05	-0.00024	0.00017	3
38462	0.00052	0.00015	0	1e-05	9e-05	3e-05	-0.00024	0.00017	3
38463	0.00052	0.00015	0	1e-05	9e-05	3e-05	-0.00024	0.00017	3
38464	0.00052	0.00015	0	1e-05	9e-05	3e-05	-0.00024	0.00017	3
38465	0.00052	0.00015	0	1e-05	9e-05	3e-05	-0.00024	0.00017	3
38466	0.00052	0.00015	0	1e-05	9e-05	3e-05	-0.00024	0.00017	3
38467	0.00052	0.00015	0	1e-05	9e-05	3e-05	-0.00024	0.00017	3
38468	0.00052	0.00015	0	1e-05	9e-05	3e-05	-0.00024	0.00017	3
38469	0.00052	0.00015	0	1e-05	9e-05	3e-05	-0.00024	0.00017	3
38470	0.00052	0.00015	0	1e-05	9e-05	3e-05	-0.00024	0.00017	3
38471	-0.00063	-7e-05	-9e-05	-0.00013	-8e-05	-0.00012	-0.00012	-0.00023	3
38473	-0.00063	-7e-05	-9e-05	-0.00013	-8e-05	-0.00012	-0.00012	-0.00023	3
38474	-0.00063	-7e-05	-9e-05	-0.00013	-8e-05	-0.00012	-0.00012	-0.00023	3
38475	-0.00063	-7e-05	-9e-05	-0.00013	-8e-05	-0.00012	-0.00012	-0.00023	3
38476	-0.00063	-7e-05	-9e-05	-0.00013	-8e-05	-0.00012	-0.00012	-0.00023	3
38477	0.00015	-6e-05	2e-05	5e-05	-5e-05	-0.00018	-0.00017	0.00012	3
38478	0.00015	-6e-05	2e-05	5e-05	-5e-05	-0.00018	-0.00017	0.00012	3
38479	0.00015	-6e-05	2e-05	5e-05	-5e-05	-0.00018	-0.00017	0.00012	3
38480	0.00015	-6e-05	2e-05	5e-05	-5e-05	-0.00018	-0.00017	0.00012	3
38481	0.00015	-6e-05	2e-05	5e-05	-5e-05	-0.00018	-0.00017	0.00012	3
38482	0.00015	-6e-05	2e-05	5e-05	-5e-05	-0.00018	-0.00017	0.00012	3
38483	0.00015	-6e-05	2e-05	5e-05	-5e-05	-0.00018	-0.00017	0.00012	3
38484	0.00015	-6e-05	2e-05	5e-05	-5e-05	-0.00018	-0.00017	0.00012	3
38485	0.00015	-6e-05	2e-05	5e-05	-5e-05	-0.00018	-0.00017	0.00012	3
38486	0.00015	-6e-05	2e-05	5e-05	-5e-05	-0.00018	-0.00017	0.00012	3
38488	0.00015	-6e-05	2e-05	5e-05	-5e-05	-0.00018	-0.00017	0.00012	3
38489	0.00015	-6e-05	2e-05	5e-05	-5e-05	-0.00018	-0.00017	0.00012	3
38490	0.00015	-6e-05	2e-05	5e-05	-5e-05	-0.00018	-0.00017	0.00012	3
38491	0.00015	-6e-05	2e-05	5e-05	-5e-05	-0.00018	-0.00017	0.00012	3
38492	0.00015	-6e-05	2e-05	5e-05	-5e-05	-0.00018	-0.00017	0.00012	3
38493	0.00015	-6e-05	2e-05	5e-05	-5e-05	-0.00018	-0.00017	0.00012	3
38494	0.00053	0.00011	3e-05	3e-05	-4e-05	0	-0.00018	-0.00025	3
38495	-0.00024	3e-05	0	-6e-05	-0.00014	-8e-05	-6e-05	9e-05	3
38496	-0.00024	3e-05	0	-6e-05	-0.00014	-8e-05	-6e-05	9e-05	3
38497	-0.00024	3e-05	0	-6e-05	-0.00014	-8e-05	-6e-05	9e-05	3
38498	-0.00024	3e-05	0	-6e-05	-0.00014	-8e-05	-6e-05	9e-05	3
38499	-0.00024	3e-05	0	-6e-05	-0.00014	-8e-05	-6e-05	9e-05	3
38500	-0.00024	3e-05	0	-6e-05	-0.00014	-8e-05	-6e-05	9e-05	3
38501	-0.00024	3e-05	0	-6e-05	-0.00014	-8e-05	-6e-05	9e-05	3
38502	-0.00024	3e-05	0	-6e-05	-0.00014	-8e-05	-6e-05	9e-05	3
38503	-0.00024	3e-05	0	-6e-05	-0.00014	-8e-05	-6e-05	9e-05	3
38504	-0.00024	3e-05	0	-6e-05	-0.00014	-8e-05	-6e-05	9e-05	3
38505	-0.00024	3e-05	0	-6e-05	-0.00014	-8e-05	-6e-05	9e-05	3
38506	-0.00024	3e-05	0	-6e-05	-0.00014	-8e-05	-6e-05	9e-05	3
38507	-0.00024	3e-05	0	-6e-05	-0.00014	-8e-05	-6e-05	9e-05	3
38508	-0.00024	3e-05	0	-6e-05	-0.00014	-8e-05	-6e-05	9e-05	3
38509	-0.00024	3e-05	0	-6e-05	-0.00014	-8e-05	-6e-05	9e-05	3
38510	-0.00024	3e-05	0	-6e-05	-0.00014	-8e-05	-6e-05	9e-05	3
38511	-0.00024	3e-05	0	-6e-05	-0.00014	-8e-05	-6e-05	9e-05	3
38512	-0.00024	3e-05	0	-6e-05	-0.00014	-8e-05	-6e-05	9e-05	3
38513	-0.00024	3e-05	0	-6e-05	-0.00014	-8e-05	-6e-05	9e-05	3
38514	-0.00024	3e-05	0	-6e-05	-0.00014	-8e-05	-6e-05	9e-05	3
38515	-0.00024	3e-05	0	-6e-05	-0.00014	-8e-05	-6e-05	9e-05	3
38516	-0.00024	3e-05	0	-6e-05	-0.00014	-8e-05	-6e-05	9e-05	3
38517	-0.00101	-7e-05	6e-05	7e-05	-5e-05	1e-05	-4e-05	-0.00055	3
38518	0.00027	1e-05	0	-5e-05	0	-7e-05	3e-05	9e-05	3
38519	0.00027	1e-05	0	-5e-05	0	-7e-05	3e-05	9e-05	3
38520	0.00027	1e-05	0	-5e-05	0	-7e-05	3e-05	9e-05	3
38521	0.00027	1e-05	0	-5e-05	0	-7e-05	3e-05	9e-05	3
38522	0.00027	1e-05	0	-5e-05	0	-7e-05	3e-05	9e-05	3
38523	0.00027	1e-05	0	-5e-05	0	-7e-05	3e-05	9e-05	3
38524	0.00027	1e-05	0	-5e-05	0	-7e-05	3e-05	9e-05	3
38525	0.00027	1e-05	0	-5e-05	0	-7e-05	3e-05	9e-05	3
38526	0.00027	1e-05	0	-5e-05	0	-7e-05	3e-05	9e-05	3
38527	0.00027	1e-05	0	-5e-05	0	-7e-05	3e-05	9e-05	3
38528	0.00027	1e-05	0	-5e-05	0	-7e-05	3e-05	9e-05	3
38529	0.00027	1e-05	0	-5e-05	0	-7e-05	3e-05	9e-05	3
38530	0.00027	1e-05	0	-5e-05	0	-7e-05	3e-05	9e-05	3
38532	0.00027	1e-05	0	-5e-05	0	-7e-05	3e-05	9e-05	3
38533	-0.00016	-1e-05	1e-05	1e-05	4e-05	3e-05	0.0001	0.00035	3
38534	-0.00016	-1e-05	1e-05	1e-05	4e-05	3e-05	0.0001	0.00035	3
38535	-0.00016	-1e-05	1e-05	1e-05	4e-05	3e-05	0.0001	0.00035	3
38536	-0.00016	-1e-05	1e-05	1e-05	4e-05	3e-05	0.0001	0.00035	3
38538	-0.00016	-1e-05	1e-05	1e-05	4e-05	3e-05	0.0001	0.00035	3
38539	-0.00016	-1e-05	1e-05	1e-05	4e-05	3e-05	0.0001	0.00035	3
38540	-0.00016	-1e-05	1e-05	1e-05	4e-05	3e-05	0.0001	0.00035	3
38541	-0.00016	-1e-05	1e-05	1e-05	4e-05	3e-05	0.0001	0.00035	3
38542	-0.00016	-1e-05	1e-05	1e-05	4e-05	3e-05	0.0001	0.00035	3
38543	-0.00016	-1e-05	1e-05	1e-05	4e-05	3e-05	0.0001	0.00035	3
38544	-0.00016	-1e-05	1e-05	1e-05	4e-05	3e-05	0.0001	0.00035	3
38545	0.00076	0.00016	-7e-05	-7e-05	-3e-05	-0.00021	-9e-05	0.00044	3
38546	0.00076	0.00016	-7e-05	-7e-05	-3e-05	-0.00021	-9e-05	0.00044	3
38547	0.00076	0.00016	-7e-05	-7e-05	-3e-05	-0.00021	-9e-05	0.00044	3
38548	0.00076	0.00016	-7e-05	-7e-05	-3e-05	-0.00021	-9e-05	0.00044	3
38549	0.00076	0.00016	-7e-05	-7e-05	-3e-05	-0.00021	-9e-05	0.00044	3
38550	0.00076	0.00016	-7e-05	-7e-05	-3e-05	-0.00021	-9e-05	0.00044	3
38551	0.00076	0.00016	-7e-05	-7e-05	-3e-05	-0.00021	-9e-05	0.00044	3
38552	0.00076	0.00016	-7e-05	-7e-05	-3e-05	-0.00021	-9e-05	0.00044	3
38553	0.00076	0.00016	-7e-05	-7e-05	-3e-05	-0.00021	-9e-05	0.00044	3
38554	0.00076	0.00016	-7e-05	-7e-05	-3e-05	-0.00021	-9e-05	0.00044	3
38555	-0.0005	-0.00019	-8e-05	-3e-05	-6e-05	0	0.00023	0.00028	3
38556	-0.0005	-0.00019	-8e-05	-3e-05	-6e-05	0	0.00023	0.00028	3
38557	-0.0005	-0.00019	-8e-05	-3e-05	-6e-05	0	0.00023	0.00028	3
38558	-0.0005	-0.00019	-8e-05	-3e-05	-6e-05	0	0.00023	0.00028	3
38561	-0.0005	-0.00019	-8e-05	-3e-05	-6e-05	0	0.00023	0.00028	3
38562	-0.0005	-0.00019	-8e-05	-3e-05	-6e-05	0	0.00023	0.00028	3
38563	-0.0005	-0.00019	-8e-05	-3e-05	-6e-05	0	0.00023	0.00028	3
38564	-0.0005	-0.00019	-8e-05	-3e-05	-6e-05	0	0.00023	0.00028	3
38565	-0.0005	-0.00019	-8e-05	-3e-05	-6e-05	0	0.00023	0.00028	3
38566	-0.0005	-0.00019	-8e-05	-3e-05	-6e-05	0	0.00023	0.00028	3
38567	0.0002	2e-05	-3e-05	-8e-05	-0.00013	-0.0002	-0.00013	0.00018	3
38568	-7e-05	-3e-05	-7e-05	-8e-05	7e-05	1e-05	0.00011	-0.00018	3
38569	-7e-05	-3e-05	-7e-05	-8e-05	7e-05	1e-05	0.00011	-0.00018	3
38570	-7e-05	-3e-05	-7e-05	-8e-05	7e-05	1e-05	0.00011	-0.00018	3
38571	-7e-05	-3e-05	-7e-05	-8e-05	7e-05	1e-05	0.00011	-0.00018	3
38572	-7e-05	-3e-05	-7e-05	-8e-05	7e-05	1e-05	0.00011	-0.00018	3
38573	-7e-05	-3e-05	-7e-05	-8e-05	7e-05	1e-05	0.00011	-0.00018	3
38574	-7e-05	-3e-05	-7e-05	-8e-05	7e-05	1e-05	0.00011	-0.00018	3
38575	-7e-05	-3e-05	-7e-05	-8e-05	7e-05	1e-05	0.00011	-0.00018	3
38576	0.00035	4e-05	-2e-05	-6e-05	-7e-05	-0.00011	-0.00017	-0.00023	3
38577	0.00035	4e-05	-2e-05	-6e-05	-7e-05	-0.00011	-0.00017	-0.00023	3
38578	-0.00068	-0.00044	-1e-05	6e-05	0	9e-05	0.00027	-0.0002	3
38579	-0.00068	-0.00044	-1e-05	6e-05	0	9e-05	0.00027	-0.0002	3
38580	-0.00068	-0.00044	-1e-05	6e-05	0	9e-05	0.00027	-0.0002	3
38581	-0.00068	-0.00044	-1e-05	6e-05	0	9e-05	0.00027	-0.0002	3
38582	-0.00068	-0.00044	-1e-05	6e-05	0	9e-05	0.00027	-0.0002	3
38583	-0.00068	-0.00044	-1e-05	6e-05	0	9e-05	0.00027	-0.0002	3
38584	-0.00068	-0.00044	-1e-05	6e-05	0	9e-05	0.00027	-0.0002	3
38585	-0.00068	-0.00044	-1e-05	6e-05	0	9e-05	0.00027	-0.0002	3
38586	-0.00068	-0.00044	-1e-05	6e-05	0	9e-05	0.00027	-0.0002	3
38588	-0.00068	-0.00044	-1e-05	6e-05	0	9e-05	0.00027	-0.0002	3
38589	-0.00068	-0.00044	-1e-05	6e-05	0	9e-05	0.00027	-0.0002	3
38590	-0.00068	-0.00044	-1e-05	6e-05	0	9e-05	0.00027	-0.0002	3
38591	-0.00068	-0.00044	-1e-05	6e-05	0	9e-05	0.00027	-0.0002	3
38592	-0.00068	-0.00044	-1e-05	6e-05	0	9e-05	0.00027	-0.0002	3
38593	-0.00068	-0.00044	-1e-05	6e-05	0	9e-05	0.00027	-0.0002	3
38594	-0.00068	-0.00044	-1e-05	6e-05	0	9e-05	0.00027	-0.0002	3
38595	-0.00068	-0.00044	-1e-05	6e-05	0	9e-05	0.00027	-0.0002	3
38596	-0.00068	-0.00044	-1e-05	6e-05	0	9e-05	0.00027	-0.0002	3
38597	-0.00068	-0.00044	-1e-05	6e-05	0	9e-05	0.00027	-0.0002	3
38598	-0.00068	-0.00044	-1e-05	6e-05	0	9e-05	0.00027	-0.0002	3
38599	-0.00068	-0.00044	-1e-05	6e-05	0	9e-05	0.00027	-0.0002	3
38600	-0.00068	-0.00044	-1e-05	6e-05	0	9e-05	0.00027	-0.0002	3
38601	-0.00068	-0.00044	-1e-05	6e-05	0	9e-05	0.00027	-0.0002	3
38602	-0.00068	-0.00044	-1e-05	6e-05	0	9e-05	0.00027	-0.0002	3
38603	-0.00068	-0.00044	-1e-05	6e-05	0	9e-05	0.00027	-0.0002	3
38604	-0.00068	-0.00044	-1e-05	6e-05	0	9e-05	0.00027	-0.0002	3
38605	-0.00068	-0.00044	-1e-05	6e-05	0	9e-05	0.00027	-0.0002	3
38606	-0.00068	-0.00044	-1e-05	6e-05	0	9e-05	0.00027	-0.0002	3
38607	-0.00068	-0.00044	-1e-05	6e-05	0	9e-05	0.00027	-0.0002	3
38608	-0.00068	-0.00044	-1e-05	6e-05	0	9e-05	0.00027	-0.0002	3
38609	-0.00068	-0.00044	-1e-05	6e-05	0	9e-05	0.00027	-0.0002	3
38610	-0.00068	-0.00044	-1e-05	6e-05	0	9e-05	0.00027	-0.0002	3
38611	-0.00068	-0.00044	-1e-05	6e-05	0	9e-05	0.00027	-0.0002	3
38612	-0.00068	-0.00044	-1e-05	6e-05	0	9e-05	0.00027	-0.0002	3
38613	-0.00068	-0.00044	-1e-05	6e-05	0	9e-05	0.00027	-0.0002	3
38614	-0.00068	-0.00044	-1e-05	6e-05	0	9e-05	0.00027	-0.0002	3
38616	-0.00068	-0.00044	-1e-05	6e-05	0	9e-05	0.00027	-0.0002	3
38617	-0.00068	-0.00044	-1e-05	6e-05	0	9e-05	0.00027	-0.0002	3
38618	-0.00068	-0.00044	-1e-05	6e-05	0	9e-05	0.00027	-0.0002	3
38619	-0.00068	-0.00044	-1e-05	6e-05	0	9e-05	0.00027	-0.0002	3
38620	-0.00068	-0.00044	-1e-05	6e-05	0	9e-05	0.00027	-0.0002	3
38621	-0.00068	-0.00044	-1e-05	6e-05	0	9e-05	0.00027	-0.0002	3
38622	-0.00068	-0.00044	-1e-05	6e-05	0	9e-05	0.00027	-0.0002	3
38623	-0.00068	-0.00044	-1e-05	6e-05	0	9e-05	0.00027	-0.0002	3
38624	-0.00068	-0.00044	-1e-05	6e-05	0	9e-05	0.00027	-0.0002	3
38625	-0.00068	-0.00044	-1e-05	6e-05	0	9e-05	0.00027	-0.0002	3
38626	-0.00068	-0.00044	-1e-05	6e-05	0	9e-05	0.00027	-0.0002	3
38627	-0.00068	-0.00044	-1e-05	6e-05	0	9e-05	0.00027	-0.0002	3
38628	-0.00068	-0.00044	-1e-05	6e-05	0	9e-05	0.00027	-0.0002	3
38629	-0.00068	-0.00044	-1e-05	6e-05	0	9e-05	0.00027	-0.0002	3
38630	0.00015	3e-05	5e-05	9e-05	4e-05	-1e-05	-6e-05	0.00016	3
38631	0.00015	3e-05	5e-05	9e-05	4e-05	-1e-05	-6e-05	0.00016	3
38632	-0.0007	-8e-05	1e-05	-1e-05	-8e-05	-0.00012	-0.00012	-0.00016	3
38633	0.00058	6e-05	2e-05	2e-05	-4e-05	-0.00016	0.00014	0.0003	3
38634	0.00058	6e-05	2e-05	2e-05	-4e-05	-0.00016	0.00014	0.0003	3
38635	0.00058	6e-05	2e-05	2e-05	-4e-05	-0.00016	0.00014	0.0003	3
38636	0.00058	6e-05	2e-05	2e-05	-4e-05	-0.00016	0.00014	0.0003	3
38638	0.00058	6e-05	2e-05	2e-05	-4e-05	-0.00016	0.00014	0.0003	3
38639	-0.00014	-1e-05	1e-05	-4e-05	-8e-05	3e-05	-0.00028	-0.0002	3
38640	-0.00014	-1e-05	1e-05	-4e-05	-8e-05	3e-05	-0.00028	-0.0002	3
38641	-0.00014	-1e-05	1e-05	-4e-05	-8e-05	3e-05	-0.00028	-0.0002	3
38642	8e-05	2e-05	-1e-05	-2e-05	8e-05	7e-05	-8e-05	0.00024	3
38643	8e-05	2e-05	-1e-05	-2e-05	8e-05	7e-05	-8e-05	0.00024	3
38644	8e-05	2e-05	-1e-05	-2e-05	8e-05	7e-05	-8e-05	0.00024	3
38645	8e-05	2e-05	-1e-05	-2e-05	8e-05	7e-05	-8e-05	0.00024	3
38646	8e-05	2e-05	-1e-05	-2e-05	8e-05	7e-05	-8e-05	0.00024	3
38647	8e-05	2e-05	-1e-05	-2e-05	8e-05	7e-05	-8e-05	0.00024	3
38648	8e-05	2e-05	-1e-05	-2e-05	8e-05	7e-05	-8e-05	0.00024	3
38649	8e-05	2e-05	-1e-05	-2e-05	8e-05	7e-05	-8e-05	0.00024	3
38650	-0.00076	-0.0003	-0.00011	-8e-05	-2e-05	0.00013	9e-05	-0.00029	3
38651	-0.00076	-0.0003	-0.00011	-8e-05	-2e-05	0.00013	9e-05	-0.00029	3
38652	-0.00076	-0.0003	-0.00011	-8e-05	-2e-05	0.00013	9e-05	-0.00029	3
38653	-0.00076	-0.0003	-0.00011	-8e-05	-2e-05	0.00013	9e-05	-0.00029	3
38654	-0.00076	-0.0003	-0.00011	-8e-05	-2e-05	0.00013	9e-05	-0.00029	3
38655	-0.00076	-0.0003	-0.00011	-8e-05	-2e-05	0.00013	9e-05	-0.00029	3
38656	-0.00076	-0.0003	-0.00011	-8e-05	-2e-05	0.00013	9e-05	-0.00029	3
38657	-0.00076	-0.0003	-0.00011	-8e-05	-2e-05	0.00013	9e-05	-0.00029	3
38658	-0.00076	-0.0003	-0.00011	-8e-05	-2e-05	0.00013	9e-05	-0.00029	3
38659	-0.00076	-0.0003	-0.00011	-8e-05	-2e-05	0.00013	9e-05	-0.00029	3
38660	-0.00076	-0.0003	-0.00011	-8e-05	-2e-05	0.00013	9e-05	-0.00029	3
38661	-0.00076	-0.0003	-0.00011	-8e-05	-2e-05	0.00013	9e-05	-0.00029	3
38662	-0.00076	-0.0003	-0.00011	-8e-05	-2e-05	0.00013	9e-05	-0.00029	3
38663	-0.00076	-0.0003	-0.00011	-8e-05	-2e-05	0.00013	9e-05	-0.00029	3
38664	-0.00076	-0.0003	-0.00011	-8e-05	-2e-05	0.00013	9e-05	-0.00029	3
38665	-0.00076	-0.0003	-0.00011	-8e-05	-2e-05	0.00013	9e-05	-0.00029	3
38666	-0.00076	-0.0003	-0.00011	-8e-05	-2e-05	0.00013	9e-05	-0.00029	3
38667	-0.00076	-0.0003	-0.00011	-8e-05	-2e-05	0.00013	9e-05	-0.00029	3
38668	-0.00076	-0.0003	-0.00011	-8e-05	-2e-05	0.00013	9e-05	-0.00029	3
38669	-0.00076	-0.0003	-0.00011	-8e-05	-2e-05	0.00013	9e-05	-0.00029	3
38670	-0.00076	-0.0003	-0.00011	-8e-05	-2e-05	0.00013	9e-05	-0.00029	3
38671	-0.00076	-0.0003	-0.00011	-8e-05	-2e-05	0.00013	9e-05	-0.00029	3
38672	-0.00076	-0.0003	-0.00011	-8e-05	-2e-05	0.00013	9e-05	-0.00029	3
38673	-0.00076	-0.0003	-0.00011	-8e-05	-2e-05	0.00013	9e-05	-0.00029	3
38674	-0.00076	-0.0003	-0.00011	-8e-05	-2e-05	0.00013	9e-05	-0.00029	3
38675	-0.00076	-0.0003	-0.00011	-8e-05	-2e-05	0.00013	9e-05	-0.00029	3
38676	-0.00076	-0.0003	-0.00011	-8e-05	-2e-05	0.00013	9e-05	-0.00029	3
38677	-0.00076	-0.0003	-0.00011	-8e-05	-2e-05	0.00013	9e-05	-0.00029	3
38678	-0.00076	-0.0003	-0.00011	-8e-05	-2e-05	0.00013	9e-05	-0.00029	3
38679	-0.00076	-0.0003	-0.00011	-8e-05	-2e-05	0.00013	9e-05	-0.00029	3
38680	-0.00076	-0.0003	-0.00011	-8e-05	-2e-05	0.00013	9e-05	-0.00029	3
38681	-0.00076	-0.0003	-0.00011	-8e-05	-2e-05	0.00013	9e-05	-0.00029	3
38682	-0.00076	-0.0003	-0.00011	-8e-05	-2e-05	0.00013	9e-05	-0.00029	3
38683	-0.00061	-8e-05	-2e-05	1e-05	0.00016	0.00021	-0.00014	-0.00038	3
38684	-0.00025	-6e-05	-4e-05	1e-05	5e-05	1e-05	-9e-05	3e-05	3
38685	-0.00025	-6e-05	-4e-05	1e-05	5e-05	1e-05	-9e-05	3e-05	3
38686	-0.00025	-6e-05	-4e-05	1e-05	5e-05	1e-05	-9e-05	3e-05	3
38688	-0.00026	-8e-05	-6e-05	-7e-05	-6e-05	-0.00015	-0.00022	-0.0003	3
38689	-0.00026	-8e-05	-6e-05	-7e-05	-6e-05	-0.00015	-0.00022	-0.0003	3
38690	-0.00026	-8e-05	-6e-05	-7e-05	-6e-05	-0.00015	-0.00022	-0.0003	3
38691	-0.00026	-8e-05	-6e-05	-7e-05	-6e-05	-0.00015	-0.00022	-0.0003	3
38692	-0.00026	-8e-05	-6e-05	-7e-05	-6e-05	-0.00015	-0.00022	-0.0003	3
38693	-0.00026	-8e-05	-6e-05	-7e-05	-6e-05	-0.00015	-0.00022	-0.0003	3
38694	-0.00026	-8e-05	-6e-05	-7e-05	-6e-05	-0.00015	-0.00022	-0.0003	3
38695	-0.00026	-8e-05	-6e-05	-7e-05	-6e-05	-0.00015	-0.00022	-0.0003	3
38696	0.00056	5e-05	-4e-05	4e-05	0.00024	6e-05	-0.00015	3e-05	3
38697	0.00056	5e-05	-4e-05	4e-05	0.00024	6e-05	-0.00015	3e-05	3
38698	-0.00096	-0.0003	-6e-05	-6e-05	1e-05	0.00014	0.00014	-7e-05	3
38699	0.00023	0.00012	5e-05	5e-05	-5e-05	-6e-05	1e-05	4e-05	3
38700	0.00023	0.00012	5e-05	5e-05	-5e-05	-6e-05	1e-05	4e-05	3
38701	0.00023	0.00012	5e-05	5e-05	-5e-05	-6e-05	1e-05	4e-05	3
38702	0.00023	0.00012	5e-05	5e-05	-5e-05	-6e-05	1e-05	4e-05	3
38703	0.00023	0.00012	5e-05	5e-05	-5e-05	-6e-05	1e-05	4e-05	3
38704	0.00023	0.00012	5e-05	5e-05	-5e-05	-6e-05	1e-05	4e-05	3
38705	0.00023	0.00012	5e-05	5e-05	-5e-05	-6e-05	1e-05	4e-05	3
38706	0.00023	0.00012	5e-05	5e-05	-5e-05	-6e-05	1e-05	4e-05	3
38707	0.00023	0.00012	5e-05	5e-05	-5e-05	-6e-05	1e-05	4e-05	3
38708	0.00023	0.00012	5e-05	5e-05	-5e-05	-6e-05	1e-05	4e-05	3
38709	0.00023	0.00012	5e-05	5e-05	-5e-05	-6e-05	1e-05	4e-05	3
38710	0.00023	0.00012	5e-05	5e-05	-5e-05	-6e-05	1e-05	4e-05	3
38711	0.00023	0.00012	5e-05	5e-05	-5e-05	-6e-05	1e-05	4e-05	3
38712	0.00023	0.00012	5e-05	5e-05	-5e-05	-6e-05	1e-05	4e-05	3
38713	0.00023	0.00012	5e-05	5e-05	-5e-05	-6e-05	1e-05	4e-05	3
38714	0.00023	0.00012	5e-05	5e-05	-5e-05	-6e-05	1e-05	4e-05	3
38715	0.00023	0.00012	5e-05	5e-05	-5e-05	-6e-05	1e-05	4e-05	3
38716	0.00023	0.00012	5e-05	5e-05	-5e-05	-6e-05	1e-05	4e-05	3
38717	0.00023	0.00012	5e-05	5e-05	-5e-05	-6e-05	1e-05	4e-05	3
38718	0.00023	0.00012	5e-05	5e-05	-5e-05	-6e-05	1e-05	4e-05	3
38719	0.00023	0.00012	5e-05	5e-05	-5e-05	-6e-05	1e-05	4e-05	3
38720	0.00023	0.00012	5e-05	5e-05	-5e-05	-6e-05	1e-05	4e-05	3
38721	0.00023	0.00012	5e-05	5e-05	-5e-05	-6e-05	1e-05	4e-05	3
38722	0.00023	0.00012	5e-05	5e-05	-5e-05	-6e-05	1e-05	4e-05	3
38723	0.00023	0.00012	5e-05	5e-05	-5e-05	-6e-05	1e-05	4e-05	3
38724	0.00023	0.00012	5e-05	5e-05	-5e-05	-6e-05	1e-05	4e-05	3
38725	0.00023	0.00012	5e-05	5e-05	-5e-05	-6e-05	1e-05	4e-05	3
38726	0.00023	0.00012	5e-05	5e-05	-5e-05	-6e-05	1e-05	4e-05	3
38727	0.00023	0.00012	5e-05	5e-05	-5e-05	-6e-05	1e-05	4e-05	3
38728	0.00023	0.00012	5e-05	5e-05	-5e-05	-6e-05	1e-05	4e-05	3
38729	0.00023	0.00012	5e-05	5e-05	-5e-05	-6e-05	1e-05	4e-05	3
38730	0.00023	0.00012	5e-05	5e-05	-5e-05	-6e-05	1e-05	4e-05	3
38731	0.00023	0.00012	5e-05	5e-05	-5e-05	-6e-05	1e-05	4e-05	3
38732	0.00023	0.00012	5e-05	5e-05	-5e-05	-6e-05	1e-05	4e-05	3
38733	0.00023	0.00012	5e-05	5e-05	-5e-05	-6e-05	1e-05	4e-05	3
38734	0.00023	0.00012	5e-05	5e-05	-5e-05	-6e-05	1e-05	4e-05	3
38735	0.00023	0.00012	5e-05	5e-05	-5e-05	-6e-05	1e-05	4e-05	3
38736	0.00023	0.00012	5e-05	5e-05	-5e-05	-6e-05	1e-05	4e-05	3
38738	0.00023	0.00012	5e-05	5e-05	-5e-05	-6e-05	1e-05	4e-05	3
38739	0.00023	0.00012	5e-05	5e-05	-5e-05	-6e-05	1e-05	4e-05	3
38740	0.00023	0.00012	5e-05	5e-05	-5e-05	-6e-05	1e-05	4e-05	3
38741	0.00023	0.00012	5e-05	5e-05	-5e-05	-6e-05	1e-05	4e-05	3
38742	0.00023	0.00012	5e-05	5e-05	-5e-05	-6e-05	1e-05	4e-05	3
38743	0.00035	5e-05	-1e-05	-6e-05	-0.00011	-8e-05	0.00012	0.00018	3
38744	0.00035	5e-05	-1e-05	-6e-05	-0.00011	-8e-05	0.00012	0.00018	3
38745	-0.00078	-0.00014	-5e-05	-5e-05	-0.00011	-5e-05	0.00011	-0.00021	3
38746	0.00014	9e-05	8e-05	0.0001	0.00018	0.00016	0.00019	9e-05	3
38747	0.00014	9e-05	8e-05	0.0001	0.00018	0.00016	0.00019	9e-05	3
38748	0.00014	9e-05	8e-05	0.0001	0.00018	0.00016	0.00019	9e-05	3
38749	0.00014	9e-05	8e-05	0.0001	0.00018	0.00016	0.00019	9e-05	3
38750	0.00014	9e-05	8e-05	0.0001	0.00018	0.00016	0.00019	9e-05	3
38751	0.00014	9e-05	8e-05	0.0001	0.00018	0.00016	0.00019	9e-05	3
38752	0.00014	9e-05	8e-05	0.0001	0.00018	0.00016	0.00019	9e-05	3
38753	0.00014	9e-05	8e-05	0.0001	0.00018	0.00016	0.00019	9e-05	3
38754	0.00014	9e-05	8e-05	0.0001	0.00018	0.00016	0.00019	9e-05	3
38755	0.00014	9e-05	8e-05	0.0001	0.00018	0.00016	0.00019	9e-05	3
38756	0.00014	9e-05	8e-05	0.0001	0.00018	0.00016	0.00019	9e-05	3
38757	0.00014	9e-05	8e-05	0.0001	0.00018	0.00016	0.00019	9e-05	3
38758	0.00014	9e-05	8e-05	0.0001	0.00018	0.00016	0.00019	9e-05	3
38759	0.00014	9e-05	8e-05	0.0001	0.00018	0.00016	0.00019	9e-05	3
38760	0.00014	9e-05	8e-05	0.0001	0.00018	0.00016	0.00019	9e-05	3
38761	0.00014	9e-05	8e-05	0.0001	0.00018	0.00016	0.00019	9e-05	3
38762	0.00014	9e-05	8e-05	0.0001	0.00018	0.00016	0.00019	9e-05	3
38763	0.00014	9e-05	8e-05	0.0001	0.00018	0.00016	0.00019	9e-05	3
38764	0.00014	9e-05	8e-05	0.0001	0.00018	0.00016	0.00019	9e-05	3
38765	0.00014	9e-05	8e-05	0.0001	0.00018	0.00016	0.00019	9e-05	3
38766	0.00014	9e-05	8e-05	0.0001	0.00018	0.00016	0.00019	9e-05	3
38767	0.00014	9e-05	8e-05	0.0001	0.00018	0.00016	0.00019	9e-05	3
38768	0.00014	9e-05	8e-05	0.0001	0.00018	0.00016	0.00019	9e-05	3
38769	0.00014	9e-05	8e-05	0.0001	0.00018	0.00016	0.00019	9e-05	3
38770	0.00014	9e-05	8e-05	0.0001	0.00018	0.00016	0.00019	9e-05	3
38771	0.00014	9e-05	8e-05	0.0001	0.00018	0.00016	0.00019	9e-05	3
38772	0.00014	9e-05	8e-05	0.0001	0.00018	0.00016	0.00019	9e-05	3
