801	3e-05	-2e-05	-4e-05	0	-0.00012	-3e-05	-1e-05	-2e-05	1
802	3e-05	-2e-05	-4e-05	0	-0.00012	-3e-05	-1e-05	-2e-05	1
803	3e-05	-2e-05	-4e-05	0	-0.00012	-3e-05	-1e-05	-2e-05	1
804	3e-05	-2e-05	-4e-05	0	-0.00012	-3e-05	-1e-05	-2e-05	1
805	3e-05	-2e-05	-4e-05	0	-0.00012	-3e-05	-1e-05	-2e-05	1
806	3e-05	-2e-05	-4e-05	0	-0.00012	-3e-05	-1e-05	-2e-05	1
807	3e-05	-2e-05	-4e-05	0	-0.00012	-3e-05	-1e-05	-2e-05	1
808	3e-05	-2e-05	-4e-05	0	-0.00012	-3e-05	-1e-05	-2e-05	1
809	3e-05	-2e-05	-4e-05	0	-0.00012	-3e-05	-1e-05	-2e-05	1
810	3e-05	-2e-05	-4e-05	0	-0.00012	-3e-05	-1e-05	-2e-05	1
811	1e-05	1e-05	-3e-05	-6e-05	-0.00011	-2e-05	-1e-05	-1e-05	1
812	4e-05	-1e-05	2e-05	0.00016	1e-05	2e-05	1e-05	0	1
813	4e-05	-1e-05	2e-05	0.00016	1e-05	2e-05	1e-05	0	1
814	4e-05	-1e-05	2e-05	0.00016	1e-05	2e-05	1e-05	0	1
815	4e-05	-1e-05	2e-05	0.00016	1e-05	2e-05	1e-05	0	1
816	4e-05	-1e-05	2e-05	0.00016	1e-05	2e-05	1e-05	0	1
817	4e-05	-1e-05	2e-05	0.00016	1e-05	2e-05	1e-05	0	1
818	4e-05	-1e-05	2e-05	0.00016	1e-05	2e-05	1e-05	0	1
819	4e-05	-1e-05	2e-05	0.00016	1e-05	2e-05	1e-05	0	1
820	4e-05	-1e-05	2e-05	0.00016	1e-05	2e-05	1e-05	0	1
821	4e-05	-1e-05	2e-05	0.00016	1e-05	2e-05	1e-05	0	1
822	4e-05	-1e-05	2e-05	0.00016	1e-05	2e-05	1e-05	0	1
823	4e-05	-1e-05	2e-05	0.00016	1e-05	2e-05	1e-05	0	1
824	4e-05	-1e-05	2e-05	0.00016	1e-05	2e-05	1e-05	0	1
825	4e-05	-1e-05	2e-05	0.00016	1e-05	2e-05	1e-05	0	1
826	-3e-05	-5e-05	-2e-05	4e-05	-5e-05	-2e-05	-2e-05	1e-05	1
827	2e-05	1e-05	5e-05	3e-05	2e-05	-1e-05	-1e-05	0	1
828	2e-05	1e-05	5e-05	3e-05	2e-05	-1e-05	-1e-05	0	1
829	2e-05	1e-05	5e-05	3e-05	2e-05	-1e-05	-1e-05	0	1
830	2e-05	1e-05	5e-05	3e-05	2e-05	-1e-05	-1e-05	0	1
831	2e-05	1e-05	5e-05	3e-05	2e-05	-1e-05	-1e-05	0	1
832	2e-05	1e-05	5e-05	3e-05	2e-05	-1e-05	-1e-05	0	1
833	2e-05	1e-05	5e-05	3e-05	2e-05	-1e-05	-1e-05	0	1
834	2e-05	1e-05	5e-05	3e-05	2e-05	-1e-05	-1e-05	0	1
835	2e-05	1e-05	5e-05	3e-05	2e-05	-1e-05	-1e-05	0	1
836	2e-05	1e-05	5e-05	3e-05	2e-05	-1e-05	-1e-05	0	1
838	2e-05	1e-05	5e-05	3e-05	2e-05	-1e-05	-1e-05	0	1
839	2e-05	1e-05	5e-05	3e-05	2e-05	-1e-05	-1e-05	0	1
840	2e-05	1e-05	5e-05	3e-05	2e-05	-1e-05	-1e-05	0	1
841	2e-05	1e-05	5e-05	3e-05	2e-05	-1e-05	-1e-05	0	1
842	2e-05	1e-05	5e-05	3e-05	2e-05	-1e-05	-1e-05	0	1
843	2e-05	1e-05	5e-05	3e-05	2e-05	-1e-05	-1e-05	0	1
844	2e-05	1e-05	5e-05	3e-05	2e-05	-1e-05	-1e-05	0	1
845	2e-05	1e-05	5e-05	3e-05	2e-05	-1e-05	-1e-05	0	1
846	2e-05	1e-05	5e-05	3e-05	2e-05	-1e-05	-1e-05	0	1
847	2e-05	1e-05	5e-05	3e-05	2e-05	-1e-05	-1e-05	0	1
848	2e-05	1e-05	5e-05	3e-05	2e-05	-1e-05	-1e-05	0	1
849	2e-05	1e-05	5e-05	3e-05	2e-05	-1e-05	-1e-05	0	1
850	2e-05	1e-05	5e-05	3e-05	2e-05	-1e-05	-1e-05	0	1
851	2e-05	1e-05	5e-05	3e-05	2e-05	-1e-05	-1e-05	0	1
852	2e-05	1e-05	5e-05	3e-05	2e-05	-1e-05	-1e-05	0	1
853	2e-05	1e-05	5e-05	3e-05	2e-05	-1e-05	-1e-05	0	1
854	2e-05	1e-05	5e-05	3e-05	2e-05	-1e-05	-1e-05	0	1
855	2e-05	1e-05	5e-05	3e-05	2e-05	-1e-05	-1e-05	0	1
856	-5e-05	0	-5e-05	2e-05	-4e-05	0	0	-2e-05	1
857	-2e-05	-3e-05	-3e-05	-2e-05	-2e-05	-1e-05	-2e-05	-3e-05	1
858	-2e-05	-3e-05	-3e-05	-2e-05	-2e-05	-1e-05	-2e-05	-3e-05	1
859	-2e-05	-3e-05	-3e-05	-2e-05	-2e-05	-1e-05	-2e-05	-3e-05	1
860	-2e-05	-3e-05	-3e-05	-2e-05	-2e-05	-1e-05	-2e-05	-3e-05	1
861	-2e-05	-3e-05	-3e-05	-2e-05	-2e-05	-1e-05	-2e-05	-3e-05	1
862	-2e-05	-3e-05	-3e-05	-2e-05	-2e-05	-1e-05	-2e-05	-3e-05	1
863	-2e-05	-3e-05	-3e-05	-2e-05	-2e-05	-1e-05	-2e-05	-3e-05	1
864	-2e-05	-3e-05	-3e-05	-2e-05	-2e-05	-1e-05	-2e-05	-3e-05	1
865	-2e-05	-3e-05	-3e-05	-2e-05	-2e-05	-1e-05	-2e-05	-3e-05	1
866	-2e-05	-3e-05	-3e-05	-2e-05	-2e-05	-1e-05	-2e-05	-3e-05	1
867	-2e-05	-3e-05	-3e-05	-2e-05	-2e-05	-1e-05	-2e-05	-3e-05	1
868	-2e-05	-3e-05	-3e-05	-2e-05	-2e-05	-1e-05	-2e-05	-3e-05	1
869	-2e-05	-3e-05	-3e-05	-2e-05	-2e-05	-1e-05	-2e-05	-3e-05	1
870	-2e-05	-3e-05	-3e-05	-2e-05	-2e-05	-1e-05	-2e-05	-3e-05	1
871	-3e-05	-3e-05	2e-05	3e-05	-0.0001	-2e-05	0	-2e-05	1
872	-5e-05	1e-05	-1e-05	-4e-05	0	-2e-05	-2e-05	-1e-05	1
873	-5e-05	1e-05	-1e-05	-4e-05	0	-2e-05	-2e-05	-1e-05	1
874	-5e-05	1e-05	-1e-05	-4e-05	0	-2e-05	-2e-05	-1e-05	1
875	-5e-05	1e-05	-1e-05	-4e-05	0	-2e-05	-2e-05	-1e-05	1
876	-5e-05	1e-05	-1e-05	-4e-05	0	-2e-05	-2e-05	-1e-05	1
877	-5e-05	1e-05	-1e-05	-4e-05	0	-2e-05	-2e-05	-1e-05	1
878	-5e-05	1e-05	-1e-05	-4e-05	0	-2e-05	-2e-05	-1e-05	1
879	-5e-05	1e-05	-1e-05	-4e-05	0	-2e-05	-2e-05	-1e-05	1
880	-5e-05	1e-05	-1e-05	-4e-05	0	-2e-05	-2e-05	-1e-05	1
881	-5e-05	1e-05	-1e-05	-4e-05	0	-2e-05	-2e-05	-1e-05	1
882	-5e-05	1e-05	-1e-05	-4e-05	0	-2e-05	-2e-05	-1e-05	1
883	-5e-05	1e-05	-1e-05	-4e-05	0	-2e-05	-2e-05	-1e-05	1
884	-5e-05	1e-05	-1e-05	-4e-05	0	-2e-05	-2e-05	-1e-05	1
885	-5e-05	1e-05	-1e-05	-4e-05	0	-2e-05	-2e-05	-1e-05	1
886	-6e-05	-3e-05	-6e-05	-6e-05	-0.00014	-3e-05	-2e-05	-1e-05	1
888	-5e-05	-2e-05	-3e-05	-5e-05	1e-05	-2e-05	-1e-05	-3e-05	1
889	-5e-05	-2e-05	-3e-05	-5e-05	1e-05	-2e-05	-1e-05	-3e-05	1
890	-5e-05	-2e-05	-3e-05	-5e-05	1e-05	-2e-05	-1e-05	-3e-05	1
891	-5e-05	-2e-05	-3e-05	-5e-05	1e-05	-2e-05	-1e-05	-3e-05	1
892	-5e-05	-2e-05	-3e-05	-5e-05	1e-05	-2e-05	-1e-05	-3e-05	1
893	-5e-05	-2e-05	-3e-05	-5e-05	1e-05	-2e-05	-1e-05	-3e-05	1
894	-5e-05	-2e-05	-3e-05	-5e-05	1e-05	-2e-05	-1e-05	-3e-05	1
895	-5e-05	-2e-05	-3e-05	-5e-05	1e-05	-2e-05	-1e-05	-3e-05	1
896	-5e-05	-2e-05	-3e-05	-5e-05	1e-05	-2e-05	-1e-05	-3e-05	1
897	-5e-05	-2e-05	-3e-05	-5e-05	1e-05	-2e-05	-1e-05	-3e-05	1
898	-5e-05	-2e-05	-3e-05	-5e-05	1e-05	-2e-05	-1e-05	-3e-05	1
899	-5e-05	-2e-05	-3e-05	-5e-05	1e-05	-2e-05	-1e-05	-3e-05	1
900	-5e-05	-2e-05	-3e-05	-5e-05	1e-05	-2e-05	-1e-05	-3e-05	1
901	-5e-05	-2e-05	-3e-05	-5e-05	1e-05	-2e-05	-1e-05	-3e-05	1
902	-5e-05	-2e-05	-3e-05	-5e-05	1e-05	-2e-05	-1e-05	-3e-05	1
903	-5e-05	-2e-05	-3e-05	-5e-05	1e-05	-2e-05	-1e-05	-3e-05	1
904	-5e-05	-2e-05	-3e-05	-5e-05	1e-05	-2e-05	-1e-05	-3e-05	1
905	-5e-05	-2e-05	-3e-05	-5e-05	1e-05	-2e-05	-1e-05	-3e-05	1
906	-5e-05	-2e-05	-3e-05	-5e-05	1e-05	-2e-05	-1e-05	-3e-05	1
907	-5e-05	-2e-05	-3e-05	-5e-05	1e-05	-2e-05	-1e-05	-3e-05	1
908	-0.00013	0	1e-05	3e-05	7e-05	-1e-05	-2e-05	-2e-05	1
909	5e-05	0	-1e-05	0.00012	4e-05	-3e-05	0	0	1
910	5e-05	0	-1e-05	0.00012	4e-05	-3e-05	0	0	1
911	5e-05	0	-1e-05	0.00012	4e-05	-3e-05	0	0	1
912	5e-05	0	-1e-05	0.00012	4e-05	-3e-05	0	0	1
913	5e-05	0	-1e-05	0.00012	4e-05	-3e-05	0	0	1
914	5e-05	0	-1e-05	0.00012	4e-05	-3e-05	0	0	1
915	5e-05	0	-1e-05	0.00012	4e-05	-3e-05	0	0	1
916	5e-05	0	-1e-05	0.00012	4e-05	-3e-05	0	0	1
917	5e-05	0	-1e-05	0.00012	4e-05	-3e-05	0	0	1
918	5e-05	0	-1e-05	0.00012	4e-05	-3e-05	0	0	1
919	5e-05	0	-1e-05	0.00012	4e-05	-3e-05	0	0	1
920	5e-05	0	-1e-05	0.00012	4e-05	-3e-05	0	0	1
921	5e-05	0	-1e-05	0.00012	4e-05	-3e-05	0	0	1
922	5e-05	0	-1e-05	0.00012	4e-05	-3e-05	0	0	1
923	5e-05	0	-1e-05	0.00012	4e-05	-3e-05	0	0	1
924	5e-05	0	-1e-05	0.00012	4e-05	-3e-05	0	0	1
925	5e-05	0	-1e-05	0.00012	4e-05	-3e-05	0	0	1
926	5e-05	0	-1e-05	0.00012	4e-05	-3e-05	0	0	1
927	5e-05	0	-1e-05	0.00012	4e-05	-3e-05	0	0	1
928	5e-05	0	-1e-05	0.00012	4e-05	-3e-05	0	0	1
929	5e-05	0	-1e-05	0.00012	4e-05	-3e-05	0	0	1
930	5e-05	0	-1e-05	0.00012	4e-05	-3e-05	0	0	1
931	5e-05	0	-1e-05	0.00012	4e-05	-3e-05	0	0	1
932	5e-05	0	-1e-05	0.00012	4e-05	-3e-05	0	0	1
933	5e-05	0	-1e-05	0.00012	4e-05	-3e-05	0	0	1
934	5e-05	0	-1e-05	0.00012	4e-05	-3e-05	0	0	1
935	5e-05	0	-1e-05	0.00012	4e-05	-3e-05	0	0	1
936	5e-05	0	-1e-05	0.00012	4e-05	-3e-05	0	0	1
938	5e-05	0	-1e-05	0.00012	4e-05	-3e-05	0	0	1
939	-3e-05	0	-5e-05	-8e-05	7e-05	0	-3e-05	-1e-05	1
941	-3e-05	0	-5e-05	-8e-05	7e-05	0	-3e-05	-1e-05	1
942	-3e-05	0	-5e-05	-8e-05	7e-05	0	-3e-05	-1e-05	1
943	-3e-05	0	-5e-05	-8e-05	7e-05	0	-3e-05	-1e-05	1
944	-3e-05	0	-5e-05	-8e-05	7e-05	0	-3e-05	-1e-05	1
945	3e-05	1e-05	2e-05	6e-05	-2e-05	-2e-05	-1e-05	-1e-05	1
946	-4e-05	0	-3e-05	-8e-05	-1e-05	0	-2e-05	0	1
947	-4e-05	0	-3e-05	-8e-05	-1e-05	0	-2e-05	0	1
948	-4e-05	0	-3e-05	-8e-05	-1e-05	0	-2e-05	0	1
949	-4e-05	0	-3e-05	-8e-05	-1e-05	0	-2e-05	0	1
950	-4e-05	0	-3e-05	-8e-05	-1e-05	0	-2e-05	0	1
951	-4e-05	0	-3e-05	-8e-05	-1e-05	0	-2e-05	0	1
952	-4e-05	0	-3e-05	-8e-05	-1e-05	0	-2e-05	0	1
953	-4e-05	0	-3e-05	-8e-05	-1e-05	0	-2e-05	0	1
954	-4e-05	0	-3e-05	-8e-05	-1e-05	0	-2e-05	0	1
955	-4e-05	0	-3e-05	-8e-05	-1e-05	0	-2e-05	0	1
956	-4e-05	0	-3e-05	-8e-05	-1e-05	0	-2e-05	0	1
957	-4e-05	0	-3e-05	-8e-05	-1e-05	0	-2e-05	0	1
958	-4e-05	0	-3e-05	-8e-05	-1e-05	0	-2e-05	0	1
959	-4e-05	0	-3e-05	-8e-05	-1e-05	0	-2e-05	0	1
960	-4e-05	0	-3e-05	-8e-05	-1e-05	0	-2e-05	0	1
961	-4e-05	0	-3e-05	-8e-05	-1e-05	0	-2e-05	0	1
962	-4e-05	0	-3e-05	-8e-05	-1e-05	0	-2e-05	0	1
963	-4e-05	0	-3e-05	-8e-05	-1e-05	0	-2e-05	0	1
964	-4e-05	0	-3e-05	-8e-05	-1e-05	0	-2e-05	0	1
965	-4e-05	0	-3e-05	-8e-05	-1e-05	0	-2e-05	0	1
966	-4e-05	0	-3e-05	-8e-05	-1e-05	0	-2e-05	0	1
967	-4e-05	0	-3e-05	-8e-05	-1e-05	0	-2e-05	0	1
968	-6e-05	-1e-05	-1e-05	-6e-05	-9e-05	0	0	-2e-05	1
969	4e-05	-2e-05	1e-05	3e-05	-2e-05	-1e-05	0	0	1
970	4e-05	-2e-05	1e-05	3e-05	-2e-05	-1e-05	0	0	1
971	4e-05	-2e-05	1e-05	3e-05	-2e-05	-1e-05	0	0	1
972	4e-05	-2e-05	1e-05	3e-05	-2e-05	-1e-05	0	0	1
973	4e-05	-2e-05	1e-05	3e-05	-2e-05	-1e-05	0	0	1
974	4e-05	-2e-05	1e-05	3e-05	-2e-05	-1e-05	0	0	1
975	4e-05	-2e-05	1e-05	3e-05	-2e-05	-1e-05	0	0	1
976	4e-05	-2e-05	1e-05	3e-05	-2e-05	-1e-05	0	0	1
977	4e-05	-2e-05	1e-05	3e-05	-2e-05	-1e-05	0	0	1
978	4e-05	-2e-05	1e-05	3e-05	-2e-05	-1e-05	0	0	1
979	4e-05	-2e-05	1e-05	3e-05	-2e-05	-1e-05	0	0	1
980	4e-05	-2e-05	1e-05	3e-05	-2e-05	-1e-05	0	0	1
981	4e-05	-2e-05	1e-05	3e-05	-2e-05	-1e-05	0	0	1
982	4e-05	-2e-05	1e-05	3e-05	-2e-05	-1e-05	0	0	1
983	4e-05	-2e-05	1e-05	3e-05	-2e-05	-1e-05	0	0	1
984	4e-05	-2e-05	1e-05	3e-05	-2e-05	-1e-05	0	0	1
985	4e-05	-2e-05	1e-05	3e-05	-2e-05	-1e-05	0	0	1
986	4e-05	-2e-05	1e-05	3e-05	-2e-05	-1e-05	0	0	1
988	4e-05	-2e-05	1e-05	3e-05	-2e-05	-1e-05	0	0	1
989	4e-05	-2e-05	1e-05	3e-05	-2e-05	-1e-05	0	0	1
990	4e-05	-2e-05	1e-05	3e-05	-2e-05	-1e-05	0	0	1
991	4e-05	-2e-05	1e-05	3e-05	-2e-05	-1e-05	0	0	1
992	4e-05	-2e-05	1e-05	3e-05	-2e-05	-1e-05	0	0	1
993	4e-05	-2e-05	1e-05	3e-05	-2e-05	-1e-05	0	0	1
994	4e-05	-2e-05	1e-05	3e-05	-2e-05	-1e-05	0	0	1
995	4e-05	-2e-05	1e-05	3e-05	-2e-05	-1e-05	0	0	1
996	4e-05	-2e-05	1e-05	3e-05	-2e-05	-1e-05	0	0	1
997	4e-05	-2e-05	1e-05	3e-05	-2e-05	-1e-05	0	0	1
998	4e-05	-2e-05	1e-05	3e-05	-2e-05	-1e-05	0	0	1
999	5e-05	-2e-05	-5e-05	3e-05	-8e-05	-2e-05	-2e-05	-2e-05	1
1000	-0.00013	-2e-05	1e-05	-3e-05	6e-05	-2e-05	-1e-05	-2e-05	1
1001	-0.00013	-2e-05	1e-05	-3e-05	6e-05	-2e-05	-1e-05	-2e-05	1
1002	-0.00013	-2e-05	1e-05	-3e-05	6e-05	-2e-05	-1e-05	-2e-05	1
1003	-0.00013	-2e-05	1e-05	-3e-05	6e-05	-2e-05	-1e-05	-2e-05	1
1004	-0.00013	-2e-05	1e-05	-3e-05	6e-05	-2e-05	-1e-05	-2e-05	1
1005	-0.00013	-2e-05	1e-05	-3e-05	6e-05	-2e-05	-1e-05	-2e-05	1
1006	0	0	-3e-05	7e-05	6e-05	0	-1e-05	-1e-05	1
1007	0	0	-3e-05	7e-05	6e-05	0	-1e-05	-1e-05	1
1008	0	0	-3e-05	7e-05	6e-05	0	-1e-05	-1e-05	1
1009	0	0	-3e-05	7e-05	6e-05	0	-1e-05	-1e-05	1
1010	0	0	-3e-05	7e-05	6e-05	0	-1e-05	-1e-05	1
1011	0	0	-3e-05	7e-05	6e-05	0	-1e-05	-1e-05	1
1012	0	0	-3e-05	7e-05	6e-05	0	-1e-05	-1e-05	1
1013	0	0	-3e-05	7e-05	6e-05	0	-1e-05	-1e-05	1
1014	0	0	-3e-05	7e-05	6e-05	0	-1e-05	-1e-05	1
1015	0	0	-3e-05	7e-05	6e-05	0	-1e-05	-1e-05	1
1016	0	0	-3e-05	7e-05	6e-05	0	-1e-05	-1e-05	1
1017	0	0	-3e-05	7e-05	6e-05	0	-1e-05	-1e-05	1
1018	0	0	-3e-05	7e-05	6e-05	0	-1e-05	-1e-05	1
1019	0	0	-3e-05	7e-05	6e-05	0	-1e-05	-1e-05	1
1020	0	0	-3e-05	7e-05	6e-05	0	-1e-05	-1e-05	1
1021	0	0	-3e-05	7e-05	6e-05	0	-1e-05	-1e-05	1
1022	0	0	-3e-05	7e-05	6e-05	0	-1e-05	-1e-05	1
1023	0	0	-3e-05	7e-05	6e-05	0	-1e-05	-1e-05	1
1024	0	0	-3e-05	7e-05	6e-05	0	-1e-05	-1e-05	1
1025	0	0	-3e-05	7e-05	6e-05	0	-1e-05	-1e-05	1
1026	0	0	-3e-05	7e-05	6e-05	0	-1e-05	-1e-05	1
1027	0	0	-3e-05	7e-05	6e-05	0	-1e-05	-1e-05	1
1028	2e-05	2e-05	0	-1e-05	-7e-05	-2e-05	0	1e-05	1
1029	-0.00012	-0.0001	-5e-05	-2e-05	8e-05	-3e-05	-2e-05	-3e-05	1
1030	-0.00012	-0.0001	-5e-05	-2e-05	8e-05	-3e-05	-2e-05	-3e-05	1
1031	-0.00012	-0.0001	-5e-05	-2e-05	8e-05	-3e-05	-2e-05	-3e-05	1
1032	-0.00012	-0.0001	-5e-05	-2e-05	8e-05	-3e-05	-2e-05	-3e-05	1
1034	-0.00012	-0.0001	-5e-05	-2e-05	8e-05	-3e-05	-2e-05	-3e-05	1
1035	-0.00012	-0.0001	-5e-05	-2e-05	8e-05	-3e-05	-2e-05	-3e-05	1
1037	-0.00012	-0.0001	-5e-05	-2e-05	8e-05	-3e-05	-2e-05	-3e-05	1
1039	-0.00012	-0.0001	-5e-05	-2e-05	8e-05	-3e-05	-2e-05	-3e-05	1
1041	-0.00012	-0.0001	-5e-05	-2e-05	8e-05	-3e-05	-2e-05	-3e-05	1
1042	-0.00012	-0.0001	-5e-05	-2e-05	8e-05	-3e-05	-2e-05	-3e-05	1
1043	-0.00012	-0.0001	-5e-05	-2e-05	8e-05	-3e-05	-2e-05	-3e-05	1
1044	-0.00012	-0.0001	-5e-05	-2e-05	8e-05	-3e-05	-2e-05	-3e-05	1
1045	-0.00012	-0.0001	-5e-05	-2e-05	8e-05	-3e-05	-2e-05	-3e-05	1
1046	-0.00012	-0.0001	-5e-05	-2e-05	8e-05	-3e-05	-2e-05	-3e-05	1
1047	-0.00012	-0.0001	-5e-05	-2e-05	8e-05	-3e-05	-2e-05	-3e-05	1
1048	-0.00012	-0.0001	-5e-05	-2e-05	8e-05	-3e-05	-2e-05	-3e-05	1
1049	-0.00012	-0.0001	-5e-05	-2e-05	8e-05	-3e-05	-2e-05	-3e-05	1
1050	-0.00012	-0.0001	-5e-05	-2e-05	8e-05	-3e-05	-2e-05	-3e-05	1
1051	1e-05	0	-4e-05	-0.00022	-4e-05	0	-1e-05	0	1
1052	3e-05	2e-05	-3e-05	-8e-05	-5e-05	1e-05	1e-05	-1e-05	1
1053	3e-05	2e-05	-3e-05	-8e-05	-5e-05	1e-05	1e-05	-1e-05	1
1054	3e-05	2e-05	-3e-05	-8e-05	-5e-05	1e-05	1e-05	-1e-05	1
1055	3e-05	2e-05	-3e-05	-8e-05	-5e-05	1e-05	1e-05	-1e-05	1
1056	3e-05	2e-05	-3e-05	-8e-05	-5e-05	1e-05	1e-05	-1e-05	1
1057	3e-05	2e-05	-3e-05	-8e-05	-5e-05	1e-05	1e-05	-1e-05	1
1058	3e-05	2e-05	-3e-05	-8e-05	-5e-05	1e-05	1e-05	-1e-05	1
1059	3e-05	2e-05	-3e-05	-8e-05	-5e-05	1e-05	1e-05	-1e-05	1
1060	3e-05	2e-05	-3e-05	-8e-05	-5e-05	1e-05	1e-05	-1e-05	1
1061	3e-05	2e-05	-3e-05	-8e-05	-5e-05	1e-05	1e-05	-1e-05	1
1062	3e-05	2e-05	-3e-05	-8e-05	-5e-05	1e-05	1e-05	-1e-05	1
1063	3e-05	2e-05	-3e-05	-8e-05	-5e-05	1e-05	1e-05	-1e-05	1
1064	3e-05	2e-05	-3e-05	-8e-05	-5e-05	1e-05	1e-05	-1e-05	1
1065	-6e-05	-1e-05	-2e-05	6e-05	0.00027	0	-1e-05	1e-05	1
1066	-8e-05	-3e-05	-3e-05	6e-05	0.0002	2e-05	-2e-05	-2e-05	1
1067	-8e-05	-3e-05	-3e-05	6e-05	0.0002	2e-05	-2e-05	-2e-05	1
1068	-8e-05	-3e-05	-3e-05	6e-05	0.0002	2e-05	-2e-05	-2e-05	1
1069	-8e-05	-3e-05	-3e-05	6e-05	0.0002	2e-05	-2e-05	-2e-05	1
1070	-8e-05	-3e-05	-3e-05	6e-05	0.0002	2e-05	-2e-05	-2e-05	1
1071	-8e-05	-3e-05	-3e-05	6e-05	0.0002	2e-05	-2e-05	-2e-05	1
1072	-8e-05	-3e-05	-3e-05	6e-05	0.0002	2e-05	-2e-05	-2e-05	1
1073	-8e-05	-3e-05	-3e-05	6e-05	0.0002	2e-05	-2e-05	-2e-05	1
1074	-8e-05	-3e-05	-3e-05	6e-05	0.0002	2e-05	-2e-05	-2e-05	1
1075	-8e-05	-3e-05	-3e-05	6e-05	0.0002	2e-05	-2e-05	-2e-05	1
1076	-8e-05	-3e-05	-3e-05	6e-05	0.0002	2e-05	-2e-05	-2e-05	1
1077	-8e-05	-3e-05	-3e-05	6e-05	0.0002	2e-05	-2e-05	-2e-05	1
1078	-8e-05	-3e-05	-3e-05	6e-05	0.0002	2e-05	-2e-05	-2e-05	1
1079	-8e-05	-3e-05	-3e-05	6e-05	0.0002	2e-05	-2e-05	-2e-05	1
1080	-8e-05	-3e-05	-3e-05	6e-05	0.0002	2e-05	-2e-05	-2e-05	1
1081	-8e-05	-3e-05	-3e-05	6e-05	0.0002	2e-05	-2e-05	-2e-05	1
1082	-8e-05	-3e-05	-3e-05	6e-05	0.0002	2e-05	-2e-05	-2e-05	1
1083	-8e-05	-3e-05	-3e-05	6e-05	0.0002	2e-05	-2e-05	-2e-05	1
1084	-8e-05	-3e-05	-3e-05	6e-05	0.0002	2e-05	-2e-05	-2e-05	1
1085	-8e-05	-3e-05	-3e-05	6e-05	0.0002	2e-05	-2e-05	-2e-05	1
1086	-8e-05	-3e-05	-3e-05	6e-05	0.0002	2e-05	-2e-05	-2e-05	1
1089	5e-05	-2e-05	2e-05	-1e-05	-6e-05	-4e-05	-1e-05	-1e-05	1
1090	5e-05	-2e-05	2e-05	-1e-05	-6e-05	-4e-05	-1e-05	-1e-05	1
1091	5e-05	-2e-05	2e-05	-1e-05	-6e-05	-4e-05	-1e-05	-1e-05	1
1092	5e-05	-2e-05	2e-05	-1e-05	-6e-05	-4e-05	-1e-05	-1e-05	1
1093	5e-05	-2e-05	2e-05	-1e-05	-6e-05	-4e-05	-1e-05	-1e-05	1
1094	5e-05	-2e-05	2e-05	-1e-05	-6e-05	-4e-05	-1e-05	-1e-05	1
1095	5e-05	-2e-05	2e-05	-1e-05	-6e-05	-4e-05	-1e-05	-1e-05	1
1096	5e-05	-2e-05	2e-05	-1e-05	-6e-05	-4e-05	-1e-05	-1e-05	1
1097	5e-05	-2e-05	2e-05	-1e-05	-6e-05	-4e-05	-1e-05	-1e-05	1
1098	5e-05	-2e-05	2e-05	-1e-05	-6e-05	-4e-05	-1e-05	-1e-05	1
1099	5e-05	-2e-05	2e-05	-1e-05	-6e-05	-4e-05	-1e-05	-1e-05	1
1100	5e-05	-2e-05	2e-05	-1e-05	-6e-05	-4e-05	-1e-05	-1e-05	1
1101	5e-05	-2e-05	2e-05	-1e-05	-6e-05	-4e-05	-1e-05	-1e-05	1
1102	5e-05	-2e-05	2e-05	-1e-05	-6e-05	-4e-05	-1e-05	-1e-05	1
1103	5e-05	-2e-05	2e-05	-1e-05	-6e-05	-4e-05	-1e-05	-1e-05	1
1104	5e-05	-2e-05	2e-05	-1e-05	-6e-05	-4e-05	-1e-05	-1e-05	1
1105	5e-05	-2e-05	2e-05	-1e-05	-6e-05	-4e-05	-1e-05	-1e-05	1
1106	5e-05	-2e-05	2e-05	-1e-05	-6e-05	-4e-05	-1e-05	-1e-05	1
1107	5e-05	-2e-05	2e-05	-1e-05	-6e-05	-4e-05	-1e-05	-1e-05	1
1108	5e-05	-2e-05	2e-05	-1e-05	-6e-05	-4e-05	-1e-05	-1e-05	1
1109	5e-05	-2e-05	2e-05	-1e-05	-6e-05	-4e-05	-1e-05	-1e-05	1
1110	5e-05	-2e-05	2e-05	-1e-05	-6e-05	-4e-05	-1e-05	-1e-05	1
1111	5e-05	-2e-05	2e-05	-1e-05	-6e-05	-4e-05	-1e-05	-1e-05	1
1112	4e-05	-2e-05	0	-3e-05	-0.00023	-3e-05	1e-05	0	1
1113	4e-05	-2e-05	0	-3e-05	-0.00023	-3e-05	1e-05	0	1
1114	4e-05	-2e-05	0	-3e-05	-0.00023	-3e-05	1e-05	0	1
1115	4e-05	-2e-05	0	-3e-05	-0.00023	-3e-05	1e-05	0	1
1116	4e-05	-2e-05	0	-3e-05	-0.00023	-3e-05	1e-05	0	1
1117	4e-05	-2e-05	0	-3e-05	-0.00023	-3e-05	1e-05	0	1
1118	4e-05	-2e-05	0	-3e-05	-0.00023	-3e-05	1e-05	0	1
1119	4e-05	-2e-05	0	-3e-05	-0.00023	-3e-05	1e-05	0	1
1120	4e-05	-2e-05	0	-3e-05	-0.00023	-3e-05	1e-05	0	1
1121	4e-05	-2e-05	0	-3e-05	-0.00023	-3e-05	1e-05	0	1
1122	4e-05	-2e-05	0	-3e-05	-0.00023	-3e-05	1e-05	0	1
1123	4e-05	-2e-05	0	-3e-05	-0.00023	-3e-05	1e-05	0	1
1124	4e-05	-2e-05	0	-3e-05	-0.00023	-3e-05	1e-05	0	1
1125	4e-05	-2e-05	0	-3e-05	-0.00023	-3e-05	1e-05	0	1
1126	4e-05	-2e-05	0	-3e-05	-0.00023	-3e-05	1e-05	0	1
1127	4e-05	-2e-05	0	-3e-05	-0.00023	-3e-05	1e-05	0	1
1128	4e-05	-2e-05	0	-3e-05	-0.00023	-3e-05	1e-05	0	1
1129	4e-05	-2e-05	0	-3e-05	-0.00023	-3e-05	1e-05	0	1
1130	4e-05	-2e-05	0	-3e-05	-0.00023	-3e-05	1e-05	0	1
1131	4e-05	-2e-05	0	-3e-05	-0.00023	-3e-05	1e-05	0	1
1132	4e-05	-2e-05	0	-3e-05	-0.00023	-3e-05	1e-05	0	1
1133	-1e-05	-5e-05	-6e-05	-3e-05	-9e-05	-3e-05	-1e-05	-2e-05	1
1134	-8e-05	1e-05	-1e-05	-5e-05	-4e-05	0	-1e-05	2e-05	1
1135	-8e-05	1e-05	-1e-05	-5e-05	-4e-05	0	-1e-05	2e-05	1
1136	-8e-05	1e-05	-1e-05	-5e-05	-4e-05	0	-1e-05	2e-05	1
1138	-8e-05	1e-05	-1e-05	-5e-05	-4e-05	0	-1e-05	2e-05	1
1139	-8e-05	1e-05	-1e-05	-5e-05	-4e-05	0	-1e-05	2e-05	1
1140	-8e-05	1e-05	-1e-05	-5e-05	-4e-05	0	-1e-05	2e-05	1
1141	-8e-05	1e-05	-1e-05	-5e-05	-4e-05	0	-1e-05	2e-05	1
1142	-8e-05	1e-05	-1e-05	-5e-05	-4e-05	0	-1e-05	2e-05	1
1143	-8e-05	1e-05	-1e-05	-5e-05	-4e-05	0	-1e-05	2e-05	1
1144	-8e-05	1e-05	-1e-05	-5e-05	-4e-05	0	-1e-05	2e-05	1
1145	-8e-05	1e-05	-1e-05	-5e-05	-4e-05	0	-1e-05	2e-05	1
1146	-8e-05	1e-05	-1e-05	-5e-05	-4e-05	0	-1e-05	2e-05	1
1147	-8e-05	1e-05	-1e-05	-5e-05	-4e-05	0	-1e-05	2e-05	1
1148	-0.00012	-5e-05	-2e-05	7e-05	4e-05	-3e-05	0	-2e-05	1
1149	7e-05	0	0	-4e-05	-0.0001	-3e-05	-1e-05	-1e-05	1
1150	7e-05	0	0	-4e-05	-0.0001	-3e-05	-1e-05	-1e-05	1
1151	7e-05	0	0	-4e-05	-0.0001	-3e-05	-1e-05	-1e-05	1
1152	7e-05	0	0	-4e-05	-0.0001	-3e-05	-1e-05	-1e-05	1
1153	7e-05	0	0	-4e-05	-0.0001	-3e-05	-1e-05	-1e-05	1
1154	7e-05	0	0	-4e-05	-0.0001	-3e-05	-1e-05	-1e-05	1
1155	7e-05	0	0	-4e-05	-0.0001	-3e-05	-1e-05	-1e-05	1
1156	7e-05	0	0	-4e-05	-0.0001	-3e-05	-1e-05	-1e-05	1
1157	7e-05	0	0	-4e-05	-0.0001	-3e-05	-1e-05	-1e-05	1
1158	7e-05	0	0	-4e-05	-0.0001	-3e-05	-1e-05	-1e-05	1
1159	7e-05	0	0	-4e-05	-0.0001	-3e-05	-1e-05	-1e-05	1
1160	7e-05	0	0	-4e-05	-0.0001	-3e-05	-1e-05	-1e-05	1
1161	7e-05	0	0	-4e-05	-0.0001	-3e-05	-1e-05	-1e-05	1
1162	7e-05	0	0	-4e-05	-0.0001	-3e-05	-1e-05	-1e-05	1
1163	7e-05	0	0	-4e-05	-0.0001	-3e-05	-1e-05	-1e-05	1
1164	7e-05	0	0	-4e-05	-0.0001	-3e-05	-1e-05	-1e-05	1
1165	7e-05	0	0	-4e-05	-0.0001	-3e-05	-1e-05	-1e-05	1
1166	7e-05	0	0	-4e-05	-0.0001	-3e-05	-1e-05	-1e-05	1
1167	7e-05	0	0	-4e-05	-0.0001	-3e-05	-1e-05	-1e-05	1
1168	7e-05	0	0	-4e-05	-0.0001	-3e-05	-1e-05	-1e-05	1
1169	7e-05	0	0	-4e-05	-0.0001	-3e-05	-1e-05	-1e-05	1
1170	7e-05	0	0	-4e-05	-0.0001	-3e-05	-1e-05	-1e-05	1
1171	-1e-05	2e-05	-4e-05	-6e-05	-5e-05	-2e-05	-1e-05	-1e-05	1
1172	-1e-05	2e-05	-4e-05	-6e-05	-5e-05	-2e-05	-1e-05	-1e-05	1
1173	-9e-05	0	0	-2e-05	-6e-05	-1e-05	-2e-05	-3e-05	1
1174	-9e-05	0	0	-2e-05	-6e-05	-1e-05	-2e-05	-3e-05	1
1175	-9e-05	0	0	-2e-05	-6e-05	-1e-05	-2e-05	-3e-05	1
1176	-9e-05	0	0	-2e-05	-6e-05	-1e-05	-2e-05	-3e-05	1
1177	-9e-05	0	0	-2e-05	-6e-05	-1e-05	-2e-05	-3e-05	1
1178	-9e-05	0	0	-2e-05	-6e-05	-1e-05	-2e-05	-3e-05	1
1179	-9e-05	0	0	-2e-05	-6e-05	-1e-05	-2e-05	-3e-05	1
1180	-9e-05	0	0	-2e-05	-6e-05	-1e-05	-2e-05	-3e-05	1
1181	-9e-05	0	0	-2e-05	-6e-05	-1e-05	-2e-05	-3e-05	1
1182	-9e-05	0	0	-2e-05	-6e-05	-1e-05	-2e-05	-3e-05	1
1183	-9e-05	0	0	-2e-05	-6e-05	-1e-05	-2e-05	-3e-05	1
1184	-9e-05	0	0	-2e-05	-6e-05	-1e-05	-2e-05	-3e-05	1
1185	4e-05	2e-05	-1e-05	-3e-05	-2e-05	-1e-05	0	-3e-05	1
1186	-0.0001	1e-05	0.00014	0.00018	-0.0001	-1e-05	-2e-05	-3e-05	1
1188	-0.0001	1e-05	0.00014	0.00018	-0.0001	-1e-05	-2e-05	-3e-05	1
1189	-0.0001	1e-05	0.00014	0.00018	-0.0001	-1e-05	-2e-05	-3e-05	1
1190	-0.0001	1e-05	0.00014	0.00018	-0.0001	-1e-05	-2e-05	-3e-05	1
1191	-0.0001	1e-05	0.00014	0.00018	-0.0001	-1e-05	-2e-05	-3e-05	1
1192	-0.0001	1e-05	0.00014	0.00018	-0.0001	-1e-05	-2e-05	-3e-05	1
1193	-0.0001	1e-05	0.00014	0.00018	-0.0001	-1e-05	-2e-05	-3e-05	1
1194	-0.0001	1e-05	0.00014	0.00018	-0.0001	-1e-05	-2e-05	-3e-05	1
1195	-0.0001	1e-05	0.00014	0.00018	-0.0001	-1e-05	-2e-05	-3e-05	1
1196	-0.0001	1e-05	0.00014	0.00018	-0.0001	-1e-05	-2e-05	-3e-05	1
1197	-0.0001	1e-05	0.00014	0.00018	-0.0001	-1e-05	-2e-05	-3e-05	1
1198	-0.0001	1e-05	0.00014	0.00018	-0.0001	-1e-05	-2e-05	-3e-05	1
1199	-0.0001	1e-05	0.00014	0.00018	-0.0001	-1e-05	-2e-05	-3e-05	1
1200	-0.0001	1e-05	0.00014	0.00018	-0.0001	-1e-05	-2e-05	-3e-05	1
1201	-0.0001	1e-05	0.00014	0.00018	-0.0001	-1e-05	-2e-05	-3e-05	1
1202	-0.0001	1e-05	0.00014	0.00018	-0.0001	-1e-05	-2e-05	-3e-05	1
1203	-0.0001	1e-05	0.00014	0.00018	-0.0001	-1e-05	-2e-05	-3e-05	1
1204	-0.0001	1e-05	0.00014	0.00018	-0.0001	-1e-05	-2e-05	-3e-05	1
1205	-0.0001	1e-05	0.00014	0.00018	-0.0001	-1e-05	-2e-05	-3e-05	1
1206	-0.0001	1e-05	0.00014	0.00018	-0.0001	-1e-05	-2e-05	-3e-05	1
1207	-0.0001	1e-05	0.00014	0.00018	-0.0001	-1e-05	-2e-05	-3e-05	1
1208	2e-05	-1e-05	-2e-05	-1e-05	5e-05	-1e-05	0	1e-05	1
1209	6e-05	-1e-05	-7e-05	-8e-05	-5e-05	0	1e-05	-1e-05	1
1210	6e-05	-1e-05	-7e-05	-8e-05	-5e-05	0	1e-05	-1e-05	1
1211	6e-05	-1e-05	-7e-05	-8e-05	-5e-05	0	1e-05	-1e-05	1
1212	6e-05	-1e-05	-7e-05	-8e-05	-5e-05	0	1e-05	-1e-05	1
1213	6e-05	-1e-05	-7e-05	-8e-05	-5e-05	0	1e-05	-1e-05	1
1214	6e-05	-1e-05	-7e-05	-8e-05	-5e-05	0	1e-05	-1e-05	1
1215	6e-05	-1e-05	-7e-05	-8e-05	-5e-05	0	1e-05	-1e-05	1
1216	6e-05	-1e-05	-7e-05	-8e-05	-5e-05	0	1e-05	-1e-05	1
1217	6e-05	-1e-05	-7e-05	-8e-05	-5e-05	0	1e-05	-1e-05	1
1218	6e-05	-1e-05	-7e-05	-8e-05	-5e-05	0	1e-05	-1e-05	1
1219	6e-05	-1e-05	-7e-05	-8e-05	-5e-05	0	1e-05	-1e-05	1
1220	6e-05	-1e-05	-7e-05	-8e-05	-5e-05	0	1e-05	-1e-05	1
1221	6e-05	-1e-05	-7e-05	-8e-05	-5e-05	0	1e-05	-1e-05	1
1222	6e-05	-1e-05	-7e-05	-8e-05	-5e-05	0	1e-05	-1e-05	1
1223	6e-05	-1e-05	-7e-05	-8e-05	-5e-05	0	1e-05	-1e-05	1
1224	6e-05	-1e-05	-7e-05	-8e-05	-5e-05	0	1e-05	-1e-05	1
1225	6e-05	-1e-05	-7e-05	-8e-05	-5e-05	0	1e-05	-1e-05	1
1226	6e-05	-1e-05	-7e-05	-8e-05	-5e-05	0	1e-05	-1e-05	1
1227	6e-05	-1e-05	-7e-05	-8e-05	-5e-05	0	1e-05	-1e-05	1
1228	6e-05	-1e-05	-7e-05	-8e-05	-5e-05	0	1e-05	-1e-05	1
1229	6e-05	-1e-05	-7e-05	-8e-05	-5e-05	0	1e-05	-1e-05	1
1230	6e-05	-1e-05	-7e-05	-8e-05	-5e-05	0	1e-05	-1e-05	1
1231	6e-05	-1e-05	-7e-05	-8e-05	-5e-05	0	1e-05	-1e-05	1
1232	-1e-05	-1e-05	1e-05	8e-05	8e-05	-2e-05	-2e-05	-2e-05	1
1233	-1e-05	0	-3e-05	-0.00012	2e-05	-1e-05	-2e-05	0	1
1234	-1e-05	0	-3e-05	-0.00012	2e-05	-1e-05	-2e-05	0	1
1235	-1e-05	0	-3e-05	-0.00012	2e-05	-1e-05	-2e-05	0	1
1236	-1e-05	0	-3e-05	-0.00012	2e-05	-1e-05	-2e-05	0	1
1239	-1e-05	0	-3e-05	-0.00012	2e-05	-1e-05	-2e-05	0	1
1240	-1e-05	0	-3e-05	-0.00012	2e-05	-1e-05	-2e-05	0	1
1241	-1e-05	0	-3e-05	-0.00012	2e-05	-1e-05	-2e-05	0	1
1242	-1e-05	0	-3e-05	-0.00012	2e-05	-1e-05	-2e-05	0	1
1243	-1e-05	0	-3e-05	-0.00012	2e-05	-1e-05	-2e-05	0	1
1244	-1e-05	0	-3e-05	-0.00012	2e-05	-1e-05	-2e-05	0	1
1245	-1e-05	0	-3e-05	-0.00012	2e-05	-1e-05	-2e-05	0	1
1246	2e-05	2e-05	-1e-05	7e-05	6e-05	2e-05	0	1e-05	1
1247	8e-05	1e-05	0	0	0	1e-05	1e-05	2e-05	1
1248	8e-05	1e-05	0	0	0	1e-05	1e-05	2e-05	1
1249	8e-05	1e-05	0	0	0	1e-05	1e-05	2e-05	1
1250	8e-05	1e-05	0	0	0	1e-05	1e-05	2e-05	1
1251	8e-05	1e-05	0	0	0	1e-05	1e-05	2e-05	1
1252	8e-05	1e-05	0	0	0	1e-05	1e-05	2e-05	1
1253	8e-05	1e-05	0	0	0	1e-05	1e-05	2e-05	1
1254	8e-05	1e-05	0	0	0	1e-05	1e-05	2e-05	1
1255	8e-05	1e-05	0	0	0	1e-05	1e-05	2e-05	1
1256	8e-05	1e-05	0	0	0	1e-05	1e-05	2e-05	1
1257	8e-05	1e-05	0	0	0	1e-05	1e-05	2e-05	1
1258	8e-05	1e-05	0	0	0	1e-05	1e-05	2e-05	1
1259	8e-05	1e-05	0	0	0	1e-05	1e-05	2e-05	1
1260	8e-05	1e-05	0	0	0	1e-05	1e-05	2e-05	1
1261	8e-05	1e-05	0	0	0	1e-05	1e-05	2e-05	1
1262	8e-05	1e-05	0	0	0	1e-05	1e-05	2e-05	1
1263	8e-05	1e-05	0	0	0	1e-05	1e-05	2e-05	1
1264	8e-05	1e-05	0	0	0	1e-05	1e-05	2e-05	1
1265	8e-05	1e-05	0	0	0	1e-05	1e-05	2e-05	1
1266	8e-05	1e-05	0	0	0	1e-05	1e-05	2e-05	1
1267	8e-05	1e-05	0	0	0	1e-05	1e-05	2e-05	1
1268	-6e-05	1e-05	-4e-05	-0.00013	0.00019	0	-1e-05	1e-05	1
1269	-2e-05	1e-05	4e-05	0.00017	0.00032	-2e-05	0	0	1
1270	-2e-05	1e-05	4e-05	0.00017	0.00032	-2e-05	0	0	1
1271	-2e-05	1e-05	4e-05	0.00017	0.00032	-2e-05	0	0	1
1272	-2e-05	1e-05	4e-05	0.00017	0.00032	-2e-05	0	0	1
1273	-2e-05	1e-05	4e-05	0.00017	0.00032	-2e-05	0	0	1
1274	-2e-05	1e-05	4e-05	0.00017	0.00032	-2e-05	0	0	1
1275	-2e-05	1e-05	4e-05	0.00017	0.00032	-2e-05	0	0	1
1276	-2e-05	1e-05	4e-05	0.00017	0.00032	-2e-05	0	0	1
1277	-2e-05	1e-05	4e-05	0.00017	0.00032	-2e-05	0	0	1
1278	-2e-05	1e-05	4e-05	0.00017	0.00032	-2e-05	0	0	1
1279	-2e-05	1e-05	4e-05	0.00017	0.00032	-2e-05	0	0	1
1280	-2e-05	1e-05	4e-05	0.00017	0.00032	-2e-05	0	0	1
1281	-2e-05	1e-05	4e-05	0.00017	0.00032	-2e-05	0	0	1
1282	-2e-05	1e-05	4e-05	0.00017	0.00032	-2e-05	0	0	1
1283	-2e-05	1e-05	4e-05	0.00017	0.00032	-2e-05	0	0	1
1284	-2e-05	1e-05	4e-05	0.00017	0.00032	-2e-05	0	0	1
1285	-2e-05	1e-05	4e-05	0.00017	0.00032	-2e-05	0	0	1
1286	-2e-05	1e-05	4e-05	0.00017	0.00032	-2e-05	0	0	1
1289	-2e-05	1e-05	4e-05	0.00017	0.00032	-2e-05	0	0	1
1290	-2e-05	1e-05	4e-05	0.00017	0.00032	-2e-05	0	0	1
1291	-3e-05	-4e-05	-8e-05	-3e-05	0.00039	2e-05	1e-05	1e-05	1
1292	-0.00014	-5e-05	-4e-05	-8e-05	-6e-05	1e-05	-1e-05	-4e-05	1
1293	-0.00014	-5e-05	-4e-05	-8e-05	-6e-05	1e-05	-1e-05	-4e-05	1
1294	-0.00014	-5e-05	-4e-05	-8e-05	-6e-05	1e-05	-1e-05	-4e-05	1
1295	-0.00014	-5e-05	-4e-05	-8e-05	-6e-05	1e-05	-1e-05	-4e-05	1
1296	-0.00014	-5e-05	-4e-05	-8e-05	-6e-05	1e-05	-1e-05	-4e-05	1
1297	-0.00014	-5e-05	-4e-05	-8e-05	-6e-05	1e-05	-1e-05	-4e-05	1
1298	-0.00014	-5e-05	-4e-05	-8e-05	-6e-05	1e-05	-1e-05	-4e-05	1
1299	-0.00014	-5e-05	-4e-05	-8e-05	-6e-05	1e-05	-1e-05	-4e-05	1
1300	-0.00014	-5e-05	-4e-05	-8e-05	-6e-05	1e-05	-1e-05	-4e-05	1
1301	-0.00014	-5e-05	-4e-05	-8e-05	-6e-05	1e-05	-1e-05	-4e-05	1
1302	-0.00014	-5e-05	-4e-05	-8e-05	-6e-05	1e-05	-1e-05	-4e-05	1
1303	-0.00014	-5e-05	-4e-05	-8e-05	-6e-05	1e-05	-1e-05	-4e-05	1
1304	-0.00014	-5e-05	-4e-05	-8e-05	-6e-05	1e-05	-1e-05	-4e-05	1
1305	-5e-05	0	5e-05	-8e-05	-0.00026	-3e-05	-1e-05	-1e-05	1
1306	-5e-05	0	5e-05	-8e-05	-0.00026	-3e-05	-1e-05	-1e-05	1
1307	-5e-05	0	5e-05	-8e-05	-0.00026	-3e-05	-1e-05	-1e-05	1
1308	-5e-05	0	5e-05	-8e-05	-0.00026	-3e-05	-1e-05	-1e-05	1
1309	-5e-05	0	5e-05	-8e-05	-0.00026	-3e-05	-1e-05	-1e-05	1
1310	-5e-05	0	5e-05	-8e-05	-0.00026	-3e-05	-1e-05	-1e-05	1
1311	-5e-05	0	5e-05	-8e-05	-0.00026	-3e-05	-1e-05	-1e-05	1
1312	-5e-05	0	5e-05	-8e-05	-0.00026	-3e-05	-1e-05	-1e-05	1
1313	-5e-05	0	5e-05	-8e-05	-0.00026	-3e-05	-1e-05	-1e-05	1
1314	-4e-05	-2e-05	0	-7e-05	-8e-05	-1e-05	-1e-05	-2e-05	1
1315	-4e-05	-2e-05	0	-7e-05	-8e-05	-1e-05	-1e-05	-2e-05	1
1316	-4e-05	-2e-05	0	-7e-05	-8e-05	-1e-05	-1e-05	-2e-05	1
1317	-4e-05	-2e-05	0	-7e-05	-8e-05	-1e-05	-1e-05	-2e-05	1
1318	-4e-05	-2e-05	0	-7e-05	-8e-05	-1e-05	-1e-05	-2e-05	1
1319	-4e-05	-2e-05	0	-7e-05	-8e-05	-1e-05	-1e-05	-2e-05	1
1320	-4e-05	-2e-05	0	-7e-05	-8e-05	-1e-05	-1e-05	-2e-05	1
1321	-4e-05	-2e-05	0	-7e-05	-8e-05	-1e-05	-1e-05	-2e-05	1
1322	-4e-05	-2e-05	0	-7e-05	-8e-05	-1e-05	-1e-05	-2e-05	1
1323	-4e-05	-2e-05	0	-7e-05	-8e-05	-1e-05	-1e-05	-2e-05	1
1324	-4e-05	-2e-05	0	-7e-05	-8e-05	-1e-05	-1e-05	-2e-05	1
1325	-4e-05	-2e-05	0	-7e-05	-8e-05	-1e-05	-1e-05	-2e-05	1
1326	-4e-05	-2e-05	0	-7e-05	-8e-05	-1e-05	-1e-05	-2e-05	1
1327	-4e-05	-2e-05	0	-7e-05	-8e-05	-1e-05	-1e-05	-2e-05	1
1328	-4e-05	-2e-05	0	-7e-05	-8e-05	-1e-05	-1e-05	-2e-05	1
1329	-5e-05	0	4e-05	0.00013	-8e-05	-3e-05	-1e-05	1e-05	1
1330	8e-05	2e-05	-3e-05	-0.00018	-0.00011	1e-05	0	0	1
1331	8e-05	2e-05	-3e-05	-0.00018	-0.00011	1e-05	0	0	1
1332	8e-05	2e-05	-3e-05	-0.00018	-0.00011	1e-05	0	0	1
1333	8e-05	2e-05	-3e-05	-0.00018	-0.00011	1e-05	0	0	1
1334	8e-05	2e-05	-3e-05	-0.00018	-0.00011	1e-05	0	0	1
1335	8e-05	2e-05	-3e-05	-0.00018	-0.00011	1e-05	0	0	1
1336	8e-05	2e-05	-3e-05	-0.00018	-0.00011	1e-05	0	0	1
1338	8e-05	2e-05	-3e-05	-0.00018	-0.00011	1e-05	0	0	1
1340	8e-05	2e-05	-3e-05	-0.00018	-0.00011	1e-05	0	0	1
1341	8e-05	2e-05	-3e-05	-0.00018	-0.00011	1e-05	0	0	1
1342	8e-05	2e-05	-3e-05	-0.00018	-0.00011	1e-05	0	0	1
1343	8e-05	2e-05	-3e-05	-0.00018	-0.00011	1e-05	0	0	1
1344	8e-05	2e-05	-3e-05	-0.00018	-0.00011	1e-05	0	0	1
1345	8e-05	2e-05	-3e-05	-0.00018	-0.00011	1e-05	0	0	1
1346	8e-05	2e-05	-3e-05	-0.00018	-0.00011	1e-05	0	0	1
1347	8e-05	2e-05	-3e-05	-0.00018	-0.00011	1e-05	0	0	1
1348	8e-05	2e-05	-3e-05	-0.00018	-0.00011	1e-05	0	0	1
1349	8e-05	2e-05	-3e-05	-0.00018	-0.00011	1e-05	0	0	1
1350	8e-05	2e-05	-3e-05	-0.00018	-0.00011	1e-05	0	0	1
1351	-2e-05	3e-05	6e-05	0.00025	-0.00023	-4e-05	0	1e-05	1
1352	2e-05	0	-3e-05	-0.00011	-5e-05	-1e-05	-2e-05	-2e-05	1
1353	2e-05	0	-3e-05	-0.00011	-5e-05	-1e-05	-2e-05	-2e-05	1
1354	2e-05	0	-3e-05	-0.00011	-5e-05	-1e-05	-2e-05	-2e-05	1
1355	2e-05	0	-3e-05	-0.00011	-5e-05	-1e-05	-2e-05	-2e-05	1
1356	2e-05	0	-3e-05	-0.00011	-5e-05	-1e-05	-2e-05	-2e-05	1
1357	2e-05	0	-3e-05	-0.00011	-5e-05	-1e-05	-2e-05	-2e-05	1
1358	2e-05	0	-3e-05	-0.00011	-5e-05	-1e-05	-2e-05	-2e-05	1
1359	2e-05	0	-3e-05	-0.00011	-5e-05	-1e-05	-2e-05	-2e-05	1
1360	2e-05	0	-3e-05	-0.00011	-5e-05	-1e-05	-2e-05	-2e-05	1
1361	2e-05	0	-3e-05	-0.00011	-5e-05	-1e-05	-2e-05	-2e-05	1
1362	2e-05	0	-3e-05	-0.00011	-5e-05	-1e-05	-2e-05	-2e-05	1
1363	2e-05	0	-3e-05	-0.00011	-5e-05	-1e-05	-2e-05	-2e-05	1
1364	2e-05	0	-3e-05	-0.00011	-5e-05	-1e-05	-2e-05	-2e-05	1
1365	8e-05	2e-05	-1e-05	-4e-05	-0.00018	0	1e-05	1e-05	1
1366	8e-05	2e-05	-1e-05	-4e-05	-0.00018	0	1e-05	1e-05	1
1367	8e-05	2e-05	-1e-05	-4e-05	-0.00018	0	1e-05	1e-05	1
1368	8e-05	2e-05	-1e-05	-4e-05	-0.00018	0	1e-05	1e-05	1
1369	8e-05	2e-05	-1e-05	-4e-05	-0.00018	0	1e-05	1e-05	1
1370	8e-05	2e-05	-1e-05	-4e-05	-0.00018	0	1e-05	1e-05	1
1371	8e-05	2e-05	-1e-05	-4e-05	-0.00018	0	1e-05	1e-05	1
1372	8e-05	2e-05	-1e-05	-4e-05	-0.00018	0	1e-05	1e-05	1
1373	-0.0001	-4e-05	-5e-05	-9e-05	-3e-05	-1e-05	0	0	1
1374	-0.0001	-4e-05	-5e-05	-9e-05	-3e-05	-1e-05	0	0	1
1375	-0.0001	-4e-05	-5e-05	-9e-05	-3e-05	-1e-05	0	0	1
1376	-0.0001	-4e-05	-5e-05	-9e-05	-3e-05	-1e-05	0	0	1
1377	-0.0001	-4e-05	-5e-05	-9e-05	-3e-05	-1e-05	0	0	1
1378	-0.0001	-4e-05	-5e-05	-9e-05	-3e-05	-1e-05	0	0	1
1379	-0.0001	-4e-05	-5e-05	-9e-05	-3e-05	-1e-05	0	0	1
1380	-0.0001	-4e-05	-5e-05	-9e-05	-3e-05	-1e-05	0	0	1
1381	-0.0001	-4e-05	-5e-05	-9e-05	-3e-05	-1e-05	0	0	1
1382	-0.0001	-4e-05	-5e-05	-9e-05	-3e-05	-1e-05	0	0	1
1383	-0.0001	-4e-05	-5e-05	-9e-05	-3e-05	-1e-05	0	0	1
1384	-0.0001	-4e-05	-5e-05	-9e-05	-3e-05	-1e-05	0	0	1
1385	-0.0001	-4e-05	-5e-05	-9e-05	-3e-05	-1e-05	0	0	1
1386	-0.0001	-4e-05	-5e-05	-9e-05	-3e-05	-1e-05	0	0	1
1389	8e-05	7e-05	8e-05	0.00014	-0.00016	2e-05	1e-05	0	1
1390	8e-05	7e-05	8e-05	0.00014	-0.00016	2e-05	1e-05	0	1
1391	8e-05	7e-05	8e-05	0.00014	-0.00016	2e-05	1e-05	0	1
1392	8e-05	7e-05	8e-05	0.00014	-0.00016	2e-05	1e-05	0	1
1393	8e-05	7e-05	8e-05	0.00014	-0.00016	2e-05	1e-05	0	1
1394	8e-05	7e-05	8e-05	0.00014	-0.00016	2e-05	1e-05	0	1
1395	8e-05	7e-05	8e-05	0.00014	-0.00016	2e-05	1e-05	0	1
1397	8e-05	7e-05	8e-05	0.00014	-0.00016	2e-05	1e-05	0	1
1398	8e-05	7e-05	8e-05	0.00014	-0.00016	2e-05	1e-05	0	1
1399	8e-05	7e-05	8e-05	0.00014	-0.00016	2e-05	1e-05	0	1
1400	8e-05	7e-05	8e-05	0.00014	-0.00016	2e-05	1e-05	0	1
1401	8e-05	7e-05	8e-05	0.00014	-0.00016	2e-05	1e-05	0	1
1402	8e-05	7e-05	8e-05	0.00014	-0.00016	2e-05	1e-05	0	1
1403	8e-05	7e-05	8e-05	0.00014	-0.00016	2e-05	1e-05	0	1
1404	8e-05	7e-05	8e-05	0.00014	-0.00016	2e-05	1e-05	0	1
1405	8e-05	7e-05	8e-05	0.00014	-0.00016	2e-05	1e-05	0	1
1406	8e-05	7e-05	8e-05	0.00014	-0.00016	2e-05	1e-05	0	1
1407	8e-05	7e-05	8e-05	0.00014	-0.00016	2e-05	1e-05	0	1
1408	8e-05	7e-05	8e-05	0.00014	-0.00016	2e-05	1e-05	0	1
1409	8e-05	7e-05	8e-05	0.00014	-0.00016	2e-05	1e-05	0	1
1410	8e-05	7e-05	8e-05	0.00014	-0.00016	2e-05	1e-05	0	1
1411	8e-05	7e-05	8e-05	0.00014	-0.00016	2e-05	1e-05	0	1
1412	-0.00022	-9e-05	-6e-05	-0.0002	0.00013	-4e-05	-3e-05	-2e-05	1
1413	7e-05	-4e-05	-7e-05	1e-05	-8e-05	-2e-05	-1e-05	0	1
1414	7e-05	-4e-05	-7e-05	1e-05	-8e-05	-2e-05	-1e-05	0	1
1415	7e-05	-4e-05	-7e-05	1e-05	-8e-05	-2e-05	-1e-05	0	1
1416	7e-05	-4e-05	-7e-05	1e-05	-8e-05	-2e-05	-1e-05	0	1
1417	7e-05	-4e-05	-7e-05	1e-05	-8e-05	-2e-05	-1e-05	0	1
1418	7e-05	-4e-05	-7e-05	1e-05	-8e-05	-2e-05	-1e-05	0	1
1419	7e-05	-4e-05	-7e-05	1e-05	-8e-05	-2e-05	-1e-05	0	1
1420	7e-05	-4e-05	-7e-05	1e-05	-8e-05	-2e-05	-1e-05	0	1
1421	7e-05	-4e-05	-7e-05	1e-05	-8e-05	-2e-05	-1e-05	0	1
1422	7e-05	-4e-05	-7e-05	1e-05	-8e-05	-2e-05	-1e-05	0	1
1423	7e-05	-4e-05	-7e-05	1e-05	-8e-05	-2e-05	-1e-05	0	1
1424	7e-05	-4e-05	-7e-05	1e-05	-8e-05	-2e-05	-1e-05	0	1
1425	-2e-05	1e-05	0	-2e-05	0.00034	0	-3e-05	0	1
1426	-2e-05	1e-05	0	-2e-05	0.00034	0	-3e-05	0	1
1427	-2e-05	1e-05	0	-2e-05	0.00034	0	-3e-05	0	1
1428	-2e-05	1e-05	0	-2e-05	0.00034	0	-3e-05	0	1
1429	-2e-05	1e-05	0	-2e-05	0.00034	0	-3e-05	0	1
1430	-2e-05	1e-05	0	-2e-05	0.00034	0	-3e-05	0	1
1431	-2e-05	1e-05	0	-2e-05	0.00034	0	-3e-05	0	1
1432	-2e-05	1e-05	0	-2e-05	0.00034	0	-3e-05	0	1
1433	-6e-05	-4e-05	-1e-05	-4e-05	-3e-05	-2e-05	-1e-05	-1e-05	1
1434	-6e-05	-4e-05	-1e-05	-4e-05	-3e-05	-2e-05	-1e-05	-1e-05	1
1435	-6e-05	-4e-05	-1e-05	-4e-05	-3e-05	-2e-05	-1e-05	-1e-05	1
1436	-6e-05	-4e-05	-1e-05	-4e-05	-3e-05	-2e-05	-1e-05	-1e-05	1
1438	-6e-05	-4e-05	-1e-05	-4e-05	-3e-05	-2e-05	-1e-05	-1e-05	1
1440	-6e-05	-4e-05	-1e-05	-4e-05	-3e-05	-2e-05	-1e-05	-1e-05	1
1441	-6e-05	-4e-05	-1e-05	-4e-05	-3e-05	-2e-05	-1e-05	-1e-05	1
1442	-6e-05	-4e-05	-1e-05	-4e-05	-3e-05	-2e-05	-1e-05	-1e-05	1
1443	-6e-05	-4e-05	-1e-05	-4e-05	-3e-05	-2e-05	-1e-05	-1e-05	1
1444	-6e-05	-4e-05	-1e-05	-4e-05	-3e-05	-2e-05	-1e-05	-1e-05	1
1445	-6e-05	-4e-05	-1e-05	-4e-05	-3e-05	-2e-05	-1e-05	-1e-05	1
1446	-6e-05	-4e-05	-1e-05	-4e-05	-3e-05	-2e-05	-1e-05	-1e-05	1
1447	-6e-05	-4e-05	-1e-05	-4e-05	-3e-05	-2e-05	-1e-05	-1e-05	1
1448	5e-05	-1e-05	0	8e-05	0.00012	0	-1e-05	0	1
1449	3e-05	-2e-05	-2e-05	6e-05	0.00015	-2e-05	-1e-05	-3e-05	1
1450	3e-05	-2e-05	-2e-05	6e-05	0.00015	-2e-05	-1e-05	-3e-05	1
1451	3e-05	-2e-05	-2e-05	6e-05	0.00015	-2e-05	-1e-05	-3e-05	1
1452	3e-05	-2e-05	-2e-05	6e-05	0.00015	-2e-05	-1e-05	-3e-05	1
1453	3e-05	-2e-05	-2e-05	6e-05	0.00015	-2e-05	-1e-05	-3e-05	1
1454	3e-05	-2e-05	-2e-05	6e-05	0.00015	-2e-05	-1e-05	-3e-05	1
1455	3e-05	-2e-05	-2e-05	6e-05	0.00015	-2e-05	-1e-05	-3e-05	1
1456	3e-05	-2e-05	-2e-05	6e-05	0.00015	-2e-05	-1e-05	-3e-05	1
1457	3e-05	-2e-05	-2e-05	6e-05	0.00015	-2e-05	-1e-05	-3e-05	1
1458	3e-05	-2e-05	-2e-05	6e-05	0.00015	-2e-05	-1e-05	-3e-05	1
1459	3e-05	-2e-05	-2e-05	6e-05	0.00015	-2e-05	-1e-05	-3e-05	1
1460	3e-05	-2e-05	-2e-05	6e-05	0.00015	-2e-05	-1e-05	-3e-05	1
1461	3e-05	-2e-05	-2e-05	6e-05	0.00015	-2e-05	-1e-05	-3e-05	1
1462	3e-05	-2e-05	-2e-05	6e-05	0.00015	-2e-05	-1e-05	-3e-05	1
1463	3e-05	-2e-05	-2e-05	6e-05	0.00015	-2e-05	-1e-05	-3e-05	1
1464	3e-05	-2e-05	-2e-05	6e-05	0.00015	-2e-05	-1e-05	-3e-05	1
1465	3e-05	-2e-05	-2e-05	6e-05	0.00015	-2e-05	-1e-05	-3e-05	1
1466	3e-05	-2e-05	-2e-05	6e-05	0.00015	-2e-05	-1e-05	-3e-05	1
1467	3e-05	-2e-05	-2e-05	6e-05	0.00015	-2e-05	-1e-05	-3e-05	1
1468	3e-05	-2e-05	-2e-05	6e-05	0.00015	-2e-05	-1e-05	-3e-05	1
1469	3e-05	-2e-05	-2e-05	6e-05	0.00015	-2e-05	-1e-05	-3e-05	1
1470	3e-05	-2e-05	-2e-05	6e-05	0.00015	-2e-05	-1e-05	-3e-05	1
1471	-6e-05	-2e-05	-5e-05	-0.00014	-4e-05	1e-05	1e-05	-1e-05	1
1472	-1e-05	0	-3e-05	1e-05	0.0001	2e-05	-1e-05	1e-05	1
1473	-1e-05	0	-3e-05	1e-05	0.0001	2e-05	-1e-05	1e-05	1
1474	-1e-05	0	-3e-05	1e-05	0.0001	2e-05	-1e-05	1e-05	1
1475	-1e-05	0	-3e-05	1e-05	0.0001	2e-05	-1e-05	1e-05	1
1476	-1e-05	0	-3e-05	1e-05	0.0001	2e-05	-1e-05	1e-05	1
1477	-1e-05	0	-3e-05	1e-05	0.0001	2e-05	-1e-05	1e-05	1
1478	-1e-05	0	-3e-05	1e-05	0.0001	2e-05	-1e-05	1e-05	1
1479	-1e-05	0	-3e-05	1e-05	0.0001	2e-05	-1e-05	1e-05	1
1480	-1e-05	0	-3e-05	1e-05	0.0001	2e-05	-1e-05	1e-05	1
1481	-1e-05	0	-3e-05	1e-05	0.0001	2e-05	-1e-05	1e-05	1
1482	-1e-05	0	-3e-05	1e-05	0.0001	2e-05	-1e-05	1e-05	1
1483	-1e-05	0	-3e-05	1e-05	0.0001	2e-05	-1e-05	1e-05	1
1484	-1e-05	0	-3e-05	1e-05	0.0001	2e-05	-1e-05	1e-05	1
1485	-5e-05	-2e-05	-7e-05	-1e-05	-4e-05	0	-2e-05	-2e-05	1
1486	-5e-05	-2e-05	-7e-05	-1e-05	-4e-05	0	-2e-05	-2e-05	1
1489	-5e-05	-2e-05	-7e-05	-1e-05	-4e-05	0	-2e-05	-2e-05	1
1490	-5e-05	-2e-05	-7e-05	-1e-05	-4e-05	0	-2e-05	-2e-05	1
1491	-5e-05	-2e-05	-7e-05	-1e-05	-4e-05	0	-2e-05	-2e-05	1
1492	-5e-05	-2e-05	-7e-05	-1e-05	-4e-05	0	-2e-05	-2e-05	1
1493	-2e-05	0	-5e-05	-0.00014	-0.00017	-3e-05	-1e-05	0	1
1494	-2e-05	0	-5e-05	-0.00014	-0.00017	-3e-05	-1e-05	0	1
1495	-2e-05	0	-5e-05	-0.00014	-0.00017	-3e-05	-1e-05	0	1
1496	-2e-05	0	-5e-05	-0.00014	-0.00017	-3e-05	-1e-05	0	1
1497	-2e-05	0	-5e-05	-0.00014	-0.00017	-3e-05	-1e-05	0	1
1498	-2e-05	0	-5e-05	-0.00014	-0.00017	-3e-05	-1e-05	0	1
1499	-2e-05	0	-5e-05	-0.00014	-0.00017	-3e-05	-1e-05	0	1
1500	-2e-05	0	-5e-05	-0.00014	-0.00017	-3e-05	-1e-05	0	1
1501	-2e-05	0	-5e-05	-0.00014	-0.00017	-3e-05	-1e-05	0	1
1502	-2e-05	0	-5e-05	-0.00014	-0.00017	-3e-05	-1e-05	0	1
1503	-2e-05	0	-5e-05	-0.00014	-0.00017	-3e-05	-1e-05	0	1
1504	-2e-05	0	-5e-05	-0.00014	-0.00017	-3e-05	-1e-05	0	1
1505	-2e-05	0	-5e-05	-0.00014	-0.00017	-3e-05	-1e-05	0	1
1506	-2e-05	0	-5e-05	-0.00014	-0.00017	-3e-05	-1e-05	0	1
1507	-2e-05	0	-5e-05	-0.00014	-0.00017	-3e-05	-1e-05	0	1
1508	8e-05	-1e-05	0	-7e-05	0	-4e-05	-1e-05	-2e-05	1
1509	1e-05	-2e-05	-2e-05	1e-05	9e-05	0	0	0	1
1510	1e-05	-2e-05	-2e-05	1e-05	9e-05	0	0	0	1
1511	1e-05	-2e-05	-2e-05	1e-05	9e-05	0	0	0	1
1512	1e-05	-2e-05	-2e-05	1e-05	9e-05	0	0	0	1
1513	1e-05	-2e-05	-2e-05	1e-05	9e-05	0	0	0	1
1514	1e-05	-2e-05	-2e-05	1e-05	9e-05	0	0	0	1
1515	1e-05	-2e-05	-2e-05	1e-05	9e-05	0	0	0	1
1516	1e-05	-2e-05	-2e-05	1e-05	9e-05	0	0	0	1
1517	1e-05	-2e-05	-2e-05	1e-05	9e-05	0	0	0	1
1518	1e-05	-2e-05	-2e-05	1e-05	9e-05	0	0	0	1
1519	1e-05	-2e-05	-2e-05	1e-05	9e-05	0	0	0	1
1520	1e-05	-2e-05	-2e-05	1e-05	9e-05	0	0	0	1
1521	1e-05	-2e-05	-2e-05	1e-05	9e-05	0	0	0	1
1522	1e-05	-2e-05	-2e-05	1e-05	9e-05	0	0	0	1
1523	1e-05	-2e-05	-2e-05	1e-05	9e-05	0	0	0	1
1524	1e-05	-2e-05	-2e-05	1e-05	9e-05	0	0	0	1
1525	1e-05	-2e-05	-2e-05	1e-05	9e-05	0	0	0	1
1526	1e-05	-2e-05	-2e-05	1e-05	9e-05	0	0	0	1
1527	1e-05	-2e-05	-2e-05	1e-05	9e-05	0	0	0	1
1528	1e-05	-2e-05	-2e-05	1e-05	9e-05	0	0	0	1
1529	1e-05	-2e-05	-2e-05	1e-05	9e-05	0	0	0	1
1530	1e-05	-2e-05	-2e-05	1e-05	9e-05	0	0	0	1
1531	-9e-05	-1e-05	1e-05	0	-0.00014	1e-05	-1e-05	0	1
1532	8e-05	-3e-05	-4e-05	-0.00012	-0.0001	-5e-05	-1e-05	-1e-05	1
1533	8e-05	-3e-05	-4e-05	-0.00012	-0.0001	-5e-05	-1e-05	-1e-05	1
1534	8e-05	-3e-05	-4e-05	-0.00012	-0.0001	-5e-05	-1e-05	-1e-05	1
1535	8e-05	-3e-05	-4e-05	-0.00012	-0.0001	-5e-05	-1e-05	-1e-05	1
1536	8e-05	-3e-05	-4e-05	-0.00012	-0.0001	-5e-05	-1e-05	-1e-05	1
1538	8e-05	-3e-05	-4e-05	-0.00012	-0.0001	-5e-05	-1e-05	-1e-05	1
1539	8e-05	-3e-05	-4e-05	-0.00012	-0.0001	-5e-05	-1e-05	-1e-05	1
1540	8e-05	-3e-05	-4e-05	-0.00012	-0.0001	-5e-05	-1e-05	-1e-05	1
1541	8e-05	-3e-05	-4e-05	-0.00012	-0.0001	-5e-05	-1e-05	-1e-05	1
1542	8e-05	-3e-05	-4e-05	-0.00012	-0.0001	-5e-05	-1e-05	-1e-05	1
1543	8e-05	-3e-05	-4e-05	-0.00012	-0.0001	-5e-05	-1e-05	-1e-05	1
1544	8e-05	-3e-05	-4e-05	-0.00012	-0.0001	-5e-05	-1e-05	-1e-05	1
1545	1e-05	0	0	-5e-05	-4e-05	-2e-05	-2e-05	1e-05	1
1546	1e-05	0	0	-5e-05	-4e-05	-2e-05	-2e-05	1e-05	1
1548	1e-05	0	0	-5e-05	-4e-05	-2e-05	-2e-05	1e-05	1
1549	1e-05	0	0	-5e-05	-4e-05	-2e-05	-2e-05	1e-05	1
1550	1e-05	0	0	-5e-05	-4e-05	-2e-05	-2e-05	1e-05	1
1551	1e-05	0	0	-5e-05	-4e-05	-2e-05	-2e-05	1e-05	1
1552	1e-05	0	0	-5e-05	-4e-05	-2e-05	-2e-05	1e-05	1
1553	-2e-05	-3e-05	-4e-05	4e-05	7e-05	1e-05	-2e-05	-2e-05	1
1554	-2e-05	-3e-05	-4e-05	4e-05	7e-05	1e-05	-2e-05	-2e-05	1
1555	-2e-05	-3e-05	-4e-05	4e-05	7e-05	1e-05	-2e-05	-2e-05	1
1556	-2e-05	-3e-05	-4e-05	4e-05	7e-05	1e-05	-2e-05	-2e-05	1
1557	-2e-05	-3e-05	-4e-05	4e-05	7e-05	1e-05	-2e-05	-2e-05	1
1558	-2e-05	-3e-05	-4e-05	4e-05	7e-05	1e-05	-2e-05	-2e-05	1
1559	-2e-05	-3e-05	-4e-05	4e-05	7e-05	1e-05	-2e-05	-2e-05	1
1560	-2e-05	-3e-05	-4e-05	4e-05	7e-05	1e-05	-2e-05	-2e-05	1
1561	-2e-05	-3e-05	-4e-05	4e-05	7e-05	1e-05	-2e-05	-2e-05	1
1562	-2e-05	-3e-05	-4e-05	4e-05	7e-05	1e-05	-2e-05	-2e-05	1
1563	-2e-05	-3e-05	-4e-05	4e-05	7e-05	1e-05	-2e-05	-2e-05	1
1564	-2e-05	-3e-05	-4e-05	4e-05	7e-05	1e-05	-2e-05	-2e-05	1
1565	-2e-05	-3e-05	-4e-05	4e-05	7e-05	1e-05	-2e-05	-2e-05	1
1566	-2e-05	-3e-05	-4e-05	4e-05	7e-05	1e-05	-2e-05	-2e-05	1
1567	-2e-05	-3e-05	-4e-05	4e-05	7e-05	1e-05	-2e-05	-2e-05	1
1568	0	0	0	6e-05	2e-05	-2e-05	1e-05	-1e-05	1
1569	2e-05	-1e-05	-3e-05	-2e-05	-0.00027	-7e-05	-3e-05	-1e-05	1
1570	2e-05	-1e-05	-3e-05	-2e-05	-0.00027	-7e-05	-3e-05	-1e-05	1
1571	2e-05	-1e-05	-3e-05	-2e-05	-0.00027	-7e-05	-3e-05	-1e-05	1
1572	2e-05	-1e-05	-3e-05	-2e-05	-0.00027	-7e-05	-3e-05	-1e-05	1
1573	2e-05	-1e-05	-3e-05	-2e-05	-0.00027	-7e-05	-3e-05	-1e-05	1
1574	2e-05	-1e-05	-3e-05	-2e-05	-0.00027	-7e-05	-3e-05	-1e-05	1
1575	2e-05	-1e-05	-3e-05	-2e-05	-0.00027	-7e-05	-3e-05	-1e-05	1
1576	2e-05	-1e-05	-3e-05	-2e-05	-0.00027	-7e-05	-3e-05	-1e-05	1
1577	2e-05	-1e-05	-3e-05	-2e-05	-0.00027	-7e-05	-3e-05	-1e-05	1
1578	2e-05	-1e-05	-3e-05	-2e-05	-0.00027	-7e-05	-3e-05	-1e-05	1
1579	2e-05	-1e-05	-3e-05	-2e-05	-0.00027	-7e-05	-3e-05	-1e-05	1
1580	2e-05	-1e-05	-3e-05	-2e-05	-0.00027	-7e-05	-3e-05	-1e-05	1
1581	2e-05	-1e-05	-3e-05	-2e-05	-0.00027	-7e-05	-3e-05	-1e-05	1
1582	2e-05	-1e-05	-3e-05	-2e-05	-0.00027	-7e-05	-3e-05	-1e-05	1
1583	2e-05	-1e-05	-3e-05	-2e-05	-0.00027	-7e-05	-3e-05	-1e-05	1
1584	2e-05	-1e-05	-3e-05	-2e-05	-0.00027	-7e-05	-3e-05	-1e-05	1
1585	2e-05	-1e-05	-3e-05	-2e-05	-0.00027	-7e-05	-3e-05	-1e-05	1
1586	2e-05	-1e-05	-3e-05	-2e-05	-0.00027	-7e-05	-3e-05	-1e-05	1
1588	2e-05	-1e-05	-3e-05	-2e-05	-0.00027	-7e-05	-3e-05	-1e-05	1
1589	2e-05	-1e-05	-3e-05	-2e-05	-0.00027	-7e-05	-3e-05	-1e-05	1
1590	2e-05	-1e-05	-3e-05	-2e-05	-0.00027	-7e-05	-3e-05	-1e-05	1
1591	-2e-05	-6e-05	-9e-05	-0.00014	-4e-05	-1e-05	0	-3e-05	1
1592	-3e-05	-3e-05	-2e-05	4e-05	4e-05	2e-05	0	-2e-05	1
1593	-3e-05	-3e-05	-2e-05	4e-05	4e-05	2e-05	0	-2e-05	1
1594	-3e-05	-3e-05	-2e-05	4e-05	4e-05	2e-05	0	-2e-05	1
1595	-3e-05	-3e-05	-2e-05	4e-05	4e-05	2e-05	0	-2e-05	1
1596	-3e-05	-3e-05	-2e-05	4e-05	4e-05	2e-05	0	-2e-05	1
1597	-3e-05	-3e-05	-2e-05	4e-05	4e-05	2e-05	0	-2e-05	1
1598	-3e-05	-3e-05	-2e-05	4e-05	4e-05	2e-05	0	-2e-05	1
1599	-3e-05	-3e-05	-2e-05	4e-05	4e-05	2e-05	0	-2e-05	1
1600	-3e-05	-3e-05	-2e-05	4e-05	4e-05	2e-05	0	-2e-05	1
1601	-3e-05	-3e-05	-2e-05	4e-05	4e-05	2e-05	0	-2e-05	1
1602	-3e-05	-3e-05	-2e-05	4e-05	4e-05	2e-05	0	-2e-05	1
1603	-3e-05	-3e-05	-2e-05	4e-05	4e-05	2e-05	0	-2e-05	1
1604	-3e-05	-3e-05	-2e-05	4e-05	4e-05	2e-05	0	-2e-05	1
1605	8e-05	1e-05	0	-1e-05	1e-05	0	0	2e-05	1
1606	8e-05	1e-05	0	-1e-05	1e-05	0	0	2e-05	1
1607	8e-05	1e-05	0	-1e-05	1e-05	0	0	2e-05	1
1608	8e-05	1e-05	0	-1e-05	1e-05	0	0	2e-05	1
1609	8e-05	1e-05	0	-1e-05	1e-05	0	0	2e-05	1
1610	8e-05	1e-05	0	-1e-05	1e-05	0	0	2e-05	1
1611	8e-05	1e-05	0	-1e-05	1e-05	0	0	2e-05	1
1612	8e-05	1e-05	0	-1e-05	1e-05	0	0	2e-05	1
1613	-1e-05	1e-05	4e-05	0.00017	0.00057	5e-05	-1e-05	3e-05	1
1614	-1e-05	1e-05	4e-05	0.00017	0.00057	5e-05	-1e-05	3e-05	1
1615	-1e-05	1e-05	4e-05	0.00017	0.00057	5e-05	-1e-05	3e-05	1
1616	-1e-05	1e-05	4e-05	0.00017	0.00057	5e-05	-1e-05	3e-05	1
1617	-1e-05	1e-05	4e-05	0.00017	0.00057	5e-05	-1e-05	3e-05	1
1618	-1e-05	1e-05	4e-05	0.00017	0.00057	5e-05	-1e-05	3e-05	1
1619	-1e-05	1e-05	4e-05	0.00017	0.00057	5e-05	-1e-05	3e-05	1
1620	-1e-05	1e-05	4e-05	0.00017	0.00057	5e-05	-1e-05	3e-05	1
1621	-1e-05	1e-05	4e-05	0.00017	0.00057	5e-05	-1e-05	3e-05	1
1622	-1e-05	1e-05	4e-05	0.00017	0.00057	5e-05	-1e-05	3e-05	1
1623	-1e-05	1e-05	4e-05	0.00017	0.00057	5e-05	-1e-05	3e-05	1
1624	-1e-05	1e-05	4e-05	0.00017	0.00057	5e-05	-1e-05	3e-05	1
1625	-1e-05	1e-05	4e-05	0.00017	0.00057	5e-05	-1e-05	3e-05	1
1626	-1e-05	1e-05	4e-05	0.00017	0.00057	5e-05	-1e-05	3e-05	1
1627	-1e-05	1e-05	4e-05	0.00017	0.00057	5e-05	-1e-05	3e-05	1
1628	-4e-05	-2e-05	0	1e-05	0	-2e-05	-2e-05	-1e-05	1
1629	-9e-05	1e-05	1e-05	5e-05	-0.0001	-2e-05	0	1e-05	1
1630	-9e-05	1e-05	1e-05	5e-05	-0.0001	-2e-05	0	1e-05	1
1631	-9e-05	1e-05	1e-05	5e-05	-0.0001	-2e-05	0	1e-05	1
1632	-9e-05	1e-05	1e-05	5e-05	-0.0001	-2e-05	0	1e-05	1
1633	-9e-05	1e-05	1e-05	5e-05	-0.0001	-2e-05	0	1e-05	1
1634	-9e-05	1e-05	1e-05	5e-05	-0.0001	-2e-05	0	1e-05	1
1635	-9e-05	1e-05	1e-05	5e-05	-0.0001	-2e-05	0	1e-05	1
1636	-9e-05	1e-05	1e-05	5e-05	-0.0001	-2e-05	0	1e-05	1
1638	-9e-05	1e-05	1e-05	5e-05	-0.0001	-2e-05	0	1e-05	1
1639	-9e-05	1e-05	1e-05	5e-05	-0.0001	-2e-05	0	1e-05	1
1640	-9e-05	1e-05	1e-05	5e-05	-0.0001	-2e-05	0	1e-05	1
1642	-9e-05	1e-05	1e-05	5e-05	-0.0001	-2e-05	0	1e-05	1
1643	-9e-05	1e-05	1e-05	5e-05	-0.0001	-2e-05	0	1e-05	1
1644	-9e-05	1e-05	1e-05	5e-05	-0.0001	-2e-05	0	1e-05	1
1645	-9e-05	1e-05	1e-05	5e-05	-0.0001	-2e-05	0	1e-05	1
1646	-9e-05	1e-05	1e-05	5e-05	-0.0001	-2e-05	0	1e-05	1
1647	-9e-05	1e-05	1e-05	5e-05	-0.0001	-2e-05	0	1e-05	1
1648	-9e-05	1e-05	1e-05	5e-05	-0.0001	-2e-05	0	1e-05	1
1649	-9e-05	1e-05	1e-05	5e-05	-0.0001	-2e-05	0	1e-05	1
1650	-9e-05	1e-05	1e-05	5e-05	-0.0001	-2e-05	0	1e-05	1
1651	-1e-05	2e-05	1e-05	-0.00012	-0.00017	1e-05	-1e-05	-2e-05	1
1652	4e-05	-1e-05	0	-4e-05	-3e-05	-3e-05	-2e-05	-4e-05	1
1653	4e-05	-1e-05	0	-4e-05	-3e-05	-3e-05	-2e-05	-4e-05	1
1654	4e-05	-1e-05	0	-4e-05	-3e-05	-3e-05	-2e-05	-4e-05	1
1655	4e-05	-1e-05	0	-4e-05	-3e-05	-3e-05	-2e-05	-4e-05	1
1656	4e-05	-1e-05	0	-4e-05	-3e-05	-3e-05	-2e-05	-4e-05	1
1657	4e-05	-1e-05	0	-4e-05	-3e-05	-3e-05	-2e-05	-4e-05	1
1658	4e-05	-1e-05	0	-4e-05	-3e-05	-3e-05	-2e-05	-4e-05	1
1659	4e-05	-1e-05	0	-4e-05	-3e-05	-3e-05	-2e-05	-4e-05	1
1660	4e-05	-1e-05	0	-4e-05	-3e-05	-3e-05	-2e-05	-4e-05	1
1661	4e-05	-1e-05	0	-4e-05	-3e-05	-3e-05	-2e-05	-4e-05	1
1662	4e-05	-1e-05	0	-4e-05	-3e-05	-3e-05	-2e-05	-4e-05	1
1663	4e-05	-1e-05	0	-4e-05	-3e-05	-3e-05	-2e-05	-4e-05	1
1664	4e-05	-1e-05	0	-4e-05	-3e-05	-3e-05	-2e-05	-4e-05	1
1665	4e-05	-1e-05	0	-4e-05	-3e-05	-3e-05	-2e-05	-4e-05	1
1666	4e-05	-1e-05	0	-4e-05	-3e-05	-3e-05	-2e-05	-4e-05	1
1667	4e-05	-1e-05	0	-4e-05	-3e-05	-3e-05	-2e-05	-4e-05	1
1668	4e-05	-1e-05	0	-4e-05	-3e-05	-3e-05	-2e-05	-4e-05	1
1669	4e-05	-1e-05	0	-4e-05	-3e-05	-3e-05	-2e-05	-4e-05	1
1670	4e-05	-1e-05	0	-4e-05	-3e-05	-3e-05	-2e-05	-4e-05	1
1671	4e-05	-1e-05	0	-4e-05	-3e-05	-3e-05	-2e-05	-4e-05	1
1672	4e-05	-1e-05	0	-4e-05	-3e-05	-3e-05	-2e-05	-4e-05	1
1673	4e-05	-1e-05	0	-4e-05	-3e-05	-3e-05	-2e-05	-4e-05	1
1674	-1e-05	-2e-05	-1e-05	-1e-05	-1e-05	-1e-05	0	2e-05	1
1675	-0.00013	-2e-05	0	-5e-05	-0.00011	-1e-05	-1e-05	-3e-05	1
1676	-0.00013	-2e-05	0	-5e-05	-0.00011	-1e-05	-1e-05	-3e-05	1
1677	-0.00013	-2e-05	0	-5e-05	-0.00011	-1e-05	-1e-05	-3e-05	1
1678	-0.00013	-2e-05	0	-5e-05	-0.00011	-1e-05	-1e-05	-3e-05	1
1679	-0.00013	-2e-05	0	-5e-05	-0.00011	-1e-05	-1e-05	-3e-05	1
1680	-0.00013	-2e-05	0	-5e-05	-0.00011	-1e-05	-1e-05	-3e-05	1
1681	-0.00013	-2e-05	0	-5e-05	-0.00011	-1e-05	-1e-05	-3e-05	1
1682	-0.00013	-2e-05	0	-5e-05	-0.00011	-1e-05	-1e-05	-3e-05	1
1683	-0.00013	-2e-05	0	-5e-05	-0.00011	-1e-05	-1e-05	-3e-05	1
1684	-0.00013	-2e-05	0	-5e-05	-0.00011	-1e-05	-1e-05	-3e-05	1
1685	-0.00013	-2e-05	0	-5e-05	-0.00011	-1e-05	-1e-05	-3e-05	1
1686	-0.00013	-2e-05	0	-5e-05	-0.00011	-1e-05	-1e-05	-3e-05	1
1689	6e-05	3e-05	0	8e-05	0.00054	-1e-05	0	0	1
1690	6e-05	3e-05	0	8e-05	0.00054	-1e-05	0	0	1
1691	6e-05	3e-05	0	8e-05	0.00054	-1e-05	0	0	1
1692	6e-05	3e-05	0	8e-05	0.00054	-1e-05	0	0	1
1693	6e-05	3e-05	0	8e-05	0.00054	-1e-05	0	0	1
1694	6e-05	3e-05	0	8e-05	0.00054	-1e-05	0	0	1
1695	6e-05	3e-05	0	8e-05	0.00054	-1e-05	0	0	1
1697	6e-05	3e-05	0	8e-05	0.00054	-1e-05	0	0	1
1698	6e-05	3e-05	0	8e-05	0.00054	-1e-05	0	0	1
1699	6e-05	3e-05	0	8e-05	0.00054	-1e-05	0	0	1
1700	6e-05	3e-05	0	8e-05	0.00054	-1e-05	0	0	1
1701	6e-05	3e-05	0	8e-05	0.00054	-1e-05	0	0	1
1702	6e-05	3e-05	0	8e-05	0.00054	-1e-05	0	0	1
1703	6e-05	3e-05	0	8e-05	0.00054	-1e-05	0	0	1
1704	6e-05	3e-05	0	8e-05	0.00054	-1e-05	0	0	1
1705	6e-05	3e-05	0	8e-05	0.00054	-1e-05	0	0	1
1706	6e-05	3e-05	0	8e-05	0.00054	-1e-05	0	0	1
1707	6e-05	3e-05	0	8e-05	0.00054	-1e-05	0	0	1
1708	6e-05	3e-05	0	8e-05	0.00054	-1e-05	0	0	1
1709	6e-05	3e-05	0	8e-05	0.00054	-1e-05	0	0	1
1710	6e-05	3e-05	0	8e-05	0.00054	-1e-05	0	0	1
1711	4e-05	-2e-05	-1e-05	0.00014	0.00018	1e-05	2e-05	0	1
1712	-1e-05	-1e-05	-3e-05	-5e-05	-0.00022	-4e-05	-3e-05	-1e-05	1
1713	-1e-05	-1e-05	-3e-05	-5e-05	-0.00022	-4e-05	-3e-05	-1e-05	1
1714	-1e-05	-1e-05	-3e-05	-5e-05	-0.00022	-4e-05	-3e-05	-1e-05	1
1715	-1e-05	-1e-05	-3e-05	-5e-05	-0.00022	-4e-05	-3e-05	-1e-05	1
1716	-1e-05	-1e-05	-3e-05	-5e-05	-0.00022	-4e-05	-3e-05	-1e-05	1
1717	-1e-05	-1e-05	-3e-05	-5e-05	-0.00022	-4e-05	-3e-05	-1e-05	1
1718	-1e-05	-1e-05	-3e-05	-5e-05	-0.00022	-4e-05	-3e-05	-1e-05	1
1719	-1e-05	-1e-05	-3e-05	-5e-05	-0.00022	-4e-05	-3e-05	-1e-05	1
1720	-1e-05	-1e-05	-3e-05	-5e-05	-0.00022	-4e-05	-3e-05	-1e-05	1
1721	-1e-05	-1e-05	-3e-05	-5e-05	-0.00022	-4e-05	-3e-05	-1e-05	1
1722	-1e-05	-1e-05	-3e-05	-5e-05	-0.00022	-4e-05	-3e-05	-1e-05	1
1723	-1e-05	-1e-05	-3e-05	-5e-05	-0.00022	-4e-05	-3e-05	-1e-05	1
1724	-1e-05	-1e-05	-3e-05	-5e-05	-0.00022	-4e-05	-3e-05	-1e-05	1
1725	-1e-05	-1e-05	-3e-05	-5e-05	-0.00022	-4e-05	-3e-05	-1e-05	1
1726	-1e-05	-1e-05	-3e-05	-5e-05	-0.00022	-4e-05	-3e-05	-1e-05	1
1727	-1e-05	-1e-05	-3e-05	-5e-05	-0.00022	-4e-05	-3e-05	-1e-05	1
1728	-1e-05	-1e-05	-3e-05	-5e-05	-0.00022	-4e-05	-3e-05	-1e-05	1
1729	-1e-05	-1e-05	-3e-05	-5e-05	-0.00022	-4e-05	-3e-05	-1e-05	1
1730	-1e-05	-1e-05	-3e-05	-5e-05	-0.00022	-4e-05	-3e-05	-1e-05	1
1731	-1e-05	-1e-05	-3e-05	-5e-05	-0.00022	-4e-05	-3e-05	-1e-05	1
1732	-1e-05	-1e-05	-3e-05	-5e-05	-0.00022	-4e-05	-3e-05	-1e-05	1
1733	-1e-05	-1e-05	-3e-05	-5e-05	-0.00022	-4e-05	-3e-05	-1e-05	1
1734	-5e-05	-3e-05	1e-05	2e-05	7e-05	-2e-05	-2e-05	0	1
1735	-5e-05	-3e-05	1e-05	2e-05	7e-05	-2e-05	-2e-05	0	1
1737	4e-05	0	-2e-05	-6e-05	-5e-05	1e-05	0	-2e-05	1
1739	4e-05	0	-2e-05	-6e-05	-5e-05	1e-05	0	-2e-05	1
1741	4e-05	0	-2e-05	-6e-05	-5e-05	1e-05	0	-2e-05	1
1742	4e-05	0	-2e-05	-6e-05	-5e-05	1e-05	0	-2e-05	1
1743	4e-05	0	-2e-05	-6e-05	-5e-05	1e-05	0	-2e-05	1
1744	4e-05	0	-2e-05	-6e-05	-5e-05	1e-05	0	-2e-05	1
1745	4e-05	0	-2e-05	-6e-05	-5e-05	1e-05	0	-2e-05	1
1746	4e-05	0	-2e-05	-6e-05	-5e-05	1e-05	0	-2e-05	1
1747	4e-05	0	-2e-05	-6e-05	-5e-05	1e-05	0	-2e-05	1
1748	-4e-05	-3e-05	-1e-05	2e-05	-9e-05	-2e-05	-2e-05	-1e-05	1
1749	-5e-05	1e-05	-1e-05	-2e-05	-0.00012	-2e-05	1e-05	-1e-05	1
1750	-5e-05	1e-05	-1e-05	-2e-05	-0.00012	-2e-05	1e-05	-1e-05	1
1751	-5e-05	1e-05	-1e-05	-2e-05	-0.00012	-2e-05	1e-05	-1e-05	1
1752	-5e-05	1e-05	-1e-05	-2e-05	-0.00012	-2e-05	1e-05	-1e-05	1
1753	-5e-05	1e-05	-1e-05	-2e-05	-0.00012	-2e-05	1e-05	-1e-05	1
1754	-5e-05	1e-05	-1e-05	-2e-05	-0.00012	-2e-05	1e-05	-1e-05	1
1755	-5e-05	1e-05	-1e-05	-2e-05	-0.00012	-2e-05	1e-05	-1e-05	1
1756	-5e-05	1e-05	-1e-05	-2e-05	-0.00012	-2e-05	1e-05	-1e-05	1
1757	-5e-05	1e-05	-1e-05	-2e-05	-0.00012	-2e-05	1e-05	-1e-05	1
1758	-5e-05	1e-05	-1e-05	-2e-05	-0.00012	-2e-05	1e-05	-1e-05	1
1759	-5e-05	1e-05	-1e-05	-2e-05	-0.00012	-2e-05	1e-05	-1e-05	1
1760	-5e-05	1e-05	-1e-05	-2e-05	-0.00012	-2e-05	1e-05	-1e-05	1
1761	-5e-05	1e-05	-1e-05	-2e-05	-0.00012	-2e-05	1e-05	-1e-05	1
1762	-5e-05	1e-05	-1e-05	-2e-05	-0.00012	-2e-05	1e-05	-1e-05	1
1763	-5e-05	1e-05	-1e-05	-2e-05	-0.00012	-2e-05	1e-05	-1e-05	1
1764	-5e-05	1e-05	-1e-05	-2e-05	-0.00012	-2e-05	1e-05	-1e-05	1
1765	-5e-05	1e-05	-1e-05	-2e-05	-0.00012	-2e-05	1e-05	-1e-05	1
1766	-5e-05	1e-05	-1e-05	-2e-05	-0.00012	-2e-05	1e-05	-1e-05	1
1767	-5e-05	1e-05	-1e-05	-2e-05	-0.00012	-2e-05	1e-05	-1e-05	1
1768	-5e-05	1e-05	-1e-05	-2e-05	-0.00012	-2e-05	1e-05	-1e-05	1
1769	-5e-05	1e-05	-1e-05	-2e-05	-0.00012	-2e-05	1e-05	-1e-05	1
1770	-5e-05	1e-05	-1e-05	-2e-05	-0.00012	-2e-05	1e-05	-1e-05	1
1771	0	-3e-05	-3e-05	-7e-05	-0.00011	-2e-05	0	-1e-05	1
1772	7e-05	-1e-05	-2e-05	0	0.0002	-1e-05	2e-05	0	1
1773	7e-05	-1e-05	-2e-05	0	0.0002	-1e-05	2e-05	0	1
1774	7e-05	-1e-05	-2e-05	0	0.0002	-1e-05	2e-05	0	1
1775	7e-05	-1e-05	-2e-05	0	0.0002	-1e-05	2e-05	0	1
1776	7e-05	-1e-05	-2e-05	0	0.0002	-1e-05	2e-05	0	1
1777	7e-05	-1e-05	-2e-05	0	0.0002	-1e-05	2e-05	0	1
1778	7e-05	-1e-05	-2e-05	0	0.0002	-1e-05	2e-05	0	1
1779	7e-05	-1e-05	-2e-05	0	0.0002	-1e-05	2e-05	0	1
1780	7e-05	-1e-05	-2e-05	0	0.0002	-1e-05	2e-05	0	1
1782	7e-05	-1e-05	-2e-05	0	0.0002	-1e-05	2e-05	0	1
1783	7e-05	-1e-05	-2e-05	0	0.0002	-1e-05	2e-05	0	1
1784	7e-05	-1e-05	-2e-05	0	0.0002	-1e-05	2e-05	0	1
1785	7e-05	-1e-05	-2e-05	0	0.0002	-1e-05	2e-05	0	1
1786	7e-05	-1e-05	-2e-05	0	0.0002	-1e-05	2e-05	0	1
1788	7e-05	-1e-05	-2e-05	0	0.0002	-1e-05	2e-05	0	1
1789	7e-05	-1e-05	-2e-05	0	0.0002	-1e-05	2e-05	0	1
1790	7e-05	-1e-05	-2e-05	0	0.0002	-1e-05	2e-05	0	1
1791	7e-05	-1e-05	-2e-05	0	0.0002	-1e-05	2e-05	0	1
1792	7e-05	-1e-05	-2e-05	0	0.0002	-1e-05	2e-05	0	1
1793	7e-05	-1e-05	-2e-05	0	0.0002	-1e-05	2e-05	0	1
1794	-1e-05	0	2e-05	0.00014	-0.00012	-3e-05	-3e-05	-1e-05	1
1795	-1e-05	0	-1e-05	-0.00011	-4e-05	0	-1e-05	1e-05	1
1796	-1e-05	0	-1e-05	-0.00011	-4e-05	0	-1e-05	1e-05	1
1797	-1e-05	0	-1e-05	-0.00011	-4e-05	0	-1e-05	1e-05	1
1798	-1e-05	0	-1e-05	-0.00011	-4e-05	0	-1e-05	1e-05	1
1799	-1e-05	0	-1e-05	-0.00011	-4e-05	0	-1e-05	1e-05	1
1800	-1e-05	0	-1e-05	-0.00011	-4e-05	0	-1e-05	1e-05	1
1801	-1e-05	0	-1e-05	-0.00011	-4e-05	0	-1e-05	1e-05	1
1802	-1e-05	0	-1e-05	-0.00011	-4e-05	0	-1e-05	1e-05	1
1803	-1e-05	0	-1e-05	-0.00011	-4e-05	0	-1e-05	1e-05	1
1804	-1e-05	0	-1e-05	-0.00011	-4e-05	0	-1e-05	1e-05	1
1805	-1e-05	0	-1e-05	-0.00011	-4e-05	0	-1e-05	1e-05	1
1806	-1e-05	0	-1e-05	-0.00011	-4e-05	0	-1e-05	1e-05	1
1807	-1e-05	0	-1e-05	-0.00011	-4e-05	0	-1e-05	1e-05	1
1808	-0.0001	0	7e-05	1e-05	-3e-05	0	0	-2e-05	1
1809	-5e-05	-2e-05	2e-05	3e-05	-0.00019	-1e-05	-2e-05	-2e-05	1
1810	-5e-05	-2e-05	2e-05	3e-05	-0.00019	-1e-05	-2e-05	-2e-05	1
1811	-5e-05	-2e-05	2e-05	3e-05	-0.00019	-1e-05	-2e-05	-2e-05	1
1812	-5e-05	-2e-05	2e-05	3e-05	-0.00019	-1e-05	-2e-05	-2e-05	1
1813	-5e-05	-2e-05	2e-05	3e-05	-0.00019	-1e-05	-2e-05	-2e-05	1
1814	-5e-05	-2e-05	2e-05	3e-05	-0.00019	-1e-05	-2e-05	-2e-05	1
1815	-5e-05	-2e-05	2e-05	3e-05	-0.00019	-1e-05	-2e-05	-2e-05	1
1816	-5e-05	-2e-05	2e-05	3e-05	-0.00019	-1e-05	-2e-05	-2e-05	1
1817	-5e-05	-2e-05	2e-05	3e-05	-0.00019	-1e-05	-2e-05	-2e-05	1
1818	-5e-05	-2e-05	2e-05	3e-05	-0.00019	-1e-05	-2e-05	-2e-05	1
1819	-5e-05	-2e-05	2e-05	3e-05	-0.00019	-1e-05	-2e-05	-2e-05	1
1820	-5e-05	-2e-05	2e-05	3e-05	-0.00019	-1e-05	-2e-05	-2e-05	1
1821	-5e-05	-2e-05	2e-05	3e-05	-0.00019	-1e-05	-2e-05	-2e-05	1
1822	-5e-05	-2e-05	2e-05	3e-05	-0.00019	-1e-05	-2e-05	-2e-05	1
1823	-5e-05	-2e-05	2e-05	3e-05	-0.00019	-1e-05	-2e-05	-2e-05	1
1824	-5e-05	-2e-05	2e-05	3e-05	-0.00019	-1e-05	-2e-05	-2e-05	1
1825	-5e-05	-2e-05	2e-05	3e-05	-0.00019	-1e-05	-2e-05	-2e-05	1
1826	-5e-05	-2e-05	2e-05	3e-05	-0.00019	-1e-05	-2e-05	-2e-05	1
1827	-5e-05	-2e-05	2e-05	3e-05	-0.00019	-1e-05	-2e-05	-2e-05	1
1828	-5e-05	-2e-05	2e-05	3e-05	-0.00019	-1e-05	-2e-05	-2e-05	1
1829	-5e-05	-2e-05	2e-05	3e-05	-0.00019	-1e-05	-2e-05	-2e-05	1
1830	-5e-05	-2e-05	2e-05	3e-05	-0.00019	-1e-05	-2e-05	-2e-05	1
1831	-6e-05	0	-3e-05	2e-05	-2e-05	0	0	-1e-05	1
1832	-9e-05	-5e-05	-5e-05	-4e-05	-0.00036	-4e-05	-3e-05	-2e-05	1
1833	-9e-05	-5e-05	-5e-05	-4e-05	-0.00036	-4e-05	-3e-05	-2e-05	1
1834	-9e-05	-5e-05	-5e-05	-4e-05	-0.00036	-4e-05	-3e-05	-2e-05	1
1835	-9e-05	-5e-05	-5e-05	-4e-05	-0.00036	-4e-05	-3e-05	-2e-05	1
1836	-9e-05	-5e-05	-5e-05	-4e-05	-0.00036	-4e-05	-3e-05	-2e-05	1
1838	-9e-05	-5e-05	-5e-05	-4e-05	-0.00036	-4e-05	-3e-05	-2e-05	1
1839	-9e-05	-5e-05	-5e-05	-4e-05	-0.00036	-4e-05	-3e-05	-2e-05	1
1840	-9e-05	-5e-05	-5e-05	-4e-05	-0.00036	-4e-05	-3e-05	-2e-05	1
1841	-9e-05	-5e-05	-5e-05	-4e-05	-0.00036	-4e-05	-3e-05	-2e-05	1
1842	-9e-05	-5e-05	-5e-05	-4e-05	-0.00036	-4e-05	-3e-05	-2e-05	1
1843	-9e-05	-5e-05	-5e-05	-4e-05	-0.00036	-4e-05	-3e-05	-2e-05	1
1844	-9e-05	-5e-05	-5e-05	-4e-05	-0.00036	-4e-05	-3e-05	-2e-05	1
1845	-9e-05	-5e-05	-5e-05	-4e-05	-0.00036	-4e-05	-3e-05	-2e-05	1
1846	-9e-05	-5e-05	-5e-05	-4e-05	-0.00036	-4e-05	-3e-05	-2e-05	1
1847	-9e-05	-5e-05	-5e-05	-4e-05	-0.00036	-4e-05	-3e-05	-2e-05	1
1848	-9e-05	-5e-05	-5e-05	-4e-05	-0.00036	-4e-05	-3e-05	-2e-05	1
1849	-9e-05	-5e-05	-5e-05	-4e-05	-0.00036	-4e-05	-3e-05	-2e-05	1
1850	-9e-05	-5e-05	-5e-05	-4e-05	-0.00036	-4e-05	-3e-05	-2e-05	1
1851	-9e-05	-5e-05	-5e-05	-4e-05	-0.00036	-4e-05	-3e-05	-2e-05	1
1852	-9e-05	-5e-05	-5e-05	-4e-05	-0.00036	-4e-05	-3e-05	-2e-05	1
1853	-9e-05	-5e-05	-5e-05	-4e-05	-0.00036	-4e-05	-3e-05	-2e-05	1
1854	-0.00013	-4e-05	-5e-05	-0.0001	-0.00014	-1e-05	-4e-05	-2e-05	1
1855	-1e-05	-3e-05	-2e-05	-6e-05	-0.00022	-1e-05	-1e-05	2e-05	1
1856	-1e-05	-3e-05	-2e-05	-6e-05	-0.00022	-1e-05	-1e-05	2e-05	1
1857	-1e-05	-3e-05	-2e-05	-6e-05	-0.00022	-1e-05	-1e-05	2e-05	1
1858	-1e-05	-3e-05	-2e-05	-6e-05	-0.00022	-1e-05	-1e-05	2e-05	1
1859	-1e-05	-3e-05	-2e-05	-6e-05	-0.00022	-1e-05	-1e-05	2e-05	1
1860	-1e-05	-3e-05	-2e-05	-6e-05	-0.00022	-1e-05	-1e-05	2e-05	1
1861	-1e-05	-3e-05	-2e-05	-6e-05	-0.00022	-1e-05	-1e-05	2e-05	1
1862	-1e-05	-3e-05	-2e-05	-6e-05	-0.00022	-1e-05	-1e-05	2e-05	1
1863	-1e-05	-3e-05	-2e-05	-6e-05	-0.00022	-1e-05	-1e-05	2e-05	1
1864	-1e-05	-3e-05	-2e-05	-6e-05	-0.00022	-1e-05	-1e-05	2e-05	1
1865	-1e-05	-3e-05	-2e-05	-6e-05	-0.00022	-1e-05	-1e-05	2e-05	1
1866	-1e-05	-3e-05	-2e-05	-6e-05	-0.00022	-1e-05	-1e-05	2e-05	1
1867	-1e-05	-3e-05	-2e-05	-6e-05	-0.00022	-1e-05	-1e-05	2e-05	1
1868	1e-05	0	2e-05	-1e-05	-5e-05	-1e-05	-1e-05	-1e-05	1
1869	1e-05	0	5e-05	3e-05	-4e-05	0	-1e-05	-1e-05	1
1870	1e-05	0	5e-05	3e-05	-4e-05	0	-1e-05	-1e-05	1
1871	1e-05	0	5e-05	3e-05	-4e-05	0	-1e-05	-1e-05	1
1872	1e-05	0	5e-05	3e-05	-4e-05	0	-1e-05	-1e-05	1
1873	1e-05	0	5e-05	3e-05	-4e-05	0	-1e-05	-1e-05	1
1874	1e-05	0	5e-05	3e-05	-4e-05	0	-1e-05	-1e-05	1
1875	1e-05	0	5e-05	3e-05	-4e-05	0	-1e-05	-1e-05	1
1876	1e-05	0	5e-05	3e-05	-4e-05	0	-1e-05	-1e-05	1
1877	1e-05	0	5e-05	3e-05	-4e-05	0	-1e-05	-1e-05	1
1878	1e-05	0	5e-05	3e-05	-4e-05	0	-1e-05	-1e-05	1
1879	1e-05	0	5e-05	3e-05	-4e-05	0	-1e-05	-1e-05	1
1880	1e-05	0	5e-05	3e-05	-4e-05	0	-1e-05	-1e-05	1
1881	1e-05	0	5e-05	3e-05	-4e-05	0	-1e-05	-1e-05	1
1882	1e-05	0	5e-05	3e-05	-4e-05	0	-1e-05	-1e-05	1
1883	1e-05	0	5e-05	3e-05	-4e-05	0	-1e-05	-1e-05	1
1884	1e-05	0	5e-05	3e-05	-4e-05	0	-1e-05	-1e-05	1
1885	1e-05	0	5e-05	3e-05	-4e-05	0	-1e-05	-1e-05	1
1886	1e-05	0	5e-05	3e-05	-4e-05	0	-1e-05	-1e-05	1
1888	1e-05	0	5e-05	3e-05	-4e-05	0	-1e-05	-1e-05	1
1889	1e-05	0	5e-05	3e-05	-4e-05	0	-1e-05	-1e-05	1
1890	1e-05	0	5e-05	3e-05	-4e-05	0	-1e-05	-1e-05	1
1891	3e-05	-1e-05	-3e-05	-1e-05	0.00019	-1e-05	0	0	1
1892	-1e-05	1e-05	0	6e-05	0.00017	0	0	-3e-05	1
1893	-1e-05	1e-05	0	6e-05	0.00017	0	0	-3e-05	1
1894	-1e-05	1e-05	0	6e-05	0.00017	0	0	-3e-05	1
1895	-1e-05	1e-05	0	6e-05	0.00017	0	0	-3e-05	1
1896	-1e-05	1e-05	0	6e-05	0.00017	0	0	-3e-05	1
1897	-1e-05	1e-05	0	6e-05	0.00017	0	0	-3e-05	1
1898	-1e-05	1e-05	0	6e-05	0.00017	0	0	-3e-05	1
1899	-1e-05	1e-05	0	6e-05	0.00017	0	0	-3e-05	1
1900	-1e-05	1e-05	0	6e-05	0.00017	0	0	-3e-05	1
1901	-1e-05	1e-05	0	6e-05	0.00017	0	0	-3e-05	1
1902	-1e-05	1e-05	0	6e-05	0.00017	0	0	-3e-05	1
1903	-1e-05	1e-05	0	6e-05	0.00017	0	0	-3e-05	1
1904	-1e-05	1e-05	0	6e-05	0.00017	0	0	-3e-05	1
1905	-1e-05	1e-05	0	6e-05	0.00017	0	0	-3e-05	1
1906	-1e-05	1e-05	0	6e-05	0.00017	0	0	-3e-05	1
1907	-1e-05	1e-05	0	6e-05	0.00017	0	0	-3e-05	1
1908	-1e-05	1e-05	0	6e-05	0.00017	0	0	-3e-05	1
1909	-1e-05	1e-05	0	6e-05	0.00017	0	0	-3e-05	1
1910	-1e-05	1e-05	0	6e-05	0.00017	0	0	-3e-05	1
1911	-1e-05	1e-05	0	6e-05	0.00017	0	0	-3e-05	1
1912	-1e-05	1e-05	0	6e-05	0.00017	0	0	-3e-05	1
1913	-1e-05	1e-05	0	6e-05	0.00017	0	0	-3e-05	1
1914	6e-05	-3e-05	-2e-05	-5e-05	0.00028	2e-05	-1e-05	1e-05	1
1915	6e-05	-3e-05	-2e-05	-5e-05	0.00028	2e-05	-1e-05	1e-05	1
1916	6e-05	-3e-05	-2e-05	-5e-05	0.00028	2e-05	-1e-05	1e-05	1
1917	6e-05	-3e-05	-2e-05	-5e-05	0.00028	2e-05	-1e-05	1e-05	1
1918	6e-05	-3e-05	-2e-05	-5e-05	0.00028	2e-05	-1e-05	1e-05	1
1919	6e-05	-3e-05	-2e-05	-5e-05	0.00028	2e-05	-1e-05	1e-05	1
1920	6e-05	-3e-05	-2e-05	-5e-05	0.00028	2e-05	-1e-05	1e-05	1
1921	6e-05	-3e-05	-2e-05	-5e-05	0.00028	2e-05	-1e-05	1e-05	1
1922	6e-05	-3e-05	-2e-05	-5e-05	0.00028	2e-05	-1e-05	1e-05	1
1923	6e-05	-3e-05	-2e-05	-5e-05	0.00028	2e-05	-1e-05	1e-05	1
1924	6e-05	-3e-05	-2e-05	-5e-05	0.00028	2e-05	-1e-05	1e-05	1
1925	6e-05	-3e-05	-2e-05	-5e-05	0.00028	2e-05	-1e-05	1e-05	1
1926	6e-05	-3e-05	-2e-05	-5e-05	0.00028	2e-05	-1e-05	1e-05	1
1927	6e-05	-3e-05	-2e-05	-5e-05	0.00028	2e-05	-1e-05	1e-05	1
1928	0.00014	0	-4e-05	3e-05	0.00024	0	-1e-05	-1e-05	1
1929	0.0001	-2e-05	0	9e-05	0	-1e-05	1e-05	0	1
1930	0.0001	-2e-05	0	9e-05	0	-1e-05	1e-05	0	1
1931	0.0001	-2e-05	0	9e-05	0	-1e-05	1e-05	0	1
1932	0.0001	-2e-05	0	9e-05	0	-1e-05	1e-05	0	1
1933	0.0001	-2e-05	0	9e-05	0	-1e-05	1e-05	0	1
1934	0.0001	-2e-05	0	9e-05	0	-1e-05	1e-05	0	1
1935	0.0001	-2e-05	0	9e-05	0	-1e-05	1e-05	0	1
1936	0.0001	-2e-05	0	9e-05	0	-1e-05	1e-05	0	1
1938	0.0001	-2e-05	0	9e-05	0	-1e-05	1e-05	0	1
1939	0.0001	-2e-05	0	9e-05	0	-1e-05	1e-05	0	1
1940	0.0001	-2e-05	0	9e-05	0	-1e-05	1e-05	0	1
1941	0.0001	-2e-05	0	9e-05	0	-1e-05	1e-05	0	1
1942	0.0001	-2e-05	0	9e-05	0	-1e-05	1e-05	0	1
1943	0.0001	-2e-05	0	9e-05	0	-1e-05	1e-05	0	1
1944	0.0001	-2e-05	0	9e-05	0	-1e-05	1e-05	0	1
1945	0.0001	-2e-05	0	9e-05	0	-1e-05	1e-05	0	1
1946	0.0001	-2e-05	0	9e-05	0	-1e-05	1e-05	0	1
1947	0.0001	-2e-05	0	9e-05	0	-1e-05	1e-05	0	1
1948	0.0001	-2e-05	0	9e-05	0	-1e-05	1e-05	0	1
1949	0.0001	-2e-05	0	9e-05	0	-1e-05	1e-05	0	1
1950	0.0001	-2e-05	0	9e-05	0	-1e-05	1e-05	0	1
1951	-1e-05	-3e-05	1e-05	3e-05	-3e-05	-1e-05	-1e-05	0	1
1952	2e-05	2e-05	0	0	4e-05	2e-05	0	-1e-05	1
1953	2e-05	2e-05	0	0	4e-05	2e-05	0	-1e-05	1
1954	2e-05	2e-05	0	0	4e-05	2e-05	0	-1e-05	1
1955	2e-05	2e-05	0	0	4e-05	2e-05	0	-1e-05	1
1956	2e-05	2e-05	0	0	4e-05	2e-05	0	-1e-05	1
1957	2e-05	2e-05	0	0	4e-05	2e-05	0	-1e-05	1
1958	2e-05	2e-05	0	0	4e-05	2e-05	0	-1e-05	1
1959	2e-05	2e-05	0	0	4e-05	2e-05	0	-1e-05	1
1960	2e-05	2e-05	0	0	4e-05	2e-05	0	-1e-05	1
1961	2e-05	2e-05	0	0	4e-05	2e-05	0	-1e-05	1
1962	2e-05	2e-05	0	0	4e-05	2e-05	0	-1e-05	1
1963	2e-05	2e-05	0	0	4e-05	2e-05	0	-1e-05	1
1964	2e-05	2e-05	0	0	4e-05	2e-05	0	-1e-05	1
1965	2e-05	2e-05	0	0	4e-05	2e-05	0	-1e-05	1
1966	2e-05	2e-05	0	0	4e-05	2e-05	0	-1e-05	1
1968	2e-05	2e-05	0	0	4e-05	2e-05	0	-1e-05	1
1969	2e-05	2e-05	0	0	4e-05	2e-05	0	-1e-05	1
1970	2e-05	2e-05	0	0	4e-05	2e-05	0	-1e-05	1
1971	2e-05	2e-05	0	0	4e-05	2e-05	0	-1e-05	1
1972	2e-05	2e-05	0	0	4e-05	2e-05	0	-1e-05	1
1973	2e-05	2e-05	0	0	4e-05	2e-05	0	-1e-05	1
1974	-2e-05	-1e-05	-2e-05	-5e-05	3e-05	-4e-05	-4e-05	-1e-05	1
1975	-0.00013	-6e-05	1e-05	5e-05	-7e-05	0	-3e-05	-3e-05	1
1976	-0.00013	-6e-05	1e-05	5e-05	-7e-05	0	-3e-05	-3e-05	1
1977	-0.00013	-6e-05	1e-05	5e-05	-7e-05	0	-3e-05	-3e-05	1
1978	-0.00013	-6e-05	1e-05	5e-05	-7e-05	0	-3e-05	-3e-05	1
1979	-0.00013	-6e-05	1e-05	5e-05	-7e-05	0	-3e-05	-3e-05	1
1980	-0.00013	-6e-05	1e-05	5e-05	-7e-05	0	-3e-05	-3e-05	1
1981	-0.00013	-6e-05	1e-05	5e-05	-7e-05	0	-3e-05	-3e-05	1
1982	-0.00013	-6e-05	1e-05	5e-05	-7e-05	0	-3e-05	-3e-05	1
1983	-0.00013	-6e-05	1e-05	5e-05	-7e-05	0	-3e-05	-3e-05	1
1984	-0.00013	-6e-05	1e-05	5e-05	-7e-05	0	-3e-05	-3e-05	1
1985	-0.00013	-6e-05	1e-05	5e-05	-7e-05	0	-3e-05	-3e-05	1
1986	-0.00013	-6e-05	1e-05	5e-05	-7e-05	0	-3e-05	-3e-05	1
1989	5e-05	-2e-05	-6e-05	-4e-05	-3e-05	-4e-05	-2e-05	1e-05	1
1990	5e-05	-2e-05	-6e-05	-4e-05	-3e-05	-4e-05	-2e-05	1e-05	1
1991	5e-05	-2e-05	-6e-05	-4e-05	-3e-05	-4e-05	-2e-05	1e-05	1
1992	5e-05	-2e-05	-6e-05	-4e-05	-3e-05	-4e-05	-2e-05	1e-05	1
1993	5e-05	-2e-05	-6e-05	-4e-05	-3e-05	-4e-05	-2e-05	1e-05	1
1994	5e-05	-2e-05	-6e-05	-4e-05	-3e-05	-4e-05	-2e-05	1e-05	1
1995	5e-05	-2e-05	-6e-05	-4e-05	-3e-05	-4e-05	-2e-05	1e-05	1
1996	5e-05	-2e-05	-6e-05	-4e-05	-3e-05	-4e-05	-2e-05	1e-05	1
1997	5e-05	-2e-05	-6e-05	-4e-05	-3e-05	-4e-05	-2e-05	1e-05	1
1998	5e-05	-2e-05	-6e-05	-4e-05	-3e-05	-4e-05	-2e-05	1e-05	1
1999	5e-05	-2e-05	-6e-05	-4e-05	-3e-05	-4e-05	-2e-05	1e-05	1
2000	5e-05	-2e-05	-6e-05	-4e-05	-3e-05	-4e-05	-2e-05	1e-05	1
2001	5e-05	-2e-05	-6e-05	-4e-05	-3e-05	-4e-05	-2e-05	1e-05	1
2002	5e-05	-2e-05	-6e-05	-4e-05	-3e-05	-4e-05	-2e-05	1e-05	1
2003	5e-05	-2e-05	-6e-05	-4e-05	-3e-05	-4e-05	-2e-05	1e-05	1
2004	5e-05	-2e-05	-6e-05	-4e-05	-3e-05	-4e-05	-2e-05	1e-05	1
2005	5e-05	-2e-05	-6e-05	-4e-05	-3e-05	-4e-05	-2e-05	1e-05	1
2006	5e-05	-2e-05	-6e-05	-4e-05	-3e-05	-4e-05	-2e-05	1e-05	1
2007	5e-05	-2e-05	-6e-05	-4e-05	-3e-05	-4e-05	-2e-05	1e-05	1
2008	5e-05	-2e-05	-6e-05	-4e-05	-3e-05	-4e-05	-2e-05	1e-05	1
2009	5e-05	-2e-05	-6e-05	-4e-05	-3e-05	-4e-05	-2e-05	1e-05	1
2010	5e-05	-2e-05	-6e-05	-4e-05	-3e-05	-4e-05	-2e-05	1e-05	1
2011	0	-2e-05	-5e-05	-0.00027	-0.00023	-3e-05	0	-1e-05	1
2012	2e-05	2e-05	-4e-05	-4e-05	-6e-05	-2e-05	-1e-05	-1e-05	1
2013	2e-05	2e-05	-4e-05	-4e-05	-6e-05	-2e-05	-1e-05	-1e-05	1
2014	2e-05	2e-05	-4e-05	-4e-05	-6e-05	-2e-05	-1e-05	-1e-05	1
2015	2e-05	2e-05	-4e-05	-4e-05	-6e-05	-2e-05	-1e-05	-1e-05	1
2016	2e-05	2e-05	-4e-05	-4e-05	-6e-05	-2e-05	-1e-05	-1e-05	1
2017	2e-05	2e-05	-4e-05	-4e-05	-6e-05	-2e-05	-1e-05	-1e-05	1
2018	2e-05	2e-05	-4e-05	-4e-05	-6e-05	-2e-05	-1e-05	-1e-05	1
2019	2e-05	2e-05	-4e-05	-4e-05	-6e-05	-2e-05	-1e-05	-1e-05	1
2020	2e-05	2e-05	-4e-05	-4e-05	-6e-05	-2e-05	-1e-05	-1e-05	1
2021	2e-05	2e-05	-4e-05	-4e-05	-6e-05	-2e-05	-1e-05	-1e-05	1
2022	2e-05	2e-05	-4e-05	-4e-05	-6e-05	-2e-05	-1e-05	-1e-05	1
2023	2e-05	2e-05	-4e-05	-4e-05	-6e-05	-2e-05	-1e-05	-1e-05	1
2024	2e-05	2e-05	-4e-05	-4e-05	-6e-05	-2e-05	-1e-05	-1e-05	1
2025	2e-05	2e-05	-4e-05	-4e-05	-6e-05	-2e-05	-1e-05	-1e-05	1
2026	2e-05	2e-05	-4e-05	-4e-05	-6e-05	-2e-05	-1e-05	-1e-05	1
2027	2e-05	2e-05	-4e-05	-4e-05	-6e-05	-2e-05	-1e-05	-1e-05	1
2028	2e-05	2e-05	-4e-05	-4e-05	-6e-05	-2e-05	-1e-05	-1e-05	1
2029	2e-05	2e-05	-4e-05	-4e-05	-6e-05	-2e-05	-1e-05	-1e-05	1
2030	2e-05	2e-05	-4e-05	-4e-05	-6e-05	-2e-05	-1e-05	-1e-05	1
2031	2e-05	2e-05	-4e-05	-4e-05	-6e-05	-2e-05	-1e-05	-1e-05	1
2032	2e-05	2e-05	-4e-05	-4e-05	-6e-05	-2e-05	-1e-05	-1e-05	1
2033	2e-05	2e-05	-4e-05	-4e-05	-6e-05	-2e-05	-1e-05	-1e-05	1
2034	-5e-05	1e-05	1e-05	5e-05	-0.00017	0	0	1e-05	1
2035	4e-05	0	3e-05	-1e-05	3e-05	1e-05	-1e-05	-2e-05	1
2036	4e-05	0	3e-05	-1e-05	3e-05	1e-05	-1e-05	-2e-05	1
2038	4e-05	0	3e-05	-1e-05	3e-05	1e-05	-1e-05	-2e-05	1
2039	4e-05	0	3e-05	-1e-05	3e-05	1e-05	-1e-05	-2e-05	1
2040	4e-05	0	3e-05	-1e-05	3e-05	1e-05	-1e-05	-2e-05	1
2041	4e-05	0	3e-05	-1e-05	3e-05	1e-05	-1e-05	-2e-05	1
2042	4e-05	0	3e-05	-1e-05	3e-05	1e-05	-1e-05	-2e-05	1
2043	4e-05	0	3e-05	-1e-05	3e-05	1e-05	-1e-05	-2e-05	1
2044	4e-05	0	3e-05	-1e-05	3e-05	1e-05	-1e-05	-2e-05	1
2045	4e-05	0	3e-05	-1e-05	3e-05	1e-05	-1e-05	-2e-05	1
2046	4e-05	0	3e-05	-1e-05	3e-05	1e-05	-1e-05	-2e-05	1
2047	4e-05	0	3e-05	-1e-05	3e-05	1e-05	-1e-05	-2e-05	1
2048	4e-05	0	3e-05	-1e-05	3e-05	1e-05	-1e-05	-2e-05	1
2049	1e-05	-2e-05	-2e-05	-4e-05	1e-05	-1e-05	-1e-05	1e-05	1
2050	1e-05	-2e-05	-2e-05	-4e-05	1e-05	-1e-05	-1e-05	1e-05	1
2051	1e-05	-2e-05	-2e-05	-4e-05	1e-05	-1e-05	-1e-05	1e-05	1
2052	1e-05	-2e-05	-2e-05	-4e-05	1e-05	-1e-05	-1e-05	1e-05	1
2053	1e-05	-2e-05	-2e-05	-4e-05	1e-05	-1e-05	-1e-05	1e-05	1
2054	1e-05	-2e-05	-2e-05	-4e-05	1e-05	-1e-05	-1e-05	1e-05	1
2055	1e-05	-2e-05	-2e-05	-4e-05	1e-05	-1e-05	-1e-05	1e-05	1
2056	1e-05	-2e-05	-2e-05	-4e-05	1e-05	-1e-05	-1e-05	1e-05	1
2057	1e-05	-2e-05	-2e-05	-4e-05	1e-05	-1e-05	-1e-05	1e-05	1
2058	1e-05	-2e-05	-2e-05	-4e-05	1e-05	-1e-05	-1e-05	1e-05	1
2059	1e-05	-2e-05	-2e-05	-4e-05	1e-05	-1e-05	-1e-05	1e-05	1
2060	1e-05	-2e-05	-2e-05	-4e-05	1e-05	-1e-05	-1e-05	1e-05	1
2061	1e-05	-2e-05	-2e-05	-4e-05	1e-05	-1e-05	-1e-05	1e-05	1
2062	1e-05	-2e-05	-2e-05	-4e-05	1e-05	-1e-05	-1e-05	1e-05	1
2063	1e-05	-2e-05	-2e-05	-4e-05	1e-05	-1e-05	-1e-05	1e-05	1
2064	1e-05	-2e-05	-2e-05	-4e-05	1e-05	-1e-05	-1e-05	1e-05	1
2065	1e-05	-2e-05	-2e-05	-4e-05	1e-05	-1e-05	-1e-05	1e-05	1
2066	1e-05	-2e-05	-2e-05	-4e-05	1e-05	-1e-05	-1e-05	1e-05	1
2067	1e-05	-2e-05	-2e-05	-4e-05	1e-05	-1e-05	-1e-05	1e-05	1
2068	1e-05	-2e-05	-2e-05	-4e-05	1e-05	-1e-05	-1e-05	1e-05	1
2069	1e-05	-2e-05	-2e-05	-4e-05	1e-05	-1e-05	-1e-05	1e-05	1
2070	1e-05	-2e-05	-2e-05	-4e-05	1e-05	-1e-05	-1e-05	1e-05	1
2071	0	-3e-05	4e-05	3e-05	-1e-05	-5e-05	-1e-05	-2e-05	1
2072	-0.00017	-2e-05	-4e-05	-1e-05	-4e-05	-2e-05	0	-3e-05	1
2073	-0.00017	-2e-05	-4e-05	-1e-05	-4e-05	-2e-05	0	-3e-05	1
2074	-0.00017	-2e-05	-4e-05	-1e-05	-4e-05	-2e-05	0	-3e-05	1
2075	-0.00017	-2e-05	-4e-05	-1e-05	-4e-05	-2e-05	0	-3e-05	1
2076	-0.00017	-2e-05	-4e-05	-1e-05	-4e-05	-2e-05	0	-3e-05	1
2077	-0.00017	-2e-05	-4e-05	-1e-05	-4e-05	-2e-05	0	-3e-05	1
2078	-0.00017	-2e-05	-4e-05	-1e-05	-4e-05	-2e-05	0	-3e-05	1
2079	-0.00017	-2e-05	-4e-05	-1e-05	-4e-05	-2e-05	0	-3e-05	1
2080	-0.00017	-2e-05	-4e-05	-1e-05	-4e-05	-2e-05	0	-3e-05	1
2081	-0.00017	-2e-05	-4e-05	-1e-05	-4e-05	-2e-05	0	-3e-05	1
2082	-0.00017	-2e-05	-4e-05	-1e-05	-4e-05	-2e-05	0	-3e-05	1
2083	-0.00017	-2e-05	-4e-05	-1e-05	-4e-05	-2e-05	0	-3e-05	1
2084	-0.00017	-2e-05	-4e-05	-1e-05	-4e-05	-2e-05	0	-3e-05	1
2085	-0.00017	-2e-05	-4e-05	-1e-05	-4e-05	-2e-05	0	-3e-05	1
2086	-0.00017	-2e-05	-4e-05	-1e-05	-4e-05	-2e-05	0	-3e-05	1
2088	-0.00017	-2e-05	-4e-05	-1e-05	-4e-05	-2e-05	0	-3e-05	1
2089	-0.00017	-2e-05	-4e-05	-1e-05	-4e-05	-2e-05	0	-3e-05	1
2090	-0.00017	-2e-05	-4e-05	-1e-05	-4e-05	-2e-05	0	-3e-05	1
2091	-0.00017	-2e-05	-4e-05	-1e-05	-4e-05	-2e-05	0	-3e-05	1
2092	-0.00017	-2e-05	-4e-05	-1e-05	-4e-05	-2e-05	0	-3e-05	1
2093	-0.00017	-2e-05	-4e-05	-1e-05	-4e-05	-2e-05	0	-3e-05	1
2094	-0.00013	-3e-05	-4e-05	1e-05	-1e-05	-1e-05	-2e-05	-2e-05	1
2095	-2e-05	-2e-05	-6e-05	-5e-05	0.00023	0	-1e-05	-1e-05	1
2096	-2e-05	-2e-05	-6e-05	-5e-05	0.00023	0	-1e-05	-1e-05	1
2097	-2e-05	-2e-05	-6e-05	-5e-05	0.00023	0	-1e-05	-1e-05	1
2098	-2e-05	-2e-05	-6e-05	-5e-05	0.00023	0	-1e-05	-1e-05	1
2099	-2e-05	-2e-05	-6e-05	-5e-05	0.00023	0	-1e-05	-1e-05	1
2100	-2e-05	-2e-05	-6e-05	-5e-05	0.00023	0	-1e-05	-1e-05	1
2101	-2e-05	-2e-05	-6e-05	-5e-05	0.00023	0	-1e-05	-1e-05	1
2102	-2e-05	-2e-05	-6e-05	-5e-05	0.00023	0	-1e-05	-1e-05	1
2103	-2e-05	-2e-05	-6e-05	-5e-05	0.00023	0	-1e-05	-1e-05	1
2104	-2e-05	-2e-05	-6e-05	-5e-05	0.00023	0	-1e-05	-1e-05	1
2105	-2e-05	-2e-05	-6e-05	-5e-05	0.00023	0	-1e-05	-1e-05	1
2106	-2e-05	-2e-05	-6e-05	-5e-05	0.00023	0	-1e-05	-1e-05	1
2107	-2e-05	-2e-05	-6e-05	-5e-05	0.00023	0	-1e-05	-1e-05	1
2108	-2e-05	-2e-05	-6e-05	-5e-05	0.00023	0	-1e-05	-1e-05	1
2109	-2e-05	-1e-05	1e-05	2e-05	-7e-05	0	0	-2e-05	1
2110	-2e-05	-1e-05	1e-05	2e-05	-7e-05	0	0	-2e-05	1
2111	-2e-05	-1e-05	1e-05	2e-05	-7e-05	0	0	-2e-05	1
2112	-2e-05	-1e-05	1e-05	2e-05	-7e-05	0	0	-2e-05	1
2113	-2e-05	-1e-05	1e-05	2e-05	-7e-05	0	0	-2e-05	1
2114	-2e-05	-1e-05	1e-05	2e-05	-7e-05	0	0	-2e-05	1
2115	-2e-05	-1e-05	1e-05	2e-05	-7e-05	0	0	-2e-05	1
2116	-2e-05	-1e-05	1e-05	2e-05	-7e-05	0	0	-2e-05	1
2117	-2e-05	-1e-05	1e-05	2e-05	-7e-05	0	0	-2e-05	1
2118	-2e-05	-1e-05	1e-05	2e-05	-7e-05	0	0	-2e-05	1
2119	-2e-05	-1e-05	1e-05	2e-05	-7e-05	0	0	-2e-05	1
2120	-2e-05	-1e-05	1e-05	2e-05	-7e-05	0	0	-2e-05	1
2121	-2e-05	-1e-05	1e-05	2e-05	-7e-05	0	0	-2e-05	1
2122	-2e-05	-1e-05	1e-05	2e-05	-7e-05	0	0	-2e-05	1
2123	-2e-05	-1e-05	1e-05	2e-05	-7e-05	0	0	-2e-05	1
2124	-2e-05	-1e-05	1e-05	2e-05	-7e-05	0	0	-2e-05	1
2125	-2e-05	-1e-05	1e-05	2e-05	-7e-05	0	0	-2e-05	1
2126	-2e-05	-1e-05	1e-05	2e-05	-7e-05	0	0	-2e-05	1
2127	-2e-05	-1e-05	1e-05	2e-05	-7e-05	0	0	-2e-05	1
2128	-2e-05	-1e-05	1e-05	2e-05	-7e-05	0	0	-2e-05	1
2129	-2e-05	-1e-05	1e-05	2e-05	-7e-05	0	0	-2e-05	1
2130	-2e-05	-1e-05	1e-05	2e-05	-7e-05	0	0	-2e-05	1
2131	0.00015	-1e-05	-1e-05	-2e-05	-3e-05	-1e-05	-1e-05	-2e-05	1
2132	1e-05	2e-05	-1e-05	2e-05	-5e-05	0	0	-1e-05	1
2133	1e-05	2e-05	-1e-05	2e-05	-5e-05	0	0	-1e-05	1
2134	1e-05	2e-05	-1e-05	2e-05	-5e-05	0	0	-1e-05	1
2135	1e-05	2e-05	-1e-05	2e-05	-5e-05	0	0	-1e-05	1
2136	1e-05	2e-05	-1e-05	2e-05	-5e-05	0	0	-1e-05	1
2138	1e-05	2e-05	-1e-05	2e-05	-5e-05	0	0	-1e-05	1
2139	1e-05	2e-05	-1e-05	2e-05	-5e-05	0	0	-1e-05	1
2140	1e-05	2e-05	-1e-05	2e-05	-5e-05	0	0	-1e-05	1
2141	1e-05	2e-05	-1e-05	2e-05	-5e-05	0	0	-1e-05	1
2142	1e-05	2e-05	-1e-05	2e-05	-5e-05	0	0	-1e-05	1
2143	1e-05	2e-05	-1e-05	2e-05	-5e-05	0	0	-1e-05	1
2144	1e-05	2e-05	-1e-05	2e-05	-5e-05	0	0	-1e-05	1
2145	1e-05	2e-05	-1e-05	2e-05	-5e-05	0	0	-1e-05	1
2146	1e-05	2e-05	-1e-05	2e-05	-5e-05	0	0	-1e-05	1
2147	1e-05	2e-05	-1e-05	2e-05	-5e-05	0	0	-1e-05	1
2148	1e-05	2e-05	-1e-05	2e-05	-5e-05	0	0	-1e-05	1
2149	1e-05	2e-05	-1e-05	2e-05	-5e-05	0	0	-1e-05	1
2150	1e-05	2e-05	-1e-05	2e-05	-5e-05	0	0	-1e-05	1
2151	1e-05	2e-05	-1e-05	2e-05	-5e-05	0	0	-1e-05	1
2152	1e-05	2e-05	-1e-05	2e-05	-5e-05	0	0	-1e-05	1
2153	1e-05	2e-05	-1e-05	2e-05	-5e-05	0	0	-1e-05	1
2154	3e-05	2e-05	5e-05	9e-05	0.00013	1e-05	0	1e-05	1
2155	0	-1e-05	-1e-05	-7e-05	-8e-05	-2e-05	0	1e-05	1
2156	0	-1e-05	-1e-05	-7e-05	-8e-05	-2e-05	0	1e-05	1
2157	0	-1e-05	-1e-05	-7e-05	-8e-05	-2e-05	0	1e-05	1
2158	0	-1e-05	-1e-05	-7e-05	-8e-05	-2e-05	0	1e-05	1
2159	0	-1e-05	-1e-05	-7e-05	-8e-05	-2e-05	0	1e-05	1
2160	0	-1e-05	-1e-05	-7e-05	-8e-05	-2e-05	0	1e-05	1
2161	0	-1e-05	-1e-05	-7e-05	-8e-05	-2e-05	0	1e-05	1
2162	0	-1e-05	-1e-05	-7e-05	-8e-05	-2e-05	0	1e-05	1
2163	0	-1e-05	-1e-05	-7e-05	-8e-05	-2e-05	0	1e-05	1
2164	0	-1e-05	-1e-05	-7e-05	-8e-05	-2e-05	0	1e-05	1
2165	0	-1e-05	-1e-05	-7e-05	-8e-05	-2e-05	0	1e-05	1
2166	0	-1e-05	-1e-05	-7e-05	-8e-05	-2e-05	0	1e-05	1
2167	-2e-05	2e-05	6e-05	4e-05	-1e-05	-1e-05	1e-05	-1e-05	1
2168	1e-05	-1e-05	0	2e-05	5e-05	0	1e-05	0	1
2169	1e-05	-1e-05	0	2e-05	5e-05	0	1e-05	0	1
2170	1e-05	-1e-05	0	2e-05	5e-05	0	1e-05	0	1
2171	1e-05	-1e-05	0	2e-05	5e-05	0	1e-05	0	1
2172	1e-05	-1e-05	0	2e-05	5e-05	0	1e-05	0	1
2173	1e-05	-1e-05	0	2e-05	5e-05	0	1e-05	0	1
2174	1e-05	-1e-05	0	2e-05	5e-05	0	1e-05	0	1
2175	1e-05	-1e-05	0	2e-05	5e-05	0	1e-05	0	1
2176	4e-05	0	-4e-05	-8e-05	7e-05	-2e-05	1e-05	-1e-05	1
2177	-2e-05	-1e-05	3e-05	0.00013	-4e-05	0	-1e-05	1e-05	1
2178	-2e-05	-1e-05	3e-05	0.00013	-4e-05	0	-1e-05	1e-05	1
2179	-2e-05	-1e-05	3e-05	0.00013	-4e-05	0	-1e-05	1e-05	1
2180	-2e-05	-1e-05	3e-05	0.00013	-4e-05	0	-1e-05	1e-05	1
2181	-2e-05	-1e-05	3e-05	0.00013	-4e-05	0	-1e-05	1e-05	1
2182	-2e-05	-1e-05	3e-05	0.00013	-4e-05	0	-1e-05	1e-05	1
2183	-2e-05	-1e-05	3e-05	0.00013	-4e-05	0	-1e-05	1e-05	1
2184	-2e-05	-1e-05	3e-05	0.00013	-4e-05	0	-1e-05	1e-05	1
2185	-2e-05	-1e-05	3e-05	0.00013	-4e-05	0	-1e-05	1e-05	1
2186	-2e-05	-1e-05	3e-05	0.00013	-4e-05	0	-1e-05	1e-05	1
2188	-2e-05	-1e-05	3e-05	0.00013	-4e-05	0	-1e-05	1e-05	1
2189	-2e-05	-1e-05	3e-05	0.00013	-4e-05	0	-1e-05	1e-05	1
2190	-2e-05	-1e-05	3e-05	0.00013	-4e-05	0	-1e-05	1e-05	1
2191	5e-05	1e-05	-4e-05	-0.00018	-9e-05	0	0	0	1
2192	-3e-05	-2e-05	0	-1e-05	-2e-05	1e-05	0	-2e-05	1
2193	4e-05	1e-05	0	-0.00016	-0.00039	-2e-05	0	-1e-05	1
2194	4e-05	1e-05	0	-0.00016	-0.00039	-2e-05	0	-1e-05	1
2195	4e-05	1e-05	0	-0.00016	-0.00039	-2e-05	0	-1e-05	1
2196	4e-05	1e-05	0	-0.00016	-0.00039	-2e-05	0	-1e-05	1
2197	4e-05	1e-05	0	-0.00016	-0.00039	-2e-05	0	-1e-05	1
2198	4e-05	1e-05	0	-0.00016	-0.00039	-2e-05	0	-1e-05	1
2199	4e-05	1e-05	0	-0.00016	-0.00039	-2e-05	0	-1e-05	1
2200	4e-05	1e-05	0	-0.00016	-0.00039	-2e-05	0	-1e-05	1
2201	4e-05	1e-05	0	-0.00016	-0.00039	-2e-05	0	-1e-05	1
2202	4e-05	1e-05	0	-0.00016	-0.00039	-2e-05	0	-1e-05	1
2203	4e-05	1e-05	0	-0.00016	-0.00039	-2e-05	0	-1e-05	1
2204	4e-05	1e-05	0	-0.00016	-0.00039	-2e-05	0	-1e-05	1
2205	4e-05	1e-05	0	-0.00016	-0.00039	-2e-05	0	-1e-05	1
2206	4e-05	1e-05	0	-0.00016	-0.00039	-2e-05	0	-1e-05	1
2207	4e-05	1e-05	0	-0.00016	-0.00039	-2e-05	0	-1e-05	1
2208	4e-05	1e-05	0	-0.00016	-0.00039	-2e-05	0	-1e-05	1
2209	4e-05	1e-05	0	-0.00016	-0.00039	-2e-05	0	-1e-05	1
2210	4e-05	1e-05	0	-0.00016	-0.00039	-2e-05	0	-1e-05	1
2211	4e-05	1e-05	0	-0.00016	-0.00039	-2e-05	0	-1e-05	1
2212	4e-05	1e-05	0	-0.00016	-0.00039	-2e-05	0	-1e-05	1
2213	4e-05	1e-05	0	-0.00016	-0.00039	-2e-05	0	-1e-05	1
2214	-4e-05	-5e-05	-5e-05	0.00011	0.00029	0	-2e-05	-2e-05	1
2215	1e-05	-1e-05	-2e-05	-2e-05	2e-05	-3e-05	-3e-05	-1e-05	1
2216	1e-05	-1e-05	-2e-05	-2e-05	2e-05	-3e-05	-3e-05	-1e-05	1
2217	1e-05	-1e-05	-2e-05	-2e-05	2e-05	-3e-05	-3e-05	-1e-05	1
2218	1e-05	-1e-05	-2e-05	-2e-05	2e-05	-3e-05	-3e-05	-1e-05	1
2219	1e-05	-1e-05	-2e-05	-2e-05	2e-05	-3e-05	-3e-05	-1e-05	1
2220	1e-05	-1e-05	-2e-05	-2e-05	2e-05	-3e-05	-3e-05	-1e-05	1
2221	1e-05	-1e-05	-2e-05	-2e-05	2e-05	-3e-05	-3e-05	-1e-05	1
2222	1e-05	-1e-05	-2e-05	-2e-05	2e-05	-3e-05	-3e-05	-1e-05	1
2223	1e-05	-1e-05	-2e-05	-2e-05	2e-05	-3e-05	-3e-05	-1e-05	1
2224	1e-05	-1e-05	-2e-05	-2e-05	2e-05	-3e-05	-3e-05	-1e-05	1
2225	1e-05	-1e-05	-2e-05	-2e-05	2e-05	-3e-05	-3e-05	-1e-05	1
2226	1e-05	-1e-05	-2e-05	-2e-05	2e-05	-3e-05	-3e-05	-1e-05	1
2227	2e-05	0	-3e-05	-6e-05	-0.00013	1e-05	-2e-05	0	1
2228	-0.00011	-1e-05	-1e-05	4e-05	0.00012	-2e-05	-1e-05	-2e-05	1
2229	-0.00011	-1e-05	-1e-05	4e-05	0.00012	-2e-05	-1e-05	-2e-05	1
2230	-0.00011	-1e-05	-1e-05	4e-05	0.00012	-2e-05	-1e-05	-2e-05	1
2231	-0.00011	-1e-05	-1e-05	4e-05	0.00012	-2e-05	-1e-05	-2e-05	1
2232	-0.00011	-1e-05	-1e-05	4e-05	0.00012	-2e-05	-1e-05	-2e-05	1
2233	-0.00011	-1e-05	-1e-05	4e-05	0.00012	-2e-05	-1e-05	-2e-05	1
2234	-0.00011	-1e-05	-1e-05	4e-05	0.00012	-2e-05	-1e-05	-2e-05	1
2235	-0.00011	-1e-05	-1e-05	4e-05	0.00012	-2e-05	-1e-05	-2e-05	1
2236	2e-05	-3e-05	-5e-05	0	0.0001	0	0	2e-05	1
2238	-4e-05	-3e-05	-1e-05	-2e-05	2e-05	0	-1e-05	0	1
2239	-4e-05	-3e-05	-1e-05	-2e-05	2e-05	0	-1e-05	0	1
2240	-4e-05	-3e-05	-1e-05	-2e-05	2e-05	0	-1e-05	0	1
2241	-4e-05	-3e-05	-1e-05	-2e-05	2e-05	0	-1e-05	0	1
2242	-4e-05	-3e-05	-1e-05	-2e-05	2e-05	0	-1e-05	0	1
2243	-4e-05	-3e-05	-1e-05	-2e-05	2e-05	0	-1e-05	0	1
2244	-4e-05	-3e-05	-1e-05	-2e-05	2e-05	0	-1e-05	0	1
2245	-4e-05	-3e-05	-1e-05	-2e-05	2e-05	0	-1e-05	0	1
2246	-4e-05	-3e-05	-1e-05	-2e-05	2e-05	0	-1e-05	0	1
2247	-4e-05	-3e-05	-1e-05	-2e-05	2e-05	0	-1e-05	0	1
2248	-4e-05	-3e-05	-1e-05	-2e-05	2e-05	0	-1e-05	0	1
2249	-4e-05	-3e-05	-1e-05	-2e-05	2e-05	0	-1e-05	0	1
2250	-4e-05	-3e-05	-1e-05	-2e-05	2e-05	0	-1e-05	0	1
2251	7e-05	0	-4e-05	0.00016	0.00012	0	-1e-05	1e-05	1
2252	7e-05	0	-4e-05	0.00016	0.00012	0	-1e-05	1e-05	1
2253	-0.00016	-6e-05	0	6e-05	8e-05	-1e-05	-1e-05	-2e-05	1
2254	-0.00016	-6e-05	0	6e-05	8e-05	-1e-05	-1e-05	-2e-05	1
2255	-0.00016	-6e-05	0	6e-05	8e-05	-1e-05	-1e-05	-2e-05	1
2256	-0.00016	-6e-05	0	6e-05	8e-05	-1e-05	-1e-05	-2e-05	1
2257	-0.00016	-6e-05	0	6e-05	8e-05	-1e-05	-1e-05	-2e-05	1
2258	-0.00016	-6e-05	0	6e-05	8e-05	-1e-05	-1e-05	-2e-05	1
2259	-0.00016	-6e-05	0	6e-05	8e-05	-1e-05	-1e-05	-2e-05	1
2260	-0.00016	-6e-05	0	6e-05	8e-05	-1e-05	-1e-05	-2e-05	1
2261	-0.00016	-6e-05	0	6e-05	8e-05	-1e-05	-1e-05	-2e-05	1
2262	-0.00016	-6e-05	0	6e-05	8e-05	-1e-05	-1e-05	-2e-05	1
2263	-0.00016	-6e-05	0	6e-05	8e-05	-1e-05	-1e-05	-2e-05	1
2264	-0.00016	-6e-05	0	6e-05	8e-05	-1e-05	-1e-05	-2e-05	1
2265	-0.00016	-6e-05	0	6e-05	8e-05	-1e-05	-1e-05	-2e-05	1
2266	-0.00016	-6e-05	0	6e-05	8e-05	-1e-05	-1e-05	-2e-05	1
2267	-0.00016	-6e-05	0	6e-05	8e-05	-1e-05	-1e-05	-2e-05	1
2268	-0.00016	-6e-05	0	6e-05	8e-05	-1e-05	-1e-05	-2e-05	1
2269	-0.00016	-6e-05	0	6e-05	8e-05	-1e-05	-1e-05	-2e-05	1
2270	-0.00016	-6e-05	0	6e-05	8e-05	-1e-05	-1e-05	-2e-05	1
2271	-0.00016	-6e-05	0	6e-05	8e-05	-1e-05	-1e-05	-2e-05	1
2272	-0.00016	-6e-05	0	6e-05	8e-05	-1e-05	-1e-05	-2e-05	1
2273	-0.00016	-6e-05	0	6e-05	8e-05	-1e-05	-1e-05	-2e-05	1
2274	-5e-05	-4e-05	-6e-05	-0.00015	-0.00012	-4e-05	-3e-05	-4e-05	1
2275	6e-05	2e-05	3e-05	0.00012	-2e-05	1e-05	1e-05	0	1
2276	6e-05	2e-05	3e-05	0.00012	-2e-05	1e-05	1e-05	0	1
2277	6e-05	2e-05	3e-05	0.00012	-2e-05	1e-05	1e-05	0	1
2278	6e-05	2e-05	3e-05	0.00012	-2e-05	1e-05	1e-05	0	1
2279	6e-05	2e-05	3e-05	0.00012	-2e-05	1e-05	1e-05	0	1
2280	6e-05	2e-05	3e-05	0.00012	-2e-05	1e-05	1e-05	0	1
2281	6e-05	2e-05	3e-05	0.00012	-2e-05	1e-05	1e-05	0	1
2282	6e-05	2e-05	3e-05	0.00012	-2e-05	1e-05	1e-05	0	1
2283	6e-05	2e-05	3e-05	0.00012	-2e-05	1e-05	1e-05	0	1
2284	6e-05	2e-05	3e-05	0.00012	-2e-05	1e-05	1e-05	0	1
2285	6e-05	2e-05	3e-05	0.00012	-2e-05	1e-05	1e-05	0	1
2286	6e-05	2e-05	3e-05	0.00012	-2e-05	1e-05	1e-05	0	1
2289	1e-05	0	4e-05	8e-05	7e-05	0	-3e-05	-1e-05	1
2290	1e-05	0	4e-05	8e-05	7e-05	0	-3e-05	-1e-05	1
2291	1e-05	0	4e-05	8e-05	7e-05	0	-3e-05	-1e-05	1
2292	1e-05	0	4e-05	8e-05	7e-05	0	-3e-05	-1e-05	1
2293	1e-05	0	4e-05	8e-05	7e-05	0	-3e-05	-1e-05	1
2294	1e-05	0	4e-05	8e-05	7e-05	0	-3e-05	-1e-05	1
2295	1e-05	0	4e-05	8e-05	7e-05	0	-3e-05	-1e-05	1
2296	1e-05	0	4e-05	8e-05	7e-05	0	-3e-05	-1e-05	1
2297	-1e-05	-3e-05	-9e-05	-0.00017	3e-05	-3e-05	-2e-05	0	1
2298	-1e-05	-3e-05	-9e-05	-0.00017	3e-05	-3e-05	-2e-05	0	1
2299	-1e-05	-3e-05	-9e-05	-0.00017	3e-05	-3e-05	-2e-05	0	1
2300	-1e-05	-3e-05	-9e-05	-0.00017	3e-05	-3e-05	-2e-05	0	1
2301	-1e-05	-3e-05	-9e-05	-0.00017	3e-05	-3e-05	-2e-05	0	1
2302	-1e-05	-3e-05	-9e-05	-0.00017	3e-05	-3e-05	-2e-05	0	1
2303	-1e-05	-3e-05	-9e-05	-0.00017	3e-05	-3e-05	-2e-05	0	1
2304	-1e-05	-3e-05	-9e-05	-0.00017	3e-05	-3e-05	-2e-05	0	1
2305	-1e-05	-3e-05	-9e-05	-0.00017	3e-05	-3e-05	-2e-05	0	1
2306	-1e-05	-3e-05	-9e-05	-0.00017	3e-05	-3e-05	-2e-05	0	1
2307	-1e-05	-3e-05	-9e-05	-0.00017	3e-05	-3e-05	-2e-05	0	1
2308	-1e-05	-3e-05	-9e-05	-0.00017	3e-05	-3e-05	-2e-05	0	1
2309	-1e-05	-3e-05	-9e-05	-0.00017	3e-05	-3e-05	-2e-05	0	1
2310	-1e-05	-3e-05	-9e-05	-0.00017	3e-05	-3e-05	-2e-05	0	1
2311	-6e-05	-2e-05	-1e-05	-7e-05	-2e-05	1e-05	-1e-05	-2e-05	1
2312	-6e-05	-2e-05	-1e-05	-7e-05	-2e-05	1e-05	-1e-05	-2e-05	1
2313	1e-05	2e-05	1e-05	-2e-05	0	-2e-05	-2e-05	-1e-05	1
2314	1e-05	2e-05	1e-05	-2e-05	0	-2e-05	-2e-05	-1e-05	1
2315	1e-05	2e-05	1e-05	-2e-05	0	-2e-05	-2e-05	-1e-05	1
2316	1e-05	2e-05	1e-05	-2e-05	0	-2e-05	-2e-05	-1e-05	1
2317	1e-05	2e-05	1e-05	-2e-05	0	-2e-05	-2e-05	-1e-05	1
2318	1e-05	2e-05	1e-05	-2e-05	0	-2e-05	-2e-05	-1e-05	1
2319	1e-05	2e-05	1e-05	-2e-05	0	-2e-05	-2e-05	-1e-05	1
2320	1e-05	2e-05	1e-05	-2e-05	0	-2e-05	-2e-05	-1e-05	1
2321	1e-05	2e-05	1e-05	-2e-05	0	-2e-05	-2e-05	-1e-05	1
2322	1e-05	2e-05	1e-05	-2e-05	0	-2e-05	-2e-05	-1e-05	1
2323	1e-05	2e-05	1e-05	-2e-05	0	-2e-05	-2e-05	-1e-05	1
2324	1e-05	2e-05	1e-05	-2e-05	0	-2e-05	-2e-05	-1e-05	1
2325	1e-05	2e-05	1e-05	-2e-05	0	-2e-05	-2e-05	-1e-05	1
2326	1e-05	2e-05	1e-05	-2e-05	0	-2e-05	-2e-05	-1e-05	1
2327	1e-05	2e-05	1e-05	-2e-05	0	-2e-05	-2e-05	-1e-05	1
2328	1e-05	2e-05	1e-05	-2e-05	0	-2e-05	-2e-05	-1e-05	1
2329	1e-05	2e-05	1e-05	-2e-05	0	-2e-05	-2e-05	-1e-05	1
2330	1e-05	2e-05	1e-05	-2e-05	0	-2e-05	-2e-05	-1e-05	1
2331	1e-05	2e-05	1e-05	-2e-05	0	-2e-05	-2e-05	-1e-05	1
2332	1e-05	2e-05	1e-05	-2e-05	0	-2e-05	-2e-05	-1e-05	1
2333	-2e-05	1e-05	-2e-05	-0.0001	-4e-05	-2e-05	0	0	1
2334	-2e-05	1e-05	-2e-05	-0.0001	-4e-05	-2e-05	0	0	1
2335	-2e-05	1e-05	-2e-05	-0.0001	-4e-05	-2e-05	0	0	1
2336	-2e-05	1e-05	-2e-05	-0.0001	-4e-05	-2e-05	0	0	1
2338	-2e-05	1e-05	-2e-05	-0.0001	-4e-05	-2e-05	0	0	1
2339	-2e-05	1e-05	-2e-05	-0.0001	-4e-05	-2e-05	0	0	1
2340	-2e-05	1e-05	-2e-05	-0.0001	-4e-05	-2e-05	0	0	1
2341	-2e-05	1e-05	-2e-05	-0.0001	-4e-05	-2e-05	0	0	1
2342	-0.00012	-4e-05	-6e-05	-6e-05	-8e-05	-2e-05	0	-4e-05	1
2343	-0.00012	-4e-05	-6e-05	-6e-05	-8e-05	-2e-05	0	-4e-05	1
2344	-0.00012	-4e-05	-6e-05	-6e-05	-8e-05	-2e-05	0	-4e-05	1
2345	-0.00012	-4e-05	-6e-05	-6e-05	-8e-05	-2e-05	0	-4e-05	1
2346	-0.00012	-4e-05	-6e-05	-6e-05	-8e-05	-2e-05	0	-4e-05	1
2347	-0.00012	-4e-05	-6e-05	-6e-05	-8e-05	-2e-05	0	-4e-05	1
2348	-5e-05	-3e-05	-3e-05	-0.00016	-0.00019	-2e-05	-2e-05	-1e-05	1
2349	-5e-05	-3e-05	-3e-05	-0.00016	-0.00019	-2e-05	-2e-05	-1e-05	1
2350	-5e-05	-3e-05	-3e-05	-0.00016	-0.00019	-2e-05	-2e-05	-1e-05	1
2351	-5e-05	-3e-05	-3e-05	-0.00016	-0.00019	-2e-05	-2e-05	-1e-05	1
2352	-5e-05	-3e-05	-3e-05	-0.00016	-0.00019	-2e-05	-2e-05	-1e-05	1
2353	-5e-05	-3e-05	-3e-05	-0.00016	-0.00019	-2e-05	-2e-05	-1e-05	1
2354	-5e-05	-3e-05	-3e-05	-0.00016	-0.00019	-2e-05	-2e-05	-1e-05	1
2355	-5e-05	-3e-05	-3e-05	-0.00016	-0.00019	-2e-05	-2e-05	-1e-05	1
2356	0	1e-05	1e-05	6e-05	5e-05	2e-05	1e-05	1e-05	1
2357	0	1e-05	1e-05	6e-05	5e-05	2e-05	1e-05	1e-05	1
2358	0	1e-05	1e-05	6e-05	5e-05	2e-05	1e-05	1e-05	1
2359	0	1e-05	1e-05	6e-05	5e-05	2e-05	1e-05	1e-05	1
2360	0	1e-05	1e-05	6e-05	5e-05	2e-05	1e-05	1e-05	1
2361	0	1e-05	1e-05	6e-05	5e-05	2e-05	1e-05	1e-05	1
2362	0	1e-05	1e-05	6e-05	5e-05	2e-05	1e-05	1e-05	1
2363	0	1e-05	1e-05	6e-05	5e-05	2e-05	1e-05	1e-05	1
2364	0	1e-05	1e-05	6e-05	5e-05	2e-05	1e-05	1e-05	1
2365	0	1e-05	1e-05	6e-05	5e-05	2e-05	1e-05	1e-05	1
2366	0	1e-05	1e-05	6e-05	5e-05	2e-05	1e-05	1e-05	1
2367	0	1e-05	1e-05	6e-05	5e-05	2e-05	1e-05	1e-05	1
2368	0	1e-05	1e-05	6e-05	5e-05	2e-05	1e-05	1e-05	1
2369	0	1e-05	1e-05	6e-05	5e-05	2e-05	1e-05	1e-05	1
2370	0	1e-05	1e-05	6e-05	5e-05	2e-05	1e-05	1e-05	1
2371	5e-05	3e-05	-4e-05	-0.0001	-6e-05	-1e-05	0	0	1
2372	5e-05	3e-05	-4e-05	-0.0001	-6e-05	-1e-05	0	0	1
2373	-2e-05	-4e-05	-1e-05	3e-05	-1e-05	-3e-05	-2e-05	-3e-05	1
2374	-2e-05	-4e-05	-1e-05	3e-05	-1e-05	-3e-05	-2e-05	-3e-05	1
2375	-2e-05	-4e-05	-1e-05	3e-05	-1e-05	-3e-05	-2e-05	-3e-05	1
2376	-2e-05	-4e-05	-1e-05	3e-05	-1e-05	-3e-05	-2e-05	-3e-05	1
2377	-2e-05	-4e-05	-1e-05	3e-05	-1e-05	-3e-05	-2e-05	-3e-05	1
2378	-2e-05	-4e-05	-1e-05	3e-05	-1e-05	-3e-05	-2e-05	-3e-05	1
2379	-2e-05	-4e-05	-1e-05	3e-05	-1e-05	-3e-05	-2e-05	-3e-05	1
2380	-2e-05	-4e-05	-1e-05	3e-05	-1e-05	-3e-05	-2e-05	-3e-05	1
2381	-2e-05	-4e-05	-1e-05	3e-05	-1e-05	-3e-05	-2e-05	-3e-05	1
2382	-2e-05	-4e-05	-1e-05	3e-05	-1e-05	-3e-05	-2e-05	-3e-05	1
2383	-2e-05	-4e-05	-1e-05	3e-05	-1e-05	-3e-05	-2e-05	-3e-05	1
2384	-2e-05	-4e-05	-1e-05	3e-05	-1e-05	-3e-05	-2e-05	-3e-05	1
2385	-2e-05	-4e-05	-1e-05	3e-05	-1e-05	-3e-05	-2e-05	-3e-05	1
2386	-2e-05	-4e-05	-1e-05	3e-05	-1e-05	-3e-05	-2e-05	-3e-05	1
2388	-2e-05	-4e-05	-1e-05	3e-05	-1e-05	-3e-05	-2e-05	-3e-05	1
2389	-2e-05	-4e-05	-1e-05	3e-05	-1e-05	-3e-05	-2e-05	-3e-05	1
2390	-2e-05	-4e-05	-1e-05	3e-05	-1e-05	-3e-05	-2e-05	-3e-05	1
2391	-2e-05	-4e-05	-1e-05	3e-05	-1e-05	-3e-05	-2e-05	-3e-05	1
2392	-2e-05	-4e-05	-1e-05	3e-05	-1e-05	-3e-05	-2e-05	-3e-05	1
2393	-2e-05	-4e-05	-1e-05	3e-05	-1e-05	-3e-05	-2e-05	-3e-05	1
2394	-7e-05	0	5e-05	0.00023	-4e-05	-3e-05	-1e-05	-1e-05	1
2395	-7e-05	0	2e-05	-5e-05	-0.00014	-2e-05	1e-05	-1e-05	1
2396	-7e-05	0	2e-05	-5e-05	-0.00014	-2e-05	1e-05	-1e-05	1
2397	-7e-05	0	2e-05	-5e-05	-0.00014	-2e-05	1e-05	-1e-05	1
2398	-7e-05	0	2e-05	-5e-05	-0.00014	-2e-05	1e-05	-1e-05	1
2399	-7e-05	0	2e-05	-5e-05	-0.00014	-2e-05	1e-05	-1e-05	1
2400	-7e-05	0	2e-05	-5e-05	-0.00014	-2e-05	1e-05	-1e-05	1
2401	-7e-05	0	2e-05	-5e-05	-0.00014	-2e-05	1e-05	-1e-05	1
2402	-7e-05	0	2e-05	-5e-05	-0.00014	-2e-05	1e-05	-1e-05	1
2403	-7e-05	0	2e-05	-5e-05	-0.00014	-2e-05	1e-05	-1e-05	1
2404	-7e-05	0	2e-05	-5e-05	-0.00014	-2e-05	1e-05	-1e-05	1
2405	-7e-05	0	2e-05	-5e-05	-0.00014	-2e-05	1e-05	-1e-05	1
2406	-7e-05	0	2e-05	-5e-05	-0.00014	-2e-05	1e-05	-1e-05	1
2407	6e-05	0	-5e-05	4e-05	0.0002	0	1e-05	-2e-05	1
2408	-3e-05	-4e-05	5e-05	0.0001	-6e-05	-1e-05	-2e-05	-2e-05	1
2409	-3e-05	-4e-05	5e-05	0.0001	-6e-05	-1e-05	-2e-05	-2e-05	1
2410	-3e-05	-4e-05	5e-05	0.0001	-6e-05	-1e-05	-2e-05	-2e-05	1
2411	-3e-05	-4e-05	5e-05	0.0001	-6e-05	-1e-05	-2e-05	-2e-05	1
2412	-3e-05	-4e-05	5e-05	0.0001	-6e-05	-1e-05	-2e-05	-2e-05	1
2413	-3e-05	-4e-05	5e-05	0.0001	-6e-05	-1e-05	-2e-05	-2e-05	1
2414	-3e-05	-4e-05	5e-05	0.0001	-6e-05	-1e-05	-2e-05	-2e-05	1
2415	-3e-05	-4e-05	5e-05	0.0001	-6e-05	-1e-05	-2e-05	-2e-05	1
2416	-0.0002	-4e-05	0	2e-05	0	-1e-05	-2e-05	-3e-05	1
2417	4e-05	-2e-05	-1e-05	-5e-05	-0.00025	-4e-05	-2e-05	-2e-05	1
2418	4e-05	-2e-05	-1e-05	-5e-05	-0.00025	-4e-05	-2e-05	-2e-05	1
2419	4e-05	-2e-05	-1e-05	-5e-05	-0.00025	-4e-05	-2e-05	-2e-05	1
2420	4e-05	-2e-05	-1e-05	-5e-05	-0.00025	-4e-05	-2e-05	-2e-05	1
2421	4e-05	-2e-05	-1e-05	-5e-05	-0.00025	-4e-05	-2e-05	-2e-05	1
2422	4e-05	-2e-05	-1e-05	-5e-05	-0.00025	-4e-05	-2e-05	-2e-05	1
2423	4e-05	-2e-05	-1e-05	-5e-05	-0.00025	-4e-05	-2e-05	-2e-05	1
2424	4e-05	-2e-05	-1e-05	-5e-05	-0.00025	-4e-05	-2e-05	-2e-05	1
2425	4e-05	-2e-05	-1e-05	-5e-05	-0.00025	-4e-05	-2e-05	-2e-05	1
2426	4e-05	-2e-05	-1e-05	-5e-05	-0.00025	-4e-05	-2e-05	-2e-05	1
2427	4e-05	-2e-05	-1e-05	-5e-05	-0.00025	-4e-05	-2e-05	-2e-05	1
2428	4e-05	-2e-05	-1e-05	-5e-05	-0.00025	-4e-05	-2e-05	-2e-05	1
2429	4e-05	-2e-05	-1e-05	-5e-05	-0.00025	-4e-05	-2e-05	-2e-05	1
2430	4e-05	-2e-05	-1e-05	-5e-05	-0.00025	-4e-05	-2e-05	-2e-05	1
2431	-2e-05	-3e-05	-7e-05	0.00013	0.00026	0	-2e-05	-1e-05	1
2432	-2e-05	-3e-05	-7e-05	0.00013	0.00026	0	-2e-05	-1e-05	1
2433	2e-05	2e-05	-5e-05	-0.00012	-7e-05	-2e-05	1e-05	-1e-05	1
2434	2e-05	2e-05	-5e-05	-0.00012	-7e-05	-2e-05	1e-05	-1e-05	1
2435	2e-05	2e-05	-5e-05	-0.00012	-7e-05	-2e-05	1e-05	-1e-05	1
2436	2e-05	2e-05	-5e-05	-0.00012	-7e-05	-2e-05	1e-05	-1e-05	1
2438	2e-05	2e-05	-5e-05	-0.00012	-7e-05	-2e-05	1e-05	-1e-05	1
2440	2e-05	2e-05	-5e-05	-0.00012	-7e-05	-2e-05	1e-05	-1e-05	1
2441	2e-05	2e-05	-5e-05	-0.00012	-7e-05	-2e-05	1e-05	-1e-05	1
2442	2e-05	2e-05	-5e-05	-0.00012	-7e-05	-2e-05	1e-05	-1e-05	1
2443	2e-05	2e-05	-5e-05	-0.00012	-7e-05	-2e-05	1e-05	-1e-05	1
2444	2e-05	2e-05	-5e-05	-0.00012	-7e-05	-2e-05	1e-05	-1e-05	1
2445	2e-05	2e-05	-5e-05	-0.00012	-7e-05	-2e-05	1e-05	-1e-05	1
2446	2e-05	2e-05	-5e-05	-0.00012	-7e-05	-2e-05	1e-05	-1e-05	1
2447	2e-05	2e-05	-5e-05	-0.00012	-7e-05	-2e-05	1e-05	-1e-05	1
2448	2e-05	2e-05	-5e-05	-0.00012	-7e-05	-2e-05	1e-05	-1e-05	1
2449	2e-05	2e-05	-5e-05	-0.00012	-7e-05	-2e-05	1e-05	-1e-05	1
2450	2e-05	2e-05	-5e-05	-0.00012	-7e-05	-2e-05	1e-05	-1e-05	1
2451	2e-05	2e-05	-5e-05	-0.00012	-7e-05	-2e-05	1e-05	-1e-05	1
2452	2e-05	2e-05	-5e-05	-0.00012	-7e-05	-2e-05	1e-05	-1e-05	1
2453	2e-05	2e-05	-5e-05	-0.00012	-7e-05	-2e-05	1e-05	-1e-05	1
2454	2e-05	2e-05	-5e-05	-0.00012	-7e-05	-2e-05	1e-05	-1e-05	1
2455	2e-05	2e-05	-5e-05	-0.00012	-7e-05	-2e-05	1e-05	-1e-05	1
2456	2e-05	2e-05	-5e-05	-0.00012	-7e-05	-2e-05	1e-05	-1e-05	1
2457	2e-05	2e-05	-5e-05	-0.00012	-7e-05	-2e-05	1e-05	-1e-05	1
2458	2e-05	2e-05	-5e-05	-0.00012	-7e-05	-2e-05	1e-05	-1e-05	1
2459	2e-05	2e-05	-5e-05	-0.00012	-7e-05	-2e-05	1e-05	-1e-05	1
2460	2e-05	2e-05	-5e-05	-0.00012	-7e-05	-2e-05	1e-05	-1e-05	1
2461	2e-05	4e-05	0	-3e-05	0.0001	3e-05	0	2e-05	1
2462	2e-05	4e-05	0	-3e-05	0.0001	3e-05	0	2e-05	1
2463	-0.00013	-6e-05	-4e-05	-6e-05	8e-05	0	-2e-05	-2e-05	1
2464	-0.00013	-6e-05	-4e-05	-6e-05	8e-05	0	-2e-05	-2e-05	1
2465	-0.00013	-6e-05	-4e-05	-6e-05	8e-05	0	-2e-05	-2e-05	1
2466	-0.00013	-6e-05	-4e-05	-6e-05	8e-05	0	-2e-05	-2e-05	1
2467	-0.00013	-6e-05	-4e-05	-6e-05	8e-05	0	-2e-05	-2e-05	1
2468	-0.00013	-6e-05	-4e-05	-6e-05	8e-05	0	-2e-05	-2e-05	1
2469	-0.00013	-6e-05	-4e-05	-6e-05	8e-05	0	-2e-05	-2e-05	1
2470	-0.00013	-6e-05	-4e-05	-6e-05	8e-05	0	-2e-05	-2e-05	1
2471	-0.00013	-6e-05	-4e-05	-6e-05	8e-05	0	-2e-05	-2e-05	1
2472	-0.00013	-6e-05	-4e-05	-6e-05	8e-05	0	-2e-05	-2e-05	1
2473	-0.00013	-6e-05	-4e-05	-6e-05	8e-05	0	-2e-05	-2e-05	1
2474	-0.00013	-6e-05	-4e-05	-6e-05	8e-05	0	-2e-05	-2e-05	1
2475	-0.00013	-6e-05	-4e-05	-6e-05	8e-05	0	-2e-05	-2e-05	1
2476	0	-2e-05	-5e-05	-0.00014	-5e-05	0	1e-05	0	1
2477	0	-2e-05	-5e-05	-0.00014	-5e-05	0	1e-05	0	1
2478	9e-05	3e-05	3e-05	8e-05	0.00012	-1e-05	-1e-05	1e-05	1
2479	9e-05	3e-05	3e-05	8e-05	0.00012	-1e-05	-1e-05	1e-05	1
2480	9e-05	3e-05	3e-05	8e-05	0.00012	-1e-05	-1e-05	1e-05	1
2481	9e-05	3e-05	3e-05	8e-05	0.00012	-1e-05	-1e-05	1e-05	1
2482	9e-05	3e-05	3e-05	8e-05	0.00012	-1e-05	-1e-05	1e-05	1
2483	9e-05	3e-05	3e-05	8e-05	0.00012	-1e-05	-1e-05	1e-05	1
2484	9e-05	3e-05	3e-05	8e-05	0.00012	-1e-05	-1e-05	1e-05	1
2485	9e-05	3e-05	3e-05	8e-05	0.00012	-1e-05	-1e-05	1e-05	1
2486	9e-05	3e-05	3e-05	8e-05	0.00012	-1e-05	-1e-05	1e-05	1
2489	9e-05	3e-05	3e-05	8e-05	0.00012	-1e-05	-1e-05	1e-05	1
2490	9e-05	3e-05	3e-05	8e-05	0.00012	-1e-05	-1e-05	1e-05	1
2491	-0.00013	-7e-05	0	0.00015	0	-3e-05	-3e-05	-5e-05	1
2492	-0.00013	-7e-05	0	0.00015	0	-3e-05	-3e-05	-5e-05	1
2493	0.00016	2e-05	2e-05	3e-05	5e-05	0	0	1e-05	1
2494	0.00016	2e-05	2e-05	3e-05	5e-05	0	0	1e-05	1
2495	0.00016	2e-05	2e-05	3e-05	5e-05	0	0	1e-05	1
2496	0.00016	2e-05	2e-05	3e-05	5e-05	0	0	1e-05	1
2497	0.00016	2e-05	2e-05	3e-05	5e-05	0	0	1e-05	1
2498	0.00016	2e-05	2e-05	3e-05	5e-05	0	0	1e-05	1
2499	0.00016	2e-05	2e-05	3e-05	5e-05	0	0	1e-05	1
2500	0.00016	2e-05	2e-05	3e-05	5e-05	0	0	1e-05	1
2501	0.00016	2e-05	2e-05	3e-05	5e-05	0	0	1e-05	1
2502	0.00016	2e-05	2e-05	3e-05	5e-05	0	0	1e-05	1
2503	0.00016	2e-05	2e-05	3e-05	5e-05	0	0	1e-05	1
2504	0.00016	2e-05	2e-05	3e-05	5e-05	0	0	1e-05	1
2505	0.00016	2e-05	2e-05	3e-05	5e-05	0	0	1e-05	1
2506	0.00016	2e-05	2e-05	3e-05	5e-05	0	0	1e-05	1
2507	0.00016	2e-05	2e-05	3e-05	5e-05	0	0	1e-05	1
2508	0.00016	2e-05	2e-05	3e-05	5e-05	0	0	1e-05	1
2509	0.00016	2e-05	2e-05	3e-05	5e-05	0	0	1e-05	1
2510	0.00016	2e-05	2e-05	3e-05	5e-05	0	0	1e-05	1
2511	0.00016	2e-05	2e-05	3e-05	5e-05	0	0	1e-05	1
2512	0.00016	2e-05	2e-05	3e-05	5e-05	0	0	1e-05	1
2513	0.00016	2e-05	2e-05	3e-05	5e-05	0	0	1e-05	1
2514	5e-05	5e-05	3e-05	-0.00013	-0.00014	0	0	0	1
2515	1e-05	-4e-05	-2e-05	9e-05	3e-05	-5e-05	-3e-05	-2e-05	1
2516	-7e-05	0	3e-05	0.00016	0.00012	4e-05	-1e-05	0	1
2517	-7e-05	0	3e-05	0.00016	0.00012	4e-05	-1e-05	0	1
2518	-7e-05	0	3e-05	0.00016	0.00012	4e-05	-1e-05	0	1
2519	-7e-05	0	3e-05	0.00016	0.00012	4e-05	-1e-05	0	1
2520	-7e-05	0	3e-05	0.00016	0.00012	4e-05	-1e-05	0	1
2521	-7e-05	0	3e-05	0.00016	0.00012	4e-05	-1e-05	0	1
2522	-7e-05	0	3e-05	0.00016	0.00012	4e-05	-1e-05	0	1
2523	-7e-05	0	3e-05	0.00016	0.00012	4e-05	-1e-05	0	1
2524	-7e-05	0	3e-05	0.00016	0.00012	4e-05	-1e-05	0	1
2525	-7e-05	0	3e-05	0.00016	0.00012	4e-05	-1e-05	0	1
2526	-7e-05	0	3e-05	0.00016	0.00012	4e-05	-1e-05	0	1
2527	0	-3e-05	-5e-05	-0.00012	-8e-05	-4e-05	-1e-05	-3e-05	1
2528	3e-05	-2e-05	-8e-05	-0.00016	-7e-05	0	-1e-05	-1e-05	1
2529	3e-05	-2e-05	-8e-05	-0.00016	-7e-05	0	-1e-05	-1e-05	1
2530	3e-05	-2e-05	-8e-05	-0.00016	-7e-05	0	-1e-05	-1e-05	1
2531	3e-05	-2e-05	-8e-05	-0.00016	-7e-05	0	-1e-05	-1e-05	1
2532	3e-05	-2e-05	-8e-05	-0.00016	-7e-05	0	-1e-05	-1e-05	1
2533	3e-05	-2e-05	-8e-05	-0.00016	-7e-05	0	-1e-05	-1e-05	1
2534	3e-05	-2e-05	-8e-05	-0.00016	-7e-05	0	-1e-05	-1e-05	1
2535	3e-05	-2e-05	-8e-05	-0.00016	-7e-05	0	-1e-05	-1e-05	1
2536	-3e-05	2e-05	0.00015	0.00026	9e-05	1e-05	-1e-05	-2e-05	1
2539	2e-05	-1e-05	-9e-05	-0.00017	-4e-05	-2e-05	-2e-05	1e-05	1
2540	2e-05	-1e-05	-9e-05	-0.00017	-4e-05	-2e-05	-2e-05	1e-05	1
2541	2e-05	-1e-05	-9e-05	-0.00017	-4e-05	-2e-05	-2e-05	1e-05	1
2542	2e-05	-1e-05	-9e-05	-0.00017	-4e-05	-2e-05	-2e-05	1e-05	1
2543	2e-05	-1e-05	-9e-05	-0.00017	-4e-05	-2e-05	-2e-05	1e-05	1
2544	2e-05	-1e-05	-9e-05	-0.00017	-4e-05	-2e-05	-2e-05	1e-05	1
2545	2e-05	-1e-05	-9e-05	-0.00017	-4e-05	-2e-05	-2e-05	1e-05	1
2546	2e-05	-1e-05	-9e-05	-0.00017	-4e-05	-2e-05	-2e-05	1e-05	1
2547	2e-05	-1e-05	-9e-05	-0.00017	-4e-05	-2e-05	-2e-05	1e-05	1
2548	2e-05	-1e-05	-9e-05	-0.00017	-4e-05	-2e-05	-2e-05	1e-05	1
2549	2e-05	-1e-05	-9e-05	-0.00017	-4e-05	-2e-05	-2e-05	1e-05	1
2550	2e-05	-1e-05	-9e-05	-0.00017	-4e-05	-2e-05	-2e-05	1e-05	1
2551	-1e-05	-2e-05	-3e-05	-9e-05	-1e-05	-4e-05	-1e-05	0	1
2552	-1e-05	-2e-05	-3e-05	-9e-05	-1e-05	-4e-05	-1e-05	0	1
2553	2e-05	0	5e-05	9e-05	6e-05	-2e-05	-2e-05	-1e-05	1
2554	2e-05	0	5e-05	9e-05	6e-05	-2e-05	-2e-05	-1e-05	1
2555	2e-05	0	5e-05	9e-05	6e-05	-2e-05	-2e-05	-1e-05	1
2556	2e-05	0	5e-05	9e-05	6e-05	-2e-05	-2e-05	-1e-05	1
2557	2e-05	0	5e-05	9e-05	6e-05	-2e-05	-2e-05	-1e-05	1
2558	2e-05	0	5e-05	9e-05	6e-05	-2e-05	-2e-05	-1e-05	1
2559	2e-05	0	5e-05	9e-05	6e-05	-2e-05	-2e-05	-1e-05	1
2560	2e-05	0	5e-05	9e-05	6e-05	-2e-05	-2e-05	-1e-05	1
2561	2e-05	0	5e-05	9e-05	6e-05	-2e-05	-2e-05	-1e-05	1
2562	2e-05	0	5e-05	9e-05	6e-05	-2e-05	-2e-05	-1e-05	1
2563	2e-05	0	5e-05	9e-05	6e-05	-2e-05	-2e-05	-1e-05	1
2564	2e-05	0	5e-05	9e-05	6e-05	-2e-05	-2e-05	-1e-05	1
2565	2e-05	0	5e-05	9e-05	6e-05	-2e-05	-2e-05	-1e-05	1
2566	2e-05	0	5e-05	9e-05	6e-05	-2e-05	-2e-05	-1e-05	1
2567	2e-05	0	5e-05	9e-05	6e-05	-2e-05	-2e-05	-1e-05	1
2568	2e-05	0	5e-05	9e-05	6e-05	-2e-05	-2e-05	-1e-05	1
2569	2e-05	0	5e-05	9e-05	6e-05	-2e-05	-2e-05	-1e-05	1
2570	2e-05	0	5e-05	9e-05	6e-05	-2e-05	-2e-05	-1e-05	1
2571	2e-05	0	5e-05	9e-05	6e-05	-2e-05	-2e-05	-1e-05	1
2572	2e-05	0	5e-05	9e-05	6e-05	-2e-05	-2e-05	-1e-05	1
2573	2e-05	0	5e-05	9e-05	6e-05	-2e-05	-2e-05	-1e-05	1
2574	3e-05	1e-05	1e-05	3e-05	0.00014	-1e-05	-1e-05	-1e-05	1
2575	0	-2e-05	0	2e-05	-3e-05	-1e-05	-1e-05	-2e-05	1
2576	0	-2e-05	0	2e-05	-3e-05	-1e-05	-1e-05	-2e-05	1
2577	0	-2e-05	0	2e-05	-3e-05	-1e-05	-1e-05	-2e-05	1
2578	0	-2e-05	0	2e-05	-3e-05	-1e-05	-1e-05	-2e-05	1
2579	0	-2e-05	0	2e-05	-3e-05	-1e-05	-1e-05	-2e-05	1
2580	0	-2e-05	0	2e-05	-3e-05	-1e-05	-1e-05	-2e-05	1
2581	0	-2e-05	0	2e-05	-3e-05	-1e-05	-1e-05	-2e-05	1
2582	0	-2e-05	0	2e-05	-3e-05	-1e-05	-1e-05	-2e-05	1
2583	0	-2e-05	0	2e-05	-3e-05	-1e-05	-1e-05	-2e-05	1
2584	0	-2e-05	0	2e-05	-3e-05	-1e-05	-1e-05	-2e-05	1
2585	0	-2e-05	0	2e-05	-3e-05	-1e-05	-1e-05	-2e-05	1
2586	0	-2e-05	0	2e-05	-3e-05	-1e-05	-1e-05	-2e-05	1
2589	1e-05	-1e-05	0	-3e-05	-6e-05	-1e-05	0	0	1
2590	1e-05	-1e-05	0	-3e-05	-6e-05	-1e-05	0	0	1
2591	1e-05	-1e-05	0	-3e-05	-6e-05	-1e-05	0	0	1
2592	1e-05	-1e-05	0	-3e-05	-6e-05	-1e-05	0	0	1
2593	1e-05	-1e-05	0	-3e-05	-6e-05	-1e-05	0	0	1
2594	1e-05	-1e-05	0	-3e-05	-6e-05	-1e-05	0	0	1
2595	1e-05	-1e-05	0	-3e-05	-6e-05	-1e-05	0	0	1
2596	-4e-05	1e-05	2e-05	-9e-05	2e-05	1e-05	0	-2e-05	1
2597	-4e-05	1e-05	2e-05	-9e-05	2e-05	1e-05	0	-2e-05	1
2598	-4e-05	1e-05	2e-05	-9e-05	2e-05	1e-05	0	-2e-05	1
2599	-4e-05	1e-05	2e-05	-9e-05	2e-05	1e-05	0	-2e-05	1
2600	-4e-05	1e-05	2e-05	-9e-05	2e-05	1e-05	0	-2e-05	1
2601	-4e-05	1e-05	2e-05	-9e-05	2e-05	1e-05	0	-2e-05	1
2602	-4e-05	1e-05	2e-05	-9e-05	2e-05	1e-05	0	-2e-05	1
2603	-4e-05	1e-05	2e-05	-9e-05	2e-05	1e-05	0	-2e-05	1
2604	-4e-05	1e-05	2e-05	-9e-05	2e-05	1e-05	0	-2e-05	1
2605	-4e-05	1e-05	2e-05	-9e-05	2e-05	1e-05	0	-2e-05	1
2606	-4e-05	1e-05	2e-05	-9e-05	2e-05	1e-05	0	-2e-05	1
2607	-4e-05	1e-05	2e-05	-9e-05	2e-05	1e-05	0	-2e-05	1
2608	-4e-05	1e-05	2e-05	-9e-05	2e-05	1e-05	0	-2e-05	1
2609	-4e-05	1e-05	2e-05	-9e-05	2e-05	1e-05	0	-2e-05	1
2610	-2e-05	-1e-05	0	4e-05	2e-05	-1e-05	0	-1e-05	1
2611	-2e-05	-1e-05	0	4e-05	2e-05	-1e-05	0	-1e-05	1
2612	-2e-05	-1e-05	0	4e-05	2e-05	-1e-05	0	-1e-05	1
2613	-2e-05	-1e-05	0	4e-05	2e-05	-1e-05	0	-1e-05	1
2614	-2e-05	-1e-05	0	4e-05	2e-05	-1e-05	0	-1e-05	1
2615	-2e-05	-1e-05	0	4e-05	2e-05	-1e-05	0	-1e-05	1
2616	-2e-05	-1e-05	0	4e-05	2e-05	-1e-05	0	-1e-05	1
2617	-2e-05	-1e-05	0	4e-05	2e-05	-1e-05	0	-1e-05	1
2618	-2e-05	-1e-05	0	4e-05	2e-05	-1e-05	0	-1e-05	1
2619	1e-05	1e-05	-2e-05	0	0.00012	-2e-05	-1e-05	1e-05	1
2620	1e-05	1e-05	-2e-05	0	0.00012	-2e-05	-1e-05	1e-05	1
2621	1e-05	1e-05	-2e-05	0	0.00012	-2e-05	-1e-05	1e-05	1
2622	1e-05	1e-05	-2e-05	0	0.00012	-2e-05	-1e-05	1e-05	1
2623	1e-05	1e-05	-2e-05	0	0.00012	-2e-05	-1e-05	1e-05	1
2624	1e-05	1e-05	-2e-05	0	0.00012	-2e-05	-1e-05	1e-05	1
2625	1e-05	1e-05	-2e-05	0	0.00012	-2e-05	-1e-05	1e-05	1
2626	1e-05	1e-05	-2e-05	0	0.00012	-2e-05	-1e-05	1e-05	1
2627	1e-05	1e-05	-2e-05	0	0.00012	-2e-05	-1e-05	1e-05	1
2628	1e-05	1e-05	-2e-05	0	0.00012	-2e-05	-1e-05	1e-05	1
2629	1e-05	1e-05	-2e-05	0	0.00012	-2e-05	-1e-05	1e-05	1
2630	1e-05	1e-05	-2e-05	0	0.00012	-2e-05	-1e-05	1e-05	1
2631	1e-05	1e-05	-2e-05	0	0.00012	-2e-05	-1e-05	1e-05	1
2632	1e-05	1e-05	-2e-05	0	0.00012	-2e-05	-1e-05	1e-05	1
2633	1e-05	1e-05	-2e-05	0	0.00012	-2e-05	-1e-05	1e-05	1
2634	-5e-05	-1e-05	1e-05	2e-05	-5e-05	0	-2e-05	-1e-05	1
2635	-4e-05	0	0	-5e-05	-2e-05	-2e-05	0	0	1
2636	-4e-05	0	0	-5e-05	-2e-05	-2e-05	0	0	1
33878	3e-05	0	0	-1e-05	0.00042	-2e-05	-2e-05	-3e-05	1
33879	-0.00013	-2e-05	-2e-05	-2e-05	-0.00014	-5e-05	-3e-05	-3e-05	1
33880	-0.00013	-2e-05	-2e-05	-2e-05	-0.00014	-5e-05	-3e-05	-3e-05	1
33881	-0.00013	-2e-05	-2e-05	-2e-05	-0.00014	-5e-05	-3e-05	-3e-05	1
33882	-0.00013	-2e-05	-2e-05	-2e-05	-0.00014	-5e-05	-3e-05	-3e-05	1
33883	-0.00013	-2e-05	-2e-05	-2e-05	-0.00014	-5e-05	-3e-05	-3e-05	1
33884	-0.00013	-2e-05	-2e-05	-2e-05	-0.00014	-5e-05	-3e-05	-3e-05	1
33885	-0.00013	-2e-05	-2e-05	-2e-05	-0.00014	-5e-05	-3e-05	-3e-05	1
33886	-0.00013	-2e-05	-2e-05	-2e-05	-0.00014	-5e-05	-3e-05	-3e-05	1
33888	-0.00013	-2e-05	-2e-05	-2e-05	-0.00014	-5e-05	-3e-05	-3e-05	1
33889	-0.00013	-2e-05	-2e-05	-2e-05	-0.00014	-5e-05	-3e-05	-3e-05	1
33890	-0.00013	-2e-05	-2e-05	-2e-05	-0.00014	-5e-05	-3e-05	-3e-05	1
33891	-0.00013	-2e-05	-2e-05	-2e-05	-0.00014	-5e-05	-3e-05	-3e-05	1
33892	-0.00013	-2e-05	-2e-05	-2e-05	-0.00014	-5e-05	-3e-05	-3e-05	1
33893	-0.00013	-2e-05	-2e-05	-2e-05	-0.00014	-5e-05	-3e-05	-3e-05	1
33894	-0.00011	-2e-05	1e-05	6e-05	3e-05	-3e-05	-3e-05	-2e-05	1
33895	-1e-05	-5e-05	-5e-05	-0.00015	1e-05	2e-05	1e-05	-1e-05	1
33896	-1e-05	-5e-05	-5e-05	-0.00015	1e-05	2e-05	1e-05	-1e-05	1
33897	-1e-05	-5e-05	-5e-05	-0.00015	1e-05	2e-05	1e-05	-1e-05	1
33898	-1e-05	-5e-05	-5e-05	-0.00015	1e-05	2e-05	1e-05	-1e-05	1
33899	-1e-05	-5e-05	-5e-05	-0.00015	1e-05	2e-05	1e-05	-1e-05	1
33900	-1e-05	-5e-05	-5e-05	-0.00015	1e-05	2e-05	1e-05	-1e-05	1
33901	-1e-05	-5e-05	-5e-05	-0.00015	1e-05	2e-05	1e-05	-1e-05	1
33902	-1e-05	-5e-05	-5e-05	-0.00015	1e-05	2e-05	1e-05	-1e-05	1
33903	-1e-05	-5e-05	-5e-05	-0.00015	1e-05	2e-05	1e-05	-1e-05	1
33904	-1e-05	-5e-05	-5e-05	-0.00015	1e-05	2e-05	1e-05	-1e-05	1
33905	-1e-05	-5e-05	-5e-05	-0.00015	1e-05	2e-05	1e-05	-1e-05	1
33906	-1e-05	-5e-05	-5e-05	-0.00015	1e-05	2e-05	1e-05	-1e-05	1
33907	-1e-05	-5e-05	-5e-05	-0.00015	1e-05	2e-05	1e-05	-1e-05	1
33908	-1e-05	-5e-05	-5e-05	-0.00015	1e-05	2e-05	1e-05	-1e-05	1
33909	-1e-05	-5e-05	-5e-05	-0.00015	1e-05	2e-05	1e-05	-1e-05	1
33910	-1e-05	-5e-05	-5e-05	-0.00015	1e-05	2e-05	1e-05	-1e-05	1
33911	-1e-05	-5e-05	-5e-05	-0.00015	1e-05	2e-05	1e-05	-1e-05	1
33912	-1e-05	-5e-05	-5e-05	-0.00015	1e-05	2e-05	1e-05	-1e-05	1
33913	-1e-05	-5e-05	-5e-05	-0.00015	1e-05	2e-05	1e-05	-1e-05	1
33914	-1e-05	-5e-05	-5e-05	-0.00015	1e-05	2e-05	1e-05	-1e-05	1
33915	-1e-05	-5e-05	-5e-05	-0.00015	1e-05	2e-05	1e-05	-1e-05	1
33916	-1e-05	-5e-05	-5e-05	-0.00015	1e-05	2e-05	1e-05	-1e-05	1
33917	1e-05	-3e-05	-5e-05	-8e-05	-1e-05	-1e-05	-2e-05	-2e-05	1
33918	0	2e-05	1e-05	0.00011	-6e-05	-1e-05	0	0	1
33919	0	2e-05	1e-05	0.00011	-6e-05	-1e-05	0	0	1
33920	0	2e-05	1e-05	0.00011	-6e-05	-1e-05	0	0	1
33921	0	2e-05	1e-05	0.00011	-6e-05	-1e-05	0	0	1
33922	0	2e-05	1e-05	0.00011	-6e-05	-1e-05	0	0	1
33923	0	2e-05	1e-05	0.00011	-6e-05	-1e-05	0	0	1
33924	0	2e-05	1e-05	0.00011	-6e-05	-1e-05	0	0	1
33925	0	2e-05	1e-05	0.00011	-6e-05	-1e-05	0	0	1
33926	0	2e-05	1e-05	0.00011	-6e-05	-1e-05	0	0	1
33927	0	2e-05	1e-05	0.00011	-6e-05	-1e-05	0	0	1
33928	0	2e-05	1e-05	0.00011	-6e-05	-1e-05	0	0	1
33929	0	2e-05	1e-05	0.00011	-6e-05	-1e-05	0	0	1
33930	0	2e-05	1e-05	0.00011	-6e-05	-1e-05	0	0	1
33931	0	2e-05	1e-05	0.00011	-6e-05	-1e-05	0	0	1
33932	0	2e-05	1e-05	0.00011	-6e-05	-1e-05	0	0	1
33933	0	2e-05	1e-05	0.00011	-6e-05	-1e-05	0	0	1
33934	0	2e-05	1e-05	0.00011	-6e-05	-1e-05	0	0	1
33935	0	2e-05	1e-05	0.00011	-6e-05	-1e-05	0	0	1
33936	0	2e-05	1e-05	0.00011	-6e-05	-1e-05	0	0	1
33938	0	2e-05	1e-05	0.00011	-6e-05	-1e-05	0	0	1
33939	-4e-05	0	5e-05	-0.0001	-0.00018	-2e-05	-2e-05	-1e-05	1
33940	4e-05	-1e-05	-2e-05	-7e-05	-3e-05	0	0	-1e-05	1
33941	4e-05	-1e-05	-2e-05	-7e-05	-3e-05	0	0	-1e-05	1
33942	4e-05	-1e-05	-2e-05	-7e-05	-3e-05	0	0	-1e-05	1
33943	4e-05	-1e-05	-2e-05	-7e-05	-3e-05	0	0	-1e-05	1
33944	4e-05	-1e-05	-2e-05	-7e-05	-3e-05	0	0	-1e-05	1
33945	4e-05	-1e-05	-2e-05	-7e-05	-3e-05	0	0	-1e-05	1
33946	4e-05	-1e-05	-2e-05	-7e-05	-3e-05	0	0	-1e-05	1
33947	4e-05	-1e-05	-2e-05	-7e-05	-3e-05	0	0	-1e-05	1
33948	4e-05	-1e-05	-2e-05	-7e-05	-3e-05	0	0	-1e-05	1
33949	4e-05	-1e-05	-2e-05	-7e-05	-3e-05	0	0	-1e-05	1
33950	4e-05	-1e-05	-2e-05	-7e-05	-3e-05	0	0	-1e-05	1
33951	4e-05	-1e-05	-2e-05	-7e-05	-3e-05	0	0	-1e-05	1
33952	4e-05	-1e-05	-2e-05	-7e-05	-3e-05	0	0	-1e-05	1
33953	4e-05	-1e-05	-2e-05	-7e-05	-3e-05	0	0	-1e-05	1
33954	6e-05	-1e-05	3e-05	0.00014	0.0002	-1e-05	0	0	1
33955	-3e-05	0	3e-05	5e-05	-6e-05	1e-05	0	-1e-05	1
33956	-3e-05	0	3e-05	5e-05	-6e-05	1e-05	0	-1e-05	1
33957	-3e-05	0	3e-05	5e-05	-6e-05	1e-05	0	-1e-05	1
33958	-3e-05	0	3e-05	5e-05	-6e-05	1e-05	0	-1e-05	1
33959	-3e-05	0	3e-05	5e-05	-6e-05	1e-05	0	-1e-05	1
33960	-3e-05	0	3e-05	5e-05	-6e-05	1e-05	0	-1e-05	1
33961	-3e-05	0	3e-05	5e-05	-6e-05	1e-05	0	-1e-05	1
33962	-3e-05	0	3e-05	5e-05	-6e-05	1e-05	0	-1e-05	1
33963	-3e-05	0	3e-05	5e-05	-6e-05	1e-05	0	-1e-05	1
33964	-3e-05	0	3e-05	5e-05	-6e-05	1e-05	0	-1e-05	1
33965	-3e-05	0	3e-05	5e-05	-6e-05	1e-05	0	-1e-05	1
33966	-3e-05	0	3e-05	5e-05	-6e-05	1e-05	0	-1e-05	1
33967	-3e-05	0	3e-05	5e-05	-6e-05	1e-05	0	-1e-05	1
33968	-3e-05	0	3e-05	5e-05	-6e-05	1e-05	0	-1e-05	1
33969	-3e-05	0	3e-05	5e-05	-6e-05	1e-05	0	-1e-05	1
33970	-3e-05	0	3e-05	5e-05	-6e-05	1e-05	0	-1e-05	1
33971	-3e-05	0	3e-05	5e-05	-6e-05	1e-05	0	-1e-05	1
33972	-3e-05	0	3e-05	5e-05	-6e-05	1e-05	0	-1e-05	1
33973	-3e-05	0	3e-05	5e-05	-6e-05	1e-05	0	-1e-05	1
33974	-3e-05	0	3e-05	5e-05	-6e-05	1e-05	0	-1e-05	1
33975	-3e-05	0	3e-05	5e-05	-6e-05	1e-05	0	-1e-05	1
33976	-3e-05	0	3e-05	5e-05	-6e-05	1e-05	0	-1e-05	1
33977	-8e-05	-2e-05	-2e-05	2e-05	-0.00028	-1e-05	-2e-05	-2e-05	1
33978	-8e-05	-2e-05	-2e-05	2e-05	-0.00028	-1e-05	-2e-05	-2e-05	1
33979	2e-05	0	-6e-05	-5e-05	0.00045	0	-1e-05	0	1
33980	2e-05	0	-6e-05	-5e-05	0.00045	0	-1e-05	0	1
33981	2e-05	0	-6e-05	-5e-05	0.00045	0	-1e-05	0	1
33982	2e-05	0	-6e-05	-5e-05	0.00045	0	-1e-05	0	1
33983	2e-05	0	-6e-05	-5e-05	0.00045	0	-1e-05	0	1
33984	2e-05	0	-6e-05	-5e-05	0.00045	0	-1e-05	0	1
33985	2e-05	0	-6e-05	-5e-05	0.00045	0	-1e-05	0	1
33986	2e-05	0	-6e-05	-5e-05	0.00045	0	-1e-05	0	1
33988	2e-05	0	-6e-05	-5e-05	0.00045	0	-1e-05	0	1
33989	2e-05	0	-6e-05	-5e-05	0.00045	0	-1e-05	0	1
33990	2e-05	0	-6e-05	-5e-05	0.00045	0	-1e-05	0	1
33991	2e-05	0	-6e-05	-5e-05	0.00045	0	-1e-05	0	1
33992	2e-05	0	-6e-05	-5e-05	0.00045	0	-1e-05	0	1
33993	2e-05	0	-6e-05	-5e-05	0.00045	0	-1e-05	0	1
33994	2e-05	0	-6e-05	-5e-05	0.00045	0	-1e-05	0	1
33995	2e-05	0	-6e-05	-5e-05	0.00045	0	-1e-05	0	1
33996	2e-05	0	-6e-05	-5e-05	0.00045	0	-1e-05	0	1
33997	2e-05	0	-6e-05	-5e-05	0.00045	0	-1e-05	0	1
33998	2e-05	0	-6e-05	-5e-05	0.00045	0	-1e-05	0	1
33999	-3e-05	-2e-05	1e-05	0	-5e-05	-2e-05	-1e-05	-1e-05	1
34000	-3e-05	-2e-05	1e-05	0	-5e-05	-2e-05	-1e-05	-1e-05	1
34001	3e-05	2e-05	1e-05	1e-05	-8e-05	0	0	2e-05	1
34002	3e-05	2e-05	1e-05	1e-05	-8e-05	0	0	2e-05	1
34003	3e-05	2e-05	1e-05	1e-05	-8e-05	0	0	2e-05	1
34004	3e-05	2e-05	1e-05	1e-05	-8e-05	0	0	2e-05	1
34005	3e-05	2e-05	1e-05	1e-05	-8e-05	0	0	2e-05	1
34006	3e-05	2e-05	1e-05	1e-05	-8e-05	0	0	2e-05	1
34007	3e-05	2e-05	1e-05	1e-05	-8e-05	0	0	2e-05	1
34008	3e-05	2e-05	1e-05	1e-05	-8e-05	0	0	2e-05	1
34009	3e-05	2e-05	1e-05	1e-05	-8e-05	0	0	2e-05	1
34010	3e-05	2e-05	1e-05	1e-05	-8e-05	0	0	2e-05	1
34011	3e-05	2e-05	1e-05	1e-05	-8e-05	0	0	2e-05	1
34012	3e-05	2e-05	1e-05	1e-05	-8e-05	0	0	2e-05	1
34013	6e-05	-4e-05	-2e-05	0.0001	6e-05	0	-1e-05	-1e-05	1
34014	6e-05	-4e-05	-2e-05	0.0001	6e-05	0	-1e-05	-1e-05	1
34015	6e-05	-4e-05	-2e-05	0.0001	6e-05	0	-1e-05	-1e-05	1
34016	6e-05	-4e-05	-2e-05	0.0001	6e-05	0	-1e-05	-1e-05	1
34017	6e-05	-4e-05	-2e-05	0.0001	6e-05	0	-1e-05	-1e-05	1
34018	6e-05	-4e-05	-2e-05	0.0001	6e-05	0	-1e-05	-1e-05	1
34019	6e-05	-4e-05	-2e-05	0.0001	6e-05	0	-1e-05	-1e-05	1
34020	6e-05	-4e-05	-2e-05	0.0001	6e-05	0	-1e-05	-1e-05	1
34021	6e-05	-4e-05	-2e-05	0.0001	6e-05	0	-1e-05	-1e-05	1
34022	-2e-05	1e-05	4e-05	9e-05	-2e-05	1e-05	1e-05	1e-05	1
34023	-2e-05	1e-05	4e-05	9e-05	-2e-05	1e-05	1e-05	1e-05	1
34024	-2e-05	1e-05	4e-05	9e-05	-2e-05	1e-05	1e-05	1e-05	1
34025	-2e-05	1e-05	4e-05	9e-05	-2e-05	1e-05	1e-05	1e-05	1
34026	-2e-05	1e-05	4e-05	9e-05	-2e-05	1e-05	1e-05	1e-05	1
34027	-2e-05	1e-05	4e-05	9e-05	-2e-05	1e-05	1e-05	1e-05	1
34028	-2e-05	1e-05	4e-05	9e-05	-2e-05	1e-05	1e-05	1e-05	1
34029	-2e-05	1e-05	4e-05	9e-05	-2e-05	1e-05	1e-05	1e-05	1
34030	-2e-05	1e-05	4e-05	9e-05	-2e-05	1e-05	1e-05	1e-05	1
34031	-2e-05	1e-05	4e-05	9e-05	-2e-05	1e-05	1e-05	1e-05	1
34032	-2e-05	1e-05	4e-05	9e-05	-2e-05	1e-05	1e-05	1e-05	1
34033	-2e-05	1e-05	4e-05	9e-05	-2e-05	1e-05	1e-05	1e-05	1
34034	-2e-05	1e-05	4e-05	9e-05	-2e-05	1e-05	1e-05	1e-05	1
34035	-2e-05	1e-05	4e-05	9e-05	-2e-05	1e-05	1e-05	1e-05	1
34036	-2e-05	1e-05	4e-05	9e-05	-2e-05	1e-05	1e-05	1e-05	1
34039	-5e-05	-5e-05	-4e-05	-0.0002	-0.00013	-3e-05	0	-4e-05	1
34040	-5e-05	-5e-05	-4e-05	-0.0002	-0.00013	-3e-05	0	-4e-05	1
34041	-5e-05	-5e-05	-4e-05	-0.0002	-0.00013	-3e-05	0	-4e-05	1
34042	-5e-05	-5e-05	-4e-05	-0.0002	-0.00013	-3e-05	0	-4e-05	1
34043	-5e-05	-5e-05	-4e-05	-0.0002	-0.00013	-3e-05	0	-4e-05	1
34044	-5e-05	-5e-05	-4e-05	-0.0002	-0.00013	-3e-05	0	-4e-05	1
34045	-5e-05	-5e-05	-4e-05	-0.0002	-0.00013	-3e-05	0	-4e-05	1
34046	-5e-05	-5e-05	-4e-05	-0.0002	-0.00013	-3e-05	0	-4e-05	1
34047	-5e-05	-5e-05	-4e-05	-0.0002	-0.00013	-3e-05	0	-4e-05	1
34048	-5e-05	-5e-05	-4e-05	-0.0002	-0.00013	-3e-05	0	-4e-05	1
34049	-5e-05	-5e-05	-4e-05	-0.0002	-0.00013	-3e-05	0	-4e-05	1
34050	-5e-05	-5e-05	-4e-05	-0.0002	-0.00013	-3e-05	0	-4e-05	1
34051	-5e-05	-5e-05	-4e-05	-0.0002	-0.00013	-3e-05	0	-4e-05	1
34052	-5e-05	-5e-05	-4e-05	-0.0002	-0.00013	-3e-05	0	-4e-05	1
34053	-5e-05	-5e-05	-4e-05	-0.0002	-0.00013	-3e-05	0	-4e-05	1
34054	-5e-05	-5e-05	-4e-05	-0.0002	-0.00013	-3e-05	0	-4e-05	1
34055	-5e-05	-5e-05	-4e-05	-0.0002	-0.00013	-3e-05	0	-4e-05	1
34056	-5e-05	-5e-05	-4e-05	-0.0002	-0.00013	-3e-05	0	-4e-05	1
34057	-5e-05	-5e-05	-4e-05	-0.0002	-0.00013	-3e-05	0	-4e-05	1
34058	-5e-05	-5e-05	-4e-05	-0.0002	-0.00013	-3e-05	0	-4e-05	1
34059	2e-05	2e-05	-6e-05	-9e-05	-9e-05	0	0	-1e-05	1
34060	2e-05	2e-05	-6e-05	-9e-05	-9e-05	0	0	-1e-05	1
34061	4e-05	-4e-05	-2e-05	-3e-05	-5e-05	-1e-05	-2e-05	0	1
34062	4e-05	-4e-05	-2e-05	-3e-05	-5e-05	-1e-05	-2e-05	0	1
34063	4e-05	-4e-05	-2e-05	-3e-05	-5e-05	-1e-05	-2e-05	0	1
34064	4e-05	-4e-05	-2e-05	-3e-05	-5e-05	-1e-05	-2e-05	0	1
34065	4e-05	-4e-05	-2e-05	-3e-05	-5e-05	-1e-05	-2e-05	0	1
34066	4e-05	-4e-05	-2e-05	-3e-05	-5e-05	-1e-05	-2e-05	0	1
34067	4e-05	-4e-05	-2e-05	-3e-05	-5e-05	-1e-05	-2e-05	0	1
34068	4e-05	-4e-05	-2e-05	-3e-05	-5e-05	-1e-05	-2e-05	0	1
34069	4e-05	-4e-05	-2e-05	-3e-05	-5e-05	-1e-05	-2e-05	0	1
34070	4e-05	-4e-05	-2e-05	-3e-05	-5e-05	-1e-05	-2e-05	0	1
34071	4e-05	-4e-05	-2e-05	-3e-05	-5e-05	-1e-05	-2e-05	0	1
34072	4e-05	-4e-05	-2e-05	-3e-05	-5e-05	-1e-05	-2e-05	0	1
34073	4e-05	0	-2e-05	-8e-05	0.00034	1e-05	0	0	1
34074	4e-05	0	-2e-05	-8e-05	0.00034	1e-05	0	0	1
34075	4e-05	0	-2e-05	-8e-05	0.00034	1e-05	0	0	1
34076	4e-05	0	-2e-05	-8e-05	0.00034	1e-05	0	0	1
34077	4e-05	0	-2e-05	-8e-05	0.00034	1e-05	0	0	1
34078	4e-05	0	-2e-05	-8e-05	0.00034	1e-05	0	0	1
34079	4e-05	0	-2e-05	-8e-05	0.00034	1e-05	0	0	1
34080	-5e-05	-2e-05	-1e-05	-4e-05	-2e-05	-1e-05	-1e-05	-1e-05	1
34081	1e-05	0	2e-05	9e-05	-2e-05	1e-05	1e-05	-1e-05	1
34082	1e-05	0	2e-05	9e-05	-2e-05	1e-05	1e-05	-1e-05	1
34083	1e-05	0	2e-05	9e-05	-2e-05	1e-05	1e-05	-1e-05	1
34084	1e-05	0	2e-05	9e-05	-2e-05	1e-05	1e-05	-1e-05	1
34085	1e-05	0	2e-05	9e-05	-2e-05	1e-05	1e-05	-1e-05	1
34086	1e-05	0	2e-05	9e-05	-2e-05	1e-05	1e-05	-1e-05	1
34088	1e-05	0	2e-05	9e-05	-2e-05	1e-05	1e-05	-1e-05	1
34089	1e-05	0	2e-05	9e-05	-2e-05	1e-05	1e-05	-1e-05	1
34090	1e-05	0	2e-05	9e-05	-2e-05	1e-05	1e-05	-1e-05	1
34091	1e-05	0	2e-05	9e-05	-2e-05	1e-05	1e-05	-1e-05	1
34092	1e-05	0	2e-05	9e-05	-2e-05	1e-05	1e-05	-1e-05	1
34093	1e-05	0	2e-05	9e-05	-2e-05	1e-05	1e-05	-1e-05	1
34094	1e-05	0	2e-05	9e-05	-2e-05	1e-05	1e-05	-1e-05	1
34095	1e-05	0	2e-05	9e-05	-2e-05	1e-05	1e-05	-1e-05	1
34096	1e-05	0	2e-05	9e-05	-2e-05	1e-05	1e-05	-1e-05	1
34097	4e-05	1e-05	4e-05	0.00021	0.00015	0	-1e-05	0	1
34098	4e-05	1e-05	4e-05	0.00021	0.00015	0	-1e-05	0	1
34099	4e-05	1e-05	4e-05	0.00021	0.00015	0	-1e-05	0	1
34100	4e-05	1e-05	4e-05	0.00021	0.00015	0	-1e-05	0	1
34101	4e-05	1e-05	4e-05	0.00021	0.00015	0	-1e-05	0	1
34102	4e-05	1e-05	4e-05	0.00021	0.00015	0	-1e-05	0	1
34103	-1e-05	2e-05	1e-05	1e-05	-2e-05	0	-2e-05	1e-05	1
34104	-1e-05	2e-05	1e-05	1e-05	-2e-05	0	-2e-05	1e-05	1
34105	-1e-05	2e-05	1e-05	1e-05	-2e-05	0	-2e-05	1e-05	1
34106	-1e-05	2e-05	1e-05	1e-05	-2e-05	0	-2e-05	1e-05	1
34107	-1e-05	2e-05	1e-05	1e-05	-2e-05	0	-2e-05	1e-05	1
34108	-1e-05	2e-05	1e-05	1e-05	-2e-05	0	-2e-05	1e-05	1
34109	-1e-05	2e-05	1e-05	1e-05	-2e-05	0	-2e-05	1e-05	1
34110	-1e-05	2e-05	1e-05	1e-05	-2e-05	0	-2e-05	1e-05	1
34111	-1e-05	2e-05	1e-05	1e-05	-2e-05	0	-2e-05	1e-05	1
34112	-1e-05	2e-05	1e-05	1e-05	-2e-05	0	-2e-05	1e-05	1
34113	-1e-05	2e-05	1e-05	1e-05	-2e-05	0	-2e-05	1e-05	1
34114	-1e-05	2e-05	1e-05	1e-05	-2e-05	0	-2e-05	1e-05	1
34115	-1e-05	2e-05	1e-05	1e-05	-2e-05	0	-2e-05	1e-05	1
34116	-1e-05	2e-05	1e-05	1e-05	-2e-05	0	-2e-05	1e-05	1
34117	-1e-05	2e-05	1e-05	1e-05	-2e-05	0	-2e-05	1e-05	1
34118	-1e-05	2e-05	1e-05	1e-05	-2e-05	0	-2e-05	1e-05	1
34119	-1e-05	1e-05	-3e-05	-0.0001	-0.00022	-3e-05	-1e-05	-1e-05	1
34120	-1e-05	1e-05	-3e-05	-0.0001	-0.00022	-3e-05	-1e-05	-1e-05	1
34121	-4e-05	-1e-05	4e-05	0.00014	-5e-05	-2e-05	-1e-05	-2e-05	1
34122	-4e-05	-1e-05	4e-05	0.00014	-5e-05	-2e-05	-1e-05	-2e-05	1
34123	-4e-05	-1e-05	4e-05	0.00014	-5e-05	-2e-05	-1e-05	-2e-05	1
34124	-4e-05	-1e-05	4e-05	0.00014	-5e-05	-2e-05	-1e-05	-2e-05	1
34125	-4e-05	-1e-05	4e-05	0.00014	-5e-05	-2e-05	-1e-05	-2e-05	1
34126	-4e-05	-1e-05	4e-05	0.00014	-5e-05	-2e-05	-1e-05	-2e-05	1
34127	-4e-05	-1e-05	4e-05	0.00014	-5e-05	-2e-05	-1e-05	-2e-05	1
34128	-4e-05	-1e-05	4e-05	0.00014	-5e-05	-2e-05	-1e-05	-2e-05	1
34129	-4e-05	-1e-05	4e-05	0.00014	-5e-05	-2e-05	-1e-05	-2e-05	1
34130	-4e-05	-1e-05	4e-05	0.00014	-5e-05	-2e-05	-1e-05	-2e-05	1
34131	-4e-05	-1e-05	4e-05	0.00014	-5e-05	-2e-05	-1e-05	-2e-05	1
34132	-4e-05	-1e-05	4e-05	0.00014	-5e-05	-2e-05	-1e-05	-2e-05	1
34133	-4e-05	-1e-05	4e-05	0.00014	-5e-05	-2e-05	-1e-05	-2e-05	1
34134	2e-05	-1e-05	-2e-05	-0.00011	-0.00013	-2e-05	0	0	1
34135	2e-05	-1e-05	-2e-05	-0.00011	-0.00013	-2e-05	0	0	1
34136	2e-05	-1e-05	-2e-05	-0.00011	-0.00013	-2e-05	0	0	1
34138	2e-05	-1e-05	-2e-05	-0.00011	-0.00013	-2e-05	0	0	1
34139	2e-05	-1e-05	-2e-05	-0.00011	-0.00013	-2e-05	0	0	1
34140	-1e-05	1e-05	-3e-05	3e-05	2e-05	1e-05	0	1e-05	1
34141	-1e-05	1e-05	-3e-05	3e-05	2e-05	1e-05	0	1e-05	1
34142	-1e-05	1e-05	-3e-05	3e-05	2e-05	1e-05	0	1e-05	1
34143	-1e-05	1e-05	-3e-05	3e-05	2e-05	1e-05	0	1e-05	1
34144	-1e-05	1e-05	-3e-05	3e-05	2e-05	1e-05	0	1e-05	1
34145	-1e-05	1e-05	-3e-05	3e-05	2e-05	1e-05	0	1e-05	1
34146	-1e-05	1e-05	-3e-05	3e-05	2e-05	1e-05	0	1e-05	1
34147	-1e-05	1e-05	-3e-05	3e-05	2e-05	1e-05	0	1e-05	1
34148	-1e-05	1e-05	-3e-05	3e-05	2e-05	1e-05	0	1e-05	1
34149	-1e-05	1e-05	-3e-05	3e-05	2e-05	1e-05	0	1e-05	1
34150	-1e-05	1e-05	-3e-05	3e-05	2e-05	1e-05	0	1e-05	1
34151	-1e-05	1e-05	-3e-05	3e-05	2e-05	1e-05	0	1e-05	1
34152	-1e-05	1e-05	-3e-05	3e-05	2e-05	1e-05	0	1e-05	1
34153	-1e-05	1e-05	-3e-05	3e-05	2e-05	1e-05	0	1e-05	1
34154	-1e-05	1e-05	-3e-05	3e-05	2e-05	1e-05	0	1e-05	1
34155	-1e-05	1e-05	-3e-05	3e-05	2e-05	1e-05	0	1e-05	1
34156	-1e-05	1e-05	-3e-05	3e-05	2e-05	1e-05	0	1e-05	1
34157	-2e-05	-1e-05	1e-05	0.00016	2e-05	0	0	0	1
34158	-2e-05	-1e-05	1e-05	0.00016	2e-05	0	0	0	1
34159	-2e-05	-1e-05	1e-05	0.00016	2e-05	0	0	0	1
34160	-2e-05	-1e-05	1e-05	0.00016	2e-05	0	0	0	1
34161	-2e-05	-1e-05	1e-05	0.00016	2e-05	0	0	0	1
34162	-2e-05	-1e-05	1e-05	0.00016	2e-05	0	0	0	1
34163	1e-05	0	-1e-05	-6e-05	-1e-05	-4e-05	-2e-05	0	1
34164	1e-05	0	-1e-05	-6e-05	-1e-05	-4e-05	-2e-05	0	1
34165	1e-05	0	-1e-05	-6e-05	-1e-05	-4e-05	-2e-05	0	1
34166	1e-05	0	-1e-05	-6e-05	-1e-05	-4e-05	-2e-05	0	1
34167	1e-05	0	-1e-05	-6e-05	-1e-05	-4e-05	-2e-05	0	1
34168	1e-05	0	-1e-05	-6e-05	-1e-05	-4e-05	-2e-05	0	1
34169	1e-05	0	-1e-05	-6e-05	-1e-05	-4e-05	-2e-05	0	1
34170	1e-05	0	-1e-05	-6e-05	-1e-05	-4e-05	-2e-05	0	1
34171	1e-05	0	-1e-05	-6e-05	-1e-05	-4e-05	-2e-05	0	1
34172	1e-05	0	-1e-05	-6e-05	-1e-05	-4e-05	-2e-05	0	1
34173	1e-05	0	-1e-05	-6e-05	-1e-05	-4e-05	-2e-05	0	1
34174	1e-05	0	-1e-05	-6e-05	-1e-05	-4e-05	-2e-05	0	1
34175	1e-05	0	-1e-05	-6e-05	-1e-05	-4e-05	-2e-05	0	1
34176	1e-05	0	-1e-05	-6e-05	-1e-05	-4e-05	-2e-05	0	1
34177	1e-05	0	-1e-05	-6e-05	-1e-05	-4e-05	-2e-05	0	1
34178	1e-05	0	-1e-05	-6e-05	-1e-05	-4e-05	-2e-05	0	1
34179	1e-05	0	-1e-05	-6e-05	-1e-05	-4e-05	-2e-05	0	1
34180	1e-05	0	-1e-05	-6e-05	-1e-05	-4e-05	-2e-05	0	1
34181	1e-05	0	-1e-05	-6e-05	-1e-05	-4e-05	-2e-05	0	1
34182	1e-05	0	-1e-05	-6e-05	-1e-05	-4e-05	-2e-05	0	1
34183	1e-05	0	-1e-05	-6e-05	-1e-05	-4e-05	-2e-05	0	1
34184	1e-05	0	-1e-05	-6e-05	-1e-05	-4e-05	-2e-05	0	1
34185	1e-05	0	-1e-05	-6e-05	-1e-05	-4e-05	-2e-05	0	1
34186	1e-05	0	-1e-05	-6e-05	-1e-05	-4e-05	-2e-05	0	1
34188	1e-05	0	-1e-05	-6e-05	-1e-05	-4e-05	-2e-05	0	1
34189	1e-05	0	-1e-05	-6e-05	-1e-05	-4e-05	-2e-05	0	1
34190	1e-05	0	-1e-05	-6e-05	-1e-05	-4e-05	-2e-05	0	1
34191	1e-05	0	-1e-05	-6e-05	-1e-05	-4e-05	-2e-05	0	1
34192	1e-05	0	-1e-05	-6e-05	-1e-05	-4e-05	-2e-05	0	1
34193	1e-05	0	-1e-05	-6e-05	-1e-05	-4e-05	-2e-05	0	1
34194	1e-05	0	-1e-05	-6e-05	-1e-05	-4e-05	-2e-05	0	1
34195	0	-3e-05	-2e-05	2e-05	5e-05	-3e-05	0	0	1
34196	-4e-05	-3e-05	-3e-05	-0.00011	-0.0001	0	0	-2e-05	1
34197	2e-05	4e-05	-5e-05	-9e-05	6e-05	0	-1e-05	-2e-05	1
34198	3e-05	-2e-05	-3e-05	7e-05	-6e-05	-1e-05	-3e-05	-2e-05	1
34199	3e-05	-2e-05	-3e-05	7e-05	-6e-05	-1e-05	-3e-05	-2e-05	1
34200	3e-05	-2e-05	-3e-05	7e-05	-6e-05	-1e-05	-3e-05	-2e-05	1
34201	3e-05	-2e-05	-3e-05	7e-05	-6e-05	-1e-05	-3e-05	-2e-05	1
34202	1e-05	0	-1e-05	8e-05	3e-05	-1e-05	-1e-05	-1e-05	1
34203	1e-05	0	-1e-05	8e-05	3e-05	-1e-05	-1e-05	-1e-05	1
34204	1e-05	0	-1e-05	8e-05	3e-05	-1e-05	-1e-05	-1e-05	1
34205	1e-05	0	-1e-05	8e-05	3e-05	-1e-05	-1e-05	-1e-05	1
34206	1e-05	0	-1e-05	8e-05	3e-05	-1e-05	-1e-05	-1e-05	1
34207	1e-05	0	-1e-05	8e-05	3e-05	-1e-05	-1e-05	-1e-05	1
34208	1e-05	0	-1e-05	8e-05	3e-05	-1e-05	-1e-05	-1e-05	1
34209	1e-05	0	-1e-05	8e-05	3e-05	-1e-05	-1e-05	-1e-05	1
34210	1e-05	0	-1e-05	8e-05	3e-05	-1e-05	-1e-05	-1e-05	1
34211	1e-05	0	-1e-05	8e-05	3e-05	-1e-05	-1e-05	-1e-05	1
34212	1e-05	0	-1e-05	8e-05	3e-05	-1e-05	-1e-05	-1e-05	1
34213	1e-05	0	-1e-05	8e-05	3e-05	-1e-05	-1e-05	-1e-05	1
34214	1e-05	0	-1e-05	8e-05	3e-05	-1e-05	-1e-05	-1e-05	1
34215	1e-05	0	-1e-05	8e-05	3e-05	-1e-05	-1e-05	-1e-05	1
34216	1e-05	0	-1e-05	8e-05	3e-05	-1e-05	-1e-05	-1e-05	1
34217	7e-05	-2e-05	2e-05	-2e-05	-2e-05	-3e-05	-2e-05	-1e-05	1
34218	-8e-05	-2e-05	-1e-05	0	0.00012	-1e-05	-1e-05	-3e-05	1
34219	-8e-05	-2e-05	-1e-05	0	0.00012	-1e-05	-1e-05	-3e-05	1
34220	-8e-05	-2e-05	-1e-05	0	0.00012	-1e-05	-1e-05	-3e-05	1
34221	-8e-05	-2e-05	-1e-05	0	0.00012	-1e-05	-1e-05	-3e-05	1
34222	-8e-05	-2e-05	-1e-05	0	0.00012	-1e-05	-1e-05	-3e-05	1
34223	-8e-05	-2e-05	-1e-05	0	0.00012	-1e-05	-1e-05	-3e-05	1
34224	-8e-05	-2e-05	-1e-05	0	0.00012	-1e-05	-1e-05	-3e-05	1
34225	-8e-05	-2e-05	-1e-05	0	0.00012	-1e-05	-1e-05	-3e-05	1
34226	-8e-05	-2e-05	-1e-05	0	0.00012	-1e-05	-1e-05	-3e-05	1
34227	-8e-05	-2e-05	-1e-05	0	0.00012	-1e-05	-1e-05	-3e-05	1
34228	-8e-05	-2e-05	-1e-05	0	0.00012	-1e-05	-1e-05	-3e-05	1
34229	-8e-05	-2e-05	-1e-05	0	0.00012	-1e-05	-1e-05	-3e-05	1
34230	-8e-05	-2e-05	-1e-05	0	0.00012	-1e-05	-1e-05	-3e-05	1
34231	-8e-05	-2e-05	-1e-05	0	0.00012	-1e-05	-1e-05	-3e-05	1
34232	-8e-05	-2e-05	-1e-05	0	0.00012	-1e-05	-1e-05	-3e-05	1
34233	-8e-05	-2e-05	-1e-05	0	0.00012	-1e-05	-1e-05	-3e-05	1
34234	-8e-05	-2e-05	-1e-05	0	0.00012	-1e-05	-1e-05	-3e-05	1
34235	-8e-05	-2e-05	-1e-05	0	0.00012	-1e-05	-1e-05	-3e-05	1
34236	-8e-05	-2e-05	-1e-05	0	0.00012	-1e-05	-1e-05	-3e-05	1
34238	-8e-05	-2e-05	-1e-05	0	0.00012	-1e-05	-1e-05	-3e-05	1
34239	-8e-05	-2e-05	-1e-05	0	0.00012	-1e-05	-1e-05	-3e-05	1
34240	-8e-05	-2e-05	-1e-05	0	0.00012	-1e-05	-1e-05	-3e-05	1
34241	-8e-05	-2e-05	-1e-05	0	0.00012	-1e-05	-1e-05	-3e-05	1
34242	-8e-05	-2e-05	-1e-05	0	0.00012	-1e-05	-1e-05	-3e-05	1
34243	-8e-05	-2e-05	-1e-05	0	0.00012	-1e-05	-1e-05	-3e-05	1
34244	-8e-05	-2e-05	-1e-05	0	0.00012	-1e-05	-1e-05	-3e-05	1
34245	-8e-05	-2e-05	-1e-05	0	0.00012	-1e-05	-1e-05	-3e-05	1
34246	-8e-05	-2e-05	-1e-05	0	0.00012	-1e-05	-1e-05	-3e-05	1
34247	-3e-05	3e-05	2e-05	-0.0001	-0.00021	0	0	1e-05	1
34248	-3e-05	-4e-05	-3e-05	-0.0001	5e-05	-1e-05	-1e-05	-4e-05	1
34249	-3e-05	-4e-05	-3e-05	-0.0001	5e-05	-1e-05	-1e-05	-4e-05	1
34250	-3e-05	-4e-05	-3e-05	-0.0001	5e-05	-1e-05	-1e-05	-4e-05	1
34251	-3e-05	-4e-05	-3e-05	-0.0001	5e-05	-1e-05	-1e-05	-4e-05	1
34252	-3e-05	-4e-05	-3e-05	-0.0001	5e-05	-1e-05	-1e-05	-4e-05	1
34253	-3e-05	-1e-05	-2e-05	7e-05	0	1e-05	-2e-05	-1e-05	1
34254	-4e-05	0	-4e-05	-0.00018	-0.00015	-3e-05	0	0	1
34256	-4e-05	0	-4e-05	-0.00018	-0.00015	-3e-05	0	0	1
34257	-4e-05	0	-4e-05	-0.00018	-0.00015	-3e-05	0	0	1
34258	-4e-05	0	-4e-05	-0.00018	-0.00015	-3e-05	0	0	1
34259	-4e-05	0	-4e-05	-0.00018	-0.00015	-3e-05	0	0	1
34260	-4e-05	0	-4e-05	-0.00018	-0.00015	-3e-05	0	0	1
