10048	0.00021	-0.00013	3e-05	5e-05	0.00054	-0.00032	-0.00109	-0.00121	3
10049	0.00021	-0.00013	3e-05	5e-05	0.00054	-0.00032	-0.00109	-0.00121	3
10050	0.00021	-0.00013	3e-05	5e-05	0.00054	-0.00032	-0.00109	-0.00121	3
10051	0.0002	-5e-05	-5e-05	-2e-05	0.00038	0.0001	-0.00015	-0.00013	3
10052	-0.00033	8e-05	2e-05	0.00015	0.00031	0.00035	0.00036	3e-05	3
10053	-0.00033	8e-05	2e-05	0.00015	0.00031	0.00035	0.00036	3e-05	3
10054	-0.00033	8e-05	2e-05	0.00015	0.00031	0.00035	0.00036	3e-05	3
10055	-0.00033	8e-05	2e-05	0.00015	0.00031	0.00035	0.00036	3e-05	3
10056	-0.00033	8e-05	2e-05	0.00015	0.00031	0.00035	0.00036	3e-05	3
10057	-0.00033	8e-05	2e-05	0.00015	0.00031	0.00035	0.00036	3e-05	3
10058	-0.00033	8e-05	2e-05	0.00015	0.00031	0.00035	0.00036	3e-05	3
10059	-0.00033	8e-05	2e-05	0.00015	0.00031	0.00035	0.00036	3e-05	3
10060	-0.00033	8e-05	2e-05	0.00015	0.00031	0.00035	0.00036	3e-05	3
10061	-0.00033	8e-05	2e-05	0.00015	0.00031	0.00035	0.00036	3e-05	3
10062	-0.00033	8e-05	2e-05	0.00015	0.00031	0.00035	0.00036	3e-05	3
10063	-0.00033	8e-05	2e-05	0.00015	0.00031	0.00035	0.00036	3e-05	3
10064	-0.00033	8e-05	2e-05	0.00015	0.00031	0.00035	0.00036	3e-05	3
10065	-0.00033	8e-05	2e-05	0.00015	0.00031	0.00035	0.00036	3e-05	3
10066	-0.00033	8e-05	2e-05	0.00015	0.00031	0.00035	0.00036	3e-05	3
10067	-0.00033	8e-05	2e-05	0.00015	0.00031	0.00035	0.00036	3e-05	3
10068	-0.00033	8e-05	2e-05	0.00015	0.00031	0.00035	0.00036	3e-05	3
10069	-0.00033	8e-05	2e-05	0.00015	0.00031	0.00035	0.00036	3e-05	3
10070	-0.00033	8e-05	2e-05	0.00015	0.00031	0.00035	0.00036	3e-05	3
10071	-0.00033	8e-05	2e-05	0.00015	0.00031	0.00035	0.00036	3e-05	3
10072	-0.00033	8e-05	2e-05	0.00015	0.00031	0.00035	0.00036	3e-05	3
10073	-0.00033	8e-05	2e-05	0.00015	0.00031	0.00035	0.00036	3e-05	3
10074	-0.00033	8e-05	2e-05	0.00015	0.00031	0.00035	0.00036	3e-05	3
10075	-0.00025	-0.0001	-6e-05	0.00011	0.00023	1e-05	-7e-05	-0.00027	3
10076	-0.00025	-0.0001	-6e-05	0.00011	0.00023	1e-05	-7e-05	-0.00027	3
10077	-0.00025	-0.0001	-6e-05	0.00011	0.00023	1e-05	-7e-05	-0.00027	3
10078	-0.00025	-0.0001	-6e-05	0.00011	0.00023	1e-05	-7e-05	-0.00027	3
10079	-0.00025	-0.0001	-6e-05	0.00011	0.00023	1e-05	-7e-05	-0.00027	3
10080	-0.00025	-0.0001	-6e-05	0.00011	0.00023	1e-05	-7e-05	-0.00027	3
10081	-0.00025	-0.0001	-6e-05	0.00011	0.00023	1e-05	-7e-05	-0.00027	3
10082	-0.00025	-0.0001	-6e-05	0.00011	0.00023	1e-05	-7e-05	-0.00027	3
10083	-0.00025	-0.0001	-6e-05	0.00011	0.00023	1e-05	-7e-05	-0.00027	3
10084	-0.00025	-0.0001	-6e-05	0.00011	0.00023	1e-05	-7e-05	-0.00027	3
10085	-0.00025	-0.0001	-6e-05	0.00011	0.00023	1e-05	-7e-05	-0.00027	3
10086	-0.00025	-0.0001	-6e-05	0.00011	0.00023	1e-05	-7e-05	-0.00027	3
10088	0.00016	3e-05	-3e-05	-6e-05	0.00048	0.00029	0.00121	0.00028	3
10089	0.00016	3e-05	-3e-05	-6e-05	0.00048	0.00029	0.00121	0.00028	3
10090	0.00016	3e-05	-3e-05	-6e-05	0.00048	0.00029	0.00121	0.00028	3
10091	0.00016	3e-05	-3e-05	-6e-05	0.00048	0.00029	0.00121	0.00028	3
10092	0.00016	3e-05	-3e-05	-6e-05	0.00048	0.00029	0.00121	0.00028	3
10093	0.00016	3e-05	-3e-05	-6e-05	0.00048	0.00029	0.00121	0.00028	3
10094	0.00016	3e-05	-3e-05	-6e-05	0.00048	0.00029	0.00121	0.00028	3
10095	0.00016	3e-05	-3e-05	-6e-05	0.00048	0.00029	0.00121	0.00028	3
10096	0.00016	3e-05	-3e-05	-6e-05	0.00048	0.00029	0.00121	0.00028	3
10097	-0.00011	9e-05	-4e-05	-7e-05	-0.00042	8e-05	0.00022	7e-05	3
10098	-0.00011	9e-05	-4e-05	-7e-05	-0.00042	8e-05	0.00022	7e-05	3
10099	-0.00011	9e-05	-4e-05	-7e-05	-0.00042	8e-05	0.00022	7e-05	3
10100	-0.00011	9e-05	-4e-05	-7e-05	-0.00042	8e-05	0.00022	7e-05	3
10101	-0.00011	9e-05	-4e-05	-7e-05	-0.00042	8e-05	0.00022	7e-05	3
10102	-0.00011	9e-05	-4e-05	-7e-05	-0.00042	8e-05	0.00022	7e-05	3
10103	-0.00011	9e-05	-4e-05	-7e-05	-0.00042	8e-05	0.00022	7e-05	3
10104	-0.00011	9e-05	-4e-05	-7e-05	-0.00042	8e-05	0.00022	7e-05	3
10105	-0.00011	9e-05	-4e-05	-7e-05	-0.00042	8e-05	0.00022	7e-05	3
10106	-0.00011	9e-05	-4e-05	-7e-05	-0.00042	8e-05	0.00022	7e-05	3
10107	-0.00011	9e-05	-4e-05	-7e-05	-0.00042	8e-05	0.00022	7e-05	3
10108	-0.00011	9e-05	-4e-05	-7e-05	-0.00042	8e-05	0.00022	7e-05	3
10109	-0.00011	9e-05	-4e-05	-7e-05	-0.00042	8e-05	0.00022	7e-05	3
10110	-0.00011	9e-05	-4e-05	-7e-05	-0.00042	8e-05	0.00022	7e-05	3
10111	0.00019	6e-05	3e-05	0.00024	0.0007	-0.00031	0.00037	-0.00033	3
10112	-7e-05	-0.00011	-4e-05	0	-8e-05	0.00014	-0.00088	-0.00041	3
10113	-7e-05	-0.00011	-4e-05	0	-8e-05	0.00014	-0.00088	-0.00041	3
10114	-7e-05	-0.00011	-4e-05	0	-8e-05	0.00014	-0.00088	-0.00041	3
10115	-7e-05	-0.00011	-4e-05	0	-8e-05	0.00014	-0.00088	-0.00041	3
10116	-7e-05	-0.00011	-4e-05	0	-8e-05	0.00014	-0.00088	-0.00041	3
10117	-7e-05	-0.00011	-4e-05	0	-8e-05	0.00014	-0.00088	-0.00041	3
10118	-7e-05	-0.00011	-4e-05	0	-8e-05	0.00014	-0.00088	-0.00041	3
10119	-7e-05	-0.00011	-4e-05	0	-8e-05	0.00014	-0.00088	-0.00041	3
10120	-7e-05	-0.00011	-4e-05	0	-8e-05	0.00014	-0.00088	-0.00041	3
10121	-7e-05	-0.00011	-4e-05	0	-8e-05	0.00014	-0.00088	-0.00041	3
10122	-7e-05	-0.00011	-4e-05	0	-8e-05	0.00014	-0.00088	-0.00041	3
10123	-7e-05	-0.00011	-4e-05	0	-8e-05	0.00014	-0.00088	-0.00041	3
10124	-7e-05	-0.00011	-4e-05	0	-8e-05	0.00014	-0.00088	-0.00041	3
10125	-7e-05	-0.00011	-4e-05	0	-8e-05	0.00014	-0.00088	-0.00041	3
10126	-7e-05	-0.00011	-4e-05	0	-8e-05	0.00014	-0.00088	-0.00041	3
10127	-7e-05	-0.00011	-4e-05	0	-8e-05	0.00014	-0.00088	-0.00041	3
10128	-7e-05	-0.00011	-4e-05	0	-8e-05	0.00014	-0.00088	-0.00041	3
10129	-7e-05	-0.00011	-4e-05	0	-8e-05	0.00014	-0.00088	-0.00041	3
10130	-7e-05	-0.00011	-4e-05	0	-8e-05	0.00014	-0.00088	-0.00041	3
10131	-7e-05	-0.00011	-4e-05	0	-8e-05	0.00014	-0.00088	-0.00041	3
10132	-7e-05	-0.00011	-4e-05	0	-8e-05	0.00014	-0.00088	-0.00041	3
10133	-4e-05	-0.00022	-3e-05	-2e-05	-0.00049	8e-05	-0.00063	7e-05	3
10134	-4e-05	-0.00022	-3e-05	-2e-05	-0.00049	8e-05	-0.00063	7e-05	3
10135	0.0002	4e-05	2e-05	3e-05	-0.00016	3e-05	-0.00024	-0.00021	3
10136	0.0002	4e-05	2e-05	3e-05	-0.00016	3e-05	-0.00024	-0.00021	3
10138	0.0002	4e-05	2e-05	3e-05	-0.00016	3e-05	-0.00024	-0.00021	3
10139	0.0002	4e-05	2e-05	3e-05	-0.00016	3e-05	-0.00024	-0.00021	3
10140	0.0002	4e-05	2e-05	3e-05	-0.00016	3e-05	-0.00024	-0.00021	3
10141	0.0002	4e-05	2e-05	3e-05	-0.00016	3e-05	-0.00024	-0.00021	3
10142	0.0002	4e-05	2e-05	3e-05	-0.00016	3e-05	-0.00024	-0.00021	3
10143	0.0002	4e-05	2e-05	3e-05	-0.00016	3e-05	-0.00024	-0.00021	3
10144	0.0002	4e-05	2e-05	3e-05	-0.00016	3e-05	-0.00024	-0.00021	3
10145	0.0002	4e-05	2e-05	3e-05	-0.00016	3e-05	-0.00024	-0.00021	3
10146	0.0002	4e-05	2e-05	3e-05	-0.00016	3e-05	-0.00024	-0.00021	3
10147	0.0002	4e-05	2e-05	3e-05	-0.00016	3e-05	-0.00024	-0.00021	3
10148	0.0002	4e-05	2e-05	3e-05	-0.00016	3e-05	-0.00024	-0.00021	3
10149	0.0002	4e-05	2e-05	3e-05	-0.00016	3e-05	-0.00024	-0.00021	3
10150	0.0002	4e-05	2e-05	3e-05	-0.00016	3e-05	-0.00024	-0.00021	3
10151	0.0002	4e-05	2e-05	3e-05	-0.00016	3e-05	-0.00024	-0.00021	3
10152	0.0002	4e-05	2e-05	3e-05	-0.00016	3e-05	-0.00024	-0.00021	3
10153	0.0002	4e-05	2e-05	3e-05	-0.00016	3e-05	-0.00024	-0.00021	3
10154	0.0002	4e-05	2e-05	3e-05	-0.00016	3e-05	-0.00024	-0.00021	3
10155	0.0002	4e-05	2e-05	3e-05	-0.00016	3e-05	-0.00024	-0.00021	3
10156	0.00014	-1e-05	-4e-05	2e-05	-0.00011	0.00023	-0.00026	8e-05	3
10157	0.00014	-1e-05	-4e-05	2e-05	-0.00011	0.00023	-0.00026	8e-05	3
10158	0.00014	-1e-05	-4e-05	2e-05	-0.00011	0.00023	-0.00026	8e-05	3
10159	0.00046	4e-05	8e-05	0.0002	7e-05	8e-05	-0.00026	0.00055	3
10160	0.00046	4e-05	8e-05	0.0002	7e-05	8e-05	-0.00026	0.00055	3
10161	0.00046	4e-05	8e-05	0.0002	7e-05	8e-05	-0.00026	0.00055	3
10162	0.00046	4e-05	8e-05	0.0002	7e-05	8e-05	-0.00026	0.00055	3
10163	0.00046	4e-05	8e-05	0.0002	7e-05	8e-05	-0.00026	0.00055	3
10164	0.00046	4e-05	8e-05	0.0002	7e-05	8e-05	-0.00026	0.00055	3
10165	0.00046	4e-05	8e-05	0.0002	7e-05	8e-05	-0.00026	0.00055	3
10166	0.00046	4e-05	8e-05	0.0002	7e-05	8e-05	-0.00026	0.00055	3
10167	0.00046	4e-05	8e-05	0.0002	7e-05	8e-05	-0.00026	0.00055	3
10168	0.00046	4e-05	8e-05	0.0002	7e-05	8e-05	-0.00026	0.00055	3
10169	0.00046	4e-05	8e-05	0.0002	7e-05	8e-05	-0.00026	0.00055	3
10170	0.00046	4e-05	8e-05	0.0002	7e-05	8e-05	-0.00026	0.00055	3
10171	0.0001	5e-05	-1e-05	-2e-05	0.00015	5e-05	-0.00058	-0.0006	3
10172	2e-05	0.00012	7e-05	-0.00011	0.00016	2e-05	0.00032	0.00017	3
10173	2e-05	0.00012	7e-05	-0.00011	0.00016	2e-05	0.00032	0.00017	3
10174	2e-05	0.00012	7e-05	-0.00011	0.00016	2e-05	0.00032	0.00017	3
10175	2e-05	0.00012	7e-05	-0.00011	0.00016	2e-05	0.00032	0.00017	3
10176	2e-05	0.00012	7e-05	-0.00011	0.00016	2e-05	0.00032	0.00017	3
10177	2e-05	0.00012	7e-05	-0.00011	0.00016	2e-05	0.00032	0.00017	3
10178	2e-05	0.00012	7e-05	-0.00011	0.00016	2e-05	0.00032	0.00017	3
10179	2e-05	0.00012	7e-05	-0.00011	0.00016	2e-05	0.00032	0.00017	3
10180	2e-05	0.00012	7e-05	-0.00011	0.00016	2e-05	0.00032	0.00017	3
10181	2e-05	0.00012	7e-05	-0.00011	0.00016	2e-05	0.00032	0.00017	3
10182	2e-05	0.00012	7e-05	-0.00011	0.00016	2e-05	0.00032	0.00017	3
10183	2e-05	0.00012	7e-05	-0.00011	0.00016	2e-05	0.00032	0.00017	3
10184	2e-05	0.00012	7e-05	-0.00011	0.00016	2e-05	0.00032	0.00017	3
10185	2e-05	0.00012	7e-05	-0.00011	0.00016	2e-05	0.00032	0.00017	3
10186	2e-05	0.00012	7e-05	-0.00011	0.00016	2e-05	0.00032	0.00017	3
10188	2e-05	0.00012	7e-05	-0.00011	0.00016	2e-05	0.00032	0.00017	3
10189	2e-05	0.00012	7e-05	-0.00011	0.00016	2e-05	0.00032	0.00017	3
10190	2e-05	0.00012	7e-05	-0.00011	0.00016	2e-05	0.00032	0.00017	3
10191	2e-05	0.00012	7e-05	-0.00011	0.00016	2e-05	0.00032	0.00017	3
10192	2e-05	0.00012	7e-05	-0.00011	0.00016	2e-05	0.00032	0.00017	3
10193	6e-05	4e-05	-1e-05	1e-05	-5e-05	0.00019	0.00035	0.00073	3
10194	6e-05	4e-05	-1e-05	1e-05	-5e-05	0.00019	0.00035	0.00073	3
10195	0.00036	-3e-05	-4e-05	-0.00023	9e-05	-0.0002	0.0001	8e-05	3
10196	0.00036	-3e-05	-4e-05	-0.00023	9e-05	-0.0002	0.0001	8e-05	3
10197	0.00036	-3e-05	-4e-05	-0.00023	9e-05	-0.0002	0.0001	8e-05	3
10198	0.00036	-3e-05	-4e-05	-0.00023	9e-05	-0.0002	0.0001	8e-05	3
10199	0.00036	-3e-05	-4e-05	-0.00023	9e-05	-0.0002	0.0001	8e-05	3
10200	0.00036	-3e-05	-4e-05	-0.00023	9e-05	-0.0002	0.0001	8e-05	3
10201	0.00036	-3e-05	-4e-05	-0.00023	9e-05	-0.0002	0.0001	8e-05	3
10202	0.00036	-3e-05	-4e-05	-0.00023	9e-05	-0.0002	0.0001	8e-05	3
10203	0.00036	-3e-05	-4e-05	-0.00023	9e-05	-0.0002	0.0001	8e-05	3
10204	0.00036	-3e-05	-4e-05	-0.00023	9e-05	-0.0002	0.0001	8e-05	3
10205	0.00036	-3e-05	-4e-05	-0.00023	9e-05	-0.0002	0.0001	8e-05	3
10206	0.00036	-3e-05	-4e-05	-0.00023	9e-05	-0.0002	0.0001	8e-05	3
10207	0.00036	-3e-05	-4e-05	-0.00023	9e-05	-0.0002	0.0001	8e-05	3
10208	0.00036	-3e-05	-4e-05	-0.00023	9e-05	-0.0002	0.0001	8e-05	3
10209	0.00036	-3e-05	-4e-05	-0.00023	9e-05	-0.0002	0.0001	8e-05	3
10210	0.00036	-3e-05	-4e-05	-0.00023	9e-05	-0.0002	0.0001	8e-05	3
10211	0.00036	-3e-05	-4e-05	-0.00023	9e-05	-0.0002	0.0001	8e-05	3
10212	0.00036	-3e-05	-4e-05	-0.00023	9e-05	-0.0002	0.0001	8e-05	3
10213	0.00036	-3e-05	-4e-05	-0.00023	9e-05	-0.0002	0.0001	8e-05	3
10214	0.00036	-3e-05	-4e-05	-0.00023	9e-05	-0.0002	0.0001	8e-05	3
10215	0.00036	-3e-05	-4e-05	-0.00023	9e-05	-0.0002	0.0001	8e-05	3
10216	-0.00053	-0.00018	-1e-05	3e-05	0.00041	-0.00012	-0.00024	-0.00031	3
10217	-0.00032	0	-6e-05	-8e-05	0.00044	-2e-05	-0.0008	-0.00011	3
10218	-0.00032	0	-6e-05	-8e-05	0.00044	-2e-05	-0.0008	-0.00011	3
10219	-0.00032	0	-6e-05	-8e-05	0.00044	-2e-05	-0.0008	-0.00011	3
10220	-0.00032	0	-6e-05	-8e-05	0.00044	-2e-05	-0.0008	-0.00011	3
10221	-0.00032	0	-6e-05	-8e-05	0.00044	-2e-05	-0.0008	-0.00011	3
10222	-0.00032	0	-6e-05	-8e-05	0.00044	-2e-05	-0.0008	-0.00011	3
10223	-0.00032	0	-6e-05	-8e-05	0.00044	-2e-05	-0.0008	-0.00011	3
10224	-0.00032	0	-6e-05	-8e-05	0.00044	-2e-05	-0.0008	-0.00011	3
10225	-0.00032	0	-6e-05	-8e-05	0.00044	-2e-05	-0.0008	-0.00011	3
10226	-0.00032	0	-6e-05	-8e-05	0.00044	-2e-05	-0.0008	-0.00011	3
10227	-0.00032	0	-6e-05	-8e-05	0.00044	-2e-05	-0.0008	-0.00011	3
10228	-0.00032	0	-6e-05	-8e-05	0.00044	-2e-05	-0.0008	-0.00011	3
10229	-0.00032	0	-6e-05	-8e-05	0.00044	-2e-05	-0.0008	-0.00011	3
10230	-0.00032	0	-6e-05	-8e-05	0.00044	-2e-05	-0.0008	-0.00011	3
10231	-0.00032	0	-6e-05	-8e-05	0.00044	-2e-05	-0.0008	-0.00011	3
10232	-0.00032	0	-6e-05	-8e-05	0.00044	-2e-05	-0.0008	-0.00011	3
10233	-0.00032	0	-6e-05	-8e-05	0.00044	-2e-05	-0.0008	-0.00011	3
10234	-0.00032	0	-6e-05	-8e-05	0.00044	-2e-05	-0.0008	-0.00011	3
10235	-0.00032	0	-6e-05	-8e-05	0.00044	-2e-05	-0.0008	-0.00011	3
10236	-0.00032	0	-6e-05	-8e-05	0.00044	-2e-05	-0.0008	-0.00011	3
10238	-4e-05	7e-05	0	0.00028	0.00043	-0.00017	-0.00014	0.00011	3
10239	-4e-05	7e-05	0	0.00028	0.00043	-0.00017	-0.00014	0.00011	3
10240	1e-05	-5e-05	-0.00014	-0.00016	6e-05	-0.00021	0.0002	5e-05	3
10241	1e-05	-5e-05	-0.00014	-0.00016	6e-05	-0.00021	0.0002	5e-05	3
10242	1e-05	-5e-05	-0.00014	-0.00016	6e-05	-0.00021	0.0002	5e-05	3
10243	1e-05	-5e-05	-0.00014	-0.00016	6e-05	-0.00021	0.0002	5e-05	3
10244	1e-05	-5e-05	-0.00014	-0.00016	6e-05	-0.00021	0.0002	5e-05	3
10245	1e-05	-5e-05	-0.00014	-0.00016	6e-05	-0.00021	0.0002	5e-05	3
10246	1e-05	-5e-05	-0.00014	-0.00016	6e-05	-0.00021	0.0002	5e-05	3
10247	1e-05	-5e-05	-0.00014	-0.00016	6e-05	-0.00021	0.0002	5e-05	3
10248	1e-05	-5e-05	-0.00014	-0.00016	6e-05	-0.00021	0.0002	5e-05	3
10249	1e-05	-5e-05	-0.00014	-0.00016	6e-05	-0.00021	0.0002	5e-05	3
10250	1e-05	-5e-05	-0.00014	-0.00016	6e-05	-0.00021	0.0002	5e-05	3
10251	1e-05	-5e-05	-0.00014	-0.00016	6e-05	-0.00021	0.0002	5e-05	3
10252	1e-05	-5e-05	-0.00014	-0.00016	6e-05	-0.00021	0.0002	5e-05	3
10253	-5e-05	1e-05	0	7e-05	-0.00013	0.00021	0.00048	1e-05	3
10254	-5e-05	1e-05	0	7e-05	-0.00013	0.00021	0.00048	1e-05	3
10255	-0.00032	-6e-05	-1e-05	8e-05	-2e-05	4e-05	0.00043	0.0002	3
10256	-0.00032	-6e-05	-1e-05	8e-05	-2e-05	4e-05	0.00043	0.0002	3
10257	-0.00032	-6e-05	-1e-05	8e-05	-2e-05	4e-05	0.00043	0.0002	3
10258	-0.00032	-6e-05	-1e-05	8e-05	-2e-05	4e-05	0.00043	0.0002	3
10259	-0.00032	-6e-05	-1e-05	8e-05	-2e-05	4e-05	0.00043	0.0002	3
10260	-0.00032	-6e-05	-1e-05	8e-05	-2e-05	4e-05	0.00043	0.0002	3
10261	-0.00032	-6e-05	-1e-05	8e-05	-2e-05	4e-05	0.00043	0.0002	3
10262	-0.00032	-6e-05	-1e-05	8e-05	-2e-05	4e-05	0.00043	0.0002	3
10263	-0.00032	-6e-05	-1e-05	8e-05	-2e-05	4e-05	0.00043	0.0002	3
10264	-0.00032	-6e-05	-1e-05	8e-05	-2e-05	4e-05	0.00043	0.0002	3
10265	-0.00032	-6e-05	-1e-05	8e-05	-2e-05	4e-05	0.00043	0.0002	3
10266	-0.00032	-6e-05	-1e-05	8e-05	-2e-05	4e-05	0.00043	0.0002	3
10267	-0.00032	-6e-05	-1e-05	8e-05	-2e-05	4e-05	0.00043	0.0002	3
10268	-0.00032	-6e-05	-1e-05	8e-05	-2e-05	4e-05	0.00043	0.0002	3
10269	-0.00032	-6e-05	-1e-05	8e-05	-2e-05	4e-05	0.00043	0.0002	3
10270	-0.00032	-6e-05	-1e-05	8e-05	-2e-05	4e-05	0.00043	0.0002	3
10271	-0.00032	-6e-05	-1e-05	8e-05	-2e-05	4e-05	0.00043	0.0002	3
10272	-0.00032	-6e-05	-1e-05	8e-05	-2e-05	4e-05	0.00043	0.0002	3
10273	-0.00032	-6e-05	-1e-05	8e-05	-2e-05	4e-05	0.00043	0.0002	3
10274	-0.00032	-6e-05	-1e-05	8e-05	-2e-05	4e-05	0.00043	0.0002	3
10275	-0.00032	-6e-05	-1e-05	8e-05	-2e-05	4e-05	0.00043	0.0002	3
10276	7e-05	2e-05	1e-05	-3e-05	-0.00044	-0.00012	-0.0001	-0.00032	3
10277	0.00018	6e-05	6e-05	9e-05	3e-05	5e-05	-0.00037	-3e-05	3
10278	0.00018	6e-05	6e-05	9e-05	3e-05	5e-05	-0.00037	-3e-05	3
10279	0.00018	6e-05	6e-05	9e-05	3e-05	5e-05	-0.00037	-3e-05	3
10280	0.00018	6e-05	6e-05	9e-05	3e-05	5e-05	-0.00037	-3e-05	3
10281	0.00018	6e-05	6e-05	9e-05	3e-05	5e-05	-0.00037	-3e-05	3
10282	0.00018	6e-05	6e-05	9e-05	3e-05	5e-05	-0.00037	-3e-05	3
10283	0.00018	6e-05	6e-05	9e-05	3e-05	5e-05	-0.00037	-3e-05	3
10284	0.00018	6e-05	6e-05	9e-05	3e-05	5e-05	-0.00037	-3e-05	3
10285	0.00018	6e-05	6e-05	9e-05	3e-05	5e-05	-0.00037	-3e-05	3
10286	0.00018	6e-05	6e-05	9e-05	3e-05	5e-05	-0.00037	-3e-05	3
10288	0.00018	6e-05	6e-05	9e-05	3e-05	5e-05	-0.00037	-3e-05	3
10289	0.00018	6e-05	6e-05	9e-05	3e-05	5e-05	-0.00037	-3e-05	3
10290	0.00018	6e-05	6e-05	9e-05	3e-05	5e-05	-0.00037	-3e-05	3
10291	-0.0002	-0.00011	-2e-05	-0.00029	-0.00053	1e-05	-0.0006	-0.00069	3
10292	-0.00027	-7e-05	-7e-05	-1e-05	3e-05	-0.00017	0.0003	0.00028	3
10293	-0.00027	-7e-05	-7e-05	-1e-05	3e-05	-0.00017	0.0003	0.00028	3
10294	-0.00027	-7e-05	-7e-05	-1e-05	3e-05	-0.00017	0.0003	0.00028	3
10295	-0.00027	-7e-05	-7e-05	-1e-05	3e-05	-0.00017	0.0003	0.00028	3
10296	-0.00027	-7e-05	-7e-05	-1e-05	3e-05	-0.00017	0.0003	0.00028	3
10297	-0.00027	-7e-05	-7e-05	-1e-05	3e-05	-0.00017	0.0003	0.00028	3
10298	-0.00027	-7e-05	-7e-05	-1e-05	3e-05	-0.00017	0.0003	0.00028	3
10299	-0.00027	-7e-05	-7e-05	-1e-05	3e-05	-0.00017	0.0003	0.00028	3
10300	-0.00027	-7e-05	-7e-05	-1e-05	3e-05	-0.00017	0.0003	0.00028	3
10301	-0.00027	-7e-05	-7e-05	-1e-05	3e-05	-0.00017	0.0003	0.00028	3
10302	-0.00027	-7e-05	-7e-05	-1e-05	3e-05	-0.00017	0.0003	0.00028	3
10303	-0.00027	-7e-05	-7e-05	-1e-05	3e-05	-0.00017	0.0003	0.00028	3
10304	-0.00027	-7e-05	-7e-05	-1e-05	3e-05	-0.00017	0.0003	0.00028	3
10305	-0.00027	-7e-05	-7e-05	-1e-05	3e-05	-0.00017	0.0003	0.00028	3
10306	-0.00027	-7e-05	-7e-05	-1e-05	3e-05	-0.00017	0.0003	0.00028	3
10307	-0.00027	-7e-05	-7e-05	-1e-05	3e-05	-0.00017	0.0003	0.00028	3
10308	-0.00027	-7e-05	-7e-05	-1e-05	3e-05	-0.00017	0.0003	0.00028	3
10309	-0.00027	-7e-05	-7e-05	-1e-05	3e-05	-0.00017	0.0003	0.00028	3
10310	-0.00027	-7e-05	-7e-05	-1e-05	3e-05	-0.00017	0.0003	0.00028	3
10311	-0.00027	-7e-05	-7e-05	-1e-05	3e-05	-0.00017	0.0003	0.00028	3
10312	-0.00027	-7e-05	-7e-05	-1e-05	3e-05	-0.00017	0.0003	0.00028	3
10313	-0.00027	-7e-05	-7e-05	-1e-05	3e-05	-0.00017	0.0003	0.00028	3
10314	-0.00027	-7e-05	-7e-05	-1e-05	3e-05	-0.00017	0.0003	0.00028	3
10315	-0.00027	-7e-05	-7e-05	-1e-05	3e-05	-0.00017	0.0003	0.00028	3
10316	-0.00027	-7e-05	-7e-05	-1e-05	3e-05	-0.00017	0.0003	0.00028	3
10317	-0.00027	-7e-05	-7e-05	-1e-05	3e-05	-0.00017	0.0003	0.00028	3
10318	-0.00027	-7e-05	-7e-05	-1e-05	3e-05	-0.00017	0.0003	0.00028	3
10319	-0.00027	-7e-05	-7e-05	-1e-05	3e-05	-0.00017	0.0003	0.00028	3
10320	-0.00027	-7e-05	-7e-05	-1e-05	3e-05	-0.00017	0.0003	0.00028	3
10321	0.00028	7e-05	3e-05	3e-05	-0.0003	-0.00026	0.00041	0.00037	3
10322	-0.00038	-0.0001	-4e-05	-8e-05	0.00025	0.00034	0.00031	-0.00019	3
10323	-0.00038	-0.0001	-4e-05	-8e-05	0.00025	0.00034	0.00031	-0.00019	3
10324	-0.00038	-0.0001	-4e-05	-8e-05	0.00025	0.00034	0.00031	-0.00019	3
10325	-0.00038	-0.0001	-4e-05	-8e-05	0.00025	0.00034	0.00031	-0.00019	3
10326	-0.00038	-0.0001	-4e-05	-8e-05	0.00025	0.00034	0.00031	-0.00019	3
10327	-0.00038	-0.0001	-4e-05	-8e-05	0.00025	0.00034	0.00031	-0.00019	3
10328	-0.00038	-0.0001	-4e-05	-8e-05	0.00025	0.00034	0.00031	-0.00019	3
10329	-0.00038	-0.0001	-4e-05	-8e-05	0.00025	0.00034	0.00031	-0.00019	3
10330	-0.00038	-0.0001	-4e-05	-8e-05	0.00025	0.00034	0.00031	-0.00019	3
10331	-0.00038	-0.0001	-4e-05	-8e-05	0.00025	0.00034	0.00031	-0.00019	3
10332	-0.00038	-0.0001	-4e-05	-8e-05	0.00025	0.00034	0.00031	-0.00019	3
10333	-0.00038	-0.0001	-4e-05	-8e-05	0.00025	0.00034	0.00031	-0.00019	3
10334	-0.00038	-0.0001	-4e-05	-8e-05	0.00025	0.00034	0.00031	-0.00019	3
10335	-0.00038	-0.0001	-4e-05	-8e-05	0.00025	0.00034	0.00031	-0.00019	3
10336	3e-05	6e-05	2e-05	0.00012	0.00056	-9e-05	-0.00097	-0.00031	3
10338	5e-05	1e-05	0	-2e-05	-0.00039	-0.0001	0.00048	-0.00016	3
10339	5e-05	1e-05	0	-2e-05	-0.00039	-0.0001	0.00048	-0.00016	3
10340	5e-05	1e-05	0	-2e-05	-0.00039	-0.0001	0.00048	-0.00016	3
10341	5e-05	1e-05	0	-2e-05	-0.00039	-0.0001	0.00048	-0.00016	3
10342	5e-05	1e-05	0	-2e-05	-0.00039	-0.0001	0.00048	-0.00016	3
10343	5e-05	1e-05	0	-2e-05	-0.00039	-0.0001	0.00048	-0.00016	3
10344	5e-05	1e-05	0	-2e-05	-0.00039	-0.0001	0.00048	-0.00016	3
10345	5e-05	1e-05	0	-2e-05	-0.00039	-0.0001	0.00048	-0.00016	3
10346	5e-05	1e-05	0	-2e-05	-0.00039	-0.0001	0.00048	-0.00016	3
10347	5e-05	1e-05	0	-2e-05	-0.00039	-0.0001	0.00048	-0.00016	3
10348	5e-05	1e-05	0	-2e-05	-0.00039	-0.0001	0.00048	-0.00016	3
10349	5e-05	1e-05	0	-2e-05	-0.00039	-0.0001	0.00048	-0.00016	3
10350	0.00043	4e-05	1e-05	-9e-05	-0.00033	1e-05	0.00012	-0.00016	3
10351	-0.00028	-5e-05	-5e-05	-0.00011	1e-05	5e-05	-0.00057	-0.00058	3
10352	-0.00028	-5e-05	-5e-05	-0.00011	1e-05	5e-05	-0.00057	-0.00058	3
10353	-0.00028	-5e-05	-5e-05	-0.00011	1e-05	5e-05	-0.00057	-0.00058	3
10354	-0.00028	-5e-05	-5e-05	-0.00011	1e-05	5e-05	-0.00057	-0.00058	3
10355	-0.00028	-5e-05	-5e-05	-0.00011	1e-05	5e-05	-0.00057	-0.00058	3
10356	-0.00028	-5e-05	-5e-05	-0.00011	1e-05	5e-05	-0.00057	-0.00058	3
10357	0.00062	9e-05	3e-05	1e-05	-0.00058	-0.00011	-0.00083	-7e-05	3
10358	0.00062	9e-05	3e-05	1e-05	-0.00058	-0.00011	-0.00083	-7e-05	3
10359	0.00062	9e-05	3e-05	1e-05	-0.00058	-0.00011	-0.00083	-7e-05	3
10360	0.00062	9e-05	3e-05	1e-05	-0.00058	-0.00011	-0.00083	-7e-05	3
10361	0.00062	9e-05	3e-05	1e-05	-0.00058	-0.00011	-0.00083	-7e-05	3
10362	0.00062	9e-05	3e-05	1e-05	-0.00058	-0.00011	-0.00083	-7e-05	3
10363	0.00062	9e-05	3e-05	1e-05	-0.00058	-0.00011	-0.00083	-7e-05	3
10364	0.00062	9e-05	3e-05	1e-05	-0.00058	-0.00011	-0.00083	-7e-05	3
10365	0.00062	9e-05	3e-05	1e-05	-0.00058	-0.00011	-0.00083	-7e-05	3
10366	0.00062	9e-05	3e-05	1e-05	-0.00058	-0.00011	-0.00083	-7e-05	3
10367	0.00062	9e-05	3e-05	1e-05	-0.00058	-0.00011	-0.00083	-7e-05	3
10368	0.00062	9e-05	3e-05	1e-05	-0.00058	-0.00011	-0.00083	-7e-05	3
10369	0.00062	9e-05	3e-05	1e-05	-0.00058	-0.00011	-0.00083	-7e-05	3
10370	0.00062	9e-05	3e-05	1e-05	-0.00058	-0.00011	-0.00083	-7e-05	3
10371	0.00062	9e-05	3e-05	1e-05	-0.00058	-0.00011	-0.00083	-7e-05	3
10372	0.00062	9e-05	3e-05	1e-05	-0.00058	-0.00011	-0.00083	-7e-05	3
10373	0.00062	9e-05	3e-05	1e-05	-0.00058	-0.00011	-0.00083	-7e-05	3
10374	0.00062	9e-05	3e-05	1e-05	-0.00058	-0.00011	-0.00083	-7e-05	3
10375	0.00062	9e-05	3e-05	1e-05	-0.00058	-0.00011	-0.00083	-7e-05	3
10376	-0.0002	-0.00011	2e-05	5e-05	-0.00022	9e-05	0.00032	-0.00016	3
10377	-0.0002	-0.00011	2e-05	5e-05	-0.00022	9e-05	0.00032	-0.00016	3
10378	-0.0002	-0.00011	2e-05	5e-05	-0.00022	9e-05	0.00032	-0.00016	3
10379	-0.0002	-0.00011	2e-05	5e-05	-0.00022	9e-05	0.00032	-0.00016	3
10380	-0.0002	-0.00011	2e-05	5e-05	-0.00022	9e-05	0.00032	-0.00016	3
10381	-0.0002	-0.00011	2e-05	5e-05	-0.00022	9e-05	0.00032	-0.00016	3
10382	-0.0002	-0.00011	2e-05	5e-05	-0.00022	9e-05	0.00032	-0.00016	3
10383	-0.0002	-0.00011	2e-05	5e-05	-0.00022	9e-05	0.00032	-0.00016	3
10384	-0.0002	-0.00011	2e-05	5e-05	-0.00022	9e-05	0.00032	-0.00016	3
10385	-0.0002	-0.00011	2e-05	5e-05	-0.00022	9e-05	0.00032	-0.00016	3
10386	-0.0002	-0.00011	2e-05	5e-05	-0.00022	9e-05	0.00032	-0.00016	3
10388	-0.0002	-0.00011	2e-05	5e-05	-0.00022	9e-05	0.00032	-0.00016	3
10389	-0.0002	-0.00011	2e-05	5e-05	-0.00022	9e-05	0.00032	-0.00016	3
10390	-0.0002	-0.00011	2e-05	5e-05	-0.00022	9e-05	0.00032	-0.00016	3
10391	-0.0002	-0.00011	2e-05	5e-05	-0.00022	9e-05	0.00032	-0.00016	3
10392	-0.0002	-0.00011	2e-05	5e-05	-0.00022	9e-05	0.00032	-0.00016	3
10393	-0.0002	-0.00011	2e-05	5e-05	-0.00022	9e-05	0.00032	-0.00016	3
10394	-0.0002	-0.00011	2e-05	5e-05	-0.00022	9e-05	0.00032	-0.00016	3
10395	-0.0002	-0.00011	2e-05	5e-05	-0.00022	9e-05	0.00032	-0.00016	3
10396	-0.0002	-0.00011	2e-05	5e-05	-0.00022	9e-05	0.00032	-0.00016	3
10397	-0.0002	-0.00011	2e-05	5e-05	-0.00022	9e-05	0.00032	-0.00016	3
10398	-0.0002	-0.00011	2e-05	5e-05	-0.00022	9e-05	0.00032	-0.00016	3
10399	-0.0002	-0.00011	2e-05	5e-05	-0.00022	9e-05	0.00032	-0.00016	3
10400	-0.0002	-0.00011	2e-05	5e-05	-0.00022	9e-05	0.00032	-0.00016	3
10401	-0.0002	-0.00011	2e-05	5e-05	-0.00022	9e-05	0.00032	-0.00016	3
10402	-0.0002	-0.00011	2e-05	5e-05	-0.00022	9e-05	0.00032	-0.00016	3
10403	0.0002	5e-05	-5e-05	-3e-05	0.00056	-0.00019	0.00092	0.00051	3
10404	0.0002	5e-05	-5e-05	-3e-05	0.00056	-0.00019	0.00092	0.00051	3
10405	-0.00054	-0.0001	-5e-05	-0.00013	-0.00028	9e-05	0.00031	0.00016	3
10406	-0.00054	-0.0001	-5e-05	-0.00013	-0.00028	9e-05	0.00031	0.00016	3
10407	-0.00054	-0.0001	-5e-05	-0.00013	-0.00028	9e-05	0.00031	0.00016	3
10408	-0.00054	-0.0001	-5e-05	-0.00013	-0.00028	9e-05	0.00031	0.00016	3
10409	-0.00054	-0.0001	-5e-05	-0.00013	-0.00028	9e-05	0.00031	0.00016	3
10410	1e-05	-1e-05	-3e-05	-5e-05	-0.0003	-0.00023	-0.00066	-0.00049	3
10411	1e-05	-1e-05	-3e-05	-5e-05	-0.0003	-0.00023	-0.00066	-0.00049	3
10412	1e-05	-1e-05	-3e-05	-5e-05	-0.0003	-0.00023	-0.00066	-0.00049	3
10413	1e-05	-1e-05	-3e-05	-5e-05	-0.0003	-0.00023	-0.00066	-0.00049	3
10414	1e-05	-1e-05	-3e-05	-5e-05	-0.0003	-0.00023	-0.00066	-0.00049	3
10415	1e-05	-1e-05	-3e-05	-5e-05	-0.0003	-0.00023	-0.00066	-0.00049	3
10416	1e-05	-1e-05	-3e-05	-5e-05	-0.0003	-0.00023	-0.00066	-0.00049	3
10417	0.00022	9e-05	5e-05	6e-05	5e-05	9e-05	0.00027	8e-05	3
10418	0.00022	9e-05	5e-05	6e-05	5e-05	9e-05	0.00027	8e-05	3
10419	0.00022	9e-05	5e-05	6e-05	5e-05	9e-05	0.00027	8e-05	3
10420	0.00022	9e-05	5e-05	6e-05	5e-05	9e-05	0.00027	8e-05	3
10421	0.00022	9e-05	5e-05	6e-05	5e-05	9e-05	0.00027	8e-05	3
10422	0.00022	9e-05	5e-05	6e-05	5e-05	9e-05	0.00027	8e-05	3
10423	0.00022	9e-05	5e-05	6e-05	5e-05	9e-05	0.00027	8e-05	3
10424	0.00022	9e-05	5e-05	6e-05	5e-05	9e-05	0.00027	8e-05	3
10425	0.00022	9e-05	5e-05	6e-05	5e-05	9e-05	0.00027	8e-05	3
10426	0.00022	9e-05	5e-05	6e-05	5e-05	9e-05	0.00027	8e-05	3
10427	0.00022	9e-05	5e-05	6e-05	5e-05	9e-05	0.00027	8e-05	3
10428	0.00022	9e-05	5e-05	6e-05	5e-05	9e-05	0.00027	8e-05	3
10429	0.00022	9e-05	5e-05	6e-05	5e-05	9e-05	0.00027	8e-05	3
10430	0.00022	9e-05	5e-05	6e-05	5e-05	9e-05	0.00027	8e-05	3
10431	0.00022	9e-05	5e-05	6e-05	5e-05	9e-05	0.00027	8e-05	3
10432	0.00022	9e-05	5e-05	6e-05	5e-05	9e-05	0.00027	8e-05	3
10433	0.00022	9e-05	5e-05	6e-05	5e-05	9e-05	0.00027	8e-05	3
10434	0.00019	-2e-05	6e-05	0.00024	-0.00023	5e-05	0.00044	0.00024	3
10435	7e-05	3e-05	-2e-05	0.00011	0.00098	-0.00023	-0.00072	7e-05	3
10436	7e-05	3e-05	-2e-05	0.00011	0.00098	-0.00023	-0.00072	7e-05	3
10438	7e-05	3e-05	-2e-05	0.00011	0.00098	-0.00023	-0.00072	7e-05	3
10439	7e-05	3e-05	-2e-05	0.00011	0.00098	-0.00023	-0.00072	7e-05	3
10440	7e-05	3e-05	-2e-05	0.00011	0.00098	-0.00023	-0.00072	7e-05	3
10441	7e-05	3e-05	-2e-05	0.00011	0.00098	-0.00023	-0.00072	7e-05	3
10442	7e-05	3e-05	-2e-05	0.00011	0.00098	-0.00023	-0.00072	7e-05	3
10443	7e-05	3e-05	-2e-05	0.00011	0.00098	-0.00023	-0.00072	7e-05	3
10444	7e-05	3e-05	-2e-05	0.00011	0.00098	-0.00023	-0.00072	7e-05	3
10445	7e-05	3e-05	-2e-05	0.00011	0.00098	-0.00023	-0.00072	7e-05	3
10446	7e-05	3e-05	-2e-05	0.00011	0.00098	-0.00023	-0.00072	7e-05	3
10447	7e-05	3e-05	-2e-05	0.00011	0.00098	-0.00023	-0.00072	7e-05	3
10448	7e-05	3e-05	-2e-05	0.00011	0.00098	-0.00023	-0.00072	7e-05	3
10449	7e-05	3e-05	-2e-05	0.00011	0.00098	-0.00023	-0.00072	7e-05	3
10450	7e-05	3e-05	-2e-05	0.00011	0.00098	-0.00023	-0.00072	7e-05	3
10451	7e-05	3e-05	-2e-05	0.00011	0.00098	-0.00023	-0.00072	7e-05	3
10452	7e-05	3e-05	-2e-05	0.00011	0.00098	-0.00023	-0.00072	7e-05	3
10453	7e-05	3e-05	-2e-05	0.00011	0.00098	-0.00023	-0.00072	7e-05	3
10454	7e-05	3e-05	-2e-05	0.00011	0.00098	-0.00023	-0.00072	7e-05	3
10455	7e-05	3e-05	-2e-05	0.00011	0.00098	-0.00023	-0.00072	7e-05	3
10456	7e-05	3e-05	-2e-05	0.00011	0.00098	-0.00023	-0.00072	7e-05	3
10457	7e-05	3e-05	-2e-05	0.00011	0.00098	-0.00023	-0.00072	7e-05	3
10458	7e-05	3e-05	-2e-05	0.00011	0.00098	-0.00023	-0.00072	7e-05	3
10459	7e-05	3e-05	-2e-05	0.00011	0.00098	-0.00023	-0.00072	7e-05	3
10460	7e-05	3e-05	-2e-05	0.00011	0.00098	-0.00023	-0.00072	7e-05	3
10461	7e-05	3e-05	-2e-05	0.00011	0.00098	-0.00023	-0.00072	7e-05	3
10462	7e-05	3e-05	-2e-05	0.00011	0.00098	-0.00023	-0.00072	7e-05	3
10463	-0.00058	-0.0001	-3e-05	1e-05	0.00041	-0.00013	-0.00096	-0.00044	3
10464	-0.00058	-0.0001	-3e-05	1e-05	0.00041	-0.00013	-0.00096	-0.00044	3
10465	7e-05	-4e-05	-3e-05	-6e-05	-0.00027	-0.00015	7e-05	-0.00013	3
10466	7e-05	-4e-05	-3e-05	-6e-05	-0.00027	-0.00015	7e-05	-0.00013	3
10467	7e-05	-4e-05	-3e-05	-6e-05	-0.00027	-0.00015	7e-05	-0.00013	3
10468	7e-05	-4e-05	-3e-05	-6e-05	-0.00027	-0.00015	7e-05	-0.00013	3
10469	7e-05	-4e-05	-3e-05	-6e-05	-0.00027	-0.00015	7e-05	-0.00013	3
10470	-3e-05	-0.0001	-7e-05	1e-05	-6e-05	0.0003	-0.00014	0.00022	3
10471	-3e-05	-0.0001	-7e-05	1e-05	-6e-05	0.0003	-0.00014	0.00022	3
10472	-3e-05	-0.0001	-7e-05	1e-05	-6e-05	0.0003	-0.00014	0.00022	3
10473	-3e-05	-0.0001	-7e-05	1e-05	-6e-05	0.0003	-0.00014	0.00022	3
10474	-3e-05	-0.0001	-7e-05	1e-05	-6e-05	0.0003	-0.00014	0.00022	3
10475	-3e-05	-0.0001	-7e-05	1e-05	-6e-05	0.0003	-0.00014	0.00022	3
10476	-3e-05	-0.0001	-7e-05	1e-05	-6e-05	0.0003	-0.00014	0.00022	3
10477	-3e-05	-0.0001	-7e-05	1e-05	-6e-05	0.0003	-0.00014	0.00022	3
10478	-3e-05	-0.0001	-7e-05	1e-05	-6e-05	0.0003	-0.00014	0.00022	3
10479	-3e-05	-0.0001	-7e-05	1e-05	-6e-05	0.0003	-0.00014	0.00022	3
10480	-3e-05	-0.0001	-7e-05	1e-05	-6e-05	0.0003	-0.00014	0.00022	3
10481	-3e-05	-0.0001	-7e-05	1e-05	-6e-05	0.0003	-0.00014	0.00022	3
10482	-3e-05	-0.0001	-7e-05	1e-05	-6e-05	0.0003	-0.00014	0.00022	3
10483	-3e-05	-0.0001	-7e-05	1e-05	-6e-05	0.0003	-0.00014	0.00022	3
10484	-3e-05	-0.0001	-7e-05	1e-05	-6e-05	0.0003	-0.00014	0.00022	3
10485	-0.00014	-0.00023	-0.0001	-0.00021	-0.00053	4e-05	9e-05	-0.00048	3
10486	-0.00014	-0.00023	-0.0001	-0.00021	-0.00053	4e-05	9e-05	-0.00048	3
10488	-0.00014	-0.00023	-0.0001	-0.00021	-0.00053	4e-05	9e-05	-0.00048	3
10489	-0.00014	-0.00023	-0.0001	-0.00021	-0.00053	4e-05	9e-05	-0.00048	3
10490	-0.00014	-0.00023	-0.0001	-0.00021	-0.00053	4e-05	9e-05	-0.00048	3
10491	-0.00014	-0.00023	-0.0001	-0.00021	-0.00053	4e-05	9e-05	-0.00048	3
10492	-0.00014	-0.00023	-0.0001	-0.00021	-0.00053	4e-05	9e-05	-0.00048	3
10493	-0.00014	-0.00023	-0.0001	-0.00021	-0.00053	4e-05	9e-05	-0.00048	3
10494	-0.0003	-8e-05	-2e-05	-0.00022	-0.0005	-4e-05	-0.00033	-0.00071	3
10495	-6e-05	5e-05	2e-05	6e-05	-0.00027	-0.00029	-0.00019	-2e-05	3
10496	-6e-05	5e-05	2e-05	6e-05	-0.00027	-0.00029	-0.00019	-2e-05	3
10497	-6e-05	5e-05	2e-05	6e-05	-0.00027	-0.00029	-0.00019	-2e-05	3
10498	-6e-05	5e-05	2e-05	6e-05	-0.00027	-0.00029	-0.00019	-2e-05	3
10499	-6e-05	5e-05	2e-05	6e-05	-0.00027	-0.00029	-0.00019	-2e-05	3
10500	-6e-05	5e-05	2e-05	6e-05	-0.00027	-0.00029	-0.00019	-2e-05	3
10501	-6e-05	5e-05	2e-05	6e-05	-0.00027	-0.00029	-0.00019	-2e-05	3
10502	-6e-05	5e-05	2e-05	6e-05	-0.00027	-0.00029	-0.00019	-2e-05	3
10503	-6e-05	5e-05	2e-05	6e-05	-0.00027	-0.00029	-0.00019	-2e-05	3
10504	-6e-05	5e-05	2e-05	6e-05	-0.00027	-0.00029	-0.00019	-2e-05	3
10505	-6e-05	5e-05	2e-05	6e-05	-0.00027	-0.00029	-0.00019	-2e-05	3
10506	-6e-05	5e-05	2e-05	6e-05	-0.00027	-0.00029	-0.00019	-2e-05	3
10507	-6e-05	5e-05	2e-05	6e-05	-0.00027	-0.00029	-0.00019	-2e-05	3
10508	-6e-05	5e-05	2e-05	6e-05	-0.00027	-0.00029	-0.00019	-2e-05	3
10509	-6e-05	5e-05	2e-05	6e-05	-0.00027	-0.00029	-0.00019	-2e-05	3
10510	-6e-05	5e-05	2e-05	6e-05	-0.00027	-0.00029	-0.00019	-2e-05	3
10511	-6e-05	5e-05	2e-05	6e-05	-0.00027	-0.00029	-0.00019	-2e-05	3
10512	-6e-05	5e-05	2e-05	6e-05	-0.00027	-0.00029	-0.00019	-2e-05	3
10513	-6e-05	5e-05	2e-05	6e-05	-0.00027	-0.00029	-0.00019	-2e-05	3
10514	-6e-05	5e-05	2e-05	6e-05	-0.00027	-0.00029	-0.00019	-2e-05	3
10515	-6e-05	5e-05	2e-05	6e-05	-0.00027	-0.00029	-0.00019	-2e-05	3
10516	0.00022	0	-6e-05	-0.00016	0.00026	-0.00031	0.00051	0.00086	3
10517	0.00022	0	-6e-05	-0.00016	0.00026	-0.00031	0.00051	0.00086	3
10518	0.00021	5e-05	7e-05	0.0002	0.00044	2e-05	-8e-05	2e-05	3
10519	0.00021	5e-05	7e-05	0.0002	0.00044	2e-05	-8e-05	2e-05	3
10520	0.00021	5e-05	7e-05	0.0002	0.00044	2e-05	-8e-05	2e-05	3
10521	0.00021	5e-05	7e-05	0.0002	0.00044	2e-05	-8e-05	2e-05	3
10522	0.00021	5e-05	7e-05	0.0002	0.00044	2e-05	-8e-05	2e-05	3
10523	0.00021	5e-05	7e-05	0.0002	0.00044	2e-05	-8e-05	2e-05	3
10524	0.00021	5e-05	7e-05	0.0002	0.00044	2e-05	-8e-05	2e-05	3
10525	0.00021	5e-05	7e-05	0.0002	0.00044	2e-05	-8e-05	2e-05	3
10526	0.00021	5e-05	7e-05	0.0002	0.00044	2e-05	-8e-05	2e-05	3
10527	0.00021	5e-05	7e-05	0.0002	0.00044	2e-05	-8e-05	2e-05	3
10528	0.00021	5e-05	7e-05	0.0002	0.00044	2e-05	-8e-05	2e-05	3
10529	0.00021	5e-05	7e-05	0.0002	0.00044	2e-05	-8e-05	2e-05	3
10530	-0.00014	3e-05	7e-05	5e-05	0.00025	0.0003	0.00076	0.00048	3
10531	-0.00014	3e-05	7e-05	5e-05	0.00025	0.0003	0.00076	0.00048	3
10532	-0.00014	3e-05	7e-05	5e-05	0.00025	0.0003	0.00076	0.00048	3
10533	-0.00014	3e-05	7e-05	5e-05	0.00025	0.0003	0.00076	0.00048	3
10534	-0.00014	3e-05	7e-05	5e-05	0.00025	0.0003	0.00076	0.00048	3
10535	-0.00014	3e-05	7e-05	5e-05	0.00025	0.0003	0.00076	0.00048	3
10536	-0.00014	3e-05	7e-05	5e-05	0.00025	0.0003	0.00076	0.00048	3
10538	0.00022	2e-05	0	2e-05	-0.0001	8e-05	-0.00018	-0.00024	3
10539	0.00022	2e-05	0	2e-05	-0.0001	8e-05	-0.00018	-0.00024	3
10540	0.00022	2e-05	0	2e-05	-0.0001	8e-05	-0.00018	-0.00024	3
10541	0.00022	2e-05	0	2e-05	-0.0001	8e-05	-0.00018	-0.00024	3
10542	0.00022	2e-05	0	2e-05	-0.0001	8e-05	-0.00018	-0.00024	3
10543	0.00022	2e-05	0	2e-05	-0.0001	8e-05	-0.00018	-0.00024	3
10544	0.00022	2e-05	0	2e-05	-0.0001	8e-05	-0.00018	-0.00024	3
10545	0.00022	2e-05	0	2e-05	-0.0001	8e-05	-0.00018	-0.00024	3
10546	0.00022	2e-05	0	2e-05	-0.0001	8e-05	-0.00018	-0.00024	3
10547	0.00022	2e-05	0	2e-05	-0.0001	8e-05	-0.00018	-0.00024	3
10548	0.00022	2e-05	0	2e-05	-0.0001	8e-05	-0.00018	-0.00024	3
10549	0.00022	2e-05	0	2e-05	-0.0001	8e-05	-0.00018	-0.00024	3
10550	0.00022	2e-05	0	2e-05	-0.0001	8e-05	-0.00018	-0.00024	3
10551	0.00022	2e-05	0	2e-05	-0.0001	8e-05	-0.00018	-0.00024	3
10552	0.00022	2e-05	0	2e-05	-0.0001	8e-05	-0.00018	-0.00024	3
10553	9e-05	-0.00017	-9e-05	-1e-05	-0.00019	2e-05	-0.0002	6e-05	3
10554	9e-05	-0.00017	-9e-05	-1e-05	-0.00019	2e-05	-0.0002	6e-05	3
10555	7e-05	4e-05	-3e-05	-6e-05	-0.0003	0.00012	0.00098	0.00083	3
10556	7e-05	4e-05	-3e-05	-6e-05	-0.0003	0.00012	0.00098	0.00083	3
10557	7e-05	4e-05	-3e-05	-6e-05	-0.0003	0.00012	0.00098	0.00083	3
10558	7e-05	4e-05	-3e-05	-6e-05	-0.0003	0.00012	0.00098	0.00083	3
10559	7e-05	4e-05	-3e-05	-6e-05	-0.0003	0.00012	0.00098	0.00083	3
10560	7e-05	4e-05	-3e-05	-6e-05	-0.0003	0.00012	0.00098	0.00083	3
10561	7e-05	4e-05	-3e-05	-6e-05	-0.0003	0.00012	0.00098	0.00083	3
10562	7e-05	4e-05	-3e-05	-6e-05	-0.0003	0.00012	0.00098	0.00083	3
10563	7e-05	4e-05	-3e-05	-6e-05	-0.0003	0.00012	0.00098	0.00083	3
10564	7e-05	4e-05	-3e-05	-6e-05	-0.0003	0.00012	0.00098	0.00083	3
10565	7e-05	4e-05	-3e-05	-6e-05	-0.0003	0.00012	0.00098	0.00083	3
10566	7e-05	4e-05	-3e-05	-6e-05	-0.0003	0.00012	0.00098	0.00083	3
10567	7e-05	4e-05	-3e-05	-6e-05	-0.0003	0.00012	0.00098	0.00083	3
10568	7e-05	4e-05	-3e-05	-6e-05	-0.0003	0.00012	0.00098	0.00083	3
10569	7e-05	4e-05	-3e-05	-6e-05	-0.0003	0.00012	0.00098	0.00083	3
10570	7e-05	4e-05	-3e-05	-6e-05	-0.0003	0.00012	0.00098	0.00083	3
10571	7e-05	4e-05	-3e-05	-6e-05	-0.0003	0.00012	0.00098	0.00083	3
10572	7e-05	4e-05	-3e-05	-6e-05	-0.0003	0.00012	0.00098	0.00083	3
10573	7e-05	4e-05	-3e-05	-6e-05	-0.0003	0.00012	0.00098	0.00083	3
10574	7e-05	4e-05	-3e-05	-6e-05	-0.0003	0.00012	0.00098	0.00083	3
10575	7e-05	4e-05	-3e-05	-6e-05	-0.0003	0.00012	0.00098	0.00083	3
10576	6e-05	-3e-05	2e-05	0.0001	0.00037	-5e-05	0.00025	-0.00012	3
10577	-3e-05	7e-05	3e-05	-0.00011	-0.00063	-0.00012	8e-05	0.00022	3
10578	-0.00019	-2e-05	2e-05	-0.00015	-0.00033	5e-05	0	0.00013	3
10579	-0.00019	-2e-05	2e-05	-0.00015	-0.00033	5e-05	0	0.00013	3
10580	-0.00019	-2e-05	2e-05	-0.00015	-0.00033	5e-05	0	0.00013	3
10581	-0.00019	-2e-05	2e-05	-0.00015	-0.00033	5e-05	0	0.00013	3
10582	-0.00019	-2e-05	2e-05	-0.00015	-0.00033	5e-05	0	0.00013	3
10583	-0.00019	-2e-05	2e-05	-0.00015	-0.00033	5e-05	0	0.00013	3
10584	-0.00019	-2e-05	2e-05	-0.00015	-0.00033	5e-05	0	0.00013	3
10585	-0.00019	-2e-05	2e-05	-0.00015	-0.00033	5e-05	0	0.00013	3
10586	-0.00019	-2e-05	2e-05	-0.00015	-0.00033	5e-05	0	0.00013	3
10588	-0.00019	-2e-05	2e-05	-0.00015	-0.00033	5e-05	0	0.00013	3
10589	-0.00019	-2e-05	2e-05	-0.00015	-0.00033	5e-05	0	0.00013	3
10590	-0.00019	-2e-05	2e-05	-0.00015	-0.00033	5e-05	0	0.00013	3
10591	-0.00019	-2e-05	2e-05	-0.00015	-0.00033	5e-05	0	0.00013	3
10592	-0.00019	-2e-05	2e-05	-0.00015	-0.00033	5e-05	0	0.00013	3
10593	-0.00019	-2e-05	2e-05	-0.00015	-0.00033	5e-05	0	0.00013	3
10594	-0.00019	-2e-05	2e-05	-0.00015	-0.00033	5e-05	0	0.00013	3
10595	-0.00019	-2e-05	2e-05	-0.00015	-0.00033	5e-05	0	0.00013	3
10596	-0.00019	-2e-05	2e-05	-0.00015	-0.00033	5e-05	0	0.00013	3
10597	-0.00019	-2e-05	2e-05	-0.00015	-0.00033	5e-05	0	0.00013	3
10598	2e-05	7e-05	3e-05	1e-05	0.00034	0.00014	0.00023	0.00019	3
10599	2e-05	7e-05	3e-05	1e-05	0.00034	0.00014	0.00023	0.00019	3
10600	0.00018	2e-05	-2e-05	0	-6e-05	-8e-05	-0.0002	-0.00064	3
10601	0.00018	2e-05	-2e-05	0	-6e-05	-8e-05	-0.0002	-0.00064	3
10602	0.00018	2e-05	-2e-05	0	-6e-05	-8e-05	-0.0002	-0.00064	3
10603	0.00018	2e-05	-2e-05	0	-6e-05	-8e-05	-0.0002	-0.00064	3
10604	0.00018	2e-05	-2e-05	0	-6e-05	-8e-05	-0.0002	-0.00064	3
10605	0.00018	2e-05	-2e-05	0	-6e-05	-8e-05	-0.0002	-0.00064	3
10606	0.00018	2e-05	-2e-05	0	-6e-05	-8e-05	-0.0002	-0.00064	3
10607	0.00018	2e-05	-2e-05	0	-6e-05	-8e-05	-0.0002	-0.00064	3
10608	0.00018	2e-05	-2e-05	0	-6e-05	-8e-05	-0.0002	-0.00064	3
10609	0.00018	2e-05	-2e-05	0	-6e-05	-8e-05	-0.0002	-0.00064	3
10610	0.00018	2e-05	-2e-05	0	-6e-05	-8e-05	-0.0002	-0.00064	3
10611	0.00018	2e-05	-2e-05	0	-6e-05	-8e-05	-0.0002	-0.00064	3
10612	0.00018	2e-05	-2e-05	0	-6e-05	-8e-05	-0.0002	-0.00064	3
10613	-0.00039	-2e-05	5e-05	0.00018	-0.00025	0	-0.00023	-0.00105	3
10614	-0.00039	-2e-05	5e-05	0.00018	-0.00025	0	-0.00023	-0.00105	3
10615	0.00018	2e-05	2e-05	-0.00013	0.00018	-0.00019	-0.00065	0.00011	3
10616	0.00018	2e-05	2e-05	-0.00013	0.00018	-0.00019	-0.00065	0.00011	3
10617	0.00018	2e-05	2e-05	-0.00013	0.00018	-0.00019	-0.00065	0.00011	3
10618	0.00018	2e-05	2e-05	-0.00013	0.00018	-0.00019	-0.00065	0.00011	3
10619	0.00018	2e-05	2e-05	-0.00013	0.00018	-0.00019	-0.00065	0.00011	3
10620	0.00018	2e-05	2e-05	-0.00013	0.00018	-0.00019	-0.00065	0.00011	3
10621	0.00018	2e-05	2e-05	-0.00013	0.00018	-0.00019	-0.00065	0.00011	3
10622	0.00018	2e-05	2e-05	-0.00013	0.00018	-0.00019	-0.00065	0.00011	3
10623	0.00018	2e-05	2e-05	-0.00013	0.00018	-0.00019	-0.00065	0.00011	3
10624	0.00018	2e-05	2e-05	-0.00013	0.00018	-0.00019	-0.00065	0.00011	3
10625	0.00018	2e-05	2e-05	-0.00013	0.00018	-0.00019	-0.00065	0.00011	3
10626	0.00018	2e-05	2e-05	-0.00013	0.00018	-0.00019	-0.00065	0.00011	3
10627	0.00018	2e-05	2e-05	-0.00013	0.00018	-0.00019	-0.00065	0.00011	3
10628	0.00018	2e-05	2e-05	-0.00013	0.00018	-0.00019	-0.00065	0.00011	3
10629	0.00018	2e-05	2e-05	-0.00013	0.00018	-0.00019	-0.00065	0.00011	3
10630	0.00018	2e-05	2e-05	-0.00013	0.00018	-0.00019	-0.00065	0.00011	3
10631	0.00018	2e-05	2e-05	-0.00013	0.00018	-0.00019	-0.00065	0.00011	3
10632	0.00018	2e-05	2e-05	-0.00013	0.00018	-0.00019	-0.00065	0.00011	3
10633	0.00018	2e-05	2e-05	-0.00013	0.00018	-0.00019	-0.00065	0.00011	3
10634	0.00018	2e-05	2e-05	-0.00013	0.00018	-0.00019	-0.00065	0.00011	3
10635	0.00018	2e-05	2e-05	-0.00013	0.00018	-0.00019	-0.00065	0.00011	3
10636	0.00041	9e-05	-6e-05	-5e-05	-0.00031	-0.0001	0.00064	0.00032	3
10638	5e-05	9e-05	5e-05	0.00014	0.00073	0.00038	9e-05	-8e-05	3
10639	5e-05	9e-05	5e-05	0.00014	0.00073	0.00038	9e-05	-8e-05	3
10640	5e-05	9e-05	5e-05	0.00014	0.00073	0.00038	9e-05	-8e-05	3
10641	5e-05	9e-05	5e-05	0.00014	0.00073	0.00038	9e-05	-8e-05	3
10642	5e-05	9e-05	5e-05	0.00014	0.00073	0.00038	9e-05	-8e-05	3
10643	5e-05	9e-05	5e-05	0.00014	0.00073	0.00038	9e-05	-8e-05	3
10644	5e-05	9e-05	5e-05	0.00014	0.00073	0.00038	9e-05	-8e-05	3
10645	5e-05	9e-05	5e-05	0.00014	0.00073	0.00038	9e-05	-8e-05	3
10646	5e-05	9e-05	5e-05	0.00014	0.00073	0.00038	9e-05	-8e-05	3
10647	5e-05	9e-05	5e-05	0.00014	0.00073	0.00038	9e-05	-8e-05	3
10648	5e-05	9e-05	5e-05	0.00014	0.00073	0.00038	9e-05	-8e-05	3
10649	5e-05	9e-05	5e-05	0.00014	0.00073	0.00038	9e-05	-8e-05	3
10650	0.00024	0	-2e-05	-9e-05	2e-05	0.00019	0.00036	0.00054	3
10651	0.00024	0	-2e-05	-9e-05	2e-05	0.00019	0.00036	0.00054	3
10652	0.00024	0	-2e-05	-9e-05	2e-05	0.00019	0.00036	0.00054	3
10653	0.00024	0	-2e-05	-9e-05	2e-05	0.00019	0.00036	0.00054	3
10654	0.00024	0	-2e-05	-9e-05	2e-05	0.00019	0.00036	0.00054	3
10655	0.00024	0	-2e-05	-9e-05	2e-05	0.00019	0.00036	0.00054	3
10656	0.00024	0	-2e-05	-9e-05	2e-05	0.00019	0.00036	0.00054	3
10657	-2e-05	-7e-05	-7e-05	5e-05	-1e-05	-5e-05	0.00022	0.00022	3
10658	-2e-05	-7e-05	-7e-05	5e-05	-1e-05	-5e-05	0.00022	0.00022	3
10659	-2e-05	-7e-05	-7e-05	5e-05	-1e-05	-5e-05	0.00022	0.00022	3
10660	-2e-05	-7e-05	-7e-05	5e-05	-1e-05	-5e-05	0.00022	0.00022	3
10661	-2e-05	-7e-05	-7e-05	5e-05	-1e-05	-5e-05	0.00022	0.00022	3
10662	-2e-05	-7e-05	-7e-05	5e-05	-1e-05	-5e-05	0.00022	0.00022	3
10663	-2e-05	-7e-05	-7e-05	5e-05	-1e-05	-5e-05	0.00022	0.00022	3
10664	-2e-05	-7e-05	-7e-05	5e-05	-1e-05	-5e-05	0.00022	0.00022	3
10665	-2e-05	-7e-05	-7e-05	5e-05	-1e-05	-5e-05	0.00022	0.00022	3
10666	-2e-05	-7e-05	-7e-05	5e-05	-1e-05	-5e-05	0.00022	0.00022	3
10667	-2e-05	-7e-05	-7e-05	5e-05	-1e-05	-5e-05	0.00022	0.00022	3
10668	-2e-05	-7e-05	-7e-05	5e-05	-1e-05	-5e-05	0.00022	0.00022	3
10669	-2e-05	-7e-05	-7e-05	5e-05	-1e-05	-5e-05	0.00022	0.00022	3
10670	-2e-05	-7e-05	-7e-05	5e-05	-1e-05	-5e-05	0.00022	0.00022	3
10671	-2e-05	-7e-05	-7e-05	5e-05	-1e-05	-5e-05	0.00022	0.00022	3
10672	-2e-05	-7e-05	-7e-05	5e-05	-1e-05	-5e-05	0.00022	0.00022	3
10673	-2e-05	-7e-05	-7e-05	5e-05	-1e-05	-5e-05	0.00022	0.00022	3
10674	-2e-05	-7e-05	-7e-05	5e-05	-1e-05	-5e-05	0.00022	0.00022	3
10675	-2e-05	-7e-05	-7e-05	5e-05	-1e-05	-5e-05	0.00022	0.00022	3
10676	-2e-05	-7e-05	-7e-05	5e-05	-1e-05	-5e-05	0.00022	0.00022	3
10677	-2e-05	-7e-05	-7e-05	5e-05	-1e-05	-5e-05	0.00022	0.00022	3
10678	-2e-05	-7e-05	-7e-05	5e-05	-1e-05	-5e-05	0.00022	0.00022	3
10679	-2e-05	-7e-05	-7e-05	5e-05	-1e-05	-5e-05	0.00022	0.00022	3
10680	-2e-05	-7e-05	-7e-05	5e-05	-1e-05	-5e-05	0.00022	0.00022	3
10681	0.00013	-4e-05	-6e-05	-6e-05	-0.00031	-0.00023	0.00046	0.00012	3
10682	6e-05	6e-05	3e-05	-2e-05	-8e-05	-9e-05	-0.00083	-0.00053	3
10683	6e-05	6e-05	3e-05	-2e-05	-8e-05	-9e-05	-0.00083	-0.00053	3
10684	6e-05	6e-05	3e-05	-2e-05	-8e-05	-9e-05	-0.00083	-0.00053	3
10685	6e-05	6e-05	3e-05	-2e-05	-8e-05	-9e-05	-0.00083	-0.00053	3
10686	6e-05	6e-05	3e-05	-2e-05	-8e-05	-9e-05	-0.00083	-0.00053	3
10688	6e-05	6e-05	3e-05	-2e-05	-8e-05	-9e-05	-0.00083	-0.00053	3
10689	6e-05	6e-05	3e-05	-2e-05	-8e-05	-9e-05	-0.00083	-0.00053	3
10690	6e-05	6e-05	3e-05	-2e-05	-8e-05	-9e-05	-0.00083	-0.00053	3
10691	6e-05	6e-05	3e-05	-2e-05	-8e-05	-9e-05	-0.00083	-0.00053	3
10692	6e-05	6e-05	3e-05	-2e-05	-8e-05	-9e-05	-0.00083	-0.00053	3
10693	6e-05	6e-05	3e-05	-2e-05	-8e-05	-9e-05	-0.00083	-0.00053	3
10694	6e-05	6e-05	3e-05	-2e-05	-8e-05	-9e-05	-0.00083	-0.00053	3
10695	6e-05	6e-05	3e-05	-2e-05	-8e-05	-9e-05	-0.00083	-0.00053	3
10696	0	-1e-05	-2e-05	-8e-05	-0.0003	-0.00027	-3e-05	6e-05	3
10697	0.00022	-1e-05	-4e-05	-0.00023	9e-05	-0.00034	0.00013	6e-05	3
10698	0.00022	-1e-05	-4e-05	-0.00023	9e-05	-0.00034	0.00013	6e-05	3
10699	0.00022	-1e-05	-4e-05	-0.00023	9e-05	-0.00034	0.00013	6e-05	3
10700	0.00022	-1e-05	-4e-05	-0.00023	9e-05	-0.00034	0.00013	6e-05	3
10701	0.00022	-1e-05	-4e-05	-0.00023	9e-05	-0.00034	0.00013	6e-05	3
10702	0.00022	-1e-05	-4e-05	-0.00023	9e-05	-0.00034	0.00013	6e-05	3
10703	0.00022	-1e-05	-4e-05	-0.00023	9e-05	-0.00034	0.00013	6e-05	3
10704	0.00022	-1e-05	-4e-05	-0.00023	9e-05	-0.00034	0.00013	6e-05	3
10705	0.00022	-1e-05	-4e-05	-0.00023	9e-05	-0.00034	0.00013	6e-05	3
10706	0.00022	-1e-05	-4e-05	-0.00023	9e-05	-0.00034	0.00013	6e-05	3
10707	0.00022	-1e-05	-4e-05	-0.00023	9e-05	-0.00034	0.00013	6e-05	3
10708	0.00022	-1e-05	-4e-05	-0.00023	9e-05	-0.00034	0.00013	6e-05	3
10709	0.00022	-1e-05	-4e-05	-0.00023	9e-05	-0.00034	0.00013	6e-05	3
10710	0.00015	2e-05	0	8e-05	0.00026	0.00019	0.00029	-6e-05	3
10711	0.00015	2e-05	0	8e-05	0.00026	0.00019	0.00029	-6e-05	3
10712	0.00015	2e-05	0	8e-05	0.00026	0.00019	0.00029	-6e-05	3
10713	0.00015	2e-05	0	8e-05	0.00026	0.00019	0.00029	-6e-05	3
10714	0.00015	2e-05	0	8e-05	0.00026	0.00019	0.00029	-6e-05	3
10715	0.00015	2e-05	0	8e-05	0.00026	0.00019	0.00029	-6e-05	3
10716	0.00015	2e-05	0	8e-05	0.00026	0.00019	0.00029	-6e-05	3
10717	0.00015	2e-05	0	8e-05	0.00026	0.00019	0.00029	-6e-05	3
10718	-0.00026	0	-8e-05	-0.00028	-0.00022	-2e-05	-4e-05	8e-05	3
10719	4e-05	-9e-05	-2e-05	0.0002	5e-05	0.00015	3e-05	0.00093	3
10720	4e-05	-9e-05	-2e-05	0.0002	5e-05	0.00015	3e-05	0.00093	3
10721	4e-05	-9e-05	-2e-05	0.0002	5e-05	0.00015	3e-05	0.00093	3
10722	4e-05	-9e-05	-2e-05	0.0002	5e-05	0.00015	3e-05	0.00093	3
10723	4e-05	-9e-05	-2e-05	0.0002	5e-05	0.00015	3e-05	0.00093	3
10724	4e-05	-9e-05	-2e-05	0.0002	5e-05	0.00015	3e-05	0.00093	3
10725	4e-05	-9e-05	-2e-05	0.0002	5e-05	0.00015	3e-05	0.00093	3
10726	4e-05	-9e-05	-2e-05	0.0002	5e-05	0.00015	3e-05	0.00093	3
10727	4e-05	-9e-05	-2e-05	0.0002	5e-05	0.00015	3e-05	0.00093	3
10728	4e-05	-9e-05	-2e-05	0.0002	5e-05	0.00015	3e-05	0.00093	3
10729	4e-05	-9e-05	-2e-05	0.0002	5e-05	0.00015	3e-05	0.00093	3
10730	4e-05	-9e-05	-2e-05	0.0002	5e-05	0.00015	3e-05	0.00093	3
10731	4e-05	-9e-05	-2e-05	0.0002	5e-05	0.00015	3e-05	0.00093	3
10732	4e-05	-9e-05	-2e-05	0.0002	5e-05	0.00015	3e-05	0.00093	3
10733	4e-05	-9e-05	-2e-05	0.0002	5e-05	0.00015	3e-05	0.00093	3
10734	4e-05	-9e-05	-2e-05	0.0002	5e-05	0.00015	3e-05	0.00093	3
10735	4e-05	-9e-05	-2e-05	0.0002	5e-05	0.00015	3e-05	0.00093	3
10736	4e-05	-9e-05	-2e-05	0.0002	5e-05	0.00015	3e-05	0.00093	3
10738	4e-05	-9e-05	-2e-05	0.0002	5e-05	0.00015	3e-05	0.00093	3
10739	4e-05	-9e-05	-2e-05	0.0002	5e-05	0.00015	3e-05	0.00093	3
10740	4e-05	-9e-05	-2e-05	0.0002	5e-05	0.00015	3e-05	0.00093	3
10741	-4e-05	-1e-05	-2e-05	-1e-05	1e-05	-0.00011	-8e-05	0.00033	3
10742	0.00025	8e-05	3e-05	5e-05	-0.00035	-0.00017	6e-05	0.0002	3
10743	0.00025	8e-05	3e-05	5e-05	-0.00035	-0.00017	6e-05	0.0002	3
10744	0.00025	8e-05	3e-05	5e-05	-0.00035	-0.00017	6e-05	0.0002	3
10745	0.00025	8e-05	3e-05	5e-05	-0.00035	-0.00017	6e-05	0.0002	3
10746	0.00025	8e-05	3e-05	5e-05	-0.00035	-0.00017	6e-05	0.0002	3
10747	0.00025	8e-05	3e-05	5e-05	-0.00035	-0.00017	6e-05	0.0002	3
10748	0.00025	8e-05	3e-05	5e-05	-0.00035	-0.00017	6e-05	0.0002	3
10749	0.00025	8e-05	3e-05	5e-05	-0.00035	-0.00017	6e-05	0.0002	3
10750	0.00025	8e-05	3e-05	5e-05	-0.00035	-0.00017	6e-05	0.0002	3
10751	0.00025	8e-05	3e-05	5e-05	-0.00035	-0.00017	6e-05	0.0002	3
10752	0.00025	8e-05	3e-05	5e-05	-0.00035	-0.00017	6e-05	0.0002	3
10753	0.00025	8e-05	3e-05	5e-05	-0.00035	-0.00017	6e-05	0.0002	3
10754	0.00025	8e-05	3e-05	5e-05	-0.00035	-0.00017	6e-05	0.0002	3
10755	0.00025	8e-05	3e-05	5e-05	-0.00035	-0.00017	6e-05	0.0002	3
10756	0.00025	8e-05	3e-05	5e-05	-0.00035	-0.00017	6e-05	0.0002	3
10757	0.00025	8e-05	3e-05	5e-05	-0.00035	-0.00017	6e-05	0.0002	3
10758	0.00025	8e-05	3e-05	5e-05	-0.00035	-0.00017	6e-05	0.0002	3
10759	0.00025	8e-05	3e-05	5e-05	-0.00035	-0.00017	6e-05	0.0002	3
10760	0.00025	8e-05	3e-05	5e-05	-0.00035	-0.00017	6e-05	0.0002	3
10761	0.00025	8e-05	3e-05	5e-05	-0.00035	-0.00017	6e-05	0.0002	3
10762	0.00025	8e-05	3e-05	5e-05	-0.00035	-0.00017	6e-05	0.0002	3
10763	0.00025	8e-05	3e-05	5e-05	-0.00035	-0.00017	6e-05	0.0002	3
10764	0.00015	1e-05	0	0	0.00028	5e-05	0.00034	0.00021	3
10765	-4e-05	-8e-05	1e-05	-9e-05	-7e-05	0.00034	-0.00021	-0.00059	3
10766	0.00031	0.00013	1e-05	-4e-05	-7e-05	-0.0001	0.00019	-0.00014	3
10767	0.00031	0.00013	1e-05	-4e-05	-7e-05	-0.0001	0.00019	-0.00014	3
10768	0.00031	0.00013	1e-05	-4e-05	-7e-05	-0.0001	0.00019	-0.00014	3
10769	0.0001	0	4e-05	-1e-05	0.0001	4e-05	-0.00038	0.00035	3
10770	0.0001	0	4e-05	-1e-05	0.0001	4e-05	-0.00038	0.00035	3
10771	0.0001	0	4e-05	-1e-05	0.0001	4e-05	-0.00038	0.00035	3
10772	0.0001	0	4e-05	-1e-05	0.0001	4e-05	-0.00038	0.00035	3
10773	0.0001	0	4e-05	-1e-05	0.0001	4e-05	-0.00038	0.00035	3
10774	0.0001	0	4e-05	-1e-05	0.0001	4e-05	-0.00038	0.00035	3
10775	0.0001	0	4e-05	-1e-05	0.0001	4e-05	-0.00038	0.00035	3
10776	0.0001	0	4e-05	-1e-05	0.0001	4e-05	-0.00038	0.00035	3
10777	0.0001	0	4e-05	-1e-05	0.0001	4e-05	-0.00038	0.00035	3
10778	-0.00014	-4e-05	0	1e-05	9e-05	0.00031	0.00032	0.00024	3
10779	-0.00014	-4e-05	0	1e-05	9e-05	0.00031	0.00032	0.00024	3
10780	-0.00014	-4e-05	0	1e-05	9e-05	0.00031	0.00032	0.00024	3
10781	-0.00014	-4e-05	0	1e-05	9e-05	0.00031	0.00032	0.00024	3
10782	-0.00014	-4e-05	0	1e-05	9e-05	0.00031	0.00032	0.00024	3
10783	-0.00014	-4e-05	0	1e-05	9e-05	0.00031	0.00032	0.00024	3
10784	-0.00014	-4e-05	0	1e-05	9e-05	0.00031	0.00032	0.00024	3
10785	-0.00014	-4e-05	0	1e-05	9e-05	0.00031	0.00032	0.00024	3
10786	-0.00014	-4e-05	0	1e-05	9e-05	0.00031	0.00032	0.00024	3
10788	-0.00014	-4e-05	0	1e-05	9e-05	0.00031	0.00032	0.00024	3
10789	-0.00014	-4e-05	0	1e-05	9e-05	0.00031	0.00032	0.00024	3
10790	-0.00014	-4e-05	0	1e-05	9e-05	0.00031	0.00032	0.00024	3
10791	-0.00014	-4e-05	0	1e-05	9e-05	0.00031	0.00032	0.00024	3
10792	-0.00014	-4e-05	0	1e-05	9e-05	0.00031	0.00032	0.00024	3
10793	-0.00014	-4e-05	0	1e-05	9e-05	0.00031	0.00032	0.00024	3
10794	3e-05	-4e-05	-4e-05	-0.00012	-0.00014	-0.00012	-0.00063	5e-05	3
10795	-5e-05	-0.00017	-3e-05	-0.00011	-0.00023	-0.00011	-0.00013	-0.00016	3
10796	-5e-05	-0.00017	-3e-05	-0.00011	-0.00023	-0.00011	-0.00013	-0.00016	3
10797	-5e-05	-0.00017	-3e-05	-0.00011	-0.00023	-0.00011	-0.00013	-0.00016	3
10798	-5e-05	-0.00017	-3e-05	-0.00011	-0.00023	-0.00011	-0.00013	-0.00016	3
10799	-5e-05	-0.00017	-3e-05	-0.00011	-0.00023	-0.00011	-0.00013	-0.00016	3
10800	-5e-05	-0.00017	-3e-05	-0.00011	-0.00023	-0.00011	-0.00013	-0.00016	3
10801	-5e-05	-0.00017	-3e-05	-0.00011	-0.00023	-0.00011	-0.00013	-0.00016	3
10802	-5e-05	-0.00017	-3e-05	-0.00011	-0.00023	-0.00011	-0.00013	-0.00016	3
10803	-5e-05	-0.00017	-3e-05	-0.00011	-0.00023	-0.00011	-0.00013	-0.00016	3
10804	-5e-05	-0.00017	-3e-05	-0.00011	-0.00023	-0.00011	-0.00013	-0.00016	3
10805	-5e-05	-0.00017	-3e-05	-0.00011	-0.00023	-0.00011	-0.00013	-0.00016	3
10806	-5e-05	-0.00017	-3e-05	-0.00011	-0.00023	-0.00011	-0.00013	-0.00016	3
10807	-5e-05	-0.00017	-3e-05	-0.00011	-0.00023	-0.00011	-0.00013	-0.00016	3
10808	-5e-05	-0.00017	-3e-05	-0.00011	-0.00023	-0.00011	-0.00013	-0.00016	3
10809	-5e-05	-0.00017	-3e-05	-0.00011	-0.00023	-0.00011	-0.00013	-0.00016	3
10810	-5e-05	-0.00017	-3e-05	-0.00011	-0.00023	-0.00011	-0.00013	-0.00016	3
10811	-5e-05	-0.00017	-3e-05	-0.00011	-0.00023	-0.00011	-0.00013	-0.00016	3
10812	-5e-05	-0.00017	-3e-05	-0.00011	-0.00023	-0.00011	-0.00013	-0.00016	3
10813	-5e-05	-0.00017	-3e-05	-0.00011	-0.00023	-0.00011	-0.00013	-0.00016	3
10814	-5e-05	-0.00017	-3e-05	-0.00011	-0.00023	-0.00011	-0.00013	-0.00016	3
10815	-5e-05	-0.00017	-3e-05	-0.00011	-0.00023	-0.00011	-0.00013	-0.00016	3
10816	-5e-05	-0.00017	-3e-05	-0.00011	-0.00023	-0.00011	-0.00013	-0.00016	3
10817	-5e-05	-0.00017	-3e-05	-0.00011	-0.00023	-0.00011	-0.00013	-0.00016	3
10818	-5e-05	-0.00017	-3e-05	-0.00011	-0.00023	-0.00011	-0.00013	-0.00016	3
10819	-5e-05	-0.00017	-3e-05	-0.00011	-0.00023	-0.00011	-0.00013	-0.00016	3
10820	-5e-05	-0.00017	-3e-05	-0.00011	-0.00023	-0.00011	-0.00013	-0.00016	3
10821	-5e-05	-0.00017	-3e-05	-0.00011	-0.00023	-0.00011	-0.00013	-0.00016	3
10822	-5e-05	-0.00017	-3e-05	-0.00011	-0.00023	-0.00011	-0.00013	-0.00016	3
10823	-1e-05	3e-05	-2e-05	-4e-05	8e-05	9e-05	0.00046	-0.00037	3
10824	-1e-05	3e-05	-2e-05	-4e-05	8e-05	9e-05	0.00046	-0.00037	3
10825	2e-05	-4e-05	-7e-05	5e-05	7e-05	-0.00013	0.00021	-0.0006	3
10826	2e-05	-4e-05	-7e-05	5e-05	7e-05	-0.00013	0.00021	-0.0006	3
10827	2e-05	-4e-05	-7e-05	5e-05	7e-05	-0.00013	0.00021	-0.0006	3
10828	2e-05	-4e-05	-7e-05	5e-05	7e-05	-0.00013	0.00021	-0.0006	3
10829	-0.00019	-4e-05	-2e-05	-9e-05	-0.0003	-0.00014	-1e-05	-8e-05	3
10830	-0.00019	-4e-05	-2e-05	-9e-05	-0.0003	-0.00014	-1e-05	-8e-05	3
10831	-0.00019	-4e-05	-2e-05	-9e-05	-0.0003	-0.00014	-1e-05	-8e-05	3
10832	-0.00019	-4e-05	-2e-05	-9e-05	-0.0003	-0.00014	-1e-05	-8e-05	3
10833	-0.00019	-4e-05	-2e-05	-9e-05	-0.0003	-0.00014	-1e-05	-8e-05	3
10834	-0.00019	-4e-05	-2e-05	-9e-05	-0.0003	-0.00014	-1e-05	-8e-05	3
10835	-0.00019	-4e-05	-2e-05	-9e-05	-0.0003	-0.00014	-1e-05	-8e-05	3
10836	-0.00019	-4e-05	-2e-05	-9e-05	-0.0003	-0.00014	-1e-05	-8e-05	3
10838	-0.00019	-4e-05	-2e-05	-9e-05	-0.0003	-0.00014	-1e-05	-8e-05	3
10839	-0.00019	-4e-05	-2e-05	-9e-05	-0.0003	-0.00014	-1e-05	-8e-05	3
10840	-0.00019	-4e-05	-2e-05	-9e-05	-0.0003	-0.00014	-1e-05	-8e-05	3
10841	-0.00019	-4e-05	-2e-05	-9e-05	-0.0003	-0.00014	-1e-05	-8e-05	3
10842	-0.00019	-4e-05	-2e-05	-9e-05	-0.0003	-0.00014	-1e-05	-8e-05	3
10843	-0.00019	-4e-05	-2e-05	-9e-05	-0.0003	-0.00014	-1e-05	-8e-05	3
10844	-0.00019	-4e-05	-2e-05	-9e-05	-0.0003	-0.00014	-1e-05	-8e-05	3
10845	-0.00019	-4e-05	-2e-05	-9e-05	-0.0003	-0.00014	-1e-05	-8e-05	3
10846	-0.00019	-4e-05	-2e-05	-9e-05	-0.0003	-0.00014	-1e-05	-8e-05	3
10847	-0.00019	-4e-05	-2e-05	-9e-05	-0.0003	-0.00014	-1e-05	-8e-05	3
10848	-0.00019	-4e-05	-2e-05	-9e-05	-0.0003	-0.00014	-1e-05	-8e-05	3
10849	-0.00019	-4e-05	-2e-05	-9e-05	-0.0003	-0.00014	-1e-05	-8e-05	3
10850	-0.00019	-4e-05	-2e-05	-9e-05	-0.0003	-0.00014	-1e-05	-8e-05	3
10851	-0.00019	-4e-05	-2e-05	-9e-05	-0.0003	-0.00014	-1e-05	-8e-05	3
10852	-0.00019	-4e-05	-2e-05	-9e-05	-0.0003	-0.00014	-1e-05	-8e-05	3
10853	-0.00019	-4e-05	-2e-05	-9e-05	-0.0003	-0.00014	-1e-05	-8e-05	3
10854	-0.0005	1e-05	-3e-05	-1e-05	-3e-05	0	-0.00014	9e-05	3
10855	-7e-05	-5e-05	1e-05	5e-05	-0.0001	5e-05	-0.00117	-0.00062	3
10856	-4e-05	1e-05	2e-05	1e-05	0.00023	4e-05	-0.00054	-3e-05	3
10857	-4e-05	1e-05	2e-05	1e-05	0.00023	4e-05	-0.00054	-3e-05	3
10858	-4e-05	1e-05	2e-05	1e-05	0.00023	4e-05	-0.00054	-3e-05	3
10859	-4e-05	1e-05	2e-05	1e-05	0.00023	4e-05	-0.00054	-3e-05	3
10860	-4e-05	1e-05	2e-05	1e-05	0.00023	4e-05	-0.00054	-3e-05	3
10861	-4e-05	1e-05	2e-05	1e-05	0.00023	4e-05	-0.00054	-3e-05	3
10862	-4e-05	1e-05	2e-05	1e-05	0.00023	4e-05	-0.00054	-3e-05	3
10863	-4e-05	1e-05	2e-05	1e-05	0.00023	4e-05	-0.00054	-3e-05	3
10864	-4e-05	1e-05	2e-05	1e-05	0.00023	4e-05	-0.00054	-3e-05	3
10865	-4e-05	1e-05	2e-05	1e-05	0.00023	4e-05	-0.00054	-3e-05	3
10866	-4e-05	1e-05	2e-05	1e-05	0.00023	4e-05	-0.00054	-3e-05	3
10867	-4e-05	1e-05	2e-05	1e-05	0.00023	4e-05	-0.00054	-3e-05	3
10868	-4e-05	1e-05	2e-05	1e-05	0.00023	4e-05	-0.00054	-3e-05	3
10869	-4e-05	1e-05	2e-05	1e-05	0.00023	4e-05	-0.00054	-3e-05	3
10870	-4e-05	1e-05	2e-05	1e-05	0.00023	4e-05	-0.00054	-3e-05	3
10871	-4e-05	1e-05	2e-05	1e-05	0.00023	4e-05	-0.00054	-3e-05	3
10872	-4e-05	1e-05	2e-05	1e-05	0.00023	4e-05	-0.00054	-3e-05	3
10873	-4e-05	1e-05	2e-05	1e-05	0.00023	4e-05	-0.00054	-3e-05	3
10874	-4e-05	1e-05	2e-05	1e-05	0.00023	4e-05	-0.00054	-3e-05	3
10875	-4e-05	1e-05	2e-05	1e-05	0.00023	4e-05	-0.00054	-3e-05	3
10876	-0.00012	0	0	2e-05	0.00011	0.00021	1e-05	7e-05	3
10877	-0.00012	0	0	2e-05	0.00011	0.00021	1e-05	7e-05	3
10878	-8e-05	1e-05	-1e-05	-4e-05	-0.00035	-0.00018	0.00037	0.00032	3
10879	-8e-05	1e-05	-1e-05	-4e-05	-0.00035	-0.00018	0.00037	0.00032	3
10880	-8e-05	1e-05	-1e-05	-4e-05	-0.00035	-0.00018	0.00037	0.00032	3
10881	-8e-05	1e-05	-1e-05	-4e-05	-0.00035	-0.00018	0.00037	0.00032	3
10882	-8e-05	1e-05	-1e-05	-4e-05	-0.00035	-0.00018	0.00037	0.00032	3
10883	-8e-05	1e-05	-1e-05	-4e-05	-0.00035	-0.00018	0.00037	0.00032	3
10884	-8e-05	1e-05	-1e-05	-4e-05	-0.00035	-0.00018	0.00037	0.00032	3
10885	-8e-05	1e-05	-1e-05	-4e-05	-0.00035	-0.00018	0.00037	0.00032	3
10886	-8e-05	1e-05	-1e-05	-4e-05	-0.00035	-0.00018	0.00037	0.00032	3
10888	-8e-05	1e-05	-1e-05	-4e-05	-0.00035	-0.00018	0.00037	0.00032	3
10889	0.00014	0.0001	8e-05	4e-05	-0.00011	-0.00027	-0.00072	-0.00013	3
10890	-0.00011	-6e-05	-1e-05	6e-05	0.00016	5e-05	9e-05	-7e-05	3
10891	-0.00011	-6e-05	-1e-05	6e-05	0.00016	5e-05	9e-05	-7e-05	3
10892	-0.00011	-6e-05	-1e-05	6e-05	0.00016	5e-05	9e-05	-7e-05	3
10893	-0.00011	-6e-05	-1e-05	6e-05	0.00016	5e-05	9e-05	-7e-05	3
10894	-0.00011	-6e-05	-1e-05	6e-05	0.00016	5e-05	9e-05	-7e-05	3
10895	-0.00011	-6e-05	-1e-05	6e-05	0.00016	5e-05	9e-05	-7e-05	3
10896	-0.00011	-6e-05	-1e-05	6e-05	0.00016	5e-05	9e-05	-7e-05	3
10897	-0.00011	-6e-05	-1e-05	6e-05	0.00016	5e-05	9e-05	-7e-05	3
10898	-0.00011	-6e-05	-1e-05	6e-05	0.00016	5e-05	9e-05	-7e-05	3
10899	-0.00011	-6e-05	-1e-05	6e-05	0.00016	5e-05	9e-05	-7e-05	3
10900	-0.00011	-6e-05	-1e-05	6e-05	0.00016	5e-05	9e-05	-7e-05	3
10901	-0.00011	-6e-05	-1e-05	6e-05	0.00016	5e-05	9e-05	-7e-05	3
10902	-0.00011	-6e-05	-1e-05	6e-05	0.00016	5e-05	9e-05	-7e-05	3
10903	-0.00011	-6e-05	-1e-05	6e-05	0.00016	5e-05	9e-05	-7e-05	3
10904	-0.00011	-6e-05	-1e-05	6e-05	0.00016	5e-05	9e-05	-7e-05	3
10905	-0.00011	-6e-05	-1e-05	6e-05	0.00016	5e-05	9e-05	-7e-05	3
10906	-0.00022	-3e-05	9e-05	0.00021	0.00041	0.00018	-9e-05	-0.00027	3
10907	-0.00022	-3e-05	9e-05	0.00021	0.00041	0.00018	-9e-05	-0.00027	3
10908	-0.00022	-3e-05	9e-05	0.00021	0.00041	0.00018	-9e-05	-0.00027	3
10909	-0.00022	-3e-05	9e-05	0.00021	0.00041	0.00018	-9e-05	-0.00027	3
10910	-0.00022	-3e-05	9e-05	0.00021	0.00041	0.00018	-9e-05	-0.00027	3
10911	-0.00022	-3e-05	9e-05	0.00021	0.00041	0.00018	-9e-05	-0.00027	3
10912	-0.00022	-3e-05	9e-05	0.00021	0.00041	0.00018	-9e-05	-0.00027	3
10913	-0.00027	-3e-05	-2e-05	-4e-05	-0.00015	-0.00028	-0.00038	-0.00053	3
10914	-0.00027	-3e-05	-2e-05	-4e-05	-0.00015	-0.00028	-0.00038	-0.00053	3
10915	-3e-05	1e-05	2e-05	-1e-05	-0.00025	-3e-05	0.00035	0.00012	3
10916	-3e-05	1e-05	2e-05	-1e-05	-0.00025	-3e-05	0.00035	0.00012	3
10917	-3e-05	1e-05	2e-05	-1e-05	-0.00025	-3e-05	0.00035	0.00012	3
10918	-3e-05	1e-05	2e-05	-1e-05	-0.00025	-3e-05	0.00035	0.00012	3
10919	-3e-05	1e-05	2e-05	-1e-05	-0.00025	-3e-05	0.00035	0.00012	3
10920	-3e-05	1e-05	2e-05	-1e-05	-0.00025	-3e-05	0.00035	0.00012	3
10921	-3e-05	1e-05	2e-05	-1e-05	-0.00025	-3e-05	0.00035	0.00012	3
10922	-3e-05	1e-05	2e-05	-1e-05	-0.00025	-3e-05	0.00035	0.00012	3
10923	-3e-05	1e-05	2e-05	-1e-05	-0.00025	-3e-05	0.00035	0.00012	3
10924	-3e-05	1e-05	2e-05	-1e-05	-0.00025	-3e-05	0.00035	0.00012	3
10925	-3e-05	1e-05	2e-05	-1e-05	-0.00025	-3e-05	0.00035	0.00012	3
10926	-3e-05	1e-05	2e-05	-1e-05	-0.00025	-3e-05	0.00035	0.00012	3
10927	-3e-05	1e-05	2e-05	-1e-05	-0.00025	-3e-05	0.00035	0.00012	3
10928	-3e-05	1e-05	2e-05	-1e-05	-0.00025	-3e-05	0.00035	0.00012	3
10929	-3e-05	1e-05	2e-05	-1e-05	-0.00025	-3e-05	0.00035	0.00012	3
10930	-3e-05	1e-05	2e-05	-1e-05	-0.00025	-3e-05	0.00035	0.00012	3
10931	-3e-05	1e-05	2e-05	-1e-05	-0.00025	-3e-05	0.00035	0.00012	3
10932	-3e-05	1e-05	2e-05	-1e-05	-0.00025	-3e-05	0.00035	0.00012	3
10933	-3e-05	1e-05	2e-05	-1e-05	-0.00025	-3e-05	0.00035	0.00012	3
10934	-3e-05	1e-05	2e-05	-1e-05	-0.00025	-3e-05	0.00035	0.00012	3
10935	-9e-05	-3e-05	-4e-05	6e-05	3e-05	-3e-05	-7e-05	0.00014	3
10936	0.00041	-5e-05	-3e-05	-3e-05	-7e-05	0.00024	0.00015	7e-05	3
10938	0.00041	-5e-05	-3e-05	-3e-05	-7e-05	0.00024	0.00015	7e-05	3
10939	0.00041	-5e-05	-3e-05	-3e-05	-7e-05	0.00024	0.00015	7e-05	3
10940	0.00041	-5e-05	-3e-05	-3e-05	-7e-05	0.00024	0.00015	7e-05	3
10941	0.00041	-5e-05	-3e-05	-3e-05	-7e-05	0.00024	0.00015	7e-05	3
10942	3e-05	-2e-05	-8e-05	-4e-05	9e-05	0.00012	0.00057	6e-05	3
10943	3e-05	-2e-05	-8e-05	-4e-05	9e-05	0.00012	0.00057	6e-05	3
10944	3e-05	-2e-05	-8e-05	-4e-05	9e-05	0.00012	0.00057	6e-05	3
10945	3e-05	-2e-05	-8e-05	-4e-05	9e-05	0.00012	0.00057	6e-05	3
10946	3e-05	-2e-05	-8e-05	-4e-05	9e-05	0.00012	0.00057	6e-05	3
10947	3e-05	-2e-05	-8e-05	-4e-05	9e-05	0.00012	0.00057	6e-05	3
10948	3e-05	-2e-05	-8e-05	-4e-05	9e-05	0.00012	0.00057	6e-05	3
10949	3e-05	-2e-05	-8e-05	-4e-05	9e-05	0.00012	0.00057	6e-05	3
10950	3e-05	-2e-05	-8e-05	-4e-05	9e-05	0.00012	0.00057	6e-05	3
10951	3e-05	-2e-05	-8e-05	-4e-05	9e-05	0.00012	0.00057	6e-05	3
10952	3e-05	-2e-05	-8e-05	-4e-05	9e-05	0.00012	0.00057	6e-05	3
10953	3e-05	-2e-05	-8e-05	-4e-05	9e-05	0.00012	0.00057	6e-05	3
10954	3e-05	-2e-05	-8e-05	-4e-05	9e-05	0.00012	0.00057	6e-05	3
10955	3e-05	-2e-05	-8e-05	-4e-05	9e-05	0.00012	0.00057	6e-05	3
10956	3e-05	-2e-05	-8e-05	-4e-05	9e-05	0.00012	0.00057	6e-05	3
10957	3e-05	-2e-05	-8e-05	-4e-05	9e-05	0.00012	0.00057	6e-05	3
10958	0.00012	3e-05	-7e-05	-1e-05	0.0001	-8e-05	0.00018	0.00017	3
10959	0.00012	3e-05	-7e-05	-1e-05	0.0001	-8e-05	0.00018	0.00017	3
10960	9e-05	-7e-05	-5e-05	-3e-05	0.00064	4e-05	-0.00031	-0.0001	3
10961	9e-05	-7e-05	-5e-05	-3e-05	0.00064	4e-05	-0.00031	-0.0001	3
10962	9e-05	-7e-05	-5e-05	-3e-05	0.00064	4e-05	-0.00031	-0.0001	3
10963	9e-05	-7e-05	-5e-05	-3e-05	0.00064	4e-05	-0.00031	-0.0001	3
10964	9e-05	-7e-05	-5e-05	-3e-05	0.00064	4e-05	-0.00031	-0.0001	3
10965	9e-05	-7e-05	-5e-05	-3e-05	0.00064	4e-05	-0.00031	-0.0001	3
10966	9e-05	-7e-05	-5e-05	-3e-05	0.00064	4e-05	-0.00031	-0.0001	3
10967	9e-05	-7e-05	-5e-05	-3e-05	0.00064	4e-05	-0.00031	-0.0001	3
10968	9e-05	-7e-05	-5e-05	-3e-05	0.00064	4e-05	-0.00031	-0.0001	3
10969	9e-05	-7e-05	-5e-05	-3e-05	0.00064	4e-05	-0.00031	-0.0001	3
10970	9e-05	-7e-05	-5e-05	-3e-05	0.00064	4e-05	-0.00031	-0.0001	3
10971	9e-05	-7e-05	-5e-05	-3e-05	0.00064	4e-05	-0.00031	-0.0001	3
10972	9e-05	-7e-05	-5e-05	-3e-05	0.00064	4e-05	-0.00031	-0.0001	3
10973	-0.00061	-9e-05	-3e-05	-0.0001	-0.00012	3e-05	0.00033	-1e-05	3
10974	-0.00061	-9e-05	-3e-05	-0.0001	-0.00012	3e-05	0.00033	-1e-05	3
10975	-0.00049	-0.00013	-7e-05	-0.00013	-0.00031	-0.0002	0.00019	2e-05	3
10976	-0.00049	-0.00013	-7e-05	-0.00013	-0.00031	-0.0002	0.00019	2e-05	3
10977	-0.00049	-0.00013	-7e-05	-0.00013	-0.00031	-0.0002	0.00019	2e-05	3
10978	-0.00049	-0.00013	-7e-05	-0.00013	-0.00031	-0.0002	0.00019	2e-05	3
10979	-0.00049	-0.00013	-7e-05	-0.00013	-0.00031	-0.0002	0.00019	2e-05	3
10980	-0.00049	-0.00013	-7e-05	-0.00013	-0.00031	-0.0002	0.00019	2e-05	3
10981	-0.00049	-0.00013	-7e-05	-0.00013	-0.00031	-0.0002	0.00019	2e-05	3
10982	-0.00049	-0.00013	-7e-05	-0.00013	-0.00031	-0.0002	0.00019	2e-05	3
10983	-0.00049	-0.00013	-7e-05	-0.00013	-0.00031	-0.0002	0.00019	2e-05	3
10984	-0.00049	-0.00013	-7e-05	-0.00013	-0.00031	-0.0002	0.00019	2e-05	3
10985	-0.00049	-0.00013	-7e-05	-0.00013	-0.00031	-0.0002	0.00019	2e-05	3
10986	-0.00049	-0.00013	-7e-05	-0.00013	-0.00031	-0.0002	0.00019	2e-05	3
10988	-0.00049	-0.00013	-7e-05	-0.00013	-0.00031	-0.0002	0.00019	2e-05	3
10989	-0.00049	-0.00013	-7e-05	-0.00013	-0.00031	-0.0002	0.00019	2e-05	3
10990	-0.00049	-0.00013	-7e-05	-0.00013	-0.00031	-0.0002	0.00019	2e-05	3
10991	-0.00049	-0.00013	-7e-05	-0.00013	-0.00031	-0.0002	0.00019	2e-05	3
10992	-0.00049	-0.00013	-7e-05	-0.00013	-0.00031	-0.0002	0.00019	2e-05	3
10993	-0.00049	-0.00013	-7e-05	-0.00013	-0.00031	-0.0002	0.00019	2e-05	3
10994	-0.00049	-0.00013	-7e-05	-0.00013	-0.00031	-0.0002	0.00019	2e-05	3
10995	-0.00049	-0.00013	-7e-05	-0.00013	-0.00031	-0.0002	0.00019	2e-05	3
10996	0.00015	4e-05	-2e-05	-6e-05	3e-05	-0.00012	-0.0004	-0.00047	3
10997	0.00027	4e-05	2e-05	1e-05	0.00012	-7e-05	-4e-05	1e-05	3
10998	0.00027	4e-05	2e-05	1e-05	0.00012	-7e-05	-4e-05	1e-05	3
10999	0.00027	4e-05	2e-05	1e-05	0.00012	-7e-05	-4e-05	1e-05	3
11000	0.00027	4e-05	2e-05	1e-05	0.00012	-7e-05	-4e-05	1e-05	3
11001	0.00027	4e-05	2e-05	1e-05	0.00012	-7e-05	-4e-05	1e-05	3
11002	0.00027	4e-05	2e-05	1e-05	0.00012	-7e-05	-4e-05	1e-05	3
11003	0.00027	4e-05	2e-05	1e-05	0.00012	-7e-05	-4e-05	1e-05	3
11004	0.00027	4e-05	2e-05	1e-05	0.00012	-7e-05	-4e-05	1e-05	3
11005	0.00027	4e-05	2e-05	1e-05	0.00012	-7e-05	-4e-05	1e-05	3
11006	0.00027	4e-05	2e-05	1e-05	0.00012	-7e-05	-4e-05	1e-05	3
11007	0.00027	4e-05	2e-05	1e-05	0.00012	-7e-05	-4e-05	1e-05	3
11008	0.00027	4e-05	2e-05	1e-05	0.00012	-7e-05	-4e-05	1e-05	3
11009	4e-05	1e-05	-4e-05	-0.00023	-0.00021	0.00016	-0.0001	9e-05	3
11010	4e-05	1e-05	-4e-05	-0.00023	-0.00021	0.00016	-0.0001	9e-05	3
11011	4e-05	1e-05	-4e-05	-0.00023	-0.00021	0.00016	-0.0001	9e-05	3
11012	4e-05	1e-05	-4e-05	-0.00023	-0.00021	0.00016	-0.0001	9e-05	3
11013	4e-05	1e-05	-4e-05	-0.00023	-0.00021	0.00016	-0.0001	9e-05	3
11014	4e-05	1e-05	-4e-05	-0.00023	-0.00021	0.00016	-0.0001	9e-05	3
11015	4e-05	1e-05	-4e-05	-0.00023	-0.00021	0.00016	-0.0001	9e-05	3
11016	4e-05	1e-05	-4e-05	-0.00023	-0.00021	0.00016	-0.0001	9e-05	3
11017	4e-05	1e-05	-4e-05	-0.00023	-0.00021	0.00016	-0.0001	9e-05	3
11018	-0.00046	-2e-05	-1e-05	1e-05	-0.00019	9e-05	-0.00013	-5e-05	3
11019	-0.00046	-2e-05	-1e-05	1e-05	-0.00019	9e-05	-0.00013	-5e-05	3
11020	-0.00046	-2e-05	-1e-05	1e-05	-0.00019	9e-05	-0.00013	-5e-05	3
11021	-0.00046	-2e-05	-1e-05	1e-05	-0.00019	9e-05	-0.00013	-5e-05	3
11022	-0.00046	-2e-05	-1e-05	1e-05	-0.00019	9e-05	-0.00013	-5e-05	3
11023	-0.00046	-2e-05	-1e-05	1e-05	-0.00019	9e-05	-0.00013	-5e-05	3
11024	-0.00046	-2e-05	-1e-05	1e-05	-0.00019	9e-05	-0.00013	-5e-05	3
11025	-0.00046	-2e-05	-1e-05	1e-05	-0.00019	9e-05	-0.00013	-5e-05	3
11026	-0.00046	-2e-05	-1e-05	1e-05	-0.00019	9e-05	-0.00013	-5e-05	3
11027	-0.00046	-2e-05	-1e-05	1e-05	-0.00019	9e-05	-0.00013	-5e-05	3
11028	-0.00046	-2e-05	-1e-05	1e-05	-0.00019	9e-05	-0.00013	-5e-05	3
11029	-0.00046	-2e-05	-1e-05	1e-05	-0.00019	9e-05	-0.00013	-5e-05	3
11030	-0.00046	-2e-05	-1e-05	1e-05	-0.00019	9e-05	-0.00013	-5e-05	3
11031	-0.00046	-2e-05	-1e-05	1e-05	-0.00019	9e-05	-0.00013	-5e-05	3
11032	-0.00046	-2e-05	-1e-05	1e-05	-0.00019	9e-05	-0.00013	-5e-05	3
11033	-0.00046	-2e-05	-1e-05	1e-05	-0.00019	9e-05	-0.00013	-5e-05	3
11034	-0.00046	-2e-05	-1e-05	1e-05	-0.00019	9e-05	-0.00013	-5e-05	3
11035	-0.00046	-2e-05	-1e-05	1e-05	-0.00019	9e-05	-0.00013	-5e-05	3
11036	-0.00046	-2e-05	-1e-05	1e-05	-0.00019	9e-05	-0.00013	-5e-05	3
11038	-0.00046	-2e-05	-1e-05	1e-05	-0.00019	9e-05	-0.00013	-5e-05	3
11039	-0.00046	-2e-05	-1e-05	1e-05	-0.00019	9e-05	-0.00013	-5e-05	3
11040	-0.00046	-2e-05	-1e-05	1e-05	-0.00019	9e-05	-0.00013	-5e-05	3
11041	0.00019	-2e-05	-1e-05	4e-05	-0.00024	-0.00019	0.00021	-0.00032	3
11042	0.00015	2e-05	-1e-05	7e-05	0.00043	8e-05	0	0.00015	3
11043	0.00018	7e-05	5e-05	-5e-05	0.00021	6e-05	0.00018	0.0001	3
11044	0.00018	7e-05	5e-05	-5e-05	0.00021	6e-05	0.00018	0.0001	3
11045	0.00018	7e-05	5e-05	-5e-05	0.00021	6e-05	0.00018	0.0001	3
11046	0.00018	7e-05	5e-05	-5e-05	0.00021	6e-05	0.00018	0.0001	3
11047	0.00018	7e-05	5e-05	-5e-05	0.00021	6e-05	0.00018	0.0001	3
11048	0.00018	7e-05	5e-05	-5e-05	0.00021	6e-05	0.00018	0.0001	3
11049	0.00018	7e-05	5e-05	-5e-05	0.00021	6e-05	0.00018	0.0001	3
11050	0.00018	7e-05	5e-05	-5e-05	0.00021	6e-05	0.00018	0.0001	3
11051	0.00018	7e-05	5e-05	-5e-05	0.00021	6e-05	0.00018	0.0001	3
11052	0.00018	7e-05	5e-05	-5e-05	0.00021	6e-05	0.00018	0.0001	3
11053	0.00018	7e-05	5e-05	-5e-05	0.00021	6e-05	0.00018	0.0001	3
11054	0.00018	7e-05	5e-05	-5e-05	0.00021	6e-05	0.00018	0.0001	3
11055	0.00022	3e-05	1e-05	3e-05	-0.00042	-0.00014	0.00018	0.0001	3
11056	0.0005	2e-05	8e-05	0.00017	-0.00047	-0.00012	-9e-05	0.00039	3
11057	0.0005	2e-05	8e-05	0.00017	-0.00047	-0.00012	-9e-05	0.00039	3
11058	0.0005	2e-05	8e-05	0.00017	-0.00047	-0.00012	-9e-05	0.00039	3
11059	0.0005	2e-05	8e-05	0.00017	-0.00047	-0.00012	-9e-05	0.00039	3
11060	0.0005	2e-05	8e-05	0.00017	-0.00047	-0.00012	-9e-05	0.00039	3
11061	0.0005	2e-05	8e-05	0.00017	-0.00047	-0.00012	-9e-05	0.00039	3
11062	0.0005	2e-05	8e-05	0.00017	-0.00047	-0.00012	-9e-05	0.00039	3
11063	0.0005	2e-05	8e-05	0.00017	-0.00047	-0.00012	-9e-05	0.00039	3
11064	0.0005	2e-05	8e-05	0.00017	-0.00047	-0.00012	-9e-05	0.00039	3
11065	0.0005	2e-05	8e-05	0.00017	-0.00047	-0.00012	-9e-05	0.00039	3
11066	0.0005	2e-05	8e-05	0.00017	-0.00047	-0.00012	-9e-05	0.00039	3
11067	0.0005	2e-05	8e-05	0.00017	-0.00047	-0.00012	-9e-05	0.00039	3
11068	0.0005	2e-05	8e-05	0.00017	-0.00047	-0.00012	-9e-05	0.00039	3
11069	0.0005	2e-05	8e-05	0.00017	-0.00047	-0.00012	-9e-05	0.00039	3
11070	0.0005	2e-05	8e-05	0.00017	-0.00047	-0.00012	-9e-05	0.00039	3
11071	0.0005	2e-05	8e-05	0.00017	-0.00047	-0.00012	-9e-05	0.00039	3
11072	0.0005	2e-05	8e-05	0.00017	-0.00047	-0.00012	-9e-05	0.00039	3
11073	0.0005	2e-05	8e-05	0.00017	-0.00047	-0.00012	-9e-05	0.00039	3
11074	0.0005	2e-05	8e-05	0.00017	-0.00047	-0.00012	-9e-05	0.00039	3
11075	0.0005	2e-05	8e-05	0.00017	-0.00047	-0.00012	-9e-05	0.00039	3
11076	0.0005	2e-05	8e-05	0.00017	-0.00047	-0.00012	-9e-05	0.00039	3
11077	0.0005	2e-05	8e-05	0.00017	-0.00047	-0.00012	-9e-05	0.00039	3
11078	4e-05	5e-05	0	2e-05	8e-05	-0.00012	0.00012	0.00025	3
11079	0.00012	6e-05	-0.0001	1e-05	0.00017	6e-05	-7e-05	-3e-05	3
11080	0.00012	6e-05	-0.0001	1e-05	0.00017	6e-05	-7e-05	-3e-05	3
11081	0.00012	6e-05	-0.0001	1e-05	0.00017	6e-05	-7e-05	-3e-05	3
11082	0.00012	6e-05	-0.0001	1e-05	0.00017	6e-05	-7e-05	-3e-05	3
11083	0.00012	6e-05	-0.0001	1e-05	0.00017	6e-05	-7e-05	-3e-05	3
11084	0.00012	6e-05	-0.0001	1e-05	0.00017	6e-05	-7e-05	-3e-05	3
11085	0.00012	6e-05	-0.0001	1e-05	0.00017	6e-05	-7e-05	-3e-05	3
11086	0.00012	6e-05	-0.0001	1e-05	0.00017	6e-05	-7e-05	-3e-05	3
11088	0.00012	6e-05	-0.0001	1e-05	0.00017	6e-05	-7e-05	-3e-05	3
11089	0.00012	6e-05	-0.0001	1e-05	0.00017	6e-05	-7e-05	-3e-05	3
11090	0.00012	6e-05	-0.0001	1e-05	0.00017	6e-05	-7e-05	-3e-05	3
11091	0.00012	6e-05	-0.0001	1e-05	0.00017	6e-05	-7e-05	-3e-05	3
11092	0.00012	6e-05	-0.0001	1e-05	0.00017	6e-05	-7e-05	-3e-05	3
11093	0.00012	6e-05	-0.0001	1e-05	0.00017	6e-05	-7e-05	-3e-05	3
11094	0.00012	6e-05	-0.0001	1e-05	0.00017	6e-05	-7e-05	-3e-05	3
11095	0.00012	6e-05	-0.0001	1e-05	0.00017	6e-05	-7e-05	-3e-05	3
11096	0.00012	6e-05	-0.0001	1e-05	0.00017	6e-05	-7e-05	-3e-05	3
11097	0.00012	6e-05	-0.0001	1e-05	0.00017	6e-05	-7e-05	-3e-05	3
11098	0.00012	6e-05	-0.0001	1e-05	0.00017	6e-05	-7e-05	-3e-05	3
11099	0.00012	6e-05	-0.0001	1e-05	0.00017	6e-05	-7e-05	-3e-05	3
11100	0.00012	6e-05	-0.0001	1e-05	0.00017	6e-05	-7e-05	-3e-05	3
11101	0.00013	-1e-05	-2e-05	5e-05	0.00011	0.0002	-5e-05	0	3
11102	-0.00018	-6e-05	-2e-05	-0.00012	-0.00046	-0.0001	0.00019	-3e-05	3
11103	-0.00018	-6e-05	-2e-05	-0.00012	-0.00046	-0.0001	0.00019	-3e-05	3
11104	-0.00018	-6e-05	-2e-05	-0.00012	-0.00046	-0.0001	0.00019	-3e-05	3
11105	-0.00018	-6e-05	-2e-05	-0.00012	-0.00046	-0.0001	0.00019	-3e-05	3
11106	-0.00018	-6e-05	-2e-05	-0.00012	-0.00046	-0.0001	0.00019	-3e-05	3
11107	-0.00018	-6e-05	-2e-05	-0.00012	-0.00046	-0.0001	0.00019	-3e-05	3
11108	-0.00018	-6e-05	-2e-05	-0.00012	-0.00046	-0.0001	0.00019	-3e-05	3
11109	-0.00018	-6e-05	-2e-05	-0.00012	-0.00046	-0.0001	0.00019	-3e-05	3
11110	-0.00018	-6e-05	-2e-05	-0.00012	-0.00046	-0.0001	0.00019	-3e-05	3
11111	-0.00018	-6e-05	-2e-05	-0.00012	-0.00046	-0.0001	0.00019	-3e-05	3
11112	-0.00018	-6e-05	-2e-05	-0.00012	-0.00046	-0.0001	0.00019	-3e-05	3
11113	-0.00018	-6e-05	-2e-05	-0.00012	-0.00046	-0.0001	0.00019	-3e-05	3
11114	-0.00018	-6e-05	-2e-05	-0.00012	-0.00046	-0.0001	0.00019	-3e-05	3
11115	4e-05	5e-05	-1e-05	6e-05	-8e-05	-7e-05	-0.00041	-0.00033	3
11116	0.00012	6e-05	7e-05	0.00024	0.00024	0.00014	0.0003	0.00034	3
11117	0.00012	6e-05	7e-05	0.00024	0.00024	0.00014	0.0003	0.00034	3
11118	0.00012	6e-05	7e-05	0.00024	0.00024	0.00014	0.0003	0.00034	3
11119	0.00012	6e-05	7e-05	0.00024	0.00024	0.00014	0.0003	0.00034	3
11120	0.00012	6e-05	7e-05	0.00024	0.00024	0.00014	0.0003	0.00034	3
11121	0.00012	6e-05	7e-05	0.00024	0.00024	0.00014	0.0003	0.00034	3
11122	-9e-05	1e-05	-1e-05	5e-05	0.00027	6e-05	-9e-05	0.00022	3
11123	-9e-05	1e-05	-1e-05	5e-05	0.00027	6e-05	-9e-05	0.00022	3
11124	-9e-05	1e-05	-1e-05	5e-05	0.00027	6e-05	-9e-05	0.00022	3
11125	-9e-05	1e-05	-1e-05	5e-05	0.00027	6e-05	-9e-05	0.00022	3
11126	-9e-05	1e-05	-1e-05	5e-05	0.00027	6e-05	-9e-05	0.00022	3
11127	-9e-05	1e-05	-1e-05	5e-05	0.00027	6e-05	-9e-05	0.00022	3
11128	-9e-05	1e-05	-1e-05	5e-05	0.00027	6e-05	-9e-05	0.00022	3
11129	-9e-05	1e-05	-1e-05	5e-05	0.00027	6e-05	-9e-05	0.00022	3
11130	-9e-05	1e-05	-1e-05	5e-05	0.00027	6e-05	-9e-05	0.00022	3
11131	-9e-05	1e-05	-1e-05	5e-05	0.00027	6e-05	-9e-05	0.00022	3
11132	-9e-05	1e-05	-1e-05	5e-05	0.00027	6e-05	-9e-05	0.00022	3
11133	-9e-05	1e-05	-1e-05	5e-05	0.00027	6e-05	-9e-05	0.00022	3
11134	-9e-05	1e-05	-1e-05	5e-05	0.00027	6e-05	-9e-05	0.00022	3
11135	-9e-05	1e-05	-1e-05	5e-05	0.00027	6e-05	-9e-05	0.00022	3
11136	-9e-05	1e-05	-1e-05	5e-05	0.00027	6e-05	-9e-05	0.00022	3
11138	-0.00027	-4e-05	1e-05	2e-05	-0.00019	-0.00018	0.00021	0.00024	3
11139	-0.00027	-8e-05	-1e-05	5e-05	0.0002	-5e-05	-0.00027	0	3
11140	-0.00027	-8e-05	-1e-05	5e-05	0.0002	-5e-05	-0.00027	0	3
11141	-0.00027	-8e-05	-1e-05	5e-05	0.0002	-5e-05	-0.00027	0	3
11142	-0.00027	-8e-05	-1e-05	5e-05	0.0002	-5e-05	-0.00027	0	3
11143	-0.00027	-8e-05	-1e-05	5e-05	0.0002	-5e-05	-0.00027	0	3
11144	-0.00027	-8e-05	-1e-05	5e-05	0.0002	-5e-05	-0.00027	0	3
11145	-0.00027	-8e-05	-1e-05	5e-05	0.0002	-5e-05	-0.00027	0	3
11146	-0.00027	-8e-05	-1e-05	5e-05	0.0002	-5e-05	-0.00027	0	3
11147	-0.00027	-8e-05	-1e-05	5e-05	0.0002	-5e-05	-0.00027	0	3
11148	-0.00027	-8e-05	-1e-05	5e-05	0.0002	-5e-05	-0.00027	0	3
11149	-0.00027	-8e-05	-1e-05	5e-05	0.0002	-5e-05	-0.00027	0	3
11150	-0.00027	-8e-05	-1e-05	5e-05	0.0002	-5e-05	-0.00027	0	3
11151	-0.00027	-8e-05	-1e-05	5e-05	0.0002	-5e-05	-0.00027	0	3
11152	-0.00027	-8e-05	-1e-05	5e-05	0.0002	-5e-05	-0.00027	0	3
11153	-0.00027	-8e-05	-1e-05	5e-05	0.0002	-5e-05	-0.00027	0	3
11154	-0.00021	-6e-05	-2e-05	1e-05	5e-05	8e-05	0.00029	0.00018	3
11155	0.00013	4e-05	-4e-05	-0.00017	-0.00057	-0.0002	0.00027	-0.00017	3
11156	0.00013	4e-05	-4e-05	-0.00017	-0.00057	-0.0002	0.00027	-0.00017	3
11157	0.00013	4e-05	-4e-05	-0.00017	-0.00057	-0.0002	0.00027	-0.00017	3
11158	0.00013	4e-05	-4e-05	-0.00017	-0.00057	-0.0002	0.00027	-0.00017	3
11159	0.00013	4e-05	-4e-05	-0.00017	-0.00057	-0.0002	0.00027	-0.00017	3
11160	0.00013	4e-05	-4e-05	-0.00017	-0.00057	-0.0002	0.00027	-0.00017	3
11161	0.00013	4e-05	-4e-05	-0.00017	-0.00057	-0.0002	0.00027	-0.00017	3
11162	0.00013	4e-05	-4e-05	-0.00017	-0.00057	-0.0002	0.00027	-0.00017	3
11163	0.00013	4e-05	-4e-05	-0.00017	-0.00057	-0.0002	0.00027	-0.00017	3
11164	0.00013	4e-05	-4e-05	-0.00017	-0.00057	-0.0002	0.00027	-0.00017	3
11165	0.00013	4e-05	-4e-05	-0.00017	-0.00057	-0.0002	0.00027	-0.00017	3
11166	0.00013	4e-05	-4e-05	-0.00017	-0.00057	-0.0002	0.00027	-0.00017	3
11167	0.00013	4e-05	-4e-05	-0.00017	-0.00057	-0.0002	0.00027	-0.00017	3
11168	0.00013	4e-05	-4e-05	-0.00017	-0.00057	-0.0002	0.00027	-0.00017	3
11169	0.00013	4e-05	-4e-05	-0.00017	-0.00057	-0.0002	0.00027	-0.00017	3
11170	0.00013	4e-05	-4e-05	-0.00017	-0.00057	-0.0002	0.00027	-0.00017	3
11171	0.00013	4e-05	-4e-05	-0.00017	-0.00057	-0.0002	0.00027	-0.00017	3
11172	0.00013	4e-05	-4e-05	-0.00017	-0.00057	-0.0002	0.00027	-0.00017	3
11173	0.00013	4e-05	-4e-05	-0.00017	-0.00057	-0.0002	0.00027	-0.00017	3
11174	0.00013	4e-05	-4e-05	-0.00017	-0.00057	-0.0002	0.00027	-0.00017	3
11175	0.00013	4e-05	-4e-05	-0.00017	-0.00057	-0.0002	0.00027	-0.00017	3
11176	0.00013	4e-05	-4e-05	-0.00017	-0.00057	-0.0002	0.00027	-0.00017	3
11177	0.00013	4e-05	-4e-05	-0.00017	-0.00057	-0.0002	0.00027	-0.00017	3
11178	0.00013	4e-05	-4e-05	-0.00017	-0.00057	-0.0002	0.00027	-0.00017	3
11179	0.00013	4e-05	-4e-05	-0.00017	-0.00057	-0.0002	0.00027	-0.00017	3
11180	0.00013	4e-05	-4e-05	-0.00017	-0.00057	-0.0002	0.00027	-0.00017	3
11181	0.00013	4e-05	-4e-05	-0.00017	-0.00057	-0.0002	0.00027	-0.00017	3
11182	0.00013	4e-05	-4e-05	-0.00017	-0.00057	-0.0002	0.00027	-0.00017	3
11183	-0.00013	1e-05	3e-05	-2e-05	-1e-05	0.00018	8e-05	-0.00024	3
11184	1e-05	-0.00011	-3e-05	-4e-05	-0.00013	1e-05	0.0002	-0.00011	3
11185	1e-05	-0.00011	-3e-05	-4e-05	-0.00013	1e-05	0.0002	-0.00011	3
11186	1e-05	-0.00011	-3e-05	-4e-05	-0.00013	1e-05	0.0002	-0.00011	3
11188	1e-05	-0.00011	-3e-05	-4e-05	-0.00013	1e-05	0.0002	-0.00011	3
11189	1e-05	-0.00011	-3e-05	-4e-05	-0.00013	1e-05	0.0002	-0.00011	3
11190	1e-05	-0.00011	-3e-05	-4e-05	-0.00013	1e-05	0.0002	-0.00011	3
11191	1e-05	-0.00011	-3e-05	-4e-05	-0.00013	1e-05	0.0002	-0.00011	3
11192	1e-05	-0.00011	-3e-05	-4e-05	-0.00013	1e-05	0.0002	-0.00011	3
11193	1e-05	-0.00011	-3e-05	-4e-05	-0.00013	1e-05	0.0002	-0.00011	3
11194	1e-05	-0.00011	-3e-05	-4e-05	-0.00013	1e-05	0.0002	-0.00011	3
11195	1e-05	-0.00011	-3e-05	-4e-05	-0.00013	1e-05	0.0002	-0.00011	3
11196	1e-05	-0.00011	-3e-05	-4e-05	-0.00013	1e-05	0.0002	-0.00011	3
11197	1e-05	-0.00011	-3e-05	-4e-05	-0.00013	1e-05	0.0002	-0.00011	3
11198	0.00022	-2e-05	-3e-05	-3e-05	-2e-05	-0.0001	-7e-05	5e-05	3
11199	0.00022	-2e-05	-3e-05	-3e-05	-2e-05	-0.0001	-7e-05	5e-05	3
11200	0.00022	-2e-05	-3e-05	-3e-05	-2e-05	-0.0001	-7e-05	5e-05	3
11201	0.00022	-2e-05	-3e-05	-3e-05	-2e-05	-0.0001	-7e-05	5e-05	3
11202	0.00022	-2e-05	-3e-05	-3e-05	-2e-05	-0.0001	-7e-05	5e-05	3
11203	0.00022	-2e-05	-3e-05	-3e-05	-2e-05	-0.0001	-7e-05	5e-05	3
11204	0.00022	-2e-05	-3e-05	-3e-05	-2e-05	-0.0001	-7e-05	5e-05	3
11205	0.00022	-2e-05	-3e-05	-3e-05	-2e-05	-0.0001	-7e-05	5e-05	3
11206	-4e-05	-2e-05	-5e-05	-0.00017	0.00028	0.00039	-0.00012	0.00017	3
11207	-4e-05	-2e-05	-5e-05	-0.00017	0.00028	0.00039	-0.00012	0.00017	3
11208	-4e-05	-2e-05	-5e-05	-0.00017	0.00028	0.00039	-0.00012	0.00017	3
11209	-4e-05	-2e-05	-5e-05	-0.00017	0.00028	0.00039	-0.00012	0.00017	3
11210	-4e-05	-2e-05	-5e-05	-0.00017	0.00028	0.00039	-0.00012	0.00017	3
11211	-4e-05	-2e-05	-5e-05	-0.00017	0.00028	0.00039	-0.00012	0.00017	3
11212	-4e-05	-2e-05	-5e-05	-0.00017	0.00028	0.00039	-0.00012	0.00017	3
11213	0.00025	-1e-05	-5e-05	-0.00015	3e-05	-4e-05	6e-05	-0.00014	3
11214	0.00025	-1e-05	-5e-05	-0.00015	3e-05	-4e-05	6e-05	-0.00014	3
11215	0.00025	-1e-05	-5e-05	-0.00015	3e-05	-4e-05	6e-05	-0.00014	3
11216	0.00025	-1e-05	-5e-05	-0.00015	3e-05	-4e-05	6e-05	-0.00014	3
11217	0.00025	-1e-05	-5e-05	-0.00015	3e-05	-4e-05	6e-05	-0.00014	3
11218	0.00025	-1e-05	-5e-05	-0.00015	3e-05	-4e-05	6e-05	-0.00014	3
11219	0.00025	-1e-05	-5e-05	-0.00015	3e-05	-4e-05	6e-05	-0.00014	3
11220	0.00025	-1e-05	-5e-05	-0.00015	3e-05	-4e-05	6e-05	-0.00014	3
11221	0.00025	-1e-05	-5e-05	-0.00015	3e-05	-4e-05	6e-05	-0.00014	3
11222	0.00025	-1e-05	-5e-05	-0.00015	3e-05	-4e-05	6e-05	-0.00014	3
11223	0.00025	-1e-05	-5e-05	-0.00015	3e-05	-4e-05	6e-05	-0.00014	3
11224	0.00025	-1e-05	-5e-05	-0.00015	3e-05	-4e-05	6e-05	-0.00014	3
11225	0.00025	-1e-05	-5e-05	-0.00015	3e-05	-4e-05	6e-05	-0.00014	3
11226	0.00025	-1e-05	-5e-05	-0.00015	3e-05	-4e-05	6e-05	-0.00014	3
11227	0.00025	-1e-05	-5e-05	-0.00015	3e-05	-4e-05	6e-05	-0.00014	3
11228	0.00025	-1e-05	-5e-05	-0.00015	3e-05	-4e-05	6e-05	-0.00014	3
11229	0.00025	-1e-05	-5e-05	-0.00015	3e-05	-4e-05	6e-05	-0.00014	3
11230	0.00025	-1e-05	-5e-05	-0.00015	3e-05	-4e-05	6e-05	-0.00014	3
11231	0.00025	-1e-05	-5e-05	-0.00015	3e-05	-4e-05	6e-05	-0.00014	3
11232	0.00025	-1e-05	-5e-05	-0.00015	3e-05	-4e-05	6e-05	-0.00014	3
11233	0.00025	-1e-05	-5e-05	-0.00015	3e-05	-4e-05	6e-05	-0.00014	3
11234	0.00025	-1e-05	-5e-05	-0.00015	3e-05	-4e-05	6e-05	-0.00014	3
11235	0.00025	-1e-05	-5e-05	-0.00015	3e-05	-4e-05	6e-05	-0.00014	3
11236	-0.00011	0	-2e-05	-9e-05	9e-05	-0.00011	5e-05	0.00011	3
11238	-0.00021	1e-05	6e-05	7e-05	-0.00014	7e-05	-0.0005	0.00014	3
11239	-0.00021	1e-05	6e-05	7e-05	-0.00014	7e-05	-0.0005	0.00014	3
11240	-0.00021	1e-05	6e-05	7e-05	-0.00014	7e-05	-0.0005	0.00014	3
11241	-0.00021	1e-05	6e-05	7e-05	-0.00014	7e-05	-0.0005	0.00014	3
11242	-0.00021	1e-05	6e-05	7e-05	-0.00014	7e-05	-0.0005	0.00014	3
11243	-0.00021	1e-05	6e-05	7e-05	-0.00014	7e-05	-0.0005	0.00014	3
11244	-0.00021	1e-05	6e-05	7e-05	-0.00014	7e-05	-0.0005	0.00014	3
11245	-0.00021	1e-05	6e-05	7e-05	-0.00014	7e-05	-0.0005	0.00014	3
11246	-0.00021	1e-05	6e-05	7e-05	-0.00014	7e-05	-0.0005	0.00014	3
11247	-0.00021	1e-05	6e-05	7e-05	-0.00014	7e-05	-0.0005	0.00014	3
11248	-0.00021	1e-05	6e-05	7e-05	-0.00014	7e-05	-0.0005	0.00014	3
11249	-0.00021	1e-05	6e-05	7e-05	-0.00014	7e-05	-0.0005	0.00014	3
11250	-0.00021	1e-05	6e-05	7e-05	-0.00014	7e-05	-0.0005	0.00014	3
11251	-0.00021	1e-05	6e-05	7e-05	-0.00014	7e-05	-0.0005	0.00014	3
11252	-0.00021	1e-05	6e-05	7e-05	-0.00014	7e-05	-0.0005	0.00014	3
11253	-0.00021	1e-05	6e-05	7e-05	-0.00014	7e-05	-0.0005	0.00014	3
11254	-0.00021	1e-05	6e-05	7e-05	-0.00014	7e-05	-0.0005	0.00014	3
11255	-0.00021	1e-05	6e-05	7e-05	-0.00014	7e-05	-0.0005	0.00014	3
11256	-0.00021	1e-05	6e-05	7e-05	-0.00014	7e-05	-0.0005	0.00014	3
11257	-0.00021	1e-05	6e-05	7e-05	-0.00014	7e-05	-0.0005	0.00014	3
11258	-0.00021	1e-05	6e-05	7e-05	-0.00014	7e-05	-0.0005	0.00014	3
11259	-0.00021	1e-05	6e-05	7e-05	-0.00014	7e-05	-0.0005	0.00014	3
11260	-0.00021	1e-05	6e-05	7e-05	-0.00014	7e-05	-0.0005	0.00014	3
11261	-0.00021	1e-05	6e-05	7e-05	-0.00014	7e-05	-0.0005	0.00014	3
11262	-0.00021	1e-05	6e-05	7e-05	-0.00014	7e-05	-0.0005	0.00014	3
11263	-0.00021	1e-05	6e-05	7e-05	-0.00014	7e-05	-0.0005	0.00014	3
11264	-0.00021	1e-05	6e-05	7e-05	-0.00014	7e-05	-0.0005	0.00014	3
11265	-0.00021	1e-05	6e-05	7e-05	-0.00014	7e-05	-0.0005	0.00014	3
11266	-2e-05	-0.0001	-5e-05	2e-05	6e-05	-0.0003	-0.00016	-0.00049	3
11267	-0.00024	-6e-05	-1e-05	-1e-05	0.00017	0.00015	-0.00012	-0.00012	3
11268	-0.00024	-6e-05	-1e-05	-1e-05	0.00017	0.00015	-0.00012	-0.00012	3
11269	-0.00024	-6e-05	-1e-05	-1e-05	0.00017	0.00015	-0.00012	-0.00012	3
11270	-0.00024	-6e-05	-1e-05	-1e-05	0.00017	0.00015	-0.00012	-0.00012	3
11271	-0.00024	-6e-05	-1e-05	-1e-05	0.00017	0.00015	-0.00012	-0.00012	3
11272	0.0002	0.00013	3e-05	0	-0.00021	7e-05	0.00012	-8e-05	3
11273	0.00041	8e-05	2e-05	-0.00013	-0.00034	-9e-05	-0.00021	-0.00017	3
11274	0.00041	8e-05	2e-05	-0.00013	-0.00034	-9e-05	-0.00021	-0.00017	3
11275	0.00041	8e-05	2e-05	-0.00013	-0.00034	-9e-05	-0.00021	-0.00017	3
11276	0.00041	8e-05	2e-05	-0.00013	-0.00034	-9e-05	-0.00021	-0.00017	3
11277	0.00041	8e-05	2e-05	-0.00013	-0.00034	-9e-05	-0.00021	-0.00017	3
11278	0.00041	8e-05	2e-05	-0.00013	-0.00034	-9e-05	-0.00021	-0.00017	3
11279	0.00041	8e-05	2e-05	-0.00013	-0.00034	-9e-05	-0.00021	-0.00017	3
11280	0.00041	8e-05	2e-05	-0.00013	-0.00034	-9e-05	-0.00021	-0.00017	3
11281	0.00041	8e-05	2e-05	-0.00013	-0.00034	-9e-05	-0.00021	-0.00017	3
11282	0.00041	8e-05	2e-05	-0.00013	-0.00034	-9e-05	-0.00021	-0.00017	3
11283	0.00041	8e-05	2e-05	-0.00013	-0.00034	-9e-05	-0.00021	-0.00017	3
11284	0.00041	8e-05	2e-05	-0.00013	-0.00034	-9e-05	-0.00021	-0.00017	3
11285	0.00041	8e-05	2e-05	-0.00013	-0.00034	-9e-05	-0.00021	-0.00017	3
11286	0.00041	8e-05	2e-05	-0.00013	-0.00034	-9e-05	-0.00021	-0.00017	3
11288	0.00041	8e-05	2e-05	-0.00013	-0.00034	-9e-05	-0.00021	-0.00017	3
11289	0.00041	8e-05	2e-05	-0.00013	-0.00034	-9e-05	-0.00021	-0.00017	3
11290	0.00041	8e-05	2e-05	-0.00013	-0.00034	-9e-05	-0.00021	-0.00017	3
11291	0.00041	8e-05	2e-05	-0.00013	-0.00034	-9e-05	-0.00021	-0.00017	3
11292	0.00041	8e-05	2e-05	-0.00013	-0.00034	-9e-05	-0.00021	-0.00017	3
11293	0.00041	8e-05	2e-05	-0.00013	-0.00034	-9e-05	-0.00021	-0.00017	3
11294	0.00041	8e-05	2e-05	-0.00013	-0.00034	-9e-05	-0.00021	-0.00017	3
11295	0.00041	8e-05	2e-05	-0.00013	-0.00034	-9e-05	-0.00021	-0.00017	3
11296	3e-05	-1e-05	-3e-05	3e-05	-9e-05	-0.00036	0.00024	-0.00018	3
11297	3e-05	-1e-05	-3e-05	3e-05	-9e-05	-0.00036	0.00024	-0.00018	3
11298	3e-05	-1e-05	-3e-05	3e-05	-9e-05	-0.00036	0.00024	-0.00018	3
11299	3e-05	-1e-05	-3e-05	3e-05	-9e-05	-0.00036	0.00024	-0.00018	3
11300	3e-05	-1e-05	-3e-05	3e-05	-9e-05	-0.00036	0.00024	-0.00018	3
11301	3e-05	-1e-05	-3e-05	3e-05	-9e-05	-0.00036	0.00024	-0.00018	3
11302	3e-05	-1e-05	-3e-05	3e-05	-9e-05	-0.00036	0.00024	-0.00018	3
11303	3e-05	-1e-05	-3e-05	3e-05	-9e-05	-0.00036	0.00024	-0.00018	3
11304	3e-05	-1e-05	-3e-05	3e-05	-9e-05	-0.00036	0.00024	-0.00018	3
11305	3e-05	-1e-05	-3e-05	3e-05	-9e-05	-0.00036	0.00024	-0.00018	3
11306	3e-05	-1e-05	-3e-05	3e-05	-9e-05	-0.00036	0.00024	-0.00018	3
11307	3e-05	-1e-05	-3e-05	3e-05	-9e-05	-0.00036	0.00024	-0.00018	3
11308	3e-05	-1e-05	-3e-05	3e-05	-9e-05	-0.00036	0.00024	-0.00018	3
11309	3e-05	-1e-05	-3e-05	3e-05	-9e-05	-0.00036	0.00024	-0.00018	3
11310	3e-05	-1e-05	-3e-05	3e-05	-9e-05	-0.00036	0.00024	-0.00018	3
11311	3e-05	-1e-05	-3e-05	3e-05	-9e-05	-0.00036	0.00024	-0.00018	3
11312	3e-05	-1e-05	-3e-05	3e-05	-9e-05	-0.00036	0.00024	-0.00018	3
11313	3e-05	-1e-05	-3e-05	3e-05	-9e-05	-0.00036	0.00024	-0.00018	3
11314	3e-05	-1e-05	-3e-05	3e-05	-9e-05	-0.00036	0.00024	-0.00018	3
11315	3e-05	-1e-05	-3e-05	3e-05	-9e-05	-0.00036	0.00024	-0.00018	3
11316	3e-05	-1e-05	-3e-05	3e-05	-9e-05	-0.00036	0.00024	-0.00018	3
11317	3e-05	-1e-05	-3e-05	3e-05	-9e-05	-0.00036	0.00024	-0.00018	3
11318	0.00039	-5e-05	-5e-05	-1e-05	0.00028	-0.00023	0.00012	0.00033	3
11319	0.00015	-3e-05	-1e-05	6e-05	0.00012	-1e-05	-7e-05	2e-05	3
11320	0.00015	-3e-05	-1e-05	6e-05	0.00012	-1e-05	-7e-05	2e-05	3
11321	0.00015	-3e-05	-1e-05	6e-05	0.00012	-1e-05	-7e-05	2e-05	3
11322	0.00015	-3e-05	-1e-05	6e-05	0.00012	-1e-05	-7e-05	2e-05	3
11323	0.00015	-3e-05	-1e-05	6e-05	0.00012	-1e-05	-7e-05	2e-05	3
11324	0.00015	-3e-05	-1e-05	6e-05	0.00012	-1e-05	-7e-05	2e-05	3
11325	0.00015	-3e-05	-1e-05	6e-05	0.00012	-1e-05	-7e-05	2e-05	3
11326	0.00015	-3e-05	-1e-05	6e-05	0.00012	-1e-05	-7e-05	2e-05	3
11327	0.00015	-3e-05	-1e-05	6e-05	0.00012	-1e-05	-7e-05	2e-05	3
11328	0.00015	-3e-05	-1e-05	6e-05	0.00012	-1e-05	-7e-05	2e-05	3
11329	0.00015	-3e-05	-1e-05	6e-05	0.00012	-1e-05	-7e-05	2e-05	3
11330	0.00015	-3e-05	-1e-05	6e-05	0.00012	-1e-05	-7e-05	2e-05	3
11331	0.00015	-3e-05	-1e-05	6e-05	0.00012	-1e-05	-7e-05	2e-05	3
11332	0.00015	-3e-05	-1e-05	6e-05	0.00012	-1e-05	-7e-05	2e-05	3
11333	-0.00015	-2e-05	-1e-05	0.00011	-0.00039	0.00018	1e-05	-0.00036	3
11334	-0.00015	-2e-05	-1e-05	0.00011	-0.00039	0.00018	1e-05	-0.00036	3
11335	-0.00015	-2e-05	-1e-05	0.00011	-0.00039	0.00018	1e-05	-0.00036	3
11336	-0.00015	-2e-05	-1e-05	0.00011	-0.00039	0.00018	1e-05	-0.00036	3
11338	-0.00015	-2e-05	-1e-05	0.00011	-0.00039	0.00018	1e-05	-0.00036	3
11339	-0.00015	-2e-05	-1e-05	0.00011	-0.00039	0.00018	1e-05	-0.00036	3
11340	-0.00015	-2e-05	-1e-05	0.00011	-0.00039	0.00018	1e-05	-0.00036	3
11341	-0.00015	-2e-05	-1e-05	0.00011	-0.00039	0.00018	1e-05	-0.00036	3
11342	-0.00015	-2e-05	-1e-05	0.00011	-0.00039	0.00018	1e-05	-0.00036	3
11343	-0.00015	-2e-05	-1e-05	0.00011	-0.00039	0.00018	1e-05	-0.00036	3
11344	-0.00015	-2e-05	-1e-05	0.00011	-0.00039	0.00018	1e-05	-0.00036	3
11345	-0.00015	-2e-05	-1e-05	0.00011	-0.00039	0.00018	1e-05	-0.00036	3
11346	-0.00015	-2e-05	-1e-05	0.00011	-0.00039	0.00018	1e-05	-0.00036	3
11347	-0.00015	-2e-05	-1e-05	0.00011	-0.00039	0.00018	1e-05	-0.00036	3
11348	-0.00015	-2e-05	-1e-05	0.00011	-0.00039	0.00018	1e-05	-0.00036	3
11349	-0.00015	-2e-05	-1e-05	0.00011	-0.00039	0.00018	1e-05	-0.00036	3
11350	-0.00015	-2e-05	-1e-05	0.00011	-0.00039	0.00018	1e-05	-0.00036	3
11351	-0.00015	-2e-05	-1e-05	0.00011	-0.00039	0.00018	1e-05	-0.00036	3
11352	-0.00015	-2e-05	-1e-05	0.00011	-0.00039	0.00018	1e-05	-0.00036	3
11353	-0.00015	-2e-05	-1e-05	0.00011	-0.00039	0.00018	1e-05	-0.00036	3
11354	-0.00015	-2e-05	-1e-05	0.00011	-0.00039	0.00018	1e-05	-0.00036	3
11355	-0.00011	-2e-05	4e-05	0.0001	0.00032	-3e-05	-0.00064	-0.00018	3
11356	-4e-05	-1e-05	0	4e-05	0.00045	0.00012	0.00022	-0.00043	3
11357	-4e-05	-1e-05	0	4e-05	0.00045	0.00012	0.00022	-0.00043	3
11358	-4e-05	-1e-05	0	4e-05	0.00045	0.00012	0.00022	-0.00043	3
11359	-4e-05	-1e-05	0	4e-05	0.00045	0.00012	0.00022	-0.00043	3
11360	-4e-05	-1e-05	0	4e-05	0.00045	0.00012	0.00022	-0.00043	3
11361	-4e-05	-1e-05	0	4e-05	0.00045	0.00012	0.00022	-0.00043	3
11362	-4e-05	-1e-05	0	4e-05	0.00045	0.00012	0.00022	-0.00043	3
11363	-4e-05	-1e-05	0	4e-05	0.00045	0.00012	0.00022	-0.00043	3
11364	-4e-05	-1e-05	0	4e-05	0.00045	0.00012	0.00022	-0.00043	3
11365	-4e-05	-1e-05	0	4e-05	0.00045	0.00012	0.00022	-0.00043	3
11366	-4e-05	-1e-05	0	4e-05	0.00045	0.00012	0.00022	-0.00043	3
11367	-4e-05	-1e-05	0	4e-05	0.00045	0.00012	0.00022	-0.00043	3
11368	-4e-05	-1e-05	0	4e-05	0.00045	0.00012	0.00022	-0.00043	3
11369	-4e-05	-1e-05	0	4e-05	0.00045	0.00012	0.00022	-0.00043	3
11370	-4e-05	-1e-05	0	4e-05	0.00045	0.00012	0.00022	-0.00043	3
11371	-4e-05	-1e-05	0	4e-05	0.00045	0.00012	0.00022	-0.00043	3
11372	-4e-05	-1e-05	0	4e-05	0.00045	0.00012	0.00022	-0.00043	3
11373	-4e-05	-1e-05	0	4e-05	0.00045	0.00012	0.00022	-0.00043	3
11374	-4e-05	-1e-05	0	4e-05	0.00045	0.00012	0.00022	-0.00043	3
11375	-4e-05	-1e-05	0	4e-05	0.00045	0.00012	0.00022	-0.00043	3
11376	-4e-05	-1e-05	0	4e-05	0.00045	0.00012	0.00022	-0.00043	3
11377	-4e-05	-1e-05	0	4e-05	0.00045	0.00012	0.00022	-0.00043	3
11378	0	1e-05	-4e-05	-7e-05	0.00015	2e-05	0.00019	-0.00015	3
11379	9e-05	2e-05	2e-05	-1e-05	0.00014	-0.0001	-0.0003	-6e-05	3
11381	9e-05	2e-05	2e-05	-1e-05	0.00014	-0.0001	-0.0003	-6e-05	3
11382	9e-05	2e-05	2e-05	-1e-05	0.00014	-0.0001	-0.0003	-6e-05	3
11383	9e-05	2e-05	2e-05	-1e-05	0.00014	-0.0001	-0.0003	-6e-05	3
11384	9e-05	2e-05	2e-05	-1e-05	0.00014	-0.0001	-0.0003	-6e-05	3
11385	9e-05	2e-05	2e-05	-1e-05	0.00014	-0.0001	-0.0003	-6e-05	3
11386	9e-05	2e-05	2e-05	-1e-05	0.00014	-0.0001	-0.0003	-6e-05	3
11388	9e-05	2e-05	2e-05	-1e-05	0.00014	-0.0001	-0.0003	-6e-05	3
11389	9e-05	2e-05	2e-05	-1e-05	0.00014	-0.0001	-0.0003	-6e-05	3
11390	9e-05	2e-05	2e-05	-1e-05	0.00014	-0.0001	-0.0003	-6e-05	3
11391	9e-05	2e-05	2e-05	-1e-05	0.00014	-0.0001	-0.0003	-6e-05	3
11392	9e-05	2e-05	2e-05	-1e-05	0.00014	-0.0001	-0.0003	-6e-05	3
11393	-0.00018	-1e-05	-4e-05	-0.00014	-0.00014	-4e-05	4e-05	-9e-05	3
11394	-0.00018	-1e-05	-4e-05	-0.00014	-0.00014	-4e-05	4e-05	-9e-05	3
11395	-0.00018	-1e-05	-4e-05	-0.00014	-0.00014	-4e-05	4e-05	-9e-05	3
11396	-0.00018	-1e-05	-4e-05	-0.00014	-0.00014	-4e-05	4e-05	-9e-05	3
11397	-0.00018	-1e-05	-4e-05	-0.00014	-0.00014	-4e-05	4e-05	-9e-05	3
11398	-0.00018	-1e-05	-4e-05	-0.00014	-0.00014	-4e-05	4e-05	-9e-05	3
11399	-0.00018	-1e-05	-4e-05	-0.00014	-0.00014	-4e-05	4e-05	-9e-05	3
11400	-0.00033	-4e-05	-2e-05	-0.00011	-0.00048	-2e-05	8e-05	-0.00025	3
11401	-0.00033	-4e-05	-2e-05	-0.00011	-0.00048	-2e-05	8e-05	-0.00025	3
11402	-0.00033	-4e-05	-2e-05	-0.00011	-0.00048	-2e-05	8e-05	-0.00025	3
11403	-0.00033	-4e-05	-2e-05	-0.00011	-0.00048	-2e-05	8e-05	-0.00025	3
11404	-0.00033	-4e-05	-2e-05	-0.00011	-0.00048	-2e-05	8e-05	-0.00025	3
11405	-0.00033	-4e-05	-2e-05	-0.00011	-0.00048	-2e-05	8e-05	-0.00025	3
11406	-0.00033	-4e-05	-2e-05	-0.00011	-0.00048	-2e-05	8e-05	-0.00025	3
11407	-0.00033	-4e-05	-2e-05	-0.00011	-0.00048	-2e-05	8e-05	-0.00025	3
11408	-0.00033	-4e-05	-2e-05	-0.00011	-0.00048	-2e-05	8e-05	-0.00025	3
11409	-0.00033	-4e-05	-2e-05	-0.00011	-0.00048	-2e-05	8e-05	-0.00025	3
11410	-0.00033	-4e-05	-2e-05	-0.00011	-0.00048	-2e-05	8e-05	-0.00025	3
11411	-0.00033	-4e-05	-2e-05	-0.00011	-0.00048	-2e-05	8e-05	-0.00025	3
11412	-0.00033	-4e-05	-2e-05	-0.00011	-0.00048	-2e-05	8e-05	-0.00025	3
11413	-0.00033	-4e-05	-2e-05	-0.00011	-0.00048	-2e-05	8e-05	-0.00025	3
11414	-0.00033	-4e-05	-2e-05	-0.00011	-0.00048	-2e-05	8e-05	-0.00025	3
11415	-7e-05	-3e-05	-2e-05	-1e-05	-0.00029	-0.00028	0.00029	0.00079	3
11416	1e-05	-2e-05	4e-05	5e-05	-9e-05	-0.00013	-0.00083	6e-05	3
11417	1e-05	-2e-05	4e-05	5e-05	-9e-05	-0.00013	-0.00083	6e-05	3
11418	1e-05	-2e-05	4e-05	5e-05	-9e-05	-0.00013	-0.00083	6e-05	3
11419	1e-05	-2e-05	4e-05	5e-05	-9e-05	-0.00013	-0.00083	6e-05	3
11420	1e-05	-2e-05	4e-05	5e-05	-9e-05	-0.00013	-0.00083	6e-05	3
11421	1e-05	-2e-05	4e-05	5e-05	-9e-05	-0.00013	-0.00083	6e-05	3
11422	1e-05	-2e-05	4e-05	5e-05	-9e-05	-0.00013	-0.00083	6e-05	3
11423	1e-05	-2e-05	4e-05	5e-05	-9e-05	-0.00013	-0.00083	6e-05	3
11424	1e-05	-2e-05	4e-05	5e-05	-9e-05	-0.00013	-0.00083	6e-05	3
11425	1e-05	-2e-05	4e-05	5e-05	-9e-05	-0.00013	-0.00083	6e-05	3
11426	1e-05	-2e-05	4e-05	5e-05	-9e-05	-0.00013	-0.00083	6e-05	3
11427	1e-05	-2e-05	4e-05	5e-05	-9e-05	-0.00013	-0.00083	6e-05	3
11428	1e-05	-2e-05	4e-05	5e-05	-9e-05	-0.00013	-0.00083	6e-05	3
11429	1e-05	-2e-05	4e-05	5e-05	-9e-05	-0.00013	-0.00083	6e-05	3
11430	1e-05	-2e-05	4e-05	5e-05	-9e-05	-0.00013	-0.00083	6e-05	3
11431	1e-05	-2e-05	4e-05	5e-05	-9e-05	-0.00013	-0.00083	6e-05	3
11432	1e-05	-2e-05	4e-05	5e-05	-9e-05	-0.00013	-0.00083	6e-05	3
11433	1e-05	-2e-05	4e-05	5e-05	-9e-05	-0.00013	-0.00083	6e-05	3
11434	1e-05	-2e-05	4e-05	5e-05	-9e-05	-0.00013	-0.00083	6e-05	3
11435	1e-05	-2e-05	4e-05	5e-05	-9e-05	-0.00013	-0.00083	6e-05	3
11436	1e-05	-2e-05	4e-05	5e-05	-9e-05	-0.00013	-0.00083	6e-05	3
11438	0	1e-05	7e-05	9e-05	-5e-05	-0.00021	0.0004	0.00039	3
11439	7e-05	-1e-05	0	-1e-05	7e-05	-8e-05	0.0001	0.00023	3
11440	7e-05	-1e-05	0	-1e-05	7e-05	-8e-05	0.0001	0.00023	3
11441	7e-05	-1e-05	0	-1e-05	7e-05	-8e-05	0.0001	0.00023	3
11442	7e-05	-1e-05	0	-1e-05	7e-05	-8e-05	0.0001	0.00023	3
11443	7e-05	-1e-05	0	-1e-05	7e-05	-8e-05	0.0001	0.00023	3
11444	7e-05	-1e-05	0	-1e-05	7e-05	-8e-05	0.0001	0.00023	3
11445	7e-05	-1e-05	0	-1e-05	7e-05	-8e-05	0.0001	0.00023	3
11446	7e-05	-1e-05	0	-1e-05	7e-05	-8e-05	0.0001	0.00023	3
11447	7e-05	-1e-05	0	-1e-05	7e-05	-8e-05	0.0001	0.00023	3
11448	7e-05	-1e-05	0	-1e-05	7e-05	-8e-05	0.0001	0.00023	3
11449	7e-05	-1e-05	0	-1e-05	7e-05	-8e-05	0.0001	0.00023	3
11450	7e-05	-1e-05	0	-1e-05	7e-05	-8e-05	0.0001	0.00023	3
11451	7e-05	-1e-05	0	-1e-05	7e-05	-8e-05	0.0001	0.00023	3
11452	7e-05	-1e-05	0	-1e-05	7e-05	-8e-05	0.0001	0.00023	3
11453	7e-05	-1e-05	0	-1e-05	7e-05	-8e-05	0.0001	0.00023	3
11454	7e-05	-1e-05	0	-1e-05	7e-05	-8e-05	0.0001	0.00023	3
11455	7e-05	-1e-05	0	-1e-05	7e-05	-8e-05	0.0001	0.00023	3
11456	7e-05	-1e-05	0	-1e-05	7e-05	-8e-05	0.0001	0.00023	3
11457	7e-05	-1e-05	0	-1e-05	7e-05	-8e-05	0.0001	0.00023	3
11458	7e-05	-1e-05	0	-1e-05	7e-05	-8e-05	0.0001	0.00023	3
11459	7e-05	-1e-05	0	-1e-05	7e-05	-8e-05	0.0001	0.00023	3
11460	7e-05	-1e-05	0	-1e-05	7e-05	-8e-05	0.0001	0.00023	3
11461	-2e-05	-7e-05	1e-05	-3e-05	-0.00038	-0.00016	-0.00076	-0.0005	3
11462	-8e-05	-1e-05	-6e-05	-0.00011	0.00034	6e-05	0.00024	9e-05	3
11463	-8e-05	-1e-05	-6e-05	-0.00011	0.00034	6e-05	0.00024	9e-05	3
11464	-8e-05	-1e-05	-6e-05	-0.00011	0.00034	6e-05	0.00024	9e-05	3
11465	-8e-05	-1e-05	-6e-05	-0.00011	0.00034	6e-05	0.00024	9e-05	3
11466	-8e-05	-1e-05	-6e-05	-0.00011	0.00034	6e-05	0.00024	9e-05	3
11467	-8e-05	-1e-05	-6e-05	-0.00011	0.00034	6e-05	0.00024	9e-05	3
11468	-8e-05	-1e-05	-6e-05	-0.00011	0.00034	6e-05	0.00024	9e-05	3
11469	-8e-05	-1e-05	-6e-05	-0.00011	0.00034	6e-05	0.00024	9e-05	3
11470	-8e-05	-1e-05	-6e-05	-0.00011	0.00034	6e-05	0.00024	9e-05	3
11471	-8e-05	-1e-05	-6e-05	-0.00011	0.00034	6e-05	0.00024	9e-05	3
11472	-8e-05	-1e-05	-6e-05	-0.00011	0.00034	6e-05	0.00024	9e-05	3
11473	-8e-05	-1e-05	-6e-05	-0.00011	0.00034	6e-05	0.00024	9e-05	3
11474	-8e-05	-1e-05	-6e-05	-0.00011	0.00034	6e-05	0.00024	9e-05	3
11475	0.0001	-7e-05	-6e-05	-5e-05	0.00023	2e-05	-0.00027	8e-05	3
11476	8e-05	0	-2e-05	0.00016	0.0003	0.00016	0.00017	5e-05	3
11477	8e-05	0	-2e-05	0.00016	0.0003	0.00016	0.00017	5e-05	3
11478	8e-05	0	-2e-05	0.00016	0.0003	0.00016	0.00017	5e-05	3
11479	8e-05	0	-2e-05	0.00016	0.0003	0.00016	0.00017	5e-05	3
11480	8e-05	0	-2e-05	0.00016	0.0003	0.00016	0.00017	5e-05	3
11481	8e-05	0	-2e-05	0.00016	0.0003	0.00016	0.00017	5e-05	3
11482	8e-05	0	-2e-05	0.00016	0.0003	0.00016	0.00017	5e-05	3
11483	8e-05	0	-2e-05	0.00016	0.0003	0.00016	0.00017	5e-05	3
11484	8e-05	0	-2e-05	0.00016	0.0003	0.00016	0.00017	5e-05	3
11485	8e-05	0	-2e-05	0.00016	0.0003	0.00016	0.00017	5e-05	3
11486	8e-05	0	-2e-05	0.00016	0.0003	0.00016	0.00017	5e-05	3
11488	8e-05	0	-2e-05	0.00016	0.0003	0.00016	0.00017	5e-05	3
11489	8e-05	0	-2e-05	0.00016	0.0003	0.00016	0.00017	5e-05	3
11490	8e-05	0	-2e-05	0.00016	0.0003	0.00016	0.00017	5e-05	3
11491	8e-05	0	-2e-05	0.00016	0.0003	0.00016	0.00017	5e-05	3
11492	8e-05	0	-2e-05	0.00016	0.0003	0.00016	0.00017	5e-05	3
11493	8e-05	0	-2e-05	0.00016	0.0003	0.00016	0.00017	5e-05	3
11494	8e-05	0	-2e-05	0.00016	0.0003	0.00016	0.00017	5e-05	3
11495	8e-05	0	-2e-05	0.00016	0.0003	0.00016	0.00017	5e-05	3
11496	8e-05	0	-2e-05	0.00016	0.0003	0.00016	0.00017	5e-05	3
11497	8e-05	0	-2e-05	0.00016	0.0003	0.00016	0.00017	5e-05	3
11498	6e-05	-2e-05	-2e-05	0.00017	-1e-05	-1e-05	-9e-05	-0.00029	3
11499	6e-05	-2e-05	-2e-05	0.00017	-1e-05	-1e-05	-9e-05	-0.00029	3
11500	6e-05	-2e-05	-2e-05	0.00017	-1e-05	-1e-05	-9e-05	-0.00029	3
11501	6e-05	-2e-05	-2e-05	0.00017	-1e-05	-1e-05	-9e-05	-0.00029	3
11502	6e-05	-2e-05	-2e-05	0.00017	-1e-05	-1e-05	-9e-05	-0.00029	3
11503	6e-05	-2e-05	-2e-05	0.00017	-1e-05	-1e-05	-9e-05	-0.00029	3
11504	6e-05	-2e-05	-2e-05	0.00017	-1e-05	-1e-05	-9e-05	-0.00029	3
11505	6e-05	-2e-05	-2e-05	0.00017	-1e-05	-1e-05	-9e-05	-0.00029	3
11506	6e-05	-2e-05	-2e-05	0.00017	-1e-05	-1e-05	-9e-05	-0.00029	3
11507	6e-05	-2e-05	-2e-05	0.00017	-1e-05	-1e-05	-9e-05	-0.00029	3
11508	6e-05	-2e-05	-2e-05	0.00017	-1e-05	-1e-05	-9e-05	-0.00029	3
11509	6e-05	-2e-05	-2e-05	0.00017	-1e-05	-1e-05	-9e-05	-0.00029	3
11510	6e-05	-2e-05	-2e-05	0.00017	-1e-05	-1e-05	-9e-05	-0.00029	3
11511	6e-05	-2e-05	-2e-05	0.00017	-1e-05	-1e-05	-9e-05	-0.00029	3
11512	6e-05	-2e-05	-2e-05	0.00017	-1e-05	-1e-05	-9e-05	-0.00029	3
11513	0.0001	-5e-05	3e-05	0.00019	0.00021	1e-05	0.00024	-0.00023	3
11514	0.0001	-5e-05	3e-05	0.00019	0.00021	1e-05	0.00024	-0.00023	3
11515	0.00013	-2e-05	-2e-05	-0.00016	5e-05	0	9e-05	0.0001	3
11516	0.00013	-2e-05	-2e-05	-0.00016	5e-05	0	9e-05	0.0001	3
11517	0.00013	-2e-05	-2e-05	-0.00016	5e-05	0	9e-05	0.0001	3
11518	0.00013	-2e-05	-2e-05	-0.00016	5e-05	0	9e-05	0.0001	3
11519	0.00013	-2e-05	-2e-05	-0.00016	5e-05	0	9e-05	0.0001	3
11520	0.00013	-2e-05	-2e-05	-0.00016	5e-05	0	9e-05	0.0001	3
11521	0.00013	-2e-05	-2e-05	-0.00016	5e-05	0	9e-05	0.0001	3
11522	0.00013	-2e-05	-2e-05	-0.00016	5e-05	0	9e-05	0.0001	3
11523	0.00013	-2e-05	-2e-05	-0.00016	5e-05	0	9e-05	0.0001	3
11524	0.00013	-2e-05	-2e-05	-0.00016	5e-05	0	9e-05	0.0001	3
11525	0.00013	-2e-05	-2e-05	-0.00016	5e-05	0	9e-05	0.0001	3
11526	0.00013	-2e-05	-2e-05	-0.00016	5e-05	0	9e-05	0.0001	3
11527	0.00013	-2e-05	-2e-05	-0.00016	5e-05	0	9e-05	0.0001	3
11528	0.00013	-2e-05	-2e-05	-0.00016	5e-05	0	9e-05	0.0001	3
11529	0.00013	-2e-05	-2e-05	-0.00016	5e-05	0	9e-05	0.0001	3
11530	0.00013	-2e-05	-2e-05	-0.00016	5e-05	0	9e-05	0.0001	3
11531	0.00013	-2e-05	-2e-05	-0.00016	5e-05	0	9e-05	0.0001	3
11532	0.00013	-2e-05	-2e-05	-0.00016	5e-05	0	9e-05	0.0001	3
11533	0.00013	-2e-05	-2e-05	-0.00016	5e-05	0	9e-05	0.0001	3
11534	0.00013	-2e-05	-2e-05	-0.00016	5e-05	0	9e-05	0.0001	3
11535	0.00013	-2e-05	-2e-05	-0.00016	5e-05	0	9e-05	0.0001	3
11536	0.00013	-2e-05	-2e-05	-0.00016	5e-05	0	9e-05	0.0001	3
11538	0.00013	-2e-05	-2e-05	-0.00016	5e-05	0	9e-05	0.0001	3
11539	0.00013	-2e-05	-2e-05	-0.00016	5e-05	0	9e-05	0.0001	3
11540	0.00013	-2e-05	-2e-05	-0.00016	5e-05	0	9e-05	0.0001	3
11541	0.00013	-2e-05	-2e-05	-0.00016	5e-05	0	9e-05	0.0001	3
11542	0.00013	-2e-05	-2e-05	-0.00016	5e-05	0	9e-05	0.0001	3
11543	-0.00013	-3e-05	-2e-05	0	-0.00029	-0.00015	0.00019	-0.00044	3
11544	-7e-05	-2e-05	0	8e-05	-2e-05	-0.00012	-0.00023	-0.00031	3
11545	-7e-05	-2e-05	0	8e-05	-2e-05	-0.00012	-0.00023	-0.00031	3
11546	-7e-05	-2e-05	0	8e-05	-2e-05	-0.00012	-0.00023	-0.00031	3
11547	-7e-05	-2e-05	0	8e-05	-2e-05	-0.00012	-0.00023	-0.00031	3
11548	-7e-05	-2e-05	0	8e-05	-2e-05	-0.00012	-0.00023	-0.00031	3
11549	-7e-05	-2e-05	0	8e-05	-2e-05	-0.00012	-0.00023	-0.00031	3
11550	-7e-05	-2e-05	0	8e-05	-2e-05	-0.00012	-0.00023	-0.00031	3
11551	-7e-05	-2e-05	0	8e-05	-2e-05	-0.00012	-0.00023	-0.00031	3
11552	-7e-05	-2e-05	0	8e-05	-2e-05	-0.00012	-0.00023	-0.00031	3
11553	-7e-05	-2e-05	0	8e-05	-2e-05	-0.00012	-0.00023	-0.00031	3
11554	-7e-05	-2e-05	0	8e-05	-2e-05	-0.00012	-0.00023	-0.00031	3
11555	-7e-05	-2e-05	0	8e-05	-2e-05	-0.00012	-0.00023	-0.00031	3
11556	-7e-05	-2e-05	0	8e-05	-2e-05	-0.00012	-0.00023	-0.00031	3
11557	-2e-05	1e-05	2e-05	3e-05	0.00034	8e-05	0.00075	0.00065	3
11558	-0.00012	-2e-05	0	-2e-05	-0.00019	6e-05	-8e-05	8e-05	3
11559	-0.00012	-2e-05	0	-2e-05	-0.00019	6e-05	-8e-05	8e-05	3
11560	-0.00012	-2e-05	0	-2e-05	-0.00019	6e-05	-8e-05	8e-05	3
11561	-0.00012	-2e-05	0	-2e-05	-0.00019	6e-05	-8e-05	8e-05	3
11562	-0.00012	-2e-05	0	-2e-05	-0.00019	6e-05	-8e-05	8e-05	3
11563	-0.00012	-2e-05	0	-2e-05	-0.00019	6e-05	-8e-05	8e-05	3
11564	-0.00012	-2e-05	0	-2e-05	-0.00019	6e-05	-8e-05	8e-05	3
11565	-0.00012	-2e-05	0	-2e-05	-0.00019	6e-05	-8e-05	8e-05	3
11566	-0.00012	-2e-05	0	-2e-05	-0.00019	6e-05	-8e-05	8e-05	3
11567	-0.00012	-2e-05	0	-2e-05	-0.00019	6e-05	-8e-05	8e-05	3
11568	-0.00012	-2e-05	0	-2e-05	-0.00019	6e-05	-8e-05	8e-05	3
11569	-0.00012	-2e-05	0	-2e-05	-0.00019	6e-05	-8e-05	8e-05	3
11570	-0.00012	-2e-05	0	-2e-05	-0.00019	6e-05	-8e-05	8e-05	3
11571	-0.00012	-2e-05	0	-2e-05	-0.00019	6e-05	-8e-05	8e-05	3
11572	-0.00012	-2e-05	0	-2e-05	-0.00019	6e-05	-8e-05	8e-05	3
11573	-0.00012	-2e-05	0	-2e-05	-0.00019	6e-05	-8e-05	8e-05	3
11574	0	4e-05	2e-05	9e-05	0.00027	-9e-05	0.00101	0.00055	3
11575	-1e-05	0	-6e-05	-0.00012	6e-05	-0.00011	0.00034	-0.00036	3
11576	-1e-05	0	-6e-05	-0.00012	6e-05	-0.00011	0.00034	-0.00036	3
11577	-1e-05	0	-6e-05	-0.00012	6e-05	-0.00011	0.00034	-0.00036	3
11578	-1e-05	0	-6e-05	-0.00012	6e-05	-0.00011	0.00034	-0.00036	3
11579	-1e-05	0	-6e-05	-0.00012	6e-05	-0.00011	0.00034	-0.00036	3
11580	-1e-05	0	-6e-05	-0.00012	6e-05	-0.00011	0.00034	-0.00036	3
11581	-1e-05	0	-6e-05	-0.00012	6e-05	-0.00011	0.00034	-0.00036	3
11582	-1e-05	0	-6e-05	-0.00012	6e-05	-0.00011	0.00034	-0.00036	3
11583	-1e-05	0	-6e-05	-0.00012	6e-05	-0.00011	0.00034	-0.00036	3
11584	-1e-05	0	-6e-05	-0.00012	6e-05	-0.00011	0.00034	-0.00036	3
11585	-1e-05	0	-6e-05	-0.00012	6e-05	-0.00011	0.00034	-0.00036	3
11586	-1e-05	0	-6e-05	-0.00012	6e-05	-0.00011	0.00034	-0.00036	3
11588	-1e-05	0	-6e-05	-0.00012	6e-05	-0.00011	0.00034	-0.00036	3
11589	-1e-05	0	-6e-05	-0.00012	6e-05	-0.00011	0.00034	-0.00036	3
11590	-1e-05	0	-6e-05	-0.00012	6e-05	-0.00011	0.00034	-0.00036	3
11591	-1e-05	0	-6e-05	-0.00012	6e-05	-0.00011	0.00034	-0.00036	3
11592	-1e-05	0	-6e-05	-0.00012	6e-05	-0.00011	0.00034	-0.00036	3
11593	-1e-05	0	-6e-05	-0.00012	6e-05	-0.00011	0.00034	-0.00036	3
11594	-1e-05	0	-6e-05	-0.00012	6e-05	-0.00011	0.00034	-0.00036	3
11595	-6e-05	-9e-05	0	0	-0.00029	-2e-05	-0.00036	0.0001	3
11596	0	4e-05	2e-05	0.0001	-0.00012	9e-05	0.00017	0.00062	3
11597	0	4e-05	2e-05	0.0001	-0.00012	9e-05	0.00017	0.00062	3
11598	0	4e-05	2e-05	0.0001	-0.00012	9e-05	0.00017	0.00062	3
11599	0	4e-05	2e-05	0.0001	-0.00012	9e-05	0.00017	0.00062	3
11600	0	4e-05	2e-05	0.0001	-0.00012	9e-05	0.00017	0.00062	3
11601	0	4e-05	2e-05	0.0001	-0.00012	9e-05	0.00017	0.00062	3
11602	0	4e-05	2e-05	0.0001	-0.00012	9e-05	0.00017	0.00062	3
11603	0	4e-05	2e-05	0.0001	-0.00012	9e-05	0.00017	0.00062	3
11604	0	4e-05	2e-05	0.0001	-0.00012	9e-05	0.00017	0.00062	3
11605	0	4e-05	2e-05	0.0001	-0.00012	9e-05	0.00017	0.00062	3
11606	0	4e-05	2e-05	0.0001	-0.00012	9e-05	0.00017	0.00062	3
11607	0	4e-05	2e-05	0.0001	-0.00012	9e-05	0.00017	0.00062	3
11608	0	4e-05	2e-05	0.0001	-0.00012	9e-05	0.00017	0.00062	3
11609	0	4e-05	2e-05	0.0001	-0.00012	9e-05	0.00017	0.00062	3
11610	0	4e-05	2e-05	0.0001	-0.00012	9e-05	0.00017	0.00062	3
11611	0	4e-05	2e-05	0.0001	-0.00012	9e-05	0.00017	0.00062	3
11612	0	4e-05	2e-05	0.0001	-0.00012	9e-05	0.00017	0.00062	3
11613	0	4e-05	2e-05	0.0001	-0.00012	9e-05	0.00017	0.00062	3
11614	0	4e-05	2e-05	0.0001	-0.00012	9e-05	0.00017	0.00062	3
11615	0	4e-05	2e-05	0.0001	-0.00012	9e-05	0.00017	0.00062	3
11616	0	4e-05	2e-05	0.0001	-0.00012	9e-05	0.00017	0.00062	3
11617	0	4e-05	2e-05	0.0001	-0.00012	9e-05	0.00017	0.00062	3
11618	0	4e-05	2e-05	0.0001	-0.00012	9e-05	0.00017	0.00062	3
11619	0	4e-05	2e-05	0.0001	-0.00012	9e-05	0.00017	0.00062	3
11620	0	4e-05	2e-05	0.0001	-0.00012	9e-05	0.00017	0.00062	3
11621	0	4e-05	2e-05	0.0001	-0.00012	9e-05	0.00017	0.00062	3
11622	0	4e-05	2e-05	0.0001	-0.00012	9e-05	0.00017	0.00062	3
11623	0	4e-05	2e-05	0.0001	-0.00012	9e-05	0.00017	0.00062	3
11624	0	4e-05	2e-05	0.0001	-0.00012	9e-05	0.00017	0.00062	3
11625	0	4e-05	2e-05	0.0001	-0.00012	9e-05	0.00017	0.00062	3
11626	-8e-05	-0.00011	-5e-05	3e-05	-9e-05	-0.00022	0.00026	0.00023	3
11627	-0.00029	-1e-05	0	-6e-05	-0.00011	0	-4e-05	-4e-05	3
11628	-0.00029	-1e-05	0	-6e-05	-0.00011	0	-4e-05	-4e-05	3
11629	-0.00029	-1e-05	0	-6e-05	-0.00011	0	-4e-05	-4e-05	3
11630	-0.00029	-1e-05	0	-6e-05	-0.00011	0	-4e-05	-4e-05	3
11631	-0.00029	-1e-05	0	-6e-05	-0.00011	0	-4e-05	-4e-05	3
11632	0.00019	3e-05	3e-05	0.00014	0.00016	0.00028	-0.00017	9e-05	3
11633	-0.00023	-6e-05	-4e-05	-0.00014	-0.00025	0.0001	-1e-05	0.00023	3
11634	-0.00023	-6e-05	-4e-05	-0.00014	-0.00025	0.0001	-1e-05	0.00023	3
11635	-0.00023	-6e-05	-4e-05	-0.00014	-0.00025	0.0001	-1e-05	0.00023	3
11636	-0.00023	-6e-05	-4e-05	-0.00014	-0.00025	0.0001	-1e-05	0.00023	3
11638	-0.00023	-6e-05	-4e-05	-0.00014	-0.00025	0.0001	-1e-05	0.00023	3
11639	-0.00023	-6e-05	-4e-05	-0.00014	-0.00025	0.0001	-1e-05	0.00023	3
11640	-0.00023	-6e-05	-4e-05	-0.00014	-0.00025	0.0001	-1e-05	0.00023	3
11641	-0.00023	-6e-05	-4e-05	-0.00014	-0.00025	0.0001	-1e-05	0.00023	3
11642	-0.00023	-6e-05	-4e-05	-0.00014	-0.00025	0.0001	-1e-05	0.00023	3
11643	-0.00023	-6e-05	-4e-05	-0.00014	-0.00025	0.0001	-1e-05	0.00023	3
11644	-0.00023	-6e-05	-4e-05	-0.00014	-0.00025	0.0001	-1e-05	0.00023	3
11645	-0.00023	-6e-05	-4e-05	-0.00014	-0.00025	0.0001	-1e-05	0.00023	3
11646	-0.00023	-6e-05	-4e-05	-0.00014	-0.00025	0.0001	-1e-05	0.00023	3
11647	-0.00023	-6e-05	-4e-05	-0.00014	-0.00025	0.0001	-1e-05	0.00023	3
11648	-0.00023	-6e-05	-4e-05	-0.00014	-0.00025	0.0001	-1e-05	0.00023	3
11649	-0.00023	-6e-05	-4e-05	-0.00014	-0.00025	0.0001	-1e-05	0.00023	3
11650	-0.00023	-6e-05	-4e-05	-0.00014	-0.00025	0.0001	-1e-05	0.00023	3
11651	-0.00023	-6e-05	-4e-05	-0.00014	-0.00025	0.0001	-1e-05	0.00023	3
11652	-0.00023	-6e-05	-4e-05	-0.00014	-0.00025	0.0001	-1e-05	0.00023	3
11653	-0.00023	-6e-05	-4e-05	-0.00014	-0.00025	0.0001	-1e-05	0.00023	3
11654	-0.00023	-6e-05	-4e-05	-0.00014	-0.00025	0.0001	-1e-05	0.00023	3
11655	-7e-05	-6e-05	1e-05	0.00011	-9e-05	-0.00023	-0.00016	-0.00023	3
11656	0.00015	3e-05	-3e-05	-3e-05	-0.00014	-4e-05	0.00041	0.00056	3
11657	0.00015	3e-05	-3e-05	-3e-05	-0.00014	-4e-05	0.00041	0.00056	3
11658	0.00015	3e-05	-3e-05	-3e-05	-0.00014	-4e-05	0.00041	0.00056	3
11659	0.00015	3e-05	-3e-05	-3e-05	-0.00014	-4e-05	0.00041	0.00056	3
11660	0.00015	3e-05	-3e-05	-3e-05	-0.00014	-4e-05	0.00041	0.00056	3
11661	0.00015	3e-05	-3e-05	-3e-05	-0.00014	-4e-05	0.00041	0.00056	3
11662	0.00015	3e-05	-3e-05	-3e-05	-0.00014	-4e-05	0.00041	0.00056	3
11663	0.00015	3e-05	-3e-05	-3e-05	-0.00014	-4e-05	0.00041	0.00056	3
11664	0.00015	3e-05	-3e-05	-3e-05	-0.00014	-4e-05	0.00041	0.00056	3
11665	0.00015	3e-05	-3e-05	-3e-05	-0.00014	-4e-05	0.00041	0.00056	3
11666	0.00015	3e-05	-3e-05	-3e-05	-0.00014	-4e-05	0.00041	0.00056	3
11667	0.00015	3e-05	-3e-05	-3e-05	-0.00014	-4e-05	0.00041	0.00056	3
11668	0.00015	3e-05	-3e-05	-3e-05	-0.00014	-4e-05	0.00041	0.00056	3
11669	0.00015	3e-05	-3e-05	-3e-05	-0.00014	-4e-05	0.00041	0.00056	3
11670	0.00015	3e-05	-3e-05	-3e-05	-0.00014	-4e-05	0.00041	0.00056	3
11671	0.00015	3e-05	-3e-05	-3e-05	-0.00014	-4e-05	0.00041	0.00056	3
11672	0.00015	3e-05	-3e-05	-3e-05	-0.00014	-4e-05	0.00041	0.00056	3
11673	0.00015	3e-05	-3e-05	-3e-05	-0.00014	-4e-05	0.00041	0.00056	3
11674	0.00015	3e-05	-3e-05	-3e-05	-0.00014	-4e-05	0.00041	0.00056	3
11675	0.00015	3e-05	-3e-05	-3e-05	-0.00014	-4e-05	0.00041	0.00056	3
11676	0.00015	3e-05	-3e-05	-3e-05	-0.00014	-4e-05	0.00041	0.00056	3
11677	0.00015	3e-05	-3e-05	-3e-05	-0.00014	-4e-05	0.00041	0.00056	3
11678	-4e-05	3e-05	5e-05	-5e-05	9e-05	-6e-05	0.00019	0.00047	3
11679	-0.00014	-6e-05	-6e-05	7e-05	-2e-05	-6e-05	-0.00053	-0.00095	3
11680	0.00017	-1e-05	-9e-05	-0.00015	-0.00012	6e-05	0.00091	0.00113	3
11681	-0.00047	-2e-05	-1e-05	-6e-05	0.00011	4e-05	-9e-05	-0.0006	3
11682	-0.00047	-2e-05	-1e-05	-6e-05	0.00011	4e-05	-9e-05	-0.0006	3
11683	-0.00047	-2e-05	-1e-05	-6e-05	0.00011	4e-05	-9e-05	-0.0006	3
11684	-0.00047	-2e-05	-1e-05	-6e-05	0.00011	4e-05	-9e-05	-0.0006	3
11685	-0.00047	-2e-05	-1e-05	-6e-05	0.00011	4e-05	-9e-05	-0.0006	3
11686	-0.00047	-2e-05	-1e-05	-6e-05	0.00011	4e-05	-9e-05	-0.0006	3
11688	-0.00047	-2e-05	-1e-05	-6e-05	0.00011	4e-05	-9e-05	-0.0006	3
11689	-0.00047	-2e-05	-1e-05	-6e-05	0.00011	4e-05	-9e-05	-0.0006	3
11690	-0.00047	-2e-05	-1e-05	-6e-05	0.00011	4e-05	-9e-05	-0.0006	3
11691	-0.00047	-2e-05	-1e-05	-6e-05	0.00011	4e-05	-9e-05	-0.0006	3
11692	1e-05	6e-05	-1e-05	-4e-05	-3e-05	-0.00013	0.00035	0.00046	3
11693	1e-05	6e-05	-1e-05	-4e-05	-3e-05	-0.00013	0.00035	0.00046	3
11694	1e-05	6e-05	-1e-05	-4e-05	-3e-05	-0.00013	0.00035	0.00046	3
11695	1e-05	6e-05	-1e-05	-4e-05	-3e-05	-0.00013	0.00035	0.00046	3
11696	1e-05	6e-05	-1e-05	-4e-05	-3e-05	-0.00013	0.00035	0.00046	3
11697	1e-05	6e-05	-1e-05	-4e-05	-3e-05	-0.00013	0.00035	0.00046	3
11698	1e-05	6e-05	-1e-05	-4e-05	-3e-05	-0.00013	0.00035	0.00046	3
11699	1e-05	6e-05	-1e-05	-4e-05	-3e-05	-0.00013	0.00035	0.00046	3
11700	1e-05	6e-05	-1e-05	-4e-05	-3e-05	-0.00013	0.00035	0.00046	3
11701	1e-05	6e-05	-1e-05	-4e-05	-3e-05	-0.00013	0.00035	0.00046	3
11702	1e-05	6e-05	-1e-05	-4e-05	-3e-05	-0.00013	0.00035	0.00046	3
11703	1e-05	6e-05	-1e-05	-4e-05	-3e-05	-0.00013	0.00035	0.00046	3
11704	1e-05	6e-05	-1e-05	-4e-05	-3e-05	-0.00013	0.00035	0.00046	3
11705	1e-05	6e-05	-1e-05	-4e-05	-3e-05	-0.00013	0.00035	0.00046	3
11706	1e-05	6e-05	-1e-05	-4e-05	-3e-05	-0.00013	0.00035	0.00046	3
11707	6e-05	1e-05	2e-05	0.00025	0.00011	0.00036	0.0001	0	3
11708	0.00022	8e-05	-1e-05	-0.00027	-0.00051	-0.00042	-0.00033	-1e-05	3
11709	0.00022	8e-05	-1e-05	-0.00027	-0.00051	-0.00042	-0.00033	-1e-05	3
11710	0.00022	8e-05	-1e-05	-0.00027	-0.00051	-0.00042	-0.00033	-1e-05	3
11711	0.00022	8e-05	-1e-05	-0.00027	-0.00051	-0.00042	-0.00033	-1e-05	3
11712	0.00022	8e-05	-1e-05	-0.00027	-0.00051	-0.00042	-0.00033	-1e-05	3
11713	0.00022	8e-05	-1e-05	-0.00027	-0.00051	-0.00042	-0.00033	-1e-05	3
11714	0.00022	8e-05	-1e-05	-0.00027	-0.00051	-0.00042	-0.00033	-1e-05	3
11715	8e-05	-2e-05	-1e-05	6e-05	-6e-05	7e-05	9e-05	-4e-05	3
11716	0.00015	-1e-05	2e-05	0.00015	-5e-05	-0.00018	-3e-05	5e-05	3
11717	0.00015	-1e-05	2e-05	0.00015	-5e-05	-0.00018	-3e-05	5e-05	3
11718	0.00015	-1e-05	2e-05	0.00015	-5e-05	-0.00018	-3e-05	5e-05	3
11719	0.00015	-1e-05	2e-05	0.00015	-5e-05	-0.00018	-3e-05	5e-05	3
11720	0.00015	-1e-05	2e-05	0.00015	-5e-05	-0.00018	-3e-05	5e-05	3
11721	0.00015	-1e-05	2e-05	0.00015	-5e-05	-0.00018	-3e-05	5e-05	3
11722	0.00015	-1e-05	2e-05	0.00015	-5e-05	-0.00018	-3e-05	5e-05	3
11723	0.00015	-1e-05	2e-05	0.00015	-5e-05	-0.00018	-3e-05	5e-05	3
11724	0.00015	-1e-05	2e-05	0.00015	-5e-05	-0.00018	-3e-05	5e-05	3
11725	0.00015	-1e-05	2e-05	0.00015	-5e-05	-0.00018	-3e-05	5e-05	3
11726	0.00015	-1e-05	2e-05	0.00015	-5e-05	-0.00018	-3e-05	5e-05	3
11727	0.00015	-1e-05	2e-05	0.00015	-5e-05	-0.00018	-3e-05	5e-05	3
11728	0.00015	-1e-05	2e-05	0.00015	-5e-05	-0.00018	-3e-05	5e-05	3
11729	0.00015	-1e-05	2e-05	0.00015	-5e-05	-0.00018	-3e-05	5e-05	3
11730	0.00015	-1e-05	2e-05	0.00015	-5e-05	-0.00018	-3e-05	5e-05	3
11731	0.00015	-1e-05	2e-05	0.00015	-5e-05	-0.00018	-3e-05	5e-05	3
11732	0.00015	-1e-05	2e-05	0.00015	-5e-05	-0.00018	-3e-05	5e-05	3
11733	0.00015	-1e-05	2e-05	0.00015	-5e-05	-0.00018	-3e-05	5e-05	3
11734	0.00015	-1e-05	2e-05	0.00015	-5e-05	-0.00018	-3e-05	5e-05	3
11735	0.00015	-1e-05	2e-05	0.00015	-5e-05	-0.00018	-3e-05	5e-05	3
11736	0.00015	-1e-05	2e-05	0.00015	-5e-05	-0.00018	-3e-05	5e-05	3
11738	0.00015	-1e-05	2e-05	0.00015	-5e-05	-0.00018	-3e-05	5e-05	3
11739	0.00016	-1e-05	0	1e-05	0.00027	-6e-05	-0.00023	-4e-05	3
11740	0.00016	-1e-05	0	1e-05	0.00027	-6e-05	-0.00023	-4e-05	3
11741	0.00016	-1e-05	0	1e-05	0.00027	-6e-05	-0.00023	-4e-05	3
11742	0.00016	-1e-05	0	1e-05	0.00027	-6e-05	-0.00023	-4e-05	3
11743	0.00016	-1e-05	0	1e-05	0.00027	-6e-05	-0.00023	-4e-05	3
11744	0.00016	-1e-05	0	1e-05	0.00027	-6e-05	-0.00023	-4e-05	3
11745	0.00016	-1e-05	0	1e-05	0.00027	-6e-05	-0.00023	-4e-05	3
11746	0.00016	-1e-05	0	1e-05	0.00027	-6e-05	-0.00023	-4e-05	3
11747	0.00016	-1e-05	0	1e-05	0.00027	-6e-05	-0.00023	-4e-05	3
11748	0.00016	-1e-05	0	1e-05	0.00027	-6e-05	-0.00023	-4e-05	3
11749	0.00016	-1e-05	0	1e-05	0.00027	-6e-05	-0.00023	-4e-05	3
11750	0.00016	-1e-05	0	1e-05	0.00027	-6e-05	-0.00023	-4e-05	3
11751	0.00016	-1e-05	0	1e-05	0.00027	-6e-05	-0.00023	-4e-05	3
11752	0.00014	-3e-05	-1e-05	2e-05	-2e-05	-5e-05	-0.00061	-0.00073	3
11753	0.00014	-3e-05	-1e-05	2e-05	-2e-05	-5e-05	-0.00061	-0.00073	3
11754	0.00014	-3e-05	-1e-05	2e-05	-2e-05	-5e-05	-0.00061	-0.00073	3
11755	0.00014	-3e-05	-1e-05	2e-05	-2e-05	-5e-05	-0.00061	-0.00073	3
11756	0.00014	-3e-05	-1e-05	2e-05	-2e-05	-5e-05	-0.00061	-0.00073	3
11757	0.00014	-3e-05	-1e-05	2e-05	-2e-05	-5e-05	-0.00061	-0.00073	3
11758	0.00014	-3e-05	-1e-05	2e-05	-2e-05	-5e-05	-0.00061	-0.00073	3
11759	0.00014	-3e-05	-1e-05	2e-05	-2e-05	-5e-05	-0.00061	-0.00073	3
11760	0.00024	-1e-05	-1e-05	-2e-05	0.00027	8e-05	-0.00011	-3e-05	3
11761	0.00024	-1e-05	-1e-05	-2e-05	0.00027	8e-05	-0.00011	-3e-05	3
11762	0.00024	-1e-05	-1e-05	-2e-05	0.00027	8e-05	-0.00011	-3e-05	3
11763	0.00024	-1e-05	-1e-05	-2e-05	0.00027	8e-05	-0.00011	-3e-05	3
11764	0.00024	-1e-05	-1e-05	-2e-05	0.00027	8e-05	-0.00011	-3e-05	3
11765	0.00024	-1e-05	-1e-05	-2e-05	0.00027	8e-05	-0.00011	-3e-05	3
11766	0.00024	-1e-05	-1e-05	-2e-05	0.00027	8e-05	-0.00011	-3e-05	3
11767	0.00024	-1e-05	-1e-05	-2e-05	0.00027	8e-05	-0.00011	-3e-05	3
11768	0.00024	-1e-05	-1e-05	-2e-05	0.00027	8e-05	-0.00011	-3e-05	3
11769	0.00024	-1e-05	-1e-05	-2e-05	0.00027	8e-05	-0.00011	-3e-05	3
11770	0.00024	-1e-05	-1e-05	-2e-05	0.00027	8e-05	-0.00011	-3e-05	3
11771	0.00024	-1e-05	-1e-05	-2e-05	0.00027	8e-05	-0.00011	-3e-05	3
11772	0.00024	-1e-05	-1e-05	-2e-05	0.00027	8e-05	-0.00011	-3e-05	3
11773	0.00024	-1e-05	-1e-05	-2e-05	0.00027	8e-05	-0.00011	-3e-05	3
11774	0.00024	-1e-05	-1e-05	-2e-05	0.00027	8e-05	-0.00011	-3e-05	3
11775	0.00011	-1e-05	2e-05	-8e-05	-0.00028	7e-05	-0.00064	-0.0005	3
11776	-5e-05	-5e-05	-2e-05	2e-05	0.00043	-7e-05	-5e-05	-0.00039	3
11777	-5e-05	-5e-05	-2e-05	2e-05	0.00043	-7e-05	-5e-05	-0.00039	3
11778	-5e-05	-5e-05	-2e-05	2e-05	0.00043	-7e-05	-5e-05	-0.00039	3
11779	-5e-05	-5e-05	-2e-05	2e-05	0.00043	-7e-05	-5e-05	-0.00039	3
11780	-5e-05	-5e-05	-2e-05	2e-05	0.00043	-7e-05	-5e-05	-0.00039	3
11781	-5e-05	-5e-05	-2e-05	2e-05	0.00043	-7e-05	-5e-05	-0.00039	3
11782	-5e-05	-5e-05	-2e-05	2e-05	0.00043	-7e-05	-5e-05	-0.00039	3
11783	-5e-05	-5e-05	-2e-05	2e-05	0.00043	-7e-05	-5e-05	-0.00039	3
11784	-5e-05	-5e-05	-2e-05	2e-05	0.00043	-7e-05	-5e-05	-0.00039	3
11785	-5e-05	-5e-05	-2e-05	2e-05	0.00043	-7e-05	-5e-05	-0.00039	3
11786	-5e-05	-5e-05	-2e-05	2e-05	0.00043	-7e-05	-5e-05	-0.00039	3
11788	-5e-05	-5e-05	-2e-05	2e-05	0.00043	-7e-05	-5e-05	-0.00039	3
11789	-5e-05	-5e-05	-2e-05	2e-05	0.00043	-7e-05	-5e-05	-0.00039	3
11790	-5e-05	-5e-05	-2e-05	2e-05	0.00043	-7e-05	-5e-05	-0.00039	3
11791	-5e-05	-5e-05	-2e-05	2e-05	0.00043	-7e-05	-5e-05	-0.00039	3
11792	-5e-05	-5e-05	-2e-05	2e-05	0.00043	-7e-05	-5e-05	-0.00039	3
11793	-5e-05	-5e-05	-2e-05	2e-05	0.00043	-7e-05	-5e-05	-0.00039	3
11794	-5e-05	-5e-05	-2e-05	2e-05	0.00043	-7e-05	-5e-05	-0.00039	3
11795	-5e-05	-5e-05	-2e-05	2e-05	0.00043	-7e-05	-5e-05	-0.00039	3
11796	-5e-05	-5e-05	-2e-05	2e-05	0.00043	-7e-05	-5e-05	-0.00039	3
11797	-5e-05	-5e-05	-2e-05	2e-05	0.00043	-7e-05	-5e-05	-0.00039	3
11798	-5e-05	-5e-05	-2e-05	2e-05	0.00043	-7e-05	-5e-05	-0.00039	3
11799	-0.00011	-3e-05	-3e-05	-5e-05	0.00066	0.00014	0.00023	0.00011	3
11800	-0.00021	-8e-05	-5e-05	-3e-05	1e-05	9e-05	0.00015	-1e-05	3
11801	-0.00021	-8e-05	-5e-05	-3e-05	1e-05	9e-05	0.00015	-1e-05	3
11802	-0.00021	-8e-05	-5e-05	-3e-05	1e-05	9e-05	0.00015	-1e-05	3
11803	-0.00021	-8e-05	-5e-05	-3e-05	1e-05	9e-05	0.00015	-1e-05	3
11804	-0.00021	-8e-05	-5e-05	-3e-05	1e-05	9e-05	0.00015	-1e-05	3
11805	-0.00021	-8e-05	-5e-05	-3e-05	1e-05	9e-05	0.00015	-1e-05	3
11806	-0.00021	-8e-05	-5e-05	-3e-05	1e-05	9e-05	0.00015	-1e-05	3
11807	-0.00021	-8e-05	-5e-05	-3e-05	1e-05	9e-05	0.00015	-1e-05	3
11808	-0.00021	-8e-05	-5e-05	-3e-05	1e-05	9e-05	0.00015	-1e-05	3
11809	-0.00021	-8e-05	-5e-05	-3e-05	1e-05	9e-05	0.00015	-1e-05	3
11810	-0.00021	-8e-05	-5e-05	-3e-05	1e-05	9e-05	0.00015	-1e-05	3
11811	-0.00021	-8e-05	-5e-05	-3e-05	1e-05	9e-05	0.00015	-1e-05	3
11812	-0.00021	-8e-05	-5e-05	-3e-05	1e-05	9e-05	0.00015	-1e-05	3
11813	-0.00021	-8e-05	-5e-05	-3e-05	1e-05	9e-05	0.00015	-1e-05	3
11814	-0.00021	-8e-05	-5e-05	-3e-05	1e-05	9e-05	0.00015	-1e-05	3
11815	-0.00021	-8e-05	-5e-05	-3e-05	1e-05	9e-05	0.00015	-1e-05	3
11816	-0.00021	-8e-05	-5e-05	-3e-05	1e-05	9e-05	0.00015	-1e-05	3
11817	-0.00021	-8e-05	-5e-05	-3e-05	1e-05	9e-05	0.00015	-1e-05	3
11818	-0.00021	-8e-05	-5e-05	-3e-05	1e-05	9e-05	0.00015	-1e-05	3
11819	-0.00021	-8e-05	-5e-05	-3e-05	1e-05	9e-05	0.00015	-1e-05	3
11820	-0.00021	-8e-05	-5e-05	-3e-05	1e-05	9e-05	0.00015	-1e-05	3
11821	-5e-05	-6e-05	-3e-05	8e-05	0.00055	0.0001	-0.00052	-0.00034	3
11822	7e-05	0.00012	8e-05	1e-05	-0.00044	-0.00016	0.00086	0.00091	3
11823	7e-05	0.00012	8e-05	1e-05	-0.00044	-0.00016	0.00086	0.00091	3
11824	7e-05	0.00012	8e-05	1e-05	-0.00044	-0.00016	0.00086	0.00091	3
11825	7e-05	0.00012	8e-05	1e-05	-0.00044	-0.00016	0.00086	0.00091	3
11826	7e-05	0.00012	8e-05	1e-05	-0.00044	-0.00016	0.00086	0.00091	3
11827	7e-05	0.00012	8e-05	1e-05	-0.00044	-0.00016	0.00086	0.00091	3
11828	7e-05	0.00012	8e-05	1e-05	-0.00044	-0.00016	0.00086	0.00091	3
11829	7e-05	0.00012	8e-05	1e-05	-0.00044	-0.00016	0.00086	0.00091	3
11830	7e-05	0.00012	8e-05	1e-05	-0.00044	-0.00016	0.00086	0.00091	3
11831	7e-05	0.00012	8e-05	1e-05	-0.00044	-0.00016	0.00086	0.00091	3
11832	7e-05	0.00012	8e-05	1e-05	-0.00044	-0.00016	0.00086	0.00091	3
11833	7e-05	0.00012	8e-05	1e-05	-0.00044	-0.00016	0.00086	0.00091	3
11834	7e-05	0.00012	8e-05	1e-05	-0.00044	-0.00016	0.00086	0.00091	3
11835	0	-3e-05	-4e-05	-5e-05	-8e-05	-5e-05	5e-05	0.0001	3
11836	-2e-05	-7e-05	-4e-05	0.00018	-0.00011	-7e-05	-0.00017	0	3
11838	-2e-05	-7e-05	-4e-05	0.00018	-0.00011	-7e-05	-0.00017	0	3
11839	-2e-05	-7e-05	-4e-05	0.00018	-0.00011	-7e-05	-0.00017	0	3
11840	-2e-05	-7e-05	-4e-05	0.00018	-0.00011	-7e-05	-0.00017	0	3
11841	-2e-05	-7e-05	-4e-05	0.00018	-0.00011	-7e-05	-0.00017	0	3
11842	-2e-05	-7e-05	-4e-05	0.00018	-0.00011	-7e-05	-0.00017	0	3
11843	-2e-05	-7e-05	-4e-05	0.00018	-0.00011	-7e-05	-0.00017	0	3
11844	-2e-05	-7e-05	-4e-05	0.00018	-0.00011	-7e-05	-0.00017	0	3
11845	-2e-05	-7e-05	-4e-05	0.00018	-0.00011	-7e-05	-0.00017	0	3
11846	-2e-05	-7e-05	-4e-05	0.00018	-0.00011	-7e-05	-0.00017	0	3
11847	-2e-05	-7e-05	-4e-05	0.00018	-0.00011	-7e-05	-0.00017	0	3
11848	-2e-05	-7e-05	-4e-05	0.00018	-0.00011	-7e-05	-0.00017	0	3
11849	-2e-05	-7e-05	-4e-05	0.00018	-0.00011	-7e-05	-0.00017	0	3
11850	-2e-05	-7e-05	-4e-05	0.00018	-0.00011	-7e-05	-0.00017	0	3
11851	-2e-05	-7e-05	-4e-05	0.00018	-0.00011	-7e-05	-0.00017	0	3
11852	-2e-05	-7e-05	-4e-05	0.00018	-0.00011	-7e-05	-0.00017	0	3
11853	-2e-05	-7e-05	-4e-05	0.00018	-0.00011	-7e-05	-0.00017	0	3
11854	-2e-05	-7e-05	-4e-05	0.00018	-0.00011	-7e-05	-0.00017	0	3
11855	-2e-05	-7e-05	-4e-05	0.00018	-0.00011	-7e-05	-0.00017	0	3
11856	-2e-05	-7e-05	-4e-05	0.00018	-0.00011	-7e-05	-0.00017	0	3
11857	-2e-05	-7e-05	-4e-05	0.00018	-0.00011	-7e-05	-0.00017	0	3
11858	-4e-05	1e-05	2e-05	1e-05	0.00041	-8e-05	0.00024	0.00016	3
11859	-0.00034	-0.0001	-4e-05	-8e-05	-0.00017	-0.00012	-0.00052	-0.00026	3
11860	-0.00034	-0.0001	-4e-05	-8e-05	-0.00017	-0.00012	-0.00052	-0.00026	3
11861	-0.00034	-0.0001	-4e-05	-8e-05	-0.00017	-0.00012	-0.00052	-0.00026	3
11862	-0.00034	-0.0001	-4e-05	-8e-05	-0.00017	-0.00012	-0.00052	-0.00026	3
11863	-0.00034	-0.0001	-4e-05	-8e-05	-0.00017	-0.00012	-0.00052	-0.00026	3
11864	-0.00034	-0.0001	-4e-05	-8e-05	-0.00017	-0.00012	-0.00052	-0.00026	3
11865	-0.00034	-0.0001	-4e-05	-8e-05	-0.00017	-0.00012	-0.00052	-0.00026	3
11866	-0.00034	-0.0001	-4e-05	-8e-05	-0.00017	-0.00012	-0.00052	-0.00026	3
11867	-0.00034	-0.0001	-4e-05	-8e-05	-0.00017	-0.00012	-0.00052	-0.00026	3
11868	-0.00034	-0.0001	-4e-05	-8e-05	-0.00017	-0.00012	-0.00052	-0.00026	3
11869	-0.00034	-0.0001	-4e-05	-8e-05	-0.00017	-0.00012	-0.00052	-0.00026	3
11870	-0.00034	-0.0001	-4e-05	-8e-05	-0.00017	-0.00012	-0.00052	-0.00026	3
11871	-0.00034	-0.0001	-4e-05	-8e-05	-0.00017	-0.00012	-0.00052	-0.00026	3
11872	0.00033	9e-05	-1e-05	1e-05	-0.00017	1e-05	0.00019	-2e-05	3
11873	0.00033	9e-05	-1e-05	1e-05	-0.00017	1e-05	0.00019	-2e-05	3
11874	0.00033	9e-05	-1e-05	1e-05	-0.00017	1e-05	0.00019	-2e-05	3
11875	0.00033	9e-05	-1e-05	1e-05	-0.00017	1e-05	0.00019	-2e-05	3
11876	0.00033	9e-05	-1e-05	1e-05	-0.00017	1e-05	0.00019	-2e-05	3
11877	0.00033	9e-05	-1e-05	1e-05	-0.00017	1e-05	0.00019	-2e-05	3
11878	0.00033	9e-05	-1e-05	1e-05	-0.00017	1e-05	0.00019	-2e-05	3
11879	0.00033	9e-05	-1e-05	1e-05	-0.00017	1e-05	0.00019	-2e-05	3
11880	2e-05	-1e-05	-2e-05	-0.00013	6e-05	0.0002	0.00044	8e-05	3
11881	2e-05	-1e-05	-2e-05	-0.00013	6e-05	0.0002	0.00044	8e-05	3
11882	2e-05	-1e-05	-2e-05	-0.00013	6e-05	0.0002	0.00044	8e-05	3
11883	2e-05	-1e-05	-2e-05	-0.00013	6e-05	0.0002	0.00044	8e-05	3
11884	2e-05	-1e-05	-2e-05	-0.00013	6e-05	0.0002	0.00044	8e-05	3
11885	2e-05	-1e-05	-2e-05	-0.00013	6e-05	0.0002	0.00044	8e-05	3
11886	2e-05	-1e-05	-2e-05	-0.00013	6e-05	0.0002	0.00044	8e-05	3
11888	2e-05	-1e-05	-2e-05	-0.00013	6e-05	0.0002	0.00044	8e-05	3
11889	2e-05	-1e-05	-2e-05	-0.00013	6e-05	0.0002	0.00044	8e-05	3
11890	2e-05	-1e-05	-2e-05	-0.00013	6e-05	0.0002	0.00044	8e-05	3
11891	2e-05	-1e-05	-2e-05	-0.00013	6e-05	0.0002	0.00044	8e-05	3
11892	2e-05	-1e-05	-2e-05	-0.00013	6e-05	0.0002	0.00044	8e-05	3
11893	2e-05	-1e-05	-2e-05	-0.00013	6e-05	0.0002	0.00044	8e-05	3
11894	2e-05	-1e-05	-2e-05	-0.00013	6e-05	0.0002	0.00044	8e-05	3
11895	2e-05	-1e-05	-2e-05	-0.00013	6e-05	0.0002	0.00044	8e-05	3
11896	2e-05	-1e-05	-2e-05	-0.00013	6e-05	0.0002	0.00044	8e-05	3
11897	2e-05	-1e-05	-2e-05	-0.00013	6e-05	0.0002	0.00044	8e-05	3
11898	2e-05	-1e-05	-2e-05	-0.00013	6e-05	0.0002	0.00044	8e-05	3
11899	2e-05	-1e-05	-2e-05	-0.00013	6e-05	0.0002	0.00044	8e-05	3
11900	2e-05	-1e-05	-2e-05	-0.00013	6e-05	0.0002	0.00044	8e-05	3
