29278	3e-05	1e-05	-5e-05	-0.00075	0.00013	-0.00014	-0.0001	-5e-05	6
29279	3e-05	1e-05	-5e-05	-0.00075	0.00013	-0.00014	-0.0001	-5e-05	6
29280	3e-05	1e-05	-5e-05	-0.00075	0.00013	-0.00014	-0.0001	-5e-05	6
29281	3e-05	1e-05	-5e-05	-0.00075	0.00013	-0.00014	-0.0001	-5e-05	6
29282	7e-05	7e-05	2e-05	-0.00031	0.00071	0.00029	0.00021	0.00011	6
29283	7e-05	7e-05	2e-05	-0.00031	0.00071	0.00029	0.00021	0.00011	6
29284	1e-05	-2e-05	-1e-05	-0.00018	0.00015	-0.0003	-0.00035	-4e-05	6
29285	-1e-05	-2e-05	2e-05	0.00046	-2e-05	-0.00019	-0.00028	-2e-05	6
29286	-1e-05	-2e-05	2e-05	0.00046	-2e-05	-0.00019	-0.00028	-2e-05	6
29289	-1e-05	-1e-05	-3e-05	-0.00013	-0.00039	0.00011	0.00012	2e-05	6
29290	-1e-05	-1e-05	-3e-05	-0.00013	-0.00039	0.00011	0.00012	2e-05	6
29291	-1e-05	-1e-05	-3e-05	-0.00013	-0.00039	0.00011	0.00012	2e-05	6
29292	-1e-05	-1e-05	-3e-05	-0.00013	-0.00039	0.00011	0.00012	2e-05	6
29293	-1e-05	-1e-05	-3e-05	-0.00013	-0.00039	0.00011	0.00012	2e-05	6
29294	-1e-05	-1e-05	-3e-05	-0.00013	-0.00039	0.00011	0.00012	2e-05	6
29295	-1e-05	-1e-05	-3e-05	-0.00013	-0.00039	0.00011	0.00012	2e-05	6
29296	-1e-05	-1e-05	-3e-05	-0.00013	-0.00039	0.00011	0.00012	2e-05	6
29297	-1e-05	-1e-05	-3e-05	-0.00013	-0.00039	0.00011	0.00012	2e-05	6
29298	-1e-05	-1e-05	-3e-05	-0.00013	-0.00039	0.00011	0.00012	2e-05	6
29299	-1e-05	-1e-05	-3e-05	-0.00013	-0.00039	0.00011	0.00012	2e-05	6
29300	-1e-05	-1e-05	-3e-05	-0.00013	-0.00039	0.00011	0.00012	2e-05	6
29301	-1e-05	-1e-05	-3e-05	-0.00013	-0.00039	0.00011	0.00012	2e-05	6
29302	-1e-05	-1e-05	-3e-05	-0.00013	-0.00039	0.00011	0.00012	2e-05	6
29303	-1e-05	-1e-05	-3e-05	-0.00013	-0.00039	0.00011	0.00012	2e-05	6
29304	-4e-05	-4e-05	3e-05	0.00058	-0.00112	-0.00019	-3e-05	-7e-05	6
29305	-1e-05	-2e-05	2e-05	-3e-05	-0.00053	-0.00019	2e-05	2e-05	6
29306	3e-05	0	-7e-05	-0.00011	-0.00067	-2e-05	9e-05	6e-05	6
29307	3e-05	0	-7e-05	-0.00011	-0.00067	-2e-05	9e-05	6e-05	6
29308	3e-05	0	-7e-05	-0.00011	-0.00067	-2e-05	9e-05	6e-05	6
29309	3e-05	0	-7e-05	-0.00011	-0.00067	-2e-05	9e-05	6e-05	6
29310	3e-05	0	-7e-05	-0.00011	-0.00067	-2e-05	9e-05	6e-05	6
29311	3e-05	0	-7e-05	-0.00011	-0.00067	-2e-05	9e-05	6e-05	6
29312	3e-05	0	-7e-05	-0.00011	-0.00067	-2e-05	9e-05	6e-05	6
29313	3e-05	0	-7e-05	-0.00011	-0.00067	-2e-05	9e-05	6e-05	6
29314	3e-05	0	-7e-05	-0.00011	-0.00067	-2e-05	9e-05	6e-05	6
29315	3e-05	0	-7e-05	-0.00011	-0.00067	-2e-05	9e-05	6e-05	6
29316	3e-05	0	-7e-05	-0.00011	-0.00067	-2e-05	9e-05	6e-05	6
29317	3e-05	0	-7e-05	-0.00011	-0.00067	-2e-05	9e-05	6e-05	6
29318	3e-05	0	-7e-05	-0.00011	-0.00067	-2e-05	9e-05	6e-05	6
29319	3e-05	0	-7e-05	-0.00011	-0.00067	-2e-05	9e-05	6e-05	6
29320	3e-05	0	-7e-05	-0.00011	-0.00067	-2e-05	9e-05	6e-05	6
29321	3e-05	0	-7e-05	-0.00011	-0.00067	-2e-05	9e-05	6e-05	6
29322	3e-05	0	-7e-05	-0.00011	-0.00067	-2e-05	9e-05	6e-05	6
29323	3e-05	0	-7e-05	-0.00011	-0.00067	-2e-05	9e-05	6e-05	6
29324	3e-05	0	-7e-05	-0.00011	-0.00067	-2e-05	9e-05	6e-05	6
29325	3e-05	0	-7e-05	-0.00011	-0.00067	-2e-05	9e-05	6e-05	6
29326	3e-05	0	-7e-05	-0.00011	-0.00067	-2e-05	9e-05	6e-05	6
29327	3e-05	0	-7e-05	-0.00011	-0.00067	-2e-05	9e-05	6e-05	6
29328	3e-05	0	-7e-05	-0.00011	-0.00067	-2e-05	9e-05	6e-05	6
29329	3e-05	0	-7e-05	-0.00011	-0.00067	-2e-05	9e-05	6e-05	6
29330	3e-05	0	-7e-05	-0.00011	-0.00067	-2e-05	9e-05	6e-05	6
29331	3e-05	0	-7e-05	-0.00011	-0.00067	-2e-05	9e-05	6e-05	6
29332	3e-05	0	-7e-05	-0.00011	-0.00067	-2e-05	9e-05	6e-05	6
29333	4e-05	3e-05	7e-05	-0.00053	0.00058	5e-05	-7e-05	-1e-05	6
29334	-3e-05	-5e-05	-5e-05	-0.00035	-0.00039	-0.0002	-0.00022	-2e-05	6
29335	-3e-05	1e-05	7e-05	0.00028	0.00097	0.00012	-1e-05	-4e-05	6
29336	-3e-05	1e-05	7e-05	0.00028	0.00097	0.00012	-1e-05	-4e-05	6
29338	-3e-05	1e-05	7e-05	0.00028	0.00097	0.00012	-1e-05	-4e-05	6
29339	-3e-05	1e-05	7e-05	0.00028	0.00097	0.00012	-1e-05	-4e-05	6
29340	-8e-05	-5e-05	4e-05	-0.00038	-0.00012	-0.00014	-0.00046	-0.00055	6
29341	-8e-05	-5e-05	4e-05	-0.00038	-0.00012	-0.00014	-0.00046	-0.00055	6
29342	-8e-05	-5e-05	4e-05	-0.00038	-0.00012	-0.00014	-0.00046	-0.00055	6
29343	-8e-05	-5e-05	4e-05	-0.00038	-0.00012	-0.00014	-0.00046	-0.00055	6
29344	-8e-05	-5e-05	4e-05	-0.00038	-0.00012	-0.00014	-0.00046	-0.00055	6
29345	-8e-05	-5e-05	4e-05	-0.00038	-0.00012	-0.00014	-0.00046	-0.00055	6
29346	-8e-05	-5e-05	4e-05	-0.00038	-0.00012	-0.00014	-0.00046	-0.00055	6
29347	-8e-05	-5e-05	4e-05	-0.00038	-0.00012	-0.00014	-0.00046	-0.00055	6
29348	-8e-05	-5e-05	4e-05	-0.00038	-0.00012	-0.00014	-0.00046	-0.00055	6
29349	-8e-05	-5e-05	4e-05	-0.00038	-0.00012	-0.00014	-0.00046	-0.00055	6
29350	-8e-05	-5e-05	4e-05	-0.00038	-0.00012	-0.00014	-0.00046	-0.00055	6
29351	-8e-05	-5e-05	4e-05	-0.00038	-0.00012	-0.00014	-0.00046	-0.00055	6
29352	-8e-05	-5e-05	4e-05	-0.00038	-0.00012	-0.00014	-0.00046	-0.00055	6
29353	-8e-05	-5e-05	4e-05	-0.00038	-0.00012	-0.00014	-0.00046	-0.00055	6
29354	-8e-05	-5e-05	4e-05	-0.00038	-0.00012	-0.00014	-0.00046	-0.00055	6
29355	-8e-05	-5e-05	4e-05	-0.00038	-0.00012	-0.00014	-0.00046	-0.00055	6
29356	-8e-05	-5e-05	4e-05	-0.00038	-0.00012	-0.00014	-0.00046	-0.00055	6
29357	-8e-05	-5e-05	4e-05	-0.00038	-0.00012	-0.00014	-0.00046	-0.00055	6
29358	-8e-05	-5e-05	4e-05	-0.00038	-0.00012	-0.00014	-0.00046	-0.00055	6
29359	-8e-05	-5e-05	4e-05	-0.00038	-0.00012	-0.00014	-0.00046	-0.00055	6
29360	-8e-05	-5e-05	4e-05	-0.00038	-0.00012	-0.00014	-0.00046	-0.00055	6
29361	-8e-05	-5e-05	4e-05	-0.00038	-0.00012	-0.00014	-0.00046	-0.00055	6
29362	-8e-05	-5e-05	4e-05	-0.00038	-0.00012	-0.00014	-0.00046	-0.00055	6
29363	-8e-05	-5e-05	4e-05	-0.00038	-0.00012	-0.00014	-0.00046	-0.00055	6
29364	0	2e-05	-9e-05	-0.00057	-0.00108	-0.00014	4e-05	-4e-05	6
29365	2e-05	0	-5e-05	-0.00028	0.00059	0.00048	0.00032	0.0002	6
29366	-5e-05	-5e-05	0	5e-05	0.00081	-0.00013	-0.00024	-8e-05	6
29367	1e-05	5e-05	4e-05	0.00106	-0.00042	0.00045	0.0001	2e-05	6
29368	1e-05	5e-05	4e-05	0.00106	-0.00042	0.00045	0.0001	2e-05	6
29369	1e-05	5e-05	4e-05	0.00106	-0.00042	0.00045	0.0001	2e-05	6
29370	1e-05	5e-05	4e-05	0.00106	-0.00042	0.00045	0.0001	2e-05	6
29371	1e-05	5e-05	4e-05	0.00106	-0.00042	0.00045	0.0001	2e-05	6
29372	1e-05	5e-05	4e-05	0.00106	-0.00042	0.00045	0.0001	2e-05	6
29373	1e-05	5e-05	4e-05	0.00106	-0.00042	0.00045	0.0001	2e-05	6
29374	1e-05	5e-05	4e-05	0.00106	-0.00042	0.00045	0.0001	2e-05	6
29375	1e-05	5e-05	4e-05	0.00106	-0.00042	0.00045	0.0001	2e-05	6
29376	1e-05	5e-05	4e-05	0.00106	-0.00042	0.00045	0.0001	2e-05	6
29377	1e-05	5e-05	4e-05	0.00106	-0.00042	0.00045	0.0001	2e-05	6
29378	1e-05	5e-05	4e-05	0.00106	-0.00042	0.00045	0.0001	2e-05	6
29379	1e-05	5e-05	4e-05	0.00106	-0.00042	0.00045	0.0001	2e-05	6
29380	1e-05	5e-05	4e-05	0.00106	-0.00042	0.00045	0.0001	2e-05	6
29381	1e-05	5e-05	4e-05	0.00106	-0.00042	0.00045	0.0001	2e-05	6
29382	1e-05	5e-05	4e-05	0.00106	-0.00042	0.00045	0.0001	2e-05	6
29383	1e-05	5e-05	4e-05	0.00106	-0.00042	0.00045	0.0001	2e-05	6
29384	1e-05	5e-05	4e-05	0.00106	-0.00042	0.00045	0.0001	2e-05	6
29385	1e-05	5e-05	4e-05	0.00106	-0.00042	0.00045	0.0001	2e-05	6
29386	1e-05	5e-05	4e-05	0.00106	-0.00042	0.00045	0.0001	2e-05	6
29388	1e-05	5e-05	4e-05	0.00106	-0.00042	0.00045	0.0001	2e-05	6
29389	1e-05	5e-05	4e-05	0.00106	-0.00042	0.00045	0.0001	2e-05	6
29390	1e-05	5e-05	4e-05	0.00106	-0.00042	0.00045	0.0001	2e-05	6
29391	1e-05	5e-05	4e-05	0.00106	-0.00042	0.00045	0.0001	2e-05	6
29392	1e-05	5e-05	4e-05	0.00106	-0.00042	0.00045	0.0001	2e-05	6
29393	1e-05	5e-05	4e-05	0.00106	-0.00042	0.00045	0.0001	2e-05	6
29394	-5e-05	-5e-05	-2e-05	0.00049	-9e-05	-0.00027	3e-05	2e-05	6
29395	2e-05	3e-05	-6e-05	-0.00049	-0.00031	4e-05	-0.00018	-8e-05	6
29396	-1e-05	-2e-05	-2e-05	6e-05	-0.00043	-0.00033	0.00027	7e-05	6
29397	-1e-05	-2e-05	-2e-05	6e-05	-0.00043	-0.00033	0.00027	7e-05	6
29398	-1e-05	-2e-05	-2e-05	6e-05	-0.00043	-0.00033	0.00027	7e-05	6
29399	-1e-05	-2e-05	-2e-05	6e-05	-0.00043	-0.00033	0.00027	7e-05	6
29400	-4e-05	-2e-05	-7e-05	-0.00015	-0.00069	0.00017	-0.0002	-1e-05	6
29401	-4e-05	-2e-05	-7e-05	-0.00015	-0.00069	0.00017	-0.0002	-1e-05	6
29402	-4e-05	-2e-05	-7e-05	-0.00015	-0.00069	0.00017	-0.0002	-1e-05	6
29403	-4e-05	-2e-05	-7e-05	-0.00015	-0.00069	0.00017	-0.0002	-1e-05	6
29404	-4e-05	-2e-05	-7e-05	-0.00015	-0.00069	0.00017	-0.0002	-1e-05	6
29405	-4e-05	-2e-05	-7e-05	-0.00015	-0.00069	0.00017	-0.0002	-1e-05	6
29406	-4e-05	-2e-05	-7e-05	-0.00015	-0.00069	0.00017	-0.0002	-1e-05	6
29407	-4e-05	-2e-05	-7e-05	-0.00015	-0.00069	0.00017	-0.0002	-1e-05	6
29408	-4e-05	-2e-05	-7e-05	-0.00015	-0.00069	0.00017	-0.0002	-1e-05	6
29409	-4e-05	-2e-05	-7e-05	-0.00015	-0.00069	0.00017	-0.0002	-1e-05	6
29410	-4e-05	-2e-05	-7e-05	-0.00015	-0.00069	0.00017	-0.0002	-1e-05	6
29411	-4e-05	-2e-05	-7e-05	-0.00015	-0.00069	0.00017	-0.0002	-1e-05	6
29412	-4e-05	-2e-05	-7e-05	-0.00015	-0.00069	0.00017	-0.0002	-1e-05	6
29413	-4e-05	-2e-05	-7e-05	-0.00015	-0.00069	0.00017	-0.0002	-1e-05	6
29414	-4e-05	-2e-05	-7e-05	-0.00015	-0.00069	0.00017	-0.0002	-1e-05	6
29415	-4e-05	-2e-05	-7e-05	-0.00015	-0.00069	0.00017	-0.0002	-1e-05	6
29416	-5e-05	-3e-05	0.00015	0.00057	0.00047	0.00039	-1e-05	-5e-05	6
29417	-5e-05	-3e-05	0.00015	0.00057	0.00047	0.00039	-1e-05	-5e-05	6
29418	-5e-05	-3e-05	0.00015	0.00057	0.00047	0.00039	-1e-05	-5e-05	6
29419	-5e-05	-3e-05	0.00015	0.00057	0.00047	0.00039	-1e-05	-5e-05	6
29420	-5e-05	-3e-05	0.00015	0.00057	0.00047	0.00039	-1e-05	-5e-05	6
29421	-5e-05	-3e-05	0.00015	0.00057	0.00047	0.00039	-1e-05	-5e-05	6
29422	-5e-05	-3e-05	0.00015	0.00057	0.00047	0.00039	-1e-05	-5e-05	6
29423	-3e-05	-8e-05	0	-0.00031	-0.00049	-0.00022	0.00017	5e-05	6
29424	-3e-05	-8e-05	0	-0.00031	-0.00049	-0.00022	0.00017	5e-05	6
29425	-3e-05	-8e-05	0	-0.00031	-0.00049	-0.00022	0.00017	5e-05	6
29426	-6e-05	-8e-05	-9e-05	0.00019	0.00028	0.00014	0.00031	5e-05	6
29427	-6e-05	-8e-05	-9e-05	0.00019	0.00028	0.00014	0.00031	5e-05	6
29428	-6e-05	-8e-05	-9e-05	0.00019	0.00028	0.00014	0.00031	5e-05	6
29429	-6e-05	-8e-05	-9e-05	0.00019	0.00028	0.00014	0.00031	5e-05	6
29430	-6e-05	-8e-05	-9e-05	0.00019	0.00028	0.00014	0.00031	5e-05	6
29431	-6e-05	-8e-05	-9e-05	0.00019	0.00028	0.00014	0.00031	5e-05	6
29432	-6e-05	-8e-05	-9e-05	0.00019	0.00028	0.00014	0.00031	5e-05	6
29433	-6e-05	-8e-05	-9e-05	0.00019	0.00028	0.00014	0.00031	5e-05	6
29434	-6e-05	-8e-05	-9e-05	0.00019	0.00028	0.00014	0.00031	5e-05	6
29435	-6e-05	-8e-05	-9e-05	0.00019	0.00028	0.00014	0.00031	5e-05	6
29436	-6e-05	-8e-05	-9e-05	0.00019	0.00028	0.00014	0.00031	5e-05	6
29438	-6e-05	-8e-05	-9e-05	0.00019	0.00028	0.00014	0.00031	5e-05	6
29439	-6e-05	-8e-05	-9e-05	0.00019	0.00028	0.00014	0.00031	5e-05	6
29440	-6e-05	-8e-05	-9e-05	0.00019	0.00028	0.00014	0.00031	5e-05	6
29441	-6e-05	-8e-05	-9e-05	0.00019	0.00028	0.00014	0.00031	5e-05	6
29442	-6e-05	-8e-05	-9e-05	0.00019	0.00028	0.00014	0.00031	5e-05	6
29443	-6e-05	-8e-05	-9e-05	0.00019	0.00028	0.00014	0.00031	5e-05	6
29444	-6e-05	-8e-05	-9e-05	0.00019	0.00028	0.00014	0.00031	5e-05	6
29445	-6e-05	-8e-05	-9e-05	0.00019	0.00028	0.00014	0.00031	5e-05	6
29446	1e-05	0	0	-0.00017	0.00018	-5e-05	9e-05	3e-05	6
29447	1e-05	0	0	-0.00017	0.00018	-5e-05	9e-05	3e-05	6
29448	1e-05	0	0	-0.00017	0.00018	-5e-05	9e-05	3e-05	6
29449	1e-05	0	0	-0.00017	0.00018	-5e-05	9e-05	3e-05	6
29450	1e-05	0	0	-0.00017	0.00018	-5e-05	9e-05	3e-05	6
29451	1e-05	0	0	-0.00017	0.00018	-5e-05	9e-05	3e-05	6
29452	3e-05	1e-05	9e-05	0.00036	0.00089	-3e-05	-0.0001	6e-05	6
29453	3e-05	1e-05	9e-05	0.00036	0.00089	-3e-05	-0.0001	6e-05	6
29454	3e-05	1e-05	9e-05	0.00036	0.00089	-3e-05	-0.0001	6e-05	6
29455	3e-05	1e-05	9e-05	0.00036	0.00089	-3e-05	-0.0001	6e-05	6
29456	3e-05	1e-05	9e-05	0.00036	0.00089	-3e-05	-0.0001	6e-05	6
29457	3e-05	1e-05	9e-05	0.00036	0.00089	-3e-05	-0.0001	6e-05	6
29458	3e-05	1e-05	9e-05	0.00036	0.00089	-3e-05	-0.0001	6e-05	6
29459	3e-05	1e-05	9e-05	0.00036	0.00089	-3e-05	-0.0001	6e-05	6
29460	3e-05	1e-05	9e-05	0.00036	0.00089	-3e-05	-0.0001	6e-05	6
29461	3e-05	1e-05	9e-05	0.00036	0.00089	-3e-05	-0.0001	6e-05	6
29462	3e-05	1e-05	9e-05	0.00036	0.00089	-3e-05	-0.0001	6e-05	6
29463	3e-05	1e-05	9e-05	0.00036	0.00089	-3e-05	-0.0001	6e-05	6
29464	3e-05	1e-05	9e-05	0.00036	0.00089	-3e-05	-0.0001	6e-05	6
29465	3e-05	1e-05	9e-05	0.00036	0.00089	-3e-05	-0.0001	6e-05	6
29466	3e-05	1e-05	9e-05	0.00036	0.00089	-3e-05	-0.0001	6e-05	6
29467	3e-05	1e-05	9e-05	0.00036	0.00089	-3e-05	-0.0001	6e-05	6
29468	-1e-05	-3e-05	-0.00018	-0.00088	-0.0005	3e-05	0.00019	0.00015	6
29469	-1e-05	-3e-05	-0.00018	-0.00088	-0.0005	3e-05	0.00019	0.00015	6
29470	-1e-05	-3e-05	-0.00018	-0.00088	-0.0005	3e-05	0.00019	0.00015	6
29471	-1e-05	-3e-05	-0.00018	-0.00088	-0.0005	3e-05	0.00019	0.00015	6
29472	-1e-05	-3e-05	-0.00018	-0.00088	-0.0005	3e-05	0.00019	0.00015	6
29473	-1e-05	-3e-05	-0.00018	-0.00088	-0.0005	3e-05	0.00019	0.00015	6
29474	-3e-05	-1e-05	0.00012	0.00122	0.00087	-3e-05	-0.00014	-1e-05	6
29475	-3e-05	-3e-05	-8e-05	-0.00012	-0.00035	-0.00017	0.00036	-9e-05	6
29476	-3e-05	-3e-05	-8e-05	-0.00012	-0.00035	-0.00017	0.00036	-9e-05	6
29477	-3e-05	-3e-05	-8e-05	-0.00012	-0.00035	-0.00017	0.00036	-9e-05	6
29478	-3e-05	-3e-05	-8e-05	-0.00012	-0.00035	-0.00017	0.00036	-9e-05	6
29479	-3e-05	-3e-05	-8e-05	-0.00012	-0.00035	-0.00017	0.00036	-9e-05	6
29480	-3e-05	-3e-05	-8e-05	-0.00012	-0.00035	-0.00017	0.00036	-9e-05	6
29481	-3e-05	-3e-05	-8e-05	-0.00012	-0.00035	-0.00017	0.00036	-9e-05	6
29482	-3e-05	-3e-05	-8e-05	-0.00012	-0.00035	-0.00017	0.00036	-9e-05	6
29483	1e-05	2e-05	5e-05	7e-05	-0.00026	-0.0001	0.00023	6e-05	6
29484	1e-05	2e-05	5e-05	7e-05	-0.00026	-0.0001	0.00023	6e-05	6
29485	1e-05	-3e-05	-0.00019	-0.00101	-0.00033	-2e-05	-0.00012	-4e-05	6
29486	1e-05	-3e-05	-0.00019	-0.00101	-0.00033	-2e-05	-0.00012	-4e-05	6
29488	1e-05	-3e-05	-0.00019	-0.00101	-0.00033	-2e-05	-0.00012	-4e-05	6
29489	1e-05	-3e-05	-0.00019	-0.00101	-0.00033	-2e-05	-0.00012	-4e-05	6
29490	1e-05	-3e-05	-0.00019	-0.00101	-0.00033	-2e-05	-0.00012	-4e-05	6
29491	1e-05	-3e-05	-0.00019	-0.00101	-0.00033	-2e-05	-0.00012	-4e-05	6
29492	1e-05	-3e-05	-0.00019	-0.00101	-0.00033	-2e-05	-0.00012	-4e-05	6
29493	1e-05	-3e-05	-0.00019	-0.00101	-0.00033	-2e-05	-0.00012	-4e-05	6
29494	1e-05	-3e-05	-0.00019	-0.00101	-0.00033	-2e-05	-0.00012	-4e-05	6
29495	1e-05	-3e-05	-0.00019	-0.00101	-0.00033	-2e-05	-0.00012	-4e-05	6
29496	1e-05	-3e-05	-0.00019	-0.00101	-0.00033	-2e-05	-0.00012	-4e-05	6
29497	1e-05	-3e-05	-0.00019	-0.00101	-0.00033	-2e-05	-0.00012	-4e-05	6
29498	1e-05	-3e-05	-0.00019	-0.00101	-0.00033	-2e-05	-0.00012	-4e-05	6
29499	1e-05	-3e-05	-0.00019	-0.00101	-0.00033	-2e-05	-0.00012	-4e-05	6
29500	1e-05	-3e-05	-0.00019	-0.00101	-0.00033	-2e-05	-0.00012	-4e-05	6
29501	1e-05	-3e-05	-0.00019	-0.00101	-0.00033	-2e-05	-0.00012	-4e-05	6
29502	1e-05	-3e-05	-0.00019	-0.00101	-0.00033	-2e-05	-0.00012	-4e-05	6
29503	1e-05	-3e-05	-0.00019	-0.00101	-0.00033	-2e-05	-0.00012	-4e-05	6
29504	1e-05	-3e-05	-0.00019	-0.00101	-0.00033	-2e-05	-0.00012	-4e-05	6
29505	1e-05	-3e-05	-0.00019	-0.00101	-0.00033	-2e-05	-0.00012	-4e-05	6
29506	-1e-05	-1e-05	-4e-05	0.00013	-0.0001	-4e-05	0.00015	1e-05	6
29507	0	1e-05	0.00014	0.00043	0.00067	2e-05	-0.00058	2e-05	6
29508	0	2e-05	-4e-05	-0.00041	-0.00082	-0.0006	0.00024	9e-05	6
29509	0	2e-05	-4e-05	-0.00041	-0.00082	-0.0006	0.00024	9e-05	6
29510	0	2e-05	-4e-05	-0.00041	-0.00082	-0.0006	0.00024	9e-05	6
29511	0	2e-05	-4e-05	-0.00041	-0.00082	-0.0006	0.00024	9e-05	6
29512	0	2e-05	-4e-05	-0.00041	-0.00082	-0.0006	0.00024	9e-05	6
29513	0	2e-05	-4e-05	-0.00041	-0.00082	-0.0006	0.00024	9e-05	6
29514	0	2e-05	-4e-05	-0.00041	-0.00082	-0.0006	0.00024	9e-05	6
29515	0	2e-05	-4e-05	-0.00041	-0.00082	-0.0006	0.00024	9e-05	6
29516	0	2e-05	-4e-05	-0.00041	-0.00082	-0.0006	0.00024	9e-05	6
29517	0	2e-05	-4e-05	-0.00041	-0.00082	-0.0006	0.00024	9e-05	6
29518	0	2e-05	-4e-05	-0.00041	-0.00082	-0.0006	0.00024	9e-05	6
29519	0	2e-05	-4e-05	-0.00041	-0.00082	-0.0006	0.00024	9e-05	6
29520	0	2e-05	-4e-05	-0.00041	-0.00082	-0.0006	0.00024	9e-05	6
29521	0	2e-05	-4e-05	-0.00041	-0.00082	-0.0006	0.00024	9e-05	6
29522	0	2e-05	-4e-05	-0.00041	-0.00082	-0.0006	0.00024	9e-05	6
29523	0	2e-05	-4e-05	-0.00041	-0.00082	-0.0006	0.00024	9e-05	6
29524	0	2e-05	-4e-05	-0.00041	-0.00082	-0.0006	0.00024	9e-05	6
29525	0	2e-05	-4e-05	-0.00041	-0.00082	-0.0006	0.00024	9e-05	6
29526	0	2e-05	-4e-05	-0.00041	-0.00082	-0.0006	0.00024	9e-05	6
29527	0	2e-05	-4e-05	-0.00041	-0.00082	-0.0006	0.00024	9e-05	6
29528	0	2e-05	-4e-05	-0.00041	-0.00082	-0.0006	0.00024	9e-05	6
29529	0	2e-05	-4e-05	-0.00041	-0.00082	-0.0006	0.00024	9e-05	6
29530	0	2e-05	-4e-05	-0.00041	-0.00082	-0.0006	0.00024	9e-05	6
29531	0	2e-05	-4e-05	-0.00041	-0.00082	-0.0006	0.00024	9e-05	6
29532	0	2e-05	-4e-05	-0.00041	-0.00082	-0.0006	0.00024	9e-05	6
29533	0	2e-05	-4e-05	-0.00041	-0.00082	-0.0006	0.00024	9e-05	6
29534	0	2e-05	-4e-05	-0.00041	-0.00082	-0.0006	0.00024	9e-05	6
29535	0	2e-05	-4e-05	-0.00041	-0.00082	-0.0006	0.00024	9e-05	6
29536	0	3e-05	3e-05	-0.00012	0.0005	-7e-05	-0.00011	-7e-05	6
29538	0	-3e-05	5e-05	0.0004	0.001	7e-05	-0.00024	-6e-05	6
29539	0	-3e-05	5e-05	0.0004	0.001	7e-05	-0.00024	-6e-05	6
29540	0	-3e-05	5e-05	0.0004	0.001	7e-05	-0.00024	-6e-05	6
29541	0	-3e-05	5e-05	0.0004	0.001	7e-05	-0.00024	-6e-05	6
29542	0	-3e-05	5e-05	0.0004	0.001	7e-05	-0.00024	-6e-05	6
29543	0	-3e-05	5e-05	0.0004	0.001	7e-05	-0.00024	-6e-05	6
29544	0	-3e-05	5e-05	0.0004	0.001	7e-05	-0.00024	-6e-05	6
29545	0	-3e-05	5e-05	0.0004	0.001	7e-05	-0.00024	-6e-05	6
29546	0	-3e-05	5e-05	0.0004	0.001	7e-05	-0.00024	-6e-05	6
29547	0	-3e-05	5e-05	0.0004	0.001	7e-05	-0.00024	-6e-05	6
29548	0	-3e-05	5e-05	0.0004	0.001	7e-05	-0.00024	-6e-05	6
29549	0	-3e-05	5e-05	0.0004	0.001	7e-05	-0.00024	-6e-05	6
29550	0	-3e-05	5e-05	0.0004	0.001	7e-05	-0.00024	-6e-05	6
29551	0	-3e-05	5e-05	0.0004	0.001	7e-05	-0.00024	-6e-05	6
29552	0	-3e-05	5e-05	0.0004	0.001	7e-05	-0.00024	-6e-05	6
29553	0	-3e-05	5e-05	0.0004	0.001	7e-05	-0.00024	-6e-05	6
29554	0	-3e-05	5e-05	0.0004	0.001	7e-05	-0.00024	-6e-05	6
29555	0	-3e-05	5e-05	0.0004	0.001	7e-05	-0.00024	-6e-05	6
29556	0	-3e-05	5e-05	0.0004	0.001	7e-05	-0.00024	-6e-05	6
29557	0	-3e-05	5e-05	0.0004	0.001	7e-05	-0.00024	-6e-05	6
29558	0	-3e-05	5e-05	0.0004	0.001	7e-05	-0.00024	-6e-05	6
29559	6e-05	7e-05	0.00019	0.00043	0.00023	0.00042	0.00041	1e-05	6
29560	1e-05	3e-05	6e-05	1e-05	-0.00059	-0.0001	-0.00031	-6e-05	6
29561	1e-05	3e-05	6e-05	1e-05	-0.00059	-0.0001	-0.00031	-6e-05	6
29562	1e-05	3e-05	6e-05	1e-05	-0.00059	-0.0001	-0.00031	-6e-05	6
29563	1e-05	3e-05	6e-05	1e-05	-0.00059	-0.0001	-0.00031	-6e-05	6
29564	1e-05	3e-05	6e-05	1e-05	-0.00059	-0.0001	-0.00031	-6e-05	6
29565	1e-05	3e-05	6e-05	1e-05	-0.00059	-0.0001	-0.00031	-6e-05	6
29566	3e-05	3e-05	0.00011	0.00022	-0.00015	1e-05	3e-05	7e-05	6
29567	3e-05	3e-05	0.00011	0.00022	-0.00015	1e-05	3e-05	7e-05	6
29568	-3e-05	-3e-05	-9e-05	-0.00035	-0.00121	-0.0002	-5e-05	7e-05	6
29569	-3e-05	-3e-05	-9e-05	-0.00035	-0.00121	-0.0002	-5e-05	7e-05	6
29570	-3e-05	-3e-05	-9e-05	-0.00035	-0.00121	-0.0002	-5e-05	7e-05	6
29571	-3e-05	-3e-05	-9e-05	-0.00035	-0.00121	-0.0002	-5e-05	7e-05	6
29572	-3e-05	-3e-05	-9e-05	-0.00035	-0.00121	-0.0002	-5e-05	7e-05	6
29573	-3e-05	-3e-05	-9e-05	-0.00035	-0.00121	-0.0002	-5e-05	7e-05	6
29574	-3e-05	-3e-05	-9e-05	-0.00035	-0.00121	-0.0002	-5e-05	7e-05	6
29575	-3e-05	-3e-05	-9e-05	-0.00035	-0.00121	-0.0002	-5e-05	7e-05	6
29576	-3e-05	-3e-05	-9e-05	-0.00035	-0.00121	-0.0002	-5e-05	7e-05	6
29577	-3e-05	-3e-05	-9e-05	-0.00035	-0.00121	-0.0002	-5e-05	7e-05	6
29578	-3e-05	-3e-05	-9e-05	-0.00035	-0.00121	-0.0002	-5e-05	7e-05	6
29579	-3e-05	-3e-05	-9e-05	-0.00035	-0.00121	-0.0002	-5e-05	7e-05	6
29580	-3e-05	-3e-05	-9e-05	-0.00035	-0.00121	-0.0002	-5e-05	7e-05	6
29581	-3e-05	-2e-05	-0.00014	0.00017	0.00055	-0.00011	-0.00033	-0.00021	6
29582	-3e-05	-2e-05	-0.00014	0.00017	0.00055	-0.00011	-0.00033	-0.00021	6
29583	-3e-05	-2e-05	-0.00014	0.00017	0.00055	-0.00011	-0.00033	-0.00021	6
29584	-3e-05	-2e-05	-0.00014	0.00017	0.00055	-0.00011	-0.00033	-0.00021	6
29585	-3e-05	-2e-05	-0.00014	0.00017	0.00055	-0.00011	-0.00033	-0.00021	6
29586	-3e-05	-2e-05	-0.00014	0.00017	0.00055	-0.00011	-0.00033	-0.00021	6
29589	-2e-05	1e-05	0	0.00031	2e-05	0.00011	-2e-05	-4e-05	6
29590	-2e-05	1e-05	0	0.00031	2e-05	0.00011	-2e-05	-4e-05	6
29591	-2e-05	1e-05	0	0.00031	2e-05	0.00011	-2e-05	-4e-05	6
29592	-2e-05	1e-05	0	0.00031	2e-05	0.00011	-2e-05	-4e-05	6
29593	-2e-05	1e-05	0	0.00031	2e-05	0.00011	-2e-05	-4e-05	6
29594	-2e-05	1e-05	0	0.00031	2e-05	0.00011	-2e-05	-4e-05	6
29595	-2e-05	1e-05	0	0.00031	2e-05	0.00011	-2e-05	-4e-05	6
29596	-2e-05	1e-05	0	0.00031	2e-05	0.00011	-2e-05	-4e-05	6
29597	-2e-05	1e-05	0	0.00031	2e-05	0.00011	-2e-05	-4e-05	6
29598	-2e-05	1e-05	0	0.00031	2e-05	0.00011	-2e-05	-4e-05	6
29599	-2e-05	1e-05	0	0.00031	2e-05	0.00011	-2e-05	-4e-05	6
29600	-2e-05	1e-05	0	0.00031	2e-05	0.00011	-2e-05	-4e-05	6
29601	-2e-05	1e-05	0	0.00031	2e-05	0.00011	-2e-05	-4e-05	6
29602	-2e-05	1e-05	0	0.00031	2e-05	0.00011	-2e-05	-4e-05	6
29603	-2e-05	1e-05	0	0.00031	2e-05	0.00011	-2e-05	-4e-05	6
29604	-2e-05	1e-05	0	0.00031	2e-05	0.00011	-2e-05	-4e-05	6
29605	-2e-05	1e-05	0	0.00031	2e-05	0.00011	-2e-05	-4e-05	6
29606	-2e-05	1e-05	0	0.00031	2e-05	0.00011	-2e-05	-4e-05	6
29607	-2e-05	1e-05	0	0.00031	2e-05	0.00011	-2e-05	-4e-05	6
29608	-2e-05	1e-05	0	0.00031	2e-05	0.00011	-2e-05	-4e-05	6
29609	-2e-05	1e-05	0	0.00031	2e-05	0.00011	-2e-05	-4e-05	6
29610	-2e-05	1e-05	0	0.00031	2e-05	0.00011	-2e-05	-4e-05	6
29611	-3e-05	-3e-05	-8e-05	-2e-05	0.00021	-5e-05	-7e-05	4e-05	6
29612	0	5e-05	0.00011	0.00036	0.00054	0.00029	5e-05	-5e-05	6
29613	-6e-05	-6e-05	-6e-05	-4e-05	0.00036	-7e-05	-0.00012	-4e-05	6
29614	-6e-05	-6e-05	-6e-05	-4e-05	0.00036	-7e-05	-0.00012	-4e-05	6
29615	-6e-05	-6e-05	-6e-05	-4e-05	0.00036	-7e-05	-0.00012	-4e-05	6
29616	-6e-05	-6e-05	-6e-05	-4e-05	0.00036	-7e-05	-0.00012	-4e-05	6
29617	-6e-05	-6e-05	-6e-05	-4e-05	0.00036	-7e-05	-0.00012	-4e-05	6
29618	-6e-05	-6e-05	-6e-05	-4e-05	0.00036	-7e-05	-0.00012	-4e-05	6
29619	-6e-05	-6e-05	-6e-05	-4e-05	0.00036	-7e-05	-0.00012	-4e-05	6
29620	-6e-05	-6e-05	-6e-05	-4e-05	0.00036	-7e-05	-0.00012	-4e-05	6
29621	-6e-05	-6e-05	-6e-05	-4e-05	0.00036	-7e-05	-0.00012	-4e-05	6
29622	-6e-05	-6e-05	-6e-05	-4e-05	0.00036	-7e-05	-0.00012	-4e-05	6
29623	-6e-05	-6e-05	-6e-05	-4e-05	0.00036	-7e-05	-0.00012	-4e-05	6
29624	-6e-05	-6e-05	-6e-05	-4e-05	0.00036	-7e-05	-0.00012	-4e-05	6
29625	-6e-05	-6e-05	-6e-05	-4e-05	0.00036	-7e-05	-0.00012	-4e-05	6
29626	-6e-05	-6e-05	-6e-05	-4e-05	0.00036	-7e-05	-0.00012	-4e-05	6
29627	-6e-05	-6e-05	-6e-05	-4e-05	0.00036	-7e-05	-0.00012	-4e-05	6
29628	-6e-05	-6e-05	-6e-05	-4e-05	0.00036	-7e-05	-0.00012	-4e-05	6
29629	-6e-05	-6e-05	-6e-05	-4e-05	0.00036	-7e-05	-0.00012	-4e-05	6
29630	-6e-05	-6e-05	-6e-05	-4e-05	0.00036	-7e-05	-0.00012	-4e-05	6
29631	-6e-05	-6e-05	-6e-05	-4e-05	0.00036	-7e-05	-0.00012	-4e-05	6
29632	-6e-05	-6e-05	-6e-05	-4e-05	0.00036	-7e-05	-0.00012	-4e-05	6
29633	-6e-05	-6e-05	-6e-05	-4e-05	0.00036	-7e-05	-0.00012	-4e-05	6
29634	-6e-05	-6e-05	-6e-05	-4e-05	0.00036	-7e-05	-0.00012	-4e-05	6
29635	-6e-05	-6e-05	-6e-05	-4e-05	0.00036	-7e-05	-0.00012	-4e-05	6
29636	-6e-05	-6e-05	-6e-05	-4e-05	0.00036	-7e-05	-0.00012	-4e-05	6
29638	-6e-05	-6e-05	-6e-05	-4e-05	0.00036	-7e-05	-0.00012	-4e-05	6
29639	-6e-05	-6e-05	-6e-05	-4e-05	0.00036	-7e-05	-0.00012	-4e-05	6
29640	-6e-05	-6e-05	-6e-05	-4e-05	0.00036	-7e-05	-0.00012	-4e-05	6
29641	-6e-05	-6e-05	-6e-05	-4e-05	0.00036	-7e-05	-0.00012	-4e-05	6
29642	-6e-05	-6e-05	-6e-05	-4e-05	0.00036	-7e-05	-0.00012	-4e-05	6
29643	2e-05	0	3e-05	-0.00033	-0.00013	-0.00035	-0.00029	-1e-05	6
29644	-2e-05	0	4e-05	1e-05	0.00083	0.00054	-0.00055	-4e-05	6
29645	1e-05	0	5e-05	-0.00024	-0.00092	4e-05	5e-05	4e-05	6
29646	1e-05	0	5e-05	-0.00024	-0.00092	4e-05	5e-05	4e-05	6
29647	1e-05	0	5e-05	-0.00024	-0.00092	4e-05	5e-05	4e-05	6
29648	1e-05	0	5e-05	-0.00024	-0.00092	4e-05	5e-05	4e-05	6
29649	-1e-05	-2e-05	0	7e-05	-0.0004	-0.00021	0.00011	0.00012	6
29650	-1e-05	-2e-05	0	7e-05	-0.0004	-0.00021	0.00011	0.00012	6
29651	-1e-05	-2e-05	0	7e-05	-0.0004	-0.00021	0.00011	0.00012	6
29652	-1e-05	-2e-05	0	7e-05	-0.0004	-0.00021	0.00011	0.00012	6
29653	-1e-05	-2e-05	0	7e-05	-0.0004	-0.00021	0.00011	0.00012	6
29654	-1e-05	-2e-05	0	7e-05	-0.0004	-0.00021	0.00011	0.00012	6
29655	-1e-05	-2e-05	0	7e-05	-0.0004	-0.00021	0.00011	0.00012	6
29656	-1e-05	-2e-05	0	7e-05	-0.0004	-0.00021	0.00011	0.00012	6
29657	-1e-05	-2e-05	0	7e-05	-0.0004	-0.00021	0.00011	0.00012	6
29658	-1e-05	-2e-05	0	7e-05	-0.0004	-0.00021	0.00011	0.00012	6
29659	-1e-05	-2e-05	0	7e-05	-0.0004	-0.00021	0.00011	0.00012	6
29660	-1e-05	-2e-05	0	7e-05	-0.0004	-0.00021	0.00011	0.00012	6
29661	-1e-05	-2e-05	0	7e-05	-0.0004	-0.00021	0.00011	0.00012	6
29662	-1e-05	-2e-05	0	7e-05	-0.0004	-0.00021	0.00011	0.00012	6
29663	-1e-05	-2e-05	0	7e-05	-0.0004	-0.00021	0.00011	0.00012	6
29664	-1e-05	-2e-05	0	7e-05	-0.0004	-0.00021	0.00011	0.00012	6
29665	-1e-05	-2e-05	0	7e-05	-0.0004	-0.00021	0.00011	0.00012	6
29666	-1e-05	-2e-05	0	7e-05	-0.0004	-0.00021	0.00011	0.00012	6
29667	-1e-05	-2e-05	0	7e-05	-0.0004	-0.00021	0.00011	0.00012	6
29668	-1e-05	-2e-05	0	7e-05	-0.0004	-0.00021	0.00011	0.00012	6
29669	-1e-05	-2e-05	0	7e-05	-0.0004	-0.00021	0.00011	0.00012	6
29670	-1e-05	-2e-05	0	7e-05	-0.0004	-0.00021	0.00011	0.00012	6
29671	-1e-05	-4e-05	-7e-05	0.00012	0.00044	-0.0001	0	2e-05	6
29672	1e-05	2e-05	-0.00012	-0.00046	0.00035	-9e-05	1e-05	-3e-05	6
29673	1e-05	2e-05	-0.00012	-0.00046	0.00035	-9e-05	1e-05	-3e-05	6
29674	1e-05	2e-05	-0.00012	-0.00046	0.00035	-9e-05	1e-05	-3e-05	6
29675	1e-05	2e-05	-0.00012	-0.00046	0.00035	-9e-05	1e-05	-3e-05	6
29676	1e-05	2e-05	-0.00012	-0.00046	0.00035	-9e-05	1e-05	-3e-05	6
29677	1e-05	2e-05	-0.00012	-0.00046	0.00035	-9e-05	1e-05	-3e-05	6
29678	1e-05	2e-05	-0.00012	-0.00046	0.00035	-9e-05	1e-05	-3e-05	6
29679	1e-05	2e-05	-0.00012	-0.00046	0.00035	-9e-05	1e-05	-3e-05	6
29680	1e-05	2e-05	-0.00012	-0.00046	0.00035	-9e-05	1e-05	-3e-05	6
29681	1e-05	2e-05	-0.00012	-0.00046	0.00035	-9e-05	1e-05	-3e-05	6
29682	1e-05	2e-05	-0.00012	-0.00046	0.00035	-9e-05	1e-05	-3e-05	6
29683	1e-05	2e-05	-0.00012	-0.00046	0.00035	-9e-05	1e-05	-3e-05	6
29684	1e-05	2e-05	-0.00012	-0.00046	0.00035	-9e-05	1e-05	-3e-05	6
29685	1e-05	2e-05	-0.00012	-0.00046	0.00035	-9e-05	1e-05	-3e-05	6
29686	1e-05	2e-05	-0.00012	-0.00046	0.00035	-9e-05	1e-05	-3e-05	6
29688	1e-05	2e-05	-0.00012	-0.00046	0.00035	-9e-05	1e-05	-3e-05	6
29689	1e-05	2e-05	-0.00012	-0.00046	0.00035	-9e-05	1e-05	-3e-05	6
29690	1e-05	2e-05	-0.00012	-0.00046	0.00035	-9e-05	1e-05	-3e-05	6
29691	1e-05	2e-05	-0.00012	-0.00046	0.00035	-9e-05	1e-05	-3e-05	6
29692	1e-05	2e-05	-0.00012	-0.00046	0.00035	-9e-05	1e-05	-3e-05	6
29693	-5e-05	-4e-05	-0.0001	-0.00037	-0.00079	-0.00013	4e-05	-5e-05	6
29694	-5e-05	-4e-05	-0.0001	-0.00037	-0.00079	-0.00013	4e-05	-5e-05	6
29695	-1e-05	-3e-05	7e-05	-6e-05	-0.00113	-0.00027	2e-05	-6e-05	6
29696	-1e-05	-3e-05	7e-05	-6e-05	-0.00113	-0.00027	2e-05	-6e-05	6
29697	-1e-05	-3e-05	7e-05	-6e-05	-0.00113	-0.00027	2e-05	-6e-05	6
29698	-1e-05	-3e-05	7e-05	-6e-05	-0.00113	-0.00027	2e-05	-6e-05	6
29699	-2e-05	-1e-05	-7e-05	0.00013	-0.00049	-0.00039	-0.00015	0	6
29700	1e-05	1e-05	6e-05	0.00025	-0.00066	9e-05	-0.00038	-3e-05	6
29701	1e-05	1e-05	6e-05	0.00025	-0.00066	9e-05	-0.00038	-3e-05	6
29702	1e-05	1e-05	6e-05	0.00025	-0.00066	9e-05	-0.00038	-3e-05	6
29703	1e-05	1e-05	6e-05	0.00025	-0.00066	9e-05	-0.00038	-3e-05	6
29704	1e-05	1e-05	6e-05	0.00025	-0.00066	9e-05	-0.00038	-3e-05	6
29705	1e-05	1e-05	6e-05	0.00025	-0.00066	9e-05	-0.00038	-3e-05	6
29706	1e-05	1e-05	6e-05	0.00025	-0.00066	9e-05	-0.00038	-3e-05	6
29707	1e-05	1e-05	6e-05	0.00025	-0.00066	9e-05	-0.00038	-3e-05	6
29708	1e-05	1e-05	6e-05	0.00025	-0.00066	9e-05	-0.00038	-3e-05	6
29709	1e-05	1e-05	6e-05	0.00025	-0.00066	9e-05	-0.00038	-3e-05	6
29710	1e-05	1e-05	6e-05	0.00025	-0.00066	9e-05	-0.00038	-3e-05	6
29711	1e-05	1e-05	6e-05	0.00025	-0.00066	9e-05	-0.00038	-3e-05	6
29712	1e-05	1e-05	6e-05	0.00025	-0.00066	9e-05	-0.00038	-3e-05	6
29713	1e-05	1e-05	6e-05	0.00025	-0.00066	9e-05	-0.00038	-3e-05	6
29714	1e-05	1e-05	6e-05	0.00025	-0.00066	9e-05	-0.00038	-3e-05	6
29715	1e-05	1e-05	6e-05	0.00025	-0.00066	9e-05	-0.00038	-3e-05	6
29716	1e-05	1e-05	6e-05	0.00025	-0.00066	9e-05	-0.00038	-3e-05	6
29717	1e-05	1e-05	6e-05	0.00025	-0.00066	9e-05	-0.00038	-3e-05	6
29718	1e-05	1e-05	6e-05	0.00025	-0.00066	9e-05	-0.00038	-3e-05	6
29719	1e-05	1e-05	6e-05	0.00025	-0.00066	9e-05	-0.00038	-3e-05	6
29720	1e-05	1e-05	6e-05	0.00025	-0.00066	9e-05	-0.00038	-3e-05	6
29721	1e-05	1e-05	6e-05	0.00025	-0.00066	9e-05	-0.00038	-3e-05	6
29722	1e-05	1e-05	6e-05	0.00025	-0.00066	9e-05	-0.00038	-3e-05	6
29723	1e-05	1e-05	6e-05	0.00025	-0.00066	9e-05	-0.00038	-3e-05	6
29724	3e-05	5e-05	0.00014	0.0001	-0.00046	0.00014	7e-05	0	6
29725	3e-05	5e-05	0.00014	0.0001	-0.00046	0.00014	7e-05	0	6
29726	3e-05	5e-05	0.00014	0.0001	-0.00046	0.00014	7e-05	0	6
29727	3e-05	5e-05	0.00014	0.0001	-0.00046	0.00014	7e-05	0	6
29728	3e-05	5e-05	0.00014	0.0001	-0.00046	0.00014	7e-05	0	6
29729	3e-05	5e-05	0.00014	0.0001	-0.00046	0.00014	7e-05	0	6
29730	3e-05	5e-05	0.00014	0.0001	-0.00046	0.00014	7e-05	0	6
29731	-6e-05	-1e-05	2e-05	0.00017	0.00019	-0.0002	-0.00015	-3e-05	6
29732	0	1e-05	0	2e-05	0.00033	0.00019	-0.00013	-5e-05	6
29733	0	-1e-05	-3e-05	0.00019	-0.00041	-0.00013	3e-05	-9e-05	6
29734	0	-1e-05	-3e-05	0.00019	-0.00041	-0.00013	3e-05	-9e-05	6
29735	0	-1e-05	-3e-05	0.00019	-0.00041	-0.00013	3e-05	-9e-05	6
29736	0	-1e-05	-3e-05	0.00019	-0.00041	-0.00013	3e-05	-9e-05	6
29738	0	-1e-05	-3e-05	0.00019	-0.00041	-0.00013	3e-05	-9e-05	6
29739	0	-1e-05	-3e-05	0.00019	-0.00041	-0.00013	3e-05	-9e-05	6
29740	0	-1e-05	-3e-05	0.00019	-0.00041	-0.00013	3e-05	-9e-05	6
29741	0	-1e-05	-3e-05	0.00019	-0.00041	-0.00013	3e-05	-9e-05	6
29742	0	-1e-05	-3e-05	0.00019	-0.00041	-0.00013	3e-05	-9e-05	6
29743	0	-1e-05	-3e-05	0.00019	-0.00041	-0.00013	3e-05	-9e-05	6
29744	0	-1e-05	-3e-05	0.00019	-0.00041	-0.00013	3e-05	-9e-05	6
29745	0	-1e-05	-3e-05	0.00019	-0.00041	-0.00013	3e-05	-9e-05	6
29746	0	-1e-05	-3e-05	0.00019	-0.00041	-0.00013	3e-05	-9e-05	6
29747	0	-1e-05	-3e-05	0.00019	-0.00041	-0.00013	3e-05	-9e-05	6
29748	0	-1e-05	-3e-05	0.00019	-0.00041	-0.00013	3e-05	-9e-05	6
29749	0	-1e-05	-3e-05	0.00019	-0.00041	-0.00013	3e-05	-9e-05	6
29750	0	-1e-05	-3e-05	0.00019	-0.00041	-0.00013	3e-05	-9e-05	6
29751	0	-1e-05	-3e-05	0.00019	-0.00041	-0.00013	3e-05	-9e-05	6
29752	0	-1e-05	-3e-05	0.00019	-0.00041	-0.00013	3e-05	-9e-05	6
29753	0	-1e-05	-3e-05	0.00019	-0.00041	-0.00013	3e-05	-9e-05	6
29754	-3e-05	-2e-05	-9e-05	-0.00066	-0.0005	-5e-05	-4e-05	-0.00022	6
29755	-2e-05	-5e-05	-6e-05	-0.00055	-0.00073	8e-05	-3e-05	3e-05	6
29756	2e-05	3e-05	1e-05	-8e-05	0.0011	0.00028	-0.00012	8e-05	6
29757	2e-05	3e-05	1e-05	-8e-05	0.0011	0.00028	-0.00012	8e-05	6
29758	2e-05	3e-05	1e-05	-8e-05	0.0011	0.00028	-0.00012	8e-05	6
29759	2e-05	3e-05	1e-05	-8e-05	0.0011	0.00028	-0.00012	8e-05	6
29760	2e-05	-2e-05	-1e-05	0.00018	-0.00028	8e-05	0.00048	0.00014	6
29761	2e-05	-2e-05	-1e-05	0.00018	-0.00028	8e-05	0.00048	0.00014	6
29762	2e-05	-2e-05	-1e-05	0.00018	-0.00028	8e-05	0.00048	0.00014	6
29763	2e-05	-2e-05	-1e-05	0.00018	-0.00028	8e-05	0.00048	0.00014	6
29764	2e-05	-2e-05	-1e-05	0.00018	-0.00028	8e-05	0.00048	0.00014	6
29765	2e-05	-2e-05	-1e-05	0.00018	-0.00028	8e-05	0.00048	0.00014	6
29766	2e-05	-2e-05	-1e-05	0.00018	-0.00028	8e-05	0.00048	0.00014	6
29767	2e-05	-2e-05	-1e-05	0.00018	-0.00028	8e-05	0.00048	0.00014	6
29768	2e-05	-2e-05	-1e-05	0.00018	-0.00028	8e-05	0.00048	0.00014	6
29769	2e-05	-2e-05	-1e-05	0.00018	-0.00028	8e-05	0.00048	0.00014	6
29770	2e-05	-2e-05	-1e-05	0.00018	-0.00028	8e-05	0.00048	0.00014	6
29771	2e-05	-2e-05	-1e-05	0.00018	-0.00028	8e-05	0.00048	0.00014	6
29772	2e-05	-2e-05	-1e-05	0.00018	-0.00028	8e-05	0.00048	0.00014	6
29773	2e-05	-2e-05	-1e-05	0.00018	-0.00028	8e-05	0.00048	0.00014	6
29774	2e-05	-2e-05	-1e-05	0.00018	-0.00028	8e-05	0.00048	0.00014	6
29775	2e-05	-2e-05	-1e-05	0.00018	-0.00028	8e-05	0.00048	0.00014	6
29776	-2e-05	-1e-05	2e-05	0.00086	-0.00012	8e-05	0.00015	-5e-05	6
29777	-2e-05	-1e-05	2e-05	0.00086	-0.00012	8e-05	0.00015	-5e-05	6
29778	-2e-05	-1e-05	2e-05	0.00086	-0.00012	8e-05	0.00015	-5e-05	6
29779	-2e-05	-1e-05	2e-05	0.00086	-0.00012	8e-05	0.00015	-5e-05	6
29780	-2e-05	-1e-05	2e-05	0.00086	-0.00012	8e-05	0.00015	-5e-05	6
29781	-2e-05	-1e-05	2e-05	0.00086	-0.00012	8e-05	0.00015	-5e-05	6
29782	-2e-05	-1e-05	2e-05	0.00086	-0.00012	8e-05	0.00015	-5e-05	6
29783	0	-1e-05	-2e-05	0.00019	0.00053	1e-05	-2e-05	-3e-05	6
29784	0	-1e-05	-2e-05	0.00019	0.00053	1e-05	-2e-05	-3e-05	6
29785	-3e-05	-2e-05	4e-05	-0.00038	-0.00082	0.00015	0.00022	-8e-05	6
29786	-3e-05	-2e-05	4e-05	-0.00038	-0.00082	0.00015	0.00022	-8e-05	6
29788	-3e-05	-2e-05	4e-05	-0.00038	-0.00082	0.00015	0.00022	-8e-05	6
29789	-3e-05	-2e-05	4e-05	-0.00038	-0.00082	0.00015	0.00022	-8e-05	6
29790	-3e-05	-2e-05	4e-05	-0.00038	-0.00082	0.00015	0.00022	-8e-05	6
29791	-3e-05	-2e-05	4e-05	-0.00038	-0.00082	0.00015	0.00022	-8e-05	6
29792	-3e-05	-2e-05	4e-05	-0.00038	-0.00082	0.00015	0.00022	-8e-05	6
29793	-3e-05	-2e-05	4e-05	-0.00038	-0.00082	0.00015	0.00022	-8e-05	6
29794	-3e-05	-2e-05	4e-05	-0.00038	-0.00082	0.00015	0.00022	-8e-05	6
29795	-3e-05	-2e-05	4e-05	-0.00038	-0.00082	0.00015	0.00022	-8e-05	6
29796	-3e-05	-2e-05	4e-05	-0.00038	-0.00082	0.00015	0.00022	-8e-05	6
29797	-3e-05	-2e-05	4e-05	-0.00038	-0.00082	0.00015	0.00022	-8e-05	6
29798	-3e-05	-2e-05	4e-05	-0.00038	-0.00082	0.00015	0.00022	-8e-05	6
29799	-3e-05	-2e-05	4e-05	-0.00038	-0.00082	0.00015	0.00022	-8e-05	6
29800	-3e-05	-2e-05	4e-05	-0.00038	-0.00082	0.00015	0.00022	-8e-05	6
29801	-3e-05	-2e-05	4e-05	-0.00038	-0.00082	0.00015	0.00022	-8e-05	6
29802	-3e-05	-2e-05	4e-05	-0.00038	-0.00082	0.00015	0.00022	-8e-05	6
29803	-3e-05	-2e-05	4e-05	-0.00038	-0.00082	0.00015	0.00022	-8e-05	6
29804	-3e-05	-2e-05	4e-05	-0.00038	-0.00082	0.00015	0.00022	-8e-05	6
29805	-3e-05	-2e-05	4e-05	-0.00038	-0.00082	0.00015	0.00022	-8e-05	6
29806	4e-05	5e-05	-5e-05	-1e-05	0.00103	-6e-05	0.0002	5e-05	6
29807	-5e-05	-4e-05	-2e-05	0.00032	0.00126	0.00044	9e-05	4e-05	6
29808	-4e-05	-7e-05	-8e-05	0.00014	-2e-05	-8e-05	-8e-05	-3e-05	6
29809	-4e-05	-7e-05	-8e-05	0.00014	-2e-05	-8e-05	-8e-05	-3e-05	6
29810	-4e-05	-7e-05	-8e-05	0.00014	-2e-05	-8e-05	-8e-05	-3e-05	6
29811	-4e-05	-7e-05	-8e-05	0.00014	-2e-05	-8e-05	-8e-05	-3e-05	6
29812	-4e-05	-7e-05	-8e-05	0.00014	-2e-05	-8e-05	-8e-05	-3e-05	6
29813	-4e-05	-7e-05	-8e-05	0.00014	-2e-05	-8e-05	-8e-05	-3e-05	6
29814	-4e-05	-7e-05	-8e-05	0.00014	-2e-05	-8e-05	-8e-05	-3e-05	6
29815	-4e-05	-7e-05	-8e-05	0.00014	-2e-05	-8e-05	-8e-05	-3e-05	6
29816	-4e-05	-7e-05	-8e-05	0.00014	-2e-05	-8e-05	-8e-05	-3e-05	6
29817	-4e-05	-7e-05	-8e-05	0.00014	-2e-05	-8e-05	-8e-05	-3e-05	6
29818	-4e-05	-7e-05	-8e-05	0.00014	-2e-05	-8e-05	-8e-05	-3e-05	6
29819	-4e-05	-7e-05	-8e-05	0.00014	-2e-05	-8e-05	-8e-05	-3e-05	6
29820	-4e-05	-7e-05	-8e-05	0.00014	-2e-05	-8e-05	-8e-05	-3e-05	6
29821	-4e-05	-7e-05	-8e-05	0.00014	-2e-05	-8e-05	-8e-05	-3e-05	6
29822	-4e-05	-7e-05	-8e-05	0.00014	-2e-05	-8e-05	-8e-05	-3e-05	6
29823	-4e-05	-7e-05	-8e-05	0.00014	-2e-05	-8e-05	-8e-05	-3e-05	6
29824	-4e-05	-7e-05	-8e-05	0.00014	-2e-05	-8e-05	-8e-05	-3e-05	6
29825	-4e-05	-7e-05	-8e-05	0.00014	-2e-05	-8e-05	-8e-05	-3e-05	6
29826	-4e-05	-7e-05	-8e-05	0.00014	-2e-05	-8e-05	-8e-05	-3e-05	6
29827	-4e-05	-7e-05	-8e-05	0.00014	-2e-05	-8e-05	-8e-05	-3e-05	6
29828	-4e-05	-7e-05	-8e-05	0.00014	-2e-05	-8e-05	-8e-05	-3e-05	6
29829	-4e-05	-7e-05	-8e-05	0.00014	-2e-05	-8e-05	-8e-05	-3e-05	6
29830	-4e-05	-7e-05	-8e-05	0.00014	-2e-05	-8e-05	-8e-05	-3e-05	6
29831	-4e-05	-7e-05	-8e-05	0.00014	-2e-05	-8e-05	-8e-05	-3e-05	6
29832	-4e-05	-7e-05	-8e-05	0.00014	-2e-05	-8e-05	-8e-05	-3e-05	6
29833	-4e-05	-7e-05	-8e-05	0.00014	-2e-05	-8e-05	-8e-05	-3e-05	6
29834	-4e-05	-7e-05	-8e-05	0.00014	-2e-05	-8e-05	-8e-05	-3e-05	6
29835	-4e-05	-7e-05	-8e-05	0.00014	-2e-05	-8e-05	-8e-05	-3e-05	6
29836	2e-05	2e-05	-1e-05	-8e-05	0.00031	1e-05	5e-05	1e-05	6
29838	-2e-05	-3e-05	3e-05	8e-05	0.0007	1e-05	8e-05	1e-05	6
29839	-2e-05	-3e-05	3e-05	8e-05	0.0007	1e-05	8e-05	1e-05	6
29840	-2e-05	-3e-05	3e-05	8e-05	0.0007	1e-05	8e-05	1e-05	6
29841	-2e-05	-3e-05	3e-05	8e-05	0.0007	1e-05	8e-05	1e-05	6
29842	-2e-05	-3e-05	3e-05	8e-05	0.0007	1e-05	8e-05	1e-05	6
29843	-2e-05	-3e-05	3e-05	8e-05	0.0007	1e-05	8e-05	1e-05	6
29844	1e-05	0	-0.0001	-0.00014	-0.00028	-0.0002	-3e-05	3e-05	6
29845	0	-2e-05	-2e-05	-3e-05	-0.00071	-0.00011	-0.00021	-1e-05	6
29846	0	-2e-05	-2e-05	-3e-05	-0.00071	-0.00011	-0.00021	-1e-05	6
29847	0	-2e-05	-2e-05	-3e-05	-0.00071	-0.00011	-0.00021	-1e-05	6
29848	0	-2e-05	-2e-05	-3e-05	-0.00071	-0.00011	-0.00021	-1e-05	6
29849	0	-2e-05	-2e-05	-3e-05	-0.00071	-0.00011	-0.00021	-1e-05	6
29850	0	-2e-05	-2e-05	-3e-05	-0.00071	-0.00011	-0.00021	-1e-05	6
29851	0	-2e-05	-2e-05	-3e-05	-0.00071	-0.00011	-0.00021	-1e-05	6
29852	0	-2e-05	-2e-05	-3e-05	-0.00071	-0.00011	-0.00021	-1e-05	6
29853	0	-2e-05	-2e-05	-3e-05	-0.00071	-0.00011	-0.00021	-1e-05	6
29854	0	-2e-05	-2e-05	-3e-05	-0.00071	-0.00011	-0.00021	-1e-05	6
29855	0	-2e-05	-2e-05	-3e-05	-0.00071	-0.00011	-0.00021	-1e-05	6
29856	0	-2e-05	-2e-05	-3e-05	-0.00071	-0.00011	-0.00021	-1e-05	6
29857	0	-2e-05	-2e-05	-3e-05	-0.00071	-0.00011	-0.00021	-1e-05	6
29858	0	-2e-05	-2e-05	-3e-05	-0.00071	-0.00011	-0.00021	-1e-05	6
29859	0	-2e-05	-2e-05	-3e-05	-0.00071	-0.00011	-0.00021	-1e-05	6
29860	0	-2e-05	-2e-05	-3e-05	-0.00071	-0.00011	-0.00021	-1e-05	6
29861	0	-2e-05	-2e-05	-3e-05	-0.00071	-0.00011	-0.00021	-1e-05	6
29862	0	-2e-05	-2e-05	-3e-05	-0.00071	-0.00011	-0.00021	-1e-05	6
29863	0	-2e-05	-2e-05	-3e-05	-0.00071	-0.00011	-0.00021	-1e-05	6
29864	0	-2e-05	-2e-05	-3e-05	-0.00071	-0.00011	-0.00021	-1e-05	6
29865	0	-2e-05	-2e-05	-3e-05	-0.00071	-0.00011	-0.00021	-1e-05	6
29866	-3e-05	-2e-05	-4e-05	0.00039	0.00038	-1e-05	0.00048	0.00037	6
29867	-3e-05	-2e-05	-4e-05	0.00039	0.00038	-1e-05	0.00048	0.00037	6
29868	1e-05	-1e-05	-1e-05	-0.00015	0	-9e-05	-3e-05	1e-05	6
29869	1e-05	-1e-05	-1e-05	-0.00015	0	-9e-05	-3e-05	1e-05	6
29870	1e-05	-1e-05	-1e-05	-0.00015	0	-9e-05	-3e-05	1e-05	6
29871	1e-05	-1e-05	-1e-05	-0.00015	0	-9e-05	-3e-05	1e-05	6
29872	1e-05	-1e-05	-1e-05	-0.00015	0	-9e-05	-3e-05	1e-05	6
29873	1e-05	-1e-05	-1e-05	-0.00015	0	-9e-05	-3e-05	1e-05	6
29874	1e-05	-1e-05	-1e-05	-0.00015	0	-9e-05	-3e-05	1e-05	6
29875	1e-05	-1e-05	-1e-05	-0.00015	0	-9e-05	-3e-05	1e-05	6
29876	1e-05	-1e-05	-1e-05	-0.00015	0	-9e-05	-3e-05	1e-05	6
29877	1e-05	-1e-05	-1e-05	-0.00015	0	-9e-05	-3e-05	1e-05	6
29878	1e-05	-1e-05	-1e-05	-0.00015	0	-9e-05	-3e-05	1e-05	6
29879	1e-05	-1e-05	-1e-05	-0.00015	0	-9e-05	-3e-05	1e-05	6
29880	1e-05	-1e-05	-1e-05	-0.00015	0	-9e-05	-3e-05	1e-05	6
29881	1e-05	-1e-05	-1e-05	-0.00015	0	-9e-05	-3e-05	1e-05	6
29882	1e-05	-1e-05	-1e-05	-0.00015	0	-9e-05	-3e-05	1e-05	6
29883	1e-05	-1e-05	-1e-05	-0.00015	0	-9e-05	-3e-05	1e-05	6
29884	1e-05	-1e-05	-1e-05	-0.00015	0	-9e-05	-3e-05	1e-05	6
29885	1e-05	-1e-05	-1e-05	-0.00015	0	-9e-05	-3e-05	1e-05	6
29886	1e-05	-1e-05	-1e-05	-0.00015	0	-9e-05	-3e-05	1e-05	6
29888	-2e-05	-1e-05	4e-05	0.00013	-0.00065	2e-05	-0.00025	6e-05	6
29889	-2e-05	-1e-05	4e-05	0.00013	-0.00065	2e-05	-0.00025	6e-05	6
29890	1e-05	-1e-05	-1e-05	-0.00012	8e-05	-3e-05	4e-05	-2e-05	6
29891	1e-05	-1e-05	-1e-05	-0.00012	8e-05	-3e-05	4e-05	-2e-05	6
29892	1e-05	-1e-05	-1e-05	-0.00012	8e-05	-3e-05	4e-05	-2e-05	6
29893	1e-05	-1e-05	-1e-05	-0.00012	8e-05	-3e-05	4e-05	-2e-05	6
29894	1e-05	-1e-05	-1e-05	-0.00012	8e-05	-3e-05	4e-05	-2e-05	6
29895	1e-05	-1e-05	-1e-05	-0.00012	8e-05	-3e-05	4e-05	-2e-05	6
29896	1e-05	-1e-05	-1e-05	-0.00012	8e-05	-3e-05	4e-05	-2e-05	6
29897	1e-05	-1e-05	-1e-05	-0.00012	8e-05	-3e-05	4e-05	-2e-05	6
29898	1e-05	-1e-05	-1e-05	-0.00012	8e-05	-3e-05	4e-05	-2e-05	6
29899	1e-05	-1e-05	-1e-05	-0.00012	8e-05	-3e-05	4e-05	-2e-05	6
29900	1e-05	-1e-05	-1e-05	-0.00012	8e-05	-3e-05	4e-05	-2e-05	6
29901	1e-05	-1e-05	-1e-05	-0.00012	8e-05	-3e-05	4e-05	-2e-05	6
29902	1e-05	-1e-05	-1e-05	-0.00012	8e-05	-3e-05	4e-05	-2e-05	6
29903	1e-05	-1e-05	-1e-05	-0.00012	8e-05	-3e-05	4e-05	-2e-05	6
29904	1e-05	-1e-05	-1e-05	-0.00012	8e-05	-3e-05	4e-05	-2e-05	6
29905	1e-05	-1e-05	-1e-05	-0.00012	8e-05	-3e-05	4e-05	-2e-05	6
29906	1e-05	-1e-05	-1e-05	-0.00012	8e-05	-3e-05	4e-05	-2e-05	6
29907	1e-05	-1e-05	-1e-05	-0.00012	8e-05	-3e-05	4e-05	-2e-05	6
29908	1e-05	-1e-05	-1e-05	-0.00012	8e-05	-3e-05	4e-05	-2e-05	6
29909	1e-05	-1e-05	-1e-05	-0.00012	8e-05	-3e-05	4e-05	-2e-05	6
29910	1e-05	-1e-05	-1e-05	-0.00012	8e-05	-3e-05	4e-05	-2e-05	6
29911	1e-05	-1e-05	-1e-05	-0.00012	8e-05	-3e-05	4e-05	-2e-05	6
29912	1e-05	-1e-05	-1e-05	-0.00012	8e-05	-3e-05	4e-05	-2e-05	6
29913	1e-05	-1e-05	-1e-05	-0.00012	8e-05	-3e-05	4e-05	-2e-05	6
29914	1e-05	-1e-05	-1e-05	-0.00012	8e-05	-3e-05	4e-05	-2e-05	6
29915	1e-05	-1e-05	-1e-05	-0.00012	8e-05	-3e-05	4e-05	-2e-05	6
29916	1e-05	-1e-05	-1e-05	-0.00012	8e-05	-3e-05	4e-05	-2e-05	6
29917	1e-05	-1e-05	-1e-05	-0.00012	8e-05	-3e-05	4e-05	-2e-05	6
29918	-4e-05	-4e-05	4e-05	0.00027	0.00042	0.00028	0.00014	-1e-05	6
29919	0	1e-05	-4e-05	-1e-05	-0.00034	-0.00037	-9e-05	-5e-05	6
29920	-4e-05	-4e-05	-9e-05	-0.00021	-3e-05	0.00016	0.00022	-0.0001	6
29921	-4e-05	-4e-05	-9e-05	-0.00021	-3e-05	0.00016	0.00022	-0.0001	6
29922	-4e-05	-4e-05	-9e-05	-0.00021	-3e-05	0.00016	0.00022	-0.0001	6
29923	-4e-05	-4e-05	-9e-05	-0.00021	-3e-05	0.00016	0.00022	-0.0001	6
29924	-4e-05	-4e-05	-9e-05	-0.00021	-3e-05	0.00016	0.00022	-0.0001	6
29925	-4e-05	-4e-05	-9e-05	-0.00021	-3e-05	0.00016	0.00022	-0.0001	6
29926	0	-2e-05	1e-05	-6e-05	0.00014	-9e-05	-0.00027	-0.00015	6
29927	0	-2e-05	1e-05	-6e-05	0.00014	-9e-05	-0.00027	-0.00015	6
29928	1e-05	4e-05	6e-05	0.00025	0.00063	0.00013	-0.00012	7e-05	6
29929	1e-05	4e-05	6e-05	0.00025	0.00063	0.00013	-0.00012	7e-05	6
29930	1e-05	4e-05	6e-05	0.00025	0.00063	0.00013	-0.00012	7e-05	6
29931	1e-05	4e-05	6e-05	0.00025	0.00063	0.00013	-0.00012	7e-05	6
29932	1e-05	4e-05	6e-05	0.00025	0.00063	0.00013	-0.00012	7e-05	6
29933	1e-05	4e-05	6e-05	0.00025	0.00063	0.00013	-0.00012	7e-05	6
29934	1e-05	4e-05	6e-05	0.00025	0.00063	0.00013	-0.00012	7e-05	6
29935	1e-05	4e-05	6e-05	0.00025	0.00063	0.00013	-0.00012	7e-05	6
29936	1e-05	4e-05	6e-05	0.00025	0.00063	0.00013	-0.00012	7e-05	6
29938	1e-05	4e-05	6e-05	0.00025	0.00063	0.00013	-0.00012	7e-05	6
29939	1e-05	4e-05	6e-05	0.00025	0.00063	0.00013	-0.00012	7e-05	6
29940	1e-05	4e-05	6e-05	0.00025	0.00063	0.00013	-0.00012	7e-05	6
29941	1e-05	4e-05	6e-05	0.00025	0.00063	0.00013	-0.00012	7e-05	6
29942	1e-05	4e-05	6e-05	0.00025	0.00063	0.00013	-0.00012	7e-05	6
29943	1e-05	4e-05	6e-05	0.00025	0.00063	0.00013	-0.00012	7e-05	6
29944	1e-05	4e-05	6e-05	0.00025	0.00063	0.00013	-0.00012	7e-05	6
29945	1e-05	4e-05	6e-05	0.00025	0.00063	0.00013	-0.00012	7e-05	6
29946	1e-05	4e-05	6e-05	0.00025	0.00063	0.00013	-0.00012	7e-05	6
29947	1e-05	4e-05	6e-05	0.00025	0.00063	0.00013	-0.00012	7e-05	6
29948	1e-05	4e-05	6e-05	0.00025	0.00063	0.00013	-0.00012	7e-05	6
29949	-1e-05	-1e-05	-6e-05	-0.0005	0.00013	-4e-05	0.00016	-8e-05	6
29950	1e-05	2e-05	2e-05	-4e-05	-0.00069	8e-05	-0.00021	5e-05	6
29951	0	0	0	9e-05	0.00073	-1e-05	-5e-05	0	6
29952	0	0	0	9e-05	0.00073	-1e-05	-5e-05	0	6
29953	0	0	0	9e-05	0.00073	-1e-05	-5e-05	0	6
29954	0	0	0	9e-05	0.00073	-1e-05	-5e-05	0	6
29955	0	0	0	9e-05	0.00073	-1e-05	-5e-05	0	6
29956	0	0	0	9e-05	0.00073	-1e-05	-5e-05	0	6
29957	0	0	0	9e-05	0.00073	-1e-05	-5e-05	0	6
29958	0	0	0	9e-05	0.00073	-1e-05	-5e-05	0	6
29959	0	0	0	9e-05	0.00073	-1e-05	-5e-05	0	6
29960	0	0	0	9e-05	0.00073	-1e-05	-5e-05	0	6
29961	0	0	0	9e-05	0.00073	-1e-05	-5e-05	0	6
29962	0	0	0	9e-05	0.00073	-1e-05	-5e-05	0	6
29963	0	0	0	9e-05	0.00073	-1e-05	-5e-05	0	6
29964	0	0	0	9e-05	0.00073	-1e-05	-5e-05	0	6
29965	0	0	0	9e-05	0.00073	-1e-05	-5e-05	0	6
29966	0	0	0	9e-05	0.00073	-1e-05	-5e-05	0	6
29967	0	0	0	9e-05	0.00073	-1e-05	-5e-05	0	6
29968	0	0	0	9e-05	0.00073	-1e-05	-5e-05	0	6
29969	0	0	0	9e-05	0.00073	-1e-05	-5e-05	0	6
29970	0	0	0	9e-05	0.00073	-1e-05	-5e-05	0	6
29971	4e-05	4e-05	0.00012	-0.00033	0.00078	0.00015	-0.00013	5e-05	6
29972	4e-05	4e-05	0.00012	-0.00033	0.00078	0.00015	-0.00013	5e-05	6
29973	-1e-05	-1e-05	3e-05	-0.00013	-3e-05	-3e-05	-1e-05	-2e-05	6
29974	-1e-05	-1e-05	3e-05	-0.00013	-3e-05	-3e-05	-1e-05	-2e-05	6
29975	-1e-05	-1e-05	3e-05	-0.00013	-3e-05	-3e-05	-1e-05	-2e-05	6
29976	-1e-05	-1e-05	3e-05	-0.00013	-3e-05	-3e-05	-1e-05	-2e-05	6
29977	-1e-05	-1e-05	3e-05	-0.00013	-3e-05	-3e-05	-1e-05	-2e-05	6
29978	-1e-05	-1e-05	3e-05	-0.00013	-3e-05	-3e-05	-1e-05	-2e-05	6
29979	-1e-05	-1e-05	3e-05	-0.00013	-3e-05	-3e-05	-1e-05	-2e-05	6
29980	-1e-05	-1e-05	3e-05	-0.00013	-3e-05	-3e-05	-1e-05	-2e-05	6
29981	-1e-05	-1e-05	3e-05	-0.00013	-3e-05	-3e-05	-1e-05	-2e-05	6
29982	-1e-05	-1e-05	3e-05	-0.00013	-3e-05	-3e-05	-1e-05	-2e-05	6
29983	-1e-05	-1e-05	3e-05	-0.00013	-3e-05	-3e-05	-1e-05	-2e-05	6
29984	-1e-05	-1e-05	3e-05	-0.00013	-3e-05	-3e-05	-1e-05	-2e-05	6
29985	-1e-05	-1e-05	3e-05	-0.00013	-3e-05	-3e-05	-1e-05	-2e-05	6
29986	-1e-05	-1e-05	3e-05	-0.00013	-3e-05	-3e-05	-1e-05	-2e-05	6
29988	-1e-05	-1e-05	3e-05	-0.00013	-3e-05	-3e-05	-1e-05	-2e-05	6
29989	-1e-05	-1e-05	3e-05	-0.00013	-3e-05	-3e-05	-1e-05	-2e-05	6
29990	-1e-05	-1e-05	3e-05	-0.00013	-3e-05	-3e-05	-1e-05	-2e-05	6
29991	-1e-05	-1e-05	3e-05	-0.00013	-3e-05	-3e-05	-1e-05	-2e-05	6
29992	-1e-05	-1e-05	3e-05	-0.00013	-3e-05	-3e-05	-1e-05	-2e-05	6
29993	-1e-05	-1e-05	3e-05	-0.00013	-3e-05	-3e-05	-1e-05	-2e-05	6
29994	-1e-05	-1e-05	3e-05	-0.00013	-3e-05	-3e-05	-1e-05	-2e-05	6
29995	-1e-05	-1e-05	3e-05	-0.00013	-3e-05	-3e-05	-1e-05	-2e-05	6
29996	-1e-05	-1e-05	3e-05	-0.00013	-3e-05	-3e-05	-1e-05	-2e-05	6
29997	-1e-05	-1e-05	3e-05	-0.00013	-3e-05	-3e-05	-1e-05	-2e-05	6
29998	-1e-05	-1e-05	3e-05	-0.00013	-3e-05	-3e-05	-1e-05	-2e-05	6
29999	-1e-05	-1e-05	3e-05	-0.00013	-3e-05	-3e-05	-1e-05	-2e-05	6
30000	-1e-05	-1e-05	3e-05	-0.00013	-3e-05	-3e-05	-1e-05	-2e-05	6
30001	-1e-05	-1e-05	3e-05	-0.00013	-3e-05	-3e-05	-1e-05	-2e-05	6
30002	-2e-05	0	-7e-05	-8e-05	-0.00074	-0.00015	-0.0001	-4e-05	6
30003	-1e-05	1e-05	6e-05	0.00073	-0.00021	-0.00016	-7e-05	2e-05	6
30004	-6e-05	-8e-05	-6e-05	-0.00032	-0.0006	0.00017	8e-05	-3e-05	6
30005	-6e-05	-8e-05	-6e-05	-0.00032	-0.0006	0.00017	8e-05	-3e-05	6
30006	-6e-05	-8e-05	-6e-05	-0.00032	-0.0006	0.00017	8e-05	-3e-05	6
30007	-6e-05	-8e-05	-6e-05	-0.00032	-0.0006	0.00017	8e-05	-3e-05	6
30008	1e-05	3e-05	-2e-05	9e-05	-0.00035	-0.00016	-0.00011	-1e-05	6
30009	-1e-05	-2e-05	0	-9e-05	-0.00074	-0.0001	0.00018	-3e-05	6
30010	-1e-05	-2e-05	0	-9e-05	-0.00074	-0.0001	0.00018	-3e-05	6
30011	-1e-05	-2e-05	0	-9e-05	-0.00074	-0.0001	0.00018	-3e-05	6
30012	-1e-05	-2e-05	0	-9e-05	-0.00074	-0.0001	0.00018	-3e-05	6
30013	-1e-05	-2e-05	0	-9e-05	-0.00074	-0.0001	0.00018	-3e-05	6
30014	-1e-05	-2e-05	0	-9e-05	-0.00074	-0.0001	0.00018	-3e-05	6
30015	-1e-05	-2e-05	0	-9e-05	-0.00074	-0.0001	0.00018	-3e-05	6
30016	-1e-05	-2e-05	0	-9e-05	-0.00074	-0.0001	0.00018	-3e-05	6
30017	-1e-05	-2e-05	0	-9e-05	-0.00074	-0.0001	0.00018	-3e-05	6
30018	-1e-05	-2e-05	0	-9e-05	-0.00074	-0.0001	0.00018	-3e-05	6
30019	-1e-05	-2e-05	0	-9e-05	-0.00074	-0.0001	0.00018	-3e-05	6
30020	-1e-05	-2e-05	0	-9e-05	-0.00074	-0.0001	0.00018	-3e-05	6
30021	-1e-05	-2e-05	0	-9e-05	-0.00074	-0.0001	0.00018	-3e-05	6
30022	-1e-05	-2e-05	0	-9e-05	-0.00074	-0.0001	0.00018	-3e-05	6
30023	-1e-05	-2e-05	0	-9e-05	-0.00074	-0.0001	0.00018	-3e-05	6
30024	-1e-05	-2e-05	0	-9e-05	-0.00074	-0.0001	0.00018	-3e-05	6
30025	-1e-05	-2e-05	0	-9e-05	-0.00074	-0.0001	0.00018	-3e-05	6
30026	-1e-05	-2e-05	0	-9e-05	-0.00074	-0.0001	0.00018	-3e-05	6
30027	-1e-05	-2e-05	0	-9e-05	-0.00074	-0.0001	0.00018	-3e-05	6
30028	-1e-05	-2e-05	0	-9e-05	-0.00074	-0.0001	0.00018	-3e-05	6
30029	-1e-05	-2e-05	0	-9e-05	-0.00074	-0.0001	0.00018	-3e-05	6
30030	-1e-05	-2e-05	0	-9e-05	-0.00074	-0.0001	0.00018	-3e-05	6
30031	5e-05	4e-05	7e-05	3e-05	0.00049	-7e-05	5e-05	9e-05	6
30032	5e-05	4e-05	7e-05	3e-05	0.00049	-7e-05	5e-05	9e-05	6
30033	-7e-05	-7e-05	-0.00013	-0.00031	0.00019	0.0001	-0.00025	-0.00019	6
30034	-7e-05	-7e-05	-0.00013	-0.00031	0.00019	0.0001	-0.00025	-0.00019	6
30035	-7e-05	-7e-05	-0.00013	-0.00031	0.00019	0.0001	-0.00025	-0.00019	6
30041	-7e-05	-7e-05	-0.00013	-0.00031	0.00019	0.0001	-0.00025	-0.00019	6
30042	-7e-05	-7e-05	-0.00013	-0.00031	0.00019	0.0001	-0.00025	-0.00019	6
30043	-7e-05	-7e-05	-0.00013	-0.00031	0.00019	0.0001	-0.00025	-0.00019	6
30044	-7e-05	-7e-05	-0.00013	-0.00031	0.00019	0.0001	-0.00025	-0.00019	6
30045	-7e-05	-7e-05	-0.00013	-0.00031	0.00019	0.0001	-0.00025	-0.00019	6
30046	-7e-05	-7e-05	-0.00013	-0.00031	0.00019	0.0001	-0.00025	-0.00019	6
30047	-7e-05	-7e-05	-0.00013	-0.00031	0.00019	0.0001	-0.00025	-0.00019	6
30048	-7e-05	-7e-05	-0.00013	-0.00031	0.00019	0.0001	-0.00025	-0.00019	6
30049	-7e-05	-7e-05	-0.00013	-0.00031	0.00019	0.0001	-0.00025	-0.00019	6
30050	-7e-05	-7e-05	-0.00013	-0.00031	0.00019	0.0001	-0.00025	-0.00019	6
30051	-7e-05	-7e-05	-0.00013	-0.00031	0.00019	0.0001	-0.00025	-0.00019	6
30052	-7e-05	-7e-05	-0.00013	-0.00031	0.00019	0.0001	-0.00025	-0.00019	6
30053	-4e-05	-4e-05	-6e-05	-0.00019	-0.00022	-0.00015	-0.00043	-8e-05	6
30054	-5e-05	-7e-05	1e-05	9e-05	-0.00095	0.00045	0.00035	-3e-05	6
30055	2e-05	4e-05	-9e-05	7e-05	0.00057	-0.00024	-5e-05	4e-05	6
30056	2e-05	4e-05	-9e-05	7e-05	0.00057	-0.00024	-5e-05	4e-05	6
30057	2e-05	4e-05	-9e-05	7e-05	0.00057	-0.00024	-5e-05	4e-05	6
30058	2e-05	4e-05	-9e-05	7e-05	0.00057	-0.00024	-5e-05	4e-05	6
30059	2e-05	4e-05	-9e-05	7e-05	0.00057	-0.00024	-5e-05	4e-05	6
30060	-1e-05	1e-05	2e-05	0.0004	0.00013	0.00018	-0.00032	-0.00012	6
30061	-1e-05	1e-05	2e-05	0.0004	0.00013	0.00018	-0.00032	-0.00012	6
30062	-1e-05	1e-05	2e-05	0.0004	0.00013	0.00018	-0.00032	-0.00012	6
30063	-1e-05	1e-05	2e-05	0.0004	0.00013	0.00018	-0.00032	-0.00012	6
30064	-1e-05	1e-05	2e-05	0.0004	0.00013	0.00018	-0.00032	-0.00012	6
30065	-1e-05	1e-05	2e-05	0.0004	0.00013	0.00018	-0.00032	-0.00012	6
30066	-1e-05	1e-05	2e-05	0.0004	0.00013	0.00018	-0.00032	-0.00012	6
30067	-1e-05	1e-05	2e-05	0.0004	0.00013	0.00018	-0.00032	-0.00012	6
30068	-1e-05	1e-05	2e-05	0.0004	0.00013	0.00018	-0.00032	-0.00012	6
30069	-2e-05	-1e-05	-3e-05	-0.00021	-0.00053	4e-05	0	-2e-05	6
30070	-2e-05	-1e-05	-3e-05	-0.00021	-0.00053	4e-05	0	-2e-05	6
30071	-2e-05	-1e-05	-3e-05	-0.00021	-0.00053	4e-05	0	-2e-05	6
30072	-2e-05	-1e-05	-3e-05	-0.00021	-0.00053	4e-05	0	-2e-05	6
30073	-2e-05	-1e-05	-3e-05	-0.00021	-0.00053	4e-05	0	-2e-05	6
30074	-2e-05	-1e-05	-3e-05	-0.00021	-0.00053	4e-05	0	-2e-05	6
30075	-2e-05	-1e-05	-3e-05	-0.00021	-0.00053	4e-05	0	-2e-05	6
30076	-2e-05	-1e-05	-3e-05	-0.00021	-0.00053	4e-05	0	-2e-05	6
30077	-2e-05	-1e-05	-3e-05	-0.00021	-0.00053	4e-05	0	-2e-05	6
30078	-2e-05	-1e-05	-3e-05	-0.00021	-0.00053	4e-05	0	-2e-05	6
30079	-2e-05	-1e-05	-3e-05	-0.00021	-0.00053	4e-05	0	-2e-05	6
30080	-2e-05	-1e-05	-3e-05	-0.00021	-0.00053	4e-05	0	-2e-05	6
30081	-2e-05	-1e-05	-3e-05	-0.00021	-0.00053	4e-05	0	-2e-05	6
30082	-2e-05	-1e-05	-3e-05	-0.00021	-0.00053	4e-05	0	-2e-05	6
30083	-2e-05	-1e-05	-3e-05	-0.00021	-0.00053	4e-05	0	-2e-05	6
30084	4e-05	5e-05	0.00012	0.00043	-0.00018	0.00016	0	1e-05	6
30085	-1e-05	-5e-05	-1e-05	1e-05	-6e-05	-0.00029	-0.00019	-2e-05	6
30086	-1e-05	-5e-05	-1e-05	1e-05	-6e-05	-0.00029	-0.00019	-2e-05	6
30088	-1e-05	-5e-05	-1e-05	1e-05	-6e-05	-0.00029	-0.00019	-2e-05	6
30089	-1e-05	-5e-05	-1e-05	1e-05	-6e-05	-0.00029	-0.00019	-2e-05	6
30090	-1e-05	-5e-05	-1e-05	1e-05	-6e-05	-0.00029	-0.00019	-2e-05	6
30091	-1e-05	-5e-05	-1e-05	1e-05	-6e-05	-0.00029	-0.00019	-2e-05	6
30092	-1e-05	-5e-05	-1e-05	1e-05	-6e-05	-0.00029	-0.00019	-2e-05	6
30093	-1e-05	-5e-05	-1e-05	1e-05	-6e-05	-0.00029	-0.00019	-2e-05	6
30094	-1e-05	-5e-05	-1e-05	1e-05	-6e-05	-0.00029	-0.00019	-2e-05	6
30095	-1e-05	-5e-05	-1e-05	1e-05	-6e-05	-0.00029	-0.00019	-2e-05	6
30096	-1e-05	-5e-05	-1e-05	1e-05	-6e-05	-0.00029	-0.00019	-2e-05	6
30097	-1e-05	-5e-05	-1e-05	1e-05	-6e-05	-0.00029	-0.00019	-2e-05	6
30098	-1e-05	-5e-05	-1e-05	1e-05	-6e-05	-0.00029	-0.00019	-2e-05	6
30099	-1e-05	-5e-05	-1e-05	1e-05	-6e-05	-0.00029	-0.00019	-2e-05	6
30100	-1e-05	-5e-05	-1e-05	1e-05	-6e-05	-0.00029	-0.00019	-2e-05	6
30101	-1e-05	-5e-05	-1e-05	1e-05	-6e-05	-0.00029	-0.00019	-2e-05	6
30102	-1e-05	-5e-05	-1e-05	1e-05	-6e-05	-0.00029	-0.00019	-2e-05	6
30103	-1e-05	-5e-05	-1e-05	1e-05	-6e-05	-0.00029	-0.00019	-2e-05	6
30104	-1e-05	-5e-05	-1e-05	1e-05	-6e-05	-0.00029	-0.00019	-2e-05	6
30105	-1e-05	-5e-05	-1e-05	1e-05	-6e-05	-0.00029	-0.00019	-2e-05	6
30106	-1e-05	-5e-05	-1e-05	1e-05	-6e-05	-0.00029	-0.00019	-2e-05	6
30107	-1e-05	-5e-05	-1e-05	1e-05	-6e-05	-0.00029	-0.00019	-2e-05	6
30108	-1e-05	-5e-05	-1e-05	1e-05	-6e-05	-0.00029	-0.00019	-2e-05	6
30109	-1e-05	-5e-05	-1e-05	1e-05	-6e-05	-0.00029	-0.00019	-2e-05	6
30110	-1e-05	-5e-05	-1e-05	1e-05	-6e-05	-0.00029	-0.00019	-2e-05	6
30111	-1e-05	-5e-05	-1e-05	1e-05	-6e-05	-0.00029	-0.00019	-2e-05	6
30112	-1e-05	-5e-05	-1e-05	1e-05	-6e-05	-0.00029	-0.00019	-2e-05	6
30113	-1e-05	-5e-05	-1e-05	1e-05	-6e-05	-0.00029	-0.00019	-2e-05	6
30114	-2e-05	-2e-05	2e-05	0.00027	0.00012	-0.00024	-5e-05	-2e-05	6
30115	0	1e-05	1e-05	0.00013	0.00084	8e-05	5e-05	-1e-05	6
30116	0	-3e-05	-0.00016	-0.00081	-0.00033	-5e-05	5e-05	1e-05	6
30117	0	-3e-05	-0.00016	-0.00081	-0.00033	-5e-05	5e-05	1e-05	6
30118	0	-3e-05	-0.00016	-0.00081	-0.00033	-5e-05	5e-05	1e-05	6
30119	0	-3e-05	-0.00016	-0.00081	-0.00033	-5e-05	5e-05	1e-05	6
30120	1e-05	-2e-05	3e-05	4e-05	0.00025	-0.00033	5e-05	-6e-05	6
30121	1e-05	-2e-05	3e-05	4e-05	0.00025	-0.00033	5e-05	-6e-05	6
30122	1e-05	-2e-05	3e-05	4e-05	0.00025	-0.00033	5e-05	-6e-05	6
30123	1e-05	-2e-05	3e-05	4e-05	0.00025	-0.00033	5e-05	-6e-05	6
30124	1e-05	-2e-05	3e-05	4e-05	0.00025	-0.00033	5e-05	-6e-05	6
30125	1e-05	-2e-05	3e-05	4e-05	0.00025	-0.00033	5e-05	-6e-05	6
30126	1e-05	-2e-05	3e-05	4e-05	0.00025	-0.00033	5e-05	-6e-05	6
30127	1e-05	-2e-05	3e-05	4e-05	0.00025	-0.00033	5e-05	-6e-05	6
30128	1e-05	-2e-05	3e-05	4e-05	0.00025	-0.00033	5e-05	-6e-05	6
30129	1e-05	-2e-05	3e-05	4e-05	0.00025	-0.00033	5e-05	-6e-05	6
30130	1e-05	-2e-05	3e-05	4e-05	0.00025	-0.00033	5e-05	-6e-05	6
30131	1e-05	-2e-05	3e-05	4e-05	0.00025	-0.00033	5e-05	-6e-05	6
30132	1e-05	-2e-05	3e-05	4e-05	0.00025	-0.00033	5e-05	-6e-05	6
30133	1e-05	-2e-05	3e-05	4e-05	0.00025	-0.00033	5e-05	-6e-05	6
30134	1e-05	-2e-05	3e-05	4e-05	0.00025	-0.00033	5e-05	-6e-05	6
30135	1e-05	-2e-05	3e-05	4e-05	0.00025	-0.00033	5e-05	-6e-05	6
30136	-3e-05	-2e-05	8e-05	0.0004	-0.00089	8e-05	-1e-05	-2e-05	6
30138	-3e-05	-2e-05	8e-05	0.0004	-0.00089	8e-05	-1e-05	-2e-05	6
30139	-3e-05	-2e-05	8e-05	0.0004	-0.00089	8e-05	-1e-05	-2e-05	6
30140	-3e-05	-2e-05	8e-05	0.0004	-0.00089	8e-05	-1e-05	-2e-05	6
30141	-3e-05	-2e-05	8e-05	0.0004	-0.00089	8e-05	-1e-05	-2e-05	6
30142	-3e-05	-2e-05	8e-05	0.0004	-0.00089	8e-05	-1e-05	-2e-05	6
30143	-3e-05	-2e-05	8e-05	0.0004	-0.00089	8e-05	-1e-05	-2e-05	6
30144	-2e-05	-2e-05	-9e-05	-0.00041	0.00034	0.0001	0.00015	2e-05	6
30145	3e-05	6e-05	7e-05	7e-05	-0.00011	0.00041	9e-05	5e-05	6
30146	3e-05	6e-05	7e-05	7e-05	-0.00011	0.00041	9e-05	5e-05	6
30147	3e-05	6e-05	7e-05	7e-05	-0.00011	0.00041	9e-05	5e-05	6
30148	3e-05	6e-05	7e-05	7e-05	-0.00011	0.00041	9e-05	5e-05	6
30149	3e-05	6e-05	7e-05	7e-05	-0.00011	0.00041	9e-05	5e-05	6
30150	3e-05	6e-05	7e-05	7e-05	-0.00011	0.00041	9e-05	5e-05	6
30151	3e-05	6e-05	7e-05	7e-05	-0.00011	0.00041	9e-05	5e-05	6
30152	3e-05	6e-05	7e-05	7e-05	-0.00011	0.00041	9e-05	5e-05	6
30153	3e-05	6e-05	7e-05	7e-05	-0.00011	0.00041	9e-05	5e-05	6
30154	3e-05	6e-05	7e-05	7e-05	-0.00011	0.00041	9e-05	5e-05	6
30155	3e-05	6e-05	7e-05	7e-05	-0.00011	0.00041	9e-05	5e-05	6
30156	3e-05	6e-05	7e-05	7e-05	-0.00011	0.00041	9e-05	5e-05	6
30157	3e-05	6e-05	7e-05	7e-05	-0.00011	0.00041	9e-05	5e-05	6
30158	3e-05	6e-05	7e-05	7e-05	-0.00011	0.00041	9e-05	5e-05	6
30159	3e-05	6e-05	7e-05	7e-05	-0.00011	0.00041	9e-05	5e-05	6
30160	3e-05	6e-05	7e-05	7e-05	-0.00011	0.00041	9e-05	5e-05	6
30161	3e-05	6e-05	7e-05	7e-05	-0.00011	0.00041	9e-05	5e-05	6
30162	3e-05	6e-05	7e-05	7e-05	-0.00011	0.00041	9e-05	5e-05	6
30163	3e-05	6e-05	7e-05	7e-05	-0.00011	0.00041	9e-05	5e-05	6
30164	3e-05	6e-05	7e-05	7e-05	-0.00011	0.00041	9e-05	5e-05	6
30165	3e-05	6e-05	7e-05	7e-05	-0.00011	0.00041	9e-05	5e-05	6
30166	-1e-05	-2e-05	-1e-05	4e-05	0.00044	-0.00019	-0.00039	-7e-05	6
30167	-5e-05	-7e-05	2e-05	0.00015	-6e-05	0.00023	0.00018	-1e-05	6
30168	3e-05	0	3e-05	0.00012	0.00086	0.00031	9e-05	3e-05	6
30169	3e-05	0	3e-05	0.00012	0.00086	0.00031	9e-05	3e-05	6
30170	3e-05	0	3e-05	0.00012	0.00086	0.00031	9e-05	3e-05	6
30171	3e-05	0	3e-05	0.00012	0.00086	0.00031	9e-05	3e-05	6
30172	3e-05	0	3e-05	0.00012	0.00086	0.00031	9e-05	3e-05	6
30173	3e-05	0	3e-05	0.00012	0.00086	0.00031	9e-05	3e-05	6
30174	3e-05	0	3e-05	0.00012	0.00086	0.00031	9e-05	3e-05	6
30175	3e-05	0	3e-05	0.00012	0.00086	0.00031	9e-05	3e-05	6
30176	3e-05	0	3e-05	0.00012	0.00086	0.00031	9e-05	3e-05	6
30177	3e-05	0	3e-05	0.00012	0.00086	0.00031	9e-05	3e-05	6
30178	3e-05	0	3e-05	0.00012	0.00086	0.00031	9e-05	3e-05	6
30179	3e-05	0	3e-05	0.00012	0.00086	0.00031	9e-05	3e-05	6
30180	3e-05	0	3e-05	0.00012	0.00086	0.00031	9e-05	3e-05	6
30181	3e-05	0	3e-05	0.00012	0.00086	0.00031	9e-05	3e-05	6
30182	3e-05	0	3e-05	0.00012	0.00086	0.00031	9e-05	3e-05	6
30183	3e-05	0	3e-05	0.00012	0.00086	0.00031	9e-05	3e-05	6
30184	3e-05	0	3e-05	0.00012	0.00086	0.00031	9e-05	3e-05	6
30185	3e-05	0	3e-05	0.00012	0.00086	0.00031	9e-05	3e-05	6
30186	3e-05	0	3e-05	0.00012	0.00086	0.00031	9e-05	3e-05	6
30188	3e-05	0	3e-05	0.00012	0.00086	0.00031	9e-05	3e-05	6
30189	3e-05	0	3e-05	0.00012	0.00086	0.00031	9e-05	3e-05	6
30190	3e-05	0	3e-05	0.00012	0.00086	0.00031	9e-05	3e-05	6
30191	3e-05	0	3e-05	0.00012	0.00086	0.00031	9e-05	3e-05	6
30192	3e-05	0	3e-05	0.00012	0.00086	0.00031	9e-05	3e-05	6
30193	3e-05	0	3e-05	0.00012	0.00086	0.00031	9e-05	3e-05	6
30194	3e-05	0	3e-05	0.00012	0.00086	0.00031	9e-05	3e-05	6
30195	3e-05	0	3e-05	0.00012	0.00086	0.00031	9e-05	3e-05	6
30196	-3e-05	-3e-05	-9e-05	0.00015	1e-05	0.00011	-0.00043	-0.0005	6
30197	-1e-05	-1e-05	-3e-05	-0.0002	-4e-05	5e-05	-5e-05	2e-05	6
30198	-1e-05	-1e-05	-3e-05	-0.0002	-4e-05	5e-05	-5e-05	2e-05	6
30199	-1e-05	-1e-05	-3e-05	-0.0002	-4e-05	5e-05	-5e-05	2e-05	6
30200	-1e-05	-1e-05	-3e-05	-0.0002	-4e-05	5e-05	-5e-05	2e-05	6
30201	-1e-05	-1e-05	-3e-05	-0.0002	-4e-05	5e-05	-5e-05	2e-05	6
30202	-1e-05	-1e-05	-3e-05	-0.0002	-4e-05	5e-05	-5e-05	2e-05	6
30203	4e-05	5e-05	3e-05	1e-05	-0.00073	-0.00029	0.00017	0.00018	6
30204	4e-05	5e-05	3e-05	1e-05	-0.00073	-0.00029	0.00017	0.00018	6
30205	-5e-05	-9e-05	-0.0001	9e-05	0.00017	-0.00019	-0.0001	-0.00011	6
30206	-5e-05	-9e-05	-0.0001	9e-05	0.00017	-0.00019	-0.0001	-0.00011	6
30207	-5e-05	-9e-05	-0.0001	9e-05	0.00017	-0.00019	-0.0001	-0.00011	6
30208	-5e-05	-9e-05	-0.0001	9e-05	0.00017	-0.00019	-0.0001	-0.00011	6
30209	-5e-05	-9e-05	-0.0001	9e-05	0.00017	-0.00019	-0.0001	-0.00011	6
30210	-5e-05	-9e-05	-0.0001	9e-05	0.00017	-0.00019	-0.0001	-0.00011	6
30211	-5e-05	-9e-05	-0.0001	9e-05	0.00017	-0.00019	-0.0001	-0.00011	6
30212	-5e-05	-9e-05	-0.0001	9e-05	0.00017	-0.00019	-0.0001	-0.00011	6
30213	-5e-05	-9e-05	-0.0001	9e-05	0.00017	-0.00019	-0.0001	-0.00011	6
30214	-5e-05	-9e-05	-0.0001	9e-05	0.00017	-0.00019	-0.0001	-0.00011	6
30215	-5e-05	-9e-05	-0.0001	9e-05	0.00017	-0.00019	-0.0001	-0.00011	6
30216	-5e-05	-9e-05	-0.0001	9e-05	0.00017	-0.00019	-0.0001	-0.00011	6
30217	-5e-05	-9e-05	-0.0001	9e-05	0.00017	-0.00019	-0.0001	-0.00011	6
30218	-5e-05	-9e-05	-0.0001	9e-05	0.00017	-0.00019	-0.0001	-0.00011	6
30219	-5e-05	-9e-05	-0.0001	9e-05	0.00017	-0.00019	-0.0001	-0.00011	6
30220	-5e-05	-9e-05	-0.0001	9e-05	0.00017	-0.00019	-0.0001	-0.00011	6
30221	-5e-05	-9e-05	-0.0001	9e-05	0.00017	-0.00019	-0.0001	-0.00011	6
30222	-5e-05	-9e-05	-0.0001	9e-05	0.00017	-0.00019	-0.0001	-0.00011	6
30223	-5e-05	-9e-05	-0.0001	9e-05	0.00017	-0.00019	-0.0001	-0.00011	6
30224	-5e-05	-9e-05	-0.0001	9e-05	0.00017	-0.00019	-0.0001	-0.00011	6
30225	-5e-05	-9e-05	-0.0001	9e-05	0.00017	-0.00019	-0.0001	-0.00011	6
30226	-3e-05	-1e-05	-2e-05	4e-05	0.00091	4e-05	-0.00015	3e-05	6
30227	4e-05	6e-05	2e-05	-0.00012	-0.00027	0.0001	0.00042	0.00016	6
30228	4e-05	6e-05	2e-05	-0.00012	-0.00027	0.0001	0.00042	0.00016	6
30229	4e-05	6e-05	2e-05	-0.00012	-0.00027	0.0001	0.00042	0.00016	6
30230	4e-05	6e-05	2e-05	-0.00012	-0.00027	0.0001	0.00042	0.00016	6
30231	4e-05	6e-05	2e-05	-0.00012	-0.00027	0.0001	0.00042	0.00016	6
30232	4e-05	6e-05	2e-05	-0.00012	-0.00027	0.0001	0.00042	0.00016	6
30233	4e-05	6e-05	2e-05	-0.00012	-0.00027	0.0001	0.00042	0.00016	6
30234	4e-05	6e-05	2e-05	-0.00012	-0.00027	0.0001	0.00042	0.00016	6
30235	4e-05	6e-05	2e-05	-0.00012	-0.00027	0.0001	0.00042	0.00016	6
30236	4e-05	6e-05	2e-05	-0.00012	-0.00027	0.0001	0.00042	0.00016	6
30238	4e-05	6e-05	2e-05	-0.00012	-0.00027	0.0001	0.00042	0.00016	6
30239	4e-05	6e-05	2e-05	-0.00012	-0.00027	0.0001	0.00042	0.00016	6
30240	4e-05	6e-05	2e-05	-0.00012	-0.00027	0.0001	0.00042	0.00016	6
30241	4e-05	6e-05	2e-05	-0.00012	-0.00027	0.0001	0.00042	0.00016	6
30242	4e-05	6e-05	2e-05	-0.00012	-0.00027	0.0001	0.00042	0.00016	6
30243	4e-05	6e-05	2e-05	-0.00012	-0.00027	0.0001	0.00042	0.00016	6
30244	4e-05	6e-05	2e-05	-0.00012	-0.00027	0.0001	0.00042	0.00016	6
30245	4e-05	6e-05	2e-05	-0.00012	-0.00027	0.0001	0.00042	0.00016	6
30246	4e-05	6e-05	2e-05	-0.00012	-0.00027	0.0001	0.00042	0.00016	6
30247	4e-05	6e-05	2e-05	-0.00012	-0.00027	0.0001	0.00042	0.00016	6
30248	4e-05	6e-05	2e-05	-0.00012	-0.00027	0.0001	0.00042	0.00016	6
30249	-1e-05	0	3e-05	0.00043	1e-05	-5e-05	8e-05	0.00019	6
30250	-1e-05	1e-05	-2e-05	-0.00018	-0.00071	-0.0002	-7e-05	-4e-05	6
30251	-1e-05	1e-05	-2e-05	-0.00018	-0.00071	-0.0002	-7e-05	-4e-05	6
30252	-1e-05	1e-05	-2e-05	-0.00018	-0.00071	-0.0002	-7e-05	-4e-05	6
30253	-1e-05	1e-05	-2e-05	-0.00018	-0.00071	-0.0002	-7e-05	-4e-05	6
30254	-1e-05	1e-05	-2e-05	-0.00018	-0.00071	-0.0002	-7e-05	-4e-05	6
30255	-1e-05	1e-05	-2e-05	-0.00018	-0.00071	-0.0002	-7e-05	-4e-05	6
30256	-1e-05	1e-05	-2e-05	-0.00018	-0.00071	-0.0002	-7e-05	-4e-05	6
30257	-1e-05	1e-05	-2e-05	-0.00018	-0.00071	-0.0002	-7e-05	-4e-05	6
30258	-1e-05	1e-05	-2e-05	-0.00018	-0.00071	-0.0002	-7e-05	-4e-05	6
30259	-1e-05	1e-05	-2e-05	-0.00018	-0.00071	-0.0002	-7e-05	-4e-05	6
30260	-1e-05	1e-05	-2e-05	-0.00018	-0.00071	-0.0002	-7e-05	-4e-05	6
30261	-1e-05	1e-05	-2e-05	-0.00018	-0.00071	-0.0002	-7e-05	-4e-05	6
30262	-1e-05	1e-05	-2e-05	-0.00018	-0.00071	-0.0002	-7e-05	-4e-05	6
30263	-1e-05	1e-05	-2e-05	-0.00018	-0.00071	-0.0002	-7e-05	-4e-05	6
30264	-1e-05	1e-05	-2e-05	-0.00018	-0.00071	-0.0002	-7e-05	-4e-05	6
30265	-1e-05	1e-05	-2e-05	-0.00018	-0.00071	-0.0002	-7e-05	-4e-05	6
30266	-1e-05	1e-05	-2e-05	-0.00018	-0.00071	-0.0002	-7e-05	-4e-05	6
30267	-1e-05	1e-05	-2e-05	-0.00018	-0.00071	-0.0002	-7e-05	-4e-05	6
30268	-1e-05	1e-05	-2e-05	-0.00018	-0.00071	-0.0002	-7e-05	-4e-05	6
30269	-1e-05	1e-05	-2e-05	-0.00018	-0.00071	-0.0002	-7e-05	-4e-05	6
30270	-1e-05	1e-05	-2e-05	-0.00018	-0.00071	-0.0002	-7e-05	-4e-05	6
30271	-1e-05	1e-05	-2e-05	-0.00018	-0.00071	-0.0002	-7e-05	-4e-05	6
30272	-1e-05	1e-05	-2e-05	-0.00018	-0.00071	-0.0002	-7e-05	-4e-05	6
30273	-1e-05	1e-05	-2e-05	-0.00018	-0.00071	-0.0002	-7e-05	-4e-05	6
30274	-1e-05	1e-05	-2e-05	-0.00018	-0.00071	-0.0002	-7e-05	-4e-05	6
30275	-1e-05	1e-05	-2e-05	-0.00018	-0.00071	-0.0002	-7e-05	-4e-05	6
30276	-1e-05	1e-05	-2e-05	-0.00018	-0.00071	-0.0002	-7e-05	-4e-05	6
30277	-1e-05	1e-05	-2e-05	-0.00018	-0.00071	-0.0002	-7e-05	-4e-05	6
30278	-1e-05	1e-05	-2e-05	-0.00018	-0.00071	-0.0002	-7e-05	-4e-05	6
30279	-1e-05	0	2e-05	-0.00012	-0.00037	7e-05	5e-05	1e-05	6
30280	-2e-05	-4e-05	-1e-05	-5e-05	-0.00046	-0.00014	-0.00011	-8e-05	6
30281	-2e-05	-4e-05	-1e-05	-5e-05	-0.00046	-0.00014	-0.00011	-8e-05	6
30282	-2e-05	-4e-05	-1e-05	-5e-05	-0.00046	-0.00014	-0.00011	-8e-05	6
30283	-2e-05	-4e-05	-1e-05	-5e-05	-0.00046	-0.00014	-0.00011	-8e-05	6
30284	-2e-05	-4e-05	-1e-05	-5e-05	-0.00046	-0.00014	-0.00011	-8e-05	6
30285	-2e-05	-4e-05	-1e-05	-5e-05	-0.00046	-0.00014	-0.00011	-8e-05	6
30286	-1e-05	-6e-05	-3e-05	-0.0002	-0.00053	-1e-05	-1e-05	-2e-05	6
30289	1e-05	-2e-05	-2e-05	0.0001	0.00023	-8e-05	-0.0001	-6e-05	6
30290	1e-05	-2e-05	-2e-05	0.0001	0.00023	-8e-05	-0.0001	-6e-05	6
30291	1e-05	-2e-05	-2e-05	0.0001	0.00023	-8e-05	-0.0001	-6e-05	6
30292	1e-05	-2e-05	-2e-05	0.0001	0.00023	-8e-05	-0.0001	-6e-05	6
30293	1e-05	-2e-05	-2e-05	0.0001	0.00023	-8e-05	-0.0001	-6e-05	6
30294	1e-05	-2e-05	-2e-05	0.0001	0.00023	-8e-05	-0.0001	-6e-05	6
30295	1e-05	-2e-05	-2e-05	0.0001	0.00023	-8e-05	-0.0001	-6e-05	6
30296	1e-05	-2e-05	-2e-05	0.0001	0.00023	-8e-05	-0.0001	-6e-05	6
30297	1e-05	-2e-05	-2e-05	0.0001	0.00023	-8e-05	-0.0001	-6e-05	6
30298	1e-05	-2e-05	-2e-05	0.0001	0.00023	-8e-05	-0.0001	-6e-05	6
30299	1e-05	-2e-05	-2e-05	0.0001	0.00023	-8e-05	-0.0001	-6e-05	6
30300	1e-05	-2e-05	-2e-05	0.0001	0.00023	-8e-05	-0.0001	-6e-05	6
30301	1e-05	-2e-05	-2e-05	0.0001	0.00023	-8e-05	-0.0001	-6e-05	6
30302	1e-05	-2e-05	-2e-05	0.0001	0.00023	-8e-05	-0.0001	-6e-05	6
30303	1e-05	-2e-05	-2e-05	0.0001	0.00023	-8e-05	-0.0001	-6e-05	6
30304	1e-05	-2e-05	-2e-05	0.0001	0.00023	-8e-05	-0.0001	-6e-05	6
30305	1e-05	-2e-05	-2e-05	0.0001	0.00023	-8e-05	-0.0001	-6e-05	6
30306	1e-05	-2e-05	-2e-05	0.0001	0.00023	-8e-05	-0.0001	-6e-05	6
30307	1e-05	-2e-05	-2e-05	0.0001	0.00023	-8e-05	-0.0001	-6e-05	6
30308	1e-05	-2e-05	-2e-05	0.0001	0.00023	-8e-05	-0.0001	-6e-05	6
30309	-3e-05	-2e-05	-9e-05	-0.00041	-0.00056	-9e-05	0.00016	-4e-05	6
30310	-2e-05	-2e-05	-4e-05	-5e-05	0.00048	-6e-05	-9e-05	-1e-05	6
30311	0	-1e-05	3e-05	0.00037	-0.00049	-0.0001	0.00014	1e-05	6
30312	0	-1e-05	3e-05	0.00037	-0.00049	-0.0001	0.00014	1e-05	6
30313	0	-1e-05	3e-05	0.00037	-0.00049	-0.0001	0.00014	1e-05	6
30314	0	-1e-05	3e-05	0.00037	-0.00049	-0.0001	0.00014	1e-05	6
30315	0	-1e-05	3e-05	0.00037	-0.00049	-0.0001	0.00014	1e-05	6
30316	0	-1e-05	3e-05	0.00037	-0.00049	-0.0001	0.00014	1e-05	6
30317	0	-1e-05	3e-05	0.00037	-0.00049	-0.0001	0.00014	1e-05	6
30318	0	-1e-05	3e-05	0.00037	-0.00049	-0.0001	0.00014	1e-05	6
30319	0	-1e-05	3e-05	0.00037	-0.00049	-0.0001	0.00014	1e-05	6
30320	0	-1e-05	3e-05	0.00037	-0.00049	-0.0001	0.00014	1e-05	6
30321	0	-1e-05	3e-05	0.00037	-0.00049	-0.0001	0.00014	1e-05	6
30322	0	-1e-05	3e-05	0.00037	-0.00049	-0.0001	0.00014	1e-05	6
30323	0	-1e-05	3e-05	0.00037	-0.00049	-0.0001	0.00014	1e-05	6
30324	0	-1e-05	3e-05	0.00037	-0.00049	-0.0001	0.00014	1e-05	6
30325	0	-1e-05	3e-05	0.00037	-0.00049	-0.0001	0.00014	1e-05	6
30326	0	-1e-05	3e-05	0.00037	-0.00049	-0.0001	0.00014	1e-05	6
30327	0	-1e-05	3e-05	0.00037	-0.00049	-0.0001	0.00014	1e-05	6
30328	0	-1e-05	3e-05	0.00037	-0.00049	-0.0001	0.00014	1e-05	6
30329	0	-1e-05	3e-05	0.00037	-0.00049	-0.0001	0.00014	1e-05	6
30330	0	-1e-05	3e-05	0.00037	-0.00049	-0.0001	0.00014	1e-05	6
30331	3e-05	2e-05	0	-0.00047	0.00034	-0.00018	-0.00031	2e-05	6
30332	1e-05	0	-2e-05	0.0001	0.00025	-6e-05	0.00015	0	6
30333	-4e-05	-3e-05	-1e-05	0.00016	-0.00052	-7e-05	-4e-05	-2e-05	6
30334	-4e-05	-3e-05	-1e-05	0.00016	-0.00052	-7e-05	-4e-05	-2e-05	6
30335	-4e-05	-3e-05	-1e-05	0.00016	-0.00052	-7e-05	-4e-05	-2e-05	6
30336	-4e-05	-3e-05	-1e-05	0.00016	-0.00052	-7e-05	-4e-05	-2e-05	6
30338	-4e-05	-3e-05	-1e-05	0.00016	-0.00052	-7e-05	-4e-05	-2e-05	6
30339	-4e-05	-3e-05	-1e-05	0.00016	-0.00052	-7e-05	-4e-05	-2e-05	6
30340	-4e-05	-3e-05	-1e-05	0.00016	-0.00052	-7e-05	-4e-05	-2e-05	6
30341	-4e-05	-3e-05	-1e-05	0.00016	-0.00052	-7e-05	-4e-05	-2e-05	6
30342	-4e-05	-3e-05	-1e-05	0.00016	-0.00052	-7e-05	-4e-05	-2e-05	6
30343	-4e-05	-3e-05	-1e-05	0.00016	-0.00052	-7e-05	-4e-05	-2e-05	6
30344	-4e-05	-3e-05	-1e-05	0.00016	-0.00052	-7e-05	-4e-05	-2e-05	6
30345	-4e-05	-3e-05	-1e-05	0.00016	-0.00052	-7e-05	-4e-05	-2e-05	6
30346	-3e-05	-1e-05	-8e-05	-7e-05	2e-05	-0.00017	-7e-05	-2e-05	6
30347	-3e-05	-1e-05	-8e-05	-7e-05	2e-05	-0.00017	-7e-05	-2e-05	6
30348	-3e-05	-2e-05	3e-05	-6e-05	0.00035	-1e-05	-0.00021	0	6
30349	-3e-05	-2e-05	3e-05	-6e-05	0.00035	-1e-05	-0.00021	0	6
30350	-3e-05	-2e-05	3e-05	-6e-05	0.00035	-1e-05	-0.00021	0	6
30351	-3e-05	-2e-05	3e-05	-6e-05	0.00035	-1e-05	-0.00021	0	6
30352	-3e-05	-2e-05	3e-05	-6e-05	0.00035	-1e-05	-0.00021	0	6
30353	-3e-05	-2e-05	3e-05	-6e-05	0.00035	-1e-05	-0.00021	0	6
30354	-3e-05	-2e-05	3e-05	-6e-05	0.00035	-1e-05	-0.00021	0	6
30355	-3e-05	-2e-05	3e-05	-6e-05	0.00035	-1e-05	-0.00021	0	6
30356	-3e-05	-2e-05	3e-05	-6e-05	0.00035	-1e-05	-0.00021	0	6
30357	-3e-05	-2e-05	3e-05	-6e-05	0.00035	-1e-05	-0.00021	0	6
30358	-3e-05	-2e-05	3e-05	-6e-05	0.00035	-1e-05	-0.00021	0	6
30359	-3e-05	-2e-05	3e-05	-6e-05	0.00035	-1e-05	-0.00021	0	6
30360	-3e-05	-2e-05	3e-05	-6e-05	0.00035	-1e-05	-0.00021	0	6
30361	-3e-05	-2e-05	3e-05	-6e-05	0.00035	-1e-05	-0.00021	0	6
30362	-3e-05	-2e-05	3e-05	-6e-05	0.00035	-1e-05	-0.00021	0	6
30363	-3e-05	-2e-05	3e-05	-6e-05	0.00035	-1e-05	-0.00021	0	6
30364	-3e-05	-2e-05	3e-05	-6e-05	0.00035	-1e-05	-0.00021	0	6
30365	-3e-05	-2e-05	3e-05	-6e-05	0.00035	-1e-05	-0.00021	0	6
30366	-3e-05	-2e-05	3e-05	-6e-05	0.00035	-1e-05	-0.00021	0	6
30367	-3e-05	-2e-05	3e-05	-6e-05	0.00035	-1e-05	-0.00021	0	6
30368	1e-05	0	-2e-05	0.00012	0.00015	8e-05	8e-05	1e-05	6
30369	1e-05	0	-2e-05	0.00012	0.00015	8e-05	8e-05	1e-05	6
30370	-1e-05	2e-05	0	-0.00017	0.00015	8e-05	-0.0001	2e-05	6
30371	-1e-05	2e-05	0	-0.00017	0.00015	8e-05	-0.0001	2e-05	6
30372	-1e-05	2e-05	0	-0.00017	0.00015	8e-05	-0.0001	2e-05	6
30373	-1e-05	2e-05	0	-0.00017	0.00015	8e-05	-0.0001	2e-05	6
30374	-1e-05	2e-05	0	-0.00017	0.00015	8e-05	-0.0001	2e-05	6
30375	-1e-05	2e-05	0	-0.00017	0.00015	8e-05	-0.0001	2e-05	6
30376	-1e-05	2e-05	0	-0.00017	0.00015	8e-05	-0.0001	2e-05	6
30377	-1e-05	2e-05	0	-0.00017	0.00015	8e-05	-0.0001	2e-05	6
30378	-1e-05	2e-05	0	-0.00017	0.00015	8e-05	-0.0001	2e-05	6
30379	-1e-05	2e-05	0	-0.00017	0.00015	8e-05	-0.0001	2e-05	6
30380	-1e-05	2e-05	0	-0.00017	0.00015	8e-05	-0.0001	2e-05	6
30381	-1e-05	2e-05	0	-0.00017	0.00015	8e-05	-0.0001	2e-05	6
30382	-1e-05	2e-05	0	-0.00017	0.00015	8e-05	-0.0001	2e-05	6
30383	-1e-05	2e-05	0	-0.00017	0.00015	8e-05	-0.0001	2e-05	6
30384	-1e-05	2e-05	0	-0.00017	0.00015	8e-05	-0.0001	2e-05	6
30385	-1e-05	2e-05	0	-0.00017	0.00015	8e-05	-0.0001	2e-05	6
30386	-1e-05	2e-05	0	-0.00017	0.00015	8e-05	-0.0001	2e-05	6
30388	-1e-05	2e-05	0	-0.00017	0.00015	8e-05	-0.0001	2e-05	6
30389	-1e-05	2e-05	0	-0.00017	0.00015	8e-05	-0.0001	2e-05	6
30390	-1e-05	2e-05	0	-0.00017	0.00015	8e-05	-0.0001	2e-05	6
30391	2e-05	-2e-05	-8e-05	-7e-05	0.00089	0.00022	-0.00015	-0.00035	6
30392	2e-05	-2e-05	-8e-05	-7e-05	0.00089	0.00022	-0.00015	-0.00035	6
30393	-6e-05	-5e-05	-0.00013	-4e-05	-0.00022	7e-05	-6e-05	-2e-05	6
30394	-6e-05	-5e-05	-0.00013	-4e-05	-0.00022	7e-05	-6e-05	-2e-05	6
30395	-6e-05	-5e-05	-0.00013	-4e-05	-0.00022	7e-05	-6e-05	-2e-05	6
30396	-6e-05	-5e-05	-0.00013	-4e-05	-0.00022	7e-05	-6e-05	-2e-05	6
30397	-6e-05	-5e-05	-0.00013	-4e-05	-0.00022	7e-05	-6e-05	-2e-05	6
30398	-6e-05	-5e-05	-0.00013	-4e-05	-0.00022	7e-05	-6e-05	-2e-05	6
30399	-6e-05	-5e-05	-0.00013	-4e-05	-0.00022	7e-05	-6e-05	-2e-05	6
30400	-6e-05	-5e-05	-0.00013	-4e-05	-0.00022	7e-05	-6e-05	-2e-05	6
30401	-6e-05	-5e-05	-0.00013	-4e-05	-0.00022	7e-05	-6e-05	-2e-05	6
30402	-6e-05	-5e-05	-0.00013	-4e-05	-0.00022	7e-05	-6e-05	-2e-05	6
30403	-6e-05	-5e-05	-0.00013	-4e-05	-0.00022	7e-05	-6e-05	-2e-05	6
30404	-6e-05	-5e-05	-0.00013	-4e-05	-0.00022	7e-05	-6e-05	-2e-05	6
30405	-6e-05	-5e-05	-0.00013	-4e-05	-0.00022	7e-05	-6e-05	-2e-05	6
30406	-6e-05	-5e-05	-0.00013	-4e-05	-0.00022	7e-05	-6e-05	-2e-05	6
30407	-6e-05	-5e-05	-0.00013	-4e-05	-0.00022	7e-05	-6e-05	-2e-05	6
30408	-6e-05	-5e-05	-0.00013	-4e-05	-0.00022	7e-05	-6e-05	-2e-05	6
30409	-6e-05	-5e-05	-0.00013	-4e-05	-0.00022	7e-05	-6e-05	-2e-05	6
30410	-6e-05	-5e-05	-0.00013	-4e-05	-0.00022	7e-05	-6e-05	-2e-05	6
30411	-6e-05	-5e-05	-0.00013	-4e-05	-0.00022	7e-05	-6e-05	-2e-05	6
30412	-6e-05	-5e-05	-0.00013	-4e-05	-0.00022	7e-05	-6e-05	-2e-05	6
30413	-6e-05	-5e-05	-0.00013	-4e-05	-0.00022	7e-05	-6e-05	-2e-05	6
30414	-6e-05	-5e-05	-0.00013	-4e-05	-0.00022	7e-05	-6e-05	-2e-05	6
30415	-6e-05	-5e-05	-0.00013	-4e-05	-0.00022	7e-05	-6e-05	-2e-05	6
30416	-6e-05	-5e-05	-0.00013	-4e-05	-0.00022	7e-05	-6e-05	-2e-05	6
30417	-6e-05	-5e-05	-0.00013	-4e-05	-0.00022	7e-05	-6e-05	-2e-05	6
30418	-6e-05	-5e-05	-0.00013	-4e-05	-0.00022	7e-05	-6e-05	-2e-05	6
30419	-6e-05	-5e-05	-0.00013	-4e-05	-0.00022	7e-05	-6e-05	-2e-05	6
30420	-6e-05	-5e-05	-0.00013	-4e-05	-0.00022	7e-05	-6e-05	-2e-05	6
30421	-2e-05	-7e-05	1e-05	0.00025	-0.00045	-5e-05	0.00016	8e-05	6
30422	-2e-05	-7e-05	1e-05	0.00025	-0.00045	-5e-05	0.00016	8e-05	6
30423	-1e-05	-3e-05	-5e-05	-0.00053	-1e-05	-0.00011	6e-05	-9e-05	6
30424	-1e-05	-3e-05	-5e-05	-0.00053	-1e-05	-0.00011	6e-05	-9e-05	6
30425	-1e-05	-3e-05	-5e-05	-0.00053	-1e-05	-0.00011	6e-05	-9e-05	6
30426	-1e-05	-3e-05	-5e-05	-0.00053	-1e-05	-0.00011	6e-05	-9e-05	6
30427	-1e-05	-3e-05	-5e-05	-0.00053	-1e-05	-0.00011	6e-05	-9e-05	6
30428	-2e-05	-1e-05	-8e-05	-0.00036	-0.00018	-5e-05	-6e-05	2e-05	6
30429	-2e-05	-1e-05	-8e-05	-0.00036	-0.00018	-5e-05	-6e-05	2e-05	6
30430	2e-05	1e-05	-3e-05	7e-05	0.00024	-0.00024	-0.00021	9e-05	6
30431	2e-05	1e-05	-3e-05	7e-05	0.00024	-0.00024	-0.00021	9e-05	6
30432	2e-05	1e-05	-3e-05	7e-05	0.00024	-0.00024	-0.00021	9e-05	6
30433	2e-05	1e-05	-3e-05	7e-05	0.00024	-0.00024	-0.00021	9e-05	6
30434	2e-05	1e-05	-3e-05	7e-05	0.00024	-0.00024	-0.00021	9e-05	6
30435	2e-05	1e-05	-3e-05	7e-05	0.00024	-0.00024	-0.00021	9e-05	6
30436	2e-05	1e-05	-3e-05	7e-05	0.00024	-0.00024	-0.00021	9e-05	6
30438	2e-05	1e-05	-3e-05	7e-05	0.00024	-0.00024	-0.00021	9e-05	6
30439	2e-05	1e-05	-3e-05	7e-05	0.00024	-0.00024	-0.00021	9e-05	6
30440	2e-05	1e-05	-3e-05	7e-05	0.00024	-0.00024	-0.00021	9e-05	6
30441	2e-05	1e-05	-3e-05	7e-05	0.00024	-0.00024	-0.00021	9e-05	6
30442	2e-05	1e-05	-3e-05	7e-05	0.00024	-0.00024	-0.00021	9e-05	6
30443	1e-05	-1e-05	6e-05	9e-05	0.00023	6e-05	4e-05	5e-05	6
30444	1e-05	-1e-05	6e-05	9e-05	0.00023	6e-05	4e-05	5e-05	6
30445	1e-05	-1e-05	6e-05	9e-05	0.00023	6e-05	4e-05	5e-05	6
30446	1e-05	-1e-05	6e-05	9e-05	0.00023	6e-05	4e-05	5e-05	6
30447	1e-05	-1e-05	6e-05	9e-05	0.00023	6e-05	4e-05	5e-05	6
30448	1e-05	-1e-05	6e-05	9e-05	0.00023	6e-05	4e-05	5e-05	6
30449	1e-05	-1e-05	6e-05	9e-05	0.00023	6e-05	4e-05	5e-05	6
30450	1e-05	-2e-05	1e-05	0.00032	-0.00032	0.0001	-8e-05	-7e-05	6
30451	1e-05	-2e-05	1e-05	0.00032	-0.00032	0.0001	-8e-05	-7e-05	6
30452	1e-05	-2e-05	1e-05	0.00032	-0.00032	0.0001	-8e-05	-7e-05	6
30453	1e-05	-2e-05	1e-05	0.00032	-0.00032	0.0001	-8e-05	-7e-05	6
30454	1e-05	-2e-05	1e-05	0.00032	-0.00032	0.0001	-8e-05	-7e-05	6
30455	1e-05	-2e-05	1e-05	0.00032	-0.00032	0.0001	-8e-05	-7e-05	6
30456	1e-05	-2e-05	1e-05	0.00032	-0.00032	0.0001	-8e-05	-7e-05	6
30457	1e-05	-2e-05	1e-05	0.00032	-0.00032	0.0001	-8e-05	-7e-05	6
30458	1e-05	-2e-05	1e-05	0.00032	-0.00032	0.0001	-8e-05	-7e-05	6
30459	1e-05	-2e-05	1e-05	0.00032	-0.00032	0.0001	-8e-05	-7e-05	6
30460	1e-05	-2e-05	1e-05	0.00032	-0.00032	0.0001	-8e-05	-7e-05	6
30461	1e-05	-2e-05	1e-05	0.00032	-0.00032	0.0001	-8e-05	-7e-05	6
30462	1e-05	-2e-05	1e-05	0.00032	-0.00032	0.0001	-8e-05	-7e-05	6
30463	1e-05	-2e-05	1e-05	0.00032	-0.00032	0.0001	-8e-05	-7e-05	6
30464	1e-05	-2e-05	1e-05	0.00032	-0.00032	0.0001	-8e-05	-7e-05	6
30465	1e-05	-2e-05	1e-05	0.00032	-0.00032	0.0001	-8e-05	-7e-05	6
30466	1e-05	-2e-05	1e-05	0.00032	-0.00032	0.0001	-8e-05	-7e-05	6
30467	1e-05	-2e-05	1e-05	0.00032	-0.00032	0.0001	-8e-05	-7e-05	6
30468	1e-05	-2e-05	1e-05	0.00032	-0.00032	0.0001	-8e-05	-7e-05	6
30469	1e-05	-2e-05	1e-05	0.00032	-0.00032	0.0001	-8e-05	-7e-05	6
30470	1e-05	-2e-05	1e-05	0.00032	-0.00032	0.0001	-8e-05	-7e-05	6
30471	1e-05	-2e-05	1e-05	0.00032	-0.00032	0.0001	-8e-05	-7e-05	6
30472	1e-05	-2e-05	1e-05	0.00032	-0.00032	0.0001	-8e-05	-7e-05	6
30473	1e-05	-2e-05	1e-05	0.00032	-0.00032	0.0001	-8e-05	-7e-05	6
30474	-2e-05	1e-05	3e-05	4e-05	-0.00039	-0.00017	-7e-05	-2e-05	6
30475	-1e-05	-3e-05	-4e-05	0.00024	0.00092	0.00013	0.00012	-4e-05	6
30476	2e-05	3e-05	-3e-05	-0.00019	0.00058	0.00015	0.00027	0.00012	6
30477	2e-05	3e-05	-3e-05	-0.00019	0.00058	0.00015	0.00027	0.00012	6
30478	2e-05	3e-05	-3e-05	-0.00019	0.00058	0.00015	0.00027	0.00012	6
30479	2e-05	3e-05	-3e-05	-0.00019	0.00058	0.00015	0.00027	0.00012	6
30480	2e-05	3e-05	-3e-05	-0.00019	0.00058	0.00015	0.00027	0.00012	6
30481	2e-05	3e-05	-3e-05	-0.00019	0.00058	0.00015	0.00027	0.00012	6
30482	2e-05	3e-05	-3e-05	-0.00019	0.00058	0.00015	0.00027	0.00012	6
30483	2e-05	3e-05	-3e-05	-0.00019	0.00058	0.00015	0.00027	0.00012	6
30484	2e-05	3e-05	-3e-05	-0.00019	0.00058	0.00015	0.00027	0.00012	6
30485	2e-05	3e-05	-3e-05	-0.00019	0.00058	0.00015	0.00027	0.00012	6
30486	2e-05	3e-05	-3e-05	-0.00019	0.00058	0.00015	0.00027	0.00012	6
30488	2e-05	3e-05	-3e-05	-0.00019	0.00058	0.00015	0.00027	0.00012	6
30489	2e-05	3e-05	-3e-05	-0.00019	0.00058	0.00015	0.00027	0.00012	6
30490	2e-05	3e-05	-3e-05	-0.00019	0.00058	0.00015	0.00027	0.00012	6
30491	2e-05	3e-05	-3e-05	-0.00019	0.00058	0.00015	0.00027	0.00012	6
30492	2e-05	3e-05	-3e-05	-0.00019	0.00058	0.00015	0.00027	0.00012	6
30493	2e-05	3e-05	-3e-05	-0.00019	0.00058	0.00015	0.00027	0.00012	6
30494	2e-05	3e-05	-3e-05	-0.00019	0.00058	0.00015	0.00027	0.00012	6
30495	2e-05	3e-05	-3e-05	-0.00019	0.00058	0.00015	0.00027	0.00012	6
30496	2e-05	3e-05	-3e-05	-0.00019	0.00058	0.00015	0.00027	0.00012	6
30497	2e-05	3e-05	-3e-05	-0.00019	0.00058	0.00015	0.00027	0.00012	6
30498	2e-05	3e-05	-3e-05	-0.00019	0.00058	0.00015	0.00027	0.00012	6
30499	2e-05	3e-05	-3e-05	-0.00019	0.00058	0.00015	0.00027	0.00012	6
30500	2e-05	3e-05	-3e-05	-0.00019	0.00058	0.00015	0.00027	0.00012	6
30501	2e-05	3e-05	-3e-05	-0.00019	0.00058	0.00015	0.00027	0.00012	6
30502	2e-05	3e-05	-3e-05	-0.00019	0.00058	0.00015	0.00027	0.00012	6
30503	2e-05	3e-05	-3e-05	-0.00019	0.00058	0.00015	0.00027	0.00012	6
30504	2e-05	3e-05	-3e-05	-0.00019	0.00058	0.00015	0.00027	0.00012	6
30505	-4e-05	-1e-05	4e-05	0.00048	0.00015	0.00011	0.00018	5e-05	6
30506	-4e-05	-2e-05	-1e-05	-0.00032	0.00025	0.00012	-0.0002	-4e-05	6
30507	2e-05	2e-05	-1e-05	1e-05	0.00012	3e-05	-3e-05	6e-05	6
30508	2e-05	2e-05	-1e-05	1e-05	0.00012	3e-05	-3e-05	6e-05	6
30509	2e-05	2e-05	-1e-05	1e-05	0.00012	3e-05	-3e-05	6e-05	6
30510	2e-05	2e-05	-1e-05	1e-05	0.00012	3e-05	-3e-05	6e-05	6
30511	-1e-05	-5e-05	0	-0.00015	-0.00046	-8e-05	-4e-05	-6e-05	6
30512	-1e-05	-5e-05	0	-0.00015	-0.00046	-8e-05	-4e-05	-6e-05	6
30513	-1e-05	-5e-05	0	-0.00015	-0.00046	-8e-05	-4e-05	-6e-05	6
30514	-1e-05	-5e-05	0	-0.00015	-0.00046	-8e-05	-4e-05	-6e-05	6
30515	-1e-05	-5e-05	0	-0.00015	-0.00046	-8e-05	-4e-05	-6e-05	6
30516	-1e-05	-5e-05	0	-0.00015	-0.00046	-8e-05	-4e-05	-6e-05	6
30517	-1e-05	-5e-05	0	-0.00015	-0.00046	-8e-05	-4e-05	-6e-05	6
30518	-1e-05	-5e-05	0	-0.00015	-0.00046	-8e-05	-4e-05	-6e-05	6
30519	-1e-05	-5e-05	0	-0.00015	-0.00046	-8e-05	-4e-05	-6e-05	6
30520	-1e-05	-5e-05	0	-0.00015	-0.00046	-8e-05	-4e-05	-6e-05	6
30521	-1e-05	-5e-05	0	-0.00015	-0.00046	-8e-05	-4e-05	-6e-05	6
30522	-1e-05	-5e-05	0	-0.00015	-0.00046	-8e-05	-4e-05	-6e-05	6
30523	-1e-05	-5e-05	0	-0.00015	-0.00046	-8e-05	-4e-05	-6e-05	6
30524	-1e-05	-5e-05	0	-0.00015	-0.00046	-8e-05	-4e-05	-6e-05	6
30525	-1e-05	-5e-05	0	-0.00015	-0.00046	-8e-05	-4e-05	-6e-05	6
30526	-3e-05	-3e-05	0	-0.00027	-0.00024	-6e-05	-9e-05	1e-05	6
30527	-3e-05	-3e-05	0	-0.00027	-0.00024	-6e-05	-9e-05	1e-05	6
30528	-3e-05	-3e-05	0	-0.00027	-0.00024	-6e-05	-9e-05	1e-05	6
30529	2e-05	1e-05	2e-05	0.00021	-6e-05	4e-05	-2e-05	2e-05	6
30530	2e-05	1e-05	2e-05	0.00021	-6e-05	4e-05	-2e-05	2e-05	6
30531	2e-05	1e-05	2e-05	0.00021	-6e-05	4e-05	-2e-05	2e-05	6
30532	2e-05	1e-05	2e-05	0.00021	-6e-05	4e-05	-2e-05	2e-05	6
30533	2e-05	1e-05	2e-05	0.00021	-6e-05	4e-05	-2e-05	2e-05	6
30534	2e-05	1e-05	2e-05	0.00021	-6e-05	4e-05	-2e-05	2e-05	6
30535	2e-05	1e-05	2e-05	0.00021	-6e-05	4e-05	-2e-05	2e-05	6
30536	2e-05	1e-05	2e-05	0.00021	-6e-05	4e-05	-2e-05	2e-05	6
30538	2e-05	1e-05	2e-05	0.00021	-6e-05	4e-05	-2e-05	2e-05	6
30539	2e-05	1e-05	2e-05	0.00021	-6e-05	4e-05	-2e-05	2e-05	6
30540	2e-05	1e-05	2e-05	0.00021	-6e-05	4e-05	-2e-05	2e-05	6
30541	2e-05	1e-05	2e-05	0.00021	-6e-05	4e-05	-2e-05	2e-05	6
30542	2e-05	1e-05	2e-05	0.00021	-6e-05	4e-05	-2e-05	2e-05	6
30543	2e-05	1e-05	2e-05	0.00021	-6e-05	4e-05	-2e-05	2e-05	6
30544	2e-05	1e-05	2e-05	0.00021	-6e-05	4e-05	-2e-05	2e-05	6
30545	2e-05	1e-05	2e-05	0.00021	-6e-05	4e-05	-2e-05	2e-05	6
30546	2e-05	1e-05	2e-05	0.00021	-6e-05	4e-05	-2e-05	2e-05	6
30547	2e-05	1e-05	2e-05	0.00021	-6e-05	4e-05	-2e-05	2e-05	6
30548	2e-05	1e-05	2e-05	0.00021	-6e-05	4e-05	-2e-05	2e-05	6
30549	2e-05	1e-05	2e-05	0.00021	-6e-05	4e-05	-2e-05	2e-05	6
30550	2e-05	1e-05	2e-05	0.00021	-6e-05	4e-05	-2e-05	2e-05	6
30551	2e-05	1e-05	2e-05	0.00021	-6e-05	4e-05	-2e-05	2e-05	6
30552	2e-05	1e-05	2e-05	0.00021	-6e-05	4e-05	-2e-05	2e-05	6
30553	2e-05	1e-05	2e-05	0.00021	-6e-05	4e-05	-2e-05	2e-05	6
30554	2e-05	1e-05	2e-05	0.00021	-6e-05	4e-05	-2e-05	2e-05	6
30555	2e-05	1e-05	2e-05	0.00021	-6e-05	4e-05	-2e-05	2e-05	6
30556	-2e-05	-3e-05	-3e-05	0.0005	0.00063	6e-05	7e-05	-1e-05	6
30557	-2e-05	-3e-05	-3e-05	0.0005	0.00063	6e-05	7e-05	-1e-05	6
30558	-4e-05	-4e-05	7e-05	6e-05	-0.00065	-7e-05	-0.00022	-7e-05	6
30560	-4e-05	-4e-05	7e-05	6e-05	-0.00065	-7e-05	-0.00022	-7e-05	6
30561	-4e-05	-4e-05	7e-05	6e-05	-0.00065	-7e-05	-0.00022	-7e-05	6
30562	-4e-05	-4e-05	7e-05	6e-05	-0.00065	-7e-05	-0.00022	-7e-05	6
30563	-4e-05	-4e-05	7e-05	6e-05	-0.00065	-7e-05	-0.00022	-7e-05	6
30564	1e-05	-1e-05	-6e-05	-0.00023	0.00084	6e-05	4e-05	1e-05	6
30565	-1e-05	-3e-05	-0.0001	-0.0002	0.00039	-6e-05	-0.00016	-2e-05	6
30566	-1e-05	-3e-05	-0.0001	-0.0002	0.00039	-6e-05	-0.00016	-2e-05	6
30567	-1e-05	-3e-05	-0.0001	-0.0002	0.00039	-6e-05	-0.00016	-2e-05	6
30568	-1e-05	-3e-05	-0.0001	-0.0002	0.00039	-6e-05	-0.00016	-2e-05	6
30569	-1e-05	-3e-05	-0.0001	-0.0002	0.00039	-6e-05	-0.00016	-2e-05	6
30570	-1e-05	-3e-05	-0.0001	-0.0002	0.00039	-6e-05	-0.00016	-2e-05	6
30571	-1e-05	-3e-05	-0.0001	-0.0002	0.00039	-6e-05	-0.00016	-2e-05	6
30572	-1e-05	-3e-05	-0.0001	-0.0002	0.00039	-6e-05	-0.00016	-2e-05	6
30573	-1e-05	-3e-05	-0.0001	-0.0002	0.00039	-6e-05	-0.00016	-2e-05	6
30574	-1e-05	-3e-05	-0.0001	-0.0002	0.00039	-6e-05	-0.00016	-2e-05	6
30575	-1e-05	-3e-05	-0.0001	-0.0002	0.00039	-6e-05	-0.00016	-2e-05	6
30576	-1e-05	-3e-05	-0.0001	-0.0002	0.00039	-6e-05	-0.00016	-2e-05	6
30577	-1e-05	-3e-05	-0.0001	-0.0002	0.00039	-6e-05	-0.00016	-2e-05	6
30578	-1e-05	0	5e-05	0.00023	-0.00085	-0.00021	0.00014	6e-05	6
30579	-1e-05	0	5e-05	0.00023	-0.00085	-0.00021	0.00014	6e-05	6
30580	-1e-05	0	5e-05	0.00023	-0.00085	-0.00021	0.00014	6e-05	6
30581	-1e-05	0	5e-05	0.00023	-0.00085	-0.00021	0.00014	6e-05	6
30582	-1e-05	0	5e-05	0.00023	-0.00085	-0.00021	0.00014	6e-05	6
30583	-1e-05	0	5e-05	0.00023	-0.00085	-0.00021	0.00014	6e-05	6
30584	-1e-05	0	5e-05	0.00023	-0.00085	-0.00021	0.00014	6e-05	6
30585	-1e-05	0	5e-05	0.00023	-0.00085	-0.00021	0.00014	6e-05	6
30586	-1e-05	0	5e-05	0.00023	-0.00085	-0.00021	0.00014	6e-05	6
30588	-3e-05	-3e-05	-1e-05	1e-05	0.00018	1e-05	0.0001	9e-05	6
30589	4e-05	3e-05	-1e-05	-9e-05	0.00056	0.00014	0.00018	1e-05	6
30590	4e-05	3e-05	-1e-05	-9e-05	0.00056	0.00014	0.00018	1e-05	6
30591	4e-05	3e-05	-1e-05	-9e-05	0.00056	0.00014	0.00018	1e-05	6
30592	4e-05	3e-05	-1e-05	-9e-05	0.00056	0.00014	0.00018	1e-05	6
30593	4e-05	3e-05	-1e-05	-9e-05	0.00056	0.00014	0.00018	1e-05	6
30594	4e-05	3e-05	-1e-05	-9e-05	0.00056	0.00014	0.00018	1e-05	6
30595	4e-05	3e-05	-1e-05	-9e-05	0.00056	0.00014	0.00018	1e-05	6
30596	4e-05	3e-05	-1e-05	-9e-05	0.00056	0.00014	0.00018	1e-05	6
30597	4e-05	3e-05	-1e-05	-9e-05	0.00056	0.00014	0.00018	1e-05	6
30598	4e-05	3e-05	-1e-05	-9e-05	0.00056	0.00014	0.00018	1e-05	6
30599	4e-05	3e-05	-1e-05	-9e-05	0.00056	0.00014	0.00018	1e-05	6
30600	4e-05	3e-05	-1e-05	-9e-05	0.00056	0.00014	0.00018	1e-05	6
30601	4e-05	3e-05	-1e-05	-9e-05	0.00056	0.00014	0.00018	1e-05	6
30602	4e-05	3e-05	-1e-05	-9e-05	0.00056	0.00014	0.00018	1e-05	6
30603	4e-05	3e-05	-1e-05	-9e-05	0.00056	0.00014	0.00018	1e-05	6
30604	4e-05	3e-05	-1e-05	-9e-05	0.00056	0.00014	0.00018	1e-05	6
30605	4e-05	3e-05	-1e-05	-9e-05	0.00056	0.00014	0.00018	1e-05	6
30606	4e-05	3e-05	-1e-05	-9e-05	0.00056	0.00014	0.00018	1e-05	6
30607	4e-05	3e-05	-1e-05	-9e-05	0.00056	0.00014	0.00018	1e-05	6
30608	4e-05	3e-05	-1e-05	-9e-05	0.00056	0.00014	0.00018	1e-05	6
30609	4e-05	3e-05	-1e-05	-9e-05	0.00056	0.00014	0.00018	1e-05	6
30610	6e-05	5e-05	3e-05	0.0003	-3e-05	2e-05	0.00011	9e-05	6
30611	-1e-05	-3e-05	-1e-05	6e-05	0.0004	0.00031	-7e-05	-7e-05	6
30612	-1e-05	-3e-05	-1e-05	6e-05	0.0004	0.00031	-7e-05	-7e-05	6
30613	-1e-05	-3e-05	-1e-05	6e-05	0.0004	0.00031	-7e-05	-7e-05	6
30614	-1e-05	-3e-05	-1e-05	6e-05	0.0004	0.00031	-7e-05	-7e-05	6
30615	-1e-05	-3e-05	-1e-05	6e-05	0.0004	0.00031	-7e-05	-7e-05	6
30616	-1e-05	-3e-05	-1e-05	6e-05	0.0004	0.00031	-7e-05	-7e-05	6
30617	-1e-05	-3e-05	-1e-05	6e-05	0.0004	0.00031	-7e-05	-7e-05	6
30618	-1e-05	-3e-05	-1e-05	6e-05	0.0004	0.00031	-7e-05	-7e-05	6
30619	-1e-05	-3e-05	-1e-05	6e-05	0.0004	0.00031	-7e-05	-7e-05	6
30620	-1e-05	-3e-05	-1e-05	6e-05	0.0004	0.00031	-7e-05	-7e-05	6
30621	-1e-05	-3e-05	-1e-05	6e-05	0.0004	0.00031	-7e-05	-7e-05	6
30622	-1e-05	-3e-05	-1e-05	6e-05	0.0004	0.00031	-7e-05	-7e-05	6
30623	-1e-05	-3e-05	-1e-05	6e-05	0.0004	0.00031	-7e-05	-7e-05	6
30624	-4e-05	-2e-05	4e-05	1e-05	-0.00093	-2e-05	-0.00024	-0.00011	6
30625	-4e-05	-2e-05	4e-05	1e-05	-0.00093	-2e-05	-0.00024	-0.00011	6
30626	-4e-05	-2e-05	4e-05	1e-05	-0.00093	-2e-05	-0.00024	-0.00011	6
30627	-4e-05	-2e-05	4e-05	1e-05	-0.00093	-2e-05	-0.00024	-0.00011	6
30628	-4e-05	-2e-05	4e-05	1e-05	-0.00093	-2e-05	-0.00024	-0.00011	6
30629	-4e-05	-2e-05	4e-05	1e-05	-0.00093	-2e-05	-0.00024	-0.00011	6
30630	-4e-05	-2e-05	4e-05	1e-05	-0.00093	-2e-05	-0.00024	-0.00011	6
30631	-4e-05	-2e-05	4e-05	1e-05	-0.00093	-2e-05	-0.00024	-0.00011	6
30632	-4e-05	-2e-05	4e-05	1e-05	-0.00093	-2e-05	-0.00024	-0.00011	6
30633	-4e-05	-2e-05	4e-05	1e-05	-0.00093	-2e-05	-0.00024	-0.00011	6
30634	-4e-05	-2e-05	4e-05	1e-05	-0.00093	-2e-05	-0.00024	-0.00011	6
30635	-4e-05	-2e-05	4e-05	1e-05	-0.00093	-2e-05	-0.00024	-0.00011	6
30636	-4e-05	-2e-05	4e-05	1e-05	-0.00093	-2e-05	-0.00024	-0.00011	6
30638	-5e-05	-3e-05	-4e-05	0.00037	0.00026	-0.00017	-0.0002	-1e-05	6
30639	-5e-05	-3e-05	-4e-05	0.00037	0.00026	-0.00017	-0.0002	-1e-05	6
30640	-5e-05	-3e-05	-4e-05	0.00037	0.00026	-0.00017	-0.0002	-1e-05	6
30641	-5e-05	-3e-05	-4e-05	0.00037	0.00026	-0.00017	-0.0002	-1e-05	6
30642	-5e-05	-3e-05	-4e-05	0.00037	0.00026	-0.00017	-0.0002	-1e-05	6
30643	-5e-05	-3e-05	-4e-05	0.00037	0.00026	-0.00017	-0.0002	-1e-05	6
30644	-5e-05	-3e-05	-4e-05	0.00037	0.00026	-0.00017	-0.0002	-1e-05	6
30645	-5e-05	-3e-05	-4e-05	0.00037	0.00026	-0.00017	-0.0002	-1e-05	6
30646	-5e-05	-3e-05	-4e-05	0.00037	0.00026	-0.00017	-0.0002	-1e-05	6
30647	-2e-05	-3e-05	-7e-05	-0.00016	0	-0.00014	0.0002	1e-05	6
30648	1e-05	3e-05	-4e-05	-0.00016	0.00064	1e-05	-1e-05	0	6
30649	-1e-05	-1e-05	-2e-05	-0.00019	-0.00097	6e-05	0.00013	-7e-05	6
30650	-1e-05	-1e-05	-2e-05	-0.00019	-0.00097	6e-05	0.00013	-7e-05	6
30651	-1e-05	-1e-05	-2e-05	-0.00019	-0.00097	6e-05	0.00013	-7e-05	6
30652	-1e-05	-1e-05	-2e-05	-0.00019	-0.00097	6e-05	0.00013	-7e-05	6
30653	-1e-05	-1e-05	-2e-05	-0.00019	-0.00097	6e-05	0.00013	-7e-05	6
30654	-1e-05	-1e-05	-2e-05	-0.00019	-0.00097	6e-05	0.00013	-7e-05	6
30655	-1e-05	-1e-05	-2e-05	-0.00019	-0.00097	6e-05	0.00013	-7e-05	6
30656	-1e-05	-1e-05	-2e-05	-0.00019	-0.00097	6e-05	0.00013	-7e-05	6
30657	-1e-05	-1e-05	-2e-05	-0.00019	-0.00097	6e-05	0.00013	-7e-05	6
30658	-1e-05	-1e-05	-2e-05	-0.00019	-0.00097	6e-05	0.00013	-7e-05	6
30659	-1e-05	-1e-05	-2e-05	-0.00019	-0.00097	6e-05	0.00013	-7e-05	6
30660	-1e-05	-1e-05	-2e-05	-0.00019	-0.00097	6e-05	0.00013	-7e-05	6
30661	-1e-05	-1e-05	-2e-05	-0.00019	-0.00097	6e-05	0.00013	-7e-05	6
30662	-1e-05	-1e-05	-2e-05	-0.00019	-0.00097	6e-05	0.00013	-7e-05	6
30663	-1e-05	-1e-05	-2e-05	-0.00019	-0.00097	6e-05	0.00013	-7e-05	6
30664	-1e-05	-1e-05	-2e-05	-0.00019	-0.00097	6e-05	0.00013	-7e-05	6
30665	-1e-05	-1e-05	-2e-05	-0.00019	-0.00097	6e-05	0.00013	-7e-05	6
30666	-1e-05	-1e-05	-2e-05	-0.00019	-0.00097	6e-05	0.00013	-7e-05	6
30667	-1e-05	-1e-05	-2e-05	-0.00019	-0.00097	6e-05	0.00013	-7e-05	6
30668	-1e-05	-1e-05	-2e-05	-0.00019	-0.00097	6e-05	0.00013	-7e-05	6
30669	-1e-05	-1e-05	-2e-05	-0.00019	-0.00097	6e-05	0.00013	-7e-05	6
30670	1e-05	0	2e-05	2e-05	-0.00017	0.0001	-0.00013	0	6
30671	-6e-05	-8e-05	-8e-05	7e-05	-0.00018	0	-6e-05	-3e-05	6
30672	1e-05	-1e-05	-6e-05	-0.00065	0.00042	-9e-05	0.00022	4e-05	6
30673	1e-05	-1e-05	-6e-05	-0.00065	0.00042	-9e-05	0.00022	4e-05	6
30674	1e-05	-1e-05	-6e-05	-0.00065	0.00042	-9e-05	0.00022	4e-05	6
30675	1e-05	-1e-05	-6e-05	-0.00065	0.00042	-9e-05	0.00022	4e-05	6
30676	1e-05	-1e-05	-6e-05	-0.00065	0.00042	-9e-05	0.00022	4e-05	6
30677	1e-05	-1e-05	-6e-05	-0.00065	0.00042	-9e-05	0.00022	4e-05	6
30678	1e-05	-1e-05	-6e-05	-0.00065	0.00042	-9e-05	0.00022	4e-05	6
30679	1e-05	-1e-05	-6e-05	-0.00065	0.00042	-9e-05	0.00022	4e-05	6
30680	1e-05	-1e-05	-6e-05	-0.00065	0.00042	-9e-05	0.00022	4e-05	6
30681	1e-05	-1e-05	-6e-05	-0.00065	0.00042	-9e-05	0.00022	4e-05	6
30682	1e-05	-1e-05	-6e-05	-0.00065	0.00042	-9e-05	0.00022	4e-05	6
30683	1e-05	-1e-05	-6e-05	-0.00065	0.00042	-9e-05	0.00022	4e-05	6
30684	1e-05	-1e-05	-6e-05	-0.00065	0.00042	-9e-05	0.00022	4e-05	6
30685	1e-05	-1e-05	-6e-05	-0.00065	0.00042	-9e-05	0.00022	4e-05	6
30686	1e-05	-1e-05	-6e-05	-0.00065	0.00042	-9e-05	0.00022	4e-05	6
30688	1e-05	-1e-05	-6e-05	-0.00065	0.00042	-9e-05	0.00022	4e-05	6
30689	1e-05	-1e-05	-6e-05	-0.00065	0.00042	-9e-05	0.00022	4e-05	6
30690	1e-05	-1e-05	-6e-05	-0.00065	0.00042	-9e-05	0.00022	4e-05	6
30691	1e-05	-1e-05	-6e-05	-0.00065	0.00042	-9e-05	0.00022	4e-05	6
30692	-2e-05	1e-05	4e-05	0.00027	0.00018	0.00011	-9e-05	-9e-05	6
30693	-1e-05	-5e-05	-7e-05	-0.00024	-0.0008	-0.00011	6e-05	6e-05	6
30694	-2e-05	6e-05	3e-05	-0.00049	-0.00026	-0.00027	3e-05	0	6
30695	-2e-05	6e-05	3e-05	-0.00049	-0.00026	-0.00027	3e-05	0	6
30696	-2e-05	6e-05	3e-05	-0.00049	-0.00026	-0.00027	3e-05	0	6
30697	-2e-05	6e-05	3e-05	-0.00049	-0.00026	-0.00027	3e-05	0	6
30698	-2e-05	6e-05	3e-05	-0.00049	-0.00026	-0.00027	3e-05	0	6
30699	-2e-05	6e-05	3e-05	-0.00049	-0.00026	-0.00027	3e-05	0	6
30700	-2e-05	6e-05	3e-05	-0.00049	-0.00026	-0.00027	3e-05	0	6
30701	-2e-05	6e-05	3e-05	-0.00049	-0.00026	-0.00027	3e-05	0	6
30702	-2e-05	6e-05	3e-05	-0.00049	-0.00026	-0.00027	3e-05	0	6
30703	-2e-05	6e-05	3e-05	-0.00049	-0.00026	-0.00027	3e-05	0	6
30704	-2e-05	6e-05	3e-05	-0.00049	-0.00026	-0.00027	3e-05	0	6
30705	-2e-05	6e-05	3e-05	-0.00049	-0.00026	-0.00027	3e-05	0	6
30706	-2e-05	6e-05	3e-05	-0.00049	-0.00026	-0.00027	3e-05	0	6
30707	-1e-05	2e-05	3e-05	3e-05	0.00056	4e-05	3e-05	-1e-05	6
30708	-2e-05	-2e-05	-2e-05	-0.00037	-0.00125	0.00014	0.0004	6e-05	6
30709	2e-05	3e-05	1e-05	0.0007	0.00099	4e-05	0.00017	0.00016	6
30710	2e-05	3e-05	1e-05	0.0007	0.00099	4e-05	0.00017	0.00016	6
30711	2e-05	3e-05	1e-05	0.0007	0.00099	4e-05	0.00017	0.00016	6
30712	2e-05	3e-05	1e-05	0.0007	0.00099	4e-05	0.00017	0.00016	6
30713	2e-05	3e-05	1e-05	0.0007	0.00099	4e-05	0.00017	0.00016	6
30714	2e-05	3e-05	1e-05	0.0007	0.00099	4e-05	0.00017	0.00016	6
30715	2e-05	3e-05	1e-05	0.0007	0.00099	4e-05	0.00017	0.00016	6
30716	2e-05	3e-05	1e-05	0.0007	0.00099	4e-05	0.00017	0.00016	6
30717	2e-05	3e-05	1e-05	0.0007	0.00099	4e-05	0.00017	0.00016	6
30718	2e-05	3e-05	1e-05	0.0007	0.00099	4e-05	0.00017	0.00016	6
30719	2e-05	3e-05	1e-05	0.0007	0.00099	4e-05	0.00017	0.00016	6
30720	2e-05	3e-05	1e-05	0.0007	0.00099	4e-05	0.00017	0.00016	6
30721	2e-05	3e-05	1e-05	0.0007	0.00099	4e-05	0.00017	0.00016	6
30722	2e-05	3e-05	1e-05	0.0007	0.00099	4e-05	0.00017	0.00016	6
30723	2e-05	3e-05	1e-05	0.0007	0.00099	4e-05	0.00017	0.00016	6
30724	2e-05	3e-05	1e-05	0.0007	0.00099	4e-05	0.00017	0.00016	6
30725	2e-05	3e-05	1e-05	0.0007	0.00099	4e-05	0.00017	0.00016	6
30726	2e-05	3e-05	1e-05	0.0007	0.00099	4e-05	0.00017	0.00016	6
30727	2e-05	3e-05	1e-05	0.0007	0.00099	4e-05	0.00017	0.00016	6
30728	2e-05	3e-05	1e-05	0.0007	0.00099	4e-05	0.00017	0.00016	6
30729	-2e-05	0	4e-05	-0.00022	0.00058	-0.0001	-0.00034	-0.00013	6
30730	0	-2e-05	-4e-05	-0.00026	-0.00013	-0.0001	-8e-05	1e-05	6
30731	1e-05	-1e-05	-1e-05	0.00012	0.00015	0.00026	5e-05	3e-05	6
30732	1e-05	-1e-05	-1e-05	0.00012	0.00015	0.00026	5e-05	3e-05	6
30733	1e-05	-1e-05	-1e-05	0.00012	0.00015	0.00026	5e-05	3e-05	6
30734	1e-05	-1e-05	-1e-05	0.00012	0.00015	0.00026	5e-05	3e-05	6
30735	1e-05	-1e-05	-1e-05	0.00012	0.00015	0.00026	5e-05	3e-05	6
30736	1e-05	-1e-05	-1e-05	0.00012	0.00015	0.00026	5e-05	3e-05	6
30738	1e-05	-1e-05	-1e-05	0.00012	0.00015	0.00026	5e-05	3e-05	6
30739	1e-05	-1e-05	-1e-05	0.00012	0.00015	0.00026	5e-05	3e-05	6
30740	1e-05	-1e-05	-1e-05	0.00012	0.00015	0.00026	5e-05	3e-05	6
30741	1e-05	-1e-05	-1e-05	0.00012	0.00015	0.00026	5e-05	3e-05	6
30742	1e-05	-1e-05	-1e-05	0.00012	0.00015	0.00026	5e-05	3e-05	6
30743	1e-05	-1e-05	-1e-05	0.00012	0.00015	0.00026	5e-05	3e-05	6
30744	1e-05	-1e-05	-1e-05	0.00012	0.00015	0.00026	5e-05	3e-05	6
30745	1e-05	-1e-05	-1e-05	0.00012	0.00015	0.00026	5e-05	3e-05	6
30746	1e-05	-1e-05	-1e-05	0.00012	0.00015	0.00026	5e-05	3e-05	6
30747	1e-05	-1e-05	-1e-05	0.00012	0.00015	0.00026	5e-05	3e-05	6
30748	1e-05	-1e-05	-1e-05	0.00012	0.00015	0.00026	5e-05	3e-05	6
30749	1e-05	-1e-05	-1e-05	0.00012	0.00015	0.00026	5e-05	3e-05	6
30750	1e-05	-1e-05	-1e-05	0.00012	0.00015	0.00026	5e-05	3e-05	6
30751	1e-05	-1e-05	-1e-05	0.00012	0.00015	0.00026	5e-05	3e-05	6
30752	-1e-05	2e-05	5e-05	0.00043	0.0001	0.00016	-7e-05	0	6
30753	-1e-05	2e-05	5e-05	0.00043	0.0001	0.00016	-7e-05	0	6
30754	-6e-05	-4e-05	-2e-05	8e-05	-0.00038	-0.00014	-0.00029	-0.00016	6
30755	-6e-05	-4e-05	-2e-05	8e-05	-0.00038	-0.00014	-0.00029	-0.00016	6
30756	-6e-05	-4e-05	-2e-05	8e-05	-0.00038	-0.00014	-0.00029	-0.00016	6
30757	-6e-05	-4e-05	-2e-05	8e-05	-0.00038	-0.00014	-0.00029	-0.00016	6
30758	-6e-05	-4e-05	-2e-05	8e-05	-0.00038	-0.00014	-0.00029	-0.00016	6
30759	-6e-05	-4e-05	-2e-05	8e-05	-0.00038	-0.00014	-0.00029	-0.00016	6
30760	-6e-05	-4e-05	-2e-05	8e-05	-0.00038	-0.00014	-0.00029	-0.00016	6
30761	-6e-05	-4e-05	-2e-05	8e-05	-0.00038	-0.00014	-0.00029	-0.00016	6
30762	-6e-05	-4e-05	-2e-05	8e-05	-0.00038	-0.00014	-0.00029	-0.00016	6
30763	-6e-05	-4e-05	-2e-05	8e-05	-0.00038	-0.00014	-0.00029	-0.00016	6
30764	-6e-05	-4e-05	-2e-05	8e-05	-0.00038	-0.00014	-0.00029	-0.00016	6
30765	-6e-05	-4e-05	-2e-05	8e-05	-0.00038	-0.00014	-0.00029	-0.00016	6
30766	-6e-05	-4e-05	-2e-05	8e-05	-0.00038	-0.00014	-0.00029	-0.00016	6
30767	-6e-05	-4e-05	-2e-05	8e-05	-0.00038	-0.00014	-0.00029	-0.00016	6
30768	-6e-05	-4e-05	-2e-05	8e-05	-0.00038	-0.00014	-0.00029	-0.00016	6
30769	-6e-05	-4e-05	-2e-05	8e-05	-0.00038	-0.00014	-0.00029	-0.00016	6
30770	-6e-05	-4e-05	-2e-05	8e-05	-0.00038	-0.00014	-0.00029	-0.00016	6
30771	-6e-05	-4e-05	-2e-05	8e-05	-0.00038	-0.00014	-0.00029	-0.00016	6
30772	-6e-05	-4e-05	-2e-05	8e-05	-0.00038	-0.00014	-0.00029	-0.00016	6
30773	-6e-05	-4e-05	-2e-05	8e-05	-0.00038	-0.00014	-0.00029	-0.00016	6
30774	-6e-05	-4e-05	-2e-05	8e-05	-0.00038	-0.00014	-0.00029	-0.00016	6
30775	-6e-05	-4e-05	-2e-05	8e-05	-0.00038	-0.00014	-0.00029	-0.00016	6
30776	-6e-05	-4e-05	-2e-05	8e-05	-0.00038	-0.00014	-0.00029	-0.00016	6
30777	-6e-05	-4e-05	-2e-05	8e-05	-0.00038	-0.00014	-0.00029	-0.00016	6
30778	-6e-05	-4e-05	-2e-05	8e-05	-0.00038	-0.00014	-0.00029	-0.00016	6
30779	-6e-05	-4e-05	-2e-05	8e-05	-0.00038	-0.00014	-0.00029	-0.00016	6
30780	-6e-05	-4e-05	-2e-05	8e-05	-0.00038	-0.00014	-0.00029	-0.00016	6
30781	-6e-05	-4e-05	-2e-05	8e-05	-0.00038	-0.00014	-0.00029	-0.00016	6
30782	-3e-05	-4e-05	-0.00014	-0.0002	0.00056	-5e-05	-3e-05	-9e-05	6
30783	-3e-05	-4e-05	-0.00014	-0.0002	0.00056	-5e-05	-3e-05	-9e-05	6
30784	-1e-05	-3e-05	4e-05	0	-0.00029	-2e-05	-0.00017	-8e-05	6
30785	-1e-05	-3e-05	4e-05	0	-0.00029	-2e-05	-0.00017	-8e-05	6
30786	-1e-05	-3e-05	4e-05	0	-0.00029	-2e-05	-0.00017	-8e-05	6
30788	-1e-05	-3e-05	4e-05	0	-0.00029	-2e-05	-0.00017	-8e-05	6
30789	0	0	-2e-05	0.00035	0.00081	-6e-05	-0.00035	0	6
30790	-2e-05	-3e-05	-2e-05	-6e-05	-0.00128	-0.0002	0	5e-05	6
30791	0	0	-6e-05	-0.0002	0.00055	-0.00012	-0.0001	-5e-05	6
30792	0	0	-6e-05	-0.0002	0.00055	-0.00012	-0.0001	-5e-05	6
30793	0	0	-6e-05	-0.0002	0.00055	-0.00012	-0.0001	-5e-05	6
30794	0	0	-6e-05	-0.0002	0.00055	-0.00012	-0.0001	-5e-05	6
30795	0	0	-6e-05	-0.0002	0.00055	-0.00012	-0.0001	-5e-05	6
30796	0	0	-6e-05	-0.0002	0.00055	-0.00012	-0.0001	-5e-05	6
30797	0	0	-6e-05	-0.0002	0.00055	-0.00012	-0.0001	-5e-05	6
30798	0	0	-6e-05	-0.0002	0.00055	-0.00012	-0.0001	-5e-05	6
30799	0	0	-6e-05	-0.0002	0.00055	-0.00012	-0.0001	-5e-05	6
30800	0	0	-6e-05	-0.0002	0.00055	-0.00012	-0.0001	-5e-05	6
30801	0	0	-6e-05	-0.0002	0.00055	-0.00012	-0.0001	-5e-05	6
30802	0	0	-6e-05	-0.0002	0.00055	-0.00012	-0.0001	-5e-05	6
30803	-2e-05	-3e-05	-7e-05	-0.00012	-0.00019	7e-05	3e-05	-1e-05	6
30804	3e-05	5e-05	0.00012	4e-05	-0.00045	4e-05	-1e-05	5e-05	6
30805	3e-05	5e-05	0.00012	4e-05	-0.00045	4e-05	-1e-05	5e-05	6
30806	3e-05	5e-05	0.00012	4e-05	-0.00045	4e-05	-1e-05	5e-05	6
30807	3e-05	5e-05	0.00012	4e-05	-0.00045	4e-05	-1e-05	5e-05	6
30808	3e-05	5e-05	0.00012	4e-05	-0.00045	4e-05	-1e-05	5e-05	6
30809	3e-05	5e-05	0.00012	4e-05	-0.00045	4e-05	-1e-05	5e-05	6
30810	3e-05	5e-05	0.00012	4e-05	-0.00045	4e-05	-1e-05	5e-05	6
30811	3e-05	5e-05	0.00012	4e-05	-0.00045	4e-05	-1e-05	5e-05	6
30812	-5e-05	-9e-05	-0.00012	-0.0003	-0.00046	0.00021	-8e-05	-6e-05	6
30813	-5e-05	-9e-05	-0.00012	-0.0003	-0.00046	0.00021	-8e-05	-6e-05	6
30814	-5e-05	-9e-05	-0.00012	-0.0003	-0.00046	0.00021	-8e-05	-6e-05	6
30815	-5e-05	-9e-05	-0.00012	-0.0003	-0.00046	0.00021	-8e-05	-6e-05	6
30816	-5e-05	-9e-05	-0.00012	-0.0003	-0.00046	0.00021	-8e-05	-6e-05	6
30817	-5e-05	-9e-05	-0.00012	-0.0003	-0.00046	0.00021	-8e-05	-6e-05	6
30818	-5e-05	-9e-05	-0.00012	-0.0003	-0.00046	0.00021	-8e-05	-6e-05	6
30819	-5e-05	-9e-05	-0.00012	-0.0003	-0.00046	0.00021	-8e-05	-6e-05	6
30820	-5e-05	-9e-05	-0.00012	-0.0003	-0.00046	0.00021	-8e-05	-6e-05	6
30821	-5e-05	-9e-05	-0.00012	-0.0003	-0.00046	0.00021	-8e-05	-6e-05	6
30822	-5e-05	-9e-05	-0.00012	-0.0003	-0.00046	0.00021	-8e-05	-6e-05	6
30823	-5e-05	-9e-05	-0.00012	-0.0003	-0.00046	0.00021	-8e-05	-6e-05	6
30824	-5e-05	-9e-05	-0.00012	-0.0003	-0.00046	0.00021	-8e-05	-6e-05	6
30825	-5e-05	-9e-05	-0.00012	-0.0003	-0.00046	0.00021	-8e-05	-6e-05	6
30826	-5e-05	-9e-05	-0.00012	-0.0003	-0.00046	0.00021	-8e-05	-6e-05	6
30827	-5e-05	-9e-05	-0.00012	-0.0003	-0.00046	0.00021	-8e-05	-6e-05	6
30828	-5e-05	-9e-05	-0.00012	-0.0003	-0.00046	0.00021	-8e-05	-6e-05	6
30829	-5e-05	-9e-05	-0.00012	-0.0003	-0.00046	0.00021	-8e-05	-6e-05	6
30830	-5e-05	-9e-05	-0.00012	-0.0003	-0.00046	0.00021	-8e-05	-6e-05	6
30831	-5e-05	-9e-05	-0.00012	-0.0003	-0.00046	0.00021	-8e-05	-6e-05	6
30832	-5e-05	-9e-05	-0.00012	-0.0003	-0.00046	0.00021	-8e-05	-6e-05	6
30833	-5e-05	-9e-05	-0.00012	-0.0003	-0.00046	0.00021	-8e-05	-6e-05	6
30834	-5e-05	-9e-05	-0.00012	-0.0003	-0.00046	0.00021	-8e-05	-6e-05	6
30835	-2e-05	-3e-05	-0.00011	-0.00026	7e-05	-5e-05	-5e-05	-1e-05	6
30836	-2e-05	-5e-05	3e-05	0.00014	-0.00038	-9e-05	6e-05	-3e-05	6
30838	1e-05	1e-05	6e-05	0.00039	-0.00057	4e-05	0	-0.00016	6
30839	1e-05	1e-05	6e-05	0.00039	-0.00057	4e-05	0	-0.00016	6
30840	1e-05	1e-05	6e-05	0.00039	-0.00057	4e-05	0	-0.00016	6
30841	1e-05	1e-05	6e-05	0.00039	-0.00057	4e-05	0	-0.00016	6
30842	1e-05	1e-05	6e-05	0.00039	-0.00057	4e-05	0	-0.00016	6
30843	1e-05	1e-05	6e-05	0.00039	-0.00057	4e-05	0	-0.00016	6
30844	1e-05	1e-05	6e-05	0.00039	-0.00057	4e-05	0	-0.00016	6
30845	1e-05	1e-05	6e-05	0.00039	-0.00057	4e-05	0	-0.00016	6
30846	1e-05	1e-05	6e-05	0.00039	-0.00057	4e-05	0	-0.00016	6
30847	1e-05	1e-05	6e-05	0.00039	-0.00057	4e-05	0	-0.00016	6
30848	1e-05	1e-05	6e-05	0.00039	-0.00057	4e-05	0	-0.00016	6
30849	1e-05	1e-05	6e-05	0.00039	-0.00057	4e-05	0	-0.00016	6
30850	1e-05	1e-05	6e-05	0.00039	-0.00057	4e-05	0	-0.00016	6
30851	1e-05	1e-05	6e-05	0.00039	-0.00057	4e-05	0	-0.00016	6
30852	1e-05	1e-05	6e-05	0.00039	-0.00057	4e-05	0	-0.00016	6
30853	1e-05	1e-05	6e-05	0.00039	-0.00057	4e-05	0	-0.00016	6
30854	1e-05	1e-05	6e-05	0.00039	-0.00057	4e-05	0	-0.00016	6
30855	1e-05	1e-05	6e-05	0.00039	-0.00057	4e-05	0	-0.00016	6
30856	1e-05	1e-05	6e-05	0.00039	-0.00057	4e-05	0	-0.00016	6
30857	1e-05	1e-05	6e-05	0.00039	-0.00057	4e-05	0	-0.00016	6
30858	1e-05	1e-05	6e-05	0.00039	-0.00057	4e-05	0	-0.00016	6
30859	1e-05	1e-05	6e-05	0.00039	-0.00057	4e-05	0	-0.00016	6
30860	1e-05	1e-05	6e-05	0.00039	-0.00057	4e-05	0	-0.00016	6
30861	1e-05	1e-05	6e-05	0.00039	-0.00057	4e-05	0	-0.00016	6
30862	1e-05	1e-05	6e-05	0.00039	-0.00057	4e-05	0	-0.00016	6
30863	1e-05	1e-05	6e-05	0.00039	-0.00057	4e-05	0	-0.00016	6
30864	1e-05	1e-05	6e-05	0.00039	-0.00057	4e-05	0	-0.00016	6
30865	-3e-05	-2e-05	2e-05	0	3e-05	-0.00011	-0.00015	-5e-05	6
30866	-3e-05	-2e-05	2e-05	0	3e-05	-0.00011	-0.00015	-5e-05	6
30867	-1e-05	-5e-05	0	4e-05	-0.00063	0	0.00015	-9e-05	6
30868	-1e-05	-5e-05	0	4e-05	-0.00063	0	0.00015	-9e-05	6
30869	-1e-05	-5e-05	0	4e-05	-0.00063	0	0.00015	-9e-05	6
30870	-1e-05	-5e-05	0	4e-05	-0.00063	0	0.00015	-9e-05	6
30871	-1e-05	-5e-05	0	4e-05	-0.00063	0	0.00015	-9e-05	6
30872	-2e-05	-2e-05	1e-05	0.0003	0.00106	-0.00045	-0.00021	1e-05	6
30873	-2e-05	-2e-05	1e-05	0.0003	0.00106	-0.00045	-0.00021	1e-05	6
30874	-2e-05	-2e-05	1e-05	0.0003	0.00106	-0.00045	-0.00021	1e-05	6
30875	-2e-05	-2e-05	1e-05	0.0003	0.00106	-0.00045	-0.00021	1e-05	6
30876	-2e-05	-2e-05	1e-05	0.0003	0.00106	-0.00045	-0.00021	1e-05	6
30877	-2e-05	-2e-05	1e-05	0.0003	0.00106	-0.00045	-0.00021	1e-05	6
30878	-2e-05	-2e-05	1e-05	0.0003	0.00106	-0.00045	-0.00021	1e-05	6
30879	-2e-05	-2e-05	1e-05	0.0003	0.00106	-0.00045	-0.00021	1e-05	6
30880	-2e-05	-2e-05	1e-05	0.0003	0.00106	-0.00045	-0.00021	1e-05	6
30881	-2e-05	-2e-05	1e-05	0.0003	0.00106	-0.00045	-0.00021	1e-05	6
30882	-2e-05	-2e-05	1e-05	0.0003	0.00106	-0.00045	-0.00021	1e-05	6
30883	-2e-05	-2e-05	1e-05	0.0003	0.00106	-0.00045	-0.00021	1e-05	6
30884	-2e-05	-2e-05	1e-05	0.0003	0.00106	-0.00045	-0.00021	1e-05	6
30885	-2e-05	-2e-05	1e-05	0.0003	0.00106	-0.00045	-0.00021	1e-05	6
30886	-2e-05	-2e-05	1e-05	0.0003	0.00106	-0.00045	-0.00021	1e-05	6
30888	3e-05	1e-05	4e-05	8e-05	-0.00025	0.00018	0.00016	9e-05	6
30889	0	-1e-05	2e-05	0.00013	0.00018	-7e-05	2e-05	-1e-05	6
30890	0	-1e-05	2e-05	0.00013	0.00018	-7e-05	2e-05	-1e-05	6
30891	0	-1e-05	2e-05	0.00013	0.00018	-7e-05	2e-05	-1e-05	6
30892	0	-1e-05	2e-05	0.00013	0.00018	-7e-05	2e-05	-1e-05	6
30893	0	-1e-05	2e-05	0.00013	0.00018	-7e-05	2e-05	-1e-05	6
30894	0	-1e-05	2e-05	0.00013	0.00018	-7e-05	2e-05	-1e-05	6
30895	0	-1e-05	2e-05	0.00013	0.00018	-7e-05	2e-05	-1e-05	6
30896	0	-1e-05	2e-05	0.00013	0.00018	-7e-05	2e-05	-1e-05	6
30897	0	-1e-05	2e-05	0.00013	0.00018	-7e-05	2e-05	-1e-05	6
30898	0	-1e-05	2e-05	0.00013	0.00018	-7e-05	2e-05	-1e-05	6
30899	0	-1e-05	2e-05	0.00013	0.00018	-7e-05	2e-05	-1e-05	6
30900	0	-1e-05	2e-05	0.00013	0.00018	-7e-05	2e-05	-1e-05	6
30901	0	-1e-05	2e-05	0.00013	0.00018	-7e-05	2e-05	-1e-05	6
30902	0	-1e-05	2e-05	0.00013	0.00018	-7e-05	2e-05	-1e-05	6
30903	0	-1e-05	2e-05	0.00013	0.00018	-7e-05	2e-05	-1e-05	6
30904	0	-1e-05	2e-05	0.00013	0.00018	-7e-05	2e-05	-1e-05	6
30905	0	-1e-05	2e-05	0.00013	0.00018	-7e-05	2e-05	-1e-05	6
30906	0	-1e-05	2e-05	0.00013	0.00018	-7e-05	2e-05	-1e-05	6
30907	0	-1e-05	2e-05	0.00013	0.00018	-7e-05	2e-05	-1e-05	6
30908	0	-1e-05	2e-05	0.00013	0.00018	-7e-05	2e-05	-1e-05	6
30909	0	-1e-05	2e-05	0.00013	0.00018	-7e-05	2e-05	-1e-05	6
30910	0	-1e-05	2e-05	0.00013	0.00018	-7e-05	2e-05	-1e-05	6
30911	0	-1e-05	2e-05	0.00013	0.00018	-7e-05	2e-05	-1e-05	6
30912	0	-1e-05	2e-05	0.00013	0.00018	-7e-05	2e-05	-1e-05	6
30913	0	-1e-05	2e-05	0.00013	0.00018	-7e-05	2e-05	-1e-05	6
30914	0	-1e-05	2e-05	0.00013	0.00018	-7e-05	2e-05	-1e-05	6
30915	0	-1e-05	2e-05	0.00013	0.00018	-7e-05	2e-05	-1e-05	6
30916	0	-1e-05	2e-05	0.00013	0.00018	-7e-05	2e-05	-1e-05	6
30917	0	-1e-05	2e-05	0.00013	0.00018	-7e-05	2e-05	-1e-05	6
30918	0	-1e-05	2e-05	0.00013	0.00018	-7e-05	2e-05	-1e-05	6
30919	0	-1e-05	2e-05	0.00013	0.00018	-7e-05	2e-05	-1e-05	6
30920	0	-1e-05	2e-05	0.00013	0.00018	-7e-05	2e-05	-1e-05	6
30921	0	-1e-05	2e-05	0.00013	0.00018	-7e-05	2e-05	-1e-05	6
30922	0	-1e-05	2e-05	0.00013	0.00018	-7e-05	2e-05	-1e-05	6
30923	0	-1e-05	2e-05	0.00013	0.00018	-7e-05	2e-05	-1e-05	6
30924	0	-1e-05	2e-05	0.00013	0.00018	-7e-05	2e-05	-1e-05	6
30925	0	1e-05	-6e-05	8e-05	0.00119	-8e-05	-0.0001	-5e-05	6
30926	0	1e-05	-6e-05	8e-05	0.00119	-8e-05	-0.0001	-5e-05	6
30927	-1e-05	1e-05	4e-05	9e-05	-0.00015	0.00019	-0.00016	-8e-05	6
30928	-3e-05	-5e-05	5e-05	-1e-05	-0.00058	0.00014	1e-05	1e-05	6
30929	-3e-05	-5e-05	5e-05	-1e-05	-0.00058	0.00014	1e-05	1e-05	6
30930	-3e-05	-5e-05	5e-05	-1e-05	-0.00058	0.00014	1e-05	1e-05	6
30931	-3e-05	-5e-05	5e-05	-1e-05	-0.00058	0.00014	1e-05	1e-05	6
30932	-3e-05	-5e-05	5e-05	-1e-05	-0.00058	0.00014	1e-05	1e-05	6
30933	-3e-05	-5e-05	5e-05	-1e-05	-0.00058	0.00014	1e-05	1e-05	6
30934	-3e-05	-5e-05	5e-05	-1e-05	-0.00058	0.00014	1e-05	1e-05	6
30935	-3e-05	-5e-05	5e-05	-1e-05	-0.00058	0.00014	1e-05	1e-05	6
30936	-3e-05	-5e-05	5e-05	-1e-05	-0.00058	0.00014	1e-05	1e-05	6
30938	-3e-05	-5e-05	5e-05	-1e-05	-0.00058	0.00014	1e-05	1e-05	6
30939	-3e-05	-5e-05	5e-05	-1e-05	-0.00058	0.00014	1e-05	1e-05	6
30940	-3e-05	-5e-05	5e-05	-1e-05	-0.00058	0.00014	1e-05	1e-05	6
30941	-3e-05	-5e-05	5e-05	-1e-05	-0.00058	0.00014	1e-05	1e-05	6
30942	-3e-05	-5e-05	5e-05	-1e-05	-0.00058	0.00014	1e-05	1e-05	6
30943	-3e-05	-5e-05	5e-05	-1e-05	-0.00058	0.00014	1e-05	1e-05	6
30944	-3e-05	-5e-05	5e-05	-1e-05	-0.00058	0.00014	1e-05	1e-05	6
30945	-3e-05	-5e-05	5e-05	-1e-05	-0.00058	0.00014	1e-05	1e-05	6
30946	-3e-05	-5e-05	5e-05	-1e-05	-0.00058	0.00014	1e-05	1e-05	6
30947	-3e-05	-5e-05	5e-05	-1e-05	-0.00058	0.00014	1e-05	1e-05	6
30948	-3e-05	-5e-05	5e-05	-1e-05	-0.00058	0.00014	1e-05	1e-05	6
30949	3e-05	3e-05	-2e-05	9e-05	0.00064	-9e-05	5e-05	0.00014	6
30950	0	0	-2e-05	-0.00033	0.00036	6e-05	-0.00033	-2e-05	6
30951	0	0	-2e-05	-0.00033	0.00036	6e-05	-0.00033	-2e-05	6
30952	0	0	-2e-05	-0.00033	0.00036	6e-05	-0.00033	-2e-05	6
30953	0	3e-05	-3e-05	4e-05	-6e-05	-2e-05	5e-05	-2e-05	6
30954	0	3e-05	-3e-05	4e-05	-6e-05	-2e-05	5e-05	-2e-05	6
30955	0	3e-05	-3e-05	4e-05	-6e-05	-2e-05	5e-05	-2e-05	6
30956	0	3e-05	-3e-05	4e-05	-6e-05	-2e-05	5e-05	-2e-05	6
30957	0	3e-05	-3e-05	4e-05	-6e-05	-2e-05	5e-05	-2e-05	6
30958	0	3e-05	-3e-05	4e-05	-6e-05	-2e-05	5e-05	-2e-05	6
30959	0	3e-05	-3e-05	4e-05	-6e-05	-2e-05	5e-05	-2e-05	6
30960	0	3e-05	-3e-05	4e-05	-6e-05	-2e-05	5e-05	-2e-05	6
30961	0	3e-05	-3e-05	4e-05	-6e-05	-2e-05	5e-05	-2e-05	6
30962	0	3e-05	-3e-05	4e-05	-6e-05	-2e-05	5e-05	-2e-05	6
30963	0	3e-05	-3e-05	4e-05	-6e-05	-2e-05	5e-05	-2e-05	6
30964	0	3e-05	-3e-05	4e-05	-6e-05	-2e-05	5e-05	-2e-05	6
30965	0	3e-05	-3e-05	4e-05	-6e-05	-2e-05	5e-05	-2e-05	6
30966	0	3e-05	-3e-05	4e-05	-6e-05	-2e-05	5e-05	-2e-05	6
30967	0	3e-05	-3e-05	4e-05	-6e-05	-2e-05	5e-05	-2e-05	6
30968	0	3e-05	-3e-05	4e-05	-6e-05	-2e-05	5e-05	-2e-05	6
30969	0	3e-05	-3e-05	4e-05	-6e-05	-2e-05	5e-05	-2e-05	6
30970	0	0	0	5e-05	-0.00016	-0.00022	2e-05	-5e-05	6
30971	-3e-05	-1e-05	-1e-05	-0.00021	-0.00069	-0.00017	-5e-05	-7e-05	6
30972	-3e-05	-1e-05	-1e-05	-0.00021	-0.00069	-0.00017	-5e-05	-7e-05	6
30973	-3e-05	-1e-05	-1e-05	-0.00021	-0.00069	-0.00017	-5e-05	-7e-05	6
30974	-3e-05	-1e-05	-1e-05	-0.00021	-0.00069	-0.00017	-5e-05	-7e-05	6
30975	-3e-05	-1e-05	-1e-05	-0.00021	-0.00069	-0.00017	-5e-05	-7e-05	6
30976	-3e-05	-1e-05	-1e-05	-0.00021	-0.00069	-0.00017	-5e-05	-7e-05	6
30977	-3e-05	-1e-05	-1e-05	-0.00021	-0.00069	-0.00017	-5e-05	-7e-05	6
30978	-3e-05	-1e-05	-1e-05	-0.00021	-0.00069	-0.00017	-5e-05	-7e-05	6
30979	-3e-05	-1e-05	-1e-05	-0.00021	-0.00069	-0.00017	-5e-05	-7e-05	6
30980	-3e-05	-1e-05	-1e-05	-0.00021	-0.00069	-0.00017	-5e-05	-7e-05	6
30981	-3e-05	-1e-05	-1e-05	-0.00021	-0.00069	-0.00017	-5e-05	-7e-05	6
30982	-3e-05	-1e-05	-1e-05	-0.00021	-0.00069	-0.00017	-5e-05	-7e-05	6
30983	1e-05	2e-05	-6e-05	-7e-05	-0.00054	3e-05	0.0001	0	6
30984	1e-05	2e-05	-6e-05	-7e-05	-0.00054	3e-05	0.0001	0	6
30985	1e-05	2e-05	-6e-05	-7e-05	-0.00054	3e-05	0.0001	0	6
30986	1e-05	2e-05	-6e-05	-7e-05	-0.00054	3e-05	0.0001	0	6
30988	1e-05	2e-05	-6e-05	-7e-05	-0.00054	3e-05	0.0001	0	6
30989	1e-05	2e-05	-6e-05	-7e-05	-0.00054	3e-05	0.0001	0	6
30990	1e-05	2e-05	-6e-05	-7e-05	-0.00054	3e-05	0.0001	0	6
30991	1e-05	2e-05	-6e-05	-7e-05	-0.00054	3e-05	0.0001	0	6
30992	1e-05	2e-05	-6e-05	-7e-05	-0.00054	3e-05	0.0001	0	6
30993	1e-05	2e-05	-6e-05	-7e-05	-0.00054	3e-05	0.0001	0	6
30994	1e-05	2e-05	-6e-05	-7e-05	-0.00054	3e-05	0.0001	0	6
30995	1e-05	2e-05	-6e-05	-7e-05	-0.00054	3e-05	0.0001	0	6
30996	1e-05	2e-05	-6e-05	-7e-05	-0.00054	3e-05	0.0001	0	6
30997	1e-05	2e-05	-6e-05	-7e-05	-0.00054	3e-05	0.0001	0	6
30998	1e-05	2e-05	-6e-05	-7e-05	-0.00054	3e-05	0.0001	0	6
30999	1e-05	2e-05	-6e-05	-7e-05	-0.00054	3e-05	0.0001	0	6
31000	-3e-05	-4e-05	-8e-05	-0.00049	-0.00042	0.00012	0.00038	-4e-05	6
31001	-3e-05	-4e-05	-8e-05	-0.00049	-0.00042	0.00012	0.00038	-4e-05	6
31002	-3e-05	-4e-05	-8e-05	-0.00049	-0.00042	0.00012	0.00038	-4e-05	6
31003	-3e-05	-4e-05	-8e-05	-0.00049	-0.00042	0.00012	0.00038	-4e-05	6
31004	-3e-05	-4e-05	-8e-05	-0.00049	-0.00042	0.00012	0.00038	-4e-05	6
31005	-3e-05	-4e-05	-8e-05	-0.00049	-0.00042	0.00012	0.00038	-4e-05	6
31006	-3e-05	-4e-05	-8e-05	-0.00049	-0.00042	0.00012	0.00038	-4e-05	6
31007	-2e-05	-3e-05	2e-05	-6e-05	-3e-05	2e-05	5e-05	-1e-05	6
31008	-1e-05	0	-3e-05	-8e-05	0.00046	8e-05	-0.00012	-6e-05	6
31009	-1e-05	0	-3e-05	-8e-05	0.00046	8e-05	-0.00012	-6e-05	6
31010	-1e-05	0	-3e-05	-8e-05	0.00046	8e-05	-0.00012	-6e-05	6
31011	-1e-05	0	-3e-05	-8e-05	0.00046	8e-05	-0.00012	-6e-05	6
31012	-1e-05	0	-3e-05	-8e-05	0.00046	8e-05	-0.00012	-6e-05	6
31013	-1e-05	0	-3e-05	-8e-05	0.00046	8e-05	-0.00012	-6e-05	6
31014	-1e-05	0	-3e-05	-8e-05	0.00046	8e-05	-0.00012	-6e-05	6
31015	-1e-05	0	-3e-05	-8e-05	0.00046	8e-05	-0.00012	-6e-05	6
31016	-1e-05	0	-3e-05	-8e-05	0.00046	8e-05	-0.00012	-6e-05	6
31017	-1e-05	0	-3e-05	-8e-05	0.00046	8e-05	-0.00012	-6e-05	6
31018	-1e-05	0	-3e-05	-8e-05	0.00046	8e-05	-0.00012	-6e-05	6
31019	-1e-05	0	-3e-05	-8e-05	0.00046	8e-05	-0.00012	-6e-05	6
31020	-1e-05	0	-3e-05	-8e-05	0.00046	8e-05	-0.00012	-6e-05	6
31021	-1e-05	0	-3e-05	-8e-05	0.00046	8e-05	-0.00012	-6e-05	6
31022	-1e-05	0	-3e-05	-8e-05	0.00046	8e-05	-0.00012	-6e-05	6
31023	-1e-05	0	-3e-05	-8e-05	0.00046	8e-05	-0.00012	-6e-05	6
31024	-1e-05	0	-3e-05	-8e-05	0.00046	8e-05	-0.00012	-6e-05	6
31025	-1e-05	0	-3e-05	-8e-05	0.00046	8e-05	-0.00012	-6e-05	6
31026	-1e-05	0	-3e-05	-8e-05	0.00046	8e-05	-0.00012	-6e-05	6
31027	-1e-05	0	-3e-05	-8e-05	0.00046	8e-05	-0.00012	-6e-05	6
31028	-1e-05	0	-3e-05	-8e-05	0.00046	8e-05	-0.00012	-6e-05	6
31029	-1e-05	0	-3e-05	-8e-05	0.00046	8e-05	-0.00012	-6e-05	6
31030	1e-05	-2e-05	-7e-05	0.00022	0.00127	5e-05	0.00012	4e-05	6
31031	1e-05	-2e-05	-7e-05	0.00022	0.00127	5e-05	0.00012	4e-05	6
31032	-2e-05	0	-1e-05	-0.00014	-0.00071	-0.00013	-6e-05	-7e-05	6
31033	-2e-05	0	-1e-05	-0.00014	-0.00071	-0.00013	-6e-05	-7e-05	6
31034	-2e-05	0	-1e-05	-0.00014	-0.00071	-0.00013	-6e-05	-7e-05	6
31035	-2e-05	0	-1e-05	-0.00014	-0.00071	-0.00013	-6e-05	-7e-05	6
31036	-2e-05	0	-1e-05	-0.00014	-0.00071	-0.00013	-6e-05	-7e-05	6
31038	-2e-05	0	-1e-05	-0.00014	-0.00071	-0.00013	-6e-05	-7e-05	6
31039	-2e-05	0	-1e-05	-0.00014	-0.00071	-0.00013	-6e-05	-7e-05	6
31040	-2e-05	0	-1e-05	-0.00014	-0.00071	-0.00013	-6e-05	-7e-05	6
31041	-2e-05	0	-1e-05	-0.00014	-0.00071	-0.00013	-6e-05	-7e-05	6
31042	-2e-05	0	-1e-05	-0.00014	-0.00071	-0.00013	-6e-05	-7e-05	6
31043	-2e-05	0	-1e-05	-0.00014	-0.00071	-0.00013	-6e-05	-7e-05	6
31044	-2e-05	0	-1e-05	-0.00014	-0.00071	-0.00013	-6e-05	-7e-05	6
31045	-2e-05	0	-1e-05	-0.00014	-0.00071	-0.00013	-6e-05	-7e-05	6
31046	-2e-05	0	-1e-05	-0.00014	-0.00071	-0.00013	-6e-05	-7e-05	6
31047	-2e-05	0	-1e-05	-0.00014	-0.00071	-0.00013	-6e-05	-7e-05	6
31048	-2e-05	0	-1e-05	-0.00014	-0.00071	-0.00013	-6e-05	-7e-05	6
31049	-2e-05	0	-1e-05	-0.00014	-0.00071	-0.00013	-6e-05	-7e-05	6
31050	-2e-05	0	-1e-05	-0.00014	-0.00071	-0.00013	-6e-05	-7e-05	6
31051	-2e-05	0	-1e-05	-0.00014	-0.00071	-0.00013	-6e-05	-7e-05	6
31052	-2e-05	0	-1e-05	-0.00014	-0.00071	-0.00013	-6e-05	-7e-05	6
31053	0	-1e-05	-8e-05	-9e-05	-0.00038	2e-05	0.0001	-1e-05	6
31054	0	-1e-05	-8e-05	-9e-05	-0.00038	2e-05	0.0001	-1e-05	6
31055	0	-1e-05	-8e-05	-9e-05	-0.00038	2e-05	0.0001	-1e-05	6
31056	0	-1e-05	-8e-05	-9e-05	-0.00038	2e-05	0.0001	-1e-05	6
31057	0	-1e-05	-8e-05	-9e-05	-0.00038	2e-05	0.0001	-1e-05	6
31058	-3e-05	-1e-05	-7e-05	-4e-05	0.00053	0.0002	-0.00021	-7e-05	6
31059	-3e-05	-1e-05	-7e-05	-4e-05	0.00053	0.0002	-0.00021	-7e-05	6
31060	-3e-05	-1e-05	-7e-05	-4e-05	0.00053	0.0002	-0.00021	-7e-05	6
31061	-3e-05	-1e-05	-7e-05	-4e-05	0.00053	0.0002	-0.00021	-7e-05	6
31062	-3e-05	-1e-05	-7e-05	-4e-05	0.00053	0.0002	-0.00021	-7e-05	6
31063	-3e-05	-1e-05	-7e-05	-4e-05	0.00053	0.0002	-0.00021	-7e-05	6
31064	-3e-05	-1e-05	-7e-05	-4e-05	0.00053	0.0002	-0.00021	-7e-05	6
31065	-3e-05	-1e-05	-7e-05	-4e-05	0.00053	0.0002	-0.00021	-7e-05	6
31066	-3e-05	-1e-05	-7e-05	-4e-05	0.00053	0.0002	-0.00021	-7e-05	6
31067	-3e-05	-5e-05	5e-05	0.00031	-0.00013	8e-05	-0.0001	-8e-05	6
31068	1e-05	-1e-05	-1e-05	-0.00012	0.00028	0.00024	-2e-05	-2e-05	6
31069	1e-05	-1e-05	-1e-05	-0.00012	0.00028	0.00024	-2e-05	-2e-05	6
31070	1e-05	-1e-05	-1e-05	-0.00012	0.00028	0.00024	-2e-05	-2e-05	6
31071	1e-05	-1e-05	-1e-05	-0.00012	0.00028	0.00024	-2e-05	-2e-05	6
31072	1e-05	-1e-05	-1e-05	-0.00012	0.00028	0.00024	-2e-05	-2e-05	6
31073	1e-05	-1e-05	-1e-05	-0.00012	0.00028	0.00024	-2e-05	-2e-05	6
31074	1e-05	-1e-05	-1e-05	-0.00012	0.00028	0.00024	-2e-05	-2e-05	6
31075	1e-05	-1e-05	-1e-05	-0.00012	0.00028	0.00024	-2e-05	-2e-05	6
31076	1e-05	-1e-05	-1e-05	-0.00012	0.00028	0.00024	-2e-05	-2e-05	6
31077	1e-05	-1e-05	-1e-05	-0.00012	0.00028	0.00024	-2e-05	-2e-05	6
31078	1e-05	-1e-05	-1e-05	-0.00012	0.00028	0.00024	-2e-05	-2e-05	6
31079	1e-05	-1e-05	-1e-05	-0.00012	0.00028	0.00024	-2e-05	-2e-05	6
31080	1e-05	-1e-05	-1e-05	-0.00012	0.00028	0.00024	-2e-05	-2e-05	6
31081	1e-05	-1e-05	-1e-05	-0.00012	0.00028	0.00024	-2e-05	-2e-05	6
31082	1e-05	-1e-05	-1e-05	-0.00012	0.00028	0.00024	-2e-05	-2e-05	6
31083	1e-05	-1e-05	-1e-05	-0.00012	0.00028	0.00024	-2e-05	-2e-05	6
31084	1e-05	-1e-05	-1e-05	-0.00012	0.00028	0.00024	-2e-05	-2e-05	6
31085	1e-05	-1e-05	-1e-05	-0.00012	0.00028	0.00024	-2e-05	-2e-05	6
31086	1e-05	-1e-05	-1e-05	-0.00012	0.00028	0.00024	-2e-05	-2e-05	6
31088	1e-05	-1e-05	-1e-05	-0.00012	0.00028	0.00024	-2e-05	-2e-05	6
31089	-2e-05	0	0	-8e-05	0.00061	2e-05	-6e-05	-6e-05	6
31090	-1e-05	0	-4e-05	-0.00048	-0.00036	-0.00024	5e-05	1e-05	6
31091	-2e-05	-3e-05	3e-05	1e-05	-0.00062	-0.00024	0.00016	2e-05	6
31092	-2e-05	-3e-05	3e-05	1e-05	-0.00062	-0.00024	0.00016	2e-05	6
31093	-2e-05	-3e-05	3e-05	1e-05	-0.00062	-0.00024	0.00016	2e-05	6
31094	-2e-05	-3e-05	3e-05	1e-05	-0.00062	-0.00024	0.00016	2e-05	6
31095	-2e-05	-3e-05	3e-05	1e-05	-0.00062	-0.00024	0.00016	2e-05	6
31096	-2e-05	-3e-05	3e-05	1e-05	-0.00062	-0.00024	0.00016	2e-05	6
31097	-2e-05	-3e-05	3e-05	1e-05	-0.00062	-0.00024	0.00016	2e-05	6
31098	-2e-05	-3e-05	3e-05	1e-05	-0.00062	-0.00024	0.00016	2e-05	6
31099	-2e-05	-3e-05	3e-05	1e-05	-0.00062	-0.00024	0.00016	2e-05	6
31100	-2e-05	-3e-05	3e-05	1e-05	-0.00062	-0.00024	0.00016	2e-05	6
31101	-2e-05	-3e-05	3e-05	1e-05	-0.00062	-0.00024	0.00016	2e-05	6
31102	-2e-05	-3e-05	3e-05	1e-05	-0.00062	-0.00024	0.00016	2e-05	6
31103	-2e-05	-3e-05	3e-05	1e-05	-0.00062	-0.00024	0.00016	2e-05	6
31104	-2e-05	-3e-05	3e-05	1e-05	-0.00062	-0.00024	0.00016	2e-05	6
31105	-2e-05	-3e-05	3e-05	1e-05	-0.00062	-0.00024	0.00016	2e-05	6
31106	-2e-05	-3e-05	3e-05	1e-05	-0.00062	-0.00024	0.00016	2e-05	6
31107	-2e-05	-3e-05	3e-05	1e-05	-0.00062	-0.00024	0.00016	2e-05	6
31108	-2e-05	-3e-05	3e-05	1e-05	-0.00062	-0.00024	0.00016	2e-05	6
31109	-2e-05	-3e-05	3e-05	1e-05	-0.00062	-0.00024	0.00016	2e-05	6
31110	-2e-05	-3e-05	3e-05	1e-05	-0.00062	-0.00024	0.00016	2e-05	6
31111	-2e-05	-3e-05	3e-05	1e-05	-0.00062	-0.00024	0.00016	2e-05	6
31112	-2e-05	0	-4e-05	-0.00037	-0.00018	3e-05	4e-05	-2e-05	6
31113	-2e-05	0	-4e-05	-0.00037	-0.00018	3e-05	4e-05	-2e-05	6
31114	-1e-05	-2e-05	-2e-05	-0.00012	-0.00031	-8e-05	1e-05	-2e-05	6
31115	-1e-05	-2e-05	-2e-05	-0.00012	-0.00031	-8e-05	1e-05	-2e-05	6
31116	-1e-05	-2e-05	-2e-05	-0.00012	-0.00031	-8e-05	1e-05	-2e-05	6
31117	-1e-05	-2e-05	-2e-05	-0.00012	-0.00031	-8e-05	1e-05	-2e-05	6
31118	-1e-05	-2e-05	-2e-05	-0.00012	-0.00031	-8e-05	1e-05	-2e-05	6
31119	-1e-05	-2e-05	-2e-05	-0.00012	-0.00031	-8e-05	1e-05	-2e-05	6
31120	-1e-05	-2e-05	-2e-05	-0.00012	-0.00031	-8e-05	1e-05	-2e-05	6
31121	-1e-05	-2e-05	-2e-05	-0.00012	-0.00031	-8e-05	1e-05	-2e-05	6
31122	-1e-05	-2e-05	-2e-05	-0.00012	-0.00031	-8e-05	1e-05	-2e-05	6
31123	-1e-05	-2e-05	-2e-05	-0.00012	-0.00031	-8e-05	1e-05	-2e-05	6
31124	-1e-05	-2e-05	-2e-05	-0.00012	-0.00031	-8e-05	1e-05	-2e-05	6
31125	-1e-05	-2e-05	-2e-05	-0.00012	-0.00031	-8e-05	1e-05	-2e-05	6
31126	-1e-05	-2e-05	-2e-05	-0.00012	-0.00031	-8e-05	1e-05	-2e-05	6
31127	-1e-05	-2e-05	-2e-05	-0.00012	-0.00031	-8e-05	1e-05	-2e-05	6
31128	-1e-05	-2e-05	-2e-05	-0.00012	-0.00031	-8e-05	1e-05	-2e-05	6
31129	-1e-05	-2e-05	-2e-05	-0.00012	-0.00031	-8e-05	1e-05	-2e-05	6
31130	-1e-05	-2e-05	-2e-05	-0.00012	-0.00031	-8e-05	1e-05	-2e-05	6
31131	-1e-05	-2e-05	-2e-05	-0.00012	-0.00031	-8e-05	1e-05	-2e-05	6
31132	-1e-05	-2e-05	-2e-05	-0.00012	-0.00031	-8e-05	1e-05	-2e-05	6
31133	-1e-05	-2e-05	-2e-05	-0.00012	-0.00031	-8e-05	1e-05	-2e-05	6
31134	-1e-05	-2e-05	-2e-05	-0.00012	-0.00031	-8e-05	1e-05	-2e-05	6
31135	-1e-05	-2e-05	-2e-05	-0.00012	-0.00031	-8e-05	1e-05	-2e-05	6
31136	-1e-05	-2e-05	-2e-05	-0.00012	-0.00031	-8e-05	1e-05	-2e-05	6
31138	-1e-05	-2e-05	-2e-05	-0.00012	-0.00031	-8e-05	1e-05	-2e-05	6
31139	-1e-05	-2e-05	-2e-05	-0.00012	-0.00031	-8e-05	1e-05	-2e-05	6
31140	-1e-05	-2e-05	-2e-05	-0.00012	-0.00031	-8e-05	1e-05	-2e-05	6
31141	-1e-05	-2e-05	-2e-05	-0.00012	-0.00031	-8e-05	1e-05	-2e-05	6
31142	0	1e-05	2e-05	9e-05	-0.00014	4e-05	5e-05	-4e-05	6
31143	-4e-05	-5e-05	-6e-05	-0.00037	-0.00077	-8e-05	8e-05	-7e-05	6
31144	0	1e-05	0	-4e-05	0.00108	0.00019	-5e-05	8e-05	6
31145	0	1e-05	0	-4e-05	0.00108	0.00019	-5e-05	8e-05	6
31146	0	1e-05	0	-4e-05	0.00108	0.00019	-5e-05	8e-05	6
31147	0	1e-05	0	-4e-05	0.00108	0.00019	-5e-05	8e-05	6
31148	0	1e-05	0	-4e-05	0.00108	0.00019	-5e-05	8e-05	6
31149	-1e-05	-1e-05	2e-05	-0.0001	-0.00036	-1e-05	-7e-05	6e-05	6
31150	-1e-05	-1e-05	2e-05	-0.0001	-0.00036	-1e-05	-7e-05	6e-05	6
31151	2e-05	0	-2e-05	0.00016	2e-05	6e-05	3e-05	-0.00012	6
31152	2e-05	0	-2e-05	0.00016	2e-05	6e-05	3e-05	-0.00012	6
31153	2e-05	0	-2e-05	0.00016	2e-05	6e-05	3e-05	-0.00012	6
31154	2e-05	0	-2e-05	0.00016	2e-05	6e-05	3e-05	-0.00012	6
31155	2e-05	0	-2e-05	0.00016	2e-05	6e-05	3e-05	-0.00012	6
31156	2e-05	0	-2e-05	0.00016	2e-05	6e-05	3e-05	-0.00012	6
31157	2e-05	0	-2e-05	0.00016	2e-05	6e-05	3e-05	-0.00012	6
31158	2e-05	0	-2e-05	0.00016	2e-05	6e-05	3e-05	-0.00012	6
31159	2e-05	0	-2e-05	0.00016	2e-05	6e-05	3e-05	-0.00012	6
31160	2e-05	0	-2e-05	0.00016	2e-05	6e-05	3e-05	-0.00012	6
31161	2e-05	0	-2e-05	0.00016	2e-05	6e-05	3e-05	-0.00012	6
31162	2e-05	0	-2e-05	0.00016	2e-05	6e-05	3e-05	-0.00012	6
31163	2e-05	0	-2e-05	0.00016	2e-05	6e-05	3e-05	-0.00012	6
31164	2e-05	0	-2e-05	0.00016	2e-05	6e-05	3e-05	-0.00012	6
31165	2e-05	0	-2e-05	0.00016	2e-05	6e-05	3e-05	-0.00012	6
31166	2e-05	0	-2e-05	0.00016	2e-05	6e-05	3e-05	-0.00012	6
31167	2e-05	0	-2e-05	0.00016	2e-05	6e-05	3e-05	-0.00012	6
31168	2e-05	0	-2e-05	0.00016	2e-05	6e-05	3e-05	-0.00012	6
31169	2e-05	0	-2e-05	0.00016	2e-05	6e-05	3e-05	-0.00012	6
31170	2e-05	0	-2e-05	0.00016	2e-05	6e-05	3e-05	-0.00012	6
31171	2e-05	0	-2e-05	0.00016	2e-05	6e-05	3e-05	-0.00012	6
31172	-3e-05	-1e-05	1e-05	0.00024	0.00029	-4e-05	-0.00014	-3e-05	6
31173	-1e-05	-2e-05	-1e-05	-0.00024	0.00035	0.00026	3e-05	-8e-05	6
31174	-1e-05	-3e-05	2e-05	-0.00022	-0.0003	-2e-05	3e-05	6e-05	6
31175	-1e-05	-3e-05	2e-05	-0.00022	-0.0003	-2e-05	3e-05	6e-05	6
31176	-1e-05	-3e-05	2e-05	-0.00022	-0.0003	-2e-05	3e-05	6e-05	6
31177	-1e-05	-3e-05	2e-05	-0.00022	-0.0003	-2e-05	3e-05	6e-05	6
31178	-1e-05	-3e-05	2e-05	-0.00022	-0.0003	-2e-05	3e-05	6e-05	6
31179	-1e-05	-3e-05	2e-05	-0.00022	-0.0003	-2e-05	3e-05	6e-05	6
31180	-1e-05	-3e-05	2e-05	-0.00022	-0.0003	-2e-05	3e-05	6e-05	6
31181	-1e-05	-3e-05	2e-05	-0.00022	-0.0003	-2e-05	3e-05	6e-05	6
31182	-1e-05	-3e-05	2e-05	-0.00022	-0.0003	-2e-05	3e-05	6e-05	6
31183	-1e-05	-3e-05	2e-05	-0.00022	-0.0003	-2e-05	3e-05	6e-05	6
31184	-1e-05	-3e-05	2e-05	-0.00022	-0.0003	-2e-05	3e-05	6e-05	6
31185	-1e-05	-3e-05	2e-05	-0.00022	-0.0003	-2e-05	3e-05	6e-05	6
31186	-1e-05	-3e-05	2e-05	-0.00022	-0.0003	-2e-05	3e-05	6e-05	6
31188	-1e-05	-3e-05	2e-05	-0.00022	-0.0003	-2e-05	3e-05	6e-05	6
31189	-1e-05	-3e-05	2e-05	-0.00022	-0.0003	-2e-05	3e-05	6e-05	6
31190	-1e-05	-3e-05	2e-05	-0.00022	-0.0003	-2e-05	3e-05	6e-05	6
31191	-1e-05	-3e-05	2e-05	-0.00022	-0.0003	-2e-05	3e-05	6e-05	6
