4367	0.00073	-0.00025	-7e-05	0.00023	-0.00011	4e-05	-0.0002	0.00048	2
4368	0.00073	-0.00025	-7e-05	0.00023	-0.00011	4e-05	-0.0002	0.00048	2
4369	0.00073	-0.00025	-7e-05	0.00023	-0.00011	4e-05	-0.0002	0.00048	2
4370	0.00073	-0.00025	-7e-05	0.00023	-0.00011	4e-05	-0.0002	0.00048	2
4371	0.00073	-0.00025	-7e-05	0.00023	-0.00011	4e-05	-0.0002	0.00048	2
4372	0.00071	0.00037	4e-05	-0.00013	-0.00031	-0.00056	-0.00037	4e-05	2
4373	0.00071	0.00037	4e-05	-0.00013	-0.00031	-0.00056	-0.00037	4e-05	2
4374	0.00071	0.00037	4e-05	-0.00013	-0.00031	-0.00056	-0.00037	4e-05	2
4375	0.00071	0.00037	4e-05	-0.00013	-0.00031	-0.00056	-0.00037	4e-05	2
4376	0.00071	0.00037	4e-05	-0.00013	-0.00031	-0.00056	-0.00037	4e-05	2
4377	0.00071	0.00037	4e-05	-0.00013	-0.00031	-0.00056	-0.00037	4e-05	2
4378	0.00071	0.00037	4e-05	-0.00013	-0.00031	-0.00056	-0.00037	4e-05	2
4379	0.00071	0.00037	4e-05	-0.00013	-0.00031	-0.00056	-0.00037	4e-05	2
4380	0.00071	0.00037	4e-05	-0.00013	-0.00031	-0.00056	-0.00037	4e-05	2
4381	0.00071	0.00037	4e-05	-0.00013	-0.00031	-0.00056	-0.00037	4e-05	2
4382	0.00071	0.00037	4e-05	-0.00013	-0.00031	-0.00056	-0.00037	4e-05	2
4383	0.00071	0.00037	4e-05	-0.00013	-0.00031	-0.00056	-0.00037	4e-05	2
4384	0.00071	0.00037	4e-05	-0.00013	-0.00031	-0.00056	-0.00037	4e-05	2
4385	0.00071	0.00037	4e-05	-0.00013	-0.00031	-0.00056	-0.00037	4e-05	2
4386	0.00071	0.00037	4e-05	-0.00013	-0.00031	-0.00056	-0.00037	4e-05	2
4388	0.00071	0.00037	4e-05	-0.00013	-0.00031	-0.00056	-0.00037	4e-05	2
4389	0.00077	-0.00076	-0.00028	-0.00057	-8e-05	-0.00016	-0.00048	-0.00037	2
4390	0.00077	-0.00076	-0.00028	-0.00057	-8e-05	-0.00016	-0.00048	-0.00037	2
4391	-0.00128	-0.00023	1e-05	-0.00044	0.00045	-0.00015	-0.00083	-0.00098	2
4392	-0.00128	-0.00023	1e-05	-0.00044	0.00045	-0.00015	-0.00083	-0.00098	2
4393	-0.00128	-0.00023	1e-05	-0.00044	0.00045	-0.00015	-0.00083	-0.00098	2
4394	-0.00128	-0.00023	1e-05	-0.00044	0.00045	-0.00015	-0.00083	-0.00098	2
4395	-0.00128	-0.00023	1e-05	-0.00044	0.00045	-0.00015	-0.00083	-0.00098	2
4396	-0.00128	-0.00023	1e-05	-0.00044	0.00045	-0.00015	-0.00083	-0.00098	2
4397	-0.00128	-0.00023	1e-05	-0.00044	0.00045	-0.00015	-0.00083	-0.00098	2
4398	-0.00128	-0.00023	1e-05	-0.00044	0.00045	-0.00015	-0.00083	-0.00098	2
4399	-0.00128	-0.00023	1e-05	-0.00044	0.00045	-0.00015	-0.00083	-0.00098	2
4400	-0.00128	-0.00023	1e-05	-0.00044	0.00045	-0.00015	-0.00083	-0.00098	2
4401	-0.00128	-0.00023	1e-05	-0.00044	0.00045	-0.00015	-0.00083	-0.00098	2
4402	-0.00128	-0.00023	1e-05	-0.00044	0.00045	-0.00015	-0.00083	-0.00098	2
4403	-0.00128	-0.00023	1e-05	-0.00044	0.00045	-0.00015	-0.00083	-0.00098	2
4404	-0.00128	-0.00023	1e-05	-0.00044	0.00045	-0.00015	-0.00083	-0.00098	2
4405	-0.00128	-0.00023	1e-05	-0.00044	0.00045	-0.00015	-0.00083	-0.00098	2
4406	-0.00128	-0.00023	1e-05	-0.00044	0.00045	-0.00015	-0.00083	-0.00098	2
4407	-0.00128	-0.00023	1e-05	-0.00044	0.00045	-0.00015	-0.00083	-0.00098	2
4408	-0.00128	-0.00023	1e-05	-0.00044	0.00045	-0.00015	-0.00083	-0.00098	2
4409	-0.00128	-0.00023	1e-05	-0.00044	0.00045	-0.00015	-0.00083	-0.00098	2
4410	-0.00081	0.00081	0.00011	-0.00042	-0.00046	0.00038	0.00016	7e-05	2
4411	-0.00128	-0.00056	-0.00013	0.00011	-0.00048	-0.00018	-0.00028	-0.00076	2
4412	-0.00128	-0.00056	-0.00013	0.00011	-0.00048	-0.00018	-0.00028	-0.00076	2
4413	-0.00128	-0.00056	-0.00013	0.00011	-0.00048	-0.00018	-0.00028	-0.00076	2
4414	-0.00128	-0.00056	-0.00013	0.00011	-0.00048	-0.00018	-0.00028	-0.00076	2
4415	-0.00128	-0.00056	-0.00013	0.00011	-0.00048	-0.00018	-0.00028	-0.00076	2
4416	-0.00128	-0.00056	-0.00013	0.00011	-0.00048	-0.00018	-0.00028	-0.00076	2
4417	-0.00128	-0.00056	-0.00013	0.00011	-0.00048	-0.00018	-0.00028	-0.00076	2
4418	-0.00128	-0.00056	-0.00013	0.00011	-0.00048	-0.00018	-0.00028	-0.00076	2
4419	-0.00128	-0.00056	-0.00013	0.00011	-0.00048	-0.00018	-0.00028	-0.00076	2
4420	-0.00128	-0.00056	-0.00013	0.00011	-0.00048	-0.00018	-0.00028	-0.00076	2
4421	-0.00128	-0.00056	-0.00013	0.00011	-0.00048	-0.00018	-0.00028	-0.00076	2
4422	-0.00128	-0.00056	-0.00013	0.00011	-0.00048	-0.00018	-0.00028	-0.00076	2
4423	-0.00128	-0.00056	-0.00013	0.00011	-0.00048	-0.00018	-0.00028	-0.00076	2
4424	0.00111	0.00032	-9e-05	-0.00037	0.00042	0.00041	0.00065	0.00059	2
4425	-0.00118	0.00101	0.00032	0.00027	-6e-05	0.00064	0.00071	0.00054	2
4426	-0.00118	0.00101	0.00032	0.00027	-6e-05	0.00064	0.00071	0.00054	2
4427	-0.00118	0.00101	0.00032	0.00027	-6e-05	0.00064	0.00071	0.00054	2
4428	-0.00118	0.00101	0.00032	0.00027	-6e-05	0.00064	0.00071	0.00054	2
4429	-0.00118	0.00101	0.00032	0.00027	-6e-05	0.00064	0.00071	0.00054	2
4430	-0.00118	0.00101	0.00032	0.00027	-6e-05	0.00064	0.00071	0.00054	2
4431	-0.00118	0.00101	0.00032	0.00027	-6e-05	0.00064	0.00071	0.00054	2
4432	-0.00118	0.00101	0.00032	0.00027	-6e-05	0.00064	0.00071	0.00054	2
4433	-0.00118	0.00101	0.00032	0.00027	-6e-05	0.00064	0.00071	0.00054	2
4434	-0.00118	0.00101	0.00032	0.00027	-6e-05	0.00064	0.00071	0.00054	2
4435	-0.00118	0.00101	0.00032	0.00027	-6e-05	0.00064	0.00071	0.00054	2
4436	-0.00118	0.00101	0.00032	0.00027	-6e-05	0.00064	0.00071	0.00054	2
4438	-0.00118	0.00101	0.00032	0.00027	-6e-05	0.00064	0.00071	0.00054	2
4439	-0.00118	0.00101	0.00032	0.00027	-6e-05	0.00064	0.00071	0.00054	2
4440	-0.00118	0.00101	0.00032	0.00027	-6e-05	0.00064	0.00071	0.00054	2
4441	-0.00118	0.00101	0.00032	0.00027	-6e-05	0.00064	0.00071	0.00054	2
4442	-0.00118	0.00101	0.00032	0.00027	-6e-05	0.00064	0.00071	0.00054	2
4443	-0.00118	0.00101	0.00032	0.00027	-6e-05	0.00064	0.00071	0.00054	2
4444	-0.00118	0.00101	0.00032	0.00027	-6e-05	0.00064	0.00071	0.00054	2
4445	-0.00118	0.00101	0.00032	0.00027	-6e-05	0.00064	0.00071	0.00054	2
4446	-0.00118	0.00101	0.00032	0.00027	-6e-05	0.00064	0.00071	0.00054	2
4447	-0.00118	0.00101	0.00032	0.00027	-6e-05	0.00064	0.00071	0.00054	2
4448	-0.00118	0.00101	0.00032	0.00027	-6e-05	0.00064	0.00071	0.00054	2
4449	-0.00118	0.00101	0.00032	0.00027	-6e-05	0.00064	0.00071	0.00054	2
4450	-0.00118	0.00101	0.00032	0.00027	-6e-05	0.00064	0.00071	0.00054	2
4451	-0.00118	0.00101	0.00032	0.00027	-6e-05	0.00064	0.00071	0.00054	2
4452	-0.00118	0.00101	0.00032	0.00027	-6e-05	0.00064	0.00071	0.00054	2
4453	-0.00118	0.00101	0.00032	0.00027	-6e-05	0.00064	0.00071	0.00054	2
4454	-0.00118	0.00101	0.00032	0.00027	-6e-05	0.00064	0.00071	0.00054	2
4455	0.00127	-0.00069	-0.00016	8e-05	1e-05	-3e-05	8e-05	0.00027	2
4456	0.00127	-0.00069	-0.00016	8e-05	1e-05	-3e-05	8e-05	0.00027	2
4457	0.00093	9e-05	2e-05	-0.00012	0.0004	-0.0002	0.00017	0.00036	2
4458	0.00093	9e-05	2e-05	-0.00012	0.0004	-0.0002	0.00017	0.00036	2
4459	0.00093	9e-05	2e-05	-0.00012	0.0004	-0.0002	0.00017	0.00036	2
4460	0.00093	9e-05	2e-05	-0.00012	0.0004	-0.0002	0.00017	0.00036	2
4461	0.00093	9e-05	2e-05	-0.00012	0.0004	-0.0002	0.00017	0.00036	2
4462	0.00093	9e-05	2e-05	-0.00012	0.0004	-0.0002	0.00017	0.00036	2
4463	0.00093	9e-05	2e-05	-0.00012	0.0004	-0.0002	0.00017	0.00036	2
4464	0.00093	9e-05	2e-05	-0.00012	0.0004	-0.0002	0.00017	0.00036	2
4465	0.00093	9e-05	2e-05	-0.00012	0.0004	-0.0002	0.00017	0.00036	2
4466	0.00093	9e-05	2e-05	-0.00012	0.0004	-0.0002	0.00017	0.00036	2
4467	0.00093	9e-05	2e-05	-0.00012	0.0004	-0.0002	0.00017	0.00036	2
4468	0.00093	9e-05	2e-05	-0.00012	0.0004	-0.0002	0.00017	0.00036	2
4469	0.00093	9e-05	2e-05	-0.00012	0.0004	-0.0002	0.00017	0.00036	2
4470	-0.00077	4e-05	-6e-05	-0.00026	-0.00011	-0.00065	-0.00077	-0.00103	2
4471	-0.00077	4e-05	-6e-05	-0.00026	-0.00011	-0.00065	-0.00077	-0.00103	2
4472	0.0012	0.00012	2e-05	0.00013	-0.00037	-0.00025	0.00021	0.00023	2
4473	0.0012	0.00012	2e-05	0.00013	-0.00037	-0.00025	0.00021	0.00023	2
4474	0.0012	0.00012	2e-05	0.00013	-0.00037	-0.00025	0.00021	0.00023	2
4475	0.0012	0.00012	2e-05	0.00013	-0.00037	-0.00025	0.00021	0.00023	2
4476	0.0012	0.00012	2e-05	0.00013	-0.00037	-0.00025	0.00021	0.00023	2
4477	0.0012	0.00012	2e-05	0.00013	-0.00037	-0.00025	0.00021	0.00023	2
4478	0.0012	0.00012	2e-05	0.00013	-0.00037	-0.00025	0.00021	0.00023	2
4479	0.0012	0.00012	2e-05	0.00013	-0.00037	-0.00025	0.00021	0.00023	2
4480	0.0012	0.00012	2e-05	0.00013	-0.00037	-0.00025	0.00021	0.00023	2
4481	0.0012	0.00012	2e-05	0.00013	-0.00037	-0.00025	0.00021	0.00023	2
4482	0.0012	0.00012	2e-05	0.00013	-0.00037	-0.00025	0.00021	0.00023	2
4483	0.0012	0.00012	2e-05	0.00013	-0.00037	-0.00025	0.00021	0.00023	2
4484	0.00069	-0.00077	-2e-05	0.00034	-0.00028	2e-05	0.00027	0.00012	2
4485	0.00069	-0.00077	-2e-05	0.00034	-0.00028	2e-05	0.00027	0.00012	2
4486	0.00069	-0.00077	-2e-05	0.00034	-0.00028	2e-05	0.00027	0.00012	2
4488	0.00069	-0.00077	-2e-05	0.00034	-0.00028	2e-05	0.00027	0.00012	2
4489	0.00069	-0.00077	-2e-05	0.00034	-0.00028	2e-05	0.00027	0.00012	2
4490	0.00069	-0.00077	-2e-05	0.00034	-0.00028	2e-05	0.00027	0.00012	2
4491	0.00069	-0.00077	-2e-05	0.00034	-0.00028	2e-05	0.00027	0.00012	2
4492	0.00069	-0.00077	-2e-05	0.00034	-0.00028	2e-05	0.00027	0.00012	2
4493	-0.00105	-0.0003	-0.0001	1e-05	3e-05	-0.00043	-0.00046	-0.00082	2
4494	-0.00105	-0.0003	-0.0001	1e-05	3e-05	-0.00043	-0.00046	-0.00082	2
4495	-0.00105	-0.0003	-0.0001	1e-05	3e-05	-0.00043	-0.00046	-0.00082	2
4496	-0.00105	-0.0003	-0.0001	1e-05	3e-05	-0.00043	-0.00046	-0.00082	2
4497	-0.00105	-0.0003	-0.0001	1e-05	3e-05	-0.00043	-0.00046	-0.00082	2
4498	-0.00105	-0.0003	-0.0001	1e-05	3e-05	-0.00043	-0.00046	-0.00082	2
4499	-0.00105	-0.0003	-0.0001	1e-05	3e-05	-0.00043	-0.00046	-0.00082	2
4500	-0.00105	-0.0003	-0.0001	1e-05	3e-05	-0.00043	-0.00046	-0.00082	2
4501	-0.00105	-0.0003	-0.0001	1e-05	3e-05	-0.00043	-0.00046	-0.00082	2
4502	-0.00105	-0.0003	-0.0001	1e-05	3e-05	-0.00043	-0.00046	-0.00082	2
4503	-0.00105	-0.0003	-0.0001	1e-05	3e-05	-0.00043	-0.00046	-0.00082	2
4504	-0.00105	-0.0003	-0.0001	1e-05	3e-05	-0.00043	-0.00046	-0.00082	2
4505	-0.00105	-0.0003	-0.0001	1e-05	3e-05	-0.00043	-0.00046	-0.00082	2
4506	-0.00105	-0.0003	-0.0001	1e-05	3e-05	-0.00043	-0.00046	-0.00082	2
4507	-0.00105	-0.0003	-0.0001	1e-05	3e-05	-0.00043	-0.00046	-0.00082	2
4508	-0.00128	0.00107	0.00045	0.00095	0.00017	8e-05	0.00013	0.00012	2
4509	0.00115	-6e-05	-1e-05	0.00018	0.00029	1e-05	0.00049	0.0007	2
4510	0.00115	-6e-05	-1e-05	0.00018	0.00029	1e-05	0.00049	0.0007	2
4511	0.00115	-6e-05	-1e-05	0.00018	0.00029	1e-05	0.00049	0.0007	2
4512	0.00115	-6e-05	-1e-05	0.00018	0.00029	1e-05	0.00049	0.0007	2
4513	0.00115	-6e-05	-1e-05	0.00018	0.00029	1e-05	0.00049	0.0007	2
4514	0.00115	-6e-05	-1e-05	0.00018	0.00029	1e-05	0.00049	0.0007	2
4515	0.00115	-6e-05	-1e-05	0.00018	0.00029	1e-05	0.00049	0.0007	2
4516	0.00115	-6e-05	-1e-05	0.00018	0.00029	1e-05	0.00049	0.0007	2
4517	0.00115	-6e-05	-1e-05	0.00018	0.00029	1e-05	0.00049	0.0007	2
4518	0.00115	-6e-05	-1e-05	0.00018	0.00029	1e-05	0.00049	0.0007	2
4519	0.00115	-6e-05	-1e-05	0.00018	0.00029	1e-05	0.00049	0.0007	2
4520	0.00115	-6e-05	-1e-05	0.00018	0.00029	1e-05	0.00049	0.0007	2
4521	0.00115	-6e-05	-1e-05	0.00018	0.00029	1e-05	0.00049	0.0007	2
4522	0.00115	-6e-05	-1e-05	0.00018	0.00029	1e-05	0.00049	0.0007	2
4523	0.00115	-6e-05	-1e-05	0.00018	0.00029	1e-05	0.00049	0.0007	2
4524	0.00115	-6e-05	-1e-05	0.00018	0.00029	1e-05	0.00049	0.0007	2
4525	0.00115	-6e-05	-1e-05	0.00018	0.00029	1e-05	0.00049	0.0007	2
4526	0.00115	-6e-05	-1e-05	0.00018	0.00029	1e-05	0.00049	0.0007	2
4527	0.00115	-6e-05	-1e-05	0.00018	0.00029	1e-05	0.00049	0.0007	2
4528	0.00115	-6e-05	-1e-05	0.00018	0.00029	1e-05	0.00049	0.0007	2
4529	0.00115	-6e-05	-1e-05	0.00018	0.00029	1e-05	0.00049	0.0007	2
4530	0.00115	-6e-05	-1e-05	0.00018	0.00029	1e-05	0.00049	0.0007	2
4531	-0.00059	0	-0.00036	-0.00091	0.00013	-1e-05	-0.00041	-0.00098	2
4532	-0.00059	0	-0.00036	-0.00091	0.00013	-1e-05	-0.00041	-0.00098	2
4533	-0.00059	0	-0.00036	-0.00091	0.00013	-1e-05	-0.00041	-0.00098	2
4534	-0.00059	0	-0.00036	-0.00091	0.00013	-1e-05	-0.00041	-0.00098	2
4535	-0.00059	0	-0.00036	-0.00091	0.00013	-1e-05	-0.00041	-0.00098	2
4536	-0.00128	0.00011	-0.00012	-0.00029	1e-05	-6e-05	-0.00071	-0.00076	2
4538	-0.00128	0.00011	-0.00012	-0.00029	1e-05	-6e-05	-0.00071	-0.00076	2
4539	-0.00128	0.00011	-0.00012	-0.00029	1e-05	-6e-05	-0.00071	-0.00076	2
4540	-0.00128	0.00011	-0.00012	-0.00029	1e-05	-6e-05	-0.00071	-0.00076	2
4541	-0.00128	0.00011	-0.00012	-0.00029	1e-05	-6e-05	-0.00071	-0.00076	2
4542	-0.00128	0.00011	-0.00012	-0.00029	1e-05	-6e-05	-0.00071	-0.00076	2
4543	-0.00128	0.00011	-0.00012	-0.00029	1e-05	-6e-05	-0.00071	-0.00076	2
4544	0.00079	-0.0002	0.00017	0.00032	-0.00057	-0.00024	0.0001	0.00026	2
4545	0.00079	-0.0002	0.00017	0.00032	-0.00057	-0.00024	0.0001	0.00026	2
4546	0.00079	-0.0002	0.00017	0.00032	-0.00057	-0.00024	0.0001	0.00026	2
4547	0.00079	-0.0002	0.00017	0.00032	-0.00057	-0.00024	0.0001	0.00026	2
4548	0.00079	-0.0002	0.00017	0.00032	-0.00057	-0.00024	0.0001	0.00026	2
4549	0.00079	-0.0002	0.00017	0.00032	-0.00057	-0.00024	0.0001	0.00026	2
4550	0.00079	-0.0002	0.00017	0.00032	-0.00057	-0.00024	0.0001	0.00026	2
4551	0.00079	-0.0002	0.00017	0.00032	-0.00057	-0.00024	0.0001	0.00026	2
4552	0.00079	-0.0002	0.00017	0.00032	-0.00057	-0.00024	0.0001	0.00026	2
4553	-0.00013	0	-3e-05	-0.00027	-0.00024	0.00011	0.00038	0.00043	2
4554	-0.00013	0	-3e-05	-0.00027	-0.00024	0.00011	0.00038	0.00043	2
4555	-0.00013	0	-3e-05	-0.00027	-0.00024	0.00011	0.00038	0.00043	2
4556	-0.00013	0	-3e-05	-0.00027	-0.00024	0.00011	0.00038	0.00043	2
4557	-0.00013	0	-3e-05	-0.00027	-0.00024	0.00011	0.00038	0.00043	2
4558	-0.00013	0	-3e-05	-0.00027	-0.00024	0.00011	0.00038	0.00043	2
4559	-0.00013	0	-3e-05	-0.00027	-0.00024	0.00011	0.00038	0.00043	2
4560	-0.00013	0	-3e-05	-0.00027	-0.00024	0.00011	0.00038	0.00043	2
4561	-0.00013	0	-3e-05	-0.00027	-0.00024	0.00011	0.00038	0.00043	2
4562	-0.00013	0	-3e-05	-0.00027	-0.00024	0.00011	0.00038	0.00043	2
4563	-0.00013	0	-3e-05	-0.00027	-0.00024	0.00011	0.00038	0.00043	2
4564	-0.00013	0	-3e-05	-0.00027	-0.00024	0.00011	0.00038	0.00043	2
4565	-0.00013	0	-3e-05	-0.00027	-0.00024	0.00011	0.00038	0.00043	2
4566	-0.00013	0	-3e-05	-0.00027	-0.00024	0.00011	0.00038	0.00043	2
4567	-0.00013	0	-3e-05	-0.00027	-0.00024	0.00011	0.00038	0.00043	2
4568	0.00011	-0.00097	-0.00017	-0.00046	-0.00015	-0.00022	0.00022	0.00036	2
4569	0.00082	-0.00048	-2e-05	-0.00033	0.0001	0.00016	-2e-05	0.00022	2
4570	0.00082	-0.00048	-2e-05	-0.00033	0.0001	0.00016	-2e-05	0.00022	2
4571	0.00082	-0.00048	-2e-05	-0.00033	0.0001	0.00016	-2e-05	0.00022	2
4572	0.00082	-0.00048	-2e-05	-0.00033	0.0001	0.00016	-2e-05	0.00022	2
4573	0.00082	-0.00048	-2e-05	-0.00033	0.0001	0.00016	-2e-05	0.00022	2
4574	0.00082	-0.00048	-2e-05	-0.00033	0.0001	0.00016	-2e-05	0.00022	2
4575	0.00082	-0.00048	-2e-05	-0.00033	0.0001	0.00016	-2e-05	0.00022	2
4576	0.00082	-0.00048	-2e-05	-0.00033	0.0001	0.00016	-2e-05	0.00022	2
4577	0.00082	-0.00048	-2e-05	-0.00033	0.0001	0.00016	-2e-05	0.00022	2
4578	0.00082	-0.00048	-2e-05	-0.00033	0.0001	0.00016	-2e-05	0.00022	2
4579	0.00082	-0.00048	-2e-05	-0.00033	0.0001	0.00016	-2e-05	0.00022	2
4580	0.00082	-0.00048	-2e-05	-0.00033	0.0001	0.00016	-2e-05	0.00022	2
4581	0.00082	-0.00048	-2e-05	-0.00033	0.0001	0.00016	-2e-05	0.00022	2
4582	0.00082	-0.00048	-2e-05	-0.00033	0.0001	0.00016	-2e-05	0.00022	2
4583	0.00082	-0.00048	-2e-05	-0.00033	0.0001	0.00016	-2e-05	0.00022	2
4584	0.00082	-0.00048	-2e-05	-0.00033	0.0001	0.00016	-2e-05	0.00022	2
4585	0.00082	-0.00048	-2e-05	-0.00033	0.0001	0.00016	-2e-05	0.00022	2
4586	0.00082	-0.00048	-2e-05	-0.00033	0.0001	0.00016	-2e-05	0.00022	2
4588	0.00082	-0.00048	-2e-05	-0.00033	0.0001	0.00016	-2e-05	0.00022	2
4589	0.00082	-0.00048	-2e-05	-0.00033	0.0001	0.00016	-2e-05	0.00022	2
4590	0.00082	-0.00048	-2e-05	-0.00033	0.0001	0.00016	-2e-05	0.00022	2
4591	0.00082	-0.00048	-2e-05	-0.00033	0.0001	0.00016	-2e-05	0.00022	2
4592	0.00082	-0.00048	-2e-05	-0.00033	0.0001	0.00016	-2e-05	0.00022	2
4593	0.00082	-0.00048	-2e-05	-0.00033	0.0001	0.00016	-2e-05	0.00022	2
4594	0.00082	-0.00048	-2e-05	-0.00033	0.0001	0.00016	-2e-05	0.00022	2
4595	0.00082	-0.00048	-2e-05	-0.00033	0.0001	0.00016	-2e-05	0.00022	2
4596	0.00082	-0.00048	-2e-05	-0.00033	0.0001	0.00016	-2e-05	0.00022	2
4597	0.00082	-0.00048	-2e-05	-0.00033	0.0001	0.00016	-2e-05	0.00022	2
4598	0.00062	0.00019	-5e-05	-0.00026	0.00012	-0.00021	-0.00014	-0.00012	2
4599	-6e-05	3e-05	1e-05	0.0002	0.00065	1e-05	0.00037	0.00068	2
4600	-6e-05	3e-05	1e-05	0.0002	0.00065	1e-05	0.00037	0.00068	2
4601	-6e-05	3e-05	1e-05	0.0002	0.00065	1e-05	0.00037	0.00068	2
4602	-6e-05	3e-05	1e-05	0.0002	0.00065	1e-05	0.00037	0.00068	2
4603	-6e-05	3e-05	1e-05	0.0002	0.00065	1e-05	0.00037	0.00068	2
4604	-0.00067	0.00087	0.00028	0.00042	9e-05	0.00053	0.00017	1e-05	2
4605	-0.00067	0.00087	0.00028	0.00042	9e-05	0.00053	0.00017	1e-05	2
4606	-0.00067	0.00087	0.00028	0.00042	9e-05	0.00053	0.00017	1e-05	2
4607	-0.00067	0.00087	0.00028	0.00042	9e-05	0.00053	0.00017	1e-05	2
4608	-0.00067	0.00087	0.00028	0.00042	9e-05	0.00053	0.00017	1e-05	2
4609	-0.00067	0.00087	0.00028	0.00042	9e-05	0.00053	0.00017	1e-05	2
4610	-0.00067	0.00087	0.00028	0.00042	9e-05	0.00053	0.00017	1e-05	2
4611	-0.00067	0.00087	0.00028	0.00042	9e-05	0.00053	0.00017	1e-05	2
4612	-0.00067	0.00087	0.00028	0.00042	9e-05	0.00053	0.00017	1e-05	2
4613	-0.00036	0.00118	0.00021	-0.00042	0.00016	6e-05	0.00042	0.00031	2
4614	-0.00036	0.00118	0.00021	-0.00042	0.00016	6e-05	0.00042	0.00031	2
4615	-0.00036	0.00118	0.00021	-0.00042	0.00016	6e-05	0.00042	0.00031	2
4616	-0.00036	0.00118	0.00021	-0.00042	0.00016	6e-05	0.00042	0.00031	2
4617	-0.00036	0.00118	0.00021	-0.00042	0.00016	6e-05	0.00042	0.00031	2
4618	-0.00036	0.00118	0.00021	-0.00042	0.00016	6e-05	0.00042	0.00031	2
4619	-0.00036	0.00118	0.00021	-0.00042	0.00016	6e-05	0.00042	0.00031	2
4620	-0.00036	0.00118	0.00021	-0.00042	0.00016	6e-05	0.00042	0.00031	2
4621	-0.00036	0.00118	0.00021	-0.00042	0.00016	6e-05	0.00042	0.00031	2
4622	-0.00036	0.00118	0.00021	-0.00042	0.00016	6e-05	0.00042	0.00031	2
4623	-0.00036	0.00118	0.00021	-0.00042	0.00016	6e-05	0.00042	0.00031	2
4624	-0.00036	0.00118	0.00021	-0.00042	0.00016	6e-05	0.00042	0.00031	2
4625	-0.00036	0.00118	0.00021	-0.00042	0.00016	6e-05	0.00042	0.00031	2
4626	-0.00036	0.00118	0.00021	-0.00042	0.00016	6e-05	0.00042	0.00031	2
4627	-0.00036	0.00118	0.00021	-0.00042	0.00016	6e-05	0.00042	0.00031	2
4628	-0.00017	-0.00067	2e-05	-8e-05	6e-05	6e-05	5e-05	0.0003	2
4629	0.00093	-0.00027	-0.00019	-0.00013	0.0001	8e-05	-7e-05	0.00011	2
4630	0.00093	-0.00027	-0.00019	-0.00013	0.0001	8e-05	-7e-05	0.00011	2
4631	0.00093	-0.00027	-0.00019	-0.00013	0.0001	8e-05	-7e-05	0.00011	2
4632	0.00093	-0.00027	-0.00019	-0.00013	0.0001	8e-05	-7e-05	0.00011	2
4633	0.00093	-0.00027	-0.00019	-0.00013	0.0001	8e-05	-7e-05	0.00011	2
4634	0.00093	-0.00027	-0.00019	-0.00013	0.0001	8e-05	-7e-05	0.00011	2
4635	0.00093	-0.00027	-0.00019	-0.00013	0.0001	8e-05	-7e-05	0.00011	2
4636	0.00093	-0.00027	-0.00019	-0.00013	0.0001	8e-05	-7e-05	0.00011	2
4638	0.00093	-0.00027	-0.00019	-0.00013	0.0001	8e-05	-7e-05	0.00011	2
4639	0.00093	-0.00027	-0.00019	-0.00013	0.0001	8e-05	-7e-05	0.00011	2
4640	0.00093	-0.00027	-0.00019	-0.00013	0.0001	8e-05	-7e-05	0.00011	2
4641	0.00093	-0.00027	-0.00019	-0.00013	0.0001	8e-05	-7e-05	0.00011	2
4642	0.00093	-0.00027	-0.00019	-0.00013	0.0001	8e-05	-7e-05	0.00011	2
4643	0.00093	-0.00027	-0.00019	-0.00013	0.0001	8e-05	-7e-05	0.00011	2
4644	0.00093	-0.00027	-0.00019	-0.00013	0.0001	8e-05	-7e-05	0.00011	2
4645	0.00093	-0.00027	-0.00019	-0.00013	0.0001	8e-05	-7e-05	0.00011	2
4646	0.00093	-0.00027	-0.00019	-0.00013	0.0001	8e-05	-7e-05	0.00011	2
4647	0.00093	-0.00027	-0.00019	-0.00013	0.0001	8e-05	-7e-05	0.00011	2
4648	0.00093	-0.00027	-0.00019	-0.00013	0.0001	8e-05	-7e-05	0.00011	2
4649	0.00093	-0.00027	-0.00019	-0.00013	0.0001	8e-05	-7e-05	0.00011	2
4650	0.00093	-0.00027	-0.00019	-0.00013	0.0001	8e-05	-7e-05	0.00011	2
4651	0.00106	0.00031	2e-05	0.00016	-0.00015	-0.00028	-0.00026	0	2
4652	0.00106	0.00031	2e-05	0.00016	-0.00015	-0.00028	-0.00026	0	2
4653	0.00106	0.00031	2e-05	0.00016	-0.00015	-0.00028	-0.00026	0	2
4654	0.00106	0.00031	2e-05	0.00016	-0.00015	-0.00028	-0.00026	0	2
4655	0.00106	0.00031	2e-05	0.00016	-0.00015	-0.00028	-0.00026	0	2
4656	0.00113	-0.00096	-4e-05	1e-05	-0.00045	0	0.0002	0.00023	2
4657	0.00113	-0.00096	-4e-05	1e-05	-0.00045	0	0.0002	0.00023	2
4658	0.00113	-0.00096	-4e-05	1e-05	-0.00045	0	0.0002	0.00023	2
4659	0.00113	-0.00096	-4e-05	1e-05	-0.00045	0	0.0002	0.00023	2
4660	0.00113	-0.00096	-4e-05	1e-05	-0.00045	0	0.0002	0.00023	2
4661	0.00113	-0.00096	-4e-05	1e-05	-0.00045	0	0.0002	0.00023	2
4662	0.00113	-0.00096	-4e-05	1e-05	-0.00045	0	0.0002	0.00023	2
4663	0.00113	-0.00096	-4e-05	1e-05	-0.00045	0	0.0002	0.00023	2
4664	0.00127	-0.00028	-0.00027	-0.0002	0.0003	-0.0001	-0.00036	-0.0003	2
4665	0.00127	-0.00028	-0.00027	-0.0002	0.0003	-0.0001	-0.00036	-0.0003	2
4666	0.00127	-0.00028	-0.00027	-0.0002	0.0003	-0.0001	-0.00036	-0.0003	2
4667	0.00127	-0.00028	-0.00027	-0.0002	0.0003	-0.0001	-0.00036	-0.0003	2
4668	0.00127	-0.00028	-0.00027	-0.0002	0.0003	-0.0001	-0.00036	-0.0003	2
4669	0.00127	-0.00028	-0.00027	-0.0002	0.0003	-0.0001	-0.00036	-0.0003	2
4670	0.00127	-0.00028	-0.00027	-0.0002	0.0003	-0.0001	-0.00036	-0.0003	2
4671	0.00127	-0.00028	-0.00027	-0.0002	0.0003	-0.0001	-0.00036	-0.0003	2
4672	0.00127	-0.00028	-0.00027	-0.0002	0.0003	-0.0001	-0.00036	-0.0003	2
4673	0.00117	-0.00044	-0.00015	0	0.00021	-9e-05	-7e-05	-2e-05	2
4674	0.00117	-0.00044	-0.00015	0	0.00021	-9e-05	-7e-05	-2e-05	2
4675	0.00117	-0.00044	-0.00015	0	0.00021	-9e-05	-7e-05	-2e-05	2
4676	0.00117	-0.00044	-0.00015	0	0.00021	-9e-05	-7e-05	-2e-05	2
4677	0.00117	-0.00044	-0.00015	0	0.00021	-9e-05	-7e-05	-2e-05	2
4678	0.00117	-0.00044	-0.00015	0	0.00021	-9e-05	-7e-05	-2e-05	2
4679	0.00117	-0.00044	-0.00015	0	0.00021	-9e-05	-7e-05	-2e-05	2
4680	0.00117	-0.00044	-0.00015	0	0.00021	-9e-05	-7e-05	-2e-05	2
4681	0.00117	-0.00044	-0.00015	0	0.00021	-9e-05	-7e-05	-2e-05	2
4682	0.00117	-0.00044	-0.00015	0	0.00021	-9e-05	-7e-05	-2e-05	2
4683	0.00117	-0.00044	-0.00015	0	0.00021	-9e-05	-7e-05	-2e-05	2
4684	0.00117	-0.00044	-0.00015	0	0.00021	-9e-05	-7e-05	-2e-05	2
4685	0.00117	-0.00044	-0.00015	0	0.00021	-9e-05	-7e-05	-2e-05	2
4686	0.00117	-0.00044	-0.00015	0	0.00021	-9e-05	-7e-05	-2e-05	2
4688	-0.00017	-5e-05	-0.00033	-0.00056	0.00017	-0.00023	-0.00013	0	2
4689	-0.00099	0.00083	8e-05	0.00021	-0.00028	-0.00034	-0.00046	-0.00064	2
4690	-0.00099	0.00083	8e-05	0.00021	-0.00028	-0.00034	-0.00046	-0.00064	2
4691	-0.00099	0.00083	8e-05	0.00021	-0.00028	-0.00034	-0.00046	-0.00064	2
4692	-0.00099	0.00083	8e-05	0.00021	-0.00028	-0.00034	-0.00046	-0.00064	2
4693	-0.00099	0.00083	8e-05	0.00021	-0.00028	-0.00034	-0.00046	-0.00064	2
4694	-0.00099	0.00083	8e-05	0.00021	-0.00028	-0.00034	-0.00046	-0.00064	2
4695	-0.00099	0.00083	8e-05	0.00021	-0.00028	-0.00034	-0.00046	-0.00064	2
4696	-0.00099	0.00083	8e-05	0.00021	-0.00028	-0.00034	-0.00046	-0.00064	2
4697	-0.00099	0.00083	8e-05	0.00021	-0.00028	-0.00034	-0.00046	-0.00064	2
4698	-0.00099	0.00083	8e-05	0.00021	-0.00028	-0.00034	-0.00046	-0.00064	2
4699	-0.00099	0.00083	8e-05	0.00021	-0.00028	-0.00034	-0.00046	-0.00064	2
4700	-0.00099	0.00083	8e-05	0.00021	-0.00028	-0.00034	-0.00046	-0.00064	2
4701	-0.00099	0.00083	8e-05	0.00021	-0.00028	-0.00034	-0.00046	-0.00064	2
4702	-0.00099	0.00083	8e-05	0.00021	-0.00028	-0.00034	-0.00046	-0.00064	2
4703	-0.00099	0.00083	8e-05	0.00021	-0.00028	-0.00034	-0.00046	-0.00064	2
4704	-0.00099	0.00083	8e-05	0.00021	-0.00028	-0.00034	-0.00046	-0.00064	2
4705	-0.00099	0.00083	8e-05	0.00021	-0.00028	-0.00034	-0.00046	-0.00064	2
4706	-0.00099	0.00083	8e-05	0.00021	-0.00028	-0.00034	-0.00046	-0.00064	2
4707	-0.00099	0.00083	8e-05	0.00021	-0.00028	-0.00034	-0.00046	-0.00064	2
4708	-0.00099	0.00083	8e-05	0.00021	-0.00028	-0.00034	-0.00046	-0.00064	2
4709	-0.00099	0.00083	8e-05	0.00021	-0.00028	-0.00034	-0.00046	-0.00064	2
4710	-0.00128	-0.00047	-4e-05	-0.00011	3e-05	0	-0.0005	-0.00076	2
4711	-0.00128	-0.00047	-4e-05	-0.00011	3e-05	0	-0.0005	-0.00076	2
4712	0.00065	-0.00066	4e-05	0.0002	0.00014	0.00034	0.00044	0.00072	2
4714	0.00065	-0.00066	4e-05	0.0002	0.00014	0.00034	0.00044	0.00072	2
4715	0.00065	-0.00066	4e-05	0.0002	0.00014	0.00034	0.00044	0.00072	2
4716	0.00065	-0.00066	4e-05	0.0002	0.00014	0.00034	0.00044	0.00072	2
4717	0.00065	-0.00066	4e-05	0.0002	0.00014	0.00034	0.00044	0.00072	2
4718	0.00065	-0.00066	4e-05	0.0002	0.00014	0.00034	0.00044	0.00072	2
4719	0.00065	-0.00066	4e-05	0.0002	0.00014	0.00034	0.00044	0.00072	2
4720	0.00065	-0.00066	4e-05	0.0002	0.00014	0.00034	0.00044	0.00072	2
4721	0.00065	-0.00066	4e-05	0.0002	0.00014	0.00034	0.00044	0.00072	2
4722	0.00065	-0.00066	4e-05	0.0002	0.00014	0.00034	0.00044	0.00072	2
4723	0.00065	-0.00066	4e-05	0.0002	0.00014	0.00034	0.00044	0.00072	2
4724	0.00112	-0.00046	-9e-05	0.00031	0.0006	-0.00021	0.00026	0.00036	2
4725	0.00112	-0.00046	-9e-05	0.00031	0.0006	-0.00021	0.00026	0.00036	2
4726	0.00112	-0.00046	-9e-05	0.00031	0.0006	-0.00021	0.00026	0.00036	2
4727	0.00112	-0.00046	-9e-05	0.00031	0.0006	-0.00021	0.00026	0.00036	2
4728	0.00112	-0.00046	-9e-05	0.00031	0.0006	-0.00021	0.00026	0.00036	2
4729	0.00112	-0.00046	-9e-05	0.00031	0.0006	-0.00021	0.00026	0.00036	2
4730	0.00112	-0.00046	-9e-05	0.00031	0.0006	-0.00021	0.00026	0.00036	2
4731	0.00112	-0.00046	-9e-05	0.00031	0.0006	-0.00021	0.00026	0.00036	2
4732	0.00112	-0.00046	-9e-05	0.00031	0.0006	-0.00021	0.00026	0.00036	2
4733	0.00016	-0.00036	0	-5e-05	-0.0004	-2e-05	-0.00046	-0.00067	2
4734	0.00016	-0.00036	0	-5e-05	-0.0004	-2e-05	-0.00046	-0.00067	2
4735	0.00016	-0.00036	0	-5e-05	-0.0004	-2e-05	-0.00046	-0.00067	2
4736	0.00016	-0.00036	0	-5e-05	-0.0004	-2e-05	-0.00046	-0.00067	2
4738	0.00016	-0.00036	0	-5e-05	-0.0004	-2e-05	-0.00046	-0.00067	2
4739	0.00016	-0.00036	0	-5e-05	-0.0004	-2e-05	-0.00046	-0.00067	2
4740	0.00016	-0.00036	0	-5e-05	-0.0004	-2e-05	-0.00046	-0.00067	2
4741	0.00016	-0.00036	0	-5e-05	-0.0004	-2e-05	-0.00046	-0.00067	2
4742	0.00016	-0.00036	0	-5e-05	-0.0004	-2e-05	-0.00046	-0.00067	2
4743	0.00016	-0.00036	0	-5e-05	-0.0004	-2e-05	-0.00046	-0.00067	2
4744	0.00016	-0.00036	0	-5e-05	-0.0004	-2e-05	-0.00046	-0.00067	2
4745	0.00016	-0.00036	0	-5e-05	-0.0004	-2e-05	-0.00046	-0.00067	2
4746	0.00016	-0.00036	0	-5e-05	-0.0004	-2e-05	-0.00046	-0.00067	2
4747	0.00016	-0.00036	0	-5e-05	-0.0004	-2e-05	-0.00046	-0.00067	2
4748	0.0007	-0.00039	1e-05	0.00019	0.00023	0.00021	0.00051	0.00028	2
4749	-0.00128	0.00034	-1e-05	-0.00018	2e-05	-0.00011	-0.00018	-0.00078	2
4750	-0.00128	0.00034	-1e-05	-0.00018	2e-05	-0.00011	-0.00018	-0.00078	2
4751	-0.00128	0.00034	-1e-05	-0.00018	2e-05	-0.00011	-0.00018	-0.00078	2
4752	-0.00128	0.00034	-1e-05	-0.00018	2e-05	-0.00011	-0.00018	-0.00078	2
4753	-0.00128	0.00034	-1e-05	-0.00018	2e-05	-0.00011	-0.00018	-0.00078	2
4754	-0.00128	0.00034	-1e-05	-0.00018	2e-05	-0.00011	-0.00018	-0.00078	2
4755	-0.00128	0.00034	-1e-05	-0.00018	2e-05	-0.00011	-0.00018	-0.00078	2
4756	-0.00128	0.00034	-1e-05	-0.00018	2e-05	-0.00011	-0.00018	-0.00078	2
4757	-0.00128	0.00034	-1e-05	-0.00018	2e-05	-0.00011	-0.00018	-0.00078	2
4758	-0.00128	0.00034	-1e-05	-0.00018	2e-05	-0.00011	-0.00018	-0.00078	2
4759	-0.00128	0.00034	-1e-05	-0.00018	2e-05	-0.00011	-0.00018	-0.00078	2
4760	-0.00128	0.00034	-1e-05	-0.00018	2e-05	-0.00011	-0.00018	-0.00078	2
4761	-0.00128	0.00034	-1e-05	-0.00018	2e-05	-0.00011	-0.00018	-0.00078	2
4762	-0.00128	0.00034	-1e-05	-0.00018	2e-05	-0.00011	-0.00018	-0.00078	2
4763	-0.00128	0.00034	-1e-05	-0.00018	2e-05	-0.00011	-0.00018	-0.00078	2
4764	-0.00128	0.00034	-1e-05	-0.00018	2e-05	-0.00011	-0.00018	-0.00078	2
4765	-0.00128	0.00034	-1e-05	-0.00018	2e-05	-0.00011	-0.00018	-0.00078	2
4766	-0.00128	0.00034	-1e-05	-0.00018	2e-05	-0.00011	-0.00018	-0.00078	2
4767	-0.00128	0.00034	-1e-05	-0.00018	2e-05	-0.00011	-0.00018	-0.00078	2
4768	-0.00128	0.00034	-1e-05	-0.00018	2e-05	-0.00011	-0.00018	-0.00078	2
4769	-0.00128	0.00034	-1e-05	-0.00018	2e-05	-0.00011	-0.00018	-0.00078	2
4770	-0.00128	0.00038	7e-05	0.0002	-0.00024	0.00018	-9e-05	-0.00016	2
4771	-0.00128	0.00038	7e-05	0.0002	-0.00024	0.00018	-9e-05	-0.00016	2
4772	-0.00107	0.00101	0.00039	0.0004	9e-05	0.00039	0.0005	0.001	2
4773	-0.00107	0.00101	0.00039	0.0004	9e-05	0.00039	0.0005	0.001	2
4774	-0.00107	0.00101	0.00039	0.0004	9e-05	0.00039	0.0005	0.001	2
4775	-0.00107	0.00101	0.00039	0.0004	9e-05	0.00039	0.0005	0.001	2
4776	-0.00107	0.00101	0.00039	0.0004	9e-05	0.00039	0.0005	0.001	2
4777	-0.00107	0.00101	0.00039	0.0004	9e-05	0.00039	0.0005	0.001	2
4778	-0.00107	0.00101	0.00039	0.0004	9e-05	0.00039	0.0005	0.001	2
4779	-0.00107	0.00101	0.00039	0.0004	9e-05	0.00039	0.0005	0.001	2
4780	-0.00107	0.00101	0.00039	0.0004	9e-05	0.00039	0.0005	0.001	2
4781	-0.00107	0.00101	0.00039	0.0004	9e-05	0.00039	0.0005	0.001	2
4782	-0.00107	0.00101	0.00039	0.0004	9e-05	0.00039	0.0005	0.001	2
4783	-0.00107	0.00101	0.00039	0.0004	9e-05	0.00039	0.0005	0.001	2
4784	0.00023	0.00029	0.0002	0.00053	-0.00028	-8e-05	0	0.00021	2
4785	0.00023	0.00029	0.0002	0.00053	-0.00028	-8e-05	0	0.00021	2
4786	0.00023	0.00029	0.0002	0.00053	-0.00028	-8e-05	0	0.00021	2
4788	0.00023	0.00029	0.0002	0.00053	-0.00028	-8e-05	0	0.00021	2
4789	0.00023	0.00029	0.0002	0.00053	-0.00028	-8e-05	0	0.00021	2
4790	0.00023	0.00029	0.0002	0.00053	-0.00028	-8e-05	0	0.00021	2
4791	0.00023	0.00029	0.0002	0.00053	-0.00028	-8e-05	0	0.00021	2
4792	0.00023	0.00029	0.0002	0.00053	-0.00028	-8e-05	0	0.00021	2
4793	0.00029	-1e-05	-7e-05	-1e-05	0.0006	0.00025	-2e-05	0.00017	2
4794	0.00029	-1e-05	-7e-05	-1e-05	0.0006	0.00025	-2e-05	0.00017	2
4795	0.00029	-1e-05	-7e-05	-1e-05	0.0006	0.00025	-2e-05	0.00017	2
4796	0.00029	-1e-05	-7e-05	-1e-05	0.0006	0.00025	-2e-05	0.00017	2
4797	0.00029	-1e-05	-7e-05	-1e-05	0.0006	0.00025	-2e-05	0.00017	2
4798	0.00029	-1e-05	-7e-05	-1e-05	0.0006	0.00025	-2e-05	0.00017	2
4799	0.00029	-1e-05	-7e-05	-1e-05	0.0006	0.00025	-2e-05	0.00017	2
4800	0.00029	-1e-05	-7e-05	-1e-05	0.0006	0.00025	-2e-05	0.00017	2
4801	0.00029	-1e-05	-7e-05	-1e-05	0.0006	0.00025	-2e-05	0.00017	2
4802	0.00029	-1e-05	-7e-05	-1e-05	0.0006	0.00025	-2e-05	0.00017	2
4803	0.00029	-1e-05	-7e-05	-1e-05	0.0006	0.00025	-2e-05	0.00017	2
4804	0.00029	-1e-05	-7e-05	-1e-05	0.0006	0.00025	-2e-05	0.00017	2
4805	0.00029	-1e-05	-7e-05	-1e-05	0.0006	0.00025	-2e-05	0.00017	2
4806	0.00029	-1e-05	-7e-05	-1e-05	0.0006	0.00025	-2e-05	0.00017	2
4807	0.00029	-1e-05	-7e-05	-1e-05	0.0006	0.00025	-2e-05	0.00017	2
4808	-0.00047	-0.0004	-1e-05	0.00014	-0.00031	0.00014	0.00043	0.00035	2
4809	-0.00056	-0.00033	-2e-05	0.00013	-0.00045	-0.0003	-1e-05	0.00039	2
4810	-0.00056	-0.00033	-2e-05	0.00013	-0.00045	-0.0003	-1e-05	0.00039	2
4811	-0.00056	-0.00033	-2e-05	0.00013	-0.00045	-0.0003	-1e-05	0.00039	2
4812	-0.00056	-0.00033	-2e-05	0.00013	-0.00045	-0.0003	-1e-05	0.00039	2
4813	-0.00056	-0.00033	-2e-05	0.00013	-0.00045	-0.0003	-1e-05	0.00039	2
4814	-0.00056	-0.00033	-2e-05	0.00013	-0.00045	-0.0003	-1e-05	0.00039	2
4815	-0.00056	-0.00033	-2e-05	0.00013	-0.00045	-0.0003	-1e-05	0.00039	2
4816	-0.00056	-0.00033	-2e-05	0.00013	-0.00045	-0.0003	-1e-05	0.00039	2
4817	-0.00056	-0.00033	-2e-05	0.00013	-0.00045	-0.0003	-1e-05	0.00039	2
4818	-0.00056	-0.00033	-2e-05	0.00013	-0.00045	-0.0003	-1e-05	0.00039	2
4819	-0.00056	-0.00033	-2e-05	0.00013	-0.00045	-0.0003	-1e-05	0.00039	2
4820	-0.00056	-0.00033	-2e-05	0.00013	-0.00045	-0.0003	-1e-05	0.00039	2
4821	-0.00056	-0.00033	-2e-05	0.00013	-0.00045	-0.0003	-1e-05	0.00039	2
4822	-0.00056	-0.00033	-2e-05	0.00013	-0.00045	-0.0003	-1e-05	0.00039	2
4823	-0.00056	-0.00033	-2e-05	0.00013	-0.00045	-0.0003	-1e-05	0.00039	2
4824	-0.00056	-0.00033	-2e-05	0.00013	-0.00045	-0.0003	-1e-05	0.00039	2
4825	-0.00056	-0.00033	-2e-05	0.00013	-0.00045	-0.0003	-1e-05	0.00039	2
4826	-0.00056	-0.00033	-2e-05	0.00013	-0.00045	-0.0003	-1e-05	0.00039	2
4827	-0.00056	-0.00033	-2e-05	0.00013	-0.00045	-0.0003	-1e-05	0.00039	2
4828	-0.00056	-0.00033	-2e-05	0.00013	-0.00045	-0.0003	-1e-05	0.00039	2
4829	-0.00056	-0.00033	-2e-05	0.00013	-0.00045	-0.0003	-1e-05	0.00039	2
4830	0.00127	-0.00056	-3e-05	-2e-05	-0.00014	0.00011	0.0005	0.00046	2
4831	0.00127	-0.00056	-3e-05	-2e-05	-0.00014	0.00011	0.0005	0.00046	2
4832	0.00112	-0.00097	-0.00011	6e-05	-0.00013	-0.0002	0.00029	-0.00052	2
4833	0.00112	-0.00097	-0.00011	6e-05	-0.00013	-0.0002	0.00029	-0.00052	2
4834	0.00112	-0.00097	-0.00011	6e-05	-0.00013	-0.0002	0.00029	-0.00052	2
4835	0.00112	-0.00097	-0.00011	6e-05	-0.00013	-0.0002	0.00029	-0.00052	2
4836	0.00112	-0.00097	-0.00011	6e-05	-0.00013	-0.0002	0.00029	-0.00052	2
4838	0.00112	-0.00097	-0.00011	6e-05	-0.00013	-0.0002	0.00029	-0.00052	2
4839	0.00112	-0.00097	-0.00011	6e-05	-0.00013	-0.0002	0.00029	-0.00052	2
4840	0.00112	-0.00097	-0.00011	6e-05	-0.00013	-0.0002	0.00029	-0.00052	2
4841	0.00112	-0.00097	-0.00011	6e-05	-0.00013	-0.0002	0.00029	-0.00052	2
4842	0.00112	-0.00097	-0.00011	6e-05	-0.00013	-0.0002	0.00029	-0.00052	2
4843	0.00112	-0.00097	-0.00011	6e-05	-0.00013	-0.0002	0.00029	-0.00052	2
4844	0.00112	-0.00097	-0.00011	6e-05	-0.00013	-0.0002	0.00029	-0.00052	2
4845	0.00112	-0.00097	-0.00011	6e-05	-0.00013	-0.0002	0.00029	-0.00052	2
4846	0.00112	-0.00097	-0.00011	6e-05	-0.00013	-0.0002	0.00029	-0.00052	2
4847	0.00112	-0.00097	-0.00011	6e-05	-0.00013	-0.0002	0.00029	-0.00052	2
4848	0.00112	-0.00097	-0.00011	6e-05	-0.00013	-0.0002	0.00029	-0.00052	2
4849	0.00112	-0.00097	-0.00011	6e-05	-0.00013	-0.0002	0.00029	-0.00052	2
4850	0.00112	-0.00097	-0.00011	6e-05	-0.00013	-0.0002	0.00029	-0.00052	2
4851	0.00112	-0.00097	-0.00011	6e-05	-0.00013	-0.0002	0.00029	-0.00052	2
4852	0.00112	-0.00097	-0.00011	6e-05	-0.00013	-0.0002	0.00029	-0.00052	2
4853	-0.00112	-0.00032	-4e-05	-0.00031	-0.0003	-0.0002	-0.00076	-0.00091	2
4854	-0.0009	0.00064	0.00014	-4e-05	0.00055	0.00035	0.00037	0.00025	2
4855	-0.0009	0.00064	0.00014	-4e-05	0.00055	0.00035	0.00037	0.00025	2
4856	-0.0009	0.00064	0.00014	-4e-05	0.00055	0.00035	0.00037	0.00025	2
4857	-0.0009	0.00064	0.00014	-4e-05	0.00055	0.00035	0.00037	0.00025	2
4858	-0.0009	0.00064	0.00014	-4e-05	0.00055	0.00035	0.00037	0.00025	2
4859	-0.0009	0.00064	0.00014	-4e-05	0.00055	0.00035	0.00037	0.00025	2
4860	-0.0009	0.00064	0.00014	-4e-05	0.00055	0.00035	0.00037	0.00025	2
4861	-0.0009	0.00064	0.00014	-4e-05	0.00055	0.00035	0.00037	0.00025	2
4862	-0.0009	0.00064	0.00014	-4e-05	0.00055	0.00035	0.00037	0.00025	2
4863	-0.0009	0.00064	0.00014	-4e-05	0.00055	0.00035	0.00037	0.00025	2
4864	-0.0009	0.00064	0.00014	-4e-05	0.00055	0.00035	0.00037	0.00025	2
4865	-0.0009	0.00064	0.00014	-4e-05	0.00055	0.00035	0.00037	0.00025	2
4866	-0.0009	0.00064	0.00014	-4e-05	0.00055	0.00035	0.00037	0.00025	2
4867	-0.00062	0.00022	-0.00016	-0.00036	0.00063	0.00039	8e-05	-0.00024	2
4868	-0.00062	0.00022	-0.00016	-0.00036	0.00063	0.00039	8e-05	-0.00024	2
4869	-0.00062	0.00022	-0.00016	-0.00036	0.00063	0.00039	8e-05	-0.00024	2
4870	-0.00062	0.00022	-0.00016	-0.00036	0.00063	0.00039	8e-05	-0.00024	2
4871	-0.00062	0.00022	-0.00016	-0.00036	0.00063	0.00039	8e-05	-0.00024	2
4872	-0.00062	0.00022	-0.00016	-0.00036	0.00063	0.00039	8e-05	-0.00024	2
4873	-0.00062	0.00022	-0.00016	-0.00036	0.00063	0.00039	8e-05	-0.00024	2
4874	-5e-05	-2e-05	-5e-05	-0.00045	-0.00035	0	-0.00073	-0.00021	2
4875	-5e-05	-2e-05	-5e-05	-0.00045	-0.00035	0	-0.00073	-0.00021	2
4876	-5e-05	-2e-05	-5e-05	-0.00045	-0.00035	0	-0.00073	-0.00021	2
4877	-5e-05	-2e-05	-5e-05	-0.00045	-0.00035	0	-0.00073	-0.00021	2
4878	-5e-05	-2e-05	-5e-05	-0.00045	-0.00035	0	-0.00073	-0.00021	2
4879	-5e-05	-2e-05	-5e-05	-0.00045	-0.00035	0	-0.00073	-0.00021	2
4880	-5e-05	-2e-05	-5e-05	-0.00045	-0.00035	0	-0.00073	-0.00021	2
4881	-5e-05	-2e-05	-5e-05	-0.00045	-0.00035	0	-0.00073	-0.00021	2
4882	-5e-05	-2e-05	-5e-05	-0.00045	-0.00035	0	-0.00073	-0.00021	2
4883	-5e-05	-2e-05	-5e-05	-0.00045	-0.00035	0	-0.00073	-0.00021	2
4884	-5e-05	-2e-05	-5e-05	-0.00045	-0.00035	0	-0.00073	-0.00021	2
4885	-5e-05	-2e-05	-5e-05	-0.00045	-0.00035	0	-0.00073	-0.00021	2
4886	-5e-05	-2e-05	-5e-05	-0.00045	-0.00035	0	-0.00073	-0.00021	2
4888	-5e-05	-2e-05	-5e-05	-0.00045	-0.00035	0	-0.00073	-0.00021	2
4889	-5e-05	-2e-05	-5e-05	-0.00045	-0.00035	0	-0.00073	-0.00021	2
4890	-0.00043	0.00036	0.0001	0.00013	0.00051	0.00039	0.00034	0.00051	2
4891	-0.00043	0.00036	0.0001	0.00013	0.00051	0.00039	0.00034	0.00051	2
4892	0.00127	-0.00103	-0.00027	3e-05	-4e-05	-2e-05	0.0003	9e-05	2
4893	0.00127	-0.00103	-0.00027	3e-05	-4e-05	-2e-05	0.0003	9e-05	2
4894	0.00127	-0.00103	-0.00027	3e-05	-4e-05	-2e-05	0.0003	9e-05	2
4895	0.00127	-0.00103	-0.00027	3e-05	-4e-05	-2e-05	0.0003	9e-05	2
4896	0.00127	-0.00103	-0.00027	3e-05	-4e-05	-2e-05	0.0003	9e-05	2
4897	0.00127	-0.00103	-0.00027	3e-05	-4e-05	-2e-05	0.0003	9e-05	2
4898	0.00127	-0.00103	-0.00027	3e-05	-4e-05	-2e-05	0.0003	9e-05	2
4899	0.00127	-0.00103	-0.00027	3e-05	-4e-05	-2e-05	0.0003	9e-05	2
4900	0.00127	-0.00103	-0.00027	3e-05	-4e-05	-2e-05	0.0003	9e-05	2
4901	0.00127	-0.00103	-0.00027	3e-05	-4e-05	-2e-05	0.0003	9e-05	2
4902	0.00127	-0.00103	-0.00027	3e-05	-4e-05	-2e-05	0.0003	9e-05	2
4903	0.00127	-0.00103	-0.00027	3e-05	-4e-05	-2e-05	0.0003	9e-05	2
4904	0.00127	-0.00103	-0.00027	3e-05	-4e-05	-2e-05	0.0003	9e-05	2
4905	0.00127	-0.00103	-0.00027	3e-05	-4e-05	-2e-05	0.0003	9e-05	2
4906	0.00127	-0.00103	-0.00027	3e-05	-4e-05	-2e-05	0.0003	9e-05	2
4907	0.00127	-0.00103	-0.00027	3e-05	-4e-05	-2e-05	0.0003	9e-05	2
4908	0.00127	-0.00103	-0.00027	3e-05	-4e-05	-2e-05	0.0003	9e-05	2
4909	0.00127	-0.00103	-0.00027	3e-05	-4e-05	-2e-05	0.0003	9e-05	2
4910	0.00127	-0.00103	-0.00027	3e-05	-4e-05	-2e-05	0.0003	9e-05	2
4911	0.00127	-0.00103	-0.00027	3e-05	-4e-05	-2e-05	0.0003	9e-05	2
4912	0.00127	-0.00103	-0.00027	3e-05	-4e-05	-2e-05	0.0003	9e-05	2
4913	-0.00123	0.00043	8e-05	-0.00037	-0.00011	1e-05	-0.00013	-0.00038	2
4914	-0.00112	-0.00041	-8e-05	7e-05	-0.00015	-6e-05	-0.00019	-0.00054	2
4915	-0.00112	-0.00041	-8e-05	7e-05	-0.00015	-6e-05	-0.00019	-0.00054	2
4916	-0.00112	-0.00041	-8e-05	7e-05	-0.00015	-6e-05	-0.00019	-0.00054	2
4917	-0.00112	-0.00041	-8e-05	7e-05	-0.00015	-6e-05	-0.00019	-0.00054	2
4918	-0.00112	-0.00041	-8e-05	7e-05	-0.00015	-6e-05	-0.00019	-0.00054	2
4919	-0.00112	-0.00041	-8e-05	7e-05	-0.00015	-6e-05	-0.00019	-0.00054	2
4920	-0.00112	-0.00041	-8e-05	7e-05	-0.00015	-6e-05	-0.00019	-0.00054	2
4921	-0.00112	-0.00041	-8e-05	7e-05	-0.00015	-6e-05	-0.00019	-0.00054	2
4922	-0.00112	-0.00041	-8e-05	7e-05	-0.00015	-6e-05	-0.00019	-0.00054	2
4923	-0.00112	-0.00041	-8e-05	7e-05	-0.00015	-6e-05	-0.00019	-0.00054	2
4924	-0.00112	-0.00041	-8e-05	7e-05	-0.00015	-6e-05	-0.00019	-0.00054	2
4925	-0.00112	-0.00041	-8e-05	7e-05	-0.00015	-6e-05	-0.00019	-0.00054	2
4926	-0.00112	-0.00041	-8e-05	7e-05	-0.00015	-6e-05	-0.00019	-0.00054	2
4927	-0.00112	-0.00041	-8e-05	7e-05	-0.00015	-6e-05	-0.00019	-0.00054	2
4928	0.00056	0.00083	0.00017	0.00032	0.0002	1e-05	2e-05	0.00022	2
4929	-0.00021	0.00035	-0.0001	1e-05	0.00099	0.00025	-5e-05	0.00039	2
4931	-0.00021	0.00035	-0.0001	1e-05	0.00099	0.00025	-5e-05	0.00039	2
4932	-0.00021	0.00035	-0.0001	1e-05	0.00099	0.00025	-5e-05	0.00039	2
4933	-0.00021	0.00035	-0.0001	1e-05	0.00099	0.00025	-5e-05	0.00039	2
4934	-0.00021	0.00035	-0.0001	1e-05	0.00099	0.00025	-5e-05	0.00039	2
4935	-0.00021	0.00035	-0.0001	1e-05	0.00099	0.00025	-5e-05	0.00039	2
4936	-0.00021	0.00035	-0.0001	1e-05	0.00099	0.00025	-5e-05	0.00039	2
4938	-0.00021	0.00035	-0.0001	1e-05	0.00099	0.00025	-5e-05	0.00039	2
4939	-0.00021	0.00035	-0.0001	1e-05	0.00099	0.00025	-5e-05	0.00039	2
4940	-0.00021	0.00035	-0.0001	1e-05	0.00099	0.00025	-5e-05	0.00039	2
4941	-0.00021	0.00035	-0.0001	1e-05	0.00099	0.00025	-5e-05	0.00039	2
4942	-0.00021	0.00035	-0.0001	1e-05	0.00099	0.00025	-5e-05	0.00039	2
4943	-0.00021	0.00035	-0.0001	1e-05	0.00099	0.00025	-5e-05	0.00039	2
4944	-0.00021	0.00035	-0.0001	1e-05	0.00099	0.00025	-5e-05	0.00039	2
4945	-0.00021	0.00035	-0.0001	1e-05	0.00099	0.00025	-5e-05	0.00039	2
4946	-0.00021	0.00035	-0.0001	1e-05	0.00099	0.00025	-5e-05	0.00039	2
4947	-0.00021	0.00035	-0.0001	1e-05	0.00099	0.00025	-5e-05	0.00039	2
4948	-0.00021	0.00035	-0.0001	1e-05	0.00099	0.00025	-5e-05	0.00039	2
4949	-0.00021	0.00035	-0.0001	1e-05	0.00099	0.00025	-5e-05	0.00039	2
4950	0.00119	-0.00036	1e-05	9e-05	-0.00015	3e-05	-0.00035	-0.00024	2
4951	0.00119	-0.00036	1e-05	9e-05	-0.00015	3e-05	-0.00035	-0.00024	2
4952	-2e-05	0.0004	5e-05	-0.00012	-0.00054	-0.00021	-1e-05	-2e-05	2
4953	-2e-05	0.0004	5e-05	-0.00012	-0.00054	-0.00021	-1e-05	-2e-05	2
4954	-2e-05	0.0004	5e-05	-0.00012	-0.00054	-0.00021	-1e-05	-2e-05	2
4955	-2e-05	0.0004	5e-05	-0.00012	-0.00054	-0.00021	-1e-05	-2e-05	2
4956	-2e-05	0.0004	5e-05	-0.00012	-0.00054	-0.00021	-1e-05	-2e-05	2
4957	-2e-05	0.0004	5e-05	-0.00012	-0.00054	-0.00021	-1e-05	-2e-05	2
4958	-2e-05	0.0004	5e-05	-0.00012	-0.00054	-0.00021	-1e-05	-2e-05	2
4959	-2e-05	0.0004	5e-05	-0.00012	-0.00054	-0.00021	-1e-05	-2e-05	2
4960	-2e-05	0.0004	5e-05	-0.00012	-0.00054	-0.00021	-1e-05	-2e-05	2
4961	-2e-05	0.0004	5e-05	-0.00012	-0.00054	-0.00021	-1e-05	-2e-05	2
4962	-2e-05	0.0004	5e-05	-0.00012	-0.00054	-0.00021	-1e-05	-2e-05	2
4963	-2e-05	0.0004	5e-05	-0.00012	-0.00054	-0.00021	-1e-05	-2e-05	2
4964	-2e-05	0.0004	5e-05	-0.00012	-0.00054	-0.00021	-1e-05	-2e-05	2
4965	-2e-05	0.0004	5e-05	-0.00012	-0.00054	-0.00021	-1e-05	-2e-05	2
4966	-2e-05	0.0004	5e-05	-0.00012	-0.00054	-0.00021	-1e-05	-2e-05	2
4967	-2e-05	0.0004	5e-05	-0.00012	-0.00054	-0.00021	-1e-05	-2e-05	2
4968	-2e-05	0.0004	5e-05	-0.00012	-0.00054	-0.00021	-1e-05	-2e-05	2
4969	-2e-05	0.0004	5e-05	-0.00012	-0.00054	-0.00021	-1e-05	-2e-05	2
4970	-2e-05	0.0004	5e-05	-0.00012	-0.00054	-0.00021	-1e-05	-2e-05	2
4971	-2e-05	0.0004	5e-05	-0.00012	-0.00054	-0.00021	-1e-05	-2e-05	2
4972	-2e-05	0.0004	5e-05	-0.00012	-0.00054	-0.00021	-1e-05	-2e-05	2
4973	-0.00096	0.00033	1e-05	-5e-05	-0.00016	6e-05	-0.00018	0.00023	2
4974	-0.00092	0.0003	9e-05	5e-05	-0.00021	2e-05	0.00018	0.0001	2
4975	-0.00092	0.0003	9e-05	5e-05	-0.00021	2e-05	0.00018	0.0001	2
4976	-0.00092	0.0003	9e-05	5e-05	-0.00021	2e-05	0.00018	0.0001	2
4977	-0.00092	0.0003	9e-05	5e-05	-0.00021	2e-05	0.00018	0.0001	2
4978	-0.00092	0.0003	9e-05	5e-05	-0.00021	2e-05	0.00018	0.0001	2
4979	-0.00092	0.0003	9e-05	5e-05	-0.00021	2e-05	0.00018	0.0001	2
4980	-0.00092	0.0003	9e-05	5e-05	-0.00021	2e-05	0.00018	0.0001	2
4981	-0.00092	0.0003	9e-05	5e-05	-0.00021	2e-05	0.00018	0.0001	2
4982	-0.00092	0.0003	9e-05	5e-05	-0.00021	2e-05	0.00018	0.0001	2
4983	-0.00092	0.0003	9e-05	5e-05	-0.00021	2e-05	0.00018	0.0001	2
4984	-0.00092	0.0003	9e-05	5e-05	-0.00021	2e-05	0.00018	0.0001	2
4985	-0.00092	0.0003	9e-05	5e-05	-0.00021	2e-05	0.00018	0.0001	2
4986	-0.00092	0.0003	9e-05	5e-05	-0.00021	2e-05	0.00018	0.0001	2
4988	-0.00075	-0.00101	-8e-05	0.0002	-0.00064	-0.00028	0.00011	-8e-05	2
4989	-0.00075	-0.00101	-8e-05	0.0002	-0.00064	-0.00028	0.00011	-8e-05	2
4990	-0.00075	-0.00101	-8e-05	0.0002	-0.00064	-0.00028	0.00011	-8e-05	2
4991	-0.00075	-0.00101	-8e-05	0.0002	-0.00064	-0.00028	0.00011	-8e-05	2
4992	-0.00075	-0.00101	-8e-05	0.0002	-0.00064	-0.00028	0.00011	-8e-05	2
4993	-0.00075	-0.00101	-8e-05	0.0002	-0.00064	-0.00028	0.00011	-8e-05	2
4994	2e-05	0	0.0001	-2e-05	-0.00012	2e-05	-5e-05	-0.00026	2
4995	2e-05	0	0.0001	-2e-05	-0.00012	2e-05	-5e-05	-0.00026	2
4996	2e-05	0	0.0001	-2e-05	-0.00012	2e-05	-5e-05	-0.00026	2
4997	2e-05	0	0.0001	-2e-05	-0.00012	2e-05	-5e-05	-0.00026	2
4998	2e-05	0	0.0001	-2e-05	-0.00012	2e-05	-5e-05	-0.00026	2
4999	2e-05	0	0.0001	-2e-05	-0.00012	2e-05	-5e-05	-0.00026	2
5000	2e-05	0	0.0001	-2e-05	-0.00012	2e-05	-5e-05	-0.00026	2
5001	2e-05	0	0.0001	-2e-05	-0.00012	2e-05	-5e-05	-0.00026	2
5002	2e-05	0	0.0001	-2e-05	-0.00012	2e-05	-5e-05	-0.00026	2
5003	2e-05	0	0.0001	-2e-05	-0.00012	2e-05	-5e-05	-0.00026	2
5004	2e-05	0	0.0001	-2e-05	-0.00012	2e-05	-5e-05	-0.00026	2
5005	2e-05	0	0.0001	-2e-05	-0.00012	2e-05	-5e-05	-0.00026	2
5006	2e-05	0	0.0001	-2e-05	-0.00012	2e-05	-5e-05	-0.00026	2
5007	2e-05	0	0.0001	-2e-05	-0.00012	2e-05	-5e-05	-0.00026	2
5008	2e-05	0	0.0001	-2e-05	-0.00012	2e-05	-5e-05	-0.00026	2
5009	2e-05	0	0.0001	-2e-05	-0.00012	2e-05	-5e-05	-0.00026	2
5010	2e-05	0	0.0001	-2e-05	-0.00012	2e-05	-5e-05	-0.00026	2
5011	0.00127	-0.00016	1e-05	0.00022	-7e-05	-0.00025	0.00014	0.00016	2
5012	-0.00128	-0.0001	-0.00016	-0.00028	0.00042	0.00014	0.0003	0.00011	2
5013	0.00081	-0.00017	3e-05	1e-05	0.00022	-9e-05	-0.00013	-7e-05	2
5014	0.00081	-0.00017	3e-05	1e-05	0.00022	-9e-05	-0.00013	-7e-05	2
5015	0.00081	-0.00017	3e-05	1e-05	0.00022	-9e-05	-0.00013	-7e-05	2
5016	0.00081	-0.00017	3e-05	1e-05	0.00022	-9e-05	-0.00013	-7e-05	2
5017	0.00081	-0.00017	3e-05	1e-05	0.00022	-9e-05	-0.00013	-7e-05	2
5018	0.00081	-0.00017	3e-05	1e-05	0.00022	-9e-05	-0.00013	-7e-05	2
5019	0.00081	-0.00017	3e-05	1e-05	0.00022	-9e-05	-0.00013	-7e-05	2
5020	0.00081	-0.00017	3e-05	1e-05	0.00022	-9e-05	-0.00013	-7e-05	2
5021	0.00081	-0.00017	3e-05	1e-05	0.00022	-9e-05	-0.00013	-7e-05	2
5022	0.00081	-0.00017	3e-05	1e-05	0.00022	-9e-05	-0.00013	-7e-05	2
5023	0.00081	-0.00017	3e-05	1e-05	0.00022	-9e-05	-0.00013	-7e-05	2
5024	0.00081	-0.00017	3e-05	1e-05	0.00022	-9e-05	-0.00013	-7e-05	2
5025	0.00081	-0.00017	3e-05	1e-05	0.00022	-9e-05	-0.00013	-7e-05	2
5026	0.00081	-0.00017	3e-05	1e-05	0.00022	-9e-05	-0.00013	-7e-05	2
5027	0.00081	-0.00017	3e-05	1e-05	0.00022	-9e-05	-0.00013	-7e-05	2
5028	0.00081	-0.00017	3e-05	1e-05	0.00022	-9e-05	-0.00013	-7e-05	2
5029	0.00081	-0.00017	3e-05	1e-05	0.00022	-9e-05	-0.00013	-7e-05	2
5030	0.00081	-0.00017	3e-05	1e-05	0.00022	-9e-05	-0.00013	-7e-05	2
5031	0.00081	-0.00017	3e-05	1e-05	0.00022	-9e-05	-0.00013	-7e-05	2
5033	0.00081	-0.00017	3e-05	1e-05	0.00022	-9e-05	-0.00013	-7e-05	2
5034	0.00081	-0.00017	3e-05	1e-05	0.00022	-9e-05	-0.00013	-7e-05	2
5035	0.00081	-0.00017	3e-05	1e-05	0.00022	-9e-05	-0.00013	-7e-05	2
5036	0.00081	-0.00017	3e-05	1e-05	0.00022	-9e-05	-0.00013	-7e-05	2
5038	0.00081	-0.00017	3e-05	1e-05	0.00022	-9e-05	-0.00013	-7e-05	2
5039	0.00081	-0.00017	3e-05	1e-05	0.00022	-9e-05	-0.00013	-7e-05	2
5040	-0.00043	-4e-05	5e-05	-1e-05	-0.00018	4e-05	0.0002	0.00016	2
5041	-0.00043	-4e-05	5e-05	-1e-05	-0.00018	4e-05	0.0002	0.00016	2
5042	0.00127	-0.00035	-8e-05	-3e-05	-0.00023	-7e-05	-0.00029	9e-05	2
5043	0.00127	-0.00035	-8e-05	-3e-05	-0.00023	-7e-05	-0.00029	9e-05	2
5044	0.00127	-0.00035	-8e-05	-3e-05	-0.00023	-7e-05	-0.00029	9e-05	2
5045	0.00127	-0.00035	-8e-05	-3e-05	-0.00023	-7e-05	-0.00029	9e-05	2
5046	0.00127	-0.00035	-8e-05	-3e-05	-0.00023	-7e-05	-0.00029	9e-05	2
5047	-0.00029	0.0004	-0.00013	-0.00071	0.00033	0.00015	-0.00036	-0.0004	2
5048	-0.00029	0.0004	-0.00013	-0.00071	0.00033	0.00015	-0.00036	-0.0004	2
5049	-0.00029	0.0004	-0.00013	-0.00071	0.00033	0.00015	-0.00036	-0.0004	2
5050	-0.00029	0.0004	-0.00013	-0.00071	0.00033	0.00015	-0.00036	-0.0004	2
5051	-0.00029	0.0004	-0.00013	-0.00071	0.00033	0.00015	-0.00036	-0.0004	2
5052	-0.00029	0.0004	-0.00013	-0.00071	0.00033	0.00015	-0.00036	-0.0004	2
5053	-0.00029	0.0004	-0.00013	-0.00071	0.00033	0.00015	-0.00036	-0.0004	2
5054	-0.00051	0.00075	0.00014	5e-05	0.00014	0.0001	0.00038	0.00017	2
5055	-0.00051	0.00075	0.00014	5e-05	0.00014	0.0001	0.00038	0.00017	2
5056	-0.00051	0.00075	0.00014	5e-05	0.00014	0.0001	0.00038	0.00017	2
5057	-0.00051	0.00075	0.00014	5e-05	0.00014	0.0001	0.00038	0.00017	2
5058	-0.00051	0.00075	0.00014	5e-05	0.00014	0.0001	0.00038	0.00017	2
5059	-0.00051	0.00075	0.00014	5e-05	0.00014	0.0001	0.00038	0.00017	2
5060	-0.00051	0.00075	0.00014	5e-05	0.00014	0.0001	0.00038	0.00017	2
5061	-0.00051	0.00075	0.00014	5e-05	0.00014	0.0001	0.00038	0.00017	2
5062	-0.00051	0.00075	0.00014	5e-05	0.00014	0.0001	0.00038	0.00017	2
5063	-0.00051	0.00075	0.00014	5e-05	0.00014	0.0001	0.00038	0.00017	2
5064	-0.00051	0.00075	0.00014	5e-05	0.00014	0.0001	0.00038	0.00017	2
5065	-0.00051	0.00075	0.00014	5e-05	0.00014	0.0001	0.00038	0.00017	2
5066	-0.00051	0.00075	0.00014	5e-05	0.00014	0.0001	0.00038	0.00017	2
5067	-0.00051	0.00075	0.00014	5e-05	0.00014	0.0001	0.00038	0.00017	2
5068	-0.00051	0.00075	0.00014	5e-05	0.00014	0.0001	0.00038	0.00017	2
5069	-0.00051	0.00075	0.00014	5e-05	0.00014	0.0001	0.00038	0.00017	2
5070	0.00059	-0.00084	-0.00012	-6e-05	1e-05	-0.00022	0.00019	6e-05	2
5071	0.00059	-0.00084	-0.00012	-6e-05	1e-05	-0.00022	0.00019	6e-05	2
5072	0.00042	-4e-05	-2e-05	0.00022	0	4e-05	7e-05	-0.00028	2
5073	0.00042	-4e-05	-2e-05	0.00022	0	4e-05	7e-05	-0.00028	2
5074	0.00042	-4e-05	-2e-05	0.00022	0	4e-05	7e-05	-0.00028	2
5075	0.00042	-4e-05	-2e-05	0.00022	0	4e-05	7e-05	-0.00028	2
5076	0.00042	-4e-05	-2e-05	0.00022	0	4e-05	7e-05	-0.00028	2
5077	0.00042	-4e-05	-2e-05	0.00022	0	4e-05	7e-05	-0.00028	2
5078	0.00042	-4e-05	-2e-05	0.00022	0	4e-05	7e-05	-0.00028	2
5079	0.00042	-4e-05	-2e-05	0.00022	0	4e-05	7e-05	-0.00028	2
5080	0.00042	-4e-05	-2e-05	0.00022	0	4e-05	7e-05	-0.00028	2
5081	0.00042	-4e-05	-2e-05	0.00022	0	4e-05	7e-05	-0.00028	2
5082	0.00042	-4e-05	-2e-05	0.00022	0	4e-05	7e-05	-0.00028	2
5083	0.00042	-4e-05	-2e-05	0.00022	0	4e-05	7e-05	-0.00028	2
5084	0.00042	-4e-05	-2e-05	0.00022	0	4e-05	7e-05	-0.00028	2
5085	0.00042	-4e-05	-2e-05	0.00022	0	4e-05	7e-05	-0.00028	2
5086	0.00042	-4e-05	-2e-05	0.00022	0	4e-05	7e-05	-0.00028	2
5088	0.00042	-4e-05	-2e-05	0.00022	0	4e-05	7e-05	-0.00028	2
5089	0.00042	-4e-05	-2e-05	0.00022	0	4e-05	7e-05	-0.00028	2
5090	0.00042	-4e-05	-2e-05	0.00022	0	4e-05	7e-05	-0.00028	2
5091	-0.00014	0.00082	0.00015	3e-05	0	8e-05	1e-05	0.00021	2
5092	-0.00014	0.00082	0.00015	3e-05	0	8e-05	1e-05	0.00021	2
5093	-0.00014	0.00082	0.00015	3e-05	0	8e-05	1e-05	0.00021	2
5094	-0.00014	0.00082	0.00015	3e-05	0	8e-05	1e-05	0.00021	2
5095	-0.00014	0.00082	0.00015	3e-05	0	8e-05	1e-05	0.00021	2
5096	-0.00014	0.00082	0.00015	3e-05	0	8e-05	1e-05	0.00021	2
5097	-0.00014	0.00082	0.00015	3e-05	0	8e-05	1e-05	0.00021	2
5098	-0.00014	0.00082	0.00015	3e-05	0	8e-05	1e-05	0.00021	2
5099	-0.00014	0.00082	0.00015	3e-05	0	8e-05	1e-05	0.00021	2
5100	-0.00128	-0.00039	-1e-05	0.00027	8e-05	8e-05	0.00037	1e-05	2
5101	-0.00128	-0.00039	-1e-05	0.00027	8e-05	8e-05	0.00037	1e-05	2
5102	-0.00128	-0.00039	-1e-05	0.00027	8e-05	8e-05	0.00037	1e-05	2
5103	-0.00128	-0.00039	-1e-05	0.00027	8e-05	8e-05	0.00037	1e-05	2
5104	-0.00128	-0.00039	-1e-05	0.00027	8e-05	8e-05	0.00037	1e-05	2
5105	-0.00128	-0.00039	-1e-05	0.00027	8e-05	8e-05	0.00037	1e-05	2
5106	-0.00128	-0.00039	-1e-05	0.00027	8e-05	8e-05	0.00037	1e-05	2
5107	0.00095	-3e-05	-7e-05	1e-05	-0.00016	2e-05	-0.00016	0.00014	2
5108	0.00095	-3e-05	-7e-05	1e-05	-0.00016	2e-05	-0.00016	0.00014	2
5109	0.00095	-3e-05	-7e-05	1e-05	-0.00016	2e-05	-0.00016	0.00014	2
5110	0.00095	-3e-05	-7e-05	1e-05	-0.00016	2e-05	-0.00016	0.00014	2
5111	0.00095	-3e-05	-7e-05	1e-05	-0.00016	2e-05	-0.00016	0.00014	2
5112	0.00095	-3e-05	-7e-05	1e-05	-0.00016	2e-05	-0.00016	0.00014	2
5113	0.00095	-3e-05	-7e-05	1e-05	-0.00016	2e-05	-0.00016	0.00014	2
5114	-0.0004	-2e-05	-0.00016	-0.00042	4e-05	-2e-05	-0.00021	-0.00036	2
5115	-0.0004	-2e-05	-0.00016	-0.00042	4e-05	-2e-05	-0.00021	-0.00036	2
5116	-0.0004	-2e-05	-0.00016	-0.00042	4e-05	-2e-05	-0.00021	-0.00036	2
5117	-0.0004	-2e-05	-0.00016	-0.00042	4e-05	-2e-05	-0.00021	-0.00036	2
5118	-0.0004	-2e-05	-0.00016	-0.00042	4e-05	-2e-05	-0.00021	-0.00036	2
5119	-0.0004	-2e-05	-0.00016	-0.00042	4e-05	-2e-05	-0.00021	-0.00036	2
5120	-0.0004	-2e-05	-0.00016	-0.00042	4e-05	-2e-05	-0.00021	-0.00036	2
5121	-0.0004	-2e-05	-0.00016	-0.00042	4e-05	-2e-05	-0.00021	-0.00036	2
5122	-0.0004	-2e-05	-0.00016	-0.00042	4e-05	-2e-05	-0.00021	-0.00036	2
5123	-0.0004	-2e-05	-0.00016	-0.00042	4e-05	-2e-05	-0.00021	-0.00036	2
5124	-0.0004	-2e-05	-0.00016	-0.00042	4e-05	-2e-05	-0.00021	-0.00036	2
5125	-0.0004	-2e-05	-0.00016	-0.00042	4e-05	-2e-05	-0.00021	-0.00036	2
5126	-0.0004	-2e-05	-0.00016	-0.00042	4e-05	-2e-05	-0.00021	-0.00036	2
5127	-0.0004	-2e-05	-0.00016	-0.00042	4e-05	-2e-05	-0.00021	-0.00036	2
5128	-0.0004	-2e-05	-0.00016	-0.00042	4e-05	-2e-05	-0.00021	-0.00036	2
5129	-0.0004	-2e-05	-0.00016	-0.00042	4e-05	-2e-05	-0.00021	-0.00036	2
5130	0.00037	0.0001	5e-05	0.00023	-0.00046	-0.0003	0.00031	3e-05	2
5131	0.00037	0.0001	5e-05	0.00023	-0.00046	-0.0003	0.00031	3e-05	2
5132	0.00037	1e-05	-5e-05	0.0001	-0.00048	-0.00024	-0.00012	6e-05	2
5133	0.00037	1e-05	-5e-05	0.0001	-0.00048	-0.00024	-0.00012	6e-05	2
5134	0.00037	1e-05	-5e-05	0.0001	-0.00048	-0.00024	-0.00012	6e-05	2
5135	0.00037	1e-05	-5e-05	0.0001	-0.00048	-0.00024	-0.00012	6e-05	2
5136	0.00037	1e-05	-5e-05	0.0001	-0.00048	-0.00024	-0.00012	6e-05	2
5138	0.00037	1e-05	-5e-05	0.0001	-0.00048	-0.00024	-0.00012	6e-05	2
5139	0.00037	1e-05	-5e-05	0.0001	-0.00048	-0.00024	-0.00012	6e-05	2
5140	0.00037	1e-05	-5e-05	0.0001	-0.00048	-0.00024	-0.00012	6e-05	2
5141	0.00037	1e-05	-5e-05	0.0001	-0.00048	-0.00024	-0.00012	6e-05	2
5142	0.00037	1e-05	-5e-05	0.0001	-0.00048	-0.00024	-0.00012	6e-05	2
5143	0.00037	1e-05	-5e-05	0.0001	-0.00048	-0.00024	-0.00012	6e-05	2
5144	0.00037	1e-05	-5e-05	0.0001	-0.00048	-0.00024	-0.00012	6e-05	2
5145	0.00037	1e-05	-5e-05	0.0001	-0.00048	-0.00024	-0.00012	6e-05	2
5146	0.00037	1e-05	-5e-05	0.0001	-0.00048	-0.00024	-0.00012	6e-05	2
5147	0.00037	1e-05	-5e-05	0.0001	-0.00048	-0.00024	-0.00012	6e-05	2
5148	0.00037	1e-05	-5e-05	0.0001	-0.00048	-0.00024	-0.00012	6e-05	2
5149	0.00037	1e-05	-5e-05	0.0001	-0.00048	-0.00024	-0.00012	6e-05	2
5150	0.00037	1e-05	-5e-05	0.0001	-0.00048	-0.00024	-0.00012	6e-05	2
5151	0.00037	1e-05	-5e-05	0.0001	-0.00048	-0.00024	-0.00012	6e-05	2
5152	0.00037	1e-05	-5e-05	0.0001	-0.00048	-0.00024	-0.00012	6e-05	2
5153	-8e-05	0.00051	8e-05	-5e-05	8e-05	6e-05	-0.0001	3e-05	2
5154	0.00059	-0.00017	1e-05	2e-05	-0.00035	-4e-05	-5e-05	0.00033	2
5155	0.00059	-0.00017	1e-05	2e-05	-0.00035	-4e-05	-5e-05	0.00033	2
5156	0.00059	-0.00017	1e-05	2e-05	-0.00035	-4e-05	-5e-05	0.00033	2
5157	0.00059	-0.00017	1e-05	2e-05	-0.00035	-4e-05	-5e-05	0.00033	2
5158	0.00059	-0.00017	1e-05	2e-05	-0.00035	-4e-05	-5e-05	0.00033	2
5159	0.00059	-0.00017	1e-05	2e-05	-0.00035	-4e-05	-5e-05	0.00033	2
5160	0.00059	-0.00017	1e-05	2e-05	-0.00035	-4e-05	-5e-05	0.00033	2
5161	0.00059	-0.00017	1e-05	2e-05	-0.00035	-4e-05	-5e-05	0.00033	2
5162	0.00059	-0.00017	1e-05	2e-05	-0.00035	-4e-05	-5e-05	0.00033	2
5163	0.00059	-0.00017	1e-05	2e-05	-0.00035	-4e-05	-5e-05	0.00033	2
5164	0.00059	-0.00017	1e-05	2e-05	-0.00035	-4e-05	-5e-05	0.00033	2
5165	0.00059	-0.00017	1e-05	2e-05	-0.00035	-4e-05	-5e-05	0.00033	2
5166	0.00059	-0.00017	1e-05	2e-05	-0.00035	-4e-05	-5e-05	0.00033	2
5167	0.00079	-0.00072	-7e-05	6e-05	5e-05	-6e-05	4e-05	-0.00011	2
5168	0.00079	-0.00072	-7e-05	6e-05	5e-05	-6e-05	4e-05	-0.00011	2
5169	0.00079	-0.00072	-7e-05	6e-05	5e-05	-6e-05	4e-05	-0.00011	2
5170	0.00079	-0.00072	-7e-05	6e-05	5e-05	-6e-05	4e-05	-0.00011	2
5171	0.00079	-0.00072	-7e-05	6e-05	5e-05	-6e-05	4e-05	-0.00011	2
5172	0.00079	-0.00072	-7e-05	6e-05	5e-05	-6e-05	4e-05	-0.00011	2
5173	0.00079	-0.00072	-7e-05	6e-05	5e-05	-6e-05	4e-05	-0.00011	2
5174	0.0004	0.00037	4e-05	-0.00011	-2e-05	-0.0001	3e-05	0.00018	2
5175	0.0004	0.00037	4e-05	-0.00011	-2e-05	-0.0001	3e-05	0.00018	2
5176	0.0004	0.00037	4e-05	-0.00011	-2e-05	-0.0001	3e-05	0.00018	2
5177	0.0004	0.00037	4e-05	-0.00011	-2e-05	-0.0001	3e-05	0.00018	2
5178	0.0004	0.00037	4e-05	-0.00011	-2e-05	-0.0001	3e-05	0.00018	2
5179	0.0004	0.00037	4e-05	-0.00011	-2e-05	-0.0001	3e-05	0.00018	2
5180	0.0004	0.00037	4e-05	-0.00011	-2e-05	-0.0001	3e-05	0.00018	2
5181	0.0004	0.00037	4e-05	-0.00011	-2e-05	-0.0001	3e-05	0.00018	2
5182	0.0004	0.00037	4e-05	-0.00011	-2e-05	-0.0001	3e-05	0.00018	2
5183	0.0004	0.00037	4e-05	-0.00011	-2e-05	-0.0001	3e-05	0.00018	2
5184	0.0004	0.00037	4e-05	-0.00011	-2e-05	-0.0001	3e-05	0.00018	2
5185	0.0004	0.00037	4e-05	-0.00011	-2e-05	-0.0001	3e-05	0.00018	2
5186	0.0004	0.00037	4e-05	-0.00011	-2e-05	-0.0001	3e-05	0.00018	2
5188	0.0004	0.00037	4e-05	-0.00011	-2e-05	-0.0001	3e-05	0.00018	2
5189	0.0004	0.00037	4e-05	-0.00011	-2e-05	-0.0001	3e-05	0.00018	2
5190	-9e-05	-0.00042	-9e-05	-0.00014	6e-05	7e-05	-9e-05	-2e-05	2
5191	-9e-05	-0.00042	-9e-05	-0.00014	6e-05	7e-05	-9e-05	-2e-05	2
5192	7e-05	0.00047	0.00013	0.00011	-0.00052	-0.0001	-0.00027	-0.00036	2
5193	7e-05	0.00047	0.00013	0.00011	-0.00052	-0.0001	-0.00027	-0.00036	2
5194	7e-05	0.00047	0.00013	0.00011	-0.00052	-0.0001	-0.00027	-0.00036	2
5195	7e-05	0.00047	0.00013	0.00011	-0.00052	-0.0001	-0.00027	-0.00036	2
5196	7e-05	0.00047	0.00013	0.00011	-0.00052	-0.0001	-0.00027	-0.00036	2
5197	7e-05	0.00047	0.00013	0.00011	-0.00052	-0.0001	-0.00027	-0.00036	2
5198	7e-05	0.00047	0.00013	0.00011	-0.00052	-0.0001	-0.00027	-0.00036	2
5199	7e-05	0.00047	0.00013	0.00011	-0.00052	-0.0001	-0.00027	-0.00036	2
5200	7e-05	0.00047	0.00013	0.00011	-0.00052	-0.0001	-0.00027	-0.00036	2
5201	7e-05	0.00047	0.00013	0.00011	-0.00052	-0.0001	-0.00027	-0.00036	2
5202	7e-05	0.00047	0.00013	0.00011	-0.00052	-0.0001	-0.00027	-0.00036	2
5203	7e-05	0.00047	0.00013	0.00011	-0.00052	-0.0001	-0.00027	-0.00036	2
5204	7e-05	0.00047	0.00013	0.00011	-0.00052	-0.0001	-0.00027	-0.00036	2
5205	7e-05	0.00047	0.00013	0.00011	-0.00052	-0.0001	-0.00027	-0.00036	2
5206	7e-05	0.00047	0.00013	0.00011	-0.00052	-0.0001	-0.00027	-0.00036	2
5207	7e-05	0.00047	0.00013	0.00011	-0.00052	-0.0001	-0.00027	-0.00036	2
5208	7e-05	0.00047	0.00013	0.00011	-0.00052	-0.0001	-0.00027	-0.00036	2
5209	7e-05	0.00047	0.00013	0.00011	-0.00052	-0.0001	-0.00027	-0.00036	2
5210	7e-05	0.00047	0.00013	0.00011	-0.00052	-0.0001	-0.00027	-0.00036	2
5211	7e-05	0.00047	0.00013	0.00011	-0.00052	-0.0001	-0.00027	-0.00036	2
5212	7e-05	0.00047	0.00013	0.00011	-0.00052	-0.0001	-0.00027	-0.00036	2
5213	-0.00059	-0.0001	-1e-05	-0.00023	-0.00054	-5e-05	1e-05	-6e-05	2
5214	0.0005	-0.00025	-0.00013	-0.00018	0.00064	6e-05	0	0.00015	2
5215	-9e-05	0.00031	9e-05	0.00028	-0.00033	-0.00013	9e-05	0.00014	2
5216	-9e-05	0.00031	9e-05	0.00028	-0.00033	-0.00013	9e-05	0.00014	2
5217	-9e-05	0.00031	9e-05	0.00028	-0.00033	-0.00013	9e-05	0.00014	2
5218	-9e-05	0.00031	9e-05	0.00028	-0.00033	-0.00013	9e-05	0.00014	2
5219	-9e-05	0.00031	9e-05	0.00028	-0.00033	-0.00013	9e-05	0.00014	2
5220	-9e-05	0.00031	9e-05	0.00028	-0.00033	-0.00013	9e-05	0.00014	2
5221	-9e-05	0.00031	9e-05	0.00028	-0.00033	-0.00013	9e-05	0.00014	2
5222	-9e-05	0.00031	9e-05	0.00028	-0.00033	-0.00013	9e-05	0.00014	2
5223	-9e-05	0.00031	9e-05	0.00028	-0.00033	-0.00013	9e-05	0.00014	2
5224	-9e-05	0.00031	9e-05	0.00028	-0.00033	-0.00013	9e-05	0.00014	2
5225	-9e-05	0.00031	9e-05	0.00028	-0.00033	-0.00013	9e-05	0.00014	2
5226	-9e-05	0.00031	9e-05	0.00028	-0.00033	-0.00013	9e-05	0.00014	2
5227	0.00029	0.00035	0	1e-05	0.00017	6e-05	2e-05	1e-05	2
5228	0.00029	0.00035	0	1e-05	0.00017	6e-05	2e-05	1e-05	2
5229	0.00029	0.00035	0	1e-05	0.00017	6e-05	2e-05	1e-05	2
5230	0.00029	0.00035	0	1e-05	0.00017	6e-05	2e-05	1e-05	2
5231	0.00029	0.00035	0	1e-05	0.00017	6e-05	2e-05	1e-05	2
5232	0.00029	0.00035	0	1e-05	0.00017	6e-05	2e-05	1e-05	2
5233	0.00029	0.00035	0	1e-05	0.00017	6e-05	2e-05	1e-05	2
5234	-0.00029	-0.00023	-0.0001	-0.0003	0.00027	0.0005	-0.0001	-0.0002	2
5235	-0.00029	-0.00023	-0.0001	-0.0003	0.00027	0.0005	-0.0001	-0.0002	2
5236	-0.00029	-0.00023	-0.0001	-0.0003	0.00027	0.0005	-0.0001	-0.0002	2
5238	-0.00029	-0.00023	-0.0001	-0.0003	0.00027	0.0005	-0.0001	-0.0002	2
5239	-0.00029	-0.00023	-0.0001	-0.0003	0.00027	0.0005	-0.0001	-0.0002	2
5240	-0.00029	-0.00023	-0.0001	-0.0003	0.00027	0.0005	-0.0001	-0.0002	2
5241	-0.00029	-0.00023	-0.0001	-0.0003	0.00027	0.0005	-0.0001	-0.0002	2
5242	-0.00029	-0.00023	-0.0001	-0.0003	0.00027	0.0005	-0.0001	-0.0002	2
5243	-0.00029	-0.00023	-0.0001	-0.0003	0.00027	0.0005	-0.0001	-0.0002	2
5244	-0.00029	-0.00023	-0.0001	-0.0003	0.00027	0.0005	-0.0001	-0.0002	2
5245	-0.00029	-0.00023	-0.0001	-0.0003	0.00027	0.0005	-0.0001	-0.0002	2
5246	-0.00029	-0.00023	-0.0001	-0.0003	0.00027	0.0005	-0.0001	-0.0002	2
5247	-0.00029	-0.00023	-0.0001	-0.0003	0.00027	0.0005	-0.0001	-0.0002	2
5248	-0.00029	-0.00023	-0.0001	-0.0003	0.00027	0.0005	-0.0001	-0.0002	2
5249	-0.00029	-0.00023	-0.0001	-0.0003	0.00027	0.0005	-0.0001	-0.0002	2
5250	-0.00103	0.00016	-6e-05	-0.00011	0.00032	-4e-05	-0.00022	-0.00049	2
5251	-0.00103	0.00016	-6e-05	-0.00011	0.00032	-4e-05	-0.00022	-0.00049	2
5252	0.00063	-5e-05	-3e-05	4e-05	0.00019	0.00014	0.00018	0.00039	2
5253	0.00063	-5e-05	-3e-05	4e-05	0.00019	0.00014	0.00018	0.00039	2
5254	0.00063	-5e-05	-3e-05	4e-05	0.00019	0.00014	0.00018	0.00039	2
5255	0.00063	-5e-05	-3e-05	4e-05	0.00019	0.00014	0.00018	0.00039	2
5256	0.00063	-5e-05	-3e-05	4e-05	0.00019	0.00014	0.00018	0.00039	2
5257	0.00063	-5e-05	-3e-05	4e-05	0.00019	0.00014	0.00018	0.00039	2
5258	0.00063	-5e-05	-3e-05	4e-05	0.00019	0.00014	0.00018	0.00039	2
5259	0.00063	-5e-05	-3e-05	4e-05	0.00019	0.00014	0.00018	0.00039	2
5260	0.00063	-5e-05	-3e-05	4e-05	0.00019	0.00014	0.00018	0.00039	2
5261	0.00063	-5e-05	-3e-05	4e-05	0.00019	0.00014	0.00018	0.00039	2
5262	0.00063	-5e-05	-3e-05	4e-05	0.00019	0.00014	0.00018	0.00039	2
5263	0.00063	-5e-05	-3e-05	4e-05	0.00019	0.00014	0.00018	0.00039	2
5264	0.00063	-5e-05	-3e-05	4e-05	0.00019	0.00014	0.00018	0.00039	2
5265	0.00063	-5e-05	-3e-05	4e-05	0.00019	0.00014	0.00018	0.00039	2
5266	0.00063	-5e-05	-3e-05	4e-05	0.00019	0.00014	0.00018	0.00039	2
5267	0.00063	-5e-05	-3e-05	4e-05	0.00019	0.00014	0.00018	0.00039	2
5268	0.00063	-5e-05	-3e-05	4e-05	0.00019	0.00014	0.00018	0.00039	2
5269	0.00063	-5e-05	-3e-05	4e-05	0.00019	0.00014	0.00018	0.00039	2
5270	0.00063	-5e-05	-3e-05	4e-05	0.00019	0.00014	0.00018	0.00039	2
5271	0.00063	-5e-05	-3e-05	4e-05	0.00019	0.00014	0.00018	0.00039	2
5272	0.00063	-5e-05	-3e-05	4e-05	0.00019	0.00014	0.00018	0.00039	2
5273	0.00015	0	9e-05	1e-05	-4e-05	0.00028	0.00021	0.00013	2
5274	-0.00111	-0.0003	-8e-05	-2e-05	-1e-05	-9e-05	-0.00014	-0.0002	2
5275	-0.00111	-0.0003	-8e-05	-2e-05	-1e-05	-9e-05	-0.00014	-0.0002	2
5276	-0.00111	-0.0003	-8e-05	-2e-05	-1e-05	-9e-05	-0.00014	-0.0002	2
5277	-0.00111	-0.0003	-8e-05	-2e-05	-1e-05	-9e-05	-0.00014	-0.0002	2
5278	-0.00111	-0.0003	-8e-05	-2e-05	-1e-05	-9e-05	-0.00014	-0.0002	2
5279	-0.00111	-0.0003	-8e-05	-2e-05	-1e-05	-9e-05	-0.00014	-0.0002	2
5280	-0.00111	-0.0003	-8e-05	-2e-05	-1e-05	-9e-05	-0.00014	-0.0002	2
5281	-0.00111	-0.0003	-8e-05	-2e-05	-1e-05	-9e-05	-0.00014	-0.0002	2
5282	-0.00111	-0.0003	-8e-05	-2e-05	-1e-05	-9e-05	-0.00014	-0.0002	2
5283	-0.00111	-0.0003	-8e-05	-2e-05	-1e-05	-9e-05	-0.00014	-0.0002	2
5284	-0.00111	-0.0003	-8e-05	-2e-05	-1e-05	-9e-05	-0.00014	-0.0002	2
5285	-0.00111	-0.0003	-8e-05	-2e-05	-1e-05	-9e-05	-0.00014	-0.0002	2
5286	-0.00111	-0.0003	-8e-05	-2e-05	-1e-05	-9e-05	-0.00014	-0.0002	2
5288	-0.00127	-0.00031	-4e-05	8e-05	8e-05	0.00011	-0.00017	-0.00022	2
5289	-0.00127	-0.00031	-4e-05	8e-05	8e-05	0.00011	-0.00017	-0.00022	2
5290	-0.00127	-0.00031	-4e-05	8e-05	8e-05	0.00011	-0.00017	-0.00022	2
5291	-0.00127	-0.00031	-4e-05	8e-05	8e-05	0.00011	-0.00017	-0.00022	2
5292	-0.00127	-0.00031	-4e-05	8e-05	8e-05	0.00011	-0.00017	-0.00022	2
5293	-0.00127	-0.00031	-4e-05	8e-05	8e-05	0.00011	-0.00017	-0.00022	2
5294	0.00127	-0.00013	1e-05	-3e-05	-0.00035	-9e-05	9e-05	0.00025	2
5295	0.00127	-0.00013	1e-05	-3e-05	-0.00035	-9e-05	9e-05	0.00025	2
5296	0.00127	-0.00013	1e-05	-3e-05	-0.00035	-9e-05	9e-05	0.00025	2
5297	0.00127	-0.00013	1e-05	-3e-05	-0.00035	-9e-05	9e-05	0.00025	2
5298	0.00127	-0.00013	1e-05	-3e-05	-0.00035	-9e-05	9e-05	0.00025	2
5299	0.00127	-0.00013	1e-05	-3e-05	-0.00035	-9e-05	9e-05	0.00025	2
5300	0.00127	-0.00013	1e-05	-3e-05	-0.00035	-9e-05	9e-05	0.00025	2
5301	0.00127	-0.00013	1e-05	-3e-05	-0.00035	-9e-05	9e-05	0.00025	2
5302	0.00127	-0.00013	1e-05	-3e-05	-0.00035	-9e-05	9e-05	0.00025	2
5303	0.00127	-0.00013	1e-05	-3e-05	-0.00035	-9e-05	9e-05	0.00025	2
5304	0.00127	-0.00013	1e-05	-3e-05	-0.00035	-9e-05	9e-05	0.00025	2
5305	0.00127	-0.00013	1e-05	-3e-05	-0.00035	-9e-05	9e-05	0.00025	2
5306	0.00127	-0.00013	1e-05	-3e-05	-0.00035	-9e-05	9e-05	0.00025	2
5307	0.00127	-0.00013	1e-05	-3e-05	-0.00035	-9e-05	9e-05	0.00025	2
5308	0.00127	-0.00013	1e-05	-3e-05	-0.00035	-9e-05	9e-05	0.00025	2
5309	0.00127	-0.00013	1e-05	-3e-05	-0.00035	-9e-05	9e-05	0.00025	2
5310	0.00127	-0.00013	1e-05	-3e-05	-0.00035	-9e-05	9e-05	0.00025	2
5311	0.00127	-0.00013	1e-05	-3e-05	-0.00035	-9e-05	9e-05	0.00025	2
5312	0.00127	-0.00013	1e-05	-3e-05	-0.00035	-9e-05	9e-05	0.00025	2
5313	0.00127	-0.00013	1e-05	-3e-05	-0.00035	-9e-05	9e-05	0.00025	2
5314	0.00127	-0.00013	1e-05	-3e-05	-0.00035	-9e-05	9e-05	0.00025	2
5315	0.00127	-0.00013	1e-05	-3e-05	-0.00035	-9e-05	9e-05	0.00025	2
5316	0.00127	-0.00013	1e-05	-3e-05	-0.00035	-9e-05	9e-05	0.00025	2
5317	0.00127	-0.00013	1e-05	-3e-05	-0.00035	-9e-05	9e-05	0.00025	2
5318	-0.00115	0.00045	4e-05	5e-05	-0.00021	0.00018	0.00011	-2e-05	2
5319	0.00088	-0.0012	-0.00013	5e-05	1e-05	7e-05	2e-05	0.00031	2
5320	0.00088	-0.0012	-0.00013	5e-05	1e-05	7e-05	2e-05	0.00031	2
5321	0.00088	-0.0012	-0.00013	5e-05	1e-05	7e-05	2e-05	0.00031	2
5322	0.00088	-0.0012	-0.00013	5e-05	1e-05	7e-05	2e-05	0.00031	2
5323	0.00088	-0.0012	-0.00013	5e-05	1e-05	7e-05	2e-05	0.00031	2
5324	0.00088	-0.0012	-0.00013	5e-05	1e-05	7e-05	2e-05	0.00031	2
5325	0.00088	-0.0012	-0.00013	5e-05	1e-05	7e-05	2e-05	0.00031	2
5326	0.00088	-0.0012	-0.00013	5e-05	1e-05	7e-05	2e-05	0.00031	2
5327	0.00088	-0.0012	-0.00013	5e-05	1e-05	7e-05	2e-05	0.00031	2
5328	0.00088	-0.0012	-0.00013	5e-05	1e-05	7e-05	2e-05	0.00031	2
5329	0.00088	-0.0012	-0.00013	5e-05	1e-05	7e-05	2e-05	0.00031	2
5330	0.00088	-0.0012	-0.00013	5e-05	1e-05	7e-05	2e-05	0.00031	2
5331	0.00088	-0.0012	-0.00013	5e-05	1e-05	7e-05	2e-05	0.00031	2
5332	0.00088	-0.0012	-0.00013	5e-05	1e-05	7e-05	2e-05	0.00031	2
5333	0.00031	-0.00011	-0.00014	-0.00033	0.0002	-0.00017	-0.00023	-0.00056	2
5334	0.00038	-0.00054	-0.00014	-1e-05	7e-05	-0.00024	-0.00022	-0.00035	2
5335	0.00038	-0.00054	-0.00014	-1e-05	7e-05	-0.00024	-0.00022	-0.00035	2
5336	0.00038	-0.00054	-0.00014	-1e-05	7e-05	-0.00024	-0.00022	-0.00035	2
5338	0.00038	-0.00054	-0.00014	-1e-05	7e-05	-0.00024	-0.00022	-0.00035	2
5339	0.00038	-0.00054	-0.00014	-1e-05	7e-05	-0.00024	-0.00022	-0.00035	2
5340	0.00038	-0.00054	-0.00014	-1e-05	7e-05	-0.00024	-0.00022	-0.00035	2
5341	0.00038	-0.00054	-0.00014	-1e-05	7e-05	-0.00024	-0.00022	-0.00035	2
5342	0.00038	-0.00054	-0.00014	-1e-05	7e-05	-0.00024	-0.00022	-0.00035	2
5343	0.00038	-0.00054	-0.00014	-1e-05	7e-05	-0.00024	-0.00022	-0.00035	2
5344	0.00038	-0.00054	-0.00014	-1e-05	7e-05	-0.00024	-0.00022	-0.00035	2
5345	0.00038	-0.00054	-0.00014	-1e-05	7e-05	-0.00024	-0.00022	-0.00035	2
5346	0.00038	-0.00054	-0.00014	-1e-05	7e-05	-0.00024	-0.00022	-0.00035	2
5347	0.00067	6e-05	1e-05	-2e-05	0.00017	-0.00014	0.00016	0.00023	2
5348	0.00067	6e-05	1e-05	-2e-05	0.00017	-0.00014	0.00016	0.00023	2
5349	0.00067	6e-05	1e-05	-2e-05	0.00017	-0.00014	0.00016	0.00023	2
5350	0.00067	6e-05	1e-05	-2e-05	0.00017	-0.00014	0.00016	0.00023	2
5351	0.00067	6e-05	1e-05	-2e-05	0.00017	-0.00014	0.00016	0.00023	2
5352	0.00067	6e-05	1e-05	-2e-05	0.00017	-0.00014	0.00016	0.00023	2
5353	0.00067	6e-05	1e-05	-2e-05	0.00017	-0.00014	0.00016	0.00023	2
5354	0.00067	6e-05	1e-05	-2e-05	0.00017	-0.00014	0.00016	0.00023	2
5355	0.00016	0.00011	3e-05	-0.00022	-0.00013	6e-05	8e-05	0.0002	2
5356	0.00016	0.00011	3e-05	-0.00022	-0.00013	6e-05	8e-05	0.0002	2
5357	0.00016	0.00011	3e-05	-0.00022	-0.00013	6e-05	8e-05	0.0002	2
5358	0.00016	0.00011	3e-05	-0.00022	-0.00013	6e-05	8e-05	0.0002	2
5359	0.00016	0.00011	3e-05	-0.00022	-0.00013	6e-05	8e-05	0.0002	2
5360	0.00016	0.00011	3e-05	-0.00022	-0.00013	6e-05	8e-05	0.0002	2
5361	0.00016	0.00011	3e-05	-0.00022	-0.00013	6e-05	8e-05	0.0002	2
5362	0.00016	0.00011	3e-05	-0.00022	-0.00013	6e-05	8e-05	0.0002	2
5363	0.00016	0.00011	3e-05	-0.00022	-0.00013	6e-05	8e-05	0.0002	2
5364	0.00016	0.00011	3e-05	-0.00022	-0.00013	6e-05	8e-05	0.0002	2
5365	0.00016	0.00011	3e-05	-0.00022	-0.00013	6e-05	8e-05	0.0002	2
5366	0.00016	0.00011	3e-05	-0.00022	-0.00013	6e-05	8e-05	0.0002	2
5367	0.00016	0.00011	3e-05	-0.00022	-0.00013	6e-05	8e-05	0.0002	2
5368	0.00016	0.00011	3e-05	-0.00022	-0.00013	6e-05	8e-05	0.0002	2
5369	0.00016	0.00011	3e-05	-0.00022	-0.00013	6e-05	8e-05	0.0002	2
5370	0.00115	-0.00037	-0.00012	-0.00014	-0.0002	-0.00021	-0.00025	-0.00034	2
5371	0.00115	-0.00037	-0.00012	-0.00014	-0.0002	-0.00021	-0.00025	-0.00034	2
5372	0.00062	-0.00018	0.00014	0.00049	-0.00022	3e-05	0.00017	0.00015	2
5373	0.00062	-0.00018	0.00014	0.00049	-0.00022	3e-05	0.00017	0.00015	2
5374	0.00062	-0.00018	0.00014	0.00049	-0.00022	3e-05	0.00017	0.00015	2
5375	0.00062	-0.00018	0.00014	0.00049	-0.00022	3e-05	0.00017	0.00015	2
5376	0.00062	-0.00018	0.00014	0.00049	-0.00022	3e-05	0.00017	0.00015	2
5377	0.00062	-0.00018	0.00014	0.00049	-0.00022	3e-05	0.00017	0.00015	2
5378	0.00062	-0.00018	0.00014	0.00049	-0.00022	3e-05	0.00017	0.00015	2
5379	0.00062	-0.00018	0.00014	0.00049	-0.00022	3e-05	0.00017	0.00015	2
5380	0.00062	-0.00018	0.00014	0.00049	-0.00022	3e-05	0.00017	0.00015	2
5381	0.00062	-0.00018	0.00014	0.00049	-0.00022	3e-05	0.00017	0.00015	2
5382	0.00062	-0.00018	0.00014	0.00049	-0.00022	3e-05	0.00017	0.00015	2
5383	0.00062	-0.00018	0.00014	0.00049	-0.00022	3e-05	0.00017	0.00015	2
5384	0.00062	-0.00018	0.00014	0.00049	-0.00022	3e-05	0.00017	0.00015	2
5385	0.00062	-0.00018	0.00014	0.00049	-0.00022	3e-05	0.00017	0.00015	2
5386	0.00062	-0.00018	0.00014	0.00049	-0.00022	3e-05	0.00017	0.00015	2
5388	0.00062	-0.00018	0.00014	0.00049	-0.00022	3e-05	0.00017	0.00015	2
5389	0.00062	-0.00018	0.00014	0.00049	-0.00022	3e-05	0.00017	0.00015	2
5390	0.00062	-0.00018	0.00014	0.00049	-0.00022	3e-05	0.00017	0.00015	2
5391	0.00062	-0.00018	0.00014	0.00049	-0.00022	3e-05	0.00017	0.00015	2
5392	0.00062	-0.00018	0.00014	0.00049	-0.00022	3e-05	0.00017	0.00015	2
5393	-0.00091	0.00042	5e-05	-3e-05	-0.00018	-0.00021	-2e-05	-1e-05	2
5394	-0.00056	0.00057	0	-7e-05	0.00038	-2e-05	4e-05	0.00023	2
5395	-0.00056	0.00057	0	-7e-05	0.00038	-2e-05	4e-05	0.00023	2
5396	-0.00056	0.00057	0	-7e-05	0.00038	-2e-05	4e-05	0.00023	2
5397	-0.00056	0.00057	0	-7e-05	0.00038	-2e-05	4e-05	0.00023	2
5398	-0.00056	0.00057	0	-7e-05	0.00038	-2e-05	4e-05	0.00023	2
5399	-0.00056	0.00057	0	-7e-05	0.00038	-2e-05	4e-05	0.00023	2
5400	-0.00056	0.00057	0	-7e-05	0.00038	-2e-05	4e-05	0.00023	2
5401	-0.00056	0.00057	0	-7e-05	0.00038	-2e-05	4e-05	0.00023	2
5402	-0.00056	0.00057	0	-7e-05	0.00038	-2e-05	4e-05	0.00023	2
5403	-0.00056	0.00057	0	-7e-05	0.00038	-2e-05	4e-05	0.00023	2
5404	-0.00056	0.00057	0	-7e-05	0.00038	-2e-05	4e-05	0.00023	2
5405	-0.00056	0.00057	0	-7e-05	0.00038	-2e-05	4e-05	0.00023	2
5406	0.00051	-0.00017	-1e-05	1e-05	0.00013	-1e-05	0.0001	0.0003	2
5407	0.00051	-0.00017	-1e-05	1e-05	0.00013	-1e-05	0.0001	0.0003	2
5408	0.00051	-0.00017	-1e-05	1e-05	0.00013	-1e-05	0.0001	0.0003	2
5409	0.00051	-0.00017	-1e-05	1e-05	0.00013	-1e-05	0.0001	0.0003	2
5410	0.00051	-0.00017	-1e-05	1e-05	0.00013	-1e-05	0.0001	0.0003	2
5411	0.00051	-0.00017	-1e-05	1e-05	0.00013	-1e-05	0.0001	0.0003	2
5412	0.00051	-0.00017	-1e-05	1e-05	0.00013	-1e-05	0.0001	0.0003	2
5413	0.00051	-0.00017	-1e-05	1e-05	0.00013	-1e-05	0.0001	0.0003	2
5414	0.00051	-0.00017	-1e-05	1e-05	0.00013	-1e-05	0.0001	0.0003	2
5415	0.0006	0.00092	2e-05	0.00015	-0.00014	-0.00029	1e-05	-2e-05	2
5416	0.0006	0.00092	2e-05	0.00015	-0.00014	-0.00029	1e-05	-2e-05	2
5417	0.0006	0.00092	2e-05	0.00015	-0.00014	-0.00029	1e-05	-2e-05	2
5418	0.0006	0.00092	2e-05	0.00015	-0.00014	-0.00029	1e-05	-2e-05	2
5419	0.0006	0.00092	2e-05	0.00015	-0.00014	-0.00029	1e-05	-2e-05	2
5420	0.0006	0.00092	2e-05	0.00015	-0.00014	-0.00029	1e-05	-2e-05	2
5421	0.0006	0.00092	2e-05	0.00015	-0.00014	-0.00029	1e-05	-2e-05	2
5422	0.0006	0.00092	2e-05	0.00015	-0.00014	-0.00029	1e-05	-2e-05	2
5423	0.0006	0.00092	2e-05	0.00015	-0.00014	-0.00029	1e-05	-2e-05	2
5424	0.0006	0.00092	2e-05	0.00015	-0.00014	-0.00029	1e-05	-2e-05	2
5425	0.0006	0.00092	2e-05	0.00015	-0.00014	-0.00029	1e-05	-2e-05	2
5426	0.0006	0.00092	2e-05	0.00015	-0.00014	-0.00029	1e-05	-2e-05	2
5427	0.0006	0.00092	2e-05	0.00015	-0.00014	-0.00029	1e-05	-2e-05	2
5428	0.0006	0.00092	2e-05	0.00015	-0.00014	-0.00029	1e-05	-2e-05	2
5429	0.0006	0.00092	2e-05	0.00015	-0.00014	-0.00029	1e-05	-2e-05	2
5430	0.00095	0.00022	5e-05	0.00031	-0.00024	-9e-05	-8e-05	7e-05	2
5431	0.00095	0.00022	5e-05	0.00031	-0.00024	-9e-05	-8e-05	7e-05	2
5432	-0.00065	-0.00012	-0.00013	-0.00043	3e-05	-0.0001	-0.00018	-0.00024	2
5433	-0.00065	-0.00012	-0.00013	-0.00043	3e-05	-0.0001	-0.00018	-0.00024	2
5434	-0.00065	-0.00012	-0.00013	-0.00043	3e-05	-0.0001	-0.00018	-0.00024	2
5435	-0.00065	-0.00012	-0.00013	-0.00043	3e-05	-0.0001	-0.00018	-0.00024	2
5436	-0.00065	-0.00012	-0.00013	-0.00043	3e-05	-0.0001	-0.00018	-0.00024	2
5438	-0.00065	-0.00012	-0.00013	-0.00043	3e-05	-0.0001	-0.00018	-0.00024	2
5439	-0.00065	-0.00012	-0.00013	-0.00043	3e-05	-0.0001	-0.00018	-0.00024	2
5440	-0.00065	-0.00012	-0.00013	-0.00043	3e-05	-0.0001	-0.00018	-0.00024	2
5441	-0.00065	-0.00012	-0.00013	-0.00043	3e-05	-0.0001	-0.00018	-0.00024	2
5442	-0.00065	-0.00012	-0.00013	-0.00043	3e-05	-0.0001	-0.00018	-0.00024	2
5443	-0.00065	-0.00012	-0.00013	-0.00043	3e-05	-0.0001	-0.00018	-0.00024	2
5444	-0.00065	-0.00012	-0.00013	-0.00043	3e-05	-0.0001	-0.00018	-0.00024	2
5445	-0.00065	-0.00012	-0.00013	-0.00043	3e-05	-0.0001	-0.00018	-0.00024	2
5446	-0.00065	-0.00012	-0.00013	-0.00043	3e-05	-0.0001	-0.00018	-0.00024	2
5447	-0.00065	-0.00012	-0.00013	-0.00043	3e-05	-0.0001	-0.00018	-0.00024	2
5448	-0.00065	-0.00012	-0.00013	-0.00043	3e-05	-0.0001	-0.00018	-0.00024	2
5449	-0.00065	-0.00012	-0.00013	-0.00043	3e-05	-0.0001	-0.00018	-0.00024	2
5450	-0.00065	-0.00012	-0.00013	-0.00043	3e-05	-0.0001	-0.00018	-0.00024	2
5451	-0.00065	-0.00012	-0.00013	-0.00043	3e-05	-0.0001	-0.00018	-0.00024	2
5452	-0.00065	-0.00012	-0.00013	-0.00043	3e-05	-0.0001	-0.00018	-0.00024	2
5453	-0.00027	-4e-05	0	0.00015	0.00016	0.00011	0.00028	0.0002	2
5454	-2e-05	-0.00046	-0.0001	-9e-05	0.00021	0.00026	-0.00012	-0.00026	2
5455	-2e-05	-0.00046	-0.0001	-9e-05	0.00021	0.00026	-0.00012	-0.00026	2
5456	-2e-05	-0.00046	-0.0001	-9e-05	0.00021	0.00026	-0.00012	-0.00026	2
5457	-2e-05	-0.00046	-0.0001	-9e-05	0.00021	0.00026	-0.00012	-0.00026	2
5458	-2e-05	-0.00046	-0.0001	-9e-05	0.00021	0.00026	-0.00012	-0.00026	2
5459	-2e-05	-0.00046	-0.0001	-9e-05	0.00021	0.00026	-0.00012	-0.00026	2
5460	-2e-05	-0.00046	-0.0001	-9e-05	0.00021	0.00026	-0.00012	-0.00026	2
5461	-2e-05	-0.00046	-0.0001	-9e-05	0.00021	0.00026	-0.00012	-0.00026	2
5462	-2e-05	-0.00046	-0.0001	-9e-05	0.00021	0.00026	-0.00012	-0.00026	2
5463	-2e-05	-0.00046	-0.0001	-9e-05	0.00021	0.00026	-0.00012	-0.00026	2
5464	-2e-05	-0.00046	-0.0001	-9e-05	0.00021	0.00026	-0.00012	-0.00026	2
5465	-2e-05	-0.00046	-0.0001	-9e-05	0.00021	0.00026	-0.00012	-0.00026	2
5466	-0.00128	0.00016	7e-05	2e-05	-0.0003	0.00017	5e-05	-1e-05	2
5467	-0.00128	0.00016	7e-05	2e-05	-0.0003	0.00017	5e-05	-1e-05	2
5468	-0.00128	0.00016	7e-05	2e-05	-0.0003	0.00017	5e-05	-1e-05	2
5469	-0.00128	0.00016	7e-05	2e-05	-0.0003	0.00017	5e-05	-1e-05	2
5470	-0.00128	0.00016	7e-05	2e-05	-0.0003	0.00017	5e-05	-1e-05	2
5471	-0.00128	0.00016	7e-05	2e-05	-0.0003	0.00017	5e-05	-1e-05	2
5472	-0.00128	0.00016	7e-05	2e-05	-0.0003	0.00017	5e-05	-1e-05	2
5473	-0.00128	0.00016	7e-05	2e-05	-0.0003	0.00017	5e-05	-1e-05	2
5474	-0.00128	0.00016	7e-05	2e-05	-0.0003	0.00017	5e-05	-1e-05	2
5475	-0.00128	0.00016	7e-05	2e-05	-0.0003	0.00017	5e-05	-1e-05	2
5476	-0.00128	0.00016	7e-05	2e-05	-0.0003	0.00017	5e-05	-1e-05	2
5477	-0.00128	0.00016	7e-05	2e-05	-0.0003	0.00017	5e-05	-1e-05	2
5478	-0.00128	0.00016	7e-05	2e-05	-0.0003	0.00017	5e-05	-1e-05	2
5479	-0.00128	0.00016	7e-05	2e-05	-0.0003	0.00017	5e-05	-1e-05	2
5480	-0.00128	0.00016	7e-05	2e-05	-0.0003	0.00017	5e-05	-1e-05	2
5481	-0.00128	0.00016	7e-05	2e-05	-0.0003	0.00017	5e-05	-1e-05	2
5482	-0.00128	0.00016	7e-05	2e-05	-0.0003	0.00017	5e-05	-1e-05	2
5483	-0.00096	0.00023	2e-05	-0.00014	-0.0001	8e-05	4e-05	-5e-05	2
5484	-0.00096	0.00023	2e-05	-0.00014	-0.0001	8e-05	4e-05	-5e-05	2
5485	-0.00096	0.00023	2e-05	-0.00014	-0.0001	8e-05	4e-05	-5e-05	2
5486	-0.00096	0.00023	2e-05	-0.00014	-0.0001	8e-05	4e-05	-5e-05	2
5488	-0.00096	0.00023	2e-05	-0.00014	-0.0001	8e-05	4e-05	-5e-05	2
5489	-0.00096	0.00023	2e-05	-0.00014	-0.0001	8e-05	4e-05	-5e-05	2
5490	0.00067	-0.00031	2e-05	-0.00012	0.00019	2e-05	7e-05	0.00027	2
5491	0.00067	-0.00031	2e-05	-0.00012	0.00019	2e-05	7e-05	0.00027	2
5492	-0.00051	-0.00081	-0.0001	6e-05	-6e-05	-8e-05	-0.00028	-0.00048	2
5493	-0.00051	-0.00081	-0.0001	6e-05	-6e-05	-8e-05	-0.00028	-0.00048	2
5494	-0.00051	-0.00081	-0.0001	6e-05	-6e-05	-8e-05	-0.00028	-0.00048	2
5495	-0.00051	-0.00081	-0.0001	6e-05	-6e-05	-8e-05	-0.00028	-0.00048	2
5496	-0.00051	-0.00081	-0.0001	6e-05	-6e-05	-8e-05	-0.00028	-0.00048	2
5497	-0.00051	-0.00081	-0.0001	6e-05	-6e-05	-8e-05	-0.00028	-0.00048	2
5498	-0.00051	-0.00081	-0.0001	6e-05	-6e-05	-8e-05	-0.00028	-0.00048	2
5499	-0.00051	-0.00081	-0.0001	6e-05	-6e-05	-8e-05	-0.00028	-0.00048	2
5500	-0.00051	-0.00081	-0.0001	6e-05	-6e-05	-8e-05	-0.00028	-0.00048	2
5501	-0.00051	-0.00081	-0.0001	6e-05	-6e-05	-8e-05	-0.00028	-0.00048	2
5502	-0.00051	-0.00081	-0.0001	6e-05	-6e-05	-8e-05	-0.00028	-0.00048	2
5503	-0.00051	-0.00081	-0.0001	6e-05	-6e-05	-8e-05	-0.00028	-0.00048	2
5504	-0.00051	-0.00081	-0.0001	6e-05	-6e-05	-8e-05	-0.00028	-0.00048	2
5505	-0.00051	-0.00081	-0.0001	6e-05	-6e-05	-8e-05	-0.00028	-0.00048	2
5506	-0.00051	-0.00081	-0.0001	6e-05	-6e-05	-8e-05	-0.00028	-0.00048	2
5507	-0.00051	-0.00081	-0.0001	6e-05	-6e-05	-8e-05	-0.00028	-0.00048	2
5508	-0.00051	-0.00081	-0.0001	6e-05	-6e-05	-8e-05	-0.00028	-0.00048	2
5509	-0.00051	-0.00081	-0.0001	6e-05	-6e-05	-8e-05	-0.00028	-0.00048	2
5510	-0.00051	-0.00081	-0.0001	6e-05	-6e-05	-8e-05	-0.00028	-0.00048	2
5511	-0.00051	-0.00081	-0.0001	6e-05	-6e-05	-8e-05	-0.00028	-0.00048	2
5512	-0.00051	-0.00081	-0.0001	6e-05	-6e-05	-8e-05	-0.00028	-0.00048	2
5513	-0.00059	0.00023	1e-05	0	-6e-05	-0.0001	-0.00022	-0.00036	2
5514	-0.00091	-0.00012	0	0.00034	-0.0003	7e-05	-3e-05	0.00014	2
5515	-0.00023	-0.00048	-0.00026	-0.00084	-5e-05	-0.00017	-0.00016	-0.00054	2
5516	-0.00023	-0.00048	-0.00026	-0.00084	-5e-05	-0.00017	-0.00016	-0.00054	2
5517	-0.00023	-0.00048	-0.00026	-0.00084	-5e-05	-0.00017	-0.00016	-0.00054	2
5518	-0.00023	-0.00048	-0.00026	-0.00084	-5e-05	-0.00017	-0.00016	-0.00054	2
5519	-0.00023	-0.00048	-0.00026	-0.00084	-5e-05	-0.00017	-0.00016	-0.00054	2
5520	-0.00023	-0.00048	-0.00026	-0.00084	-5e-05	-0.00017	-0.00016	-0.00054	2
5521	-0.00023	-0.00048	-0.00026	-0.00084	-5e-05	-0.00017	-0.00016	-0.00054	2
5522	-0.00023	-0.00048	-0.00026	-0.00084	-5e-05	-0.00017	-0.00016	-0.00054	2
5523	-0.00023	-0.00048	-0.00026	-0.00084	-5e-05	-0.00017	-0.00016	-0.00054	2
5524	-0.00023	-0.00048	-0.00026	-0.00084	-5e-05	-0.00017	-0.00016	-0.00054	2
5525	-0.00023	-0.00048	-0.00026	-0.00084	-5e-05	-0.00017	-0.00016	-0.00054	2
5526	0.00067	-3e-05	-7e-05	-0.00023	0.00011	6e-05	9e-05	0.00014	2
5527	0.00067	-3e-05	-7e-05	-0.00023	0.00011	6e-05	9e-05	0.00014	2
5528	0.00067	-3e-05	-7e-05	-0.00023	0.00011	6e-05	9e-05	0.00014	2
5529	0.00067	-3e-05	-7e-05	-0.00023	0.00011	6e-05	9e-05	0.00014	2
5530	0.00067	-3e-05	-7e-05	-0.00023	0.00011	6e-05	9e-05	0.00014	2
5531	0.00067	-3e-05	-7e-05	-0.00023	0.00011	6e-05	9e-05	0.00014	2
5532	0.00067	-3e-05	-7e-05	-0.00023	0.00011	6e-05	9e-05	0.00014	2
5533	0.00067	-3e-05	-7e-05	-0.00023	0.00011	6e-05	9e-05	0.00014	2
5534	0.00067	-3e-05	-7e-05	-0.00023	0.00011	6e-05	9e-05	0.00014	2
5535	0.00067	-3e-05	-7e-05	-0.00023	0.00011	6e-05	9e-05	0.00014	2
5536	-0.00098	0.0001	-3e-05	-0.00013	-0.0001	0	-0.00011	-0.0002	2
5538	-0.00098	0.0001	-3e-05	-0.00013	-0.0001	0	-0.00011	-0.0002	2
5539	-0.00098	0.0001	-3e-05	-0.00013	-0.0001	0	-0.00011	-0.0002	2
5540	-0.00098	0.0001	-3e-05	-0.00013	-0.0001	0	-0.00011	-0.0002	2
5541	-0.00098	0.0001	-3e-05	-0.00013	-0.0001	0	-0.00011	-0.0002	2
5542	-0.00098	0.0001	-3e-05	-0.00013	-0.0001	0	-0.00011	-0.0002	2
5543	-0.00098	0.0001	-3e-05	-0.00013	-0.0001	0	-0.00011	-0.0002	2
5544	-0.00098	0.0001	-3e-05	-0.00013	-0.0001	0	-0.00011	-0.0002	2
5545	-0.00098	0.0001	-3e-05	-0.00013	-0.0001	0	-0.00011	-0.0002	2
5546	-0.00098	0.0001	-3e-05	-0.00013	-0.0001	0	-0.00011	-0.0002	2
5547	-0.00098	0.0001	-3e-05	-0.00013	-0.0001	0	-0.00011	-0.0002	2
5548	-0.00098	0.0001	-3e-05	-0.00013	-0.0001	0	-0.00011	-0.0002	2
5549	-0.00098	0.0001	-3e-05	-0.00013	-0.0001	0	-0.00011	-0.0002	2
5550	-0.00038	-0.00013	6e-05	0.00038	0.00016	0.00014	0.00032	0.00051	2
5551	-0.00038	-0.00013	6e-05	0.00038	0.00016	0.00014	0.00032	0.00051	2
5552	0.00048	0.00044	6e-05	0.0003	0.00034	2e-05	8e-05	0.00023	2
5553	0.00048	0.00044	6e-05	0.0003	0.00034	2e-05	8e-05	0.00023	2
5554	0.00048	0.00044	6e-05	0.0003	0.00034	2e-05	8e-05	0.00023	2
5555	0.00048	0.00044	6e-05	0.0003	0.00034	2e-05	8e-05	0.00023	2
5556	0.00048	0.00044	6e-05	0.0003	0.00034	2e-05	8e-05	0.00023	2
5557	0.00048	0.00044	6e-05	0.0003	0.00034	2e-05	8e-05	0.00023	2
5558	0.00048	0.00044	6e-05	0.0003	0.00034	2e-05	8e-05	0.00023	2
5559	0.00048	0.00044	6e-05	0.0003	0.00034	2e-05	8e-05	0.00023	2
5560	0.00048	0.00044	6e-05	0.0003	0.00034	2e-05	8e-05	0.00023	2
5561	0.00048	0.00044	6e-05	0.0003	0.00034	2e-05	8e-05	0.00023	2
5562	0.00048	0.00044	6e-05	0.0003	0.00034	2e-05	8e-05	0.00023	2
5563	0.00048	0.00044	6e-05	0.0003	0.00034	2e-05	8e-05	0.00023	2
5564	0.00048	0.00044	6e-05	0.0003	0.00034	2e-05	8e-05	0.00023	2
5565	0.00048	0.00044	6e-05	0.0003	0.00034	2e-05	8e-05	0.00023	2
5566	0.00048	0.00044	6e-05	0.0003	0.00034	2e-05	8e-05	0.00023	2
5567	0.00048	0.00044	6e-05	0.0003	0.00034	2e-05	8e-05	0.00023	2
5568	0.00048	0.00044	6e-05	0.0003	0.00034	2e-05	8e-05	0.00023	2
5569	0.00048	0.00044	6e-05	0.0003	0.00034	2e-05	8e-05	0.00023	2
5570	0.00048	0.00044	6e-05	0.0003	0.00034	2e-05	8e-05	0.00023	2
5571	0.00048	0.00044	6e-05	0.0003	0.00034	2e-05	8e-05	0.00023	2
5572	0.00048	0.00044	6e-05	0.0003	0.00034	2e-05	8e-05	0.00023	2
5573	-0.00048	-0.00047	-0.00023	-0.00033	-6e-05	-0.00036	-0.00035	-0.00054	2
5574	0.00071	0.00044	0.00014	0.00016	-9e-05	6e-05	0.00015	0.00026	2
5575	0.00071	0.00044	0.00014	0.00016	-9e-05	6e-05	0.00015	0.00026	2
5576	0.00071	0.00044	0.00014	0.00016	-9e-05	6e-05	0.00015	0.00026	2
5577	0.00071	0.00044	0.00014	0.00016	-9e-05	6e-05	0.00015	0.00026	2
5578	0.00071	0.00044	0.00014	0.00016	-9e-05	6e-05	0.00015	0.00026	2
5579	0.00071	0.00044	0.00014	0.00016	-9e-05	6e-05	0.00015	0.00026	2
5580	0.00071	0.00044	0.00014	0.00016	-9e-05	6e-05	0.00015	0.00026	2
5581	0.00071	0.00044	0.00014	0.00016	-9e-05	6e-05	0.00015	0.00026	2
5582	0.00071	0.00044	0.00014	0.00016	-9e-05	6e-05	0.00015	0.00026	2
5583	0.00071	0.00044	0.00014	0.00016	-9e-05	6e-05	0.00015	0.00026	2
5584	0.00071	0.00044	0.00014	0.00016	-9e-05	6e-05	0.00015	0.00026	2
5585	0.00071	0.00044	0.00014	0.00016	-9e-05	6e-05	0.00015	0.00026	2
5586	0.00071	0.00044	0.00014	0.00016	-9e-05	6e-05	0.00015	0.00026	2
5588	0.00071	0.00044	0.00014	0.00016	-9e-05	6e-05	0.00015	0.00026	2
5589	0.00071	0.00044	0.00014	0.00016	-9e-05	6e-05	0.00015	0.00026	2
5590	0.00071	0.00044	0.00014	0.00016	-9e-05	6e-05	0.00015	0.00026	2
5591	0.00071	0.00044	0.00014	0.00016	-9e-05	6e-05	0.00015	0.00026	2
5592	0.00071	0.00044	0.00014	0.00016	-9e-05	6e-05	0.00015	0.00026	2
5593	0.00071	0.00044	0.00014	0.00016	-9e-05	6e-05	0.00015	0.00026	2
5594	0.00071	0.00044	0.00014	0.00016	-9e-05	6e-05	0.00015	0.00026	2
5595	9e-05	0.00012	-2e-05	0.00015	-0.00019	-1e-05	-5e-05	-0.00013	2
5596	9e-05	0.00012	-2e-05	0.00015	-0.00019	-1e-05	-5e-05	-0.00013	2
5597	0.00096	9e-05	-1e-05	0.00011	0.00022	0	-7e-05	-0.00023	2
5598	0.00096	9e-05	-1e-05	0.00011	0.00022	0	-7e-05	-0.00023	2
5599	0.00096	9e-05	-1e-05	0.00011	0.00022	0	-7e-05	-0.00023	2
5600	0.00096	9e-05	-1e-05	0.00011	0.00022	0	-7e-05	-0.00023	2
5601	0.00096	9e-05	-1e-05	0.00011	0.00022	0	-7e-05	-0.00023	2
5602	0.00096	9e-05	-1e-05	0.00011	0.00022	0	-7e-05	-0.00023	2
5603	0.00096	9e-05	-1e-05	0.00011	0.00022	0	-7e-05	-0.00023	2
5604	0.00096	9e-05	-1e-05	0.00011	0.00022	0	-7e-05	-0.00023	2
5605	0.00096	9e-05	-1e-05	0.00011	0.00022	0	-7e-05	-0.00023	2
5606	0.00096	9e-05	-1e-05	0.00011	0.00022	0	-7e-05	-0.00023	2
5607	0.00096	9e-05	-1e-05	0.00011	0.00022	0	-7e-05	-0.00023	2
5608	0.00096	9e-05	-1e-05	0.00011	0.00022	0	-7e-05	-0.00023	2
5609	0.00096	9e-05	-1e-05	0.00011	0.00022	0	-7e-05	-0.00023	2
5610	0.00106	-0.00048	-3e-05	2e-05	-1e-05	0.00012	0.00015	0.00034	2
5611	0.00106	-0.00048	-3e-05	2e-05	-1e-05	0.00012	0.00015	0.00034	2
5612	-0.00037	-3e-05	-4e-05	-0.00011	-3e-05	-0.00016	-0.00031	-0.00047	2
5613	-0.00037	-3e-05	-4e-05	-0.00011	-3e-05	-0.00016	-0.00031	-0.00047	2
5614	-0.00037	-3e-05	-4e-05	-0.00011	-3e-05	-0.00016	-0.00031	-0.00047	2
5615	-0.00037	-3e-05	-4e-05	-0.00011	-3e-05	-0.00016	-0.00031	-0.00047	2
5616	-0.00037	-3e-05	-4e-05	-0.00011	-3e-05	-0.00016	-0.00031	-0.00047	2
5617	-0.00037	-3e-05	-4e-05	-0.00011	-3e-05	-0.00016	-0.00031	-0.00047	2
5618	-0.00037	-3e-05	-4e-05	-0.00011	-3e-05	-0.00016	-0.00031	-0.00047	2
5619	-0.00037	-3e-05	-4e-05	-0.00011	-3e-05	-0.00016	-0.00031	-0.00047	2
5620	-0.00037	-3e-05	-4e-05	-0.00011	-3e-05	-0.00016	-0.00031	-0.00047	2
5621	-0.00037	-3e-05	-4e-05	-0.00011	-3e-05	-0.00016	-0.00031	-0.00047	2
5622	-0.00037	-3e-05	-4e-05	-0.00011	-3e-05	-0.00016	-0.00031	-0.00047	2
5623	-0.00037	-3e-05	-4e-05	-0.00011	-3e-05	-0.00016	-0.00031	-0.00047	2
5624	-0.00037	-3e-05	-4e-05	-0.00011	-3e-05	-0.00016	-0.00031	-0.00047	2
5625	-0.00037	-3e-05	-4e-05	-0.00011	-3e-05	-0.00016	-0.00031	-0.00047	2
5626	-0.00037	-3e-05	-4e-05	-0.00011	-3e-05	-0.00016	-0.00031	-0.00047	2
5627	-0.00037	-3e-05	-4e-05	-0.00011	-3e-05	-0.00016	-0.00031	-0.00047	2
5628	-0.00037	-3e-05	-4e-05	-0.00011	-3e-05	-0.00016	-0.00031	-0.00047	2
5629	-0.00037	-3e-05	-4e-05	-0.00011	-3e-05	-0.00016	-0.00031	-0.00047	2
5630	-0.00037	-3e-05	-4e-05	-0.00011	-3e-05	-0.00016	-0.00031	-0.00047	2
5631	-0.00037	-3e-05	-4e-05	-0.00011	-3e-05	-0.00016	-0.00031	-0.00047	2
5632	-0.00037	-3e-05	-4e-05	-0.00011	-3e-05	-0.00016	-0.00031	-0.00047	2
5633	-0.00128	0.00063	5e-05	0.00013	0.00055	0.0001	-7e-05	-0.00022	2
5634	-0.00128	0.00063	5e-05	0.00013	0.00055	0.0001	-7e-05	-0.00022	2
5635	-0.00112	0.00059	0.0001	0.00044	0.00033	0.0003	0.00036	0.00042	2
5636	-0.00112	0.00059	0.0001	0.00044	0.00033	0.0003	0.00036	0.00042	2
5638	-0.00112	0.00059	0.0001	0.00044	0.00033	0.0003	0.00036	0.00042	2
5639	-0.00112	0.00059	0.0001	0.00044	0.00033	0.0003	0.00036	0.00042	2
5640	-0.00112	0.00059	0.0001	0.00044	0.00033	0.0003	0.00036	0.00042	2
5641	-0.00112	0.00059	0.0001	0.00044	0.00033	0.0003	0.00036	0.00042	2
5642	-0.00112	0.00059	0.0001	0.00044	0.00033	0.0003	0.00036	0.00042	2
5643	-0.00112	0.00059	0.0001	0.00044	0.00033	0.0003	0.00036	0.00042	2
5644	-0.00112	0.00059	0.0001	0.00044	0.00033	0.0003	0.00036	0.00042	2
5645	-0.00112	0.00059	0.0001	0.00044	0.00033	0.0003	0.00036	0.00042	2
5646	-0.00112	0.00059	0.0001	0.00044	0.00033	0.0003	0.00036	0.00042	2
5647	0.00069	3e-05	-8e-05	-0.00015	0.00021	7e-05	-2e-05	9e-05	2
5648	0.00069	3e-05	-8e-05	-0.00015	0.00021	7e-05	-2e-05	9e-05	2
5649	0.00069	3e-05	-8e-05	-0.00015	0.00021	7e-05	-2e-05	9e-05	2
5650	0.00069	3e-05	-8e-05	-0.00015	0.00021	7e-05	-2e-05	9e-05	2
5651	0.00069	3e-05	-8e-05	-0.00015	0.00021	7e-05	-2e-05	9e-05	2
5652	0.00069	3e-05	-8e-05	-0.00015	0.00021	7e-05	-2e-05	9e-05	2
5653	0.00069	3e-05	-8e-05	-0.00015	0.00021	7e-05	-2e-05	9e-05	2
5654	0.00069	3e-05	-8e-05	-0.00015	0.00021	7e-05	-2e-05	9e-05	2
5655	-0.00114	-0.00033	0.0001	-1e-05	9e-05	-5e-05	7e-05	0.00028	2
5656	-0.00114	-0.00033	0.0001	-1e-05	9e-05	-5e-05	7e-05	0.00028	2
5657	-0.00114	-0.00033	0.0001	-1e-05	9e-05	-5e-05	7e-05	0.00028	2
5658	-0.00114	-0.00033	0.0001	-1e-05	9e-05	-5e-05	7e-05	0.00028	2
5659	-0.00114	-0.00033	0.0001	-1e-05	9e-05	-5e-05	7e-05	0.00028	2
5660	-0.00114	-0.00033	0.0001	-1e-05	9e-05	-5e-05	7e-05	0.00028	2
5661	-0.00114	-0.00033	0.0001	-1e-05	9e-05	-5e-05	7e-05	0.00028	2
5662	-0.00114	-0.00033	0.0001	-1e-05	9e-05	-5e-05	7e-05	0.00028	2
5663	-0.00114	-0.00033	0.0001	-1e-05	9e-05	-5e-05	7e-05	0.00028	2
5664	-0.00114	-0.00033	0.0001	-1e-05	9e-05	-5e-05	7e-05	0.00028	2
5665	-0.00114	-0.00033	0.0001	-1e-05	9e-05	-5e-05	7e-05	0.00028	2
5666	-0.00114	-0.00033	0.0001	-1e-05	9e-05	-5e-05	7e-05	0.00028	2
5667	-0.00114	-0.00033	0.0001	-1e-05	9e-05	-5e-05	7e-05	0.00028	2
5668	-0.00114	-0.00033	0.0001	-1e-05	9e-05	-5e-05	7e-05	0.00028	2
5669	-0.00114	-0.00033	0.0001	-1e-05	9e-05	-5e-05	7e-05	0.00028	2
5670	0	-4e-05	-0.0001	-0.00092	-3e-05	-0.0001	1e-05	5e-05	2
5671	0	-4e-05	-0.0001	-0.00092	-3e-05	-0.0001	1e-05	5e-05	2
5672	-0.00097	0.00068	0.00018	-2e-05	-0.00015	-0.00014	0.00015	0.00019	2
5673	-0.00097	0.00068	0.00018	-2e-05	-0.00015	-0.00014	0.00015	0.00019	2
5674	-0.00097	0.00068	0.00018	-2e-05	-0.00015	-0.00014	0.00015	0.00019	2
5675	-0.00097	0.00068	0.00018	-2e-05	-0.00015	-0.00014	0.00015	0.00019	2
5676	-0.00097	0.00068	0.00018	-2e-05	-0.00015	-0.00014	0.00015	0.00019	2
5677	-0.00097	0.00068	0.00018	-2e-05	-0.00015	-0.00014	0.00015	0.00019	2
5678	-0.00097	0.00068	0.00018	-2e-05	-0.00015	-0.00014	0.00015	0.00019	2
5679	-0.00097	0.00068	0.00018	-2e-05	-0.00015	-0.00014	0.00015	0.00019	2
5680	-0.00097	0.00068	0.00018	-2e-05	-0.00015	-0.00014	0.00015	0.00019	2
5681	-0.00097	0.00068	0.00018	-2e-05	-0.00015	-0.00014	0.00015	0.00019	2
5682	-0.00097	0.00068	0.00018	-2e-05	-0.00015	-0.00014	0.00015	0.00019	2
5683	-0.00097	0.00068	0.00018	-2e-05	-0.00015	-0.00014	0.00015	0.00019	2
5684	-0.00097	0.00068	0.00018	-2e-05	-0.00015	-0.00014	0.00015	0.00019	2
5685	-0.00097	0.00068	0.00018	-2e-05	-0.00015	-0.00014	0.00015	0.00019	2
5686	-0.00097	0.00068	0.00018	-2e-05	-0.00015	-0.00014	0.00015	0.00019	2
5688	-0.00097	0.00068	0.00018	-2e-05	-0.00015	-0.00014	0.00015	0.00019	2
5689	-0.00097	0.00068	0.00018	-2e-05	-0.00015	-0.00014	0.00015	0.00019	2
5690	-0.00097	0.00068	0.00018	-2e-05	-0.00015	-0.00014	0.00015	0.00019	2
5691	-0.00097	0.00068	0.00018	-2e-05	-0.00015	-0.00014	0.00015	0.00019	2
5692	-0.00097	0.00068	0.00018	-2e-05	-0.00015	-0.00014	0.00015	0.00019	2
5693	0.00058	-0.00057	1e-05	0.00016	0.00011	2e-05	6e-05	3e-05	2
5694	-0.00031	-0.00045	-9e-05	1e-05	-0.00026	-6e-05	-0.00013	-0.00012	2
5695	-0.00031	-0.00045	-9e-05	1e-05	-0.00026	-6e-05	-0.00013	-0.00012	2
5696	-0.00031	-0.00045	-9e-05	1e-05	-0.00026	-6e-05	-0.00013	-0.00012	2
5697	-0.00031	-0.00045	-9e-05	1e-05	-0.00026	-6e-05	-0.00013	-0.00012	2
5698	-0.00031	-0.00045	-9e-05	1e-05	-0.00026	-6e-05	-0.00013	-0.00012	2
5699	-0.00031	-0.00045	-9e-05	1e-05	-0.00026	-6e-05	-0.00013	-0.00012	2
5700	-0.00031	-0.00045	-9e-05	1e-05	-0.00026	-6e-05	-0.00013	-0.00012	2
5701	-0.00031	-0.00045	-9e-05	1e-05	-0.00026	-6e-05	-0.00013	-0.00012	2
5702	-0.00031	-0.00045	-9e-05	1e-05	-0.00026	-6e-05	-0.00013	-0.00012	2
5703	-0.00031	-0.00045	-9e-05	1e-05	-0.00026	-6e-05	-0.00013	-0.00012	2
5704	-0.00031	-0.00045	-9e-05	1e-05	-0.00026	-6e-05	-0.00013	-0.00012	2
5705	-0.00031	-0.00045	-9e-05	1e-05	-0.00026	-6e-05	-0.00013	-0.00012	2
5706	-0.00031	-0.00045	-9e-05	1e-05	-0.00026	-6e-05	-0.00013	-0.00012	2
5707	-0.00055	0.00012	2e-05	2e-05	-0.0002	0.00012	0.00014	-2e-05	2
5708	-0.00055	0.00012	2e-05	2e-05	-0.0002	0.00012	0.00014	-2e-05	2
5709	-0.00055	0.00012	2e-05	2e-05	-0.0002	0.00012	0.00014	-2e-05	2
5710	-0.00055	0.00012	2e-05	2e-05	-0.0002	0.00012	0.00014	-2e-05	2
5711	-0.00055	0.00012	2e-05	2e-05	-0.0002	0.00012	0.00014	-2e-05	2
5712	-0.00055	0.00012	2e-05	2e-05	-0.0002	0.00012	0.00014	-2e-05	2
5713	-0.00055	0.00012	2e-05	2e-05	-0.0002	0.00012	0.00014	-2e-05	2
5714	-0.00055	0.00012	2e-05	2e-05	-0.0002	0.00012	0.00014	-2e-05	2
5715	-0.00055	0.00012	2e-05	2e-05	-0.0002	0.00012	0.00014	-2e-05	2
5716	0.00076	-0.00038	6e-05	0.00014	0	9e-05	8e-05	0.0003	2
5717	0.00076	-0.00038	6e-05	0.00014	0	9e-05	8e-05	0.0003	2
5718	0.00076	-0.00038	6e-05	0.00014	0	9e-05	8e-05	0.0003	2
5719	0.00076	-0.00038	6e-05	0.00014	0	9e-05	8e-05	0.0003	2
5720	0.00076	-0.00038	6e-05	0.00014	0	9e-05	8e-05	0.0003	2
5721	0.00076	-0.00038	6e-05	0.00014	0	9e-05	8e-05	0.0003	2
5722	0.00076	-0.00038	6e-05	0.00014	0	9e-05	8e-05	0.0003	2
5723	0.00076	-0.00038	6e-05	0.00014	0	9e-05	8e-05	0.0003	2
5724	0.00076	-0.00038	6e-05	0.00014	0	9e-05	8e-05	0.0003	2
5725	0.00076	-0.00038	6e-05	0.00014	0	9e-05	8e-05	0.0003	2
5726	0.00076	-0.00038	6e-05	0.00014	0	9e-05	8e-05	0.0003	2
5727	0.00076	-0.00038	6e-05	0.00014	0	9e-05	8e-05	0.0003	2
5728	0.00076	-0.00038	6e-05	0.00014	0	9e-05	8e-05	0.0003	2
5729	0.00076	-0.00038	6e-05	0.00014	0	9e-05	8e-05	0.0003	2
5730	-0.00055	0.00023	1e-05	-4e-05	-0.00023	-0.00012	-0.00023	-0.00024	2
5731	-0.00055	0.00023	1e-05	-4e-05	-0.00023	-0.00012	-0.00023	-0.00024	2
5732	-0.00088	0.00013	6e-05	0.00025	-0.00014	-3e-05	6e-05	0.00016	2
5733	-0.00088	0.00013	6e-05	0.00025	-0.00014	-3e-05	6e-05	0.00016	2
5734	-0.00088	0.00013	6e-05	0.00025	-0.00014	-3e-05	6e-05	0.00016	2
5735	-0.00088	0.00013	6e-05	0.00025	-0.00014	-3e-05	6e-05	0.00016	2
5736	-0.00088	0.00013	6e-05	0.00025	-0.00014	-3e-05	6e-05	0.00016	2
5738	-0.00088	0.00013	6e-05	0.00025	-0.00014	-3e-05	6e-05	0.00016	2
5739	-0.00088	0.00013	6e-05	0.00025	-0.00014	-3e-05	6e-05	0.00016	2
5740	-0.00088	0.00013	6e-05	0.00025	-0.00014	-3e-05	6e-05	0.00016	2
5741	-0.00088	0.00013	6e-05	0.00025	-0.00014	-3e-05	6e-05	0.00016	2
5742	-0.00088	0.00013	6e-05	0.00025	-0.00014	-3e-05	6e-05	0.00016	2
5743	-0.00088	0.00013	6e-05	0.00025	-0.00014	-3e-05	6e-05	0.00016	2
5744	-0.00088	0.00013	6e-05	0.00025	-0.00014	-3e-05	6e-05	0.00016	2
5745	-0.00088	0.00013	6e-05	0.00025	-0.00014	-3e-05	6e-05	0.00016	2
5746	-0.00088	0.00013	6e-05	0.00025	-0.00014	-3e-05	6e-05	0.00016	2
5747	-0.00088	0.00013	6e-05	0.00025	-0.00014	-3e-05	6e-05	0.00016	2
5748	-0.00088	0.00013	6e-05	0.00025	-0.00014	-3e-05	6e-05	0.00016	2
5749	-0.00088	0.00013	6e-05	0.00025	-0.00014	-3e-05	6e-05	0.00016	2
5750	-0.00088	0.00013	6e-05	0.00025	-0.00014	-3e-05	6e-05	0.00016	2
5751	-0.00088	0.00013	6e-05	0.00025	-0.00014	-3e-05	6e-05	0.00016	2
5752	-0.00088	0.00013	6e-05	0.00025	-0.00014	-3e-05	6e-05	0.00016	2
5753	-0.00088	0.00013	6e-05	0.00025	-0.00014	-3e-05	6e-05	0.00016	2
5754	-0.00088	0.00013	6e-05	0.00025	-0.00014	-3e-05	6e-05	0.00016	2
5755	-0.00088	0.00013	6e-05	0.00025	-0.00014	-3e-05	6e-05	0.00016	2
5756	-0.00088	0.00013	6e-05	0.00025	-0.00014	-3e-05	6e-05	0.00016	2
5757	-0.00088	0.00013	6e-05	0.00025	-0.00014	-3e-05	6e-05	0.00016	2
5758	-0.00088	0.00013	6e-05	0.00025	-0.00014	-3e-05	6e-05	0.00016	2
5759	-0.00088	0.00013	6e-05	0.00025	-0.00014	-3e-05	6e-05	0.00016	2
5760	0.00048	-0.0002	0	0.00033	0.00012	0.00012	-5e-05	9e-05	2
5761	0.00048	-0.0002	0	0.00033	0.00012	0.00012	-5e-05	9e-05	2
5762	-0.00054	5e-05	-3e-05	-0.0002	-2e-05	-0.0001	-0.00027	-0.00057	2
5763	-0.00054	5e-05	-3e-05	-0.0002	-2e-05	-0.0001	-0.00027	-0.00057	2
5764	-0.00054	5e-05	-3e-05	-0.0002	-2e-05	-0.0001	-0.00027	-0.00057	2
5765	-0.00054	5e-05	-3e-05	-0.0002	-2e-05	-0.0001	-0.00027	-0.00057	2
5766	-0.00054	5e-05	-3e-05	-0.0002	-2e-05	-0.0001	-0.00027	-0.00057	2
5767	0.00022	0.00022	-5e-05	-0.00025	0.00036	-0.00011	7e-05	0.00011	2
5768	0.00022	0.00022	-5e-05	-0.00025	0.00036	-0.00011	7e-05	0.00011	2
5769	0.00022	0.00022	-5e-05	-0.00025	0.00036	-0.00011	7e-05	0.00011	2
5770	0.00022	0.00022	-5e-05	-0.00025	0.00036	-0.00011	7e-05	0.00011	2
5771	0.00022	0.00022	-5e-05	-0.00025	0.00036	-0.00011	7e-05	0.00011	2
5772	0.00022	0.00022	-5e-05	-0.00025	0.00036	-0.00011	7e-05	0.00011	2
5773	0.00022	0.00022	-5e-05	-0.00025	0.00036	-0.00011	7e-05	0.00011	2
5774	0.00022	0.00022	-5e-05	-0.00025	0.00036	-0.00011	7e-05	0.00011	2
5775	0.00082	-9e-05	-6e-05	2e-05	6e-05	0.00011	0.00012	0.00029	2
5776	0.00082	-9e-05	-6e-05	2e-05	6e-05	0.00011	0.00012	0.00029	2
5777	0.00082	-9e-05	-6e-05	2e-05	6e-05	0.00011	0.00012	0.00029	2
5778	0.00082	-9e-05	-6e-05	2e-05	6e-05	0.00011	0.00012	0.00029	2
5779	0.00082	-9e-05	-6e-05	2e-05	6e-05	0.00011	0.00012	0.00029	2
5780	0.00082	-9e-05	-6e-05	2e-05	6e-05	0.00011	0.00012	0.00029	2
5781	0.00082	-9e-05	-6e-05	2e-05	6e-05	0.00011	0.00012	0.00029	2
5782	0.00082	-9e-05	-6e-05	2e-05	6e-05	0.00011	0.00012	0.00029	2
5783	0.00082	-9e-05	-6e-05	2e-05	6e-05	0.00011	0.00012	0.00029	2
5784	0.00082	-9e-05	-6e-05	2e-05	6e-05	0.00011	0.00012	0.00029	2
5785	0.00082	-9e-05	-6e-05	2e-05	6e-05	0.00011	0.00012	0.00029	2
5786	0.00082	-9e-05	-6e-05	2e-05	6e-05	0.00011	0.00012	0.00029	2
5788	0.00082	-9e-05	-6e-05	2e-05	6e-05	0.00011	0.00012	0.00029	2
5789	0.00082	-9e-05	-6e-05	2e-05	6e-05	0.00011	0.00012	0.00029	2
5790	0.00066	0.00016	6e-05	0.00027	-0.00013	5e-05	-5e-05	0.00011	2
5791	0.00066	0.00016	6e-05	0.00027	-0.00013	5e-05	-5e-05	0.00011	2
5792	0.00038	-0.00011	-0.00013	-0.0003	0.00029	-2e-05	0.00016	0.00012	2
5793	0.00038	-0.00011	-0.00013	-0.0003	0.00029	-2e-05	0.00016	0.00012	2
5794	0.00038	-0.00011	-0.00013	-0.0003	0.00029	-2e-05	0.00016	0.00012	2
5795	0.00038	-0.00011	-0.00013	-0.0003	0.00029	-2e-05	0.00016	0.00012	2
5796	0.00038	-0.00011	-0.00013	-0.0003	0.00029	-2e-05	0.00016	0.00012	2
5797	0.00038	-0.00011	-0.00013	-0.0003	0.00029	-2e-05	0.00016	0.00012	2
5798	0.00038	-0.00011	-0.00013	-0.0003	0.00029	-2e-05	0.00016	0.00012	2
5799	0.00038	-0.00011	-0.00013	-0.0003	0.00029	-2e-05	0.00016	0.00012	2
5800	0.00038	-0.00011	-0.00013	-0.0003	0.00029	-2e-05	0.00016	0.00012	2
5801	0.00038	-0.00011	-0.00013	-0.0003	0.00029	-2e-05	0.00016	0.00012	2
5802	0.00038	-0.00011	-0.00013	-0.0003	0.00029	-2e-05	0.00016	0.00012	2
5803	0.00038	-0.00011	-0.00013	-0.0003	0.00029	-2e-05	0.00016	0.00012	2
5804	0.00038	-0.00011	-0.00013	-0.0003	0.00029	-2e-05	0.00016	0.00012	2
5805	0.00038	-0.00011	-0.00013	-0.0003	0.00029	-2e-05	0.00016	0.00012	2
5806	0.00038	-0.00011	-0.00013	-0.0003	0.00029	-2e-05	0.00016	0.00012	2
5807	0.00038	-0.00011	-0.00013	-0.0003	0.00029	-2e-05	0.00016	0.00012	2
5808	0.00038	-0.00011	-0.00013	-0.0003	0.00029	-2e-05	0.00016	0.00012	2
5809	0.00038	-0.00011	-0.00013	-0.0003	0.00029	-2e-05	0.00016	0.00012	2
5810	0.00038	-0.00011	-0.00013	-0.0003	0.00029	-2e-05	0.00016	0.00012	2
5811	0.00038	-0.00011	-0.00013	-0.0003	0.00029	-2e-05	0.00016	0.00012	2
5812	0.00028	1e-05	3e-05	0.00029	9e-05	8e-05	0.00017	0.00026	2
5813	0.00028	1e-05	3e-05	0.00029	9e-05	8e-05	0.00017	0.00026	2
5814	0.00028	1e-05	3e-05	0.00029	9e-05	8e-05	0.00017	0.00026	2
5815	0.00028	1e-05	3e-05	0.00029	9e-05	8e-05	0.00017	0.00026	2
5816	0.00028	1e-05	3e-05	0.00029	9e-05	8e-05	0.00017	0.00026	2
5817	0.00028	1e-05	3e-05	0.00029	9e-05	8e-05	0.00017	0.00026	2
5818	0.00028	1e-05	3e-05	0.00029	9e-05	8e-05	0.00017	0.00026	2
5819	0.00028	1e-05	3e-05	0.00029	9e-05	8e-05	0.00017	0.00026	2
5820	-0.00048	-3e-05	-5e-05	0.00014	-0.00015	-1e-05	-0.00028	-0.00029	2
5821	-0.00048	-3e-05	-5e-05	0.00014	-0.00015	-1e-05	-0.00028	-0.00029	2
5822	-0.00048	-3e-05	-5e-05	0.00014	-0.00015	-1e-05	-0.00028	-0.00029	2
5823	-0.00048	-3e-05	-5e-05	0.00014	-0.00015	-1e-05	-0.00028	-0.00029	2
5824	-0.00048	-3e-05	-5e-05	0.00014	-0.00015	-1e-05	-0.00028	-0.00029	2
5825	-0.00048	-3e-05	-5e-05	0.00014	-0.00015	-1e-05	-0.00028	-0.00029	2
5826	-0.00048	-3e-05	-5e-05	0.00014	-0.00015	-1e-05	-0.00028	-0.00029	2
5827	-0.00048	-3e-05	-5e-05	0.00014	-0.00015	-1e-05	-0.00028	-0.00029	2
5828	-0.00048	-3e-05	-5e-05	0.00014	-0.00015	-1e-05	-0.00028	-0.00029	2
5829	-0.00048	-3e-05	-5e-05	0.00014	-0.00015	-1e-05	-0.00028	-0.00029	2
5830	-0.00048	-3e-05	-5e-05	0.00014	-0.00015	-1e-05	-0.00028	-0.00029	2
5831	-0.00048	-3e-05	-5e-05	0.00014	-0.00015	-1e-05	-0.00028	-0.00029	2
5832	-0.00048	-3e-05	-5e-05	0.00014	-0.00015	-1e-05	-0.00028	-0.00029	2
5833	-0.00048	-3e-05	-5e-05	0.00014	-0.00015	-1e-05	-0.00028	-0.00029	2
5834	-0.00048	-3e-05	-5e-05	0.00014	-0.00015	-1e-05	-0.00028	-0.00029	2
5835	-0.00048	-3e-05	-5e-05	0.00014	-0.00015	-1e-05	-0.00028	-0.00029	2
5836	-0.00048	-3e-05	-5e-05	0.00014	-0.00015	-1e-05	-0.00028	-0.00029	2
5838	-0.00048	-3e-05	-5e-05	0.00014	-0.00015	-1e-05	-0.00028	-0.00029	2
5839	-0.00048	-3e-05	-5e-05	0.00014	-0.00015	-1e-05	-0.00028	-0.00029	2
5840	-0.00048	-3e-05	-5e-05	0.00014	-0.00015	-1e-05	-0.00028	-0.00029	2
5841	-0.00048	-3e-05	-5e-05	0.00014	-0.00015	-1e-05	-0.00028	-0.00029	2
5842	-0.00048	-3e-05	-5e-05	0.00014	-0.00015	-1e-05	-0.00028	-0.00029	2
5843	-0.0008	-0.00057	-1e-05	-2e-05	-0.00022	-8e-05	-0.00035	-0.0005	2
5844	-0.0006	-3e-05	1e-05	0.00015	-6e-05	-7e-05	-5e-05	-0.0002	2
5845	-0.0006	-3e-05	1e-05	0.00015	-6e-05	-7e-05	-5e-05	-0.0002	2
5846	-0.0006	-3e-05	1e-05	0.00015	-6e-05	-7e-05	-5e-05	-0.0002	2
5847	-0.0006	-3e-05	1e-05	0.00015	-6e-05	-7e-05	-5e-05	-0.0002	2
5848	-0.0006	-3e-05	1e-05	0.00015	-6e-05	-7e-05	-5e-05	-0.0002	2
5849	-0.0006	-3e-05	1e-05	0.00015	-6e-05	-7e-05	-5e-05	-0.0002	2
5850	0.00027	-0.00044	-5e-05	9e-05	-0.00021	-9e-05	-0.0003	-0.00025	2
5851	6e-05	0.00028	-0.00015	-0.0004	0.00041	-1e-05	0.00017	0.00015	2
5852	6e-05	0.00028	-0.00015	-0.0004	0.00041	-1e-05	0.00017	0.00015	2
5853	6e-05	0.00028	-0.00015	-0.0004	0.00041	-1e-05	0.00017	0.00015	2
5854	6e-05	0.00028	-0.00015	-0.0004	0.00041	-1e-05	0.00017	0.00015	2
5855	6e-05	0.00028	-0.00015	-0.0004	0.00041	-1e-05	0.00017	0.00015	2
5856	0.00024	-0.00028	-0.00011	-0.00023	-7e-05	9e-05	-0.00034	0.00016	2
5857	0.00024	-0.00028	-0.00011	-0.00023	-7e-05	9e-05	-0.00034	0.00016	2
5858	0.00024	-0.00028	-0.00011	-0.00023	-7e-05	9e-05	-0.00034	0.00016	2
5859	0.00024	-0.00028	-0.00011	-0.00023	-7e-05	9e-05	-0.00034	0.00016	2
5860	0.00024	-0.00028	-0.00011	-0.00023	-7e-05	9e-05	-0.00034	0.00016	2
5861	0.00024	-0.00028	-0.00011	-0.00023	-7e-05	9e-05	-0.00034	0.00016	2
5862	0.00024	-0.00028	-0.00011	-0.00023	-7e-05	9e-05	-0.00034	0.00016	2
5863	0.00024	-0.00028	-0.00011	-0.00023	-7e-05	9e-05	-0.00034	0.00016	2
5864	0.00024	-0.00028	-0.00011	-0.00023	-7e-05	9e-05	-0.00034	0.00016	2
5865	0.00024	-0.00028	-0.00011	-0.00023	-7e-05	9e-05	-0.00034	0.00016	2
5866	0.00024	-0.00028	-0.00011	-0.00023	-7e-05	9e-05	-0.00034	0.00016	2
5867	0.00024	-0.00028	-0.00011	-0.00023	-7e-05	9e-05	-0.00034	0.00016	2
5868	0.00024	-0.00028	-0.00011	-0.00023	-7e-05	9e-05	-0.00034	0.00016	2
5869	0.00024	-0.00028	-0.00011	-0.00023	-7e-05	9e-05	-0.00034	0.00016	2
5870	0.00024	-0.00028	-0.00011	-0.00023	-7e-05	9e-05	-0.00034	0.00016	2
5871	0.00024	-0.00028	-0.00011	-0.00023	-7e-05	9e-05	-0.00034	0.00016	2
5872	0.00024	-0.00028	-0.00011	-0.00023	-7e-05	9e-05	-0.00034	0.00016	2
5873	0.00058	3e-05	4e-05	2e-05	-0.00039	0.00012	-9e-05	-0.00016	2
5874	0.00058	3e-05	4e-05	2e-05	-0.00039	0.00012	-9e-05	-0.00016	2
5875	0.00127	-2e-05	0	2e-05	0.00017	-8e-05	0.00031	0.00015	2
5876	0.00127	-2e-05	0	2e-05	0.00017	-8e-05	0.00031	0.00015	2
5877	0.00127	-2e-05	0	2e-05	0.00017	-8e-05	0.00031	0.00015	2
5878	0.00127	-2e-05	0	2e-05	0.00017	-8e-05	0.00031	0.00015	2
5879	0.00127	-2e-05	0	2e-05	0.00017	-8e-05	0.00031	0.00015	2
5880	0.00127	-2e-05	0	2e-05	0.00017	-8e-05	0.00031	0.00015	2
5881	0.00127	-2e-05	0	2e-05	0.00017	-8e-05	0.00031	0.00015	2
5882	0.00127	-2e-05	0	2e-05	0.00017	-8e-05	0.00031	0.00015	2
5883	0.00127	-2e-05	0	2e-05	0.00017	-8e-05	0.00031	0.00015	2
5884	0.00127	-2e-05	0	2e-05	0.00017	-8e-05	0.00031	0.00015	2
5885	0.00127	-2e-05	0	2e-05	0.00017	-8e-05	0.00031	0.00015	2
5886	0.00127	-2e-05	0	2e-05	0.00017	-8e-05	0.00031	0.00015	2
5888	0.00127	-2e-05	0	2e-05	0.00017	-8e-05	0.00031	0.00015	2
5889	0.00127	-2e-05	0	2e-05	0.00017	-8e-05	0.00031	0.00015	2
5890	0.00127	-2e-05	0	2e-05	0.00017	-8e-05	0.00031	0.00015	2
5891	0.00127	-2e-05	0	2e-05	0.00017	-8e-05	0.00031	0.00015	2
5892	0.00127	-2e-05	0	2e-05	0.00017	-8e-05	0.00031	0.00015	2
5893	0.00127	-2e-05	0	2e-05	0.00017	-8e-05	0.00031	0.00015	2
5894	0.00127	-2e-05	0	2e-05	0.00017	-8e-05	0.00031	0.00015	2
5895	-0.00075	7e-05	-6e-05	0.0001	-0.00021	-0.00023	0.0001	8e-05	2
5896	-0.00075	7e-05	-6e-05	0.0001	-0.00021	-0.00023	0.0001	8e-05	2
5897	-0.00102	0	5e-05	2e-05	8e-05	0.00015	0.0001	-2e-05	2
5898	-0.00102	0	5e-05	2e-05	8e-05	0.00015	0.0001	-2e-05	2
5899	-0.00102	0	5e-05	2e-05	8e-05	0.00015	0.0001	-2e-05	2
5900	-0.00102	0	5e-05	2e-05	8e-05	0.00015	0.0001	-2e-05	2
5901	-0.00102	0	5e-05	2e-05	8e-05	0.00015	0.0001	-2e-05	2
5902	-0.00102	0	5e-05	2e-05	8e-05	0.00015	0.0001	-2e-05	2
5903	-0.00102	0	5e-05	2e-05	8e-05	0.00015	0.0001	-2e-05	2
5904	-0.00102	0	5e-05	2e-05	8e-05	0.00015	0.0001	-2e-05	2
5905	-0.00102	0	5e-05	2e-05	8e-05	0.00015	0.0001	-2e-05	2
5906	-0.00102	0	5e-05	2e-05	8e-05	0.00015	0.0001	-2e-05	2
5907	-0.00102	0	5e-05	2e-05	8e-05	0.00015	0.0001	-2e-05	2
5908	-0.00102	0	5e-05	2e-05	8e-05	0.00015	0.0001	-2e-05	2
5909	-0.00102	0	5e-05	2e-05	8e-05	0.00015	0.0001	-2e-05	2
5910	0.00055	0.00087	0.00021	0.00026	-0.00016	6e-05	6e-05	0.00014	2
5911	0.00055	0.00087	0.00021	0.00026	-0.00016	6e-05	6e-05	0.00014	2
5912	-0.00097	0.00099	0.00018	0.00011	3e-05	-2e-05	0.00017	0.00027	2
5913	-0.00097	0.00099	0.00018	0.00011	3e-05	-2e-05	0.00017	0.00027	2
5914	-0.00097	0.00099	0.00018	0.00011	3e-05	-2e-05	0.00017	0.00027	2
5915	-0.00097	0.00099	0.00018	0.00011	3e-05	-2e-05	0.00017	0.00027	2
5916	-0.00097	0.00099	0.00018	0.00011	3e-05	-2e-05	0.00017	0.00027	2
5917	-0.00097	0.00099	0.00018	0.00011	3e-05	-2e-05	0.00017	0.00027	2
5918	-0.00097	0.00099	0.00018	0.00011	3e-05	-2e-05	0.00017	0.00027	2
5919	-0.00097	0.00099	0.00018	0.00011	3e-05	-2e-05	0.00017	0.00027	2
5920	-0.00097	0.00099	0.00018	0.00011	3e-05	-2e-05	0.00017	0.00027	2
5921	-0.00097	0.00099	0.00018	0.00011	3e-05	-2e-05	0.00017	0.00027	2
5922	-0.00097	0.00099	0.00018	0.00011	3e-05	-2e-05	0.00017	0.00027	2
5923	-0.00097	0.00099	0.00018	0.00011	3e-05	-2e-05	0.00017	0.00027	2
5924	-0.00097	0.00099	0.00018	0.00011	3e-05	-2e-05	0.00017	0.00027	2
5925	-0.00097	0.00099	0.00018	0.00011	3e-05	-2e-05	0.00017	0.00027	2
5926	-0.00097	0.00099	0.00018	0.00011	3e-05	-2e-05	0.00017	0.00027	2
5927	-0.00097	0.00099	0.00018	0.00011	3e-05	-2e-05	0.00017	0.00027	2
5928	-0.00097	0.00099	0.00018	0.00011	3e-05	-2e-05	0.00017	0.00027	2
5929	-0.00097	0.00099	0.00018	0.00011	3e-05	-2e-05	0.00017	0.00027	2
5930	-0.00097	0.00099	0.00018	0.00011	3e-05	-2e-05	0.00017	0.00027	2
5931	-0.00097	0.00099	0.00018	0.00011	3e-05	-2e-05	0.00017	0.00027	2
5932	-0.00097	0.00099	0.00018	0.00011	3e-05	-2e-05	0.00017	0.00027	2
5933	-0.00052	-0.00032	5e-05	-0.00013	-0.00014	-2e-05	7e-05	6e-05	2
5934	0.00127	-0.00043	-8e-05	7e-05	6e-05	0.0001	-1e-05	0.00042	2
5935	0.00127	-0.00043	-8e-05	7e-05	6e-05	0.0001	-1e-05	0.00042	2
5936	0.00127	-0.00043	-8e-05	7e-05	6e-05	0.0001	-1e-05	0.00042	2
5938	0.00127	-0.00043	-8e-05	7e-05	6e-05	0.0001	-1e-05	0.00042	2
5939	0.00127	-0.00043	-8e-05	7e-05	6e-05	0.0001	-1e-05	0.00042	2
5940	0.00127	-0.00043	-8e-05	7e-05	6e-05	0.0001	-1e-05	0.00042	2
5941	0.00127	-0.00043	-8e-05	7e-05	6e-05	0.0001	-1e-05	0.00042	2
5942	0.00127	-0.00043	-8e-05	7e-05	6e-05	0.0001	-1e-05	0.00042	2
5943	0.00127	-0.00043	-8e-05	7e-05	6e-05	0.0001	-1e-05	0.00042	2
5944	0.00127	-0.00043	-8e-05	7e-05	6e-05	0.0001	-1e-05	0.00042	2
5945	0.00127	-0.00043	-8e-05	7e-05	6e-05	0.0001	-1e-05	0.00042	2
5946	0.00127	-0.00043	-8e-05	7e-05	6e-05	0.0001	-1e-05	0.00042	2
5947	0.00127	-0.00043	-8e-05	7e-05	6e-05	0.0001	-1e-05	0.00042	2
5948	0.00127	-0.00043	-8e-05	7e-05	6e-05	0.0001	-1e-05	0.00042	2
5949	0.00127	-0.00043	-8e-05	7e-05	6e-05	0.0001	-1e-05	0.00042	2
5950	0.00127	-0.00043	-8e-05	7e-05	6e-05	0.0001	-1e-05	0.00042	2
5951	0.00127	-0.00043	-8e-05	7e-05	6e-05	0.0001	-1e-05	0.00042	2
5952	0.00127	-0.00043	-8e-05	7e-05	6e-05	0.0001	-1e-05	0.00042	2
5953	0.00127	-0.00043	-8e-05	7e-05	6e-05	0.0001	-1e-05	0.00042	2
5954	0.00127	-0.00043	-8e-05	7e-05	6e-05	0.0001	-1e-05	0.00042	2
5955	0.00104	-0.00017	-6e-05	-0.00017	-0.00051	-0.00019	-0.00048	-0.00023	2
5956	0.00104	-0.00017	-6e-05	-0.00017	-0.00051	-0.00019	-0.00048	-0.00023	2
5957	0.00032	-0.00025	-0.00011	0	-0.00012	-6e-05	-0.0004	-0.00031	2
5958	0.00032	-0.00025	-0.00011	0	-0.00012	-6e-05	-0.0004	-0.00031	2
5959	0.00032	-0.00025	-0.00011	0	-0.00012	-6e-05	-0.0004	-0.00031	2
5960	0.00032	-0.00025	-0.00011	0	-0.00012	-6e-05	-0.0004	-0.00031	2
5961	0.00032	-0.00025	-0.00011	0	-0.00012	-6e-05	-0.0004	-0.00031	2
5962	0.00032	-0.00025	-0.00011	0	-0.00012	-6e-05	-0.0004	-0.00031	2
5963	0.00032	-0.00025	-0.00011	0	-0.00012	-6e-05	-0.0004	-0.00031	2
5964	0.00032	-0.00025	-0.00011	0	-0.00012	-6e-05	-0.0004	-0.00031	2
5965	0.00032	-0.00025	-0.00011	0	-0.00012	-6e-05	-0.0004	-0.00031	2
5966	0.00032	-0.00025	-0.00011	0	-0.00012	-6e-05	-0.0004	-0.00031	2
5967	0.00032	-0.00025	-0.00011	0	-0.00012	-6e-05	-0.0004	-0.00031	2
5968	0.00032	-0.00025	-0.00011	0	-0.00012	-6e-05	-0.0004	-0.00031	2
5969	0.00032	-0.00025	-0.00011	0	-0.00012	-6e-05	-0.0004	-0.00031	2
5970	0.00043	-0.0006	-0.00013	-0.00012	0.00048	2e-05	-5e-05	-5e-05	2
5971	0.00043	-0.0006	-0.00013	-0.00012	0.00048	2e-05	-5e-05	-5e-05	2
5972	0.00043	-0.0006	-0.00013	-0.00012	0.00048	2e-05	-5e-05	-5e-05	2
5973	0.00043	-0.0006	-0.00013	-0.00012	0.00048	2e-05	-5e-05	-5e-05	2
5974	0.00043	-0.0006	-0.00013	-0.00012	0.00048	2e-05	-5e-05	-5e-05	2
5975	0.00043	-0.0006	-0.00013	-0.00012	0.00048	2e-05	-5e-05	-5e-05	2
5976	0.00043	-0.0006	-0.00013	-0.00012	0.00048	2e-05	-5e-05	-5e-05	2
5977	0.00043	-0.0006	-0.00013	-0.00012	0.00048	2e-05	-5e-05	-5e-05	2
5978	0.00043	-0.0006	-0.00013	-0.00012	0.00048	2e-05	-5e-05	-5e-05	2
5979	0.00043	-0.0006	-0.00013	-0.00012	0.00048	2e-05	-5e-05	-5e-05	2
5980	0.00043	-0.0006	-0.00013	-0.00012	0.00048	2e-05	-5e-05	-5e-05	2
5981	0.00043	-0.0006	-0.00013	-0.00012	0.00048	2e-05	-5e-05	-5e-05	2
31086	0.00122	-0.00044	-0.00021	-0.00034	0.00013	-4e-05	7e-05	0.0003	2
31087	0.00122	-0.00044	-0.00021	-0.00034	0.00013	-4e-05	7e-05	0.0003	2
31088	0.00122	-0.00044	-0.00021	-0.00034	0.00013	-4e-05	7e-05	0.0003	2
31089	0.00122	-0.00044	-0.00021	-0.00034	0.00013	-4e-05	7e-05	0.0003	2
31090	0.00122	-0.00044	-0.00021	-0.00034	0.00013	-4e-05	7e-05	0.0003	2
31091	0.00122	-0.00044	-0.00021	-0.00034	0.00013	-4e-05	7e-05	0.0003	2
31092	0.00122	-0.00044	-0.00021	-0.00034	0.00013	-4e-05	7e-05	0.0003	2
31093	0.00122	-0.00044	-0.00021	-0.00034	0.00013	-4e-05	7e-05	0.0003	2
31094	-0.00096	0.00078	0.00037	-6e-05	-4e-05	2e-05	0.00024	0.0001	2
31095	0.00087	-0.00064	4e-05	0.00033	0.00012	-0.00011	-0.00019	-0.00048	2
31096	0.00087	-0.00064	4e-05	0.00033	0.00012	-0.00011	-0.00019	-0.00048	2
31097	0.00087	-0.00064	4e-05	0.00033	0.00012	-0.00011	-0.00019	-0.00048	2
31098	0.00087	-0.00064	4e-05	0.00033	0.00012	-0.00011	-0.00019	-0.00048	2
31099	0.00087	-0.00064	4e-05	0.00033	0.00012	-0.00011	-0.00019	-0.00048	2
31100	0.00087	-0.00064	4e-05	0.00033	0.00012	-0.00011	-0.00019	-0.00048	2
31101	0.00087	-0.00064	4e-05	0.00033	0.00012	-0.00011	-0.00019	-0.00048	2
31102	0.00087	-0.00064	4e-05	0.00033	0.00012	-0.00011	-0.00019	-0.00048	2
31103	0.00087	-0.00064	4e-05	0.00033	0.00012	-0.00011	-0.00019	-0.00048	2
31104	-0.00066	-0.0005	-0.00011	-6e-05	0.00011	0.00036	-0.00038	-0.00077	2
31105	-0.00066	-0.0005	-0.00011	-6e-05	0.00011	0.00036	-0.00038	-0.00077	2
31106	-0.00066	-0.0005	-0.00011	-6e-05	0.00011	0.00036	-0.00038	-0.00077	2
31107	-0.00066	-0.0005	-0.00011	-6e-05	0.00011	0.00036	-0.00038	-0.00077	2
31108	-0.00066	-0.0005	-0.00011	-6e-05	0.00011	0.00036	-0.00038	-0.00077	2
31109	-0.00066	-0.0005	-0.00011	-6e-05	0.00011	0.00036	-0.00038	-0.00077	2
31110	-0.00066	-0.0005	-0.00011	-6e-05	0.00011	0.00036	-0.00038	-0.00077	2
31111	-0.00066	-0.0005	-0.00011	-6e-05	0.00011	0.00036	-0.00038	-0.00077	2
31112	-0.00066	-0.0005	-0.00011	-6e-05	0.00011	0.00036	-0.00038	-0.00077	2
31113	-0.00066	-0.0005	-0.00011	-6e-05	0.00011	0.00036	-0.00038	-0.00077	2
31114	-0.00066	-0.0005	-0.00011	-6e-05	0.00011	0.00036	-0.00038	-0.00077	2
31115	-0.00066	-0.0005	-0.00011	-6e-05	0.00011	0.00036	-0.00038	-0.00077	2
31116	-0.00066	-0.0005	-0.00011	-6e-05	0.00011	0.00036	-0.00038	-0.00077	2
31117	-0.00066	-0.0005	-0.00011	-6e-05	0.00011	0.00036	-0.00038	-0.00077	2
31118	-0.00066	-0.0005	-0.00011	-6e-05	0.00011	0.00036	-0.00038	-0.00077	2
31119	-0.00066	-0.0005	-0.00011	-6e-05	0.00011	0.00036	-0.00038	-0.00077	2
31120	-0.00066	-0.0005	-0.00011	-6e-05	0.00011	0.00036	-0.00038	-0.00077	2
31121	-0.00066	-0.0005	-0.00011	-6e-05	0.00011	0.00036	-0.00038	-0.00077	2
31122	-0.00066	-0.0005	-0.00011	-6e-05	0.00011	0.00036	-0.00038	-0.00077	2
31123	-0.00066	-0.0005	-0.00011	-6e-05	0.00011	0.00036	-0.00038	-0.00077	2
31124	-0.00066	-0.0005	-0.00011	-6e-05	0.00011	0.00036	-0.00038	-0.00077	2
31125	-0.00066	-0.0005	-0.00011	-6e-05	0.00011	0.00036	-0.00038	-0.00077	2
31126	-0.00014	-0.00013	-0.00015	-0.00026	0.00017	0.00017	-1e-05	-2e-05	2
31127	0.00032	-0.00031	0.0001	0.00029	5e-05	-0.00029	-0.00012	0.0003	2
31128	0.00032	-0.00031	0.0001	0.00029	5e-05	-0.00029	-0.00012	0.0003	2
31129	0.00032	-0.00031	0.0001	0.00029	5e-05	-0.00029	-0.00012	0.0003	2
31130	0.00032	-0.00031	0.0001	0.00029	5e-05	-0.00029	-0.00012	0.0003	2
31131	0.00032	-0.00031	0.0001	0.00029	5e-05	-0.00029	-0.00012	0.0003	2
31132	0.00032	-0.00031	0.0001	0.00029	5e-05	-0.00029	-0.00012	0.0003	2
31133	0.00032	-0.00031	0.0001	0.00029	5e-05	-0.00029	-0.00012	0.0003	2
31134	0.00032	-0.00031	0.0001	0.00029	5e-05	-0.00029	-0.00012	0.0003	2
31135	0.00032	-0.00031	0.0001	0.00029	5e-05	-0.00029	-0.00012	0.0003	2
31136	0.00032	-0.00031	0.0001	0.00029	5e-05	-0.00029	-0.00012	0.0003	2
31138	0.00032	-0.00031	0.0001	0.00029	5e-05	-0.00029	-0.00012	0.0003	2
31139	0.00032	-0.00031	0.0001	0.00029	5e-05	-0.00029	-0.00012	0.0003	2
31140	0.00032	-0.00031	0.0001	0.00029	5e-05	-0.00029	-0.00012	0.0003	2
31141	-0.00106	0.00126	0.00027	0.00043	9e-05	5e-05	-3e-05	-0.00022	2
31142	8e-05	-0.00058	-6e-05	0.00016	-0.0001	0.00012	7e-05	-3e-05	2
31143	8e-05	-0.00058	-6e-05	0.00016	-0.0001	0.00012	7e-05	-3e-05	2
31144	8e-05	-0.00058	-6e-05	0.00016	-0.0001	0.00012	7e-05	-3e-05	2
31145	8e-05	-0.00058	-6e-05	0.00016	-0.0001	0.00012	7e-05	-3e-05	2
31146	8e-05	-0.00058	-6e-05	0.00016	-0.0001	0.00012	7e-05	-3e-05	2
31147	8e-05	-0.00058	-6e-05	0.00016	-0.0001	0.00012	7e-05	-3e-05	2
31148	8e-05	-0.00058	-6e-05	0.00016	-0.0001	0.00012	7e-05	-3e-05	2
31149	8e-05	-0.00058	-6e-05	0.00016	-0.0001	0.00012	7e-05	-3e-05	2
31150	8e-05	-0.00058	-6e-05	0.00016	-0.0001	0.00012	7e-05	-3e-05	2
31151	8e-05	-0.00058	-6e-05	0.00016	-0.0001	0.00012	7e-05	-3e-05	2
31152	8e-05	-0.00058	-6e-05	0.00016	-0.0001	0.00012	7e-05	-3e-05	2
31153	8e-05	-0.00058	-6e-05	0.00016	-0.0001	0.00012	7e-05	-3e-05	2
31154	0.00037	0.00024	0.00015	0.00012	-0.00035	9e-05	-0.00014	0	2
31155	-0.0001	-0.00036	-0.00014	-0.00018	0.0003	-4e-05	6e-05	0.00019	2
31156	-0.0001	-0.00036	-0.00014	-0.00018	0.0003	-4e-05	6e-05	0.00019	2
31157	-0.0001	-0.00036	-0.00014	-0.00018	0.0003	-4e-05	6e-05	0.00019	2
31158	-0.0001	-0.00036	-0.00014	-0.00018	0.0003	-4e-05	6e-05	0.00019	2
31159	-0.0001	-0.00036	-0.00014	-0.00018	0.0003	-4e-05	6e-05	0.00019	2
31160	-0.0001	-0.00036	-0.00014	-0.00018	0.0003	-4e-05	6e-05	0.00019	2
31161	-0.0001	-0.00036	-0.00014	-0.00018	0.0003	-4e-05	6e-05	0.00019	2
31162	-0.0001	-0.00036	-0.00014	-0.00018	0.0003	-4e-05	6e-05	0.00019	2
31163	-0.00128	0.00099	0.0003	0.00043	-4e-05	5e-05	0.00025	0.00024	2
31164	-0.00128	0.00099	0.0003	0.00043	-4e-05	5e-05	0.00025	0.00024	2
31165	-0.00128	0.00099	0.0003	0.00043	-4e-05	5e-05	0.00025	0.00024	2
31166	-0.00128	0.00099	0.0003	0.00043	-4e-05	5e-05	0.00025	0.00024	2
31167	-0.00128	0.00099	0.0003	0.00043	-4e-05	5e-05	0.00025	0.00024	2
31168	-0.00128	0.00099	0.0003	0.00043	-4e-05	5e-05	0.00025	0.00024	2
31169	-0.00128	0.00099	0.0003	0.00043	-4e-05	5e-05	0.00025	0.00024	2
31170	-0.00128	0.00099	0.0003	0.00043	-4e-05	5e-05	0.00025	0.00024	2
31171	-0.00128	0.00099	0.0003	0.00043	-4e-05	5e-05	0.00025	0.00024	2
31172	-0.00128	0.00099	0.0003	0.00043	-4e-05	5e-05	0.00025	0.00024	2
31173	-0.00128	0.00099	0.0003	0.00043	-4e-05	5e-05	0.00025	0.00024	2
31174	-0.00128	0.00099	0.0003	0.00043	-4e-05	5e-05	0.00025	0.00024	2
31175	-0.00128	0.00099	0.0003	0.00043	-4e-05	5e-05	0.00025	0.00024	2
31176	-0.00128	0.00099	0.0003	0.00043	-4e-05	5e-05	0.00025	0.00024	2
31177	-0.00128	0.00099	0.0003	0.00043	-4e-05	5e-05	0.00025	0.00024	2
31178	-0.00128	0.00099	0.0003	0.00043	-4e-05	5e-05	0.00025	0.00024	2
31179	-0.00095	-0.00077	-6e-05	-0.0002	-0.00018	-8e-05	0.0001	0.00012	2
31180	-0.00095	-0.00077	-6e-05	-0.0002	-0.00018	-8e-05	0.0001	0.00012	2
31181	0.0005	-0.0007	-7e-05	-0.00026	-7e-05	-0.00014	-6e-05	-0.00035	2
31182	0.0005	-0.0007	-7e-05	-0.00026	-7e-05	-0.00014	-6e-05	-0.00035	2
31183	0.0005	-0.0007	-7e-05	-0.00026	-7e-05	-0.00014	-6e-05	-0.00035	2
31184	0.0005	-0.0007	-7e-05	-0.00026	-7e-05	-0.00014	-6e-05	-0.00035	2
31185	0.0005	-0.0007	-7e-05	-0.00026	-7e-05	-0.00014	-6e-05	-0.00035	2
31186	0.0005	-0.0007	-7e-05	-0.00026	-7e-05	-0.00014	-6e-05	-0.00035	2
31189	0.0005	-0.0007	-7e-05	-0.00026	-7e-05	-0.00014	-6e-05	-0.00035	2
31190	0.0005	-0.0007	-7e-05	-0.00026	-7e-05	-0.00014	-6e-05	-0.00035	2
31191	0.0005	-0.0007	-7e-05	-0.00026	-7e-05	-0.00014	-6e-05	-0.00035	2
31192	0.0005	-0.0007	-7e-05	-0.00026	-7e-05	-0.00014	-6e-05	-0.00035	2
31193	0.0005	-0.0007	-7e-05	-0.00026	-7e-05	-0.00014	-6e-05	-0.00035	2
31194	0.0005	-0.0007	-7e-05	-0.00026	-7e-05	-0.00014	-6e-05	-0.00035	2
31195	0.0005	-0.0007	-7e-05	-0.00026	-7e-05	-0.00014	-6e-05	-0.00035	2
31196	0.0005	-0.0007	-7e-05	-0.00026	-7e-05	-0.00014	-6e-05	-0.00035	2
31197	0.0005	-0.0007	-7e-05	-0.00026	-7e-05	-0.00014	-6e-05	-0.00035	2
31198	0.0005	-0.0007	-7e-05	-0.00026	-7e-05	-0.00014	-6e-05	-0.00035	2
31199	0.0005	-0.0007	-7e-05	-0.00026	-7e-05	-0.00014	-6e-05	-0.00035	2
31200	0.0005	-0.0007	-7e-05	-0.00026	-7e-05	-0.00014	-6e-05	-0.00035	2
31201	0.0005	-0.0007	-7e-05	-0.00026	-7e-05	-0.00014	-6e-05	-0.00035	2
31202	0.0005	-0.0007	-7e-05	-0.00026	-7e-05	-0.00014	-6e-05	-0.00035	2
31203	-0.00065	0.00065	0.0001	-8e-05	-4e-05	-5e-05	0.0001	-0.00019	2
31204	-0.00077	-5e-05	-0.00011	-0.0004	-0.0001	-9e-05	-7e-05	-0.00018	2
31205	-0.00077	-5e-05	-0.00011	-0.0004	-0.0001	-9e-05	-7e-05	-0.00018	2
31206	-0.00077	-5e-05	-0.00011	-0.0004	-0.0001	-9e-05	-7e-05	-0.00018	2
31207	-0.00077	-5e-05	-0.00011	-0.0004	-0.0001	-9e-05	-7e-05	-0.00018	2
31208	-0.00077	-5e-05	-0.00011	-0.0004	-0.0001	-9e-05	-7e-05	-0.00018	2
31209	-0.00077	-5e-05	-0.00011	-0.0004	-0.0001	-9e-05	-7e-05	-0.00018	2
31210	-0.00077	-5e-05	-0.00011	-0.0004	-0.0001	-9e-05	-7e-05	-0.00018	2
31211	-0.00077	-5e-05	-0.00011	-0.0004	-0.0001	-9e-05	-7e-05	-0.00018	2
31212	-0.00077	-5e-05	-0.00011	-0.0004	-0.0001	-9e-05	-7e-05	-0.00018	2
31213	-0.00077	-5e-05	-0.00011	-0.0004	-0.0001	-9e-05	-7e-05	-0.00018	2
31214	-0.00077	-5e-05	-0.00011	-0.0004	-0.0001	-9e-05	-7e-05	-0.00018	2
31215	0.00071	2e-05	4e-05	-8e-05	-0.00032	-2e-05	1e-05	0.00013	2
31216	0.00071	2e-05	4e-05	-8e-05	-0.00032	-2e-05	1e-05	0.00013	2
31217	0.00071	2e-05	4e-05	-8e-05	-0.00032	-2e-05	1e-05	0.00013	2
31218	0.00071	2e-05	4e-05	-8e-05	-0.00032	-2e-05	1e-05	0.00013	2
31219	0.00071	2e-05	4e-05	-8e-05	-0.00032	-2e-05	1e-05	0.00013	2
31220	0.00071	2e-05	4e-05	-8e-05	-0.00032	-2e-05	1e-05	0.00013	2
31221	0.00071	2e-05	4e-05	-8e-05	-0.00032	-2e-05	1e-05	0.00013	2
31222	0.00071	2e-05	4e-05	-8e-05	-0.00032	-2e-05	1e-05	0.00013	2
31223	0.00071	2e-05	4e-05	-8e-05	-0.00032	-2e-05	1e-05	0.00013	2
31224	0.00071	2e-05	4e-05	-8e-05	-0.00032	-2e-05	1e-05	0.00013	2
31225	0.00071	2e-05	4e-05	-8e-05	-0.00032	-2e-05	1e-05	0.00013	2
31226	0.00071	2e-05	4e-05	-8e-05	-0.00032	-2e-05	1e-05	0.00013	2
31227	0.00071	2e-05	4e-05	-8e-05	-0.00032	-2e-05	1e-05	0.00013	2
31228	0.00071	2e-05	4e-05	-8e-05	-0.00032	-2e-05	1e-05	0.00013	2
31229	0.00071	2e-05	4e-05	-8e-05	-0.00032	-2e-05	1e-05	0.00013	2
31230	0.00071	2e-05	4e-05	-8e-05	-0.00032	-2e-05	1e-05	0.00013	2
31231	0.00071	2e-05	4e-05	-8e-05	-0.00032	-2e-05	1e-05	0.00013	2
31232	0.00071	2e-05	4e-05	-8e-05	-0.00032	-2e-05	1e-05	0.00013	2
31233	0.00071	2e-05	4e-05	-8e-05	-0.00032	-2e-05	1e-05	0.00013	2
31234	0.00071	2e-05	4e-05	-8e-05	-0.00032	-2e-05	1e-05	0.00013	2
31235	0.00071	2e-05	4e-05	-8e-05	-0.00032	-2e-05	1e-05	0.00013	2
31236	0.00071	2e-05	4e-05	-8e-05	-0.00032	-2e-05	1e-05	0.00013	2
31239	0.00071	2e-05	4e-05	-8e-05	-0.00032	-2e-05	1e-05	0.00013	2
31241	-0.0004	-0.00044	-0.00012	-0.0004	-0.00011	0.00028	0.00021	0.00016	2
31242	-0.0004	-0.00044	-0.00012	-0.0004	-0.00011	0.00028	0.00021	0.00016	2
31243	-0.0004	-0.00044	-0.00012	-0.0004	-0.00011	0.00028	0.00021	0.00016	2
31244	-0.0004	-0.00044	-0.00012	-0.0004	-0.00011	0.00028	0.00021	0.00016	2
31245	-0.00064	0.00034	6e-05	2e-05	-0.00028	0.00048	0.0002	0.00019	2
31246	-0.00064	0.00034	6e-05	2e-05	-0.00028	0.00048	0.0002	0.00019	2
31247	-0.00064	0.00034	6e-05	2e-05	-0.00028	0.00048	0.0002	0.00019	2
31248	-0.00064	0.00034	6e-05	2e-05	-0.00028	0.00048	0.0002	0.00019	2
31249	-0.00064	0.00034	6e-05	2e-05	-0.00028	0.00048	0.0002	0.00019	2
31250	-0.00064	0.00034	6e-05	2e-05	-0.00028	0.00048	0.0002	0.00019	2
31251	-0.00064	0.00034	6e-05	2e-05	-0.00028	0.00048	0.0002	0.00019	2
31252	-0.00064	0.00034	6e-05	2e-05	-0.00028	0.00048	0.0002	0.00019	2
31253	-0.00064	0.00034	6e-05	2e-05	-0.00028	0.00048	0.0002	0.00019	2
31254	-0.00064	0.00034	6e-05	2e-05	-0.00028	0.00048	0.0002	0.00019	2
31255	-0.00064	0.00034	6e-05	2e-05	-0.00028	0.00048	0.0002	0.00019	2
31256	-0.00064	0.00034	6e-05	2e-05	-0.00028	0.00048	0.0002	0.00019	2
31257	-0.00064	0.00034	6e-05	2e-05	-0.00028	0.00048	0.0002	0.00019	2
31258	-0.00064	0.00034	6e-05	2e-05	-0.00028	0.00048	0.0002	0.00019	2
31259	-0.00064	0.00034	6e-05	2e-05	-0.00028	0.00048	0.0002	0.00019	2
31260	-0.00064	0.00034	6e-05	2e-05	-0.00028	0.00048	0.0002	0.00019	2
