20469	1e-05	-5e-05	-4e-05	0.00015	0.00036	-1e-05	-4e-05	3e-05	5
20470	1e-05	-5e-05	-4e-05	0.00015	0.00036	-1e-05	-4e-05	3e-05	5
20471	1e-05	-5e-05	-4e-05	0.00015	0.00036	-1e-05	-4e-05	3e-05	5
20472	1e-05	-5e-05	-4e-05	0.00015	0.00036	-1e-05	-4e-05	3e-05	5
20473	1e-05	-5e-05	-4e-05	0.00015	0.00036	-1e-05	-4e-05	3e-05	5
20474	1e-05	-5e-05	-4e-05	0.00015	0.00036	-1e-05	-4e-05	3e-05	5
20475	1e-05	-5e-05	-4e-05	0.00015	0.00036	-1e-05	-4e-05	3e-05	5
20476	1e-05	-5e-05	-4e-05	0.00015	0.00036	-1e-05	-4e-05	3e-05	5
20477	1e-05	-5e-05	-4e-05	0.00015	0.00036	-1e-05	-4e-05	3e-05	5
20478	1e-05	-5e-05	-4e-05	0.00015	0.00036	-1e-05	-4e-05	3e-05	5
20479	1e-05	-5e-05	-4e-05	0.00015	0.00036	-1e-05	-4e-05	3e-05	5
20480	1e-05	-5e-05	-4e-05	0.00015	0.00036	-1e-05	-4e-05	3e-05	5
20481	1e-05	-5e-05	-4e-05	0.00015	0.00036	-1e-05	-4e-05	3e-05	5
20482	1e-05	-5e-05	-4e-05	0.00015	0.00036	-1e-05	-4e-05	3e-05	5
20483	1e-05	-5e-05	-4e-05	0.00015	0.00036	-1e-05	-4e-05	3e-05	5
20484	-1e-05	-0.00013	-0.00015	0.00019	0.00087	5e-05	1e-05	-3e-05	5
20485	-1e-05	-2e-05	4e-05	-4e-05	-0.00033	-1e-05	1e-05	-2e-05	5
20486	-1e-05	-2e-05	4e-05	-4e-05	-0.00033	-1e-05	1e-05	-2e-05	5
20487	-1e-05	-2e-05	4e-05	-4e-05	-0.00033	-1e-05	1e-05	-2e-05	5
20488	-1e-05	-2e-05	4e-05	-4e-05	-0.00033	-1e-05	1e-05	-2e-05	5
20489	-1e-05	-2e-05	4e-05	-4e-05	-0.00033	-1e-05	1e-05	-2e-05	5
20490	-1e-05	-2e-05	4e-05	-4e-05	-0.00033	-1e-05	1e-05	-2e-05	5
20491	-1e-05	-2e-05	4e-05	-4e-05	-0.00033	-1e-05	1e-05	-2e-05	5
20492	-1e-05	-2e-05	4e-05	-4e-05	-0.00033	-1e-05	1e-05	-2e-05	5
20493	-1e-05	-2e-05	4e-05	-4e-05	-0.00033	-1e-05	1e-05	-2e-05	5
20494	-1e-05	-2e-05	4e-05	-4e-05	-0.00033	-1e-05	1e-05	-2e-05	5
20495	-1e-05	-2e-05	4e-05	-4e-05	-0.00033	-1e-05	1e-05	-2e-05	5
20496	-1e-05	-2e-05	4e-05	-4e-05	-0.00033	-1e-05	1e-05	-2e-05	5
20497	-1e-05	-2e-05	4e-05	-4e-05	-0.00033	-1e-05	1e-05	-2e-05	5
20498	-0.0001	-0.00018	-0.00014	-0.00015	0.00058	0	-2e-05	-6e-05	5
20499	-0.0001	-0.00018	-0.00014	-0.00015	0.00058	0	-2e-05	-6e-05	5
20500	-0.0001	-0.00018	-0.00014	-0.00015	0.00058	0	-2e-05	-6e-05	5
20501	-0.0001	-0.00018	-0.00014	-0.00015	0.00058	0	-2e-05	-6e-05	5
20502	-0.0001	-0.00018	-0.00014	-0.00015	0.00058	0	-2e-05	-6e-05	5
20505	-4e-05	-0.00019	-0.00013	0.00047	0.00028	4e-05	-3e-05	-3e-05	5
20507	-4e-05	-0.00019	-0.00013	0.00047	0.00028	4e-05	-3e-05	-3e-05	5
20508	-4e-05	-0.00019	-0.00013	0.00047	0.00028	4e-05	-3e-05	-3e-05	5
20509	-4e-05	-0.00019	-0.00013	0.00047	0.00028	4e-05	-3e-05	-3e-05	5
20510	-4e-05	-0.00019	-0.00013	0.00047	0.00028	4e-05	-3e-05	-3e-05	5
20511	-4e-05	-0.00019	-0.00013	0.00047	0.00028	4e-05	-3e-05	-3e-05	5
20512	-4e-05	-0.00019	-0.00013	0.00047	0.00028	4e-05	-3e-05	-3e-05	5
20513	-4e-05	-0.00019	-0.00013	0.00047	0.00028	4e-05	-3e-05	-3e-05	5
20514	-4e-05	-0.00019	-0.00013	0.00047	0.00028	4e-05	-3e-05	-3e-05	5
20515	-4e-05	-0.00019	-0.00013	0.00047	0.00028	4e-05	-3e-05	-3e-05	5
20516	-4e-05	-0.00019	-0.00013	0.00047	0.00028	4e-05	-3e-05	-3e-05	5
20517	-4e-05	-0.00019	-0.00013	0.00047	0.00028	4e-05	-3e-05	-3e-05	5
20518	-4e-05	-0.00019	-0.00013	0.00047	0.00028	4e-05	-3e-05	-3e-05	5
20519	-4e-05	-0.00019	-0.00013	0.00047	0.00028	4e-05	-3e-05	-3e-05	5
20520	-4e-05	-0.00019	-0.00013	0.00047	0.00028	4e-05	-3e-05	-3e-05	5
20521	-1e-05	1e-05	-6e-05	-0.00064	-0.00069	-5e-05	-1e-05	2e-05	5
20522	-1e-05	1e-05	-6e-05	-0.00064	-0.00069	-5e-05	-1e-05	2e-05	5
20523	-3e-05	-0.00011	-4e-05	0.00043	0.0007	0.0002	4e-05	2e-05	5
20524	-3e-05	-0.00011	-4e-05	0.00043	0.0007	0.0002	4e-05	2e-05	5
20525	-3e-05	-0.00011	-4e-05	0.00043	0.0007	0.0002	4e-05	2e-05	5
20526	-3e-05	-0.00011	-4e-05	0.00043	0.0007	0.0002	4e-05	2e-05	5
20527	-3e-05	-0.00011	-4e-05	0.00043	0.0007	0.0002	4e-05	2e-05	5
20528	-3e-05	-0.00011	-4e-05	0.00043	0.0007	0.0002	4e-05	2e-05	5
20529	-3e-05	-0.00011	-4e-05	0.00043	0.0007	0.0002	4e-05	2e-05	5
20530	-3e-05	-0.00011	-4e-05	0.00043	0.0007	0.0002	4e-05	2e-05	5
20531	-3e-05	-0.00011	-4e-05	0.00043	0.0007	0.0002	4e-05	2e-05	5
20532	-3e-05	-0.00011	-4e-05	0.00043	0.0007	0.0002	4e-05	2e-05	5
20533	-3e-05	-0.00011	-4e-05	0.00043	0.0007	0.0002	4e-05	2e-05	5
20534	-3e-05	-0.00011	-4e-05	0.00043	0.0007	0.0002	4e-05	2e-05	5
20535	-3e-05	-0.00011	-4e-05	0.00043	0.0007	0.0002	4e-05	2e-05	5
20536	-3e-05	-0.00011	-4e-05	0.00043	0.0007	0.0002	4e-05	2e-05	5
20537	-3e-05	-0.00011	-4e-05	0.00043	0.0007	0.0002	4e-05	2e-05	5
20538	-3e-05	-0.00011	-4e-05	0.00043	0.0007	0.0002	4e-05	2e-05	5
20539	-3e-05	-0.00011	-4e-05	0.00043	0.0007	0.0002	4e-05	2e-05	5
20540	-3e-05	-0.00011	-4e-05	0.00043	0.0007	0.0002	4e-05	2e-05	5
20541	-3e-05	-0.00011	-4e-05	0.00043	0.0007	0.0002	4e-05	2e-05	5
20542	-3e-05	-0.00011	-4e-05	0.00043	0.0007	0.0002	4e-05	2e-05	5
20543	-3e-05	-0.00011	-4e-05	0.00043	0.0007	0.0002	4e-05	2e-05	5
20544	1e-05	0.00012	0.00013	0.00015	-0.0005	-0.0001	-2e-05	4e-05	5
20545	1e-05	0.00014	0.00017	-0.00013	-0.00045	-0.00014	0	-2e-05	5
20546	1e-05	0.00014	0.00017	-0.00013	-0.00045	-0.00014	0	-2e-05	5
20547	1e-05	0.00014	0.00017	-0.00013	-0.00045	-0.00014	0	-2e-05	5
20548	1e-05	0.00014	0.00017	-0.00013	-0.00045	-0.00014	0	-2e-05	5
20549	1e-05	0.00014	0.00017	-0.00013	-0.00045	-0.00014	0	-2e-05	5
20551	1e-05	0.00014	0.00017	-0.00013	-0.00045	-0.00014	0	-2e-05	5
20552	1e-05	0.00014	0.00017	-0.00013	-0.00045	-0.00014	0	-2e-05	5
20553	1e-05	0.00014	0.00017	-0.00013	-0.00045	-0.00014	0	-2e-05	5
20554	1e-05	0.00014	0.00017	-0.00013	-0.00045	-0.00014	0	-2e-05	5
20555	1e-05	0.00014	0.00017	-0.00013	-0.00045	-0.00014	0	-2e-05	5
20556	1e-05	0.00014	0.00017	-0.00013	-0.00045	-0.00014	0	-2e-05	5
20557	1e-05	0.00014	0.00017	-0.00013	-0.00045	-0.00014	0	-2e-05	5
20558	-3e-05	-0.0001	-0.0002	0.00038	0.00032	-2e-05	-1e-05	0	5
20559	-3e-05	-0.0001	-0.0002	0.00038	0.00032	-2e-05	-1e-05	0	5
20560	-3e-05	-0.0001	-0.0002	0.00038	0.00032	-2e-05	-1e-05	0	5
20561	-3e-05	-0.0001	-0.0002	0.00038	0.00032	-2e-05	-1e-05	0	5
20562	-3e-05	-0.0001	-0.0002	0.00038	0.00032	-2e-05	-1e-05	0	5
20563	-3e-05	-0.0001	-0.0002	0.00038	0.00032	-2e-05	-1e-05	0	5
20564	-3e-05	-0.0001	-0.0002	0.00038	0.00032	-2e-05	-1e-05	0	5
20565	-3e-05	-0.00015	-3e-05	0.00028	-2e-05	3e-05	-2e-05	0	5
20566	-3e-05	-0.00015	-3e-05	0.00028	-2e-05	3e-05	-2e-05	0	5
20567	-3e-05	-0.00015	-3e-05	0.00028	-2e-05	3e-05	-2e-05	0	5
20568	-3e-05	-0.00015	-3e-05	0.00028	-2e-05	3e-05	-2e-05	0	5
20569	-3e-05	-0.00015	-3e-05	0.00028	-2e-05	3e-05	-2e-05	0	5
20570	-3e-05	-0.00015	-3e-05	0.00028	-2e-05	3e-05	-2e-05	0	5
20571	-3e-05	-0.00015	-3e-05	0.00028	-2e-05	3e-05	-2e-05	0	5
20572	-3e-05	-0.00015	-3e-05	0.00028	-2e-05	3e-05	-2e-05	0	5
20573	-3e-05	-0.00015	-3e-05	0.00028	-2e-05	3e-05	-2e-05	0	5
20574	-3e-05	-0.00015	-3e-05	0.00028	-2e-05	3e-05	-2e-05	0	5
20575	-3e-05	-0.00015	-3e-05	0.00028	-2e-05	3e-05	-2e-05	0	5
20576	-3e-05	-0.00015	-3e-05	0.00028	-2e-05	3e-05	-2e-05	0	5
20577	-3e-05	-0.00015	-3e-05	0.00028	-2e-05	3e-05	-2e-05	0	5
20578	-3e-05	-0.00015	-3e-05	0.00028	-2e-05	3e-05	-2e-05	0	5
20579	-3e-05	-0.00015	-3e-05	0.00028	-2e-05	3e-05	-2e-05	0	5
20580	-3e-05	-0.00015	-3e-05	0.00028	-2e-05	3e-05	-2e-05	0	5
20581	9e-05	0.0002	0.00035	-0.00022	-0.00077	-0.00012	-1e-05	8e-05	5
20582	9e-05	0.0002	0.00035	-0.00022	-0.00077	-0.00012	-1e-05	8e-05	5
20583	6e-05	8e-05	0.00013	-0.00044	-0.00062	-0.0001	3e-05	2e-05	5
20584	6e-05	8e-05	0.00013	-0.00044	-0.00062	-0.0001	3e-05	2e-05	5
20585	6e-05	8e-05	0.00013	-0.00044	-0.00062	-0.0001	3e-05	2e-05	5
20586	6e-05	8e-05	0.00013	-0.00044	-0.00062	-0.0001	3e-05	2e-05	5
20587	6e-05	8e-05	0.00013	-0.00044	-0.00062	-0.0001	3e-05	2e-05	5
20588	6e-05	8e-05	0.00013	-0.00044	-0.00062	-0.0001	3e-05	2e-05	5
20589	6e-05	8e-05	0.00013	-0.00044	-0.00062	-0.0001	3e-05	2e-05	5
20590	6e-05	8e-05	0.00013	-0.00044	-0.00062	-0.0001	3e-05	2e-05	5
20591	6e-05	8e-05	0.00013	-0.00044	-0.00062	-0.0001	3e-05	2e-05	5
20592	6e-05	8e-05	0.00013	-0.00044	-0.00062	-0.0001	3e-05	2e-05	5
20593	6e-05	8e-05	0.00013	-0.00044	-0.00062	-0.0001	3e-05	2e-05	5
20594	6e-05	8e-05	0.00013	-0.00044	-0.00062	-0.0001	3e-05	2e-05	5
20595	6e-05	8e-05	0.00013	-0.00044	-0.00062	-0.0001	3e-05	2e-05	5
20596	6e-05	8e-05	0.00013	-0.00044	-0.00062	-0.0001	3e-05	2e-05	5
20598	6e-05	8e-05	0.00013	-0.00044	-0.00062	-0.0001	3e-05	2e-05	5
20599	6e-05	8e-05	0.00013	-0.00044	-0.00062	-0.0001	3e-05	2e-05	5
20600	6e-05	8e-05	0.00013	-0.00044	-0.00062	-0.0001	3e-05	2e-05	5
20601	6e-05	8e-05	0.00013	-0.00044	-0.00062	-0.0001	3e-05	2e-05	5
20602	6e-05	8e-05	0.00013	-0.00044	-0.00062	-0.0001	3e-05	2e-05	5
20603	6e-05	8e-05	0.00013	-0.00044	-0.00062	-0.0001	3e-05	2e-05	5
20604	-2e-05	-9e-05	0.00018	0.00016	-0.00012	1e-05	1e-05	-4e-05	5
20605	-1e-05	5e-05	-8e-05	-0.00061	0.00036	-5e-05	1e-05	-2e-05	5
20607	-1e-05	5e-05	-8e-05	-0.00061	0.00036	-5e-05	1e-05	-2e-05	5
20608	-1e-05	5e-05	-8e-05	-0.00061	0.00036	-5e-05	1e-05	-2e-05	5
20609	-1e-05	5e-05	-8e-05	-0.00061	0.00036	-5e-05	1e-05	-2e-05	5
20610	-1e-05	5e-05	-8e-05	-0.00061	0.00036	-5e-05	1e-05	-2e-05	5
20611	-1e-05	5e-05	-8e-05	-0.00061	0.00036	-5e-05	1e-05	-2e-05	5
20612	-1e-05	5e-05	-8e-05	-0.00061	0.00036	-5e-05	1e-05	-2e-05	5
20613	-1e-05	5e-05	-8e-05	-0.00061	0.00036	-5e-05	1e-05	-2e-05	5
20614	-1e-05	5e-05	-8e-05	-0.00061	0.00036	-5e-05	1e-05	-2e-05	5
20615	-1e-05	5e-05	-8e-05	-0.00061	0.00036	-5e-05	1e-05	-2e-05	5
20616	-1e-05	5e-05	-8e-05	-0.00061	0.00036	-5e-05	1e-05	-2e-05	5
20617	-1e-05	5e-05	-8e-05	-0.00061	0.00036	-5e-05	1e-05	-2e-05	5
20618	-6e-05	4e-05	-3e-05	-0.00022	-4e-05	-3e-05	-3e-05	1e-05	5
20619	-6e-05	4e-05	-3e-05	-0.00022	-4e-05	-3e-05	-3e-05	1e-05	5
20620	-6e-05	4e-05	-3e-05	-0.00022	-4e-05	-3e-05	-3e-05	1e-05	5
20621	-6e-05	4e-05	-3e-05	-0.00022	-4e-05	-3e-05	-3e-05	1e-05	5
20622	-6e-05	4e-05	-3e-05	-0.00022	-4e-05	-3e-05	-3e-05	1e-05	5
20623	-6e-05	4e-05	-3e-05	-0.00022	-4e-05	-3e-05	-3e-05	1e-05	5
20624	-6e-05	4e-05	-3e-05	-0.00022	-4e-05	-3e-05	-3e-05	1e-05	5
20625	-1e-05	4e-05	8e-05	1e-05	-2e-05	-2e-05	-2e-05	-1e-05	5
20626	-1e-05	4e-05	8e-05	1e-05	-2e-05	-2e-05	-2e-05	-1e-05	5
20627	-1e-05	4e-05	8e-05	1e-05	-2e-05	-2e-05	-2e-05	-1e-05	5
20628	-1e-05	4e-05	8e-05	1e-05	-2e-05	-2e-05	-2e-05	-1e-05	5
20629	-1e-05	4e-05	8e-05	1e-05	-2e-05	-2e-05	-2e-05	-1e-05	5
20630	-1e-05	4e-05	8e-05	1e-05	-2e-05	-2e-05	-2e-05	-1e-05	5
20631	-1e-05	4e-05	8e-05	1e-05	-2e-05	-2e-05	-2e-05	-1e-05	5
20632	-1e-05	4e-05	8e-05	1e-05	-2e-05	-2e-05	-2e-05	-1e-05	5
20633	-1e-05	4e-05	8e-05	1e-05	-2e-05	-2e-05	-2e-05	-1e-05	5
20634	-1e-05	4e-05	8e-05	1e-05	-2e-05	-2e-05	-2e-05	-1e-05	5
20635	-1e-05	4e-05	8e-05	1e-05	-2e-05	-2e-05	-2e-05	-1e-05	5
20636	-1e-05	4e-05	8e-05	1e-05	-2e-05	-2e-05	-2e-05	-1e-05	5
20637	-1e-05	4e-05	8e-05	1e-05	-2e-05	-2e-05	-2e-05	-1e-05	5
20638	-1e-05	4e-05	8e-05	1e-05	-2e-05	-2e-05	-2e-05	-1e-05	5
20639	-1e-05	4e-05	8e-05	1e-05	-2e-05	-2e-05	-2e-05	-1e-05	5
20640	-1e-05	4e-05	8e-05	1e-05	-2e-05	-2e-05	-2e-05	-1e-05	5
20641	4e-05	0.00011	0.0002	0.00069	0.00077	8e-05	0	-3e-05	5
20642	4e-05	0.00011	0.0002	0.00069	0.00077	8e-05	0	-3e-05	5
20643	0	0	-2e-05	4e-05	0.0001	0	-5e-05	-8e-05	5
20645	0	0	-2e-05	4e-05	0.0001	0	-5e-05	-8e-05	5
20646	0	0	-2e-05	4e-05	0.0001	0	-5e-05	-8e-05	5
20647	0	0	-2e-05	4e-05	0.0001	0	-5e-05	-8e-05	5
20648	0	0	-2e-05	4e-05	0.0001	0	-5e-05	-8e-05	5
20649	0	0	-2e-05	4e-05	0.0001	0	-5e-05	-8e-05	5
20650	0	0	-2e-05	4e-05	0.0001	0	-5e-05	-8e-05	5
20651	0	0	-2e-05	4e-05	0.0001	0	-5e-05	-8e-05	5
20652	0	0	-2e-05	4e-05	0.0001	0	-5e-05	-8e-05	5
20653	0	0	-2e-05	4e-05	0.0001	0	-5e-05	-8e-05	5
20654	0	0	-2e-05	4e-05	0.0001	0	-5e-05	-8e-05	5
20655	0	0	-2e-05	4e-05	0.0001	0	-5e-05	-8e-05	5
20656	0	0	-2e-05	4e-05	0.0001	0	-5e-05	-8e-05	5
20657	0	0	-2e-05	4e-05	0.0001	0	-5e-05	-8e-05	5
20658	0	0	-2e-05	4e-05	0.0001	0	-5e-05	-8e-05	5
20659	0	0	-2e-05	4e-05	0.0001	0	-5e-05	-8e-05	5
20660	0	0	-2e-05	4e-05	0.0001	0	-5e-05	-8e-05	5
20661	0	0	-2e-05	4e-05	0.0001	0	-5e-05	-8e-05	5
20662	0	0	-2e-05	4e-05	0.0001	0	-5e-05	-8e-05	5
20663	0	0	-2e-05	4e-05	0.0001	0	-5e-05	-8e-05	5
20664	-5e-05	-8e-05	-0.00019	-2e-05	-0.00022	-5e-05	-7e-05	-8e-05	5
20665	3e-05	7e-05	0.0002	-0.0001	-6e-05	-3e-05	3e-05	1e-05	5
20666	3e-05	7e-05	0.0002	-0.0001	-6e-05	-3e-05	3e-05	1e-05	5
20667	3e-05	7e-05	0.0002	-0.0001	-6e-05	-3e-05	3e-05	1e-05	5
20668	3e-05	7e-05	0.0002	-0.0001	-6e-05	-3e-05	3e-05	1e-05	5
20669	3e-05	7e-05	0.0002	-0.0001	-6e-05	-3e-05	3e-05	1e-05	5
20670	3e-05	7e-05	0.0002	-0.0001	-6e-05	-3e-05	3e-05	1e-05	5
20671	3e-05	7e-05	0.0002	-0.0001	-6e-05	-3e-05	3e-05	1e-05	5
20672	3e-05	7e-05	0.0002	-0.0001	-6e-05	-3e-05	3e-05	1e-05	5
20673	3e-05	7e-05	0.0002	-0.0001	-6e-05	-3e-05	3e-05	1e-05	5
20674	3e-05	7e-05	0.0002	-0.0001	-6e-05	-3e-05	3e-05	1e-05	5
20675	3e-05	7e-05	0.0002	-0.0001	-6e-05	-3e-05	3e-05	1e-05	5
20676	3e-05	7e-05	0.0002	-0.0001	-6e-05	-3e-05	3e-05	1e-05	5
20677	3e-05	7e-05	0.0002	-0.0001	-6e-05	-3e-05	3e-05	1e-05	5
20678	-0.0001	-0.00015	-0.0003	-0.00052	-0.0002	-4e-05	-9e-05	-8e-05	5
20679	-0.0001	-0.00015	-0.0003	-0.00052	-0.0002	-4e-05	-9e-05	-8e-05	5
20680	-0.0001	-0.00015	-0.0003	-0.00052	-0.0002	-4e-05	-9e-05	-8e-05	5
20681	-0.0001	-0.00015	-0.0003	-0.00052	-0.0002	-4e-05	-9e-05	-8e-05	5
20682	-0.0001	-0.00015	-0.0003	-0.00052	-0.0002	-4e-05	-9e-05	-8e-05	5
20683	-0.0001	-0.00015	-0.0003	-0.00052	-0.0002	-4e-05	-9e-05	-8e-05	5
20684	-0.0001	-0.00015	-0.0003	-0.00052	-0.0002	-4e-05	-9e-05	-8e-05	5
20685	-6e-05	-2e-05	9e-05	-3e-05	-0.00031	-9e-05	1e-05	1e-05	5
20686	-6e-05	-2e-05	9e-05	-3e-05	-0.00031	-9e-05	1e-05	1e-05	5
20687	-6e-05	-2e-05	9e-05	-3e-05	-0.00031	-9e-05	1e-05	1e-05	5
20688	-6e-05	-2e-05	9e-05	-3e-05	-0.00031	-9e-05	1e-05	1e-05	5
20689	-6e-05	-2e-05	9e-05	-3e-05	-0.00031	-9e-05	1e-05	1e-05	5
20691	-6e-05	-2e-05	9e-05	-3e-05	-0.00031	-9e-05	1e-05	1e-05	5
20692	-6e-05	-2e-05	9e-05	-3e-05	-0.00031	-9e-05	1e-05	1e-05	5
20693	-6e-05	-2e-05	9e-05	-3e-05	-0.00031	-9e-05	1e-05	1e-05	5
20694	-6e-05	-2e-05	9e-05	-3e-05	-0.00031	-9e-05	1e-05	1e-05	5
20695	-6e-05	-2e-05	9e-05	-3e-05	-0.00031	-9e-05	1e-05	1e-05	5
20696	-6e-05	-2e-05	9e-05	-3e-05	-0.00031	-9e-05	1e-05	1e-05	5
20697	-6e-05	-2e-05	9e-05	-3e-05	-0.00031	-9e-05	1e-05	1e-05	5
20698	-6e-05	-2e-05	9e-05	-3e-05	-0.00031	-9e-05	1e-05	1e-05	5
20699	-6e-05	-2e-05	9e-05	-3e-05	-0.00031	-9e-05	1e-05	1e-05	5
20700	-6e-05	-2e-05	9e-05	-3e-05	-0.00031	-9e-05	1e-05	1e-05	5
20701	-0.00017	4e-05	-6e-05	-0.00039	-0.00059	-7e-05	3e-05	-4e-05	5
20702	-0.00017	4e-05	-6e-05	-0.00039	-0.00059	-7e-05	3e-05	-4e-05	5
20703	-6e-05	-6e-05	-0.0002	-0.0006	-0.00074	-2e-05	-9e-05	-5e-05	5
20704	-6e-05	-6e-05	-0.0002	-0.0006	-0.00074	-2e-05	-9e-05	-5e-05	5
20705	-6e-05	-6e-05	-0.0002	-0.0006	-0.00074	-2e-05	-9e-05	-5e-05	5
20706	-6e-05	-6e-05	-0.0002	-0.0006	-0.00074	-2e-05	-9e-05	-5e-05	5
20707	-6e-05	-6e-05	-0.0002	-0.0006	-0.00074	-2e-05	-9e-05	-5e-05	5
20708	-6e-05	-6e-05	-0.0002	-0.0006	-0.00074	-2e-05	-9e-05	-5e-05	5
20709	-6e-05	-6e-05	-0.0002	-0.0006	-0.00074	-2e-05	-9e-05	-5e-05	5
20710	-6e-05	-6e-05	-0.0002	-0.0006	-0.00074	-2e-05	-9e-05	-5e-05	5
20711	-6e-05	-6e-05	-0.0002	-0.0006	-0.00074	-2e-05	-9e-05	-5e-05	5
20712	-6e-05	-6e-05	-0.0002	-0.0006	-0.00074	-2e-05	-9e-05	-5e-05	5
20713	-6e-05	-6e-05	-0.0002	-0.0006	-0.00074	-2e-05	-9e-05	-5e-05	5
20714	-6e-05	-6e-05	-0.0002	-0.0006	-0.00074	-2e-05	-9e-05	-5e-05	5
20715	-6e-05	-6e-05	-0.0002	-0.0006	-0.00074	-2e-05	-9e-05	-5e-05	5
20716	-6e-05	-6e-05	-0.0002	-0.0006	-0.00074	-2e-05	-9e-05	-5e-05	5
20717	-6e-05	-6e-05	-0.0002	-0.0006	-0.00074	-2e-05	-9e-05	-5e-05	5
20718	-6e-05	-6e-05	-0.0002	-0.0006	-0.00074	-2e-05	-9e-05	-5e-05	5
20719	-6e-05	-6e-05	-0.0002	-0.0006	-0.00074	-2e-05	-9e-05	-5e-05	5
20720	-6e-05	-6e-05	-0.0002	-0.0006	-0.00074	-2e-05	-9e-05	-5e-05	5
20721	-6e-05	-6e-05	-0.0002	-0.0006	-0.00074	-2e-05	-9e-05	-5e-05	5
20722	-6e-05	-6e-05	-0.0002	-0.0006	-0.00074	-2e-05	-9e-05	-5e-05	5
20723	-6e-05	-6e-05	-0.0002	-0.0006	-0.00074	-2e-05	-9e-05	-5e-05	5
20724	0.00011	1e-05	0.00011	0.00019	-0.00026	8e-05	0	0	5
20725	0	0	1e-05	0.00073	0.00084	5e-05	4e-05	2e-05	5
20726	0	0	1e-05	0.00073	0.00084	5e-05	4e-05	2e-05	5
20727	0	0	1e-05	0.00073	0.00084	5e-05	4e-05	2e-05	5
20728	0	0	1e-05	0.00073	0.00084	5e-05	4e-05	2e-05	5
20729	0	0	1e-05	0.00073	0.00084	5e-05	4e-05	2e-05	5
20730	0	0	1e-05	0.00073	0.00084	5e-05	4e-05	2e-05	5
20731	0	0	1e-05	0.00073	0.00084	5e-05	4e-05	2e-05	5
20732	0	0	1e-05	0.00073	0.00084	5e-05	4e-05	2e-05	5
20733	0	0	1e-05	0.00073	0.00084	5e-05	4e-05	2e-05	5
20734	0	0	1e-05	0.00073	0.00084	5e-05	4e-05	2e-05	5
20735	0	0	1e-05	0.00073	0.00084	5e-05	4e-05	2e-05	5
20736	0	0	1e-05	0.00073	0.00084	5e-05	4e-05	2e-05	5
20739	8e-05	2e-05	0.0001	-5e-05	-0.00014	7e-05	1e-05	9e-05	5
20740	8e-05	2e-05	0.0001	-5e-05	-0.00014	7e-05	1e-05	9e-05	5
20741	8e-05	2e-05	0.0001	-5e-05	-0.00014	7e-05	1e-05	9e-05	5
20742	8e-05	2e-05	0.0001	-5e-05	-0.00014	7e-05	1e-05	9e-05	5
20743	8e-05	2e-05	0.0001	-5e-05	-0.00014	7e-05	1e-05	9e-05	5
20744	8e-05	2e-05	0.0001	-5e-05	-0.00014	7e-05	1e-05	9e-05	5
20745	7e-05	8e-05	8e-05	0.00029	1e-05	0	7e-05	2e-05	5
20746	7e-05	8e-05	8e-05	0.00029	1e-05	0	7e-05	2e-05	5
20747	7e-05	8e-05	8e-05	0.00029	1e-05	0	7e-05	2e-05	5
20748	7e-05	8e-05	8e-05	0.00029	1e-05	0	7e-05	2e-05	5
20749	7e-05	8e-05	8e-05	0.00029	1e-05	0	7e-05	2e-05	5
20750	7e-05	8e-05	8e-05	0.00029	1e-05	0	7e-05	2e-05	5
20751	7e-05	8e-05	8e-05	0.00029	1e-05	0	7e-05	2e-05	5
20752	7e-05	8e-05	8e-05	0.00029	1e-05	0	7e-05	2e-05	5
20753	7e-05	8e-05	8e-05	0.00029	1e-05	0	7e-05	2e-05	5
20754	7e-05	8e-05	8e-05	0.00029	1e-05	0	7e-05	2e-05	5
20755	7e-05	8e-05	8e-05	0.00029	1e-05	0	7e-05	2e-05	5
20756	7e-05	8e-05	8e-05	0.00029	1e-05	0	7e-05	2e-05	5
20757	7e-05	8e-05	8e-05	0.00029	1e-05	0	7e-05	2e-05	5
20758	7e-05	8e-05	8e-05	0.00029	1e-05	0	7e-05	2e-05	5
20759	7e-05	8e-05	8e-05	0.00029	1e-05	0	7e-05	2e-05	5
20760	7e-05	8e-05	8e-05	0.00029	1e-05	0	7e-05	2e-05	5
20761	0	-0.00011	-0.00029	-0.00051	-0.00013	-4e-05	-1e-05	0	5
20762	0	-0.00011	-0.00029	-0.00051	-0.00013	-4e-05	-1e-05	0	5
20763	6e-05	2e-05	-0.00013	-0.00026	-0.00026	4e-05	-4e-05	0	5
20764	6e-05	2e-05	-0.00013	-0.00026	-0.00026	4e-05	-4e-05	0	5
20765	6e-05	2e-05	-0.00013	-0.00026	-0.00026	4e-05	-4e-05	0	5
20766	6e-05	2e-05	-0.00013	-0.00026	-0.00026	4e-05	-4e-05	0	5
20767	6e-05	2e-05	-0.00013	-0.00026	-0.00026	4e-05	-4e-05	0	5
20768	6e-05	2e-05	-0.00013	-0.00026	-0.00026	4e-05	-4e-05	0	5
20769	6e-05	2e-05	-0.00013	-0.00026	-0.00026	4e-05	-4e-05	0	5
20770	6e-05	2e-05	-0.00013	-0.00026	-0.00026	4e-05	-4e-05	0	5
20771	6e-05	2e-05	-0.00013	-0.00026	-0.00026	4e-05	-4e-05	0	5
20772	6e-05	2e-05	-0.00013	-0.00026	-0.00026	4e-05	-4e-05	0	5
20773	6e-05	2e-05	-0.00013	-0.00026	-0.00026	4e-05	-4e-05	0	5
20774	6e-05	2e-05	-0.00013	-0.00026	-0.00026	4e-05	-4e-05	0	5
20775	6e-05	2e-05	-0.00013	-0.00026	-0.00026	4e-05	-4e-05	0	5
20776	6e-05	2e-05	-0.00013	-0.00026	-0.00026	4e-05	-4e-05	0	5
20777	6e-05	2e-05	-0.00013	-0.00026	-0.00026	4e-05	-4e-05	0	5
20778	6e-05	2e-05	-0.00013	-0.00026	-0.00026	4e-05	-4e-05	0	5
20779	6e-05	2e-05	-0.00013	-0.00026	-0.00026	4e-05	-4e-05	0	5
20780	6e-05	2e-05	-0.00013	-0.00026	-0.00026	4e-05	-4e-05	0	5
20781	6e-05	2e-05	-0.00013	-0.00026	-0.00026	4e-05	-4e-05	0	5
20782	6e-05	2e-05	-0.00013	-0.00026	-0.00026	4e-05	-4e-05	0	5
20783	6e-05	2e-05	-0.00013	-0.00026	-0.00026	4e-05	-4e-05	0	5
20784	8e-05	8e-05	-1e-05	-0.00027	0.00042	9e-05	0.0001	4e-05	5
20785	8e-05	8e-05	-1e-05	-0.00027	0.00042	9e-05	0.0001	4e-05	5
20787	-3e-05	-1e-05	-0.00019	-0.00071	-0.00022	-1e-05	-6e-05	0	5
20788	-3e-05	-1e-05	-0.00019	-0.00071	-0.00022	-1e-05	-6e-05	0	5
20790	-3e-05	-1e-05	-0.00019	-0.00071	-0.00022	-1e-05	-6e-05	0	5
20791	-3e-05	-1e-05	-0.00019	-0.00071	-0.00022	-1e-05	-6e-05	0	5
20792	-3e-05	-1e-05	-0.00019	-0.00071	-0.00022	-1e-05	-6e-05	0	5
20793	-3e-05	-1e-05	-0.00019	-0.00071	-0.00022	-1e-05	-6e-05	0	5
20794	-3e-05	-1e-05	-0.00019	-0.00071	-0.00022	-1e-05	-6e-05	0	5
20795	-3e-05	-1e-05	-0.00019	-0.00071	-0.00022	-1e-05	-6e-05	0	5
20796	-3e-05	-1e-05	-0.00019	-0.00071	-0.00022	-1e-05	-6e-05	0	5
20797	-3e-05	-6e-05	-0.00023	-0.00018	-0.0001	-0.00011	-2e-05	6e-05	5
20798	-3e-05	-6e-05	-0.00023	-0.00018	-0.0001	-0.00011	-2e-05	6e-05	5
20799	-3e-05	-6e-05	-0.00023	-0.00018	-0.0001	-0.00011	-2e-05	6e-05	5
20800	-3e-05	-6e-05	-0.00023	-0.00018	-0.0001	-0.00011	-2e-05	6e-05	5
20801	-3e-05	-6e-05	-0.00023	-0.00018	-0.0001	-0.00011	-2e-05	6e-05	5
20802	-3e-05	-6e-05	-0.00023	-0.00018	-0.0001	-0.00011	-2e-05	6e-05	5
20803	-3e-05	-6e-05	-0.00023	-0.00018	-0.0001	-0.00011	-2e-05	6e-05	5
20804	-3e-05	-6e-05	-0.00023	-0.00018	-0.0001	-0.00011	-2e-05	6e-05	5
20805	-3e-05	-6e-05	-0.00023	-0.00018	-0.0001	-0.00011	-2e-05	6e-05	5
20806	1e-05	3e-05	0.00016	5e-05	-0.00089	-8e-05	-8e-05	-2e-05	5
20807	1e-05	3e-05	0.00016	5e-05	-0.00089	-8e-05	-8e-05	-2e-05	5
20808	1e-05	3e-05	0.00016	5e-05	-0.00089	-8e-05	-8e-05	-2e-05	5
20809	1e-05	3e-05	0.00016	5e-05	-0.00089	-8e-05	-8e-05	-2e-05	5
20810	1e-05	3e-05	0.00016	5e-05	-0.00089	-8e-05	-8e-05	-2e-05	5
20811	1e-05	3e-05	0.00016	5e-05	-0.00089	-8e-05	-8e-05	-2e-05	5
20812	1e-05	3e-05	0.00016	5e-05	-0.00089	-8e-05	-8e-05	-2e-05	5
20813	1e-05	3e-05	0.00016	5e-05	-0.00089	-8e-05	-8e-05	-2e-05	5
20814	1e-05	3e-05	0.00016	5e-05	-0.00089	-8e-05	-8e-05	-2e-05	5
20815	1e-05	3e-05	0.00016	5e-05	-0.00089	-8e-05	-8e-05	-2e-05	5
20816	1e-05	3e-05	0.00016	5e-05	-0.00089	-8e-05	-8e-05	-2e-05	5
20817	1e-05	3e-05	0.00016	5e-05	-0.00089	-8e-05	-8e-05	-2e-05	5
20818	1e-05	3e-05	0.00016	5e-05	-0.00089	-8e-05	-8e-05	-2e-05	5
20819	1e-05	3e-05	0.00016	5e-05	-0.00089	-8e-05	-8e-05	-2e-05	5
20820	1e-05	3e-05	0.00016	5e-05	-0.00089	-8e-05	-8e-05	-2e-05	5
20821	-2e-05	-0.00016	-0.00013	-0.00022	-7e-05	-7e-05	-4e-05	-5e-05	5
20822	-2e-05	-0.00016	-0.00013	-0.00022	-7e-05	-7e-05	-4e-05	-5e-05	5
20823	0	-1e-05	1e-05	0.00047	0.00043	4e-05	-2e-05	1e-05	5
20824	0	-1e-05	1e-05	0.00047	0.00043	4e-05	-2e-05	1e-05	5
20825	0	-1e-05	1e-05	0.00047	0.00043	4e-05	-2e-05	1e-05	5
20826	0	-1e-05	1e-05	0.00047	0.00043	4e-05	-2e-05	1e-05	5
20827	0	-1e-05	1e-05	0.00047	0.00043	4e-05	-2e-05	1e-05	5
20828	0	-1e-05	1e-05	0.00047	0.00043	4e-05	-2e-05	1e-05	5
20829	0	-1e-05	1e-05	0.00047	0.00043	4e-05	-2e-05	1e-05	5
20830	0	-1e-05	1e-05	0.00047	0.00043	4e-05	-2e-05	1e-05	5
20831	0	-1e-05	1e-05	0.00047	0.00043	4e-05	-2e-05	1e-05	5
20833	0	-1e-05	1e-05	0.00047	0.00043	4e-05	-2e-05	1e-05	5
20834	0	-1e-05	1e-05	0.00047	0.00043	4e-05	-2e-05	1e-05	5
20835	0	-1e-05	1e-05	0.00047	0.00043	4e-05	-2e-05	1e-05	5
20836	0	-1e-05	1e-05	0.00047	0.00043	4e-05	-2e-05	1e-05	5
20837	0	-1e-05	1e-05	0.00047	0.00043	4e-05	-2e-05	1e-05	5
20838	0	-1e-05	1e-05	0.00047	0.00043	4e-05	-2e-05	1e-05	5
20839	0	-1e-05	1e-05	0.00047	0.00043	4e-05	-2e-05	1e-05	5
20840	0	-1e-05	1e-05	0.00047	0.00043	4e-05	-2e-05	1e-05	5
20841	0	-1e-05	1e-05	0.00047	0.00043	4e-05	-2e-05	1e-05	5
20842	0	-1e-05	1e-05	0.00047	0.00043	4e-05	-2e-05	1e-05	5
20843	0	-1e-05	1e-05	0.00047	0.00043	4e-05	-2e-05	1e-05	5
20844	-6e-05	2e-05	0.0001	0	-0.00064	-0.00011	-2e-05	2e-05	5
20845	-6e-05	2e-05	0.0001	0	-0.00064	-0.00011	-2e-05	2e-05	5
20846	-6e-05	2e-05	0.0001	0	-0.00064	-0.00011	-2e-05	2e-05	5
20847	-3e-05	7e-05	6e-05	0.00049	0.00095	6e-05	5e-05	-5e-05	5
20848	-3e-05	7e-05	6e-05	0.00049	0.00095	6e-05	5e-05	-5e-05	5
20849	-3e-05	7e-05	6e-05	0.00049	0.00095	6e-05	5e-05	-5e-05	5
20850	-3e-05	7e-05	6e-05	0.00049	0.00095	6e-05	5e-05	-5e-05	5
20851	-3e-05	7e-05	6e-05	0.00049	0.00095	6e-05	5e-05	-5e-05	5
20852	-3e-05	7e-05	6e-05	0.00049	0.00095	6e-05	5e-05	-5e-05	5
20853	-3e-05	7e-05	6e-05	0.00049	0.00095	6e-05	5e-05	-5e-05	5
20854	-3e-05	7e-05	6e-05	0.00049	0.00095	6e-05	5e-05	-5e-05	5
20855	-3e-05	7e-05	6e-05	0.00049	0.00095	6e-05	5e-05	-5e-05	5
20856	-3e-05	7e-05	6e-05	0.00049	0.00095	6e-05	5e-05	-5e-05	5
20857	5e-05	5e-05	0.00014	9e-05	7e-05	6e-05	2e-05	0.00012	5
20858	5e-05	5e-05	0.00014	9e-05	7e-05	6e-05	2e-05	0.00012	5
20859	5e-05	5e-05	0.00014	9e-05	7e-05	6e-05	2e-05	0.00012	5
20860	5e-05	5e-05	0.00014	9e-05	7e-05	6e-05	2e-05	0.00012	5
20861	5e-05	5e-05	0.00014	9e-05	7e-05	6e-05	2e-05	0.00012	5
20862	5e-05	5e-05	0.00014	9e-05	7e-05	6e-05	2e-05	0.00012	5
20863	5e-05	5e-05	0.00014	9e-05	7e-05	6e-05	2e-05	0.00012	5
20864	5e-05	5e-05	0.00014	9e-05	7e-05	6e-05	2e-05	0.00012	5
20865	5e-05	5e-05	0.00014	9e-05	7e-05	6e-05	2e-05	0.00012	5
20866	-1e-05	-2e-05	2e-05	-6e-05	-0.00036	1e-05	2e-05	3e-05	5
20867	-1e-05	-2e-05	2e-05	-6e-05	-0.00036	1e-05	2e-05	3e-05	5
20868	-1e-05	-2e-05	2e-05	-6e-05	-0.00036	1e-05	2e-05	3e-05	5
20869	-1e-05	-2e-05	2e-05	-6e-05	-0.00036	1e-05	2e-05	3e-05	5
20870	-1e-05	-2e-05	2e-05	-6e-05	-0.00036	1e-05	2e-05	3e-05	5
20871	-1e-05	-2e-05	2e-05	-6e-05	-0.00036	1e-05	2e-05	3e-05	5
20872	-1e-05	-2e-05	2e-05	-6e-05	-0.00036	1e-05	2e-05	3e-05	5
20873	-1e-05	-2e-05	2e-05	-6e-05	-0.00036	1e-05	2e-05	3e-05	5
20874	-1e-05	-2e-05	2e-05	-6e-05	-0.00036	1e-05	2e-05	3e-05	5
20875	-1e-05	-2e-05	2e-05	-6e-05	-0.00036	1e-05	2e-05	3e-05	5
20876	-1e-05	-2e-05	2e-05	-6e-05	-0.00036	1e-05	2e-05	3e-05	5
20878	-1e-05	-2e-05	2e-05	-6e-05	-0.00036	1e-05	2e-05	3e-05	5
20879	-1e-05	-2e-05	2e-05	-6e-05	-0.00036	1e-05	2e-05	3e-05	5
20880	-1e-05	-2e-05	2e-05	-6e-05	-0.00036	1e-05	2e-05	3e-05	5
20881	0	0	3e-05	0.00051	0.00063	3e-05	1e-05	-2e-05	5
20882	0	0	3e-05	0.00051	0.00063	3e-05	1e-05	-2e-05	5
20883	-1e-05	2e-05	7e-05	-0.00022	-0.00071	-9e-05	-4e-05	-7e-05	5
20884	-1e-05	2e-05	7e-05	-0.00022	-0.00071	-9e-05	-4e-05	-7e-05	5
20885	-1e-05	2e-05	7e-05	-0.00022	-0.00071	-9e-05	-4e-05	-7e-05	5
20886	-1e-05	2e-05	7e-05	-0.00022	-0.00071	-9e-05	-4e-05	-7e-05	5
20887	-1e-05	2e-05	7e-05	-0.00022	-0.00071	-9e-05	-4e-05	-7e-05	5
20888	-1e-05	2e-05	7e-05	-0.00022	-0.00071	-9e-05	-4e-05	-7e-05	5
20889	-1e-05	2e-05	7e-05	-0.00022	-0.00071	-9e-05	-4e-05	-7e-05	5
20890	-1e-05	2e-05	7e-05	-0.00022	-0.00071	-9e-05	-4e-05	-7e-05	5
20891	-1e-05	2e-05	7e-05	-0.00022	-0.00071	-9e-05	-4e-05	-7e-05	5
20892	-1e-05	2e-05	7e-05	-0.00022	-0.00071	-9e-05	-4e-05	-7e-05	5
20893	-1e-05	2e-05	7e-05	-0.00022	-0.00071	-9e-05	-4e-05	-7e-05	5
20894	-1e-05	2e-05	7e-05	-0.00022	-0.00071	-9e-05	-4e-05	-7e-05	5
20895	-1e-05	2e-05	7e-05	-0.00022	-0.00071	-9e-05	-4e-05	-7e-05	5
20896	-1e-05	2e-05	7e-05	-0.00022	-0.00071	-9e-05	-4e-05	-7e-05	5
20897	-1e-05	2e-05	7e-05	-0.00022	-0.00071	-9e-05	-4e-05	-7e-05	5
20898	-1e-05	2e-05	7e-05	-0.00022	-0.00071	-9e-05	-4e-05	-7e-05	5
20899	-1e-05	2e-05	7e-05	-0.00022	-0.00071	-9e-05	-4e-05	-7e-05	5
20900	-1e-05	2e-05	7e-05	-0.00022	-0.00071	-9e-05	-4e-05	-7e-05	5
20901	-1e-05	2e-05	7e-05	-0.00022	-0.00071	-9e-05	-4e-05	-7e-05	5
20902	-1e-05	2e-05	7e-05	-0.00022	-0.00071	-9e-05	-4e-05	-7e-05	5
20903	-1e-05	2e-05	7e-05	-0.00022	-0.00071	-9e-05	-4e-05	-7e-05	5
20904	-5e-05	1e-05	-5e-05	-0.00023	-0.00056	-9e-05	-8e-05	-6e-05	5
20905	1e-05	-5e-05	-9e-05	7e-05	-0.00025	-0.00011	1e-05	-2e-05	5
20906	1e-05	-5e-05	-9e-05	7e-05	-0.00025	-0.00011	1e-05	-2e-05	5
20907	1e-05	-5e-05	-9e-05	7e-05	-0.00025	-0.00011	1e-05	-2e-05	5
20908	1e-05	-5e-05	-9e-05	7e-05	-0.00025	-0.00011	1e-05	-2e-05	5
20909	1e-05	-5e-05	-9e-05	7e-05	-0.00025	-0.00011	1e-05	-2e-05	5
20910	1e-05	-5e-05	-9e-05	7e-05	-0.00025	-0.00011	1e-05	-2e-05	5
20911	1e-05	-5e-05	-9e-05	7e-05	-0.00025	-0.00011	1e-05	-2e-05	5
20912	1e-05	-5e-05	-9e-05	7e-05	-0.00025	-0.00011	1e-05	-2e-05	5
20913	1e-05	-5e-05	-9e-05	7e-05	-0.00025	-0.00011	1e-05	-2e-05	5
20914	1e-05	-5e-05	-9e-05	7e-05	-0.00025	-0.00011	1e-05	-2e-05	5
20915	1e-05	-5e-05	-9e-05	7e-05	-0.00025	-0.00011	1e-05	-2e-05	5
20916	1e-05	-5e-05	-9e-05	7e-05	-0.00025	-0.00011	1e-05	-2e-05	5
20917	-1e-05	0.0002	0.00033	0.00027	2e-05	-1e-05	2e-05	-2e-05	5
20918	-1e-05	0.0002	0.00033	0.00027	2e-05	-1e-05	2e-05	-2e-05	5
20919	-1e-05	0.0002	0.00033	0.00027	2e-05	-1e-05	2e-05	-2e-05	5
20920	-1e-05	0.0002	0.00033	0.00027	2e-05	-1e-05	2e-05	-2e-05	5
20921	-1e-05	0.0002	0.00033	0.00027	2e-05	-1e-05	2e-05	-2e-05	5
20922	-1e-05	0.0002	0.00033	0.00027	2e-05	-1e-05	2e-05	-2e-05	5
20923	-1e-05	0.0002	0.00033	0.00027	2e-05	-1e-05	2e-05	-2e-05	5
20925	-1e-05	0.0002	0.00033	0.00027	2e-05	-1e-05	2e-05	-2e-05	5
20926	-0.0001	-0.00021	-0.00015	-0.00015	0.00018	-1e-05	-3e-05	-5e-05	5
20927	-0.0001	-0.00021	-0.00015	-0.00015	0.00018	-1e-05	-3e-05	-5e-05	5
20928	-0.0001	-0.00021	-0.00015	-0.00015	0.00018	-1e-05	-3e-05	-5e-05	5
20929	-0.0001	-0.00021	-0.00015	-0.00015	0.00018	-1e-05	-3e-05	-5e-05	5
20930	-0.0001	-0.00021	-0.00015	-0.00015	0.00018	-1e-05	-3e-05	-5e-05	5
20931	-0.0001	-0.00021	-0.00015	-0.00015	0.00018	-1e-05	-3e-05	-5e-05	5
20932	-0.0001	-0.00021	-0.00015	-0.00015	0.00018	-1e-05	-3e-05	-5e-05	5
20933	-0.0001	-0.00021	-0.00015	-0.00015	0.00018	-1e-05	-3e-05	-5e-05	5
20934	-0.0001	-0.00021	-0.00015	-0.00015	0.00018	-1e-05	-3e-05	-5e-05	5
20935	-0.0001	-0.00021	-0.00015	-0.00015	0.00018	-1e-05	-3e-05	-5e-05	5
20936	-0.0001	-0.00021	-0.00015	-0.00015	0.00018	-1e-05	-3e-05	-5e-05	5
20937	-0.0001	-0.00021	-0.00015	-0.00015	0.00018	-1e-05	-3e-05	-5e-05	5
20938	-0.0001	-0.00021	-0.00015	-0.00015	0.00018	-1e-05	-3e-05	-5e-05	5
20939	-0.0001	-0.00021	-0.00015	-0.00015	0.00018	-1e-05	-3e-05	-5e-05	5
20940	-0.0001	-0.00021	-0.00015	-0.00015	0.00018	-1e-05	-3e-05	-5e-05	5
20941	-3e-05	-5e-05	6e-05	0.00015	0.00013	2e-05	-1e-05	-1e-05	5
20942	-3e-05	-5e-05	6e-05	0.00015	0.00013	2e-05	-1e-05	-1e-05	5
20943	-5e-05	-0.00014	-0.00033	-0.00047	-0.00044	1e-05	0	-1e-05	5
20944	-5e-05	-0.00014	-0.00033	-0.00047	-0.00044	1e-05	0	-1e-05	5
20945	-5e-05	-0.00014	-0.00033	-0.00047	-0.00044	1e-05	0	-1e-05	5
20946	-5e-05	-0.00014	-0.00033	-0.00047	-0.00044	1e-05	0	-1e-05	5
20947	-5e-05	-0.00014	-0.00033	-0.00047	-0.00044	1e-05	0	-1e-05	5
20948	-5e-05	-0.00014	-0.00033	-0.00047	-0.00044	1e-05	0	-1e-05	5
20949	-5e-05	-0.00014	-0.00033	-0.00047	-0.00044	1e-05	0	-1e-05	5
20950	-5e-05	-0.00014	-0.00033	-0.00047	-0.00044	1e-05	0	-1e-05	5
20951	-5e-05	-0.00014	-0.00033	-0.00047	-0.00044	1e-05	0	-1e-05	5
20952	-5e-05	-0.00014	-0.00033	-0.00047	-0.00044	1e-05	0	-1e-05	5
20953	-5e-05	-0.00014	-0.00033	-0.00047	-0.00044	1e-05	0	-1e-05	5
20954	-5e-05	-0.00014	-0.00033	-0.00047	-0.00044	1e-05	0	-1e-05	5
20955	-5e-05	-0.00014	-0.00033	-0.00047	-0.00044	1e-05	0	-1e-05	5
20956	-5e-05	-0.00014	-0.00033	-0.00047	-0.00044	1e-05	0	-1e-05	5
20957	-5e-05	-0.00014	-0.00033	-0.00047	-0.00044	1e-05	0	-1e-05	5
20958	-5e-05	-0.00014	-0.00033	-0.00047	-0.00044	1e-05	0	-1e-05	5
20959	-5e-05	-0.00014	-0.00033	-0.00047	-0.00044	1e-05	0	-1e-05	5
20960	-5e-05	-0.00014	-0.00033	-0.00047	-0.00044	1e-05	0	-1e-05	5
20961	-5e-05	-0.00014	-0.00033	-0.00047	-0.00044	1e-05	0	-1e-05	5
20962	-5e-05	-0.00014	-0.00033	-0.00047	-0.00044	1e-05	0	-1e-05	5
20963	-5e-05	-0.00014	-0.00033	-0.00047	-0.00044	1e-05	0	-1e-05	5
20964	-2e-05	0	2e-05	0.00018	0.00051	8e-05	-3e-05	-0.0001	5
20965	2e-05	4e-05	7e-05	0.00018	0.00011	1e-05	0	0	5
20966	2e-05	4e-05	7e-05	0.00018	0.00011	1e-05	0	0	5
20967	2e-05	4e-05	7e-05	0.00018	0.00011	1e-05	0	0	5
20968	2e-05	4e-05	7e-05	0.00018	0.00011	1e-05	0	0	5
20969	2e-05	4e-05	7e-05	0.00018	0.00011	1e-05	0	0	5
20970	2e-05	4e-05	7e-05	0.00018	0.00011	1e-05	0	0	5
20972	2e-05	4e-05	7e-05	0.00018	0.00011	1e-05	0	0	5
20973	2e-05	4e-05	7e-05	0.00018	0.00011	1e-05	0	0	5
20974	2e-05	4e-05	7e-05	0.00018	0.00011	1e-05	0	0	5
20975	2e-05	4e-05	7e-05	0.00018	0.00011	1e-05	0	0	5
20976	2e-05	4e-05	7e-05	0.00018	0.00011	1e-05	0	0	5
20977	0.00012	0.00016	0.00031	0.00018	-0.00029	3e-05	4e-05	8e-05	5
20978	0.00012	0.00016	0.00031	0.00018	-0.00029	3e-05	4e-05	8e-05	5
20979	0.00012	0.00016	0.00031	0.00018	-0.00029	3e-05	4e-05	8e-05	5
20980	0.00012	0.00016	0.00031	0.00018	-0.00029	3e-05	4e-05	8e-05	5
20981	0.00012	0.00016	0.00031	0.00018	-0.00029	3e-05	4e-05	8e-05	5
20982	0.00012	0.00016	0.00031	0.00018	-0.00029	3e-05	4e-05	8e-05	5
20983	0.00012	0.00016	0.00031	0.00018	-0.00029	3e-05	4e-05	8e-05	5
20984	0.00012	0.00016	0.00031	0.00018	-0.00029	3e-05	4e-05	8e-05	5
20985	0.00012	0.00016	0.00031	0.00018	-0.00029	3e-05	4e-05	8e-05	5
20986	0.00012	0.00016	0.00031	0.00018	-0.00029	3e-05	4e-05	8e-05	5
20987	0.00012	0.00016	0.00031	0.00018	-0.00029	3e-05	4e-05	8e-05	5
20988	2e-05	5e-05	0.00014	0.00011	-4e-05	3e-05	-2e-05	-1e-05	5
20989	2e-05	5e-05	0.00014	0.00011	-4e-05	3e-05	-2e-05	-1e-05	5
20990	2e-05	5e-05	0.00014	0.00011	-4e-05	3e-05	-2e-05	-1e-05	5
20991	2e-05	5e-05	0.00014	0.00011	-4e-05	3e-05	-2e-05	-1e-05	5
20992	2e-05	5e-05	0.00014	0.00011	-4e-05	3e-05	-2e-05	-1e-05	5
20993	2e-05	5e-05	0.00014	0.00011	-4e-05	3e-05	-2e-05	-1e-05	5
20994	2e-05	5e-05	0.00014	0.00011	-4e-05	3e-05	-2e-05	-1e-05	5
20995	2e-05	5e-05	0.00014	0.00011	-4e-05	3e-05	-2e-05	-1e-05	5
20996	2e-05	5e-05	0.00014	0.00011	-4e-05	3e-05	-2e-05	-1e-05	5
20997	2e-05	5e-05	0.00014	0.00011	-4e-05	3e-05	-2e-05	-1e-05	5
20998	2e-05	5e-05	0.00014	0.00011	-4e-05	3e-05	-2e-05	-1e-05	5
20999	2e-05	5e-05	0.00014	0.00011	-4e-05	3e-05	-2e-05	-1e-05	5
21000	2e-05	5e-05	0.00014	0.00011	-4e-05	3e-05	-2e-05	-1e-05	5
21001	-1e-05	-8e-05	-7e-05	0.00031	0.00058	2e-05	5e-05	-2e-05	5
21002	-1e-05	-8e-05	-7e-05	0.00031	0.00058	2e-05	5e-05	-2e-05	5
21003	5e-05	5e-05	0.00018	0.00044	0.00018	-1e-05	4e-05	-1e-05	5
21004	5e-05	5e-05	0.00018	0.00044	0.00018	-1e-05	4e-05	-1e-05	5
21005	5e-05	5e-05	0.00018	0.00044	0.00018	-1e-05	4e-05	-1e-05	5
21006	5e-05	5e-05	0.00018	0.00044	0.00018	-1e-05	4e-05	-1e-05	5
21007	5e-05	5e-05	0.00018	0.00044	0.00018	-1e-05	4e-05	-1e-05	5
21008	5e-05	5e-05	0.00018	0.00044	0.00018	-1e-05	4e-05	-1e-05	5
21009	5e-05	5e-05	0.00018	0.00044	0.00018	-1e-05	4e-05	-1e-05	5
21010	5e-05	5e-05	0.00018	0.00044	0.00018	-1e-05	4e-05	-1e-05	5
21011	5e-05	5e-05	0.00018	0.00044	0.00018	-1e-05	4e-05	-1e-05	5
21012	5e-05	5e-05	0.00018	0.00044	0.00018	-1e-05	4e-05	-1e-05	5
21013	5e-05	5e-05	0.00018	0.00044	0.00018	-1e-05	4e-05	-1e-05	5
21014	5e-05	5e-05	0.00018	0.00044	0.00018	-1e-05	4e-05	-1e-05	5
21015	5e-05	5e-05	0.00018	0.00044	0.00018	-1e-05	4e-05	-1e-05	5
21016	5e-05	5e-05	0.00018	0.00044	0.00018	-1e-05	4e-05	-1e-05	5
21017	5e-05	5e-05	0.00018	0.00044	0.00018	-1e-05	4e-05	-1e-05	5
21018	5e-05	5e-05	0.00018	0.00044	0.00018	-1e-05	4e-05	-1e-05	5
21020	5e-05	5e-05	0.00018	0.00044	0.00018	-1e-05	4e-05	-1e-05	5
21021	5e-05	5e-05	0.00018	0.00044	0.00018	-1e-05	4e-05	-1e-05	5
21022	5e-05	5e-05	0.00018	0.00044	0.00018	-1e-05	4e-05	-1e-05	5
21023	5e-05	5e-05	0.00018	0.00044	0.00018	-1e-05	4e-05	-1e-05	5
21024	1e-05	-1e-05	6e-05	0.00032	0.00038	3e-05	3e-05	-2e-05	5
21025	-6e-05	-6e-05	-0.0001	-0.00063	-0.00045	-8e-05	-8e-05	3e-05	5
21026	-6e-05	-6e-05	-0.0001	-0.00063	-0.00045	-8e-05	-8e-05	3e-05	5
21027	-6e-05	-6e-05	-0.0001	-0.00063	-0.00045	-8e-05	-8e-05	3e-05	5
21028	-6e-05	-6e-05	-0.0001	-0.00063	-0.00045	-8e-05	-8e-05	3e-05	5
21029	-6e-05	-6e-05	-0.0001	-0.00063	-0.00045	-8e-05	-8e-05	3e-05	5
21030	-6e-05	-6e-05	-0.0001	-0.00063	-0.00045	-8e-05	-8e-05	3e-05	5
21031	-6e-05	-6e-05	-0.0001	-0.00063	-0.00045	-8e-05	-8e-05	3e-05	5
21032	-6e-05	-6e-05	-0.0001	-0.00063	-0.00045	-8e-05	-8e-05	3e-05	5
21033	-6e-05	-6e-05	-0.0001	-0.00063	-0.00045	-8e-05	-8e-05	3e-05	5
21034	-6e-05	-6e-05	-0.0001	-0.00063	-0.00045	-8e-05	-8e-05	3e-05	5
21035	-6e-05	-6e-05	-0.0001	-0.00063	-0.00045	-8e-05	-8e-05	3e-05	5
21036	-6e-05	-6e-05	-0.0001	-0.00063	-0.00045	-8e-05	-8e-05	3e-05	5
21037	-6e-05	-6e-05	-0.0001	-0.00063	-0.00045	-8e-05	-8e-05	3e-05	5
21038	-6e-05	-0.00012	-0.00021	-0.00036	-0.00023	-6e-05	-6e-05	-9e-05	5
21039	-6e-05	-0.00012	-0.00021	-0.00036	-0.00023	-6e-05	-6e-05	-9e-05	5
21040	-6e-05	-0.00012	-0.00021	-0.00036	-0.00023	-6e-05	-6e-05	-9e-05	5
21041	-6e-05	-0.00012	-0.00021	-0.00036	-0.00023	-6e-05	-6e-05	-9e-05	5
21042	-6e-05	-0.00012	-0.00021	-0.00036	-0.00023	-6e-05	-6e-05	-9e-05	5
21043	-6e-05	-0.00012	-0.00021	-0.00036	-0.00023	-6e-05	-6e-05	-9e-05	5
21044	-6e-05	-0.00012	-0.00021	-0.00036	-0.00023	-6e-05	-6e-05	-9e-05	5
21045	-6e-05	-0.00012	-0.00021	-0.00036	-0.00023	-6e-05	-6e-05	-9e-05	5
21046	-0.00037	-7e-05	-0.00022	-0.00022	-0.00033	-7e-05	-2e-05	-5e-05	5
21047	-0.00037	-7e-05	-0.00022	-0.00022	-0.00033	-7e-05	-2e-05	-5e-05	5
21048	-0.00037	-7e-05	-0.00022	-0.00022	-0.00033	-7e-05	-2e-05	-5e-05	5
21049	-0.00037	-7e-05	-0.00022	-0.00022	-0.00033	-7e-05	-2e-05	-5e-05	5
21050	-0.00037	-7e-05	-0.00022	-0.00022	-0.00033	-7e-05	-2e-05	-5e-05	5
21051	-0.00037	-7e-05	-0.00022	-0.00022	-0.00033	-7e-05	-2e-05	-5e-05	5
21052	-0.00037	-7e-05	-0.00022	-0.00022	-0.00033	-7e-05	-2e-05	-5e-05	5
21053	-0.00037	-7e-05	-0.00022	-0.00022	-0.00033	-7e-05	-2e-05	-5e-05	5
21054	-0.00037	-7e-05	-0.00022	-0.00022	-0.00033	-7e-05	-2e-05	-5e-05	5
21055	-0.00037	-7e-05	-0.00022	-0.00022	-0.00033	-7e-05	-2e-05	-5e-05	5
21056	-0.00037	-7e-05	-0.00022	-0.00022	-0.00033	-7e-05	-2e-05	-5e-05	5
21057	-0.00037	-7e-05	-0.00022	-0.00022	-0.00033	-7e-05	-2e-05	-5e-05	5
21058	-0.00037	-7e-05	-0.00022	-0.00022	-0.00033	-7e-05	-2e-05	-5e-05	5
21059	-0.00037	-7e-05	-0.00022	-0.00022	-0.00033	-7e-05	-2e-05	-5e-05	5
21060	-0.00037	-7e-05	-0.00022	-0.00022	-0.00033	-7e-05	-2e-05	-5e-05	5
21061	-4e-05	-4e-05	-0.00024	-0.00048	-5e-05	-7e-05	3e-05	5e-05	5
21062	-4e-05	-4e-05	-0.00024	-0.00048	-5e-05	-7e-05	3e-05	5e-05	5
21063	0.00012	-7e-05	-0.00017	-0.00034	-0.00021	3e-05	-5e-05	2e-05	5
21064	0.00012	-7e-05	-0.00017	-0.00034	-0.00021	3e-05	-5e-05	2e-05	5
21065	0.00012	-7e-05	-0.00017	-0.00034	-0.00021	3e-05	-5e-05	2e-05	5
21067	0.00012	-7e-05	-0.00017	-0.00034	-0.00021	3e-05	-5e-05	2e-05	5
21068	0.00012	-7e-05	-0.00017	-0.00034	-0.00021	3e-05	-5e-05	2e-05	5
21069	0.00012	-7e-05	-0.00017	-0.00034	-0.00021	3e-05	-5e-05	2e-05	5
21070	0.00012	-7e-05	-0.00017	-0.00034	-0.00021	3e-05	-5e-05	2e-05	5
21071	0.00012	-7e-05	-0.00017	-0.00034	-0.00021	3e-05	-5e-05	2e-05	5
21072	0.00012	-7e-05	-0.00017	-0.00034	-0.00021	3e-05	-5e-05	2e-05	5
21073	0.00012	-7e-05	-0.00017	-0.00034	-0.00021	3e-05	-5e-05	2e-05	5
21074	0.00012	-7e-05	-0.00017	-0.00034	-0.00021	3e-05	-5e-05	2e-05	5
21075	0.00012	-7e-05	-0.00017	-0.00034	-0.00021	3e-05	-5e-05	2e-05	5
21076	0.00012	-7e-05	-0.00017	-0.00034	-0.00021	3e-05	-5e-05	2e-05	5
21077	0.00012	-7e-05	-0.00017	-0.00034	-0.00021	3e-05	-5e-05	2e-05	5
21078	0.00012	-7e-05	-0.00017	-0.00034	-0.00021	3e-05	-5e-05	2e-05	5
21079	0.00012	-7e-05	-0.00017	-0.00034	-0.00021	3e-05	-5e-05	2e-05	5
21080	0.00012	-7e-05	-0.00017	-0.00034	-0.00021	3e-05	-5e-05	2e-05	5
21081	0.00012	-7e-05	-0.00017	-0.00034	-0.00021	3e-05	-5e-05	2e-05	5
21082	0.00012	-7e-05	-0.00017	-0.00034	-0.00021	3e-05	-5e-05	2e-05	5
21083	0.00012	-7e-05	-0.00017	-0.00034	-0.00021	3e-05	-5e-05	2e-05	5
21084	6e-05	3e-05	9e-05	3e-05	-0.00046	-7e-05	-1e-05	-2e-05	5
21085	9e-05	-0.00013	-0.00047	3e-05	0.00127	0.00012	8e-05	1e-05	5
21086	9e-05	-0.00013	-0.00047	3e-05	0.00127	0.00012	8e-05	1e-05	5
21087	9e-05	-0.00013	-0.00047	3e-05	0.00127	0.00012	8e-05	1e-05	5
21088	9e-05	-0.00013	-0.00047	3e-05	0.00127	0.00012	8e-05	1e-05	5
21089	9e-05	-0.00013	-0.00047	3e-05	0.00127	0.00012	8e-05	1e-05	5
21090	9e-05	-0.00013	-0.00047	3e-05	0.00127	0.00012	8e-05	1e-05	5
21091	9e-05	-0.00013	-0.00047	3e-05	0.00127	0.00012	8e-05	1e-05	5
21092	9e-05	-0.00013	-0.00047	3e-05	0.00127	0.00012	8e-05	1e-05	5
21093	9e-05	-0.00013	-0.00047	3e-05	0.00127	0.00012	8e-05	1e-05	5
21094	9e-05	-0.00013	-0.00047	3e-05	0.00127	0.00012	8e-05	1e-05	5
21095	9e-05	-0.00013	-0.00047	3e-05	0.00127	0.00012	8e-05	1e-05	5
21096	9e-05	-0.00013	-0.00047	3e-05	0.00127	0.00012	8e-05	1e-05	5
21097	9e-05	9e-05	0.00018	0.00014	-0.0003	0.00011	1e-05	8e-05	5
21098	9e-05	9e-05	0.00018	0.00014	-0.0003	0.00011	1e-05	8e-05	5
21099	9e-05	9e-05	0.00018	0.00014	-0.0003	0.00011	1e-05	8e-05	5
21100	9e-05	9e-05	0.00018	0.00014	-0.0003	0.00011	1e-05	8e-05	5
21101	9e-05	9e-05	0.00018	0.00014	-0.0003	0.00011	1e-05	8e-05	5
21102	9e-05	9e-05	0.00018	0.00014	-0.0003	0.00011	1e-05	8e-05	5
21103	9e-05	9e-05	0.00018	0.00014	-0.0003	0.00011	1e-05	8e-05	5
21104	9e-05	9e-05	0.00018	0.00014	-0.0003	0.00011	1e-05	8e-05	5
21105	9e-05	9e-05	0.00018	0.00014	-0.0003	0.00011	1e-05	8e-05	5
21106	0.00012	0.00024	0.00036	0.00017	-0.00021	4e-05	2e-05	5e-05	5
21107	0.00012	0.00024	0.00036	0.00017	-0.00021	4e-05	2e-05	5e-05	5
21108	0.00012	0.00024	0.00036	0.00017	-0.00021	4e-05	2e-05	5e-05	5
21109	0.00012	0.00024	0.00036	0.00017	-0.00021	4e-05	2e-05	5e-05	5
21110	0.00012	0.00024	0.00036	0.00017	-0.00021	4e-05	2e-05	5e-05	5
21111	0.00012	0.00024	0.00036	0.00017	-0.00021	4e-05	2e-05	5e-05	5
21113	0.00012	0.00024	0.00036	0.00017	-0.00021	4e-05	2e-05	5e-05	5
21114	0.00012	0.00024	0.00036	0.00017	-0.00021	4e-05	2e-05	5e-05	5
21115	0.00012	0.00024	0.00036	0.00017	-0.00021	4e-05	2e-05	5e-05	5
21116	0.00012	0.00024	0.00036	0.00017	-0.00021	4e-05	2e-05	5e-05	5
21117	0.00012	0.00024	0.00036	0.00017	-0.00021	4e-05	2e-05	5e-05	5
21118	0.00012	0.00024	0.00036	0.00017	-0.00021	4e-05	2e-05	5e-05	5
21119	0.00012	0.00024	0.00036	0.00017	-0.00021	4e-05	2e-05	5e-05	5
21120	0.00012	0.00024	0.00036	0.00017	-0.00021	4e-05	2e-05	5e-05	5
21121	0	-7e-05	-0.00017	-0.0001	0.00016	2e-05	-4e-05	-5e-05	5
21122	0	-7e-05	-0.00017	-0.0001	0.00016	2e-05	-4e-05	-5e-05	5
21123	-6e-05	-5e-05	-6e-05	0.00025	0.00049	4e-05	1e-05	-7e-05	5
21124	-6e-05	-5e-05	-6e-05	0.00025	0.00049	4e-05	1e-05	-7e-05	5
21125	-6e-05	-5e-05	-6e-05	0.00025	0.00049	4e-05	1e-05	-7e-05	5
21126	-6e-05	-5e-05	-6e-05	0.00025	0.00049	4e-05	1e-05	-7e-05	5
21127	-6e-05	-5e-05	-6e-05	0.00025	0.00049	4e-05	1e-05	-7e-05	5
21128	-6e-05	-5e-05	-6e-05	0.00025	0.00049	4e-05	1e-05	-7e-05	5
21129	-6e-05	-5e-05	-6e-05	0.00025	0.00049	4e-05	1e-05	-7e-05	5
21130	-6e-05	-5e-05	-6e-05	0.00025	0.00049	4e-05	1e-05	-7e-05	5
21131	-6e-05	-5e-05	-6e-05	0.00025	0.00049	4e-05	1e-05	-7e-05	5
21132	-6e-05	-5e-05	-6e-05	0.00025	0.00049	4e-05	1e-05	-7e-05	5
21133	-6e-05	-5e-05	-6e-05	0.00025	0.00049	4e-05	1e-05	-7e-05	5
21134	-6e-05	-5e-05	-6e-05	0.00025	0.00049	4e-05	1e-05	-7e-05	5
21135	-6e-05	-5e-05	-6e-05	0.00025	0.00049	4e-05	1e-05	-7e-05	5
21136	-6e-05	-5e-05	-6e-05	0.00025	0.00049	4e-05	1e-05	-7e-05	5
21137	-6e-05	-5e-05	-6e-05	0.00025	0.00049	4e-05	1e-05	-7e-05	5
21138	-6e-05	-5e-05	-6e-05	0.00025	0.00049	4e-05	1e-05	-7e-05	5
21139	-6e-05	-5e-05	-6e-05	0.00025	0.00049	4e-05	1e-05	-7e-05	5
21140	-6e-05	-5e-05	-6e-05	0.00025	0.00049	4e-05	1e-05	-7e-05	5
21141	-6e-05	-5e-05	-6e-05	0.00025	0.00049	4e-05	1e-05	-7e-05	5
21142	-6e-05	-5e-05	-6e-05	0.00025	0.00049	4e-05	1e-05	-7e-05	5
21143	-6e-05	-5e-05	-6e-05	0.00025	0.00049	4e-05	1e-05	-7e-05	5
21144	-0.00013	0	0.00011	0.0004	-0.00018	-8e-05	-7e-05	-7e-05	5
21145	6e-05	4e-05	0.00027	0.00041	-1e-05	8e-05	7e-05	7e-05	5
21146	6e-05	4e-05	0.00027	0.00041	-1e-05	8e-05	7e-05	7e-05	5
21147	6e-05	4e-05	0.00027	0.00041	-1e-05	8e-05	7e-05	7e-05	5
21148	6e-05	4e-05	0.00027	0.00041	-1e-05	8e-05	7e-05	7e-05	5
21149	6e-05	4e-05	0.00027	0.00041	-1e-05	8e-05	7e-05	7e-05	5
21150	6e-05	4e-05	0.00027	0.00041	-1e-05	8e-05	7e-05	7e-05	5
21151	6e-05	4e-05	0.00027	0.00041	-1e-05	8e-05	7e-05	7e-05	5
21152	6e-05	4e-05	0.00027	0.00041	-1e-05	8e-05	7e-05	7e-05	5
21153	6e-05	4e-05	0.00027	0.00041	-1e-05	8e-05	7e-05	7e-05	5
21154	6e-05	4e-05	0.00027	0.00041	-1e-05	8e-05	7e-05	7e-05	5
21155	6e-05	4e-05	0.00027	0.00041	-1e-05	8e-05	7e-05	7e-05	5
21156	6e-05	4e-05	0.00027	0.00041	-1e-05	8e-05	7e-05	7e-05	5
21157	-3e-05	3e-05	2e-05	-0.00027	-0.00027	-9e-05	-2e-05	-4e-05	5
21158	3e-05	6e-05	0.00017	0.00058	0.00094	9e-05	3e-05	5e-05	5
21159	3e-05	6e-05	0.00017	0.00058	0.00094	9e-05	3e-05	5e-05	5
21160	3e-05	6e-05	0.00017	0.00058	0.00094	9e-05	3e-05	5e-05	5
21161	3e-05	6e-05	0.00017	0.00058	0.00094	9e-05	3e-05	5e-05	5
21162	3e-05	6e-05	0.00017	0.00058	0.00094	9e-05	3e-05	5e-05	5
21163	3e-05	6e-05	0.00017	0.00058	0.00094	9e-05	3e-05	5e-05	5
21164	3e-05	6e-05	0.00017	0.00058	0.00094	9e-05	3e-05	5e-05	5
21165	3e-05	6e-05	0.00017	0.00058	0.00094	9e-05	3e-05	5e-05	5
21166	5e-05	-5e-05	-0.00017	-0.00053	0.00031	-5e-05	-3e-05	-1e-05	5
21167	5e-05	-5e-05	-0.00017	-0.00053	0.00031	-5e-05	-3e-05	-1e-05	5
21168	5e-05	-5e-05	-0.00017	-0.00053	0.00031	-5e-05	-3e-05	-1e-05	5
21169	5e-05	-5e-05	-0.00017	-0.00053	0.00031	-5e-05	-3e-05	-1e-05	5
21170	5e-05	-5e-05	-0.00017	-0.00053	0.00031	-5e-05	-3e-05	-1e-05	5
21171	5e-05	-5e-05	-0.00017	-0.00053	0.00031	-5e-05	-3e-05	-1e-05	5
21172	5e-05	-5e-05	-0.00017	-0.00053	0.00031	-5e-05	-3e-05	-1e-05	5
21173	5e-05	-5e-05	-0.00017	-0.00053	0.00031	-5e-05	-3e-05	-1e-05	5
21174	5e-05	-5e-05	-0.00017	-0.00053	0.00031	-5e-05	-3e-05	-1e-05	5
21175	5e-05	-5e-05	-0.00017	-0.00053	0.00031	-5e-05	-3e-05	-1e-05	5
21176	5e-05	-5e-05	-0.00017	-0.00053	0.00031	-5e-05	-3e-05	-1e-05	5
21177	5e-05	-5e-05	-0.00017	-0.00053	0.00031	-5e-05	-3e-05	-1e-05	5
21178	5e-05	-5e-05	-0.00017	-0.00053	0.00031	-5e-05	-3e-05	-1e-05	5
21179	5e-05	-5e-05	-0.00017	-0.00053	0.00031	-5e-05	-3e-05	-1e-05	5
21180	5e-05	-5e-05	-0.00017	-0.00053	0.00031	-5e-05	-3e-05	-1e-05	5
21181	-0.00012	-8e-05	-0.00021	-0.00032	-0.00022	-4e-05	-2e-05	-3e-05	5
21182	-0.00012	-8e-05	-0.00021	-0.00032	-0.00022	-4e-05	-2e-05	-3e-05	5
21183	-0.00021	-3e-05	0.00011	-0.00018	-0.00018	-5e-05	4e-05	-0.00012	5
21184	-0.00021	-3e-05	0.00011	-0.00018	-0.00018	-5e-05	4e-05	-0.00012	5
21185	-0.00021	-3e-05	0.00011	-0.00018	-0.00018	-5e-05	4e-05	-0.00012	5
21186	-0.00021	-3e-05	0.00011	-0.00018	-0.00018	-5e-05	4e-05	-0.00012	5
21187	-0.00021	-3e-05	0.00011	-0.00018	-0.00018	-5e-05	4e-05	-0.00012	5
21188	-0.00021	-3e-05	0.00011	-0.00018	-0.00018	-5e-05	4e-05	-0.00012	5
21189	-0.00021	-3e-05	0.00011	-0.00018	-0.00018	-5e-05	4e-05	-0.00012	5
21190	-0.00021	-3e-05	0.00011	-0.00018	-0.00018	-5e-05	4e-05	-0.00012	5
21191	-0.00021	-3e-05	0.00011	-0.00018	-0.00018	-5e-05	4e-05	-0.00012	5
21192	-0.00021	-3e-05	0.00011	-0.00018	-0.00018	-5e-05	4e-05	-0.00012	5
21193	-0.00021	-3e-05	0.00011	-0.00018	-0.00018	-5e-05	4e-05	-0.00012	5
21194	-0.00021	-3e-05	0.00011	-0.00018	-0.00018	-5e-05	4e-05	-0.00012	5
21195	-0.00021	-3e-05	0.00011	-0.00018	-0.00018	-5e-05	4e-05	-0.00012	5
21196	-0.00021	-3e-05	0.00011	-0.00018	-0.00018	-5e-05	4e-05	-0.00012	5
21197	-0.00021	-3e-05	0.00011	-0.00018	-0.00018	-5e-05	4e-05	-0.00012	5
21198	-0.00021	-3e-05	0.00011	-0.00018	-0.00018	-5e-05	4e-05	-0.00012	5
21199	-0.00021	-3e-05	0.00011	-0.00018	-0.00018	-5e-05	4e-05	-0.00012	5
21200	-0.00021	-3e-05	0.00011	-0.00018	-0.00018	-5e-05	4e-05	-0.00012	5
21201	-0.00021	-3e-05	0.00011	-0.00018	-0.00018	-5e-05	4e-05	-0.00012	5
21202	-0.00021	-3e-05	0.00011	-0.00018	-0.00018	-5e-05	4e-05	-0.00012	5
21203	-0.00021	-3e-05	0.00011	-0.00018	-0.00018	-5e-05	4e-05	-0.00012	5
21204	-6e-05	-3e-05	-0.00011	-0.0005	-0.00045	-4e-05	-5e-05	-4e-05	5
21205	-6e-05	-3e-05	-0.00011	-0.0005	-0.00045	-4e-05	-5e-05	-4e-05	5
21206	-0.00016	1e-05	-0.00011	2e-05	-0.00032	-6e-05	-6e-05	-0.0001	5
21207	-0.00016	1e-05	-0.00011	2e-05	-0.00032	-6e-05	-6e-05	-0.0001	5
21208	-0.00016	1e-05	-0.00011	2e-05	-0.00032	-6e-05	-6e-05	-0.0001	5
21209	-0.00016	1e-05	-0.00011	2e-05	-0.00032	-6e-05	-6e-05	-0.0001	5
21210	-0.00016	1e-05	-0.00011	2e-05	-0.00032	-6e-05	-6e-05	-0.0001	5
21211	-0.00016	1e-05	-0.00011	2e-05	-0.00032	-6e-05	-6e-05	-0.0001	5
21212	-0.00016	1e-05	-0.00011	2e-05	-0.00032	-6e-05	-6e-05	-0.0001	5
21213	-0.00016	1e-05	-0.00011	2e-05	-0.00032	-6e-05	-6e-05	-0.0001	5
21214	-0.00016	1e-05	-0.00011	2e-05	-0.00032	-6e-05	-6e-05	-0.0001	5
21215	-0.00016	1e-05	-0.00011	2e-05	-0.00032	-6e-05	-6e-05	-0.0001	5
21216	-0.00016	1e-05	-0.00011	2e-05	-0.00032	-6e-05	-6e-05	-0.0001	5
21217	-0.00016	1e-05	-0.00011	2e-05	-0.00032	-6e-05	-6e-05	-0.0001	5
21218	-0.00016	1e-05	-0.00011	2e-05	-0.00032	-6e-05	-6e-05	-0.0001	5
21219	-0.00016	1e-05	-0.00011	2e-05	-0.00032	-6e-05	-6e-05	-0.0001	5
21220	-0.00016	1e-05	-0.00011	2e-05	-0.00032	-6e-05	-6e-05	-0.0001	5
21221	-0.00016	1e-05	-0.00011	2e-05	-0.00032	-6e-05	-6e-05	-0.0001	5
21222	-0.00016	1e-05	-0.00011	2e-05	-0.00032	-6e-05	-6e-05	-0.0001	5
21223	-0.00016	1e-05	-0.00011	2e-05	-0.00032	-6e-05	-6e-05	-0.0001	5
21224	-0.00016	1e-05	-0.00011	2e-05	-0.00032	-6e-05	-6e-05	-0.0001	5
21225	-0.00016	1e-05	-0.00011	2e-05	-0.00032	-6e-05	-6e-05	-0.0001	5
21226	9e-05	9e-05	0.00017	-0.00025	-0.00098	-1e-05	7e-05	5e-05	5
21227	9e-05	9e-05	0.00017	-0.00025	-0.00098	-1e-05	7e-05	5e-05	5
21228	-0.00012	-3e-05	-0.00021	0.00044	0.00082	0.00014	0	1e-05	5
21229	-0.00012	-3e-05	-0.00021	0.00044	0.00082	0.00014	0	1e-05	5
21230	-0.00012	-3e-05	-0.00021	0.00044	0.00082	0.00014	0	1e-05	5
21231	-0.00012	-3e-05	-0.00021	0.00044	0.00082	0.00014	0	1e-05	5
21232	-0.00012	-3e-05	-0.00021	0.00044	0.00082	0.00014	0	1e-05	5
21233	-0.00012	-3e-05	-0.00021	0.00044	0.00082	0.00014	0	1e-05	5
21234	-0.00012	-3e-05	-0.00021	0.00044	0.00082	0.00014	0	1e-05	5
21235	-0.00012	-3e-05	-0.00021	0.00044	0.00082	0.00014	0	1e-05	5
21236	-0.00012	-3e-05	-0.00021	0.00044	0.00082	0.00014	0	1e-05	5
21237	-0.00012	-3e-05	-0.00021	0.00044	0.00082	0.00014	0	1e-05	5
21238	-0.00012	-3e-05	-0.00021	0.00044	0.00082	0.00014	0	1e-05	5
21239	-0.00012	-3e-05	-0.00021	0.00044	0.00082	0.00014	0	1e-05	5
21240	-0.00012	-3e-05	-0.00021	0.00044	0.00082	0.00014	0	1e-05	5
21241	0.0001	-9e-05	-0.00018	-0.00077	-0.00056	-4e-05	-5e-05	1e-05	5
21242	-0.00014	-3e-05	-3e-05	-0.00019	3e-05	-3e-05	-2e-05	-1e-05	5
21243	0.00026	-3e-05	4e-05	0.00035	0.00043	-5e-05	-3e-05	2e-05	5
21244	0.00026	-3e-05	4e-05	0.00035	0.00043	-5e-05	-3e-05	2e-05	5
21245	0.00026	-3e-05	4e-05	0.00035	0.00043	-5e-05	-3e-05	2e-05	5
21246	0.00026	-3e-05	4e-05	0.00035	0.00043	-5e-05	-3e-05	2e-05	5
21247	0.00026	-3e-05	4e-05	0.00035	0.00043	-5e-05	-3e-05	2e-05	5
21248	0.00026	-3e-05	4e-05	0.00035	0.00043	-5e-05	-3e-05	2e-05	5
21249	0.00026	-3e-05	4e-05	0.00035	0.00043	-5e-05	-3e-05	2e-05	5
21250	0.00026	-3e-05	4e-05	0.00035	0.00043	-5e-05	-3e-05	2e-05	5
21251	0.00026	-3e-05	4e-05	0.00035	0.00043	-5e-05	-3e-05	2e-05	5
21253	0.00026	-3e-05	4e-05	0.00035	0.00043	-5e-05	-3e-05	2e-05	5
21254	0.00026	-3e-05	4e-05	0.00035	0.00043	-5e-05	-3e-05	2e-05	5
21255	0.00026	-3e-05	4e-05	0.00035	0.00043	-5e-05	-3e-05	2e-05	5
21256	0.00026	-3e-05	4e-05	0.00035	0.00043	-5e-05	-3e-05	2e-05	5
21257	0.00026	-3e-05	4e-05	0.00035	0.00043	-5e-05	-3e-05	2e-05	5
21258	0.00026	-3e-05	4e-05	0.00035	0.00043	-5e-05	-3e-05	2e-05	5
21259	0.00026	-3e-05	4e-05	0.00035	0.00043	-5e-05	-3e-05	2e-05	5
21260	0.00026	-3e-05	4e-05	0.00035	0.00043	-5e-05	-3e-05	2e-05	5
21261	0.00026	-3e-05	4e-05	0.00035	0.00043	-5e-05	-3e-05	2e-05	5
21262	0.00026	-3e-05	4e-05	0.00035	0.00043	-5e-05	-3e-05	2e-05	5
21263	0.00026	-3e-05	4e-05	0.00035	0.00043	-5e-05	-3e-05	2e-05	5
21264	0.0001	-7e-05	-0.00015	1e-05	9e-05	2e-05	0	2e-05	5
21265	-0.00015	4e-05	0.00017	-0.00039	-0.00099	-4e-05	-4e-05	4e-05	5
21266	-0.00015	4e-05	0.00017	-0.00039	-0.00099	-4e-05	-4e-05	4e-05	5
21267	-0.00015	4e-05	0.00017	-0.00039	-0.00099	-4e-05	-4e-05	4e-05	5
21268	-0.00015	4e-05	0.00017	-0.00039	-0.00099	-4e-05	-4e-05	4e-05	5
21269	-0.00015	4e-05	0.00017	-0.00039	-0.00099	-4e-05	-4e-05	4e-05	5
21270	-0.00015	4e-05	0.00017	-0.00039	-0.00099	-4e-05	-4e-05	4e-05	5
21271	-0.00015	4e-05	0.00017	-0.00039	-0.00099	-4e-05	-4e-05	4e-05	5
21272	-0.00015	4e-05	0.00017	-0.00039	-0.00099	-4e-05	-4e-05	4e-05	5
21273	-0.00015	4e-05	0.00017	-0.00039	-0.00099	-4e-05	-4e-05	4e-05	5
21274	-0.00015	4e-05	0.00017	-0.00039	-0.00099	-4e-05	-4e-05	4e-05	5
21275	-0.00015	4e-05	0.00017	-0.00039	-0.00099	-4e-05	-4e-05	4e-05	5
21276	-0.00015	4e-05	0.00017	-0.00039	-0.00099	-4e-05	-4e-05	4e-05	5
21277	-0.00015	4e-05	0.00017	-0.00039	-0.00099	-4e-05	-4e-05	4e-05	5
21278	-0.00015	4e-05	0.00017	-0.00039	-0.00099	-4e-05	-4e-05	4e-05	5
21279	-0.00015	4e-05	0.00017	-0.00039	-0.00099	-4e-05	-4e-05	4e-05	5
21280	-0.00015	4e-05	0.00017	-0.00039	-0.00099	-4e-05	-4e-05	4e-05	5
21281	-0.00015	4e-05	0.00017	-0.00039	-0.00099	-4e-05	-4e-05	4e-05	5
21282	-0.00015	4e-05	0.00017	-0.00039	-0.00099	-4e-05	-4e-05	4e-05	5
21283	-0.00015	4e-05	0.00017	-0.00039	-0.00099	-4e-05	-4e-05	4e-05	5
21284	-0.00015	4e-05	0.00017	-0.00039	-0.00099	-4e-05	-4e-05	4e-05	5
21285	-0.00015	4e-05	0.00017	-0.00039	-0.00099	-4e-05	-4e-05	4e-05	5
21286	0.00018	0.00011	-2e-05	0.00012	0.00043	0.00011	3e-05	6e-05	5
21288	0.00015	-3e-05	0.00026	0.00072	0.00051	2e-05	3e-05	-1e-05	5
21289	0.00015	-3e-05	0.00026	0.00072	0.00051	2e-05	3e-05	-1e-05	5
21290	0.00015	-3e-05	0.00026	0.00072	0.00051	2e-05	3e-05	-1e-05	5
21291	0.00015	-3e-05	0.00026	0.00072	0.00051	2e-05	3e-05	-1e-05	5
21292	0.00015	-3e-05	0.00026	0.00072	0.00051	2e-05	3e-05	-1e-05	5
21293	0.00015	-3e-05	0.00026	0.00072	0.00051	2e-05	3e-05	-1e-05	5
21294	0.00015	-3e-05	0.00026	0.00072	0.00051	2e-05	3e-05	-1e-05	5
21295	0.00015	-3e-05	0.00026	0.00072	0.00051	2e-05	3e-05	-1e-05	5
21296	0.00015	-3e-05	0.00026	0.00072	0.00051	2e-05	3e-05	-1e-05	5
21297	0.00015	-3e-05	0.00026	0.00072	0.00051	2e-05	3e-05	-1e-05	5
21298	0.00015	-3e-05	0.00026	0.00072	0.00051	2e-05	3e-05	-1e-05	5
21300	0.00015	-3e-05	0.00026	0.00072	0.00051	2e-05	3e-05	-1e-05	5
21301	5e-05	9e-05	6e-05	-0.00011	0.00021	-1e-05	1e-05	7e-05	5
21302	5e-05	9e-05	6e-05	-0.00011	0.00021	-1e-05	1e-05	7e-05	5
21303	5e-05	9e-05	6e-05	-0.00011	0.00021	-1e-05	1e-05	7e-05	5
21304	0	7e-05	0.0002	0.0007	0.00054	6e-05	9e-05	-1e-05	5
21305	0	7e-05	0.0002	0.0007	0.00054	6e-05	9e-05	-1e-05	5
21306	0	7e-05	0.0002	0.0007	0.00054	6e-05	9e-05	-1e-05	5
21307	0	7e-05	0.0002	0.0007	0.00054	6e-05	9e-05	-1e-05	5
21308	0	7e-05	0.0002	0.0007	0.00054	6e-05	9e-05	-1e-05	5
21309	0	7e-05	0.0002	0.0007	0.00054	6e-05	9e-05	-1e-05	5
21310	0	7e-05	0.0002	0.0007	0.00054	6e-05	9e-05	-1e-05	5
21311	0	7e-05	0.0002	0.0007	0.00054	6e-05	9e-05	-1e-05	5
21312	0	7e-05	0.0002	0.0007	0.00054	6e-05	9e-05	-1e-05	5
21313	0	7e-05	0.0002	0.0007	0.00054	6e-05	9e-05	-1e-05	5
21314	0	7e-05	0.0002	0.0007	0.00054	6e-05	9e-05	-1e-05	5
21315	0	7e-05	0.0002	0.0007	0.00054	6e-05	9e-05	-1e-05	5
21316	0	7e-05	0.0002	0.0007	0.00054	6e-05	9e-05	-1e-05	5
21317	0	7e-05	0.0002	0.0007	0.00054	6e-05	9e-05	-1e-05	5
21318	0	7e-05	0.0002	0.0007	0.00054	6e-05	9e-05	-1e-05	5
21319	0	7e-05	0.0002	0.0007	0.00054	6e-05	9e-05	-1e-05	5
21320	0	7e-05	0.0002	0.0007	0.00054	6e-05	9e-05	-1e-05	5
21321	0	7e-05	0.0002	0.0007	0.00054	6e-05	9e-05	-1e-05	5
21322	0	7e-05	0.0002	0.0007	0.00054	6e-05	9e-05	-1e-05	5
21323	-7e-05	-6e-05	-0.00026	-0.00052	-0.00058	-0.00012	-2e-05	-5e-05	5
21324	0.00021	6e-05	0.00016	0.00068	0.0005	5e-05	-1e-05	5e-05	5
21325	0.00021	6e-05	0.00016	0.00068	0.0005	5e-05	-1e-05	5e-05	5
21326	0.00021	6e-05	0.00016	0.00068	0.0005	5e-05	-1e-05	5e-05	5
21327	0.00021	6e-05	0.00016	0.00068	0.0005	5e-05	-1e-05	5e-05	5
21328	0.00021	6e-05	0.00016	0.00068	0.0005	5e-05	-1e-05	5e-05	5
21329	0.00021	6e-05	0.00016	0.00068	0.0005	5e-05	-1e-05	5e-05	5
21330	0.0001	-5e-05	-0.00019	-0.00015	0.00022	1e-05	7e-05	-2e-05	5
21331	0.0001	-5e-05	-0.00019	-0.00015	0.00022	1e-05	7e-05	-2e-05	5
21332	0.0001	-5e-05	-0.00019	-0.00015	0.00022	1e-05	7e-05	-2e-05	5
21333	0.0001	-5e-05	-0.00019	-0.00015	0.00022	1e-05	7e-05	-2e-05	5
21334	0.0001	-5e-05	-0.00019	-0.00015	0.00022	1e-05	7e-05	-2e-05	5
21335	0.0001	-5e-05	-0.00019	-0.00015	0.00022	1e-05	7e-05	-2e-05	5
21336	0.0001	-5e-05	-0.00019	-0.00015	0.00022	1e-05	7e-05	-2e-05	5
21337	0.0001	-5e-05	-0.00019	-0.00015	0.00022	1e-05	7e-05	-2e-05	5
21338	0.0001	-5e-05	-0.00019	-0.00015	0.00022	1e-05	7e-05	-2e-05	5
21339	0.0001	-5e-05	-0.00019	-0.00015	0.00022	1e-05	7e-05	-2e-05	5
21340	0.0001	-5e-05	-0.00019	-0.00015	0.00022	1e-05	7e-05	-2e-05	5
21341	0.0001	-5e-05	-0.00019	-0.00015	0.00022	1e-05	7e-05	-2e-05	5
21342	0.0001	-5e-05	-0.00019	-0.00015	0.00022	1e-05	7e-05	-2e-05	5
21343	0.0001	-5e-05	-0.00019	-0.00015	0.00022	1e-05	7e-05	-2e-05	5
21344	0.0001	-5e-05	-0.00019	-0.00015	0.00022	1e-05	7e-05	-2e-05	5
21346	6e-05	2e-05	9e-05	0.00028	-0.00059	-2e-05	4e-05	-1e-05	5
21347	-8e-05	-8e-05	-7e-05	-0.00047	-0.00047	-7e-05	-1e-05	1e-05	5
21348	7e-05	0.00011	-3e-05	4e-05	3e-05	-1e-05	3e-05	-5e-05	5
21349	7e-05	0.00011	-3e-05	4e-05	3e-05	-1e-05	3e-05	-5e-05	5
21350	7e-05	0.00011	-3e-05	4e-05	3e-05	-1e-05	3e-05	-5e-05	5
21351	7e-05	0.00011	-3e-05	4e-05	3e-05	-1e-05	3e-05	-5e-05	5
21352	7e-05	0.00011	-3e-05	4e-05	3e-05	-1e-05	3e-05	-5e-05	5
21353	7e-05	0.00011	-3e-05	4e-05	3e-05	-1e-05	3e-05	-5e-05	5
21354	7e-05	0.00011	-3e-05	4e-05	3e-05	-1e-05	3e-05	-5e-05	5
21355	7e-05	0.00011	-3e-05	4e-05	3e-05	-1e-05	3e-05	-5e-05	5
21356	7e-05	0.00011	-3e-05	4e-05	3e-05	-1e-05	3e-05	-5e-05	5
21357	7e-05	0.00011	-3e-05	4e-05	3e-05	-1e-05	3e-05	-5e-05	5
21358	7e-05	0.00011	-3e-05	4e-05	3e-05	-1e-05	3e-05	-5e-05	5
21359	7e-05	0.00011	-3e-05	4e-05	3e-05	-1e-05	3e-05	-5e-05	5
21360	7e-05	0.00011	-3e-05	4e-05	3e-05	-1e-05	3e-05	-5e-05	5
21361	-2e-05	0	8e-05	3e-05	-3e-05	1e-05	-1e-05	-1e-05	5
21362	-2e-05	0	8e-05	3e-05	-3e-05	1e-05	-1e-05	-1e-05	5
21363	-6e-05	-0.00013	-0.00018	-0.00034	-0.00062	-7e-05	-5e-05	-3e-05	5
21364	-6e-05	-0.00013	-0.00018	-0.00034	-0.00062	-7e-05	-5e-05	-3e-05	5
21365	-6e-05	-0.00013	-0.00018	-0.00034	-0.00062	-7e-05	-5e-05	-3e-05	5
21366	-6e-05	-0.00013	-0.00018	-0.00034	-0.00062	-7e-05	-5e-05	-3e-05	5
21367	-6e-05	-0.00013	-0.00018	-0.00034	-0.00062	-7e-05	-5e-05	-3e-05	5
21368	-6e-05	-0.00013	-0.00018	-0.00034	-0.00062	-7e-05	-5e-05	-3e-05	5
21369	-6e-05	-0.00013	-0.00018	-0.00034	-0.00062	-7e-05	-5e-05	-3e-05	5
21370	-6e-05	-0.00013	-0.00018	-0.00034	-0.00062	-7e-05	-5e-05	-3e-05	5
21371	-6e-05	-0.00013	-0.00018	-0.00034	-0.00062	-7e-05	-5e-05	-3e-05	5
21372	-6e-05	-0.00013	-0.00018	-0.00034	-0.00062	-7e-05	-5e-05	-3e-05	5
21373	-6e-05	-0.00013	-0.00018	-0.00034	-0.00062	-7e-05	-5e-05	-3e-05	5
21374	-6e-05	-0.00013	-0.00018	-0.00034	-0.00062	-7e-05	-5e-05	-3e-05	5
21375	-6e-05	-0.00013	-0.00018	-0.00034	-0.00062	-7e-05	-5e-05	-3e-05	5
21376	-6e-05	-0.00013	-0.00018	-0.00034	-0.00062	-7e-05	-5e-05	-3e-05	5
21377	-6e-05	-0.00013	-0.00018	-0.00034	-0.00062	-7e-05	-5e-05	-3e-05	5
21378	-6e-05	-0.00013	-0.00018	-0.00034	-0.00062	-7e-05	-5e-05	-3e-05	5
21379	-6e-05	-0.00013	-0.00018	-0.00034	-0.00062	-7e-05	-5e-05	-3e-05	5
21380	-6e-05	-0.00013	-0.00018	-0.00034	-0.00062	-7e-05	-5e-05	-3e-05	5
21381	-6e-05	-0.00013	-0.00018	-0.00034	-0.00062	-7e-05	-5e-05	-3e-05	5
21382	-6e-05	-0.00013	-0.00018	-0.00034	-0.00062	-7e-05	-5e-05	-3e-05	5
21383	-6e-05	-0.00013	-0.00018	-0.00034	-0.00062	-7e-05	-5e-05	-3e-05	5
21384	-0.00022	-0.00018	-0.00011	-0.00019	0	4e-05	-5e-05	-9e-05	5
21385	9e-05	0.0001	0.00025	0.00062	0.00054	7e-05	-3e-05	6e-05	5
21386	9e-05	0.0001	0.00025	0.00062	0.00054	7e-05	-3e-05	6e-05	5
21387	9e-05	0.0001	0.00025	0.00062	0.00054	7e-05	-3e-05	6e-05	5
21388	9e-05	0.0001	0.00025	0.00062	0.00054	7e-05	-3e-05	6e-05	5
21389	9e-05	0.0001	0.00025	0.00062	0.00054	7e-05	-3e-05	6e-05	5
21390	9e-05	0.0001	0.00025	0.00062	0.00054	7e-05	-3e-05	6e-05	5
21391	9e-05	0.0001	0.00025	0.00062	0.00054	7e-05	-3e-05	6e-05	5
21393	9e-05	0.0001	0.00025	0.00062	0.00054	7e-05	-3e-05	6e-05	5
21394	9e-05	0.0001	0.00025	0.00062	0.00054	7e-05	-3e-05	6e-05	5
21395	9e-05	0.0001	0.00025	0.00062	0.00054	7e-05	-3e-05	6e-05	5
21396	9e-05	0.0001	0.00025	0.00062	0.00054	7e-05	-3e-05	6e-05	5
21397	9e-05	0.0001	0.00025	0.00062	0.00054	7e-05	-3e-05	6e-05	5
21398	9e-05	0.0001	0.00025	0.00062	0.00054	7e-05	-3e-05	6e-05	5
21399	9e-05	0.0001	0.00025	0.00062	0.00054	7e-05	-3e-05	6e-05	5
21400	9e-05	0.0001	0.00025	0.00062	0.00054	7e-05	-3e-05	6e-05	5
21401	9e-05	0.0001	0.00025	0.00062	0.00054	7e-05	-3e-05	6e-05	5
21402	9e-05	0.0001	0.00025	0.00062	0.00054	7e-05	-3e-05	6e-05	5
21403	9e-05	0.0001	0.00025	0.00062	0.00054	7e-05	-3e-05	6e-05	5
21404	9e-05	0.0001	0.00025	0.00062	0.00054	7e-05	-3e-05	6e-05	5
21405	9e-05	0.0001	0.00025	0.00062	0.00054	7e-05	-3e-05	6e-05	5
21406	-1e-05	-3e-05	0	0.00016	-0.00026	-3e-05	-2e-05	-5e-05	5
21407	-1e-05	-3e-05	0	0.00016	-0.00026	-3e-05	-2e-05	-5e-05	5
21408	-3e-05	2e-05	9e-05	-0.00022	-0.00053	-5e-05	-4e-05	0	5
21409	-3e-05	2e-05	9e-05	-0.00022	-0.00053	-5e-05	-4e-05	0	5
21410	-3e-05	2e-05	9e-05	-0.00022	-0.00053	-5e-05	-4e-05	0	5
21411	-3e-05	2e-05	9e-05	-0.00022	-0.00053	-5e-05	-4e-05	0	5
21412	-3e-05	2e-05	9e-05	-0.00022	-0.00053	-5e-05	-4e-05	0	5
21413	-3e-05	2e-05	9e-05	-0.00022	-0.00053	-5e-05	-4e-05	0	5
21414	-3e-05	2e-05	9e-05	-0.00022	-0.00053	-5e-05	-4e-05	0	5
21415	-3e-05	2e-05	9e-05	-0.00022	-0.00053	-5e-05	-4e-05	0	5
21416	-3e-05	2e-05	9e-05	-0.00022	-0.00053	-5e-05	-4e-05	0	5
21417	-3e-05	2e-05	9e-05	-0.00022	-0.00053	-5e-05	-4e-05	0	5
21418	-3e-05	2e-05	9e-05	-0.00022	-0.00053	-5e-05	-4e-05	0	5
21419	-3e-05	2e-05	9e-05	-0.00022	-0.00053	-5e-05	-4e-05	0	5
21420	-3e-05	2e-05	9e-05	-0.00022	-0.00053	-5e-05	-4e-05	0	5
21421	7e-05	-0.0002	-0.00048	-0.00073	0.00069	9e-05	-5e-05	-9e-05	5
21422	7e-05	-0.0002	-0.00048	-0.00073	0.00069	9e-05	-5e-05	-9e-05	5
21423	7e-05	-0.0002	-0.00048	-0.00073	0.00069	9e-05	-5e-05	-9e-05	5
21424	7e-05	-0.0002	-0.00048	-0.00073	0.00069	9e-05	-5e-05	-9e-05	5
21425	7e-05	-0.0002	-0.00048	-0.00073	0.00069	9e-05	-5e-05	-9e-05	5
21426	7e-05	-0.0002	-0.00048	-0.00073	0.00069	9e-05	-5e-05	-9e-05	5
21427	1e-05	8e-05	4e-05	-0.0003	-0.00084	-0.00012	-5e-05	1e-05	5
21428	1e-05	8e-05	4e-05	-0.0003	-0.00084	-0.00012	-5e-05	1e-05	5
21429	1e-05	8e-05	4e-05	-0.0003	-0.00084	-0.00012	-5e-05	1e-05	5
21430	1e-05	8e-05	4e-05	-0.0003	-0.00084	-0.00012	-5e-05	1e-05	5
21431	1e-05	8e-05	4e-05	-0.0003	-0.00084	-0.00012	-5e-05	1e-05	5
21432	1e-05	8e-05	4e-05	-0.0003	-0.00084	-0.00012	-5e-05	1e-05	5
21433	1e-05	8e-05	4e-05	-0.0003	-0.00084	-0.00012	-5e-05	1e-05	5
21434	1e-05	8e-05	4e-05	-0.0003	-0.00084	-0.00012	-5e-05	1e-05	5
21438	1e-05	8e-05	4e-05	-0.0003	-0.00084	-0.00012	-5e-05	1e-05	5
21439	1e-05	8e-05	4e-05	-0.0003	-0.00084	-0.00012	-5e-05	1e-05	5
21441	1e-05	8e-05	4e-05	-0.0003	-0.00084	-0.00012	-5e-05	1e-05	5
21442	1e-05	8e-05	4e-05	-0.0003	-0.00084	-0.00012	-5e-05	1e-05	5
21443	1e-05	8e-05	4e-05	-0.0003	-0.00084	-0.00012	-5e-05	1e-05	5
21444	-4e-05	-3e-05	9e-05	0.00035	0.00042	3e-05	-1e-05	2e-05	5
21445	-6e-05	-0.0001	-0.00014	-0.00041	-0.00038	-2e-05	-6e-05	-3e-05	5
21446	-6e-05	-0.0001	-0.00014	-0.00041	-0.00038	-2e-05	-6e-05	-3e-05	5
21447	-6e-05	-0.0001	-0.00014	-0.00041	-0.00038	-2e-05	-6e-05	-3e-05	5
21448	-6e-05	-0.0001	-0.00014	-0.00041	-0.00038	-2e-05	-6e-05	-3e-05	5
21449	-6e-05	-0.0001	-0.00014	-0.00041	-0.00038	-2e-05	-6e-05	-3e-05	5
21450	-6e-05	-0.0001	-0.00014	-0.00041	-0.00038	-2e-05	-6e-05	-3e-05	5
21451	-6e-05	-0.0001	-0.00014	-0.00041	-0.00038	-2e-05	-6e-05	-3e-05	5
21452	-6e-05	-0.0001	-0.00014	-0.00041	-0.00038	-2e-05	-6e-05	-3e-05	5
21453	-6e-05	-0.0001	-0.00014	-0.00041	-0.00038	-2e-05	-6e-05	-3e-05	5
21454	-6e-05	-0.0001	-0.00014	-0.00041	-0.00038	-2e-05	-6e-05	-3e-05	5
21455	-6e-05	-0.0001	-0.00014	-0.00041	-0.00038	-2e-05	-6e-05	-3e-05	5
21456	-6e-05	-0.0001	-0.00014	-0.00041	-0.00038	-2e-05	-6e-05	-3e-05	5
21457	-6e-05	-0.0001	-0.00014	-0.00041	-0.00038	-2e-05	-6e-05	-3e-05	5
21458	-6e-05	-0.0001	-0.00014	-0.00041	-0.00038	-2e-05	-6e-05	-3e-05	5
21459	-6e-05	-0.0001	-0.00014	-0.00041	-0.00038	-2e-05	-6e-05	-3e-05	5
21460	-6e-05	-0.0001	-0.00014	-0.00041	-0.00038	-2e-05	-6e-05	-3e-05	5
21461	-6e-05	-0.0001	-0.00014	-0.00041	-0.00038	-2e-05	-6e-05	-3e-05	5
21462	-6e-05	-0.0001	-0.00014	-0.00041	-0.00038	-2e-05	-6e-05	-3e-05	5
21463	-6e-05	-0.0001	-0.00014	-0.00041	-0.00038	-2e-05	-6e-05	-3e-05	5
21464	-6e-05	-0.0001	-0.00014	-0.00041	-0.00038	-2e-05	-6e-05	-3e-05	5
21465	-6e-05	-0.0001	-0.00014	-0.00041	-0.00038	-2e-05	-6e-05	-3e-05	5
21466	-0.00011	-0.00012	-0.00022	-0.00024	-0.0002	-5e-05	-6e-05	-4e-05	5
21467	-0.00011	-0.00012	-0.00022	-0.00024	-0.0002	-5e-05	-6e-05	-4e-05	5
21468	-8e-05	-0.00023	-0.00059	-0.00107	-0.00031	-1e-05	-1e-05	2e-05	5
21469	-8e-05	-0.00023	-0.00059	-0.00107	-0.00031	-1e-05	-1e-05	2e-05	5
21470	-8e-05	-0.00023	-0.00059	-0.00107	-0.00031	-1e-05	-1e-05	2e-05	5
21471	-8e-05	-0.00023	-0.00059	-0.00107	-0.00031	-1e-05	-1e-05	2e-05	5
21472	-8e-05	-0.00023	-0.00059	-0.00107	-0.00031	-1e-05	-1e-05	2e-05	5
21473	-8e-05	-0.00023	-0.00059	-0.00107	-0.00031	-1e-05	-1e-05	2e-05	5
21474	-8e-05	-0.00023	-0.00059	-0.00107	-0.00031	-1e-05	-1e-05	2e-05	5
21475	-8e-05	-0.00023	-0.00059	-0.00107	-0.00031	-1e-05	-1e-05	2e-05	5
21476	-8e-05	-0.00023	-0.00059	-0.00107	-0.00031	-1e-05	-1e-05	2e-05	5
21477	-8e-05	-0.00023	-0.00059	-0.00107	-0.00031	-1e-05	-1e-05	2e-05	5
21478	-8e-05	-0.00023	-0.00059	-0.00107	-0.00031	-1e-05	-1e-05	2e-05	5
21479	-8e-05	-0.00023	-0.00059	-0.00107	-0.00031	-1e-05	-1e-05	2e-05	5
21480	2e-05	0.00017	0.00043	0.00057	0.00012	2e-05	-1e-05	-1e-05	5
21481	2e-05	0.00017	0.00043	0.00057	0.00012	2e-05	-1e-05	-1e-05	5
21482	2e-05	0.00017	0.00043	0.00057	0.00012	2e-05	-1e-05	-1e-05	5
21483	2e-05	0.00017	0.00043	0.00057	0.00012	2e-05	-1e-05	-1e-05	5
21484	2e-05	0.00017	0.00043	0.00057	0.00012	2e-05	-1e-05	-1e-05	5
21485	2e-05	0.00017	0.00043	0.00057	0.00012	2e-05	-1e-05	-1e-05	5
21486	2e-05	0.00017	0.00043	0.00057	0.00012	2e-05	-1e-05	-1e-05	5
21489	-0.00024	-0.00029	-0.00026	-0.00039	-0.00011	-3e-05	0	-7e-05	5
21490	-0.00024	-0.00029	-0.00026	-0.00039	-0.00011	-3e-05	0	-7e-05	5
21491	-0.00024	-0.00029	-0.00026	-0.00039	-0.00011	-3e-05	0	-7e-05	5
21492	-0.00024	-0.00029	-0.00026	-0.00039	-0.00011	-3e-05	0	-7e-05	5
21493	-0.00024	-0.00029	-0.00026	-0.00039	-0.00011	-3e-05	0	-7e-05	5
21494	-0.00024	-0.00029	-0.00026	-0.00039	-0.00011	-3e-05	0	-7e-05	5
21495	-0.00024	-0.00029	-0.00026	-0.00039	-0.00011	-3e-05	0	-7e-05	5
21496	-0.00024	-0.00029	-0.00026	-0.00039	-0.00011	-3e-05	0	-7e-05	5
21497	-0.00024	-0.00029	-0.00026	-0.00039	-0.00011	-3e-05	0	-7e-05	5
21498	-0.00024	-0.00029	-0.00026	-0.00039	-0.00011	-3e-05	0	-7e-05	5
21499	-0.00024	-0.00029	-0.00026	-0.00039	-0.00011	-3e-05	0	-7e-05	5
21500	-0.00024	-0.00029	-0.00026	-0.00039	-0.00011	-3e-05	0	-7e-05	5
21501	-0.00024	-0.00029	-0.00026	-0.00039	-0.00011	-3e-05	0	-7e-05	5
21502	-0.00024	-0.00029	-0.00026	-0.00039	-0.00011	-3e-05	0	-7e-05	5
21503	-0.00024	-0.00029	-0.00026	-0.00039	-0.00011	-3e-05	0	-7e-05	5
21504	-3e-05	8e-05	0.00012	-0.00025	-0.00087	-0.00014	-2e-05	0	5
21505	0.00013	6e-05	0.0001	0.0002	-6e-05	-3e-05	-3e-05	1e-05	5
21506	0.00013	6e-05	0.0001	0.0002	-6e-05	-3e-05	-3e-05	1e-05	5
21507	0.00013	6e-05	0.0001	0.0002	-6e-05	-3e-05	-3e-05	1e-05	5
21508	0.00013	6e-05	0.0001	0.0002	-6e-05	-3e-05	-3e-05	1e-05	5
21509	0.00013	6e-05	0.0001	0.0002	-6e-05	-3e-05	-3e-05	1e-05	5
21510	0.00013	6e-05	0.0001	0.0002	-6e-05	-3e-05	-3e-05	1e-05	5
21511	0.00013	6e-05	0.0001	0.0002	-6e-05	-3e-05	-3e-05	1e-05	5
21512	0.00013	6e-05	0.0001	0.0002	-6e-05	-3e-05	-3e-05	1e-05	5
21513	0.00013	6e-05	0.0001	0.0002	-6e-05	-3e-05	-3e-05	1e-05	5
21514	0.00013	6e-05	0.0001	0.0002	-6e-05	-3e-05	-3e-05	1e-05	5
21516	0.00013	6e-05	0.0001	0.0002	-6e-05	-3e-05	-3e-05	1e-05	5
21517	0.00013	6e-05	0.0001	0.0002	-6e-05	-3e-05	-3e-05	1e-05	5
21518	0.00013	6e-05	0.0001	0.0002	-6e-05	-3e-05	-3e-05	1e-05	5
21519	0.00013	6e-05	0.0001	0.0002	-6e-05	-3e-05	-3e-05	1e-05	5
21520	0.00013	6e-05	0.0001	0.0002	-6e-05	-3e-05	-3e-05	1e-05	5
21521	0.00013	6e-05	0.0001	0.0002	-6e-05	-3e-05	-3e-05	1e-05	5
21522	0.00013	6e-05	0.0001	0.0002	-6e-05	-3e-05	-3e-05	1e-05	5
21523	0.00013	6e-05	0.0001	0.0002	-6e-05	-3e-05	-3e-05	1e-05	5
21524	0.00013	6e-05	0.0001	0.0002	-6e-05	-3e-05	-3e-05	1e-05	5
21525	0.00013	6e-05	0.0001	0.0002	-6e-05	-3e-05	-3e-05	1e-05	5
21526	0.00011	5e-05	3e-05	-0.00036	-0.00061	-9e-05	1e-05	3e-05	5
21527	0.00011	5e-05	3e-05	-0.00036	-0.00061	-9e-05	1e-05	3e-05	5
21528	7e-05	2e-05	3e-05	-0.0004	-0.00017	-4e-05	-2e-05	-2e-05	5
21529	7e-05	2e-05	3e-05	-0.0004	-0.00017	-4e-05	-2e-05	-2e-05	5
21530	7e-05	2e-05	3e-05	-0.0004	-0.00017	-4e-05	-2e-05	-2e-05	5
21531	7e-05	2e-05	3e-05	-0.0004	-0.00017	-4e-05	-2e-05	-2e-05	5
21532	7e-05	2e-05	3e-05	-0.0004	-0.00017	-4e-05	-2e-05	-2e-05	5
21533	7e-05	2e-05	3e-05	-0.0004	-0.00017	-4e-05	-2e-05	-2e-05	5
21534	7e-05	2e-05	3e-05	-0.0004	-0.00017	-4e-05	-2e-05	-2e-05	5
21535	7e-05	2e-05	3e-05	-0.0004	-0.00017	-4e-05	-2e-05	-2e-05	5
21536	7e-05	2e-05	3e-05	-0.0004	-0.00017	-4e-05	-2e-05	-2e-05	5
21537	7e-05	2e-05	3e-05	-0.0004	-0.00017	-4e-05	-2e-05	-2e-05	5
21538	7e-05	2e-05	3e-05	-0.0004	-0.00017	-4e-05	-2e-05	-2e-05	5
21539	7e-05	2e-05	3e-05	-0.0004	-0.00017	-4e-05	-2e-05	-2e-05	5
21540	7e-05	2e-05	3e-05	-0.0004	-0.00017	-4e-05	-2e-05	-2e-05	5
21541	5e-05	3e-05	-0.00012	-0.0001	0.00015	-4e-05	3e-05	-5e-05	5
21542	5e-05	3e-05	-0.00012	-0.0001	0.00015	-4e-05	3e-05	-5e-05	5
21543	5e-05	3e-05	-0.00012	-0.0001	0.00015	-4e-05	3e-05	-5e-05	5
21544	5e-05	3e-05	-0.00012	-0.0001	0.00015	-4e-05	3e-05	-5e-05	5
21545	5e-05	3e-05	-0.00012	-0.0001	0.00015	-4e-05	3e-05	-5e-05	5
21546	5e-05	3e-05	-0.00012	-0.0001	0.00015	-4e-05	3e-05	-5e-05	5
21547	-3e-05	-7e-05	-9e-05	0.00026	0.00044	4e-05	0	-2e-05	5
21549	-3e-05	-7e-05	-9e-05	0.00026	0.00044	4e-05	0	-2e-05	5
21550	-3e-05	-7e-05	-9e-05	0.00026	0.00044	4e-05	0	-2e-05	5
21551	-3e-05	-7e-05	-9e-05	0.00026	0.00044	4e-05	0	-2e-05	5
21552	-3e-05	-7e-05	-9e-05	0.00026	0.00044	4e-05	0	-2e-05	5
21553	-3e-05	-7e-05	-9e-05	0.00026	0.00044	4e-05	0	-2e-05	5
21554	-3e-05	-7e-05	-9e-05	0.00026	0.00044	4e-05	0	-2e-05	5
21555	-3e-05	-7e-05	-9e-05	0.00026	0.00044	4e-05	0	-2e-05	5
21556	-3e-05	-7e-05	-9e-05	0.00026	0.00044	4e-05	0	-2e-05	5
21557	-3e-05	-7e-05	-9e-05	0.00026	0.00044	4e-05	0	-2e-05	5
21558	-3e-05	-7e-05	-9e-05	0.00026	0.00044	4e-05	0	-2e-05	5
21559	-3e-05	-7e-05	-9e-05	0.00026	0.00044	4e-05	0	-2e-05	5
21560	-3e-05	-7e-05	-9e-05	0.00026	0.00044	4e-05	0	-2e-05	5
21561	-3e-05	-7e-05	-9e-05	0.00026	0.00044	4e-05	0	-2e-05	5
21562	-3e-05	-7e-05	-9e-05	0.00026	0.00044	4e-05	0	-2e-05	5
21563	-3e-05	-7e-05	-9e-05	0.00026	0.00044	4e-05	0	-2e-05	5
21564	-2e-05	-1e-05	6e-05	0.0002	-0.00011	-2e-05	0	5e-05	5
21565	-7e-05	7e-05	9e-05	0.00022	-6e-05	-7e-05	-1e-05	-7e-05	5
21566	-7e-05	7e-05	9e-05	0.00022	-6e-05	-7e-05	-1e-05	-7e-05	5
21567	-7e-05	7e-05	9e-05	0.00022	-6e-05	-7e-05	-1e-05	-7e-05	5
21568	-7e-05	7e-05	9e-05	0.00022	-6e-05	-7e-05	-1e-05	-7e-05	5
21569	-7e-05	7e-05	9e-05	0.00022	-6e-05	-7e-05	-1e-05	-7e-05	5
21570	-7e-05	7e-05	9e-05	0.00022	-6e-05	-7e-05	-1e-05	-7e-05	5
21571	-7e-05	7e-05	9e-05	0.00022	-6e-05	-7e-05	-1e-05	-7e-05	5
21572	-7e-05	7e-05	9e-05	0.00022	-6e-05	-7e-05	-1e-05	-7e-05	5
21573	-7e-05	7e-05	9e-05	0.00022	-6e-05	-7e-05	-1e-05	-7e-05	5
21574	-7e-05	7e-05	9e-05	0.00022	-6e-05	-7e-05	-1e-05	-7e-05	5
21575	-7e-05	7e-05	9e-05	0.00022	-6e-05	-7e-05	-1e-05	-7e-05	5
21576	-7e-05	7e-05	9e-05	0.00022	-6e-05	-7e-05	-1e-05	-7e-05	5
21577	-7e-05	7e-05	9e-05	0.00022	-6e-05	-7e-05	-1e-05	-7e-05	5
21578	-7e-05	7e-05	9e-05	0.00022	-6e-05	-7e-05	-1e-05	-7e-05	5
21579	-7e-05	7e-05	9e-05	0.00022	-6e-05	-7e-05	-1e-05	-7e-05	5
21580	-7e-05	7e-05	9e-05	0.00022	-6e-05	-7e-05	-1e-05	-7e-05	5
21581	-7e-05	7e-05	9e-05	0.00022	-6e-05	-7e-05	-1e-05	-7e-05	5
21582	-7e-05	7e-05	9e-05	0.00022	-6e-05	-7e-05	-1e-05	-7e-05	5
21583	-7e-05	7e-05	9e-05	0.00022	-6e-05	-7e-05	-1e-05	-7e-05	5
21584	-7e-05	7e-05	9e-05	0.00022	-6e-05	-7e-05	-1e-05	-7e-05	5
21585	-7e-05	7e-05	9e-05	0.00022	-6e-05	-7e-05	-1e-05	-7e-05	5
21586	-1e-05	3e-05	9e-05	0.00053	-0.00013	-1e-05	-3e-05	1e-05	5
21588	9e-05	5e-05	1e-05	0.00039	0.00018	1e-05	0	1e-05	5
21589	9e-05	5e-05	1e-05	0.00039	0.00018	1e-05	0	1e-05	5
21590	9e-05	5e-05	1e-05	0.00039	0.00018	1e-05	0	1e-05	5
21591	9e-05	5e-05	1e-05	0.00039	0.00018	1e-05	0	1e-05	5
21592	9e-05	5e-05	1e-05	0.00039	0.00018	1e-05	0	1e-05	5
21593	9e-05	5e-05	1e-05	0.00039	0.00018	1e-05	0	1e-05	5
21594	9e-05	5e-05	1e-05	0.00039	0.00018	1e-05	0	1e-05	5
21596	9e-05	5e-05	1e-05	0.00039	0.00018	1e-05	0	1e-05	5
21597	9e-05	5e-05	1e-05	0.00039	0.00018	1e-05	0	1e-05	5
21598	9e-05	5e-05	1e-05	0.00039	0.00018	1e-05	0	1e-05	5
21599	9e-05	5e-05	1e-05	0.00039	0.00018	1e-05	0	1e-05	5
21600	-7e-05	-9e-05	-0.00029	-0.00076	-0.00083	-7e-05	-2e-05	7e-05	5
21601	-7e-05	-9e-05	-0.00029	-0.00076	-0.00083	-7e-05	-2e-05	7e-05	5
21602	-7e-05	-9e-05	-0.00029	-0.00076	-0.00083	-7e-05	-2e-05	7e-05	5
21603	-7e-05	-9e-05	-0.00029	-0.00076	-0.00083	-7e-05	-2e-05	7e-05	5
21604	-7e-05	-9e-05	-0.00029	-0.00076	-0.00083	-7e-05	-2e-05	7e-05	5
21605	-7e-05	-9e-05	-0.00029	-0.00076	-0.00083	-7e-05	-2e-05	7e-05	5
21606	-7e-05	-9e-05	-0.00029	-0.00076	-0.00083	-7e-05	-2e-05	7e-05	5
21607	4e-05	-1e-05	4e-05	2e-05	4e-05	1e-05	-1e-05	-3e-05	5
21608	4e-05	-1e-05	4e-05	2e-05	4e-05	1e-05	-1e-05	-3e-05	5
21609	4e-05	-1e-05	4e-05	2e-05	4e-05	1e-05	-1e-05	-3e-05	5
21610	4e-05	-1e-05	4e-05	2e-05	4e-05	1e-05	-1e-05	-3e-05	5
21611	4e-05	-1e-05	4e-05	2e-05	4e-05	1e-05	-1e-05	-3e-05	5
21612	4e-05	-1e-05	4e-05	2e-05	4e-05	1e-05	-1e-05	-3e-05	5
21613	4e-05	-1e-05	4e-05	2e-05	4e-05	1e-05	-1e-05	-3e-05	5
21614	4e-05	-1e-05	4e-05	2e-05	4e-05	1e-05	-1e-05	-3e-05	5
21615	4e-05	-1e-05	4e-05	2e-05	4e-05	1e-05	-1e-05	-3e-05	5
21616	4e-05	-1e-05	4e-05	2e-05	4e-05	1e-05	-1e-05	-3e-05	5
21617	4e-05	-1e-05	4e-05	2e-05	4e-05	1e-05	-1e-05	-3e-05	5
21618	4e-05	-1e-05	4e-05	2e-05	4e-05	1e-05	-1e-05	-3e-05	5
21619	4e-05	-1e-05	4e-05	2e-05	4e-05	1e-05	-1e-05	-3e-05	5
21620	4e-05	-1e-05	4e-05	2e-05	4e-05	1e-05	-1e-05	-3e-05	5
21621	4e-05	-1e-05	4e-05	2e-05	4e-05	1e-05	-1e-05	-3e-05	5
21622	4e-05	-1e-05	4e-05	2e-05	4e-05	1e-05	-1e-05	-3e-05	5
21623	4e-05	-1e-05	4e-05	2e-05	4e-05	1e-05	-1e-05	-3e-05	5
21624	-6e-05	-5e-05	8e-05	0.0004	0.00019	2e-05	-2e-05	-5e-05	5
21625	3e-05	1e-05	-1e-05	0.0006	0.00021	0.00017	5e-05	0	5
21626	3e-05	1e-05	-1e-05	0.0006	0.00021	0.00017	5e-05	0	5
21627	3e-05	1e-05	-1e-05	0.0006	0.00021	0.00017	5e-05	0	5
21628	3e-05	1e-05	-1e-05	0.0006	0.00021	0.00017	5e-05	0	5
21629	3e-05	1e-05	-1e-05	0.0006	0.00021	0.00017	5e-05	0	5
21630	3e-05	1e-05	-1e-05	0.0006	0.00021	0.00017	5e-05	0	5
21631	3e-05	1e-05	-1e-05	0.0006	0.00021	0.00017	5e-05	0	5
21632	3e-05	1e-05	-1e-05	0.0006	0.00021	0.00017	5e-05	0	5
21633	3e-05	1e-05	-1e-05	0.0006	0.00021	0.00017	5e-05	0	5
21634	3e-05	1e-05	-1e-05	0.0006	0.00021	0.00017	5e-05	0	5
21635	3e-05	1e-05	-1e-05	0.0006	0.00021	0.00017	5e-05	0	5
21636	3e-05	1e-05	-1e-05	0.0006	0.00021	0.00017	5e-05	0	5
21637	3e-05	1e-05	-1e-05	0.0006	0.00021	0.00017	5e-05	0	5
21638	3e-05	1e-05	-1e-05	0.0006	0.00021	0.00017	5e-05	0	5
21639	3e-05	1e-05	-1e-05	0.0006	0.00021	0.00017	5e-05	0	5
21640	3e-05	1e-05	-1e-05	0.0006	0.00021	0.00017	5e-05	0	5
21641	3e-05	1e-05	-1e-05	0.0006	0.00021	0.00017	5e-05	0	5
21643	3e-05	1e-05	-1e-05	0.0006	0.00021	0.00017	5e-05	0	5
21644	3e-05	1e-05	-1e-05	0.0006	0.00021	0.00017	5e-05	0	5
21645	3e-05	1e-05	-1e-05	0.0006	0.00021	0.00017	5e-05	0	5
21646	0	-4e-05	-4e-05	4e-05	0.00032	-2e-05	1e-05	-4e-05	5
21647	0	-4e-05	-4e-05	4e-05	0.00032	-2e-05	1e-05	-4e-05	5
21648	-3e-05	-3e-05	7e-05	0.00034	0.00011	1e-05	-6e-05	-2e-05	5
21649	-3e-05	-3e-05	7e-05	0.00034	0.00011	1e-05	-6e-05	-2e-05	5
21650	-3e-05	-3e-05	7e-05	0.00034	0.00011	1e-05	-6e-05	-2e-05	5
21651	-3e-05	-3e-05	7e-05	0.00034	0.00011	1e-05	-6e-05	-2e-05	5
21653	-3e-05	-3e-05	7e-05	0.00034	0.00011	1e-05	-6e-05	-2e-05	5
21654	-3e-05	-3e-05	7e-05	0.00034	0.00011	1e-05	-6e-05	-2e-05	5
21655	-3e-05	-3e-05	7e-05	0.00034	0.00011	1e-05	-6e-05	-2e-05	5
21656	-3e-05	-3e-05	7e-05	0.00034	0.00011	1e-05	-6e-05	-2e-05	5
21657	-3e-05	-3e-05	7e-05	0.00034	0.00011	1e-05	-6e-05	-2e-05	5
21658	-3e-05	-3e-05	7e-05	0.00034	0.00011	1e-05	-6e-05	-2e-05	5
21659	-3e-05	-3e-05	7e-05	0.00034	0.00011	1e-05	-6e-05	-2e-05	5
21660	-3e-05	-3e-05	7e-05	0.00034	0.00011	1e-05	-6e-05	-2e-05	5
21661	0	6e-05	-0.00014	-0.00029	-0.00024	-1e-05	3e-05	4e-05	5
21662	0	6e-05	-0.00014	-0.00029	-0.00024	-1e-05	3e-05	4e-05	5
21663	0	6e-05	-0.00014	-0.00029	-0.00024	-1e-05	3e-05	4e-05	5
21664	0	6e-05	-0.00014	-0.00029	-0.00024	-1e-05	3e-05	4e-05	5
21665	0	6e-05	-0.00014	-0.00029	-0.00024	-1e-05	3e-05	4e-05	5
21666	0	6e-05	-0.00014	-0.00029	-0.00024	-1e-05	3e-05	4e-05	5
21667	-9e-05	-9e-05	-9e-05	-0.00053	-0.00079	-0.0002	-5e-05	-4e-05	5
21668	-9e-05	-9e-05	-9e-05	-0.00053	-0.00079	-0.0002	-5e-05	-4e-05	5
21669	-9e-05	-9e-05	-9e-05	-0.00053	-0.00079	-0.0002	-5e-05	-4e-05	5
21670	-9e-05	-9e-05	-9e-05	-0.00053	-0.00079	-0.0002	-5e-05	-4e-05	5
21671	-9e-05	-9e-05	-9e-05	-0.00053	-0.00079	-0.0002	-5e-05	-4e-05	5
21672	-9e-05	-9e-05	-9e-05	-0.00053	-0.00079	-0.0002	-5e-05	-4e-05	5
21673	-9e-05	-9e-05	-9e-05	-0.00053	-0.00079	-0.0002	-5e-05	-4e-05	5
21674	-9e-05	-9e-05	-9e-05	-0.00053	-0.00079	-0.0002	-5e-05	-4e-05	5
21675	-9e-05	-9e-05	-9e-05	-0.00053	-0.00079	-0.0002	-5e-05	-4e-05	5
21676	-9e-05	-9e-05	-9e-05	-0.00053	-0.00079	-0.0002	-5e-05	-4e-05	5
21677	-9e-05	-9e-05	-9e-05	-0.00053	-0.00079	-0.0002	-5e-05	-4e-05	5
21678	-9e-05	-9e-05	-9e-05	-0.00053	-0.00079	-0.0002	-5e-05	-4e-05	5
21679	-9e-05	-9e-05	-9e-05	-0.00053	-0.00079	-0.0002	-5e-05	-4e-05	5
21680	-9e-05	-9e-05	-9e-05	-0.00053	-0.00079	-0.0002	-5e-05	-4e-05	5
21681	-9e-05	-9e-05	-9e-05	-0.00053	-0.00079	-0.0002	-5e-05	-4e-05	5
21682	-9e-05	-9e-05	-9e-05	-0.00053	-0.00079	-0.0002	-5e-05	-4e-05	5
21683	-9e-05	-9e-05	-9e-05	-0.00053	-0.00079	-0.0002	-5e-05	-4e-05	5
21684	-5e-05	-8e-05	-4e-05	5e-05	-0.00011	-6e-05	-3e-05	-4e-05	5
21685	-4e-05	-4e-05	8e-05	7e-05	-7e-05	-3e-05	0	3e-05	5
21686	-4e-05	-4e-05	8e-05	7e-05	-7e-05	-3e-05	0	3e-05	5
21687	-4e-05	-4e-05	8e-05	7e-05	-7e-05	-3e-05	0	3e-05	5
21689	-4e-05	-4e-05	8e-05	7e-05	-7e-05	-3e-05	0	3e-05	5
21690	-4e-05	-4e-05	8e-05	7e-05	-7e-05	-3e-05	0	3e-05	5
21691	-4e-05	-4e-05	8e-05	7e-05	-7e-05	-3e-05	0	3e-05	5
21692	-4e-05	-4e-05	8e-05	7e-05	-7e-05	-3e-05	0	3e-05	5
21693	-4e-05	-4e-05	8e-05	7e-05	-7e-05	-3e-05	0	3e-05	5
21694	-4e-05	-4e-05	8e-05	7e-05	-7e-05	-3e-05	0	3e-05	5
21695	-4e-05	-4e-05	8e-05	7e-05	-7e-05	-3e-05	0	3e-05	5
21696	-4e-05	-4e-05	8e-05	7e-05	-7e-05	-3e-05	0	3e-05	5
21697	-4e-05	-4e-05	8e-05	7e-05	-7e-05	-3e-05	0	3e-05	5
21698	-4e-05	-4e-05	8e-05	7e-05	-7e-05	-3e-05	0	3e-05	5
21699	-4e-05	-4e-05	8e-05	7e-05	-7e-05	-3e-05	0	3e-05	5
21700	-4e-05	-4e-05	8e-05	7e-05	-7e-05	-3e-05	0	3e-05	5
21701	-4e-05	-4e-05	8e-05	7e-05	-7e-05	-3e-05	0	3e-05	5
21703	-4e-05	-4e-05	8e-05	7e-05	-7e-05	-3e-05	0	3e-05	5
21704	-4e-05	-4e-05	8e-05	7e-05	-7e-05	-3e-05	0	3e-05	5
21705	-4e-05	-4e-05	8e-05	7e-05	-7e-05	-3e-05	0	3e-05	5
21706	-5e-05	-8e-05	-6e-05	1e-05	0.00034	0.00013	-5e-05	1e-05	5
21707	-5e-05	-8e-05	-6e-05	1e-05	0.00034	0.00013	-5e-05	1e-05	5
21708	-1e-05	-0.0001	-0.00025	0.00031	0.00072	9e-05	1e-05	-7e-05	5
21709	-1e-05	-0.0001	-0.00025	0.00031	0.00072	9e-05	1e-05	-7e-05	5
21710	-1e-05	-0.0001	-0.00025	0.00031	0.00072	9e-05	1e-05	-7e-05	5
21711	-1e-05	-0.0001	-0.00025	0.00031	0.00072	9e-05	1e-05	-7e-05	5
21712	-1e-05	-0.0001	-0.00025	0.00031	0.00072	9e-05	1e-05	-7e-05	5
21713	-1e-05	-0.0001	-0.00025	0.00031	0.00072	9e-05	1e-05	-7e-05	5
21714	-1e-05	-0.0001	-0.00025	0.00031	0.00072	9e-05	1e-05	-7e-05	5
21715	-1e-05	-0.0001	-0.00025	0.00031	0.00072	9e-05	1e-05	-7e-05	5
21716	-1e-05	-0.0001	-0.00025	0.00031	0.00072	9e-05	1e-05	-7e-05	5
21717	-1e-05	-0.0001	-0.00025	0.00031	0.00072	9e-05	1e-05	-7e-05	5
21718	-1e-05	-0.0001	-0.00025	0.00031	0.00072	9e-05	1e-05	-7e-05	5
21719	-1e-05	-0.0001	-0.00025	0.00031	0.00072	9e-05	1e-05	-7e-05	5
21720	-7e-05	-0.00014	-0.00033	-0.00032	0.00031	-1e-05	-4e-05	-0.0001	5
21721	-7e-05	-0.00014	-0.00033	-0.00032	0.00031	-1e-05	-4e-05	-0.0001	5
21722	-7e-05	-0.00014	-0.00033	-0.00032	0.00031	-1e-05	-4e-05	-0.0001	5
21723	-7e-05	-0.00014	-0.00033	-0.00032	0.00031	-1e-05	-4e-05	-0.0001	5
21724	-7e-05	-0.00014	-0.00033	-0.00032	0.00031	-1e-05	-4e-05	-0.0001	5
21725	-7e-05	-0.00014	-0.00033	-0.00032	0.00031	-1e-05	-4e-05	-0.0001	5
21726	-7e-05	-0.00014	-0.00033	-0.00032	0.00031	-1e-05	-4e-05	-0.0001	5
21727	3e-05	5e-05	0.0001	0.00012	0.00024	1e-05	1e-05	-2e-05	5
21728	3e-05	5e-05	0.0001	0.00012	0.00024	1e-05	1e-05	-2e-05	5
21729	3e-05	5e-05	0.0001	0.00012	0.00024	1e-05	1e-05	-2e-05	5
21730	3e-05	5e-05	0.0001	0.00012	0.00024	1e-05	1e-05	-2e-05	5
21731	3e-05	5e-05	0.0001	0.00012	0.00024	1e-05	1e-05	-2e-05	5
21732	3e-05	5e-05	0.0001	0.00012	0.00024	1e-05	1e-05	-2e-05	5
21733	3e-05	5e-05	0.0001	0.00012	0.00024	1e-05	1e-05	-2e-05	5
21734	3e-05	5e-05	0.0001	0.00012	0.00024	1e-05	1e-05	-2e-05	5
21736	3e-05	5e-05	0.0001	0.00012	0.00024	1e-05	1e-05	-2e-05	5
21737	3e-05	5e-05	0.0001	0.00012	0.00024	1e-05	1e-05	-2e-05	5
21738	3e-05	5e-05	0.0001	0.00012	0.00024	1e-05	1e-05	-2e-05	5
21739	3e-05	5e-05	0.0001	0.00012	0.00024	1e-05	1e-05	-2e-05	5
21740	3e-05	5e-05	0.0001	0.00012	0.00024	1e-05	1e-05	-2e-05	5
21741	3e-05	5e-05	0.0001	0.00012	0.00024	1e-05	1e-05	-2e-05	5
21742	3e-05	5e-05	0.0001	0.00012	0.00024	1e-05	1e-05	-2e-05	5
21743	3e-05	5e-05	0.0001	0.00012	0.00024	1e-05	1e-05	-2e-05	5
21744	0.00011	7e-05	9e-05	0.00016	0.00012	1e-05	0	1e-05	5
21745	2e-05	7e-05	0.00015	-8e-05	-0.00037	-2e-05	4e-05	5e-05	5
21746	2e-05	7e-05	0.00015	-8e-05	-0.00037	-2e-05	4e-05	5e-05	5
21747	2e-05	7e-05	0.00015	-8e-05	-0.00037	-2e-05	4e-05	5e-05	5
21748	2e-05	7e-05	0.00015	-8e-05	-0.00037	-2e-05	4e-05	5e-05	5
21749	2e-05	7e-05	0.00015	-8e-05	-0.00037	-2e-05	4e-05	5e-05	5
21750	2e-05	7e-05	0.00015	-8e-05	-0.00037	-2e-05	4e-05	5e-05	5
21751	2e-05	7e-05	0.00015	-8e-05	-0.00037	-2e-05	4e-05	5e-05	5
21752	2e-05	7e-05	0.00015	-8e-05	-0.00037	-2e-05	4e-05	5e-05	5
21753	2e-05	7e-05	0.00015	-8e-05	-0.00037	-2e-05	4e-05	5e-05	5
21754	2e-05	7e-05	0.00015	-8e-05	-0.00037	-2e-05	4e-05	5e-05	5
21755	2e-05	7e-05	0.00015	-8e-05	-0.00037	-2e-05	4e-05	5e-05	5
21756	2e-05	7e-05	0.00015	-8e-05	-0.00037	-2e-05	4e-05	5e-05	5
21757	2e-05	7e-05	0.00015	-8e-05	-0.00037	-2e-05	4e-05	5e-05	5
21758	2e-05	7e-05	0.00015	-8e-05	-0.00037	-2e-05	4e-05	5e-05	5
21759	2e-05	7e-05	0.00015	-8e-05	-0.00037	-2e-05	4e-05	5e-05	5
21760	2e-05	7e-05	0.00015	-8e-05	-0.00037	-2e-05	4e-05	5e-05	5
21761	2e-05	7e-05	0.00015	-8e-05	-0.00037	-2e-05	4e-05	5e-05	5
21762	2e-05	7e-05	0.00015	-8e-05	-0.00037	-2e-05	4e-05	5e-05	5
21763	2e-05	7e-05	0.00015	-8e-05	-0.00037	-2e-05	4e-05	5e-05	5
21764	2e-05	7e-05	0.00015	-8e-05	-0.00037	-2e-05	4e-05	5e-05	5
21765	2e-05	7e-05	0.00015	-8e-05	-0.00037	-2e-05	4e-05	5e-05	5
21766	-3e-05	-2e-05	0.00012	0.00054	0.00027	2e-05	1e-05	-6e-05	5
21767	-3e-05	-2e-05	0.00012	0.00054	0.00027	2e-05	1e-05	-6e-05	5
21768	0	-1e-05	1e-05	-0.00015	-0.00067	-7e-05	-3e-05	4e-05	5
21769	0	-1e-05	1e-05	-0.00015	-0.00067	-7e-05	-3e-05	4e-05	5
21770	0	-1e-05	1e-05	-0.00015	-0.00067	-7e-05	-3e-05	4e-05	5
21771	0	-1e-05	1e-05	-0.00015	-0.00067	-7e-05	-3e-05	4e-05	5
21772	0	-1e-05	1e-05	-0.00015	-0.00067	-7e-05	-3e-05	4e-05	5
21773	0	-1e-05	1e-05	-0.00015	-0.00067	-7e-05	-3e-05	4e-05	5
21774	0	-1e-05	1e-05	-0.00015	-0.00067	-7e-05	-3e-05	4e-05	5
21775	0	-1e-05	1e-05	-0.00015	-0.00067	-7e-05	-3e-05	4e-05	5
21776	0	-1e-05	1e-05	-0.00015	-0.00067	-7e-05	-3e-05	4e-05	5
21777	0	-1e-05	1e-05	-0.00015	-0.00067	-7e-05	-3e-05	4e-05	5
21778	0	-1e-05	1e-05	-0.00015	-0.00067	-7e-05	-3e-05	4e-05	5
21779	0	-1e-05	1e-05	-0.00015	-0.00067	-7e-05	-3e-05	4e-05	5
21780	2e-05	2e-05	-5e-05	-0.00015	-0.00012	-6e-05	2e-05	7e-05	5
21781	2e-05	2e-05	-5e-05	-0.00015	-0.00012	-6e-05	2e-05	7e-05	5
21783	2e-05	2e-05	-5e-05	-0.00015	-0.00012	-6e-05	2e-05	7e-05	5
21784	2e-05	2e-05	-5e-05	-0.00015	-0.00012	-6e-05	2e-05	7e-05	5
21785	2e-05	2e-05	-5e-05	-0.00015	-0.00012	-6e-05	2e-05	7e-05	5
21786	2e-05	2e-05	-5e-05	-0.00015	-0.00012	-6e-05	2e-05	7e-05	5
21787	2e-05	2e-05	-5e-05	-0.00015	-0.00012	-6e-05	2e-05	7e-05	5
21788	2e-05	2e-05	-5e-05	-0.00015	-0.00012	-6e-05	2e-05	7e-05	5
21789	-5e-05	-9e-05	2e-05	-1e-05	-8e-05	6e-05	1e-05	0	5
21790	-5e-05	-9e-05	2e-05	-1e-05	-8e-05	6e-05	1e-05	0	5
21791	-5e-05	-9e-05	2e-05	-1e-05	-8e-05	6e-05	1e-05	0	5
21792	-5e-05	-9e-05	2e-05	-1e-05	-8e-05	6e-05	1e-05	0	5
21793	-5e-05	-9e-05	2e-05	-1e-05	-8e-05	6e-05	1e-05	0	5
21794	-5e-05	-9e-05	2e-05	-1e-05	-8e-05	6e-05	1e-05	0	5
21795	-5e-05	-9e-05	2e-05	-1e-05	-8e-05	6e-05	1e-05	0	5
21796	-5e-05	-9e-05	2e-05	-1e-05	-8e-05	6e-05	1e-05	0	5
21797	-5e-05	-9e-05	2e-05	-1e-05	-8e-05	6e-05	1e-05	0	5
21798	-5e-05	-9e-05	2e-05	-1e-05	-8e-05	6e-05	1e-05	0	5
21799	-5e-05	-9e-05	2e-05	-1e-05	-8e-05	6e-05	1e-05	0	5
21800	-5e-05	-9e-05	2e-05	-1e-05	-8e-05	6e-05	1e-05	0	5
21801	-5e-05	-9e-05	2e-05	-1e-05	-8e-05	6e-05	1e-05	0	5
21802	-5e-05	-9e-05	2e-05	-1e-05	-8e-05	6e-05	1e-05	0	5
21803	-5e-05	-9e-05	2e-05	-1e-05	-8e-05	6e-05	1e-05	0	5
21804	-6e-05	-6e-05	-1e-05	0.0001	-0.00039	3e-05	-5e-05	0	5
21805	2e-05	1e-05	4e-05	0.00011	0.00037	0	-2e-05	-1e-05	5
21806	2e-05	1e-05	4e-05	0.00011	0.00037	0	-2e-05	-1e-05	5
21807	2e-05	1e-05	4e-05	0.00011	0.00037	0	-2e-05	-1e-05	5
21808	2e-05	1e-05	4e-05	0.00011	0.00037	0	-2e-05	-1e-05	5
21809	2e-05	1e-05	4e-05	0.00011	0.00037	0	-2e-05	-1e-05	5
21810	2e-05	1e-05	4e-05	0.00011	0.00037	0	-2e-05	-1e-05	5
21811	2e-05	1e-05	4e-05	0.00011	0.00037	0	-2e-05	-1e-05	5
21812	2e-05	1e-05	4e-05	0.00011	0.00037	0	-2e-05	-1e-05	5
21813	2e-05	1e-05	4e-05	0.00011	0.00037	0	-2e-05	-1e-05	5
21814	2e-05	1e-05	4e-05	0.00011	0.00037	0	-2e-05	-1e-05	5
21815	2e-05	1e-05	4e-05	0.00011	0.00037	0	-2e-05	-1e-05	5
21816	2e-05	1e-05	4e-05	0.00011	0.00037	0	-2e-05	-1e-05	5
21817	2e-05	1e-05	4e-05	0.00011	0.00037	0	-2e-05	-1e-05	5
21818	2e-05	1e-05	4e-05	0.00011	0.00037	0	-2e-05	-1e-05	5
21819	2e-05	1e-05	4e-05	0.00011	0.00037	0	-2e-05	-1e-05	5
21820	2e-05	1e-05	4e-05	0.00011	0.00037	0	-2e-05	-1e-05	5
21821	2e-05	1e-05	4e-05	0.00011	0.00037	0	-2e-05	-1e-05	5
21822	2e-05	1e-05	4e-05	0.00011	0.00037	0	-2e-05	-1e-05	5
21823	2e-05	1e-05	4e-05	0.00011	0.00037	0	-2e-05	-1e-05	5
21824	2e-05	1e-05	4e-05	0.00011	0.00037	0	-2e-05	-1e-05	5
21825	2e-05	1e-05	4e-05	0.00011	0.00037	0	-2e-05	-1e-05	5
21826	-1e-05	3e-05	0.00014	0.00027	0.00034	2e-05	1e-05	-6e-05	5
21827	-1e-05	3e-05	0.00014	0.00027	0.00034	2e-05	1e-05	-6e-05	5
21828	-1e-05	5e-05	-2e-05	-0.00036	-0.00041	-1e-05	-1e-05	-4e-05	5
21830	-1e-05	5e-05	-2e-05	-0.00036	-0.00041	-1e-05	-1e-05	-4e-05	5
21831	-1e-05	5e-05	-2e-05	-0.00036	-0.00041	-1e-05	-1e-05	-4e-05	5
21832	-1e-05	5e-05	-2e-05	-0.00036	-0.00041	-1e-05	-1e-05	-4e-05	5
21833	-1e-05	5e-05	-2e-05	-0.00036	-0.00041	-1e-05	-1e-05	-4e-05	5
21834	-1e-05	5e-05	-2e-05	-0.00036	-0.00041	-1e-05	-1e-05	-4e-05	5
21835	-1e-05	5e-05	-2e-05	-0.00036	-0.00041	-1e-05	-1e-05	-4e-05	5
21836	-1e-05	5e-05	-2e-05	-0.00036	-0.00041	-1e-05	-1e-05	-4e-05	5
21837	-1e-05	5e-05	-2e-05	-0.00036	-0.00041	-1e-05	-1e-05	-4e-05	5
21838	-1e-05	5e-05	-2e-05	-0.00036	-0.00041	-1e-05	-1e-05	-4e-05	5
21839	-1e-05	5e-05	-2e-05	-0.00036	-0.00041	-1e-05	-1e-05	-4e-05	5
21840	1e-05	-1e-05	-7e-05	-0.00015	0.0002	1e-05	5e-05	-6e-05	5
21841	1e-05	-1e-05	-7e-05	-0.00015	0.0002	1e-05	5e-05	-6e-05	5
21842	1e-05	-1e-05	-7e-05	-0.00015	0.0002	1e-05	5e-05	-6e-05	5
21843	1e-05	-1e-05	-7e-05	-0.00015	0.0002	1e-05	5e-05	-6e-05	5
21844	1e-05	-1e-05	-7e-05	-0.00015	0.0002	1e-05	5e-05	-6e-05	5
21845	1e-05	-1e-05	-7e-05	-0.00015	0.0002	1e-05	5e-05	-6e-05	5
21846	1e-05	-1e-05	-7e-05	-0.00015	0.0002	1e-05	5e-05	-6e-05	5
21847	1e-05	-1e-05	-7e-05	-0.00015	0.0002	1e-05	5e-05	-6e-05	5
21848	1e-05	-1e-05	-7e-05	-0.00015	0.0002	1e-05	5e-05	-6e-05	5
21849	1e-05	-1e-05	-7e-05	-0.00015	0.0002	1e-05	5e-05	-6e-05	5
21850	2e-05	-6e-05	-0.0002	-0.00043	-0.00043	-0.00019	-6e-05	-6e-05	5
21852	2e-05	-6e-05	-0.0002	-0.00043	-0.00043	-0.00019	-6e-05	-6e-05	5
21854	2e-05	-6e-05	-0.0002	-0.00043	-0.00043	-0.00019	-6e-05	-6e-05	5
21855	2e-05	-6e-05	-0.0002	-0.00043	-0.00043	-0.00019	-6e-05	-6e-05	5
21856	2e-05	-6e-05	-0.0002	-0.00043	-0.00043	-0.00019	-6e-05	-6e-05	5
21857	2e-05	-6e-05	-0.0002	-0.00043	-0.00043	-0.00019	-6e-05	-6e-05	5
21858	2e-05	-6e-05	-0.0002	-0.00043	-0.00043	-0.00019	-6e-05	-6e-05	5
21859	2e-05	-6e-05	-0.0002	-0.00043	-0.00043	-0.00019	-6e-05	-6e-05	5
21860	2e-05	-6e-05	-0.0002	-0.00043	-0.00043	-0.00019	-6e-05	-6e-05	5
21861	2e-05	-6e-05	-0.0002	-0.00043	-0.00043	-0.00019	-6e-05	-6e-05	5
21862	2e-05	-6e-05	-0.0002	-0.00043	-0.00043	-0.00019	-6e-05	-6e-05	5
21863	2e-05	-6e-05	-0.0002	-0.00043	-0.00043	-0.00019	-6e-05	-6e-05	5
21864	6e-05	2e-05	-1e-05	0.0001	0.00062	0.00013	7e-05	5e-05	5
21865	4e-05	9e-05	0.0001	0.0003	0.00028	7e-05	0	4e-05	5
21866	4e-05	9e-05	0.0001	0.0003	0.00028	7e-05	0	4e-05	5
21867	4e-05	9e-05	0.0001	0.0003	0.00028	7e-05	0	4e-05	5
21868	4e-05	9e-05	0.0001	0.0003	0.00028	7e-05	0	4e-05	5
21869	4e-05	9e-05	0.0001	0.0003	0.00028	7e-05	0	4e-05	5
21870	4e-05	9e-05	0.0001	0.0003	0.00028	7e-05	0	4e-05	5
21871	4e-05	9e-05	0.0001	0.0003	0.00028	7e-05	0	4e-05	5
21872	4e-05	9e-05	0.0001	0.0003	0.00028	7e-05	0	4e-05	5
21873	4e-05	9e-05	0.0001	0.0003	0.00028	7e-05	0	4e-05	5
21874	4e-05	9e-05	0.0001	0.0003	0.00028	7e-05	0	4e-05	5
21875	4e-05	9e-05	0.0001	0.0003	0.00028	7e-05	0	4e-05	5
21876	4e-05	9e-05	0.0001	0.0003	0.00028	7e-05	0	4e-05	5
21878	4e-05	9e-05	0.0001	0.0003	0.00028	7e-05	0	4e-05	5
21879	4e-05	9e-05	0.0001	0.0003	0.00028	7e-05	0	4e-05	5
21880	4e-05	9e-05	0.0001	0.0003	0.00028	7e-05	0	4e-05	5
21881	4e-05	9e-05	0.0001	0.0003	0.00028	7e-05	0	4e-05	5
21882	4e-05	9e-05	0.0001	0.0003	0.00028	7e-05	0	4e-05	5
21883	4e-05	9e-05	0.0001	0.0003	0.00028	7e-05	0	4e-05	5
21884	4e-05	9e-05	0.0001	0.0003	0.00028	7e-05	0	4e-05	5
21885	4e-05	9e-05	0.0001	0.0003	0.00028	7e-05	0	4e-05	5
21886	-3e-05	0.00011	0.00021	-0.00019	-0.00078	-0.00016	-8e-05	-2e-05	5
21888	-1e-05	0	-0.00011	0.00022	0.00036	2e-05	0	0	5
21889	-1e-05	0	-0.00011	0.00022	0.00036	2e-05	0	0	5
21890	-1e-05	0	-0.00011	0.00022	0.00036	2e-05	0	0	5
21891	-1e-05	0	-0.00011	0.00022	0.00036	2e-05	0	0	5
21892	-1e-05	0	-0.00011	0.00022	0.00036	2e-05	0	0	5
21893	-1e-05	0	-0.00011	0.00022	0.00036	2e-05	0	0	5
21894	-1e-05	0	-0.00011	0.00022	0.00036	2e-05	0	0	5
21895	-1e-05	0	-0.00011	0.00022	0.00036	2e-05	0	0	5
21896	-1e-05	0	-0.00011	0.00022	0.00036	2e-05	0	0	5
21897	-1e-05	0	-0.00011	0.00022	0.00036	2e-05	0	0	5
21898	-1e-05	0	-0.00011	0.00022	0.00036	2e-05	0	0	5
21899	-1e-05	0	-0.00011	0.00022	0.00036	2e-05	0	0	5
21900	-4e-05	-2e-05	0.00015	-1e-05	-0.00016	2e-05	-6e-05	2e-05	5
21901	-4e-05	-2e-05	0.00015	-1e-05	-0.00016	2e-05	-6e-05	2e-05	5
21902	-4e-05	-2e-05	0.00015	-1e-05	-0.00016	2e-05	-6e-05	2e-05	5
21903	-4e-05	-2e-05	0.00015	-1e-05	-0.00016	2e-05	-6e-05	2e-05	5
21904	-4e-05	-2e-05	0.00015	-1e-05	-0.00016	2e-05	-6e-05	2e-05	5
21905	-4e-05	-2e-05	0.00015	-1e-05	-0.00016	2e-05	-6e-05	2e-05	5
21906	-4e-05	-2e-05	0.00015	-1e-05	-0.00016	2e-05	-6e-05	2e-05	5
21907	-4e-05	-2e-05	0.00015	-1e-05	-0.00016	2e-05	-6e-05	2e-05	5
21908	-4e-05	-2e-05	0.00015	-1e-05	-0.00016	2e-05	-6e-05	2e-05	5
21909	0	-3e-05	-0.00019	-6e-05	0.00031	-1e-05	6e-05	1e-05	5
21910	0	-3e-05	-0.00019	-6e-05	0.00031	-1e-05	6e-05	1e-05	5
21911	0	-3e-05	-0.00019	-6e-05	0.00031	-1e-05	6e-05	1e-05	5
21912	0	-3e-05	-0.00019	-6e-05	0.00031	-1e-05	6e-05	1e-05	5
21913	0	-3e-05	-0.00019	-6e-05	0.00031	-1e-05	6e-05	1e-05	5
21914	0	-3e-05	-0.00019	-6e-05	0.00031	-1e-05	6e-05	1e-05	5
21915	0	-3e-05	-0.00019	-6e-05	0.00031	-1e-05	6e-05	1e-05	5
21916	0	-3e-05	-0.00019	-6e-05	0.00031	-1e-05	6e-05	1e-05	5
21917	0	-3e-05	-0.00019	-6e-05	0.00031	-1e-05	6e-05	1e-05	5
21918	0	-3e-05	-0.00019	-6e-05	0.00031	-1e-05	6e-05	1e-05	5
21919	0	-3e-05	-0.00019	-6e-05	0.00031	-1e-05	6e-05	1e-05	5
21920	0	-3e-05	-0.00019	-6e-05	0.00031	-1e-05	6e-05	1e-05	5
21921	0	-3e-05	-0.00019	-6e-05	0.00031	-1e-05	6e-05	1e-05	5
21923	0	-3e-05	-0.00019	-6e-05	0.00031	-1e-05	6e-05	1e-05	5
21924	-0.00016	-0.00012	-0.00027	-0.00026	-0.00068	-0.00015	-7e-05	-8e-05	5
21925	-4e-05	-6e-05	-7e-05	-0.00035	-0.00018	2e-05	-5e-05	-2e-05	5
21926	-4e-05	-6e-05	-7e-05	-0.00035	-0.00018	2e-05	-5e-05	-2e-05	5
21927	-4e-05	-6e-05	-7e-05	-0.00035	-0.00018	2e-05	-5e-05	-2e-05	5
21928	-4e-05	-6e-05	-7e-05	-0.00035	-0.00018	2e-05	-5e-05	-2e-05	5
21929	-4e-05	-6e-05	-7e-05	-0.00035	-0.00018	2e-05	-5e-05	-2e-05	5
21930	-4e-05	-6e-05	-7e-05	-0.00035	-0.00018	2e-05	-5e-05	-2e-05	5
21931	-4e-05	-6e-05	-7e-05	-0.00035	-0.00018	2e-05	-5e-05	-2e-05	5
21932	-4e-05	-6e-05	-7e-05	-0.00035	-0.00018	2e-05	-5e-05	-2e-05	5
21933	-4e-05	-6e-05	-7e-05	-0.00035	-0.00018	2e-05	-5e-05	-2e-05	5
21934	-4e-05	-6e-05	-7e-05	-0.00035	-0.00018	2e-05	-5e-05	-2e-05	5
21935	-4e-05	-6e-05	-7e-05	-0.00035	-0.00018	2e-05	-5e-05	-2e-05	5
21936	-4e-05	-6e-05	-7e-05	-0.00035	-0.00018	2e-05	-5e-05	-2e-05	5
21937	-4e-05	-6e-05	-7e-05	-0.00035	-0.00018	2e-05	-5e-05	-2e-05	5
21938	-4e-05	-6e-05	-7e-05	-0.00035	-0.00018	2e-05	-5e-05	-2e-05	5
21939	-4e-05	-6e-05	-7e-05	-0.00035	-0.00018	2e-05	-5e-05	-2e-05	5
21940	-4e-05	-6e-05	-7e-05	-0.00035	-0.00018	2e-05	-5e-05	-2e-05	5
21941	-4e-05	-6e-05	-7e-05	-0.00035	-0.00018	2e-05	-5e-05	-2e-05	5
21942	-4e-05	-6e-05	-7e-05	-0.00035	-0.00018	2e-05	-5e-05	-2e-05	5
21943	-4e-05	-6e-05	-7e-05	-0.00035	-0.00018	2e-05	-5e-05	-2e-05	5
21944	-4e-05	-6e-05	-7e-05	-0.00035	-0.00018	2e-05	-5e-05	-2e-05	5
21945	-4e-05	-6e-05	-7e-05	-0.00035	-0.00018	2e-05	-5e-05	-2e-05	5
21946	8e-05	0	-5e-05	-0.00028	0.00058	3e-05	4e-05	1e-05	5
21947	8e-05	0	-5e-05	-0.00028	0.00058	3e-05	4e-05	1e-05	5
21948	-5e-05	-0.0001	-8e-05	-0.0004	-0.0007	-0.00016	-7e-05	-7e-05	5
21949	-5e-05	-0.0001	-8e-05	-0.0004	-0.0007	-0.00016	-7e-05	-7e-05	5
21950	-5e-05	-0.0001	-8e-05	-0.0004	-0.0007	-0.00016	-7e-05	-7e-05	5
21951	-5e-05	-0.0001	-8e-05	-0.0004	-0.0007	-0.00016	-7e-05	-7e-05	5
21952	-5e-05	-0.0001	-8e-05	-0.0004	-0.0007	-0.00016	-7e-05	-7e-05	5
21953	-5e-05	-0.0001	-8e-05	-0.0004	-0.0007	-0.00016	-7e-05	-7e-05	5
21954	-5e-05	-0.0001	-8e-05	-0.0004	-0.0007	-0.00016	-7e-05	-7e-05	5
21955	-5e-05	-0.0001	-8e-05	-0.0004	-0.0007	-0.00016	-7e-05	-7e-05	5
21956	-5e-05	-0.0001	-8e-05	-0.0004	-0.0007	-0.00016	-7e-05	-7e-05	5
21957	-5e-05	-0.0001	-8e-05	-0.0004	-0.0007	-0.00016	-7e-05	-7e-05	5
21958	-5e-05	-0.0001	-8e-05	-0.0004	-0.0007	-0.00016	-7e-05	-7e-05	5
21959	-5e-05	-0.0001	-8e-05	-0.0004	-0.0007	-0.00016	-7e-05	-7e-05	5
21960	-3e-05	0.00013	1e-05	-0.00017	-0.00034	-1e-05	-1e-05	4e-05	5
21961	-3e-05	0.00013	1e-05	-0.00017	-0.00034	-1e-05	-1e-05	4e-05	5
21962	-3e-05	0.00013	1e-05	-0.00017	-0.00034	-1e-05	-1e-05	4e-05	5
21963	-3e-05	0.00013	1e-05	-0.00017	-0.00034	-1e-05	-1e-05	4e-05	5
21964	-3e-05	0.00013	1e-05	-0.00017	-0.00034	-1e-05	-1e-05	4e-05	5
21965	-3e-05	0.00013	1e-05	-0.00017	-0.00034	-1e-05	-1e-05	4e-05	5
21966	-3e-05	0.00013	1e-05	-0.00017	-0.00034	-1e-05	-1e-05	4e-05	5
21967	-3e-05	0.00013	1e-05	-0.00017	-0.00034	-1e-05	-1e-05	4e-05	5
21968	-3e-05	0.00013	1e-05	-0.00017	-0.00034	-1e-05	-1e-05	4e-05	5
21970	4e-05	8e-05	3e-05	0.00013	0.00037	-0.00011	1e-05	6e-05	5
21971	4e-05	8e-05	3e-05	0.00013	0.00037	-0.00011	1e-05	6e-05	5
21972	4e-05	8e-05	3e-05	0.00013	0.00037	-0.00011	1e-05	6e-05	5
21973	4e-05	8e-05	3e-05	0.00013	0.00037	-0.00011	1e-05	6e-05	5
21974	4e-05	8e-05	3e-05	0.00013	0.00037	-0.00011	1e-05	6e-05	5
21975	4e-05	8e-05	3e-05	0.00013	0.00037	-0.00011	1e-05	6e-05	5
21976	4e-05	8e-05	3e-05	0.00013	0.00037	-0.00011	1e-05	6e-05	5
21977	4e-05	8e-05	3e-05	0.00013	0.00037	-0.00011	1e-05	6e-05	5
21978	4e-05	8e-05	3e-05	0.00013	0.00037	-0.00011	1e-05	6e-05	5
21979	4e-05	8e-05	3e-05	0.00013	0.00037	-0.00011	1e-05	6e-05	5
21980	4e-05	8e-05	3e-05	0.00013	0.00037	-0.00011	1e-05	6e-05	5
21981	4e-05	8e-05	3e-05	0.00013	0.00037	-0.00011	1e-05	6e-05	5
21982	4e-05	8e-05	3e-05	0.00013	0.00037	-0.00011	1e-05	6e-05	5
21983	4e-05	8e-05	3e-05	0.00013	0.00037	-0.00011	1e-05	6e-05	5
21984	8e-05	0.0001	0.00018	0.0003	0.00017	6e-05	0	4e-05	5
21985	8e-05	0.0001	0.00018	0.0003	0.00017	6e-05	0	4e-05	5
21986	-0.00015	-3e-05	0.00012	0.00032	6e-05	6e-05	1e-05	-0.00012	5
21987	-0.00015	-3e-05	0.00012	0.00032	6e-05	6e-05	1e-05	-0.00012	5
21989	-0.00015	-3e-05	0.00012	0.00032	6e-05	6e-05	1e-05	-0.00012	5
21990	-0.00015	-3e-05	0.00012	0.00032	6e-05	6e-05	1e-05	-0.00012	5
21991	-0.00015	-3e-05	0.00012	0.00032	6e-05	6e-05	1e-05	-0.00012	5
21992	-0.00015	-3e-05	0.00012	0.00032	6e-05	6e-05	1e-05	-0.00012	5
21993	-0.00015	-3e-05	0.00012	0.00032	6e-05	6e-05	1e-05	-0.00012	5
21994	-0.00015	-3e-05	0.00012	0.00032	6e-05	6e-05	1e-05	-0.00012	5
21995	-0.00015	-3e-05	0.00012	0.00032	6e-05	6e-05	1e-05	-0.00012	5
21996	-0.00015	-3e-05	0.00012	0.00032	6e-05	6e-05	1e-05	-0.00012	5
21997	-0.00015	-3e-05	0.00012	0.00032	6e-05	6e-05	1e-05	-0.00012	5
21998	-0.00015	-3e-05	0.00012	0.00032	6e-05	6e-05	1e-05	-0.00012	5
21999	-0.00015	-3e-05	0.00012	0.00032	6e-05	6e-05	1e-05	-0.00012	5
22000	-0.00015	-3e-05	0.00012	0.00032	6e-05	6e-05	1e-05	-0.00012	5
22001	-0.00015	-3e-05	0.00012	0.00032	6e-05	6e-05	1e-05	-0.00012	5
22002	-0.00015	-3e-05	0.00012	0.00032	6e-05	6e-05	1e-05	-0.00012	5
22003	-0.00015	-3e-05	0.00012	0.00032	6e-05	6e-05	1e-05	-0.00012	5
22004	-0.00015	-3e-05	0.00012	0.00032	6e-05	6e-05	1e-05	-0.00012	5
22005	-0.00015	-3e-05	0.00012	0.00032	6e-05	6e-05	1e-05	-0.00012	5
22006	4e-05	6e-05	7e-05	0.0002	-0.00045	-6e-05	1e-05	2e-05	5
22007	4e-05	6e-05	7e-05	0.0002	-0.00045	-6e-05	1e-05	2e-05	5
22008	3e-05	4e-05	0.00018	0.00027	0.00017	0.00014	-1e-05	-3e-05	5
22009	3e-05	4e-05	0.00018	0.00027	0.00017	0.00014	-1e-05	-3e-05	5
22010	3e-05	4e-05	0.00018	0.00027	0.00017	0.00014	-1e-05	-3e-05	5
22011	3e-05	4e-05	0.00018	0.00027	0.00017	0.00014	-1e-05	-3e-05	5
22012	3e-05	4e-05	0.00018	0.00027	0.00017	0.00014	-1e-05	-3e-05	5
22013	3e-05	4e-05	0.00018	0.00027	0.00017	0.00014	-1e-05	-3e-05	5
22014	3e-05	4e-05	0.00018	0.00027	0.00017	0.00014	-1e-05	-3e-05	5
22015	3e-05	4e-05	0.00018	0.00027	0.00017	0.00014	-1e-05	-3e-05	5
22017	3e-05	4e-05	0.00018	0.00027	0.00017	0.00014	-1e-05	-3e-05	5
22018	3e-05	4e-05	0.00018	0.00027	0.00017	0.00014	-1e-05	-3e-05	5
22019	3e-05	4e-05	0.00018	0.00027	0.00017	0.00014	-1e-05	-3e-05	5
22020	3e-05	4e-05	0.00018	0.00027	0.00017	0.00014	-1e-05	-3e-05	5
22021	3e-05	4e-05	0.00018	0.00027	0.00017	0.00014	-1e-05	-3e-05	5
22022	3e-05	4e-05	0.00018	0.00027	0.00017	0.00014	-1e-05	-3e-05	5
22025	1e-05	2e-05	0.00022	0.00015	-1e-05	4e-05	-3e-05	6e-05	5
22027	1e-05	2e-05	0.00022	0.00015	-1e-05	4e-05	-3e-05	6e-05	5
22028	1e-05	2e-05	0.00022	0.00015	-1e-05	4e-05	-3e-05	6e-05	5
22029	1e-05	-0.00011	-0.00025	-0.00058	-0.00011	-5e-05	-3e-05	4e-05	5
22030	1e-05	-0.00011	-0.00025	-0.00058	-0.00011	-5e-05	-3e-05	4e-05	5
22031	1e-05	-0.00011	-0.00025	-0.00058	-0.00011	-5e-05	-3e-05	4e-05	5
22032	1e-05	-0.00011	-0.00025	-0.00058	-0.00011	-5e-05	-3e-05	4e-05	5
22033	1e-05	-0.00011	-0.00025	-0.00058	-0.00011	-5e-05	-3e-05	4e-05	5
22034	1e-05	-0.00011	-0.00025	-0.00058	-0.00011	-5e-05	-3e-05	4e-05	5
22035	1e-05	-0.00011	-0.00025	-0.00058	-0.00011	-5e-05	-3e-05	4e-05	5
22036	1e-05	-0.00011	-0.00025	-0.00058	-0.00011	-5e-05	-3e-05	4e-05	5
22037	1e-05	-0.00011	-0.00025	-0.00058	-0.00011	-5e-05	-3e-05	4e-05	5
22038	1e-05	-0.00011	-0.00025	-0.00058	-0.00011	-5e-05	-3e-05	4e-05	5
22039	1e-05	-0.00011	-0.00025	-0.00058	-0.00011	-5e-05	-3e-05	4e-05	5
22040	1e-05	-0.00011	-0.00025	-0.00058	-0.00011	-5e-05	-3e-05	4e-05	5
22041	1e-05	-0.00011	-0.00025	-0.00058	-0.00011	-5e-05	-3e-05	4e-05	5
22042	1e-05	-0.00011	-0.00025	-0.00058	-0.00011	-5e-05	-3e-05	4e-05	5
22043	1e-05	-0.00011	-0.00025	-0.00058	-0.00011	-5e-05	-3e-05	4e-05	5
22044	0	4e-05	0.00011	0.00029	0.00028	-3e-05	-3e-05	2e-05	5
22045	-9e-05	-2e-05	9e-05	0.00026	-4e-05	-5e-05	-3e-05	-4e-05	5
22046	-9e-05	-2e-05	9e-05	0.00026	-4e-05	-5e-05	-3e-05	-4e-05	5
22047	-9e-05	-2e-05	9e-05	0.00026	-4e-05	-5e-05	-3e-05	-4e-05	5
22048	-9e-05	-2e-05	9e-05	0.00026	-4e-05	-5e-05	-3e-05	-4e-05	5
22049	-9e-05	-2e-05	9e-05	0.00026	-4e-05	-5e-05	-3e-05	-4e-05	5
22050	-9e-05	-2e-05	9e-05	0.00026	-4e-05	-5e-05	-3e-05	-4e-05	5
22051	-9e-05	-2e-05	9e-05	0.00026	-4e-05	-5e-05	-3e-05	-4e-05	5
22052	-9e-05	-2e-05	9e-05	0.00026	-4e-05	-5e-05	-3e-05	-4e-05	5
22053	-9e-05	-2e-05	9e-05	0.00026	-4e-05	-5e-05	-3e-05	-4e-05	5
22054	-9e-05	-2e-05	9e-05	0.00026	-4e-05	-5e-05	-3e-05	-4e-05	5
22055	-9e-05	-2e-05	9e-05	0.00026	-4e-05	-5e-05	-3e-05	-4e-05	5
22056	-9e-05	-2e-05	9e-05	0.00026	-4e-05	-5e-05	-3e-05	-4e-05	5
22057	-9e-05	-2e-05	9e-05	0.00026	-4e-05	-5e-05	-3e-05	-4e-05	5
22058	-9e-05	-2e-05	9e-05	0.00026	-4e-05	-5e-05	-3e-05	-4e-05	5
22059	-9e-05	-2e-05	9e-05	0.00026	-4e-05	-5e-05	-3e-05	-4e-05	5
22060	-9e-05	-2e-05	9e-05	0.00026	-4e-05	-5e-05	-3e-05	-4e-05	5
22061	-9e-05	-2e-05	9e-05	0.00026	-4e-05	-5e-05	-3e-05	-4e-05	5
22062	-9e-05	-2e-05	9e-05	0.00026	-4e-05	-5e-05	-3e-05	-4e-05	5
22064	-9e-05	-2e-05	9e-05	0.00026	-4e-05	-5e-05	-3e-05	-4e-05	5
22065	-9e-05	-2e-05	9e-05	0.00026	-4e-05	-5e-05	-3e-05	-4e-05	5
22066	-0.00021	-0.00034	-0.00051	-0.00077	-0.00045	-5e-05	-4e-05	-0.00011	5
22067	-0.00021	-0.00034	-0.00051	-0.00077	-0.00045	-5e-05	-4e-05	-0.00011	5
22068	1e-05	9e-05	0.00025	0.00032	-0.0001	-2e-05	-5e-05	4e-05	5
22069	1e-05	9e-05	0.00025	0.00032	-0.0001	-2e-05	-5e-05	4e-05	5
22070	1e-05	9e-05	0.00025	0.00032	-0.0001	-2e-05	-5e-05	4e-05	5
22071	1e-05	9e-05	0.00025	0.00032	-0.0001	-2e-05	-5e-05	4e-05	5
22072	1e-05	9e-05	0.00025	0.00032	-0.0001	-2e-05	-5e-05	4e-05	5
22073	1e-05	9e-05	0.00025	0.00032	-0.0001	-2e-05	-5e-05	4e-05	5
22074	1e-05	9e-05	0.00025	0.00032	-0.0001	-2e-05	-5e-05	4e-05	5
22075	1e-05	9e-05	0.00025	0.00032	-0.0001	-2e-05	-5e-05	4e-05	5
22076	1e-05	9e-05	0.00025	0.00032	-0.0001	-2e-05	-5e-05	4e-05	5
22077	1e-05	9e-05	0.00025	0.00032	-0.0001	-2e-05	-5e-05	4e-05	5
22078	1e-05	9e-05	0.00025	0.00032	-0.0001	-2e-05	-5e-05	4e-05	5
22079	1e-05	9e-05	0.00025	0.00032	-0.0001	-2e-05	-5e-05	4e-05	5
22080	-1e-05	9e-05	0.0002	0.00039	0.00025	1e-05	0	-6e-05	5
22081	-1e-05	9e-05	0.0002	0.00039	0.00025	1e-05	0	-6e-05	5
22082	-1e-05	9e-05	0.0002	0.00039	0.00025	1e-05	0	-6e-05	5
22083	-1e-05	9e-05	0.0002	0.00039	0.00025	1e-05	0	-6e-05	5
22084	-1e-05	9e-05	0.0002	0.00039	0.00025	1e-05	0	-6e-05	5
22085	-1e-05	9e-05	0.0002	0.00039	0.00025	1e-05	0	-6e-05	5
22086	-1e-05	9e-05	0.0002	0.00039	0.00025	1e-05	0	-6e-05	5
22087	-1e-05	9e-05	0.0002	0.00039	0.00025	1e-05	0	-6e-05	5
22088	-1e-05	9e-05	0.0002	0.00039	0.00025	1e-05	0	-6e-05	5
22089	-2e-05	-6e-05	-0.00023	-0.00028	-0.00055	5e-05	-1e-05	4e-05	5
22090	-2e-05	-6e-05	-0.00023	-0.00028	-0.00055	5e-05	-1e-05	4e-05	5
22091	-2e-05	-6e-05	-0.00023	-0.00028	-0.00055	5e-05	-1e-05	4e-05	5
22092	-2e-05	-6e-05	-0.00023	-0.00028	-0.00055	5e-05	-1e-05	4e-05	5
22093	-2e-05	-6e-05	-0.00023	-0.00028	-0.00055	5e-05	-1e-05	4e-05	5
22094	-2e-05	-6e-05	-0.00023	-0.00028	-0.00055	5e-05	-1e-05	4e-05	5
22095	-2e-05	-6e-05	-0.00023	-0.00028	-0.00055	5e-05	-1e-05	4e-05	5
22096	-2e-05	-6e-05	-0.00023	-0.00028	-0.00055	5e-05	-1e-05	4e-05	5
22097	-2e-05	-6e-05	-0.00023	-0.00028	-0.00055	5e-05	-1e-05	4e-05	5
22098	-2e-05	-6e-05	-0.00023	-0.00028	-0.00055	5e-05	-1e-05	4e-05	5
22099	-2e-05	-6e-05	-0.00023	-0.00028	-0.00055	5e-05	-1e-05	4e-05	5
22100	-2e-05	-6e-05	-0.00023	-0.00028	-0.00055	5e-05	-1e-05	4e-05	5
22101	-2e-05	-6e-05	-0.00023	-0.00028	-0.00055	5e-05	-1e-05	4e-05	5
22102	-2e-05	-6e-05	-0.00023	-0.00028	-0.00055	5e-05	-1e-05	4e-05	5
22103	-2e-05	-6e-05	-0.00023	-0.00028	-0.00055	5e-05	-1e-05	4e-05	5
22104	3e-05	-9e-05	-0.0002	-0.00061	-0.00031	0	-2e-05	-2e-05	5
22105	2e-05	7e-05	0.00015	0.00046	0.00068	-1e-05	3e-05	-5e-05	5
22106	2e-05	7e-05	0.00015	0.00046	0.00068	-1e-05	3e-05	-5e-05	5
22107	2e-05	7e-05	0.00015	0.00046	0.00068	-1e-05	3e-05	-5e-05	5
22108	2e-05	7e-05	0.00015	0.00046	0.00068	-1e-05	3e-05	-5e-05	5
22109	2e-05	7e-05	0.00015	0.00046	0.00068	-1e-05	3e-05	-5e-05	5
22110	2e-05	7e-05	0.00015	0.00046	0.00068	-1e-05	3e-05	-5e-05	5
22112	2e-05	7e-05	0.00015	0.00046	0.00068	-1e-05	3e-05	-5e-05	5
22113	2e-05	7e-05	0.00015	0.00046	0.00068	-1e-05	3e-05	-5e-05	5
22114	2e-05	7e-05	0.00015	0.00046	0.00068	-1e-05	3e-05	-5e-05	5
22115	2e-05	7e-05	0.00015	0.00046	0.00068	-1e-05	3e-05	-5e-05	5
22116	2e-05	7e-05	0.00015	0.00046	0.00068	-1e-05	3e-05	-5e-05	5
22117	2e-05	7e-05	0.00015	0.00046	0.00068	-1e-05	3e-05	-5e-05	5
22118	2e-05	7e-05	0.00015	0.00046	0.00068	-1e-05	3e-05	-5e-05	5
22119	2e-05	7e-05	0.00015	0.00046	0.00068	-1e-05	3e-05	-5e-05	5
22120	2e-05	7e-05	0.00015	0.00046	0.00068	-1e-05	3e-05	-5e-05	5
22121	2e-05	7e-05	0.00015	0.00046	0.00068	-1e-05	3e-05	-5e-05	5
22122	2e-05	7e-05	0.00015	0.00046	0.00068	-1e-05	3e-05	-5e-05	5
22123	2e-05	7e-05	0.00015	0.00046	0.00068	-1e-05	3e-05	-5e-05	5
22124	2e-05	7e-05	0.00015	0.00046	0.00068	-1e-05	3e-05	-5e-05	5
22125	2e-05	7e-05	0.00015	0.00046	0.00068	-1e-05	3e-05	-5e-05	5
22126	-0.00011	3e-05	-3e-05	-9e-05	-5e-05	-3e-05	0	0	5
22127	-0.00011	3e-05	-3e-05	-9e-05	-5e-05	-3e-05	0	0	5
22128	2e-05	-7e-05	-5e-05	-5e-05	-0.00017	-6e-05	-1e-05	-7e-05	5
22129	2e-05	-7e-05	-5e-05	-5e-05	-0.00017	-6e-05	-1e-05	-7e-05	5
22130	2e-05	-7e-05	-5e-05	-5e-05	-0.00017	-6e-05	-1e-05	-7e-05	5
22131	2e-05	-7e-05	-5e-05	-5e-05	-0.00017	-6e-05	-1e-05	-7e-05	5
22132	2e-05	-7e-05	-5e-05	-5e-05	-0.00017	-6e-05	-1e-05	-7e-05	5
22133	2e-05	-7e-05	-5e-05	-5e-05	-0.00017	-6e-05	-1e-05	-7e-05	5
22134	2e-05	-7e-05	-5e-05	-5e-05	-0.00017	-6e-05	-1e-05	-7e-05	5
22135	2e-05	-7e-05	-5e-05	-5e-05	-0.00017	-6e-05	-1e-05	-7e-05	5
22136	2e-05	-7e-05	-5e-05	-5e-05	-0.00017	-6e-05	-1e-05	-7e-05	5
22137	2e-05	-7e-05	-5e-05	-5e-05	-0.00017	-6e-05	-1e-05	-7e-05	5
22138	2e-05	-7e-05	-5e-05	-5e-05	-0.00017	-6e-05	-1e-05	-7e-05	5
22139	2e-05	-7e-05	-5e-05	-5e-05	-0.00017	-6e-05	-1e-05	-7e-05	5
22140	-5e-05	-4e-05	6e-05	-9e-05	-0.00025	-6e-05	0	-1e-05	5
22141	-5e-05	-4e-05	6e-05	-9e-05	-0.00025	-6e-05	0	-1e-05	5
22142	-5e-05	-4e-05	6e-05	-9e-05	-0.00025	-6e-05	0	-1e-05	5
22143	-5e-05	-4e-05	6e-05	-9e-05	-0.00025	-6e-05	0	-1e-05	5
22144	-5e-05	-4e-05	6e-05	-9e-05	-0.00025	-6e-05	0	-1e-05	5
22145	-5e-05	-4e-05	6e-05	-9e-05	-0.00025	-6e-05	0	-1e-05	5
22146	-5e-05	-4e-05	6e-05	-9e-05	-0.00025	-6e-05	0	-1e-05	5
22147	-5e-05	-4e-05	6e-05	-9e-05	-0.00025	-6e-05	0	-1e-05	5
22148	-5e-05	-4e-05	6e-05	-9e-05	-0.00025	-6e-05	0	-1e-05	5
22149	-4e-05	8e-05	7e-05	-0.00014	-0.00038	-5e-05	-5e-05	0	5
22150	-4e-05	8e-05	7e-05	-0.00014	-0.00038	-5e-05	-5e-05	0	5
22151	-4e-05	8e-05	7e-05	-0.00014	-0.00038	-5e-05	-5e-05	0	5
22152	-4e-05	8e-05	7e-05	-0.00014	-0.00038	-5e-05	-5e-05	0	5
22153	-4e-05	8e-05	7e-05	-0.00014	-0.00038	-5e-05	-5e-05	0	5
22154	-4e-05	8e-05	7e-05	-0.00014	-0.00038	-5e-05	-5e-05	0	5
22155	-4e-05	8e-05	7e-05	-0.00014	-0.00038	-5e-05	-5e-05	0	5
22157	-4e-05	8e-05	7e-05	-0.00014	-0.00038	-5e-05	-5e-05	0	5
22158	-4e-05	8e-05	7e-05	-0.00014	-0.00038	-5e-05	-5e-05	0	5
22159	-4e-05	8e-05	7e-05	-0.00014	-0.00038	-5e-05	-5e-05	0	5
22160	-4e-05	8e-05	7e-05	-0.00014	-0.00038	-5e-05	-5e-05	0	5
22161	-4e-05	8e-05	7e-05	-0.00014	-0.00038	-5e-05	-5e-05	0	5
22162	-4e-05	8e-05	7e-05	-0.00014	-0.00038	-5e-05	-5e-05	0	5
22163	-4e-05	8e-05	7e-05	-0.00014	-0.00038	-5e-05	-5e-05	0	5
22164	5e-05	-4e-05	-6e-05	0.00015	-0.00035	1e-05	-3e-05	4e-05	5
22165	-8e-05	-9e-05	-0.0002	-0.00022	-0.00061	-5e-05	-2e-05	-3e-05	5
22166	-8e-05	-9e-05	-0.0002	-0.00022	-0.00061	-5e-05	-2e-05	-3e-05	5
22167	-8e-05	-9e-05	-0.0002	-0.00022	-0.00061	-5e-05	-2e-05	-3e-05	5
22168	-8e-05	-9e-05	-0.0002	-0.00022	-0.00061	-5e-05	-2e-05	-3e-05	5
22169	-8e-05	-9e-05	-0.0002	-0.00022	-0.00061	-5e-05	-2e-05	-3e-05	5
22170	-8e-05	-9e-05	-0.0002	-0.00022	-0.00061	-5e-05	-2e-05	-3e-05	5
22171	-8e-05	-9e-05	-0.0002	-0.00022	-0.00061	-5e-05	-2e-05	-3e-05	5
22172	-8e-05	-9e-05	-0.0002	-0.00022	-0.00061	-5e-05	-2e-05	-3e-05	5
22173	-8e-05	-9e-05	-0.0002	-0.00022	-0.00061	-5e-05	-2e-05	-3e-05	5
22174	-8e-05	-9e-05	-0.0002	-0.00022	-0.00061	-5e-05	-2e-05	-3e-05	5
22175	-8e-05	-9e-05	-0.0002	-0.00022	-0.00061	-5e-05	-2e-05	-3e-05	5
22176	-8e-05	-9e-05	-0.0002	-0.00022	-0.00061	-5e-05	-2e-05	-3e-05	5
22177	-8e-05	-9e-05	-0.0002	-0.00022	-0.00061	-5e-05	-2e-05	-3e-05	5
22178	-8e-05	-9e-05	-0.0002	-0.00022	-0.00061	-5e-05	-2e-05	-3e-05	5
22179	-8e-05	-9e-05	-0.0002	-0.00022	-0.00061	-5e-05	-2e-05	-3e-05	5
22180	-8e-05	-9e-05	-0.0002	-0.00022	-0.00061	-5e-05	-2e-05	-3e-05	5
22181	-8e-05	-9e-05	-0.0002	-0.00022	-0.00061	-5e-05	-2e-05	-3e-05	5
22182	-8e-05	-9e-05	-0.0002	-0.00022	-0.00061	-5e-05	-2e-05	-3e-05	5
22183	-8e-05	-9e-05	-0.0002	-0.00022	-0.00061	-5e-05	-2e-05	-3e-05	5
22184	-8e-05	-9e-05	-0.0002	-0.00022	-0.00061	-5e-05	-2e-05	-3e-05	5
22185	-8e-05	-9e-05	-0.0002	-0.00022	-0.00061	-5e-05	-2e-05	-3e-05	5
22186	-0.00011	-0.00011	-0.00022	8e-05	0.00019	-2e-05	-4e-05	-5e-05	5
22188	2e-05	-5e-05	-6e-05	-0.00017	0.00018	-2e-05	-3e-05	-2e-05	5
22189	2e-05	-5e-05	-6e-05	-0.00017	0.00018	-2e-05	-3e-05	-2e-05	5
22190	2e-05	-5e-05	-6e-05	-0.00017	0.00018	-2e-05	-3e-05	-2e-05	5
22191	2e-05	-5e-05	-6e-05	-0.00017	0.00018	-2e-05	-3e-05	-2e-05	5
22192	2e-05	-5e-05	-6e-05	-0.00017	0.00018	-2e-05	-3e-05	-2e-05	5
22193	2e-05	-5e-05	-6e-05	-0.00017	0.00018	-2e-05	-3e-05	-2e-05	5
22194	2e-05	-5e-05	-6e-05	-0.00017	0.00018	-2e-05	-3e-05	-2e-05	5
22195	2e-05	-5e-05	-6e-05	-0.00017	0.00018	-2e-05	-3e-05	-2e-05	5
22196	2e-05	-5e-05	-6e-05	-0.00017	0.00018	-2e-05	-3e-05	-2e-05	5
22197	2e-05	-5e-05	-6e-05	-0.00017	0.00018	-2e-05	-3e-05	-2e-05	5
22198	2e-05	-5e-05	-6e-05	-0.00017	0.00018	-2e-05	-3e-05	-2e-05	5
22199	2e-05	-5e-05	-6e-05	-0.00017	0.00018	-2e-05	-3e-05	-2e-05	5
22200	2e-05	-5e-05	-6e-05	-0.00017	0.00018	-2e-05	-3e-05	-2e-05	5
22201	2e-05	-5e-05	-6e-05	-0.00017	0.00018	-2e-05	-3e-05	-2e-05	5
22202	2e-05	-5e-05	-6e-05	-0.00017	0.00018	-2e-05	-3e-05	-2e-05	5
22203	2e-05	-5e-05	-6e-05	-0.00017	0.00018	-2e-05	-3e-05	-2e-05	5
22205	2e-05	-5e-05	-6e-05	-0.00017	0.00018	-2e-05	-3e-05	-2e-05	5
22206	2e-05	-5e-05	-6e-05	-0.00017	0.00018	-2e-05	-3e-05	-2e-05	5
22207	2e-05	-5e-05	-6e-05	-0.00017	0.00018	-2e-05	-3e-05	-2e-05	5
22208	2e-05	-5e-05	-6e-05	-0.00017	0.00018	-2e-05	-3e-05	-2e-05	5
22209	-7e-05	-0.00015	-0.00028	-0.00055	0.00077	8e-05	1e-05	-4e-05	5
22210	0	2e-05	9e-05	-0.00021	5e-05	0.0001	0	3e-05	5
22211	0	2e-05	9e-05	-0.00021	5e-05	0.0001	0	3e-05	5
22212	0	2e-05	9e-05	-0.00021	5e-05	0.0001	0	3e-05	5
22213	0	2e-05	9e-05	-0.00021	5e-05	0.0001	0	3e-05	5
22214	0	2e-05	9e-05	-0.00021	5e-05	0.0001	0	3e-05	5
22215	0	2e-05	9e-05	-0.00021	5e-05	0.0001	0	3e-05	5
22216	0	2e-05	9e-05	-0.00021	5e-05	0.0001	0	3e-05	5
22217	0	2e-05	9e-05	-0.00021	5e-05	0.0001	0	3e-05	5
22218	0	2e-05	9e-05	-0.00021	5e-05	0.0001	0	3e-05	5
22219	0	2e-05	9e-05	-0.00021	5e-05	0.0001	0	3e-05	5
22220	0	2e-05	9e-05	-0.00021	5e-05	0.0001	0	3e-05	5
22221	0	2e-05	9e-05	-0.00021	5e-05	0.0001	0	3e-05	5
22222	0	2e-05	9e-05	-0.00021	5e-05	0.0001	0	3e-05	5
22223	0	2e-05	9e-05	-0.00021	5e-05	0.0001	0	3e-05	5
22224	1e-05	-8e-05	-0.00018	0.00011	0.00059	-1e-05	2e-05	-5e-05	5
22225	0.00011	0.00022	0.00027	0.00036	0.00022	-6e-05	3e-05	0.0001	5
22226	0.00011	0.00022	0.00027	0.00036	0.00022	-6e-05	3e-05	0.0001	5
22227	0.00011	0.00022	0.00027	0.00036	0.00022	-6e-05	3e-05	0.0001	5
22228	0.00011	0.00022	0.00027	0.00036	0.00022	-6e-05	3e-05	0.0001	5
22229	0.00011	0.00022	0.00027	0.00036	0.00022	-6e-05	3e-05	0.0001	5
22230	0.00011	0.00022	0.00027	0.00036	0.00022	-6e-05	3e-05	0.0001	5
22231	0.00011	0.00022	0.00027	0.00036	0.00022	-6e-05	3e-05	0.0001	5
22232	0.00011	0.00022	0.00027	0.00036	0.00022	-6e-05	3e-05	0.0001	5
22233	0.00011	0.00022	0.00027	0.00036	0.00022	-6e-05	3e-05	0.0001	5
22234	0.00011	0.00022	0.00027	0.00036	0.00022	-6e-05	3e-05	0.0001	5
22235	0.00011	0.00022	0.00027	0.00036	0.00022	-6e-05	3e-05	0.0001	5
22236	0.00011	0.00022	0.00027	0.00036	0.00022	-6e-05	3e-05	0.0001	5
22237	0.00011	0.00022	0.00027	0.00036	0.00022	-6e-05	3e-05	0.0001	5
22238	0.00011	0.00022	0.00027	0.00036	0.00022	-6e-05	3e-05	0.0001	5
22239	0.00011	0.00022	0.00027	0.00036	0.00022	-6e-05	3e-05	0.0001	5
22240	0.00011	0.00022	0.00027	0.00036	0.00022	-6e-05	3e-05	0.0001	5
22241	0.00011	0.00022	0.00027	0.00036	0.00022	-6e-05	3e-05	0.0001	5
22242	0.00011	0.00022	0.00027	0.00036	0.00022	-6e-05	3e-05	0.0001	5
22243	0.00011	0.00022	0.00027	0.00036	0.00022	-6e-05	3e-05	0.0001	5
22244	0.00011	0.00022	0.00027	0.00036	0.00022	-6e-05	3e-05	0.0001	5
22245	0.00011	0.00022	0.00027	0.00036	0.00022	-6e-05	3e-05	0.0001	5
22246	5e-05	9e-05	0.00027	0.0003	-0.00041	-5e-05	-6e-05	6e-05	5
22247	5e-05	9e-05	0.00027	0.0003	-0.00041	-5e-05	-6e-05	6e-05	5
22248	-5e-05	-8e-05	-0.00017	-0.0003	-0.00033	-5e-05	2e-05	-5e-05	5
22249	-5e-05	-8e-05	-0.00017	-0.0003	-0.00033	-5e-05	2e-05	-5e-05	5
22251	-5e-05	-8e-05	-0.00017	-0.0003	-0.00033	-5e-05	2e-05	-5e-05	5
22253	-5e-05	-8e-05	-0.00017	-0.0003	-0.00033	-5e-05	2e-05	-5e-05	5
22254	-5e-05	-8e-05	-0.00017	-0.0003	-0.00033	-5e-05	2e-05	-5e-05	5
22255	-5e-05	-8e-05	-0.00017	-0.0003	-0.00033	-5e-05	2e-05	-5e-05	5
22256	-5e-05	-8e-05	-0.00017	-0.0003	-0.00033	-5e-05	2e-05	-5e-05	5
22257	-5e-05	-8e-05	-0.00017	-0.0003	-0.00033	-5e-05	2e-05	-5e-05	5
22258	-5e-05	-8e-05	-0.00017	-0.0003	-0.00033	-5e-05	2e-05	-5e-05	5
22259	-5e-05	-8e-05	-0.00017	-0.0003	-0.00033	-5e-05	2e-05	-5e-05	5
22260	-5e-05	-8e-05	-0.00017	-0.0003	-0.00033	-5e-05	2e-05	-5e-05	5
22261	-5e-05	-8e-05	-0.00017	-0.0003	-0.00033	-5e-05	2e-05	-5e-05	5
22262	-5e-05	-8e-05	-0.00017	-0.0003	-0.00033	-5e-05	2e-05	-5e-05	5
22263	-5e-05	-8e-05	-0.00017	-0.0003	-0.00033	-5e-05	2e-05	-5e-05	5
22264	-5e-05	-8e-05	-0.00017	-0.0003	-0.00033	-5e-05	2e-05	-5e-05	5
22265	-5e-05	-8e-05	-0.00017	-0.0003	-0.00033	-5e-05	2e-05	-5e-05	5
22266	-5e-05	-8e-05	-0.00017	-0.0003	-0.00033	-5e-05	2e-05	-5e-05	5
22267	-5e-05	-8e-05	-0.00017	-0.0003	-0.00033	-5e-05	2e-05	-5e-05	5
22268	-5e-05	-8e-05	-0.00017	-0.0003	-0.00033	-5e-05	2e-05	-5e-05	5
22269	-2e-05	-5e-05	-0.0002	-0.00076	-0.0007	-9e-05	-3e-05	-1e-05	5
22270	-2e-05	-6e-05	-0.00012	-0.0001	0.00018	3e-05	-2e-05	-3e-05	5
22271	-2e-05	-6e-05	-0.00012	-0.0001	0.00018	3e-05	-2e-05	-3e-05	5
22272	-2e-05	-6e-05	-0.00012	-0.0001	0.00018	3e-05	-2e-05	-3e-05	5
22273	-2e-05	-6e-05	-0.00012	-0.0001	0.00018	3e-05	-2e-05	-3e-05	5
22274	-2e-05	-6e-05	-0.00012	-0.0001	0.00018	3e-05	-2e-05	-3e-05	5
22275	-2e-05	-6e-05	-0.00012	-0.0001	0.00018	3e-05	-2e-05	-3e-05	5
22276	-2e-05	-6e-05	-0.00012	-0.0001	0.00018	3e-05	-2e-05	-3e-05	5
22277	-2e-05	-6e-05	-0.00012	-0.0001	0.00018	3e-05	-2e-05	-3e-05	5
22278	-2e-05	-6e-05	-0.00012	-0.0001	0.00018	3e-05	-2e-05	-3e-05	5
22279	-2e-05	-6e-05	-0.00012	-0.0001	0.00018	3e-05	-2e-05	-3e-05	5
22280	-2e-05	-6e-05	-0.00012	-0.0001	0.00018	3e-05	-2e-05	-3e-05	5
22281	-2e-05	-6e-05	-0.00012	-0.0001	0.00018	3e-05	-2e-05	-3e-05	5
22282	-2e-05	-6e-05	-0.00012	-0.0001	0.00018	3e-05	-2e-05	-3e-05	5
22283	-2e-05	-6e-05	-0.00012	-0.0001	0.00018	3e-05	-2e-05	-3e-05	5
22284	2e-05	-1e-05	7e-05	0.00016	0.00046	0	-3e-05	0	5
22285	0	-1e-05	-3e-05	0.00016	-0.00012	5e-05	-1e-05	5e-05	5
22286	0	-1e-05	-3e-05	0.00016	-0.00012	5e-05	-1e-05	5e-05	5
22287	0	-1e-05	-3e-05	0.00016	-0.00012	5e-05	-1e-05	5e-05	5
22288	0	-1e-05	-3e-05	0.00016	-0.00012	5e-05	-1e-05	5e-05	5
22289	0	-1e-05	-3e-05	0.00016	-0.00012	5e-05	-1e-05	5e-05	5
22290	0	-1e-05	-3e-05	0.00016	-0.00012	5e-05	-1e-05	5e-05	5
22291	0	-1e-05	-3e-05	0.00016	-0.00012	5e-05	-1e-05	5e-05	5
22292	0	-1e-05	-3e-05	0.00016	-0.00012	5e-05	-1e-05	5e-05	5
22293	0	-1e-05	-3e-05	0.00016	-0.00012	5e-05	-1e-05	5e-05	5
22294	0	-1e-05	-3e-05	0.00016	-0.00012	5e-05	-1e-05	5e-05	5
22295	0	-1e-05	-3e-05	0.00016	-0.00012	5e-05	-1e-05	5e-05	5
22296	0	-1e-05	-3e-05	0.00016	-0.00012	5e-05	-1e-05	5e-05	5
22298	0	-1e-05	-3e-05	0.00016	-0.00012	5e-05	-1e-05	5e-05	5
22299	0	-1e-05	-3e-05	0.00016	-0.00012	5e-05	-1e-05	5e-05	5
22300	0	-1e-05	-3e-05	0.00016	-0.00012	5e-05	-1e-05	5e-05	5
22301	0	-1e-05	-3e-05	0.00016	-0.00012	5e-05	-1e-05	5e-05	5
22303	0	-1e-05	-3e-05	0.00016	-0.00012	5e-05	-1e-05	5e-05	5
22304	0	-1e-05	-3e-05	0.00016	-0.00012	5e-05	-1e-05	5e-05	5
22305	0	-1e-05	-3e-05	0.00016	-0.00012	5e-05	-1e-05	5e-05	5
22306	-3e-05	6e-05	0.00015	0.00044	-3e-05	6e-05	4e-05	-4e-05	5
22307	-3e-05	6e-05	0.00015	0.00044	-3e-05	6e-05	4e-05	-4e-05	5
22308	-7e-05	-4e-05	-4e-05	0.00054	0.00095	8e-05	-6e-05	-6e-05	5
22309	-7e-05	-4e-05	-4e-05	0.00054	0.00095	8e-05	-6e-05	-6e-05	5
22310	-7e-05	-4e-05	-4e-05	0.00054	0.00095	8e-05	-6e-05	-6e-05	5
22311	-7e-05	-4e-05	-4e-05	0.00054	0.00095	8e-05	-6e-05	-6e-05	5
22312	-7e-05	-4e-05	-4e-05	0.00054	0.00095	8e-05	-6e-05	-6e-05	5
22313	-7e-05	-4e-05	-4e-05	0.00054	0.00095	8e-05	-6e-05	-6e-05	5
22314	-7e-05	-4e-05	-4e-05	0.00054	0.00095	8e-05	-6e-05	-6e-05	5
22315	-7e-05	-4e-05	-4e-05	0.00054	0.00095	8e-05	-6e-05	-6e-05	5
22316	-7e-05	-4e-05	-4e-05	0.00054	0.00095	8e-05	-6e-05	-6e-05	5
22317	-7e-05	-4e-05	-4e-05	0.00054	0.00095	8e-05	-6e-05	-6e-05	5
22318	-7e-05	-4e-05	-4e-05	0.00054	0.00095	8e-05	-6e-05	-6e-05	5
22319	-7e-05	-4e-05	-4e-05	0.00054	0.00095	8e-05	-6e-05	-6e-05	5
22320	-7e-05	-4e-05	-4e-05	0.00054	0.00095	8e-05	-6e-05	-6e-05	5
22321	-7e-05	-4e-05	-4e-05	0.00054	0.00095	8e-05	-6e-05	-6e-05	5
22322	-7e-05	-4e-05	-4e-05	0.00054	0.00095	8e-05	-6e-05	-6e-05	5
22323	-7e-05	-4e-05	-4e-05	0.00054	0.00095	8e-05	-6e-05	-6e-05	5
22324	-7e-05	-4e-05	-4e-05	0.00054	0.00095	8e-05	-6e-05	-6e-05	5
22325	-7e-05	-4e-05	-4e-05	0.00054	0.00095	8e-05	-6e-05	-6e-05	5
22326	-7e-05	-4e-05	-4e-05	0.00054	0.00095	8e-05	-6e-05	-6e-05	5
22327	-7e-05	-4e-05	-4e-05	0.00054	0.00095	8e-05	-6e-05	-6e-05	5
22328	-7e-05	-4e-05	-4e-05	0.00054	0.00095	8e-05	-6e-05	-6e-05	5
22329	0.00027	0.00013	-9e-05	-0.00014	-0.00058	-0.00012	5e-05	9e-05	5
22330	1e-05	-6e-05	-0.00012	-0.00062	-0.00076	-0.0001	-5e-05	-2e-05	5
22331	1e-05	-6e-05	-0.00012	-0.00062	-0.00076	-0.0001	-5e-05	-2e-05	5
22332	1e-05	-6e-05	-0.00012	-0.00062	-0.00076	-0.0001	-5e-05	-2e-05	5
22333	1e-05	-6e-05	-0.00012	-0.00062	-0.00076	-0.0001	-5e-05	-2e-05	5
22334	1e-05	-6e-05	-0.00012	-0.00062	-0.00076	-0.0001	-5e-05	-2e-05	5
22335	1e-05	-6e-05	-0.00012	-0.00062	-0.00076	-0.0001	-5e-05	-2e-05	5
22336	1e-05	-6e-05	-0.00012	-0.00062	-0.00076	-0.0001	-5e-05	-2e-05	5
22337	1e-05	-6e-05	-0.00012	-0.00062	-0.00076	-0.0001	-5e-05	-2e-05	5
22338	1e-05	-6e-05	-0.00012	-0.00062	-0.00076	-0.0001	-5e-05	-2e-05	5
22339	1e-05	-6e-05	-0.00012	-0.00062	-0.00076	-0.0001	-5e-05	-2e-05	5
22340	1e-05	-6e-05	-0.00012	-0.00062	-0.00076	-0.0001	-5e-05	-2e-05	5
22341	1e-05	-6e-05	-0.00012	-0.00062	-0.00076	-0.0001	-5e-05	-2e-05	5
22342	1e-05	-6e-05	-0.00012	-0.00062	-0.00076	-0.0001	-5e-05	-2e-05	5
22343	1e-05	-1e-05	-2e-05	-0.00028	-0.00031	4e-05	-5e-05	3e-05	5
22345	1e-05	-1e-05	-2e-05	-0.00028	-0.00031	4e-05	-5e-05	3e-05	5
22346	1e-05	-1e-05	-2e-05	-0.00028	-0.00031	4e-05	-5e-05	3e-05	5
22347	1e-05	-1e-05	-2e-05	-0.00028	-0.00031	4e-05	-5e-05	3e-05	5
22348	1e-05	-1e-05	-2e-05	-0.00028	-0.00031	4e-05	-5e-05	3e-05	5
22349	1e-05	-1e-05	-2e-05	-0.00028	-0.00031	4e-05	-5e-05	3e-05	5
22350	0.0001	0.00011	0.00025	0.00067	0.00026	4e-05	7e-05	3e-05	5
22351	0.0001	0.00011	0.00025	0.00067	0.00026	4e-05	7e-05	3e-05	5
22353	0.0001	0.00011	0.00025	0.00067	0.00026	4e-05	7e-05	3e-05	5
22354	0.0001	0.00011	0.00025	0.00067	0.00026	4e-05	7e-05	3e-05	5
22355	0.0001	0.00011	0.00025	0.00067	0.00026	4e-05	7e-05	3e-05	5
22356	0.0001	0.00011	0.00025	0.00067	0.00026	4e-05	7e-05	3e-05	5
22357	0.0001	0.00011	0.00025	0.00067	0.00026	4e-05	7e-05	3e-05	5
22358	0.0001	0.00011	0.00025	0.00067	0.00026	4e-05	7e-05	3e-05	5
22359	0.0001	0.00011	0.00025	0.00067	0.00026	4e-05	7e-05	3e-05	5
22360	0.0001	0.00011	0.00025	0.00067	0.00026	4e-05	7e-05	3e-05	5
22361	0.0001	0.00011	0.00025	0.00067	0.00026	4e-05	7e-05	3e-05	5
22362	0.0001	0.00011	0.00025	0.00067	0.00026	4e-05	7e-05	3e-05	5
22363	0.0001	0.00011	0.00025	0.00067	0.00026	4e-05	7e-05	3e-05	5
22364	0.0001	0.00011	0.00025	0.00067	0.00026	4e-05	7e-05	3e-05	5
22365	0.0001	0.00011	0.00025	0.00067	0.00026	4e-05	7e-05	3e-05	5
22366	-7e-05	8e-05	0.0007	0.0012	0.00031	-3e-05	-3e-05	-2e-05	5
22367	-7e-05	8e-05	0.0007	0.0012	0.00031	-3e-05	-3e-05	-2e-05	5
22368	-3e-05	-1e-05	0.00011	0.00014	-0.00015	-7e-05	-3e-05	-8e-05	5
22369	-3e-05	-1e-05	0.00011	0.00014	-0.00015	-7e-05	-3e-05	-8e-05	5
22370	-3e-05	-1e-05	0.00011	0.00014	-0.00015	-7e-05	-3e-05	-8e-05	5
22371	-3e-05	-1e-05	0.00011	0.00014	-0.00015	-7e-05	-3e-05	-8e-05	5
22372	-3e-05	-1e-05	0.00011	0.00014	-0.00015	-7e-05	-3e-05	-8e-05	5
22373	-3e-05	-1e-05	0.00011	0.00014	-0.00015	-7e-05	-3e-05	-8e-05	5
22374	-3e-05	-1e-05	0.00011	0.00014	-0.00015	-7e-05	-3e-05	-8e-05	5
22375	-3e-05	-1e-05	0.00011	0.00014	-0.00015	-7e-05	-3e-05	-8e-05	5
22376	-3e-05	-1e-05	0.00011	0.00014	-0.00015	-7e-05	-3e-05	-8e-05	5
22377	-3e-05	-1e-05	0.00011	0.00014	-0.00015	-7e-05	-3e-05	-8e-05	5
22378	-3e-05	-1e-05	0.00011	0.00014	-0.00015	-7e-05	-3e-05	-8e-05	5
22379	-3e-05	-1e-05	0.00011	0.00014	-0.00015	-7e-05	-3e-05	-8e-05	5
22380	-3e-05	-1e-05	0.00011	0.00014	-0.00015	-7e-05	-3e-05	-8e-05	5
22381	-3e-05	-1e-05	0.00011	0.00014	-0.00015	-7e-05	-3e-05	-8e-05	5
22382	-3e-05	-1e-05	0.00011	0.00014	-0.00015	-7e-05	-3e-05	-8e-05	5
22383	-3e-05	-1e-05	0.00011	0.00014	-0.00015	-7e-05	-3e-05	-8e-05	5
22384	-3e-05	-1e-05	0.00011	0.00014	-0.00015	-7e-05	-3e-05	-8e-05	5
22385	-3e-05	-1e-05	0.00011	0.00014	-0.00015	-7e-05	-3e-05	-8e-05	5
22386	-3e-05	-1e-05	0.00011	0.00014	-0.00015	-7e-05	-3e-05	-8e-05	5
22387	-3e-05	-1e-05	0.00011	0.00014	-0.00015	-7e-05	-3e-05	-8e-05	5
22388	-3e-05	-1e-05	0.00011	0.00014	-0.00015	-7e-05	-3e-05	-8e-05	5
22389	-5e-05	2e-05	8e-05	8e-05	-0.00032	1e-05	1e-05	1e-05	5
22390	3e-05	0.00011	0.0001	9e-05	0.00033	-5e-05	1e-05	-8e-05	5
22392	3e-05	0.00011	0.0001	9e-05	0.00033	-5e-05	1e-05	-8e-05	5
22393	3e-05	0.00011	0.0001	9e-05	0.00033	-5e-05	1e-05	-8e-05	5
22394	3e-05	0.00011	0.0001	9e-05	0.00033	-5e-05	1e-05	-8e-05	5
22395	3e-05	0.00011	0.0001	9e-05	0.00033	-5e-05	1e-05	-8e-05	5
22396	3e-05	0.00011	0.0001	9e-05	0.00033	-5e-05	1e-05	-8e-05	5
22397	3e-05	0.00011	0.0001	9e-05	0.00033	-5e-05	1e-05	-8e-05	5
22398	3e-05	0.00011	0.0001	9e-05	0.00033	-5e-05	1e-05	-8e-05	5
22399	3e-05	0.00011	0.0001	9e-05	0.00033	-5e-05	1e-05	-8e-05	5
22400	3e-05	0.00011	0.0001	9e-05	0.00033	-5e-05	1e-05	-8e-05	5
22401	3e-05	0.00011	0.0001	9e-05	0.00033	-5e-05	1e-05	-8e-05	5
22403	-8e-05	-0.0002	-0.00048	-0.00073	-0.00032	-9e-05	-6e-05	-2e-05	5
