5639	0.00011	-1e-05	-1e-05	8e-05	0.0001	0.0006	-0.00019	0.00028	2
5640	0.00011	-1e-05	-1e-05	8e-05	0.0001	0.0006	-0.00019	0.00028	2
5641	0.00011	-1e-05	-1e-05	8e-05	0.0001	0.0006	-0.00019	0.00028	2
5642	0.00011	-1e-05	-1e-05	8e-05	0.0001	0.0006	-0.00019	0.00028	2
5643	0.00011	-1e-05	-1e-05	8e-05	0.0001	0.0006	-0.00019	0.00028	2
5644	0.00011	-1e-05	-1e-05	8e-05	0.0001	0.0006	-0.00019	0.00028	2
5645	0.00011	-1e-05	-1e-05	8e-05	0.0001	0.0006	-0.00019	0.00028	2
5646	0.00011	-1e-05	-1e-05	8e-05	0.0001	0.0006	-0.00019	0.00028	2
5647	0.00011	-1e-05	-1e-05	8e-05	0.0001	0.0006	-0.00019	0.00028	2
5648	0.00011	-1e-05	-1e-05	8e-05	0.0001	0.0006	-0.00019	0.00028	2
5649	-4e-05	4e-05	0.0001	-0.00016	6e-05	4e-05	-0.00044	-3e-05	2
5650	-0.00014	-5e-05	-1e-05	-9e-05	-0.00013	0.00018	0.0009	4e-05	2
5651	3e-05	4e-05	2e-05	-0.00018	-0.00013	-8e-05	6e-05	-9e-05	2
5652	3e-05	4e-05	2e-05	-0.00018	-0.00013	-8e-05	6e-05	-9e-05	2
5654	3e-05	4e-05	2e-05	-0.00018	-0.00013	-8e-05	6e-05	-9e-05	2
5655	3e-05	4e-05	2e-05	-0.00018	-0.00013	-8e-05	6e-05	-9e-05	2
5656	3e-05	4e-05	2e-05	-0.00018	-0.00013	-8e-05	6e-05	-9e-05	2
5657	3e-05	4e-05	2e-05	-0.00018	-0.00013	-8e-05	6e-05	-9e-05	2
5658	3e-05	4e-05	2e-05	-0.00018	-0.00013	-8e-05	6e-05	-9e-05	2
5659	3e-05	4e-05	2e-05	-0.00018	-0.00013	-8e-05	6e-05	-9e-05	2
5660	3e-05	4e-05	2e-05	-0.00018	-0.00013	-8e-05	6e-05	-9e-05	2
5661	3e-05	4e-05	2e-05	-0.00018	-0.00013	-8e-05	6e-05	-9e-05	2
5662	3e-05	4e-05	2e-05	-0.00018	-0.00013	-8e-05	6e-05	-9e-05	2
5663	3e-05	4e-05	2e-05	-0.00018	-0.00013	-8e-05	6e-05	-9e-05	2
5664	3e-05	4e-05	2e-05	-0.00018	-0.00013	-8e-05	6e-05	-9e-05	2
5665	0.00013	0	0	0.00043	0.00018	0.00043	0.00085	0.0002	2
5666	-0.00026	-7e-05	3e-05	-0.00034	-0.00022	4e-05	-0.00021	-0.00016	2
5667	5e-05	-6e-05	-0.00016	-0.00015	0	-0.00023	-0.0005	1e-05	2
5668	5e-05	-6e-05	-0.00016	-0.00015	0	-0.00023	-0.0005	1e-05	2
5669	5e-05	-6e-05	-0.00016	-0.00015	0	-0.00023	-0.0005	1e-05	2
5670	5e-05	-6e-05	-0.00016	-0.00015	0	-0.00023	-0.0005	1e-05	2
5671	5e-05	-6e-05	-0.00016	-0.00015	0	-0.00023	-0.0005	1e-05	2
5672	5e-05	-6e-05	-0.00016	-0.00015	0	-0.00023	-0.0005	1e-05	2
5673	5e-05	-6e-05	-0.00016	-0.00015	0	-0.00023	-0.0005	1e-05	2
5674	5e-05	-6e-05	-0.00016	-0.00015	0	-0.00023	-0.0005	1e-05	2
5675	5e-05	-6e-05	-0.00016	-0.00015	0	-0.00023	-0.0005	1e-05	2
5676	5e-05	-6e-05	-0.00016	-0.00015	0	-0.00023	-0.0005	1e-05	2
5677	5e-05	-6e-05	-0.00016	-0.00015	0	-0.00023	-0.0005	1e-05	2
5678	5e-05	-6e-05	-0.00016	-0.00015	0	-0.00023	-0.0005	1e-05	2
5679	5e-05	-6e-05	-0.00016	-0.00015	0	-0.00023	-0.0005	1e-05	2
5680	5e-05	-6e-05	-0.00016	-0.00015	0	-0.00023	-0.0005	1e-05	2
5681	5e-05	-6e-05	-0.00016	-0.00015	0	-0.00023	-0.0005	1e-05	2
5682	5e-05	-6e-05	-0.00016	-0.00015	0	-0.00023	-0.0005	1e-05	2
5683	5e-05	-6e-05	-0.00016	-0.00015	0	-0.00023	-0.0005	1e-05	2
5684	5e-05	-6e-05	-0.00016	-0.00015	0	-0.00023	-0.0005	1e-05	2
5685	5e-05	-6e-05	-0.00016	-0.00015	0	-0.00023	-0.0005	1e-05	2
5686	5e-05	-6e-05	-0.00016	-0.00015	0	-0.00023	-0.0005	1e-05	2
5688	2e-05	5e-05	5e-05	-0.00037	-8e-05	0.00024	-0.00028	0	2
5689	5e-05	7e-05	0.00011	-0.00046	5e-05	-0.00023	-4e-05	3e-05	2
5690	5e-05	7e-05	0.00011	-0.00046	5e-05	-0.00023	-4e-05	3e-05	2
5691	5e-05	7e-05	0.00011	-0.00046	5e-05	-0.00023	-4e-05	3e-05	2
5692	5e-05	7e-05	0.00011	-0.00046	5e-05	-0.00023	-4e-05	3e-05	2
5693	5e-05	7e-05	0.00011	-0.00046	5e-05	-0.00023	-4e-05	3e-05	2
5694	5e-05	7e-05	0.00011	-0.00046	5e-05	-0.00023	-4e-05	3e-05	2
5695	5e-05	7e-05	0.00011	-0.00046	5e-05	-0.00023	-4e-05	3e-05	2
5696	5e-05	7e-05	0.00011	-0.00046	5e-05	-0.00023	-4e-05	3e-05	2
5697	5e-05	7e-05	0.00011	-0.00046	5e-05	-0.00023	-4e-05	3e-05	2
5698	5e-05	7e-05	0.00011	-0.00046	5e-05	-0.00023	-4e-05	3e-05	2
5699	5e-05	7e-05	0.00011	-0.00046	5e-05	-0.00023	-4e-05	3e-05	2
5700	5e-05	7e-05	0.00011	-0.00046	5e-05	-0.00023	-4e-05	3e-05	2
5701	0.00011	-4e-05	-5e-05	-0.00037	3e-05	3e-05	0.0001	0.0003	2
5702	0.00011	-4e-05	-5e-05	-0.00037	3e-05	3e-05	0.0001	0.0003	2
5703	0.00011	-4e-05	-5e-05	-0.00037	3e-05	3e-05	0.0001	0.0003	2
5704	0.00011	-4e-05	-5e-05	-0.00037	3e-05	3e-05	0.0001	0.0003	2
5705	0.00011	-4e-05	-5e-05	-0.00037	3e-05	3e-05	0.0001	0.0003	2
5706	0.00011	-4e-05	-5e-05	-0.00037	3e-05	3e-05	0.0001	0.0003	2
5707	0.00011	-4e-05	-5e-05	-0.00037	3e-05	3e-05	0.0001	0.0003	2
5708	0.00015	8e-05	-1e-05	-0.0006	5e-05	-4e-05	-0.00076	6e-05	2
5709	0.00015	8e-05	-1e-05	-0.0006	5e-05	-4e-05	-0.00076	6e-05	2
5710	0.00015	8e-05	-1e-05	-0.0006	5e-05	-4e-05	-0.00076	6e-05	2
5711	0.00015	8e-05	-1e-05	-0.0006	5e-05	-4e-05	-0.00076	6e-05	2
5712	0.00015	8e-05	-1e-05	-0.0006	5e-05	-4e-05	-0.00076	6e-05	2
5713	0.00015	8e-05	-1e-05	-0.0006	5e-05	-4e-05	-0.00076	6e-05	2
5714	0.00015	8e-05	-1e-05	-0.0006	5e-05	-4e-05	-0.00076	6e-05	2
5715	0.00015	8e-05	-1e-05	-0.0006	5e-05	-4e-05	-0.00076	6e-05	2
5716	0.00015	8e-05	-1e-05	-0.0006	5e-05	-4e-05	-0.00076	6e-05	2
5717	0.00015	8e-05	-1e-05	-0.0006	5e-05	-4e-05	-0.00076	6e-05	2
5718	0.00015	8e-05	-1e-05	-0.0006	5e-05	-4e-05	-0.00076	6e-05	2
5719	0.00015	8e-05	-1e-05	-0.0006	5e-05	-4e-05	-0.00076	6e-05	2
5720	0.00015	8e-05	-1e-05	-0.0006	5e-05	-4e-05	-0.00076	6e-05	2
5721	0.00015	8e-05	-1e-05	-0.0006	5e-05	-4e-05	-0.00076	6e-05	2
5722	0.00015	8e-05	-1e-05	-0.0006	5e-05	-4e-05	-0.00076	6e-05	2
5723	0.00015	8e-05	-1e-05	-0.0006	5e-05	-4e-05	-0.00076	6e-05	2
5724	0.00015	8e-05	-1e-05	-0.0006	5e-05	-4e-05	-0.00076	6e-05	2
5725	1e-05	2e-05	4e-05	3e-05	9e-05	8e-05	-0.00046	-0.00024	2
5726	-0.00021	-9e-05	-6e-05	0.00071	2e-05	0	0.00063	0.00014	2
5727	-0.00021	-9e-05	-6e-05	0.00071	2e-05	0	0.00063	0.00014	2
5728	-0.00021	-9e-05	-6e-05	0.00071	2e-05	0	0.00063	0.00014	2
5729	-0.00021	-9e-05	-6e-05	0.00071	2e-05	0	0.00063	0.00014	2
5730	-0.00021	-9e-05	-6e-05	0.00071	2e-05	0	0.00063	0.00014	2
5731	-0.00021	-9e-05	-6e-05	0.00071	2e-05	0	0.00063	0.00014	2
5732	-0.00021	-9e-05	-6e-05	0.00071	2e-05	0	0.00063	0.00014	2
5733	-0.00021	-9e-05	-6e-05	0.00071	2e-05	0	0.00063	0.00014	2
5734	-0.00021	-9e-05	-6e-05	0.00071	2e-05	0	0.00063	0.00014	2
5735	-0.00021	-9e-05	-6e-05	0.00071	2e-05	0	0.00063	0.00014	2
5736	-0.00021	-9e-05	-6e-05	0.00071	2e-05	0	0.00063	0.00014	2
5739	-0.00021	-9e-05	-6e-05	0.00071	2e-05	0	0.00063	0.00014	2
5740	-0.00021	-9e-05	-6e-05	0.00071	2e-05	0	0.00063	0.00014	2
5741	-0.00021	-9e-05	-6e-05	0.00071	2e-05	0	0.00063	0.00014	2
5742	-0.00021	-9e-05	-6e-05	0.00071	2e-05	0	0.00063	0.00014	2
5743	-0.00021	-9e-05	-6e-05	0.00071	2e-05	0	0.00063	0.00014	2
5744	-0.00021	-9e-05	-6e-05	0.00071	2e-05	0	0.00063	0.00014	2
5745	-0.00021	-9e-05	-6e-05	0.00071	2e-05	0	0.00063	0.00014	2
5746	-0.00021	-9e-05	-6e-05	0.00071	2e-05	0	0.00063	0.00014	2
5747	-7e-05	3e-05	-1e-05	0.00039	-3e-05	-0.00014	-0.00056	-0.00012	2
5748	0.0002	5e-05	0	-0.00032	1e-05	0.0001	0.00085	0.00033	2
5749	-0.0001	-4e-05	-3e-05	0.00042	4e-05	-0.00013	-0.00042	-0.00026	2
5750	-0.0001	-4e-05	-3e-05	0.00042	4e-05	-0.00013	-0.00042	-0.00026	2
5751	-0.0001	-4e-05	-3e-05	0.00042	4e-05	-0.00013	-0.00042	-0.00026	2
5752	-0.0001	-4e-05	-3e-05	0.00042	4e-05	-0.00013	-0.00042	-0.00026	2
5753	-0.0001	-4e-05	-3e-05	0.00042	4e-05	-0.00013	-0.00042	-0.00026	2
5754	-0.0001	-4e-05	-3e-05	0.00042	4e-05	-0.00013	-0.00042	-0.00026	2
5755	-0.0001	-4e-05	-3e-05	0.00042	4e-05	-0.00013	-0.00042	-0.00026	2
5756	-0.0001	-4e-05	-3e-05	0.00042	4e-05	-0.00013	-0.00042	-0.00026	2
5757	-0.0001	-4e-05	-3e-05	0.00042	4e-05	-0.00013	-0.00042	-0.00026	2
5758	-0.0001	-4e-05	-3e-05	0.00042	4e-05	-0.00013	-0.00042	-0.00026	2
5759	-0.0001	-4e-05	-3e-05	0.00042	4e-05	-0.00013	-0.00042	-0.00026	2
5760	-0.0001	-4e-05	-3e-05	0.00042	4e-05	-0.00013	-0.00042	-0.00026	2
5761	0.0001	3e-05	9e-05	0.00019	-7e-05	-0.0002	0.00098	0.00034	2
5762	0.0001	3e-05	9e-05	0.00019	-7e-05	-0.0002	0.00098	0.00034	2
5763	0.0001	3e-05	9e-05	0.00019	-7e-05	-0.0002	0.00098	0.00034	2
5764	0.0001	3e-05	9e-05	0.00019	-7e-05	-0.0002	0.00098	0.00034	2
5765	0.0001	3e-05	9e-05	0.00019	-7e-05	-0.0002	0.00098	0.00034	2
5766	0.0001	3e-05	9e-05	0.00019	-7e-05	-0.0002	0.00098	0.00034	2
5767	0.0001	3e-05	9e-05	0.00019	-7e-05	-0.0002	0.00098	0.00034	2
5768	0.0001	3e-05	9e-05	0.00019	-7e-05	-0.0002	0.00098	0.00034	2
5769	-0.00014	-3e-05	-0.00025	-0.00055	-3e-05	1e-05	-0.00046	-0.00025	2
5770	0	-4e-05	2e-05	0.0002	8e-05	0.00019	0.00034	-0.00011	2
5771	0	-4e-05	2e-05	0.0002	8e-05	0.00019	0.00034	-0.00011	2
5772	0	-4e-05	2e-05	0.0002	8e-05	0.00019	0.00034	-0.00011	2
5773	0	-4e-05	2e-05	0.0002	8e-05	0.00019	0.00034	-0.00011	2
5774	0	-4e-05	2e-05	0.0002	8e-05	0.00019	0.00034	-0.00011	2
5775	0	-4e-05	2e-05	0.0002	8e-05	0.00019	0.00034	-0.00011	2
5776	0	-4e-05	2e-05	0.0002	8e-05	0.00019	0.00034	-0.00011	2
5777	0	-4e-05	2e-05	0.0002	8e-05	0.00019	0.00034	-0.00011	2
5778	0	-4e-05	2e-05	0.0002	8e-05	0.00019	0.00034	-0.00011	2
5779	0	-4e-05	2e-05	0.0002	8e-05	0.00019	0.00034	-0.00011	2
5780	0	-4e-05	2e-05	0.0002	8e-05	0.00019	0.00034	-0.00011	2
5781	0	-4e-05	2e-05	0.0002	8e-05	0.00019	0.00034	-0.00011	2
5782	0	-4e-05	2e-05	0.0002	8e-05	0.00019	0.00034	-0.00011	2
5783	0	-4e-05	2e-05	0.0002	8e-05	0.00019	0.00034	-0.00011	2
5784	-3e-05	-5e-05	-0.0001	3e-05	-1e-05	0.0003	0.00055	0.00024	2
5785	5e-05	2e-05	-1e-05	-0.00028	-0.00018	-0.00013	-0.0009	-0.00012	2
5786	5e-05	2e-05	-1e-05	-0.00028	-0.00018	-0.00013	-0.0009	-0.00012	2
5788	1e-05	-8e-05	-1e-05	0.00023	3e-05	-7e-05	0.00022	-0.00016	2
5789	1e-05	-8e-05	-1e-05	0.00023	3e-05	-7e-05	0.00022	-0.00016	2
5790	1e-05	-8e-05	-1e-05	0.00023	3e-05	-7e-05	0.00022	-0.00016	2
5791	1e-05	-8e-05	-1e-05	0.00023	3e-05	-7e-05	0.00022	-0.00016	2
5792	1e-05	-8e-05	-1e-05	0.00023	3e-05	-7e-05	0.00022	-0.00016	2
5793	1e-05	-8e-05	-1e-05	0.00023	3e-05	-7e-05	0.00022	-0.00016	2
5794	1e-05	-8e-05	-1e-05	0.00023	3e-05	-7e-05	0.00022	-0.00016	2
5795	1e-05	-8e-05	-1e-05	0.00023	3e-05	-7e-05	0.00022	-0.00016	2
5796	1e-05	-8e-05	-1e-05	0.00023	3e-05	-7e-05	0.00022	-0.00016	2
5797	1e-05	-8e-05	-1e-05	0.00023	3e-05	-7e-05	0.00022	-0.00016	2
5798	1e-05	-8e-05	-1e-05	0.00023	3e-05	-7e-05	0.00022	-0.00016	2
5799	1e-05	-8e-05	-1e-05	0.00023	3e-05	-7e-05	0.00022	-0.00016	2
5800	1e-05	-8e-05	-1e-05	0.00023	3e-05	-7e-05	0.00022	-0.00016	2
5801	1e-05	-8e-05	-1e-05	0.00023	3e-05	-7e-05	0.00022	-0.00016	2
5802	1e-05	-8e-05	-1e-05	0.00023	3e-05	-7e-05	0.00022	-0.00016	2
5803	1e-05	-8e-05	-1e-05	0.00023	3e-05	-7e-05	0.00022	-0.00016	2
5804	1e-05	-8e-05	-1e-05	0.00023	3e-05	-7e-05	0.00022	-0.00016	2
5805	1e-05	-8e-05	-1e-05	0.00023	3e-05	-7e-05	0.00022	-0.00016	2
5806	1e-05	-8e-05	-1e-05	0.00023	3e-05	-7e-05	0.00022	-0.00016	2
5807	-3e-05	-8e-05	-7e-05	-5e-05	0	-0.00012	-0.0002	-1e-05	2
5808	-3e-05	-8e-05	-7e-05	-5e-05	0	-0.00012	-0.0002	-1e-05	2
5809	4e-05	0	1e-05	0.00023	0	4e-05	-0.00019	5e-05	2
5810	4e-05	0	1e-05	0.00023	0	4e-05	-0.00019	5e-05	2
5811	4e-05	0	1e-05	0.00023	0	4e-05	-0.00019	5e-05	2
5812	4e-05	0	1e-05	0.00023	0	4e-05	-0.00019	5e-05	2
5813	4e-05	0	1e-05	0.00023	0	4e-05	-0.00019	5e-05	2
5814	4e-05	0	1e-05	0.00023	0	4e-05	-0.00019	5e-05	2
5815	4e-05	0	1e-05	0.00023	0	4e-05	-0.00019	5e-05	2
5816	4e-05	0	1e-05	0.00023	0	4e-05	-0.00019	5e-05	2
5817	4e-05	0	1e-05	0.00023	0	4e-05	-0.00019	5e-05	2
5818	4e-05	0	1e-05	0.00023	0	4e-05	-0.00019	5e-05	2
5819	4e-05	0	1e-05	0.00023	0	4e-05	-0.00019	5e-05	2
5820	-0.0001	-1e-05	1e-05	-0.00024	-9e-05	0.00011	-6e-05	-0.0002	2
5821	3e-05	-2e-05	-1e-05	-0.00018	-7e-05	-2e-05	0.00061	8e-05	2
5822	3e-05	-2e-05	-1e-05	-0.00018	-7e-05	-2e-05	0.00061	8e-05	2
5823	3e-05	-2e-05	-1e-05	-0.00018	-7e-05	-2e-05	0.00061	8e-05	2
5824	3e-05	-2e-05	-1e-05	-0.00018	-7e-05	-2e-05	0.00061	8e-05	2
5825	3e-05	-2e-05	-1e-05	-0.00018	-7e-05	-2e-05	0.00061	8e-05	2
5826	3e-05	-2e-05	-1e-05	-0.00018	-7e-05	-2e-05	0.00061	8e-05	2
5827	3e-05	-2e-05	-1e-05	-0.00018	-7e-05	-2e-05	0.00061	8e-05	2
5828	3e-05	-2e-05	-1e-05	-0.00018	-7e-05	-2e-05	0.00061	8e-05	2
5829	-9e-05	-2e-05	-0.00014	-0.00013	-0.0001	-0.00016	-0.00068	-0.00023	2
5830	-9e-05	-2e-05	-0.00014	-0.00013	-0.0001	-0.00016	-0.00068	-0.00023	2
5831	-9e-05	-2e-05	-0.00014	-0.00013	-0.0001	-0.00016	-0.00068	-0.00023	2
5832	-9e-05	-2e-05	-0.00014	-0.00013	-0.0001	-0.00016	-0.00068	-0.00023	2
5833	-9e-05	-2e-05	-0.00014	-0.00013	-0.0001	-0.00016	-0.00068	-0.00023	2
5834	-9e-05	-2e-05	-0.00014	-0.00013	-0.0001	-0.00016	-0.00068	-0.00023	2
5835	-9e-05	-2e-05	-0.00014	-0.00013	-0.0001	-0.00016	-0.00068	-0.00023	2
5836	-9e-05	-2e-05	-0.00014	-0.00013	-0.0001	-0.00016	-0.00068	-0.00023	2
5838	-9e-05	-2e-05	-0.00014	-0.00013	-0.0001	-0.00016	-0.00068	-0.00023	2
5839	-9e-05	-2e-05	-0.00014	-0.00013	-0.0001	-0.00016	-0.00068	-0.00023	2
5840	-9e-05	-2e-05	-0.00014	-0.00013	-0.0001	-0.00016	-0.00068	-0.00023	2
5841	-9e-05	-2e-05	-0.00014	-0.00013	-0.0001	-0.00016	-0.00068	-0.00023	2
5842	-9e-05	-2e-05	-0.00014	-0.00013	-0.0001	-0.00016	-0.00068	-0.00023	2
5843	-9e-05	-2e-05	-0.00014	-0.00013	-0.0001	-0.00016	-0.00068	-0.00023	2
5844	7e-05	-6e-05	-6e-05	-6e-05	2e-05	2e-05	9e-05	0.00016	2
5845	9e-05	1e-05	0	-8e-05	1e-05	0.00039	-0.0002	9e-05	2
5846	9e-05	9e-05	0.0001	-0.00034	-0.00012	-0.00012	-1e-05	7e-05	2
5847	9e-05	9e-05	0.0001	-0.00034	-0.00012	-0.00012	-1e-05	7e-05	2
5848	9e-05	9e-05	0.0001	-0.00034	-0.00012	-0.00012	-1e-05	7e-05	2
5849	9e-05	9e-05	0.0001	-0.00034	-0.00012	-0.00012	-1e-05	7e-05	2
5850	9e-05	9e-05	0.0001	-0.00034	-0.00012	-0.00012	-1e-05	7e-05	2
5851	9e-05	9e-05	0.0001	-0.00034	-0.00012	-0.00012	-1e-05	7e-05	2
5852	9e-05	9e-05	0.0001	-0.00034	-0.00012	-0.00012	-1e-05	7e-05	2
5853	9e-05	9e-05	0.0001	-0.00034	-0.00012	-0.00012	-1e-05	7e-05	2
5854	9e-05	9e-05	0.0001	-0.00034	-0.00012	-0.00012	-1e-05	7e-05	2
5855	9e-05	9e-05	0.0001	-0.00034	-0.00012	-0.00012	-1e-05	7e-05	2
5856	9e-05	9e-05	0.0001	-0.00034	-0.00012	-0.00012	-1e-05	7e-05	2
5857	9e-05	9e-05	0.0001	-0.00034	-0.00012	-0.00012	-1e-05	7e-05	2
5858	9e-05	9e-05	0.0001	-0.00034	-0.00012	-0.00012	-1e-05	7e-05	2
5859	9e-05	9e-05	0.0001	-0.00034	-0.00012	-0.00012	-1e-05	7e-05	2
5860	9e-05	9e-05	0.0001	-0.00034	-0.00012	-0.00012	-1e-05	7e-05	2
5861	9e-05	9e-05	0.0001	-0.00034	-0.00012	-0.00012	-1e-05	7e-05	2
5862	9e-05	9e-05	0.0001	-0.00034	-0.00012	-0.00012	-1e-05	7e-05	2
5863	9e-05	9e-05	0.0001	-0.00034	-0.00012	-0.00012	-1e-05	7e-05	2
5864	9e-05	9e-05	0.0001	-0.00034	-0.00012	-0.00012	-1e-05	7e-05	2
5865	9e-05	9e-05	0.0001	-0.00034	-0.00012	-0.00012	-1e-05	7e-05	2
5866	9e-05	9e-05	0.0001	-0.00034	-0.00012	-0.00012	-1e-05	7e-05	2
5867	5e-05	2e-05	-6e-05	0.00023	5e-05	0.00017	0.00073	0.0001	2
5868	5e-05	2e-05	-6e-05	0.00023	5e-05	0.00017	0.00073	0.0001	2
5869	1e-05	-5e-05	0	-9e-05	-3e-05	0.0002	-0.00085	-3e-05	2
5870	1e-05	-5e-05	0	-9e-05	-3e-05	0.0002	-0.00085	-3e-05	2
5871	1e-05	-5e-05	0	-9e-05	-3e-05	0.0002	-0.00085	-3e-05	2
5872	1e-05	-5e-05	0	-9e-05	-3e-05	0.0002	-0.00085	-3e-05	2
5873	1e-05	-5e-05	0	-9e-05	-3e-05	0.0002	-0.00085	-3e-05	2
5874	1e-05	-5e-05	0	-9e-05	-3e-05	0.0002	-0.00085	-3e-05	2
5875	1e-05	-5e-05	0	-9e-05	-3e-05	0.0002	-0.00085	-3e-05	2
5876	1e-05	-5e-05	0	-9e-05	-3e-05	0.0002	-0.00085	-3e-05	2
5877	1e-05	-5e-05	0	-9e-05	-3e-05	0.0002	-0.00085	-3e-05	2
5878	1e-05	-5e-05	0	-9e-05	-3e-05	0.0002	-0.00085	-3e-05	2
5879	1e-05	-5e-05	0	-9e-05	-3e-05	0.0002	-0.00085	-3e-05	2
5880	1e-05	-5e-05	0	-9e-05	-3e-05	0.0002	-0.00085	-3e-05	2
5881	-1e-05	-2e-05	1e-05	-4e-05	-2e-05	-0.00017	-0.00011	5e-05	2
5882	-1e-05	-2e-05	1e-05	-4e-05	-2e-05	-0.00017	-0.00011	5e-05	2
5883	-1e-05	-2e-05	1e-05	-4e-05	-2e-05	-0.00017	-0.00011	5e-05	2
5884	-1e-05	-2e-05	1e-05	-4e-05	-2e-05	-0.00017	-0.00011	5e-05	2
5885	-1e-05	-2e-05	1e-05	-4e-05	-2e-05	-0.00017	-0.00011	5e-05	2
5886	-1e-05	-2e-05	1e-05	-4e-05	-2e-05	-0.00017	-0.00011	5e-05	2
5888	-1e-05	-2e-05	1e-05	-4e-05	-2e-05	-0.00017	-0.00011	5e-05	2
5889	-7e-05	-4e-05	-0.00011	-0.00038	-8e-05	3e-05	-0.0001	-5e-05	2
5890	-5e-05	2e-05	0.0001	0.00039	-3e-05	-0.00032	8e-05	-3e-05	2
5891	-5e-05	2e-05	0.0001	0.00039	-3e-05	-0.00032	8e-05	-3e-05	2
5892	-5e-05	2e-05	0.0001	0.00039	-3e-05	-0.00032	8e-05	-3e-05	2
5893	-5e-05	2e-05	0.0001	0.00039	-3e-05	-0.00032	8e-05	-3e-05	2
5894	-5e-05	2e-05	0.0001	0.00039	-3e-05	-0.00032	8e-05	-3e-05	2
5895	-5e-05	2e-05	0.0001	0.00039	-3e-05	-0.00032	8e-05	-3e-05	2
5896	-5e-05	2e-05	0.0001	0.00039	-3e-05	-0.00032	8e-05	-3e-05	2
5897	-5e-05	2e-05	0.0001	0.00039	-3e-05	-0.00032	8e-05	-3e-05	2
5898	-5e-05	2e-05	0.0001	0.00039	-3e-05	-0.00032	8e-05	-3e-05	2
5899	-5e-05	2e-05	0.0001	0.00039	-3e-05	-0.00032	8e-05	-3e-05	2
5900	-5e-05	2e-05	0.0001	0.00039	-3e-05	-0.00032	8e-05	-3e-05	2
5901	-5e-05	2e-05	0.0001	0.00039	-3e-05	-0.00032	8e-05	-3e-05	2
5902	-5e-05	2e-05	0.0001	0.00039	-3e-05	-0.00032	8e-05	-3e-05	2
5903	-5e-05	2e-05	0.0001	0.00039	-3e-05	-0.00032	8e-05	-3e-05	2
5904	5e-05	0	-7e-05	-0.00069	-9e-05	0.0003	0.00013	-1e-05	2
5905	-0.00013	-9e-05	-6e-05	0.00029	-0.0001	-7e-05	-0.00087	-0.00016	2
5906	-0.00021	-0.00016	-0.00017	-0.00023	-0.00012	-6e-05	0	-0.00011	2
5907	-0.00021	-0.00016	-0.00017	-0.00023	-0.00012	-6e-05	0	-0.00011	2
5908	-0.00021	-0.00016	-0.00017	-0.00023	-0.00012	-6e-05	0	-0.00011	2
5909	-0.00021	-0.00016	-0.00017	-0.00023	-0.00012	-6e-05	0	-0.00011	2
5910	-0.00021	-0.00016	-0.00017	-0.00023	-0.00012	-6e-05	0	-0.00011	2
5911	-0.00021	-0.00016	-0.00017	-0.00023	-0.00012	-6e-05	0	-0.00011	2
5912	-0.00021	-0.00016	-0.00017	-0.00023	-0.00012	-6e-05	0	-0.00011	2
5913	-0.00021	-0.00016	-0.00017	-0.00023	-0.00012	-6e-05	0	-0.00011	2
5914	-0.00021	-0.00016	-0.00017	-0.00023	-0.00012	-6e-05	0	-0.00011	2
5915	-0.00021	-0.00016	-0.00017	-0.00023	-0.00012	-6e-05	0	-0.00011	2
5916	-0.00021	-0.00016	-0.00017	-0.00023	-0.00012	-6e-05	0	-0.00011	2
5917	-0.00021	-0.00016	-0.00017	-0.00023	-0.00012	-6e-05	0	-0.00011	2
5918	-0.00021	-0.00016	-0.00017	-0.00023	-0.00012	-6e-05	0	-0.00011	2
5919	-0.00021	-0.00016	-0.00017	-0.00023	-0.00012	-6e-05	0	-0.00011	2
5920	-0.00021	-0.00016	-0.00017	-0.00023	-0.00012	-6e-05	0	-0.00011	2
5921	-0.00021	-0.00016	-0.00017	-0.00023	-0.00012	-6e-05	0	-0.00011	2
5922	-0.00021	-0.00016	-0.00017	-0.00023	-0.00012	-6e-05	0	-0.00011	2
5923	-0.00021	-0.00016	-0.00017	-0.00023	-0.00012	-6e-05	0	-0.00011	2
5924	-0.00021	-0.00016	-0.00017	-0.00023	-0.00012	-6e-05	0	-0.00011	2
5925	-0.00021	-0.00016	-0.00017	-0.00023	-0.00012	-6e-05	0	-0.00011	2
5926	-0.00021	-0.00016	-0.00017	-0.00023	-0.00012	-6e-05	0	-0.00011	2
5927	-5e-05	-6e-05	-4e-05	0.00022	9e-05	-0.00028	-0.00099	-0.0001	2
5928	-1e-05	-4e-05	-6e-05	4e-05	2e-05	3e-05	-1e-05	9e-05	2
5929	2e-05	4e-05	0	-8e-05	-6e-05	6e-05	0.00086	1e-05	2
5930	2e-05	4e-05	0	-8e-05	-6e-05	6e-05	0.00086	1e-05	2
5931	2e-05	4e-05	0	-8e-05	-6e-05	6e-05	0.00086	1e-05	2
5932	2e-05	4e-05	0	-8e-05	-6e-05	6e-05	0.00086	1e-05	2
5933	2e-05	4e-05	0	-8e-05	-6e-05	6e-05	0.00086	1e-05	2
5934	2e-05	4e-05	0	-8e-05	-6e-05	6e-05	0.00086	1e-05	2
5935	2e-05	4e-05	0	-8e-05	-6e-05	6e-05	0.00086	1e-05	2
5936	2e-05	4e-05	0	-8e-05	-6e-05	6e-05	0.00086	1e-05	2
5938	2e-05	4e-05	0	-8e-05	-6e-05	6e-05	0.00086	1e-05	2
5939	2e-05	4e-05	0	-8e-05	-6e-05	6e-05	0.00086	1e-05	2
5940	2e-05	4e-05	0	-8e-05	-6e-05	6e-05	0.00086	1e-05	2
5941	-0.0001	0	1e-05	-0.00046	-3e-05	5e-05	0.00016	-0.00012	2
5942	-0.0001	0	1e-05	-0.00046	-3e-05	5e-05	0.00016	-0.00012	2
5943	-0.0001	0	1e-05	-0.00046	-3e-05	5e-05	0.00016	-0.00012	2
5944	-0.0001	0	1e-05	-0.00046	-3e-05	5e-05	0.00016	-0.00012	2
5945	-0.0001	0	1e-05	-0.00046	-3e-05	5e-05	0.00016	-0.00012	2
5946	-0.0001	0	1e-05	-0.00046	-3e-05	5e-05	0.00016	-0.00012	2
5947	-0.0001	0	1e-05	-0.00046	-3e-05	5e-05	0.00016	-0.00012	2
5948	-0.0001	0	1e-05	-0.00046	-3e-05	5e-05	0.00016	-0.00012	2
5949	8e-05	-2e-05	4e-05	1e-05	-6e-05	-0.00035	-0.00047	8e-05	2
5950	0.00012	3e-05	-6e-05	1e-05	0.0001	0.00011	0.00083	0.00016	2
5951	0.00012	3e-05	-6e-05	1e-05	0.0001	0.00011	0.00083	0.00016	2
5952	0.00012	3e-05	-6e-05	1e-05	0.0001	0.00011	0.00083	0.00016	2
5953	0.00012	3e-05	-6e-05	1e-05	0.0001	0.00011	0.00083	0.00016	2
5954	0.00012	3e-05	-6e-05	1e-05	0.0001	0.00011	0.00083	0.00016	2
5955	0.00012	3e-05	-6e-05	1e-05	0.0001	0.00011	0.00083	0.00016	2
5956	0.00012	3e-05	-6e-05	1e-05	0.0001	0.00011	0.00083	0.00016	2
5957	0.00012	3e-05	-6e-05	1e-05	0.0001	0.00011	0.00083	0.00016	2
5958	0.00012	3e-05	-6e-05	1e-05	0.0001	0.00011	0.00083	0.00016	2
5959	0.00012	3e-05	-6e-05	1e-05	0.0001	0.00011	0.00083	0.00016	2
5960	0.00012	3e-05	-6e-05	1e-05	0.0001	0.00011	0.00083	0.00016	2
5961	0.00012	3e-05	-6e-05	1e-05	0.0001	0.00011	0.00083	0.00016	2
5962	0.00012	3e-05	-6e-05	1e-05	0.0001	0.00011	0.00083	0.00016	2
5963	0.00012	3e-05	-6e-05	1e-05	0.0001	0.00011	0.00083	0.00016	2
5964	-0.00027	-1e-05	0.00011	0.00037	0	5e-05	-0.0007	-0.00037	2
5965	0.00021	1e-05	-9e-05	-0.00043	-0.00014	-0.00025	-0.00021	9e-05	2
5966	-4e-05	-7e-05	-0.00022	0.00018	5e-05	-4e-05	0.00112	-4e-05	2
5967	-4e-05	-7e-05	-0.00022	0.00018	5e-05	-4e-05	0.00112	-4e-05	2
5968	-4e-05	-7e-05	-0.00022	0.00018	5e-05	-4e-05	0.00112	-4e-05	2
5969	-4e-05	-7e-05	-0.00022	0.00018	5e-05	-4e-05	0.00112	-4e-05	2
5970	-4e-05	-7e-05	-0.00022	0.00018	5e-05	-4e-05	0.00112	-4e-05	2
5971	-4e-05	-7e-05	-0.00022	0.00018	5e-05	-4e-05	0.00112	-4e-05	2
5972	-4e-05	-7e-05	-0.00022	0.00018	5e-05	-4e-05	0.00112	-4e-05	2
5973	-4e-05	-7e-05	-0.00022	0.00018	5e-05	-4e-05	0.00112	-4e-05	2
5974	-4e-05	-7e-05	-0.00022	0.00018	5e-05	-4e-05	0.00112	-4e-05	2
5975	-4e-05	-7e-05	-0.00022	0.00018	5e-05	-4e-05	0.00112	-4e-05	2
5976	-4e-05	-7e-05	-0.00022	0.00018	5e-05	-4e-05	0.00112	-4e-05	2
5977	-4e-05	-7e-05	-0.00022	0.00018	5e-05	-4e-05	0.00112	-4e-05	2
5978	-4e-05	-7e-05	-0.00022	0.00018	5e-05	-4e-05	0.00112	-4e-05	2
5979	-4e-05	-7e-05	-0.00022	0.00018	5e-05	-4e-05	0.00112	-4e-05	2
5980	-4e-05	-7e-05	-0.00022	0.00018	5e-05	-4e-05	0.00112	-4e-05	2
5981	-4e-05	-7e-05	-0.00022	0.00018	5e-05	-4e-05	0.00112	-4e-05	2
5982	-4e-05	-7e-05	-0.00022	0.00018	5e-05	-4e-05	0.00112	-4e-05	2
5983	-4e-05	-7e-05	-0.00022	0.00018	5e-05	-4e-05	0.00112	-4e-05	2
5984	-4e-05	-7e-05	-0.00022	0.00018	5e-05	-4e-05	0.00112	-4e-05	2
5985	-4e-05	-7e-05	-0.00022	0.00018	5e-05	-4e-05	0.00112	-4e-05	2
5986	-4e-05	-7e-05	-0.00022	0.00018	5e-05	-4e-05	0.00112	-4e-05	2
5988	-0.00013	-2e-05	2e-05	1e-05	0.00017	0.00014	0.00087	2e-05	2
5989	-0.0001	-3e-05	7e-05	9e-05	0.00011	-4e-05	-0.00057	-0.00031	2
5990	-0.0001	-3e-05	7e-05	9e-05	0.00011	-4e-05	-0.00057	-0.00031	2
5991	-0.0001	-3e-05	7e-05	9e-05	0.00011	-4e-05	-0.00057	-0.00031	2
5992	-0.0001	-3e-05	7e-05	9e-05	0.00011	-4e-05	-0.00057	-0.00031	2
5993	-0.0001	-3e-05	7e-05	9e-05	0.00011	-4e-05	-0.00057	-0.00031	2
5994	-0.0001	-3e-05	7e-05	9e-05	0.00011	-4e-05	-0.00057	-0.00031	2
5995	-0.0001	-3e-05	7e-05	9e-05	0.00011	-4e-05	-0.00057	-0.00031	2
5996	-0.0001	-3e-05	7e-05	9e-05	0.00011	-4e-05	-0.00057	-0.00031	2
5997	-0.0001	-3e-05	7e-05	9e-05	0.00011	-4e-05	-0.00057	-0.00031	2
5998	-0.0001	-3e-05	7e-05	9e-05	0.00011	-4e-05	-0.00057	-0.00031	2
5999	-0.0001	-3e-05	7e-05	9e-05	0.00011	-4e-05	-0.00057	-0.00031	2
6000	-0.0001	-3e-05	7e-05	9e-05	0.00011	-4e-05	-0.00057	-0.00031	2
6001	-6e-05	-5e-05	-6e-05	0.00058	7e-05	2e-05	0.0005	0	2
6002	-6e-05	-5e-05	-6e-05	0.00058	7e-05	2e-05	0.0005	0	2
6003	-6e-05	-5e-05	-6e-05	0.00058	7e-05	2e-05	0.0005	0	2
6004	-6e-05	-5e-05	-6e-05	0.00058	7e-05	2e-05	0.0005	0	2
6005	-6e-05	-5e-05	-6e-05	0.00058	7e-05	2e-05	0.0005	0	2
6006	-6e-05	-5e-05	-6e-05	0.00058	7e-05	2e-05	0.0005	0	2
6007	-6e-05	-5e-05	-6e-05	0.00058	7e-05	2e-05	0.0005	0	2
6008	-6e-05	-5e-05	-6e-05	0.00058	7e-05	2e-05	0.0005	0	2
6009	0.00011	7e-05	-1e-05	-0.00024	-0.00013	3e-05	0.00125	0.00037	2
6010	-8e-05	-5e-05	-0.0001	-0.0002	-7e-05	0.00033	-0.00061	-0.00012	2
6011	-8e-05	-5e-05	-0.0001	-0.0002	-7e-05	0.00033	-0.00061	-0.00012	2
6012	-8e-05	-5e-05	-0.0001	-0.0002	-7e-05	0.00033	-0.00061	-0.00012	2
6013	-8e-05	-5e-05	-0.0001	-0.0002	-7e-05	0.00033	-0.00061	-0.00012	2
6014	-8e-05	-5e-05	-0.0001	-0.0002	-7e-05	0.00033	-0.00061	-0.00012	2
6015	-8e-05	-5e-05	-0.0001	-0.0002	-7e-05	0.00033	-0.00061	-0.00012	2
6016	-8e-05	-5e-05	-0.0001	-0.0002	-7e-05	0.00033	-0.00061	-0.00012	2
6017	-8e-05	-5e-05	-0.0001	-0.0002	-7e-05	0.00033	-0.00061	-0.00012	2
6018	-8e-05	-5e-05	-0.0001	-0.0002	-7e-05	0.00033	-0.00061	-0.00012	2
6019	-8e-05	-5e-05	-0.0001	-0.0002	-7e-05	0.00033	-0.00061	-0.00012	2
6020	-8e-05	-5e-05	-0.0001	-0.0002	-7e-05	0.00033	-0.00061	-0.00012	2
6021	-8e-05	-5e-05	-0.0001	-0.0002	-7e-05	0.00033	-0.00061	-0.00012	2
6022	-8e-05	-5e-05	-0.0001	-0.0002	-7e-05	0.00033	-0.00061	-0.00012	2
6023	-8e-05	-5e-05	-0.0001	-0.0002	-7e-05	0.00033	-0.00061	-0.00012	2
6024	9e-05	3e-05	1e-05	-5e-05	-0.00021	0.00011	8e-05	0.00016	2
6025	-0.00015	0	4e-05	-0.00024	2e-05	-8e-05	-0.00019	-0.00021	2
6026	-2e-05	-2e-05	4e-05	-9e-05	-3e-05	-0.00011	-7e-05	6e-05	2
6027	-2e-05	-2e-05	4e-05	-9e-05	-3e-05	-0.00011	-7e-05	6e-05	2
6028	-2e-05	-2e-05	4e-05	-9e-05	-3e-05	-0.00011	-7e-05	6e-05	2
6029	-2e-05	-2e-05	4e-05	-9e-05	-3e-05	-0.00011	-7e-05	6e-05	2
6030	-2e-05	-2e-05	4e-05	-9e-05	-3e-05	-0.00011	-7e-05	6e-05	2
6031	-2e-05	-2e-05	4e-05	-9e-05	-3e-05	-0.00011	-7e-05	6e-05	2
6032	-2e-05	-2e-05	4e-05	-9e-05	-3e-05	-0.00011	-7e-05	6e-05	2
6033	-2e-05	-2e-05	4e-05	-9e-05	-3e-05	-0.00011	-7e-05	6e-05	2
6034	-2e-05	-2e-05	4e-05	-9e-05	-3e-05	-0.00011	-7e-05	6e-05	2
6035	-2e-05	-2e-05	4e-05	-9e-05	-3e-05	-0.00011	-7e-05	6e-05	2
6037	-2e-05	-2e-05	4e-05	-9e-05	-3e-05	-0.00011	-7e-05	6e-05	2
6039	-2e-05	-2e-05	4e-05	-9e-05	-3e-05	-0.00011	-7e-05	6e-05	2
6040	-2e-05	-2e-05	4e-05	-9e-05	-3e-05	-0.00011	-7e-05	6e-05	2
6041	-2e-05	-2e-05	4e-05	-9e-05	-3e-05	-0.00011	-7e-05	6e-05	2
6042	-2e-05	-2e-05	4e-05	-9e-05	-3e-05	-0.00011	-7e-05	6e-05	2
6043	-2e-05	-2e-05	4e-05	-9e-05	-3e-05	-0.00011	-7e-05	6e-05	2
6044	-2e-05	-2e-05	4e-05	-9e-05	-3e-05	-0.00011	-7e-05	6e-05	2
6045	-2e-05	-2e-05	4e-05	-9e-05	-3e-05	-0.00011	-7e-05	6e-05	2
6046	-2e-05	-2e-05	4e-05	-9e-05	-3e-05	-0.00011	-7e-05	6e-05	2
6047	5e-05	-1e-05	-2e-05	-0.00072	-3e-05	6e-05	-0.00018	-1e-05	2
6048	-0.0001	-9e-05	-4e-05	0.00057	-5e-05	-0.00026	0.00031	-3e-05	2
6049	0.00012	0.00011	2e-05	7e-05	-4e-05	0.00029	5e-05	0.0001	2
6050	0.00012	0.00011	2e-05	7e-05	-4e-05	0.00029	5e-05	0.0001	2
6051	0.00012	0.00011	2e-05	7e-05	-4e-05	0.00029	5e-05	0.0001	2
6052	0.00012	0.00011	2e-05	7e-05	-4e-05	0.00029	5e-05	0.0001	2
6053	0.00012	0.00011	2e-05	7e-05	-4e-05	0.00029	5e-05	0.0001	2
6054	0.00012	0.00011	2e-05	7e-05	-4e-05	0.00029	5e-05	0.0001	2
6055	0.00012	0.00011	2e-05	7e-05	-4e-05	0.00029	5e-05	0.0001	2
6056	0.00012	0.00011	2e-05	7e-05	-4e-05	0.00029	5e-05	0.0001	2
6057	0.00012	0.00011	2e-05	7e-05	-4e-05	0.00029	5e-05	0.0001	2
6058	0.00012	0.00011	2e-05	7e-05	-4e-05	0.00029	5e-05	0.0001	2
6059	0.00012	0.00011	2e-05	7e-05	-4e-05	0.00029	5e-05	0.0001	2
6060	0	-3e-05	3e-05	-0.0001	3e-05	-0.00018	-0.00019	-0.00012	2
6061	3e-05	2e-05	5e-05	0.0005	0.00016	-0.00012	-8e-05	0.00016	2
6062	3e-05	2e-05	5e-05	0.0005	0.00016	-0.00012	-8e-05	0.00016	2
6063	3e-05	2e-05	5e-05	0.0005	0.00016	-0.00012	-8e-05	0.00016	2
6064	3e-05	2e-05	5e-05	0.0005	0.00016	-0.00012	-8e-05	0.00016	2
6065	3e-05	2e-05	5e-05	0.0005	0.00016	-0.00012	-8e-05	0.00016	2
6066	3e-05	2e-05	5e-05	0.0005	0.00016	-0.00012	-8e-05	0.00016	2
6067	3e-05	2e-05	5e-05	0.0005	0.00016	-0.00012	-8e-05	0.00016	2
6068	3e-05	2e-05	5e-05	0.0005	0.00016	-0.00012	-8e-05	0.00016	2
6069	3e-05	2e-05	5e-05	0.0005	0.00016	-0.00012	-8e-05	0.00016	2
6070	0.00031	0.00013	0.00013	0.00089	0.00025	0	0.00076	0.0001	2
6071	0.00031	0.00013	0.00013	0.00089	0.00025	0	0.00076	0.0001	2
6072	0.00031	0.00013	0.00013	0.00089	0.00025	0	0.00076	0.0001	2
6073	0.00031	0.00013	0.00013	0.00089	0.00025	0	0.00076	0.0001	2
6074	0.00031	0.00013	0.00013	0.00089	0.00025	0	0.00076	0.0001	2
6075	0.00031	0.00013	0.00013	0.00089	0.00025	0	0.00076	0.0001	2
6076	0.00031	0.00013	0.00013	0.00089	0.00025	0	0.00076	0.0001	2
6077	0.00031	0.00013	0.00013	0.00089	0.00025	0	0.00076	0.0001	2
6078	0.00031	0.00013	0.00013	0.00089	0.00025	0	0.00076	0.0001	2
6079	0.00031	0.00013	0.00013	0.00089	0.00025	0	0.00076	0.0001	2
6080	0.00031	0.00013	0.00013	0.00089	0.00025	0	0.00076	0.0001	2
6081	0.00031	0.00013	0.00013	0.00089	0.00025	0	0.00076	0.0001	2
6082	0.00031	0.00013	0.00013	0.00089	0.00025	0	0.00076	0.0001	2
6083	0.00031	0.00013	0.00013	0.00089	0.00025	0	0.00076	0.0001	2
6084	0.00031	0.00013	0.00013	0.00089	0.00025	0	0.00076	0.0001	2
6085	-0.00019	-0.0001	-5e-05	0.00018	-8e-05	-8e-05	-0.00104	-0.00028	2
6086	-0.00013	-5e-05	3e-05	-0.00034	-0.00018	-0.00025	-0.00021	-0.0001	2
6088	-0.00013	-5e-05	3e-05	-0.00034	-0.00018	-0.00025	-0.00021	-0.0001	2
6089	-0.00013	-5e-05	3e-05	-0.00034	-0.00018	-0.00025	-0.00021	-0.0001	2
6090	-0.00013	-5e-05	3e-05	-0.00034	-0.00018	-0.00025	-0.00021	-0.0001	2
6091	-0.00013	-5e-05	3e-05	-0.00034	-0.00018	-0.00025	-0.00021	-0.0001	2
6092	-0.00013	-5e-05	3e-05	-0.00034	-0.00018	-0.00025	-0.00021	-0.0001	2
6093	-0.00013	-5e-05	3e-05	-0.00034	-0.00018	-0.00025	-0.00021	-0.0001	2
6094	-0.00013	-5e-05	3e-05	-0.00034	-0.00018	-0.00025	-0.00021	-0.0001	2
6095	-0.00013	-5e-05	3e-05	-0.00034	-0.00018	-0.00025	-0.00021	-0.0001	2
6096	-0.00013	-5e-05	3e-05	-0.00034	-0.00018	-0.00025	-0.00021	-0.0001	2
6097	-0.00013	-5e-05	3e-05	-0.00034	-0.00018	-0.00025	-0.00021	-0.0001	2
6098	-0.00013	-5e-05	3e-05	-0.00034	-0.00018	-0.00025	-0.00021	-0.0001	2
6099	-0.00013	-5e-05	3e-05	-0.00034	-0.00018	-0.00025	-0.00021	-0.0001	2
6100	-0.00013	-5e-05	3e-05	-0.00034	-0.00018	-0.00025	-0.00021	-0.0001	2
6101	-0.00013	-5e-05	3e-05	-0.00034	-0.00018	-0.00025	-0.00021	-0.0001	2
6102	-0.00013	-5e-05	3e-05	-0.00034	-0.00018	-0.00025	-0.00021	-0.0001	2
6103	-0.00013	-5e-05	3e-05	-0.00034	-0.00018	-0.00025	-0.00021	-0.0001	2
6104	-0.00013	-5e-05	3e-05	-0.00034	-0.00018	-0.00025	-0.00021	-0.0001	2
6105	-0.00013	-5e-05	3e-05	-0.00034	-0.00018	-0.00025	-0.00021	-0.0001	2
6106	-0.00013	-5e-05	3e-05	-0.00034	-0.00018	-0.00025	-0.00021	-0.0001	2
6107	0.00012	-1e-05	2e-05	0.0007	6e-05	-0.00011	-0.00064	0.00012	2
6108	0.00012	-1e-05	2e-05	0.0007	6e-05	-0.00011	-0.00064	0.00012	2
6109	1e-05	-7e-05	-0.00012	0.00029	3e-05	-0.00015	-0.00023	0.00015	2
6110	1e-05	-7e-05	-0.00012	0.00029	3e-05	-0.00015	-0.00023	0.00015	2
6111	1e-05	-7e-05	-0.00012	0.00029	3e-05	-0.00015	-0.00023	0.00015	2
6112	1e-05	-7e-05	-0.00012	0.00029	3e-05	-0.00015	-0.00023	0.00015	2
6113	1e-05	-7e-05	-0.00012	0.00029	3e-05	-0.00015	-0.00023	0.00015	2
6114	1e-05	-7e-05	-0.00012	0.00029	3e-05	-0.00015	-0.00023	0.00015	2
6115	1e-05	-7e-05	-0.00012	0.00029	3e-05	-0.00015	-0.00023	0.00015	2
6116	1e-05	-7e-05	-0.00012	0.00029	3e-05	-0.00015	-0.00023	0.00015	2
6117	1e-05	-7e-05	-0.00012	0.00029	3e-05	-0.00015	-0.00023	0.00015	2
6118	1e-05	-7e-05	-0.00012	0.00029	3e-05	-0.00015	-0.00023	0.00015	2
6119	1e-05	-7e-05	-0.00012	0.00029	3e-05	-0.00015	-0.00023	0.00015	2
6120	1e-05	-7e-05	-0.00012	0.00029	3e-05	-0.00015	-0.00023	0.00015	2
6121	0.00015	2e-05	-2e-05	-0.00055	-0.00026	-6e-05	0.00012	0.00013	2
6122	0.00015	2e-05	-2e-05	-0.00055	-0.00026	-6e-05	0.00012	0.00013	2
6123	0.00015	2e-05	-2e-05	-0.00055	-0.00026	-6e-05	0.00012	0.00013	2
6124	0.00015	2e-05	-2e-05	-0.00055	-0.00026	-6e-05	0.00012	0.00013	2
6125	0.00015	2e-05	-2e-05	-0.00055	-0.00026	-6e-05	0.00012	0.00013	2
6126	0.00015	2e-05	-2e-05	-0.00055	-0.00026	-6e-05	0.00012	0.00013	2
6127	0.00015	2e-05	-2e-05	-0.00055	-0.00026	-6e-05	0.00012	0.00013	2
6128	0.00015	2e-05	-2e-05	-0.00055	-0.00026	-6e-05	0.00012	0.00013	2
6129	4e-05	6e-05	5e-05	0.00036	0.00019	-5e-05	-0.00074	-2e-05	2
6130	-0.0001	-9e-05	-0.00015	-0.00048	-0.00023	-0.00033	-0.00113	-6e-05	2
6131	-0.0001	-9e-05	-0.00015	-0.00048	-0.00023	-0.00033	-0.00113	-6e-05	2
6132	-0.0001	-9e-05	-0.00015	-0.00048	-0.00023	-0.00033	-0.00113	-6e-05	2
6133	-0.0001	-9e-05	-0.00015	-0.00048	-0.00023	-0.00033	-0.00113	-6e-05	2
6134	-0.0001	-9e-05	-0.00015	-0.00048	-0.00023	-0.00033	-0.00113	-6e-05	2
6135	-0.0001	-9e-05	-0.00015	-0.00048	-0.00023	-0.00033	-0.00113	-6e-05	2
6136	-0.0001	-9e-05	-0.00015	-0.00048	-0.00023	-0.00033	-0.00113	-6e-05	2
6138	-0.0001	-9e-05	-0.00015	-0.00048	-0.00023	-0.00033	-0.00113	-6e-05	2
6139	-0.0001	-9e-05	-0.00015	-0.00048	-0.00023	-0.00033	-0.00113	-6e-05	2
6140	-0.0001	-9e-05	-0.00015	-0.00048	-0.00023	-0.00033	-0.00113	-6e-05	2
6142	-0.0001	-9e-05	-0.00015	-0.00048	-0.00023	-0.00033	-0.00113	-6e-05	2
6143	-0.0001	-9e-05	-0.00015	-0.00048	-0.00023	-0.00033	-0.00113	-6e-05	2
6144	-0.0001	-9e-05	-0.00015	-0.00048	-0.00023	-0.00033	-0.00113	-6e-05	2
6145	0.0001	5e-05	-6e-05	-0.00011	0.00016	-3e-05	0.00072	0.00017	2
6146	-8e-05	-2e-05	-9e-05	-0.00035	-0.00021	0.00016	-0.00016	-6e-05	2
6147	-0.00011	-3e-05	-0.00014	6e-05	-5e-05	0.00032	0.00072	-4e-05	2
6148	-0.00011	-3e-05	-0.00014	6e-05	-5e-05	0.00032	0.00072	-4e-05	2
6149	-0.00011	-3e-05	-0.00014	6e-05	-5e-05	0.00032	0.00072	-4e-05	2
6150	-0.00011	-3e-05	-0.00014	6e-05	-5e-05	0.00032	0.00072	-4e-05	2
6151	-0.00011	-3e-05	-0.00014	6e-05	-5e-05	0.00032	0.00072	-4e-05	2
6152	-0.00011	-3e-05	-0.00014	6e-05	-5e-05	0.00032	0.00072	-4e-05	2
6153	-0.00011	-3e-05	-0.00014	6e-05	-5e-05	0.00032	0.00072	-4e-05	2
6154	-0.00011	-3e-05	-0.00014	6e-05	-5e-05	0.00032	0.00072	-4e-05	2
6155	-0.00011	-3e-05	-0.00014	6e-05	-5e-05	0.00032	0.00072	-4e-05	2
6156	-0.00011	-3e-05	-0.00014	6e-05	-5e-05	0.00032	0.00072	-4e-05	2
6157	-0.00011	-3e-05	-0.00014	6e-05	-5e-05	0.00032	0.00072	-4e-05	2
6158	-0.00011	-3e-05	-0.00014	6e-05	-5e-05	0.00032	0.00072	-4e-05	2
6159	-0.00011	-3e-05	-0.00014	6e-05	-5e-05	0.00032	0.00072	-4e-05	2
6160	-0.00011	-3e-05	-0.00014	6e-05	-5e-05	0.00032	0.00072	-4e-05	2
6161	-0.00011	-3e-05	-0.00014	6e-05	-5e-05	0.00032	0.00072	-4e-05	2
6162	-0.00011	-3e-05	-0.00014	6e-05	-5e-05	0.00032	0.00072	-4e-05	2
6163	-0.00011	-3e-05	-0.00014	6e-05	-5e-05	0.00032	0.00072	-4e-05	2
6164	-0.00011	-3e-05	-0.00014	6e-05	-5e-05	0.00032	0.00072	-4e-05	2
6165	-0.00011	-3e-05	-0.00014	6e-05	-5e-05	0.00032	0.00072	-4e-05	2
6166	-0.00011	-3e-05	-0.00014	6e-05	-5e-05	0.00032	0.00072	-4e-05	2
6167	-0.00011	-3e-05	-0.00014	6e-05	-5e-05	0.00032	0.00072	-4e-05	2
6168	2e-05	-1e-05	2e-05	0.0003	2e-05	0.00071	0.0008	2e-05	2
6169	0.00012	3e-05	-4e-05	0.00033	0.00028	-0.00022	0.00086	0.00017	2
6170	-6e-05	4e-05	6e-05	-0.00043	6e-05	0.00053	0.00035	1e-05	2
6171	-6e-05	4e-05	6e-05	-0.00043	6e-05	0.00053	0.00035	1e-05	2
6172	-6e-05	4e-05	6e-05	-0.00043	6e-05	0.00053	0.00035	1e-05	2
6173	-6e-05	4e-05	6e-05	-0.00043	6e-05	0.00053	0.00035	1e-05	2
6174	-6e-05	4e-05	6e-05	-0.00043	6e-05	0.00053	0.00035	1e-05	2
6175	-6e-05	4e-05	6e-05	-0.00043	6e-05	0.00053	0.00035	1e-05	2
6176	-6e-05	4e-05	6e-05	-0.00043	6e-05	0.00053	0.00035	1e-05	2
6177	-6e-05	4e-05	6e-05	-0.00043	6e-05	0.00053	0.00035	1e-05	2
6178	-6e-05	4e-05	6e-05	-0.00043	6e-05	0.00053	0.00035	1e-05	2
6179	-6e-05	4e-05	6e-05	-0.00043	6e-05	0.00053	0.00035	1e-05	2
6180	-6e-05	4e-05	6e-05	-0.00043	6e-05	0.00053	0.00035	1e-05	2
6181	-6e-05	4e-05	6e-05	-0.00043	6e-05	0.00053	0.00035	1e-05	2
6182	-6e-05	4e-05	6e-05	-0.00043	6e-05	0.00053	0.00035	1e-05	2
6183	-6e-05	4e-05	6e-05	-0.00043	6e-05	0.00053	0.00035	1e-05	2
6184	-6e-05	4e-05	6e-05	-0.00043	6e-05	0.00053	0.00035	1e-05	2
6185	-6e-05	4e-05	6e-05	-0.00043	6e-05	0.00053	0.00035	1e-05	2
6186	-6e-05	4e-05	6e-05	-0.00043	6e-05	0.00053	0.00035	1e-05	2
6188	-6e-05	4e-05	6e-05	-0.00043	6e-05	0.00053	0.00035	1e-05	2
6189	-6e-05	4e-05	6e-05	-0.00043	6e-05	0.00053	0.00035	1e-05	2
6190	-7e-05	-4e-05	-5e-05	-1e-05	-0.00012	-0.0001	0.00017	-0.00018	2
6191	-0.00017	-4e-05	-8e-05	4e-05	-8e-05	-0.00026	0.00021	-0.00025	2
6192	4e-05	6e-05	0.00019	9e-05	0.00016	-0.00023	-0.00029	-0.00011	2
6193	4e-05	6e-05	0.00019	9e-05	0.00016	-0.00023	-0.00029	-0.00011	2
6194	4e-05	6e-05	0.00019	9e-05	0.00016	-0.00023	-0.00029	-0.00011	2
6195	4e-05	6e-05	0.00019	9e-05	0.00016	-0.00023	-0.00029	-0.00011	2
6196	4e-05	6e-05	0.00019	9e-05	0.00016	-0.00023	-0.00029	-0.00011	2
6197	4e-05	6e-05	0.00019	9e-05	0.00016	-0.00023	-0.00029	-0.00011	2
6198	4e-05	6e-05	0.00019	9e-05	0.00016	-0.00023	-0.00029	-0.00011	2
6199	4e-05	6e-05	0.00019	9e-05	0.00016	-0.00023	-0.00029	-0.00011	2
6200	4e-05	6e-05	0.00019	9e-05	0.00016	-0.00023	-0.00029	-0.00011	2
6201	4e-05	6e-05	0.00019	9e-05	0.00016	-0.00023	-0.00029	-0.00011	2
6202	4e-05	6e-05	0.00019	9e-05	0.00016	-0.00023	-0.00029	-0.00011	2
6203	4e-05	6e-05	0.00019	9e-05	0.00016	-0.00023	-0.00029	-0.00011	2
6204	4e-05	6e-05	0.00019	9e-05	0.00016	-0.00023	-0.00029	-0.00011	2
6205	-3e-05	-6e-05	-7e-05	0	-9e-05	0	4e-05	7e-05	2
6206	4e-05	4e-05	-3e-05	-0.00088	-9e-05	-0.00034	-0.0007	3e-05	2
6207	0	-5e-05	0	-7e-05	-6e-05	-0.00038	-0.00102	-0.0002	2
6208	0	-5e-05	0	-7e-05	-6e-05	-0.00038	-0.00102	-0.0002	2
6209	0	-5e-05	0	-7e-05	-6e-05	-0.00038	-0.00102	-0.0002	2
6210	0	-5e-05	0	-7e-05	-6e-05	-0.00038	-0.00102	-0.0002	2
6211	0	-5e-05	0	-7e-05	-6e-05	-0.00038	-0.00102	-0.0002	2
6212	0	-5e-05	0	-7e-05	-6e-05	-0.00038	-0.00102	-0.0002	2
6213	0	-5e-05	0	-7e-05	-6e-05	-0.00038	-0.00102	-0.0002	2
6214	0	-5e-05	0	-7e-05	-6e-05	-0.00038	-0.00102	-0.0002	2
6215	0	-5e-05	0	-7e-05	-6e-05	-0.00038	-0.00102	-0.0002	2
6216	0	-5e-05	0	-7e-05	-6e-05	-0.00038	-0.00102	-0.0002	2
6217	0	-5e-05	0	-7e-05	-6e-05	-0.00038	-0.00102	-0.0002	2
6218	0	-5e-05	0	-7e-05	-6e-05	-0.00038	-0.00102	-0.0002	2
6219	0	-5e-05	0	-7e-05	-6e-05	-0.00038	-0.00102	-0.0002	2
6220	0	-5e-05	0	-7e-05	-6e-05	-0.00038	-0.00102	-0.0002	2
6221	0	-5e-05	0	-7e-05	-6e-05	-0.00038	-0.00102	-0.0002	2
6222	0	-5e-05	0	-7e-05	-6e-05	-0.00038	-0.00102	-0.0002	2
6223	0	-5e-05	0	-7e-05	-6e-05	-0.00038	-0.00102	-0.0002	2
6224	0	-5e-05	0	-7e-05	-6e-05	-0.00038	-0.00102	-0.0002	2
6225	0	-5e-05	0	-7e-05	-6e-05	-0.00038	-0.00102	-0.0002	2
6226	0	-5e-05	0	-7e-05	-6e-05	-0.00038	-0.00102	-0.0002	2
6227	0	-5e-05	0	-7e-05	-6e-05	-0.00038	-0.00102	-0.0002	2
6228	0.00012	7e-05	0.0001	0.00022	-5e-05	0.00011	0.00053	-2e-05	2
6229	-0.00017	-0.00015	-0.00021	-0.0002	0.00014	-0.0002	-0.00099	-0.00043	2
6230	-6e-05	1e-05	-8e-05	-0.00027	-0.00023	0.00058	0.00039	0.00017	2
6231	-6e-05	1e-05	-8e-05	-0.00027	-0.00023	0.00058	0.00039	0.00017	2
6232	-6e-05	1e-05	-8e-05	-0.00027	-0.00023	0.00058	0.00039	0.00017	2
6233	-6e-05	1e-05	-8e-05	-0.00027	-0.00023	0.00058	0.00039	0.00017	2
6234	-6e-05	1e-05	-8e-05	-0.00027	-0.00023	0.00058	0.00039	0.00017	2
6235	-6e-05	1e-05	-8e-05	-0.00027	-0.00023	0.00058	0.00039	0.00017	2
6236	-6e-05	1e-05	-8e-05	-0.00027	-0.00023	0.00058	0.00039	0.00017	2
6238	-6e-05	1e-05	-8e-05	-0.00027	-0.00023	0.00058	0.00039	0.00017	2
6239	-6e-05	1e-05	-8e-05	-0.00027	-0.00023	0.00058	0.00039	0.00017	2
6240	-6e-05	1e-05	-8e-05	-0.00027	-0.00023	0.00058	0.00039	0.00017	2
6241	-6e-05	1e-05	-8e-05	-0.00027	-0.00023	0.00058	0.00039	0.00017	2
6242	-6e-05	1e-05	-8e-05	-0.00027	-0.00023	0.00058	0.00039	0.00017	2
6243	-6e-05	1e-05	-8e-05	-0.00027	-0.00023	0.00058	0.00039	0.00017	2
6244	-6e-05	1e-05	-8e-05	-0.00027	-0.00023	0.00058	0.00039	0.00017	2
6245	-6e-05	1e-05	-8e-05	-0.00027	-0.00023	0.00058	0.00039	0.00017	2
6246	-6e-05	1e-05	-8e-05	-0.00027	-0.00023	0.00058	0.00039	0.00017	2
6247	-6e-05	1e-05	-8e-05	-0.00027	-0.00023	0.00058	0.00039	0.00017	2
6248	-6e-05	1e-05	-8e-05	-0.00027	-0.00023	0.00058	0.00039	0.00017	2
6249	-6e-05	1e-05	-8e-05	-0.00027	-0.00023	0.00058	0.00039	0.00017	2
6250	-8e-05	6e-05	0.00025	0.00058	0.00015	-0.00021	-0.00096	-0.00028	2
6251	-5e-05	2e-05	1e-05	-0.0004	0.00029	0.00015	4e-05	-0.00015	2
6252	4e-05	-3e-05	0.0001	0.00048	0.00027	0.00037	0.00077	0.0002	2
6253	4e-05	-3e-05	0.0001	0.00048	0.00027	0.00037	0.00077	0.0002	2
6254	4e-05	-3e-05	0.0001	0.00048	0.00027	0.00037	0.00077	0.0002	2
6255	4e-05	-3e-05	0.0001	0.00048	0.00027	0.00037	0.00077	0.0002	2
6256	4e-05	-3e-05	0.0001	0.00048	0.00027	0.00037	0.00077	0.0002	2
6257	4e-05	-3e-05	0.0001	0.00048	0.00027	0.00037	0.00077	0.0002	2
6258	4e-05	-3e-05	0.0001	0.00048	0.00027	0.00037	0.00077	0.0002	2
6259	4e-05	-3e-05	0.0001	0.00048	0.00027	0.00037	0.00077	0.0002	2
6260	4e-05	-3e-05	0.0001	0.00048	0.00027	0.00037	0.00077	0.0002	2
6261	4e-05	-3e-05	0.0001	0.00048	0.00027	0.00037	0.00077	0.0002	2
6262	4e-05	-3e-05	0.0001	0.00048	0.00027	0.00037	0.00077	0.0002	2
6263	4e-05	-3e-05	0.0001	0.00048	0.00027	0.00037	0.00077	0.0002	2
6264	4e-05	-3e-05	0.0001	0.00048	0.00027	0.00037	0.00077	0.0002	2
6265	0.00019	2e-05	-0.00012	-0.00022	0.00013	0.00015	0.00101	0.00042	2
6266	-0.00076	-0.00024	-0.00013	-0.00016	-0.00018	-0.00042	-0.00091	-0.00078	2
6267	-7e-05	-1e-05	3e-05	0.00018	8e-05	-0.00054	-0.00033	-0.00013	2
6268	-7e-05	-1e-05	3e-05	0.00018	8e-05	-0.00054	-0.00033	-0.00013	2
6269	-7e-05	-1e-05	3e-05	0.00018	8e-05	-0.00054	-0.00033	-0.00013	2
6270	-7e-05	-1e-05	3e-05	0.00018	8e-05	-0.00054	-0.00033	-0.00013	2
6271	-7e-05	-1e-05	3e-05	0.00018	8e-05	-0.00054	-0.00033	-0.00013	2
6272	-7e-05	-1e-05	3e-05	0.00018	8e-05	-0.00054	-0.00033	-0.00013	2
6273	-7e-05	-1e-05	3e-05	0.00018	8e-05	-0.00054	-0.00033	-0.00013	2
6274	-7e-05	-1e-05	3e-05	0.00018	8e-05	-0.00054	-0.00033	-0.00013	2
6275	-7e-05	-1e-05	3e-05	0.00018	8e-05	-0.00054	-0.00033	-0.00013	2
6276	-7e-05	-1e-05	3e-05	0.00018	8e-05	-0.00054	-0.00033	-0.00013	2
6277	-7e-05	-1e-05	3e-05	0.00018	8e-05	-0.00054	-0.00033	-0.00013	2
6278	-7e-05	-1e-05	3e-05	0.00018	8e-05	-0.00054	-0.00033	-0.00013	2
6279	-7e-05	-1e-05	3e-05	0.00018	8e-05	-0.00054	-0.00033	-0.00013	2
6280	-7e-05	-1e-05	3e-05	0.00018	8e-05	-0.00054	-0.00033	-0.00013	2
6281	-7e-05	-1e-05	3e-05	0.00018	8e-05	-0.00054	-0.00033	-0.00013	2
6282	-7e-05	-1e-05	3e-05	0.00018	8e-05	-0.00054	-0.00033	-0.00013	2
6283	-7e-05	-1e-05	3e-05	0.00018	8e-05	-0.00054	-0.00033	-0.00013	2
6284	-7e-05	-1e-05	3e-05	0.00018	8e-05	-0.00054	-0.00033	-0.00013	2
6285	-7e-05	-1e-05	3e-05	0.00018	8e-05	-0.00054	-0.00033	-0.00013	2
6286	-7e-05	-1e-05	3e-05	0.00018	8e-05	-0.00054	-0.00033	-0.00013	2
6288	-0.00015	-0.00011	-7e-05	0.00039	2e-05	-9e-05	-0.00038	9e-05	2
6289	8e-05	7e-05	8e-05	-0.00027	-0.00018	-5e-05	0.0009	0.00012	2
6290	-6e-05	-4e-05	-1e-05	-0.00016	2e-05	-0.00033	0.00043	-4e-05	2
6291	-6e-05	-4e-05	-1e-05	-0.00016	2e-05	-0.00033	0.00043	-4e-05	2
6292	-6e-05	-4e-05	-1e-05	-0.00016	2e-05	-0.00033	0.00043	-4e-05	2
6293	-6e-05	-4e-05	-1e-05	-0.00016	2e-05	-0.00033	0.00043	-4e-05	2
6294	-6e-05	-4e-05	-1e-05	-0.00016	2e-05	-0.00033	0.00043	-4e-05	2
6295	-6e-05	-4e-05	-1e-05	-0.00016	2e-05	-0.00033	0.00043	-4e-05	2
6296	-6e-05	-4e-05	-1e-05	-0.00016	2e-05	-0.00033	0.00043	-4e-05	2
6297	-6e-05	-4e-05	-1e-05	-0.00016	2e-05	-0.00033	0.00043	-4e-05	2
6298	-6e-05	-4e-05	-1e-05	-0.00016	2e-05	-0.00033	0.00043	-4e-05	2
6299	-6e-05	-4e-05	-1e-05	-0.00016	2e-05	-0.00033	0.00043	-4e-05	2
6300	-6e-05	-4e-05	-1e-05	-0.00016	2e-05	-0.00033	0.00043	-4e-05	2
6301	-6e-05	-4e-05	-1e-05	-0.00016	2e-05	-0.00033	0.00043	-4e-05	2
6302	-6e-05	-4e-05	-1e-05	-0.00016	2e-05	-0.00033	0.00043	-4e-05	2
6303	-6e-05	-4e-05	-1e-05	-0.00016	2e-05	-0.00033	0.00043	-4e-05	2
6304	-6e-05	-4e-05	-1e-05	-0.00016	2e-05	-0.00033	0.00043	-4e-05	2
6305	-6e-05	-4e-05	-1e-05	-0.00016	2e-05	-0.00033	0.00043	-4e-05	2
6306	-6e-05	-4e-05	-1e-05	-0.00016	2e-05	-0.00033	0.00043	-4e-05	2
6307	-6e-05	-4e-05	-1e-05	-0.00016	2e-05	-0.00033	0.00043	-4e-05	2
6308	-6e-05	-4e-05	-1e-05	-0.00016	2e-05	-0.00033	0.00043	-4e-05	2
6309	-6e-05	-4e-05	-1e-05	-0.00016	2e-05	-0.00033	0.00043	-4e-05	2
6310	-6e-05	-4e-05	-1e-05	-0.00016	2e-05	-0.00033	0.00043	-4e-05	2
6311	0.00024	0	-0.00015	0.00011	-4e-05	0.00025	0.00115	0.00041	2
6312	7e-05	2e-05	4e-05	-0.00019	-8e-05	-0.0002	0.00041	-0.00014	2
6313	7e-05	2e-05	4e-05	-0.00019	-8e-05	-0.0002	0.00041	-0.00014	2
6314	7e-05	2e-05	4e-05	-0.00019	-8e-05	-0.0002	0.00041	-0.00014	2
6315	7e-05	2e-05	4e-05	-0.00019	-8e-05	-0.0002	0.00041	-0.00014	2
6316	7e-05	2e-05	4e-05	-0.00019	-8e-05	-0.0002	0.00041	-0.00014	2
6317	7e-05	2e-05	4e-05	-0.00019	-8e-05	-0.0002	0.00041	-0.00014	2
6318	7e-05	2e-05	4e-05	-0.00019	-8e-05	-0.0002	0.00041	-0.00014	2
6319	7e-05	2e-05	4e-05	-0.00019	-8e-05	-0.0002	0.00041	-0.00014	2
6320	7e-05	2e-05	4e-05	-0.00019	-8e-05	-0.0002	0.00041	-0.00014	2
6321	7e-05	2e-05	4e-05	-0.00019	-8e-05	-0.0002	0.00041	-0.00014	2
6322	7e-05	2e-05	4e-05	-0.00019	-8e-05	-0.0002	0.00041	-0.00014	2
6323	7e-05	2e-05	4e-05	-0.00019	-8e-05	-0.0002	0.00041	-0.00014	2
6324	7e-05	2e-05	4e-05	-0.00019	-8e-05	-0.0002	0.00041	-0.00014	2
6325	-7e-05	-5e-05	-0.00014	-1e-05	-1e-05	0.00042	0.00073	4e-05	2
6326	7e-05	6e-05	0.00013	-0.00039	-3e-05	0.00041	-0.00035	0.00042	2
6327	-4e-05	2e-05	-3e-05	0.00038	-0.00014	-0.00012	-0.00035	-6e-05	2
6328	0.00014	6e-05	7e-05	7e-05	0.0002	-0.0001	0.00019	0.00024	2
6329	0.00014	6e-05	7e-05	7e-05	0.0002	-0.0001	0.00019	0.00024	2
6330	0.00014	6e-05	7e-05	7e-05	0.0002	-0.0001	0.00019	0.00024	2
6331	0.00014	6e-05	7e-05	7e-05	0.0002	-0.0001	0.00019	0.00024	2
6332	0.00014	6e-05	7e-05	7e-05	0.0002	-0.0001	0.00019	0.00024	2
6333	0.00014	6e-05	7e-05	7e-05	0.0002	-0.0001	0.00019	0.00024	2
6334	0.00014	6e-05	7e-05	7e-05	0.0002	-0.0001	0.00019	0.00024	2
6335	0.00014	6e-05	7e-05	7e-05	0.0002	-0.0001	0.00019	0.00024	2
6336	0.00014	6e-05	7e-05	7e-05	0.0002	-0.0001	0.00019	0.00024	2
6338	0.00014	6e-05	7e-05	7e-05	0.0002	-0.0001	0.00019	0.00024	2
6339	0.00014	6e-05	7e-05	7e-05	0.0002	-0.0001	0.00019	0.00024	2
6340	0.00014	6e-05	7e-05	7e-05	0.0002	-0.0001	0.00019	0.00024	2
6341	0.00014	6e-05	7e-05	7e-05	0.0002	-0.0001	0.00019	0.00024	2
6342	0.00014	6e-05	7e-05	7e-05	0.0002	-0.0001	0.00019	0.00024	2
6343	0.00014	6e-05	7e-05	7e-05	0.0002	-0.0001	0.00019	0.00024	2
6344	0.00014	6e-05	7e-05	7e-05	0.0002	-0.0001	0.00019	0.00024	2
6345	0.00014	6e-05	7e-05	7e-05	0.0002	-0.0001	0.00019	0.00024	2
6346	0.00014	6e-05	7e-05	7e-05	0.0002	-0.0001	0.00019	0.00024	2
6347	0.00014	6e-05	7e-05	7e-05	0.0002	-0.0001	0.00019	0.00024	2
6348	0.00014	-4e-05	0	0.00012	5e-05	2e-05	-0.00019	-9e-05	2
6349	-0.00036	-4e-05	5e-05	0.00039	0.00034	0.00025	0.00051	-0.00012	2
6350	-6e-05	-2e-05	0	-0.00071	-0.00048	-0.00023	-0.00082	-0.00011	2
6351	-6e-05	-2e-05	0	-0.00071	-0.00048	-0.00023	-0.00082	-0.00011	2
6352	-6e-05	-2e-05	0	-0.00071	-0.00048	-0.00023	-0.00082	-0.00011	2
6353	-6e-05	-2e-05	0	-0.00071	-0.00048	-0.00023	-0.00082	-0.00011	2
6354	-6e-05	-2e-05	0	-0.00071	-0.00048	-0.00023	-0.00082	-0.00011	2
6355	-6e-05	-2e-05	0	-0.00071	-0.00048	-0.00023	-0.00082	-0.00011	2
6356	-6e-05	-2e-05	0	-0.00071	-0.00048	-0.00023	-0.00082	-0.00011	2
6357	-6e-05	-2e-05	0	-0.00071	-0.00048	-0.00023	-0.00082	-0.00011	2
6358	-6e-05	-2e-05	0	-0.00071	-0.00048	-0.00023	-0.00082	-0.00011	2
6359	-6e-05	-2e-05	0	-0.00071	-0.00048	-0.00023	-0.00082	-0.00011	2
6360	-6e-05	-2e-05	0	-0.00071	-0.00048	-0.00023	-0.00082	-0.00011	2
6361	-6e-05	-2e-05	0	-0.00071	-0.00048	-0.00023	-0.00082	-0.00011	2
6362	-6e-05	-2e-05	0	-0.00071	-0.00048	-0.00023	-0.00082	-0.00011	2
6363	-6e-05	-2e-05	0	-0.00071	-0.00048	-0.00023	-0.00082	-0.00011	2
6364	-6e-05	-2e-05	0	-0.00071	-0.00048	-0.00023	-0.00082	-0.00011	2
6365	-6e-05	-2e-05	0	-0.00071	-0.00048	-0.00023	-0.00082	-0.00011	2
6366	-6e-05	-2e-05	0	-0.00071	-0.00048	-0.00023	-0.00082	-0.00011	2
6367	-6e-05	-2e-05	0	-0.00071	-0.00048	-0.00023	-0.00082	-0.00011	2
6368	-6e-05	-2e-05	0	-0.00071	-0.00048	-0.00023	-0.00082	-0.00011	2
6369	-6e-05	-2e-05	0	-0.00071	-0.00048	-0.00023	-0.00082	-0.00011	2
6370	-6e-05	-2e-05	0	-0.00071	-0.00048	-0.00023	-0.00082	-0.00011	2
6371	7e-05	0.00012	0.00013	0.00058	0.00032	0.00038	0.00102	0.00027	2
6372	7e-05	0.00012	0.00013	0.00058	0.00032	0.00038	0.00102	0.00027	2
6373	7e-05	0.00012	0.00013	0.00058	0.00032	0.00038	0.00102	0.00027	2
6374	7e-05	0.00012	0.00013	0.00058	0.00032	0.00038	0.00102	0.00027	2
6375	7e-05	0.00012	0.00013	0.00058	0.00032	0.00038	0.00102	0.00027	2
6376	0.00027	2e-05	2e-05	-0.00073	-0.00027	-0.0003	0.00071	0.00034	2
6377	-1e-05	0.00012	0.00011	0.00047	0.00021	-4e-05	-0.00017	-0.00013	2
6378	-1e-05	0.00012	0.00011	0.00047	0.00021	-4e-05	-0.00017	-0.00013	2
6379	-1e-05	0.00012	0.00011	0.00047	0.00021	-4e-05	-0.00017	-0.00013	2
6380	-1e-05	0.00012	0.00011	0.00047	0.00021	-4e-05	-0.00017	-0.00013	2
6381	-1e-05	0.00012	0.00011	0.00047	0.00021	-4e-05	-0.00017	-0.00013	2
6382	-1e-05	0.00012	0.00011	0.00047	0.00021	-4e-05	-0.00017	-0.00013	2
6383	-1e-05	0.00012	0.00011	0.00047	0.00021	-4e-05	-0.00017	-0.00013	2
6384	-1e-05	0.00012	0.00011	0.00047	0.00021	-4e-05	-0.00017	-0.00013	2
6385	-6e-05	-7e-05	-0.0001	-0.0001	-0.00029	-0.00037	0.00031	-0.00017	2
6386	-6e-05	-7e-05	-0.0001	-0.0001	-0.00029	-0.00037	0.00031	-0.00017	2
6388	-6e-05	-7e-05	-0.0001	-0.0001	-0.00029	-0.00037	0.00031	-0.00017	2
6389	-6e-05	-7e-05	-0.0001	-0.0001	-0.00029	-0.00037	0.00031	-0.00017	2
6390	-6e-05	-7e-05	-0.0001	-0.0001	-0.00029	-0.00037	0.00031	-0.00017	2
6391	-0.00014	-0.0001	-0.00012	-6e-05	-0.00021	3e-05	0.00052	9e-05	2
6392	-0.00011	-1e-05	-2e-05	6e-05	0.00028	0.00068	-0.0006	-0.00019	2
6393	-0.00011	-1e-05	-2e-05	6e-05	0.00028	0.00068	-0.0006	-0.00019	2
6394	-0.00011	-1e-05	-2e-05	6e-05	0.00028	0.00068	-0.0006	-0.00019	2
6395	-0.00011	-1e-05	-2e-05	6e-05	0.00028	0.00068	-0.0006	-0.00019	2
6396	-0.00011	-1e-05	-2e-05	6e-05	0.00028	0.00068	-0.0006	-0.00019	2
6397	-0.00011	-1e-05	-2e-05	6e-05	0.00028	0.00068	-0.0006	-0.00019	2
6398	-0.00011	-1e-05	-2e-05	6e-05	0.00028	0.00068	-0.0006	-0.00019	2
6399	-0.00011	-1e-05	-2e-05	6e-05	0.00028	0.00068	-0.0006	-0.00019	2
6400	-0.00011	-1e-05	-2e-05	6e-05	0.00028	0.00068	-0.0006	-0.00019	2
6401	-0.00011	-1e-05	-2e-05	6e-05	0.00028	0.00068	-0.0006	-0.00019	2
6402	-0.00011	-1e-05	-2e-05	6e-05	0.00028	0.00068	-0.0006	-0.00019	2
6403	-0.00011	-1e-05	-2e-05	6e-05	0.00028	0.00068	-0.0006	-0.00019	2
6404	-0.00011	-1e-05	-2e-05	6e-05	0.00028	0.00068	-0.0006	-0.00019	2
6405	-0.00011	-1e-05	-2e-05	6e-05	0.00028	0.00068	-0.0006	-0.00019	2
6406	-0.00011	-1e-05	-2e-05	6e-05	0.00028	0.00068	-0.0006	-0.00019	2
6407	-0.00011	-1e-05	-2e-05	6e-05	0.00028	0.00068	-0.0006	-0.00019	2
6408	-0.00011	-1e-05	-2e-05	6e-05	0.00028	0.00068	-0.0006	-0.00019	2
6409	-0.00011	-1e-05	-2e-05	6e-05	0.00028	0.00068	-0.0006	-0.00019	2
6410	-0.00011	-1e-05	-2e-05	6e-05	0.00028	0.00068	-0.0006	-0.00019	2
6411	-0.00011	-1e-05	-2e-05	6e-05	0.00028	0.00068	-0.0006	-0.00019	2
6412	-0.00011	-1e-05	-2e-05	6e-05	0.00028	0.00068	-0.0006	-0.00019	2
6413	-0.00011	-1e-05	-2e-05	6e-05	0.00028	0.00068	-0.0006	-0.00019	2
6414	-0.00011	-1e-05	-2e-05	6e-05	0.00028	0.00068	-0.0006	-0.00019	2
6415	0.00017	7e-05	2e-05	-0.00014	-8e-05	-0.00035	-0.00036	0.00031	2
6416	3e-05	-7e-05	-8e-05	0	-6e-05	-0.00029	-0.00053	-0.00021	2
6417	6e-05	-2e-05	-0.00025	-0.00042	-0.00021	0.00013	6e-05	-1e-05	2
6418	6e-05	-2e-05	-0.00025	-0.00042	-0.00021	0.00013	6e-05	-1e-05	2
6419	6e-05	-2e-05	-0.00025	-0.00042	-0.00021	0.00013	6e-05	-1e-05	2
6420	6e-05	-2e-05	-0.00025	-0.00042	-0.00021	0.00013	6e-05	-1e-05	2
6421	6e-05	-2e-05	-0.00025	-0.00042	-0.00021	0.00013	6e-05	-1e-05	2
6422	6e-05	-2e-05	-0.00025	-0.00042	-0.00021	0.00013	6e-05	-1e-05	2
6423	6e-05	-2e-05	-0.00025	-0.00042	-0.00021	0.00013	6e-05	-1e-05	2
6424	6e-05	-2e-05	-0.00025	-0.00042	-0.00021	0.00013	6e-05	-1e-05	2
6425	6e-05	-2e-05	-0.00025	-0.00042	-0.00021	0.00013	6e-05	-1e-05	2
6426	6e-05	-2e-05	-0.00025	-0.00042	-0.00021	0.00013	6e-05	-1e-05	2
6427	6e-05	-2e-05	-0.00025	-0.00042	-0.00021	0.00013	6e-05	-1e-05	2
6428	6e-05	-2e-05	-0.00025	-0.00042	-0.00021	0.00013	6e-05	-1e-05	2
6429	6e-05	-2e-05	-0.00025	-0.00042	-0.00021	0.00013	6e-05	-1e-05	2
6430	0	0.0001	0.00027	0.00031	-7e-05	-0.00066	-0.00019	3e-05	2
6431	-1e-05	5e-05	-6e-05	-0.00022	-0.00011	0.00028	0.00061	-2e-05	2
6432	-3e-05	-9e-05	-2e-05	-9e-05	-0.00014	-0.00013	-0.00092	0	2
6433	-3e-05	-9e-05	-2e-05	-9e-05	-0.00014	-0.00013	-0.00092	0	2
6434	-3e-05	-9e-05	-2e-05	-9e-05	-0.00014	-0.00013	-0.00092	0	2
6435	-3e-05	-9e-05	-2e-05	-9e-05	-0.00014	-0.00013	-0.00092	0	2
6436	-3e-05	-9e-05	-2e-05	-9e-05	-0.00014	-0.00013	-0.00092	0	2
6438	-3e-05	-9e-05	-2e-05	-9e-05	-0.00014	-0.00013	-0.00092	0	2
6439	-3e-05	-9e-05	-2e-05	-9e-05	-0.00014	-0.00013	-0.00092	0	2
6440	-3e-05	-9e-05	-2e-05	-9e-05	-0.00014	-0.00013	-0.00092	0	2
6441	-3e-05	-9e-05	-2e-05	-9e-05	-0.00014	-0.00013	-0.00092	0	2
6442	-3e-05	-9e-05	-2e-05	-9e-05	-0.00014	-0.00013	-0.00092	0	2
6443	-3e-05	-9e-05	-2e-05	-9e-05	-0.00014	-0.00013	-0.00092	0	2
6444	-3e-05	-9e-05	-2e-05	-9e-05	-0.00014	-0.00013	-0.00092	0	2
6445	1e-05	3e-05	3e-05	-8e-05	-0.00017	-9e-05	-0.00013	-0.00014	2
6446	1e-05	3e-05	3e-05	-8e-05	-0.00017	-9e-05	-0.00013	-0.00014	2
6447	1e-05	3e-05	3e-05	-8e-05	-0.00017	-9e-05	-0.00013	-0.00014	2
6448	1e-05	3e-05	3e-05	-8e-05	-0.00017	-9e-05	-0.00013	-0.00014	2
6449	1e-05	3e-05	3e-05	-8e-05	-0.00017	-9e-05	-0.00013	-0.00014	2
6450	1e-05	3e-05	3e-05	-8e-05	-0.00017	-9e-05	-0.00013	-0.00014	2
6451	0.00031	2e-05	-1e-05	0	0.0001	0.00036	0.00081	0.00018	2
6452	-0.00051	-1e-05	4e-05	0.00035	-0.00018	-0.00055	0.00039	-0.00028	2
6453	-0.00051	-1e-05	4e-05	0.00035	-0.00018	-0.00055	0.00039	-0.00028	2
6454	-0.00051	-1e-05	4e-05	0.00035	-0.00018	-0.00055	0.00039	-0.00028	2
6455	-0.00051	-1e-05	4e-05	0.00035	-0.00018	-0.00055	0.00039	-0.00028	2
6456	-0.00051	-1e-05	4e-05	0.00035	-0.00018	-0.00055	0.00039	-0.00028	2
6457	-0.00051	-1e-05	4e-05	0.00035	-0.00018	-0.00055	0.00039	-0.00028	2
6458	-0.00051	-1e-05	4e-05	0.00035	-0.00018	-0.00055	0.00039	-0.00028	2
6459	-0.00051	-1e-05	4e-05	0.00035	-0.00018	-0.00055	0.00039	-0.00028	2
6460	-0.00051	-1e-05	4e-05	0.00035	-0.00018	-0.00055	0.00039	-0.00028	2
6461	-0.00051	-1e-05	4e-05	0.00035	-0.00018	-0.00055	0.00039	-0.00028	2
6462	-0.00051	-1e-05	4e-05	0.00035	-0.00018	-0.00055	0.00039	-0.00028	2
6463	-0.00051	-1e-05	4e-05	0.00035	-0.00018	-0.00055	0.00039	-0.00028	2
6464	-0.00051	-1e-05	4e-05	0.00035	-0.00018	-0.00055	0.00039	-0.00028	2
6465	-0.00051	-1e-05	4e-05	0.00035	-0.00018	-0.00055	0.00039	-0.00028	2
6466	-0.00051	-1e-05	4e-05	0.00035	-0.00018	-0.00055	0.00039	-0.00028	2
6467	-0.00051	-1e-05	4e-05	0.00035	-0.00018	-0.00055	0.00039	-0.00028	2
6468	0.00066	0.00015	8e-05	0.00033	5e-05	-0.00079	0.00053	0.00046	2
6469	1e-05	-5e-05	-4e-05	0.00017	0.0001	6e-05	-0.00069	-4e-05	2
6470	1e-05	-5e-05	-4e-05	0.00017	0.0001	6e-05	-0.00069	-4e-05	2
6471	1e-05	-5e-05	-4e-05	0.00017	0.0001	6e-05	-0.00069	-4e-05	2
6472	1e-05	-5e-05	-4e-05	0.00017	0.0001	6e-05	-0.00069	-4e-05	2
6473	1e-05	-5e-05	-4e-05	0.00017	0.0001	6e-05	-0.00069	-4e-05	2
6474	1e-05	-5e-05	-4e-05	0.00017	0.0001	6e-05	-0.00069	-4e-05	2
6475	1e-05	-5e-05	-4e-05	0.00017	0.0001	6e-05	-0.00069	-4e-05	2
6476	1e-05	-5e-05	-4e-05	0.00017	0.0001	6e-05	-0.00069	-4e-05	2
6477	1e-05	-5e-05	-4e-05	0.00017	0.0001	6e-05	-0.00069	-4e-05	2
6478	1e-05	-5e-05	-4e-05	0.00017	0.0001	6e-05	-0.00069	-4e-05	2
6479	1e-05	-5e-05	-4e-05	0.00017	0.0001	6e-05	-0.00069	-4e-05	2
6480	1e-05	-5e-05	-4e-05	0.00017	0.0001	6e-05	-0.00069	-4e-05	2
6481	1e-05	-5e-05	-4e-05	0.00017	0.0001	6e-05	-0.00069	-4e-05	2
6482	1e-05	-5e-05	-4e-05	0.00017	0.0001	6e-05	-0.00069	-4e-05	2
6483	1e-05	-5e-05	-4e-05	0.00017	0.0001	6e-05	-0.00069	-4e-05	2
6484	1e-05	-5e-05	-4e-05	0.00017	0.0001	6e-05	-0.00069	-4e-05	2
6485	1e-05	-5e-05	-4e-05	0.00017	0.0001	6e-05	-0.00069	-4e-05	2
6486	1e-05	-5e-05	-4e-05	0.00017	0.0001	6e-05	-0.00069	-4e-05	2
6488	1e-05	-5e-05	-4e-05	0.00017	0.0001	6e-05	-0.00069	-4e-05	2
6489	1e-05	-5e-05	-4e-05	0.00017	0.0001	6e-05	-0.00069	-4e-05	2
6490	1e-05	-5e-05	-4e-05	0.00017	0.0001	6e-05	-0.00069	-4e-05	2
6491	1e-05	-5e-05	-4e-05	0.00017	0.0001	6e-05	-0.00069	-4e-05	2
6492	1e-05	-5e-05	-4e-05	0.00017	0.0001	6e-05	-0.00069	-4e-05	2
6493	1e-05	-5e-05	-4e-05	0.00017	0.0001	6e-05	-0.00069	-4e-05	2
6494	1e-05	-5e-05	-4e-05	0.00017	0.0001	6e-05	-0.00069	-4e-05	2
6495	1e-05	-5e-05	-4e-05	0.00017	0.0001	6e-05	-0.00069	-4e-05	2
6496	1e-05	-5e-05	-4e-05	0.00017	0.0001	6e-05	-0.00069	-4e-05	2
6497	1e-05	-5e-05	-4e-05	0.00017	0.0001	6e-05	-0.00069	-4e-05	2
6498	-0.00037	-0.0001	-4e-05	4e-05	0.00015	-0.00016	-0.00079	-0.00013	2
6499	8e-05	4e-05	-3e-05	0.00095	-3e-05	0.00022	0.00026	-0.0001	2
6500	0.00015	2e-05	1e-05	-0.0011	-8e-05	-0.00105	8e-05	0.00026	2
6501	0.00015	2e-05	1e-05	-0.0011	-8e-05	-0.00105	8e-05	0.00026	2
6502	0.00015	2e-05	1e-05	-0.0011	-8e-05	-0.00105	8e-05	0.00026	2
6503	0.00015	2e-05	1e-05	-0.0011	-8e-05	-0.00105	8e-05	0.00026	2
6504	0.00015	2e-05	1e-05	-0.0011	-8e-05	-0.00105	8e-05	0.00026	2
6505	-3e-05	2e-05	7e-05	0.00083	0.00037	4e-05	-0.00021	0.00016	2
6506	-3e-05	2e-05	7e-05	0.00083	0.00037	4e-05	-0.00021	0.00016	2
6507	-3e-05	2e-05	7e-05	0.00083	0.00037	4e-05	-0.00021	0.00016	2
6508	-3e-05	2e-05	7e-05	0.00083	0.00037	4e-05	-0.00021	0.00016	2
6509	-3e-05	2e-05	7e-05	0.00083	0.00037	4e-05	-0.00021	0.00016	2
6510	-3e-05	2e-05	7e-05	0.00083	0.00037	4e-05	-0.00021	0.00016	2
6511	-3e-05	2e-05	7e-05	0.00083	0.00037	4e-05	-0.00021	0.00016	2
6512	-0.00024	2e-05	0.00012	0.00044	-0.00022	-0.00032	0.00049	8e-05	2
6513	-0.00024	2e-05	0.00012	0.00044	-0.00022	-0.00032	0.00049	8e-05	2
6514	-0.00024	2e-05	0.00012	0.00044	-0.00022	-0.00032	0.00049	8e-05	2
6515	-0.00024	2e-05	0.00012	0.00044	-0.00022	-0.00032	0.00049	8e-05	2
6516	-0.00024	2e-05	0.00012	0.00044	-0.00022	-0.00032	0.00049	8e-05	2
6517	-0.00024	2e-05	0.00012	0.00044	-0.00022	-0.00032	0.00049	8e-05	2
6518	-0.00024	2e-05	0.00012	0.00044	-0.00022	-0.00032	0.00049	8e-05	2
6519	-0.00024	2e-05	0.00012	0.00044	-0.00022	-0.00032	0.00049	8e-05	2
6520	-0.00024	2e-05	0.00012	0.00044	-0.00022	-0.00032	0.00049	8e-05	2
6521	-0.00024	2e-05	0.00012	0.00044	-0.00022	-0.00032	0.00049	8e-05	2
6522	-0.00024	2e-05	0.00012	0.00044	-0.00022	-0.00032	0.00049	8e-05	2
6523	-0.00024	2e-05	0.00012	0.00044	-0.00022	-0.00032	0.00049	8e-05	2
6524	-0.00024	2e-05	0.00012	0.00044	-0.00022	-0.00032	0.00049	8e-05	2
6525	-0.00024	2e-05	0.00012	0.00044	-0.00022	-0.00032	0.00049	8e-05	2
6526	-0.00024	2e-05	0.00012	0.00044	-0.00022	-0.00032	0.00049	8e-05	2
6527	-0.00024	2e-05	0.00012	0.00044	-0.00022	-0.00032	0.00049	8e-05	2
6528	0.00027	-6e-05	-7e-05	-7e-05	-2e-05	0.00029	7e-05	0.00011	2
6529	-0.00086	1e-05	6e-05	0.00025	6e-05	-0.00012	0.00018	-0.00015	2
6530	0.0001	-2e-05	-5e-05	0.00017	-6e-05	-0.0002	0.00031	0.00013	2
6531	0.0001	-2e-05	-5e-05	0.00017	-6e-05	-0.0002	0.00031	0.00013	2
6532	0.0001	-2e-05	-5e-05	0.00017	-6e-05	-0.0002	0.00031	0.00013	2
6533	0.0001	-2e-05	-5e-05	0.00017	-6e-05	-0.0002	0.00031	0.00013	2
6534	0.0001	-2e-05	-5e-05	0.00017	-6e-05	-0.0002	0.00031	0.00013	2
6535	0.0001	-2e-05	-5e-05	0.00017	-6e-05	-0.0002	0.00031	0.00013	2
6536	0.0001	-2e-05	-5e-05	0.00017	-6e-05	-0.0002	0.00031	0.00013	2
6538	0.0001	-2e-05	-5e-05	0.00017	-6e-05	-0.0002	0.00031	0.00013	2
6539	0.0001	-2e-05	-5e-05	0.00017	-6e-05	-0.0002	0.00031	0.00013	2
6540	0.0001	-2e-05	-5e-05	0.00017	-6e-05	-0.0002	0.00031	0.00013	2
6541	0.0001	-2e-05	-5e-05	0.00017	-6e-05	-0.0002	0.00031	0.00013	2
6542	0.0001	-2e-05	-5e-05	0.00017	-6e-05	-0.0002	0.00031	0.00013	2
6543	0.0001	-2e-05	-5e-05	0.00017	-6e-05	-0.0002	0.00031	0.00013	2
6544	0.0001	-2e-05	-5e-05	0.00017	-6e-05	-0.0002	0.00031	0.00013	2
6545	0.0001	-2e-05	-5e-05	0.00017	-6e-05	-0.0002	0.00031	0.00013	2
6546	0.0001	-2e-05	-5e-05	0.00017	-6e-05	-0.0002	0.00031	0.00013	2
6547	0.0001	-2e-05	-5e-05	0.00017	-6e-05	-0.0002	0.00031	0.00013	2
6548	0.0001	-2e-05	-5e-05	0.00017	-6e-05	-0.0002	0.00031	0.00013	2
6549	0.0001	-2e-05	-5e-05	0.00017	-6e-05	-0.0002	0.00031	0.00013	2
6550	0.00013	-7e-05	-6e-05	-3e-05	0.00026	0.00031	-0.00081	-0.00013	2
6551	-0.00015	-2e-05	-0.00012	-0.00075	-0.0004	-0.00061	0.00046	-6e-05	2
6552	0.00051	-2e-05	-6e-05	7e-05	-0.00025	-8e-05	-0.00015	0.00012	2
6553	0.00051	-2e-05	-6e-05	7e-05	-0.00025	-8e-05	-0.00015	0.00012	2
6554	0.00051	-2e-05	-6e-05	7e-05	-0.00025	-8e-05	-0.00015	0.00012	2
6555	0.00051	-2e-05	-6e-05	7e-05	-0.00025	-8e-05	-0.00015	0.00012	2
6556	0.00051	-2e-05	-6e-05	7e-05	-0.00025	-8e-05	-0.00015	0.00012	2
6557	0.00051	-2e-05	-6e-05	7e-05	-0.00025	-8e-05	-0.00015	0.00012	2
6558	0.00051	-2e-05	-6e-05	7e-05	-0.00025	-8e-05	-0.00015	0.00012	2
6559	0.00051	-2e-05	-6e-05	7e-05	-0.00025	-8e-05	-0.00015	0.00012	2
6560	0.00051	-2e-05	-6e-05	7e-05	-0.00025	-8e-05	-0.00015	0.00012	2
6561	0.00051	-2e-05	-6e-05	7e-05	-0.00025	-8e-05	-0.00015	0.00012	2
6562	0.00051	-2e-05	-6e-05	7e-05	-0.00025	-8e-05	-0.00015	0.00012	2
6563	0.00051	-2e-05	-6e-05	7e-05	-0.00025	-8e-05	-0.00015	0.00012	2
6564	0.00051	-2e-05	-6e-05	7e-05	-0.00025	-8e-05	-0.00015	0.00012	2
6565	-0.00022	-1e-05	0.00012	-0.0001	0.0001	2e-05	-0.00096	-0.00018	2
6566	-0.00022	-1e-05	0.00012	-0.0001	0.0001	2e-05	-0.00096	-0.00018	2
6567	-0.00022	-1e-05	0.00012	-0.0001	0.0001	2e-05	-0.00096	-0.00018	2
6568	-0.00022	-1e-05	0.00012	-0.0001	0.0001	2e-05	-0.00096	-0.00018	2
6569	-0.00022	-1e-05	0.00012	-0.0001	0.0001	2e-05	-0.00096	-0.00018	2
6570	-0.00022	-1e-05	0.00012	-0.0001	0.0001	2e-05	-0.00096	-0.00018	2
6571	-2e-05	-2e-05	-0.00015	-0.00097	-0.00022	-0.00076	8e-05	-7e-05	2
6572	-9e-05	-0.00018	-0.00012	0.00073	0.00032	-0.0007	0.00103	6e-05	2
6573	-9e-05	-0.00018	-0.00012	0.00073	0.00032	-0.0007	0.00103	6e-05	2
6574	-9e-05	-0.00018	-0.00012	0.00073	0.00032	-0.0007	0.00103	6e-05	2
6575	-9e-05	-0.00018	-0.00012	0.00073	0.00032	-0.0007	0.00103	6e-05	2
6576	-9e-05	-0.00018	-0.00012	0.00073	0.00032	-0.0007	0.00103	6e-05	2
6577	-9e-05	-0.00018	-0.00012	0.00073	0.00032	-0.0007	0.00103	6e-05	2
6578	-9e-05	-0.00018	-0.00012	0.00073	0.00032	-0.0007	0.00103	6e-05	2
6579	-9e-05	-0.00018	-0.00012	0.00073	0.00032	-0.0007	0.00103	6e-05	2
6580	-9e-05	-0.00018	-0.00012	0.00073	0.00032	-0.0007	0.00103	6e-05	2
6581	-9e-05	-0.00018	-0.00012	0.00073	0.00032	-0.0007	0.00103	6e-05	2
6582	-9e-05	-0.00018	-0.00012	0.00073	0.00032	-0.0007	0.00103	6e-05	2
6583	-9e-05	-0.00018	-0.00012	0.00073	0.00032	-0.0007	0.00103	6e-05	2
6584	-9e-05	-0.00018	-0.00012	0.00073	0.00032	-0.0007	0.00103	6e-05	2
6585	-9e-05	-0.00018	-0.00012	0.00073	0.00032	-0.0007	0.00103	6e-05	2
6586	-9e-05	-0.00018	-0.00012	0.00073	0.00032	-0.0007	0.00103	6e-05	2
6588	9e-05	-1e-05	1e-05	0.00042	-3e-05	-0.00012	-0.00114	-0.00026	2
6589	-0.00041	7e-05	0.00016	-0.00012	0.00029	6e-05	-0.00107	-0.00021	2
6590	0.00024	-3e-05	-0.00021	-0.00041	8e-05	-0.00064	-7e-05	0.00047	2
6591	0.00024	-3e-05	-0.00021	-0.00041	8e-05	-0.00064	-7e-05	0.00047	2
6592	0.00024	-3e-05	-0.00021	-0.00041	8e-05	-0.00064	-7e-05	0.00047	2
6593	0.00024	-3e-05	-0.00021	-0.00041	8e-05	-0.00064	-7e-05	0.00047	2
6594	0.00024	-3e-05	-0.00021	-0.00041	8e-05	-0.00064	-7e-05	0.00047	2
6595	0.00024	-3e-05	-0.00021	-0.00041	8e-05	-0.00064	-7e-05	0.00047	2
6596	0.00024	-3e-05	-0.00021	-0.00041	8e-05	-0.00064	-7e-05	0.00047	2
6597	0.00024	-3e-05	-0.00021	-0.00041	8e-05	-0.00064	-7e-05	0.00047	2
6598	0.00024	-3e-05	-0.00021	-0.00041	8e-05	-0.00064	-7e-05	0.00047	2
6599	0.00024	-3e-05	-0.00021	-0.00041	8e-05	-0.00064	-7e-05	0.00047	2
6600	0.00024	-3e-05	-0.00021	-0.00041	8e-05	-0.00064	-7e-05	0.00047	2
6601	0.00024	-3e-05	-0.00021	-0.00041	8e-05	-0.00064	-7e-05	0.00047	2
6602	0.00024	-3e-05	-0.00021	-0.00041	8e-05	-0.00064	-7e-05	0.00047	2
6603	0.00024	-3e-05	-0.00021	-0.00041	8e-05	-0.00064	-7e-05	0.00047	2
6604	0.00024	-3e-05	-0.00021	-0.00041	8e-05	-0.00064	-7e-05	0.00047	2
6605	0.00024	-3e-05	-0.00021	-0.00041	8e-05	-0.00064	-7e-05	0.00047	2
6606	0.00024	-3e-05	-0.00021	-0.00041	8e-05	-0.00064	-7e-05	0.00047	2
6607	0.00024	-3e-05	-0.00021	-0.00041	8e-05	-0.00064	-7e-05	0.00047	2
6608	0.00024	-3e-05	-0.00021	-0.00041	8e-05	-0.00064	-7e-05	0.00047	2
6609	-0.00012	-8e-05	-1e-05	-3e-05	0.00018	0.00032	0.00013	-0.00036	2
6610	-0.00031	-0.0001	-0.00019	-0.00075	-0.00021	-0.00026	0.00016	0.0002	2
6611	-0.00031	-0.0001	-0.00019	-0.00075	-0.00021	-0.00026	0.00016	0.0002	2
6612	-0.00031	-0.0001	-0.00019	-0.00075	-0.00021	-0.00026	0.00016	0.0002	2
6613	-0.00031	-0.0001	-0.00019	-0.00075	-0.00021	-0.00026	0.00016	0.0002	2
6614	-0.00031	-0.0001	-0.00019	-0.00075	-0.00021	-0.00026	0.00016	0.0002	2
6615	-0.00031	-0.0001	-0.00019	-0.00075	-0.00021	-0.00026	0.00016	0.0002	2
6616	-0.00031	-0.0001	-0.00019	-0.00075	-0.00021	-0.00026	0.00016	0.0002	2
6617	-0.00031	-0.0001	-0.00019	-0.00075	-0.00021	-0.00026	0.00016	0.0002	2
6618	-0.0001	3e-05	0.00012	-0.00054	-0.00019	0.00013	0.00064	-0.00019	2
6619	-0.0001	3e-05	0.00012	-0.00054	-0.00019	0.00013	0.00064	-0.00019	2
6620	-0.0001	3e-05	0.00012	-0.00054	-0.00019	0.00013	0.00064	-0.00019	2
6621	-0.0001	3e-05	0.00012	-0.00054	-0.00019	0.00013	0.00064	-0.00019	2
6622	-0.0001	3e-05	0.00012	-0.00054	-0.00019	0.00013	0.00064	-0.00019	2
6623	-0.0001	3e-05	0.00012	-0.00054	-0.00019	0.00013	0.00064	-0.00019	2
6624	-0.0001	3e-05	0.00012	-0.00054	-0.00019	0.00013	0.00064	-0.00019	2
6625	-0.00024	-0.00011	-7e-05	-0.00109	9e-05	-0.00034	-0.00077	-0.00026	2
6626	-0.00024	-0.00011	-7e-05	-0.00109	9e-05	-0.00034	-0.00077	-0.00026	2
6627	-0.00024	-0.00011	-7e-05	-0.00109	9e-05	-0.00034	-0.00077	-0.00026	2
6628	-0.00024	-0.00011	-7e-05	-0.00109	9e-05	-0.00034	-0.00077	-0.00026	2
6629	-0.00024	-0.00011	-7e-05	-0.00109	9e-05	-0.00034	-0.00077	-0.00026	2
6630	-0.00024	-0.00011	-7e-05	-0.00109	9e-05	-0.00034	-0.00077	-0.00026	2
6631	0.00033	8e-05	1e-05	0.00053	-0.00015	-0.00024	-0.00098	-0.00025	2
6632	5e-05	-5e-05	-2e-05	-0.00024	0.00026	0.00092	0.00018	8e-05	2
6633	5e-05	-5e-05	-2e-05	-0.00024	0.00026	0.00092	0.00018	8e-05	2
6634	5e-05	-5e-05	-2e-05	-0.00024	0.00026	0.00092	0.00018	8e-05	2
6635	5e-05	-5e-05	-2e-05	-0.00024	0.00026	0.00092	0.00018	8e-05	2
6636	5e-05	-5e-05	-2e-05	-0.00024	0.00026	0.00092	0.00018	8e-05	2
6638	5e-05	-5e-05	-2e-05	-0.00024	0.00026	0.00092	0.00018	8e-05	2
6639	5e-05	-5e-05	-2e-05	-0.00024	0.00026	0.00092	0.00018	8e-05	2
6640	5e-05	-5e-05	-2e-05	-0.00024	0.00026	0.00092	0.00018	8e-05	2
6641	5e-05	-5e-05	-2e-05	-0.00024	0.00026	0.00092	0.00018	8e-05	2
6642	5e-05	-5e-05	-2e-05	-0.00024	0.00026	0.00092	0.00018	8e-05	2
6643	5e-05	-5e-05	-2e-05	-0.00024	0.00026	0.00092	0.00018	8e-05	2
6644	5e-05	-5e-05	-2e-05	-0.00024	0.00026	0.00092	0.00018	8e-05	2
6645	5e-05	-5e-05	-2e-05	-0.00024	0.00026	0.00092	0.00018	8e-05	2
6646	5e-05	-5e-05	-2e-05	-0.00024	0.00026	0.00092	0.00018	8e-05	2
6647	5e-05	-5e-05	-2e-05	-0.00024	0.00026	0.00092	0.00018	8e-05	2
6648	5e-05	-5e-05	-2e-05	-0.00024	0.00026	0.00092	0.00018	8e-05	2
6649	5e-05	-5e-05	-2e-05	-0.00024	0.00026	0.00092	0.00018	8e-05	2
6650	5e-05	-5e-05	-2e-05	-0.00024	0.00026	0.00092	0.00018	8e-05	2
6651	5e-05	-5e-05	-2e-05	-0.00024	0.00026	0.00092	0.00018	8e-05	2
6652	5e-05	-5e-05	-2e-05	-0.00024	0.00026	0.00092	0.00018	8e-05	2
6653	5e-05	-5e-05	-2e-05	-0.00024	0.00026	0.00092	0.00018	8e-05	2
6654	5e-05	-5e-05	-2e-05	-0.00024	0.00026	0.00092	0.00018	8e-05	2
6655	-2e-05	-0.00012	-0.00013	0.00025	-0.00017	-0.00093	-3e-05	-2e-05	2
6656	2e-05	2e-05	7e-05	4e-05	-6e-05	0.0006	0.00017	4e-05	2
6657	-9e-05	8e-05	-0.00011	-0.00082	-0.00013	0.00113	0.00062	2e-05	2
6658	-9e-05	8e-05	-0.00011	-0.00082	-0.00013	0.00113	0.00062	2e-05	2
6659	-9e-05	8e-05	-0.00011	-0.00082	-0.00013	0.00113	0.00062	2e-05	2
6660	-9e-05	8e-05	-0.00011	-0.00082	-0.00013	0.00113	0.00062	2e-05	2
6661	-9e-05	8e-05	-0.00011	-0.00082	-0.00013	0.00113	0.00062	2e-05	2
6662	-9e-05	8e-05	-0.00011	-0.00082	-0.00013	0.00113	0.00062	2e-05	2
6663	-9e-05	8e-05	-0.00011	-0.00082	-0.00013	0.00113	0.00062	2e-05	2
6664	-9e-05	8e-05	-0.00011	-0.00082	-0.00013	0.00113	0.00062	2e-05	2
6665	-9e-05	8e-05	-0.00011	-0.00082	-0.00013	0.00113	0.00062	2e-05	2
6666	-9e-05	8e-05	-0.00011	-0.00082	-0.00013	0.00113	0.00062	2e-05	2
6667	-9e-05	8e-05	-0.00011	-0.00082	-0.00013	0.00113	0.00062	2e-05	2
6668	-9e-05	8e-05	-0.00011	-0.00082	-0.00013	0.00113	0.00062	2e-05	2
6669	-9e-05	8e-05	-0.00011	-0.00082	-0.00013	0.00113	0.00062	2e-05	2
6670	-0.00024	-0.00014	-3e-05	0.00077	0.00016	-0.00098	-0.00041	0.00013	2
6671	2e-05	4e-05	9e-05	-0.00092	-3e-05	-0.0004	0.00063	-0.00032	2
6672	0.00019	3e-05	-8e-05	0.00043	0.00021	0.00041	-0.00127	3e-05	2
6673	0.00019	3e-05	-8e-05	0.00043	0.00021	0.00041	-0.00127	3e-05	2
6674	0.00019	3e-05	-8e-05	0.00043	0.00021	0.00041	-0.00127	3e-05	2
6675	0.00019	3e-05	-8e-05	0.00043	0.00021	0.00041	-0.00127	3e-05	2
6676	0.00019	3e-05	-8e-05	0.00043	0.00021	0.00041	-0.00127	3e-05	2
6677	0.00019	3e-05	-8e-05	0.00043	0.00021	0.00041	-0.00127	3e-05	2
6678	0.00019	3e-05	-8e-05	0.00043	0.00021	0.00041	-0.00127	3e-05	2
6679	0.00019	3e-05	-8e-05	0.00043	0.00021	0.00041	-0.00127	3e-05	2
6680	0.00019	3e-05	-8e-05	0.00043	0.00021	0.00041	-0.00127	3e-05	2
6681	0.00019	3e-05	-8e-05	0.00043	0.00021	0.00041	-0.00127	3e-05	2
6682	0.00019	3e-05	-8e-05	0.00043	0.00021	0.00041	-0.00127	3e-05	2
6683	0.00019	3e-05	-8e-05	0.00043	0.00021	0.00041	-0.00127	3e-05	2
6684	0.00035	0.00015	2e-05	0.00077	0.00016	-0.00031	0.00061	0.00021	2
6685	0.00035	0.00015	2e-05	0.00077	0.00016	-0.00031	0.00061	0.00021	2
6686	0.00035	0.00015	2e-05	0.00077	0.00016	-0.00031	0.00061	0.00021	2
6688	0.00035	0.00015	2e-05	0.00077	0.00016	-0.00031	0.00061	0.00021	2
6689	0.00035	0.00015	2e-05	0.00077	0.00016	-0.00031	0.00061	0.00021	2
6690	0.00035	0.00015	2e-05	0.00077	0.00016	-0.00031	0.00061	0.00021	2
6691	0.00035	0.00015	2e-05	0.00077	0.00016	-0.00031	0.00061	0.00021	2
6692	0.00035	0.00015	2e-05	0.00077	0.00016	-0.00031	0.00061	0.00021	2
6693	0.00034	4e-05	-0.00017	0.00021	-0.00016	0.00034	0.00028	3e-05	2
6694	0.00034	4e-05	-0.00017	0.00021	-0.00016	0.00034	0.00028	3e-05	2
6695	0.00034	4e-05	-0.00017	0.00021	-0.00016	0.00034	0.00028	3e-05	2
6696	0.00034	4e-05	-0.00017	0.00021	-0.00016	0.00034	0.00028	3e-05	2
6697	0.00034	4e-05	-0.00017	0.00021	-0.00016	0.00034	0.00028	3e-05	2
6698	0.00034	4e-05	-0.00017	0.00021	-0.00016	0.00034	0.00028	3e-05	2
6699	0.00034	4e-05	-0.00017	0.00021	-0.00016	0.00034	0.00028	3e-05	2
6700	0.00034	4e-05	-0.00017	0.00021	-0.00016	0.00034	0.00028	3e-05	2
6701	0.00034	4e-05	-0.00017	0.00021	-0.00016	0.00034	0.00028	3e-05	2
6702	0.00034	4e-05	-0.00017	0.00021	-0.00016	0.00034	0.00028	3e-05	2
6703	0.00034	4e-05	-0.00017	0.00021	-0.00016	0.00034	0.00028	3e-05	2
6704	0.00034	4e-05	-0.00017	0.00021	-0.00016	0.00034	0.00028	3e-05	2
6705	0.00034	4e-05	-0.00017	0.00021	-0.00016	0.00034	0.00028	3e-05	2
6706	0.00034	4e-05	-0.00017	0.00021	-0.00016	0.00034	0.00028	3e-05	2
6707	0.00034	4e-05	-0.00017	0.00021	-0.00016	0.00034	0.00028	3e-05	2
6708	-0.00023	-0.00012	5e-05	0.00127	0.00054	0.0001	-0.00045	-3e-05	2
6709	0.00011	-5e-05	-0.00016	-0.00029	-9e-05	-0.00085	2e-05	9e-05	2
6710	-0.00025	1e-05	0.00016	-0.0003	-0.00028	0.0004	0.0003	-0.0003	2
6711	-0.00025	1e-05	0.00016	-0.0003	-0.00028	0.0004	0.0003	-0.0003	2
6712	-0.00025	1e-05	0.00016	-0.0003	-0.00028	0.0004	0.0003	-0.0003	2
6713	-0.00025	1e-05	0.00016	-0.0003	-0.00028	0.0004	0.0003	-0.0003	2
6714	-0.00025	1e-05	0.00016	-0.0003	-0.00028	0.0004	0.0003	-0.0003	2
6715	-0.00025	1e-05	0.00016	-0.0003	-0.00028	0.0004	0.0003	-0.0003	2
6716	-0.00025	1e-05	0.00016	-0.0003	-0.00028	0.0004	0.0003	-0.0003	2
6717	-0.00025	1e-05	0.00016	-0.0003	-0.00028	0.0004	0.0003	-0.0003	2
6718	-0.00025	1e-05	0.00016	-0.0003	-0.00028	0.0004	0.0003	-0.0003	2
6719	-0.00025	1e-05	0.00016	-0.0003	-0.00028	0.0004	0.0003	-0.0003	2
6720	-0.00025	1e-05	0.00016	-0.0003	-0.00028	0.0004	0.0003	-0.0003	2
6721	-0.00025	1e-05	0.00016	-0.0003	-0.00028	0.0004	0.0003	-0.0003	2
6722	-0.00025	1e-05	0.00016	-0.0003	-0.00028	0.0004	0.0003	-0.0003	2
6723	-0.00025	1e-05	0.00016	-0.0003	-0.00028	0.0004	0.0003	-0.0003	2
6724	-0.00025	1e-05	0.00016	-0.0003	-0.00028	0.0004	0.0003	-0.0003	2
6725	-0.00025	1e-05	0.00016	-0.0003	-0.00028	0.0004	0.0003	-0.0003	2
6726	-0.00025	1e-05	0.00016	-0.0003	-0.00028	0.0004	0.0003	-0.0003	2
6727	-0.00025	1e-05	0.00016	-0.0003	-0.00028	0.0004	0.0003	-0.0003	2
6728	-0.00025	1e-05	0.00016	-0.0003	-0.00028	0.0004	0.0003	-0.0003	2
6729	-0.00025	1e-05	0.00016	-0.0003	-0.00028	0.0004	0.0003	-0.0003	2
6730	-8e-05	-6e-05	-6e-05	0.00033	-0.00013	-0.00017	-0.00029	-0.00014	2
6731	-0.00015	-4e-05	-3e-05	-0.00015	-0.0001	-0.00017	0.00019	-0.00037	2
6732	-0.00033	-4e-05	7e-05	1e-05	0.00039	-0.00102	-0.00049	-0.00019	2
6733	-0.00033	-4e-05	7e-05	1e-05	0.00039	-0.00102	-0.00049	-0.00019	2
6734	-0.00033	-4e-05	7e-05	1e-05	0.00039	-0.00102	-0.00049	-0.00019	2
6735	-0.00033	-4e-05	7e-05	1e-05	0.00039	-0.00102	-0.00049	-0.00019	2
6736	-0.00033	-4e-05	7e-05	1e-05	0.00039	-0.00102	-0.00049	-0.00019	2
6738	-0.00033	-4e-05	7e-05	1e-05	0.00039	-0.00102	-0.00049	-0.00019	2
6739	-0.00033	-4e-05	7e-05	1e-05	0.00039	-0.00102	-0.00049	-0.00019	2
6740	-0.00033	-4e-05	7e-05	1e-05	0.00039	-0.00102	-0.00049	-0.00019	2
6741	-0.00033	-4e-05	7e-05	1e-05	0.00039	-0.00102	-0.00049	-0.00019	2
6742	-0.00033	-4e-05	7e-05	1e-05	0.00039	-0.00102	-0.00049	-0.00019	2
6743	-0.00033	-4e-05	7e-05	1e-05	0.00039	-0.00102	-0.00049	-0.00019	2
6744	-0.00011	-0.00011	-0.0001	-0.00024	-5e-05	-0.00026	-0.00019	0.00027	2
6745	-0.00011	-0.00011	-0.0001	-0.00024	-5e-05	-0.00026	-0.00019	0.00027	2
6746	-0.00011	-0.00011	-0.0001	-0.00024	-5e-05	-0.00026	-0.00019	0.00027	2
6747	-0.00011	-0.00011	-0.0001	-0.00024	-5e-05	-0.00026	-0.00019	0.00027	2
6748	-0.00011	-0.00011	-0.0001	-0.00024	-5e-05	-0.00026	-0.00019	0.00027	2
6749	-0.00011	-0.00011	-0.0001	-0.00024	-5e-05	-0.00026	-0.00019	0.00027	2
6750	-0.00011	-0.00011	-0.0001	-0.00024	-5e-05	-0.00026	-0.00019	0.00027	2
6751	-0.00011	-0.00011	-0.0001	-0.00024	-5e-05	-0.00026	-0.00019	0.00027	2
6752	-0.00011	-0.00011	-0.0001	-0.00024	-5e-05	-0.00026	-0.00019	0.00027	2
6753	0.00025	0.0002	0.00015	-0.00079	2e-05	0.00014	-0.00018	-1e-05	2
6754	0.00025	0.0002	0.00015	-0.00079	2e-05	0.00014	-0.00018	-1e-05	2
6755	0.00025	0.0002	0.00015	-0.00079	2e-05	0.00014	-0.00018	-1e-05	2
6756	0.00025	0.0002	0.00015	-0.00079	2e-05	0.00014	-0.00018	-1e-05	2
6757	0.00025	0.0002	0.00015	-0.00079	2e-05	0.00014	-0.00018	-1e-05	2
6758	0.00025	0.0002	0.00015	-0.00079	2e-05	0.00014	-0.00018	-1e-05	2
6759	0.00025	0.0002	0.00015	-0.00079	2e-05	0.00014	-0.00018	-1e-05	2
6760	0.00025	0.0002	0.00015	-0.00079	2e-05	0.00014	-0.00018	-1e-05	2
6761	0.00025	0.0002	0.00015	-0.00079	2e-05	0.00014	-0.00018	-1e-05	2
6762	0.00025	0.0002	0.00015	-0.00079	2e-05	0.00014	-0.00018	-1e-05	2
6763	0.00025	0.0002	0.00015	-0.00079	2e-05	0.00014	-0.00018	-1e-05	2
6764	0.00025	0.0002	0.00015	-0.00079	2e-05	0.00014	-0.00018	-1e-05	2
6765	0.00025	0.0002	0.00015	-0.00079	2e-05	0.00014	-0.00018	-1e-05	2
6766	0.00025	0.0002	0.00015	-0.00079	2e-05	0.00014	-0.00018	-1e-05	2
6767	0.00025	0.0002	0.00015	-0.00079	2e-05	0.00014	-0.00018	-1e-05	2
6768	0.00014	3e-05	3e-05	0.00017	0.00012	-1e-05	0.0008	0.00026	2
6769	0.00014	3e-05	3e-05	0.00017	0.00012	-1e-05	0.0008	0.00026	2
6770	0.00014	3e-05	3e-05	0.00017	0.00012	-1e-05	0.0008	0.00026	2
6771	0.00014	3e-05	3e-05	0.00017	0.00012	-1e-05	0.0008	0.00026	2
6772	0.00014	3e-05	3e-05	0.00017	0.00012	-1e-05	0.0008	0.00026	2
6773	0.00014	3e-05	3e-05	0.00017	0.00012	-1e-05	0.0008	0.00026	2
6774	-0.0002	-4e-05	0.0001	0.0008	0.0002	0.0006	-0.00012	8e-05	2
6775	-0.0002	-4e-05	0.0001	0.0008	0.0002	0.0006	-0.00012	8e-05	2
6776	-0.0002	-4e-05	0.0001	0.0008	0.0002	0.0006	-0.00012	8e-05	2
6777	-0.0002	-4e-05	0.0001	0.0008	0.0002	0.0006	-0.00012	8e-05	2
6778	-0.0002	-4e-05	0.0001	0.0008	0.0002	0.0006	-0.00012	8e-05	2
6779	-0.0002	-4e-05	0.0001	0.0008	0.0002	0.0006	-0.00012	8e-05	2
6780	-0.0002	-4e-05	0.0001	0.0008	0.0002	0.0006	-0.00012	8e-05	2
6781	-0.0002	-4e-05	0.0001	0.0008	0.0002	0.0006	-0.00012	8e-05	2
6782	-0.0002	-4e-05	0.0001	0.0008	0.0002	0.0006	-0.00012	8e-05	2
6783	-0.0002	-4e-05	0.0001	0.0008	0.0002	0.0006	-0.00012	8e-05	2
6784	-0.0002	-4e-05	0.0001	0.0008	0.0002	0.0006	-0.00012	8e-05	2
6785	-0.0002	-4e-05	0.0001	0.0008	0.0002	0.0006	-0.00012	8e-05	2
6786	-0.0002	-4e-05	0.0001	0.0008	0.0002	0.0006	-0.00012	8e-05	2
6788	-0.0002	-4e-05	0.0001	0.0008	0.0002	0.0006	-0.00012	8e-05	2
6789	-0.0002	-4e-05	0.0001	0.0008	0.0002	0.0006	-0.00012	8e-05	2
6790	-0.0002	-4e-05	0.0001	0.0008	0.0002	0.0006	-0.00012	8e-05	2
6791	-7e-05	5e-05	5e-05	0.00116	0.00024	3e-05	-0.00063	-0.00018	2
6792	-7e-05	5e-05	5e-05	0.00116	0.00024	3e-05	-0.00063	-0.00018	2
6793	0.00013	2e-05	-2e-05	-3e-05	0.00032	0.00014	-0.00068	6e-05	2
6794	0.00013	2e-05	-2e-05	-3e-05	0.00032	0.00014	-0.00068	6e-05	2
6795	0.00013	2e-05	-2e-05	-3e-05	0.00032	0.00014	-0.00068	6e-05	2
6796	0.00013	2e-05	-2e-05	-3e-05	0.00032	0.00014	-0.00068	6e-05	2
6797	0.00013	2e-05	-2e-05	-3e-05	0.00032	0.00014	-0.00068	6e-05	2
6798	0.00013	2e-05	-2e-05	-3e-05	0.00032	0.00014	-0.00068	6e-05	2
6799	0.00013	2e-05	-2e-05	-3e-05	0.00032	0.00014	-0.00068	6e-05	2
6800	0.00013	2e-05	-2e-05	-3e-05	0.00032	0.00014	-0.00068	6e-05	2
6801	0.00013	2e-05	-2e-05	-3e-05	0.00032	0.00014	-0.00068	6e-05	2
6802	0.00013	2e-05	-2e-05	-3e-05	0.00032	0.00014	-0.00068	6e-05	2
6803	0.00013	2e-05	-2e-05	-3e-05	0.00032	0.00014	-0.00068	6e-05	2
6804	-5e-05	-6e-05	0.0001	0.00088	8e-05	0.00042	0.00056	6e-05	2
6805	-5e-05	-6e-05	0.0001	0.00088	8e-05	0.00042	0.00056	6e-05	2
6806	-5e-05	-6e-05	0.0001	0.00088	8e-05	0.00042	0.00056	6e-05	2
6807	-5e-05	-6e-05	0.0001	0.00088	8e-05	0.00042	0.00056	6e-05	2
6808	-5e-05	-6e-05	0.0001	0.00088	8e-05	0.00042	0.00056	6e-05	2
6809	-5e-05	-6e-05	0.0001	0.00088	8e-05	0.00042	0.00056	6e-05	2
6810	-5e-05	-6e-05	0.0001	0.00088	8e-05	0.00042	0.00056	6e-05	2
6811	-5e-05	-6e-05	0.0001	0.00088	8e-05	0.00042	0.00056	6e-05	2
6812	-5e-05	-6e-05	0.0001	0.00088	8e-05	0.00042	0.00056	6e-05	2
6813	-0.00048	-0.00017	6e-05	-0.0001	-0.0001	-0.00068	-0.00117	-0.00035	2
6814	-0.00048	-0.00017	6e-05	-0.0001	-0.0001	-0.00068	-0.00117	-0.00035	2
6815	-0.00048	-0.00017	6e-05	-0.0001	-0.0001	-0.00068	-0.00117	-0.00035	2
6816	-0.00048	-0.00017	6e-05	-0.0001	-0.0001	-0.00068	-0.00117	-0.00035	2
6817	-0.00048	-0.00017	6e-05	-0.0001	-0.0001	-0.00068	-0.00117	-0.00035	2
6818	-0.00048	-0.00017	6e-05	-0.0001	-0.0001	-0.00068	-0.00117	-0.00035	2
6819	-0.00048	-0.00017	6e-05	-0.0001	-0.0001	-0.00068	-0.00117	-0.00035	2
6820	-0.00048	-0.00017	6e-05	-0.0001	-0.0001	-0.00068	-0.00117	-0.00035	2
6821	-0.00048	-0.00017	6e-05	-0.0001	-0.0001	-0.00068	-0.00117	-0.00035	2
6822	-0.00048	-0.00017	6e-05	-0.0001	-0.0001	-0.00068	-0.00117	-0.00035	2
6823	-0.00048	-0.00017	6e-05	-0.0001	-0.0001	-0.00068	-0.00117	-0.00035	2
6824	-0.00048	-0.00017	6e-05	-0.0001	-0.0001	-0.00068	-0.00117	-0.00035	2
6825	-0.00048	-0.00017	6e-05	-0.0001	-0.0001	-0.00068	-0.00117	-0.00035	2
6826	-0.00048	-0.00017	6e-05	-0.0001	-0.0001	-0.00068	-0.00117	-0.00035	2
6827	-0.00048	-0.00017	6e-05	-0.0001	-0.0001	-0.00068	-0.00117	-0.00035	2
6828	0.0005	0.00016	5e-05	-0.0004	-0.00033	0.00091	3e-05	0.00043	2
6829	0.0005	0.00016	5e-05	-0.0004	-0.00033	0.00091	3e-05	0.00043	2
6830	0.00063	6e-05	-0.00013	0.00017	-0.00022	-0.00113	0.00067	0.00031	2
6831	0.00063	6e-05	-0.00013	0.00017	-0.00022	-0.00113	0.00067	0.00031	2
6832	0.00063	6e-05	-0.00013	0.00017	-0.00022	-0.00113	0.00067	0.00031	2
6833	0.00063	6e-05	-0.00013	0.00017	-0.00022	-0.00113	0.00067	0.00031	2
6834	0.00063	6e-05	-0.00013	0.00017	-0.00022	-0.00113	0.00067	0.00031	2
6835	0.00063	6e-05	-0.00013	0.00017	-0.00022	-0.00113	0.00067	0.00031	2
6836	0.00063	6e-05	-0.00013	0.00017	-0.00022	-0.00113	0.00067	0.00031	2
6838	0.00063	6e-05	-0.00013	0.00017	-0.00022	-0.00113	0.00067	0.00031	2
6839	0.00063	6e-05	-0.00013	0.00017	-0.00022	-0.00113	0.00067	0.00031	2
6840	0.00063	6e-05	-0.00013	0.00017	-0.00022	-0.00113	0.00067	0.00031	2
6841	0.00063	6e-05	-0.00013	0.00017	-0.00022	-0.00113	0.00067	0.00031	2
6842	0.00063	6e-05	-0.00013	0.00017	-0.00022	-0.00113	0.00067	0.00031	2
6843	0.00063	6e-05	-0.00013	0.00017	-0.00022	-0.00113	0.00067	0.00031	2
6844	0.00063	6e-05	-0.00013	0.00017	-0.00022	-0.00113	0.00067	0.00031	2
6845	0.00063	6e-05	-0.00013	0.00017	-0.00022	-0.00113	0.00067	0.00031	2
6846	0.00063	6e-05	-0.00013	0.00017	-0.00022	-0.00113	0.00067	0.00031	2
6847	0.00063	6e-05	-0.00013	0.00017	-0.00022	-0.00113	0.00067	0.00031	2
6848	0.00063	6e-05	-0.00013	0.00017	-0.00022	-0.00113	0.00067	0.00031	2
6849	0.00063	6e-05	-0.00013	0.00017	-0.00022	-0.00113	0.00067	0.00031	2
6850	0.0001	0.00011	-8e-05	-0.00078	-0.00059	0.00035	-0.00015	0.00018	2
6851	0.0001	0.00011	-8e-05	-0.00078	-0.00059	0.00035	-0.00015	0.00018	2
6852	0.00022	3e-05	0	-0.00034	-0.00063	0.00062	-0.00014	0.00027	2
6853	0.00022	3e-05	0	-0.00034	-0.00063	0.00062	-0.00014	0.00027	2
6854	0.00022	3e-05	0	-0.00034	-0.00063	0.00062	-0.00014	0.00027	2
6855	0.00022	3e-05	0	-0.00034	-0.00063	0.00062	-0.00014	0.00027	2
6856	0.00022	3e-05	0	-0.00034	-0.00063	0.00062	-0.00014	0.00027	2
6857	0.00022	3e-05	0	-0.00034	-0.00063	0.00062	-0.00014	0.00027	2
6858	0.00022	3e-05	0	-0.00034	-0.00063	0.00062	-0.00014	0.00027	2
6859	0.00022	3e-05	0	-0.00034	-0.00063	0.00062	-0.00014	0.00027	2
6860	0.00022	3e-05	0	-0.00034	-0.00063	0.00062	-0.00014	0.00027	2
6861	0.00022	3e-05	0	-0.00034	-0.00063	0.00062	-0.00014	0.00027	2
6862	0.00022	3e-05	0	-0.00034	-0.00063	0.00062	-0.00014	0.00027	2
6863	0.00022	3e-05	0	-0.00034	-0.00063	0.00062	-0.00014	0.00027	2
6864	-0.00057	-0.0002	-0.00023	-0.00125	-9e-05	-0.0007	-0.0011	-0.0006	2
6865	-0.00057	-0.0002	-0.00023	-0.00125	-9e-05	-0.0007	-0.0011	-0.0006	2
6866	-0.00057	-0.0002	-0.00023	-0.00125	-9e-05	-0.0007	-0.0011	-0.0006	2
6867	-0.00057	-0.0002	-0.00023	-0.00125	-9e-05	-0.0007	-0.0011	-0.0006	2
6868	-0.00057	-0.0002	-0.00023	-0.00125	-9e-05	-0.0007	-0.0011	-0.0006	2
6869	-0.00057	-0.0002	-0.00023	-0.00125	-9e-05	-0.0007	-0.0011	-0.0006	2
6870	-0.00057	-0.0002	-0.00023	-0.00125	-9e-05	-0.0007	-0.0011	-0.0006	2
6871	-0.00057	-0.0002	-0.00023	-0.00125	-9e-05	-0.0007	-0.0011	-0.0006	2
6872	-0.00057	-0.0002	-0.00023	-0.00125	-9e-05	-0.0007	-0.0011	-0.0006	2
6873	-0.00057	-0.0002	-0.00023	-0.00125	-9e-05	-0.0007	-0.0011	-0.0006	2
6874	-0.00057	-0.0002	-0.00023	-0.00125	-9e-05	-0.0007	-0.0011	-0.0006	2
6875	-0.00057	-0.0002	-0.00023	-0.00125	-9e-05	-0.0007	-0.0011	-0.0006	2
6876	-0.00057	-0.0002	-0.00023	-0.00125	-9e-05	-0.0007	-0.0011	-0.0006	2
6877	-0.00057	-0.0002	-0.00023	-0.00125	-9e-05	-0.0007	-0.0011	-0.0006	2
6878	-0.00057	-0.0002	-0.00023	-0.00125	-9e-05	-0.0007	-0.0011	-0.0006	2
6879	-0.00057	-0.0002	-0.00023	-0.00125	-9e-05	-0.0007	-0.0011	-0.0006	2
6880	0.00097	4e-05	-4e-05	0.00079	-3e-05	0.00067	0.00058	0.00055	2
6881	-0.00041	-0.00013	-8e-05	7e-05	-1e-05	0.00041	-0.00073	-0.00023	2
6882	-0.00041	-0.00013	-8e-05	7e-05	-1e-05	0.00041	-0.00073	-0.00023	2
6883	-0.00041	-0.00013	-8e-05	7e-05	-1e-05	0.00041	-0.00073	-0.00023	2
6884	-0.00041	-0.00013	-8e-05	7e-05	-1e-05	0.00041	-0.00073	-0.00023	2
6885	-0.00041	-0.00013	-8e-05	7e-05	-1e-05	0.00041	-0.00073	-0.00023	2
6886	-0.00041	-0.00013	-8e-05	7e-05	-1e-05	0.00041	-0.00073	-0.00023	2
6888	-0.00023	-6e-05	1e-05	-0.00053	1e-05	-9e-05	0.00019	-0.00028	2
6889	-0.00023	-6e-05	1e-05	-0.00053	1e-05	-9e-05	0.00019	-0.00028	2
6890	-0.00023	-6e-05	1e-05	-0.00053	1e-05	-9e-05	0.00019	-0.00028	2
6891	-0.00023	-6e-05	1e-05	-0.00053	1e-05	-9e-05	0.00019	-0.00028	2
6892	-0.00023	-6e-05	1e-05	-0.00053	1e-05	-9e-05	0.00019	-0.00028	2
6893	-0.00023	-6e-05	1e-05	-0.00053	1e-05	-9e-05	0.00019	-0.00028	2
6894	-0.00023	-6e-05	1e-05	-0.00053	1e-05	-9e-05	0.00019	-0.00028	2
6895	-0.00023	-6e-05	1e-05	-0.00053	1e-05	-9e-05	0.00019	-0.00028	2
6896	-0.00023	2e-05	0.00016	0.0005	0.00068	0.0005	-0.00019	-0.00021	2
6897	-0.00023	2e-05	0.00016	0.0005	0.00068	0.0005	-0.00019	-0.00021	2
6898	-0.00023	2e-05	0.00016	0.0005	0.00068	0.0005	-0.00019	-0.00021	2
6899	-0.00023	2e-05	0.00016	0.0005	0.00068	0.0005	-0.00019	-0.00021	2
6900	-0.00023	2e-05	0.00016	0.0005	0.00068	0.0005	-0.00019	-0.00021	2
6901	-0.00023	2e-05	0.00016	0.0005	0.00068	0.0005	-0.00019	-0.00021	2
6902	-0.00023	2e-05	0.00016	0.0005	0.00068	0.0005	-0.00019	-0.00021	2
6903	-0.00023	2e-05	0.00016	0.0005	0.00068	0.0005	-0.00019	-0.00021	2
6904	-0.00023	2e-05	0.00016	0.0005	0.00068	0.0005	-0.00019	-0.00021	2
6905	-0.00023	2e-05	0.00016	0.0005	0.00068	0.0005	-0.00019	-0.00021	2
6906	-0.00023	2e-05	0.00016	0.0005	0.00068	0.0005	-0.00019	-0.00021	2
6907	-0.00023	2e-05	0.00016	0.0005	0.00068	0.0005	-0.00019	-0.00021	2
6908	-0.00023	2e-05	0.00016	0.0005	0.00068	0.0005	-0.00019	-0.00021	2
6909	-0.00023	2e-05	0.00016	0.0005	0.00068	0.0005	-0.00019	-0.00021	2
6910	9e-05	0	-3e-05	-0.00046	-0.00061	-0.00071	-0.00051	-0.00018	2
6911	0.00019	-1e-05	-0.00013	-0.00045	0.0001	-0.00031	-0.00019	-8e-05	2
6912	0.00019	-1e-05	-0.00013	-0.00045	0.0001	-0.00031	-0.00019	-8e-05	2
6913	0.00019	-1e-05	-0.00013	-0.00045	0.0001	-0.00031	-0.00019	-8e-05	2
6914	0.00019	-1e-05	-0.00013	-0.00045	0.0001	-0.00031	-0.00019	-8e-05	2
6915	0.00019	-1e-05	-0.00013	-0.00045	0.0001	-0.00031	-0.00019	-8e-05	2
6916	0.00019	-1e-05	-0.00013	-0.00045	0.0001	-0.00031	-0.00019	-8e-05	2
6917	0.00019	-1e-05	-0.00013	-0.00045	0.0001	-0.00031	-0.00019	-8e-05	2
6918	0.00038	9e-05	-6e-05	0.00068	0.0001	0.0006	0.00127	5e-05	2
6919	0.00038	9e-05	-6e-05	0.00068	0.0001	0.0006	0.00127	5e-05	2
6920	0.00038	9e-05	-6e-05	0.00068	0.0001	0.0006	0.00127	5e-05	2
6921	0.00038	9e-05	-6e-05	0.00068	0.0001	0.0006	0.00127	5e-05	2
6922	0.00038	9e-05	-6e-05	0.00068	0.0001	0.0006	0.00127	5e-05	2
6923	0.00038	9e-05	-6e-05	0.00068	0.0001	0.0006	0.00127	5e-05	2
6924	0.00022	0.0001	9e-05	0.00026	0.00035	-0.00084	-0.0004	0.00027	2
6925	0.00022	0.0001	9e-05	0.00026	0.00035	-0.00084	-0.0004	0.00027	2
6926	0.00022	0.0001	9e-05	0.00026	0.00035	-0.00084	-0.0004	0.00027	2
6927	0.00022	0.0001	9e-05	0.00026	0.00035	-0.00084	-0.0004	0.00027	2
6928	0.00022	0.0001	9e-05	0.00026	0.00035	-0.00084	-0.0004	0.00027	2
6929	0.00022	0.0001	9e-05	0.00026	0.00035	-0.00084	-0.0004	0.00027	2
6930	0.00022	0.0001	9e-05	0.00026	0.00035	-0.00084	-0.0004	0.00027	2
6931	0.00022	0.0001	9e-05	0.00026	0.00035	-0.00084	-0.0004	0.00027	2
6932	0.00022	0.0001	9e-05	0.00026	0.00035	-0.00084	-0.0004	0.00027	2
6933	-0.00022	-2e-05	1e-05	0.00066	-0.00016	-0.00115	7e-05	-0.0002	2
6934	-0.00022	-2e-05	1e-05	0.00066	-0.00016	-0.00115	7e-05	-0.0002	2
6935	-0.00022	-2e-05	1e-05	0.00066	-0.00016	-0.00115	7e-05	-0.0002	2
6936	-0.00022	-2e-05	1e-05	0.00066	-0.00016	-0.00115	7e-05	-0.0002	2
6938	-0.00022	-2e-05	1e-05	0.00066	-0.00016	-0.00115	7e-05	-0.0002	2
6939	-0.00022	-2e-05	1e-05	0.00066	-0.00016	-0.00115	7e-05	-0.0002	2
6940	-0.00022	-2e-05	1e-05	0.00066	-0.00016	-0.00115	7e-05	-0.0002	2
6941	-0.00022	-2e-05	1e-05	0.00066	-0.00016	-0.00115	7e-05	-0.0002	2
6942	-0.00022	-2e-05	1e-05	0.00066	-0.00016	-0.00115	7e-05	-0.0002	2
6943	-0.00022	-2e-05	1e-05	0.00066	-0.00016	-0.00115	7e-05	-0.0002	2
6944	-0.00022	-2e-05	1e-05	0.00066	-0.00016	-0.00115	7e-05	-0.0002	2
6945	-0.00022	-2e-05	1e-05	0.00066	-0.00016	-0.00115	7e-05	-0.0002	2
6946	-0.00022	-2e-05	1e-05	0.00066	-0.00016	-0.00115	7e-05	-0.0002	2
6947	-0.00022	-2e-05	1e-05	0.00066	-0.00016	-0.00115	7e-05	-0.0002	2
6948	-0.00012	-0.00014	-0.00011	-0.00082	-0.00047	-0.00047	-0.00091	-0.00038	2
6949	0.00021	0.00011	4e-05	-0.00047	-0.00011	-0.00027	-0.00063	-1e-05	2
6950	-0.00043	-0.00014	-9e-05	0.00034	0.0001	-0.00072	-0.00128	-0.00042	2
6951	-0.00043	-0.00014	-9e-05	0.00034	0.0001	-0.00072	-0.00128	-0.00042	2
6952	-0.00043	-0.00014	-9e-05	0.00034	0.0001	-0.00072	-0.00128	-0.00042	2
6953	-0.00043	-0.00014	-9e-05	0.00034	0.0001	-0.00072	-0.00128	-0.00042	2
6954	-0.00043	-0.00014	-9e-05	0.00034	0.0001	-0.00072	-0.00128	-0.00042	2
6955	-0.00043	-0.00014	-9e-05	0.00034	0.0001	-0.00072	-0.00128	-0.00042	2
6956	-0.00043	-0.00014	-9e-05	0.00034	0.0001	-0.00072	-0.00128	-0.00042	2
6957	-0.00043	-0.00014	-9e-05	0.00034	0.0001	-0.00072	-0.00128	-0.00042	2
6958	-0.00043	-0.00014	-9e-05	0.00034	0.0001	-0.00072	-0.00128	-0.00042	2
6959	-0.00043	-0.00014	-9e-05	0.00034	0.0001	-0.00072	-0.00128	-0.00042	2
6960	-0.00043	-0.00014	-9e-05	0.00034	0.0001	-0.00072	-0.00128	-0.00042	2
6961	-0.00043	-0.00014	-9e-05	0.00034	0.0001	-0.00072	-0.00128	-0.00042	2
6962	-0.00043	-0.00014	-9e-05	0.00034	0.0001	-0.00072	-0.00128	-0.00042	2
6963	-0.00043	-0.00014	-9e-05	0.00034	0.0001	-0.00072	-0.00128	-0.00042	2
6964	-0.00043	-0.00014	-9e-05	0.00034	0.0001	-0.00072	-0.00128	-0.00042	2
6965	-0.00043	-0.00014	-9e-05	0.00034	0.0001	-0.00072	-0.00128	-0.00042	2
6966	-0.00043	-0.00014	-9e-05	0.00034	0.0001	-0.00072	-0.00128	-0.00042	2
6967	-0.00043	-0.00014	-9e-05	0.00034	0.0001	-0.00072	-0.00128	-0.00042	2
6968	-0.00043	-0.00014	-9e-05	0.00034	0.0001	-0.00072	-0.00128	-0.00042	2
6969	-0.00043	-0.00014	-9e-05	0.00034	0.0001	-0.00072	-0.00128	-0.00042	2
6970	0.0006	0.00012	1e-05	-0.00028	0.00021	0.00059	0.00127	0.00093	2
6971	-0.00022	1e-05	7e-05	-0.0002	-7e-05	0.00064	-0.00014	-0.0003	2
6972	0.00028	6e-05	1e-05	-0.00066	-0.00017	-0.00017	-0.00083	0.0001	2
6973	0.00028	6e-05	1e-05	-0.00066	-0.00017	-0.00017	-0.00083	0.0001	2
6974	0.00028	6e-05	1e-05	-0.00066	-0.00017	-0.00017	-0.00083	0.0001	2
6975	0.00028	6e-05	1e-05	-0.00066	-0.00017	-0.00017	-0.00083	0.0001	2
6976	0.00028	6e-05	1e-05	-0.00066	-0.00017	-0.00017	-0.00083	0.0001	2
6977	0.00028	6e-05	1e-05	-0.00066	-0.00017	-0.00017	-0.00083	0.0001	2
6978	0.00028	6e-05	1e-05	-0.00066	-0.00017	-0.00017	-0.00083	0.0001	2
6979	0.00028	6e-05	1e-05	-0.00066	-0.00017	-0.00017	-0.00083	0.0001	2
6980	0.00028	6e-05	1e-05	-0.00066	-0.00017	-0.00017	-0.00083	0.0001	2
6981	0.00028	6e-05	1e-05	-0.00066	-0.00017	-0.00017	-0.00083	0.0001	2
6982	0.00028	6e-05	1e-05	-0.00066	-0.00017	-0.00017	-0.00083	0.0001	2
6983	0.00028	6e-05	1e-05	-0.00066	-0.00017	-0.00017	-0.00083	0.0001	2
6984	-0.00023	0	4e-05	0.00048	8e-05	-0.00043	-0.0009	-1e-05	2
6985	-0.00023	0	4e-05	0.00048	8e-05	-0.00043	-0.0009	-1e-05	2
6986	-0.00023	0	4e-05	0.00048	8e-05	-0.00043	-0.0009	-1e-05	2
6988	-0.00023	0	4e-05	0.00048	8e-05	-0.00043	-0.0009	-1e-05	2
6989	-0.00023	0	4e-05	0.00048	8e-05	-0.00043	-0.0009	-1e-05	2
6990	-0.00023	0	4e-05	0.00048	8e-05	-0.00043	-0.0009	-1e-05	2
6991	-0.00023	0	4e-05	0.00048	8e-05	-0.00043	-0.0009	-1e-05	2
6992	-0.00023	0	4e-05	0.00048	8e-05	-0.00043	-0.0009	-1e-05	2
6993	-0.00035	-0.00015	-6e-05	-0.00095	-0.00045	-0.00116	-0.00088	-0.00028	2
6994	-0.00035	-0.00015	-6e-05	-0.00095	-0.00045	-0.00116	-0.00088	-0.00028	2
6995	-0.00035	-0.00015	-6e-05	-0.00095	-0.00045	-0.00116	-0.00088	-0.00028	2
6996	-0.00035	-0.00015	-6e-05	-0.00095	-0.00045	-0.00116	-0.00088	-0.00028	2
6997	-0.00035	-0.00015	-6e-05	-0.00095	-0.00045	-0.00116	-0.00088	-0.00028	2
6998	-0.00035	-0.00015	-6e-05	-0.00095	-0.00045	-0.00116	-0.00088	-0.00028	2
6999	-0.00035	-0.00015	-6e-05	-0.00095	-0.00045	-0.00116	-0.00088	-0.00028	2
7000	-0.00035	-0.00015	-6e-05	-0.00095	-0.00045	-0.00116	-0.00088	-0.00028	2
7001	-0.00035	-0.00015	-6e-05	-0.00095	-0.00045	-0.00116	-0.00088	-0.00028	2
7002	-0.00035	-0.00015	-6e-05	-0.00095	-0.00045	-0.00116	-0.00088	-0.00028	2
7003	-0.00035	-0.00015	-6e-05	-0.00095	-0.00045	-0.00116	-0.00088	-0.00028	2
7005	-0.00035	-0.00015	-6e-05	-0.00095	-0.00045	-0.00116	-0.00088	-0.00028	2
7006	-0.00035	-0.00015	-6e-05	-0.00095	-0.00045	-0.00116	-0.00088	-0.00028	2
7007	-0.00035	-0.00015	-6e-05	-0.00095	-0.00045	-0.00116	-0.00088	-0.00028	2
7008	-1e-05	-1e-05	0	9e-05	6e-05	2e-05	0.0009	0.00018	2
7009	-0.00021	-3e-05	0	-0.00076	1e-05	-0.00018	-0.00078	-0.00042	2
7010	0.00013	1e-05	-5e-05	0.00039	2e-05	-0.00014	0.00127	0.00025	2
7011	0.00013	1e-05	-5e-05	0.00039	2e-05	-0.00014	0.00127	0.00025	2
7012	0.00013	1e-05	-5e-05	0.00039	2e-05	-0.00014	0.00127	0.00025	2
7013	0.00013	1e-05	-5e-05	0.00039	2e-05	-0.00014	0.00127	0.00025	2
7014	0.00013	1e-05	-5e-05	0.00039	2e-05	-0.00014	0.00127	0.00025	2
7015	0.00013	1e-05	-5e-05	0.00039	2e-05	-0.00014	0.00127	0.00025	2
7016	0.00013	1e-05	-5e-05	0.00039	2e-05	-0.00014	0.00127	0.00025	2
7017	0.00013	1e-05	-5e-05	0.00039	2e-05	-0.00014	0.00127	0.00025	2
7018	0.00013	1e-05	-5e-05	0.00039	2e-05	-0.00014	0.00127	0.00025	2
7019	0.00013	1e-05	-5e-05	0.00039	2e-05	-0.00014	0.00127	0.00025	2
7020	0.00013	1e-05	-5e-05	0.00039	2e-05	-0.00014	0.00127	0.00025	2
7021	0.00013	1e-05	-5e-05	0.00039	2e-05	-0.00014	0.00127	0.00025	2
7022	0.00013	1e-05	-5e-05	0.00039	2e-05	-0.00014	0.00127	0.00025	2
7023	0.00013	1e-05	-5e-05	0.00039	2e-05	-0.00014	0.00127	0.00025	2
7024	0.00013	1e-05	-5e-05	0.00039	2e-05	-0.00014	0.00127	0.00025	2
7025	0.00013	1e-05	-5e-05	0.00039	2e-05	-0.00014	0.00127	0.00025	2
7026	0.00013	1e-05	-5e-05	0.00039	2e-05	-0.00014	0.00127	0.00025	2
7027	0.00013	1e-05	-5e-05	0.00039	2e-05	-0.00014	0.00127	0.00025	2
7028	0.00013	1e-05	-5e-05	0.00039	2e-05	-0.00014	0.00127	0.00025	2
7029	0.00013	1e-05	-5e-05	0.00039	2e-05	-0.00014	0.00127	0.00025	2
7030	0.00013	1e-05	-5e-05	0.00039	2e-05	-0.00014	0.00127	0.00025	2
7031	-5e-05	-7e-05	-0.00014	-0.00029	-0.00037	-0.00016	0.00064	-2e-05	2
7032	-4e-05	-7e-05	7e-05	-0.00077	0.00012	0.00027	0.00053	2e-05	2
7033	-4e-05	-7e-05	7e-05	-0.00077	0.00012	0.00027	0.00053	2e-05	2
7034	-4e-05	-7e-05	7e-05	-0.00077	0.00012	0.00027	0.00053	2e-05	2
7035	-4e-05	-7e-05	7e-05	-0.00077	0.00012	0.00027	0.00053	2e-05	2
7036	-4e-05	-7e-05	7e-05	-0.00077	0.00012	0.00027	0.00053	2e-05	2
7038	-4e-05	-7e-05	7e-05	-0.00077	0.00012	0.00027	0.00053	2e-05	2
7039	-4e-05	-7e-05	7e-05	-0.00077	0.00012	0.00027	0.00053	2e-05	2
7040	-4e-05	-7e-05	7e-05	-0.00077	0.00012	0.00027	0.00053	2e-05	2
7041	-4e-05	-7e-05	7e-05	-0.00077	0.00012	0.00027	0.00053	2e-05	2
7042	-4e-05	-7e-05	7e-05	-0.00077	0.00012	0.00027	0.00053	2e-05	2
7043	-4e-05	-7e-05	7e-05	-0.00077	0.00012	0.00027	0.00053	2e-05	2
7044	-4e-05	-7e-05	7e-05	-0.00077	0.00012	0.00027	0.00053	2e-05	2
7045	-4e-05	-7e-05	7e-05	-0.00077	0.00012	0.00027	0.00053	2e-05	2
7046	-4e-05	-7e-05	7e-05	-0.00077	0.00012	0.00027	0.00053	2e-05	2
7047	-4e-05	-7e-05	7e-05	-0.00077	0.00012	0.00027	0.00053	2e-05	2
7048	-4e-05	-7e-05	7e-05	-0.00077	0.00012	0.00027	0.00053	2e-05	2
7049	-4e-05	-7e-05	7e-05	-0.00077	0.00012	0.00027	0.00053	2e-05	2
7050	-4e-05	-7e-05	7e-05	-0.00077	0.00012	0.00027	0.00053	2e-05	2
7051	-4e-05	-7e-05	7e-05	-0.00077	0.00012	0.00027	0.00053	2e-05	2
7052	-4e-05	-7e-05	7e-05	-0.00077	0.00012	0.00027	0.00053	2e-05	2
7053	0.00017	-3e-05	1e-05	0.00025	0.00016	0.00076	-0.00072	-0.00012	2
7054	-0.00018	1e-05	5e-05	-0.00023	-0.00015	0.00028	-9e-05	0.0001	2
7055	-7e-05	-1e-05	-2e-05	-0.00024	-0.00033	-0.00051	-0.00058	-0.00011	2
7056	-7e-05	-1e-05	-2e-05	-0.00024	-0.00033	-0.00051	-0.00058	-0.00011	2
7057	-7e-05	-1e-05	-2e-05	-0.00024	-0.00033	-0.00051	-0.00058	-0.00011	2
7058	-7e-05	-1e-05	-2e-05	-0.00024	-0.00033	-0.00051	-0.00058	-0.00011	2
7059	-7e-05	-1e-05	-2e-05	-0.00024	-0.00033	-0.00051	-0.00058	-0.00011	2
7060	-7e-05	-1e-05	-2e-05	-0.00024	-0.00033	-0.00051	-0.00058	-0.00011	2
7061	-7e-05	-1e-05	-2e-05	-0.00024	-0.00033	-0.00051	-0.00058	-0.00011	2
7062	-7e-05	-1e-05	-2e-05	-0.00024	-0.00033	-0.00051	-0.00058	-0.00011	2
7063	-7e-05	-1e-05	-2e-05	-0.00024	-0.00033	-0.00051	-0.00058	-0.00011	2
7064	-7e-05	-1e-05	-2e-05	-0.00024	-0.00033	-0.00051	-0.00058	-0.00011	2
7065	-7e-05	-1e-05	-2e-05	-0.00024	-0.00033	-0.00051	-0.00058	-0.00011	2
7066	-7e-05	-1e-05	-2e-05	-0.00024	-0.00033	-0.00051	-0.00058	-0.00011	2
7067	-7e-05	-1e-05	-2e-05	-0.00024	-0.00033	-0.00051	-0.00058	-0.00011	2
7068	0.00037	1e-05	-4e-05	-4e-05	0.00032	-0.00055	0.00066	0.00021	2
7069	-0.00053	-0.00014	-0.00018	0.00029	0.00011	-0.00092	-0.0007	-0.00018	2
7070	0.00063	0.00018	2e-05	-0.00075	-0.00033	0.00071	0.00048	0.0007	2
7071	0.00063	0.00018	2e-05	-0.00075	-0.00033	0.00071	0.00048	0.0007	2
7072	0.00063	0.00018	2e-05	-0.00075	-0.00033	0.00071	0.00048	0.0007	2
7073	0.00063	0.00018	2e-05	-0.00075	-0.00033	0.00071	0.00048	0.0007	2
7074	0.00063	0.00018	2e-05	-0.00075	-0.00033	0.00071	0.00048	0.0007	2
7075	0.00063	0.00018	2e-05	-0.00075	-0.00033	0.00071	0.00048	0.0007	2
7076	0.00063	0.00018	2e-05	-0.00075	-0.00033	0.00071	0.00048	0.0007	2
7077	0.00063	0.00018	2e-05	-0.00075	-0.00033	0.00071	0.00048	0.0007	2
7078	0.00063	0.00018	2e-05	-0.00075	-0.00033	0.00071	0.00048	0.0007	2
7079	0.00063	0.00018	2e-05	-0.00075	-0.00033	0.00071	0.00048	0.0007	2
7080	0.00063	0.00018	2e-05	-0.00075	-0.00033	0.00071	0.00048	0.0007	2
7081	0.00063	0.00018	2e-05	-0.00075	-0.00033	0.00071	0.00048	0.0007	2
7082	0.00063	0.00018	2e-05	-0.00075	-0.00033	0.00071	0.00048	0.0007	2
7083	0.00063	0.00018	2e-05	-0.00075	-0.00033	0.00071	0.00048	0.0007	2
7084	0.00063	0.00018	2e-05	-0.00075	-0.00033	0.00071	0.00048	0.0007	2
7085	0.00063	0.00018	2e-05	-0.00075	-0.00033	0.00071	0.00048	0.0007	2
7086	0.00063	0.00018	2e-05	-0.00075	-0.00033	0.00071	0.00048	0.0007	2
7088	0.00063	0.00018	2e-05	-0.00075	-0.00033	0.00071	0.00048	0.0007	2
7089	0.00063	0.00018	2e-05	-0.00075	-0.00033	0.00071	0.00048	0.0007	2
7090	-2e-05	-0.00014	0.00011	0.00086	0.00037	-0.00033	-0.00019	-0.00018	2
7091	-0.0002	1e-05	-5e-05	0.00084	0.0002	2e-05	0.00031	-0.00053	2
7092	6e-05	8e-05	2e-05	-0.0001	-0.00021	0.00019	0.00035	-4e-05	2
7093	6e-05	8e-05	2e-05	-0.0001	-0.00021	0.00019	0.00035	-4e-05	2
7094	6e-05	8e-05	2e-05	-0.0001	-0.00021	0.00019	0.00035	-4e-05	2
7095	6e-05	8e-05	2e-05	-0.0001	-0.00021	0.00019	0.00035	-4e-05	2
7096	6e-05	8e-05	2e-05	-0.0001	-0.00021	0.00019	0.00035	-4e-05	2
7097	6e-05	8e-05	2e-05	-0.0001	-0.00021	0.00019	0.00035	-4e-05	2
7098	6e-05	8e-05	2e-05	-0.0001	-0.00021	0.00019	0.00035	-4e-05	2
7099	6e-05	8e-05	2e-05	-0.0001	-0.00021	0.00019	0.00035	-4e-05	2
7100	6e-05	8e-05	2e-05	-0.0001	-0.00021	0.00019	0.00035	-4e-05	2
7101	6e-05	8e-05	2e-05	-0.0001	-0.00021	0.00019	0.00035	-4e-05	2
7102	6e-05	8e-05	2e-05	-0.0001	-0.00021	0.00019	0.00035	-4e-05	2
7103	6e-05	8e-05	2e-05	-0.0001	-0.00021	0.00019	0.00035	-4e-05	2
7104	0.0003	2e-05	1e-05	-0.00086	-0.00026	0.00024	0.00033	0.00037	2
7105	0.0003	2e-05	1e-05	-0.00086	-0.00026	0.00024	0.00033	0.00037	2
7106	0.0003	2e-05	1e-05	-0.00086	-0.00026	0.00024	0.00033	0.00037	2
7107	0.0003	2e-05	1e-05	-0.00086	-0.00026	0.00024	0.00033	0.00037	2
7108	0.0003	2e-05	1e-05	-0.00086	-0.00026	0.00024	0.00033	0.00037	2
7109	0.0003	2e-05	1e-05	-0.00086	-0.00026	0.00024	0.00033	0.00037	2
7110	0.0003	2e-05	1e-05	-0.00086	-0.00026	0.00024	0.00033	0.00037	2
7111	0.0003	2e-05	1e-05	-0.00086	-0.00026	0.00024	0.00033	0.00037	2
7112	0.0003	2e-05	1e-05	-0.00086	-0.00026	0.00024	0.00033	0.00037	2
7113	0.0003	2e-05	1e-05	-0.00086	-0.00026	0.00024	0.00033	0.00037	2
7114	-9e-05	-3e-05	-8e-05	-0.00027	-0.0003	-0.00082	0.00044	-0.00028	2
7115	-0.00047	-0.00015	7e-05	0.00096	0.00034	0.00022	-0.00031	-0.00021	2
7116	-0.00047	-0.00015	7e-05	0.00096	0.00034	0.00022	-0.00031	-0.00021	2
7117	-0.00047	-0.00015	7e-05	0.00096	0.00034	0.00022	-0.00031	-0.00021	2
7118	-0.00047	-0.00015	7e-05	0.00096	0.00034	0.00022	-0.00031	-0.00021	2
7119	-0.00047	-0.00015	7e-05	0.00096	0.00034	0.00022	-0.00031	-0.00021	2
7120	-0.00047	-0.00015	7e-05	0.00096	0.00034	0.00022	-0.00031	-0.00021	2
7121	-0.00047	-0.00015	7e-05	0.00096	0.00034	0.00022	-0.00031	-0.00021	2
7122	-0.00047	-0.00015	7e-05	0.00096	0.00034	0.00022	-0.00031	-0.00021	2
7123	-0.00047	-0.00015	7e-05	0.00096	0.00034	0.00022	-0.00031	-0.00021	2
7124	-0.00047	-0.00015	7e-05	0.00096	0.00034	0.00022	-0.00031	-0.00021	2
7125	-0.00047	-0.00015	7e-05	0.00096	0.00034	0.00022	-0.00031	-0.00021	2
7126	-0.00047	-0.00015	7e-05	0.00096	0.00034	0.00022	-0.00031	-0.00021	2
7127	-0.00047	-0.00015	7e-05	0.00096	0.00034	0.00022	-0.00031	-0.00021	2
7128	0.00039	0.00012	0.00013	0.00016	0.00011	-0.00023	-0.00049	0.00039	2
7129	0.00039	0.00012	0.00013	0.00016	0.00011	-0.00023	-0.00049	0.00039	2
7130	-0.00047	-0.00013	-8e-05	-6e-05	7e-05	-0.0001	-0.00128	-0.00032	2
7131	-0.00047	-0.00013	-8e-05	-6e-05	7e-05	-0.0001	-0.00128	-0.00032	2
7132	-0.00047	-0.00013	-8e-05	-6e-05	7e-05	-0.0001	-0.00128	-0.00032	2
7133	-0.00047	-0.00013	-8e-05	-6e-05	7e-05	-0.0001	-0.00128	-0.00032	2
7134	-0.00047	-0.00013	-8e-05	-6e-05	7e-05	-0.0001	-0.00128	-0.00032	2
7135	-0.00047	-0.00013	-8e-05	-6e-05	7e-05	-0.0001	-0.00128	-0.00032	2
7136	-0.00047	-0.00013	-8e-05	-6e-05	7e-05	-0.0001	-0.00128	-0.00032	2
7138	-0.00047	-0.00013	-8e-05	-6e-05	7e-05	-0.0001	-0.00128	-0.00032	2
7139	-0.00047	-0.00013	-8e-05	-6e-05	7e-05	-0.0001	-0.00128	-0.00032	2
7140	-0.00047	-0.00013	-8e-05	-6e-05	7e-05	-0.0001	-0.00128	-0.00032	2
7141	-0.00047	-0.00013	-8e-05	-6e-05	7e-05	-0.0001	-0.00128	-0.00032	2
7142	-0.00047	-0.00013	-8e-05	-6e-05	7e-05	-0.0001	-0.00128	-0.00032	2
7143	-0.00047	-0.00013	-8e-05	-6e-05	7e-05	-0.0001	-0.00128	-0.00032	2
7144	-0.00047	-0.00013	-8e-05	-6e-05	7e-05	-0.0001	-0.00128	-0.00032	2
7145	-0.00047	-0.00013	-8e-05	-6e-05	7e-05	-0.0001	-0.00128	-0.00032	2
7146	-0.00047	-0.00013	-8e-05	-6e-05	7e-05	-0.0001	-0.00128	-0.00032	2
7147	-0.00047	-0.00013	-8e-05	-6e-05	7e-05	-0.0001	-0.00128	-0.00032	2
7148	-0.00047	-0.00013	-8e-05	-6e-05	7e-05	-0.0001	-0.00128	-0.00032	2
7149	-0.00047	-0.00013	-8e-05	-6e-05	7e-05	-0.0001	-0.00128	-0.00032	2
7150	0.00013	2e-05	0	7e-05	-0.00017	0.00059	0.00057	0.00012	2
7151	0.00032	3e-05	4e-05	-0.00051	-0.00012	0	-0.00048	0.00019	2
7152	1e-05	-4e-05	0.00013	0.00101	0.00024	-0.00015	-0.00013	4e-05	2
7153	1e-05	-4e-05	0.00013	0.00101	0.00024	-0.00015	-0.00013	4e-05	2
7154	1e-05	-4e-05	0.00013	0.00101	0.00024	-0.00015	-0.00013	4e-05	2
7155	1e-05	-4e-05	0.00013	0.00101	0.00024	-0.00015	-0.00013	4e-05	2
7156	1e-05	-4e-05	0.00013	0.00101	0.00024	-0.00015	-0.00013	4e-05	2
7157	1e-05	-4e-05	0.00013	0.00101	0.00024	-0.00015	-0.00013	4e-05	2
7158	1e-05	-4e-05	0.00013	0.00101	0.00024	-0.00015	-0.00013	4e-05	2
7159	1e-05	-4e-05	0.00013	0.00101	0.00024	-0.00015	-0.00013	4e-05	2
7160	1e-05	-4e-05	0.00013	0.00101	0.00024	-0.00015	-0.00013	4e-05	2
7161	1e-05	-4e-05	0.00013	0.00101	0.00024	-0.00015	-0.00013	4e-05	2
7162	1e-05	-4e-05	0.00013	0.00101	0.00024	-0.00015	-0.00013	4e-05	2
7163	1e-05	-4e-05	0.00013	0.00101	0.00024	-0.00015	-0.00013	4e-05	2
7164	1e-05	-4e-05	0.00013	0.00101	0.00024	-0.00015	-0.00013	4e-05	2
7165	1e-05	-4e-05	0.00013	0.00101	0.00024	-0.00015	-0.00013	4e-05	2
7166	1e-05	-4e-05	0.00013	0.00101	0.00024	-0.00015	-0.00013	4e-05	2
7167	1e-05	-4e-05	0.00013	0.00101	0.00024	-0.00015	-0.00013	4e-05	2
7168	1e-05	-4e-05	0.00013	0.00101	0.00024	-0.00015	-0.00013	4e-05	2
7169	1e-05	-4e-05	0.00013	0.00101	0.00024	-0.00015	-0.00013	4e-05	2
7170	1e-05	-4e-05	0.00013	0.00101	0.00024	-0.00015	-0.00013	4e-05	2
7171	1e-05	-4e-05	0.00013	0.00101	0.00024	-0.00015	-0.00013	4e-05	2
7172	1e-05	-4e-05	0.00013	0.00101	0.00024	-0.00015	-0.00013	4e-05	2
7173	-8e-05	1e-05	0.00013	0.00019	-6e-05	-8e-05	0.00019	-0.00018	2
7174	-0.00018	-0.00018	-0.00035	-0.00076	-0.00039	-0.00014	0.00022	2e-05	2
7175	-2e-05	-8e-05	-1e-05	0.00058	0.00051	-0.00037	-0.00084	-7e-05	2
7176	-2e-05	-8e-05	-1e-05	0.00058	0.00051	-0.00037	-0.00084	-7e-05	2
7177	-2e-05	-8e-05	-1e-05	0.00058	0.00051	-0.00037	-0.00084	-7e-05	2
7178	-2e-05	-8e-05	-1e-05	0.00058	0.00051	-0.00037	-0.00084	-7e-05	2
7179	-2e-05	-8e-05	-1e-05	0.00058	0.00051	-0.00037	-0.00084	-7e-05	2
7180	-2e-05	-8e-05	-1e-05	0.00058	0.00051	-0.00037	-0.00084	-7e-05	2
7181	-2e-05	-8e-05	-1e-05	0.00058	0.00051	-0.00037	-0.00084	-7e-05	2
7182	-2e-05	-8e-05	-1e-05	0.00058	0.00051	-0.00037	-0.00084	-7e-05	2
7183	-2e-05	-8e-05	-1e-05	0.00058	0.00051	-0.00037	-0.00084	-7e-05	2
7184	-2e-05	-8e-05	-1e-05	0.00058	0.00051	-0.00037	-0.00084	-7e-05	2
7185	-2e-05	-8e-05	-1e-05	0.00058	0.00051	-0.00037	-0.00084	-7e-05	2
7186	-2e-05	-8e-05	-1e-05	0.00058	0.00051	-0.00037	-0.00084	-7e-05	2
7188	-2e-05	-8e-05	-1e-05	0.00058	0.00051	-0.00037	-0.00084	-7e-05	2
7189	9e-05	0	-1e-05	-0.00065	-0.00036	-0.00073	-0.00108	-5e-05	2
7190	9e-05	0	-1e-05	-0.00065	-0.00036	-0.00073	-0.00108	-5e-05	2
7191	9e-05	0	-1e-05	-0.00065	-0.00036	-0.00073	-0.00108	-5e-05	2
7192	9e-05	0	-1e-05	-0.00065	-0.00036	-0.00073	-0.00108	-5e-05	2
7193	9e-05	0	-1e-05	-0.00065	-0.00036	-0.00073	-0.00108	-5e-05	2
7194	6e-05	0.00013	7e-05	2e-05	0.00036	9e-05	0.00031	0.00011	2
7195	6e-05	0.00013	7e-05	2e-05	0.00036	9e-05	0.00031	0.00011	2
7196	6e-05	0.00013	7e-05	2e-05	0.00036	9e-05	0.00031	0.00011	2
7197	6e-05	0.00013	7e-05	2e-05	0.00036	9e-05	0.00031	0.00011	2
7198	6e-05	0.00013	7e-05	2e-05	0.00036	9e-05	0.00031	0.00011	2
7199	6e-05	0.00013	7e-05	2e-05	0.00036	9e-05	0.00031	0.00011	2
7200	6e-05	0.00013	7e-05	2e-05	0.00036	9e-05	0.00031	0.00011	2
7201	6e-05	0.00013	7e-05	2e-05	0.00036	9e-05	0.00031	0.00011	2
7202	6e-05	0.00013	7e-05	2e-05	0.00036	9e-05	0.00031	0.00011	2
7203	6e-05	0.00013	7e-05	2e-05	0.00036	9e-05	0.00031	0.00011	2
7204	6e-05	0.00013	7e-05	2e-05	0.00036	9e-05	0.00031	0.00011	2
7205	6e-05	0.00013	7e-05	2e-05	0.00036	9e-05	0.00031	0.00011	2
7206	6e-05	0.00013	7e-05	2e-05	0.00036	9e-05	0.00031	0.00011	2
7207	6e-05	0.00013	7e-05	2e-05	0.00036	9e-05	0.00031	0.00011	2
7208	6e-05	0.00013	7e-05	2e-05	0.00036	9e-05	0.00031	0.00011	2
7209	6e-05	0.00013	7e-05	2e-05	0.00036	9e-05	0.00031	0.00011	2
7210	-0.00016	-0.00015	-0.00012	6e-05	-0.0005	-0.00019	-0.00086	-0.00029	2
7211	0.0003	4e-05	-4e-05	8e-05	8e-05	-0.00038	-0.00018	0.00021	2
7212	7e-05	-1e-05	-8e-05	-0.001	-0.00017	0.00039	-8e-05	-0.00036	2
7213	7e-05	-1e-05	-8e-05	-0.001	-0.00017	0.00039	-8e-05	-0.00036	2
7214	7e-05	-1e-05	-8e-05	-0.001	-0.00017	0.00039	-8e-05	-0.00036	2
7215	7e-05	-1e-05	-8e-05	-0.001	-0.00017	0.00039	-8e-05	-0.00036	2
7216	7e-05	-1e-05	-8e-05	-0.001	-0.00017	0.00039	-8e-05	-0.00036	2
7217	7e-05	-1e-05	-8e-05	-0.001	-0.00017	0.00039	-8e-05	-0.00036	2
7218	7e-05	-1e-05	-8e-05	-0.001	-0.00017	0.00039	-8e-05	-0.00036	2
7219	7e-05	-1e-05	-8e-05	-0.001	-0.00017	0.00039	-8e-05	-0.00036	2
7220	7e-05	-1e-05	-8e-05	-0.001	-0.00017	0.00039	-8e-05	-0.00036	2
7221	7e-05	-1e-05	-8e-05	-0.001	-0.00017	0.00039	-8e-05	-0.00036	2
7222	7e-05	-1e-05	-8e-05	-0.001	-0.00017	0.00039	-8e-05	-0.00036	2
7223	7e-05	-1e-05	-8e-05	-0.001	-0.00017	0.00039	-8e-05	-0.00036	2
7224	7e-05	-1e-05	-8e-05	-0.001	-0.00017	0.00039	-8e-05	-0.00036	2
7225	7e-05	-1e-05	-8e-05	-0.001	-0.00017	0.00039	-8e-05	-0.00036	2
7226	7e-05	-1e-05	-8e-05	-0.001	-0.00017	0.00039	-8e-05	-0.00036	2
7227	7e-05	-1e-05	-8e-05	-0.001	-0.00017	0.00039	-8e-05	-0.00036	2
7228	7e-05	-1e-05	-8e-05	-0.001	-0.00017	0.00039	-8e-05	-0.00036	2
7229	7e-05	-1e-05	-8e-05	-0.001	-0.00017	0.00039	-8e-05	-0.00036	2
7230	7e-05	-1e-05	-8e-05	-0.001	-0.00017	0.00039	-8e-05	-0.00036	2
7231	7e-05	-1e-05	-8e-05	-0.001	-0.00017	0.00039	-8e-05	-0.00036	2
7232	7e-05	-1e-05	-8e-05	-0.001	-0.00017	0.00039	-8e-05	-0.00036	2
7233	0.00024	-0.00011	-0.00023	3e-05	-0.00014	-0.00027	0.0003	0.00012	2
7234	-0.00014	4e-05	0.0001	0.00051	5e-05	0.00017	-0.00089	-0.00035	2
7235	0.00048	0.00017	7e-05	-0.00077	1e-05	0.00067	0.00091	0.00089	2
7236	0.00048	0.00017	7e-05	-0.00077	1e-05	0.00067	0.00091	0.00089	2
7238	0.00048	0.00017	7e-05	-0.00077	1e-05	0.00067	0.00091	0.00089	2
7239	0.00048	0.00017	7e-05	-0.00077	1e-05	0.00067	0.00091	0.00089	2
7240	0.00048	0.00017	7e-05	-0.00077	1e-05	0.00067	0.00091	0.00089	2
7241	0.00048	0.00017	7e-05	-0.00077	1e-05	0.00067	0.00091	0.00089	2
7242	0.00048	0.00017	7e-05	-0.00077	1e-05	0.00067	0.00091	0.00089	2
7243	0.00048	0.00017	7e-05	-0.00077	1e-05	0.00067	0.00091	0.00089	2
7244	0.00048	0.00017	7e-05	-0.00077	1e-05	0.00067	0.00091	0.00089	2
7245	0.00048	0.00017	7e-05	-0.00077	1e-05	0.00067	0.00091	0.00089	2
7246	0.00048	0.00017	7e-05	-0.00077	1e-05	0.00067	0.00091	0.00089	2
7247	0.00048	0.00017	7e-05	-0.00077	1e-05	0.00067	0.00091	0.00089	2
7248	-4e-05	1e-05	-3e-05	7e-05	-0.00057	-9e-05	0.00067	-0.00015	2
7249	0.00032	0.0001	0.00013	0.00014	0.00044	-0.00025	0.00078	0.00031	2
7250	-0.00021	-0.00011	-0.00016	0.00016	9e-05	-0.00046	0.00071	0.00015	2
7251	-0.00021	-0.00011	-0.00016	0.00016	9e-05	-0.00046	0.00071	0.00015	2
7252	-0.00021	-0.00011	-0.00016	0.00016	9e-05	-0.00046	0.00071	0.00015	2
7253	-0.00021	-0.00011	-0.00016	0.00016	9e-05	-0.00046	0.00071	0.00015	2
7254	-0.00021	-0.00011	-0.00016	0.00016	9e-05	-0.00046	0.00071	0.00015	2
7255	-0.00021	-0.00011	-0.00016	0.00016	9e-05	-0.00046	0.00071	0.00015	2
7256	-0.00021	-0.00011	-0.00016	0.00016	9e-05	-0.00046	0.00071	0.00015	2
7257	-0.00021	-0.00011	-0.00016	0.00016	9e-05	-0.00046	0.00071	0.00015	2
7258	-0.00021	-0.00011	-0.00016	0.00016	9e-05	-0.00046	0.00071	0.00015	2
7259	-0.00021	-0.00011	-0.00016	0.00016	9e-05	-0.00046	0.00071	0.00015	2
7260	-0.00021	-0.00011	-0.00016	0.00016	9e-05	-0.00046	0.00071	0.00015	2
36382	-7e-05	-7e-05	-5e-05	0.00044	-0.00014	0.00023	0.00027	-1e-05	2
36383	-7e-05	-7e-05	-5e-05	0.00044	-0.00014	0.00023	0.00027	-1e-05	2
36384	-7e-05	-7e-05	-5e-05	0.00044	-0.00014	0.00023	0.00027	-1e-05	2
36385	1e-05	-3e-05	-3e-05	1e-05	1e-05	-7e-05	-0.0002	-0.0001	2
36386	1e-05	-3e-05	-3e-05	1e-05	1e-05	-7e-05	-0.0002	-0.0001	2
36389	-0.00017	-0.00015	-0.00019	-0.00031	-0.00021	-8e-05	-0.00072	-0.00046	2
36390	-0.00017	-0.00015	-0.00019	-0.00031	-0.00021	-8e-05	-0.00072	-0.00046	2
36391	-0.00017	-0.00015	-0.00019	-0.00031	-0.00021	-8e-05	-0.00072	-0.00046	2
36392	-0.00017	-0.00015	-0.00019	-0.00031	-0.00021	-8e-05	-0.00072	-0.00046	2
36393	-0.00017	-0.00015	-0.00019	-0.00031	-0.00021	-8e-05	-0.00072	-0.00046	2
36394	-0.00017	-0.00015	-0.00019	-0.00031	-0.00021	-8e-05	-0.00072	-0.00046	2
36395	-0.00017	-0.00015	-0.00019	-0.00031	-0.00021	-8e-05	-0.00072	-0.00046	2
36396	-0.00017	-0.00015	-0.00019	-0.00031	-0.00021	-8e-05	-0.00072	-0.00046	2
36397	-0.00017	-0.00015	-0.00019	-0.00031	-0.00021	-8e-05	-0.00072	-0.00046	2
36398	-0.00017	-0.00015	-0.00019	-0.00031	-0.00021	-8e-05	-0.00072	-0.00046	2
36399	-0.00017	-0.00015	-0.00019	-0.00031	-0.00021	-8e-05	-0.00072	-0.00046	2
36400	-0.00017	-0.00015	-0.00019	-0.00031	-0.00021	-8e-05	-0.00072	-0.00046	2
36401	-0.00017	-0.00015	-0.00019	-0.00031	-0.00021	-8e-05	-0.00072	-0.00046	2
36402	-0.00017	-0.00015	-0.00019	-0.00031	-0.00021	-8e-05	-0.00072	-0.00046	2
36403	-0.00017	-0.00015	-0.00019	-0.00031	-0.00021	-8e-05	-0.00072	-0.00046	2
36404	-0.00017	-0.00015	-0.00019	-0.00031	-0.00021	-8e-05	-0.00072	-0.00046	2
36405	-0.00017	-0.00015	-0.00019	-0.00031	-0.00021	-8e-05	-0.00072	-0.00046	2
36406	-0.00017	-0.00015	-0.00019	-0.00031	-0.00021	-8e-05	-0.00072	-0.00046	2
36407	-0.00017	-0.00015	-0.00019	-0.00031	-0.00021	-8e-05	-0.00072	-0.00046	2
36408	-6e-05	0	0.0001	0.00035	-2e-05	0.00038	0.00079	9e-05	2
36409	0.00019	3e-05	1e-05	0.00015	-0.00014	-0.00028	0.00047	0.00024	2
36410	0.00019	3e-05	1e-05	0.00015	-0.00014	-0.00028	0.00047	0.00024	2
36411	0.00019	3e-05	1e-05	0.00015	-0.00014	-0.00028	0.00047	0.00024	2
36412	0.00019	3e-05	1e-05	0.00015	-0.00014	-0.00028	0.00047	0.00024	2
36413	0.00019	3e-05	1e-05	0.00015	-0.00014	-0.00028	0.00047	0.00024	2
36414	0.00019	3e-05	1e-05	0.00015	-0.00014	-0.00028	0.00047	0.00024	2
36415	0.00019	3e-05	1e-05	0.00015	-0.00014	-0.00028	0.00047	0.00024	2
36416	0.00019	3e-05	1e-05	0.00015	-0.00014	-0.00028	0.00047	0.00024	2
36417	0.00019	3e-05	1e-05	0.00015	-0.00014	-0.00028	0.00047	0.00024	2
36418	0.00019	3e-05	1e-05	0.00015	-0.00014	-0.00028	0.00047	0.00024	2
36419	0.00019	3e-05	1e-05	0.00015	-0.00014	-0.00028	0.00047	0.00024	2
36420	0.00019	3e-05	1e-05	0.00015	-0.00014	-0.00028	0.00047	0.00024	2
36421	0.00015	8e-05	8e-05	-0.00019	0.00021	0.00045	-0.00021	3e-05	2
36422	0.00015	8e-05	8e-05	-0.00019	0.00021	0.00045	-0.00021	3e-05	2
36423	0.00015	8e-05	8e-05	-0.00019	0.00021	0.00045	-0.00021	3e-05	2
36424	0.00015	8e-05	8e-05	-0.00019	0.00021	0.00045	-0.00021	3e-05	2
36425	0.00015	8e-05	8e-05	-0.00019	0.00021	0.00045	-0.00021	3e-05	2
36426	0.00015	8e-05	8e-05	-0.00019	0.00021	0.00045	-0.00021	3e-05	2
36427	0.00015	8e-05	8e-05	-0.00019	0.00021	0.00045	-0.00021	3e-05	2
36428	0.00015	8e-05	8e-05	-0.00019	0.00021	0.00045	-0.00021	3e-05	2
36429	0.00015	8e-05	8e-05	-0.00019	0.00021	0.00045	-0.00021	3e-05	2
36430	9e-05	0.00013	0.00013	0.00015	0.00017	5e-05	0.00046	-9e-05	2
36431	9e-05	0.00013	0.00013	0.00015	0.00017	5e-05	0.00046	-9e-05	2
36432	9e-05	0.00013	0.00013	0.00015	0.00017	5e-05	0.00046	-9e-05	2
36433	9e-05	0.00013	0.00013	0.00015	0.00017	5e-05	0.00046	-9e-05	2
36434	9e-05	0.00013	0.00013	0.00015	0.00017	5e-05	0.00046	-9e-05	2
36435	9e-05	0.00013	0.00013	0.00015	0.00017	5e-05	0.00046	-9e-05	2
36436	9e-05	0.00013	0.00013	0.00015	0.00017	5e-05	0.00046	-9e-05	2
36438	9e-05	0.00013	0.00013	0.00015	0.00017	5e-05	0.00046	-9e-05	2
36439	9e-05	0.00013	0.00013	0.00015	0.00017	5e-05	0.00046	-9e-05	2
36440	9e-05	0.00013	0.00013	0.00015	0.00017	5e-05	0.00046	-9e-05	2
36441	9e-05	0.00013	0.00013	0.00015	0.00017	5e-05	0.00046	-9e-05	2
36442	9e-05	0.00013	0.00013	0.00015	0.00017	5e-05	0.00046	-9e-05	2
36443	9e-05	0.00013	0.00013	0.00015	0.00017	5e-05	0.00046	-9e-05	2
36444	9e-05	0.00013	0.00013	0.00015	0.00017	5e-05	0.00046	-9e-05	2
36445	-8e-05	-1e-05	-9e-05	0.0003	-9e-05	1e-05	0.00018	-0.00012	2
36446	-8e-05	-1e-05	-9e-05	0.0003	-9e-05	1e-05	0.00018	-0.00012	2
36447	0.0001	4e-05	3e-05	-0.00064	-0.00025	-2e-05	-0.00034	0.00014	2
36448	0.0001	4e-05	3e-05	-0.00064	-0.00025	-2e-05	-0.00034	0.00014	2
36449	0.0001	4e-05	3e-05	-0.00064	-0.00025	-2e-05	-0.00034	0.00014	2
36450	0.0001	4e-05	3e-05	-0.00064	-0.00025	-2e-05	-0.00034	0.00014	2
36451	0.0001	4e-05	3e-05	-0.00064	-0.00025	-2e-05	-0.00034	0.00014	2
36452	0.0001	4e-05	3e-05	-0.00064	-0.00025	-2e-05	-0.00034	0.00014	2
36453	0.0001	4e-05	3e-05	-0.00064	-0.00025	-2e-05	-0.00034	0.00014	2
36454	0.0001	4e-05	3e-05	-0.00064	-0.00025	-2e-05	-0.00034	0.00014	2
36455	0.0001	4e-05	3e-05	-0.00064	-0.00025	-2e-05	-0.00034	0.00014	2
36456	0.0001	4e-05	3e-05	-0.00064	-0.00025	-2e-05	-0.00034	0.00014	2
36457	0.0001	4e-05	3e-05	-0.00064	-0.00025	-2e-05	-0.00034	0.00014	2
36458	0.0001	4e-05	3e-05	-0.00064	-0.00025	-2e-05	-0.00034	0.00014	2
36459	0.0001	4e-05	3e-05	-0.00064	-0.00025	-2e-05	-0.00034	0.00014	2
36460	0.0001	4e-05	3e-05	-0.00064	-0.00025	-2e-05	-0.00034	0.00014	2
36461	0.0001	4e-05	3e-05	-0.00064	-0.00025	-2e-05	-0.00034	0.00014	2
36462	0.0001	4e-05	3e-05	-0.00064	-0.00025	-2e-05	-0.00034	0.00014	2
36463	0.0001	4e-05	3e-05	-0.00064	-0.00025	-2e-05	-0.00034	0.00014	2
36464	0.0001	4e-05	3e-05	-0.00064	-0.00025	-2e-05	-0.00034	0.00014	2
36465	0.0001	4e-05	3e-05	-0.00064	-0.00025	-2e-05	-0.00034	0.00014	2
36466	0.0001	4e-05	3e-05	-0.00064	-0.00025	-2e-05	-0.00034	0.00014	2
36467	0.0001	4e-05	3e-05	-0.00064	-0.00025	-2e-05	-0.00034	0.00014	2
36468	-0.00023	-4e-05	-4e-05	-0.00037	-0.00014	-0.00012	-0.00013	0	2
36469	-0.00023	-4e-05	-4e-05	-0.00037	-0.00014	-0.00012	-0.00013	0	2
36470	-5e-05	-6e-05	-7e-05	-0.0007	-0.00025	-9e-05	-0.00031	6e-05	2
36471	-5e-05	-6e-05	-7e-05	-0.0007	-0.00025	-9e-05	-0.00031	6e-05	2
36472	-5e-05	-6e-05	-7e-05	-0.0007	-0.00025	-9e-05	-0.00031	6e-05	2
36473	-5e-05	-6e-05	-7e-05	-0.0007	-0.00025	-9e-05	-0.00031	6e-05	2
36474	-5e-05	-6e-05	-7e-05	-0.0007	-0.00025	-9e-05	-0.00031	6e-05	2
36475	-5e-05	-6e-05	-7e-05	-0.0007	-0.00025	-9e-05	-0.00031	6e-05	2
36476	-5e-05	-6e-05	-7e-05	-0.0007	-0.00025	-9e-05	-0.00031	6e-05	2
36477	-5e-05	-6e-05	-7e-05	-0.0007	-0.00025	-9e-05	-0.00031	6e-05	2
36478	-5e-05	-6e-05	-7e-05	-0.0007	-0.00025	-9e-05	-0.00031	6e-05	2
36479	-5e-05	-6e-05	-7e-05	-0.0007	-0.00025	-9e-05	-0.00031	6e-05	2
36480	-5e-05	-6e-05	-7e-05	-0.0007	-0.00025	-9e-05	-0.00031	6e-05	2
36481	-6e-05	-5e-05	-4e-05	0.00022	-8e-05	5e-05	-0.00027	-8e-05	2
36482	-6e-05	-5e-05	-4e-05	0.00022	-8e-05	5e-05	-0.00027	-8e-05	2
36483	-6e-05	-5e-05	-4e-05	0.00022	-8e-05	5e-05	-0.00027	-8e-05	2
36484	-6e-05	-5e-05	-4e-05	0.00022	-8e-05	5e-05	-0.00027	-8e-05	2
36485	-6e-05	-5e-05	-4e-05	0.00022	-8e-05	5e-05	-0.00027	-8e-05	2
36486	-6e-05	-5e-05	-4e-05	0.00022	-8e-05	5e-05	-0.00027	-8e-05	2
36488	-6e-05	-5e-05	-4e-05	0.00022	-8e-05	5e-05	-0.00027	-8e-05	2
36490	2e-05	0	8e-05	0.00015	-3e-05	1e-05	0.0007	0.00013	2
36491	2e-05	0	8e-05	0.00015	-3e-05	1e-05	0.0007	0.00013	2
36492	2e-05	0	8e-05	0.00015	-3e-05	1e-05	0.0007	0.00013	2
36493	2e-05	0	8e-05	0.00015	-3e-05	1e-05	0.0007	0.00013	2
36494	2e-05	0	8e-05	0.00015	-3e-05	1e-05	0.0007	0.00013	2
36495	2e-05	0	8e-05	0.00015	-3e-05	1e-05	0.0007	0.00013	2
36496	2e-05	0	8e-05	0.00015	-3e-05	1e-05	0.0007	0.00013	2
36497	2e-05	0	8e-05	0.00015	-3e-05	1e-05	0.0007	0.00013	2
36498	2e-05	0	8e-05	0.00015	-3e-05	1e-05	0.0007	0.00013	2
36499	2e-05	0	8e-05	0.00015	-3e-05	1e-05	0.0007	0.00013	2
36500	2e-05	0	8e-05	0.00015	-3e-05	1e-05	0.0007	0.00013	2
36501	2e-05	0	8e-05	0.00015	-3e-05	1e-05	0.0007	0.00013	2
36502	2e-05	0	8e-05	0.00015	-3e-05	1e-05	0.0007	0.00013	2
36503	2e-05	0	8e-05	0.00015	-3e-05	1e-05	0.0007	0.00013	2
36504	2e-05	0	8e-05	0.00015	-3e-05	1e-05	0.0007	0.00013	2
36505	2e-05	0	8e-05	0.00015	-3e-05	1e-05	0.0007	0.00013	2
36506	-0.00026	-0.00015	1e-05	0.00026	-6e-05	-0.00038	0.001	-6e-05	2
36507	-0.00014	-4e-05	-0.00012	-0.00018	0.00011	0.00024	0.00092	3e-05	2
36508	-0.00014	-4e-05	-0.00012	-0.00018	0.00011	0.00024	0.00092	3e-05	2
36509	-0.00014	-4e-05	-0.00012	-0.00018	0.00011	0.00024	0.00092	3e-05	2
36510	-0.00014	-4e-05	-0.00012	-0.00018	0.00011	0.00024	0.00092	3e-05	2
36511	-0.00014	-4e-05	-0.00012	-0.00018	0.00011	0.00024	0.00092	3e-05	2
36512	-0.00014	-4e-05	-0.00012	-0.00018	0.00011	0.00024	0.00092	3e-05	2
36513	-0.00014	-4e-05	-0.00012	-0.00018	0.00011	0.00024	0.00092	3e-05	2
36514	-0.00014	-4e-05	-0.00012	-0.00018	0.00011	0.00024	0.00092	3e-05	2
36515	-0.00014	-4e-05	-0.00012	-0.00018	0.00011	0.00024	0.00092	3e-05	2
36516	-0.00014	-4e-05	-0.00012	-0.00018	0.00011	0.00024	0.00092	3e-05	2
36517	-0.00014	-4e-05	-0.00012	-0.00018	0.00011	0.00024	0.00092	3e-05	2
36518	-0.00014	-4e-05	-0.00012	-0.00018	0.00011	0.00024	0.00092	3e-05	2
36519	-0.00014	-4e-05	-0.00012	-0.00018	0.00011	0.00024	0.00092	3e-05	2
36520	-0.00014	-4e-05	-0.00012	-0.00018	0.00011	0.00024	0.00092	3e-05	2
36521	-0.00014	-4e-05	-0.00012	-0.00018	0.00011	0.00024	0.00092	3e-05	2
36522	-0.00014	-4e-05	-0.00012	-0.00018	0.00011	0.00024	0.00092	3e-05	2
36523	-0.00014	-4e-05	-0.00012	-0.00018	0.00011	0.00024	0.00092	3e-05	2
36524	-0.00014	-4e-05	-0.00012	-0.00018	0.00011	0.00024	0.00092	3e-05	2
36525	-0.00014	-4e-05	-0.00012	-0.00018	0.00011	0.00024	0.00092	3e-05	2
36526	-0.00014	-4e-05	-0.00012	-0.00018	0.00011	0.00024	0.00092	3e-05	2
36527	-0.00014	-4e-05	-0.00012	-0.00018	0.00011	0.00024	0.00092	3e-05	2
36528	-2e-05	-3e-05	-0.00016	-0.00053	-8e-05	-5e-05	-0.00074	-0.0001	2
36529	-4e-05	3e-05	-3e-05	0.00044	1e-05	-0.00015	-0.00031	-0.00027	2
36530	-4e-05	3e-05	-3e-05	0.00044	1e-05	-0.00015	-0.00031	-0.00027	2
36531	-4e-05	3e-05	-3e-05	0.00044	1e-05	-0.00015	-0.00031	-0.00027	2
36532	-4e-05	3e-05	-3e-05	0.00044	1e-05	-0.00015	-0.00031	-0.00027	2
36533	-4e-05	3e-05	-3e-05	0.00044	1e-05	-0.00015	-0.00031	-0.00027	2
36534	-4e-05	3e-05	-3e-05	0.00044	1e-05	-0.00015	-0.00031	-0.00027	2
36535	-4e-05	3e-05	-3e-05	0.00044	1e-05	-0.00015	-0.00031	-0.00027	2
36536	-4e-05	3e-05	-3e-05	0.00044	1e-05	-0.00015	-0.00031	-0.00027	2
36538	-4e-05	3e-05	-3e-05	0.00044	1e-05	-0.00015	-0.00031	-0.00027	2
36539	-4e-05	3e-05	-3e-05	0.00044	1e-05	-0.00015	-0.00031	-0.00027	2
36540	-4e-05	3e-05	-3e-05	0.00044	1e-05	-0.00015	-0.00031	-0.00027	2
36541	-4e-05	3e-05	-3e-05	0.00044	1e-05	-0.00015	-0.00031	-0.00027	2
36542	-4e-05	3e-05	-3e-05	0.00044	1e-05	-0.00015	-0.00031	-0.00027	2
36543	-4e-05	3e-05	-3e-05	0.00044	1e-05	-0.00015	-0.00031	-0.00027	2
36544	-4e-05	3e-05	-3e-05	0.00044	1e-05	-0.00015	-0.00031	-0.00027	2
36545	-4e-05	3e-05	-3e-05	0.00044	1e-05	-0.00015	-0.00031	-0.00027	2
36546	-4e-05	3e-05	-3e-05	0.00044	1e-05	-0.00015	-0.00031	-0.00027	2
36547	-4e-05	3e-05	-3e-05	0.00044	1e-05	-0.00015	-0.00031	-0.00027	2
36548	-4e-05	3e-05	-3e-05	0.00044	1e-05	-0.00015	-0.00031	-0.00027	2
36549	-4e-05	3e-05	-3e-05	0.00044	1e-05	-0.00015	-0.00031	-0.00027	2
36550	-0.00011	-3e-05	8e-05	1e-05	0.00046	-6e-05	-0.00086	-0.00037	2
36551	-0.00011	-3e-05	8e-05	1e-05	0.00046	-6e-05	-0.00086	-0.00037	2
36552	0.00015	0.00011	-4e-05	2e-05	-1e-05	7e-05	-0.00077	-3e-05	2
36553	0.00015	0.00011	-4e-05	2e-05	-1e-05	7e-05	-0.00077	-3e-05	2
36554	0.00015	0.00011	-4e-05	2e-05	-1e-05	7e-05	-0.00077	-3e-05	2
36555	0.00015	0.00011	-4e-05	2e-05	-1e-05	7e-05	-0.00077	-3e-05	2
36556	0.00015	0.00011	-4e-05	2e-05	-1e-05	7e-05	-0.00077	-3e-05	2
36557	0.00015	0.00011	-4e-05	2e-05	-1e-05	7e-05	-0.00077	-3e-05	2
36558	0.00015	0.00011	-4e-05	2e-05	-1e-05	7e-05	-0.00077	-3e-05	2
36559	0.00015	0.00011	-4e-05	2e-05	-1e-05	7e-05	-0.00077	-3e-05	2
36560	0.00015	0.00011	-4e-05	2e-05	-1e-05	7e-05	-0.00077	-3e-05	2
36561	0.00015	0.00011	-4e-05	2e-05	-1e-05	7e-05	-0.00077	-3e-05	2
36562	0.00015	0.00011	-4e-05	2e-05	-1e-05	7e-05	-0.00077	-3e-05	2
36563	0.00015	0.00011	-4e-05	2e-05	-1e-05	7e-05	-0.00077	-3e-05	2
36564	0.00015	0.00011	-4e-05	2e-05	-1e-05	7e-05	-0.00077	-3e-05	2
36565	-0.00025	-0.00011	-7e-05	-0.00032	-2e-05	0.0002	0.0005	0	2
36566	8e-05	7e-05	8e-05	-0.00023	-0.00014	-0.0002	0.00046	0.00017	2
36567	-0.00016	-0.00017	-6e-05	0.00035	0.00052	0.00017	6e-05	-4e-05	2
36568	-0.00016	-0.00017	-6e-05	0.00035	0.00052	0.00017	6e-05	-4e-05	2
36569	-0.00016	-0.00017	-6e-05	0.00035	0.00052	0.00017	6e-05	-4e-05	2
36570	-0.00016	-0.00017	-6e-05	0.00035	0.00052	0.00017	6e-05	-4e-05	2
36571	-0.00016	-0.00017	-6e-05	0.00035	0.00052	0.00017	6e-05	-4e-05	2
36572	-0.00016	-0.00017	-6e-05	0.00035	0.00052	0.00017	6e-05	-4e-05	2
36573	-0.00016	-0.00017	-6e-05	0.00035	0.00052	0.00017	6e-05	-4e-05	2
36574	-0.00016	-0.00017	-6e-05	0.00035	0.00052	0.00017	6e-05	-4e-05	2
36575	-0.00016	-0.00017	-6e-05	0.00035	0.00052	0.00017	6e-05	-4e-05	2
36576	-0.00016	-0.00017	-6e-05	0.00035	0.00052	0.00017	6e-05	-4e-05	2
36577	-0.00016	-0.00017	-6e-05	0.00035	0.00052	0.00017	6e-05	-4e-05	2
36578	-0.00016	-0.00017	-6e-05	0.00035	0.00052	0.00017	6e-05	-4e-05	2
36579	-0.00016	-0.00017	-6e-05	0.00035	0.00052	0.00017	6e-05	-4e-05	2
36580	-0.00016	-0.00017	-6e-05	0.00035	0.00052	0.00017	6e-05	-4e-05	2
36581	-0.00016	-0.00017	-6e-05	0.00035	0.00052	0.00017	6e-05	-4e-05	2
