16543	-5e-05	-7e-05	-0.00012	-0.00033	1e-05	-3e-05	-4e-05	-4e-05	4
16544	-5e-05	-7e-05	-0.00012	-0.00033	1e-05	-3e-05	-4e-05	-4e-05	4
16545	-5e-05	-7e-05	-0.00012	-0.00033	1e-05	-3e-05	-4e-05	-4e-05	4
16546	-5e-05	-7e-05	-0.00012	-0.00033	1e-05	-3e-05	-4e-05	-4e-05	4
16547	-3e-05	-0.00012	-0.00021	-0.0003	-0.00012	-1e-05	-0.00014	-2e-05	4
16548	-3e-05	-0.00012	-0.00021	-0.0003	-0.00012	-1e-05	-0.00014	-2e-05	4
16549	-6e-05	-6e-05	-2e-05	0	0.00028	-0.00014	-0.00016	-9e-05	4
16550	1e-05	5e-05	0.0001	0.00021	-0.00023	-0.00027	-2e-05	2e-05	4
16551	1e-05	5e-05	0.0001	0.00021	-0.00023	-0.00027	-2e-05	2e-05	4
16552	1e-05	5e-05	0.0001	0.00021	-0.00023	-0.00027	-2e-05	2e-05	4
16553	1e-05	5e-05	0.0001	0.00021	-0.00023	-0.00027	-2e-05	2e-05	4
16554	1e-05	5e-05	0.0001	0.00021	-0.00023	-0.00027	-2e-05	2e-05	4
16555	1e-05	5e-05	0.0001	0.00021	-0.00023	-0.00027	-2e-05	2e-05	4
16556	1e-05	5e-05	0.0001	0.00021	-0.00023	-0.00027	-2e-05	2e-05	4
16557	1e-05	5e-05	0.0001	0.00021	-0.00023	-0.00027	-2e-05	2e-05	4
16558	1e-05	5e-05	0.0001	0.00021	-0.00023	-0.00027	-2e-05	2e-05	4
16559	1e-05	5e-05	0.0001	0.00021	-0.00023	-0.00027	-2e-05	2e-05	4
16560	1e-05	5e-05	0.0001	0.00021	-0.00023	-0.00027	-2e-05	2e-05	4
16561	1e-05	5e-05	0.0001	0.00021	-0.00023	-0.00027	-2e-05	2e-05	4
16562	1e-05	5e-05	0.0001	0.00021	-0.00023	-0.00027	-2e-05	2e-05	4
16563	1e-05	5e-05	0.0001	0.00021	-0.00023	-0.00027	-2e-05	2e-05	4
16564	1e-05	5e-05	0.0001	0.00021	-0.00023	-0.00027	-2e-05	2e-05	4
16565	1e-05	5e-05	0.0001	0.00021	-0.00023	-0.00027	-2e-05	2e-05	4
16566	1e-05	5e-05	0.0001	0.00021	-0.00023	-0.00027	-2e-05	2e-05	4
16567	1e-05	5e-05	0.0001	0.00021	-0.00023	-0.00027	-2e-05	2e-05	4
16568	1e-05	5e-05	0.0001	0.00021	-0.00023	-0.00027	-2e-05	2e-05	4
16569	1e-05	5e-05	0.0001	0.00021	-0.00023	-0.00027	-2e-05	2e-05	4
16570	1e-05	5e-05	0.0001	0.00021	-0.00023	-0.00027	-2e-05	2e-05	4
16571	1e-05	5e-05	0.0001	0.00021	-0.00023	-0.00027	-2e-05	2e-05	4
16572	1e-05	5e-05	0.0001	0.00021	-0.00023	-0.00027	-2e-05	2e-05	4
16573	1e-05	5e-05	0.0001	0.00021	-0.00023	-0.00027	-2e-05	2e-05	4
16574	1e-05	5e-05	0.0001	0.00021	-0.00023	-0.00027	-2e-05	2e-05	4
16575	1e-05	5e-05	0.0001	0.00021	-0.00023	-0.00027	-2e-05	2e-05	4
16576	1e-05	5e-05	0.0001	0.00021	-0.00023	-0.00027	-2e-05	2e-05	4
16577	1e-05	5e-05	0.0001	0.00021	-0.00023	-0.00027	-2e-05	2e-05	4
16578	-6e-05	-4e-05	-5e-05	0.00012	6e-05	-0.00015	-0.0001	-6e-05	4
16579	0	2e-05	7e-05	0.00019	-7e-05	0.00042	0.00012	3e-05	4
16580	0	2e-05	7e-05	0.00019	-7e-05	0.00042	0.00012	3e-05	4
16581	0	2e-05	7e-05	0.00019	-7e-05	0.00042	0.00012	3e-05	4
16582	0	2e-05	7e-05	0.00019	-7e-05	0.00042	0.00012	3e-05	4
16583	0	2e-05	7e-05	0.00019	-7e-05	0.00042	0.00012	3e-05	4
16584	3e-05	3e-05	5e-05	0.00021	0.00038	0.00021	2e-05	0	4
16585	-1e-05	-4e-05	-6e-05	-6e-05	0.00019	7e-05	0	-1e-05	4
16586	-1e-05	-4e-05	-6e-05	-6e-05	0.00019	7e-05	0	-1e-05	4
16588	-1e-05	-3e-05	-0.00015	-0.00013	-0.00064	-0.00019	0	1e-05	4
16590	-1e-05	-3e-05	-0.00015	-0.00013	-0.00064	-0.00019	0	1e-05	4
16591	-1e-05	-3e-05	-0.00015	-0.00013	-0.00064	-0.00019	0	1e-05	4
16592	-1e-05	-3e-05	-0.00015	-0.00013	-0.00064	-0.00019	0	1e-05	4
16593	-1e-05	-3e-05	-0.00015	-0.00013	-0.00064	-0.00019	0	1e-05	4
16594	-1e-05	-3e-05	-0.00015	-0.00013	-0.00064	-0.00019	0	1e-05	4
16595	-1e-05	-3e-05	-0.00015	-0.00013	-0.00064	-0.00019	0	1e-05	4
16596	-1e-05	-3e-05	-0.00015	-0.00013	-0.00064	-0.00019	0	1e-05	4
16597	-1e-05	-3e-05	-0.00015	-0.00013	-0.00064	-0.00019	0	1e-05	4
16598	-1e-05	-3e-05	-0.00015	-0.00013	-0.00064	-0.00019	0	1e-05	4
16599	-1e-05	-3e-05	-0.00015	-0.00013	-0.00064	-0.00019	0	1e-05	4
16600	-1e-05	-3e-05	-0.00015	-0.00013	-0.00064	-0.00019	0	1e-05	4
16601	-1e-05	-3e-05	-0.00015	-0.00013	-0.00064	-0.00019	0	1e-05	4
16602	-1e-05	-3e-05	-0.00015	-0.00013	-0.00064	-0.00019	0	1e-05	4
16603	-1e-05	-3e-05	-0.00015	-0.00013	-0.00064	-0.00019	0	1e-05	4
16604	-1e-05	-3e-05	-0.00015	-0.00013	-0.00064	-0.00019	0	1e-05	4
16605	-1e-05	-3e-05	-0.00015	-0.00013	-0.00064	-0.00019	0	1e-05	4
16606	-1e-05	-3e-05	-0.00015	-0.00013	-0.00064	-0.00019	0	1e-05	4
16607	-1e-05	-3e-05	-0.00015	-0.00013	-0.00064	-0.00019	0	1e-05	4
16608	-1e-05	-3e-05	-0.00015	-0.00013	-0.00064	-0.00019	0	1e-05	4
16609	-1e-05	-3e-05	-0.00015	-0.00013	-0.00064	-0.00019	0	1e-05	4
16610	-1e-05	-3e-05	-0.00015	-0.00013	-0.00064	-0.00019	0	1e-05	4
16611	-1e-05	-3e-05	-0.00015	-0.00013	-0.00064	-0.00019	0	1e-05	4
16612	-1e-05	-3e-05	-0.00015	-0.00013	-0.00064	-0.00019	0	1e-05	4
16613	-1e-05	-3e-05	-0.00015	-0.00013	-0.00064	-0.00019	0	1e-05	4
16614	-1e-05	-3e-05	-0.00015	-0.00013	-0.00064	-0.00019	0	1e-05	4
16615	-1e-05	-3e-05	-0.00015	-0.00013	-0.00064	-0.00019	0	1e-05	4
16616	-1e-05	-3e-05	-0.00015	-0.00013	-0.00064	-0.00019	0	1e-05	4
16617	-1e-05	-3e-05	-0.00015	-0.00013	-0.00064	-0.00019	0	1e-05	4
16618	-1e-05	-3e-05	-0.00015	-0.00013	-0.00064	-0.00019	0	1e-05	4
16619	-1e-05	-3e-05	-0.00015	-0.00013	-0.00064	-0.00019	0	1e-05	4
16620	-1e-05	-3e-05	-0.00015	-0.00013	-0.00064	-0.00019	0	1e-05	4
16621	-1e-05	-3e-05	-0.00015	-0.00013	-0.00064	-0.00019	0	1e-05	4
16622	9e-05	0.00016	0.00012	8e-05	0.0006	0.00086	0.00026	0.00014	4
16623	2e-05	6e-05	4e-05	-7e-05	0	-0.0002	0.00012	7e-05	4
16624	2e-05	6e-05	4e-05	-7e-05	0	-0.0002	0.00012	7e-05	4
16625	2e-05	6e-05	4e-05	-7e-05	0	-0.0002	0.00012	7e-05	4
16626	2e-05	6e-05	4e-05	-7e-05	0	-0.0002	0.00012	7e-05	4
16627	2e-05	6e-05	4e-05	-7e-05	0	-0.0002	0.00012	7e-05	4
16628	-3e-05	-2e-05	0	0.0001	0.0005	0.00024	-8e-05	-3e-05	4
16629	-7e-05	-0.00012	-0.00011	-0.00028	-0.00075	-0.00077	-0.00022	-0.00012	4
16630	-2e-05	-1e-05	3e-05	-1e-05	0.00024	-0.00013	-7e-05	-2e-05	4
16631	-2e-05	-1e-05	3e-05	-1e-05	0.00024	-0.00013	-7e-05	-2e-05	4
16632	-2e-05	-1e-05	3e-05	-1e-05	0.00024	-0.00013	-7e-05	-2e-05	4
16633	-2e-05	-1e-05	3e-05	-1e-05	0.00024	-0.00013	-7e-05	-2e-05	4
16634	-2e-05	-1e-05	3e-05	-1e-05	0.00024	-0.00013	-7e-05	-2e-05	4
16635	-2e-05	-1e-05	3e-05	-1e-05	0.00024	-0.00013	-7e-05	-2e-05	4
16636	-2e-05	-1e-05	3e-05	-1e-05	0.00024	-0.00013	-7e-05	-2e-05	4
16638	-2e-05	-1e-05	3e-05	-1e-05	0.00024	-0.00013	-7e-05	-2e-05	4
16639	-2e-05	-1e-05	3e-05	-1e-05	0.00024	-0.00013	-7e-05	-2e-05	4
16640	-2e-05	-1e-05	3e-05	-1e-05	0.00024	-0.00013	-7e-05	-2e-05	4
16641	-2e-05	-1e-05	3e-05	-1e-05	0.00024	-0.00013	-7e-05	-2e-05	4
16642	-2e-05	-1e-05	3e-05	-1e-05	0.00024	-0.00013	-7e-05	-2e-05	4
16643	-2e-05	-1e-05	3e-05	-1e-05	0.00024	-0.00013	-7e-05	-2e-05	4
16644	-7e-05	-3e-05	-4e-05	-0.00014	-0.00038	-0.00053	-0.00015	-6e-05	4
16645	-1e-05	-3e-05	-7e-05	-1e-05	0.00029	0.00023	4e-05	-1e-05	4
16646	-1e-05	-3e-05	-7e-05	-1e-05	0.00029	0.00023	4e-05	-1e-05	4
16647	-1e-05	-3e-05	-7e-05	-1e-05	0.00029	0.00023	4e-05	-1e-05	4
16648	-1e-05	-3e-05	-7e-05	-1e-05	0.00029	0.00023	4e-05	-1e-05	4
16649	-1e-05	-3e-05	-7e-05	-1e-05	0.00029	0.00023	4e-05	-1e-05	4
16650	-1e-05	-3e-05	-7e-05	-1e-05	0.00029	0.00023	4e-05	-1e-05	4
16651	-1e-05	-3e-05	-7e-05	-1e-05	0.00029	0.00023	4e-05	-1e-05	4
16652	-1e-05	-3e-05	-7e-05	-1e-05	0.00029	0.00023	4e-05	-1e-05	4
16653	-1e-05	-3e-05	-7e-05	-1e-05	0.00029	0.00023	4e-05	-1e-05	4
16654	-1e-05	-3e-05	-7e-05	-1e-05	0.00029	0.00023	4e-05	-1e-05	4
16655	-1e-05	-3e-05	-7e-05	-1e-05	0.00029	0.00023	4e-05	-1e-05	4
16656	-1e-05	-3e-05	-7e-05	-1e-05	0.00029	0.00023	4e-05	-1e-05	4
16657	-1e-05	-3e-05	-7e-05	-1e-05	0.00029	0.00023	4e-05	-1e-05	4
16658	-1e-05	-3e-05	-7e-05	-1e-05	0.00029	0.00023	4e-05	-1e-05	4
16659	-1e-05	-3e-05	-7e-05	-1e-05	0.00029	0.00023	4e-05	-1e-05	4
16660	-1e-05	-3e-05	-7e-05	-1e-05	0.00029	0.00023	4e-05	-1e-05	4
16661	-1e-05	-3e-05	-7e-05	-1e-05	0.00029	0.00023	4e-05	-1e-05	4
16662	-1e-05	-3e-05	-7e-05	-1e-05	0.00029	0.00023	4e-05	-1e-05	4
16663	-1e-05	-3e-05	-7e-05	-1e-05	0.00029	0.00023	4e-05	-1e-05	4
16664	-1e-05	-3e-05	-7e-05	-1e-05	0.00029	0.00023	4e-05	-1e-05	4
16665	-1e-05	-3e-05	-7e-05	-1e-05	0.00029	0.00023	4e-05	-1e-05	4
16666	-1e-05	-3e-05	-7e-05	-1e-05	0.00029	0.00023	4e-05	-1e-05	4
16667	-2e-05	4e-05	5e-05	0.00015	7e-05	0.00018	-4e-05	-2e-05	4
16668	-2e-05	4e-05	5e-05	0.00015	7e-05	0.00018	-4e-05	-2e-05	4
16670	-2e-05	4e-05	5e-05	0.00015	7e-05	0.00018	-4e-05	-2e-05	4
16671	-2e-05	4e-05	5e-05	0.00015	7e-05	0.00018	-4e-05	-2e-05	4
16672	-3e-05	-2e-05	2e-05	0.00018	0.00027	-0.00021	-8e-05	-5e-05	4
16673	-3e-05	-2e-05	2e-05	0.00018	0.00027	-0.00021	-8e-05	-5e-05	4
16674	-3e-05	-2e-05	2e-05	0.00018	0.00027	-0.00021	-8e-05	-5e-05	4
16675	-3e-05	-2e-05	2e-05	0.00018	0.00027	-0.00021	-8e-05	-5e-05	4
16676	-3e-05	-2e-05	2e-05	0.00018	0.00027	-0.00021	-8e-05	-5e-05	4
16677	-3e-05	-2e-05	2e-05	0.00018	0.00027	-0.00021	-8e-05	-5e-05	4
16678	-3e-05	-2e-05	2e-05	0.00018	0.00027	-0.00021	-8e-05	-5e-05	4
16679	-3e-05	-2e-05	2e-05	0.00018	0.00027	-0.00021	-8e-05	-5e-05	4
16680	-3e-05	-2e-05	2e-05	0.00018	0.00027	-0.00021	-8e-05	-5e-05	4
16681	-3e-05	-2e-05	2e-05	0.00018	0.00027	-0.00021	-8e-05	-5e-05	4
16683	-3e-05	-2e-05	2e-05	0.00018	0.00027	-0.00021	-8e-05	-5e-05	4
16684	-3e-05	-2e-05	2e-05	0.00018	0.00027	-0.00021	-8e-05	-5e-05	4
16685	-3e-05	-2e-05	2e-05	0.00018	0.00027	-0.00021	-8e-05	-5e-05	4
16686	-3e-05	-2e-05	2e-05	0.00018	0.00027	-0.00021	-8e-05	-5e-05	4
16688	-3e-05	-2e-05	2e-05	0.00018	0.00027	-0.00021	-8e-05	-5e-05	4
16689	5e-05	6e-05	-4e-05	-0.00032	0.00057	0.00013	9e-05	4e-05	4
16690	5e-05	6e-05	-4e-05	-0.00032	0.00057	0.00013	9e-05	4e-05	4
16691	-5e-05	-0.00011	-8e-05	4e-05	0.00082	0.00047	-4e-05	-5e-05	4
16692	-5e-05	-0.00011	-8e-05	4e-05	0.00082	0.00047	-4e-05	-5e-05	4
16693	-5e-05	-0.00011	-8e-05	4e-05	0.00082	0.00047	-4e-05	-5e-05	4
16694	-5e-05	-0.00011	-8e-05	4e-05	0.00082	0.00047	-4e-05	-5e-05	4
16695	-5e-05	-0.00011	-8e-05	4e-05	0.00082	0.00047	-4e-05	-5e-05	4
16696	-5e-05	-0.00011	-8e-05	4e-05	0.00082	0.00047	-4e-05	-5e-05	4
16697	-5e-05	-0.00011	-8e-05	4e-05	0.00082	0.00047	-4e-05	-5e-05	4
16698	-5e-05	-0.00011	-8e-05	4e-05	0.00082	0.00047	-4e-05	-5e-05	4
16699	-5e-05	-0.00011	-8e-05	4e-05	0.00082	0.00047	-4e-05	-5e-05	4
16700	-5e-05	-0.00011	-8e-05	4e-05	0.00082	0.00047	-4e-05	-5e-05	4
16701	-5e-05	-0.00011	-8e-05	4e-05	0.00082	0.00047	-4e-05	-5e-05	4
16702	-5e-05	-0.00011	-8e-05	4e-05	0.00082	0.00047	-4e-05	-5e-05	4
16703	-2e-05	-1e-05	2e-05	0.00018	0.00038	0.00023	0	-4e-05	4
16704	-2e-05	-1e-05	2e-05	0.00018	0.00038	0.00023	0	-4e-05	4
16705	-2e-05	-1e-05	2e-05	0.00018	0.00038	0.00023	0	-4e-05	4
16706	-2e-05	-1e-05	2e-05	0.00018	0.00038	0.00023	0	-4e-05	4
16707	-2e-05	-1e-05	2e-05	0.00018	0.00038	0.00023	0	-4e-05	4
16708	-2e-05	-1e-05	2e-05	0.00018	0.00038	0.00023	0	-4e-05	4
16709	-2e-05	-1e-05	2e-05	0.00018	0.00038	0.00023	0	-4e-05	4
16710	-2e-05	-1e-05	2e-05	0.00018	0.00038	0.00023	0	-4e-05	4
16711	-2e-05	-1e-05	2e-05	0.00018	0.00038	0.00023	0	-4e-05	4
16712	0	-1e-05	1e-05	0	-0.00047	-0.00019	-8e-05	-1e-05	4
16713	0	-1e-05	1e-05	0	-0.00047	-0.00019	-8e-05	-1e-05	4
16714	0	-1e-05	1e-05	0	-0.00047	-0.00019	-8e-05	-1e-05	4
16715	0	-1e-05	1e-05	0	-0.00047	-0.00019	-8e-05	-1e-05	4
16716	0	-1e-05	1e-05	0	-0.00047	-0.00019	-8e-05	-1e-05	4
16717	0	-1e-05	1e-05	0	-0.00047	-0.00019	-8e-05	-1e-05	4
16718	0	-1e-05	1e-05	0	-0.00047	-0.00019	-8e-05	-1e-05	4
16719	0	-1e-05	1e-05	0	-0.00047	-0.00019	-8e-05	-1e-05	4
16720	0	-1e-05	1e-05	0	-0.00047	-0.00019	-8e-05	-1e-05	4
16721	0	-1e-05	1e-05	0	-0.00047	-0.00019	-8e-05	-1e-05	4
16722	0	-1e-05	1e-05	0	-0.00047	-0.00019	-8e-05	-1e-05	4
16723	0	-1e-05	1e-05	0	-0.00047	-0.00019	-8e-05	-1e-05	4
16724	0	-1e-05	1e-05	0	-0.00047	-0.00019	-8e-05	-1e-05	4
16725	0	-1e-05	1e-05	0	-0.00047	-0.00019	-8e-05	-1e-05	4
16726	0	-1e-05	4e-05	2e-05	-0.0003	0.00049	4e-05	-1e-05	4
16727	7e-05	1e-05	8e-05	0.0005	0.0008	0.00022	8e-05	3e-05	4
16728	7e-05	1e-05	8e-05	0.0005	0.0008	0.00022	8e-05	3e-05	4
16729	7e-05	1e-05	8e-05	0.0005	0.0008	0.00022	8e-05	3e-05	4
16730	7e-05	1e-05	8e-05	0.0005	0.0008	0.00022	8e-05	3e-05	4
16731	7e-05	1e-05	8e-05	0.0005	0.0008	0.00022	8e-05	3e-05	4
16732	7e-05	1e-05	8e-05	0.0005	0.0008	0.00022	8e-05	3e-05	4
16733	7e-05	1e-05	8e-05	0.0005	0.0008	0.00022	8e-05	3e-05	4
16734	7e-05	1e-05	8e-05	0.0005	0.0008	0.00022	8e-05	3e-05	4
16735	7e-05	1e-05	8e-05	0.0005	0.0008	0.00022	8e-05	3e-05	4
16736	7e-05	1e-05	8e-05	0.0005	0.0008	0.00022	8e-05	3e-05	4
16738	7e-05	1e-05	8e-05	0.0005	0.0008	0.00022	8e-05	3e-05	4
16739	7e-05	1e-05	8e-05	0.0005	0.0008	0.00022	8e-05	3e-05	4
16740	7e-05	1e-05	8e-05	0.0005	0.0008	0.00022	8e-05	3e-05	4
16741	7e-05	1e-05	8e-05	0.0005	0.0008	0.00022	8e-05	3e-05	4
16742	7e-05	1e-05	8e-05	0.0005	0.0008	0.00022	8e-05	3e-05	4
16743	7e-05	1e-05	8e-05	0.0005	0.0008	0.00022	8e-05	3e-05	4
16744	7e-05	1e-05	8e-05	0.0005	0.0008	0.00022	8e-05	3e-05	4
16745	7e-05	1e-05	8e-05	0.0005	0.0008	0.00022	8e-05	3e-05	4
16746	7e-05	1e-05	8e-05	0.0005	0.0008	0.00022	8e-05	3e-05	4
16747	7e-05	1e-05	8e-05	0.0005	0.0008	0.00022	8e-05	3e-05	4
16748	-3e-05	-6e-05	-4e-05	0.00013	0.00018	-0.0002	-4e-05	-3e-05	4
16749	-3e-05	-6e-05	-4e-05	0.00013	0.00018	-0.0002	-4e-05	-3e-05	4
16750	-3e-05	-6e-05	-4e-05	0.00013	0.00018	-0.0002	-4e-05	-3e-05	4
16751	-3e-05	-6e-05	-4e-05	0.00013	0.00018	-0.0002	-4e-05	-3e-05	4
16752	-3e-05	-6e-05	-4e-05	0.00013	0.00018	-0.0002	-4e-05	-3e-05	4
16753	-3e-05	-6e-05	-4e-05	0.00013	0.00018	-0.0002	-4e-05	-3e-05	4
16754	-3e-05	-6e-05	-4e-05	0.00013	0.00018	-0.0002	-4e-05	-3e-05	4
16755	-3e-05	0	2e-05	2e-05	-0.00058	-0.00021	-9e-05	-2e-05	4
16756	-3e-05	0	2e-05	2e-05	-0.00058	-0.00021	-9e-05	-2e-05	4
16757	-3e-05	0	2e-05	2e-05	-0.00058	-0.00021	-9e-05	-2e-05	4
16758	-3e-05	0	2e-05	2e-05	-0.00058	-0.00021	-9e-05	-2e-05	4
16759	-3e-05	0	2e-05	2e-05	-0.00058	-0.00021	-9e-05	-2e-05	4
16760	-3e-05	0	2e-05	2e-05	-0.00058	-0.00021	-9e-05	-2e-05	4
16761	-3e-05	0	2e-05	2e-05	-0.00058	-0.00021	-9e-05	-2e-05	4
16762	-3e-05	0	2e-05	2e-05	-0.00058	-0.00021	-9e-05	-2e-05	4
16763	2e-05	-1e-05	0	-8e-05	0.00046	0.00024	7e-05	0	4
16764	2e-05	-1e-05	0	-8e-05	0.00046	0.00024	7e-05	0	4
16765	2e-05	-1e-05	0	-8e-05	0.00046	0.00024	7e-05	0	4
16766	2e-05	-1e-05	0	-8e-05	0.00046	0.00024	7e-05	0	4
16767	2e-05	-1e-05	0	-8e-05	0.00046	0.00024	7e-05	0	4
16768	2e-05	-1e-05	0	-8e-05	0.00046	0.00024	7e-05	0	4
16769	2e-05	-1e-05	0	-8e-05	0.00046	0.00024	7e-05	0	4
16770	0	-1e-05	-9e-05	-0.0001	0.00011	0.00027	-3e-05	0	4
16771	0	-1e-05	-9e-05	-0.0001	0.00011	0.00027	-3e-05	0	4
16772	0	-1e-05	-9e-05	-0.0001	0.00011	0.00027	-3e-05	0	4
16773	0	-1e-05	-9e-05	-0.0001	0.00011	0.00027	-3e-05	0	4
16774	0	-1e-05	-9e-05	-0.0001	0.00011	0.00027	-3e-05	0	4
16775	0	-1e-05	-9e-05	-0.0001	0.00011	0.00027	-3e-05	0	4
16776	0	-1e-05	-9e-05	-0.0001	0.00011	0.00027	-3e-05	0	4
16777	0	-1e-05	-9e-05	-0.0001	0.00011	0.00027	-3e-05	0	4
16778	0	-1e-05	-9e-05	-0.0001	0.00011	0.00027	-3e-05	0	4
16779	0	-1e-05	-9e-05	-0.0001	0.00011	0.00027	-3e-05	0	4
16780	0	-1e-05	-9e-05	-0.0001	0.00011	0.00027	-3e-05	0	4
16781	0	-1e-05	-9e-05	-0.0001	0.00011	0.00027	-3e-05	0	4
16782	0	-1e-05	-9e-05	-0.0001	0.00011	0.00027	-3e-05	0	4
16783	0	-1e-05	-9e-05	-0.0001	0.00011	0.00027	-3e-05	0	4
16784	0	-1e-05	-9e-05	-0.0001	0.00011	0.00027	-3e-05	0	4
16785	0	-1e-05	-9e-05	-0.0001	0.00011	0.00027	-3e-05	0	4
16787	0	-1e-05	-9e-05	-0.0001	0.00011	0.00027	-3e-05	0	4
16789	0	-1e-05	-9e-05	-0.0001	0.00011	0.00027	-3e-05	0	4
16790	0	-1e-05	-9e-05	-0.0001	0.00011	0.00027	-3e-05	0	4
16791	0	-1e-05	-9e-05	-0.0001	0.00011	0.00027	-3e-05	0	4
16792	0	-1e-05	-9e-05	-0.0001	0.00011	0.00027	-3e-05	0	4
16793	0	-1e-05	-9e-05	-0.0001	0.00011	0.00027	-3e-05	0	4
16794	0	-1e-05	-9e-05	-0.0001	0.00011	0.00027	-3e-05	0	4
16795	0	-1e-05	-9e-05	-0.0001	0.00011	0.00027	-3e-05	0	4
16796	0	-1e-05	-9e-05	-0.0001	0.00011	0.00027	-3e-05	0	4
16797	0	-1e-05	-9e-05	-0.0001	0.00011	0.00027	-3e-05	0	4
16798	0	-1e-05	-9e-05	-0.0001	0.00011	0.00027	-3e-05	0	4
16799	0	-1e-05	-9e-05	-0.0001	0.00011	0.00027	-3e-05	0	4
16800	0	-1e-05	-9e-05	-0.0001	0.00011	0.00027	-3e-05	0	4
16801	-5e-05	-3e-05	-6e-05	-4e-05	-0.00032	8e-05	-9e-05	-4e-05	4
16802	-5e-05	-3e-05	-6e-05	-4e-05	-0.00032	8e-05	-9e-05	-4e-05	4
16803	-5e-05	-6e-05	-0.00011	3e-05	-0.00016	-0.00021	-7e-05	-3e-05	4
16804	-5e-05	-6e-05	-0.00011	3e-05	-0.00016	-0.00021	-7e-05	-3e-05	4
16805	-5e-05	-6e-05	-0.00011	3e-05	-0.00016	-0.00021	-7e-05	-3e-05	4
16806	-5e-05	-6e-05	-0.00011	3e-05	-0.00016	-0.00021	-7e-05	-3e-05	4
16807	-5e-05	-6e-05	-0.00011	3e-05	-0.00016	-0.00021	-7e-05	-3e-05	4
16808	-4e-05	-3e-05	-3e-05	-0.00011	0.00038	-0.00016	-6e-05	-4e-05	4
16809	3e-05	4e-05	0.00013	0.00036	0.00048	0.00025	0.00012	3e-05	4
16810	-4e-05	1e-05	7e-05	0.00018	0.0003	-0.00042	7e-05	-1e-05	4
16811	-4e-05	1e-05	7e-05	0.00018	0.0003	-0.00042	7e-05	-1e-05	4
16812	-4e-05	1e-05	7e-05	0.00018	0.0003	-0.00042	7e-05	-1e-05	4
16813	-4e-05	1e-05	7e-05	0.00018	0.0003	-0.00042	7e-05	-1e-05	4
16814	-4e-05	1e-05	7e-05	0.00018	0.0003	-0.00042	7e-05	-1e-05	4
16815	-4e-05	1e-05	7e-05	0.00018	0.0003	-0.00042	7e-05	-1e-05	4
16816	-4e-05	1e-05	7e-05	0.00018	0.0003	-0.00042	7e-05	-1e-05	4
16817	-4e-05	1e-05	7e-05	0.00018	0.0003	-0.00042	7e-05	-1e-05	4
16818	-4e-05	1e-05	7e-05	0.00018	0.0003	-0.00042	7e-05	-1e-05	4
16819	-4e-05	1e-05	7e-05	0.00018	0.0003	-0.00042	7e-05	-1e-05	4
16820	-4e-05	1e-05	7e-05	0.00018	0.0003	-0.00042	7e-05	-1e-05	4
16821	-4e-05	1e-05	7e-05	0.00018	0.0003	-0.00042	7e-05	-1e-05	4
16822	-4e-05	1e-05	7e-05	0.00018	0.0003	-0.00042	7e-05	-1e-05	4
16823	-2e-05	-7e-05	-0.00012	-8e-05	0.00055	-0.00019	5e-05	-2e-05	4
16824	-3e-05	1e-05	-2e-05	4e-05	-0.00081	-0.00076	-3e-05	0	4
16825	-3e-05	1e-05	-2e-05	4e-05	-0.00081	-0.00076	-3e-05	0	4
16826	-3e-05	1e-05	-2e-05	4e-05	-0.00081	-0.00076	-3e-05	0	4
16827	-3e-05	1e-05	-2e-05	4e-05	-0.00081	-0.00076	-3e-05	0	4
16828	-3e-05	1e-05	-2e-05	4e-05	-0.00081	-0.00076	-3e-05	0	4
16829	-3e-05	1e-05	-2e-05	4e-05	-0.00081	-0.00076	-3e-05	0	4
16830	-3e-05	1e-05	-2e-05	4e-05	-0.00081	-0.00076	-3e-05	0	4
16831	-3e-05	1e-05	-2e-05	4e-05	-0.00081	-0.00076	-3e-05	0	4
16832	-3e-05	1e-05	-2e-05	4e-05	-0.00081	-0.00076	-3e-05	0	4
16833	-3e-05	1e-05	-2e-05	4e-05	-0.00081	-0.00076	-3e-05	0	4
16834	-3e-05	1e-05	-2e-05	4e-05	-0.00081	-0.00076	-3e-05	0	4
16835	-3e-05	1e-05	-2e-05	4e-05	-0.00081	-0.00076	-3e-05	0	4
16837	-3e-05	1e-05	-2e-05	4e-05	-0.00081	-0.00076	-3e-05	0	4
16839	-3e-05	1e-05	-2e-05	4e-05	-0.00081	-0.00076	-3e-05	0	4
16840	-3e-05	1e-05	-2e-05	4e-05	-0.00081	-0.00076	-3e-05	0	4
16841	-3e-05	1e-05	-2e-05	4e-05	-0.00081	-0.00076	-3e-05	0	4
16842	-3e-05	1e-05	-2e-05	4e-05	-0.00081	-0.00076	-3e-05	0	4
16843	-3e-05	1e-05	-2e-05	4e-05	-0.00081	-0.00076	-3e-05	0	4
16844	-3e-05	1e-05	-2e-05	4e-05	-0.00081	-0.00076	-3e-05	0	4
16845	-3e-05	1e-05	-2e-05	4e-05	-0.00081	-0.00076	-3e-05	0	4
16846	-3e-05	1e-05	-2e-05	4e-05	-0.00081	-0.00076	-3e-05	0	4
16847	4e-05	8e-05	9e-05	0.00027	-0.00016	3e-05	9e-05	7e-05	4
16848	1e-05	1e-05	-1e-05	-0.00011	0.00029	-0.0003	-7e-05	-1e-05	4
16849	-3e-05	-1e-05	2e-05	0.00016	0.00023	-0.00043	-0.00013	-6e-05	4
16850	-3e-05	-1e-05	2e-05	0.00016	0.00023	-0.00043	-0.00013	-6e-05	4
16851	-3e-05	-1e-05	2e-05	0.00016	0.00023	-0.00043	-0.00013	-6e-05	4
16852	-3e-05	-1e-05	2e-05	0.00016	0.00023	-0.00043	-0.00013	-6e-05	4
16853	-3e-05	-1e-05	2e-05	0.00016	0.00023	-0.00043	-0.00013	-6e-05	4
16854	-3e-05	-1e-05	2e-05	0.00016	0.00023	-0.00043	-0.00013	-6e-05	4
16855	-3e-05	-1e-05	2e-05	0.00016	0.00023	-0.00043	-0.00013	-6e-05	4
16856	-3e-05	-1e-05	2e-05	0.00016	0.00023	-0.00043	-0.00013	-6e-05	4
16857	-3e-05	-1e-05	2e-05	0.00016	0.00023	-0.00043	-0.00013	-6e-05	4
16858	-3e-05	-1e-05	2e-05	0.00016	0.00023	-0.00043	-0.00013	-6e-05	4
16859	-3e-05	-1e-05	2e-05	0.00016	0.00023	-0.00043	-0.00013	-6e-05	4
16860	-3e-05	-1e-05	2e-05	0.00016	0.00023	-0.00043	-0.00013	-6e-05	4
16861	-3e-05	-1e-05	2e-05	0.00016	0.00023	-0.00043	-0.00013	-6e-05	4
16862	-3e-05	-1e-05	2e-05	0.00016	0.00023	-0.00043	-0.00013	-6e-05	4
16863	-3e-05	-1e-05	2e-05	0.00016	0.00023	-0.00043	-0.00013	-6e-05	4
16864	-3e-05	-1e-05	2e-05	0.00016	0.00023	-0.00043	-0.00013	-6e-05	4
16865	-3e-05	-1e-05	2e-05	0.00016	0.00023	-0.00043	-0.00013	-6e-05	4
16866	-3e-05	-1e-05	2e-05	0.00016	0.00023	-0.00043	-0.00013	-6e-05	4
16867	-3e-05	-1e-05	2e-05	0.00016	0.00023	-0.00043	-0.00013	-6e-05	4
16868	-3e-05	-1e-05	2e-05	0.00016	0.00023	-0.00043	-0.00013	-6e-05	4
16869	-3e-05	-1e-05	2e-05	0.00016	0.00023	-0.00043	-0.00013	-6e-05	4
16870	-3e-05	-1e-05	2e-05	0.00016	0.00023	-0.00043	-0.00013	-6e-05	4
16871	-3e-05	-4e-05	-4e-05	-0.00011	-0.00059	3e-05	-4e-05	-2e-05	4
16872	-3e-05	-4e-05	-4e-05	-0.00011	-0.00059	3e-05	-4e-05	-2e-05	4
16873	-3e-05	-4e-05	-4e-05	-0.00011	-0.00059	3e-05	-4e-05	-2e-05	4
16874	-3e-05	-4e-05	-4e-05	-0.00011	-0.00059	3e-05	-4e-05	-2e-05	4
16875	-3e-05	-4e-05	-4e-05	-0.00011	-0.00059	3e-05	-4e-05	-2e-05	4
16876	-3e-05	-4e-05	-4e-05	-0.00011	-0.00059	3e-05	-4e-05	-2e-05	4
16877	-3e-05	-4e-05	-4e-05	-0.00011	-0.00059	3e-05	-4e-05	-2e-05	4
16878	-3e-05	-4e-05	-4e-05	-0.00011	-0.00059	3e-05	-4e-05	-2e-05	4
16879	-3e-05	-4e-05	-4e-05	-0.00011	-0.00059	3e-05	-4e-05	-2e-05	4
16880	-3e-05	-4e-05	-4e-05	-0.00011	-0.00059	3e-05	-4e-05	-2e-05	4
16881	-3e-05	-4e-05	-4e-05	-0.00011	-0.00059	3e-05	-4e-05	-2e-05	4
16882	-3e-05	-4e-05	-4e-05	-0.00011	-0.00059	3e-05	-4e-05	-2e-05	4
16883	0	-1e-05	-6e-05	-0.00034	-7e-05	1e-05	2e-05	-2e-05	4
16884	0	-1e-05	-6e-05	-0.00034	-7e-05	1e-05	2e-05	-2e-05	4
16885	0	-1e-05	-6e-05	-0.00034	-7e-05	1e-05	2e-05	-2e-05	4
16886	0	-1e-05	-6e-05	-0.00034	-7e-05	1e-05	2e-05	-2e-05	4
16888	0	-1e-05	-6e-05	-0.00034	-7e-05	1e-05	2e-05	-2e-05	4
16889	0	-1e-05	-6e-05	-0.00034	-7e-05	1e-05	2e-05	-2e-05	4
16890	0	1e-05	0	-0.0003	-0.00088	-0.00043	-2e-05	3e-05	4
16891	0	1e-05	0	-0.0003	-0.00088	-0.00043	-2e-05	3e-05	4
16892	0	1e-05	0	-0.0003	-0.00088	-0.00043	-2e-05	3e-05	4
16893	0	1e-05	0	-0.0003	-0.00088	-0.00043	-2e-05	3e-05	4
16894	0	1e-05	0	-0.0003	-0.00088	-0.00043	-2e-05	3e-05	4
16895	0	1e-05	0	-0.0003	-0.00088	-0.00043	-2e-05	3e-05	4
16896	0	1e-05	0	-0.0003	-0.00088	-0.00043	-2e-05	3e-05	4
16897	0	1e-05	0	-0.0003	-0.00088	-0.00043	-2e-05	3e-05	4
16898	0	1e-05	0	-0.0003	-0.00088	-0.00043	-2e-05	3e-05	4
16899	0	1e-05	0	-0.0003	-0.00088	-0.00043	-2e-05	3e-05	4
16900	0	1e-05	0	-0.0003	-0.00088	-0.00043	-2e-05	3e-05	4
16901	0	1e-05	0	-0.0003	-0.00088	-0.00043	-2e-05	3e-05	4
16902	0	1e-05	0	-0.0003	-0.00088	-0.00043	-2e-05	3e-05	4
16903	0	1e-05	0	-0.0003	-0.00088	-0.00043	-2e-05	3e-05	4
16904	0	1e-05	0	-0.0003	-0.00088	-0.00043	-2e-05	3e-05	4
16905	0	1e-05	0	-0.0003	-0.00088	-0.00043	-2e-05	3e-05	4
16906	-1e-05	-2e-05	-5e-05	-1e-05	1e-05	-0.00018	0	-1e-05	4
16907	-1e-05	-2e-05	-5e-05	-1e-05	1e-05	-0.00018	0	-1e-05	4
16908	1e-05	2e-05	8e-05	0.00017	-4e-05	9e-05	0	0	4
16909	1e-05	2e-05	8e-05	0.00017	-4e-05	9e-05	0	0	4
16910	1e-05	2e-05	8e-05	0.00017	-4e-05	9e-05	0	0	4
16911	1e-05	2e-05	8e-05	0.00017	-4e-05	9e-05	0	0	4
16912	1e-05	2e-05	8e-05	0.00017	-4e-05	9e-05	0	0	4
16913	1e-05	2e-05	8e-05	0.00017	-4e-05	9e-05	0	0	4
16914	1e-05	2e-05	8e-05	0.00017	-4e-05	9e-05	0	0	4
16915	1e-05	2e-05	8e-05	0.00017	-4e-05	9e-05	0	0	4
16916	1e-05	2e-05	8e-05	0.00017	-4e-05	9e-05	0	0	4
16917	1e-05	2e-05	8e-05	0.00017	-4e-05	9e-05	0	0	4
16918	1e-05	2e-05	8e-05	0.00017	-4e-05	9e-05	0	0	4
16919	1e-05	2e-05	8e-05	0.00017	-4e-05	9e-05	0	0	4
16920	1e-05	2e-05	8e-05	0.00017	-4e-05	9e-05	0	0	4
16921	1e-05	2e-05	8e-05	0.00017	-4e-05	9e-05	0	0	4
16922	1e-05	2e-05	8e-05	0.00017	-4e-05	9e-05	0	0	4
16923	1e-05	2e-05	8e-05	0.00017	-4e-05	9e-05	0	0	4
16924	1e-05	2e-05	8e-05	0.00017	-4e-05	9e-05	0	0	4
16925	1e-05	2e-05	8e-05	0.00017	-4e-05	9e-05	0	0	4
16926	1e-05	2e-05	8e-05	0.00017	-4e-05	9e-05	0	0	4
16927	1e-05	2e-05	8e-05	0.00017	-4e-05	9e-05	0	0	4
16928	1e-05	2e-05	8e-05	0.00017	-4e-05	9e-05	0	0	4
16929	-7e-05	-9e-05	-5e-05	0.00014	0.0009	-0.0002	-0.00018	-0.0001	4
16930	-7e-05	-9e-05	-5e-05	0.00014	0.0009	-0.0002	-0.00018	-0.0001	4
16931	1e-05	3e-05	7e-05	6e-05	0.00026	1e-05	4e-05	1e-05	4
16932	1e-05	3e-05	7e-05	6e-05	0.00026	1e-05	4e-05	1e-05	4
16933	1e-05	3e-05	7e-05	6e-05	0.00026	1e-05	4e-05	1e-05	4
16934	1e-05	3e-05	7e-05	6e-05	0.00026	1e-05	4e-05	1e-05	4
16935	1e-05	3e-05	7e-05	6e-05	0.00026	1e-05	4e-05	1e-05	4
16937	1e-05	3e-05	7e-05	6e-05	0.00026	1e-05	4e-05	1e-05	4
16939	1e-05	3e-05	7e-05	6e-05	0.00026	1e-05	4e-05	1e-05	4
16940	1e-05	3e-05	7e-05	6e-05	0.00026	1e-05	4e-05	1e-05	4
16941	1e-05	3e-05	7e-05	6e-05	0.00026	1e-05	4e-05	1e-05	4
16942	1e-05	3e-05	7e-05	6e-05	0.00026	1e-05	4e-05	1e-05	4
16943	-1e-05	-3e-05	2e-05	0.0002	0.00023	0.00012	3e-05	1e-05	4
16944	-1e-05	-3e-05	2e-05	0.0002	0.00023	0.00012	3e-05	1e-05	4
16945	-1e-05	-3e-05	2e-05	0.0002	0.00023	0.00012	3e-05	1e-05	4
16946	-1e-05	-3e-05	2e-05	0.0002	0.00023	0.00012	3e-05	1e-05	4
16947	-1e-05	-3e-05	2e-05	0.0002	0.00023	0.00012	3e-05	1e-05	4
16948	-1e-05	-3e-05	2e-05	0.0002	0.00023	0.00012	3e-05	1e-05	4
16949	-1e-05	-3e-05	2e-05	0.0002	0.00023	0.00012	3e-05	1e-05	4
16950	1e-05	-2e-05	2e-05	-5e-05	4e-05	0.00104	0.00022	3e-05	4
16951	1e-05	-2e-05	2e-05	-5e-05	4e-05	0.00104	0.00022	3e-05	4
16952	1e-05	-2e-05	2e-05	-5e-05	4e-05	0.00104	0.00022	3e-05	4
16953	1e-05	-2e-05	2e-05	-5e-05	4e-05	0.00104	0.00022	3e-05	4
16954	1e-05	-2e-05	2e-05	-5e-05	4e-05	0.00104	0.00022	3e-05	4
16955	1e-05	-2e-05	2e-05	-5e-05	4e-05	0.00104	0.00022	3e-05	4
16956	1e-05	-2e-05	2e-05	-5e-05	4e-05	0.00104	0.00022	3e-05	4
16957	1e-05	-2e-05	2e-05	-5e-05	4e-05	0.00104	0.00022	3e-05	4
16958	1e-05	-2e-05	2e-05	-5e-05	4e-05	0.00104	0.00022	3e-05	4
16959	1e-05	-2e-05	2e-05	-5e-05	4e-05	0.00104	0.00022	3e-05	4
16960	1e-05	-2e-05	2e-05	-5e-05	4e-05	0.00104	0.00022	3e-05	4
16961	1e-05	-2e-05	2e-05	-5e-05	4e-05	0.00104	0.00022	3e-05	4
16963	1e-05	-2e-05	2e-05	-5e-05	4e-05	0.00104	0.00022	3e-05	4
16964	1e-05	-2e-05	2e-05	-5e-05	4e-05	0.00104	0.00022	3e-05	4
16965	1e-05	-2e-05	2e-05	-5e-05	4e-05	0.00104	0.00022	3e-05	4
16966	-7e-05	-7e-05	-6e-05	-0.00017	-0.00048	-0.00019	-0.00011	-7e-05	4
16967	0	-1e-05	-9e-05	-0.00045	-0.00089	0.00021	6e-05	2e-05	4
16969	0	-1e-05	-9e-05	-0.00045	-0.00089	0.00021	6e-05	2e-05	4
16970	0	-1e-05	-9e-05	-0.00045	-0.00089	0.00021	6e-05	2e-05	4
16971	0	-1e-05	-9e-05	-0.00045	-0.00089	0.00021	6e-05	2e-05	4
16972	-4e-05	-2e-05	-5e-05	0	0.00044	-0.0001	-9e-05	-6e-05	4
16973	-4e-05	-2e-05	-5e-05	0	0.00044	-0.0001	-9e-05	-6e-05	4
16974	-4e-05	-2e-05	-5e-05	0	0.00044	-0.0001	-9e-05	-6e-05	4
16975	-4e-05	-2e-05	-5e-05	0	0.00044	-0.0001	-9e-05	-6e-05	4
16976	-4e-05	-2e-05	-5e-05	0	0.00044	-0.0001	-9e-05	-6e-05	4
16977	-4e-05	-2e-05	-5e-05	0	0.00044	-0.0001	-9e-05	-6e-05	4
16978	-4e-05	-2e-05	-5e-05	0	0.00044	-0.0001	-9e-05	-6e-05	4
16979	-4e-05	-2e-05	-5e-05	0	0.00044	-0.0001	-9e-05	-6e-05	4
16980	-4e-05	-2e-05	-5e-05	0	0.00044	-0.0001	-9e-05	-6e-05	4
16981	-4e-05	-2e-05	-5e-05	0	0.00044	-0.0001	-9e-05	-6e-05	4
16982	-4e-05	-2e-05	-5e-05	0	0.00044	-0.0001	-9e-05	-6e-05	4
16983	-4e-05	-2e-05	-5e-05	0	0.00044	-0.0001	-9e-05	-6e-05	4
16984	-4e-05	-2e-05	-5e-05	0	0.00044	-0.0001	-9e-05	-6e-05	4
16985	-4e-05	-2e-05	-5e-05	0	0.00044	-0.0001	-9e-05	-6e-05	4
16986	-4e-05	-2e-05	-5e-05	0	0.00044	-0.0001	-9e-05	-6e-05	4
16988	-4e-05	-2e-05	-5e-05	0	0.00044	-0.0001	-9e-05	-6e-05	4
16989	8e-05	9e-05	0.00012	-0.00012	-0.00022	5e-05	0.00018	0.00014	4
16990	8e-05	9e-05	0.00012	-0.00012	-0.00022	5e-05	0.00018	0.00014	4
16991	8e-05	9e-05	0.00012	-0.00012	-0.00022	5e-05	0.00018	0.00014	4
16992	8e-05	9e-05	0.00012	-0.00012	-0.00022	5e-05	0.00018	0.00014	4
16993	8e-05	9e-05	0.00012	-0.00012	-0.00022	5e-05	0.00018	0.00014	4
16994	8e-05	9e-05	0.00012	-0.00012	-0.00022	5e-05	0.00018	0.00014	4
16995	8e-05	9e-05	0.00012	-0.00012	-0.00022	5e-05	0.00018	0.00014	4
16996	-6e-05	-6e-05	-6e-05	-0.00012	-0.00032	-6e-05	-0.00015	-9e-05	4
16997	-6e-05	-6e-05	-6e-05	-0.00012	-0.00032	-6e-05	-0.00015	-9e-05	4
16998	-6e-05	-6e-05	-6e-05	-0.00012	-0.00032	-6e-05	-0.00015	-9e-05	4
16999	-6e-05	-6e-05	-6e-05	-0.00012	-0.00032	-6e-05	-0.00015	-9e-05	4
17000	-6e-05	-6e-05	-6e-05	-0.00012	-0.00032	-6e-05	-0.00015	-9e-05	4
17001	-6e-05	-6e-05	-6e-05	-0.00012	-0.00032	-6e-05	-0.00015	-9e-05	4
17002	-6e-05	-6e-05	-6e-05	-0.00012	-0.00032	-6e-05	-0.00015	-9e-05	4
17003	-3e-05	-2e-05	-1e-05	7e-05	-0.00011	-0.00021	-8e-05	-7e-05	4
17004	-3e-05	-2e-05	-1e-05	7e-05	-0.00011	-0.00021	-8e-05	-7e-05	4
17005	-3e-05	-2e-05	-1e-05	7e-05	-0.00011	-0.00021	-8e-05	-7e-05	4
17006	-3e-05	-2e-05	-1e-05	7e-05	-0.00011	-0.00021	-8e-05	-7e-05	4
17007	-3e-05	-2e-05	-1e-05	7e-05	-0.00011	-0.00021	-8e-05	-7e-05	4
17008	-3e-05	-2e-05	-1e-05	7e-05	-0.00011	-0.00021	-8e-05	-7e-05	4
17009	-3e-05	-2e-05	-1e-05	7e-05	-0.00011	-0.00021	-8e-05	-7e-05	4
17010	-2e-05	-6e-05	-9e-05	0.00019	0.00094	-0.00039	-9e-05	-2e-05	4
17011	-2e-05	-6e-05	-9e-05	0.00019	0.00094	-0.00039	-9e-05	-2e-05	4
17012	-2e-05	-6e-05	-9e-05	0.00019	0.00094	-0.00039	-9e-05	-2e-05	4
17013	-2e-05	-6e-05	-9e-05	0.00019	0.00094	-0.00039	-9e-05	-2e-05	4
17014	-2e-05	-6e-05	-9e-05	0.00019	0.00094	-0.00039	-9e-05	-2e-05	4
17015	-2e-05	-6e-05	-9e-05	0.00019	0.00094	-0.00039	-9e-05	-2e-05	4
17016	-2e-05	-6e-05	-9e-05	0.00019	0.00094	-0.00039	-9e-05	-2e-05	4
17017	-2e-05	-6e-05	-9e-05	0.00019	0.00094	-0.00039	-9e-05	-2e-05	4
17018	-2e-05	-6e-05	-9e-05	0.00019	0.00094	-0.00039	-9e-05	-2e-05	4
17019	-2e-05	-6e-05	-9e-05	0.00019	0.00094	-0.00039	-9e-05	-2e-05	4
17020	-2e-05	-6e-05	-9e-05	0.00019	0.00094	-0.00039	-9e-05	-2e-05	4
17021	-2e-05	-6e-05	-9e-05	0.00019	0.00094	-0.00039	-9e-05	-2e-05	4
17022	-2e-05	-6e-05	-9e-05	0.00019	0.00094	-0.00039	-9e-05	-2e-05	4
17023	-2e-05	-6e-05	-9e-05	0.00019	0.00094	-0.00039	-9e-05	-2e-05	4
17024	-2e-05	-6e-05	-9e-05	0.00019	0.00094	-0.00039	-9e-05	-2e-05	4
17025	-2e-05	-6e-05	-9e-05	0.00019	0.00094	-0.00039	-9e-05	-2e-05	4
17026	-4e-05	-4e-05	-4e-05	5e-05	9e-05	0.00039	-3e-05	-5e-05	4
17027	-4e-05	-4e-05	-4e-05	5e-05	9e-05	0.00039	-3e-05	-5e-05	4
17028	0	4e-05	2e-05	0.00016	0.00022	0.0001	1e-05	-3e-05	4
17029	0	4e-05	2e-05	0.00016	0.00022	0.0001	1e-05	-3e-05	4
17030	0	4e-05	2e-05	0.00016	0.00022	0.0001	1e-05	-3e-05	4
17031	0	4e-05	2e-05	0.00016	0.00022	0.0001	1e-05	-3e-05	4
17032	0	4e-05	2e-05	0.00016	0.00022	0.0001	1e-05	-3e-05	4
17033	0	4e-05	2e-05	0.00016	0.00022	0.0001	1e-05	-3e-05	4
17034	0	4e-05	2e-05	0.00016	0.00022	0.0001	1e-05	-3e-05	4
17035	0	4e-05	2e-05	0.00016	0.00022	0.0001	1e-05	-3e-05	4
17036	0	4e-05	2e-05	0.00016	0.00022	0.0001	1e-05	-3e-05	4
17039	0	4e-05	2e-05	0.00016	0.00022	0.0001	1e-05	-3e-05	4
17040	0	4e-05	2e-05	0.00016	0.00022	0.0001	1e-05	-3e-05	4
17041	0	4e-05	2e-05	0.00016	0.00022	0.0001	1e-05	-3e-05	4
17042	0	4e-05	2e-05	0.00016	0.00022	0.0001	1e-05	-3e-05	4
17043	0	4e-05	2e-05	0.00016	0.00022	0.0001	1e-05	-3e-05	4
17044	0	4e-05	2e-05	0.00016	0.00022	0.0001	1e-05	-3e-05	4
17045	0	4e-05	2e-05	0.00016	0.00022	0.0001	1e-05	-3e-05	4
17046	0	4e-05	2e-05	0.00016	0.00022	0.0001	1e-05	-3e-05	4
17047	0	4e-05	2e-05	0.00016	0.00022	0.0001	1e-05	-3e-05	4
17048	0	4e-05	2e-05	0.00016	0.00022	0.0001	1e-05	-3e-05	4
17049	-2e-05	-6e-05	-6e-05	0.0001	0.00011	-0.00029	-0.00013	-3e-05	4
17050	-2e-05	-6e-05	-6e-05	0.0001	0.00011	-0.00029	-0.00013	-3e-05	4
17051	1e-05	-3e-05	-9e-05	-0.00057	-0.00109	-4e-05	-4e-05	0	4
17052	1e-05	-3e-05	-9e-05	-0.00057	-0.00109	-4e-05	-4e-05	0	4
17053	1e-05	-3e-05	-9e-05	-0.00057	-0.00109	-4e-05	-4e-05	0	4
17054	1e-05	-3e-05	-9e-05	-0.00057	-0.00109	-4e-05	-4e-05	0	4
17055	1e-05	-3e-05	-9e-05	-0.00057	-0.00109	-4e-05	-4e-05	0	4
17056	1e-05	-3e-05	-9e-05	-0.00057	-0.00109	-4e-05	-4e-05	0	4
17058	1e-05	-3e-05	-9e-05	-0.00057	-0.00109	-4e-05	-4e-05	0	4
17059	1e-05	-3e-05	-9e-05	-0.00057	-0.00109	-4e-05	-4e-05	0	4
17060	1e-05	-3e-05	-9e-05	-0.00057	-0.00109	-4e-05	-4e-05	0	4
17061	1e-05	-3e-05	-9e-05	-0.00057	-0.00109	-4e-05	-4e-05	0	4
17062	-6e-05	-5e-05	-5e-05	-6e-05	-0.00024	-0.00043	-0.00018	-7e-05	4
17063	-6e-05	-5e-05	-5e-05	-6e-05	-0.00024	-0.00043	-0.00018	-7e-05	4
17064	-6e-05	-5e-05	-5e-05	-6e-05	-0.00024	-0.00043	-0.00018	-7e-05	4
17065	-6e-05	-5e-05	-5e-05	-6e-05	-0.00024	-0.00043	-0.00018	-7e-05	4
17066	-6e-05	-5e-05	-5e-05	-6e-05	-0.00024	-0.00043	-0.00018	-7e-05	4
17067	-6e-05	-5e-05	-5e-05	-6e-05	-0.00024	-0.00043	-0.00018	-7e-05	4
17068	-6e-05	-5e-05	-5e-05	-6e-05	-0.00024	-0.00043	-0.00018	-7e-05	4
17069	-6e-05	-5e-05	-5e-05	-6e-05	-0.00024	-0.00043	-0.00018	-7e-05	4
17070	-6e-05	-5e-05	-5e-05	-6e-05	-0.00024	-0.00043	-0.00018	-7e-05	4
17071	-6e-05	-5e-05	-5e-05	-6e-05	-0.00024	-0.00043	-0.00018	-7e-05	4
17072	-6e-05	-5e-05	-5e-05	-6e-05	-0.00024	-0.00043	-0.00018	-7e-05	4
17073	-6e-05	-5e-05	-5e-05	-6e-05	-0.00024	-0.00043	-0.00018	-7e-05	4
17074	-6e-05	-5e-05	-5e-05	-6e-05	-0.00024	-0.00043	-0.00018	-7e-05	4
17075	-6e-05	-5e-05	-5e-05	-6e-05	-0.00024	-0.00043	-0.00018	-7e-05	4
17076	-6e-05	-5e-05	-5e-05	-6e-05	-0.00024	-0.00043	-0.00018	-7e-05	4
17077	7e-05	9e-05	9e-05	-0.0004	-0.00037	0.0001	0.00016	0.00011	4
17078	7e-05	9e-05	9e-05	-0.0004	-0.00037	0.0001	0.00016	0.00011	4
17079	7e-05	9e-05	9e-05	-0.0004	-0.00037	0.0001	0.00016	0.00011	4
17080	7e-05	9e-05	9e-05	-0.0004	-0.00037	0.0001	0.00016	0.00011	4
17081	7e-05	9e-05	9e-05	-0.0004	-0.00037	0.0001	0.00016	0.00011	4
17082	7e-05	9e-05	9e-05	-0.0004	-0.00037	0.0001	0.00016	0.00011	4
17083	7e-05	9e-05	9e-05	-0.0004	-0.00037	0.0001	0.00016	0.00011	4
17084	7e-05	9e-05	9e-05	-0.0004	-0.00037	0.0001	0.00016	0.00011	4
17085	7e-05	9e-05	9e-05	-0.0004	-0.00037	0.0001	0.00016	0.00011	4
17086	7e-05	9e-05	9e-05	-0.0004	-0.00037	0.0001	0.00016	0.00011	4
17089	2e-05	3e-05	0.00011	0.00062	0.00037	-0.00034	-3e-05	-2e-05	4
17090	2e-05	3e-05	0.00011	0.00062	0.00037	-0.00034	-3e-05	-2e-05	4
17091	2e-05	3e-05	0.00011	0.00062	0.00037	-0.00034	-3e-05	-2e-05	4
17092	2e-05	3e-05	0.00011	0.00062	0.00037	-0.00034	-3e-05	-2e-05	4
17093	2e-05	3e-05	0.00011	0.00062	0.00037	-0.00034	-3e-05	-2e-05	4
17094	2e-05	3e-05	0.00011	0.00062	0.00037	-0.00034	-3e-05	-2e-05	4
17095	2e-05	3e-05	0.00011	0.00062	0.00037	-0.00034	-3e-05	-2e-05	4
17096	2e-05	3e-05	0.00011	0.00062	0.00037	-0.00034	-3e-05	-2e-05	4
17097	2e-05	3e-05	0.00011	0.00062	0.00037	-0.00034	-3e-05	-2e-05	4
17098	2e-05	3e-05	0.00011	0.00062	0.00037	-0.00034	-3e-05	-2e-05	4
17099	2e-05	3e-05	0.00011	0.00062	0.00037	-0.00034	-3e-05	-2e-05	4
17100	2e-05	3e-05	0.00011	0.00062	0.00037	-0.00034	-3e-05	-2e-05	4
17101	2e-05	3e-05	0.00011	0.00062	0.00037	-0.00034	-3e-05	-2e-05	4
17102	2e-05	3e-05	0.00011	0.00062	0.00037	-0.00034	-3e-05	-2e-05	4
17103	2e-05	3e-05	0.00011	0.00062	0.00037	-0.00034	-3e-05	-2e-05	4
17104	2e-05	3e-05	0.00011	0.00062	0.00037	-0.00034	-3e-05	-2e-05	4
17105	2e-05	3e-05	0.00011	0.00062	0.00037	-0.00034	-3e-05	-2e-05	4
17106	2e-05	3e-05	0.00011	0.00062	0.00037	-0.00034	-3e-05	-2e-05	4
17107	2e-05	3e-05	0.00011	0.00062	0.00037	-0.00034	-3e-05	-2e-05	4
17108	2e-05	3e-05	0.00011	0.00062	0.00037	-0.00034	-3e-05	-2e-05	4
17109	2e-05	3e-05	0.00011	0.00062	0.00037	-0.00034	-3e-05	-2e-05	4
17110	2e-05	3e-05	0.00011	0.00062	0.00037	-0.00034	-3e-05	-2e-05	4
17111	2e-05	3e-05	0.00011	0.00062	0.00037	-0.00034	-3e-05	-2e-05	4
17112	2e-05	3e-05	0.00011	0.00062	0.00037	-0.00034	-3e-05	-2e-05	4
17113	2e-05	3e-05	0.00011	0.00062	0.00037	-0.00034	-3e-05	-2e-05	4
17114	2e-05	3e-05	0.00011	0.00062	0.00037	-0.00034	-3e-05	-2e-05	4
17115	2e-05	3e-05	0.00011	0.00062	0.00037	-0.00034	-3e-05	-2e-05	4
17116	2e-05	3e-05	0.00011	0.00062	0.00037	-0.00034	-3e-05	-2e-05	4
17117	2e-05	3e-05	0.00011	0.00062	0.00037	-0.00034	-3e-05	-2e-05	4
17118	2e-05	3e-05	0.00011	0.00062	0.00037	-0.00034	-3e-05	-2e-05	4
17119	2e-05	3e-05	0.00011	0.00062	0.00037	-0.00034	-3e-05	-2e-05	4
17120	2e-05	3e-05	0.00011	0.00062	0.00037	-0.00034	-3e-05	-2e-05	4
17121	2e-05	3e-05	0.00011	0.00062	0.00037	-0.00034	-3e-05	-2e-05	4
17122	2e-05	3e-05	0.00011	0.00062	0.00037	-0.00034	-3e-05	-2e-05	4
17123	2e-05	3e-05	0.00011	0.00062	0.00037	-0.00034	-3e-05	-2e-05	4
17124	3e-05	0	0.0001	0.00033	0.00074	3e-05	3e-05	-1e-05	4
17125	3e-05	0	0.0001	0.00033	0.00074	3e-05	3e-05	-1e-05	4
17126	-2e-05	-3e-05	1e-05	-0.00015	-0.00025	0.00042	2e-05	-1e-05	4
17127	4e-05	4e-05	8e-05	-0.0001	0.00017	-3e-05	6e-05	4e-05	4
17128	4e-05	4e-05	8e-05	-0.0001	0.00017	-3e-05	6e-05	4e-05	4
17129	4e-05	4e-05	8e-05	-0.0001	0.00017	-3e-05	6e-05	4e-05	4
17130	0	1e-05	2e-05	7e-05	-0.0001	-0.0001	7e-05	3e-05	4
17131	-3e-05	-9e-05	-0.00012	-7e-05	0.00043	-0.00013	-9e-05	-4e-05	4
17132	-3e-05	-9e-05	-0.00012	-7e-05	0.00043	-0.00013	-9e-05	-4e-05	4
17133	-3e-05	-9e-05	-0.00012	-7e-05	0.00043	-0.00013	-9e-05	-4e-05	4
17134	-3e-05	-9e-05	-0.00012	-7e-05	0.00043	-0.00013	-9e-05	-4e-05	4
17135	-3e-05	-9e-05	-0.00012	-7e-05	0.00043	-0.00013	-9e-05	-4e-05	4
17136	-3e-05	-9e-05	-0.00012	-7e-05	0.00043	-0.00013	-9e-05	-4e-05	4
17139	-3e-05	-9e-05	-0.00012	-7e-05	0.00043	-0.00013	-9e-05	-4e-05	4
17140	-3e-05	-9e-05	-0.00012	-7e-05	0.00043	-0.00013	-9e-05	-4e-05	4
17141	-3e-05	-9e-05	-0.00012	-7e-05	0.00043	-0.00013	-9e-05	-4e-05	4
17142	-3e-05	-9e-05	-0.00012	-7e-05	0.00043	-0.00013	-9e-05	-4e-05	4
17143	-3e-05	-9e-05	-0.00012	-7e-05	0.00043	-0.00013	-9e-05	-4e-05	4
17144	-3e-05	-9e-05	-0.00012	-7e-05	0.00043	-0.00013	-9e-05	-4e-05	4
17145	-3e-05	-9e-05	-0.00012	-7e-05	0.00043	-0.00013	-9e-05	-4e-05	4
17146	0	3e-05	3e-05	8e-05	0.00016	3e-05	-8e-05	-3e-05	4
17147	0	3e-05	3e-05	8e-05	0.00016	3e-05	-8e-05	-3e-05	4
17148	4e-05	5e-05	8e-05	9e-05	-0.00021	0.00023	0.00013	3e-05	4
17149	4e-05	5e-05	8e-05	9e-05	-0.00021	0.00023	0.00013	3e-05	4
17150	4e-05	5e-05	8e-05	9e-05	-0.00021	0.00023	0.00013	3e-05	4
17151	4e-05	5e-05	8e-05	9e-05	-0.00021	0.00023	0.00013	3e-05	4
17152	4e-05	5e-05	8e-05	9e-05	-0.00021	0.00023	0.00013	3e-05	4
17153	4e-05	5e-05	8e-05	9e-05	-0.00021	0.00023	0.00013	3e-05	4
17154	4e-05	5e-05	8e-05	9e-05	-0.00021	0.00023	0.00013	3e-05	4
17155	4e-05	5e-05	8e-05	9e-05	-0.00021	0.00023	0.00013	3e-05	4
17156	4e-05	5e-05	8e-05	9e-05	-0.00021	0.00023	0.00013	3e-05	4
17157	4e-05	5e-05	8e-05	9e-05	-0.00021	0.00023	0.00013	3e-05	4
17158	4e-05	5e-05	8e-05	9e-05	-0.00021	0.00023	0.00013	3e-05	4
17159	4e-05	5e-05	8e-05	9e-05	-0.00021	0.00023	0.00013	3e-05	4
17160	4e-05	5e-05	8e-05	9e-05	-0.00021	0.00023	0.00013	3e-05	4
17161	4e-05	5e-05	8e-05	9e-05	-0.00021	0.00023	0.00013	3e-05	4
17162	4e-05	5e-05	8e-05	9e-05	-0.00021	0.00023	0.00013	3e-05	4
17163	4e-05	5e-05	8e-05	9e-05	-0.00021	0.00023	0.00013	3e-05	4
17164	4e-05	5e-05	8e-05	9e-05	-0.00021	0.00023	0.00013	3e-05	4
17165	4e-05	5e-05	8e-05	9e-05	-0.00021	0.00023	0.00013	3e-05	4
17166	4e-05	5e-05	8e-05	9e-05	-0.00021	0.00023	0.00013	3e-05	4
17167	4e-05	5e-05	8e-05	9e-05	-0.00021	0.00023	0.00013	3e-05	4
17168	-3e-05	-4e-05	-5e-05	0	4e-05	-0.00025	-8e-05	-4e-05	4
17169	-3e-05	-3e-05	-6e-05	1e-05	0.0001	-0.00036	-0.00011	-3e-05	4
17170	-3e-05	-3e-05	-6e-05	1e-05	0.0001	-0.00036	-0.00011	-3e-05	4
17171	-2e-05	-4e-05	-4e-05	0.00012	0.00045	7e-05	-2e-05	-2e-05	4
17172	-2e-05	-4e-05	-4e-05	0.00012	0.00045	7e-05	-2e-05	-2e-05	4
17173	-2e-05	-4e-05	-4e-05	0.00012	0.00045	7e-05	-2e-05	-2e-05	4
17174	-2e-05	-4e-05	-4e-05	0.00012	0.00045	7e-05	-2e-05	-2e-05	4
17175	-2e-05	-4e-05	-4e-05	0.00012	0.00045	7e-05	-2e-05	-2e-05	4
17176	-2e-05	-4e-05	-4e-05	0.00012	0.00045	7e-05	-2e-05	-2e-05	4
17177	-2e-05	-4e-05	-4e-05	0.00012	0.00045	7e-05	-2e-05	-2e-05	4
17178	-2e-05	-4e-05	-4e-05	0.00012	0.00045	7e-05	-2e-05	-2e-05	4
17179	-2e-05	-4e-05	-4e-05	0.00012	0.00045	7e-05	-2e-05	-2e-05	4
17180	-2e-05	-4e-05	-4e-05	0.00012	0.00045	7e-05	-2e-05	-2e-05	4
17181	-2e-05	-4e-05	-4e-05	0.00012	0.00045	7e-05	-2e-05	-2e-05	4
17182	6e-05	0.00012	9e-05	-0.00024	-0.00071	-4e-05	7e-05	8e-05	4
17183	6e-05	0.00012	9e-05	-0.00024	-0.00071	-4e-05	7e-05	8e-05	4
17184	6e-05	0.00012	9e-05	-0.00024	-0.00071	-4e-05	7e-05	8e-05	4
17185	6e-05	0.00012	9e-05	-0.00024	-0.00071	-4e-05	7e-05	8e-05	4
17186	6e-05	0.00012	9e-05	-0.00024	-0.00071	-4e-05	7e-05	8e-05	4
17188	6e-05	0.00012	9e-05	-0.00024	-0.00071	-4e-05	7e-05	8e-05	4
17189	6e-05	0.00012	9e-05	-0.00024	-0.00071	-4e-05	7e-05	8e-05	4
17190	6e-05	0.00012	9e-05	-0.00024	-0.00071	-4e-05	7e-05	8e-05	4
17191	-3e-05	-7e-05	-4e-05	2e-05	0.00042	0.00048	4e-05	-1e-05	4
17192	-3e-05	-7e-05	-4e-05	2e-05	0.00042	0.00048	4e-05	-1e-05	4
17193	-3e-05	-7e-05	-4e-05	2e-05	0.00042	0.00048	4e-05	-1e-05	4
17194	-3e-05	-7e-05	-4e-05	2e-05	0.00042	0.00048	4e-05	-1e-05	4
17195	-3e-05	-7e-05	-4e-05	2e-05	0.00042	0.00048	4e-05	-1e-05	4
17196	-3e-05	-7e-05	-4e-05	2e-05	0.00042	0.00048	4e-05	-1e-05	4
17197	-3e-05	-7e-05	-4e-05	2e-05	0.00042	0.00048	4e-05	-1e-05	4
17198	-3e-05	-7e-05	-4e-05	2e-05	0.00042	0.00048	4e-05	-1e-05	4
17199	-3e-05	-7e-05	-4e-05	2e-05	0.00042	0.00048	4e-05	-1e-05	4
17200	-3e-05	-7e-05	-4e-05	2e-05	0.00042	0.00048	4e-05	-1e-05	4
17201	-3e-05	-7e-05	-4e-05	2e-05	0.00042	0.00048	4e-05	-1e-05	4
17202	-3e-05	-7e-05	-4e-05	2e-05	0.00042	0.00048	4e-05	-1e-05	4
17203	-3e-05	-7e-05	-4e-05	2e-05	0.00042	0.00048	4e-05	-1e-05	4
17204	-3e-05	-7e-05	-4e-05	2e-05	0.00042	0.00048	4e-05	-1e-05	4
17205	-3e-05	-7e-05	-4e-05	2e-05	0.00042	0.00048	4e-05	-1e-05	4
17206	-3e-05	-7e-05	-4e-05	2e-05	0.00042	0.00048	4e-05	-1e-05	4
17207	0	3e-05	4e-05	0.00013	4e-05	-2e-05	6e-05	0	4
17208	0	2e-05	3e-05	0	-0.0002	8e-05	-2e-05	0	4
17209	0	2e-05	3e-05	0	-0.0002	8e-05	-2e-05	0	4
17210	0	2e-05	3e-05	0	-0.0002	8e-05	-2e-05	0	4
17211	0	2e-05	3e-05	0	-0.0002	8e-05	-2e-05	0	4
17212	0	2e-05	3e-05	0	-0.0002	8e-05	-2e-05	0	4
17213	0	2e-05	3e-05	0	-0.0002	8e-05	-2e-05	0	4
17214	0	2e-05	3e-05	0	-0.0002	8e-05	-2e-05	0	4
17215	0	2e-05	3e-05	0	-0.0002	8e-05	-2e-05	0	4
17216	0	2e-05	3e-05	0	-0.0002	8e-05	-2e-05	0	4
17217	0	2e-05	3e-05	0	-0.0002	8e-05	-2e-05	0	4
17218	0	2e-05	3e-05	0	-0.0002	8e-05	-2e-05	0	4
17219	0	2e-05	3e-05	0	-0.0002	8e-05	-2e-05	0	4
17220	0	2e-05	3e-05	0	-0.0002	8e-05	-2e-05	0	4
17221	0	2e-05	3e-05	0	-0.0002	8e-05	-2e-05	0	4
17222	0	2e-05	3e-05	0	-0.0002	8e-05	-2e-05	0	4
17223	0	2e-05	3e-05	0	-0.0002	8e-05	-2e-05	0	4
17224	0	2e-05	3e-05	0	-0.0002	8e-05	-2e-05	0	4
17225	0	2e-05	3e-05	0	-0.0002	8e-05	-2e-05	0	4
17226	0	2e-05	3e-05	0	-0.0002	8e-05	-2e-05	0	4
17227	0	2e-05	3e-05	0	-0.0002	8e-05	-2e-05	0	4
17228	-4e-05	-1e-05	6e-05	1e-05	-0.00013	0	3e-05	0	4
17229	-3e-05	-7e-05	-7e-05	0.0001	8e-05	0.00039	8e-05	0	4
17230	0	0	-6e-05	-0.00035	0	-0.00022	-1e-05	2e-05	4
17231	0	0	-6e-05	-0.00035	0	-0.00022	-1e-05	2e-05	4
17232	0	0	-6e-05	-0.00035	0	-0.00022	-1e-05	2e-05	4
17233	0	0	-6e-05	-0.00035	0	-0.00022	-1e-05	2e-05	4
17234	0	0	-6e-05	-0.00035	0	-0.00022	-1e-05	2e-05	4
17235	0	0	-6e-05	-0.00035	0	-0.00022	-1e-05	2e-05	4
17236	0	0	-6e-05	-0.00035	0	-0.00022	-1e-05	2e-05	4
17238	0	0	-6e-05	-0.00035	0	-0.00022	-1e-05	2e-05	4
17239	0	0	-6e-05	-0.00035	0	-0.00022	-1e-05	2e-05	4
17240	0	0	-6e-05	-0.00035	0	-0.00022	-1e-05	2e-05	4
17241	0	0	-6e-05	-0.00035	0	-0.00022	-1e-05	2e-05	4
17242	-4e-05	-4e-05	-0.00011	-4e-05	-0.00023	-0.0001	-9e-05	-6e-05	4
17243	-4e-05	-4e-05	-0.00011	-4e-05	-0.00023	-0.0001	-9e-05	-6e-05	4
17244	-4e-05	-4e-05	-0.00011	-4e-05	-0.00023	-0.0001	-9e-05	-6e-05	4
17245	-4e-05	-4e-05	-0.00011	-4e-05	-0.00023	-0.0001	-9e-05	-6e-05	4
17246	-4e-05	-4e-05	-0.00011	-4e-05	-0.00023	-0.0001	-9e-05	-6e-05	4
17247	-4e-05	-4e-05	-0.00011	-4e-05	-0.00023	-0.0001	-9e-05	-6e-05	4
17248	-4e-05	-4e-05	-0.00011	-4e-05	-0.00023	-0.0001	-9e-05	-6e-05	4
17249	-4e-05	-4e-05	-0.00011	-4e-05	-0.00023	-0.0001	-9e-05	-6e-05	4
17250	-4e-05	-4e-05	-0.00011	-4e-05	-0.00023	-0.0001	-9e-05	-6e-05	4
17251	2e-05	7e-05	8e-05	-3e-05	-0.00051	0	4e-05	4e-05	4
17252	2e-05	7e-05	8e-05	-3e-05	-0.00051	0	4e-05	4e-05	4
17253	2e-05	7e-05	8e-05	-3e-05	-0.00051	0	4e-05	4e-05	4
17254	2e-05	7e-05	8e-05	-3e-05	-0.00051	0	4e-05	4e-05	4
17255	2e-05	7e-05	8e-05	-3e-05	-0.00051	0	4e-05	4e-05	4
17256	2e-05	7e-05	8e-05	-3e-05	-0.00051	0	4e-05	4e-05	4
17257	2e-05	7e-05	8e-05	-3e-05	-0.00051	0	4e-05	4e-05	4
17258	2e-05	7e-05	8e-05	-3e-05	-0.00051	0	4e-05	4e-05	4
17259	2e-05	7e-05	8e-05	-3e-05	-0.00051	0	4e-05	4e-05	4
17260	2e-05	7e-05	8e-05	-3e-05	-0.00051	0	4e-05	4e-05	4
17261	2e-05	7e-05	8e-05	-3e-05	-0.00051	0	4e-05	4e-05	4
17262	2e-05	7e-05	8e-05	-3e-05	-0.00051	0	4e-05	4e-05	4
17263	2e-05	7e-05	8e-05	-3e-05	-0.00051	0	4e-05	4e-05	4
17264	2e-05	7e-05	8e-05	-3e-05	-0.00051	0	4e-05	4e-05	4
17265	2e-05	7e-05	8e-05	-3e-05	-0.00051	0	4e-05	4e-05	4
17266	4e-05	4e-05	1e-05	0.00014	0.0005	-0.00011	5e-05	6e-05	4
17267	-2e-05	-3e-05	-6e-05	-0.00019	-0.00053	-0.00042	-7e-05	-4e-05	4
17268	-3e-05	0	4e-05	0.00014	0.00024	-9e-05	-0.00012	-7e-05	4
17269	-3e-05	0	4e-05	0.00014	0.00024	-9e-05	-0.00012	-7e-05	4
17270	-3e-05	0	4e-05	0.00014	0.00024	-9e-05	-0.00012	-7e-05	4
17271	-3e-05	0	4e-05	0.00014	0.00024	-9e-05	-0.00012	-7e-05	4
17272	-3e-05	0	4e-05	0.00014	0.00024	-9e-05	-0.00012	-7e-05	4
17273	-3e-05	0	4e-05	0.00014	0.00024	-9e-05	-0.00012	-7e-05	4
17274	-3e-05	0	4e-05	0.00014	0.00024	-9e-05	-0.00012	-7e-05	4
17275	-3e-05	0	4e-05	0.00014	0.00024	-9e-05	-0.00012	-7e-05	4
17276	-3e-05	0	4e-05	0.00014	0.00024	-9e-05	-0.00012	-7e-05	4
17277	-3e-05	0	4e-05	0.00014	0.00024	-9e-05	-0.00012	-7e-05	4
17278	-3e-05	0	4e-05	0.00014	0.00024	-9e-05	-0.00012	-7e-05	4
17279	-3e-05	0	4e-05	0.00014	0.00024	-9e-05	-0.00012	-7e-05	4
17280	-3e-05	0	4e-05	0.00014	0.00024	-9e-05	-0.00012	-7e-05	4
17281	-3e-05	0	4e-05	0.00014	0.00024	-9e-05	-0.00012	-7e-05	4
17282	-3e-05	0	4e-05	0.00014	0.00024	-9e-05	-0.00012	-7e-05	4
17283	-3e-05	0	4e-05	0.00014	0.00024	-9e-05	-0.00012	-7e-05	4
17284	-3e-05	0	4e-05	0.00014	0.00024	-9e-05	-0.00012	-7e-05	4
17285	-3e-05	0	4e-05	0.00014	0.00024	-9e-05	-0.00012	-7e-05	4
17286	-3e-05	0	4e-05	0.00014	0.00024	-9e-05	-0.00012	-7e-05	4
17288	-1e-05	-1e-05	-2e-05	-2e-05	-0.00026	-7e-05	-1e-05	-2e-05	4
17289	2e-05	-2e-05	-1e-05	2e-05	0.00025	0.00022	6e-05	2e-05	4
17291	-3e-05	-6e-05	-0.00011	-1e-05	0.00023	-0.0001	-4e-05	-6e-05	4
17292	-3e-05	-6e-05	-0.00011	-1e-05	0.00023	-0.0001	-4e-05	-6e-05	4
17293	-3e-05	-6e-05	-0.00011	-1e-05	0.00023	-0.0001	-4e-05	-6e-05	4
17294	-3e-05	-6e-05	-0.00011	-1e-05	0.00023	-0.0001	-4e-05	-6e-05	4
17295	-3e-05	-6e-05	-0.00011	-1e-05	0.00023	-0.0001	-4e-05	-6e-05	4
17296	-3e-05	-6e-05	-0.00011	-1e-05	0.00023	-0.0001	-4e-05	-6e-05	4
17297	-3e-05	-6e-05	-0.00011	-1e-05	0.00023	-0.0001	-4e-05	-6e-05	4
17298	-3e-05	-6e-05	-0.00011	-1e-05	0.00023	-0.0001	-4e-05	-6e-05	4
17299	-3e-05	-6e-05	-0.00011	-1e-05	0.00023	-0.0001	-4e-05	-6e-05	4
17300	-3e-05	-6e-05	-0.00011	-1e-05	0.00023	-0.0001	-4e-05	-6e-05	4
17301	-3e-05	-6e-05	-0.00011	-1e-05	0.00023	-0.0001	-4e-05	-6e-05	4
17302	-3e-05	-2e-05	3e-05	0.00012	0.00011	-0.00028	-5e-05	-5e-05	4
17303	-3e-05	-2e-05	3e-05	0.00012	0.00011	-0.00028	-5e-05	-5e-05	4
17304	-3e-05	-2e-05	3e-05	0.00012	0.00011	-0.00028	-5e-05	-5e-05	4
17305	-3e-05	-2e-05	3e-05	0.00012	0.00011	-0.00028	-5e-05	-5e-05	4
17306	-3e-05	-2e-05	3e-05	0.00012	0.00011	-0.00028	-5e-05	-5e-05	4
17307	-3e-05	-2e-05	3e-05	0.00012	0.00011	-0.00028	-5e-05	-5e-05	4
17308	-3e-05	-2e-05	3e-05	0.00012	0.00011	-0.00028	-5e-05	-5e-05	4
17309	-3e-05	-2e-05	3e-05	0.00012	0.00011	-0.00028	-5e-05	-5e-05	4
17310	-3e-05	-2e-05	3e-05	0.00012	0.00011	-0.00028	-5e-05	-5e-05	4
17311	-1e-05	-4e-05	-3e-05	4e-05	-9e-05	0.00017	-5e-05	-5e-05	4
17312	-1e-05	-4e-05	-3e-05	4e-05	-9e-05	0.00017	-5e-05	-5e-05	4
17313	-1e-05	-4e-05	-3e-05	4e-05	-9e-05	0.00017	-5e-05	-5e-05	4
17314	-1e-05	-4e-05	-3e-05	4e-05	-9e-05	0.00017	-5e-05	-5e-05	4
17315	-1e-05	-4e-05	-3e-05	4e-05	-9e-05	0.00017	-5e-05	-5e-05	4
17316	-1e-05	-4e-05	-3e-05	4e-05	-9e-05	0.00017	-5e-05	-5e-05	4
17317	-1e-05	-4e-05	-3e-05	4e-05	-9e-05	0.00017	-5e-05	-5e-05	4
17318	-1e-05	-4e-05	-3e-05	4e-05	-9e-05	0.00017	-5e-05	-5e-05	4
17319	-1e-05	-4e-05	-3e-05	4e-05	-9e-05	0.00017	-5e-05	-5e-05	4
17320	-1e-05	-4e-05	-3e-05	4e-05	-9e-05	0.00017	-5e-05	-5e-05	4
17321	-1e-05	-4e-05	-3e-05	4e-05	-9e-05	0.00017	-5e-05	-5e-05	4
17322	-1e-05	-4e-05	-3e-05	4e-05	-9e-05	0.00017	-5e-05	-5e-05	4
17323	-1e-05	-4e-05	-3e-05	4e-05	-9e-05	0.00017	-5e-05	-5e-05	4
17324	-1e-05	-4e-05	-3e-05	4e-05	-9e-05	0.00017	-5e-05	-5e-05	4
17325	-1e-05	-4e-05	-3e-05	4e-05	-9e-05	0.00017	-5e-05	-5e-05	4
17326	-5e-05	-6e-05	-2e-05	-3e-05	0.0001	-2e-05	-7e-05	-6e-05	4
17327	-5e-05	-6e-05	-2e-05	-3e-05	0.0001	-2e-05	-7e-05	-6e-05	4
17328	-2e-05	-5e-05	-0.0001	5e-05	-0.00012	-1e-05	1e-05	3e-05	4
17329	-2e-05	-5e-05	-0.0001	5e-05	-0.00012	-1e-05	1e-05	3e-05	4
17330	-2e-05	-5e-05	-0.0001	5e-05	-0.00012	-1e-05	1e-05	3e-05	4
17331	-2e-05	-5e-05	-0.0001	5e-05	-0.00012	-1e-05	1e-05	3e-05	4
17332	-2e-05	-5e-05	-0.0001	5e-05	-0.00012	-1e-05	1e-05	3e-05	4
17333	-2e-05	-5e-05	-0.0001	5e-05	-0.00012	-1e-05	1e-05	3e-05	4
17334	-2e-05	-5e-05	-0.0001	5e-05	-0.00012	-1e-05	1e-05	3e-05	4
17335	-2e-05	-5e-05	-0.0001	5e-05	-0.00012	-1e-05	1e-05	3e-05	4
17336	-2e-05	-5e-05	-0.0001	5e-05	-0.00012	-1e-05	1e-05	3e-05	4
17338	-2e-05	-5e-05	-0.0001	5e-05	-0.00012	-1e-05	1e-05	3e-05	4
17339	-2e-05	-5e-05	-0.0001	5e-05	-0.00012	-1e-05	1e-05	3e-05	4
17340	-2e-05	-5e-05	-0.0001	5e-05	-0.00012	-1e-05	1e-05	3e-05	4
17341	-2e-05	-5e-05	-0.0001	5e-05	-0.00012	-1e-05	1e-05	3e-05	4
17342	-2e-05	-5e-05	-0.0001	5e-05	-0.00012	-1e-05	1e-05	3e-05	4
17343	-2e-05	-5e-05	-0.0001	5e-05	-0.00012	-1e-05	1e-05	3e-05	4
17344	-2e-05	-5e-05	-0.0001	5e-05	-0.00012	-1e-05	1e-05	3e-05	4
17345	-2e-05	-5e-05	-0.0001	5e-05	-0.00012	-1e-05	1e-05	3e-05	4
17346	-2e-05	-5e-05	-0.0001	5e-05	-0.00012	-1e-05	1e-05	3e-05	4
17347	-2e-05	-5e-05	-0.0001	5e-05	-0.00012	-1e-05	1e-05	3e-05	4
17348	-1e-05	-5e-05	-2e-05	3e-05	-8e-05	-4e-05	-7e-05	-6e-05	4
17349	-1e-05	-5e-05	-2e-05	3e-05	-8e-05	-4e-05	-7e-05	-6e-05	4
17350	-1e-05	-5e-05	-2e-05	3e-05	-8e-05	-4e-05	-7e-05	-6e-05	4
17351	-1e-05	-5e-05	-2e-05	3e-05	-8e-05	-4e-05	-7e-05	-6e-05	4
17352	-1e-05	-5e-05	-2e-05	3e-05	-8e-05	-4e-05	-7e-05	-6e-05	4
17353	-1e-05	-5e-05	-2e-05	3e-05	-8e-05	-4e-05	-7e-05	-6e-05	4
17354	-1e-05	-5e-05	-2e-05	3e-05	-8e-05	-4e-05	-7e-05	-6e-05	4
17355	-1e-05	-5e-05	-2e-05	3e-05	-8e-05	-4e-05	-7e-05	-6e-05	4
17356	-4e-05	-5e-05	-5e-05	4e-05	0.00048	-0.00027	-7e-05	-6e-05	4
17357	-4e-05	-5e-05	-5e-05	4e-05	0.00048	-0.00027	-7e-05	-6e-05	4
17358	-4e-05	-5e-05	-5e-05	4e-05	0.00048	-0.00027	-7e-05	-6e-05	4
17359	-4e-05	-5e-05	-5e-05	4e-05	0.00048	-0.00027	-7e-05	-6e-05	4
17360	-4e-05	-5e-05	-5e-05	4e-05	0.00048	-0.00027	-7e-05	-6e-05	4
17361	-4e-05	-5e-05	-5e-05	4e-05	0.00048	-0.00027	-7e-05	-6e-05	4
17362	1e-05	4e-05	4e-05	-1e-05	-1e-05	0.00027	9e-05	4e-05	4
17363	1e-05	4e-05	4e-05	-1e-05	-1e-05	0.00027	9e-05	4e-05	4
17364	1e-05	4e-05	4e-05	-1e-05	-1e-05	0.00027	9e-05	4e-05	4
17365	1e-05	4e-05	4e-05	-1e-05	-1e-05	0.00027	9e-05	4e-05	4
17366	1e-05	4e-05	4e-05	-1e-05	-1e-05	0.00027	9e-05	4e-05	4
17367	1e-05	4e-05	4e-05	-1e-05	-1e-05	0.00027	9e-05	4e-05	4
17368	1e-05	4e-05	4e-05	-1e-05	-1e-05	0.00027	9e-05	4e-05	4
17369	1e-05	4e-05	4e-05	-1e-05	-1e-05	0.00027	9e-05	4e-05	4
17370	1e-05	4e-05	4e-05	-1e-05	-1e-05	0.00027	9e-05	4e-05	4
17371	0	1e-05	0	-2e-05	9e-05	0	2e-05	0	4
17372	0	1e-05	0	-2e-05	9e-05	0	2e-05	0	4
17373	0	1e-05	0	-2e-05	9e-05	0	2e-05	0	4
17374	0	1e-05	0	-2e-05	9e-05	0	2e-05	0	4
17375	0	1e-05	0	-2e-05	9e-05	0	2e-05	0	4
17376	0	1e-05	0	-2e-05	9e-05	0	2e-05	0	4
17377	0	1e-05	0	-2e-05	9e-05	0	2e-05	0	4
17378	0	1e-05	0	-2e-05	9e-05	0	2e-05	0	4
17379	0	1e-05	0	-2e-05	9e-05	0	2e-05	0	4
17380	0	1e-05	0	-2e-05	9e-05	0	2e-05	0	4
17381	0	1e-05	0	-2e-05	9e-05	0	2e-05	0	4
17382	0	1e-05	0	-2e-05	9e-05	0	2e-05	0	4
17383	0	1e-05	0	-2e-05	9e-05	0	2e-05	0	4
17385	0	1e-05	0	-2e-05	9e-05	0	2e-05	0	4
17386	0	1e-05	0	-2e-05	9e-05	0	2e-05	0	4
17389	0	1e-05	0	-2e-05	9e-05	0	2e-05	0	4
17390	0	1e-05	0	-2e-05	9e-05	0	2e-05	0	4
17391	0	1e-05	0	-2e-05	9e-05	0	2e-05	0	4
17392	0	1e-05	0	-2e-05	9e-05	0	2e-05	0	4
17393	0	1e-05	0	-2e-05	9e-05	0	2e-05	0	4
17394	0	1e-05	0	-2e-05	9e-05	0	2e-05	0	4
17395	0	1e-05	0	-2e-05	9e-05	0	2e-05	0	4
17396	0	1e-05	0	-2e-05	9e-05	0	2e-05	0	4
17397	0	1e-05	0	-2e-05	9e-05	0	2e-05	0	4
17398	0	1e-05	0	-2e-05	9e-05	0	2e-05	0	4
17399	0	1e-05	0	-2e-05	9e-05	0	2e-05	0	4
17400	0	1e-05	0	-2e-05	9e-05	0	2e-05	0	4
17401	-3e-05	-3e-05	-5e-05	-0.00012	-0.00029	1e-05	-0.00015	-6e-05	4
17402	-3e-05	-3e-05	-5e-05	-0.00012	-0.00029	1e-05	-0.00015	-6e-05	4
17403	2e-05	1e-05	0	-0.00027	-0.00076	-0.0001	3e-05	2e-05	4
17404	2e-05	1e-05	0	-0.00027	-0.00076	-0.0001	3e-05	2e-05	4
17405	2e-05	1e-05	0	-0.00027	-0.00076	-0.0001	3e-05	2e-05	4
17406	2e-05	1e-05	0	-0.00027	-0.00076	-0.0001	3e-05	2e-05	4
17407	2e-05	1e-05	0	-0.00027	-0.00076	-0.0001	3e-05	2e-05	4
17408	-4e-05	-4e-05	-1e-05	0.00027	6e-05	0.00075	2e-05	-4e-05	4
17409	1e-05	0	-2e-05	1e-05	0.00012	4e-05	4e-05	0	4
17410	-3e-05	3e-05	6e-05	-5e-05	-0.00068	0	-2e-05	-3e-05	4
17411	-3e-05	3e-05	6e-05	-5e-05	-0.00068	0	-2e-05	-3e-05	4
17412	-3e-05	3e-05	6e-05	-5e-05	-0.00068	0	-2e-05	-3e-05	4
17413	-3e-05	3e-05	6e-05	-5e-05	-0.00068	0	-2e-05	-3e-05	4
17414	-3e-05	3e-05	6e-05	-5e-05	-0.00068	0	-2e-05	-3e-05	4
17415	-3e-05	3e-05	6e-05	-5e-05	-0.00068	0	-2e-05	-3e-05	4
17416	-3e-05	3e-05	6e-05	-5e-05	-0.00068	0	-2e-05	-3e-05	4
17417	-3e-05	3e-05	6e-05	-5e-05	-0.00068	0	-2e-05	-3e-05	4
17418	-3e-05	3e-05	6e-05	-5e-05	-0.00068	0	-2e-05	-3e-05	4
17419	-3e-05	3e-05	6e-05	-5e-05	-0.00068	0	-2e-05	-3e-05	4
17420	-3e-05	3e-05	6e-05	-5e-05	-0.00068	0	-2e-05	-3e-05	4
17421	-3e-05	3e-05	6e-05	-5e-05	-0.00068	0	-2e-05	-3e-05	4
17422	-5e-05	-8e-05	-9e-05	5e-05	-0.00015	0	-9e-05	-5e-05	4
17423	-5e-05	-8e-05	-9e-05	5e-05	-0.00015	0	-9e-05	-5e-05	4
17424	-5e-05	-8e-05	-9e-05	5e-05	-0.00015	0	-9e-05	-5e-05	4
17425	-5e-05	-8e-05	-9e-05	5e-05	-0.00015	0	-9e-05	-5e-05	4
17426	-5e-05	-8e-05	-9e-05	5e-05	-0.00015	0	-9e-05	-5e-05	4
17427	-5e-05	-8e-05	-9e-05	5e-05	-0.00015	0	-9e-05	-5e-05	4
17428	-5e-05	-8e-05	-9e-05	5e-05	-0.00015	0	-9e-05	-5e-05	4
17429	-5e-05	-8e-05	-9e-05	5e-05	-0.00015	0	-9e-05	-5e-05	4
17430	-5e-05	-8e-05	-9e-05	5e-05	-0.00015	0	-9e-05	-5e-05	4
17431	-5e-05	-8e-05	-9e-05	5e-05	-0.00015	0	-9e-05	-5e-05	4
17432	-5e-05	-8e-05	-9e-05	5e-05	-0.00015	0	-9e-05	-5e-05	4
17433	-5e-05	-8e-05	-9e-05	5e-05	-0.00015	0	-9e-05	-5e-05	4
17434	-5e-05	-8e-05	-9e-05	5e-05	-0.00015	0	-9e-05	-5e-05	4
17435	-5e-05	-8e-05	-9e-05	5e-05	-0.00015	0	-9e-05	-5e-05	4
17436	-5e-05	-8e-05	-9e-05	5e-05	-0.00015	0	-9e-05	-5e-05	4
17440	-5e-05	-8e-05	-9e-05	5e-05	-0.00015	0	-9e-05	-5e-05	4
17441	-5e-05	-8e-05	-9e-05	5e-05	-0.00015	0	-9e-05	-5e-05	4
17442	-5e-05	-8e-05	-9e-05	5e-05	-0.00015	0	-9e-05	-5e-05	4
17443	-5e-05	-8e-05	-9e-05	5e-05	-0.00015	0	-9e-05	-5e-05	4
17444	-5e-05	-8e-05	-9e-05	5e-05	-0.00015	0	-9e-05	-5e-05	4
17445	-5e-05	-8e-05	-9e-05	5e-05	-0.00015	0	-9e-05	-5e-05	4
17446	-5e-05	-8e-05	-9e-05	5e-05	-0.00015	0	-9e-05	-5e-05	4
17447	-5e-05	-8e-05	-9e-05	5e-05	-0.00015	0	-9e-05	-5e-05	4
17448	-3e-05	-7e-05	-6e-05	8e-05	0.00018	-0.0001	-5e-05	-3e-05	4
17449	-2e-05	-4e-05	-5e-05	-1e-05	0.00033	0.00031	-1e-05	-1e-05	4
17450	-2e-05	-4e-05	-5e-05	-1e-05	0.00033	0.00031	-1e-05	-1e-05	4
17451	-2e-05	-4e-05	-5e-05	-1e-05	0.00033	0.00031	-1e-05	-1e-05	4
17452	-1e-05	-7e-05	-4e-05	-7e-05	0.00026	0.00025	2e-05	0	4
17453	-1e-05	-7e-05	-4e-05	-7e-05	0.00026	0.00025	2e-05	0	4
17454	-1e-05	-7e-05	-4e-05	-7e-05	0.00026	0.00025	2e-05	0	4
17455	-1e-05	-7e-05	-4e-05	-7e-05	0.00026	0.00025	2e-05	0	4
17456	-1e-05	-7e-05	-4e-05	-7e-05	0.00026	0.00025	2e-05	0	4
17457	-1e-05	-7e-05	-4e-05	-7e-05	0.00026	0.00025	2e-05	0	4
17458	-1e-05	-7e-05	-4e-05	-7e-05	0.00026	0.00025	2e-05	0	4
17459	-1e-05	-7e-05	-4e-05	-7e-05	0.00026	0.00025	2e-05	0	4
17460	-1e-05	-7e-05	-4e-05	-7e-05	0.00026	0.00025	2e-05	0	4
17461	-1e-05	-7e-05	-4e-05	-7e-05	0.00026	0.00025	2e-05	0	4
17462	-1e-05	-7e-05	-4e-05	-7e-05	0.00026	0.00025	2e-05	0	4
17463	-1e-05	-7e-05	-4e-05	-7e-05	0.00026	0.00025	2e-05	0	4
17464	-1e-05	-7e-05	-4e-05	-7e-05	0.00026	0.00025	2e-05	0	4
17465	-1e-05	-7e-05	-4e-05	-7e-05	0.00026	0.00025	2e-05	0	4
17466	-1e-05	-7e-05	-4e-05	-7e-05	0.00026	0.00025	2e-05	0	4
17467	-1e-05	-7e-05	-4e-05	-7e-05	0.00026	0.00025	2e-05	0	4
17468	0	1e-05	-5e-05	-0.00022	-0.00014	-0.00036	-3e-05	0	4
17469	0	1e-05	-5e-05	-0.00022	-0.00014	-0.00036	-3e-05	0	4
17470	-1e-05	-5e-05	-3e-05	-4e-05	0.00033	0.00032	3e-05	0	4
17471	-1e-05	-5e-05	-3e-05	-4e-05	0.00033	0.00032	3e-05	0	4
17472	-1e-05	-5e-05	-3e-05	-4e-05	0.00033	0.00032	3e-05	0	4
17473	-1e-05	-5e-05	-3e-05	-4e-05	0.00033	0.00032	3e-05	0	4
17474	-1e-05	-5e-05	-3e-05	-4e-05	0.00033	0.00032	3e-05	0	4
17475	-1e-05	-5e-05	-3e-05	-4e-05	0.00033	0.00032	3e-05	0	4
17476	-1e-05	-5e-05	-3e-05	-4e-05	0.00033	0.00032	3e-05	0	4
17478	-1e-05	-5e-05	-3e-05	-4e-05	0.00033	0.00032	3e-05	0	4
17479	-1e-05	-5e-05	-3e-05	-4e-05	0.00033	0.00032	3e-05	0	4
17480	-1e-05	-5e-05	-3e-05	-4e-05	0.00033	0.00032	3e-05	0	4
17481	-1e-05	-5e-05	-3e-05	-4e-05	0.00033	0.00032	3e-05	0	4
17482	-1e-05	-5e-05	-3e-05	-4e-05	0.00033	0.00032	3e-05	0	4
17483	-1e-05	-5e-05	-3e-05	-4e-05	0.00033	0.00032	3e-05	0	4
17484	-1e-05	-5e-05	-3e-05	-4e-05	0.00033	0.00032	3e-05	0	4
17485	-1e-05	-5e-05	-3e-05	-4e-05	0.00033	0.00032	3e-05	0	4
17486	-1e-05	-5e-05	-3e-05	-4e-05	0.00033	0.00032	3e-05	0	4
17489	-1e-05	-5e-05	-3e-05	-4e-05	0.00033	0.00032	3e-05	0	4
17491	-1e-05	-3e-05	0	2e-05	0.00034	3e-05	-5e-05	-4e-05	4
17492	-1e-05	-3e-05	0	2e-05	0.00034	3e-05	-5e-05	-4e-05	4
17493	0	4e-05	6e-05	-8e-05	-0.0003	6e-05	1e-05	1e-05	4
17494	0	4e-05	6e-05	-8e-05	-0.0003	6e-05	1e-05	1e-05	4
17495	0	4e-05	6e-05	-8e-05	-0.0003	6e-05	1e-05	1e-05	4
17496	0	4e-05	6e-05	-8e-05	-0.0003	6e-05	1e-05	1e-05	4
17497	0	4e-05	6e-05	-8e-05	-0.0003	6e-05	1e-05	1e-05	4
17498	0	4e-05	6e-05	-8e-05	-0.0003	6e-05	1e-05	1e-05	4
17499	0	4e-05	6e-05	-8e-05	-0.0003	6e-05	1e-05	1e-05	4
17500	0	4e-05	6e-05	-8e-05	-0.0003	6e-05	1e-05	1e-05	4
17501	0	4e-05	6e-05	-8e-05	-0.0003	6e-05	1e-05	1e-05	4
17502	0	4e-05	6e-05	-8e-05	-0.0003	6e-05	1e-05	1e-05	4
17503	0	4e-05	6e-05	-8e-05	-0.0003	6e-05	1e-05	1e-05	4
17504	0	4e-05	6e-05	-8e-05	-0.0003	6e-05	1e-05	1e-05	4
17505	0	4e-05	6e-05	-8e-05	-0.0003	6e-05	1e-05	1e-05	4
17506	-1e-05	2e-05	-3e-05	-0.00018	-0.0005	-7e-05	-1e-05	1e-05	4
17507	-1e-05	2e-05	-3e-05	-0.00018	-0.0005	-7e-05	-1e-05	1e-05	4
17508	-3e-05	-5e-05	-5e-05	-3e-05	-2e-05	-0.00015	-5e-05	-5e-05	4
17509	-3e-05	-5e-05	-5e-05	-3e-05	-2e-05	-0.00015	-5e-05	-5e-05	4
17510	-3e-05	-5e-05	-5e-05	-3e-05	-2e-05	-0.00015	-5e-05	-5e-05	4
17511	-3e-05	-5e-05	-5e-05	-3e-05	-2e-05	-0.00015	-5e-05	-5e-05	4
17512	-3e-05	-5e-05	-5e-05	-3e-05	-2e-05	-0.00015	-5e-05	-5e-05	4
17513	-3e-05	-5e-05	-5e-05	-3e-05	-2e-05	-0.00015	-5e-05	-5e-05	4
17514	-3e-05	-5e-05	-5e-05	-3e-05	-2e-05	-0.00015	-5e-05	-5e-05	4
17515	-3e-05	-5e-05	-5e-05	-3e-05	-2e-05	-0.00015	-5e-05	-5e-05	4
17516	-3e-05	-5e-05	-5e-05	-3e-05	-2e-05	-0.00015	-5e-05	-5e-05	4
17517	-3e-05	-5e-05	-5e-05	-3e-05	-2e-05	-0.00015	-5e-05	-5e-05	4
17518	-3e-05	-5e-05	-5e-05	-3e-05	-2e-05	-0.00015	-5e-05	-5e-05	4
17519	-3e-05	-5e-05	-5e-05	-3e-05	-2e-05	-0.00015	-5e-05	-5e-05	4
17520	-3e-05	-5e-05	-5e-05	-3e-05	-2e-05	-0.00015	-5e-05	-5e-05	4
17521	-3e-05	-5e-05	-5e-05	-3e-05	-2e-05	-0.00015	-5e-05	-5e-05	4
17522	-3e-05	-5e-05	-5e-05	-3e-05	-2e-05	-0.00015	-5e-05	-5e-05	4
17523	-3e-05	-5e-05	-5e-05	-3e-05	-2e-05	-0.00015	-5e-05	-5e-05	4
17524	-3e-05	-5e-05	-5e-05	-3e-05	-2e-05	-0.00015	-5e-05	-5e-05	4
17525	-3e-05	-5e-05	-5e-05	-3e-05	-2e-05	-0.00015	-5e-05	-5e-05	4
17526	-3e-05	-5e-05	-5e-05	-3e-05	-2e-05	-0.00015	-5e-05	-5e-05	4
17527	-3e-05	-5e-05	-5e-05	-3e-05	-2e-05	-0.00015	-5e-05	-5e-05	4
17528	-1e-05	-1e-05	-3e-05	-0.00011	-3e-05	0.00029	2e-05	0	4
17529	2e-05	4e-05	4e-05	9e-05	2e-05	-0.00047	4e-05	1e-05	4
17530	2e-05	4e-05	4e-05	9e-05	2e-05	-0.00047	4e-05	1e-05	4
17531	2e-05	4e-05	4e-05	9e-05	2e-05	-0.00047	4e-05	1e-05	4
17532	2e-05	4e-05	4e-05	9e-05	2e-05	-0.00047	4e-05	1e-05	4
17533	2e-05	4e-05	4e-05	9e-05	2e-05	-0.00047	4e-05	1e-05	4
17534	2e-05	4e-05	4e-05	9e-05	2e-05	-0.00047	4e-05	1e-05	4
17535	2e-05	4e-05	4e-05	9e-05	2e-05	-0.00047	4e-05	1e-05	4
17536	2e-05	4e-05	4e-05	9e-05	2e-05	-0.00047	4e-05	1e-05	4
17538	2e-05	4e-05	4e-05	9e-05	2e-05	-0.00047	4e-05	1e-05	4
17539	2e-05	4e-05	4e-05	9e-05	2e-05	-0.00047	4e-05	1e-05	4
17540	2e-05	4e-05	4e-05	9e-05	2e-05	-0.00047	4e-05	1e-05	4
17541	2e-05	4e-05	4e-05	9e-05	2e-05	-0.00047	4e-05	1e-05	4
17542	2e-05	4e-05	4e-05	9e-05	2e-05	-0.00047	4e-05	1e-05	4
17543	2e-05	4e-05	4e-05	9e-05	2e-05	-0.00047	4e-05	1e-05	4
17544	2e-05	4e-05	4e-05	9e-05	2e-05	-0.00047	4e-05	1e-05	4
17545	2e-05	4e-05	4e-05	9e-05	2e-05	-0.00047	4e-05	1e-05	4
17546	2e-05	4e-05	4e-05	9e-05	2e-05	-0.00047	4e-05	1e-05	4
17547	2e-05	4e-05	4e-05	9e-05	2e-05	-0.00047	4e-05	1e-05	4
17548	2e-05	4e-05	4e-05	9e-05	2e-05	-0.00047	4e-05	1e-05	4
17549	2e-05	4e-05	4e-05	9e-05	2e-05	-0.00047	4e-05	1e-05	4
17550	-2e-05	-3e-05	2e-05	0.00013	0.00045	-0.00028	-0.00011	-3e-05	4
17551	-4e-05	-4e-05	-3e-05	0.00014	0.00055	-0.00013	-0.00012	-8e-05	4
17552	-4e-05	-4e-05	-3e-05	0.00014	0.00055	-0.00013	-0.00012	-8e-05	4
17553	-4e-05	-4e-05	-3e-05	0.00014	0.00055	-0.00013	-0.00012	-8e-05	4
17554	-4e-05	-4e-05	-3e-05	0.00014	0.00055	-0.00013	-0.00012	-8e-05	4
17555	-4e-05	-4e-05	-3e-05	0.00014	0.00055	-0.00013	-0.00012	-8e-05	4
17556	-4e-05	-4e-05	-3e-05	0.00014	0.00055	-0.00013	-0.00012	-8e-05	4
17557	-4e-05	-4e-05	-3e-05	0.00014	0.00055	-0.00013	-0.00012	-8e-05	4
17558	-4e-05	-4e-05	-3e-05	0.00014	0.00055	-0.00013	-0.00012	-8e-05	4
17559	-4e-05	-4e-05	-3e-05	0.00014	0.00055	-0.00013	-0.00012	-8e-05	4
17560	-4e-05	-4e-05	-3e-05	0.00014	0.00055	-0.00013	-0.00012	-8e-05	4
17561	-4e-05	-4e-05	-3e-05	0.00014	0.00055	-0.00013	-0.00012	-8e-05	4
17562	-4e-05	-4e-05	-3e-05	0.00014	0.00055	-0.00013	-0.00012	-8e-05	4
17563	-4e-05	-4e-05	-3e-05	0.00014	0.00055	-0.00013	-0.00012	-8e-05	4
17564	-4e-05	-4e-05	-3e-05	0.00014	0.00055	-0.00013	-0.00012	-8e-05	4
17565	1e-05	-6e-05	-6e-05	0.00012	0.00053	2e-05	5e-05	1e-05	4
17566	1e-05	5e-05	5e-05	2e-05	-0.00023	0.00012	4e-05	1e-05	4
17567	1e-05	5e-05	5e-05	2e-05	-0.00023	0.00012	4e-05	1e-05	4
17568	1e-05	5e-05	5e-05	2e-05	-0.00023	0.00012	4e-05	1e-05	4
17569	1e-05	5e-05	5e-05	2e-05	-0.00023	0.00012	4e-05	1e-05	4
17570	1e-05	5e-05	5e-05	2e-05	-0.00023	0.00012	4e-05	1e-05	4
17571	1e-05	5e-05	5e-05	2e-05	-0.00023	0.00012	4e-05	1e-05	4
17572	1e-05	5e-05	5e-05	2e-05	-0.00023	0.00012	4e-05	1e-05	4
17573	1e-05	5e-05	5e-05	2e-05	-0.00023	0.00012	4e-05	1e-05	4
17574	1e-05	5e-05	5e-05	2e-05	-0.00023	0.00012	4e-05	1e-05	4
17575	1e-05	5e-05	5e-05	2e-05	-0.00023	0.00012	4e-05	1e-05	4
17576	1e-05	5e-05	5e-05	2e-05	-0.00023	0.00012	4e-05	1e-05	4
17577	1e-05	5e-05	5e-05	2e-05	-0.00023	0.00012	4e-05	1e-05	4
17578	1e-05	5e-05	5e-05	2e-05	-0.00023	0.00012	4e-05	1e-05	4
17579	1e-05	5e-05	5e-05	2e-05	-0.00023	0.00012	4e-05	1e-05	4
17580	1e-05	5e-05	5e-05	2e-05	-0.00023	0.00012	4e-05	1e-05	4
17581	1e-05	5e-05	5e-05	2e-05	-0.00023	0.00012	4e-05	1e-05	4
17582	1e-05	5e-05	5e-05	2e-05	-0.00023	0.00012	4e-05	1e-05	4
17583	1e-05	5e-05	5e-05	2e-05	-0.00023	0.00012	4e-05	1e-05	4
17584	1e-05	5e-05	5e-05	2e-05	-0.00023	0.00012	4e-05	1e-05	4
17585	1e-05	5e-05	5e-05	2e-05	-0.00023	0.00012	4e-05	1e-05	4
17586	1e-05	5e-05	5e-05	2e-05	-0.00023	0.00012	4e-05	1e-05	4
17589	-2e-05	-2e-05	1e-05	-0.00017	-0.00066	-0.00023	1e-05	0	4
17590	-2e-05	-2e-05	1e-05	-0.00017	-0.00066	-0.00023	1e-05	0	4
17591	-2e-05	-2e-05	1e-05	-0.00017	-0.00066	-0.00023	1e-05	0	4
17592	-2e-05	-2e-05	1e-05	-0.00017	-0.00066	-0.00023	1e-05	0	4
17593	-2e-05	-2e-05	1e-05	-0.00017	-0.00066	-0.00023	1e-05	0	4
17594	-2e-05	-2e-05	1e-05	-0.00017	-0.00066	-0.00023	1e-05	0	4
17595	-2e-05	-2e-05	1e-05	-0.00017	-0.00066	-0.00023	1e-05	0	4
17596	-2e-05	-2e-05	1e-05	-0.00017	-0.00066	-0.00023	1e-05	0	4
17597	-2e-05	-2e-05	1e-05	-0.00017	-0.00066	-0.00023	1e-05	0	4
17598	-2e-05	-2e-05	1e-05	-0.00017	-0.00066	-0.00023	1e-05	0	4
17599	-2e-05	-2e-05	1e-05	-0.00017	-0.00066	-0.00023	1e-05	0	4
17600	-2e-05	-2e-05	1e-05	-0.00017	-0.00066	-0.00023	1e-05	0	4
17601	-2e-05	-2e-05	1e-05	-0.00017	-0.00066	-0.00023	1e-05	0	4
17602	-2e-05	-2e-05	1e-05	-0.00017	-0.00066	-0.00023	1e-05	0	4
17603	-2e-05	-2e-05	1e-05	-0.00017	-0.00066	-0.00023	1e-05	0	4
17604	-2e-05	-2e-05	1e-05	-0.00017	-0.00066	-0.00023	1e-05	0	4
17605	-2e-05	-2e-05	1e-05	-0.00017	-0.00066	-0.00023	1e-05	0	4
17606	-2e-05	-2e-05	1e-05	-0.00017	-0.00066	-0.00023	1e-05	0	4
17607	-2e-05	-2e-05	1e-05	-0.00017	-0.00066	-0.00023	1e-05	0	4
17608	-2e-05	-2e-05	1e-05	-0.00017	-0.00066	-0.00023	1e-05	0	4
17609	-2e-05	-2e-05	1e-05	-0.00017	-0.00066	-0.00023	1e-05	0	4
17610	2e-05	5e-05	6e-05	-6e-05	0	0.00014	1e-05	2e-05	4
17611	-1e-05	-1e-05	-5e-05	0.00015	0.00035	0.00037	0	0	4
17612	-1e-05	-1e-05	-5e-05	0.00015	0.00035	0.00037	0	0	4
17613	-1e-05	-1e-05	-5e-05	0.00015	0.00035	0.00037	0	0	4
17614	-1e-05	-1e-05	-5e-05	0.00015	0.00035	0.00037	0	0	4
17615	-1e-05	-1e-05	-5e-05	0.00015	0.00035	0.00037	0	0	4
17616	-1e-05	-1e-05	-5e-05	0.00015	0.00035	0.00037	0	0	4
17617	-1e-05	-1e-05	-5e-05	0.00015	0.00035	0.00037	0	0	4
17619	-1e-05	-1e-05	-5e-05	0.00015	0.00035	0.00037	0	0	4
17620	-1e-05	-1e-05	-5e-05	0.00015	0.00035	0.00037	0	0	4
17621	-1e-05	-1e-05	-5e-05	0.00015	0.00035	0.00037	0	0	4
17622	-1e-05	-1e-05	-5e-05	0.00015	0.00035	0.00037	0	0	4
17623	-1e-05	-1e-05	-5e-05	0.00015	0.00035	0.00037	0	0	4
17624	-1e-05	-1e-05	-5e-05	0.00015	0.00035	0.00037	0	0	4
17625	-1e-05	-1e-05	-5e-05	0.00015	0.00035	0.00037	0	0	4
17626	-1e-05	-1e-05	-5e-05	0.00015	0.00035	0.00037	0	0	4
17627	-1e-05	-1e-05	-5e-05	0.00015	0.00035	0.00037	0	0	4
17628	-1e-05	-1e-05	-5e-05	0.00015	0.00035	0.00037	0	0	4
17629	-1e-05	-1e-05	-5e-05	0.00015	0.00035	0.00037	0	0	4
17630	-1e-05	-1e-05	-5e-05	0.00015	0.00035	0.00037	0	0	4
17631	-1e-05	-1e-05	-5e-05	0.00015	0.00035	0.00037	0	0	4
17632	-1e-05	-1e-05	-5e-05	0.00015	0.00035	0.00037	0	0	4
17633	-1e-05	-1e-05	-5e-05	0.00015	0.00035	0.00037	0	0	4
17634	1e-05	0	0	7e-05	-0.00089	-0.00039	-4e-05	1e-05	4
17635	1e-05	0	0	7e-05	-0.00089	-0.00039	-4e-05	1e-05	4
17636	1e-05	0	0	7e-05	-0.00089	-0.00039	-4e-05	1e-05	4
17638	1e-05	0	0	7e-05	-0.00089	-0.00039	-4e-05	1e-05	4
17639	1e-05	0	0	7e-05	-0.00089	-0.00039	-4e-05	1e-05	4
17641	1e-05	0	0	7e-05	-0.00089	-0.00039	-4e-05	1e-05	4
17642	1e-05	0	0	7e-05	-0.00089	-0.00039	-4e-05	1e-05	4
17643	1e-05	0	0	7e-05	-0.00089	-0.00039	-4e-05	1e-05	4
17644	1e-05	0	0	7e-05	-0.00089	-0.00039	-4e-05	1e-05	4
17645	1e-05	0	0	7e-05	-0.00089	-0.00039	-4e-05	1e-05	4
17646	1e-05	0	0	7e-05	-0.00089	-0.00039	-4e-05	1e-05	4
17647	1e-05	0	0	7e-05	-0.00089	-0.00039	-4e-05	1e-05	4
17648	1e-05	-1e-05	-2e-05	-0.00024	-0.00042	-0.00013	3e-05	5e-05	4
17649	-5e-05	-2e-05	-4e-05	1e-05	-0.00015	-0.00014	0	-3e-05	4
17650	-5e-05	-2e-05	-4e-05	1e-05	-0.00015	-0.00014	0	-3e-05	4
17651	-5e-05	-2e-05	-4e-05	1e-05	-0.00015	-0.00014	0	-3e-05	4
17652	-5e-05	-2e-05	-4e-05	1e-05	-0.00015	-0.00014	0	-3e-05	4
17653	-5e-05	-2e-05	-4e-05	1e-05	-0.00015	-0.00014	0	-3e-05	4
17654	-5e-05	-2e-05	-4e-05	1e-05	-0.00015	-0.00014	0	-3e-05	4
17655	-5e-05	-2e-05	-4e-05	1e-05	-0.00015	-0.00014	0	-3e-05	4
17656	-5e-05	-2e-05	-4e-05	1e-05	-0.00015	-0.00014	0	-3e-05	4
17657	-5e-05	-2e-05	-4e-05	1e-05	-0.00015	-0.00014	0	-3e-05	4
17658	-5e-05	-2e-05	-4e-05	1e-05	-0.00015	-0.00014	0	-3e-05	4
17659	-5e-05	-2e-05	-4e-05	1e-05	-0.00015	-0.00014	0	-3e-05	4
17660	-5e-05	-2e-05	-4e-05	1e-05	-0.00015	-0.00014	0	-3e-05	4
17661	-5e-05	-2e-05	-4e-05	1e-05	-0.00015	-0.00014	0	-3e-05	4
17662	-5e-05	-2e-05	-4e-05	1e-05	-0.00015	-0.00014	0	-3e-05	4
17663	-5e-05	-2e-05	-4e-05	1e-05	-0.00015	-0.00014	0	-3e-05	4
17664	-5e-05	-2e-05	-4e-05	1e-05	-0.00015	-0.00014	0	-3e-05	4
17665	-5e-05	-2e-05	-4e-05	1e-05	-0.00015	-0.00014	0	-3e-05	4
17666	-5e-05	-2e-05	-4e-05	1e-05	-0.00015	-0.00014	0	-3e-05	4
17667	-5e-05	-2e-05	-4e-05	1e-05	-0.00015	-0.00014	0	-3e-05	4
17668	-5e-05	-2e-05	-4e-05	1e-05	-0.00015	-0.00014	0	-3e-05	4
17669	-5e-05	-2e-05	-4e-05	1e-05	-0.00015	-0.00014	0	-3e-05	4
17670	-5e-05	-2e-05	-4e-05	1e-05	-0.00015	-0.00014	0	-3e-05	4
17671	-5e-05	-2e-05	-4e-05	1e-05	-0.00015	-0.00014	0	-3e-05	4
17672	-5e-05	-2e-05	-4e-05	1e-05	-0.00015	-0.00014	0	-3e-05	4
17673	-5e-05	-2e-05	-4e-05	1e-05	-0.00015	-0.00014	0	-3e-05	4
17674	-5e-05	-2e-05	-4e-05	1e-05	-0.00015	-0.00014	0	-3e-05	4
17675	-5e-05	-2e-05	-4e-05	1e-05	-0.00015	-0.00014	0	-3e-05	4
17676	-5e-05	-2e-05	-4e-05	1e-05	-0.00015	-0.00014	0	-3e-05	4
17677	-5e-05	-2e-05	-4e-05	1e-05	-0.00015	-0.00014	0	-3e-05	4
17678	-2e-05	-4e-05	0	9e-05	-6e-05	0.00011	4e-05	0	4
17679	1e-05	4e-05	4e-05	7e-05	0.0005	-0.00014	4e-05	3e-05	4
17680	1e-05	4e-05	4e-05	7e-05	0.0005	-0.00014	4e-05	3e-05	4
17681	1e-05	4e-05	4e-05	7e-05	0.0005	-0.00014	4e-05	3e-05	4
17682	1e-05	4e-05	4e-05	7e-05	0.0005	-0.00014	4e-05	3e-05	4
17683	1e-05	4e-05	4e-05	7e-05	0.0005	-0.00014	4e-05	3e-05	4
17684	1e-05	4e-05	4e-05	7e-05	0.0005	-0.00014	4e-05	3e-05	4
17685	3e-05	4e-05	8e-05	0.00018	0.0003	5e-05	5e-05	1e-05	4
17686	-6e-05	-6e-05	-8e-05	-0.00021	0.00025	-0.00033	-5e-05	0	4
17688	-6e-05	-6e-05	-8e-05	-0.00021	0.00025	-0.00033	-5e-05	0	4
17689	-6e-05	-6e-05	-8e-05	-0.00021	0.00025	-0.00033	-5e-05	0	4
17690	-6e-05	-6e-05	-8e-05	-0.00021	0.00025	-0.00033	-5e-05	0	4
17691	-6e-05	-6e-05	-8e-05	-0.00021	0.00025	-0.00033	-5e-05	0	4
17692	-6e-05	-6e-05	-8e-05	-0.00021	0.00025	-0.00033	-5e-05	0	4
17693	-6e-05	-6e-05	-8e-05	-0.00021	0.00025	-0.00033	-5e-05	0	4
17694	-6e-05	-6e-05	-8e-05	-0.00021	0.00025	-0.00033	-5e-05	0	4
17695	-6e-05	-6e-05	-8e-05	-0.00021	0.00025	-0.00033	-5e-05	0	4
17696	-6e-05	-6e-05	-8e-05	-0.00021	0.00025	-0.00033	-5e-05	0	4
17697	-6e-05	-6e-05	-8e-05	-0.00021	0.00025	-0.00033	-5e-05	0	4
17698	-6e-05	-6e-05	-8e-05	-0.00021	0.00025	-0.00033	-5e-05	0	4
17699	-6e-05	-6e-05	-8e-05	-0.00021	0.00025	-0.00033	-5e-05	0	4
17700	-6e-05	-6e-05	-8e-05	-0.00021	0.00025	-0.00033	-5e-05	0	4
17701	-6e-05	-6e-05	-8e-05	-0.00021	0.00025	-0.00033	-5e-05	0	4
17702	-6e-05	-6e-05	-8e-05	-0.00021	0.00025	-0.00033	-5e-05	0	4
17703	-6e-05	-6e-05	-8e-05	-0.00021	0.00025	-0.00033	-5e-05	0	4
17704	-6e-05	-6e-05	-8e-05	-0.00021	0.00025	-0.00033	-5e-05	0	4
17705	-6e-05	-6e-05	-8e-05	-0.00021	0.00025	-0.00033	-5e-05	0	4
17706	-6e-05	-6e-05	-8e-05	-0.00021	0.00025	-0.00033	-5e-05	0	4
17707	-6e-05	-6e-05	-8e-05	-0.00021	0.00025	-0.00033	-5e-05	0	4
17708	0	1e-05	-1e-05	-1e-05	-8e-05	0.00025	2e-05	1e-05	4
17709	0	4e-05	5e-05	0.00017	0.00028	-1e-05	-8e-05	-3e-05	4
17710	0	4e-05	5e-05	0.00017	0.00028	-1e-05	-8e-05	-3e-05	4
17711	0	4e-05	5e-05	0.00017	0.00028	-1e-05	-8e-05	-3e-05	4
17712	0	4e-05	5e-05	0.00017	0.00028	-1e-05	-8e-05	-3e-05	4
17713	0	4e-05	5e-05	0.00017	0.00028	-1e-05	-8e-05	-3e-05	4
17714	0	4e-05	5e-05	0.00017	0.00028	-1e-05	-8e-05	-3e-05	4
17715	0	4e-05	5e-05	0.00017	0.00028	-1e-05	-8e-05	-3e-05	4
17716	0	4e-05	5e-05	0.00017	0.00028	-1e-05	-8e-05	-3e-05	4
17717	0	4e-05	5e-05	0.00017	0.00028	-1e-05	-8e-05	-3e-05	4
17718	0	4e-05	5e-05	0.00017	0.00028	-1e-05	-8e-05	-3e-05	4
17719	0	4e-05	5e-05	0.00017	0.00028	-1e-05	-8e-05	-3e-05	4
17720	0	4e-05	5e-05	0.00017	0.00028	-1e-05	-8e-05	-3e-05	4
17721	0	4e-05	5e-05	0.00017	0.00028	-1e-05	-8e-05	-3e-05	4
17722	0	4e-05	5e-05	0.00017	0.00028	-1e-05	-8e-05	-3e-05	4
17723	0	4e-05	5e-05	0.00017	0.00028	-1e-05	-8e-05	-3e-05	4
17724	0	4e-05	5e-05	0.00017	0.00028	-1e-05	-8e-05	-3e-05	4
17725	0	4e-05	5e-05	0.00017	0.00028	-1e-05	-8e-05	-3e-05	4
17726	0	4e-05	5e-05	0.00017	0.00028	-1e-05	-8e-05	-3e-05	4
17727	0	4e-05	5e-05	0.00017	0.00028	-1e-05	-8e-05	-3e-05	4
17728	0	4e-05	5e-05	0.00017	0.00028	-1e-05	-8e-05	-3e-05	4
17729	0	4e-05	5e-05	0.00017	0.00028	-1e-05	-8e-05	-3e-05	4
17730	0	-2e-05	-0.00014	-0.00023	-0.00044	-0.00028	0	2e-05	4
17731	-1e-05	-7e-05	-7e-05	-0.00012	-6e-05	0.00014	-4e-05	-3e-05	4
17732	-1e-05	-7e-05	-7e-05	-0.00012	-6e-05	0.00014	-4e-05	-3e-05	4
17733	-1e-05	-7e-05	-7e-05	-0.00012	-6e-05	0.00014	-4e-05	-3e-05	4
17734	-1e-05	-7e-05	-7e-05	-0.00012	-6e-05	0.00014	-4e-05	-3e-05	4
17735	-1e-05	-7e-05	-7e-05	-0.00012	-6e-05	0.00014	-4e-05	-3e-05	4
17736	-1e-05	-7e-05	-7e-05	-0.00012	-6e-05	0.00014	-4e-05	-3e-05	4
17739	-1e-05	-7e-05	-7e-05	-0.00012	-6e-05	0.00014	-4e-05	-3e-05	4
17740	-1e-05	-7e-05	-7e-05	-0.00012	-6e-05	0.00014	-4e-05	-3e-05	4
17741	-1e-05	-7e-05	-7e-05	-0.00012	-6e-05	0.00014	-4e-05	-3e-05	4
17742	-1e-05	-7e-05	-7e-05	-0.00012	-6e-05	0.00014	-4e-05	-3e-05	4
17743	-1e-05	-7e-05	-7e-05	-0.00012	-6e-05	0.00014	-4e-05	-3e-05	4
17744	-1e-05	-7e-05	-7e-05	-0.00012	-6e-05	0.00014	-4e-05	-3e-05	4
17745	-1e-05	-7e-05	-7e-05	-0.00012	-6e-05	0.00014	-4e-05	-3e-05	4
17746	-1e-05	-7e-05	-7e-05	-0.00012	-6e-05	0.00014	-4e-05	-3e-05	4
17747	-1e-05	-7e-05	-7e-05	-0.00012	-6e-05	0.00014	-4e-05	-3e-05	4
17748	-1e-05	-7e-05	-7e-05	-0.00012	-6e-05	0.00014	-4e-05	-3e-05	4
17749	-1e-05	-7e-05	-7e-05	-0.00012	-6e-05	0.00014	-4e-05	-3e-05	4
17750	-1e-05	-7e-05	-7e-05	-0.00012	-6e-05	0.00014	-4e-05	-3e-05	4
17751	-1e-05	-7e-05	-7e-05	-0.00012	-6e-05	0.00014	-4e-05	-3e-05	4
17752	-1e-05	-7e-05	-7e-05	-0.00012	-6e-05	0.00014	-4e-05	-3e-05	4
17753	-4e-05	1e-05	4e-05	7e-05	-4e-05	-0.00023	-5e-05	-3e-05	4
17754	1e-05	-1e-05	-4e-05	-5e-05	0.00026	0.00056	5e-05	-1e-05	4
17755	1e-05	-1e-05	-4e-05	-5e-05	0.00026	0.00056	5e-05	-1e-05	4
17756	1e-05	-1e-05	-4e-05	-5e-05	0.00026	0.00056	5e-05	-1e-05	4
17757	1e-05	-1e-05	-4e-05	-5e-05	0.00026	0.00056	5e-05	-1e-05	4
17758	1e-05	-1e-05	-4e-05	-5e-05	0.00026	0.00056	5e-05	-1e-05	4
17759	1e-05	-1e-05	-4e-05	-5e-05	0.00026	0.00056	5e-05	-1e-05	4
17760	1e-05	-1e-05	-4e-05	-5e-05	0.00026	0.00056	5e-05	-1e-05	4
17761	1e-05	-1e-05	-4e-05	-5e-05	0.00026	0.00056	5e-05	-1e-05	4
17762	1e-05	-1e-05	-4e-05	-5e-05	0.00026	0.00056	5e-05	-1e-05	4
17763	1e-05	-1e-05	-4e-05	-5e-05	0.00026	0.00056	5e-05	-1e-05	4
17764	1e-05	-1e-05	-4e-05	-5e-05	0.00026	0.00056	5e-05	-1e-05	4
17765	1e-05	-1e-05	-4e-05	-5e-05	0.00026	0.00056	5e-05	-1e-05	4
17766	1e-05	-1e-05	-4e-05	-5e-05	0.00026	0.00056	5e-05	-1e-05	4
17767	1e-05	-1e-05	-4e-05	-5e-05	0.00026	0.00056	5e-05	-1e-05	4
17768	0	1e-05	6e-05	0.00021	0.00067	0.00047	0.0001	1e-05	4
17769	-3e-05	-1e-05	6e-05	0	-0.00062	-0.00033	-8e-05	-4e-05	4
17770	-3e-05	-1e-05	6e-05	0	-0.00062	-0.00033	-8e-05	-4e-05	4
17771	-3e-05	-1e-05	6e-05	0	-0.00062	-0.00033	-8e-05	-4e-05	4
17772	-3e-05	-1e-05	6e-05	0	-0.00062	-0.00033	-8e-05	-4e-05	4
17773	-3e-05	-1e-05	6e-05	0	-0.00062	-0.00033	-8e-05	-4e-05	4
17774	-3e-05	-1e-05	6e-05	0	-0.00062	-0.00033	-8e-05	-4e-05	4
17775	-3e-05	-1e-05	6e-05	0	-0.00062	-0.00033	-8e-05	-4e-05	4
17776	-3e-05	-1e-05	6e-05	0	-0.00062	-0.00033	-8e-05	-4e-05	4
17777	-3e-05	-1e-05	6e-05	0	-0.00062	-0.00033	-8e-05	-4e-05	4
17778	-3e-05	-1e-05	6e-05	0	-0.00062	-0.00033	-8e-05	-4e-05	4
17779	-3e-05	-1e-05	6e-05	0	-0.00062	-0.00033	-8e-05	-4e-05	4
17780	-3e-05	-1e-05	6e-05	0	-0.00062	-0.00033	-8e-05	-4e-05	4
17781	-3e-05	-1e-05	6e-05	0	-0.00062	-0.00033	-8e-05	-4e-05	4
17782	-3e-05	-1e-05	6e-05	0	-0.00062	-0.00033	-8e-05	-4e-05	4
17783	-3e-05	-1e-05	6e-05	0	-0.00062	-0.00033	-8e-05	-4e-05	4
17784	-3e-05	-1e-05	6e-05	0	-0.00062	-0.00033	-8e-05	-4e-05	4
17785	-3e-05	-1e-05	6e-05	0	-0.00062	-0.00033	-8e-05	-4e-05	4
17786	-3e-05	-1e-05	6e-05	0	-0.00062	-0.00033	-8e-05	-4e-05	4
17788	-3e-05	-1e-05	6e-05	0	-0.00062	-0.00033	-8e-05	-4e-05	4
17790	-2e-05	-8e-05	-5e-05	0.00029	0.00098	0	-5e-05	-2e-05	4
17791	5e-05	5e-05	1e-05	0.0001	0.00041	0.00012	5e-05	5e-05	4
17792	5e-05	5e-05	1e-05	0.0001	0.00041	0.00012	5e-05	5e-05	4
17793	5e-05	5e-05	1e-05	0.0001	0.00041	0.00012	5e-05	5e-05	4
17794	5e-05	5e-05	1e-05	0.0001	0.00041	0.00012	5e-05	5e-05	4
17795	5e-05	5e-05	1e-05	0.0001	0.00041	0.00012	5e-05	5e-05	4
17796	5e-05	5e-05	1e-05	0.0001	0.00041	0.00012	5e-05	5e-05	4
17797	5e-05	5e-05	1e-05	0.0001	0.00041	0.00012	5e-05	5e-05	4
17798	5e-05	5e-05	1e-05	0.0001	0.00041	0.00012	5e-05	5e-05	4
17799	5e-05	5e-05	1e-05	0.0001	0.00041	0.00012	5e-05	5e-05	4
17800	5e-05	5e-05	1e-05	0.0001	0.00041	0.00012	5e-05	5e-05	4
17801	5e-05	5e-05	1e-05	0.0001	0.00041	0.00012	5e-05	5e-05	4
17802	5e-05	5e-05	1e-05	0.0001	0.00041	0.00012	5e-05	5e-05	4
17803	5e-05	5e-05	1e-05	0.0001	0.00041	0.00012	5e-05	5e-05	4
17804	5e-05	5e-05	1e-05	0.0001	0.00041	0.00012	5e-05	5e-05	4
17805	5e-05	5e-05	1e-05	0.0001	0.00041	0.00012	5e-05	5e-05	4
17806	-1e-05	-3e-05	-1e-05	-0.00012	0.00012	0.00014	-4e-05	-2e-05	4
17807	0	-6e-05	-9e-05	-0.00011	0	0.00027	7e-05	1e-05	4
17808	0	-6e-05	-9e-05	-0.00011	0	0.00027	7e-05	1e-05	4
17809	0	-6e-05	-9e-05	-0.00011	0	0.00027	7e-05	1e-05	4
17810	0	-6e-05	-9e-05	-0.00011	0	0.00027	7e-05	1e-05	4
17811	0	-6e-05	-9e-05	-0.00011	0	0.00027	7e-05	1e-05	4
17812	0	-6e-05	-9e-05	-0.00011	0	0.00027	7e-05	1e-05	4
17813	0	-6e-05	-9e-05	-0.00011	0	0.00027	7e-05	1e-05	4
17814	0	-6e-05	-9e-05	-0.00011	0	0.00027	7e-05	1e-05	4
17815	0	-6e-05	-9e-05	-0.00011	0	0.00027	7e-05	1e-05	4
17816	0	-6e-05	-9e-05	-0.00011	0	0.00027	7e-05	1e-05	4
17817	0	-6e-05	-9e-05	-0.00011	0	0.00027	7e-05	1e-05	4
17818	0	-6e-05	-9e-05	-0.00011	0	0.00027	7e-05	1e-05	4
17819	0	-6e-05	-9e-05	-0.00011	0	0.00027	7e-05	1e-05	4
17820	0	-6e-05	-9e-05	-0.00011	0	0.00027	7e-05	1e-05	4
17821	0	-6e-05	-9e-05	-0.00011	0	0.00027	7e-05	1e-05	4
17822	0	-6e-05	-9e-05	-0.00011	0	0.00027	7e-05	1e-05	4
17823	0	-6e-05	-9e-05	-0.00011	0	0.00027	7e-05	1e-05	4
17824	0	-6e-05	-9e-05	-0.00011	0	0.00027	7e-05	1e-05	4
17825	0	-6e-05	-9e-05	-0.00011	0	0.00027	7e-05	1e-05	4
17826	0	-6e-05	-9e-05	-0.00011	0	0.00027	7e-05	1e-05	4
17827	0	-6e-05	-9e-05	-0.00011	0	0.00027	7e-05	1e-05	4
17828	1e-05	3e-05	5e-05	0.00028	0.00039	5e-05	7e-05	-1e-05	4
17829	2e-05	7e-05	8e-05	0	0.00019	0.00045	7e-05	2e-05	4
17830	2e-05	7e-05	8e-05	0	0.00019	0.00045	7e-05	2e-05	4
17831	2e-05	7e-05	8e-05	0	0.00019	0.00045	7e-05	2e-05	4
17832	2e-05	7e-05	8e-05	0	0.00019	0.00045	7e-05	2e-05	4
17833	2e-05	7e-05	8e-05	0	0.00019	0.00045	7e-05	2e-05	4
17834	2e-05	7e-05	8e-05	0	0.00019	0.00045	7e-05	2e-05	4
17835	2e-05	7e-05	8e-05	0	0.00019	0.00045	7e-05	2e-05	4
17836	2e-05	7e-05	8e-05	0	0.00019	0.00045	7e-05	2e-05	4
17838	2e-05	7e-05	8e-05	0	0.00019	0.00045	7e-05	2e-05	4
17839	2e-05	7e-05	8e-05	0	0.00019	0.00045	7e-05	2e-05	4
17840	2e-05	7e-05	8e-05	0	0.00019	0.00045	7e-05	2e-05	4
17841	2e-05	7e-05	8e-05	0	0.00019	0.00045	7e-05	2e-05	4
17842	2e-05	7e-05	8e-05	0	0.00019	0.00045	7e-05	2e-05	4
17843	2e-05	7e-05	8e-05	0	0.00019	0.00045	7e-05	2e-05	4
17844	2e-05	7e-05	8e-05	0	0.00019	0.00045	7e-05	2e-05	4
17845	2e-05	7e-05	8e-05	0	0.00019	0.00045	7e-05	2e-05	4
17846	2e-05	7e-05	8e-05	0	0.00019	0.00045	7e-05	2e-05	4
17847	2e-05	7e-05	8e-05	0	0.00019	0.00045	7e-05	2e-05	4
17848	2e-05	7e-05	8e-05	0	0.00019	0.00045	7e-05	2e-05	4
17849	2e-05	7e-05	8e-05	0	0.00019	0.00045	7e-05	2e-05	4
17850	2e-05	7e-05	8e-05	0	0.00019	0.00045	7e-05	2e-05	4
17851	-4e-05	-7e-05	-0.00015	-0.00023	-0.00034	-0.00029	-7e-05	-4e-05	4
17852	-4e-05	-7e-05	-0.00015	-0.00023	-0.00034	-0.00029	-7e-05	-4e-05	4
17853	-4e-05	-7e-05	-0.00015	-0.00023	-0.00034	-0.00029	-7e-05	-4e-05	4
17854	-4e-05	-7e-05	-0.00015	-0.00023	-0.00034	-0.00029	-7e-05	-4e-05	4
17855	-4e-05	-7e-05	-0.00015	-0.00023	-0.00034	-0.00029	-7e-05	-4e-05	4
17856	-4e-05	-7e-05	-0.00015	-0.00023	-0.00034	-0.00029	-7e-05	-4e-05	4
17857	-4e-05	-7e-05	-0.00015	-0.00023	-0.00034	-0.00029	-7e-05	-4e-05	4
17858	-4e-05	-7e-05	-0.00015	-0.00023	-0.00034	-0.00029	-7e-05	-4e-05	4
17859	-4e-05	-7e-05	-0.00015	-0.00023	-0.00034	-0.00029	-7e-05	-4e-05	4
17860	-4e-05	-7e-05	-0.00015	-0.00023	-0.00034	-0.00029	-7e-05	-4e-05	4
17861	-4e-05	-7e-05	-0.00015	-0.00023	-0.00034	-0.00029	-7e-05	-4e-05	4
17862	-4e-05	-7e-05	-0.00015	-0.00023	-0.00034	-0.00029	-7e-05	-4e-05	4
17863	-4e-05	-7e-05	-0.00015	-0.00023	-0.00034	-0.00029	-7e-05	-4e-05	4
17864	-4e-05	-7e-05	-0.00015	-0.00023	-0.00034	-0.00029	-7e-05	-4e-05	4
17865	-4e-05	-7e-05	-0.00015	-0.00023	-0.00034	-0.00029	-7e-05	-4e-05	4
17866	-4e-05	-7e-05	-0.00015	-0.00023	-0.00034	-0.00029	-7e-05	-4e-05	4
17867	0	4e-05	0.00016	0.00034	0.00017	-7e-05	7e-05	1e-05	4
17868	-4e-05	-3e-05	0	3e-05	-0.00029	2e-05	-5e-05	-3e-05	4
17869	-4e-05	-3e-05	0	3e-05	-0.00029	2e-05	-5e-05	-3e-05	4
17870	-4e-05	-3e-05	0	3e-05	-0.00029	2e-05	-5e-05	-3e-05	4
17871	-4e-05	-3e-05	0	3e-05	-0.00029	2e-05	-5e-05	-3e-05	4
17872	-4e-05	-3e-05	0	3e-05	-0.00029	2e-05	-5e-05	-3e-05	4
17874	-4e-05	-3e-05	0	3e-05	-0.00029	2e-05	-5e-05	-3e-05	4
17875	-4e-05	-3e-05	0	3e-05	-0.00029	2e-05	-5e-05	-3e-05	4
17876	-4e-05	-3e-05	0	3e-05	-0.00029	2e-05	-5e-05	-3e-05	4
17877	-4e-05	-3e-05	0	3e-05	-0.00029	2e-05	-5e-05	-3e-05	4
17878	-4e-05	-3e-05	0	3e-05	-0.00029	2e-05	-5e-05	-3e-05	4
17879	-4e-05	-3e-05	0	3e-05	-0.00029	2e-05	-5e-05	-3e-05	4
17880	-4e-05	-3e-05	0	3e-05	-0.00029	2e-05	-5e-05	-3e-05	4
17881	-4e-05	-3e-05	0	3e-05	-0.00029	2e-05	-5e-05	-3e-05	4
17882	-4e-05	-3e-05	0	3e-05	-0.00029	2e-05	-5e-05	-3e-05	4
17883	-4e-05	-3e-05	0	3e-05	-0.00029	2e-05	-5e-05	-3e-05	4
17884	-4e-05	-3e-05	0	3e-05	-0.00029	2e-05	-5e-05	-3e-05	4
17885	-4e-05	-3e-05	0	3e-05	-0.00029	2e-05	-5e-05	-3e-05	4
17886	-4e-05	-3e-05	0	3e-05	-0.00029	2e-05	-5e-05	-3e-05	4
17889	4e-05	0	-1e-05	-0.00037	-0.00019	0.00023	1e-05	2e-05	4
17890	4e-05	0	-1e-05	-0.00037	-0.00019	0.00023	1e-05	2e-05	4
17891	4e-05	0	-1e-05	-0.00037	-0.00019	0.00023	1e-05	2e-05	4
17892	4e-05	0	-1e-05	-0.00037	-0.00019	0.00023	1e-05	2e-05	4
17893	4e-05	0	-1e-05	-0.00037	-0.00019	0.00023	1e-05	2e-05	4
17894	4e-05	0	-1e-05	-0.00037	-0.00019	0.00023	1e-05	2e-05	4
17895	4e-05	0	-1e-05	-0.00037	-0.00019	0.00023	1e-05	2e-05	4
17896	4e-05	0	-1e-05	-0.00037	-0.00019	0.00023	1e-05	2e-05	4
17897	4e-05	0	-1e-05	-0.00037	-0.00019	0.00023	1e-05	2e-05	4
17898	4e-05	0	-1e-05	-0.00037	-0.00019	0.00023	1e-05	2e-05	4
17899	4e-05	0	-1e-05	-0.00037	-0.00019	0.00023	1e-05	2e-05	4
17900	4e-05	0	-1e-05	-0.00037	-0.00019	0.00023	1e-05	2e-05	4
17901	4e-05	0	-1e-05	-0.00037	-0.00019	0.00023	1e-05	2e-05	4
17902	4e-05	0	-1e-05	-0.00037	-0.00019	0.00023	1e-05	2e-05	4
17903	4e-05	0	-1e-05	-0.00037	-0.00019	0.00023	1e-05	2e-05	4
17904	4e-05	0	-1e-05	-0.00037	-0.00019	0.00023	1e-05	2e-05	4
17905	4e-05	0	-1e-05	-0.00037	-0.00019	0.00023	1e-05	2e-05	4
17906	4e-05	0	-1e-05	-0.00037	-0.00019	0.00023	1e-05	2e-05	4
17907	4e-05	0	-1e-05	-0.00037	-0.00019	0.00023	1e-05	2e-05	4
17908	4e-05	0	-1e-05	-0.00037	-0.00019	0.00023	1e-05	2e-05	4
17909	4e-05	0	-1e-05	-0.00037	-0.00019	0.00023	1e-05	2e-05	4
17910	4e-05	0	-1e-05	-0.00037	-0.00019	0.00023	1e-05	2e-05	4
17911	4e-05	0	-1e-05	-0.00037	-0.00019	0.00023	1e-05	2e-05	4
17912	5e-05	4e-05	0.00011	0.00021	0.00054	0.00014	0.00011	5e-05	4
17913	-4e-05	-3e-05	-8e-05	-6e-05	-0.0002	-0.00054	-0.00013	-7e-05	4
17914	-4e-05	-3e-05	-8e-05	-6e-05	-0.0002	-0.00054	-0.00013	-7e-05	4
17915	-4e-05	-3e-05	-8e-05	-6e-05	-0.0002	-0.00054	-0.00013	-7e-05	4
17916	-4e-05	-3e-05	-8e-05	-6e-05	-0.0002	-0.00054	-0.00013	-7e-05	4
17917	-4e-05	-3e-05	-8e-05	-6e-05	-0.0002	-0.00054	-0.00013	-7e-05	4
17918	-4e-05	-3e-05	-8e-05	-6e-05	-0.0002	-0.00054	-0.00013	-7e-05	4
17919	-4e-05	-3e-05	-8e-05	-6e-05	-0.0002	-0.00054	-0.00013	-7e-05	4
17920	-4e-05	-3e-05	-8e-05	-6e-05	-0.0002	-0.00054	-0.00013	-7e-05	4
17921	-4e-05	-3e-05	-8e-05	-6e-05	-0.0002	-0.00054	-0.00013	-7e-05	4
17922	-4e-05	-3e-05	-8e-05	-6e-05	-0.0002	-0.00054	-0.00013	-7e-05	4
17923	-4e-05	-3e-05	-8e-05	-6e-05	-0.0002	-0.00054	-0.00013	-7e-05	4
17924	-4e-05	-3e-05	-8e-05	-6e-05	-0.0002	-0.00054	-0.00013	-7e-05	4
17925	-4e-05	-3e-05	-8e-05	-6e-05	-0.0002	-0.00054	-0.00013	-7e-05	4
17926	-4e-05	-3e-05	-8e-05	-6e-05	-0.0002	-0.00054	-0.00013	-7e-05	4
17927	-4e-05	-3e-05	-8e-05	-6e-05	-0.0002	-0.00054	-0.00013	-7e-05	4
17928	-4e-05	-3e-05	-8e-05	-6e-05	-0.0002	-0.00054	-0.00013	-7e-05	4
17929	-4e-05	-3e-05	-8e-05	-6e-05	-0.0002	-0.00054	-0.00013	-7e-05	4
17930	-4e-05	-3e-05	-8e-05	-6e-05	-0.0002	-0.00054	-0.00013	-7e-05	4
17931	-4e-05	-3e-05	-8e-05	-6e-05	-0.0002	-0.00054	-0.00013	-7e-05	4
17932	-4e-05	-3e-05	-8e-05	-6e-05	-0.0002	-0.00054	-0.00013	-7e-05	4
17933	3e-05	5e-05	7e-05	-3e-05	-0.00031	0.00045	0.00015	5e-05	4
17934	0	2e-05	-5e-05	-0.00019	-0.00076	0.00016	2e-05	3e-05	4
17935	0	2e-05	-5e-05	-0.00019	-0.00076	0.00016	2e-05	3e-05	4
17936	0	2e-05	-5e-05	-0.00019	-0.00076	0.00016	2e-05	3e-05	4
17938	0	2e-05	-5e-05	-0.00019	-0.00076	0.00016	2e-05	3e-05	4
17939	0	2e-05	-5e-05	-0.00019	-0.00076	0.00016	2e-05	3e-05	4
17940	0	2e-05	-5e-05	-0.00019	-0.00076	0.00016	2e-05	3e-05	4
17941	0	2e-05	-5e-05	-0.00019	-0.00076	0.00016	2e-05	3e-05	4
17942	0	2e-05	-5e-05	-0.00019	-0.00076	0.00016	2e-05	3e-05	4
17943	0	2e-05	-5e-05	-0.00019	-0.00076	0.00016	2e-05	3e-05	4
17944	0	2e-05	-5e-05	-0.00019	-0.00076	0.00016	2e-05	3e-05	4
17945	0	2e-05	-5e-05	-0.00019	-0.00076	0.00016	2e-05	3e-05	4
17946	0	2e-05	-5e-05	-0.00019	-0.00076	0.00016	2e-05	3e-05	4
17947	0	2e-05	-5e-05	-0.00019	-0.00076	0.00016	2e-05	3e-05	4
17948	0	2e-05	-5e-05	-0.00019	-0.00076	0.00016	2e-05	3e-05	4
17949	0	2e-05	-5e-05	-0.00019	-0.00076	0.00016	2e-05	3e-05	4
17950	0	2e-05	-5e-05	-0.00019	-0.00076	0.00016	2e-05	3e-05	4
17951	0	2e-05	-5e-05	-0.00019	-0.00076	0.00016	2e-05	3e-05	4
17952	0	2e-05	-5e-05	-0.00019	-0.00076	0.00016	2e-05	3e-05	4
17953	0	2e-05	-5e-05	-0.00019	-0.00076	0.00016	2e-05	3e-05	4
17954	0	2e-05	-5e-05	-0.00019	-0.00076	0.00016	2e-05	3e-05	4
17955	0	2e-05	-5e-05	-0.00019	-0.00076	0.00016	2e-05	3e-05	4
17956	0	2e-05	-5e-05	-0.00019	-0.00076	0.00016	2e-05	3e-05	4
17957	2e-05	2e-05	0.0001	0.00031	0.00033	-0.00035	0	-2e-05	4
17958	2e-05	2e-05	0.0001	0.00031	0.00033	-0.00035	0	-2e-05	4
17959	2e-05	2e-05	0.0001	0.00031	0.00033	-0.00035	0	-2e-05	4
17960	2e-05	2e-05	0.0001	0.00031	0.00033	-0.00035	0	-2e-05	4
17961	2e-05	2e-05	0.0001	0.00031	0.00033	-0.00035	0	-2e-05	4
17962	2e-05	2e-05	0.0001	0.00031	0.00033	-0.00035	0	-2e-05	4
17963	2e-05	2e-05	0.0001	0.00031	0.00033	-0.00035	0	-2e-05	4
17964	2e-05	2e-05	0.0001	0.00031	0.00033	-0.00035	0	-2e-05	4
17965	2e-05	2e-05	0.0001	0.00031	0.00033	-0.00035	0	-2e-05	4
17966	2e-05	2e-05	0.0001	0.00031	0.00033	-0.00035	0	-2e-05	4
17967	2e-05	2e-05	0.0001	0.00031	0.00033	-0.00035	0	-2e-05	4
17968	2e-05	2e-05	0.0001	0.00031	0.00033	-0.00035	0	-2e-05	4
17969	2e-05	2e-05	0.0001	0.00031	0.00033	-0.00035	0	-2e-05	4
17970	-3e-05	-3e-05	-4e-05	-0.00011	-4e-05	-0.00046	-0.00012	-5e-05	4
17971	2e-05	3e-05	4e-05	3e-05	0.00053	0.00028	5e-05	0	4
17972	2e-05	3e-05	4e-05	3e-05	0.00053	0.00028	5e-05	0	4
17973	2e-05	3e-05	4e-05	3e-05	0.00053	0.00028	5e-05	0	4
17974	2e-05	3e-05	4e-05	3e-05	0.00053	0.00028	5e-05	0	4
17975	2e-05	3e-05	4e-05	3e-05	0.00053	0.00028	5e-05	0	4
17976	2e-05	3e-05	4e-05	3e-05	0.00053	0.00028	5e-05	0	4
17977	2e-05	3e-05	4e-05	3e-05	0.00053	0.00028	5e-05	0	4
17978	2e-05	3e-05	4e-05	3e-05	0.00053	0.00028	5e-05	0	4
17979	2e-05	3e-05	4e-05	3e-05	0.00053	0.00028	5e-05	0	4
17980	2e-05	3e-05	4e-05	3e-05	0.00053	0.00028	5e-05	0	4
17981	2e-05	3e-05	4e-05	3e-05	0.00053	0.00028	5e-05	0	4
17982	2e-05	3e-05	4e-05	3e-05	0.00053	0.00028	5e-05	0	4
17983	2e-05	3e-05	4e-05	3e-05	0.00053	0.00028	5e-05	0	4
17984	2e-05	3e-05	4e-05	3e-05	0.00053	0.00028	5e-05	0	4
17985	2e-05	3e-05	4e-05	3e-05	0.00053	0.00028	5e-05	0	4
17986	2e-05	3e-05	4e-05	3e-05	0.00053	0.00028	5e-05	0	4
17988	2e-05	3e-05	4e-05	3e-05	0.00053	0.00028	5e-05	0	4
17989	2e-05	3e-05	4e-05	3e-05	0.00053	0.00028	5e-05	0	4
17990	2e-05	3e-05	4e-05	3e-05	0.00053	0.00028	5e-05	0	4
17991	2e-05	3e-05	4e-05	3e-05	0.00053	0.00028	5e-05	0	4
17993	-4e-05	-3e-05	1e-05	-3e-05	-0.00015	-0.00015	-0.0001	-7e-05	4
17994	-6e-05	-0.00015	-0.00021	-0.00011	0.00084	-0.00041	-0.00016	-6e-05	4
17995	-6e-05	-0.00015	-0.00021	-0.00011	0.00084	-0.00041	-0.00016	-6e-05	4
17996	-6e-05	-0.00015	-0.00021	-0.00011	0.00084	-0.00041	-0.00016	-6e-05	4
17997	-6e-05	-0.00015	-0.00021	-0.00011	0.00084	-0.00041	-0.00016	-6e-05	4
17998	-6e-05	-0.00015	-0.00021	-0.00011	0.00084	-0.00041	-0.00016	-6e-05	4
17999	-6e-05	-0.00015	-0.00021	-0.00011	0.00084	-0.00041	-0.00016	-6e-05	4
18000	-2e-05	0	1e-05	0.0001	0.00016	0.00034	-1e-05	-1e-05	4
18001	-2e-05	0	1e-05	0.0001	0.00016	0.00034	-1e-05	-1e-05	4
18002	-2e-05	0	1e-05	0.0001	0.00016	0.00034	-1e-05	-1e-05	4
18003	-2e-05	0	1e-05	0.0001	0.00016	0.00034	-1e-05	-1e-05	4
18004	-2e-05	0	1e-05	0.0001	0.00016	0.00034	-1e-05	-1e-05	4
18005	-2e-05	0	1e-05	0.0001	0.00016	0.00034	-1e-05	-1e-05	4
18006	-2e-05	0	1e-05	0.0001	0.00016	0.00034	-1e-05	-1e-05	4
18007	-2e-05	0	1e-05	0.0001	0.00016	0.00034	-1e-05	-1e-05	4
18008	1e-05	-1e-05	-2e-05	6e-05	0.00055	-2e-05	5e-05	2e-05	4
18009	0	1e-05	4e-05	8e-05	8e-05	-3e-05	2e-05	2e-05	4
18010	0	1e-05	4e-05	8e-05	8e-05	-3e-05	2e-05	2e-05	4
18011	0	1e-05	4e-05	8e-05	8e-05	-3e-05	2e-05	2e-05	4
18012	0	1e-05	4e-05	8e-05	8e-05	-3e-05	2e-05	2e-05	4
18013	0	1e-05	4e-05	8e-05	8e-05	-3e-05	2e-05	2e-05	4
18014	0	1e-05	4e-05	8e-05	8e-05	-3e-05	2e-05	2e-05	4
18015	0	1e-05	4e-05	8e-05	8e-05	-3e-05	2e-05	2e-05	4
18016	0	1e-05	4e-05	8e-05	8e-05	-3e-05	2e-05	2e-05	4
18017	0	1e-05	4e-05	8e-05	8e-05	-3e-05	2e-05	2e-05	4
18018	0	1e-05	4e-05	8e-05	8e-05	-3e-05	2e-05	2e-05	4
18019	0	1e-05	4e-05	8e-05	8e-05	-3e-05	2e-05	2e-05	4
18020	0	1e-05	4e-05	8e-05	8e-05	-3e-05	2e-05	2e-05	4
18021	0	1e-05	4e-05	8e-05	8e-05	-3e-05	2e-05	2e-05	4
18022	0	1e-05	4e-05	8e-05	8e-05	-3e-05	2e-05	2e-05	4
18023	0	1e-05	4e-05	8e-05	8e-05	-3e-05	2e-05	2e-05	4
18024	0	1e-05	4e-05	8e-05	8e-05	-3e-05	2e-05	2e-05	4
18025	0	1e-05	4e-05	8e-05	8e-05	-3e-05	2e-05	2e-05	4
18026	0	1e-05	4e-05	8e-05	8e-05	-3e-05	2e-05	2e-05	4
18027	0	1e-05	4e-05	8e-05	8e-05	-3e-05	2e-05	2e-05	4
18028	0	1e-05	4e-05	8e-05	8e-05	-3e-05	2e-05	2e-05	4
18029	0	1e-05	4e-05	8e-05	8e-05	-3e-05	2e-05	2e-05	4
18030	5e-05	9e-05	0.00013	0.00028	0.00044	6e-05	0.00011	3e-05	4
18031	-3e-05	-1e-05	-1e-05	6e-05	-3e-05	8e-05	0	-1e-05	4
18032	-3e-05	-1e-05	-1e-05	6e-05	-3e-05	8e-05	0	-1e-05	4
18033	-3e-05	-1e-05	-1e-05	6e-05	-3e-05	8e-05	0	-1e-05	4
18034	-3e-05	-1e-05	-1e-05	6e-05	-3e-05	8e-05	0	-1e-05	4
18035	-3e-05	-1e-05	-1e-05	6e-05	-3e-05	8e-05	0	-1e-05	4
18036	-3e-05	-1e-05	-1e-05	6e-05	-3e-05	8e-05	0	-1e-05	4
46095	0.00011	0.00011	0.00013	-6e-05	-0.00065	-0.00011	0.00019	0.00014	4
46096	0.00011	0.00011	0.00013	-6e-05	-0.00065	-0.00011	0.00019	0.00014	4
46097	0.00011	0.00011	0.00013	-6e-05	-0.00065	-0.00011	0.00019	0.00014	4
46098	0.00011	0.00011	0.00013	-6e-05	-0.00065	-0.00011	0.00019	0.00014	4
46099	0.00011	0.00011	0.00013	-6e-05	-0.00065	-0.00011	0.00019	0.00014	4
46100	0.00011	0.00011	0.00013	-6e-05	-0.00065	-0.00011	0.00019	0.00014	4
46101	0.00011	0.00011	0.00013	-6e-05	-0.00065	-0.00011	0.00019	0.00014	4
46102	0.00011	0.00011	0.00013	-6e-05	-0.00065	-0.00011	0.00019	0.00014	4
46103	0.00011	0.00011	0.00013	-6e-05	-0.00065	-0.00011	0.00019	0.00014	4
46104	1e-05	-1e-05	-6e-05	-0.00018	-0.00028	-5e-05	0.00017	9e-05	4
46105	0	0	0.0001	0.00014	0.00057	0.00027	0	-4e-05	4
46106	0	0	0.0001	0.00014	0.00057	0.00027	0	-4e-05	4
46107	0	0	0.0001	0.00014	0.00057	0.00027	0	-4e-05	4
46108	0	0	0.0001	0.00014	0.00057	0.00027	0	-4e-05	4
46109	0	0	0.0001	0.00014	0.00057	0.00027	0	-4e-05	4
46110	0	0	0.0001	0.00014	0.00057	0.00027	0	-4e-05	4
46111	0	0	0.0001	0.00014	0.00057	0.00027	0	-4e-05	4
46112	0	0	0.0001	0.00014	0.00057	0.00027	0	-4e-05	4
46113	0	0	0.0001	0.00014	0.00057	0.00027	0	-4e-05	4
46114	0	0	0.0001	0.00014	0.00057	0.00027	0	-4e-05	4
46115	0	0	0.0001	0.00014	0.00057	0.00027	0	-4e-05	4
46116	0	0	0.0001	0.00014	0.00057	0.00027	0	-4e-05	4
46117	0	0	0.0001	0.00014	0.00057	0.00027	0	-4e-05	4
46118	0	0	0.0001	0.00014	0.00057	0.00027	0	-4e-05	4
46119	0	0	0.0001	0.00014	0.00057	0.00027	0	-4e-05	4
46120	0	0	0.0001	0.00014	0.00057	0.00027	0	-4e-05	4
46121	0	0	0.0001	0.00014	0.00057	0.00027	0	-4e-05	4
46122	0	0	0.0001	0.00014	0.00057	0.00027	0	-4e-05	4
46123	0	0	0.0001	0.00014	0.00057	0.00027	0	-4e-05	4
46124	0	0	0.0001	0.00014	0.00057	0.00027	0	-4e-05	4
46125	0	0	0.0001	0.00014	0.00057	0.00027	0	-4e-05	4
46126	0	0	0.0001	0.00014	0.00057	0.00027	0	-4e-05	4
46127	-2e-05	-1e-05	-0.00014	-0.00071	-0.00063	-0.00065	-4e-05	4e-05	4
46128	-6e-05	-5e-05	-6e-05	2e-05	0.00035	-0.00091	-9e-05	-5e-05	4
46129	-6e-05	-5e-05	-6e-05	2e-05	0.00035	-0.00091	-9e-05	-5e-05	4
46130	-6e-05	-5e-05	-6e-05	2e-05	0.00035	-0.00091	-9e-05	-5e-05	4
46131	-6e-05	-5e-05	-6e-05	2e-05	0.00035	-0.00091	-9e-05	-5e-05	4
46132	-6e-05	-5e-05	-6e-05	2e-05	0.00035	-0.00091	-9e-05	-5e-05	4
46133	-6e-05	-5e-05	-6e-05	2e-05	0.00035	-0.00091	-9e-05	-5e-05	4
46134	-6e-05	-5e-05	-6e-05	2e-05	0.00035	-0.00091	-9e-05	-5e-05	4
46135	-6e-05	-5e-05	-6e-05	2e-05	0.00035	-0.00091	-9e-05	-5e-05	4
46136	-6e-05	-5e-05	-6e-05	2e-05	0.00035	-0.00091	-9e-05	-5e-05	4
46139	-6e-05	-5e-05	-6e-05	2e-05	0.00035	-0.00091	-9e-05	-5e-05	4
46140	-2e-05	-4e-05	0	5e-05	0.00012	-0.00035	-0.00012	-9e-05	4
46141	-2e-05	-4e-05	0	5e-05	0.00012	-0.00035	-0.00012	-9e-05	4
46142	-2e-05	-4e-05	0	5e-05	0.00012	-0.00035	-0.00012	-9e-05	4
46143	-2e-05	-4e-05	0	5e-05	0.00012	-0.00035	-0.00012	-9e-05	4
46144	-2e-05	-4e-05	0	5e-05	0.00012	-0.00035	-0.00012	-9e-05	4
46145	-2e-05	-4e-05	0	5e-05	0.00012	-0.00035	-0.00012	-9e-05	4
46146	-2e-05	-4e-05	0	5e-05	0.00012	-0.00035	-0.00012	-9e-05	4
46147	0	4e-05	-8e-05	-9e-05	-0.00038	-0.00035	0	2e-05	4
46148	0	4e-05	-8e-05	-9e-05	-0.00038	-0.00035	0	2e-05	4
46149	0	4e-05	-8e-05	-9e-05	-0.00038	-0.00035	0	2e-05	4
46150	0	4e-05	-8e-05	-9e-05	-0.00038	-0.00035	0	2e-05	4
46151	0	4e-05	-8e-05	-9e-05	-0.00038	-0.00035	0	2e-05	4
46152	0	4e-05	-8e-05	-9e-05	-0.00038	-0.00035	0	2e-05	4
46153	0	4e-05	-8e-05	-9e-05	-0.00038	-0.00035	0	2e-05	4
46154	0	4e-05	-8e-05	-9e-05	-0.00038	-0.00035	0	2e-05	4
46155	0	4e-05	-8e-05	-9e-05	-0.00038	-0.00035	0	2e-05	4
46156	0	4e-05	-8e-05	-9e-05	-0.00038	-0.00035	0	2e-05	4
46157	0	4e-05	-8e-05	-9e-05	-0.00038	-0.00035	0	2e-05	4
46158	0	4e-05	-8e-05	-9e-05	-0.00038	-0.00035	0	2e-05	4
46159	0	4e-05	-8e-05	-9e-05	-0.00038	-0.00035	0	2e-05	4
46160	0	4e-05	-8e-05	-9e-05	-0.00038	-0.00035	0	2e-05	4
46161	0	4e-05	-8e-05	-9e-05	-0.00038	-0.00035	0	2e-05	4
46162	0	4e-05	-8e-05	-9e-05	-0.00038	-0.00035	0	2e-05	4
46163	0	4e-05	-8e-05	-9e-05	-0.00038	-0.00035	0	2e-05	4
46164	0	4e-05	-8e-05	-9e-05	-0.00038	-0.00035	0	2e-05	4
46165	0	4e-05	-8e-05	-9e-05	-0.00038	-0.00035	0	2e-05	4
46166	0	4e-05	-8e-05	-9e-05	-0.00038	-0.00035	0	2e-05	4
46167	0	4e-05	-8e-05	-9e-05	-0.00038	-0.00035	0	2e-05	4
46168	0	4e-05	-8e-05	-9e-05	-0.00038	-0.00035	0	2e-05	4
46169	0	4e-05	-8e-05	-9e-05	-0.00038	-0.00035	0	2e-05	4
46170	0	4e-05	-8e-05	-9e-05	-0.00038	-0.00035	0	2e-05	4
46171	-4e-05	-6e-05	-6e-05	9e-05	-1e-05	0.0006	3e-05	-4e-05	4
46172	1e-05	0	7e-05	2e-05	-0.00029	0.00075	9e-05	0	4
46173	1e-05	0	7e-05	2e-05	-0.00029	0.00075	9e-05	0	4
46174	1e-05	0	7e-05	2e-05	-0.00029	0.00075	9e-05	0	4
46175	1e-05	0	7e-05	2e-05	-0.00029	0.00075	9e-05	0	4
46176	1e-05	0	7e-05	2e-05	-0.00029	0.00075	9e-05	0	4
46177	1e-05	0	7e-05	2e-05	-0.00029	0.00075	9e-05	0	4
46178	1e-05	0	7e-05	2e-05	-0.00029	0.00075	9e-05	0	4
46179	1e-05	0	7e-05	2e-05	-0.00029	0.00075	9e-05	0	4
46180	1e-05	0	7e-05	2e-05	-0.00029	0.00075	9e-05	0	4
46181	1e-05	0	7e-05	2e-05	-0.00029	0.00075	9e-05	0	4
46182	1e-05	0	7e-05	2e-05	-0.00029	0.00075	9e-05	0	4
46183	1e-05	0	7e-05	2e-05	-0.00029	0.00075	9e-05	0	4
46184	1e-05	0	7e-05	2e-05	-0.00029	0.00075	9e-05	0	4
46185	1e-05	0	7e-05	2e-05	-0.00029	0.00075	9e-05	0	4
46186	1e-05	6e-05	7e-05	0.00011	-0.00031	-0.00015	-4e-05	0	4
46189	-1e-05	1e-05	6e-05	0.00028	0.00079	0.00049	3e-05	0	4
46190	-1e-05	1e-05	6e-05	0.00028	0.00079	0.00049	3e-05	0	4
46191	-1e-05	1e-05	6e-05	0.00028	0.00079	0.00049	3e-05	0	4
46192	-1e-05	1e-05	6e-05	0.00028	0.00079	0.00049	3e-05	0	4
46193	-1e-05	1e-05	6e-05	0.00028	0.00079	0.00049	3e-05	0	4
46194	-1e-05	1e-05	6e-05	0.00028	0.00079	0.00049	3e-05	0	4
46195	-1e-05	1e-05	6e-05	0.00028	0.00079	0.00049	3e-05	0	4
46196	-1e-05	1e-05	6e-05	0.00028	0.00079	0.00049	3e-05	0	4
46197	-1e-05	1e-05	6e-05	0.00028	0.00079	0.00049	3e-05	0	4
46198	-1e-05	1e-05	6e-05	0.00028	0.00079	0.00049	3e-05	0	4
46199	-1e-05	1e-05	6e-05	0.00028	0.00079	0.00049	3e-05	0	4
46200	2e-05	4e-05	-4e-05	-0.00011	-0.00062	-0.00023	-3e-05	-1e-05	4
46201	2e-05	4e-05	-4e-05	-0.00011	-0.00062	-0.00023	-3e-05	-1e-05	4
46202	2e-05	4e-05	-4e-05	-0.00011	-0.00062	-0.00023	-3e-05	-1e-05	4
46203	2e-05	4e-05	-4e-05	-0.00011	-0.00062	-0.00023	-3e-05	-1e-05	4
46204	2e-05	4e-05	-4e-05	-0.00011	-0.00062	-0.00023	-3e-05	-1e-05	4
46205	2e-05	4e-05	-4e-05	-0.00011	-0.00062	-0.00023	-3e-05	-1e-05	4
46206	2e-05	4e-05	-4e-05	-0.00011	-0.00062	-0.00023	-3e-05	-1e-05	4
46207	2e-05	4e-05	-4e-05	-0.00011	-0.00062	-0.00023	-3e-05	-1e-05	4
46208	2e-05	4e-05	-4e-05	-0.00011	-0.00062	-0.00023	-3e-05	-1e-05	4
46209	2e-05	4e-05	-4e-05	-0.00011	-0.00062	-0.00023	-3e-05	-1e-05	4
46210	2e-05	4e-05	-4e-05	-0.00011	-0.00062	-0.00023	-3e-05	-1e-05	4
46211	2e-05	4e-05	-4e-05	-0.00011	-0.00062	-0.00023	-3e-05	-1e-05	4
46213	2e-05	4e-05	-4e-05	-0.00011	-0.00062	-0.00023	-3e-05	-1e-05	4
46214	-4e-05	-2e-05	4e-05	0.00021	-0.00019	-0.00058	-5e-05	-2e-05	4
46215	-4e-05	-2e-05	4e-05	0.00021	-0.00019	-0.00058	-5e-05	-2e-05	4
46216	-4e-05	-2e-05	4e-05	0.00021	-0.00019	-0.00058	-5e-05	-2e-05	4
46217	-4e-05	-2e-05	4e-05	0.00021	-0.00019	-0.00058	-5e-05	-2e-05	4
46218	-4e-05	-2e-05	4e-05	0.00021	-0.00019	-0.00058	-5e-05	-2e-05	4
46219	-4e-05	-2e-05	4e-05	0.00021	-0.00019	-0.00058	-5e-05	-2e-05	4
46220	-4e-05	-2e-05	4e-05	0.00021	-0.00019	-0.00058	-5e-05	-2e-05	4
46221	-4e-05	-2e-05	4e-05	0.00021	-0.00019	-0.00058	-5e-05	-2e-05	4
46222	-4e-05	-2e-05	4e-05	0.00021	-0.00019	-0.00058	-5e-05	-2e-05	4
46223	-4e-05	-2e-05	4e-05	0.00021	-0.00019	-0.00058	-5e-05	-2e-05	4
46224	-4e-05	-2e-05	4e-05	0.00021	-0.00019	-0.00058	-5e-05	-2e-05	4
46225	-4e-05	-2e-05	4e-05	0.00021	-0.00019	-0.00058	-5e-05	-2e-05	4
46226	-4e-05	-2e-05	4e-05	0.00021	-0.00019	-0.00058	-5e-05	-2e-05	4
46227	-4e-05	-2e-05	4e-05	0.00021	-0.00019	-0.00058	-5e-05	-2e-05	4
46228	-4e-05	-2e-05	4e-05	0.00021	-0.00019	-0.00058	-5e-05	-2e-05	4
46229	-4e-05	-2e-05	4e-05	0.00021	-0.00019	-0.00058	-5e-05	-2e-05	4
46230	-4e-05	-2e-05	4e-05	0.00021	-0.00019	-0.00058	-5e-05	-2e-05	4
46231	0	5e-05	4e-05	0.00032	0.001	-0.00024	0	-1e-05	4
46232	-8e-05	-0.00011	-6e-05	9e-05	-0.00057	-3e-05	-0.00014	-0.0001	4
46233	-8e-05	-0.00011	-6e-05	9e-05	-0.00057	-3e-05	-0.00014	-0.0001	4
46234	-8e-05	-0.00011	-6e-05	9e-05	-0.00057	-3e-05	-0.00014	-0.0001	4
46235	-8e-05	-0.00011	-6e-05	9e-05	-0.00057	-3e-05	-0.00014	-0.0001	4
46236	-8e-05	-0.00011	-6e-05	9e-05	-0.00057	-3e-05	-0.00014	-0.0001	4
46239	-8e-05	-0.00011	-6e-05	9e-05	-0.00057	-3e-05	-0.00014	-0.0001	4
46240	-8e-05	-0.00011	-6e-05	9e-05	-0.00057	-3e-05	-0.00014	-0.0001	4
46241	-8e-05	-0.00011	-6e-05	9e-05	-0.00057	-3e-05	-0.00014	-0.0001	4
46242	-8e-05	-0.00011	-6e-05	9e-05	-0.00057	-3e-05	-0.00014	-0.0001	4
46243	-8e-05	-0.00011	-6e-05	9e-05	-0.00057	-3e-05	-0.00014	-0.0001	4
46244	-8e-05	-0.00011	-6e-05	9e-05	-0.00057	-3e-05	-0.00014	-0.0001	4
46245	-8e-05	-0.00011	-6e-05	9e-05	-0.00057	-3e-05	-0.00014	-0.0001	4
46246	-5e-05	-8e-05	-0.00025	-0.00017	2e-05	-1e-05	-7e-05	-3e-05	4
46247	-5e-05	-8e-05	-0.00025	-0.00017	2e-05	-1e-05	-7e-05	-3e-05	4
46248	-5e-05	-8e-05	-0.00025	-0.00017	2e-05	-1e-05	-7e-05	-3e-05	4
46249	-5e-05	-8e-05	-0.00025	-0.00017	2e-05	-1e-05	-7e-05	-3e-05	4
46250	-5e-05	-8e-05	-0.00025	-0.00017	2e-05	-1e-05	-7e-05	-3e-05	4
46251	-5e-05	-8e-05	-0.00025	-0.00017	2e-05	-1e-05	-7e-05	-3e-05	4
46252	-5e-05	-8e-05	-0.00025	-0.00017	2e-05	-1e-05	-7e-05	-3e-05	4
46253	-5e-05	-8e-05	-0.00025	-0.00017	2e-05	-1e-05	-7e-05	-3e-05	4
46254	-5e-05	-8e-05	-0.00025	-0.00017	2e-05	-1e-05	-7e-05	-3e-05	4
46255	-5e-05	-8e-05	-0.00025	-0.00017	2e-05	-1e-05	-7e-05	-3e-05	4
46256	-5e-05	-8e-05	-0.00025	-0.00017	2e-05	-1e-05	-7e-05	-3e-05	4
46257	-5e-05	-8e-05	-0.00025	-0.00017	2e-05	-1e-05	-7e-05	-3e-05	4
46258	-5e-05	-8e-05	-0.00025	-0.00017	2e-05	-1e-05	-7e-05	-3e-05	4
46259	-5e-05	-8e-05	-0.00025	-0.00017	2e-05	-1e-05	-7e-05	-3e-05	4
46260	-5e-05	-8e-05	-0.00025	-0.00017	2e-05	-1e-05	-7e-05	-3e-05	4
46261	-3e-05	-2e-05	5e-05	-0.00036	-0.00073	0.00024	0	-1e-05	4
46262	-3e-05	-2e-05	5e-05	-0.00036	-0.00073	0.00024	0	-1e-05	4
46264	-3e-05	-2e-05	5e-05	-0.00036	-0.00073	0.00024	0	-1e-05	4
46265	-3e-05	-2e-05	5e-05	-0.00036	-0.00073	0.00024	0	-1e-05	4
46266	-3e-05	-2e-05	5e-05	-0.00036	-0.00073	0.00024	0	-1e-05	4
46267	1e-05	2e-05	1e-05	-0.00038	-0.00114	-0.0001	2e-05	2e-05	4
46268	1e-05	2e-05	1e-05	-0.00038	-0.00114	-0.0001	2e-05	2e-05	4
46269	1e-05	2e-05	1e-05	-0.00038	-0.00114	-0.0001	2e-05	2e-05	4
46270	1e-05	2e-05	1e-05	-0.00038	-0.00114	-0.0001	2e-05	2e-05	4
46271	1e-05	2e-05	1e-05	-0.00038	-0.00114	-0.0001	2e-05	2e-05	4
46272	1e-05	2e-05	1e-05	-0.00038	-0.00114	-0.0001	2e-05	2e-05	4
46273	1e-05	2e-05	1e-05	-0.00038	-0.00114	-0.0001	2e-05	2e-05	4
46274	1e-05	2e-05	1e-05	-0.00038	-0.00114	-0.0001	2e-05	2e-05	4
46275	1e-05	2e-05	1e-05	-0.00038	-0.00114	-0.0001	2e-05	2e-05	4
46276	1e-05	2e-05	1e-05	-0.00038	-0.00114	-0.0001	2e-05	2e-05	4
46277	1e-05	2e-05	1e-05	-0.00038	-0.00114	-0.0001	2e-05	2e-05	4
46278	1e-05	2e-05	1e-05	-0.00038	-0.00114	-0.0001	2e-05	2e-05	4
46279	1e-05	2e-05	1e-05	-0.00038	-0.00114	-0.0001	2e-05	2e-05	4
46280	1e-05	2e-05	1e-05	-0.00038	-0.00114	-0.0001	2e-05	2e-05	4
46281	1e-05	2e-05	1e-05	-0.00038	-0.00114	-0.0001	2e-05	2e-05	4
46282	1e-05	2e-05	1e-05	-0.00038	-0.00114	-0.0001	2e-05	2e-05	4
46283	0	-2e-05	4e-05	0.0001	-6e-05	-0.0004	6e-05	0	4
46284	0	-2e-05	4e-05	0.0001	-6e-05	-0.0004	6e-05	0	4
46285	-3e-05	-7e-05	-2e-05	0.00034	0.00044	-0.00061	-0.00017	-7e-05	4
46286	-3e-05	-7e-05	-2e-05	0.00034	0.00044	-0.00061	-0.00017	-7e-05	4
46289	-3e-05	-7e-05	-2e-05	0.00034	0.00044	-0.00061	-0.00017	-7e-05	4
46290	-3e-05	-7e-05	-2e-05	0.00034	0.00044	-0.00061	-0.00017	-7e-05	4
46291	-3e-05	-7e-05	-2e-05	0.00034	0.00044	-0.00061	-0.00017	-7e-05	4
46292	-3e-05	-7e-05	-2e-05	0.00034	0.00044	-0.00061	-0.00017	-7e-05	4
46293	-3e-05	-7e-05	-2e-05	0.00034	0.00044	-0.00061	-0.00017	-7e-05	4
46294	-3e-05	-7e-05	-2e-05	0.00034	0.00044	-0.00061	-0.00017	-7e-05	4
46295	-3e-05	-7e-05	-2e-05	0.00034	0.00044	-0.00061	-0.00017	-7e-05	4
46296	-3e-05	-7e-05	-2e-05	0.00034	0.00044	-0.00061	-0.00017	-7e-05	4
46297	-3e-05	-7e-05	-2e-05	0.00034	0.00044	-0.00061	-0.00017	-7e-05	4
46298	-3e-05	-7e-05	-2e-05	0.00034	0.00044	-0.00061	-0.00017	-7e-05	4
46299	-3e-05	-7e-05	-2e-05	0.00034	0.00044	-0.00061	-0.00017	-7e-05	4
46300	-3e-05	-7e-05	-2e-05	0.00034	0.00044	-0.00061	-0.00017	-7e-05	4
46301	-3e-05	-7e-05	-2e-05	0.00034	0.00044	-0.00061	-0.00017	-7e-05	4
46302	-3e-05	-7e-05	-2e-05	0.00034	0.00044	-0.00061	-0.00017	-7e-05	4
46303	-3e-05	-7e-05	-2e-05	0.00034	0.00044	-0.00061	-0.00017	-7e-05	4
46304	-3e-05	-7e-05	-2e-05	0.00034	0.00044	-0.00061	-0.00017	-7e-05	4
46305	-3e-05	-7e-05	-2e-05	0.00034	0.00044	-0.00061	-0.00017	-7e-05	4
46306	-4e-05	-3e-05	-2e-05	6e-05	-0.00023	-0.00051	-0.00017	-6e-05	4
46307	-4e-05	-3e-05	-2e-05	6e-05	-0.00023	-0.00051	-0.00017	-6e-05	4
46308	-4e-05	-3e-05	-2e-05	6e-05	-0.00023	-0.00051	-0.00017	-6e-05	4
46309	-4e-05	-3e-05	-2e-05	6e-05	-0.00023	-0.00051	-0.00017	-6e-05	4
46310	-4e-05	-3e-05	-2e-05	6e-05	-0.00023	-0.00051	-0.00017	-6e-05	4
46311	-4e-05	-3e-05	-2e-05	6e-05	-0.00023	-0.00051	-0.00017	-6e-05	4
46312	2e-05	3e-05	1e-05	0.00014	0.00111	0.00011	8e-05	7e-05	4
46313	2e-05	3e-05	1e-05	0.00014	0.00111	0.00011	8e-05	7e-05	4
46314	2e-05	3e-05	1e-05	0.00014	0.00111	0.00011	8e-05	7e-05	4
46315	2e-05	3e-05	1e-05	0.00014	0.00111	0.00011	8e-05	7e-05	4
46316	2e-05	3e-05	1e-05	0.00014	0.00111	0.00011	8e-05	7e-05	4
46317	2e-05	3e-05	1e-05	0.00014	0.00111	0.00011	8e-05	7e-05	4
46318	2e-05	3e-05	1e-05	0.00014	0.00111	0.00011	8e-05	7e-05	4
46319	2e-05	3e-05	1e-05	0.00014	0.00111	0.00011	8e-05	7e-05	4
46320	-0.00011	-9e-05	-4e-05	0.0004	0.00042	2e-05	-0.00014	-0.00011	4
46321	-0.00011	-9e-05	-4e-05	0.0004	0.00042	2e-05	-0.00014	-0.00011	4
46322	-0.00011	-9e-05	-4e-05	0.0004	0.00042	2e-05	-0.00014	-0.00011	4
46323	-0.00011	-9e-05	-4e-05	0.0004	0.00042	2e-05	-0.00014	-0.00011	4
46324	-0.00011	-9e-05	-4e-05	0.0004	0.00042	2e-05	-0.00014	-0.00011	4
46325	-0.00011	-9e-05	-4e-05	0.0004	0.00042	2e-05	-0.00014	-0.00011	4
46326	-0.00011	-9e-05	-4e-05	0.0004	0.00042	2e-05	-0.00014	-0.00011	4
46327	3e-05	4e-05	0	2e-05	-0.00022	0.00063	0.00012	3e-05	4
46328	3e-05	4e-05	0	2e-05	-0.00022	0.00063	0.00012	3e-05	4
46329	3e-05	4e-05	0	2e-05	-0.00022	0.00063	0.00012	3e-05	4
46330	3e-05	4e-05	0	2e-05	-0.00022	0.00063	0.00012	3e-05	4
46331	3e-05	4e-05	0	2e-05	-0.00022	0.00063	0.00012	3e-05	4
46332	3e-05	4e-05	0	2e-05	-0.00022	0.00063	0.00012	3e-05	4
46333	3e-05	4e-05	0	2e-05	-0.00022	0.00063	0.00012	3e-05	4
46334	3e-05	4e-05	0	2e-05	-0.00022	0.00063	0.00012	3e-05	4
46335	3e-05	4e-05	0	2e-05	-0.00022	0.00063	0.00012	3e-05	4
46336	3e-05	4e-05	0	2e-05	-0.00022	0.00063	0.00012	3e-05	4
46339	3e-05	4e-05	0	2e-05	-0.00022	0.00063	0.00012	3e-05	4
46340	3e-05	4e-05	0	2e-05	-0.00022	0.00063	0.00012	3e-05	4
46341	3e-05	4e-05	0	2e-05	-0.00022	0.00063	0.00012	3e-05	4
46342	3e-05	4e-05	0	2e-05	-0.00022	0.00063	0.00012	3e-05	4
46343	3e-05	1e-05	3e-05	-0.00019	0.00011	1e-05	0.00011	1e-05	4
46344	3e-05	1e-05	3e-05	-0.00019	0.00011	1e-05	0.00011	1e-05	4
46345	6e-05	1e-05	-0.00012	-0.00068	0	4e-05	0.00013	7e-05	4
46346	6e-05	1e-05	-0.00012	-0.00068	0	4e-05	0.00013	7e-05	4
46347	6e-05	1e-05	-0.00012	-0.00068	0	4e-05	0.00013	7e-05	4
46348	6e-05	1e-05	-0.00012	-0.00068	0	4e-05	0.00013	7e-05	4
46349	6e-05	1e-05	-0.00012	-0.00068	0	4e-05	0.00013	7e-05	4
46350	6e-05	1e-05	-0.00012	-0.00068	0	4e-05	0.00013	7e-05	4
46351	6e-05	1e-05	-0.00012	-0.00068	0	4e-05	0.00013	7e-05	4
46353	6e-05	1e-05	-0.00012	-0.00068	0	4e-05	0.00013	7e-05	4
46354	6e-05	1e-05	-0.00012	-0.00068	0	4e-05	0.00013	7e-05	4
46355	6e-05	1e-05	-0.00012	-0.00068	0	4e-05	0.00013	7e-05	4
46356	6e-05	1e-05	-0.00012	-0.00068	0	4e-05	0.00013	7e-05	4
46357	6e-05	1e-05	-0.00012	-0.00068	0	4e-05	0.00013	7e-05	4
46358	6e-05	1e-05	-0.00012	-0.00068	0	4e-05	0.00013	7e-05	4
46359	6e-05	1e-05	-0.00012	-0.00068	0	4e-05	0.00013	7e-05	4
46360	6e-05	1e-05	-0.00012	-0.00068	0	4e-05	0.00013	7e-05	4
46361	6e-05	1e-05	-0.00012	-0.00068	0	4e-05	0.00013	7e-05	4
46362	6e-05	1e-05	-0.00012	-0.00068	0	4e-05	0.00013	7e-05	4
46363	6e-05	1e-05	-0.00012	-0.00068	0	4e-05	0.00013	7e-05	4
46364	6e-05	1e-05	-0.00012	-0.00068	0	4e-05	0.00013	7e-05	4
46365	6e-05	1e-05	-0.00012	-0.00068	0	4e-05	0.00013	7e-05	4
46366	1e-05	3e-05	7e-05	0.00019	-8e-05	0.00016	1e-05	3e-05	4
46367	-3e-05	3e-05	2e-05	3e-05	-0.00073	0.00013	-5e-05	-3e-05	4
46368	-3e-05	3e-05	2e-05	3e-05	-0.00073	0.00013	-5e-05	-3e-05	4
46369	-3e-05	3e-05	2e-05	3e-05	-0.00073	0.00013	-5e-05	-3e-05	4
46370	-3e-05	3e-05	2e-05	3e-05	-0.00073	0.00013	-5e-05	-3e-05	4
46371	-3e-05	3e-05	2e-05	3e-05	-0.00073	0.00013	-5e-05	-3e-05	4
46372	-3e-05	3e-05	2e-05	3e-05	-0.00073	0.00013	-5e-05	-3e-05	4
46373	-3e-05	3e-05	2e-05	3e-05	-0.00073	0.00013	-5e-05	-3e-05	4
46374	-3e-05	3e-05	2e-05	3e-05	-0.00073	0.00013	-5e-05	-3e-05	4
46375	-3e-05	3e-05	2e-05	3e-05	-0.00073	0.00013	-5e-05	-3e-05	4
46376	-3e-05	3e-05	2e-05	3e-05	-0.00073	0.00013	-5e-05	-3e-05	4
46377	-3e-05	3e-05	2e-05	3e-05	-0.00073	0.00013	-5e-05	-3e-05	4
46378	-3e-05	3e-05	2e-05	3e-05	-0.00073	0.00013	-5e-05	-3e-05	4
46379	-3e-05	3e-05	2e-05	3e-05	-0.00073	0.00013	-5e-05	-3e-05	4
46380	0	-3e-05	-8e-05	-9e-05	0.00035	-0.00019	3e-05	2e-05	4
46381	0	-3e-05	-8e-05	-9e-05	0.00035	-0.00019	3e-05	2e-05	4
46382	0	-3e-05	-8e-05	-9e-05	0.00035	-0.00019	3e-05	2e-05	4
46383	0	-3e-05	-8e-05	-9e-05	0.00035	-0.00019	3e-05	2e-05	4
46384	0	-3e-05	-8e-05	-9e-05	0.00035	-0.00019	3e-05	2e-05	4
46385	0	-3e-05	-8e-05	-9e-05	0.00035	-0.00019	3e-05	2e-05	4
46386	0	-3e-05	-8e-05	-9e-05	0.00035	-0.00019	3e-05	2e-05	4
46388	-6e-05	-4e-05	-4e-05	0.00011	-0.00029	-0.0003	-0.0001	-5e-05	4
46389	-6e-05	-4e-05	-4e-05	0.00011	-0.00029	-0.0003	-0.0001	-5e-05	4
46390	-6e-05	-4e-05	-4e-05	0.00011	-0.00029	-0.0003	-0.0001	-5e-05	4
46391	-6e-05	-4e-05	-4e-05	0.00011	-0.00029	-0.0003	-0.0001	-5e-05	4
46392	-6e-05	-4e-05	-4e-05	0.00011	-0.00029	-0.0003	-0.0001	-5e-05	4
46393	-6e-05	-4e-05	-4e-05	0.00011	-0.00029	-0.0003	-0.0001	-5e-05	4
46394	-6e-05	-4e-05	-4e-05	0.00011	-0.00029	-0.0003	-0.0001	-5e-05	4
46395	-6e-05	-4e-05	-4e-05	0.00011	-0.00029	-0.0003	-0.0001	-5e-05	4
46396	-6e-05	-4e-05	-4e-05	0.00011	-0.00029	-0.0003	-0.0001	-5e-05	4
46397	-6e-05	-4e-05	-4e-05	0.00011	-0.00029	-0.0003	-0.0001	-5e-05	4
46398	-6e-05	-4e-05	-4e-05	0.00011	-0.00029	-0.0003	-0.0001	-5e-05	4
46399	-6e-05	-4e-05	-4e-05	0.00011	-0.00029	-0.0003	-0.0001	-5e-05	4
46400	-6e-05	-4e-05	-4e-05	0.00011	-0.00029	-0.0003	-0.0001	-5e-05	4
46401	-6e-05	-4e-05	-4e-05	0.00011	-0.00029	-0.0003	-0.0001	-5e-05	4
46402	-6e-05	-4e-05	-4e-05	0.00011	-0.00029	-0.0003	-0.0001	-5e-05	4
46403	-3e-05	-5e-05	1e-05	-0.00027	-0.00088	0	-7e-05	-3e-05	4
46404	-3e-05	-5e-05	1e-05	-0.00027	-0.00088	0	-7e-05	-3e-05	4
46405	0	4e-05	7e-05	3e-05	-0.00061	0.00029	9e-05	4e-05	4
46406	0	4e-05	7e-05	3e-05	-0.00061	0.00029	9e-05	4e-05	4
46407	0	4e-05	7e-05	3e-05	-0.00061	0.00029	9e-05	4e-05	4
46408	0	4e-05	7e-05	3e-05	-0.00061	0.00029	9e-05	4e-05	4
46409	0	4e-05	7e-05	3e-05	-0.00061	0.00029	9e-05	4e-05	4
46410	0	4e-05	7e-05	3e-05	-0.00061	0.00029	9e-05	4e-05	4
46411	0	4e-05	7e-05	3e-05	-0.00061	0.00029	9e-05	4e-05	4
46412	0	4e-05	7e-05	3e-05	-0.00061	0.00029	9e-05	4e-05	4
46413	0	4e-05	7e-05	3e-05	-0.00061	0.00029	9e-05	4e-05	4
46414	0	4e-05	7e-05	3e-05	-0.00061	0.00029	9e-05	4e-05	4
46415	0	4e-05	7e-05	3e-05	-0.00061	0.00029	9e-05	4e-05	4
46416	0	4e-05	7e-05	3e-05	-0.00061	0.00029	9e-05	4e-05	4
46417	0	4e-05	7e-05	3e-05	-0.00061	0.00029	9e-05	4e-05	4
46418	0	4e-05	7e-05	3e-05	-0.00061	0.00029	9e-05	4e-05	4
46419	0	4e-05	7e-05	3e-05	-0.00061	0.00029	9e-05	4e-05	4
46420	0	4e-05	7e-05	3e-05	-0.00061	0.00029	9e-05	4e-05	4
46421	0	4e-05	7e-05	3e-05	-0.00061	0.00029	9e-05	4e-05	4
46422	0	4e-05	7e-05	3e-05	-0.00061	0.00029	9e-05	4e-05	4
46423	0	4e-05	7e-05	3e-05	-0.00061	0.00029	9e-05	4e-05	4
46424	0	4e-05	7e-05	3e-05	-0.00061	0.00029	9e-05	4e-05	4
46425	0	4e-05	7e-05	3e-05	-0.00061	0.00029	9e-05	4e-05	4
46426	0	4e-05	7e-05	3e-05	-0.00061	0.00029	9e-05	4e-05	4
46427	0	4e-05	7e-05	3e-05	-0.00061	0.00029	9e-05	4e-05	4
46428	0	4e-05	7e-05	3e-05	-0.00061	0.00029	9e-05	4e-05	4
46429	0	4e-05	7e-05	3e-05	-0.00061	0.00029	9e-05	4e-05	4
46430	0	4e-05	7e-05	3e-05	-0.00061	0.00029	9e-05	4e-05	4
46431	0	4e-05	7e-05	3e-05	-0.00061	0.00029	9e-05	4e-05	4
46432	0	4e-05	7e-05	3e-05	-0.00061	0.00029	9e-05	4e-05	4
46433	0	0	5e-05	0.00016	0.00014	-0.00014	-9e-05	-4e-05	4
46434	0	0	5e-05	0.00016	0.00014	-0.00014	-9e-05	-4e-05	4
46435	6e-05	4e-05	0.0001	-2e-05	-0.00046	0.00035	0.00021	9e-05	4
46436	6e-05	4e-05	0.0001	-2e-05	-0.00046	0.00035	0.00021	9e-05	4
46438	6e-05	4e-05	0.0001	-2e-05	-0.00046	0.00035	0.00021	9e-05	4
46439	6e-05	4e-05	0.0001	-2e-05	-0.00046	0.00035	0.00021	9e-05	4
46440	6e-05	4e-05	0.0001	-2e-05	-0.00046	0.00035	0.00021	9e-05	4
46441	6e-05	4e-05	0.0001	-2e-05	-0.00046	0.00035	0.00021	9e-05	4
46442	6e-05	4e-05	0.0001	-2e-05	-0.00046	0.00035	0.00021	9e-05	4
46443	6e-05	4e-05	0.0001	-2e-05	-0.00046	0.00035	0.00021	9e-05	4
46444	6e-05	4e-05	0.0001	-2e-05	-0.00046	0.00035	0.00021	9e-05	4
46445	6e-05	4e-05	0.0001	-2e-05	-0.00046	0.00035	0.00021	9e-05	4
46446	6e-05	4e-05	0.0001	-2e-05	-0.00046	0.00035	0.00021	9e-05	4
46447	6e-05	4e-05	0.0001	-2e-05	-0.00046	0.00035	0.00021	9e-05	4
46448	-1e-05	-1e-05	-5e-05	-0.00051	-0.00055	0.00035	9e-05	4e-05	4
46449	-1e-05	-1e-05	-5e-05	-0.00051	-0.00055	0.00035	9e-05	4e-05	4
46450	-3e-05	0	5e-05	1e-05	-0.00036	-0.00022	-0.0001	-6e-05	4
46451	-3e-05	0	5e-05	1e-05	-0.00036	-0.00022	-0.0001	-6e-05	4
46452	-3e-05	0	5e-05	1e-05	-0.00036	-0.00022	-0.0001	-6e-05	4
46453	-3e-05	0	5e-05	1e-05	-0.00036	-0.00022	-0.0001	-6e-05	4
46454	-3e-05	0	5e-05	1e-05	-0.00036	-0.00022	-0.0001	-6e-05	4
46455	-3e-05	0	5e-05	1e-05	-0.00036	-0.00022	-0.0001	-6e-05	4
46456	-3e-05	0	5e-05	1e-05	-0.00036	-0.00022	-0.0001	-6e-05	4
46457	-3e-05	0	5e-05	1e-05	-0.00036	-0.00022	-0.0001	-6e-05	4
46458	-3e-05	0	5e-05	1e-05	-0.00036	-0.00022	-0.0001	-6e-05	4
46459	-3e-05	0	5e-05	1e-05	-0.00036	-0.00022	-0.0001	-6e-05	4
46460	-3e-05	0	5e-05	1e-05	-0.00036	-0.00022	-0.0001	-6e-05	4
46461	-3e-05	0	5e-05	1e-05	-0.00036	-0.00022	-0.0001	-6e-05	4
46462	-3e-05	0	5e-05	1e-05	-0.00036	-0.00022	-0.0001	-6e-05	4
46463	-1e-05	-4e-05	-0.00012	-0.00013	-0.00029	3e-05	5e-05	3e-05	4
46464	-1e-05	-4e-05	-0.00012	-0.00013	-0.00029	3e-05	5e-05	3e-05	4
46465	-8e-05	-0.0001	-0.00015	-0.00053	-0.00016	-0.00062	-0.00024	-9e-05	4
46466	-8e-05	-0.0001	-0.00015	-0.00053	-0.00016	-0.00062	-0.00024	-9e-05	4
46467	-8e-05	-0.0001	-0.00015	-0.00053	-0.00016	-0.00062	-0.00024	-9e-05	4
46468	-8e-05	-0.0001	-0.00015	-0.00053	-0.00016	-0.00062	-0.00024	-9e-05	4
46469	-8e-05	-0.0001	-0.00015	-0.00053	-0.00016	-0.00062	-0.00024	-9e-05	4
46470	-8e-05	-0.0001	-0.00015	-0.00053	-0.00016	-0.00062	-0.00024	-9e-05	4
46471	-8e-05	-0.0001	-0.00015	-0.00053	-0.00016	-0.00062	-0.00024	-9e-05	4
46472	-8e-05	-0.0001	-0.00015	-0.00053	-0.00016	-0.00062	-0.00024	-9e-05	4
46473	-8e-05	-0.0001	-0.00015	-0.00053	-0.00016	-0.00062	-0.00024	-9e-05	4
46474	-8e-05	-0.0001	-0.00015	-0.00053	-0.00016	-0.00062	-0.00024	-9e-05	4
46475	-8e-05	-0.0001	-0.00015	-0.00053	-0.00016	-0.00062	-0.00024	-9e-05	4
46476	-8e-05	-0.0001	-0.00015	-0.00053	-0.00016	-0.00062	-0.00024	-9e-05	4
46477	-8e-05	-0.0001	-0.00015	-0.00053	-0.00016	-0.00062	-0.00024	-9e-05	4
46478	-8e-05	-0.0001	-0.00015	-0.00053	-0.00016	-0.00062	-0.00024	-9e-05	4
46479	-8e-05	-0.0001	-0.00015	-0.00053	-0.00016	-0.00062	-0.00024	-9e-05	4
46480	-8e-05	-0.0001	-0.00015	-0.00053	-0.00016	-0.00062	-0.00024	-9e-05	4
46481	-8e-05	-0.0001	-0.00015	-0.00053	-0.00016	-0.00062	-0.00024	-9e-05	4
46482	-8e-05	-0.0001	-0.00015	-0.00053	-0.00016	-0.00062	-0.00024	-9e-05	4
46483	-8e-05	-0.0001	-0.00015	-0.00053	-0.00016	-0.00062	-0.00024	-9e-05	4
46484	-8e-05	-0.0001	-0.00015	-0.00053	-0.00016	-0.00062	-0.00024	-9e-05	4
46485	-8e-05	-0.0001	-0.00015	-0.00053	-0.00016	-0.00062	-0.00024	-9e-05	4
46486	-8e-05	-0.0001	-0.00015	-0.00053	-0.00016	-0.00062	-0.00024	-9e-05	4
46488	-8e-05	-0.0001	-0.00015	-0.00053	-0.00016	-0.00062	-0.00024	-9e-05	4
46489	-8e-05	-0.0001	-0.00015	-0.00053	-0.00016	-0.00062	-0.00024	-9e-05	4
46490	-8e-05	-0.0001	-0.00015	-0.00053	-0.00016	-0.00062	-0.00024	-9e-05	4
46491	-8e-05	-0.0001	-0.00015	-0.00053	-0.00016	-0.00062	-0.00024	-9e-05	4
46492	-8e-05	-0.0001	-0.00015	-0.00053	-0.00016	-0.00062	-0.00024	-9e-05	4
46493	-4e-05	-2e-05	-3e-05	4e-05	0.00056	-0.00064	-0.00015	-7e-05	4
46494	-4e-05	-2e-05	-3e-05	4e-05	0.00056	-0.00064	-0.00015	-7e-05	4
46495	-0.0001	-0.00018	-0.0002	-4e-05	0.00044	-0.00045	-0.00024	-0.00013	4
46496	-0.0001	-0.00018	-0.0002	-4e-05	0.00044	-0.00045	-0.00024	-0.00013	4
46497	-0.0001	-0.00018	-0.0002	-4e-05	0.00044	-0.00045	-0.00024	-0.00013	4
46498	-0.0001	-0.00018	-0.0002	-4e-05	0.00044	-0.00045	-0.00024	-0.00013	4
46499	-0.0001	-0.00018	-0.0002	-4e-05	0.00044	-0.00045	-0.00024	-0.00013	4
46500	-0.0001	-0.00018	-0.0002	-4e-05	0.00044	-0.00045	-0.00024	-0.00013	4
46501	-0.0001	-0.00018	-0.0002	-4e-05	0.00044	-0.00045	-0.00024	-0.00013	4
46502	-0.0001	-0.00018	-0.0002	-4e-05	0.00044	-0.00045	-0.00024	-0.00013	4
46503	-0.0001	-0.00018	-0.0002	-4e-05	0.00044	-0.00045	-0.00024	-0.00013	4
46504	-0.0001	-0.00018	-0.0002	-4e-05	0.00044	-0.00045	-0.00024	-0.00013	4
46505	-0.0001	-0.00018	-0.0002	-4e-05	0.00044	-0.00045	-0.00024	-0.00013	4
46506	-0.0001	-0.00018	-0.0002	-4e-05	0.00044	-0.00045	-0.00024	-0.00013	4
46507	-0.0001	-0.00018	-0.0002	-4e-05	0.00044	-0.00045	-0.00024	-0.00013	4
46508	3e-05	2e-05	0.00016	0.00075	0.00063	0.0006	0	-4e-05	4
46509	3e-05	2e-05	0.00016	0.00075	0.00063	0.0006	0	-4e-05	4
46510	-5e-05	-0.0001	-0.00022	-0.00018	0.00053	-4e-05	-0.00012	-9e-05	4
46511	-5e-05	-0.0001	-0.00022	-0.00018	0.00053	-4e-05	-0.00012	-9e-05	4
46512	-5e-05	-0.0001	-0.00022	-0.00018	0.00053	-4e-05	-0.00012	-9e-05	4
46513	-5e-05	-0.0001	-0.00022	-0.00018	0.00053	-4e-05	-0.00012	-9e-05	4
46514	-5e-05	-0.0001	-0.00022	-0.00018	0.00053	-4e-05	-0.00012	-9e-05	4
46515	-5e-05	-0.0001	-0.00022	-0.00018	0.00053	-4e-05	-0.00012	-9e-05	4
46516	-5e-05	-0.0001	-0.00022	-0.00018	0.00053	-4e-05	-0.00012	-9e-05	4
46517	-5e-05	-0.0001	-0.00022	-0.00018	0.00053	-4e-05	-0.00012	-9e-05	4
46518	-5e-05	-0.0001	-0.00022	-0.00018	0.00053	-4e-05	-0.00012	-9e-05	4
46519	-5e-05	-0.0001	-0.00022	-0.00018	0.00053	-4e-05	-0.00012	-9e-05	4
46520	-5e-05	-0.0001	-0.00022	-0.00018	0.00053	-4e-05	-0.00012	-9e-05	4
46521	-5e-05	-0.0001	-0.00022	-0.00018	0.00053	-4e-05	-0.00012	-9e-05	4
46522	-5e-05	-0.0001	-0.00022	-0.00018	0.00053	-4e-05	-0.00012	-9e-05	4
46523	-5e-05	-0.0001	-0.00022	-0.00018	0.00053	-4e-05	-0.00012	-9e-05	4
46524	2e-05	2e-05	-1e-05	1e-05	0.00022	0.00033	8e-05	3e-05	4
46525	2e-05	2e-05	-1e-05	1e-05	0.00022	0.00033	8e-05	3e-05	4
46526	2e-05	2e-05	-1e-05	1e-05	0.00022	0.00033	8e-05	3e-05	4
46527	2e-05	2e-05	-1e-05	1e-05	0.00022	0.00033	8e-05	3e-05	4
46528	2e-05	2e-05	-1e-05	1e-05	0.00022	0.00033	8e-05	3e-05	4
46529	2e-05	2e-05	-1e-05	1e-05	0.00022	0.00033	8e-05	3e-05	4
46530	2e-05	2e-05	-1e-05	1e-05	0.00022	0.00033	8e-05	3e-05	4
46531	2e-05	2e-05	-1e-05	1e-05	0.00022	0.00033	8e-05	3e-05	4
46532	2e-05	2e-05	-1e-05	1e-05	0.00022	0.00033	8e-05	3e-05	4
46533	2e-05	2e-05	-1e-05	1e-05	0.00022	0.00033	8e-05	3e-05	4
46534	2e-05	2e-05	-1e-05	1e-05	0.00022	0.00033	8e-05	3e-05	4
46535	2e-05	2e-05	-1e-05	1e-05	0.00022	0.00033	8e-05	3e-05	4
46536	2e-05	2e-05	-1e-05	1e-05	0.00022	0.00033	8e-05	3e-05	4
46538	8e-05	7e-05	6e-05	-7e-05	-0.00034	0.0006	0.00019	8e-05	4
46539	8e-05	7e-05	6e-05	-7e-05	-0.00034	0.0006	0.00019	8e-05	4
46540	8e-05	7e-05	6e-05	-7e-05	-0.00034	0.0006	0.00019	8e-05	4
46541	8e-05	7e-05	6e-05	-7e-05	-0.00034	0.0006	0.00019	8e-05	4
46542	8e-05	7e-05	6e-05	-7e-05	-0.00034	0.0006	0.00019	8e-05	4
46543	8e-05	7e-05	6e-05	-7e-05	-0.00034	0.0006	0.00019	8e-05	4
46544	8e-05	7e-05	6e-05	-7e-05	-0.00034	0.0006	0.00019	8e-05	4
46545	8e-05	7e-05	6e-05	-7e-05	-0.00034	0.0006	0.00019	8e-05	4
46546	8e-05	7e-05	6e-05	-7e-05	-0.00034	0.0006	0.00019	8e-05	4
46547	-2e-05	1e-05	-2e-05	-0.00029	-0.00082	0.00046	7e-05	1e-05	4
46548	-2e-05	1e-05	-2e-05	-0.00029	-0.00082	0.00046	7e-05	1e-05	4
46549	-2e-05	1e-05	-2e-05	-0.00029	-0.00082	0.00046	7e-05	1e-05	4
46550	-2e-05	1e-05	-2e-05	-0.00029	-0.00082	0.00046	7e-05	1e-05	4
46551	-2e-05	1e-05	-2e-05	-0.00029	-0.00082	0.00046	7e-05	1e-05	4
46552	1e-05	2e-05	4e-05	0.00031	0.00106	6e-05	-1e-05	0	4
46553	1e-05	2e-05	4e-05	0.00031	0.00106	6e-05	-1e-05	0	4
46554	1e-05	2e-05	4e-05	0.00031	0.00106	6e-05	-1e-05	0	4
46555	1e-05	2e-05	4e-05	0.00031	0.00106	6e-05	-1e-05	0	4
46556	1e-05	2e-05	4e-05	0.00031	0.00106	6e-05	-1e-05	0	4
46557	1e-05	2e-05	4e-05	0.00031	0.00106	6e-05	-1e-05	0	4
46558	1e-05	2e-05	4e-05	0.00031	0.00106	6e-05	-1e-05	0	4
46559	-4e-05	-5e-05	-3e-05	8e-05	0.00029	0.00031	1e-05	-3e-05	4
46560	-4e-05	-5e-05	-3e-05	8e-05	0.00029	0.00031	1e-05	-3e-05	4
46561	-4e-05	-5e-05	-3e-05	8e-05	0.00029	0.00031	1e-05	-3e-05	4
46562	-4e-05	-5e-05	-3e-05	8e-05	0.00029	0.00031	1e-05	-3e-05	4
46563	-4e-05	-5e-05	-3e-05	8e-05	0.00029	0.00031	1e-05	-3e-05	4
46564	-4e-05	-5e-05	-3e-05	8e-05	0.00029	0.00031	1e-05	-3e-05	4
46565	-4e-05	-5e-05	-3e-05	8e-05	0.00029	0.00031	1e-05	-3e-05	4
46566	-4e-05	-5e-05	-3e-05	8e-05	0.00029	0.00031	1e-05	-3e-05	4
46567	-4e-05	-5e-05	-3e-05	8e-05	0.00029	0.00031	1e-05	-3e-05	4
46568	-2e-05	2e-05	7e-05	9e-05	-0.00049	-0.0001	0	-1e-05	4
46569	-2e-05	2e-05	7e-05	9e-05	-0.00049	-0.0001	0	-1e-05	4
46570	-2e-05	2e-05	7e-05	9e-05	-0.00049	-0.0001	0	-1e-05	4
46571	-2e-05	2e-05	7e-05	9e-05	-0.00049	-0.0001	0	-1e-05	4
46572	-2e-05	2e-05	7e-05	9e-05	-0.00049	-0.0001	0	-1e-05	4
46573	-2e-05	2e-05	7e-05	9e-05	-0.00049	-0.0001	0	-1e-05	4
46574	-2e-05	2e-05	7e-05	9e-05	-0.00049	-0.0001	0	-1e-05	4
46575	-2e-05	2e-05	7e-05	9e-05	-0.00049	-0.0001	0	-1e-05	4
46576	-2e-05	2e-05	7e-05	9e-05	-0.00049	-0.0001	0	-1e-05	4
46577	-2e-05	2e-05	7e-05	9e-05	-0.00049	-0.0001	0	-1e-05	4
46578	-2e-05	2e-05	7e-05	9e-05	-0.00049	-0.0001	0	-1e-05	4
46579	-2e-05	2e-05	7e-05	9e-05	-0.00049	-0.0001	0	-1e-05	4
46580	-2e-05	2e-05	7e-05	9e-05	-0.00049	-0.0001	0	-1e-05	4
46581	-2e-05	2e-05	7e-05	9e-05	-0.00049	-0.0001	0	-1e-05	4
46582	-2e-05	2e-05	7e-05	9e-05	-0.00049	-0.0001	0	-1e-05	4
46583	-2e-05	2e-05	7e-05	9e-05	-0.00049	-0.0001	0	-1e-05	4
46584	-5e-05	-0.0001	-0.00025	-0.00018	0.00021	-0.00011	-0.00015	-8e-05	4
46585	-1e-05	1e-05	-2e-05	-3e-05	-0.00034	-0.00069	1e-05	0	4
46586	2e-05	1e-05	1e-05	-7e-05	-0.00032	0.00011	6e-05	4e-05	4
46588	2e-05	1e-05	1e-05	-7e-05	-0.00032	0.00011	6e-05	4e-05	4
46589	2e-05	1e-05	1e-05	-7e-05	-0.00032	0.00011	6e-05	4e-05	4
46591	2e-05	1e-05	1e-05	-7e-05	-0.00032	0.00011	6e-05	4e-05	4
46592	2e-05	1e-05	1e-05	-7e-05	-0.00032	0.00011	6e-05	4e-05	4
46593	2e-05	1e-05	1e-05	-7e-05	-0.00032	0.00011	6e-05	4e-05	4
46594	2e-05	1e-05	1e-05	-7e-05	-0.00032	0.00011	6e-05	4e-05	4
46595	2e-05	1e-05	1e-05	-7e-05	-0.00032	0.00011	6e-05	4e-05	4
46596	2e-05	1e-05	1e-05	-7e-05	-0.00032	0.00011	6e-05	4e-05	4
46597	2e-05	1e-05	1e-05	-7e-05	-0.00032	0.00011	6e-05	4e-05	4
46598	2e-05	1e-05	1e-05	-7e-05	-0.00032	0.00011	6e-05	4e-05	4
46599	2e-05	1e-05	1e-05	-7e-05	-0.00032	0.00011	6e-05	4e-05	4
46600	2e-05	1e-05	1e-05	-7e-05	-0.00032	0.00011	6e-05	4e-05	4
46601	2e-05	1e-05	1e-05	-7e-05	-0.00032	0.00011	6e-05	4e-05	4
46602	2e-05	1e-05	1e-05	-7e-05	-0.00032	0.00011	6e-05	4e-05	4
46603	2e-05	1e-05	1e-05	-7e-05	-0.00032	0.00011	6e-05	4e-05	4
46604	2e-05	1e-05	1e-05	-7e-05	-0.00032	0.00011	6e-05	4e-05	4
46605	2e-05	1e-05	1e-05	-7e-05	-0.00032	0.00011	6e-05	4e-05	4
46606	-1e-05	3e-05	3e-05	-0.00031	-0.00072	-0.00091	-0.00013	-3e-05	4
