4462	-5e-05	-7e-05	-0.00012	3e-05	0.00011	0.00018	-0.0001	-3e-05	2
4463	-5e-05	-7e-05	-0.00012	3e-05	0.00011	0.00018	-0.0001	-3e-05	2
4464	-5e-05	-7e-05	-0.00012	3e-05	0.00011	0.00018	-0.0001	-3e-05	2
4465	-2e-05	-5e-05	-1e-05	0.00012	0.00011	0.00081	0.00019	2e-05	2
4466	-2e-05	-5e-05	-1e-05	0.00012	0.00011	0.00081	0.00019	2e-05	2
4467	-2e-05	-5e-05	-1e-05	0.00012	0.00011	0.00081	0.00019	2e-05	2
4468	-2e-05	-5e-05	-1e-05	0.00012	0.00011	0.00081	0.00019	2e-05	2
4469	-2e-05	-5e-05	-1e-05	0.00012	0.00011	0.00081	0.00019	2e-05	2
4470	-2e-05	-5e-05	-1e-05	0.00012	0.00011	0.00081	0.00019	2e-05	2
4471	-2e-05	-5e-05	-1e-05	0.00012	0.00011	0.00081	0.00019	2e-05	2
4472	-2e-05	-5e-05	-1e-05	0.00012	0.00011	0.00081	0.00019	2e-05	2
4473	-2e-05	-5e-05	-1e-05	0.00012	0.00011	0.00081	0.00019	2e-05	2
4474	-2e-05	-5e-05	-1e-05	0.00012	0.00011	0.00081	0.00019	2e-05	2
4475	-2e-05	-5e-05	-1e-05	0.00012	0.00011	0.00081	0.00019	2e-05	2
4476	-2e-05	-5e-05	-1e-05	0.00012	0.00011	0.00081	0.00019	2e-05	2
4477	-2e-05	-5e-05	-1e-05	0.00012	0.00011	0.00081	0.00019	2e-05	2
4478	-2e-05	-5e-05	-1e-05	0.00012	0.00011	0.00081	0.00019	2e-05	2
4479	-2e-05	-5e-05	-1e-05	0.00012	0.00011	0.00081	0.00019	2e-05	2
4480	-2e-05	-5e-05	-1e-05	0.00012	0.00011	0.00081	0.00019	2e-05	2
4481	-2e-05	-5e-05	-1e-05	0.00012	0.00011	0.00081	0.00019	2e-05	2
4482	-2e-05	-5e-05	-1e-05	0.00012	0.00011	0.00081	0.00019	2e-05	2
4483	-2e-05	-5e-05	-1e-05	0.00012	0.00011	0.00081	0.00019	2e-05	2
4484	-2e-05	-5e-05	-1e-05	0.00012	0.00011	0.00081	0.00019	2e-05	2
4485	-2e-05	-5e-05	-1e-05	0.00012	0.00011	0.00081	0.00019	2e-05	2
4486	3e-05	6e-05	8e-05	-0.00013	-0.00034	-0.00057	-0.00013	-4e-05	2
4489	-0.00011	-0.00016	-0.0003	0.00049	0.0001	-0.00028	-0.00023	-9e-05	2
4490	-0.00011	-0.00016	-0.0003	0.00049	0.0001	-0.00028	-0.00023	-9e-05	2
4491	-0.00011	-0.00016	-0.0003	0.00049	0.0001	-0.00028	-0.00023	-9e-05	2
4492	-0.00011	-0.00016	-0.0003	0.00049	0.0001	-0.00028	-0.00023	-9e-05	2
4493	-0.00011	-0.00016	-0.0003	0.00049	0.0001	-0.00028	-0.00023	-9e-05	2
4494	-0.00011	-0.00016	-0.0003	0.00049	0.0001	-0.00028	-0.00023	-9e-05	2
4495	-0.00011	-0.00016	-0.0003	0.00049	0.0001	-0.00028	-0.00023	-9e-05	2
4496	-0.00011	-0.00016	-0.0003	0.00049	0.0001	-0.00028	-0.00023	-9e-05	2
4497	-0.00011	-0.00016	-0.0003	0.00049	0.0001	-0.00028	-0.00023	-9e-05	2
4498	-0.00011	-0.00016	-0.0003	0.00049	0.0001	-0.00028	-0.00023	-9e-05	2
4499	-0.00011	-0.00016	-0.0003	0.00049	0.0001	-0.00028	-0.00023	-9e-05	2
4500	-0.00011	-0.00016	-0.0003	0.00049	0.0001	-0.00028	-0.00023	-9e-05	2
4501	-8e-05	-0.0001	-0.00034	-0.00024	0.00021	0.0007	0.00041	5e-05	2
4502	-8e-05	-0.0001	-0.00034	-0.00024	0.00021	0.0007	0.00041	5e-05	2
4503	-8e-05	-0.0001	-0.00034	-0.00024	0.00021	0.0007	0.00041	5e-05	2
4504	-8e-05	-0.0001	-0.00034	-0.00024	0.00021	0.0007	0.00041	5e-05	2
4505	-8e-05	-0.0001	-0.00034	-0.00024	0.00021	0.0007	0.00041	5e-05	2
4506	-8e-05	-0.0001	-0.00034	-0.00024	0.00021	0.0007	0.00041	5e-05	2
4507	-8e-05	-0.0001	-0.00034	-0.00024	0.00021	0.0007	0.00041	5e-05	2
4508	-8e-05	-0.0001	-0.00034	-0.00024	0.00021	0.0007	0.00041	5e-05	2
4509	-8e-05	-0.0001	-0.00034	-0.00024	0.00021	0.0007	0.00041	5e-05	2
4510	-8e-05	-0.0001	-0.00034	-0.00024	0.00021	0.0007	0.00041	5e-05	2
4511	-8e-05	-0.0001	-0.00034	-0.00024	0.00021	0.0007	0.00041	5e-05	2
4512	-8e-05	-0.0001	-0.00034	-0.00024	0.00021	0.0007	0.00041	5e-05	2
4513	-8e-05	-0.0001	-0.00034	-0.00024	0.00021	0.0007	0.00041	5e-05	2
4514	-8e-05	-0.0001	-0.00034	-0.00024	0.00021	0.0007	0.00041	5e-05	2
4515	-8e-05	-0.0001	-0.00034	-0.00024	0.00021	0.0007	0.00041	5e-05	2
4516	-8e-05	-0.0001	-0.00034	-0.00024	0.00021	0.0007	0.00041	5e-05	2
4517	-8e-05	-0.0001	-0.00034	-0.00024	0.00021	0.0007	0.00041	5e-05	2
4518	-8e-05	-0.0001	-0.00034	-0.00024	0.00021	0.0007	0.00041	5e-05	2
4519	-8e-05	-0.0001	-0.00034	-0.00024	0.00021	0.0007	0.00041	5e-05	2
4520	-8e-05	-0.0001	-0.00034	-0.00024	0.00021	0.0007	0.00041	5e-05	2
4521	-8e-05	-0.0001	-0.00034	-0.00024	0.00021	0.0007	0.00041	5e-05	2
4522	-8e-05	-0.0001	-0.00034	-0.00024	0.00021	0.0007	0.00041	5e-05	2
4523	-8e-05	-0.0001	-0.00034	-0.00024	0.00021	0.0007	0.00041	5e-05	2
4524	-4e-05	-2e-05	0	7e-05	0.00011	9e-05	-0.00012	-0.00011	2
4525	0	0	9e-05	0.00019	-0.00015	-0.00011	-0.00019	5e-05	2
4526	0	0	9e-05	0.00019	-0.00015	-0.00011	-0.00019	5e-05	2
4527	0	0	9e-05	0.00019	-0.00015	-0.00011	-0.00019	5e-05	2
4528	0	0	9e-05	0.00019	-0.00015	-0.00011	-0.00019	5e-05	2
4529	0	0	9e-05	0.00019	-0.00015	-0.00011	-0.00019	5e-05	2
4530	0	0	9e-05	0.00019	-0.00015	-0.00011	-0.00019	5e-05	2
4531	0	0	9e-05	0.00019	-0.00015	-0.00011	-0.00019	5e-05	2
4532	0	0	9e-05	0.00019	-0.00015	-0.00011	-0.00019	5e-05	2
4533	0	0	9e-05	0.00019	-0.00015	-0.00011	-0.00019	5e-05	2
4534	0	0	9e-05	0.00019	-0.00015	-0.00011	-0.00019	5e-05	2
4535	0	0	9e-05	0.00019	-0.00015	-0.00011	-0.00019	5e-05	2
4536	0	0	9e-05	0.00019	-0.00015	-0.00011	-0.00019	5e-05	2
4538	0	0	9e-05	0.00019	-0.00015	-0.00011	-0.00019	5e-05	2
4539	0	0	9e-05	0.00019	-0.00015	-0.00011	-0.00019	5e-05	2
4540	0	0	9e-05	0.00019	-0.00015	-0.00011	-0.00019	5e-05	2
4541	0	0	9e-05	0.00019	-0.00015	-0.00011	-0.00019	5e-05	2
4542	0	0	9e-05	0.00019	-0.00015	-0.00011	-0.00019	5e-05	2
4543	0	0	9e-05	0.00019	-0.00015	-0.00011	-0.00019	5e-05	2
4544	0	0	9e-05	0.00019	-0.00015	-0.00011	-0.00019	5e-05	2
4545	0	0	9e-05	0.00019	-0.00015	-0.00011	-0.00019	5e-05	2
4546	0	0	9e-05	0.00019	-0.00015	-0.00011	-0.00019	5e-05	2
4547	5e-05	7e-05	0.00015	9e-05	-5e-05	0	-0.0001	1e-05	2
4548	5e-05	7e-05	0.00015	9e-05	-5e-05	0	-0.0001	1e-05	2
4549	5e-05	7e-05	0.00015	9e-05	-5e-05	0	-0.0001	1e-05	2
4550	5e-05	7e-05	0.00015	9e-05	-5e-05	0	-0.0001	1e-05	2
4551	5e-05	7e-05	0.00015	9e-05	-5e-05	0	-0.0001	1e-05	2
4552	5e-05	7e-05	0.00015	9e-05	-5e-05	0	-0.0001	1e-05	2
4553	5e-05	7e-05	0.00015	9e-05	-5e-05	0	-0.0001	1e-05	2
4554	5e-05	7e-05	0.00015	9e-05	-5e-05	0	-0.0001	1e-05	2
4555	5e-05	7e-05	0.00015	9e-05	-5e-05	0	-0.0001	1e-05	2
4556	5e-05	7e-05	0.00015	9e-05	-5e-05	0	-0.0001	1e-05	2
4557	5e-05	7e-05	0.00015	9e-05	-5e-05	0	-0.0001	1e-05	2
4558	5e-05	7e-05	0.00015	9e-05	-5e-05	0	-0.0001	1e-05	2
4559	5e-05	7e-05	0.00015	9e-05	-5e-05	0	-0.0001	1e-05	2
4560	4e-05	2e-05	0	7e-05	0.00011	-0.00014	-0.00017	-3e-05	2
4561	4e-05	2e-05	0	7e-05	0.00011	-0.00014	-0.00017	-3e-05	2
4562	4e-05	2e-05	0	7e-05	0.00011	-0.00014	-0.00017	-3e-05	2
4563	4e-05	2e-05	0	7e-05	0.00011	-0.00014	-0.00017	-3e-05	2
4564	4e-05	2e-05	0	7e-05	0.00011	-0.00014	-0.00017	-3e-05	2
4565	4e-05	2e-05	0	7e-05	0.00011	-0.00014	-0.00017	-3e-05	2
4566	4e-05	2e-05	0	7e-05	0.00011	-0.00014	-0.00017	-3e-05	2
4567	4e-05	2e-05	0	7e-05	0.00011	-0.00014	-0.00017	-3e-05	2
4568	4e-05	2e-05	0	7e-05	0.00011	-0.00014	-0.00017	-3e-05	2
4569	0.00014	0.00011	-5e-05	4e-05	-2e-05	-0.00036	-0.00023	-2e-05	2
4570	0.00014	0.00011	-5e-05	4e-05	-2e-05	-0.00036	-0.00023	-2e-05	2
4571	0.00014	0.00011	-5e-05	4e-05	-2e-05	-0.00036	-0.00023	-2e-05	2
4572	0.00014	0.00011	-5e-05	4e-05	-2e-05	-0.00036	-0.00023	-2e-05	2
4573	0.00014	0.00011	-5e-05	4e-05	-2e-05	-0.00036	-0.00023	-2e-05	2
4574	0.00014	0.00011	-5e-05	4e-05	-2e-05	-0.00036	-0.00023	-2e-05	2
4575	0.00014	0.00011	-5e-05	4e-05	-2e-05	-0.00036	-0.00023	-2e-05	2
4576	0.00014	0.00011	-5e-05	4e-05	-2e-05	-0.00036	-0.00023	-2e-05	2
4577	0.00014	0.00011	-5e-05	4e-05	-2e-05	-0.00036	-0.00023	-2e-05	2
4578	0.00014	0.00011	-5e-05	4e-05	-2e-05	-0.00036	-0.00023	-2e-05	2
4579	0.00014	0.00011	-5e-05	4e-05	-2e-05	-0.00036	-0.00023	-2e-05	2
4580	0.00014	0.00011	-5e-05	4e-05	-2e-05	-0.00036	-0.00023	-2e-05	2
4581	0.00014	0.00011	-5e-05	4e-05	-2e-05	-0.00036	-0.00023	-2e-05	2
4582	0.00014	0.00011	-5e-05	4e-05	-2e-05	-0.00036	-0.00023	-2e-05	2
4583	-1e-05	-0.00018	-0.00034	-9e-05	-2e-05	1e-05	0.00011	-4e-05	2
4584	4e-05	7e-05	0.00023	-8e-05	-0.00014	0.00025	7e-05	4e-05	2
4585	4e-05	7e-05	0.00023	-8e-05	-0.00014	0.00025	7e-05	4e-05	2
4586	4e-05	7e-05	0.00023	-8e-05	-0.00014	0.00025	7e-05	4e-05	2
4588	4e-05	7e-05	0.00023	-8e-05	-0.00014	0.00025	7e-05	4e-05	2
4589	4e-05	7e-05	0.00023	-8e-05	-0.00014	0.00025	7e-05	4e-05	2
4590	4e-05	7e-05	0.00023	-8e-05	-0.00014	0.00025	7e-05	4e-05	2
4591	4e-05	7e-05	0.00023	-8e-05	-0.00014	0.00025	7e-05	4e-05	2
4592	4e-05	7e-05	0.00023	-8e-05	-0.00014	0.00025	7e-05	4e-05	2
4593	4e-05	7e-05	0.00023	-8e-05	-0.00014	0.00025	7e-05	4e-05	2
4594	4e-05	7e-05	0.00023	-8e-05	-0.00014	0.00025	7e-05	4e-05	2
4595	4e-05	7e-05	0.00023	-8e-05	-0.00014	0.00025	7e-05	4e-05	2
4596	4e-05	7e-05	0.00023	-8e-05	-0.00014	0.00025	7e-05	4e-05	2
4597	4e-05	7e-05	0.00023	-8e-05	-0.00014	0.00025	7e-05	4e-05	2
4598	4e-05	7e-05	0.00023	-8e-05	-0.00014	0.00025	7e-05	4e-05	2
4599	4e-05	7e-05	0.00023	-8e-05	-0.00014	0.00025	7e-05	4e-05	2
4600	4e-05	7e-05	0.00023	-8e-05	-0.00014	0.00025	7e-05	4e-05	2
4601	4e-05	7e-05	0.00023	-8e-05	-0.00014	0.00025	7e-05	4e-05	2
4602	4e-05	7e-05	0.00023	-8e-05	-0.00014	0.00025	7e-05	4e-05	2
4603	4e-05	7e-05	0.00023	-8e-05	-0.00014	0.00025	7e-05	4e-05	2
4604	4e-05	7e-05	0.00023	-8e-05	-0.00014	0.00025	7e-05	4e-05	2
4605	4e-05	7e-05	0.00023	-8e-05	-0.00014	0.00025	7e-05	4e-05	2
4606	-5e-05	2e-05	0.00016	-7e-05	-0.00021	-0.00069	0.00012	4e-05	2
4607	6e-05	0.00012	0.00046	4e-05	-0.00034	-0.00023	0.00014	2e-05	2
4608	6e-05	0.00012	0.00046	4e-05	-0.00034	-0.00023	0.00014	2e-05	2
4609	6e-05	0.00012	0.00046	4e-05	-0.00034	-0.00023	0.00014	2e-05	2
4610	6e-05	0.00012	0.00046	4e-05	-0.00034	-0.00023	0.00014	2e-05	2
4611	6e-05	0.00012	0.00046	4e-05	-0.00034	-0.00023	0.00014	2e-05	2
4612	6e-05	0.00012	0.00046	4e-05	-0.00034	-0.00023	0.00014	2e-05	2
4613	6e-05	0.00012	0.00046	4e-05	-0.00034	-0.00023	0.00014	2e-05	2
4614	6e-05	0.00012	0.00046	4e-05	-0.00034	-0.00023	0.00014	2e-05	2
4615	6e-05	0.00012	0.00046	4e-05	-0.00034	-0.00023	0.00014	2e-05	2
4616	6e-05	0.00012	0.00046	4e-05	-0.00034	-0.00023	0.00014	2e-05	2
4617	6e-05	0.00012	0.00046	4e-05	-0.00034	-0.00023	0.00014	2e-05	2
4618	6e-05	0.00012	0.00046	4e-05	-0.00034	-0.00023	0.00014	2e-05	2
4619	6e-05	0.00012	0.00046	4e-05	-0.00034	-0.00023	0.00014	2e-05	2
4620	6e-05	0.00012	0.00046	4e-05	-0.00034	-0.00023	0.00014	2e-05	2
4621	6e-05	0.00012	0.00046	4e-05	-0.00034	-0.00023	0.00014	2e-05	2
4622	6e-05	0.00012	0.00046	4e-05	-0.00034	-0.00023	0.00014	2e-05	2
4623	6e-05	0.00012	0.00046	4e-05	-0.00034	-0.00023	0.00014	2e-05	2
4624	6e-05	0.00012	0.00046	4e-05	-0.00034	-0.00023	0.00014	2e-05	2
4625	6e-05	0.00012	0.00046	4e-05	-0.00034	-0.00023	0.00014	2e-05	2
4626	6e-05	0.00012	0.00046	4e-05	-0.00034	-0.00023	0.00014	2e-05	2
4627	6e-05	0.00012	0.00046	4e-05	-0.00034	-0.00023	0.00014	2e-05	2
4628	6e-05	0.00012	0.00046	4e-05	-0.00034	-0.00023	0.00014	2e-05	2
4629	-5e-05	-1e-05	1e-05	-7e-05	2e-05	0.00057	-0.00012	-2e-05	2
4630	0.00013	7e-05	8e-05	8e-05	4e-05	6e-05	-0.0001	5e-05	2
4631	0.00013	7e-05	8e-05	8e-05	4e-05	6e-05	-0.0001	5e-05	2
4632	0.00013	7e-05	8e-05	8e-05	4e-05	6e-05	-0.0001	5e-05	2
4633	0.00013	7e-05	8e-05	8e-05	4e-05	6e-05	-0.0001	5e-05	2
4634	0.00013	7e-05	8e-05	8e-05	4e-05	6e-05	-0.0001	5e-05	2
4635	0.00013	7e-05	8e-05	8e-05	4e-05	6e-05	-0.0001	5e-05	2
4636	0.00013	7e-05	8e-05	8e-05	4e-05	6e-05	-0.0001	5e-05	2
4638	0.00013	7e-05	8e-05	8e-05	4e-05	6e-05	-0.0001	5e-05	2
4639	0.00013	7e-05	8e-05	8e-05	4e-05	6e-05	-0.0001	5e-05	2
4640	0.00013	7e-05	8e-05	8e-05	4e-05	6e-05	-0.0001	5e-05	2
4641	0.00013	7e-05	8e-05	8e-05	4e-05	6e-05	-0.0001	5e-05	2
4642	0.00013	7e-05	8e-05	8e-05	4e-05	6e-05	-0.0001	5e-05	2
4643	0.00013	7e-05	8e-05	8e-05	4e-05	6e-05	-0.0001	5e-05	2
4644	0.00013	7e-05	8e-05	8e-05	4e-05	6e-05	-0.0001	5e-05	2
4645	0.00013	7e-05	8e-05	8e-05	4e-05	6e-05	-0.0001	5e-05	2
4646	0.00013	7e-05	8e-05	8e-05	4e-05	6e-05	-0.0001	5e-05	2
4647	0.00013	7e-05	8e-05	8e-05	4e-05	6e-05	-0.0001	5e-05	2
4648	0.00013	7e-05	8e-05	8e-05	4e-05	6e-05	-0.0001	5e-05	2
4649	0.00013	7e-05	8e-05	8e-05	4e-05	6e-05	-0.0001	5e-05	2
4650	0.00013	7e-05	8e-05	8e-05	4e-05	6e-05	-0.0001	5e-05	2
4651	-1e-05	-4e-05	-0.00013	-0.00015	3e-05	-0.00041	-3e-05	0	2
4652	-5e-05	4e-05	0.00018	-4e-05	0.0001	0.00017	-8e-05	-5e-05	2
4653	-5e-05	4e-05	0.00018	-4e-05	0.0001	0.00017	-8e-05	-5e-05	2
4654	-5e-05	4e-05	0.00018	-4e-05	0.0001	0.00017	-8e-05	-5e-05	2
4655	-5e-05	4e-05	0.00018	-4e-05	0.0001	0.00017	-8e-05	-5e-05	2
4656	-5e-05	4e-05	0.00018	-4e-05	0.0001	0.00017	-8e-05	-5e-05	2
4657	-5e-05	4e-05	0.00018	-4e-05	0.0001	0.00017	-8e-05	-5e-05	2
4658	-5e-05	4e-05	0.00018	-4e-05	0.0001	0.00017	-8e-05	-5e-05	2
4659	-5e-05	4e-05	0.00018	-4e-05	0.0001	0.00017	-8e-05	-5e-05	2
4660	-5e-05	4e-05	0.00018	-4e-05	0.0001	0.00017	-8e-05	-5e-05	2
4661	-5e-05	4e-05	0.00018	-4e-05	0.0001	0.00017	-8e-05	-5e-05	2
4662	-5e-05	4e-05	0.00018	-4e-05	0.0001	0.00017	-8e-05	-5e-05	2
4663	-5e-05	4e-05	0.00018	-4e-05	0.0001	0.00017	-8e-05	-5e-05	2
4664	-5e-05	4e-05	0.00018	-4e-05	0.0001	0.00017	-8e-05	-5e-05	2
4665	-1e-05	-1e-05	-6e-05	5e-05	-0.00013	7e-05	-0.00032	0	2
4666	-1e-05	-1e-05	-6e-05	5e-05	-0.00013	7e-05	-0.00032	0	2
4667	-1e-05	-1e-05	-6e-05	5e-05	-0.00013	7e-05	-0.00032	0	2
4668	-1e-05	-1e-05	-6e-05	5e-05	-0.00013	7e-05	-0.00032	0	2
4669	-1e-05	-1e-05	-6e-05	5e-05	-0.00013	7e-05	-0.00032	0	2
4670	-1e-05	-1e-05	-6e-05	5e-05	-0.00013	7e-05	-0.00032	0	2
4671	-1e-05	-1e-05	-6e-05	5e-05	-0.00013	7e-05	-0.00032	0	2
4672	-1e-05	-1e-05	-6e-05	5e-05	-0.00013	7e-05	-0.00032	0	2
4673	-4e-05	-2e-05	0.00012	-7e-05	5e-05	0.00086	0.00024	-3e-05	2
4674	-4e-05	-2e-05	0.00012	-7e-05	5e-05	0.00086	0.00024	-3e-05	2
4675	-4e-05	-2e-05	0.00012	-7e-05	5e-05	0.00086	0.00024	-3e-05	2
4676	-4e-05	-2e-05	0.00012	-7e-05	5e-05	0.00086	0.00024	-3e-05	2
4677	-4e-05	-2e-05	0.00012	-7e-05	5e-05	0.00086	0.00024	-3e-05	2
4678	-4e-05	-2e-05	0.00012	-7e-05	5e-05	0.00086	0.00024	-3e-05	2
4679	-4e-05	-2e-05	0.00012	-7e-05	5e-05	0.00086	0.00024	-3e-05	2
4680	2e-05	3e-05	0.00025	0.0001	-0.00016	-0.00038	0.00024	-1e-05	2
4681	2e-05	3e-05	0.00025	0.0001	-0.00016	-0.00038	0.00024	-1e-05	2
4682	2e-05	3e-05	0.00025	0.0001	-0.00016	-0.00038	0.00024	-1e-05	2
4683	2e-05	3e-05	0.00025	0.0001	-0.00016	-0.00038	0.00024	-1e-05	2
4684	2e-05	3e-05	0.00025	0.0001	-0.00016	-0.00038	0.00024	-1e-05	2
4685	2e-05	3e-05	0.00025	0.0001	-0.00016	-0.00038	0.00024	-1e-05	2
4686	2e-05	3e-05	0.00025	0.0001	-0.00016	-0.00038	0.00024	-1e-05	2
4688	2e-05	3e-05	0.00025	0.0001	-0.00016	-0.00038	0.00024	-1e-05	2
4689	2e-05	3e-05	0.00025	0.0001	-0.00016	-0.00038	0.00024	-1e-05	2
4690	2e-05	3e-05	0.00025	0.0001	-0.00016	-0.00038	0.00024	-1e-05	2
4691	2e-05	3e-05	0.00025	0.0001	-0.00016	-0.00038	0.00024	-1e-05	2
4692	2e-05	3e-05	0.00025	0.0001	-0.00016	-0.00038	0.00024	-1e-05	2
4693	2e-05	3e-05	0.00025	0.0001	-0.00016	-0.00038	0.00024	-1e-05	2
4694	2e-05	3e-05	0.00025	0.0001	-0.00016	-0.00038	0.00024	-1e-05	2
4695	2e-05	3e-05	0.00025	0.0001	-0.00016	-0.00038	0.00024	-1e-05	2
4696	-6e-05	-4e-05	1e-05	0.00023	-1e-05	-0.0002	5e-05	-2e-05	2
4697	-3e-05	-5e-05	-0.00014	8e-05	1e-05	-0.00011	-0.00015	-2e-05	2
4698	-3e-05	-5e-05	-0.00014	8e-05	1e-05	-0.00011	-0.00015	-2e-05	2
4699	-3e-05	-5e-05	-0.00014	8e-05	1e-05	-0.00011	-0.00015	-2e-05	2
4700	-3e-05	-5e-05	-0.00014	8e-05	1e-05	-0.00011	-0.00015	-2e-05	2
4701	-3e-05	-5e-05	-0.00014	8e-05	1e-05	-0.00011	-0.00015	-2e-05	2
4702	-3e-05	-5e-05	-0.00014	8e-05	1e-05	-0.00011	-0.00015	-2e-05	2
4703	7e-05	3e-05	-2e-05	-0.00015	0.00015	0.00036	5e-05	0.00015	2
4704	-3e-05	4e-05	-1e-05	-2e-05	-5e-05	-0.00025	-0.00015	1e-05	2
4705	-3e-05	4e-05	-1e-05	-2e-05	-5e-05	-0.00025	-0.00015	1e-05	2
4706	-3e-05	4e-05	-1e-05	-2e-05	-5e-05	-0.00025	-0.00015	1e-05	2
4707	-3e-05	4e-05	-1e-05	-2e-05	-5e-05	-0.00025	-0.00015	1e-05	2
4708	-3e-05	4e-05	-1e-05	-2e-05	-5e-05	-0.00025	-0.00015	1e-05	2
4709	-3e-05	4e-05	-1e-05	-2e-05	-5e-05	-0.00025	-0.00015	1e-05	2
4710	-3e-05	4e-05	-1e-05	-2e-05	-5e-05	-0.00025	-0.00015	1e-05	2
4711	-3e-05	4e-05	-1e-05	-2e-05	-5e-05	-0.00025	-0.00015	1e-05	2
4712	-3e-05	4e-05	-1e-05	-2e-05	-5e-05	-0.00025	-0.00015	1e-05	2
4713	-3e-05	4e-05	-1e-05	-2e-05	-5e-05	-0.00025	-0.00015	1e-05	2
4714	-3e-05	4e-05	-1e-05	-2e-05	-5e-05	-0.00025	-0.00015	1e-05	2
4715	-3e-05	4e-05	-1e-05	-2e-05	-5e-05	-0.00025	-0.00015	1e-05	2
4716	-3e-05	4e-05	-1e-05	-2e-05	-5e-05	-0.00025	-0.00015	1e-05	2
4717	-3e-05	4e-05	-1e-05	-2e-05	-5e-05	-0.00025	-0.00015	1e-05	2
4718	-3e-05	4e-05	-1e-05	-2e-05	-5e-05	-0.00025	-0.00015	1e-05	2
4719	-3e-05	4e-05	-1e-05	-2e-05	-5e-05	-0.00025	-0.00015	1e-05	2
4720	-3e-05	4e-05	-1e-05	-2e-05	-5e-05	-0.00025	-0.00015	1e-05	2
4721	-3e-05	4e-05	-1e-05	-2e-05	-5e-05	-0.00025	-0.00015	1e-05	2
4722	-3e-05	4e-05	-1e-05	-2e-05	-5e-05	-0.00025	-0.00015	1e-05	2
4723	-3e-05	4e-05	-1e-05	-2e-05	-5e-05	-0.00025	-0.00015	1e-05	2
4724	-3e-05	4e-05	-1e-05	-2e-05	-5e-05	-0.00025	-0.00015	1e-05	2
4725	-3e-05	4e-05	-1e-05	-2e-05	-5e-05	-0.00025	-0.00015	1e-05	2
4726	-7e-05	-4e-05	-9e-05	0.00025	2e-05	-5e-05	0.00011	-0.00014	2
4727	-0.0001	-8e-05	-8e-05	-0.00028	-0.00019	-0.00042	-9e-05	-9e-05	2
4728	-0.0001	-8e-05	-8e-05	-0.00028	-0.00019	-0.00042	-9e-05	-9e-05	2
4729	-0.0001	-8e-05	-8e-05	-0.00028	-0.00019	-0.00042	-9e-05	-9e-05	2
4730	-0.0001	-8e-05	-8e-05	-0.00028	-0.00019	-0.00042	-9e-05	-9e-05	2
4731	-0.0001	-8e-05	-8e-05	-0.00028	-0.00019	-0.00042	-9e-05	-9e-05	2
4732	-0.0001	-8e-05	-8e-05	-0.00028	-0.00019	-0.00042	-9e-05	-9e-05	2
4733	-0.0001	-8e-05	-8e-05	-0.00028	-0.00019	-0.00042	-9e-05	-9e-05	2
4734	-0.0001	-8e-05	-8e-05	-0.00028	-0.00019	-0.00042	-9e-05	-9e-05	2
4735	-0.0001	-8e-05	-8e-05	-0.00028	-0.00019	-0.00042	-9e-05	-9e-05	2
4736	-0.0001	-8e-05	-8e-05	-0.00028	-0.00019	-0.00042	-9e-05	-9e-05	2
4738	-0.0001	-8e-05	-8e-05	-0.00028	-0.00019	-0.00042	-9e-05	-9e-05	2
4739	-0.0001	-8e-05	-8e-05	-0.00028	-0.00019	-0.00042	-9e-05	-9e-05	2
4740	2e-05	-7e-05	-0.00015	-0.00016	4e-05	-0.00047	-0.00015	-6e-05	2
4741	2e-05	-7e-05	-0.00015	-0.00016	4e-05	-0.00047	-0.00015	-6e-05	2
4742	2e-05	-7e-05	-0.00015	-0.00016	4e-05	-0.00047	-0.00015	-6e-05	2
4743	2e-05	-7e-05	-0.00015	-0.00016	4e-05	-0.00047	-0.00015	-6e-05	2
4744	2e-05	-7e-05	-0.00015	-0.00016	4e-05	-0.00047	-0.00015	-6e-05	2
4745	2e-05	-7e-05	-0.00015	-0.00016	4e-05	-0.00047	-0.00015	-6e-05	2
4746	2e-05	-7e-05	-0.00015	-0.00016	4e-05	-0.00047	-0.00015	-6e-05	2
4747	2e-05	-7e-05	-0.00015	-0.00016	4e-05	-0.00047	-0.00015	-6e-05	2
4748	-0.0001	-0.00012	-0.00018	-0.00018	-0.00027	-0.00119	-0.00047	-0.00015	2
4749	-0.0001	-0.00012	-0.00018	-0.00018	-0.00027	-0.00119	-0.00047	-0.00015	2
4750	-0.0001	-0.00012	-0.00018	-0.00018	-0.00027	-0.00119	-0.00047	-0.00015	2
4751	-0.0001	-0.00012	-0.00018	-0.00018	-0.00027	-0.00119	-0.00047	-0.00015	2
4752	-0.0001	-0.00012	-0.00018	-0.00018	-0.00027	-0.00119	-0.00047	-0.00015	2
4753	-0.0001	-0.00012	-0.00018	-0.00018	-0.00027	-0.00119	-0.00047	-0.00015	2
4754	-0.0001	-0.00012	-0.00018	-0.00018	-0.00027	-0.00119	-0.00047	-0.00015	2
4755	-0.0001	-0.00012	-0.00018	-0.00018	-0.00027	-0.00119	-0.00047	-0.00015	2
4756	-0.0001	-0.00012	-0.00018	-0.00018	-0.00027	-0.00119	-0.00047	-0.00015	2
4757	-0.0001	-0.00012	-0.00018	-0.00018	-0.00027	-0.00119	-0.00047	-0.00015	2
4758	-0.0001	-0.00012	-0.00018	-0.00018	-0.00027	-0.00119	-0.00047	-0.00015	2
4759	-0.0001	-0.00012	-0.00018	-0.00018	-0.00027	-0.00119	-0.00047	-0.00015	2
4760	-0.0001	-0.00012	-0.00018	-0.00018	-0.00027	-0.00119	-0.00047	-0.00015	2
4761	-0.0001	-0.00012	-0.00018	-0.00018	-0.00027	-0.00119	-0.00047	-0.00015	2
4762	-0.0001	-0.00012	-0.00018	-0.00018	-0.00027	-0.00119	-0.00047	-0.00015	2
4763	-0.0001	-0.00012	-0.00018	-0.00018	-0.00027	-0.00119	-0.00047	-0.00015	2
4764	4e-05	3e-05	-0.00012	2e-05	3e-05	-0.00029	-0.00028	1e-05	2
4765	0.00011	6e-05	6e-05	-0.00016	-7e-05	0.00019	0.0001	9e-05	2
4766	0.00011	6e-05	6e-05	-0.00016	-7e-05	0.00019	0.0001	9e-05	2
4767	0.00011	6e-05	6e-05	-0.00016	-7e-05	0.00019	0.0001	9e-05	2
4768	0.00011	6e-05	6e-05	-0.00016	-7e-05	0.00019	0.0001	9e-05	2
4769	0.00011	6e-05	6e-05	-0.00016	-7e-05	0.00019	0.0001	9e-05	2
4770	0.00011	6e-05	6e-05	-0.00016	-7e-05	0.00019	0.0001	9e-05	2
4771	0.00011	6e-05	6e-05	-0.00016	-7e-05	0.00019	0.0001	9e-05	2
4772	0.00011	6e-05	6e-05	-0.00016	-7e-05	0.00019	0.0001	9e-05	2
4773	0.00011	6e-05	6e-05	-0.00016	-7e-05	0.00019	0.0001	9e-05	2
4774	0.00011	6e-05	6e-05	-0.00016	-7e-05	0.00019	0.0001	9e-05	2
4775	0.00011	6e-05	6e-05	-0.00016	-7e-05	0.00019	0.0001	9e-05	2
4776	0.00011	6e-05	6e-05	-0.00016	-7e-05	0.00019	0.0001	9e-05	2
4777	0.00011	6e-05	6e-05	-0.00016	-7e-05	0.00019	0.0001	9e-05	2
4778	0.00011	6e-05	6e-05	-0.00016	-7e-05	0.00019	0.0001	9e-05	2
4779	0.00011	6e-05	6e-05	-0.00016	-7e-05	0.00019	0.0001	9e-05	2
4780	0.00011	6e-05	6e-05	-0.00016	-7e-05	0.00019	0.0001	9e-05	2
4781	0.00011	6e-05	6e-05	-0.00016	-7e-05	0.00019	0.0001	9e-05	2
4782	0.00011	6e-05	6e-05	-0.00016	-7e-05	0.00019	0.0001	9e-05	2
4783	0.00011	6e-05	6e-05	-0.00016	-7e-05	0.00019	0.0001	9e-05	2
4784	0.00011	6e-05	6e-05	-0.00016	-7e-05	0.00019	0.0001	9e-05	2
4785	0.00011	6e-05	6e-05	-0.00016	-7e-05	0.00019	0.0001	9e-05	2
4786	-0.00014	-9e-05	-4e-05	-0.00023	-0.00026	-0.00012	1e-05	-4e-05	2
4788	0.0001	-2e-05	-3e-05	0.00035	0.00016	0.00017	0.00032	6e-05	2
4789	0.0001	-2e-05	-3e-05	0.00035	0.00016	0.00017	0.00032	6e-05	2
4790	0.0001	-2e-05	-3e-05	0.00035	0.00016	0.00017	0.00032	6e-05	2
4791	0.0001	-2e-05	-3e-05	0.00035	0.00016	0.00017	0.00032	6e-05	2
4792	0.0001	-2e-05	-3e-05	0.00035	0.00016	0.00017	0.00032	6e-05	2
4793	0.0001	-2e-05	-3e-05	0.00035	0.00016	0.00017	0.00032	6e-05	2
4794	0.0001	-2e-05	-3e-05	0.00035	0.00016	0.00017	0.00032	6e-05	2
4795	0.0001	-2e-05	-3e-05	0.00035	0.00016	0.00017	0.00032	6e-05	2
4796	0.0001	-2e-05	-3e-05	0.00035	0.00016	0.00017	0.00032	6e-05	2
4797	0.0001	-2e-05	-3e-05	0.00035	0.00016	0.00017	0.00032	6e-05	2
4798	0.0001	-2e-05	-3e-05	0.00035	0.00016	0.00017	0.00032	6e-05	2
4799	0.0001	-2e-05	-3e-05	0.00035	0.00016	0.00017	0.00032	6e-05	2
4800	-5e-05	0	-0.0001	-6e-05	0.00018	0.00015	-0.00011	0	2
4801	-5e-05	0	-0.0001	-6e-05	0.00018	0.00015	-0.00011	0	2
4802	-5e-05	0	-0.0001	-6e-05	0.00018	0.00015	-0.00011	0	2
4803	-5e-05	0	-0.0001	-6e-05	0.00018	0.00015	-0.00011	0	2
4804	-5e-05	0	-0.0001	-6e-05	0.00018	0.00015	-0.00011	0	2
4805	-5e-05	0	-0.0001	-6e-05	0.00018	0.00015	-0.00011	0	2
4806	-5e-05	0	-0.0001	-6e-05	0.00018	0.00015	-0.00011	0	2
4807	-5e-05	0	-0.0001	-6e-05	0.00018	0.00015	-0.00011	0	2
4808	-6e-05	-2e-05	-3e-05	2e-05	-1e-05	-0.00064	-3e-05	-3e-05	2
4809	-6e-05	-2e-05	-3e-05	2e-05	-1e-05	-0.00064	-3e-05	-3e-05	2
4810	-6e-05	-2e-05	-3e-05	2e-05	-1e-05	-0.00064	-3e-05	-3e-05	2
4811	-6e-05	-2e-05	-3e-05	2e-05	-1e-05	-0.00064	-3e-05	-3e-05	2
4812	-6e-05	-2e-05	-3e-05	2e-05	-1e-05	-0.00064	-3e-05	-3e-05	2
4813	-6e-05	-2e-05	-3e-05	2e-05	-1e-05	-0.00064	-3e-05	-3e-05	2
4814	-6e-05	-2e-05	-3e-05	2e-05	-1e-05	-0.00064	-3e-05	-3e-05	2
4815	-6e-05	-2e-05	-3e-05	2e-05	-1e-05	-0.00064	-3e-05	-3e-05	2
4816	-6e-05	-2e-05	-3e-05	2e-05	-1e-05	-0.00064	-3e-05	-3e-05	2
4817	-6e-05	-2e-05	-3e-05	2e-05	-1e-05	-0.00064	-3e-05	-3e-05	2
4818	-6e-05	-2e-05	-3e-05	2e-05	-1e-05	-0.00064	-3e-05	-3e-05	2
4819	-6e-05	-2e-05	-3e-05	2e-05	-1e-05	-0.00064	-3e-05	-3e-05	2
4820	-6e-05	-2e-05	-3e-05	2e-05	-1e-05	-0.00064	-3e-05	-3e-05	2
4821	-6e-05	-2e-05	-3e-05	2e-05	-1e-05	-0.00064	-3e-05	-3e-05	2
4822	-6e-05	-2e-05	-3e-05	2e-05	-1e-05	-0.00064	-3e-05	-3e-05	2
4823	1e-05	4e-05	2e-05	-9e-05	-3e-05	0.00017	-0.0001	-3e-05	2
4824	-0.0001	-0.00013	-0.00037	-0.00021	0.00028	0.00048	2e-05	2e-05	2
4825	-0.0001	-0.00013	-0.00037	-0.00021	0.00028	0.00048	2e-05	2e-05	2
4826	-0.0001	-0.00013	-0.00037	-0.00021	0.00028	0.00048	2e-05	2e-05	2
4827	-0.0001	-0.00013	-0.00037	-0.00021	0.00028	0.00048	2e-05	2e-05	2
4828	-0.0001	-0.00013	-0.00037	-0.00021	0.00028	0.00048	2e-05	2e-05	2
4829	-0.0001	-0.00013	-0.00037	-0.00021	0.00028	0.00048	2e-05	2e-05	2
4830	-0.0001	-0.00013	-0.00037	-0.00021	0.00028	0.00048	2e-05	2e-05	2
4831	-0.0001	-0.00013	-0.00037	-0.00021	0.00028	0.00048	2e-05	2e-05	2
4832	-0.0001	-0.00013	-0.00037	-0.00021	0.00028	0.00048	2e-05	2e-05	2
4833	-0.0001	-0.00013	-0.00037	-0.00021	0.00028	0.00048	2e-05	2e-05	2
4834	-0.0001	-0.00013	-0.00037	-0.00021	0.00028	0.00048	2e-05	2e-05	2
4835	-0.0001	-0.00013	-0.00037	-0.00021	0.00028	0.00048	2e-05	2e-05	2
4836	-0.0001	-0.00013	-0.00037	-0.00021	0.00028	0.00048	2e-05	2e-05	2
4838	-0.0001	-0.00013	-0.00037	-0.00021	0.00028	0.00048	2e-05	2e-05	2
4839	-0.0001	-0.00013	-0.00037	-0.00021	0.00028	0.00048	2e-05	2e-05	2
4840	-0.0001	-0.00013	-0.00037	-0.00021	0.00028	0.00048	2e-05	2e-05	2
4841	-0.0001	-0.00013	-0.00037	-0.00021	0.00028	0.00048	2e-05	2e-05	2
4842	-0.0001	-0.00013	-0.00037	-0.00021	0.00028	0.00048	2e-05	2e-05	2
4843	-0.0001	-0.00013	-0.00037	-0.00021	0.00028	0.00048	2e-05	2e-05	2
4844	-0.0001	-0.00013	-0.00037	-0.00021	0.00028	0.00048	2e-05	2e-05	2
4845	-0.0001	-0.00013	-0.00037	-0.00021	0.00028	0.00048	2e-05	2e-05	2
4846	1e-05	6e-05	0.00012	0.00026	0.00024	0.00085	0.00029	6e-05	2
4847	-1e-05	-7e-05	-8e-05	-0.00012	-1e-05	0.00049	0.00023	-2e-05	2
4848	-1e-05	-7e-05	-8e-05	-0.00012	-1e-05	0.00049	0.00023	-2e-05	2
4849	-1e-05	-7e-05	-8e-05	-0.00012	-1e-05	0.00049	0.00023	-2e-05	2
4850	-1e-05	-7e-05	-8e-05	-0.00012	-1e-05	0.00049	0.00023	-2e-05	2
4851	-1e-05	-7e-05	-8e-05	-0.00012	-1e-05	0.00049	0.00023	-2e-05	2
4852	-1e-05	-7e-05	-8e-05	-0.00012	-1e-05	0.00049	0.00023	-2e-05	2
4853	-1e-05	-7e-05	-8e-05	-0.00012	-1e-05	0.00049	0.00023	-2e-05	2
4854	-1e-05	-7e-05	-8e-05	-0.00012	-1e-05	0.00049	0.00023	-2e-05	2
4855	-1e-05	-7e-05	-8e-05	-0.00012	-1e-05	0.00049	0.00023	-2e-05	2
4856	-1e-05	-7e-05	-8e-05	-0.00012	-1e-05	0.00049	0.00023	-2e-05	2
4857	-1e-05	-7e-05	-8e-05	-0.00012	-1e-05	0.00049	0.00023	-2e-05	2
4858	-1e-05	-7e-05	-8e-05	-0.00012	-1e-05	0.00049	0.00023	-2e-05	2
4859	-1e-05	-7e-05	-8e-05	-0.00012	-1e-05	0.00049	0.00023	-2e-05	2
4860	-8e-05	-5e-05	-4e-05	3e-05	5e-05	-0.00036	-6e-05	-3e-05	2
4861	-8e-05	-5e-05	-4e-05	3e-05	5e-05	-0.00036	-6e-05	-3e-05	2
4862	-8e-05	-5e-05	-4e-05	3e-05	5e-05	-0.00036	-6e-05	-3e-05	2
4863	-8e-05	-5e-05	-4e-05	3e-05	5e-05	-0.00036	-6e-05	-3e-05	2
4864	-8e-05	-5e-05	-4e-05	3e-05	5e-05	-0.00036	-6e-05	-3e-05	2
4865	-8e-05	-5e-05	-4e-05	3e-05	5e-05	-0.00036	-6e-05	-3e-05	2
4866	-8e-05	-5e-05	-4e-05	3e-05	5e-05	-0.00036	-6e-05	-3e-05	2
4867	-8e-05	-5e-05	-4e-05	3e-05	5e-05	-0.00036	-6e-05	-3e-05	2
4868	2e-05	0.00012	0.00017	0.00011	0.0003	-0.00035	0.00023	5e-05	2
4869	2e-05	0.00012	0.00017	0.00011	0.0003	-0.00035	0.00023	5e-05	2
4870	2e-05	0.00012	0.00017	0.00011	0.0003	-0.00035	0.00023	5e-05	2
4871	2e-05	0.00012	0.00017	0.00011	0.0003	-0.00035	0.00023	5e-05	2
4872	2e-05	0.00012	0.00017	0.00011	0.0003	-0.00035	0.00023	5e-05	2
4873	2e-05	0.00012	0.00017	0.00011	0.0003	-0.00035	0.00023	5e-05	2
4874	2e-05	0.00012	0.00017	0.00011	0.0003	-0.00035	0.00023	5e-05	2
4875	2e-05	0.00012	0.00017	0.00011	0.0003	-0.00035	0.00023	5e-05	2
4876	2e-05	0.00012	0.00017	0.00011	0.0003	-0.00035	0.00023	5e-05	2
4877	2e-05	0.00012	0.00017	0.00011	0.0003	-0.00035	0.00023	5e-05	2
4878	2e-05	0.00012	0.00017	0.00011	0.0003	-0.00035	0.00023	5e-05	2
4879	2e-05	0.00012	0.00017	0.00011	0.0003	-0.00035	0.00023	5e-05	2
4880	2e-05	0.00012	0.00017	0.00011	0.0003	-0.00035	0.00023	5e-05	2
4881	2e-05	0.00012	0.00017	0.00011	0.0003	-0.00035	0.00023	5e-05	2
4882	2e-05	0.00012	0.00017	0.00011	0.0003	-0.00035	0.00023	5e-05	2
4883	9e-05	4e-05	0.00015	-0.00015	-0.00027	-0.0005	-0.00044	1e-05	2
4884	-5e-05	-3e-05	-0.00017	-7e-05	-8e-05	0.00011	-0.00032	-7e-05	2
4885	-5e-05	-3e-05	-0.00017	-7e-05	-8e-05	0.00011	-0.00032	-7e-05	2
4886	-5e-05	-3e-05	-0.00017	-7e-05	-8e-05	0.00011	-0.00032	-7e-05	2
4888	-5e-05	-3e-05	-0.00017	-7e-05	-8e-05	0.00011	-0.00032	-7e-05	2
4889	-5e-05	-3e-05	-0.00017	-7e-05	-8e-05	0.00011	-0.00032	-7e-05	2
4890	-5e-05	-3e-05	-0.00017	-7e-05	-8e-05	0.00011	-0.00032	-7e-05	2
4891	-5e-05	-3e-05	-0.00017	-7e-05	-8e-05	0.00011	-0.00032	-7e-05	2
4892	-5e-05	-3e-05	-0.00017	-7e-05	-8e-05	0.00011	-0.00032	-7e-05	2
4893	-5e-05	-3e-05	-0.00017	-7e-05	-8e-05	0.00011	-0.00032	-7e-05	2
4894	-5e-05	-3e-05	-0.00017	-7e-05	-8e-05	0.00011	-0.00032	-7e-05	2
4895	-5e-05	-3e-05	-0.00017	-7e-05	-8e-05	0.00011	-0.00032	-7e-05	2
4896	-5e-05	-3e-05	-0.00017	-7e-05	-8e-05	0.00011	-0.00032	-7e-05	2
4897	-5e-05	-3e-05	-0.00017	-7e-05	-8e-05	0.00011	-0.00032	-7e-05	2
4898	-5e-05	-3e-05	-0.00017	-7e-05	-8e-05	0.00011	-0.00032	-7e-05	2
4899	-5e-05	-3e-05	-0.00017	-7e-05	-8e-05	0.00011	-0.00032	-7e-05	2
4900	-5e-05	-3e-05	-0.00017	-7e-05	-8e-05	0.00011	-0.00032	-7e-05	2
4901	-5e-05	-3e-05	-0.00017	-7e-05	-8e-05	0.00011	-0.00032	-7e-05	2
4902	-5e-05	-3e-05	-0.00017	-7e-05	-8e-05	0.00011	-0.00032	-7e-05	2
4903	-5e-05	-3e-05	-0.00017	-7e-05	-8e-05	0.00011	-0.00032	-7e-05	2
4904	-5e-05	-3e-05	-0.00017	-7e-05	-8e-05	0.00011	-0.00032	-7e-05	2
4905	-5e-05	-3e-05	-0.00017	-7e-05	-8e-05	0.00011	-0.00032	-7e-05	2
4906	0	8e-05	0.00015	0.00021	-0.00037	-0.00054	-0.0001	-8e-05	2
4907	-2e-05	-4e-05	3e-05	-0.00013	-3e-05	0.00015	-6e-05	-1e-05	2
4908	-2e-05	-4e-05	3e-05	-0.00013	-3e-05	0.00015	-6e-05	-1e-05	2
4909	-2e-05	-4e-05	3e-05	-0.00013	-3e-05	0.00015	-6e-05	-1e-05	2
4910	-2e-05	-4e-05	3e-05	-0.00013	-3e-05	0.00015	-6e-05	-1e-05	2
4911	-2e-05	-4e-05	3e-05	-0.00013	-3e-05	0.00015	-6e-05	-1e-05	2
4912	-2e-05	-4e-05	3e-05	-0.00013	-3e-05	0.00015	-6e-05	-1e-05	2
4913	-2e-05	-4e-05	3e-05	-0.00013	-3e-05	0.00015	-6e-05	-1e-05	2
4914	-2e-05	-4e-05	3e-05	-0.00013	-3e-05	0.00015	-6e-05	-1e-05	2
4915	-2e-05	-4e-05	3e-05	-0.00013	-3e-05	0.00015	-6e-05	-1e-05	2
4916	-2e-05	-4e-05	3e-05	-0.00013	-3e-05	0.00015	-6e-05	-1e-05	2
4917	-2e-05	-4e-05	3e-05	-0.00013	-3e-05	0.00015	-6e-05	-1e-05	2
4918	-2e-05	-4e-05	3e-05	-0.00013	-3e-05	0.00015	-6e-05	-1e-05	2
4919	-2e-05	-4e-05	3e-05	-0.00013	-3e-05	0.00015	-6e-05	-1e-05	2
4920	-2e-05	-4e-05	3e-05	-0.00013	-3e-05	0.00015	-6e-05	-1e-05	2
4921	-2e-05	-4e-05	3e-05	-0.00013	-3e-05	0.00015	-6e-05	-1e-05	2
4922	-2e-05	-4e-05	3e-05	-0.00013	-3e-05	0.00015	-6e-05	-1e-05	2
4923	-2e-05	-4e-05	3e-05	-0.00013	-3e-05	0.00015	-6e-05	-1e-05	2
4924	-2e-05	-4e-05	3e-05	-0.00013	-3e-05	0.00015	-6e-05	-1e-05	2
4925	-2e-05	-4e-05	3e-05	-0.00013	-3e-05	0.00015	-6e-05	-1e-05	2
4926	-2e-05	-4e-05	3e-05	-0.00013	-3e-05	0.00015	-6e-05	-1e-05	2
4927	-2e-05	-4e-05	3e-05	-0.00013	-3e-05	0.00015	-6e-05	-1e-05	2
4928	-2e-05	-4e-05	3e-05	-0.00013	-3e-05	0.00015	-6e-05	-1e-05	2
4929	2e-05	3e-05	0.00013	-0.00023	-1e-05	0.0002	0	4e-05	2
4930	2e-05	3e-05	0.00013	-0.00023	-1e-05	0.0002	0	4e-05	2
4931	2e-05	3e-05	0.00013	-0.00023	-1e-05	0.0002	0	4e-05	2
4932	2e-05	3e-05	0.00013	-0.00023	-1e-05	0.0002	0	4e-05	2
4933	2e-05	3e-05	0.00013	-0.00023	-1e-05	0.0002	0	4e-05	2
4934	2e-05	3e-05	0.00013	-0.00023	-1e-05	0.0002	0	4e-05	2
4935	2e-05	3e-05	0.00013	-0.00023	-1e-05	0.0002	0	4e-05	2
4936	2e-05	3e-05	0.00013	-0.00023	-1e-05	0.0002	0	4e-05	2
4938	2e-05	3e-05	0.00013	-0.00023	-1e-05	0.0002	0	4e-05	2
4939	2e-05	3e-05	0.00013	-0.00023	-1e-05	0.0002	0	4e-05	2
4940	2e-05	3e-05	0.00013	-0.00023	-1e-05	0.0002	0	4e-05	2
4941	2e-05	3e-05	0.00013	-0.00023	-1e-05	0.0002	0	4e-05	2
4942	2e-05	3e-05	0.00013	-0.00023	-1e-05	0.0002	0	4e-05	2
4943	-5e-05	-0.0001	-0.00011	4e-05	3e-05	-0.00013	7e-05	7e-05	2
4944	4e-05	5e-05	2e-05	8e-05	-5e-05	0.0005	0.00019	0.00011	2
4945	4e-05	5e-05	2e-05	8e-05	-5e-05	0.0005	0.00019	0.00011	2
4946	4e-05	5e-05	2e-05	8e-05	-5e-05	0.0005	0.00019	0.00011	2
4947	4e-05	5e-05	2e-05	8e-05	-5e-05	0.0005	0.00019	0.00011	2
4948	4e-05	5e-05	2e-05	8e-05	-5e-05	0.0005	0.00019	0.00011	2
4949	4e-05	5e-05	2e-05	8e-05	-5e-05	0.0005	0.00019	0.00011	2
4950	4e-05	5e-05	2e-05	8e-05	-5e-05	0.0005	0.00019	0.00011	2
4951	4e-05	5e-05	2e-05	8e-05	-5e-05	0.0005	0.00019	0.00011	2
4952	4e-05	5e-05	2e-05	8e-05	-5e-05	0.0005	0.00019	0.00011	2
4953	4e-05	5e-05	2e-05	8e-05	-5e-05	0.0005	0.00019	0.00011	2
4954	4e-05	5e-05	2e-05	8e-05	-5e-05	0.0005	0.00019	0.00011	2
4955	4e-05	5e-05	2e-05	8e-05	-5e-05	0.0005	0.00019	0.00011	2
4956	4e-05	5e-05	2e-05	8e-05	-5e-05	0.0005	0.00019	0.00011	2
4957	4e-05	5e-05	2e-05	8e-05	-5e-05	0.0005	0.00019	0.00011	2
4958	4e-05	5e-05	2e-05	8e-05	-5e-05	0.0005	0.00019	0.00011	2
4959	4e-05	5e-05	2e-05	8e-05	-5e-05	0.0005	0.00019	0.00011	2
4960	4e-05	5e-05	2e-05	8e-05	-5e-05	0.0005	0.00019	0.00011	2
4961	4e-05	5e-05	2e-05	8e-05	-5e-05	0.0005	0.00019	0.00011	2
4962	4e-05	5e-05	2e-05	8e-05	-5e-05	0.0005	0.00019	0.00011	2
4963	4e-05	5e-05	2e-05	8e-05	-5e-05	0.0005	0.00019	0.00011	2
4964	4e-05	5e-05	2e-05	8e-05	-5e-05	0.0005	0.00019	0.00011	2
4965	4e-05	5e-05	2e-05	8e-05	-5e-05	0.0005	0.00019	0.00011	2
4966	1e-05	1e-05	-8e-05	-9e-05	1e-05	-0.00069	-0.00031	-2e-05	2
4967	3e-05	2e-05	2e-05	0.00022	-3e-05	0.00035	4e-05	3e-05	2
4968	3e-05	2e-05	2e-05	0.00022	-3e-05	0.00035	4e-05	3e-05	2
4969	3e-05	2e-05	2e-05	0.00022	-3e-05	0.00035	4e-05	3e-05	2
4970	3e-05	2e-05	2e-05	0.00022	-3e-05	0.00035	4e-05	3e-05	2
4971	3e-05	2e-05	2e-05	0.00022	-3e-05	0.00035	4e-05	3e-05	2
4972	3e-05	2e-05	2e-05	0.00022	-3e-05	0.00035	4e-05	3e-05	2
4973	3e-05	2e-05	2e-05	0.00022	-3e-05	0.00035	4e-05	3e-05	2
4974	3e-05	2e-05	2e-05	0.00022	-3e-05	0.00035	4e-05	3e-05	2
4975	3e-05	2e-05	2e-05	0.00022	-3e-05	0.00035	4e-05	3e-05	2
4976	3e-05	2e-05	2e-05	0.00022	-3e-05	0.00035	4e-05	3e-05	2
4977	3e-05	2e-05	2e-05	0.00022	-3e-05	0.00035	4e-05	3e-05	2
4978	3e-05	2e-05	2e-05	0.00022	-3e-05	0.00035	4e-05	3e-05	2
4979	3e-05	2e-05	2e-05	0.00022	-3e-05	0.00035	4e-05	3e-05	2
4980	3e-05	2e-05	2e-05	0.00022	-3e-05	0.00035	4e-05	3e-05	2
4981	3e-05	2e-05	2e-05	0.00022	-3e-05	0.00035	4e-05	3e-05	2
4982	3e-05	2e-05	2e-05	0.00022	-3e-05	0.00035	4e-05	3e-05	2
4983	3e-05	2e-05	2e-05	0.00022	-3e-05	0.00035	4e-05	3e-05	2
4984	3e-05	2e-05	2e-05	0.00022	-3e-05	0.00035	4e-05	3e-05	2
4985	3e-05	2e-05	2e-05	0.00022	-3e-05	0.00035	4e-05	3e-05	2
4986	3e-05	2e-05	2e-05	0.00022	-3e-05	0.00035	4e-05	3e-05	2
4988	3e-05	2e-05	2e-05	0.00022	-3e-05	0.00035	4e-05	3e-05	2
4989	3e-05	2e-05	2e-05	0.00022	-3e-05	0.00035	4e-05	3e-05	2
4990	3e-05	2e-05	2e-05	0.00022	-3e-05	0.00035	4e-05	3e-05	2
4991	3e-05	2e-05	2e-05	0.00022	-3e-05	0.00035	4e-05	3e-05	2
4992	3e-05	2e-05	2e-05	0.00022	-3e-05	0.00035	4e-05	3e-05	2
4993	3e-05	2e-05	2e-05	0.00022	-3e-05	0.00035	4e-05	3e-05	2
4994	3e-05	2e-05	2e-05	0.00022	-3e-05	0.00035	4e-05	3e-05	2
4995	3e-05	2e-05	2e-05	0.00022	-3e-05	0.00035	4e-05	3e-05	2
4996	0.0001	3e-05	-4e-05	0.0001	-9e-05	0.00041	0.00019	0.00013	2
4997	-7e-05	-2e-05	-4e-05	2e-05	3e-05	0.0002	0.0001	-8e-05	2
4998	-7e-05	-2e-05	-4e-05	2e-05	3e-05	0.0002	0.0001	-8e-05	2
4999	-7e-05	-2e-05	-4e-05	2e-05	3e-05	0.0002	0.0001	-8e-05	2
5000	-7e-05	-2e-05	-4e-05	2e-05	3e-05	0.0002	0.0001	-8e-05	2
5001	-7e-05	-2e-05	-4e-05	2e-05	3e-05	0.0002	0.0001	-8e-05	2
5002	-7e-05	-2e-05	-4e-05	2e-05	3e-05	0.0002	0.0001	-8e-05	2
5003	1e-05	-4e-05	0.00013	0.0002	-0.00017	-0.00056	-0.00027	-9e-05	2
5004	0	-6e-05	-0.00025	-0.00026	0.00019	0.00022	0.00024	3e-05	2
5005	0	-6e-05	-0.00025	-0.00026	0.00019	0.00022	0.00024	3e-05	2
5006	0	-6e-05	-0.00025	-0.00026	0.00019	0.00022	0.00024	3e-05	2
5007	0	-6e-05	-0.00025	-0.00026	0.00019	0.00022	0.00024	3e-05	2
5008	0	-6e-05	-0.00025	-0.00026	0.00019	0.00022	0.00024	3e-05	2
5009	0	-6e-05	-0.00025	-0.00026	0.00019	0.00022	0.00024	3e-05	2
5010	0	-6e-05	-0.00025	-0.00026	0.00019	0.00022	0.00024	3e-05	2
5011	0	-6e-05	-0.00025	-0.00026	0.00019	0.00022	0.00024	3e-05	2
5012	0	-6e-05	-0.00025	-0.00026	0.00019	0.00022	0.00024	3e-05	2
5013	0	-6e-05	-0.00025	-0.00026	0.00019	0.00022	0.00024	3e-05	2
5014	0	-6e-05	-0.00025	-0.00026	0.00019	0.00022	0.00024	3e-05	2
5015	0	-6e-05	-0.00025	-0.00026	0.00019	0.00022	0.00024	3e-05	2
5016	0	-6e-05	-0.00025	-0.00026	0.00019	0.00022	0.00024	3e-05	2
5017	0	-6e-05	-0.00025	-0.00026	0.00019	0.00022	0.00024	3e-05	2
5018	0	-6e-05	-0.00025	-0.00026	0.00019	0.00022	0.00024	3e-05	2
5019	0	-6e-05	-0.00025	-0.00026	0.00019	0.00022	0.00024	3e-05	2
5020	0	-6e-05	-0.00025	-0.00026	0.00019	0.00022	0.00024	3e-05	2
5021	0	-6e-05	-0.00025	-0.00026	0.00019	0.00022	0.00024	3e-05	2
5022	0	-6e-05	-0.00025	-0.00026	0.00019	0.00022	0.00024	3e-05	2
5023	0	-6e-05	-0.00025	-0.00026	0.00019	0.00022	0.00024	3e-05	2
5024	0	-6e-05	-0.00025	-0.00026	0.00019	0.00022	0.00024	3e-05	2
5025	0	-6e-05	-0.00025	-0.00026	0.00019	0.00022	0.00024	3e-05	2
5026	-1e-05	-2e-05	-8e-05	-3e-05	-5e-05	-0.00017	0.00011	-8e-05	2
5027	-2e-05	-4e-05	2e-05	0.00015	-0.00015	-0.00085	-0.00029	-0.00013	2
5028	-2e-05	-4e-05	2e-05	0.00015	-0.00015	-0.00085	-0.00029	-0.00013	2
5029	-2e-05	-4e-05	2e-05	0.00015	-0.00015	-0.00085	-0.00029	-0.00013	2
5030	-2e-05	-4e-05	2e-05	0.00015	-0.00015	-0.00085	-0.00029	-0.00013	2
5031	-2e-05	-4e-05	2e-05	0.00015	-0.00015	-0.00085	-0.00029	-0.00013	2
5033	-2e-05	-4e-05	2e-05	0.00015	-0.00015	-0.00085	-0.00029	-0.00013	2
5034	-2e-05	-4e-05	2e-05	0.00015	-0.00015	-0.00085	-0.00029	-0.00013	2
5035	-2e-05	-4e-05	2e-05	0.00015	-0.00015	-0.00085	-0.00029	-0.00013	2
5036	-2e-05	-4e-05	2e-05	0.00015	-0.00015	-0.00085	-0.00029	-0.00013	2
5038	-2e-05	-4e-05	2e-05	0.00015	-0.00015	-0.00085	-0.00029	-0.00013	2
5039	-2e-05	-4e-05	2e-05	0.00015	-0.00015	-0.00085	-0.00029	-0.00013	2
5040	-2e-05	-4e-05	2e-05	0.00015	-0.00015	-0.00085	-0.00029	-0.00013	2
5041	-2e-05	-4e-05	2e-05	0.00015	-0.00015	-0.00085	-0.00029	-0.00013	2
5042	-2e-05	-4e-05	2e-05	0.00015	-0.00015	-0.00085	-0.00029	-0.00013	2
5043	-2e-05	-4e-05	2e-05	0.00015	-0.00015	-0.00085	-0.00029	-0.00013	2
5044	-2e-05	-4e-05	2e-05	0.00015	-0.00015	-0.00085	-0.00029	-0.00013	2
5045	-2e-05	-4e-05	2e-05	0.00015	-0.00015	-0.00085	-0.00029	-0.00013	2
5046	-2e-05	-4e-05	2e-05	0.00015	-0.00015	-0.00085	-0.00029	-0.00013	2
5047	-2e-05	-4e-05	2e-05	0.00015	-0.00015	-0.00085	-0.00029	-0.00013	2
5048	-2e-05	-4e-05	2e-05	0.00015	-0.00015	-0.00085	-0.00029	-0.00013	2
5049	1e-05	1e-05	-3e-05	-0.00011	8e-05	6e-05	-1e-05	2e-05	2
5050	-6e-05	1e-05	3e-05	-3e-05	-0.00018	-0.0005	-0.00026	-3e-05	2
5052	-6e-05	1e-05	3e-05	-3e-05	-0.00018	-0.0005	-0.00026	-3e-05	2
5053	-6e-05	1e-05	3e-05	-3e-05	-0.00018	-0.0005	-0.00026	-3e-05	2
5054	-6e-05	1e-05	3e-05	-3e-05	-0.00018	-0.0005	-0.00026	-3e-05	2
5055	-6e-05	1e-05	3e-05	-3e-05	-0.00018	-0.0005	-0.00026	-3e-05	2
5056	-6e-05	1e-05	3e-05	-3e-05	-0.00018	-0.0005	-0.00026	-3e-05	2
5057	-6e-05	1e-05	3e-05	-3e-05	-0.00018	-0.0005	-0.00026	-3e-05	2
5058	-6e-05	1e-05	3e-05	-3e-05	-0.00018	-0.0005	-0.00026	-3e-05	2
5059	-6e-05	1e-05	3e-05	-3e-05	-0.00018	-0.0005	-0.00026	-3e-05	2
5060	-6e-05	1e-05	3e-05	-3e-05	-0.00018	-0.0005	-0.00026	-3e-05	2
5061	-6e-05	1e-05	3e-05	-3e-05	-0.00018	-0.0005	-0.00026	-3e-05	2
5062	-6e-05	1e-05	3e-05	-3e-05	-0.00018	-0.0005	-0.00026	-3e-05	2
5063	-2e-05	0	-2e-05	-1e-05	0.0001	0.00062	0.00012	-1e-05	2
5064	-3e-05	-3e-05	7e-05	0.00019	0.00021	-2e-05	-0.00017	-3e-05	2
5065	-3e-05	-3e-05	7e-05	0.00019	0.00021	-2e-05	-0.00017	-3e-05	2
5066	-3e-05	-3e-05	7e-05	0.00019	0.00021	-2e-05	-0.00017	-3e-05	2
5067	-3e-05	-3e-05	7e-05	0.00019	0.00021	-2e-05	-0.00017	-3e-05	2
5068	-3e-05	-3e-05	7e-05	0.00019	0.00021	-2e-05	-0.00017	-3e-05	2
5069	-3e-05	-3e-05	7e-05	0.00019	0.00021	-2e-05	-0.00017	-3e-05	2
5070	-3e-05	-3e-05	7e-05	0.00019	0.00021	-2e-05	-0.00017	-3e-05	2
5071	-3e-05	-3e-05	7e-05	0.00019	0.00021	-2e-05	-0.00017	-3e-05	2
5072	-3e-05	-3e-05	7e-05	0.00019	0.00021	-2e-05	-0.00017	-3e-05	2
5073	-3e-05	-3e-05	7e-05	0.00019	0.00021	-2e-05	-0.00017	-3e-05	2
5074	-3e-05	-3e-05	7e-05	0.00019	0.00021	-2e-05	-0.00017	-3e-05	2
5075	-3e-05	-3e-05	7e-05	0.00019	0.00021	-2e-05	-0.00017	-3e-05	2
5076	-3e-05	-3e-05	7e-05	0.00019	0.00021	-2e-05	-0.00017	-3e-05	2
5077	-3e-05	-3e-05	7e-05	0.00019	0.00021	-2e-05	-0.00017	-3e-05	2
5078	-3e-05	-3e-05	7e-05	0.00019	0.00021	-2e-05	-0.00017	-3e-05	2
5079	-3e-05	-3e-05	7e-05	0.00019	0.00021	-2e-05	-0.00017	-3e-05	2
5080	-3e-05	-3e-05	7e-05	0.00019	0.00021	-2e-05	-0.00017	-3e-05	2
5081	-3e-05	-3e-05	7e-05	0.00019	0.00021	-2e-05	-0.00017	-3e-05	2
5082	-3e-05	-3e-05	7e-05	0.00019	0.00021	-2e-05	-0.00017	-3e-05	2
5083	-3e-05	-3e-05	7e-05	0.00019	0.00021	-2e-05	-0.00017	-3e-05	2
5084	-3e-05	-3e-05	7e-05	0.00019	0.00021	-2e-05	-0.00017	-3e-05	2
5085	-3e-05	-3e-05	7e-05	0.00019	0.00021	-2e-05	-0.00017	-3e-05	2
5086	3e-05	4e-05	8e-05	3e-05	3e-05	-0.00017	-1e-05	-1e-05	2
5088	-5e-05	2e-05	-1e-05	-3e-05	0.00011	0.00062	-0.00011	-3e-05	2
5089	-5e-05	2e-05	-1e-05	-3e-05	0.00011	0.00062	-0.00011	-3e-05	2
5090	-5e-05	2e-05	-1e-05	-3e-05	0.00011	0.00062	-0.00011	-3e-05	2
5091	-5e-05	2e-05	-1e-05	-3e-05	0.00011	0.00062	-0.00011	-3e-05	2
5092	-5e-05	2e-05	-1e-05	-3e-05	0.00011	0.00062	-0.00011	-3e-05	2
5093	-5e-05	2e-05	-1e-05	-3e-05	0.00011	0.00062	-0.00011	-3e-05	2
5094	-5e-05	2e-05	-1e-05	-3e-05	0.00011	0.00062	-0.00011	-3e-05	2
5095	-5e-05	2e-05	-1e-05	-3e-05	0.00011	0.00062	-0.00011	-3e-05	2
5096	-5e-05	2e-05	-1e-05	-3e-05	0.00011	0.00062	-0.00011	-3e-05	2
5097	-5e-05	2e-05	-1e-05	-3e-05	0.00011	0.00062	-0.00011	-3e-05	2
5098	-5e-05	2e-05	-1e-05	-3e-05	0.00011	0.00062	-0.00011	-3e-05	2
5099	-5e-05	2e-05	-1e-05	-3e-05	0.00011	0.00062	-0.00011	-3e-05	2
5100	-5e-05	2e-05	-1e-05	-3e-05	0.00011	0.00062	-0.00011	-3e-05	2
5101	-5e-05	2e-05	-1e-05	-3e-05	0.00011	0.00062	-0.00011	-3e-05	2
5102	-5e-05	2e-05	-1e-05	-3e-05	0.00011	0.00062	-0.00011	-3e-05	2
5103	-5e-05	2e-05	-1e-05	-3e-05	0.00011	0.00062	-0.00011	-3e-05	2
5104	-5e-05	2e-05	-1e-05	-3e-05	0.00011	0.00062	-0.00011	-3e-05	2
5105	-5e-05	2e-05	-1e-05	-3e-05	0.00011	0.00062	-0.00011	-3e-05	2
5106	-5e-05	2e-05	-1e-05	-3e-05	0.00011	0.00062	-0.00011	-3e-05	2
5107	-5e-05	2e-05	-1e-05	-3e-05	0.00011	0.00062	-0.00011	-3e-05	2
5108	-5e-05	2e-05	-1e-05	-3e-05	0.00011	0.00062	-0.00011	-3e-05	2
5109	-0.00011	-7e-05	-0.00029	-0.00072	7e-05	-0.0002	-0.00022	-4e-05	2
5110	3e-05	-8e-05	-0.00027	6e-05	8e-05	0.00017	0.00023	4e-05	2
5111	3e-05	-8e-05	-0.00027	6e-05	8e-05	0.00017	0.00023	4e-05	2
5112	3e-05	-8e-05	-0.00027	6e-05	8e-05	0.00017	0.00023	4e-05	2
5113	3e-05	-8e-05	-0.00027	6e-05	8e-05	0.00017	0.00023	4e-05	2
5114	3e-05	-8e-05	-0.00027	6e-05	8e-05	0.00017	0.00023	4e-05	2
5115	3e-05	-8e-05	-0.00027	6e-05	8e-05	0.00017	0.00023	4e-05	2
5116	3e-05	-8e-05	-0.00027	6e-05	8e-05	0.00017	0.00023	4e-05	2
5117	3e-05	-8e-05	-0.00027	6e-05	8e-05	0.00017	0.00023	4e-05	2
5118	3e-05	-8e-05	-0.00027	6e-05	8e-05	0.00017	0.00023	4e-05	2
5119	3e-05	-8e-05	-0.00027	6e-05	8e-05	0.00017	0.00023	4e-05	2
5120	3e-05	-8e-05	-0.00027	6e-05	8e-05	0.00017	0.00023	4e-05	2
5121	3e-05	-8e-05	-0.00027	6e-05	8e-05	0.00017	0.00023	4e-05	2
5122	3e-05	-8e-05	-0.00027	6e-05	8e-05	0.00017	0.00023	4e-05	2
5123	1e-05	0	0.00017	0.00012	-0.00026	-0.00035	-0.00013	0	2
5124	-4e-05	-4e-05	-0.00016	-0.00042	-0.00028	-0.00111	-0.00033	-6e-05	2
5125	-4e-05	-4e-05	-0.00016	-0.00042	-0.00028	-0.00111	-0.00033	-6e-05	2
5126	-4e-05	-4e-05	-0.00016	-0.00042	-0.00028	-0.00111	-0.00033	-6e-05	2
5127	-4e-05	-4e-05	-0.00016	-0.00042	-0.00028	-0.00111	-0.00033	-6e-05	2
5128	-4e-05	-4e-05	-0.00016	-0.00042	-0.00028	-0.00111	-0.00033	-6e-05	2
5129	-4e-05	-4e-05	-0.00016	-0.00042	-0.00028	-0.00111	-0.00033	-6e-05	2
5130	-4e-05	-4e-05	-0.00016	-0.00042	-0.00028	-0.00111	-0.00033	-6e-05	2
5131	-4e-05	-4e-05	-0.00016	-0.00042	-0.00028	-0.00111	-0.00033	-6e-05	2
5132	-4e-05	-4e-05	-0.00016	-0.00042	-0.00028	-0.00111	-0.00033	-6e-05	2
5133	-4e-05	-4e-05	-0.00016	-0.00042	-0.00028	-0.00111	-0.00033	-6e-05	2
5134	-4e-05	-4e-05	-0.00016	-0.00042	-0.00028	-0.00111	-0.00033	-6e-05	2
5135	-4e-05	-4e-05	-0.00016	-0.00042	-0.00028	-0.00111	-0.00033	-6e-05	2
5136	-4e-05	-4e-05	-0.00016	-0.00042	-0.00028	-0.00111	-0.00033	-6e-05	2
5138	-4e-05	-4e-05	-0.00016	-0.00042	-0.00028	-0.00111	-0.00033	-6e-05	2
5139	-4e-05	-4e-05	-0.00016	-0.00042	-0.00028	-0.00111	-0.00033	-6e-05	2
5140	-4e-05	-4e-05	-0.00016	-0.00042	-0.00028	-0.00111	-0.00033	-6e-05	2
5141	-4e-05	-4e-05	-0.00016	-0.00042	-0.00028	-0.00111	-0.00033	-6e-05	2
5142	-4e-05	-4e-05	-0.00016	-0.00042	-0.00028	-0.00111	-0.00033	-6e-05	2
5143	-4e-05	-4e-05	-0.00016	-0.00042	-0.00028	-0.00111	-0.00033	-6e-05	2
5144	-4e-05	-4e-05	-0.00016	-0.00042	-0.00028	-0.00111	-0.00033	-6e-05	2
5145	-4e-05	-4e-05	-0.00016	-0.00042	-0.00028	-0.00111	-0.00033	-6e-05	2
5146	3e-05	9e-05	5e-05	0.00015	0.00024	0.00018	6e-05	-1e-05	2
5147	2e-05	-8e-05	-0.00025	-0.00021	-6e-05	0.00023	0.0001	3e-05	2
5148	2e-05	-8e-05	-0.00025	-0.00021	-6e-05	0.00023	0.0001	3e-05	2
5149	2e-05	-8e-05	-0.00025	-0.00021	-6e-05	0.00023	0.0001	3e-05	2
5150	2e-05	-8e-05	-0.00025	-0.00021	-6e-05	0.00023	0.0001	3e-05	2
5151	2e-05	-8e-05	-0.00025	-0.00021	-6e-05	0.00023	0.0001	3e-05	2
5152	2e-05	-8e-05	-0.00025	-0.00021	-6e-05	0.00023	0.0001	3e-05	2
5153	2e-05	-8e-05	-0.00025	-0.00021	-6e-05	0.00023	0.0001	3e-05	2
5154	2e-05	-8e-05	-0.00025	-0.00021	-6e-05	0.00023	0.0001	3e-05	2
5155	2e-05	-8e-05	-0.00025	-0.00021	-6e-05	0.00023	0.0001	3e-05	2
5156	2e-05	-8e-05	-0.00025	-0.00021	-6e-05	0.00023	0.0001	3e-05	2
5157	2e-05	-8e-05	-0.00025	-0.00021	-6e-05	0.00023	0.0001	3e-05	2
5158	2e-05	-8e-05	-0.00025	-0.00021	-6e-05	0.00023	0.0001	3e-05	2
5159	2e-05	-8e-05	-0.00025	-0.00021	-6e-05	0.00023	0.0001	3e-05	2
5160	2e-05	-8e-05	-0.00025	-0.00021	-6e-05	0.00023	0.0001	3e-05	2
5161	2e-05	-8e-05	-0.00025	-0.00021	-6e-05	0.00023	0.0001	3e-05	2
5162	2e-05	-8e-05	-0.00025	-0.00021	-6e-05	0.00023	0.0001	3e-05	2
5163	2e-05	-8e-05	-0.00025	-0.00021	-6e-05	0.00023	0.0001	3e-05	2
5164	2e-05	-8e-05	-0.00025	-0.00021	-6e-05	0.00023	0.0001	3e-05	2
5165	2e-05	-8e-05	-0.00025	-0.00021	-6e-05	0.00023	0.0001	3e-05	2
5166	2e-05	-8e-05	-0.00025	-0.00021	-6e-05	0.00023	0.0001	3e-05	2
5167	2e-05	-8e-05	-0.00025	-0.00021	-6e-05	0.00023	0.0001	3e-05	2
5168	2e-05	-8e-05	-0.00025	-0.00021	-6e-05	0.00023	0.0001	3e-05	2
5169	2e-05	-8e-05	-0.00025	-0.00021	-6e-05	0.00023	0.0001	3e-05	2
5170	2e-05	-8e-05	-0.00025	-0.00021	-6e-05	0.00023	0.0001	3e-05	2
5171	2e-05	-8e-05	-0.00025	-0.00021	-6e-05	0.00023	0.0001	3e-05	2
5172	2e-05	-8e-05	-0.00025	-0.00021	-6e-05	0.00023	0.0001	3e-05	2
5173	2e-05	-8e-05	-0.00025	-0.00021	-6e-05	0.00023	0.0001	3e-05	2
5174	2e-05	-8e-05	-0.00025	-0.00021	-6e-05	0.00023	0.0001	3e-05	2
5175	2e-05	-8e-05	-0.00025	-0.00021	-6e-05	0.00023	0.0001	3e-05	2
5176	2e-05	-8e-05	-0.00025	-0.00021	-6e-05	0.00023	0.0001	3e-05	2
5177	2e-05	-8e-05	-0.00025	-0.00021	-6e-05	0.00023	0.0001	3e-05	2
5178	2e-05	-8e-05	-0.00025	-0.00021	-6e-05	0.00023	0.0001	3e-05	2
5179	2e-05	-8e-05	-0.00025	-0.00021	-6e-05	0.00023	0.0001	3e-05	2
5180	2e-05	-8e-05	-0.00025	-0.00021	-6e-05	0.00023	0.0001	3e-05	2
5181	2e-05	-8e-05	-0.00025	-0.00021	-6e-05	0.00023	0.0001	3e-05	2
5182	2e-05	-8e-05	-0.00025	-0.00021	-6e-05	0.00023	0.0001	3e-05	2
5183	2e-05	-8e-05	-0.00025	-0.00021	-6e-05	0.00023	0.0001	3e-05	2
5184	2e-05	-8e-05	-0.00025	-0.00021	-6e-05	0.00023	0.0001	3e-05	2
5185	-4e-05	-2e-05	3e-05	7e-05	-2e-05	-0.00011	-0.00012	-6e-05	2
5186	3e-05	0.00011	0.00028	0.00039	0.0002	0.00027	0.00032	2e-05	2
5188	-3e-05	-7e-05	-0.00013	-7e-05	7e-05	0.00024	0.00012	0	2
5189	-3e-05	-7e-05	-0.00013	-7e-05	7e-05	0.00024	0.00012	0	2
5190	-3e-05	-7e-05	-0.00013	-7e-05	7e-05	0.00024	0.00012	0	2
5191	-2e-05	-3e-05	0.00018	0.0001	-0.00025	-0.00076	-0.00028	-4e-05	2
5192	-2e-05	-3e-05	0.00018	0.0001	-0.00025	-0.00076	-0.00028	-4e-05	2
5193	-2e-05	-3e-05	0.00018	0.0001	-0.00025	-0.00076	-0.00028	-4e-05	2
5194	-2e-05	-3e-05	0.00018	0.0001	-0.00025	-0.00076	-0.00028	-4e-05	2
5195	-2e-05	-3e-05	0.00018	0.0001	-0.00025	-0.00076	-0.00028	-4e-05	2
5196	-2e-05	-3e-05	0.00018	0.0001	-0.00025	-0.00076	-0.00028	-4e-05	2
5197	-2e-05	-3e-05	0.00018	0.0001	-0.00025	-0.00076	-0.00028	-4e-05	2
5198	-2e-05	-3e-05	0.00018	0.0001	-0.00025	-0.00076	-0.00028	-4e-05	2
5199	-2e-05	-3e-05	0.00018	0.0001	-0.00025	-0.00076	-0.00028	-4e-05	2
5200	-2e-05	-3e-05	0.00018	0.0001	-0.00025	-0.00076	-0.00028	-4e-05	2
5201	-2e-05	-3e-05	0.00018	0.0001	-0.00025	-0.00076	-0.00028	-4e-05	2
5202	-2e-05	-3e-05	0.00018	0.0001	-0.00025	-0.00076	-0.00028	-4e-05	2
5203	-2e-05	-3e-05	0.00018	0.0001	-0.00025	-0.00076	-0.00028	-4e-05	2
5204	-2e-05	-3e-05	0.00018	0.0001	-0.00025	-0.00076	-0.00028	-4e-05	2
5205	-2e-05	-3e-05	0.00018	0.0001	-0.00025	-0.00076	-0.00028	-4e-05	2
5206	-3e-05	-0.00011	-0.00043	-2e-05	6e-05	7e-05	-0.00014	-5e-05	2
5207	-8e-05	-6e-05	-2e-05	-4e-05	-3e-05	-0.00032	-0.00031	-0.00011	2
5208	-8e-05	-6e-05	-2e-05	-4e-05	-3e-05	-0.00032	-0.00031	-0.00011	2
5209	-8e-05	-6e-05	-2e-05	-4e-05	-3e-05	-0.00032	-0.00031	-0.00011	2
5210	-8e-05	-6e-05	-2e-05	-4e-05	-3e-05	-0.00032	-0.00031	-0.00011	2
5211	-8e-05	-6e-05	-2e-05	-4e-05	-3e-05	-0.00032	-0.00031	-0.00011	2
5212	-8e-05	-6e-05	-2e-05	-4e-05	-3e-05	-0.00032	-0.00031	-0.00011	2
5213	-8e-05	-6e-05	-2e-05	-4e-05	-3e-05	-0.00032	-0.00031	-0.00011	2
5214	-8e-05	-6e-05	-2e-05	-4e-05	-3e-05	-0.00032	-0.00031	-0.00011	2
5215	-8e-05	-6e-05	-2e-05	-4e-05	-3e-05	-0.00032	-0.00031	-0.00011	2
5216	-8e-05	-6e-05	-2e-05	-4e-05	-3e-05	-0.00032	-0.00031	-0.00011	2
5217	-8e-05	-6e-05	-2e-05	-4e-05	-3e-05	-0.00032	-0.00031	-0.00011	2
5218	-8e-05	-6e-05	-2e-05	-4e-05	-3e-05	-0.00032	-0.00031	-0.00011	2
5219	-8e-05	-6e-05	-2e-05	-4e-05	-3e-05	-0.00032	-0.00031	-0.00011	2
5220	-8e-05	-6e-05	-2e-05	-4e-05	-3e-05	-0.00032	-0.00031	-0.00011	2
5221	-8e-05	-6e-05	-2e-05	-4e-05	-3e-05	-0.00032	-0.00031	-0.00011	2
5222	-8e-05	-6e-05	-2e-05	-4e-05	-3e-05	-0.00032	-0.00031	-0.00011	2
5223	-8e-05	-6e-05	-2e-05	-4e-05	-3e-05	-0.00032	-0.00031	-0.00011	2
5224	-8e-05	-6e-05	-2e-05	-4e-05	-3e-05	-0.00032	-0.00031	-0.00011	2
5225	-8e-05	-6e-05	-2e-05	-4e-05	-3e-05	-0.00032	-0.00031	-0.00011	2
5226	-8e-05	-6e-05	-2e-05	-4e-05	-3e-05	-0.00032	-0.00031	-0.00011	2
5227	-8e-05	-6e-05	-2e-05	-4e-05	-3e-05	-0.00032	-0.00031	-0.00011	2
5228	-8e-05	-6e-05	-2e-05	-4e-05	-3e-05	-0.00032	-0.00031	-0.00011	2
5229	2e-05	2e-05	-6e-05	-0.00016	-6e-05	9e-05	-7e-05	-3e-05	2
5230	2e-05	2e-05	-6e-05	-0.00016	-6e-05	9e-05	-7e-05	-3e-05	2
5231	2e-05	2e-05	-6e-05	-0.00016	-6e-05	9e-05	-7e-05	-3e-05	2
5232	2e-05	2e-05	-6e-05	-0.00016	-6e-05	9e-05	-7e-05	-3e-05	2
5233	2e-05	2e-05	-6e-05	-0.00016	-6e-05	9e-05	-7e-05	-3e-05	2
5234	2e-05	2e-05	-6e-05	-0.00016	-6e-05	9e-05	-7e-05	-3e-05	2
5235	2e-05	2e-05	-6e-05	-0.00016	-6e-05	9e-05	-7e-05	-3e-05	2
5236	2e-05	2e-05	-6e-05	-0.00016	-6e-05	9e-05	-7e-05	-3e-05	2
5238	2e-05	2e-05	-6e-05	-0.00016	-6e-05	9e-05	-7e-05	-3e-05	2
5239	2e-05	2e-05	-6e-05	-0.00016	-6e-05	9e-05	-7e-05	-3e-05	2
5240	2e-05	2e-05	-6e-05	-0.00016	-6e-05	9e-05	-7e-05	-3e-05	2
5241	2e-05	2e-05	-6e-05	-0.00016	-6e-05	9e-05	-7e-05	-3e-05	2
5242	2e-05	2e-05	-6e-05	-0.00016	-6e-05	9e-05	-7e-05	-3e-05	2
5243	-4e-05	0	7e-05	-0.0001	-0.00017	-0.00043	-0.00011	-5e-05	2
5244	-1e-05	4e-05	0.00012	0.00021	-0.00014	-0.00056	3e-05	-5e-05	2
5245	-1e-05	4e-05	0.00012	0.00021	-0.00014	-0.00056	3e-05	-5e-05	2
5246	-1e-05	4e-05	0.00012	0.00021	-0.00014	-0.00056	3e-05	-5e-05	2
5247	-1e-05	4e-05	0.00012	0.00021	-0.00014	-0.00056	3e-05	-5e-05	2
5248	-1e-05	4e-05	0.00012	0.00021	-0.00014	-0.00056	3e-05	-5e-05	2
5249	-1e-05	4e-05	0.00012	0.00021	-0.00014	-0.00056	3e-05	-5e-05	2
5250	-1e-05	4e-05	0.00012	0.00021	-0.00014	-0.00056	3e-05	-5e-05	2
5251	-1e-05	4e-05	0.00012	0.00021	-0.00014	-0.00056	3e-05	-5e-05	2
5252	-1e-05	4e-05	0.00012	0.00021	-0.00014	-0.00056	3e-05	-5e-05	2
5253	-1e-05	4e-05	0.00012	0.00021	-0.00014	-0.00056	3e-05	-5e-05	2
5254	-1e-05	4e-05	0.00012	0.00021	-0.00014	-0.00056	3e-05	-5e-05	2
5255	-1e-05	4e-05	0.00012	0.00021	-0.00014	-0.00056	3e-05	-5e-05	2
5256	-1e-05	4e-05	0.00012	0.00021	-0.00014	-0.00056	3e-05	-5e-05	2
5257	-1e-05	4e-05	0.00012	0.00021	-0.00014	-0.00056	3e-05	-5e-05	2
5258	-1e-05	4e-05	0.00012	0.00021	-0.00014	-0.00056	3e-05	-5e-05	2
5259	-1e-05	4e-05	0.00012	0.00021	-0.00014	-0.00056	3e-05	-5e-05	2
5260	-1e-05	4e-05	0.00012	0.00021	-0.00014	-0.00056	3e-05	-5e-05	2
5261	-1e-05	4e-05	0.00012	0.00021	-0.00014	-0.00056	3e-05	-5e-05	2
5262	-1e-05	4e-05	0.00012	0.00021	-0.00014	-0.00056	3e-05	-5e-05	2
5263	-1e-05	4e-05	0.00012	0.00021	-0.00014	-0.00056	3e-05	-5e-05	2
5264	-1e-05	4e-05	0.00012	0.00021	-0.00014	-0.00056	3e-05	-5e-05	2
5265	-1e-05	4e-05	0.00012	0.00021	-0.00014	-0.00056	3e-05	-5e-05	2
5266	-1e-05	4e-05	0.00012	0.00021	-0.00014	-0.00056	3e-05	-5e-05	2
5267	6e-05	6e-05	0.0001	-5e-05	6e-05	0.00027	5e-05	7e-05	2
5268	6e-05	6e-05	0.0001	-5e-05	6e-05	0.00027	5e-05	7e-05	2
5269	6e-05	6e-05	0.0001	-5e-05	6e-05	0.00027	5e-05	7e-05	2
5270	6e-05	6e-05	0.0001	-5e-05	6e-05	0.00027	5e-05	7e-05	2
5271	6e-05	6e-05	0.0001	-5e-05	6e-05	0.00027	5e-05	7e-05	2
5272	6e-05	6e-05	0.0001	-5e-05	6e-05	0.00027	5e-05	7e-05	2
5273	0	-2e-05	7e-05	6e-05	-8e-05	-0.00027	-4e-05	-1e-05	2
5274	0	-2e-05	7e-05	6e-05	-8e-05	-0.00027	-4e-05	-1e-05	2
5275	0	-2e-05	7e-05	6e-05	-8e-05	-0.00027	-4e-05	-1e-05	2
5276	0	-2e-05	7e-05	6e-05	-8e-05	-0.00027	-4e-05	-1e-05	2
5277	0	-2e-05	7e-05	6e-05	-8e-05	-0.00027	-4e-05	-1e-05	2
5278	0	-2e-05	7e-05	6e-05	-8e-05	-0.00027	-4e-05	-1e-05	2
5279	0	-2e-05	7e-05	6e-05	-8e-05	-0.00027	-4e-05	-1e-05	2
5280	0	-2e-05	7e-05	6e-05	-8e-05	-0.00027	-4e-05	-1e-05	2
5281	0	-2e-05	7e-05	6e-05	-8e-05	-0.00027	-4e-05	-1e-05	2
5282	0	-2e-05	7e-05	6e-05	-8e-05	-0.00027	-4e-05	-1e-05	2
5283	0	-2e-05	7e-05	6e-05	-8e-05	-0.00027	-4e-05	-1e-05	2
5284	0	-2e-05	7e-05	6e-05	-8e-05	-0.00027	-4e-05	-1e-05	2
5285	0	-2e-05	7e-05	6e-05	-8e-05	-0.00027	-4e-05	-1e-05	2
5286	0	-2e-05	7e-05	6e-05	-8e-05	-0.00027	-4e-05	-1e-05	2
5288	0	-2e-05	7e-05	6e-05	-8e-05	-0.00027	-4e-05	-1e-05	2
5289	6e-05	0	3e-05	-0.00025	-4e-05	0.00033	0.00032	3e-05	2
5290	-5e-05	-1e-05	-0.00024	-0.00022	-9e-05	6e-05	0.0001	3e-05	2
5291	-5e-05	-1e-05	-0.00024	-0.00022	-9e-05	6e-05	0.0001	3e-05	2
5292	-5e-05	-1e-05	-0.00024	-0.00022	-9e-05	6e-05	0.0001	3e-05	2
5293	-5e-05	-1e-05	-0.00024	-0.00022	-9e-05	6e-05	0.0001	3e-05	2
5294	-5e-05	-1e-05	-0.00024	-0.00022	-9e-05	6e-05	0.0001	3e-05	2
5295	-5e-05	-1e-05	-0.00024	-0.00022	-9e-05	6e-05	0.0001	3e-05	2
5296	-5e-05	-1e-05	-0.00024	-0.00022	-9e-05	6e-05	0.0001	3e-05	2
5297	-5e-05	-1e-05	-0.00024	-0.00022	-9e-05	6e-05	0.0001	3e-05	2
5298	-5e-05	-1e-05	-0.00024	-0.00022	-9e-05	6e-05	0.0001	3e-05	2
5299	-5e-05	-1e-05	-0.00024	-0.00022	-9e-05	6e-05	0.0001	3e-05	2
5300	-5e-05	-1e-05	-0.00024	-0.00022	-9e-05	6e-05	0.0001	3e-05	2
5301	-5e-05	-1e-05	-0.00024	-0.00022	-9e-05	6e-05	0.0001	3e-05	2
5302	-5e-05	-1e-05	-0.00024	-0.00022	-9e-05	6e-05	0.0001	3e-05	2
5303	3e-05	-1e-05	4e-05	5e-05	0.00015	1e-05	-7e-05	3e-05	2
5304	-2e-05	1e-05	9e-05	0.00011	-1e-05	0.00032	0.00011	-3e-05	2
5305	-2e-05	1e-05	9e-05	0.00011	-1e-05	0.00032	0.00011	-3e-05	2
5306	-2e-05	1e-05	9e-05	0.00011	-1e-05	0.00032	0.00011	-3e-05	2
5307	-2e-05	1e-05	9e-05	0.00011	-1e-05	0.00032	0.00011	-3e-05	2
5308	-2e-05	1e-05	9e-05	0.00011	-1e-05	0.00032	0.00011	-3e-05	2
5309	-2e-05	1e-05	9e-05	0.00011	-1e-05	0.00032	0.00011	-3e-05	2
5310	-2e-05	1e-05	9e-05	0.00011	-1e-05	0.00032	0.00011	-3e-05	2
5311	-2e-05	1e-05	9e-05	0.00011	-1e-05	0.00032	0.00011	-3e-05	2
5312	-2e-05	1e-05	9e-05	0.00011	-1e-05	0.00032	0.00011	-3e-05	2
5313	-2e-05	1e-05	9e-05	0.00011	-1e-05	0.00032	0.00011	-3e-05	2
5314	-2e-05	1e-05	9e-05	0.00011	-1e-05	0.00032	0.00011	-3e-05	2
5315	-2e-05	1e-05	9e-05	0.00011	-1e-05	0.00032	0.00011	-3e-05	2
5316	-2e-05	1e-05	9e-05	0.00011	-1e-05	0.00032	0.00011	-3e-05	2
5317	-2e-05	1e-05	9e-05	0.00011	-1e-05	0.00032	0.00011	-3e-05	2
5318	-2e-05	1e-05	9e-05	0.00011	-1e-05	0.00032	0.00011	-3e-05	2
5319	-2e-05	1e-05	9e-05	0.00011	-1e-05	0.00032	0.00011	-3e-05	2
5320	-2e-05	1e-05	9e-05	0.00011	-1e-05	0.00032	0.00011	-3e-05	2
5321	-2e-05	1e-05	9e-05	0.00011	-1e-05	0.00032	0.00011	-3e-05	2
5322	-2e-05	1e-05	9e-05	0.00011	-1e-05	0.00032	0.00011	-3e-05	2
5323	-2e-05	1e-05	9e-05	0.00011	-1e-05	0.00032	0.00011	-3e-05	2
5324	-2e-05	1e-05	9e-05	0.00011	-1e-05	0.00032	0.00011	-3e-05	2
5325	-2e-05	1e-05	9e-05	0.00011	-1e-05	0.00032	0.00011	-3e-05	2
5326	-2e-05	1e-05	9e-05	0.00011	-1e-05	0.00032	0.00011	-3e-05	2
5327	-2e-05	0	5e-05	6e-05	7e-05	2e-05	-2e-05	-6e-05	2
5328	-2e-05	0	5e-05	6e-05	7e-05	2e-05	-2e-05	-6e-05	2
5330	-2e-05	0	5e-05	6e-05	7e-05	2e-05	-2e-05	-6e-05	2
5331	-2e-05	0	5e-05	6e-05	7e-05	2e-05	-2e-05	-6e-05	2
5332	-2e-05	0	5e-05	6e-05	7e-05	2e-05	-2e-05	-6e-05	2
5333	-2e-05	0	5e-05	6e-05	7e-05	2e-05	-2e-05	-6e-05	2
5334	-2e-05	0	5e-05	6e-05	7e-05	2e-05	-2e-05	-6e-05	2
5335	-2e-05	0	5e-05	6e-05	7e-05	2e-05	-2e-05	-6e-05	2
5336	-2e-05	0	5e-05	6e-05	7e-05	2e-05	-2e-05	-6e-05	2
5338	-2e-05	0	5e-05	6e-05	7e-05	2e-05	-2e-05	-6e-05	2
5339	-2e-05	0	5e-05	6e-05	7e-05	2e-05	-2e-05	-6e-05	2
5340	-2e-05	0	5e-05	6e-05	7e-05	2e-05	-2e-05	-6e-05	2
5341	-2e-05	0	5e-05	6e-05	7e-05	2e-05	-2e-05	-6e-05	2
5342	-2e-05	0	5e-05	6e-05	7e-05	2e-05	-2e-05	-6e-05	2
5343	-2e-05	0	5e-05	6e-05	7e-05	2e-05	-2e-05	-6e-05	2
5344	-2e-05	0	5e-05	6e-05	7e-05	2e-05	-2e-05	-6e-05	2
5345	-2e-05	0	5e-05	6e-05	7e-05	2e-05	-2e-05	-6e-05	2
5346	-2e-05	0	5e-05	6e-05	7e-05	2e-05	-2e-05	-6e-05	2
5347	-2e-05	0	5e-05	6e-05	7e-05	2e-05	-2e-05	-6e-05	2
5348	-2e-05	0	5e-05	6e-05	7e-05	2e-05	-2e-05	-6e-05	2
5349	-6e-05	-0.00012	-0.00037	-0.00013	2e-05	0.00012	-1e-05	-1e-05	2
5350	-5e-05	-1e-05	0.00022	5e-05	-0.00017	-0.00025	-0.00022	-1e-05	2
5351	-5e-05	-1e-05	0.00022	5e-05	-0.00017	-0.00025	-0.00022	-1e-05	2
5352	-5e-05	-1e-05	0.00022	5e-05	-0.00017	-0.00025	-0.00022	-1e-05	2
5353	-5e-05	-1e-05	0.00022	5e-05	-0.00017	-0.00025	-0.00022	-1e-05	2
5354	-5e-05	-1e-05	0.00022	5e-05	-0.00017	-0.00025	-0.00022	-1e-05	2
5355	-5e-05	-1e-05	0.00022	5e-05	-0.00017	-0.00025	-0.00022	-1e-05	2
5356	-5e-05	-1e-05	0.00022	5e-05	-0.00017	-0.00025	-0.00022	-1e-05	2
5357	-5e-05	-1e-05	0.00022	5e-05	-0.00017	-0.00025	-0.00022	-1e-05	2
5358	-5e-05	-1e-05	0.00022	5e-05	-0.00017	-0.00025	-0.00022	-1e-05	2
5359	-5e-05	-1e-05	0.00022	5e-05	-0.00017	-0.00025	-0.00022	-1e-05	2
5360	-5e-05	-1e-05	0.00022	5e-05	-0.00017	-0.00025	-0.00022	-1e-05	2
5361	-5e-05	-1e-05	0.00022	5e-05	-0.00017	-0.00025	-0.00022	-1e-05	2
5362	-5e-05	-1e-05	0.00022	5e-05	-0.00017	-0.00025	-0.00022	-1e-05	2
5363	-6e-05	-3e-05	-1e-05	0.00012	0.00017	0.00032	-4e-05	-1e-05	2
5364	2e-05	-5e-05	-1e-05	8e-05	0.00013	0.00015	-3e-05	2e-05	2
5365	2e-05	-5e-05	-1e-05	8e-05	0.00013	0.00015	-3e-05	2e-05	2
5366	2e-05	-5e-05	-1e-05	8e-05	0.00013	0.00015	-3e-05	2e-05	2
5367	2e-05	-5e-05	-1e-05	8e-05	0.00013	0.00015	-3e-05	2e-05	2
5368	2e-05	-5e-05	-1e-05	8e-05	0.00013	0.00015	-3e-05	2e-05	2
5369	2e-05	-5e-05	-1e-05	8e-05	0.00013	0.00015	-3e-05	2e-05	2
5370	2e-05	-5e-05	-1e-05	8e-05	0.00013	0.00015	-3e-05	2e-05	2
5371	2e-05	-5e-05	-1e-05	8e-05	0.00013	0.00015	-3e-05	2e-05	2
5372	2e-05	-5e-05	-1e-05	8e-05	0.00013	0.00015	-3e-05	2e-05	2
5373	2e-05	-5e-05	-1e-05	8e-05	0.00013	0.00015	-3e-05	2e-05	2
5374	2e-05	-5e-05	-1e-05	8e-05	0.00013	0.00015	-3e-05	2e-05	2
5375	2e-05	-5e-05	-1e-05	8e-05	0.00013	0.00015	-3e-05	2e-05	2
5376	2e-05	-5e-05	-1e-05	8e-05	0.00013	0.00015	-3e-05	2e-05	2
5377	2e-05	-5e-05	-1e-05	8e-05	0.00013	0.00015	-3e-05	2e-05	2
5378	2e-05	-5e-05	-1e-05	8e-05	0.00013	0.00015	-3e-05	2e-05	2
5379	2e-05	-5e-05	-1e-05	8e-05	0.00013	0.00015	-3e-05	2e-05	2
5380	2e-05	-5e-05	-1e-05	8e-05	0.00013	0.00015	-3e-05	2e-05	2
5381	2e-05	-5e-05	-1e-05	8e-05	0.00013	0.00015	-3e-05	2e-05	2
5382	2e-05	-5e-05	-1e-05	8e-05	0.00013	0.00015	-3e-05	2e-05	2
5383	2e-05	-5e-05	-1e-05	8e-05	0.00013	0.00015	-3e-05	2e-05	2
5384	2e-05	-5e-05	-1e-05	8e-05	0.00013	0.00015	-3e-05	2e-05	2
5385	2e-05	-5e-05	-1e-05	8e-05	0.00013	0.00015	-3e-05	2e-05	2
5386	2e-05	-5e-05	-1e-05	8e-05	0.00013	0.00015	-3e-05	2e-05	2
5388	2e-05	-1e-05	-1e-05	0.00014	0.0001	-0.00037	3e-05	6e-05	2
5389	2e-05	-1e-05	-1e-05	0.00014	0.0001	-0.00037	3e-05	6e-05	2
5390	2e-05	-1e-05	-1e-05	0.00014	0.0001	-0.00037	3e-05	6e-05	2
5391	2e-05	-1e-05	-1e-05	0.00014	0.0001	-0.00037	3e-05	6e-05	2
5392	2e-05	-1e-05	-1e-05	0.00014	0.0001	-0.00037	3e-05	6e-05	2
5393	2e-05	-1e-05	-1e-05	0.00014	0.0001	-0.00037	3e-05	6e-05	2
5394	2e-05	-1e-05	-1e-05	0.00014	0.0001	-0.00037	3e-05	6e-05	2
5395	2e-05	-1e-05	-1e-05	0.00014	0.0001	-0.00037	3e-05	6e-05	2
5396	2e-05	-1e-05	-1e-05	0.00014	0.0001	-0.00037	3e-05	6e-05	2
5397	2e-05	-1e-05	-1e-05	0.00014	0.0001	-0.00037	3e-05	6e-05	2
5398	2e-05	-1e-05	-1e-05	0.00014	0.0001	-0.00037	3e-05	6e-05	2
5399	2e-05	-1e-05	-1e-05	0.00014	0.0001	-0.00037	3e-05	6e-05	2
5400	2e-05	-1e-05	-1e-05	0.00014	0.0001	-0.00037	3e-05	6e-05	2
5401	2e-05	-1e-05	-1e-05	0.00014	0.0001	-0.00037	3e-05	6e-05	2
5402	2e-05	-1e-05	-1e-05	0.00014	0.0001	-0.00037	3e-05	6e-05	2
5403	2e-05	-1e-05	-1e-05	0.00014	0.0001	-0.00037	3e-05	6e-05	2
5404	2e-05	-1e-05	-1e-05	0.00014	0.0001	-0.00037	3e-05	6e-05	2
5405	2e-05	-1e-05	-1e-05	0.00014	0.0001	-0.00037	3e-05	6e-05	2
5406	2e-05	-1e-05	-1e-05	0.00014	0.0001	-0.00037	3e-05	6e-05	2
5407	2e-05	-1e-05	-1e-05	0.00014	0.0001	-0.00037	3e-05	6e-05	2
5408	2e-05	-1e-05	-1e-05	0.00014	0.0001	-0.00037	3e-05	6e-05	2
5409	2e-05	-1e-05	-1e-05	0.00014	0.0001	-0.00037	3e-05	6e-05	2
5410	2e-05	-1e-05	-1e-05	0.00014	0.0001	-0.00037	3e-05	6e-05	2
5411	2e-05	-1e-05	-1e-05	0.00014	0.0001	-0.00037	3e-05	6e-05	2
5412	2e-05	-1e-05	-1e-05	0.00014	0.0001	-0.00037	3e-05	6e-05	2
5413	2e-05	-1e-05	-1e-05	0.00014	0.0001	-0.00037	3e-05	6e-05	2
5414	2e-05	-1e-05	-1e-05	0.00014	0.0001	-0.00037	3e-05	6e-05	2
5415	2e-05	-1e-05	-1e-05	0.00014	0.0001	-0.00037	3e-05	6e-05	2
5416	2e-05	-1e-05	-1e-05	0.00014	0.0001	-0.00037	3e-05	6e-05	2
5417	2e-05	-1e-05	-2e-05	2e-05	7e-05	0.0003	9e-05	1e-05	2
5418	2e-05	-1e-05	-2e-05	2e-05	7e-05	0.0003	9e-05	1e-05	2
5419	2e-05	-1e-05	-2e-05	2e-05	7e-05	0.0003	9e-05	1e-05	2
5420	2e-05	-1e-05	-2e-05	2e-05	7e-05	0.0003	9e-05	1e-05	2
5421	2e-05	-1e-05	-2e-05	2e-05	7e-05	0.0003	9e-05	1e-05	2
5422	2e-05	-1e-05	-2e-05	2e-05	7e-05	0.0003	9e-05	1e-05	2
5423	-2e-05	-1e-05	2e-05	-0.00013	-0.00012	0.00035	1e-05	-4e-05	2
5424	5e-05	1e-05	-4e-05	-0.00026	-0.00019	-0.00061	-8e-05	-7e-05	2
5425	5e-05	1e-05	-4e-05	-0.00026	-0.00019	-0.00061	-8e-05	-7e-05	2
5426	5e-05	1e-05	-4e-05	-0.00026	-0.00019	-0.00061	-8e-05	-7e-05	2
5427	5e-05	1e-05	-4e-05	-0.00026	-0.00019	-0.00061	-8e-05	-7e-05	2
5428	5e-05	1e-05	-4e-05	-0.00026	-0.00019	-0.00061	-8e-05	-7e-05	2
5429	5e-05	1e-05	-4e-05	-0.00026	-0.00019	-0.00061	-8e-05	-7e-05	2
5430	5e-05	1e-05	-4e-05	-0.00026	-0.00019	-0.00061	-8e-05	-7e-05	2
5431	5e-05	1e-05	-4e-05	-0.00026	-0.00019	-0.00061	-8e-05	-7e-05	2
5432	5e-05	1e-05	-4e-05	-0.00026	-0.00019	-0.00061	-8e-05	-7e-05	2
5433	5e-05	1e-05	-4e-05	-0.00026	-0.00019	-0.00061	-8e-05	-7e-05	2
5434	5e-05	1e-05	-4e-05	-0.00026	-0.00019	-0.00061	-8e-05	-7e-05	2
5435	5e-05	1e-05	-4e-05	-0.00026	-0.00019	-0.00061	-8e-05	-7e-05	2
5436	5e-05	1e-05	-4e-05	-0.00026	-0.00019	-0.00061	-8e-05	-7e-05	2
5438	5e-05	1e-05	-4e-05	-0.00026	-0.00019	-0.00061	-8e-05	-7e-05	2
5439	5e-05	1e-05	-4e-05	-0.00026	-0.00019	-0.00061	-8e-05	-7e-05	2
5440	5e-05	1e-05	-4e-05	-0.00026	-0.00019	-0.00061	-8e-05	-7e-05	2
5441	5e-05	1e-05	-4e-05	-0.00026	-0.00019	-0.00061	-8e-05	-7e-05	2
5442	5e-05	1e-05	-4e-05	-0.00026	-0.00019	-0.00061	-8e-05	-7e-05	2
5443	5e-05	1e-05	-4e-05	-0.00026	-0.00019	-0.00061	-8e-05	-7e-05	2
5444	5e-05	1e-05	-4e-05	-0.00026	-0.00019	-0.00061	-8e-05	-7e-05	2
5445	5e-05	1e-05	-4e-05	-0.00026	-0.00019	-0.00061	-8e-05	-7e-05	2
5446	5e-05	1e-05	-4e-05	-0.00026	-0.00019	-0.00061	-8e-05	-7e-05	2
5447	1e-05	-8e-05	-0.00023	-0.0001	6e-05	7e-05	0.00014	4e-05	2
5449	1e-05	-8e-05	-0.00023	-0.0001	6e-05	7e-05	0.00014	4e-05	2
5450	1e-05	-8e-05	-0.00023	-0.0001	6e-05	7e-05	0.00014	4e-05	2
5451	1e-05	-8e-05	-0.00023	-0.0001	6e-05	7e-05	0.00014	4e-05	2
5452	1e-05	-8e-05	-0.00023	-0.0001	6e-05	7e-05	0.00014	4e-05	2
5453	1e-05	-8e-05	-0.00023	-0.0001	6e-05	7e-05	0.00014	4e-05	2
5454	1e-05	-8e-05	-0.00023	-0.0001	6e-05	7e-05	0.00014	4e-05	2
5455	1e-05	-8e-05	-0.00023	-0.0001	6e-05	7e-05	0.00014	4e-05	2
5456	1e-05	-8e-05	-0.00023	-0.0001	6e-05	7e-05	0.00014	4e-05	2
5457	1e-05	-8e-05	-0.00023	-0.0001	6e-05	7e-05	0.00014	4e-05	2
5458	1e-05	-8e-05	-0.00023	-0.0001	6e-05	7e-05	0.00014	4e-05	2
5459	1e-05	-8e-05	-0.00023	-0.0001	6e-05	7e-05	0.00014	4e-05	2
5460	2e-05	2e-05	1e-05	-7e-05	0.00016	0.00016	0.00017	2e-05	2
5461	2e-05	2e-05	1e-05	-7e-05	0.00016	0.00016	0.00017	2e-05	2
5462	2e-05	2e-05	1e-05	-7e-05	0.00016	0.00016	0.00017	2e-05	2
5463	2e-05	2e-05	1e-05	-7e-05	0.00016	0.00016	0.00017	2e-05	2
5464	2e-05	2e-05	1e-05	-7e-05	0.00016	0.00016	0.00017	2e-05	2
5465	2e-05	2e-05	1e-05	-7e-05	0.00016	0.00016	0.00017	2e-05	2
5466	2e-05	2e-05	1e-05	-7e-05	0.00016	0.00016	0.00017	2e-05	2
5467	2e-05	2e-05	1e-05	-7e-05	0.00016	0.00016	0.00017	2e-05	2
5468	2e-05	2e-05	1e-05	-7e-05	0.00016	0.00016	0.00017	2e-05	2
5469	-3e-05	-5e-05	-0.00014	4e-05	-8e-05	-0.00044	-5e-05	-6e-05	2
5470	0	-7e-05	-0.00017	9e-05	7e-05	0.00048	3e-05	3e-05	2
5471	0	-7e-05	-0.00017	9e-05	7e-05	0.00048	3e-05	3e-05	2
5472	0	-7e-05	-0.00017	9e-05	7e-05	0.00048	3e-05	3e-05	2
5473	0	-7e-05	-0.00017	9e-05	7e-05	0.00048	3e-05	3e-05	2
5474	0	-7e-05	-0.00017	9e-05	7e-05	0.00048	3e-05	3e-05	2
5475	0	-7e-05	-0.00017	9e-05	7e-05	0.00048	3e-05	3e-05	2
5476	0	-7e-05	-0.00017	9e-05	7e-05	0.00048	3e-05	3e-05	2
5477	0	-7e-05	-0.00017	9e-05	7e-05	0.00048	3e-05	3e-05	2
5478	0	-7e-05	-0.00017	9e-05	7e-05	0.00048	3e-05	3e-05	2
5479	0	-7e-05	-0.00017	9e-05	7e-05	0.00048	3e-05	3e-05	2
5480	0	-7e-05	-0.00017	9e-05	7e-05	0.00048	3e-05	3e-05	2
5481	0	-7e-05	-0.00017	9e-05	7e-05	0.00048	3e-05	3e-05	2
5482	-4e-05	1e-05	0.0002	0.00021	6e-05	6e-05	-0.00018	-1e-05	2
5483	1e-05	1e-05	-0.00021	-0.00036	4e-05	-0.00028	-0.00014	-2e-05	2
5484	1e-05	1e-05	-0.00021	-0.00036	4e-05	-0.00028	-0.00014	-2e-05	2
5485	1e-05	1e-05	-0.00021	-0.00036	4e-05	-0.00028	-0.00014	-2e-05	2
5486	1e-05	1e-05	-0.00021	-0.00036	4e-05	-0.00028	-0.00014	-2e-05	2
5488	1e-05	1e-05	-0.00021	-0.00036	4e-05	-0.00028	-0.00014	-2e-05	2
5489	1e-05	1e-05	-0.00021	-0.00036	4e-05	-0.00028	-0.00014	-2e-05	2
5490	1e-05	1e-05	-0.00021	-0.00036	4e-05	-0.00028	-0.00014	-2e-05	2
5491	1e-05	5e-05	0	-3e-05	1e-05	-8e-05	4e-05	2e-05	2
5492	1e-05	5e-05	0	-3e-05	1e-05	-8e-05	4e-05	2e-05	2
5493	1e-05	5e-05	0	-3e-05	1e-05	-8e-05	4e-05	2e-05	2
5494	1e-05	5e-05	0	-3e-05	1e-05	-8e-05	4e-05	2e-05	2
5495	1e-05	5e-05	0	-3e-05	1e-05	-8e-05	4e-05	2e-05	2
5496	1e-05	5e-05	0	-3e-05	1e-05	-8e-05	4e-05	2e-05	2
5497	1e-05	5e-05	0	-3e-05	1e-05	-8e-05	4e-05	2e-05	2
5498	1e-05	5e-05	0	-3e-05	1e-05	-8e-05	4e-05	2e-05	2
5499	1e-05	5e-05	0	-3e-05	1e-05	-8e-05	4e-05	2e-05	2
5500	1e-05	5e-05	0	-3e-05	1e-05	-8e-05	4e-05	2e-05	2
5501	1e-05	5e-05	0	-3e-05	1e-05	-8e-05	4e-05	2e-05	2
5502	1e-05	5e-05	0	-3e-05	1e-05	-8e-05	4e-05	2e-05	2
5503	1e-05	5e-05	0	-3e-05	1e-05	-8e-05	4e-05	2e-05	2
5504	1e-05	5e-05	0	-3e-05	1e-05	-8e-05	4e-05	2e-05	2
5505	1e-05	5e-05	0	-3e-05	1e-05	-8e-05	4e-05	2e-05	2
5506	1e-05	5e-05	0	-3e-05	1e-05	-8e-05	4e-05	2e-05	2
5507	4e-05	0.00011	0.00018	1e-05	0.00019	-1e-05	7e-05	5e-05	2
5508	-0.00011	-7e-05	-7e-05	6e-05	-6e-05	-0.00027	4e-05	-2e-05	2
5509	-0.00011	-7e-05	-7e-05	6e-05	-6e-05	-0.00027	4e-05	-2e-05	2
5510	-0.00011	-7e-05	-7e-05	6e-05	-6e-05	-0.00027	4e-05	-2e-05	2
5511	-0.00011	-7e-05	-7e-05	6e-05	-6e-05	-0.00027	4e-05	-2e-05	2
5512	-0.00011	-7e-05	-7e-05	6e-05	-6e-05	-0.00027	4e-05	-2e-05	2
5513	-0.00011	-7e-05	-7e-05	6e-05	-6e-05	-0.00027	4e-05	-2e-05	2
5514	-0.00011	-7e-05	-7e-05	6e-05	-6e-05	-0.00027	4e-05	-2e-05	2
5515	-0.00011	-7e-05	-7e-05	6e-05	-6e-05	-0.00027	4e-05	-2e-05	2
5516	-0.00011	-7e-05	-7e-05	6e-05	-6e-05	-0.00027	4e-05	-2e-05	2
5517	-0.00011	-7e-05	-7e-05	6e-05	-6e-05	-0.00027	4e-05	-2e-05	2
5518	-0.00011	-7e-05	-7e-05	6e-05	-6e-05	-0.00027	4e-05	-2e-05	2
5519	-0.00011	-7e-05	-7e-05	6e-05	-6e-05	-0.00027	4e-05	-2e-05	2
5520	-0.00011	-7e-05	-7e-05	6e-05	-6e-05	-0.00027	4e-05	-2e-05	2
5521	-0.00011	-7e-05	-7e-05	6e-05	-6e-05	-0.00027	4e-05	-2e-05	2
5522	-0.00011	-7e-05	-7e-05	6e-05	-6e-05	-0.00027	4e-05	-2e-05	2
5523	-0.00011	-7e-05	-7e-05	6e-05	-6e-05	-0.00027	4e-05	-2e-05	2
5524	-0.00011	-7e-05	-7e-05	6e-05	-6e-05	-0.00027	4e-05	-2e-05	2
5525	-0.00011	-7e-05	-7e-05	6e-05	-6e-05	-0.00027	4e-05	-2e-05	2
5526	-0.00011	-7e-05	-7e-05	6e-05	-6e-05	-0.00027	4e-05	-2e-05	2
5527	-0.00011	-7e-05	-7e-05	6e-05	-6e-05	-0.00027	4e-05	-2e-05	2
5528	-0.00011	-7e-05	-7e-05	6e-05	-6e-05	-0.00027	4e-05	-2e-05	2
5529	-2e-05	1e-05	0.00012	1e-05	-0.00018	9e-05	-0.00011	-2e-05	2
5530	0	-2e-05	-3e-05	7e-05	2e-05	0.00019	-5e-05	0	2
5531	0	-2e-05	-3e-05	7e-05	2e-05	0.00019	-5e-05	0	2
5532	0	-2e-05	-3e-05	7e-05	2e-05	0.00019	-5e-05	0	2
5533	0	-2e-05	-3e-05	7e-05	2e-05	0.00019	-5e-05	0	2
5534	0	-2e-05	-3e-05	7e-05	2e-05	0.00019	-5e-05	0	2
5535	0	-2e-05	-3e-05	7e-05	2e-05	0.00019	-5e-05	0	2
5536	0	-2e-05	-3e-05	7e-05	2e-05	0.00019	-5e-05	0	2
5538	0	-2e-05	-3e-05	7e-05	2e-05	0.00019	-5e-05	0	2
5539	0	-2e-05	-3e-05	7e-05	2e-05	0.00019	-5e-05	0	2
5540	0	-2e-05	-3e-05	7e-05	2e-05	0.00019	-5e-05	0	2
5541	0	-2e-05	-3e-05	7e-05	2e-05	0.00019	-5e-05	0	2
5542	0	-2e-05	-3e-05	7e-05	2e-05	0.00019	-5e-05	0	2
5543	0	-2e-05	-3e-05	7e-05	2e-05	0.00019	-5e-05	0	2
5544	0	-2e-05	-3e-05	7e-05	2e-05	0.00019	-5e-05	0	2
5545	0	-2e-05	-3e-05	7e-05	2e-05	0.00019	-5e-05	0	2
5546	0	-2e-05	-3e-05	7e-05	2e-05	0.00019	-5e-05	0	2
5547	0	-2e-05	-3e-05	7e-05	2e-05	0.00019	-5e-05	0	2
5548	0	-2e-05	-3e-05	7e-05	2e-05	0.00019	-5e-05	0	2
5549	0	-2e-05	-3e-05	7e-05	2e-05	0.00019	-5e-05	0	2
5550	0	-2e-05	-3e-05	7e-05	2e-05	0.00019	-5e-05	0	2
5551	1e-05	-5e-05	4e-05	5e-05	-0.00013	7e-05	-1e-05	0	2
5552	1e-05	-5e-05	4e-05	5e-05	-0.00013	7e-05	-1e-05	0	2
5553	2e-05	-3e-05	0	-5e-05	5e-05	0.00014	-0.00013	1e-05	2
5554	2e-05	-3e-05	0	-5e-05	5e-05	0.00014	-0.00013	1e-05	2
5555	2e-05	-3e-05	0	-5e-05	5e-05	0.00014	-0.00013	1e-05	2
5556	2e-05	-3e-05	0	-5e-05	5e-05	0.00014	-0.00013	1e-05	2
5557	2e-05	-3e-05	0	-5e-05	5e-05	0.00014	-0.00013	1e-05	2
5558	2e-05	-3e-05	0	-5e-05	5e-05	0.00014	-0.00013	1e-05	2
5559	2e-05	-3e-05	0	-5e-05	5e-05	0.00014	-0.00013	1e-05	2
5560	2e-05	-3e-05	0	-5e-05	5e-05	0.00014	-0.00013	1e-05	2
5561	2e-05	-3e-05	0	-5e-05	5e-05	0.00014	-0.00013	1e-05	2
5562	2e-05	-3e-05	0	-5e-05	5e-05	0.00014	-0.00013	1e-05	2
5563	2e-05	-3e-05	0	-5e-05	5e-05	0.00014	-0.00013	1e-05	2
5564	2e-05	-3e-05	0	-5e-05	5e-05	0.00014	-0.00013	1e-05	2
5565	2e-05	-3e-05	0	-5e-05	5e-05	0.00014	-0.00013	1e-05	2
5566	-5e-05	0	-2e-05	7e-05	0	-0.00017	7e-05	0	2
5567	-5e-05	0	-2e-05	7e-05	0	-0.00017	7e-05	0	2
5568	-0.0001	-4e-05	3e-05	1e-05	7e-05	-0.0003	0.00013	-1e-05	2
5569	-0.0001	-4e-05	3e-05	1e-05	7e-05	-0.0003	0.00013	-1e-05	2
5570	-0.0001	-4e-05	3e-05	1e-05	7e-05	-0.0003	0.00013	-1e-05	2
5571	-0.0001	-4e-05	3e-05	1e-05	7e-05	-0.0003	0.00013	-1e-05	2
5572	-0.0001	-4e-05	3e-05	1e-05	7e-05	-0.0003	0.00013	-1e-05	2
5573	-0.0001	-4e-05	3e-05	1e-05	7e-05	-0.0003	0.00013	-1e-05	2
5574	-0.0001	-4e-05	3e-05	1e-05	7e-05	-0.0003	0.00013	-1e-05	2
5575	-0.0001	-4e-05	3e-05	1e-05	7e-05	-0.0003	0.00013	-1e-05	2
5576	-0.0001	-4e-05	3e-05	1e-05	7e-05	-0.0003	0.00013	-1e-05	2
5577	-0.0001	-4e-05	3e-05	1e-05	7e-05	-0.0003	0.00013	-1e-05	2
5578	-0.0001	-4e-05	3e-05	1e-05	7e-05	-0.0003	0.00013	-1e-05	2
5579	-0.0001	-4e-05	3e-05	1e-05	7e-05	-0.0003	0.00013	-1e-05	2
5580	-0.0001	-4e-05	3e-05	1e-05	7e-05	-0.0003	0.00013	-1e-05	2
5581	-0.0001	-4e-05	3e-05	1e-05	7e-05	-0.0003	0.00013	-1e-05	2
5582	-0.0001	-4e-05	3e-05	1e-05	7e-05	-0.0003	0.00013	-1e-05	2
5583	-0.0001	-4e-05	3e-05	1e-05	7e-05	-0.0003	0.00013	-1e-05	2
5584	-0.0001	-4e-05	3e-05	1e-05	7e-05	-0.0003	0.00013	-1e-05	2
5585	-0.0001	-4e-05	3e-05	1e-05	7e-05	-0.0003	0.00013	-1e-05	2
5586	-0.0001	-4e-05	3e-05	1e-05	7e-05	-0.0003	0.00013	-1e-05	2
5588	-0.0001	-4e-05	3e-05	1e-05	7e-05	-0.0003	0.00013	-1e-05	2
5589	-0.0001	-4e-05	3e-05	1e-05	7e-05	-0.0003	0.00013	-1e-05	2
5590	-0.0001	-4e-05	3e-05	1e-05	7e-05	-0.0003	0.00013	-1e-05	2
5591	-0.0001	-4e-05	3e-05	1e-05	7e-05	-0.0003	0.00013	-1e-05	2
5592	-0.0001	-4e-05	3e-05	1e-05	7e-05	-0.0003	0.00013	-1e-05	2
5593	-0.0001	-4e-05	3e-05	1e-05	7e-05	-0.0003	0.00013	-1e-05	2
5594	-0.0001	-4e-05	3e-05	1e-05	7e-05	-0.0003	0.00013	-1e-05	2
5595	-0.0001	-4e-05	3e-05	1e-05	7e-05	-0.0003	0.00013	-1e-05	2
5596	-4e-05	2e-05	0.00012	8e-05	4e-05	-1e-05	-0.00016	1e-05	2
5597	-4e-05	2e-05	0.00012	8e-05	4e-05	-1e-05	-0.00016	1e-05	2
5598	-1e-05	3e-05	3e-05	-3e-05	0.00021	3e-05	-0.00011	-1e-05	2
5599	-1e-05	3e-05	3e-05	-3e-05	0.00021	3e-05	-0.00011	-1e-05	2
5600	-1e-05	3e-05	3e-05	-3e-05	0.00021	3e-05	-0.00011	-1e-05	2
5601	-1e-05	3e-05	3e-05	-3e-05	0.00021	3e-05	-0.00011	-1e-05	2
5602	-3e-05	-3e-05	-6e-05	-0.00012	-0.00012	-0.00034	2e-05	-1e-05	2
5603	-3e-05	-3e-05	-6e-05	-0.00012	-0.00012	-0.00034	2e-05	-1e-05	2
5604	-3e-05	-3e-05	-6e-05	-0.00012	-0.00012	-0.00034	2e-05	-1e-05	2
5605	-3e-05	-3e-05	-6e-05	-0.00012	-0.00012	-0.00034	2e-05	-1e-05	2
5606	-3e-05	-3e-05	-6e-05	-0.00012	-0.00012	-0.00034	2e-05	-1e-05	2
5607	-3e-05	-3e-05	-6e-05	-0.00012	-0.00012	-0.00034	2e-05	-1e-05	2
5608	-3e-05	-3e-05	-6e-05	-0.00012	-0.00012	-0.00034	2e-05	-1e-05	2
5609	-3e-05	-3e-05	-6e-05	-0.00012	-0.00012	-0.00034	2e-05	-1e-05	2
5610	-3e-05	-3e-05	-6e-05	-0.00012	-0.00012	-0.00034	2e-05	-1e-05	2
5611	-3e-05	1e-05	-3e-05	0.0001	3e-05	0.00067	0.0003	2e-05	2
5612	-3e-05	1e-05	-3e-05	0.0001	3e-05	0.00067	0.0003	2e-05	2
5613	-3e-05	1e-05	-3e-05	0.0001	3e-05	0.00067	0.0003	2e-05	2
5614	-3e-05	1e-05	-3e-05	0.0001	3e-05	0.00067	0.0003	2e-05	2
5615	-3e-05	1e-05	-3e-05	0.0001	3e-05	0.00067	0.0003	2e-05	2
5616	-3e-05	1e-05	-3e-05	0.0001	3e-05	0.00067	0.0003	2e-05	2
5617	-3e-05	1e-05	-3e-05	0.0001	3e-05	0.00067	0.0003	2e-05	2
5618	-3e-05	1e-05	-3e-05	0.0001	3e-05	0.00067	0.0003	2e-05	2
5619	-3e-05	1e-05	-3e-05	0.0001	3e-05	0.00067	0.0003	2e-05	2
5620	-3e-05	1e-05	-3e-05	0.0001	3e-05	0.00067	0.0003	2e-05	2
5621	-3e-05	1e-05	-3e-05	0.0001	3e-05	0.00067	0.0003	2e-05	2
5622	-3e-05	1e-05	-3e-05	0.0001	3e-05	0.00067	0.0003	2e-05	2
5623	-3e-05	1e-05	-3e-05	0.0001	3e-05	0.00067	0.0003	2e-05	2
5624	-3e-05	1e-05	-3e-05	0.0001	3e-05	0.00067	0.0003	2e-05	2
5625	-3e-05	1e-05	-3e-05	0.0001	3e-05	0.00067	0.0003	2e-05	2
5626	-6e-05	-2e-05	-3e-05	-2e-05	0.00013	-0.00016	-7e-05	-3e-05	2
5627	-6e-05	-2e-05	-3e-05	-2e-05	0.00013	-0.00016	-7e-05	-3e-05	2
5628	-3e-05	-4e-05	-5e-05	-0.0002	-0.00019	-0.00029	-0.00016	-9e-05	2
5629	-3e-05	-4e-05	-5e-05	-0.0002	-0.00019	-0.00029	-0.00016	-9e-05	2
5630	-3e-05	-4e-05	-5e-05	-0.0002	-0.00019	-0.00029	-0.00016	-9e-05	2
5631	-3e-05	-4e-05	-5e-05	-0.0002	-0.00019	-0.00029	-0.00016	-9e-05	2
5632	-3e-05	-4e-05	-5e-05	-0.0002	-0.00019	-0.00029	-0.00016	-9e-05	2
5633	-3e-05	-4e-05	-5e-05	-0.0002	-0.00019	-0.00029	-0.00016	-9e-05	2
5634	-3e-05	-4e-05	-5e-05	-0.0002	-0.00019	-0.00029	-0.00016	-9e-05	2
5635	-3e-05	-4e-05	-5e-05	-0.0002	-0.00019	-0.00029	-0.00016	-9e-05	2
5636	-3e-05	-4e-05	-5e-05	-0.0002	-0.00019	-0.00029	-0.00016	-9e-05	2
5638	-3e-05	-4e-05	-5e-05	-0.0002	-0.00019	-0.00029	-0.00016	-9e-05	2
5639	-3e-05	-4e-05	-5e-05	-0.0002	-0.00019	-0.00029	-0.00016	-9e-05	2
5640	-3e-05	-4e-05	-5e-05	-0.0002	-0.00019	-0.00029	-0.00016	-9e-05	2
5641	-3e-05	-4e-05	-5e-05	-0.0002	-0.00019	-0.00029	-0.00016	-9e-05	2
5642	-3e-05	-4e-05	-5e-05	-0.0002	-0.00019	-0.00029	-0.00016	-9e-05	2
5643	-3e-05	-4e-05	-5e-05	-0.0002	-0.00019	-0.00029	-0.00016	-9e-05	2
5644	-3e-05	-4e-05	-5e-05	-0.0002	-0.00019	-0.00029	-0.00016	-9e-05	2
5645	-3e-05	-4e-05	-5e-05	-0.0002	-0.00019	-0.00029	-0.00016	-9e-05	2
5646	-3e-05	-4e-05	-5e-05	-0.0002	-0.00019	-0.00029	-0.00016	-9e-05	2
5647	-3e-05	-4e-05	-5e-05	-0.0002	-0.00019	-0.00029	-0.00016	-9e-05	2
5648	-3e-05	-4e-05	-5e-05	-0.0002	-0.00019	-0.00029	-0.00016	-9e-05	2
5649	0	0	3e-05	-2e-05	-7e-05	0.00015	5e-05	1e-05	2
5650	0	0	3e-05	-2e-05	-7e-05	0.00015	5e-05	1e-05	2
5651	-7e-05	-5e-05	-0.00011	-5e-05	-0.00012	9e-05	-3e-05	-1e-05	2
5652	-7e-05	-5e-05	-0.00011	-5e-05	-0.00012	9e-05	-3e-05	-1e-05	2
5653	-7e-05	-5e-05	-0.00011	-5e-05	-0.00012	9e-05	-3e-05	-1e-05	2
5654	-7e-05	-5e-05	-0.00011	-5e-05	-0.00012	9e-05	-3e-05	-1e-05	2
5655	-7e-05	-5e-05	-0.00011	-5e-05	-0.00012	9e-05	-3e-05	-1e-05	2
5656	-7e-05	-5e-05	-0.00011	-5e-05	-0.00012	9e-05	-3e-05	-1e-05	2
5657	-7e-05	-5e-05	-0.00011	-5e-05	-0.00012	9e-05	-3e-05	-1e-05	2
5658	-7e-05	-5e-05	-0.00011	-5e-05	-0.00012	9e-05	-3e-05	-1e-05	2
5659	-7e-05	-5e-05	-0.00011	-5e-05	-0.00012	9e-05	-3e-05	-1e-05	2
5660	-7e-05	-5e-05	-0.00011	-5e-05	-0.00012	9e-05	-3e-05	-1e-05	2
5661	-7e-05	-5e-05	-0.00011	-5e-05	-0.00012	9e-05	-3e-05	-1e-05	2
5662	-2e-05	-7e-05	2e-05	-3e-05	-0.00023	-0.0001	4e-05	-6e-05	2
5663	-2e-05	-7e-05	2e-05	-3e-05	-0.00023	-0.0001	4e-05	-6e-05	2
5664	-2e-05	-7e-05	2e-05	-3e-05	-0.00023	-0.0001	4e-05	-6e-05	2
5665	-2e-05	-7e-05	2e-05	-3e-05	-0.00023	-0.0001	4e-05	-6e-05	2
5666	-2e-05	-7e-05	2e-05	-3e-05	-0.00023	-0.0001	4e-05	-6e-05	2
5667	-2e-05	-7e-05	2e-05	-3e-05	-0.00023	-0.0001	4e-05	-6e-05	2
5668	-2e-05	-7e-05	2e-05	-3e-05	-0.00023	-0.0001	4e-05	-6e-05	2
5669	-2e-05	-7e-05	2e-05	-3e-05	-0.00023	-0.0001	4e-05	-6e-05	2
5670	-2e-05	-7e-05	2e-05	-3e-05	-0.00023	-0.0001	4e-05	-6e-05	2
5671	0	3e-05	4e-05	8e-05	-5e-05	9e-05	0	-3e-05	2
5672	0	3e-05	4e-05	8e-05	-5e-05	9e-05	0	-3e-05	2
5673	0	3e-05	4e-05	8e-05	-5e-05	9e-05	0	-3e-05	2
5674	0	3e-05	4e-05	8e-05	-5e-05	9e-05	0	-3e-05	2
5675	0	3e-05	4e-05	8e-05	-5e-05	9e-05	0	-3e-05	2
5676	0	3e-05	4e-05	8e-05	-5e-05	9e-05	0	-3e-05	2
5677	0	3e-05	4e-05	8e-05	-5e-05	9e-05	0	-3e-05	2
5678	0	3e-05	4e-05	8e-05	-5e-05	9e-05	0	-3e-05	2
5679	0	3e-05	4e-05	8e-05	-5e-05	9e-05	0	-3e-05	2
5680	0	3e-05	4e-05	8e-05	-5e-05	9e-05	0	-3e-05	2
5681	0	3e-05	4e-05	8e-05	-5e-05	9e-05	0	-3e-05	2
5682	0	3e-05	4e-05	8e-05	-5e-05	9e-05	0	-3e-05	2
5683	0	3e-05	4e-05	8e-05	-5e-05	9e-05	0	-3e-05	2
5684	0	3e-05	4e-05	8e-05	-5e-05	9e-05	0	-3e-05	2
5685	0	3e-05	4e-05	8e-05	-5e-05	9e-05	0	-3e-05	2
5686	0	3e-05	4e-05	8e-05	-5e-05	9e-05	0	-3e-05	2
5688	0	1e-05	4e-05	0.00015	-0.00013	-0.00025	-1e-05	1e-05	2
5689	0	1e-05	4e-05	0.00015	-0.00013	-0.00025	-1e-05	1e-05	2
5690	0	1e-05	4e-05	0.00015	-0.00013	-0.00025	-1e-05	1e-05	2
5691	0	1e-05	4e-05	0.00015	-0.00013	-0.00025	-1e-05	1e-05	2
5692	1e-05	-1e-05	-7e-05	1e-05	4e-05	0.00012	-3e-05	2e-05	2
5693	1e-05	-1e-05	-7e-05	1e-05	4e-05	0.00012	-3e-05	2e-05	2
5694	1e-05	-1e-05	-7e-05	1e-05	4e-05	0.00012	-3e-05	2e-05	2
5695	1e-05	-1e-05	-7e-05	1e-05	4e-05	0.00012	-3e-05	2e-05	2
5696	1e-05	-1e-05	-7e-05	1e-05	4e-05	0.00012	-3e-05	2e-05	2
5697	1e-05	-1e-05	-7e-05	1e-05	4e-05	0.00012	-3e-05	2e-05	2
5698	1e-05	-1e-05	-7e-05	1e-05	4e-05	0.00012	-3e-05	2e-05	2
5699	1e-05	-1e-05	-7e-05	1e-05	4e-05	0.00012	-3e-05	2e-05	2
5700	1e-05	-1e-05	-7e-05	1e-05	4e-05	0.00012	-3e-05	2e-05	2
5701	1e-05	-1e-05	-7e-05	1e-05	4e-05	0.00012	-3e-05	2e-05	2
5702	1e-05	-1e-05	-7e-05	1e-05	4e-05	0.00012	-3e-05	2e-05	2
5703	1e-05	-1e-05	-7e-05	1e-05	4e-05	0.00012	-3e-05	2e-05	2
5704	1e-05	-1e-05	-7e-05	1e-05	4e-05	0.00012	-3e-05	2e-05	2
5705	1e-05	-1e-05	-7e-05	1e-05	4e-05	0.00012	-3e-05	2e-05	2
5706	1e-05	-1e-05	-7e-05	1e-05	4e-05	0.00012	-3e-05	2e-05	2
5707	1e-05	-1e-05	-7e-05	1e-05	4e-05	0.00012	-3e-05	2e-05	2
5708	1e-05	-1e-05	-7e-05	1e-05	4e-05	0.00012	-3e-05	2e-05	2
5709	1e-05	-1e-05	0	-5e-05	-2e-05	0.00012	-3e-05	2e-05	2
5710	0.00013	0	-0.00024	-0.00027	0.0001	1e-05	-0.00012	9e-05	2
5711	0.00013	0	-0.00024	-0.00027	0.0001	1e-05	-0.00012	9e-05	2
5712	0.00013	0	-0.00024	-0.00027	0.0001	1e-05	-0.00012	9e-05	2
5713	0.00013	0	-0.00024	-0.00027	0.0001	1e-05	-0.00012	9e-05	2
5714	0.00013	0	-0.00024	-0.00027	0.0001	1e-05	-0.00012	9e-05	2
5715	0.00013	0	-0.00024	-0.00027	0.0001	1e-05	-0.00012	9e-05	2
5716	0.00013	0	-0.00024	-0.00027	0.0001	1e-05	-0.00012	9e-05	2
5717	0.00013	0	-0.00024	-0.00027	0.0001	1e-05	-0.00012	9e-05	2
5718	0.00013	0	-0.00024	-0.00027	0.0001	1e-05	-0.00012	9e-05	2
5719	0.00013	0	-0.00024	-0.00027	0.0001	1e-05	-0.00012	9e-05	2
5720	0.00013	0	-0.00024	-0.00027	0.0001	1e-05	-0.00012	9e-05	2
5721	0.00013	0	-0.00024	-0.00027	0.0001	1e-05	-0.00012	9e-05	2
5722	-3e-05	-5e-05	2e-05	7e-05	1e-05	3e-05	-2e-05	0	2
5723	-3e-05	-5e-05	2e-05	7e-05	1e-05	3e-05	-2e-05	0	2
5724	-3e-05	-5e-05	2e-05	7e-05	1e-05	3e-05	-2e-05	0	2
5725	-3e-05	-5e-05	2e-05	7e-05	1e-05	3e-05	-2e-05	0	2
5726	-3e-05	-5e-05	2e-05	7e-05	1e-05	3e-05	-2e-05	0	2
5727	-3e-05	-5e-05	2e-05	7e-05	1e-05	3e-05	-2e-05	0	2
5728	-3e-05	-5e-05	2e-05	7e-05	1e-05	3e-05	-2e-05	0	2
5729	-3e-05	-5e-05	2e-05	7e-05	1e-05	3e-05	-2e-05	0	2
5730	-3e-05	-5e-05	2e-05	7e-05	1e-05	3e-05	-2e-05	0	2
5731	-3e-05	-5e-05	2e-05	7e-05	1e-05	3e-05	-2e-05	0	2
5732	-3e-05	-5e-05	2e-05	7e-05	1e-05	3e-05	-2e-05	0	2
5733	-3e-05	-5e-05	2e-05	7e-05	1e-05	3e-05	-2e-05	0	2
5734	-3e-05	-5e-05	2e-05	7e-05	1e-05	3e-05	-2e-05	0	2
5735	-3e-05	-5e-05	2e-05	7e-05	1e-05	3e-05	-2e-05	0	2
5736	-3e-05	-5e-05	2e-05	7e-05	1e-05	3e-05	-2e-05	0	2
5738	-3e-05	-5e-05	2e-05	7e-05	1e-05	3e-05	-2e-05	0	2
5739	8e-05	5e-05	8e-05	2e-05	8e-05	0.00032	9e-05	-1e-05	2
5740	8e-05	5e-05	8e-05	2e-05	8e-05	0.00032	9e-05	-1e-05	2
5741	8e-05	5e-05	8e-05	2e-05	8e-05	0.00032	9e-05	-1e-05	2
5742	8e-05	5e-05	8e-05	2e-05	8e-05	0.00032	9e-05	-1e-05	2
5743	8e-05	5e-05	8e-05	2e-05	8e-05	0.00032	9e-05	-1e-05	2
5744	8e-05	5e-05	8e-05	2e-05	8e-05	0.00032	9e-05	-1e-05	2
5745	8e-05	5e-05	8e-05	2e-05	8e-05	0.00032	9e-05	-1e-05	2
5746	1e-05	6e-05	0.00014	0.00011	-8e-05	-0.00043	-0.00036	-4e-05	2
5747	1e-05	6e-05	0.00014	0.00011	-8e-05	-0.00043	-0.00036	-4e-05	2
5748	-6e-05	0	0.00011	8e-05	-0.00022	-0.00035	-0.00017	-5e-05	2
5749	-6e-05	0	0.00011	8e-05	-0.00022	-0.00035	-0.00017	-5e-05	2
5750	-6e-05	0	0.00011	8e-05	-0.00022	-0.00035	-0.00017	-5e-05	2
5751	-6e-05	0	0.00011	8e-05	-0.00022	-0.00035	-0.00017	-5e-05	2
5752	-6e-05	0	0.00011	8e-05	-0.00022	-0.00035	-0.00017	-5e-05	2
5753	-6e-05	0	0.00011	8e-05	-0.00022	-0.00035	-0.00017	-5e-05	2
5754	-6e-05	0	0.00011	8e-05	-0.00022	-0.00035	-0.00017	-5e-05	2
5755	-6e-05	0	0.00011	8e-05	-0.00022	-0.00035	-0.00017	-5e-05	2
5756	-6e-05	0	0.00011	8e-05	-0.00022	-0.00035	-0.00017	-5e-05	2
5757	-6e-05	0	0.00011	8e-05	-0.00022	-0.00035	-0.00017	-5e-05	2
5758	-6e-05	0	0.00011	8e-05	-0.00022	-0.00035	-0.00017	-5e-05	2
5759	-6e-05	0	0.00011	8e-05	-0.00022	-0.00035	-0.00017	-5e-05	2
5760	-6e-05	0	0.00011	8e-05	-0.00022	-0.00035	-0.00017	-5e-05	2
5761	-6e-05	0	0.00011	8e-05	-0.00022	-0.00035	-0.00017	-5e-05	2
5762	-6e-05	0	0.00011	8e-05	-0.00022	-0.00035	-0.00017	-5e-05	2
5763	-6e-05	0	0.00011	8e-05	-0.00022	-0.00035	-0.00017	-5e-05	2
5764	-6e-05	0	0.00011	8e-05	-0.00022	-0.00035	-0.00017	-5e-05	2
5765	-6e-05	0	0.00011	8e-05	-0.00022	-0.00035	-0.00017	-5e-05	2
5766	-6e-05	0	0.00011	8e-05	-0.00022	-0.00035	-0.00017	-5e-05	2
5767	-6e-05	0	0.00011	8e-05	-0.00022	-0.00035	-0.00017	-5e-05	2
5768	-6e-05	0	0.00011	8e-05	-0.00022	-0.00035	-0.00017	-5e-05	2
5769	-2e-05	3e-05	4e-05	2e-05	4e-05	0.00018	0.00011	-1e-05	2
5770	0	-4e-05	-5e-05	4e-05	-4e-05	-1e-05	-0.00014	1e-05	2
5771	0	-4e-05	-5e-05	4e-05	-4e-05	-1e-05	-0.00014	1e-05	2
5772	0	-4e-05	-5e-05	4e-05	-4e-05	-1e-05	-0.00014	1e-05	2
5773	0	-4e-05	-5e-05	4e-05	-4e-05	-1e-05	-0.00014	1e-05	2
5774	0	-4e-05	-5e-05	4e-05	-4e-05	-1e-05	-0.00014	1e-05	2
5775	0	-4e-05	-5e-05	4e-05	-4e-05	-1e-05	-0.00014	1e-05	2
5776	0	-4e-05	-5e-05	4e-05	-4e-05	-1e-05	-0.00014	1e-05	2
5777	0	-4e-05	-5e-05	4e-05	-4e-05	-1e-05	-0.00014	1e-05	2
5778	0	-4e-05	-5e-05	4e-05	-4e-05	-1e-05	-0.00014	1e-05	2
5779	0	-4e-05	-5e-05	4e-05	-4e-05	-1e-05	-0.00014	1e-05	2
5780	0	-4e-05	-5e-05	4e-05	-4e-05	-1e-05	-0.00014	1e-05	2
5781	0	-4e-05	-5e-05	4e-05	-4e-05	-1e-05	-0.00014	1e-05	2
5782	0	-4e-05	-5e-05	4e-05	-4e-05	-1e-05	-0.00014	1e-05	2
5783	0	-3e-05	-0.00013	-0.00029	2e-05	8e-05	7e-05	4e-05	2
5784	0	-3e-05	-0.00013	-0.00029	2e-05	8e-05	7e-05	4e-05	2
5785	0	-3e-05	-0.00013	-0.00029	2e-05	8e-05	7e-05	4e-05	2
5786	0	-3e-05	-0.00013	-0.00029	2e-05	8e-05	7e-05	4e-05	2
5788	0	-3e-05	-0.00013	-0.00029	2e-05	8e-05	7e-05	4e-05	2
5789	0	-3e-05	-0.00013	-0.00029	2e-05	8e-05	7e-05	4e-05	2
5790	0	-3e-05	-0.00013	-0.00029	2e-05	8e-05	7e-05	4e-05	2
5791	-0.00011	-5e-05	-0.00018	-7e-05	-5e-05	-1e-05	0.00011	-4e-05	2
5792	-0.00011	-5e-05	-0.00018	-7e-05	-5e-05	-1e-05	0.00011	-4e-05	2
5793	-0.00011	-5e-05	-0.00018	-7e-05	-5e-05	-1e-05	0.00011	-4e-05	2
5794	-0.00011	-5e-05	-0.00018	-7e-05	-5e-05	-1e-05	0.00011	-4e-05	2
5795	-0.00011	-5e-05	-0.00018	-7e-05	-5e-05	-1e-05	0.00011	-4e-05	2
5796	-0.00011	-5e-05	-0.00018	-7e-05	-5e-05	-1e-05	0.00011	-4e-05	2
5797	-0.00011	-5e-05	-0.00018	-7e-05	-5e-05	-1e-05	0.00011	-4e-05	2
5798	-0.00011	-5e-05	-0.00018	-7e-05	-5e-05	-1e-05	0.00011	-4e-05	2
5799	-0.00011	-5e-05	-0.00018	-7e-05	-5e-05	-1e-05	0.00011	-4e-05	2
5800	-0.00011	-5e-05	-0.00018	-7e-05	-5e-05	-1e-05	0.00011	-4e-05	2
5801	-0.00011	-5e-05	-0.00018	-7e-05	-5e-05	-1e-05	0.00011	-4e-05	2
5802	-0.00011	-5e-05	-0.00018	-7e-05	-5e-05	-1e-05	0.00011	-4e-05	2
5803	-0.00011	-5e-05	-0.00018	-7e-05	-5e-05	-1e-05	0.00011	-4e-05	2
5804	-0.00011	-5e-05	-0.00018	-7e-05	-5e-05	-1e-05	0.00011	-4e-05	2
5805	-0.00011	-5e-05	-0.00018	-7e-05	-5e-05	-1e-05	0.00011	-4e-05	2
5806	5e-05	-4e-05	-7e-05	-2e-05	-0.00013	-0.00051	-3e-05	-9e-05	2
5807	5e-05	-4e-05	-7e-05	-2e-05	-0.00013	-0.00051	-3e-05	-9e-05	2
5808	-3e-05	0	1e-05	-0.0001	7e-05	0.00015	-0.00014	-1e-05	2
5809	-3e-05	0	1e-05	-0.0001	7e-05	0.00015	-0.00014	-1e-05	2
5810	-3e-05	0	1e-05	-0.0001	7e-05	0.00015	-0.00014	-1e-05	2
5811	-3e-05	0	1e-05	-0.0001	7e-05	0.00015	-0.00014	-1e-05	2
5812	-3e-05	0	1e-05	-0.0001	7e-05	0.00015	-0.00014	-1e-05	2
5813	-3e-05	0	1e-05	-0.0001	7e-05	0.00015	-0.00014	-1e-05	2
5814	-3e-05	0	1e-05	-0.0001	7e-05	0.00015	-0.00014	-1e-05	2
5815	-3e-05	0	1e-05	-0.0001	7e-05	0.00015	-0.00014	-1e-05	2
5816	-3e-05	0	1e-05	-0.0001	7e-05	0.00015	-0.00014	-1e-05	2
5817	-3e-05	0	1e-05	-0.0001	7e-05	0.00015	-0.00014	-1e-05	2
5818	-3e-05	0	1e-05	-0.0001	7e-05	0.00015	-0.00014	-1e-05	2
5819	-3e-05	0	1e-05	-0.0001	7e-05	0.00015	-0.00014	-1e-05	2
5820	-3e-05	0	1e-05	-0.0001	7e-05	0.00015	-0.00014	-1e-05	2
5821	-3e-05	0	1e-05	-0.0001	7e-05	0.00015	-0.00014	-1e-05	2
5822	-3e-05	0	1e-05	-0.0001	7e-05	0.00015	-0.00014	-1e-05	2
5823	-3e-05	0	1e-05	-0.0001	7e-05	0.00015	-0.00014	-1e-05	2
5824	-3e-05	0	1e-05	-0.0001	7e-05	0.00015	-0.00014	-1e-05	2
5825	-3e-05	0	1e-05	-0.0001	7e-05	0.00015	-0.00014	-1e-05	2
5826	-3e-05	0	1e-05	-0.0001	7e-05	0.00015	-0.00014	-1e-05	2
5827	-3e-05	0	1e-05	-0.0001	7e-05	0.00015	-0.00014	-1e-05	2
5828	-3e-05	0	1e-05	-0.0001	7e-05	0.00015	-0.00014	-1e-05	2
5829	-5e-05	-3e-05	-8e-05	-0.00019	-8e-05	-9e-05	-5e-05	-4e-05	2
5830	-5e-05	-3e-05	-8e-05	-0.00019	-8e-05	-9e-05	-5e-05	-4e-05	2
5831	2e-05	-4e-05	-7e-05	9e-05	0.00012	0.00016	-8e-05	-2e-05	2
5832	2e-05	-4e-05	-7e-05	9e-05	0.00012	0.00016	-8e-05	-2e-05	2
5833	2e-05	-4e-05	-7e-05	9e-05	0.00012	0.00016	-8e-05	-2e-05	2
5834	2e-05	-4e-05	-7e-05	9e-05	0.00012	0.00016	-8e-05	-2e-05	2
5835	2e-05	-4e-05	-7e-05	9e-05	0.00012	0.00016	-8e-05	-2e-05	2
5836	2e-05	-4e-05	-7e-05	9e-05	0.00012	0.00016	-8e-05	-2e-05	2
5838	2e-05	-4e-05	-7e-05	9e-05	0.00012	0.00016	-8e-05	-2e-05	2
5839	2e-05	-4e-05	-7e-05	9e-05	0.00012	0.00016	-8e-05	-2e-05	2
5840	2e-05	-4e-05	-7e-05	9e-05	0.00012	0.00016	-8e-05	-2e-05	2
5841	2e-05	-4e-05	-7e-05	9e-05	0.00012	0.00016	-8e-05	-2e-05	2
5842	3e-05	0	1e-05	-1e-05	0.00015	0.00014	0.0001	6e-05	2
5843	3e-05	0	1e-05	-1e-05	0.00015	0.00014	0.0001	6e-05	2
5844	3e-05	0	1e-05	-1e-05	0.00015	0.00014	0.0001	6e-05	2
5845	3e-05	0	1e-05	-1e-05	0.00015	0.00014	0.0001	6e-05	2
5846	3e-05	0	1e-05	-1e-05	0.00015	0.00014	0.0001	6e-05	2
5847	3e-05	0	1e-05	-1e-05	0.00015	0.00014	0.0001	6e-05	2
5848	3e-05	0	1e-05	-1e-05	0.00015	0.00014	0.0001	6e-05	2
5849	3e-05	0	1e-05	-1e-05	0.00015	0.00014	0.0001	6e-05	2
5850	3e-05	0	1e-05	-1e-05	0.00015	0.00014	0.0001	6e-05	2
5851	-1e-05	-2e-05	-2e-05	-9e-05	-3e-05	-0.00012	-0.00015	0	2
5852	-1e-05	-2e-05	-2e-05	-9e-05	-3e-05	-0.00012	-0.00015	0	2
5853	-1e-05	-2e-05	-2e-05	-9e-05	-3e-05	-0.00012	-0.00015	0	2
5854	-1e-05	-2e-05	-2e-05	-9e-05	-3e-05	-0.00012	-0.00015	0	2
5855	-1e-05	-2e-05	-2e-05	-9e-05	-3e-05	-0.00012	-0.00015	0	2
5856	-1e-05	-2e-05	-2e-05	-9e-05	-3e-05	-0.00012	-0.00015	0	2
5857	-1e-05	-2e-05	-2e-05	-9e-05	-3e-05	-0.00012	-0.00015	0	2
5858	-1e-05	-2e-05	-2e-05	-9e-05	-3e-05	-0.00012	-0.00015	0	2
5859	-1e-05	-2e-05	-2e-05	-9e-05	-3e-05	-0.00012	-0.00015	0	2
5860	-1e-05	-2e-05	-2e-05	-9e-05	-3e-05	-0.00012	-0.00015	0	2
5861	-1e-05	-2e-05	-2e-05	-9e-05	-3e-05	-0.00012	-0.00015	0	2
5862	-1e-05	-2e-05	-2e-05	-9e-05	-3e-05	-0.00012	-0.00015	0	2
5863	-1e-05	-2e-05	-2e-05	-9e-05	-3e-05	-0.00012	-0.00015	0	2
5864	-1e-05	-2e-05	-2e-05	-9e-05	-3e-05	-0.00012	-0.00015	0	2
5865	-1e-05	-2e-05	-2e-05	-9e-05	-3e-05	-0.00012	-0.00015	0	2
5866	-1e-05	-2e-05	-2e-05	-9e-05	-3e-05	-0.00012	-0.00015	0	2
5867	-1e-05	-2e-05	-2e-05	-9e-05	-3e-05	-0.00012	-0.00015	0	2
5868	-1e-05	-2e-05	-2e-05	-9e-05	-3e-05	-0.00012	-0.00015	0	2
5869	-1e-05	-2e-05	-2e-05	-9e-05	-3e-05	-0.00012	-0.00015	0	2
5870	-1e-05	-2e-05	-2e-05	-9e-05	-3e-05	-0.00012	-0.00015	0	2
5871	-1e-05	-2e-05	-2e-05	-9e-05	-3e-05	-0.00012	-0.00015	0	2
5872	-1e-05	-2e-05	-2e-05	-9e-05	-3e-05	-0.00012	-0.00015	0	2
5873	-1e-05	-2e-05	-2e-05	-9e-05	-3e-05	-0.00012	-0.00015	0	2
5874	-6e-05	-5e-05	-1e-05	5e-05	5e-05	0.00013	-2e-05	-4e-05	2
5875	-4e-05	-3e-05	6e-05	4e-05	7e-05	0.00013	0	-3e-05	2
5876	-4e-05	-3e-05	6e-05	4e-05	7e-05	0.00013	0	-3e-05	2
5877	-4e-05	-3e-05	6e-05	4e-05	7e-05	0.00013	0	-3e-05	2
5878	-4e-05	-3e-05	6e-05	4e-05	7e-05	0.00013	0	-3e-05	2
5879	-4e-05	-3e-05	6e-05	4e-05	7e-05	0.00013	0	-3e-05	2
5880	-4e-05	-3e-05	6e-05	4e-05	7e-05	0.00013	0	-3e-05	2
5881	-4e-05	-3e-05	6e-05	4e-05	7e-05	0.00013	0	-3e-05	2
5882	-4e-05	-3e-05	6e-05	4e-05	7e-05	0.00013	0	-3e-05	2
5883	-4e-05	-3e-05	6e-05	4e-05	7e-05	0.00013	0	-3e-05	2
5884	-4e-05	-3e-05	6e-05	4e-05	7e-05	0.00013	0	-3e-05	2
5885	-4e-05	-3e-05	6e-05	4e-05	7e-05	0.00013	0	-3e-05	2
5886	-4e-05	-3e-05	6e-05	4e-05	7e-05	0.00013	0	-3e-05	2
5888	-4e-05	-3e-05	6e-05	4e-05	7e-05	0.00013	0	-3e-05	2
5889	-6e-05	5e-05	3e-05	2e-05	0	-0.00027	-0.0001	-6e-05	2
5890	4e-05	3e-05	-1e-05	-0.00019	-6e-05	0	0.00024	-2e-05	2
5891	4e-05	3e-05	-1e-05	-0.00019	-6e-05	0	0.00024	-2e-05	2
5892	4e-05	3e-05	-1e-05	-0.00019	-6e-05	0	0.00024	-2e-05	2
5893	4e-05	3e-05	-1e-05	-0.00019	-6e-05	0	0.00024	-2e-05	2
5894	4e-05	3e-05	-1e-05	-0.00019	-6e-05	0	0.00024	-2e-05	2
5895	4e-05	3e-05	-1e-05	-0.00019	-6e-05	0	0.00024	-2e-05	2
5896	4e-05	3e-05	-1e-05	-0.00019	-6e-05	0	0.00024	-2e-05	2
5897	4e-05	3e-05	-1e-05	-0.00019	-6e-05	0	0.00024	-2e-05	2
5898	4e-05	3e-05	-1e-05	-0.00019	-6e-05	0	0.00024	-2e-05	2
5899	4e-05	3e-05	-1e-05	-0.00019	-6e-05	0	0.00024	-2e-05	2
5900	4e-05	3e-05	-1e-05	-0.00019	-6e-05	0	0.00024	-2e-05	2
5901	4e-05	3e-05	-1e-05	-0.00019	-6e-05	0	0.00024	-2e-05	2
5902	4e-05	3e-05	-1e-05	-0.00019	-6e-05	0	0.00024	-2e-05	2
5903	4e-05	3e-05	-1e-05	-0.00019	-6e-05	0	0.00024	-2e-05	2
5904	4e-05	3e-05	-1e-05	-0.00019	-6e-05	0	0.00024	-2e-05	2
5905	4e-05	3e-05	-1e-05	-0.00019	-6e-05	0	0.00024	-2e-05	2
5906	4e-05	3e-05	-1e-05	-0.00019	-6e-05	0	0.00024	-2e-05	2
5907	4e-05	3e-05	-1e-05	-0.00019	-6e-05	0	0.00024	-2e-05	2
5908	4e-05	3e-05	-1e-05	-0.00019	-6e-05	0	0.00024	-2e-05	2
5909	4e-05	3e-05	-1e-05	-0.00019	-6e-05	0	0.00024	-2e-05	2
5910	4e-05	3e-05	-1e-05	-0.00019	-6e-05	0	0.00024	-2e-05	2
5911	4e-05	3e-05	-1e-05	-0.00019	-6e-05	0	0.00024	-2e-05	2
5912	4e-05	3e-05	-1e-05	-0.00019	-6e-05	0	0.00024	-2e-05	2
5913	4e-05	3e-05	-1e-05	-0.00019	-6e-05	0	0.00024	-2e-05	2
5914	4e-05	3e-05	-1e-05	-0.00019	-6e-05	0	0.00024	-2e-05	2
5915	4e-05	3e-05	-1e-05	-0.00019	-6e-05	0	0.00024	-2e-05	2
5916	4e-05	3e-05	-1e-05	-0.00019	-6e-05	0	0.00024	-2e-05	2
5917	4e-05	3e-05	-1e-05	-0.00019	-6e-05	0	0.00024	-2e-05	2
5918	4e-05	3e-05	-1e-05	-0.00019	-6e-05	0	0.00024	-2e-05	2
5919	0	3e-05	7e-05	0.00031	0.00036	0.00052	0.00037	4e-05	2
5920	0	3e-05	7e-05	0.00031	0.00036	0.00052	0.00037	4e-05	2
5921	0	3e-05	7e-05	0.00031	0.00036	0.00052	0.00037	4e-05	2
5922	0	3e-05	7e-05	0.00031	0.00036	0.00052	0.00037	4e-05	2
5923	0	3e-05	7e-05	0.00031	0.00036	0.00052	0.00037	4e-05	2
5924	0	3e-05	7e-05	0.00031	0.00036	0.00052	0.00037	4e-05	2
5925	0	3e-05	7e-05	0.00031	0.00036	0.00052	0.00037	4e-05	2
5926	0	3e-05	7e-05	0.00031	0.00036	0.00052	0.00037	4e-05	2
5927	0	0	2e-05	0.00017	-4e-05	-0.00018	0.00012	1e-05	2
5928	0	0	-2e-05	-0.0001	-3e-05	-0.00021	-0.00029	-7e-05	2
5929	5e-05	3e-05	0.00012	-5e-05	-0.0001	0.00019	0.00028	2e-05	2
5931	5e-05	3e-05	0.00012	-5e-05	-0.0001	0.00019	0.00028	2e-05	2
5932	5e-05	3e-05	0.00012	-5e-05	-0.0001	0.00019	0.00028	2e-05	2
5933	5e-05	3e-05	0.00012	-5e-05	-0.0001	0.00019	0.00028	2e-05	2
5934	5e-05	3e-05	0.00012	-5e-05	-0.0001	0.00019	0.00028	2e-05	2
5935	5e-05	3e-05	0.00012	-5e-05	-0.0001	0.00019	0.00028	2e-05	2
5936	5e-05	3e-05	0.00012	-5e-05	-0.0001	0.00019	0.00028	2e-05	2
5938	5e-05	3e-05	0.00012	-5e-05	-0.0001	0.00019	0.00028	2e-05	2
5939	5e-05	3e-05	0.00012	-5e-05	-0.0001	0.00019	0.00028	2e-05	2
5940	5e-05	3e-05	0.00012	-5e-05	-0.0001	0.00019	0.00028	2e-05	2
5941	5e-05	3e-05	0.00012	-5e-05	-0.0001	0.00019	0.00028	2e-05	2
5942	5e-05	3e-05	0.00012	-5e-05	-0.0001	0.00019	0.00028	2e-05	2
5943	5e-05	3e-05	0.00012	-5e-05	-0.0001	0.00019	0.00028	2e-05	2
5944	5e-05	3e-05	0.00012	-5e-05	-0.0001	0.00019	0.00028	2e-05	2
5945	5e-05	3e-05	0.00012	-5e-05	-0.0001	0.00019	0.00028	2e-05	2
5946	5e-05	3e-05	0.00012	-5e-05	-0.0001	0.00019	0.00028	2e-05	2
5947	5e-05	3e-05	0.00012	-5e-05	-0.0001	0.00019	0.00028	2e-05	2
5948	5e-05	3e-05	0.00012	-5e-05	-0.0001	0.00019	0.00028	2e-05	2
5949	-7e-05	-6e-05	-2e-05	-2e-05	-0.00014	-0.00011	-0.00016	-1e-05	2
5950	-1e-05	4e-05	0.00011	7e-05	8e-05	0.00026	0.00019	-3e-05	2
5951	-1e-05	1e-05	-3e-05	0.00013	-5e-05	-0.0002	-0.00011	-5e-05	2
5952	-1e-05	1e-05	-3e-05	0.00013	-5e-05	-0.0002	-0.00011	-5e-05	2
5953	-1e-05	1e-05	-3e-05	0.00013	-5e-05	-0.0002	-0.00011	-5e-05	2
5954	-1e-05	1e-05	-3e-05	0.00013	-5e-05	-0.0002	-0.00011	-5e-05	2
5955	-1e-05	1e-05	-3e-05	0.00013	-5e-05	-0.0002	-0.00011	-5e-05	2
5956	-1e-05	1e-05	-3e-05	0.00013	-5e-05	-0.0002	-0.00011	-5e-05	2
5957	-1e-05	1e-05	-3e-05	0.00013	-5e-05	-0.0002	-0.00011	-5e-05	2
5958	-1e-05	1e-05	-3e-05	0.00013	-5e-05	-0.0002	-0.00011	-5e-05	2
5959	-1e-05	1e-05	-3e-05	0.00013	-5e-05	-0.0002	-0.00011	-5e-05	2
5960	-1e-05	1e-05	-3e-05	0.00013	-5e-05	-0.0002	-0.00011	-5e-05	2
5961	-1e-05	1e-05	-3e-05	0.00013	-5e-05	-0.0002	-0.00011	-5e-05	2
5962	-1e-05	1e-05	-3e-05	0.00013	-5e-05	-0.0002	-0.00011	-5e-05	2
5963	-1e-05	1e-05	-3e-05	0.00013	-5e-05	-0.0002	-0.00011	-5e-05	2
5964	-1e-05	1e-05	-3e-05	0.00013	-5e-05	-0.0002	-0.00011	-5e-05	2
5965	-1e-05	1e-05	-3e-05	0.00013	-5e-05	-0.0002	-0.00011	-5e-05	2
5966	-1e-05	1e-05	-3e-05	0.00013	-5e-05	-0.0002	-0.00011	-5e-05	2
5967	-1e-05	1e-05	-3e-05	0.00013	-5e-05	-0.0002	-0.00011	-5e-05	2
5968	-1e-05	1e-05	-3e-05	0.00013	-5e-05	-0.0002	-0.00011	-5e-05	2
5969	-1e-05	1e-05	-3e-05	0.00013	-5e-05	-0.0002	-0.00011	-5e-05	2
5970	-1e-05	1e-05	-3e-05	0.00013	-5e-05	-0.0002	-0.00011	-5e-05	2
5971	0.00011	2e-05	-3e-05	-6e-05	-6e-05	5e-05	-1e-05	4e-05	2
5972	0.00011	2e-05	-3e-05	-6e-05	-6e-05	5e-05	-1e-05	4e-05	2
5973	4e-05	6e-05	0.00016	4e-05	9e-05	0.00067	8e-05	3e-05	2
5974	4e-05	6e-05	0.00016	4e-05	9e-05	0.00067	8e-05	3e-05	2
5975	4e-05	6e-05	0.00016	4e-05	9e-05	0.00067	8e-05	3e-05	2
5976	4e-05	6e-05	0.00016	4e-05	9e-05	0.00067	8e-05	3e-05	2
5977	4e-05	6e-05	0.00016	4e-05	9e-05	0.00067	8e-05	3e-05	2
5978	4e-05	6e-05	0.00016	4e-05	9e-05	0.00067	8e-05	3e-05	2
5979	4e-05	6e-05	0.00016	4e-05	9e-05	0.00067	8e-05	3e-05	2
5980	4e-05	6e-05	0.00016	4e-05	9e-05	0.00067	8e-05	3e-05	2
5981	4e-05	6e-05	0.00016	4e-05	9e-05	0.00067	8e-05	3e-05	2
5982	4e-05	6e-05	0.00016	4e-05	9e-05	0.00067	8e-05	3e-05	2
5983	4e-05	6e-05	0.00016	4e-05	9e-05	0.00067	8e-05	3e-05	2
5984	4e-05	6e-05	0.00016	4e-05	9e-05	0.00067	8e-05	3e-05	2
5985	4e-05	6e-05	0.00016	4e-05	9e-05	0.00067	8e-05	3e-05	2
5986	7e-05	5e-05	-5e-05	3e-05	5e-05	-9e-05	-0.00014	-5e-05	2
5988	7e-05	5e-05	-5e-05	3e-05	5e-05	-9e-05	-0.00014	-5e-05	2
5989	7e-05	5e-05	-5e-05	3e-05	5e-05	-9e-05	-0.00014	-5e-05	2
5990	7e-05	5e-05	-5e-05	3e-05	5e-05	-9e-05	-0.00014	-5e-05	2
5991	7e-05	5e-05	-5e-05	3e-05	5e-05	-9e-05	-0.00014	-5e-05	2
5992	-2e-05	6e-05	0.00013	-4e-05	-6e-05	-0.00047	-4e-05	-1e-05	2
5993	-2e-05	6e-05	0.00013	-4e-05	-6e-05	-0.00047	-4e-05	-1e-05	2
5994	-2e-05	6e-05	0.00013	-4e-05	-6e-05	-0.00047	-4e-05	-1e-05	2
5995	-2e-05	6e-05	0.00013	-4e-05	-6e-05	-0.00047	-4e-05	-1e-05	2
5996	-2e-05	6e-05	0.00013	-4e-05	-6e-05	-0.00047	-4e-05	-1e-05	2
5997	-2e-05	6e-05	0.00013	-4e-05	-6e-05	-0.00047	-4e-05	-1e-05	2
5998	-2e-05	6e-05	0.00013	-4e-05	-6e-05	-0.00047	-4e-05	-1e-05	2
5999	-2e-05	6e-05	0.00013	-4e-05	-6e-05	-0.00047	-4e-05	-1e-05	2
6000	-2e-05	6e-05	0.00013	-4e-05	-6e-05	-0.00047	-4e-05	-1e-05	2
6001	-2e-05	6e-05	0.00013	-4e-05	-6e-05	-0.00047	-4e-05	-1e-05	2
6002	-2e-05	6e-05	0.00013	-4e-05	-6e-05	-0.00047	-4e-05	-1e-05	2
6003	-2e-05	6e-05	0.00013	-4e-05	-6e-05	-0.00047	-4e-05	-1e-05	2
6004	-2e-05	6e-05	0.00013	-4e-05	-6e-05	-0.00047	-4e-05	-1e-05	2
6005	-2e-05	6e-05	0.00013	-4e-05	-6e-05	-0.00047	-4e-05	-1e-05	2
6006	-2e-05	6e-05	0.00013	-4e-05	-6e-05	-0.00047	-4e-05	-1e-05	2
6007	-2e-05	6e-05	0.00013	-4e-05	-6e-05	-0.00047	-4e-05	-1e-05	2
6008	-2e-05	6e-05	0.00013	-4e-05	-6e-05	-0.00047	-4e-05	-1e-05	2
6009	0.0001	2e-05	-4e-05	-0.00023	0.00015	0.00057	0.00012	0	2
6010	0.0001	2e-05	-4e-05	-0.00023	0.00015	0.00057	0.00012	0	2
6011	0.0001	2e-05	-4e-05	-0.00023	0.00015	0.00057	0.00012	0	2
6012	0.0001	2e-05	-4e-05	-0.00023	0.00015	0.00057	0.00012	0	2
6013	0.0001	2e-05	-4e-05	-0.00023	0.00015	0.00057	0.00012	0	2
6014	0.0001	2e-05	-4e-05	-0.00023	0.00015	0.00057	0.00012	0	2
6015	0.0001	2e-05	-4e-05	-0.00023	0.00015	0.00057	0.00012	0	2
6016	1e-05	0	4e-05	-0.00014	-0.0001	-7e-05	-0.00023	-1e-05	2
6017	1e-05	0	4e-05	-0.00014	-0.0001	-7e-05	-0.00023	-1e-05	2
6018	1e-05	0	4e-05	-0.00014	-0.0001	-7e-05	-0.00023	-1e-05	2
6019	1e-05	0	4e-05	-0.00014	-0.0001	-7e-05	-0.00023	-1e-05	2
6020	1e-05	0	4e-05	-0.00014	-0.0001	-7e-05	-0.00023	-1e-05	2
6021	1e-05	0	4e-05	-0.00014	-0.0001	-7e-05	-0.00023	-1e-05	2
6022	1e-05	0	4e-05	-0.00014	-0.0001	-7e-05	-0.00023	-1e-05	2
6023	1e-05	0	4e-05	-0.00014	-0.0001	-7e-05	-0.00023	-1e-05	2
6024	1e-05	0	4e-05	-0.00014	-0.0001	-7e-05	-0.00023	-1e-05	2
6025	1e-05	0	4e-05	-0.00014	-0.0001	-7e-05	-0.00023	-1e-05	2
6026	1e-05	0	4e-05	-0.00014	-0.0001	-7e-05	-0.00023	-1e-05	2
6027	1e-05	0	4e-05	-0.00014	-0.0001	-7e-05	-0.00023	-1e-05	2
6028	1e-05	0	4e-05	-0.00014	-0.0001	-7e-05	-0.00023	-1e-05	2
6029	1e-05	0	4e-05	-0.00014	-0.0001	-7e-05	-0.00023	-1e-05	2
6030	1e-05	0	4e-05	-0.00014	-0.0001	-7e-05	-0.00023	-1e-05	2
6031	1e-05	0	4e-05	-0.00014	-0.0001	-7e-05	-0.00023	-1e-05	2
6032	-6e-05	-2e-05	4e-05	6e-05	-0.00029	-0.00047	-0.00018	-3e-05	2
6033	-6e-05	-2e-05	4e-05	6e-05	-0.00029	-0.00047	-0.00018	-3e-05	2
6034	-6e-05	-2e-05	4e-05	6e-05	-0.00029	-0.00047	-0.00018	-3e-05	2
6035	-6e-05	-2e-05	4e-05	6e-05	-0.00029	-0.00047	-0.00018	-3e-05	2
6036	-6e-05	-2e-05	4e-05	6e-05	-0.00029	-0.00047	-0.00018	-3e-05	2
6038	-6e-05	-2e-05	4e-05	6e-05	-0.00029	-0.00047	-0.00018	-3e-05	2
6039	-2e-05	-8e-05	-0.0002	0.00025	0.0001	0.0003	4e-05	-4e-05	2
6040	-2e-05	-8e-05	-0.0002	0.00025	0.0001	0.0003	4e-05	-4e-05	2
6041	-2e-05	-8e-05	-0.0002	0.00025	0.0001	0.0003	4e-05	-4e-05	2
6042	-2e-05	-8e-05	-0.0002	0.00025	0.0001	0.0003	4e-05	-4e-05	2
6043	-2e-05	-8e-05	-0.0002	0.00025	0.0001	0.0003	4e-05	-4e-05	2
6044	-2e-05	-8e-05	-0.0002	0.00025	0.0001	0.0003	4e-05	-4e-05	2
6045	-2e-05	-8e-05	-0.0002	0.00025	0.0001	0.0003	4e-05	-4e-05	2
6046	-2e-05	-3e-05	0	-3e-05	-4e-05	-0.00023	6e-05	0	2
6047	-2e-05	-3e-05	0	-3e-05	-4e-05	-0.00023	6e-05	0	2
6048	-2e-05	-3e-05	0	-3e-05	-4e-05	-0.00023	6e-05	0	2
6049	-2e-05	-3e-05	0	-3e-05	-4e-05	-0.00023	6e-05	0	2
6050	-2e-05	-3e-05	0	-3e-05	-4e-05	-0.00023	6e-05	0	2
6051	-2e-05	-3e-05	0	-3e-05	-4e-05	-0.00023	6e-05	0	2
6052	-2e-05	-3e-05	0	-3e-05	-4e-05	-0.00023	6e-05	0	2
6053	-2e-05	-3e-05	0	-3e-05	-4e-05	-0.00023	6e-05	0	2
6054	-2e-05	-3e-05	0	-3e-05	-4e-05	-0.00023	6e-05	0	2
6055	-2e-05	-3e-05	0	-3e-05	-4e-05	-0.00023	6e-05	0	2
6056	-2e-05	-3e-05	0	-3e-05	-4e-05	-0.00023	6e-05	0	2
6057	-2e-05	-3e-05	0	-3e-05	-4e-05	-0.00023	6e-05	0	2
6058	-2e-05	-3e-05	0	-3e-05	-4e-05	-0.00023	6e-05	0	2
6059	-5e-05	-7e-05	-4e-05	-0.0002	-7e-05	0.00016	0.00027	1e-05	2
6060	-5e-05	-7e-05	-4e-05	-0.0002	-7e-05	0.00016	0.00027	1e-05	2
6061	-5e-05	-7e-05	-4e-05	-0.0002	-7e-05	0.00016	0.00027	1e-05	2
6062	-5e-05	-7e-05	-4e-05	-0.0002	-7e-05	0.00016	0.00027	1e-05	2
6063	-5e-05	-7e-05	-4e-05	-0.0002	-7e-05	0.00016	0.00027	1e-05	2
6064	-5e-05	-7e-05	-4e-05	-0.0002	-7e-05	0.00016	0.00027	1e-05	2
6065	-5e-05	-7e-05	-4e-05	-0.0002	-7e-05	0.00016	0.00027	1e-05	2
6066	-5e-05	-7e-05	-4e-05	-0.0002	-7e-05	0.00016	0.00027	1e-05	2
6067	-5e-05	-7e-05	-4e-05	-0.0002	-7e-05	0.00016	0.00027	1e-05	2
6068	-5e-05	-7e-05	-4e-05	-0.0002	-7e-05	0.00016	0.00027	1e-05	2
34406	-7e-05	-0.0001	-0.00025	0.00013	3e-05	-0.00023	0.0002	-2e-05	2
34407	-7e-05	-0.0001	-0.00025	0.00013	3e-05	-0.00023	0.0002	-2e-05	2
34408	-7e-05	-0.0001	-0.00025	0.00013	3e-05	-0.00023	0.0002	-2e-05	2
34409	-7e-05	-0.0001	-0.00025	0.00013	3e-05	-0.00023	0.0002	-2e-05	2
34410	-7e-05	-0.0001	-0.00025	0.00013	3e-05	-0.00023	0.0002	-2e-05	2
34411	-7e-05	-0.0001	-0.00025	0.00013	3e-05	-0.00023	0.0002	-2e-05	2
34412	-7e-05	-0.0001	-0.00025	0.00013	3e-05	-0.00023	0.0002	-2e-05	2
34413	-7e-05	-0.0001	-0.00025	0.00013	3e-05	-0.00023	0.0002	-2e-05	2
34414	-7e-05	-0.0001	-0.00025	0.00013	3e-05	-0.00023	0.0002	-2e-05	2
34415	-7e-05	-0.0001	-0.00025	0.00013	3e-05	-0.00023	0.0002	-2e-05	2
34416	-7e-05	-0.0001	-0.00025	0.00013	3e-05	-0.00023	0.0002	-2e-05	2
34417	-7e-05	-0.0001	-0.00025	0.00013	3e-05	-0.00023	0.0002	-2e-05	2
34418	-7e-05	-0.0001	-0.00025	0.00013	3e-05	-0.00023	0.0002	-2e-05	2
34419	-7e-05	-0.0001	-0.00025	0.00013	3e-05	-0.00023	0.0002	-2e-05	2
34420	6e-05	8e-05	3e-05	1e-05	6e-05	-0.0002	0.0003	5e-05	2
34421	6e-05	8e-05	3e-05	1e-05	6e-05	-0.0002	0.0003	5e-05	2
34422	6e-05	8e-05	3e-05	1e-05	6e-05	-0.0002	0.0003	5e-05	2
34423	6e-05	8e-05	3e-05	1e-05	6e-05	-0.0002	0.0003	5e-05	2
34424	6e-05	8e-05	3e-05	1e-05	6e-05	-0.0002	0.0003	5e-05	2
34425	6e-05	8e-05	3e-05	1e-05	6e-05	-0.0002	0.0003	5e-05	2
34426	6e-05	8e-05	3e-05	1e-05	6e-05	-0.0002	0.0003	5e-05	2
34427	6e-05	8e-05	3e-05	1e-05	6e-05	-0.0002	0.0003	5e-05	2
34428	6e-05	8e-05	3e-05	1e-05	6e-05	-0.0002	0.0003	5e-05	2
34429	6e-05	8e-05	3e-05	1e-05	6e-05	-0.0002	0.0003	5e-05	2
34430	6e-05	8e-05	3e-05	1e-05	6e-05	-0.0002	0.0003	5e-05	2
34431	6e-05	8e-05	3e-05	1e-05	6e-05	-0.0002	0.0003	5e-05	2
34432	6e-05	8e-05	3e-05	1e-05	6e-05	-0.0002	0.0003	5e-05	2
34433	6e-05	8e-05	3e-05	1e-05	6e-05	-0.0002	0.0003	5e-05	2
34434	6e-05	8e-05	3e-05	1e-05	6e-05	-0.0002	0.0003	5e-05	2
34435	6e-05	8e-05	3e-05	1e-05	6e-05	-0.0002	0.0003	5e-05	2
34436	0	4e-05	0	0.00033	0.00012	0.0009	0.00032	1e-05	2
34439	-2e-05	-1e-05	0	4e-05	8e-05	0.00024	-0.00012	0	2
34440	-2e-05	-1e-05	0	4e-05	8e-05	0.00024	-0.00012	0	2
34441	-2e-05	-1e-05	0	4e-05	8e-05	0.00024	-0.00012	0	2
34442	-2e-05	-1e-05	0	4e-05	8e-05	0.00024	-0.00012	0	2
34443	5e-05	8e-05	0.00017	0.00015	8e-05	0.00024	8e-05	-1e-05	2
34444	5e-05	8e-05	0.00017	0.00015	8e-05	0.00024	8e-05	-1e-05	2
34445	-5e-05	-7e-05	-0.00023	-0.00029	-0.00014	-0.00066	-5e-05	0	2
34446	-5e-05	-7e-05	-0.00023	-0.00029	-0.00014	-0.00066	-5e-05	0	2
34447	-5e-05	-7e-05	-0.00023	-0.00029	-0.00014	-0.00066	-5e-05	0	2
34448	-5e-05	-7e-05	-0.00023	-0.00029	-0.00014	-0.00066	-5e-05	0	2
34449	-5e-05	-7e-05	-0.00023	-0.00029	-0.00014	-0.00066	-5e-05	0	2
34450	-5e-05	-7e-05	-0.00023	-0.00029	-0.00014	-0.00066	-5e-05	0	2
34451	-5e-05	-7e-05	-0.00023	-0.00029	-0.00014	-0.00066	-5e-05	0	2
34452	-5e-05	-7e-05	-0.00023	-0.00029	-0.00014	-0.00066	-5e-05	0	2
34453	-5e-05	-7e-05	-0.00023	-0.00029	-0.00014	-0.00066	-5e-05	0	2
34454	-5e-05	-7e-05	-0.00023	-0.00029	-0.00014	-0.00066	-5e-05	0	2
34455	-5e-05	-7e-05	-0.00023	-0.00029	-0.00014	-0.00066	-5e-05	0	2
34456	-5e-05	-7e-05	-0.00023	-0.00029	-0.00014	-0.00066	-5e-05	0	2
34457	-5e-05	-7e-05	-0.00023	-0.00029	-0.00014	-0.00066	-5e-05	0	2
34458	-5e-05	-7e-05	-0.00023	-0.00029	-0.00014	-0.00066	-5e-05	0	2
34459	-5e-05	-7e-05	-0.00023	-0.00029	-0.00014	-0.00066	-5e-05	0	2
34460	-5e-05	-7e-05	-0.00023	-0.00029	-0.00014	-0.00066	-5e-05	0	2
34461	-5e-05	-7e-05	-0.00023	-0.00029	-0.00014	-0.00066	-5e-05	0	2
34462	-5e-05	-7e-05	-0.00023	-0.00029	-0.00014	-0.00066	-5e-05	0	2
34463	-5e-05	-7e-05	-0.00023	-0.00029	-0.00014	-0.00066	-5e-05	0	2
34464	-5e-05	-7e-05	-0.00023	-0.00029	-0.00014	-0.00066	-5e-05	0	2
34465	-0.00017	-0.00013	-0.00028	-0.00014	-0.00013	-0.00044	-0.0004	-0.00014	2
34466	-2e-05	-1e-05	7e-05	2e-05	-9e-05	-0.00025	0.00012	-7e-05	2
34467	-2e-05	-1e-05	7e-05	2e-05	-9e-05	-0.00025	0.00012	-7e-05	2
34468	-2e-05	-1e-05	7e-05	2e-05	-9e-05	-0.00025	0.00012	-7e-05	2
34469	-2e-05	-1e-05	7e-05	2e-05	-9e-05	-0.00025	0.00012	-7e-05	2
34470	-2e-05	-1e-05	7e-05	2e-05	-9e-05	-0.00025	0.00012	-7e-05	2
34471	-2e-05	-1e-05	7e-05	2e-05	-9e-05	-0.00025	0.00012	-7e-05	2
34472	-2e-05	-1e-05	7e-05	2e-05	-9e-05	-0.00025	0.00012	-7e-05	2
34473	-2e-05	-1e-05	7e-05	2e-05	-9e-05	-0.00025	0.00012	-7e-05	2
34474	-2e-05	-1e-05	7e-05	2e-05	-9e-05	-0.00025	0.00012	-7e-05	2
34475	-2e-05	-1e-05	7e-05	2e-05	-9e-05	-0.00025	0.00012	-7e-05	2
34476	-2e-05	-1e-05	7e-05	2e-05	-9e-05	-0.00025	0.00012	-7e-05	2
34477	-2e-05	-1e-05	7e-05	2e-05	-9e-05	-0.00025	0.00012	-7e-05	2
34478	-2e-05	-1e-05	7e-05	2e-05	-9e-05	-0.00025	0.00012	-7e-05	2
34479	-2e-05	-1e-05	7e-05	2e-05	-9e-05	-0.00025	0.00012	-7e-05	2
34480	-2e-05	-1e-05	7e-05	2e-05	-9e-05	-0.00025	0.00012	-7e-05	2
34481	-2e-05	-1e-05	7e-05	2e-05	-9e-05	-0.00025	0.00012	-7e-05	2
34482	-2e-05	-1e-05	7e-05	2e-05	-9e-05	-0.00025	0.00012	-7e-05	2
34483	-2e-05	-1e-05	7e-05	2e-05	-9e-05	-0.00025	0.00012	-7e-05	2
34484	-2e-05	-1e-05	7e-05	2e-05	-9e-05	-0.00025	0.00012	-7e-05	2
34485	-2e-05	-1e-05	7e-05	2e-05	-9e-05	-0.00025	0.00012	-7e-05	2
34486	-2e-05	-1e-05	7e-05	2e-05	-9e-05	-0.00025	0.00012	-7e-05	2
34489	-3e-05	-2e-05	0.00013	-2e-05	-0.00024	-0.00032	-0.00029	-1e-05	2
34490	-3e-05	-2e-05	0.00013	-2e-05	-0.00024	-0.00032	-0.00029	-1e-05	2
34491	-3e-05	-2e-05	0.00013	-2e-05	-0.00024	-0.00032	-0.00029	-1e-05	2
34492	-3e-05	-2e-05	0.00013	-2e-05	-0.00024	-0.00032	-0.00029	-1e-05	2
34493	-3e-05	-2e-05	0.00013	-2e-05	-0.00024	-0.00032	-0.00029	-1e-05	2
34494	-3e-05	-2e-05	0.00013	-2e-05	-0.00024	-0.00032	-0.00029	-1e-05	2
34495	-3e-05	-2e-05	0.00013	-2e-05	-0.00024	-0.00032	-0.00029	-1e-05	2
34496	-3e-05	-2e-05	0.00013	-2e-05	-0.00024	-0.00032	-0.00029	-1e-05	2
34497	-3e-05	-2e-05	0.00013	-2e-05	-0.00024	-0.00032	-0.00029	-1e-05	2
34498	-3e-05	-2e-05	0.00013	-2e-05	-0.00024	-0.00032	-0.00029	-1e-05	2
34499	-3e-05	-2e-05	0.00013	-2e-05	-0.00024	-0.00032	-0.00029	-1e-05	2
34500	-3e-05	-2e-05	0.00013	-2e-05	-0.00024	-0.00032	-0.00029	-1e-05	2
34501	-3e-05	-2e-05	0.00013	-2e-05	-0.00024	-0.00032	-0.00029	-1e-05	2
34502	-3e-05	-2e-05	0.00013	-2e-05	-0.00024	-0.00032	-0.00029	-1e-05	2
34503	-3e-05	-2e-05	0.00013	-2e-05	-0.00024	-0.00032	-0.00029	-1e-05	2
34504	-3e-05	-2e-05	0.00013	-2e-05	-0.00024	-0.00032	-0.00029	-1e-05	2
34505	-3e-05	-2e-05	0.00013	-2e-05	-0.00024	-0.00032	-0.00029	-1e-05	2
34506	-3e-05	-2e-05	0.00013	-2e-05	-0.00024	-0.00032	-0.00029	-1e-05	2
34507	-3e-05	-2e-05	0.00013	-2e-05	-0.00024	-0.00032	-0.00029	-1e-05	2
34508	-3e-05	-2e-05	0.00013	-2e-05	-0.00024	-0.00032	-0.00029	-1e-05	2
34509	-3e-05	-0.0001	-0.00053	-0.00033	0.00011	8e-05	0.00015	-4e-05	2
34510	0.00017	8e-05	0.00018	0	-0.00021	0.00029	8e-05	0.00019	2
34511	0.00017	8e-05	0.00018	0	-0.00021	0.00029	8e-05	0.00019	2
34512	0.00017	8e-05	0.00018	0	-0.00021	0.00029	8e-05	0.00019	2
34513	0.00017	8e-05	0.00018	0	-0.00021	0.00029	8e-05	0.00019	2
34514	0.00017	8e-05	0.00018	0	-0.00021	0.00029	8e-05	0.00019	2
34515	0.00017	8e-05	0.00018	0	-0.00021	0.00029	8e-05	0.00019	2
34516	0.00017	8e-05	0.00018	0	-0.00021	0.00029	8e-05	0.00019	2
34517	0.00017	8e-05	0.00018	0	-0.00021	0.00029	8e-05	0.00019	2
34518	0.00017	8e-05	0.00018	0	-0.00021	0.00029	8e-05	0.00019	2
34519	0.00017	8e-05	0.00018	0	-0.00021	0.00029	8e-05	0.00019	2
34520	0.00017	8e-05	0.00018	0	-0.00021	0.00029	8e-05	0.00019	2
34521	0.00017	8e-05	0.00018	0	-0.00021	0.00029	8e-05	0.00019	2
34522	0.00017	8e-05	0.00018	0	-0.00021	0.00029	8e-05	0.00019	2
34523	0.00017	8e-05	0.00018	0	-0.00021	0.00029	8e-05	0.00019	2
34524	5e-05	-2e-05	-1e-05	-8e-05	-0.0001	-0.00026	-5e-05	0	2
34525	-0.00015	-7e-05	-3e-05	-0.00011	-0.00015	-0.00062	-0.00018	-0.00012	2
34526	-0.00015	-7e-05	-3e-05	-0.00011	-0.00015	-0.00062	-0.00018	-0.00012	2
34527	-0.00015	-7e-05	-3e-05	-0.00011	-0.00015	-0.00062	-0.00018	-0.00012	2
34528	-0.00015	-7e-05	-3e-05	-0.00011	-0.00015	-0.00062	-0.00018	-0.00012	2
34529	-0.00015	-7e-05	-3e-05	-0.00011	-0.00015	-0.00062	-0.00018	-0.00012	2
34530	-0.00015	-7e-05	-3e-05	-0.00011	-0.00015	-0.00062	-0.00018	-0.00012	2
34531	-0.00015	-7e-05	-3e-05	-0.00011	-0.00015	-0.00062	-0.00018	-0.00012	2
34532	-0.00015	-7e-05	-3e-05	-0.00011	-0.00015	-0.00062	-0.00018	-0.00012	2
34533	-0.00015	-7e-05	-3e-05	-0.00011	-0.00015	-0.00062	-0.00018	-0.00012	2
34534	-0.00015	-7e-05	-3e-05	-0.00011	-0.00015	-0.00062	-0.00018	-0.00012	2
34535	-0.00015	-7e-05	-3e-05	-0.00011	-0.00015	-0.00062	-0.00018	-0.00012	2
34536	-0.00015	-7e-05	-3e-05	-0.00011	-0.00015	-0.00062	-0.00018	-0.00012	2
34538	-0.00015	-7e-05	-3e-05	-0.00011	-0.00015	-0.00062	-0.00018	-0.00012	2
34539	-0.00015	-7e-05	-3e-05	-0.00011	-0.00015	-0.00062	-0.00018	-0.00012	2
34540	-0.00015	-7e-05	-3e-05	-0.00011	-0.00015	-0.00062	-0.00018	-0.00012	2
34541	-0.00015	-7e-05	-3e-05	-0.00011	-0.00015	-0.00062	-0.00018	-0.00012	2
34542	-0.00015	-7e-05	-3e-05	-0.00011	-0.00015	-0.00062	-0.00018	-0.00012	2
34543	-0.00015	-7e-05	-3e-05	-0.00011	-0.00015	-0.00062	-0.00018	-0.00012	2
34544	-0.00015	-7e-05	-3e-05	-0.00011	-0.00015	-0.00062	-0.00018	-0.00012	2
34545	-0.00015	-7e-05	-3e-05	-0.00011	-0.00015	-0.00062	-0.00018	-0.00012	2
34546	-0.00015	-7e-05	-3e-05	-0.00011	-0.00015	-0.00062	-0.00018	-0.00012	2
34547	-0.00015	-7e-05	-3e-05	-0.00011	-0.00015	-0.00062	-0.00018	-0.00012	2
34548	-0.00015	-7e-05	-3e-05	-0.00011	-0.00015	-0.00062	-0.00018	-0.00012	2
34549	-0.00015	-7e-05	-3e-05	-0.00011	-0.00015	-0.00062	-0.00018	-0.00012	2
34550	-0.00015	-7e-05	-3e-05	-0.00011	-0.00015	-0.00062	-0.00018	-0.00012	2
34551	-0.00015	-7e-05	-3e-05	-0.00011	-0.00015	-0.00062	-0.00018	-0.00012	2
34552	-0.00015	-7e-05	-3e-05	-0.00011	-0.00015	-0.00062	-0.00018	-0.00012	2
34553	-0.00015	-7e-05	-3e-05	-0.00011	-0.00015	-0.00062	-0.00018	-0.00012	2
34554	-0.00015	-7e-05	-3e-05	-0.00011	-0.00015	-0.00062	-0.00018	-0.00012	2
34555	-0.00015	-7e-05	-3e-05	-0.00011	-0.00015	-0.00062	-0.00018	-0.00012	2
34556	-0.00015	-7e-05	-3e-05	-0.00011	-0.00015	-0.00062	-0.00018	-0.00012	2
34557	-0.00015	-7e-05	-3e-05	-0.00011	-0.00015	-0.00062	-0.00018	-0.00012	2
34558	-0.00015	-7e-05	-3e-05	-0.00011	-0.00015	-0.00062	-0.00018	-0.00012	2
34559	-0.00015	-7e-05	-3e-05	-0.00011	-0.00015	-0.00062	-0.00018	-0.00012	2
34560	-0.00015	-7e-05	-3e-05	-0.00011	-0.00015	-0.00062	-0.00018	-0.00012	2
34561	2e-05	-4e-05	-0.0001	8e-05	0.00022	7e-05	-3e-05	-2e-05	2
34562	2e-05	-4e-05	-0.0001	8e-05	0.00022	7e-05	-3e-05	-2e-05	2
34563	2e-05	-4e-05	-0.0001	8e-05	0.00022	7e-05	-3e-05	-2e-05	2
34564	2e-05	-4e-05	-0.0001	8e-05	0.00022	7e-05	-3e-05	-2e-05	2
34565	2e-05	-4e-05	-0.0001	8e-05	0.00022	7e-05	-3e-05	-2e-05	2
34566	2e-05	-4e-05	-0.0001	8e-05	0.00022	7e-05	-3e-05	-2e-05	2
34567	2e-05	-4e-05	-0.0001	8e-05	0.00022	7e-05	-3e-05	-2e-05	2
34568	2e-05	-4e-05	-0.0001	8e-05	0.00022	7e-05	-3e-05	-2e-05	2
34569	2e-05	-4e-05	-0.0001	8e-05	0.00022	7e-05	-3e-05	-2e-05	2
34570	2e-05	-4e-05	-0.0001	8e-05	0.00022	7e-05	-3e-05	-2e-05	2
34571	2e-05	-4e-05	-0.0001	8e-05	0.00022	7e-05	-3e-05	-2e-05	2
34572	2e-05	-4e-05	-0.0001	8e-05	0.00022	7e-05	-3e-05	-2e-05	2
34573	2e-05	-4e-05	-0.0001	8e-05	0.00022	7e-05	-3e-05	-2e-05	2
34574	2e-05	-4e-05	-0.0001	8e-05	0.00022	7e-05	-3e-05	-2e-05	2
34575	2e-05	-4e-05	-0.0001	8e-05	0.00022	7e-05	-3e-05	-2e-05	2
34576	2e-05	-4e-05	-0.0001	8e-05	0.00022	7e-05	-3e-05	-2e-05	2
34577	2e-05	-4e-05	-0.0001	8e-05	0.00022	7e-05	-3e-05	-2e-05	2
34578	8e-05	6e-05	9e-05	0.00012	-3e-05	-0.00022	-0.00022	-2e-05	2
34579	8e-05	6e-05	9e-05	0.00012	-3e-05	-0.00022	-0.00022	-2e-05	2
34580	8e-05	7e-05	8e-05	0	1e-05	0.00063	0.00031	1e-05	2
34581	-7e-05	-2e-05	-0.00011	7e-05	6e-05	-9e-05	-5e-05	8e-05	2
34582	-7e-05	-2e-05	-0.00011	7e-05	6e-05	-9e-05	-5e-05	8e-05	2
34583	-7e-05	-2e-05	-0.00011	7e-05	6e-05	-9e-05	-5e-05	8e-05	2
34584	-7e-05	-2e-05	-0.00011	7e-05	6e-05	-9e-05	-5e-05	8e-05	2
34585	-8e-05	-0.00011	-0.00021	0.00041	0.0001	-0.00018	2e-05	-5e-05	2
34586	0	3e-05	0.00016	8e-05	-3e-05	-0.00012	-0.00015	-4e-05	2
34588	0	3e-05	0.00016	8e-05	-3e-05	-0.00012	-0.00015	-4e-05	2
34589	0	3e-05	0.00016	8e-05	-3e-05	-0.00012	-0.00015	-4e-05	2
34590	0	3e-05	0.00016	8e-05	-3e-05	-0.00012	-0.00015	-4e-05	2
34591	0	3e-05	0.00016	8e-05	-3e-05	-0.00012	-0.00015	-4e-05	2
34592	0	3e-05	0.00016	8e-05	-3e-05	-0.00012	-0.00015	-4e-05	2
34593	0	3e-05	0.00016	8e-05	-3e-05	-0.00012	-0.00015	-4e-05	2
34594	0	3e-05	0.00016	8e-05	-3e-05	-0.00012	-0.00015	-4e-05	2
34595	0	3e-05	0.00016	8e-05	-3e-05	-0.00012	-0.00015	-4e-05	2
34596	0	3e-05	0.00016	8e-05	-3e-05	-0.00012	-0.00015	-4e-05	2
34597	0	3e-05	0.00016	8e-05	-3e-05	-0.00012	-0.00015	-4e-05	2
34598	0	3e-05	0.00016	8e-05	-3e-05	-0.00012	-0.00015	-4e-05	2
34599	0	3e-05	0.00016	8e-05	-3e-05	-0.00012	-0.00015	-4e-05	2
34600	0	3e-05	0.00016	8e-05	-3e-05	-0.00012	-0.00015	-4e-05	2
34601	0	3e-05	0.00016	8e-05	-3e-05	-0.00012	-0.00015	-4e-05	2
34602	0	3e-05	0.00016	8e-05	-3e-05	-0.00012	-0.00015	-4e-05	2
34603	0	3e-05	0.00016	8e-05	-3e-05	-0.00012	-0.00015	-4e-05	2
34604	0	3e-05	0.00016	8e-05	-3e-05	-0.00012	-0.00015	-4e-05	2
34605	0	3e-05	0.00016	8e-05	-3e-05	-0.00012	-0.00015	-4e-05	2
34606	0	3e-05	0.00016	8e-05	-3e-05	-0.00012	-0.00015	-4e-05	2
34607	8e-05	5e-05	0.0001	0.0001	-0.00013	-7e-05	1e-05	-2e-05	2
34608	-7e-05	-2e-05	-2e-05	8e-05	0.00018	0.0002	-0.00014	-3e-05	2
34609	-7e-05	-2e-05	-2e-05	8e-05	0.00018	0.0002	-0.00014	-3e-05	2
34610	-7e-05	-2e-05	-2e-05	8e-05	0.00018	0.0002	-0.00014	-3e-05	2
34611	-7e-05	-2e-05	-2e-05	8e-05	0.00018	0.0002	-0.00014	-3e-05	2
34612	-7e-05	-2e-05	-2e-05	8e-05	0.00018	0.0002	-0.00014	-3e-05	2
34613	-7e-05	-2e-05	-2e-05	8e-05	0.00018	0.0002	-0.00014	-3e-05	2
34614	-7e-05	-2e-05	-2e-05	8e-05	0.00018	0.0002	-0.00014	-3e-05	2
34615	-7e-05	-2e-05	-2e-05	8e-05	0.00018	0.0002	-0.00014	-3e-05	2
34616	-7e-05	-2e-05	-2e-05	8e-05	0.00018	0.0002	-0.00014	-3e-05	2
34617	-7e-05	-2e-05	-2e-05	8e-05	0.00018	0.0002	-0.00014	-3e-05	2
34618	-7e-05	-2e-05	-2e-05	8e-05	0.00018	0.0002	-0.00014	-3e-05	2
34619	-7e-05	-2e-05	-2e-05	8e-05	0.00018	0.0002	-0.00014	-3e-05	2
34620	-7e-05	-2e-05	-2e-05	8e-05	0.00018	0.0002	-0.00014	-3e-05	2
34621	-7e-05	-2e-05	-2e-05	8e-05	0.00018	0.0002	-0.00014	-3e-05	2
34622	-7e-05	-2e-05	-2e-05	8e-05	0.00018	0.0002	-0.00014	-3e-05	2
34623	3e-05	7e-05	6e-05	-0.00014	3e-05	-0.00036	6e-05	-3e-05	2
34624	3e-05	7e-05	6e-05	-0.00014	3e-05	-0.00036	6e-05	-3e-05	2
34625	3e-05	7e-05	6e-05	-0.00014	3e-05	-0.00036	6e-05	-3e-05	2
34626	3e-05	7e-05	6e-05	-0.00014	3e-05	-0.00036	6e-05	-3e-05	2
34627	3e-05	7e-05	6e-05	-0.00014	3e-05	-0.00036	6e-05	-3e-05	2
34628	3e-05	7e-05	6e-05	-0.00014	3e-05	-0.00036	6e-05	-3e-05	2
34629	3e-05	7e-05	6e-05	-0.00014	3e-05	-0.00036	6e-05	-3e-05	2
34630	3e-05	7e-05	6e-05	-0.00014	3e-05	-0.00036	6e-05	-3e-05	2
34631	3e-05	7e-05	6e-05	-0.00014	3e-05	-0.00036	6e-05	-3e-05	2
34632	3e-05	7e-05	6e-05	-0.00014	3e-05	-0.00036	6e-05	-3e-05	2
34633	3e-05	7e-05	6e-05	-0.00014	3e-05	-0.00036	6e-05	-3e-05	2
34634	3e-05	7e-05	6e-05	-0.00014	3e-05	-0.00036	6e-05	-3e-05	2
34635	3e-05	7e-05	6e-05	-0.00014	3e-05	-0.00036	6e-05	-3e-05	2
34636	3e-05	7e-05	6e-05	-0.00014	3e-05	-0.00036	6e-05	-3e-05	2
34638	3e-05	7e-05	6e-05	-0.00014	3e-05	-0.00036	6e-05	-3e-05	2
34639	3e-05	7e-05	6e-05	-0.00014	3e-05	-0.00036	6e-05	-3e-05	2
34640	3e-05	7e-05	6e-05	-0.00014	3e-05	-0.00036	6e-05	-3e-05	2
34641	3e-05	7e-05	6e-05	-0.00014	3e-05	-0.00036	6e-05	-3e-05	2
34642	3e-05	7e-05	6e-05	-0.00014	3e-05	-0.00036	6e-05	-3e-05	2
34643	3e-05	7e-05	6e-05	-0.00014	3e-05	-0.00036	6e-05	-3e-05	2
34644	0	2e-05	-0.00011	-0.00014	0.00023	0.00052	0.00027	1e-05	2
34645	-9e-05	-0.00013	4e-05	-2e-05	9e-05	-2e-05	-0.00028	-0.00011	2
34646	-9e-05	-0.00013	4e-05	-2e-05	9e-05	-2e-05	-0.00028	-0.00011	2
34647	-9e-05	-0.00013	4e-05	-2e-05	9e-05	-2e-05	-0.00028	-0.00011	2
34648	-9e-05	-0.00013	4e-05	-2e-05	9e-05	-2e-05	-0.00028	-0.00011	2
34649	-9e-05	-0.00013	4e-05	-2e-05	9e-05	-2e-05	-0.00028	-0.00011	2
34650	-9e-05	-0.00013	4e-05	-2e-05	9e-05	-2e-05	-0.00028	-0.00011	2
34651	-9e-05	-0.00013	4e-05	-2e-05	9e-05	-2e-05	-0.00028	-0.00011	2
34652	-9e-05	-0.00013	4e-05	-2e-05	9e-05	-2e-05	-0.00028	-0.00011	2
34653	-9e-05	-0.00013	4e-05	-2e-05	9e-05	-2e-05	-0.00028	-0.00011	2
34654	-9e-05	-0.00013	4e-05	-2e-05	9e-05	-2e-05	-0.00028	-0.00011	2
34655	-9e-05	-0.00013	4e-05	-2e-05	9e-05	-2e-05	-0.00028	-0.00011	2
34656	-9e-05	-0.00013	4e-05	-2e-05	9e-05	-2e-05	-0.00028	-0.00011	2
34657	-9e-05	-0.00013	4e-05	-2e-05	9e-05	-2e-05	-0.00028	-0.00011	2
34658	-9e-05	-0.00013	4e-05	-2e-05	9e-05	-2e-05	-0.00028	-0.00011	2
34659	-9e-05	-0.00013	4e-05	-2e-05	9e-05	-2e-05	-0.00028	-0.00011	2
34660	-9e-05	-0.00013	4e-05	-2e-05	9e-05	-2e-05	-0.00028	-0.00011	2
34661	-9e-05	-0.00013	4e-05	-2e-05	9e-05	-2e-05	-0.00028	-0.00011	2
34662	-9e-05	-0.00013	4e-05	-2e-05	9e-05	-2e-05	-0.00028	-0.00011	2
34663	-9e-05	-0.00013	4e-05	-2e-05	9e-05	-2e-05	-0.00028	-0.00011	2
34664	-9e-05	-0.00013	4e-05	-2e-05	9e-05	-2e-05	-0.00028	-0.00011	2
34665	-9e-05	-0.00013	4e-05	-2e-05	9e-05	-2e-05	-0.00028	-0.00011	2
34666	-9e-05	-0.00013	4e-05	-2e-05	9e-05	-2e-05	-0.00028	-0.00011	2
34667	2e-05	9e-05	0.00025	-0.00011	0	0.00032	6e-05	0	2
34668	2e-05	-2e-05	4e-05	-0.00015	-0.00018	0	3e-05	-5e-05	2
34669	2e-05	-2e-05	4e-05	-0.00015	-0.00018	0	3e-05	-5e-05	2
34670	2e-05	-2e-05	4e-05	-0.00015	-0.00018	0	3e-05	-5e-05	2
34671	2e-05	-2e-05	4e-05	-0.00015	-0.00018	0	3e-05	-5e-05	2
34672	2e-05	-2e-05	4e-05	-0.00015	-0.00018	0	3e-05	-5e-05	2
34673	2e-05	-2e-05	4e-05	-0.00015	-0.00018	0	3e-05	-5e-05	2
34674	2e-05	-2e-05	4e-05	-0.00015	-0.00018	0	3e-05	-5e-05	2
34675	2e-05	-2e-05	4e-05	-0.00015	-0.00018	0	3e-05	-5e-05	2
34676	2e-05	-2e-05	4e-05	-0.00015	-0.00018	0	3e-05	-5e-05	2
34677	2e-05	-2e-05	4e-05	-0.00015	-0.00018	0	3e-05	-5e-05	2
34678	2e-05	-2e-05	4e-05	-0.00015	-0.00018	0	3e-05	-5e-05	2
34679	2e-05	-2e-05	4e-05	-0.00015	-0.00018	0	3e-05	-5e-05	2
34680	2e-05	-2e-05	4e-05	-0.00015	-0.00018	0	3e-05	-5e-05	2
34681	-6e-05	-7e-05	0.00011	6e-05	-0.00038	-0.00075	-0.0004	-2e-05	2
34682	8e-05	5e-05	5e-05	0.00014	0.00035	0.00109	0.00047	9e-05	2
34683	8e-05	5e-05	5e-05	0.00014	0.00035	0.00109	0.00047	9e-05	2
34684	8e-05	5e-05	5e-05	0.00014	0.00035	0.00109	0.00047	9e-05	2
34685	8e-05	5e-05	5e-05	0.00014	0.00035	0.00109	0.00047	9e-05	2
34686	8e-05	5e-05	5e-05	0.00014	0.00035	0.00109	0.00047	9e-05	2
34688	8e-05	5e-05	5e-05	0.00014	0.00035	0.00109	0.00047	9e-05	2
34689	8e-05	5e-05	5e-05	0.00014	0.00035	0.00109	0.00047	9e-05	2
34690	8e-05	5e-05	5e-05	0.00014	0.00035	0.00109	0.00047	9e-05	2
34691	8e-05	5e-05	5e-05	0.00014	0.00035	0.00109	0.00047	9e-05	2
34692	8e-05	5e-05	5e-05	0.00014	0.00035	0.00109	0.00047	9e-05	2
34693	8e-05	5e-05	5e-05	0.00014	0.00035	0.00109	0.00047	9e-05	2
34694	8e-05	5e-05	5e-05	0.00014	0.00035	0.00109	0.00047	9e-05	2
34695	8e-05	5e-05	5e-05	0.00014	0.00035	0.00109	0.00047	9e-05	2
34696	8e-05	5e-05	5e-05	0.00014	0.00035	0.00109	0.00047	9e-05	2
34697	8e-05	5e-05	5e-05	0.00014	0.00035	0.00109	0.00047	9e-05	2
34698	8e-05	5e-05	5e-05	0.00014	0.00035	0.00109	0.00047	9e-05	2
34699	8e-05	5e-05	5e-05	0.00014	0.00035	0.00109	0.00047	9e-05	2
34700	8e-05	5e-05	5e-05	0.00014	0.00035	0.00109	0.00047	9e-05	2
34701	8e-05	5e-05	5e-05	0.00014	0.00035	0.00109	0.00047	9e-05	2
34702	8e-05	5e-05	5e-05	0.00014	0.00035	0.00109	0.00047	9e-05	2
34703	8e-05	5e-05	5e-05	0.00014	0.00035	0.00109	0.00047	9e-05	2
34704	1e-05	1e-05	0.00011	0.0001	3e-05	-0.00025	-0.00021	-9e-05	2
34705	-4e-05	-4e-05	-0.00014	0.00011	0.00024	0.00052	0.00021	2e-05	2
34706	-4e-05	-4e-05	-0.00014	0.00011	0.00024	0.00052	0.00021	2e-05	2
34707	-4e-05	-4e-05	-0.00014	0.00011	0.00024	0.00052	0.00021	2e-05	2
34708	-4e-05	-4e-05	-0.00014	0.00011	0.00024	0.00052	0.00021	2e-05	2
34709	-4e-05	-4e-05	-0.00014	0.00011	0.00024	0.00052	0.00021	2e-05	2
34710	-4e-05	-4e-05	-0.00014	0.00011	0.00024	0.00052	0.00021	2e-05	2
34711	-4e-05	-4e-05	-0.00014	0.00011	0.00024	0.00052	0.00021	2e-05	2
34712	-4e-05	-4e-05	-0.00014	0.00011	0.00024	0.00052	0.00021	2e-05	2
34713	-4e-05	-4e-05	-0.00014	0.00011	0.00024	0.00052	0.00021	2e-05	2
34714	-4e-05	-4e-05	-0.00014	0.00011	0.00024	0.00052	0.00021	2e-05	2
34715	-4e-05	-4e-05	-0.00014	0.00011	0.00024	0.00052	0.00021	2e-05	2
34716	-4e-05	-4e-05	-0.00014	0.00011	0.00024	0.00052	0.00021	2e-05	2
34717	-4e-05	-4e-05	-0.00014	0.00011	0.00024	0.00052	0.00021	2e-05	2
34718	-4e-05	-4e-05	-0.00014	0.00011	0.00024	0.00052	0.00021	2e-05	2
34719	-4e-05	-4e-05	-0.00014	0.00011	0.00024	0.00052	0.00021	2e-05	2
34720	-4e-05	-4e-05	-0.00014	0.00011	0.00024	0.00052	0.00021	2e-05	2
34721	-4e-05	-4e-05	-0.00014	0.00011	0.00024	0.00052	0.00021	2e-05	2
34722	-4e-05	-4e-05	-0.00014	0.00011	0.00024	0.00052	0.00021	2e-05	2
34723	-4e-05	-4e-05	-0.00014	0.00011	0.00024	0.00052	0.00021	2e-05	2
