20840	2e-05	-7e-05	-6e-05	0.00012	-5e-05	-0.00024	-7e-05	-2e-05	5
20841	2e-05	-7e-05	-6e-05	0.00012	-5e-05	-0.00024	-7e-05	-2e-05	5
20842	2e-05	-7e-05	-6e-05	0.00012	-5e-05	-0.00024	-7e-05	-2e-05	5
20843	0	-3e-05	-3e-05	0.00027	0.0002	9e-05	3e-05	2e-05	5
20844	0	-3e-05	-3e-05	0.00027	0.0002	9e-05	3e-05	2e-05	5
20845	0	-3e-05	-3e-05	0.00027	0.0002	9e-05	3e-05	2e-05	5
20846	0	-3e-05	-3e-05	0.00027	0.0002	9e-05	3e-05	2e-05	5
20847	0	-3e-05	-3e-05	0.00027	0.0002	9e-05	3e-05	2e-05	5
20848	0	-3e-05	-3e-05	0.00027	0.0002	9e-05	3e-05	2e-05	5
20849	0	-3e-05	-3e-05	0.00027	0.0002	9e-05	3e-05	2e-05	5
20850	0	-3e-05	-3e-05	0.00027	0.0002	9e-05	3e-05	2e-05	5
20851	0	-3e-05	-3e-05	0.00027	0.0002	9e-05	3e-05	2e-05	5
20852	0	-3e-05	-3e-05	0.00027	0.0002	9e-05	3e-05	2e-05	5
20853	0	-3e-05	-3e-05	0.00027	0.0002	9e-05	3e-05	2e-05	5
20854	0	-3e-05	-3e-05	0.00027	0.0002	9e-05	3e-05	2e-05	5
20855	0	-3e-05	-3e-05	0.00027	0.0002	9e-05	3e-05	2e-05	5
20856	0	-3e-05	-3e-05	0.00027	0.0002	9e-05	3e-05	2e-05	5
20857	0	-3e-05	-3e-05	0.00027	0.0002	9e-05	3e-05	2e-05	5
20858	0	-3e-05	-3e-05	0.00027	0.0002	9e-05	3e-05	2e-05	5
20859	-0.0001	4e-05	7e-05	-0.00065	-0.00053	3e-05	-1e-05	4e-05	5
20860	-0.0001	4e-05	7e-05	-0.00065	-0.00053	3e-05	-1e-05	4e-05	5
20861	-0.0001	4e-05	7e-05	-0.00065	-0.00053	3e-05	-1e-05	4e-05	5
20862	-0.0001	4e-05	7e-05	-0.00065	-0.00053	3e-05	-1e-05	4e-05	5
20863	-0.0001	4e-05	7e-05	-0.00065	-0.00053	3e-05	-1e-05	4e-05	5
20864	-0.0001	4e-05	7e-05	-0.00065	-0.00053	3e-05	-1e-05	4e-05	5
20865	-0.0001	4e-05	7e-05	-0.00065	-0.00053	3e-05	-1e-05	4e-05	5
20866	-0.0001	4e-05	7e-05	-0.00065	-0.00053	3e-05	-1e-05	4e-05	5
20867	-6e-05	-7e-05	-0.00019	0.00019	0.00016	-3e-05	-6e-05	-4e-05	5
20868	-5e-05	-3e-05	7e-05	0.0003	0.00014	5e-05	-1e-05	-5e-05	5
20869	-5e-05	-3e-05	7e-05	0.0003	0.00014	5e-05	-1e-05	-5e-05	5
20870	-5e-05	-3e-05	7e-05	0.0003	0.00014	5e-05	-1e-05	-5e-05	5
20871	-5e-05	-3e-05	7e-05	0.0003	0.00014	5e-05	-1e-05	-5e-05	5
20872	-5e-05	-3e-05	7e-05	0.0003	0.00014	5e-05	-1e-05	-5e-05	5
20873	-5e-05	-3e-05	7e-05	0.0003	0.00014	5e-05	-1e-05	-5e-05	5
20874	-5e-05	-3e-05	7e-05	0.0003	0.00014	5e-05	-1e-05	-5e-05	5
20875	-5e-05	-3e-05	7e-05	0.0003	0.00014	5e-05	-1e-05	-5e-05	5
20876	-5e-05	-3e-05	7e-05	0.0003	0.00014	5e-05	-1e-05	-5e-05	5
20877	-5e-05	-3e-05	7e-05	0.0003	0.00014	5e-05	-1e-05	-5e-05	5
20878	-5e-05	-3e-05	7e-05	0.0003	0.00014	5e-05	-1e-05	-5e-05	5
20879	-5e-05	-3e-05	7e-05	0.0003	0.00014	5e-05	-1e-05	-5e-05	5
20880	-5e-05	-3e-05	7e-05	0.0003	0.00014	5e-05	-1e-05	-5e-05	5
20881	-5e-05	-3e-05	7e-05	0.0003	0.00014	5e-05	-1e-05	-5e-05	5
20882	-5e-05	-3e-05	7e-05	0.0003	0.00014	5e-05	-1e-05	-5e-05	5
20883	-5e-05	-3e-05	7e-05	0.0003	0.00014	5e-05	-1e-05	-5e-05	5
20884	-5e-05	-3e-05	7e-05	0.0003	0.00014	5e-05	-1e-05	-5e-05	5
20885	-5e-05	-3e-05	7e-05	0.0003	0.00014	5e-05	-1e-05	-5e-05	5
20886	-5e-05	-3e-05	7e-05	0.0003	0.00014	5e-05	-1e-05	-5e-05	5
20888	-5e-05	-3e-05	7e-05	0.0003	0.00014	5e-05	-1e-05	-5e-05	5
20889	-5e-05	0	-0.00018	-0.00027	0.00018	0.00012	1e-05	-3e-05	5
20890	-5e-05	0	-0.00018	-0.00027	0.00018	0.00012	1e-05	-3e-05	5
20891	3e-05	0	2e-05	-0.00067	-0.00012	-0.00018	-4e-05	3e-05	5
20892	3e-05	0	2e-05	-0.00067	-0.00012	-0.00018	-4e-05	3e-05	5
20893	3e-05	0	2e-05	-0.00067	-0.00012	-0.00018	-4e-05	3e-05	5
20894	3e-05	0	2e-05	-0.00067	-0.00012	-0.00018	-4e-05	3e-05	5
20895	3e-05	0	2e-05	-0.00067	-0.00012	-0.00018	-4e-05	3e-05	5
20896	3e-05	0	2e-05	-0.00067	-0.00012	-0.00018	-4e-05	3e-05	5
20897	3e-05	0	2e-05	-0.00067	-0.00012	-0.00018	-4e-05	3e-05	5
20898	3e-05	0	2e-05	-0.00067	-0.00012	-0.00018	-4e-05	3e-05	5
20899	3e-05	0	2e-05	-0.00067	-0.00012	-0.00018	-4e-05	3e-05	5
20900	3e-05	0	2e-05	-0.00067	-0.00012	-0.00018	-4e-05	3e-05	5
20901	3e-05	0	2e-05	-0.00067	-0.00012	-0.00018	-4e-05	3e-05	5
20902	3e-05	0	2e-05	-0.00067	-0.00012	-0.00018	-4e-05	3e-05	5
20903	3e-05	0	2e-05	-0.00067	-0.00012	-0.00018	-4e-05	3e-05	5
20904	3e-05	0	2e-05	-0.00067	-0.00012	-0.00018	-4e-05	3e-05	5
20905	3e-05	0	2e-05	-0.00067	-0.00012	-0.00018	-4e-05	3e-05	5
20906	3e-05	0	2e-05	-0.00067	-0.00012	-0.00018	-4e-05	3e-05	5
20907	3e-05	0	2e-05	-0.00067	-0.00012	-0.00018	-4e-05	3e-05	5
20908	3e-05	0	2e-05	-0.00067	-0.00012	-0.00018	-4e-05	3e-05	5
20909	3e-05	0	2e-05	-0.00067	-0.00012	-0.00018	-4e-05	3e-05	5
20910	3e-05	0	2e-05	-0.00067	-0.00012	-0.00018	-4e-05	3e-05	5
20911	3e-05	0	2e-05	-0.00067	-0.00012	-0.00018	-4e-05	3e-05	5
20912	-6e-05	-5e-05	3e-05	-4e-05	-0.00028	-0.00026	-5e-05	-4e-05	5
20913	-2e-05	-9e-05	-0.00011	0.00033	0.00022	9e-05	3e-05	2e-05	5
20914	-2e-05	-9e-05	-0.00011	0.00033	0.00022	9e-05	3e-05	2e-05	5
20915	-2e-05	-9e-05	-0.00011	0.00033	0.00022	9e-05	3e-05	2e-05	5
20916	-2e-05	-9e-05	-0.00011	0.00033	0.00022	9e-05	3e-05	2e-05	5
20917	-2e-05	-9e-05	-0.00011	0.00033	0.00022	9e-05	3e-05	2e-05	5
20918	-2e-05	-9e-05	-0.00011	0.00033	0.00022	9e-05	3e-05	2e-05	5
20919	-2e-05	-9e-05	-0.00011	0.00033	0.00022	9e-05	3e-05	2e-05	5
20920	-2e-05	-9e-05	-0.00011	0.00033	0.00022	9e-05	3e-05	2e-05	5
20921	-2e-05	-9e-05	-0.00011	0.00033	0.00022	9e-05	3e-05	2e-05	5
20922	-2e-05	-9e-05	-0.00011	0.00033	0.00022	9e-05	3e-05	2e-05	5
20923	-2e-05	-9e-05	-0.00011	0.00033	0.00022	9e-05	3e-05	2e-05	5
20924	-2e-05	-9e-05	-0.00011	0.00033	0.00022	9e-05	3e-05	2e-05	5
20925	-2e-05	-9e-05	-0.00011	0.00033	0.00022	9e-05	3e-05	2e-05	5
20926	-2e-05	-9e-05	-0.00011	0.00033	0.00022	9e-05	3e-05	2e-05	5
20927	0.00011	-3e-05	-2e-05	-0.00045	-0.00022	-0.00027	-5e-05	5e-05	5
20928	3e-05	9e-05	1e-05	-0.00027	-0.00052	-0.00014	5e-05	5e-05	5
20929	3e-05	9e-05	1e-05	-0.00027	-0.00052	-0.00014	5e-05	5e-05	5
20930	3e-05	9e-05	1e-05	-0.00027	-0.00052	-0.00014	5e-05	5e-05	5
20931	3e-05	9e-05	1e-05	-0.00027	-0.00052	-0.00014	5e-05	5e-05	5
20932	3e-05	9e-05	1e-05	-0.00027	-0.00052	-0.00014	5e-05	5e-05	5
20933	3e-05	9e-05	1e-05	-0.00027	-0.00052	-0.00014	5e-05	5e-05	5
20934	3e-05	9e-05	1e-05	-0.00027	-0.00052	-0.00014	5e-05	5e-05	5
20935	3e-05	9e-05	1e-05	-0.00027	-0.00052	-0.00014	5e-05	5e-05	5
20936	3e-05	9e-05	1e-05	-0.00027	-0.00052	-0.00014	5e-05	5e-05	5
20938	3e-05	9e-05	1e-05	-0.00027	-0.00052	-0.00014	5e-05	5e-05	5
20939	3e-05	9e-05	1e-05	-0.00027	-0.00052	-0.00014	5e-05	5e-05	5
20940	3e-05	9e-05	1e-05	-0.00027	-0.00052	-0.00014	5e-05	5e-05	5
20941	3e-05	9e-05	1e-05	-0.00027	-0.00052	-0.00014	5e-05	5e-05	5
20942	3e-05	9e-05	1e-05	-0.00027	-0.00052	-0.00014	5e-05	5e-05	5
20943	3e-05	9e-05	1e-05	-0.00027	-0.00052	-0.00014	5e-05	5e-05	5
20944	3e-05	9e-05	1e-05	-0.00027	-0.00052	-0.00014	5e-05	5e-05	5
20945	3e-05	9e-05	1e-05	-0.00027	-0.00052	-0.00014	5e-05	5e-05	5
20946	3e-05	9e-05	1e-05	-0.00027	-0.00052	-0.00014	5e-05	5e-05	5
20947	3e-05	9e-05	1e-05	-0.00027	-0.00052	-0.00014	5e-05	5e-05	5
20948	3e-05	9e-05	1e-05	-0.00027	-0.00052	-0.00014	5e-05	5e-05	5
20949	3e-05	9e-05	1e-05	-0.00027	-0.00052	-0.00014	5e-05	5e-05	5
20950	-1e-05	-1e-05	0.0001	0.00045	0.00031	0.0002	6e-05	1e-05	5
20951	-1e-05	-1e-05	0.0001	0.00045	0.00031	0.0002	6e-05	1e-05	5
20952	-1e-05	-1e-05	0.0001	0.00045	0.00031	0.0002	6e-05	1e-05	5
20953	-1e-05	-1e-05	0.0001	0.00045	0.00031	0.0002	6e-05	1e-05	5
20954	-1e-05	-1e-05	0.0001	0.00045	0.00031	0.0002	6e-05	1e-05	5
20955	-3e-05	-3e-05	0.00011	0.00041	0.00029	-7e-05	-9e-05	-5e-05	5
20956	-3e-05	-3e-05	0.00011	0.00041	0.00029	-7e-05	-9e-05	-5e-05	5
20957	-3e-05	-3e-05	0.00011	0.00041	0.00029	-7e-05	-9e-05	-5e-05	5
20958	-3e-05	-3e-05	0.00011	0.00041	0.00029	-7e-05	-9e-05	-5e-05	5
20959	-3e-05	-3e-05	0.00011	0.00041	0.00029	-7e-05	-9e-05	-5e-05	5
20960	-3e-05	-3e-05	0.00011	0.00041	0.00029	-7e-05	-9e-05	-5e-05	5
20961	-3e-05	-3e-05	0.00011	0.00041	0.00029	-7e-05	-9e-05	-5e-05	5
20962	-3e-05	-3e-05	0.00011	0.00041	0.00029	-7e-05	-9e-05	-5e-05	5
20963	-3e-05	-3e-05	0.00011	0.00041	0.00029	-7e-05	-9e-05	-5e-05	5
20964	-3e-05	-3e-05	0.00011	0.00041	0.00029	-7e-05	-9e-05	-5e-05	5
20965	-3e-05	-3e-05	0.00011	0.00041	0.00029	-7e-05	-9e-05	-5e-05	5
20966	-3e-05	-3e-05	0.00011	0.00041	0.00029	-7e-05	-9e-05	-5e-05	5
20967	-3e-05	-3e-05	0.00011	0.00041	0.00029	-7e-05	-9e-05	-5e-05	5
20968	-3e-05	-3e-05	0.00011	0.00041	0.00029	-7e-05	-9e-05	-5e-05	5
20969	-3e-05	-3e-05	0.00011	0.00041	0.00029	-7e-05	-9e-05	-5e-05	5
20970	-3e-05	-3e-05	0.00011	0.00041	0.00029	-7e-05	-9e-05	-5e-05	5
20971	-3e-05	-3e-05	0.00011	0.00041	0.00029	-7e-05	-9e-05	-5e-05	5
20972	-3e-05	-2e-05	7e-05	-6e-05	0.00015	0.00035	0	-2e-05	5
20973	0	0.00013	0.00023	-0.0001	-0.00034	-0.00015	2e-05	-2e-05	5
20974	0	0.00013	0.00023	-0.0001	-0.00034	-0.00015	2e-05	-2e-05	5
20975	0	0.00013	0.00023	-0.0001	-0.00034	-0.00015	2e-05	-2e-05	5
20976	0	0.00013	0.00023	-0.0001	-0.00034	-0.00015	2e-05	-2e-05	5
20977	0	0.00013	0.00023	-0.0001	-0.00034	-0.00015	2e-05	-2e-05	5
20978	0	0.00013	0.00023	-0.0001	-0.00034	-0.00015	2e-05	-2e-05	5
20979	0	0.00013	0.00023	-0.0001	-0.00034	-0.00015	2e-05	-2e-05	5
20980	0	0.00013	0.00023	-0.0001	-0.00034	-0.00015	2e-05	-2e-05	5
20981	0	0.00013	0.00023	-0.0001	-0.00034	-0.00015	2e-05	-2e-05	5
20982	0	0.00013	0.00023	-0.0001	-0.00034	-0.00015	2e-05	-2e-05	5
20983	0	0.00013	0.00023	-0.0001	-0.00034	-0.00015	2e-05	-2e-05	5
20984	0	0.00013	0.00023	-0.0001	-0.00034	-0.00015	2e-05	-2e-05	5
20985	0	0.00013	0.00023	-0.0001	-0.00034	-0.00015	2e-05	-2e-05	5
20986	2e-05	-5e-05	-2e-05	9e-05	0.00046	0.0001	-4e-05	-6e-05	5
20989	-3e-05	-4e-05	-8e-05	0.00034	0.00049	0.00017	1e-05	-3e-05	5
20990	-3e-05	-4e-05	-8e-05	0.00034	0.00049	0.00017	1e-05	-3e-05	5
20991	-3e-05	-4e-05	-8e-05	0.00034	0.00049	0.00017	1e-05	-3e-05	5
20992	-3e-05	-4e-05	-8e-05	0.00034	0.00049	0.00017	1e-05	-3e-05	5
20993	-3e-05	-4e-05	-8e-05	0.00034	0.00049	0.00017	1e-05	-3e-05	5
20994	-3e-05	-4e-05	-8e-05	0.00034	0.00049	0.00017	1e-05	-3e-05	5
20995	-3e-05	-4e-05	-8e-05	0.00034	0.00049	0.00017	1e-05	-3e-05	5
20996	-3e-05	-4e-05	-8e-05	0.00034	0.00049	0.00017	1e-05	-3e-05	5
20997	-3e-05	-4e-05	-8e-05	0.00034	0.00049	0.00017	1e-05	-3e-05	5
20998	-3e-05	-4e-05	-8e-05	0.00034	0.00049	0.00017	1e-05	-3e-05	5
20999	-3e-05	-4e-05	-8e-05	0.00034	0.00049	0.00017	1e-05	-3e-05	5
21000	-3e-05	-4e-05	-8e-05	0.00034	0.00049	0.00017	1e-05	-3e-05	5
21001	-3e-05	-4e-05	-8e-05	0.00034	0.00049	0.00017	1e-05	-3e-05	5
21002	-3e-05	-4e-05	-8e-05	0.00034	0.00049	0.00017	1e-05	-3e-05	5
21003	-3e-05	-4e-05	-8e-05	0.00034	0.00049	0.00017	1e-05	-3e-05	5
21004	-3e-05	-4e-05	-8e-05	0.00034	0.00049	0.00017	1e-05	-3e-05	5
21005	-3e-05	-4e-05	-8e-05	0.00034	0.00049	0.00017	1e-05	-3e-05	5
21006	-3e-05	-4e-05	-8e-05	0.00034	0.00049	0.00017	1e-05	-3e-05	5
21007	-3e-05	-4e-05	-8e-05	0.00034	0.00049	0.00017	1e-05	-3e-05	5
21008	-3e-05	-4e-05	-8e-05	0.00034	0.00049	0.00017	1e-05	-3e-05	5
21009	-0.00015	-0.00026	-0.00069	-0.0002	7e-05	4e-05	1e-05	-1e-05	5
21010	-0.00015	-0.00026	-0.00069	-0.0002	7e-05	4e-05	1e-05	-1e-05	5
21011	3e-05	-0.00013	-0.00017	0.00059	0.00084	0.00013	-4e-05	-7e-05	5
21012	3e-05	-0.00013	-0.00017	0.00059	0.00084	0.00013	-4e-05	-7e-05	5
21013	3e-05	-0.00013	-0.00017	0.00059	0.00084	0.00013	-4e-05	-7e-05	5
21014	3e-05	-0.00013	-0.00017	0.00059	0.00084	0.00013	-4e-05	-7e-05	5
21015	3e-05	-0.00013	-0.00017	0.00059	0.00084	0.00013	-4e-05	-7e-05	5
21016	3e-05	-0.00013	-0.00017	0.00059	0.00084	0.00013	-4e-05	-7e-05	5
21017	3e-05	-0.00013	-0.00017	0.00059	0.00084	0.00013	-4e-05	-7e-05	5
21018	3e-05	-0.00013	-0.00017	0.00059	0.00084	0.00013	-4e-05	-7e-05	5
21019	3e-05	-0.00013	-0.00017	0.00059	0.00084	0.00013	-4e-05	-7e-05	5
21020	3e-05	-0.00013	-0.00017	0.00059	0.00084	0.00013	-4e-05	-7e-05	5
21021	3e-05	-0.00013	-0.00017	0.00059	0.00084	0.00013	-4e-05	-7e-05	5
21022	3e-05	-0.00013	-0.00017	0.00059	0.00084	0.00013	-4e-05	-7e-05	5
21023	-0.00011	0.00016	0.00037	0.00027	0.00058	7e-05	0	-8e-05	5
21024	-0.00011	0.00016	0.00037	0.00027	0.00058	7e-05	0	-8e-05	5
21025	-0.00011	0.00016	0.00037	0.00027	0.00058	7e-05	0	-8e-05	5
21026	-0.00011	0.00016	0.00037	0.00027	0.00058	7e-05	0	-8e-05	5
21027	-0.00011	0.00016	0.00037	0.00027	0.00058	7e-05	0	-8e-05	5
21028	-0.00011	0.00016	0.00037	0.00027	0.00058	7e-05	0	-8e-05	5
21029	-0.00011	0.00016	0.00037	0.00027	0.00058	7e-05	0	-8e-05	5
21030	-0.00011	0.00016	0.00037	0.00027	0.00058	7e-05	0	-8e-05	5
21031	-0.00011	0.00016	0.00037	0.00027	0.00058	7e-05	0	-8e-05	5
21032	-6e-05	-9e-05	-0.00014	-0.00022	-0.00015	-9e-05	-6e-05	-5e-05	5
21033	-6e-05	-9e-05	-0.00014	-0.00022	-0.00015	-9e-05	-6e-05	-5e-05	5
21034	-6e-05	-9e-05	-0.00014	-0.00022	-0.00015	-9e-05	-6e-05	-5e-05	5
21035	-6e-05	-9e-05	-0.00014	-0.00022	-0.00015	-9e-05	-6e-05	-5e-05	5
21036	-6e-05	-9e-05	-0.00014	-0.00022	-0.00015	-9e-05	-6e-05	-5e-05	5
21038	-6e-05	-9e-05	-0.00014	-0.00022	-0.00015	-9e-05	-6e-05	-5e-05	5
21039	-6e-05	-9e-05	-0.00014	-0.00022	-0.00015	-9e-05	-6e-05	-5e-05	5
21040	-6e-05	-9e-05	-0.00014	-0.00022	-0.00015	-9e-05	-6e-05	-5e-05	5
21041	-6e-05	-9e-05	-0.00014	-0.00022	-0.00015	-9e-05	-6e-05	-5e-05	5
21042	-6e-05	-9e-05	-0.00014	-0.00022	-0.00015	-9e-05	-6e-05	-5e-05	5
21043	-6e-05	-9e-05	-0.00014	-0.00022	-0.00015	-9e-05	-6e-05	-5e-05	5
21044	-6e-05	-9e-05	-0.00014	-0.00022	-0.00015	-9e-05	-6e-05	-5e-05	5
21045	-6e-05	-9e-05	-0.00014	-0.00022	-0.00015	-9e-05	-6e-05	-5e-05	5
21046	-6e-05	-9e-05	-0.00014	-0.00022	-0.00015	-9e-05	-6e-05	-5e-05	5
21047	-1e-05	0	7e-05	0.00011	0	-3e-05	-1e-05	-2e-05	5
21048	-1e-05	0	7e-05	0.00011	0	-3e-05	-1e-05	-2e-05	5
21049	-1e-05	0	7e-05	0.00011	0	-3e-05	-1e-05	-2e-05	5
21050	-1e-05	0	7e-05	0.00011	0	-3e-05	-1e-05	-2e-05	5
21051	-1e-05	0	7e-05	0.00011	0	-3e-05	-1e-05	-2e-05	5
21052	-1e-05	0	7e-05	0.00011	0	-3e-05	-1e-05	-2e-05	5
21053	-1e-05	0	7e-05	0.00011	0	-3e-05	-1e-05	-2e-05	5
21054	-1e-05	0	7e-05	0.00011	0	-3e-05	-1e-05	-2e-05	5
21055	3e-05	4e-05	-0.00018	-4e-05	0.00012	-3e-05	-2e-05	-4e-05	5
21056	3e-05	4e-05	-0.00018	-4e-05	0.00012	-3e-05	-2e-05	-4e-05	5
21057	3e-05	4e-05	-0.00018	-4e-05	0.00012	-3e-05	-2e-05	-4e-05	5
21058	3e-05	4e-05	-0.00018	-4e-05	0.00012	-3e-05	-2e-05	-4e-05	5
21059	3e-05	4e-05	-0.00018	-4e-05	0.00012	-3e-05	-2e-05	-4e-05	5
21060	3e-05	4e-05	-0.00018	-4e-05	0.00012	-3e-05	-2e-05	-4e-05	5
21061	3e-05	4e-05	-0.00018	-4e-05	0.00012	-3e-05	-2e-05	-4e-05	5
21062	3e-05	4e-05	-0.00018	-4e-05	0.00012	-3e-05	-2e-05	-4e-05	5
21063	3e-05	4e-05	-0.00018	-4e-05	0.00012	-3e-05	-2e-05	-4e-05	5
21064	3e-05	4e-05	-0.00018	-4e-05	0.00012	-3e-05	-2e-05	-4e-05	5
21065	3e-05	4e-05	-0.00018	-4e-05	0.00012	-3e-05	-2e-05	-4e-05	5
21066	3e-05	4e-05	-0.00018	-4e-05	0.00012	-3e-05	-2e-05	-4e-05	5
21067	3e-05	4e-05	-0.00018	-4e-05	0.00012	-3e-05	-2e-05	-4e-05	5
21068	3e-05	4e-05	-0.00018	-4e-05	0.00012	-3e-05	-2e-05	-4e-05	5
21069	-2e-05	4e-05	-0.0001	0.00049	-0.00039	2e-05	1e-05	1e-05	5
21070	-2e-05	4e-05	-0.0001	0.00049	-0.00039	2e-05	1e-05	1e-05	5
21071	3e-05	9e-05	0.0001	8e-05	0.00051	-4e-05	0	2e-05	5
21072	-9e-05	6e-05	0.00031	0.00031	0.00037	0.0005	6e-05	-2e-05	5
21073	-9e-05	6e-05	0.00031	0.00031	0.00037	0.0005	6e-05	-2e-05	5
21074	-9e-05	6e-05	0.00031	0.00031	0.00037	0.0005	6e-05	-2e-05	5
21075	-9e-05	6e-05	0.00031	0.00031	0.00037	0.0005	6e-05	-2e-05	5
21076	-9e-05	6e-05	0.00031	0.00031	0.00037	0.0005	6e-05	-2e-05	5
21077	-9e-05	6e-05	0.00031	0.00031	0.00037	0.0005	6e-05	-2e-05	5
21078	-9e-05	6e-05	0.00031	0.00031	0.00037	0.0005	6e-05	-2e-05	5
21079	-9e-05	6e-05	0.00031	0.00031	0.00037	0.0005	6e-05	-2e-05	5
21080	-9e-05	6e-05	0.00031	0.00031	0.00037	0.0005	6e-05	-2e-05	5
21081	-9e-05	6e-05	0.00031	0.00031	0.00037	0.0005	6e-05	-2e-05	5
21082	-9e-05	6e-05	0.00031	0.00031	0.00037	0.0005	6e-05	-2e-05	5
21083	-9e-05	6e-05	0.00031	0.00031	0.00037	0.0005	6e-05	-2e-05	5
21084	-9e-05	6e-05	0.00031	0.00031	0.00037	0.0005	6e-05	-2e-05	5
21085	-9e-05	6e-05	0.00031	0.00031	0.00037	0.0005	6e-05	-2e-05	5
21086	-9e-05	6e-05	0.00031	0.00031	0.00037	0.0005	6e-05	-2e-05	5
21088	-9e-05	6e-05	0.00031	0.00031	0.00037	0.0005	6e-05	-2e-05	5
21089	-9e-05	6e-05	0.00031	0.00031	0.00037	0.0005	6e-05	-2e-05	5
21090	-9e-05	6e-05	0.00031	0.00031	0.00037	0.0005	6e-05	-2e-05	5
21091	-9e-05	6e-05	0.00031	0.00031	0.00037	0.0005	6e-05	-2e-05	5
21092	4e-05	-8e-05	-3e-05	-0.00048	-0.0003	-0.00017	-6e-05	-3e-05	5
21093	-0.0001	-0.0001	-0.00014	-0.00021	-0.00024	-0.00019	-1e-05	-1e-05	5
21094	-0.0001	-0.0001	-0.00014	-0.00021	-0.00024	-0.00019	-1e-05	-1e-05	5
21095	-0.0001	-0.0001	-0.00014	-0.00021	-0.00024	-0.00019	-1e-05	-1e-05	5
21096	-0.0001	-0.0001	-0.00014	-0.00021	-0.00024	-0.00019	-1e-05	-1e-05	5
21097	-0.0001	-0.0001	-0.00014	-0.00021	-0.00024	-0.00019	-1e-05	-1e-05	5
21098	-0.0001	-0.0001	-0.00014	-0.00021	-0.00024	-0.00019	-1e-05	-1e-05	5
21099	-0.0001	-0.0001	-0.00014	-0.00021	-0.00024	-0.00019	-1e-05	-1e-05	5
21100	-0.0001	-0.0001	-0.00014	-0.00021	-0.00024	-0.00019	-1e-05	-1e-05	5
21101	-0.0001	-0.0001	-0.00014	-0.00021	-0.00024	-0.00019	-1e-05	-1e-05	5
21102	-0.0001	-0.0001	-0.00014	-0.00021	-0.00024	-0.00019	-1e-05	-1e-05	5
21103	-0.0001	-0.0001	-0.00014	-0.00021	-0.00024	-0.00019	-1e-05	-1e-05	5
21104	-0.0001	-0.0001	-0.00014	-0.00021	-0.00024	-0.00019	-1e-05	-1e-05	5
21105	-0.0001	-0.0001	-0.00014	-0.00021	-0.00024	-0.00019	-1e-05	-1e-05	5
21106	-0.0001	-0.0001	-0.00014	-0.00021	-0.00024	-0.00019	-1e-05	-1e-05	5
21107	-0.0001	-0.0001	-0.00014	-0.00021	-0.00024	-0.00019	-1e-05	-1e-05	5
21108	-0.0001	-0.0001	-0.00014	-0.00021	-0.00024	-0.00019	-1e-05	-1e-05	5
21109	-0.0001	-0.0001	-0.00014	-0.00021	-0.00024	-0.00019	-1e-05	-1e-05	5
21110	-0.0001	-0.0001	-0.00014	-0.00021	-0.00024	-0.00019	-1e-05	-1e-05	5
21111	-0.0001	-0.0001	-0.00014	-0.00021	-0.00024	-0.00019	-1e-05	-1e-05	5
21112	-0.0001	-0.0001	-0.00014	-0.00021	-0.00024	-0.00019	-1e-05	-1e-05	5
21113	-0.0001	-0.0001	-0.00014	-0.00021	-0.00024	-0.00019	-1e-05	-1e-05	5
21114	6e-05	0.00013	0.00027	0.00028	0.00071	4e-05	-1e-05	-2e-05	5
21115	6e-05	0.00013	0.00027	0.00028	0.00071	4e-05	-1e-05	-2e-05	5
21116	3e-05	-3e-05	-6e-05	-0.0001	-4e-05	-0.00018	-2e-05	-3e-05	5
21117	3e-05	-3e-05	-6e-05	-0.0001	-4e-05	-0.00018	-2e-05	-3e-05	5
21118	3e-05	-3e-05	-6e-05	-0.0001	-4e-05	-0.00018	-2e-05	-3e-05	5
21119	3e-05	-3e-05	-6e-05	-0.0001	-4e-05	-0.00018	-2e-05	-3e-05	5
21120	3e-05	-3e-05	-6e-05	-0.0001	-4e-05	-0.00018	-2e-05	-3e-05	5
21121	3e-05	-3e-05	-6e-05	-0.0001	-4e-05	-0.00018	-2e-05	-3e-05	5
21122	3e-05	-3e-05	-6e-05	-0.0001	-4e-05	-0.00018	-2e-05	-3e-05	5
21123	3e-05	-3e-05	-6e-05	-0.0001	-4e-05	-0.00018	-2e-05	-3e-05	5
21124	3e-05	-3e-05	-6e-05	-0.0001	-4e-05	-0.00018	-2e-05	-3e-05	5
21125	3e-05	-3e-05	-6e-05	-0.0001	-4e-05	-0.00018	-2e-05	-3e-05	5
21126	3e-05	-3e-05	-6e-05	-0.0001	-4e-05	-0.00018	-2e-05	-3e-05	5
21127	3e-05	-3e-05	-6e-05	-0.0001	-4e-05	-0.00018	-2e-05	-3e-05	5
21128	3e-05	-3e-05	-6e-05	-0.0001	-4e-05	-0.00018	-2e-05	-3e-05	5
21129	3e-05	-3e-05	-6e-05	-0.0001	-4e-05	-0.00018	-2e-05	-3e-05	5
21130	3e-05	-3e-05	-6e-05	-0.0001	-4e-05	-0.00018	-2e-05	-3e-05	5
21131	3e-05	-3e-05	-6e-05	-0.0001	-4e-05	-0.00018	-2e-05	-3e-05	5
21132	3e-05	-3e-05	-6e-05	-0.0001	-4e-05	-0.00018	-2e-05	-3e-05	5
21133	3e-05	-3e-05	-6e-05	-0.0001	-4e-05	-0.00018	-2e-05	-3e-05	5
21134	3e-05	-3e-05	-6e-05	-0.0001	-4e-05	-0.00018	-2e-05	-3e-05	5
21135	3e-05	-3e-05	-6e-05	-0.0001	-4e-05	-0.00018	-2e-05	-3e-05	5
21136	3e-05	-3e-05	-6e-05	-0.0001	-4e-05	-0.00018	-2e-05	-3e-05	5
21138	0.00013	0.00016	0.00018	0.00056	0.00069	0.0002	0.0001	7e-05	5
21139	-7e-05	-0.00016	-0.00046	0.00033	0.00017	3e-05	-6e-05	-8e-05	5
21140	-7e-05	-0.00016	-0.00046	0.00033	0.00017	3e-05	-6e-05	-8e-05	5
21141	-7e-05	-0.00016	-0.00046	0.00033	0.00017	3e-05	-6e-05	-8e-05	5
21142	-7e-05	-0.00016	-0.00046	0.00033	0.00017	3e-05	-6e-05	-8e-05	5
21143	-7e-05	-0.00016	-0.00046	0.00033	0.00017	3e-05	-6e-05	-8e-05	5
21144	-7e-05	-0.00016	-0.00046	0.00033	0.00017	3e-05	-6e-05	-8e-05	5
21145	-7e-05	-0.00016	-0.00046	0.00033	0.00017	3e-05	-6e-05	-8e-05	5
21146	-7e-05	-0.00016	-0.00046	0.00033	0.00017	3e-05	-6e-05	-8e-05	5
21147	-7e-05	-0.00016	-0.00046	0.00033	0.00017	3e-05	-6e-05	-8e-05	5
21148	-7e-05	-0.00016	-0.00046	0.00033	0.00017	3e-05	-6e-05	-8e-05	5
21149	-7e-05	-0.00016	-0.00046	0.00033	0.00017	3e-05	-6e-05	-8e-05	5
21150	-7e-05	-0.00016	-0.00046	0.00033	0.00017	3e-05	-6e-05	-8e-05	5
21151	-7e-05	-0.00016	-0.00046	0.00033	0.00017	3e-05	-6e-05	-8e-05	5
21152	-3e-05	-1e-05	-0.00013	8e-05	0.00012	0.00039	5e-05	1e-05	5
21153	4e-05	-8e-05	-5e-05	-0.00069	-0.0003	-6e-05	-1e-05	3e-05	5
21154	4e-05	-8e-05	-5e-05	-0.00069	-0.0003	-6e-05	-1e-05	3e-05	5
21155	4e-05	-8e-05	-5e-05	-0.00069	-0.0003	-6e-05	-1e-05	3e-05	5
21156	4e-05	-8e-05	-5e-05	-0.00069	-0.0003	-6e-05	-1e-05	3e-05	5
21157	4e-05	-8e-05	-5e-05	-0.00069	-0.0003	-6e-05	-1e-05	3e-05	5
21158	4e-05	-8e-05	-5e-05	-0.00069	-0.0003	-6e-05	-1e-05	3e-05	5
21159	4e-05	-8e-05	-5e-05	-0.00069	-0.0003	-6e-05	-1e-05	3e-05	5
21160	4e-05	-8e-05	-5e-05	-0.00069	-0.0003	-6e-05	-1e-05	3e-05	5
21161	4e-05	-8e-05	-5e-05	-0.00069	-0.0003	-6e-05	-1e-05	3e-05	5
21162	4e-05	-8e-05	-5e-05	-0.00069	-0.0003	-6e-05	-1e-05	3e-05	5
21163	4e-05	-8e-05	-5e-05	-0.00069	-0.0003	-6e-05	-1e-05	3e-05	5
21164	4e-05	-8e-05	-5e-05	-0.00069	-0.0003	-6e-05	-1e-05	3e-05	5
21165	4e-05	-8e-05	-5e-05	-0.00069	-0.0003	-6e-05	-1e-05	3e-05	5
21166	4e-05	-8e-05	-5e-05	-0.00069	-0.0003	-6e-05	-1e-05	3e-05	5
21167	-3e-05	-3e-05	0	-0.00059	-0.00056	-0.00029	-7e-05	-2e-05	5
21168	3e-05	9e-05	0.00014	0	-0.0002	0	3e-05	2e-05	5
21169	3e-05	9e-05	0.00014	0	-0.0002	0	3e-05	2e-05	5
21170	3e-05	9e-05	0.00014	0	-0.0002	0	3e-05	2e-05	5
21171	3e-05	9e-05	0.00014	0	-0.0002	0	3e-05	2e-05	5
21172	3e-05	9e-05	0.00014	0	-0.0002	0	3e-05	2e-05	5
21173	3e-05	9e-05	0.00014	0	-0.0002	0	3e-05	2e-05	5
21174	3e-05	9e-05	0.00014	0	-0.0002	0	3e-05	2e-05	5
21175	3e-05	9e-05	0.00014	0	-0.0002	0	3e-05	2e-05	5
21176	3e-05	9e-05	0.00014	0	-0.0002	0	3e-05	2e-05	5
21177	3e-05	9e-05	0.00014	0	-0.0002	0	3e-05	2e-05	5
21178	3e-05	9e-05	0.00014	0	-0.0002	0	3e-05	2e-05	5
21179	3e-05	9e-05	0.00014	0	-0.0002	0	3e-05	2e-05	5
21180	3e-05	9e-05	0.00014	0	-0.0002	0	3e-05	2e-05	5
21181	3e-05	9e-05	0.00014	0	-0.0002	0	3e-05	2e-05	5
21182	3e-05	9e-05	0.00014	0	-0.0002	0	3e-05	2e-05	5
21183	3e-05	9e-05	0.00014	0	-0.0002	0	3e-05	2e-05	5
21184	3e-05	9e-05	0.00014	0	-0.0002	0	3e-05	2e-05	5
21185	3e-05	9e-05	0.00014	0	-0.0002	0	3e-05	2e-05	5
21186	3e-05	9e-05	0.00014	0	-0.0002	0	3e-05	2e-05	5
21188	3e-05	9e-05	0.00014	0	-0.0002	0	3e-05	2e-05	5
21189	3e-05	9e-05	0.00014	0	-0.0002	0	3e-05	2e-05	5
21190	1e-05	-2e-05	2e-05	-5e-05	4e-05	0.00022	4e-05	2e-05	5
21191	-5e-05	-6e-05	5e-05	-4e-05	-6e-05	-0.00011	-6e-05	-5e-05	5
21192	-5e-05	-6e-05	5e-05	-4e-05	-6e-05	-0.00011	-6e-05	-5e-05	5
21193	-5e-05	-6e-05	5e-05	-4e-05	-6e-05	-0.00011	-6e-05	-5e-05	5
21194	-5e-05	-6e-05	5e-05	-4e-05	-6e-05	-0.00011	-6e-05	-5e-05	5
21195	-5e-05	-6e-05	5e-05	-4e-05	-6e-05	-0.00011	-6e-05	-5e-05	5
21196	-5e-05	-6e-05	5e-05	-4e-05	-6e-05	-0.00011	-6e-05	-5e-05	5
21197	-5e-05	-6e-05	5e-05	-4e-05	-6e-05	-0.00011	-6e-05	-5e-05	5
21198	-5e-05	-6e-05	5e-05	-4e-05	-6e-05	-0.00011	-6e-05	-5e-05	5
21199	-5e-05	-6e-05	5e-05	-4e-05	-6e-05	-0.00011	-6e-05	-5e-05	5
21200	-5e-05	-6e-05	5e-05	-4e-05	-6e-05	-0.00011	-6e-05	-5e-05	5
21201	-5e-05	-6e-05	5e-05	-4e-05	-6e-05	-0.00011	-6e-05	-5e-05	5
21202	-5e-05	-6e-05	5e-05	-4e-05	-6e-05	-0.00011	-6e-05	-5e-05	5
21203	-5e-05	-6e-05	5e-05	-4e-05	-6e-05	-0.00011	-6e-05	-5e-05	5
21204	-5e-05	-6e-05	5e-05	-4e-05	-6e-05	-0.00011	-6e-05	-5e-05	5
21205	-5e-05	-6e-05	5e-05	-4e-05	-6e-05	-0.00011	-6e-05	-5e-05	5
21206	-5e-05	-6e-05	5e-05	-4e-05	-6e-05	-0.00011	-6e-05	-5e-05	5
21207	-5e-05	-6e-05	5e-05	-4e-05	-6e-05	-0.00011	-6e-05	-5e-05	5
21208	-5e-05	-6e-05	5e-05	-4e-05	-6e-05	-0.00011	-6e-05	-5e-05	5
21209	-5e-05	-6e-05	5e-05	-4e-05	-6e-05	-0.00011	-6e-05	-5e-05	5
21210	-5e-05	-6e-05	5e-05	-4e-05	-6e-05	-0.00011	-6e-05	-5e-05	5
21211	-5e-05	-6e-05	5e-05	-4e-05	-6e-05	-0.00011	-6e-05	-5e-05	5
21212	-3e-05	-9e-05	-0.00011	-0.00015	-0.00011	-1e-05	0	-4e-05	5
21213	-0.00014	0.00016	0.0002	0.00025	0.00036	0.00047	0.00019	4e-05	5
21214	-0.00014	0.00016	0.0002	0.00025	0.00036	0.00047	0.00019	4e-05	5
21215	-0.00014	0.00016	0.0002	0.00025	0.00036	0.00047	0.00019	4e-05	5
21216	-0.00014	0.00016	0.0002	0.00025	0.00036	0.00047	0.00019	4e-05	5
21217	-0.00014	0.00016	0.0002	0.00025	0.00036	0.00047	0.00019	4e-05	5
21218	-0.00014	0.00016	0.0002	0.00025	0.00036	0.00047	0.00019	4e-05	5
21219	-0.00014	0.00016	0.0002	0.00025	0.00036	0.00047	0.00019	4e-05	5
21220	-0.00014	0.00016	0.0002	0.00025	0.00036	0.00047	0.00019	4e-05	5
21221	-0.00014	0.00016	0.0002	0.00025	0.00036	0.00047	0.00019	4e-05	5
21222	-0.00014	0.00016	0.0002	0.00025	0.00036	0.00047	0.00019	4e-05	5
21223	-0.00014	0.00016	0.0002	0.00025	0.00036	0.00047	0.00019	4e-05	5
21224	-0.00014	0.00016	0.0002	0.00025	0.00036	0.00047	0.00019	4e-05	5
21225	-0.00014	0.00016	0.0002	0.00025	0.00036	0.00047	0.00019	4e-05	5
21226	2e-05	-0.0001	-8e-05	-0.00022	-0.00028	-0.00014	-0.00012	-7e-05	5
21227	2e-05	5e-05	0.00013	9e-05	-0.00014	-6e-05	-4e-05	-2e-05	5
21228	2e-05	5e-05	0.00013	9e-05	-0.00014	-6e-05	-4e-05	-2e-05	5
21229	2e-05	5e-05	0.00013	9e-05	-0.00014	-6e-05	-4e-05	-2e-05	5
21230	2e-05	5e-05	0.00013	9e-05	-0.00014	-6e-05	-4e-05	-2e-05	5
21231	2e-05	5e-05	0.00013	9e-05	-0.00014	-6e-05	-4e-05	-2e-05	5
21232	2e-05	5e-05	0.00013	9e-05	-0.00014	-6e-05	-4e-05	-2e-05	5
21233	0.00012	3e-05	-8e-05	0.00044	0.00045	0.00056	0.00014	4e-05	5
21234	0.00012	3e-05	-8e-05	0.00044	0.00045	0.00056	0.00014	4e-05	5
21235	0.00012	3e-05	-8e-05	0.00044	0.00045	0.00056	0.00014	4e-05	5
21236	0.00012	3e-05	-8e-05	0.00044	0.00045	0.00056	0.00014	4e-05	5
21238	0.00012	3e-05	-8e-05	0.00044	0.00045	0.00056	0.00014	4e-05	5
21239	0.00012	3e-05	-8e-05	0.00044	0.00045	0.00056	0.00014	4e-05	5
21240	0.00012	3e-05	-8e-05	0.00044	0.00045	0.00056	0.00014	4e-05	5
21241	0.00012	3e-05	-8e-05	0.00044	0.00045	0.00056	0.00014	4e-05	5
21242	0.00012	3e-05	-8e-05	0.00044	0.00045	0.00056	0.00014	4e-05	5
21243	0.00012	3e-05	-8e-05	0.00044	0.00045	0.00056	0.00014	4e-05	5
21244	0.00012	3e-05	-8e-05	0.00044	0.00045	0.00056	0.00014	4e-05	5
21245	0.00012	3e-05	-8e-05	0.00044	0.00045	0.00056	0.00014	4e-05	5
21246	0.00012	3e-05	-8e-05	0.00044	0.00045	0.00056	0.00014	4e-05	5
21247	0.00012	3e-05	-8e-05	0.00044	0.00045	0.00056	0.00014	4e-05	5
21248	0.00012	3e-05	-8e-05	0.00044	0.00045	0.00056	0.00014	4e-05	5
21249	-3e-05	-5e-05	-8e-05	-0.0004	-0.0003	-8e-05	-4e-05	-2e-05	5
21250	-6e-05	-9e-05	-0.00018	-0.0002	-0.00046	-0.00028	-6e-05	-1e-05	5
21251	-6e-05	-9e-05	-0.00018	-0.0002	-0.00046	-0.00028	-6e-05	-1e-05	5
21252	-6e-05	-9e-05	-0.00018	-0.0002	-0.00046	-0.00028	-6e-05	-1e-05	5
21253	-6e-05	-9e-05	-0.00018	-0.0002	-0.00046	-0.00028	-6e-05	-1e-05	5
21254	-6e-05	-9e-05	-0.00018	-0.0002	-0.00046	-0.00028	-6e-05	-1e-05	5
21255	-2e-05	6e-05	-5e-05	-0.00027	-0.00072	-0.00056	-0.00014	-3e-05	5
21257	-2e-05	6e-05	-5e-05	-0.00027	-0.00072	-0.00056	-0.00014	-3e-05	5
21258	-2e-05	6e-05	-5e-05	-0.00027	-0.00072	-0.00056	-0.00014	-3e-05	5
21259	-2e-05	6e-05	-5e-05	-0.00027	-0.00072	-0.00056	-0.00014	-3e-05	5
21260	-2e-05	6e-05	-5e-05	-0.00027	-0.00072	-0.00056	-0.00014	-3e-05	5
21261	-2e-05	6e-05	-5e-05	-0.00027	-0.00072	-0.00056	-0.00014	-3e-05	5
21262	-2e-05	6e-05	-5e-05	-0.00027	-0.00072	-0.00056	-0.00014	-3e-05	5
21263	-2e-05	6e-05	-5e-05	-0.00027	-0.00072	-0.00056	-0.00014	-3e-05	5
21264	-2e-05	6e-05	-5e-05	-0.00027	-0.00072	-0.00056	-0.00014	-3e-05	5
21265	-2e-05	6e-05	-5e-05	-0.00027	-0.00072	-0.00056	-0.00014	-3e-05	5
21266	-2e-05	6e-05	-5e-05	-0.00027	-0.00072	-0.00056	-0.00014	-3e-05	5
21267	-2e-05	6e-05	-5e-05	-0.00027	-0.00072	-0.00056	-0.00014	-3e-05	5
21268	-2e-05	6e-05	-5e-05	-0.00027	-0.00072	-0.00056	-0.00014	-3e-05	5
21269	-2e-05	6e-05	-5e-05	-0.00027	-0.00072	-0.00056	-0.00014	-3e-05	5
21270	-2e-05	6e-05	-5e-05	-0.00027	-0.00072	-0.00056	-0.00014	-3e-05	5
21271	-2e-05	6e-05	-5e-05	-0.00027	-0.00072	-0.00056	-0.00014	-3e-05	5
21272	0.0001	2e-05	-2e-05	-0.00018	-7e-05	-5e-05	-5e-05	0	5
21273	0.0001	2e-05	-2e-05	-0.00018	-7e-05	-5e-05	-5e-05	0	5
21274	0.0001	2e-05	-2e-05	-0.00018	-7e-05	-5e-05	-5e-05	0	5
21275	0.0001	2e-05	-2e-05	-0.00018	-7e-05	-5e-05	-5e-05	0	5
21276	0.0001	2e-05	-2e-05	-0.00018	-7e-05	-5e-05	-5e-05	0	5
21277	0.0001	2e-05	-2e-05	-0.00018	-7e-05	-5e-05	-5e-05	0	5
21278	0.0001	2e-05	-2e-05	-0.00018	-7e-05	-5e-05	-5e-05	0	5
21279	0.0001	2e-05	-2e-05	-0.00018	-7e-05	-5e-05	-5e-05	0	5
21280	1e-05	-0.00016	-0.00018	-0.00047	-0.00026	-0.00053	-0.00012	-2e-05	5
21281	1e-05	-0.00016	-0.00018	-0.00047	-0.00026	-0.00053	-0.00012	-2e-05	5
21282	1e-05	-0.00016	-0.00018	-0.00047	-0.00026	-0.00053	-0.00012	-2e-05	5
21283	1e-05	-0.00016	-0.00018	-0.00047	-0.00026	-0.00053	-0.00012	-2e-05	5
21284	1e-05	-0.00016	-0.00018	-0.00047	-0.00026	-0.00053	-0.00012	-2e-05	5
21285	1e-05	-0.00016	-0.00018	-0.00047	-0.00026	-0.00053	-0.00012	-2e-05	5
21286	1e-05	-0.00016	-0.00018	-0.00047	-0.00026	-0.00053	-0.00012	-2e-05	5
21289	-0.00013	-5e-05	-2e-05	-0.00032	-0.0003	-0.00027	-0.0001	-2e-05	5
21290	-0.00013	-5e-05	-2e-05	-0.00032	-0.0003	-0.00027	-0.0001	-2e-05	5
21291	-0.00013	-5e-05	-2e-05	-0.00032	-0.0003	-0.00027	-0.0001	-2e-05	5
21292	-0.00013	-5e-05	-2e-05	-0.00032	-0.0003	-0.00027	-0.0001	-2e-05	5
21293	0	-7e-05	-4e-05	0.00032	0.00016	-9e-05	-0.00012	-7e-05	5
21294	0	-7e-05	-4e-05	0.00032	0.00016	-9e-05	-0.00012	-7e-05	5
21295	0	-7e-05	-4e-05	0.00032	0.00016	-9e-05	-0.00012	-7e-05	5
21296	0	-7e-05	-4e-05	0.00032	0.00016	-9e-05	-0.00012	-7e-05	5
21297	0	-7e-05	-4e-05	0.00032	0.00016	-9e-05	-0.00012	-7e-05	5
21298	0	-7e-05	-4e-05	0.00032	0.00016	-9e-05	-0.00012	-7e-05	5
21299	0	-7e-05	-4e-05	0.00032	0.00016	-9e-05	-0.00012	-7e-05	5
21300	0	-7e-05	-4e-05	0.00032	0.00016	-9e-05	-0.00012	-7e-05	5
21301	0	-7e-05	-4e-05	0.00032	0.00016	-9e-05	-0.00012	-7e-05	5
21302	0	-7e-05	-4e-05	0.00032	0.00016	-9e-05	-0.00012	-7e-05	5
21303	0	-7e-05	-4e-05	0.00032	0.00016	-9e-05	-0.00012	-7e-05	5
21304	0	-7e-05	-4e-05	0.00032	0.00016	-9e-05	-0.00012	-7e-05	5
21305	0	-7e-05	-4e-05	0.00032	0.00016	-9e-05	-0.00012	-7e-05	5
21306	0	-7e-05	-4e-05	0.00032	0.00016	-9e-05	-0.00012	-7e-05	5
21307	0	-7e-05	-4e-05	0.00032	0.00016	-9e-05	-0.00012	-7e-05	5
21308	0	-7e-05	-4e-05	0.00032	0.00016	-9e-05	-0.00012	-7e-05	5
21309	-5e-05	3e-05	-4e-05	-3e-05	-0.0002	-0.00015	1e-05	-2e-05	5
21310	-5e-05	3e-05	-4e-05	-3e-05	-0.0002	-0.00015	1e-05	-2e-05	5
21311	5e-05	1e-05	8e-05	0.00012	8e-05	0.00028	7e-05	5e-05	5
21312	5e-05	1e-05	8e-05	0.00012	8e-05	0.00028	7e-05	5e-05	5
21313	5e-05	1e-05	8e-05	0.00012	8e-05	0.00028	7e-05	5e-05	5
21314	5e-05	1e-05	8e-05	0.00012	8e-05	0.00028	7e-05	5e-05	5
21315	5e-05	1e-05	8e-05	0.00012	8e-05	0.00028	7e-05	5e-05	5
21316	5e-05	1e-05	8e-05	0.00012	8e-05	0.00028	7e-05	5e-05	5
21317	5e-05	1e-05	8e-05	0.00012	8e-05	0.00028	7e-05	5e-05	5
21318	5e-05	1e-05	8e-05	0.00012	8e-05	0.00028	7e-05	5e-05	5
21319	5e-05	1e-05	8e-05	0.00012	8e-05	0.00028	7e-05	5e-05	5
21320	5e-05	1e-05	8e-05	0.00012	8e-05	0.00028	7e-05	5e-05	5
21321	5e-05	1e-05	8e-05	0.00012	8e-05	0.00028	7e-05	5e-05	5
21322	5e-05	1e-05	8e-05	0.00012	8e-05	0.00028	7e-05	5e-05	5
21323	5e-05	1e-05	8e-05	0.00012	8e-05	0.00028	7e-05	5e-05	5
21324	5e-05	1e-05	8e-05	0.00012	8e-05	0.00028	7e-05	5e-05	5
21325	5e-05	1e-05	8e-05	0.00012	8e-05	0.00028	7e-05	5e-05	5
21326	5e-05	1e-05	8e-05	0.00012	8e-05	0.00028	7e-05	5e-05	5
21327	5e-05	1e-05	8e-05	0.00012	8e-05	0.00028	7e-05	5e-05	5
21328	5e-05	1e-05	8e-05	0.00012	8e-05	0.00028	7e-05	5e-05	5
21329	5e-05	1e-05	8e-05	0.00012	8e-05	0.00028	7e-05	5e-05	5
21330	5e-05	1e-05	8e-05	0.00012	8e-05	0.00028	7e-05	5e-05	5
21331	5e-05	1e-05	8e-05	0.00012	8e-05	0.00028	7e-05	5e-05	5
21332	-6e-05	-0.00015	-0.00039	-0.00027	0	-2e-05	-3e-05	-6e-05	5
21333	-6e-05	-0.00015	-0.00039	-0.00027	0	-2e-05	-3e-05	-6e-05	5
21334	-1e-05	9e-05	0.00012	0.00014	-0.00014	-0.00034	-8e-05	-1e-05	5
21335	-1e-05	9e-05	0.00012	0.00014	-0.00014	-0.00034	-8e-05	-1e-05	5
21336	-1e-05	9e-05	0.00012	0.00014	-0.00014	-0.00034	-8e-05	-1e-05	5
21339	-1e-05	9e-05	0.00012	0.00014	-0.00014	-0.00034	-8e-05	-1e-05	5
21340	-1e-05	9e-05	0.00012	0.00014	-0.00014	-0.00034	-8e-05	-1e-05	5
21341	-1e-05	9e-05	0.00012	0.00014	-0.00014	-0.00034	-8e-05	-1e-05	5
21342	-1e-05	9e-05	0.00012	0.00014	-0.00014	-0.00034	-8e-05	-1e-05	5
21343	-1e-05	9e-05	0.00012	0.00014	-0.00014	-0.00034	-8e-05	-1e-05	5
21344	-1e-05	9e-05	0.00012	0.00014	-0.00014	-0.00034	-8e-05	-1e-05	5
21345	-1e-05	9e-05	0.00012	0.00014	-0.00014	-0.00034	-8e-05	-1e-05	5
21346	-5e-05	3e-05	0.00022	0.00051	0.00031	0.00037	9e-05	-1e-05	5
21347	-5e-05	3e-05	0.00022	0.00051	0.00031	0.00037	9e-05	-1e-05	5
21348	-5e-05	3e-05	0.00022	0.00051	0.00031	0.00037	9e-05	-1e-05	5
21349	-5e-05	3e-05	0.00022	0.00051	0.00031	0.00037	9e-05	-1e-05	5
21350	-5e-05	3e-05	0.00022	0.00051	0.00031	0.00037	9e-05	-1e-05	5
21351	-5e-05	3e-05	0.00022	0.00051	0.00031	0.00037	9e-05	-1e-05	5
21352	-5e-05	3e-05	0.00022	0.00051	0.00031	0.00037	9e-05	-1e-05	5
21353	-5e-05	0	-0.00014	-0.00026	-7e-05	-7e-05	-1e-05	0	5
21354	-5e-05	0	-0.00014	-0.00026	-7e-05	-7e-05	-1e-05	0	5
21355	-5e-05	0	-0.00014	-0.00026	-7e-05	-7e-05	-1e-05	0	5
21356	-5e-05	0	-0.00014	-0.00026	-7e-05	-7e-05	-1e-05	0	5
21357	-5e-05	0	-0.00014	-0.00026	-7e-05	-7e-05	-1e-05	0	5
21358	-5e-05	0	-0.00014	-0.00026	-7e-05	-7e-05	-1e-05	0	5
21359	-5e-05	0	-0.00014	-0.00026	-7e-05	-7e-05	-1e-05	0	5
21360	-5e-05	0	-0.00014	-0.00026	-7e-05	-7e-05	-1e-05	0	5
21361	-5e-05	0	-0.00014	-0.00026	-7e-05	-7e-05	-1e-05	0	5
21362	-5e-05	0	-0.00014	-0.00026	-7e-05	-7e-05	-1e-05	0	5
21363	-5e-05	0	-0.00014	-0.00026	-7e-05	-7e-05	-1e-05	0	5
21364	-5e-05	0	-0.00014	-0.00026	-7e-05	-7e-05	-1e-05	0	5
21365	-5e-05	0	-0.00014	-0.00026	-7e-05	-7e-05	-1e-05	0	5
21366	-5e-05	0	-0.00014	-0.00026	-7e-05	-7e-05	-1e-05	0	5
21367	-5e-05	0	-0.00014	-0.00026	-7e-05	-7e-05	-1e-05	0	5
21368	-5e-05	0	-0.00014	-0.00026	-7e-05	-7e-05	-1e-05	0	5
21369	3e-05	5e-05	-2e-05	9e-05	-0.00018	-8e-05	-2e-05	-2e-05	5
21370	1e-05	1e-05	4e-05	8e-05	-0.00018	-8e-05	0	5e-05	5
21371	1e-05	1e-05	4e-05	8e-05	-0.00018	-8e-05	0	5e-05	5
21372	-5e-05	0	-2e-05	-7e-05	-1e-05	7e-05	2e-05	-3e-05	5
21373	-5e-05	0	-2e-05	-7e-05	-1e-05	7e-05	2e-05	-3e-05	5
21374	-5e-05	0	-2e-05	-7e-05	-1e-05	7e-05	2e-05	-3e-05	5
21375	-5e-05	0	-2e-05	-7e-05	-1e-05	7e-05	2e-05	-3e-05	5
21376	-5e-05	0	-2e-05	-7e-05	-1e-05	7e-05	2e-05	-3e-05	5
21377	-5e-05	0	-2e-05	-7e-05	-1e-05	7e-05	2e-05	-3e-05	5
21378	-5e-05	0	-2e-05	-7e-05	-1e-05	7e-05	2e-05	-3e-05	5
21379	-5e-05	0	-2e-05	-7e-05	-1e-05	7e-05	2e-05	-3e-05	5
21380	-5e-05	0	-2e-05	-7e-05	-1e-05	7e-05	2e-05	-3e-05	5
21381	-5e-05	0	-2e-05	-7e-05	-1e-05	7e-05	2e-05	-3e-05	5
21382	-5e-05	0	-2e-05	-7e-05	-1e-05	7e-05	2e-05	-3e-05	5
21383	-5e-05	0	-2e-05	-7e-05	-1e-05	7e-05	2e-05	-3e-05	5
21384	-5e-05	0	-2e-05	-7e-05	-1e-05	7e-05	2e-05	-3e-05	5
21385	-5e-05	0	-2e-05	-7e-05	-1e-05	7e-05	2e-05	-3e-05	5
21386	-5e-05	0	-2e-05	-7e-05	-1e-05	7e-05	2e-05	-3e-05	5
21389	-5e-05	0	-2e-05	-7e-05	-1e-05	7e-05	2e-05	-3e-05	5
21390	-5e-05	0	-2e-05	-7e-05	-1e-05	7e-05	2e-05	-3e-05	5
21391	-5e-05	0	-2e-05	-7e-05	-1e-05	7e-05	2e-05	-3e-05	5
21392	-1e-05	4e-05	0.00013	4e-05	4e-05	-6e-05	1e-05	1e-05	5
21393	0	-9e-05	-2e-05	0.00029	9e-05	-1e-05	0	2e-05	5
21394	0	-9e-05	-2e-05	0.00029	9e-05	-1e-05	0	2e-05	5
21395	0	-9e-05	-2e-05	0.00029	9e-05	-1e-05	0	2e-05	5
21396	0	-9e-05	-2e-05	0.00029	9e-05	-1e-05	0	2e-05	5
21397	0	-9e-05	-2e-05	0.00029	9e-05	-1e-05	0	2e-05	5
21398	0	-9e-05	-2e-05	0.00029	9e-05	-1e-05	0	2e-05	5
21399	0	-9e-05	-2e-05	0.00029	9e-05	-1e-05	0	2e-05	5
21400	0	-9e-05	-2e-05	0.00029	9e-05	-1e-05	0	2e-05	5
21401	0	-9e-05	-2e-05	0.00029	9e-05	-1e-05	0	2e-05	5
21402	0	-9e-05	-2e-05	0.00029	9e-05	-1e-05	0	2e-05	5
21403	0	-9e-05	-2e-05	0.00029	9e-05	-1e-05	0	2e-05	5
21404	0	-9e-05	-2e-05	0.00029	9e-05	-1e-05	0	2e-05	5
21405	0	-9e-05	-2e-05	0.00029	9e-05	-1e-05	0	2e-05	5
21406	6e-05	-1e-05	0	-0.00012	0.00024	9e-05	-1e-05	-3e-05	5
21407	6e-05	-1e-05	0	-0.00012	0.00024	9e-05	-1e-05	-3e-05	5
21408	6e-05	-1e-05	0	-0.00012	0.00024	9e-05	-1e-05	-3e-05	5
21409	6e-05	-1e-05	0	-0.00012	0.00024	9e-05	-1e-05	-3e-05	5
21410	6e-05	-1e-05	0	-0.00012	0.00024	9e-05	-1e-05	-3e-05	5
21411	6e-05	-1e-05	0	-0.00012	0.00024	9e-05	-1e-05	-3e-05	5
21412	6e-05	-1e-05	0	-0.00012	0.00024	9e-05	-1e-05	-3e-05	5
21413	6e-05	-1e-05	0	-0.00012	0.00024	9e-05	-1e-05	-3e-05	5
21414	-5e-05	1e-05	0.0001	2e-05	1e-05	-0.00017	-6e-05	-4e-05	5
21415	-5e-05	1e-05	0.0001	2e-05	1e-05	-0.00017	-6e-05	-4e-05	5
21416	-5e-05	1e-05	0.0001	2e-05	1e-05	-0.00017	-6e-05	-4e-05	5
21417	-5e-05	1e-05	0.0001	2e-05	1e-05	-0.00017	-6e-05	-4e-05	5
21418	-5e-05	1e-05	0.0001	2e-05	1e-05	-0.00017	-6e-05	-4e-05	5
21419	-5e-05	1e-05	0.0001	2e-05	1e-05	-0.00017	-6e-05	-4e-05	5
21420	-5e-05	1e-05	0.0001	2e-05	1e-05	-0.00017	-6e-05	-4e-05	5
21421	-5e-05	1e-05	0.0001	2e-05	1e-05	-0.00017	-6e-05	-4e-05	5
21422	-5e-05	1e-05	0.0001	2e-05	1e-05	-0.00017	-6e-05	-4e-05	5
21423	-5e-05	1e-05	0.0001	2e-05	1e-05	-0.00017	-6e-05	-4e-05	5
21424	-5e-05	1e-05	0.0001	2e-05	1e-05	-0.00017	-6e-05	-4e-05	5
21425	-5e-05	1e-05	0.0001	2e-05	1e-05	-0.00017	-6e-05	-4e-05	5
21426	-5e-05	1e-05	0.0001	2e-05	1e-05	-0.00017	-6e-05	-4e-05	5
21427	-5e-05	1e-05	0.0001	2e-05	1e-05	-0.00017	-6e-05	-4e-05	5
21428	-5e-05	1e-05	0.0001	2e-05	1e-05	-0.00017	-6e-05	-4e-05	5
21429	0	-3e-05	5e-05	-0.00022	7e-05	-3e-05	0	3e-05	5
21430	0	-3e-05	5e-05	-0.00022	7e-05	-3e-05	0	3e-05	5
21431	1e-05	0	8e-05	0.00051	0.00025	0.00014	4e-05	4e-05	5
21432	1e-05	0	8e-05	0.00051	0.00025	0.00014	4e-05	4e-05	5
21433	1e-05	0	8e-05	0.00051	0.00025	0.00014	4e-05	4e-05	5
21434	1e-05	0	8e-05	0.00051	0.00025	0.00014	4e-05	4e-05	5
21435	1e-05	0	8e-05	0.00051	0.00025	0.00014	4e-05	4e-05	5
21436	1e-05	0	8e-05	0.00051	0.00025	0.00014	4e-05	4e-05	5
21439	1e-05	0	8e-05	0.00051	0.00025	0.00014	4e-05	4e-05	5
21440	1e-05	0	8e-05	0.00051	0.00025	0.00014	4e-05	4e-05	5
21441	1e-05	0	8e-05	0.00051	0.00025	0.00014	4e-05	4e-05	5
21442	1e-05	0	8e-05	0.00051	0.00025	0.00014	4e-05	4e-05	5
21443	1e-05	0	8e-05	0.00051	0.00025	0.00014	4e-05	4e-05	5
21444	1e-05	0	8e-05	0.00051	0.00025	0.00014	4e-05	4e-05	5
21445	1e-05	0	8e-05	0.00051	0.00025	0.00014	4e-05	4e-05	5
21446	1e-05	0	8e-05	0.00051	0.00025	0.00014	4e-05	4e-05	5
21447	1e-05	0	8e-05	0.00051	0.00025	0.00014	4e-05	4e-05	5
21448	1e-05	0	8e-05	0.00051	0.00025	0.00014	4e-05	4e-05	5
21449	1e-05	0	8e-05	0.00051	0.00025	0.00014	4e-05	4e-05	5
21450	1e-05	0	8e-05	0.00051	0.00025	0.00014	4e-05	4e-05	5
21451	1e-05	0	8e-05	0.00051	0.00025	0.00014	4e-05	4e-05	5
21452	-7e-05	-0.0001	-0.00015	-0.00027	-0.00043	-0.00024	-7e-05	-5e-05	5
21453	5e-05	0	-5e-05	-0.00045	0	0.00018	2e-05	-3e-05	5
21454	5e-05	0	-5e-05	-0.00045	0	0.00018	2e-05	-3e-05	5
21455	5e-05	0	-5e-05	-0.00045	0	0.00018	2e-05	-3e-05	5
21456	5e-05	0	-5e-05	-0.00045	0	0.00018	2e-05	-3e-05	5
21457	5e-05	0	-5e-05	-0.00045	0	0.00018	2e-05	-3e-05	5
21458	5e-05	0	-5e-05	-0.00045	0	0.00018	2e-05	-3e-05	5
21459	5e-05	0	-5e-05	-0.00045	0	0.00018	2e-05	-3e-05	5
21460	5e-05	0	-5e-05	-0.00045	0	0.00018	2e-05	-3e-05	5
21461	5e-05	0	-5e-05	-0.00045	0	0.00018	2e-05	-3e-05	5
21462	5e-05	0	-5e-05	-0.00045	0	0.00018	2e-05	-3e-05	5
21463	5e-05	0	-5e-05	-0.00045	0	0.00018	2e-05	-3e-05	5
21464	5e-05	0	-5e-05	-0.00045	0	0.00018	2e-05	-3e-05	5
21465	5e-05	0	-5e-05	-0.00045	0	0.00018	2e-05	-3e-05	5
21466	6e-05	2e-05	-2e-05	0.00013	-2e-05	-3e-05	4e-05	7e-05	5
21467	6e-05	2e-05	-2e-05	0.00013	-2e-05	-3e-05	4e-05	7e-05	5
21468	6e-05	2e-05	-2e-05	0.00013	-2e-05	-3e-05	4e-05	7e-05	5
21469	6e-05	2e-05	-2e-05	0.00013	-2e-05	-3e-05	4e-05	7e-05	5
21470	6e-05	2e-05	-2e-05	0.00013	-2e-05	-3e-05	4e-05	7e-05	5
21471	6e-05	2e-05	-2e-05	0.00013	-2e-05	-3e-05	4e-05	7e-05	5
21472	6e-05	2e-05	-2e-05	0.00013	-2e-05	-3e-05	4e-05	7e-05	5
21473	1e-05	4e-05	4e-05	0	-3e-05	-6e-05	-6e-05	-5e-05	5
21474	1e-05	4e-05	4e-05	0	-3e-05	-6e-05	-6e-05	-5e-05	5
21475	1e-05	4e-05	4e-05	0	-3e-05	-6e-05	-6e-05	-5e-05	5
21476	1e-05	4e-05	4e-05	0	-3e-05	-6e-05	-6e-05	-5e-05	5
21477	1e-05	4e-05	4e-05	0	-3e-05	-6e-05	-6e-05	-5e-05	5
21478	1e-05	4e-05	4e-05	0	-3e-05	-6e-05	-6e-05	-5e-05	5
21479	1e-05	4e-05	4e-05	0	-3e-05	-6e-05	-6e-05	-5e-05	5
21480	1e-05	4e-05	4e-05	0	-3e-05	-6e-05	-6e-05	-5e-05	5
21481	1e-05	4e-05	4e-05	0	-3e-05	-6e-05	-6e-05	-5e-05	5
21482	1e-05	4e-05	4e-05	0	-3e-05	-6e-05	-6e-05	-5e-05	5
21483	1e-05	4e-05	4e-05	0	-3e-05	-6e-05	-6e-05	-5e-05	5
21484	1e-05	4e-05	4e-05	0	-3e-05	-6e-05	-6e-05	-5e-05	5
21485	1e-05	4e-05	4e-05	0	-3e-05	-6e-05	-6e-05	-5e-05	5
21486	1e-05	4e-05	4e-05	0	-3e-05	-6e-05	-6e-05	-5e-05	5
21488	1e-05	4e-05	4e-05	0	-3e-05	-6e-05	-6e-05	-5e-05	5
21489	1e-05	4e-05	4e-05	0	-3e-05	-6e-05	-6e-05	-5e-05	5
21490	-1e-05	-2e-05	-9e-05	-0.00079	-0.00016	0.00019	-1e-05	-1e-05	5
21491	1e-05	-4e-05	0.00011	-0.00021	-0.00044	-0.00021	-4e-05	2e-05	5
21492	1e-05	-4e-05	0.00011	-0.00021	-0.00044	-0.00021	-4e-05	2e-05	5
21493	1e-05	-4e-05	0.00011	-0.00021	-0.00044	-0.00021	-4e-05	2e-05	5
21494	1e-05	-4e-05	0.00011	-0.00021	-0.00044	-0.00021	-4e-05	2e-05	5
21495	1e-05	-4e-05	0.00011	-0.00021	-0.00044	-0.00021	-4e-05	2e-05	5
21496	1e-05	-4e-05	0.00011	-0.00021	-0.00044	-0.00021	-4e-05	2e-05	5
21497	1e-05	-4e-05	0.00011	-0.00021	-0.00044	-0.00021	-4e-05	2e-05	5
21498	1e-05	-4e-05	0.00011	-0.00021	-0.00044	-0.00021	-4e-05	2e-05	5
21499	1e-05	-4e-05	0.00011	-0.00021	-0.00044	-0.00021	-4e-05	2e-05	5
21500	1e-05	-4e-05	0.00011	-0.00021	-0.00044	-0.00021	-4e-05	2e-05	5
21501	1e-05	-4e-05	0.00011	-0.00021	-0.00044	-0.00021	-4e-05	2e-05	5
21502	1e-05	-4e-05	0.00011	-0.00021	-0.00044	-0.00021	-4e-05	2e-05	5
21503	1e-05	-4e-05	0.00011	-0.00021	-0.00044	-0.00021	-4e-05	2e-05	5
21504	1e-05	-4e-05	0.00011	-0.00021	-0.00044	-0.00021	-4e-05	2e-05	5
21505	1e-05	-4e-05	0.00011	-0.00021	-0.00044	-0.00021	-4e-05	2e-05	5
21506	1e-05	-4e-05	0.00011	-0.00021	-0.00044	-0.00021	-4e-05	2e-05	5
21507	1e-05	-4e-05	0.00011	-0.00021	-0.00044	-0.00021	-4e-05	2e-05	5
21508	1e-05	-4e-05	0.00011	-0.00021	-0.00044	-0.00021	-4e-05	2e-05	5
21509	1e-05	-4e-05	0.00011	-0.00021	-0.00044	-0.00021	-4e-05	2e-05	5
21510	1e-05	-4e-05	0.00011	-0.00021	-0.00044	-0.00021	-4e-05	2e-05	5
21511	1e-05	-4e-05	0.00011	-0.00021	-0.00044	-0.00021	-4e-05	2e-05	5
21512	-5e-05	-0.00017	-0.00032	-0.00074	-0.00022	-0.0001	0	0	5
21513	1e-05	0.00012	0.00018	2e-05	1e-05	0.00017	3e-05	6e-05	5
21514	1e-05	0.00012	0.00018	2e-05	1e-05	0.00017	3e-05	6e-05	5
21515	1e-05	0.00012	0.00018	2e-05	1e-05	0.00017	3e-05	6e-05	5
21516	1e-05	0.00012	0.00018	2e-05	1e-05	0.00017	3e-05	6e-05	5
21517	1e-05	0.00012	0.00018	2e-05	1e-05	0.00017	3e-05	6e-05	5
21518	1e-05	0.00012	0.00018	2e-05	1e-05	0.00017	3e-05	6e-05	5
21519	1e-05	0.00012	0.00018	2e-05	1e-05	0.00017	3e-05	6e-05	5
21520	1e-05	0.00012	0.00018	2e-05	1e-05	0.00017	3e-05	6e-05	5
21521	1e-05	0.00012	0.00018	2e-05	1e-05	0.00017	3e-05	6e-05	5
21522	1e-05	0.00012	0.00018	2e-05	1e-05	0.00017	3e-05	6e-05	5
21523	1e-05	0.00012	0.00018	2e-05	1e-05	0.00017	3e-05	6e-05	5
21524	1e-05	0.00012	0.00018	2e-05	1e-05	0.00017	3e-05	6e-05	5
21525	1e-05	0.00012	0.00018	2e-05	1e-05	0.00017	3e-05	6e-05	5
21526	3e-05	3e-05	-6e-05	0.00014	-0.00015	-0.00019	-8e-05	-4e-05	5
21527	3e-05	3e-05	-6e-05	0.00014	-0.00015	-0.00019	-8e-05	-4e-05	5
21528	3e-05	3e-05	-6e-05	0.00014	-0.00015	-0.00019	-8e-05	-4e-05	5
21529	3e-05	3e-05	-6e-05	0.00014	-0.00015	-0.00019	-8e-05	-4e-05	5
21530	3e-05	3e-05	-6e-05	0.00014	-0.00015	-0.00019	-8e-05	-4e-05	5
21531	3e-05	3e-05	-6e-05	0.00014	-0.00015	-0.00019	-8e-05	-4e-05	5
21532	3e-05	3e-05	-6e-05	0.00014	-0.00015	-0.00019	-8e-05	-4e-05	5
21533	-0.00011	0.00011	0.00025	0.00019	-2e-05	0.00036	0.0001	1e-05	5
21534	-0.00011	0.00011	0.00025	0.00019	-2e-05	0.00036	0.0001	1e-05	5
21535	-0.00011	0.00011	0.00025	0.00019	-2e-05	0.00036	0.0001	1e-05	5
21536	-0.00011	0.00011	0.00025	0.00019	-2e-05	0.00036	0.0001	1e-05	5
21538	-0.00011	0.00011	0.00025	0.00019	-2e-05	0.00036	0.0001	1e-05	5
21539	-0.00011	0.00011	0.00025	0.00019	-2e-05	0.00036	0.0001	1e-05	5
21540	-0.00011	0.00011	0.00025	0.00019	-2e-05	0.00036	0.0001	1e-05	5
21541	-0.00011	0.00011	0.00025	0.00019	-2e-05	0.00036	0.0001	1e-05	5
21542	-0.00011	0.00011	0.00025	0.00019	-2e-05	0.00036	0.0001	1e-05	5
21543	-0.00011	0.00011	0.00025	0.00019	-2e-05	0.00036	0.0001	1e-05	5
21544	-0.00011	0.00011	0.00025	0.00019	-2e-05	0.00036	0.0001	1e-05	5
21545	-0.00011	0.00011	0.00025	0.00019	-2e-05	0.00036	0.0001	1e-05	5
21546	-0.00011	0.00011	0.00025	0.00019	-2e-05	0.00036	0.0001	1e-05	5
21547	-0.00011	0.00011	0.00025	0.00019	-2e-05	0.00036	0.0001	1e-05	5
21548	-0.00011	0.00011	0.00025	0.00019	-2e-05	0.00036	0.0001	1e-05	5
21549	0	7e-05	0.00018	0.00034	0.00017	7e-05	-2e-05	0	5
21550	0	-7e-05	-0.00011	-6e-05	2e-05	-3e-05	-1e-05	0	5
21551	0	-7e-05	-0.00011	-6e-05	2e-05	-3e-05	-1e-05	0	5
21552	0	-7e-05	-0.00011	-6e-05	2e-05	-3e-05	-1e-05	0	5
21553	0	-7e-05	-0.00011	-6e-05	2e-05	-3e-05	-1e-05	0	5
21554	0	-7e-05	-0.00011	-6e-05	2e-05	-3e-05	-1e-05	0	5
21555	0	-7e-05	-0.00011	-6e-05	2e-05	-3e-05	-1e-05	0	5
21556	0	-7e-05	-0.00011	-6e-05	2e-05	-3e-05	-1e-05	0	5
21557	0	-7e-05	-0.00011	-6e-05	2e-05	-3e-05	-1e-05	0	5
21558	0	-7e-05	-0.00011	-6e-05	2e-05	-3e-05	-1e-05	0	5
21559	0	-7e-05	-0.00011	-6e-05	2e-05	-3e-05	-1e-05	0	5
21560	0	-7e-05	-0.00011	-6e-05	2e-05	-3e-05	-1e-05	0	5
21561	0	-7e-05	-0.00011	-6e-05	2e-05	-3e-05	-1e-05	0	5
21562	0	-7e-05	-0.00011	-6e-05	2e-05	-3e-05	-1e-05	0	5
21563	0	-7e-05	-0.00011	-6e-05	2e-05	-3e-05	-1e-05	0	5
21564	0	-7e-05	-0.00011	-6e-05	2e-05	-3e-05	-1e-05	0	5
21565	0	-7e-05	-0.00011	-6e-05	2e-05	-3e-05	-1e-05	0	5
21566	0	-7e-05	-0.00011	-6e-05	2e-05	-3e-05	-1e-05	0	5
21567	0	-7e-05	-0.00011	-6e-05	2e-05	-3e-05	-1e-05	0	5
21568	0	-7e-05	-0.00011	-6e-05	2e-05	-3e-05	-1e-05	0	5
21569	0	-7e-05	-0.00011	-6e-05	2e-05	-3e-05	-1e-05	0	5
21570	0	-7e-05	-0.00011	-6e-05	2e-05	-3e-05	-1e-05	0	5
21571	0	2e-05	-2e-05	1e-05	-0.00013	3e-05	-2e-05	-1e-05	5
21572	-6e-05	3e-05	0.00017	0.00024	8e-05	6e-05	-1e-05	-2e-05	5
21573	0	-2e-05	-5e-05	-1e-05	4e-05	-5e-05	-3e-05	0	5
21574	0	-2e-05	-5e-05	-1e-05	4e-05	-5e-05	-3e-05	0	5
21575	0	-2e-05	-5e-05	-1e-05	4e-05	-5e-05	-3e-05	0	5
21576	0	-2e-05	-5e-05	-1e-05	4e-05	-5e-05	-3e-05	0	5
21577	0	-2e-05	-5e-05	-1e-05	4e-05	-5e-05	-3e-05	0	5
21578	0	-2e-05	-5e-05	-1e-05	4e-05	-5e-05	-3e-05	0	5
21579	0	-2e-05	-5e-05	-1e-05	4e-05	-5e-05	-3e-05	0	5
21580	0	-2e-05	-5e-05	-1e-05	4e-05	-5e-05	-3e-05	0	5
21581	0	-2e-05	-5e-05	-1e-05	4e-05	-5e-05	-3e-05	0	5
21582	0	-2e-05	-5e-05	-1e-05	4e-05	-5e-05	-3e-05	0	5
21583	0	-2e-05	-5e-05	-1e-05	4e-05	-5e-05	-3e-05	0	5
21584	0	-2e-05	-5e-05	-1e-05	4e-05	-5e-05	-3e-05	0	5
21585	9e-05	-0.00022	-0.00029	-0.00058	-6e-05	-0.00014	-2e-05	0	5
21586	9e-05	-0.00022	-0.00029	-0.00058	-6e-05	-0.00014	-2e-05	0	5
21588	9e-05	-0.00022	-0.00029	-0.00058	-6e-05	-0.00014	-2e-05	0	5
21589	9e-05	-0.00022	-0.00029	-0.00058	-6e-05	-0.00014	-2e-05	0	5
21590	9e-05	-0.00022	-0.00029	-0.00058	-6e-05	-0.00014	-2e-05	0	5
21591	9e-05	-0.00022	-0.00029	-0.00058	-6e-05	-0.00014	-2e-05	0	5
21592	9e-05	-0.00022	-0.00029	-0.00058	-6e-05	-0.00014	-2e-05	0	5
21593	9e-05	-0.00022	-0.00029	-0.00058	-6e-05	-0.00014	-2e-05	0	5
21594	-9e-05	-0.0001	-0.0002	-0.00042	-0.00015	-0.00015	2e-05	-6e-05	5
21595	-9e-05	-0.0001	-0.0002	-0.00042	-0.00015	-0.00015	2e-05	-6e-05	5
21596	-9e-05	-0.0001	-0.0002	-0.00042	-0.00015	-0.00015	2e-05	-6e-05	5
21597	-9e-05	-0.0001	-0.0002	-0.00042	-0.00015	-0.00015	2e-05	-6e-05	5
21598	-9e-05	-0.0001	-0.0002	-0.00042	-0.00015	-0.00015	2e-05	-6e-05	5
21599	-9e-05	-0.0001	-0.0002	-0.00042	-0.00015	-0.00015	2e-05	-6e-05	5
21600	-9e-05	-0.0001	-0.0002	-0.00042	-0.00015	-0.00015	2e-05	-6e-05	5
21601	-9e-05	-0.0001	-0.0002	-0.00042	-0.00015	-0.00015	2e-05	-6e-05	5
21602	-9e-05	-0.0001	-0.0002	-0.00042	-0.00015	-0.00015	2e-05	-6e-05	5
21603	-9e-05	-0.0001	-0.0002	-0.00042	-0.00015	-0.00015	2e-05	-6e-05	5
21604	-9e-05	-0.0001	-0.0002	-0.00042	-0.00015	-0.00015	2e-05	-6e-05	5
21605	-9e-05	-0.0001	-0.0002	-0.00042	-0.00015	-0.00015	2e-05	-6e-05	5
21606	-9e-05	-0.0001	-0.0002	-0.00042	-0.00015	-0.00015	2e-05	-6e-05	5
21607	-9e-05	-0.0001	-0.0002	-0.00042	-0.00015	-0.00015	2e-05	-6e-05	5
21608	-9e-05	-0.0001	-0.0002	-0.00042	-0.00015	-0.00015	2e-05	-6e-05	5
21609	-3e-05	0.0001	0.0002	-2e-05	-0.00017	-3e-05	2e-05	1e-05	5
21610	-3e-05	0.0001	0.0002	-2e-05	-0.00017	-3e-05	2e-05	1e-05	5
21611	3e-05	0	-1e-05	8e-05	0.00013	7e-05	0	-4e-05	5
21612	3e-05	0	-1e-05	8e-05	0.00013	7e-05	0	-4e-05	5
21613	3e-05	0	-1e-05	8e-05	0.00013	7e-05	0	-4e-05	5
21614	3e-05	0	-1e-05	8e-05	0.00013	7e-05	0	-4e-05	5
21615	3e-05	0	-1e-05	8e-05	0.00013	7e-05	0	-4e-05	5
21616	3e-05	0	-1e-05	8e-05	0.00013	7e-05	0	-4e-05	5
21617	3e-05	0	-1e-05	8e-05	0.00013	7e-05	0	-4e-05	5
21618	3e-05	0	-1e-05	8e-05	0.00013	7e-05	0	-4e-05	5
21619	3e-05	0	-1e-05	8e-05	0.00013	7e-05	0	-4e-05	5
21620	3e-05	0	-1e-05	8e-05	0.00013	7e-05	0	-4e-05	5
21621	3e-05	0	-1e-05	8e-05	0.00013	7e-05	0	-4e-05	5
21622	3e-05	0	-1e-05	8e-05	0.00013	7e-05	0	-4e-05	5
21623	3e-05	0	-1e-05	8e-05	0.00013	7e-05	0	-4e-05	5
21624	3e-05	0	-1e-05	8e-05	0.00013	7e-05	0	-4e-05	5
21625	3e-05	0	-1e-05	8e-05	0.00013	7e-05	0	-4e-05	5
21626	3e-05	0	-1e-05	8e-05	0.00013	7e-05	0	-4e-05	5
21627	3e-05	0	-1e-05	8e-05	0.00013	7e-05	0	-4e-05	5
21628	3e-05	0	-1e-05	8e-05	0.00013	7e-05	0	-4e-05	5
21629	3e-05	0	-1e-05	8e-05	0.00013	7e-05	0	-4e-05	5
21630	3e-05	0	-1e-05	8e-05	0.00013	7e-05	0	-4e-05	5
21631	3e-05	0	-1e-05	8e-05	0.00013	7e-05	0	-4e-05	5
21632	-4e-05	2e-05	8e-05	0.00024	4e-05	1e-05	-5e-05	-2e-05	5
21633	-1e-05	-1e-05	2e-05	0.00011	8e-05	-6e-05	-2e-05	2e-05	5
21634	-1e-05	-1e-05	2e-05	0.00011	8e-05	-6e-05	-2e-05	2e-05	5
21635	-1e-05	-1e-05	2e-05	0.00011	8e-05	-6e-05	-2e-05	2e-05	5
21636	-1e-05	-1e-05	2e-05	0.00011	8e-05	-6e-05	-2e-05	2e-05	5
21638	-1e-05	-1e-05	2e-05	0.00011	8e-05	-6e-05	-2e-05	2e-05	5
21639	-1e-05	-1e-05	2e-05	0.00011	8e-05	-6e-05	-2e-05	2e-05	5
21640	-1e-05	-1e-05	2e-05	0.00011	8e-05	-6e-05	-2e-05	2e-05	5
21641	-1e-05	-1e-05	2e-05	0.00011	8e-05	-6e-05	-2e-05	2e-05	5
21642	-1e-05	-1e-05	2e-05	0.00011	8e-05	-6e-05	-2e-05	2e-05	5
21643	-1e-05	-1e-05	2e-05	0.00011	8e-05	-6e-05	-2e-05	2e-05	5
21644	-1e-05	-1e-05	2e-05	0.00011	8e-05	-6e-05	-2e-05	2e-05	5
21645	9e-05	-0.00014	-0.00037	-4e-05	-0.0002	0.00031	4e-05	2e-05	5
21646	9e-05	-0.00014	-0.00037	-4e-05	-0.0002	0.00031	4e-05	2e-05	5
21647	9e-05	-0.00014	-0.00037	-4e-05	-0.0002	0.00031	4e-05	2e-05	5
21648	9e-05	-0.00014	-0.00037	-4e-05	-0.0002	0.00031	4e-05	2e-05	5
21649	9e-05	-0.00014	-0.00037	-4e-05	-0.0002	0.00031	4e-05	2e-05	5
21650	9e-05	-0.00014	-0.00037	-4e-05	-0.0002	0.00031	4e-05	2e-05	5
21651	9e-05	-0.00014	-0.00037	-4e-05	-0.0002	0.00031	4e-05	2e-05	5
21652	9e-05	-0.00014	-0.00037	-4e-05	-0.0002	0.00031	4e-05	2e-05	5
21653	9e-05	-0.00014	-0.00037	-4e-05	-0.0002	0.00031	4e-05	2e-05	5
21654	0	-1e-05	-0.00012	-0.00013	0.00035	4e-05	-1e-05	2e-05	5
21655	0	-1e-05	-0.00012	-0.00013	0.00035	4e-05	-1e-05	2e-05	5
21656	0	-1e-05	-0.00012	-0.00013	0.00035	4e-05	-1e-05	2e-05	5
21657	0	-1e-05	-0.00012	-0.00013	0.00035	4e-05	-1e-05	2e-05	5
21658	0	-1e-05	-0.00012	-0.00013	0.00035	4e-05	-1e-05	2e-05	5
21659	0	-1e-05	-0.00012	-0.00013	0.00035	4e-05	-1e-05	2e-05	5
21660	0	-1e-05	-0.00012	-0.00013	0.00035	4e-05	-1e-05	2e-05	5
21661	0	-1e-05	-0.00012	-0.00013	0.00035	4e-05	-1e-05	2e-05	5
21662	0	-1e-05	-0.00012	-0.00013	0.00035	4e-05	-1e-05	2e-05	5
21663	0	-1e-05	-0.00012	-0.00013	0.00035	4e-05	-1e-05	2e-05	5
21664	0	-1e-05	-0.00012	-0.00013	0.00035	4e-05	-1e-05	2e-05	5
21665	0	-1e-05	-0.00012	-0.00013	0.00035	4e-05	-1e-05	2e-05	5
21666	0	-1e-05	-0.00012	-0.00013	0.00035	4e-05	-1e-05	2e-05	5
21667	0	-1e-05	-0.00012	-0.00013	0.00035	4e-05	-1e-05	2e-05	5
21668	0.00013	0.00017	0.00034	0.00034	0.00016	0.00041	0.00012	6e-05	5
21669	-3e-05	6e-05	0.0001	-8e-05	9e-05	0.0001	-1e-05	-4e-05	5
21670	-3e-05	6e-05	0.0001	-8e-05	9e-05	0.0001	-1e-05	-4e-05	5
21671	-3e-05	6e-05	0.0001	-8e-05	9e-05	0.0001	-1e-05	-4e-05	5
21672	-3e-05	6e-05	0.0001	-8e-05	9e-05	0.0001	-1e-05	-4e-05	5
21673	-3e-05	6e-05	0.0001	-8e-05	9e-05	0.0001	-1e-05	-4e-05	5
21674	-3e-05	6e-05	0.0001	-8e-05	9e-05	0.0001	-1e-05	-4e-05	5
21675	5e-05	-2e-05	2e-05	-7e-05	-0.00023	-1e-05	1e-05	-2e-05	5
21676	5e-05	-2e-05	2e-05	-7e-05	-0.00023	-1e-05	1e-05	-2e-05	5
21677	5e-05	-2e-05	2e-05	-7e-05	-0.00023	-1e-05	1e-05	-2e-05	5
21678	5e-05	-2e-05	2e-05	-7e-05	-0.00023	-1e-05	1e-05	-2e-05	5
21679	5e-05	-2e-05	2e-05	-7e-05	-0.00023	-1e-05	1e-05	-2e-05	5
21680	5e-05	-2e-05	2e-05	-7e-05	-0.00023	-1e-05	1e-05	-2e-05	5
21681	5e-05	-2e-05	2e-05	-7e-05	-0.00023	-1e-05	1e-05	-2e-05	5
21682	5e-05	-2e-05	2e-05	-7e-05	-0.00023	-1e-05	1e-05	-2e-05	5
21683	5e-05	-2e-05	2e-05	-7e-05	-0.00023	-1e-05	1e-05	-2e-05	5
21684	5e-05	-2e-05	2e-05	-7e-05	-0.00023	-1e-05	1e-05	-2e-05	5
21685	5e-05	-2e-05	2e-05	-7e-05	-0.00023	-1e-05	1e-05	-2e-05	5
21686	5e-05	-2e-05	2e-05	-7e-05	-0.00023	-1e-05	1e-05	-2e-05	5
21688	5e-05	-2e-05	2e-05	-7e-05	-0.00023	-1e-05	1e-05	-2e-05	5
21689	5e-05	-2e-05	2e-05	-7e-05	-0.00023	-1e-05	1e-05	-2e-05	5
21690	5e-05	-2e-05	2e-05	-7e-05	-0.00023	-1e-05	1e-05	-2e-05	5
21691	5e-05	-2e-05	2e-05	-7e-05	-0.00023	-1e-05	1e-05	-2e-05	5
21692	-4e-05	3e-05	4e-05	-0.00016	-2e-05	-0.00012	-1e-05	-1e-05	5
21693	-4e-05	3e-05	4e-05	-0.00016	-2e-05	-0.00012	-1e-05	-1e-05	5
21694	-4e-05	3e-05	4e-05	-0.00016	-2e-05	-0.00012	-1e-05	-1e-05	5
21695	-4e-05	3e-05	4e-05	-0.00016	-2e-05	-0.00012	-1e-05	-1e-05	5
21696	-4e-05	3e-05	4e-05	-0.00016	-2e-05	-0.00012	-1e-05	-1e-05	5
21697	-4e-05	3e-05	4e-05	-0.00016	-2e-05	-0.00012	-1e-05	-1e-05	5
21698	2e-05	2e-05	-7e-05	-0.00014	3e-05	5e-05	-3e-05	0	5
21699	2e-05	2e-05	-7e-05	-0.00014	3e-05	5e-05	-3e-05	0	5
21700	2e-05	2e-05	-7e-05	-0.00014	3e-05	5e-05	-3e-05	0	5
21701	2e-05	2e-05	-7e-05	-0.00014	3e-05	5e-05	-3e-05	0	5
21702	2e-05	2e-05	-7e-05	-0.00014	3e-05	5e-05	-3e-05	0	5
21703	2e-05	2e-05	-7e-05	-0.00014	3e-05	5e-05	-3e-05	0	5
21704	2e-05	2e-05	-7e-05	-0.00014	3e-05	5e-05	-3e-05	0	5
21705	-3e-05	0.00011	0.00017	0.00022	0.00016	0.00028	0.00011	4e-05	5
21706	1e-05	4e-05	1e-05	1e-05	-0.00021	-0.00023	-4e-05	-1e-05	5
21707	1e-05	4e-05	1e-05	1e-05	-0.00021	-0.00023	-4e-05	-1e-05	5
21708	1e-05	4e-05	1e-05	1e-05	-0.00021	-0.00023	-4e-05	-1e-05	5
21709	1e-05	4e-05	1e-05	1e-05	-0.00021	-0.00023	-4e-05	-1e-05	5
21710	1e-05	4e-05	1e-05	1e-05	-0.00021	-0.00023	-4e-05	-1e-05	5
21711	1e-05	4e-05	1e-05	1e-05	-0.00021	-0.00023	-4e-05	-1e-05	5
21712	1e-05	4e-05	1e-05	1e-05	-0.00021	-0.00023	-4e-05	-1e-05	5
21713	1e-05	4e-05	1e-05	1e-05	-0.00021	-0.00023	-4e-05	-1e-05	5
21714	-1e-05	-9e-05	-2e-05	2e-05	-0.00022	-0.00021	-0.00011	-5e-05	5
21715	-1e-05	-9e-05	-2e-05	2e-05	-0.00022	-0.00021	-0.00011	-5e-05	5
21716	-1e-05	-9e-05	-2e-05	2e-05	-0.00022	-0.00021	-0.00011	-5e-05	5
21717	-1e-05	-9e-05	-2e-05	2e-05	-0.00022	-0.00021	-0.00011	-5e-05	5
21718	-1e-05	-9e-05	-2e-05	2e-05	-0.00022	-0.00021	-0.00011	-5e-05	5
21719	-1e-05	-9e-05	-2e-05	2e-05	-0.00022	-0.00021	-0.00011	-5e-05	5
21720	-1e-05	-9e-05	-2e-05	2e-05	-0.00022	-0.00021	-0.00011	-5e-05	5
21721	-1e-05	-9e-05	-2e-05	2e-05	-0.00022	-0.00021	-0.00011	-5e-05	5
21722	-1e-05	-9e-05	-2e-05	2e-05	-0.00022	-0.00021	-0.00011	-5e-05	5
21723	-1e-05	-9e-05	-2e-05	2e-05	-0.00022	-0.00021	-0.00011	-5e-05	5
21724	-1e-05	-9e-05	-2e-05	2e-05	-0.00022	-0.00021	-0.00011	-5e-05	5
21725	-1e-05	-9e-05	-2e-05	2e-05	-0.00022	-0.00021	-0.00011	-5e-05	5
21726	-1e-05	-9e-05	-2e-05	2e-05	-0.00022	-0.00021	-0.00011	-5e-05	5
21727	-1e-05	-9e-05	-2e-05	2e-05	-0.00022	-0.00021	-0.00011	-5e-05	5
21728	-1e-05	-9e-05	-2e-05	2e-05	-0.00022	-0.00021	-0.00011	-5e-05	5
21729	5e-05	7e-05	0.00012	0.00019	0	0.0003	8e-05	1e-05	5
21730	5e-05	7e-05	0.00012	0.00019	0	0.0003	8e-05	1e-05	5
21731	3e-05	-9e-05	-0.00028	-0.00019	-0.00029	-0.00022	-8e-05	-3e-05	5
21732	3e-05	-9e-05	-0.00028	-0.00019	-0.00029	-0.00022	-8e-05	-3e-05	5
21733	3e-05	-9e-05	-0.00028	-0.00019	-0.00029	-0.00022	-8e-05	-3e-05	5
21734	3e-05	-9e-05	-0.00028	-0.00019	-0.00029	-0.00022	-8e-05	-3e-05	5
21735	3e-05	-9e-05	-0.00028	-0.00019	-0.00029	-0.00022	-8e-05	-3e-05	5
21736	3e-05	-9e-05	-0.00028	-0.00019	-0.00029	-0.00022	-8e-05	-3e-05	5
21738	3e-05	-9e-05	-0.00028	-0.00019	-0.00029	-0.00022	-8e-05	-3e-05	5
21739	3e-05	-9e-05	-0.00028	-0.00019	-0.00029	-0.00022	-8e-05	-3e-05	5
21740	3e-05	-9e-05	-0.00028	-0.00019	-0.00029	-0.00022	-8e-05	-3e-05	5
21741	3e-05	-9e-05	-0.00028	-0.00019	-0.00029	-0.00022	-8e-05	-3e-05	5
21742	3e-05	-9e-05	-0.00028	-0.00019	-0.00029	-0.00022	-8e-05	-3e-05	5
21743	3e-05	-9e-05	-0.00028	-0.00019	-0.00029	-0.00022	-8e-05	-3e-05	5
21744	3e-05	-9e-05	-0.00028	-0.00019	-0.00029	-0.00022	-8e-05	-3e-05	5
21745	3e-05	-9e-05	-0.00028	-0.00019	-0.00029	-0.00022	-8e-05	-3e-05	5
21746	3e-05	-9e-05	-0.00028	-0.00019	-0.00029	-0.00022	-8e-05	-3e-05	5
21747	3e-05	-9e-05	-0.00028	-0.00019	-0.00029	-0.00022	-8e-05	-3e-05	5
21748	3e-05	-9e-05	-0.00028	-0.00019	-0.00029	-0.00022	-8e-05	-3e-05	5
21749	3e-05	-9e-05	-0.00028	-0.00019	-0.00029	-0.00022	-8e-05	-3e-05	5
21750	3e-05	-9e-05	-0.00028	-0.00019	-0.00029	-0.00022	-8e-05	-3e-05	5
21751	3e-05	-9e-05	-0.00028	-0.00019	-0.00029	-0.00022	-8e-05	-3e-05	5
21752	-0.00016	-0.00023	-0.00059	6e-05	0.0002	0	-2e-05	-5e-05	5
21753	-3e-05	-1e-05	-6e-05	-0.00049	-0.00039	-9e-05	2e-05	0	5
21754	-3e-05	-1e-05	-6e-05	-0.00049	-0.00039	-9e-05	2e-05	0	5
21755	-3e-05	-1e-05	-6e-05	-0.00049	-0.00039	-9e-05	2e-05	0	5
21756	-3e-05	-1e-05	-6e-05	-0.00049	-0.00039	-9e-05	2e-05	0	5
21757	-3e-05	-1e-05	-6e-05	-0.00049	-0.00039	-9e-05	2e-05	0	5
21758	-3e-05	-1e-05	-6e-05	-0.00049	-0.00039	-9e-05	2e-05	0	5
21759	-3e-05	-1e-05	-6e-05	-0.00049	-0.00039	-9e-05	2e-05	0	5
21760	-3e-05	-1e-05	-6e-05	-0.00049	-0.00039	-9e-05	2e-05	0	5
21761	-3e-05	-1e-05	-6e-05	-0.00049	-0.00039	-9e-05	2e-05	0	5
21762	-3e-05	-1e-05	-6e-05	-0.00049	-0.00039	-9e-05	2e-05	0	5
21763	-3e-05	-1e-05	-6e-05	-0.00049	-0.00039	-9e-05	2e-05	0	5
21764	-3e-05	-1e-05	-6e-05	-0.00049	-0.00039	-9e-05	2e-05	0	5
21765	-1e-05	6e-05	0.00019	0.00015	0.00035	-2e-05	1e-05	0	5
21766	-1e-05	6e-05	0.00019	0.00015	0.00035	-2e-05	1e-05	0	5
21767	-1e-05	6e-05	0.00019	0.00015	0.00035	-2e-05	1e-05	0	5
21768	-1e-05	6e-05	0.00019	0.00015	0.00035	-2e-05	1e-05	0	5
21769	-1e-05	6e-05	0.00019	0.00015	0.00035	-2e-05	1e-05	0	5
21770	-1e-05	6e-05	0.00019	0.00015	0.00035	-2e-05	1e-05	0	5
21771	-1e-05	6e-05	0.00019	0.00015	0.00035	-2e-05	1e-05	0	5
21772	-1e-05	6e-05	0.00019	0.00015	0.00035	-2e-05	1e-05	0	5
21773	-1e-05	6e-05	0.00019	0.00015	0.00035	-2e-05	1e-05	0	5
21774	6e-05	0.00013	0.00013	-7e-05	5e-05	0.00019	0.00013	5e-05	5
21775	6e-05	0.00013	0.00013	-7e-05	5e-05	0.00019	0.00013	5e-05	5
21776	6e-05	0.00013	0.00013	-7e-05	5e-05	0.00019	0.00013	5e-05	5
21777	6e-05	0.00013	0.00013	-7e-05	5e-05	0.00019	0.00013	5e-05	5
21778	6e-05	0.00013	0.00013	-7e-05	5e-05	0.00019	0.00013	5e-05	5
21779	6e-05	0.00013	0.00013	-7e-05	5e-05	0.00019	0.00013	5e-05	5
21780	6e-05	0.00013	0.00013	-7e-05	5e-05	0.00019	0.00013	5e-05	5
21781	6e-05	0.00013	0.00013	-7e-05	5e-05	0.00019	0.00013	5e-05	5
21782	6e-05	0.00013	0.00013	-7e-05	5e-05	0.00019	0.00013	5e-05	5
21783	6e-05	0.00013	0.00013	-7e-05	5e-05	0.00019	0.00013	5e-05	5
21784	6e-05	0.00013	0.00013	-7e-05	5e-05	0.00019	0.00013	5e-05	5
21785	6e-05	0.00013	0.00013	-7e-05	5e-05	0.00019	0.00013	5e-05	5
21786	6e-05	0.00013	0.00013	-7e-05	5e-05	0.00019	0.00013	5e-05	5
21788	6e-05	0.00013	0.00013	-7e-05	5e-05	0.00019	0.00013	5e-05	5
21789	6e-05	0.00013	0.00013	-7e-05	5e-05	0.00019	0.00013	5e-05	5
21790	2e-05	5e-05	0.00019	-3e-05	-4e-05	-6e-05	-1e-05	2e-05	5
21791	7e-05	7e-05	0.00012	0.00022	6e-05	-4e-05	1e-05	-2e-05	5
21792	7e-05	7e-05	0.00012	0.00022	6e-05	-4e-05	1e-05	-2e-05	5
21793	7e-05	7e-05	0.00012	0.00022	6e-05	-4e-05	1e-05	-2e-05	5
21794	7e-05	7e-05	0.00012	0.00022	6e-05	-4e-05	1e-05	-2e-05	5
21795	7e-05	7e-05	0.00012	0.00022	6e-05	-4e-05	1e-05	-2e-05	5
21796	7e-05	7e-05	0.00012	0.00022	6e-05	-4e-05	1e-05	-2e-05	5
21797	7e-05	7e-05	0.00012	0.00022	6e-05	-4e-05	1e-05	-2e-05	5
21798	7e-05	7e-05	0.00012	0.00022	6e-05	-4e-05	1e-05	-2e-05	5
21799	7e-05	7e-05	0.00012	0.00022	6e-05	-4e-05	1e-05	-2e-05	5
21800	7e-05	7e-05	0.00012	0.00022	6e-05	-4e-05	1e-05	-2e-05	5
21801	7e-05	7e-05	0.00012	0.00022	6e-05	-4e-05	1e-05	-2e-05	5
21802	7e-05	7e-05	0.00012	0.00022	6e-05	-4e-05	1e-05	-2e-05	5
21803	7e-05	7e-05	0.00012	0.00022	6e-05	-4e-05	1e-05	-2e-05	5
21804	7e-05	7e-05	0.00012	0.00022	6e-05	-4e-05	1e-05	-2e-05	5
21805	7e-05	7e-05	0.00012	0.00022	6e-05	-4e-05	1e-05	-2e-05	5
21806	7e-05	7e-05	0.00012	0.00022	6e-05	-4e-05	1e-05	-2e-05	5
21807	7e-05	7e-05	0.00012	0.00022	6e-05	-4e-05	1e-05	-2e-05	5
21808	7e-05	7e-05	0.00012	0.00022	6e-05	-4e-05	1e-05	-2e-05	5
21809	7e-05	7e-05	0.00012	0.00022	6e-05	-4e-05	1e-05	-2e-05	5
21810	7e-05	7e-05	0.00012	0.00022	6e-05	-4e-05	1e-05	-2e-05	5
21811	7e-05	7e-05	0.00012	0.00022	6e-05	-4e-05	1e-05	-2e-05	5
21812	-0.00014	2e-05	0.00011	0.0002	0.00014	1e-05	2e-05	-2e-05	5
21813	-8e-05	-8e-05	-9e-05	-0.00039	-0.00019	-1e-05	-2e-05	0	5
21814	-8e-05	-8e-05	-9e-05	-0.00039	-0.00019	-1e-05	-2e-05	0	5
21815	-8e-05	-8e-05	-9e-05	-0.00039	-0.00019	-1e-05	-2e-05	0	5
21816	-8e-05	-8e-05	-9e-05	-0.00039	-0.00019	-1e-05	-2e-05	0	5
21817	-8e-05	-8e-05	-9e-05	-0.00039	-0.00019	-1e-05	-2e-05	0	5
21818	-8e-05	-8e-05	-9e-05	-0.00039	-0.00019	-1e-05	-2e-05	0	5
21819	-8e-05	-8e-05	-9e-05	-0.00039	-0.00019	-1e-05	-2e-05	0	5
21820	-8e-05	-8e-05	-9e-05	-0.00039	-0.00019	-1e-05	-2e-05	0	5
21821	-8e-05	-8e-05	-9e-05	-0.00039	-0.00019	-1e-05	-2e-05	0	5
21822	-8e-05	-8e-05	-9e-05	-0.00039	-0.00019	-1e-05	-2e-05	0	5
21823	-8e-05	-8e-05	-9e-05	-0.00039	-0.00019	-1e-05	-2e-05	0	5
21824	-8e-05	-8e-05	-9e-05	-0.00039	-0.00019	-1e-05	-2e-05	0	5
21825	-2e-05	2e-05	4e-05	0.00039	-2e-05	-0.00036	-0.00017	-7e-05	5
21826	-2e-05	2e-05	4e-05	0.00039	-2e-05	-0.00036	-0.00017	-7e-05	5
21827	-2e-05	2e-05	4e-05	0.00039	-2e-05	-0.00036	-0.00017	-7e-05	5
21828	-2e-05	2e-05	4e-05	0.00039	-2e-05	-0.00036	-0.00017	-7e-05	5
21829	-2e-05	2e-05	4e-05	0.00039	-2e-05	-0.00036	-0.00017	-7e-05	5
21830	-2e-05	2e-05	4e-05	0.00039	-2e-05	-0.00036	-0.00017	-7e-05	5
21831	-2e-05	2e-05	4e-05	0.00039	-2e-05	-0.00036	-0.00017	-7e-05	5
21832	-2e-05	2e-05	4e-05	0.00039	-2e-05	-0.00036	-0.00017	-7e-05	5
21833	-2e-05	2e-05	4e-05	0.00039	-2e-05	-0.00036	-0.00017	-7e-05	5
21834	-9e-05	-0.00011	-0.00012	0.0002	0.00011	-8e-05	-9e-05	-6e-05	5
21835	-9e-05	-0.00011	-0.00012	0.0002	0.00011	-8e-05	-9e-05	-6e-05	5
21836	-9e-05	-0.00011	-0.00012	0.0002	0.00011	-8e-05	-9e-05	-6e-05	5
21838	-9e-05	-0.00011	-0.00012	0.0002	0.00011	-8e-05	-9e-05	-6e-05	5
21839	-9e-05	-0.00011	-0.00012	0.0002	0.00011	-8e-05	-9e-05	-6e-05	5
21840	-9e-05	-0.00011	-0.00012	0.0002	0.00011	-8e-05	-9e-05	-6e-05	5
21841	-9e-05	-0.00011	-0.00012	0.0002	0.00011	-8e-05	-9e-05	-6e-05	5
21842	-9e-05	-0.00011	-0.00012	0.0002	0.00011	-8e-05	-9e-05	-6e-05	5
21843	-9e-05	-0.00011	-0.00012	0.0002	0.00011	-8e-05	-9e-05	-6e-05	5
21844	-9e-05	-0.00011	-0.00012	0.0002	0.00011	-8e-05	-9e-05	-6e-05	5
21845	-9e-05	-0.00011	-0.00012	0.0002	0.00011	-8e-05	-9e-05	-6e-05	5
21846	-9e-05	-0.00011	-0.00012	0.0002	0.00011	-8e-05	-9e-05	-6e-05	5
21847	-9e-05	-0.00011	-0.00012	0.0002	0.00011	-8e-05	-9e-05	-6e-05	5
21848	-9e-05	-0.00011	-0.00012	0.0002	0.00011	-8e-05	-9e-05	-6e-05	5
21849	-9e-05	-0.00011	-0.00012	0.0002	0.00011	-8e-05	-9e-05	-6e-05	5
21850	0	1e-05	0.00017	-0.00024	-0.00032	-0.00015	-4e-05	0	5
21851	-3e-05	-3e-05	6e-05	0.00027	0.00017	0.00011	2e-05	-2e-05	5
21852	-3e-05	-3e-05	6e-05	0.00027	0.00017	0.00011	2e-05	-2e-05	5
21853	-3e-05	-3e-05	6e-05	0.00027	0.00017	0.00011	2e-05	-2e-05	5
21854	-3e-05	-3e-05	6e-05	0.00027	0.00017	0.00011	2e-05	-2e-05	5
21855	-3e-05	-3e-05	6e-05	0.00027	0.00017	0.00011	2e-05	-2e-05	5
21856	-3e-05	-3e-05	6e-05	0.00027	0.00017	0.00011	2e-05	-2e-05	5
21857	-3e-05	-3e-05	6e-05	0.00027	0.00017	0.00011	2e-05	-2e-05	5
21858	-3e-05	-3e-05	6e-05	0.00027	0.00017	0.00011	2e-05	-2e-05	5
21859	-3e-05	-3e-05	6e-05	0.00027	0.00017	0.00011	2e-05	-2e-05	5
21860	-3e-05	-3e-05	6e-05	0.00027	0.00017	0.00011	2e-05	-2e-05	5
21861	-3e-05	-3e-05	6e-05	0.00027	0.00017	0.00011	2e-05	-2e-05	5
21862	-3e-05	-3e-05	6e-05	0.00027	0.00017	0.00011	2e-05	-2e-05	5
21863	-3e-05	-3e-05	6e-05	0.00027	0.00017	0.00011	2e-05	-2e-05	5
21864	-3e-05	-3e-05	6e-05	0.00027	0.00017	0.00011	2e-05	-2e-05	5
21865	-3e-05	-3e-05	6e-05	0.00027	0.00017	0.00011	2e-05	-2e-05	5
21866	-3e-05	-3e-05	6e-05	0.00027	0.00017	0.00011	2e-05	-2e-05	5
21867	-3e-05	-3e-05	6e-05	0.00027	0.00017	0.00011	2e-05	-2e-05	5
21868	-3e-05	-3e-05	6e-05	0.00027	0.00017	0.00011	2e-05	-2e-05	5
21869	-3e-05	-3e-05	6e-05	0.00027	0.00017	0.00011	2e-05	-2e-05	5
21870	-3e-05	-3e-05	6e-05	0.00027	0.00017	0.00011	2e-05	-2e-05	5
21871	-3e-05	-3e-05	6e-05	0.00027	0.00017	0.00011	2e-05	-2e-05	5
21872	-3e-05	-3e-05	6e-05	0.00027	0.00017	0.00011	2e-05	-2e-05	5
21873	-3e-05	-3e-05	6e-05	0.00027	0.00017	0.00011	2e-05	-2e-05	5
21874	-3e-05	-3e-05	6e-05	0.00027	0.00017	0.00011	2e-05	-2e-05	5
21875	-3e-05	-3e-05	6e-05	0.00027	0.00017	0.00011	2e-05	-2e-05	5
21876	-3e-05	-3e-05	6e-05	0.00027	0.00017	0.00011	2e-05	-2e-05	5
21877	-3e-05	-3e-05	6e-05	0.00027	0.00017	0.00011	2e-05	-2e-05	5
21878	-3e-05	-3e-05	6e-05	0.00027	0.00017	0.00011	2e-05	-2e-05	5
21879	5e-05	1e-05	8e-05	0.00062	0.00028	0.00033	0.00012	0	5
21880	5e-05	1e-05	8e-05	0.00062	0.00028	0.00033	0.00012	0	5
21881	-6e-05	1e-05	2e-05	4e-05	-1e-05	4e-05	-2e-05	-4e-05	5
21882	-6e-05	1e-05	2e-05	4e-05	-1e-05	4e-05	-2e-05	-4e-05	5
21883	-6e-05	1e-05	2e-05	4e-05	-1e-05	4e-05	-2e-05	-4e-05	5
21884	-6e-05	1e-05	2e-05	4e-05	-1e-05	4e-05	-2e-05	-4e-05	5
21885	0.00015	6e-05	6e-05	0.00055	0.00064	6e-05	2e-05	7e-05	5
21886	0.00015	6e-05	6e-05	0.00055	0.00064	6e-05	2e-05	7e-05	5
21888	0.00015	6e-05	6e-05	0.00055	0.00064	6e-05	2e-05	7e-05	5
21889	0.00015	6e-05	6e-05	0.00055	0.00064	6e-05	2e-05	7e-05	5
21890	0.00015	6e-05	6e-05	0.00055	0.00064	6e-05	2e-05	7e-05	5
21891	0.00015	6e-05	6e-05	0.00055	0.00064	6e-05	2e-05	7e-05	5
21892	0.00015	6e-05	6e-05	0.00055	0.00064	6e-05	2e-05	7e-05	5
21893	0.00015	6e-05	6e-05	0.00055	0.00064	6e-05	2e-05	7e-05	5
21894	0.00011	-1e-05	-6e-05	-0.00033	-0.00028	-6e-05	-4e-05	0	5
21895	0.00011	-1e-05	-6e-05	-0.00033	-0.00028	-6e-05	-4e-05	0	5
21896	0.00011	-1e-05	-6e-05	-0.00033	-0.00028	-6e-05	-4e-05	0	5
21897	0.00011	-1e-05	-6e-05	-0.00033	-0.00028	-6e-05	-4e-05	0	5
21898	0.00011	-1e-05	-6e-05	-0.00033	-0.00028	-6e-05	-4e-05	0	5
21899	0.00011	-1e-05	-6e-05	-0.00033	-0.00028	-6e-05	-4e-05	0	5
21900	0.00011	-1e-05	-6e-05	-0.00033	-0.00028	-6e-05	-4e-05	0	5
21901	0.00011	-1e-05	-6e-05	-0.00033	-0.00028	-6e-05	-4e-05	0	5
21902	0.00011	-1e-05	-6e-05	-0.00033	-0.00028	-6e-05	-4e-05	0	5
21903	0.00011	-1e-05	-6e-05	-0.00033	-0.00028	-6e-05	-4e-05	0	5
21904	0.00011	-1e-05	-6e-05	-0.00033	-0.00028	-6e-05	-4e-05	0	5
21905	0.00011	-1e-05	-6e-05	-0.00033	-0.00028	-6e-05	-4e-05	0	5
21906	0.00011	-1e-05	-6e-05	-0.00033	-0.00028	-6e-05	-4e-05	0	5
21907	0.00011	-1e-05	-6e-05	-0.00033	-0.00028	-6e-05	-4e-05	0	5
21908	0.00011	-1e-05	-6e-05	-0.00033	-0.00028	-6e-05	-4e-05	0	5
21909	-1e-05	0	-1e-05	-0.00044	-0.00033	-0.00029	-3e-05	-4e-05	5
21910	-1e-05	0	-1e-05	-0.00044	-0.00033	-0.00029	-3e-05	-4e-05	5
21911	2e-05	2e-05	-8e-05	-0.0001	0.00024	1e-05	1e-05	3e-05	5
21912	2e-05	2e-05	-8e-05	-0.0001	0.00024	1e-05	1e-05	3e-05	5
21913	2e-05	2e-05	-8e-05	-0.0001	0.00024	1e-05	1e-05	3e-05	5
21914	2e-05	2e-05	-8e-05	-0.0001	0.00024	1e-05	1e-05	3e-05	5
21915	2e-05	2e-05	-8e-05	-0.0001	0.00024	1e-05	1e-05	3e-05	5
21916	2e-05	2e-05	-8e-05	-0.0001	0.00024	1e-05	1e-05	3e-05	5
21917	2e-05	2e-05	-8e-05	-0.0001	0.00024	1e-05	1e-05	3e-05	5
21918	2e-05	2e-05	-8e-05	-0.0001	0.00024	1e-05	1e-05	3e-05	5
21919	2e-05	2e-05	-8e-05	-0.0001	0.00024	1e-05	1e-05	3e-05	5
21920	2e-05	2e-05	-8e-05	-0.0001	0.00024	1e-05	1e-05	3e-05	5
21921	2e-05	2e-05	-8e-05	-0.0001	0.00024	1e-05	1e-05	3e-05	5
21922	2e-05	2e-05	-8e-05	-0.0001	0.00024	1e-05	1e-05	3e-05	5
21923	2e-05	2e-05	-8e-05	-0.0001	0.00024	1e-05	1e-05	3e-05	5
21924	2e-05	2e-05	-8e-05	-0.0001	0.00024	1e-05	1e-05	3e-05	5
21925	2e-05	2e-05	-8e-05	-0.0001	0.00024	1e-05	1e-05	3e-05	5
21926	2e-05	2e-05	-8e-05	-0.0001	0.00024	1e-05	1e-05	3e-05	5
21927	2e-05	2e-05	-8e-05	-0.0001	0.00024	1e-05	1e-05	3e-05	5
21928	2e-05	2e-05	-8e-05	-0.0001	0.00024	1e-05	1e-05	3e-05	5
21929	2e-05	2e-05	-8e-05	-0.0001	0.00024	1e-05	1e-05	3e-05	5
21930	2e-05	2e-05	-8e-05	-0.0001	0.00024	1e-05	1e-05	3e-05	5
21931	2e-05	2e-05	-8e-05	-0.0001	0.00024	1e-05	1e-05	3e-05	5
21932	-8e-05	-0.00011	-0.00015	3e-05	-3e-05	-2e-05	-5e-05	0	5
21933	-2e-05	7e-05	7e-05	0	-0.00033	-0.0002	-3e-05	-2e-05	5
21934	-2e-05	7e-05	7e-05	0	-0.00033	-0.0002	-3e-05	-2e-05	5
21935	-2e-05	7e-05	7e-05	0	-0.00033	-0.0002	-3e-05	-2e-05	5
21936	-2e-05	7e-05	7e-05	0	-0.00033	-0.0002	-3e-05	-2e-05	5
21938	-2e-05	7e-05	7e-05	0	-0.00033	-0.0002	-3e-05	-2e-05	5
21939	-2e-05	7e-05	7e-05	0	-0.00033	-0.0002	-3e-05	-2e-05	5
21940	-2e-05	7e-05	7e-05	0	-0.00033	-0.0002	-3e-05	-2e-05	5
21941	-2e-05	7e-05	7e-05	0	-0.00033	-0.0002	-3e-05	-2e-05	5
21942	-2e-05	7e-05	7e-05	0	-0.00033	-0.0002	-3e-05	-2e-05	5
21943	-2e-05	7e-05	7e-05	0	-0.00033	-0.0002	-3e-05	-2e-05	5
21944	-2e-05	7e-05	7e-05	0	-0.00033	-0.0002	-3e-05	-2e-05	5
21945	-5e-05	2e-05	8e-05	-3e-05	-6e-05	1e-05	0	-6e-05	5
21946	-5e-05	2e-05	8e-05	-3e-05	-6e-05	1e-05	0	-6e-05	5
21947	-5e-05	2e-05	8e-05	-3e-05	-6e-05	1e-05	0	-6e-05	5
21948	-5e-05	2e-05	8e-05	-3e-05	-6e-05	1e-05	0	-6e-05	5
21949	-5e-05	2e-05	8e-05	-3e-05	-6e-05	1e-05	0	-6e-05	5
21950	-5e-05	2e-05	8e-05	-3e-05	-6e-05	1e-05	0	-6e-05	5
21951	-5e-05	2e-05	8e-05	-3e-05	-6e-05	1e-05	0	-6e-05	5
21952	-5e-05	2e-05	8e-05	-3e-05	-6e-05	1e-05	0	-6e-05	5
21953	-5e-05	2e-05	8e-05	-3e-05	-6e-05	1e-05	0	-6e-05	5
21954	-4e-05	-8e-05	0	0.00016	0.0002	4e-05	0	-1e-05	5
21955	-4e-05	-8e-05	0	0.00016	0.0002	4e-05	0	-1e-05	5
21956	-4e-05	-8e-05	0	0.00016	0.0002	4e-05	0	-1e-05	5
21957	-4e-05	-8e-05	0	0.00016	0.0002	4e-05	0	-1e-05	5
21958	-4e-05	-8e-05	0	0.00016	0.0002	4e-05	0	-1e-05	5
21959	-4e-05	-8e-05	0	0.00016	0.0002	4e-05	0	-1e-05	5
21960	-4e-05	-8e-05	0	0.00016	0.0002	4e-05	0	-1e-05	5
21961	-4e-05	-8e-05	0	0.00016	0.0002	4e-05	0	-1e-05	5
21962	-4e-05	-8e-05	0	0.00016	0.0002	4e-05	0	-1e-05	5
21963	-4e-05	-8e-05	0	0.00016	0.0002	4e-05	0	-1e-05	5
21964	-4e-05	-8e-05	0	0.00016	0.0002	4e-05	0	-1e-05	5
21965	-4e-05	-8e-05	0	0.00016	0.0002	4e-05	0	-1e-05	5
21966	-4e-05	-8e-05	0	0.00016	0.0002	4e-05	0	-1e-05	5
21967	-4e-05	-8e-05	0	0.00016	0.0002	4e-05	0	-1e-05	5
21968	-4e-05	-8e-05	0	0.00016	0.0002	4e-05	0	-1e-05	5
21969	-4e-05	-8e-05	0	0.00016	0.0002	4e-05	0	-1e-05	5
21970	-3e-05	5e-05	6e-05	0.00011	0.00013	9e-05	7e-05	-1e-05	5
21971	-3e-05	5e-05	6e-05	0.00011	0.00013	9e-05	7e-05	-1e-05	5
21972	-0.0001	-6e-05	-1e-05	-0.0001	6e-05	-4e-05	-7e-05	-5e-05	5
21973	-0.0001	-6e-05	-1e-05	-0.0001	6e-05	-4e-05	-7e-05	-5e-05	5
21974	-0.0001	-6e-05	-1e-05	-0.0001	6e-05	-4e-05	-7e-05	-5e-05	5
21975	-0.0001	-6e-05	-1e-05	-0.0001	6e-05	-4e-05	-7e-05	-5e-05	5
21976	-0.0001	-6e-05	-1e-05	-0.0001	6e-05	-4e-05	-7e-05	-5e-05	5
21977	-0.0001	-6e-05	-1e-05	-0.0001	6e-05	-4e-05	-7e-05	-5e-05	5
21978	-0.0001	-6e-05	-1e-05	-0.0001	6e-05	-4e-05	-7e-05	-5e-05	5
21979	-0.0001	-6e-05	-1e-05	-0.0001	6e-05	-4e-05	-7e-05	-5e-05	5
21980	-0.0001	-6e-05	-1e-05	-0.0001	6e-05	-4e-05	-7e-05	-5e-05	5
21981	-0.0001	-6e-05	-1e-05	-0.0001	6e-05	-4e-05	-7e-05	-5e-05	5
21982	-0.0001	-6e-05	-1e-05	-0.0001	6e-05	-4e-05	-7e-05	-5e-05	5
21983	-0.0001	-6e-05	-1e-05	-0.0001	6e-05	-4e-05	-7e-05	-5e-05	5
21984	-0.0001	-6e-05	-1e-05	-0.0001	6e-05	-4e-05	-7e-05	-5e-05	5
21985	-0.0001	-6e-05	-1e-05	-0.0001	6e-05	-4e-05	-7e-05	-5e-05	5
21986	-0.0001	-6e-05	-1e-05	-0.0001	6e-05	-4e-05	-7e-05	-5e-05	5
21988	-0.0001	-6e-05	-1e-05	-0.0001	6e-05	-4e-05	-7e-05	-5e-05	5
21989	-0.0001	-6e-05	-1e-05	-0.0001	6e-05	-4e-05	-7e-05	-5e-05	5
21991	-0.0001	-6e-05	-1e-05	-0.0001	6e-05	-4e-05	-7e-05	-5e-05	5
21992	-1e-05	-5e-05	-4e-05	-0.00023	-0.0001	4e-05	-2e-05	-4e-05	5
21993	5e-05	0.00013	0.0001	1e-05	0.00043	0.00016	0.0001	4e-05	5
21994	5e-05	0.00013	0.0001	1e-05	0.00043	0.00016	0.0001	4e-05	5
21995	5e-05	0.00013	0.0001	1e-05	0.00043	0.00016	0.0001	4e-05	5
21996	5e-05	0.00013	0.0001	1e-05	0.00043	0.00016	0.0001	4e-05	5
21997	5e-05	0.00013	0.0001	1e-05	0.00043	0.00016	0.0001	4e-05	5
21998	5e-05	0.00013	0.0001	1e-05	0.00043	0.00016	0.0001	4e-05	5
21999	5e-05	0.00013	0.0001	1e-05	0.00043	0.00016	0.0001	4e-05	5
22000	5e-05	0.00013	0.0001	1e-05	0.00043	0.00016	0.0001	4e-05	5
22001	5e-05	0.00013	0.0001	1e-05	0.00043	0.00016	0.0001	4e-05	5
22002	5e-05	0.00013	0.0001	1e-05	0.00043	0.00016	0.0001	4e-05	5
22003	5e-05	0.00013	0.0001	1e-05	0.00043	0.00016	0.0001	4e-05	5
22004	5e-05	0.00013	0.0001	1e-05	0.00043	0.00016	0.0001	4e-05	5
22005	4e-05	7e-05	4e-05	-0.00043	0.0005	0.00016	1e-05	7e-05	5
22006	4e-05	7e-05	4e-05	-0.00043	0.0005	0.00016	1e-05	7e-05	5
22007	4e-05	7e-05	4e-05	-0.00043	0.0005	0.00016	1e-05	7e-05	5
22008	4e-05	7e-05	4e-05	-0.00043	0.0005	0.00016	1e-05	7e-05	5
22009	4e-05	7e-05	4e-05	-0.00043	0.0005	0.00016	1e-05	7e-05	5
22010	4e-05	7e-05	4e-05	-0.00043	0.0005	0.00016	1e-05	7e-05	5
22011	4e-05	7e-05	4e-05	-0.00043	0.0005	0.00016	1e-05	7e-05	5
22012	4e-05	7e-05	4e-05	-0.00043	0.0005	0.00016	1e-05	7e-05	5
22013	4e-05	7e-05	4e-05	-0.00043	0.0005	0.00016	1e-05	7e-05	5
22014	-1e-05	-0.0001	-0.00018	0.00024	0.0004	9e-05	-4e-05	-4e-05	5
22015	-1e-05	-0.0001	-0.00018	0.00024	0.0004	9e-05	-4e-05	-4e-05	5
22016	-1e-05	-0.0001	-0.00018	0.00024	0.0004	9e-05	-4e-05	-4e-05	5
22017	-1e-05	-0.0001	-0.00018	0.00024	0.0004	9e-05	-4e-05	-4e-05	5
22018	-1e-05	-0.0001	-0.00018	0.00024	0.0004	9e-05	-4e-05	-4e-05	5
22019	-1e-05	-0.0001	-0.00018	0.00024	0.0004	9e-05	-4e-05	-4e-05	5
22020	-1e-05	-0.0001	-0.00018	0.00024	0.0004	9e-05	-4e-05	-4e-05	5
22021	-1e-05	-0.0001	-0.00018	0.00024	0.0004	9e-05	-4e-05	-4e-05	5
22022	-1e-05	-0.0001	-0.00018	0.00024	0.0004	9e-05	-4e-05	-4e-05	5
22023	-1e-05	-0.0001	-0.00018	0.00024	0.0004	9e-05	-4e-05	-4e-05	5
22024	-1e-05	-0.0001	-0.00018	0.00024	0.0004	9e-05	-4e-05	-4e-05	5
22025	-1e-05	-0.0001	-0.00018	0.00024	0.0004	9e-05	-4e-05	-4e-05	5
22026	-1e-05	-0.0001	-0.00018	0.00024	0.0004	9e-05	-4e-05	-4e-05	5
22027	-1e-05	-0.0001	-0.00018	0.00024	0.0004	9e-05	-4e-05	-4e-05	5
22028	-1e-05	-0.0001	-0.00018	0.00024	0.0004	9e-05	-4e-05	-4e-05	5
22029	-7e-05	-0.00012	-0.00029	0.00019	0.00011	-6e-05	-3e-05	-2e-05	5
22030	-7e-05	-0.00012	-0.00029	0.00019	0.00011	-6e-05	-3e-05	-2e-05	5
22031	0	-7e-05	-0.00019	0.00018	-0.00026	-0.00026	-6e-05	2e-05	5
22032	0	-7e-05	-0.00019	0.00018	-0.00026	-0.00026	-6e-05	2e-05	5
22033	0	-7e-05	-0.00019	0.00018	-0.00026	-0.00026	-6e-05	2e-05	5
22034	0	-7e-05	-0.00019	0.00018	-0.00026	-0.00026	-6e-05	2e-05	5
22035	0	-7e-05	-0.00019	0.00018	-0.00026	-0.00026	-6e-05	2e-05	5
22036	0	-7e-05	-0.00019	0.00018	-0.00026	-0.00026	-6e-05	2e-05	5
22038	0	-7e-05	-0.00019	0.00018	-0.00026	-0.00026	-6e-05	2e-05	5
22039	0	-7e-05	-0.00019	0.00018	-0.00026	-0.00026	-6e-05	2e-05	5
22040	0	-7e-05	-0.00019	0.00018	-0.00026	-0.00026	-6e-05	2e-05	5
22041	0	-7e-05	-0.00019	0.00018	-0.00026	-0.00026	-6e-05	2e-05	5
22042	0	-7e-05	-0.00019	0.00018	-0.00026	-0.00026	-6e-05	2e-05	5
22043	0	-7e-05	-0.00019	0.00018	-0.00026	-0.00026	-6e-05	2e-05	5
22044	0	-7e-05	-0.00019	0.00018	-0.00026	-0.00026	-6e-05	2e-05	5
22045	0	-7e-05	-0.00019	0.00018	-0.00026	-0.00026	-6e-05	2e-05	5
22046	0	-7e-05	-0.00019	0.00018	-0.00026	-0.00026	-6e-05	2e-05	5
22047	0	-7e-05	-0.00019	0.00018	-0.00026	-0.00026	-6e-05	2e-05	5
22048	0	-7e-05	-0.00019	0.00018	-0.00026	-0.00026	-6e-05	2e-05	5
22049	0	-7e-05	-0.00019	0.00018	-0.00026	-0.00026	-6e-05	2e-05	5
22050	0	-7e-05	-0.00019	0.00018	-0.00026	-0.00026	-6e-05	2e-05	5
22051	0	-7e-05	-0.00019	0.00018	-0.00026	-0.00026	-6e-05	2e-05	5
22052	-6e-05	4e-05	7e-05	0.0002	-2e-05	1e-05	-9e-05	-4e-05	5
22053	1e-05	-3e-05	1e-05	0	-2e-05	0.00033	9e-05	-2e-05	5
22054	1e-05	-3e-05	1e-05	0	-2e-05	0.00033	9e-05	-2e-05	5
22055	1e-05	-3e-05	1e-05	0	-2e-05	0.00033	9e-05	-2e-05	5
22056	1e-05	-3e-05	1e-05	0	-2e-05	0.00033	9e-05	-2e-05	5
22057	1e-05	-3e-05	1e-05	0	-2e-05	0.00033	9e-05	-2e-05	5
22058	1e-05	-3e-05	1e-05	0	-2e-05	0.00033	9e-05	-2e-05	5
22059	1e-05	-3e-05	1e-05	0	-2e-05	0.00033	9e-05	-2e-05	5
22060	1e-05	-3e-05	1e-05	0	-2e-05	0.00033	9e-05	-2e-05	5
22061	1e-05	-3e-05	1e-05	0	-2e-05	0.00033	9e-05	-2e-05	5
22062	1e-05	-3e-05	1e-05	0	-2e-05	0.00033	9e-05	-2e-05	5
22063	1e-05	-3e-05	1e-05	0	-2e-05	0.00033	9e-05	-2e-05	5
22064	1e-05	-3e-05	1e-05	0	-2e-05	0.00033	9e-05	-2e-05	5
22065	1e-05	-3e-05	1e-05	0	-2e-05	0.00033	9e-05	-2e-05	5
22066	1e-05	-3e-05	1e-05	0	-2e-05	0.00033	9e-05	-2e-05	5
22067	1e-05	-3e-05	1e-05	0	-2e-05	0.00033	9e-05	-2e-05	5
22068	1e-05	-3e-05	1e-05	0	-2e-05	0.00033	9e-05	-2e-05	5
22069	1e-05	-3e-05	1e-05	0	-2e-05	0.00033	9e-05	-2e-05	5
22070	1e-05	-3e-05	1e-05	0	-2e-05	0.00033	9e-05	-2e-05	5
22071	1e-05	-3e-05	1e-05	0	-2e-05	0.00033	9e-05	-2e-05	5
22072	1e-05	-3e-05	1e-05	0	-2e-05	0.00033	9e-05	-2e-05	5
22073	1e-05	-3e-05	1e-05	0	-2e-05	0.00033	9e-05	-2e-05	5
22074	-0.00016	-5e-05	1e-05	0.00023	-0.00029	-0.00043	-0.00014	-5e-05	5
22075	3e-05	1e-05	5e-05	7e-05	-0.0002	-0.0002	1e-05	-4e-05	5
22076	6e-05	-2e-05	8e-05	-5e-05	-9e-05	-7e-05	0	4e-05	5
22077	6e-05	-2e-05	8e-05	-5e-05	-9e-05	-7e-05	0	4e-05	5
22078	6e-05	-2e-05	8e-05	-5e-05	-9e-05	-7e-05	0	4e-05	5
22079	6e-05	-2e-05	8e-05	-5e-05	-9e-05	-7e-05	0	4e-05	5
22080	6e-05	-2e-05	8e-05	-5e-05	-9e-05	-7e-05	0	4e-05	5
22081	6e-05	-2e-05	8e-05	-5e-05	-9e-05	-7e-05	0	4e-05	5
22082	6e-05	-2e-05	8e-05	-5e-05	-9e-05	-7e-05	0	4e-05	5
22083	6e-05	-2e-05	8e-05	-5e-05	-9e-05	-7e-05	0	4e-05	5
22084	6e-05	-2e-05	8e-05	-5e-05	-9e-05	-7e-05	0	4e-05	5
22085	6e-05	-2e-05	8e-05	-5e-05	-9e-05	-7e-05	0	4e-05	5
22086	6e-05	-2e-05	8e-05	-5e-05	-9e-05	-7e-05	0	4e-05	5
22088	6e-05	-2e-05	8e-05	-5e-05	-9e-05	-7e-05	0	4e-05	5
22089	-8e-05	-0.00012	-0.00016	-0.00024	-0.00026	7e-05	-3e-05	-7e-05	5
22090	-8e-05	-0.00012	-0.00016	-0.00024	-0.00026	7e-05	-3e-05	-7e-05	5
22091	1e-05	6e-05	0.00016	0.00046	0.00043	0.00031	9e-05	0	5
22092	1e-05	6e-05	0.00016	0.00046	0.00043	0.00031	9e-05	0	5
22093	1e-05	6e-05	0.00016	0.00046	0.00043	0.00031	9e-05	0	5
22094	1e-05	6e-05	0.00016	0.00046	0.00043	0.00031	9e-05	0	5
22095	1e-05	6e-05	0.00016	0.00046	0.00043	0.00031	9e-05	0	5
22096	1e-05	6e-05	0.00016	0.00046	0.00043	0.00031	9e-05	0	5
22097	1e-05	6e-05	0.00016	0.00046	0.00043	0.00031	9e-05	0	5
22098	1e-05	6e-05	0.00016	0.00046	0.00043	0.00031	9e-05	0	5
22099	1e-05	6e-05	0.00016	0.00046	0.00043	0.00031	9e-05	0	5
22100	1e-05	6e-05	0.00016	0.00046	0.00043	0.00031	9e-05	0	5
22101	1e-05	6e-05	0.00016	0.00046	0.00043	0.00031	9e-05	0	5
22102	1e-05	6e-05	0.00016	0.00046	0.00043	0.00031	9e-05	0	5
22103	1e-05	6e-05	0.00016	0.00046	0.00043	0.00031	9e-05	0	5
22104	1e-05	6e-05	0.00016	0.00046	0.00043	0.00031	9e-05	0	5
22105	1e-05	6e-05	0.00016	0.00046	0.00043	0.00031	9e-05	0	5
22106	1e-05	6e-05	0.00016	0.00046	0.00043	0.00031	9e-05	0	5
22107	1e-05	6e-05	0.00016	0.00046	0.00043	0.00031	9e-05	0	5
22108	1e-05	6e-05	0.00016	0.00046	0.00043	0.00031	9e-05	0	5
22109	1e-05	6e-05	0.00016	0.00046	0.00043	0.00031	9e-05	0	5
22110	1e-05	6e-05	0.00016	0.00046	0.00043	0.00031	9e-05	0	5
22111	1e-05	6e-05	0.00016	0.00046	0.00043	0.00031	9e-05	0	5
22112	2e-05	-1e-05	-0.00026	5e-05	-0.00017	-0.00015	-2e-05	2e-05	5
22113	2e-05	-1e-05	-0.00026	5e-05	-0.00017	-0.00015	-2e-05	2e-05	5
22114	-5e-05	-2e-05	-3e-05	8e-05	0.00015	-0.00011	-7e-05	-5e-05	5
22115	-5e-05	-2e-05	-3e-05	8e-05	0.00015	-0.00011	-7e-05	-5e-05	5
22116	-5e-05	-2e-05	-3e-05	8e-05	0.00015	-0.00011	-7e-05	-5e-05	5
22117	-5e-05	-2e-05	-3e-05	8e-05	0.00015	-0.00011	-7e-05	-5e-05	5
22118	-5e-05	-2e-05	-3e-05	8e-05	0.00015	-0.00011	-7e-05	-5e-05	5
22119	-5e-05	-2e-05	-3e-05	8e-05	0.00015	-0.00011	-7e-05	-5e-05	5
22120	-5e-05	-2e-05	-3e-05	8e-05	0.00015	-0.00011	-7e-05	-5e-05	5
22121	-5e-05	-2e-05	-3e-05	8e-05	0.00015	-0.00011	-7e-05	-5e-05	5
22122	-5e-05	-2e-05	-3e-05	8e-05	0.00015	-0.00011	-7e-05	-5e-05	5
22123	-5e-05	-2e-05	-3e-05	8e-05	0.00015	-0.00011	-7e-05	-5e-05	5
22124	-5e-05	-2e-05	-3e-05	8e-05	0.00015	-0.00011	-7e-05	-5e-05	5
22125	-5e-05	-2e-05	-3e-05	8e-05	0.00015	-0.00011	-7e-05	-5e-05	5
22126	-5e-05	-2e-05	-3e-05	8e-05	0.00015	-0.00011	-7e-05	-5e-05	5
22127	-5e-05	-2e-05	-3e-05	8e-05	0.00015	-0.00011	-7e-05	-5e-05	5
22128	-5e-05	-2e-05	-3e-05	8e-05	0.00015	-0.00011	-7e-05	-5e-05	5
22129	-5e-05	-2e-05	-3e-05	8e-05	0.00015	-0.00011	-7e-05	-5e-05	5
22130	-5e-05	-2e-05	-3e-05	8e-05	0.00015	-0.00011	-7e-05	-5e-05	5
22131	-5e-05	-2e-05	-3e-05	8e-05	0.00015	-0.00011	-7e-05	-5e-05	5
22132	-5e-05	-2e-05	-3e-05	8e-05	0.00015	-0.00011	-7e-05	-5e-05	5
22133	-5e-05	-2e-05	-3e-05	8e-05	0.00015	-0.00011	-7e-05	-5e-05	5
22134	5e-05	0.00012	0.00022	0.00012	-2e-05	7e-05	2e-05	2e-05	5
22135	5e-05	0.00012	0.00022	0.00012	-2e-05	7e-05	2e-05	2e-05	5
22136	-0.0001	-6e-05	2e-05	5e-05	-9e-05	-0.00013	-5e-05	-3e-05	5
22138	-0.0001	-6e-05	2e-05	5e-05	-9e-05	-0.00013	-5e-05	-3e-05	5
22139	-0.0001	-6e-05	2e-05	5e-05	-9e-05	-0.00013	-5e-05	-3e-05	5
22140	-0.0001	-6e-05	2e-05	5e-05	-9e-05	-0.00013	-5e-05	-3e-05	5
22141	-0.0001	-6e-05	2e-05	5e-05	-9e-05	-0.00013	-5e-05	-3e-05	5
22142	-0.0001	-6e-05	2e-05	5e-05	-9e-05	-0.00013	-5e-05	-3e-05	5
22143	-0.0001	-6e-05	2e-05	5e-05	-9e-05	-0.00013	-5e-05	-3e-05	5
22144	-0.0001	-6e-05	2e-05	5e-05	-9e-05	-0.00013	-5e-05	-3e-05	5
22145	-0.0001	-6e-05	2e-05	5e-05	-9e-05	-0.00013	-5e-05	-3e-05	5
22146	-0.0001	-6e-05	2e-05	5e-05	-9e-05	-0.00013	-5e-05	-3e-05	5
22147	-0.0001	-6e-05	2e-05	5e-05	-9e-05	-0.00013	-5e-05	-3e-05	5
22148	-0.0001	-6e-05	2e-05	5e-05	-9e-05	-0.00013	-5e-05	-3e-05	5
22149	-0.0001	-6e-05	2e-05	5e-05	-9e-05	-0.00013	-5e-05	-3e-05	5
22150	-0.0001	-6e-05	2e-05	5e-05	-9e-05	-0.00013	-5e-05	-3e-05	5
22151	-0.0001	-6e-05	2e-05	5e-05	-9e-05	-0.00013	-5e-05	-3e-05	5
22152	-0.0001	-6e-05	2e-05	5e-05	-9e-05	-0.00013	-5e-05	-3e-05	5
22153	-0.0001	-6e-05	2e-05	5e-05	-9e-05	-0.00013	-5e-05	-3e-05	5
22154	-0.0001	-6e-05	2e-05	5e-05	-9e-05	-0.00013	-5e-05	-3e-05	5
22155	-0.0001	-6e-05	2e-05	5e-05	-9e-05	-0.00013	-5e-05	-3e-05	5
22156	-0.0001	-6e-05	2e-05	5e-05	-9e-05	-0.00013	-5e-05	-3e-05	5
22157	-0.0001	-6e-05	2e-05	5e-05	-9e-05	-0.00013	-5e-05	-3e-05	5
22158	-5e-05	1e-05	3e-05	-0.00036	-0.00064	-0.00015	-4e-05	-5e-05	5
22159	0.00011	3e-05	-1e-05	-0.0001	-0.00019	0.00015	4e-05	1e-05	5
22160	0.00011	3e-05	-1e-05	-0.0001	-0.00019	0.00015	4e-05	1e-05	5
22161	0.00011	3e-05	-1e-05	-0.0001	-0.00019	0.00015	4e-05	1e-05	5
22162	0.00011	3e-05	-1e-05	-0.0001	-0.00019	0.00015	4e-05	1e-05	5
22163	0.00011	3e-05	-1e-05	-0.0001	-0.00019	0.00015	4e-05	1e-05	5
22164	0.00011	3e-05	-1e-05	-0.0001	-0.00019	0.00015	4e-05	1e-05	5
22165	0.00011	3e-05	-1e-05	-0.0001	-0.00019	0.00015	4e-05	1e-05	5
22166	0.00011	3e-05	-1e-05	-0.0001	-0.00019	0.00015	4e-05	1e-05	5
22167	0.00011	3e-05	-1e-05	-0.0001	-0.00019	0.00015	4e-05	1e-05	5
22168	0.00011	3e-05	-1e-05	-0.0001	-0.00019	0.00015	4e-05	1e-05	5
22169	0.00011	3e-05	-1e-05	-0.0001	-0.00019	0.00015	4e-05	1e-05	5
22170	0.00011	3e-05	-1e-05	-0.0001	-0.00019	0.00015	4e-05	1e-05	5
22171	0.00011	3e-05	-1e-05	-0.0001	-0.00019	0.00015	4e-05	1e-05	5
22172	0.00011	3e-05	-1e-05	-0.0001	-0.00019	0.00015	4e-05	1e-05	5
22173	0.00011	3e-05	-1e-05	-0.0001	-0.00019	0.00015	4e-05	1e-05	5
22174	0.00011	3e-05	-1e-05	-0.0001	-0.00019	0.00015	4e-05	1e-05	5
22175	0.00011	3e-05	-1e-05	-0.0001	-0.00019	0.00015	4e-05	1e-05	5
22176	0.00011	3e-05	-1e-05	-0.0001	-0.00019	0.00015	4e-05	1e-05	5
22177	0.00011	3e-05	-1e-05	-0.0001	-0.00019	0.00015	4e-05	1e-05	5
22178	0.00011	3e-05	-1e-05	-0.0001	-0.00019	0.00015	4e-05	1e-05	5
22179	0.00017	7e-05	0.00013	0.00044	0.00061	0.00025	7e-05	0.00011	5
22180	0.00017	7e-05	0.00013	0.00044	0.00061	0.00025	7e-05	0.00011	5
22181	-3e-05	0	-4e-05	-0.00012	5e-05	-0.00018	-6e-05	4e-05	5
22182	-3e-05	0	-4e-05	-0.00012	5e-05	-0.00018	-6e-05	4e-05	5
22183	-3e-05	0	-4e-05	-0.00012	5e-05	-0.00018	-6e-05	4e-05	5
22184	-3e-05	0	-4e-05	-0.00012	5e-05	-0.00018	-6e-05	4e-05	5
22185	-3e-05	0	-4e-05	-0.00012	5e-05	-0.00018	-6e-05	4e-05	5
22186	-3e-05	0	-4e-05	-0.00012	5e-05	-0.00018	-6e-05	4e-05	5
22188	-3e-05	0	-4e-05	-0.00012	5e-05	-0.00018	-6e-05	4e-05	5
22189	-3e-05	0	-4e-05	-0.00012	5e-05	-0.00018	-6e-05	4e-05	5
22190	-3e-05	0	-4e-05	-0.00012	5e-05	-0.00018	-6e-05	4e-05	5
22191	-3e-05	0	-4e-05	-0.00012	5e-05	-0.00018	-6e-05	4e-05	5
22192	-3e-05	0	-4e-05	-0.00012	5e-05	-0.00018	-6e-05	4e-05	5
22193	-3e-05	0	-4e-05	-0.00012	5e-05	-0.00018	-6e-05	4e-05	5
22194	-3e-05	0	-4e-05	-0.00012	5e-05	-0.00018	-6e-05	4e-05	5
22195	-3e-05	0	-4e-05	-0.00012	5e-05	-0.00018	-6e-05	4e-05	5
22196	-3e-05	0	-4e-05	-0.00012	5e-05	-0.00018	-6e-05	4e-05	5
22197	-3e-05	0	-4e-05	-0.00012	5e-05	-0.00018	-6e-05	4e-05	5
22198	-3e-05	0	-4e-05	-0.00012	5e-05	-0.00018	-6e-05	4e-05	5
22199	-3e-05	0	-4e-05	-0.00012	5e-05	-0.00018	-6e-05	4e-05	5
22200	-3e-05	0	-4e-05	-0.00012	5e-05	-0.00018	-6e-05	4e-05	5
22201	-3e-05	0	-4e-05	-0.00012	5e-05	-0.00018	-6e-05	4e-05	5
22202	-5e-05	-9e-05	-1e-05	-0.00073	-0.00087	-0.00034	-7e-05	-2e-05	5
22203	-6e-05	2e-05	1e-05	0.00013	-2e-05	-1e-05	0	-3e-05	5
22204	-6e-05	2e-05	1e-05	0.00013	-2e-05	-1e-05	0	-3e-05	5
22205	-6e-05	2e-05	1e-05	0.00013	-2e-05	-1e-05	0	-3e-05	5
22206	-6e-05	2e-05	1e-05	0.00013	-2e-05	-1e-05	0	-3e-05	5
22207	-6e-05	2e-05	1e-05	0.00013	-2e-05	-1e-05	0	-3e-05	5
22208	-6e-05	2e-05	1e-05	0.00013	-2e-05	-1e-05	0	-3e-05	5
22209	-6e-05	-5e-05	-2e-05	-0.00018	-0.00057	-0.00015	3e-05	-1e-05	5
22210	-6e-05	-5e-05	-2e-05	-0.00018	-0.00057	-0.00015	3e-05	-1e-05	5
22211	-6e-05	-5e-05	-2e-05	-0.00018	-0.00057	-0.00015	3e-05	-1e-05	5
22212	-6e-05	-5e-05	-2e-05	-0.00018	-0.00057	-0.00015	3e-05	-1e-05	5
22213	-6e-05	-5e-05	-2e-05	-0.00018	-0.00057	-0.00015	3e-05	-1e-05	5
22214	-6e-05	-5e-05	-2e-05	-0.00018	-0.00057	-0.00015	3e-05	-1e-05	5
22215	-6e-05	-5e-05	-2e-05	-0.00018	-0.00057	-0.00015	3e-05	-1e-05	5
22216	-6e-05	-5e-05	-2e-05	-0.00018	-0.00057	-0.00015	3e-05	-1e-05	5
22217	-6e-05	-5e-05	-2e-05	-0.00018	-0.00057	-0.00015	3e-05	-1e-05	5
22218	-6e-05	-5e-05	-2e-05	-0.00018	-0.00057	-0.00015	3e-05	-1e-05	5
22219	-6e-05	-5e-05	-2e-05	-0.00018	-0.00057	-0.00015	3e-05	-1e-05	5
22220	-6e-05	-5e-05	-2e-05	-0.00018	-0.00057	-0.00015	3e-05	-1e-05	5
22221	-6e-05	-5e-05	-2e-05	-0.00018	-0.00057	-0.00015	3e-05	-1e-05	5
22222	-6e-05	-5e-05	-2e-05	-0.00018	-0.00057	-0.00015	3e-05	-1e-05	5
22223	-4e-05	-7e-05	-0.00017	-0.00041	-0.00034	-0.00028	-9e-05	-4e-05	5
22224	-4e-05	-7e-05	-0.00017	-0.00041	-0.00034	-0.00028	-9e-05	-4e-05	5
22225	-4e-05	-7e-05	-0.00017	-0.00041	-0.00034	-0.00028	-9e-05	-4e-05	5
22226	-4e-05	-7e-05	-0.00017	-0.00041	-0.00034	-0.00028	-9e-05	-4e-05	5
22227	-4e-05	-7e-05	-0.00017	-0.00041	-0.00034	-0.00028	-9e-05	-4e-05	5
22228	-4e-05	-7e-05	-0.00017	-0.00041	-0.00034	-0.00028	-9e-05	-4e-05	5
22229	-4e-05	-7e-05	-0.00017	-0.00041	-0.00034	-0.00028	-9e-05	-4e-05	5
22230	-4e-05	-7e-05	-0.00017	-0.00041	-0.00034	-0.00028	-9e-05	-4e-05	5
22231	2e-05	7e-05	1e-05	0.00047	0.00017	0.00013	2e-05	0	5
22232	4e-05	0	-5e-05	-0.00033	-0.00023	-0.00015	-8e-05	-1e-05	5
22233	8e-05	-1e-05	-9e-05	-0.00035	-0.00052	0.00019	0.00011	2e-05	5
22234	8e-05	-1e-05	-9e-05	-0.00035	-0.00052	0.00019	0.00011	2e-05	5
22235	8e-05	-1e-05	-9e-05	-0.00035	-0.00052	0.00019	0.00011	2e-05	5
22236	8e-05	-1e-05	-9e-05	-0.00035	-0.00052	0.00019	0.00011	2e-05	5
22238	8e-05	-1e-05	-9e-05	-0.00035	-0.00052	0.00019	0.00011	2e-05	5
22239	8e-05	-1e-05	-9e-05	-0.00035	-0.00052	0.00019	0.00011	2e-05	5
22240	8e-05	-1e-05	-9e-05	-0.00035	-0.00052	0.00019	0.00011	2e-05	5
22241	8e-05	-1e-05	-9e-05	-0.00035	-0.00052	0.00019	0.00011	2e-05	5
22242	8e-05	-1e-05	-9e-05	-0.00035	-0.00052	0.00019	0.00011	2e-05	5
22243	8e-05	-1e-05	-9e-05	-0.00035	-0.00052	0.00019	0.00011	2e-05	5
22244	8e-05	-1e-05	-9e-05	-0.00035	-0.00052	0.00019	0.00011	2e-05	5
22245	8e-05	-1e-05	-9e-05	-0.00035	-0.00052	0.00019	0.00011	2e-05	5
22246	8e-05	-1e-05	-9e-05	-0.00035	-0.00052	0.00019	0.00011	2e-05	5
22247	8e-05	-1e-05	-9e-05	-0.00035	-0.00052	0.00019	0.00011	2e-05	5
22248	8e-05	-1e-05	-9e-05	-0.00035	-0.00052	0.00019	0.00011	2e-05	5
22249	8e-05	-1e-05	-9e-05	-0.00035	-0.00052	0.00019	0.00011	2e-05	5
22250	8e-05	-1e-05	-9e-05	-0.00035	-0.00052	0.00019	0.00011	2e-05	5
22251	8e-05	-1e-05	-9e-05	-0.00035	-0.00052	0.00019	0.00011	2e-05	5
22252	8e-05	-1e-05	-9e-05	-0.00035	-0.00052	0.00019	0.00011	2e-05	5
22253	8e-05	-1e-05	-9e-05	-0.00035	-0.00052	0.00019	0.00011	2e-05	5
22254	7e-05	-1e-05	-0.0001	-2e-05	-0.00011	4e-05	0	1e-05	5
22255	7e-05	-1e-05	-0.0001	-2e-05	-0.00011	4e-05	0	1e-05	5
22256	-0.00014	-1e-05	0.00022	0.0001	-8e-05	-0.00011	-7e-05	-4e-05	5
22257	-0.00014	-1e-05	0.00022	0.0001	-8e-05	-0.00011	-7e-05	-4e-05	5
22258	-0.00014	-1e-05	0.00022	0.0001	-8e-05	-0.00011	-7e-05	-4e-05	5
22259	-0.00014	-1e-05	0.00022	0.0001	-8e-05	-0.00011	-7e-05	-4e-05	5
22260	-0.00014	-1e-05	0.00022	0.0001	-8e-05	-0.00011	-7e-05	-4e-05	5
22261	-0.00014	-1e-05	0.00022	0.0001	-8e-05	-0.00011	-7e-05	-4e-05	5
22262	-0.00014	-1e-05	0.00022	0.0001	-8e-05	-0.00011	-7e-05	-4e-05	5
22263	-0.00014	-1e-05	0.00022	0.0001	-8e-05	-0.00011	-7e-05	-4e-05	5
22264	-0.00014	-1e-05	0.00022	0.0001	-8e-05	-0.00011	-7e-05	-4e-05	5
22265	-0.00014	-1e-05	0.00022	0.0001	-8e-05	-0.00011	-7e-05	-4e-05	5
22266	-0.00014	-1e-05	0.00022	0.0001	-8e-05	-0.00011	-7e-05	-4e-05	5
22267	-0.00014	-1e-05	0.00022	0.0001	-8e-05	-0.00011	-7e-05	-4e-05	5
22268	-1e-05	4e-05	0.0001	8e-05	0.0001	0.00013	-2e-05	1e-05	5
22269	-1e-05	4e-05	0.0001	8e-05	0.0001	0.00013	-2e-05	1e-05	5
22270	-1e-05	4e-05	0.0001	8e-05	0.0001	0.00013	-2e-05	1e-05	5
22271	-1e-05	4e-05	0.0001	8e-05	0.0001	0.00013	-2e-05	1e-05	5
22272	-1e-05	4e-05	0.0001	8e-05	0.0001	0.00013	-2e-05	1e-05	5
22273	-1e-05	4e-05	0.0001	8e-05	0.0001	0.00013	-2e-05	1e-05	5
22274	-1e-05	4e-05	0.0001	8e-05	0.0001	0.00013	-2e-05	1e-05	5
22275	0	-5e-05	-4e-05	0.00038	0.00023	0.00013	3e-05	-2e-05	5
22276	0	-5e-05	-4e-05	0.00038	0.00023	0.00013	3e-05	-2e-05	5
22277	0	-5e-05	-4e-05	0.00038	0.00023	0.00013	3e-05	-2e-05	5
22278	0	-5e-05	-4e-05	0.00038	0.00023	0.00013	3e-05	-2e-05	5
22279	0	-5e-05	-4e-05	0.00038	0.00023	0.00013	3e-05	-2e-05	5
22280	0	-5e-05	-4e-05	0.00038	0.00023	0.00013	3e-05	-2e-05	5
22281	0	-5e-05	-4e-05	0.00038	0.00023	0.00013	3e-05	-2e-05	5
22282	0	-5e-05	-4e-05	0.00038	0.00023	0.00013	3e-05	-2e-05	5
22283	0	-5e-05	-4e-05	0.00038	0.00023	0.00013	3e-05	-2e-05	5
22284	0	-5e-05	-4e-05	0.00038	0.00023	0.00013	3e-05	-2e-05	5
22285	0	-5e-05	-4e-05	0.00038	0.00023	0.00013	3e-05	-2e-05	5
22286	0	-5e-05	-4e-05	0.00038	0.00023	0.00013	3e-05	-2e-05	5
22288	0	-5e-05	-4e-05	0.00038	0.00023	0.00013	3e-05	-2e-05	5
22289	0	-5e-05	-4e-05	0.00038	0.00023	0.00013	3e-05	-2e-05	5
22290	0	-5e-05	-4e-05	0.00038	0.00023	0.00013	3e-05	-2e-05	5
22291	0	-5e-05	-4e-05	0.00038	0.00023	0.00013	3e-05	-2e-05	5
22292	-7e-05	6e-05	0.00025	0.00019	0.00012	2e-05	-1e-05	-3e-05	5
22293	-7e-05	6e-05	0.00025	0.00019	0.00012	2e-05	-1e-05	-3e-05	5
22294	-7e-05	6e-05	0.00025	0.00019	0.00012	2e-05	-1e-05	-3e-05	5
22295	-7e-05	6e-05	0.00025	0.00019	0.00012	2e-05	-1e-05	-3e-05	5
22296	-7e-05	6e-05	0.00025	0.00019	0.00012	2e-05	-1e-05	-3e-05	5
22297	-7e-05	6e-05	0.00025	0.00019	0.00012	2e-05	-1e-05	-3e-05	5
22298	-7e-05	6e-05	0.00025	0.00019	0.00012	2e-05	-1e-05	-3e-05	5
22299	-2e-05	-6e-05	-7e-05	0.00029	0.00032	-4e-05	-6e-05	-2e-05	5
22300	-2e-05	-6e-05	-7e-05	0.00029	0.00032	-4e-05	-6e-05	-2e-05	5
22301	-2e-05	-6e-05	-7e-05	0.00029	0.00032	-4e-05	-6e-05	-2e-05	5
22302	-2e-05	-6e-05	-7e-05	0.00029	0.00032	-4e-05	-6e-05	-2e-05	5
22303	-2e-05	-6e-05	-7e-05	0.00029	0.00032	-4e-05	-6e-05	-2e-05	5
22304	-2e-05	-6e-05	-7e-05	0.00029	0.00032	-4e-05	-6e-05	-2e-05	5
22305	-2e-05	-6e-05	-7e-05	0.00029	0.00032	-4e-05	-6e-05	-2e-05	5
22306	-2e-05	-6e-05	-7e-05	0.00029	0.00032	-4e-05	-6e-05	-2e-05	5
22307	-2e-05	-6e-05	-7e-05	0.00029	0.00032	-4e-05	-6e-05	-2e-05	5
22308	-2e-05	-6e-05	-7e-05	0.00029	0.00032	-4e-05	-6e-05	-2e-05	5
22309	-2e-05	-6e-05	-7e-05	0.00029	0.00032	-4e-05	-6e-05	-2e-05	5
22310	-2e-05	-6e-05	-7e-05	0.00029	0.00032	-4e-05	-6e-05	-2e-05	5
22311	-2e-05	-6e-05	-7e-05	0.00029	0.00032	-4e-05	-6e-05	-2e-05	5
22312	-2e-05	-6e-05	-7e-05	0.00029	0.00032	-4e-05	-6e-05	-2e-05	5
22313	-2e-05	-6e-05	-7e-05	0.00029	0.00032	-4e-05	-6e-05	-2e-05	5
22314	-4e-05	-8e-05	3e-05	0.00059	0.00038	-1e-05	-9e-05	-5e-05	5
22315	-4e-05	-8e-05	3e-05	0.00059	0.00038	-1e-05	-9e-05	-5e-05	5
22316	-5e-05	7e-05	-0.00015	-6e-05	-0.00021	-0.00016	-2e-05	-3e-05	5
22317	-5e-05	7e-05	-0.00015	-6e-05	-0.00021	-0.00016	-2e-05	-3e-05	5
22318	-5e-05	7e-05	-0.00015	-6e-05	-0.00021	-0.00016	-2e-05	-3e-05	5
22319	-5e-05	7e-05	-0.00015	-6e-05	-0.00021	-0.00016	-2e-05	-3e-05	5
22320	-5e-05	7e-05	-0.00015	-6e-05	-0.00021	-0.00016	-2e-05	-3e-05	5
22321	-5e-05	7e-05	-0.00015	-6e-05	-0.00021	-0.00016	-2e-05	-3e-05	5
22322	-5e-05	7e-05	-0.00015	-6e-05	-0.00021	-0.00016	-2e-05	-3e-05	5
22323	-5e-05	7e-05	-0.00015	-6e-05	-0.00021	-0.00016	-2e-05	-3e-05	5
22324	-5e-05	7e-05	-0.00015	-6e-05	-0.00021	-0.00016	-2e-05	-3e-05	5
22325	-5e-05	7e-05	-0.00015	-6e-05	-0.00021	-0.00016	-2e-05	-3e-05	5
22326	-5e-05	7e-05	-0.00015	-6e-05	-0.00021	-0.00016	-2e-05	-3e-05	5
22327	-5e-05	7e-05	-0.00015	-6e-05	-0.00021	-0.00016	-2e-05	-3e-05	5
22328	3e-05	-2e-05	-1e-05	0.00013	9e-05	2e-05	2e-05	0	5
22329	3e-05	-2e-05	-1e-05	0.00013	9e-05	2e-05	2e-05	0	5
22330	3e-05	-2e-05	-1e-05	0.00013	9e-05	2e-05	2e-05	0	5
22331	3e-05	-2e-05	-1e-05	0.00013	9e-05	2e-05	2e-05	0	5
22332	3e-05	-2e-05	-1e-05	0.00013	9e-05	2e-05	2e-05	0	5
22333	3e-05	-2e-05	-1e-05	0.00013	9e-05	2e-05	2e-05	0	5
22334	3e-05	-2e-05	-1e-05	0.00013	9e-05	2e-05	2e-05	0	5
22335	3e-05	-2e-05	-1e-05	0.00013	9e-05	2e-05	2e-05	0	5
22336	3e-05	-2e-05	-1e-05	0.00013	9e-05	2e-05	2e-05	0	5
22338	3e-05	-2e-05	-1e-05	0.00013	9e-05	2e-05	2e-05	0	5
22339	3e-05	-2e-05	-1e-05	0.00013	9e-05	2e-05	2e-05	0	5
22340	3e-05	-2e-05	-1e-05	0.00013	9e-05	2e-05	2e-05	0	5
22341	3e-05	-2e-05	-1e-05	0.00013	9e-05	2e-05	2e-05	0	5
22342	3e-05	-2e-05	-1e-05	0.00013	9e-05	2e-05	2e-05	0	5
22343	-1e-05	-2e-05	-0.00011	0.00018	-0.00018	-7e-05	-6e-05	1e-05	5
22344	-1e-05	-2e-05	-0.00011	0.00018	-0.00018	-7e-05	-6e-05	1e-05	5
22345	-1e-05	-2e-05	-0.00011	0.00018	-0.00018	-7e-05	-6e-05	1e-05	5
22346	-1e-05	-2e-05	-0.00011	0.00018	-0.00018	-7e-05	-6e-05	1e-05	5
22347	-1e-05	-2e-05	-0.00011	0.00018	-0.00018	-7e-05	-6e-05	1e-05	5
22348	-1e-05	-2e-05	-0.00011	0.00018	-0.00018	-7e-05	-6e-05	1e-05	5
22349	-1e-05	-2e-05	-0.00011	0.00018	-0.00018	-7e-05	-6e-05	1e-05	5
22350	-1e-05	-2e-05	-0.00011	0.00018	-0.00018	-7e-05	-6e-05	1e-05	5
22351	8e-05	3e-05	6e-05	-9e-05	-0.00014	-0.00017	-9e-05	-3e-05	5
22352	3e-05	0.00011	0.0001	-0.0004	-0.00035	7e-05	8e-05	7e-05	5
22353	1e-05	4e-05	0.00019	-0.0001	0.00027	0.00022	7e-05	2e-05	5
22354	1e-05	4e-05	0.00019	-0.0001	0.00027	0.00022	7e-05	2e-05	5
22355	1e-05	4e-05	0.00019	-0.0001	0.00027	0.00022	7e-05	2e-05	5
22356	1e-05	4e-05	0.00019	-0.0001	0.00027	0.00022	7e-05	2e-05	5
22357	1e-05	4e-05	0.00019	-0.0001	0.00027	0.00022	7e-05	2e-05	5
22358	1e-05	4e-05	0.00019	-0.0001	0.00027	0.00022	7e-05	2e-05	5
22359	1e-05	4e-05	0.00019	-0.0001	0.00027	0.00022	7e-05	2e-05	5
22360	1e-05	4e-05	0.00019	-0.0001	0.00027	0.00022	7e-05	2e-05	5
22361	1e-05	4e-05	0.00019	-0.0001	0.00027	0.00022	7e-05	2e-05	5
22362	1e-05	4e-05	0.00019	-0.0001	0.00027	0.00022	7e-05	2e-05	5
22363	1e-05	4e-05	0.00019	-0.0001	0.00027	0.00022	7e-05	2e-05	5
22364	1e-05	4e-05	0.00019	-0.0001	0.00027	0.00022	7e-05	2e-05	5
22365	1e-05	4e-05	0.00019	-0.0001	0.00027	0.00022	7e-05	2e-05	5
22366	1e-05	4e-05	0.00019	-0.0001	0.00027	0.00022	7e-05	2e-05	5
22367	1e-05	4e-05	0.00019	-0.0001	0.00027	0.00022	7e-05	2e-05	5
22368	1e-05	4e-05	0.00019	-0.0001	0.00027	0.00022	7e-05	2e-05	5
22369	1e-05	4e-05	0.00019	-0.0001	0.00027	0.00022	7e-05	2e-05	5
22370	1e-05	4e-05	0.00019	-0.0001	0.00027	0.00022	7e-05	2e-05	5
22371	1e-05	4e-05	0.00019	-0.0001	0.00027	0.00022	7e-05	2e-05	5
22372	1e-05	4e-05	0.00019	-0.0001	0.00027	0.00022	7e-05	2e-05	5
22373	1e-05	4e-05	0.00019	-0.0001	0.00027	0.00022	7e-05	2e-05	5
22374	-0.00013	0	-1e-05	0.00025	0.00021	0.00016	2e-05	-2e-05	5
22375	-0.00013	0	-1e-05	0.00025	0.00021	0.00016	2e-05	-2e-05	5
22376	-1e-05	-9e-05	-4e-05	-0.00054	-0.00052	-0.00033	-8e-05	-1e-05	5
22377	-1e-05	-9e-05	-4e-05	-0.00054	-0.00052	-0.00033	-8e-05	-1e-05	5
22378	-1e-05	-9e-05	-4e-05	-0.00054	-0.00052	-0.00033	-8e-05	-1e-05	5
22379	-1e-05	-9e-05	-4e-05	-0.00054	-0.00052	-0.00033	-8e-05	-1e-05	5
22380	-1e-05	-9e-05	-4e-05	-0.00054	-0.00052	-0.00033	-8e-05	-1e-05	5
22381	-1e-05	-9e-05	-4e-05	-0.00054	-0.00052	-0.00033	-8e-05	-1e-05	5
22382	-1e-05	-9e-05	-4e-05	-0.00054	-0.00052	-0.00033	-8e-05	-1e-05	5
22383	-1e-05	-9e-05	-4e-05	-0.00054	-0.00052	-0.00033	-8e-05	-1e-05	5
22384	-1e-05	-9e-05	-4e-05	-0.00054	-0.00052	-0.00033	-8e-05	-1e-05	5
22385	-1e-05	-9e-05	-4e-05	-0.00054	-0.00052	-0.00033	-8e-05	-1e-05	5
22386	-1e-05	-9e-05	-4e-05	-0.00054	-0.00052	-0.00033	-8e-05	-1e-05	5
22388	-1e-05	-9e-05	-4e-05	-0.00054	-0.00052	-0.00033	-8e-05	-1e-05	5
22389	-1e-05	-9e-05	-4e-05	-0.00054	-0.00052	-0.00033	-8e-05	-1e-05	5
22390	-1e-05	-9e-05	-4e-05	-0.00054	-0.00052	-0.00033	-8e-05	-1e-05	5
22391	-1e-05	-9e-05	-4e-05	-0.00054	-0.00052	-0.00033	-8e-05	-1e-05	5
22392	-1e-05	-9e-05	-4e-05	-0.00054	-0.00052	-0.00033	-8e-05	-1e-05	5
22393	-1e-05	-9e-05	-4e-05	-0.00054	-0.00052	-0.00033	-8e-05	-1e-05	5
22394	-1e-05	-9e-05	-4e-05	-0.00054	-0.00052	-0.00033	-8e-05	-1e-05	5
22395	-1e-05	-9e-05	-4e-05	-0.00054	-0.00052	-0.00033	-8e-05	-1e-05	5
22396	-1e-05	-9e-05	-4e-05	-0.00054	-0.00052	-0.00033	-8e-05	-1e-05	5
22397	8e-05	0.0001	2e-05	-0.00064	-0.00027	0.00015	0.00011	0	5
22398	-3e-05	-0.00017	-4e-05	0.0005	0.00035	-0.00016	-0.00011	-8e-05	5
22399	-3e-05	-0.00017	-4e-05	0.0005	0.00035	-0.00016	-0.00011	-8e-05	5
22400	-3e-05	-0.00017	-4e-05	0.0005	0.00035	-0.00016	-0.00011	-8e-05	5
22401	-3e-05	-0.00017	-4e-05	0.0005	0.00035	-0.00016	-0.00011	-8e-05	5
22402	-3e-05	-0.00017	-4e-05	0.0005	0.00035	-0.00016	-0.00011	-8e-05	5
22403	-3e-05	-0.00017	-4e-05	0.0005	0.00035	-0.00016	-0.00011	-8e-05	5
22404	-3e-05	-0.00017	-4e-05	0.0005	0.00035	-0.00016	-0.00011	-8e-05	5
22405	-3e-05	-0.00017	-4e-05	0.0005	0.00035	-0.00016	-0.00011	-8e-05	5
22406	-3e-05	-0.00017	-4e-05	0.0005	0.00035	-0.00016	-0.00011	-8e-05	5
22407	-3e-05	-0.00017	-4e-05	0.0005	0.00035	-0.00016	-0.00011	-8e-05	5
22408	-3e-05	-0.00017	-4e-05	0.0005	0.00035	-0.00016	-0.00011	-8e-05	5
22409	-3e-05	-0.00017	-4e-05	0.0005	0.00035	-0.00016	-0.00011	-8e-05	5
22410	-3e-05	-0.00017	-4e-05	0.0005	0.00035	-0.00016	-0.00011	-8e-05	5
22411	-3e-05	-0.00017	-4e-05	0.0005	0.00035	-0.00016	-0.00011	-8e-05	5
22412	-2e-05	-9e-05	-0.00012	-0.00027	-0.00036	-0.00022	-0.00012	-3e-05	5
22413	0.0001	0.00021	0.00021	-0.00023	0.0004	0.00052	0.00017	6e-05	5
22414	0.0001	0.00021	0.00021	-0.00023	0.0004	0.00052	0.00017	6e-05	5
22415	0.0001	0.00021	0.00021	-0.00023	0.0004	0.00052	0.00017	6e-05	5
22416	0.0001	0.00021	0.00021	-0.00023	0.0004	0.00052	0.00017	6e-05	5
22417	0.0001	0.00021	0.00021	-0.00023	0.0004	0.00052	0.00017	6e-05	5
22418	0.0001	0.00021	0.00021	-0.00023	0.0004	0.00052	0.00017	6e-05	5
22419	0.0001	0.00021	0.00021	-0.00023	0.0004	0.00052	0.00017	6e-05	5
22420	0.0001	0.00021	0.00021	-0.00023	0.0004	0.00052	0.00017	6e-05	5
22421	0.0001	0.00021	0.00021	-0.00023	0.0004	0.00052	0.00017	6e-05	5
22422	0.0001	0.00021	0.00021	-0.00023	0.0004	0.00052	0.00017	6e-05	5
22423	0.0001	0.00021	0.00021	-0.00023	0.0004	0.00052	0.00017	6e-05	5
22424	0.0001	0.00021	0.00021	-0.00023	0.0004	0.00052	0.00017	6e-05	5
22425	0.0001	0.00021	0.00021	-0.00023	0.0004	0.00052	0.00017	6e-05	5
22426	0.0001	0.00021	0.00021	-0.00023	0.0004	0.00052	0.00017	6e-05	5
22427	0.0001	0.00021	0.00021	-0.00023	0.0004	0.00052	0.00017	6e-05	5
22428	0.0001	0.00021	0.00021	-0.00023	0.0004	0.00052	0.00017	6e-05	5
22429	0.0001	0.00021	0.00021	-0.00023	0.0004	0.00052	0.00017	6e-05	5
22430	0.0001	0.00021	0.00021	-0.00023	0.0004	0.00052	0.00017	6e-05	5
22431	0.0001	0.00021	0.00021	-0.00023	0.0004	0.00052	0.00017	6e-05	5
22432	0.0001	0.00021	0.00021	-0.00023	0.0004	0.00052	0.00017	6e-05	5
22433	0.0001	0.00021	0.00021	-0.00023	0.0004	0.00052	0.00017	6e-05	5
22434	0.0001	0.00021	0.00021	-0.00023	0.0004	0.00052	0.00017	6e-05	5
22435	-5e-05	-8e-05	-0.0002	-0.00051	-0.00036	-0.00017	-5e-05	-3e-05	5
22437	4e-05	8e-05	-1e-05	-0.00038	-0.00032	2e-05	4e-05	7e-05	5
22439	4e-05	8e-05	-1e-05	-0.00038	-0.00032	2e-05	4e-05	7e-05	5
22440	4e-05	8e-05	-1e-05	-0.00038	-0.00032	2e-05	4e-05	7e-05	5
22441	4e-05	8e-05	-1e-05	-0.00038	-0.00032	2e-05	4e-05	7e-05	5
22442	4e-05	8e-05	-1e-05	-0.00038	-0.00032	2e-05	4e-05	7e-05	5
22443	4e-05	8e-05	-1e-05	-0.00038	-0.00032	2e-05	4e-05	7e-05	5
22444	4e-05	8e-05	-1e-05	-0.00038	-0.00032	2e-05	4e-05	7e-05	5
22445	4e-05	8e-05	-1e-05	-0.00038	-0.00032	2e-05	4e-05	7e-05	5
22446	4e-05	8e-05	-1e-05	-0.00038	-0.00032	2e-05	4e-05	7e-05	5
22447	4e-05	8e-05	-1e-05	-0.00038	-0.00032	2e-05	4e-05	7e-05	5
22448	4e-05	8e-05	-1e-05	-0.00038	-0.00032	2e-05	4e-05	7e-05	5
22449	4e-05	8e-05	-1e-05	-0.00038	-0.00032	2e-05	4e-05	7e-05	5
22450	4e-05	8e-05	-1e-05	-0.00038	-0.00032	2e-05	4e-05	7e-05	5
22451	4e-05	8e-05	-1e-05	-0.00038	-0.00032	2e-05	4e-05	7e-05	5
22452	4e-05	8e-05	-1e-05	-0.00038	-0.00032	2e-05	4e-05	7e-05	5
22453	4e-05	8e-05	-1e-05	-0.00038	-0.00032	2e-05	4e-05	7e-05	5
22454	4e-05	8e-05	-1e-05	-0.00038	-0.00032	2e-05	4e-05	7e-05	5
22455	4e-05	8e-05	-1e-05	-0.00038	-0.00032	2e-05	4e-05	7e-05	5
22456	4e-05	8e-05	-1e-05	-0.00038	-0.00032	2e-05	4e-05	7e-05	5
22457	-2e-05	-6e-05	-5e-05	0.00029	0.00034	8e-05	1e-05	-6e-05	5
22458	-2e-05	-6e-05	-5e-05	0.00029	0.00034	8e-05	1e-05	-6e-05	5
22459	-4e-05	-3e-05	3e-05	0.00016	2e-05	-0.00014	1e-05	2e-05	5
22460	-4e-05	-3e-05	3e-05	0.00016	2e-05	-0.00014	1e-05	2e-05	5
22461	-4e-05	-3e-05	3e-05	0.00016	2e-05	-0.00014	1e-05	2e-05	5
22462	-4e-05	-3e-05	3e-05	0.00016	2e-05	-0.00014	1e-05	2e-05	5
22463	-4e-05	-3e-05	3e-05	0.00016	2e-05	-0.00014	1e-05	2e-05	5
22464	-4e-05	-3e-05	3e-05	0.00016	2e-05	-0.00014	1e-05	2e-05	5
22465	-4e-05	-3e-05	3e-05	0.00016	2e-05	-0.00014	1e-05	2e-05	5
22466	-4e-05	-3e-05	3e-05	0.00016	2e-05	-0.00014	1e-05	2e-05	5
22467	-4e-05	-3e-05	3e-05	0.00016	2e-05	-0.00014	1e-05	2e-05	5
22468	-4e-05	-3e-05	3e-05	0.00016	2e-05	-0.00014	1e-05	2e-05	5
22469	-4e-05	-3e-05	3e-05	0.00016	2e-05	-0.00014	1e-05	2e-05	5
22470	-4e-05	-3e-05	3e-05	0.00016	2e-05	-0.00014	1e-05	2e-05	5
22471	-4e-05	-3e-05	3e-05	0.00016	2e-05	-0.00014	1e-05	2e-05	5
22472	-4e-05	-3e-05	3e-05	0.00016	2e-05	-0.00014	1e-05	2e-05	5
22473	-4e-05	-3e-05	3e-05	0.00016	2e-05	-0.00014	1e-05	2e-05	5
22474	-4e-05	-3e-05	3e-05	0.00016	2e-05	-0.00014	1e-05	2e-05	5
22475	-4e-05	-3e-05	3e-05	0.00016	2e-05	-0.00014	1e-05	2e-05	5
22476	-4e-05	-3e-05	3e-05	0.00016	2e-05	-0.00014	1e-05	2e-05	5
22477	-4e-05	-3e-05	3e-05	0.00016	2e-05	-0.00014	1e-05	2e-05	5
22478	-4e-05	-3e-05	3e-05	0.00016	2e-05	-0.00014	1e-05	2e-05	5
22479	-4e-05	-3e-05	3e-05	0.00016	2e-05	-0.00014	1e-05	2e-05	5
22480	-7e-05	0	7e-05	0.00025	0.0003	0.00011	1e-05	-1e-05	5
22481	4e-05	0	-6e-05	-9e-05	-0.0001	-0.00013	-6e-05	-7e-05	5
22482	4e-05	0	-6e-05	-9e-05	-0.0001	-0.00013	-6e-05	-7e-05	5
22483	4e-05	0	-6e-05	-9e-05	-0.0001	-0.00013	-6e-05	-7e-05	5
22484	4e-05	0	-6e-05	-9e-05	-0.0001	-0.00013	-6e-05	-7e-05	5
22485	4e-05	0	-6e-05	-9e-05	-0.0001	-0.00013	-6e-05	-7e-05	5
22486	4e-05	0	-6e-05	-9e-05	-0.0001	-0.00013	-6e-05	-7e-05	5
22488	4e-05	0	-6e-05	-9e-05	-0.0001	-0.00013	-6e-05	-7e-05	5
22489	4e-05	0	-6e-05	-9e-05	-0.0001	-0.00013	-6e-05	-7e-05	5
22490	4e-05	0	-6e-05	-9e-05	-0.0001	-0.00013	-6e-05	-7e-05	5
22491	4e-05	0	-6e-05	-9e-05	-0.0001	-0.00013	-6e-05	-7e-05	5
22492	4e-05	0	-6e-05	-9e-05	-0.0001	-0.00013	-6e-05	-7e-05	5
22493	4e-05	0	-6e-05	-9e-05	-0.0001	-0.00013	-6e-05	-7e-05	5
22494	4e-05	0	-6e-05	-9e-05	-0.0001	-0.00013	-6e-05	-7e-05	5
22495	4e-05	0	-6e-05	-9e-05	-0.0001	-0.00013	-6e-05	-7e-05	5
22496	4e-05	0	-6e-05	-9e-05	-0.0001	-0.00013	-6e-05	-7e-05	5
22497	4e-05	0	-6e-05	-9e-05	-0.0001	-0.00013	-6e-05	-7e-05	5
22498	4e-05	0	-6e-05	-9e-05	-0.0001	-0.00013	-6e-05	-7e-05	5
22499	4e-05	0	-6e-05	-9e-05	-0.0001	-0.00013	-6e-05	-7e-05	5
22500	4e-05	0	-6e-05	-9e-05	-0.0001	-0.00013	-6e-05	-7e-05	5
22501	-2e-05	-4e-05	-9e-05	-0.00014	-3e-05	0	-4e-05	2e-05	5
22502	1e-05	-5e-05	0.00013	0.00024	-9e-05	-8e-05	-1e-05	3e-05	5
22503	-0.0001	-6e-05	-0.00019	0.00012	3e-05	-9e-05	-6e-05	-5e-05	5
22504	-0.0001	-6e-05	-0.00019	0.00012	3e-05	-9e-05	-6e-05	-5e-05	5
22505	-0.0001	-6e-05	-0.00019	0.00012	3e-05	-9e-05	-6e-05	-5e-05	5
22506	-0.0001	-6e-05	-0.00019	0.00012	3e-05	-9e-05	-6e-05	-5e-05	5
22507	-0.0001	-6e-05	-0.00019	0.00012	3e-05	-9e-05	-6e-05	-5e-05	5
22508	-0.0001	-6e-05	-0.00019	0.00012	3e-05	-9e-05	-6e-05	-5e-05	5
22509	-3e-05	5e-05	-0.0001	7e-05	-0.00016	-0.00018	-2e-05	-2e-05	5
22510	-3e-05	5e-05	-0.0001	7e-05	-0.00016	-0.00018	-2e-05	-2e-05	5
22511	-3e-05	5e-05	-0.0001	7e-05	-0.00016	-0.00018	-2e-05	-2e-05	5
22512	-3e-05	5e-05	-0.0001	7e-05	-0.00016	-0.00018	-2e-05	-2e-05	5
22513	-3e-05	5e-05	-0.0001	7e-05	-0.00016	-0.00018	-2e-05	-2e-05	5
22514	-3e-05	5e-05	-0.0001	7e-05	-0.00016	-0.00018	-2e-05	-2e-05	5
22515	-3e-05	5e-05	-0.0001	7e-05	-0.00016	-0.00018	-2e-05	-2e-05	5
22516	-3e-05	5e-05	-0.0001	7e-05	-0.00016	-0.00018	-2e-05	-2e-05	5
22517	-3e-05	5e-05	-0.0001	7e-05	-0.00016	-0.00018	-2e-05	-2e-05	5
22518	-3e-05	5e-05	-0.0001	7e-05	-0.00016	-0.00018	-2e-05	-2e-05	5
22519	-3e-05	5e-05	-0.0001	7e-05	-0.00016	-0.00018	-2e-05	-2e-05	5
22520	-3e-05	5e-05	-0.0001	7e-05	-0.00016	-0.00018	-2e-05	-2e-05	5
22521	-3e-05	5e-05	-0.0001	7e-05	-0.00016	-0.00018	-2e-05	-2e-05	5
22522	-3e-05	5e-05	-0.0001	7e-05	-0.00016	-0.00018	-2e-05	-2e-05	5
22523	-7e-05	-2e-05	0.00015	0.00048	0.0001	2e-05	-3e-05	-5e-05	5
22524	-7e-05	-2e-05	0.00015	0.00048	0.0001	2e-05	-3e-05	-5e-05	5
22525	-7e-05	-2e-05	0.00015	0.00048	0.0001	2e-05	-3e-05	-5e-05	5
22526	-7e-05	-2e-05	0.00015	0.00048	0.0001	2e-05	-3e-05	-5e-05	5
22527	-7e-05	-2e-05	0.00015	0.00048	0.0001	2e-05	-3e-05	-5e-05	5
22528	-7e-05	-2e-05	0.00015	0.00048	0.0001	2e-05	-3e-05	-5e-05	5
22529	-7e-05	-2e-05	0.00015	0.00048	0.0001	2e-05	-3e-05	-5e-05	5
22530	-7e-05	-2e-05	0.00015	0.00048	0.0001	2e-05	-3e-05	-5e-05	5
22531	-1e-05	2e-05	-0.00014	-0.00039	-9e-05	-3e-05	1e-05	-2e-05	5
22532	-4e-05	-0.00012	-0.00019	-0.00015	-0.00014	-0.00025	-0.0001	-7e-05	5
22533	3e-05	-1e-05	1e-05	-1e-05	0.00016	-3e-05	-1e-05	1e-05	5
22534	3e-05	-1e-05	1e-05	-1e-05	0.00016	-3e-05	-1e-05	1e-05	5
22535	3e-05	-1e-05	1e-05	-1e-05	0.00016	-3e-05	-1e-05	1e-05	5
22536	3e-05	-1e-05	1e-05	-1e-05	0.00016	-3e-05	-1e-05	1e-05	5
22538	3e-05	-1e-05	1e-05	-1e-05	0.00016	-3e-05	-1e-05	1e-05	5
22539	3e-05	-1e-05	1e-05	-1e-05	0.00016	-3e-05	-1e-05	1e-05	5
22540	3e-05	-1e-05	1e-05	-1e-05	0.00016	-3e-05	-1e-05	1e-05	5
22541	3e-05	-1e-05	1e-05	-1e-05	0.00016	-3e-05	-1e-05	1e-05	5
22542	3e-05	-1e-05	1e-05	-1e-05	0.00016	-3e-05	-1e-05	1e-05	5
22543	3e-05	-1e-05	1e-05	-1e-05	0.00016	-3e-05	-1e-05	1e-05	5
22544	3e-05	-1e-05	1e-05	-1e-05	0.00016	-3e-05	-1e-05	1e-05	5
22545	3e-05	-1e-05	1e-05	-1e-05	0.00016	-3e-05	-1e-05	1e-05	5
22546	3e-05	-1e-05	1e-05	-1e-05	0.00016	-3e-05	-1e-05	1e-05	5
22547	3e-05	-1e-05	1e-05	-1e-05	0.00016	-3e-05	-1e-05	1e-05	5
22548	3e-05	-1e-05	1e-05	-1e-05	0.00016	-3e-05	-1e-05	1e-05	5
22549	3e-05	-1e-05	1e-05	-1e-05	0.00016	-3e-05	-1e-05	1e-05	5
22550	3e-05	-1e-05	1e-05	-1e-05	0.00016	-3e-05	-1e-05	1e-05	5
22551	3e-05	-1e-05	1e-05	-1e-05	0.00016	-3e-05	-1e-05	1e-05	5
22552	3e-05	-1e-05	1e-05	-1e-05	0.00016	-3e-05	-1e-05	1e-05	5
22553	3e-05	-1e-05	1e-05	-1e-05	0.00016	-3e-05	-1e-05	1e-05	5
22554	-0.00013	3e-05	-2e-05	4e-05	-0.00048	-0.00046	-0.00013	-4e-05	5
22555	-0.00013	3e-05	-2e-05	4e-05	-0.00048	-0.00046	-0.00013	-4e-05	5
22556	-2e-05	2e-05	-4e-05	-0.00012	9e-05	0.0001	0.00012	0	5
22557	-2e-05	2e-05	-4e-05	-0.00012	9e-05	0.0001	0.00012	0	5
22558	-2e-05	2e-05	-4e-05	-0.00012	9e-05	0.0001	0.00012	0	5
22559	-2e-05	2e-05	-4e-05	-0.00012	9e-05	0.0001	0.00012	0	5
22560	-2e-05	2e-05	-4e-05	-0.00012	9e-05	0.0001	0.00012	0	5
22561	-2e-05	2e-05	-4e-05	-0.00012	9e-05	0.0001	0.00012	0	5
22562	-2e-05	2e-05	-4e-05	-0.00012	9e-05	0.0001	0.00012	0	5
22563	-2e-05	2e-05	-4e-05	-0.00012	9e-05	0.0001	0.00012	0	5
22564	-2e-05	2e-05	-4e-05	-0.00012	9e-05	0.0001	0.00012	0	5
22565	-2e-05	2e-05	-4e-05	-0.00012	9e-05	0.0001	0.00012	0	5
22566	-2e-05	2e-05	-4e-05	-0.00012	9e-05	0.0001	0.00012	0	5
22567	-2e-05	2e-05	-4e-05	-0.00012	9e-05	0.0001	0.00012	0	5
22568	-2e-05	2e-05	-4e-05	-0.00012	9e-05	0.0001	0.00012	0	5
22569	-2e-05	2e-05	-4e-05	-0.00012	9e-05	0.0001	0.00012	0	5
22570	-2e-05	2e-05	-4e-05	-0.00012	9e-05	0.0001	0.00012	0	5
22571	-2e-05	2e-05	-4e-05	-0.00012	9e-05	0.0001	0.00012	0	5
22572	-2e-05	2e-05	-4e-05	-0.00012	9e-05	0.0001	0.00012	0	5
22573	-2e-05	2e-05	-4e-05	-0.00012	9e-05	0.0001	0.00012	0	5
22574	-2e-05	2e-05	-4e-05	-0.00012	9e-05	0.0001	0.00012	0	5
22575	-2e-05	2e-05	-4e-05	-0.00012	9e-05	0.0001	0.00012	0	5
22576	-2e-05	2e-05	-4e-05	-0.00012	9e-05	0.0001	0.00012	0	5
22577	-2e-05	2e-05	-4e-05	-0.00012	9e-05	0.0001	0.00012	0	5
22578	4e-05	0	-5e-05	-0.00054	-0.00016	5e-05	0	9e-05	5
22579	4e-05	0	-5e-05	-0.00054	-0.00016	5e-05	0	9e-05	5
22580	4e-05	0	-5e-05	-0.00054	-0.00016	5e-05	0	9e-05	5
22581	4e-05	0	-5e-05	-0.00054	-0.00016	5e-05	0	9e-05	5
22582	4e-05	0	-5e-05	-0.00054	-0.00016	5e-05	0	9e-05	5
22583	1e-05	0	2e-05	-9e-05	-5e-05	7e-05	-2e-05	-2e-05	5
22584	1e-05	0	2e-05	-9e-05	-5e-05	7e-05	-2e-05	-2e-05	5
22585	1e-05	0	2e-05	-9e-05	-5e-05	7e-05	-2e-05	-2e-05	5
22586	1e-05	0	2e-05	-9e-05	-5e-05	7e-05	-2e-05	-2e-05	5
22588	1e-05	0	2e-05	-9e-05	-5e-05	7e-05	-2e-05	-2e-05	5
22589	1e-05	0	2e-05	-9e-05	-5e-05	7e-05	-2e-05	-2e-05	5
22590	1e-05	0	2e-05	-9e-05	-5e-05	7e-05	-2e-05	-2e-05	5
22591	1e-05	0	2e-05	-9e-05	-5e-05	7e-05	-2e-05	-2e-05	5
22592	1e-05	0	2e-05	-9e-05	-5e-05	7e-05	-2e-05	-2e-05	5
22593	-4e-05	-1e-05	-5e-05	-0.00032	-3e-05	6e-05	0	-4e-05	5
22594	-4e-05	-1e-05	-5e-05	-0.00032	-3e-05	6e-05	0	-4e-05	5
22595	-4e-05	-1e-05	-5e-05	-0.00032	-3e-05	6e-05	0	-4e-05	5
22596	-4e-05	-1e-05	-5e-05	-0.00032	-3e-05	6e-05	0	-4e-05	5
22597	-4e-05	-1e-05	-5e-05	-0.00032	-3e-05	6e-05	0	-4e-05	5
22598	-4e-05	-1e-05	-5e-05	-0.00032	-3e-05	6e-05	0	-4e-05	5
22599	-4e-05	-1e-05	-5e-05	-0.00032	-3e-05	6e-05	0	-4e-05	5
22600	-4e-05	-1e-05	-5e-05	-0.00032	-3e-05	6e-05	0	-4e-05	5
22601	-4e-05	-1e-05	-5e-05	-0.00032	-3e-05	6e-05	0	-4e-05	5
22602	-4e-05	-1e-05	-5e-05	-0.00032	-3e-05	6e-05	0	-4e-05	5
22603	-4e-05	-1e-05	-5e-05	-0.00032	-3e-05	6e-05	0	-4e-05	5
22604	-4e-05	-1e-05	-5e-05	-0.00032	-3e-05	6e-05	0	-4e-05	5
22605	-4e-05	-1e-05	-5e-05	-0.00032	-3e-05	6e-05	0	-4e-05	5
22606	-4e-05	-1e-05	-5e-05	-0.00032	-3e-05	6e-05	0	-4e-05	5
22607	-4e-05	-1e-05	-5e-05	-0.00032	-3e-05	6e-05	0	-4e-05	5
22608	-4e-05	-1e-05	-5e-05	-0.00032	-3e-05	6e-05	0	-4e-05	5
22609	-4e-05	-1e-05	-5e-05	-0.00032	-3e-05	6e-05	0	-4e-05	5
22610	-4e-05	-1e-05	-5e-05	-0.00032	-3e-05	6e-05	0	-4e-05	5
22611	-4e-05	-1e-05	-5e-05	-0.00032	-3e-05	6e-05	0	-4e-05	5
22613	-4e-05	-1e-05	-5e-05	-0.00032	-3e-05	6e-05	0	-4e-05	5
22614	-4e-05	-1e-05	-5e-05	-0.00032	-3e-05	6e-05	0	-4e-05	5
22615	5e-05	0.0001	5e-05	2e-05	0.00039	8e-05	7e-05	0	5
22616	5e-05	0.0001	5e-05	2e-05	0.00039	8e-05	7e-05	0	5
22617	5e-05	0.0001	5e-05	2e-05	0.00039	8e-05	7e-05	0	5
22618	5e-05	0.0001	5e-05	2e-05	0.00039	8e-05	7e-05	0	5
22619	5e-05	0.0001	5e-05	2e-05	0.00039	8e-05	7e-05	0	5
22620	-4e-05	-0.00014	-0.00011	-0.00015	-0.00024	-0.00025	-0.0001	-3e-05	5
22621	-4e-05	-0.00014	-0.00011	-0.00015	-0.00024	-0.00025	-0.0001	-3e-05	5
22622	-4e-05	-0.00014	-0.00011	-0.00015	-0.00024	-0.00025	-0.0001	-3e-05	5
22623	-4e-05	-0.00014	-0.00011	-0.00015	-0.00024	-0.00025	-0.0001	-3e-05	5
22624	-4e-05	-0.00014	-0.00011	-0.00015	-0.00024	-0.00025	-0.0001	-3e-05	5
22625	-4e-05	-0.00014	-0.00011	-0.00015	-0.00024	-0.00025	-0.0001	-3e-05	5
22626	-4e-05	-0.00014	-0.00011	-0.00015	-0.00024	-0.00025	-0.0001	-3e-05	5
22627	-4e-05	-0.00014	-0.00011	-0.00015	-0.00024	-0.00025	-0.0001	-3e-05	5
22628	6e-05	-1e-05	2e-05	-5e-05	-5e-05	2e-05	-4e-05	1e-05	5
22629	6e-05	-1e-05	2e-05	-5e-05	-5e-05	2e-05	-4e-05	1e-05	5
22630	6e-05	-1e-05	2e-05	-5e-05	-5e-05	2e-05	-4e-05	1e-05	5
22631	6e-05	-1e-05	2e-05	-5e-05	-5e-05	2e-05	-4e-05	1e-05	5
22632	6e-05	-1e-05	2e-05	-5e-05	-5e-05	2e-05	-4e-05	1e-05	5
22633	6e-05	-1e-05	2e-05	-5e-05	-5e-05	2e-05	-4e-05	1e-05	5
22634	6e-05	-1e-05	2e-05	-5e-05	-5e-05	2e-05	-4e-05	1e-05	5
22635	6e-05	-1e-05	2e-05	-5e-05	-5e-05	2e-05	-4e-05	1e-05	5
22636	6e-05	-1e-05	2e-05	-5e-05	-5e-05	2e-05	-4e-05	1e-05	5
22638	0.00016	4e-05	-3e-05	0.00022	-1e-05	1e-05	3e-05	3e-05	5
22639	0.00016	4e-05	-3e-05	0.00022	-1e-05	1e-05	3e-05	3e-05	5
22640	0.00016	4e-05	-3e-05	0.00022	-1e-05	1e-05	3e-05	3e-05	5
22641	0.00016	4e-05	-3e-05	0.00022	-1e-05	1e-05	3e-05	3e-05	5
22642	0.00016	4e-05	-3e-05	0.00022	-1e-05	1e-05	3e-05	3e-05	5
22643	0.00016	4e-05	-3e-05	0.00022	-1e-05	1e-05	3e-05	3e-05	5
22644	0.00016	4e-05	-3e-05	0.00022	-1e-05	1e-05	3e-05	3e-05	5
22645	0.00016	4e-05	-3e-05	0.00022	-1e-05	1e-05	3e-05	3e-05	5
22646	0.00016	4e-05	-3e-05	0.00022	-1e-05	1e-05	3e-05	3e-05	5
22647	0.00016	4e-05	-3e-05	0.00022	-1e-05	1e-05	3e-05	3e-05	5
22648	0.00016	4e-05	-3e-05	0.00022	-1e-05	1e-05	3e-05	3e-05	5
22649	0.00016	4e-05	-3e-05	0.00022	-1e-05	1e-05	3e-05	3e-05	5
22650	0.00016	4e-05	-3e-05	0.00022	-1e-05	1e-05	3e-05	3e-05	5
22651	0.00016	4e-05	-3e-05	0.00022	-1e-05	1e-05	3e-05	3e-05	5
22652	9e-05	4e-05	4e-05	0.00011	7e-05	0.00026	2e-05	-4e-05	5
22653	2e-05	4e-05	0.00013	0.0003	0.00034	0.00038	9e-05	3e-05	5
22654	2e-05	4e-05	0.00013	0.0003	0.00034	0.00038	9e-05	3e-05	5
22655	2e-05	4e-05	0.00013	0.0003	0.00034	0.00038	9e-05	3e-05	5
22656	2e-05	4e-05	0.00013	0.0003	0.00034	0.00038	9e-05	3e-05	5
22657	2e-05	4e-05	0.00013	0.0003	0.00034	0.00038	9e-05	3e-05	5
22658	2e-05	4e-05	0.00013	0.0003	0.00034	0.00038	9e-05	3e-05	5
22659	2e-05	4e-05	0.00013	0.0003	0.00034	0.00038	9e-05	3e-05	5
22660	2e-05	4e-05	0.00013	0.0003	0.00034	0.00038	9e-05	3e-05	5
22661	2e-05	4e-05	0.00013	0.0003	0.00034	0.00038	9e-05	3e-05	5
22662	2e-05	4e-05	0.00013	0.0003	0.00034	0.00038	9e-05	3e-05	5
22663	2e-05	4e-05	0.00013	0.0003	0.00034	0.00038	9e-05	3e-05	5
22664	2e-05	4e-05	0.00013	0.0003	0.00034	0.00038	9e-05	3e-05	5
22665	2e-05	4e-05	0.00013	0.0003	0.00034	0.00038	9e-05	3e-05	5
22666	2e-05	4e-05	0.00013	0.0003	0.00034	0.00038	9e-05	3e-05	5
22667	2e-05	4e-05	0.00013	0.0003	0.00034	0.00038	9e-05	3e-05	5
22668	2e-05	4e-05	0.00013	0.0003	0.00034	0.00038	9e-05	3e-05	5
22669	2e-05	4e-05	0.00013	0.0003	0.00034	0.00038	9e-05	3e-05	5
22670	2e-05	4e-05	0.00013	0.0003	0.00034	0.00038	9e-05	3e-05	5
22671	2e-05	4e-05	0.00013	0.0003	0.00034	0.00038	9e-05	3e-05	5
22672	2e-05	4e-05	0.00013	0.0003	0.00034	0.00038	9e-05	3e-05	5
22673	2e-05	4e-05	0.00013	0.0003	0.00034	0.00038	9e-05	3e-05	5
22674	-1e-05	1e-05	-3e-05	-0.0006	-0.00034	-0.0001	-7e-05	-2e-05	5
22675	-9e-05	-0.00013	-0.00028	0.00041	0.00037	0.0001	0	-7e-05	5
22676	-1e-05	-6e-05	-0.00013	0.0003	0.00019	0.00018	1e-05	-2e-05	5
22677	-1e-05	-6e-05	-0.00013	0.0003	0.00019	0.00018	1e-05	-2e-05	5
22678	-1e-05	-6e-05	-0.00013	0.0003	0.00019	0.00018	1e-05	-2e-05	5
22679	-1e-05	-6e-05	-0.00013	0.0003	0.00019	0.00018	1e-05	-2e-05	5
22680	-1e-05	-6e-05	-0.00013	0.0003	0.00019	0.00018	1e-05	-2e-05	5
22681	-1e-05	-6e-05	-0.00013	0.0003	0.00019	0.00018	1e-05	-2e-05	5
22682	-1e-05	-6e-05	-0.00013	0.0003	0.00019	0.00018	1e-05	-2e-05	5
22683	-1e-05	-6e-05	-0.00013	0.0003	0.00019	0.00018	1e-05	-2e-05	5
22684	-1e-05	-6e-05	-0.00013	0.0003	0.00019	0.00018	1e-05	-2e-05	5
22685	-1e-05	-6e-05	-0.00013	0.0003	0.00019	0.00018	1e-05	-2e-05	5
22686	-1e-05	-6e-05	-0.00013	0.0003	0.00019	0.00018	1e-05	-2e-05	5
22688	-1e-05	9e-05	0.00014	0.0002	0.00043	0.0005	0.00012	5e-05	5
22689	-1e-05	9e-05	0.00014	0.0002	0.00043	0.0005	0.00012	5e-05	5
22690	-1e-05	9e-05	0.00014	0.0002	0.00043	0.0005	0.00012	5e-05	5
22691	-1e-05	9e-05	0.00014	0.0002	0.00043	0.0005	0.00012	5e-05	5
22692	-1e-05	9e-05	0.00014	0.0002	0.00043	0.0005	0.00012	5e-05	5
22693	-1e-05	9e-05	0.00014	0.0002	0.00043	0.0005	0.00012	5e-05	5
22694	-1e-05	9e-05	0.00014	0.0002	0.00043	0.0005	0.00012	5e-05	5
22695	-1e-05	9e-05	0.00014	0.0002	0.00043	0.0005	0.00012	5e-05	5
22696	-1e-05	9e-05	0.00014	0.0002	0.00043	0.0005	0.00012	5e-05	5
22697	-5e-05	-1e-05	3e-05	-0.00077	-0.00048	-0.0001	0	1e-05	5
22698	-5e-05	-1e-05	3e-05	-0.00077	-0.00048	-0.0001	0	1e-05	5
22699	-5e-05	-1e-05	3e-05	-0.00077	-0.00048	-0.0001	0	1e-05	5
22700	-5e-05	-1e-05	3e-05	-0.00077	-0.00048	-0.0001	0	1e-05	5
22701	-5e-05	-1e-05	3e-05	-0.00077	-0.00048	-0.0001	0	1e-05	5
22702	-5e-05	-1e-05	3e-05	-0.00077	-0.00048	-0.0001	0	1e-05	5
22703	-5e-05	-1e-05	3e-05	-0.00077	-0.00048	-0.0001	0	1e-05	5
22704	-5e-05	-1e-05	3e-05	-0.00077	-0.00048	-0.0001	0	1e-05	5
22705	-5e-05	-1e-05	3e-05	-0.00077	-0.00048	-0.0001	0	1e-05	5
22706	-5e-05	-1e-05	3e-05	-0.00077	-0.00048	-0.0001	0	1e-05	5
22707	-5e-05	-1e-05	3e-05	-0.00077	-0.00048	-0.0001	0	1e-05	5
22708	-5e-05	-1e-05	3e-05	-0.00077	-0.00048	-0.0001	0	1e-05	5
22709	-5e-05	-1e-05	3e-05	-0.00077	-0.00048	-0.0001	0	1e-05	5
22710	-5e-05	-1e-05	3e-05	-0.00077	-0.00048	-0.0001	0	1e-05	5
22711	-5e-05	-1e-05	3e-05	-0.00077	-0.00048	-0.0001	0	1e-05	5
22712	-7e-05	-0.00012	-0.00015	-1e-05	-5e-05	-0.00021	-7e-05	-4e-05	5
22713	-7e-05	-0.00012	-0.00015	-1e-05	-5e-05	-0.00021	-7e-05	-4e-05	5
22714	-7e-05	-0.00012	-0.00015	-1e-05	-5e-05	-0.00021	-7e-05	-4e-05	5
22715	-7e-05	-0.00012	-0.00015	-1e-05	-5e-05	-0.00021	-7e-05	-4e-05	5
22716	-7e-05	-0.00012	-0.00015	-1e-05	-5e-05	-0.00021	-7e-05	-4e-05	5
22717	-7e-05	-0.00012	-0.00015	-1e-05	-5e-05	-0.00021	-7e-05	-4e-05	5
22718	-0.00011	2e-05	0.00012	0.00035	0.00027	1e-05	-1e-05	-2e-05	5
22719	-0.00011	2e-05	0.00012	0.00035	0.00027	1e-05	-1e-05	-2e-05	5
22720	-0.00011	2e-05	0.00012	0.00035	0.00027	1e-05	-1e-05	-2e-05	5
22721	-0.00011	2e-05	0.00012	0.00035	0.00027	1e-05	-1e-05	-2e-05	5
22722	-0.00011	2e-05	0.00012	0.00035	0.00027	1e-05	-1e-05	-2e-05	5
22723	-0.00011	2e-05	0.00012	0.00035	0.00027	1e-05	-1e-05	-2e-05	5
22724	-0.00011	2e-05	0.00012	0.00035	0.00027	1e-05	-1e-05	-2e-05	5
22725	-0.00011	2e-05	0.00012	0.00035	0.00027	1e-05	-1e-05	-2e-05	5
22726	-0.00011	2e-05	0.00012	0.00035	0.00027	1e-05	-1e-05	-2e-05	5
22727	-0.00011	2e-05	0.00012	0.00035	0.00027	1e-05	-1e-05	-2e-05	5
22728	-0.00011	2e-05	0.00012	0.00035	0.00027	1e-05	-1e-05	-2e-05	5
22729	-0.00011	2e-05	0.00012	0.00035	0.00027	1e-05	-1e-05	-2e-05	5
22730	-0.00011	2e-05	0.00012	0.00035	0.00027	1e-05	-1e-05	-2e-05	5
22731	-0.00011	2e-05	0.00012	0.00035	0.00027	1e-05	-1e-05	-2e-05	5
22732	-0.00011	2e-05	0.00012	0.00035	0.00027	1e-05	-1e-05	-2e-05	5
22733	-0.00011	2e-05	0.00012	0.00035	0.00027	1e-05	-1e-05	-2e-05	5
22734	1e-05	0	0.00012	1e-05	1e-05	0.00017	3e-05	-1e-05	5
22735	1e-05	0	0.00012	1e-05	1e-05	0.00017	3e-05	-1e-05	5
22736	-7e-05	-2e-05	-1e-05	0.00016	0.0002	1e-05	-2e-05	-3e-05	5
22738	-7e-05	-2e-05	-1e-05	0.00016	0.0002	1e-05	-2e-05	-3e-05	5
22739	-7e-05	-2e-05	-1e-05	0.00016	0.0002	1e-05	-2e-05	-3e-05	5
22740	-7e-05	-2e-05	-1e-05	0.00016	0.0002	1e-05	-2e-05	-3e-05	5
22741	-7e-05	-2e-05	-1e-05	0.00016	0.0002	1e-05	-2e-05	-3e-05	5
22742	-7e-05	-2e-05	-1e-05	0.00016	0.0002	1e-05	-2e-05	-3e-05	5
22743	-7e-05	-2e-05	-1e-05	0.00016	0.0002	1e-05	-2e-05	-3e-05	5
22744	-7e-05	-2e-05	-1e-05	0.00016	0.0002	1e-05	-2e-05	-3e-05	5
22745	-7e-05	-2e-05	-1e-05	0.00016	0.0002	1e-05	-2e-05	-3e-05	5
22746	-7e-05	-2e-05	-1e-05	0.00016	0.0002	1e-05	-2e-05	-3e-05	5
22747	-7e-05	-2e-05	-1e-05	0.00016	0.0002	1e-05	-2e-05	-3e-05	5
22748	-7e-05	-2e-05	-1e-05	0.00016	0.0002	1e-05	-2e-05	-3e-05	5
22749	-7e-05	-2e-05	-1e-05	0.00016	0.0002	1e-05	-2e-05	-3e-05	5
22750	-7e-05	-2e-05	-1e-05	0.00016	0.0002	1e-05	-2e-05	-3e-05	5
22751	-7e-05	-2e-05	-1e-05	0.00016	0.0002	1e-05	-2e-05	-3e-05	5
22752	-7e-05	-2e-05	-1e-05	0.00016	0.0002	1e-05	-2e-05	-3e-05	5
22753	-7e-05	-2e-05	-1e-05	0.00016	0.0002	1e-05	-2e-05	-3e-05	5
22754	-7e-05	-2e-05	-1e-05	0.00016	0.0002	1e-05	-2e-05	-3e-05	5
22755	-7e-05	-2e-05	-1e-05	0.00016	0.0002	1e-05	-2e-05	-3e-05	5
22756	-7e-05	-2e-05	-1e-05	0.00016	0.0002	1e-05	-2e-05	-3e-05	5
22757	-7e-05	3e-05	-6e-05	-0.00016	-4e-05	-0.00013	2e-05	-1e-05	5
22758	8e-05	-2e-05	-9e-05	-0.00031	-0.00034	-0.00015	-5e-05	0	5
22759	8e-05	-2e-05	-9e-05	-0.00031	-0.00034	-0.00015	-5e-05	0	5
22760	8e-05	-2e-05	-9e-05	-0.00031	-0.00034	-0.00015	-5e-05	0	5
22761	8e-05	-2e-05	-9e-05	-0.00031	-0.00034	-0.00015	-5e-05	0	5
22762	8e-05	-2e-05	-9e-05	-0.00031	-0.00034	-0.00015	-5e-05	0	5
22763	8e-05	-2e-05	-9e-05	-0.00031	-0.00034	-0.00015	-5e-05	0	5
22764	8e-05	-2e-05	-9e-05	-0.00031	-0.00034	-0.00015	-5e-05	0	5
22765	8e-05	-2e-05	-9e-05	-0.00031	-0.00034	-0.00015	-5e-05	0	5
22766	8e-05	-2e-05	-9e-05	-0.00031	-0.00034	-0.00015	-5e-05	0	5
22767	8e-05	-2e-05	-9e-05	-0.00031	-0.00034	-0.00015	-5e-05	0	5
22768	8e-05	-2e-05	-9e-05	-0.00031	-0.00034	-0.00015	-5e-05	0	5
22769	8e-05	-2e-05	-9e-05	-0.00031	-0.00034	-0.00015	-5e-05	0	5
22770	8e-05	-2e-05	-9e-05	-0.00031	-0.00034	-0.00015	-5e-05	0	5
22771	8e-05	-2e-05	-9e-05	-0.00031	-0.00034	-0.00015	-5e-05	0	5
22772	-5e-05	-0.00011	-0.0001	0.00018	-0.0001	-0.00025	-9e-05	-5e-05	5
