21607	0.00096	0.00014	-9e-05	-9e-05	-0.00032	-9e-05	8e-05	-0.00048	6
21608	0.00096	0.00014	-9e-05	-9e-05	-0.00032	-9e-05	8e-05	-0.00048	6
21609	0.00096	0.00014	-9e-05	-9e-05	-0.00032	-9e-05	8e-05	-0.00048	6
21610	0.00096	0.00014	-9e-05	-9e-05	-0.00032	-9e-05	8e-05	-0.00048	6
21611	0.00096	0.00014	-9e-05	-9e-05	-0.00032	-9e-05	8e-05	-0.00048	6
21612	0.00096	0.00014	-9e-05	-9e-05	-0.00032	-9e-05	8e-05	-0.00048	6
21613	0.00096	0.00014	-9e-05	-9e-05	-0.00032	-9e-05	8e-05	-0.00048	6
21614	0.00096	0.00014	-9e-05	-9e-05	-0.00032	-9e-05	8e-05	-0.00048	6
21615	0.00096	0.00014	-9e-05	-9e-05	-0.00032	-9e-05	8e-05	-0.00048	6
21616	0.00096	0.00014	-9e-05	-9e-05	-0.00032	-9e-05	8e-05	-0.00048	6
21617	0.00096	0.00014	-9e-05	-9e-05	-0.00032	-9e-05	8e-05	-0.00048	6
21618	0.00096	0.00014	-9e-05	-9e-05	-0.00032	-9e-05	8e-05	-0.00048	6
21619	0.00096	0.00014	-9e-05	-9e-05	-0.00032	-9e-05	8e-05	-0.00048	6
21620	-0.0003	7e-05	1e-05	0.00024	0.0007	0.00027	0.00032	0.0006	6
21621	-0.0003	7e-05	1e-05	0.00024	0.0007	0.00027	0.00032	0.0006	6
21622	-0.0003	7e-05	1e-05	0.00024	0.0007	0.00027	0.00032	0.0006	6
21623	-0.0003	7e-05	1e-05	0.00024	0.0007	0.00027	0.00032	0.0006	6
21624	-0.0003	7e-05	1e-05	0.00024	0.0007	0.00027	0.00032	0.0006	6
21625	-0.0003	7e-05	1e-05	0.00024	0.0007	0.00027	0.00032	0.0006	6
21626	-0.0003	7e-05	1e-05	0.00024	0.0007	0.00027	0.00032	0.0006	6
21627	-0.0003	7e-05	1e-05	0.00024	0.0007	0.00027	0.00032	0.0006	6
21628	0.00073	-0.00014	-2e-05	-0.00034	-0.00053	-0.00016	-0.00065	0.00025	6
21629	0.00073	-0.00014	-2e-05	-0.00034	-0.00053	-0.00016	-0.00065	0.00025	6
21630	0.00073	-0.00014	-2e-05	-0.00034	-0.00053	-0.00016	-0.00065	0.00025	6
21631	0.00073	-0.00014	-2e-05	-0.00034	-0.00053	-0.00016	-0.00065	0.00025	6
21632	0.00073	-0.00014	-2e-05	-0.00034	-0.00053	-0.00016	-0.00065	0.00025	6
21633	0.00073	-0.00014	-2e-05	-0.00034	-0.00053	-0.00016	-0.00065	0.00025	6
21634	0.00073	-0.00014	-2e-05	-0.00034	-0.00053	-0.00016	-0.00065	0.00025	6
21635	0.00073	-0.00014	-2e-05	-0.00034	-0.00053	-0.00016	-0.00065	0.00025	6
21636	0.00073	-0.00014	-2e-05	-0.00034	-0.00053	-0.00016	-0.00065	0.00025	6
21638	0.00073	-0.00014	-2e-05	-0.00034	-0.00053	-0.00016	-0.00065	0.00025	6
21640	0.00073	-0.00014	-2e-05	-0.00034	-0.00053	-0.00016	-0.00065	0.00025	6
21641	0.00073	-0.00014	-2e-05	-0.00034	-0.00053	-0.00016	-0.00065	0.00025	6
21642	0.00073	-0.00014	-2e-05	-0.00034	-0.00053	-0.00016	-0.00065	0.00025	6
21643	0.00039	-3e-05	-9e-05	-0.00027	-3e-05	-1e-05	-0.00077	-0.0006	6
21644	-0.00012	0.00048	0.00022	0.00037	0.0005	0.0005	0.00048	0.00057	6
21645	-0.00012	0.00048	0.00022	0.00037	0.0005	0.0005	0.00048	0.00057	6
21646	-0.00012	0.00048	0.00022	0.00037	0.0005	0.0005	0.00048	0.00057	6
21647	-0.00012	0.00048	0.00022	0.00037	0.0005	0.0005	0.00048	0.00057	6
21648	-0.00012	0.00048	0.00022	0.00037	0.0005	0.0005	0.00048	0.00057	6
21650	-0.00012	0.00048	0.00022	0.00037	0.0005	0.0005	0.00048	0.00057	6
21651	-0.00012	0.00048	0.00022	0.00037	0.0005	0.0005	0.00048	0.00057	6
21652	-0.00012	0.00048	0.00022	0.00037	0.0005	0.0005	0.00048	0.00057	6
21653	-0.00012	0.00048	0.00022	0.00037	0.0005	0.0005	0.00048	0.00057	6
21654	-0.00012	0.00048	0.00022	0.00037	0.0005	0.0005	0.00048	0.00057	6
21655	-0.00012	0.00048	0.00022	0.00037	0.0005	0.0005	0.00048	0.00057	6
21656	-0.00012	0.00048	0.00022	0.00037	0.0005	0.0005	0.00048	0.00057	6
21657	-0.00012	0.00048	0.00022	0.00037	0.0005	0.0005	0.00048	0.00057	6
21658	-0.00012	0.00048	0.00022	0.00037	0.0005	0.0005	0.00048	0.00057	6
21659	-0.00012	0.00048	0.00022	0.00037	0.0005	0.0005	0.00048	0.00057	6
21660	-0.00012	0.00048	0.00022	0.00037	0.0005	0.0005	0.00048	0.00057	6
21661	-0.00012	0.00048	0.00022	0.00037	0.0005	0.0005	0.00048	0.00057	6
21662	-0.00012	0.00048	0.00022	0.00037	0.0005	0.0005	0.00048	0.00057	6
21663	-0.00012	0.00048	0.00022	0.00037	0.0005	0.0005	0.00048	0.00057	6
21664	-0.00012	0.00048	0.00022	0.00037	0.0005	0.0005	0.00048	0.00057	6
21665	0.00028	0.00012	-3e-05	-0.00028	-0.00052	-4e-05	0.00036	0.00053	6
21666	-0.00061	-0.00038	-0.00022	-0.00047	-0.00014	-0.0004	-0.00036	-0.00062	6
21667	-0.00061	-0.00038	-0.00022	-0.00047	-0.00014	-0.0004	-0.00036	-0.00062	6
21668	-0.00061	-0.00038	-0.00022	-0.00047	-0.00014	-0.0004	-0.00036	-0.00062	6
21669	-0.00061	-0.00038	-0.00022	-0.00047	-0.00014	-0.0004	-0.00036	-0.00062	6
21670	-0.00061	-0.00038	-0.00022	-0.00047	-0.00014	-0.0004	-0.00036	-0.00062	6
21671	-0.00061	-0.00038	-0.00022	-0.00047	-0.00014	-0.0004	-0.00036	-0.00062	6
21672	-0.00061	-0.00038	-0.00022	-0.00047	-0.00014	-0.0004	-0.00036	-0.00062	6
21673	-0.00061	-0.00038	-0.00022	-0.00047	-0.00014	-0.0004	-0.00036	-0.00062	6
21674	-0.00061	-0.00038	-0.00022	-0.00047	-0.00014	-0.0004	-0.00036	-0.00062	6
21675	-0.00061	-0.00038	-0.00022	-0.00047	-0.00014	-0.0004	-0.00036	-0.00062	6
21676	-0.00061	-0.00038	-0.00022	-0.00047	-0.00014	-0.0004	-0.00036	-0.00062	6
21677	-0.00061	-0.00038	-0.00022	-0.00047	-0.00014	-0.0004	-0.00036	-0.00062	6
21678	-0.00061	-0.00038	-0.00022	-0.00047	-0.00014	-0.0004	-0.00036	-0.00062	6
21679	-0.00061	-0.00038	-0.00022	-0.00047	-0.00014	-0.0004	-0.00036	-0.00062	6
21680	0.00059	8e-05	-3e-05	-0.00016	-0.00112	-0.00073	0.00096	0.00031	6
21681	0.00059	8e-05	-3e-05	-0.00016	-0.00112	-0.00073	0.00096	0.00031	6
21682	0.00059	8e-05	-3e-05	-0.00016	-0.00112	-0.00073	0.00096	0.00031	6
21683	0.00059	8e-05	-3e-05	-0.00016	-0.00112	-0.00073	0.00096	0.00031	6
21684	0.00059	8e-05	-3e-05	-0.00016	-0.00112	-0.00073	0.00096	0.00031	6
21685	0.00059	8e-05	-3e-05	-0.00016	-0.00112	-0.00073	0.00096	0.00031	6
21686	0.00059	8e-05	-3e-05	-0.00016	-0.00112	-0.00073	0.00096	0.00031	6
21689	0.00059	8e-05	-3e-05	-0.00016	-0.00112	-0.00073	0.00096	0.00031	6
21690	-0.00024	-0.00017	6e-05	0.00024	0.00049	-7e-05	-0.00014	-0.00039	6
21691	-0.00024	-0.00017	6e-05	0.00024	0.00049	-7e-05	-0.00014	-0.00039	6
21692	-0.00024	-0.00017	6e-05	0.00024	0.00049	-7e-05	-0.00014	-0.00039	6
21693	-0.00024	-0.00017	6e-05	0.00024	0.00049	-7e-05	-0.00014	-0.00039	6
21694	-0.00024	-0.00017	6e-05	0.00024	0.00049	-7e-05	-0.00014	-0.00039	6
21695	-0.00024	-0.00017	6e-05	0.00024	0.00049	-7e-05	-0.00014	-0.00039	6
21696	-0.00024	-0.00017	6e-05	0.00024	0.00049	-7e-05	-0.00014	-0.00039	6
21697	-0.00024	-0.00017	6e-05	0.00024	0.00049	-7e-05	-0.00014	-0.00039	6
21698	-0.00024	-0.00017	6e-05	0.00024	0.00049	-7e-05	-0.00014	-0.00039	6
21699	-0.00024	-0.00017	6e-05	0.00024	0.00049	-7e-05	-0.00014	-0.00039	6
21700	-0.00024	-0.00017	6e-05	0.00024	0.00049	-7e-05	-0.00014	-0.00039	6
21701	-0.00024	-0.00017	6e-05	0.00024	0.00049	-7e-05	-0.00014	-0.00039	6
21702	-0.00024	-0.00017	6e-05	0.00024	0.00049	-7e-05	-0.00014	-0.00039	6
21703	-0.00071	-0.00012	-0.0001	-5e-05	-6e-05	-0.00012	-0.00021	-0.00024	6
21704	-0.00027	-0.00021	0	-7e-05	0.00063	0.00018	0.00022	0.00086	6
21705	-0.00027	-0.00021	0	-7e-05	0.00063	0.00018	0.00022	0.00086	6
21706	-0.00027	-0.00021	0	-7e-05	0.00063	0.00018	0.00022	0.00086	6
21707	-0.00027	-0.00021	0	-7e-05	0.00063	0.00018	0.00022	0.00086	6
21708	-0.00027	-0.00021	0	-7e-05	0.00063	0.00018	0.00022	0.00086	6
21709	-0.00027	-0.00021	0	-7e-05	0.00063	0.00018	0.00022	0.00086	6
21710	-0.00027	-0.00021	0	-7e-05	0.00063	0.00018	0.00022	0.00086	6
21711	-0.00027	-0.00021	0	-7e-05	0.00063	0.00018	0.00022	0.00086	6
21712	-0.00027	-0.00021	0	-7e-05	0.00063	0.00018	0.00022	0.00086	6
21713	-0.00027	-0.00021	0	-7e-05	0.00063	0.00018	0.00022	0.00086	6
21714	-0.00027	-0.00021	0	-7e-05	0.00063	0.00018	0.00022	0.00086	6
21715	-0.00027	-0.00021	0	-7e-05	0.00063	0.00018	0.00022	0.00086	6
21716	-0.00027	-0.00021	0	-7e-05	0.00063	0.00018	0.00022	0.00086	6
21717	-0.00027	-0.00021	0	-7e-05	0.00063	0.00018	0.00022	0.00086	6
21718	-0.00027	-0.00021	0	-7e-05	0.00063	0.00018	0.00022	0.00086	6
21719	-0.00027	-0.00021	0	-7e-05	0.00063	0.00018	0.00022	0.00086	6
21720	-0.00027	-0.00021	0	-7e-05	0.00063	0.00018	0.00022	0.00086	6
21721	-0.00027	-0.00021	0	-7e-05	0.00063	0.00018	0.00022	0.00086	6
21722	-0.00027	-0.00021	0	-7e-05	0.00063	0.00018	0.00022	0.00086	6
21723	-0.00027	-0.00021	0	-7e-05	0.00063	0.00018	0.00022	0.00086	6
21724	-0.00027	-0.00021	0	-7e-05	0.00063	0.00018	0.00022	0.00086	6
21725	-0.00011	4e-05	-0.00012	-0.00011	-0.00069	-0.00023	-0.00059	-0.00105	6
21726	-0.00086	0	-8e-05	9e-05	-0.00058	-0.00013	-2e-05	0.0004	6
21727	-0.00086	0	-8e-05	9e-05	-0.00058	-0.00013	-2e-05	0.0004	6
21728	-0.00086	0	-8e-05	9e-05	-0.00058	-0.00013	-2e-05	0.0004	6
21729	-0.00086	0	-8e-05	9e-05	-0.00058	-0.00013	-2e-05	0.0004	6
21730	-0.00086	0	-8e-05	9e-05	-0.00058	-0.00013	-2e-05	0.0004	6
21731	-0.00086	0	-8e-05	9e-05	-0.00058	-0.00013	-2e-05	0.0004	6
21732	-0.00086	0	-8e-05	9e-05	-0.00058	-0.00013	-2e-05	0.0004	6
21733	-0.00086	0	-8e-05	9e-05	-0.00058	-0.00013	-2e-05	0.0004	6
21734	-0.00086	0	-8e-05	9e-05	-0.00058	-0.00013	-2e-05	0.0004	6
21735	-0.00086	0	-8e-05	9e-05	-0.00058	-0.00013	-2e-05	0.0004	6
21736	-0.00086	0	-8e-05	9e-05	-0.00058	-0.00013	-2e-05	0.0004	6
21739	-0.00086	0	-8e-05	9e-05	-0.00058	-0.00013	-2e-05	0.0004	6
21740	-0.00086	0	-8e-05	9e-05	-0.00058	-0.00013	-2e-05	0.0004	6
21741	-0.00086	0	-8e-05	9e-05	-0.00058	-0.00013	-2e-05	0.0004	6
21742	-0.00086	0	-8e-05	9e-05	-0.00058	-0.00013	-2e-05	0.0004	6
21743	-0.00086	0	-8e-05	9e-05	-0.00058	-0.00013	-2e-05	0.0004	6
21744	-0.00086	0	-8e-05	9e-05	-0.00058	-0.00013	-2e-05	0.0004	6
21745	-0.00086	0	-8e-05	9e-05	-0.00058	-0.00013	-2e-05	0.0004	6
21746	-0.00086	0	-8e-05	9e-05	-0.00058	-0.00013	-2e-05	0.0004	6
21747	-0.00086	0	-8e-05	9e-05	-0.00058	-0.00013	-2e-05	0.0004	6
21748	-0.00086	0	-8e-05	9e-05	-0.00058	-0.00013	-2e-05	0.0004	6
21749	0.00025	5e-05	2e-05	-0.00023	-0.00024	0.00022	3e-05	-3e-05	6
21750	-0.0002	-0.00033	0	-8e-05	-0.00043	-0.00029	-9e-05	0.00022	6
21751	-0.0002	-0.00033	0	-8e-05	-0.00043	-0.00029	-9e-05	0.00022	6
21752	-0.0002	-0.00033	0	-8e-05	-0.00043	-0.00029	-9e-05	0.00022	6
21753	-0.0002	-0.00033	0	-8e-05	-0.00043	-0.00029	-9e-05	0.00022	6
21754	-0.0002	-0.00033	0	-8e-05	-0.00043	-0.00029	-9e-05	0.00022	6
21755	-0.0002	-0.00033	0	-8e-05	-0.00043	-0.00029	-9e-05	0.00022	6
21756	-0.0002	-0.00033	0	-8e-05	-0.00043	-0.00029	-9e-05	0.00022	6
21757	-0.0002	-0.00033	0	-8e-05	-0.00043	-0.00029	-9e-05	0.00022	6
21758	-0.0002	-0.00033	0	-8e-05	-0.00043	-0.00029	-9e-05	0.00022	6
21759	-0.0002	-0.00033	0	-8e-05	-0.00043	-0.00029	-9e-05	0.00022	6
21760	-0.0002	-0.00033	0	-8e-05	-0.00043	-0.00029	-9e-05	0.00022	6
21761	-0.0002	-0.00033	0	-8e-05	-0.00043	-0.00029	-9e-05	0.00022	6
21762	-0.0002	-0.00033	0	-8e-05	-0.00043	-0.00029	-9e-05	0.00022	6
21763	0.0004	0.00013	0.00011	1e-05	-0.00044	-0.00067	-0.00046	5e-05	6
21764	-0.00019	-2e-05	8e-05	8e-05	0.00026	2e-05	0.00015	-0.00114	6
21765	-0.00019	-2e-05	8e-05	8e-05	0.00026	2e-05	0.00015	-0.00114	6
21766	-0.00019	-2e-05	8e-05	8e-05	0.00026	2e-05	0.00015	-0.00114	6
21767	-0.00019	-2e-05	8e-05	8e-05	0.00026	2e-05	0.00015	-0.00114	6
21768	-0.00019	-2e-05	8e-05	8e-05	0.00026	2e-05	0.00015	-0.00114	6
21769	-0.00019	-2e-05	8e-05	8e-05	0.00026	2e-05	0.00015	-0.00114	6
21770	-0.00019	-2e-05	8e-05	8e-05	0.00026	2e-05	0.00015	-0.00114	6
21771	-0.00019	-2e-05	8e-05	8e-05	0.00026	2e-05	0.00015	-0.00114	6
21772	-0.00019	-2e-05	8e-05	8e-05	0.00026	2e-05	0.00015	-0.00114	6
21773	-0.00019	-2e-05	8e-05	8e-05	0.00026	2e-05	0.00015	-0.00114	6
21774	-0.00019	-2e-05	8e-05	8e-05	0.00026	2e-05	0.00015	-0.00114	6
21775	-0.00019	-2e-05	8e-05	8e-05	0.00026	2e-05	0.00015	-0.00114	6
21776	-0.00019	-2e-05	8e-05	8e-05	0.00026	2e-05	0.00015	-0.00114	6
21777	-0.00019	-2e-05	8e-05	8e-05	0.00026	2e-05	0.00015	-0.00114	6
21778	-0.00019	-2e-05	8e-05	8e-05	0.00026	2e-05	0.00015	-0.00114	6
21779	-0.00019	-2e-05	8e-05	8e-05	0.00026	2e-05	0.00015	-0.00114	6
21780	-0.00019	-2e-05	8e-05	8e-05	0.00026	2e-05	0.00015	-0.00114	6
21781	-0.00019	-2e-05	8e-05	8e-05	0.00026	2e-05	0.00015	-0.00114	6
21783	-0.00019	-2e-05	8e-05	8e-05	0.00026	2e-05	0.00015	-0.00114	6
21784	-0.00019	-2e-05	8e-05	8e-05	0.00026	2e-05	0.00015	-0.00114	6
21785	-0.00046	-4e-05	-9e-05	-9e-05	-0.00015	-9e-05	0.00073	0.00052	6
21786	0.00038	-7e-05	-5e-05	5e-05	-0.00025	-1e-05	9e-05	0.00039	6
21789	-0.00021	-7e-05	-8e-05	-0.00034	-0.00038	-0.00051	0.00012	-0.00017	6
21790	-0.00021	-7e-05	-8e-05	-0.00034	-0.00038	-0.00051	0.00012	-0.00017	6
21791	-0.00021	-7e-05	-8e-05	-0.00034	-0.00038	-0.00051	0.00012	-0.00017	6
21793	-0.00021	-7e-05	-8e-05	-0.00034	-0.00038	-0.00051	0.00012	-0.00017	6
21794	-0.00021	-7e-05	-8e-05	-0.00034	-0.00038	-0.00051	0.00012	-0.00017	6
21795	-0.00021	-7e-05	-8e-05	-0.00034	-0.00038	-0.00051	0.00012	-0.00017	6
21796	-0.00021	-7e-05	-8e-05	-0.00034	-0.00038	-0.00051	0.00012	-0.00017	6
21797	-0.00021	-7e-05	-8e-05	-0.00034	-0.00038	-0.00051	0.00012	-0.00017	6
21798	-0.00021	-7e-05	-8e-05	-0.00034	-0.00038	-0.00051	0.00012	-0.00017	6
21799	-0.00021	-7e-05	-8e-05	-0.00034	-0.00038	-0.00051	0.00012	-0.00017	6
21800	-0.00021	-7e-05	-8e-05	-0.00034	-0.00038	-0.00051	0.00012	-0.00017	6
21801	-0.00021	-7e-05	-8e-05	-0.00034	-0.00038	-0.00051	0.00012	-0.00017	6
21802	-0.00021	-7e-05	-8e-05	-0.00034	-0.00038	-0.00051	0.00012	-0.00017	6
21803	-0.00021	-7e-05	-8e-05	-0.00034	-0.00038	-0.00051	0.00012	-0.00017	6
21804	-0.00021	-7e-05	-8e-05	-0.00034	-0.00038	-0.00051	0.00012	-0.00017	6
21805	-0.00021	-7e-05	-8e-05	-0.00034	-0.00038	-0.00051	0.00012	-0.00017	6
21806	-0.00021	-7e-05	-8e-05	-0.00034	-0.00038	-0.00051	0.00012	-0.00017	6
21807	-0.00021	-7e-05	-8e-05	-0.00034	-0.00038	-0.00051	0.00012	-0.00017	6
21808	-0.00021	-7e-05	-8e-05	-0.00034	-0.00038	-0.00051	0.00012	-0.00017	6
21809	0.0004	0.00012	-2e-05	-8e-05	-0.00042	0.00028	0.00014	-0.00084	6
21810	0.00041	0.00027	1e-05	0.00019	0.00045	0.00039	0.00025	0.00015	6
21811	0.00041	0.00027	1e-05	0.00019	0.00045	0.00039	0.00025	0.00015	6
21812	0.00041	0.00027	1e-05	0.00019	0.00045	0.00039	0.00025	0.00015	6
21813	0.00041	0.00027	1e-05	0.00019	0.00045	0.00039	0.00025	0.00015	6
21814	0.00041	0.00027	1e-05	0.00019	0.00045	0.00039	0.00025	0.00015	6
21815	0.00041	0.00027	1e-05	0.00019	0.00045	0.00039	0.00025	0.00015	6
21816	0.00041	0.00027	1e-05	0.00019	0.00045	0.00039	0.00025	0.00015	6
21817	0.00041	0.00027	1e-05	0.00019	0.00045	0.00039	0.00025	0.00015	6
21818	0.00041	0.00027	1e-05	0.00019	0.00045	0.00039	0.00025	0.00015	6
21819	0.00041	0.00027	1e-05	0.00019	0.00045	0.00039	0.00025	0.00015	6
21820	0.00041	0.00027	1e-05	0.00019	0.00045	0.00039	0.00025	0.00015	6
21821	0.00041	0.00027	1e-05	0.00019	0.00045	0.00039	0.00025	0.00015	6
21822	0.00041	0.00027	1e-05	0.00019	0.00045	0.00039	0.00025	0.00015	6
21823	0.00013	0	1e-05	-8e-05	-4e-05	-0.00048	-0.00041	0.00026	6
21824	0.00028	-0.00027	-4e-05	0.00025	0.0004	0.00019	-0.00026	-3e-05	6
21825	0.00028	-0.00027	-4e-05	0.00025	0.0004	0.00019	-0.00026	-3e-05	6
21826	0.00028	-0.00027	-4e-05	0.00025	0.0004	0.00019	-0.00026	-3e-05	6
21827	0.00028	-0.00027	-4e-05	0.00025	0.0004	0.00019	-0.00026	-3e-05	6
21828	0.00028	-0.00027	-4e-05	0.00025	0.0004	0.00019	-0.00026	-3e-05	6
21829	0.00028	-0.00027	-4e-05	0.00025	0.0004	0.00019	-0.00026	-3e-05	6
21830	0.00028	-0.00027	-4e-05	0.00025	0.0004	0.00019	-0.00026	-3e-05	6
21832	0.00028	-0.00027	-4e-05	0.00025	0.0004	0.00019	-0.00026	-3e-05	6
21833	0.00028	-0.00027	-4e-05	0.00025	0.0004	0.00019	-0.00026	-3e-05	6
21834	0.00028	-0.00027	-4e-05	0.00025	0.0004	0.00019	-0.00026	-3e-05	6
21835	0.00028	-0.00027	-4e-05	0.00025	0.0004	0.00019	-0.00026	-3e-05	6
21836	0.00028	-0.00027	-4e-05	0.00025	0.0004	0.00019	-0.00026	-3e-05	6
21838	0.00028	-0.00027	-4e-05	0.00025	0.0004	0.00019	-0.00026	-3e-05	6
21840	0.00028	-0.00027	-4e-05	0.00025	0.0004	0.00019	-0.00026	-3e-05	6
21841	0.00028	-0.00027	-4e-05	0.00025	0.0004	0.00019	-0.00026	-3e-05	6
21842	0.00028	-0.00027	-4e-05	0.00025	0.0004	0.00019	-0.00026	-3e-05	6
21843	0.00028	-0.00027	-4e-05	0.00025	0.0004	0.00019	-0.00026	-3e-05	6
21844	0.00028	-0.00027	-4e-05	0.00025	0.0004	0.00019	-0.00026	-3e-05	6
21845	0.00052	0.00028	7e-05	0.00017	0.00046	0.00033	0.0004	0.0005	6
21846	0.00038	6e-05	-4e-05	-2e-05	0.00064	0.00071	0.00023	0.00058	6
21847	0.00038	6e-05	-4e-05	-2e-05	0.00064	0.00071	0.00023	0.00058	6
21848	0.00038	6e-05	-4e-05	-2e-05	0.00064	0.00071	0.00023	0.00058	6
21849	0.00038	6e-05	-4e-05	-2e-05	0.00064	0.00071	0.00023	0.00058	6
21850	0.00038	6e-05	-4e-05	-2e-05	0.00064	0.00071	0.00023	0.00058	6
21851	0.00038	6e-05	-4e-05	-2e-05	0.00064	0.00071	0.00023	0.00058	6
21852	0.00038	6e-05	-4e-05	-2e-05	0.00064	0.00071	0.00023	0.00058	6
21853	0.00038	6e-05	-4e-05	-2e-05	0.00064	0.00071	0.00023	0.00058	6
21854	0.00038	6e-05	-4e-05	-2e-05	0.00064	0.00071	0.00023	0.00058	6
21855	0.00038	6e-05	-4e-05	-2e-05	0.00064	0.00071	0.00023	0.00058	6
21856	0.00038	6e-05	-4e-05	-2e-05	0.00064	0.00071	0.00023	0.00058	6
21857	0.00038	6e-05	-4e-05	-2e-05	0.00064	0.00071	0.00023	0.00058	6
21858	0.00038	6e-05	-4e-05	-2e-05	0.00064	0.00071	0.00023	0.00058	6
21859	0.00038	6e-05	-4e-05	-2e-05	0.00064	0.00071	0.00023	0.00058	6
21860	0.00038	6e-05	-4e-05	-2e-05	0.00064	0.00071	0.00023	0.00058	6
21861	0.00038	6e-05	-4e-05	-2e-05	0.00064	0.00071	0.00023	0.00058	6
21862	0.00038	6e-05	-4e-05	-2e-05	0.00064	0.00071	0.00023	0.00058	6
21863	0.00038	6e-05	-4e-05	-2e-05	0.00064	0.00071	0.00023	0.00058	6
21864	0.00038	6e-05	-4e-05	-2e-05	0.00064	0.00071	0.00023	0.00058	6
21865	0.00038	6e-05	-4e-05	-2e-05	0.00064	0.00071	0.00023	0.00058	6
21866	0.00038	6e-05	-4e-05	-2e-05	0.00064	0.00071	0.00023	0.00058	6
21867	0.00038	6e-05	-4e-05	-2e-05	0.00064	0.00071	0.00023	0.00058	6
21868	0.00038	6e-05	-4e-05	-2e-05	0.00064	0.00071	0.00023	0.00058	6
21869	0.00074	0.00032	-6e-05	-0.00019	-0.00072	4e-05	5e-05	0.00032	6
21870	0.00074	0.00032	-6e-05	-0.00019	-0.00072	4e-05	5e-05	0.00032	6
21872	0.00074	0.00032	-6e-05	-0.00019	-0.00072	4e-05	5e-05	0.00032	6
21873	0.00074	0.00032	-6e-05	-0.00019	-0.00072	4e-05	5e-05	0.00032	6
21874	0.00074	0.00032	-6e-05	-0.00019	-0.00072	4e-05	5e-05	0.00032	6
21875	0.00074	0.00032	-6e-05	-0.00019	-0.00072	4e-05	5e-05	0.00032	6
21876	0.00074	0.00032	-6e-05	-0.00019	-0.00072	4e-05	5e-05	0.00032	6
21877	0.00074	0.00032	-6e-05	-0.00019	-0.00072	4e-05	5e-05	0.00032	6
21878	0.00074	0.00032	-6e-05	-0.00019	-0.00072	4e-05	5e-05	0.00032	6
21879	0.00074	0.00032	-6e-05	-0.00019	-0.00072	4e-05	5e-05	0.00032	6
21880	0.00074	0.00032	-6e-05	-0.00019	-0.00072	4e-05	5e-05	0.00032	6
21881	0.00074	0.00032	-6e-05	-0.00019	-0.00072	4e-05	5e-05	0.00032	6
21882	0.00074	0.00032	-6e-05	-0.00019	-0.00072	4e-05	5e-05	0.00032	6
21883	-0.00057	-2e-05	2e-05	-0.0001	0.0001	-8e-05	8e-05	-0.00031	6
21884	-0.0005	0.00019	1e-05	0	4e-05	-0.00014	0.00032	-0.00045	6
21885	-0.0005	0.00019	1e-05	0	4e-05	-0.00014	0.00032	-0.00045	6
21886	-0.0005	0.00019	1e-05	0	4e-05	-0.00014	0.00032	-0.00045	6
21889	-0.0005	0.00019	1e-05	0	4e-05	-0.00014	0.00032	-0.00045	6
21890	-0.0005	0.00019	1e-05	0	4e-05	-0.00014	0.00032	-0.00045	6
21891	-0.0005	0.00019	1e-05	0	4e-05	-0.00014	0.00032	-0.00045	6
21892	-0.0005	0.00019	1e-05	0	4e-05	-0.00014	0.00032	-0.00045	6
21893	-0.0005	0.00019	1e-05	0	4e-05	-0.00014	0.00032	-0.00045	6
21894	-0.0005	0.00019	1e-05	0	4e-05	-0.00014	0.00032	-0.00045	6
21895	-0.0005	0.00019	1e-05	0	4e-05	-0.00014	0.00032	-0.00045	6
21896	-0.0005	0.00019	1e-05	0	4e-05	-0.00014	0.00032	-0.00045	6
21897	-0.0005	0.00019	1e-05	0	4e-05	-0.00014	0.00032	-0.00045	6
21898	-0.0005	0.00019	1e-05	0	4e-05	-0.00014	0.00032	-0.00045	6
21899	-0.0005	0.00019	1e-05	0	4e-05	-0.00014	0.00032	-0.00045	6
21900	-0.0005	0.00019	1e-05	0	4e-05	-0.00014	0.00032	-0.00045	6
21901	-0.0005	0.00019	1e-05	0	4e-05	-0.00014	0.00032	-0.00045	6
21902	-0.0005	0.00019	1e-05	0	4e-05	-0.00014	0.00032	-0.00045	6
21903	-0.0005	0.00019	1e-05	0	4e-05	-0.00014	0.00032	-0.00045	6
21904	-0.0005	0.00019	1e-05	0	4e-05	-0.00014	0.00032	-0.00045	6
21905	0.0006	9e-05	-5e-05	0	-0.00025	-0.00054	-0.0001	0.00023	6
21906	0.00011	1e-05	-2e-05	-0.00018	-0.00013	-0.0005	-9e-05	0	6
21907	0.00011	1e-05	-2e-05	-0.00018	-0.00013	-0.0005	-9e-05	0	6
21908	0.00011	1e-05	-2e-05	-0.00018	-0.00013	-0.0005	-9e-05	0	6
21909	0.00011	1e-05	-2e-05	-0.00018	-0.00013	-0.0005	-9e-05	0	6
21910	0.00011	1e-05	-2e-05	-0.00018	-0.00013	-0.0005	-9e-05	0	6
21911	0.00011	1e-05	-2e-05	-0.00018	-0.00013	-0.0005	-9e-05	0	6
21912	0.00011	1e-05	-2e-05	-0.00018	-0.00013	-0.0005	-9e-05	0	6
21913	0.00011	1e-05	-2e-05	-0.00018	-0.00013	-0.0005	-9e-05	0	6
21914	0.00011	1e-05	-2e-05	-0.00018	-0.00013	-0.0005	-9e-05	0	6
21915	0.00011	1e-05	-2e-05	-0.00018	-0.00013	-0.0005	-9e-05	0	6
21916	0.00011	1e-05	-2e-05	-0.00018	-0.00013	-0.0005	-9e-05	0	6
21917	0.00011	1e-05	-2e-05	-0.00018	-0.00013	-0.0005	-9e-05	0	6
21918	0.00011	1e-05	-2e-05	-0.00018	-0.00013	-0.0005	-9e-05	0	6
21919	0.00011	1e-05	-2e-05	-0.00018	-0.00013	-0.0005	-9e-05	0	6
21920	0.00011	1e-05	-2e-05	-0.00018	-0.00013	-0.0005	-9e-05	0	6
21921	0.00011	1e-05	-2e-05	-0.00018	-0.00013	-0.0005	-9e-05	0	6
21922	0.00011	1e-05	-2e-05	-0.00018	-0.00013	-0.0005	-9e-05	0	6
21923	0.00011	1e-05	-2e-05	-0.00018	-0.00013	-0.0005	-9e-05	0	6
21924	0.00011	1e-05	-2e-05	-0.00018	-0.00013	-0.0005	-9e-05	0	6
21925	0.00011	1e-05	-2e-05	-0.00018	-0.00013	-0.0005	-9e-05	0	6
21926	0.00011	1e-05	-2e-05	-0.00018	-0.00013	-0.0005	-9e-05	0	6
21927	0.00011	1e-05	-2e-05	-0.00018	-0.00013	-0.0005	-9e-05	0	6
21928	0.00011	1e-05	-2e-05	-0.00018	-0.00013	-0.0005	-9e-05	0	6
21929	-0.00065	-5e-05	-8e-05	5e-05	0.00027	-0.00023	-0.00021	-0.00026	6
21930	0.00019	-0.00032	-6e-05	9e-05	0.00053	6e-05	0.00011	0.0002	6
21932	0.00019	-0.00032	-6e-05	9e-05	0.00053	6e-05	0.00011	0.0002	6
21933	0.00019	-0.00032	-6e-05	9e-05	0.00053	6e-05	0.00011	0.0002	6
21934	0.00019	-0.00032	-6e-05	9e-05	0.00053	6e-05	0.00011	0.0002	6
21935	0.00019	-0.00032	-6e-05	9e-05	0.00053	6e-05	0.00011	0.0002	6
21936	0.00019	-0.00032	-6e-05	9e-05	0.00053	6e-05	0.00011	0.0002	6
21938	0.00019	-0.00032	-6e-05	9e-05	0.00053	6e-05	0.00011	0.0002	6
21939	0.00019	-0.00032	-6e-05	9e-05	0.00053	6e-05	0.00011	0.0002	6
21940	0.00019	-0.00032	-6e-05	9e-05	0.00053	6e-05	0.00011	0.0002	6
21941	0.00019	-0.00032	-6e-05	9e-05	0.00053	6e-05	0.00011	0.0002	6
21942	0.00019	-0.00032	-6e-05	9e-05	0.00053	6e-05	0.00011	0.0002	6
21943	-0.00054	0.00024	2e-05	0.00012	0.00028	-0.00017	1e-05	-0.00031	6
21944	-0.00069	-0.00021	-8e-05	1e-05	-0.00053	-0.00035	-6e-05	-0.00033	6
21945	-0.00069	-0.00021	-8e-05	1e-05	-0.00053	-0.00035	-6e-05	-0.00033	6
21946	-0.00069	-0.00021	-8e-05	1e-05	-0.00053	-0.00035	-6e-05	-0.00033	6
21947	-0.00069	-0.00021	-8e-05	1e-05	-0.00053	-0.00035	-6e-05	-0.00033	6
21948	-0.00069	-0.00021	-8e-05	1e-05	-0.00053	-0.00035	-6e-05	-0.00033	6
21949	-0.00069	-0.00021	-8e-05	1e-05	-0.00053	-0.00035	-6e-05	-0.00033	6
21950	-0.00069	-0.00021	-8e-05	1e-05	-0.00053	-0.00035	-6e-05	-0.00033	6
21951	-0.00069	-0.00021	-8e-05	1e-05	-0.00053	-0.00035	-6e-05	-0.00033	6
21952	-0.00069	-0.00021	-8e-05	1e-05	-0.00053	-0.00035	-6e-05	-0.00033	6
21953	-0.00069	-0.00021	-8e-05	1e-05	-0.00053	-0.00035	-6e-05	-0.00033	6
21954	-0.00069	-0.00021	-8e-05	1e-05	-0.00053	-0.00035	-6e-05	-0.00033	6
21955	-0.00069	-0.00021	-8e-05	1e-05	-0.00053	-0.00035	-6e-05	-0.00033	6
21956	-0.00069	-0.00021	-8e-05	1e-05	-0.00053	-0.00035	-6e-05	-0.00033	6
21957	-0.00069	-0.00021	-8e-05	1e-05	-0.00053	-0.00035	-6e-05	-0.00033	6
21958	-0.00069	-0.00021	-8e-05	1e-05	-0.00053	-0.00035	-6e-05	-0.00033	6
21959	-0.00069	-0.00021	-8e-05	1e-05	-0.00053	-0.00035	-6e-05	-0.00033	6
21960	-0.00069	-0.00021	-8e-05	1e-05	-0.00053	-0.00035	-6e-05	-0.00033	6
21961	-0.00069	-0.00021	-8e-05	1e-05	-0.00053	-0.00035	-6e-05	-0.00033	6
21962	-0.00069	-0.00021	-8e-05	1e-05	-0.00053	-0.00035	-6e-05	-0.00033	6
21963	-0.00069	-0.00021	-8e-05	1e-05	-0.00053	-0.00035	-6e-05	-0.00033	6
21964	-0.00069	-0.00021	-8e-05	1e-05	-0.00053	-0.00035	-6e-05	-0.00033	6
21965	0.00038	-0.00032	-5e-05	-0.00027	-0.00026	0.00013	0.0005	0.00051	6
21966	-0.0001	0.0001	-6e-05	-8e-05	-0.00025	0.0002	-0.00031	-0.00036	6
21967	-0.0001	0.0001	-6e-05	-8e-05	-0.00025	0.0002	-0.00031	-0.00036	6
21968	-0.0001	0.0001	-6e-05	-8e-05	-0.00025	0.0002	-0.00031	-0.00036	6
21969	-0.0001	0.0001	-6e-05	-8e-05	-0.00025	0.0002	-0.00031	-0.00036	6
21970	-0.0001	0.0001	-6e-05	-8e-05	-0.00025	0.0002	-0.00031	-0.00036	6
21971	-0.0001	0.0001	-6e-05	-8e-05	-0.00025	0.0002	-0.00031	-0.00036	6
21972	-0.0001	0.0001	-6e-05	-8e-05	-0.00025	0.0002	-0.00031	-0.00036	6
21973	-0.0001	0.0001	-6e-05	-8e-05	-0.00025	0.0002	-0.00031	-0.00036	6
21974	-0.0001	0.0001	-6e-05	-8e-05	-0.00025	0.0002	-0.00031	-0.00036	6
21975	-0.0001	0.0001	-6e-05	-8e-05	-0.00025	0.0002	-0.00031	-0.00036	6
21976	-0.0001	0.0001	-6e-05	-8e-05	-0.00025	0.0002	-0.00031	-0.00036	6
21977	-0.0001	0.0001	-6e-05	-8e-05	-0.00025	0.0002	-0.00031	-0.00036	6
21978	-0.0001	0.0001	-6e-05	-8e-05	-0.00025	0.0002	-0.00031	-0.00036	6
21980	-0.0001	0.0001	-6e-05	-8e-05	-0.00025	0.0002	-0.00031	-0.00036	6
21981	-0.0001	0.0001	-6e-05	-8e-05	-0.00025	0.0002	-0.00031	-0.00036	6
21982	-0.0001	0.0001	-6e-05	-8e-05	-0.00025	0.0002	-0.00031	-0.00036	6
21983	-0.0001	0.0001	-6e-05	-8e-05	-0.00025	0.0002	-0.00031	-0.00036	6
21984	-0.0001	0.0001	-6e-05	-8e-05	-0.00025	0.0002	-0.00031	-0.00036	6
21985	-0.0001	0.0001	-6e-05	-8e-05	-0.00025	0.0002	-0.00031	-0.00036	6
21986	-0.0001	0.0001	-6e-05	-8e-05	-0.00025	0.0002	-0.00031	-0.00036	6
21989	-0.00038	-0.00013	3e-05	-0.00018	-0.00048	0.00022	1e-05	-0.00051	6
21990	-0.00013	0	5e-05	-3e-05	4e-05	0.00038	0.00011	-0.00011	6
21991	-0.00013	0	5e-05	-3e-05	4e-05	0.00038	0.00011	-0.00011	6
21992	-0.00013	0	5e-05	-3e-05	4e-05	0.00038	0.00011	-0.00011	6
21993	-0.00013	0	5e-05	-3e-05	4e-05	0.00038	0.00011	-0.00011	6
21994	-0.00013	0	5e-05	-3e-05	4e-05	0.00038	0.00011	-0.00011	6
21995	-0.00013	0	5e-05	-3e-05	4e-05	0.00038	0.00011	-0.00011	6
21996	-0.00013	0	5e-05	-3e-05	4e-05	0.00038	0.00011	-0.00011	6
21997	-0.00013	0	5e-05	-3e-05	4e-05	0.00038	0.00011	-0.00011	6
21998	-0.00013	0	5e-05	-3e-05	4e-05	0.00038	0.00011	-0.00011	6
21999	-0.00013	0	5e-05	-3e-05	4e-05	0.00038	0.00011	-0.00011	6
22000	-0.00013	0	5e-05	-3e-05	4e-05	0.00038	0.00011	-0.00011	6
22001	-0.00013	0	5e-05	-3e-05	4e-05	0.00038	0.00011	-0.00011	6
22002	-0.00013	0	5e-05	-3e-05	4e-05	0.00038	0.00011	-0.00011	6
22003	-0.00058	-6e-05	-5e-05	5e-05	-0.00014	-0.0002	0.0001	4e-05	6
22004	-0.0005	-0.00012	7e-05	-0.00016	-0.00015	0.00012	0.00019	1e-05	6
22005	-0.0005	-0.00012	7e-05	-0.00016	-0.00015	0.00012	0.00019	1e-05	6
22006	-0.0005	-0.00012	7e-05	-0.00016	-0.00015	0.00012	0.00019	1e-05	6
22007	-0.0005	-0.00012	7e-05	-0.00016	-0.00015	0.00012	0.00019	1e-05	6
22008	-0.0005	-0.00012	7e-05	-0.00016	-0.00015	0.00012	0.00019	1e-05	6
22010	-0.0005	-0.00012	7e-05	-0.00016	-0.00015	0.00012	0.00019	1e-05	6
22011	-0.0005	-0.00012	7e-05	-0.00016	-0.00015	0.00012	0.00019	1e-05	6
22012	-0.0005	-0.00012	7e-05	-0.00016	-0.00015	0.00012	0.00019	1e-05	6
22013	-0.0005	-0.00012	7e-05	-0.00016	-0.00015	0.00012	0.00019	1e-05	6
22014	-0.0005	-0.00012	7e-05	-0.00016	-0.00015	0.00012	0.00019	1e-05	6
22015	-0.0005	-0.00012	7e-05	-0.00016	-0.00015	0.00012	0.00019	1e-05	6
22016	-0.0005	-0.00012	7e-05	-0.00016	-0.00015	0.00012	0.00019	1e-05	6
22017	-0.0005	-0.00012	7e-05	-0.00016	-0.00015	0.00012	0.00019	1e-05	6
22018	-0.0005	-0.00012	7e-05	-0.00016	-0.00015	0.00012	0.00019	1e-05	6
22019	-0.0005	-0.00012	7e-05	-0.00016	-0.00015	0.00012	0.00019	1e-05	6
22020	-0.0005	-0.00012	7e-05	-0.00016	-0.00015	0.00012	0.00019	1e-05	6
22021	-0.0005	-0.00012	7e-05	-0.00016	-0.00015	0.00012	0.00019	1e-05	6
22022	-0.0005	-0.00012	7e-05	-0.00016	-0.00015	0.00012	0.00019	1e-05	6
22023	-0.0005	-0.00012	7e-05	-0.00016	-0.00015	0.00012	0.00019	1e-05	6
22024	-0.0005	-0.00012	7e-05	-0.00016	-0.00015	0.00012	0.00019	1e-05	6
22025	-0.0005	-0.00012	7e-05	-0.00016	-0.00015	0.00012	0.00019	1e-05	6
22027	0.00047	0.00013	4e-05	3e-05	-0.00034	-0.00016	0.00011	5e-05	6
22028	0.00047	0.00013	4e-05	3e-05	-0.00034	-0.00016	0.00011	5e-05	6
22029	0.00047	0.00013	4e-05	3e-05	-0.00034	-0.00016	0.00011	5e-05	6
22030	0.00047	0.00013	4e-05	3e-05	-0.00034	-0.00016	0.00011	5e-05	6
22031	0.00047	0.00013	4e-05	3e-05	-0.00034	-0.00016	0.00011	5e-05	6
22032	0.00047	0.00013	4e-05	3e-05	-0.00034	-0.00016	0.00011	5e-05	6
22033	0.00047	0.00013	4e-05	3e-05	-0.00034	-0.00016	0.00011	5e-05	6
22034	0.00047	0.00013	4e-05	3e-05	-0.00034	-0.00016	0.00011	5e-05	6
22035	0.00047	0.00013	4e-05	3e-05	-0.00034	-0.00016	0.00011	5e-05	6
22036	0.00047	0.00013	4e-05	3e-05	-0.00034	-0.00016	0.00011	5e-05	6
22038	0.00047	0.00013	4e-05	3e-05	-0.00034	-0.00016	0.00011	5e-05	6
22039	0.00047	0.00013	4e-05	3e-05	-0.00034	-0.00016	0.00011	5e-05	6
22040	0.00047	0.00013	4e-05	3e-05	-0.00034	-0.00016	0.00011	5e-05	6
22041	0.00047	0.00013	4e-05	3e-05	-0.00034	-0.00016	0.00011	5e-05	6
22042	0.00047	0.00013	4e-05	3e-05	-0.00034	-0.00016	0.00011	5e-05	6
22043	0.00047	0.00013	4e-05	3e-05	-0.00034	-0.00016	0.00011	5e-05	6
22044	0.00047	0.00013	4e-05	3e-05	-0.00034	-0.00016	0.00011	5e-05	6
22045	0.00047	0.00013	4e-05	3e-05	-0.00034	-0.00016	0.00011	5e-05	6
22046	0.00047	0.00013	4e-05	3e-05	-0.00034	-0.00016	0.00011	5e-05	6
22047	0.00047	0.00013	4e-05	3e-05	-0.00034	-0.00016	0.00011	5e-05	6
22048	0.00047	0.00013	4e-05	3e-05	-0.00034	-0.00016	0.00011	5e-05	6
22049	-0.00036	-9e-05	8e-05	-0.00019	-0.00064	-0.00015	-0.00025	-0.00017	6
22050	-0.00023	1e-05	-0.00013	-5e-05	0	-0.00035	-0.00022	-0.00032	6
22051	-0.00023	1e-05	-0.00013	-5e-05	0	-0.00035	-0.00022	-0.00032	6
22052	-0.00023	1e-05	-0.00013	-5e-05	0	-0.00035	-0.00022	-0.00032	6
22053	-0.00023	1e-05	-0.00013	-5e-05	0	-0.00035	-0.00022	-0.00032	6
22054	-0.00023	1e-05	-0.00013	-5e-05	0	-0.00035	-0.00022	-0.00032	6
22055	-0.00023	1e-05	-0.00013	-5e-05	0	-0.00035	-0.00022	-0.00032	6
22056	-0.00023	1e-05	-0.00013	-5e-05	0	-0.00035	-0.00022	-0.00032	6
22057	-0.00023	1e-05	-0.00013	-5e-05	0	-0.00035	-0.00022	-0.00032	6
22058	-0.00023	1e-05	-0.00013	-5e-05	0	-0.00035	-0.00022	-0.00032	6
22059	-0.00023	1e-05	-0.00013	-5e-05	0	-0.00035	-0.00022	-0.00032	6
22060	-0.00023	1e-05	-0.00013	-5e-05	0	-0.00035	-0.00022	-0.00032	6
22061	-0.00023	1e-05	-0.00013	-5e-05	0	-0.00035	-0.00022	-0.00032	6
22062	-0.00023	1e-05	-0.00013	-5e-05	0	-0.00035	-0.00022	-0.00032	6
22063	-0.00041	-9e-05	7e-05	0.00028	0.00037	-0.00035	7e-05	0.00019	6
22064	0.00107	-1e-05	-0.00012	-0.00035	-0.00065	3e-05	0.00029	0.00088	6
22065	0.00107	-1e-05	-0.00012	-0.00035	-0.00065	3e-05	0.00029	0.00088	6
22066	0.00107	-1e-05	-0.00012	-0.00035	-0.00065	3e-05	0.00029	0.00088	6
22067	0.00107	-1e-05	-0.00012	-0.00035	-0.00065	3e-05	0.00029	0.00088	6
22068	0.00107	-1e-05	-0.00012	-0.00035	-0.00065	3e-05	0.00029	0.00088	6
22069	0.00107	-1e-05	-0.00012	-0.00035	-0.00065	3e-05	0.00029	0.00088	6
22070	0.00107	-1e-05	-0.00012	-0.00035	-0.00065	3e-05	0.00029	0.00088	6
22071	0.00107	-1e-05	-0.00012	-0.00035	-0.00065	3e-05	0.00029	0.00088	6
22072	0.00107	-1e-05	-0.00012	-0.00035	-0.00065	3e-05	0.00029	0.00088	6
22073	0.00107	-1e-05	-0.00012	-0.00035	-0.00065	3e-05	0.00029	0.00088	6
22074	0.00107	-1e-05	-0.00012	-0.00035	-0.00065	3e-05	0.00029	0.00088	6
22075	0.00107	-1e-05	-0.00012	-0.00035	-0.00065	3e-05	0.00029	0.00088	6
22076	0.00107	-1e-05	-0.00012	-0.00035	-0.00065	3e-05	0.00029	0.00088	6
22077	0.00107	-1e-05	-0.00012	-0.00035	-0.00065	3e-05	0.00029	0.00088	6
22078	0.00107	-1e-05	-0.00012	-0.00035	-0.00065	3e-05	0.00029	0.00088	6
22080	0.00107	-1e-05	-0.00012	-0.00035	-0.00065	3e-05	0.00029	0.00088	6
22081	0.00107	-1e-05	-0.00012	-0.00035	-0.00065	3e-05	0.00029	0.00088	6
22082	0.00107	-1e-05	-0.00012	-0.00035	-0.00065	3e-05	0.00029	0.00088	6
22083	0.00107	-1e-05	-0.00012	-0.00035	-0.00065	3e-05	0.00029	0.00088	6
22084	0.00107	-1e-05	-0.00012	-0.00035	-0.00065	3e-05	0.00029	0.00088	6
22085	0.00067	0.00058	8e-05	0.00027	0.00038	8e-05	0.00041	0.00026	6
22086	-0.00052	-0.00042	-8e-05	-0.00031	-0.00096	-0.00045	-1e-05	-0.00042	6
22088	0.0005	2e-05	0	0.00022	0.00068	0.00029	0.00012	0.0006	6
22089	0.0005	2e-05	0	0.00022	0.00068	0.00029	0.00012	0.0006	6
22090	0.0005	2e-05	0	0.00022	0.00068	0.00029	0.00012	0.0006	6
22091	0.0005	2e-05	0	0.00022	0.00068	0.00029	0.00012	0.0006	6
22093	0.0005	2e-05	0	0.00022	0.00068	0.00029	0.00012	0.0006	6
22094	0.0005	2e-05	0	0.00022	0.00068	0.00029	0.00012	0.0006	6
22095	0.0005	2e-05	0	0.00022	0.00068	0.00029	0.00012	0.0006	6
22096	0.0005	2e-05	0	0.00022	0.00068	0.00029	0.00012	0.0006	6
22097	0.0005	2e-05	0	0.00022	0.00068	0.00029	0.00012	0.0006	6
22098	0.0005	2e-05	0	0.00022	0.00068	0.00029	0.00012	0.0006	6
22099	0.0005	2e-05	0	0.00022	0.00068	0.00029	0.00012	0.0006	6
22100	0.0005	2e-05	0	0.00022	0.00068	0.00029	0.00012	0.0006	6
22101	0.0005	2e-05	0	0.00022	0.00068	0.00029	0.00012	0.0006	6
22102	0.0005	2e-05	0	0.00022	0.00068	0.00029	0.00012	0.0006	6
22103	0.0005	2e-05	0	0.00022	0.00068	0.00029	0.00012	0.0006	6
22104	0.0005	2e-05	0	0.00022	0.00068	0.00029	0.00012	0.0006	6
22105	0.0005	2e-05	0	0.00022	0.00068	0.00029	0.00012	0.0006	6
22106	0.0005	2e-05	0	0.00022	0.00068	0.00029	0.00012	0.0006	6
22107	0.0005	2e-05	0	0.00022	0.00068	0.00029	0.00012	0.0006	6
22108	0.0005	2e-05	0	0.00022	0.00068	0.00029	0.00012	0.0006	6
22109	-0.0002	0	-6e-05	-0.00016	4e-05	-0.00039	-0.00084	-0.00107	6
22110	0.00026	0.0002	0.00022	0.00021	0.00019	7e-05	0.00026	0.00021	6
22111	0.00026	0.0002	0.00022	0.00021	0.00019	7e-05	0.00026	0.00021	6
22112	-0.00017	-7e-05	-3e-05	-3e-05	0.00078	0.00039	-0.00013	-0.00021	6
22113	-0.00017	-7e-05	-3e-05	-3e-05	0.00078	0.00039	-0.00013	-0.00021	6
22114	-0.00017	-7e-05	-3e-05	-3e-05	0.00078	0.00039	-0.00013	-0.00021	6
22115	-0.00017	-7e-05	-3e-05	-3e-05	0.00078	0.00039	-0.00013	-0.00021	6
22116	-0.00017	-7e-05	-3e-05	-3e-05	0.00078	0.00039	-0.00013	-0.00021	6
22117	-0.00017	-7e-05	-3e-05	-3e-05	0.00078	0.00039	-0.00013	-0.00021	6
22118	-0.00017	-7e-05	-3e-05	-3e-05	0.00078	0.00039	-0.00013	-0.00021	6
22119	-0.00017	-7e-05	-3e-05	-3e-05	0.00078	0.00039	-0.00013	-0.00021	6
22120	-0.00017	-7e-05	-3e-05	-3e-05	0.00078	0.00039	-0.00013	-0.00021	6
22121	-0.00017	-7e-05	-3e-05	-3e-05	0.00078	0.00039	-0.00013	-0.00021	6
22122	-0.00017	-7e-05	-3e-05	-3e-05	0.00078	0.00039	-0.00013	-0.00021	6
22123	-0.00054	-0.00026	-0.00014	-0.00022	-0.00036	6e-05	0.00018	-0.00013	6
22124	-0.00086	0.00011	9e-05	0.00015	-0.00049	-0.00033	-0.00078	-0.00102	6
22125	-0.00086	0.00011	9e-05	0.00015	-0.00049	-0.00033	-0.00078	-0.00102	6
22126	-0.00086	0.00011	9e-05	0.00015	-0.00049	-0.00033	-0.00078	-0.00102	6
22127	-0.00086	0.00011	9e-05	0.00015	-0.00049	-0.00033	-0.00078	-0.00102	6
22128	-0.00086	0.00011	9e-05	0.00015	-0.00049	-0.00033	-0.00078	-0.00102	6
22129	-0.00086	0.00011	9e-05	0.00015	-0.00049	-0.00033	-0.00078	-0.00102	6
22130	-0.00086	0.00011	9e-05	0.00015	-0.00049	-0.00033	-0.00078	-0.00102	6
22131	-0.00086	0.00011	9e-05	0.00015	-0.00049	-0.00033	-0.00078	-0.00102	6
22132	-0.00086	0.00011	9e-05	0.00015	-0.00049	-0.00033	-0.00078	-0.00102	6
22133	-0.00086	0.00011	9e-05	0.00015	-0.00049	-0.00033	-0.00078	-0.00102	6
22134	-0.00086	0.00011	9e-05	0.00015	-0.00049	-0.00033	-0.00078	-0.00102	6
22135	-0.00086	0.00011	9e-05	0.00015	-0.00049	-0.00033	-0.00078	-0.00102	6
22136	-0.00086	0.00011	9e-05	0.00015	-0.00049	-0.00033	-0.00078	-0.00102	6
22138	-0.00086	0.00011	9e-05	0.00015	-0.00049	-0.00033	-0.00078	-0.00102	6
22139	-0.00086	0.00011	9e-05	0.00015	-0.00049	-0.00033	-0.00078	-0.00102	6
22140	-0.00086	0.00011	9e-05	0.00015	-0.00049	-0.00033	-0.00078	-0.00102	6
22141	-0.00086	0.00011	9e-05	0.00015	-0.00049	-0.00033	-0.00078	-0.00102	6
22142	-0.00086	0.00011	9e-05	0.00015	-0.00049	-0.00033	-0.00078	-0.00102	6
22143	-0.00086	0.00011	9e-05	0.00015	-0.00049	-0.00033	-0.00078	-0.00102	6
22144	-0.00086	0.00011	9e-05	0.00015	-0.00049	-0.00033	-0.00078	-0.00102	6
22145	-0.00026	-0.00019	-4e-05	-0.00025	-0.0003	-0.00056	-0.0001	-3e-05	6
22146	6e-05	2e-05	-9e-05	-0.00012	0	0.00022	8e-05	0.00013	6
22147	6e-05	2e-05	-9e-05	-0.00012	0	0.00022	8e-05	0.00013	6
22148	6e-05	2e-05	-9e-05	-0.00012	0	0.00022	8e-05	0.00013	6
22149	6e-05	2e-05	-9e-05	-0.00012	0	0.00022	8e-05	0.00013	6
22150	6e-05	2e-05	-9e-05	-0.00012	0	0.00022	8e-05	0.00013	6
22151	6e-05	2e-05	-9e-05	-0.00012	0	0.00022	8e-05	0.00013	6
22152	6e-05	2e-05	-9e-05	-0.00012	0	0.00022	8e-05	0.00013	6
22153	6e-05	2e-05	-9e-05	-0.00012	0	0.00022	8e-05	0.00013	6
22154	6e-05	2e-05	-9e-05	-0.00012	0	0.00022	8e-05	0.00013	6
22155	6e-05	2e-05	-9e-05	-0.00012	0	0.00022	8e-05	0.00013	6
22156	6e-05	2e-05	-9e-05	-0.00012	0	0.00022	8e-05	0.00013	6
22157	6e-05	2e-05	-9e-05	-0.00012	0	0.00022	8e-05	0.00013	6
22158	6e-05	2e-05	-9e-05	-0.00012	0	0.00022	8e-05	0.00013	6
22159	6e-05	2e-05	-9e-05	-0.00012	0	0.00022	8e-05	0.00013	6
22160	6e-05	2e-05	-9e-05	-0.00012	0	0.00022	8e-05	0.00013	6
22161	6e-05	2e-05	-9e-05	-0.00012	0	0.00022	8e-05	0.00013	6
22162	6e-05	2e-05	-9e-05	-0.00012	0	0.00022	8e-05	0.00013	6
22163	6e-05	2e-05	-9e-05	-0.00012	0	0.00022	8e-05	0.00013	6
22164	6e-05	2e-05	-9e-05	-0.00012	0	0.00022	8e-05	0.00013	6
22165	6e-05	2e-05	-9e-05	-0.00012	0	0.00022	8e-05	0.00013	6
22166	6e-05	2e-05	-9e-05	-0.00012	0	0.00022	8e-05	0.00013	6
22167	6e-05	2e-05	-9e-05	-0.00012	0	0.00022	8e-05	0.00013	6
22168	6e-05	2e-05	-9e-05	-0.00012	0	0.00022	8e-05	0.00013	6
22169	-0.00067	-4e-05	8e-05	-0.00018	0.0002	3e-05	7e-05	0.00022	6
22170	0.0001	-3e-05	1e-05	-5e-05	0	-0.00019	-0.00025	-0.00015	6
22171	0.0001	-3e-05	1e-05	-5e-05	0	-0.00019	-0.00025	-0.00015	6
22172	0.0001	-3e-05	1e-05	-5e-05	0	-0.00019	-0.00025	-0.00015	6
22173	0.0001	-3e-05	1e-05	-5e-05	0	-0.00019	-0.00025	-0.00015	6
22174	0.0001	-3e-05	1e-05	-5e-05	0	-0.00019	-0.00025	-0.00015	6
22175	0.0001	-3e-05	1e-05	-5e-05	0	-0.00019	-0.00025	-0.00015	6
22176	0.0001	-3e-05	1e-05	-5e-05	0	-0.00019	-0.00025	-0.00015	6
22177	0.0001	-3e-05	1e-05	-5e-05	0	-0.00019	-0.00025	-0.00015	6
22178	0.0001	-3e-05	1e-05	-5e-05	0	-0.00019	-0.00025	-0.00015	6
22179	0.0001	-3e-05	1e-05	-5e-05	0	-0.00019	-0.00025	-0.00015	6
22180	0.0001	-3e-05	1e-05	-5e-05	0	-0.00019	-0.00025	-0.00015	6
22181	0.0001	-3e-05	1e-05	-5e-05	0	-0.00019	-0.00025	-0.00015	6
22182	0.0001	-3e-05	1e-05	-5e-05	0	-0.00019	-0.00025	-0.00015	6
22183	0.00067	-0.00015	-1e-05	6e-05	0.00032	-0.0001	0.00031	0.0003	6
22184	-0.00061	-7e-05	-4e-05	-6e-05	-5e-05	-0.00014	0.00012	0.00022	6
22185	-0.00061	-7e-05	-4e-05	-6e-05	-5e-05	-0.00014	0.00012	0.00022	6
22186	-0.00061	-7e-05	-4e-05	-6e-05	-5e-05	-0.00014	0.00012	0.00022	6
22188	-0.00061	-7e-05	-4e-05	-6e-05	-5e-05	-0.00014	0.00012	0.00022	6
22189	-0.00061	-7e-05	-4e-05	-6e-05	-5e-05	-0.00014	0.00012	0.00022	6
22190	-0.00061	-7e-05	-4e-05	-6e-05	-5e-05	-0.00014	0.00012	0.00022	6
22191	-0.00061	-7e-05	-4e-05	-6e-05	-5e-05	-0.00014	0.00012	0.00022	6
22192	-0.00061	-7e-05	-4e-05	-6e-05	-5e-05	-0.00014	0.00012	0.00022	6
22193	-0.00061	-7e-05	-4e-05	-6e-05	-5e-05	-0.00014	0.00012	0.00022	6
22194	-0.00061	-7e-05	-4e-05	-6e-05	-5e-05	-0.00014	0.00012	0.00022	6
22195	-0.00061	-7e-05	-4e-05	-6e-05	-5e-05	-0.00014	0.00012	0.00022	6
22196	-0.00061	-7e-05	-4e-05	-6e-05	-5e-05	-0.00014	0.00012	0.00022	6
22197	-0.00061	-7e-05	-4e-05	-6e-05	-5e-05	-0.00014	0.00012	0.00022	6
22198	-0.00061	-7e-05	-4e-05	-6e-05	-5e-05	-0.00014	0.00012	0.00022	6
22199	-0.00061	-7e-05	-4e-05	-6e-05	-5e-05	-0.00014	0.00012	0.00022	6
22200	-0.00061	-7e-05	-4e-05	-6e-05	-5e-05	-0.00014	0.00012	0.00022	6
22201	-0.00061	-7e-05	-4e-05	-6e-05	-5e-05	-0.00014	0.00012	0.00022	6
22202	-0.00061	-7e-05	-4e-05	-6e-05	-5e-05	-0.00014	0.00012	0.00022	6
22203	-0.00061	-7e-05	-4e-05	-6e-05	-5e-05	-0.00014	0.00012	0.00022	6
22204	-0.00061	-7e-05	-4e-05	-6e-05	-5e-05	-0.00014	0.00012	0.00022	6
22205	-0.00021	7e-05	0.00014	-0.00017	-0.00029	0.00035	0.00012	-0.00015	6
22206	0.00057	-6e-05	-5e-05	8e-05	-0.00016	-0.00019	-0.00014	-0.0002	6
22207	0.00057	-6e-05	-5e-05	8e-05	-0.00016	-0.00019	-0.00014	-0.0002	6
22208	0.00057	-6e-05	-5e-05	8e-05	-0.00016	-0.00019	-0.00014	-0.0002	6
22209	0.00057	-6e-05	-5e-05	8e-05	-0.00016	-0.00019	-0.00014	-0.0002	6
22210	0.00057	-6e-05	-5e-05	8e-05	-0.00016	-0.00019	-0.00014	-0.0002	6
22211	0.00057	-6e-05	-5e-05	8e-05	-0.00016	-0.00019	-0.00014	-0.0002	6
22212	0.00057	-6e-05	-5e-05	8e-05	-0.00016	-0.00019	-0.00014	-0.0002	6
22213	0.00057	-6e-05	-5e-05	8e-05	-0.00016	-0.00019	-0.00014	-0.0002	6
22214	0.00057	-6e-05	-5e-05	8e-05	-0.00016	-0.00019	-0.00014	-0.0002	6
22215	0.00057	-6e-05	-5e-05	8e-05	-0.00016	-0.00019	-0.00014	-0.0002	6
22216	0.00057	-6e-05	-5e-05	8e-05	-0.00016	-0.00019	-0.00014	-0.0002	6
22217	0.00057	-6e-05	-5e-05	8e-05	-0.00016	-0.00019	-0.00014	-0.0002	6
22218	0.00057	-6e-05	-5e-05	8e-05	-0.00016	-0.00019	-0.00014	-0.0002	6
22219	0.00057	-6e-05	-5e-05	8e-05	-0.00016	-0.00019	-0.00014	-0.0002	6
22220	0.00057	-6e-05	-5e-05	8e-05	-0.00016	-0.00019	-0.00014	-0.0002	6
22221	0.00057	-6e-05	-5e-05	8e-05	-0.00016	-0.00019	-0.00014	-0.0002	6
22222	0.00057	-6e-05	-5e-05	8e-05	-0.00016	-0.00019	-0.00014	-0.0002	6
22223	0.00057	-6e-05	-5e-05	8e-05	-0.00016	-0.00019	-0.00014	-0.0002	6
22224	0.00057	-6e-05	-5e-05	8e-05	-0.00016	-0.00019	-0.00014	-0.0002	6
22225	0.00057	-6e-05	-5e-05	8e-05	-0.00016	-0.00019	-0.00014	-0.0002	6
22226	0.00057	-6e-05	-5e-05	8e-05	-0.00016	-0.00019	-0.00014	-0.0002	6
22227	0.00057	-6e-05	-5e-05	8e-05	-0.00016	-0.00019	-0.00014	-0.0002	6
22228	0.00057	-6e-05	-5e-05	8e-05	-0.00016	-0.00019	-0.00014	-0.0002	6
22229	-0.00043	-0.00031	3e-05	0.00041	0.00098	3e-05	0.0002	-0.00021	6
22230	-0.00043	-0.00031	3e-05	0.00041	0.00098	3e-05	0.0002	-0.00021	6
22231	-0.00043	-0.00031	3e-05	0.00041	0.00098	3e-05	0.0002	-0.00021	6
22232	-0.00043	-0.00031	3e-05	0.00041	0.00098	3e-05	0.0002	-0.00021	6
22233	-0.00043	-0.00031	3e-05	0.00041	0.00098	3e-05	0.0002	-0.00021	6
22234	-0.00043	-0.00031	3e-05	0.00041	0.00098	3e-05	0.0002	-0.00021	6
22235	-0.00043	-0.00031	3e-05	0.00041	0.00098	3e-05	0.0002	-0.00021	6
22236	-0.00043	-0.00031	3e-05	0.00041	0.00098	3e-05	0.0002	-0.00021	6
22238	-0.00043	-0.00031	3e-05	0.00041	0.00098	3e-05	0.0002	-0.00021	6
22239	-0.00043	-0.00031	3e-05	0.00041	0.00098	3e-05	0.0002	-0.00021	6
22240	-0.00043	-0.00031	3e-05	0.00041	0.00098	3e-05	0.0002	-0.00021	6
22241	-0.00043	-0.00031	3e-05	0.00041	0.00098	3e-05	0.0002	-0.00021	6
22242	-0.00043	-0.00031	3e-05	0.00041	0.00098	3e-05	0.0002	-0.00021	6
22243	0.00069	2e-05	-4e-05	-0.00023	-7e-05	0.00028	-0.00017	0.00076	6
22244	0.00088	0.00024	0.00012	3e-05	-0.00015	1e-05	0.00013	0.0004	6
22245	0.00088	0.00024	0.00012	3e-05	-0.00015	1e-05	0.00013	0.0004	6
22246	0.00088	0.00024	0.00012	3e-05	-0.00015	1e-05	0.00013	0.0004	6
22247	0.00088	0.00024	0.00012	3e-05	-0.00015	1e-05	0.00013	0.0004	6
22248	0.00088	0.00024	0.00012	3e-05	-0.00015	1e-05	0.00013	0.0004	6
22249	0.00088	0.00024	0.00012	3e-05	-0.00015	1e-05	0.00013	0.0004	6
22250	0.00088	0.00024	0.00012	3e-05	-0.00015	1e-05	0.00013	0.0004	6
22251	0.00088	0.00024	0.00012	3e-05	-0.00015	1e-05	0.00013	0.0004	6
22252	0.00088	0.00024	0.00012	3e-05	-0.00015	1e-05	0.00013	0.0004	6
22253	0.00088	0.00024	0.00012	3e-05	-0.00015	1e-05	0.00013	0.0004	6
22254	0.00088	0.00024	0.00012	3e-05	-0.00015	1e-05	0.00013	0.0004	6
22255	0.00088	0.00024	0.00012	3e-05	-0.00015	1e-05	0.00013	0.0004	6
22256	0.00088	0.00024	0.00012	3e-05	-0.00015	1e-05	0.00013	0.0004	6
22257	0.00088	0.00024	0.00012	3e-05	-0.00015	1e-05	0.00013	0.0004	6
22258	0.00088	0.00024	0.00012	3e-05	-0.00015	1e-05	0.00013	0.0004	6
22259	0.00088	0.00024	0.00012	3e-05	-0.00015	1e-05	0.00013	0.0004	6
22260	0.00088	0.00024	0.00012	3e-05	-0.00015	1e-05	0.00013	0.0004	6
22261	0.00088	0.00024	0.00012	3e-05	-0.00015	1e-05	0.00013	0.0004	6
22262	0.00088	0.00024	0.00012	3e-05	-0.00015	1e-05	0.00013	0.0004	6
22263	0.00088	0.00024	0.00012	3e-05	-0.00015	1e-05	0.00013	0.0004	6
22264	0.00088	0.00024	0.00012	3e-05	-0.00015	1e-05	0.00013	0.0004	6
22265	0.00028	-1e-05	2e-05	3e-05	-0.0002	5e-05	0.00011	0	6
22266	0.0002	4e-05	-2e-05	-7e-05	-0.0006	-0.00032	-0.00022	-0.0003	6
22267	0.0002	4e-05	-2e-05	-7e-05	-0.0006	-0.00032	-0.00022	-0.0003	6
22268	0.0002	4e-05	-2e-05	-7e-05	-0.0006	-0.00032	-0.00022	-0.0003	6
22269	0.0002	4e-05	-2e-05	-7e-05	-0.0006	-0.00032	-0.00022	-0.0003	6
22270	0.0002	4e-05	-2e-05	-7e-05	-0.0006	-0.00032	-0.00022	-0.0003	6
22271	0.0002	4e-05	-2e-05	-7e-05	-0.0006	-0.00032	-0.00022	-0.0003	6
22272	0.0002	4e-05	-2e-05	-7e-05	-0.0006	-0.00032	-0.00022	-0.0003	6
22273	0.0002	4e-05	-2e-05	-7e-05	-0.0006	-0.00032	-0.00022	-0.0003	6
22274	0.0002	4e-05	-2e-05	-7e-05	-0.0006	-0.00032	-0.00022	-0.0003	6
22275	0.0002	4e-05	-2e-05	-7e-05	-0.0006	-0.00032	-0.00022	-0.0003	6
22276	0.0002	4e-05	-2e-05	-7e-05	-0.0006	-0.00032	-0.00022	-0.0003	6
22277	0.0002	4e-05	-2e-05	-7e-05	-0.0006	-0.00032	-0.00022	-0.0003	6
22278	0.0002	4e-05	-2e-05	-7e-05	-0.0006	-0.00032	-0.00022	-0.0003	6
22279	0.0002	4e-05	-2e-05	-7e-05	-0.0006	-0.00032	-0.00022	-0.0003	6
22280	0.0002	4e-05	-2e-05	-7e-05	-0.0006	-0.00032	-0.00022	-0.0003	6
22281	0.0002	4e-05	-2e-05	-7e-05	-0.0006	-0.00032	-0.00022	-0.0003	6
22282	0.0002	4e-05	-2e-05	-7e-05	-0.0006	-0.00032	-0.00022	-0.0003	6
22283	0.0002	4e-05	-2e-05	-7e-05	-0.0006	-0.00032	-0.00022	-0.0003	6
22284	0.0002	4e-05	-2e-05	-7e-05	-0.0006	-0.00032	-0.00022	-0.0003	6
22285	0.0002	4e-05	-2e-05	-7e-05	-0.0006	-0.00032	-0.00022	-0.0003	6
22286	0.0002	4e-05	-2e-05	-7e-05	-0.0006	-0.00032	-0.00022	-0.0003	6
22289	-0.00018	-4e-05	0	3e-05	-0.00018	-0.00011	3e-05	-0.00024	6
22290	-0.00041	-7e-05	-5e-05	-3e-05	0.00025	0.00012	-2e-05	-0.00034	6
22291	-0.00041	-7e-05	-5e-05	-3e-05	0.00025	0.00012	-2e-05	-0.00034	6
22292	-0.00041	-7e-05	-5e-05	-3e-05	0.00025	0.00012	-2e-05	-0.00034	6
22293	-0.00041	-7e-05	-5e-05	-3e-05	0.00025	0.00012	-2e-05	-0.00034	6
22294	-0.00041	-7e-05	-5e-05	-3e-05	0.00025	0.00012	-2e-05	-0.00034	6
22295	-0.00041	-7e-05	-5e-05	-3e-05	0.00025	0.00012	-2e-05	-0.00034	6
22296	-0.00041	-7e-05	-5e-05	-3e-05	0.00025	0.00012	-2e-05	-0.00034	6
22297	-0.00041	-7e-05	-5e-05	-3e-05	0.00025	0.00012	-2e-05	-0.00034	6
22298	-0.00041	-7e-05	-5e-05	-3e-05	0.00025	0.00012	-2e-05	-0.00034	6
22299	-0.00041	-7e-05	-5e-05	-3e-05	0.00025	0.00012	-2e-05	-0.00034	6
22300	-0.00041	-7e-05	-5e-05	-3e-05	0.00025	0.00012	-2e-05	-0.00034	6
22301	-0.00041	-7e-05	-5e-05	-3e-05	0.00025	0.00012	-2e-05	-0.00034	6
22302	-0.00041	-7e-05	-5e-05	-3e-05	0.00025	0.00012	-2e-05	-0.00034	6
22303	-0.00021	-1e-05	-2e-05	4e-05	-0.0005	-0.00035	-0.00017	-0.00037	6
22304	-7e-05	-5e-05	-5e-05	-0.00018	-2e-05	-3e-05	3e-05	9e-05	6
22305	-7e-05	-5e-05	-5e-05	-0.00018	-2e-05	-3e-05	3e-05	9e-05	6
22306	-7e-05	-5e-05	-5e-05	-0.00018	-2e-05	-3e-05	3e-05	9e-05	6
22307	-7e-05	-5e-05	-5e-05	-0.00018	-2e-05	-3e-05	3e-05	9e-05	6
22308	-7e-05	-5e-05	-5e-05	-0.00018	-2e-05	-3e-05	3e-05	9e-05	6
22309	-7e-05	-5e-05	-5e-05	-0.00018	-2e-05	-3e-05	3e-05	9e-05	6
22310	-7e-05	-5e-05	-5e-05	-0.00018	-2e-05	-3e-05	3e-05	9e-05	6
22311	-7e-05	-5e-05	-5e-05	-0.00018	-2e-05	-3e-05	3e-05	9e-05	6
22312	-7e-05	-5e-05	-5e-05	-0.00018	-2e-05	-3e-05	3e-05	9e-05	6
22313	-7e-05	-5e-05	-5e-05	-0.00018	-2e-05	-3e-05	3e-05	9e-05	6
22314	-7e-05	-5e-05	-5e-05	-0.00018	-2e-05	-3e-05	3e-05	9e-05	6
22315	-7e-05	-5e-05	-5e-05	-0.00018	-2e-05	-3e-05	3e-05	9e-05	6
22316	-7e-05	-5e-05	-5e-05	-0.00018	-2e-05	-3e-05	3e-05	9e-05	6
22317	-7e-05	-5e-05	-5e-05	-0.00018	-2e-05	-3e-05	3e-05	9e-05	6
22318	-7e-05	-5e-05	-5e-05	-0.00018	-2e-05	-3e-05	3e-05	9e-05	6
22319	-7e-05	-5e-05	-5e-05	-0.00018	-2e-05	-3e-05	3e-05	9e-05	6
22320	-7e-05	-5e-05	-5e-05	-0.00018	-2e-05	-3e-05	3e-05	9e-05	6
22321	-7e-05	-5e-05	-5e-05	-0.00018	-2e-05	-3e-05	3e-05	9e-05	6
22322	-7e-05	-5e-05	-5e-05	-0.00018	-2e-05	-3e-05	3e-05	9e-05	6
22323	-7e-05	-5e-05	-5e-05	-0.00018	-2e-05	-3e-05	3e-05	9e-05	6
22324	-7e-05	-5e-05	-5e-05	-0.00018	-2e-05	-3e-05	3e-05	9e-05	6
22325	-0.00063	-9e-05	4e-05	0.00034	0.00022	-6e-05	-0.00021	-0.00043	6
22326	-0.00017	0.00031	0.00016	-7e-05	-0.00057	-9e-05	4e-05	-0.0002	6
22327	-0.00017	0.00031	0.00016	-7e-05	-0.00057	-9e-05	4e-05	-0.0002	6
22328	-0.00017	0.00031	0.00016	-7e-05	-0.00057	-9e-05	4e-05	-0.0002	6
22330	-0.00017	0.00031	0.00016	-7e-05	-0.00057	-9e-05	4e-05	-0.0002	6
22331	-0.00017	0.00031	0.00016	-7e-05	-0.00057	-9e-05	4e-05	-0.0002	6
22332	-0.00017	0.00031	0.00016	-7e-05	-0.00057	-9e-05	4e-05	-0.0002	6
22333	-0.00017	0.00031	0.00016	-7e-05	-0.00057	-9e-05	4e-05	-0.0002	6
22334	-0.00017	0.00031	0.00016	-7e-05	-0.00057	-9e-05	4e-05	-0.0002	6
22335	-0.00017	0.00031	0.00016	-7e-05	-0.00057	-9e-05	4e-05	-0.0002	6
22336	-0.00017	0.00031	0.00016	-7e-05	-0.00057	-9e-05	4e-05	-0.0002	6
22339	-0.00017	0.00031	0.00016	-7e-05	-0.00057	-9e-05	4e-05	-0.0002	6
22340	-0.00017	0.00031	0.00016	-7e-05	-0.00057	-9e-05	4e-05	-0.0002	6
22341	-0.00017	0.00031	0.00016	-7e-05	-0.00057	-9e-05	4e-05	-0.0002	6
22342	-0.00017	0.00031	0.00016	-7e-05	-0.00057	-9e-05	4e-05	-0.0002	6
22343	-0.00017	0.00031	0.00016	-7e-05	-0.00057	-9e-05	4e-05	-0.0002	6
22344	-0.00017	0.00031	0.00016	-7e-05	-0.00057	-9e-05	4e-05	-0.0002	6
22345	-0.00017	0.00031	0.00016	-7e-05	-0.00057	-9e-05	4e-05	-0.0002	6
22346	-0.00017	0.00031	0.00016	-7e-05	-0.00057	-9e-05	4e-05	-0.0002	6
22347	-0.00017	0.00031	0.00016	-7e-05	-0.00057	-9e-05	4e-05	-0.0002	6
22348	-0.00017	0.00031	0.00016	-7e-05	-0.00057	-9e-05	4e-05	-0.0002	6
22349	0.0001	-0.00012	-0.00012	5e-05	-0.00048	-0.00027	-6e-05	0.00023	6
22350	0.0001	-0.00012	-0.00012	5e-05	-0.00048	-0.00027	-6e-05	0.00023	6
22351	0.0001	-0.00012	-0.00012	5e-05	-0.00048	-0.00027	-6e-05	0.00023	6
22352	0.0001	-0.00012	-0.00012	5e-05	-0.00048	-0.00027	-6e-05	0.00023	6
22353	0.0001	-0.00012	-0.00012	5e-05	-0.00048	-0.00027	-6e-05	0.00023	6
22354	0.0001	-0.00012	-0.00012	5e-05	-0.00048	-0.00027	-6e-05	0.00023	6
22355	0.0001	-0.00012	-0.00012	5e-05	-0.00048	-0.00027	-6e-05	0.00023	6
22356	0.0001	-0.00012	-0.00012	5e-05	-0.00048	-0.00027	-6e-05	0.00023	6
22357	0.0001	-0.00012	-0.00012	5e-05	-0.00048	-0.00027	-6e-05	0.00023	6
22358	0.0001	-0.00012	-0.00012	5e-05	-0.00048	-0.00027	-6e-05	0.00023	6
22359	0.0001	-0.00012	-0.00012	5e-05	-0.00048	-0.00027	-6e-05	0.00023	6
22360	0.0001	-0.00012	-0.00012	5e-05	-0.00048	-0.00027	-6e-05	0.00023	6
22361	0.0001	-0.00012	-0.00012	5e-05	-0.00048	-0.00027	-6e-05	0.00023	6
22362	-0.00069	7e-05	3e-05	-6e-05	-0.00016	5e-05	2e-05	-0.00021	6
22363	-0.00069	7e-05	3e-05	-6e-05	-0.00016	5e-05	2e-05	-0.00021	6
22364	-0.00069	7e-05	3e-05	-6e-05	-0.00016	5e-05	2e-05	-0.00021	6
22365	-0.00069	7e-05	3e-05	-6e-05	-0.00016	5e-05	2e-05	-0.00021	6
22366	-0.00069	7e-05	3e-05	-6e-05	-0.00016	5e-05	2e-05	-0.00021	6
22367	-0.00069	7e-05	3e-05	-6e-05	-0.00016	5e-05	2e-05	-0.00021	6
22368	-0.00069	7e-05	3e-05	-6e-05	-0.00016	5e-05	2e-05	-0.00021	6
22369	-0.00069	7e-05	3e-05	-6e-05	-0.00016	5e-05	2e-05	-0.00021	6
22370	-4e-05	1e-05	0	-1e-05	6e-05	-3e-05	0.00012	0.0001	6
22371	-0.00023	-4e-05	5e-05	4e-05	0.00015	-0.00033	-0.0001	0.0001	6
22373	-0.00023	-4e-05	5e-05	4e-05	0.00015	-0.00033	-0.0001	0.0001	6
22374	-0.00023	-4e-05	5e-05	4e-05	0.00015	-0.00033	-0.0001	0.0001	6
22375	-0.00023	-4e-05	5e-05	4e-05	0.00015	-0.00033	-0.0001	0.0001	6
22376	-0.00023	-4e-05	5e-05	4e-05	0.00015	-0.00033	-0.0001	0.0001	6
22377	-0.00023	-4e-05	5e-05	4e-05	0.00015	-0.00033	-0.0001	0.0001	6
22378	-0.00023	-4e-05	5e-05	4e-05	0.00015	-0.00033	-0.0001	0.0001	6
22379	-0.00023	-4e-05	5e-05	4e-05	0.00015	-0.00033	-0.0001	0.0001	6
22380	-0.00023	-4e-05	5e-05	4e-05	0.00015	-0.00033	-0.0001	0.0001	6
22381	-0.00023	-4e-05	5e-05	4e-05	0.00015	-0.00033	-0.0001	0.0001	6
22382	-0.00023	-4e-05	5e-05	4e-05	0.00015	-0.00033	-0.0001	0.0001	6
22383	-0.00023	-4e-05	5e-05	4e-05	0.00015	-0.00033	-0.0001	0.0001	6
22384	-0.00023	-4e-05	5e-05	4e-05	0.00015	-0.00033	-0.0001	0.0001	6
22385	0.00018	-9e-05	-0.00013	0.00013	0.00046	-4e-05	-0.00024	-9e-05	6
22387	-0.00024	-0.00019	2e-05	0.00013	0.00046	0.00019	-0.00025	0.00026	6
22389	-0.00024	-0.00019	2e-05	0.00013	0.00046	0.00019	-0.00025	0.00026	6
22391	-0.00024	-0.00019	2e-05	0.00013	0.00046	0.00019	-0.00025	0.00026	6
22392	-0.00024	-0.00019	2e-05	0.00013	0.00046	0.00019	-0.00025	0.00026	6
22393	-0.00024	-0.00019	2e-05	0.00013	0.00046	0.00019	-0.00025	0.00026	6
22394	-0.00024	-0.00019	2e-05	0.00013	0.00046	0.00019	-0.00025	0.00026	6
22395	-0.00024	-0.00019	2e-05	0.00013	0.00046	0.00019	-0.00025	0.00026	6
22396	-0.00024	-0.00019	2e-05	0.00013	0.00046	0.00019	-0.00025	0.00026	6
22397	-0.00024	-0.00019	2e-05	0.00013	0.00046	0.00019	-0.00025	0.00026	6
22398	-0.00024	-0.00019	2e-05	0.00013	0.00046	0.00019	-0.00025	0.00026	6
22399	-0.00024	-0.00019	2e-05	0.00013	0.00046	0.00019	-0.00025	0.00026	6
22400	-0.00024	-0.00019	2e-05	0.00013	0.00046	0.00019	-0.00025	0.00026	6
22401	-0.00024	-0.00019	2e-05	0.00013	0.00046	0.00019	-0.00025	0.00026	6
22402	-0.00024	-0.00019	2e-05	0.00013	0.00046	0.00019	-0.00025	0.00026	6
22403	-0.00024	-0.00019	2e-05	0.00013	0.00046	0.00019	-0.00025	0.00026	6
22404	-0.00024	-0.00019	2e-05	0.00013	0.00046	0.00019	-0.00025	0.00026	6
22405	-0.00024	-0.00019	2e-05	0.00013	0.00046	0.00019	-0.00025	0.00026	6
22406	-0.00024	-0.00019	2e-05	0.00013	0.00046	0.00019	-0.00025	0.00026	6
22407	-0.00024	-0.00019	2e-05	0.00013	0.00046	0.00019	-0.00025	0.00026	6
22408	-0.00024	-0.00019	2e-05	0.00013	0.00046	0.00019	-0.00025	0.00026	6
22409	-0.00084	-1e-05	-7e-05	-0.00011	-0.00037	6e-05	-1e-05	-0.00048	6
22410	-0.00084	-1e-05	-7e-05	-0.00011	-0.00037	6e-05	-1e-05	-0.00048	6
22411	-0.00084	-1e-05	-7e-05	-0.00011	-0.00037	6e-05	-1e-05	-0.00048	6
22412	-0.00084	-1e-05	-7e-05	-0.00011	-0.00037	6e-05	-1e-05	-0.00048	6
22413	-0.00084	-1e-05	-7e-05	-0.00011	-0.00037	6e-05	-1e-05	-0.00048	6
22414	-0.00084	-1e-05	-7e-05	-0.00011	-0.00037	6e-05	-1e-05	-0.00048	6
22415	-0.00084	-1e-05	-7e-05	-0.00011	-0.00037	6e-05	-1e-05	-0.00048	6
22416	-0.00084	-1e-05	-7e-05	-0.00011	-0.00037	6e-05	-1e-05	-0.00048	6
22417	-0.00084	-1e-05	-7e-05	-0.00011	-0.00037	6e-05	-1e-05	-0.00048	6
22418	-0.00084	-1e-05	-7e-05	-0.00011	-0.00037	6e-05	-1e-05	-0.00048	6
22419	-0.00084	-1e-05	-7e-05	-0.00011	-0.00037	6e-05	-1e-05	-0.00048	6
22420	-0.00084	-1e-05	-7e-05	-0.00011	-0.00037	6e-05	-1e-05	-0.00048	6
22421	-0.00084	-1e-05	-7e-05	-0.00011	-0.00037	6e-05	-1e-05	-0.00048	6
22422	0.00018	0.00022	5e-05	0.00016	0.00011	0.00068	0.0002	-0.00038	6
22423	0.00018	0.00022	5e-05	0.00016	0.00011	0.00068	0.0002	-0.00038	6
22424	0.00018	0.00022	5e-05	0.00016	0.00011	0.00068	0.0002	-0.00038	6
22425	0.00018	0.00022	5e-05	0.00016	0.00011	0.00068	0.0002	-0.00038	6
22426	0.00018	0.00022	5e-05	0.00016	0.00011	0.00068	0.0002	-0.00038	6
22427	0.00018	0.00022	5e-05	0.00016	0.00011	0.00068	0.0002	-0.00038	6
22428	0.00018	0.00022	5e-05	0.00016	0.00011	0.00068	0.0002	-0.00038	6
22429	0.00018	0.00022	5e-05	0.00016	0.00011	0.00068	0.0002	-0.00038	6
22430	-0.00058	-0.00015	-1e-05	-0.00016	-3e-05	-2e-05	-5e-05	6e-05	6
22431	0.00049	1e-05	-9e-05	-0.00017	0.00024	0.00017	0.00017	0.0002	6
22433	0.00049	1e-05	-9e-05	-0.00017	0.00024	0.00017	0.00017	0.0002	6
22434	0.00049	1e-05	-9e-05	-0.00017	0.00024	0.00017	0.00017	0.0002	6
22435	0.00049	1e-05	-9e-05	-0.00017	0.00024	0.00017	0.00017	0.0002	6
22436	0.00049	1e-05	-9e-05	-0.00017	0.00024	0.00017	0.00017	0.0002	6
22439	0.00049	1e-05	-9e-05	-0.00017	0.00024	0.00017	0.00017	0.0002	6
22440	0.00049	1e-05	-9e-05	-0.00017	0.00024	0.00017	0.00017	0.0002	6
22441	0.00049	1e-05	-9e-05	-0.00017	0.00024	0.00017	0.00017	0.0002	6
22442	0.00049	1e-05	-9e-05	-0.00017	0.00024	0.00017	0.00017	0.0002	6
22443	0.00049	1e-05	-9e-05	-0.00017	0.00024	0.00017	0.00017	0.0002	6
22444	0.00049	1e-05	-9e-05	-0.00017	0.00024	0.00017	0.00017	0.0002	6
22445	-0.00025	-2e-05	5e-05	8e-05	-0.00028	-0.00023	-0.00076	-5e-05	6
22446	-0.00024	-0.00012	2e-05	-9e-05	-0.00037	4e-05	3e-05	0.00013	6
22447	-0.00024	-0.00012	2e-05	-9e-05	-0.00037	4e-05	3e-05	0.00013	6
22448	-0.00024	-0.00012	2e-05	-9e-05	-0.00037	4e-05	3e-05	0.00013	6
22449	-0.00024	-0.00012	2e-05	-9e-05	-0.00037	4e-05	3e-05	0.00013	6
22450	-0.00024	-0.00012	2e-05	-9e-05	-0.00037	4e-05	3e-05	0.00013	6
22451	-0.00024	-0.00012	2e-05	-9e-05	-0.00037	4e-05	3e-05	0.00013	6
22452	-0.00024	-0.00012	2e-05	-9e-05	-0.00037	4e-05	3e-05	0.00013	6
22453	-0.00024	-0.00012	2e-05	-9e-05	-0.00037	4e-05	3e-05	0.00013	6
22454	-0.00024	-0.00012	2e-05	-9e-05	-0.00037	4e-05	3e-05	0.00013	6
22455	-0.00024	-0.00012	2e-05	-9e-05	-0.00037	4e-05	3e-05	0.00013	6
22456	-0.00024	-0.00012	2e-05	-9e-05	-0.00037	4e-05	3e-05	0.00013	6
22457	-0.00024	-0.00012	2e-05	-9e-05	-0.00037	4e-05	3e-05	0.00013	6
22458	-0.00024	-0.00012	2e-05	-9e-05	-0.00037	4e-05	3e-05	0.00013	6
22459	-0.00024	-0.00012	2e-05	-9e-05	-0.00037	4e-05	3e-05	0.00013	6
22460	-0.00024	-0.00012	2e-05	-9e-05	-0.00037	4e-05	3e-05	0.00013	6
22461	-0.00024	-0.00012	2e-05	-9e-05	-0.00037	4e-05	3e-05	0.00013	6
22462	-0.00024	-0.00012	2e-05	-9e-05	-0.00037	4e-05	3e-05	0.00013	6
22463	-0.00024	-0.00012	2e-05	-9e-05	-0.00037	4e-05	3e-05	0.00013	6
22464	-0.00024	-0.00012	2e-05	-9e-05	-0.00037	4e-05	3e-05	0.00013	6
22465	-0.00024	-0.00012	2e-05	-9e-05	-0.00037	4e-05	3e-05	0.00013	6
22466	-0.00024	-0.00012	2e-05	-9e-05	-0.00037	4e-05	3e-05	0.00013	6
22467	-0.00024	-0.00012	2e-05	-9e-05	-0.00037	4e-05	3e-05	0.00013	6
22468	-0.00024	-0.00012	2e-05	-9e-05	-0.00037	4e-05	3e-05	0.00013	6
22469	0.00046	3e-05	2e-05	1e-05	-2e-05	-0.0001	1e-05	6e-05	6
22470	0.00034	3e-05	-6e-05	-0.00016	-0.0003	4e-05	-7e-05	0.00019	6
22471	0.00034	3e-05	-6e-05	-0.00016	-0.0003	4e-05	-7e-05	0.00019	6
22472	0.00034	3e-05	-6e-05	-0.00016	-0.0003	4e-05	-7e-05	0.00019	6
22473	0.00034	3e-05	-6e-05	-0.00016	-0.0003	4e-05	-7e-05	0.00019	6
22474	0.00034	3e-05	-6e-05	-0.00016	-0.0003	4e-05	-7e-05	0.00019	6
22475	0.00034	3e-05	-6e-05	-0.00016	-0.0003	4e-05	-7e-05	0.00019	6
22476	0.00034	3e-05	-6e-05	-0.00016	-0.0003	4e-05	-7e-05	0.00019	6
22477	0.00034	3e-05	-6e-05	-0.00016	-0.0003	4e-05	-7e-05	0.00019	6
22478	0.00034	3e-05	-6e-05	-0.00016	-0.0003	4e-05	-7e-05	0.00019	6
22479	0.00034	3e-05	-6e-05	-0.00016	-0.0003	4e-05	-7e-05	0.00019	6
22480	0.00034	3e-05	-6e-05	-0.00016	-0.0003	4e-05	-7e-05	0.00019	6
22481	0.00034	3e-05	-6e-05	-0.00016	-0.0003	4e-05	-7e-05	0.00019	6
22482	-0.00057	-6e-05	-9e-05	-0.00013	-0.00033	-0.00026	-0.00053	-0.00059	6
22483	-0.00057	-6e-05	-9e-05	-0.00013	-0.00033	-0.00026	-0.00053	-0.00059	6
22484	-0.00057	-6e-05	-9e-05	-0.00013	-0.00033	-0.00026	-0.00053	-0.00059	6
22485	-0.00057	-6e-05	-9e-05	-0.00013	-0.00033	-0.00026	-0.00053	-0.00059	6
22486	-0.00057	-6e-05	-9e-05	-0.00013	-0.00033	-0.00026	-0.00053	-0.00059	6
22488	-0.00057	-6e-05	-9e-05	-0.00013	-0.00033	-0.00026	-0.00053	-0.00059	6
22490	-8e-05	-8e-05	-6e-05	2e-05	0.00037	0.00032	6e-05	-2e-05	6
22491	0.00046	8e-05	1e-05	0.00015	0.00018	0.00014	0.00015	0.00011	6
22492	0.00046	8e-05	1e-05	0.00015	0.00018	0.00014	0.00015	0.00011	6
22493	0.00046	8e-05	1e-05	0.00015	0.00018	0.00014	0.00015	0.00011	6
22494	0.00046	8e-05	1e-05	0.00015	0.00018	0.00014	0.00015	0.00011	6
22495	0.00046	8e-05	1e-05	0.00015	0.00018	0.00014	0.00015	0.00011	6
22496	0.00046	8e-05	1e-05	0.00015	0.00018	0.00014	0.00015	0.00011	6
22497	0.00046	8e-05	1e-05	0.00015	0.00018	0.00014	0.00015	0.00011	6
22498	0.00046	8e-05	1e-05	0.00015	0.00018	0.00014	0.00015	0.00011	6
22499	0.00046	8e-05	1e-05	0.00015	0.00018	0.00014	0.00015	0.00011	6
22500	0.00046	8e-05	1e-05	0.00015	0.00018	0.00014	0.00015	0.00011	6
22501	0.00046	8e-05	1e-05	0.00015	0.00018	0.00014	0.00015	0.00011	6
22502	0.00046	8e-05	1e-05	0.00015	0.00018	0.00014	0.00015	0.00011	6
22503	0.00046	8e-05	1e-05	0.00015	0.00018	0.00014	0.00015	0.00011	6
22504	0.00046	8e-05	1e-05	0.00015	0.00018	0.00014	0.00015	0.00011	6
22505	-0.00013	3e-05	-3e-05	-0.0003	-0.00012	-0.00013	0.00029	0.00022	6
22506	-0.00019	5e-05	5e-05	0.00013	0.00023	0.00026	0.00012	0.00014	6
22507	-0.00019	5e-05	5e-05	0.00013	0.00023	0.00026	0.00012	0.00014	6
22508	-0.00019	5e-05	5e-05	0.00013	0.00023	0.00026	0.00012	0.00014	6
22509	-0.00019	5e-05	5e-05	0.00013	0.00023	0.00026	0.00012	0.00014	6
22510	-0.00019	5e-05	5e-05	0.00013	0.00023	0.00026	0.00012	0.00014	6
22511	-0.00019	5e-05	5e-05	0.00013	0.00023	0.00026	0.00012	0.00014	6
22512	-0.00019	5e-05	5e-05	0.00013	0.00023	0.00026	0.00012	0.00014	6
22513	-0.00019	5e-05	5e-05	0.00013	0.00023	0.00026	0.00012	0.00014	6
22514	-0.00019	5e-05	5e-05	0.00013	0.00023	0.00026	0.00012	0.00014	6
22515	-0.00019	5e-05	5e-05	0.00013	0.00023	0.00026	0.00012	0.00014	6
22516	-0.00019	5e-05	5e-05	0.00013	0.00023	0.00026	0.00012	0.00014	6
22517	-0.00019	5e-05	5e-05	0.00013	0.00023	0.00026	0.00012	0.00014	6
22518	-0.00019	5e-05	5e-05	0.00013	0.00023	0.00026	0.00012	0.00014	6
22519	-0.00019	5e-05	5e-05	0.00013	0.00023	0.00026	0.00012	0.00014	6
22520	-0.00019	5e-05	5e-05	0.00013	0.00023	0.00026	0.00012	0.00014	6
22521	-0.00019	5e-05	5e-05	0.00013	0.00023	0.00026	0.00012	0.00014	6
22522	-0.00019	5e-05	5e-05	0.00013	0.00023	0.00026	0.00012	0.00014	6
22523	-0.00019	5e-05	5e-05	0.00013	0.00023	0.00026	0.00012	0.00014	6
22524	-0.00019	5e-05	5e-05	0.00013	0.00023	0.00026	0.00012	0.00014	6
22525	-0.00019	5e-05	5e-05	0.00013	0.00023	0.00026	0.00012	0.00014	6
22526	-0.00019	5e-05	5e-05	0.00013	0.00023	0.00026	0.00012	0.00014	6
22527	-0.00019	5e-05	5e-05	0.00013	0.00023	0.00026	0.00012	0.00014	6
22528	-0.00019	5e-05	5e-05	0.00013	0.00023	0.00026	0.00012	0.00014	6
22529	-0.00065	-0.00016	4e-05	-0.0003	0.00032	0.00033	-0.00016	-0.00029	6
22530	-8e-05	0.00025	5e-05	0.00024	0.00024	-1e-05	8e-05	-0.00047	6
22531	-8e-05	0.00025	5e-05	0.00024	0.00024	-1e-05	8e-05	-0.00047	6
22532	-8e-05	0.00025	5e-05	0.00024	0.00024	-1e-05	8e-05	-0.00047	6
22533	-8e-05	0.00025	5e-05	0.00024	0.00024	-1e-05	8e-05	-0.00047	6
22534	-8e-05	0.00025	5e-05	0.00024	0.00024	-1e-05	8e-05	-0.00047	6
22535	-8e-05	0.00025	5e-05	0.00024	0.00024	-1e-05	8e-05	-0.00047	6
22536	-8e-05	0.00025	5e-05	0.00024	0.00024	-1e-05	8e-05	-0.00047	6
22538	-8e-05	0.00025	5e-05	0.00024	0.00024	-1e-05	8e-05	-0.00047	6
22540	-8e-05	0.00025	5e-05	0.00024	0.00024	-1e-05	8e-05	-0.00047	6
22541	-8e-05	0.00025	5e-05	0.00024	0.00024	-1e-05	8e-05	-0.00047	6
22542	-0.00038	1e-05	1e-05	1e-05	-0.00031	-0.00073	-0.00024	-0.00052	6
22543	-0.00038	1e-05	1e-05	1e-05	-0.00031	-0.00073	-0.00024	-0.00052	6
22544	-0.00038	1e-05	1e-05	1e-05	-0.00031	-0.00073	-0.00024	-0.00052	6
22545	-0.00038	1e-05	1e-05	1e-05	-0.00031	-0.00073	-0.00024	-0.00052	6
22546	-0.00038	1e-05	1e-05	1e-05	-0.00031	-0.00073	-0.00024	-0.00052	6
22547	-0.00038	1e-05	1e-05	1e-05	-0.00031	-0.00073	-0.00024	-0.00052	6
22548	-0.00038	1e-05	1e-05	1e-05	-0.00031	-0.00073	-0.00024	-0.00052	6
22549	-0.00038	1e-05	1e-05	1e-05	-0.00031	-0.00073	-0.00024	-0.00052	6
22550	-0.0004	8e-05	1e-05	0.00021	0.00014	0.00031	-0.00041	-0.00035	6
22551	0.00011	-0.00011	-4e-05	-9e-05	-5e-05	-0.00013	7e-05	2e-05	6
22552	0.00011	-0.00011	-4e-05	-9e-05	-5e-05	-0.00013	7e-05	2e-05	6
22553	0.00011	-0.00011	-4e-05	-9e-05	-5e-05	-0.00013	7e-05	2e-05	6
22554	0.00011	-0.00011	-4e-05	-9e-05	-5e-05	-0.00013	7e-05	2e-05	6
22555	0.00011	-0.00011	-4e-05	-9e-05	-5e-05	-0.00013	7e-05	2e-05	6
22556	0.00011	-0.00011	-4e-05	-9e-05	-5e-05	-0.00013	7e-05	2e-05	6
22557	0.00011	-0.00011	-4e-05	-9e-05	-5e-05	-0.00013	7e-05	2e-05	6
22558	0.00011	-0.00011	-4e-05	-9e-05	-5e-05	-0.00013	7e-05	2e-05	6
22559	0.00011	-0.00011	-4e-05	-9e-05	-5e-05	-0.00013	7e-05	2e-05	6
22560	0.00011	-0.00011	-4e-05	-9e-05	-5e-05	-0.00013	7e-05	2e-05	6
22561	0.00011	-0.00011	-4e-05	-9e-05	-5e-05	-0.00013	7e-05	2e-05	6
22562	0.00011	-0.00011	-4e-05	-9e-05	-5e-05	-0.00013	7e-05	2e-05	6
22563	0.00011	-0.00011	-4e-05	-9e-05	-5e-05	-0.00013	7e-05	2e-05	6
22564	0.00011	-0.00011	-4e-05	-9e-05	-5e-05	-0.00013	7e-05	2e-05	6
22565	-0.00056	-0.0001	-6e-05	-0.00013	-7e-05	0.00037	-0.00025	-0.00072	6
22566	-0.00039	-7e-05	2e-05	-7e-05	-0.0001	1e-05	-0.00018	-0.00032	6
22567	-0.00039	-7e-05	2e-05	-7e-05	-0.0001	1e-05	-0.00018	-0.00032	6
22568	-0.00039	-7e-05	2e-05	-7e-05	-0.0001	1e-05	-0.00018	-0.00032	6
22569	-0.00039	-7e-05	2e-05	-7e-05	-0.0001	1e-05	-0.00018	-0.00032	6
22570	-0.00039	-7e-05	2e-05	-7e-05	-0.0001	1e-05	-0.00018	-0.00032	6
22571	-0.00039	-7e-05	2e-05	-7e-05	-0.0001	1e-05	-0.00018	-0.00032	6
22572	-0.00039	-7e-05	2e-05	-7e-05	-0.0001	1e-05	-0.00018	-0.00032	6
22573	-0.00039	-7e-05	2e-05	-7e-05	-0.0001	1e-05	-0.00018	-0.00032	6
22574	-0.00039	-7e-05	2e-05	-7e-05	-0.0001	1e-05	-0.00018	-0.00032	6
22575	-0.00039	-7e-05	2e-05	-7e-05	-0.0001	1e-05	-0.00018	-0.00032	6
22576	-0.00039	-7e-05	2e-05	-7e-05	-0.0001	1e-05	-0.00018	-0.00032	6
22577	-0.00039	-7e-05	2e-05	-7e-05	-0.0001	1e-05	-0.00018	-0.00032	6
22578	-0.00039	-7e-05	2e-05	-7e-05	-0.0001	1e-05	-0.00018	-0.00032	6
22579	-0.00039	-7e-05	2e-05	-7e-05	-0.0001	1e-05	-0.00018	-0.00032	6
22580	-0.00039	-7e-05	2e-05	-7e-05	-0.0001	1e-05	-0.00018	-0.00032	6
22581	-0.00039	-7e-05	2e-05	-7e-05	-0.0001	1e-05	-0.00018	-0.00032	6
22582	-0.00039	-7e-05	2e-05	-7e-05	-0.0001	1e-05	-0.00018	-0.00032	6
22583	-0.00039	-7e-05	2e-05	-7e-05	-0.0001	1e-05	-0.00018	-0.00032	6
22584	-0.00039	-7e-05	2e-05	-7e-05	-0.0001	1e-05	-0.00018	-0.00032	6
22585	-0.00039	-7e-05	2e-05	-7e-05	-0.0001	1e-05	-0.00018	-0.00032	6
22586	-0.00039	-7e-05	2e-05	-7e-05	-0.0001	1e-05	-0.00018	-0.00032	6
22589	-4e-05	-6e-05	0	0.00024	0.00038	-0.00012	0.00019	-0.0001	6
22590	0.00032	1e-05	1e-05	-0.00012	0.00027	0.00014	0.00011	0.00021	6
22591	0.00032	1e-05	1e-05	-0.00012	0.00027	0.00014	0.00011	0.00021	6
22592	0.00032	1e-05	1e-05	-0.00012	0.00027	0.00014	0.00011	0.00021	6
22593	0.00032	1e-05	1e-05	-0.00012	0.00027	0.00014	0.00011	0.00021	6
22594	0.00032	1e-05	1e-05	-0.00012	0.00027	0.00014	0.00011	0.00021	6
22596	0.00032	1e-05	1e-05	-0.00012	0.00027	0.00014	0.00011	0.00021	6
22597	0.00032	1e-05	1e-05	-0.00012	0.00027	0.00014	0.00011	0.00021	6
22598	0.00032	1e-05	1e-05	-0.00012	0.00027	0.00014	0.00011	0.00021	6
22599	0.00032	1e-05	1e-05	-0.00012	0.00027	0.00014	0.00011	0.00021	6
22600	0.00032	1e-05	1e-05	-0.00012	0.00027	0.00014	0.00011	0.00021	6
22601	0.00032	1e-05	1e-05	-0.00012	0.00027	0.00014	0.00011	0.00021	6
22602	-0.00075	-0.00019	-1e-05	8e-05	0.00023	0.00013	-0.00012	-0.00018	6
22603	-0.00075	-0.00019	-1e-05	8e-05	0.00023	0.00013	-0.00012	-0.00018	6
22604	-0.00075	-0.00019	-1e-05	8e-05	0.00023	0.00013	-0.00012	-0.00018	6
22605	-0.00075	-0.00019	-1e-05	8e-05	0.00023	0.00013	-0.00012	-0.00018	6
22606	-0.00075	-0.00019	-1e-05	8e-05	0.00023	0.00013	-0.00012	-0.00018	6
22607	-0.00075	-0.00019	-1e-05	8e-05	0.00023	0.00013	-0.00012	-0.00018	6
22608	-0.00075	-0.00019	-1e-05	8e-05	0.00023	0.00013	-0.00012	-0.00018	6
22609	-0.00075	-0.00019	-1e-05	8e-05	0.00023	0.00013	-0.00012	-0.00018	6
22610	-0.00075	-0.00019	-1e-05	8e-05	0.00023	0.00013	-0.00012	-0.00018	6
22611	0.0002	-9e-05	-7e-05	0.00017	0.00034	-0.00017	-0.00036	-0.00034	6
22612	0.0002	-9e-05	-7e-05	0.00017	0.00034	-0.00017	-0.00036	-0.00034	6
22613	0.0002	-9e-05	-7e-05	0.00017	0.00034	-0.00017	-0.00036	-0.00034	6
22614	0.0002	-9e-05	-7e-05	0.00017	0.00034	-0.00017	-0.00036	-0.00034	6
22615	0.0002	-9e-05	-7e-05	0.00017	0.00034	-0.00017	-0.00036	-0.00034	6
22616	0.0002	-9e-05	-7e-05	0.00017	0.00034	-0.00017	-0.00036	-0.00034	6
22617	0.0002	-9e-05	-7e-05	0.00017	0.00034	-0.00017	-0.00036	-0.00034	6
22618	0.0002	-9e-05	-7e-05	0.00017	0.00034	-0.00017	-0.00036	-0.00034	6
22619	0.0002	-9e-05	-7e-05	0.00017	0.00034	-0.00017	-0.00036	-0.00034	6
22620	0.0002	-9e-05	-7e-05	0.00017	0.00034	-0.00017	-0.00036	-0.00034	6
22621	0.0002	-9e-05	-7e-05	0.00017	0.00034	-0.00017	-0.00036	-0.00034	6
22622	0.0002	-9e-05	-7e-05	0.00017	0.00034	-0.00017	-0.00036	-0.00034	6
22623	0.0002	-9e-05	-7e-05	0.00017	0.00034	-0.00017	-0.00036	-0.00034	6
22624	0.0002	-9e-05	-7e-05	0.00017	0.00034	-0.00017	-0.00036	-0.00034	6
22625	-0.00039	-0.00018	-6e-05	-0.00015	-0.0003	-9e-05	-7e-05	-0.00032	6
22626	-9e-05	6e-05	3e-05	-6e-05	-0.00031	6e-05	0.00055	3e-05	6
22627	-9e-05	6e-05	3e-05	-6e-05	-0.00031	6e-05	0.00055	3e-05	6
22628	-9e-05	6e-05	3e-05	-6e-05	-0.00031	6e-05	0.00055	3e-05	6
22629	-9e-05	6e-05	3e-05	-6e-05	-0.00031	6e-05	0.00055	3e-05	6
22630	-9e-05	6e-05	3e-05	-6e-05	-0.00031	6e-05	0.00055	3e-05	6
22631	-9e-05	6e-05	3e-05	-6e-05	-0.00031	6e-05	0.00055	3e-05	6
22632	-9e-05	6e-05	3e-05	-6e-05	-0.00031	6e-05	0.00055	3e-05	6
22633	-9e-05	6e-05	3e-05	-6e-05	-0.00031	6e-05	0.00055	3e-05	6
22634	-9e-05	6e-05	3e-05	-6e-05	-0.00031	6e-05	0.00055	3e-05	6
22635	-9e-05	6e-05	3e-05	-6e-05	-0.00031	6e-05	0.00055	3e-05	6
22636	-9e-05	6e-05	3e-05	-6e-05	-0.00031	6e-05	0.00055	3e-05	6
22639	-9e-05	6e-05	3e-05	-6e-05	-0.00031	6e-05	0.00055	3e-05	6
22640	-9e-05	6e-05	3e-05	-6e-05	-0.00031	6e-05	0.00055	3e-05	6
22641	-9e-05	6e-05	3e-05	-6e-05	-0.00031	6e-05	0.00055	3e-05	6
22642	-9e-05	6e-05	3e-05	-6e-05	-0.00031	6e-05	0.00055	3e-05	6
22643	-9e-05	6e-05	3e-05	-6e-05	-0.00031	6e-05	0.00055	3e-05	6
22644	-9e-05	6e-05	3e-05	-6e-05	-0.00031	6e-05	0.00055	3e-05	6
22645	-9e-05	6e-05	3e-05	-6e-05	-0.00031	6e-05	0.00055	3e-05	6
22646	-9e-05	6e-05	3e-05	-6e-05	-0.00031	6e-05	0.00055	3e-05	6
22647	-9e-05	6e-05	3e-05	-6e-05	-0.00031	6e-05	0.00055	3e-05	6
22648	-9e-05	6e-05	3e-05	-6e-05	-0.00031	6e-05	0.00055	3e-05	6
22649	0.00022	0.00012	8e-05	0.00017	0.00065	3e-05	-0.00017	-0.00016	6
22650	0.00022	0.00012	8e-05	0.00017	0.00065	3e-05	-0.00017	-0.00016	6
22651	0.00022	0.00012	8e-05	0.00017	0.00065	3e-05	-0.00017	-0.00016	6
22652	0.00022	0.00012	8e-05	0.00017	0.00065	3e-05	-0.00017	-0.00016	6
22653	0.00022	0.00012	8e-05	0.00017	0.00065	3e-05	-0.00017	-0.00016	6
22654	0.00022	0.00012	8e-05	0.00017	0.00065	3e-05	-0.00017	-0.00016	6
22655	0.00022	0.00012	8e-05	0.00017	0.00065	3e-05	-0.00017	-0.00016	6
22656	0.00022	0.00012	8e-05	0.00017	0.00065	3e-05	-0.00017	-0.00016	6
22657	0.00022	0.00012	8e-05	0.00017	0.00065	3e-05	-0.00017	-0.00016	6
22658	0.00022	0.00012	8e-05	0.00017	0.00065	3e-05	-0.00017	-0.00016	6
22659	0.00022	0.00012	8e-05	0.00017	0.00065	3e-05	-0.00017	-0.00016	6
22660	0.00022	0.00012	8e-05	0.00017	0.00065	3e-05	-0.00017	-0.00016	6
22661	0.00022	0.00012	8e-05	0.00017	0.00065	3e-05	-0.00017	-0.00016	6
22662	0.00022	0.00012	8e-05	0.00017	0.00065	3e-05	-0.00017	-0.00016	6
22663	0.00022	0.00012	8e-05	0.00017	0.00065	3e-05	-0.00017	-0.00016	6
22664	0.00022	0.00012	8e-05	0.00017	0.00065	3e-05	-0.00017	-0.00016	6
22665	0.00022	0.00012	8e-05	0.00017	0.00065	3e-05	-0.00017	-0.00016	6
22666	0.00022	0.00012	8e-05	0.00017	0.00065	3e-05	-0.00017	-0.00016	6
22667	0.00022	0.00012	8e-05	0.00017	0.00065	3e-05	-0.00017	-0.00016	6
22668	0.00022	0.00012	8e-05	0.00017	0.00065	3e-05	-0.00017	-0.00016	6
22669	0.00022	0.00012	8e-05	0.00017	0.00065	3e-05	-0.00017	-0.00016	6
22670	0.00022	0.00012	8e-05	0.00017	0.00065	3e-05	-0.00017	-0.00016	6
22671	0.00024	0.00012	-2e-05	5e-05	0.00014	0.00035	3e-05	-0.00011	6
22672	0.00029	3e-05	-5e-05	-0.00048	-0.0006	-5e-05	-1e-05	-0.00011	6
22673	0.00029	3e-05	-5e-05	-0.00048	-0.0006	-5e-05	-1e-05	-0.00011	6
22674	0.00029	3e-05	-5e-05	-0.00048	-0.0006	-5e-05	-1e-05	-0.00011	6
22675	0.00029	3e-05	-5e-05	-0.00048	-0.0006	-5e-05	-1e-05	-0.00011	6
22676	0.00029	3e-05	-5e-05	-0.00048	-0.0006	-5e-05	-1e-05	-0.00011	6
22677	0.00029	3e-05	-5e-05	-0.00048	-0.0006	-5e-05	-1e-05	-0.00011	6
22678	0.00029	3e-05	-5e-05	-0.00048	-0.0006	-5e-05	-1e-05	-0.00011	6
22679	0.00029	3e-05	-5e-05	-0.00048	-0.0006	-5e-05	-1e-05	-0.00011	6
22680	0.00029	3e-05	-5e-05	-0.00048	-0.0006	-5e-05	-1e-05	-0.00011	6
22682	0.00029	3e-05	-5e-05	-0.00048	-0.0006	-5e-05	-1e-05	-0.00011	6
22684	0.00029	3e-05	-5e-05	-0.00048	-0.0006	-5e-05	-1e-05	-0.00011	6
22685	0.0001	0	3e-05	0.00027	2e-05	8e-05	0.00011	0.00015	6
22687	-0.00053	-0.00031	-8e-05	0	-0.00035	-0.00037	0.00023	0.00022	6
22690	-0.00053	-0.00031	-8e-05	0	-0.00035	-0.00037	0.00023	0.00022	6
22692	-0.00053	-0.00031	-8e-05	0	-0.00035	-0.00037	0.00023	0.00022	6
22693	-0.00053	-0.00031	-8e-05	0	-0.00035	-0.00037	0.00023	0.00022	6
22694	-0.00053	-0.00031	-8e-05	0	-0.00035	-0.00037	0.00023	0.00022	6
22695	-0.00053	-0.00031	-8e-05	0	-0.00035	-0.00037	0.00023	0.00022	6
22696	-0.00053	-0.00031	-8e-05	0	-0.00035	-0.00037	0.00023	0.00022	6
22697	-0.00053	-0.00031	-8e-05	0	-0.00035	-0.00037	0.00023	0.00022	6
22698	-0.00053	-0.00031	-8e-05	0	-0.00035	-0.00037	0.00023	0.00022	6
22699	-0.00053	-0.00031	-8e-05	0	-0.00035	-0.00037	0.00023	0.00022	6
22700	-0.00053	-0.00031	-8e-05	0	-0.00035	-0.00037	0.00023	0.00022	6
22701	-0.00053	-0.00031	-8e-05	0	-0.00035	-0.00037	0.00023	0.00022	6
22702	-0.00053	-0.00031	-8e-05	0	-0.00035	-0.00037	0.00023	0.00022	6
22703	-0.00053	-0.00031	-8e-05	0	-0.00035	-0.00037	0.00023	0.00022	6
22704	-0.00053	-0.00031	-8e-05	0	-0.00035	-0.00037	0.00023	0.00022	6
22705	-0.00053	-0.00031	-8e-05	0	-0.00035	-0.00037	0.00023	0.00022	6
22706	-0.00053	-0.00031	-8e-05	0	-0.00035	-0.00037	0.00023	0.00022	6
22707	-0.00053	-0.00031	-8e-05	0	-0.00035	-0.00037	0.00023	0.00022	6
22708	-0.00048	-0.00021	1e-05	-0.00019	3e-05	5e-05	0.00045	0.00052	6
22709	-0.00014	-3e-05	-1e-05	0.00017	0.00039	-3e-05	-2e-05	-5e-05	6
22710	-0.00014	-3e-05	-1e-05	0.00017	0.00039	-3e-05	-2e-05	-5e-05	6
22711	-0.00014	-3e-05	-1e-05	0.00017	0.00039	-3e-05	-2e-05	-5e-05	6
22712	-0.00014	-3e-05	-1e-05	0.00017	0.00039	-3e-05	-2e-05	-5e-05	6
22713	-0.00014	-3e-05	-1e-05	0.00017	0.00039	-3e-05	-2e-05	-5e-05	6
22714	-0.00014	-3e-05	-1e-05	0.00017	0.00039	-3e-05	-2e-05	-5e-05	6
22715	-0.00014	-3e-05	-1e-05	0.00017	0.00039	-3e-05	-2e-05	-5e-05	6
22716	-0.00014	-3e-05	-1e-05	0.00017	0.00039	-3e-05	-2e-05	-5e-05	6
22717	-0.00014	-3e-05	-1e-05	0.00017	0.00039	-3e-05	-2e-05	-5e-05	6
22718	-0.00014	-3e-05	-1e-05	0.00017	0.00039	-3e-05	-2e-05	-5e-05	6
22719	-0.00014	-3e-05	-1e-05	0.00017	0.00039	-3e-05	-2e-05	-5e-05	6
22720	-0.00014	-3e-05	-1e-05	0.00017	0.00039	-3e-05	-2e-05	-5e-05	6
22721	-0.00014	-3e-05	-1e-05	0.00017	0.00039	-3e-05	-2e-05	-5e-05	6
22722	-0.00014	-3e-05	-1e-05	0.00017	0.00039	-3e-05	-2e-05	-5e-05	6
22723	-0.00014	-3e-05	-1e-05	0.00017	0.00039	-3e-05	-2e-05	-5e-05	6
22724	-0.00014	-3e-05	-1e-05	0.00017	0.00039	-3e-05	-2e-05	-5e-05	6
22725	-0.00014	-3e-05	-1e-05	0.00017	0.00039	-3e-05	-2e-05	-5e-05	6
22726	-0.00014	-3e-05	-1e-05	0.00017	0.00039	-3e-05	-2e-05	-5e-05	6
22727	-0.00014	-3e-05	-1e-05	0.00017	0.00039	-3e-05	-2e-05	-5e-05	6
22728	-0.00014	-3e-05	-1e-05	0.00017	0.00039	-3e-05	-2e-05	-5e-05	6
22729	-0.00014	-3e-05	-1e-05	0.00017	0.00039	-3e-05	-2e-05	-5e-05	6
22730	-0.00014	-3e-05	-1e-05	0.00017	0.00039	-3e-05	-2e-05	-5e-05	6
22731	0.00057	7e-05	-4e-05	0	0.0001	-4e-05	0.00023	0.00064	6
22732	-0.00042	-6e-05	-3e-05	-0.00024	-0.00033	0.00034	-3e-05	9e-05	6
22733	-0.00042	-6e-05	-3e-05	-0.00024	-0.00033	0.00034	-3e-05	9e-05	6
22734	-0.00042	-6e-05	-3e-05	-0.00024	-0.00033	0.00034	-3e-05	9e-05	6
22735	-0.00042	-6e-05	-3e-05	-0.00024	-0.00033	0.00034	-3e-05	9e-05	6
22736	-0.00042	-6e-05	-3e-05	-0.00024	-0.00033	0.00034	-3e-05	9e-05	6
22739	-0.00042	-6e-05	-3e-05	-0.00024	-0.00033	0.00034	-3e-05	9e-05	6
22740	-0.00042	-6e-05	-3e-05	-0.00024	-0.00033	0.00034	-3e-05	9e-05	6
22741	-0.00042	-6e-05	-3e-05	-0.00024	-0.00033	0.00034	-3e-05	9e-05	6
22742	-0.00042	-6e-05	-3e-05	-0.00024	-0.00033	0.00034	-3e-05	9e-05	6
22743	-0.00042	-6e-05	-3e-05	-0.00024	-0.00033	0.00034	-3e-05	9e-05	6
22744	-0.00042	-6e-05	-3e-05	-0.00024	-0.00033	0.00034	-3e-05	9e-05	6
22745	-0.00042	-6e-05	-3e-05	-0.00024	-0.00033	0.00034	-3e-05	9e-05	6
22746	-0.00042	-6e-05	-3e-05	-0.00024	-0.00033	0.00034	-3e-05	9e-05	6
22747	0.00017	-6e-05	-1e-05	2e-05	-0.00015	-6e-05	-0.00041	-0.00033	6
22748	0.00017	-6e-05	-1e-05	2e-05	-0.00015	-6e-05	-0.00041	-0.00033	6
22749	0.00017	-6e-05	-1e-05	2e-05	-0.00015	-6e-05	-0.00041	-0.00033	6
22750	0.00017	-6e-05	-1e-05	2e-05	-0.00015	-6e-05	-0.00041	-0.00033	6
22751	0.00017	-6e-05	-1e-05	2e-05	-0.00015	-6e-05	-0.00041	-0.00033	6
22752	0.00017	-6e-05	-1e-05	2e-05	-0.00015	-6e-05	-0.00041	-0.00033	6
22753	0.00017	-6e-05	-1e-05	2e-05	-0.00015	-6e-05	-0.00041	-0.00033	6
22754	0.00017	-6e-05	-1e-05	2e-05	-0.00015	-6e-05	-0.00041	-0.00033	6
22755	0.00017	-6e-05	-1e-05	2e-05	-0.00015	-6e-05	-0.00041	-0.00033	6
22756	0.00017	-6e-05	-1e-05	2e-05	-0.00015	-6e-05	-0.00041	-0.00033	6
22757	0.00017	-6e-05	-1e-05	2e-05	-0.00015	-6e-05	-0.00041	-0.00033	6
22758	0.00017	-6e-05	-1e-05	2e-05	-0.00015	-6e-05	-0.00041	-0.00033	6
22759	0.00017	-6e-05	-1e-05	2e-05	-0.00015	-6e-05	-0.00041	-0.00033	6
22760	0.00017	-6e-05	-1e-05	2e-05	-0.00015	-6e-05	-0.00041	-0.00033	6
22761	0.00017	-6e-05	-1e-05	2e-05	-0.00015	-6e-05	-0.00041	-0.00033	6
22762	0.00017	-6e-05	-1e-05	2e-05	-0.00015	-6e-05	-0.00041	-0.00033	6
22763	0.00017	-6e-05	-1e-05	2e-05	-0.00015	-6e-05	-0.00041	-0.00033	6
22764	0.00017	-6e-05	-1e-05	2e-05	-0.00015	-6e-05	-0.00041	-0.00033	6
22765	0.00017	-6e-05	-1e-05	2e-05	-0.00015	-6e-05	-0.00041	-0.00033	6
22766	0.00017	-6e-05	-1e-05	2e-05	-0.00015	-6e-05	-0.00041	-0.00033	6
22767	0.00017	-6e-05	-1e-05	2e-05	-0.00015	-6e-05	-0.00041	-0.00033	6
22768	0.00017	-6e-05	-1e-05	2e-05	-0.00015	-6e-05	-0.00041	-0.00033	6
22769	-0.00053	-9e-05	-1e-05	9e-05	0.0002	0	-9e-05	-0.00034	6
22770	0.00012	-8e-05	4e-05	0.0001	8e-05	2e-05	-6e-05	-3e-05	6
22771	0.00012	-8e-05	4e-05	0.0001	8e-05	2e-05	-6e-05	-3e-05	6
22772	0.00012	-8e-05	4e-05	0.0001	8e-05	2e-05	-6e-05	-3e-05	6
22773	0.00012	-8e-05	4e-05	0.0001	8e-05	2e-05	-6e-05	-3e-05	6
22774	0.00012	-8e-05	4e-05	0.0001	8e-05	2e-05	-6e-05	-3e-05	6
22775	0.00012	-8e-05	4e-05	0.0001	8e-05	2e-05	-6e-05	-3e-05	6
22776	0.00012	-8e-05	4e-05	0.0001	8e-05	2e-05	-6e-05	-3e-05	6
22777	0.00012	-8e-05	4e-05	0.0001	8e-05	2e-05	-6e-05	-3e-05	6
22778	0.00012	-8e-05	4e-05	0.0001	8e-05	2e-05	-6e-05	-3e-05	6
22779	0.00012	-8e-05	4e-05	0.0001	8e-05	2e-05	-6e-05	-3e-05	6
22780	0.00012	-8e-05	4e-05	0.0001	8e-05	2e-05	-6e-05	-3e-05	6
22781	0.00012	-8e-05	4e-05	0.0001	8e-05	2e-05	-6e-05	-3e-05	6
22782	0.00012	-8e-05	4e-05	0.0001	8e-05	2e-05	-6e-05	-3e-05	6
22783	0.00012	-8e-05	4e-05	0.0001	8e-05	2e-05	-6e-05	-3e-05	6
22784	0.00012	-8e-05	4e-05	0.0001	8e-05	2e-05	-6e-05	-3e-05	6
22785	0.00012	-8e-05	4e-05	0.0001	8e-05	2e-05	-6e-05	-3e-05	6
22786	0.00012	-8e-05	4e-05	0.0001	8e-05	2e-05	-6e-05	-3e-05	6
22789	0.00012	-8e-05	4e-05	0.0001	8e-05	2e-05	-6e-05	-3e-05	6
22790	0.00012	-8e-05	4e-05	0.0001	8e-05	2e-05	-6e-05	-3e-05	6
22791	-0.00021	-9e-05	-9e-05	-8e-05	-0.00027	-7e-05	-0.00016	0.00028	6
22792	0.00061	0.00016	4e-05	0.00016	-0.00028	-0.00011	-4e-05	0.00036	6
22793	0.00061	0.00016	4e-05	0.00016	-0.00028	-0.00011	-4e-05	0.00036	6
22794	0.00061	0.00016	4e-05	0.00016	-0.00028	-0.00011	-4e-05	0.00036	6
22795	0.00061	0.00016	4e-05	0.00016	-0.00028	-0.00011	-4e-05	0.00036	6
22796	0.00061	0.00016	4e-05	0.00016	-0.00028	-0.00011	-4e-05	0.00036	6
22797	0.00061	0.00016	4e-05	0.00016	-0.00028	-0.00011	-4e-05	0.00036	6
22798	0.00061	0.00016	4e-05	0.00016	-0.00028	-0.00011	-4e-05	0.00036	6
22799	0.00061	0.00016	4e-05	0.00016	-0.00028	-0.00011	-4e-05	0.00036	6
22800	0.00061	0.00016	4e-05	0.00016	-0.00028	-0.00011	-4e-05	0.00036	6
22801	0.00061	0.00016	4e-05	0.00016	-0.00028	-0.00011	-4e-05	0.00036	6
22802	0.00061	0.00016	4e-05	0.00016	-0.00028	-0.00011	-4e-05	0.00036	6
22803	0.00061	0.00016	4e-05	0.00016	-0.00028	-0.00011	-4e-05	0.00036	6
22804	0.00061	0.00016	4e-05	0.00016	-0.00028	-0.00011	-4e-05	0.00036	6
22805	0.00061	0.00016	4e-05	0.00016	-0.00028	-0.00011	-4e-05	0.00036	6
22806	-0.00013	0.00013	-1e-05	-2e-05	7e-05	-6e-05	-3e-05	0.00017	6
22807	-0.00096	-0.00011	-6e-05	-3e-05	-1e-05	-0.00033	-0.00012	-0.00026	6
22808	-0.00096	-0.00011	-6e-05	-3e-05	-1e-05	-0.00033	-0.00012	-0.00026	6
22809	-0.00096	-0.00011	-6e-05	-3e-05	-1e-05	-0.00033	-0.00012	-0.00026	6
22810	-0.00096	-0.00011	-6e-05	-3e-05	-1e-05	-0.00033	-0.00012	-0.00026	6
22811	-0.00096	-0.00011	-6e-05	-3e-05	-1e-05	-0.00033	-0.00012	-0.00026	6
22812	-0.00096	-0.00011	-6e-05	-3e-05	-1e-05	-0.00033	-0.00012	-0.00026	6
22813	-0.00096	-0.00011	-6e-05	-3e-05	-1e-05	-0.00033	-0.00012	-0.00026	6
22814	-0.00096	-0.00011	-6e-05	-3e-05	-1e-05	-0.00033	-0.00012	-0.00026	6
22815	-0.00096	-0.00011	-6e-05	-3e-05	-1e-05	-0.00033	-0.00012	-0.00026	6
22816	-0.00096	-0.00011	-6e-05	-3e-05	-1e-05	-0.00033	-0.00012	-0.00026	6
22817	-0.00096	-0.00011	-6e-05	-3e-05	-1e-05	-0.00033	-0.00012	-0.00026	6
22818	-0.00096	-0.00011	-6e-05	-3e-05	-1e-05	-0.00033	-0.00012	-0.00026	6
22819	-0.00096	-0.00011	-6e-05	-3e-05	-1e-05	-0.00033	-0.00012	-0.00026	6
22820	-0.00096	-0.00011	-6e-05	-3e-05	-1e-05	-0.00033	-0.00012	-0.00026	6
22821	-0.00096	-0.00011	-6e-05	-3e-05	-1e-05	-0.00033	-0.00012	-0.00026	6
22822	-0.00096	-0.00011	-6e-05	-3e-05	-1e-05	-0.00033	-0.00012	-0.00026	6
22823	-0.00096	-0.00011	-6e-05	-3e-05	-1e-05	-0.00033	-0.00012	-0.00026	6
22824	-0.00096	-0.00011	-6e-05	-3e-05	-1e-05	-0.00033	-0.00012	-0.00026	6
22825	-0.00096	-0.00011	-6e-05	-3e-05	-1e-05	-0.00033	-0.00012	-0.00026	6
22826	-0.00096	-0.00011	-6e-05	-3e-05	-1e-05	-0.00033	-0.00012	-0.00026	6
22827	-0.00096	-0.00011	-6e-05	-3e-05	-1e-05	-0.00033	-0.00012	-0.00026	6
22828	-0.00096	-0.00011	-6e-05	-3e-05	-1e-05	-0.00033	-0.00012	-0.00026	6
22830	0.00021	4e-05	-5e-05	-7e-05	8e-05	4e-05	0.0001	8e-05	6
22831	0.00018	0.00014	-4e-05	-8e-05	7e-05	0.00026	4e-05	0.0001	6
22832	0.00018	0.00014	-4e-05	-8e-05	7e-05	0.00026	4e-05	0.0001	6
22833	0.00018	0.00014	-4e-05	-8e-05	7e-05	0.00026	4e-05	0.0001	6
22834	0.00018	0.00014	-4e-05	-8e-05	7e-05	0.00026	4e-05	0.0001	6
22835	0.00018	0.00014	-4e-05	-8e-05	7e-05	0.00026	4e-05	0.0001	6
22836	0.00018	0.00014	-4e-05	-8e-05	7e-05	0.00026	4e-05	0.0001	6
22839	0.00018	0.00014	-4e-05	-8e-05	7e-05	0.00026	4e-05	0.0001	6
22840	0.00018	0.00014	-4e-05	-8e-05	7e-05	0.00026	4e-05	0.0001	6
22841	0.00018	0.00014	-4e-05	-8e-05	7e-05	0.00026	4e-05	0.0001	6
22842	0.00018	0.00014	-4e-05	-8e-05	7e-05	0.00026	4e-05	0.0001	6
22843	0.00018	0.00014	-4e-05	-8e-05	7e-05	0.00026	4e-05	0.0001	6
22844	0.00018	0.00014	-4e-05	-8e-05	7e-05	0.00026	4e-05	0.0001	6
22845	0.00018	0.00014	-4e-05	-8e-05	7e-05	0.00026	4e-05	0.0001	6
22846	0.00018	0.00014	-4e-05	-8e-05	7e-05	0.00026	4e-05	0.0001	6
22847	0.00018	0.00014	-4e-05	-8e-05	7e-05	0.00026	4e-05	0.0001	6
22848	0.00018	0.00014	-4e-05	-8e-05	7e-05	0.00026	4e-05	0.0001	6
22850	0.00018	0.00014	-4e-05	-8e-05	7e-05	0.00026	4e-05	0.0001	6
22851	0.00018	0.00014	-4e-05	-8e-05	7e-05	0.00026	4e-05	0.0001	6
22852	-0.00038	-5e-05	-7e-05	-0.00025	-6e-05	6e-05	-0.0001	4e-05	6
22853	0.00038	4e-05	3e-05	2e-05	-0.00031	-0.00038	0.00023	0.00052	6
22854	-0.00048	-1e-05	2e-05	3e-05	-0.00033	-7e-05	-0.00061	-0.00085	6
22855	-0.00048	-1e-05	2e-05	3e-05	-0.00033	-7e-05	-0.00061	-0.00085	6
22856	-0.00048	-1e-05	2e-05	3e-05	-0.00033	-7e-05	-0.00061	-0.00085	6
22857	-0.00048	-1e-05	2e-05	3e-05	-0.00033	-7e-05	-0.00061	-0.00085	6
22858	-0.00048	-1e-05	2e-05	3e-05	-0.00033	-7e-05	-0.00061	-0.00085	6
22859	-0.00048	-1e-05	2e-05	3e-05	-0.00033	-7e-05	-0.00061	-0.00085	6
22860	-0.00048	-1e-05	2e-05	3e-05	-0.00033	-7e-05	-0.00061	-0.00085	6
22861	-0.00048	-1e-05	2e-05	3e-05	-0.00033	-7e-05	-0.00061	-0.00085	6
22862	-0.00048	-1e-05	2e-05	3e-05	-0.00033	-7e-05	-0.00061	-0.00085	6
22863	-0.00048	-1e-05	2e-05	3e-05	-0.00033	-7e-05	-0.00061	-0.00085	6
22864	-0.00048	-1e-05	2e-05	3e-05	-0.00033	-7e-05	-0.00061	-0.00085	6
22865	0.00014	1e-05	1e-05	0.00022	-0.00041	-0.0002	-4e-05	-0.00042	6
22866	0.00014	1e-05	1e-05	0.00022	-0.00041	-0.0002	-4e-05	-0.00042	6
22867	0.00014	1e-05	1e-05	0.00022	-0.00041	-0.0002	-4e-05	-0.00042	6
22868	0.00014	1e-05	1e-05	0.00022	-0.00041	-0.0002	-4e-05	-0.00042	6
22869	0.00014	1e-05	1e-05	0.00022	-0.00041	-0.0002	-4e-05	-0.00042	6
22870	0.00014	1e-05	1e-05	0.00022	-0.00041	-0.0002	-4e-05	-0.00042	6
22871	0.00014	1e-05	1e-05	0.00022	-0.00041	-0.0002	-4e-05	-0.00042	6
22872	0.00014	1e-05	1e-05	0.00022	-0.00041	-0.0002	-4e-05	-0.00042	6
22873	0.00014	1e-05	1e-05	0.00022	-0.00041	-0.0002	-4e-05	-0.00042	6
22874	-5e-05	0.00011	2e-05	1e-05	-4e-05	0.00012	0.00015	0.00021	6
22875	-5e-05	0.00011	2e-05	1e-05	-4e-05	0.00012	0.00015	0.00021	6
22876	-5e-05	0.00011	2e-05	1e-05	-4e-05	0.00012	0.00015	0.00021	6
22877	-5e-05	0.00011	2e-05	1e-05	-4e-05	0.00012	0.00015	0.00021	6
22878	-5e-05	0.00011	2e-05	1e-05	-4e-05	0.00012	0.00015	0.00021	6
22879	-5e-05	0.00011	2e-05	1e-05	-4e-05	0.00012	0.00015	0.00021	6
22880	-5e-05	0.00011	2e-05	1e-05	-4e-05	0.00012	0.00015	0.00021	6
22881	-5e-05	0.00011	2e-05	1e-05	-4e-05	0.00012	0.00015	0.00021	6
22882	-5e-05	0.00011	2e-05	1e-05	-4e-05	0.00012	0.00015	0.00021	6
22883	-5e-05	0.00011	2e-05	1e-05	-4e-05	0.00012	0.00015	0.00021	6
22884	-5e-05	0.00011	2e-05	1e-05	-4e-05	0.00012	0.00015	0.00021	6
22885	-5e-05	0.00011	2e-05	1e-05	-4e-05	0.00012	0.00015	0.00021	6
22886	-5e-05	0.00011	2e-05	1e-05	-4e-05	0.00012	0.00015	0.00021	6
22889	-0.00033	-3e-05	-1e-05	-0.00017	-0.00055	5e-05	-0.00015	-0.0006	6
22890	0.00017	-9e-05	-9e-05	4e-05	0.00059	0.00023	0.00022	0.00022	6
22891	0.00017	-9e-05	-9e-05	4e-05	0.00059	0.00023	0.00022	0.00022	6
22892	0.00017	-9e-05	-9e-05	4e-05	0.00059	0.00023	0.00022	0.00022	6
22893	0.00017	-9e-05	-9e-05	4e-05	0.00059	0.00023	0.00022	0.00022	6
22894	0.00017	-9e-05	-9e-05	4e-05	0.00059	0.00023	0.00022	0.00022	6
22895	0.00017	-9e-05	-9e-05	4e-05	0.00059	0.00023	0.00022	0.00022	6
22896	0.00017	-9e-05	-9e-05	4e-05	0.00059	0.00023	0.00022	0.00022	6
22897	0.00017	-9e-05	-9e-05	4e-05	0.00059	0.00023	0.00022	0.00022	6
22898	0.00017	-9e-05	-9e-05	4e-05	0.00059	0.00023	0.00022	0.00022	6
22899	0.00017	-9e-05	-9e-05	4e-05	0.00059	0.00023	0.00022	0.00022	6
22900	0.00017	-9e-05	-9e-05	4e-05	0.00059	0.00023	0.00022	0.00022	6
22901	0.00017	-9e-05	-9e-05	4e-05	0.00059	0.00023	0.00022	0.00022	6
22902	0.00017	-9e-05	-9e-05	4e-05	0.00059	0.00023	0.00022	0.00022	6
22903	0.00017	-9e-05	-9e-05	4e-05	0.00059	0.00023	0.00022	0.00022	6
22904	0.00017	-9e-05	-9e-05	4e-05	0.00059	0.00023	0.00022	0.00022	6
22905	0.00017	-9e-05	-9e-05	4e-05	0.00059	0.00023	0.00022	0.00022	6
22906	0.00017	-9e-05	-9e-05	4e-05	0.00059	0.00023	0.00022	0.00022	6
22907	0.00017	-9e-05	-9e-05	4e-05	0.00059	0.00023	0.00022	0.00022	6
22908	0.00017	-9e-05	-9e-05	4e-05	0.00059	0.00023	0.00022	0.00022	6
22909	0.00017	-9e-05	-9e-05	4e-05	0.00059	0.00023	0.00022	0.00022	6
22910	0.00017	-9e-05	-9e-05	4e-05	0.00059	0.00023	0.00022	0.00022	6
22911	0.00026	-0.00018	1e-05	9e-05	4e-05	-4e-05	3e-05	0.00061	6
22912	0.00026	-0.00018	1e-05	9e-05	4e-05	-4e-05	3e-05	0.00061	6
22913	0.00063	0.00011	1e-05	-8e-05	-7e-05	-0.00017	2e-05	0.00064	6
22914	0.00063	0.00011	1e-05	-8e-05	-7e-05	-0.00017	2e-05	0.00064	6
22915	0.00063	0.00011	1e-05	-8e-05	-7e-05	-0.00017	2e-05	0.00064	6
22916	0.00063	0.00011	1e-05	-8e-05	-7e-05	-0.00017	2e-05	0.00064	6
22917	0.00063	0.00011	1e-05	-8e-05	-7e-05	-0.00017	2e-05	0.00064	6
22918	0.00063	0.00011	1e-05	-8e-05	-7e-05	-0.00017	2e-05	0.00064	6
22919	0.00063	0.00011	1e-05	-8e-05	-7e-05	-0.00017	2e-05	0.00064	6
22920	0.00063	0.00011	1e-05	-8e-05	-7e-05	-0.00017	2e-05	0.00064	6
22921	0.00063	0.00011	1e-05	-8e-05	-7e-05	-0.00017	2e-05	0.00064	6
22922	0.00063	0.00011	1e-05	-8e-05	-7e-05	-0.00017	2e-05	0.00064	6
22923	0.00063	0.00011	1e-05	-8e-05	-7e-05	-0.00017	2e-05	0.00064	6
22924	0.00063	0.00011	1e-05	-8e-05	-7e-05	-0.00017	2e-05	0.00064	6
22925	0.00024	0.00014	4e-05	-3e-05	5e-05	-2e-05	0.00012	0.0003	6
22926	0.00024	0.00014	4e-05	-3e-05	5e-05	-2e-05	0.00012	0.0003	6
22927	0.00024	0.00014	4e-05	-3e-05	5e-05	-2e-05	0.00012	0.0003	6
22928	0.00024	0.00014	4e-05	-3e-05	5e-05	-2e-05	0.00012	0.0003	6
22929	0.00024	0.00014	4e-05	-3e-05	5e-05	-2e-05	0.00012	0.0003	6
22930	0.00024	0.00014	4e-05	-3e-05	5e-05	-2e-05	0.00012	0.0003	6
22931	0.00024	0.00014	4e-05	-3e-05	5e-05	-2e-05	0.00012	0.0003	6
22932	0.00024	0.00014	4e-05	-3e-05	5e-05	-2e-05	0.00012	0.0003	6
22933	0.00024	0.00014	4e-05	-3e-05	5e-05	-2e-05	0.00012	0.0003	6
22934	9e-05	-1e-05	-8e-05	-0.00017	-0.00024	-0.00014	7e-05	-1e-05	6
22935	9e-05	-1e-05	-8e-05	-0.00017	-0.00024	-0.00014	7e-05	-1e-05	6
22936	9e-05	-1e-05	-8e-05	-0.00017	-0.00024	-0.00014	7e-05	-1e-05	6
22938	9e-05	-1e-05	-8e-05	-0.00017	-0.00024	-0.00014	7e-05	-1e-05	6
22939	9e-05	-1e-05	-8e-05	-0.00017	-0.00024	-0.00014	7e-05	-1e-05	6
22940	9e-05	-1e-05	-8e-05	-0.00017	-0.00024	-0.00014	7e-05	-1e-05	6
22941	9e-05	-1e-05	-8e-05	-0.00017	-0.00024	-0.00014	7e-05	-1e-05	6
22942	9e-05	-1e-05	-8e-05	-0.00017	-0.00024	-0.00014	7e-05	-1e-05	6
22943	9e-05	-1e-05	-8e-05	-0.00017	-0.00024	-0.00014	7e-05	-1e-05	6
22944	9e-05	-1e-05	-8e-05	-0.00017	-0.00024	-0.00014	7e-05	-1e-05	6
22945	9e-05	-1e-05	-8e-05	-0.00017	-0.00024	-0.00014	7e-05	-1e-05	6
22946	9e-05	-1e-05	-8e-05	-0.00017	-0.00024	-0.00014	7e-05	-1e-05	6
22947	9e-05	-1e-05	-8e-05	-0.00017	-0.00024	-0.00014	7e-05	-1e-05	6
22948	9e-05	-1e-05	-8e-05	-0.00017	-0.00024	-0.00014	7e-05	-1e-05	6
22949	-0.00031	7e-05	0.00011	0.00012	0.00069	0.00052	-8e-05	-0.0001	6
22950	0.00024	4e-05	-1e-05	-6e-05	-4e-05	-3e-05	8e-05	-0.00014	6
22951	0.00024	4e-05	-1e-05	-6e-05	-4e-05	-3e-05	8e-05	-0.00014	6
22952	0.00024	4e-05	-1e-05	-6e-05	-4e-05	-3e-05	8e-05	-0.00014	6
22953	0.00024	4e-05	-1e-05	-6e-05	-4e-05	-3e-05	8e-05	-0.00014	6
22954	0.00024	4e-05	-1e-05	-6e-05	-4e-05	-3e-05	8e-05	-0.00014	6
22955	0.00024	4e-05	-1e-05	-6e-05	-4e-05	-3e-05	8e-05	-0.00014	6
22956	0.00024	4e-05	-1e-05	-6e-05	-4e-05	-3e-05	8e-05	-0.00014	6
22957	0.00024	4e-05	-1e-05	-6e-05	-4e-05	-3e-05	8e-05	-0.00014	6
22958	0.00024	4e-05	-1e-05	-6e-05	-4e-05	-3e-05	8e-05	-0.00014	6
22959	0.00024	4e-05	-1e-05	-6e-05	-4e-05	-3e-05	8e-05	-0.00014	6
22960	0.00024	4e-05	-1e-05	-6e-05	-4e-05	-3e-05	8e-05	-0.00014	6
22961	0.00024	4e-05	-1e-05	-6e-05	-4e-05	-3e-05	8e-05	-0.00014	6
22962	0.00024	4e-05	-1e-05	-6e-05	-4e-05	-3e-05	8e-05	-0.00014	6
22963	0.00024	4e-05	-1e-05	-6e-05	-4e-05	-3e-05	8e-05	-0.00014	6
22964	0.00024	4e-05	-1e-05	-6e-05	-4e-05	-3e-05	8e-05	-0.00014	6
22965	0.00024	4e-05	-1e-05	-6e-05	-4e-05	-3e-05	8e-05	-0.00014	6
22966	0.00024	4e-05	-1e-05	-6e-05	-4e-05	-3e-05	8e-05	-0.00014	6
22967	0.00024	4e-05	-1e-05	-6e-05	-4e-05	-3e-05	8e-05	-0.00014	6
22968	0.00024	4e-05	-1e-05	-6e-05	-4e-05	-3e-05	8e-05	-0.00014	6
22969	0.00024	4e-05	-1e-05	-6e-05	-4e-05	-3e-05	8e-05	-0.00014	6
22970	0.00024	4e-05	-1e-05	-6e-05	-4e-05	-3e-05	8e-05	-0.00014	6
22971	0.00038	-8e-05	-0.00011	-0.00018	0.00024	0.0001	-6e-05	0.00027	6
22972	0.00038	-8e-05	-0.00011	-0.00018	0.00024	0.0001	-6e-05	0.00027	6
22973	-0.0005	-0.00021	-7e-05	2e-05	-0.0002	-0.00018	-3e-05	6e-05	6
22974	-0.0005	-0.00021	-7e-05	2e-05	-0.0002	-0.00018	-3e-05	6e-05	6
22975	-0.0005	-0.00021	-7e-05	2e-05	-0.0002	-0.00018	-3e-05	6e-05	6
22976	-0.0005	-0.00021	-7e-05	2e-05	-0.0002	-0.00018	-3e-05	6e-05	6
22977	-0.0005	-0.00021	-7e-05	2e-05	-0.0002	-0.00018	-3e-05	6e-05	6
22978	-0.0005	-0.00021	-7e-05	2e-05	-0.0002	-0.00018	-3e-05	6e-05	6
22979	-0.0005	-0.00021	-7e-05	2e-05	-0.0002	-0.00018	-3e-05	6e-05	6
22980	-0.0005	-0.00021	-7e-05	2e-05	-0.0002	-0.00018	-3e-05	6e-05	6
22981	-0.0005	-0.00021	-7e-05	2e-05	-0.0002	-0.00018	-3e-05	6e-05	6
22982	-0.0005	-0.00021	-7e-05	2e-05	-0.0002	-0.00018	-3e-05	6e-05	6
22983	-0.0005	-0.00021	-7e-05	2e-05	-0.0002	-0.00018	-3e-05	6e-05	6
22984	-0.0005	-0.00021	-7e-05	2e-05	-0.0002	-0.00018	-3e-05	6e-05	6
22985	0.00017	5e-05	0	0.00012	0.00024	0.00019	3e-05	-0.00017	6
22986	-0.0002	0.0003	8e-05	5e-05	-3e-05	-0.00011	3e-05	-0.00038	6
22989	-0.0002	0.0003	8e-05	5e-05	-3e-05	-0.00011	3e-05	-0.00038	6
22990	-0.0002	0.0003	8e-05	5e-05	-3e-05	-0.00011	3e-05	-0.00038	6
22991	-0.0002	0.0003	8e-05	5e-05	-3e-05	-0.00011	3e-05	-0.00038	6
22992	0.00064	0.00012	7e-05	5e-05	-0.00039	-0.00018	0.0001	0.00077	6
22993	0.00064	0.00012	7e-05	5e-05	-0.00039	-0.00018	0.0001	0.00077	6
22994	0.00064	0.00012	7e-05	5e-05	-0.00039	-0.00018	0.0001	0.00077	6
22995	0.00064	0.00012	7e-05	5e-05	-0.00039	-0.00018	0.0001	0.00077	6
22996	0.00064	0.00012	7e-05	5e-05	-0.00039	-0.00018	0.0001	0.00077	6
22997	0.00064	0.00012	7e-05	5e-05	-0.00039	-0.00018	0.0001	0.00077	6
22998	0.00064	0.00012	7e-05	5e-05	-0.00039	-0.00018	0.0001	0.00077	6
22999	0.00064	0.00012	7e-05	5e-05	-0.00039	-0.00018	0.0001	0.00077	6
23000	0.00064	0.00012	7e-05	5e-05	-0.00039	-0.00018	0.0001	0.00077	6
23001	0.00064	0.00012	7e-05	5e-05	-0.00039	-0.00018	0.0001	0.00077	6
23002	0.00064	0.00012	7e-05	5e-05	-0.00039	-0.00018	0.0001	0.00077	6
23003	0.00064	0.00012	7e-05	5e-05	-0.00039	-0.00018	0.0001	0.00077	6
23004	0.00064	0.00012	7e-05	5e-05	-0.00039	-0.00018	0.0001	0.00077	6
23005	0.00064	0.00012	7e-05	5e-05	-0.00039	-0.00018	0.0001	0.00077	6
23006	0.00064	0.00012	7e-05	5e-05	-0.00039	-0.00018	0.0001	0.00077	6
23007	0.00064	0.00012	7e-05	5e-05	-0.00039	-0.00018	0.0001	0.00077	6
23008	0.00064	0.00012	7e-05	5e-05	-0.00039	-0.00018	0.0001	0.00077	6
23009	-0.00084	-3e-05	-1e-05	0.00024	0.0003	-0.00025	-0.00014	-3e-05	6
23010	-0.00081	-2e-05	6e-05	-1e-05	7e-05	0.00046	0.00013	-0.00015	6
23012	-0.00081	-2e-05	6e-05	-1e-05	7e-05	0.00046	0.00013	-0.00015	6
23013	-0.00081	-2e-05	6e-05	-1e-05	7e-05	0.00046	0.00013	-0.00015	6
23014	-0.00081	-2e-05	6e-05	-1e-05	7e-05	0.00046	0.00013	-0.00015	6
23015	-0.00081	-2e-05	6e-05	-1e-05	7e-05	0.00046	0.00013	-0.00015	6
23016	-0.00081	-2e-05	6e-05	-1e-05	7e-05	0.00046	0.00013	-0.00015	6
23017	-0.00081	-2e-05	6e-05	-1e-05	7e-05	0.00046	0.00013	-0.00015	6
23018	-0.00081	-2e-05	6e-05	-1e-05	7e-05	0.00046	0.00013	-0.00015	6
23019	-0.00081	-2e-05	6e-05	-1e-05	7e-05	0.00046	0.00013	-0.00015	6
23020	-0.00081	-2e-05	6e-05	-1e-05	7e-05	0.00046	0.00013	-0.00015	6
23021	-0.00081	-2e-05	6e-05	-1e-05	7e-05	0.00046	0.00013	-0.00015	6
23022	-0.00081	-2e-05	6e-05	-1e-05	7e-05	0.00046	0.00013	-0.00015	6
23023	-0.00081	-2e-05	6e-05	-1e-05	7e-05	0.00046	0.00013	-0.00015	6
23024	-0.00081	-2e-05	6e-05	-1e-05	7e-05	0.00046	0.00013	-0.00015	6
23025	-0.00081	-2e-05	6e-05	-1e-05	7e-05	0.00046	0.00013	-0.00015	6
23026	-0.00081	-2e-05	6e-05	-1e-05	7e-05	0.00046	0.00013	-0.00015	6
23027	-0.00081	-2e-05	6e-05	-1e-05	7e-05	0.00046	0.00013	-0.00015	6
23028	-0.00081	-2e-05	6e-05	-1e-05	7e-05	0.00046	0.00013	-0.00015	6
23029	-0.00081	-2e-05	6e-05	-1e-05	7e-05	0.00046	0.00013	-0.00015	6
23030	-0.00081	-2e-05	6e-05	-1e-05	7e-05	0.00046	0.00013	-0.00015	6
23031	-0.00016	-0.00013	4e-05	7e-05	0.0007	0.00043	0.00024	-9e-05	6
23032	-0.00016	-0.00013	4e-05	7e-05	0.0007	0.00043	0.00024	-9e-05	6
23033	-0.00016	-0.00013	4e-05	7e-05	0.0007	0.00043	0.00024	-9e-05	6
23034	-0.00016	-0.00013	4e-05	7e-05	0.0007	0.00043	0.00024	-9e-05	6
23035	-0.00016	-0.00013	4e-05	7e-05	0.0007	0.00043	0.00024	-9e-05	6
23036	-0.00016	-0.00013	4e-05	7e-05	0.0007	0.00043	0.00024	-9e-05	6
23039	-0.00016	-0.00013	4e-05	7e-05	0.0007	0.00043	0.00024	-9e-05	6
23040	-0.00016	-0.00013	4e-05	7e-05	0.0007	0.00043	0.00024	-9e-05	6
23041	-0.00016	-0.00013	4e-05	7e-05	0.0007	0.00043	0.00024	-9e-05	6
23042	-0.00016	-0.00013	4e-05	7e-05	0.0007	0.00043	0.00024	-9e-05	6
23043	-0.00016	-0.00013	4e-05	7e-05	0.0007	0.00043	0.00024	-9e-05	6
23044	-0.00016	-0.00013	4e-05	7e-05	0.0007	0.00043	0.00024	-9e-05	6
23045	-0.00016	-0.00013	4e-05	7e-05	0.0007	0.00043	0.00024	-9e-05	6
23047	-0.00016	-0.00013	4e-05	7e-05	0.0007	0.00043	0.00024	-9e-05	6
23048	0.0002	-5e-05	-5e-05	-0.00011	-0.00016	-1e-05	-0.00012	-0.0001	6
23049	0.0002	-5e-05	-5e-05	-0.00011	-0.00016	-1e-05	-0.00012	-0.0001	6
23050	0.0002	-5e-05	-5e-05	-0.00011	-0.00016	-1e-05	-0.00012	-0.0001	6
23051	0.0002	-5e-05	-5e-05	-0.00011	-0.00016	-1e-05	-0.00012	-0.0001	6
23052	0.00033	5e-05	2e-05	3e-05	0.00059	0	8e-05	7e-05	6
23053	0.00033	5e-05	2e-05	3e-05	0.00059	0	8e-05	7e-05	6
23054	0.00033	5e-05	2e-05	3e-05	0.00059	0	8e-05	7e-05	6
23055	0.00033	5e-05	2e-05	3e-05	0.00059	0	8e-05	7e-05	6
23056	0.00033	5e-05	2e-05	3e-05	0.00059	0	8e-05	7e-05	6
23057	0.00033	5e-05	2e-05	3e-05	0.00059	0	8e-05	7e-05	6
23058	0.00033	5e-05	2e-05	3e-05	0.00059	0	8e-05	7e-05	6
23059	0.00033	5e-05	2e-05	3e-05	0.00059	0	8e-05	7e-05	6
23060	0.00033	5e-05	2e-05	3e-05	0.00059	0	8e-05	7e-05	6
45685	-8e-05	1e-05	4e-05	-0.00016	-0.00033	3e-05	0.00015	0.00026	6
45688	-8e-05	1e-05	4e-05	-0.00016	-0.00033	3e-05	0.00015	0.00026	6
45689	-0.00021	-0.00012	-4e-05	-4e-05	-0.00075	-0.00054	-0.0002	0	6
45690	-4e-05	4e-05	-3e-05	-6e-05	0.00014	0.00016	-0.00045	-0.00011	6
45691	-4e-05	4e-05	-3e-05	-6e-05	0.00014	0.00016	-0.00045	-0.00011	6
45692	-4e-05	4e-05	-3e-05	-6e-05	0.00014	0.00016	-0.00045	-0.00011	6
45693	-4e-05	4e-05	-3e-05	-6e-05	0.00014	0.00016	-0.00045	-0.00011	6
45694	-4e-05	4e-05	-3e-05	-6e-05	0.00014	0.00016	-0.00045	-0.00011	6
45695	-4e-05	4e-05	-3e-05	-6e-05	0.00014	0.00016	-0.00045	-0.00011	6
45696	-4e-05	4e-05	-3e-05	-6e-05	0.00014	0.00016	-0.00045	-0.00011	6
45697	-4e-05	4e-05	-3e-05	-6e-05	0.00014	0.00016	-0.00045	-0.00011	6
45698	-4e-05	4e-05	-3e-05	-6e-05	0.00014	0.00016	-0.00045	-0.00011	6
45699	-4e-05	4e-05	-3e-05	-6e-05	0.00014	0.00016	-0.00045	-0.00011	6
45700	-4e-05	4e-05	-3e-05	-6e-05	0.00014	0.00016	-0.00045	-0.00011	6
45701	-4e-05	4e-05	-3e-05	-6e-05	0.00014	0.00016	-0.00045	-0.00011	6
45702	-4e-05	4e-05	-3e-05	-6e-05	0.00014	0.00016	-0.00045	-0.00011	6
45703	-4e-05	4e-05	-3e-05	-6e-05	0.00014	0.00016	-0.00045	-0.00011	6
45704	-4e-05	4e-05	-3e-05	-6e-05	0.00014	0.00016	-0.00045	-0.00011	6
45705	-4e-05	4e-05	-3e-05	-6e-05	0.00014	0.00016	-0.00045	-0.00011	6
45706	-4e-05	4e-05	-3e-05	-6e-05	0.00014	0.00016	-0.00045	-0.00011	6
45707	-4e-05	4e-05	-3e-05	-6e-05	0.00014	0.00016	-0.00045	-0.00011	6
45708	-4e-05	4e-05	-3e-05	-6e-05	0.00014	0.00016	-0.00045	-0.00011	6
45709	-4e-05	4e-05	-3e-05	-6e-05	0.00014	0.00016	-0.00045	-0.00011	6
45710	-4e-05	4e-05	-3e-05	-6e-05	0.00014	0.00016	-0.00045	-0.00011	6
45711	0	6e-05	2e-05	5e-05	-0.0006	-0.0008	0.00069	0.00043	6
45712	0	6e-05	2e-05	5e-05	-0.0006	-0.0008	0.00069	0.00043	6
45713	-0.00013	3e-05	8e-05	-0.00022	-0.00021	0.00022	0	-1e-05	6
45714	-0.00013	3e-05	8e-05	-0.00022	-0.00021	0.00022	0	-1e-05	6
45715	-0.00013	3e-05	8e-05	-0.00022	-0.00021	0.00022	0	-1e-05	6
45716	-0.00013	3e-05	8e-05	-0.00022	-0.00021	0.00022	0	-1e-05	6
45717	-0.00013	3e-05	8e-05	-0.00022	-0.00021	0.00022	0	-1e-05	6
45718	-0.00013	3e-05	8e-05	-0.00022	-0.00021	0.00022	0	-1e-05	6
45719	-0.00013	3e-05	8e-05	-0.00022	-0.00021	0.00022	0	-1e-05	6
45720	-0.00013	3e-05	8e-05	-0.00022	-0.00021	0.00022	0	-1e-05	6
45721	-0.00013	3e-05	8e-05	-0.00022	-0.00021	0.00022	0	-1e-05	6
45722	-0.00013	3e-05	8e-05	-0.00022	-0.00021	0.00022	0	-1e-05	6
45723	-0.00013	3e-05	8e-05	-0.00022	-0.00021	0.00022	0	-1e-05	6
45724	-0.00013	3e-05	8e-05	-0.00022	-0.00021	0.00022	0	-1e-05	6
45725	-0.00021	-0.00018	-9e-05	-9e-05	-0.00045	-0.00014	-6e-05	-0.00033	6
45726	0.00062	0.0001	-2e-05	-5e-05	0.00045	0.0002	0.00018	-0.00044	6
45727	0.00062	0.0001	-2e-05	-5e-05	0.00045	0.0002	0.00018	-0.00044	6
45728	0.00062	0.0001	-2e-05	-5e-05	0.00045	0.0002	0.00018	-0.00044	6
45729	0.00062	0.0001	-2e-05	-5e-05	0.00045	0.0002	0.00018	-0.00044	6
45730	0.00062	0.0001	-2e-05	-5e-05	0.00045	0.0002	0.00018	-0.00044	6
45731	0.00062	0.0001	-2e-05	-5e-05	0.00045	0.0002	0.00018	-0.00044	6
45732	0.00038	9e-05	-1e-05	0.00014	-1e-05	-0.00012	-0.0001	-0.00025	6
45733	0.00038	9e-05	-1e-05	0.00014	-1e-05	-0.00012	-0.0001	-0.00025	6
45734	0.00038	9e-05	-1e-05	0.00014	-1e-05	-0.00012	-0.0001	-0.00025	6
45735	0.00038	9e-05	-1e-05	0.00014	-1e-05	-0.00012	-0.0001	-0.00025	6
45736	0.00038	9e-05	-1e-05	0.00014	-1e-05	-0.00012	-0.0001	-0.00025	6
45738	0.00038	9e-05	-1e-05	0.00014	-1e-05	-0.00012	-0.0001	-0.00025	6
45739	0.00038	9e-05	-1e-05	0.00014	-1e-05	-0.00012	-0.0001	-0.00025	6
45740	0.00038	9e-05	-1e-05	0.00014	-1e-05	-0.00012	-0.0001	-0.00025	6
45741	0.00038	9e-05	-1e-05	0.00014	-1e-05	-0.00012	-0.0001	-0.00025	6
45742	0.00038	9e-05	-1e-05	0.00014	-1e-05	-0.00012	-0.0001	-0.00025	6
45743	0.00038	9e-05	-1e-05	0.00014	-1e-05	-0.00012	-0.0001	-0.00025	6
45744	0.00038	9e-05	-1e-05	0.00014	-1e-05	-0.00012	-0.0001	-0.00025	6
45745	0.00038	9e-05	-1e-05	0.00014	-1e-05	-0.00012	-0.0001	-0.00025	6
45746	0.00038	9e-05	-1e-05	0.00014	-1e-05	-0.00012	-0.0001	-0.00025	6
45747	0.00038	9e-05	-1e-05	0.00014	-1e-05	-0.00012	-0.0001	-0.00025	6
45748	0.00038	9e-05	-1e-05	0.00014	-1e-05	-0.00012	-0.0001	-0.00025	6
45749	0.00014	0.00021	1e-05	-6e-05	-0.00025	0.00015	0.00015	9e-05	6
45750	0.00037	0.00029	9e-05	0.00019	0.00074	0.00038	0.00035	0.0005	6
45751	0.00037	0.00029	9e-05	0.00019	0.00074	0.00038	0.00035	0.0005	6
45752	0.00037	0.00029	9e-05	0.00019	0.00074	0.00038	0.00035	0.0005	6
45753	0.00037	0.00029	9e-05	0.00019	0.00074	0.00038	0.00035	0.0005	6
45754	0.00037	0.00029	9e-05	0.00019	0.00074	0.00038	0.00035	0.0005	6
45755	0.00037	0.00029	9e-05	0.00019	0.00074	0.00038	0.00035	0.0005	6
45756	0.00037	0.00029	9e-05	0.00019	0.00074	0.00038	0.00035	0.0005	6
45757	0.00037	0.00029	9e-05	0.00019	0.00074	0.00038	0.00035	0.0005	6
45758	0.00037	0.00029	9e-05	0.00019	0.00074	0.00038	0.00035	0.0005	6
45759	0.00037	0.00029	9e-05	0.00019	0.00074	0.00038	0.00035	0.0005	6
45760	0.00037	0.00029	9e-05	0.00019	0.00074	0.00038	0.00035	0.0005	6
45761	0.00037	0.00029	9e-05	0.00019	0.00074	0.00038	0.00035	0.0005	6
45762	0.00037	0.00029	9e-05	0.00019	0.00074	0.00038	0.00035	0.0005	6
45763	0.00037	0.00029	9e-05	0.00019	0.00074	0.00038	0.00035	0.0005	6
45764	0.00037	0.00029	9e-05	0.00019	0.00074	0.00038	0.00035	0.0005	6
45765	0.00037	0.00029	9e-05	0.00019	0.00074	0.00038	0.00035	0.0005	6
45766	0.00037	0.00029	9e-05	0.00019	0.00074	0.00038	0.00035	0.0005	6
45767	0.00037	0.00029	9e-05	0.00019	0.00074	0.00038	0.00035	0.0005	6
45768	0.00037	0.00029	9e-05	0.00019	0.00074	0.00038	0.00035	0.0005	6
45769	0.00037	0.00029	9e-05	0.00019	0.00074	0.00038	0.00035	0.0005	6
45770	0.00037	0.00029	9e-05	0.00019	0.00074	0.00038	0.00035	0.0005	6
45771	0.00043	-4e-05	-0.00012	5e-05	0.00026	0.00013	0.00017	0.00011	6
45772	0.00043	-4e-05	-0.00012	5e-05	0.00026	0.00013	0.00017	0.00011	6
45773	-0.00073	-0.00016	-8e-05	-0.00019	-0.00075	-0.00029	0.00024	-0.00077	6
45774	-0.00073	-0.00016	-8e-05	-0.00019	-0.00075	-0.00029	0.00024	-0.00077	6
45775	-0.00073	-0.00016	-8e-05	-0.00019	-0.00075	-0.00029	0.00024	-0.00077	6
45776	-0.00073	-0.00016	-8e-05	-0.00019	-0.00075	-0.00029	0.00024	-0.00077	6
45777	-0.00073	-0.00016	-8e-05	-0.00019	-0.00075	-0.00029	0.00024	-0.00077	6
45778	-0.00073	-0.00016	-8e-05	-0.00019	-0.00075	-0.00029	0.00024	-0.00077	6
45779	-0.00073	-0.00016	-8e-05	-0.00019	-0.00075	-0.00029	0.00024	-0.00077	6
45780	-0.00073	-0.00016	-8e-05	-0.00019	-0.00075	-0.00029	0.00024	-0.00077	6
45781	-0.00073	-0.00016	-8e-05	-0.00019	-0.00075	-0.00029	0.00024	-0.00077	6
45782	-0.00073	-0.00016	-8e-05	-0.00019	-0.00075	-0.00029	0.00024	-0.00077	6
45783	-0.00073	-0.00016	-8e-05	-0.00019	-0.00075	-0.00029	0.00024	-0.00077	6
45784	-0.00073	-0.00016	-8e-05	-0.00019	-0.00075	-0.00029	0.00024	-0.00077	6
45785	0.00104	0.00057	3e-05	-0.00014	-0.00052	-0.00034	-0.00049	-0.00013	6
45786	0.00041	-4e-05	1e-05	0.00019	2e-05	-8e-05	-1e-05	0.00053	6
45789	0.00041	-4e-05	1e-05	0.00019	2e-05	-8e-05	-1e-05	0.00053	6
45790	0.00041	-4e-05	1e-05	0.00019	2e-05	-8e-05	-1e-05	0.00053	6
45791	0.00041	-4e-05	1e-05	0.00019	2e-05	-8e-05	-1e-05	0.00053	6
45792	0.00041	-4e-05	1e-05	0.00019	2e-05	-8e-05	-1e-05	0.00053	6
45793	-0.0002	-2e-05	5e-05	0	0.00011	0.0002	0.00033	-0.00075	6
45794	-0.0002	-2e-05	5e-05	0	0.00011	0.0002	0.00033	-0.00075	6
45795	-0.0002	-2e-05	5e-05	0	0.00011	0.0002	0.00033	-0.00075	6
45796	-0.0002	-2e-05	5e-05	0	0.00011	0.0002	0.00033	-0.00075	6
45797	-0.0002	-2e-05	5e-05	0	0.00011	0.0002	0.00033	-0.00075	6
45798	-0.0002	-2e-05	5e-05	0	0.00011	0.0002	0.00033	-0.00075	6
45799	-0.0002	-2e-05	5e-05	0	0.00011	0.0002	0.00033	-0.00075	6
45800	-0.0002	-2e-05	5e-05	0	0.00011	0.0002	0.00033	-0.00075	6
45801	-0.0002	-2e-05	5e-05	0	0.00011	0.0002	0.00033	-0.00075	6
45802	-0.0002	-2e-05	5e-05	0	0.00011	0.0002	0.00033	-0.00075	6
45803	-0.0002	-2e-05	5e-05	0	0.00011	0.0002	0.00033	-0.00075	6
45804	-0.0002	-2e-05	5e-05	0	0.00011	0.0002	0.00033	-0.00075	6
45805	-0.0002	-2e-05	5e-05	0	0.00011	0.0002	0.00033	-0.00075	6
45806	-0.0002	-2e-05	5e-05	0	0.00011	0.0002	0.00033	-0.00075	6
45807	-0.0002	-2e-05	5e-05	0	0.00011	0.0002	0.00033	-0.00075	6
45808	-0.0002	-2e-05	5e-05	0	0.00011	0.0002	0.00033	-0.00075	6
45809	0.00018	-0.00017	-0.00015	-0.00029	-0.00034	-0.00018	-2e-05	3e-05	6
45810	-0.00113	-0.00032	-4e-05	0.00013	0.00089	0.00027	-0.00064	-0.00056	6
45811	-0.00113	-0.00032	-4e-05	0.00013	0.00089	0.00027	-0.00064	-0.00056	6
45812	-0.00113	-0.00032	-4e-05	0.00013	0.00089	0.00027	-0.00064	-0.00056	6
45813	-0.00113	-0.00032	-4e-05	0.00013	0.00089	0.00027	-0.00064	-0.00056	6
45814	-0.00113	-0.00032	-4e-05	0.00013	0.00089	0.00027	-0.00064	-0.00056	6
45815	-0.00113	-0.00032	-4e-05	0.00013	0.00089	0.00027	-0.00064	-0.00056	6
45816	-0.00113	-0.00032	-4e-05	0.00013	0.00089	0.00027	-0.00064	-0.00056	6
45817	-0.00113	-0.00032	-4e-05	0.00013	0.00089	0.00027	-0.00064	-0.00056	6
45818	-0.00113	-0.00032	-4e-05	0.00013	0.00089	0.00027	-0.00064	-0.00056	6
45819	-0.00113	-0.00032	-4e-05	0.00013	0.00089	0.00027	-0.00064	-0.00056	6
45820	-0.00113	-0.00032	-4e-05	0.00013	0.00089	0.00027	-0.00064	-0.00056	6
45821	-0.00113	-0.00032	-4e-05	0.00013	0.00089	0.00027	-0.00064	-0.00056	6
45822	-0.00113	-0.00032	-4e-05	0.00013	0.00089	0.00027	-0.00064	-0.00056	6
45823	-0.00113	-0.00032	-4e-05	0.00013	0.00089	0.00027	-0.00064	-0.00056	6
45824	-0.00113	-0.00032	-4e-05	0.00013	0.00089	0.00027	-0.00064	-0.00056	6
45826	-0.00113	-0.00032	-4e-05	0.00013	0.00089	0.00027	-0.00064	-0.00056	6
45827	-0.00113	-0.00032	-4e-05	0.00013	0.00089	0.00027	-0.00064	-0.00056	6
45828	-0.00113	-0.00032	-4e-05	0.00013	0.00089	0.00027	-0.00064	-0.00056	6
45829	-0.00113	-0.00032	-4e-05	0.00013	0.00089	0.00027	-0.00064	-0.00056	6
45830	-0.00113	-0.00032	-4e-05	0.00013	0.00089	0.00027	-0.00064	-0.00056	6
45831	0.00058	3e-05	2e-05	-3e-05	0.0001	0.00025	-3e-05	0.0003	6
45832	0.00058	3e-05	2e-05	-3e-05	0.0001	0.00025	-3e-05	0.0003	6
45833	0.00049	-5e-05	-0.00012	-4e-05	-0.00013	8e-05	0.00015	0.00072	6
45834	0.00049	-5e-05	-0.00012	-4e-05	-0.00013	8e-05	0.00015	0.00072	6
45835	0.00049	-5e-05	-0.00012	-4e-05	-0.00013	8e-05	0.00015	0.00072	6
45836	0.00049	-5e-05	-0.00012	-4e-05	-0.00013	8e-05	0.00015	0.00072	6
45838	0.00049	-5e-05	-0.00012	-4e-05	-0.00013	8e-05	0.00015	0.00072	6
45839	0.00049	-5e-05	-0.00012	-4e-05	-0.00013	8e-05	0.00015	0.00072	6
45840	0.00049	-5e-05	-0.00012	-4e-05	-0.00013	8e-05	0.00015	0.00072	6
45841	0.00049	-5e-05	-0.00012	-4e-05	-0.00013	8e-05	0.00015	0.00072	6
45842	0.00049	-5e-05	-0.00012	-4e-05	-0.00013	8e-05	0.00015	0.00072	6
45843	0.00049	-5e-05	-0.00012	-4e-05	-0.00013	8e-05	0.00015	0.00072	6
45844	0.00049	-5e-05	-0.00012	-4e-05	-0.00013	8e-05	0.00015	0.00072	6
45845	-0.00121	-2e-05	6e-05	0.00024	0.00043	0.00039	-0.00049	-0.00081	6
45846	-0.00121	-2e-05	6e-05	0.00024	0.00043	0.00039	-0.00049	-0.00081	6
45847	-0.00121	-2e-05	6e-05	0.00024	0.00043	0.00039	-0.00049	-0.00081	6
45848	-0.00121	-2e-05	6e-05	0.00024	0.00043	0.00039	-0.00049	-0.00081	6
45849	-0.00121	-2e-05	6e-05	0.00024	0.00043	0.00039	-0.00049	-0.00081	6
45850	-0.00121	-2e-05	6e-05	0.00024	0.00043	0.00039	-0.00049	-0.00081	6
45851	-0.00121	-2e-05	6e-05	0.00024	0.00043	0.00039	-0.00049	-0.00081	6
45852	-0.00121	-2e-05	6e-05	0.00024	0.00043	0.00039	-0.00049	-0.00081	6
45853	-0.00121	-2e-05	6e-05	0.00024	0.00043	0.00039	-0.00049	-0.00081	6
45854	-0.00049	-2e-05	0	0.00021	0.0007	0.00019	0.00023	0.0001	6
45855	-0.00049	-2e-05	0	0.00021	0.0007	0.00019	0.00023	0.0001	6
45856	-0.00049	-2e-05	0	0.00021	0.0007	0.00019	0.00023	0.0001	6
45857	-0.00049	-2e-05	0	0.00021	0.0007	0.00019	0.00023	0.0001	6
45858	-0.00049	-2e-05	0	0.00021	0.0007	0.00019	0.00023	0.0001	6
45859	-0.00049	-2e-05	0	0.00021	0.0007	0.00019	0.00023	0.0001	6
45860	-0.00049	-2e-05	0	0.00021	0.0007	0.00019	0.00023	0.0001	6
45861	-0.00049	-2e-05	0	0.00021	0.0007	0.00019	0.00023	0.0001	6
45862	-0.00049	-2e-05	0	0.00021	0.0007	0.00019	0.00023	0.0001	6
45863	-0.00049	-2e-05	0	0.00021	0.0007	0.00019	0.00023	0.0001	6
45864	-0.00049	-2e-05	0	0.00021	0.0007	0.00019	0.00023	0.0001	6
45865	-0.00049	-2e-05	0	0.00021	0.0007	0.00019	0.00023	0.0001	6
45866	-0.00049	-2e-05	0	0.00021	0.0007	0.00019	0.00023	0.0001	6
45867	-0.00049	-2e-05	0	0.00021	0.0007	0.00019	0.00023	0.0001	6
45868	-0.00049	-2e-05	0	0.00021	0.0007	0.00019	0.00023	0.0001	6
45869	0.00036	1e-05	-7e-05	-2e-05	-0.00026	0.0001	0.00042	0.00012	6
45870	-0.00075	-0.00036	-2e-05	-0.00011	-9e-05	6e-05	-2e-05	0.0001	6
45872	-0.00075	-0.00036	-2e-05	-0.00011	-9e-05	6e-05	-2e-05	0.0001	6
45873	-0.00075	-0.00036	-2e-05	-0.00011	-9e-05	6e-05	-2e-05	0.0001	6
45874	-0.00075	-0.00036	-2e-05	-0.00011	-9e-05	6e-05	-2e-05	0.0001	6
45875	-0.00075	-0.00036	-2e-05	-0.00011	-9e-05	6e-05	-2e-05	0.0001	6
45876	-0.00075	-0.00036	-2e-05	-0.00011	-9e-05	6e-05	-2e-05	0.0001	6
45877	-0.00075	-0.00036	-2e-05	-0.00011	-9e-05	6e-05	-2e-05	0.0001	6
45878	-0.00075	-0.00036	-2e-05	-0.00011	-9e-05	6e-05	-2e-05	0.0001	6
45879	-0.00075	-0.00036	-2e-05	-0.00011	-9e-05	6e-05	-2e-05	0.0001	6
45880	-0.00075	-0.00036	-2e-05	-0.00011	-9e-05	6e-05	-2e-05	0.0001	6
45881	-0.00075	-0.00036	-2e-05	-0.00011	-9e-05	6e-05	-2e-05	0.0001	6
45882	-0.00075	-0.00036	-2e-05	-0.00011	-9e-05	6e-05	-2e-05	0.0001	6
45883	-0.00075	-0.00036	-2e-05	-0.00011	-9e-05	6e-05	-2e-05	0.0001	6
45884	-0.00075	-0.00036	-2e-05	-0.00011	-9e-05	6e-05	-2e-05	0.0001	6
45885	-0.00075	-0.00036	-2e-05	-0.00011	-9e-05	6e-05	-2e-05	0.0001	6
45886	-0.00075	-0.00036	-2e-05	-0.00011	-9e-05	6e-05	-2e-05	0.0001	6
45888	-0.00075	-0.00036	-2e-05	-0.00011	-9e-05	6e-05	-2e-05	0.0001	6
45889	-0.00075	-0.00036	-2e-05	-0.00011	-9e-05	6e-05	-2e-05	0.0001	6
45890	-0.00075	-0.00036	-2e-05	-0.00011	-9e-05	6e-05	-2e-05	0.0001	6
45891	5e-05	-4e-05	0	5e-05	0.00074	0.00019	0.00016	-0.00026	6
45892	0.00014	0.00013	3e-05	-0.0001	4e-05	-5e-05	0.00028	1e-05	6
45893	0.00039	-2e-05	-3e-05	-0.00014	9e-05	-0.00026	-8e-05	-1e-05	6
45894	0.00039	-2e-05	-3e-05	-0.00014	9e-05	-0.00026	-8e-05	-1e-05	6
45895	0.00039	-2e-05	-3e-05	-0.00014	9e-05	-0.00026	-8e-05	-1e-05	6
45896	0.00039	-2e-05	-3e-05	-0.00014	9e-05	-0.00026	-8e-05	-1e-05	6
45897	0.00039	-2e-05	-3e-05	-0.00014	9e-05	-0.00026	-8e-05	-1e-05	6
45898	0.00039	-2e-05	-3e-05	-0.00014	9e-05	-0.00026	-8e-05	-1e-05	6
45899	0.00039	-2e-05	-3e-05	-0.00014	9e-05	-0.00026	-8e-05	-1e-05	6
45900	0.00039	-2e-05	-3e-05	-0.00014	9e-05	-0.00026	-8e-05	-1e-05	6
45901	0.00039	-2e-05	-3e-05	-0.00014	9e-05	-0.00026	-8e-05	-1e-05	6
45902	0.00039	-2e-05	-3e-05	-0.00014	9e-05	-0.00026	-8e-05	-1e-05	6
45903	0.00039	-2e-05	-3e-05	-0.00014	9e-05	-0.00026	-8e-05	-1e-05	6
45904	0.00039	-2e-05	-3e-05	-0.00014	9e-05	-0.00026	-8e-05	-1e-05	6
45905	-0.00038	-0.00025	-3e-05	0.00018	0.0001	0.00023	0.00043	0.00033	6
45906	0.00024	0.00028	0.00012	1e-05	-0.0002	-1e-05	0.00023	7e-05	6
45908	0.00024	0.00028	0.00012	1e-05	-0.0002	-1e-05	0.00023	7e-05	6
45909	0.00024	0.00028	0.00012	1e-05	-0.0002	-1e-05	0.00023	7e-05	6
45910	0.00024	0.00028	0.00012	1e-05	-0.0002	-1e-05	0.00023	7e-05	6
45911	0.00024	0.00028	0.00012	1e-05	-0.0002	-1e-05	0.00023	7e-05	6
45912	0.00102	0.00016	-3e-05	-1e-05	-0.00045	-0.00033	-0.00014	0.0004	6
45913	0.00102	0.00016	-3e-05	-1e-05	-0.00045	-0.00033	-0.00014	0.0004	6
45914	0.00102	0.00016	-3e-05	-1e-05	-0.00045	-0.00033	-0.00014	0.0004	6
45915	0.00102	0.00016	-3e-05	-1e-05	-0.00045	-0.00033	-0.00014	0.0004	6
45916	0.00102	0.00016	-3e-05	-1e-05	-0.00045	-0.00033	-0.00014	0.0004	6
45917	0.00102	0.00016	-3e-05	-1e-05	-0.00045	-0.00033	-0.00014	0.0004	6
45918	0.00102	0.00016	-3e-05	-1e-05	-0.00045	-0.00033	-0.00014	0.0004	6
45919	0.00102	0.00016	-3e-05	-1e-05	-0.00045	-0.00033	-0.00014	0.0004	6
45920	0.00102	0.00016	-3e-05	-1e-05	-0.00045	-0.00033	-0.00014	0.0004	6
45921	0.00102	0.00016	-3e-05	-1e-05	-0.00045	-0.00033	-0.00014	0.0004	6
45922	0.00102	0.00016	-3e-05	-1e-05	-0.00045	-0.00033	-0.00014	0.0004	6
45923	0.00102	0.00016	-3e-05	-1e-05	-0.00045	-0.00033	-0.00014	0.0004	6
45924	0.00102	0.00016	-3e-05	-1e-05	-0.00045	-0.00033	-0.00014	0.0004	6
45925	0.00102	0.00016	-3e-05	-1e-05	-0.00045	-0.00033	-0.00014	0.0004	6
45926	0.00102	0.00016	-3e-05	-1e-05	-0.00045	-0.00033	-0.00014	0.0004	6
45927	0.00102	0.00016	-3e-05	-1e-05	-0.00045	-0.00033	-0.00014	0.0004	6
45928	0.00102	0.00016	-3e-05	-1e-05	-0.00045	-0.00033	-0.00014	0.0004	6
45929	0.00028	0	0	3e-05	-2e-05	0.00011	-6e-05	0.00029	6
45930	0.00037	0.00022	0.00013	0.00014	-0.00045	4e-05	0.00021	-0.00018	6
45931	0.00037	0.00022	0.00013	0.00014	-0.00045	4e-05	0.00021	-0.00018	6
45932	0.00037	0.00022	0.00013	0.00014	-0.00045	4e-05	0.00021	-0.00018	6
45933	0.00037	0.00022	0.00013	0.00014	-0.00045	4e-05	0.00021	-0.00018	6
45934	0.00037	0.00022	0.00013	0.00014	-0.00045	4e-05	0.00021	-0.00018	6
45935	0.00037	0.00022	0.00013	0.00014	-0.00045	4e-05	0.00021	-0.00018	6
45936	0.00037	0.00022	0.00013	0.00014	-0.00045	4e-05	0.00021	-0.00018	6
45938	0.00037	0.00022	0.00013	0.00014	-0.00045	4e-05	0.00021	-0.00018	6
45939	0.00037	0.00022	0.00013	0.00014	-0.00045	4e-05	0.00021	-0.00018	6
45940	0.00037	0.00022	0.00013	0.00014	-0.00045	4e-05	0.00021	-0.00018	6
45941	0.00037	0.00022	0.00013	0.00014	-0.00045	4e-05	0.00021	-0.00018	6
45942	0.00037	0.00022	0.00013	0.00014	-0.00045	4e-05	0.00021	-0.00018	6
45943	0.00037	0.00022	0.00013	0.00014	-0.00045	4e-05	0.00021	-0.00018	6
45944	0.00037	0.00022	0.00013	0.00014	-0.00045	4e-05	0.00021	-0.00018	6
45945	0.00037	0.00022	0.00013	0.00014	-0.00045	4e-05	0.00021	-0.00018	6
45946	0.00037	0.00022	0.00013	0.00014	-0.00045	4e-05	0.00021	-0.00018	6
45947	0.00037	0.00022	0.00013	0.00014	-0.00045	4e-05	0.00021	-0.00018	6
45949	0.00037	0.00022	0.00013	0.00014	-0.00045	4e-05	0.00021	-0.00018	6
45950	0.00037	0.00022	0.00013	0.00014	-0.00045	4e-05	0.00021	-0.00018	6
45951	-4e-05	-0.00022	-1e-05	0.00038	0.00074	0.00062	0.00032	0.00053	6
45952	-4e-05	-0.00022	-1e-05	0.00038	0.00074	0.00062	0.00032	0.00053	6
45953	0.00073	0.00023	-6e-05	0	0.00012	-1e-05	0.00027	0.00019	6
45954	0.00073	0.00023	-6e-05	0	0.00012	-1e-05	0.00027	0.00019	6
45955	0.00073	0.00023	-6e-05	0	0.00012	-1e-05	0.00027	0.00019	6
45956	0.00073	0.00023	-6e-05	0	0.00012	-1e-05	0.00027	0.00019	6
45957	0.00073	0.00023	-6e-05	0	0.00012	-1e-05	0.00027	0.00019	6
45958	0.00073	0.00023	-6e-05	0	0.00012	-1e-05	0.00027	0.00019	6
45959	0.00073	0.00023	-6e-05	0	0.00012	-1e-05	0.00027	0.00019	6
45960	0.00073	0.00023	-6e-05	0	0.00012	-1e-05	0.00027	0.00019	6
45961	0.00073	0.00023	-6e-05	0	0.00012	-1e-05	0.00027	0.00019	6
45962	0.00073	0.00023	-6e-05	0	0.00012	-1e-05	0.00027	0.00019	6
45964	0.00073	0.00023	-6e-05	0	0.00012	-1e-05	0.00027	0.00019	6
45965	-0.00085	-0.00015	-7e-05	-0.00021	-0.00063	-0.0003	-0.00018	-0.00027	6
45966	-0.00085	-0.00015	-7e-05	-0.00021	-0.00063	-0.0003	-0.00018	-0.00027	6
45967	-0.00085	-0.00015	-7e-05	-0.00021	-0.00063	-0.0003	-0.00018	-0.00027	6
45968	-0.00085	-0.00015	-7e-05	-0.00021	-0.00063	-0.0003	-0.00018	-0.00027	6
45970	-0.00085	-0.00015	-7e-05	-0.00021	-0.00063	-0.0003	-0.00018	-0.00027	6
45971	-0.00085	-0.00015	-7e-05	-0.00021	-0.00063	-0.0003	-0.00018	-0.00027	6
45972	-0.00085	-0.00015	-7e-05	-0.00021	-0.00063	-0.0003	-0.00018	-0.00027	6
45973	-0.00085	-0.00015	-7e-05	-0.00021	-0.00063	-0.0003	-0.00018	-0.00027	6
45974	0.00059	8e-05	1e-05	0.00018	0.00036	0.00018	0.00037	0.00053	6
45975	0.00059	8e-05	1e-05	0.00018	0.00036	0.00018	0.00037	0.00053	6
45976	0.00059	8e-05	1e-05	0.00018	0.00036	0.00018	0.00037	0.00053	6
45977	0.00059	8e-05	1e-05	0.00018	0.00036	0.00018	0.00037	0.00053	6
45978	0.00059	8e-05	1e-05	0.00018	0.00036	0.00018	0.00037	0.00053	6
45979	0.00059	8e-05	1e-05	0.00018	0.00036	0.00018	0.00037	0.00053	6
45980	0.00059	8e-05	1e-05	0.00018	0.00036	0.00018	0.00037	0.00053	6
45981	0.00059	8e-05	1e-05	0.00018	0.00036	0.00018	0.00037	0.00053	6
45982	0.00059	8e-05	1e-05	0.00018	0.00036	0.00018	0.00037	0.00053	6
45983	0.00059	8e-05	1e-05	0.00018	0.00036	0.00018	0.00037	0.00053	6
45984	0.00059	8e-05	1e-05	0.00018	0.00036	0.00018	0.00037	0.00053	6
45986	0.00059	8e-05	1e-05	0.00018	0.00036	0.00018	0.00037	0.00053	6
45987	0.00059	8e-05	1e-05	0.00018	0.00036	0.00018	0.00037	0.00053	6
45988	0.00059	8e-05	1e-05	0.00018	0.00036	0.00018	0.00037	0.00053	6
45989	0.00059	8e-05	1e-05	0.00018	0.00036	0.00018	0.00037	0.00053	6
45990	0.00026	0.0002	0	-7e-05	7e-05	-9e-05	-0.00044	-0.0009	6
45991	0.00031	-0.00012	-0.00013	-0.00023	-0.00095	-0.00077	-0.0006	-0.00059	6
45992	0.00031	-0.00012	-0.00013	-0.00023	-0.00095	-0.00077	-0.0006	-0.00059	6
45993	0.00031	-0.00012	-0.00013	-0.00023	-0.00095	-0.00077	-0.0006	-0.00059	6
45994	0.00031	-0.00012	-0.00013	-0.00023	-0.00095	-0.00077	-0.0006	-0.00059	6
45995	0.00031	-0.00012	-0.00013	-0.00023	-0.00095	-0.00077	-0.0006	-0.00059	6
45996	0.00031	-0.00012	-0.00013	-0.00023	-0.00095	-0.00077	-0.0006	-0.00059	6
45997	0.00031	-0.00012	-0.00013	-0.00023	-0.00095	-0.00077	-0.0006	-0.00059	6
45998	0.00031	-0.00012	-0.00013	-0.00023	-0.00095	-0.00077	-0.0006	-0.00059	6
45999	0.00031	-0.00012	-0.00013	-0.00023	-0.00095	-0.00077	-0.0006	-0.00059	6
46000	0.00031	-0.00012	-0.00013	-0.00023	-0.00095	-0.00077	-0.0006	-0.00059	6
46001	0.00031	-0.00012	-0.00013	-0.00023	-0.00095	-0.00077	-0.0006	-0.00059	6
46002	0.00031	-0.00012	-0.00013	-0.00023	-0.00095	-0.00077	-0.0006	-0.00059	6
46003	0.00031	-0.00012	-0.00013	-0.00023	-0.00095	-0.00077	-0.0006	-0.00059	6
46004	0.00031	-0.00012	-0.00013	-0.00023	-0.00095	-0.00077	-0.0006	-0.00059	6
46005	0.00031	-0.00012	-0.00013	-0.00023	-0.00095	-0.00077	-0.0006	-0.00059	6
46006	0.00031	-0.00012	-0.00013	-0.00023	-0.00095	-0.00077	-0.0006	-0.00059	6
46007	0.00031	-0.00012	-0.00013	-0.00023	-0.00095	-0.00077	-0.0006	-0.00059	6
46008	0.00031	-0.00012	-0.00013	-0.00023	-0.00095	-0.00077	-0.0006	-0.00059	6
46009	0.00031	-0.00012	-0.00013	-0.00023	-0.00095	-0.00077	-0.0006	-0.00059	6
46010	0.00031	-0.00012	-0.00013	-0.00023	-0.00095	-0.00077	-0.0006	-0.00059	6
46011	0.00031	-0.00012	-0.00013	-0.00023	-0.00095	-0.00077	-0.0006	-0.00059	6
46012	-0.00028	3e-05	2e-05	-0.00039	-0.00011	-8e-05	-0.00032	9e-05	6
46013	-0.00028	3e-05	2e-05	-0.00039	-0.00011	-8e-05	-0.00032	9e-05	6
46014	0.00012	-0.00011	-6e-05	-5e-05	0.00032	0.00034	0.00045	0.00039	6
46015	0.00012	-0.00011	-6e-05	-5e-05	0.00032	0.00034	0.00045	0.00039	6
46016	0.00012	-0.00011	-6e-05	-5e-05	0.00032	0.00034	0.00045	0.00039	6
46017	0.00012	-0.00011	-6e-05	-5e-05	0.00032	0.00034	0.00045	0.00039	6
46018	0.00012	-0.00011	-6e-05	-5e-05	0.00032	0.00034	0.00045	0.00039	6
46020	0.00012	-0.00011	-6e-05	-5e-05	0.00032	0.00034	0.00045	0.00039	6
46021	0.00012	-0.00011	-6e-05	-5e-05	0.00032	0.00034	0.00045	0.00039	6
46022	0.00012	-0.00011	-6e-05	-5e-05	0.00032	0.00034	0.00045	0.00039	6
46023	0.00012	-0.00011	-6e-05	-5e-05	0.00032	0.00034	0.00045	0.00039	6
46024	0.00012	-0.00011	-6e-05	-5e-05	0.00032	0.00034	0.00045	0.00039	6
46025	0.00012	-0.00011	-6e-05	-5e-05	0.00032	0.00034	0.00045	0.00039	6
46026	0.00021	-0.00012	-0.0001	-0.00025	-0.00076	-5e-05	-0.00028	-6e-05	6
46027	0.00021	-0.00012	-0.0001	-0.00025	-0.00076	-5e-05	-0.00028	-6e-05	6
46028	0.00021	-0.00012	-0.0001	-0.00025	-0.00076	-5e-05	-0.00028	-6e-05	6
46030	0.00021	-0.00012	-0.0001	-0.00025	-0.00076	-5e-05	-0.00028	-6e-05	6
46031	0.00021	-0.00012	-0.0001	-0.00025	-0.00076	-5e-05	-0.00028	-6e-05	6
46032	0.00021	-0.00012	-0.0001	-0.00025	-0.00076	-5e-05	-0.00028	-6e-05	6
46033	0.00021	-0.00012	-0.0001	-0.00025	-0.00076	-5e-05	-0.00028	-6e-05	6
46034	0.00021	-0.00012	-0.0001	-0.00025	-0.00076	-5e-05	-0.00028	-6e-05	6
46035	-0.00072	-8e-05	3e-05	0.00015	0.00042	-3e-05	0	0.0003	6
46036	-0.00072	-8e-05	3e-05	0.00015	0.00042	-3e-05	0	0.0003	6
46038	-0.00072	-8e-05	3e-05	0.00015	0.00042	-3e-05	0	0.0003	6
46039	-0.00072	-8e-05	3e-05	0.00015	0.00042	-3e-05	0	0.0003	6
46040	-0.00072	-8e-05	3e-05	0.00015	0.00042	-3e-05	0	0.0003	6
46041	-0.00072	-8e-05	3e-05	0.00015	0.00042	-3e-05	0	0.0003	6
46042	-0.00072	-8e-05	3e-05	0.00015	0.00042	-3e-05	0	0.0003	6
46043	-0.00072	-8e-05	3e-05	0.00015	0.00042	-3e-05	0	0.0003	6
46044	-0.00072	-8e-05	3e-05	0.00015	0.00042	-3e-05	0	0.0003	6
46045	-0.00072	-8e-05	3e-05	0.00015	0.00042	-3e-05	0	0.0003	6
46046	-0.00072	-8e-05	3e-05	0.00015	0.00042	-3e-05	0	0.0003	6
46047	-0.00072	-8e-05	3e-05	0.00015	0.00042	-3e-05	0	0.0003	6
46048	-0.00072	-8e-05	3e-05	0.00015	0.00042	-3e-05	0	0.0003	6
46049	-0.00072	-8e-05	3e-05	0.00015	0.00042	-3e-05	0	0.0003	6
46050	-4e-05	-0.00011	-6e-05	0.00011	-0.00022	-0.00016	-0.00033	-0.00034	6
46051	-0.00057	-4e-05	4e-05	-3e-05	-0.00014	0.00034	-1e-05	-0.00041	6
46052	-0.00057	-4e-05	4e-05	-3e-05	-0.00014	0.00034	-1e-05	-0.00041	6
46053	-0.00057	-4e-05	4e-05	-3e-05	-0.00014	0.00034	-1e-05	-0.00041	6
46054	-0.00057	-4e-05	4e-05	-3e-05	-0.00014	0.00034	-1e-05	-0.00041	6
46055	-0.00057	-4e-05	4e-05	-3e-05	-0.00014	0.00034	-1e-05	-0.00041	6
46056	-0.00057	-4e-05	4e-05	-3e-05	-0.00014	0.00034	-1e-05	-0.00041	6
46057	-0.00057	-4e-05	4e-05	-3e-05	-0.00014	0.00034	-1e-05	-0.00041	6
46058	-0.00057	-4e-05	4e-05	-3e-05	-0.00014	0.00034	-1e-05	-0.00041	6
46059	-0.00057	-4e-05	4e-05	-3e-05	-0.00014	0.00034	-1e-05	-0.00041	6
46060	-0.00057	-4e-05	4e-05	-3e-05	-0.00014	0.00034	-1e-05	-0.00041	6
46061	-0.00057	-4e-05	4e-05	-3e-05	-0.00014	0.00034	-1e-05	-0.00041	6
46062	-0.00057	-4e-05	4e-05	-3e-05	-0.00014	0.00034	-1e-05	-0.00041	6
46063	-0.00057	-4e-05	4e-05	-3e-05	-0.00014	0.00034	-1e-05	-0.00041	6
46064	-0.00057	-4e-05	4e-05	-3e-05	-0.00014	0.00034	-1e-05	-0.00041	6
46065	-0.00057	-4e-05	4e-05	-3e-05	-0.00014	0.00034	-1e-05	-0.00041	6
46066	-0.00057	-4e-05	4e-05	-3e-05	-0.00014	0.00034	-1e-05	-0.00041	6
