20279	-4e-05	-3e-05	0.00011	-0.00051	-0.00035	0.00087	-0.00017	-0.0001	4
20280	-4e-05	-3e-05	0.00011	-0.00051	-0.00035	0.00087	-0.00017	-0.0001	4
20281	-4e-05	-3e-05	0.00011	-0.00051	-0.00035	0.00087	-0.00017	-0.0001	4
20282	-4e-05	-3e-05	0.00011	-0.00051	-0.00035	0.00087	-0.00017	-0.0001	4
20283	-4e-05	-3e-05	0.00011	-0.00051	-0.00035	0.00087	-0.00017	-0.0001	4
20284	-4e-05	-3e-05	0.00011	-0.00051	-0.00035	0.00087	-0.00017	-0.0001	4
20285	-4e-05	-3e-05	0.00011	-0.00051	-0.00035	0.00087	-0.00017	-0.0001	4
20286	-4e-05	-3e-05	0.00011	-0.00051	-0.00035	0.00087	-0.00017	-0.0001	4
20289	-3e-05	1e-05	0.00048	-0.00021	-0.00107	0.00061	7e-05	-1e-05	4
20290	-3e-05	1e-05	0.00048	-0.00021	-0.00107	0.00061	7e-05	-1e-05	4
20291	-3e-05	1e-05	0.00048	-0.00021	-0.00107	0.00061	7e-05	-1e-05	4
20292	-3e-05	1e-05	0.00048	-0.00021	-0.00107	0.00061	7e-05	-1e-05	4
20293	-3e-05	1e-05	0.00048	-0.00021	-0.00107	0.00061	7e-05	-1e-05	4
20294	-3e-05	1e-05	0.00048	-0.00021	-0.00107	0.00061	7e-05	-1e-05	4
20295	-3e-05	1e-05	0.00048	-0.00021	-0.00107	0.00061	7e-05	-1e-05	4
20296	7e-05	0.00016	0.00044	0.00021	-0.00015	-0.00011	0.00015	8e-05	4
20297	7e-05	0.00016	0.00044	0.00021	-0.00015	-0.00011	0.00015	8e-05	4
20298	7e-05	0.00016	0.00044	0.00021	-0.00015	-0.00011	0.00015	8e-05	4
20299	7e-05	0.00016	0.00044	0.00021	-0.00015	-0.00011	0.00015	8e-05	4
20300	7e-05	0.00016	0.00044	0.00021	-0.00015	-0.00011	0.00015	8e-05	4
20301	7e-05	0.00016	0.00044	0.00021	-0.00015	-0.00011	0.00015	8e-05	4
20302	7e-05	0.00016	0.00044	0.00021	-0.00015	-0.00011	0.00015	8e-05	4
20303	7e-05	0.00016	0.00044	0.00021	-0.00015	-0.00011	0.00015	8e-05	4
20304	7e-05	0.00016	0.00044	0.00021	-0.00015	-0.00011	0.00015	8e-05	4
20305	7e-05	0.00016	0.00044	0.00021	-0.00015	-0.00011	0.00015	8e-05	4
20306	7e-05	0.00016	0.00044	0.00021	-0.00015	-0.00011	0.00015	8e-05	4
20307	7e-05	0.00016	0.00044	0.00021	-0.00015	-0.00011	0.00015	8e-05	4
20308	7e-05	0.00016	0.00044	0.00021	-0.00015	-0.00011	0.00015	8e-05	4
20309	7e-05	0.00016	0.00044	0.00021	-0.00015	-0.00011	0.00015	8e-05	4
20310	7e-05	0.00016	0.00044	0.00021	-0.00015	-0.00011	0.00015	8e-05	4
20311	3e-05	9e-05	0.00055	0.00038	0.00066	0.00061	3e-05	-1e-05	4
20312	3e-05	9e-05	0.00055	0.00038	0.00066	0.00061	3e-05	-1e-05	4
20313	3e-05	6e-05	0.00015	5e-05	-0.00074	-0.00096	-5e-05	3e-05	4
20314	3e-05	6e-05	0.00015	5e-05	-0.00074	-0.00096	-5e-05	3e-05	4
20315	3e-05	6e-05	0.00015	5e-05	-0.00074	-0.00096	-5e-05	3e-05	4
20316	3e-05	6e-05	0.00015	5e-05	-0.00074	-0.00096	-5e-05	3e-05	4
20317	3e-05	6e-05	0.00015	5e-05	-0.00074	-0.00096	-5e-05	3e-05	4
20318	3e-05	6e-05	0.00015	5e-05	-0.00074	-0.00096	-5e-05	3e-05	4
20320	3e-05	6e-05	0.00015	5e-05	-0.00074	-0.00096	-5e-05	3e-05	4
20321	3e-05	6e-05	0.00015	5e-05	-0.00074	-0.00096	-5e-05	3e-05	4
20322	3e-05	6e-05	0.00015	5e-05	-0.00074	-0.00096	-5e-05	3e-05	4
20323	3e-05	6e-05	0.00015	5e-05	-0.00074	-0.00096	-5e-05	3e-05	4
20324	3e-05	6e-05	0.00015	5e-05	-0.00074	-0.00096	-5e-05	3e-05	4
20325	3e-05	6e-05	0.00015	5e-05	-0.00074	-0.00096	-5e-05	3e-05	4
20326	3e-05	6e-05	0.00015	5e-05	-0.00074	-0.00096	-5e-05	3e-05	4
20327	3e-05	6e-05	0.00015	5e-05	-0.00074	-0.00096	-5e-05	3e-05	4
20328	3e-05	6e-05	0.00015	5e-05	-0.00074	-0.00096	-5e-05	3e-05	4
20329	3e-05	6e-05	0.00015	5e-05	-0.00074	-0.00096	-5e-05	3e-05	4
20330	3e-05	6e-05	0.00015	5e-05	-0.00074	-0.00096	-5e-05	3e-05	4
20331	3e-05	6e-05	0.00015	5e-05	-0.00074	-0.00096	-5e-05	3e-05	4
20332	3e-05	6e-05	0.00015	5e-05	-0.00074	-0.00096	-5e-05	3e-05	4
20333	6e-05	0.00019	0.00068	-0.00025	0.00012	-0.00079	0.00012	3e-05	4
20334	6e-05	0.00019	0.00068	-0.00025	0.00012	-0.00079	0.00012	3e-05	4
20335	-8e-05	-0.00015	-0.00043	0.00054	0.00036	-0.00109	-0.00012	-6e-05	4
20336	-8e-05	-0.00015	-0.00043	0.00054	0.00036	-0.00109	-0.00012	-6e-05	4
20338	-8e-05	-0.00015	-0.00043	0.00054	0.00036	-0.00109	-0.00012	-6e-05	4
20340	-8e-05	-0.00015	-0.00043	0.00054	0.00036	-0.00109	-0.00012	-6e-05	4
20341	-8e-05	-0.00015	-0.00043	0.00054	0.00036	-0.00109	-0.00012	-6e-05	4
20342	-8e-05	-0.00015	-0.00043	0.00054	0.00036	-0.00109	-0.00012	-6e-05	4
20343	-8e-05	-0.00015	-0.00043	0.00054	0.00036	-0.00109	-0.00012	-6e-05	4
20344	-8e-05	-0.00015	-0.00043	0.00054	0.00036	-0.00109	-0.00012	-6e-05	4
20345	-8e-05	-0.00015	-0.00043	0.00054	0.00036	-0.00109	-0.00012	-6e-05	4
20346	-8e-05	-0.00015	-0.00043	0.00054	0.00036	-0.00109	-0.00012	-6e-05	4
20347	-8e-05	-0.00013	-0.00064	-0.00079	-0.00014	-0.00017	-0.00012	-6e-05	4
20348	-8e-05	-0.00013	-0.00064	-0.00079	-0.00014	-0.00017	-0.00012	-6e-05	4
20349	-8e-05	-0.00013	-0.00064	-0.00079	-0.00014	-0.00017	-0.00012	-6e-05	4
20350	-8e-05	-0.00013	-0.00064	-0.00079	-0.00014	-0.00017	-0.00012	-6e-05	4
20351	-8e-05	-0.00013	-0.00064	-0.00079	-0.00014	-0.00017	-0.00012	-6e-05	4
20352	-8e-05	-0.00013	-0.00064	-0.00079	-0.00014	-0.00017	-0.00012	-6e-05	4
20353	-8e-05	-0.00013	-0.00064	-0.00079	-0.00014	-0.00017	-0.00012	-6e-05	4
20354	-8e-05	-0.00013	-0.00064	-0.00079	-0.00014	-0.00017	-0.00012	-6e-05	4
20355	-8e-05	-0.00013	-0.00064	-0.00079	-0.00014	-0.00017	-0.00012	-6e-05	4
20356	-8e-05	-0.00013	-0.00064	-0.00079	-0.00014	-0.00017	-0.00012	-6e-05	4
20357	-8e-05	-0.00013	-0.00064	-0.00079	-0.00014	-0.00017	-0.00012	-6e-05	4
20358	-8e-05	-0.00013	-0.00064	-0.00079	-0.00014	-0.00017	-0.00012	-6e-05	4
20359	-8e-05	-0.00013	-0.00064	-0.00079	-0.00014	-0.00017	-0.00012	-6e-05	4
20360	-8e-05	-0.00013	-0.00064	-0.00079	-0.00014	-0.00017	-0.00012	-6e-05	4
20361	-8e-05	-0.00013	-0.00064	-0.00079	-0.00014	-0.00017	-0.00012	-6e-05	4
20362	-8e-05	-0.00013	-0.00064	-0.00079	-0.00014	-0.00017	-0.00012	-6e-05	4
20363	3e-05	8e-05	0.00017	0.00027	0.00018	-0.00022	-5e-05	-1e-05	4
20364	3e-05	8e-05	0.00017	0.00027	0.00018	-0.00022	-5e-05	-1e-05	4
20365	3e-05	8e-05	0.00017	0.00027	0.00018	-0.00022	-5e-05	-1e-05	4
20366	3e-05	8e-05	0.00017	0.00027	0.00018	-0.00022	-5e-05	-1e-05	4
20367	3e-05	8e-05	0.00017	0.00027	0.00018	-0.00022	-5e-05	-1e-05	4
20368	3e-05	8e-05	0.00017	0.00027	0.00018	-0.00022	-5e-05	-1e-05	4
20369	3e-05	8e-05	0.00017	0.00027	0.00018	-0.00022	-5e-05	-1e-05	4
20370	3e-05	8e-05	0.00017	0.00027	0.00018	-0.00022	-5e-05	-1e-05	4
20371	1e-05	-8e-05	-0.00051	-0.00079	-0.00064	0.0002	5e-05	2e-05	4
20372	6e-05	0.0001	0.00019	-0.00108	0.0002	0.00038	0.00023	8e-05	4
20373	6e-05	0.0001	0.00019	-0.00108	0.0002	0.00038	0.00023	8e-05	4
20374	6e-05	0.0001	0.00019	-0.00108	0.0002	0.00038	0.00023	8e-05	4
20375	6e-05	0.0001	0.00019	-0.00108	0.0002	0.00038	0.00023	8e-05	4
20376	6e-05	0.0001	0.00019	-0.00108	0.0002	0.00038	0.00023	8e-05	4
20377	6e-05	0.0001	0.00019	-0.00108	0.0002	0.00038	0.00023	8e-05	4
20378	6e-05	0.0001	0.00019	-0.00108	0.0002	0.00038	0.00023	8e-05	4
20379	6e-05	0.0001	0.00019	-0.00108	0.0002	0.00038	0.00023	8e-05	4
20380	6e-05	0.0001	0.00019	-0.00108	0.0002	0.00038	0.00023	8e-05	4
20381	6e-05	0.0001	0.00019	-0.00108	0.0002	0.00038	0.00023	8e-05	4
20382	6e-05	0.0001	0.00019	-0.00108	0.0002	0.00038	0.00023	8e-05	4
20383	6e-05	0.0001	0.00019	-0.00108	0.0002	0.00038	0.00023	8e-05	4
20384	6e-05	0.0001	0.00019	-0.00108	0.0002	0.00038	0.00023	8e-05	4
20385	6e-05	0.0001	0.00019	-0.00108	0.0002	0.00038	0.00023	8e-05	4
20386	6e-05	0.0001	0.00019	-0.00108	0.0002	0.00038	0.00023	8e-05	4
20388	6e-05	0.0001	0.00019	-0.00108	0.0002	0.00038	0.00023	8e-05	4
20389	6e-05	0.0001	0.00019	-0.00108	0.0002	0.00038	0.00023	8e-05	4
20390	6e-05	0.0001	0.00019	-0.00108	0.0002	0.00038	0.00023	8e-05	4
20391	6e-05	0.0001	0.00019	-0.00108	0.0002	0.00038	0.00023	8e-05	4
20392	6e-05	0.0001	0.00019	-0.00108	0.0002	0.00038	0.00023	8e-05	4
20393	-0.00012	-0.00021	-0.00045	-0.00109	-0.00042	-0.0004	-0.00025	-0.00013	4
20394	5e-05	9e-05	0.00024	0.00127	0.00107	0.00065	0.00028	0.00011	4
20395	-4e-05	-4e-05	-3e-05	-0.00077	0.0003	-0.00046	-3e-05	-4e-05	4
20396	-4e-05	-4e-05	-3e-05	-0.00077	0.0003	-0.00046	-3e-05	-4e-05	4
20397	-4e-05	-4e-05	-3e-05	-0.00077	0.0003	-0.00046	-3e-05	-4e-05	4
20398	-4e-05	-4e-05	-3e-05	-0.00077	0.0003	-0.00046	-3e-05	-4e-05	4
20399	-4e-05	-4e-05	-3e-05	-0.00077	0.0003	-0.00046	-3e-05	-4e-05	4
20400	-4e-05	-4e-05	-3e-05	-0.00077	0.0003	-0.00046	-3e-05	-4e-05	4
20401	-4e-05	-4e-05	-3e-05	-0.00077	0.0003	-0.00046	-3e-05	-4e-05	4
20402	-4e-05	-4e-05	-3e-05	-0.00077	0.0003	-0.00046	-3e-05	-4e-05	4
20403	-4e-05	-4e-05	-3e-05	-0.00077	0.0003	-0.00046	-3e-05	-4e-05	4
20404	-4e-05	-4e-05	-3e-05	-0.00077	0.0003	-0.00046	-3e-05	-4e-05	4
20405	-4e-05	-4e-05	-3e-05	-0.00077	0.0003	-0.00046	-3e-05	-4e-05	4
20406	-4e-05	-4e-05	-3e-05	-0.00077	0.0003	-0.00046	-3e-05	-4e-05	4
20407	-4e-05	-4e-05	-3e-05	-0.00077	0.0003	-0.00046	-3e-05	-4e-05	4
20408	-4e-05	-4e-05	-3e-05	-0.00077	0.0003	-0.00046	-3e-05	-4e-05	4
20409	-4e-05	-4e-05	-3e-05	-0.00077	0.0003	-0.00046	-3e-05	-4e-05	4
20410	-4e-05	-4e-05	-3e-05	-0.00077	0.0003	-0.00046	-3e-05	-4e-05	4
20411	-4e-05	-4e-05	-3e-05	-0.00077	0.0003	-0.00046	-3e-05	-4e-05	4
20412	-4e-05	-4e-05	-3e-05	-0.00077	0.0003	-0.00046	-3e-05	-4e-05	4
20413	-4e-05	-4e-05	-3e-05	-0.00077	0.0003	-0.00046	-3e-05	-4e-05	4
20414	-4e-05	-4e-05	-3e-05	-0.00077	0.0003	-0.00046	-3e-05	-4e-05	4
20415	-4e-05	-4e-05	-3e-05	-0.00077	0.0003	-0.00046	-3e-05	-4e-05	4
20416	-7e-05	-0.00016	-0.00035	-0.00017	0.00043	0.00049	-8e-05	-0.00011	4
20417	6e-05	0.00017	0.00058	0.00053	-0.00038	0.00019	6e-05	2e-05	4
20418	0.00011	0.0002	0.0003	0.00063	0.00034	8e-05	0.0002	0.00012	4
20419	0.00011	0.0002	0.0003	0.00063	0.00034	8e-05	0.0002	0.00012	4
20420	0.00011	0.0002	0.0003	0.00063	0.00034	8e-05	0.0002	0.00012	4
20421	0.00011	0.0002	0.0003	0.00063	0.00034	8e-05	0.0002	0.00012	4
20422	0.00011	0.0002	0.0003	0.00063	0.00034	8e-05	0.0002	0.00012	4
20423	0.00011	0.0002	0.0003	0.00063	0.00034	8e-05	0.0002	0.00012	4
20424	0.00011	0.0002	0.0003	0.00063	0.00034	8e-05	0.0002	0.00012	4
20425	0.00011	0.0002	0.0003	0.00063	0.00034	8e-05	0.0002	0.00012	4
20426	0.00011	0.0002	0.0003	0.00063	0.00034	8e-05	0.0002	0.00012	4
20427	0.00011	0.0002	0.0003	0.00063	0.00034	8e-05	0.0002	0.00012	4
20428	0.00011	0.0002	0.0003	0.00063	0.00034	8e-05	0.0002	0.00012	4
20429	0.00011	0.0002	0.0003	0.00063	0.00034	8e-05	0.0002	0.00012	4
20430	0.00011	0.0002	0.0003	0.00063	0.00034	8e-05	0.0002	0.00012	4
20431	0.00011	0.0002	0.0003	0.00063	0.00034	8e-05	0.0002	0.00012	4
20432	0.00011	0.0002	0.0003	0.00063	0.00034	8e-05	0.0002	0.00012	4
20433	0.00011	0.0002	0.0003	0.00063	0.00034	8e-05	0.0002	0.00012	4
20434	0.00011	0.0002	0.0003	0.00063	0.00034	8e-05	0.0002	0.00012	4
20435	0.00011	0.0002	0.0003	0.00063	0.00034	8e-05	0.0002	0.00012	4
20436	0.00011	0.0002	0.0003	0.00063	0.00034	8e-05	0.0002	0.00012	4
20438	0.00011	0.0002	0.0003	0.00063	0.00034	8e-05	0.0002	0.00012	4
20439	0.00011	0.0002	0.0003	0.00063	0.00034	8e-05	0.0002	0.00012	4
20440	0.00011	0.0002	0.0003	0.00063	0.00034	8e-05	0.0002	0.00012	4
20441	0.00011	0.0002	0.0003	0.00063	0.00034	8e-05	0.0002	0.00012	4
20442	0.00011	0.0002	0.0003	0.00063	0.00034	8e-05	0.0002	0.00012	4
20443	0.00011	0.0002	0.0003	0.00063	0.00034	8e-05	0.0002	0.00012	4
20444	0.00011	0.0002	0.0003	0.00063	0.00034	8e-05	0.0002	0.00012	4
20445	0.00011	0.0002	0.0003	0.00063	0.00034	8e-05	0.0002	0.00012	4
20446	-3e-05	-4e-05	-9e-05	0.00035	-0.0002	-0.0011	-0.00011	-1e-05	4
20447	1e-05	9e-05	0.00037	0.00058	0.0005	0.00062	3e-05	0	4
20448	-0.00018	-0.00045	-0.00078	-0.00058	-0.00041	2e-05	-0.00011	-0.00013	4
20449	-0.00018	-0.00045	-0.00078	-0.00058	-0.00041	2e-05	-0.00011	-0.00013	4
20450	-0.00018	-0.00045	-0.00078	-0.00058	-0.00041	2e-05	-0.00011	-0.00013	4
20451	-0.00018	-0.00045	-0.00078	-0.00058	-0.00041	2e-05	-0.00011	-0.00013	4
20452	-0.00018	-0.00045	-0.00078	-0.00058	-0.00041	2e-05	-0.00011	-0.00013	4
20453	8e-05	0.00023	0.00092	0.00127	0.00048	-0.00056	-0.0002	0	4
20454	8e-05	0.00023	0.00092	0.00127	0.00048	-0.00056	-0.0002	0	4
20455	-8e-05	-0.00013	-0.00039	0.00037	-5e-05	-3e-05	-6e-05	-7e-05	4
20456	-8e-05	-0.00013	-0.00039	0.00037	-5e-05	-3e-05	-6e-05	-7e-05	4
20457	-8e-05	-0.00013	-0.00039	0.00037	-5e-05	-3e-05	-6e-05	-7e-05	4
20459	-8e-05	-0.00013	-0.00039	0.00037	-5e-05	-3e-05	-6e-05	-7e-05	4
20461	-8e-05	-0.00013	-0.00039	0.00037	-5e-05	-3e-05	-6e-05	-7e-05	4
20462	-8e-05	-0.00013	-0.00039	0.00037	-5e-05	-3e-05	-6e-05	-7e-05	4
20463	-8e-05	-0.00013	-0.00039	0.00037	-5e-05	-3e-05	-6e-05	-7e-05	4
20464	-8e-05	-0.00013	-0.00039	0.00037	-5e-05	-3e-05	-6e-05	-7e-05	4
20465	-8e-05	-0.00013	-0.00039	0.00037	-5e-05	-3e-05	-6e-05	-7e-05	4
20466	-8e-05	-0.00013	-0.00039	0.00037	-5e-05	-3e-05	-6e-05	-7e-05	4
20467	-8e-05	-0.00013	-0.00039	0.00037	-5e-05	-3e-05	-6e-05	-7e-05	4
20468	-8e-05	-0.00013	-0.00039	0.00037	-5e-05	-3e-05	-6e-05	-7e-05	4
20469	-8e-05	-0.00013	-0.00039	0.00037	-5e-05	-3e-05	-6e-05	-7e-05	4
20470	-8e-05	-0.00013	-0.00039	0.00037	-5e-05	-3e-05	-6e-05	-7e-05	4
20471	-8e-05	-0.00013	-0.00039	0.00037	-5e-05	-3e-05	-6e-05	-7e-05	4
20472	-8e-05	-0.00013	-0.00039	0.00037	-5e-05	-3e-05	-6e-05	-7e-05	4
20473	-8e-05	-0.00013	-0.00039	0.00037	-5e-05	-3e-05	-6e-05	-7e-05	4
20474	-8e-05	-0.00013	-0.00039	0.00037	-5e-05	-3e-05	-6e-05	-7e-05	4
20475	-8e-05	-0.00013	-0.00039	0.00037	-5e-05	-3e-05	-6e-05	-7e-05	4
20476	-9e-05	-0.00017	-0.00044	0.00067	0.00025	0.00014	-5e-05	-4e-05	4
20477	-2e-05	-5e-05	-0.00011	-0.00033	0.00054	-0.00036	-0.0001	-1e-05	4
20478	-2e-05	-5e-05	-0.00011	-0.00033	0.00054	-0.00036	-0.0001	-1e-05	4
20479	-2e-05	-5e-05	-0.00011	-0.00033	0.00054	-0.00036	-0.0001	-1e-05	4
20480	-2e-05	-5e-05	-0.00011	-0.00033	0.00054	-0.00036	-0.0001	-1e-05	4
20481	-2e-05	-5e-05	-0.00011	-0.00033	0.00054	-0.00036	-0.0001	-1e-05	4
20482	-2e-05	-5e-05	-0.00011	-0.00033	0.00054	-0.00036	-0.0001	-1e-05	4
20483	-2e-05	-5e-05	-0.00011	-0.00033	0.00054	-0.00036	-0.0001	-1e-05	4
20484	-2e-05	-5e-05	-0.00011	-0.00033	0.00054	-0.00036	-0.0001	-1e-05	4
20485	-2e-05	-5e-05	-0.00011	-0.00033	0.00054	-0.00036	-0.0001	-1e-05	4
20486	-2e-05	-5e-05	-0.00011	-0.00033	0.00054	-0.00036	-0.0001	-1e-05	4
20488	-2e-05	-5e-05	-0.00011	-0.00033	0.00054	-0.00036	-0.0001	-1e-05	4
20489	-2e-05	-5e-05	-0.00011	-0.00033	0.00054	-0.00036	-0.0001	-1e-05	4
20490	-2e-05	-5e-05	-0.00011	-0.00033	0.00054	-0.00036	-0.0001	-1e-05	4
20491	-2e-05	-5e-05	-0.00011	-0.00033	0.00054	-0.00036	-0.0001	-1e-05	4
20492	-2e-05	-5e-05	-0.00011	-0.00033	0.00054	-0.00036	-0.0001	-1e-05	4
20493	-2e-05	1e-05	0.00011	0.00118	0.00066	-0.00039	-0.00017	-3e-05	4
20494	-2e-05	1e-05	0.00011	0.00118	0.00066	-0.00039	-0.00017	-3e-05	4
20495	-2e-05	1e-05	0.00011	0.00118	0.00066	-0.00039	-0.00017	-3e-05	4
20496	-2e-05	1e-05	0.00011	0.00118	0.00066	-0.00039	-0.00017	-3e-05	4
20497	-2e-05	1e-05	0.00011	0.00118	0.00066	-0.00039	-0.00017	-3e-05	4
20498	-2e-05	1e-05	0.00011	0.00118	0.00066	-0.00039	-0.00017	-3e-05	4
20499	-2e-05	1e-05	0.00011	0.00118	0.00066	-0.00039	-0.00017	-3e-05	4
20500	-2e-05	1e-05	0.00011	0.00118	0.00066	-0.00039	-0.00017	-3e-05	4
20501	-2e-05	1e-05	0.00011	0.00118	0.00066	-0.00039	-0.00017	-3e-05	4
20502	-2e-05	1e-05	0.00011	0.00118	0.00066	-0.00039	-0.00017	-3e-05	4
20503	-2e-05	1e-05	0.00011	0.00118	0.00066	-0.00039	-0.00017	-3e-05	4
20504	-2e-05	1e-05	0.00011	0.00118	0.00066	-0.00039	-0.00017	-3e-05	4
20505	-2e-05	1e-05	0.00011	0.00118	0.00066	-0.00039	-0.00017	-3e-05	4
20506	-2e-05	1e-05	0.00011	0.00118	0.00066	-0.00039	-0.00017	-3e-05	4
20507	-2e-05	1e-05	0.00011	0.00118	0.00066	-0.00039	-0.00017	-3e-05	4
20508	-2e-05	1e-05	0.00011	0.00118	0.00066	-0.00039	-0.00017	-3e-05	4
20509	-2e-05	1e-05	0.00011	0.00118	0.00066	-0.00039	-0.00017	-3e-05	4
20510	-2e-05	1e-05	0.00011	0.00118	0.00066	-0.00039	-0.00017	-3e-05	4
20511	-2e-05	1e-05	0.00011	0.00118	0.00066	-0.00039	-0.00017	-3e-05	4
20512	-2e-05	1e-05	0.00011	0.00118	0.00066	-0.00039	-0.00017	-3e-05	4
20513	0	6e-05	0.00023	0.00095	0.00017	0	7e-05	0	4
20514	-0.00014	-0.00028	-0.00075	0.00018	0.00093	-9e-05	-0.0001	-0.00014	4
20515	0.00016	0.00025	0.00044	0.00064	2e-05	0.00127	0.00021	0.0001	4
20516	0.00016	0.00025	0.00044	0.00064	2e-05	0.00127	0.00021	0.0001	4
20517	0.00016	0.00025	0.00044	0.00064	2e-05	0.00127	0.00021	0.0001	4
20518	0.00016	0.00025	0.00044	0.00064	2e-05	0.00127	0.00021	0.0001	4
20519	0.00016	0.00025	0.00044	0.00064	2e-05	0.00127	0.00021	0.0001	4
20520	0.00016	0.00025	0.00044	0.00064	2e-05	0.00127	0.00021	0.0001	4
20521	0.00016	0.00025	0.00044	0.00064	2e-05	0.00127	0.00021	0.0001	4
20522	0.00016	0.00025	0.00044	0.00064	2e-05	0.00127	0.00021	0.0001	4
20523	0.00016	0.00025	0.00044	0.00064	2e-05	0.00127	0.00021	0.0001	4
20524	0.00016	0.00025	0.00044	0.00064	2e-05	0.00127	0.00021	0.0001	4
20525	0.00016	0.00025	0.00044	0.00064	2e-05	0.00127	0.00021	0.0001	4
20526	0.00016	0.00025	0.00044	0.00064	2e-05	0.00127	0.00021	0.0001	4
20527	0.00016	0.00025	0.00044	0.00064	2e-05	0.00127	0.00021	0.0001	4
20528	0.00016	0.00025	0.00044	0.00064	2e-05	0.00127	0.00021	0.0001	4
20529	0.00016	0.00025	0.00044	0.00064	2e-05	0.00127	0.00021	0.0001	4
20530	0.00016	0.00025	0.00044	0.00064	2e-05	0.00127	0.00021	0.0001	4
20531	0.00016	0.00025	0.00044	0.00064	2e-05	0.00127	0.00021	0.0001	4
20532	0.00016	0.00025	0.00044	0.00064	2e-05	0.00127	0.00021	0.0001	4
20533	0.00016	0.00025	0.00044	0.00064	2e-05	0.00127	0.00021	0.0001	4
20534	0.00016	0.00025	0.00044	0.00064	2e-05	0.00127	0.00021	0.0001	4
20535	0.00016	0.00025	0.00044	0.00064	2e-05	0.00127	0.00021	0.0001	4
20537	0	0	1e-05	-0.0003	-0.00035	-0.0005	-0.00018	-2e-05	4
20540	-0.00011	-0.00014	-0.00032	-0.00039	0.00027	-0.00054	-6e-05	-9e-05	4
20541	-0.00011	-0.00014	-0.00032	-0.00039	0.00027	-0.00054	-6e-05	-9e-05	4
20542	-0.00011	-0.00014	-0.00032	-0.00039	0.00027	-0.00054	-6e-05	-9e-05	4
20543	-0.00011	-0.00014	-0.00032	-0.00039	0.00027	-0.00054	-6e-05	-9e-05	4
20544	-0.00011	-0.00014	-0.00032	-0.00039	0.00027	-0.00054	-6e-05	-9e-05	4
20545	-0.00011	-0.00014	-0.00032	-0.00039	0.00027	-0.00054	-6e-05	-9e-05	4
20546	-0.00011	-0.00014	-0.00032	-0.00039	0.00027	-0.00054	-6e-05	-9e-05	4
20547	-0.00011	-0.00014	-0.00032	-0.00039	0.00027	-0.00054	-6e-05	-9e-05	4
20548	-0.00011	-0.00014	-0.00032	-0.00039	0.00027	-0.00054	-6e-05	-9e-05	4
20549	-0.00011	-0.00014	-0.00032	-0.00039	0.00027	-0.00054	-6e-05	-9e-05	4
20550	-0.00011	-0.00014	-0.00032	-0.00039	0.00027	-0.00054	-6e-05	-9e-05	4
20551	3e-05	6e-05	0.00018	-0.00074	-7e-05	0.00048	1e-05	0	4
20552	3e-05	6e-05	0.00018	-0.00074	-7e-05	0.00048	1e-05	0	4
20553	1e-05	8e-05	0.0004	0.00076	-0.00023	-0.00023	1e-05	2e-05	4
20554	1e-05	8e-05	0.0004	0.00076	-0.00023	-0.00023	1e-05	2e-05	4
20555	1e-05	8e-05	0.0004	0.00076	-0.00023	-0.00023	1e-05	2e-05	4
20556	1e-05	8e-05	0.0004	0.00076	-0.00023	-0.00023	1e-05	2e-05	4
20557	1e-05	8e-05	0.0004	0.00076	-0.00023	-0.00023	1e-05	2e-05	4
20558	1e-05	8e-05	0.0004	0.00076	-0.00023	-0.00023	1e-05	2e-05	4
20559	1e-05	8e-05	0.0004	0.00076	-0.00023	-0.00023	1e-05	2e-05	4
20560	1e-05	8e-05	0.0004	0.00076	-0.00023	-0.00023	1e-05	2e-05	4
20561	1e-05	8e-05	0.0004	0.00076	-0.00023	-0.00023	1e-05	2e-05	4
20562	1e-05	8e-05	0.0004	0.00076	-0.00023	-0.00023	1e-05	2e-05	4
20563	1e-05	8e-05	0.0004	0.00076	-0.00023	-0.00023	1e-05	2e-05	4
20564	1e-05	8e-05	0.0004	0.00076	-0.00023	-0.00023	1e-05	2e-05	4
20565	1e-05	8e-05	0.0004	0.00076	-0.00023	-0.00023	1e-05	2e-05	4
20566	1e-05	8e-05	0.0004	0.00076	-0.00023	-0.00023	1e-05	2e-05	4
20567	1e-05	8e-05	0.0004	0.00076	-0.00023	-0.00023	1e-05	2e-05	4
20568	1e-05	8e-05	0.0004	0.00076	-0.00023	-0.00023	1e-05	2e-05	4
20569	1e-05	8e-05	0.0004	0.00076	-0.00023	-0.00023	1e-05	2e-05	4
20570	1e-05	8e-05	0.0004	0.00076	-0.00023	-0.00023	1e-05	2e-05	4
20571	1e-05	8e-05	0.0004	0.00076	-0.00023	-0.00023	1e-05	2e-05	4
20572	1e-05	8e-05	0.0004	0.00076	-0.00023	-0.00023	1e-05	2e-05	4
20573	4e-05	8e-05	0.0004	0.00099	0.00065	0.0007	-1e-05	3e-05	4
20574	4e-05	8e-05	0.0004	0.00099	0.00065	0.0007	-1e-05	3e-05	4
20575	4e-05	8e-05	0.0004	0.00099	0.00065	0.0007	-1e-05	3e-05	4
20576	-6e-05	-5e-05	0.0001	0.00082	0.00115	-0.00028	-0.00026	-9e-05	4
20577	-6e-05	-5e-05	0.0001	0.00082	0.00115	-0.00028	-0.00026	-9e-05	4
20578	-6e-05	-5e-05	0.0001	0.00082	0.00115	-0.00028	-0.00026	-9e-05	4
20579	-6e-05	-5e-05	0.0001	0.00082	0.00115	-0.00028	-0.00026	-9e-05	4
20580	-6e-05	-5e-05	0.0001	0.00082	0.00115	-0.00028	-0.00026	-9e-05	4
20581	-6e-05	-5e-05	0.0001	0.00082	0.00115	-0.00028	-0.00026	-9e-05	4
20582	-6e-05	-5e-05	0.0001	0.00082	0.00115	-0.00028	-0.00026	-9e-05	4
20583	-6e-05	-5e-05	0.0001	0.00082	0.00115	-0.00028	-0.00026	-9e-05	4
20584	-6e-05	-5e-05	0.0001	0.00082	0.00115	-0.00028	-0.00026	-9e-05	4
20585	-6e-05	-5e-05	0.0001	0.00082	0.00115	-0.00028	-0.00026	-9e-05	4
20586	-6e-05	-5e-05	0.0001	0.00082	0.00115	-0.00028	-0.00026	-9e-05	4
20588	-6e-05	-5e-05	0.0001	0.00082	0.00115	-0.00028	-0.00026	-9e-05	4
20590	-6e-05	-5e-05	0.0001	0.00082	0.00115	-0.00028	-0.00026	-9e-05	4
20591	-6e-05	-5e-05	0.0001	0.00082	0.00115	-0.00028	-0.00026	-9e-05	4
20592	-6e-05	-5e-05	0.0001	0.00082	0.00115	-0.00028	-0.00026	-9e-05	4
20593	-6e-05	-5e-05	0.0001	0.00082	0.00115	-0.00028	-0.00026	-9e-05	4
20594	-6e-05	-5e-05	0.0001	0.00082	0.00115	-0.00028	-0.00026	-9e-05	4
20595	-6e-05	-5e-05	0.0001	0.00082	0.00115	-0.00028	-0.00026	-9e-05	4
20596	-0.0001	-0.00021	-0.00073	-0.00128	-0.00044	-0.00039	-9e-05	-5e-05	4
20597	7e-05	0.00026	0.0009	0.00045	-0.00071	-0.0008	-8e-05	3e-05	4
20598	4e-05	3e-05	-2e-05	0.00028	-7e-05	0.00091	0.00014	4e-05	4
20599	4e-05	3e-05	-2e-05	0.00028	-7e-05	0.00091	0.00014	4e-05	4
20600	4e-05	3e-05	-2e-05	0.00028	-7e-05	0.00091	0.00014	4e-05	4
20601	4e-05	3e-05	-2e-05	0.00028	-7e-05	0.00091	0.00014	4e-05	4
20602	4e-05	3e-05	-2e-05	0.00028	-7e-05	0.00091	0.00014	4e-05	4
20603	4e-05	3e-05	-2e-05	0.00028	-7e-05	0.00091	0.00014	4e-05	4
20604	4e-05	3e-05	-2e-05	0.00028	-7e-05	0.00091	0.00014	4e-05	4
20605	4e-05	3e-05	-2e-05	0.00028	-7e-05	0.00091	0.00014	4e-05	4
20606	4e-05	3e-05	-2e-05	0.00028	-7e-05	0.00091	0.00014	4e-05	4
20607	4e-05	3e-05	-2e-05	0.00028	-7e-05	0.00091	0.00014	4e-05	4
20608	4e-05	3e-05	-2e-05	0.00028	-7e-05	0.00091	0.00014	4e-05	4
20609	4e-05	3e-05	-2e-05	0.00028	-7e-05	0.00091	0.00014	4e-05	4
20610	4e-05	3e-05	-2e-05	0.00028	-7e-05	0.00091	0.00014	4e-05	4
20611	3e-05	4e-05	9e-05	0.00058	-0.00014	0.00015	0.0001	4e-05	4
20612	3e-05	4e-05	9e-05	0.00058	-0.00014	0.00015	0.0001	4e-05	4
20613	3e-05	4e-05	9e-05	0.00058	-0.00014	0.00015	0.0001	4e-05	4
20614	3e-05	4e-05	9e-05	0.00058	-0.00014	0.00015	0.0001	4e-05	4
20615	3e-05	4e-05	9e-05	0.00058	-0.00014	0.00015	0.0001	4e-05	4
20616	3e-05	4e-05	9e-05	0.00058	-0.00014	0.00015	0.0001	4e-05	4
20617	-4e-05	-9e-05	-0.00052	0.00074	0.00052	-0.00046	8e-05	-2e-05	4
20618	-4e-05	-9e-05	-0.00052	0.00074	0.00052	-0.00046	8e-05	-2e-05	4
20619	-4e-05	-9e-05	-0.00052	0.00074	0.00052	-0.00046	8e-05	-2e-05	4
20620	-4e-05	-9e-05	-0.00052	0.00074	0.00052	-0.00046	8e-05	-2e-05	4
20621	-4e-05	-9e-05	-0.00052	0.00074	0.00052	-0.00046	8e-05	-2e-05	4
20622	-4e-05	-9e-05	-0.00052	0.00074	0.00052	-0.00046	8e-05	-2e-05	4
20623	-4e-05	-9e-05	-0.00052	0.00074	0.00052	-0.00046	8e-05	-2e-05	4
20624	-4e-05	-9e-05	-0.00052	0.00074	0.00052	-0.00046	8e-05	-2e-05	4
20625	-4e-05	-9e-05	-0.00052	0.00074	0.00052	-0.00046	8e-05	-2e-05	4
20626	-4e-05	-9e-05	-0.00052	0.00074	0.00052	-0.00046	8e-05	-2e-05	4
20627	-4e-05	-9e-05	-0.00052	0.00074	0.00052	-0.00046	8e-05	-2e-05	4
20628	-4e-05	-9e-05	-0.00052	0.00074	0.00052	-0.00046	8e-05	-2e-05	4
20629	-4e-05	-9e-05	-0.00052	0.00074	0.00052	-0.00046	8e-05	-2e-05	4
20630	-4e-05	-9e-05	-0.00052	0.00074	0.00052	-0.00046	8e-05	-2e-05	4
20631	-4e-05	-9e-05	-0.00052	0.00074	0.00052	-0.00046	8e-05	-2e-05	4
20632	-4e-05	-9e-05	-0.00052	0.00074	0.00052	-0.00046	8e-05	-2e-05	4
20633	-4e-05	-9e-05	-0.00052	0.00074	0.00052	-0.00046	8e-05	-2e-05	4
20634	-4e-05	-9e-05	-0.00052	0.00074	0.00052	-0.00046	8e-05	-2e-05	4
20635	-4e-05	-9e-05	-0.00052	0.00074	0.00052	-0.00046	8e-05	-2e-05	4
20636	-4e-05	-9e-05	-0.00052	0.00074	0.00052	-0.00046	8e-05	-2e-05	4
20638	-4e-05	-9e-05	-0.00052	0.00074	0.00052	-0.00046	8e-05	-2e-05	4
20640	-4e-05	-9e-05	-0.00052	0.00074	0.00052	-0.00046	8e-05	-2e-05	4
20641	-8e-05	-8e-05	0.00022	0.00102	-0.00041	-0.00014	-0.00018	-0.0001	4
20642	-8e-05	-8e-05	0.00022	0.00102	-0.00041	-0.00014	-0.00018	-0.0001	4
20643	3e-05	6e-05	0.00043	0.00076	-0.0007	-0.00027	-1e-05	0	4
20644	3e-05	6e-05	0.00043	0.00076	-0.0007	-0.00027	-1e-05	0	4
20646	3e-05	6e-05	0.00043	0.00076	-0.0007	-0.00027	-1e-05	0	4
20647	3e-05	6e-05	0.00043	0.00076	-0.0007	-0.00027	-1e-05	0	4
20648	3e-05	6e-05	0.00043	0.00076	-0.0007	-0.00027	-1e-05	0	4
20649	3e-05	6e-05	0.00043	0.00076	-0.0007	-0.00027	-1e-05	0	4
20650	3e-05	6e-05	0.00043	0.00076	-0.0007	-0.00027	-1e-05	0	4
20651	3e-05	6e-05	0.00043	0.00076	-0.0007	-0.00027	-1e-05	0	4
20652	3e-05	6e-05	0.00043	0.00076	-0.0007	-0.00027	-1e-05	0	4
20653	3e-05	6e-05	0.00043	0.00076	-0.0007	-0.00027	-1e-05	0	4
20654	3e-05	6e-05	0.00043	0.00076	-0.0007	-0.00027	-1e-05	0	4
20655	3e-05	6e-05	0.00043	0.00076	-0.0007	-0.00027	-1e-05	0	4
20656	-4e-05	-5e-05	-0.0001	-0.00032	0.00098	-1e-05	-0.00019	-8e-05	4
20657	-4e-05	-5e-05	-0.0001	-0.00032	0.00098	-1e-05	-0.00019	-8e-05	4
20658	-4e-05	-5e-05	-0.0001	-0.00032	0.00098	-1e-05	-0.00019	-8e-05	4
20659	-4e-05	-5e-05	-0.0001	-0.00032	0.00098	-1e-05	-0.00019	-8e-05	4
20660	-4e-05	-5e-05	-0.0001	-0.00032	0.00098	-1e-05	-0.00019	-8e-05	4
20661	-4e-05	-5e-05	-0.0001	-0.00032	0.00098	-1e-05	-0.00019	-8e-05	4
20662	0	-5e-05	-0.00016	-0.00026	-0.00035	0.00083	0	-1e-05	4
20663	0	-5e-05	-0.00016	-0.00026	-0.00035	0.00083	0	-1e-05	4
20664	0	-5e-05	-0.00016	-0.00026	-0.00035	0.00083	0	-1e-05	4
20665	0	-5e-05	-0.00016	-0.00026	-0.00035	0.00083	0	-1e-05	4
20666	0	-5e-05	-0.00016	-0.00026	-0.00035	0.00083	0	-1e-05	4
20667	0	-5e-05	-0.00016	-0.00026	-0.00035	0.00083	0	-1e-05	4
20668	0	-5e-05	-0.00016	-0.00026	-0.00035	0.00083	0	-1e-05	4
20669	0	-5e-05	-0.00016	-0.00026	-0.00035	0.00083	0	-1e-05	4
20670	0	3e-05	0.00011	-0.00081	-0.00053	-0.00051	-2e-05	-1e-05	4
20671	0	3e-05	0.00011	-0.00081	-0.00053	-0.00051	-2e-05	-1e-05	4
20672	0	3e-05	0.00011	-0.00081	-0.00053	-0.00051	-2e-05	-1e-05	4
20673	0	3e-05	0.00011	-0.00081	-0.00053	-0.00051	-2e-05	-1e-05	4
20674	0	3e-05	0.00011	-0.00081	-0.00053	-0.00051	-2e-05	-1e-05	4
20675	0	3e-05	0.00011	-0.00081	-0.00053	-0.00051	-2e-05	-1e-05	4
20676	0	3e-05	0.00011	-0.00081	-0.00053	-0.00051	-2e-05	-1e-05	4
20677	-1e-05	5e-05	0.00013	6e-05	0.00094	0	3e-05	-1e-05	4
20678	-1e-05	5e-05	0.00013	6e-05	0.00094	0	3e-05	-1e-05	4
20679	-1e-05	5e-05	0.00013	6e-05	0.00094	0	3e-05	-1e-05	4
20680	-1e-05	5e-05	0.00013	6e-05	0.00094	0	3e-05	-1e-05	4
20681	-1e-05	5e-05	0.00013	6e-05	0.00094	0	3e-05	-1e-05	4
20682	-1e-05	5e-05	0.00013	6e-05	0.00094	0	3e-05	-1e-05	4
20683	-1e-05	5e-05	0.00013	6e-05	0.00094	0	3e-05	-1e-05	4
20684	-1e-05	5e-05	0.00013	6e-05	0.00094	0	3e-05	-1e-05	4
20685	-1e-05	5e-05	0.00013	6e-05	0.00094	0	3e-05	-1e-05	4
20686	-1e-05	5e-05	0.00013	6e-05	0.00094	0	3e-05	-1e-05	4
20688	-1e-05	5e-05	0.00013	6e-05	0.00094	0	3e-05	-1e-05	4
20689	-1e-05	5e-05	0.00013	6e-05	0.00094	0	3e-05	-1e-05	4
20690	-1e-05	5e-05	0.00013	6e-05	0.00094	0	3e-05	-1e-05	4
20691	-1e-05	5e-05	0.00013	6e-05	0.00094	0	3e-05	-1e-05	4
20692	-1e-05	5e-05	0.00013	6e-05	0.00094	0	3e-05	-1e-05	4
20693	-4e-05	-6e-05	-0.00022	0.00027	-0.00076	-0.00075	-0.00015	-5e-05	4
20694	-4e-05	-6e-05	-0.00022	0.00027	-0.00076	-0.00075	-0.00015	-5e-05	4
20695	1e-05	0	-0.00019	-0.00122	-0.00052	0.00076	0.00014	1e-05	4
20696	1e-05	0	-0.00019	-0.00122	-0.00052	0.00076	0.00014	1e-05	4
20697	1e-05	0	-0.00019	-0.00122	-0.00052	0.00076	0.00014	1e-05	4
20698	1e-05	0	-0.00019	-0.00122	-0.00052	0.00076	0.00014	1e-05	4
20699	1e-05	0	-0.00019	-0.00122	-0.00052	0.00076	0.00014	1e-05	4
20700	1e-05	0	-0.00019	-0.00122	-0.00052	0.00076	0.00014	1e-05	4
20701	1e-05	0	-0.00019	-0.00122	-0.00052	0.00076	0.00014	1e-05	4
20702	1e-05	0	-0.00019	-0.00122	-0.00052	0.00076	0.00014	1e-05	4
20703	1e-05	0	-0.00019	-0.00122	-0.00052	0.00076	0.00014	1e-05	4
20704	1e-05	0	-0.00019	-0.00122	-0.00052	0.00076	0.00014	1e-05	4
20705	1e-05	0	-0.00019	-0.00122	-0.00052	0.00076	0.00014	1e-05	4
20706	1e-05	0	-0.00019	-0.00122	-0.00052	0.00076	0.00014	1e-05	4
20707	1e-05	0	-0.00019	-0.00122	-0.00052	0.00076	0.00014	1e-05	4
20708	1e-05	0	-0.00019	-0.00122	-0.00052	0.00076	0.00014	1e-05	4
20709	1e-05	0	-0.00019	-0.00122	-0.00052	0.00076	0.00014	1e-05	4
20710	1e-05	0	-0.00019	-0.00122	-0.00052	0.00076	0.00014	1e-05	4
20711	1e-05	0	-0.00019	-0.00122	-0.00052	0.00076	0.00014	1e-05	4
20712	1e-05	0	-0.00019	-0.00122	-0.00052	0.00076	0.00014	1e-05	4
20713	1e-05	0	-0.00019	-0.00122	-0.00052	0.00076	0.00014	1e-05	4
20714	1e-05	0	-0.00019	-0.00122	-0.00052	0.00076	0.00014	1e-05	4
20715	1e-05	0	-0.00019	-0.00122	-0.00052	0.00076	0.00014	1e-05	4
20716	1e-05	0	-0.00019	-0.00122	-0.00052	0.00076	0.00014	1e-05	4
20717	1e-05	0	-0.00019	-0.00122	-0.00052	0.00076	0.00014	1e-05	4
20718	1e-05	0	-0.00019	-0.00122	-0.00052	0.00076	0.00014	1e-05	4
20719	1e-05	0	-0.00019	-0.00122	-0.00052	0.00076	0.00014	1e-05	4
20720	1e-05	0	-0.00019	-0.00122	-0.00052	0.00076	0.00014	1e-05	4
20721	1e-05	0	-0.00019	-0.00122	-0.00052	0.00076	0.00014	1e-05	4
20722	1e-05	0	-0.00019	-0.00122	-0.00052	0.00076	0.00014	1e-05	4
20723	-5e-05	-0.0001	-0.00026	-0.00086	-0.00049	-0.00096	-8e-05	-2e-05	4
20724	-5e-05	-0.0001	-0.00026	-0.00086	-0.00049	-0.00096	-8e-05	-2e-05	4
20725	9e-05	0.00012	0.00031	0.00056	-0.0006	-0.00044	0.0001	9e-05	4
20726	9e-05	0.00012	0.00031	0.00056	-0.0006	-0.00044	0.0001	9e-05	4
20727	9e-05	0.00012	0.00031	0.00056	-0.0006	-0.00044	0.0001	9e-05	4
20728	9e-05	0.00012	0.00031	0.00056	-0.0006	-0.00044	0.0001	9e-05	4
20729	9e-05	0.00012	0.00031	0.00056	-0.0006	-0.00044	0.0001	9e-05	4
20730	7e-05	0.00016	0.0005	0.00065	0.00078	-0.00012	4e-05	3e-05	4
20731	7e-05	0.00016	0.0005	0.00065	0.00078	-0.00012	4e-05	3e-05	4
20732	7e-05	0.00016	0.0005	0.00065	0.00078	-0.00012	4e-05	3e-05	4
20733	7e-05	0.00016	0.0005	0.00065	0.00078	-0.00012	4e-05	3e-05	4
20734	7e-05	0.00016	0.0005	0.00065	0.00078	-0.00012	4e-05	3e-05	4
20735	7e-05	0.00016	0.0005	0.00065	0.00078	-0.00012	4e-05	3e-05	4
20736	7e-05	0.00016	0.0005	0.00065	0.00078	-0.00012	4e-05	3e-05	4
20739	7e-05	0.00016	0.0005	0.00065	0.00078	-0.00012	4e-05	3e-05	4
20740	7e-05	0.00016	0.0005	0.00065	0.00078	-0.00012	4e-05	3e-05	4
20741	7e-05	0.00016	0.0005	0.00065	0.00078	-0.00012	4e-05	3e-05	4
20742	7e-05	0.00016	0.0005	0.00065	0.00078	-0.00012	4e-05	3e-05	4
20743	7e-05	0.00016	0.0005	0.00065	0.00078	-0.00012	4e-05	3e-05	4
20744	-4e-05	-6e-05	0	0.00029	0.00047	0.00079	0	-3e-05	4
20745	-9e-05	-0.00022	-0.00072	-0.00088	0.00083	-0.00112	-4e-05	-4e-05	4
20746	-9e-05	-0.00022	-0.00072	-0.00088	0.00083	-0.00112	-4e-05	-4e-05	4
20747	-9e-05	-0.00022	-0.00072	-0.00088	0.00083	-0.00112	-4e-05	-4e-05	4
20748	-9e-05	-0.00022	-0.00072	-0.00088	0.00083	-0.00112	-4e-05	-4e-05	4
20749	-9e-05	-0.00022	-0.00072	-0.00088	0.00083	-0.00112	-4e-05	-4e-05	4
20750	-9e-05	-0.00022	-0.00072	-0.00088	0.00083	-0.00112	-4e-05	-4e-05	4
20751	-9e-05	-0.00022	-0.00072	-0.00088	0.00083	-0.00112	-4e-05	-4e-05	4
20752	-9e-05	-0.00022	-0.00072	-0.00088	0.00083	-0.00112	-4e-05	-4e-05	4
20753	-9e-05	-0.0002	-0.00073	-0.00099	-0.00037	-0.00074	-1e-05	-3e-05	4
20754	-9e-05	-0.0002	-0.00073	-0.00099	-0.00037	-0.00074	-1e-05	-3e-05	4
20755	-1e-05	6e-05	0.00024	0.001	7e-05	-0.00072	-0.00014	-5e-05	4
20756	-1e-05	6e-05	0.00024	0.001	7e-05	-0.00072	-0.00014	-5e-05	4
20757	-1e-05	6e-05	0.00024	0.001	7e-05	-0.00072	-0.00014	-5e-05	4
20758	-1e-05	6e-05	0.00024	0.001	7e-05	-0.00072	-0.00014	-5e-05	4
20759	-1e-05	6e-05	0.00024	0.001	7e-05	-0.00072	-0.00014	-5e-05	4
20760	-1e-05	6e-05	0.00024	0.001	7e-05	-0.00072	-0.00014	-5e-05	4
20761	-1e-05	6e-05	0.00024	0.001	7e-05	-0.00072	-0.00014	-5e-05	4
20762	-1e-05	6e-05	0.00024	0.001	7e-05	-0.00072	-0.00014	-5e-05	4
20763	-1e-05	6e-05	0.00024	0.001	7e-05	-0.00072	-0.00014	-5e-05	4
20764	-1e-05	6e-05	0.00024	0.001	7e-05	-0.00072	-0.00014	-5e-05	4
20765	-1e-05	6e-05	0.00024	0.001	7e-05	-0.00072	-0.00014	-5e-05	4
20766	-1e-05	6e-05	0.00024	0.001	7e-05	-0.00072	-0.00014	-5e-05	4
20767	-1e-05	6e-05	0.00024	0.001	7e-05	-0.00072	-0.00014	-5e-05	4
20768	-1e-05	6e-05	0.00024	0.001	7e-05	-0.00072	-0.00014	-5e-05	4
20769	-1e-05	6e-05	0.00024	0.001	7e-05	-0.00072	-0.00014	-5e-05	4
20770	-1e-05	6e-05	0.00024	0.001	7e-05	-0.00072	-0.00014	-5e-05	4
20771	-1e-05	6e-05	0.00024	0.001	7e-05	-0.00072	-0.00014	-5e-05	4
20772	-1e-05	6e-05	0.00024	0.001	7e-05	-0.00072	-0.00014	-5e-05	4
20773	-1e-05	6e-05	0.00024	0.001	7e-05	-0.00072	-0.00014	-5e-05	4
20774	-1e-05	6e-05	0.00024	0.001	7e-05	-0.00072	-0.00014	-5e-05	4
20775	-1e-05	6e-05	0.00024	0.001	7e-05	-0.00072	-0.00014	-5e-05	4
20776	-1e-05	-5e-05	-0.00034	0.00036	0.00044	0.00046	7e-05	2e-05	4
20777	-3e-05	-0.00014	-0.00063	-0.00127	-0.0009	-0.00045	2e-05	-2e-05	4
20778	-2e-05	2e-05	0.00029	-2e-05	8e-05	0.00124	7e-05	0	4
20779	-2e-05	2e-05	0.00029	-2e-05	8e-05	0.00124	7e-05	0	4
20780	-2e-05	2e-05	0.00029	-2e-05	8e-05	0.00124	7e-05	0	4
20781	-2e-05	2e-05	0.00029	-2e-05	8e-05	0.00124	7e-05	0	4
20782	-2e-05	2e-05	0.00029	-2e-05	8e-05	0.00124	7e-05	0	4
20783	-2e-05	2e-05	0.00029	-2e-05	8e-05	0.00124	7e-05	0	4
20784	-2e-05	2e-05	0.00029	-2e-05	8e-05	0.00124	7e-05	0	4
20785	-2e-05	2e-05	0.00029	-2e-05	8e-05	0.00124	7e-05	0	4
20786	-2e-05	2e-05	0.00029	-2e-05	8e-05	0.00124	7e-05	0	4
20789	-2e-05	2e-05	0.00029	-2e-05	8e-05	0.00124	7e-05	0	4
20790	-2e-05	2e-05	0.00029	-2e-05	8e-05	0.00124	7e-05	0	4
20791	-2e-05	2e-05	0.00029	-2e-05	8e-05	0.00124	7e-05	0	4
20792	-2e-05	2e-05	0.00029	-2e-05	8e-05	0.00124	7e-05	0	4
20793	-2e-05	2e-05	0.00029	-2e-05	8e-05	0.00124	7e-05	0	4
20794	-2e-05	2e-05	0.00029	-2e-05	8e-05	0.00124	7e-05	0	4
20795	-2e-05	2e-05	0.00029	-2e-05	8e-05	0.00124	7e-05	0	4
20796	-2e-05	2e-05	0.00029	-2e-05	8e-05	0.00124	7e-05	0	4
20797	-2e-05	2e-05	0.00029	-2e-05	8e-05	0.00124	7e-05	0	4
20798	-2e-05	2e-05	0.00029	-2e-05	8e-05	0.00124	7e-05	0	4
20799	5e-05	9e-05	0.00017	-0.00028	-0.00062	-1e-05	0.00011	4e-05	4
20800	5e-05	9e-05	0.00017	-0.00028	-0.00062	-1e-05	0.00011	4e-05	4
20801	5e-05	9e-05	0.00017	-0.00028	-0.00062	-1e-05	0.00011	4e-05	4
20802	5e-05	9e-05	0.00017	-0.00028	-0.00062	-1e-05	0.00011	4e-05	4
20803	5e-05	9e-05	0.00017	-0.00028	-0.00062	-1e-05	0.00011	4e-05	4
20804	5e-05	9e-05	0.00017	-0.00028	-0.00062	-1e-05	0.00011	4e-05	4
20805	5e-05	9e-05	0.00017	-0.00028	-0.00062	-1e-05	0.00011	4e-05	4
20806	-5e-05	-7e-05	2e-05	0.00038	-0.00105	-0.00099	-0.0001	-2e-05	4
20808	-5e-05	-7e-05	2e-05	0.00038	-0.00105	-0.00099	-0.0001	-2e-05	4
20810	-5e-05	-7e-05	2e-05	0.00038	-0.00105	-0.00099	-0.0001	-2e-05	4
20811	-5e-05	-7e-05	2e-05	0.00038	-0.00105	-0.00099	-0.0001	-2e-05	4
20812	-5e-05	-7e-05	2e-05	0.00038	-0.00105	-0.00099	-0.0001	-2e-05	4
20813	-1e-05	0	4e-05	-3e-05	0.00108	-0.0012	-5e-05	-3e-05	4
20814	1e-05	3e-05	2e-05	0.00048	0.00033	-0.0001	4e-05	1e-05	4
20815	4e-05	7e-05	0.00024	0.00082	-0.00011	0.00045	6e-05	5e-05	4
20816	1e-05	2e-05	2e-05	-0.00023	-0.00033	-0.00041	0	-3e-05	4
20817	1e-05	2e-05	2e-05	-0.00023	-0.00033	-0.00041	0	-3e-05	4
20818	1e-05	2e-05	2e-05	-0.00023	-0.00033	-0.00041	0	-3e-05	4
20819	1e-05	2e-05	2e-05	-0.00023	-0.00033	-0.00041	0	-3e-05	4
20820	1e-05	2e-05	2e-05	-0.00023	-0.00033	-0.00041	0	-3e-05	4
20821	1e-05	2e-05	2e-05	-0.00023	-0.00033	-0.00041	0	-3e-05	4
20822	1e-05	2e-05	2e-05	-0.00023	-0.00033	-0.00041	0	-3e-05	4
20823	1e-05	2e-05	2e-05	-0.00023	-0.00033	-0.00041	0	-3e-05	4
20824	1e-05	2e-05	2e-05	-0.00023	-0.00033	-0.00041	0	-3e-05	4
20825	1e-05	2e-05	2e-05	-0.00023	-0.00033	-0.00041	0	-3e-05	4
20826	1e-05	2e-05	2e-05	-0.00023	-0.00033	-0.00041	0	-3e-05	4
20827	1e-05	2e-05	2e-05	-0.00023	-0.00033	-0.00041	0	-3e-05	4
20828	1e-05	2e-05	2e-05	-0.00023	-0.00033	-0.00041	0	-3e-05	4
20829	1e-05	2e-05	2e-05	-0.00023	-0.00033	-0.00041	0	-3e-05	4
20830	1e-05	2e-05	2e-05	-0.00023	-0.00033	-0.00041	0	-3e-05	4
20831	1e-05	2e-05	2e-05	-0.00023	-0.00033	-0.00041	0	-3e-05	4
20832	1e-05	2e-05	2e-05	-0.00023	-0.00033	-0.00041	0	-3e-05	4
20833	1e-05	2e-05	2e-05	-0.00023	-0.00033	-0.00041	0	-3e-05	4
20834	1e-05	2e-05	2e-05	-0.00023	-0.00033	-0.00041	0	-3e-05	4
20835	1e-05	2e-05	2e-05	-0.00023	-0.00033	-0.00041	0	-3e-05	4
20837	3e-05	4e-05	0.00015	0.0009	-0.00023	0.00018	-4e-05	1e-05	4
20840	-0.0001	-0.00013	-7e-05	-6e-05	-0.00043	-0.00015	-1e-05	-7e-05	4
20841	-0.0001	-0.00013	-7e-05	-6e-05	-0.00043	-0.00015	-1e-05	-7e-05	4
20842	-0.0001	-0.00013	-7e-05	-6e-05	-0.00043	-0.00015	-1e-05	-7e-05	4
20843	-0.0001	-0.00013	-7e-05	-6e-05	-0.00043	-0.00015	-1e-05	-7e-05	4
20844	-0.0001	-0.00013	-7e-05	-6e-05	-0.00043	-0.00015	-1e-05	-7e-05	4
20845	-0.0001	-0.00013	-7e-05	-6e-05	-0.00043	-0.00015	-1e-05	-7e-05	4
20846	-0.0001	-0.00013	-7e-05	-6e-05	-0.00043	-0.00015	-1e-05	-7e-05	4
20847	-0.0001	-0.00013	-7e-05	-6e-05	-0.00043	-0.00015	-1e-05	-7e-05	4
20848	-0.0001	-0.00013	-7e-05	-6e-05	-0.00043	-0.00015	-1e-05	-7e-05	4
20849	-0.0001	-0.00013	-7e-05	-6e-05	-0.00043	-0.00015	-1e-05	-7e-05	4
20850	-7e-05	-7e-05	-0.00013	-0.00049	-0.00041	-0.0005	-0.00015	-0.0001	4
20851	-7e-05	-7e-05	-0.00013	-0.00049	-0.00041	-0.0005	-0.00015	-0.0001	4
20852	-7e-05	-7e-05	-0.00013	-0.00049	-0.00041	-0.0005	-0.00015	-0.0001	4
20853	-7e-05	-7e-05	-0.00013	-0.00049	-0.00041	-0.0005	-0.00015	-0.0001	4
20854	-7e-05	-7e-05	-0.00013	-0.00049	-0.00041	-0.0005	-0.00015	-0.0001	4
20855	-7e-05	-7e-05	-0.00013	-0.00049	-0.00041	-0.0005	-0.00015	-0.0001	4
20856	-7e-05	-7e-05	-0.00013	-0.00049	-0.00041	-0.0005	-0.00015	-0.0001	4
20857	-3e-05	-6e-05	-0.00022	-1e-05	0.00014	0.00116	-1e-05	-2e-05	4
20858	-3e-05	-6e-05	-0.00022	-1e-05	0.00014	0.00116	-1e-05	-2e-05	4
20859	-3e-05	-6e-05	-0.00022	-1e-05	0.00014	0.00116	-1e-05	-2e-05	4
20860	-3e-05	-6e-05	-0.00022	-1e-05	0.00014	0.00116	-1e-05	-2e-05	4
20861	-3e-05	-6e-05	-0.00022	-1e-05	0.00014	0.00116	-1e-05	-2e-05	4
20862	-3e-05	-6e-05	-0.00022	-1e-05	0.00014	0.00116	-1e-05	-2e-05	4
20863	-3e-05	-6e-05	-0.00022	-1e-05	0.00014	0.00116	-1e-05	-2e-05	4
20864	-3e-05	-6e-05	-0.00022	-1e-05	0.00014	0.00116	-1e-05	-2e-05	4
20865	-3e-05	-6e-05	-0.00022	-1e-05	0.00014	0.00116	-1e-05	-2e-05	4
20866	-3e-05	-6e-05	-0.00022	-1e-05	0.00014	0.00116	-1e-05	-2e-05	4
20867	-3e-05	-6e-05	-0.00022	-1e-05	0.00014	0.00116	-1e-05	-2e-05	4
20868	-3e-05	-6e-05	-0.00022	-1e-05	0.00014	0.00116	-1e-05	-2e-05	4
20870	-3e-05	-6e-05	-0.00022	-1e-05	0.00014	0.00116	-1e-05	-2e-05	4
20871	-3e-05	-6e-05	-0.00022	-1e-05	0.00014	0.00116	-1e-05	-2e-05	4
20872	-3e-05	-6e-05	-0.00022	-1e-05	0.00014	0.00116	-1e-05	-2e-05	4
20873	-2e-05	-1e-05	0.00022	-0.00042	-0.00074	-4e-05	-2e-05	-1e-05	4
20874	-2e-05	-1e-05	0.00022	-0.00042	-0.00074	-4e-05	-2e-05	-1e-05	4
20875	0	7e-05	0.00029	-0.00021	-0.00124	-0.0005	-0.0001	-1e-05	4
20876	0	7e-05	0.00029	-0.00021	-0.00124	-0.0005	-0.0001	-1e-05	4
20877	0	7e-05	0.00029	-0.00021	-0.00124	-0.0005	-0.0001	-1e-05	4
20878	0	7e-05	0.00029	-0.00021	-0.00124	-0.0005	-0.0001	-1e-05	4
20879	0	7e-05	0.00029	-0.00021	-0.00124	-0.0005	-0.0001	-1e-05	4
20880	0	7e-05	0.00029	-0.00021	-0.00124	-0.0005	-0.0001	-1e-05	4
20881	0	7e-05	0.00029	-0.00021	-0.00124	-0.0005	-0.0001	-1e-05	4
20882	0	7e-05	0.00029	-0.00021	-0.00124	-0.0005	-0.0001	-1e-05	4
20883	0	7e-05	0.00029	-0.00021	-0.00124	-0.0005	-0.0001	-1e-05	4
20884	0	7e-05	0.00029	-0.00021	-0.00124	-0.0005	-0.0001	-1e-05	4
20885	0	7e-05	0.00029	-0.00021	-0.00124	-0.0005	-0.0001	-1e-05	4
20886	0	7e-05	0.00029	-0.00021	-0.00124	-0.0005	-0.0001	-1e-05	4
20888	0	7e-05	0.00029	-0.00021	-0.00124	-0.0005	-0.0001	-1e-05	4
20889	0	7e-05	0.00029	-0.00021	-0.00124	-0.0005	-0.0001	-1e-05	4
20890	0	7e-05	0.00029	-0.00021	-0.00124	-0.0005	-0.0001	-1e-05	4
20891	0	7e-05	0.00029	-0.00021	-0.00124	-0.0005	-0.0001	-1e-05	4
20892	0	7e-05	0.00029	-0.00021	-0.00124	-0.0005	-0.0001	-1e-05	4
20893	0	7e-05	0.00029	-0.00021	-0.00124	-0.0005	-0.0001	-1e-05	4
20894	0	7e-05	0.00029	-0.00021	-0.00124	-0.0005	-0.0001	-1e-05	4
20895	0	7e-05	0.00029	-0.00021	-0.00124	-0.0005	-0.0001	-1e-05	4
20896	3e-05	4e-05	0.00016	0.0006	0.0005	0.0006	7e-05	1e-05	4
20897	0	2e-05	0.00014	0.00081	0.0002	-0.00027	-9e-05	-4e-05	4
20898	2e-05	-3e-05	-0.00029	-0.00101	-0.00019	0.00049	0	2e-05	4
20899	2e-05	-3e-05	-0.00029	-0.00101	-0.00019	0.00049	0	2e-05	4
20900	2e-05	-3e-05	-0.00029	-0.00101	-0.00019	0.00049	0	2e-05	4
20901	2e-05	-3e-05	-0.00029	-0.00101	-0.00019	0.00049	0	2e-05	4
20902	2e-05	-3e-05	-0.00029	-0.00101	-0.00019	0.00049	0	2e-05	4
20903	2e-05	-3e-05	-0.00029	-0.00101	-0.00019	0.00049	0	2e-05	4
20904	2e-05	-3e-05	-0.00029	-0.00101	-0.00019	0.00049	0	2e-05	4
20905	2e-05	-3e-05	-0.00029	-0.00101	-0.00019	0.00049	0	2e-05	4
20906	2e-05	-3e-05	-0.00029	-0.00101	-0.00019	0.00049	0	2e-05	4
20907	2e-05	-3e-05	-0.00029	-0.00101	-0.00019	0.00049	0	2e-05	4
20908	2e-05	-3e-05	-0.00029	-0.00101	-0.00019	0.00049	0	2e-05	4
20909	2e-05	-3e-05	-0.00029	-0.00101	-0.00019	0.00049	0	2e-05	4
20910	2e-05	-3e-05	-0.00029	-0.00101	-0.00019	0.00049	0	2e-05	4
20911	2e-05	-3e-05	-0.00029	-0.00101	-0.00019	0.00049	0	2e-05	4
20912	2e-05	-3e-05	-0.00029	-0.00101	-0.00019	0.00049	0	2e-05	4
20913	2e-05	-3e-05	-0.00029	-0.00101	-0.00019	0.00049	0	2e-05	4
20914	2e-05	-3e-05	-0.00029	-0.00101	-0.00019	0.00049	0	2e-05	4
20915	2e-05	-3e-05	-0.00029	-0.00101	-0.00019	0.00049	0	2e-05	4
20916	2e-05	-3e-05	-0.00029	-0.00101	-0.00019	0.00049	0	2e-05	4
20917	2e-05	-3e-05	-0.00029	-0.00101	-0.00019	0.00049	0	2e-05	4
20918	-7e-05	-0.00021	-0.00076	-0.00097	0.00102	0.0001	6e-05	-1e-05	4
20919	-7e-05	-0.00021	-0.00076	-0.00097	0.00102	0.0001	6e-05	-1e-05	4
20920	0	0	1e-05	-6e-05	-0.00024	0.00061	-7e-05	-2e-05	4
20921	0	0	1e-05	-6e-05	-0.00024	0.00061	-7e-05	-2e-05	4
20922	0	0	1e-05	-6e-05	-0.00024	0.00061	-7e-05	-2e-05	4
20923	0	0	1e-05	-6e-05	-0.00024	0.00061	-7e-05	-2e-05	4
20924	0	0	1e-05	-6e-05	-0.00024	0.00061	-7e-05	-2e-05	4
20925	0	0	1e-05	-6e-05	-0.00024	0.00061	-7e-05	-2e-05	4
20926	0	0	1e-05	-6e-05	-0.00024	0.00061	-7e-05	-2e-05	4
20927	0	0	1e-05	-6e-05	-0.00024	0.00061	-7e-05	-2e-05	4
20928	0	0	1e-05	-6e-05	-0.00024	0.00061	-7e-05	-2e-05	4
20929	0	0	1e-05	-6e-05	-0.00024	0.00061	-7e-05	-2e-05	4
20930	0	0	1e-05	-6e-05	-0.00024	0.00061	-7e-05	-2e-05	4
20931	0	0	1e-05	-6e-05	-0.00024	0.00061	-7e-05	-2e-05	4
20932	0	0	1e-05	-6e-05	-0.00024	0.00061	-7e-05	-2e-05	4
20933	-6e-05	-6e-05	-8e-05	-0.0008	0.00037	-0.00027	-9e-05	-4e-05	4
20934	-6e-05	-6e-05	-8e-05	-0.0008	0.00037	-0.00027	-9e-05	-4e-05	4
20935	0	-2e-05	-5e-05	0.00015	0.00059	9e-05	6e-05	-1e-05	4
20936	0	-2e-05	-5e-05	0.00015	0.00059	9e-05	6e-05	-1e-05	4
20938	0	-2e-05	-5e-05	0.00015	0.00059	9e-05	6e-05	-1e-05	4
20940	0	-2e-05	-5e-05	0.00015	0.00059	9e-05	6e-05	-1e-05	4
20941	0	-2e-05	-5e-05	0.00015	0.00059	9e-05	6e-05	-1e-05	4
20942	0	-2e-05	-5e-05	0.00015	0.00059	9e-05	6e-05	-1e-05	4
20943	0	-2e-05	-5e-05	0.00015	0.00059	9e-05	6e-05	-1e-05	4
20944	0	-2e-05	-5e-05	0.00015	0.00059	9e-05	6e-05	-1e-05	4
20945	0	-2e-05	-5e-05	0.00015	0.00059	9e-05	6e-05	-1e-05	4
20946	0	-2e-05	-5e-05	0.00015	0.00059	9e-05	6e-05	-1e-05	4
20947	0	-2e-05	-5e-05	0.00015	0.00059	9e-05	6e-05	-1e-05	4
20948	0	-2e-05	-5e-05	0.00015	0.00059	9e-05	6e-05	-1e-05	4
20949	0	-2e-05	-5e-05	0.00015	0.00059	9e-05	6e-05	-1e-05	4
20950	0	-2e-05	-5e-05	0.00015	0.00059	9e-05	6e-05	-1e-05	4
20951	0	-2e-05	-5e-05	0.00015	0.00059	9e-05	6e-05	-1e-05	4
20952	0	-2e-05	-5e-05	0.00015	0.00059	9e-05	6e-05	-1e-05	4
20953	0	-2e-05	-5e-05	0.00015	0.00059	9e-05	6e-05	-1e-05	4
20954	0	-2e-05	-5e-05	0.00015	0.00059	9e-05	6e-05	-1e-05	4
20955	0	-2e-05	-5e-05	0.00015	0.00059	9e-05	6e-05	-1e-05	4
20956	3e-05	0.00014	0.00043	0.0006	-0.00101	-0.00047	-5e-05	0	4
20957	-1e-05	1e-05	0	5e-05	0.00029	-0.00045	6e-05	-1e-05	4
20958	-1e-05	1e-05	0	5e-05	0.00029	-0.00045	6e-05	-1e-05	4
20959	-1e-05	1e-05	0	5e-05	0.00029	-0.00045	6e-05	-1e-05	4
20960	-1e-05	1e-05	0	5e-05	0.00029	-0.00045	6e-05	-1e-05	4
20961	-1e-05	1e-05	0	5e-05	0.00029	-0.00045	6e-05	-1e-05	4
20962	-1e-05	1e-05	0	5e-05	0.00029	-0.00045	6e-05	-1e-05	4
20963	-1e-05	1e-05	0	5e-05	0.00029	-0.00045	6e-05	-1e-05	4
20964	-1e-05	1e-05	0	5e-05	0.00029	-0.00045	6e-05	-1e-05	4
20965	-1e-05	1e-05	0	5e-05	0.00029	-0.00045	6e-05	-1e-05	4
20966	-1e-05	1e-05	0	5e-05	0.00029	-0.00045	6e-05	-1e-05	4
20967	-1e-05	1e-05	0	5e-05	0.00029	-0.00045	6e-05	-1e-05	4
20968	-1e-05	1e-05	0	5e-05	0.00029	-0.00045	6e-05	-1e-05	4
20969	-8e-05	-0.00016	-0.00041	-0.00043	7e-05	0.00026	-1e-05	-5e-05	4
20970	4e-05	9e-05	0.00025	0.00058	0.00045	-0.00019	7e-05	6e-05	4
20971	4e-05	9e-05	0.00025	0.00058	0.00045	-0.00019	7e-05	6e-05	4
20972	4e-05	9e-05	0.00025	0.00058	0.00045	-0.00019	7e-05	6e-05	4
20973	4e-05	9e-05	0.00025	0.00058	0.00045	-0.00019	7e-05	6e-05	4
20974	4e-05	9e-05	0.00025	0.00058	0.00045	-0.00019	7e-05	6e-05	4
20975	4e-05	9e-05	0.00025	0.00058	0.00045	-0.00019	7e-05	6e-05	4
20976	4e-05	9e-05	0.00025	0.00058	0.00045	-0.00019	7e-05	6e-05	4
20977	4e-05	9e-05	0.00025	0.00058	0.00045	-0.00019	7e-05	6e-05	4
20978	2e-05	7e-05	0.00023	-2e-05	-0.00016	0.00033	-4e-05	2e-05	4
20979	2e-05	7e-05	0.00023	-2e-05	-0.00016	0.00033	-4e-05	2e-05	4
20980	2e-05	7e-05	0.00023	-2e-05	-0.00016	0.00033	-4e-05	2e-05	4
20981	2e-05	7e-05	0.00023	-2e-05	-0.00016	0.00033	-4e-05	2e-05	4
20982	2e-05	7e-05	0.00023	-2e-05	-0.00016	0.00033	-4e-05	2e-05	4
20983	2e-05	7e-05	0.00023	-2e-05	-0.00016	0.00033	-4e-05	2e-05	4
20984	2e-05	7e-05	0.00023	-2e-05	-0.00016	0.00033	-4e-05	2e-05	4
20985	2e-05	7e-05	0.00023	-2e-05	-0.00016	0.00033	-4e-05	2e-05	4
20986	2e-05	7e-05	0.00023	-2e-05	-0.00016	0.00033	-4e-05	2e-05	4
20988	2e-05	7e-05	0.00023	-2e-05	-0.00016	0.00033	-4e-05	2e-05	4
20989	2e-05	7e-05	0.00023	-2e-05	-0.00016	0.00033	-4e-05	2e-05	4
20990	2e-05	7e-05	0.00023	-2e-05	-0.00016	0.00033	-4e-05	2e-05	4
20991	2e-05	7e-05	0.00023	-2e-05	-0.00016	0.00033	-4e-05	2e-05	4
20992	2e-05	7e-05	0.00023	-2e-05	-0.00016	0.00033	-4e-05	2e-05	4
20993	2e-05	7e-05	0.00023	-2e-05	-0.00016	0.00033	-4e-05	2e-05	4
20994	2e-05	7e-05	0.00023	-2e-05	-0.00016	0.00033	-4e-05	2e-05	4
20995	2e-05	7e-05	0.00023	-2e-05	-0.00016	0.00033	-4e-05	2e-05	4
20996	2e-05	7e-05	0.00023	-2e-05	-0.00016	0.00033	-4e-05	2e-05	4
20997	2e-05	7e-05	0.00023	-2e-05	-0.00016	0.00033	-4e-05	2e-05	4
20998	2e-05	7e-05	0.00023	-2e-05	-0.00016	0.00033	-4e-05	2e-05	4
20999	2e-05	7e-05	0.00023	-2e-05	-0.00016	0.00033	-4e-05	2e-05	4
21000	2e-05	7e-05	0.00023	-2e-05	-0.00016	0.00033	-4e-05	2e-05	4
21001	-4e-05	-9e-05	-0.0003	-0.0003	3e-05	-9e-05	-2e-05	-1e-05	4
21002	4e-05	8e-05	0.00039	0.00111	0.00076	-0.00085	-2e-05	-1e-05	4
21003	4e-05	8e-05	0.00039	0.00111	0.00076	-0.00085	-2e-05	-1e-05	4
21004	4e-05	8e-05	0.00039	0.00111	0.00076	-0.00085	-2e-05	-1e-05	4
21005	4e-05	8e-05	0.00039	0.00111	0.00076	-0.00085	-2e-05	-1e-05	4
21006	4e-05	8e-05	0.00039	0.00111	0.00076	-0.00085	-2e-05	-1e-05	4
21007	4e-05	8e-05	0.00039	0.00111	0.00076	-0.00085	-2e-05	-1e-05	4
21008	4e-05	8e-05	0.00039	0.00111	0.00076	-0.00085	-2e-05	-1e-05	4
21009	4e-05	8e-05	0.00039	0.00111	0.00076	-0.00085	-2e-05	-1e-05	4
21010	4e-05	8e-05	0.00039	0.00111	0.00076	-0.00085	-2e-05	-1e-05	4
21011	4e-05	8e-05	0.00039	0.00111	0.00076	-0.00085	-2e-05	-1e-05	4
21012	4e-05	8e-05	0.00039	0.00111	0.00076	-0.00085	-2e-05	-1e-05	4
21013	4e-05	8e-05	0.00039	0.00111	0.00076	-0.00085	-2e-05	-1e-05	4
21014	4e-05	8e-05	0.00039	0.00111	0.00076	-0.00085	-2e-05	-1e-05	4
21015	4e-05	8e-05	0.00039	0.00111	0.00076	-0.00085	-2e-05	-1e-05	4
21016	-2e-05	-3e-05	1e-05	-0.00085	-0.00037	6e-05	-2e-05	-5e-05	4
21017	-2e-05	-3e-05	1e-05	-0.00085	-0.00037	6e-05	-2e-05	-5e-05	4
21018	-2e-05	-3e-05	1e-05	-0.00085	-0.00037	6e-05	-2e-05	-5e-05	4
21019	-2e-05	-3e-05	1e-05	-0.00085	-0.00037	6e-05	-2e-05	-5e-05	4
21020	-2e-05	-3e-05	1e-05	-0.00085	-0.00037	6e-05	-2e-05	-5e-05	4
21021	-2e-05	-3e-05	1e-05	-0.00085	-0.00037	6e-05	-2e-05	-5e-05	4
21022	-2e-05	-3e-05	1e-05	-0.00085	-0.00037	6e-05	-2e-05	-5e-05	4
21023	-2e-05	-3e-05	1e-05	-0.00085	-0.00037	6e-05	-2e-05	-5e-05	4
21024	-2e-05	-3e-05	1e-05	-0.00085	-0.00037	6e-05	-2e-05	-5e-05	4
21025	-2e-05	-3e-05	1e-05	-0.00085	-0.00037	6e-05	-2e-05	-5e-05	4
21026	-2e-05	-3e-05	1e-05	-0.00085	-0.00037	6e-05	-2e-05	-5e-05	4
21027	-2e-05	-3e-05	1e-05	-0.00085	-0.00037	6e-05	-2e-05	-5e-05	4
21028	-2e-05	-3e-05	1e-05	-0.00085	-0.00037	6e-05	-2e-05	-5e-05	4
21029	-2e-05	-3e-05	1e-05	-0.00085	-0.00037	6e-05	-2e-05	-5e-05	4
21030	3e-05	4e-05	0.00012	0.00059	-0.00048	7e-05	4e-05	7e-05	4
21031	2e-05	-2e-05	3e-05	0.00037	0.00053	-0.00043	-5e-05	1e-05	4
21032	2e-05	-2e-05	3e-05	0.00037	0.00053	-0.00043	-5e-05	1e-05	4
21033	2e-05	-2e-05	3e-05	0.00037	0.00053	-0.00043	-5e-05	1e-05	4
21034	2e-05	-2e-05	3e-05	0.00037	0.00053	-0.00043	-5e-05	1e-05	4
21035	2e-05	-2e-05	3e-05	0.00037	0.00053	-0.00043	-5e-05	1e-05	4
21036	2e-05	-2e-05	3e-05	0.00037	0.00053	-0.00043	-5e-05	1e-05	4
21039	5e-05	2e-05	-3e-05	-0.00058	-0.00064	0.00075	0.00018	4e-05	4
21040	5e-05	2e-05	-3e-05	-0.00058	-0.00064	0.00075	0.00018	4e-05	4
21041	5e-05	2e-05	-3e-05	-0.00058	-0.00064	0.00075	0.00018	4e-05	4
21042	5e-05	2e-05	-3e-05	-0.00058	-0.00064	0.00075	0.00018	4e-05	4
21043	5e-05	2e-05	-3e-05	-0.00058	-0.00064	0.00075	0.00018	4e-05	4
21044	5e-05	2e-05	-3e-05	-0.00058	-0.00064	0.00075	0.00018	4e-05	4
21045	5e-05	2e-05	-3e-05	-0.00058	-0.00064	0.00075	0.00018	4e-05	4
21046	5e-05	2e-05	-3e-05	-0.00058	-0.00064	0.00075	0.00018	4e-05	4
21047	5e-05	2e-05	-3e-05	-0.00058	-0.00064	0.00075	0.00018	4e-05	4
21048	5e-05	2e-05	-3e-05	-0.00058	-0.00064	0.00075	0.00018	4e-05	4
21049	5e-05	2e-05	-3e-05	-0.00058	-0.00064	0.00075	0.00018	4e-05	4
21050	5e-05	2e-05	-3e-05	-0.00058	-0.00064	0.00075	0.00018	4e-05	4
21051	5e-05	2e-05	-3e-05	-0.00058	-0.00064	0.00075	0.00018	4e-05	4
21052	5e-05	2e-05	-3e-05	-0.00058	-0.00064	0.00075	0.00018	4e-05	4
21053	4e-05	0.0001	0.00048	0.00127	-0.00052	0.0002	-6e-05	-1e-05	4
21054	4e-05	0.0001	0.00048	0.00127	-0.00052	0.0002	-6e-05	-1e-05	4
21055	-4e-05	1e-05	0	0.00011	-0.00017	-0.00115	-0.0002	-7e-05	4
21056	-4e-05	1e-05	0	0.00011	-0.00017	-0.00115	-0.0002	-7e-05	4
21057	-4e-05	1e-05	0	0.00011	-0.00017	-0.00115	-0.0002	-7e-05	4
21058	-4e-05	1e-05	0	0.00011	-0.00017	-0.00115	-0.0002	-7e-05	4
21059	-4e-05	1e-05	0	0.00011	-0.00017	-0.00115	-0.0002	-7e-05	4
21060	-4e-05	1e-05	0	0.00011	-0.00017	-0.00115	-0.0002	-7e-05	4
21061	-4e-05	1e-05	0	0.00011	-0.00017	-0.00115	-0.0002	-7e-05	4
21062	-4e-05	1e-05	0	0.00011	-0.00017	-0.00115	-0.0002	-7e-05	4
21063	-4e-05	1e-05	0	0.00011	-0.00017	-0.00115	-0.0002	-7e-05	4
21064	-4e-05	1e-05	0	0.00011	-0.00017	-0.00115	-0.0002	-7e-05	4
21065	-4e-05	1e-05	0	0.00011	-0.00017	-0.00115	-0.0002	-7e-05	4
21066	-4e-05	1e-05	0	0.00011	-0.00017	-0.00115	-0.0002	-7e-05	4
21067	-4e-05	1e-05	0	0.00011	-0.00017	-0.00115	-0.0002	-7e-05	4
21068	-4e-05	1e-05	0	0.00011	-0.00017	-0.00115	-0.0002	-7e-05	4
21069	-4e-05	1e-05	0	0.00011	-0.00017	-0.00115	-0.0002	-7e-05	4
21070	-4e-05	1e-05	0	0.00011	-0.00017	-0.00115	-0.0002	-7e-05	4
21071	-4e-05	1e-05	0	0.00011	-0.00017	-0.00115	-0.0002	-7e-05	4
21072	-4e-05	1e-05	0	0.00011	-0.00017	-0.00115	-0.0002	-7e-05	4
21073	-4e-05	1e-05	0	0.00011	-0.00017	-0.00115	-0.0002	-7e-05	4
21074	-4e-05	1e-05	0	0.00011	-0.00017	-0.00115	-0.0002	-7e-05	4
21075	-4e-05	1e-05	0	0.00011	-0.00017	-0.00115	-0.0002	-7e-05	4
21076	-4e-05	1e-05	0	0.00011	-0.00017	-0.00115	-0.0002	-7e-05	4
21077	-4e-05	1e-05	0	0.00011	-0.00017	-0.00115	-0.0002	-7e-05	4
21078	-4e-05	1e-05	0	0.00011	-0.00017	-0.00115	-0.0002	-7e-05	4
21079	-4e-05	1e-05	0	0.00011	-0.00017	-0.00115	-0.0002	-7e-05	4
21080	-4e-05	1e-05	0	0.00011	-0.00017	-0.00115	-0.0002	-7e-05	4
21081	-4e-05	1e-05	0	0.00011	-0.00017	-0.00115	-0.0002	-7e-05	4
21082	-4e-05	1e-05	0	0.00011	-0.00017	-0.00115	-0.0002	-7e-05	4
21083	0	2e-05	0.0002	0.00019	-0.00019	5e-05	-6e-05	-3e-05	4
21084	1e-05	-3e-05	-0.00013	-0.00082	5e-05	0.00017	-3e-05	0	4
21086	-5e-05	-9e-05	-0.0002	-3e-05	-0.0003	0.00104	4e-05	-3e-05	4
21087	-5e-05	-9e-05	-0.0002	-3e-05	-0.0003	0.00104	4e-05	-3e-05	4
21088	-5e-05	-9e-05	-0.0002	-3e-05	-0.0003	0.00104	4e-05	-3e-05	4
21089	-1e-05	4e-05	0.00019	0.00046	-0.00082	-0.00078	-0.00012	-5e-05	4
21090	-1e-05	0	-0.00011	-0.00028	0.00036	0.00027	2e-05	2e-05	4
21091	-1e-05	0	-0.00011	-0.00028	0.00036	0.00027	2e-05	2e-05	4
21092	-1e-05	0	-0.00011	-0.00028	0.00036	0.00027	2e-05	2e-05	4
21093	-1e-05	0	-0.00011	-0.00028	0.00036	0.00027	2e-05	2e-05	4
21094	-1e-05	0	-0.00011	-0.00028	0.00036	0.00027	2e-05	2e-05	4
21095	-1e-05	0	-0.00011	-0.00028	0.00036	0.00027	2e-05	2e-05	4
21096	-1e-05	0	-0.00011	-0.00028	0.00036	0.00027	2e-05	2e-05	4
21097	-1e-05	0	-0.00011	-0.00028	0.00036	0.00027	2e-05	2e-05	4
21098	-2e-05	-4e-05	-0.00022	-0.00053	0.00086	-0.00015	6e-05	0	4
21099	-2e-05	-4e-05	-0.00022	-0.00053	0.00086	-0.00015	6e-05	0	4
21100	-2e-05	-4e-05	-0.00022	-0.00053	0.00086	-0.00015	6e-05	0	4
21101	-2e-05	-4e-05	-0.00022	-0.00053	0.00086	-0.00015	6e-05	0	4
21102	-2e-05	-4e-05	-0.00022	-0.00053	0.00086	-0.00015	6e-05	0	4
21103	-2e-05	-4e-05	-0.00022	-0.00053	0.00086	-0.00015	6e-05	0	4
21104	-2e-05	-4e-05	-0.00022	-0.00053	0.00086	-0.00015	6e-05	0	4
21105	-2e-05	-4e-05	-0.00022	-0.00053	0.00086	-0.00015	6e-05	0	4
21106	-2e-05	-4e-05	-0.00022	-0.00053	0.00086	-0.00015	6e-05	0	4
21107	-2e-05	-4e-05	-0.00022	-0.00053	0.00086	-0.00015	6e-05	0	4
21108	-2e-05	-4e-05	-0.00022	-0.00053	0.00086	-0.00015	6e-05	0	4
21109	-2e-05	-4e-05	-0.00022	-0.00053	0.00086	-0.00015	6e-05	0	4
21110	-2e-05	-4e-05	-0.00022	-0.00053	0.00086	-0.00015	6e-05	0	4
21111	-2e-05	-4e-05	-0.00022	-0.00053	0.00086	-0.00015	6e-05	0	4
21112	-2e-05	-4e-05	-0.00022	-0.00053	0.00086	-0.00015	6e-05	0	4
21113	-2e-05	-4e-05	-0.00022	-0.00053	0.00086	-0.00015	6e-05	0	4
21114	8e-05	0.0001	-3e-05	-0.0001	-0.00105	0.0003	0.00013	8e-05	4
21115	-1e-05	-6e-05	-8e-05	0.00029	0.00044	0.00031	8e-05	0	4
21116	-1e-05	-6e-05	-8e-05	0.00029	0.00044	0.00031	8e-05	0	4
21117	-1e-05	-6e-05	-8e-05	0.00029	0.00044	0.00031	8e-05	0	4
21118	-1e-05	-6e-05	-8e-05	0.00029	0.00044	0.00031	8e-05	0	4
21119	-1e-05	-6e-05	-8e-05	0.00029	0.00044	0.00031	8e-05	0	4
21120	-1e-05	-6e-05	-8e-05	0.00029	0.00044	0.00031	8e-05	0	4
21121	-1e-05	-6e-05	-8e-05	0.00029	0.00044	0.00031	8e-05	0	4
21122	-1e-05	-6e-05	-8e-05	0.00029	0.00044	0.00031	8e-05	0	4
21123	-1e-05	-6e-05	-8e-05	0.00029	0.00044	0.00031	8e-05	0	4
21124	-1e-05	-6e-05	-8e-05	0.00029	0.00044	0.00031	8e-05	0	4
21125	-1e-05	-6e-05	-8e-05	0.00029	0.00044	0.00031	8e-05	0	4
21126	-1e-05	-6e-05	-8e-05	0.00029	0.00044	0.00031	8e-05	0	4
21127	-1e-05	-6e-05	-8e-05	0.00029	0.00044	0.00031	8e-05	0	4
21128	-1e-05	-6e-05	-8e-05	0.00029	0.00044	0.00031	8e-05	0	4
21129	-1e-05	-6e-05	-8e-05	0.00029	0.00044	0.00031	8e-05	0	4
21130	-1e-05	-6e-05	-8e-05	0.00029	0.00044	0.00031	8e-05	0	4
21131	-1e-05	-6e-05	-8e-05	0.00029	0.00044	0.00031	8e-05	0	4
21132	-1e-05	-6e-05	-8e-05	0.00029	0.00044	0.00031	8e-05	0	4
21133	-1e-05	-6e-05	-8e-05	0.00029	0.00044	0.00031	8e-05	0	4
21134	-1e-05	-6e-05	-8e-05	0.00029	0.00044	0.00031	8e-05	0	4
21135	-1e-05	-6e-05	-8e-05	0.00029	0.00044	0.00031	8e-05	0	4
21136	-3e-05	-6e-05	-0.0003	-0.00018	-0.00034	4e-05	2e-05	-1e-05	4
21139	-8e-05	-0.00014	-0.00029	-0.00072	-0.00046	-0.00094	-0.00024	-0.0001	4
21140	-8e-05	-0.00014	-0.00029	-0.00072	-0.00046	-0.00094	-0.00024	-0.0001	4
21141	-8e-05	-0.00014	-0.00029	-0.00072	-0.00046	-0.00094	-0.00024	-0.0001	4
21142	-8e-05	-0.00014	-0.00029	-0.00072	-0.00046	-0.00094	-0.00024	-0.0001	4
21143	-8e-05	-0.00014	-0.00029	-0.00072	-0.00046	-0.00094	-0.00024	-0.0001	4
21144	-8e-05	-0.00014	-0.00029	-0.00072	-0.00046	-0.00094	-0.00024	-0.0001	4
21145	-8e-05	-0.00014	-0.00029	-0.00072	-0.00046	-0.00094	-0.00024	-0.0001	4
21146	-8e-05	-0.00014	-0.00029	-0.00072	-0.00046	-0.00094	-0.00024	-0.0001	4
21147	-8e-05	-0.00014	-0.00029	-0.00072	-0.00046	-0.00094	-0.00024	-0.0001	4
21148	-8e-05	-0.00014	-0.00029	-0.00072	-0.00046	-0.00094	-0.00024	-0.0001	4
21149	1e-05	-1e-05	-9e-05	-0.00066	-0.00074	0.00085	8e-05	1e-05	4
21150	2e-05	0.00012	0.00056	0.00105	0.00029	-0.00063	-4e-05	-1e-05	4
21151	2e-05	0.00012	0.00056	0.00105	0.00029	-0.00063	-4e-05	-1e-05	4
21152	2e-05	0.00012	0.00056	0.00105	0.00029	-0.00063	-4e-05	-1e-05	4
21153	2e-05	0.00012	0.00056	0.00105	0.00029	-0.00063	-4e-05	-1e-05	4
21154	2e-05	0.00012	0.00056	0.00105	0.00029	-0.00063	-4e-05	-1e-05	4
21155	2e-05	0.00012	0.00056	0.00105	0.00029	-0.00063	-4e-05	-1e-05	4
21156	2e-05	0.00012	0.00056	0.00105	0.00029	-0.00063	-4e-05	-1e-05	4
21157	2e-05	0.00012	0.00056	0.00105	0.00029	-0.00063	-4e-05	-1e-05	4
21158	-9e-05	-0.00026	-0.00105	-0.00106	0.00016	0.00089	0.00014	-4e-05	4
21159	0	5e-05	0.00016	0.00052	0.00016	-0.00046	-0.00012	-2e-05	4
21160	0	5e-05	0.00016	0.00052	0.00016	-0.00046	-0.00012	-2e-05	4
21161	0	5e-05	0.00016	0.00052	0.00016	-0.00046	-0.00012	-2e-05	4
21162	0	5e-05	0.00016	0.00052	0.00016	-0.00046	-0.00012	-2e-05	4
21163	0	5e-05	0.00016	0.00052	0.00016	-0.00046	-0.00012	-2e-05	4
21164	0	5e-05	0.00016	0.00052	0.00016	-0.00046	-0.00012	-2e-05	4
21165	0	5e-05	0.00016	0.00052	0.00016	-0.00046	-0.00012	-2e-05	4
21166	0	5e-05	0.00016	0.00052	0.00016	-0.00046	-0.00012	-2e-05	4
21167	0	5e-05	0.00016	0.00052	0.00016	-0.00046	-0.00012	-2e-05	4
21168	0	5e-05	0.00016	0.00052	0.00016	-0.00046	-0.00012	-2e-05	4
21169	0	5e-05	0.00016	0.00052	0.00016	-0.00046	-0.00012	-2e-05	4
21170	0	5e-05	0.00016	0.00052	0.00016	-0.00046	-0.00012	-2e-05	4
21171	0	5e-05	0.00016	0.00052	0.00016	-0.00046	-0.00012	-2e-05	4
21172	0	5e-05	0.00016	0.00052	0.00016	-0.00046	-0.00012	-2e-05	4
21173	-6e-05	-8e-05	-2e-05	0.00055	0.00116	4e-05	1e-05	-8e-05	4
21174	-6e-05	-8e-05	-2e-05	0.00055	0.00116	4e-05	1e-05	-8e-05	4
21175	-3e-05	-7e-05	-0.00023	-0.00072	-0.00095	2e-05	-4e-05	-3e-05	4
21176	-3e-05	-7e-05	-0.00023	-0.00072	-0.00095	2e-05	-4e-05	-3e-05	4
21177	-3e-05	-7e-05	-0.00023	-0.00072	-0.00095	2e-05	-4e-05	-3e-05	4
21178	-3e-05	-7e-05	-0.00023	-0.00072	-0.00095	2e-05	-4e-05	-3e-05	4
21179	-3e-05	-7e-05	-0.00023	-0.00072	-0.00095	2e-05	-4e-05	-3e-05	4
21180	-3e-05	-7e-05	-0.00023	-0.00072	-0.00095	2e-05	-4e-05	-3e-05	4
21181	-3e-05	-7e-05	-0.00023	-0.00072	-0.00095	2e-05	-4e-05	-3e-05	4
21182	-3e-05	-7e-05	-0.00023	-0.00072	-0.00095	2e-05	-4e-05	-3e-05	4
21183	-3e-05	-7e-05	-0.00023	-0.00072	-0.00095	2e-05	-4e-05	-3e-05	4
21184	-3e-05	-7e-05	-0.00023	-0.00072	-0.00095	2e-05	-4e-05	-3e-05	4
21185	-3e-05	-7e-05	-0.00023	-0.00072	-0.00095	2e-05	-4e-05	-3e-05	4
21186	-3e-05	-7e-05	-0.00023	-0.00072	-0.00095	2e-05	-4e-05	-3e-05	4
21188	-3e-05	-7e-05	-0.00023	-0.00072	-0.00095	2e-05	-4e-05	-3e-05	4
21189	-3e-05	-7e-05	-0.00023	-0.00072	-0.00095	2e-05	-4e-05	-3e-05	4
21190	-3e-05	-7e-05	-0.00023	-0.00072	-0.00095	2e-05	-4e-05	-3e-05	4
21191	-3e-05	-7e-05	-0.00023	-0.00072	-0.00095	2e-05	-4e-05	-3e-05	4
21192	-3e-05	-7e-05	-0.00023	-0.00072	-0.00095	2e-05	-4e-05	-3e-05	4
21193	-3e-05	-7e-05	-0.00023	-0.00072	-0.00095	2e-05	-4e-05	-3e-05	4
21194	-3e-05	-7e-05	-0.00023	-0.00072	-0.00095	2e-05	-4e-05	-3e-05	4
21195	-3e-05	-7e-05	-0.00023	-0.00072	-0.00095	2e-05	-4e-05	-3e-05	4
21196	-4e-05	-5e-05	-7e-05	0.00032	0.00016	0.00065	-1e-05	-2e-05	4
21197	-4e-05	-5e-05	-7e-05	0.00032	0.00016	0.00065	-1e-05	-2e-05	4
21198	8e-05	0.0001	5e-05	-0.00034	0.00039	0.00102	0.00021	0.00011	4
21199	8e-05	0.0001	5e-05	-0.00034	0.00039	0.00102	0.00021	0.00011	4
21200	8e-05	0.0001	5e-05	-0.00034	0.00039	0.00102	0.00021	0.00011	4
21201	8e-05	0.0001	5e-05	-0.00034	0.00039	0.00102	0.00021	0.00011	4
21202	8e-05	0.0001	5e-05	-0.00034	0.00039	0.00102	0.00021	0.00011	4
21203	8e-05	0.0001	5e-05	-0.00034	0.00039	0.00102	0.00021	0.00011	4
21204	8e-05	0.0001	5e-05	-0.00034	0.00039	0.00102	0.00021	0.00011	4
21205	8e-05	0.0001	5e-05	-0.00034	0.00039	0.00102	0.00021	0.00011	4
21206	8e-05	0.0001	5e-05	-0.00034	0.00039	0.00102	0.00021	0.00011	4
21207	8e-05	0.0001	5e-05	-0.00034	0.00039	0.00102	0.00021	0.00011	4
21208	8e-05	0.0001	5e-05	-0.00034	0.00039	0.00102	0.00021	0.00011	4
21209	0	2e-05	0.00017	0.0003	0.00025	-0.00036	-9e-05	-1e-05	4
21210	-8e-05	-0.00022	-0.00071	-0.00113	-0.00086	-0.00044	-0.00012	-5e-05	4
21211	-8e-05	-0.00022	-0.00071	-0.00113	-0.00086	-0.00044	-0.00012	-5e-05	4
21212	-8e-05	-0.00022	-0.00071	-0.00113	-0.00086	-0.00044	-0.00012	-5e-05	4
21213	-8e-05	-0.00022	-0.00071	-0.00113	-0.00086	-0.00044	-0.00012	-5e-05	4
21214	-8e-05	-0.00022	-0.00071	-0.00113	-0.00086	-0.00044	-0.00012	-5e-05	4
21215	-8e-05	-0.00022	-0.00071	-0.00113	-0.00086	-0.00044	-0.00012	-5e-05	4
21216	-8e-05	-0.00022	-0.00071	-0.00113	-0.00086	-0.00044	-0.00012	-5e-05	4
21217	-8e-05	-0.00022	-0.00071	-0.00113	-0.00086	-0.00044	-0.00012	-5e-05	4
21218	1e-05	1e-05	0.00025	0.00127	0.0009	0.00036	7e-05	1e-05	4
21219	1e-05	2e-05	5e-05	-0.00075	-0.00061	-0.00108	-0.00013	-2e-05	4
21220	1e-05	2e-05	5e-05	-0.00075	-0.00061	-0.00108	-0.00013	-2e-05	4
21221	1e-05	2e-05	5e-05	-0.00075	-0.00061	-0.00108	-0.00013	-2e-05	4
21222	1e-05	2e-05	5e-05	-0.00075	-0.00061	-0.00108	-0.00013	-2e-05	4
21223	1e-05	2e-05	5e-05	-0.00075	-0.00061	-0.00108	-0.00013	-2e-05	4
21224	1e-05	2e-05	5e-05	-0.00075	-0.00061	-0.00108	-0.00013	-2e-05	4
21225	1e-05	2e-05	5e-05	-0.00075	-0.00061	-0.00108	-0.00013	-2e-05	4
21226	1e-05	2e-05	5e-05	-0.00075	-0.00061	-0.00108	-0.00013	-2e-05	4
21227	1e-05	2e-05	5e-05	-0.00075	-0.00061	-0.00108	-0.00013	-2e-05	4
21228	1e-05	2e-05	5e-05	-0.00075	-0.00061	-0.00108	-0.00013	-2e-05	4
21229	1e-05	2e-05	5e-05	-0.00075	-0.00061	-0.00108	-0.00013	-2e-05	4
21230	1e-05	2e-05	5e-05	-0.00075	-0.00061	-0.00108	-0.00013	-2e-05	4
21231	1e-05	2e-05	5e-05	-0.00075	-0.00061	-0.00108	-0.00013	-2e-05	4
21232	1e-05	2e-05	5e-05	-0.00075	-0.00061	-0.00108	-0.00013	-2e-05	4
21233	-1e-05	3e-05	0.00023	0.00034	0.00039	-0.00026	-4e-05	1e-05	4
21234	-1e-05	3e-05	0.00023	0.00034	0.00039	-0.00026	-4e-05	1e-05	4
21235	-2e-05	-2e-05	8e-05	7e-05	0.00064	0.00031	2e-05	-1e-05	4
21236	-2e-05	-2e-05	8e-05	7e-05	0.00064	0.00031	2e-05	-1e-05	4
21239	-2e-05	-2e-05	8e-05	7e-05	0.00064	0.00031	2e-05	-1e-05	4
21240	-2e-05	-2e-05	8e-05	7e-05	0.00064	0.00031	2e-05	-1e-05	4
21241	-2e-05	-2e-05	8e-05	7e-05	0.00064	0.00031	2e-05	-1e-05	4
21242	-2e-05	-2e-05	8e-05	7e-05	0.00064	0.00031	2e-05	-1e-05	4
21243	-2e-05	-2e-05	8e-05	7e-05	0.00064	0.00031	2e-05	-1e-05	4
21244	-2e-05	-2e-05	8e-05	7e-05	0.00064	0.00031	2e-05	-1e-05	4
21245	-2e-05	-2e-05	8e-05	7e-05	0.00064	0.00031	2e-05	-1e-05	4
21246	-2e-05	-2e-05	8e-05	7e-05	0.00064	0.00031	2e-05	-1e-05	4
21247	-2e-05	-2e-05	8e-05	7e-05	0.00064	0.00031	2e-05	-1e-05	4
21248	-2e-05	-2e-05	8e-05	7e-05	0.00064	0.00031	2e-05	-1e-05	4
21249	-2e-05	-2e-05	8e-05	7e-05	0.00064	0.00031	2e-05	-1e-05	4
21250	-2e-05	-2e-05	8e-05	7e-05	0.00064	0.00031	2e-05	-1e-05	4
21251	-2e-05	-2e-05	8e-05	7e-05	0.00064	0.00031	2e-05	-1e-05	4
21252	-2e-05	-2e-05	8e-05	7e-05	0.00064	0.00031	2e-05	-1e-05	4
21253	-2e-05	-2e-05	8e-05	7e-05	0.00064	0.00031	2e-05	-1e-05	4
21254	-2e-05	-2e-05	8e-05	7e-05	0.00064	0.00031	2e-05	-1e-05	4
21255	-2e-05	-2e-05	8e-05	7e-05	0.00064	0.00031	2e-05	-1e-05	4
21256	-1e-05	3e-05	0.0001	9e-05	0.00037	0.00068	3e-05	-1e-05	4
21257	4e-05	7e-05	0.00033	0.00058	-0.00039	-0.00063	-8e-05	2e-05	4
21258	0	1e-05	-6e-05	-0.00037	-0.00086	-0.00017	-9e-05	-2e-05	4
21259	0	1e-05	-6e-05	-0.00037	-0.00086	-0.00017	-9e-05	-2e-05	4
21260	0	1e-05	-6e-05	-0.00037	-0.00086	-0.00017	-9e-05	-2e-05	4
21261	0	1e-05	-6e-05	-0.00037	-0.00086	-0.00017	-9e-05	-2e-05	4
21262	0	1e-05	-6e-05	-0.00037	-0.00086	-0.00017	-9e-05	-2e-05	4
21263	0	1e-05	-6e-05	-0.00037	-0.00086	-0.00017	-9e-05	-2e-05	4
21264	0	1e-05	-6e-05	-0.00037	-0.00086	-0.00017	-9e-05	-2e-05	4
21265	0	1e-05	-6e-05	-0.00037	-0.00086	-0.00017	-9e-05	-2e-05	4
21266	0	1e-05	-6e-05	-0.00037	-0.00086	-0.00017	-9e-05	-2e-05	4
21267	0	1e-05	-6e-05	-0.00037	-0.00086	-0.00017	-9e-05	-2e-05	4
21268	0	1e-05	-6e-05	-0.00037	-0.00086	-0.00017	-9e-05	-2e-05	4
21269	0	1e-05	-6e-05	-0.00037	-0.00086	-0.00017	-9e-05	-2e-05	4
21270	0	1e-05	-6e-05	-0.00037	-0.00086	-0.00017	-9e-05	-2e-05	4
21271	0	1e-05	-6e-05	-0.00037	-0.00086	-0.00017	-9e-05	-2e-05	4
21272	0	1e-05	-6e-05	-0.00037	-0.00086	-0.00017	-9e-05	-2e-05	4
21273	0	1e-05	-6e-05	-0.00037	-0.00086	-0.00017	-9e-05	-2e-05	4
21274	0	1e-05	-6e-05	-0.00037	-0.00086	-0.00017	-9e-05	-2e-05	4
21275	0	1e-05	-6e-05	-0.00037	-0.00086	-0.00017	-9e-05	-2e-05	4
21276	0	1e-05	-6e-05	-0.00037	-0.00086	-0.00017	-9e-05	-2e-05	4
21277	0	1e-05	-6e-05	-0.00037	-0.00086	-0.00017	-9e-05	-2e-05	4
21278	-2e-05	-9e-05	-0.00042	-0.00098	-0.00017	-5e-05	7e-05	2e-05	4
21279	-2e-05	-9e-05	-0.00042	-0.00098	-0.00017	-5e-05	7e-05	2e-05	4
21280	-1e-05	2e-05	0.00015	0.00097	0.00031	-4e-05	-0.00015	-5e-05	4
21281	-1e-05	2e-05	0.00015	0.00097	0.00031	-4e-05	-0.00015	-5e-05	4
21282	-1e-05	2e-05	0.00015	0.00097	0.00031	-4e-05	-0.00015	-5e-05	4
21283	-1e-05	2e-05	0.00015	0.00097	0.00031	-4e-05	-0.00015	-5e-05	4
21284	-1e-05	2e-05	0.00015	0.00097	0.00031	-4e-05	-0.00015	-5e-05	4
21286	-1e-05	2e-05	0.00015	0.00097	0.00031	-4e-05	-0.00015	-5e-05	4
21287	-1e-05	2e-05	0.00015	0.00097	0.00031	-4e-05	-0.00015	-5e-05	4
21288	-1e-05	2e-05	0.00015	0.00097	0.00031	-4e-05	-0.00015	-5e-05	4
21289	-1e-05	2e-05	0.00015	0.00097	0.00031	-4e-05	-0.00015	-5e-05	4
21290	-1e-05	2e-05	0.00015	0.00097	0.00031	-4e-05	-0.00015	-5e-05	4
21291	-1e-05	2e-05	0.00015	0.00097	0.00031	-4e-05	-0.00015	-5e-05	4
21292	-1e-05	2e-05	0.00015	0.00097	0.00031	-4e-05	-0.00015	-5e-05	4
21293	-4e-05	-8e-05	-7e-05	-0.00023	2e-05	0	-5e-05	-4e-05	4
21294	-4e-05	-8e-05	-7e-05	-0.00023	2e-05	0	-5e-05	-4e-05	4
21295	-7e-05	-0.00013	-0.00015	-0.00027	0.00019	-0.00048	-4e-05	-4e-05	4
21296	-7e-05	-0.00013	-0.00015	-0.00027	0.00019	-0.00048	-4e-05	-4e-05	4
21297	-7e-05	-0.00013	-0.00015	-0.00027	0.00019	-0.00048	-4e-05	-4e-05	4
21298	-7e-05	-0.00013	-0.00015	-0.00027	0.00019	-0.00048	-4e-05	-4e-05	4
21299	-7e-05	-0.00013	-0.00015	-0.00027	0.00019	-0.00048	-4e-05	-4e-05	4
21300	-7e-05	-0.00013	-0.00015	-0.00027	0.00019	-0.00048	-4e-05	-4e-05	4
21301	-7e-05	-0.00013	-0.00015	-0.00027	0.00019	-0.00048	-4e-05	-4e-05	4
21302	-7e-05	-0.00013	-0.00015	-0.00027	0.00019	-0.00048	-4e-05	-4e-05	4
21303	-7e-05	-0.00013	-0.00015	-0.00027	0.00019	-0.00048	-4e-05	-4e-05	4
21304	-7e-05	-0.00013	-0.00015	-0.00027	0.00019	-0.00048	-4e-05	-4e-05	4
21305	-7e-05	-0.00013	-0.00015	-0.00027	0.00019	-0.00048	-4e-05	-4e-05	4
21306	-7e-05	-0.00013	-0.00015	-0.00027	0.00019	-0.00048	-4e-05	-4e-05	4
21307	-7e-05	-0.00013	-0.00015	-0.00027	0.00019	-0.00048	-4e-05	-4e-05	4
21308	-7e-05	-0.00013	-0.00015	-0.00027	0.00019	-0.00048	-4e-05	-4e-05	4
21309	-7e-05	-0.00013	-0.00015	-0.00027	0.00019	-0.00048	-4e-05	-4e-05	4
21310	-7e-05	-0.00013	-0.00015	-0.00027	0.00019	-0.00048	-4e-05	-4e-05	4
21311	-7e-05	-0.00013	-0.00015	-0.00027	0.00019	-0.00048	-4e-05	-4e-05	4
21312	-7e-05	-0.00013	-0.00015	-0.00027	0.00019	-0.00048	-4e-05	-4e-05	4
21313	-7e-05	-0.00013	-0.00015	-0.00027	0.00019	-0.00048	-4e-05	-4e-05	4
21314	-7e-05	-0.00013	-0.00015	-0.00027	0.00019	-0.00048	-4e-05	-4e-05	4
21315	-7e-05	-0.00013	-0.00015	-0.00027	0.00019	-0.00048	-4e-05	-4e-05	4
21316	2e-05	2e-05	3e-05	-4e-05	-0.0007	0.00018	0	-1e-05	4
21317	7e-05	9e-05	0.0001	2e-05	-3e-05	-0.00061	5e-05	0.0001	4
21318	7e-05	9e-05	0.0001	2e-05	-3e-05	-0.00061	5e-05	0.0001	4
21319	7e-05	9e-05	0.0001	2e-05	-3e-05	-0.00061	5e-05	0.0001	4
21320	7e-05	9e-05	0.0001	2e-05	-3e-05	-0.00061	5e-05	0.0001	4
21321	7e-05	9e-05	0.0001	2e-05	-3e-05	-0.00061	5e-05	0.0001	4
21322	7e-05	9e-05	0.0001	2e-05	-3e-05	-0.00061	5e-05	0.0001	4
21323	7e-05	9e-05	0.0001	2e-05	-3e-05	-0.00061	5e-05	0.0001	4
21324	7e-05	9e-05	0.0001	2e-05	-3e-05	-0.00061	5e-05	0.0001	4
21325	7e-05	9e-05	0.0001	2e-05	-3e-05	-0.00061	5e-05	0.0001	4
21326	7e-05	9e-05	0.0001	2e-05	-3e-05	-0.00061	5e-05	0.0001	4
21327	7e-05	9e-05	0.0001	2e-05	-3e-05	-0.00061	5e-05	0.0001	4
21328	7e-05	9e-05	0.0001	2e-05	-3e-05	-0.00061	5e-05	0.0001	4
21329	-1e-05	3e-05	9e-05	0.00015	0.00079	-0.00083	-1e-05	0	4
21330	2e-05	7e-05	8e-05	-0.00018	-0.00045	0.00029	6e-05	1e-05	4
21331	2e-05	7e-05	8e-05	-0.00018	-0.00045	0.00029	6e-05	1e-05	4
21332	2e-05	7e-05	8e-05	-0.00018	-0.00045	0.00029	6e-05	1e-05	4
21333	2e-05	7e-05	8e-05	-0.00018	-0.00045	0.00029	6e-05	1e-05	4
21334	2e-05	7e-05	8e-05	-0.00018	-0.00045	0.00029	6e-05	1e-05	4
21335	2e-05	7e-05	8e-05	-0.00018	-0.00045	0.00029	6e-05	1e-05	4
21336	2e-05	7e-05	8e-05	-0.00018	-0.00045	0.00029	6e-05	1e-05	4
21339	-8e-05	-4e-05	-4e-05	0.00034	0.00047	-3e-05	-9e-05	-8e-05	4
21340	-8e-05	-4e-05	-4e-05	0.00034	0.00047	-3e-05	-9e-05	-8e-05	4
21341	-8e-05	-4e-05	-4e-05	0.00034	0.00047	-3e-05	-9e-05	-8e-05	4
21342	-8e-05	-4e-05	-4e-05	0.00034	0.00047	-3e-05	-9e-05	-8e-05	4
21343	-8e-05	-4e-05	-4e-05	0.00034	0.00047	-3e-05	-9e-05	-8e-05	4
21344	-8e-05	-4e-05	-4e-05	0.00034	0.00047	-3e-05	-9e-05	-8e-05	4
21345	-8e-05	-4e-05	-4e-05	0.00034	0.00047	-3e-05	-9e-05	-8e-05	4
21346	-8e-05	-4e-05	-4e-05	0.00034	0.00047	-3e-05	-9e-05	-8e-05	4
21347	-8e-05	-4e-05	-4e-05	0.00034	0.00047	-3e-05	-9e-05	-8e-05	4
21348	-8e-05	-4e-05	-4e-05	0.00034	0.00047	-3e-05	-9e-05	-8e-05	4
21349	-8e-05	-4e-05	-4e-05	0.00034	0.00047	-3e-05	-9e-05	-8e-05	4
21350	-8e-05	-4e-05	-4e-05	0.00034	0.00047	-3e-05	-9e-05	-8e-05	4
21351	-8e-05	-4e-05	-4e-05	0.00034	0.00047	-3e-05	-9e-05	-8e-05	4
21352	-8e-05	-4e-05	-4e-05	0.00034	0.00047	-3e-05	-9e-05	-8e-05	4
21353	-8e-05	-4e-05	-4e-05	0.00034	0.00047	-3e-05	-9e-05	-8e-05	4
21354	4e-05	7e-05	0.00019	0.00127	0.00019	0.00089	6e-05	5e-05	4
21355	4e-05	7e-05	0.00019	0.00127	0.00019	0.00089	6e-05	5e-05	4
21356	4e-05	7e-05	0.00019	0.00127	0.00019	0.00089	6e-05	5e-05	4
21357	4e-05	7e-05	0.00019	0.00127	0.00019	0.00089	6e-05	5e-05	4
21358	4e-05	7e-05	0.00019	0.00127	0.00019	0.00089	6e-05	5e-05	4
21359	-3e-05	-5e-05	0.0001	0.00023	-0.00027	0.00025	0	-3e-05	4
21360	-2e-05	-6e-05	-0.0004	-0.0004	8e-05	-0.00045	4e-05	-3e-05	4
21361	-2e-05	-6e-05	-0.0004	-0.0004	8e-05	-0.00045	4e-05	-3e-05	4
21362	-2e-05	-6e-05	-0.0004	-0.0004	8e-05	-0.00045	4e-05	-3e-05	4
21363	-2e-05	-6e-05	-0.0004	-0.0004	8e-05	-0.00045	4e-05	-3e-05	4
21364	-2e-05	-6e-05	-0.0004	-0.0004	8e-05	-0.00045	4e-05	-3e-05	4
21365	-2e-05	-6e-05	-0.0004	-0.0004	8e-05	-0.00045	4e-05	-3e-05	4
21366	-2e-05	-6e-05	-0.0004	-0.0004	8e-05	-0.00045	4e-05	-3e-05	4
21367	-2e-05	-6e-05	-0.0004	-0.0004	8e-05	-0.00045	4e-05	-3e-05	4
21368	-2e-05	-6e-05	-0.0004	-0.0004	8e-05	-0.00045	4e-05	-3e-05	4
21369	-2e-05	-6e-05	-0.0004	-0.0004	8e-05	-0.00045	4e-05	-3e-05	4
21370	-2e-05	-6e-05	-0.0004	-0.0004	8e-05	-0.00045	4e-05	-3e-05	4
21371	-2e-05	-6e-05	-0.0004	-0.0004	8e-05	-0.00045	4e-05	-3e-05	4
21372	-2e-05	-6e-05	-0.0004	-0.0004	8e-05	-0.00045	4e-05	-3e-05	4
21373	-2e-05	-6e-05	-0.0004	-0.0004	8e-05	-0.00045	4e-05	-3e-05	4
21374	-2e-05	-6e-05	-0.0004	-0.0004	8e-05	-0.00045	4e-05	-3e-05	4
21375	-2e-05	-6e-05	-0.0004	-0.0004	8e-05	-0.00045	4e-05	-3e-05	4
21376	-3e-05	-3e-05	4e-05	0.00013	0.00048	-0.00018	-7e-05	-5e-05	4
21377	-3e-05	-3e-05	4e-05	0.00013	0.00048	-0.00018	-7e-05	-5e-05	4
21378	4e-05	9e-05	0.00037	0.00103	0.00056	0.00029	-6e-05	0	4
21379	4e-05	9e-05	0.00037	0.00103	0.00056	0.00029	-6e-05	0	4
21380	4e-05	9e-05	0.00037	0.00103	0.00056	0.00029	-6e-05	0	4
21381	4e-05	9e-05	0.00037	0.00103	0.00056	0.00029	-6e-05	0	4
21382	4e-05	9e-05	0.00037	0.00103	0.00056	0.00029	-6e-05	0	4
21383	4e-05	9e-05	0.00037	0.00103	0.00056	0.00029	-6e-05	0	4
21384	4e-05	9e-05	0.00037	0.00103	0.00056	0.00029	-6e-05	0	4
21385	4e-05	9e-05	0.00037	0.00103	0.00056	0.00029	-6e-05	0	4
21386	4e-05	9e-05	0.00037	0.00103	0.00056	0.00029	-6e-05	0	4
21389	4e-05	9e-05	0.00037	0.00103	0.00056	0.00029	-6e-05	0	4
21390	4e-05	9e-05	0.00037	0.00103	0.00056	0.00029	-6e-05	0	4
21391	4e-05	9e-05	0.00037	0.00103	0.00056	0.00029	-6e-05	0	4
21392	4e-05	9e-05	0.00037	0.00103	0.00056	0.00029	-6e-05	0	4
21393	4e-05	9e-05	0.00037	0.00103	0.00056	0.00029	-6e-05	0	4
21394	4e-05	9e-05	0.00037	0.00103	0.00056	0.00029	-6e-05	0	4
21395	4e-05	9e-05	0.00037	0.00103	0.00056	0.00029	-6e-05	0	4
21396	4e-05	9e-05	0.00037	0.00103	0.00056	0.00029	-6e-05	0	4
21397	4e-05	9e-05	0.00037	0.00103	0.00056	0.00029	-6e-05	0	4
21398	-3e-05	-2e-05	-9e-05	-0.00033	0.00015	-9e-05	0	1e-05	4
21399	-3e-05	-2e-05	-9e-05	-0.00033	0.00015	-9e-05	0	1e-05	4
21400	0	-1e-05	-1e-05	0.00077	0.00045	-6e-05	2e-05	-3e-05	4
21401	0	-1e-05	-1e-05	0.00077	0.00045	-6e-05	2e-05	-3e-05	4
21402	0	-1e-05	-1e-05	0.00077	0.00045	-6e-05	2e-05	-3e-05	4
21403	0	-1e-05	-1e-05	0.00077	0.00045	-6e-05	2e-05	-3e-05	4
21404	0	-1e-05	-1e-05	0.00077	0.00045	-6e-05	2e-05	-3e-05	4
21405	0	-1e-05	-1e-05	0.00077	0.00045	-6e-05	2e-05	-3e-05	4
21406	0	-1e-05	-1e-05	0.00077	0.00045	-6e-05	2e-05	-3e-05	4
21407	0	-1e-05	-1e-05	0.00077	0.00045	-6e-05	2e-05	-3e-05	4
21408	0	-1e-05	-1e-05	0.00077	0.00045	-6e-05	2e-05	-3e-05	4
21409	0	-1e-05	-1e-05	0.00077	0.00045	-6e-05	2e-05	-3e-05	4
21410	0	-1e-05	-1e-05	0.00077	0.00045	-6e-05	2e-05	-3e-05	4
21411	0	-1e-05	-1e-05	0.00077	0.00045	-6e-05	2e-05	-3e-05	4
21412	0	-1e-05	-1e-05	0.00077	0.00045	-6e-05	2e-05	-3e-05	4
21413	3e-05	2e-05	0.0002	0.00072	0.0011	0.00041	-7e-05	0	4
21414	-3e-05	-7e-05	-0.0002	-0.00043	0.00104	-0.00034	6e-05	-2e-05	4
21415	-4e-05	-2e-05	0.00022	0.0002	-0.00012	0.00033	-8e-05	-6e-05	4
21416	-4e-05	-2e-05	0.00022	0.0002	-0.00012	0.00033	-8e-05	-6e-05	4
21417	-4e-05	-2e-05	0.00022	0.0002	-0.00012	0.00033	-8e-05	-6e-05	4
21418	-4e-05	-2e-05	0.00022	0.0002	-0.00012	0.00033	-8e-05	-6e-05	4
21419	-4e-05	-2e-05	0.00022	0.0002	-0.00012	0.00033	-8e-05	-6e-05	4
21420	-4e-05	-2e-05	0.00022	0.0002	-0.00012	0.00033	-8e-05	-6e-05	4
21421	-4e-05	-2e-05	0.00022	0.0002	-0.00012	0.00033	-8e-05	-6e-05	4
21422	-4e-05	-2e-05	0.00022	0.0002	-0.00012	0.00033	-8e-05	-6e-05	4
21423	-4e-05	-2e-05	0.00022	0.0002	-0.00012	0.00033	-8e-05	-6e-05	4
21424	-4e-05	-2e-05	0.00022	0.0002	-0.00012	0.00033	-8e-05	-6e-05	4
21425	-4e-05	-2e-05	0.00022	0.0002	-0.00012	0.00033	-8e-05	-6e-05	4
21426	-4e-05	-2e-05	0.00022	0.0002	-0.00012	0.00033	-8e-05	-6e-05	4
21427	-4e-05	-2e-05	0.00022	0.0002	-0.00012	0.00033	-8e-05	-6e-05	4
21428	-4e-05	-2e-05	0.00022	0.0002	-0.00012	0.00033	-8e-05	-6e-05	4
21429	-4e-05	-2e-05	0.00022	0.0002	-0.00012	0.00033	-8e-05	-6e-05	4
21430	-4e-05	-2e-05	0.00022	0.0002	-0.00012	0.00033	-8e-05	-6e-05	4
21431	-4e-05	-2e-05	0.00022	0.0002	-0.00012	0.00033	-8e-05	-6e-05	4
21432	-4e-05	-2e-05	0.00022	0.0002	-0.00012	0.00033	-8e-05	-6e-05	4
21433	-4e-05	-2e-05	0.00022	0.0002	-0.00012	0.00033	-8e-05	-6e-05	4
21434	-4e-05	-2e-05	0.00022	0.0002	-0.00012	0.00033	-8e-05	-6e-05	4
21435	-4e-05	-2e-05	0.00022	0.0002	-0.00012	0.00033	-8e-05	-6e-05	4
21436	0	1e-05	-0.00015	-0.00046	3e-05	-0.00014	-8e-05	-3e-05	4
21439	1e-05	2e-05	-5e-05	0.00011	-0.00091	0.00014	3e-05	3e-05	4
21440	1e-05	2e-05	-5e-05	0.00011	-0.00091	0.00014	3e-05	3e-05	4
21441	1e-05	2e-05	-5e-05	0.00011	-0.00091	0.00014	3e-05	3e-05	4
21442	1e-05	2e-05	-5e-05	0.00011	-0.00091	0.00014	3e-05	3e-05	4
21443	1e-05	2e-05	-5e-05	0.00011	-0.00091	0.00014	3e-05	3e-05	4
21444	1e-05	2e-05	-5e-05	0.00011	-0.00091	0.00014	3e-05	3e-05	4
21445	1e-05	2e-05	-5e-05	0.00011	-0.00091	0.00014	3e-05	3e-05	4
21446	1e-05	2e-05	-5e-05	0.00011	-0.00091	0.00014	3e-05	3e-05	4
21447	1e-05	2e-05	-5e-05	0.00011	-0.00091	0.00014	3e-05	3e-05	4
21448	1e-05	2e-05	-5e-05	0.00011	-0.00091	0.00014	3e-05	3e-05	4
21449	1e-05	2e-05	-5e-05	0.00011	-0.00091	0.00014	3e-05	3e-05	4
21450	1e-05	2e-05	-5e-05	0.00011	-0.00091	0.00014	3e-05	3e-05	4
21451	1e-05	2e-05	-5e-05	0.00011	-0.00091	0.00014	3e-05	3e-05	4
21452	1e-05	2e-05	-5e-05	0.00011	-0.00091	0.00014	3e-05	3e-05	4
21453	1e-05	2e-05	-5e-05	0.00011	-0.00091	0.00014	3e-05	3e-05	4
21454	1e-05	2e-05	-5e-05	0.00011	-0.00091	0.00014	3e-05	3e-05	4
21455	1e-05	2e-05	-5e-05	0.00011	-0.00091	0.00014	3e-05	3e-05	4
21456	1e-05	2e-05	-5e-05	0.00011	-0.00091	0.00014	3e-05	3e-05	4
21457	1e-05	2e-05	-5e-05	0.00011	-0.00091	0.00014	3e-05	3e-05	4
21458	1e-05	2e-05	-5e-05	0.00011	-0.00091	0.00014	3e-05	3e-05	4
21459	-1e-05	-3e-05	-1e-05	0.0003	-0.00014	-0.00019	-1e-05	0	4
21460	-4e-05	-5e-05	-0.00012	-0.0005	-0.00018	-0.00012	4e-05	-2e-05	4
21461	3e-05	5e-05	0.00042	0.00086	0.00036	0.00018	1e-05	0	4
21462	3e-05	5e-05	0.00042	0.00086	0.00036	0.00018	1e-05	0	4
21463	3e-05	5e-05	0.00042	0.00086	0.00036	0.00018	1e-05	0	4
21464	3e-05	5e-05	0.00042	0.00086	0.00036	0.00018	1e-05	0	4
21465	3e-05	5e-05	0.00042	0.00086	0.00036	0.00018	1e-05	0	4
21466	3e-05	5e-05	0.00042	0.00086	0.00036	0.00018	1e-05	0	4
21467	3e-05	5e-05	0.00042	0.00086	0.00036	0.00018	1e-05	0	4
21468	3e-05	5e-05	0.00042	0.00086	0.00036	0.00018	1e-05	0	4
21469	3e-05	5e-05	0.00042	0.00086	0.00036	0.00018	1e-05	0	4
21470	3e-05	5e-05	0.00042	0.00086	0.00036	0.00018	1e-05	0	4
21471	3e-05	5e-05	0.00042	0.00086	0.00036	0.00018	1e-05	0	4
21472	3e-05	5e-05	0.00042	0.00086	0.00036	0.00018	1e-05	0	4
21473	3e-05	5e-05	0.00042	0.00086	0.00036	0.00018	1e-05	0	4
21474	1e-05	6e-05	8e-05	0.00032	0.00013	-0.00076	-1e-05	-4e-05	4
21475	-4e-05	-0.0001	-0.00037	9e-05	-0.00054	0.00052	6e-05	4e-05	4
21476	-4e-05	-0.0001	-0.00037	9e-05	-0.00054	0.00052	6e-05	4e-05	4
21477	-4e-05	-0.0001	-0.00037	9e-05	-0.00054	0.00052	6e-05	4e-05	4
21478	-4e-05	-0.0001	-0.00037	9e-05	-0.00054	0.00052	6e-05	4e-05	4
21479	-4e-05	-0.0001	-0.00037	9e-05	-0.00054	0.00052	6e-05	4e-05	4
21480	-4e-05	-0.0001	-0.00037	9e-05	-0.00054	0.00052	6e-05	4e-05	4
21481	-4e-05	-0.0001	-0.00037	9e-05	-0.00054	0.00052	6e-05	4e-05	4
21482	-4e-05	-0.0001	-0.00037	9e-05	-0.00054	0.00052	6e-05	4e-05	4
21483	-4e-05	-0.0001	-0.00037	9e-05	-0.00054	0.00052	6e-05	4e-05	4
21484	-4e-05	-0.0001	-0.00037	9e-05	-0.00054	0.00052	6e-05	4e-05	4
21485	-4e-05	-0.0001	-0.00037	9e-05	-0.00054	0.00052	6e-05	4e-05	4
21486	-4e-05	-0.0001	-0.00037	9e-05	-0.00054	0.00052	6e-05	4e-05	4
21488	-4e-05	-0.0001	-0.00037	9e-05	-0.00054	0.00052	6e-05	4e-05	4
21489	-4e-05	-0.0001	-0.00037	9e-05	-0.00054	0.00052	6e-05	4e-05	4
21490	-4e-05	-0.0001	-0.00037	9e-05	-0.00054	0.00052	6e-05	4e-05	4
21491	-4e-05	-0.0001	-0.00037	9e-05	-0.00054	0.00052	6e-05	4e-05	4
21492	-4e-05	-0.0001	-0.00037	9e-05	-0.00054	0.00052	6e-05	4e-05	4
21493	-4e-05	-0.0001	-0.00037	9e-05	-0.00054	0.00052	6e-05	4e-05	4
21494	-4e-05	-0.0001	-0.00037	9e-05	-0.00054	0.00052	6e-05	4e-05	4
21495	-4e-05	-0.0001	-0.00037	9e-05	-0.00054	0.00052	6e-05	4e-05	4
21496	4e-05	1e-05	0	-0.00013	0.00075	0.00093	8e-05	3e-05	4
21497	4e-05	1e-05	0	-0.00013	0.00075	0.00093	8e-05	3e-05	4
21498	4e-05	1e-05	0	-0.00013	0.00075	0.00093	8e-05	3e-05	4
21499	4e-05	1e-05	0	-0.00013	0.00075	0.00093	8e-05	3e-05	4
21500	4e-05	1e-05	0	-0.00013	0.00075	0.00093	8e-05	3e-05	4
21501	4e-05	1e-05	0	-0.00013	0.00075	0.00093	8e-05	3e-05	4
21502	-8e-05	-0.00013	-0.00032	-4e-05	-0.00059	-0.00036	-6e-05	-0.0001	4
21503	-8e-05	-0.00013	-0.00032	-4e-05	-0.00059	-0.00036	-6e-05	-0.0001	4
21504	-8e-05	-0.00013	-0.00032	-4e-05	-0.00059	-0.00036	-6e-05	-0.0001	4
21505	-8e-05	-0.00013	-0.00032	-4e-05	-0.00059	-0.00036	-6e-05	-0.0001	4
21506	-8e-05	-0.00013	-0.00032	-4e-05	-0.00059	-0.00036	-6e-05	-0.0001	4
21507	-8e-05	-0.00013	-0.00032	-4e-05	-0.00059	-0.00036	-6e-05	-0.0001	4
21508	-8e-05	-0.00013	-0.00032	-4e-05	-0.00059	-0.00036	-6e-05	-0.0001	4
21509	-8e-05	-0.00013	-0.00032	-4e-05	-0.00059	-0.00036	-6e-05	-0.0001	4
21510	-8e-05	-0.00013	-0.00032	-4e-05	-0.00059	-0.00036	-6e-05	-0.0001	4
21511	-8e-05	-0.00013	-0.00032	-4e-05	-0.00059	-0.00036	-6e-05	-0.0001	4
21512	-8e-05	-0.00013	-0.00032	-4e-05	-0.00059	-0.00036	-6e-05	-0.0001	4
21513	-8e-05	-0.00013	-0.00032	-4e-05	-0.00059	-0.00036	-6e-05	-0.0001	4
21514	-8e-05	-0.00013	-0.00032	-4e-05	-0.00059	-0.00036	-6e-05	-0.0001	4
21515	-8e-05	-0.00013	-0.00032	-4e-05	-0.00059	-0.00036	-6e-05	-0.0001	4
21516	-8e-05	-0.00013	-0.00032	-4e-05	-0.00059	-0.00036	-6e-05	-0.0001	4
21517	-8e-05	-0.00013	-0.00032	-4e-05	-0.00059	-0.00036	-6e-05	-0.0001	4
21518	1e-05	2e-05	-4e-05	-0.00021	-0.00126	-0.00022	-9e-05	0	4
21519	1e-05	2e-05	-4e-05	-0.00021	-0.00126	-0.00022	-9e-05	0	4
21520	3e-05	6e-05	0.00017	-0.00056	0.00011	-0.00054	0	2e-05	4
21521	3e-05	6e-05	0.00017	-0.00056	0.00011	-0.00054	0	2e-05	4
21522	3e-05	6e-05	0.00017	-0.00056	0.00011	-0.00054	0	2e-05	4
21523	3e-05	6e-05	0.00017	-0.00056	0.00011	-0.00054	0	2e-05	4
21524	3e-05	6e-05	0.00017	-0.00056	0.00011	-0.00054	0	2e-05	4
21525	3e-05	6e-05	0.00017	-0.00056	0.00011	-0.00054	0	2e-05	4
21526	3e-05	6e-05	0.00017	-0.00056	0.00011	-0.00054	0	2e-05	4
21527	3e-05	6e-05	0.00017	-0.00056	0.00011	-0.00054	0	2e-05	4
21528	3e-05	6e-05	0.00017	-0.00056	0.00011	-0.00054	0	2e-05	4
21529	3e-05	6e-05	0.00017	-0.00056	0.00011	-0.00054	0	2e-05	4
21530	3e-05	6e-05	0.00017	-0.00056	0.00011	-0.00054	0	2e-05	4
21531	3e-05	6e-05	0.00017	-0.00056	0.00011	-0.00054	0	2e-05	4
21532	3e-05	6e-05	0.00017	-0.00056	0.00011	-0.00054	0	2e-05	4
21533	4e-05	9e-05	0.00022	0.00032	0.00027	-0.00018	-6e-05	2e-05	4
21534	4e-05	9e-05	0.00022	0.00032	0.00027	-0.00018	-6e-05	2e-05	4
21535	0	-1e-05	-7e-05	-0.00032	0.00028	0.00073	0.0002	1e-05	4
21536	0	-1e-05	-7e-05	-0.00032	0.00028	0.00073	0.0002	1e-05	4
21540	0	-1e-05	-7e-05	-0.00032	0.00028	0.00073	0.0002	1e-05	4
21541	0	-1e-05	-7e-05	-0.00032	0.00028	0.00073	0.0002	1e-05	4
21542	0	-1e-05	-7e-05	-0.00032	0.00028	0.00073	0.0002	1e-05	4
21543	0	-1e-05	-7e-05	-0.00032	0.00028	0.00073	0.0002	1e-05	4
21544	0	-1e-05	-7e-05	-0.00032	0.00028	0.00073	0.0002	1e-05	4
21545	0	-1e-05	-7e-05	-0.00032	0.00028	0.00073	0.0002	1e-05	4
21546	0	-1e-05	-7e-05	-0.00032	0.00028	0.00073	0.0002	1e-05	4
21547	0	-1e-05	-7e-05	-0.00032	0.00028	0.00073	0.0002	1e-05	4
21548	0	-1e-05	-7e-05	-0.00032	0.00028	0.00073	0.0002	1e-05	4
21549	0	-1e-05	-7e-05	-0.00032	0.00028	0.00073	0.0002	1e-05	4
21550	0	-1e-05	-7e-05	-0.00032	0.00028	0.00073	0.0002	1e-05	4
21551	0	-1e-05	-7e-05	-0.00032	0.00028	0.00073	0.0002	1e-05	4
21552	0	-1e-05	-7e-05	-0.00032	0.00028	0.00073	0.0002	1e-05	4
21553	0	-1e-05	-7e-05	-0.00032	0.00028	0.00073	0.0002	1e-05	4
21554	0	-1e-05	-7e-05	-0.00032	0.00028	0.00073	0.0002	1e-05	4
21555	0	-1e-05	-7e-05	-0.00032	0.00028	0.00073	0.0002	1e-05	4
21556	1e-05	1e-05	-9e-05	-6e-05	-5e-05	0.00021	0	-2e-05	4
21557	2e-05	-1e-05	6e-05	-0.00011	-0.00012	-0.00013	-4e-05	1e-05	4
21558	-5e-05	-9e-05	-6e-05	0.00018	0.00056	0.00039	-2e-05	-6e-05	4
21559	-5e-05	-9e-05	-6e-05	0.00018	0.00056	0.00039	-2e-05	-6e-05	4
21560	-5e-05	-9e-05	-6e-05	0.00018	0.00056	0.00039	-2e-05	-6e-05	4
21561	-5e-05	-9e-05	-6e-05	0.00018	0.00056	0.00039	-2e-05	-6e-05	4
21562	-5e-05	-9e-05	-6e-05	0.00018	0.00056	0.00039	-2e-05	-6e-05	4
21563	-5e-05	-9e-05	-6e-05	0.00018	0.00056	0.00039	-2e-05	-6e-05	4
21564	-5e-05	-9e-05	-6e-05	0.00018	0.00056	0.00039	-2e-05	-6e-05	4
21565	-5e-05	-9e-05	-6e-05	0.00018	0.00056	0.00039	-2e-05	-6e-05	4
21566	-5e-05	-9e-05	-6e-05	0.00018	0.00056	0.00039	-2e-05	-6e-05	4
21567	-5e-05	-9e-05	-6e-05	0.00018	0.00056	0.00039	-2e-05	-6e-05	4
21568	-5e-05	-9e-05	-6e-05	0.00018	0.00056	0.00039	-2e-05	-6e-05	4
21569	-5e-05	-9e-05	-6e-05	0.00018	0.00056	0.00039	-2e-05	-6e-05	4
21570	-5e-05	-9e-05	-6e-05	0.00018	0.00056	0.00039	-2e-05	-6e-05	4
21571	-5e-05	-9e-05	-6e-05	0.00018	0.00056	0.00039	-2e-05	-6e-05	4
21572	-5e-05	-9e-05	-6e-05	0.00018	0.00056	0.00039	-2e-05	-6e-05	4
21573	-5e-05	-9e-05	-6e-05	0.00018	0.00056	0.00039	-2e-05	-6e-05	4
21574	-5e-05	-9e-05	-6e-05	0.00018	0.00056	0.00039	-2e-05	-6e-05	4
21575	-5e-05	-9e-05	-6e-05	0.00018	0.00056	0.00039	-2e-05	-6e-05	4
21576	-5e-05	-9e-05	-6e-05	0.00018	0.00056	0.00039	-2e-05	-6e-05	4
21577	-5e-05	-9e-05	-6e-05	0.00018	0.00056	0.00039	-2e-05	-6e-05	4
21578	-5e-05	-9e-05	-6e-05	0.00018	0.00056	0.00039	-2e-05	-6e-05	4
21579	-5e-05	-9e-05	-6e-05	0.00018	0.00056	0.00039	-2e-05	-6e-05	4
21580	-7e-05	-0.0001	-0.00013	-0.00079	0.00032	-0.00028	-0.00011	-7e-05	4
21581	3e-05	8e-05	0.00016	0.00022	-0.00035	-0.00055	0	3e-05	4
21582	3e-05	8e-05	0.00016	0.00022	-0.00035	-0.00055	0	3e-05	4
21583	3e-05	8e-05	0.00016	0.00022	-0.00035	-0.00055	0	3e-05	4
21584	3e-05	8e-05	0.00016	0.00022	-0.00035	-0.00055	0	3e-05	4
21585	3e-05	8e-05	0.00016	0.00022	-0.00035	-0.00055	0	3e-05	4
21586	3e-05	8e-05	0.00016	0.00022	-0.00035	-0.00055	0	3e-05	4
21589	3e-05	8e-05	0.00016	0.00022	-0.00035	-0.00055	0	3e-05	4
21590	3e-05	8e-05	0.00016	0.00022	-0.00035	-0.00055	0	3e-05	4
21591	3e-05	8e-05	0.00016	0.00022	-0.00035	-0.00055	0	3e-05	4
21592	3e-05	8e-05	0.00016	0.00022	-0.00035	-0.00055	0	3e-05	4
21593	-1e-05	-3e-05	-0.00031	-0.00099	0.00051	0.00059	7e-05	-2e-05	4
21594	-1e-05	-3e-05	-0.00031	-0.00099	0.00051	0.00059	7e-05	-2e-05	4
21595	-1e-05	-3e-05	-0.00031	-0.00099	0.00051	0.00059	7e-05	-2e-05	4
21596	-1e-05	-3e-05	-0.00031	-0.00099	0.00051	0.00059	7e-05	-2e-05	4
21597	-1e-05	-3e-05	-0.00031	-0.00099	0.00051	0.00059	7e-05	-2e-05	4
21598	-1e-05	-3e-05	-0.00031	-0.00099	0.00051	0.00059	7e-05	-2e-05	4
21599	-1e-05	-3e-05	-0.00031	-0.00099	0.00051	0.00059	7e-05	-2e-05	4
21600	-1e-05	-3e-05	-0.00031	-0.00099	0.00051	0.00059	7e-05	-2e-05	4
21601	2e-05	2e-05	-0.00019	-0.00082	-0.00065	0.0002	-1e-05	6e-05	4
21602	-2e-05	-3e-05	6e-05	0.0002	3e-05	-0.00026	-0.00013	-5e-05	4
21603	-2e-05	-3e-05	6e-05	0.0002	3e-05	-0.00026	-0.00013	-5e-05	4
21604	-2e-05	-3e-05	6e-05	0.0002	3e-05	-0.00026	-0.00013	-5e-05	4
21605	-2e-05	-3e-05	6e-05	0.0002	3e-05	-0.00026	-0.00013	-5e-05	4
21606	-2e-05	-3e-05	6e-05	0.0002	3e-05	-0.00026	-0.00013	-5e-05	4
21607	-2e-05	-3e-05	6e-05	0.0002	3e-05	-0.00026	-0.00013	-5e-05	4
21608	-2e-05	-3e-05	6e-05	0.0002	3e-05	-0.00026	-0.00013	-5e-05	4
21609	-2e-05	-3e-05	6e-05	0.0002	3e-05	-0.00026	-0.00013	-5e-05	4
21610	-2e-05	-3e-05	6e-05	0.0002	3e-05	-0.00026	-0.00013	-5e-05	4
21611	-2e-05	-3e-05	6e-05	0.0002	3e-05	-0.00026	-0.00013	-5e-05	4
21613	-2e-05	-3e-05	6e-05	0.0002	3e-05	-0.00026	-0.00013	-5e-05	4
21614	-2e-05	-3e-05	6e-05	0.0002	3e-05	-0.00026	-0.00013	-5e-05	4
21615	-2e-05	-3e-05	6e-05	0.0002	3e-05	-0.00026	-0.00013	-5e-05	4
21616	-5e-05	-8e-05	-0.00016	-0.00049	-0.0003	0.00071	5e-05	-1e-05	4
21617	-3e-05	-5e-05	-9e-05	-0.0001	3e-05	-0.0002	5e-05	-3e-05	4
21618	-1e-05	-1e-05	-0.00015	-0.00087	-0.00016	-8e-05	0	-1e-05	4
21619	-1e-05	-1e-05	-0.00015	-0.00087	-0.00016	-8e-05	0	-1e-05	4
21620	-1e-05	-1e-05	-0.00015	-0.00087	-0.00016	-8e-05	0	-1e-05	4
21621	-1e-05	-1e-05	-0.00015	-0.00087	-0.00016	-8e-05	0	-1e-05	4
21622	-1e-05	-1e-05	-0.00015	-0.00087	-0.00016	-8e-05	0	-1e-05	4
21623	-1e-05	-1e-05	-0.00015	-0.00087	-0.00016	-8e-05	0	-1e-05	4
21624	-1e-05	-1e-05	-0.00015	-0.00087	-0.00016	-8e-05	0	-1e-05	4
21625	-1e-05	-1e-05	-0.00015	-0.00087	-0.00016	-8e-05	0	-1e-05	4
21626	-1e-05	-1e-05	-0.00015	-0.00087	-0.00016	-8e-05	0	-1e-05	4
21627	-1e-05	-1e-05	-0.00015	-0.00087	-0.00016	-8e-05	0	-1e-05	4
21628	-1e-05	-1e-05	-0.00015	-0.00087	-0.00016	-8e-05	0	-1e-05	4
21629	-1e-05	-1e-05	-0.00015	-0.00087	-0.00016	-8e-05	0	-1e-05	4
21630	-1e-05	-1e-05	-0.00015	-0.00087	-0.00016	-8e-05	0	-1e-05	4
21631	-1e-05	-1e-05	-0.00015	-0.00087	-0.00016	-8e-05	0	-1e-05	4
21632	-1e-05	-1e-05	-0.00015	-0.00087	-0.00016	-8e-05	0	-1e-05	4
21633	-1e-05	-1e-05	-0.00015	-0.00087	-0.00016	-8e-05	0	-1e-05	4
21634	-1e-05	-1e-05	-0.00015	-0.00087	-0.00016	-8e-05	0	-1e-05	4
21635	-1e-05	-1e-05	-0.00015	-0.00087	-0.00016	-8e-05	0	-1e-05	4
21636	-1e-05	-1e-05	-0.00015	-0.00087	-0.00016	-8e-05	0	-1e-05	4
21639	2e-05	5e-05	0.00024	0.00054	-0.00031	-1e-05	-9e-05	-2e-05	4
21640	-1e-05	-2e-05	-6e-05	-0.00016	-0.00012	0.00064	7e-05	2e-05	4
21641	-1e-05	-2e-05	-6e-05	-0.00016	-0.00012	0.00064	7e-05	2e-05	4
21642	-1e-05	-2e-05	-6e-05	-0.00016	-0.00012	0.00064	7e-05	2e-05	4
21643	-1e-05	-2e-05	-6e-05	-0.00016	-0.00012	0.00064	7e-05	2e-05	4
21644	-1e-05	-2e-05	-6e-05	-0.00016	-0.00012	0.00064	7e-05	2e-05	4
21645	-1e-05	-2e-05	-6e-05	-0.00016	-0.00012	0.00064	7e-05	2e-05	4
21646	-1e-05	-2e-05	-6e-05	-0.00016	-0.00012	0.00064	7e-05	2e-05	4
21647	-1e-05	-2e-05	-6e-05	-0.00016	-0.00012	0.00064	7e-05	2e-05	4
21648	-1e-05	-2e-05	-6e-05	-0.00016	-0.00012	0.00064	7e-05	2e-05	4
21649	-1e-05	-2e-05	-6e-05	-0.00016	-0.00012	0.00064	7e-05	2e-05	4
21650	-1e-05	-2e-05	-6e-05	-0.00016	-0.00012	0.00064	7e-05	2e-05	4
21651	-1e-05	-2e-05	-6e-05	-0.00016	-0.00012	0.00064	7e-05	2e-05	4
21652	-1e-05	-2e-05	-6e-05	-0.00016	-0.00012	0.00064	7e-05	2e-05	4
21653	-1e-05	-2e-05	-6e-05	-0.00016	-0.00012	0.00064	7e-05	2e-05	4
21654	-1e-05	-2e-05	-6e-05	-0.00016	-0.00012	0.00064	7e-05	2e-05	4
21655	-1e-05	-2e-05	-6e-05	-0.00016	-0.00012	0.00064	7e-05	2e-05	4
21656	-1e-05	-2e-05	-6e-05	-0.00016	-0.00012	0.00064	7e-05	2e-05	4
21657	-1e-05	-2e-05	-6e-05	-0.00016	-0.00012	0.00064	7e-05	2e-05	4
21658	-1e-05	-2e-05	-6e-05	-0.00016	-0.00012	0.00064	7e-05	2e-05	4
21659	-1e-05	-2e-05	-6e-05	-0.00016	-0.00012	0.00064	7e-05	2e-05	4
21660	-1e-05	-2e-05	-6e-05	-0.00016	-0.00012	0.00064	7e-05	2e-05	4
21661	-1e-05	-2e-05	-6e-05	-0.00016	-0.00012	0.00064	7e-05	2e-05	4
21662	-1e-05	-2e-05	-6e-05	-0.00016	-0.00012	0.00064	7e-05	2e-05	4
21663	-1e-05	-2e-05	-6e-05	-0.00016	-0.00012	0.00064	7e-05	2e-05	4
21664	-1e-05	-2e-05	-6e-05	-0.00016	-0.00012	0.00064	7e-05	2e-05	4
21665	-1e-05	-2e-05	-6e-05	-0.00016	-0.00012	0.00064	7e-05	2e-05	4
21666	-1e-05	-2e-05	-6e-05	-0.00016	-0.00012	0.00064	7e-05	2e-05	4
21667	-1e-05	-2e-05	-6e-05	-0.00016	-0.00012	0.00064	7e-05	2e-05	4
21668	8e-05	9e-05	1e-05	-0.0008	-0.00037	-0.00039	0.00011	0.0001	4
21669	8e-05	9e-05	1e-05	-0.0008	-0.00037	-0.00039	0.00011	0.0001	4
21670	1e-05	0	6e-05	-0.00034	5e-05	0.00025	-1e-05	-3e-05	4
21671	1e-05	0	6e-05	-0.00034	5e-05	0.00025	-1e-05	-3e-05	4
21672	1e-05	0	6e-05	-0.00034	5e-05	0.00025	-1e-05	-3e-05	4
21673	1e-05	0	6e-05	-0.00034	5e-05	0.00025	-1e-05	-3e-05	4
21674	1e-05	0	6e-05	-0.00034	5e-05	0.00025	-1e-05	-3e-05	4
21675	1e-05	0	6e-05	-0.00034	5e-05	0.00025	-1e-05	-3e-05	4
21676	0	-3e-05	3e-05	0.00037	-0.00042	0.00014	-4e-05	-1e-05	4
21677	1e-05	-1e-05	7e-05	0.00026	0.00065	-0.00014	-2e-05	-3e-05	4
21678	0	-1e-05	-0.00015	-0.0005	-0.00021	-0.00065	-5e-05	-3e-05	4
21679	0	-1e-05	-0.00015	-0.0005	-0.00021	-0.00065	-5e-05	-3e-05	4
21680	0	-1e-05	-0.00015	-0.0005	-0.00021	-0.00065	-5e-05	-3e-05	4
21681	0	-1e-05	-0.00015	-0.0005	-0.00021	-0.00065	-5e-05	-3e-05	4
21682	0	-1e-05	-0.00015	-0.0005	-0.00021	-0.00065	-5e-05	-3e-05	4
21683	0	-1e-05	-0.00015	-0.0005	-0.00021	-0.00065	-5e-05	-3e-05	4
21684	0	-1e-05	-0.00015	-0.0005	-0.00021	-0.00065	-5e-05	-3e-05	4
21685	0	-1e-05	-0.00015	-0.0005	-0.00021	-0.00065	-5e-05	-3e-05	4
21686	0	-1e-05	-0.00015	-0.0005	-0.00021	-0.00065	-5e-05	-3e-05	4
21688	0	-1e-05	-0.00015	-0.0005	-0.00021	-0.00065	-5e-05	-3e-05	4
21689	0	-1e-05	-0.00015	-0.0005	-0.00021	-0.00065	-5e-05	-3e-05	4
21690	0	-1e-05	-0.00015	-0.0005	-0.00021	-0.00065	-5e-05	-3e-05	4
21691	0	-1e-05	-0.00015	-0.0005	-0.00021	-0.00065	-5e-05	-3e-05	4
21692	0	-1e-05	-0.00015	-0.0005	-0.00021	-0.00065	-5e-05	-3e-05	4
21693	0	-1e-05	-0.00015	-0.0005	-0.00021	-0.00065	-5e-05	-3e-05	4
21694	0	-1e-05	-0.00015	-0.0005	-0.00021	-0.00065	-5e-05	-3e-05	4
21695	0	-1e-05	-0.00015	-0.0005	-0.00021	-0.00065	-5e-05	-3e-05	4
21696	0	-1e-05	-0.00015	-0.0005	-0.00021	-0.00065	-5e-05	-3e-05	4
21697	0	-1e-05	-0.00015	-0.0005	-0.00021	-0.00065	-5e-05	-3e-05	4
21698	-4e-05	-8e-05	-0.00012	0	0.00106	-7e-05	1e-05	-2e-05	4
21699	0	1e-05	1e-05	-0.00025	-0.00086	0.0001	-8e-05	-2e-05	4
21700	1e-05	0	-3e-05	-0.00038	0.00064	0.00016	6e-05	1e-05	4
21701	1e-05	0	-3e-05	-0.00038	0.00064	0.00016	6e-05	1e-05	4
21702	1e-05	0	-3e-05	-0.00038	0.00064	0.00016	6e-05	1e-05	4
21703	1e-05	0	-3e-05	-0.00038	0.00064	0.00016	6e-05	1e-05	4
21704	1e-05	0	-3e-05	-0.00038	0.00064	0.00016	6e-05	1e-05	4
21705	1e-05	0	-3e-05	-0.00038	0.00064	0.00016	6e-05	1e-05	4
21706	1e-05	0	-3e-05	-0.00038	0.00064	0.00016	6e-05	1e-05	4
21707	1e-05	0	-3e-05	-0.00038	0.00064	0.00016	6e-05	1e-05	4
21708	1e-05	0	-3e-05	-0.00038	0.00064	0.00016	6e-05	1e-05	4
21709	1e-05	0	-3e-05	-0.00038	0.00064	0.00016	6e-05	1e-05	4
21710	1e-05	0	-3e-05	-0.00038	0.00064	0.00016	6e-05	1e-05	4
21711	1e-05	0	-3e-05	-0.00038	0.00064	0.00016	6e-05	1e-05	4
21712	1e-05	0	-3e-05	-0.00038	0.00064	0.00016	6e-05	1e-05	4
21713	1e-05	0	-3e-05	-0.00038	0.00064	0.00016	6e-05	1e-05	4
21714	1e-05	0	-3e-05	-0.00038	0.00064	0.00016	6e-05	1e-05	4
21715	1e-05	0	-3e-05	-0.00038	0.00064	0.00016	6e-05	1e-05	4
21716	1e-05	0	-3e-05	-0.00038	0.00064	0.00016	6e-05	1e-05	4
21717	1e-05	0	-3e-05	-0.00038	0.00064	0.00016	6e-05	1e-05	4
21718	1e-05	0	-3e-05	-0.00038	0.00064	0.00016	6e-05	1e-05	4
21719	1e-05	0	-3e-05	-0.00038	0.00064	0.00016	6e-05	1e-05	4
21720	1e-05	0	-3e-05	-0.00038	0.00064	0.00016	6e-05	1e-05	4
21721	-1e-05	5e-05	0.00032	0.00018	-0.00055	-0.00036	-6e-05	0	4
21722	-4e-05	-4e-05	-0.00012	0.0004	-0.001	-0.00067	-3e-05	-2e-05	4
21723	-6e-05	-6e-05	-0.00014	-0.00024	0.00054	-0.00012	-0.00012	-5e-05	4
21724	-6e-05	-6e-05	-0.00014	-0.00024	0.00054	-0.00012	-0.00012	-5e-05	4
21725	-6e-05	-6e-05	-0.00014	-0.00024	0.00054	-0.00012	-0.00012	-5e-05	4
21726	-6e-05	-6e-05	-0.00014	-0.00024	0.00054	-0.00012	-0.00012	-5e-05	4
21727	-6e-05	-6e-05	-0.00014	-0.00024	0.00054	-0.00012	-0.00012	-5e-05	4
21728	-6e-05	-6e-05	-0.00014	-0.00024	0.00054	-0.00012	-0.00012	-5e-05	4
21729	-6e-05	-6e-05	-0.00014	-0.00024	0.00054	-0.00012	-0.00012	-5e-05	4
21730	-6e-05	-6e-05	-0.00014	-0.00024	0.00054	-0.00012	-0.00012	-5e-05	4
21731	-6e-05	-6e-05	-0.00014	-0.00024	0.00054	-0.00012	-0.00012	-5e-05	4
21732	-6e-05	-6e-05	-0.00014	-0.00024	0.00054	-0.00012	-0.00012	-5e-05	4
21733	-6e-05	-6e-05	-0.00014	-0.00024	0.00054	-0.00012	-0.00012	-5e-05	4
21734	-6e-05	-6e-05	-0.00014	-0.00024	0.00054	-0.00012	-0.00012	-5e-05	4
21735	-6e-05	-6e-05	-0.00014	-0.00024	0.00054	-0.00012	-0.00012	-5e-05	4
21736	-6e-05	-6e-05	-0.00014	-0.00024	0.00054	-0.00012	-0.00012	-5e-05	4
21739	-6e-05	-6e-05	-0.00014	-0.00024	0.00054	-0.00012	-0.00012	-5e-05	4
21740	-6e-05	-6e-05	-0.00014	-0.00024	0.00054	-0.00012	-0.00012	-5e-05	4
21741	-6e-05	-6e-05	-0.00014	-0.00024	0.00054	-0.00012	-0.00012	-5e-05	4
21742	-6e-05	-6e-05	-0.00014	-0.00024	0.00054	-0.00012	-0.00012	-5e-05	4
21743	-6e-05	-6e-05	-0.00014	-0.00024	0.00054	-0.00012	-0.00012	-5e-05	4
21744	-6e-05	-6e-05	-0.00014	-0.00024	0.00054	-0.00012	-0.00012	-5e-05	4
21745	-6e-05	-6e-05	-0.00014	-0.00024	0.00054	-0.00012	-0.00012	-5e-05	4
21746	-6e-05	-6e-05	-0.00014	-0.00024	0.00054	-0.00012	-0.00012	-5e-05	4
21747	-6e-05	-6e-05	-0.00014	-0.00024	0.00054	-0.00012	-0.00012	-5e-05	4
21748	-6e-05	-6e-05	-0.00014	-0.00024	0.00054	-0.00012	-0.00012	-5e-05	4
21749	-6e-05	-6e-05	-0.00014	-0.00024	0.00054	-0.00012	-0.00012	-5e-05	4
21750	-6e-05	-6e-05	-0.00014	-0.00024	0.00054	-0.00012	-0.00012	-5e-05	4
21751	4e-05	6e-05	0.00018	0.00066	0.00049	0.00025	1e-05	2e-05	4
21752	-4e-05	-0.00012	-0.0004	-0.00062	-0.0007	0.00053	-2e-05	-2e-05	4
21753	-3e-05	-3e-05	4e-05	-0.00018	-0.00103	-0.00077	-9e-05	-3e-05	4
21754	-3e-05	-3e-05	4e-05	-0.00018	-0.00103	-0.00077	-9e-05	-3e-05	4
21755	-3e-05	-3e-05	4e-05	-0.00018	-0.00103	-0.00077	-9e-05	-3e-05	4
21756	-3e-05	-3e-05	4e-05	-0.00018	-0.00103	-0.00077	-9e-05	-3e-05	4
21757	-3e-05	-3e-05	4e-05	-0.00018	-0.00103	-0.00077	-9e-05	-3e-05	4
21758	0	3e-05	7e-05	0.00039	0.00025	-0.00067	3e-05	-2e-05	4
21759	0	3e-05	7e-05	0.00039	0.00025	-0.00067	3e-05	-2e-05	4
21760	1e-05	-3e-05	-0.00023	0.00044	0.00024	0.0001	5e-05	3e-05	4
21761	1e-05	-3e-05	-0.00023	0.00044	0.00024	0.0001	5e-05	3e-05	4
21762	1e-05	-3e-05	-0.00023	0.00044	0.00024	0.0001	5e-05	3e-05	4
21763	1e-05	-3e-05	-0.00023	0.00044	0.00024	0.0001	5e-05	3e-05	4
21764	1e-05	-3e-05	-0.00023	0.00044	0.00024	0.0001	5e-05	3e-05	4
21765	1e-05	-3e-05	-0.00023	0.00044	0.00024	0.0001	5e-05	3e-05	4
21766	1e-05	-3e-05	-0.00023	0.00044	0.00024	0.0001	5e-05	3e-05	4
21767	1e-05	-3e-05	-0.00023	0.00044	0.00024	0.0001	5e-05	3e-05	4
21768	1e-05	-3e-05	-0.00023	0.00044	0.00024	0.0001	5e-05	3e-05	4
21769	1e-05	-3e-05	-0.00023	0.00044	0.00024	0.0001	5e-05	3e-05	4
21770	1e-05	-3e-05	-0.00023	0.00044	0.00024	0.0001	5e-05	3e-05	4
21771	1e-05	-3e-05	-0.00023	0.00044	0.00024	0.0001	5e-05	3e-05	4
21772	1e-05	-3e-05	-0.00023	0.00044	0.00024	0.0001	5e-05	3e-05	4
21773	-1e-05	-2e-05	-1e-05	-0.00043	-0.00026	-0.00015	1e-05	1e-05	4
21774	-1e-05	-2e-05	-1e-05	-0.00043	-0.00026	-0.00015	1e-05	1e-05	4
21775	-1e-05	-2e-05	-1e-05	-0.00043	-0.00026	-0.00015	1e-05	1e-05	4
21776	-1e-05	-2e-05	-1e-05	-0.00043	-0.00026	-0.00015	1e-05	1e-05	4
21777	-1e-05	-2e-05	-1e-05	-0.00043	-0.00026	-0.00015	1e-05	1e-05	4
21778	-1e-05	-2e-05	-1e-05	-0.00043	-0.00026	-0.00015	1e-05	1e-05	4
21779	-1e-05	-2e-05	-1e-05	-0.00043	-0.00026	-0.00015	1e-05	1e-05	4
21780	2e-05	5e-05	0.00022	0.00025	-0.0002	6e-05	0.00012	3e-05	4
21781	2e-05	5e-05	0.00022	0.00025	-0.0002	6e-05	0.00012	3e-05	4
21782	2e-05	5e-05	0.00022	0.00025	-0.0002	6e-05	0.00012	3e-05	4
21783	2e-05	5e-05	0.00022	0.00025	-0.0002	6e-05	0.00012	3e-05	4
21784	2e-05	5e-05	0.00022	0.00025	-0.0002	6e-05	0.00012	3e-05	4
21785	2e-05	5e-05	0.00022	0.00025	-0.0002	6e-05	0.00012	3e-05	4
21786	2e-05	5e-05	0.00022	0.00025	-0.0002	6e-05	0.00012	3e-05	4
21788	2e-05	5e-05	0.00022	0.00025	-0.0002	6e-05	0.00012	3e-05	4
21790	2e-05	5e-05	0.00022	0.00025	-0.0002	6e-05	0.00012	3e-05	4
21791	2e-05	5e-05	0.00022	0.00025	-0.0002	6e-05	0.00012	3e-05	4
21792	2e-05	5e-05	0.00022	0.00025	-0.0002	6e-05	0.00012	3e-05	4
21793	2e-05	5e-05	0.00022	0.00025	-0.0002	6e-05	0.00012	3e-05	4
21794	2e-05	5e-05	0.00022	0.00025	-0.0002	6e-05	0.00012	3e-05	4
21795	2e-05	5e-05	0.00022	0.00025	-0.0002	6e-05	0.00012	3e-05	4
21796	-0.0001	-0.00014	-0.00035	-2e-05	0.00036	-0.00078	-0.00017	-0.0001	4
21797	-1e-05	4e-05	0.00014	0.00041	-0.00013	0.00049	2e-05	1e-05	4
21798	-1e-05	4e-05	0.00014	0.00041	-0.00013	0.00049	2e-05	1e-05	4
21799	-1e-05	4e-05	0.00014	0.00041	-0.00013	0.00049	2e-05	1e-05	4
21800	-1e-05	4e-05	0.00014	0.00041	-0.00013	0.00049	2e-05	1e-05	4
21801	-1e-05	4e-05	0.00014	0.00041	-0.00013	0.00049	2e-05	1e-05	4
21802	-1e-05	4e-05	0.00014	0.00041	-0.00013	0.00049	2e-05	1e-05	4
21803	5e-05	0.00011	0.00032	0.00087	6e-05	0.00066	0.00013	4e-05	4
21804	-9e-05	-0.00021	-0.00063	-0.00066	-0.00029	-0.00058	-6e-05	-6e-05	4
21805	-9e-05	-0.00021	-0.00063	-0.00066	-0.00029	-0.00058	-6e-05	-6e-05	4
21806	-9e-05	-0.00021	-0.00063	-0.00066	-0.00029	-0.00058	-6e-05	-6e-05	4
21807	-9e-05	-0.00021	-0.00063	-0.00066	-0.00029	-0.00058	-6e-05	-6e-05	4
21808	-9e-05	-0.00021	-0.00063	-0.00066	-0.00029	-0.00058	-6e-05	-6e-05	4
21809	-9e-05	-0.00021	-0.00063	-0.00066	-0.00029	-0.00058	-6e-05	-6e-05	4
21810	-9e-05	-0.00021	-0.00063	-0.00066	-0.00029	-0.00058	-6e-05	-6e-05	4
21811	-9e-05	-0.00021	-0.00063	-0.00066	-0.00029	-0.00058	-6e-05	-6e-05	4
21812	-9e-05	-0.00021	-0.00063	-0.00066	-0.00029	-0.00058	-6e-05	-6e-05	4
21813	-9e-05	-0.00021	-0.00063	-0.00066	-0.00029	-0.00058	-6e-05	-6e-05	4
21814	-9e-05	-0.00021	-0.00063	-0.00066	-0.00029	-0.00058	-6e-05	-6e-05	4
21815	-9e-05	-0.00021	-0.00063	-0.00066	-0.00029	-0.00058	-6e-05	-6e-05	4
21816	-9e-05	-0.00021	-0.00063	-0.00066	-0.00029	-0.00058	-6e-05	-6e-05	4
21817	-9e-05	-0.00021	-0.00063	-0.00066	-0.00029	-0.00058	-6e-05	-6e-05	4
21818	-9e-05	-0.00021	-0.00063	-0.00066	-0.00029	-0.00058	-6e-05	-6e-05	4
21819	-9e-05	-0.00021	-0.00063	-0.00066	-0.00029	-0.00058	-6e-05	-6e-05	4
21820	-9e-05	-0.00021	-0.00063	-0.00066	-0.00029	-0.00058	-6e-05	-6e-05	4
21821	-9e-05	-0.00021	-0.00063	-0.00066	-0.00029	-0.00058	-6e-05	-6e-05	4
21822	-9e-05	-0.00021	-0.00063	-0.00066	-0.00029	-0.00058	-6e-05	-6e-05	4
21823	-9e-05	-0.00021	-0.00063	-0.00066	-0.00029	-0.00058	-6e-05	-6e-05	4
21824	-9e-05	-0.00021	-0.00063	-0.00066	-0.00029	-0.00058	-6e-05	-6e-05	4
21825	-9e-05	-0.00021	-0.00063	-0.00066	-0.00029	-0.00058	-6e-05	-6e-05	4
21826	-9e-05	-0.00021	-0.00063	-0.00066	-0.00029	-0.00058	-6e-05	-6e-05	4
21827	-9e-05	-0.00021	-0.00063	-0.00066	-0.00029	-0.00058	-6e-05	-6e-05	4
21828	-9e-05	-0.00021	-0.00063	-0.00066	-0.00029	-0.00058	-6e-05	-6e-05	4
21829	-9e-05	-0.00021	-0.00063	-0.00066	-0.00029	-0.00058	-6e-05	-6e-05	4
21830	-9e-05	-0.00021	-0.00063	-0.00066	-0.00029	-0.00058	-6e-05	-6e-05	4
21831	-9e-05	-0.00021	-0.00063	-0.00066	-0.00029	-0.00058	-6e-05	-6e-05	4
21832	-9e-05	-0.00021	-0.00063	-0.00066	-0.00029	-0.00058	-6e-05	-6e-05	4
21833	-9e-05	-0.00021	-0.00063	-0.00066	-0.00029	-0.00058	-6e-05	-6e-05	4
21834	-9e-05	-0.00021	-0.00063	-0.00066	-0.00029	-0.00058	-6e-05	-6e-05	4
21835	-5e-05	-0.00011	-0.0003	0.00013	0.00011	-0.00032	-0.00012	-5e-05	4
21836	7e-05	0.00015	0.00032	0.00097	0.00096	-0.00019	5e-05	5e-05	4
21839	7e-05	8e-05	-4e-05	-0.00013	-0.00047	-0.00065	0.0001	6e-05	4
21840	7e-05	8e-05	-4e-05	-0.00013	-0.00047	-0.00065	0.0001	6e-05	4
21841	-3e-05	2e-05	0.00038	0.00127	-0.00076	-0.00011	-0.00015	-5e-05	4
21842	-3e-05	2e-05	0.00038	0.00127	-0.00076	-0.00011	-0.00015	-5e-05	4
21843	-3e-05	2e-05	0.00038	0.00127	-0.00076	-0.00011	-0.00015	-5e-05	4
21844	-3e-05	2e-05	0.00038	0.00127	-0.00076	-0.00011	-0.00015	-5e-05	4
21845	-3e-05	2e-05	0.00038	0.00127	-0.00076	-0.00011	-0.00015	-5e-05	4
21846	-3e-05	2e-05	0.00038	0.00127	-0.00076	-0.00011	-0.00015	-5e-05	4
21847	-3e-05	2e-05	0.00038	0.00127	-0.00076	-0.00011	-0.00015	-5e-05	4
21848	-3e-05	2e-05	0.00038	0.00127	-0.00076	-0.00011	-0.00015	-5e-05	4
21849	-3e-05	2e-05	0.00038	0.00127	-0.00076	-0.00011	-0.00015	-5e-05	4
21850	-3e-05	2e-05	0.00038	0.00127	-0.00076	-0.00011	-0.00015	-5e-05	4
21851	-3e-05	2e-05	0.00038	0.00127	-0.00076	-0.00011	-0.00015	-5e-05	4
21852	-3e-05	2e-05	0.00038	0.00127	-0.00076	-0.00011	-0.00015	-5e-05	4
21853	-3e-05	2e-05	0.00038	0.00127	-0.00076	-0.00011	-0.00015	-5e-05	4
21854	-3e-05	2e-05	0.00038	0.00127	-0.00076	-0.00011	-0.00015	-5e-05	4
21855	-3e-05	2e-05	0.00038	0.00127	-0.00076	-0.00011	-0.00015	-5e-05	4
21856	-3e-05	-2e-05	0.00014	0.00081	0.00093	0.00039	5e-05	-3e-05	4
21857	-3e-05	-2e-05	0.00014	0.00081	0.00093	0.00039	5e-05	-3e-05	4
21858	-5e-05	-8e-05	-0.00026	-0.00054	0.00011	-6e-05	0	0	4
21859	-5e-05	-8e-05	-0.00026	-0.00054	0.00011	-6e-05	0	0	4
21860	-5e-05	-8e-05	-0.00026	-0.00054	0.00011	-6e-05	0	0	4
21861	-5e-05	-8e-05	-0.00026	-0.00054	0.00011	-6e-05	0	0	4
21862	-5e-05	-8e-05	-0.00026	-0.00054	0.00011	-6e-05	0	0	4
21863	-5e-05	-8e-05	-0.00026	-0.00054	0.00011	-6e-05	0	0	4
21864	-5e-05	-8e-05	-0.00026	-0.00054	0.00011	-6e-05	0	0	4
21865	-5e-05	-8e-05	-0.00026	-0.00054	0.00011	-6e-05	0	0	4
21866	-5e-05	-8e-05	-0.00026	-0.00054	0.00011	-6e-05	0	0	4
21867	-5e-05	-8e-05	-0.00026	-0.00054	0.00011	-6e-05	0	0	4
21868	-5e-05	-8e-05	-0.00026	-0.00054	0.00011	-6e-05	0	0	4
21869	-5e-05	-8e-05	-0.00026	-0.00054	0.00011	-6e-05	0	0	4
21870	-5e-05	-8e-05	-0.00026	-0.00054	0.00011	-6e-05	0	0	4
21871	-5e-05	-8e-05	-0.00026	-0.00054	0.00011	-6e-05	0	0	4
21872	-5e-05	-8e-05	-0.00026	-0.00054	0.00011	-6e-05	0	0	4
21873	-5e-05	-8e-05	-0.00026	-0.00054	0.00011	-6e-05	0	0	4
21874	-5e-05	-8e-05	-0.00026	-0.00054	0.00011	-6e-05	0	0	4
21875	-5e-05	-8e-05	-0.00026	-0.00054	0.00011	-6e-05	0	0	4
21876	-5e-05	-8e-05	-0.00026	-0.00054	0.00011	-6e-05	0	0	4
21877	-5e-05	-8e-05	-0.00026	-0.00054	0.00011	-6e-05	0	0	4
21878	-5e-05	-8e-05	-0.00026	-0.00054	0.00011	-6e-05	0	0	4
21879	3e-05	0.0001	0.00014	0.00036	-0.00067	-1e-05	-0.00013	-1e-05	4
21880	-5e-05	-8e-05	-0.00019	0.00013	-0.00026	-0.00059	-0.00011	-6e-05	4
21881	-5e-05	-8e-05	-0.00019	0.00013	-0.00026	-0.00059	-0.00011	-6e-05	4
21882	-5e-05	-8e-05	-0.00019	0.00013	-0.00026	-0.00059	-0.00011	-6e-05	4
21883	-5e-05	-8e-05	-0.00019	0.00013	-0.00026	-0.00059	-0.00011	-6e-05	4
21884	-1e-05	-4e-05	-2e-05	-0.00013	8e-05	0.00077	0.00014	3e-05	4
21885	-6e-05	-8e-05	0	0.00027	0.0004	0.00054	-9e-05	-8e-05	4
21886	-6e-05	-8e-05	0	0.00027	0.0004	0.00054	-9e-05	-8e-05	4
21888	-6e-05	-8e-05	0	0.00027	0.0004	0.00054	-9e-05	-8e-05	4
21889	-6e-05	-8e-05	0	0.00027	0.0004	0.00054	-9e-05	-8e-05	4
21890	-6e-05	-8e-05	0	0.00027	0.0004	0.00054	-9e-05	-8e-05	4
21891	-6e-05	-8e-05	0	0.00027	0.0004	0.00054	-9e-05	-8e-05	4
21892	-3e-05	-2e-05	-0.00012	-0.00012	0.0011	-0.00038	-6e-05	-4e-05	4
21893	-3e-05	-2e-05	-0.00012	-0.00012	0.0011	-0.00038	-6e-05	-4e-05	4
21894	-3e-05	-2e-05	-0.00012	-0.00012	0.0011	-0.00038	-6e-05	-4e-05	4
21895	-3e-05	-2e-05	-0.00012	-0.00012	0.0011	-0.00038	-6e-05	-4e-05	4
21896	-3e-05	-2e-05	-0.00012	-0.00012	0.0011	-0.00038	-6e-05	-4e-05	4
21897	-3e-05	-2e-05	-0.00012	-0.00012	0.0011	-0.00038	-6e-05	-4e-05	4
21898	-3e-05	-2e-05	-0.00012	-0.00012	0.0011	-0.00038	-6e-05	-4e-05	4
21899	-3e-05	-2e-05	-0.00012	-0.00012	0.0011	-0.00038	-6e-05	-4e-05	4
21900	-3e-05	-2e-05	-0.00012	-0.00012	0.0011	-0.00038	-6e-05	-4e-05	4
21901	-3e-05	-2e-05	-0.00012	-0.00012	0.0011	-0.00038	-6e-05	-4e-05	4
21902	-3e-05	-2e-05	-0.00012	-0.00012	0.0011	-0.00038	-6e-05	-4e-05	4
21903	-3e-05	-2e-05	-0.00012	-0.00012	0.0011	-0.00038	-6e-05	-4e-05	4
21904	-3e-05	-2e-05	-0.00012	-0.00012	0.0011	-0.00038	-6e-05	-4e-05	4
21905	-3e-05	-2e-05	-0.00012	-0.00012	0.0011	-0.00038	-6e-05	-4e-05	4
21906	-3e-05	-2e-05	-0.00012	-0.00012	0.0011	-0.00038	-6e-05	-4e-05	4
21907	-3e-05	-2e-05	-0.00012	-0.00012	0.0011	-0.00038	-6e-05	-4e-05	4
21908	-3e-05	-2e-05	-0.00012	-0.00012	0.0011	-0.00038	-6e-05	-4e-05	4
21909	-3e-05	-2e-05	-0.00012	-0.00012	0.0011	-0.00038	-6e-05	-4e-05	4
21910	-3e-05	-2e-05	-0.00012	-0.00012	0.0011	-0.00038	-6e-05	-4e-05	4
21911	-3e-05	-2e-05	-0.00012	-0.00012	0.0011	-0.00038	-6e-05	-4e-05	4
21912	-3e-05	-2e-05	-0.00012	-0.00012	0.0011	-0.00038	-6e-05	-4e-05	4
21913	-3e-05	-2e-05	-0.00012	-0.00012	0.0011	-0.00038	-6e-05	-4e-05	4
21914	-3e-05	-2e-05	-0.00012	-0.00012	0.0011	-0.00038	-6e-05	-4e-05	4
21915	-3e-05	-2e-05	-0.00012	-0.00012	0.0011	-0.00038	-6e-05	-4e-05	4
21916	-3e-05	-2e-05	-0.00012	-0.00012	0.0011	-0.00038	-6e-05	-4e-05	4
21917	-3e-05	-2e-05	-0.00012	-0.00012	0.0011	-0.00038	-6e-05	-4e-05	4
21919	-3e-05	-3e-05	0	-0.0005	-0.00116	-0.00032	-0.00012	-3e-05	4
21920	-3e-05	-3e-05	0	-0.0005	-0.00116	-0.00032	-0.00012	-3e-05	4
21921	-3e-05	-3e-05	0	-0.0005	-0.00116	-0.00032	-0.00012	-3e-05	4
21922	0	0	0.0001	-0.0001	-0.00064	0.00085	1e-05	-1e-05	4
21923	0	0	0.0001	-0.0001	-0.00064	0.00085	1e-05	-1e-05	4
21924	0	0	0.0001	-0.0001	-0.00064	0.00085	1e-05	-1e-05	4
21925	0	0	0.0001	-0.0001	-0.00064	0.00085	1e-05	-1e-05	4
21926	0	0	0.0001	-0.0001	-0.00064	0.00085	1e-05	-1e-05	4
21927	0	0	0.0001	-0.0001	-0.00064	0.00085	1e-05	-1e-05	4
21928	0	0	0.0001	-0.0001	-0.00064	0.00085	1e-05	-1e-05	4
21929	0	0	0.0001	-0.0001	-0.00064	0.00085	1e-05	-1e-05	4
21930	0	0	0.0001	-0.0001	-0.00064	0.00085	1e-05	-1e-05	4
21931	0	0	0.0001	-0.0001	-0.00064	0.00085	1e-05	-1e-05	4
21932	0	0	0.0001	-0.0001	-0.00064	0.00085	1e-05	-1e-05	4
21933	0	0	0.0001	-0.0001	-0.00064	0.00085	1e-05	-1e-05	4
21934	0	0	0.0001	-0.0001	-0.00064	0.00085	1e-05	-1e-05	4
21935	0	0	0.0001	-0.0001	-0.00064	0.00085	1e-05	-1e-05	4
21936	0	0	0.0001	-0.0001	-0.00064	0.00085	1e-05	-1e-05	4
21939	0	0	0.0001	-0.0001	-0.00064	0.00085	1e-05	-1e-05	4
21940	0	0	0.0001	-0.0001	-0.00064	0.00085	1e-05	-1e-05	4
21941	0	0	0.0001	-0.0001	-0.00064	0.00085	1e-05	-1e-05	4
21942	0	0	0.0001	-0.0001	-0.00064	0.00085	1e-05	-1e-05	4
21943	0	0	0.0001	-0.0001	-0.00064	0.00085	1e-05	-1e-05	4
21944	0	0	0.0001	-0.0001	-0.00064	0.00085	1e-05	-1e-05	4
21945	0	0	0.0001	-0.0001	-0.00064	0.00085	1e-05	-1e-05	4
21946	-3e-05	-3e-05	0.00014	0.0006	-1e-05	0.00014	5e-05	-4e-05	4
21947	-3e-05	-3e-05	0.00014	0.0006	-1e-05	0.00014	5e-05	-4e-05	4
21948	4e-05	0.0001	0.00023	0.00048	0.00093	-0.00043	-5e-05	3e-05	4
21949	4e-05	0.0001	0.00023	0.00048	0.00093	-0.00043	-5e-05	3e-05	4
21950	4e-05	0.0001	0.00023	0.00048	0.00093	-0.00043	-5e-05	3e-05	4
21951	4e-05	0.0001	0.00023	0.00048	0.00093	-0.00043	-5e-05	3e-05	4
21952	2e-05	4e-05	0.00023	-0.00019	-0.00041	3e-05	-8e-05	-2e-05	4
21953	2e-05	4e-05	0.00023	-0.00019	-0.00041	3e-05	-8e-05	-2e-05	4
21954	2e-05	4e-05	0.00023	-0.00019	-0.00041	3e-05	-8e-05	-2e-05	4
21955	2e-05	4e-05	0.00023	-0.00019	-0.00041	3e-05	-8e-05	-2e-05	4
21956	2e-05	4e-05	0.00023	-0.00019	-0.00041	3e-05	-8e-05	-2e-05	4
21957	2e-05	4e-05	0.00023	-0.00019	-0.00041	3e-05	-8e-05	-2e-05	4
21958	2e-05	4e-05	0.00023	-0.00019	-0.00041	3e-05	-8e-05	-2e-05	4
21959	2e-05	4e-05	0.00023	-0.00019	-0.00041	3e-05	-8e-05	-2e-05	4
21960	2e-05	4e-05	0.00023	-0.00019	-0.00041	3e-05	-8e-05	-2e-05	4
21961	-1e-05	1e-05	5e-05	9e-05	-0.00067	-0.00045	0	-2e-05	4
21962	-1e-05	1e-05	5e-05	9e-05	-0.00067	-0.00045	0	-2e-05	4
21963	-1e-05	1e-05	5e-05	9e-05	-0.00067	-0.00045	0	-2e-05	4
21964	-1e-05	1e-05	5e-05	9e-05	-0.00067	-0.00045	0	-2e-05	4
21965	-1e-05	1e-05	5e-05	9e-05	-0.00067	-0.00045	0	-2e-05	4
21966	-1e-05	1e-05	5e-05	9e-05	-0.00067	-0.00045	0	-2e-05	4
21967	-1e-05	1e-05	5e-05	9e-05	-0.00067	-0.00045	0	-2e-05	4
21968	-1e-05	1e-05	5e-05	9e-05	-0.00067	-0.00045	0	-2e-05	4
21969	-1e-05	1e-05	5e-05	9e-05	-0.00067	-0.00045	0	-2e-05	4
21970	-1e-05	1e-05	5e-05	9e-05	-0.00067	-0.00045	0	-2e-05	4
21971	-1e-05	1e-05	5e-05	9e-05	-0.00067	-0.00045	0	-2e-05	4
21972	-1e-05	1e-05	5e-05	9e-05	-0.00067	-0.00045	0	-2e-05	4
21973	-1e-05	1e-05	5e-05	9e-05	-0.00067	-0.00045	0	-2e-05	4
21974	-1e-05	1e-05	5e-05	9e-05	-0.00067	-0.00045	0	-2e-05	4
21975	-1e-05	1e-05	5e-05	9e-05	-0.00067	-0.00045	0	-2e-05	4
21976	-3e-05	-5e-05	-0.0001	-0.00036	0.00077	0.0002	-5e-05	-2e-05	4
21977	0	5e-05	0.00013	0.00014	-0.00047	0.0005	2e-05	-1e-05	4
21978	4e-05	3e-05	-0.00025	-0.00125	-0.00059	-0.00074	0.00013	9e-05	4
21979	4e-05	3e-05	-0.00025	-0.00125	-0.00059	-0.00074	0.00013	9e-05	4
21980	4e-05	3e-05	-0.00025	-0.00125	-0.00059	-0.00074	0.00013	9e-05	4
21981	4e-05	3e-05	-0.00025	-0.00125	-0.00059	-0.00074	0.00013	9e-05	4
21982	4e-05	3e-05	-0.00025	-0.00125	-0.00059	-0.00074	0.00013	9e-05	4
21983	4e-05	3e-05	-0.00025	-0.00125	-0.00059	-0.00074	0.00013	9e-05	4
21984	4e-05	3e-05	-0.00025	-0.00125	-0.00059	-0.00074	0.00013	9e-05	4
21985	4e-05	3e-05	-0.00025	-0.00125	-0.00059	-0.00074	0.00013	9e-05	4
21987	4e-05	3e-05	-0.00025	-0.00125	-0.00059	-0.00074	0.00013	9e-05	4
21990	4e-05	3e-05	-0.00025	-0.00125	-0.00059	-0.00074	0.00013	9e-05	4
21991	4e-05	3e-05	-0.00025	-0.00125	-0.00059	-0.00074	0.00013	9e-05	4
21992	4e-05	3e-05	-0.00025	-0.00125	-0.00059	-0.00074	0.00013	9e-05	4
21993	4e-05	3e-05	-0.00025	-0.00125	-0.00059	-0.00074	0.00013	9e-05	4
21994	4e-05	3e-05	-0.00025	-0.00125	-0.00059	-0.00074	0.00013	9e-05	4
21995	4e-05	3e-05	-0.00025	-0.00125	-0.00059	-0.00074	0.00013	9e-05	4
21996	4e-05	3e-05	-0.00025	-0.00125	-0.00059	-0.00074	0.00013	9e-05	4
21997	4e-05	3e-05	-0.00025	-0.00125	-0.00059	-0.00074	0.00013	9e-05	4
21998	4e-05	3e-05	-0.00025	-0.00125	-0.00059	-0.00074	0.00013	9e-05	4
21999	-5e-05	-5e-05	2e-05	0.00067	0.00075	0.00109	-5e-05	-5e-05	4
22000	3e-05	3e-05	9e-05	1e-05	0.00068	0.00127	-1e-05	2e-05	4
22001	3e-05	3e-05	9e-05	1e-05	0.00068	0.00127	-1e-05	2e-05	4
22002	3e-05	3e-05	9e-05	1e-05	0.00068	0.00127	-1e-05	2e-05	4
22003	3e-05	3e-05	9e-05	1e-05	0.00068	0.00127	-1e-05	2e-05	4
22004	3e-05	3e-05	9e-05	1e-05	0.00068	0.00127	-1e-05	2e-05	4
22005	3e-05	3e-05	9e-05	1e-05	0.00068	0.00127	-1e-05	2e-05	4
22006	3e-05	3e-05	9e-05	1e-05	0.00068	0.00127	-1e-05	2e-05	4
22007	3e-05	3e-05	9e-05	1e-05	0.00068	0.00127	-1e-05	2e-05	4
22008	3e-05	3e-05	9e-05	1e-05	0.00068	0.00127	-1e-05	2e-05	4
22009	3e-05	3e-05	9e-05	1e-05	0.00068	0.00127	-1e-05	2e-05	4
22010	3e-05	3e-05	9e-05	1e-05	0.00068	0.00127	-1e-05	2e-05	4
22011	3e-05	3e-05	9e-05	1e-05	0.00068	0.00127	-1e-05	2e-05	4
22012	3e-05	3e-05	9e-05	1e-05	0.00068	0.00127	-1e-05	2e-05	4
22013	3e-05	3e-05	9e-05	1e-05	0.00068	0.00127	-1e-05	2e-05	4
22014	3e-05	3e-05	9e-05	1e-05	0.00068	0.00127	-1e-05	2e-05	4
22015	3e-05	3e-05	9e-05	1e-05	0.00068	0.00127	-1e-05	2e-05	4
22016	3e-05	3e-05	9e-05	1e-05	0.00068	0.00127	-1e-05	2e-05	4
22017	3e-05	3e-05	9e-05	1e-05	0.00068	0.00127	-1e-05	2e-05	4
22018	3e-05	3e-05	9e-05	1e-05	0.00068	0.00127	-1e-05	2e-05	4
22019	3e-05	3e-05	9e-05	1e-05	0.00068	0.00127	-1e-05	2e-05	4
22020	3e-05	3e-05	9e-05	1e-05	0.00068	0.00127	-1e-05	2e-05	4
22021	3e-05	3e-05	9e-05	1e-05	0.00068	0.00127	-1e-05	2e-05	4
22022	3e-05	3e-05	9e-05	1e-05	0.00068	0.00127	-1e-05	2e-05	4
22023	3e-05	3e-05	9e-05	1e-05	0.00068	0.00127	-1e-05	2e-05	4
22024	3e-05	3e-05	9e-05	1e-05	0.00068	0.00127	-1e-05	2e-05	4
22025	3e-05	3e-05	9e-05	1e-05	0.00068	0.00127	-1e-05	2e-05	4
22026	3e-05	3e-05	9e-05	1e-05	0.00068	0.00127	-1e-05	2e-05	4
22027	3e-05	3e-05	9e-05	1e-05	0.00068	0.00127	-1e-05	2e-05	4
22028	0	0	0	-0.00033	-0.00011	-0.0001	0.00011	1e-05	4
22029	0	0	0	-0.00033	-0.00011	-0.0001	0.00011	1e-05	4
22030	-7e-05	-9e-05	-0.00027	-0.0006	8e-05	7e-05	-0.0001	-6e-05	4
22031	-7e-05	-9e-05	-0.00027	-0.0006	8e-05	7e-05	-0.0001	-6e-05	4
22032	-7e-05	-9e-05	-0.00027	-0.0006	8e-05	7e-05	-0.0001	-6e-05	4
22033	-7e-05	-9e-05	-0.00027	-0.0006	8e-05	7e-05	-0.0001	-6e-05	4
22035	-7e-05	-9e-05	-0.00027	-0.0006	8e-05	7e-05	-0.0001	-6e-05	4
22036	3e-05	6e-05	0.00012	0.00038	-0.00023	0.00043	-1e-05	1e-05	4
22039	7e-05	0.00013	0.00025	-0.00024	-0.00015	0.00062	0.00014	4e-05	4
22040	7e-05	0.00013	0.00025	-0.00024	-0.00015	0.00062	0.00014	4e-05	4
22041	7e-05	0.00013	0.00025	-0.00024	-0.00015	0.00062	0.00014	4e-05	4
22042	7e-05	0.00013	0.00025	-0.00024	-0.00015	0.00062	0.00014	4e-05	4
22043	7e-05	0.00013	0.00025	-0.00024	-0.00015	0.00062	0.00014	4e-05	4
22044	7e-05	0.00013	0.00025	-0.00024	-0.00015	0.00062	0.00014	4e-05	4
22045	7e-05	0.00013	0.00025	-0.00024	-0.00015	0.00062	0.00014	4e-05	4
22046	7e-05	0.00013	0.00025	-0.00024	-0.00015	0.00062	0.00014	4e-05	4
22047	7e-05	0.00013	0.00025	-0.00024	-0.00015	0.00062	0.00014	4e-05	4
22048	7e-05	0.00013	0.00025	-0.00024	-0.00015	0.00062	0.00014	4e-05	4
22049	7e-05	0.00013	0.00025	-0.00024	-0.00015	0.00062	0.00014	4e-05	4
22050	7e-05	0.00013	0.00025	-0.00024	-0.00015	0.00062	0.00014	4e-05	4
22051	7e-05	0.00013	0.00025	-0.00024	-0.00015	0.00062	0.00014	4e-05	4
22052	7e-05	0.00013	0.00025	-0.00024	-0.00015	0.00062	0.00014	4e-05	4
22053	7e-05	0.00013	0.00025	-0.00024	-0.00015	0.00062	0.00014	4e-05	4
22054	7e-05	0.00013	0.00025	-0.00024	-0.00015	0.00062	0.00014	4e-05	4
22055	7e-05	0.00013	0.00025	-0.00024	-0.00015	0.00062	0.00014	4e-05	4
22056	7e-05	0.00013	0.00025	-0.00024	-0.00015	0.00062	0.00014	4e-05	4
22057	7e-05	0.00013	0.00025	-0.00024	-0.00015	0.00062	0.00014	4e-05	4
22058	-7e-05	-0.0001	-0.00021	-0.00039	-0.00037	-0.00045	-5e-05	-5e-05	4
22059	-7e-05	-0.0001	-0.00021	-0.00039	-0.00037	-0.00045	-5e-05	-5e-05	4
22060	0	0	1e-05	0.00029	0.00059	-0.00028	-0.00012	-1e-05	4
22061	0	0	1e-05	0.00029	0.00059	-0.00028	-0.00012	-1e-05	4
22062	0	0	1e-05	0.00029	0.00059	-0.00028	-0.00012	-1e-05	4
22063	0	0	1e-05	0.00029	0.00059	-0.00028	-0.00012	-1e-05	4
22064	0	0	1e-05	0.00029	0.00059	-0.00028	-0.00012	-1e-05	4
22065	0	0	1e-05	0.00029	0.00059	-0.00028	-0.00012	-1e-05	4
22066	0	0	1e-05	0.00029	0.00059	-0.00028	-0.00012	-1e-05	4
22067	0	0	1e-05	0.00029	0.00059	-0.00028	-0.00012	-1e-05	4
22068	0	0	1e-05	0.00029	0.00059	-0.00028	-0.00012	-1e-05	4
22069	0	0	1e-05	0.00029	0.00059	-0.00028	-0.00012	-1e-05	4
22070	0	0	1e-05	0.00029	0.00059	-0.00028	-0.00012	-1e-05	4
22071	0	0	1e-05	0.00029	0.00059	-0.00028	-0.00012	-1e-05	4
22072	-3e-05	-6e-05	-0.00015	-0.00011	0.00069	0.00041	1e-05	-1e-05	4
22073	-3e-05	-6e-05	-0.00015	-0.00011	0.00069	0.00041	1e-05	-1e-05	4
22074	-3e-05	-6e-05	-0.00015	-0.00011	0.00069	0.00041	1e-05	-1e-05	4
22076	-3e-05	-6e-05	-0.00015	-0.00011	0.00069	0.00041	1e-05	-1e-05	4
22077	-3e-05	-6e-05	-0.00015	-0.00011	0.00069	0.00041	1e-05	-1e-05	4
22078	-3e-05	-6e-05	-0.00015	-0.00011	0.00069	0.00041	1e-05	-1e-05	4
22079	-3e-05	-6e-05	-0.00015	-0.00011	0.00069	0.00041	1e-05	-1e-05	4
22080	-3e-05	-6e-05	-0.00015	-0.00011	0.00069	0.00041	1e-05	-1e-05	4
22081	-5e-05	-7e-05	-2e-05	-0.00036	-0.00071	0.00031	-0.00012	-8e-05	4
22082	-5e-05	-7e-05	-2e-05	-0.00036	-0.00071	0.00031	-0.00012	-8e-05	4
22083	-5e-05	-7e-05	-2e-05	-0.00036	-0.00071	0.00031	-0.00012	-8e-05	4
22084	-5e-05	-7e-05	-2e-05	-0.00036	-0.00071	0.00031	-0.00012	-8e-05	4
22085	-5e-05	-7e-05	-2e-05	-0.00036	-0.00071	0.00031	-0.00012	-8e-05	4
22086	-5e-05	-7e-05	-2e-05	-0.00036	-0.00071	0.00031	-0.00012	-8e-05	4
22088	-5e-05	-7e-05	-2e-05	-0.00036	-0.00071	0.00031	-0.00012	-8e-05	4
22089	-5e-05	-7e-05	-2e-05	-0.00036	-0.00071	0.00031	-0.00012	-8e-05	4
22090	-5e-05	-7e-05	-2e-05	-0.00036	-0.00071	0.00031	-0.00012	-8e-05	4
22091	-5e-05	-7e-05	-2e-05	-0.00036	-0.00071	0.00031	-0.00012	-8e-05	4
22092	-5e-05	-7e-05	-2e-05	-0.00036	-0.00071	0.00031	-0.00012	-8e-05	4
22093	-5e-05	-7e-05	-2e-05	-0.00036	-0.00071	0.00031	-0.00012	-8e-05	4
22094	-5e-05	-7e-05	-2e-05	-0.00036	-0.00071	0.00031	-0.00012	-8e-05	4
22095	-5e-05	-7e-05	-2e-05	-0.00036	-0.00071	0.00031	-0.00012	-8e-05	4
22096	-5e-05	-7e-05	-2e-05	-0.00036	-0.00071	0.00031	-0.00012	-8e-05	4
22097	-5e-05	-7e-05	-2e-05	-0.00036	-0.00071	0.00031	-0.00012	-8e-05	4
22098	-5e-05	-7e-05	-2e-05	-0.00036	-0.00071	0.00031	-0.00012	-8e-05	4
22099	-5e-05	-7e-05	-2e-05	-0.00036	-0.00071	0.00031	-0.00012	-8e-05	4
22100	-5e-05	-7e-05	-2e-05	-0.00036	-0.00071	0.00031	-0.00012	-8e-05	4
22101	-5e-05	-7e-05	-2e-05	-0.00036	-0.00071	0.00031	-0.00012	-8e-05	4
22102	-5e-05	-7e-05	-2e-05	-0.00036	-0.00071	0.00031	-0.00012	-8e-05	4
22103	-5e-05	-7e-05	-2e-05	-0.00036	-0.00071	0.00031	-0.00012	-8e-05	4
22104	-5e-05	-7e-05	-2e-05	-0.00036	-0.00071	0.00031	-0.00012	-8e-05	4
22105	-5e-05	-7e-05	-2e-05	-0.00036	-0.00071	0.00031	-0.00012	-8e-05	4
22106	-5e-05	-7e-05	-2e-05	-0.00036	-0.00071	0.00031	-0.00012	-8e-05	4
22107	-5e-05	-7e-05	-2e-05	-0.00036	-0.00071	0.00031	-0.00012	-8e-05	4
22108	-5e-05	-7e-05	-2e-05	-0.00036	-0.00071	0.00031	-0.00012	-8e-05	4
22109	-5e-05	-7e-05	-2e-05	-0.00036	-0.00071	0.00031	-0.00012	-8e-05	4
22110	-5e-05	-7e-05	-2e-05	-0.00036	-0.00071	0.00031	-0.00012	-8e-05	4
22111	3e-05	3e-05	0.00016	0.00104	-0.00019	-0.0005	6e-05	4e-05	4
22112	3e-05	3e-05	0.00016	0.00104	-0.00019	-0.0005	6e-05	4e-05	4
22113	-2e-05	-4e-05	-0.00015	0.00017	2e-05	0.00011	9e-05	-5e-05	4
22114	-2e-05	-4e-05	-0.00015	0.00017	2e-05	0.00011	9e-05	-5e-05	4
22115	-2e-05	-4e-05	-0.00015	0.00017	2e-05	0.00011	9e-05	-5e-05	4
22116	-2e-05	-4e-05	-0.00015	0.00017	2e-05	0.00011	9e-05	-5e-05	4
22117	-2e-05	-4e-05	-0.00015	0.00017	2e-05	0.00011	9e-05	-5e-05	4
22118	-1e-05	-7e-05	-0.00053	-0.00082	-0.00019	3e-05	-7e-05	-1e-05	4
22119	-1e-05	-7e-05	-0.00053	-0.00082	-0.00019	3e-05	-7e-05	-1e-05	4
22120	2e-05	9e-05	0.00031	0.00048	-0.00025	-0.00016	2e-05	2e-05	4
22121	2e-05	9e-05	0.00031	0.00048	-0.00025	-0.00016	2e-05	2e-05	4
22122	2e-05	9e-05	0.00031	0.00048	-0.00025	-0.00016	2e-05	2e-05	4
22123	2e-05	9e-05	0.00031	0.00048	-0.00025	-0.00016	2e-05	2e-05	4
22124	2e-05	9e-05	0.00031	0.00048	-0.00025	-0.00016	2e-05	2e-05	4
22125	2e-05	9e-05	0.00031	0.00048	-0.00025	-0.00016	2e-05	2e-05	4
22126	2e-05	9e-05	0.00031	0.00048	-0.00025	-0.00016	2e-05	2e-05	4
22127	2e-05	9e-05	0.00031	0.00048	-0.00025	-0.00016	2e-05	2e-05	4
22128	2e-05	9e-05	0.00031	0.00048	-0.00025	-0.00016	2e-05	2e-05	4
22129	2e-05	9e-05	0.00031	0.00048	-0.00025	-0.00016	2e-05	2e-05	4
22130	2e-05	9e-05	0.00031	0.00048	-0.00025	-0.00016	2e-05	2e-05	4
22131	2e-05	9e-05	0.00031	0.00048	-0.00025	-0.00016	2e-05	2e-05	4
22132	2e-05	4e-05	0.00022	0.00016	-0.00044	-0.00032	0	3e-05	4
22133	2e-05	4e-05	0.00022	0.00016	-0.00044	-0.00032	0	3e-05	4
22134	2e-05	4e-05	0.00022	0.00016	-0.00044	-0.00032	0	3e-05	4
22135	2e-05	4e-05	0.00022	0.00016	-0.00044	-0.00032	0	3e-05	4
22136	2e-05	4e-05	0.00022	0.00016	-0.00044	-0.00032	0	3e-05	4
22139	2e-05	4e-05	0.00022	0.00016	-0.00044	-0.00032	0	3e-05	4
22140	2e-05	4e-05	0.00022	0.00016	-0.00044	-0.00032	0	3e-05	4
22141	-2e-05	-4e-05	-0.00011	0.00084	0.00113	0.00064	-1e-05	-4e-05	4
22142	-2e-05	-4e-05	-0.00011	0.00084	0.00113	0.00064	-1e-05	-4e-05	4
22143	-2e-05	-4e-05	-0.00011	0.00084	0.00113	0.00064	-1e-05	-4e-05	4
22144	-2e-05	-4e-05	-0.00011	0.00084	0.00113	0.00064	-1e-05	-4e-05	4
22145	-2e-05	-4e-05	-0.00011	0.00084	0.00113	0.00064	-1e-05	-4e-05	4
22146	-2e-05	-4e-05	-0.00011	0.00084	0.00113	0.00064	-1e-05	-4e-05	4
22147	-2e-05	-4e-05	-0.00011	0.00084	0.00113	0.00064	-1e-05	-4e-05	4
22148	-2e-05	-4e-05	-0.00011	0.00084	0.00113	0.00064	-1e-05	-4e-05	4
22149	-2e-05	-4e-05	-0.00011	0.00084	0.00113	0.00064	-1e-05	-4e-05	4
22150	-2e-05	-4e-05	-0.00011	0.00084	0.00113	0.00064	-1e-05	-4e-05	4
22151	-2e-05	-4e-05	-0.00011	0.00084	0.00113	0.00064	-1e-05	-4e-05	4
22152	-2e-05	-4e-05	-0.00011	0.00084	0.00113	0.00064	-1e-05	-4e-05	4
22153	-2e-05	-4e-05	-0.00011	0.00084	0.00113	0.00064	-1e-05	-4e-05	4
22154	-2e-05	-4e-05	-0.00011	0.00084	0.00113	0.00064	-1e-05	-4e-05	4
22155	-2e-05	-4e-05	-0.00011	0.00084	0.00113	0.00064	-1e-05	-4e-05	4
22156	0	3e-05	0.00016	0.00023	0.00041	0.00079	-8e-05	-2e-05	4
22157	-2e-05	-1e-05	-3e-05	0.00052	0.00062	-0.00048	-5e-05	-4e-05	4
22158	2e-05	3e-05	0.00015	0.0005	0.00043	-0.00018	5e-05	5e-05	4
22159	2e-05	3e-05	0.00015	0.0005	0.00043	-0.00018	5e-05	5e-05	4
22160	2e-05	3e-05	0.00015	0.0005	0.00043	-0.00018	5e-05	5e-05	4
22161	2e-05	3e-05	0.00015	0.0005	0.00043	-0.00018	5e-05	5e-05	4
22162	2e-05	3e-05	0.00015	0.0005	0.00043	-0.00018	5e-05	5e-05	4
22163	2e-05	3e-05	0.00015	0.0005	0.00043	-0.00018	5e-05	5e-05	4
22164	2e-05	3e-05	0.00015	0.0005	0.00043	-0.00018	5e-05	5e-05	4
22165	2e-05	3e-05	0.00015	0.0005	0.00043	-0.00018	5e-05	5e-05	4
22166	2e-05	3e-05	0.00015	0.0005	0.00043	-0.00018	5e-05	5e-05	4
22167	2e-05	3e-05	0.00015	0.0005	0.00043	-0.00018	5e-05	5e-05	4
22168	2e-05	3e-05	0.00015	0.0005	0.00043	-0.00018	5e-05	5e-05	4
22169	2e-05	3e-05	0.00015	0.0005	0.00043	-0.00018	5e-05	5e-05	4
22170	2e-05	3e-05	0.00015	0.0005	0.00043	-0.00018	5e-05	5e-05	4
