936	-1e-05	-1e-05	-3e-05	0	1e-05	1e-05	1e-05	1e-05	1
937	-1e-05	-1e-05	-3e-05	0	1e-05	1e-05	1e-05	1e-05	1
938	-1e-05	-1e-05	-3e-05	0	1e-05	1e-05	1e-05	1e-05	1
939	-1e-05	-1e-05	-3e-05	0	1e-05	1e-05	1e-05	1e-05	1
940	-1e-05	-1e-05	0	-2e-05	-2e-05	8e-05	0	-1e-05	1
941	-4e-05	-4e-05	-3e-05	-2e-05	-1e-05	-6e-05	-2e-05	-2e-05	1
942	-4e-05	-4e-05	-3e-05	-2e-05	-1e-05	-6e-05	-2e-05	-2e-05	1
943	-4e-05	-4e-05	-3e-05	-2e-05	-1e-05	-6e-05	-2e-05	-2e-05	1
944	-4e-05	-4e-05	-3e-05	-2e-05	-1e-05	-6e-05	-2e-05	-2e-05	1
945	-4e-05	-4e-05	-3e-05	-2e-05	-1e-05	-6e-05	-2e-05	-2e-05	1
946	-4e-05	-4e-05	-3e-05	-2e-05	-1e-05	-6e-05	-2e-05	-2e-05	1
947	-4e-05	-4e-05	-3e-05	-2e-05	-1e-05	-6e-05	-2e-05	-2e-05	1
948	-4e-05	-4e-05	-3e-05	-2e-05	-1e-05	-6e-05	-2e-05	-2e-05	1
949	-4e-05	-4e-05	-3e-05	-2e-05	-1e-05	-6e-05	-2e-05	-2e-05	1
950	-4e-05	-4e-05	-3e-05	-2e-05	-1e-05	-6e-05	-2e-05	-2e-05	1
951	-4e-05	-4e-05	-3e-05	-2e-05	-1e-05	-6e-05	-2e-05	-2e-05	1
952	-4e-05	-4e-05	-3e-05	-2e-05	-1e-05	-6e-05	-2e-05	-2e-05	1
953	-4e-05	-4e-05	-3e-05	-2e-05	-1e-05	-6e-05	-2e-05	-2e-05	1
954	-3e-05	-3e-05	-5e-05	-5e-05	-1e-05	-4e-05	-1e-05	-1e-05	1
955	-3e-05	-3e-05	-5e-05	-5e-05	-1e-05	-4e-05	-1e-05	-1e-05	1
956	-3e-05	-3e-05	-5e-05	-5e-05	-1e-05	-4e-05	-1e-05	-1e-05	1
957	-3e-05	-3e-05	-5e-05	-5e-05	-1e-05	-4e-05	-1e-05	-1e-05	1
958	-3e-05	-3e-05	-5e-05	-5e-05	-1e-05	-4e-05	-1e-05	-1e-05	1
959	-3e-05	-3e-05	-5e-05	-5e-05	-1e-05	-4e-05	-1e-05	-1e-05	1
960	-3e-05	-3e-05	-5e-05	-5e-05	-1e-05	-4e-05	-1e-05	-1e-05	1
961	-1e-05	0	3e-05	-2e-05	1e-05	1e-05	-1e-05	-2e-05	1
962	-1e-05	0	4e-05	0	-3e-05	1e-05	-1e-05	0	1
963	-1e-05	0	4e-05	0	-3e-05	1e-05	-1e-05	0	1
964	-1e-05	0	4e-05	0	-3e-05	1e-05	-1e-05	0	1
965	-1e-05	0	4e-05	0	-3e-05	1e-05	-1e-05	0	1
966	-1e-05	0	4e-05	0	-3e-05	1e-05	-1e-05	0	1
967	-1e-05	0	4e-05	0	-3e-05	1e-05	-1e-05	0	1
968	-1e-05	0	4e-05	0	-3e-05	1e-05	-1e-05	0	1
969	-1e-05	0	4e-05	0	-3e-05	1e-05	-1e-05	0	1
970	-1e-05	0	4e-05	0	-3e-05	1e-05	-1e-05	0	1
971	-1e-05	0	4e-05	0	-3e-05	1e-05	-1e-05	0	1
972	-1e-05	0	4e-05	0	-3e-05	1e-05	-1e-05	0	1
973	-1e-05	0	4e-05	0	-3e-05	1e-05	-1e-05	0	1
974	-1e-05	0	4e-05	0	-3e-05	1e-05	-1e-05	0	1
975	-1e-05	0	4e-05	0	-3e-05	1e-05	-1e-05	0	1
976	-1e-05	1e-05	3e-05	-2e-05	-3e-05	-9e-05	0	1e-05	1
977	-1e-05	0	-2e-05	2e-05	-1e-05	-5e-05	0	-1e-05	1
978	-1e-05	0	-2e-05	2e-05	-1e-05	-5e-05	0	-1e-05	1
979	-1e-05	0	-2e-05	2e-05	-1e-05	-5e-05	0	-1e-05	1
980	-1e-05	0	-2e-05	2e-05	-1e-05	-5e-05	0	-1e-05	1
981	-1e-05	0	-2e-05	2e-05	-1e-05	-5e-05	0	-1e-05	1
982	-1e-05	0	-2e-05	2e-05	-1e-05	-5e-05	0	-1e-05	1
983	-2e-05	-3e-05	-6e-05	-6e-05	-1e-05	2e-05	1e-05	-1e-05	1
984	-2e-05	-3e-05	-6e-05	-6e-05	-1e-05	2e-05	1e-05	-1e-05	1
985	-2e-05	-3e-05	-6e-05	-6e-05	-1e-05	2e-05	1e-05	-1e-05	1
986	-2e-05	-3e-05	-6e-05	-6e-05	-1e-05	2e-05	1e-05	-1e-05	1
988	-2e-05	-3e-05	-6e-05	-6e-05	-1e-05	2e-05	1e-05	-1e-05	1
989	-2e-05	-3e-05	-6e-05	-6e-05	-1e-05	2e-05	1e-05	-1e-05	1
990	-2e-05	-3e-05	-6e-05	-6e-05	-1e-05	2e-05	1e-05	-1e-05	1
991	-2e-05	-3e-05	-6e-05	-6e-05	-1e-05	2e-05	1e-05	-1e-05	1
992	-2e-05	-3e-05	-6e-05	-6e-05	-1e-05	2e-05	1e-05	-1e-05	1
993	-2e-05	-3e-05	-6e-05	-6e-05	-1e-05	2e-05	1e-05	-1e-05	1
994	-2e-05	-3e-05	-6e-05	-6e-05	-1e-05	2e-05	1e-05	-1e-05	1
995	-2e-05	-3e-05	-6e-05	-6e-05	-1e-05	2e-05	1e-05	-1e-05	1
996	-2e-05	-3e-05	-6e-05	-6e-05	-1e-05	2e-05	1e-05	-1e-05	1
997	-2e-05	-3e-05	-6e-05	-6e-05	-1e-05	2e-05	1e-05	-1e-05	1
998	-2e-05	-3e-05	-6e-05	-6e-05	-1e-05	2e-05	1e-05	-1e-05	1
999	1e-05	1e-05	1e-05	-0.00013	-1e-05	2e-05	0	-4e-05	1
1000	1e-05	2e-05	4e-05	0.00013	2e-05	-4e-05	-3e-05	1e-05	1
1001	-1e-05	-1e-05	-2e-05	3e-05	1e-05	5e-05	-1e-05	0	1
1002	-1e-05	-1e-05	-2e-05	3e-05	1e-05	5e-05	-1e-05	0	1
1003	-1e-05	-1e-05	-2e-05	3e-05	1e-05	5e-05	-1e-05	0	1
1004	-1e-05	-1e-05	-2e-05	3e-05	1e-05	5e-05	-1e-05	0	1
1005	-1e-05	-1e-05	-2e-05	3e-05	1e-05	5e-05	-1e-05	0	1
1006	-1e-05	-1e-05	-2e-05	3e-05	1e-05	5e-05	-1e-05	0	1
1008	-1e-05	-1e-05	-2e-05	3e-05	1e-05	5e-05	-1e-05	0	1
1009	-1e-05	-1e-05	-2e-05	3e-05	1e-05	5e-05	-1e-05	0	1
1019	-1e-05	-1e-05	-2e-05	3e-05	1e-05	5e-05	-1e-05	0	1
1020	-1e-05	-1e-05	-2e-05	3e-05	1e-05	5e-05	-1e-05	0	1
1021	-2e-05	0	-2e-05	-6e-05	-2e-05	3e-05	0	1e-05	1
1022	1e-05	-2e-05	2e-05	-1e-05	-2e-05	-9e-05	-1e-05	0	1
1024	1e-05	-2e-05	2e-05	-1e-05	-2e-05	-9e-05	-1e-05	0	1
1026	-2e-05	2e-05	-2e-05	4e-05	-2e-05	5e-05	-2e-05	-2e-05	1
1027	2e-05	1e-05	1e-05	2e-05	-1e-05	-4e-05	-3e-05	-3e-05	1
1028	2e-05	1e-05	1e-05	2e-05	-1e-05	-4e-05	-3e-05	-3e-05	1
1029	2e-05	1e-05	1e-05	2e-05	-1e-05	-4e-05	-3e-05	-3e-05	1
1030	2e-05	1e-05	1e-05	2e-05	-1e-05	-4e-05	-3e-05	-3e-05	1
1031	2e-05	1e-05	1e-05	2e-05	-1e-05	-4e-05	-3e-05	-3e-05	1
1032	2e-05	1e-05	1e-05	2e-05	-1e-05	-4e-05	-3e-05	-3e-05	1
1033	2e-05	1e-05	1e-05	2e-05	-1e-05	-4e-05	-3e-05	-3e-05	1
1034	2e-05	1e-05	1e-05	2e-05	-1e-05	-4e-05	-3e-05	-3e-05	1
1035	2e-05	1e-05	1e-05	2e-05	-1e-05	-4e-05	-3e-05	-3e-05	1
1036	2e-05	1e-05	1e-05	2e-05	-1e-05	-4e-05	-3e-05	-3e-05	1
1039	-2e-05	0	0	-3e-05	-1e-05	-2e-05	-1e-05	-2e-05	1
1040	-2e-05	0	0	-3e-05	-1e-05	-2e-05	-1e-05	-2e-05	1
1041	-2e-05	0	0	-3e-05	-1e-05	-2e-05	-1e-05	-2e-05	1
1042	-2e-05	0	0	-3e-05	-1e-05	-2e-05	-1e-05	-2e-05	1
1043	-2e-05	0	0	-3e-05	-1e-05	-2e-05	-1e-05	-2e-05	1
1045	-2e-05	0	0	-3e-05	-1e-05	-2e-05	-1e-05	-2e-05	1
1046	1e-05	2e-05	4e-05	1e-05	2e-05	-3e-05	0	-1e-05	1
1047	1e-05	2e-05	4e-05	1e-05	2e-05	-3e-05	0	-1e-05	1
1048	1e-05	2e-05	4e-05	1e-05	2e-05	-3e-05	0	-1e-05	1
1049	1e-05	2e-05	4e-05	1e-05	2e-05	-3e-05	0	-1e-05	1
1050	1e-05	2e-05	4e-05	1e-05	2e-05	-3e-05	0	-1e-05	1
1051	1e-05	2e-05	4e-05	1e-05	2e-05	-3e-05	0	-1e-05	1
1052	1e-05	2e-05	4e-05	1e-05	2e-05	-3e-05	0	-1e-05	1
1053	1e-05	2e-05	4e-05	1e-05	2e-05	-3e-05	0	-1e-05	1
1054	1e-05	2e-05	4e-05	1e-05	2e-05	-3e-05	0	-1e-05	1
1055	1e-05	2e-05	4e-05	1e-05	2e-05	-3e-05	0	-1e-05	1
1056	1e-05	2e-05	4e-05	1e-05	2e-05	-3e-05	0	-1e-05	1
1057	1e-05	2e-05	4e-05	1e-05	2e-05	-3e-05	0	-1e-05	1
1058	1e-05	2e-05	4e-05	1e-05	2e-05	-3e-05	0	-1e-05	1
1059	-2e-05	-2e-05	1e-05	-2e-05	0	1e-05	1e-05	0	1
1060	-2e-05	-2e-05	1e-05	-2e-05	0	1e-05	1e-05	0	1
1061	-1e-05	-1e-05	1e-05	-3e-05	-2e-05	-2e-05	-1e-05	-3e-05	1
1062	-1e-05	-1e-05	1e-05	-3e-05	-2e-05	-2e-05	-1e-05	-3e-05	1
1063	-1e-05	-1e-05	1e-05	-3e-05	-2e-05	-2e-05	-1e-05	-3e-05	1
1064	-1e-05	-1e-05	1e-05	-3e-05	-2e-05	-2e-05	-1e-05	-3e-05	1
1065	-1e-05	-1e-05	1e-05	-3e-05	-2e-05	-2e-05	-1e-05	-3e-05	1
1066	-1e-05	-1e-05	1e-05	-3e-05	-2e-05	-2e-05	-1e-05	-3e-05	1
1067	-1e-05	-1e-05	1e-05	-3e-05	-2e-05	-2e-05	-1e-05	-3e-05	1
1068	-1e-05	-1e-05	1e-05	-3e-05	-2e-05	-2e-05	-1e-05	-3e-05	1
1069	-1e-05	-1e-05	1e-05	-3e-05	-2e-05	-2e-05	-1e-05	-3e-05	1
1070	-1e-05	-1e-05	1e-05	-3e-05	-2e-05	-2e-05	-1e-05	-3e-05	1
1071	-1e-05	-1e-05	1e-05	-3e-05	-2e-05	-2e-05	-1e-05	-3e-05	1
1072	-1e-05	-1e-05	1e-05	-3e-05	-2e-05	-2e-05	-1e-05	-3e-05	1
1073	-1e-05	-1e-05	1e-05	-3e-05	-2e-05	-2e-05	-1e-05	-3e-05	1
1074	-1e-05	0	-3e-05	-3e-05	1e-05	2e-05	-1e-05	0	1
1075	-1e-05	0	-3e-05	-3e-05	1e-05	2e-05	-1e-05	0	1
1076	-1e-05	0	-3e-05	-3e-05	1e-05	2e-05	-1e-05	0	1
1077	-1e-05	0	-3e-05	-3e-05	1e-05	2e-05	-1e-05	0	1
1078	-1e-05	0	-3e-05	-3e-05	1e-05	2e-05	-1e-05	0	1
1079	-1e-05	0	-3e-05	-3e-05	1e-05	2e-05	-1e-05	0	1
1080	-1e-05	-1e-05	1e-05	0	1e-05	0.0001	3e-05	1e-05	1
1081	-1e-05	-1e-05	1e-05	0	1e-05	0.0001	3e-05	1e-05	1
1082	-1e-05	-1e-05	1e-05	0	1e-05	0.0001	3e-05	1e-05	1
1083	-1e-05	-1e-05	1e-05	0	1e-05	0.0001	3e-05	1e-05	1
1084	-1e-05	-1e-05	1e-05	0	1e-05	0.0001	3e-05	1e-05	1
1085	-1e-05	-1e-05	1e-05	0	1e-05	0.0001	3e-05	1e-05	1
1086	-1e-05	-1e-05	1e-05	0	1e-05	0.0001	3e-05	1e-05	1
1088	-1e-05	-1e-05	1e-05	0	1e-05	0.0001	3e-05	1e-05	1
1089	-1e-05	-1e-05	1e-05	0	1e-05	0.0001	3e-05	1e-05	1
1090	-1e-05	-1e-05	1e-05	0	1e-05	0.0001	3e-05	1e-05	1
1091	-1e-05	-1e-05	1e-05	0	1e-05	0.0001	3e-05	1e-05	1
1092	-1e-05	-1e-05	1e-05	0	1e-05	0.0001	3e-05	1e-05	1
1093	-1e-05	-1e-05	1e-05	0	1e-05	0.0001	3e-05	1e-05	1
1094	-1e-05	-1e-05	1e-05	0	1e-05	0.0001	3e-05	1e-05	1
1095	-1e-05	-1e-05	1e-05	0	1e-05	0.0001	3e-05	1e-05	1
1096	-1e-05	-1e-05	1e-05	0	1e-05	0.0001	3e-05	1e-05	1
1097	-1e-05	-1e-05	1e-05	0	1e-05	0.0001	3e-05	1e-05	1
1098	-1e-05	-1e-05	1e-05	0	1e-05	0.0001	3e-05	1e-05	1
1099	-1e-05	-1e-05	1e-05	0	1e-05	0.0001	3e-05	1e-05	1
1100	-1e-05	-1e-05	1e-05	0	1e-05	0.0001	3e-05	1e-05	1
1101	-1e-05	-1e-05	1e-05	0	1e-05	0.0001	3e-05	1e-05	1
1102	-1e-05	-1e-05	1e-05	0	1e-05	0.0001	3e-05	1e-05	1
1103	-1e-05	-1e-05	1e-05	0	1e-05	0.0001	3e-05	1e-05	1
1104	-3e-05	-5e-05	0	3e-05	-3e-05	-2e-05	-1e-05	-2e-05	1
1105	-3e-05	-5e-05	0	3e-05	-3e-05	-2e-05	-1e-05	-2e-05	1
1106	-3e-05	-2e-05	-4e-05	-4e-05	-3e-05	1e-05	0	-2e-05	1
1107	-3e-05	-2e-05	-4e-05	-4e-05	-3e-05	1e-05	0	-2e-05	1
1108	-3e-05	-2e-05	-4e-05	-4e-05	-3e-05	1e-05	0	-2e-05	1
1109	-3e-05	-2e-05	-4e-05	-4e-05	-3e-05	1e-05	0	-2e-05	1
1110	-3e-05	-2e-05	-4e-05	-4e-05	-3e-05	1e-05	0	-2e-05	1
1111	-3e-05	-2e-05	-4e-05	-4e-05	-3e-05	1e-05	0	-2e-05	1
1112	-3e-05	-2e-05	-4e-05	-4e-05	-3e-05	1e-05	0	-2e-05	1
1113	-3e-05	-2e-05	-4e-05	-4e-05	-3e-05	1e-05	0	-2e-05	1
1114	-3e-05	-2e-05	-4e-05	-4e-05	-3e-05	1e-05	0	-2e-05	1
1115	-3e-05	-2e-05	-4e-05	-4e-05	-3e-05	1e-05	0	-2e-05	1
1116	-3e-05	-2e-05	-4e-05	-4e-05	-3e-05	1e-05	0	-2e-05	1
1117	-3e-05	-2e-05	-4e-05	-4e-05	-3e-05	1e-05	0	-2e-05	1
1118	-3e-05	-2e-05	-4e-05	-4e-05	-3e-05	1e-05	0	-2e-05	1
1119	-3e-05	-2e-05	-4e-05	-4e-05	-3e-05	1e-05	0	-2e-05	1
1120	1e-05	-2e-05	-3e-05	-1e-05	0	-5e-05	0	-1e-05	1
1121	0	3e-05	3e-05	5e-05	1e-05	-8e-05	-3e-05	0	1
1122	0	3e-05	3e-05	5e-05	1e-05	-8e-05	-3e-05	0	1
1123	0	3e-05	3e-05	5e-05	1e-05	-8e-05	-3e-05	0	1
1124	0	3e-05	3e-05	5e-05	1e-05	-8e-05	-3e-05	0	1
1125	0	3e-05	3e-05	5e-05	1e-05	-8e-05	-3e-05	0	1
1126	0	3e-05	3e-05	5e-05	1e-05	-8e-05	-3e-05	0	1
1127	0	3e-05	3e-05	5e-05	1e-05	-8e-05	-3e-05	0	1
1128	0	3e-05	3e-05	5e-05	1e-05	-8e-05	-3e-05	0	1
1129	0	3e-05	3e-05	5e-05	1e-05	-8e-05	-3e-05	0	1
1130	0	3e-05	3e-05	5e-05	1e-05	-8e-05	-3e-05	0	1
1131	0	3e-05	3e-05	5e-05	1e-05	-8e-05	-3e-05	0	1
1132	0	3e-05	3e-05	5e-05	1e-05	-8e-05	-3e-05	0	1
1136	-2e-05	-4e-05	1e-05	2e-05	-2e-05	1e-05	-1e-05	-2e-05	1
1137	-2e-05	-4e-05	1e-05	2e-05	-2e-05	1e-05	-1e-05	-2e-05	1
1138	-2e-05	-4e-05	1e-05	2e-05	-2e-05	1e-05	-1e-05	-2e-05	1
1139	-2e-05	-4e-05	1e-05	2e-05	-2e-05	1e-05	-1e-05	-2e-05	1
1140	-2e-05	-4e-05	1e-05	2e-05	-2e-05	1e-05	-1e-05	-2e-05	1
1141	-2e-05	-4e-05	1e-05	2e-05	-2e-05	1e-05	-1e-05	-2e-05	1
1142	-2e-05	-4e-05	1e-05	2e-05	-2e-05	1e-05	-1e-05	-2e-05	1
1143	-2e-05	-3e-05	-8e-05	-0.0001	0	-1e-05	-1e-05	1e-05	1
1144	-2e-05	-3e-05	-8e-05	-0.0001	0	-1e-05	-1e-05	1e-05	1
1145	-2e-05	-3e-05	-8e-05	-0.0001	0	-1e-05	-1e-05	1e-05	1
1146	-2e-05	-3e-05	-8e-05	-0.0001	0	-1e-05	-1e-05	1e-05	1
1147	-2e-05	-3e-05	-8e-05	-0.0001	0	-1e-05	-1e-05	1e-05	1
1148	-2e-05	-3e-05	-8e-05	-0.0001	0	-1e-05	-1e-05	1e-05	1
1149	-2e-05	-3e-05	-8e-05	-0.0001	0	-1e-05	-1e-05	1e-05	1
1150	-2e-05	-3e-05	-8e-05	-0.0001	0	-1e-05	-1e-05	1e-05	1
1151	-2e-05	-3e-05	-8e-05	-0.0001	0	-1e-05	-1e-05	1e-05	1
1152	-2e-05	-3e-05	-8e-05	-0.0001	0	-1e-05	-1e-05	1e-05	1
1153	-2e-05	-3e-05	-8e-05	-0.0001	0	-1e-05	-1e-05	1e-05	1
1154	-2e-05	-3e-05	-8e-05	-0.0001	0	-1e-05	-1e-05	1e-05	1
1155	-2e-05	-3e-05	-8e-05	-0.0001	0	-1e-05	-1e-05	1e-05	1
1156	-2e-05	-3e-05	-8e-05	-0.0001	0	-1e-05	-1e-05	1e-05	1
1157	0	1e-05	-1e-05	0	0	-1e-05	2e-05	-1e-05	1
1159	0	1e-05	-1e-05	0	0	-1e-05	2e-05	-1e-05	1
1160	0	1e-05	-1e-05	0	0	-1e-05	2e-05	-1e-05	1
1161	0	1e-05	-1e-05	0	0	-1e-05	2e-05	-1e-05	1
1162	0	1e-05	-1e-05	0	0	-1e-05	2e-05	-1e-05	1
1163	0	-1e-05	0	6e-05	1e-05	3e-05	-1e-05	2e-05	1
1165	0	-1e-05	0	6e-05	1e-05	3e-05	-1e-05	2e-05	1
1166	0	-1e-05	0	6e-05	1e-05	3e-05	-1e-05	2e-05	1
1167	0	-1e-05	0	6e-05	1e-05	3e-05	-1e-05	2e-05	1
1168	0	-1e-05	0	6e-05	1e-05	3e-05	-1e-05	2e-05	1
1169	0	-1e-05	0	6e-05	1e-05	3e-05	-1e-05	2e-05	1
1170	0	-1e-05	0	6e-05	1e-05	3e-05	-1e-05	2e-05	1
1171	0	-1e-05	0	6e-05	1e-05	3e-05	-1e-05	2e-05	1
1172	0	-1e-05	0	6e-05	1e-05	3e-05	-1e-05	2e-05	1
1173	0	-1e-05	0	6e-05	1e-05	3e-05	-1e-05	2e-05	1
1174	0	-1e-05	0	6e-05	1e-05	3e-05	-1e-05	2e-05	1
1175	0	-1e-05	0	6e-05	1e-05	3e-05	-1e-05	2e-05	1
1176	0	-1e-05	0	6e-05	1e-05	3e-05	-1e-05	2e-05	1
1177	0	-1e-05	0	6e-05	1e-05	3e-05	-1e-05	2e-05	1
1178	0	-1e-05	0	6e-05	1e-05	3e-05	-1e-05	2e-05	1
1179	-1e-05	0	-3e-05	-3e-05	-1e-05	-3e-05	-3e-05	0	1
1180	-1e-05	0	-3e-05	-3e-05	-1e-05	-3e-05	-3e-05	0	1
1181	-1e-05	0	3e-05	4e-05	-2e-05	2e-05	-1e-05	-1e-05	1
1182	-1e-05	0	3e-05	4e-05	-2e-05	2e-05	-1e-05	-1e-05	1
1183	-1e-05	0	3e-05	4e-05	-2e-05	2e-05	-1e-05	-1e-05	1
1184	-1e-05	0	3e-05	4e-05	-2e-05	2e-05	-1e-05	-1e-05	1
1185	-1e-05	0	3e-05	4e-05	-2e-05	2e-05	-1e-05	-1e-05	1
1186	-1e-05	0	3e-05	4e-05	-2e-05	2e-05	-1e-05	-1e-05	1
1188	-1e-05	0	3e-05	4e-05	-2e-05	2e-05	-1e-05	-1e-05	1
1189	-1e-05	0	3e-05	4e-05	-2e-05	2e-05	-1e-05	-1e-05	1
1190	-1e-05	0	3e-05	4e-05	-2e-05	2e-05	-1e-05	-1e-05	1
1191	-1e-05	0	3e-05	4e-05	-2e-05	2e-05	-1e-05	-1e-05	1
1192	-1e-05	0	3e-05	4e-05	-2e-05	2e-05	-1e-05	-1e-05	1
1193	-1e-05	0	3e-05	4e-05	-2e-05	2e-05	-1e-05	-1e-05	1
1194	-1e-05	1e-05	-3e-05	-1e-05	0	-3e-05	0	-1e-05	1
1195	-1e-05	1e-05	-3e-05	-1e-05	0	-3e-05	0	-1e-05	1
1196	-1e-05	1e-05	-3e-05	-1e-05	0	-3e-05	0	-1e-05	1
1197	-1e-05	1e-05	-3e-05	-1e-05	0	-3e-05	0	-1e-05	1
1198	-1e-05	1e-05	-3e-05	-1e-05	0	-3e-05	0	-1e-05	1
1199	-1e-05	1e-05	-3e-05	-1e-05	0	-3e-05	0	-1e-05	1
1200	-1e-05	1e-05	-3e-05	-1e-05	0	-3e-05	0	-1e-05	1
1201	1e-05	0	2e-05	2e-05	-3e-05	-2e-05	0	0	1
1202	1e-05	0	2e-05	2e-05	-3e-05	-2e-05	0	0	1
1203	1e-05	0	2e-05	2e-05	-3e-05	-2e-05	0	0	1
1204	1e-05	0	2e-05	2e-05	-3e-05	-2e-05	0	0	1
1205	1e-05	0	2e-05	2e-05	-3e-05	-2e-05	0	0	1
1206	1e-05	0	2e-05	2e-05	-3e-05	-2e-05	0	0	1
1207	1e-05	0	2e-05	2e-05	-3e-05	-2e-05	0	0	1
1208	1e-05	0	2e-05	2e-05	-3e-05	-2e-05	0	0	1
1209	1e-05	0	2e-05	2e-05	-3e-05	-2e-05	0	0	1
1210	1e-05	0	2e-05	2e-05	-3e-05	-2e-05	0	0	1
1211	1e-05	0	2e-05	2e-05	-3e-05	-2e-05	0	0	1
1212	1e-05	0	2e-05	2e-05	-3e-05	-2e-05	0	0	1
1213	1e-05	0	2e-05	2e-05	-3e-05	-2e-05	0	0	1
1214	1e-05	0	2e-05	2e-05	-3e-05	-2e-05	0	0	1
1215	1e-05	0	2e-05	2e-05	-3e-05	-2e-05	0	0	1
1216	1e-05	-1e-05	-3e-05	-1e-05	-4e-05	4e-05	-1e-05	0	1
1217	1e-05	-1e-05	-3e-05	-1e-05	-4e-05	4e-05	-1e-05	0	1
1218	1e-05	-1e-05	-3e-05	-1e-05	-4e-05	4e-05	-1e-05	0	1
1219	1e-05	-1e-05	-3e-05	-1e-05	-4e-05	4e-05	-1e-05	0	1
1220	1e-05	-1e-05	-3e-05	-1e-05	-4e-05	4e-05	-1e-05	0	1
1221	1e-05	-1e-05	-3e-05	-1e-05	-4e-05	4e-05	-1e-05	0	1
1222	1e-05	-1e-05	-3e-05	-1e-05	-4e-05	4e-05	-1e-05	0	1
1223	0	-1e-05	1e-05	-2e-05	4e-05	-1e-05	-1e-05	0	1
1224	0	-1e-05	1e-05	-2e-05	4e-05	-1e-05	-1e-05	0	1
1225	0	-1e-05	1e-05	-2e-05	4e-05	-1e-05	-1e-05	0	1
1226	0	-1e-05	1e-05	-2e-05	4e-05	-1e-05	-1e-05	0	1
1227	0	-1e-05	1e-05	-2e-05	4e-05	-1e-05	-1e-05	0	1
1228	0	-1e-05	1e-05	-2e-05	4e-05	-1e-05	-1e-05	0	1
1229	0	-1e-05	1e-05	-2e-05	4e-05	-1e-05	-1e-05	0	1
1230	0	-1e-05	1e-05	-2e-05	4e-05	-1e-05	-1e-05	0	1
1231	0	-1e-05	1e-05	-2e-05	4e-05	-1e-05	-1e-05	0	1
1232	0	-1e-05	1e-05	-2e-05	4e-05	-1e-05	-1e-05	0	1
1233	0	-1e-05	1e-05	-2e-05	4e-05	-1e-05	-1e-05	0	1
1234	0	-1e-05	1e-05	-2e-05	4e-05	-1e-05	-1e-05	0	1
1235	0	-1e-05	1e-05	-2e-05	4e-05	-1e-05	-1e-05	0	1
1236	0	-1e-05	1e-05	-2e-05	4e-05	-1e-05	-1e-05	0	1
1238	0	-1e-05	1e-05	-2e-05	4e-05	-1e-05	-1e-05	0	1
1239	-2e-05	-1e-05	3e-05	-1e-05	0	-7e-05	-1e-05	0	1
1240	-2e-05	-1e-05	1e-05	3e-05	0	-3e-05	0	-1e-05	1
1241	0	-2e-05	-2e-05	1e-05	-5e-05	7e-05	0	-1e-05	1
1242	0	-2e-05	-2e-05	1e-05	-5e-05	7e-05	0	-1e-05	1
1243	0	-2e-05	-2e-05	1e-05	-5e-05	7e-05	0	-1e-05	1
1244	0	-2e-05	-2e-05	1e-05	-5e-05	7e-05	0	-1e-05	1
1245	0	-2e-05	-2e-05	1e-05	-5e-05	7e-05	0	-1e-05	1
1246	0	-2e-05	-2e-05	1e-05	-5e-05	7e-05	0	-1e-05	1
1247	0	-2e-05	-2e-05	1e-05	-5e-05	7e-05	0	-1e-05	1
1248	0	-2e-05	-2e-05	1e-05	-5e-05	7e-05	0	-1e-05	1
1249	0	-2e-05	-2e-05	1e-05	-5e-05	7e-05	0	-1e-05	1
1250	0	-2e-05	-2e-05	1e-05	-5e-05	7e-05	0	-1e-05	1
1251	0	-2e-05	-2e-05	1e-05	-5e-05	7e-05	0	-1e-05	1
1252	0	-2e-05	-2e-05	1e-05	-5e-05	7e-05	0	-1e-05	1
1253	-2e-05	-1e-05	-5e-05	-0.0001	-2e-05	-0.00015	-2e-05	-1e-05	1
1254	0	-5e-05	-2e-05	8e-05	1e-05	2e-05	0	-1e-05	1
1255	0	-5e-05	-2e-05	8e-05	1e-05	2e-05	0	-1e-05	1
1256	0	-5e-05	-2e-05	8e-05	1e-05	2e-05	0	-1e-05	1
1257	0	-5e-05	-2e-05	8e-05	1e-05	2e-05	0	-1e-05	1
1258	0	-5e-05	-2e-05	8e-05	1e-05	2e-05	0	-1e-05	1
1259	0	-5e-05	-2e-05	8e-05	1e-05	2e-05	0	-1e-05	1
1260	0	-5e-05	-2e-05	8e-05	1e-05	2e-05	0	-1e-05	1
1261	0	-5e-05	-2e-05	8e-05	1e-05	2e-05	0	-1e-05	1
1262	0	-5e-05	-2e-05	8e-05	1e-05	2e-05	0	-1e-05	1
1263	-1e-05	-4e-05	-9e-05	-4e-05	-1e-05	-2e-05	-1e-05	-2e-05	1
1264	-1e-05	-4e-05	-9e-05	-4e-05	-1e-05	-2e-05	-1e-05	-2e-05	1
1265	-1e-05	-4e-05	-9e-05	-4e-05	-1e-05	-2e-05	-1e-05	-2e-05	1
1266	-1e-05	-4e-05	-9e-05	-4e-05	-1e-05	-2e-05	-1e-05	-2e-05	1
1267	-1e-05	-4e-05	-9e-05	-4e-05	-1e-05	-2e-05	-1e-05	-2e-05	1
1268	-1e-05	-4e-05	-9e-05	-4e-05	-1e-05	-2e-05	-1e-05	-2e-05	1
1269	-1e-05	-4e-05	-9e-05	-4e-05	-1e-05	-2e-05	-1e-05	-2e-05	1
1270	-1e-05	-4e-05	-9e-05	-4e-05	-1e-05	-2e-05	-1e-05	-2e-05	1
1271	-1e-05	-4e-05	-9e-05	-4e-05	-1e-05	-2e-05	-1e-05	-2e-05	1
1272	-1e-05	-4e-05	-9e-05	-4e-05	-1e-05	-2e-05	-1e-05	-2e-05	1
1273	-1e-05	-4e-05	-9e-05	-4e-05	-1e-05	-2e-05	-1e-05	-2e-05	1
1274	-1e-05	-4e-05	-9e-05	-4e-05	-1e-05	-2e-05	-1e-05	-2e-05	1
1275	-1e-05	-4e-05	-9e-05	-4e-05	-1e-05	-2e-05	-1e-05	-2e-05	1
1276	-1e-05	-1e-05	-2e-05	-7e-05	-1e-05	-2e-05	-2e-05	-1e-05	1
1277	-1e-05	-1e-05	-2e-05	-7e-05	-1e-05	-2e-05	-2e-05	-1e-05	1
1278	-1e-05	-1e-05	-2e-05	-7e-05	-1e-05	-2e-05	-2e-05	-1e-05	1
1279	-1e-05	-1e-05	-2e-05	-7e-05	-1e-05	-2e-05	-2e-05	-1e-05	1
1280	-1e-05	-1e-05	-2e-05	-7e-05	-1e-05	-2e-05	-2e-05	-1e-05	1
1281	-1e-05	-1e-05	-2e-05	-7e-05	-1e-05	-2e-05	-2e-05	-1e-05	1
1282	-1e-05	-1e-05	-2e-05	-7e-05	-1e-05	-2e-05	-2e-05	-1e-05	1
1283	0	-3e-05	1e-05	-6e-05	-5e-05	-5e-05	-1e-05	-2e-05	1
1284	0	-3e-05	1e-05	-6e-05	-5e-05	-5e-05	-1e-05	-2e-05	1
1285	0	-3e-05	1e-05	-6e-05	-5e-05	-5e-05	-1e-05	-2e-05	1
1286	0	-3e-05	1e-05	-6e-05	-5e-05	-5e-05	-1e-05	-2e-05	1
1288	0	-3e-05	1e-05	-6e-05	-5e-05	-5e-05	-1e-05	-2e-05	1
1289	0	-3e-05	1e-05	-6e-05	-5e-05	-5e-05	-1e-05	-2e-05	1
1290	0	-3e-05	1e-05	-6e-05	-5e-05	-5e-05	-1e-05	-2e-05	1
1291	0	-3e-05	1e-05	-6e-05	-5e-05	-5e-05	-1e-05	-2e-05	1
1292	0	-3e-05	1e-05	-6e-05	-5e-05	-5e-05	-1e-05	-2e-05	1
1293	0	-3e-05	1e-05	-6e-05	-5e-05	-5e-05	-1e-05	-2e-05	1
1294	0	-3e-05	1e-05	-6e-05	-5e-05	-5e-05	-1e-05	-2e-05	1
1295	0	-3e-05	1e-05	-6e-05	-5e-05	-5e-05	-1e-05	-2e-05	1
1296	0	-3e-05	1e-05	-6e-05	-5e-05	-5e-05	-1e-05	-2e-05	1
1297	0	-3e-05	1e-05	-6e-05	-5e-05	-5e-05	-1e-05	-2e-05	1
1298	0	-3e-05	1e-05	-6e-05	-5e-05	-5e-05	-1e-05	-2e-05	1
1299	-1e-05	-3e-05	-4e-05	-4e-05	0	0	3e-05	-1e-05	1
1300	-1e-05	-3e-05	-4e-05	-4e-05	0	0	3e-05	-1e-05	1
1301	-2e-05	3e-05	3e-05	0.00018	-1e-05	-6e-05	-2e-05	-3e-05	1
1302	-2e-05	3e-05	3e-05	0.00018	-1e-05	-6e-05	-2e-05	-3e-05	1
1303	-2e-05	3e-05	3e-05	0.00018	-1e-05	-6e-05	-2e-05	-3e-05	1
1304	-2e-05	3e-05	3e-05	0.00018	-1e-05	-6e-05	-2e-05	-3e-05	1
1305	-2e-05	3e-05	3e-05	0.00018	-1e-05	-6e-05	-2e-05	-3e-05	1
1306	-2e-05	3e-05	3e-05	0.00018	-1e-05	-6e-05	-2e-05	-3e-05	1
1307	-2e-05	3e-05	3e-05	0.00018	-1e-05	-6e-05	-2e-05	-3e-05	1
1308	-2e-05	3e-05	3e-05	0.00018	-1e-05	-6e-05	-2e-05	-3e-05	1
1309	-2e-05	3e-05	3e-05	0.00018	-1e-05	-6e-05	-2e-05	-3e-05	1
1310	-2e-05	3e-05	3e-05	0.00018	-1e-05	-6e-05	-2e-05	-3e-05	1
1311	-2e-05	3e-05	3e-05	0.00018	-1e-05	-6e-05	-2e-05	-3e-05	1
1312	-2e-05	3e-05	3e-05	0.00018	-1e-05	-6e-05	-2e-05	-3e-05	1
1313	-2e-05	3e-05	3e-05	0.00018	-1e-05	-6e-05	-2e-05	-3e-05	1
1314	-2e-05	3e-05	3e-05	0.00018	-1e-05	-6e-05	-2e-05	-3e-05	1
1315	-2e-05	3e-05	3e-05	0.00018	-1e-05	-6e-05	-2e-05	-3e-05	1
1316	-2e-05	3e-05	3e-05	0.00018	-1e-05	-6e-05	-2e-05	-3e-05	1
1317	-2e-05	3e-05	3e-05	0.00018	-1e-05	-6e-05	-2e-05	-3e-05	1
1318	-2e-05	3e-05	3e-05	0.00018	-1e-05	-6e-05	-2e-05	-3e-05	1
1319	-2e-05	3e-05	3e-05	0.00018	-1e-05	-6e-05	-2e-05	-3e-05	1
1320	-2e-05	3e-05	3e-05	0.00018	-1e-05	-6e-05	-2e-05	-3e-05	1
1321	-2e-05	3e-05	3e-05	0.00018	-1e-05	-6e-05	-2e-05	-3e-05	1
1322	-1e-05	4e-05	-1e-05	5e-05	-3e-05	-5e-05	-2e-05	-1e-05	1
1323	0	1e-05	-4e-05	-0.00011	-2e-05	0	-2e-05	-1e-05	1
1324	-2e-05	-3e-05	-0.0001	-0.0001	-2e-05	-5e-05	0	0	1
1325	-2e-05	-3e-05	-0.0001	-0.0001	-2e-05	-5e-05	0	0	1
1326	-2e-05	-3e-05	-0.0001	-0.0001	-2e-05	-5e-05	0	0	1
1327	-2e-05	-3e-05	-0.0001	-0.0001	-2e-05	-5e-05	0	0	1
1328	-2e-05	-3e-05	-0.0001	-0.0001	-2e-05	-5e-05	0	0	1
1329	-2e-05	-3e-05	-0.0001	-0.0001	-2e-05	-5e-05	0	0	1
1330	-2e-05	-3e-05	-0.0001	-0.0001	-2e-05	-5e-05	0	0	1
1331	-2e-05	-3e-05	-0.0001	-0.0001	-2e-05	-5e-05	0	0	1
1332	-2e-05	-3e-05	-0.0001	-0.0001	-2e-05	-5e-05	0	0	1
1333	-2e-05	-3e-05	-0.0001	-0.0001	-2e-05	-5e-05	0	0	1
1334	-2e-05	-3e-05	-0.0001	-0.0001	-2e-05	-5e-05	0	0	1
1335	-2e-05	-3e-05	-0.0001	-0.0001	-2e-05	-5e-05	0	0	1
1336	1e-05	-1e-05	3e-05	6e-05	1e-05	6e-05	0	1e-05	1
1338	0	-2e-05	0	-3e-05	-3e-05	-0.00012	1e-05	2e-05	1
1339	0	-2e-05	0	-3e-05	-3e-05	-0.00012	1e-05	2e-05	1
1340	0	-2e-05	0	-3e-05	-3e-05	-0.00012	1e-05	2e-05	1
1341	0	-2e-05	0	-3e-05	-3e-05	-0.00012	1e-05	2e-05	1
1342	0	-2e-05	0	-3e-05	-3e-05	-0.00012	1e-05	2e-05	1
1343	-2e-05	-1e-05	0	-1e-05	1e-05	0	-1e-05	0	1
1344	-2e-05	-1e-05	0	-1e-05	1e-05	0	-1e-05	0	1
1345	-2e-05	-1e-05	0	-1e-05	1e-05	0	-1e-05	0	1
1346	-2e-05	-1e-05	0	-1e-05	1e-05	0	-1e-05	0	1
1347	-2e-05	-1e-05	0	-1e-05	1e-05	0	-1e-05	0	1
1348	-2e-05	-1e-05	0	-1e-05	1e-05	0	-1e-05	0	1
1349	-2e-05	-1e-05	0	-1e-05	1e-05	0	-1e-05	0	1
1350	-2e-05	-1e-05	0	-1e-05	1e-05	0	-1e-05	0	1
1351	-2e-05	-1e-05	0	-1e-05	1e-05	0	-1e-05	0	1
1352	-2e-05	-1e-05	0	-1e-05	1e-05	0	-1e-05	0	1
1353	-2e-05	-1e-05	0	-1e-05	1e-05	0	-1e-05	0	1
1354	-2e-05	-1e-05	0	-1e-05	1e-05	0	-1e-05	0	1
1355	-2e-05	-1e-05	0	-1e-05	1e-05	0	-1e-05	0	1
1356	-2e-05	-1e-05	0	-1e-05	1e-05	0	-1e-05	0	1
1357	-2e-05	-1e-05	0	-1e-05	1e-05	0	-1e-05	0	1
1358	-2e-05	-1e-05	0	-1e-05	1e-05	0	-1e-05	0	1
1359	-1e-05	-3e-05	-0.0001	-0.00022	-4e-05	-6e-05	-3e-05	-2e-05	1
1360	-1e-05	-3e-05	-0.0001	-0.00022	-4e-05	-6e-05	-3e-05	-2e-05	1
1361	0	2e-05	-1e-05	-3e-05	1e-05	-0.0001	-2e-05	0	1
1362	0	2e-05	-1e-05	-3e-05	1e-05	-0.0001	-2e-05	0	1
1363	0	2e-05	-1e-05	-3e-05	1e-05	-0.0001	-2e-05	0	1
1364	0	2e-05	-1e-05	-3e-05	1e-05	-0.0001	-2e-05	0	1
1365	0	2e-05	-1e-05	-3e-05	1e-05	-0.0001	-2e-05	0	1
1366	0	2e-05	-1e-05	-3e-05	1e-05	-0.0001	-2e-05	0	1
1367	0	2e-05	-1e-05	-3e-05	1e-05	-0.0001	-2e-05	0	1
1368	0	2e-05	-1e-05	-3e-05	1e-05	-0.0001	-2e-05	0	1
1369	0	2e-05	-1e-05	-3e-05	1e-05	-0.0001	-2e-05	0	1
1370	0	2e-05	-1e-05	-3e-05	1e-05	-0.0001	-2e-05	0	1
1371	0	2e-05	-1e-05	-3e-05	1e-05	-0.0001	-2e-05	0	1
1372	0	2e-05	-1e-05	-3e-05	1e-05	-0.0001	-2e-05	0	1
1373	0	2e-05	-1e-05	-3e-05	1e-05	-0.0001	-2e-05	0	1
1374	0	2e-05	-1e-05	-3e-05	1e-05	-0.0001	-2e-05	0	1
1375	0	2e-05	-1e-05	-3e-05	1e-05	-0.0001	-2e-05	0	1
1376	0	2e-05	-1e-05	-3e-05	1e-05	-0.0001	-2e-05	0	1
1377	0	2e-05	-1e-05	-3e-05	1e-05	-0.0001	-2e-05	0	1
1378	0	2e-05	-1e-05	-3e-05	1e-05	-0.0001	-2e-05	0	1
1379	0	2e-05	-1e-05	-3e-05	1e-05	-0.0001	-2e-05	0	1
1380	0	2e-05	-1e-05	-3e-05	1e-05	-0.0001	-2e-05	0	1
1381	0	2e-05	-1e-05	-3e-05	1e-05	-0.0001	-2e-05	0	1
1382	-1e-05	-1e-05	1e-05	2e-05	3e-05	-2e-05	-3e-05	-3e-05	1
1383	0	-2e-05	-3e-05	1e-05	-2e-05	-2e-05	0	-2e-05	1
1384	0	2e-05	2e-05	6e-05	1e-05	-2e-05	-1e-05	-2e-05	1
1385	0	2e-05	2e-05	6e-05	1e-05	-2e-05	-1e-05	-2e-05	1
1386	0	2e-05	2e-05	6e-05	1e-05	-2e-05	-1e-05	-2e-05	1
1388	0	2e-05	2e-05	6e-05	1e-05	-2e-05	-1e-05	-2e-05	1
1389	0	2e-05	2e-05	6e-05	1e-05	-2e-05	-1e-05	-2e-05	1
1390	0	2e-05	2e-05	6e-05	1e-05	-2e-05	-1e-05	-2e-05	1
1391	0	2e-05	2e-05	6e-05	1e-05	-2e-05	-1e-05	-2e-05	1
1392	0	2e-05	2e-05	6e-05	1e-05	-2e-05	-1e-05	-2e-05	1
1393	0	2e-05	2e-05	6e-05	1e-05	-2e-05	-1e-05	-2e-05	1
1394	0	2e-05	2e-05	6e-05	1e-05	-2e-05	-1e-05	-2e-05	1
1395	0	2e-05	2e-05	6e-05	1e-05	-2e-05	-1e-05	-2e-05	1
1396	-1e-05	-1e-05	4e-05	1e-05	-1e-05	1e-05	0	1e-05	1
1397	-1e-05	-1e-05	4e-05	1e-05	-1e-05	1e-05	0	1e-05	1
1398	-1e-05	-1e-05	4e-05	1e-05	-1e-05	1e-05	0	1e-05	1
1399	-1e-05	-1e-05	4e-05	1e-05	-1e-05	1e-05	0	1e-05	1
1400	-1e-05	-1e-05	4e-05	1e-05	-1e-05	1e-05	0	1e-05	1
1401	-1e-05	-1e-05	4e-05	1e-05	-1e-05	1e-05	0	1e-05	1
1402	-1e-05	-1e-05	4e-05	1e-05	-1e-05	1e-05	0	1e-05	1
1403	-1e-05	-1e-05	4e-05	1e-05	-1e-05	1e-05	0	1e-05	1
1404	-1e-05	-1e-05	4e-05	1e-05	-1e-05	1e-05	0	1e-05	1
1405	-1e-05	-1e-05	4e-05	1e-05	-1e-05	1e-05	0	1e-05	1
1406	-1e-05	-1e-05	4e-05	1e-05	-1e-05	1e-05	0	1e-05	1
1407	-1e-05	-1e-05	4e-05	1e-05	-1e-05	1e-05	0	1e-05	1
1408	-1e-05	-1e-05	4e-05	1e-05	-1e-05	1e-05	0	1e-05	1
1409	-1e-05	-1e-05	4e-05	1e-05	-1e-05	1e-05	0	1e-05	1
1410	0	-1e-05	-1e-05	7e-05	2e-05	-2e-05	3e-05	0	1
1411	-1e-05	-1e-05	0	-2e-05	-6e-05	-6e-05	-4e-05	-3e-05	1
1412	-1e-05	-1e-05	0	-2e-05	-6e-05	-6e-05	-4e-05	-3e-05	1
1413	-1e-05	-1e-05	0	-2e-05	-6e-05	-6e-05	-4e-05	-3e-05	1
1414	-1e-05	-1e-05	0	-2e-05	-6e-05	-6e-05	-4e-05	-3e-05	1
1415	-1e-05	-1e-05	0	-2e-05	-6e-05	-6e-05	-4e-05	-3e-05	1
1416	-1e-05	-1e-05	0	-2e-05	-6e-05	-6e-05	-4e-05	-3e-05	1
1417	-1e-05	-1e-05	0	-2e-05	-6e-05	-6e-05	-4e-05	-3e-05	1
1418	-1e-05	-1e-05	0	-2e-05	-6e-05	-6e-05	-4e-05	-3e-05	1
1419	0	-1e-05	0	-1e-05	-3e-05	0	-1e-05	0	1
1420	0	-1e-05	0	-1e-05	-3e-05	0	-1e-05	0	1
1421	0	0	1e-05	-3e-05	0	-6e-05	-1e-05	0	1
1422	0	0	1e-05	-3e-05	0	-6e-05	-1e-05	0	1
1423	0	0	1e-05	-3e-05	0	-6e-05	-1e-05	0	1
1424	0	0	1e-05	-3e-05	0	-6e-05	-1e-05	0	1
1425	0	0	1e-05	-3e-05	0	-6e-05	-1e-05	0	1
1426	0	0	1e-05	-3e-05	0	-6e-05	-1e-05	0	1
1427	0	0	1e-05	-3e-05	0	-6e-05	-1e-05	0	1
1428	0	0	1e-05	-3e-05	0	-6e-05	-1e-05	0	1
1429	0	0	1e-05	-3e-05	0	-6e-05	-1e-05	0	1
1430	0	0	1e-05	-3e-05	0	-6e-05	-1e-05	0	1
1431	0	0	1e-05	-3e-05	0	-6e-05	-1e-05	0	1
1432	0	0	1e-05	-3e-05	0	-6e-05	-1e-05	0	1
1433	0	0	1e-05	1e-05	0	4e-05	0	-3e-05	1
1434	0	0	1e-05	1e-05	0	4e-05	0	-3e-05	1
1435	0	0	1e-05	1e-05	0	4e-05	0	-3e-05	1
1436	0	0	1e-05	1e-05	0	4e-05	0	-3e-05	1
1438	0	0	1e-05	1e-05	0	4e-05	0	-3e-05	1
1439	0	0	1e-05	1e-05	0	4e-05	0	-3e-05	1
1440	0	0	1e-05	1e-05	0	4e-05	0	-3e-05	1
1441	0	0	1e-05	1e-05	0	4e-05	0	-3e-05	1
1442	-1e-05	-3e-05	-5e-05	-2e-05	-2e-05	1e-05	2e-05	-1e-05	1
1443	-1e-05	-3e-05	-5e-05	-2e-05	-2e-05	1e-05	2e-05	-1e-05	1
1444	-1e-05	-3e-05	-5e-05	-2e-05	-2e-05	1e-05	2e-05	-1e-05	1
1445	-1e-05	-3e-05	-5e-05	-2e-05	-2e-05	1e-05	2e-05	-1e-05	1
1446	-1e-05	-3e-05	-5e-05	-2e-05	-2e-05	1e-05	2e-05	-1e-05	1
1447	-1e-05	-3e-05	-5e-05	-2e-05	-2e-05	1e-05	2e-05	-1e-05	1
1448	-1e-05	-3e-05	-5e-05	-2e-05	-2e-05	1e-05	2e-05	-1e-05	1
1449	-1e-05	-3e-05	-5e-05	-2e-05	-2e-05	1e-05	2e-05	-1e-05	1
1450	-1e-05	-3e-05	-5e-05	-2e-05	-2e-05	1e-05	2e-05	-1e-05	1
1451	-1e-05	-3e-05	-5e-05	-2e-05	-2e-05	1e-05	2e-05	-1e-05	1
1452	-1e-05	-3e-05	-5e-05	-2e-05	-2e-05	1e-05	2e-05	-1e-05	1
1453	-1e-05	-3e-05	-5e-05	-2e-05	-2e-05	1e-05	2e-05	-1e-05	1
1454	-1e-05	-3e-05	-5e-05	-2e-05	-2e-05	1e-05	2e-05	-1e-05	1
1455	-1e-05	-3e-05	-5e-05	-2e-05	-2e-05	1e-05	2e-05	-1e-05	1
1456	-1e-05	-2e-05	-8e-05	-3e-05	2e-05	2e-05	-1e-05	-2e-05	1
1457	-1e-05	-2e-05	-8e-05	-3e-05	2e-05	2e-05	-1e-05	-2e-05	1
1458	-1e-05	-2e-05	-8e-05	-3e-05	2e-05	2e-05	-1e-05	-2e-05	1
1459	-1e-05	-2e-05	-8e-05	-3e-05	2e-05	2e-05	-1e-05	-2e-05	1
1460	-1e-05	-2e-05	-8e-05	-3e-05	2e-05	2e-05	-1e-05	-2e-05	1
1461	-1e-05	-2e-05	-8e-05	-3e-05	2e-05	2e-05	-1e-05	-2e-05	1
1462	-1e-05	-2e-05	-8e-05	-3e-05	2e-05	2e-05	-1e-05	-2e-05	1
1463	-3e-05	-4e-05	-0.00013	-0.00018	-4e-05	2e-05	-3e-05	0	1
1465	-3e-05	-4e-05	-0.00013	-0.00018	-4e-05	2e-05	-3e-05	0	1
1466	-3e-05	-4e-05	-0.00013	-0.00018	-4e-05	2e-05	-3e-05	0	1
1467	-3e-05	-4e-05	-0.00013	-0.00018	-4e-05	2e-05	-3e-05	0	1
1468	-3e-05	-4e-05	-0.00013	-0.00018	-4e-05	2e-05	-3e-05	0	1
1469	-3e-05	-4e-05	-0.00013	-0.00018	-4e-05	2e-05	-3e-05	0	1
1470	-3e-05	-4e-05	-0.00013	-0.00018	-4e-05	2e-05	-3e-05	0	1
1471	-3e-05	-4e-05	-0.00013	-0.00018	-4e-05	2e-05	-3e-05	0	1
1472	-3e-05	-4e-05	-0.00013	-0.00018	-4e-05	2e-05	-3e-05	0	1
1473	-3e-05	-4e-05	-0.00013	-0.00018	-4e-05	2e-05	-3e-05	0	1
1474	-3e-05	-4e-05	-0.00013	-0.00018	-4e-05	2e-05	-3e-05	0	1
1475	-3e-05	-4e-05	-0.00013	-0.00018	-4e-05	2e-05	-3e-05	0	1
1476	-3e-05	-4e-05	-0.00013	-0.00018	-4e-05	2e-05	-3e-05	0	1
1477	-3e-05	-4e-05	-0.00013	-0.00018	-4e-05	2e-05	-3e-05	0	1
1478	-3e-05	-4e-05	-0.00013	-0.00018	-4e-05	2e-05	-3e-05	0	1
1479	0	1e-05	6e-05	-2e-05	-1e-05	-5e-05	-2e-05	-2e-05	1
1480	0	1e-05	6e-05	-2e-05	-1e-05	-5e-05	-2e-05	-2e-05	1
1481	-3e-05	-2e-05	-4e-05	-2e-05	1e-05	-8e-05	0	-1e-05	1
1482	-3e-05	-2e-05	-4e-05	-2e-05	1e-05	-8e-05	0	-1e-05	1
1483	-3e-05	-2e-05	-4e-05	-2e-05	1e-05	-8e-05	0	-1e-05	1
1484	-3e-05	-2e-05	-4e-05	-2e-05	1e-05	-8e-05	0	-1e-05	1
1485	-3e-05	-2e-05	-4e-05	-2e-05	1e-05	-8e-05	0	-1e-05	1
1486	-3e-05	-2e-05	-4e-05	-2e-05	1e-05	-8e-05	0	-1e-05	1
1488	-3e-05	-2e-05	-4e-05	-2e-05	1e-05	-8e-05	0	-1e-05	1
1489	-3e-05	-2e-05	-4e-05	-2e-05	1e-05	-8e-05	0	-1e-05	1
1490	-3e-05	-2e-05	-4e-05	-2e-05	1e-05	-8e-05	0	-1e-05	1
1491	-3e-05	-2e-05	-4e-05	-2e-05	1e-05	-8e-05	0	-1e-05	1
1492	-3e-05	-2e-05	-4e-05	-2e-05	1e-05	-8e-05	0	-1e-05	1
1493	0	2e-05	-1e-05	0	0	7e-05	1e-05	-1e-05	1
1494	0	2e-05	-1e-05	0	0	7e-05	1e-05	-1e-05	1
1495	0	2e-05	-1e-05	0	0	7e-05	1e-05	-1e-05	1
1496	0	2e-05	-1e-05	0	0	7e-05	1e-05	-1e-05	1
1497	0	2e-05	-1e-05	0	0	7e-05	1e-05	-1e-05	1
1498	0	2e-05	-1e-05	0	0	7e-05	1e-05	-1e-05	1
1499	0	2e-05	-1e-05	0	0	7e-05	1e-05	-1e-05	1
1500	0	2e-05	-1e-05	0	0	7e-05	1e-05	-1e-05	1
1501	0	2e-05	-1e-05	0	0	7e-05	1e-05	-1e-05	1
1502	-1e-05	-2e-05	-4e-05	-6e-05	-2e-05	-7e-05	-2e-05	1e-05	1
1503	-2e-05	-3e-05	1e-05	2e-05	-2e-05	6e-05	0	-1e-05	1
1504	-2e-05	-3e-05	1e-05	2e-05	-2e-05	6e-05	0	-1e-05	1
1505	-2e-05	-3e-05	1e-05	2e-05	-2e-05	6e-05	0	-1e-05	1
1506	-2e-05	-3e-05	1e-05	2e-05	-2e-05	6e-05	0	-1e-05	1
1507	-2e-05	-3e-05	1e-05	2e-05	-2e-05	6e-05	0	-1e-05	1
1508	-2e-05	-3e-05	1e-05	2e-05	-2e-05	6e-05	0	-1e-05	1
1509	-2e-05	-3e-05	1e-05	2e-05	-2e-05	6e-05	0	-1e-05	1
1510	-2e-05	-3e-05	1e-05	2e-05	-2e-05	6e-05	0	-1e-05	1
1511	-2e-05	-3e-05	1e-05	2e-05	-2e-05	6e-05	0	-1e-05	1
1512	-2e-05	-3e-05	1e-05	2e-05	-2e-05	6e-05	0	-1e-05	1
1513	-2e-05	-3e-05	1e-05	2e-05	-2e-05	6e-05	0	-1e-05	1
1514	-2e-05	-3e-05	1e-05	2e-05	-2e-05	6e-05	0	-1e-05	1
1515	-2e-05	-3e-05	1e-05	2e-05	-2e-05	6e-05	0	-1e-05	1
1516	-3e-05	-1e-05	-1e-05	3e-05	0	0	-1e-05	-2e-05	1
1517	-3e-05	-1e-05	-1e-05	3e-05	0	0	-1e-05	-2e-05	1
1518	-3e-05	-1e-05	-1e-05	3e-05	0	0	-1e-05	-2e-05	1
1519	-3e-05	-1e-05	-1e-05	3e-05	0	0	-1e-05	-2e-05	1
1520	-3e-05	-1e-05	-1e-05	3e-05	0	0	-1e-05	-2e-05	1
1521	-3e-05	-1e-05	-1e-05	3e-05	0	0	-1e-05	-2e-05	1
1522	-3e-05	-1e-05	-1e-05	3e-05	0	0	-1e-05	-2e-05	1
1523	-3e-05	-2e-05	-4e-05	-2e-05	0	2e-05	0	-2e-05	1
1524	-3e-05	-2e-05	-4e-05	-2e-05	0	2e-05	0	-2e-05	1
1525	-3e-05	-2e-05	-4e-05	-2e-05	0	2e-05	0	-2e-05	1
1526	-3e-05	-2e-05	-4e-05	-2e-05	0	2e-05	0	-2e-05	1
1527	-3e-05	-2e-05	-4e-05	-2e-05	0	2e-05	0	-2e-05	1
1528	-3e-05	-2e-05	-4e-05	-2e-05	0	2e-05	0	-2e-05	1
1529	-3e-05	-2e-05	-4e-05	-2e-05	0	2e-05	0	-2e-05	1
1530	-3e-05	-2e-05	-4e-05	-2e-05	0	2e-05	0	-2e-05	1
1531	-3e-05	-2e-05	-4e-05	-2e-05	0	2e-05	0	-2e-05	1
1532	-3e-05	-2e-05	-4e-05	-2e-05	0	2e-05	0	-2e-05	1
1533	-3e-05	-2e-05	-4e-05	-2e-05	0	2e-05	0	-2e-05	1
1534	-3e-05	-2e-05	-4e-05	-2e-05	0	2e-05	0	-2e-05	1
1535	-3e-05	-2e-05	-4e-05	-2e-05	0	2e-05	0	-2e-05	1
1536	-3e-05	-2e-05	-4e-05	-2e-05	0	2e-05	0	-2e-05	1
1538	-3e-05	-2e-05	-4e-05	-2e-05	0	2e-05	0	-2e-05	1
1539	0	-1e-05	0	-7e-05	-3e-05	1e-05	-1e-05	1e-05	1
1540	0	-1e-05	0	-7e-05	-3e-05	1e-05	-1e-05	1e-05	1
1541	0	-1e-05	0	-7e-05	-3e-05	1e-05	-1e-05	1e-05	1
1542	0	-1e-05	0	-7e-05	-3e-05	1e-05	-1e-05	1e-05	1
1543	0	-1e-05	0	-7e-05	-3e-05	1e-05	-1e-05	1e-05	1
1544	0	-1e-05	0	-7e-05	-3e-05	1e-05	-1e-05	1e-05	1
1545	0	1e-05	5e-05	1e-05	-3e-05	-1e-05	-2e-05	-1e-05	1
1546	0	1e-05	5e-05	1e-05	-3e-05	-1e-05	-2e-05	-1e-05	1
1547	0	1e-05	5e-05	1e-05	-3e-05	-1e-05	-2e-05	-1e-05	1
1548	0	1e-05	5e-05	1e-05	-3e-05	-1e-05	-2e-05	-1e-05	1
1549	0	1e-05	5e-05	1e-05	-3e-05	-1e-05	-2e-05	-1e-05	1
1550	0	1e-05	5e-05	1e-05	-3e-05	-1e-05	-2e-05	-1e-05	1
1551	0	1e-05	5e-05	1e-05	-3e-05	-1e-05	-2e-05	-1e-05	1
1552	0	1e-05	5e-05	1e-05	-3e-05	-1e-05	-2e-05	-1e-05	1
1553	-2e-05	0	1e-05	-1e-05	1e-05	-1e-05	-1e-05	0	1
1554	-2e-05	0	1e-05	-1e-05	1e-05	-1e-05	-1e-05	0	1
1555	-2e-05	0	1e-05	-1e-05	1e-05	-1e-05	-1e-05	0	1
1556	-2e-05	0	1e-05	-1e-05	1e-05	-1e-05	-1e-05	0	1
1557	-2e-05	0	1e-05	-1e-05	1e-05	-1e-05	-1e-05	0	1
1558	-2e-05	0	1e-05	-1e-05	1e-05	-1e-05	-1e-05	0	1
1559	-2e-05	0	1e-05	-1e-05	1e-05	-1e-05	-1e-05	0	1
1560	-2e-05	0	1e-05	-1e-05	1e-05	-1e-05	-1e-05	0	1
1561	-2e-05	0	1e-05	-1e-05	1e-05	-1e-05	-1e-05	0	1
1562	0	0	3e-05	-5e-05	-4e-05	-3e-05	-1e-05	0	1
1563	0	0	3e-05	-5e-05	-4e-05	-3e-05	-1e-05	0	1
1564	0	0	3e-05	-5e-05	-4e-05	-3e-05	-1e-05	0	1
1565	0	0	3e-05	-5e-05	-4e-05	-3e-05	-1e-05	0	1
1566	0	0	3e-05	-5e-05	-4e-05	-3e-05	-1e-05	0	1
1567	0	0	3e-05	-5e-05	-4e-05	-3e-05	-1e-05	0	1
1568	0	0	3e-05	-5e-05	-4e-05	-3e-05	-1e-05	0	1
1569	0	0	3e-05	-5e-05	-4e-05	-3e-05	-1e-05	0	1
1570	0	0	3e-05	-5e-05	-4e-05	-3e-05	-1e-05	0	1
1571	0	0	3e-05	-5e-05	-4e-05	-3e-05	-1e-05	0	1
1572	0	0	3e-05	-5e-05	-4e-05	-3e-05	-1e-05	0	1
1573	0	0	3e-05	-5e-05	-4e-05	-3e-05	-1e-05	0	1
1574	0	0	3e-05	-5e-05	-4e-05	-3e-05	-1e-05	0	1
1575	0	0	3e-05	-5e-05	-4e-05	-3e-05	-1e-05	0	1
1576	-2e-05	-6e-05	-3e-05	-2e-05	0	-3e-05	1e-05	-1e-05	1
1577	-2e-05	-6e-05	-3e-05	-2e-05	0	-3e-05	1e-05	-1e-05	1
1578	-2e-05	-6e-05	-3e-05	-2e-05	0	-3e-05	1e-05	-1e-05	1
1579	-2e-05	-6e-05	-3e-05	-2e-05	0	-3e-05	1e-05	-1e-05	1
1580	-2e-05	-6e-05	-3e-05	-2e-05	0	-3e-05	1e-05	-1e-05	1
1581	-2e-05	-6e-05	-3e-05	-2e-05	0	-3e-05	1e-05	-1e-05	1
1582	-2e-05	-6e-05	-3e-05	-2e-05	0	-3e-05	1e-05	-1e-05	1
1583	-1e-05	1e-05	3e-05	4e-05	-2e-05	-7e-05	-1e-05	-2e-05	1
1584	-1e-05	1e-05	3e-05	4e-05	-2e-05	-7e-05	-1e-05	-2e-05	1
1585	-1e-05	1e-05	3e-05	4e-05	-2e-05	-7e-05	-1e-05	-2e-05	1
1586	-1e-05	1e-05	3e-05	4e-05	-2e-05	-7e-05	-1e-05	-2e-05	1
1588	-1e-05	1e-05	3e-05	4e-05	-2e-05	-7e-05	-1e-05	-2e-05	1
1589	-1e-05	1e-05	3e-05	4e-05	-2e-05	-7e-05	-1e-05	-2e-05	1
1590	-1e-05	1e-05	3e-05	4e-05	-2e-05	-7e-05	-1e-05	-2e-05	1
1591	-1e-05	1e-05	3e-05	4e-05	-2e-05	-7e-05	-1e-05	-2e-05	1
1592	-1e-05	1e-05	3e-05	4e-05	-2e-05	-7e-05	-1e-05	-2e-05	1
1593	-1e-05	1e-05	3e-05	4e-05	-2e-05	-7e-05	-1e-05	-2e-05	1
1594	-1e-05	1e-05	3e-05	4e-05	-2e-05	-7e-05	-1e-05	-2e-05	1
1595	-1e-05	1e-05	3e-05	4e-05	-2e-05	-7e-05	-1e-05	-2e-05	1
1596	-1e-05	1e-05	3e-05	4e-05	-2e-05	-7e-05	-1e-05	-2e-05	1
1597	-1e-05	1e-05	3e-05	4e-05	-2e-05	-7e-05	-1e-05	-2e-05	1
1598	-1e-05	1e-05	3e-05	4e-05	-2e-05	-7e-05	-1e-05	-2e-05	1
1599	-1e-05	-2e-05	-5e-05	3e-05	-1e-05	-1e-05	-2e-05	-2e-05	1
1600	-1e-05	-2e-05	-5e-05	3e-05	-1e-05	-1e-05	-2e-05	-2e-05	1
1601	-1e-05	-2e-05	-5e-05	3e-05	-1e-05	-1e-05	-2e-05	-2e-05	1
1602	-1e-05	-2e-05	-5e-05	3e-05	-1e-05	-1e-05	-2e-05	-2e-05	1
1603	-1e-05	-2e-05	-5e-05	3e-05	-1e-05	-1e-05	-2e-05	-2e-05	1
1604	-1e-05	-2e-05	-5e-05	3e-05	-1e-05	-1e-05	-2e-05	-2e-05	1
1605	-1e-05	0	1e-05	2e-05	4e-05	0	-1e-05	0	1
1606	0	-2e-05	-7e-05	-5e-05	0	0	0	-4e-05	1
1607	0	-2e-05	-7e-05	-5e-05	0	0	0	-4e-05	1
1608	0	-2e-05	-7e-05	-5e-05	0	0	0	-4e-05	1
1609	0	-2e-05	-7e-05	-5e-05	0	0	0	-4e-05	1
1610	0	-2e-05	-7e-05	-5e-05	0	0	0	-4e-05	1
1611	0	-2e-05	-7e-05	-5e-05	0	0	0	-4e-05	1
1612	0	-2e-05	-7e-05	-5e-05	0	0	0	-4e-05	1
1613	-1e-05	0	0	-5e-05	-3e-05	-1e-05	-2e-05	-1e-05	1
1614	0	0	2e-05	3e-05	2e-05	0	-1e-05	-1e-05	1
1615	0	0	2e-05	3e-05	2e-05	0	-1e-05	-1e-05	1
1616	0	0	2e-05	3e-05	2e-05	0	-1e-05	-1e-05	1
1617	0	0	2e-05	3e-05	2e-05	0	-1e-05	-1e-05	1
1618	0	0	2e-05	3e-05	2e-05	0	-1e-05	-1e-05	1
1619	0	0	2e-05	3e-05	2e-05	0	-1e-05	-1e-05	1
1620	0	0	2e-05	3e-05	2e-05	0	-1e-05	-1e-05	1
1621	0	0	2e-05	3e-05	2e-05	0	-1e-05	-1e-05	1
1622	0	0	2e-05	3e-05	2e-05	0	-1e-05	-1e-05	1
1623	0	0	2e-05	3e-05	2e-05	0	-1e-05	-1e-05	1
1624	0	0	2e-05	3e-05	2e-05	0	-1e-05	-1e-05	1
1625	0	0	2e-05	3e-05	2e-05	0	-1e-05	-1e-05	1
1626	0	0	2e-05	3e-05	2e-05	0	-1e-05	-1e-05	1
1627	0	0	2e-05	3e-05	2e-05	0	-1e-05	-1e-05	1
1628	0	0	2e-05	3e-05	2e-05	0	-1e-05	-1e-05	1
1629	0	0	2e-05	3e-05	2e-05	0	-1e-05	-1e-05	1
1630	1e-05	1e-05	2e-05	3e-05	3e-05	1e-05	1e-05	0	1
1631	1e-05	1e-05	2e-05	3e-05	3e-05	1e-05	1e-05	0	1
1632	1e-05	1e-05	2e-05	3e-05	3e-05	1e-05	1e-05	0	1
1633	1e-05	1e-05	2e-05	3e-05	3e-05	1e-05	1e-05	0	1
1634	1e-05	1e-05	2e-05	3e-05	3e-05	1e-05	1e-05	0	1
1635	1e-05	1e-05	2e-05	3e-05	3e-05	1e-05	1e-05	0	1
1636	-1e-05	2e-05	-2e-05	0	-2e-05	-4e-05	-2e-05	1e-05	1
1638	-1e-05	2e-05	-2e-05	0	-2e-05	-4e-05	-2e-05	1e-05	1
1639	-1e-05	2e-05	-2e-05	0	-2e-05	-4e-05	-2e-05	1e-05	1
1640	-1e-05	2e-05	-2e-05	0	-2e-05	-4e-05	-2e-05	1e-05	1
1641	-1e-05	2e-05	-2e-05	0	-2e-05	-4e-05	-2e-05	1e-05	1
1642	-1e-05	2e-05	-2e-05	0	-2e-05	-4e-05	-2e-05	1e-05	1
1643	0	0	4e-05	1e-05	1e-05	-2e-05	-1e-05	-1e-05	1
1644	0	0	4e-05	1e-05	1e-05	-2e-05	-1e-05	-1e-05	1
1645	0	0	4e-05	1e-05	1e-05	-2e-05	-1e-05	-1e-05	1
1646	0	0	4e-05	1e-05	1e-05	-2e-05	-1e-05	-1e-05	1
1647	0	0	4e-05	1e-05	1e-05	-2e-05	-1e-05	-1e-05	1
1648	0	0	4e-05	1e-05	1e-05	-2e-05	-1e-05	-1e-05	1
1649	0	0	4e-05	1e-05	1e-05	-2e-05	-1e-05	-1e-05	1
1650	0	0	4e-05	1e-05	1e-05	-2e-05	-1e-05	-1e-05	1
1651	0	0	4e-05	1e-05	1e-05	-2e-05	-1e-05	-1e-05	1
1652	0	0	4e-05	1e-05	1e-05	-2e-05	-1e-05	-1e-05	1
1653	0	0	4e-05	1e-05	1e-05	-2e-05	-1e-05	-1e-05	1
1654	0	0	4e-05	1e-05	1e-05	-2e-05	-1e-05	-1e-05	1
1655	0	0	4e-05	1e-05	1e-05	-2e-05	-1e-05	-1e-05	1
1656	0	0	4e-05	1e-05	1e-05	-2e-05	-1e-05	-1e-05	1
1657	0	0	4e-05	1e-05	1e-05	-2e-05	-1e-05	-1e-05	1
1658	0	0	4e-05	1e-05	1e-05	-2e-05	-1e-05	-1e-05	1
1659	-2e-05	0	-1e-05	-0.00016	1e-05	4e-05	0	1e-05	1
1660	-2e-05	0	-1e-05	-0.00016	1e-05	4e-05	0	1e-05	1
1661	-2e-05	0	-1e-05	-0.00016	1e-05	4e-05	0	1e-05	1
1662	-2e-05	0	-1e-05	-0.00016	1e-05	4e-05	0	1e-05	1
1663	-2e-05	0	-1e-05	-0.00016	1e-05	4e-05	0	1e-05	1
1664	-2e-05	0	-1e-05	-0.00016	1e-05	4e-05	0	1e-05	1
1665	-2e-05	0	-1e-05	-0.00016	1e-05	4e-05	0	1e-05	1
1666	-2e-05	-1e-05	1e-05	4e-05	3e-05	-2e-05	-3e-05	-1e-05	1
1667	-2e-05	-1e-05	1e-05	4e-05	3e-05	-2e-05	-3e-05	-1e-05	1
1668	-2e-05	-1e-05	1e-05	4e-05	3e-05	-2e-05	-3e-05	-1e-05	1
1669	-2e-05	-1e-05	1e-05	4e-05	3e-05	-2e-05	-3e-05	-1e-05	1
1670	-2e-05	-1e-05	1e-05	4e-05	3e-05	-2e-05	-3e-05	-1e-05	1
1671	-2e-05	-1e-05	1e-05	4e-05	3e-05	-2e-05	-3e-05	-1e-05	1
1672	-2e-05	-1e-05	1e-05	4e-05	3e-05	-2e-05	-3e-05	-1e-05	1
1673	-2e-05	-1e-05	1e-05	4e-05	3e-05	-2e-05	-3e-05	-1e-05	1
1674	-2e-05	-1e-05	1e-05	4e-05	3e-05	-2e-05	-3e-05	-1e-05	1
1675	-2e-05	-1e-05	1e-05	4e-05	3e-05	-2e-05	-3e-05	-1e-05	1
1676	-2e-05	-1e-05	1e-05	4e-05	3e-05	-2e-05	-3e-05	-1e-05	1
1677	-2e-05	-1e-05	1e-05	4e-05	3e-05	-2e-05	-3e-05	-1e-05	1
1678	-2e-05	-1e-05	1e-05	4e-05	3e-05	-2e-05	-3e-05	-1e-05	1
1679	-2e-05	-1e-05	1e-05	4e-05	3e-05	-2e-05	-3e-05	-1e-05	1
1680	-2e-05	-1e-05	1e-05	4e-05	3e-05	-2e-05	-3e-05	-1e-05	1
1681	-2e-05	-1e-05	1e-05	4e-05	3e-05	-2e-05	-3e-05	-1e-05	1
1682	-2e-05	-1e-05	1e-05	4e-05	3e-05	-2e-05	-3e-05	-1e-05	1
1683	-2e-05	-1e-05	1e-05	4e-05	3e-05	-2e-05	-3e-05	-1e-05	1
1684	-2e-05	-1e-05	1e-05	4e-05	3e-05	-2e-05	-3e-05	-1e-05	1
1685	-2e-05	-1e-05	1e-05	4e-05	3e-05	-2e-05	-3e-05	-1e-05	1
1686	-2e-05	-1e-05	1e-05	4e-05	3e-05	-2e-05	-3e-05	-1e-05	1
1688	-2e-05	-1e-05	1e-05	4e-05	3e-05	-2e-05	-3e-05	-1e-05	1
1689	-1e-05	1e-05	2e-05	6e-05	-1e-05	1e-05	-1e-05	0	1
1690	-2e-05	-1e-05	2e-05	3e-05	0	-1e-05	-3e-05	0	1
1691	0	-4e-05	-5e-05	-4e-05	-2e-05	0	-1e-05	-1e-05	1
1692	0	-4e-05	-5e-05	-4e-05	-2e-05	0	-1e-05	-1e-05	1
1693	0	-4e-05	-5e-05	-4e-05	-2e-05	0	-1e-05	-1e-05	1
1694	0	-4e-05	-5e-05	-4e-05	-2e-05	0	-1e-05	-1e-05	1
1695	0	-4e-05	-5e-05	-4e-05	-2e-05	0	-1e-05	-1e-05	1
1696	-3e-05	-2e-05	0	6e-05	1e-05	-1e-05	0	-1e-05	1
1697	-1e-05	-1e-05	1e-05	-2e-05	-3e-05	-4e-05	-1e-05	-2e-05	1
1698	-1e-05	-1e-05	1e-05	-2e-05	-3e-05	-4e-05	-1e-05	-2e-05	1
1699	-1e-05	-1e-05	1e-05	-2e-05	-3e-05	-4e-05	-1e-05	-2e-05	1
1700	-1e-05	-1e-05	1e-05	-2e-05	-3e-05	-4e-05	-1e-05	-2e-05	1
1701	-1e-05	-1e-05	1e-05	-2e-05	-3e-05	-4e-05	-1e-05	-2e-05	1
1702	-1e-05	-1e-05	1e-05	-2e-05	-3e-05	-4e-05	-1e-05	-2e-05	1
1703	0	1e-05	-1e-05	-4e-05	-5e-05	-6e-05	-2e-05	0	1
1704	0	1e-05	-1e-05	-4e-05	-5e-05	-6e-05	-2e-05	0	1
1705	0	1e-05	-1e-05	-4e-05	-5e-05	-6e-05	-2e-05	0	1
1706	0	1e-05	-1e-05	-4e-05	-5e-05	-6e-05	-2e-05	0	1
1707	0	1e-05	-1e-05	-4e-05	-5e-05	-6e-05	-2e-05	0	1
1708	0	1e-05	-1e-05	-4e-05	-5e-05	-6e-05	-2e-05	0	1
1709	0	1e-05	-1e-05	-4e-05	-5e-05	-6e-05	-2e-05	0	1
1710	0	1e-05	-1e-05	-4e-05	-5e-05	-6e-05	-2e-05	0	1
1711	0	1e-05	-1e-05	-4e-05	-5e-05	-6e-05	-2e-05	0	1
1712	0	1e-05	-1e-05	-4e-05	-5e-05	-6e-05	-2e-05	0	1
1713	0	1e-05	-1e-05	-4e-05	-5e-05	-6e-05	-2e-05	0	1
1714	0	1e-05	-1e-05	-4e-05	-5e-05	-6e-05	-2e-05	0	1
1715	0	1e-05	-1e-05	-4e-05	-5e-05	-6e-05	-2e-05	0	1
1716	0	1e-05	-1e-05	-4e-05	-5e-05	-6e-05	-2e-05	0	1
1717	0	1e-05	-1e-05	-4e-05	-5e-05	-6e-05	-2e-05	0	1
1718	0	1e-05	-1e-05	-4e-05	-5e-05	-6e-05	-2e-05	0	1
1719	-1e-05	1e-05	1e-05	9e-05	-1e-05	0	1e-05	0	1
1720	-1e-05	1e-05	1e-05	9e-05	-1e-05	0	1e-05	0	1
1721	-1e-05	1e-05	1e-05	9e-05	-1e-05	0	1e-05	0	1
1722	-1e-05	1e-05	1e-05	9e-05	-1e-05	0	1e-05	0	1
1723	-1e-05	1e-05	1e-05	9e-05	-1e-05	0	1e-05	0	1
1724	-1e-05	1e-05	1e-05	9e-05	-1e-05	0	1e-05	0	1
1725	-1e-05	1e-05	1e-05	9e-05	-1e-05	0	1e-05	0	1
1726	-1e-05	-1e-05	-1e-05	3e-05	0	0	1e-05	0	1
1727	-1e-05	-1e-05	-1e-05	3e-05	0	0	1e-05	0	1
1728	-1e-05	-1e-05	-1e-05	3e-05	0	0	1e-05	0	1
1729	-1e-05	-1e-05	-1e-05	3e-05	0	0	1e-05	0	1
1730	-1e-05	-1e-05	-1e-05	3e-05	0	0	1e-05	0	1
1731	-1e-05	-1e-05	-1e-05	3e-05	0	0	1e-05	0	1
1732	-1e-05	-1e-05	-1e-05	3e-05	0	0	1e-05	0	1
1733	-1e-05	-1e-05	-1e-05	3e-05	0	0	1e-05	0	1
1734	-1e-05	-1e-05	-1e-05	3e-05	0	0	1e-05	0	1
1735	-1e-05	-1e-05	-1e-05	3e-05	0	0	1e-05	0	1
1736	-1e-05	-1e-05	-1e-05	3e-05	0	0	1e-05	0	1
1738	-1e-05	-1e-05	-1e-05	3e-05	0	0	1e-05	0	1
1739	-1e-05	-1e-05	-1e-05	3e-05	0	0	1e-05	0	1
1740	-1e-05	-1e-05	-1e-05	3e-05	0	0	1e-05	0	1
1741	-1e-05	-1e-05	-1e-05	3e-05	0	0	1e-05	0	1
1742	-1e-05	0	0	3e-05	3e-05	0	-1e-05	-2e-05	1
1743	0	-3e-05	2e-05	-4e-05	-1e-05	-6e-05	-3e-05	-2e-05	1
1744	1e-05	1e-05	1e-05	0.00015	2e-05	-0.00014	-4e-05	-2e-05	1
1745	1e-05	1e-05	1e-05	0.00015	2e-05	-0.00014	-4e-05	-2e-05	1
1746	1e-05	1e-05	1e-05	0.00015	2e-05	-0.00014	-4e-05	-2e-05	1
1747	1e-05	1e-05	1e-05	0.00015	2e-05	-0.00014	-4e-05	-2e-05	1
1748	1e-05	1e-05	1e-05	0.00015	2e-05	-0.00014	-4e-05	-2e-05	1
1749	1e-05	1e-05	1e-05	0.00015	2e-05	-0.00014	-4e-05	-2e-05	1
1750	1e-05	1e-05	1e-05	0.00015	2e-05	-0.00014	-4e-05	-2e-05	1
1751	1e-05	1e-05	1e-05	0.00015	2e-05	-0.00014	-4e-05	-2e-05	1
1752	1e-05	1e-05	1e-05	0.00015	2e-05	-0.00014	-4e-05	-2e-05	1
1753	1e-05	1e-05	1e-05	0.00015	2e-05	-0.00014	-4e-05	-2e-05	1
1754	1e-05	1e-05	1e-05	0.00015	2e-05	-0.00014	-4e-05	-2e-05	1
1755	1e-05	1e-05	1e-05	0.00015	2e-05	-0.00014	-4e-05	-2e-05	1
1756	-4e-05	-1e-05	-3e-05	-7e-05	-6e-05	0	-1e-05	-1e-05	1
1757	-4e-05	-1e-05	-3e-05	-7e-05	-6e-05	0	-1e-05	-1e-05	1
1758	-4e-05	-1e-05	-3e-05	-7e-05	-6e-05	0	-1e-05	-1e-05	1
1759	-4e-05	-1e-05	-3e-05	-7e-05	-6e-05	0	-1e-05	-1e-05	1
1760	-4e-05	-1e-05	-3e-05	-7e-05	-6e-05	0	-1e-05	-1e-05	1
1761	-4e-05	-1e-05	-3e-05	-7e-05	-6e-05	0	-1e-05	-1e-05	1
1762	-4e-05	-1e-05	-3e-05	-7e-05	-6e-05	0	-1e-05	-1e-05	1
1763	-1e-05	-1e-05	-3e-05	-8e-05	-1e-05	5e-05	1e-05	0	1
1764	-1e-05	-1e-05	-3e-05	-8e-05	-1e-05	5e-05	1e-05	0	1
1765	-1e-05	-1e-05	-3e-05	-8e-05	-1e-05	5e-05	1e-05	0	1
1766	-1e-05	-1e-05	-3e-05	-8e-05	-1e-05	5e-05	1e-05	0	1
1767	-1e-05	-1e-05	-3e-05	-8e-05	-1e-05	5e-05	1e-05	0	1
1768	-1e-05	-1e-05	-3e-05	-8e-05	-1e-05	5e-05	1e-05	0	1
1769	-1e-05	-1e-05	-3e-05	-8e-05	-1e-05	5e-05	1e-05	0	1
1770	-1e-05	-1e-05	-3e-05	-8e-05	-1e-05	5e-05	1e-05	0	1
1771	-1e-05	-1e-05	-3e-05	-8e-05	-1e-05	5e-05	1e-05	0	1
1772	-1e-05	-1e-05	-3e-05	-8e-05	-1e-05	5e-05	1e-05	0	1
1773	-1e-05	-1e-05	-3e-05	-8e-05	-1e-05	5e-05	1e-05	0	1
1774	-1e-05	-1e-05	-3e-05	-8e-05	-1e-05	5e-05	1e-05	0	1
1775	-1e-05	-1e-05	-3e-05	-8e-05	-1e-05	5e-05	1e-05	0	1
1776	-1e-05	-1e-05	-3e-05	-8e-05	-1e-05	5e-05	1e-05	0	1
1777	-1e-05	-1e-05	-3e-05	-8e-05	-1e-05	5e-05	1e-05	0	1
1778	-1e-05	-1e-05	-3e-05	-8e-05	-1e-05	5e-05	1e-05	0	1
1779	-1e-05	-2e-05	2e-05	1e-05	1e-05	-4e-05	-1e-05	0	1
1780	-1e-05	-2e-05	2e-05	1e-05	1e-05	-4e-05	-1e-05	0	1
1781	-1e-05	-2e-05	2e-05	1e-05	1e-05	-4e-05	-1e-05	0	1
1782	-1e-05	-2e-05	2e-05	1e-05	1e-05	-4e-05	-1e-05	0	1
1783	-1e-05	-2e-05	2e-05	1e-05	1e-05	-4e-05	-1e-05	0	1
1784	-1e-05	-2e-05	2e-05	1e-05	1e-05	-4e-05	-1e-05	0	1
1785	-1e-05	-2e-05	2e-05	1e-05	1e-05	-4e-05	-1e-05	0	1
1786	-1e-05	0	0	2e-05	1e-05	3e-05	-1e-05	-1e-05	1
1788	-1e-05	0	0	2e-05	1e-05	3e-05	-1e-05	-1e-05	1
1789	-1e-05	0	0	2e-05	1e-05	3e-05	-1e-05	-1e-05	1
1790	-1e-05	0	0	2e-05	1e-05	3e-05	-1e-05	-1e-05	1
1791	-1e-05	0	0	2e-05	1e-05	3e-05	-1e-05	-1e-05	1
1792	-1e-05	0	0	2e-05	1e-05	3e-05	-1e-05	-1e-05	1
1793	-1e-05	0	0	2e-05	1e-05	3e-05	-1e-05	-1e-05	1
1794	-1e-05	0	0	2e-05	1e-05	3e-05	-1e-05	-1e-05	1
1795	-1e-05	0	0	2e-05	1e-05	3e-05	-1e-05	-1e-05	1
1796	-1e-05	0	0	2e-05	1e-05	3e-05	-1e-05	-1e-05	1
1797	-1e-05	0	0	2e-05	1e-05	3e-05	-1e-05	-1e-05	1
1798	-1e-05	0	0	2e-05	1e-05	3e-05	-1e-05	-1e-05	1
1799	-1e-05	0	0	2e-05	1e-05	3e-05	-1e-05	-1e-05	1
1800	-1e-05	0	0	2e-05	1e-05	3e-05	-1e-05	-1e-05	1
1801	-1e-05	0	0	2e-05	1e-05	3e-05	-1e-05	-1e-05	1
1802	1e-05	-1e-05	-2e-05	-8e-05	-3e-05	0	-2e-05	-2e-05	1
1803	0	-2e-05	0	5e-05	0	-6e-05	-1e-05	0	1
1804	0	0	3e-05	2e-05	2e-05	5e-05	0	0	1
1805	0	0	3e-05	2e-05	2e-05	5e-05	0	0	1
1806	0	0	3e-05	2e-05	2e-05	5e-05	0	0	1
1807	0	0	3e-05	2e-05	2e-05	5e-05	0	0	1
1808	0	0	3e-05	2e-05	2e-05	5e-05	0	0	1
1809	0	0	3e-05	2e-05	2e-05	5e-05	0	0	1
1810	0	0	3e-05	2e-05	2e-05	5e-05	0	0	1
1811	0	0	3e-05	2e-05	2e-05	5e-05	0	0	1
1812	0	0	3e-05	2e-05	2e-05	5e-05	0	0	1
1813	0	0	3e-05	2e-05	2e-05	5e-05	0	0	1
1814	0	0	3e-05	2e-05	2e-05	5e-05	0	0	1
1816	1e-05	-1e-05	-2e-05	-6e-05	-4e-05	-6e-05	-2e-05	-1e-05	1
1817	1e-05	-1e-05	-2e-05	6e-05	4e-05	0.00013	1e-05	-1e-05	1
1818	1e-05	-1e-05	-2e-05	6e-05	4e-05	0.00013	1e-05	-1e-05	1
1819	1e-05	-1e-05	-2e-05	6e-05	4e-05	0.00013	1e-05	-1e-05	1
1820	1e-05	-1e-05	-2e-05	6e-05	4e-05	0.00013	1e-05	-1e-05	1
1821	1e-05	-1e-05	-2e-05	6e-05	4e-05	0.00013	1e-05	-1e-05	1
1822	1e-05	-1e-05	-2e-05	6e-05	4e-05	0.00013	1e-05	-1e-05	1
1823	1e-05	-1e-05	1e-05	-3e-05	0	5e-05	0	-2e-05	1
1824	1e-05	-1e-05	1e-05	-3e-05	0	5e-05	0	-2e-05	1
1825	1e-05	-1e-05	1e-05	-3e-05	0	5e-05	0	-2e-05	1
1826	1e-05	-1e-05	1e-05	-3e-05	0	5e-05	0	-2e-05	1
1827	1e-05	-1e-05	1e-05	-3e-05	0	5e-05	0	-2e-05	1
1828	1e-05	-1e-05	1e-05	-3e-05	0	5e-05	0	-2e-05	1
1829	1e-05	-1e-05	1e-05	-3e-05	0	5e-05	0	-2e-05	1
1830	1e-05	-1e-05	1e-05	-3e-05	0	5e-05	0	-2e-05	1
1831	1e-05	-1e-05	1e-05	-3e-05	0	5e-05	0	-2e-05	1
1832	1e-05	-1e-05	1e-05	-3e-05	0	5e-05	0	-2e-05	1
1833	1e-05	-1e-05	1e-05	-3e-05	0	5e-05	0	-2e-05	1
1834	1e-05	-1e-05	1e-05	-3e-05	0	5e-05	0	-2e-05	1
1835	1e-05	-1e-05	1e-05	-3e-05	0	5e-05	0	-2e-05	1
1836	1e-05	-1e-05	1e-05	-3e-05	0	5e-05	0	-2e-05	1
1838	1e-05	-1e-05	1e-05	-3e-05	0	5e-05	0	-2e-05	1
1839	-1e-05	-2e-05	-1e-05	2e-05	-1e-05	3e-05	1e-05	-2e-05	1
1840	-1e-05	-2e-05	-1e-05	2e-05	-1e-05	3e-05	1e-05	-2e-05	1
1841	-1e-05	-2e-05	-1e-05	2e-05	-1e-05	3e-05	1e-05	-2e-05	1
1842	-1e-05	-2e-05	-1e-05	2e-05	-1e-05	3e-05	1e-05	-2e-05	1
1843	-1e-05	-2e-05	-1e-05	2e-05	-1e-05	3e-05	1e-05	-2e-05	1
1844	-1e-05	-2e-05	-1e-05	2e-05	-1e-05	3e-05	1e-05	-2e-05	1
1845	-1e-05	-2e-05	-1e-05	2e-05	-1e-05	3e-05	1e-05	-2e-05	1
1846	-1e-05	-2e-05	-1e-05	2e-05	-1e-05	3e-05	1e-05	-2e-05	1
1847	-3e-05	-4e-05	-7e-05	-6e-05	1e-05	6e-05	-2e-05	-1e-05	1
1848	-3e-05	-4e-05	-7e-05	-6e-05	1e-05	6e-05	-2e-05	-1e-05	1
1849	-3e-05	-4e-05	-7e-05	-6e-05	1e-05	6e-05	-2e-05	-1e-05	1
1850	-3e-05	-4e-05	-7e-05	-6e-05	1e-05	6e-05	-2e-05	-1e-05	1
1851	-3e-05	-4e-05	-7e-05	-6e-05	1e-05	6e-05	-2e-05	-1e-05	1
1852	-3e-05	-4e-05	-7e-05	-6e-05	1e-05	6e-05	-2e-05	-1e-05	1
1853	-3e-05	-4e-05	-7e-05	-6e-05	1e-05	6e-05	-2e-05	-1e-05	1
1854	-3e-05	-4e-05	-7e-05	-6e-05	1e-05	6e-05	-2e-05	-1e-05	1
1855	-3e-05	-4e-05	-7e-05	-6e-05	1e-05	6e-05	-2e-05	-1e-05	1
1856	-3e-05	-4e-05	-7e-05	-6e-05	1e-05	6e-05	-2e-05	-1e-05	1
1857	-3e-05	-4e-05	-7e-05	-6e-05	1e-05	6e-05	-2e-05	-1e-05	1
1858	-3e-05	-4e-05	-7e-05	-6e-05	1e-05	6e-05	-2e-05	-1e-05	1
1859	-3e-05	-4e-05	-7e-05	-6e-05	1e-05	6e-05	-2e-05	-1e-05	1
1860	-3e-05	-4e-05	-7e-05	-6e-05	1e-05	6e-05	-2e-05	-1e-05	1
1861	-3e-05	-4e-05	-7e-05	-6e-05	1e-05	6e-05	-2e-05	-1e-05	1
1862	-1e-05	1e-05	0	4e-05	-5e-05	-3e-05	-4e-05	0	1
1863	-1e-05	1e-05	0	4e-05	-5e-05	-3e-05	-4e-05	0	1
1864	-1e-05	-1e-05	-1e-05	-0.00017	-6e-05	-3e-05	-1e-05	-1e-05	1
1865	-1e-05	-1e-05	-1e-05	-0.00017	-6e-05	-3e-05	-1e-05	-1e-05	1
1866	-1e-05	-1e-05	-1e-05	-0.00017	-6e-05	-3e-05	-1e-05	-1e-05	1
1867	-1e-05	-1e-05	-1e-05	-0.00017	-6e-05	-3e-05	-1e-05	-1e-05	1
1868	-1e-05	-1e-05	-1e-05	-0.00017	-6e-05	-3e-05	-1e-05	-1e-05	1
1869	-1e-05	-1e-05	-1e-05	-0.00017	-6e-05	-3e-05	-1e-05	-1e-05	1
1870	-1e-05	-1e-05	-1e-05	-0.00017	-6e-05	-3e-05	-1e-05	-1e-05	1
1871	-1e-05	-1e-05	-1e-05	-0.00017	-6e-05	-3e-05	-1e-05	-1e-05	1
1872	-1e-05	-1e-05	-1e-05	-0.00017	-6e-05	-3e-05	-1e-05	-1e-05	1
1873	-1e-05	-1e-05	-1e-05	-0.00017	-6e-05	-3e-05	-1e-05	-1e-05	1
1874	-1e-05	-1e-05	-1e-05	-0.00017	-6e-05	-3e-05	-1e-05	-1e-05	1
1875	-1e-05	-1e-05	-1e-05	-0.00017	-6e-05	-3e-05	-1e-05	-1e-05	1
1876	0	-4e-05	1e-05	5e-05	2e-05	-5e-05	1e-05	0	1
1877	0	-4e-05	1e-05	5e-05	2e-05	-5e-05	1e-05	0	1
1878	0	-4e-05	1e-05	5e-05	2e-05	-5e-05	1e-05	0	1
1879	0	-4e-05	1e-05	5e-05	2e-05	-5e-05	1e-05	0	1
1880	0	-4e-05	1e-05	5e-05	2e-05	-5e-05	1e-05	0	1
1881	0	-4e-05	1e-05	5e-05	2e-05	-5e-05	1e-05	0	1
1882	0	-4e-05	1e-05	5e-05	2e-05	-5e-05	1e-05	0	1
1883	0	0	1e-05	8e-05	-2e-05	4e-05	0	0	1
1884	0	0	1e-05	8e-05	-2e-05	4e-05	0	0	1
1885	0	0	1e-05	8e-05	-2e-05	4e-05	0	0	1
1886	0	0	1e-05	8e-05	-2e-05	4e-05	0	0	1
1888	0	0	1e-05	8e-05	-2e-05	4e-05	0	0	1
1889	0	0	1e-05	8e-05	-2e-05	4e-05	0	0	1
1890	0	0	1e-05	8e-05	-2e-05	4e-05	0	0	1
1891	0	0	1e-05	8e-05	-2e-05	4e-05	0	0	1
1892	0	0	1e-05	8e-05	-2e-05	4e-05	0	0	1
1893	0	0	1e-05	8e-05	-2e-05	4e-05	0	0	1
1894	0	0	1e-05	8e-05	-2e-05	4e-05	0	0	1
1895	0	0	1e-05	8e-05	-2e-05	4e-05	0	0	1
1896	0	0	1e-05	8e-05	-2e-05	4e-05	0	0	1
1897	0	0	1e-05	8e-05	-2e-05	4e-05	0	0	1
1898	0	0	1e-05	8e-05	-2e-05	4e-05	0	0	1
1899	0	-2e-05	-1e-05	-8e-05	-2e-05	6e-05	1e-05	0	1
1900	0	-2e-05	-1e-05	-8e-05	-2e-05	6e-05	1e-05	0	1
1901	0	-2e-05	-1e-05	-8e-05	-2e-05	6e-05	1e-05	0	1
1902	0	-2e-05	-1e-05	-8e-05	-2e-05	6e-05	1e-05	0	1
1903	0	-2e-05	-1e-05	-8e-05	-2e-05	6e-05	1e-05	0	1
1904	0	-2e-05	-1e-05	-8e-05	-2e-05	6e-05	1e-05	0	1
1905	0	-2e-05	-1e-05	-8e-05	-2e-05	6e-05	1e-05	0	1
1906	0	-2e-05	-1e-05	-8e-05	-2e-05	6e-05	1e-05	0	1
1907	-3e-05	-4e-05	0	0.0001	1e-05	6e-05	1e-05	0	1
1908	-3e-05	-4e-05	0	0.0001	1e-05	6e-05	1e-05	0	1
1909	-3e-05	-4e-05	0	0.0001	1e-05	6e-05	1e-05	0	1
1910	-3e-05	-4e-05	0	0.0001	1e-05	6e-05	1e-05	0	1
1911	-3e-05	-4e-05	0	0.0001	1e-05	6e-05	1e-05	0	1
1912	-3e-05	-4e-05	0	0.0001	1e-05	6e-05	1e-05	0	1
1913	-3e-05	-4e-05	0	0.0001	1e-05	6e-05	1e-05	0	1
1914	-3e-05	-4e-05	0	0.0001	1e-05	6e-05	1e-05	0	1
1915	-3e-05	-4e-05	0	0.0001	1e-05	6e-05	1e-05	0	1
1916	-3e-05	-4e-05	0	0.0001	1e-05	6e-05	1e-05	0	1
1917	-3e-05	-4e-05	0	0.0001	1e-05	6e-05	1e-05	0	1
1918	-3e-05	-4e-05	0	0.0001	1e-05	6e-05	1e-05	0	1
1919	-3e-05	-4e-05	0	0.0001	1e-05	6e-05	1e-05	0	1
1920	-3e-05	-4e-05	0	0.0001	1e-05	6e-05	1e-05	0	1
1921	-3e-05	-4e-05	0	0.0001	1e-05	6e-05	1e-05	0	1
1922	-1e-05	-3e-05	-1e-05	4e-05	-1e-05	-7e-05	-1e-05	1e-05	1
1923	1e-05	2e-05	3e-05	4e-05	1e-05	7e-05	0	0	1
1924	-1e-05	-1e-05	-5e-05	-0.00012	-2e-05	-3e-05	-2e-05	0	1
1925	-1e-05	-1e-05	-5e-05	-0.00012	-2e-05	-3e-05	-2e-05	0	1
1926	-1e-05	-1e-05	-5e-05	-0.00012	-2e-05	-3e-05	-2e-05	0	1
1927	-1e-05	-1e-05	-5e-05	-0.00012	-2e-05	-3e-05	-2e-05	0	1
1928	-1e-05	-1e-05	-5e-05	-0.00012	-2e-05	-3e-05	-2e-05	0	1
1929	-1e-05	-1e-05	-5e-05	-0.00012	-2e-05	-3e-05	-2e-05	0	1
1930	-1e-05	-1e-05	-5e-05	-0.00012	-2e-05	-3e-05	-2e-05	0	1
1931	-1e-05	-1e-05	-5e-05	-0.00012	-2e-05	-3e-05	-2e-05	0	1
1932	-1e-05	-1e-05	-5e-05	-0.00012	-2e-05	-3e-05	-2e-05	0	1
1933	-1e-05	-1e-05	-5e-05	-0.00012	-2e-05	-3e-05	-2e-05	0	1
1934	-1e-05	-1e-05	-5e-05	-0.00012	-2e-05	-3e-05	-2e-05	0	1
1935	-1e-05	-1e-05	-5e-05	-0.00012	-2e-05	-3e-05	-2e-05	0	1
1936	-1e-05	-1e-05	-5e-05	-0.00012	-2e-05	-3e-05	-2e-05	0	1
1938	-2e-05	3e-05	2e-05	3e-05	-5e-05	-6e-05	-2e-05	-2e-05	1
1939	-2e-05	3e-05	2e-05	3e-05	-5e-05	-6e-05	-2e-05	-2e-05	1
1940	-2e-05	3e-05	2e-05	3e-05	-5e-05	-6e-05	-2e-05	-2e-05	1
1941	-2e-05	3e-05	2e-05	3e-05	-5e-05	-6e-05	-2e-05	-2e-05	1
1942	-2e-05	3e-05	2e-05	3e-05	-5e-05	-6e-05	-2e-05	-2e-05	1
1943	-1e-05	-3e-05	-1e-05	-5e-05	1e-05	-2e-05	-2e-05	-1e-05	1
1944	-1e-05	-3e-05	-1e-05	-5e-05	1e-05	-2e-05	-2e-05	-1e-05	1
1945	-1e-05	-3e-05	-1e-05	-5e-05	1e-05	-2e-05	-2e-05	-1e-05	1
1946	-1e-05	-3e-05	-1e-05	-5e-05	1e-05	-2e-05	-2e-05	-1e-05	1
1947	-1e-05	-3e-05	-1e-05	-5e-05	1e-05	-2e-05	-2e-05	-1e-05	1
1948	-1e-05	-3e-05	-1e-05	-5e-05	1e-05	-2e-05	-2e-05	-1e-05	1
1949	-1e-05	-3e-05	-1e-05	-5e-05	1e-05	-2e-05	-2e-05	-1e-05	1
1950	-1e-05	-3e-05	-1e-05	-5e-05	1e-05	-2e-05	-2e-05	-1e-05	1
1951	-1e-05	-3e-05	-1e-05	-5e-05	1e-05	-2e-05	-2e-05	-1e-05	1
1952	-1e-05	-3e-05	-1e-05	-5e-05	1e-05	-2e-05	-2e-05	-1e-05	1
1953	-1e-05	-3e-05	-1e-05	-5e-05	1e-05	-2e-05	-2e-05	-1e-05	1
1954	-1e-05	-3e-05	-1e-05	-5e-05	1e-05	-2e-05	-2e-05	-1e-05	1
1955	-1e-05	-3e-05	-1e-05	-5e-05	1e-05	-2e-05	-2e-05	-1e-05	1
1956	-1e-05	-3e-05	-1e-05	-5e-05	1e-05	-2e-05	-2e-05	-1e-05	1
1957	-1e-05	-3e-05	-1e-05	-5e-05	1e-05	-2e-05	-2e-05	-1e-05	1
1958	-1e-05	-3e-05	-1e-05	-5e-05	1e-05	-2e-05	-2e-05	-1e-05	1
1959	-1e-05	-3e-05	-1e-05	-5e-05	1e-05	-2e-05	-2e-05	-1e-05	1
1960	-1e-05	-3e-05	-1e-05	-5e-05	1e-05	-2e-05	-2e-05	-1e-05	1
1961	-1e-05	-3e-05	-1e-05	-5e-05	1e-05	-2e-05	-2e-05	-1e-05	1
1962	-1e-05	-3e-05	-1e-05	-5e-05	1e-05	-2e-05	-2e-05	-1e-05	1
1963	-1e-05	-3e-05	-1e-05	-5e-05	1e-05	-2e-05	-2e-05	-1e-05	1
1964	-1e-05	-3e-05	-1e-05	-5e-05	1e-05	-2e-05	-2e-05	-1e-05	1
1965	-1e-05	-3e-05	-1e-05	-5e-05	1e-05	-2e-05	-2e-05	-1e-05	1
1966	-1e-05	-3e-05	-1e-05	-5e-05	1e-05	-2e-05	-2e-05	-1e-05	1
1967	-1e-05	0	-5e-05	-6e-05	-5e-05	1e-05	0	0	1
1968	0	1e-05	3e-05	-1e-05	3e-05	9e-05	2e-05	-1e-05	1
1969	-1e-05	-2e-05	-4e-05	4e-05	1e-05	5e-05	0	0	1
1970	-1e-05	-2e-05	-4e-05	4e-05	1e-05	5e-05	0	0	1
1971	-1e-05	-2e-05	-4e-05	4e-05	1e-05	5e-05	0	0	1
1972	-1e-05	-2e-05	-4e-05	4e-05	1e-05	5e-05	0	0	1
1973	-1e-05	-2e-05	-4e-05	4e-05	1e-05	5e-05	0	0	1
1974	-1e-05	-2e-05	-4e-05	4e-05	1e-05	5e-05	0	0	1
1975	-1e-05	-2e-05	-4e-05	4e-05	1e-05	5e-05	0	0	1
1976	-1e-05	-2e-05	-4e-05	4e-05	1e-05	5e-05	0	0	1
1977	-1e-05	-2e-05	-4e-05	4e-05	1e-05	5e-05	0	0	1
1978	-1e-05	-2e-05	-4e-05	4e-05	1e-05	5e-05	0	0	1
1979	-1e-05	-2e-05	-4e-05	4e-05	1e-05	5e-05	0	0	1
1980	-1e-05	-2e-05	-4e-05	4e-05	1e-05	5e-05	0	0	1
1981	-1e-05	-2e-05	-4e-05	4e-05	1e-05	5e-05	0	0	1
1982	0	0	0	6e-05	7e-05	2e-05	0	2e-05	1
1983	0	0	-2e-05	-5e-05	-3e-05	-2e-05	-2e-05	-3e-05	1
1984	1e-05	1e-05	1e-05	1e-05	-2e-05	-4e-05	0	-2e-05	1
1985	1e-05	1e-05	1e-05	1e-05	-2e-05	-4e-05	0	-2e-05	1
1986	1e-05	1e-05	1e-05	1e-05	-2e-05	-4e-05	0	-2e-05	1
1988	1e-05	1e-05	1e-05	1e-05	-2e-05	-4e-05	0	-2e-05	1
1989	1e-05	1e-05	1e-05	1e-05	-2e-05	-4e-05	0	-2e-05	1
1990	1e-05	1e-05	1e-05	1e-05	-2e-05	-4e-05	0	-2e-05	1
1991	1e-05	1e-05	1e-05	1e-05	-2e-05	-4e-05	0	-2e-05	1
1992	1e-05	1e-05	1e-05	1e-05	-2e-05	-4e-05	0	-2e-05	1
1993	1e-05	1e-05	1e-05	1e-05	-2e-05	-4e-05	0	-2e-05	1
1994	1e-05	1e-05	1e-05	1e-05	-2e-05	-4e-05	0	-2e-05	1
1995	1e-05	1e-05	1e-05	1e-05	-2e-05	-4e-05	0	-2e-05	1
1996	-1e-05	0	1e-05	1e-05	2e-05	-7e-05	-1e-05	0	1
1997	-1e-05	0	1e-05	1e-05	2e-05	-7e-05	-1e-05	0	1
1998	-1e-05	0	1e-05	1e-05	2e-05	-7e-05	-1e-05	0	1
1999	-1e-05	0	1e-05	1e-05	2e-05	-7e-05	-1e-05	0	1
2000	-1e-05	0	1e-05	1e-05	2e-05	-7e-05	-1e-05	0	1
2001	-1e-05	0	1e-05	1e-05	2e-05	-7e-05	-1e-05	0	1
2002	-1e-05	0	1e-05	1e-05	2e-05	-7e-05	-1e-05	0	1
2003	-1e-05	1e-05	1e-05	1e-05	-3e-05	-4e-05	-3e-05	0	1
2004	-1e-05	1e-05	1e-05	1e-05	-3e-05	-4e-05	-3e-05	0	1
2005	-1e-05	1e-05	1e-05	1e-05	-3e-05	-4e-05	-3e-05	0	1
2006	-1e-05	1e-05	1e-05	1e-05	-3e-05	-4e-05	-3e-05	0	1
2007	-1e-05	1e-05	1e-05	1e-05	-3e-05	-4e-05	-3e-05	0	1
2008	-1e-05	1e-05	1e-05	1e-05	-3e-05	-4e-05	-3e-05	0	1
2009	-1e-05	1e-05	1e-05	1e-05	-3e-05	-4e-05	-3e-05	0	1
2010	-1e-05	1e-05	1e-05	1e-05	-3e-05	-4e-05	-3e-05	0	1
2011	-1e-05	1e-05	1e-05	1e-05	-3e-05	-4e-05	-3e-05	0	1
2012	-1e-05	1e-05	1e-05	1e-05	-3e-05	-4e-05	-3e-05	0	1
2013	-1e-05	1e-05	1e-05	1e-05	-3e-05	-4e-05	-3e-05	0	1
2014	-1e-05	1e-05	1e-05	1e-05	-3e-05	-4e-05	-3e-05	0	1
2015	-1e-05	1e-05	1e-05	1e-05	-3e-05	-4e-05	-3e-05	0	1
2016	-1e-05	1e-05	1e-05	1e-05	-3e-05	-4e-05	-3e-05	0	1
2017	-1e-05	1e-05	1e-05	1e-05	-3e-05	-4e-05	-3e-05	0	1
2018	-1e-05	1e-05	1e-05	1e-05	-3e-05	-4e-05	-3e-05	0	1
2019	-2e-05	-1e-05	-6e-05	-8e-05	-1e-05	-3e-05	-1e-05	-1e-05	1
2020	-2e-05	-1e-05	-6e-05	-8e-05	-1e-05	-3e-05	-1e-05	-1e-05	1
2021	-2e-05	-1e-05	-6e-05	-8e-05	-1e-05	-3e-05	-1e-05	-1e-05	1
2022	-2e-05	-1e-05	-6e-05	-8e-05	-1e-05	-3e-05	-1e-05	-1e-05	1
2023	-2e-05	-1e-05	-6e-05	-8e-05	-1e-05	-3e-05	-1e-05	-1e-05	1
2024	-2e-05	-1e-05	-6e-05	-8e-05	-1e-05	-3e-05	-1e-05	-1e-05	1
2025	0	-2e-05	2e-05	1e-05	0	3e-05	-1e-05	2e-05	1
2026	-1e-05	3e-05	4e-05	1e-05	-1e-05	-1e-05	0	-1e-05	1
2027	-1e-05	3e-05	4e-05	1e-05	-1e-05	-1e-05	0	-1e-05	1
2028	-1e-05	3e-05	4e-05	1e-05	-1e-05	-1e-05	0	-1e-05	1
2029	-1e-05	3e-05	4e-05	1e-05	-1e-05	-1e-05	0	-1e-05	1
2030	-1e-05	3e-05	4e-05	1e-05	-1e-05	-1e-05	0	-1e-05	1
2031	-1e-05	3e-05	4e-05	1e-05	-1e-05	-1e-05	0	-1e-05	1
2032	-1e-05	3e-05	4e-05	1e-05	-1e-05	-1e-05	0	-1e-05	1
2033	-1e-05	3e-05	4e-05	1e-05	-1e-05	-1e-05	0	-1e-05	1
2034	-1e-05	3e-05	4e-05	1e-05	-1e-05	-1e-05	0	-1e-05	1
2035	-1e-05	3e-05	4e-05	1e-05	-1e-05	-1e-05	0	-1e-05	1
2036	-1e-05	3e-05	4e-05	1e-05	-1e-05	-1e-05	0	-1e-05	1
2038	-1e-05	3e-05	4e-05	1e-05	-1e-05	-1e-05	0	-1e-05	1
2039	-1e-05	3e-05	4e-05	1e-05	-1e-05	-1e-05	0	-1e-05	1
2040	-1e-05	3e-05	4e-05	1e-05	-1e-05	-1e-05	0	-1e-05	1
2041	-1e-05	3e-05	4e-05	1e-05	-1e-05	-1e-05	0	-1e-05	1
2042	0	-4e-05	-3e-05	-9e-05	-4e-05	-6e-05	-1e-05	-1e-05	1
2043	-2e-05	-3e-05	-8e-05	-7e-05	-2e-05	1e-05	-3e-05	-1e-05	1
2044	0	1e-05	3e-05	7e-05	-4e-05	-8e-05	0	-1e-05	1
2045	0	1e-05	3e-05	7e-05	-4e-05	-8e-05	0	-1e-05	1
2046	0	1e-05	3e-05	7e-05	-4e-05	-8e-05	0	-1e-05	1
2047	0	1e-05	3e-05	7e-05	-4e-05	-8e-05	0	-1e-05	1
2048	0	1e-05	3e-05	7e-05	-4e-05	-8e-05	0	-1e-05	1
2049	0	1e-05	3e-05	7e-05	-4e-05	-8e-05	0	-1e-05	1
2050	0	1e-05	3e-05	7e-05	-4e-05	-8e-05	0	-1e-05	1
2051	0	1e-05	3e-05	7e-05	-4e-05	-8e-05	0	-1e-05	1
2052	0	1e-05	3e-05	7e-05	-4e-05	-8e-05	0	-1e-05	1
2053	0	1e-05	3e-05	7e-05	-4e-05	-8e-05	0	-1e-05	1
2054	0	1e-05	3e-05	7e-05	-4e-05	-8e-05	0	-1e-05	1
2055	0	1e-05	3e-05	7e-05	-4e-05	-8e-05	0	-1e-05	1
2056	-1e-05	-1e-05	0	-1e-05	-1e-05	-8e-05	-4e-05	-2e-05	1
2057	-1e-05	-1e-05	0	-1e-05	-1e-05	-8e-05	-4e-05	-2e-05	1
2058	-1e-05	-1e-05	0	-1e-05	-1e-05	-8e-05	-4e-05	-2e-05	1
2059	-1e-05	-1e-05	0	-1e-05	-1e-05	-8e-05	-4e-05	-2e-05	1
2060	-1e-05	-1e-05	0	-1e-05	-1e-05	-8e-05	-4e-05	-2e-05	1
2061	-1e-05	-1e-05	0	-1e-05	-1e-05	-8e-05	-4e-05	-2e-05	1
2062	-1e-05	-1e-05	0	-1e-05	-1e-05	-8e-05	-4e-05	-2e-05	1
2063	-1e-05	-3e-05	0	-8e-05	-2e-05	1e-05	-1e-05	-3e-05	1
2064	-1e-05	-3e-05	0	-8e-05	-2e-05	1e-05	-1e-05	-3e-05	1
2065	-1e-05	-3e-05	0	-8e-05	-2e-05	1e-05	-1e-05	-3e-05	1
2066	-1e-05	-3e-05	0	-8e-05	-2e-05	1e-05	-1e-05	-3e-05	1
2067	-1e-05	-3e-05	0	-8e-05	-2e-05	1e-05	-1e-05	-3e-05	1
2068	-1e-05	-3e-05	0	-8e-05	-2e-05	1e-05	-1e-05	-3e-05	1
2069	-1e-05	-3e-05	0	-8e-05	-2e-05	1e-05	-1e-05	-3e-05	1
2070	-1e-05	-3e-05	0	-8e-05	-2e-05	1e-05	-1e-05	-3e-05	1
2071	-1e-05	-3e-05	0	-8e-05	-2e-05	1e-05	-1e-05	-3e-05	1
2072	-1e-05	-3e-05	0	-8e-05	-2e-05	1e-05	-1e-05	-3e-05	1
2073	-1e-05	-3e-05	0	-8e-05	-2e-05	1e-05	-1e-05	-3e-05	1
2074	-1e-05	-3e-05	0	-8e-05	-2e-05	1e-05	-1e-05	-3e-05	1
2075	-1e-05	-3e-05	0	-8e-05	-2e-05	1e-05	-1e-05	-3e-05	1
2076	-1e-05	-3e-05	0	-8e-05	-2e-05	1e-05	-1e-05	-3e-05	1
2077	-1e-05	-3e-05	0	-8e-05	-2e-05	1e-05	-1e-05	-3e-05	1
2078	-1e-05	-3e-05	0	-8e-05	-2e-05	1e-05	-1e-05	-3e-05	1
2079	-2e-05	-1e-05	-2e-05	-0.0001	-3e-05	-3e-05	-1e-05	-2e-05	1
2080	-2e-05	-1e-05	-2e-05	-0.0001	-3e-05	-3e-05	-1e-05	-2e-05	1
2081	-2e-05	-1e-05	-2e-05	-0.0001	-3e-05	-3e-05	-1e-05	-2e-05	1
2082	-2e-05	-1e-05	-2e-05	-0.0001	-3e-05	-3e-05	-1e-05	-2e-05	1
2083	-2e-05	-1e-05	-2e-05	-0.0001	-3e-05	-3e-05	-1e-05	-2e-05	1
2084	-2e-05	-1e-05	-2e-05	-0.0001	-3e-05	-3e-05	-1e-05	-2e-05	1
2085	-2e-05	-3e-05	-1e-05	-2e-05	0	-5e-05	-1e-05	-2e-05	1
2086	-2e-05	-1e-05	-2e-05	-8e-05	-1e-05	1e-05	0	-1e-05	1
2088	-2e-05	-1e-05	-2e-05	-8e-05	-1e-05	1e-05	0	-1e-05	1
2089	-2e-05	-1e-05	-2e-05	-8e-05	-1e-05	1e-05	0	-1e-05	1
2090	-2e-05	-1e-05	-2e-05	-8e-05	-1e-05	1e-05	0	-1e-05	1
2091	-2e-05	-1e-05	-2e-05	-8e-05	-1e-05	1e-05	0	-1e-05	1
2092	-2e-05	-1e-05	-2e-05	-8e-05	-1e-05	1e-05	0	-1e-05	1
2093	-2e-05	-1e-05	-2e-05	-8e-05	-1e-05	1e-05	0	-1e-05	1
2094	-2e-05	-1e-05	-2e-05	-8e-05	-1e-05	1e-05	0	-1e-05	1
2095	-2e-05	-1e-05	-2e-05	-8e-05	-1e-05	1e-05	0	-1e-05	1
2096	-2e-05	-1e-05	-2e-05	-8e-05	-1e-05	1e-05	0	-1e-05	1
2097	-2e-05	-1e-05	-2e-05	-8e-05	-1e-05	1e-05	0	-1e-05	1
2098	-2e-05	-1e-05	-2e-05	-8e-05	-1e-05	1e-05	0	-1e-05	1
2099	-2e-05	-1e-05	-2e-05	-8e-05	-1e-05	1e-05	0	-1e-05	1
2100	-2e-05	-1e-05	-2e-05	-8e-05	-1e-05	1e-05	0	-1e-05	1
2101	-2e-05	-1e-05	-2e-05	-8e-05	-1e-05	1e-05	0	-1e-05	1
2102	-2e-05	1e-05	4e-05	9e-05	-3e-05	5e-05	-2e-05	-3e-05	1
2103	-3e-05	-3e-05	-9e-05	-0.00011	-4e-05	-0.00016	-2e-05	-2e-05	1
2104	0	-1e-05	-1e-05	2e-05	1e-05	4e-05	1e-05	0	1
2105	0	-1e-05	-1e-05	2e-05	1e-05	4e-05	1e-05	0	1
2106	0	-1e-05	-1e-05	2e-05	1e-05	4e-05	1e-05	0	1
2107	0	-1e-05	-1e-05	2e-05	1e-05	4e-05	1e-05	0	1
2108	0	-1e-05	-1e-05	2e-05	1e-05	4e-05	1e-05	0	1
2109	0	-1e-05	-1e-05	2e-05	1e-05	4e-05	1e-05	0	1
2110	0	-1e-05	-1e-05	2e-05	1e-05	4e-05	1e-05	0	1
2111	0	-1e-05	-1e-05	2e-05	1e-05	4e-05	1e-05	0	1
2112	0	-1e-05	-1e-05	2e-05	1e-05	4e-05	1e-05	0	1
2113	0	-1e-05	-1e-05	2e-05	1e-05	4e-05	1e-05	0	1
2114	0	-1e-05	-1e-05	2e-05	1e-05	4e-05	1e-05	0	1
2115	0	-1e-05	-1e-05	2e-05	1e-05	4e-05	1e-05	0	1
2116	0	-1e-05	-1e-05	2e-05	1e-05	4e-05	1e-05	0	1
2117	0	-1e-05	-1e-05	2e-05	1e-05	4e-05	1e-05	0	1
2118	0	-1e-05	-1e-05	2e-05	1e-05	4e-05	1e-05	0	1
2119	0	-1e-05	-1e-05	2e-05	1e-05	4e-05	1e-05	0	1
2120	0	-1e-05	-1e-05	2e-05	1e-05	4e-05	1e-05	0	1
2121	0	-1e-05	-1e-05	2e-05	1e-05	4e-05	1e-05	0	1
2122	0	-1e-05	-1e-05	2e-05	1e-05	4e-05	1e-05	0	1
2123	0	-1e-05	-1e-05	2e-05	1e-05	4e-05	1e-05	0	1
2124	0	1e-05	0	4e-05	0	2e-05	-2e-05	-1e-05	1
2125	0	1e-05	0	4e-05	0	2e-05	-2e-05	-1e-05	1
2126	-1e-05	-3e-05	-3e-05	-1e-05	3e-05	-0.0001	-1e-05	-2e-05	1
2127	-1e-05	-3e-05	-3e-05	-1e-05	3e-05	-0.0001	-1e-05	-2e-05	1
2128	-1e-05	-3e-05	-3e-05	-1e-05	3e-05	-0.0001	-1e-05	-2e-05	1
2129	-1e-05	-3e-05	-3e-05	-1e-05	3e-05	-0.0001	-1e-05	-2e-05	1
2130	-1e-05	-3e-05	-3e-05	-1e-05	3e-05	-0.0001	-1e-05	-2e-05	1
2131	-1e-05	-3e-05	-3e-05	-1e-05	3e-05	-0.0001	-1e-05	-2e-05	1
2132	-1e-05	-3e-05	-3e-05	-1e-05	3e-05	-0.0001	-1e-05	-2e-05	1
2133	-1e-05	-3e-05	-3e-05	-1e-05	3e-05	-0.0001	-1e-05	-2e-05	1
2134	-1e-05	-3e-05	-3e-05	-1e-05	3e-05	-0.0001	-1e-05	-2e-05	1
2135	-1e-05	-3e-05	-3e-05	-1e-05	3e-05	-0.0001	-1e-05	-2e-05	1
2136	-1e-05	-3e-05	-3e-05	-1e-05	3e-05	-0.0001	-1e-05	-2e-05	1
2138	-1e-05	-3e-05	-3e-05	-1e-05	3e-05	-0.0001	-1e-05	-2e-05	1
2139	0	-2e-05	-8e-05	-4e-05	2e-05	3e-05	-1e-05	-1e-05	1
2140	0	-2e-05	-8e-05	-4e-05	2e-05	3e-05	-1e-05	-1e-05	1
2141	0	-2e-05	-8e-05	-4e-05	2e-05	3e-05	-1e-05	-1e-05	1
2142	0	-2e-05	-8e-05	-4e-05	2e-05	3e-05	-1e-05	-1e-05	1
2143	0	-2e-05	-8e-05	-4e-05	2e-05	3e-05	-1e-05	-1e-05	1
2144	0	-2e-05	-8e-05	-4e-05	2e-05	3e-05	-1e-05	-1e-05	1
2145	-2e-05	0	3e-05	1e-05	-2e-05	-1e-05	-4e-05	-2e-05	1
2146	1e-05	1e-05	3e-05	0.00011	-1e-05	0	1e-05	0	1
2147	1e-05	1e-05	3e-05	0.00011	-1e-05	0	1e-05	0	1
2148	1e-05	1e-05	3e-05	0.00011	-1e-05	0	1e-05	0	1
2149	1e-05	1e-05	3e-05	0.00011	-1e-05	0	1e-05	0	1
2150	1e-05	1e-05	3e-05	0.00011	-1e-05	0	1e-05	0	1
2151	1e-05	1e-05	3e-05	0.00011	-1e-05	0	1e-05	0	1
2152	1e-05	1e-05	3e-05	0.00011	-1e-05	0	1e-05	0	1
2153	1e-05	1e-05	3e-05	0.00011	-1e-05	0	1e-05	0	1
2154	1e-05	1e-05	3e-05	0.00011	-1e-05	0	1e-05	0	1
2155	1e-05	1e-05	3e-05	0.00011	-1e-05	0	1e-05	0	1
2156	1e-05	1e-05	3e-05	0.00011	-1e-05	0	1e-05	0	1
2157	1e-05	1e-05	3e-05	0.00011	-1e-05	0	1e-05	0	1
2158	1e-05	1e-05	3e-05	0.00011	-1e-05	0	1e-05	0	1
2159	1e-05	1e-05	3e-05	0.00011	-1e-05	0	1e-05	0	1
2160	1e-05	1e-05	3e-05	0.00011	-1e-05	0	1e-05	0	1
2161	1e-05	1e-05	3e-05	0.00011	-1e-05	0	1e-05	0	1
2162	0	-1e-05	-3e-05	-7e-05	0	-6e-05	0	0	1
2163	0	-1e-05	-3e-05	-7e-05	0	-6e-05	0	0	1
2164	0	-2e-05	2e-05	2e-05	0	-3e-05	0	-1e-05	1
2165	0	-2e-05	2e-05	2e-05	0	-3e-05	0	-1e-05	1
2166	0	-2e-05	2e-05	2e-05	0	-3e-05	0	-1e-05	1
2167	0	-2e-05	2e-05	2e-05	0	-3e-05	0	-1e-05	1
2168	0	-2e-05	2e-05	2e-05	0	-3e-05	0	-1e-05	1
2169	0	-2e-05	2e-05	2e-05	0	-3e-05	0	-1e-05	1
2170	0	-2e-05	2e-05	2e-05	0	-3e-05	0	-1e-05	1
2171	0	-2e-05	2e-05	2e-05	0	-3e-05	0	-1e-05	1
2172	0	-2e-05	2e-05	2e-05	0	-3e-05	0	-1e-05	1
2173	0	-2e-05	2e-05	2e-05	0	-3e-05	0	-1e-05	1
2174	0	-2e-05	2e-05	2e-05	0	-3e-05	0	-1e-05	1
2175	0	0	-2e-05	-4e-05	-2e-05	-3e-05	-2e-05	-2e-05	1
2176	-1e-05	-3e-05	-1e-05	-3e-05	0	0	-1e-05	-2e-05	1
2177	-1e-05	-3e-05	-1e-05	-3e-05	0	0	-1e-05	-2e-05	1
2178	-1e-05	-3e-05	-1e-05	-3e-05	0	0	-1e-05	-2e-05	1
2179	-1e-05	-3e-05	-1e-05	-3e-05	0	0	-1e-05	-2e-05	1
2180	-1e-05	-3e-05	-1e-05	-3e-05	0	0	-1e-05	-2e-05	1
2181	-1e-05	-3e-05	-1e-05	-3e-05	0	0	-1e-05	-2e-05	1
2182	-1e-05	-3e-05	-1e-05	-3e-05	0	0	-1e-05	-2e-05	1
2183	-1e-05	-3e-05	-1e-05	-3e-05	0	0	-1e-05	-2e-05	1
2184	-1e-05	-3e-05	-1e-05	-3e-05	0	0	-1e-05	-2e-05	1
2185	-1e-05	0	-1e-05	-4e-05	-3e-05	4e-05	1e-05	-1e-05	1
2186	-1e-05	0	-1e-05	-4e-05	-3e-05	4e-05	1e-05	-1e-05	1
2188	-1e-05	0	-1e-05	-4e-05	-3e-05	4e-05	1e-05	-1e-05	1
2189	-1e-05	0	-1e-05	-4e-05	-3e-05	4e-05	1e-05	-1e-05	1
2190	-1e-05	0	-1e-05	-4e-05	-3e-05	4e-05	1e-05	-1e-05	1
2191	-1e-05	0	-1e-05	-4e-05	-3e-05	4e-05	1e-05	-1e-05	1
2192	-1e-05	0	-1e-05	-4e-05	-3e-05	4e-05	1e-05	-1e-05	1
2193	-1e-05	0	-1e-05	-4e-05	-3e-05	4e-05	1e-05	-1e-05	1
2194	-1e-05	0	-1e-05	-4e-05	-3e-05	4e-05	1e-05	-1e-05	1
2195	-1e-05	0	-1e-05	-4e-05	-3e-05	4e-05	1e-05	-1e-05	1
2196	-1e-05	0	-1e-05	-4e-05	-3e-05	4e-05	1e-05	-1e-05	1
2197	-1e-05	0	-1e-05	-4e-05	-3e-05	4e-05	1e-05	-1e-05	1
2198	-1e-05	0	-1e-05	-4e-05	-3e-05	4e-05	1e-05	-1e-05	1
2199	-1e-05	0	0	7e-05	-2e-05	-5e-05	-2e-05	-2e-05	1
2200	-1e-05	0	0	7e-05	-2e-05	-5e-05	-2e-05	-2e-05	1
2201	-1e-05	0	0	7e-05	-2e-05	-5e-05	-2e-05	-2e-05	1
2202	-1e-05	0	0	7e-05	-2e-05	-5e-05	-2e-05	-2e-05	1
2203	-1e-05	0	0	7e-05	-2e-05	-5e-05	-2e-05	-2e-05	1
2204	-1e-05	0	0	7e-05	-2e-05	-5e-05	-2e-05	-2e-05	1
2205	-1e-05	-2e-05	-1e-05	0	-1e-05	-0.00015	-3e-05	-2e-05	1
2206	-1e-05	-2e-05	-1e-05	0	-1e-05	-0.00015	-3e-05	-2e-05	1
2208	-1e-05	-2e-05	-1e-05	0	-1e-05	-0.00015	-3e-05	-2e-05	1
2209	-1e-05	-2e-05	-1e-05	0	-1e-05	-0.00015	-3e-05	-2e-05	1
2210	-1e-05	-2e-05	-1e-05	0	-1e-05	-0.00015	-3e-05	-2e-05	1
2211	-1e-05	-2e-05	-1e-05	0	-1e-05	-0.00015	-3e-05	-2e-05	1
2212	-1e-05	-2e-05	-1e-05	0	-1e-05	-0.00015	-3e-05	-2e-05	1
2213	-1e-05	-2e-05	-1e-05	0	-1e-05	-0.00015	-3e-05	-2e-05	1
2214	-1e-05	-2e-05	-1e-05	0	-1e-05	-0.00015	-3e-05	-2e-05	1
2215	-1e-05	-2e-05	-1e-05	0	-1e-05	-0.00015	-3e-05	-2e-05	1
2216	-1e-05	-2e-05	-1e-05	0	-1e-05	-0.00015	-3e-05	-2e-05	1
2217	-1e-05	-2e-05	-1e-05	0	-1e-05	-0.00015	-3e-05	-2e-05	1
2218	-1e-05	-2e-05	-1e-05	0	-1e-05	-0.00015	-3e-05	-2e-05	1
2219	-1e-05	-2e-05	-1e-05	0	-1e-05	-0.00015	-3e-05	-2e-05	1
2220	-1e-05	-2e-05	-1e-05	0	-1e-05	-0.00015	-3e-05	-2e-05	1
2221	-1e-05	-2e-05	-1e-05	0	-1e-05	-0.00015	-3e-05	-2e-05	1
2222	0	0	2e-05	2e-05	-8e-05	-9e-05	-2e-05	-2e-05	1
2223	-1e-05	-2e-05	-9e-05	-3e-05	-3e-05	0	-2e-05	-2e-05	1
2224	-1e-05	-2e-05	-9e-05	-3e-05	-3e-05	0	-2e-05	-2e-05	1
2225	-1e-05	-2e-05	-9e-05	-3e-05	-3e-05	0	-2e-05	-2e-05	1
2226	-1e-05	-2e-05	-9e-05	-3e-05	-3e-05	0	-2e-05	-2e-05	1
2227	-1e-05	-2e-05	-9e-05	-3e-05	-3e-05	0	-2e-05	-2e-05	1
2228	-1e-05	-2e-05	-9e-05	-3e-05	-3e-05	0	-2e-05	-2e-05	1
2229	-1e-05	-2e-05	-9e-05	-3e-05	-3e-05	0	-2e-05	-2e-05	1
2230	-1e-05	-2e-05	-9e-05	-3e-05	-3e-05	0	-2e-05	-2e-05	1
2231	-1e-05	-2e-05	-9e-05	-3e-05	-3e-05	0	-2e-05	-2e-05	1
2232	-1e-05	-2e-05	-9e-05	-3e-05	-3e-05	0	-2e-05	-2e-05	1
2233	-1e-05	-2e-05	-9e-05	-3e-05	-3e-05	0	-2e-05	-2e-05	1
2234	-1e-05	-2e-05	-9e-05	-3e-05	-3e-05	0	-2e-05	-2e-05	1
2235	-1e-05	-2e-05	-9e-05	-3e-05	-3e-05	0	-2e-05	-2e-05	1
2236	0	2e-05	7e-05	3e-05	0	3e-05	-1e-05	0	1
2238	-2e-05	-3e-05	-5e-05	-1e-05	-3e-05	-2e-05	-2e-05	0	1
2239	-2e-05	-3e-05	-5e-05	-1e-05	-3e-05	-2e-05	-2e-05	0	1
2240	-2e-05	-3e-05	-5e-05	-1e-05	-3e-05	-2e-05	-2e-05	0	1
2241	-2e-05	-3e-05	-5e-05	-1e-05	-3e-05	-2e-05	-2e-05	0	1
2242	-2e-05	-3e-05	-5e-05	-1e-05	-3e-05	-2e-05	-2e-05	0	1
2243	-2e-05	-3e-05	-5e-05	-1e-05	-3e-05	-2e-05	-2e-05	0	1
2244	0	-2e-05	0	1e-05	3e-05	3e-05	0	-2e-05	1
2245	-1e-05	-2e-05	0	-3e-05	-5e-05	0	-1e-05	-1e-05	1
2246	-1e-05	-2e-05	0	-3e-05	-5e-05	0	-1e-05	-1e-05	1
2247	-1e-05	-2e-05	0	-3e-05	-5e-05	0	-1e-05	-1e-05	1
2248	-1e-05	-2e-05	0	-3e-05	-5e-05	0	-1e-05	-1e-05	1
2249	-1e-05	-2e-05	0	-3e-05	-5e-05	0	-1e-05	-1e-05	1
2250	-1e-05	-2e-05	0	-3e-05	-5e-05	0	-1e-05	-1e-05	1
2251	-1e-05	-2e-05	0	-3e-05	-5e-05	0	-1e-05	-1e-05	1
2252	-1e-05	-2e-05	0	-3e-05	-5e-05	0	-1e-05	-1e-05	1
2253	-1e-05	-2e-05	0	-3e-05	-5e-05	0	-1e-05	-1e-05	1
2254	-1e-05	-2e-05	0	-3e-05	-5e-05	0	-1e-05	-1e-05	1
2255	-1e-05	-2e-05	0	-3e-05	-5e-05	0	-1e-05	-1e-05	1
2256	-1e-05	-2e-05	0	-3e-05	-5e-05	0	-1e-05	-1e-05	1
2257	-1e-05	-2e-05	0	-3e-05	-5e-05	0	-1e-05	-1e-05	1
2258	-1e-05	-2e-05	0	-3e-05	-5e-05	0	-1e-05	-1e-05	1
2259	0	-2e-05	0	3e-05	0	-1e-05	-2e-05	-1e-05	1
2260	0	-2e-05	0	3e-05	0	-1e-05	-2e-05	-1e-05	1
2261	0	-2e-05	0	3e-05	0	-1e-05	-2e-05	-1e-05	1
2262	0	-2e-05	0	3e-05	0	-1e-05	-2e-05	-1e-05	1
2263	0	-2e-05	0	3e-05	0	-1e-05	-2e-05	-1e-05	1
2264	0	-2e-05	0	3e-05	0	-1e-05	-2e-05	-1e-05	1
2265	0	-2e-05	0	3e-05	0	-1e-05	-2e-05	-1e-05	1
2266	-2e-05	0	1e-05	5e-05	0	4e-05	-1e-05	-1e-05	1
2267	-2e-05	0	1e-05	5e-05	0	4e-05	-1e-05	-1e-05	1
2268	-2e-05	0	1e-05	5e-05	0	4e-05	-1e-05	-1e-05	1
2269	-2e-05	0	1e-05	5e-05	0	4e-05	-1e-05	-1e-05	1
2270	-2e-05	0	1e-05	5e-05	0	4e-05	-1e-05	-1e-05	1
2271	-2e-05	0	1e-05	5e-05	0	4e-05	-1e-05	-1e-05	1
2272	-2e-05	0	1e-05	5e-05	0	4e-05	-1e-05	-1e-05	1
2273	-2e-05	0	1e-05	5e-05	0	4e-05	-1e-05	-1e-05	1
2274	-2e-05	0	1e-05	5e-05	0	4e-05	-1e-05	-1e-05	1
2275	-2e-05	0	1e-05	5e-05	0	4e-05	-1e-05	-1e-05	1
2276	-2e-05	0	1e-05	5e-05	0	4e-05	-1e-05	-1e-05	1
2277	-2e-05	0	1e-05	5e-05	0	4e-05	-1e-05	-1e-05	1
2278	-2e-05	0	1e-05	5e-05	0	4e-05	-1e-05	-1e-05	1
2279	-2e-05	0	1e-05	5e-05	0	4e-05	-1e-05	-1e-05	1
2280	-2e-05	0	1e-05	5e-05	0	4e-05	-1e-05	-1e-05	1
2281	-2e-05	0	1e-05	5e-05	0	4e-05	-1e-05	-1e-05	1
2282	0	1e-05	-4e-05	-5e-05	1e-05	-5e-05	-3e-05	-2e-05	1
2283	0	1e-05	-4e-05	-5e-05	1e-05	-5e-05	-3e-05	-2e-05	1
2284	-2e-05	-3e-05	-1e-05	-2e-05	4e-05	-2e-05	-2e-05	-1e-05	1
2285	-2e-05	-3e-05	-1e-05	-2e-05	4e-05	-2e-05	-2e-05	-1e-05	1
2286	-2e-05	-3e-05	-1e-05	-2e-05	4e-05	-2e-05	-2e-05	-1e-05	1
2288	-2e-05	-3e-05	-1e-05	-2e-05	4e-05	-2e-05	-2e-05	-1e-05	1
2289	-2e-05	-3e-05	-1e-05	-2e-05	4e-05	-2e-05	-2e-05	-1e-05	1
2290	-2e-05	-3e-05	-1e-05	-2e-05	4e-05	-2e-05	-2e-05	-1e-05	1
2291	-2e-05	-3e-05	-1e-05	-2e-05	4e-05	-2e-05	-2e-05	-1e-05	1
2292	-2e-05	-3e-05	-1e-05	-2e-05	4e-05	-2e-05	-2e-05	-1e-05	1
2293	-2e-05	-3e-05	-1e-05	-2e-05	4e-05	-2e-05	-2e-05	-1e-05	1
2294	-2e-05	-3e-05	-1e-05	-2e-05	4e-05	-2e-05	-2e-05	-1e-05	1
2295	-2e-05	-3e-05	-1e-05	-2e-05	4e-05	-2e-05	-2e-05	-1e-05	1
2296	-2e-05	-3e-05	-1e-05	-2e-05	4e-05	-2e-05	-2e-05	-1e-05	1
2297	-2e-05	-3e-05	-1e-05	-2e-05	4e-05	-2e-05	-2e-05	-1e-05	1
2298	-2e-05	-3e-05	-1e-05	-2e-05	4e-05	-2e-05	-2e-05	-1e-05	1
2299	-2e-05	-3e-05	-1e-05	-2e-05	4e-05	-2e-05	-2e-05	-1e-05	1
2300	-2e-05	-3e-05	-1e-05	-2e-05	4e-05	-2e-05	-2e-05	-1e-05	1
2301	-2e-05	-3e-05	-1e-05	-2e-05	4e-05	-2e-05	-2e-05	-1e-05	1
2302	-2e-05	-3e-05	-1e-05	-2e-05	4e-05	-2e-05	-2e-05	-1e-05	1
2303	-2e-05	-3e-05	-1e-05	-2e-05	4e-05	-2e-05	-2e-05	-1e-05	1
2304	0	-1e-05	1e-05	2e-05	-4e-05	-5e-05	-2e-05	0	1
2305	-1e-05	-2e-05	-7e-05	-3e-05	-1e-05	2e-05	1e-05	-1e-05	1
2306	-1e-05	-2e-05	-7e-05	-3e-05	-1e-05	2e-05	1e-05	-1e-05	1
2307	-1e-05	-2e-05	-7e-05	-3e-05	-1e-05	2e-05	1e-05	-1e-05	1
2308	-1e-05	-2e-05	-7e-05	-3e-05	-1e-05	2e-05	1e-05	-1e-05	1
2309	-1e-05	-2e-05	-7e-05	-3e-05	-1e-05	2e-05	1e-05	-1e-05	1
2310	-1e-05	-2e-05	-7e-05	-3e-05	-1e-05	2e-05	1e-05	-1e-05	1
2311	-1e-05	-2e-05	-7e-05	-3e-05	-1e-05	2e-05	1e-05	-1e-05	1
2312	-1e-05	-2e-05	-7e-05	-3e-05	-1e-05	2e-05	1e-05	-1e-05	1
2313	-1e-05	-2e-05	-7e-05	-3e-05	-1e-05	2e-05	1e-05	-1e-05	1
2314	-1e-05	-2e-05	-7e-05	-3e-05	-1e-05	2e-05	1e-05	-1e-05	1
2315	-1e-05	-2e-05	-7e-05	-3e-05	-1e-05	2e-05	1e-05	-1e-05	1
2316	-1e-05	-2e-05	-7e-05	-3e-05	-1e-05	2e-05	1e-05	-1e-05	1
2317	-1e-05	-2e-05	-7e-05	-3e-05	-1e-05	2e-05	1e-05	-1e-05	1
2318	-1e-05	-2e-05	-7e-05	-3e-05	-1e-05	2e-05	1e-05	-1e-05	1
2319	-1e-05	-2e-05	-7e-05	-3e-05	-1e-05	2e-05	1e-05	-1e-05	1
2320	0	-1e-05	1e-05	-4e-05	-3e-05	4e-05	1e-05	1e-05	1
2321	0	-1e-05	1e-05	-4e-05	-3e-05	4e-05	1e-05	1e-05	1
2322	0	-1e-05	1e-05	-4e-05	-3e-05	4e-05	1e-05	1e-05	1
2323	0	-1e-05	1e-05	-4e-05	-3e-05	4e-05	1e-05	1e-05	1
2324	0	-1e-05	1e-05	-4e-05	-3e-05	4e-05	1e-05	1e-05	1
2325	-1e-05	1e-05	-1e-05	-0.0001	0	0	2e-05	-1e-05	1
2326	-1e-05	1e-05	-1e-05	-0.0001	0	0	2e-05	-1e-05	1
2327	-1e-05	1e-05	-1e-05	-0.0001	0	0	2e-05	-1e-05	1
2328	-1e-05	1e-05	-1e-05	-0.0001	0	0	2e-05	-1e-05	1
2329	-1e-05	1e-05	-1e-05	-0.0001	0	0	2e-05	-1e-05	1
2330	-1e-05	1e-05	-1e-05	-0.0001	0	0	2e-05	-1e-05	1
2332	-1e-05	1e-05	-1e-05	-0.0001	0	0	2e-05	-1e-05	1
2333	-1e-05	1e-05	-1e-05	-0.0001	0	0	2e-05	-1e-05	1
2334	-1e-05	1e-05	-1e-05	-0.0001	0	0	2e-05	-1e-05	1
2335	-1e-05	1e-05	-1e-05	-0.0001	0	0	2e-05	-1e-05	1
2336	-1e-05	1e-05	-1e-05	-0.0001	0	0	2e-05	-1e-05	1
2338	-1e-05	1e-05	-1e-05	-0.0001	0	0	2e-05	-1e-05	1
2339	-1e-05	1e-05	-1e-05	-0.0001	0	0	2e-05	-1e-05	1
2340	-1e-05	1e-05	-1e-05	-0.0001	0	0	2e-05	-1e-05	1
2341	0	-1e-05	-4e-05	-0.00015	-2e-05	-3e-05	0	-2e-05	1
2342	0	-3e-05	-1e-05	2e-05	-7e-05	-6e-05	-1e-05	-1e-05	1
2343	0	-3e-05	-1e-05	2e-05	-7e-05	-6e-05	-1e-05	-1e-05	1
2344	0	-3e-05	-1e-05	2e-05	-7e-05	-6e-05	-1e-05	-1e-05	1
2345	0	-3e-05	-1e-05	2e-05	-7e-05	-6e-05	-1e-05	-1e-05	1
2346	0	-3e-05	-1e-05	2e-05	-7e-05	-6e-05	-1e-05	-1e-05	1
2347	0	-3e-05	-1e-05	2e-05	-7e-05	-6e-05	-1e-05	-1e-05	1
2348	0	-3e-05	-1e-05	2e-05	-7e-05	-6e-05	-1e-05	-1e-05	1
2349	0	-3e-05	-1e-05	2e-05	-7e-05	-6e-05	-1e-05	-1e-05	1
2350	0	-3e-05	-1e-05	2e-05	-7e-05	-6e-05	-1e-05	-1e-05	1
2351	0	-3e-05	-1e-05	2e-05	-7e-05	-6e-05	-1e-05	-1e-05	1
2352	0	-3e-05	-1e-05	2e-05	-7e-05	-6e-05	-1e-05	-1e-05	1
2353	0	-3e-05	-1e-05	2e-05	-7e-05	-6e-05	-1e-05	-1e-05	1
2354	0	-3e-05	-1e-05	2e-05	-7e-05	-6e-05	-1e-05	-1e-05	1
2355	0	-3e-05	-1e-05	2e-05	-7e-05	-6e-05	-1e-05	-1e-05	1
2356	0	-3e-05	-1e-05	2e-05	-7e-05	-6e-05	-1e-05	-1e-05	1
2357	0	-3e-05	-1e-05	2e-05	-7e-05	-6e-05	-1e-05	-1e-05	1
2358	0	-3e-05	-1e-05	2e-05	-7e-05	-6e-05	-1e-05	-1e-05	1
2359	0	-3e-05	-1e-05	2e-05	-7e-05	-6e-05	-1e-05	-1e-05	1
2360	0	-3e-05	-1e-05	2e-05	-7e-05	-6e-05	-1e-05	-1e-05	1
2361	0	-3e-05	-1e-05	2e-05	-7e-05	-6e-05	-1e-05	-1e-05	1
2362	0	-3e-05	-1e-05	2e-05	-7e-05	-6e-05	-1e-05	-1e-05	1
2363	0	-3e-05	-1e-05	2e-05	-7e-05	-6e-05	-1e-05	-1e-05	1
2364	1e-05	-1e-05	-3e-05	-4e-05	-2e-05	-4e-05	-1e-05	-1e-05	1
2365	1e-05	-2e-05	-2e-05	-4e-05	0	1e-05	-2e-05	0	1
2366	1e-05	-2e-05	-2e-05	-4e-05	0	1e-05	-2e-05	0	1
2367	1e-05	-2e-05	-2e-05	-4e-05	0	1e-05	-2e-05	0	1
2368	1e-05	-2e-05	-2e-05	-4e-05	0	1e-05	-2e-05	0	1
2369	1e-05	-2e-05	-2e-05	-4e-05	0	1e-05	-2e-05	0	1
2370	1e-05	-2e-05	-2e-05	-4e-05	0	1e-05	-2e-05	0	1
2371	1e-05	-2e-05	-2e-05	-4e-05	0	1e-05	-2e-05	0	1
2372	1e-05	-2e-05	-2e-05	-4e-05	0	1e-05	-2e-05	0	1
2373	1e-05	-2e-05	-2e-05	-4e-05	0	1e-05	-2e-05	0	1
2374	1e-05	-2e-05	-2e-05	-4e-05	0	1e-05	-2e-05	0	1
2375	1e-05	-2e-05	-2e-05	-4e-05	0	1e-05	-2e-05	0	1
2376	1e-05	-2e-05	-2e-05	-4e-05	0	1e-05	-2e-05	0	1
2377	1e-05	-2e-05	-2e-05	-4e-05	0	1e-05	-2e-05	0	1
2378	1e-05	-2e-05	-2e-05	-4e-05	0	1e-05	-2e-05	0	1
2379	1e-05	-2e-05	-2e-05	-4e-05	0	1e-05	-2e-05	0	1
2380	-3e-05	-2e-05	2e-05	3e-05	1e-05	2e-05	1e-05	0	1
2381	-3e-05	-2e-05	2e-05	3e-05	1e-05	2e-05	1e-05	0	1
2382	-3e-05	-2e-05	2e-05	3e-05	1e-05	2e-05	1e-05	0	1
2383	-3e-05	-2e-05	2e-05	3e-05	1e-05	2e-05	1e-05	0	1
2384	-3e-05	-2e-05	2e-05	3e-05	1e-05	2e-05	1e-05	0	1
2385	0	0	0	-9e-05	-2e-05	-2e-05	-2e-05	-3e-05	1
2386	-3e-05	-1e-05	-4e-05	0.00012	2e-05	5e-05	-3e-05	0	1
2388	-3e-05	-1e-05	-4e-05	0.00012	2e-05	5e-05	-3e-05	0	1
2389	-3e-05	-1e-05	-4e-05	0.00012	2e-05	5e-05	-3e-05	0	1
2390	-3e-05	-1e-05	-4e-05	0.00012	2e-05	5e-05	-3e-05	0	1
2391	-3e-05	-1e-05	-4e-05	0.00012	2e-05	5e-05	-3e-05	0	1
2392	-3e-05	-1e-05	-4e-05	0.00012	2e-05	5e-05	-3e-05	0	1
2393	-3e-05	-1e-05	-4e-05	0.00012	2e-05	5e-05	-3e-05	0	1
2394	-3e-05	-1e-05	-4e-05	0.00012	2e-05	5e-05	-3e-05	0	1
2395	-3e-05	-1e-05	-4e-05	0.00012	2e-05	5e-05	-3e-05	0	1
2396	-3e-05	-1e-05	-4e-05	0.00012	2e-05	5e-05	-3e-05	0	1
2397	-3e-05	-1e-05	-4e-05	0.00012	2e-05	5e-05	-3e-05	0	1
2398	-3e-05	-1e-05	-4e-05	0.00012	2e-05	5e-05	-3e-05	0	1
2399	-3e-05	-1e-05	-4e-05	0.00012	2e-05	5e-05	-3e-05	0	1
2400	-3e-05	-1e-05	-4e-05	0.00012	2e-05	5e-05	-3e-05	0	1
2401	-3e-05	-1e-05	-4e-05	0.00012	2e-05	5e-05	-3e-05	0	1
2402	-3e-05	-1e-05	-4e-05	0.00012	2e-05	5e-05	-3e-05	0	1
2403	1e-05	1e-05	3e-05	1e-05	-3e-05	-0.0001	0	-1e-05	1
2404	-1e-05	0	-4e-05	-4e-05	-1e-05	-2e-05	-1e-05	-2e-05	1
2405	-1e-05	0	-4e-05	-4e-05	-1e-05	-2e-05	-1e-05	-2e-05	1
2406	-1e-05	0	-4e-05	-4e-05	-1e-05	-2e-05	-1e-05	-2e-05	1
2407	-1e-05	0	-4e-05	-4e-05	-1e-05	-2e-05	-1e-05	-2e-05	1
2408	-1e-05	0	-4e-05	-4e-05	-1e-05	-2e-05	-1e-05	-2e-05	1
2409	-1e-05	0	-4e-05	-4e-05	-1e-05	-2e-05	-1e-05	-2e-05	1
2410	-1e-05	0	-4e-05	-4e-05	-1e-05	-2e-05	-1e-05	-2e-05	1
2411	-1e-05	0	-4e-05	-4e-05	-1e-05	-2e-05	-1e-05	-2e-05	1
2412	-1e-05	0	-4e-05	-4e-05	-1e-05	-2e-05	-1e-05	-2e-05	1
2413	-1e-05	0	-4e-05	-4e-05	-1e-05	-2e-05	-1e-05	-2e-05	1
2414	-1e-05	0	-4e-05	-4e-05	-1e-05	-2e-05	-1e-05	-2e-05	1
2415	-1e-05	0	-4e-05	-4e-05	-1e-05	-2e-05	-1e-05	-2e-05	1
2416	-1e-05	0	-4e-05	-4e-05	-1e-05	-2e-05	-1e-05	-2e-05	1
2417	-1e-05	0	-4e-05	-4e-05	-1e-05	-2e-05	-1e-05	-2e-05	1
2418	-1e-05	0	-4e-05	-4e-05	-1e-05	-2e-05	-1e-05	-2e-05	1
2419	-1e-05	0	-4e-05	-4e-05	-1e-05	-2e-05	-1e-05	-2e-05	1
2420	-1e-05	0	-4e-05	-4e-05	-1e-05	-2e-05	-1e-05	-2e-05	1
2421	-1e-05	0	-4e-05	-4e-05	-1e-05	-2e-05	-1e-05	-2e-05	1
2422	-1e-05	0	-4e-05	-4e-05	-1e-05	-2e-05	-1e-05	-2e-05	1
2423	-1e-05	0	-4e-05	-4e-05	-1e-05	-2e-05	-1e-05	-2e-05	1
2424	-1e-05	-2e-05	-8e-05	-8e-05	-3e-05	-3e-05	0	-1e-05	1
2425	-3e-05	-2e-05	3e-05	2e-05	2e-05	-1e-05	-3e-05	-2e-05	1
2426	-3e-05	-2e-05	3e-05	2e-05	2e-05	-1e-05	-3e-05	-2e-05	1
2427	-3e-05	-2e-05	3e-05	2e-05	2e-05	-1e-05	-3e-05	-2e-05	1
2428	-3e-05	-2e-05	3e-05	2e-05	2e-05	-1e-05	-3e-05	-2e-05	1
2429	-3e-05	-2e-05	3e-05	2e-05	2e-05	-1e-05	-3e-05	-2e-05	1
2430	-3e-05	-2e-05	3e-05	2e-05	2e-05	-1e-05	-3e-05	-2e-05	1
2431	-3e-05	-2e-05	3e-05	2e-05	2e-05	-1e-05	-3e-05	-2e-05	1
2432	-3e-05	-2e-05	3e-05	2e-05	2e-05	-1e-05	-3e-05	-2e-05	1
2433	-3e-05	-2e-05	3e-05	2e-05	2e-05	-1e-05	-3e-05	-2e-05	1
2434	-3e-05	-2e-05	3e-05	2e-05	2e-05	-1e-05	-3e-05	-2e-05	1
2435	-3e-05	-2e-05	3e-05	2e-05	2e-05	-1e-05	-3e-05	-2e-05	1
2436	-3e-05	-2e-05	3e-05	2e-05	2e-05	-1e-05	-3e-05	-2e-05	1
2438	-3e-05	-2e-05	3e-05	2e-05	2e-05	-1e-05	-3e-05	-2e-05	1
2439	-3e-05	-2e-05	3e-05	2e-05	2e-05	-1e-05	-3e-05	-2e-05	1
2440	-3e-05	-2e-05	3e-05	2e-05	2e-05	-1e-05	-3e-05	-2e-05	1
2441	-3e-05	-2e-05	3e-05	2e-05	2e-05	-1e-05	-3e-05	-2e-05	1
2442	-3e-05	-2e-05	3e-05	2e-05	2e-05	-1e-05	-3e-05	-2e-05	1
2443	-3e-05	-2e-05	3e-05	2e-05	2e-05	-1e-05	-3e-05	-2e-05	1
2444	-3e-05	-2e-05	3e-05	2e-05	2e-05	-1e-05	-3e-05	-2e-05	1
2445	-3e-05	-2e-05	3e-05	2e-05	2e-05	-1e-05	-3e-05	-2e-05	1
2446	2e-05	1e-05	3e-05	8e-05	0	-4e-05	0	0	1
2447	-2e-05	-2e-05	-5e-05	-9e-05	-7e-05	-3e-05	-1e-05	-1e-05	1
2448	-2e-05	-2e-05	-5e-05	-9e-05	-7e-05	-3e-05	-1e-05	-1e-05	1
2449	-2e-05	-2e-05	-5e-05	-9e-05	-7e-05	-3e-05	-1e-05	-1e-05	1
2450	-2e-05	-2e-05	-5e-05	-9e-05	-7e-05	-3e-05	-1e-05	-1e-05	1
2451	-2e-05	-2e-05	-5e-05	-9e-05	-7e-05	-3e-05	-1e-05	-1e-05	1
2452	-2e-05	-2e-05	-5e-05	-9e-05	-7e-05	-3e-05	-1e-05	-1e-05	1
2453	-2e-05	-2e-05	-5e-05	-9e-05	-7e-05	-3e-05	-1e-05	-1e-05	1
2454	-2e-05	-2e-05	-5e-05	-9e-05	-7e-05	-3e-05	-1e-05	-1e-05	1
2455	-2e-05	-2e-05	-5e-05	-9e-05	-7e-05	-3e-05	-1e-05	-1e-05	1
2456	-2e-05	-2e-05	-5e-05	-9e-05	-7e-05	-3e-05	-1e-05	-1e-05	1
2457	-2e-05	-2e-05	-5e-05	-9e-05	-7e-05	-3e-05	-1e-05	-1e-05	1
2458	-2e-05	-2e-05	-5e-05	-9e-05	-7e-05	-3e-05	-1e-05	-1e-05	1
2459	-2e-05	-2e-05	-5e-05	-9e-05	-7e-05	-3e-05	-1e-05	-1e-05	1
2460	-2e-05	-1e-05	0	-3e-05	4e-05	3e-05	-3e-05	-1e-05	1
2461	0	-1e-05	0	7e-05	1e-05	7e-05	-1e-05	-1e-05	1
2462	0	-1e-05	0	7e-05	1e-05	7e-05	-1e-05	-1e-05	1
2463	0	-1e-05	0	7e-05	1e-05	7e-05	-1e-05	-1e-05	1
2464	0	-1e-05	0	7e-05	1e-05	7e-05	-1e-05	-1e-05	1
2465	0	-1e-05	0	7e-05	1e-05	7e-05	-1e-05	-1e-05	1
2466	0	-1e-05	0	7e-05	1e-05	7e-05	-1e-05	-1e-05	1
2467	0	-1e-05	0	7e-05	1e-05	7e-05	-1e-05	-1e-05	1
2468	-1e-05	-4e-05	-0.00011	-0.00011	-9e-05	-0.0001	-3e-05	2e-05	1
2469	-1e-05	-4e-05	-0.00011	-0.00011	-9e-05	-0.0001	-3e-05	2e-05	1
2470	-1e-05	-4e-05	-0.00011	-0.00011	-9e-05	-0.0001	-3e-05	2e-05	1
2471	-1e-05	-4e-05	-0.00011	-0.00011	-9e-05	-0.0001	-3e-05	2e-05	1
2472	-1e-05	-4e-05	-0.00011	-0.00011	-9e-05	-0.0001	-3e-05	2e-05	1
2473	-1e-05	-4e-05	-0.00011	-0.00011	-9e-05	-0.0001	-3e-05	2e-05	1
2474	-1e-05	-4e-05	-0.00011	-0.00011	-9e-05	-0.0001	-3e-05	2e-05	1
2475	-1e-05	-4e-05	-0.00011	-0.00011	-9e-05	-0.0001	-3e-05	2e-05	1
2476	-1e-05	-4e-05	-0.00011	-0.00011	-9e-05	-0.0001	-3e-05	2e-05	1
2477	-1e-05	-4e-05	-0.00011	-0.00011	-9e-05	-0.0001	-3e-05	2e-05	1
2478	-1e-05	-4e-05	-0.00011	-0.00011	-9e-05	-0.0001	-3e-05	2e-05	1
2479	-1e-05	-4e-05	-0.00011	-0.00011	-9e-05	-0.0001	-3e-05	2e-05	1
2480	-1e-05	-4e-05	-0.00011	-0.00011	-9e-05	-0.0001	-3e-05	2e-05	1
2481	-1e-05	-4e-05	-0.00011	-0.00011	-9e-05	-0.0001	-3e-05	2e-05	1
2482	-1e-05	-4e-05	-0.00011	-0.00011	-9e-05	-0.0001	-3e-05	2e-05	1
2483	-1e-05	-4e-05	-0.00011	-0.00011	-9e-05	-0.0001	-3e-05	2e-05	1
2484	-1e-05	-1e-05	0	1e-05	2e-05	-9e-05	-2e-05	-1e-05	1
2485	0	1e-05	5e-05	5e-05	3e-05	0.00018	1e-05	0	1
2486	0	1e-05	5e-05	5e-05	3e-05	0.00018	1e-05	0	1
2488	0	1e-05	5e-05	5e-05	3e-05	0.00018	1e-05	0	1
2489	0	1e-05	5e-05	5e-05	3e-05	0.00018	1e-05	0	1
2490	0	1e-05	5e-05	5e-05	3e-05	0.00018	1e-05	0	1
2491	0	1e-05	5e-05	5e-05	3e-05	0.00018	1e-05	0	1
2492	0	1e-05	5e-05	5e-05	3e-05	0.00018	1e-05	0	1
2493	0	1e-05	5e-05	5e-05	3e-05	0.00018	1e-05	0	1
2494	0	1e-05	5e-05	5e-05	3e-05	0.00018	1e-05	0	1
2495	0	1e-05	5e-05	5e-05	3e-05	0.00018	1e-05	0	1
2496	0	1e-05	5e-05	5e-05	3e-05	0.00018	1e-05	0	1
2497	0	1e-05	5e-05	5e-05	3e-05	0.00018	1e-05	0	1
2498	0	1e-05	5e-05	5e-05	3e-05	0.00018	1e-05	0	1
2499	0	1e-05	5e-05	5e-05	3e-05	0.00018	1e-05	0	1
2500	-2e-05	-3e-05	-5e-05	-0.00016	2e-05	4e-05	-1e-05	-2e-05	1
2501	-2e-05	-3e-05	-5e-05	-0.00016	2e-05	4e-05	-1e-05	-2e-05	1
2502	-2e-05	-3e-05	-5e-05	-0.00016	2e-05	4e-05	-1e-05	-2e-05	1
2503	-2e-05	-3e-05	-5e-05	-0.00016	2e-05	4e-05	-1e-05	-2e-05	1
2504	-2e-05	-3e-05	-5e-05	-0.00016	2e-05	4e-05	-1e-05	-2e-05	1
2505	-2e-05	-3e-05	-5e-05	-0.00016	2e-05	4e-05	-1e-05	-2e-05	1
2506	1e-05	-1e-05	2e-05	-5e-05	3e-05	7e-05	-1e-05	0	1
2507	1e-05	-1e-05	2e-05	-5e-05	3e-05	7e-05	-1e-05	0	1
2508	1e-05	-1e-05	2e-05	-5e-05	3e-05	7e-05	-1e-05	0	1
2509	1e-05	-1e-05	2e-05	-5e-05	3e-05	7e-05	-1e-05	0	1
2510	1e-05	-1e-05	2e-05	-5e-05	3e-05	7e-05	-1e-05	0	1
2511	1e-05	-1e-05	2e-05	-5e-05	3e-05	7e-05	-1e-05	0	1
2512	1e-05	-1e-05	2e-05	-5e-05	3e-05	7e-05	-1e-05	0	1
2513	1e-05	-1e-05	2e-05	-5e-05	3e-05	7e-05	-1e-05	0	1
2514	1e-05	-1e-05	2e-05	-5e-05	3e-05	7e-05	-1e-05	0	1
2515	1e-05	-1e-05	2e-05	-5e-05	3e-05	7e-05	-1e-05	0	1
2516	1e-05	-1e-05	2e-05	-5e-05	3e-05	7e-05	-1e-05	0	1
2518	1e-05	-1e-05	2e-05	-5e-05	3e-05	7e-05	-1e-05	0	1
2519	1e-05	-1e-05	2e-05	-5e-05	3e-05	7e-05	-1e-05	0	1
2520	1e-05	-1e-05	2e-05	-5e-05	3e-05	7e-05	-1e-05	0	1
2521	0	-3e-05	-1e-05	-1e-05	-3e-05	-3e-05	-1e-05	0	1
2522	0	-3e-05	-1e-05	-1e-05	-3e-05	-3e-05	-1e-05	0	1
2523	0	-3e-05	-1e-05	-1e-05	-3e-05	-3e-05	-1e-05	0	1
2524	0	-3e-05	-1e-05	-1e-05	-3e-05	-3e-05	-1e-05	0	1
2525	0	-3e-05	-1e-05	-1e-05	-3e-05	-3e-05	-1e-05	0	1
2526	0	-3e-05	-1e-05	-1e-05	-3e-05	-3e-05	-1e-05	0	1
2527	0	-3e-05	-1e-05	-1e-05	-3e-05	-3e-05	-1e-05	0	1
2528	0	2e-05	3e-05	-3e-05	1e-05	6e-05	-2e-05	-1e-05	1
2529	0	2e-05	3e-05	-3e-05	1e-05	6e-05	-2e-05	-1e-05	1
2530	0	2e-05	3e-05	-3e-05	1e-05	6e-05	-2e-05	-1e-05	1
2531	0	2e-05	3e-05	-3e-05	1e-05	6e-05	-2e-05	-1e-05	1
2532	0	2e-05	3e-05	-3e-05	1e-05	6e-05	-2e-05	-1e-05	1
2533	0	2e-05	3e-05	-3e-05	1e-05	6e-05	-2e-05	-1e-05	1
2534	0	2e-05	3e-05	-3e-05	1e-05	6e-05	-2e-05	-1e-05	1
2535	0	2e-05	3e-05	-3e-05	1e-05	6e-05	-2e-05	-1e-05	1
2536	0	2e-05	3e-05	-3e-05	1e-05	6e-05	-2e-05	-1e-05	1
2538	0	2e-05	3e-05	-3e-05	1e-05	6e-05	-2e-05	-1e-05	1
2539	0	2e-05	3e-05	-3e-05	1e-05	6e-05	-2e-05	-1e-05	1
2540	0	2e-05	3e-05	-3e-05	1e-05	6e-05	-2e-05	-1e-05	1
2541	0	2e-05	3e-05	-3e-05	1e-05	6e-05	-2e-05	-1e-05	1
2542	0	2e-05	3e-05	-3e-05	1e-05	6e-05	-2e-05	-1e-05	1
2543	0	2e-05	3e-05	-3e-05	1e-05	6e-05	-2e-05	-1e-05	1
2544	-1e-05	-3e-05	1e-05	2e-05	-1e-05	-8e-05	-1e-05	-2e-05	1
2545	-1e-05	-3e-05	1e-05	2e-05	-1e-05	-8e-05	-1e-05	-2e-05	1
2546	-1e-05	-3e-05	1e-05	2e-05	-1e-05	-8e-05	-1e-05	-2e-05	1
2547	-1e-05	-3e-05	1e-05	2e-05	-1e-05	-8e-05	-1e-05	-2e-05	1
2548	-1e-05	-3e-05	1e-05	2e-05	-1e-05	-8e-05	-1e-05	-2e-05	1
2549	-1e-05	-3e-05	1e-05	2e-05	-1e-05	-8e-05	-1e-05	-2e-05	1
2550	-1e-05	-3e-05	1e-05	2e-05	-1e-05	-8e-05	-1e-05	-2e-05	1
2551	-1e-05	-3e-05	1e-05	2e-05	-1e-05	-8e-05	-1e-05	-2e-05	1
2552	-1e-05	-3e-05	1e-05	2e-05	-1e-05	-8e-05	-1e-05	-2e-05	1
2553	-1e-05	-3e-05	1e-05	2e-05	-1e-05	-8e-05	-1e-05	-2e-05	1
2554	-1e-05	-3e-05	1e-05	2e-05	-1e-05	-8e-05	-1e-05	-2e-05	1
2555	-1e-05	-3e-05	1e-05	2e-05	-1e-05	-8e-05	-1e-05	-2e-05	1
2556	-1e-05	-3e-05	1e-05	2e-05	-1e-05	-8e-05	-1e-05	-2e-05	1
2557	-1e-05	-3e-05	1e-05	2e-05	-1e-05	-8e-05	-1e-05	-2e-05	1
2558	-1e-05	-3e-05	1e-05	2e-05	-1e-05	-8e-05	-1e-05	-2e-05	1
2559	-1e-05	-3e-05	1e-05	2e-05	-1e-05	-8e-05	-1e-05	-2e-05	1
2560	1e-05	4e-05	3e-05	-5e-05	2e-05	2e-05	-1e-05	-1e-05	1
2561	1e-05	4e-05	3e-05	-5e-05	2e-05	2e-05	-1e-05	-1e-05	1
2562	1e-05	4e-05	3e-05	-5e-05	2e-05	2e-05	-1e-05	-1e-05	1
2563	1e-05	4e-05	3e-05	-5e-05	2e-05	2e-05	-1e-05	-1e-05	1
2564	-2e-05	-4e-05	-6e-05	1e-05	-5e-05	-1e-05	-1e-05	-1e-05	1
2566	-1e-05	-1e-05	2e-05	0.0001	-1e-05	-0.0001	-1e-05	-1e-05	1
2567	-1e-05	-1e-05	2e-05	0.0001	-1e-05	-0.0001	-1e-05	-1e-05	1
2568	-1e-05	-1e-05	2e-05	0.0001	-1e-05	-0.0001	-1e-05	-1e-05	1
2569	-1e-05	-1e-05	2e-05	0.0001	-1e-05	-0.0001	-1e-05	-1e-05	1
2570	-1e-05	-1e-05	2e-05	0.0001	-1e-05	-0.0001	-1e-05	-1e-05	1
2571	-1e-05	-1e-05	2e-05	0.0001	-1e-05	-0.0001	-1e-05	-1e-05	1
2572	-1e-05	-1e-05	2e-05	0.0001	-1e-05	-0.0001	-1e-05	-1e-05	1
2573	-1e-05	-1e-05	2e-05	0.0001	-1e-05	-0.0001	-1e-05	-1e-05	1
2574	-1e-05	-1e-05	2e-05	0.0001	-1e-05	-0.0001	-1e-05	-1e-05	1
2575	-1e-05	-1e-05	2e-05	0.0001	-1e-05	-0.0001	-1e-05	-1e-05	1
2576	-1e-05	-1e-05	2e-05	0.0001	-1e-05	-0.0001	-1e-05	-1e-05	1
2577	-1e-05	-1e-05	2e-05	0.0001	-1e-05	-0.0001	-1e-05	-1e-05	1
2578	-1e-05	-1e-05	2e-05	0.0001	-1e-05	-0.0001	-1e-05	-1e-05	1
2579	-1e-05	-1e-05	2e-05	0.0001	-1e-05	-0.0001	-1e-05	-1e-05	1
2580	-1e-05	-1e-05	2e-05	0.0001	-1e-05	-0.0001	-1e-05	-1e-05	1
2581	-1e-05	-1e-05	2e-05	0.0001	-1e-05	-0.0001	-1e-05	-1e-05	1
2582	-1e-05	-1e-05	-5e-05	-0.0001	-2e-05	0.0001	1e-05	0	1
2583	-1e-05	-1e-05	-5e-05	-0.0001	-2e-05	0.0001	1e-05	0	1
2584	-1e-05	-1e-05	-5e-05	-0.0001	-2e-05	0.0001	1e-05	0	1
2585	-1e-05	-1e-05	-5e-05	-0.0001	-2e-05	0.0001	1e-05	0	1
2586	-1e-05	-1e-05	-5e-05	-0.0001	-2e-05	0.0001	1e-05	0	1
2588	0	0	-2e-05	-3e-05	1e-05	3e-05	0	-2e-05	1
2589	0	0	-2e-05	-3e-05	1e-05	3e-05	0	-2e-05	1
2590	0	0	-2e-05	-3e-05	1e-05	3e-05	0	-2e-05	1
2591	0	0	-2e-05	-3e-05	1e-05	3e-05	0	-2e-05	1
2592	0	0	-2e-05	-3e-05	1e-05	3e-05	0	-2e-05	1
2593	0	0	-2e-05	-3e-05	1e-05	3e-05	0	-2e-05	1
2594	0	0	-2e-05	-3e-05	1e-05	3e-05	0	-2e-05	1
2595	0	0	-2e-05	-3e-05	1e-05	3e-05	0	-2e-05	1
2596	0	0	-2e-05	-3e-05	1e-05	3e-05	0	-2e-05	1
2597	0	0	-2e-05	-3e-05	1e-05	3e-05	0	-2e-05	1
2598	0	0	-2e-05	-3e-05	1e-05	3e-05	0	-2e-05	1
2599	0	0	-2e-05	-3e-05	1e-05	3e-05	0	-2e-05	1
2600	0	0	-2e-05	-3e-05	1e-05	3e-05	0	-2e-05	1
2601	0	0	-2e-05	-3e-05	1e-05	3e-05	0	-2e-05	1
2602	0	0	-2e-05	-3e-05	1e-05	3e-05	0	-2e-05	1
2603	0	0	-2e-05	-3e-05	1e-05	3e-05	0	-2e-05	1
2604	0	-2e-05	1e-05	6e-05	-8e-05	0	0	-2e-05	1
2605	0	-2e-05	1e-05	6e-05	-8e-05	0	0	-2e-05	1
2606	0	-2e-05	1e-05	6e-05	-8e-05	0	0	-2e-05	1
2607	0	-2e-05	1e-05	6e-05	-8e-05	0	0	-2e-05	1
2608	0	-2e-05	1e-05	6e-05	-8e-05	0	0	-2e-05	1
2609	0	-2e-05	1e-05	6e-05	-8e-05	0	0	-2e-05	1
2610	0	-2e-05	1e-05	6e-05	-8e-05	0	0	-2e-05	1
2611	0	-2e-05	1e-05	6e-05	-8e-05	0	0	-2e-05	1
2612	0	-2e-05	1e-05	6e-05	-8e-05	0	0	-2e-05	1
2613	0	-2e-05	1e-05	6e-05	-8e-05	0	0	-2e-05	1
2614	0	-2e-05	1e-05	6e-05	-8e-05	0	0	-2e-05	1
2615	0	-2e-05	1e-05	6e-05	-8e-05	0	0	-2e-05	1
2616	0	-2e-05	1e-05	6e-05	-8e-05	0	0	-2e-05	1
2617	0	-2e-05	1e-05	6e-05	-8e-05	0	0	-2e-05	1
2618	0	-2e-05	1e-05	6e-05	-8e-05	0	0	-2e-05	1
2619	2e-05	-1e-05	-2e-05	-6e-05	-2e-05	-8e-05	-1e-05	-1e-05	1
2620	-1e-05	-2e-05	-2e-05	-6e-05	2e-05	3e-05	0	0	1
2621	-1e-05	-2e-05	-2e-05	-6e-05	2e-05	3e-05	0	0	1
2622	-1e-05	-2e-05	-2e-05	-6e-05	2e-05	3e-05	0	0	1
2623	-1e-05	-2e-05	-2e-05	-6e-05	2e-05	3e-05	0	0	1
2624	-1e-05	-2e-05	-2e-05	-6e-05	2e-05	3e-05	0	0	1
2625	-1e-05	-2e-05	-2e-05	-6e-05	2e-05	3e-05	0	0	1
2626	-2e-05	-1e-05	-3e-05	-2e-05	1e-05	-2e-05	-2e-05	-2e-05	1
2627	-2e-05	-1e-05	-3e-05	-2e-05	1e-05	-2e-05	-2e-05	-2e-05	1
2628	-2e-05	-1e-05	-3e-05	-2e-05	1e-05	-2e-05	-2e-05	-2e-05	1
2629	-2e-05	-1e-05	-3e-05	-2e-05	1e-05	-2e-05	-2e-05	-2e-05	1
2630	-2e-05	-1e-05	-3e-05	-2e-05	1e-05	-2e-05	-2e-05	-2e-05	1
2631	-2e-05	-1e-05	-3e-05	-2e-05	1e-05	-2e-05	-2e-05	-2e-05	1
2632	-2e-05	-1e-05	-3e-05	-2e-05	1e-05	-2e-05	-2e-05	-2e-05	1
2633	-2e-05	-1e-05	-3e-05	-2e-05	1e-05	-2e-05	-2e-05	-2e-05	1
2634	-2e-05	-1e-05	-3e-05	-2e-05	1e-05	-2e-05	-2e-05	-2e-05	1
2635	-2e-05	-1e-05	-3e-05	-2e-05	1e-05	-2e-05	-2e-05	-2e-05	1
2636	-2e-05	-1e-05	-3e-05	-2e-05	1e-05	-2e-05	-2e-05	-2e-05	1
2638	-2e-05	-1e-05	-3e-05	-2e-05	1e-05	-2e-05	-2e-05	-2e-05	1
2639	-2e-05	-1e-05	-3e-05	-2e-05	1e-05	-2e-05	-2e-05	-2e-05	1
2640	-2e-05	-1e-05	-3e-05	-2e-05	1e-05	-2e-05	-2e-05	-2e-05	1
2641	-2e-05	-1e-05	-3e-05	-2e-05	1e-05	-2e-05	-2e-05	-2e-05	1
2642	-2e-05	-1e-05	-3e-05	-2e-05	1e-05	-2e-05	-2e-05	-2e-05	1
2643	-2e-05	-1e-05	-3e-05	-2e-05	1e-05	-2e-05	-2e-05	-2e-05	1
2644	-2e-05	-1e-05	-3e-05	-2e-05	1e-05	-2e-05	-2e-05	-2e-05	1
2645	-2e-05	-1e-05	-3e-05	-2e-05	1e-05	-2e-05	-2e-05	-2e-05	1
2646	-2e-05	-1e-05	-3e-05	-2e-05	1e-05	-2e-05	-2e-05	-2e-05	1
2647	-2e-05	-1e-05	-3e-05	-2e-05	1e-05	-2e-05	-2e-05	-2e-05	1
2648	-2e-05	-1e-05	-3e-05	-2e-05	1e-05	-2e-05	-2e-05	-2e-05	1
2649	1e-05	0	-1e-05	0.00013	1e-05	-9e-05	-4e-05	-1e-05	1
2650	-1e-05	1e-05	0	3e-05	0	-2e-05	-1e-05	-1e-05	1
2651	-1e-05	1e-05	0	3e-05	0	-2e-05	-1e-05	-1e-05	1
2652	-1e-05	1e-05	0	3e-05	0	-2e-05	-1e-05	-1e-05	1
2653	-1e-05	1e-05	0	3e-05	0	-2e-05	-1e-05	-1e-05	1
2654	-1e-05	1e-05	0	3e-05	0	-2e-05	-1e-05	-1e-05	1
2655	-1e-05	1e-05	0	3e-05	0	-2e-05	-1e-05	-1e-05	1
2656	-1e-05	1e-05	0	3e-05	0	-2e-05	-1e-05	-1e-05	1
2657	-1e-05	1e-05	0	3e-05	0	-2e-05	-1e-05	-1e-05	1
2658	-1e-05	1e-05	0	3e-05	0	-2e-05	-1e-05	-1e-05	1
2659	-1e-05	1e-05	0	3e-05	0	-2e-05	-1e-05	-1e-05	1
2660	-1e-05	1e-05	0	3e-05	0	-2e-05	-1e-05	-1e-05	1
2661	-1e-05	1e-05	0	3e-05	0	-2e-05	-1e-05	-1e-05	1
2662	-1e-05	1e-05	0	3e-05	0	-2e-05	-1e-05	-1e-05	1
2663	-1e-05	1e-05	0	3e-05	0	-2e-05	-1e-05	-1e-05	1
2664	2e-05	1e-05	2e-05	-2e-05	-1e-05	-3e-05	-1e-05	-2e-05	1
2665	2e-05	1e-05	2e-05	-2e-05	-1e-05	-3e-05	-1e-05	-2e-05	1
2666	2e-05	1e-05	2e-05	-2e-05	-1e-05	-3e-05	-1e-05	-2e-05	1
2667	2e-05	1e-05	2e-05	-2e-05	-1e-05	-3e-05	-1e-05	-2e-05	1
2668	2e-05	1e-05	2e-05	-2e-05	-1e-05	-3e-05	-1e-05	-2e-05	1
2669	2e-05	1e-05	2e-05	-2e-05	-1e-05	-3e-05	-1e-05	-2e-05	1
2670	2e-05	1e-05	2e-05	-2e-05	-1e-05	-3e-05	-1e-05	-2e-05	1
2671	2e-05	1e-05	2e-05	-2e-05	-1e-05	-3e-05	-1e-05	-2e-05	1
2672	2e-05	1e-05	2e-05	-2e-05	-1e-05	-3e-05	-1e-05	-2e-05	1
2673	2e-05	1e-05	2e-05	-2e-05	-1e-05	-3e-05	-1e-05	-2e-05	1
2674	2e-05	1e-05	2e-05	-2e-05	-1e-05	-3e-05	-1e-05	-2e-05	1
2675	2e-05	1e-05	2e-05	-2e-05	-1e-05	-3e-05	-1e-05	-2e-05	1
2676	2e-05	1e-05	2e-05	-2e-05	-1e-05	-3e-05	-1e-05	-2e-05	1
2677	2e-05	1e-05	2e-05	-2e-05	-1e-05	-3e-05	-1e-05	-2e-05	1
2678	2e-05	1e-05	2e-05	-2e-05	-1e-05	-3e-05	-1e-05	-2e-05	1
2679	1e-05	-3e-05	-1e-05	-5e-05	3e-05	-3e-05	0	-2e-05	1
2680	1e-05	-3e-05	-1e-05	-5e-05	3e-05	-3e-05	0	-2e-05	1
2681	1e-05	-3e-05	-1e-05	-5e-05	3e-05	-3e-05	0	-2e-05	1
2682	1e-05	-3e-05	-1e-05	-5e-05	3e-05	-3e-05	0	-2e-05	1
2683	1e-05	-3e-05	-1e-05	-5e-05	3e-05	-3e-05	0	-2e-05	1
2684	1e-05	-3e-05	-1e-05	-5e-05	3e-05	-3e-05	0	-2e-05	1
2685	1e-05	-3e-05	-1e-05	-5e-05	3e-05	-3e-05	0	-2e-05	1
32991	-2e-05	-2e-05	-2e-05	-3e-05	-4e-05	-5e-05	-1e-05	1e-05	1
32992	-2e-05	-2e-05	-2e-05	-3e-05	-4e-05	-5e-05	-1e-05	1e-05	1
32993	-2e-05	-2e-05	-2e-05	-3e-05	-4e-05	-5e-05	-1e-05	1e-05	1
32994	-2e-05	-2e-05	-2e-05	-3e-05	-4e-05	-5e-05	-1e-05	1e-05	1
32995	-1e-05	0	3e-05	8e-05	0.0001	0.00015	-7e-05	-3e-05	1
32996	-1e-05	0	-5e-05	-0.00013	1e-05	0.00019	3e-05	-1e-05	1
32997	-1e-05	0	-5e-05	-0.00013	1e-05	0.00019	3e-05	-1e-05	1
32998	-1e-05	0	-5e-05	-0.00013	1e-05	0.00019	3e-05	-1e-05	1
32999	-1e-05	0	-5e-05	-0.00013	1e-05	0.00019	3e-05	-1e-05	1
33000	-1e-05	0	-5e-05	-0.00013	1e-05	0.00019	3e-05	-1e-05	1
33001	-1e-05	0	-5e-05	-0.00013	1e-05	0.00019	3e-05	-1e-05	1
33002	-1e-05	0	-5e-05	-0.00013	1e-05	0.00019	3e-05	-1e-05	1
33003	-1e-05	0	-5e-05	-0.00013	1e-05	0.00019	3e-05	-1e-05	1
33004	-1e-05	0	-5e-05	-0.00013	1e-05	0.00019	3e-05	-1e-05	1
33005	-1e-05	0	-5e-05	-0.00013	1e-05	0.00019	3e-05	-1e-05	1
33006	-1e-05	0	-5e-05	-0.00013	1e-05	0.00019	3e-05	-1e-05	1
33007	-1e-05	0	-5e-05	-0.00013	1e-05	0.00019	3e-05	-1e-05	1
33008	-1e-05	0	-5e-05	-0.00013	1e-05	0.00019	3e-05	-1e-05	1
33009	-3e-05	-1e-05	0	6e-05	1e-05	4e-05	2e-05	-2e-05	1
33010	-3e-05	-1e-05	0	6e-05	1e-05	4e-05	2e-05	-2e-05	1
33011	-3e-05	-1e-05	0	6e-05	1e-05	4e-05	2e-05	-2e-05	1
33012	-3e-05	-1e-05	0	6e-05	1e-05	4e-05	2e-05	-2e-05	1
33013	-3e-05	-1e-05	0	6e-05	1e-05	4e-05	2e-05	-2e-05	1
33014	-3e-05	-1e-05	0	6e-05	1e-05	4e-05	2e-05	-2e-05	1
33015	-3e-05	-1e-05	0	6e-05	1e-05	4e-05	2e-05	-2e-05	1
33016	-3e-05	-1e-05	0	6e-05	1e-05	4e-05	2e-05	-2e-05	1
33017	-2e-05	1e-05	-1e-05	-5e-05	-0.0001	-0.00045	-0.0001	-1e-05	1
33018	-2e-05	1e-05	-1e-05	-5e-05	-0.0001	-0.00045	-0.0001	-1e-05	1
33019	-2e-05	1e-05	-1e-05	-5e-05	-0.0001	-0.00045	-0.0001	-1e-05	1
33020	-2e-05	1e-05	-1e-05	-5e-05	-0.0001	-0.00045	-0.0001	-1e-05	1
33021	-2e-05	1e-05	-1e-05	-5e-05	-0.0001	-0.00045	-0.0001	-1e-05	1
33022	-2e-05	1e-05	-1e-05	-5e-05	-0.0001	-0.00045	-0.0001	-1e-05	1
33023	-2e-05	1e-05	-1e-05	-5e-05	-0.0001	-0.00045	-0.0001	-1e-05	1
33024	-2e-05	1e-05	-1e-05	-5e-05	-0.0001	-0.00045	-0.0001	-1e-05	1
33025	-2e-05	1e-05	-1e-05	-5e-05	-0.0001	-0.00045	-0.0001	-1e-05	1
33026	-2e-05	1e-05	-1e-05	-5e-05	-0.0001	-0.00045	-0.0001	-1e-05	1
33027	-2e-05	1e-05	-1e-05	-5e-05	-0.0001	-0.00045	-0.0001	-1e-05	1
33028	-2e-05	1e-05	-1e-05	-5e-05	-0.0001	-0.00045	-0.0001	-1e-05	1
33029	-2e-05	1e-05	-1e-05	-5e-05	-0.0001	-0.00045	-0.0001	-1e-05	1
33030	-2e-05	1e-05	-1e-05	-5e-05	-0.0001	-0.00045	-0.0001	-1e-05	1
33031	-2e-05	1e-05	-1e-05	-5e-05	-0.0001	-0.00045	-0.0001	-1e-05	1
33032	0	2e-05	4e-05	1e-05	-9e-05	-9e-05	0	1e-05	1
33033	-1e-05	-3e-05	-6e-05	0	2e-05	-0.00025	-2e-05	0	1
33034	-1e-05	-3e-05	-6e-05	0	2e-05	-0.00025	-2e-05	0	1
33035	-1e-05	-3e-05	-6e-05	0	2e-05	-0.00025	-2e-05	0	1
33036	-1e-05	-3e-05	-6e-05	0	2e-05	-0.00025	-2e-05	0	1
33038	-1e-05	-3e-05	-6e-05	0	2e-05	-0.00025	-2e-05	0	1
33039	-1e-05	-3e-05	-6e-05	0	2e-05	-0.00025	-2e-05	0	1
33040	-1e-05	-3e-05	-6e-05	0	2e-05	-0.00025	-2e-05	0	1
33041	-1e-05	-3e-05	-6e-05	0	2e-05	-0.00025	-2e-05	0	1
33042	-1e-05	-3e-05	-6e-05	0	2e-05	-0.00025	-2e-05	0	1
33043	-1e-05	-3e-05	-6e-05	0	2e-05	-0.00025	-2e-05	0	1
33044	-1e-05	-3e-05	-6e-05	0	2e-05	-0.00025	-2e-05	0	1
33045	-1e-05	-3e-05	-6e-05	0	2e-05	-0.00025	-2e-05	0	1
33046	-1e-05	-3e-05	-6e-05	0	2e-05	-0.00025	-2e-05	0	1
33047	-1e-05	-3e-05	-6e-05	0	2e-05	-0.00025	-2e-05	0	1
33048	-1e-05	-3e-05	-6e-05	0	2e-05	-0.00025	-2e-05	0	1
33049	-1e-05	-3e-05	-6e-05	0	2e-05	-0.00025	-2e-05	0	1
33050	-1e-05	-3e-05	-6e-05	0	2e-05	-0.00025	-2e-05	0	1
33051	-1e-05	-3e-05	-6e-05	0	2e-05	-0.00025	-2e-05	0	1
33052	-1e-05	-3e-05	-6e-05	0	2e-05	-0.00025	-2e-05	0	1
33053	-1e-05	-3e-05	-6e-05	0	2e-05	-0.00025	-2e-05	0	1
33054	-1e-05	-3e-05	-6e-05	0	2e-05	-0.00025	-2e-05	0	1
33055	0	-5e-05	-1e-05	3e-05	-0.00015	-0.00012	-4e-05	-2e-05	1
33056	0	-5e-05	-1e-05	3e-05	-0.00015	-0.00012	-4e-05	-2e-05	1
33057	-1e-05	-2e-05	-2e-05	-9e-05	7e-05	-6e-05	2e-05	0	1
33058	1e-05	-2e-05	3e-05	3e-05	-0.00014	0.00011	2e-05	0	1
33059	1e-05	-2e-05	3e-05	3e-05	-0.00014	0.00011	2e-05	0	1
33060	1e-05	-2e-05	3e-05	3e-05	-0.00014	0.00011	2e-05	0	1
33061	1e-05	-2e-05	3e-05	3e-05	-0.00014	0.00011	2e-05	0	1
33062	1e-05	-2e-05	3e-05	3e-05	-0.00014	0.00011	2e-05	0	1
33063	1e-05	-2e-05	3e-05	3e-05	-0.00014	0.00011	2e-05	0	1
33064	1e-05	-2e-05	3e-05	3e-05	-0.00014	0.00011	2e-05	0	1
33065	1e-05	-2e-05	3e-05	3e-05	-0.00014	0.00011	2e-05	0	1
33066	1e-05	-2e-05	3e-05	3e-05	-0.00014	0.00011	2e-05	0	1
33067	1e-05	-2e-05	3e-05	3e-05	-0.00014	0.00011	2e-05	0	1
33068	1e-05	-2e-05	3e-05	3e-05	-0.00014	0.00011	2e-05	0	1
33069	-1e-05	-1e-05	-4e-05	-4e-05	-3e-05	-5e-05	-2e-05	-3e-05	1
33070	-1e-05	-1e-05	-4e-05	-4e-05	-3e-05	-5e-05	-2e-05	-3e-05	1
33071	-1e-05	-1e-05	-4e-05	-4e-05	-3e-05	-5e-05	-2e-05	-3e-05	1
33072	-1e-05	-1e-05	-4e-05	-4e-05	-3e-05	-5e-05	-2e-05	-3e-05	1
33073	-1e-05	-1e-05	-4e-05	-4e-05	-3e-05	-5e-05	-2e-05	-3e-05	1
33074	-1e-05	-1e-05	-4e-05	-4e-05	-3e-05	-5e-05	-2e-05	-3e-05	1
33075	-1e-05	-1e-05	-4e-05	-4e-05	-3e-05	-5e-05	-2e-05	-3e-05	1
33076	-1e-05	-1e-05	-4e-05	-4e-05	-3e-05	-5e-05	-2e-05	-3e-05	1
33077	-1e-05	-2e-05	-4e-05	-6e-05	0.00014	0.0003	1e-05	0	1
33078	-1e-05	-2e-05	-4e-05	-6e-05	0.00014	0.0003	1e-05	0	1
33079	-1e-05	-2e-05	-4e-05	-6e-05	0.00014	0.0003	1e-05	0	1
33080	-1e-05	-2e-05	-4e-05	-6e-05	0.00014	0.0003	1e-05	0	1
33081	-1e-05	-2e-05	-4e-05	-6e-05	0.00014	0.0003	1e-05	0	1
33082	-1e-05	-2e-05	-4e-05	-6e-05	0.00014	0.0003	1e-05	0	1
33083	-1e-05	-2e-05	-4e-05	-6e-05	0.00014	0.0003	1e-05	0	1
33084	-1e-05	-2e-05	-4e-05	-6e-05	0.00014	0.0003	1e-05	0	1
33085	-1e-05	-2e-05	-4e-05	-6e-05	0.00014	0.0003	1e-05	0	1
33086	-1e-05	-2e-05	-4e-05	-6e-05	0.00014	0.0003	1e-05	0	1
33088	-1e-05	-2e-05	-4e-05	-6e-05	0.00014	0.0003	1e-05	0	1
33089	-1e-05	-2e-05	-4e-05	-6e-05	0.00014	0.0003	1e-05	0	1
33090	-1e-05	-2e-05	-4e-05	-6e-05	0.00014	0.0003	1e-05	0	1
33091	-1e-05	-2e-05	-4e-05	-6e-05	0.00014	0.0003	1e-05	0	1
33092	-1e-05	-2e-05	-3e-05	-3e-05	3e-05	6e-05	-2e-05	0	1
33093	0	2e-05	1e-05	2e-05	6e-05	0.00027	1e-05	1e-05	1
33094	0	2e-05	1e-05	2e-05	6e-05	0.00027	1e-05	1e-05	1
33095	0	2e-05	1e-05	2e-05	6e-05	0.00027	1e-05	1e-05	1
33096	0	2e-05	1e-05	2e-05	6e-05	0.00027	1e-05	1e-05	1
33097	0	2e-05	1e-05	2e-05	6e-05	0.00027	1e-05	1e-05	1
33098	0	2e-05	1e-05	2e-05	6e-05	0.00027	1e-05	1e-05	1
33099	0	2e-05	1e-05	2e-05	6e-05	0.00027	1e-05	1e-05	1
33100	0	2e-05	1e-05	2e-05	6e-05	0.00027	1e-05	1e-05	1
33101	0	2e-05	1e-05	2e-05	6e-05	0.00027	1e-05	1e-05	1
33102	0	2e-05	1e-05	2e-05	6e-05	0.00027	1e-05	1e-05	1
33103	0	2e-05	1e-05	2e-05	6e-05	0.00027	1e-05	1e-05	1
33104	0	2e-05	1e-05	2e-05	6e-05	0.00027	1e-05	1e-05	1
33105	0	2e-05	1e-05	2e-05	6e-05	0.00027	1e-05	1e-05	1
33106	0	2e-05	1e-05	2e-05	6e-05	0.00027	1e-05	1e-05	1
33107	0	2e-05	1e-05	2e-05	6e-05	0.00027	1e-05	1e-05	1
33108	0	2e-05	1e-05	2e-05	6e-05	0.00027	1e-05	1e-05	1
33109	0	2e-05	1e-05	2e-05	6e-05	0.00027	1e-05	1e-05	1
33111	0	2e-05	1e-05	2e-05	6e-05	0.00027	1e-05	1e-05	1
33112	0	2e-05	1e-05	2e-05	6e-05	0.00027	1e-05	1e-05	1
33113	0	2e-05	1e-05	2e-05	6e-05	0.00027	1e-05	1e-05	1
33114	0	2e-05	1e-05	2e-05	6e-05	0.00027	1e-05	1e-05	1
33115	0	2e-05	1e-05	2e-05	6e-05	0.00027	1e-05	1e-05	1
33116	-1e-05	0	-1e-05	2e-05	4e-05	-0.00014	-1e-05	0	1
33117	1e-05	1e-05	0	0	-6e-05	-9e-05	-2e-05	-2e-05	1
33118	1e-05	1e-05	0	0	-6e-05	-9e-05	-2e-05	-2e-05	1
33119	1e-05	1e-05	0	0	-6e-05	-9e-05	-2e-05	-2e-05	1
33120	1e-05	1e-05	0	0	-6e-05	-9e-05	-2e-05	-2e-05	1
33121	1e-05	1e-05	0	0	-6e-05	-9e-05	-2e-05	-2e-05	1
33122	1e-05	1e-05	0	0	-6e-05	-9e-05	-2e-05	-2e-05	1
33123	1e-05	1e-05	0	0	-6e-05	-9e-05	-2e-05	-2e-05	1
33124	1e-05	1e-05	0	0	-6e-05	-9e-05	-2e-05	-2e-05	1
33125	1e-05	1e-05	0	0	-6e-05	-9e-05	-2e-05	-2e-05	1
33126	1e-05	1e-05	0	0	-6e-05	-9e-05	-2e-05	-2e-05	1
33127	1e-05	1e-05	0	0	-6e-05	-9e-05	-2e-05	-2e-05	1
33128	1e-05	1e-05	0	0	-6e-05	-9e-05	-2e-05	-2e-05	1
33129	-3e-05	1e-05	4e-05	1e-05	-5e-05	-0.00013	1e-05	1e-05	1
33130	-3e-05	1e-05	4e-05	1e-05	-5e-05	-0.00013	1e-05	1e-05	1
33131	-3e-05	1e-05	4e-05	1e-05	-5e-05	-0.00013	1e-05	1e-05	1
33132	-3e-05	1e-05	4e-05	1e-05	-5e-05	-0.00013	1e-05	1e-05	1
33133	-3e-05	1e-05	4e-05	1e-05	-5e-05	-0.00013	1e-05	1e-05	1
33134	-3e-05	1e-05	4e-05	1e-05	-5e-05	-0.00013	1e-05	1e-05	1
33135	-3e-05	1e-05	4e-05	1e-05	-5e-05	-0.00013	1e-05	1e-05	1
33136	-3e-05	1e-05	4e-05	1e-05	-5e-05	-0.00013	1e-05	1e-05	1
33138	2e-05	2e-05	9e-05	0.0001	3e-05	5e-05	5e-05	0	1
33139	2e-05	2e-05	9e-05	0.0001	3e-05	5e-05	5e-05	0	1
33140	2e-05	2e-05	9e-05	0.0001	3e-05	5e-05	5e-05	0	1
33141	2e-05	2e-05	9e-05	0.0001	3e-05	5e-05	5e-05	0	1
33142	2e-05	2e-05	9e-05	0.0001	3e-05	5e-05	5e-05	0	1
33143	2e-05	2e-05	9e-05	0.0001	3e-05	5e-05	5e-05	0	1
33144	2e-05	2e-05	9e-05	0.0001	3e-05	5e-05	5e-05	0	1
33145	2e-05	2e-05	9e-05	0.0001	3e-05	5e-05	5e-05	0	1
33146	2e-05	2e-05	9e-05	0.0001	3e-05	5e-05	5e-05	0	1
33147	2e-05	2e-05	9e-05	0.0001	3e-05	5e-05	5e-05	0	1
33148	2e-05	2e-05	9e-05	0.0001	3e-05	5e-05	5e-05	0	1
33149	2e-05	2e-05	9e-05	0.0001	3e-05	5e-05	5e-05	0	1
33150	2e-05	2e-05	9e-05	0.0001	3e-05	5e-05	5e-05	0	1
33151	2e-05	2e-05	9e-05	0.0001	3e-05	5e-05	5e-05	0	1
33152	-1e-05	-2e-05	-4e-05	-5e-05	0.00015	0.00034	0	0	1
33153	-1e-05	0	2e-05	0.00011	0.00013	0.00011	2e-05	-1e-05	1
33154	-1e-05	0	2e-05	0.00011	0.00013	0.00011	2e-05	-1e-05	1
33155	-1e-05	0	2e-05	0.00011	0.00013	0.00011	2e-05	-1e-05	1
33156	-1e-05	0	2e-05	0.00011	0.00013	0.00011	2e-05	-1e-05	1
33157	-1e-05	0	2e-05	0.00011	0.00013	0.00011	2e-05	-1e-05	1
33158	-1e-05	0	2e-05	0.00011	0.00013	0.00011	2e-05	-1e-05	1
33159	-1e-05	0	2e-05	0.00011	0.00013	0.00011	2e-05	-1e-05	1
33160	-1e-05	0	2e-05	0.00011	0.00013	0.00011	2e-05	-1e-05	1
33161	-1e-05	0	2e-05	0.00011	0.00013	0.00011	2e-05	-1e-05	1
33162	-1e-05	0	2e-05	0.00011	0.00013	0.00011	2e-05	-1e-05	1
33163	-1e-05	0	2e-05	0.00011	0.00013	0.00011	2e-05	-1e-05	1
33164	-1e-05	0	2e-05	0.00011	0.00013	0.00011	2e-05	-1e-05	1
33165	-1e-05	0	2e-05	0.00011	0.00013	0.00011	2e-05	-1e-05	1
33166	-1e-05	0	2e-05	0.00011	0.00013	0.00011	2e-05	-1e-05	1
33167	-1e-05	0	2e-05	0.00011	0.00013	0.00011	2e-05	-1e-05	1
33168	-1e-05	0	2e-05	0.00011	0.00013	0.00011	2e-05	-1e-05	1
33169	-1e-05	0	2e-05	0.00011	0.00013	0.00011	2e-05	-1e-05	1
33170	-1e-05	0	2e-05	0.00011	0.00013	0.00011	2e-05	-1e-05	1
33171	-1e-05	0	2e-05	0.00011	0.00013	0.00011	2e-05	-1e-05	1
33172	-1e-05	0	2e-05	0.00011	0.00013	0.00011	2e-05	-1e-05	1
33173	-1e-05	0	2e-05	0.00011	0.00013	0.00011	2e-05	-1e-05	1
33174	-1e-05	0	2e-05	0.00011	0.00013	0.00011	2e-05	-1e-05	1
33175	0	3e-05	-1e-05	-8e-05	9e-05	0.00044	1e-05	-2e-05	1
33176	-2e-05	-2e-05	-3e-05	-4e-05	-2e-05	-5e-05	-1e-05	0	1
33177	-2e-05	-2e-05	-3e-05	-4e-05	-2e-05	-5e-05	-1e-05	0	1
33178	-2e-05	-2e-05	-3e-05	-4e-05	-2e-05	-5e-05	-1e-05	0	1
33179	-2e-05	-2e-05	-3e-05	-4e-05	-2e-05	-5e-05	-1e-05	0	1
33180	-2e-05	-2e-05	-3e-05	-4e-05	-2e-05	-5e-05	-1e-05	0	1
33181	-2e-05	-2e-05	-3e-05	-4e-05	-2e-05	-5e-05	-1e-05	0	1
33182	-2e-05	-2e-05	-3e-05	-4e-05	-2e-05	-5e-05	-1e-05	0	1
33183	-2e-05	-2e-05	-3e-05	-4e-05	-2e-05	-5e-05	-1e-05	0	1
33184	-2e-05	-2e-05	-3e-05	-4e-05	-2e-05	-5e-05	-1e-05	0	1
33185	-2e-05	-2e-05	-3e-05	-4e-05	-2e-05	-5e-05	-1e-05	0	1
33186	-2e-05	-2e-05	-3e-05	-4e-05	-2e-05	-5e-05	-1e-05	0	1
33188	-2e-05	-2e-05	-3e-05	-4e-05	-2e-05	-5e-05	-1e-05	0	1
33189	-2e-05	-2e-05	-3e-05	-4e-05	-2e-05	-5e-05	-1e-05	0	1
33190	-2e-05	-2e-05	-3e-05	-4e-05	-2e-05	-5e-05	-1e-05	0	1
33191	-2e-05	-2e-05	-3e-05	-4e-05	-2e-05	-5e-05	-1e-05	0	1
33192	-2e-05	-2e-05	-3e-05	-4e-05	-2e-05	-5e-05	-1e-05	0	1
33193	-2e-05	-2e-05	-3e-05	-4e-05	-2e-05	-5e-05	-1e-05	0	1
33194	-2e-05	-2e-05	-3e-05	-4e-05	-2e-05	-5e-05	-1e-05	0	1
33195	-2e-05	-2e-05	-3e-05	-4e-05	-2e-05	-5e-05	-1e-05	0	1
33196	-2e-05	-2e-05	-3e-05	-4e-05	-2e-05	-5e-05	-1e-05	0	1
33197	-2e-05	-2e-05	-3e-05	-4e-05	-2e-05	-5e-05	-1e-05	0	1
33198	-4e-05	-3e-05	-3e-05	-0.00011	-7e-05	-0.00015	-6e-05	-3e-05	1
33199	-4e-05	-3e-05	-3e-05	-0.00011	-7e-05	-0.00015	-6e-05	-3e-05	1
33200	-4e-05	-3e-05	-3e-05	-0.00011	-7e-05	-0.00015	-6e-05	-3e-05	1
33201	-4e-05	-3e-05	-3e-05	-0.00011	-7e-05	-0.00015	-6e-05	-3e-05	1
33202	-4e-05	-3e-05	-3e-05	-0.00011	-7e-05	-0.00015	-6e-05	-3e-05	1
33203	-4e-05	-3e-05	-3e-05	-0.00011	-7e-05	-0.00015	-6e-05	-3e-05	1
33204	-4e-05	-3e-05	-3e-05	-0.00011	-7e-05	-0.00015	-6e-05	-3e-05	1
33205	-4e-05	-3e-05	-3e-05	-0.00011	-7e-05	-0.00015	-6e-05	-3e-05	1
33206	-4e-05	-3e-05	-3e-05	-0.00011	-7e-05	-0.00015	-6e-05	-3e-05	1
33207	-4e-05	-3e-05	-3e-05	-0.00011	-7e-05	-0.00015	-6e-05	-3e-05	1
33209	-4e-05	-3e-05	-3e-05	-0.00011	-7e-05	-0.00015	-6e-05	-3e-05	1
33210	-4e-05	-3e-05	-3e-05	-0.00011	-7e-05	-0.00015	-6e-05	-3e-05	1
33211	-4e-05	-3e-05	-3e-05	-0.00011	-7e-05	-0.00015	-6e-05	-3e-05	1
33212	1e-05	3e-05	0	-2e-05	-0.00013	-4e-05	-5e-05	-2e-05	1
33213	-1e-05	-2e-05	-6e-05	-0.00015	3e-05	-4e-05	0	-1e-05	1
33214	-1e-05	-2e-05	-6e-05	-0.00015	3e-05	-4e-05	0	-1e-05	1
33215	-1e-05	-2e-05	-6e-05	-0.00015	3e-05	-4e-05	0	-1e-05	1
33216	-1e-05	-2e-05	-6e-05	-0.00015	3e-05	-4e-05	0	-1e-05	1
33217	-1e-05	-2e-05	-6e-05	-0.00015	3e-05	-4e-05	0	-1e-05	1
33218	-1e-05	-2e-05	-6e-05	-0.00015	3e-05	-4e-05	0	-1e-05	1
33219	-1e-05	-2e-05	-6e-05	-0.00015	3e-05	-4e-05	0	-1e-05	1
33220	-1e-05	-2e-05	-6e-05	-0.00015	3e-05	-4e-05	0	-1e-05	1
33221	-1e-05	-2e-05	-6e-05	-0.00015	3e-05	-4e-05	0	-1e-05	1
33222	-1e-05	-2e-05	-6e-05	-0.00015	3e-05	-4e-05	0	-1e-05	1
33223	-1e-05	-2e-05	-6e-05	-0.00015	3e-05	-4e-05	0	-1e-05	1
33224	-1e-05	-2e-05	-6e-05	-0.00015	3e-05	-4e-05	0	-1e-05	1
33226	-1e-05	-2e-05	-6e-05	-0.00015	3e-05	-4e-05	0	-1e-05	1
33227	-1e-05	-2e-05	-6e-05	-0.00015	3e-05	-4e-05	0	-1e-05	1
33228	-1e-05	-2e-05	-6e-05	-0.00015	3e-05	-4e-05	0	-1e-05	1
33229	-1e-05	-2e-05	-6e-05	-0.00015	3e-05	-4e-05	0	-1e-05	1
33230	-1e-05	-2e-05	-6e-05	-0.00015	3e-05	-4e-05	0	-1e-05	1
33231	-1e-05	-2e-05	-6e-05	-0.00015	3e-05	-4e-05	0	-1e-05	1
33232	-1e-05	-2e-05	-6e-05	-0.00015	3e-05	-4e-05	0	-1e-05	1
33233	-1e-05	-2e-05	-6e-05	-0.00015	3e-05	-4e-05	0	-1e-05	1
33234	-1e-05	-2e-05	-6e-05	-0.00015	3e-05	-4e-05	0	-1e-05	1
33235	-2e-05	-5e-05	-2e-05	0	0.00016	0	-4e-05	-1e-05	1
33236	-2e-05	-3e-05	-0.00015	-0.00018	-0.00014	-0.0001	-4e-05	-1e-05	1
33238	-2e-05	-3e-05	-0.00015	-0.00018	-0.00014	-0.0001	-4e-05	-1e-05	1
33239	-2e-05	-3e-05	-0.00015	-0.00018	-0.00014	-0.0001	-4e-05	-1e-05	1
33240	-2e-05	-3e-05	-0.00015	-0.00018	-0.00014	-0.0001	-4e-05	-1e-05	1
33241	-2e-05	-3e-05	-0.00015	-0.00018	-0.00014	-0.0001	-4e-05	-1e-05	1
33242	-2e-05	-3e-05	-0.00015	-0.00018	-0.00014	-0.0001	-4e-05	-1e-05	1
33243	-2e-05	-3e-05	-0.00015	-0.00018	-0.00014	-0.0001	-4e-05	-1e-05	1
33244	-2e-05	-3e-05	-0.00015	-0.00018	-0.00014	-0.0001	-4e-05	-1e-05	1
33245	-2e-05	-3e-05	-0.00015	-0.00018	-0.00014	-0.0001	-4e-05	-1e-05	1
33246	-2e-05	-3e-05	-0.00015	-0.00018	-0.00014	-0.0001	-4e-05	-1e-05	1
33247	-2e-05	-3e-05	-0.00015	-0.00018	-0.00014	-0.0001	-4e-05	-1e-05	1
33248	-2e-05	-3e-05	-0.00015	-0.00018	-0.00014	-0.0001	-4e-05	-1e-05	1
33249	-2e-05	-3e-05	-0.00015	-0.00018	-0.00014	-0.0001	-4e-05	-1e-05	1
33250	-2e-05	-3e-05	-0.00015	-0.00018	-0.00014	-0.0001	-4e-05	-1e-05	1
33251	-2e-05	-3e-05	-0.00015	-0.00018	-0.00014	-0.0001	-4e-05	-1e-05	1
33252	-2e-05	-3e-05	-0.00015	-0.00018	-0.00014	-0.0001	-4e-05	-1e-05	1
33253	-2e-05	-3e-05	-0.00015	-0.00018	-0.00014	-0.0001	-4e-05	-1e-05	1
33254	-2e-05	-3e-05	-0.00015	-0.00018	-0.00014	-0.0001	-4e-05	-1e-05	1
33255	-2e-05	-3e-05	-0.00015	-0.00018	-0.00014	-0.0001	-4e-05	-1e-05	1
33256	-2e-05	-3e-05	-0.00015	-0.00018	-0.00014	-0.0001	-4e-05	-1e-05	1
33257	-2e-05	-3e-05	-0.00015	-0.00018	-0.00014	-0.0001	-4e-05	-1e-05	1
33258	-2e-05	-1e-05	0	4e-05	0.00012	8e-05	0	-1e-05	1
33259	1e-05	1e-05	2e-05	1e-05	-5e-05	-6e-05	0	-1e-05	1
33260	1e-05	1e-05	2e-05	1e-05	-5e-05	-6e-05	0	-1e-05	1
33261	1e-05	1e-05	2e-05	1e-05	-5e-05	-6e-05	0	-1e-05	1
33262	1e-05	1e-05	2e-05	1e-05	-5e-05	-6e-05	0	-1e-05	1
33263	1e-05	1e-05	2e-05	1e-05	-5e-05	-6e-05	0	-1e-05	1
33264	1e-05	1e-05	2e-05	1e-05	-5e-05	-6e-05	0	-1e-05	1
33265	1e-05	1e-05	2e-05	1e-05	-5e-05	-6e-05	0	-1e-05	1
33266	1e-05	1e-05	2e-05	1e-05	-5e-05	-6e-05	0	-1e-05	1
33267	1e-05	1e-05	2e-05	1e-05	-5e-05	-6e-05	0	-1e-05	1
33268	1e-05	1e-05	2e-05	1e-05	-5e-05	-6e-05	0	-1e-05	1
33269	1e-05	1e-05	2e-05	1e-05	-5e-05	-6e-05	0	-1e-05	1
33270	1e-05	1e-05	2e-05	1e-05	-5e-05	-6e-05	0	-1e-05	1
33271	1e-05	1e-05	2e-05	1e-05	-5e-05	-6e-05	0	-1e-05	1
33272	-2e-05	-3e-05	2e-05	7e-05	-8e-05	7e-05	0	-2e-05	1
33273	-2e-05	-4e-05	-7e-05	-2e-05	2e-05	-0.00014	0	-2e-05	1
33274	-2e-05	-4e-05	-7e-05	-2e-05	2e-05	-0.00014	0	-2e-05	1
33275	-2e-05	-4e-05	-7e-05	-2e-05	2e-05	-0.00014	0	-2e-05	1
33276	-2e-05	-4e-05	-7e-05	-2e-05	2e-05	-0.00014	0	-2e-05	1
33277	-2e-05	-4e-05	-7e-05	-2e-05	2e-05	-0.00014	0	-2e-05	1
33278	-2e-05	-4e-05	-7e-05	-2e-05	2e-05	-0.00014	0	-2e-05	1
33279	-2e-05	-4e-05	-7e-05	-2e-05	2e-05	-0.00014	0	-2e-05	1
33280	-2e-05	-4e-05	-7e-05	-2e-05	2e-05	-0.00014	0	-2e-05	1
33281	-2e-05	-4e-05	-7e-05	-2e-05	2e-05	-0.00014	0	-2e-05	1
33282	-2e-05	-4e-05	-7e-05	-2e-05	2e-05	-0.00014	0	-2e-05	1
33283	-2e-05	-4e-05	-7e-05	-2e-05	2e-05	-0.00014	0	-2e-05	1
33284	-2e-05	-4e-05	-7e-05	-2e-05	2e-05	-0.00014	0	-2e-05	1
33285	-2e-05	-4e-05	-7e-05	-2e-05	2e-05	-0.00014	0	-2e-05	1
33286	-2e-05	-4e-05	-7e-05	-2e-05	2e-05	-0.00014	0	-2e-05	1
33288	-2e-05	-4e-05	-7e-05	-2e-05	2e-05	-0.00014	0	-2e-05	1
33289	-2e-05	-4e-05	-7e-05	-2e-05	2e-05	-0.00014	0	-2e-05	1
33290	-2e-05	-4e-05	-7e-05	-2e-05	2e-05	-0.00014	0	-2e-05	1
33291	-2e-05	-4e-05	-7e-05	-2e-05	2e-05	-0.00014	0	-2e-05	1
33292	-2e-05	-4e-05	-7e-05	-2e-05	2e-05	-0.00014	0	-2e-05	1
33293	-2e-05	-4e-05	-7e-05	-2e-05	2e-05	-0.00014	0	-2e-05	1
33294	-2e-05	-4e-05	-7e-05	-2e-05	2e-05	-0.00014	0	-2e-05	1
33295	1e-05	-1e-05	5e-05	0.0001	0	-5e-05	-2e-05	-2e-05	1
33296	1e-05	-1e-05	5e-05	0.0001	0	-5e-05	-2e-05	-2e-05	1
33297	1e-05	-1e-05	5e-05	0.0001	0	-5e-05	-2e-05	-2e-05	1
33298	1e-05	-1e-05	5e-05	0.0001	0	-5e-05	-2e-05	-2e-05	1
33299	1e-05	-1e-05	5e-05	0.0001	0	-5e-05	-2e-05	-2e-05	1
33300	1e-05	-1e-05	5e-05	0.0001	0	-5e-05	-2e-05	-2e-05	1
33301	1e-05	-1e-05	5e-05	0.0001	0	-5e-05	-2e-05	-2e-05	1
33302	1e-05	-1e-05	5e-05	0.0001	0	-5e-05	-2e-05	-2e-05	1
33303	1e-05	-1e-05	5e-05	0.0001	0	-5e-05	-2e-05	-2e-05	1
33304	1e-05	-1e-05	5e-05	0.0001	0	-5e-05	-2e-05	-2e-05	1
33305	1e-05	-1e-05	5e-05	0.0001	0	-5e-05	-2e-05	-2e-05	1
33306	1e-05	-1e-05	5e-05	0.0001	0	-5e-05	-2e-05	-2e-05	1
33307	1e-05	-1e-05	5e-05	0.0001	0	-5e-05	-2e-05	-2e-05	1
33308	1e-05	-1e-05	5e-05	0.0001	0	-5e-05	-2e-05	-2e-05	1
33309	1e-05	-1e-05	5e-05	0.0001	0	-5e-05	-2e-05	-2e-05	1
33310	1e-05	-1e-05	5e-05	0.0001	0	-5e-05	-2e-05	-2e-05	1
33311	1e-05	-1e-05	5e-05	0.0001	0	-5e-05	-2e-05	-2e-05	1
33312	1e-05	-1e-05	5e-05	0.0001	0	-5e-05	-2e-05	-2e-05	1
33313	1e-05	-1e-05	5e-05	0.0001	0	-5e-05	-2e-05	-2e-05	1
33314	1e-05	-1e-05	5e-05	0.0001	0	-5e-05	-2e-05	-2e-05	1
33315	1e-05	-1e-05	5e-05	0.0001	0	-5e-05	-2e-05	-2e-05	1
33316	1e-05	-1e-05	5e-05	0.0001	0	-5e-05	-2e-05	-2e-05	1
33317	1e-05	-1e-05	5e-05	0.0001	0	-5e-05	-2e-05	-2e-05	1
33318	1e-05	-1e-05	5e-05	0.0001	0	-5e-05	-2e-05	-2e-05	1
33319	1e-05	-1e-05	5e-05	0.0001	0	-5e-05	-2e-05	-2e-05	1
33320	1e-05	-1e-05	5e-05	0.0001	0	-5e-05	-2e-05	-2e-05	1
33321	1e-05	-1e-05	5e-05	0.0001	0	-5e-05	-2e-05	-2e-05	1
33322	1e-05	-1e-05	5e-05	0.0001	0	-5e-05	-2e-05	-2e-05	1
33323	1e-05	-1e-05	5e-05	0.0001	0	-5e-05	-2e-05	-2e-05	1
33324	1e-05	-1e-05	5e-05	0.0001	0	-5e-05	-2e-05	-2e-05	1
33325	-3e-05	-2e-05	-9e-05	-6e-05	-3e-05	-0.0002	4e-05	0	1
33326	-1e-05	2e-05	4e-05	3e-05	4e-05	-0.00012	-5e-05	-1e-05	1
33327	-1e-05	2e-05	4e-05	3e-05	4e-05	-0.00012	-5e-05	-1e-05	1
33328	-1e-05	2e-05	4e-05	3e-05	4e-05	-0.00012	-5e-05	-1e-05	1
33329	-1e-05	2e-05	4e-05	3e-05	4e-05	-0.00012	-5e-05	-1e-05	1
33330	-1e-05	2e-05	4e-05	3e-05	4e-05	-0.00012	-5e-05	-1e-05	1
33331	-1e-05	2e-05	4e-05	3e-05	4e-05	-0.00012	-5e-05	-1e-05	1
33332	0	0	2e-05	6e-05	5e-05	-9e-05	-2e-05	-1e-05	1
33333	-1e-05	0	-4e-05	0.00012	-4e-05	-4e-05	0	1e-05	1
33334	-1e-05	0	-4e-05	0.00012	-4e-05	-4e-05	0	1e-05	1
33335	-1e-05	0	-4e-05	0.00012	-4e-05	-4e-05	0	1e-05	1
33336	-1e-05	0	-4e-05	0.00012	-4e-05	-4e-05	0	1e-05	1
33338	-1e-05	0	-4e-05	0.00012	-4e-05	-4e-05	0	1e-05	1
33339	-1e-05	0	-4e-05	0.00012	-4e-05	-4e-05	0	1e-05	1
33340	-1e-05	0	-4e-05	0.00012	-4e-05	-4e-05	0	1e-05	1
33341	-1e-05	0	-4e-05	0.00012	-4e-05	-4e-05	0	1e-05	1
33342	-1e-05	0	-4e-05	0.00012	-4e-05	-4e-05	0	1e-05	1
33343	-1e-05	0	-4e-05	0.00012	-4e-05	-4e-05	0	1e-05	1
33344	-1e-05	0	-4e-05	0.00012	-4e-05	-4e-05	0	1e-05	1
33345	-1e-05	0	-4e-05	0.00012	-4e-05	-4e-05	0	1e-05	1
33346	-1e-05	0	-4e-05	0.00012	-4e-05	-4e-05	0	1e-05	1
33347	-1e-05	0	-4e-05	0.00012	-4e-05	-4e-05	0	1e-05	1
33348	-1e-05	0	-4e-05	0.00012	-4e-05	-4e-05	0	1e-05	1
33349	-1e-05	0	-4e-05	0.00012	-4e-05	-4e-05	0	1e-05	1
33350	-1e-05	0	-4e-05	0.00012	-4e-05	-4e-05	0	1e-05	1
33351	-1e-05	0	-4e-05	0.00012	-4e-05	-4e-05	0	1e-05	1
33352	-1e-05	0	-4e-05	0.00012	-4e-05	-4e-05	0	1e-05	1
33353	-1e-05	0	-4e-05	0.00012	-4e-05	-4e-05	0	1e-05	1
33354	-1e-05	0	-4e-05	0.00012	-4e-05	-4e-05	0	1e-05	1
33355	-2e-05	-2e-05	-5e-05	-5e-05	-1e-05	0	-1e-05	0	1
33356	-2e-05	-3e-05	-5e-05	-7e-05	-3e-05	7e-05	1e-05	-2e-05	1
33357	-2e-05	-3e-05	-5e-05	-7e-05	-3e-05	7e-05	1e-05	-2e-05	1
33358	-2e-05	-3e-05	-5e-05	-7e-05	-3e-05	7e-05	1e-05	-2e-05	1
33359	-2e-05	-3e-05	-5e-05	-7e-05	-3e-05	7e-05	1e-05	-2e-05	1
33360	-2e-05	-3e-05	-5e-05	-7e-05	-3e-05	7e-05	1e-05	-2e-05	1
33361	-2e-05	-3e-05	-5e-05	-7e-05	-3e-05	7e-05	1e-05	-2e-05	1
33362	-2e-05	-3e-05	-5e-05	-7e-05	-3e-05	7e-05	1e-05	-2e-05	1
33363	-2e-05	-3e-05	-5e-05	-7e-05	-3e-05	7e-05	1e-05	-2e-05	1
33364	-2e-05	-3e-05	-5e-05	-7e-05	-3e-05	7e-05	1e-05	-2e-05	1
33365	-2e-05	-3e-05	-5e-05	-7e-05	-3e-05	7e-05	1e-05	-2e-05	1
33366	-2e-05	-3e-05	-5e-05	-7e-05	-3e-05	7e-05	1e-05	-2e-05	1
33367	-2e-05	-3e-05	-5e-05	-7e-05	-3e-05	7e-05	1e-05	-2e-05	1
33368	-2e-05	-3e-05	-5e-05	-7e-05	-3e-05	7e-05	1e-05	-2e-05	1
33369	-2e-05	-3e-05	-5e-05	-7e-05	-3e-05	7e-05	1e-05	-2e-05	1
33370	-2e-05	-3e-05	-5e-05	-7e-05	-3e-05	7e-05	1e-05	-2e-05	1
33371	-2e-05	-3e-05	-5e-05	-7e-05	-3e-05	7e-05	1e-05	-2e-05	1
33372	-2e-05	-3e-05	-5e-05	-7e-05	-3e-05	7e-05	1e-05	-2e-05	1
33373	-2e-05	-3e-05	-5e-05	-7e-05	-3e-05	7e-05	1e-05	-2e-05	1
33374	-2e-05	-3e-05	-5e-05	-7e-05	-3e-05	7e-05	1e-05	-2e-05	1
33375	-2e-05	-3e-05	-5e-05	-7e-05	-3e-05	7e-05	1e-05	-2e-05	1
33376	-2e-05	-3e-05	-5e-05	-7e-05	-3e-05	7e-05	1e-05	-2e-05	1
33377	-2e-05	-3e-05	-5e-05	-7e-05	-3e-05	7e-05	1e-05	-2e-05	1
33378	-2e-05	-3e-05	-5e-05	-7e-05	-3e-05	7e-05	1e-05	-2e-05	1
33379	-2e-05	-3e-05	-5e-05	-7e-05	-3e-05	7e-05	1e-05	-2e-05	1
33380	-2e-05	-3e-05	-5e-05	-7e-05	-3e-05	7e-05	1e-05	-2e-05	1
33381	-2e-05	-3e-05	-5e-05	-7e-05	-3e-05	7e-05	1e-05	-2e-05	1
33382	-2e-05	-3e-05	-5e-05	-7e-05	-3e-05	7e-05	1e-05	-2e-05	1
33383	-2e-05	-3e-05	-5e-05	-7e-05	-3e-05	7e-05	1e-05	-2e-05	1
33384	-2e-05	-3e-05	-5e-05	-7e-05	-3e-05	7e-05	1e-05	-2e-05	1
33385	-1e-05	-2e-05	1e-05	-1e-05	-8e-05	-1e-05	-2e-05	-2e-05	1
33386	0	1e-05	-3e-05	-6e-05	-4e-05	-0.00015	-2e-05	-3e-05	1
33388	0	1e-05	-3e-05	-6e-05	-4e-05	-0.00015	-2e-05	-3e-05	1
33389	0	1e-05	-3e-05	-6e-05	-4e-05	-0.00015	-2e-05	-3e-05	1
33390	0	1e-05	-3e-05	-6e-05	-4e-05	-0.00015	-2e-05	-3e-05	1
33391	0	1e-05	-3e-05	-6e-05	-4e-05	-0.00015	-2e-05	-3e-05	1
33392	-2e-05	0	-2e-05	2e-05	4e-05	0.00011	4e-05	0	1
33393	-2e-05	0	-2e-05	2e-05	4e-05	0.00011	4e-05	0	1
33394	-2e-05	0	-2e-05	2e-05	4e-05	0.00011	4e-05	0	1
33395	-2e-05	0	-2e-05	2e-05	4e-05	0.00011	4e-05	0	1
33396	-2e-05	0	-2e-05	2e-05	4e-05	0.00011	4e-05	0	1
33397	-2e-05	0	-2e-05	2e-05	4e-05	0.00011	4e-05	0	1
33398	-2e-05	0	-2e-05	2e-05	4e-05	0.00011	4e-05	0	1
33399	0	-4e-05	-6e-05	-2e-05	-4e-05	2e-05	-4e-05	-2e-05	1
33400	0	0	3e-05	4e-05	1e-05	-5e-05	-4e-05	-3e-05	1
33401	0	0	3e-05	4e-05	1e-05	-5e-05	-4e-05	-3e-05	1
33402	0	0	3e-05	4e-05	1e-05	-5e-05	-4e-05	-3e-05	1
33403	0	0	3e-05	4e-05	1e-05	-5e-05	-4e-05	-3e-05	1
33404	0	0	3e-05	4e-05	1e-05	-5e-05	-4e-05	-3e-05	1
33405	0	0	3e-05	4e-05	1e-05	-5e-05	-4e-05	-3e-05	1
33406	0	0	3e-05	4e-05	1e-05	-5e-05	-4e-05	-3e-05	1
33407	0	0	3e-05	4e-05	1e-05	-5e-05	-4e-05	-3e-05	1
33408	0	0	3e-05	4e-05	1e-05	-5e-05	-4e-05	-3e-05	1
33409	0	0	3e-05	4e-05	1e-05	-5e-05	-4e-05	-3e-05	1
33410	0	0	3e-05	4e-05	1e-05	-5e-05	-4e-05	-3e-05	1
33411	0	0	3e-05	4e-05	1e-05	-5e-05	-4e-05	-3e-05	1
33412	0	0	3e-05	4e-05	1e-05	-5e-05	-4e-05	-3e-05	1
33413	0	0	3e-05	4e-05	1e-05	-5e-05	-4e-05	-3e-05	1
33414	0	0	3e-05	4e-05	1e-05	-5e-05	-4e-05	-3e-05	1
33415	2e-05	-1e-05	-3e-05	-2e-05	-4e-05	-0.00024	-2e-05	-1e-05	1
33416	-3e-05	-4e-05	-6e-05	-6e-05	2e-05	9e-05	-1e-05	-2e-05	1
33417	-3e-05	-4e-05	-6e-05	-6e-05	2e-05	9e-05	-1e-05	-2e-05	1
33418	-3e-05	-4e-05	-6e-05	-6e-05	2e-05	9e-05	-1e-05	-2e-05	1
33419	-3e-05	-4e-05	-6e-05	-6e-05	2e-05	9e-05	-1e-05	-2e-05	1
33420	-3e-05	-4e-05	-6e-05	-6e-05	2e-05	9e-05	-1e-05	-2e-05	1
33421	-3e-05	-4e-05	-6e-05	-6e-05	2e-05	9e-05	-1e-05	-2e-05	1
33422	-3e-05	-4e-05	-6e-05	-6e-05	2e-05	9e-05	-1e-05	-2e-05	1
33423	-3e-05	-4e-05	-6e-05	-6e-05	2e-05	9e-05	-1e-05	-2e-05	1
33424	-3e-05	-4e-05	-6e-05	-6e-05	2e-05	9e-05	-1e-05	-2e-05	1
33425	-3e-05	-4e-05	-6e-05	-6e-05	2e-05	9e-05	-1e-05	-2e-05	1
33426	-3e-05	-4e-05	-6e-05	-6e-05	2e-05	9e-05	-1e-05	-2e-05	1
33427	-3e-05	-4e-05	-6e-05	-6e-05	2e-05	9e-05	-1e-05	-2e-05	1
33428	-3e-05	-4e-05	-6e-05	-6e-05	2e-05	9e-05	-1e-05	-2e-05	1
33429	-3e-05	-4e-05	-6e-05	-6e-05	2e-05	9e-05	-1e-05	-2e-05	1
33430	-3e-05	-4e-05	-6e-05	-6e-05	2e-05	9e-05	-1e-05	-2e-05	1
33431	-3e-05	-4e-05	-6e-05	-6e-05	2e-05	9e-05	-1e-05	-2e-05	1
33432	-3e-05	-4e-05	-6e-05	-6e-05	2e-05	9e-05	-1e-05	-2e-05	1
33433	-3e-05	-4e-05	-6e-05	-6e-05	2e-05	9e-05	-1e-05	-2e-05	1
33434	-3e-05	-4e-05	-6e-05	-6e-05	2e-05	9e-05	-1e-05	-2e-05	1
33435	-3e-05	-4e-05	-6e-05	-6e-05	2e-05	9e-05	-1e-05	-2e-05	1
33436	-3e-05	-4e-05	-6e-05	-6e-05	2e-05	9e-05	-1e-05	-2e-05	1
33439	2e-05	1e-05	9e-05	5e-05	2e-05	1e-05	0	2e-05	1
33440	2e-05	1e-05	9e-05	5e-05	2e-05	1e-05	0	2e-05	1
33441	2e-05	1e-05	9e-05	5e-05	2e-05	1e-05	0	2e-05	1
33442	2e-05	1e-05	9e-05	5e-05	2e-05	1e-05	0	2e-05	1
33443	2e-05	1e-05	9e-05	5e-05	2e-05	1e-05	0	2e-05	1
33444	2e-05	1e-05	9e-05	5e-05	2e-05	1e-05	0	2e-05	1
33445	2e-05	1e-05	9e-05	5e-05	2e-05	1e-05	0	2e-05	1
33446	2e-05	1e-05	9e-05	5e-05	2e-05	1e-05	0	2e-05	1
33447	2e-05	1e-05	9e-05	5e-05	2e-05	1e-05	0	2e-05	1
33448	2e-05	1e-05	9e-05	5e-05	2e-05	1e-05	0	2e-05	1
33449	2e-05	1e-05	9e-05	5e-05	2e-05	1e-05	0	2e-05	1
33450	2e-05	1e-05	9e-05	5e-05	2e-05	1e-05	0	2e-05	1
33451	2e-05	1e-05	9e-05	5e-05	2e-05	1e-05	0	2e-05	1
33452	1e-05	-1e-05	1e-05	-2e-05	-5e-05	3e-05	-2e-05	2e-05	1
33453	-4e-05	2e-05	-1e-05	-0.00017	-0.00015	-4e-05	-1e-05	-2e-05	1
33454	-4e-05	2e-05	-1e-05	-0.00017	-0.00015	-4e-05	-1e-05	-2e-05	1
33455	-4e-05	2e-05	-1e-05	-0.00017	-0.00015	-4e-05	-1e-05	-2e-05	1
33456	-4e-05	2e-05	-1e-05	-0.00017	-0.00015	-4e-05	-1e-05	-2e-05	1
33457	-4e-05	2e-05	-1e-05	-0.00017	-0.00015	-4e-05	-1e-05	-2e-05	1
33458	-4e-05	2e-05	-1e-05	-0.00017	-0.00015	-4e-05	-1e-05	-2e-05	1
33459	-4e-05	2e-05	-1e-05	-0.00017	-0.00015	-4e-05	-1e-05	-2e-05	1
33460	-4e-05	2e-05	-1e-05	-0.00017	-0.00015	-4e-05	-1e-05	-2e-05	1
33461	-4e-05	2e-05	-1e-05	-0.00017	-0.00015	-4e-05	-1e-05	-2e-05	1
33462	-4e-05	2e-05	-1e-05	-0.00017	-0.00015	-4e-05	-1e-05	-2e-05	1
33463	-4e-05	2e-05	-1e-05	-0.00017	-0.00015	-4e-05	-1e-05	-2e-05	1
33464	-4e-05	2e-05	-1e-05	-0.00017	-0.00015	-4e-05	-1e-05	-2e-05	1
33465	-4e-05	2e-05	-1e-05	-0.00017	-0.00015	-4e-05	-1e-05	-2e-05	1
33466	-4e-05	2e-05	-1e-05	-0.00017	-0.00015	-4e-05	-1e-05	-2e-05	1
33467	-4e-05	2e-05	-1e-05	-0.00017	-0.00015	-4e-05	-1e-05	-2e-05	1
33468	-4e-05	2e-05	-1e-05	-0.00017	-0.00015	-4e-05	-1e-05	-2e-05	1
33469	-4e-05	2e-05	-1e-05	-0.00017	-0.00015	-4e-05	-1e-05	-2e-05	1
