28399	0	1e-05	1e-05	7e-05	-5e-05	-0.00012	0.0002	-0.0002	6
28400	0	1e-05	1e-05	7e-05	-5e-05	-0.00012	0.0002	-0.0002	6
28401	0	1e-05	1e-05	7e-05	-5e-05	-0.00012	0.0002	-0.0002	6
28402	0	1e-05	1e-05	7e-05	-5e-05	-0.00012	0.0002	-0.0002	6
28403	0	1e-05	1e-05	7e-05	-5e-05	-0.00012	0.0002	-0.0002	6
28404	0	1e-05	1e-05	7e-05	-5e-05	-0.00012	0.0002	-0.0002	6
28405	0.0001	-2e-05	-4e-05	-0.00021	-0.0006	-0.00033	0.00067	0.00065	6
28406	0.0001	-2e-05	-4e-05	-0.00021	-0.0006	-0.00033	0.00067	0.00065	6
28407	0.0001	-2e-05	-4e-05	-0.00021	-0.0006	-0.00033	0.00067	0.00065	6
28408	0.0001	-2e-05	-4e-05	-0.00021	-0.0006	-0.00033	0.00067	0.00065	6
28409	0.0001	-2e-05	-4e-05	-0.00021	-0.0006	-0.00033	0.00067	0.00065	6
28410	0.0001	-2e-05	-4e-05	-0.00021	-0.0006	-0.00033	0.00067	0.00065	6
28411	0.0001	-2e-05	-4e-05	-0.00021	-0.0006	-0.00033	0.00067	0.00065	6
28412	0.0001	-2e-05	-4e-05	-0.00021	-0.0006	-0.00033	0.00067	0.00065	6
28413	0.0001	-2e-05	-4e-05	-0.00021	-0.0006	-0.00033	0.00067	0.00065	6
28414	0.0001	-2e-05	-4e-05	-0.00021	-0.0006	-0.00033	0.00067	0.00065	6
28415	0.0001	-2e-05	-4e-05	-0.00021	-0.0006	-0.00033	0.00067	0.00065	6
28416	0.0001	-2e-05	-4e-05	-0.00021	-0.0006	-0.00033	0.00067	0.00065	6
28417	0.0001	-2e-05	-4e-05	-0.00021	-0.0006	-0.00033	0.00067	0.00065	6
28418	0.0001	-2e-05	-4e-05	-0.00021	-0.0006	-0.00033	0.00067	0.00065	6
28419	0.0001	-2e-05	-4e-05	-0.00021	-0.0006	-0.00033	0.00067	0.00065	6
28420	6e-05	0.00011	0.00011	4e-05	0.00033	0.00023	-0.00019	-5e-05	6
28421	0.00013	-1e-05	-1e-05	-0.0001	-0.00016	-0.00042	0.00011	0.00017	6
28422	0.00013	-1e-05	-1e-05	-0.0001	-0.00016	-0.00042	0.00011	0.00017	6
28423	0.00013	-1e-05	-1e-05	-0.0001	-0.00016	-0.00042	0.00011	0.00017	6
28424	0.00013	-1e-05	-1e-05	-0.0001	-0.00016	-0.00042	0.00011	0.00017	6
28425	0.00013	-1e-05	-1e-05	-0.0001	-0.00016	-0.00042	0.00011	0.00017	6
28426	0.00013	-1e-05	-1e-05	-0.0001	-0.00016	-0.00042	0.00011	0.00017	6
28427	0.00013	-1e-05	-1e-05	-0.0001	-0.00016	-0.00042	0.00011	0.00017	6
28428	0.00013	-1e-05	-1e-05	-0.0001	-0.00016	-0.00042	0.00011	0.00017	6
28429	0.00013	-1e-05	-1e-05	-0.0001	-0.00016	-0.00042	0.00011	0.00017	6
28430	0.00013	-1e-05	-1e-05	-0.0001	-0.00016	-0.00042	0.00011	0.00017	6
28431	0.00013	-1e-05	-1e-05	-0.0001	-0.00016	-0.00042	0.00011	0.00017	6
28432	0.00013	-1e-05	-1e-05	-0.0001	-0.00016	-0.00042	0.00011	0.00017	6
28433	0.00013	-1e-05	-1e-05	-0.0001	-0.00016	-0.00042	0.00011	0.00017	6
28434	0.00013	-1e-05	-1e-05	-0.0001	-0.00016	-0.00042	0.00011	0.00017	6
28435	0.00013	-1e-05	-1e-05	-0.0001	-0.00016	-0.00042	0.00011	0.00017	6
28436	0.00013	-1e-05	-1e-05	-0.0001	-0.00016	-0.00042	0.00011	0.00017	6
28438	0.00013	-1e-05	-1e-05	-0.0001	-0.00016	-0.00042	0.00011	0.00017	6
28439	0.00013	-1e-05	-1e-05	-0.0001	-0.00016	-0.00042	0.00011	0.00017	6
28440	0.00013	-1e-05	-1e-05	-0.0001	-0.00016	-0.00042	0.00011	0.00017	6
28441	0.00013	-1e-05	-1e-05	-0.0001	-0.00016	-0.00042	0.00011	0.00017	6
28442	0.00013	-1e-05	-1e-05	-0.0001	-0.00016	-0.00042	0.00011	0.00017	6
28443	-8e-05	-1e-05	-1e-05	-5e-05	2e-05	-6e-05	0.00038	-1e-05	6
28444	-9e-05	-8e-05	-0.0001	-0.00018	-0.00017	-0.00066	-0.00104	-0.00049	6
28445	-9e-05	-8e-05	-0.0001	-0.00018	-0.00017	-0.00066	-0.00104	-0.00049	6
28446	-9e-05	-8e-05	-0.0001	-0.00018	-0.00017	-0.00066	-0.00104	-0.00049	6
28447	-9e-05	-8e-05	-0.0001	-0.00018	-0.00017	-0.00066	-0.00104	-0.00049	6
28448	-9e-05	-8e-05	-0.0001	-0.00018	-0.00017	-0.00066	-0.00104	-0.00049	6
28449	-9e-05	-8e-05	-0.0001	-0.00018	-0.00017	-0.00066	-0.00104	-0.00049	6
28450	-9e-05	-8e-05	-0.0001	-0.00018	-0.00017	-0.00066	-0.00104	-0.00049	6
28451	-9e-05	-8e-05	-0.0001	-0.00018	-0.00017	-0.00066	-0.00104	-0.00049	6
28452	-9e-05	-8e-05	-0.0001	-0.00018	-0.00017	-0.00066	-0.00104	-0.00049	6
28453	-9e-05	-8e-05	-0.0001	-0.00018	-0.00017	-0.00066	-0.00104	-0.00049	6
28454	-9e-05	-8e-05	-0.0001	-0.00018	-0.00017	-0.00066	-0.00104	-0.00049	6
28455	-9e-05	-8e-05	-0.0001	-0.00018	-0.00017	-0.00066	-0.00104	-0.00049	6
28456	-9e-05	-8e-05	-0.0001	-0.00018	-0.00017	-0.00066	-0.00104	-0.00049	6
28457	-9e-05	-8e-05	-0.0001	-0.00018	-0.00017	-0.00066	-0.00104	-0.00049	6
28458	-9e-05	-8e-05	-0.0001	-0.00018	-0.00017	-0.00066	-0.00104	-0.00049	6
28459	-9e-05	-8e-05	-0.0001	-0.00018	-0.00017	-0.00066	-0.00104	-0.00049	6
28460	-9e-05	-8e-05	-0.0001	-0.00018	-0.00017	-0.00066	-0.00104	-0.00049	6
28461	-9e-05	-8e-05	-0.0001	-0.00018	-0.00017	-0.00066	-0.00104	-0.00049	6
28462	-9e-05	-8e-05	-0.0001	-0.00018	-0.00017	-0.00066	-0.00104	-0.00049	6
28463	-9e-05	-8e-05	-0.0001	-0.00018	-0.00017	-0.00066	-0.00104	-0.00049	6
28464	-9e-05	-8e-05	-0.0001	-0.00018	-0.00017	-0.00066	-0.00104	-0.00049	6
28465	0	2e-05	0	-5e-05	-0.0002	0.00055	-1e-05	-7e-05	6
28466	-4e-05	-3e-05	1e-05	9e-05	0.0002	-0.00044	-6e-05	-0.00034	6
28467	-4e-05	-3e-05	1e-05	9e-05	0.0002	-0.00044	-6e-05	-0.00034	6
28468	-4e-05	-3e-05	1e-05	9e-05	0.0002	-0.00044	-6e-05	-0.00034	6
28469	-4e-05	-3e-05	1e-05	9e-05	0.0002	-0.00044	-6e-05	-0.00034	6
28470	-4e-05	-3e-05	1e-05	9e-05	0.0002	-0.00044	-6e-05	-0.00034	6
28471	-4e-05	-3e-05	1e-05	9e-05	0.0002	-0.00044	-6e-05	-0.00034	6
28472	-4e-05	-3e-05	1e-05	9e-05	0.0002	-0.00044	-6e-05	-0.00034	6
28473	-4e-05	-3e-05	1e-05	9e-05	0.0002	-0.00044	-6e-05	-0.00034	6
28474	-4e-05	-3e-05	1e-05	9e-05	0.0002	-0.00044	-6e-05	-0.00034	6
28475	-4e-05	-3e-05	1e-05	9e-05	0.0002	-0.00044	-6e-05	-0.00034	6
28476	-4e-05	-3e-05	1e-05	9e-05	0.0002	-0.00044	-6e-05	-0.00034	6
28478	-4e-05	-3e-05	1e-05	9e-05	0.0002	-0.00044	-6e-05	-0.00034	6
28479	-4e-05	-3e-05	1e-05	9e-05	0.0002	-0.00044	-6e-05	-0.00034	6
28480	-0.00015	-0.00011	-9e-05	-0.00018	0.00021	0.0006	-0.00013	-0.00077	6
28481	-4e-05	-8e-05	-0.0001	-0.00013	-0.0004	0.00048	9e-05	-0.00054	6
28482	-4e-05	-8e-05	-0.0001	-0.00013	-0.0004	0.00048	9e-05	-0.00054	6
28483	-4e-05	-8e-05	-0.0001	-0.00013	-0.0004	0.00048	9e-05	-0.00054	6
28484	-4e-05	-8e-05	-0.0001	-0.00013	-0.0004	0.00048	9e-05	-0.00054	6
28485	-4e-05	-8e-05	-0.0001	-0.00013	-0.0004	0.00048	9e-05	-0.00054	6
28486	-4e-05	-8e-05	-0.0001	-0.00013	-0.0004	0.00048	9e-05	-0.00054	6
28488	-4e-05	-8e-05	-0.0001	-0.00013	-0.0004	0.00048	9e-05	-0.00054	6
28489	-4e-05	-8e-05	-0.0001	-0.00013	-0.0004	0.00048	9e-05	-0.00054	6
28490	-4e-05	-8e-05	-0.0001	-0.00013	-0.0004	0.00048	9e-05	-0.00054	6
28491	-4e-05	-8e-05	-0.0001	-0.00013	-0.0004	0.00048	9e-05	-0.00054	6
28492	-4e-05	-8e-05	-0.0001	-0.00013	-0.0004	0.00048	9e-05	-0.00054	6
28493	-4e-05	-8e-05	-0.0001	-0.00013	-0.0004	0.00048	9e-05	-0.00054	6
28494	-4e-05	-8e-05	-0.0001	-0.00013	-0.0004	0.00048	9e-05	-0.00054	6
28495	-4e-05	-8e-05	-0.0001	-0.00013	-0.0004	0.00048	9e-05	-0.00054	6
28496	-4e-05	-8e-05	-0.0001	-0.00013	-0.0004	0.00048	9e-05	-0.00054	6
28497	-4e-05	-8e-05	-0.0001	-0.00013	-0.0004	0.00048	9e-05	-0.00054	6
28498	-4e-05	-8e-05	-0.0001	-0.00013	-0.0004	0.00048	9e-05	-0.00054	6
28499	-4e-05	-8e-05	-0.0001	-0.00013	-0.0004	0.00048	9e-05	-0.00054	6
28500	-4e-05	-8e-05	-0.0001	-0.00013	-0.0004	0.00048	9e-05	-0.00054	6
28501	-4e-05	-8e-05	-0.0001	-0.00013	-0.0004	0.00048	9e-05	-0.00054	6
28502	-4e-05	-8e-05	-0.0001	-0.00013	-0.0004	0.00048	9e-05	-0.00054	6
28503	-7e-05	0	-2e-05	-0.00017	-0.00079	-0.00105	-2e-05	-0.00091	6
28504	-5e-05	-1e-05	1e-05	9e-05	0.0006	0.00079	0.00032	-0.00012	6
28505	-5e-05	-1e-05	1e-05	9e-05	0.0006	0.00079	0.00032	-0.00012	6
28506	-5e-05	-1e-05	1e-05	9e-05	0.0006	0.00079	0.00032	-0.00012	6
28507	-5e-05	-1e-05	1e-05	9e-05	0.0006	0.00079	0.00032	-0.00012	6
28508	-5e-05	-1e-05	1e-05	9e-05	0.0006	0.00079	0.00032	-0.00012	6
28509	-5e-05	-1e-05	1e-05	9e-05	0.0006	0.00079	0.00032	-0.00012	6
28510	-5e-05	-1e-05	1e-05	9e-05	0.0006	0.00079	0.00032	-0.00012	6
28511	-5e-05	-1e-05	1e-05	9e-05	0.0006	0.00079	0.00032	-0.00012	6
28512	-5e-05	-1e-05	1e-05	9e-05	0.0006	0.00079	0.00032	-0.00012	6
28513	-5e-05	-1e-05	1e-05	9e-05	0.0006	0.00079	0.00032	-0.00012	6
28514	-5e-05	-1e-05	1e-05	9e-05	0.0006	0.00079	0.00032	-0.00012	6
28515	-5e-05	-1e-05	1e-05	9e-05	0.0006	0.00079	0.00032	-0.00012	6
28516	-5e-05	-1e-05	1e-05	9e-05	0.0006	0.00079	0.00032	-0.00012	6
28517	-5e-05	-1e-05	1e-05	9e-05	0.0006	0.00079	0.00032	-0.00012	6
28518	-5e-05	-1e-05	1e-05	9e-05	0.0006	0.00079	0.00032	-0.00012	6
28519	-5e-05	-1e-05	1e-05	9e-05	0.0006	0.00079	0.00032	-0.00012	6
28520	-5e-05	-1e-05	1e-05	9e-05	0.0006	0.00079	0.00032	-0.00012	6
28521	-5e-05	-1e-05	1e-05	9e-05	0.0006	0.00079	0.00032	-0.00012	6
28522	-5e-05	-1e-05	1e-05	9e-05	0.0006	0.00079	0.00032	-0.00012	6
28523	-5e-05	-1e-05	1e-05	9e-05	0.0006	0.00079	0.00032	-0.00012	6
28525	6e-05	3e-05	3e-05	9e-05	3e-05	-0.00025	0.00022	0.00063	6
28526	6e-05	3e-05	3e-05	9e-05	3e-05	-0.00025	0.00022	0.00063	6
28527	-3e-05	3e-05	5e-05	-3e-05	9e-05	0.00069	-4e-05	-0.00075	6
28528	-3e-05	3e-05	5e-05	-3e-05	9e-05	0.00069	-4e-05	-0.00075	6
28529	-3e-05	3e-05	5e-05	-3e-05	9e-05	0.00069	-4e-05	-0.00075	6
28530	-3e-05	3e-05	5e-05	-3e-05	9e-05	0.00069	-4e-05	-0.00075	6
28531	-3e-05	3e-05	5e-05	-3e-05	9e-05	0.00069	-4e-05	-0.00075	6
28532	-3e-05	3e-05	5e-05	-3e-05	9e-05	0.00069	-4e-05	-0.00075	6
28533	-3e-05	3e-05	5e-05	-3e-05	9e-05	0.00069	-4e-05	-0.00075	6
28534	-3e-05	3e-05	5e-05	-3e-05	9e-05	0.00069	-4e-05	-0.00075	6
28535	-3e-05	3e-05	5e-05	-3e-05	9e-05	0.00069	-4e-05	-0.00075	6
28536	-3e-05	3e-05	5e-05	-3e-05	9e-05	0.00069	-4e-05	-0.00075	6
28538	-3e-05	3e-05	5e-05	-3e-05	9e-05	0.00069	-4e-05	-0.00075	6
28539	-6e-05	0	-3e-05	6e-05	7e-05	-8e-05	6e-05	-0.00066	6
28540	-6e-05	0	-3e-05	6e-05	7e-05	-8e-05	6e-05	-0.00066	6
28541	-6e-05	0	-3e-05	6e-05	7e-05	-8e-05	6e-05	-0.00066	6
28542	-6e-05	0	-3e-05	6e-05	7e-05	-8e-05	6e-05	-0.00066	6
28543	-6e-05	0	-3e-05	6e-05	7e-05	-8e-05	6e-05	-0.00066	6
28544	-6e-05	0	-3e-05	6e-05	7e-05	-8e-05	6e-05	-0.00066	6
28545	-6e-05	0	-3e-05	6e-05	7e-05	-8e-05	6e-05	-0.00066	6
28546	-6e-05	0	-3e-05	6e-05	7e-05	-8e-05	6e-05	-0.00066	6
28547	-6e-05	0	-3e-05	6e-05	7e-05	-8e-05	6e-05	-0.00066	6
28548	0	1e-05	-1e-05	-7e-05	-0.00056	-0.00093	0.00018	-0.00034	6
28549	0	1e-05	-1e-05	-7e-05	-0.00056	-0.00093	0.00018	-0.00034	6
28550	0	1e-05	-1e-05	-7e-05	-0.00056	-0.00093	0.00018	-0.00034	6
28551	0	1e-05	-1e-05	-7e-05	-0.00056	-0.00093	0.00018	-0.00034	6
28552	0	1e-05	-1e-05	-7e-05	-0.00056	-0.00093	0.00018	-0.00034	6
28553	0	1e-05	-1e-05	-7e-05	-0.00056	-0.00093	0.00018	-0.00034	6
28554	0	1e-05	-1e-05	-7e-05	-0.00056	-0.00093	0.00018	-0.00034	6
28555	0	1e-05	-1e-05	-7e-05	-0.00056	-0.00093	0.00018	-0.00034	6
28556	0	1e-05	-1e-05	-7e-05	-0.00056	-0.00093	0.00018	-0.00034	6
28557	0	1e-05	-1e-05	-7e-05	-0.00056	-0.00093	0.00018	-0.00034	6
28558	0	1e-05	-1e-05	-7e-05	-0.00056	-0.00093	0.00018	-0.00034	6
28559	0	1e-05	-1e-05	-7e-05	-0.00056	-0.00093	0.00018	-0.00034	6
28560	0	1e-05	-1e-05	-7e-05	-0.00056	-0.00093	0.00018	-0.00034	6
28561	0	1e-05	-1e-05	-7e-05	-0.00056	-0.00093	0.00018	-0.00034	6
28562	0	1e-05	-1e-05	-7e-05	-0.00056	-0.00093	0.00018	-0.00034	6
28563	3e-05	1e-05	-1e-05	7e-05	-0.00023	-0.00021	4e-05	0.00019	6
28564	-4e-05	-9e-05	-8e-05	-0.00012	-0.00043	-8e-05	-4e-05	0.00012	6
28565	-4e-05	-9e-05	-8e-05	-0.00012	-0.00043	-8e-05	-4e-05	0.00012	6
28566	-4e-05	-9e-05	-8e-05	-0.00012	-0.00043	-8e-05	-4e-05	0.00012	6
28567	-4e-05	-9e-05	-8e-05	-0.00012	-0.00043	-8e-05	-4e-05	0.00012	6
28568	-4e-05	-9e-05	-8e-05	-0.00012	-0.00043	-8e-05	-4e-05	0.00012	6
28569	-4e-05	-9e-05	-8e-05	-0.00012	-0.00043	-8e-05	-4e-05	0.00012	6
28570	-4e-05	-9e-05	-8e-05	-0.00012	-0.00043	-8e-05	-4e-05	0.00012	6
28571	-4e-05	-9e-05	-8e-05	-0.00012	-0.00043	-8e-05	-4e-05	0.00012	6
28572	-4e-05	-9e-05	-8e-05	-0.00012	-0.00043	-8e-05	-4e-05	0.00012	6
28573	-4e-05	-9e-05	-8e-05	-0.00012	-0.00043	-8e-05	-4e-05	0.00012	6
28574	-4e-05	-9e-05	-8e-05	-0.00012	-0.00043	-8e-05	-4e-05	0.00012	6
28575	-4e-05	-9e-05	-8e-05	-0.00012	-0.00043	-8e-05	-4e-05	0.00012	6
28576	-4e-05	-9e-05	-8e-05	-0.00012	-0.00043	-8e-05	-4e-05	0.00012	6
28577	-4e-05	-9e-05	-8e-05	-0.00012	-0.00043	-8e-05	-4e-05	0.00012	6
28578	-4e-05	-9e-05	-8e-05	-0.00012	-0.00043	-8e-05	-4e-05	0.00012	6
28579	-4e-05	-9e-05	-8e-05	-0.00012	-0.00043	-8e-05	-4e-05	0.00012	6
28580	-4e-05	-9e-05	-8e-05	-0.00012	-0.00043	-8e-05	-4e-05	0.00012	6
28581	-4e-05	-9e-05	-8e-05	-0.00012	-0.00043	-8e-05	-4e-05	0.00012	6
28582	-4e-05	-9e-05	-8e-05	-0.00012	-0.00043	-8e-05	-4e-05	0.00012	6
28583	-4e-05	-9e-05	-8e-05	-0.00012	-0.00043	-8e-05	-4e-05	0.00012	6
28584	-4e-05	-9e-05	-8e-05	-0.00012	-0.00043	-8e-05	-4e-05	0.00012	6
28585	5e-05	0	4e-05	0.00014	0.00052	0.00097	-2e-05	0.00031	6
28586	5e-05	0	4e-05	0.00014	0.00052	0.00097	-2e-05	0.00031	6
28588	3e-05	-5e-05	-6e-05	-7e-05	-0.00026	0.00083	-0.0001	0.00119	6
28589	3e-05	-5e-05	-6e-05	-7e-05	-0.00026	0.00083	-0.0001	0.00119	6
28590	3e-05	-5e-05	-6e-05	-7e-05	-0.00026	0.00083	-0.0001	0.00119	6
28591	3e-05	-5e-05	-6e-05	-7e-05	-0.00026	0.00083	-0.0001	0.00119	6
28592	3e-05	-5e-05	-6e-05	-7e-05	-0.00026	0.00083	-0.0001	0.00119	6
28593	3e-05	-5e-05	-6e-05	-7e-05	-0.00026	0.00083	-0.0001	0.00119	6
28594	3e-05	-5e-05	-6e-05	-7e-05	-0.00026	0.00083	-0.0001	0.00119	6
28595	3e-05	-5e-05	-6e-05	-7e-05	-0.00026	0.00083	-0.0001	0.00119	6
28596	3e-05	-5e-05	-6e-05	-7e-05	-0.00026	0.00083	-0.0001	0.00119	6
28597	3e-05	-5e-05	-6e-05	-7e-05	-0.00026	0.00083	-0.0001	0.00119	6
28598	3e-05	-5e-05	-6e-05	-7e-05	-0.00026	0.00083	-0.0001	0.00119	6
28599	3e-05	-5e-05	-6e-05	-7e-05	-0.00026	0.00083	-0.0001	0.00119	6
28600	3e-05	-5e-05	-6e-05	-7e-05	-0.00026	0.00083	-0.0001	0.00119	6
28601	3e-05	-5e-05	-6e-05	-7e-05	-0.00026	0.00083	-0.0001	0.00119	6
28602	3e-05	-5e-05	-6e-05	-7e-05	-0.00026	0.00083	-0.0001	0.00119	6
28603	3e-05	-5e-05	-6e-05	-7e-05	-0.00026	0.00083	-0.0001	0.00119	6
28604	3e-05	-5e-05	-6e-05	-7e-05	-0.00026	0.00083	-0.0001	0.00119	6
28605	3e-05	-5e-05	-6e-05	-7e-05	-0.00026	0.00083	-0.0001	0.00119	6
28606	3e-05	-5e-05	-6e-05	-7e-05	-0.00026	0.00083	-0.0001	0.00119	6
28607	3e-05	-5e-05	-6e-05	-7e-05	-0.00026	0.00083	-0.0001	0.00119	6
28608	-9e-05	-6e-05	-5e-05	6e-05	0.00012	-0.00023	-1e-05	-8e-05	6
28609	3e-05	2e-05	1e-05	-4e-05	-3e-05	0.00013	0.00036	-9e-05	6
28610	-6e-05	-3e-05	-4e-05	-1e-05	-0.00014	-0.00089	-0.00018	-4e-05	6
28611	-6e-05	-3e-05	-4e-05	-1e-05	-0.00014	-0.00089	-0.00018	-4e-05	6
28612	-6e-05	-3e-05	-4e-05	-1e-05	-0.00014	-0.00089	-0.00018	-4e-05	6
28613	-6e-05	-3e-05	-4e-05	-1e-05	-0.00014	-0.00089	-0.00018	-4e-05	6
28614	-6e-05	-3e-05	-4e-05	-1e-05	-0.00014	-0.00089	-0.00018	-4e-05	6
28615	-6e-05	-3e-05	-4e-05	-1e-05	-0.00014	-0.00089	-0.00018	-4e-05	6
28616	-6e-05	-3e-05	-4e-05	-1e-05	-0.00014	-0.00089	-0.00018	-4e-05	6
28617	-6e-05	-3e-05	-4e-05	-1e-05	-0.00014	-0.00089	-0.00018	-4e-05	6
28618	-6e-05	-3e-05	-4e-05	-1e-05	-0.00014	-0.00089	-0.00018	-4e-05	6
28619	-6e-05	-3e-05	-4e-05	-1e-05	-0.00014	-0.00089	-0.00018	-4e-05	6
28620	-6e-05	-3e-05	-4e-05	-1e-05	-0.00014	-0.00089	-0.00018	-4e-05	6
28621	-6e-05	-3e-05	-4e-05	-1e-05	-0.00014	-0.00089	-0.00018	-4e-05	6
28622	-6e-05	-3e-05	-4e-05	-1e-05	-0.00014	-0.00089	-0.00018	-4e-05	6
28623	5e-05	1e-05	1e-05	-2e-05	0.00025	0.0006	2e-05	0.00027	6
28624	-7e-05	1e-05	3e-05	0.00015	-0.00016	-0.0003	0.00044	-0.0001	6
28625	3e-05	-3e-05	-4e-05	7e-05	0.00056	-0.00047	-0.00067	-0.00027	6
28626	3e-05	-3e-05	-4e-05	7e-05	0.00056	-0.00047	-0.00067	-0.00027	6
28627	3e-05	-3e-05	-4e-05	7e-05	0.00056	-0.00047	-0.00067	-0.00027	6
28628	3e-05	-3e-05	-4e-05	7e-05	0.00056	-0.00047	-0.00067	-0.00027	6
28629	3e-05	-3e-05	-4e-05	7e-05	0.00056	-0.00047	-0.00067	-0.00027	6
28630	3e-05	-3e-05	-4e-05	7e-05	0.00056	-0.00047	-0.00067	-0.00027	6
28631	3e-05	-3e-05	-4e-05	7e-05	0.00056	-0.00047	-0.00067	-0.00027	6
28632	3e-05	-3e-05	-4e-05	7e-05	0.00056	-0.00047	-0.00067	-0.00027	6
28633	3e-05	-3e-05	-4e-05	7e-05	0.00056	-0.00047	-0.00067	-0.00027	6
28634	3e-05	-3e-05	-4e-05	7e-05	0.00056	-0.00047	-0.00067	-0.00027	6
28635	3e-05	-3e-05	-4e-05	7e-05	0.00056	-0.00047	-0.00067	-0.00027	6
28636	3e-05	-3e-05	-4e-05	7e-05	0.00056	-0.00047	-0.00067	-0.00027	6
28638	3e-05	-3e-05	-4e-05	7e-05	0.00056	-0.00047	-0.00067	-0.00027	6
28639	3e-05	-3e-05	-4e-05	7e-05	0.00056	-0.00047	-0.00067	-0.00027	6
28640	3e-05	-3e-05	-4e-05	7e-05	0.00056	-0.00047	-0.00067	-0.00027	6
28641	3e-05	-3e-05	-4e-05	7e-05	0.00056	-0.00047	-0.00067	-0.00027	6
28642	3e-05	-3e-05	-4e-05	7e-05	0.00056	-0.00047	-0.00067	-0.00027	6
28643	3e-05	-3e-05	-4e-05	7e-05	0.00056	-0.00047	-0.00067	-0.00027	6
28644	3e-05	-3e-05	-4e-05	7e-05	0.00056	-0.00047	-0.00067	-0.00027	6
28645	0	-1e-05	2e-05	1e-05	5e-05	5e-05	-0.00017	-7e-05	6
28646	0	-1e-05	2e-05	1e-05	5e-05	5e-05	-0.00017	-7e-05	6
28647	-9e-05	2e-05	-1e-05	-5e-05	5e-05	0.00028	-4e-05	-0.00088	6
28648	-9e-05	2e-05	-1e-05	-5e-05	5e-05	0.00028	-4e-05	-0.00088	6
28649	-9e-05	2e-05	-1e-05	-5e-05	5e-05	0.00028	-4e-05	-0.00088	6
28650	-9e-05	2e-05	-1e-05	-5e-05	5e-05	0.00028	-4e-05	-0.00088	6
28651	-9e-05	2e-05	-1e-05	-5e-05	5e-05	0.00028	-4e-05	-0.00088	6
28652	-9e-05	2e-05	-1e-05	-5e-05	5e-05	0.00028	-4e-05	-0.00088	6
28653	-9e-05	2e-05	-1e-05	-5e-05	5e-05	0.00028	-4e-05	-0.00088	6
28654	-9e-05	2e-05	-1e-05	-5e-05	5e-05	0.00028	-4e-05	-0.00088	6
28655	-9e-05	2e-05	-1e-05	-5e-05	5e-05	0.00028	-4e-05	-0.00088	6
28656	-9e-05	2e-05	-1e-05	-5e-05	5e-05	0.00028	-4e-05	-0.00088	6
28657	-9e-05	2e-05	-1e-05	-5e-05	5e-05	0.00028	-4e-05	-0.00088	6
28658	-9e-05	2e-05	-1e-05	-5e-05	5e-05	0.00028	-4e-05	-0.00088	6
28659	-9e-05	2e-05	-1e-05	-5e-05	5e-05	0.00028	-4e-05	-0.00088	6
28660	-8e-05	-3e-05	-2e-05	0.00012	0.00077	0.00024	-2e-05	-0.00055	6
28661	-8e-05	-3e-05	-2e-05	0.00012	0.00077	0.00024	-2e-05	-0.00055	6
28662	-8e-05	-3e-05	-2e-05	0.00012	0.00077	0.00024	-2e-05	-0.00055	6
28663	-8e-05	-3e-05	-2e-05	0.00012	0.00077	0.00024	-2e-05	-0.00055	6
28664	-8e-05	-3e-05	-2e-05	0.00012	0.00077	0.00024	-2e-05	-0.00055	6
28665	-8e-05	-3e-05	-2e-05	0.00012	0.00077	0.00024	-2e-05	-0.00055	6
28666	0.0001	2e-05	-1e-05	-3e-05	-0.00037	0.0001	-0.00039	0.00029	6
28667	8e-05	5e-05	5e-05	4e-05	0.00035	0.00065	0.00023	0.00051	6
28668	8e-05	5e-05	5e-05	4e-05	0.00035	0.00065	0.00023	0.00051	6
28669	8e-05	5e-05	5e-05	4e-05	0.00035	0.00065	0.00023	0.00051	6
28670	8e-05	5e-05	5e-05	4e-05	0.00035	0.00065	0.00023	0.00051	6
28671	8e-05	5e-05	5e-05	4e-05	0.00035	0.00065	0.00023	0.00051	6
28672	8e-05	5e-05	5e-05	4e-05	0.00035	0.00065	0.00023	0.00051	6
28673	8e-05	5e-05	5e-05	4e-05	0.00035	0.00065	0.00023	0.00051	6
28674	8e-05	5e-05	5e-05	4e-05	0.00035	0.00065	0.00023	0.00051	6
28675	8e-05	5e-05	5e-05	4e-05	0.00035	0.00065	0.00023	0.00051	6
28676	8e-05	5e-05	5e-05	4e-05	0.00035	0.00065	0.00023	0.00051	6
28677	8e-05	5e-05	5e-05	4e-05	0.00035	0.00065	0.00023	0.00051	6
28678	8e-05	5e-05	5e-05	4e-05	0.00035	0.00065	0.00023	0.00051	6
28679	8e-05	5e-05	5e-05	4e-05	0.00035	0.00065	0.00023	0.00051	6
28680	8e-05	5e-05	5e-05	4e-05	0.00035	0.00065	0.00023	0.00051	6
28681	8e-05	5e-05	5e-05	4e-05	0.00035	0.00065	0.00023	0.00051	6
28682	8e-05	5e-05	5e-05	4e-05	0.00035	0.00065	0.00023	0.00051	6
28683	3e-05	1e-05	0	-0.0001	-0.00085	-0.00124	0.00033	0.00052	6
28684	-5e-05	-3e-05	-3e-05	-0.0001	0.00023	1e-05	0.00011	0.00015	6
28685	-5e-05	-3e-05	-3e-05	-0.0001	0.00023	1e-05	0.00011	0.00015	6
28686	-5e-05	-3e-05	-3e-05	-0.0001	0.00023	1e-05	0.00011	0.00015	6
28688	-5e-05	-3e-05	-3e-05	-0.0001	0.00023	1e-05	0.00011	0.00015	6
28689	-5e-05	-3e-05	-3e-05	-0.0001	0.00023	1e-05	0.00011	0.00015	6
28690	-5e-05	-3e-05	-3e-05	-0.0001	0.00023	1e-05	0.00011	0.00015	6
28691	-5e-05	-3e-05	-3e-05	-0.0001	0.00023	1e-05	0.00011	0.00015	6
28692	-5e-05	-3e-05	-3e-05	-0.0001	0.00023	1e-05	0.00011	0.00015	6
28693	-5e-05	-3e-05	-3e-05	-0.0001	0.00023	1e-05	0.00011	0.00015	6
28694	-5e-05	-3e-05	-3e-05	-0.0001	0.00023	1e-05	0.00011	0.00015	6
28695	-5e-05	-3e-05	-3e-05	-0.0001	0.00023	1e-05	0.00011	0.00015	6
28696	-5e-05	-3e-05	-3e-05	-0.0001	0.00023	1e-05	0.00011	0.00015	6
28697	-5e-05	-3e-05	-3e-05	-0.0001	0.00023	1e-05	0.00011	0.00015	6
28698	-5e-05	-3e-05	-3e-05	-0.0001	0.00023	1e-05	0.00011	0.00015	6
28699	-5e-05	-3e-05	-3e-05	-0.0001	0.00023	1e-05	0.00011	0.00015	6
28700	-5e-05	-3e-05	-3e-05	-0.0001	0.00023	1e-05	0.00011	0.00015	6
28701	-5e-05	-3e-05	-3e-05	-0.0001	0.00023	1e-05	0.00011	0.00015	6
28702	-5e-05	-3e-05	-3e-05	-0.0001	0.00023	1e-05	0.00011	0.00015	6
28703	-5e-05	-3e-05	-3e-05	-0.0001	0.00023	1e-05	0.00011	0.00015	6
28704	-5e-05	-3e-05	-3e-05	-0.0001	0.00023	1e-05	0.00011	0.00015	6
28705	-2e-05	-6e-05	-5e-05	5e-05	0.00014	0.00021	-0.00018	0.00058	6
28706	-2e-05	-6e-05	-5e-05	5e-05	0.00014	0.00021	-0.00018	0.00058	6
28707	6e-05	-3e-05	-2e-05	0	0	-0.00012	0.00029	-8e-05	6
28708	6e-05	-3e-05	-2e-05	0	0	-0.00012	0.00029	-8e-05	6
28709	6e-05	-3e-05	-2e-05	0	0	-0.00012	0.00029	-8e-05	6
28710	6e-05	-3e-05	-2e-05	0	0	-0.00012	0.00029	-8e-05	6
28711	6e-05	-3e-05	-2e-05	0	0	-0.00012	0.00029	-8e-05	6
28712	6e-05	-3e-05	-2e-05	0	0	-0.00012	0.00029	-8e-05	6
28713	6e-05	-3e-05	-2e-05	0	0	-0.00012	0.00029	-8e-05	6
28714	6e-05	-3e-05	-2e-05	0	0	-0.00012	0.00029	-8e-05	6
28715	6e-05	-3e-05	-2e-05	0	0	-0.00012	0.00029	-8e-05	6
28716	6e-05	-3e-05	-2e-05	0	0	-0.00012	0.00029	-8e-05	6
28717	6e-05	-3e-05	-2e-05	0	0	-0.00012	0.00029	-8e-05	6
28718	6e-05	-3e-05	-2e-05	0	0	-0.00012	0.00029	-8e-05	6
28719	6e-05	-3e-05	-2e-05	0	0	-0.00012	0.00029	-8e-05	6
28720	0	0	-7e-05	-6e-05	-0.00028	0.00022	-8e-05	-0.00019	6
28721	0	0	-7e-05	-6e-05	-0.00028	0.00022	-8e-05	-0.00019	6
28722	0	0	-7e-05	-6e-05	-0.00028	0.00022	-8e-05	-0.00019	6
28723	0	0	-7e-05	-6e-05	-0.00028	0.00022	-8e-05	-0.00019	6
28724	0	0	-7e-05	-6e-05	-0.00028	0.00022	-8e-05	-0.00019	6
28725	0	0	-7e-05	-6e-05	-0.00028	0.00022	-8e-05	-0.00019	6
28726	0	0	-7e-05	-6e-05	-0.00028	0.00022	-8e-05	-0.00019	6
28727	-4e-05	-2e-05	2e-05	0.00011	-8e-05	-8e-05	0.00046	-0.00018	6
28728	-4e-05	-2e-05	2e-05	0.00011	-8e-05	-8e-05	0.00046	-0.00018	6
28729	-4e-05	-2e-05	2e-05	0.00011	-8e-05	-8e-05	0.00046	-0.00018	6
28730	-4e-05	-2e-05	2e-05	0.00011	-8e-05	-8e-05	0.00046	-0.00018	6
28731	-4e-05	-2e-05	2e-05	0.00011	-8e-05	-8e-05	0.00046	-0.00018	6
28732	-4e-05	-2e-05	2e-05	0.00011	-8e-05	-8e-05	0.00046	-0.00018	6
28733	-4e-05	-2e-05	2e-05	0.00011	-8e-05	-8e-05	0.00046	-0.00018	6
28734	-4e-05	-2e-05	2e-05	0.00011	-8e-05	-8e-05	0.00046	-0.00018	6
28735	-4e-05	-2e-05	2e-05	0.00011	-8e-05	-8e-05	0.00046	-0.00018	6
28736	-4e-05	-2e-05	2e-05	0.00011	-8e-05	-8e-05	0.00046	-0.00018	6
28738	-4e-05	-2e-05	2e-05	0.00011	-8e-05	-8e-05	0.00046	-0.00018	6
28739	-4e-05	-2e-05	2e-05	0.00011	-8e-05	-8e-05	0.00046	-0.00018	6
28740	-4e-05	-2e-05	2e-05	0.00011	-8e-05	-8e-05	0.00046	-0.00018	6
28741	-4e-05	-2e-05	2e-05	0.00011	-8e-05	-8e-05	0.00046	-0.00018	6
28742	-4e-05	-2e-05	2e-05	0.00011	-8e-05	-8e-05	0.00046	-0.00018	6
28743	-3e-05	-1e-05	0	-0.00017	-0.00022	-0.00058	-7e-05	-4e-05	6
28744	4e-05	-4e-05	-4e-05	0.00016	0.00025	4e-05	-5e-05	0.00064	6
28745	2e-05	4e-05	3e-05	-9e-05	4e-05	0	0.00011	0.00024	6
28746	2e-05	4e-05	3e-05	-9e-05	4e-05	0	0.00011	0.00024	6
28747	2e-05	4e-05	3e-05	-9e-05	4e-05	0	0.00011	0.00024	6
28748	2e-05	4e-05	3e-05	-9e-05	4e-05	0	0.00011	0.00024	6
28749	2e-05	4e-05	3e-05	-9e-05	4e-05	0	0.00011	0.00024	6
28750	2e-05	4e-05	3e-05	-9e-05	4e-05	0	0.00011	0.00024	6
28751	2e-05	4e-05	3e-05	-9e-05	4e-05	0	0.00011	0.00024	6
28752	2e-05	4e-05	3e-05	-9e-05	4e-05	0	0.00011	0.00024	6
28753	2e-05	4e-05	3e-05	-9e-05	4e-05	0	0.00011	0.00024	6
28754	2e-05	4e-05	3e-05	-9e-05	4e-05	0	0.00011	0.00024	6
28755	2e-05	4e-05	3e-05	-9e-05	4e-05	0	0.00011	0.00024	6
28756	2e-05	4e-05	3e-05	-9e-05	4e-05	0	0.00011	0.00024	6
28757	2e-05	4e-05	3e-05	-9e-05	4e-05	0	0.00011	0.00024	6
28758	2e-05	4e-05	3e-05	-9e-05	4e-05	0	0.00011	0.00024	6
28759	2e-05	4e-05	3e-05	-9e-05	4e-05	0	0.00011	0.00024	6
28760	2e-05	4e-05	3e-05	-9e-05	4e-05	0	0.00011	0.00024	6
28761	2e-05	4e-05	3e-05	-9e-05	4e-05	0	0.00011	0.00024	6
28762	2e-05	4e-05	3e-05	-9e-05	4e-05	0	0.00011	0.00024	6
28763	2e-05	4e-05	3e-05	-9e-05	4e-05	0	0.00011	0.00024	6
28764	2e-05	4e-05	3e-05	-9e-05	4e-05	0	0.00011	0.00024	6
28765	-4e-05	-4e-05	-5e-05	-9e-05	-0.00017	6e-05	-0.0001	3e-05	6
28766	-4e-05	-4e-05	-5e-05	-9e-05	-0.00017	6e-05	-0.0001	3e-05	6
28767	1e-05	2e-05	3e-05	8e-05	0.00017	0.00103	2e-05	0.00014	6
28768	1e-05	2e-05	3e-05	8e-05	0.00017	0.00103	2e-05	0.00014	6
28769	1e-05	2e-05	3e-05	8e-05	0.00017	0.00103	2e-05	0.00014	6
28770	1e-05	2e-05	3e-05	8e-05	0.00017	0.00103	2e-05	0.00014	6
28771	1e-05	2e-05	3e-05	8e-05	0.00017	0.00103	2e-05	0.00014	6
28772	1e-05	2e-05	3e-05	8e-05	0.00017	0.00103	2e-05	0.00014	6
28773	1e-05	2e-05	3e-05	8e-05	0.00017	0.00103	2e-05	0.00014	6
28774	1e-05	2e-05	3e-05	8e-05	0.00017	0.00103	2e-05	0.00014	6
28775	1e-05	2e-05	3e-05	8e-05	0.00017	0.00103	2e-05	0.00014	6
28776	1e-05	2e-05	3e-05	8e-05	0.00017	0.00103	2e-05	0.00014	6
28777	1e-05	2e-05	3e-05	8e-05	0.00017	0.00103	2e-05	0.00014	6
28778	1e-05	2e-05	3e-05	8e-05	0.00017	0.00103	2e-05	0.00014	6
28779	1e-05	2e-05	3e-05	8e-05	0.00017	0.00103	2e-05	0.00014	6
28780	4e-05	1e-05	3e-05	9e-05	0.0004	0.00067	6e-05	-0.00016	6
28781	4e-05	1e-05	3e-05	9e-05	0.0004	0.00067	6e-05	-0.00016	6
28782	4e-05	1e-05	3e-05	9e-05	0.0004	0.00067	6e-05	-0.00016	6
28783	4e-05	1e-05	3e-05	9e-05	0.0004	0.00067	6e-05	-0.00016	6
28784	4e-05	1e-05	3e-05	9e-05	0.0004	0.00067	6e-05	-0.00016	6
28785	4e-05	1e-05	3e-05	9e-05	0.0004	0.00067	6e-05	-0.00016	6
28786	4e-05	1e-05	3e-05	9e-05	0.0004	0.00067	6e-05	-0.00016	6
28788	-8e-05	-4e-05	-3e-05	-2e-05	0.00016	-3e-05	-0.00022	0	6
28789	-8e-05	-4e-05	-3e-05	-2e-05	0.00016	-3e-05	-0.00022	0	6
28790	-8e-05	-4e-05	-3e-05	-2e-05	0.00016	-3e-05	-0.00022	0	6
28791	-8e-05	-4e-05	-3e-05	-2e-05	0.00016	-3e-05	-0.00022	0	6
28792	-8e-05	-4e-05	-3e-05	-2e-05	0.00016	-3e-05	-0.00022	0	6
28793	-8e-05	-4e-05	-3e-05	-2e-05	0.00016	-3e-05	-0.00022	0	6
28794	-8e-05	-4e-05	-3e-05	-2e-05	0.00016	-3e-05	-0.00022	0	6
28795	-8e-05	-4e-05	-3e-05	-2e-05	0.00016	-3e-05	-0.00022	0	6
28796	-8e-05	-4e-05	-3e-05	-2e-05	0.00016	-3e-05	-0.00022	0	6
28797	-8e-05	-4e-05	-3e-05	-2e-05	0.00016	-3e-05	-0.00022	0	6
28798	-8e-05	-4e-05	-3e-05	-2e-05	0.00016	-3e-05	-0.00022	0	6
28799	-8e-05	-4e-05	-3e-05	-2e-05	0.00016	-3e-05	-0.00022	0	6
28800	-8e-05	-4e-05	-3e-05	-2e-05	0.00016	-3e-05	-0.00022	0	6
28801	-8e-05	-4e-05	-3e-05	-2e-05	0.00016	-3e-05	-0.00022	0	6
28802	-8e-05	-4e-05	-3e-05	-2e-05	0.00016	-3e-05	-0.00022	0	6
28803	1e-05	-4e-05	-1e-05	0.00019	0.00066	0.00086	7e-05	0.00074	6
28804	1e-05	-4e-05	-1e-05	0.00019	0.00066	0.00086	7e-05	0.00074	6
28805	-0.00013	-2e-05	-1e-05	0.00012	-3e-05	0.00017	0.0002	-2e-05	6
28806	-0.00013	-2e-05	-1e-05	0.00012	-3e-05	0.00017	0.0002	-2e-05	6
28807	-0.00013	-2e-05	-1e-05	0.00012	-3e-05	0.00017	0.0002	-2e-05	6
28808	-0.00013	-2e-05	-1e-05	0.00012	-3e-05	0.00017	0.0002	-2e-05	6
28809	-0.00013	-2e-05	-1e-05	0.00012	-3e-05	0.00017	0.0002	-2e-05	6
28810	-0.00013	-2e-05	-1e-05	0.00012	-3e-05	0.00017	0.0002	-2e-05	6
28811	-0.00013	-2e-05	-1e-05	0.00012	-3e-05	0.00017	0.0002	-2e-05	6
28812	-0.00013	-2e-05	-1e-05	0.00012	-3e-05	0.00017	0.0002	-2e-05	6
28813	-0.00013	-2e-05	-1e-05	0.00012	-3e-05	0.00017	0.0002	-2e-05	6
28814	-0.00013	-2e-05	-1e-05	0.00012	-3e-05	0.00017	0.0002	-2e-05	6
28815	-0.00013	-2e-05	-1e-05	0.00012	-3e-05	0.00017	0.0002	-2e-05	6
28816	-0.00013	-2e-05	-1e-05	0.00012	-3e-05	0.00017	0.0002	-2e-05	6
28817	-0.00013	-2e-05	-1e-05	0.00012	-3e-05	0.00017	0.0002	-2e-05	6
28818	-0.00013	-2e-05	-1e-05	0.00012	-3e-05	0.00017	0.0002	-2e-05	6
28819	-0.00013	-2e-05	-1e-05	0.00012	-3e-05	0.00017	0.0002	-2e-05	6
28820	-0.00013	-2e-05	-1e-05	0.00012	-3e-05	0.00017	0.0002	-2e-05	6
28821	-0.00013	-2e-05	-1e-05	0.00012	-3e-05	0.00017	0.0002	-2e-05	6
28822	-0.00013	-2e-05	-1e-05	0.00012	-3e-05	0.00017	0.0002	-2e-05	6
28823	-0.00013	-2e-05	-1e-05	0.00012	-3e-05	0.00017	0.0002	-2e-05	6
28824	-0.00013	-2e-05	-1e-05	0.00012	-3e-05	0.00017	0.0002	-2e-05	6
28825	-2e-05	-1e-05	-1e-05	-0.00013	-0.00083	-0.00062	-0.00016	0.00011	6
28826	-2e-05	-1e-05	-1e-05	-0.00013	-0.00083	-0.00062	-0.00016	0.00011	6
28827	1e-05	-5e-05	-4e-05	-0.0002	-0.00042	-0.0003	7e-05	4e-05	6
28828	1e-05	-5e-05	-4e-05	-0.0002	-0.00042	-0.0003	7e-05	4e-05	6
28829	1e-05	-5e-05	-4e-05	-0.0002	-0.00042	-0.0003	7e-05	4e-05	6
28830	1e-05	-5e-05	-4e-05	-0.0002	-0.00042	-0.0003	7e-05	4e-05	6
28831	1e-05	-5e-05	-4e-05	-0.0002	-0.00042	-0.0003	7e-05	4e-05	6
28832	1e-05	-5e-05	-4e-05	-0.0002	-0.00042	-0.0003	7e-05	4e-05	6
28833	1e-05	-5e-05	-4e-05	-0.0002	-0.00042	-0.0003	7e-05	4e-05	6
28834	1e-05	-5e-05	-4e-05	-0.0002	-0.00042	-0.0003	7e-05	4e-05	6
28835	1e-05	-5e-05	-4e-05	-0.0002	-0.00042	-0.0003	7e-05	4e-05	6
28836	1e-05	-5e-05	-4e-05	-0.0002	-0.00042	-0.0003	7e-05	4e-05	6
28838	1e-05	-5e-05	-4e-05	-0.0002	-0.00042	-0.0003	7e-05	4e-05	6
28839	1e-05	-5e-05	-4e-05	-0.0002	-0.00042	-0.0003	7e-05	4e-05	6
28840	4e-05	-2e-05	-3e-05	0.00011	-0.00043	-0.00019	-0.00021	0.00061	6
28841	4e-05	-2e-05	-3e-05	0.00011	-0.00043	-0.00019	-0.00021	0.00061	6
28842	4e-05	-2e-05	-3e-05	0.00011	-0.00043	-0.00019	-0.00021	0.00061	6
28843	4e-05	-2e-05	-3e-05	0.00011	-0.00043	-0.00019	-0.00021	0.00061	6
28844	4e-05	-2e-05	-3e-05	0.00011	-0.00043	-0.00019	-0.00021	0.00061	6
28845	4e-05	-2e-05	-3e-05	0.00011	-0.00043	-0.00019	-0.00021	0.00061	6
28846	4e-05	-2e-05	-3e-05	0.00011	-0.00043	-0.00019	-0.00021	0.00061	6
28847	3e-05	-4e-05	-1e-05	0	-0.00015	-8e-05	-0.0006	-0.0001	6
28848	3e-05	-4e-05	-1e-05	0	-0.00015	-8e-05	-0.0006	-0.0001	6
28849	3e-05	-4e-05	-1e-05	0	-0.00015	-8e-05	-0.0006	-0.0001	6
28850	3e-05	-4e-05	-1e-05	0	-0.00015	-8e-05	-0.0006	-0.0001	6
28851	3e-05	-4e-05	-1e-05	0	-0.00015	-8e-05	-0.0006	-0.0001	6
28852	3e-05	-4e-05	-1e-05	0	-0.00015	-8e-05	-0.0006	-0.0001	6
28853	3e-05	-4e-05	-1e-05	0	-0.00015	-8e-05	-0.0006	-0.0001	6
28854	3e-05	-4e-05	-1e-05	0	-0.00015	-8e-05	-0.0006	-0.0001	6
28855	3e-05	-4e-05	-1e-05	0	-0.00015	-8e-05	-0.0006	-0.0001	6
28856	3e-05	-4e-05	-1e-05	0	-0.00015	-8e-05	-0.0006	-0.0001	6
28857	3e-05	-4e-05	-1e-05	0	-0.00015	-8e-05	-0.0006	-0.0001	6
28858	3e-05	-4e-05	-1e-05	0	-0.00015	-8e-05	-0.0006	-0.0001	6
28859	3e-05	-4e-05	-1e-05	0	-0.00015	-8e-05	-0.0006	-0.0001	6
28860	3e-05	-4e-05	-1e-05	0	-0.00015	-8e-05	-0.0006	-0.0001	6
28861	3e-05	-4e-05	-1e-05	0	-0.00015	-8e-05	-0.0006	-0.0001	6
28862	3e-05	-4e-05	-1e-05	0	-0.00015	-8e-05	-0.0006	-0.0001	6
28863	1e-05	3e-05	0	-0.00017	-0.0005	-0.00015	-0.00015	-0.00017	6
28864	-8e-05	-2e-05	-3e-05	-0.0001	-0.00028	-0.00073	0.00031	0.00066	6
28865	-9e-05	1e-05	-1e-05	0.00021	0.00031	-0.00039	-0.00031	-0.00028	6
28866	-9e-05	1e-05	-1e-05	0.00021	0.00031	-0.00039	-0.00031	-0.00028	6
28867	-9e-05	1e-05	-1e-05	0.00021	0.00031	-0.00039	-0.00031	-0.00028	6
28868	-9e-05	1e-05	-1e-05	0.00021	0.00031	-0.00039	-0.00031	-0.00028	6
28869	-9e-05	1e-05	-1e-05	0.00021	0.00031	-0.00039	-0.00031	-0.00028	6
28870	-9e-05	1e-05	-1e-05	0.00021	0.00031	-0.00039	-0.00031	-0.00028	6
28871	-9e-05	1e-05	-1e-05	0.00021	0.00031	-0.00039	-0.00031	-0.00028	6
28872	-9e-05	1e-05	-1e-05	0.00021	0.00031	-0.00039	-0.00031	-0.00028	6
28873	-9e-05	1e-05	-1e-05	0.00021	0.00031	-0.00039	-0.00031	-0.00028	6
28874	-9e-05	1e-05	-1e-05	0.00021	0.00031	-0.00039	-0.00031	-0.00028	6
28875	-9e-05	1e-05	-1e-05	0.00021	0.00031	-0.00039	-0.00031	-0.00028	6
28876	-9e-05	1e-05	-1e-05	0.00021	0.00031	-0.00039	-0.00031	-0.00028	6
28877	-9e-05	1e-05	-1e-05	0.00021	0.00031	-0.00039	-0.00031	-0.00028	6
28878	-9e-05	1e-05	-1e-05	0.00021	0.00031	-0.00039	-0.00031	-0.00028	6
28879	-9e-05	1e-05	-1e-05	0.00021	0.00031	-0.00039	-0.00031	-0.00028	6
28880	-9e-05	1e-05	-1e-05	0.00021	0.00031	-0.00039	-0.00031	-0.00028	6
28881	-9e-05	1e-05	-1e-05	0.00021	0.00031	-0.00039	-0.00031	-0.00028	6
28882	-9e-05	1e-05	-1e-05	0.00021	0.00031	-0.00039	-0.00031	-0.00028	6
28883	-9e-05	1e-05	-1e-05	0.00021	0.00031	-0.00039	-0.00031	-0.00028	6
28884	-9e-05	1e-05	-1e-05	0.00021	0.00031	-0.00039	-0.00031	-0.00028	6
28885	-5e-05	-3e-05	0	0.00015	0.00101	-0.00017	-0.00038	-0.00046	6
28886	0	-4e-05	-3e-05	-8e-05	-0.00061	3e-05	0.00016	0.00042	6
28888	4e-05	5e-05	8e-05	0.00015	0.00038	-0.00044	0.00018	-0.00066	6
28890	4e-05	5e-05	8e-05	0.00015	0.00038	-0.00044	0.00018	-0.00066	6
28891	4e-05	5e-05	8e-05	0.00015	0.00038	-0.00044	0.00018	-0.00066	6
28892	4e-05	5e-05	8e-05	0.00015	0.00038	-0.00044	0.00018	-0.00066	6
28893	4e-05	5e-05	8e-05	0.00015	0.00038	-0.00044	0.00018	-0.00066	6
28894	4e-05	5e-05	8e-05	0.00015	0.00038	-0.00044	0.00018	-0.00066	6
28895	4e-05	5e-05	8e-05	0.00015	0.00038	-0.00044	0.00018	-0.00066	6
28896	4e-05	5e-05	8e-05	0.00015	0.00038	-0.00044	0.00018	-0.00066	6
28897	4e-05	5e-05	8e-05	0.00015	0.00038	-0.00044	0.00018	-0.00066	6
28898	4e-05	5e-05	8e-05	0.00015	0.00038	-0.00044	0.00018	-0.00066	6
28899	4e-05	5e-05	8e-05	0.00015	0.00038	-0.00044	0.00018	-0.00066	6
28900	1e-05	-1e-05	-1e-05	-0.00011	-8e-05	0.0002	0.00028	-0.0001	6
28901	1e-05	-1e-05	-1e-05	-0.00011	-8e-05	0.0002	0.00028	-0.0001	6
28902	1e-05	-1e-05	-1e-05	-0.00011	-8e-05	0.0002	0.00028	-0.0001	6
28903	1e-05	-1e-05	-1e-05	-0.00011	-8e-05	0.0002	0.00028	-0.0001	6
28904	1e-05	-1e-05	-1e-05	-0.00011	-8e-05	0.0002	0.00028	-0.0001	6
28905	1e-05	-1e-05	-1e-05	-0.00011	-8e-05	0.0002	0.00028	-0.0001	6
28906	-7e-05	-4e-05	-6e-05	-0.00012	0.00013	-0.00022	-0.00028	-0.00046	6
28907	5e-05	-2e-05	0	-2e-05	0.00032	0.00064	0.0001	-0.0001	6
28908	5e-05	-2e-05	0	-2e-05	0.00032	0.00064	0.0001	-0.0001	6
28909	5e-05	-2e-05	0	-2e-05	0.00032	0.00064	0.0001	-0.0001	6
28910	5e-05	-2e-05	0	-2e-05	0.00032	0.00064	0.0001	-0.0001	6
28911	5e-05	-2e-05	0	-2e-05	0.00032	0.00064	0.0001	-0.0001	6
28912	5e-05	-2e-05	0	-2e-05	0.00032	0.00064	0.0001	-0.0001	6
28913	5e-05	-2e-05	0	-2e-05	0.00032	0.00064	0.0001	-0.0001	6
28914	5e-05	-2e-05	0	-2e-05	0.00032	0.00064	0.0001	-0.0001	6
28915	5e-05	-2e-05	0	-2e-05	0.00032	0.00064	0.0001	-0.0001	6
28916	5e-05	-2e-05	0	-2e-05	0.00032	0.00064	0.0001	-0.0001	6
28917	5e-05	-2e-05	0	-2e-05	0.00032	0.00064	0.0001	-0.0001	6
28918	5e-05	-2e-05	0	-2e-05	0.00032	0.00064	0.0001	-0.0001	6
28919	5e-05	-2e-05	0	-2e-05	0.00032	0.00064	0.0001	-0.0001	6
28920	5e-05	-2e-05	0	-2e-05	0.00032	0.00064	0.0001	-0.0001	6
28921	5e-05	-2e-05	0	-2e-05	0.00032	0.00064	0.0001	-0.0001	6
28922	5e-05	-2e-05	0	-2e-05	0.00032	0.00064	0.0001	-0.0001	6
28923	0	-3e-05	-2e-05	-2e-05	0.0003	-0.0001	-0.00056	-0.00061	6
28924	1e-05	3e-05	1e-05	9e-05	0.00019	0.00046	0.00017	0.00034	6
28925	-0.00014	0	-2e-05	-0.00013	-0.00058	-0.00016	0.00014	-0.00088	6
28926	-0.00014	0	-2e-05	-0.00013	-0.00058	-0.00016	0.00014	-0.00088	6
28927	-0.00014	0	-2e-05	-0.00013	-0.00058	-0.00016	0.00014	-0.00088	6
28928	-0.00014	0	-2e-05	-0.00013	-0.00058	-0.00016	0.00014	-0.00088	6
28929	-0.00014	0	-2e-05	-0.00013	-0.00058	-0.00016	0.00014	-0.00088	6
28930	-0.00014	0	-2e-05	-0.00013	-0.00058	-0.00016	0.00014	-0.00088	6
28931	-0.00014	0	-2e-05	-0.00013	-0.00058	-0.00016	0.00014	-0.00088	6
28932	-0.00014	0	-2e-05	-0.00013	-0.00058	-0.00016	0.00014	-0.00088	6
28933	-0.00014	0	-2e-05	-0.00013	-0.00058	-0.00016	0.00014	-0.00088	6
28934	-0.00014	0	-2e-05	-0.00013	-0.00058	-0.00016	0.00014	-0.00088	6
28935	-0.00014	0	-2e-05	-0.00013	-0.00058	-0.00016	0.00014	-0.00088	6
28936	-0.00014	0	-2e-05	-0.00013	-0.00058	-0.00016	0.00014	-0.00088	6
28938	-0.00014	0	-2e-05	-0.00013	-0.00058	-0.00016	0.00014	-0.00088	6
28939	-0.00014	0	-2e-05	-0.00013	-0.00058	-0.00016	0.00014	-0.00088	6
28940	-0.00014	0	-2e-05	-0.00013	-0.00058	-0.00016	0.00014	-0.00088	6
28941	-0.00014	0	-2e-05	-0.00013	-0.00058	-0.00016	0.00014	-0.00088	6
28942	-0.00014	0	-2e-05	-0.00013	-0.00058	-0.00016	0.00014	-0.00088	6
28943	-0.00014	0	-2e-05	-0.00013	-0.00058	-0.00016	0.00014	-0.00088	6
28944	-0.00014	0	-2e-05	-0.00013	-0.00058	-0.00016	0.00014	-0.00088	6
28945	-3e-05	-3e-05	-3e-05	1e-05	0	0.00067	0.00038	-0.00039	6
28946	-3e-05	-3e-05	-3e-05	1e-05	0	0.00067	0.00038	-0.00039	6
28947	1e-05	0	-2e-05	-8e-05	3e-05	-4e-05	0.00035	0.00038	6
28948	1e-05	0	-2e-05	-8e-05	3e-05	-4e-05	0.00035	0.00038	6
28949	1e-05	0	-2e-05	-8e-05	3e-05	-4e-05	0.00035	0.00038	6
28950	1e-05	0	-2e-05	-8e-05	3e-05	-4e-05	0.00035	0.00038	6
28951	1e-05	0	-2e-05	-8e-05	3e-05	-4e-05	0.00035	0.00038	6
28952	1e-05	0	-2e-05	-8e-05	3e-05	-4e-05	0.00035	0.00038	6
28953	1e-05	0	-2e-05	-8e-05	3e-05	-4e-05	0.00035	0.00038	6
28954	1e-05	0	-2e-05	-8e-05	3e-05	-4e-05	0.00035	0.00038	6
28955	1e-05	0	-2e-05	-8e-05	3e-05	-4e-05	0.00035	0.00038	6
28956	1e-05	0	-2e-05	-8e-05	3e-05	-4e-05	0.00035	0.00038	6
28957	1e-05	0	-2e-05	-8e-05	3e-05	-4e-05	0.00035	0.00038	6
28958	1e-05	0	-2e-05	-8e-05	3e-05	-4e-05	0.00035	0.00038	6
28959	1e-05	0	-2e-05	-8e-05	3e-05	-4e-05	0.00035	0.00038	6
28960	1e-05	0	-2e-05	-8e-05	3e-05	-4e-05	0.00035	0.00038	6
28961	4e-05	-3e-05	-5e-05	3e-05	0.00029	-3e-05	-7e-05	0.00086	6
28962	4e-05	-3e-05	-5e-05	3e-05	0.00029	-3e-05	-7e-05	0.00086	6
28963	4e-05	-3e-05	-5e-05	3e-05	0.00029	-3e-05	-7e-05	0.00086	6
28964	4e-05	-3e-05	-5e-05	3e-05	0.00029	-3e-05	-7e-05	0.00086	6
28965	4e-05	-3e-05	-5e-05	3e-05	0.00029	-3e-05	-7e-05	0.00086	6
28966	4e-05	-3e-05	-5e-05	3e-05	0.00029	-3e-05	-7e-05	0.00086	6
28967	6e-05	2e-05	1e-05	4e-05	0.00037	0.00047	0.00076	-7e-05	6
28968	1e-05	-4e-05	-2e-05	5e-05	-0.00017	0.00015	-1e-05	-4e-05	6
28969	1e-05	-4e-05	-2e-05	5e-05	-0.00017	0.00015	-1e-05	-4e-05	6
28970	1e-05	-4e-05	-2e-05	5e-05	-0.00017	0.00015	-1e-05	-4e-05	6
28971	1e-05	-4e-05	-2e-05	5e-05	-0.00017	0.00015	-1e-05	-4e-05	6
28972	1e-05	-4e-05	-2e-05	5e-05	-0.00017	0.00015	-1e-05	-4e-05	6
28973	1e-05	-4e-05	-2e-05	5e-05	-0.00017	0.00015	-1e-05	-4e-05	6
28974	1e-05	-4e-05	-2e-05	5e-05	-0.00017	0.00015	-1e-05	-4e-05	6
28975	1e-05	-4e-05	-2e-05	5e-05	-0.00017	0.00015	-1e-05	-4e-05	6
28976	1e-05	-4e-05	-2e-05	5e-05	-0.00017	0.00015	-1e-05	-4e-05	6
28977	1e-05	-4e-05	-2e-05	5e-05	-0.00017	0.00015	-1e-05	-4e-05	6
28978	1e-05	-4e-05	-2e-05	5e-05	-0.00017	0.00015	-1e-05	-4e-05	6
28979	1e-05	-4e-05	-2e-05	5e-05	-0.00017	0.00015	-1e-05	-4e-05	6
28980	1e-05	-4e-05	-2e-05	5e-05	-0.00017	0.00015	-1e-05	-4e-05	6
28981	1e-05	-4e-05	-2e-05	5e-05	-0.00017	0.00015	-1e-05	-4e-05	6
28982	1e-05	-4e-05	-2e-05	5e-05	-0.00017	0.00015	-1e-05	-4e-05	6
28983	3e-05	-1e-05	-4e-05	-0.00011	0	0.00037	0.00062	1e-05	6
28984	-4e-05	-5e-05	-2e-05	0	-9e-05	0.00029	-0.0006	-0.0005	6
28985	-2e-05	-2e-05	-4e-05	-5e-05	-6e-05	-0.00056	0.00014	0.0004	6
28986	-2e-05	-2e-05	-4e-05	-5e-05	-6e-05	-0.00056	0.00014	0.0004	6
28988	-2e-05	-2e-05	-4e-05	-5e-05	-6e-05	-0.00056	0.00014	0.0004	6
28989	-2e-05	-2e-05	-4e-05	-5e-05	-6e-05	-0.00056	0.00014	0.0004	6
28990	-2e-05	-2e-05	-4e-05	-5e-05	-6e-05	-0.00056	0.00014	0.0004	6
28991	-2e-05	-2e-05	-4e-05	-5e-05	-6e-05	-0.00056	0.00014	0.0004	6
28992	-2e-05	-2e-05	-4e-05	-5e-05	-6e-05	-0.00056	0.00014	0.0004	6
28993	-2e-05	-2e-05	-4e-05	-5e-05	-6e-05	-0.00056	0.00014	0.0004	6
28994	-2e-05	-2e-05	-4e-05	-5e-05	-6e-05	-0.00056	0.00014	0.0004	6
28995	-2e-05	-2e-05	-4e-05	-5e-05	-6e-05	-0.00056	0.00014	0.0004	6
28996	-2e-05	-2e-05	-4e-05	-5e-05	-6e-05	-0.00056	0.00014	0.0004	6
28997	-2e-05	-2e-05	-4e-05	-5e-05	-6e-05	-0.00056	0.00014	0.0004	6
28998	-2e-05	-2e-05	-4e-05	-5e-05	-6e-05	-0.00056	0.00014	0.0004	6
28999	-2e-05	-2e-05	-4e-05	-5e-05	-6e-05	-0.00056	0.00014	0.0004	6
29000	-2e-05	-2e-05	-4e-05	-5e-05	-6e-05	-0.00056	0.00014	0.0004	6
29001	-2e-05	-2e-05	-4e-05	-5e-05	-6e-05	-0.00056	0.00014	0.0004	6
29002	-2e-05	-2e-05	-4e-05	-5e-05	-6e-05	-0.00056	0.00014	0.0004	6
29003	-2e-05	-2e-05	-4e-05	-5e-05	-6e-05	-0.00056	0.00014	0.0004	6
29004	-2e-05	-2e-05	-4e-05	-5e-05	-6e-05	-0.00056	0.00014	0.0004	6
29005	-7e-05	0	1e-05	-1e-05	-0.00011	-0.00037	5e-05	-0.00044	6
29006	-7e-05	0	1e-05	-1e-05	-0.00011	-0.00037	5e-05	-0.00044	6
29007	5e-05	2e-05	0	-6e-05	0.00013	0.00011	-0.0002	0.00016	6
29008	5e-05	2e-05	0	-6e-05	0.00013	0.00011	-0.0002	0.00016	6
29009	5e-05	2e-05	0	-6e-05	0.00013	0.00011	-0.0002	0.00016	6
29010	5e-05	2e-05	0	-6e-05	0.00013	0.00011	-0.0002	0.00016	6
29011	5e-05	2e-05	0	-6e-05	0.00013	0.00011	-0.0002	0.00016	6
29012	5e-05	2e-05	0	-6e-05	0.00013	0.00011	-0.0002	0.00016	6
29013	5e-05	2e-05	0	-6e-05	0.00013	0.00011	-0.0002	0.00016	6
29014	5e-05	2e-05	0	-6e-05	0.00013	0.00011	-0.0002	0.00016	6
29015	5e-05	2e-05	0	-6e-05	0.00013	0.00011	-0.0002	0.00016	6
29016	5e-05	2e-05	0	-6e-05	0.00013	0.00011	-0.0002	0.00016	6
29017	5e-05	2e-05	0	-6e-05	0.00013	0.00011	-0.0002	0.00016	6
29018	5e-05	2e-05	0	-6e-05	0.00013	0.00011	-0.0002	0.00016	6
29019	1e-05	2e-05	3e-05	-3e-05	-0.00016	5e-05	-0.00039	-0.00023	6
29020	1e-05	2e-05	3e-05	-3e-05	-0.00016	5e-05	-0.00039	-0.00023	6
29021	1e-05	2e-05	3e-05	-3e-05	-0.00016	5e-05	-0.00039	-0.00023	6
29022	1e-05	2e-05	3e-05	-3e-05	-0.00016	5e-05	-0.00039	-0.00023	6
29023	1e-05	2e-05	3e-05	-3e-05	-0.00016	5e-05	-0.00039	-0.00023	6
29024	1e-05	2e-05	3e-05	-3e-05	-0.00016	5e-05	-0.00039	-0.00023	6
29025	1e-05	2e-05	3e-05	-3e-05	-0.00016	5e-05	-0.00039	-0.00023	6
29026	1e-05	2e-05	3e-05	-3e-05	-0.00016	5e-05	-0.00039	-0.00023	6
29027	1e-05	2e-05	3e-05	-3e-05	-0.00016	5e-05	-0.00039	-0.00023	6
29028	1e-05	0	2e-05	6e-05	0.00022	-0.00011	-0.00027	-0.00061	6
29029	1e-05	0	2e-05	6e-05	0.00022	-0.00011	-0.00027	-0.00061	6
29030	1e-05	0	2e-05	6e-05	0.00022	-0.00011	-0.00027	-0.00061	6
29031	1e-05	0	2e-05	6e-05	0.00022	-0.00011	-0.00027	-0.00061	6
29032	1e-05	0	2e-05	6e-05	0.00022	-0.00011	-0.00027	-0.00061	6
29033	1e-05	0	2e-05	6e-05	0.00022	-0.00011	-0.00027	-0.00061	6
29034	1e-05	0	2e-05	6e-05	0.00022	-0.00011	-0.00027	-0.00061	6
29035	1e-05	0	2e-05	6e-05	0.00022	-0.00011	-0.00027	-0.00061	6
29036	1e-05	0	2e-05	6e-05	0.00022	-0.00011	-0.00027	-0.00061	6
29038	1e-05	0	2e-05	6e-05	0.00022	-0.00011	-0.00027	-0.00061	6
29040	1e-05	0	2e-05	6e-05	0.00022	-0.00011	-0.00027	-0.00061	6
29041	1e-05	0	2e-05	6e-05	0.00022	-0.00011	-0.00027	-0.00061	6
29042	1e-05	0	2e-05	6e-05	0.00022	-0.00011	-0.00027	-0.00061	6
29043	7e-05	2e-05	4e-05	-5e-05	-0.00049	-0.0006	-0.00049	0.00034	6
29044	1e-05	4e-05	4e-05	8e-05	0.00075	9e-05	0.00013	-6e-05	6
29045	-2e-05	-3e-05	-4e-05	-3e-05	-0.00019	0.0005	-2e-05	0.00026	6
29046	-2e-05	-3e-05	-4e-05	-3e-05	-0.00019	0.0005	-2e-05	0.00026	6
29047	-2e-05	-3e-05	-4e-05	-3e-05	-0.00019	0.0005	-2e-05	0.00026	6
29048	-2e-05	-3e-05	-4e-05	-3e-05	-0.00019	0.0005	-2e-05	0.00026	6
29049	-2e-05	-3e-05	-4e-05	-3e-05	-0.00019	0.0005	-2e-05	0.00026	6
29050	-2e-05	-3e-05	-4e-05	-3e-05	-0.00019	0.0005	-2e-05	0.00026	6
29051	-2e-05	-3e-05	-4e-05	-3e-05	-0.00019	0.0005	-2e-05	0.00026	6
29052	-2e-05	-3e-05	-4e-05	-3e-05	-0.00019	0.0005	-2e-05	0.00026	6
29053	-2e-05	-3e-05	-4e-05	-3e-05	-0.00019	0.0005	-2e-05	0.00026	6
29054	-2e-05	-3e-05	-4e-05	-3e-05	-0.00019	0.0005	-2e-05	0.00026	6
29055	-2e-05	-3e-05	-4e-05	-3e-05	-0.00019	0.0005	-2e-05	0.00026	6
29056	-2e-05	-3e-05	-4e-05	-3e-05	-0.00019	0.0005	-2e-05	0.00026	6
29057	-2e-05	-3e-05	-4e-05	-3e-05	-0.00019	0.0005	-2e-05	0.00026	6
29058	-2e-05	-3e-05	-4e-05	-3e-05	-0.00019	0.0005	-2e-05	0.00026	6
29059	-2e-05	-3e-05	-4e-05	-3e-05	-0.00019	0.0005	-2e-05	0.00026	6
29060	-2e-05	-3e-05	-4e-05	-3e-05	-0.00019	0.0005	-2e-05	0.00026	6
29061	-2e-05	-3e-05	-4e-05	-3e-05	-0.00019	0.0005	-2e-05	0.00026	6
29062	-2e-05	-3e-05	-4e-05	-3e-05	-0.00019	0.0005	-2e-05	0.00026	6
29063	-2e-05	-3e-05	-4e-05	-3e-05	-0.00019	0.0005	-2e-05	0.00026	6
29064	-2e-05	-3e-05	-4e-05	-3e-05	-0.00019	0.0005	-2e-05	0.00026	6
29065	-2e-05	-3e-05	-2e-05	-4e-05	-8e-05	4e-05	0.00014	-0.0001	6
29066	-2e-05	-3e-05	-2e-05	-4e-05	-8e-05	4e-05	0.00014	-0.0001	6
29067	3e-05	1e-05	-1e-05	-0.00011	-0.00014	0.00027	0.00028	0.00032	6
29068	3e-05	1e-05	-1e-05	-0.00011	-0.00014	0.00027	0.00028	0.00032	6
29069	3e-05	1e-05	-1e-05	-0.00011	-0.00014	0.00027	0.00028	0.00032	6
29070	3e-05	1e-05	-1e-05	-0.00011	-0.00014	0.00027	0.00028	0.00032	6
29071	3e-05	1e-05	-1e-05	-0.00011	-0.00014	0.00027	0.00028	0.00032	6
29072	3e-05	1e-05	-1e-05	-0.00011	-0.00014	0.00027	0.00028	0.00032	6
29073	3e-05	1e-05	-1e-05	-0.00011	-0.00014	0.00027	0.00028	0.00032	6
29074	3e-05	1e-05	-1e-05	-0.00011	-0.00014	0.00027	0.00028	0.00032	6
29075	3e-05	1e-05	-1e-05	-0.00011	-0.00014	0.00027	0.00028	0.00032	6
29076	3e-05	1e-05	-1e-05	-0.00011	-0.00014	0.00027	0.00028	0.00032	6
29077	3e-05	1e-05	-1e-05	-0.00011	-0.00014	0.00027	0.00028	0.00032	6
29078	3e-05	1e-05	-1e-05	-0.00011	-0.00014	0.00027	0.00028	0.00032	6
29079	3e-05	1e-05	-1e-05	-0.00011	-0.00014	0.00027	0.00028	0.00032	6
29080	3e-05	1e-05	-1e-05	-0.00011	-0.00014	0.00027	0.00028	0.00032	6
29081	3e-05	1e-05	-1e-05	-0.00011	-0.00014	0.00027	0.00028	0.00032	6
29082	3e-05	1e-05	-1e-05	-0.00011	-0.00014	0.00027	0.00028	0.00032	6
29083	3e-05	1e-05	-1e-05	-0.00011	-0.00014	0.00027	0.00028	0.00032	6
29084	3e-05	1e-05	-1e-05	-0.00011	-0.00014	0.00027	0.00028	0.00032	6
29085	3e-05	1e-05	-1e-05	-0.00011	-0.00014	0.00027	0.00028	0.00032	6
29086	3e-05	1e-05	-1e-05	-0.00011	-0.00014	0.00027	0.00028	0.00032	6
29089	-0.00016	-6e-05	-1e-05	0.00012	0.00036	-7e-05	-0.00027	-0.00064	6
29090	-0.00016	-6e-05	-1e-05	0.00012	0.00036	-7e-05	-0.00027	-0.00064	6
29091	-0.00016	-6e-05	-1e-05	0.00012	0.00036	-7e-05	-0.00027	-0.00064	6
29092	-0.00016	-6e-05	-1e-05	0.00012	0.00036	-7e-05	-0.00027	-0.00064	6
29093	-0.00016	-6e-05	-1e-05	0.00012	0.00036	-7e-05	-0.00027	-0.00064	6
29094	-0.00016	-6e-05	-1e-05	0.00012	0.00036	-7e-05	-0.00027	-0.00064	6
29095	-0.00016	-6e-05	-1e-05	0.00012	0.00036	-7e-05	-0.00027	-0.00064	6
29096	-0.00016	-6e-05	-1e-05	0.00012	0.00036	-7e-05	-0.00027	-0.00064	6
29097	-0.00016	-6e-05	-1e-05	0.00012	0.00036	-7e-05	-0.00027	-0.00064	6
29098	-0.00016	-6e-05	-1e-05	0.00012	0.00036	-7e-05	-0.00027	-0.00064	6
29099	-0.00016	-6e-05	-1e-05	0.00012	0.00036	-7e-05	-0.00027	-0.00064	6
29100	-0.00016	-6e-05	-1e-05	0.00012	0.00036	-7e-05	-0.00027	-0.00064	6
29101	-0.00016	-6e-05	-1e-05	0.00012	0.00036	-7e-05	-0.00027	-0.00064	6
29102	-0.00016	-6e-05	-1e-05	0.00012	0.00036	-7e-05	-0.00027	-0.00064	6
29103	-6e-05	-2e-05	-3e-05	3e-05	-0.0001	-0.00038	0.00028	-2e-05	6
29104	2e-05	-2e-05	-4e-05	-4e-05	0.00031	0.0003	3e-05	0.00017	6
29105	4e-05	2e-05	0	-5e-05	-0.00058	-0.00028	2e-05	0.00032	6
29106	4e-05	2e-05	0	-5e-05	-0.00058	-0.00028	2e-05	0.00032	6
29107	4e-05	2e-05	0	-5e-05	-0.00058	-0.00028	2e-05	0.00032	6
29108	4e-05	2e-05	0	-5e-05	-0.00058	-0.00028	2e-05	0.00032	6
29109	4e-05	2e-05	0	-5e-05	-0.00058	-0.00028	2e-05	0.00032	6
29110	4e-05	2e-05	0	-5e-05	-0.00058	-0.00028	2e-05	0.00032	6
29111	4e-05	2e-05	0	-5e-05	-0.00058	-0.00028	2e-05	0.00032	6
29112	4e-05	2e-05	0	-5e-05	-0.00058	-0.00028	2e-05	0.00032	6
29113	4e-05	2e-05	0	-5e-05	-0.00058	-0.00028	2e-05	0.00032	6
29114	4e-05	2e-05	0	-5e-05	-0.00058	-0.00028	2e-05	0.00032	6
29115	4e-05	2e-05	0	-5e-05	-0.00058	-0.00028	2e-05	0.00032	6
29116	4e-05	2e-05	0	-5e-05	-0.00058	-0.00028	2e-05	0.00032	6
29117	4e-05	2e-05	0	-5e-05	-0.00058	-0.00028	2e-05	0.00032	6
29118	4e-05	2e-05	0	-5e-05	-0.00058	-0.00028	2e-05	0.00032	6
29119	4e-05	2e-05	0	-5e-05	-0.00058	-0.00028	2e-05	0.00032	6
29120	4e-05	2e-05	0	-5e-05	-0.00058	-0.00028	2e-05	0.00032	6
29121	4e-05	2e-05	0	-5e-05	-0.00058	-0.00028	2e-05	0.00032	6
29122	4e-05	2e-05	0	-5e-05	-0.00058	-0.00028	2e-05	0.00032	6
29123	4e-05	2e-05	0	-5e-05	-0.00058	-0.00028	2e-05	0.00032	6
29124	4e-05	2e-05	0	-5e-05	-0.00058	-0.00028	2e-05	0.00032	6
29125	-2e-05	-3e-05	-4e-05	7e-05	-5e-05	-0.00015	-0.00024	1e-05	6
29126	-2e-05	-3e-05	-4e-05	7e-05	-5e-05	-0.00015	-0.00024	1e-05	6
29127	6e-05	-2e-05	-3e-05	-1e-05	-0.00017	-0.00022	-5e-05	0.00033	6
29128	6e-05	-2e-05	-3e-05	-1e-05	-0.00017	-0.00022	-5e-05	0.00033	6
29129	6e-05	-2e-05	-3e-05	-1e-05	-0.00017	-0.00022	-5e-05	0.00033	6
29130	6e-05	-2e-05	-3e-05	-1e-05	-0.00017	-0.00022	-5e-05	0.00033	6
29131	6e-05	-2e-05	-3e-05	-1e-05	-0.00017	-0.00022	-5e-05	0.00033	6
29132	6e-05	-2e-05	-3e-05	-1e-05	-0.00017	-0.00022	-5e-05	0.00033	6
29133	6e-05	-2e-05	-3e-05	-1e-05	-0.00017	-0.00022	-5e-05	0.00033	6
29134	6e-05	-2e-05	-3e-05	-1e-05	-0.00017	-0.00022	-5e-05	0.00033	6
29135	6e-05	-2e-05	-3e-05	-1e-05	-0.00017	-0.00022	-5e-05	0.00033	6
29136	6e-05	-2e-05	-3e-05	-1e-05	-0.00017	-0.00022	-5e-05	0.00033	6
29138	6e-05	-2e-05	-3e-05	-1e-05	-0.00017	-0.00022	-5e-05	0.00033	6
29139	1e-05	2e-05	3e-05	7e-05	0.00016	5e-05	-0.00022	-0.00015	6
29140	1e-05	2e-05	3e-05	7e-05	0.00016	5e-05	-0.00022	-0.00015	6
29141	1e-05	2e-05	3e-05	7e-05	0.00016	5e-05	-0.00022	-0.00015	6
29142	1e-05	2e-05	3e-05	7e-05	0.00016	5e-05	-0.00022	-0.00015	6
29143	1e-05	2e-05	3e-05	7e-05	0.00016	5e-05	-0.00022	-0.00015	6
29144	1e-05	2e-05	3e-05	7e-05	0.00016	5e-05	-0.00022	-0.00015	6
29145	1e-05	2e-05	3e-05	7e-05	0.00016	5e-05	-0.00022	-0.00015	6
29146	1e-05	2e-05	3e-05	7e-05	0.00016	5e-05	-0.00022	-0.00015	6
29147	1e-05	2e-05	3e-05	7e-05	0.00016	5e-05	-0.00022	-0.00015	6
29148	1e-05	0	-1e-05	0	-8e-05	4e-05	-0.00012	-0.00036	6
29149	1e-05	0	-1e-05	0	-8e-05	4e-05	-0.00012	-0.00036	6
29150	1e-05	0	-1e-05	0	-8e-05	4e-05	-0.00012	-0.00036	6
29151	1e-05	0	-1e-05	0	-8e-05	4e-05	-0.00012	-0.00036	6
29152	1e-05	0	-1e-05	0	-8e-05	4e-05	-0.00012	-0.00036	6
29153	1e-05	0	-1e-05	0	-8e-05	4e-05	-0.00012	-0.00036	6
29154	1e-05	0	-1e-05	0	-8e-05	4e-05	-0.00012	-0.00036	6
29155	1e-05	0	-1e-05	0	-8e-05	4e-05	-0.00012	-0.00036	6
29156	1e-05	0	-1e-05	0	-8e-05	4e-05	-0.00012	-0.00036	6
29157	1e-05	0	-1e-05	0	-8e-05	4e-05	-0.00012	-0.00036	6
29158	1e-05	0	-1e-05	0	-8e-05	4e-05	-0.00012	-0.00036	6
29159	1e-05	0	-1e-05	0	-8e-05	4e-05	-0.00012	-0.00036	6
29160	1e-05	0	-1e-05	0	-8e-05	4e-05	-0.00012	-0.00036	6
29161	1e-05	0	-1e-05	0	-8e-05	4e-05	-0.00012	-0.00036	6
29162	1e-05	0	-1e-05	0	-8e-05	4e-05	-0.00012	-0.00036	6
29163	4e-05	6e-05	6e-05	0.00011	-0.0002	-0.00065	0.00027	5e-05	6
29164	-8e-05	2e-05	2e-05	-3e-05	0.00017	0.00057	-0.00042	-0.00066	6
29165	1e-05	-1e-05	0	0.00019	-9e-05	-0.00011	0.0001	0.00072	6
29166	1e-05	-1e-05	0	0.00019	-9e-05	-0.00011	0.0001	0.00072	6
29167	1e-05	-1e-05	0	0.00019	-9e-05	-0.00011	0.0001	0.00072	6
29168	1e-05	-1e-05	0	0.00019	-9e-05	-0.00011	0.0001	0.00072	6
29169	1e-05	-1e-05	0	0.00019	-9e-05	-0.00011	0.0001	0.00072	6
29170	1e-05	-1e-05	0	0.00019	-9e-05	-0.00011	0.0001	0.00072	6
29171	1e-05	-1e-05	0	0.00019	-9e-05	-0.00011	0.0001	0.00072	6
29172	1e-05	-1e-05	0	0.00019	-9e-05	-0.00011	0.0001	0.00072	6
29173	1e-05	-1e-05	0	0.00019	-9e-05	-0.00011	0.0001	0.00072	6
29174	1e-05	-1e-05	0	0.00019	-9e-05	-0.00011	0.0001	0.00072	6
29175	1e-05	-1e-05	0	0.00019	-9e-05	-0.00011	0.0001	0.00072	6
29176	1e-05	-1e-05	0	0.00019	-9e-05	-0.00011	0.0001	0.00072	6
29177	1e-05	-1e-05	0	0.00019	-9e-05	-0.00011	0.0001	0.00072	6
29178	1e-05	-1e-05	0	0.00019	-9e-05	-0.00011	0.0001	0.00072	6
29179	1e-05	-1e-05	0	0.00019	-9e-05	-0.00011	0.0001	0.00072	6
29180	1e-05	-1e-05	0	0.00019	-9e-05	-0.00011	0.0001	0.00072	6
29181	1e-05	-1e-05	0	0.00019	-9e-05	-0.00011	0.0001	0.00072	6
29182	1e-05	-1e-05	0	0.00019	-9e-05	-0.00011	0.0001	0.00072	6
29183	1e-05	-1e-05	0	0.00019	-9e-05	-0.00011	0.0001	0.00072	6
29184	1e-05	-1e-05	0	0.00019	-9e-05	-0.00011	0.0001	0.00072	6
29185	-9e-05	-2e-05	3e-05	3e-05	0.00014	0.00028	-0.00048	-0.00023	6
29186	-9e-05	-2e-05	3e-05	3e-05	0.00014	0.00028	-0.00048	-0.00023	6
29188	-2e-05	-2e-05	-1e-05	-2e-05	-1e-05	-0.00048	-7e-05	0.00029	6
29189	-2e-05	-2e-05	-1e-05	-2e-05	-1e-05	-0.00048	-7e-05	0.00029	6
29190	-2e-05	-2e-05	-1e-05	-2e-05	-1e-05	-0.00048	-7e-05	0.00029	6
29191	-2e-05	-2e-05	-1e-05	-2e-05	-1e-05	-0.00048	-7e-05	0.00029	6
29192	-2e-05	-2e-05	-1e-05	-2e-05	-1e-05	-0.00048	-7e-05	0.00029	6
29193	-2e-05	-2e-05	-1e-05	-2e-05	-1e-05	-0.00048	-7e-05	0.00029	6
29194	-2e-05	-2e-05	-1e-05	-2e-05	-1e-05	-0.00048	-7e-05	0.00029	6
29195	-2e-05	-2e-05	-1e-05	-2e-05	-1e-05	-0.00048	-7e-05	0.00029	6
29196	-2e-05	-2e-05	-1e-05	-2e-05	-1e-05	-0.00048	-7e-05	0.00029	6
29197	-2e-05	-2e-05	-1e-05	-2e-05	-1e-05	-0.00048	-7e-05	0.00029	6
29198	-2e-05	-2e-05	-1e-05	-2e-05	-1e-05	-0.00048	-7e-05	0.00029	6
29199	-0.00014	0	0	8e-05	0.00063	0.00029	-0.00064	-0.00042	6
29200	-0.00014	0	0	8e-05	0.00063	0.00029	-0.00064	-0.00042	6
29201	-0.00014	0	0	8e-05	0.00063	0.00029	-0.00064	-0.00042	6
29202	-0.00014	0	0	8e-05	0.00063	0.00029	-0.00064	-0.00042	6
29203	-0.00014	0	0	8e-05	0.00063	0.00029	-0.00064	-0.00042	6
29204	-0.00014	0	0	8e-05	0.00063	0.00029	-0.00064	-0.00042	6
29205	-0.00014	0	0	8e-05	0.00063	0.00029	-0.00064	-0.00042	6
29206	-0.00014	0	0	8e-05	0.00063	0.00029	-0.00064	-0.00042	6
29207	-0.00014	0	0	8e-05	0.00063	0.00029	-0.00064	-0.00042	6
29208	4e-05	1e-05	-1e-05	-0.00014	0.00027	-0.00019	0.00017	0.00046	6
29209	4e-05	1e-05	-1e-05	-0.00014	0.00027	-0.00019	0.00017	0.00046	6
29210	4e-05	1e-05	-1e-05	-0.00014	0.00027	-0.00019	0.00017	0.00046	6
29211	4e-05	1e-05	-1e-05	-0.00014	0.00027	-0.00019	0.00017	0.00046	6
29212	4e-05	1e-05	-1e-05	-0.00014	0.00027	-0.00019	0.00017	0.00046	6
29213	4e-05	1e-05	-1e-05	-0.00014	0.00027	-0.00019	0.00017	0.00046	6
29214	4e-05	1e-05	-1e-05	-0.00014	0.00027	-0.00019	0.00017	0.00046	6
29215	4e-05	1e-05	-1e-05	-0.00014	0.00027	-0.00019	0.00017	0.00046	6
29216	4e-05	1e-05	-1e-05	-0.00014	0.00027	-0.00019	0.00017	0.00046	6
29217	4e-05	1e-05	-1e-05	-0.00014	0.00027	-0.00019	0.00017	0.00046	6
29218	4e-05	1e-05	-1e-05	-0.00014	0.00027	-0.00019	0.00017	0.00046	6
29219	4e-05	1e-05	-1e-05	-0.00014	0.00027	-0.00019	0.00017	0.00046	6
29220	4e-05	1e-05	-1e-05	-0.00014	0.00027	-0.00019	0.00017	0.00046	6
29221	4e-05	1e-05	-1e-05	-0.00014	0.00027	-0.00019	0.00017	0.00046	6
29222	4e-05	1e-05	-1e-05	-0.00014	0.00027	-0.00019	0.00017	0.00046	6
29223	-3e-05	1e-05	-1e-05	-9e-05	-0.00015	7e-05	-0.00021	-0.00068	6
29224	-7e-05	-2e-05	-4e-05	-1e-05	-3e-05	-0.00019	0.00056	0.00036	6
29225	-4e-05	-2e-05	-2e-05	1e-05	-1e-05	0.00045	0.00029	-0.00038	6
29226	-4e-05	-2e-05	-2e-05	1e-05	-1e-05	0.00045	0.00029	-0.00038	6
29227	-4e-05	-2e-05	-2e-05	1e-05	-1e-05	0.00045	0.00029	-0.00038	6
29228	-4e-05	-2e-05	-2e-05	1e-05	-1e-05	0.00045	0.00029	-0.00038	6
29229	-4e-05	-2e-05	-2e-05	1e-05	-1e-05	0.00045	0.00029	-0.00038	6
29230	-4e-05	-2e-05	-2e-05	1e-05	-1e-05	0.00045	0.00029	-0.00038	6
29231	-4e-05	-2e-05	-2e-05	1e-05	-1e-05	0.00045	0.00029	-0.00038	6
29232	-4e-05	-2e-05	-2e-05	1e-05	-1e-05	0.00045	0.00029	-0.00038	6
29233	-4e-05	-2e-05	-2e-05	1e-05	-1e-05	0.00045	0.00029	-0.00038	6
29234	-4e-05	-2e-05	-2e-05	1e-05	-1e-05	0.00045	0.00029	-0.00038	6
29235	-4e-05	-2e-05	-2e-05	1e-05	-1e-05	0.00045	0.00029	-0.00038	6
29236	-4e-05	-2e-05	-2e-05	1e-05	-1e-05	0.00045	0.00029	-0.00038	6
29238	-4e-05	-2e-05	-2e-05	1e-05	-1e-05	0.00045	0.00029	-0.00038	6
29239	-4e-05	-2e-05	-2e-05	1e-05	-1e-05	0.00045	0.00029	-0.00038	6
29240	-4e-05	-2e-05	-2e-05	1e-05	-1e-05	0.00045	0.00029	-0.00038	6
29241	-4e-05	-2e-05	-2e-05	1e-05	-1e-05	0.00045	0.00029	-0.00038	6
29242	-4e-05	-2e-05	-2e-05	1e-05	-1e-05	0.00045	0.00029	-0.00038	6
29243	-4e-05	-2e-05	-2e-05	1e-05	-1e-05	0.00045	0.00029	-0.00038	6
29244	-4e-05	-2e-05	-2e-05	1e-05	-1e-05	0.00045	0.00029	-0.00038	6
29245	9e-05	2e-05	2e-05	-6e-05	3e-05	2e-05	0.00046	0.00028	6
29246	9e-05	2e-05	2e-05	-6e-05	3e-05	2e-05	0.00046	0.00028	6
29247	4e-05	3e-05	5e-05	0.00012	0.00065	0.0006	0.00013	-4e-05	6
29248	4e-05	3e-05	5e-05	0.00012	0.00065	0.0006	0.00013	-4e-05	6
29249	4e-05	3e-05	5e-05	0.00012	0.00065	0.0006	0.00013	-4e-05	6
29250	4e-05	3e-05	5e-05	0.00012	0.00065	0.0006	0.00013	-4e-05	6
29251	4e-05	3e-05	5e-05	0.00012	0.00065	0.0006	0.00013	-4e-05	6
29252	4e-05	3e-05	5e-05	0.00012	0.00065	0.0006	0.00013	-4e-05	6
29253	4e-05	3e-05	5e-05	0.00012	0.00065	0.0006	0.00013	-4e-05	6
29254	4e-05	3e-05	5e-05	0.00012	0.00065	0.0006	0.00013	-4e-05	6
29255	4e-05	3e-05	5e-05	0.00012	0.00065	0.0006	0.00013	-4e-05	6
29256	4e-05	3e-05	5e-05	0.00012	0.00065	0.0006	0.00013	-4e-05	6
29257	4e-05	3e-05	5e-05	0.00012	0.00065	0.0006	0.00013	-4e-05	6
29258	4e-05	3e-05	5e-05	0.00012	0.00065	0.0006	0.00013	-4e-05	6
29259	4e-05	3e-05	5e-05	0.00012	0.00065	0.0006	0.00013	-4e-05	6
29260	4e-05	3e-05	5e-05	0.00012	0.00065	0.0006	0.00013	-4e-05	6
29261	4e-05	3e-05	5e-05	0.00012	0.00065	0.0006	0.00013	-4e-05	6
29262	4e-05	3e-05	5e-05	0.00012	0.00065	0.0006	0.00013	-4e-05	6
29263	4e-05	3e-05	5e-05	0.00012	0.00065	0.0006	0.00013	-4e-05	6
29264	4e-05	3e-05	5e-05	0.00012	0.00065	0.0006	0.00013	-4e-05	6
29265	4e-05	3e-05	5e-05	0.00012	0.00065	0.0006	0.00013	-4e-05	6
29266	4e-05	3e-05	5e-05	0.00012	0.00065	0.0006	0.00013	-4e-05	6
29267	4e-05	3e-05	5e-05	0.00012	0.00065	0.0006	0.00013	-4e-05	6
29268	4e-05	3e-05	5e-05	0.00012	0.00065	0.0006	0.00013	-4e-05	6
29269	4e-05	1e-05	2e-05	2e-05	-0.00012	-4e-05	4e-05	-9e-05	6
29270	4e-05	1e-05	2e-05	2e-05	-0.00012	-4e-05	4e-05	-9e-05	6
29271	3e-05	0	-1e-05	1e-05	0.00043	0.00037	0.0003	0.00061	6
29272	3e-05	0	-1e-05	1e-05	0.00043	0.00037	0.0003	0.00061	6
29273	3e-05	0	-1e-05	1e-05	0.00043	0.00037	0.0003	0.00061	6
29274	3e-05	0	-1e-05	1e-05	0.00043	0.00037	0.0003	0.00061	6
29275	3e-05	0	-1e-05	1e-05	0.00043	0.00037	0.0003	0.00061	6
29276	3e-05	0	-1e-05	1e-05	0.00043	0.00037	0.0003	0.00061	6
29277	3e-05	0	-1e-05	1e-05	0.00043	0.00037	0.0003	0.00061	6
29278	3e-05	0	-1e-05	1e-05	0.00043	0.00037	0.0003	0.00061	6
29279	3e-05	0	-1e-05	1e-05	0.00043	0.00037	0.0003	0.00061	6
29280	3e-05	0	-1e-05	1e-05	0.00043	0.00037	0.0003	0.00061	6
29281	3e-05	0	-1e-05	1e-05	0.00043	0.00037	0.0003	0.00061	6
29282	3e-05	0	-1e-05	1e-05	0.00043	0.00037	0.0003	0.00061	6
29283	-2e-05	-2e-05	0	-5e-05	0.0002	0.00081	0.00027	0.00012	6
29284	-3e-05	-4e-05	-1e-05	-4e-05	8e-05	-0.00036	-0.0004	0.00019	6
29285	5e-05	4e-05	4e-05	3e-05	-0.00058	0.00026	0.00044	0.00013	6
29286	5e-05	4e-05	4e-05	3e-05	-0.00058	0.00026	0.00044	0.00013	6
29288	5e-05	4e-05	4e-05	3e-05	-0.00058	0.00026	0.00044	0.00013	6
29289	5e-05	4e-05	4e-05	3e-05	-0.00058	0.00026	0.00044	0.00013	6
29290	5e-05	4e-05	4e-05	3e-05	-0.00058	0.00026	0.00044	0.00013	6
29291	5e-05	4e-05	4e-05	3e-05	-0.00058	0.00026	0.00044	0.00013	6
29292	5e-05	4e-05	4e-05	3e-05	-0.00058	0.00026	0.00044	0.00013	6
29293	5e-05	4e-05	4e-05	3e-05	-0.00058	0.00026	0.00044	0.00013	6
29294	5e-05	4e-05	4e-05	3e-05	-0.00058	0.00026	0.00044	0.00013	6
29295	5e-05	4e-05	4e-05	3e-05	-0.00058	0.00026	0.00044	0.00013	6
29296	5e-05	4e-05	4e-05	3e-05	-0.00058	0.00026	0.00044	0.00013	6
29297	5e-05	4e-05	4e-05	3e-05	-0.00058	0.00026	0.00044	0.00013	6
29298	5e-05	4e-05	4e-05	3e-05	-0.00058	0.00026	0.00044	0.00013	6
29299	5e-05	4e-05	4e-05	3e-05	-0.00058	0.00026	0.00044	0.00013	6
29300	5e-05	4e-05	4e-05	3e-05	-0.00058	0.00026	0.00044	0.00013	6
29301	5e-05	4e-05	4e-05	3e-05	-0.00058	0.00026	0.00044	0.00013	6
29302	5e-05	4e-05	4e-05	3e-05	-0.00058	0.00026	0.00044	0.00013	6
29303	5e-05	4e-05	4e-05	3e-05	-0.00058	0.00026	0.00044	0.00013	6
29304	5e-05	4e-05	4e-05	3e-05	-0.00058	0.00026	0.00044	0.00013	6
29305	-7e-05	-5e-05	-5e-05	-0.00017	-0.00013	-4e-05	-0.0003	0.00041	6
29306	-7e-05	-5e-05	-5e-05	-0.00017	-0.00013	-4e-05	-0.0003	0.00041	6
29307	-8e-05	-3e-05	-4e-05	-8e-05	-0.00038	-0.00014	-0.0004	-0.0003	6
29308	-8e-05	-3e-05	-4e-05	-8e-05	-0.00038	-0.00014	-0.0004	-0.0003	6
29309	-8e-05	-3e-05	-4e-05	-8e-05	-0.00038	-0.00014	-0.0004	-0.0003	6
29310	-8e-05	-3e-05	-4e-05	-8e-05	-0.00038	-0.00014	-0.0004	-0.0003	6
29311	-8e-05	-3e-05	-4e-05	-8e-05	-0.00038	-0.00014	-0.0004	-0.0003	6
29312	-8e-05	-3e-05	-4e-05	-8e-05	-0.00038	-0.00014	-0.0004	-0.0003	6
29313	-8e-05	-3e-05	-4e-05	-8e-05	-0.00038	-0.00014	-0.0004	-0.0003	6
29314	-8e-05	-3e-05	-4e-05	-8e-05	-0.00038	-0.00014	-0.0004	-0.0003	6
29315	-8e-05	-3e-05	-4e-05	-8e-05	-0.00038	-0.00014	-0.0004	-0.0003	6
29316	-8e-05	-3e-05	-4e-05	-8e-05	-0.00038	-0.00014	-0.0004	-0.0003	6
29317	-8e-05	-3e-05	-4e-05	-8e-05	-0.00038	-0.00014	-0.0004	-0.0003	6
29319	-1e-05	-2e-05	-5e-05	-1e-05	6e-05	2e-05	5e-05	0.00022	6
29320	-1e-05	-2e-05	-5e-05	-1e-05	6e-05	2e-05	5e-05	0.00022	6
29321	-1e-05	-2e-05	-5e-05	-1e-05	6e-05	2e-05	5e-05	0.00022	6
29322	-1e-05	-2e-05	-5e-05	-1e-05	6e-05	2e-05	5e-05	0.00022	6
29323	-1e-05	-2e-05	-5e-05	-1e-05	6e-05	2e-05	5e-05	0.00022	6
29324	-1e-05	-2e-05	-5e-05	-1e-05	6e-05	2e-05	5e-05	0.00022	6
29325	-1e-05	-2e-05	-5e-05	-1e-05	6e-05	2e-05	5e-05	0.00022	6
29326	-1e-05	-2e-05	-5e-05	-1e-05	6e-05	2e-05	5e-05	0.00022	6
29327	-1e-05	-2e-05	-5e-05	-1e-05	6e-05	2e-05	5e-05	0.00022	6
29328	0	-1e-05	2e-05	9e-05	0.00046	-3e-05	-0.00025	-4e-05	6
29329	0	-1e-05	2e-05	9e-05	0.00046	-3e-05	-0.00025	-4e-05	6
29330	0	-1e-05	2e-05	9e-05	0.00046	-3e-05	-0.00025	-4e-05	6
29331	0	-1e-05	2e-05	9e-05	0.00046	-3e-05	-0.00025	-4e-05	6
29332	0	-1e-05	2e-05	9e-05	0.00046	-3e-05	-0.00025	-4e-05	6
29333	0	-1e-05	2e-05	9e-05	0.00046	-3e-05	-0.00025	-4e-05	6
29334	0	-1e-05	2e-05	9e-05	0.00046	-3e-05	-0.00025	-4e-05	6
29335	0	-1e-05	2e-05	9e-05	0.00046	-3e-05	-0.00025	-4e-05	6
29336	0	-1e-05	2e-05	9e-05	0.00046	-3e-05	-0.00025	-4e-05	6
29338	0	-1e-05	2e-05	9e-05	0.00046	-3e-05	-0.00025	-4e-05	6
29339	0	-1e-05	2e-05	9e-05	0.00046	-3e-05	-0.00025	-4e-05	6
29340	0	-1e-05	2e-05	9e-05	0.00046	-3e-05	-0.00025	-4e-05	6
29341	0	-1e-05	2e-05	9e-05	0.00046	-3e-05	-0.00025	-4e-05	6
29342	0	-1e-05	2e-05	9e-05	0.00046	-3e-05	-0.00025	-4e-05	6
29343	1e-05	-1e-05	-3e-05	-4e-05	-4e-05	-4e-05	0	-0.00029	6
29344	-5e-05	0	0	6e-05	0	-0.00025	-0.00025	0.00015	6
29345	-1e-05	-3e-05	-7e-05	-8e-05	-0.00013	-0.00055	7e-05	-8e-05	6
29346	-1e-05	-3e-05	-7e-05	-8e-05	-0.00013	-0.00055	7e-05	-8e-05	6
29347	-1e-05	-3e-05	-7e-05	-8e-05	-0.00013	-0.00055	7e-05	-8e-05	6
29348	-1e-05	-3e-05	-7e-05	-8e-05	-0.00013	-0.00055	7e-05	-8e-05	6
29349	-1e-05	-3e-05	-7e-05	-8e-05	-0.00013	-0.00055	7e-05	-8e-05	6
29350	-1e-05	-3e-05	-7e-05	-8e-05	-0.00013	-0.00055	7e-05	-8e-05	6
29351	-1e-05	-3e-05	-7e-05	-8e-05	-0.00013	-0.00055	7e-05	-8e-05	6
29352	-1e-05	-3e-05	-7e-05	-8e-05	-0.00013	-0.00055	7e-05	-8e-05	6
29353	-1e-05	-3e-05	-7e-05	-8e-05	-0.00013	-0.00055	7e-05	-8e-05	6
29354	-1e-05	-3e-05	-7e-05	-8e-05	-0.00013	-0.00055	7e-05	-8e-05	6
29355	-1e-05	-3e-05	-7e-05	-8e-05	-0.00013	-0.00055	7e-05	-8e-05	6
29356	-1e-05	-3e-05	-7e-05	-8e-05	-0.00013	-0.00055	7e-05	-8e-05	6
29357	-1e-05	-3e-05	-7e-05	-8e-05	-0.00013	-0.00055	7e-05	-8e-05	6
29358	-1e-05	-3e-05	-7e-05	-8e-05	-0.00013	-0.00055	7e-05	-8e-05	6
29359	-1e-05	-3e-05	-7e-05	-8e-05	-0.00013	-0.00055	7e-05	-8e-05	6
29360	-1e-05	-3e-05	-7e-05	-8e-05	-0.00013	-0.00055	7e-05	-8e-05	6
29361	-1e-05	-3e-05	-7e-05	-8e-05	-0.00013	-0.00055	7e-05	-8e-05	6
29362	-1e-05	-3e-05	-7e-05	-8e-05	-0.00013	-0.00055	7e-05	-8e-05	6
29363	-1e-05	-3e-05	-7e-05	-8e-05	-0.00013	-0.00055	7e-05	-8e-05	6
29364	-1e-05	-3e-05	-7e-05	-8e-05	-0.00013	-0.00055	7e-05	-8e-05	6
29365	2e-05	-1e-05	1e-05	9e-05	0.0001	0.00048	-4e-05	-0.00092	6
29366	2e-05	-1e-05	1e-05	9e-05	0.0001	0.00048	-4e-05	-0.00092	6
29367	-6e-05	-3e-05	-3e-05	-0.0001	-0.00028	-0.00088	-0.00039	-9e-05	6
29368	-6e-05	-3e-05	-3e-05	-0.0001	-0.00028	-0.00088	-0.00039	-9e-05	6
29369	-6e-05	-3e-05	-3e-05	-0.0001	-0.00028	-0.00088	-0.00039	-9e-05	6
29370	-6e-05	-3e-05	-3e-05	-0.0001	-0.00028	-0.00088	-0.00039	-9e-05	6
29371	-6e-05	-3e-05	-3e-05	-0.0001	-0.00028	-0.00088	-0.00039	-9e-05	6
29372	-6e-05	-3e-05	-3e-05	-0.0001	-0.00028	-0.00088	-0.00039	-9e-05	6
29373	-6e-05	-3e-05	-3e-05	-0.0001	-0.00028	-0.00088	-0.00039	-9e-05	6
29374	-6e-05	-3e-05	-3e-05	-0.0001	-0.00028	-0.00088	-0.00039	-9e-05	6
29375	-6e-05	-3e-05	-3e-05	-0.0001	-0.00028	-0.00088	-0.00039	-9e-05	6
29376	-6e-05	-3e-05	-3e-05	-0.0001	-0.00028	-0.00088	-0.00039	-9e-05	6
29377	-6e-05	-3e-05	-3e-05	-0.0001	-0.00028	-0.00088	-0.00039	-9e-05	6
29378	-6e-05	-3e-05	-3e-05	-0.0001	-0.00028	-0.00088	-0.00039	-9e-05	6
29379	-5e-05	-2e-05	-2e-05	1e-05	1e-05	-0.00027	0.00024	-0.00026	6
29380	-5e-05	-2e-05	-2e-05	1e-05	1e-05	-0.00027	0.00024	-0.00026	6
29381	-5e-05	-2e-05	-2e-05	1e-05	1e-05	-0.00027	0.00024	-0.00026	6
29382	-5e-05	-2e-05	-2e-05	1e-05	1e-05	-0.00027	0.00024	-0.00026	6
29383	-5e-05	-2e-05	-2e-05	1e-05	1e-05	-0.00027	0.00024	-0.00026	6
29384	-5e-05	-2e-05	-2e-05	1e-05	1e-05	-0.00027	0.00024	-0.00026	6
29385	-5e-05	-2e-05	-2e-05	1e-05	1e-05	-0.00027	0.00024	-0.00026	6
29386	-5e-05	-2e-05	-2e-05	1e-05	1e-05	-0.00027	0.00024	-0.00026	6
29388	-3e-05	-2e-05	-2e-05	7e-05	0.00029	0.00044	-0.00016	-5e-05	6
29389	-3e-05	-2e-05	-2e-05	7e-05	0.00029	0.00044	-0.00016	-5e-05	6
29390	-3e-05	-2e-05	-2e-05	7e-05	0.00029	0.00044	-0.00016	-5e-05	6
29391	-3e-05	-2e-05	-2e-05	7e-05	0.00029	0.00044	-0.00016	-5e-05	6
29392	-3e-05	-2e-05	-2e-05	7e-05	0.00029	0.00044	-0.00016	-5e-05	6
29393	-3e-05	-2e-05	-2e-05	7e-05	0.00029	0.00044	-0.00016	-5e-05	6
29394	-3e-05	-2e-05	-2e-05	7e-05	0.00029	0.00044	-0.00016	-5e-05	6
29395	-3e-05	-2e-05	-2e-05	7e-05	0.00029	0.00044	-0.00016	-5e-05	6
29396	-3e-05	-2e-05	-2e-05	7e-05	0.00029	0.00044	-0.00016	-5e-05	6
29397	-3e-05	-2e-05	-2e-05	7e-05	0.00029	0.00044	-0.00016	-5e-05	6
29398	-3e-05	-2e-05	-2e-05	7e-05	0.00029	0.00044	-0.00016	-5e-05	6
29399	-3e-05	-2e-05	-2e-05	7e-05	0.00029	0.00044	-0.00016	-5e-05	6
29400	-3e-05	-2e-05	-2e-05	7e-05	0.00029	0.00044	-0.00016	-5e-05	6
29401	-3e-05	-2e-05	-2e-05	7e-05	0.00029	0.00044	-0.00016	-5e-05	6
29402	-3e-05	-2e-05	-2e-05	7e-05	0.00029	0.00044	-0.00016	-5e-05	6
29403	-3e-05	-2e-05	-2e-05	7e-05	0.00029	0.00044	-0.00016	-5e-05	6
29404	-3e-05	-2e-05	-2e-05	7e-05	0.00029	0.00044	-0.00016	-5e-05	6
29405	-3e-05	-2e-05	-2e-05	7e-05	0.00029	0.00044	-0.00016	-5e-05	6
29406	-3e-05	-2e-05	-2e-05	7e-05	0.00029	0.00044	-0.00016	-5e-05	6
29407	-3e-05	-2e-05	-2e-05	7e-05	0.00029	0.00044	-0.00016	-5e-05	6
29408	-3e-05	-2e-05	-2e-05	7e-05	0.00029	0.00044	-0.00016	-5e-05	6
29409	-3e-05	-2e-05	-2e-05	7e-05	0.00029	0.00044	-0.00016	-5e-05	6
29410	0	-1e-05	1e-05	-0.00012	-0.00037	0.00018	1e-05	-0.0001	6
29412	-4e-05	-4e-05	-3e-05	0	-1e-05	0.00036	-0.00018	-2e-05	6
29413	-4e-05	-4e-05	-3e-05	0	-1e-05	0.00036	-0.00018	-2e-05	6
29414	-1e-05	3e-05	2e-05	-1e-05	0.00011	-0.00026	-0.00039	-0.00072	6
29415	-1e-05	3e-05	2e-05	-1e-05	0.00011	-0.00026	-0.00039	-0.00072	6
29416	-1e-05	3e-05	2e-05	-1e-05	0.00011	-0.00026	-0.00039	-0.00072	6
29417	-1e-05	3e-05	2e-05	-1e-05	0.00011	-0.00026	-0.00039	-0.00072	6
29418	-1e-05	3e-05	2e-05	-1e-05	0.00011	-0.00026	-0.00039	-0.00072	6
29419	-1e-05	3e-05	2e-05	-1e-05	0.00011	-0.00026	-0.00039	-0.00072	6
29420	-1e-05	3e-05	2e-05	-1e-05	0.00011	-0.00026	-0.00039	-0.00072	6
29421	-1e-05	3e-05	2e-05	-1e-05	0.00011	-0.00026	-0.00039	-0.00072	6
29422	-1e-05	3e-05	2e-05	-1e-05	0.00011	-0.00026	-0.00039	-0.00072	6
29423	-1e-05	3e-05	2e-05	-1e-05	0.00011	-0.00026	-0.00039	-0.00072	6
29424	-1e-05	3e-05	2e-05	-1e-05	0.00011	-0.00026	-0.00039	-0.00072	6
29425	4e-05	-2e-05	1e-05	9e-05	0.00014	4e-05	0.00012	0.00031	6
29426	4e-05	-2e-05	1e-05	9e-05	0.00014	4e-05	0.00012	0.00031	6
29427	0.0001	3e-05	3e-05	0	-0.00046	-0.00023	-0.0001	7e-05	6
29428	0.0001	3e-05	3e-05	0	-0.00046	-0.00023	-0.0001	7e-05	6
29429	0.0001	3e-05	3e-05	0	-0.00046	-0.00023	-0.0001	7e-05	6
29430	0.0001	3e-05	3e-05	0	-0.00046	-0.00023	-0.0001	7e-05	6
29431	0.0001	3e-05	3e-05	0	-0.00046	-0.00023	-0.0001	7e-05	6
29432	0.0001	3e-05	3e-05	0	-0.00046	-0.00023	-0.0001	7e-05	6
29433	0.0001	3e-05	3e-05	0	-0.00046	-0.00023	-0.0001	7e-05	6
29434	0.0001	3e-05	3e-05	0	-0.00046	-0.00023	-0.0001	7e-05	6
29435	0.0001	3e-05	3e-05	0	-0.00046	-0.00023	-0.0001	7e-05	6
29436	0.0001	3e-05	3e-05	0	-0.00046	-0.00023	-0.0001	7e-05	6
29438	0.0001	3e-05	3e-05	0	-0.00046	-0.00023	-0.0001	7e-05	6
29439	0.0001	3e-05	3e-05	0	-0.00046	-0.00023	-0.0001	7e-05	6
29440	0.0001	3e-05	3e-05	0	-0.00046	-0.00023	-0.0001	7e-05	6
29442	0.0001	3e-05	3e-05	0	-0.00046	-0.00023	-0.0001	7e-05	6
29443	0.0001	3e-05	3e-05	0	-0.00046	-0.00023	-0.0001	7e-05	6
29444	0.0001	3e-05	3e-05	0	-0.00046	-0.00023	-0.0001	7e-05	6
29445	0.0001	3e-05	3e-05	0	-0.00046	-0.00023	-0.0001	7e-05	6
29446	0.0001	3e-05	3e-05	0	-0.00046	-0.00023	-0.0001	7e-05	6
29447	0.0001	3e-05	3e-05	0	-0.00046	-0.00023	-0.0001	7e-05	6
29448	-7e-05	-5e-05	-7e-05	-0.00018	-3e-05	-0.00054	0.00054	5e-05	6
29449	-2e-05	-3e-05	-2e-05	-2e-05	7e-05	0.00052	0.00016	0.00016	6
29450	-2e-05	-3e-05	-2e-05	-2e-05	7e-05	0.00052	0.00016	0.00016	6
29451	-2e-05	-3e-05	-2e-05	-2e-05	7e-05	0.00052	0.00016	0.00016	6
29452	-2e-05	-3e-05	-2e-05	-2e-05	7e-05	0.00052	0.00016	0.00016	6
29453	-2e-05	-3e-05	-2e-05	-2e-05	7e-05	0.00052	0.00016	0.00016	6
29454	-2e-05	-3e-05	-2e-05	-2e-05	7e-05	0.00052	0.00016	0.00016	6
29455	-2e-05	-3e-05	-2e-05	-2e-05	7e-05	0.00052	0.00016	0.00016	6
29456	-2e-05	-3e-05	-2e-05	-2e-05	7e-05	0.00052	0.00016	0.00016	6
29457	-2e-05	-3e-05	-2e-05	-2e-05	7e-05	0.00052	0.00016	0.00016	6
29458	-2e-05	-3e-05	-2e-05	-2e-05	7e-05	0.00052	0.00016	0.00016	6
29459	-2e-05	-3e-05	-2e-05	-2e-05	7e-05	0.00052	0.00016	0.00016	6
29460	-2e-05	-3e-05	-2e-05	-2e-05	7e-05	0.00052	0.00016	0.00016	6
29461	-2e-05	-3e-05	-2e-05	-2e-05	7e-05	0.00052	0.00016	0.00016	6
29462	-2e-05	-3e-05	-2e-05	-2e-05	7e-05	0.00052	0.00016	0.00016	6
29463	0	-2e-05	-8e-05	-0.00034	-0.00053	-0.00031	-0.00037	0.00034	6
29464	-7e-05	1e-05	2e-05	0.00012	0.00069	3e-05	0.00037	-0.00045	6
29465	-6e-05	-2e-05	-1e-05	-2e-05	-0.0002	9e-05	-0.00049	-0.00026	6
29466	-6e-05	-2e-05	-1e-05	-2e-05	-0.0002	9e-05	-0.00049	-0.00026	6
29467	-6e-05	-2e-05	-1e-05	-2e-05	-0.0002	9e-05	-0.00049	-0.00026	6
29468	-6e-05	-2e-05	-1e-05	-2e-05	-0.0002	9e-05	-0.00049	-0.00026	6
29469	-6e-05	-2e-05	-1e-05	-2e-05	-0.0002	9e-05	-0.00049	-0.00026	6
29470	-6e-05	-2e-05	-1e-05	-2e-05	-0.0002	9e-05	-0.00049	-0.00026	6
29471	-6e-05	-2e-05	-1e-05	-2e-05	-0.0002	9e-05	-0.00049	-0.00026	6
29472	-6e-05	-2e-05	-1e-05	-2e-05	-0.0002	9e-05	-0.00049	-0.00026	6
29473	-6e-05	-2e-05	-1e-05	-2e-05	-0.0002	9e-05	-0.00049	-0.00026	6
29474	-6e-05	-2e-05	-1e-05	-2e-05	-0.0002	9e-05	-0.00049	-0.00026	6
29475	-6e-05	-2e-05	-1e-05	-2e-05	-0.0002	9e-05	-0.00049	-0.00026	6
29476	-6e-05	-2e-05	-1e-05	-2e-05	-0.0002	9e-05	-0.00049	-0.00026	6
29477	-6e-05	-2e-05	-1e-05	-2e-05	-0.0002	9e-05	-0.00049	-0.00026	6
29478	-6e-05	-2e-05	-1e-05	-2e-05	-0.0002	9e-05	-0.00049	-0.00026	6
29479	-6e-05	-2e-05	-1e-05	-2e-05	-0.0002	9e-05	-0.00049	-0.00026	6
29480	-6e-05	-2e-05	-1e-05	-2e-05	-0.0002	9e-05	-0.00049	-0.00026	6
29481	-6e-05	-2e-05	-1e-05	-2e-05	-0.0002	9e-05	-0.00049	-0.00026	6
29482	-6e-05	-2e-05	-1e-05	-2e-05	-0.0002	9e-05	-0.00049	-0.00026	6
29483	-6e-05	-2e-05	-1e-05	-2e-05	-0.0002	9e-05	-0.00049	-0.00026	6
29484	-6e-05	-2e-05	-1e-05	-2e-05	-0.0002	9e-05	-0.00049	-0.00026	6
29485	3e-05	2e-05	4e-05	0.0002	0.00086	0.00099	-2e-05	0.00012	6
29486	3e-05	1e-05	0	-3e-05	0	0.00039	0.00012	2e-05	6
29488	0	-3e-05	1e-05	-8e-05	-5e-05	-0.00054	-0.00035	-0.00059	6
29489	0	-3e-05	1e-05	-8e-05	-5e-05	-0.00054	-0.00035	-0.00059	6
29490	0	-3e-05	1e-05	-8e-05	-5e-05	-0.00054	-0.00035	-0.00059	6
29492	0	-3e-05	1e-05	-8e-05	-5e-05	-0.00054	-0.00035	-0.00059	6
29493	0	-3e-05	1e-05	-8e-05	-5e-05	-0.00054	-0.00035	-0.00059	6
29494	0	-3e-05	1e-05	-8e-05	-5e-05	-0.00054	-0.00035	-0.00059	6
29495	0	-3e-05	1e-05	-8e-05	-5e-05	-0.00054	-0.00035	-0.00059	6
29496	0	-3e-05	1e-05	-8e-05	-5e-05	-0.00054	-0.00035	-0.00059	6
29497	0	-3e-05	1e-05	-8e-05	-5e-05	-0.00054	-0.00035	-0.00059	6
29498	0	-3e-05	1e-05	-8e-05	-5e-05	-0.00054	-0.00035	-0.00059	6
29499	0	-3e-05	1e-05	-8e-05	-5e-05	-0.00054	-0.00035	-0.00059	6
29500	0	-3e-05	1e-05	-8e-05	-5e-05	-0.00054	-0.00035	-0.00059	6
29501	0	-3e-05	1e-05	-8e-05	-5e-05	-0.00054	-0.00035	-0.00059	6
29502	0	-3e-05	1e-05	-8e-05	-5e-05	-0.00054	-0.00035	-0.00059	6
29503	0	-3e-05	1e-05	-8e-05	-5e-05	-0.00054	-0.00035	-0.00059	6
29504	0	-3e-05	1e-05	-8e-05	-5e-05	-0.00054	-0.00035	-0.00059	6
29505	0	-3e-05	1e-05	-8e-05	-5e-05	-0.00054	-0.00035	-0.00059	6
29506	0	-3e-05	1e-05	-8e-05	-5e-05	-0.00054	-0.00035	-0.00059	6
29507	-7e-05	-5e-05	-3e-05	-4e-05	0.00011	0.00034	-0.00015	-6e-05	6
29508	8e-05	-2e-05	-5e-05	-0.00013	-0.00067	-0.0005	0	0.0006	6
29509	-0.0001	-4e-05	-3e-05	0	0.00033	0.00041	-0.00013	-0.00025	6
29510	-1e-05	-5e-05	-3e-05	-2e-05	-0.00015	4e-05	-6e-05	4e-05	6
29511	-1e-05	-5e-05	-3e-05	-2e-05	-0.00015	4e-05	-6e-05	4e-05	6
29512	-1e-05	-5e-05	-3e-05	-2e-05	-0.00015	4e-05	-6e-05	4e-05	6
29513	-1e-05	-5e-05	-3e-05	-2e-05	-0.00015	4e-05	-6e-05	4e-05	6
29514	-1e-05	-5e-05	-3e-05	-2e-05	-0.00015	4e-05	-6e-05	4e-05	6
29515	-1e-05	-5e-05	-3e-05	-2e-05	-0.00015	4e-05	-6e-05	4e-05	6
29516	-1e-05	-5e-05	-3e-05	-2e-05	-0.00015	4e-05	-6e-05	4e-05	6
29517	-1e-05	-5e-05	-3e-05	-2e-05	-0.00015	4e-05	-6e-05	4e-05	6
29518	-1e-05	-5e-05	-3e-05	-2e-05	-0.00015	4e-05	-6e-05	4e-05	6
29519	-1e-05	-5e-05	-3e-05	-2e-05	-0.00015	4e-05	-6e-05	4e-05	6
29520	-1e-05	-5e-05	-3e-05	-2e-05	-0.00015	4e-05	-6e-05	4e-05	6
29522	-1e-05	-5e-05	-3e-05	-2e-05	-0.00015	4e-05	-6e-05	4e-05	6
29523	5e-05	5e-05	5e-05	8e-05	0.00013	-3e-05	0	-0.00035	6
29524	1e-05	3e-05	2e-05	-3e-05	-3e-05	0.00053	0	-0.00025	6
29525	-5e-05	-5e-05	-9e-05	-0.00012	-0.00021	0.00055	0.00042	0.00049	6
29526	-5e-05	-5e-05	-9e-05	-0.00012	-0.00021	0.00055	0.00042	0.00049	6
29527	-5e-05	-5e-05	-9e-05	-0.00012	-0.00021	0.00055	0.00042	0.00049	6
29528	-5e-05	-5e-05	-9e-05	-0.00012	-0.00021	0.00055	0.00042	0.00049	6
29529	-5e-05	-5e-05	-9e-05	-0.00012	-0.00021	0.00055	0.00042	0.00049	6
29530	-5e-05	-5e-05	-9e-05	-0.00012	-0.00021	0.00055	0.00042	0.00049	6
29531	-5e-05	-5e-05	-9e-05	-0.00012	-0.00021	0.00055	0.00042	0.00049	6
29532	-5e-05	-5e-05	-9e-05	-0.00012	-0.00021	0.00055	0.00042	0.00049	6
29533	-5e-05	-5e-05	-9e-05	-0.00012	-0.00021	0.00055	0.00042	0.00049	6
29534	-5e-05	-5e-05	-9e-05	-0.00012	-0.00021	0.00055	0.00042	0.00049	6
29535	-5e-05	-5e-05	-9e-05	-0.00012	-0.00021	0.00055	0.00042	0.00049	6
29536	-5e-05	-5e-05	-9e-05	-0.00012	-0.00021	0.00055	0.00042	0.00049	6
29538	-5e-05	-5e-05	-9e-05	-0.00012	-0.00021	0.00055	0.00042	0.00049	6
29539	-5e-05	-5e-05	-9e-05	-0.00012	-0.00021	0.00055	0.00042	0.00049	6
29540	-5e-05	-5e-05	-9e-05	-0.00012	-0.00021	0.00055	0.00042	0.00049	6
29542	-5e-05	-5e-05	-9e-05	-0.00012	-0.00021	0.00055	0.00042	0.00049	6
29543	-5e-05	-5e-05	-9e-05	-0.00012	-0.00021	0.00055	0.00042	0.00049	6
29544	-5e-05	-5e-05	-9e-05	-0.00012	-0.00021	0.00055	0.00042	0.00049	6
29545	-3e-05	-1e-05	-1e-05	-5e-05	-4e-05	8e-05	-0.0002	-0.00054	6
29546	-3e-05	-1e-05	-1e-05	-5e-05	-4e-05	8e-05	-0.0002	-0.00054	6
29547	-1e-05	0	0	-9e-05	-0.00044	5e-05	-2e-05	-0.00029	6
29548	-1e-05	0	0	-9e-05	-0.00044	5e-05	-2e-05	-0.00029	6
29549	-1e-05	0	0	-9e-05	-0.00044	5e-05	-2e-05	-0.00029	6
29550	-1e-05	0	0	-9e-05	-0.00044	5e-05	-2e-05	-0.00029	6
29551	-1e-05	0	0	-9e-05	-0.00044	5e-05	-2e-05	-0.00029	6
29552	-1e-05	0	0	-9e-05	-0.00044	5e-05	-2e-05	-0.00029	6
29553	-1e-05	0	0	-9e-05	-0.00044	5e-05	-2e-05	-0.00029	6
29554	-1e-05	0	0	-9e-05	-0.00044	5e-05	-2e-05	-0.00029	6
29555	-1e-05	0	0	-9e-05	-0.00044	5e-05	-2e-05	-0.00029	6
29556	-1e-05	0	0	-9e-05	-0.00044	5e-05	-2e-05	-0.00029	6
29557	-1e-05	0	0	-9e-05	-0.00044	5e-05	-2e-05	-0.00029	6
29558	-1e-05	0	0	-9e-05	-0.00044	5e-05	-2e-05	-0.00029	6
29559	-1e-05	0	0	-9e-05	-0.00044	5e-05	-2e-05	-0.00029	6
29560	-1e-05	0	0	-9e-05	-0.00044	5e-05	-2e-05	-0.00029	6
29561	-1e-05	0	0	-9e-05	-0.00044	5e-05	-2e-05	-0.00029	6
29562	-1e-05	0	0	-9e-05	-0.00044	5e-05	-2e-05	-0.00029	6
29563	-1e-05	0	0	-9e-05	-0.00044	5e-05	-2e-05	-0.00029	6
29564	-1e-05	0	0	-9e-05	-0.00044	5e-05	-2e-05	-0.00029	6
29565	-1e-05	0	0	-9e-05	-0.00044	5e-05	-2e-05	-0.00029	6
29566	-1e-05	0	0	-9e-05	-0.00044	5e-05	-2e-05	-0.00029	6
29567	-1e-05	0	0	-9e-05	-0.00044	5e-05	-2e-05	-0.00029	6
29568	-3e-05	-2e-05	0	5e-05	6e-05	0.00023	-0.00021	-7e-05	6
29569	-5e-05	-3e-05	-4e-05	-4e-05	-1e-05	-0.00026	0.00033	-0.00016	6
29570	-5e-05	-3e-05	-3e-05	-4e-05	0.00018	0	-0.00035	0.00023	6
29571	-5e-05	-3e-05	-3e-05	-4e-05	0.00018	0	-0.00035	0.00023	6
29572	-5e-05	-3e-05	-3e-05	-4e-05	0.00018	0	-0.00035	0.00023	6
29573	-5e-05	-3e-05	-3e-05	-4e-05	0.00018	0	-0.00035	0.00023	6
29574	-5e-05	-3e-05	-3e-05	-4e-05	0.00018	0	-0.00035	0.00023	6
29575	-5e-05	-3e-05	-3e-05	-4e-05	0.00018	0	-0.00035	0.00023	6
29576	-5e-05	-3e-05	-3e-05	-4e-05	0.00018	0	-0.00035	0.00023	6
29577	-5e-05	-3e-05	-3e-05	-4e-05	0.00018	0	-0.00035	0.00023	6
29578	-5e-05	-3e-05	-3e-05	-4e-05	0.00018	0	-0.00035	0.00023	6
29579	-5e-05	-3e-05	-3e-05	-4e-05	0.00018	0	-0.00035	0.00023	6
29580	-5e-05	-3e-05	-3e-05	-4e-05	0.00018	0	-0.00035	0.00023	6
29581	-5e-05	-3e-05	-3e-05	-4e-05	0.00018	0	-0.00035	0.00023	6
29582	1e-05	-3e-05	-6e-05	-0.00014	-0.00033	-0.0005	-0.0002	0.00016	6
29583	1e-05	-3e-05	-6e-05	-0.00014	-0.00033	-0.0005	-0.0002	0.00016	6
29584	1e-05	-3e-05	-6e-05	-0.00014	-0.00033	-0.0005	-0.0002	0.00016	6
29585	1e-05	-3e-05	-6e-05	-0.00014	-0.00033	-0.0005	-0.0002	0.00016	6
29586	1e-05	-3e-05	-6e-05	-0.00014	-0.00033	-0.0005	-0.0002	0.00016	6
29588	1e-05	-3e-05	-6e-05	-0.00014	-0.00033	-0.0005	-0.0002	0.00016	6
29589	-5e-05	-2e-05	-4e-05	6e-05	0.00029	9e-05	0.0003	-6e-05	6
29590	-5e-05	-2e-05	-4e-05	6e-05	0.00029	9e-05	0.0003	-6e-05	6
29591	-5e-05	-2e-05	-4e-05	6e-05	0.00029	9e-05	0.0003	-6e-05	6
29592	-5e-05	-2e-05	-4e-05	6e-05	0.00029	9e-05	0.0003	-6e-05	6
29593	-5e-05	-2e-05	-4e-05	6e-05	0.00029	9e-05	0.0003	-6e-05	6
29594	-5e-05	-2e-05	-4e-05	6e-05	0.00029	9e-05	0.0003	-6e-05	6
29595	-5e-05	-2e-05	-4e-05	6e-05	0.00029	9e-05	0.0003	-6e-05	6
29596	-5e-05	-2e-05	-4e-05	6e-05	0.00029	9e-05	0.0003	-6e-05	6
29597	-5e-05	-2e-05	-4e-05	6e-05	0.00029	9e-05	0.0003	-6e-05	6
29598	-5e-05	-2e-05	-4e-05	6e-05	0.00029	9e-05	0.0003	-6e-05	6
29599	-5e-05	-2e-05	-4e-05	6e-05	0.00029	9e-05	0.0003	-6e-05	6
29600	-5e-05	-2e-05	-4e-05	6e-05	0.00029	9e-05	0.0003	-6e-05	6
29601	-5e-05	-2e-05	-4e-05	6e-05	0.00029	9e-05	0.0003	-6e-05	6
29602	-5e-05	-2e-05	-4e-05	6e-05	0.00029	9e-05	0.0003	-6e-05	6
29603	-5e-05	-2e-05	-4e-05	6e-05	0.00029	9e-05	0.0003	-6e-05	6
29604	-5e-05	-2e-05	-4e-05	6e-05	0.00029	9e-05	0.0003	-6e-05	6
29605	-7e-05	-6e-05	-2e-05	-1e-05	6e-05	0.00027	0.00027	2e-05	6
29606	-7e-05	-6e-05	-2e-05	-1e-05	6e-05	0.00027	0.00027	2e-05	6
29607	0	1e-05	3e-05	6e-05	0.00017	0	0.00029	6e-05	6
29608	0	1e-05	3e-05	6e-05	0.00017	0	0.00029	6e-05	6
29609	0	1e-05	3e-05	6e-05	0.00017	0	0.00029	6e-05	6
29610	0	1e-05	3e-05	6e-05	0.00017	0	0.00029	6e-05	6
29611	0	1e-05	3e-05	6e-05	0.00017	0	0.00029	6e-05	6
29612	0	1e-05	3e-05	6e-05	0.00017	0	0.00029	6e-05	6
29613	0	1e-05	3e-05	6e-05	0.00017	0	0.00029	6e-05	6
29614	0	1e-05	3e-05	6e-05	0.00017	0	0.00029	6e-05	6
29615	0	1e-05	3e-05	6e-05	0.00017	0	0.00029	6e-05	6
29616	0	1e-05	3e-05	6e-05	0.00017	0	0.00029	6e-05	6
29617	0	1e-05	3e-05	6e-05	0.00017	0	0.00029	6e-05	6
29618	0	1e-05	3e-05	6e-05	0.00017	0	0.00029	6e-05	6
29619	0	1e-05	3e-05	6e-05	0.00017	0	0.00029	6e-05	6
29620	0	1e-05	3e-05	6e-05	0.00017	0	0.00029	6e-05	6
29621	0	1e-05	3e-05	6e-05	0.00017	0	0.00029	6e-05	6
29622	0	1e-05	3e-05	6e-05	0.00017	0	0.00029	6e-05	6
29623	0	1e-05	3e-05	6e-05	0.00017	0	0.00029	6e-05	6
29624	0	1e-05	3e-05	6e-05	0.00017	0	0.00029	6e-05	6
29625	0	1e-05	3e-05	6e-05	0.00017	0	0.00029	6e-05	6
29626	0	1e-05	3e-05	6e-05	0.00017	0	0.00029	6e-05	6
29627	0	1e-05	3e-05	6e-05	0.00017	0	0.00029	6e-05	6
29628	-4e-05	1e-05	-1e-05	6e-05	0.00056	0.00065	-0.0006	-0.00047	6
29629	2e-05	-1e-05	-2e-05	4e-05	-2e-05	-0.00063	4e-05	2e-05	6
29630	2e-05	-1e-05	-2e-05	4e-05	-2e-05	-0.00063	4e-05	2e-05	6
29631	2e-05	-1e-05	-2e-05	4e-05	-2e-05	-0.00063	4e-05	2e-05	6
29632	2e-05	-1e-05	-2e-05	4e-05	-2e-05	-0.00063	4e-05	2e-05	6
29633	2e-05	-1e-05	-2e-05	4e-05	-2e-05	-0.00063	4e-05	2e-05	6
29634	2e-05	-1e-05	-2e-05	4e-05	-2e-05	-0.00063	4e-05	2e-05	6
29635	2e-05	-1e-05	-2e-05	4e-05	-2e-05	-0.00063	4e-05	2e-05	6
29636	2e-05	-1e-05	-2e-05	4e-05	-2e-05	-0.00063	4e-05	2e-05	6
29638	2e-05	-1e-05	-2e-05	4e-05	-2e-05	-0.00063	4e-05	2e-05	6
29639	2e-05	-1e-05	-2e-05	4e-05	-2e-05	-0.00063	4e-05	2e-05	6
29640	2e-05	-1e-05	-2e-05	4e-05	-2e-05	-0.00063	4e-05	2e-05	6
29641	2e-05	-1e-05	-2e-05	4e-05	-2e-05	-0.00063	4e-05	2e-05	6
29642	0	-4e-05	-4e-05	-9e-05	-0.0004	-3e-05	-0.00012	-8e-05	6
29643	0	-4e-05	-4e-05	-9e-05	-0.0004	-3e-05	-0.00012	-8e-05	6
29644	0	-4e-05	-4e-05	-9e-05	-0.0004	-3e-05	-0.00012	-8e-05	6
29645	0	-4e-05	-4e-05	-9e-05	-0.0004	-3e-05	-0.00012	-8e-05	6
29646	0	-4e-05	-4e-05	-9e-05	-0.0004	-3e-05	-0.00012	-8e-05	6
29647	0	-4e-05	-4e-05	-9e-05	-0.0004	-3e-05	-0.00012	-8e-05	6
29648	0	-4e-05	-4e-05	-9e-05	-0.0004	-3e-05	-0.00012	-8e-05	6
29649	-2e-05	2e-05	3e-05	0.00015	0.0008	0	-0.0003	-0.00045	6
29650	-2e-05	2e-05	3e-05	0.00015	0.0008	0	-0.0003	-0.00045	6
29651	-2e-05	2e-05	3e-05	0.00015	0.0008	0	-0.0003	-0.00045	6
29652	-2e-05	2e-05	3e-05	0.00015	0.0008	0	-0.0003	-0.00045	6
29653	-2e-05	2e-05	3e-05	0.00015	0.0008	0	-0.0003	-0.00045	6
29654	-2e-05	2e-05	3e-05	0.00015	0.0008	0	-0.0003	-0.00045	6
29655	-2e-05	2e-05	3e-05	0.00015	0.0008	0	-0.0003	-0.00045	6
29656	-2e-05	2e-05	3e-05	0.00015	0.0008	0	-0.0003	-0.00045	6
29657	-2e-05	2e-05	3e-05	0.00015	0.0008	0	-0.0003	-0.00045	6
29658	-2e-05	2e-05	3e-05	0.00015	0.0008	0	-0.0003	-0.00045	6
29659	-2e-05	2e-05	3e-05	0.00015	0.0008	0	-0.0003	-0.00045	6
29660	-2e-05	2e-05	3e-05	0.00015	0.0008	0	-0.0003	-0.00045	6
29661	-2e-05	2e-05	3e-05	0.00015	0.0008	0	-0.0003	-0.00045	6
29662	-2e-05	2e-05	3e-05	0.00015	0.0008	0	-0.0003	-0.00045	6
29663	-2e-05	2e-05	3e-05	0.00015	0.0008	0	-0.0003	-0.00045	6
29664	-2e-05	2e-05	3e-05	0.00015	0.0008	0	-0.0003	-0.00045	6
29665	-2e-05	-3e-05	-3e-05	-5e-05	2e-05	0.00025	0.00039	0.00025	6
29666	2e-05	2e-05	3e-05	7e-05	0.00015	-0.00045	0.00032	0.0002	6
29667	-9e-05	-2e-05	-2e-05	-4e-05	-0.00028	-3e-05	0	8e-05	6
29668	-9e-05	-2e-05	-2e-05	-4e-05	-0.00028	-3e-05	0	8e-05	6
29669	-9e-05	-2e-05	-2e-05	-4e-05	-0.00028	-3e-05	0	8e-05	6
29670	-9e-05	-2e-05	-2e-05	-4e-05	-0.00028	-3e-05	0	8e-05	6
29671	-9e-05	-2e-05	-2e-05	-4e-05	-0.00028	-3e-05	0	8e-05	6
29672	-9e-05	-2e-05	-2e-05	-4e-05	-0.00028	-3e-05	0	8e-05	6
29673	-9e-05	-2e-05	-2e-05	-4e-05	-0.00028	-3e-05	0	8e-05	6
29674	-9e-05	-2e-05	-2e-05	-4e-05	-0.00028	-3e-05	0	8e-05	6
29675	-9e-05	-2e-05	-2e-05	-4e-05	-0.00028	-3e-05	0	8e-05	6
29676	-9e-05	-2e-05	-2e-05	-4e-05	-0.00028	-3e-05	0	8e-05	6
29677	-9e-05	-2e-05	-2e-05	-4e-05	-0.00028	-3e-05	0	8e-05	6
29678	-9e-05	-2e-05	-2e-05	-4e-05	-0.00028	-3e-05	0	8e-05	6
29679	-9e-05	-2e-05	-2e-05	-4e-05	-0.00028	-3e-05	0	8e-05	6
29680	-9e-05	-2e-05	-2e-05	-4e-05	-0.00028	-3e-05	0	8e-05	6
29681	-9e-05	-2e-05	-2e-05	-4e-05	-0.00028	-3e-05	0	8e-05	6
29682	-9e-05	-2e-05	-2e-05	-4e-05	-0.00028	-3e-05	0	8e-05	6
29683	-9e-05	-2e-05	-2e-05	-4e-05	-0.00028	-3e-05	0	8e-05	6
29684	-9e-05	-2e-05	-2e-05	-4e-05	-0.00028	-3e-05	0	8e-05	6
29685	-9e-05	-2e-05	-2e-05	-4e-05	-0.00028	-3e-05	0	8e-05	6
29686	-9e-05	-2e-05	-2e-05	-4e-05	-0.00028	-3e-05	0	8e-05	6
29688	1e-05	0	-2e-05	-9e-05	-0.00021	-0.00048	-0.00045	0.00024	6
29689	-9e-05	-1e-05	1e-05	0.00011	0.00012	-7e-05	-0.00016	-0.00046	6
29690	-5e-05	-4e-05	-4e-05	-0.0001	-0.00013	-0.00026	-9e-05	0.00021	6
29691	-5e-05	-4e-05	-4e-05	-0.0001	-0.00013	-0.00026	-9e-05	0.00021	6
29692	-5e-05	-4e-05	-4e-05	-0.0001	-0.00013	-0.00026	-9e-05	0.00021	6
29693	-5e-05	-4e-05	-4e-05	-0.0001	-0.00013	-0.00026	-9e-05	0.00021	6
29694	-5e-05	-4e-05	-4e-05	-0.0001	-0.00013	-0.00026	-9e-05	0.00021	6
29695	-5e-05	-4e-05	-4e-05	-0.0001	-0.00013	-0.00026	-9e-05	0.00021	6
29696	-5e-05	-4e-05	-4e-05	-0.0001	-0.00013	-0.00026	-9e-05	0.00021	6
29697	-5e-05	-4e-05	-4e-05	-0.0001	-0.00013	-0.00026	-9e-05	0.00021	6
29698	-5e-05	-4e-05	-4e-05	-0.0001	-0.00013	-0.00026	-9e-05	0.00021	6
29699	-5e-05	-4e-05	-4e-05	-0.0001	-0.00013	-0.00026	-9e-05	0.00021	6
29700	-5e-05	-4e-05	-4e-05	-0.0001	-0.00013	-0.00026	-9e-05	0.00021	6
29701	-5e-05	-4e-05	-4e-05	-0.0001	-0.00013	-0.00026	-9e-05	0.00021	6
29702	1e-05	2e-05	3e-05	4e-05	-0.0001	3e-05	0.00012	0.00011	6
29703	1e-05	2e-05	3e-05	4e-05	-0.0001	3e-05	0.00012	0.00011	6
29704	1e-05	2e-05	3e-05	4e-05	-0.0001	3e-05	0.00012	0.00011	6
29705	1e-05	2e-05	3e-05	4e-05	-0.0001	3e-05	0.00012	0.00011	6
29706	1e-05	2e-05	3e-05	4e-05	-0.0001	3e-05	0.00012	0.00011	6
29707	1e-05	2e-05	3e-05	4e-05	-0.0001	3e-05	0.00012	0.00011	6
29708	1e-05	2e-05	3e-05	4e-05	-0.0001	3e-05	0.00012	0.00011	6
29709	1e-05	2e-05	3e-05	4e-05	-0.0001	3e-05	0.00012	0.00011	6
29710	1e-05	2e-05	3e-05	4e-05	-0.0001	3e-05	0.00012	0.00011	6
29711	1e-05	2e-05	3e-05	4e-05	-0.0001	3e-05	0.00012	0.00011	6
29712	1e-05	2e-05	3e-05	4e-05	-0.0001	3e-05	0.00012	0.00011	6
29713	1e-05	2e-05	3e-05	4e-05	-0.0001	3e-05	0.00012	0.00011	6
29714	1e-05	2e-05	3e-05	4e-05	-0.0001	3e-05	0.00012	0.00011	6
29715	1e-05	2e-05	3e-05	4e-05	-0.0001	3e-05	0.00012	0.00011	6
29716	1e-05	2e-05	3e-05	4e-05	-0.0001	3e-05	0.00012	0.00011	6
29717	-1e-05	-4e-05	-1e-05	-1e-05	-0.00034	0.00076	-0.00048	0.00013	6
29718	-1e-05	-4e-05	-1e-05	-1e-05	-0.00034	0.00076	-0.00048	0.00013	6
29719	-1e-05	-4e-05	-1e-05	-1e-05	-0.00034	0.00076	-0.00048	0.00013	6
29720	-1e-05	-4e-05	-1e-05	-1e-05	-0.00034	0.00076	-0.00048	0.00013	6
29721	-1e-05	-4e-05	-1e-05	-1e-05	-0.00034	0.00076	-0.00048	0.00013	6
29722	-1e-05	-4e-05	-1e-05	-1e-05	-0.00034	0.00076	-0.00048	0.00013	6
29723	-1e-05	-4e-05	-1e-05	-1e-05	-0.00034	0.00076	-0.00048	0.00013	6
29724	-1e-05	-4e-05	-1e-05	-1e-05	-0.00034	0.00076	-0.00048	0.00013	6
29725	-2e-05	-1e-05	-3e-05	-2e-05	-2e-05	-0.00018	0.00044	0.00056	6
29726	-2e-05	-1e-05	-3e-05	-2e-05	-2e-05	-0.00018	0.00044	0.00056	6
29727	4e-05	-1e-05	-1e-05	-2e-05	2e-05	0.00041	0.00015	0.00051	6
29728	4e-05	-1e-05	-1e-05	-2e-05	2e-05	0.00041	0.00015	0.00051	6
29729	4e-05	-1e-05	-1e-05	-2e-05	2e-05	0.00041	0.00015	0.00051	6
29730	4e-05	-1e-05	-1e-05	-2e-05	2e-05	0.00041	0.00015	0.00051	6
29732	4e-05	-1e-05	-1e-05	-2e-05	2e-05	0.00041	0.00015	0.00051	6
29733	4e-05	-1e-05	-1e-05	-2e-05	2e-05	0.00041	0.00015	0.00051	6
29734	4e-05	-1e-05	-1e-05	-2e-05	2e-05	0.00041	0.00015	0.00051	6
29735	4e-05	-1e-05	-1e-05	-2e-05	2e-05	0.00041	0.00015	0.00051	6
29736	4e-05	-1e-05	-1e-05	-2e-05	2e-05	0.00041	0.00015	0.00051	6
29738	4e-05	-1e-05	-1e-05	-2e-05	2e-05	0.00041	0.00015	0.00051	6
29739	4e-05	-1e-05	-1e-05	-2e-05	2e-05	0.00041	0.00015	0.00051	6
29740	4e-05	-1e-05	-1e-05	-2e-05	2e-05	0.00041	0.00015	0.00051	6
29741	4e-05	-1e-05	-1e-05	-2e-05	2e-05	0.00041	0.00015	0.00051	6
29742	4e-05	-1e-05	-1e-05	-2e-05	2e-05	0.00041	0.00015	0.00051	6
29743	4e-05	-1e-05	-1e-05	-2e-05	2e-05	0.00041	0.00015	0.00051	6
29744	4e-05	-1e-05	-1e-05	-2e-05	2e-05	0.00041	0.00015	0.00051	6
29745	4e-05	-1e-05	-1e-05	-2e-05	2e-05	0.00041	0.00015	0.00051	6
29746	4e-05	-1e-05	-1e-05	-2e-05	2e-05	0.00041	0.00015	0.00051	6
29747	4e-05	-1e-05	-1e-05	-2e-05	2e-05	0.00041	0.00015	0.00051	6
29748	-2e-05	-6e-05	-4e-05	-7e-05	-0.00023	0.00049	-0.00017	0.00024	6
29749	1e-05	-1e-05	1e-05	-5e-05	0.00015	0.00033	-6e-05	-9e-05	6
29750	6e-05	2e-05	1e-05	-1e-05	-0.00026	-0.00094	0.00022	0.0001	6
29751	6e-05	2e-05	1e-05	-1e-05	-0.00026	-0.00094	0.00022	0.0001	6
29752	6e-05	2e-05	1e-05	-1e-05	-0.00026	-0.00094	0.00022	0.0001	6
29753	6e-05	2e-05	1e-05	-1e-05	-0.00026	-0.00094	0.00022	0.0001	6
29754	6e-05	2e-05	1e-05	-1e-05	-0.00026	-0.00094	0.00022	0.0001	6
29755	6e-05	2e-05	1e-05	-1e-05	-0.00026	-0.00094	0.00022	0.0001	6
29756	6e-05	2e-05	1e-05	-1e-05	-0.00026	-0.00094	0.00022	0.0001	6
29757	6e-05	2e-05	1e-05	-1e-05	-0.00026	-0.00094	0.00022	0.0001	6
29758	6e-05	2e-05	1e-05	-1e-05	-0.00026	-0.00094	0.00022	0.0001	6
29759	6e-05	2e-05	1e-05	-1e-05	-0.00026	-0.00094	0.00022	0.0001	6
29760	6e-05	2e-05	1e-05	-1e-05	-0.00026	-0.00094	0.00022	0.0001	6
29761	6e-05	2e-05	1e-05	-1e-05	-0.00026	-0.00094	0.00022	0.0001	6
29762	6e-05	2e-05	1e-05	-1e-05	-0.00026	-0.00094	0.00022	0.0001	6
29763	-9e-05	-1e-05	-3e-05	-0.00012	-0.00043	0.00032	-0.00047	-0.00049	6
29764	-9e-05	-1e-05	-3e-05	-0.00012	-0.00043	0.00032	-0.00047	-0.00049	6
29765	-9e-05	-1e-05	-3e-05	-0.00012	-0.00043	0.00032	-0.00047	-0.00049	6
29766	-9e-05	-1e-05	-3e-05	-0.00012	-0.00043	0.00032	-0.00047	-0.00049	6
29767	-9e-05	-1e-05	-3e-05	-0.00012	-0.00043	0.00032	-0.00047	-0.00049	6
29768	-9e-05	-1e-05	-3e-05	-0.00012	-0.00043	0.00032	-0.00047	-0.00049	6
29769	1e-05	2e-05	0	-6e-05	3e-05	-0.00019	0.0002	0.00031	6
29770	1e-05	2e-05	0	-6e-05	3e-05	-0.00019	0.0002	0.00031	6
29771	1e-05	2e-05	0	-6e-05	3e-05	-0.00019	0.0002	0.00031	6
29772	1e-05	2e-05	0	-6e-05	3e-05	-0.00019	0.0002	0.00031	6
29773	1e-05	2e-05	0	-6e-05	3e-05	-0.00019	0.0002	0.00031	6
29774	1e-05	2e-05	0	-6e-05	3e-05	-0.00019	0.0002	0.00031	6
29775	1e-05	2e-05	0	-6e-05	3e-05	-0.00019	0.0002	0.00031	6
29776	1e-05	2e-05	0	-6e-05	3e-05	-0.00019	0.0002	0.00031	6
29777	1e-05	2e-05	0	-6e-05	3e-05	-0.00019	0.0002	0.00031	6
29778	1e-05	2e-05	0	-6e-05	3e-05	-0.00019	0.0002	0.00031	6
29779	1e-05	2e-05	0	-6e-05	3e-05	-0.00019	0.0002	0.00031	6
29780	1e-05	2e-05	0	-6e-05	3e-05	-0.00019	0.0002	0.00031	6
29782	1e-05	2e-05	0	-6e-05	3e-05	-0.00019	0.0002	0.00031	6
29783	1e-05	2e-05	0	-6e-05	3e-05	-0.00019	0.0002	0.00031	6
29784	1e-05	2e-05	0	-6e-05	3e-05	-0.00019	0.0002	0.00031	6
29785	-3e-05	1e-05	2e-05	4e-05	-0.00027	-0.00028	0.00032	-0.00057	6
29786	-3e-05	1e-05	2e-05	4e-05	-0.00027	-0.00028	0.00032	-0.00057	6
29788	4e-05	1e-05	3e-05	1e-05	0.00016	-0.00029	-5e-05	-1e-05	6
29789	4e-05	1e-05	3e-05	1e-05	0.00016	-0.00029	-5e-05	-1e-05	6
29790	4e-05	1e-05	3e-05	1e-05	0.00016	-0.00029	-5e-05	-1e-05	6
29791	4e-05	1e-05	3e-05	1e-05	0.00016	-0.00029	-5e-05	-1e-05	6
29792	4e-05	1e-05	3e-05	1e-05	0.00016	-0.00029	-5e-05	-1e-05	6
29793	4e-05	1e-05	3e-05	1e-05	0.00016	-0.00029	-5e-05	-1e-05	6
29794	4e-05	1e-05	3e-05	1e-05	0.00016	-0.00029	-5e-05	-1e-05	6
29795	4e-05	1e-05	3e-05	1e-05	0.00016	-0.00029	-5e-05	-1e-05	6
29796	4e-05	1e-05	3e-05	1e-05	0.00016	-0.00029	-5e-05	-1e-05	6
29797	4e-05	1e-05	3e-05	1e-05	0.00016	-0.00029	-5e-05	-1e-05	6
29798	4e-05	1e-05	3e-05	1e-05	0.00016	-0.00029	-5e-05	-1e-05	6
29799	4e-05	1e-05	3e-05	1e-05	0.00016	-0.00029	-5e-05	-1e-05	6
29800	4e-05	1e-05	3e-05	1e-05	0.00016	-0.00029	-5e-05	-1e-05	6
29801	4e-05	1e-05	3e-05	1e-05	0.00016	-0.00029	-5e-05	-1e-05	6
29802	4e-05	1e-05	3e-05	1e-05	0.00016	-0.00029	-5e-05	-1e-05	6
29803	4e-05	1e-05	3e-05	1e-05	0.00016	-0.00029	-5e-05	-1e-05	6
29804	4e-05	1e-05	3e-05	1e-05	0.00016	-0.00029	-5e-05	-1e-05	6
29805	4e-05	1e-05	3e-05	1e-05	0.00016	-0.00029	-5e-05	-1e-05	6
29806	4e-05	1e-05	3e-05	1e-05	0.00016	-0.00029	-5e-05	-1e-05	6
29807	4e-05	1e-05	3e-05	1e-05	0.00016	-0.00029	-5e-05	-1e-05	6
29808	-4e-05	-4e-05	-4e-05	-6e-05	-7e-05	-0.0004	0.00025	0.00026	6
29809	-4e-05	-1e-05	0	-1e-05	-7e-05	-0.00025	-0.00058	-0.00023	6
29810	0	-2e-05	-2e-05	0	0.00011	0.00023	-5e-05	-0.00036	6
29811	0	-2e-05	-2e-05	0	0.00011	0.00023	-5e-05	-0.00036	6
29812	0	-2e-05	-2e-05	0	0.00011	0.00023	-5e-05	-0.00036	6
29813	0	-2e-05	-2e-05	0	0.00011	0.00023	-5e-05	-0.00036	6
29814	0	-2e-05	-2e-05	0	0.00011	0.00023	-5e-05	-0.00036	6
29815	0	-2e-05	-2e-05	0	0.00011	0.00023	-5e-05	-0.00036	6
29816	0	-2e-05	-2e-05	0	0.00011	0.00023	-5e-05	-0.00036	6
29817	0	-2e-05	-2e-05	0	0.00011	0.00023	-5e-05	-0.00036	6
29818	0	-2e-05	-2e-05	0	0.00011	0.00023	-5e-05	-0.00036	6
29819	0	-2e-05	-2e-05	0	0.00011	0.00023	-5e-05	-0.00036	6
29820	0	-2e-05	-2e-05	0	0.00011	0.00023	-5e-05	-0.00036	6
29821	0	-2e-05	-2e-05	0	0.00011	0.00023	-5e-05	-0.00036	6
29822	0	-1e-05	-1e-05	2e-05	0.00038	0.00052	-0.00037	8e-05	6
29823	0	-1e-05	-1e-05	2e-05	0.00038	0.00052	-0.00037	8e-05	6
29824	0	-1e-05	-1e-05	2e-05	0.00038	0.00052	-0.00037	8e-05	6
29825	0	-1e-05	-1e-05	2e-05	0.00038	0.00052	-0.00037	8e-05	6
29826	0	-1e-05	-1e-05	2e-05	0.00038	0.00052	-0.00037	8e-05	6
29827	0	-1e-05	-1e-05	2e-05	0.00038	0.00052	-0.00037	8e-05	6
29828	0	-1e-05	-1e-05	2e-05	0.00038	0.00052	-0.00037	8e-05	6
29829	-7e-05	-2e-05	-4e-05	-9e-05	-9e-05	-0.00011	3e-05	-0.00035	6
29830	-7e-05	-2e-05	-4e-05	-9e-05	-9e-05	-0.00011	3e-05	-0.00035	6
29831	-7e-05	-2e-05	-4e-05	-9e-05	-9e-05	-0.00011	3e-05	-0.00035	6
29832	-7e-05	-2e-05	-4e-05	-9e-05	-9e-05	-0.00011	3e-05	-0.00035	6
29833	-7e-05	-2e-05	-4e-05	-9e-05	-9e-05	-0.00011	3e-05	-0.00035	6
29834	-7e-05	-2e-05	-4e-05	-9e-05	-9e-05	-0.00011	3e-05	-0.00035	6
29835	-7e-05	-2e-05	-4e-05	-9e-05	-9e-05	-0.00011	3e-05	-0.00035	6
29836	-7e-05	-2e-05	-4e-05	-9e-05	-9e-05	-0.00011	3e-05	-0.00035	6
29838	-7e-05	-2e-05	-4e-05	-9e-05	-9e-05	-0.00011	3e-05	-0.00035	6
29839	-7e-05	-2e-05	-4e-05	-9e-05	-9e-05	-0.00011	3e-05	-0.00035	6
29840	-7e-05	-2e-05	-4e-05	-9e-05	-9e-05	-0.00011	3e-05	-0.00035	6
29841	-7e-05	-2e-05	-4e-05	-9e-05	-9e-05	-0.00011	3e-05	-0.00035	6
29842	-7e-05	-2e-05	-4e-05	-9e-05	-9e-05	-0.00011	3e-05	-0.00035	6
29843	-7e-05	-2e-05	-4e-05	-9e-05	-9e-05	-0.00011	3e-05	-0.00035	6
29844	-7e-05	-2e-05	-4e-05	-9e-05	-9e-05	-0.00011	3e-05	-0.00035	6
29845	3e-05	-2e-05	-2e-05	-6e-05	-0.00037	-0.00056	0.00021	0.00016	6
29846	3e-05	-2e-05	-2e-05	-6e-05	-0.00037	-0.00056	0.00021	0.00016	6
29847	6e-05	0	0	7e-05	-4e-05	-7e-05	1e-05	0.00058	6
29848	6e-05	0	0	7e-05	-4e-05	-7e-05	1e-05	0.00058	6
29849	6e-05	0	0	7e-05	-4e-05	-7e-05	1e-05	0.00058	6
29850	6e-05	0	0	7e-05	-4e-05	-7e-05	1e-05	0.00058	6
29851	6e-05	0	0	7e-05	-4e-05	-7e-05	1e-05	0.00058	6
29852	6e-05	0	0	7e-05	-4e-05	-7e-05	1e-05	0.00058	6
29853	6e-05	0	0	7e-05	-4e-05	-7e-05	1e-05	0.00058	6
29854	6e-05	0	0	7e-05	-4e-05	-7e-05	1e-05	0.00058	6
29855	6e-05	0	0	7e-05	-4e-05	-7e-05	1e-05	0.00058	6
29856	6e-05	0	0	7e-05	-4e-05	-7e-05	1e-05	0.00058	6
29857	6e-05	0	0	7e-05	-4e-05	-7e-05	1e-05	0.00058	6
29858	6e-05	0	0	7e-05	-4e-05	-7e-05	1e-05	0.00058	6
29859	6e-05	0	0	7e-05	-4e-05	-7e-05	1e-05	0.00058	6
29860	6e-05	0	0	7e-05	-4e-05	-7e-05	1e-05	0.00058	6
29861	6e-05	0	0	7e-05	-4e-05	-7e-05	1e-05	0.00058	6
29862	6e-05	0	0	7e-05	-4e-05	-7e-05	1e-05	0.00058	6
29863	6e-05	0	0	7e-05	-4e-05	-7e-05	1e-05	0.00058	6
29864	6e-05	0	0	7e-05	-4e-05	-7e-05	1e-05	0.00058	6
29865	6e-05	0	0	7e-05	-4e-05	-7e-05	1e-05	0.00058	6
29866	6e-05	0	0	7e-05	-4e-05	-7e-05	1e-05	0.00058	6
29867	6e-05	0	0	7e-05	-4e-05	-7e-05	1e-05	0.00058	6
29868	3e-05	-3e-05	-4e-05	-0.00012	0.00018	0.00039	-0.00029	-0.00017	6
29869	-3e-05	1e-05	1e-05	1e-05	-9e-05	0.00055	0.00022	0.00017	6
29870	0	2e-05	1e-05	3e-05	0.00024	-0.00029	-0.00019	-1e-05	6
29871	0	2e-05	1e-05	3e-05	0.00024	-0.00029	-0.00019	-1e-05	6
29872	0	2e-05	1e-05	3e-05	0.00024	-0.00029	-0.00019	-1e-05	6
29873	0	2e-05	1e-05	3e-05	0.00024	-0.00029	-0.00019	-1e-05	6
29874	0	2e-05	1e-05	3e-05	0.00024	-0.00029	-0.00019	-1e-05	6
29875	0	2e-05	1e-05	3e-05	0.00024	-0.00029	-0.00019	-1e-05	6
29876	0	2e-05	1e-05	3e-05	0.00024	-0.00029	-0.00019	-1e-05	6
29877	0	2e-05	1e-05	3e-05	0.00024	-0.00029	-0.00019	-1e-05	6
29878	0	2e-05	1e-05	3e-05	0.00024	-0.00029	-0.00019	-1e-05	6
29879	0	2e-05	1e-05	3e-05	0.00024	-0.00029	-0.00019	-1e-05	6
29880	0	2e-05	1e-05	3e-05	0.00024	-0.00029	-0.00019	-1e-05	6
29882	-5e-05	1e-05	1e-05	-1e-05	-0.00025	-2e-05	0	-0.00047	6
29883	-5e-05	1e-05	1e-05	-1e-05	-0.00025	-2e-05	0	-0.00047	6
29884	-5e-05	1e-05	1e-05	-1e-05	-0.00025	-2e-05	0	-0.00047	6
29885	-5e-05	1e-05	1e-05	-1e-05	-0.00025	-2e-05	0	-0.00047	6
29886	-5e-05	1e-05	1e-05	-1e-05	-0.00025	-2e-05	0	-0.00047	6
29888	-5e-05	1e-05	1e-05	-1e-05	-0.00025	-2e-05	0	-0.00047	6
29889	-4e-05	-4e-05	-5e-05	2e-05	0.00028	0.00056	0.0002	-0.0002	6
29890	-4e-05	-4e-05	-5e-05	2e-05	0.00028	0.00056	0.0002	-0.0002	6
29891	-4e-05	-4e-05	-5e-05	2e-05	0.00028	0.00056	0.0002	-0.0002	6
29892	-4e-05	-4e-05	-5e-05	2e-05	0.00028	0.00056	0.0002	-0.0002	6
29893	-4e-05	-4e-05	-5e-05	2e-05	0.00028	0.00056	0.0002	-0.0002	6
29894	-4e-05	-4e-05	-5e-05	2e-05	0.00028	0.00056	0.0002	-0.0002	6
29895	-4e-05	-4e-05	-5e-05	2e-05	0.00028	0.00056	0.0002	-0.0002	6
29897	-4e-05	-4e-05	-5e-05	2e-05	0.00028	0.00056	0.0002	-0.0002	6
29898	-4e-05	-4e-05	-5e-05	2e-05	0.00028	0.00056	0.0002	-0.0002	6
29899	-4e-05	-4e-05	-5e-05	2e-05	0.00028	0.00056	0.0002	-0.0002	6
29900	-4e-05	-4e-05	-5e-05	2e-05	0.00028	0.00056	0.0002	-0.0002	6
29902	-4e-05	-4e-05	-5e-05	2e-05	0.00028	0.00056	0.0002	-0.0002	6
29903	-4e-05	-4e-05	-5e-05	2e-05	0.00028	0.00056	0.0002	-0.0002	6
29904	-4e-05	-4e-05	-5e-05	2e-05	0.00028	0.00056	0.0002	-0.0002	6
29905	-8e-05	2e-05	0	6e-05	-0.00016	-0.00043	-0.00025	-0.00073	6
29906	-8e-05	2e-05	0	6e-05	-0.00016	-0.00043	-0.00025	-0.00073	6
29907	-3e-05	0	3e-05	0.00011	0.00039	5e-05	0.0001	0.0002	6
29908	-3e-05	0	3e-05	0.00011	0.00039	5e-05	0.0001	0.0002	6
29909	-3e-05	0	3e-05	0.00011	0.00039	5e-05	0.0001	0.0002	6
29910	-3e-05	0	3e-05	0.00011	0.00039	5e-05	0.0001	0.0002	6
29911	-3e-05	0	3e-05	0.00011	0.00039	5e-05	0.0001	0.0002	6
29912	-3e-05	0	3e-05	0.00011	0.00039	5e-05	0.0001	0.0002	6
29913	-3e-05	0	3e-05	0.00011	0.00039	5e-05	0.0001	0.0002	6
29914	-3e-05	0	3e-05	0.00011	0.00039	5e-05	0.0001	0.0002	6
29915	-3e-05	0	3e-05	0.00011	0.00039	5e-05	0.0001	0.0002	6
29916	-3e-05	0	3e-05	0.00011	0.00039	5e-05	0.0001	0.0002	6
29917	-3e-05	0	3e-05	0.00011	0.00039	5e-05	0.0001	0.0002	6
29918	-3e-05	0	3e-05	0.00011	0.00039	5e-05	0.0001	0.0002	6
29919	-3e-05	0	3e-05	0.00011	0.00039	5e-05	0.0001	0.0002	6
29920	-3e-05	0	3e-05	0.00011	0.00039	5e-05	0.0001	0.0002	6
29922	-3e-05	0	3e-05	0.00011	0.00039	5e-05	0.0001	0.0002	6
29923	-3e-05	0	3e-05	0.00011	0.00039	5e-05	0.0001	0.0002	6
29924	-3e-05	0	3e-05	0.00011	0.00039	5e-05	0.0001	0.0002	6
29925	-3e-05	0	3e-05	0.00011	0.00039	5e-05	0.0001	0.0002	6
29926	-3e-05	0	3e-05	0.00011	0.00039	5e-05	0.0001	0.0002	6
29927	-3e-05	0	3e-05	0.00011	0.00039	5e-05	0.0001	0.0002	6
29928	-1e-05	-5e-05	-5e-05	-2e-05	0.00018	6e-05	0.00044	4e-05	6
29929	-1e-05	-5e-05	-5e-05	-2e-05	0.00018	6e-05	0.00044	4e-05	6
29930	-3e-05	-4e-05	-6e-05	-8e-05	-0.00025	-0.00044	-0.00022	-0.0003	6
29931	-3e-05	-4e-05	-6e-05	-8e-05	-0.00025	-0.00044	-0.00022	-0.0003	6
29932	-3e-05	-4e-05	-6e-05	-8e-05	-0.00025	-0.00044	-0.00022	-0.0003	6
29933	-3e-05	-4e-05	-6e-05	-8e-05	-0.00025	-0.00044	-0.00022	-0.0003	6
29934	-3e-05	-4e-05	-6e-05	-8e-05	-0.00025	-0.00044	-0.00022	-0.0003	6
29935	-3e-05	-4e-05	-6e-05	-8e-05	-0.00025	-0.00044	-0.00022	-0.0003	6
29936	-3e-05	-4e-05	-6e-05	-8e-05	-0.00025	-0.00044	-0.00022	-0.0003	6
29938	-3e-05	-4e-05	-6e-05	-8e-05	-0.00025	-0.00044	-0.00022	-0.0003	6
29939	-3e-05	-4e-05	-6e-05	-8e-05	-0.00025	-0.00044	-0.00022	-0.0003	6
29940	-3e-05	-4e-05	-6e-05	-8e-05	-0.00025	-0.00044	-0.00022	-0.0003	6
29941	4e-05	5e-05	7e-05	0.0001	-0.00016	-1e-05	9e-05	0.00014	6
29942	-1e-05	0	-1e-05	-1e-05	-9e-05	-0.0002	0.00026	0.0001	6
29943	-1e-05	0	-1e-05	-1e-05	-9e-05	-0.0002	0.00026	0.0001	6
29944	-1e-05	0	-1e-05	-1e-05	-9e-05	-0.0002	0.00026	0.0001	6
29945	-1e-05	0	-1e-05	-1e-05	-9e-05	-0.0002	0.00026	0.0001	6
29946	-1e-05	0	-1e-05	-1e-05	-9e-05	-0.0002	0.00026	0.0001	6
29947	-1e-05	0	-1e-05	-1e-05	-9e-05	-0.0002	0.00026	0.0001	6
29948	-1e-05	0	-1e-05	-1e-05	-9e-05	-0.0002	0.00026	0.0001	6
29949	-1e-05	0	-1e-05	-1e-05	-9e-05	-0.0002	0.00026	0.0001	6
58807	1e-05	0	1e-05	0.00025	1e-05	-0.00109	-0.00026	-0.00021	6
58808	1e-05	0	1e-05	0.00025	1e-05	-0.00109	-0.00026	-0.00021	6
58809	1e-05	0	1e-05	0.00025	1e-05	-0.00109	-0.00026	-0.00021	6
58810	1e-05	0	1e-05	0.00025	1e-05	-0.00109	-0.00026	-0.00021	6
58811	1e-05	0	1e-05	0.00025	1e-05	-0.00109	-0.00026	-0.00021	6
58812	1e-05	0	1e-05	0.00025	1e-05	-0.00109	-0.00026	-0.00021	6
58813	1e-05	0	1e-05	0.00025	1e-05	-0.00109	-0.00026	-0.00021	6
58814	1e-05	0	1e-05	0.00025	1e-05	-0.00109	-0.00026	-0.00021	6
58815	1e-05	0	1e-05	0.00025	1e-05	-0.00109	-0.00026	-0.00021	6
58816	-7e-05	-5e-05	-2e-05	-8e-05	-0.00058	-0.0004	-0.00013	-0.00031	6
58817	-7e-05	-5e-05	-2e-05	-8e-05	-0.00058	-0.0004	-0.00013	-0.00031	6
58818	-7e-05	-5e-05	-2e-05	-8e-05	-0.00058	-0.0004	-0.00013	-0.00031	6
58819	-7e-05	-5e-05	-2e-05	-8e-05	-0.00058	-0.0004	-0.00013	-0.00031	6
58820	-7e-05	-5e-05	-2e-05	-8e-05	-0.00058	-0.0004	-0.00013	-0.00031	6
58821	-7e-05	-5e-05	-2e-05	-8e-05	-0.00058	-0.0004	-0.00013	-0.00031	6
58822	-7e-05	-5e-05	-2e-05	-8e-05	-0.00058	-0.0004	-0.00013	-0.00031	6
58824	-1e-05	-1e-05	-3e-05	-6e-05	-0.00045	0.00072	0.00042	-0.00104	6
58825	-1e-05	-1e-05	-3e-05	-6e-05	-0.00045	0.00072	0.00042	-0.00104	6
58826	-1e-05	-1e-05	-3e-05	-6e-05	-0.00045	0.00072	0.00042	-0.00104	6
58827	-1e-05	-1e-05	-3e-05	-6e-05	-0.00045	0.00072	0.00042	-0.00104	6
58828	-1e-05	-1e-05	-3e-05	-6e-05	-0.00045	0.00072	0.00042	-0.00104	6
58829	-1e-05	-1e-05	-3e-05	-6e-05	-0.00045	0.00072	0.00042	-0.00104	6
58830	-1e-05	-1e-05	-3e-05	-6e-05	-0.00045	0.00072	0.00042	-0.00104	6
58831	-1e-05	-1e-05	-3e-05	-6e-05	-0.00045	0.00072	0.00042	-0.00104	6
58832	-1e-05	-1e-05	-3e-05	-6e-05	-0.00045	0.00072	0.00042	-0.00104	6
58833	-1e-05	-1e-05	-3e-05	-6e-05	-0.00045	0.00072	0.00042	-0.00104	6
58834	-1e-05	-1e-05	-3e-05	-6e-05	-0.00045	0.00072	0.00042	-0.00104	6
58835	-1e-05	-1e-05	-3e-05	-6e-05	-0.00045	0.00072	0.00042	-0.00104	6
58836	-1e-05	-1e-05	-3e-05	-6e-05	-0.00045	0.00072	0.00042	-0.00104	6
58838	-1e-05	-1e-05	-3e-05	-6e-05	-0.00045	0.00072	0.00042	-0.00104	6
58839	3e-05	2e-05	0.00011	9e-05	0.00036	-0.00022	-5e-05	0.00046	6
58840	-0.00012	2e-05	1e-05	-4e-05	2e-05	0.00018	0.00031	-0.00035	6
58841	-0.00012	2e-05	1e-05	-4e-05	2e-05	0.00018	0.00031	-0.00035	6
58842	-0.00012	2e-05	1e-05	-4e-05	2e-05	0.00018	0.00031	-0.00035	6
58843	-0.00012	2e-05	1e-05	-4e-05	2e-05	0.00018	0.00031	-0.00035	6
58844	-0.00012	2e-05	1e-05	-4e-05	2e-05	0.00018	0.00031	-0.00035	6
58845	-0.00012	2e-05	1e-05	-4e-05	2e-05	0.00018	0.00031	-0.00035	6
58846	-0.00012	2e-05	1e-05	-4e-05	2e-05	0.00018	0.00031	-0.00035	6
58847	-0.00012	2e-05	1e-05	-4e-05	2e-05	0.00018	0.00031	-0.00035	6
58848	-0.00012	2e-05	1e-05	-4e-05	2e-05	0.00018	0.00031	-0.00035	6
58849	-0.00012	2e-05	1e-05	-4e-05	2e-05	0.00018	0.00031	-0.00035	6
58850	-0.00012	2e-05	1e-05	-4e-05	2e-05	0.00018	0.00031	-0.00035	6
58851	-0.00012	2e-05	1e-05	-4e-05	2e-05	0.00018	0.00031	-0.00035	6
58852	-0.00012	2e-05	1e-05	-4e-05	2e-05	0.00018	0.00031	-0.00035	6
58853	-0.00012	2e-05	1e-05	-4e-05	2e-05	0.00018	0.00031	-0.00035	6
58854	-0.00012	2e-05	1e-05	-4e-05	2e-05	0.00018	0.00031	-0.00035	6
58855	-0.00012	2e-05	1e-05	-4e-05	2e-05	0.00018	0.00031	-0.00035	6
58856	-0.00012	2e-05	1e-05	-4e-05	2e-05	0.00018	0.00031	-0.00035	6
58857	-0.00012	2e-05	1e-05	-4e-05	2e-05	0.00018	0.00031	-0.00035	6
58858	-0.00012	2e-05	1e-05	-4e-05	2e-05	0.00018	0.00031	-0.00035	6
58859	-0.00012	2e-05	1e-05	-4e-05	2e-05	0.00018	0.00031	-0.00035	6
58860	-0.00012	2e-05	1e-05	-4e-05	2e-05	0.00018	0.00031	-0.00035	6
58861	-0.00012	2e-05	1e-05	-4e-05	2e-05	0.00018	0.00031	-0.00035	6
58862	-0.00012	2e-05	1e-05	-4e-05	2e-05	0.00018	0.00031	-0.00035	6
58863	5e-05	7e-05	6e-05	0.00019	0.00092	0.00077	0.00014	0.00025	6
58865	5e-05	7e-05	6e-05	0.00019	0.00092	0.00077	0.00014	0.00025	6
58866	5e-05	7e-05	6e-05	0.00019	0.00092	0.00077	0.00014	0.00025	6
58867	5e-05	7e-05	6e-05	0.00019	0.00092	0.00077	0.00014	0.00025	6
58868	5e-05	7e-05	6e-05	0.00019	0.00092	0.00077	0.00014	0.00025	6
58869	5e-05	7e-05	6e-05	0.00019	0.00092	0.00077	0.00014	0.00025	6
58871	5e-05	7e-05	6e-05	0.00019	0.00092	0.00077	0.00014	0.00025	6
58872	5e-05	7e-05	6e-05	0.00019	0.00092	0.00077	0.00014	0.00025	6
58873	5e-05	7e-05	6e-05	0.00019	0.00092	0.00077	0.00014	0.00025	6
58874	5e-05	7e-05	6e-05	0.00019	0.00092	0.00077	0.00014	0.00025	6
58875	5e-05	7e-05	6e-05	0.00019	0.00092	0.00077	0.00014	0.00025	6
58876	5e-05	7e-05	6e-05	0.00019	0.00092	0.00077	0.00014	0.00025	6
58877	5e-05	7e-05	6e-05	0.00019	0.00092	0.00077	0.00014	0.00025	6
58878	5e-05	7e-05	6e-05	0.00019	0.00092	0.00077	0.00014	0.00025	6
58879	5e-05	7e-05	6e-05	0.00019	0.00092	0.00077	0.00014	0.00025	6
58880	5e-05	7e-05	6e-05	0.00019	0.00092	0.00077	0.00014	0.00025	6
58881	5e-05	7e-05	6e-05	0.00019	0.00092	0.00077	0.00014	0.00025	6
58882	5e-05	7e-05	6e-05	0.00019	0.00092	0.00077	0.00014	0.00025	6
58883	5e-05	7e-05	6e-05	0.00019	0.00092	0.00077	0.00014	0.00025	6
58884	5e-05	7e-05	6e-05	0.00019	0.00092	0.00077	0.00014	0.00025	6
58885	-7e-05	-7e-05	-5e-05	1e-05	6e-05	0.00057	3e-05	7e-05	6
58886	0	-1e-05	-3e-05	0	-0.00047	-0.00049	-0.00025	0.00032	6
58888	0	-1e-05	-3e-05	0	-0.00047	-0.00049	-0.00025	0.00032	6
58889	0	-1e-05	-3e-05	0	-0.00047	-0.00049	-0.00025	0.00032	6
58890	0	-1e-05	-3e-05	0	-0.00047	-0.00049	-0.00025	0.00032	6
58891	0	-1e-05	-3e-05	0	-0.00047	-0.00049	-0.00025	0.00032	6
58892	0	-1e-05	-3e-05	0	-0.00047	-0.00049	-0.00025	0.00032	6
58893	0	-1e-05	-3e-05	0	-0.00047	-0.00049	-0.00025	0.00032	6
58894	0	-1e-05	-3e-05	0	-0.00047	-0.00049	-0.00025	0.00032	6
58895	0	-1e-05	-3e-05	0	-0.00047	-0.00049	-0.00025	0.00032	6
58896	0	-1e-05	-3e-05	0	-0.00047	-0.00049	-0.00025	0.00032	6
58897	0	-1e-05	-3e-05	0	-0.00047	-0.00049	-0.00025	0.00032	6
58898	0	-1e-05	-3e-05	0	-0.00047	-0.00049	-0.00025	0.00032	6
58899	-7e-05	-1e-05	-4e-05	-6e-05	0.00014	-0.00021	-0.00024	-2e-05	6
58900	1e-05	0	0	-4e-05	9e-05	-0.00034	-0.00014	-4e-05	6
58901	1e-05	0	0	-4e-05	9e-05	-0.00034	-0.00014	-4e-05	6
58902	1e-05	0	0	-4e-05	9e-05	-0.00034	-0.00014	-4e-05	6
58903	1e-05	0	0	-4e-05	9e-05	-0.00034	-0.00014	-4e-05	6
58904	1e-05	0	0	-4e-05	9e-05	-0.00034	-0.00014	-4e-05	6
58905	1e-05	0	0	-4e-05	9e-05	-0.00034	-0.00014	-4e-05	6
58906	1e-05	0	0	-4e-05	9e-05	-0.00034	-0.00014	-4e-05	6
58907	1e-05	0	0	-4e-05	9e-05	-0.00034	-0.00014	-4e-05	6
58908	1e-05	0	0	-4e-05	9e-05	-0.00034	-0.00014	-4e-05	6
58909	1e-05	0	0	-4e-05	9e-05	-0.00034	-0.00014	-4e-05	6
58910	1e-05	0	0	-4e-05	9e-05	-0.00034	-0.00014	-4e-05	6
58911	1e-05	0	0	-4e-05	9e-05	-0.00034	-0.00014	-4e-05	6
58912	1e-05	0	0	-4e-05	9e-05	-0.00034	-0.00014	-4e-05	6
58913	1e-05	0	0	-4e-05	9e-05	-0.00034	-0.00014	-4e-05	6
58914	1e-05	0	0	-4e-05	9e-05	-0.00034	-0.00014	-4e-05	6
58915	1e-05	0	0	-4e-05	9e-05	-0.00034	-0.00014	-4e-05	6
58916	1e-05	0	0	-4e-05	9e-05	-0.00034	-0.00014	-4e-05	6
58917	1e-05	0	0	-4e-05	9e-05	-0.00034	-0.00014	-4e-05	6
58918	1e-05	0	0	-4e-05	9e-05	-0.00034	-0.00014	-4e-05	6
58919	1e-05	0	0	-4e-05	9e-05	-0.00034	-0.00014	-4e-05	6
58920	1e-05	0	0	-4e-05	9e-05	-0.00034	-0.00014	-4e-05	6
58921	1e-05	0	0	-4e-05	9e-05	-0.00034	-0.00014	-4e-05	6
58922	1e-05	0	0	-4e-05	9e-05	-0.00034	-0.00014	-4e-05	6
58923	-3e-05	-6e-05	-6e-05	-0.00022	-0.00067	-3e-05	-0.00053	-0.00022	6
58924	-3e-05	-6e-05	-6e-05	-0.00022	-0.00067	-3e-05	-0.00053	-0.00022	6
58925	-3e-05	-6e-05	-6e-05	-0.00022	-0.00067	-3e-05	-0.00053	-0.00022	6
58926	-3e-05	-6e-05	-6e-05	-0.00022	-0.00067	-3e-05	-0.00053	-0.00022	6
58927	-3e-05	-6e-05	-6e-05	-0.00022	-0.00067	-3e-05	-0.00053	-0.00022	6
58928	-3e-05	-6e-05	-6e-05	-0.00022	-0.00067	-3e-05	-0.00053	-0.00022	6
58929	-3e-05	-6e-05	-6e-05	-0.00022	-0.00067	-3e-05	-0.00053	-0.00022	6
58930	-3e-05	-6e-05	-6e-05	-0.00022	-0.00067	-3e-05	-0.00053	-0.00022	6
58931	-3e-05	-6e-05	-6e-05	-0.00022	-0.00067	-3e-05	-0.00053	-0.00022	6
58932	-3e-05	-6e-05	-6e-05	-0.00022	-0.00067	-3e-05	-0.00053	-0.00022	6
58933	-3e-05	-6e-05	-6e-05	-0.00022	-0.00067	-3e-05	-0.00053	-0.00022	6
58934	-3e-05	-6e-05	-6e-05	-0.00022	-0.00067	-3e-05	-0.00053	-0.00022	6
58935	-3e-05	-6e-05	-6e-05	-0.00022	-0.00067	-3e-05	-0.00053	-0.00022	6
58937	-3e-05	-6e-05	-6e-05	-0.00022	-0.00067	-3e-05	-0.00053	-0.00022	6
58939	-3e-05	-6e-05	-6e-05	-0.00022	-0.00067	-3e-05	-0.00053	-0.00022	6
58940	-3e-05	-6e-05	-6e-05	-0.00022	-0.00067	-3e-05	-0.00053	-0.00022	6
58941	-3e-05	-6e-05	-6e-05	-0.00022	-0.00067	-3e-05	-0.00053	-0.00022	6
58942	-3e-05	-6e-05	-6e-05	-0.00022	-0.00067	-3e-05	-0.00053	-0.00022	6
58943	-3e-05	-6e-05	-6e-05	-0.00022	-0.00067	-3e-05	-0.00053	-0.00022	6
58944	-3e-05	-6e-05	-6e-05	-0.00022	-0.00067	-3e-05	-0.00053	-0.00022	6
58945	-3e-05	-1e-05	-5e-05	-0.00037	-0.00043	0.00033	0.00031	0.00077	6
58946	-6e-05	5e-05	1e-05	7e-05	-0.00031	0.00113	2e-05	-0.00035	6
58947	-6e-05	5e-05	1e-05	7e-05	-0.00031	0.00113	2e-05	-0.00035	6
58948	-6e-05	5e-05	1e-05	7e-05	-0.00031	0.00113	2e-05	-0.00035	6
58949	-6e-05	5e-05	1e-05	7e-05	-0.00031	0.00113	2e-05	-0.00035	6
58950	-6e-05	5e-05	1e-05	7e-05	-0.00031	0.00113	2e-05	-0.00035	6
58952	-6e-05	5e-05	1e-05	7e-05	-0.00031	0.00113	2e-05	-0.00035	6
58953	-6e-05	5e-05	1e-05	7e-05	-0.00031	0.00113	2e-05	-0.00035	6
58954	-6e-05	5e-05	1e-05	7e-05	-0.00031	0.00113	2e-05	-0.00035	6
58955	-6e-05	5e-05	1e-05	7e-05	-0.00031	0.00113	2e-05	-0.00035	6
58956	-6e-05	5e-05	1e-05	7e-05	-0.00031	0.00113	2e-05	-0.00035	6
58957	-6e-05	5e-05	1e-05	7e-05	-0.00031	0.00113	2e-05	-0.00035	6
58958	-6e-05	5e-05	1e-05	7e-05	-0.00031	0.00113	2e-05	-0.00035	6
58959	-9e-05	-5e-05	-9e-05	0.00011	-0.00017	-7e-05	-3e-05	-6e-05	6
58960	-3e-05	-8e-05	-0.00013	-0.00012	-0.00032	-0.00027	6e-05	0.00035	6
58961	-3e-05	-8e-05	-0.00013	-0.00012	-0.00032	-0.00027	6e-05	0.00035	6
58962	-3e-05	-8e-05	-0.00013	-0.00012	-0.00032	-0.00027	6e-05	0.00035	6
58963	-3e-05	-8e-05	-0.00013	-0.00012	-0.00032	-0.00027	6e-05	0.00035	6
58964	-3e-05	-8e-05	-0.00013	-0.00012	-0.00032	-0.00027	6e-05	0.00035	6
58965	-3e-05	-8e-05	-0.00013	-0.00012	-0.00032	-0.00027	6e-05	0.00035	6
58966	-3e-05	-8e-05	-0.00013	-0.00012	-0.00032	-0.00027	6e-05	0.00035	6
58967	-3e-05	-8e-05	-0.00013	-0.00012	-0.00032	-0.00027	6e-05	0.00035	6
58968	-3e-05	-8e-05	-0.00013	-0.00012	-0.00032	-0.00027	6e-05	0.00035	6
58969	-3e-05	-8e-05	-0.00013	-0.00012	-0.00032	-0.00027	6e-05	0.00035	6
58970	-3e-05	-8e-05	-0.00013	-0.00012	-0.00032	-0.00027	6e-05	0.00035	6
58971	-3e-05	-8e-05	-0.00013	-0.00012	-0.00032	-0.00027	6e-05	0.00035	6
58972	-3e-05	-8e-05	-0.00013	-0.00012	-0.00032	-0.00027	6e-05	0.00035	6
58973	-3e-05	-8e-05	-0.00013	-0.00012	-0.00032	-0.00027	6e-05	0.00035	6
58974	-3e-05	-8e-05	-0.00013	-0.00012	-0.00032	-0.00027	6e-05	0.00035	6
58975	-3e-05	-8e-05	-0.00013	-0.00012	-0.00032	-0.00027	6e-05	0.00035	6
58976	-3e-05	-8e-05	-0.00013	-0.00012	-0.00032	-0.00027	6e-05	0.00035	6
58977	-3e-05	-8e-05	-0.00013	-0.00012	-0.00032	-0.00027	6e-05	0.00035	6
58978	-3e-05	-8e-05	-0.00013	-0.00012	-0.00032	-0.00027	6e-05	0.00035	6
58979	-3e-05	-8e-05	-0.00013	-0.00012	-0.00032	-0.00027	6e-05	0.00035	6
58980	-3e-05	-8e-05	-0.00013	-0.00012	-0.00032	-0.00027	6e-05	0.00035	6
58981	-3e-05	-8e-05	-0.00013	-0.00012	-0.00032	-0.00027	6e-05	0.00035	6
58982	-3e-05	-8e-05	-0.00013	-0.00012	-0.00032	-0.00027	6e-05	0.00035	6
58983	-3e-05	-8e-05	-0.00013	-0.00012	-0.00032	-0.00027	6e-05	0.00035	6
58984	-3e-05	-8e-05	-0.00013	-0.00012	-0.00032	-0.00027	6e-05	0.00035	6
58985	-3e-05	-8e-05	-0.00013	-0.00012	-0.00032	-0.00027	6e-05	0.00035	6
58986	-3e-05	-8e-05	-0.00013	-0.00012	-0.00032	-0.00027	6e-05	0.00035	6
58988	-3e-05	-8e-05	-0.00013	-0.00012	-0.00032	-0.00027	6e-05	0.00035	6
58989	-3e-05	-8e-05	-0.00013	-0.00012	-0.00032	-0.00027	6e-05	0.00035	6
58990	0.00012	5e-05	5e-05	-2e-05	8e-05	-0.00024	0.00092	0.0005	6
58991	2e-05	-2e-05	2e-05	-0.00011	0.00055	0.00026	0.00018	-0.00013	6
58992	2e-05	-2e-05	2e-05	-0.00011	0.00055	0.00026	0.00018	-0.00013	6
58993	2e-05	-2e-05	2e-05	-0.00011	0.00055	0.00026	0.00018	-0.00013	6
58994	2e-05	-2e-05	2e-05	-0.00011	0.00055	0.00026	0.00018	-0.00013	6
58995	2e-05	-2e-05	2e-05	-0.00011	0.00055	0.00026	0.00018	-0.00013	6
58996	2e-05	-2e-05	2e-05	-0.00011	0.00055	0.00026	0.00018	-0.00013	6
58997	2e-05	-2e-05	2e-05	-0.00011	0.00055	0.00026	0.00018	-0.00013	6
58998	2e-05	-2e-05	2e-05	-0.00011	0.00055	0.00026	0.00018	-0.00013	6
58999	2e-05	-2e-05	2e-05	-0.00011	0.00055	0.00026	0.00018	-0.00013	6
59000	2e-05	-2e-05	2e-05	-0.00011	0.00055	0.00026	0.00018	-0.00013	6
59001	2e-05	-2e-05	2e-05	-0.00011	0.00055	0.00026	0.00018	-0.00013	6
59002	2e-05	-2e-05	2e-05	-0.00011	0.00055	0.00026	0.00018	-0.00013	6
59003	2e-05	-2e-05	2e-05	-0.00011	0.00055	0.00026	0.00018	-0.00013	6
59004	2e-05	-2e-05	2e-05	-0.00011	0.00055	0.00026	0.00018	-0.00013	6
59005	9e-05	5e-05	3e-05	0.00012	0.00039	-0.00071	-3e-05	0.00014	6
59006	0.0002	-7e-05	-0.0001	-0.00035	-0.00013	0.00016	6e-05	8e-05	6
59007	0.0002	-7e-05	-0.0001	-0.00035	-0.00013	0.00016	6e-05	8e-05	6
59008	0.0002	-7e-05	-0.0001	-0.00035	-0.00013	0.00016	6e-05	8e-05	6
59009	0.0002	-7e-05	-0.0001	-0.00035	-0.00013	0.00016	6e-05	8e-05	6
59010	0.0002	-7e-05	-0.0001	-0.00035	-0.00013	0.00016	6e-05	8e-05	6
59011	0.0002	-7e-05	-0.0001	-0.00035	-0.00013	0.00016	6e-05	8e-05	6
59012	0.0002	-7e-05	-0.0001	-0.00035	-0.00013	0.00016	6e-05	8e-05	6
59013	0.0002	-7e-05	-0.0001	-0.00035	-0.00013	0.00016	6e-05	8e-05	6
59014	0.0002	-7e-05	-0.0001	-0.00035	-0.00013	0.00016	6e-05	8e-05	6
59015	0.0002	-7e-05	-0.0001	-0.00035	-0.00013	0.00016	6e-05	8e-05	6
59016	0.0002	-7e-05	-0.0001	-0.00035	-0.00013	0.00016	6e-05	8e-05	6
59017	0.0002	-7e-05	-0.0001	-0.00035	-0.00013	0.00016	6e-05	8e-05	6
59018	0.0002	-7e-05	-0.0001	-0.00035	-0.00013	0.00016	6e-05	8e-05	6
59019	0.0002	-7e-05	-0.0001	-0.00035	-0.00013	0.00016	6e-05	8e-05	6
59020	1e-05	-4e-05	-3e-05	1e-05	-0.0005	-0.0002	-5e-05	0.00028	6
59021	-7e-05	-5e-05	-7e-05	3e-05	0.00026	1e-05	-0.00035	0.00053	6
59022	-7e-05	-5e-05	-7e-05	3e-05	0.00026	1e-05	-0.00035	0.00053	6
59023	-7e-05	-5e-05	-7e-05	3e-05	0.00026	1e-05	-0.00035	0.00053	6
59024	-7e-05	-5e-05	-7e-05	3e-05	0.00026	1e-05	-0.00035	0.00053	6
59025	-7e-05	-5e-05	-7e-05	3e-05	0.00026	1e-05	-0.00035	0.00053	6
59026	-7e-05	-5e-05	-7e-05	3e-05	0.00026	1e-05	-0.00035	0.00053	6
59027	-7e-05	-5e-05	-7e-05	3e-05	0.00026	1e-05	-0.00035	0.00053	6
59028	-7e-05	-5e-05	-7e-05	3e-05	0.00026	1e-05	-0.00035	0.00053	6
59029	-7e-05	-5e-05	-7e-05	3e-05	0.00026	1e-05	-0.00035	0.00053	6
59030	-7e-05	-5e-05	-7e-05	3e-05	0.00026	1e-05	-0.00035	0.00053	6
59031	-7e-05	-5e-05	-7e-05	3e-05	0.00026	1e-05	-0.00035	0.00053	6
59032	-7e-05	-5e-05	-7e-05	3e-05	0.00026	1e-05	-0.00035	0.00053	6
59033	-7e-05	-5e-05	-7e-05	3e-05	0.00026	1e-05	-0.00035	0.00053	6
59034	-7e-05	-5e-05	-7e-05	3e-05	0.00026	1e-05	-0.00035	0.00053	6
59035	-7e-05	-5e-05	-7e-05	3e-05	0.00026	1e-05	-0.00035	0.00053	6
59036	-7e-05	-5e-05	-7e-05	3e-05	0.00026	1e-05	-0.00035	0.00053	6
59038	-7e-05	-5e-05	-7e-05	3e-05	0.00026	1e-05	-0.00035	0.00053	6
59039	-7e-05	-5e-05	-7e-05	3e-05	0.00026	1e-05	-0.00035	0.00053	6
59040	-7e-05	-5e-05	-7e-05	3e-05	0.00026	1e-05	-0.00035	0.00053	6
59041	-7e-05	-5e-05	-7e-05	3e-05	0.00026	1e-05	-0.00035	0.00053	6
59042	0.00011	2e-05	6e-05	0.00013	0.00011	-0.00012	-0.00012	0.00044	6
59043	0.00011	2e-05	6e-05	0.00013	0.00011	-0.00012	-0.00012	0.00044	6
59044	0.00011	2e-05	6e-05	0.00013	0.00011	-0.00012	-0.00012	0.00044	6
59045	0.00011	2e-05	6e-05	0.00013	0.00011	-0.00012	-0.00012	0.00044	6
59046	0.00011	2e-05	6e-05	0.00013	0.00011	-0.00012	-0.00012	0.00044	6
59047	0.00011	2e-05	6e-05	0.00013	0.00011	-0.00012	-0.00012	0.00044	6
59048	0.00011	2e-05	6e-05	0.00013	0.00011	-0.00012	-0.00012	0.00044	6
59049	0.00011	2e-05	6e-05	0.00013	0.00011	-0.00012	-0.00012	0.00044	6
59050	0.00011	2e-05	6e-05	0.00013	0.00011	-0.00012	-0.00012	0.00044	6
59051	0.00011	2e-05	6e-05	0.00013	0.00011	-0.00012	-0.00012	0.00044	6
59052	0.00011	2e-05	6e-05	0.00013	0.00011	-0.00012	-0.00012	0.00044	6
59053	0.00011	2e-05	6e-05	0.00013	0.00011	-0.00012	-0.00012	0.00044	6
59054	0.00011	2e-05	6e-05	0.00013	0.00011	-0.00012	-0.00012	0.00044	6
59055	0.00011	2e-05	6e-05	0.00013	0.00011	-0.00012	-0.00012	0.00044	6
59056	0.00011	2e-05	6e-05	0.00013	0.00011	-0.00012	-0.00012	0.00044	6
59057	-0.00012	-6e-05	-6e-05	-0.00028	-0.00029	6e-05	0.00027	0.00025	6
59058	-0.00012	-6e-05	-6e-05	-0.00028	-0.00029	6e-05	0.00027	0.00025	6
59059	-0.00012	-6e-05	-6e-05	-0.00028	-0.00029	6e-05	0.00027	0.00025	6
59060	-0.00012	-6e-05	-6e-05	-0.00028	-0.00029	6e-05	0.00027	0.00025	6
59061	-0.00012	-6e-05	-6e-05	-0.00028	-0.00029	6e-05	0.00027	0.00025	6
59062	-0.00012	-6e-05	-6e-05	-0.00028	-0.00029	6e-05	0.00027	0.00025	6
59063	-0.00012	-6e-05	-6e-05	-0.00028	-0.00029	6e-05	0.00027	0.00025	6
59064	-0.00012	-6e-05	-6e-05	-0.00028	-0.00029	6e-05	0.00027	0.00025	6
59065	-9e-05	-6e-05	-0.00013	-0.00031	0.00022	0.00127	-2e-05	-0.0004	6
59066	-3e-05	7e-05	0.0001	0.00043	0.00126	0.00075	-0.00012	-0.00054	6
59067	-3e-05	7e-05	0.0001	0.00043	0.00126	0.00075	-0.00012	-0.00054	6
59068	-3e-05	7e-05	0.0001	0.00043	0.00126	0.00075	-0.00012	-0.00054	6
59069	-3e-05	7e-05	0.0001	0.00043	0.00126	0.00075	-0.00012	-0.00054	6
59070	-3e-05	7e-05	0.0001	0.00043	0.00126	0.00075	-0.00012	-0.00054	6
59071	-3e-05	7e-05	0.0001	0.00043	0.00126	0.00075	-0.00012	-0.00054	6
59072	-3e-05	7e-05	0.0001	0.00043	0.00126	0.00075	-0.00012	-0.00054	6
59073	-3e-05	7e-05	0.0001	0.00043	0.00126	0.00075	-0.00012	-0.00054	6
59074	-3e-05	7e-05	0.0001	0.00043	0.00126	0.00075	-0.00012	-0.00054	6
59075	-3e-05	7e-05	0.0001	0.00043	0.00126	0.00075	-0.00012	-0.00054	6
59076	-3e-05	7e-05	0.0001	0.00043	0.00126	0.00075	-0.00012	-0.00054	6
59077	-3e-05	7e-05	0.0001	0.00043	0.00126	0.00075	-0.00012	-0.00054	6
59078	-3e-05	7e-05	0.0001	0.00043	0.00126	0.00075	-0.00012	-0.00054	6
59079	-4e-05	-2e-05	-1e-05	0.00016	-0.00038	-0.00081	-0.00043	-0.0004	6
59080	-1e-05	-7e-05	-0.00012	-0.00019	0.00014	1e-05	2e-05	0.00027	6
59081	1e-05	7e-05	8e-05	3e-05	1e-05	-8e-05	0.00069	3e-05	6
59082	1e-05	7e-05	8e-05	3e-05	1e-05	-8e-05	0.00069	3e-05	6
59083	1e-05	7e-05	8e-05	3e-05	1e-05	-8e-05	0.00069	3e-05	6
59084	1e-05	7e-05	8e-05	3e-05	1e-05	-8e-05	0.00069	3e-05	6
59085	1e-05	7e-05	8e-05	3e-05	1e-05	-8e-05	0.00069	3e-05	6
59086	1e-05	7e-05	8e-05	3e-05	1e-05	-8e-05	0.00069	3e-05	6
59088	1e-05	7e-05	8e-05	3e-05	1e-05	-8e-05	0.00069	3e-05	6
59089	1e-05	7e-05	8e-05	3e-05	1e-05	-8e-05	0.00069	3e-05	6
59090	1e-05	7e-05	8e-05	3e-05	1e-05	-8e-05	0.00069	3e-05	6
59091	1e-05	7e-05	8e-05	3e-05	1e-05	-8e-05	0.00069	3e-05	6
59092	1e-05	7e-05	8e-05	3e-05	1e-05	-8e-05	0.00069	3e-05	6
59093	1e-05	7e-05	8e-05	3e-05	1e-05	-8e-05	0.00069	3e-05	6
59094	1e-05	7e-05	8e-05	3e-05	1e-05	-8e-05	0.00069	3e-05	6
59095	1e-05	7e-05	8e-05	3e-05	1e-05	-8e-05	0.00069	3e-05	6
59096	1e-05	7e-05	8e-05	3e-05	1e-05	-8e-05	0.00069	3e-05	6
59097	1e-05	7e-05	8e-05	3e-05	1e-05	-8e-05	0.00069	3e-05	6
59098	1e-05	7e-05	8e-05	3e-05	1e-05	-8e-05	0.00069	3e-05	6
59099	1e-05	7e-05	8e-05	3e-05	1e-05	-8e-05	0.00069	3e-05	6
59101	1e-05	7e-05	8e-05	3e-05	1e-05	-8e-05	0.00069	3e-05	6
59102	1e-05	7e-05	8e-05	3e-05	1e-05	-8e-05	0.00069	3e-05	6
59103	4e-05	-1e-05	-6e-05	-0.00011	-0.00036	-0.00065	6e-05	0.00046	6
59104	4e-05	-1e-05	-6e-05	-0.00011	-0.00036	-0.00065	6e-05	0.00046	6
59105	4e-05	-1e-05	-6e-05	-0.00011	-0.00036	-0.00065	6e-05	0.00046	6
59106	4e-05	-1e-05	-6e-05	-0.00011	-0.00036	-0.00065	6e-05	0.00046	6
59107	4e-05	-1e-05	-6e-05	-0.00011	-0.00036	-0.00065	6e-05	0.00046	6
59108	4e-05	-1e-05	-6e-05	-0.00011	-0.00036	-0.00065	6e-05	0.00046	6
59109	4e-05	-1e-05	-6e-05	-0.00011	-0.00036	-0.00065	6e-05	0.00046	6
59110	4e-05	-1e-05	-6e-05	-0.00011	-0.00036	-0.00065	6e-05	0.00046	6
59111	4e-05	-1e-05	-6e-05	-0.00011	-0.00036	-0.00065	6e-05	0.00046	6
59112	4e-05	-1e-05	-6e-05	-0.00011	-0.00036	-0.00065	6e-05	0.00046	6
59113	4e-05	-1e-05	-6e-05	-0.00011	-0.00036	-0.00065	6e-05	0.00046	6
59114	4e-05	-1e-05	-6e-05	-0.00011	-0.00036	-0.00065	6e-05	0.00046	6
59115	4e-05	-1e-05	-6e-05	-0.00011	-0.00036	-0.00065	6e-05	0.00046	6
59116	4e-05	-1e-05	-6e-05	-0.00011	-0.00036	-0.00065	6e-05	0.00046	6
59117	4e-05	-1e-05	-6e-05	-0.00011	-0.00036	-0.00065	6e-05	0.00046	6
59118	4e-05	-1e-05	-6e-05	-0.00011	-0.00036	-0.00065	6e-05	0.00046	6
59119	4e-05	-1e-05	-6e-05	-0.00011	-0.00036	-0.00065	6e-05	0.00046	6
59120	4e-05	-1e-05	-6e-05	-0.00011	-0.00036	-0.00065	6e-05	0.00046	6
59121	4e-05	-1e-05	-6e-05	-0.00011	-0.00036	-0.00065	6e-05	0.00046	6
59122	4e-05	-1e-05	-6e-05	-0.00011	-0.00036	-0.00065	6e-05	0.00046	6
59123	4e-05	-1e-05	-6e-05	-0.00011	-0.00036	-0.00065	6e-05	0.00046	6
59124	4e-05	-1e-05	-6e-05	-0.00011	-0.00036	-0.00065	6e-05	0.00046	6
59125	-5e-05	-6e-05	-7e-05	-0.0002	8e-05	0.00036	-0.00027	-9e-05	6
59126	-4e-05	1e-05	4e-05	-1e-05	-0.00057	-0.00102	-0.00016	-0.00055	6
59127	-4e-05	1e-05	4e-05	-1e-05	-0.00057	-0.00102	-0.00016	-0.00055	6
59128	-4e-05	1e-05	4e-05	-1e-05	-0.00057	-0.00102	-0.00016	-0.00055	6
59129	-4e-05	1e-05	4e-05	-1e-05	-0.00057	-0.00102	-0.00016	-0.00055	6
59131	-4e-05	1e-05	4e-05	-1e-05	-0.00057	-0.00102	-0.00016	-0.00055	6
59132	-4e-05	1e-05	4e-05	-1e-05	-0.00057	-0.00102	-0.00016	-0.00055	6
59133	-4e-05	1e-05	4e-05	-1e-05	-0.00057	-0.00102	-0.00016	-0.00055	6
59134	-4e-05	1e-05	4e-05	-1e-05	-0.00057	-0.00102	-0.00016	-0.00055	6
59135	-4e-05	1e-05	4e-05	-1e-05	-0.00057	-0.00102	-0.00016	-0.00055	6
59136	-4e-05	1e-05	4e-05	-1e-05	-0.00057	-0.00102	-0.00016	-0.00055	6
59138	-4e-05	1e-05	4e-05	-1e-05	-0.00057	-0.00102	-0.00016	-0.00055	6
59139	-4e-05	1e-05	4e-05	-1e-05	-0.00057	-0.00102	-0.00016	-0.00055	6
59140	-3e-05	-8e-05	-3e-05	-3e-05	-0.00016	0.0006	-0.0001	-0.00015	6
59141	-3e-05	-8e-05	-3e-05	-3e-05	-0.00016	0.0006	-0.0001	-0.00015	6
59142	-3e-05	-8e-05	-3e-05	-3e-05	-0.00016	0.0006	-0.0001	-0.00015	6
59143	-3e-05	-8e-05	-3e-05	-3e-05	-0.00016	0.0006	-0.0001	-0.00015	6
59144	-3e-05	-8e-05	-3e-05	-3e-05	-0.00016	0.0006	-0.0001	-0.00015	6
59145	-3e-05	-8e-05	-3e-05	-3e-05	-0.00016	0.0006	-0.0001	-0.00015	6
59146	-3e-05	-8e-05	-3e-05	-3e-05	-0.00016	0.0006	-0.0001	-0.00015	6
59147	0.0001	-3e-05	-3e-05	0.00013	-5e-05	6e-05	-3e-05	0.00086	6
59148	0.0001	-3e-05	-3e-05	0.00013	-5e-05	6e-05	-3e-05	0.00086	6
59149	0.0001	-3e-05	-3e-05	0.00013	-5e-05	6e-05	-3e-05	0.00086	6
59150	0.0001	-3e-05	-3e-05	0.00013	-5e-05	6e-05	-3e-05	0.00086	6
59151	0.0001	-3e-05	-3e-05	0.00013	-5e-05	6e-05	-3e-05	0.00086	6
59152	0.0001	-3e-05	-3e-05	0.00013	-5e-05	6e-05	-3e-05	0.00086	6
59153	0.0001	-3e-05	-3e-05	0.00013	-5e-05	6e-05	-3e-05	0.00086	6
59154	0.0001	-3e-05	-3e-05	0.00013	-5e-05	6e-05	-3e-05	0.00086	6
59155	0.0001	-3e-05	-3e-05	0.00013	-5e-05	6e-05	-3e-05	0.00086	6
59156	0.0001	-3e-05	-3e-05	0.00013	-5e-05	6e-05	-3e-05	0.00086	6
59157	0.0001	-3e-05	-3e-05	0.00013	-5e-05	6e-05	-3e-05	0.00086	6
59158	0.0001	-3e-05	-3e-05	0.00013	-5e-05	6e-05	-3e-05	0.00086	6
59159	0.0001	-3e-05	-3e-05	0.00013	-5e-05	6e-05	-3e-05	0.00086	6
59160	0.0001	-3e-05	-3e-05	0.00013	-5e-05	6e-05	-3e-05	0.00086	6
