17455	-2e-05	1e-05	2e-05	0.00046	-0.00106	-0.00012	-0.00013	-2e-05	4
17456	-2e-05	1e-05	2e-05	0.00046	-0.00106	-0.00012	-0.00013	-2e-05	4
17457	-2e-05	1e-05	2e-05	0.00046	-0.00106	-0.00012	-0.00013	-2e-05	4
17458	-2e-05	1e-05	2e-05	0.00046	-0.00106	-0.00012	-0.00013	-2e-05	4
17459	-2e-05	1e-05	2e-05	0.00046	-0.00106	-0.00012	-0.00013	-2e-05	4
17460	-2e-05	1e-05	2e-05	0.00046	-0.00106	-0.00012	-0.00013	-2e-05	4
17461	-2e-05	1e-05	2e-05	0.00046	-0.00106	-0.00012	-0.00013	-2e-05	4
17462	-2e-05	1e-05	2e-05	0.00046	-0.00106	-0.00012	-0.00013	-2e-05	4
17463	-2e-05	1e-05	2e-05	0.00046	-0.00106	-0.00012	-0.00013	-2e-05	4
17464	-2e-05	1e-05	2e-05	0.00046	-0.00106	-0.00012	-0.00013	-2e-05	4
17465	-2e-05	1e-05	2e-05	0.00046	-0.00106	-0.00012	-0.00013	-2e-05	4
17466	-2e-05	1e-05	2e-05	0.00046	-0.00106	-0.00012	-0.00013	-2e-05	4
17467	-2e-05	1e-05	2e-05	0.00046	-0.00106	-0.00012	-0.00013	-2e-05	4
17468	-7e-05	-0.00014	-0.00035	0.00098	-0.00061	-0.00065	-0.0002	-0.0001	4
17469	-7e-05	-0.00014	-0.00035	0.00098	-0.00061	-0.00065	-0.0002	-0.0001	4
17470	2e-05	4e-05	5e-05	-0.00021	0.00034	0.00034	-1e-05	2e-05	4
17471	2e-05	4e-05	5e-05	-0.00021	0.00034	0.00034	-1e-05	2e-05	4
17472	2e-05	4e-05	5e-05	-0.00021	0.00034	0.00034	-1e-05	2e-05	4
17473	2e-05	4e-05	5e-05	-0.00021	0.00034	0.00034	-1e-05	2e-05	4
17474	2e-05	4e-05	5e-05	-0.00021	0.00034	0.00034	-1e-05	2e-05	4
17475	2e-05	4e-05	5e-05	-0.00021	0.00034	0.00034	-1e-05	2e-05	4
17476	2e-05	4e-05	5e-05	-0.00021	0.00034	0.00034	-1e-05	2e-05	4
17477	2e-05	4e-05	5e-05	-0.00021	0.00034	0.00034	-1e-05	2e-05	4
17478	2e-05	4e-05	5e-05	-0.00021	0.00034	0.00034	-1e-05	2e-05	4
17479	2e-05	4e-05	5e-05	-0.00021	0.00034	0.00034	-1e-05	2e-05	4
17480	2e-05	4e-05	5e-05	-0.00021	0.00034	0.00034	-1e-05	2e-05	4
17481	2e-05	4e-05	5e-05	-0.00021	0.00034	0.00034	-1e-05	2e-05	4
17482	2e-05	4e-05	5e-05	-0.00021	0.00034	0.00034	-1e-05	2e-05	4
17483	2e-05	4e-05	5e-05	-0.00021	0.00034	0.00034	-1e-05	2e-05	4
17484	2e-05	4e-05	5e-05	-0.00021	0.00034	0.00034	-1e-05	2e-05	4
17485	2e-05	4e-05	5e-05	-0.00021	0.00034	0.00034	-1e-05	2e-05	4
17486	2e-05	4e-05	5e-05	-0.00021	0.00034	0.00034	-1e-05	2e-05	4
17488	2e-05	4e-05	5e-05	-0.00021	0.00034	0.00034	-1e-05	2e-05	4
17489	2e-05	4e-05	5e-05	-0.00021	0.00034	0.00034	-1e-05	2e-05	4
17490	0.00017	0.00039	0.00105	0.00127	-0.00047	0.00045	0.00022	0.00014	4
17491	0.00017	0.00039	0.00105	0.00127	-0.00047	0.00045	0.00022	0.00014	4
17492	-3e-05	-0.0001	-0.00021	-0.00014	0.00089	-0.00117	-9e-05	-4e-05	4
17493	-3e-05	-0.0001	-0.00021	-0.00014	0.00089	-0.00117	-9e-05	-4e-05	4
17494	-3e-05	-0.0001	-0.00021	-0.00014	0.00089	-0.00117	-9e-05	-4e-05	4
17495	-3e-05	-0.0001	-0.00021	-0.00014	0.00089	-0.00117	-9e-05	-4e-05	4
17496	-3e-05	-0.0001	-0.00021	-0.00014	0.00089	-0.00117	-9e-05	-4e-05	4
17497	-3e-05	-0.0001	-0.00021	-0.00014	0.00089	-0.00117	-9e-05	-4e-05	4
17498	-3e-05	-0.0001	-0.00021	-0.00014	0.00089	-0.00117	-9e-05	-4e-05	4
17499	-3e-05	-0.0001	-0.00021	-0.00014	0.00089	-0.00117	-9e-05	-4e-05	4
17500	-3e-05	-0.0001	-0.00021	-0.00014	0.00089	-0.00117	-9e-05	-4e-05	4
17501	-3e-05	-0.0001	-0.00021	-0.00014	0.00089	-0.00117	-9e-05	-4e-05	4
17502	-3e-05	-0.0001	-0.00021	-0.00014	0.00089	-0.00117	-9e-05	-4e-05	4
17503	-3e-05	-0.0001	-0.00021	-0.00014	0.00089	-0.00117	-9e-05	-4e-05	4
17504	-3e-05	-0.0001	-0.00021	-0.00014	0.00089	-0.00117	-9e-05	-4e-05	4
17505	-3e-05	-0.0001	-0.00021	-0.00014	0.00089	-0.00117	-9e-05	-4e-05	4
17506	-3e-05	-0.0001	-0.00021	-0.00014	0.00089	-0.00117	-9e-05	-4e-05	4
17507	-3e-05	-0.0001	-0.00021	-0.00014	0.00089	-0.00117	-9e-05	-4e-05	4
17508	-3e-05	-0.0001	-0.00021	-0.00014	0.00089	-0.00117	-9e-05	-4e-05	4
17509	-3e-05	-0.0001	-0.00021	-0.00014	0.00089	-0.00117	-9e-05	-4e-05	4
17510	-3e-05	-0.0001	-0.00021	-0.00014	0.00089	-0.00117	-9e-05	-4e-05	4
17511	-3e-05	-0.0001	-0.00021	-0.00014	0.00089	-0.00117	-9e-05	-4e-05	4
17512	-3e-05	-0.0001	-0.00021	-0.00014	0.00089	-0.00117	-9e-05	-4e-05	4
17513	2e-05	8e-05	0.00011	-0.00094	-0.00072	0.00028	-1e-05	-1e-05	4
17514	-9e-05	-0.00013	-0.00031	2e-05	-0.00059	-0.00057	-0.00023	-0.0001	4
17515	-9e-05	-0.00013	-0.00031	2e-05	-0.00059	-0.00057	-0.00023	-0.0001	4
17516	-9e-05	-0.00013	-0.00031	2e-05	-0.00059	-0.00057	-0.00023	-0.0001	4
17517	-9e-05	-0.00013	-0.00031	2e-05	-0.00059	-0.00057	-0.00023	-0.0001	4
17518	-9e-05	-0.00013	-0.00031	2e-05	-0.00059	-0.00057	-0.00023	-0.0001	4
17519	-9e-05	-0.00013	-0.00031	2e-05	-0.00059	-0.00057	-0.00023	-0.0001	4
17520	-9e-05	-0.00013	-0.00031	2e-05	-0.00059	-0.00057	-0.00023	-0.0001	4
17521	-9e-05	-0.00013	-0.00031	2e-05	-0.00059	-0.00057	-0.00023	-0.0001	4
17522	-9e-05	-0.00013	-0.00031	2e-05	-0.00059	-0.00057	-0.00023	-0.0001	4
17523	-9e-05	-0.00013	-0.00031	2e-05	-0.00059	-0.00057	-0.00023	-0.0001	4
17524	-9e-05	-0.00013	-0.00031	2e-05	-0.00059	-0.00057	-0.00023	-0.0001	4
17525	-9e-05	-0.00013	-0.00031	2e-05	-0.00059	-0.00057	-0.00023	-0.0001	4
17526	-9e-05	-0.00013	-0.00031	2e-05	-0.00059	-0.00057	-0.00023	-0.0001	4
17527	-9e-05	-0.00013	-0.00031	2e-05	-0.00059	-0.00057	-0.00023	-0.0001	4
17528	-4e-05	-1e-05	0.00014	0.00083	0.00047	0.00106	9e-05	-8e-05	4
17529	-4e-05	-1e-05	0.00014	0.00083	0.00047	0.00106	9e-05	-8e-05	4
17530	-0.00015	-0.00022	-0.00025	-6e-05	-0.00014	0.00013	-0.00019	-0.00011	4
17531	-0.00015	-0.00022	-0.00025	-6e-05	-0.00014	0.00013	-0.00019	-0.00011	4
17532	-0.00015	-0.00022	-0.00025	-6e-05	-0.00014	0.00013	-0.00019	-0.00011	4
17533	-0.00015	-0.00022	-0.00025	-6e-05	-0.00014	0.00013	-0.00019	-0.00011	4
17534	-0.00015	-0.00022	-0.00025	-6e-05	-0.00014	0.00013	-0.00019	-0.00011	4
17535	-0.00015	-0.00022	-0.00025	-6e-05	-0.00014	0.00013	-0.00019	-0.00011	4
17536	-0.00015	-0.00022	-0.00025	-6e-05	-0.00014	0.00013	-0.00019	-0.00011	4
17538	-0.00015	-0.00022	-0.00025	-6e-05	-0.00014	0.00013	-0.00019	-0.00011	4
17539	-0.00015	-0.00022	-0.00025	-6e-05	-0.00014	0.00013	-0.00019	-0.00011	4
17540	-0.00015	-0.00022	-0.00025	-6e-05	-0.00014	0.00013	-0.00019	-0.00011	4
17541	-0.00015	-0.00022	-0.00025	-6e-05	-0.00014	0.00013	-0.00019	-0.00011	4
17542	-0.00015	-0.00022	-0.00025	-6e-05	-0.00014	0.00013	-0.00019	-0.00011	4
17543	-0.00015	-0.00022	-0.00025	-6e-05	-0.00014	0.00013	-0.00019	-0.00011	4
17544	-0.00015	-0.00022	-0.00025	-6e-05	-0.00014	0.00013	-0.00019	-0.00011	4
17545	-0.00015	-0.00022	-0.00025	-6e-05	-0.00014	0.00013	-0.00019	-0.00011	4
17546	-0.00015	-0.00022	-0.00025	-6e-05	-0.00014	0.00013	-0.00019	-0.00011	4
17547	-0.00015	-0.00022	-0.00025	-6e-05	-0.00014	0.00013	-0.00019	-0.00011	4
17548	-0.00015	-0.00022	-0.00025	-6e-05	-0.00014	0.00013	-0.00019	-0.00011	4
17549	-0.00015	-0.00022	-0.00025	-6e-05	-0.00014	0.00013	-0.00019	-0.00011	4
17550	-0.00015	-0.00022	-0.00025	-6e-05	-0.00014	0.00013	-0.00019	-0.00011	4
17551	-0.00015	-0.00022	-0.00025	-6e-05	-0.00014	0.00013	-0.00019	-0.00011	4
17552	-0.00015	-0.00022	-0.00025	-6e-05	-0.00014	0.00013	-0.00019	-0.00011	4
17553	-0.00015	-0.00022	-0.00025	-6e-05	-0.00014	0.00013	-0.00019	-0.00011	4
17554	-0.00015	-0.00022	-0.00025	-6e-05	-0.00014	0.00013	-0.00019	-0.00011	4
17555	-0.00015	-0.00022	-0.00025	-6e-05	-0.00014	0.00013	-0.00019	-0.00011	4
17556	-0.00015	-0.00022	-0.00025	-6e-05	-0.00014	0.00013	-0.00019	-0.00011	4
17557	8e-05	0.00014	0.0002	-0.00065	-0.00128	-6e-05	0.00019	7e-05	4
17558	-9e-05	-0.00016	-0.00056	-0.00074	0.00048	-0.00034	-0.00022	-0.0001	4
17559	1e-05	3e-05	4e-05	7e-05	-0.00113	-0.00092	-5e-05	1e-05	4
17560	1e-05	3e-05	4e-05	7e-05	-0.00113	-0.00092	-5e-05	1e-05	4
17561	1e-05	3e-05	4e-05	7e-05	-0.00113	-0.00092	-5e-05	1e-05	4
17562	1e-05	3e-05	4e-05	7e-05	-0.00113	-0.00092	-5e-05	1e-05	4
17563	1e-05	3e-05	4e-05	7e-05	-0.00113	-0.00092	-5e-05	1e-05	4
17564	-1e-05	0	0.0002	0.00072	-0.00058	0.00054	0.00017	2e-05	4
17565	-1e-05	0	0.0002	0.00072	-0.00058	0.00054	0.00017	2e-05	4
17566	-1e-05	0	0.0002	0.00072	-0.00058	0.00054	0.00017	2e-05	4
17567	-1e-05	0	0.0002	0.00072	-0.00058	0.00054	0.00017	2e-05	4
17568	-1e-05	0	0.0002	0.00072	-0.00058	0.00054	0.00017	2e-05	4
17569	-1e-05	0	0.0002	0.00072	-0.00058	0.00054	0.00017	2e-05	4
17570	-1e-05	0	0.0002	0.00072	-0.00058	0.00054	0.00017	2e-05	4
17571	-3e-05	-4e-05	6e-05	8e-05	0.0001	0.00099	-6e-05	-2e-05	4
17572	-3e-05	-4e-05	6e-05	8e-05	0.0001	0.00099	-6e-05	-2e-05	4
17573	-3e-05	-4e-05	6e-05	8e-05	0.0001	0.00099	-6e-05	-2e-05	4
17574	-3e-05	-4e-05	6e-05	8e-05	0.0001	0.00099	-6e-05	-2e-05	4
17575	-3e-05	-4e-05	6e-05	8e-05	0.0001	0.00099	-6e-05	-2e-05	4
17576	-3e-05	-4e-05	6e-05	8e-05	0.0001	0.00099	-6e-05	-2e-05	4
17577	-3e-05	-4e-05	6e-05	8e-05	0.0001	0.00099	-6e-05	-2e-05	4
17578	-3e-05	-4e-05	6e-05	8e-05	0.0001	0.00099	-6e-05	-2e-05	4
17579	-3e-05	-4e-05	6e-05	8e-05	0.0001	0.00099	-6e-05	-2e-05	4
17580	-3e-05	-4e-05	6e-05	8e-05	0.0001	0.00099	-6e-05	-2e-05	4
17581	-3e-05	-4e-05	6e-05	8e-05	0.0001	0.00099	-6e-05	-2e-05	4
17582	-3e-05	-4e-05	6e-05	8e-05	0.0001	0.00099	-6e-05	-2e-05	4
17583	-3e-05	-4e-05	6e-05	8e-05	0.0001	0.00099	-6e-05	-2e-05	4
17584	-3e-05	-4e-05	6e-05	8e-05	0.0001	0.00099	-6e-05	-2e-05	4
17585	-3e-05	-4e-05	6e-05	8e-05	0.0001	0.00099	-6e-05	-2e-05	4
17586	-3e-05	-4e-05	6e-05	8e-05	0.0001	0.00099	-6e-05	-2e-05	4
17589	0.00015	0.00018	0.00034	0.00015	0.00037	0.00024	0.00039	0.00023	4
17590	0.00015	0.00018	0.00034	0.00015	0.00037	0.00024	0.00039	0.00023	4
17591	0.00015	0.00018	0.00034	0.00015	0.00037	0.00024	0.00039	0.00023	4
17592	0.00015	0.00018	0.00034	0.00015	0.00037	0.00024	0.00039	0.00023	4
17593	0.00015	0.00018	0.00034	0.00015	0.00037	0.00024	0.00039	0.00023	4
17594	0.00015	0.00018	0.00034	0.00015	0.00037	0.00024	0.00039	0.00023	4
17595	0.00015	0.00018	0.00034	0.00015	0.00037	0.00024	0.00039	0.00023	4
17596	0.00015	0.00018	0.00034	0.00015	0.00037	0.00024	0.00039	0.00023	4
17597	0.00015	0.00018	0.00034	0.00015	0.00037	0.00024	0.00039	0.00023	4
17598	0.00015	0.00018	0.00034	0.00015	0.00037	0.00024	0.00039	0.00023	4
17599	0.00015	0.00018	0.00034	0.00015	0.00037	0.00024	0.00039	0.00023	4
17600	0.00015	0.00018	0.00034	0.00015	0.00037	0.00024	0.00039	0.00023	4
17601	0.00015	0.00018	0.00034	0.00015	0.00037	0.00024	0.00039	0.00023	4
17602	0.00015	0.00018	0.00034	0.00015	0.00037	0.00024	0.00039	0.00023	4
17603	0.00015	0.00018	0.00034	0.00015	0.00037	0.00024	0.00039	0.00023	4
17604	0.00015	0.00018	0.00034	0.00015	0.00037	0.00024	0.00039	0.00023	4
17605	0.00015	0.00018	0.00034	0.00015	0.00037	0.00024	0.00039	0.00023	4
17606	0.00015	0.00018	0.00034	0.00015	0.00037	0.00024	0.00039	0.00023	4
17607	0.00015	0.00018	0.00034	0.00015	0.00037	0.00024	0.00039	0.00023	4
17608	0.00015	0.00018	0.00034	0.00015	0.00037	0.00024	0.00039	0.00023	4
17609	0.00015	0.00018	0.00034	0.00015	0.00037	0.00024	0.00039	0.00023	4
17610	-3e-05	-8e-05	-0.00031	-0.00095	0.00058	-0.00031	4e-05	1e-05	4
17611	-3e-05	-8e-05	-0.00031	-0.00095	0.00058	-0.00031	4e-05	1e-05	4
17612	6e-05	0.00015	0.00035	-0.00063	-0.00078	-7e-05	7e-05	0	4
17613	6e-05	0.00015	0.00035	-0.00063	-0.00078	-7e-05	7e-05	0	4
17614	6e-05	0.00015	0.00035	-0.00063	-0.00078	-7e-05	7e-05	0	4
17615	6e-05	0.00015	0.00035	-0.00063	-0.00078	-7e-05	7e-05	0	4
17616	6e-05	0.00015	0.00035	-0.00063	-0.00078	-7e-05	7e-05	0	4
17617	6e-05	0.00015	0.00035	-0.00063	-0.00078	-7e-05	7e-05	0	4
17618	6e-05	0.00015	0.00035	-0.00063	-0.00078	-7e-05	7e-05	0	4
17619	6e-05	0.00015	0.00035	-0.00063	-0.00078	-7e-05	7e-05	0	4
17620	6e-05	0.00015	0.00035	-0.00063	-0.00078	-7e-05	7e-05	0	4
17621	6e-05	0.00015	0.00035	-0.00063	-0.00078	-7e-05	7e-05	0	4
17622	6e-05	0.00015	0.00035	-0.00063	-0.00078	-7e-05	7e-05	0	4
17623	6e-05	0.00015	0.00035	-0.00063	-0.00078	-7e-05	7e-05	0	4
17624	0.00012	0.00016	0.00038	0.00102	0.00127	0.00067	0.00033	0.00018	4
17625	0.00012	0.00016	0.00038	0.00102	0.00127	0.00067	0.00033	0.00018	4
17626	0.00012	0.00016	0.00038	0.00102	0.00127	0.00067	0.00033	0.00018	4
17627	0.00012	0.00016	0.00038	0.00102	0.00127	0.00067	0.00033	0.00018	4
17628	0.00012	0.00016	0.00038	0.00102	0.00127	0.00067	0.00033	0.00018	4
17629	0.00012	0.00016	0.00038	0.00102	0.00127	0.00067	0.00033	0.00018	4
17630	0.00012	0.00016	0.00038	0.00102	0.00127	0.00067	0.00033	0.00018	4
17631	6e-05	0.0001	0.0001	0.00049	0.00036	0.00012	0.00023	7e-05	4
17632	6e-05	0.0001	0.0001	0.00049	0.00036	0.00012	0.00023	7e-05	4
17633	6e-05	0.0001	0.0001	0.00049	0.00036	0.00012	0.00023	7e-05	4
17634	6e-05	0.0001	0.0001	0.00049	0.00036	0.00012	0.00023	7e-05	4
17635	6e-05	0.0001	0.0001	0.00049	0.00036	0.00012	0.00023	7e-05	4
17636	6e-05	0.0001	0.0001	0.00049	0.00036	0.00012	0.00023	7e-05	4
17638	6e-05	0.0001	0.0001	0.00049	0.00036	0.00012	0.00023	7e-05	4
17639	6e-05	0.0001	0.0001	0.00049	0.00036	0.00012	0.00023	7e-05	4
17640	6e-05	0.0001	0.0001	0.00049	0.00036	0.00012	0.00023	7e-05	4
17641	6e-05	0.0001	0.0001	0.00049	0.00036	0.00012	0.00023	7e-05	4
17642	6e-05	0.0001	0.0001	0.00049	0.00036	0.00012	0.00023	7e-05	4
17643	6e-05	0.0001	0.0001	0.00049	0.00036	0.00012	0.00023	7e-05	4
17644	6e-05	0.0001	0.0001	0.00049	0.00036	0.00012	0.00023	7e-05	4
17645	6e-05	0.0001	0.0001	0.00049	0.00036	0.00012	0.00023	7e-05	4
17646	6e-05	0.0001	0.0001	0.00049	0.00036	0.00012	0.00023	7e-05	4
17647	6e-05	0.0001	0.0001	0.00049	0.00036	0.00012	0.00023	7e-05	4
17648	-2e-05	3e-05	0.00037	0.00089	-0.00075	-0.00079	-0.00019	-0.0001	4
17649	0	-3e-05	-0.00036	-0.00059	-0.00038	6e-05	-6e-05	3e-05	4
17650	0	-3e-05	-0.00036	-0.00059	-0.00038	6e-05	-6e-05	3e-05	4
17651	0	-3e-05	-0.00036	-0.00059	-0.00038	6e-05	-6e-05	3e-05	4
17652	0	-3e-05	-0.00036	-0.00059	-0.00038	6e-05	-6e-05	3e-05	4
17653	0	-3e-05	-0.00036	-0.00059	-0.00038	6e-05	-6e-05	3e-05	4
17654	0	-3e-05	-0.00036	-0.00059	-0.00038	6e-05	-6e-05	3e-05	4
17655	0	-3e-05	-0.00036	-0.00059	-0.00038	6e-05	-6e-05	3e-05	4
17656	0	-3e-05	-0.00036	-0.00059	-0.00038	6e-05	-6e-05	3e-05	4
17657	0	-3e-05	-0.00036	-0.00059	-0.00038	6e-05	-6e-05	3e-05	4
17658	0	-3e-05	-0.00036	-0.00059	-0.00038	6e-05	-6e-05	3e-05	4
17659	0	-3e-05	-0.00036	-0.00059	-0.00038	6e-05	-6e-05	3e-05	4
17660	0	-3e-05	-0.00036	-0.00059	-0.00038	6e-05	-6e-05	3e-05	4
17661	0	-3e-05	-0.00036	-0.00059	-0.00038	6e-05	-6e-05	3e-05	4
17662	0	-3e-05	-0.00036	-0.00059	-0.00038	6e-05	-6e-05	3e-05	4
17663	0	-3e-05	-0.00036	-0.00059	-0.00038	6e-05	-6e-05	3e-05	4
17664	0	-3e-05	-0.00036	-0.00059	-0.00038	6e-05	-6e-05	3e-05	4
17665	0	-3e-05	-0.00036	-0.00059	-0.00038	6e-05	-6e-05	3e-05	4
17666	0	-3e-05	-0.00036	-0.00059	-0.00038	6e-05	-6e-05	3e-05	4
17667	0	-3e-05	-0.00036	-0.00059	-0.00038	6e-05	-6e-05	3e-05	4
17668	0	-3e-05	-0.00036	-0.00059	-0.00038	6e-05	-6e-05	3e-05	4
17669	0	-3e-05	-0.00036	-0.00059	-0.00038	6e-05	-6e-05	3e-05	4
17670	-6e-05	-0.00016	-0.00055	-0.00128	-0.00048	0.00041	5e-05	-2e-05	4
17671	7e-05	7e-05	0.00023	3e-05	8e-05	-0.00032	2e-05	7e-05	4
17672	1e-05	9e-05	0.00031	0.00041	-0.00099	0.00023	8e-05	1e-05	4
17673	1e-05	9e-05	0.00031	0.00041	-0.00099	0.00023	8e-05	1e-05	4
17674	1e-05	9e-05	0.00031	0.00041	-0.00099	0.00023	8e-05	1e-05	4
17675	1e-05	9e-05	0.00031	0.00041	-0.00099	0.00023	8e-05	1e-05	4
17676	1e-05	9e-05	0.00031	0.00041	-0.00099	0.00023	8e-05	1e-05	4
17677	1e-05	9e-05	0.00031	0.00041	-0.00099	0.00023	8e-05	1e-05	4
17678	1e-05	9e-05	0.00031	0.00041	-0.00099	0.00023	8e-05	1e-05	4
17679	1e-05	9e-05	0.00031	0.00041	-0.00099	0.00023	8e-05	1e-05	4
17680	1e-05	9e-05	0.00031	0.00041	-0.00099	0.00023	8e-05	1e-05	4
17681	1e-05	9e-05	0.00031	0.00041	-0.00099	0.00023	8e-05	1e-05	4
17682	1e-05	9e-05	0.00031	0.00041	-0.00099	0.00023	8e-05	1e-05	4
17683	1e-05	9e-05	0.00031	0.00041	-0.00099	0.00023	8e-05	1e-05	4
17684	-4e-05	-2e-05	0.00018	0.00111	0.00037	-0.00034	-0.00017	-8e-05	4
17685	-4e-05	-2e-05	0.00018	0.00111	0.00037	-0.00034	-0.00017	-8e-05	4
17686	-4e-05	-2e-05	0.00018	0.00111	0.00037	-0.00034	-0.00017	-8e-05	4
17688	-4e-05	-2e-05	0.00018	0.00111	0.00037	-0.00034	-0.00017	-8e-05	4
17689	-4e-05	-2e-05	0.00018	0.00111	0.00037	-0.00034	-0.00017	-8e-05	4
17690	-4e-05	-2e-05	0.00018	0.00111	0.00037	-0.00034	-0.00017	-8e-05	4
17691	-4e-05	-2e-05	0.00018	0.00111	0.00037	-0.00034	-0.00017	-8e-05	4
17692	-4e-05	-2e-05	0.00018	0.00111	0.00037	-0.00034	-0.00017	-8e-05	4
17693	-4e-05	-2e-05	0.00018	0.00111	0.00037	-0.00034	-0.00017	-8e-05	4
17694	-4e-05	-2e-05	0.00018	0.00111	0.00037	-0.00034	-0.00017	-8e-05	4
17695	-4e-05	-2e-05	0.00018	0.00111	0.00037	-0.00034	-0.00017	-8e-05	4
17696	-4e-05	-2e-05	0.00018	0.00111	0.00037	-0.00034	-0.00017	-8e-05	4
17697	-4e-05	-2e-05	0.00018	0.00111	0.00037	-0.00034	-0.00017	-8e-05	4
17698	-4e-05	-2e-05	0.00018	0.00111	0.00037	-0.00034	-0.00017	-8e-05	4
17699	-1e-05	-4e-05	-0.00015	0.00012	1e-05	0.00028	1e-05	-1e-05	4
17700	-1e-05	-4e-05	-0.00015	0.00012	1e-05	0.00028	1e-05	-1e-05	4
17701	-1e-05	-4e-05	-0.00015	0.00012	1e-05	0.00028	1e-05	-1e-05	4
17702	-1e-05	-4e-05	-0.00015	0.00012	1e-05	0.00028	1e-05	-1e-05	4
17703	-1e-05	-4e-05	-0.00015	0.00012	1e-05	0.00028	1e-05	-1e-05	4
17704	-1e-05	-4e-05	-0.00015	0.00012	1e-05	0.00028	1e-05	-1e-05	4
17705	-1e-05	-4e-05	-0.00015	0.00012	1e-05	0.00028	1e-05	-1e-05	4
17706	-1e-05	-4e-05	-0.00015	0.00012	1e-05	0.00028	1e-05	-1e-05	4
17707	4e-05	-5e-05	-0.00054	-0.00106	-0.00042	-0.00067	4e-05	5e-05	4
17708	-0.00016	-0.00015	7e-05	0.00086	0.00019	2e-05	-0.0003	-0.00022	4
17709	-4e-05	-2e-05	0	0.00034	0.00127	-0.00027	-0.00016	-6e-05	4
17710	-4e-05	-2e-05	0	0.00034	0.00127	-0.00027	-0.00016	-6e-05	4
17711	-4e-05	-2e-05	0	0.00034	0.00127	-0.00027	-0.00016	-6e-05	4
17712	-4e-05	-2e-05	0	0.00034	0.00127	-0.00027	-0.00016	-6e-05	4
17713	-4e-05	-2e-05	0	0.00034	0.00127	-0.00027	-0.00016	-6e-05	4
17714	-4e-05	-2e-05	0	0.00034	0.00127	-0.00027	-0.00016	-6e-05	4
17715	-4e-05	-2e-05	0	0.00034	0.00127	-0.00027	-0.00016	-6e-05	4
17716	-4e-05	-2e-05	0	0.00034	0.00127	-0.00027	-0.00016	-6e-05	4
17717	-4e-05	-2e-05	0	0.00034	0.00127	-0.00027	-0.00016	-6e-05	4
17718	-4e-05	-2e-05	0	0.00034	0.00127	-0.00027	-0.00016	-6e-05	4
17719	-4e-05	-2e-05	0	0.00034	0.00127	-0.00027	-0.00016	-6e-05	4
17720	-4e-05	-2e-05	0	0.00034	0.00127	-0.00027	-0.00016	-6e-05	4
17721	-4e-05	-2e-05	0	0.00034	0.00127	-0.00027	-0.00016	-6e-05	4
17722	-4e-05	-2e-05	0	0.00034	0.00127	-0.00027	-0.00016	-6e-05	4
17723	-4e-05	-2e-05	0	0.00034	0.00127	-0.00027	-0.00016	-6e-05	4
17724	-4e-05	-2e-05	0	0.00034	0.00127	-0.00027	-0.00016	-6e-05	4
17725	-4e-05	-2e-05	0	0.00034	0.00127	-0.00027	-0.00016	-6e-05	4
17726	-4e-05	-2e-05	0	0.00034	0.00127	-0.00027	-0.00016	-6e-05	4
17727	-4e-05	-2e-05	0	0.00034	0.00127	-0.00027	-0.00016	-6e-05	4
17728	-4e-05	-2e-05	0	0.00034	0.00127	-0.00027	-0.00016	-6e-05	4
17729	-4e-05	-2e-05	0	0.00034	0.00127	-0.00027	-0.00016	-6e-05	4
17730	0	-8e-05	-0.00012	-0.00058	-2e-05	0.00043	1e-05	3e-05	4
17731	3e-05	9e-05	0.00023	0.00068	0.00051	0.00024	-4e-05	3e-05	4
17732	0	2e-05	0.00014	0.00052	-0.0004	0.00028	0	-2e-05	4
17733	0	2e-05	0.00014	0.00052	-0.0004	0.00028	0	-2e-05	4
17734	0	2e-05	0.00014	0.00052	-0.0004	0.00028	0	-2e-05	4
17735	0	2e-05	0.00014	0.00052	-0.0004	0.00028	0	-2e-05	4
17736	0	2e-05	0.00014	0.00052	-0.0004	0.00028	0	-2e-05	4
17738	0	2e-05	0.00014	0.00052	-0.0004	0.00028	0	-2e-05	4
17739	0	2e-05	0.00014	0.00052	-0.0004	0.00028	0	-2e-05	4
17740	0	2e-05	0.00014	0.00052	-0.0004	0.00028	0	-2e-05	4
17741	0	2e-05	0.00014	0.00052	-0.0004	0.00028	0	-2e-05	4
17742	0	2e-05	0.00014	0.00052	-0.0004	0.00028	0	-2e-05	4
17743	0	2e-05	0.00014	0.00052	-0.0004	0.00028	0	-2e-05	4
17744	2e-05	-5e-05	-0.00029	-0.00116	0.00075	-0.00028	9e-05	4e-05	4
17745	2e-05	-5e-05	-0.00029	-0.00116	0.00075	-0.00028	9e-05	4e-05	4
17746	2e-05	-5e-05	-0.00029	-0.00116	0.00075	-0.00028	9e-05	4e-05	4
17747	2e-05	-5e-05	-0.00029	-0.00116	0.00075	-0.00028	9e-05	4e-05	4
17748	2e-05	-5e-05	-0.00029	-0.00116	0.00075	-0.00028	9e-05	4e-05	4
17749	2e-05	-5e-05	-0.00029	-0.00116	0.00075	-0.00028	9e-05	4e-05	4
17750	2e-05	-5e-05	-0.00029	-0.00116	0.00075	-0.00028	9e-05	4e-05	4
17751	2e-05	-5e-05	-0.00029	-0.00116	0.00075	-0.00028	9e-05	4e-05	4
17752	2e-05	-5e-05	-0.00029	-0.00116	0.00075	-0.00028	9e-05	4e-05	4
17753	9e-05	0.00018	0.00049	0.00103	-0.00026	0.00056	0.00022	9e-05	4
17754	9e-05	0.00018	0.00049	0.00103	-0.00026	0.00056	0.00022	9e-05	4
17755	9e-05	0.00018	0.00049	0.00103	-0.00026	0.00056	0.00022	9e-05	4
17756	9e-05	0.00018	0.00049	0.00103	-0.00026	0.00056	0.00022	9e-05	4
17757	9e-05	0.00018	0.00049	0.00103	-0.00026	0.00056	0.00022	9e-05	4
17758	9e-05	0.00018	0.00049	0.00103	-0.00026	0.00056	0.00022	9e-05	4
17759	9e-05	0.00018	0.00049	0.00103	-0.00026	0.00056	0.00022	9e-05	4
17760	9e-05	0.00018	0.00049	0.00103	-0.00026	0.00056	0.00022	9e-05	4
17761	9e-05	0.00018	0.00049	0.00103	-0.00026	0.00056	0.00022	9e-05	4
17762	9e-05	0.00018	0.00049	0.00103	-0.00026	0.00056	0.00022	9e-05	4
17763	9e-05	0.00018	0.00049	0.00103	-0.00026	0.00056	0.00022	9e-05	4
17764	9e-05	0.00018	0.00049	0.00103	-0.00026	0.00056	0.00022	9e-05	4
17765	9e-05	0.00018	0.00049	0.00103	-0.00026	0.00056	0.00022	9e-05	4
17766	9e-05	0.00018	0.00049	0.00103	-0.00026	0.00056	0.00022	9e-05	4
17767	9e-05	0.00018	0.00049	0.00103	-0.00026	0.00056	0.00022	9e-05	4
17768	-7e-05	-0.00011	-0.00049	-0.0001	-0.00057	-0.00043	-0.00017	-8e-05	4
17769	-2e-05	-9e-05	-0.00024	-0.00111	0.00064	-0.00062	-0.00012	-1e-05	4
17770	-2e-05	-9e-05	-0.00024	-0.00111	0.00064	-0.00062	-0.00012	-1e-05	4
17771	-2e-05	-9e-05	-0.00024	-0.00111	0.00064	-0.00062	-0.00012	-1e-05	4
17772	-2e-05	-9e-05	-0.00024	-0.00111	0.00064	-0.00062	-0.00012	-1e-05	4
17773	-2e-05	-9e-05	-0.00024	-0.00111	0.00064	-0.00062	-0.00012	-1e-05	4
17774	-2e-05	-9e-05	-0.00024	-0.00111	0.00064	-0.00062	-0.00012	-1e-05	4
17775	-2e-05	-9e-05	-0.00024	-0.00111	0.00064	-0.00062	-0.00012	-1e-05	4
17776	-2e-05	-9e-05	-0.00024	-0.00111	0.00064	-0.00062	-0.00012	-1e-05	4
17777	-2e-05	-9e-05	-0.00024	-0.00111	0.00064	-0.00062	-0.00012	-1e-05	4
17778	-2e-05	-9e-05	-0.00024	-0.00111	0.00064	-0.00062	-0.00012	-1e-05	4
17779	-2e-05	-9e-05	-0.00024	-0.00111	0.00064	-0.00062	-0.00012	-1e-05	4
17780	-2e-05	-9e-05	-0.00024	-0.00111	0.00064	-0.00062	-0.00012	-1e-05	4
17781	-2e-05	-9e-05	-0.00024	-0.00111	0.00064	-0.00062	-0.00012	-1e-05	4
17782	-2e-05	-9e-05	-0.00024	-0.00111	0.00064	-0.00062	-0.00012	-1e-05	4
17783	-2e-05	-9e-05	-0.00024	-0.00111	0.00064	-0.00062	-0.00012	-1e-05	4
17784	-2e-05	-9e-05	-0.00024	-0.00111	0.00064	-0.00062	-0.00012	-1e-05	4
17785	-2e-05	-9e-05	-0.00024	-0.00111	0.00064	-0.00062	-0.00012	-1e-05	4
17786	-2e-05	-9e-05	-0.00024	-0.00111	0.00064	-0.00062	-0.00012	-1e-05	4
17788	-2e-05	-9e-05	-0.00024	-0.00111	0.00064	-0.00062	-0.00012	-1e-05	4
17789	-2e-05	-9e-05	-0.00024	-0.00111	0.00064	-0.00062	-0.00012	-1e-05	4
17790	1e-05	-2e-05	-0.0002	-0.0009	-0.00101	-0.00044	5e-05	2e-05	4
17791	1e-05	-2e-05	-0.0002	-0.0009	-0.00101	-0.00044	5e-05	2e-05	4
17792	-7e-05	-6e-05	6e-05	0.00112	0.00067	-0.00077	-0.00025	-0.0001	4
17793	-7e-05	-6e-05	6e-05	0.00112	0.00067	-0.00077	-0.00025	-0.0001	4
17794	-7e-05	-6e-05	6e-05	0.00112	0.00067	-0.00077	-0.00025	-0.0001	4
17795	-7e-05	-6e-05	6e-05	0.00112	0.00067	-0.00077	-0.00025	-0.0001	4
17796	-7e-05	-6e-05	6e-05	0.00112	0.00067	-0.00077	-0.00025	-0.0001	4
17797	-7e-05	-6e-05	6e-05	0.00112	0.00067	-0.00077	-0.00025	-0.0001	4
17798	-7e-05	-6e-05	6e-05	0.00112	0.00067	-0.00077	-0.00025	-0.0001	4
17799	-7e-05	-6e-05	6e-05	0.00112	0.00067	-0.00077	-0.00025	-0.0001	4
17800	-7e-05	-6e-05	6e-05	0.00112	0.00067	-0.00077	-0.00025	-0.0001	4
17801	-7e-05	-6e-05	6e-05	0.00112	0.00067	-0.00077	-0.00025	-0.0001	4
17802	-7e-05	-6e-05	6e-05	0.00112	0.00067	-0.00077	-0.00025	-0.0001	4
17803	-7e-05	-6e-05	6e-05	0.00112	0.00067	-0.00077	-0.00025	-0.0001	4
17804	0	6e-05	0.00038	0.001	0.00024	-0.00026	4e-05	2e-05	4
17805	0	6e-05	0.00038	0.001	0.00024	-0.00026	4e-05	2e-05	4
17806	0	6e-05	0.00038	0.001	0.00024	-0.00026	4e-05	2e-05	4
17807	0	6e-05	0.00038	0.001	0.00024	-0.00026	4e-05	2e-05	4
17808	0	6e-05	0.00038	0.001	0.00024	-0.00026	4e-05	2e-05	4
17809	0	6e-05	0.00038	0.001	0.00024	-0.00026	4e-05	2e-05	4
17810	0	6e-05	0.00038	0.001	0.00024	-0.00026	4e-05	2e-05	4
17811	0	6e-05	0.00038	0.001	0.00024	-0.00026	4e-05	2e-05	4
17813	-7e-05	-8e-05	-5e-05	0.00012	-0.00027	-0.0003	-0.00013	-0.00011	4
17814	-7e-05	-8e-05	-5e-05	0.00012	-0.00027	-0.0003	-0.00013	-0.00011	4
17815	-7e-05	-8e-05	-5e-05	0.00012	-0.00027	-0.0003	-0.00013	-0.00011	4
17816	-7e-05	-8e-05	-5e-05	0.00012	-0.00027	-0.0003	-0.00013	-0.00011	4
17817	-7e-05	-8e-05	-5e-05	0.00012	-0.00027	-0.0003	-0.00013	-0.00011	4
17818	-7e-05	-8e-05	-5e-05	0.00012	-0.00027	-0.0003	-0.00013	-0.00011	4
17819	-7e-05	-8e-05	-5e-05	0.00012	-0.00027	-0.0003	-0.00013	-0.00011	4
17820	-7e-05	-8e-05	-5e-05	0.00012	-0.00027	-0.0003	-0.00013	-0.00011	4
17821	-7e-05	-8e-05	-5e-05	0.00012	-0.00027	-0.0003	-0.00013	-0.00011	4
17822	-7e-05	-8e-05	-5e-05	0.00012	-0.00027	-0.0003	-0.00013	-0.00011	4
17823	-7e-05	-8e-05	-5e-05	0.00012	-0.00027	-0.0003	-0.00013	-0.00011	4
17824	-7e-05	-8e-05	-5e-05	0.00012	-0.00027	-0.0003	-0.00013	-0.00011	4
17825	-7e-05	-8e-05	-5e-05	0.00012	-0.00027	-0.0003	-0.00013	-0.00011	4
17826	-7e-05	-8e-05	-5e-05	0.00012	-0.00027	-0.0003	-0.00013	-0.00011	4
17827	4e-05	5e-05	0.00018	0.0011	0.00043	0.00057	0.00018	7e-05	4
17828	4e-05	5e-05	0.00018	0.0011	0.00043	0.00057	0.00018	7e-05	4
17829	4e-05	5e-05	0.00018	0.0011	0.00043	0.00057	0.00018	7e-05	4
17830	4e-05	5e-05	0.00018	0.0011	0.00043	0.00057	0.00018	7e-05	4
17831	4e-05	5e-05	0.00018	0.0011	0.00043	0.00057	0.00018	7e-05	4
17832	4e-05	5e-05	0.00018	0.0011	0.00043	0.00057	0.00018	7e-05	4
17833	4e-05	5e-05	0.00018	0.0011	0.00043	0.00057	0.00018	7e-05	4
17834	4e-05	5e-05	0.00018	0.0011	0.00043	0.00057	0.00018	7e-05	4
17835	6e-05	4e-05	-1e-05	-0.00017	-0.00078	0.00107	0.00035	9e-05	4
17836	6e-05	4e-05	-1e-05	-0.00017	-0.00078	0.00107	0.00035	9e-05	4
17838	6e-05	4e-05	-1e-05	-0.00017	-0.00078	0.00107	0.00035	9e-05	4
17839	6e-05	4e-05	-1e-05	-0.00017	-0.00078	0.00107	0.00035	9e-05	4
17840	6e-05	4e-05	-1e-05	-0.00017	-0.00078	0.00107	0.00035	9e-05	4
17841	6e-05	4e-05	-1e-05	-0.00017	-0.00078	0.00107	0.00035	9e-05	4
17842	6e-05	4e-05	-1e-05	-0.00017	-0.00078	0.00107	0.00035	9e-05	4
17843	6e-05	4e-05	-1e-05	-0.00017	-0.00078	0.00107	0.00035	9e-05	4
17844	6e-05	4e-05	-1e-05	-0.00017	-0.00078	0.00107	0.00035	9e-05	4
17845	6e-05	4e-05	-1e-05	-0.00017	-0.00078	0.00107	0.00035	9e-05	4
17846	6e-05	4e-05	-1e-05	-0.00017	-0.00078	0.00107	0.00035	9e-05	4
17847	6e-05	4e-05	-1e-05	-0.00017	-0.00078	0.00107	0.00035	9e-05	4
17848	6e-05	4e-05	-1e-05	-0.00017	-0.00078	0.00107	0.00035	9e-05	4
17849	6e-05	4e-05	-1e-05	-0.00017	-0.00078	0.00107	0.00035	9e-05	4
17850	3e-05	2e-05	8e-05	0.00012	0.00033	-0.00021	-0.00012	1e-05	4
17851	3e-05	2e-05	8e-05	0.00012	0.00033	-0.00021	-0.00012	1e-05	4
17852	0	-5e-05	-0.00024	-6e-05	-0.00035	8e-05	0.00012	1e-05	4
17853	0	-5e-05	-0.00024	-6e-05	-0.00035	8e-05	0.00012	1e-05	4
17854	0	-5e-05	-0.00024	-6e-05	-0.00035	8e-05	0.00012	1e-05	4
17855	0	-5e-05	-0.00024	-6e-05	-0.00035	8e-05	0.00012	1e-05	4
17856	0	-5e-05	-0.00024	-6e-05	-0.00035	8e-05	0.00012	1e-05	4
17857	0	-5e-05	-0.00024	-6e-05	-0.00035	8e-05	0.00012	1e-05	4
17858	0	-5e-05	-0.00024	-6e-05	-0.00035	8e-05	0.00012	1e-05	4
17859	0	-5e-05	-0.00024	-6e-05	-0.00035	8e-05	0.00012	1e-05	4
17860	0	-5e-05	-0.00024	-6e-05	-0.00035	8e-05	0.00012	1e-05	4
17861	0	-5e-05	-0.00024	-6e-05	-0.00035	8e-05	0.00012	1e-05	4
17862	0	-5e-05	-0.00024	-6e-05	-0.00035	8e-05	0.00012	1e-05	4
17863	0	-5e-05	-0.00024	-6e-05	-0.00035	8e-05	0.00012	1e-05	4
17864	0	-2e-05	-5e-05	0.0001	-0.00052	0.00018	3e-05	1e-05	4
17865	0	-2e-05	-5e-05	0.0001	-0.00052	0.00018	3e-05	1e-05	4
17866	0	-2e-05	-5e-05	0.0001	-0.00052	0.00018	3e-05	1e-05	4
17867	0	-2e-05	-5e-05	0.0001	-0.00052	0.00018	3e-05	1e-05	4
17868	0	-2e-05	-5e-05	0.0001	-0.00052	0.00018	3e-05	1e-05	4
17869	0	-2e-05	-5e-05	0.0001	-0.00052	0.00018	3e-05	1e-05	4
17870	0	-2e-05	-5e-05	0.0001	-0.00052	0.00018	3e-05	1e-05	4
17871	0	-2e-05	-5e-05	0.0001	-0.00052	0.00018	3e-05	1e-05	4
17872	0	-2e-05	-5e-05	0.0001	-0.00052	0.00018	3e-05	1e-05	4
17873	2e-05	6e-05	0.00024	0.00039	0.0002	-0.00059	-2e-05	0	4
17874	2e-05	6e-05	0.00024	0.00039	0.0002	-0.00059	-2e-05	0	4
17875	2e-05	6e-05	0.00024	0.00039	0.0002	-0.00059	-2e-05	0	4
17876	2e-05	6e-05	0.00024	0.00039	0.0002	-0.00059	-2e-05	0	4
17877	2e-05	6e-05	0.00024	0.00039	0.0002	-0.00059	-2e-05	0	4
17878	2e-05	6e-05	0.00024	0.00039	0.0002	-0.00059	-2e-05	0	4
17879	2e-05	6e-05	0.00024	0.00039	0.0002	-0.00059	-2e-05	0	4
17880	2e-05	6e-05	0.00024	0.00039	0.0002	-0.00059	-2e-05	0	4
17881	2e-05	6e-05	0.00024	0.00039	0.0002	-0.00059	-2e-05	0	4
17882	2e-05	6e-05	0.00024	0.00039	0.0002	-0.00059	-2e-05	0	4
17883	2e-05	6e-05	0.00024	0.00039	0.0002	-0.00059	-2e-05	0	4
17884	2e-05	6e-05	0.00024	0.00039	0.0002	-0.00059	-2e-05	0	4
17885	2e-05	6e-05	0.00024	0.00039	0.0002	-0.00059	-2e-05	0	4
17886	2e-05	6e-05	0.00024	0.00039	0.0002	-0.00059	-2e-05	0	4
17889	-5e-05	-6e-05	-5e-05	-0.00016	-0.00044	-0.00062	-0.00011	-5e-05	4
17890	-5e-05	-6e-05	-5e-05	-0.00016	-0.00044	-0.00062	-0.00011	-5e-05	4
17891	-5e-05	-6e-05	-5e-05	-0.00016	-0.00044	-0.00062	-0.00011	-5e-05	4
17892	-5e-05	-6e-05	-5e-05	-0.00016	-0.00044	-0.00062	-0.00011	-5e-05	4
17893	-5e-05	-6e-05	-5e-05	-0.00016	-0.00044	-0.00062	-0.00011	-5e-05	4
17894	-5e-05	-6e-05	-5e-05	-0.00016	-0.00044	-0.00062	-0.00011	-5e-05	4
17895	-5e-05	-6e-05	-5e-05	-0.00016	-0.00044	-0.00062	-0.00011	-5e-05	4
17896	-5e-05	-6e-05	-5e-05	-0.00016	-0.00044	-0.00062	-0.00011	-5e-05	4
17897	-5e-05	-6e-05	-5e-05	-0.00016	-0.00044	-0.00062	-0.00011	-5e-05	4
17898	-5e-05	-6e-05	-5e-05	-0.00016	-0.00044	-0.00062	-0.00011	-5e-05	4
17899	-5e-05	-6e-05	-5e-05	-0.00016	-0.00044	-0.00062	-0.00011	-5e-05	4
17900	-5e-05	-6e-05	-5e-05	-0.00016	-0.00044	-0.00062	-0.00011	-5e-05	4
17901	-5e-05	-6e-05	-5e-05	-0.00016	-0.00044	-0.00062	-0.00011	-5e-05	4
17902	-5e-05	-6e-05	-5e-05	-0.00016	-0.00044	-0.00062	-0.00011	-5e-05	4
17903	-5e-05	-6e-05	-5e-05	-0.00016	-0.00044	-0.00062	-0.00011	-5e-05	4
17904	-5e-05	-6e-05	-5e-05	-0.00016	-0.00044	-0.00062	-0.00011	-5e-05	4
17905	-5e-05	-6e-05	-5e-05	-0.00016	-0.00044	-0.00062	-0.00011	-5e-05	4
17906	-5e-05	-6e-05	-5e-05	-0.00016	-0.00044	-0.00062	-0.00011	-5e-05	4
17907	-5e-05	-6e-05	-5e-05	-0.00016	-0.00044	-0.00062	-0.00011	-5e-05	4
17908	-5e-05	-6e-05	-5e-05	-0.00016	-0.00044	-0.00062	-0.00011	-5e-05	4
17909	-5e-05	-6e-05	-5e-05	-0.00016	-0.00044	-0.00062	-0.00011	-5e-05	4
17910	-1e-05	4e-05	9e-05	0.00036	-0.00014	-0.00045	-0.00011	-3e-05	4
17911	0.00011	0.00023	0.00061	0.001	0.00072	-0.00011	0.00012	9e-05	4
17912	-0.00021	-0.00037	-0.001	-0.00016	0.00013	-0.00037	-0.00035	-0.00023	4
17913	-0.00021	-0.00037	-0.001	-0.00016	0.00013	-0.00037	-0.00035	-0.00023	4
17914	-0.00021	-0.00037	-0.001	-0.00016	0.00013	-0.00037	-0.00035	-0.00023	4
17915	-0.00021	-0.00037	-0.001	-0.00016	0.00013	-0.00037	-0.00035	-0.00023	4
17916	-0.00021	-0.00037	-0.001	-0.00016	0.00013	-0.00037	-0.00035	-0.00023	4
17917	-0.00021	-0.00037	-0.001	-0.00016	0.00013	-0.00037	-0.00035	-0.00023	4
17918	-0.00021	-0.00037	-0.001	-0.00016	0.00013	-0.00037	-0.00035	-0.00023	4
17919	-0.00021	-0.00037	-0.001	-0.00016	0.00013	-0.00037	-0.00035	-0.00023	4
17920	-0.00021	-0.00037	-0.001	-0.00016	0.00013	-0.00037	-0.00035	-0.00023	4
17921	-0.00021	-0.00037	-0.001	-0.00016	0.00013	-0.00037	-0.00035	-0.00023	4
17922	-0.00021	-0.00037	-0.001	-0.00016	0.00013	-0.00037	-0.00035	-0.00023	4
17923	-0.00021	-0.00037	-0.001	-0.00016	0.00013	-0.00037	-0.00035	-0.00023	4
17924	9e-05	0.00015	0.00038	0.00048	-0.00014	0.00071	0.00024	0.00013	4
17925	9e-05	0.00015	0.00038	0.00048	-0.00014	0.00071	0.00024	0.00013	4
17926	9e-05	0.00015	0.00038	0.00048	-0.00014	0.00071	0.00024	0.00013	4
17927	9e-05	0.00015	0.00038	0.00048	-0.00014	0.00071	0.00024	0.00013	4
17928	9e-05	0.00015	0.00038	0.00048	-0.00014	0.00071	0.00024	0.00013	4
17929	9e-05	0.00015	0.00038	0.00048	-0.00014	0.00071	0.00024	0.00013	4
17930	9e-05	0.00015	0.00038	0.00048	-0.00014	0.00071	0.00024	0.00013	4
17931	9e-05	0.00015	0.00038	0.00048	-0.00014	0.00071	0.00024	0.00013	4
17932	9e-05	0.00015	0.00038	0.00048	-0.00014	0.00071	0.00024	0.00013	4
17933	4e-05	7e-05	0.00018	-0.00039	-0.00052	0.00109	0.00015	4e-05	4
17934	4e-05	7e-05	0.00018	-0.00039	-0.00052	0.00109	0.00015	4e-05	4
17935	4e-05	7e-05	0.00018	-0.00039	-0.00052	0.00109	0.00015	4e-05	4
17936	4e-05	7e-05	0.00018	-0.00039	-0.00052	0.00109	0.00015	4e-05	4
17938	4e-05	7e-05	0.00018	-0.00039	-0.00052	0.00109	0.00015	4e-05	4
17939	4e-05	7e-05	0.00018	-0.00039	-0.00052	0.00109	0.00015	4e-05	4
17940	4e-05	7e-05	0.00018	-0.00039	-0.00052	0.00109	0.00015	4e-05	4
17941	4e-05	7e-05	0.00018	-0.00039	-0.00052	0.00109	0.00015	4e-05	4
17942	4e-05	7e-05	0.00018	-0.00039	-0.00052	0.00109	0.00015	4e-05	4
17943	4e-05	7e-05	0.00018	-0.00039	-0.00052	0.00109	0.00015	4e-05	4
17944	4e-05	7e-05	0.00018	-0.00039	-0.00052	0.00109	0.00015	4e-05	4
17945	4e-05	7e-05	0.00018	-0.00039	-0.00052	0.00109	0.00015	4e-05	4
17946	4e-05	7e-05	0.00018	-0.00039	-0.00052	0.00109	0.00015	4e-05	4
17947	-5e-05	-2e-05	0.00017	0.0007	0.00083	-0.00021	-0.00017	-8e-05	4
17948	-7e-05	-0.00016	-0.00058	-0.00128	-0.00128	-0.00043	-8e-05	-6e-05	4
17949	4e-05	3e-05	0.0001	4e-05	-0.00085	-9e-05	2e-05	5e-05	4
17950	4e-05	3e-05	0.0001	4e-05	-0.00085	-9e-05	2e-05	5e-05	4
17951	4e-05	3e-05	0.0001	4e-05	-0.00085	-9e-05	2e-05	5e-05	4
17952	4e-05	3e-05	0.0001	4e-05	-0.00085	-9e-05	2e-05	5e-05	4
17953	4e-05	3e-05	0.0001	4e-05	-0.00085	-9e-05	2e-05	5e-05	4
17954	4e-05	3e-05	0.0001	4e-05	-0.00085	-9e-05	2e-05	5e-05	4
17955	4e-05	3e-05	0.0001	4e-05	-0.00085	-9e-05	2e-05	5e-05	4
17956	4e-05	3e-05	0.0001	4e-05	-0.00085	-9e-05	2e-05	5e-05	4
17957	4e-05	3e-05	0.0001	4e-05	-0.00085	-9e-05	2e-05	5e-05	4
17958	4e-05	3e-05	0.0001	4e-05	-0.00085	-9e-05	2e-05	5e-05	4
17959	4e-05	3e-05	0.0001	4e-05	-0.00085	-9e-05	2e-05	5e-05	4
17960	4e-05	3e-05	0.0001	4e-05	-0.00085	-9e-05	2e-05	5e-05	4
17961	4e-05	3e-05	0.0001	4e-05	-0.00085	-9e-05	2e-05	5e-05	4
17962	4e-05	3e-05	0.0001	4e-05	-0.00085	-9e-05	2e-05	5e-05	4
17963	4e-05	3e-05	0.0001	4e-05	-0.00085	-9e-05	2e-05	5e-05	4
17964	4e-05	3e-05	0.0001	4e-05	-0.00085	-9e-05	2e-05	5e-05	4
17965	4e-05	3e-05	0.0001	4e-05	-0.00085	-9e-05	2e-05	5e-05	4
17966	4e-05	3e-05	0.0001	4e-05	-0.00085	-9e-05	2e-05	5e-05	4
17967	4e-05	3e-05	0.0001	4e-05	-0.00085	-9e-05	2e-05	5e-05	4
17968	4e-05	3e-05	0.0001	4e-05	-0.00085	-9e-05	2e-05	5e-05	4
17969	4e-05	3e-05	0.0001	4e-05	-0.00085	-9e-05	2e-05	5e-05	4
17970	4e-05	3e-05	0.0001	4e-05	-0.00085	-9e-05	2e-05	5e-05	4
17971	4e-05	3e-05	0.0001	4e-05	-0.00085	-9e-05	2e-05	5e-05	4
17972	4e-05	3e-05	0.0001	4e-05	-0.00085	-9e-05	2e-05	5e-05	4
17973	4e-05	3e-05	0.0001	4e-05	-0.00085	-9e-05	2e-05	5e-05	4
17974	4e-05	3e-05	0.0001	4e-05	-0.00085	-9e-05	2e-05	5e-05	4
17975	4e-05	3e-05	0.0001	4e-05	-0.00085	-9e-05	2e-05	5e-05	4
17976	4e-05	3e-05	0.0001	4e-05	-0.00085	-9e-05	2e-05	5e-05	4
17977	4e-05	0.00014	0.00052	0.00116	7e-05	-0.00012	-4e-05	0	4
17978	-0.00012	-0.00023	-0.0006	-0.00105	-0.00125	-0.00037	-0.00014	-0.0001	4
17979	-3e-05	-2e-05	-6e-05	-0.00029	0.0011	0.00056	5e-05	0	4
17980	-3e-05	-2e-05	-6e-05	-0.00029	0.0011	0.00056	5e-05	0	4
17981	-3e-05	-2e-05	-6e-05	-0.00029	0.0011	0.00056	5e-05	0	4
17982	-3e-05	-2e-05	-6e-05	-0.00029	0.0011	0.00056	5e-05	0	4
17983	-3e-05	-2e-05	-6e-05	-0.00029	0.0011	0.00056	5e-05	0	4
17984	-4e-05	-1e-05	9e-05	0.00031	-0.00039	0.0001	-0.00014	-7e-05	4
17985	-4e-05	-1e-05	9e-05	0.00031	-0.00039	0.0001	-0.00014	-7e-05	4
17986	-4e-05	-1e-05	9e-05	0.00031	-0.00039	0.0001	-0.00014	-7e-05	4
17988	-4e-05	-1e-05	9e-05	0.00031	-0.00039	0.0001	-0.00014	-7e-05	4
17989	-4e-05	-1e-05	9e-05	0.00031	-0.00039	0.0001	-0.00014	-7e-05	4
17990	-4e-05	-1e-05	9e-05	0.00031	-0.00039	0.0001	-0.00014	-7e-05	4
17991	-4e-05	-1e-05	9e-05	0.00031	-0.00039	0.0001	-0.00014	-7e-05	4
17992	-4e-05	-1e-05	9e-05	0.00031	-0.00039	0.0001	-0.00014	-7e-05	4
17993	-1e-05	2e-05	0.00011	-0.00044	-6e-05	-0.00068	-8e-05	-2e-05	4
17994	-1e-05	2e-05	0.00011	-0.00044	-6e-05	-0.00068	-8e-05	-2e-05	4
17995	-1e-05	2e-05	0.00011	-0.00044	-6e-05	-0.00068	-8e-05	-2e-05	4
17996	-1e-05	2e-05	0.00011	-0.00044	-6e-05	-0.00068	-8e-05	-2e-05	4
17997	-1e-05	2e-05	0.00011	-0.00044	-6e-05	-0.00068	-8e-05	-2e-05	4
17998	-1e-05	2e-05	0.00011	-0.00044	-6e-05	-0.00068	-8e-05	-2e-05	4
17999	-1e-05	2e-05	0.00011	-0.00044	-6e-05	-0.00068	-8e-05	-2e-05	4
18000	-1e-05	2e-05	0.00011	-0.00044	-6e-05	-0.00068	-8e-05	-2e-05	4
18001	-1e-05	2e-05	0.00011	-0.00044	-6e-05	-0.00068	-8e-05	-2e-05	4
18002	-1e-05	2e-05	0.00011	-0.00044	-6e-05	-0.00068	-8e-05	-2e-05	4
18003	-1e-05	2e-05	0.00011	-0.00044	-6e-05	-0.00068	-8e-05	-2e-05	4
18004	-1e-05	2e-05	0.00011	-0.00044	-6e-05	-0.00068	-8e-05	-2e-05	4
18005	-1e-05	2e-05	0.00011	-0.00044	-6e-05	-0.00068	-8e-05	-2e-05	4
18006	-1e-05	2e-05	0.00011	-0.00044	-6e-05	-0.00068	-8e-05	-2e-05	4
18007	3e-05	1e-05	-0.00018	-0.00017	-0.0006	-0.0008	5e-05	5e-05	4
18008	3e-05	0.00014	0.00053	0.00058	-0.00012	-0.00074	-3e-05	-2e-05	4
18009	6e-05	0.0001	0.00019	-0.00025	-0.00053	-0.0001	4e-05	3e-05	4
18010	6e-05	0.0001	0.00019	-0.00025	-0.00053	-0.0001	4e-05	3e-05	4
18011	6e-05	0.0001	0.00019	-0.00025	-0.00053	-0.0001	4e-05	3e-05	4
18012	6e-05	0.0001	0.00019	-0.00025	-0.00053	-0.0001	4e-05	3e-05	4
18013	6e-05	0.0001	0.00019	-0.00025	-0.00053	-0.0001	4e-05	3e-05	4
18014	6e-05	0.0001	0.00019	-0.00025	-0.00053	-0.0001	4e-05	3e-05	4
18015	6e-05	0.0001	0.00019	-0.00025	-0.00053	-0.0001	4e-05	3e-05	4
18016	6e-05	0.0001	0.00019	-0.00025	-0.00053	-0.0001	4e-05	3e-05	4
18017	6e-05	0.0001	0.00019	-0.00025	-0.00053	-0.0001	4e-05	3e-05	4
18018	6e-05	0.0001	0.00019	-0.00025	-0.00053	-0.0001	4e-05	3e-05	4
18019	6e-05	0.0001	0.00019	-0.00025	-0.00053	-0.0001	4e-05	3e-05	4
18020	6e-05	0.0001	0.00019	-0.00025	-0.00053	-0.0001	4e-05	3e-05	4
18021	6e-05	0.0001	0.00019	-0.00025	-0.00053	-0.0001	4e-05	3e-05	4
18022	6e-05	0.0001	0.00019	-0.00025	-0.00053	-0.0001	4e-05	3e-05	4
18023	6e-05	0.0001	0.00019	-0.00025	-0.00053	-0.0001	4e-05	3e-05	4
18024	6e-05	0.0001	0.00019	-0.00025	-0.00053	-0.0001	4e-05	3e-05	4
18025	6e-05	0.0001	0.00019	-0.00025	-0.00053	-0.0001	4e-05	3e-05	4
18026	6e-05	0.0001	0.00019	-0.00025	-0.00053	-0.0001	4e-05	3e-05	4
18027	6e-05	0.0001	0.00019	-0.00025	-0.00053	-0.0001	4e-05	3e-05	4
18028	6e-05	0.0001	0.00019	-0.00025	-0.00053	-0.0001	4e-05	3e-05	4
18029	6e-05	0.0001	0.00019	-0.00025	-0.00053	-0.0001	4e-05	3e-05	4
18030	0	0	0.00011	6e-05	-0.00016	3e-05	2e-05	1e-05	4
18031	-0.00011	-0.0002	-0.00049	-2e-05	0.001	-0.00069	-0.00019	-0.00011	4
18032	1e-05	3e-05	-4e-05	-2e-05	0.00059	-0.00083	-2e-05	-1e-05	4
18033	1e-05	3e-05	-4e-05	-2e-05	0.00059	-0.00083	-2e-05	-1e-05	4
18034	1e-05	3e-05	-4e-05	-2e-05	0.00059	-0.00083	-2e-05	-1e-05	4
18035	1e-05	3e-05	-4e-05	-2e-05	0.00059	-0.00083	-2e-05	-1e-05	4
18036	1e-05	3e-05	-4e-05	-2e-05	0.00059	-0.00083	-2e-05	-1e-05	4
18038	1e-05	3e-05	-4e-05	-2e-05	0.00059	-0.00083	-2e-05	-1e-05	4
18039	1e-05	3e-05	-4e-05	-2e-05	0.00059	-0.00083	-2e-05	-1e-05	4
18040	1e-05	3e-05	-4e-05	-2e-05	0.00059	-0.00083	-2e-05	-1e-05	4
18041	1e-05	3e-05	-4e-05	-2e-05	0.00059	-0.00083	-2e-05	-1e-05	4
18042	1e-05	3e-05	-4e-05	-2e-05	0.00059	-0.00083	-2e-05	-1e-05	4
18043	1e-05	3e-05	-4e-05	-2e-05	0.00059	-0.00083	-2e-05	-1e-05	4
18044	2e-05	4e-05	0.00012	-9e-05	-7e-05	0.00039	0.00012	7e-05	4
18045	2e-05	4e-05	0.00012	-9e-05	-7e-05	0.00039	0.00012	7e-05	4
18046	2e-05	4e-05	0.00012	-9e-05	-7e-05	0.00039	0.00012	7e-05	4
18047	2e-05	4e-05	0.00012	-9e-05	-7e-05	0.00039	0.00012	7e-05	4
18048	2e-05	4e-05	0.00012	-9e-05	-7e-05	0.00039	0.00012	7e-05	4
18049	2e-05	4e-05	0.00012	-9e-05	-7e-05	0.00039	0.00012	7e-05	4
18050	2e-05	4e-05	0.00012	-9e-05	-7e-05	0.00039	0.00012	7e-05	4
18051	2e-05	4e-05	0.00012	-9e-05	-7e-05	0.00039	0.00012	7e-05	4
18052	2e-05	4e-05	0.00012	-9e-05	-7e-05	0.00039	0.00012	7e-05	4
18053	-8e-05	-0.00014	-0.0002	-4e-05	0.00106	-0.0002	-0.00011	-7e-05	4
18054	-8e-05	-0.00014	-0.0002	-4e-05	0.00106	-0.0002	-0.00011	-7e-05	4
18055	-8e-05	-0.00014	-0.0002	-4e-05	0.00106	-0.0002	-0.00011	-7e-05	4
18056	-8e-05	-0.00014	-0.0002	-4e-05	0.00106	-0.0002	-0.00011	-7e-05	4
18057	-8e-05	-0.00014	-0.0002	-4e-05	0.00106	-0.0002	-0.00011	-7e-05	4
18058	-8e-05	-0.00014	-0.0002	-4e-05	0.00106	-0.0002	-0.00011	-7e-05	4
18059	-8e-05	-0.00014	-0.0002	-4e-05	0.00106	-0.0002	-0.00011	-7e-05	4
18060	-8e-05	-0.00014	-0.0002	-4e-05	0.00106	-0.0002	-0.00011	-7e-05	4
18061	-8e-05	-0.00014	-0.0002	-4e-05	0.00106	-0.0002	-0.00011	-7e-05	4
18062	-8e-05	-0.00014	-0.0002	-4e-05	0.00106	-0.0002	-0.00011	-7e-05	4
18063	-8e-05	-0.00014	-0.0002	-4e-05	0.00106	-0.0002	-0.00011	-7e-05	4
18064	-8e-05	-0.00014	-0.0002	-4e-05	0.00106	-0.0002	-0.00011	-7e-05	4
18065	-8e-05	-0.00014	-0.0002	-4e-05	0.00106	-0.0002	-0.00011	-7e-05	4
18066	-8e-05	-0.00014	-0.0002	-4e-05	0.00106	-0.0002	-0.00011	-7e-05	4
18067	-8e-05	-0.00014	-0.0002	-4e-05	0.00106	-0.0002	-0.00011	-7e-05	4
18068	3e-05	8e-05	0.00019	-0.00021	0.00024	0.00028	1e-05	0	4
18069	-4e-05	-8e-05	-0.00022	-0.001	0.00034	0.00056	-2e-05	-4e-05	4
18070	2e-05	7e-05	0.00018	-0.00015	-0.00102	-0.00017	2e-05	2e-05	4
18071	2e-05	7e-05	0.00018	-0.00015	-0.00102	-0.00017	2e-05	2e-05	4
18072	2e-05	7e-05	0.00018	-0.00015	-0.00102	-0.00017	2e-05	2e-05	4
18073	2e-05	7e-05	0.00018	-0.00015	-0.00102	-0.00017	2e-05	2e-05	4
18074	2e-05	7e-05	0.00018	-0.00015	-0.00102	-0.00017	2e-05	2e-05	4
18075	2e-05	7e-05	0.00018	-0.00015	-0.00102	-0.00017	2e-05	2e-05	4
18076	2e-05	7e-05	0.00018	-0.00015	-0.00102	-0.00017	2e-05	2e-05	4
18077	2e-05	7e-05	0.00018	-0.00015	-0.00102	-0.00017	2e-05	2e-05	4
18078	2e-05	7e-05	0.00018	-0.00015	-0.00102	-0.00017	2e-05	2e-05	4
18079	2e-05	7e-05	0.00018	-0.00015	-0.00102	-0.00017	2e-05	2e-05	4
18080	2e-05	7e-05	0.00018	-0.00015	-0.00102	-0.00017	2e-05	2e-05	4
18081	2e-05	7e-05	0.00018	-0.00015	-0.00102	-0.00017	2e-05	2e-05	4
18082	2e-05	7e-05	0.00018	-0.00015	-0.00102	-0.00017	2e-05	2e-05	4
18083	2e-05	7e-05	0.00018	-0.00015	-0.00102	-0.00017	2e-05	2e-05	4
18084	2e-05	7e-05	0.00018	-0.00015	-0.00102	-0.00017	2e-05	2e-05	4
18085	2e-05	7e-05	0.00018	-0.00015	-0.00102	-0.00017	2e-05	2e-05	4
18086	2e-05	7e-05	0.00018	-0.00015	-0.00102	-0.00017	2e-05	2e-05	4
18088	2e-05	7e-05	0.00018	-0.00015	-0.00102	-0.00017	2e-05	2e-05	4
18089	2e-05	7e-05	0.00018	-0.00015	-0.00102	-0.00017	2e-05	2e-05	4
18090	2e-05	3e-05	4e-05	9e-05	-0.00022	-0.00073	-2e-05	2e-05	4
18091	2e-05	3e-05	4e-05	9e-05	-0.00022	-0.00073	-2e-05	2e-05	4
18092	0.00016	0.00024	0.00037	0.00046	-0.00084	0.00082	0.00045	0.00021	4
18093	0.00016	0.00024	0.00037	0.00046	-0.00084	0.00082	0.00045	0.00021	4
18094	0.00016	0.00024	0.00037	0.00046	-0.00084	0.00082	0.00045	0.00021	4
18095	0.00016	0.00024	0.00037	0.00046	-0.00084	0.00082	0.00045	0.00021	4
18096	0.00016	0.00024	0.00037	0.00046	-0.00084	0.00082	0.00045	0.00021	4
18097	0.00016	0.00024	0.00037	0.00046	-0.00084	0.00082	0.00045	0.00021	4
18098	0.00016	0.00024	0.00037	0.00046	-0.00084	0.00082	0.00045	0.00021	4
18099	0.00016	0.00024	0.00037	0.00046	-0.00084	0.00082	0.00045	0.00021	4
18100	0.00016	0.00024	0.00037	0.00046	-0.00084	0.00082	0.00045	0.00021	4
18101	0.00016	0.00024	0.00037	0.00046	-0.00084	0.00082	0.00045	0.00021	4
18102	0.00016	0.00024	0.00037	0.00046	-0.00084	0.00082	0.00045	0.00021	4
18103	0.00016	0.00024	0.00037	0.00046	-0.00084	0.00082	0.00045	0.00021	4
18104	0.00016	0.00024	0.00037	0.00046	-0.00084	0.00082	0.00045	0.00021	4
18105	0.00016	0.00024	0.00037	0.00046	-0.00084	0.00082	0.00045	0.00021	4
18106	0.00016	0.00024	0.00037	0.00046	-0.00084	0.00082	0.00045	0.00021	4
18107	0.00016	0.00024	0.00037	0.00046	-0.00084	0.00082	0.00045	0.00021	4
18108	0.00016	0.00024	0.00037	0.00046	-0.00084	0.00082	0.00045	0.00021	4
18109	0.00016	0.00024	0.00037	0.00046	-0.00084	0.00082	0.00045	0.00021	4
18110	0.00016	0.00024	0.00037	0.00046	-0.00084	0.00082	0.00045	0.00021	4
18111	0.00016	0.00024	0.00037	0.00046	-0.00084	0.00082	0.00045	0.00021	4
18112	-4e-05	-1e-05	-9e-05	-0.0006	-0.00083	-0.00068	-9e-05	-7e-05	4
18113	0	3e-05	0.00018	0.00072	-0.00059	0.00036	0	-1e-05	4
18114	-8e-05	-7e-05	-0.00021	-0.00044	0.0012	-0.00031	-0.00024	-8e-05	4
18115	-8e-05	-7e-05	-0.00021	-0.00044	0.0012	-0.00031	-0.00024	-8e-05	4
18116	-8e-05	-7e-05	-0.00021	-0.00044	0.0012	-0.00031	-0.00024	-8e-05	4
18117	-8e-05	-7e-05	-0.00021	-0.00044	0.0012	-0.00031	-0.00024	-8e-05	4
18118	-8e-05	-7e-05	-0.00021	-0.00044	0.0012	-0.00031	-0.00024	-8e-05	4
18119	-8e-05	-7e-05	-0.00021	-0.00044	0.0012	-0.00031	-0.00024	-8e-05	4
18120	-8e-05	-7e-05	-0.00021	-0.00044	0.0012	-0.00031	-0.00024	-8e-05	4
18121	-8e-05	-7e-05	-0.00021	-0.00044	0.0012	-0.00031	-0.00024	-8e-05	4
18122	-8e-05	-7e-05	-0.00021	-0.00044	0.0012	-0.00031	-0.00024	-8e-05	4
18123	-8e-05	-7e-05	-0.00021	-0.00044	0.0012	-0.00031	-0.00024	-8e-05	4
18124	-8e-05	-7e-05	-0.00021	-0.00044	0.0012	-0.00031	-0.00024	-8e-05	4
18125	-8e-05	-7e-05	-0.00021	-0.00044	0.0012	-0.00031	-0.00024	-8e-05	4
18126	-8e-05	-7e-05	-0.00021	-0.00044	0.0012	-0.00031	-0.00024	-8e-05	4
18127	-8e-05	-7e-05	-0.00021	-0.00044	0.0012	-0.00031	-0.00024	-8e-05	4
18128	-2e-05	-4e-05	-7e-05	0.00035	0.00089	0.00031	-2e-05	0	4
18129	-2e-05	-4e-05	0.00019	0.00093	0.00087	-0.00013	-9e-05	-4e-05	4
18130	-2e-05	-4e-05	0.00019	0.00093	0.00087	-0.00013	-9e-05	-4e-05	4
18131	-2e-05	-4e-05	0.00019	0.00093	0.00087	-0.00013	-9e-05	-4e-05	4
18132	-2e-05	-4e-05	0.00019	0.00093	0.00087	-0.00013	-9e-05	-4e-05	4
18133	-2e-05	-4e-05	0.00019	0.00093	0.00087	-0.00013	-9e-05	-4e-05	4
18134	-2e-05	-4e-05	0.00019	0.00093	0.00087	-0.00013	-9e-05	-4e-05	4
18135	-2e-05	-4e-05	0.00019	0.00093	0.00087	-0.00013	-9e-05	-4e-05	4
18136	-2e-05	-4e-05	0.00019	0.00093	0.00087	-0.00013	-9e-05	-4e-05	4
18138	-2e-05	-4e-05	0.00019	0.00093	0.00087	-0.00013	-9e-05	-4e-05	4
18139	-2e-05	-4e-05	0.00019	0.00093	0.00087	-0.00013	-9e-05	-4e-05	4
18140	-2e-05	-4e-05	0.00019	0.00093	0.00087	-0.00013	-9e-05	-4e-05	4
18141	-2e-05	-4e-05	0.00019	0.00093	0.00087	-0.00013	-9e-05	-4e-05	4
18142	-2e-05	-4e-05	0.00019	0.00093	0.00087	-0.00013	-9e-05	-4e-05	4
18143	-2e-05	-4e-05	0.00019	0.00093	0.00087	-0.00013	-9e-05	-4e-05	4
18144	-2e-05	-4e-05	0.00019	0.00093	0.00087	-0.00013	-9e-05	-4e-05	4
18145	-2e-05	-4e-05	0.00019	0.00093	0.00087	-0.00013	-9e-05	-4e-05	4
18146	-2e-05	-4e-05	0.00019	0.00093	0.00087	-0.00013	-9e-05	-4e-05	4
18147	-2e-05	-4e-05	0.00019	0.00093	0.00087	-0.00013	-9e-05	-4e-05	4
18148	-2e-05	-4e-05	0.00019	0.00093	0.00087	-0.00013	-9e-05	-4e-05	4
18149	-2e-05	-4e-05	0.00019	0.00093	0.00087	-0.00013	-9e-05	-4e-05	4
18150	-2e-05	-4e-05	0.00019	0.00093	0.00087	-0.00013	-9e-05	-4e-05	4
18151	-2e-05	-4e-05	0.00019	0.00093	0.00087	-0.00013	-9e-05	-4e-05	4
18152	-2e-05	-4e-05	0.00019	0.00093	0.00087	-0.00013	-9e-05	-4e-05	4
18153	-2e-05	-4e-05	0.00019	0.00093	0.00087	-0.00013	-9e-05	-4e-05	4
18154	-2e-05	-4e-05	0.00019	0.00093	0.00087	-0.00013	-9e-05	-4e-05	4
18155	-2e-05	-4e-05	0.00019	0.00093	0.00087	-0.00013	-9e-05	-4e-05	4
18156	-2e-05	-4e-05	0.00019	0.00093	0.00087	-0.00013	-9e-05	-4e-05	4
18157	-1e-05	0	-0.00023	-0.00025	-0.00026	0.0005	2e-05	-2e-05	4
18158	-9e-05	-0.0001	-8e-05	-0.00026	-0.00054	-0.00064	-0.00018	-0.00013	4
18159	1e-05	-1e-05	-0.00017	-0.00078	-0.00116	-0.00021	0	-1e-05	4
18160	1e-05	-1e-05	-0.00017	-0.00078	-0.00116	-0.00021	0	-1e-05	4
18161	1e-05	-1e-05	-0.00017	-0.00078	-0.00116	-0.00021	0	-1e-05	4
18162	1e-05	-1e-05	-0.00017	-0.00078	-0.00116	-0.00021	0	-1e-05	4
18163	1e-05	-1e-05	-0.00017	-0.00078	-0.00116	-0.00021	0	-1e-05	4
18164	1e-05	-1e-05	-0.00017	-0.00078	-0.00116	-0.00021	0	-1e-05	4
18165	1e-05	-1e-05	-0.00017	-0.00078	-0.00116	-0.00021	0	-1e-05	4
18166	1e-05	-1e-05	-0.00017	-0.00078	-0.00116	-0.00021	0	-1e-05	4
18167	1e-05	-1e-05	-0.00017	-0.00078	-0.00116	-0.00021	0	-1e-05	4
18168	1e-05	-1e-05	-0.00017	-0.00078	-0.00116	-0.00021	0	-1e-05	4
18169	1e-05	-1e-05	-0.00017	-0.00078	-0.00116	-0.00021	0	-1e-05	4
18170	1e-05	-1e-05	-0.00017	-0.00078	-0.00116	-0.00021	0	-1e-05	4
18171	1e-05	-1e-05	-0.00017	-0.00078	-0.00116	-0.00021	0	-1e-05	4
18172	-3e-05	-7e-05	-7e-05	-0.00033	0.00074	-0.00055	-9e-05	-4e-05	4
18173	5e-05	7e-05	0.00012	-0.00057	0.00036	0.00038	0.00011	6e-05	4
18174	-7e-05	-0.00012	-0.00015	0.00011	-0.00047	0.00078	-0.00012	-0.0001	4
18175	-7e-05	-0.00012	-0.00015	0.00011	-0.00047	0.00078	-0.00012	-0.0001	4
18176	-7e-05	-0.00012	-0.00015	0.00011	-0.00047	0.00078	-0.00012	-0.0001	4
18177	-7e-05	-0.00012	-0.00015	0.00011	-0.00047	0.00078	-0.00012	-0.0001	4
18178	-7e-05	-0.00012	-0.00015	0.00011	-0.00047	0.00078	-0.00012	-0.0001	4
18179	-7e-05	-0.00012	-0.00015	0.00011	-0.00047	0.00078	-0.00012	-0.0001	4
18180	-7e-05	-0.00012	-0.00015	0.00011	-0.00047	0.00078	-0.00012	-0.0001	4
18181	-7e-05	-0.00012	-0.00015	0.00011	-0.00047	0.00078	-0.00012	-0.0001	4
18182	-7e-05	-0.00012	-0.00015	0.00011	-0.00047	0.00078	-0.00012	-0.0001	4
18183	-7e-05	-0.00012	-0.00015	0.00011	-0.00047	0.00078	-0.00012	-0.0001	4
18184	-7e-05	-0.00012	-0.00015	0.00011	-0.00047	0.00078	-0.00012	-0.0001	4
18185	-7e-05	-0.00012	-0.00015	0.00011	-0.00047	0.00078	-0.00012	-0.0001	4
18186	-7e-05	-0.00012	-0.00015	0.00011	-0.00047	0.00078	-0.00012	-0.0001	4
18189	-6e-05	-8e-05	-0.00018	0.0001	-0.00036	-0.00065	-0.00014	-0.0001	4
18190	-6e-05	-8e-05	-0.00018	0.0001	-0.00036	-0.00065	-0.00014	-0.0001	4
18191	-6e-05	-8e-05	-0.00018	0.0001	-0.00036	-0.00065	-0.00014	-0.0001	4
18192	-6e-05	-8e-05	-0.00018	0.0001	-0.00036	-0.00065	-0.00014	-0.0001	4
18193	-6e-05	-8e-05	-0.00018	0.0001	-0.00036	-0.00065	-0.00014	-0.0001	4
18194	-6e-05	-8e-05	-0.00018	0.0001	-0.00036	-0.00065	-0.00014	-0.0001	4
18195	-6e-05	-8e-05	-0.00018	0.0001	-0.00036	-0.00065	-0.00014	-0.0001	4
18196	-6e-05	-8e-05	-0.00018	0.0001	-0.00036	-0.00065	-0.00014	-0.0001	4
18197	-6e-05	-8e-05	-0.00018	0.0001	-0.00036	-0.00065	-0.00014	-0.0001	4
18198	-6e-05	-8e-05	-0.00018	0.0001	-0.00036	-0.00065	-0.00014	-0.0001	4
18199	-6e-05	-8e-05	-0.00018	0.0001	-0.00036	-0.00065	-0.00014	-0.0001	4
18200	-6e-05	-8e-05	-0.00018	0.0001	-0.00036	-0.00065	-0.00014	-0.0001	4
18201	-6e-05	-8e-05	-0.00018	0.0001	-0.00036	-0.00065	-0.00014	-0.0001	4
18202	-6e-05	-8e-05	-0.00018	0.0001	-0.00036	-0.00065	-0.00014	-0.0001	4
18203	-6e-05	-8e-05	-0.00018	0.0001	-0.00036	-0.00065	-0.00014	-0.0001	4
18204	-6e-05	-8e-05	-0.00018	0.0001	-0.00036	-0.00065	-0.00014	-0.0001	4
18205	-6e-05	-8e-05	-0.00018	0.0001	-0.00036	-0.00065	-0.00014	-0.0001	4
18206	-6e-05	-8e-05	-0.00018	0.0001	-0.00036	-0.00065	-0.00014	-0.0001	4
18207	-6e-05	-8e-05	-0.00018	0.0001	-0.00036	-0.00065	-0.00014	-0.0001	4
18208	-6e-05	-8e-05	-0.00018	0.0001	-0.00036	-0.00065	-0.00014	-0.0001	4
18209	-6e-05	-8e-05	-0.00018	0.0001	-0.00036	-0.00065	-0.00014	-0.0001	4
18210	-2e-05	0	0.0001	0.0009	0.00112	-0.00012	-6e-05	-2e-05	4
18211	-2e-05	0	0.0001	0.0009	0.00112	-0.00012	-6e-05	-2e-05	4
18212	-1e-05	-7e-05	-0.00033	-0.00044	0.00036	0.0012	0.00026	6e-05	4
18213	-1e-05	-7e-05	-0.00033	-0.00044	0.00036	0.0012	0.00026	6e-05	4
18214	-1e-05	-7e-05	-0.00033	-0.00044	0.00036	0.0012	0.00026	6e-05	4
18215	-1e-05	-7e-05	-0.00033	-0.00044	0.00036	0.0012	0.00026	6e-05	4
18216	-1e-05	-7e-05	-0.00033	-0.00044	0.00036	0.0012	0.00026	6e-05	4
18217	-1e-05	-7e-05	-0.00033	-0.00044	0.00036	0.0012	0.00026	6e-05	4
18218	-1e-05	-7e-05	-0.00033	-0.00044	0.00036	0.0012	0.00026	6e-05	4
18219	-1e-05	-7e-05	-0.00033	-0.00044	0.00036	0.0012	0.00026	6e-05	4
18220	-1e-05	-7e-05	-0.00033	-0.00044	0.00036	0.0012	0.00026	6e-05	4
18221	-1e-05	-7e-05	-0.00033	-0.00044	0.00036	0.0012	0.00026	6e-05	4
18222	-1e-05	-7e-05	-0.00033	-0.00044	0.00036	0.0012	0.00026	6e-05	4
18223	-1e-05	-7e-05	-0.00033	-0.00044	0.00036	0.0012	0.00026	6e-05	4
18224	-1e-05	-7e-05	-0.00033	-0.00044	0.00036	0.0012	0.00026	6e-05	4
18225	-1e-05	-7e-05	-0.00033	-0.00044	0.00036	0.0012	0.00026	6e-05	4
18226	-1e-05	-7e-05	-0.00033	-0.00044	0.00036	0.0012	0.00026	6e-05	4
18227	-1e-05	-7e-05	-0.00033	-0.00044	0.00036	0.0012	0.00026	6e-05	4
18228	-1e-05	-7e-05	-0.00033	-0.00044	0.00036	0.0012	0.00026	6e-05	4
18229	-1e-05	-7e-05	-0.00033	-0.00044	0.00036	0.0012	0.00026	6e-05	4
18230	-1e-05	-7e-05	-0.00033	-0.00044	0.00036	0.0012	0.00026	6e-05	4
18231	-1e-05	-7e-05	-0.00033	-0.00044	0.00036	0.0012	0.00026	6e-05	4
18232	8e-05	0.00015	0.00027	0.00024	-0.0001	-0.00014	0.00015	0.00011	4
18233	8e-05	0.00015	0.00027	0.00024	-0.0001	-0.00014	0.00015	0.00011	4
18234	1e-05	7e-05	0.00029	0.00057	0.00012	-0.0003	0	1e-05	4
18235	1e-05	7e-05	0.00029	0.00057	0.00012	-0.0003	0	1e-05	4
18236	1e-05	7e-05	0.00029	0.00057	0.00012	-0.0003	0	1e-05	4
18238	1e-05	7e-05	0.00029	0.00057	0.00012	-0.0003	0	1e-05	4
18239	1e-05	7e-05	0.00029	0.00057	0.00012	-0.0003	0	1e-05	4
18240	1e-05	7e-05	0.00029	0.00057	0.00012	-0.0003	0	1e-05	4
18241	1e-05	7e-05	0.00029	0.00057	0.00012	-0.0003	0	1e-05	4
18242	1e-05	7e-05	0.00029	0.00057	0.00012	-0.0003	0	1e-05	4
18243	1e-05	7e-05	0.00029	0.00057	0.00012	-0.0003	0	1e-05	4
18244	1e-05	7e-05	0.00029	0.00057	0.00012	-0.0003	0	1e-05	4
18245	1e-05	7e-05	0.00029	0.00057	0.00012	-0.0003	0	1e-05	4
18246	1e-05	7e-05	0.00029	0.00057	0.00012	-0.0003	0	1e-05	4
18247	1e-05	7e-05	0.00029	0.00057	0.00012	-0.0003	0	1e-05	4
18248	1e-05	7e-05	0.00029	0.00057	0.00012	-0.0003	0	1e-05	4
18249	-5e-05	-0.0001	-0.00014	0.00013	0.0002	-1e-05	-0.00022	-0.0001	4
18250	-5e-05	-0.0001	-0.00014	0.00013	0.0002	-1e-05	-0.00022	-0.0001	4
18251	-5e-05	-0.0001	-0.00014	0.00013	0.0002	-1e-05	-0.00022	-0.0001	4
18252	-5e-05	-0.0001	-0.00014	0.00013	0.0002	-1e-05	-0.00022	-0.0001	4
18253	7e-05	0.0001	0.00012	-7e-05	0.00043	0.0008	0.00027	9e-05	4
18254	2e-05	6e-05	0.00023	0.00063	-0.00073	-0.0008	-0.00012	-3e-05	4
18255	2e-05	6e-05	0.00023	0.00063	-0.00073	-0.0008	-0.00012	-3e-05	4
18256	2e-05	6e-05	0.00023	0.00063	-0.00073	-0.0008	-0.00012	-3e-05	4
18257	2e-05	6e-05	0.00023	0.00063	-0.00073	-0.0008	-0.00012	-3e-05	4
18258	2e-05	6e-05	0.00023	0.00063	-0.00073	-0.0008	-0.00012	-3e-05	4
18259	2e-05	6e-05	0.00023	0.00063	-0.00073	-0.0008	-0.00012	-3e-05	4
18260	2e-05	6e-05	0.00023	0.00063	-0.00073	-0.0008	-0.00012	-3e-05	4
18261	2e-05	6e-05	0.00023	0.00063	-0.00073	-0.0008	-0.00012	-3e-05	4
18262	2e-05	6e-05	0.00023	0.00063	-0.00073	-0.0008	-0.00012	-3e-05	4
18263	2e-05	6e-05	0.00023	0.00063	-0.00073	-0.0008	-0.00012	-3e-05	4
18264	2e-05	6e-05	0.00023	0.00063	-0.00073	-0.0008	-0.00012	-3e-05	4
18265	2e-05	6e-05	0.00023	0.00063	-0.00073	-0.0008	-0.00012	-3e-05	4
18266	2e-05	6e-05	0.00023	0.00063	-0.00073	-0.0008	-0.00012	-3e-05	4
18267	2e-05	6e-05	0.00023	0.00063	-0.00073	-0.0008	-0.00012	-3e-05	4
18268	2e-05	6e-05	0.00023	0.00063	-0.00073	-0.0008	-0.00012	-3e-05	4
18269	2e-05	6e-05	0.00023	0.00063	-0.00073	-0.0008	-0.00012	-3e-05	4
18270	-1e-05	-4e-05	-5e-05	-0.00043	0.00118	-0.00021	2e-05	1e-05	4
18271	-6e-05	-4e-05	0	0.00033	-0.00128	0	-7e-05	-4e-05	4
18272	2e-05	6e-05	0.00015	0.00035	-4e-05	-3e-05	-2e-05	0	4
18273	2e-05	6e-05	0.00015	0.00035	-4e-05	-3e-05	-2e-05	0	4
18274	2e-05	6e-05	0.00015	0.00035	-4e-05	-3e-05	-2e-05	0	4
18275	2e-05	6e-05	0.00015	0.00035	-4e-05	-3e-05	-2e-05	0	4
18276	2e-05	6e-05	0.00015	0.00035	-4e-05	-3e-05	-2e-05	0	4
18277	2e-05	6e-05	0.00015	0.00035	-4e-05	-3e-05	-2e-05	0	4
18278	2e-05	6e-05	0.00015	0.00035	-4e-05	-3e-05	-2e-05	0	4
18279	2e-05	6e-05	0.00015	0.00035	-4e-05	-3e-05	-2e-05	0	4
18280	2e-05	6e-05	0.00015	0.00035	-4e-05	-3e-05	-2e-05	0	4
18281	2e-05	6e-05	0.00015	0.00035	-4e-05	-3e-05	-2e-05	0	4
18282	2e-05	6e-05	0.00015	0.00035	-4e-05	-3e-05	-2e-05	0	4
18283	2e-05	6e-05	0.00015	0.00035	-4e-05	-3e-05	-2e-05	0	4
18284	2e-05	6e-05	0.00015	0.00035	-4e-05	-3e-05	-2e-05	0	4
18285	2e-05	6e-05	0.00015	0.00035	-4e-05	-3e-05	-2e-05	0	4
18286	2e-05	6e-05	0.00015	0.00035	-4e-05	-3e-05	-2e-05	0	4
18288	2e-05	6e-05	0.00015	0.00035	-4e-05	-3e-05	-2e-05	0	4
18289	2e-05	6e-05	0.00015	0.00035	-4e-05	-3e-05	-2e-05	0	4
18290	2e-05	6e-05	0.00015	0.00035	-4e-05	-3e-05	-2e-05	0	4
18291	2e-05	6e-05	0.00015	0.00035	-4e-05	-3e-05	-2e-05	0	4
18292	2e-05	6e-05	0.00015	0.00035	-4e-05	-3e-05	-2e-05	0	4
18293	2e-05	6e-05	0.00015	0.00035	-4e-05	-3e-05	-2e-05	0	4
18294	2e-05	6e-05	0.00015	0.00035	-4e-05	-3e-05	-2e-05	0	4
18295	2e-05	6e-05	0.00015	0.00035	-4e-05	-3e-05	-2e-05	0	4
18296	2e-05	6e-05	0.00015	0.00035	-4e-05	-3e-05	-2e-05	0	4
18297	2e-05	6e-05	0.00015	0.00035	-4e-05	-3e-05	-2e-05	0	4
18298	2e-05	6e-05	0.00015	0.00035	-4e-05	-3e-05	-2e-05	0	4
18299	2e-05	6e-05	0.00015	0.00035	-4e-05	-3e-05	-2e-05	0	4
18300	0	1e-05	0.0001	-0.00015	-0.00028	-0.00048	-2e-05	-1e-05	4
18301	0	1e-05	0.0001	-0.00015	-0.00028	-0.00048	-2e-05	-1e-05	4
18302	3e-05	0.00011	0.00024	0.00082	0.00104	0.00037	0	3e-05	4
18303	3e-05	0.00011	0.00024	0.00082	0.00104	0.00037	0	3e-05	4
18304	3e-05	0.00011	0.00024	0.00082	0.00104	0.00037	0	3e-05	4
18305	3e-05	0.00011	0.00024	0.00082	0.00104	0.00037	0	3e-05	4
18306	3e-05	0.00011	0.00024	0.00082	0.00104	0.00037	0	3e-05	4
18307	2e-05	0	0.00011	-0.00033	0.00084	0.00012	5e-05	3e-05	4
18308	2e-05	0	0.00011	-0.00033	0.00084	0.00012	5e-05	3e-05	4
18309	2e-05	0	0.00011	-0.00033	0.00084	0.00012	5e-05	3e-05	4
18310	2e-05	0	0.00011	-0.00033	0.00084	0.00012	5e-05	3e-05	4
18311	2e-05	0	0.00011	-0.00033	0.00084	0.00012	5e-05	3e-05	4
18312	2e-05	0	0.00011	-0.00033	0.00084	0.00012	5e-05	3e-05	4
18313	-3e-05	-0.00012	-0.00046	-0.00116	-0.0001	-0.00013	1e-05	0	4
18314	-3e-05	-0.00012	-0.00046	-0.00116	-0.0001	-0.00013	1e-05	0	4
18315	-3e-05	-0.00012	-0.00046	-0.00116	-0.0001	-0.00013	1e-05	0	4
18316	-3e-05	-0.00012	-0.00046	-0.00116	-0.0001	-0.00013	1e-05	0	4
18317	-3e-05	-0.00012	-0.00046	-0.00116	-0.0001	-0.00013	1e-05	0	4
18318	-3e-05	-0.00012	-0.00046	-0.00116	-0.0001	-0.00013	1e-05	0	4
18319	-3e-05	-0.00012	-0.00046	-0.00116	-0.0001	-0.00013	1e-05	0	4
18320	-3e-05	-0.00012	-0.00046	-0.00116	-0.0001	-0.00013	1e-05	0	4
18321	-3e-05	-0.00012	-0.00046	-0.00116	-0.0001	-0.00013	1e-05	0	4
18322	-3e-05	-0.00012	-0.00046	-0.00116	-0.0001	-0.00013	1e-05	0	4
18323	-3e-05	-0.00012	-0.00046	-0.00116	-0.0001	-0.00013	1e-05	0	4
18324	-3e-05	-0.00012	-0.00046	-0.00116	-0.0001	-0.00013	1e-05	0	4
18325	-3e-05	-0.00012	-0.00046	-0.00116	-0.0001	-0.00013	1e-05	0	4
18326	-3e-05	-0.00012	-0.00046	-0.00116	-0.0001	-0.00013	1e-05	0	4
18327	-3e-05	-0.00012	-0.00046	-0.00116	-0.0001	-0.00013	1e-05	0	4
18328	-3e-05	-0.00012	-0.00046	-0.00116	-0.0001	-0.00013	1e-05	0	4
18329	-3e-05	-0.00012	-0.00046	-0.00116	-0.0001	-0.00013	1e-05	0	4
18330	2e-05	4e-05	-8e-05	-0.00063	-0.00034	0.0006	0.00012	2e-05	4
18331	2e-05	4e-05	-8e-05	-0.00063	-0.00034	0.0006	0.00012	2e-05	4
18332	-4e-05	-0.00011	-0.00029	-0.00085	0.0006	-0.00034	-3e-05	-3e-05	4
18333	-4e-05	-0.00011	-0.00029	-0.00085	0.0006	-0.00034	-3e-05	-3e-05	4
18334	-4e-05	-0.00011	-0.00029	-0.00085	0.0006	-0.00034	-3e-05	-3e-05	4
18335	-4e-05	-0.00011	-0.00029	-0.00085	0.0006	-0.00034	-3e-05	-3e-05	4
18336	-4e-05	-0.00011	-0.00029	-0.00085	0.0006	-0.00034	-3e-05	-3e-05	4
18338	-4e-05	-0.00011	-0.00029	-0.00085	0.0006	-0.00034	-3e-05	-3e-05	4
18339	-4e-05	-0.00011	-0.00029	-0.00085	0.0006	-0.00034	-3e-05	-3e-05	4
18340	-4e-05	-0.00011	-0.00029	-0.00085	0.0006	-0.00034	-3e-05	-3e-05	4
18341	-4e-05	-0.00011	-0.00029	-0.00085	0.0006	-0.00034	-3e-05	-3e-05	4
18342	-4e-05	-0.00011	-0.00029	-0.00085	0.0006	-0.00034	-3e-05	-3e-05	4
18343	-4e-05	-0.00011	-0.00029	-0.00085	0.0006	-0.00034	-3e-05	-3e-05	4
18344	-4e-05	-0.00011	-0.00029	-0.00085	0.0006	-0.00034	-3e-05	-3e-05	4
18345	-4e-05	-0.00011	-0.00029	-0.00085	0.0006	-0.00034	-3e-05	-3e-05	4
18346	-4e-05	-0.00011	-0.00029	-0.00085	0.0006	-0.00034	-3e-05	-3e-05	4
18347	-4e-05	-0.00011	-0.00029	-0.00085	0.0006	-0.00034	-3e-05	-3e-05	4
18348	-4e-05	-0.00011	-0.00029	-0.00085	0.0006	-0.00034	-3e-05	-3e-05	4
18349	-4e-05	-0.00011	-0.00029	-0.00085	0.0006	-0.00034	-3e-05	-3e-05	4
18350	-4e-05	-0.00011	-0.00029	-0.00085	0.0006	-0.00034	-3e-05	-3e-05	4
18351	-4e-05	-0.00011	-0.00029	-0.00085	0.0006	-0.00034	-3e-05	-3e-05	4
18352	5e-05	0.00011	0.0004	0.00127	0.00059	0.00033	3e-05	2e-05	4
18353	-3e-05	-2e-05	-0.00014	-0.00056	-0.00093	-0.00041	5e-05	-2e-05	4
18354	0.00014	0.00016	0.00013	-0.00013	-0.00059	0.00028	0.00024	0.00019	4
18355	0.00014	0.00016	0.00013	-0.00013	-0.00059	0.00028	0.00024	0.00019	4
18356	0.00014	0.00016	0.00013	-0.00013	-0.00059	0.00028	0.00024	0.00019	4
18357	0.00014	0.00016	0.00013	-0.00013	-0.00059	0.00028	0.00024	0.00019	4
18358	0.00014	0.00016	0.00013	-0.00013	-0.00059	0.00028	0.00024	0.00019	4
18359	0.00014	0.00016	0.00013	-0.00013	-0.00059	0.00028	0.00024	0.00019	4
18360	0.00014	0.00016	0.00013	-0.00013	-0.00059	0.00028	0.00024	0.00019	4
18361	0.00014	0.00016	0.00013	-0.00013	-0.00059	0.00028	0.00024	0.00019	4
18362	0.00014	0.00016	0.00013	-0.00013	-0.00059	0.00028	0.00024	0.00019	4
18363	0.00014	0.00016	0.00013	-0.00013	-0.00059	0.00028	0.00024	0.00019	4
18364	0.00014	0.00016	0.00013	-0.00013	-0.00059	0.00028	0.00024	0.00019	4
18365	0.00014	0.00016	0.00013	-0.00013	-0.00059	0.00028	0.00024	0.00019	4
18366	0.00014	0.00016	0.00013	-0.00013	-0.00059	0.00028	0.00024	0.00019	4
18367	-5e-05	-8e-05	-0.0002	0.00021	-0.00067	-0.00059	-7e-05	-4e-05	4
18368	-5e-05	-8e-05	-0.0002	0.00021	-0.00067	-0.00059	-7e-05	-4e-05	4
18369	-5e-05	-8e-05	-0.0002	0.00021	-0.00067	-0.00059	-7e-05	-4e-05	4
18370	-5e-05	-8e-05	-0.0002	0.00021	-0.00067	-0.00059	-7e-05	-4e-05	4
18371	-5e-05	-8e-05	-0.0002	0.00021	-0.00067	-0.00059	-7e-05	-4e-05	4
18372	-5e-05	-8e-05	-0.0002	0.00021	-0.00067	-0.00059	-7e-05	-4e-05	4
18373	-5e-05	-8e-05	-0.0002	0.00021	-0.00067	-0.00059	-7e-05	-4e-05	4
18374	-6e-05	-0.00012	-0.0002	-0.00055	0.00026	7e-05	-0.0001	-5e-05	4
18375	-6e-05	-0.00012	-0.0002	-0.00055	0.00026	7e-05	-0.0001	-5e-05	4
18376	-6e-05	-0.00012	-0.0002	-0.00055	0.00026	7e-05	-0.0001	-5e-05	4
18377	-6e-05	-0.00012	-0.0002	-0.00055	0.00026	7e-05	-0.0001	-5e-05	4
18378	-6e-05	-0.00012	-0.0002	-0.00055	0.00026	7e-05	-0.0001	-5e-05	4
18379	-6e-05	-0.00012	-0.0002	-0.00055	0.00026	7e-05	-0.0001	-5e-05	4
18380	-6e-05	-0.00012	-0.0002	-0.00055	0.00026	7e-05	-0.0001	-5e-05	4
18381	-6e-05	-0.00012	-0.0002	-0.00055	0.00026	7e-05	-0.0001	-5e-05	4
18382	-6e-05	-0.00012	-0.0002	-0.00055	0.00026	7e-05	-0.0001	-5e-05	4
18383	-6e-05	-0.00012	-0.0002	-0.00055	0.00026	7e-05	-0.0001	-5e-05	4
18384	-6e-05	-0.00012	-0.0002	-0.00055	0.00026	7e-05	-0.0001	-5e-05	4
18385	-6e-05	-0.00012	-0.0002	-0.00055	0.00026	7e-05	-0.0001	-5e-05	4
18386	-6e-05	-0.00012	-0.0002	-0.00055	0.00026	7e-05	-0.0001	-5e-05	4
18388	-6e-05	-0.00012	-0.0002	-0.00055	0.00026	7e-05	-0.0001	-5e-05	4
18389	-6e-05	-0.00012	-0.0002	-0.00055	0.00026	7e-05	-0.0001	-5e-05	4
18390	8e-05	0.00019	0.0004	0.00111	-0.00101	9e-05	9e-05	0.00012	4
18391	8e-05	0.00019	0.0004	0.00111	-0.00101	9e-05	9e-05	0.00012	4
18392	-9e-05	-1e-05	0.00027	0.00123	0.00052	5e-05	-0.00016	-0.00013	4
18393	-9e-05	-1e-05	0.00027	0.00123	0.00052	5e-05	-0.00016	-0.00013	4
18394	-9e-05	-1e-05	0.00027	0.00123	0.00052	5e-05	-0.00016	-0.00013	4
18395	-9e-05	-1e-05	0.00027	0.00123	0.00052	5e-05	-0.00016	-0.00013	4
18396	-9e-05	-1e-05	0.00027	0.00123	0.00052	5e-05	-0.00016	-0.00013	4
18397	-9e-05	-1e-05	0.00027	0.00123	0.00052	5e-05	-0.00016	-0.00013	4
18398	-9e-05	-1e-05	0.00027	0.00123	0.00052	5e-05	-0.00016	-0.00013	4
18399	-9e-05	-1e-05	0.00027	0.00123	0.00052	5e-05	-0.00016	-0.00013	4
18400	-9e-05	-1e-05	0.00027	0.00123	0.00052	5e-05	-0.00016	-0.00013	4
18401	-9e-05	-1e-05	0.00027	0.00123	0.00052	5e-05	-0.00016	-0.00013	4
18402	-9e-05	-1e-05	0.00027	0.00123	0.00052	5e-05	-0.00016	-0.00013	4
18403	-9e-05	-1e-05	0.00027	0.00123	0.00052	5e-05	-0.00016	-0.00013	4
18404	-9e-05	-1e-05	0.00027	0.00123	0.00052	5e-05	-0.00016	-0.00013	4
18405	-9e-05	-1e-05	0.00027	0.00123	0.00052	5e-05	-0.00016	-0.00013	4
18406	-9e-05	-1e-05	0.00027	0.00123	0.00052	5e-05	-0.00016	-0.00013	4
18407	-9e-05	-1e-05	0.00027	0.00123	0.00052	5e-05	-0.00016	-0.00013	4
18408	-9e-05	-1e-05	0.00027	0.00123	0.00052	5e-05	-0.00016	-0.00013	4
18409	-9e-05	-1e-05	0.00027	0.00123	0.00052	5e-05	-0.00016	-0.00013	4
18410	-9e-05	-1e-05	0.00027	0.00123	0.00052	5e-05	-0.00016	-0.00013	4
18411	-9e-05	-1e-05	0.00027	0.00123	0.00052	5e-05	-0.00016	-0.00013	4
18412	-9e-05	-1e-05	0.00027	0.00123	0.00052	5e-05	-0.00016	-0.00013	4
18413	-0.0001	-0.00017	-0.00029	7e-05	-0.00056	5e-05	-0.00014	-0.00014	4
18414	-0.0001	-0.00017	-0.00029	7e-05	-0.00056	5e-05	-0.00014	-0.00014	4
18415	-1e-05	3e-05	0.00014	0.00061	-0.00089	0.00011	-5e-05	-3e-05	4
18416	-1e-05	3e-05	0.00014	0.00061	-0.00089	0.00011	-5e-05	-3e-05	4
18417	-1e-05	3e-05	0.00014	0.00061	-0.00089	0.00011	-5e-05	-3e-05	4
18418	-1e-05	3e-05	0.00014	0.00061	-0.00089	0.00011	-5e-05	-3e-05	4
18419	-1e-05	3e-05	0.00014	0.00061	-0.00089	0.00011	-5e-05	-3e-05	4
18420	-1e-05	3e-05	0.00014	0.00061	-0.00089	0.00011	-5e-05	-3e-05	4
18421	-1e-05	3e-05	0.00014	0.00061	-0.00089	0.00011	-5e-05	-3e-05	4
18422	-1e-05	3e-05	0.00014	0.00061	-0.00089	0.00011	-5e-05	-3e-05	4
18423	-1e-05	3e-05	0.00014	0.00061	-0.00089	0.00011	-5e-05	-3e-05	4
18424	-1e-05	3e-05	0.00014	0.00061	-0.00089	0.00011	-5e-05	-3e-05	4
18425	-1e-05	3e-05	0.00014	0.00061	-0.00089	0.00011	-5e-05	-3e-05	4
18426	-1e-05	3e-05	0.00014	0.00061	-0.00089	0.00011	-5e-05	-3e-05	4
18427	-1e-05	3e-05	0.00014	0.00061	-0.00089	0.00011	-5e-05	-3e-05	4
18428	-1e-05	3e-05	0.00014	0.00061	-0.00089	0.00011	-5e-05	-3e-05	4
18429	-1e-05	3e-05	0.00014	0.00061	-0.00089	0.00011	-5e-05	-3e-05	4
18430	-1e-05	3e-05	0.00014	0.00061	-0.00089	0.00011	-5e-05	-3e-05	4
18431	-1e-05	3e-05	0.00014	0.00061	-0.00089	0.00011	-5e-05	-3e-05	4
18432	-1e-05	3e-05	0.00014	0.00061	-0.00089	0.00011	-5e-05	-3e-05	4
18433	-1e-05	3e-05	0.00014	0.00061	-0.00089	0.00011	-5e-05	-3e-05	4
18434	-1e-05	3e-05	0.00014	0.00061	-0.00089	0.00011	-5e-05	-3e-05	4
18435	2e-05	-2e-05	-0.00011	0.00056	-0.00083	0.00042	0.00011	7e-05	4
18436	-2e-05	1e-05	0.00014	0.00066	-2e-05	-0.0002	-5e-05	-5e-05	4
18438	-1e-05	-4e-05	-0.00017	-0.00068	-0.00122	-0.00013	5e-05	-2e-05	4
18439	-1e-05	-4e-05	-0.00017	-0.00068	-0.00122	-0.00013	5e-05	-2e-05	4
18440	-1e-05	-4e-05	-0.00017	-0.00068	-0.00122	-0.00013	5e-05	-2e-05	4
18441	-1e-05	-4e-05	-0.00017	-0.00068	-0.00122	-0.00013	5e-05	-2e-05	4
18442	-1e-05	-4e-05	-0.00017	-0.00068	-0.00122	-0.00013	5e-05	-2e-05	4
18443	-1e-05	-4e-05	-0.00017	-0.00068	-0.00122	-0.00013	5e-05	-2e-05	4
18444	-1e-05	-4e-05	-0.00017	-0.00068	-0.00122	-0.00013	5e-05	-2e-05	4
18445	-1e-05	-4e-05	-0.00017	-0.00068	-0.00122	-0.00013	5e-05	-2e-05	4
18446	-1e-05	-4e-05	-0.00017	-0.00068	-0.00122	-0.00013	5e-05	-2e-05	4
18447	-1e-05	-4e-05	-0.00017	-0.00068	-0.00122	-0.00013	5e-05	-2e-05	4
18448	-1e-05	-4e-05	-0.00017	-0.00068	-0.00122	-0.00013	5e-05	-2e-05	4
18449	-1e-05	-4e-05	-0.00017	-0.00068	-0.00122	-0.00013	5e-05	-2e-05	4
18450	1e-05	4e-05	0	0.00051	3e-05	0.00013	-3e-05	-3e-05	4
18451	-6e-05	-8e-05	-0.00019	-0.00028	7e-05	-0.00024	-0.00015	-5e-05	4
18452	-3e-05	0	0.00022	0.001	0.00063	-0.00042	-7e-05	-2e-05	4
18453	-3e-05	0	0.00022	0.001	0.00063	-0.00042	-7e-05	-2e-05	4
18454	-3e-05	0	0.00022	0.001	0.00063	-0.00042	-7e-05	-2e-05	4
18455	-3e-05	0	0.00022	0.001	0.00063	-0.00042	-7e-05	-2e-05	4
18456	-3e-05	0	0.00022	0.001	0.00063	-0.00042	-7e-05	-2e-05	4
18457	-3e-05	0	0.00022	0.001	0.00063	-0.00042	-7e-05	-2e-05	4
18458	-3e-05	0	0.00022	0.001	0.00063	-0.00042	-7e-05	-2e-05	4
18459	-3e-05	0	0.00022	0.001	0.00063	-0.00042	-7e-05	-2e-05	4
18460	-3e-05	0	0.00022	0.001	0.00063	-0.00042	-7e-05	-2e-05	4
18461	-3e-05	0	0.00022	0.001	0.00063	-0.00042	-7e-05	-2e-05	4
18462	-3e-05	0	0.00022	0.001	0.00063	-0.00042	-7e-05	-2e-05	4
18463	-3e-05	0	0.00022	0.001	0.00063	-0.00042	-7e-05	-2e-05	4
18464	-3e-05	0	0.00022	0.001	0.00063	-0.00042	-7e-05	-2e-05	4
18465	-3e-05	0	0.00022	0.001	0.00063	-0.00042	-7e-05	-2e-05	4
18466	-3e-05	0	0.00022	0.001	0.00063	-0.00042	-7e-05	-2e-05	4
18467	-3e-05	0	0.00022	0.001	0.00063	-0.00042	-7e-05	-2e-05	4
18468	-3e-05	0	0.00022	0.001	0.00063	-0.00042	-7e-05	-2e-05	4
18469	-3e-05	0	0.00022	0.001	0.00063	-0.00042	-7e-05	-2e-05	4
18470	-3e-05	0	0.00022	0.001	0.00063	-0.00042	-7e-05	-2e-05	4
18471	-3e-05	0	0.00022	0.001	0.00063	-0.00042	-7e-05	-2e-05	4
18472	0	1e-05	-1e-05	-0.00021	0.00058	-0.00023	-3e-05	-2e-05	4
18473	-2e-05	-6e-05	-0.00016	-0.00123	-0.0002	8e-05	4e-05	-1e-05	4
18474	6e-05	0.00012	0.00031	0.00107	-0.00076	0.00066	0.0001	5e-05	4
18475	6e-05	0.00012	0.00031	0.00107	-0.00076	0.00066	0.0001	5e-05	4
18476	6e-05	0.00012	0.00031	0.00107	-0.00076	0.00066	0.0001	5e-05	4
18477	6e-05	0.00012	0.00031	0.00107	-0.00076	0.00066	0.0001	5e-05	4
18478	6e-05	0.00012	0.00031	0.00107	-0.00076	0.00066	0.0001	5e-05	4
18479	6e-05	0.00012	0.00031	0.00107	-0.00076	0.00066	0.0001	5e-05	4
18480	6e-05	0.00012	0.00031	0.00107	-0.00076	0.00066	0.0001	5e-05	4
18481	6e-05	0.00012	0.00031	0.00107	-0.00076	0.00066	0.0001	5e-05	4
18482	6e-05	0.00012	0.00031	0.00107	-0.00076	0.00066	0.0001	5e-05	4
18483	6e-05	0.00012	0.00031	0.00107	-0.00076	0.00066	0.0001	5e-05	4
18484	6e-05	0.00012	0.00031	0.00107	-0.00076	0.00066	0.0001	5e-05	4
18485	6e-05	0.00012	0.00031	0.00107	-0.00076	0.00066	0.0001	5e-05	4
18486	6e-05	0.00012	0.00031	0.00107	-0.00076	0.00066	0.0001	5e-05	4
18489	8e-05	0.00017	0.00051	0.00079	-0.00057	0.00019	1e-05	7e-05	4
18490	8e-05	0.00017	0.00051	0.00079	-0.00057	0.00019	1e-05	7e-05	4
18491	8e-05	0.00017	0.00051	0.00079	-0.00057	0.00019	1e-05	7e-05	4
18492	8e-05	0.00017	0.00051	0.00079	-0.00057	0.00019	1e-05	7e-05	4
18493	-9e-05	-0.00015	-0.00058	-0.00067	-0.00074	-0.00049	-0.00013	-0.00012	4
18494	-3e-05	-0.0001	-0.00028	-0.0012	4e-05	0.00023	-5e-05	-4e-05	4
18495	-3e-05	-0.0001	-0.00028	-0.0012	4e-05	0.00023	-5e-05	-4e-05	4
18496	-3e-05	-0.0001	-0.00028	-0.0012	4e-05	0.00023	-5e-05	-4e-05	4
18497	-3e-05	-0.0001	-0.00028	-0.0012	4e-05	0.00023	-5e-05	-4e-05	4
18498	-3e-05	-0.0001	-0.00028	-0.0012	4e-05	0.00023	-5e-05	-4e-05	4
18499	-3e-05	-0.0001	-0.00028	-0.0012	4e-05	0.00023	-5e-05	-4e-05	4
18500	-3e-05	-0.0001	-0.00028	-0.0012	4e-05	0.00023	-5e-05	-4e-05	4
18501	-3e-05	-0.0001	-0.00028	-0.0012	4e-05	0.00023	-5e-05	-4e-05	4
18502	-3e-05	-0.0001	-0.00028	-0.0012	4e-05	0.00023	-5e-05	-4e-05	4
18503	-3e-05	-0.0001	-0.00028	-0.0012	4e-05	0.00023	-5e-05	-4e-05	4
18504	-3e-05	-0.0001	-0.00028	-0.0012	4e-05	0.00023	-5e-05	-4e-05	4
18505	-3e-05	-0.0001	-0.00028	-0.0012	4e-05	0.00023	-5e-05	-4e-05	4
18506	-3e-05	-0.0001	-0.00028	-0.0012	4e-05	0.00023	-5e-05	-4e-05	4
18507	-3e-05	-0.0001	-0.00028	-0.0012	4e-05	0.00023	-5e-05	-4e-05	4
18508	-3e-05	-0.0001	-0.00028	-0.0012	4e-05	0.00023	-5e-05	-4e-05	4
18509	-3e-05	-0.0001	-0.00028	-0.0012	4e-05	0.00023	-5e-05	-4e-05	4
18510	-3e-05	-3e-05	6e-05	-0.00062	-0.00094	-0.00015	0	-5e-05	4
18511	-2e-05	-5e-05	-4e-05	0.00024	0.00043	-2e-05	-5e-05	-4e-05	4
18512	-2e-05	-5e-05	-4e-05	0.00024	0.00043	-2e-05	-5e-05	-4e-05	4
18513	-2e-05	-5e-05	-4e-05	0.00024	0.00043	-2e-05	-5e-05	-4e-05	4
18514	-2e-05	-5e-05	-4e-05	0.00024	0.00043	-2e-05	-5e-05	-4e-05	4
18515	-2e-05	-5e-05	-4e-05	0.00024	0.00043	-2e-05	-5e-05	-4e-05	4
18516	-2e-05	-5e-05	-4e-05	0.00024	0.00043	-2e-05	-5e-05	-4e-05	4
18517	-2e-05	-5e-05	-4e-05	0.00024	0.00043	-2e-05	-5e-05	-4e-05	4
18518	-2e-05	-5e-05	-4e-05	0.00024	0.00043	-2e-05	-5e-05	-4e-05	4
18519	-2e-05	-5e-05	-4e-05	0.00024	0.00043	-2e-05	-5e-05	-4e-05	4
18520	-2e-05	-5e-05	-4e-05	0.00024	0.00043	-2e-05	-5e-05	-4e-05	4
18521	-2e-05	-5e-05	-4e-05	0.00024	0.00043	-2e-05	-5e-05	-4e-05	4
18522	-2e-05	-5e-05	-4e-05	0.00024	0.00043	-2e-05	-5e-05	-4e-05	4
18523	-2e-05	-5e-05	-4e-05	0.00024	0.00043	-2e-05	-5e-05	-4e-05	4
18524	-2e-05	-5e-05	-4e-05	0.00024	0.00043	-2e-05	-5e-05	-4e-05	4
18525	-2e-05	-5e-05	-4e-05	0.00024	0.00043	-2e-05	-5e-05	-4e-05	4
18526	-2e-05	-5e-05	-4e-05	0.00024	0.00043	-2e-05	-5e-05	-4e-05	4
18527	-2e-05	-5e-05	-4e-05	0.00024	0.00043	-2e-05	-5e-05	-4e-05	4
18528	-2e-05	-5e-05	-4e-05	0.00024	0.00043	-2e-05	-5e-05	-4e-05	4
18529	-2e-05	-5e-05	-4e-05	0.00024	0.00043	-2e-05	-5e-05	-4e-05	4
18530	-2e-05	-5e-05	-4e-05	0.00024	0.00043	-2e-05	-5e-05	-4e-05	4
18531	-2e-05	-5e-05	-4e-05	0.00024	0.00043	-2e-05	-5e-05	-4e-05	4
18532	-2e-05	-5e-05	-4e-05	0.00024	0.00043	-2e-05	-5e-05	-4e-05	4
18533	-1e-05	-6e-05	-0.00027	-0.00063	0.00035	0.00012	-1e-05	-2e-05	4
18534	-5e-05	-0.00011	-0.00037	-0.00096	0.00012	-0.00058	-1e-05	-3e-05	4
18535	-5e-05	-0.00011	-0.00037	-0.00096	0.00012	-0.00058	-1e-05	-3e-05	4
18536	-5e-05	-0.00011	-0.00037	-0.00096	0.00012	-0.00058	-1e-05	-3e-05	4
18538	-5e-05	-0.00011	-0.00037	-0.00096	0.00012	-0.00058	-1e-05	-3e-05	4
18539	-5e-05	-0.00011	-0.00037	-0.00096	0.00012	-0.00058	-1e-05	-3e-05	4
18540	-5e-05	-0.00011	-0.00037	-0.00096	0.00012	-0.00058	-1e-05	-3e-05	4
18541	-5e-05	-0.00011	-0.00037	-0.00096	0.00012	-0.00058	-1e-05	-3e-05	4
18542	-5e-05	-0.00011	-0.00037	-0.00096	0.00012	-0.00058	-1e-05	-3e-05	4
18543	-5e-05	-0.00011	-0.00037	-0.00096	0.00012	-0.00058	-1e-05	-3e-05	4
18544	-5e-05	-0.00011	-0.00037	-0.00096	0.00012	-0.00058	-1e-05	-3e-05	4
18545	-5e-05	-0.00011	-0.00037	-0.00096	0.00012	-0.00058	-1e-05	-3e-05	4
18546	-5e-05	-0.00011	-0.00037	-0.00096	0.00012	-0.00058	-1e-05	-3e-05	4
18547	-5e-05	-8e-05	-0.0001	0.00024	0.00099	0	-9e-05	-6e-05	4
18548	-5e-05	-8e-05	-0.0001	0.00024	0.00099	0	-9e-05	-6e-05	4
18549	-5e-05	-8e-05	-0.0001	0.00024	0.00099	0	-9e-05	-6e-05	4
18550	-5e-05	-8e-05	-0.0001	0.00024	0.00099	0	-9e-05	-6e-05	4
18551	-5e-05	-8e-05	-0.0001	0.00024	0.00099	0	-9e-05	-6e-05	4
18552	-5e-05	-8e-05	-0.0001	0.00024	0.00099	0	-9e-05	-6e-05	4
18553	2e-05	3e-05	0	-0.00028	-0.00031	0.0001	0.0001	3e-05	4
18554	-3e-05	-6e-05	-3e-05	5e-05	0.00081	0.00069	-2e-05	-4e-05	4
18555	-3e-05	-6e-05	-3e-05	5e-05	0.00081	0.00069	-2e-05	-4e-05	4
18556	-3e-05	-6e-05	-3e-05	5e-05	0.00081	0.00069	-2e-05	-4e-05	4
18557	-3e-05	-6e-05	-3e-05	5e-05	0.00081	0.00069	-2e-05	-4e-05	4
18558	-3e-05	-6e-05	-3e-05	5e-05	0.00081	0.00069	-2e-05	-4e-05	4
18559	-3e-05	-6e-05	-3e-05	5e-05	0.00081	0.00069	-2e-05	-4e-05	4
18560	-3e-05	-6e-05	-3e-05	5e-05	0.00081	0.00069	-2e-05	-4e-05	4
18561	-3e-05	-6e-05	-3e-05	5e-05	0.00081	0.00069	-2e-05	-4e-05	4
18562	-3e-05	-6e-05	-3e-05	5e-05	0.00081	0.00069	-2e-05	-4e-05	4
18563	-3e-05	-6e-05	-3e-05	5e-05	0.00081	0.00069	-2e-05	-4e-05	4
18564	-3e-05	-6e-05	-3e-05	5e-05	0.00081	0.00069	-2e-05	-4e-05	4
18565	-3e-05	-6e-05	-3e-05	5e-05	0.00081	0.00069	-2e-05	-4e-05	4
18566	-3e-05	-6e-05	-3e-05	5e-05	0.00081	0.00069	-2e-05	-4e-05	4
18567	-3e-05	-6e-05	-3e-05	5e-05	0.00081	0.00069	-2e-05	-4e-05	4
18568	-3e-05	-6e-05	-3e-05	5e-05	0.00081	0.00069	-2e-05	-4e-05	4
18569	-3e-05	-6e-05	-3e-05	5e-05	0.00081	0.00069	-2e-05	-4e-05	4
18570	-3e-05	-6e-05	-3e-05	5e-05	0.00081	0.00069	-2e-05	-4e-05	4
18571	-3e-05	-6e-05	-3e-05	5e-05	0.00081	0.00069	-2e-05	-4e-05	4
18572	-3e-05	-6e-05	-3e-05	5e-05	0.00081	0.00069	-2e-05	-4e-05	4
18573	-3e-05	-6e-05	-3e-05	5e-05	0.00081	0.00069	-2e-05	-4e-05	4
18574	-3e-05	-6e-05	-3e-05	5e-05	0.00081	0.00069	-2e-05	-4e-05	4
18575	-3e-05	-6e-05	-3e-05	5e-05	0.00081	0.00069	-2e-05	-4e-05	4
18576	-3e-05	-6e-05	-3e-05	5e-05	0.00081	0.00069	-2e-05	-4e-05	4
18577	1e-05	7e-05	0.00042	0.00091	-0.00061	0.00031	-5e-05	-1e-05	4
18578	-6e-05	-0.00023	-0.00076	-0.00112	0.00082	-0.00048	0	-2e-05	4
18579	-4e-05	-7e-05	-0.00014	0.00021	-0.0008	-0.00062	-3e-05	-4e-05	4
18580	-4e-05	-7e-05	-0.00014	0.00021	-0.0008	-0.00062	-3e-05	-4e-05	4
18581	-4e-05	-7e-05	-0.00014	0.00021	-0.0008	-0.00062	-3e-05	-4e-05	4
18582	-4e-05	-7e-05	-0.00014	0.00021	-0.0008	-0.00062	-3e-05	-4e-05	4
18583	-4e-05	-7e-05	-0.00014	0.00021	-0.0008	-0.00062	-3e-05	-4e-05	4
18584	-4e-05	-7e-05	-0.00014	0.00021	-0.0008	-0.00062	-3e-05	-4e-05	4
18585	-4e-05	-7e-05	-0.00014	0.00021	-0.0008	-0.00062	-3e-05	-4e-05	4
18586	-4e-05	-7e-05	-0.00014	0.00021	-0.0008	-0.00062	-3e-05	-4e-05	4
18588	-4e-05	-7e-05	-0.00014	0.00021	-0.0008	-0.00062	-3e-05	-4e-05	4
18589	-4e-05	-7e-05	-0.00014	0.00021	-0.0008	-0.00062	-3e-05	-4e-05	4
18590	-4e-05	-7e-05	-0.00014	0.00021	-0.0008	-0.00062	-3e-05	-4e-05	4
18591	-4e-05	-7e-05	-0.00014	0.00021	-0.0008	-0.00062	-3e-05	-4e-05	4
18592	-8e-05	-9e-05	-0.00027	-0.00064	-0.00018	-0.00069	-0.00024	-8e-05	4
18593	6e-05	0.0001	0.0002	0.00027	0.00088	0.0004	0.00027	0.0001	4
18594	1e-05	6e-05	0.00017	-0.00016	-0.00047	-0.00098	-0.0001	0	4
18595	1e-05	6e-05	0.00017	-0.00016	-0.00047	-0.00098	-0.0001	0	4
18596	1e-05	6e-05	0.00017	-0.00016	-0.00047	-0.00098	-0.0001	0	4
18597	1e-05	6e-05	0.00017	-0.00016	-0.00047	-0.00098	-0.0001	0	4
18598	1e-05	6e-05	0.00017	-0.00016	-0.00047	-0.00098	-0.0001	0	4
18599	1e-05	6e-05	0.00017	-0.00016	-0.00047	-0.00098	-0.0001	0	4
18600	1e-05	6e-05	0.00017	-0.00016	-0.00047	-0.00098	-0.0001	0	4
18601	1e-05	6e-05	0.00017	-0.00016	-0.00047	-0.00098	-0.0001	0	4
18602	1e-05	6e-05	0.00017	-0.00016	-0.00047	-0.00098	-0.0001	0	4
18603	1e-05	6e-05	0.00017	-0.00016	-0.00047	-0.00098	-0.0001	0	4
18604	1e-05	6e-05	0.00017	-0.00016	-0.00047	-0.00098	-0.0001	0	4
18605	1e-05	6e-05	0.00017	-0.00016	-0.00047	-0.00098	-0.0001	0	4
18606	1e-05	6e-05	0.00017	-0.00016	-0.00047	-0.00098	-0.0001	0	4
18607	-5e-05	-5e-05	8e-05	0.00025	0.00067	-0.00056	-0.00022	-7e-05	4
18608	-5e-05	-5e-05	8e-05	0.00025	0.00067	-0.00056	-0.00022	-7e-05	4
18609	-5e-05	-5e-05	8e-05	0.00025	0.00067	-0.00056	-0.00022	-7e-05	4
18610	-5e-05	-5e-05	8e-05	0.00025	0.00067	-0.00056	-0.00022	-7e-05	4
18611	-5e-05	-5e-05	8e-05	0.00025	0.00067	-0.00056	-0.00022	-7e-05	4
18612	-5e-05	-5e-05	8e-05	0.00025	0.00067	-0.00056	-0.00022	-7e-05	4
18613	-5e-05	-5e-05	8e-05	0.00025	0.00067	-0.00056	-0.00022	-7e-05	4
18614	6e-05	0.00011	0.00027	0.00067	-0.00076	5e-05	0.00011	4e-05	4
18615	6e-05	0.00011	0.00027	0.00067	-0.00076	5e-05	0.00011	4e-05	4
18616	6e-05	0.00011	0.00027	0.00067	-0.00076	5e-05	0.00011	4e-05	4
18617	6e-05	0.00011	0.00027	0.00067	-0.00076	5e-05	0.00011	4e-05	4
18618	6e-05	0.00011	0.00027	0.00067	-0.00076	5e-05	0.00011	4e-05	4
18619	6e-05	0.00011	0.00027	0.00067	-0.00076	5e-05	0.00011	4e-05	4
18620	6e-05	0.00011	0.00027	0.00067	-0.00076	5e-05	0.00011	4e-05	4
18621	6e-05	0.00011	0.00027	0.00067	-0.00076	5e-05	0.00011	4e-05	4
18622	6e-05	0.00011	0.00027	0.00067	-0.00076	5e-05	0.00011	4e-05	4
18623	6e-05	0.00011	0.00027	0.00067	-0.00076	5e-05	0.00011	4e-05	4
18624	6e-05	0.00011	0.00027	0.00067	-0.00076	5e-05	0.00011	4e-05	4
18625	6e-05	0.00011	0.00027	0.00067	-0.00076	5e-05	0.00011	4e-05	4
18626	6e-05	0.00011	0.00027	0.00067	-0.00076	5e-05	0.00011	4e-05	4
18627	6e-05	0.00011	0.00027	0.00067	-0.00076	5e-05	0.00011	4e-05	4
18628	6e-05	0.00011	0.00027	0.00067	-0.00076	5e-05	0.00011	4e-05	4
18629	6e-05	0.00011	0.00027	0.00067	-0.00076	5e-05	0.00011	4e-05	4
18630	-3e-05	-0.0001	-0.00039	-0.00069	0.00064	-0.0003	-0.0001	-4e-05	4
18631	-3e-05	-0.0001	-0.00039	-0.00069	0.00064	-0.0003	-0.0001	-4e-05	4
18632	4e-05	9e-05	0.00026	0.00075	-0.00032	-0.00055	5e-05	7e-05	4
18633	4e-05	9e-05	0.00026	0.00075	-0.00032	-0.00055	5e-05	7e-05	4
18634	4e-05	9e-05	0.00026	0.00075	-0.00032	-0.00055	5e-05	7e-05	4
18635	4e-05	9e-05	0.00026	0.00075	-0.00032	-0.00055	5e-05	7e-05	4
18636	4e-05	9e-05	0.00026	0.00075	-0.00032	-0.00055	5e-05	7e-05	4
18638	4e-05	9e-05	0.00026	0.00075	-0.00032	-0.00055	5e-05	7e-05	4
18639	4e-05	9e-05	0.00026	0.00075	-0.00032	-0.00055	5e-05	7e-05	4
18640	4e-05	9e-05	0.00026	0.00075	-0.00032	-0.00055	5e-05	7e-05	4
18641	4e-05	9e-05	0.00026	0.00075	-0.00032	-0.00055	5e-05	7e-05	4
18642	4e-05	9e-05	0.00026	0.00075	-0.00032	-0.00055	5e-05	7e-05	4
18643	4e-05	9e-05	0.00026	0.00075	-0.00032	-0.00055	5e-05	7e-05	4
18644	4e-05	9e-05	0.00026	0.00075	-0.00032	-0.00055	5e-05	7e-05	4
18645	4e-05	9e-05	0.00026	0.00075	-0.00032	-0.00055	5e-05	7e-05	4
18646	4e-05	9e-05	0.00026	0.00075	-0.00032	-0.00055	5e-05	7e-05	4
18647	4e-05	9e-05	0.00026	0.00075	-0.00032	-0.00055	5e-05	7e-05	4
18648	4e-05	9e-05	0.00026	0.00075	-0.00032	-0.00055	5e-05	7e-05	4
18649	4e-05	9e-05	0.00026	0.00075	-0.00032	-0.00055	5e-05	7e-05	4
18650	4e-05	9e-05	0.00026	0.00075	-0.00032	-0.00055	5e-05	7e-05	4
18651	4e-05	9e-05	0.00026	0.00075	-0.00032	-0.00055	5e-05	7e-05	4
18652	0	5e-05	0.00014	0.00024	-0.00105	-0.00064	-3e-05	-1e-05	4
18653	-1e-05	2e-05	0.00011	3e-05	-0.00039	-4e-05	-3e-05	-3e-05	4
18654	-1e-05	-8e-05	-0.00028	-0.00124	0.00013	0.00053	-2e-05	-1e-05	4
18656	-1e-05	-8e-05	-0.00028	-0.00124	0.00013	0.00053	-2e-05	-1e-05	4
18657	-1e-05	-8e-05	-0.00028	-0.00124	0.00013	0.00053	-2e-05	-1e-05	4
18658	-1e-05	-8e-05	-0.00028	-0.00124	0.00013	0.00053	-2e-05	-1e-05	4
18659	-1e-05	-8e-05	-0.00028	-0.00124	0.00013	0.00053	-2e-05	-1e-05	4
18660	-1e-05	-8e-05	-0.00028	-0.00124	0.00013	0.00053	-2e-05	-1e-05	4
18661	-1e-05	-8e-05	-0.00028	-0.00124	0.00013	0.00053	-2e-05	-1e-05	4
18662	-1e-05	-8e-05	-0.00028	-0.00124	0.00013	0.00053	-2e-05	-1e-05	4
18663	-1e-05	-8e-05	-0.00028	-0.00124	0.00013	0.00053	-2e-05	-1e-05	4
18664	-1e-05	-8e-05	-0.00028	-0.00124	0.00013	0.00053	-2e-05	-1e-05	4
18665	-1e-05	-8e-05	-0.00028	-0.00124	0.00013	0.00053	-2e-05	-1e-05	4
18666	2e-05	0.0001	0.00033	0.00075	-0.00041	-0.00017	-0.0001	0	4
18667	2e-05	0.0001	0.00033	0.00075	-0.00041	-0.00017	-0.0001	0	4
18668	2e-05	0.0001	0.00033	0.00075	-0.00041	-0.00017	-0.0001	0	4
18669	2e-05	0.0001	0.00033	0.00075	-0.00041	-0.00017	-0.0001	0	4
18670	2e-05	0.0001	0.00033	0.00075	-0.00041	-0.00017	-0.0001	0	4
18671	2e-05	0.0001	0.00033	0.00075	-0.00041	-0.00017	-0.0001	0	4
18672	2e-05	0.0001	0.00033	0.00075	-0.00041	-0.00017	-0.0001	0	4
18673	2e-05	0.0001	0.00033	0.00075	-0.00041	-0.00017	-0.0001	0	4
18674	2e-05	0.0001	0.00033	0.00075	-0.00041	-0.00017	-0.0001	0	4
18675	-3e-05	-4e-05	0.0001	0.0001	0.00056	0.00085	6e-05	2e-05	4
18676	-3e-05	-4e-05	0.0001	0.0001	0.00056	0.00085	6e-05	2e-05	4
18677	-3e-05	-4e-05	0.0001	0.0001	0.00056	0.00085	6e-05	2e-05	4
18678	-3e-05	-4e-05	0.0001	0.0001	0.00056	0.00085	6e-05	2e-05	4
18679	-3e-05	-4e-05	0.0001	0.0001	0.00056	0.00085	6e-05	2e-05	4
18680	-3e-05	-4e-05	0.0001	0.0001	0.00056	0.00085	6e-05	2e-05	4
18681	-3e-05	-4e-05	0.0001	0.0001	0.00056	0.00085	6e-05	2e-05	4
18682	-3e-05	-4e-05	0.0001	0.0001	0.00056	0.00085	6e-05	2e-05	4
18683	-3e-05	-4e-05	0.0001	0.0001	0.00056	0.00085	6e-05	2e-05	4
18684	-3e-05	-4e-05	0.0001	0.0001	0.00056	0.00085	6e-05	2e-05	4
18685	-3e-05	-4e-05	0.0001	0.0001	0.00056	0.00085	6e-05	2e-05	4
18686	-3e-05	-4e-05	0.0001	0.0001	0.00056	0.00085	6e-05	2e-05	4
18688	-3e-05	-4e-05	0.0001	0.0001	0.00056	0.00085	6e-05	2e-05	4
18689	-3e-05	-4e-05	0.0001	0.0001	0.00056	0.00085	6e-05	2e-05	4
18690	5e-05	0.00011	0.00032	0.00064	-0.00128	-0.00015	2e-05	4e-05	4
18691	-0.00013	-0.00024	-0.00069	-0.00085	-0.00043	0.00056	-0.00013	-0.00012	4
18692	-3e-05	-1e-05	-9e-05	-2e-05	-0.00024	-7e-05	-1e-05	-3e-05	4
18693	-3e-05	-1e-05	-9e-05	-2e-05	-0.00024	-7e-05	-1e-05	-3e-05	4
18694	-3e-05	-1e-05	-9e-05	-2e-05	-0.00024	-7e-05	-1e-05	-3e-05	4
18695	-3e-05	-1e-05	-9e-05	-2e-05	-0.00024	-7e-05	-1e-05	-3e-05	4
18696	-3e-05	-1e-05	-9e-05	-2e-05	-0.00024	-7e-05	-1e-05	-3e-05	4
18697	-3e-05	-1e-05	-9e-05	-2e-05	-0.00024	-7e-05	-1e-05	-3e-05	4
18698	-3e-05	-1e-05	-9e-05	-2e-05	-0.00024	-7e-05	-1e-05	-3e-05	4
18699	-3e-05	-1e-05	-9e-05	-2e-05	-0.00024	-7e-05	-1e-05	-3e-05	4
18700	-3e-05	-1e-05	-9e-05	-2e-05	-0.00024	-7e-05	-1e-05	-3e-05	4
18701	-3e-05	-1e-05	-9e-05	-2e-05	-0.00024	-7e-05	-1e-05	-3e-05	4
18702	-3e-05	-1e-05	-9e-05	-2e-05	-0.00024	-7e-05	-1e-05	-3e-05	4
18703	-3e-05	-1e-05	-9e-05	-2e-05	-0.00024	-7e-05	-1e-05	-3e-05	4
18704	-3e-05	-1e-05	-9e-05	-2e-05	-0.00024	-7e-05	-1e-05	-3e-05	4
18705	-3e-05	-1e-05	-9e-05	-2e-05	-0.00024	-7e-05	-1e-05	-3e-05	4
18706	-3e-05	-1e-05	-9e-05	-2e-05	-0.00024	-7e-05	-1e-05	-3e-05	4
18707	-3e-05	-1e-05	-9e-05	-2e-05	-0.00024	-7e-05	-1e-05	-3e-05	4
18708	-3e-05	-1e-05	-9e-05	-2e-05	-0.00024	-7e-05	-1e-05	-3e-05	4
18709	-3e-05	-1e-05	-9e-05	-2e-05	-0.00024	-7e-05	-1e-05	-3e-05	4
18710	-3e-05	-1e-05	-9e-05	-2e-05	-0.00024	-7e-05	-1e-05	-3e-05	4
18711	-3e-05	-1e-05	-9e-05	-2e-05	-0.00024	-7e-05	-1e-05	-3e-05	4
18712	-3e-05	-1e-05	-9e-05	-2e-05	-0.00024	-7e-05	-1e-05	-3e-05	4
18713	-3e-05	-1e-05	-9e-05	-2e-05	-0.00024	-7e-05	-1e-05	-3e-05	4
18714	-3e-05	-1e-05	-9e-05	-2e-05	-0.00024	-7e-05	-1e-05	-3e-05	4
18715	-3e-05	-1e-05	-9e-05	-2e-05	-0.00024	-7e-05	-1e-05	-3e-05	4
18716	-3e-05	-1e-05	-9e-05	-2e-05	-0.00024	-7e-05	-1e-05	-3e-05	4
18717	-3e-05	-1e-05	-9e-05	-2e-05	-0.00024	-7e-05	-1e-05	-3e-05	4
18718	-3e-05	-1e-05	-9e-05	-2e-05	-0.00024	-7e-05	-1e-05	-3e-05	4
18719	-3e-05	-1e-05	-9e-05	-2e-05	-0.00024	-7e-05	-1e-05	-3e-05	4
18720	6e-05	0.00011	0.00028	0.00029	-0.00079	0.00073	0.00012	6e-05	4
18721	-6e-05	-0.00013	-0.00021	-0.00052	0.00012	0.00016	3e-05	-2e-05	4
18722	-7e-05	-9e-05	-0.00018	-0.00046	0.00015	-0.0005	-9e-05	-7e-05	4
18723	-7e-05	-9e-05	-0.00018	-0.00046	0.00015	-0.0005	-9e-05	-7e-05	4
18724	-7e-05	-9e-05	-0.00018	-0.00046	0.00015	-0.0005	-9e-05	-7e-05	4
18725	-7e-05	-9e-05	-0.00018	-0.00046	0.00015	-0.0005	-9e-05	-7e-05	4
18726	-2e-05	-2e-05	0.00013	0.00028	-0.00031	0.00023	0.00013	-3e-05	4
18727	-2e-05	-2e-05	0.00013	0.00028	-0.00031	0.00023	0.00013	-3e-05	4
18728	-2e-05	-2e-05	0.00013	0.00028	-0.00031	0.00023	0.00013	-3e-05	4
18729	-2e-05	-2e-05	0.00013	0.00028	-0.00031	0.00023	0.00013	-3e-05	4
18730	-2e-05	-2e-05	0.00013	0.00028	-0.00031	0.00023	0.00013	-3e-05	4
18731	-2e-05	-2e-05	0.00013	0.00028	-0.00031	0.00023	0.00013	-3e-05	4
18732	-2e-05	-2e-05	0.00013	0.00028	-0.00031	0.00023	0.00013	-3e-05	4
18733	-2e-05	-2e-05	0.00013	0.00028	-0.00031	0.00023	0.00013	-3e-05	4
18734	-2e-05	-2e-05	0.00013	0.00028	-0.00031	0.00023	0.00013	-3e-05	4
18735	3e-05	0	-2e-05	0.00013	0.00056	-1e-05	1e-05	4e-05	4
18736	3e-05	0	-2e-05	0.00013	0.00056	-1e-05	1e-05	4e-05	4
18738	3e-05	0	-2e-05	0.00013	0.00056	-1e-05	1e-05	4e-05	4
18739	3e-05	0	-2e-05	0.00013	0.00056	-1e-05	1e-05	4e-05	4
18740	3e-05	0	-2e-05	0.00013	0.00056	-1e-05	1e-05	4e-05	4
18741	3e-05	0	-2e-05	0.00013	0.00056	-1e-05	1e-05	4e-05	4
18742	3e-05	0	-2e-05	0.00013	0.00056	-1e-05	1e-05	4e-05	4
18743	3e-05	0	-2e-05	0.00013	0.00056	-1e-05	1e-05	4e-05	4
18744	3e-05	0	-2e-05	0.00013	0.00056	-1e-05	1e-05	4e-05	4
18745	3e-05	0	-2e-05	0.00013	0.00056	-1e-05	1e-05	4e-05	4
18746	3e-05	0	-2e-05	0.00013	0.00056	-1e-05	1e-05	4e-05	4
18747	3e-05	0	-2e-05	0.00013	0.00056	-1e-05	1e-05	4e-05	4
18748	3e-05	0	-2e-05	0.00013	0.00056	-1e-05	1e-05	4e-05	4
18749	3e-05	0	-2e-05	0.00013	0.00056	-1e-05	1e-05	4e-05	4
18750	5e-05	7e-05	6e-05	4e-05	-0.00018	-0.00073	-3e-05	4e-05	4
18751	-2e-05	0	8e-05	6e-05	0.00049	6e-05	4e-05	-1e-05	4
18752	-2e-05	-3e-05	-8e-05	0.00014	0.0004	-0.00051	-1e-05	-3e-05	4
18753	-2e-05	-3e-05	-8e-05	0.00014	0.0004	-0.00051	-1e-05	-3e-05	4
18754	-2e-05	-3e-05	-8e-05	0.00014	0.0004	-0.00051	-1e-05	-3e-05	4
18755	-2e-05	-3e-05	-8e-05	0.00014	0.0004	-0.00051	-1e-05	-3e-05	4
18756	-2e-05	-3e-05	-8e-05	0.00014	0.0004	-0.00051	-1e-05	-3e-05	4
18757	-2e-05	-3e-05	-8e-05	0.00014	0.0004	-0.00051	-1e-05	-3e-05	4
18758	-2e-05	-3e-05	-8e-05	0.00014	0.0004	-0.00051	-1e-05	-3e-05	4
18759	-2e-05	-3e-05	-8e-05	0.00014	0.0004	-0.00051	-1e-05	-3e-05	4
18760	-2e-05	-3e-05	-8e-05	0.00014	0.0004	-0.00051	-1e-05	-3e-05	4
18761	-2e-05	-3e-05	-8e-05	0.00014	0.0004	-0.00051	-1e-05	-3e-05	4
18762	-2e-05	-3e-05	-8e-05	0.00014	0.0004	-0.00051	-1e-05	-3e-05	4
18763	-2e-05	-3e-05	-8e-05	0.00014	0.0004	-0.00051	-1e-05	-3e-05	4
18764	-2e-05	-3e-05	-8e-05	0.00014	0.0004	-0.00051	-1e-05	-3e-05	4
18765	-2e-05	-3e-05	-8e-05	0.00014	0.0004	-0.00051	-1e-05	-3e-05	4
18766	-2e-05	-3e-05	-8e-05	0.00014	0.0004	-0.00051	-1e-05	-3e-05	4
18767	-2e-05	-3e-05	-8e-05	0.00014	0.0004	-0.00051	-1e-05	-3e-05	4
18768	-2e-05	-3e-05	-8e-05	0.00014	0.0004	-0.00051	-1e-05	-3e-05	4
18769	-2e-05	-3e-05	-8e-05	0.00014	0.0004	-0.00051	-1e-05	-3e-05	4
18770	-2e-05	-3e-05	-8e-05	0.00014	0.0004	-0.00051	-1e-05	-3e-05	4
18771	-2e-05	-3e-05	-8e-05	0.00014	0.0004	-0.00051	-1e-05	-3e-05	4
18772	-0.0002	-0.00041	-0.00073	-0.00097	0.00012	-0.00095	-0.00029	-0.00016	4
18773	0.00026	0.00046	0.00087	0.00127	0.00074	-0.00097	0.00024	0.00023	4
18774	-7e-05	-0.00013	-0.00044	-0.00067	-0.00062	2e-05	-0.00011	-6e-05	4
18775	-7e-05	-0.00013	-0.00044	-0.00067	-0.00062	2e-05	-0.00011	-6e-05	4
18776	-7e-05	-0.00013	-0.00044	-0.00067	-0.00062	2e-05	-0.00011	-6e-05	4
18777	-7e-05	-0.00013	-0.00044	-0.00067	-0.00062	2e-05	-0.00011	-6e-05	4
18778	-7e-05	-0.00013	-0.00044	-0.00067	-0.00062	2e-05	-0.00011	-6e-05	4
18779	-7e-05	-0.00013	-0.00044	-0.00067	-0.00062	2e-05	-0.00011	-6e-05	4
18780	-7e-05	-0.00013	-0.00044	-0.00067	-0.00062	2e-05	-0.00011	-6e-05	4
18781	-7e-05	-0.00013	-0.00044	-0.00067	-0.00062	2e-05	-0.00011	-6e-05	4
18782	-7e-05	-0.00013	-0.00044	-0.00067	-0.00062	2e-05	-0.00011	-6e-05	4
18783	-7e-05	-0.00013	-0.00044	-0.00067	-0.00062	2e-05	-0.00011	-6e-05	4
18784	-7e-05	-0.00013	-0.00044	-0.00067	-0.00062	2e-05	-0.00011	-6e-05	4
18785	-7e-05	-0.00013	-0.00044	-0.00067	-0.00062	2e-05	-0.00011	-6e-05	4
18786	-0.0001	-0.00019	-0.00019	-0.00024	-0.00015	0	-0.00013	-0.00015	4
18788	-0.0001	-0.00019	-0.00019	-0.00024	-0.00015	0	-0.00013	-0.00015	4
18789	-0.0001	-0.00019	-0.00019	-0.00024	-0.00015	0	-0.00013	-0.00015	4
18790	-0.0001	-0.00019	-0.00019	-0.00024	-0.00015	0	-0.00013	-0.00015	4
18791	-0.0001	-0.00019	-0.00019	-0.00024	-0.00015	0	-0.00013	-0.00015	4
18792	-0.0001	-0.00019	-0.00019	-0.00024	-0.00015	0	-0.00013	-0.00015	4
18793	-0.0001	-0.00019	-0.00019	-0.00024	-0.00015	0	-0.00013	-0.00015	4
18794	-0.0001	-0.00019	-0.00019	-0.00024	-0.00015	0	-0.00013	-0.00015	4
18795	1e-05	7e-05	0.00034	0.00098	-0.00051	-0.00079	-0.00015	-6e-05	4
18796	1e-05	7e-05	0.00034	0.00098	-0.00051	-0.00079	-0.00015	-6e-05	4
18797	1e-05	7e-05	0.00034	0.00098	-0.00051	-0.00079	-0.00015	-6e-05	4
18798	1e-05	7e-05	0.00034	0.00098	-0.00051	-0.00079	-0.00015	-6e-05	4
18799	1e-05	7e-05	0.00034	0.00098	-0.00051	-0.00079	-0.00015	-6e-05	4
18800	1e-05	7e-05	0.00034	0.00098	-0.00051	-0.00079	-0.00015	-6e-05	4
18801	1e-05	7e-05	0.00034	0.00098	-0.00051	-0.00079	-0.00015	-6e-05	4
18802	1e-05	7e-05	0.00034	0.00098	-0.00051	-0.00079	-0.00015	-6e-05	4
18803	1e-05	7e-05	0.00034	0.00098	-0.00051	-0.00079	-0.00015	-6e-05	4
18804	1e-05	7e-05	0.00034	0.00098	-0.00051	-0.00079	-0.00015	-6e-05	4
18805	1e-05	7e-05	0.00034	0.00098	-0.00051	-0.00079	-0.00015	-6e-05	4
18806	1e-05	7e-05	0.00034	0.00098	-0.00051	-0.00079	-0.00015	-6e-05	4
18807	1e-05	7e-05	0.00034	0.00098	-0.00051	-0.00079	-0.00015	-6e-05	4
18808	1e-05	7e-05	0.00034	0.00098	-0.00051	-0.00079	-0.00015	-6e-05	4
18809	1e-05	7e-05	0.00034	0.00098	-0.00051	-0.00079	-0.00015	-6e-05	4
18810	-0.00011	-0.00025	-0.00063	-0.00027	0.00027	0.00098	-3e-05	-7e-05	4
18811	9e-05	6e-05	-0.00044	-0.00029	-0.00011	-0.00031	8e-05	0.0001	4
18812	-8e-05	-3e-05	9e-05	0.00035	0.00073	0.00047	-4e-05	-9e-05	4
18813	-8e-05	-3e-05	9e-05	0.00035	0.00073	0.00047	-4e-05	-9e-05	4
18814	-8e-05	-3e-05	9e-05	0.00035	0.00073	0.00047	-4e-05	-9e-05	4
18815	-8e-05	-3e-05	9e-05	0.00035	0.00073	0.00047	-4e-05	-9e-05	4
18816	-8e-05	-3e-05	9e-05	0.00035	0.00073	0.00047	-4e-05	-9e-05	4
18817	-8e-05	-3e-05	9e-05	0.00035	0.00073	0.00047	-4e-05	-9e-05	4
18818	-8e-05	-3e-05	9e-05	0.00035	0.00073	0.00047	-4e-05	-9e-05	4
18819	-8e-05	-3e-05	9e-05	0.00035	0.00073	0.00047	-4e-05	-9e-05	4
18820	-8e-05	-3e-05	9e-05	0.00035	0.00073	0.00047	-4e-05	-9e-05	4
18821	-8e-05	-3e-05	9e-05	0.00035	0.00073	0.00047	-4e-05	-9e-05	4
18822	-8e-05	-3e-05	9e-05	0.00035	0.00073	0.00047	-4e-05	-9e-05	4
18823	-8e-05	-3e-05	9e-05	0.00035	0.00073	0.00047	-4e-05	-9e-05	4
18824	-8e-05	-3e-05	9e-05	0.00035	0.00073	0.00047	-4e-05	-9e-05	4
18825	-8e-05	-3e-05	9e-05	0.00035	0.00073	0.00047	-4e-05	-9e-05	4
18826	-8e-05	-3e-05	9e-05	0.00035	0.00073	0.00047	-4e-05	-9e-05	4
18827	-8e-05	-3e-05	9e-05	0.00035	0.00073	0.00047	-4e-05	-9e-05	4
18828	-8e-05	-3e-05	9e-05	0.00035	0.00073	0.00047	-4e-05	-9e-05	4
18829	-8e-05	-3e-05	9e-05	0.00035	0.00073	0.00047	-4e-05	-9e-05	4
18830	-8e-05	-3e-05	9e-05	0.00035	0.00073	0.00047	-4e-05	-9e-05	4
18831	-8e-05	-3e-05	9e-05	0.00035	0.00073	0.00047	-4e-05	-9e-05	4
18832	2e-05	2e-05	-7e-05	-0.00012	-0.00035	-0.0002	7e-05	2e-05	4
18833	-5e-05	-4e-05	9e-05	-0.00014	-0.00128	-0.00074	-0.00023	-5e-05	4
18834	-2e-05	-6e-05	2e-05	-6e-05	0.00017	-0.00037	-5e-05	0	4
18835	-2e-05	-6e-05	2e-05	-6e-05	0.00017	-0.00037	-5e-05	0	4
18836	-2e-05	-6e-05	2e-05	-6e-05	0.00017	-0.00037	-5e-05	0	4
18838	-2e-05	-6e-05	2e-05	-6e-05	0.00017	-0.00037	-5e-05	0	4
18839	-2e-05	-6e-05	2e-05	-6e-05	0.00017	-0.00037	-5e-05	0	4
18840	-2e-05	-6e-05	2e-05	-6e-05	0.00017	-0.00037	-5e-05	0	4
18841	-2e-05	-6e-05	2e-05	-6e-05	0.00017	-0.00037	-5e-05	0	4
18842	-2e-05	-6e-05	2e-05	-6e-05	0.00017	-0.00037	-5e-05	0	4
18843	-2e-05	-6e-05	2e-05	-6e-05	0.00017	-0.00037	-5e-05	0	4
18844	-2e-05	-6e-05	2e-05	-6e-05	0.00017	-0.00037	-5e-05	0	4
18845	-2e-05	-6e-05	2e-05	-6e-05	0.00017	-0.00037	-5e-05	0	4
18846	-2e-05	-6e-05	2e-05	-6e-05	0.00017	-0.00037	-5e-05	0	4
18847	-2e-05	-6e-05	2e-05	-6e-05	0.00017	-0.00037	-5e-05	0	4
18848	-2e-05	-6e-05	2e-05	-6e-05	0.00017	-0.00037	-5e-05	0	4
18849	-2e-05	-6e-05	2e-05	-6e-05	0.00017	-0.00037	-5e-05	0	4
18850	-2e-05	-6e-05	2e-05	-6e-05	0.00017	-0.00037	-5e-05	0	4
18851	-2e-05	-6e-05	2e-05	-6e-05	0.00017	-0.00037	-5e-05	0	4
18852	-2e-05	-6e-05	2e-05	-6e-05	0.00017	-0.00037	-5e-05	0	4
18853	-2e-05	-6e-05	2e-05	-6e-05	0.00017	-0.00037	-5e-05	0	4
18854	-2e-05	-6e-05	2e-05	-6e-05	0.00017	-0.00037	-5e-05	0	4
18855	-8e-05	-5e-05	3e-05	-1e-05	0.00082	-0.00015	-0.00015	-0.0001	4
18856	-3e-05	-9e-05	-2e-05	0.0007	0.00043	-4e-05	-2e-05	0	4
18857	2e-05	-7e-05	-0.00033	-0.00062	6e-05	0.00051	3e-05	5e-05	4
18858	2e-05	-7e-05	-0.00033	-0.00062	6e-05	0.00051	3e-05	5e-05	4
18859	2e-05	-7e-05	-0.00033	-0.00062	6e-05	0.00051	3e-05	5e-05	4
18860	2e-05	-7e-05	-0.00033	-0.00062	6e-05	0.00051	3e-05	5e-05	4
18861	2e-05	-7e-05	-0.00033	-0.00062	6e-05	0.00051	3e-05	5e-05	4
18862	2e-05	-7e-05	-0.00033	-0.00062	6e-05	0.00051	3e-05	5e-05	4
18863	2e-05	-7e-05	-0.00033	-0.00062	6e-05	0.00051	3e-05	5e-05	4
18864	2e-05	-7e-05	-0.00033	-0.00062	6e-05	0.00051	3e-05	5e-05	4
18865	2e-05	-7e-05	-0.00033	-0.00062	6e-05	0.00051	3e-05	5e-05	4
18866	2e-05	-7e-05	-0.00033	-0.00062	6e-05	0.00051	3e-05	5e-05	4
18867	2e-05	-7e-05	-0.00033	-0.00062	6e-05	0.00051	3e-05	5e-05	4
18868	2e-05	-7e-05	-0.00033	-0.00062	6e-05	0.00051	3e-05	5e-05	4
18869	2e-05	-7e-05	-0.00033	-0.00062	6e-05	0.00051	3e-05	5e-05	4
18870	-3e-05	-8e-05	-0.00042	-0.00108	-0.00128	0.00019	7e-05	-3e-05	4
18871	-2e-05	-3e-05	3e-05	0.00048	0.00067	0.00013	-6e-05	-2e-05	4
18872	0	5e-05	0.00023	4e-05	-0.00025	-0.00059	-8e-05	0	4
18873	0	5e-05	0.00023	4e-05	-0.00025	-0.00059	-8e-05	0	4
18874	0	5e-05	0.00023	4e-05	-0.00025	-0.00059	-8e-05	0	4
18875	0	5e-05	0.00023	4e-05	-0.00025	-0.00059	-8e-05	0	4
18876	0	5e-05	0.00023	4e-05	-0.00025	-0.00059	-8e-05	0	4
18877	0	5e-05	0.00023	4e-05	-0.00025	-0.00059	-8e-05	0	4
18878	0	5e-05	0.00023	4e-05	-0.00025	-0.00059	-8e-05	0	4
18879	0	5e-05	0.00023	4e-05	-0.00025	-0.00059	-8e-05	0	4
18880	0	5e-05	0.00023	4e-05	-0.00025	-0.00059	-8e-05	0	4
18881	0	5e-05	0.00023	4e-05	-0.00025	-0.00059	-8e-05	0	4
18882	0	5e-05	0.00023	4e-05	-0.00025	-0.00059	-8e-05	0	4
18883	0	5e-05	0.00023	4e-05	-0.00025	-0.00059	-8e-05	0	4
18884	0	5e-05	0.00023	4e-05	-0.00025	-0.00059	-8e-05	0	4
18885	0	5e-05	0.00023	4e-05	-0.00025	-0.00059	-8e-05	0	4
18886	0	5e-05	0.00023	4e-05	-0.00025	-0.00059	-8e-05	0	4
18889	0	5e-05	0.00023	4e-05	-0.00025	-0.00059	-8e-05	0	4
18890	0	5e-05	0.00023	4e-05	-0.00025	-0.00059	-8e-05	0	4
18891	0	5e-05	0.00023	4e-05	-0.00025	-0.00059	-8e-05	0	4
18892	5e-05	6e-05	0.0001	4e-05	-0.00036	0.00024	0.00015	5e-05	4
18893	5e-05	6e-05	0.0001	4e-05	-0.00036	0.00024	0.00015	5e-05	4
18894	-5e-05	-4e-05	-3e-05	-0.00032	-8e-05	-0.00033	-0.00015	-7e-05	4
18895	-5e-05	-4e-05	-3e-05	-0.00032	-8e-05	-0.00033	-0.00015	-7e-05	4
18896	-5e-05	-4e-05	-3e-05	-0.00032	-8e-05	-0.00033	-0.00015	-7e-05	4
18897	-5e-05	-4e-05	-3e-05	-0.00032	-8e-05	-0.00033	-0.00015	-7e-05	4
18898	-5e-05	-4e-05	-3e-05	-0.00032	-8e-05	-0.00033	-0.00015	-7e-05	4
18899	-5e-05	-4e-05	-3e-05	-0.00032	-8e-05	-0.00033	-0.00015	-7e-05	4
18900	-5e-05	-4e-05	-3e-05	-0.00032	-8e-05	-0.00033	-0.00015	-7e-05	4
18901	-5e-05	-4e-05	-3e-05	-0.00032	-8e-05	-0.00033	-0.00015	-7e-05	4
18902	-5e-05	-4e-05	-3e-05	-0.00032	-8e-05	-0.00033	-0.00015	-7e-05	4
18903	-5e-05	-4e-05	-3e-05	-0.00032	-8e-05	-0.00033	-0.00015	-7e-05	4
18904	-5e-05	-4e-05	-3e-05	-0.00032	-8e-05	-0.00033	-0.00015	-7e-05	4
18905	-5e-05	-4e-05	-3e-05	-0.00032	-8e-05	-0.00033	-0.00015	-7e-05	4
18906	-1e-05	-6e-05	-0.00026	-0.00042	0.00077	-6e-05	-7e-05	-2e-05	4
18907	-1e-05	-6e-05	-0.00026	-0.00042	0.00077	-6e-05	-7e-05	-2e-05	4
18908	-1e-05	-6e-05	-0.00026	-0.00042	0.00077	-6e-05	-7e-05	-2e-05	4
18909	-1e-05	-6e-05	-0.00026	-0.00042	0.00077	-6e-05	-7e-05	-2e-05	4
18910	-1e-05	-6e-05	-0.00026	-0.00042	0.00077	-6e-05	-7e-05	-2e-05	4
18911	-1e-05	-6e-05	-0.00026	-0.00042	0.00077	-6e-05	-7e-05	-2e-05	4
18912	-1e-05	-6e-05	-0.00026	-0.00042	0.00077	-6e-05	-7e-05	-2e-05	4
18913	-1e-05	-6e-05	-0.00026	-0.00042	0.00077	-6e-05	-7e-05	-2e-05	4
18914	-1e-05	-6e-05	-0.00026	-0.00042	0.00077	-6e-05	-7e-05	-2e-05	4
18915	-2e-05	1e-05	0.00016	0.0008	8e-05	-0.00022	2e-05	-2e-05	4
18916	-2e-05	1e-05	0.00016	0.0008	8e-05	-0.00022	2e-05	-2e-05	4
18917	-2e-05	1e-05	0.00016	0.0008	8e-05	-0.00022	2e-05	-2e-05	4
18918	-2e-05	1e-05	0.00016	0.0008	8e-05	-0.00022	2e-05	-2e-05	4
18919	-2e-05	1e-05	0.00016	0.0008	8e-05	-0.00022	2e-05	-2e-05	4
18920	-2e-05	1e-05	0.00016	0.0008	8e-05	-0.00022	2e-05	-2e-05	4
18921	-2e-05	1e-05	0.00016	0.0008	8e-05	-0.00022	2e-05	-2e-05	4
18922	-2e-05	1e-05	0.00016	0.0008	8e-05	-0.00022	2e-05	-2e-05	4
18923	-2e-05	1e-05	0.00016	0.0008	8e-05	-0.00022	2e-05	-2e-05	4
18924	-2e-05	1e-05	0.00016	0.0008	8e-05	-0.00022	2e-05	-2e-05	4
18925	-2e-05	1e-05	0.00016	0.0008	8e-05	-0.00022	2e-05	-2e-05	4
18926	-2e-05	1e-05	0.00016	0.0008	8e-05	-0.00022	2e-05	-2e-05	4
18927	-2e-05	1e-05	0.00016	0.0008	8e-05	-0.00022	2e-05	-2e-05	4
18928	-2e-05	1e-05	0.00016	0.0008	8e-05	-0.00022	2e-05	-2e-05	4
18929	-2e-05	1e-05	0.00016	0.0008	8e-05	-0.00022	2e-05	-2e-05	4
18930	5e-05	0.00015	0.00049	0.00066	0.0003	0.00011	0	3e-05	4
18931	-3e-05	-2e-05	5e-05	-0.00042	-0.00095	-0.00075	-4e-05	-3e-05	4
18932	1e-05	-2e-05	-0.00018	-0.00023	-7e-05	0.00016	0.00013	2e-05	4
18933	1e-05	-2e-05	-0.00018	-0.00023	-7e-05	0.00016	0.00013	2e-05	4
18934	1e-05	-2e-05	-0.00018	-0.00023	-7e-05	0.00016	0.00013	2e-05	4
18935	1e-05	-2e-05	-0.00018	-0.00023	-7e-05	0.00016	0.00013	2e-05	4
18936	1e-05	-2e-05	-0.00018	-0.00023	-7e-05	0.00016	0.00013	2e-05	4
18938	1e-05	-2e-05	-0.00018	-0.00023	-7e-05	0.00016	0.00013	2e-05	4
18939	1e-05	-2e-05	-0.00018	-0.00023	-7e-05	0.00016	0.00013	2e-05	4
18940	1e-05	-2e-05	-0.00018	-0.00023	-7e-05	0.00016	0.00013	2e-05	4
18941	1e-05	-2e-05	-0.00018	-0.00023	-7e-05	0.00016	0.00013	2e-05	4
18942	1e-05	-2e-05	-0.00018	-0.00023	-7e-05	0.00016	0.00013	2e-05	4
18943	1e-05	-2e-05	-0.00018	-0.00023	-7e-05	0.00016	0.00013	2e-05	4
18944	1e-05	-2e-05	-0.00018	-0.00023	-7e-05	0.00016	0.00013	2e-05	4
18945	1e-05	-2e-05	-0.00018	-0.00023	-7e-05	0.00016	0.00013	2e-05	4
18946	1e-05	-2e-05	-0.00018	-0.00023	-7e-05	0.00016	0.00013	2e-05	4
18947	1e-05	-2e-05	-0.00018	-0.00023	-7e-05	0.00016	0.00013	2e-05	4
18948	1e-05	-2e-05	-0.00018	-0.00023	-7e-05	0.00016	0.00013	2e-05	4
18949	1e-05	-2e-05	-0.00018	-0.00023	-7e-05	0.00016	0.00013	2e-05	4
18950	1e-05	-2e-05	-0.00018	-0.00023	-7e-05	0.00016	0.00013	2e-05	4
18951	1e-05	-2e-05	-0.00018	-0.00023	-7e-05	0.00016	0.00013	2e-05	4
18952	-3e-05	-6e-05	-3e-05	-0.00049	-0.00114	-0.00071	-8e-05	-1e-05	4
18953	-3e-05	-3e-05	0.00011	0.00066	-0.00048	-0.00021	-7e-05	-3e-05	4
18954	1e-05	1e-05	-0.00016	0.00017	5e-05	0.00068	0.00015	2e-05	4
18955	1e-05	1e-05	-0.00016	0.00017	5e-05	0.00068	0.00015	2e-05	4
18956	1e-05	1e-05	-0.00016	0.00017	5e-05	0.00068	0.00015	2e-05	4
18957	1e-05	1e-05	-0.00016	0.00017	5e-05	0.00068	0.00015	2e-05	4
18958	1e-05	1e-05	-0.00016	0.00017	5e-05	0.00068	0.00015	2e-05	4
18959	1e-05	1e-05	-0.00016	0.00017	5e-05	0.00068	0.00015	2e-05	4
18960	1e-05	1e-05	-0.00016	0.00017	5e-05	0.00068	0.00015	2e-05	4
18961	1e-05	1e-05	-0.00016	0.00017	5e-05	0.00068	0.00015	2e-05	4
18962	1e-05	1e-05	-0.00016	0.00017	5e-05	0.00068	0.00015	2e-05	4
18963	1e-05	1e-05	-0.00016	0.00017	5e-05	0.00068	0.00015	2e-05	4
18964	1e-05	1e-05	-0.00016	0.00017	5e-05	0.00068	0.00015	2e-05	4
18965	1e-05	1e-05	-0.00016	0.00017	5e-05	0.00068	0.00015	2e-05	4
18966	0	0	1e-05	-0.00043	-0.00054	-7e-05	1e-05	0	4
18967	1e-05	4e-05	5e-05	0.00087	-0.00038	-0.00035	8e-05	4e-05	4
18968	1e-05	4e-05	5e-05	0.00087	-0.00038	-0.00035	8e-05	4e-05	4
18969	1e-05	4e-05	5e-05	0.00087	-0.00038	-0.00035	8e-05	4e-05	4
18970	1e-05	4e-05	5e-05	0.00087	-0.00038	-0.00035	8e-05	4e-05	4
18971	1e-05	4e-05	5e-05	0.00087	-0.00038	-0.00035	8e-05	4e-05	4
18972	1e-05	4e-05	5e-05	0.00087	-0.00038	-0.00035	8e-05	4e-05	4
18973	1e-05	4e-05	5e-05	0.00087	-0.00038	-0.00035	8e-05	4e-05	4
18974	1e-05	4e-05	5e-05	0.00087	-0.00038	-0.00035	8e-05	4e-05	4
18975	1e-05	4e-05	0.00013	0.0001	-0.00072	0.00047	6e-05	1e-05	4
18976	1e-05	4e-05	0.00013	0.0001	-0.00072	0.00047	6e-05	1e-05	4
18977	1e-05	4e-05	0.00013	0.0001	-0.00072	0.00047	6e-05	1e-05	4
18978	1e-05	4e-05	0.00013	0.0001	-0.00072	0.00047	6e-05	1e-05	4
18979	1e-05	4e-05	0.00013	0.0001	-0.00072	0.00047	6e-05	1e-05	4
18980	1e-05	4e-05	0.00013	0.0001	-0.00072	0.00047	6e-05	1e-05	4
18981	1e-05	4e-05	0.00013	0.0001	-0.00072	0.00047	6e-05	1e-05	4
18982	1e-05	4e-05	0.00013	0.0001	-0.00072	0.00047	6e-05	1e-05	4
18983	1e-05	4e-05	0.00013	0.0001	-0.00072	0.00047	6e-05	1e-05	4
18984	1e-05	4e-05	0.00013	0.0001	-0.00072	0.00047	6e-05	1e-05	4
18985	1e-05	4e-05	0.00013	0.0001	-0.00072	0.00047	6e-05	1e-05	4
18986	1e-05	4e-05	0.00013	0.0001	-0.00072	0.00047	6e-05	1e-05	4
18988	1e-05	4e-05	0.00013	0.0001	-0.00072	0.00047	6e-05	1e-05	4
18989	1e-05	4e-05	0.00013	0.0001	-0.00072	0.00047	6e-05	1e-05	4
18990	3e-05	5e-05	0.00019	0.00095	-0.00032	0.00024	1e-05	1e-05	4
18991	3e-05	5e-05	0.00019	0.00095	-0.00032	0.00024	1e-05	1e-05	4
18992	3e-05	5e-05	0.00019	0.00095	-0.00032	0.00024	1e-05	1e-05	4
18993	3e-05	5e-05	0.00019	0.00095	-0.00032	0.00024	1e-05	1e-05	4
18994	3e-05	5e-05	0.00019	0.00095	-0.00032	0.00024	1e-05	1e-05	4
18995	3e-05	5e-05	0.00019	0.00095	-0.00032	0.00024	1e-05	1e-05	4
18996	-2e-05	-3e-05	-0.00019	-0.00108	-0.00029	0.00044	-4e-05	-4e-05	4
18997	-2e-05	-3e-05	-0.00019	-0.00108	-0.00029	0.00044	-4e-05	-4e-05	4
18998	-2e-05	-3e-05	-0.00019	-0.00108	-0.00029	0.00044	-4e-05	-4e-05	4
18999	-2e-05	-3e-05	-0.00019	-0.00108	-0.00029	0.00044	-4e-05	-4e-05	4
19000	-2e-05	-3e-05	-0.00019	-0.00108	-0.00029	0.00044	-4e-05	-4e-05	4
19001	-2e-05	-3e-05	-0.00019	-0.00108	-0.00029	0.00044	-4e-05	-4e-05	4
19002	-2e-05	-3e-05	-0.00019	-0.00108	-0.00029	0.00044	-4e-05	-4e-05	4
19003	-2e-05	-3e-05	-0.00019	-0.00108	-0.00029	0.00044	-4e-05	-4e-05	4
19004	-2e-05	-3e-05	-0.00019	-0.00108	-0.00029	0.00044	-4e-05	-4e-05	4
19005	-2e-05	-3e-05	-0.00019	-0.00108	-0.00029	0.00044	-4e-05	-4e-05	4
19006	-2e-05	-3e-05	-0.00019	-0.00108	-0.00029	0.00044	-4e-05	-4e-05	4
19007	-2e-05	-3e-05	-0.00019	-0.00108	-0.00029	0.00044	-4e-05	-4e-05	4
19008	-2e-05	-3e-05	-0.00019	-0.00108	-0.00029	0.00044	-4e-05	-4e-05	4
19009	-2e-05	-3e-05	-0.00019	-0.00108	-0.00029	0.00044	-4e-05	-4e-05	4
19010	-2e-05	-3e-05	-0.00019	-0.00108	-0.00029	0.00044	-4e-05	-4e-05	4
19011	-2e-05	-3e-05	-0.00019	-0.00108	-0.00029	0.00044	-4e-05	-4e-05	4
19012	-4e-05	-3e-05	0	0.00074	-0.00061	0.00045	1e-05	-2e-05	4
19013	-4e-05	-3e-05	0	0.00074	-0.00061	0.00045	1e-05	-2e-05	4
19014	2e-05	6e-05	0.00018	0.00111	-0.00063	-0.00016	1e-05	-2e-05	4
19015	2e-05	6e-05	0.00018	0.00111	-0.00063	-0.00016	1e-05	-2e-05	4
19016	2e-05	6e-05	0.00018	0.00111	-0.00063	-0.00016	1e-05	-2e-05	4
19017	2e-05	6e-05	0.00018	0.00111	-0.00063	-0.00016	1e-05	-2e-05	4
19018	2e-05	6e-05	0.00018	0.00111	-0.00063	-0.00016	1e-05	-2e-05	4
19019	2e-05	6e-05	0.00018	0.00111	-0.00063	-0.00016	1e-05	-2e-05	4
19020	2e-05	6e-05	0.00018	0.00111	-0.00063	-0.00016	1e-05	-2e-05	4
19021	2e-05	6e-05	0.00018	0.00111	-0.00063	-0.00016	1e-05	-2e-05	4
19022	2e-05	6e-05	0.00018	0.00111	-0.00063	-0.00016	1e-05	-2e-05	4
19023	2e-05	6e-05	0.00018	0.00111	-0.00063	-0.00016	1e-05	-2e-05	4
19024	2e-05	6e-05	0.00018	0.00111	-0.00063	-0.00016	1e-05	-2e-05	4
19025	2e-05	6e-05	0.00018	0.00111	-0.00063	-0.00016	1e-05	-2e-05	4
19026	-2e-05	-5e-05	-8e-05	7e-05	0.00127	-3e-05	0	-2e-05	4
19027	-2e-05	-5e-05	-8e-05	7e-05	0.00127	-3e-05	0	-2e-05	4
19028	-2e-05	-5e-05	-8e-05	7e-05	0.00127	-3e-05	0	-2e-05	4
19029	-2e-05	-5e-05	-8e-05	7e-05	0.00127	-3e-05	0	-2e-05	4
19030	-2e-05	-5e-05	-8e-05	7e-05	0.00127	-3e-05	0	-2e-05	4
19031	-2e-05	-5e-05	-8e-05	7e-05	0.00127	-3e-05	0	-2e-05	4
19032	-2e-05	-5e-05	-8e-05	7e-05	0.00127	-3e-05	0	-2e-05	4
19033	-2e-05	-5e-05	-8e-05	7e-05	0.00127	-3e-05	0	-2e-05	4
19034	-2e-05	-5e-05	-8e-05	7e-05	0.00127	-3e-05	0	-2e-05	4
19035	-2e-05	-5e-05	-8e-05	7e-05	0.00127	-3e-05	0	-2e-05	4
19036	-2e-05	-5e-05	-8e-05	7e-05	0.00127	-3e-05	0	-2e-05	4
19038	-2e-05	-5e-05	-8e-05	7e-05	0.00127	-3e-05	0	-2e-05	4
19039	-2e-05	-5e-05	-8e-05	7e-05	0.00127	-3e-05	0	-2e-05	4
19040	-2e-05	-5e-05	-8e-05	7e-05	0.00127	-3e-05	0	-2e-05	4
19041	-2e-05	-5e-05	-8e-05	7e-05	0.00127	-3e-05	0	-2e-05	4
19042	4e-05	5e-05	0.0001	-0.00011	0.00125	-6e-05	2e-05	3e-05	4
19043	4e-05	5e-05	0.0001	-0.00011	0.00125	-6e-05	2e-05	3e-05	4
19044	4e-05	5e-05	0.0001	-0.00011	0.00125	-6e-05	2e-05	3e-05	4
19045	4e-05	5e-05	0.0001	-0.00011	0.00125	-6e-05	2e-05	3e-05	4
19046	4e-05	5e-05	0.0001	-0.00011	0.00125	-6e-05	2e-05	3e-05	4
19047	4e-05	5e-05	0.0001	-0.00011	0.00125	-6e-05	2e-05	3e-05	4
19048	4e-05	5e-05	0.0001	-0.00011	0.00125	-6e-05	2e-05	3e-05	4
19049	4e-05	5e-05	0.0001	-0.00011	0.00125	-6e-05	2e-05	3e-05	4
19050	0	1e-05	0	-0.00017	-0.00117	-0.00012	-4e-05	0	4
19051	-3e-05	-5e-05	5e-05	0.00026	0.00035	6e-05	4e-05	-2e-05	4
19052	-3e-05	-5e-05	5e-05	0.00026	0.00035	6e-05	4e-05	-2e-05	4
19053	-3e-05	-5e-05	5e-05	0.00026	0.00035	6e-05	4e-05	-2e-05	4
19054	-3e-05	-5e-05	5e-05	0.00026	0.00035	6e-05	4e-05	-2e-05	4
19055	-3e-05	-5e-05	5e-05	0.00026	0.00035	6e-05	4e-05	-2e-05	4
19056	-3e-05	-5e-05	5e-05	0.00026	0.00035	6e-05	4e-05	-2e-05	4
19057	-3e-05	-5e-05	5e-05	0.00026	0.00035	6e-05	4e-05	-2e-05	4
19058	-3e-05	-5e-05	5e-05	0.00026	0.00035	6e-05	4e-05	-2e-05	4
19059	-3e-05	-5e-05	5e-05	0.00026	0.00035	6e-05	4e-05	-2e-05	4
19060	-3e-05	-5e-05	5e-05	0.00026	0.00035	6e-05	4e-05	-2e-05	4
19061	-3e-05	-5e-05	5e-05	0.00026	0.00035	6e-05	4e-05	-2e-05	4
19062	-3e-05	-5e-05	5e-05	0.00026	0.00035	6e-05	4e-05	-2e-05	4
19063	-3e-05	-5e-05	5e-05	0.00026	0.00035	6e-05	4e-05	-2e-05	4
19064	-3e-05	-5e-05	5e-05	0.00026	0.00035	6e-05	4e-05	-2e-05	4
19065	-3e-05	-5e-05	5e-05	0.00026	0.00035	6e-05	4e-05	-2e-05	4
19066	-3e-05	-5e-05	5e-05	0.00026	0.00035	6e-05	4e-05	-2e-05	4
19067	-3e-05	-5e-05	5e-05	0.00026	0.00035	6e-05	4e-05	-2e-05	4
19068	-3e-05	-5e-05	5e-05	0.00026	0.00035	6e-05	4e-05	-2e-05	4
19069	-3e-05	-5e-05	5e-05	0.00026	0.00035	6e-05	4e-05	-2e-05	4
19070	-3e-05	-5e-05	5e-05	0.00026	0.00035	6e-05	4e-05	-2e-05	4
19071	-3e-05	-5e-05	5e-05	0.00026	0.00035	6e-05	4e-05	-2e-05	4
19072	1e-05	-4e-05	-0.00018	-0.00087	-0.0004	-0.00047	2e-05	0	4
19073	1e-05	-4e-05	-0.00018	-0.00087	-0.0004	-0.00047	2e-05	0	4
19074	0	-3e-05	-3e-05	-0.00027	-3e-05	-0.00079	-2e-05	2e-05	4
19075	0	-3e-05	-3e-05	-0.00027	-3e-05	-0.00079	-2e-05	2e-05	4
19076	0	-3e-05	-3e-05	-0.00027	-3e-05	-0.00079	-2e-05	2e-05	4
19077	0	-3e-05	-3e-05	-0.00027	-3e-05	-0.00079	-2e-05	2e-05	4
19078	0	-3e-05	-3e-05	-0.00027	-3e-05	-0.00079	-2e-05	2e-05	4
19079	0	-3e-05	-3e-05	-0.00027	-3e-05	-0.00079	-2e-05	2e-05	4
19080	0	-3e-05	-3e-05	-0.00027	-3e-05	-0.00079	-2e-05	2e-05	4
19081	0	-3e-05	-3e-05	-0.00027	-3e-05	-0.00079	-2e-05	2e-05	4
19082	0	-3e-05	-3e-05	-0.00027	-3e-05	-0.00079	-2e-05	2e-05	4
19083	0	-3e-05	-3e-05	-0.00027	-3e-05	-0.00079	-2e-05	2e-05	4
19084	0	-3e-05	-3e-05	-0.00027	-3e-05	-0.00079	-2e-05	2e-05	4
19085	0	-3e-05	-3e-05	-0.00027	-3e-05	-0.00079	-2e-05	2e-05	4
19086	0	-3e-05	-3e-05	-0.00027	-3e-05	-0.00079	-2e-05	2e-05	4
19088	0	-3e-05	-3e-05	-0.00027	-3e-05	-0.00079	-2e-05	2e-05	4
19089	0	-3e-05	-3e-05	-0.00027	-3e-05	-0.00079	-2e-05	2e-05	4
19090	0	-3e-05	-3e-05	-0.00027	-3e-05	-0.00079	-2e-05	2e-05	4
19091	0	-3e-05	-3e-05	-0.00027	-3e-05	-0.00079	-2e-05	2e-05	4
19092	0	-3e-05	-3e-05	-0.00027	-3e-05	-0.00079	-2e-05	2e-05	4
19093	0	-3e-05	-3e-05	-0.00027	-3e-05	-0.00079	-2e-05	2e-05	4
19094	0	-3e-05	-3e-05	-0.00027	-3e-05	-0.00079	-2e-05	2e-05	4
19095	-1e-05	-3e-05	-0.00011	-0.00079	-0.00055	-0.00014	-5e-05	-2e-05	4
19096	1e-05	5e-05	0.00024	0.00071	-0.00028	0.0002	0	-2e-05	4
19097	3e-05	4e-05	0.0001	0.00093	0.0011	8e-05	4e-05	3e-05	4
19098	3e-05	4e-05	0.0001	0.00093	0.0011	8e-05	4e-05	3e-05	4
19099	3e-05	4e-05	0.0001	0.00093	0.0011	8e-05	4e-05	3e-05	4
19100	3e-05	4e-05	0.0001	0.00093	0.0011	8e-05	4e-05	3e-05	4
19101	3e-05	4e-05	0.0001	0.00093	0.0011	8e-05	4e-05	3e-05	4
19102	3e-05	4e-05	0.0001	0.00093	0.0011	8e-05	4e-05	3e-05	4
19103	3e-05	4e-05	0.0001	0.00093	0.0011	8e-05	4e-05	3e-05	4
19104	3e-05	4e-05	0.0001	0.00093	0.0011	8e-05	4e-05	3e-05	4
19105	3e-05	4e-05	0.0001	0.00093	0.0011	8e-05	4e-05	3e-05	4
19106	3e-05	4e-05	0.0001	0.00093	0.0011	8e-05	4e-05	3e-05	4
19107	3e-05	4e-05	0.0001	0.00093	0.0011	8e-05	4e-05	3e-05	4
19108	3e-05	4e-05	0.0001	0.00093	0.0011	8e-05	4e-05	3e-05	4
19109	3e-05	4e-05	0.0001	0.00093	0.0011	8e-05	4e-05	3e-05	4
19110	-3e-05	-4e-05	-0.00014	-0.0005	-0.00069	0.00011	9e-05	1e-05	4
19111	1e-05	8e-05	0.00032	0.00127	-0.00024	0.00059	-1e-05	-2e-05	4
19112	3e-05	7e-05	0.00017	0.00011	0.00076	0.0001	-2e-05	1e-05	4
19113	3e-05	7e-05	0.00017	0.00011	0.00076	0.0001	-2e-05	1e-05	4
19114	3e-05	7e-05	0.00017	0.00011	0.00076	0.0001	-2e-05	1e-05	4
19115	3e-05	7e-05	0.00017	0.00011	0.00076	0.0001	-2e-05	1e-05	4
19116	3e-05	7e-05	0.00017	0.00011	0.00076	0.0001	-2e-05	1e-05	4
19117	3e-05	7e-05	0.00017	0.00011	0.00076	0.0001	-2e-05	1e-05	4
19118	3e-05	7e-05	0.00017	0.00011	0.00076	0.0001	-2e-05	1e-05	4
19119	3e-05	7e-05	0.00017	0.00011	0.00076	0.0001	-2e-05	1e-05	4
19120	3e-05	7e-05	0.00017	0.00011	0.00076	0.0001	-2e-05	1e-05	4
19121	3e-05	7e-05	0.00017	0.00011	0.00076	0.0001	-2e-05	1e-05	4
19122	3e-05	7e-05	0.00017	0.00011	0.00076	0.0001	-2e-05	1e-05	4
19123	3e-05	7e-05	0.00017	0.00011	0.00076	0.0001	-2e-05	1e-05	4
19124	3e-05	7e-05	0.00017	0.00011	0.00076	0.0001	-2e-05	1e-05	4
19125	3e-05	7e-05	0.00017	0.00011	0.00076	0.0001	-2e-05	1e-05	4
19126	3e-05	7e-05	0.00017	0.00011	0.00076	0.0001	-2e-05	1e-05	4
19127	3e-05	7e-05	0.00017	0.00011	0.00076	0.0001	-2e-05	1e-05	4
19128	3e-05	7e-05	0.00017	0.00011	0.00076	0.0001	-2e-05	1e-05	4
19129	3e-05	7e-05	0.00017	0.00011	0.00076	0.0001	-2e-05	1e-05	4
19130	3e-05	7e-05	0.00017	0.00011	0.00076	0.0001	-2e-05	1e-05	4
19131	3e-05	7e-05	0.00017	0.00011	0.00076	0.0001	-2e-05	1e-05	4
19132	4e-05	4e-05	-1e-05	0.00012	0.00105	0.00062	0.00017	6e-05	4
19133	4e-05	4e-05	-1e-05	0.00012	0.00105	0.00062	0.00017	6e-05	4
19134	1e-05	2e-05	-1e-05	-0.00022	-0.00108	0.00039	5e-05	2e-05	4
19135	1e-05	2e-05	-1e-05	-0.00022	-0.00108	0.00039	5e-05	2e-05	4
19136	1e-05	2e-05	-1e-05	-0.00022	-0.00108	0.00039	5e-05	2e-05	4
19138	1e-05	2e-05	-1e-05	-0.00022	-0.00108	0.00039	5e-05	2e-05	4
19139	1e-05	2e-05	-1e-05	-0.00022	-0.00108	0.00039	5e-05	2e-05	4
19140	1e-05	2e-05	-1e-05	-0.00022	-0.00108	0.00039	5e-05	2e-05	4
19141	1e-05	2e-05	-1e-05	-0.00022	-0.00108	0.00039	5e-05	2e-05	4
19142	1e-05	2e-05	-1e-05	-0.00022	-0.00108	0.00039	5e-05	2e-05	4
19143	1e-05	2e-05	-1e-05	-0.00022	-0.00108	0.00039	5e-05	2e-05	4
19144	1e-05	2e-05	-1e-05	-0.00022	-0.00108	0.00039	5e-05	2e-05	4
19145	1e-05	2e-05	-1e-05	-0.00022	-0.00108	0.00039	5e-05	2e-05	4
19146	1e-05	2e-05	-1e-05	-0.00022	-0.00108	0.00039	5e-05	2e-05	4
19147	1e-05	2e-05	-1e-05	-0.00022	-0.00108	0.00039	5e-05	2e-05	4
19148	1e-05	2e-05	-1e-05	-0.00022	-0.00108	0.00039	5e-05	2e-05	4
19149	1e-05	2e-05	-1e-05	-0.00022	-0.00108	0.00039	5e-05	2e-05	4
19150	1e-05	2e-05	-1e-05	-0.00022	-0.00108	0.00039	5e-05	2e-05	4
19151	1e-05	2e-05	-1e-05	-0.00022	-0.00108	0.00039	5e-05	2e-05	4
19152	1e-05	2e-05	-1e-05	-0.00022	-0.00108	0.00039	5e-05	2e-05	4
19153	1e-05	2e-05	-1e-05	-0.00022	-0.00108	0.00039	5e-05	2e-05	4
19154	1e-05	2e-05	-1e-05	-0.00022	-0.00108	0.00039	5e-05	2e-05	4
19155	-7e-05	-2e-05	4e-05	0.00062	-0.00079	-0.0006	-0.00027	-0.0001	4
19156	-4e-05	-3e-05	-2e-05	0.00033	-0.00128	-0.0005	-1e-05	-2e-05	4
19157	-4e-05	-6e-05	-0.00022	-0.00057	0.00069	0.00016	-4e-05	-1e-05	4
19158	-4e-05	-6e-05	-0.00022	-0.00057	0.00069	0.00016	-4e-05	-1e-05	4
19159	-4e-05	-6e-05	-0.00022	-0.00057	0.00069	0.00016	-4e-05	-1e-05	4
19160	-4e-05	-6e-05	-0.00022	-0.00057	0.00069	0.00016	-4e-05	-1e-05	4
19161	-4e-05	-6e-05	-0.00022	-0.00057	0.00069	0.00016	-4e-05	-1e-05	4
19162	-4e-05	-6e-05	-0.00022	-0.00057	0.00069	0.00016	-4e-05	-1e-05	4
19163	-4e-05	-6e-05	-0.00022	-0.00057	0.00069	0.00016	-4e-05	-1e-05	4
19164	-4e-05	-6e-05	-0.00022	-0.00057	0.00069	0.00016	-4e-05	-1e-05	4
19165	-4e-05	-6e-05	-0.00022	-0.00057	0.00069	0.00016	-4e-05	-1e-05	4
19166	-4e-05	-6e-05	-0.00022	-0.00057	0.00069	0.00016	-4e-05	-1e-05	4
19167	-4e-05	-6e-05	-0.00022	-0.00057	0.00069	0.00016	-4e-05	-1e-05	4
19168	-4e-05	-6e-05	-0.00022	-0.00057	0.00069	0.00016	-4e-05	-1e-05	4
19169	-4e-05	-6e-05	-0.00022	-0.00057	0.00069	0.00016	-4e-05	-1e-05	4
19170	0	-2e-05	3e-05	0	0.00041	0.00029	-8e-05	-2e-05	4
19171	1e-05	1e-05	0.00018	0.00022	0.00025	-3e-05	-7e-05	1e-05	4
19172	-2e-05	-0.00011	-0.00039	-0.00068	0.00025	0.0003	-2e-05	-2e-05	4
19173	-2e-05	-0.00011	-0.00039	-0.00068	0.00025	0.0003	-2e-05	-2e-05	4
19174	-2e-05	-0.00011	-0.00039	-0.00068	0.00025	0.0003	-2e-05	-2e-05	4
19175	-2e-05	-0.00011	-0.00039	-0.00068	0.00025	0.0003	-2e-05	-2e-05	4
19176	-2e-05	-0.00011	-0.00039	-0.00068	0.00025	0.0003	-2e-05	-2e-05	4
19177	-2e-05	-0.00011	-0.00039	-0.00068	0.00025	0.0003	-2e-05	-2e-05	4
19178	-2e-05	-0.00011	-0.00039	-0.00068	0.00025	0.0003	-2e-05	-2e-05	4
19179	-2e-05	-0.00011	-0.00039	-0.00068	0.00025	0.0003	-2e-05	-2e-05	4
19180	-2e-05	-0.00011	-0.00039	-0.00068	0.00025	0.0003	-2e-05	-2e-05	4
19181	-2e-05	-0.00011	-0.00039	-0.00068	0.00025	0.0003	-2e-05	-2e-05	4
19182	-2e-05	-0.00011	-0.00039	-0.00068	0.00025	0.0003	-2e-05	-2e-05	4
19183	-2e-05	-0.00011	-0.00039	-0.00068	0.00025	0.0003	-2e-05	-2e-05	4
19184	-2e-05	-0.00011	-0.00039	-0.00068	0.00025	0.0003	-2e-05	-2e-05	4
19185	-2e-05	-0.00011	-0.00039	-0.00068	0.00025	0.0003	-2e-05	-2e-05	4
19186	-2e-05	-0.00011	-0.00039	-0.00068	0.00025	0.0003	-2e-05	-2e-05	4
19188	-2e-05	-0.00011	-0.00039	-0.00068	0.00025	0.0003	-2e-05	-2e-05	4
19189	-2e-05	-0.00011	-0.00039	-0.00068	0.00025	0.0003	-2e-05	-2e-05	4
19190	-2e-05	-0.00011	-0.00039	-0.00068	0.00025	0.0003	-2e-05	-2e-05	4
19191	-2e-05	-0.00011	-0.00039	-0.00068	0.00025	0.0003	-2e-05	-2e-05	4
19192	0	-1e-05	-5e-05	-0.00062	0.00106	0.00032	8e-05	2e-05	4
19193	0	-1e-05	-5e-05	-0.00062	0.00106	0.00032	8e-05	2e-05	4
19194	4e-05	4e-05	0.00016	8e-05	-0.00117	-0.00012	8e-05	1e-05	4
19195	4e-05	4e-05	0.00016	8e-05	-0.00117	-0.00012	8e-05	1e-05	4
19196	4e-05	4e-05	0.00016	8e-05	-0.00117	-0.00012	8e-05	1e-05	4
19197	4e-05	4e-05	0.00016	8e-05	-0.00117	-0.00012	8e-05	1e-05	4
19198	4e-05	4e-05	0.00016	8e-05	-0.00117	-0.00012	8e-05	1e-05	4
19199	4e-05	4e-05	0.00016	8e-05	-0.00117	-0.00012	8e-05	1e-05	4
19200	4e-05	4e-05	0.00016	8e-05	-0.00117	-0.00012	8e-05	1e-05	4
19201	4e-05	4e-05	0.00016	8e-05	-0.00117	-0.00012	8e-05	1e-05	4
19202	4e-05	4e-05	0.00016	8e-05	-0.00117	-0.00012	8e-05	1e-05	4
19203	4e-05	4e-05	0.00016	8e-05	-0.00117	-0.00012	8e-05	1e-05	4
19204	4e-05	4e-05	0.00016	8e-05	-0.00117	-0.00012	8e-05	1e-05	4
19205	4e-05	4e-05	0.00016	8e-05	-0.00117	-0.00012	8e-05	1e-05	4
19206	4e-05	4e-05	0.00016	8e-05	-0.00117	-0.00012	8e-05	1e-05	4
19207	4e-05	4e-05	0.00016	8e-05	-0.00117	-0.00012	8e-05	1e-05	4
19208	4e-05	4e-05	0.00016	8e-05	-0.00117	-0.00012	8e-05	1e-05	4
19209	4e-05	4e-05	0.00016	8e-05	-0.00117	-0.00012	8e-05	1e-05	4
19210	4e-05	4e-05	0.00016	8e-05	-0.00117	-0.00012	8e-05	1e-05	4
19211	4e-05	4e-05	0.00016	8e-05	-0.00117	-0.00012	8e-05	1e-05	4
19212	4e-05	4e-05	0.00016	8e-05	-0.00117	-0.00012	8e-05	1e-05	4
19213	4e-05	4e-05	0.00016	8e-05	-0.00117	-0.00012	8e-05	1e-05	4
54951	-3e-05	-1e-05	-3e-05	-0.00022	-0.00057	-0.00039	-0.0001	-5e-05	4
54952	-3e-05	-1e-05	-3e-05	-0.00022	-0.00057	-0.00039	-0.0001	-5e-05	4
54953	-3e-05	-1e-05	-3e-05	-0.00022	-0.00057	-0.00039	-0.0001	-5e-05	4
54954	-3e-05	-1e-05	-3e-05	-0.00022	-0.00057	-0.00039	-0.0001	-5e-05	4
54955	-3e-05	-1e-05	-3e-05	-0.00022	-0.00057	-0.00039	-0.0001	-5e-05	4
54956	-3e-05	-1e-05	-3e-05	-0.00022	-0.00057	-0.00039	-0.0001	-5e-05	4
54957	-3e-05	-1e-05	-3e-05	-0.00022	-0.00057	-0.00039	-0.0001	-5e-05	4
54958	-3e-05	-1e-05	-3e-05	-0.00022	-0.00057	-0.00039	-0.0001	-5e-05	4
54959	-3e-05	-1e-05	-3e-05	-0.00022	-0.00057	-0.00039	-0.0001	-5e-05	4
54960	-3e-05	-1e-05	-3e-05	-0.00022	-0.00057	-0.00039	-0.0001	-5e-05	4
54961	-3e-05	-1e-05	-3e-05	-0.00022	-0.00057	-0.00039	-0.0001	-5e-05	4
54962	-3e-05	-1e-05	-3e-05	-0.00022	-0.00057	-0.00039	-0.0001	-5e-05	4
54963	-3e-05	-1e-05	-3e-05	-0.00022	-0.00057	-0.00039	-0.0001	-5e-05	4
54964	-3e-05	-1e-05	-3e-05	-0.00022	-0.00057	-0.00039	-0.0001	-5e-05	4
54965	-3e-05	-1e-05	-3e-05	-0.00022	-0.00057	-0.00039	-0.0001	-5e-05	4
54966	-3e-05	-1e-05	-3e-05	-0.00022	-0.00057	-0.00039	-0.0001	-5e-05	4
54967	-3e-05	-1e-05	-3e-05	-0.00022	-0.00057	-0.00039	-0.0001	-5e-05	4
54968	-3e-05	-1e-05	-3e-05	-0.00022	-0.00057	-0.00039	-0.0001	-5e-05	4
54969	-3e-05	-1e-05	-3e-05	-0.00022	-0.00057	-0.00039	-0.0001	-5e-05	4
54970	-3e-05	-1e-05	-3e-05	-0.00022	-0.00057	-0.00039	-0.0001	-5e-05	4
54971	-3e-05	-1e-05	-3e-05	-0.00022	-0.00057	-0.00039	-0.0001	-5e-05	4
54972	-3e-05	-1e-05	-3e-05	-0.00022	-0.00057	-0.00039	-0.0001	-5e-05	4
54973	-3e-05	-1e-05	-3e-05	-0.00022	-0.00057	-0.00039	-0.0001	-5e-05	4
54974	-3e-05	-1e-05	-3e-05	-0.00022	-0.00057	-0.00039	-0.0001	-5e-05	4
54975	-3e-05	-1e-05	-3e-05	-0.00022	-0.00057	-0.00039	-0.0001	-5e-05	4
54976	7e-05	0.0001	0.00016	0.00014	0.00062	-0.00056	-1e-05	5e-05	4
54977	1e-05	2e-05	0.0001	-0.00021	-0.00017	-0.00028	9e-05	2e-05	4
54978	1e-05	2e-05	0.0001	-0.00021	-0.00017	-0.00028	9e-05	2e-05	4
54979	1e-05	2e-05	0.0001	-0.00021	-0.00017	-0.00028	9e-05	2e-05	4
54980	1e-05	2e-05	0.0001	-0.00021	-0.00017	-0.00028	9e-05	2e-05	4
54981	-0.00014	-0.00025	-0.00052	-0.00051	0.00087	-0.00045	-0.00026	-0.00018	4
54982	6e-05	9e-05	0.00031	0.0007	-0.00128	0.0006	0.00022	0.0001	4
54983	6e-05	9e-05	0.00031	0.0007	-0.00128	0.0006	0.00022	0.0001	4
54984	6e-05	9e-05	0.00031	0.0007	-0.00128	0.0006	0.00022	0.0001	4
54985	6e-05	9e-05	0.00031	0.0007	-0.00128	0.0006	0.00022	0.0001	4
54986	6e-05	9e-05	0.00031	0.0007	-0.00128	0.0006	0.00022	0.0001	4
54988	6e-05	9e-05	0.00031	0.0007	-0.00128	0.0006	0.00022	0.0001	4
54989	6e-05	9e-05	0.00031	0.0007	-0.00128	0.0006	0.00022	0.0001	4
54990	5e-05	0.0001	0.00017	-0.00075	0.00017	0.00034	4e-05	3e-05	4
54991	0	-4e-05	-0.00023	-0.00023	-0.00018	0.00019	0	0	4
54992	0	-4e-05	-0.00023	-0.00023	-0.00018	0.00019	0	0	4
54993	0	-4e-05	-0.00023	-0.00023	-0.00018	0.00019	0	0	4
54994	0	-4e-05	-0.00023	-0.00023	-0.00018	0.00019	0	0	4
54995	0	-4e-05	-0.00023	-0.00023	-0.00018	0.00019	0	0	4
54996	0	-4e-05	-0.00023	-0.00023	-0.00018	0.00019	0	0	4
54997	0	-4e-05	-0.00023	-0.00023	-0.00018	0.00019	0	0	4
54998	0	-4e-05	-0.00023	-0.00023	-0.00018	0.00019	0	0	4
54999	0	-4e-05	-0.00023	-0.00023	-0.00018	0.00019	0	0	4
55000	0	-4e-05	-0.00023	-0.00023	-0.00018	0.00019	0	0	4
55001	0	-4e-05	-0.00023	-0.00023	-0.00018	0.00019	0	0	4
55002	0	-4e-05	-0.00023	-0.00023	-0.00018	0.00019	0	0	4
55003	0	-4e-05	-0.00023	-0.00023	-0.00018	0.00019	0	0	4
55004	0	-4e-05	-0.00023	-0.00023	-0.00018	0.00019	0	0	4
55005	-4e-05	-5e-05	-0.0001	0.00036	0.00072	-4e-05	-3e-05	-5e-05	4
55006	-4e-05	-5e-05	-0.0001	0.00036	0.00072	-4e-05	-3e-05	-5e-05	4
55007	-5e-05	-0.00013	-5e-05	0.00013	0.00058	-0.0003	-0.00021	-9e-05	4
55008	-5e-05	-0.00013	-5e-05	0.00013	0.00058	-0.0003	-0.00021	-9e-05	4
55009	-5e-05	-0.00013	-5e-05	0.00013	0.00058	-0.0003	-0.00021	-9e-05	4
55010	-5e-05	-0.00013	-5e-05	0.00013	0.00058	-0.0003	-0.00021	-9e-05	4
55011	-5e-05	-0.00013	-5e-05	0.00013	0.00058	-0.0003	-0.00021	-9e-05	4
55012	-5e-05	-0.00013	-5e-05	0.00013	0.00058	-0.0003	-0.00021	-9e-05	4
55013	-5e-05	-0.00013	-5e-05	0.00013	0.00058	-0.0003	-0.00021	-9e-05	4
55014	-5e-05	-0.00013	-5e-05	0.00013	0.00058	-0.0003	-0.00021	-9e-05	4
55015	-5e-05	-0.00013	-5e-05	0.00013	0.00058	-0.0003	-0.00021	-9e-05	4
55016	-5e-05	-0.00013	-5e-05	0.00013	0.00058	-0.0003	-0.00021	-9e-05	4
55017	-5e-05	-0.00013	-5e-05	0.00013	0.00058	-0.0003	-0.00021	-9e-05	4
55018	-5e-05	-0.00013	-5e-05	0.00013	0.00058	-0.0003	-0.00021	-9e-05	4
55019	-5e-05	-0.00013	-5e-05	0.00013	0.00058	-0.0003	-0.00021	-9e-05	4
55020	-5e-05	-0.00013	-5e-05	0.00013	0.00058	-0.0003	-0.00021	-9e-05	4
55021	-5e-05	-0.00013	-5e-05	0.00013	0.00058	-0.0003	-0.00021	-9e-05	4
55022	-5e-05	-0.00013	-5e-05	0.00013	0.00058	-0.0003	-0.00021	-9e-05	4
55023	-5e-05	-0.00013	-5e-05	0.00013	0.00058	-0.0003	-0.00021	-9e-05	4
55024	-5e-05	-0.00013	-5e-05	0.00013	0.00058	-0.0003	-0.00021	-9e-05	4
55025	-5e-05	-0.00013	-5e-05	0.00013	0.00058	-0.0003	-0.00021	-9e-05	4
