9447	-0.0007	-0.00073	-0.00013	-4e-05	-7e-05	0.00024	8e-05	-0.00031	3
9448	-0.0007	-0.00073	-0.00013	-4e-05	-7e-05	0.00024	8e-05	-0.00031	3
9449	-0.0007	-0.00073	-0.00013	-4e-05	-7e-05	0.00024	8e-05	-0.00031	3
9450	-0.0007	-0.00073	-0.00013	-4e-05	-7e-05	0.00024	8e-05	-0.00031	3
9451	-0.0007	-0.00073	-0.00013	-4e-05	-7e-05	0.00024	8e-05	-0.00031	3
9453	-0.0007	-0.00073	-0.00013	-4e-05	-7e-05	0.00024	8e-05	-0.00031	3
9454	-0.0007	-0.00073	-0.00013	-4e-05	-7e-05	0.00024	8e-05	-0.00031	3
9455	-0.0007	-0.00073	-0.00013	-4e-05	-7e-05	0.00024	8e-05	-0.00031	3
9456	-0.0007	-0.00073	-0.00013	-4e-05	-7e-05	0.00024	8e-05	-0.00031	3
9457	-0.0003	-4e-05	8e-05	3e-05	-2e-05	0.00015	0.00013	6e-05	3
9458	0.00027	0.00061	3e-05	-5e-05	0.00043	-3e-05	4e-05	0.00015	3
9459	0.00027	0.00061	3e-05	-5e-05	0.00043	-3e-05	4e-05	0.00015	3
9460	0.00027	0.00061	3e-05	-5e-05	0.00043	-3e-05	4e-05	0.00015	3
9461	0.00027	0.00061	3e-05	-5e-05	0.00043	-3e-05	4e-05	0.00015	3
9462	0.00027	0.00061	3e-05	-5e-05	0.00043	-3e-05	4e-05	0.00015	3
9463	0.00027	0.00061	3e-05	-5e-05	0.00043	-3e-05	4e-05	0.00015	3
9464	0.00027	0.00061	3e-05	-5e-05	0.00043	-3e-05	4e-05	0.00015	3
9465	0.00027	0.00061	3e-05	-5e-05	0.00043	-3e-05	4e-05	0.00015	3
9466	0.00027	0.00061	3e-05	-5e-05	0.00043	-3e-05	4e-05	0.00015	3
9467	0.00027	0.00061	3e-05	-5e-05	0.00043	-3e-05	4e-05	0.00015	3
9468	0.00027	0.00061	3e-05	-5e-05	0.00043	-3e-05	4e-05	0.00015	3
9469	0.00027	0.00061	3e-05	-5e-05	0.00043	-3e-05	4e-05	0.00015	3
9470	0.00027	0.00061	3e-05	-5e-05	0.00043	-3e-05	4e-05	0.00015	3
9471	-0.00039	0.00036	7e-05	3e-05	-1e-05	0.00052	8e-05	-3e-05	3
9472	-7e-05	-0.00054	-4e-05	8e-05	-0.0001	-0.00021	0.00028	0.00015	3
9473	-7e-05	-0.00054	-4e-05	8e-05	-0.0001	-0.00021	0.00028	0.00015	3
9474	-7e-05	-0.00054	-4e-05	8e-05	-0.0001	-0.00021	0.00028	0.00015	3
9475	-7e-05	-0.00054	-4e-05	8e-05	-0.0001	-0.00021	0.00028	0.00015	3
9476	-7e-05	-0.00054	-4e-05	8e-05	-0.0001	-0.00021	0.00028	0.00015	3
9477	-7e-05	-0.00054	-4e-05	8e-05	-0.0001	-0.00021	0.00028	0.00015	3
9478	-7e-05	-0.00054	-4e-05	8e-05	-0.0001	-0.00021	0.00028	0.00015	3
9479	-7e-05	-0.00054	-4e-05	8e-05	-0.0001	-0.00021	0.00028	0.00015	3
9480	-7e-05	-0.00054	-4e-05	8e-05	-0.0001	-0.00021	0.00028	0.00015	3
9481	-7e-05	-0.00054	-4e-05	8e-05	-0.0001	-0.00021	0.00028	0.00015	3
9482	-7e-05	-0.00054	-4e-05	8e-05	-0.0001	-0.00021	0.00028	0.00015	3
9483	-7e-05	-0.00054	-4e-05	8e-05	-0.0001	-0.00021	0.00028	0.00015	3
9484	-7e-05	-0.00054	-4e-05	8e-05	-0.0001	-0.00021	0.00028	0.00015	3
9485	-0.00054	-0.00074	-0.00016	-4e-05	8e-05	8e-05	-0.00035	2e-05	3
9486	-0.00054	-0.00074	-0.00016	-4e-05	8e-05	8e-05	-0.00035	2e-05	3
9489	-0.00054	-0.00074	-0.00016	-4e-05	8e-05	8e-05	-0.00035	2e-05	3
9490	-0.00054	-0.00074	-0.00016	-4e-05	8e-05	8e-05	-0.00035	2e-05	3
9491	-0.00054	-0.00074	-0.00016	-4e-05	8e-05	8e-05	-0.00035	2e-05	3
9492	-0.00054	-0.00074	-0.00016	-4e-05	8e-05	8e-05	-0.00035	2e-05	3
9493	1e-05	0.00053	0.00014	6e-05	0.00024	-0.00015	-7e-05	-9e-05	3
9494	1e-05	0.00053	0.00014	6e-05	0.00024	-0.00015	-7e-05	-9e-05	3
9495	1e-05	0.00053	0.00014	6e-05	0.00024	-0.00015	-7e-05	-9e-05	3
9496	1e-05	0.00053	0.00014	6e-05	0.00024	-0.00015	-7e-05	-9e-05	3
9497	1e-05	0.00053	0.00014	6e-05	0.00024	-0.00015	-7e-05	-9e-05	3
9498	1e-05	0.00053	0.00014	6e-05	0.00024	-0.00015	-7e-05	-9e-05	3
9499	1e-05	0.00053	0.00014	6e-05	0.00024	-0.00015	-7e-05	-9e-05	3
9500	1e-05	0.00053	0.00014	6e-05	0.00024	-0.00015	-7e-05	-9e-05	3
9501	1e-05	0.00053	0.00014	6e-05	0.00024	-0.00015	-7e-05	-9e-05	3
9502	1e-05	0.00053	0.00014	6e-05	0.00024	-0.00015	-7e-05	-9e-05	3
9503	1e-05	0.00053	0.00014	6e-05	0.00024	-0.00015	-7e-05	-9e-05	3
9504	1e-05	0.00053	0.00014	6e-05	0.00024	-0.00015	-7e-05	-9e-05	3
9505	1e-05	0.00053	0.00014	6e-05	0.00024	-0.00015	-7e-05	-9e-05	3
9506	1e-05	0.00053	0.00014	6e-05	0.00024	-0.00015	-7e-05	-9e-05	3
9507	1e-05	0.00053	0.00014	6e-05	0.00024	-0.00015	-7e-05	-9e-05	3
9508	-9e-05	0.00049	7e-05	0	-0.00014	-0.00021	-3e-05	-0.0004	3
9509	-0.00017	-0.00044	2e-05	3e-05	0.00014	0.00041	2e-05	1e-05	3
9510	-0.00017	-0.00044	2e-05	3e-05	0.00014	0.00041	2e-05	1e-05	3
9511	-0.00017	-0.00044	2e-05	3e-05	0.00014	0.00041	2e-05	1e-05	3
9512	-0.00017	-0.00044	2e-05	3e-05	0.00014	0.00041	2e-05	1e-05	3
9513	-0.00017	-0.00044	2e-05	3e-05	0.00014	0.00041	2e-05	1e-05	3
9514	-0.00017	-0.00044	2e-05	3e-05	0.00014	0.00041	2e-05	1e-05	3
9515	-0.00017	-0.00044	2e-05	3e-05	0.00014	0.00041	2e-05	1e-05	3
9516	-0.00017	-0.00044	2e-05	3e-05	0.00014	0.00041	2e-05	1e-05	3
9517	-0.00017	-0.00044	2e-05	3e-05	0.00014	0.00041	2e-05	1e-05	3
9518	-0.00017	-0.00044	2e-05	3e-05	0.00014	0.00041	2e-05	1e-05	3
9519	-0.00017	-0.00044	2e-05	3e-05	0.00014	0.00041	2e-05	1e-05	3
9520	-0.00017	-0.00044	2e-05	3e-05	0.00014	0.00041	2e-05	1e-05	3
9521	-0.00017	-0.00044	2e-05	3e-05	0.00014	0.00041	2e-05	1e-05	3
9522	-0.00017	-0.00044	2e-05	3e-05	0.00014	0.00041	2e-05	1e-05	3
9523	-0.00017	-0.00044	2e-05	3e-05	0.00014	0.00041	2e-05	1e-05	3
9524	-0.00017	-0.00044	2e-05	3e-05	0.00014	0.00041	2e-05	1e-05	3
9525	-0.00017	-0.00044	2e-05	3e-05	0.00014	0.00041	2e-05	1e-05	3
9526	-0.00017	-0.00044	2e-05	3e-05	0.00014	0.00041	2e-05	1e-05	3
9527	-0.00017	-0.00044	2e-05	3e-05	0.00014	0.00041	2e-05	1e-05	3
9528	-0.00017	-0.00044	2e-05	3e-05	0.00014	0.00041	2e-05	1e-05	3
9529	-0.00017	-0.00044	2e-05	3e-05	0.00014	0.00041	2e-05	1e-05	3
9530	-0.00017	-0.00044	2e-05	3e-05	0.00014	0.00041	2e-05	1e-05	3
9531	-6e-05	0.00019	2e-05	0	-8e-05	-0.00023	2e-05	8e-05	3
9532	-0.00032	0.00022	-9e-05	-7e-05	-0.00031	-0.00065	-0.00012	-0.00029	3
9533	-0.00032	0.00022	-9e-05	-7e-05	-0.00031	-0.00065	-0.00012	-0.00029	3
9534	-0.00032	0.00022	-9e-05	-7e-05	-0.00031	-0.00065	-0.00012	-0.00029	3
9535	-0.00032	0.00022	-9e-05	-7e-05	-0.00031	-0.00065	-0.00012	-0.00029	3
9536	-0.00032	0.00022	-9e-05	-7e-05	-0.00031	-0.00065	-0.00012	-0.00029	3
9538	-0.00032	0.00022	-9e-05	-7e-05	-0.00031	-0.00065	-0.00012	-0.00029	3
9540	-0.00032	0.00022	-9e-05	-7e-05	-0.00031	-0.00065	-0.00012	-0.00029	3
9541	-0.00032	0.00022	-9e-05	-7e-05	-0.00031	-0.00065	-0.00012	-0.00029	3
9542	-0.00032	0.00022	-9e-05	-7e-05	-0.00031	-0.00065	-0.00012	-0.00029	3
9543	-0.00032	0.00022	-9e-05	-7e-05	-0.00031	-0.00065	-0.00012	-0.00029	3
9544	-0.00032	0.00022	-9e-05	-7e-05	-0.00031	-0.00065	-0.00012	-0.00029	3
9545	0.00048	0.00045	7e-05	1e-05	0.00033	0.00023	-2e-05	0.00012	3
9546	0.00052	0.00023	-1e-05	-6e-05	-0.00033	-0.00036	-6e-05	-0.00031	3
9547	0.00052	0.00023	-1e-05	-6e-05	-0.00033	-0.00036	-6e-05	-0.00031	3
9548	0.00052	0.00023	-1e-05	-6e-05	-0.00033	-0.00036	-6e-05	-0.00031	3
9549	0.00052	0.00023	-1e-05	-6e-05	-0.00033	-0.00036	-6e-05	-0.00031	3
9550	0.00052	0.00023	-1e-05	-6e-05	-0.00033	-0.00036	-6e-05	-0.00031	3
9551	0.00052	0.00023	-1e-05	-6e-05	-0.00033	-0.00036	-6e-05	-0.00031	3
9552	0.00052	0.00023	-1e-05	-6e-05	-0.00033	-0.00036	-6e-05	-0.00031	3
9553	0.00052	0.00023	-1e-05	-6e-05	-0.00033	-0.00036	-6e-05	-0.00031	3
9554	0.00052	0.00023	-1e-05	-6e-05	-0.00033	-0.00036	-6e-05	-0.00031	3
9555	0.00052	0.00023	-1e-05	-6e-05	-0.00033	-0.00036	-6e-05	-0.00031	3
9556	0.00052	0.00023	-1e-05	-6e-05	-0.00033	-0.00036	-6e-05	-0.00031	3
9557	0.00052	0.00023	-1e-05	-6e-05	-0.00033	-0.00036	-6e-05	-0.00031	3
9558	0.00052	0.00023	-1e-05	-6e-05	-0.00033	-0.00036	-6e-05	-0.00031	3
9559	0.00052	0.00023	-1e-05	-6e-05	-0.00033	-0.00036	-6e-05	-0.00031	3
9560	0.00052	0.00023	-1e-05	-6e-05	-0.00033	-0.00036	-6e-05	-0.00031	3
9561	0.00052	0.00023	-1e-05	-6e-05	-0.00033	-0.00036	-6e-05	-0.00031	3
9562	0.00052	0.00023	-1e-05	-6e-05	-0.00033	-0.00036	-6e-05	-0.00031	3
9563	0.00052	0.00023	-1e-05	-6e-05	-0.00033	-0.00036	-6e-05	-0.00031	3
9564	0.00052	0.00023	-1e-05	-6e-05	-0.00033	-0.00036	-6e-05	-0.00031	3
9565	0.00052	0.00023	-1e-05	-6e-05	-0.00033	-0.00036	-6e-05	-0.00031	3
9566	0.00052	0.00023	-1e-05	-6e-05	-0.00033	-0.00036	-6e-05	-0.00031	3
9567	0.00052	0.00023	-1e-05	-6e-05	-0.00033	-0.00036	-6e-05	-0.00031	3
9568	0.00052	0.00023	-1e-05	-6e-05	-0.00033	-0.00036	-6e-05	-0.00031	3
9569	0.00052	0.00023	-1e-05	-6e-05	-0.00033	-0.00036	-6e-05	-0.00031	3
9570	0.00052	0.00023	-1e-05	-6e-05	-0.00033	-0.00036	-6e-05	-0.00031	3
9571	0.00052	0.00023	-1e-05	-6e-05	-0.00033	-0.00036	-6e-05	-0.00031	3
9572	0.00052	0.00023	-1e-05	-6e-05	-0.00033	-0.00036	-6e-05	-0.00031	3
9573	0.00052	0.00023	-1e-05	-6e-05	-0.00033	-0.00036	-6e-05	-0.00031	3
9574	0.00052	0.00023	-1e-05	-6e-05	-0.00033	-0.00036	-6e-05	-0.00031	3
9575	0.00052	0.00023	-1e-05	-6e-05	-0.00033	-0.00036	-6e-05	-0.00031	3
9576	-0.0009	-0.00066	-4e-05	-1e-05	0.00017	0.00047	1e-05	0.00017	3
9577	0.00039	0.00035	6e-05	2e-05	0.00019	0.0002	-7e-05	0.0001	3
9578	0.00039	0.00035	6e-05	2e-05	0.00019	0.0002	-7e-05	0.0001	3
9579	0.00039	0.00035	6e-05	2e-05	0.00019	0.0002	-7e-05	0.0001	3
9580	0.00039	0.00035	6e-05	2e-05	0.00019	0.0002	-7e-05	0.0001	3
9581	0.00039	0.00035	6e-05	2e-05	0.00019	0.0002	-7e-05	0.0001	3
9582	0.00039	0.00035	6e-05	2e-05	0.00019	0.0002	-7e-05	0.0001	3
9583	0.00039	0.00035	6e-05	2e-05	0.00019	0.0002	-7e-05	0.0001	3
9584	0.00039	0.00035	6e-05	2e-05	0.00019	0.0002	-7e-05	0.0001	3
9585	0.00039	0.00035	6e-05	2e-05	0.00019	0.0002	-7e-05	0.0001	3
9586	0.00039	0.00035	6e-05	2e-05	0.00019	0.0002	-7e-05	0.0001	3
9588	0.00039	0.00035	6e-05	2e-05	0.00019	0.0002	-7e-05	0.0001	3
9589	0.00039	0.00035	6e-05	2e-05	0.00019	0.0002	-7e-05	0.0001	3
9590	0.00039	0.00035	6e-05	2e-05	0.00019	0.0002	-7e-05	0.0001	3
9591	1e-05	-0.00076	-0.00018	-8e-05	-0.00018	0.00022	0	-7e-05	3
9592	-0.00017	0.0005	-3e-05	-2e-05	-0.0001	-7e-05	-0.0002	-8e-05	3
9593	0.00019	-0.00101	-0.00014	-0.0001	-0.00029	3e-05	-8e-05	-2e-05	3
9594	0.00019	-0.00101	-0.00014	-0.0001	-0.00029	3e-05	-8e-05	-2e-05	3
9595	0.00019	-0.00101	-0.00014	-0.0001	-0.00029	3e-05	-8e-05	-2e-05	3
9596	0.00019	-0.00101	-0.00014	-0.0001	-0.00029	3e-05	-8e-05	-2e-05	3
9597	0.00019	-0.00101	-0.00014	-0.0001	-0.00029	3e-05	-8e-05	-2e-05	3
9598	0.00019	-0.00101	-0.00014	-0.0001	-0.00029	3e-05	-8e-05	-2e-05	3
9599	0.00019	-0.00101	-0.00014	-0.0001	-0.00029	3e-05	-8e-05	-2e-05	3
9600	0.00019	-0.00101	-0.00014	-0.0001	-0.00029	3e-05	-8e-05	-2e-05	3
9601	0.00019	-0.00101	-0.00014	-0.0001	-0.00029	3e-05	-8e-05	-2e-05	3
9602	0.00019	-0.00101	-0.00014	-0.0001	-0.00029	3e-05	-8e-05	-2e-05	3
9603	0.00019	-0.00101	-0.00014	-0.0001	-0.00029	3e-05	-8e-05	-2e-05	3
9604	0.00019	-0.00101	-0.00014	-0.0001	-0.00029	3e-05	-8e-05	-2e-05	3
9605	0.00019	-0.00101	-0.00014	-0.0001	-0.00029	3e-05	-8e-05	-2e-05	3
9606	0.00019	-0.00101	-0.00014	-0.0001	-0.00029	3e-05	-8e-05	-2e-05	3
9607	0.00019	-0.00101	-0.00014	-0.0001	-0.00029	3e-05	-8e-05	-2e-05	3
9608	0.00019	-0.00101	-0.00014	-0.0001	-0.00029	3e-05	-8e-05	-2e-05	3
9609	0.00019	-0.00101	-0.00014	-0.0001	-0.00029	3e-05	-8e-05	-2e-05	3
9610	0.00019	-0.00101	-0.00014	-0.0001	-0.00029	3e-05	-8e-05	-2e-05	3
9611	0.00019	-0.00101	-0.00014	-0.0001	-0.00029	3e-05	-8e-05	-2e-05	3
9612	0.00019	-0.00101	-0.00014	-0.0001	-0.00029	3e-05	-8e-05	-2e-05	3
9613	0.00019	-0.00101	-0.00014	-0.0001	-0.00029	3e-05	-8e-05	-2e-05	3
9614	0.00019	-0.00101	-0.00014	-0.0001	-0.00029	3e-05	-8e-05	-2e-05	3
9615	0.00019	-0.00101	-0.00014	-0.0001	-0.00029	3e-05	-8e-05	-2e-05	3
9616	0.00019	-0.00101	-0.00014	-0.0001	-0.00029	3e-05	-8e-05	-2e-05	3
9617	0.00019	-0.00101	-0.00014	-0.0001	-0.00029	3e-05	-8e-05	-2e-05	3
9618	0.00019	-0.00101	-0.00014	-0.0001	-0.00029	3e-05	-8e-05	-2e-05	3
9619	0.00019	-0.00101	-0.00014	-0.0001	-0.00029	3e-05	-8e-05	-2e-05	3
9620	0.00019	-0.00101	-0.00014	-0.0001	-0.00029	3e-05	-8e-05	-2e-05	3
9621	0.0003	-0.00032	-8e-05	-3e-05	3e-05	-0.00013	-0.00016	-0.00016	3
9622	-0.00032	0.00033	-2e-05	4e-05	-5e-05	-1e-05	-7e-05	6e-05	3
9623	-0.00032	0.00033	-2e-05	4e-05	-5e-05	-1e-05	-7e-05	6e-05	3
9624	-0.00032	0.00033	-2e-05	4e-05	-5e-05	-1e-05	-7e-05	6e-05	3
9625	-0.00032	0.00033	-2e-05	4e-05	-5e-05	-1e-05	-7e-05	6e-05	3
9626	-0.00032	0.00033	-2e-05	4e-05	-5e-05	-1e-05	-7e-05	6e-05	3
9627	-0.00032	0.00033	-2e-05	4e-05	-5e-05	-1e-05	-7e-05	6e-05	3
9628	-0.00011	-0.00014	-1e-05	1e-05	7e-05	0.00025	0.00014	-0.00016	3
9629	0.00042	2e-05	7e-05	7e-05	6e-05	0.00035	0.00017	-7e-05	3
9630	0.00042	2e-05	7e-05	7e-05	6e-05	0.00035	0.00017	-7e-05	3
9631	0.00042	2e-05	7e-05	7e-05	6e-05	0.00035	0.00017	-7e-05	3
9632	0.00042	2e-05	7e-05	7e-05	6e-05	0.00035	0.00017	-7e-05	3
9633	0.00042	2e-05	7e-05	7e-05	6e-05	0.00035	0.00017	-7e-05	3
9634	0.00042	2e-05	7e-05	7e-05	6e-05	0.00035	0.00017	-7e-05	3
9635	0.00042	2e-05	7e-05	7e-05	6e-05	0.00035	0.00017	-7e-05	3
9636	0.00042	2e-05	7e-05	7e-05	6e-05	0.00035	0.00017	-7e-05	3
9639	0.00042	2e-05	7e-05	7e-05	6e-05	0.00035	0.00017	-7e-05	3
9640	0.00042	2e-05	7e-05	7e-05	6e-05	0.00035	0.00017	-7e-05	3
9641	0.00042	2e-05	7e-05	7e-05	6e-05	0.00035	0.00017	-7e-05	3
9642	0.00042	2e-05	7e-05	7e-05	6e-05	0.00035	0.00017	-7e-05	3
9643	0.00042	2e-05	7e-05	7e-05	6e-05	0.00035	0.00017	-7e-05	3
9644	0.00042	2e-05	7e-05	7e-05	6e-05	0.00035	0.00017	-7e-05	3
9645	0.00042	2e-05	7e-05	7e-05	6e-05	0.00035	0.00017	-7e-05	3
9646	0.00042	2e-05	7e-05	7e-05	6e-05	0.00035	0.00017	-7e-05	3
9647	0.00042	2e-05	7e-05	7e-05	6e-05	0.00035	0.00017	-7e-05	3
9648	0.00042	2e-05	7e-05	7e-05	6e-05	0.00035	0.00017	-7e-05	3
9649	0.00042	2e-05	7e-05	7e-05	6e-05	0.00035	0.00017	-7e-05	3
9650	0.00042	2e-05	7e-05	7e-05	6e-05	0.00035	0.00017	-7e-05	3
9651	0.00042	2e-05	7e-05	7e-05	6e-05	0.00035	0.00017	-7e-05	3
9652	0.00042	2e-05	7e-05	7e-05	6e-05	0.00035	0.00017	-7e-05	3
9653	0.00042	2e-05	7e-05	7e-05	6e-05	0.00035	0.00017	-7e-05	3
9654	0.00042	2e-05	7e-05	7e-05	6e-05	0.00035	0.00017	-7e-05	3
9655	0.00042	2e-05	7e-05	7e-05	6e-05	0.00035	0.00017	-7e-05	3
9656	0.00042	2e-05	7e-05	7e-05	6e-05	0.00035	0.00017	-7e-05	3
9657	0.00042	2e-05	7e-05	7e-05	6e-05	0.00035	0.00017	-7e-05	3
9658	0.00042	2e-05	7e-05	7e-05	6e-05	0.00035	0.00017	-7e-05	3
9659	0.00042	2e-05	7e-05	7e-05	6e-05	0.00035	0.00017	-7e-05	3
9660	0.0004	0.00084	9e-05	0	-8e-05	5e-05	-0.00011	-3e-05	3
9661	0.00042	0.00011	8e-05	0.00011	0.00058	0.00024	0.00012	-0.00013	3
9662	0.00042	0.00011	8e-05	0.00011	0.00058	0.00024	0.00012	-0.00013	3
9663	0.00042	0.00011	8e-05	0.00011	0.00058	0.00024	0.00012	-0.00013	3
9664	0.00042	0.00011	8e-05	0.00011	0.00058	0.00024	0.00012	-0.00013	3
9665	0.00015	-0.0001	-7e-05	-6e-05	-7e-05	-0.00012	6e-05	-4e-05	3
9666	0.00044	0.00062	0.00011	-4e-05	-0.00013	-5e-05	-4e-05	0.00024	3
9667	0.00044	0.00062	0.00011	-4e-05	-0.00013	-5e-05	-4e-05	0.00024	3
9668	0.00044	0.00062	0.00011	-4e-05	-0.00013	-5e-05	-4e-05	0.00024	3
9669	0.00044	0.00062	0.00011	-4e-05	-0.00013	-5e-05	-4e-05	0.00024	3
9670	0.00044	0.00062	0.00011	-4e-05	-0.00013	-5e-05	-4e-05	0.00024	3
9671	0.00044	0.00062	0.00011	-4e-05	-0.00013	-5e-05	-4e-05	0.00024	3
9672	0.00044	0.00062	0.00011	-4e-05	-0.00013	-5e-05	-4e-05	0.00024	3
9673	0.00044	0.00062	0.00011	-4e-05	-0.00013	-5e-05	-4e-05	0.00024	3
9674	0.00044	0.00062	0.00011	-4e-05	-0.00013	-5e-05	-4e-05	0.00024	3
9675	0.00044	0.00062	0.00011	-4e-05	-0.00013	-5e-05	-4e-05	0.00024	3
9676	0.00044	0.00062	0.00011	-4e-05	-0.00013	-5e-05	-4e-05	0.00024	3
9677	0.00044	0.00062	0.00011	-4e-05	-0.00013	-5e-05	-4e-05	0.00024	3
9678	0.00044	0.00062	0.00011	-4e-05	-0.00013	-5e-05	-4e-05	0.00024	3
9679	0.00044	0.00062	0.00011	-4e-05	-0.00013	-5e-05	-4e-05	0.00024	3
9680	0.00044	0.00062	0.00011	-4e-05	-0.00013	-5e-05	-4e-05	0.00024	3
9681	0.00044	0.00062	0.00011	-4e-05	-0.00013	-5e-05	-4e-05	0.00024	3
9682	0.00044	0.00062	0.00011	-4e-05	-0.00013	-5e-05	-4e-05	0.00024	3
9683	0.00044	0.00062	0.00011	-4e-05	-0.00013	-5e-05	-4e-05	0.00024	3
9684	0.00044	0.00062	0.00011	-4e-05	-0.00013	-5e-05	-4e-05	0.00024	3
9685	0.00044	0.00062	0.00011	-4e-05	-0.00013	-5e-05	-4e-05	0.00024	3
9687	0.00044	0.00062	0.00011	-4e-05	-0.00013	-5e-05	-4e-05	0.00024	3
9690	0.00044	0.00062	0.00011	-4e-05	-0.00013	-5e-05	-4e-05	0.00024	3
9691	0.00044	0.00062	0.00011	-4e-05	-0.00013	-5e-05	-4e-05	0.00024	3
9692	0.00044	0.00062	0.00011	-4e-05	-0.00013	-5e-05	-4e-05	0.00024	3
9693	0.00044	0.00062	0.00011	-4e-05	-0.00013	-5e-05	-4e-05	0.00024	3
9694	0.00044	0.00062	0.00011	-4e-05	-0.00013	-5e-05	-4e-05	0.00024	3
9695	0.00044	0.00062	0.00011	-4e-05	-0.00013	-5e-05	-4e-05	0.00024	3
9696	0.00044	0.00062	0.00011	-4e-05	-0.00013	-5e-05	-4e-05	0.00024	3
9697	-0.0004	-0.00015	-7e-05	-1e-05	1e-05	0.00013	9e-05	-0.00014	3
9698	-0.00021	0.00055	0.00014	2e-05	-0.00029	-0.00031	-1e-05	0.00012	3
9699	-0.00021	0.00055	0.00014	2e-05	-0.00029	-0.00031	-1e-05	0.00012	3
9700	-0.00021	0.00055	0.00014	2e-05	-0.00029	-0.00031	-1e-05	0.00012	3
9701	-0.00021	0.00055	0.00014	2e-05	-0.00029	-0.00031	-1e-05	0.00012	3
9702	-0.00021	0.00055	0.00014	2e-05	-0.00029	-0.00031	-1e-05	0.00012	3
9703	-0.00021	0.00055	0.00014	2e-05	-0.00029	-0.00031	-1e-05	0.00012	3
9704	-0.00021	0.00055	0.00014	2e-05	-0.00029	-0.00031	-1e-05	0.00012	3
9705	-0.00021	0.00055	0.00014	2e-05	-0.00029	-0.00031	-1e-05	0.00012	3
9706	-0.00021	0.00055	0.00014	2e-05	-0.00029	-0.00031	-1e-05	0.00012	3
9707	-0.00021	0.00055	0.00014	2e-05	-0.00029	-0.00031	-1e-05	0.00012	3
9708	-0.00021	0.00055	0.00014	2e-05	-0.00029	-0.00031	-1e-05	0.00012	3
9709	-0.00021	0.00055	0.00014	2e-05	-0.00029	-0.00031	-1e-05	0.00012	3
9710	-0.00021	0.00055	0.00014	2e-05	-0.00029	-0.00031	-1e-05	0.00012	3
9711	-0.00035	-0.00038	-2e-05	0	3e-05	-0.0001	8e-05	4e-05	3
9712	-0.00035	-0.00038	-2e-05	0	3e-05	-0.0001	8e-05	4e-05	3
9713	-0.00035	-0.00038	-2e-05	0	3e-05	-0.0001	8e-05	4e-05	3
9714	-0.00035	-0.00038	-2e-05	0	3e-05	-0.0001	8e-05	4e-05	3
9715	-0.00035	-0.00038	-2e-05	0	3e-05	-0.0001	8e-05	4e-05	3
9716	-0.00035	-0.00038	-2e-05	0	3e-05	-0.0001	8e-05	4e-05	3
9717	-0.00035	-0.00038	-2e-05	0	3e-05	-0.0001	8e-05	4e-05	3
9718	-0.00037	-0.0003	-0.0001	-7e-05	-9e-05	8e-05	3e-05	-8e-05	3
9719	-0.00037	-0.0003	-0.0001	-7e-05	-9e-05	8e-05	3e-05	-8e-05	3
9720	-0.00037	-0.0003	-0.0001	-7e-05	-9e-05	8e-05	3e-05	-8e-05	3
9721	-0.00037	-0.0003	-0.0001	-7e-05	-9e-05	8e-05	3e-05	-8e-05	3
9722	-0.00037	-0.0003	-0.0001	-7e-05	-9e-05	8e-05	3e-05	-8e-05	3
9723	-0.00037	-0.0003	-0.0001	-7e-05	-9e-05	8e-05	3e-05	-8e-05	3
9724	-0.00037	-0.0003	-0.0001	-7e-05	-9e-05	8e-05	3e-05	-8e-05	3
9725	-0.00037	-0.0003	-0.0001	-7e-05	-9e-05	8e-05	3e-05	-8e-05	3
9726	-0.00037	-0.0003	-0.0001	-7e-05	-9e-05	8e-05	3e-05	-8e-05	3
9727	-0.00037	-0.0003	-0.0001	-7e-05	-9e-05	8e-05	3e-05	-8e-05	3
9728	-0.00037	-0.0003	-0.0001	-7e-05	-9e-05	8e-05	3e-05	-8e-05	3
9729	-0.00037	-0.0003	-0.0001	-7e-05	-9e-05	8e-05	3e-05	-8e-05	3
9730	-0.00037	-0.0003	-0.0001	-7e-05	-9e-05	8e-05	3e-05	-8e-05	3
9731	-0.00037	-0.0003	-0.0001	-7e-05	-9e-05	8e-05	3e-05	-8e-05	3
9732	-0.00037	-0.0003	-0.0001	-7e-05	-9e-05	8e-05	3e-05	-8e-05	3
9733	-0.00037	-0.0003	-0.0001	-7e-05	-9e-05	8e-05	3e-05	-8e-05	3
9734	-0.00037	-0.0003	-0.0001	-7e-05	-9e-05	8e-05	3e-05	-8e-05	3
9735	-0.00037	-0.0003	-0.0001	-7e-05	-9e-05	8e-05	3e-05	-8e-05	3
9736	-0.00037	-0.0003	-0.0001	-7e-05	-9e-05	8e-05	3e-05	-8e-05	3
9739	-0.00037	-0.0003	-0.0001	-7e-05	-9e-05	8e-05	3e-05	-8e-05	3
9740	-0.00037	-0.0003	-0.0001	-7e-05	-9e-05	8e-05	3e-05	-8e-05	3
9741	-0.00037	-0.0003	-0.0001	-7e-05	-9e-05	8e-05	3e-05	-8e-05	3
9742	8e-05	-0.00049	-0.0001	2e-05	0.00024	-5e-05	4e-05	-8e-05	3
9743	-0.00058	-0.00023	-5e-05	-0.00011	0.00014	0.00037	-4e-05	-0.00011	3
9744	-0.00058	-0.00023	-5e-05	-0.00011	0.00014	0.00037	-4e-05	-0.00011	3
9745	-0.00058	-0.00023	-5e-05	-0.00011	0.00014	0.00037	-4e-05	-0.00011	3
9746	-0.00058	-0.00023	-5e-05	-0.00011	0.00014	0.00037	-4e-05	-0.00011	3
9747	-0.00058	-0.00023	-5e-05	-0.00011	0.00014	0.00037	-4e-05	-0.00011	3
9748	-0.00045	0.00063	5e-05	-4e-05	-0.00016	0.00036	6e-05	-6e-05	3
9749	0.00025	0.00012	4e-05	3e-05	-4e-05	0	7e-05	0.00046	3
9750	0.00025	0.00012	4e-05	3e-05	-4e-05	0	7e-05	0.00046	3
9751	0.00025	0.00012	4e-05	3e-05	-4e-05	0	7e-05	0.00046	3
9752	0.00025	0.00012	4e-05	3e-05	-4e-05	0	7e-05	0.00046	3
9753	0.00025	0.00012	4e-05	3e-05	-4e-05	0	7e-05	0.00046	3
9754	0.00025	0.00012	4e-05	3e-05	-4e-05	0	7e-05	0.00046	3
9755	0.00025	0.00012	4e-05	3e-05	-4e-05	0	7e-05	0.00046	3
9756	0.00025	0.00012	4e-05	3e-05	-4e-05	0	7e-05	0.00046	3
9757	0.00025	0.00012	4e-05	3e-05	-4e-05	0	7e-05	0.00046	3
9758	0.00025	0.00012	4e-05	3e-05	-4e-05	0	7e-05	0.00046	3
9759	0.00025	0.00012	4e-05	3e-05	-4e-05	0	7e-05	0.00046	3
9760	0.00025	0.00012	4e-05	3e-05	-4e-05	0	7e-05	0.00046	3
9761	0.00025	0.00012	4e-05	3e-05	-4e-05	0	7e-05	0.00046	3
9762	0.00025	0.00012	4e-05	3e-05	-4e-05	0	7e-05	0.00046	3
9763	0.00025	0.00012	4e-05	3e-05	-4e-05	0	7e-05	0.00046	3
9764	0.00025	0.00012	4e-05	3e-05	-4e-05	0	7e-05	0.00046	3
9765	0.00025	0.00012	4e-05	3e-05	-4e-05	0	7e-05	0.00046	3
9766	0.00025	0.00012	4e-05	3e-05	-4e-05	0	7e-05	0.00046	3
9767	0.00025	0.00012	4e-05	3e-05	-4e-05	0	7e-05	0.00046	3
9768	0.00025	0.00012	4e-05	3e-05	-4e-05	0	7e-05	0.00046	3
9769	0.00025	0.00012	4e-05	3e-05	-4e-05	0	7e-05	0.00046	3
9770	0.00025	0.00012	4e-05	3e-05	-4e-05	0	7e-05	0.00046	3
9771	0.00025	0.00012	4e-05	3e-05	-4e-05	0	7e-05	0.00046	3
9772	0.00025	0.00012	4e-05	3e-05	-4e-05	0	7e-05	0.00046	3
9773	0.00025	0.00012	4e-05	3e-05	-4e-05	0	7e-05	0.00046	3
9774	0.00025	0.00012	4e-05	3e-05	-4e-05	0	7e-05	0.00046	3
9775	0.00025	0.00012	4e-05	3e-05	-4e-05	0	7e-05	0.00046	3
9776	0.00025	0.00012	4e-05	3e-05	-4e-05	0	7e-05	0.00046	3
9777	0.00025	0.00012	4e-05	3e-05	-4e-05	0	7e-05	0.00046	3
9778	0.00025	0.00012	4e-05	3e-05	-4e-05	0	7e-05	0.00046	3
9779	-1e-05	0.00055	0.00012	5e-05	0.00028	6e-05	-7e-05	0.00012	3
9780	-1e-05	0.00055	0.00012	5e-05	0.00028	6e-05	-7e-05	0.00012	3
9781	0.00013	0.00014	-0.00014	-5e-05	-0.00014	-0.00015	-2e-05	-9e-05	3
9782	0.00013	0.00014	-0.00014	-5e-05	-0.00014	-0.00015	-2e-05	-9e-05	3
9783	0.00013	0.00014	-0.00014	-5e-05	-0.00014	-0.00015	-2e-05	-9e-05	3
9784	0.00013	0.00014	-0.00014	-5e-05	-0.00014	-0.00015	-2e-05	-9e-05	3
9785	-0.00076	-3e-05	-7e-05	-2e-05	7e-05	1e-05	-0.0001	-0.00012	3
9786	0.0004	0.00024	1e-05	-2e-05	-0.00012	-3e-05	-8e-05	1e-05	3
9789	0.0004	0.00024	1e-05	-2e-05	-0.00012	-3e-05	-8e-05	1e-05	3
9790	0.0004	0.00024	1e-05	-2e-05	-0.00012	-3e-05	-8e-05	1e-05	3
9791	0.0004	0.00024	1e-05	-2e-05	-0.00012	-3e-05	-8e-05	1e-05	3
9792	0.0004	0.00024	1e-05	-2e-05	-0.00012	-3e-05	-8e-05	1e-05	3
9793	0.0004	0.00024	1e-05	-2e-05	-0.00012	-3e-05	-8e-05	1e-05	3
9794	0.0004	0.00024	1e-05	-2e-05	-0.00012	-3e-05	-8e-05	1e-05	3
9795	0.0004	0.00024	1e-05	-2e-05	-0.00012	-3e-05	-8e-05	1e-05	3
9796	0.0004	0.00024	1e-05	-2e-05	-0.00012	-3e-05	-8e-05	1e-05	3
9797	0.0004	0.00024	1e-05	-2e-05	-0.00012	-3e-05	-8e-05	1e-05	3
9798	0.0004	0.00024	1e-05	-2e-05	-0.00012	-3e-05	-8e-05	1e-05	3
9799	0.0004	0.00024	1e-05	-2e-05	-0.00012	-3e-05	-8e-05	1e-05	3
9800	0.0004	0.00024	1e-05	-2e-05	-0.00012	-3e-05	-8e-05	1e-05	3
9801	0.0004	0.00024	1e-05	-2e-05	-0.00012	-3e-05	-8e-05	1e-05	3
9802	0.0004	0.00024	1e-05	-2e-05	-0.00012	-3e-05	-8e-05	1e-05	3
9803	0.0004	0.00024	1e-05	-2e-05	-0.00012	-3e-05	-8e-05	1e-05	3
9804	0.0004	0.00024	1e-05	-2e-05	-0.00012	-3e-05	-8e-05	1e-05	3
9805	0.0004	0.00024	1e-05	-2e-05	-0.00012	-3e-05	-8e-05	1e-05	3
9806	0.0004	0.00024	1e-05	-2e-05	-0.00012	-3e-05	-8e-05	1e-05	3
9807	0.0004	0.00024	1e-05	-2e-05	-0.00012	-3e-05	-8e-05	1e-05	3
9808	0.0004	0.00024	1e-05	-2e-05	-0.00012	-3e-05	-8e-05	1e-05	3
9809	0.0004	0.00024	1e-05	-2e-05	-0.00012	-3e-05	-8e-05	1e-05	3
9810	0.0004	0.00024	1e-05	-2e-05	-0.00012	-3e-05	-8e-05	1e-05	3
9811	0.0004	0.00024	1e-05	-2e-05	-0.00012	-3e-05	-8e-05	1e-05	3
9812	0.0004	0.00024	1e-05	-2e-05	-0.00012	-3e-05	-8e-05	1e-05	3
9813	0.0004	0.00024	1e-05	-2e-05	-0.00012	-3e-05	-8e-05	1e-05	3
9814	0.0004	0.00024	1e-05	-2e-05	-0.00012	-3e-05	-8e-05	1e-05	3
9815	0.0004	0.00024	1e-05	-2e-05	-0.00012	-3e-05	-8e-05	1e-05	3
9816	4e-05	-6e-05	-5e-05	-4e-05	-5e-05	5e-05	-3e-05	-8e-05	3
9817	-0.0004	-0.00117	-0.00022	-6e-05	-6e-05	1e-05	-0.0002	-0.00018	3
9818	-0.0004	-0.00117	-0.00022	-6e-05	-6e-05	1e-05	-0.0002	-0.00018	3
9819	-0.0004	-0.00117	-0.00022	-6e-05	-6e-05	1e-05	-0.0002	-0.00018	3
9820	-0.0004	-0.00117	-0.00022	-6e-05	-6e-05	1e-05	-0.0002	-0.00018	3
9821	-0.0004	-0.00117	-0.00022	-6e-05	-6e-05	1e-05	-0.0002	-0.00018	3
9822	-0.0004	-0.00117	-0.00022	-6e-05	-6e-05	1e-05	-0.0002	-0.00018	3
9823	-0.0004	-0.00117	-0.00022	-6e-05	-6e-05	1e-05	-0.0002	-0.00018	3
9824	-0.0004	-0.00117	-0.00022	-6e-05	-6e-05	1e-05	-0.0002	-0.00018	3
9825	-0.0004	-0.00117	-0.00022	-6e-05	-6e-05	1e-05	-0.0002	-0.00018	3
9826	-0.0004	-0.00117	-0.00022	-6e-05	-6e-05	1e-05	-0.0002	-0.00018	3
9827	-0.0004	-0.00117	-0.00022	-6e-05	-6e-05	1e-05	-0.0002	-0.00018	3
9828	-0.0004	-0.00117	-0.00022	-6e-05	-6e-05	1e-05	-0.0002	-0.00018	3
9829	-0.0004	-0.00117	-0.00022	-6e-05	-6e-05	1e-05	-0.0002	-0.00018	3
9830	-0.0004	-0.00117	-0.00022	-6e-05	-6e-05	1e-05	-0.0002	-0.00018	3
9831	-0.0004	-0.00117	-0.00022	-6e-05	-6e-05	1e-05	-0.0002	-0.00018	3
9832	-0.0004	-0.00117	-0.00022	-6e-05	-6e-05	1e-05	-0.0002	-0.00018	3
9833	-0.0004	-0.00117	-0.00022	-6e-05	-6e-05	1e-05	-0.0002	-0.00018	3
9834	-0.0004	-0.00117	-0.00022	-6e-05	-6e-05	1e-05	-0.0002	-0.00018	3
9835	-0.0004	-0.00117	-0.00022	-6e-05	-6e-05	1e-05	-0.0002	-0.00018	3
9836	-0.0004	-0.00117	-0.00022	-6e-05	-6e-05	1e-05	-0.0002	-0.00018	3
9839	-0.0005	-0.00038	-8e-05	-4e-05	2e-05	-0.0003	0	-0.00024	3
9840	-2e-05	-0.00027	0	0	2e-05	0.00034	1e-05	0.00034	3
9841	0.00047	0.00064	0.00017	0.00011	0	-0.00024	0.00016	0.00012	3
9842	0.00047	0.00064	0.00017	0.00011	0	-0.00024	0.00016	0.00012	3
9843	0.00047	0.00064	0.00017	0.00011	0	-0.00024	0.00016	0.00012	3
9844	0.00047	0.00064	0.00017	0.00011	0	-0.00024	0.00016	0.00012	3
9845	0.00047	0.00064	0.00017	0.00011	0	-0.00024	0.00016	0.00012	3
9846	0.00047	0.00064	0.00017	0.00011	0	-0.00024	0.00016	0.00012	3
9847	0.00047	0.00064	0.00017	0.00011	0	-0.00024	0.00016	0.00012	3
9848	0.00047	0.00064	0.00017	0.00011	0	-0.00024	0.00016	0.00012	3
9849	0.00047	0.00064	0.00017	0.00011	0	-0.00024	0.00016	0.00012	3
9850	0.00047	0.00064	0.00017	0.00011	0	-0.00024	0.00016	0.00012	3
9851	0.00047	0.00064	0.00017	0.00011	0	-0.00024	0.00016	0.00012	3
9852	0.00047	0.00064	0.00017	0.00011	0	-0.00024	0.00016	0.00012	3
9853	0.00047	0.00064	0.00017	0.00011	0	-0.00024	0.00016	0.00012	3
9854	0.00047	0.00064	0.00017	0.00011	0	-0.00024	0.00016	0.00012	3
9855	0.00047	0.00064	0.00017	0.00011	0	-0.00024	0.00016	0.00012	3
9856	0.00047	0.00064	0.00017	0.00011	0	-0.00024	0.00016	0.00012	3
9857	0.00047	0.00064	0.00017	0.00011	0	-0.00024	0.00016	0.00012	3
9858	0.00047	0.00064	0.00017	0.00011	0	-0.00024	0.00016	0.00012	3
9859	0.00047	0.00064	0.00017	0.00011	0	-0.00024	0.00016	0.00012	3
9860	0.00047	0.00064	0.00017	0.00011	0	-0.00024	0.00016	0.00012	3
9861	3e-05	9e-05	5e-05	3e-05	4e-05	-6e-05	-0.00018	-0.0001	3
9862	-3e-05	-1e-05	-1e-05	-2e-05	-0.00029	0.00028	-3e-05	-7e-05	3
9863	-3e-05	-1e-05	-1e-05	-2e-05	-0.00029	0.00028	-3e-05	-7e-05	3
9864	-3e-05	-1e-05	-1e-05	-2e-05	-0.00029	0.00028	-3e-05	-7e-05	3
9865	-3e-05	-1e-05	-1e-05	-2e-05	-0.00029	0.00028	-3e-05	-7e-05	3
9866	-3e-05	-1e-05	-1e-05	-2e-05	-0.00029	0.00028	-3e-05	-7e-05	3
9867	-3e-05	-1e-05	-1e-05	-2e-05	-0.00029	0.00028	-3e-05	-7e-05	3
9868	0.00047	0.00032	-2e-05	2e-05	-0.00011	-0.00026	-4e-05	0.00011	3
9869	-3e-05	-0.00027	0	-3e-05	-0.00017	-0.00038	-8e-05	-6e-05	3
9870	-3e-05	-0.00027	0	-3e-05	-0.00017	-0.00038	-8e-05	-6e-05	3
9871	-3e-05	-0.00027	0	-3e-05	-0.00017	-0.00038	-8e-05	-6e-05	3
9872	-3e-05	-0.00027	0	-3e-05	-0.00017	-0.00038	-8e-05	-6e-05	3
9873	-3e-05	-0.00027	0	-3e-05	-0.00017	-0.00038	-8e-05	-6e-05	3
9874	-3e-05	-0.00027	0	-3e-05	-0.00017	-0.00038	-8e-05	-6e-05	3
9875	-3e-05	-0.00027	0	-3e-05	-0.00017	-0.00038	-8e-05	-6e-05	3
9876	-3e-05	-0.00027	0	-3e-05	-0.00017	-0.00038	-8e-05	-6e-05	3
9877	-3e-05	-0.00027	0	-3e-05	-0.00017	-0.00038	-8e-05	-6e-05	3
9878	-3e-05	-0.00027	0	-3e-05	-0.00017	-0.00038	-8e-05	-6e-05	3
9879	-3e-05	-0.00027	0	-3e-05	-0.00017	-0.00038	-8e-05	-6e-05	3
9880	-3e-05	-0.00027	0	-3e-05	-0.00017	-0.00038	-8e-05	-6e-05	3
9881	-3e-05	-0.00027	0	-3e-05	-0.00017	-0.00038	-8e-05	-6e-05	3
9882	-3e-05	-0.00027	0	-3e-05	-0.00017	-0.00038	-8e-05	-6e-05	3
9883	-3e-05	-0.00027	0	-3e-05	-0.00017	-0.00038	-8e-05	-6e-05	3
9884	-3e-05	-0.00027	0	-3e-05	-0.00017	-0.00038	-8e-05	-6e-05	3
9885	-3e-05	-0.00027	0	-3e-05	-0.00017	-0.00038	-8e-05	-6e-05	3
9886	-3e-05	-0.00027	0	-3e-05	-0.00017	-0.00038	-8e-05	-6e-05	3
9889	-3e-05	-0.00027	0	-3e-05	-0.00017	-0.00038	-8e-05	-6e-05	3
9890	-3e-05	-0.00027	0	-3e-05	-0.00017	-0.00038	-8e-05	-6e-05	3
9891	-3e-05	-0.00027	0	-3e-05	-0.00017	-0.00038	-8e-05	-6e-05	3
9892	-3e-05	-0.00027	0	-3e-05	-0.00017	-0.00038	-8e-05	-6e-05	3
9893	-3e-05	-0.00027	0	-3e-05	-0.00017	-0.00038	-8e-05	-6e-05	3
9894	-3e-05	-0.00027	0	-3e-05	-0.00017	-0.00038	-8e-05	-6e-05	3
9895	-3e-05	-0.00027	0	-3e-05	-0.00017	-0.00038	-8e-05	-6e-05	3
9896	-3e-05	-0.00027	0	-3e-05	-0.00017	-0.00038	-8e-05	-6e-05	3
9897	-3e-05	-0.00027	0	-3e-05	-0.00017	-0.00038	-8e-05	-6e-05	3
9898	-3e-05	-0.00027	0	-3e-05	-0.00017	-0.00038	-8e-05	-6e-05	3
9899	0.00033	6e-05	7e-05	0	1e-05	0.00023	0	6e-05	3
9900	-6e-05	-7e-05	1e-05	4e-05	0.00012	3e-05	0	4e-05	3
9901	-6e-05	-7e-05	1e-05	4e-05	0.00012	3e-05	0	4e-05	3
9902	-6e-05	-7e-05	1e-05	4e-05	0.00012	3e-05	0	4e-05	3
9903	-6e-05	-7e-05	1e-05	4e-05	0.00012	3e-05	0	4e-05	3
9904	-6e-05	-7e-05	1e-05	4e-05	0.00012	3e-05	0	4e-05	3
9905	-0.00046	-0.00099	-0.00021	-0.00011	-9e-05	-0.00013	-0.00012	-0.00016	3
9906	-0.00046	-0.00099	-0.00021	-0.00011	-9e-05	-0.00013	-0.00012	-0.00016	3
9907	-0.00046	-0.00099	-0.00021	-0.00011	-9e-05	-0.00013	-0.00012	-0.00016	3
9908	-0.00046	-0.00099	-0.00021	-0.00011	-9e-05	-0.00013	-0.00012	-0.00016	3
9909	-0.00046	-0.00099	-0.00021	-0.00011	-9e-05	-0.00013	-0.00012	-0.00016	3
9910	-0.00046	-0.00099	-0.00021	-0.00011	-9e-05	-0.00013	-0.00012	-0.00016	3
9911	-0.00046	-0.00099	-0.00021	-0.00011	-9e-05	-0.00013	-0.00012	-0.00016	3
9912	-0.00046	-0.00099	-0.00021	-0.00011	-9e-05	-0.00013	-0.00012	-0.00016	3
9913	-0.00036	0.00035	6e-05	0	0.00044	0.00031	6e-05	-6e-05	3
9914	-0.00036	0.00035	6e-05	0	0.00044	0.00031	6e-05	-6e-05	3
9915	-0.00036	0.00035	6e-05	0	0.00044	0.00031	6e-05	-6e-05	3
9916	-0.00036	0.00035	6e-05	0	0.00044	0.00031	6e-05	-6e-05	3
9917	-0.00036	0.00035	6e-05	0	0.00044	0.00031	6e-05	-6e-05	3
9918	-0.00036	0.00035	6e-05	0	0.00044	0.00031	6e-05	-6e-05	3
9919	-0.00036	0.00035	6e-05	0	0.00044	0.00031	6e-05	-6e-05	3
9920	-0.00036	0.00035	6e-05	0	0.00044	0.00031	6e-05	-6e-05	3
9921	-0.00036	0.00035	6e-05	0	0.00044	0.00031	6e-05	-6e-05	3
9922	-0.00036	0.00035	6e-05	0	0.00044	0.00031	6e-05	-6e-05	3
9923	-0.00036	0.00035	6e-05	0	0.00044	0.00031	6e-05	-6e-05	3
9924	-0.00036	0.00035	6e-05	0	0.00044	0.00031	6e-05	-6e-05	3
9925	-0.00036	0.00035	6e-05	0	0.00044	0.00031	6e-05	-6e-05	3
9926	-0.00036	0.00035	6e-05	0	0.00044	0.00031	6e-05	-6e-05	3
9927	-0.00036	0.00035	6e-05	0	0.00044	0.00031	6e-05	-6e-05	3
9928	-0.00036	0.00035	6e-05	0	0.00044	0.00031	6e-05	-6e-05	3
9929	-0.00036	0.00035	6e-05	0	0.00044	0.00031	6e-05	-6e-05	3
9930	-0.00036	0.00035	6e-05	0	0.00044	0.00031	6e-05	-6e-05	3
9931	-0.00036	0.00035	6e-05	0	0.00044	0.00031	6e-05	-6e-05	3
9932	-0.00036	0.00035	6e-05	0	0.00044	0.00031	6e-05	-6e-05	3
9933	-0.00036	0.00035	6e-05	0	0.00044	0.00031	6e-05	-6e-05	3
9934	-0.00036	0.00035	6e-05	0	0.00044	0.00031	6e-05	-6e-05	3
9935	-0.00036	0.00035	6e-05	0	0.00044	0.00031	6e-05	-6e-05	3
9936	8e-05	-0.00058	-6e-05	-2e-05	-0.00028	-6e-05	1e-05	-2e-05	3
9939	-0.00016	-0.00027	-7e-05	2e-05	-0.00024	-0.00024	-3e-05	-1e-05	3
9940	-0.00016	-0.00027	-7e-05	2e-05	-0.00024	-0.00024	-3e-05	-1e-05	3
9941	-0.00016	-0.00027	-7e-05	2e-05	-0.00024	-0.00024	-3e-05	-1e-05	3
9942	-0.00016	-0.00027	-7e-05	2e-05	-0.00024	-0.00024	-3e-05	-1e-05	3
9943	-0.00016	-0.00027	-7e-05	2e-05	-0.00024	-0.00024	-3e-05	-1e-05	3
9944	-0.00016	-0.00027	-7e-05	2e-05	-0.00024	-0.00024	-3e-05	-1e-05	3
9945	-0.00016	-0.00027	-7e-05	2e-05	-0.00024	-0.00024	-3e-05	-1e-05	3
9946	-0.00016	-0.00027	-7e-05	2e-05	-0.00024	-0.00024	-3e-05	-1e-05	3
9947	-0.00016	-0.00027	-7e-05	2e-05	-0.00024	-0.00024	-3e-05	-1e-05	3
9948	-0.00016	-0.00027	-7e-05	2e-05	-0.00024	-0.00024	-3e-05	-1e-05	3
9949	-0.00016	-0.00027	-7e-05	2e-05	-0.00024	-0.00024	-3e-05	-1e-05	3
9950	-0.00016	-0.00027	-7e-05	2e-05	-0.00024	-0.00024	-3e-05	-1e-05	3
9951	-0.00016	-0.00027	-7e-05	2e-05	-0.00024	-0.00024	-3e-05	-1e-05	3
9952	-0.00016	-0.00027	-7e-05	2e-05	-0.00024	-0.00024	-3e-05	-1e-05	3
9953	-0.00016	-0.00027	-7e-05	2e-05	-0.00024	-0.00024	-3e-05	-1e-05	3
9954	-0.00016	-0.00027	-7e-05	2e-05	-0.00024	-0.00024	-3e-05	-1e-05	3
9955	-0.00016	-0.00027	-7e-05	2e-05	-0.00024	-0.00024	-3e-05	-1e-05	3
9956	-0.00016	-0.00027	-7e-05	2e-05	-0.00024	-0.00024	-3e-05	-1e-05	3
9957	-0.00016	-0.00027	-7e-05	2e-05	-0.00024	-0.00024	-3e-05	-1e-05	3
9958	-0.00016	-0.00027	-7e-05	2e-05	-0.00024	-0.00024	-3e-05	-1e-05	3
9959	-4e-05	0.00014	4e-05	2e-05	-5e-05	-0.00021	-0.00013	-7e-05	3
9960	7e-05	6e-05	8e-05	-1e-05	-4e-05	1e-05	-3e-05	-5e-05	3
9961	7e-05	6e-05	8e-05	-1e-05	-4e-05	1e-05	-3e-05	-5e-05	3
9962	7e-05	6e-05	8e-05	-1e-05	-4e-05	1e-05	-3e-05	-5e-05	3
9963	7e-05	6e-05	8e-05	-1e-05	-4e-05	1e-05	-3e-05	-5e-05	3
9964	7e-05	6e-05	8e-05	-1e-05	-4e-05	1e-05	-3e-05	-5e-05	3
9965	7e-05	6e-05	8e-05	-1e-05	-4e-05	1e-05	-3e-05	-5e-05	3
9966	7e-05	6e-05	8e-05	-1e-05	-4e-05	1e-05	-3e-05	-5e-05	3
9967	7e-05	6e-05	8e-05	-1e-05	-4e-05	1e-05	-3e-05	-5e-05	3
9968	7e-05	6e-05	8e-05	-1e-05	-4e-05	1e-05	-3e-05	-5e-05	3
9969	7e-05	6e-05	8e-05	-1e-05	-4e-05	1e-05	-3e-05	-5e-05	3
9970	7e-05	6e-05	8e-05	-1e-05	-4e-05	1e-05	-3e-05	-5e-05	3
9971	7e-05	6e-05	8e-05	-1e-05	-4e-05	1e-05	-3e-05	-5e-05	3
9972	7e-05	6e-05	8e-05	-1e-05	-4e-05	1e-05	-3e-05	-5e-05	3
9973	7e-05	6e-05	8e-05	-1e-05	-4e-05	1e-05	-3e-05	-5e-05	3
9974	7e-05	6e-05	8e-05	-1e-05	-4e-05	1e-05	-3e-05	-5e-05	3
9975	7e-05	6e-05	8e-05	-1e-05	-4e-05	1e-05	-3e-05	-5e-05	3
9976	7e-05	6e-05	8e-05	-1e-05	-4e-05	1e-05	-3e-05	-5e-05	3
9977	7e-05	6e-05	8e-05	-1e-05	-4e-05	1e-05	-3e-05	-5e-05	3
9978	7e-05	6e-05	8e-05	-1e-05	-4e-05	1e-05	-3e-05	-5e-05	3
9979	7e-05	6e-05	8e-05	-1e-05	-4e-05	1e-05	-3e-05	-5e-05	3
9980	7e-05	6e-05	8e-05	-1e-05	-4e-05	1e-05	-3e-05	-5e-05	3
9981	7e-05	6e-05	8e-05	-1e-05	-4e-05	1e-05	-3e-05	-5e-05	3
9982	7e-05	6e-05	8e-05	-1e-05	-4e-05	1e-05	-3e-05	-5e-05	3
9983	7e-05	6e-05	8e-05	-1e-05	-4e-05	1e-05	-3e-05	-5e-05	3
9984	7e-05	6e-05	8e-05	-1e-05	-4e-05	1e-05	-3e-05	-5e-05	3
9985	7e-05	6e-05	8e-05	-1e-05	-4e-05	1e-05	-3e-05	-5e-05	3
9986	7e-05	6e-05	8e-05	-1e-05	-4e-05	1e-05	-3e-05	-5e-05	3
9988	7e-05	6e-05	8e-05	-1e-05	-4e-05	1e-05	-3e-05	-5e-05	3
9990	7e-05	6e-05	8e-05	-1e-05	-4e-05	1e-05	-3e-05	-5e-05	3
9991	7e-05	6e-05	8e-05	-1e-05	-4e-05	1e-05	-3e-05	-5e-05	3
9992	7e-05	6e-05	8e-05	-1e-05	-4e-05	1e-05	-3e-05	-5e-05	3
9993	7e-05	6e-05	8e-05	-1e-05	-4e-05	1e-05	-3e-05	-5e-05	3
9994	7e-05	6e-05	8e-05	-1e-05	-4e-05	1e-05	-3e-05	-5e-05	3
9995	7e-05	6e-05	8e-05	-1e-05	-4e-05	1e-05	-3e-05	-5e-05	3
9996	7e-05	6e-05	8e-05	-1e-05	-4e-05	1e-05	-3e-05	-5e-05	3
9997	7e-05	6e-05	8e-05	-1e-05	-4e-05	1e-05	-3e-05	-5e-05	3
9998	0.00041	0.0002	3e-05	4e-05	3e-05	-0.00029	0	2e-05	3
9999	0.00041	0.0002	3e-05	4e-05	3e-05	-0.00029	0	2e-05	3
10000	-0.00039	-2e-05	-3e-05	0	4e-05	0.0006	3e-05	-0.00028	3
10001	-0.00039	-2e-05	-3e-05	0	4e-05	0.0006	3e-05	-0.00028	3
10002	-0.00039	-2e-05	-3e-05	0	4e-05	0.0006	3e-05	-0.00028	3
10003	-0.00046	0.0001	-1e-05	-1e-05	-3e-05	0.00022	4e-05	0.00011	3
10004	-0.00046	0.0001	-1e-05	-1e-05	-3e-05	0.00022	4e-05	0.00011	3
10005	-0.00046	0.0001	-1e-05	-1e-05	-3e-05	0.00022	4e-05	0.00011	3
10006	-0.00046	0.0001	-1e-05	-1e-05	-3e-05	0.00022	4e-05	0.00011	3
10007	-0.00046	0.0001	-1e-05	-1e-05	-3e-05	0.00022	4e-05	0.00011	3
10008	-0.00046	0.0001	-1e-05	-1e-05	-3e-05	0.00022	4e-05	0.00011	3
10009	-0.00046	0.0001	-1e-05	-1e-05	-3e-05	0.00022	4e-05	0.00011	3
10010	-0.00046	0.0001	-1e-05	-1e-05	-3e-05	0.00022	4e-05	0.00011	3
10011	-0.00046	0.0001	-1e-05	-1e-05	-3e-05	0.00022	4e-05	0.00011	3
10012	-0.00046	0.0001	-1e-05	-1e-05	-3e-05	0.00022	4e-05	0.00011	3
10013	-0.00046	0.0001	-1e-05	-1e-05	-3e-05	0.00022	4e-05	0.00011	3
10014	-0.00046	0.0001	-1e-05	-1e-05	-3e-05	0.00022	4e-05	0.00011	3
10015	-0.00046	0.0001	-1e-05	-1e-05	-3e-05	0.00022	4e-05	0.00011	3
10016	-0.00046	0.0001	-1e-05	-1e-05	-3e-05	0.00022	4e-05	0.00011	3
10017	-0.00046	0.0001	-1e-05	-1e-05	-3e-05	0.00022	4e-05	0.00011	3
10018	-0.00046	0.0001	-1e-05	-1e-05	-3e-05	0.00022	4e-05	0.00011	3
10019	0.00027	-3e-05	-8e-05	-3e-05	-4e-05	4e-05	-1e-05	-0.00017	3
10020	0.00027	-3e-05	-8e-05	-3e-05	-4e-05	4e-05	-1e-05	-0.00017	3
10021	0.00027	-3e-05	-8e-05	-3e-05	-4e-05	4e-05	-1e-05	-0.00017	3
10022	0.00027	-3e-05	-8e-05	-3e-05	-4e-05	4e-05	-1e-05	-0.00017	3
10023	0.00027	-3e-05	-8e-05	-3e-05	-4e-05	4e-05	-1e-05	-0.00017	3
10024	0.00027	-3e-05	-8e-05	-3e-05	-4e-05	4e-05	-1e-05	-0.00017	3
10025	0.00019	0.00025	-2e-05	-3e-05	-0.00017	-1e-05	-9e-05	8e-05	3
10026	0.00019	0.00025	-2e-05	-3e-05	-0.00017	-1e-05	-9e-05	8e-05	3
10027	0.00019	0.00025	-2e-05	-3e-05	-0.00017	-1e-05	-9e-05	8e-05	3
10028	0.00019	0.00025	-2e-05	-3e-05	-0.00017	-1e-05	-9e-05	8e-05	3
10029	0.00019	0.00025	-2e-05	-3e-05	-0.00017	-1e-05	-9e-05	8e-05	3
10030	0.00019	0.00025	-2e-05	-3e-05	-0.00017	-1e-05	-9e-05	8e-05	3
10031	0.00019	0.00025	-2e-05	-3e-05	-0.00017	-1e-05	-9e-05	8e-05	3
10034	0.00035	0.00067	2e-05	-5e-05	5e-05	0.00019	-3e-05	9e-05	3
10035	0.00035	0.00067	2e-05	-5e-05	5e-05	0.00019	-3e-05	9e-05	3
10044	0.00035	0.00067	2e-05	-5e-05	5e-05	0.00019	-3e-05	9e-05	3
10045	0.00035	0.00067	2e-05	-5e-05	5e-05	0.00019	-3e-05	9e-05	3
10046	0.00035	0.00067	2e-05	-5e-05	5e-05	0.00019	-3e-05	9e-05	3
10047	0.00035	0.00067	2e-05	-5e-05	5e-05	0.00019	-3e-05	9e-05	3
10048	0.00035	0.00067	2e-05	-5e-05	5e-05	0.00019	-3e-05	9e-05	3
10049	0.00035	0.00067	2e-05	-5e-05	5e-05	0.00019	-3e-05	9e-05	3
10050	0.00035	0.00067	2e-05	-5e-05	5e-05	0.00019	-3e-05	9e-05	3
10051	0.00035	0.00067	2e-05	-5e-05	5e-05	0.00019	-3e-05	9e-05	3
10052	0.00035	0.00067	2e-05	-5e-05	5e-05	0.00019	-3e-05	9e-05	3
10053	0.00035	0.00067	2e-05	-5e-05	5e-05	0.00019	-3e-05	9e-05	3
10054	0.00035	0.00067	2e-05	-5e-05	5e-05	0.00019	-3e-05	9e-05	3
10055	0.00035	0.00067	2e-05	-5e-05	5e-05	0.00019	-3e-05	9e-05	3
10056	0.00035	0.00067	2e-05	-5e-05	5e-05	0.00019	-3e-05	9e-05	3
10057	0.00027	-0.00016	-8e-05	-5e-05	0	7e-05	2e-05	-1e-05	3
10058	0.00027	-0.00016	-8e-05	-5e-05	0	7e-05	2e-05	-1e-05	3
10059	0.00027	-0.00016	-8e-05	-5e-05	0	7e-05	2e-05	-1e-05	3
10060	0.00027	-0.00016	-8e-05	-5e-05	0	7e-05	2e-05	-1e-05	3
10061	0.00027	-0.00016	-8e-05	-5e-05	0	7e-05	2e-05	-1e-05	3
10062	0.00027	-0.00016	-8e-05	-5e-05	0	7e-05	2e-05	-1e-05	3
10063	0.00027	-0.00016	-8e-05	-5e-05	0	7e-05	2e-05	-1e-05	3
10064	0.00027	-0.00016	-8e-05	-5e-05	0	7e-05	2e-05	-1e-05	3
10065	0.00027	-0.00016	-8e-05	-5e-05	0	7e-05	2e-05	-1e-05	3
10066	0.00027	-0.00016	-8e-05	-5e-05	0	7e-05	2e-05	-1e-05	3
10067	0.00027	-0.00016	-8e-05	-5e-05	0	7e-05	2e-05	-1e-05	3
10068	0.00027	-0.00016	-8e-05	-5e-05	0	7e-05	2e-05	-1e-05	3
10069	0.00027	-0.00016	-8e-05	-5e-05	0	7e-05	2e-05	-1e-05	3
10070	0.00027	-0.00016	-8e-05	-5e-05	0	7e-05	2e-05	-1e-05	3
10071	0	-0.00029	-0.00021	0	-2e-05	0.00016	0.00017	2e-05	3
10072	2e-05	0.00027	3e-05	4e-05	0.00014	0.00036	0	0.0001	3
10073	2e-05	0.00027	3e-05	4e-05	0.00014	0.00036	0	0.0001	3
10074	2e-05	0.00027	3e-05	4e-05	0.00014	0.00036	0	0.0001	3
10075	2e-05	0.00027	3e-05	4e-05	0.00014	0.00036	0	0.0001	3
10076	2e-05	0.00027	3e-05	4e-05	0.00014	0.00036	0	0.0001	3
10077	2e-05	0.00027	3e-05	4e-05	0.00014	0.00036	0	0.0001	3
10078	2e-05	0.00027	3e-05	4e-05	0.00014	0.00036	0	0.0001	3
10079	2e-05	0.00027	3e-05	4e-05	0.00014	0.00036	0	0.0001	3
10080	2e-05	0.00027	3e-05	4e-05	0.00014	0.00036	0	0.0001	3
10081	2e-05	0.00027	3e-05	4e-05	0.00014	0.00036	0	0.0001	3
10082	2e-05	0.00027	3e-05	4e-05	0.00014	0.00036	0	0.0001	3
10083	2e-05	0.00027	3e-05	4e-05	0.00014	0.00036	0	0.0001	3
10084	2e-05	0.00027	3e-05	4e-05	0.00014	0.00036	0	0.0001	3
10085	-0.00071	-0.00112	-7e-05	-4e-05	0.00013	-0.0001	-0.00016	-0.00015	3
10086	-0.00071	-0.00112	-7e-05	-4e-05	0.00013	-0.0001	-0.00016	-0.00015	3
10088	-0.00071	-0.00112	-7e-05	-4e-05	0.00013	-0.0001	-0.00016	-0.00015	3
10089	-0.00071	-0.00112	-7e-05	-4e-05	0.00013	-0.0001	-0.00016	-0.00015	3
10090	-0.00071	-0.00112	-7e-05	-4e-05	0.00013	-0.0001	-0.00016	-0.00015	3
10091	-0.00071	-0.00112	-7e-05	-4e-05	0.00013	-0.0001	-0.00016	-0.00015	3
10092	-0.00071	-0.00112	-7e-05	-4e-05	0.00013	-0.0001	-0.00016	-0.00015	3
10093	-0.00061	-5e-05	-1e-05	2e-05	0.00018	0.00019	-5e-05	-0.00016	3
10094	-0.00061	-5e-05	-1e-05	2e-05	0.00018	0.00019	-5e-05	-0.00016	3
10095	-0.00061	-5e-05	-1e-05	2e-05	0.00018	0.00019	-5e-05	-0.00016	3
10096	-0.00061	-5e-05	-1e-05	2e-05	0.00018	0.00019	-5e-05	-0.00016	3
10097	-0.00061	-5e-05	-1e-05	2e-05	0.00018	0.00019	-5e-05	-0.00016	3
10098	-0.00061	-5e-05	-1e-05	2e-05	0.00018	0.00019	-5e-05	-0.00016	3
10099	-0.00061	-5e-05	-1e-05	2e-05	0.00018	0.00019	-5e-05	-0.00016	3
10100	-0.00061	-5e-05	-1e-05	2e-05	0.00018	0.00019	-5e-05	-0.00016	3
10101	-0.00061	-5e-05	-1e-05	2e-05	0.00018	0.00019	-5e-05	-0.00016	3
10102	-0.00061	-5e-05	-1e-05	2e-05	0.00018	0.00019	-5e-05	-0.00016	3
10103	-0.00061	-5e-05	-1e-05	2e-05	0.00018	0.00019	-5e-05	-0.00016	3
10104	-0.00061	-5e-05	-1e-05	2e-05	0.00018	0.00019	-5e-05	-0.00016	3
10105	-0.00061	-5e-05	-1e-05	2e-05	0.00018	0.00019	-5e-05	-0.00016	3
10106	-0.00061	-5e-05	-1e-05	2e-05	0.00018	0.00019	-5e-05	-0.00016	3
10107	-0.00061	-5e-05	-1e-05	2e-05	0.00018	0.00019	-5e-05	-0.00016	3
10108	0.00028	0.00029	3e-05	-2e-05	-5e-05	-8e-05	3e-05	0.0001	3
10109	3e-05	-0.00048	-4e-05	-5e-05	-0.00014	-0.00027	-9e-05	-4e-05	3
10110	3e-05	-0.00048	-4e-05	-5e-05	-0.00014	-0.00027	-9e-05	-4e-05	3
10111	3e-05	-0.00048	-4e-05	-5e-05	-0.00014	-0.00027	-9e-05	-4e-05	3
10112	3e-05	-0.00048	-4e-05	-5e-05	-0.00014	-0.00027	-9e-05	-4e-05	3
10113	3e-05	-0.00048	-4e-05	-5e-05	-0.00014	-0.00027	-9e-05	-4e-05	3
10114	3e-05	-0.00048	-4e-05	-5e-05	-0.00014	-0.00027	-9e-05	-4e-05	3
10115	3e-05	-0.00048	-4e-05	-5e-05	-0.00014	-0.00027	-9e-05	-4e-05	3
10116	3e-05	-0.00048	-4e-05	-5e-05	-0.00014	-0.00027	-9e-05	-4e-05	3
10117	3e-05	-0.00048	-4e-05	-5e-05	-0.00014	-0.00027	-9e-05	-4e-05	3
10118	3e-05	-0.00048	-4e-05	-5e-05	-0.00014	-0.00027	-9e-05	-4e-05	3
10119	3e-05	-0.00048	-4e-05	-5e-05	-0.00014	-0.00027	-9e-05	-4e-05	3
10120	3e-05	-0.00048	-4e-05	-5e-05	-0.00014	-0.00027	-9e-05	-4e-05	3
10121	3e-05	-0.00048	-4e-05	-5e-05	-0.00014	-0.00027	-9e-05	-4e-05	3
10122	3e-05	-0.00048	-4e-05	-5e-05	-0.00014	-0.00027	-9e-05	-4e-05	3
10123	3e-05	-0.00048	-4e-05	-5e-05	-0.00014	-0.00027	-9e-05	-4e-05	3
10124	3e-05	-0.00048	-4e-05	-5e-05	-0.00014	-0.00027	-9e-05	-4e-05	3
10125	3e-05	-0.00048	-4e-05	-5e-05	-0.00014	-0.00027	-9e-05	-4e-05	3
10126	3e-05	-0.00048	-4e-05	-5e-05	-0.00014	-0.00027	-9e-05	-4e-05	3
10127	3e-05	-0.00048	-4e-05	-5e-05	-0.00014	-0.00027	-9e-05	-4e-05	3
10128	3e-05	-0.00048	-4e-05	-5e-05	-0.00014	-0.00027	-9e-05	-4e-05	3
10129	3e-05	-0.00048	-4e-05	-5e-05	-0.00014	-0.00027	-9e-05	-4e-05	3
10130	3e-05	-0.00048	-4e-05	-5e-05	-0.00014	-0.00027	-9e-05	-4e-05	3
10131	0	0.0004	4e-05	0	0.00011	0.0001	-3e-05	-8e-05	3
10132	0	0.0004	4e-05	0	0.00011	0.0001	-3e-05	-8e-05	3
10133	0	0.0004	4e-05	0	0.00011	0.0001	-3e-05	-8e-05	3
10134	0	0.0004	4e-05	0	0.00011	0.0001	-3e-05	-8e-05	3
10135	0	0.0004	4e-05	0	0.00011	0.0001	-3e-05	-8e-05	3
10136	0	0.0004	4e-05	0	0.00011	0.0001	-3e-05	-8e-05	3
10138	0	0.0004	4e-05	0	0.00011	0.0001	-3e-05	-8e-05	3
10139	-0.00047	-0.00062	-8e-05	-3e-05	-7e-05	-0.0006	-0.00012	-9e-05	3
10140	-0.00047	-0.00062	-8e-05	-3e-05	-7e-05	-0.0006	-0.00012	-9e-05	3
10141	-0.00047	-0.00062	-8e-05	-3e-05	-7e-05	-0.0006	-0.00012	-9e-05	3
10142	-0.00047	-0.00062	-8e-05	-3e-05	-7e-05	-0.0006	-0.00012	-9e-05	3
10143	-0.00047	-0.00062	-8e-05	-3e-05	-7e-05	-0.0006	-0.00012	-9e-05	3
10144	0.00011	-0.00018	-7e-05	-1e-05	7e-05	6e-05	5e-05	0	3
10145	0.0003	0.00032	-1e-05	-5e-05	2e-05	9e-05	-4e-05	8e-05	3
10146	0.0003	0.00032	-1e-05	-5e-05	2e-05	9e-05	-4e-05	8e-05	3
10147	0.0003	0.00032	-1e-05	-5e-05	2e-05	9e-05	-4e-05	8e-05	3
10148	0.0003	0.00032	-1e-05	-5e-05	2e-05	9e-05	-4e-05	8e-05	3
10149	0.0003	0.00032	-1e-05	-5e-05	2e-05	9e-05	-4e-05	8e-05	3
10150	0.0003	0.00032	-1e-05	-5e-05	2e-05	9e-05	-4e-05	8e-05	3
10151	0.0003	0.00032	-1e-05	-5e-05	2e-05	9e-05	-4e-05	8e-05	3
10152	0.0003	0.00032	-1e-05	-5e-05	2e-05	9e-05	-4e-05	8e-05	3
10153	9e-05	7e-05	8e-05	0	2e-05	1e-05	2e-05	2e-05	3
10154	9e-05	7e-05	8e-05	0	2e-05	1e-05	2e-05	2e-05	3
10155	9e-05	7e-05	8e-05	0	2e-05	1e-05	2e-05	2e-05	3
10156	9e-05	7e-05	8e-05	0	2e-05	1e-05	2e-05	2e-05	3
10157	9e-05	7e-05	8e-05	0	2e-05	1e-05	2e-05	2e-05	3
10158	9e-05	7e-05	8e-05	0	2e-05	1e-05	2e-05	2e-05	3
10159	9e-05	7e-05	8e-05	0	2e-05	1e-05	2e-05	2e-05	3
10160	9e-05	7e-05	8e-05	0	2e-05	1e-05	2e-05	2e-05	3
10161	9e-05	7e-05	8e-05	0	2e-05	1e-05	2e-05	2e-05	3
10162	9e-05	7e-05	8e-05	0	2e-05	1e-05	2e-05	2e-05	3
10163	9e-05	7e-05	8e-05	0	2e-05	1e-05	2e-05	2e-05	3
10164	9e-05	7e-05	8e-05	0	2e-05	1e-05	2e-05	2e-05	3
10165	9e-05	7e-05	8e-05	0	2e-05	1e-05	2e-05	2e-05	3
10166	9e-05	7e-05	8e-05	0	2e-05	1e-05	2e-05	2e-05	3
10167	9e-05	7e-05	8e-05	0	2e-05	1e-05	2e-05	2e-05	3
10168	0.00063	-0.00025	-1e-05	-3e-05	-0.00017	-0.00041	1e-05	-5e-05	3
10169	-1e-05	-0.0001	-5e-05	-5e-05	-0.00017	-2e-05	0.0001	0.00012	3
10170	-1e-05	-0.0001	-5e-05	-5e-05	-0.00017	-2e-05	0.0001	0.00012	3
10171	-1e-05	-0.0001	-5e-05	-5e-05	-0.00017	-2e-05	0.0001	0.00012	3
10172	-1e-05	-0.0001	-5e-05	-5e-05	-0.00017	-2e-05	0.0001	0.00012	3
10173	-1e-05	-0.0001	-5e-05	-5e-05	-0.00017	-2e-05	0.0001	0.00012	3
10174	-1e-05	-0.0001	-5e-05	-5e-05	-0.00017	-2e-05	0.0001	0.00012	3
10175	-1e-05	-0.0001	-5e-05	-5e-05	-0.00017	-2e-05	0.0001	0.00012	3
10176	-1e-05	-0.0001	-5e-05	-5e-05	-0.00017	-2e-05	0.0001	0.00012	3
10177	-1e-05	-0.0001	-5e-05	-5e-05	-0.00017	-2e-05	0.0001	0.00012	3
10178	-1e-05	-0.0001	-5e-05	-5e-05	-0.00017	-2e-05	0.0001	0.00012	3
10179	-1e-05	-0.0001	-5e-05	-5e-05	-0.00017	-2e-05	0.0001	0.00012	3
10180	-1e-05	-0.0001	-5e-05	-5e-05	-0.00017	-2e-05	0.0001	0.00012	3
10181	-1e-05	-0.0001	-5e-05	-5e-05	-0.00017	-2e-05	0.0001	0.00012	3
10182	-1e-05	-0.0001	-5e-05	-5e-05	-0.00017	-2e-05	0.0001	0.00012	3
10183	-1e-05	-0.0001	-5e-05	-5e-05	-0.00017	-2e-05	0.0001	0.00012	3
10184	-1e-05	-0.0001	-5e-05	-5e-05	-0.00017	-2e-05	0.0001	0.00012	3
10185	-1e-05	-0.0001	-5e-05	-5e-05	-0.00017	-2e-05	0.0001	0.00012	3
10186	-1e-05	-0.0001	-5e-05	-5e-05	-0.00017	-2e-05	0.0001	0.00012	3
10188	-1e-05	-0.0001	-5e-05	-5e-05	-0.00017	-2e-05	0.0001	0.00012	3
10189	-1e-05	-0.0001	-5e-05	-5e-05	-0.00017	-2e-05	0.0001	0.00012	3
10190	-1e-05	-0.0001	-5e-05	-5e-05	-0.00017	-2e-05	0.0001	0.00012	3
10191	-3e-05	-0.00018	-4e-05	-2e-05	-8e-05	-0.00016	-4e-05	0	3
10192	0.00026	3e-05	2e-05	5e-05	6e-05	-9e-05	1e-05	2e-05	3
10193	0.00026	3e-05	2e-05	5e-05	6e-05	-9e-05	1e-05	2e-05	3
10194	0.00026	3e-05	2e-05	5e-05	6e-05	-9e-05	1e-05	2e-05	3
10195	0.00026	3e-05	2e-05	5e-05	6e-05	-9e-05	1e-05	2e-05	3
10196	0.00026	3e-05	2e-05	5e-05	6e-05	-9e-05	1e-05	2e-05	3
10197	0.00026	3e-05	2e-05	5e-05	6e-05	-9e-05	1e-05	2e-05	3
10198	0.00026	3e-05	2e-05	5e-05	6e-05	-9e-05	1e-05	2e-05	3
10199	0.00026	3e-05	2e-05	5e-05	6e-05	-9e-05	1e-05	2e-05	3
10200	0.00026	3e-05	2e-05	5e-05	6e-05	-9e-05	1e-05	2e-05	3
10201	0.00026	3e-05	2e-05	5e-05	6e-05	-9e-05	1e-05	2e-05	3
10202	0.00026	3e-05	2e-05	5e-05	6e-05	-9e-05	1e-05	2e-05	3
10203	0.00026	3e-05	2e-05	5e-05	6e-05	-9e-05	1e-05	2e-05	3
10204	0.00026	3e-05	2e-05	5e-05	6e-05	-9e-05	1e-05	2e-05	3
10205	0.00026	3e-05	2e-05	5e-05	6e-05	-9e-05	1e-05	2e-05	3
10206	0.00026	3e-05	2e-05	5e-05	6e-05	-9e-05	1e-05	2e-05	3
10207	0.00026	3e-05	2e-05	5e-05	6e-05	-9e-05	1e-05	2e-05	3
10208	0.00026	3e-05	2e-05	5e-05	6e-05	-9e-05	1e-05	2e-05	3
10209	0.00026	3e-05	2e-05	5e-05	6e-05	-9e-05	1e-05	2e-05	3
10210	0.00026	3e-05	2e-05	5e-05	6e-05	-9e-05	1e-05	2e-05	3
10211	0.00026	3e-05	2e-05	5e-05	6e-05	-9e-05	1e-05	2e-05	3
10212	0.00026	3e-05	2e-05	5e-05	6e-05	-9e-05	1e-05	2e-05	3
10213	0.00019	5e-05	3e-05	0	-1e-05	0.00018	-0.00012	1e-05	3
10214	2e-05	-0.00038	-0.0001	-5e-05	6e-05	0.00015	-0.00011	-0.00024	3
10215	2e-05	-0.00038	-0.0001	-5e-05	6e-05	0.00015	-0.00011	-0.00024	3
10216	2e-05	-0.00038	-0.0001	-5e-05	6e-05	0.00015	-0.00011	-0.00024	3
10217	2e-05	-0.00038	-0.0001	-5e-05	6e-05	0.00015	-0.00011	-0.00024	3
10218	2e-05	-0.00038	-0.0001	-5e-05	6e-05	0.00015	-0.00011	-0.00024	3
10219	2e-05	-0.00038	-0.0001	-5e-05	6e-05	0.00015	-0.00011	-0.00024	3
10220	2e-05	-0.00038	-0.0001	-5e-05	6e-05	0.00015	-0.00011	-0.00024	3
10221	2e-05	-0.00038	-0.0001	-5e-05	6e-05	0.00015	-0.00011	-0.00024	3
10222	2e-05	-0.00038	-0.0001	-5e-05	6e-05	0.00015	-0.00011	-0.00024	3
10223	2e-05	-0.00038	-0.0001	-5e-05	6e-05	0.00015	-0.00011	-0.00024	3
10224	2e-05	-0.00038	-0.0001	-5e-05	6e-05	0.00015	-0.00011	-0.00024	3
10225	2e-05	-0.00038	-0.0001	-5e-05	6e-05	0.00015	-0.00011	-0.00024	3
10226	2e-05	-0.00038	-0.0001	-5e-05	6e-05	0.00015	-0.00011	-0.00024	3
10227	2e-05	-0.00038	-0.0001	-5e-05	6e-05	0.00015	-0.00011	-0.00024	3
10228	2e-05	-0.00038	-0.0001	-5e-05	6e-05	0.00015	-0.00011	-0.00024	3
10229	2e-05	-0.00038	-0.0001	-5e-05	6e-05	0.00015	-0.00011	-0.00024	3
10230	2e-05	-0.00038	-0.0001	-5e-05	6e-05	0.00015	-0.00011	-0.00024	3
10231	2e-05	-0.00038	-0.0001	-5e-05	6e-05	0.00015	-0.00011	-0.00024	3
10232	2e-05	-0.00038	-0.0001	-5e-05	6e-05	0.00015	-0.00011	-0.00024	3
10233	2e-05	-0.00038	-0.0001	-5e-05	6e-05	0.00015	-0.00011	-0.00024	3
10234	2e-05	-0.00038	-0.0001	-5e-05	6e-05	0.00015	-0.00011	-0.00024	3
10235	2e-05	-0.00038	-0.0001	-5e-05	6e-05	0.00015	-0.00011	-0.00024	3
10236	-4e-05	-0.0001	0	-1e-05	-3e-05	-0.00012	-8e-05	3e-05	3
10238	0.00017	0.00018	3e-05	4e-05	0.00012	0.00017	7e-05	3e-05	3
10239	0.00017	0.00018	3e-05	4e-05	0.00012	0.00017	7e-05	3e-05	3
10240	0.00017	0.00018	3e-05	4e-05	0.00012	0.00017	7e-05	3e-05	3
10241	0.00017	0.00018	3e-05	4e-05	0.00012	0.00017	7e-05	3e-05	3
10242	0.00017	0.00018	3e-05	4e-05	0.00012	0.00017	7e-05	3e-05	3
10243	0.00017	0.00018	3e-05	4e-05	0.00012	0.00017	7e-05	3e-05	3
10244	0.00017	0.00018	3e-05	4e-05	0.00012	0.00017	7e-05	3e-05	3
10245	0.00017	0.00018	3e-05	4e-05	0.00012	0.00017	7e-05	3e-05	3
10246	0.00017	0.00018	3e-05	4e-05	0.00012	0.00017	7e-05	3e-05	3
10247	0.00017	0.00018	3e-05	4e-05	0.00012	0.00017	7e-05	3e-05	3
10248	0.00017	0.00018	3e-05	4e-05	0.00012	0.00017	7e-05	3e-05	3
10249	0.00017	0.00018	3e-05	4e-05	0.00012	0.00017	7e-05	3e-05	3
10250	0.00017	0.00018	3e-05	4e-05	0.00012	0.00017	7e-05	3e-05	3
10251	-0.00046	-0.00016	5e-05	3e-05	0.00022	-0.00015	-9e-05	-6e-05	3
10252	-1e-05	0.0004	-2e-05	-4e-05	-0.00014	-6e-05	7e-05	0.00021	3
10253	-1e-05	0.0004	-2e-05	-4e-05	-0.00014	-6e-05	7e-05	0.00021	3
10254	-1e-05	0.0004	-2e-05	-4e-05	-0.00014	-6e-05	7e-05	0.00021	3
10255	-1e-05	0.0004	-2e-05	-4e-05	-0.00014	-6e-05	7e-05	0.00021	3
10256	-1e-05	0.0004	-2e-05	-4e-05	-0.00014	-6e-05	7e-05	0.00021	3
10257	-1e-05	0.0004	-2e-05	-4e-05	-0.00014	-6e-05	7e-05	0.00021	3
10258	-1e-05	0.0004	-2e-05	-4e-05	-0.00014	-6e-05	7e-05	0.00021	3
10259	-1e-05	0.0004	-2e-05	-4e-05	-0.00014	-6e-05	7e-05	0.00021	3
10260	-1e-05	0.0004	-2e-05	-4e-05	-0.00014	-6e-05	7e-05	0.00021	3
10261	-1e-05	0.0004	-2e-05	-4e-05	-0.00014	-6e-05	7e-05	0.00021	3
10262	-1e-05	0.0004	-2e-05	-4e-05	-0.00014	-6e-05	7e-05	0.00021	3
10263	-1e-05	0.0004	-2e-05	-4e-05	-0.00014	-6e-05	7e-05	0.00021	3
10264	-1e-05	0.0004	-2e-05	-4e-05	-0.00014	-6e-05	7e-05	0.00021	3
10265	-1e-05	0.0004	-2e-05	-4e-05	-0.00014	-6e-05	7e-05	0.00021	3
10266	-1e-05	0.0004	-2e-05	-4e-05	-0.00014	-6e-05	7e-05	0.00021	3
10267	-1e-05	0.0004	-2e-05	-4e-05	-0.00014	-6e-05	7e-05	0.00021	3
10268	-1e-05	0.0004	-2e-05	-4e-05	-0.00014	-6e-05	7e-05	0.00021	3
10269	-1e-05	0.0004	-2e-05	-4e-05	-0.00014	-6e-05	7e-05	0.00021	3
10270	-1e-05	0.0004	-2e-05	-4e-05	-0.00014	-6e-05	7e-05	0.00021	3
10271	-1e-05	0.0004	-2e-05	-4e-05	-0.00014	-6e-05	7e-05	0.00021	3
10272	-1e-05	0.0004	-2e-05	-4e-05	-0.00014	-6e-05	7e-05	0.00021	3
10273	-1e-05	0.0004	-2e-05	-4e-05	-0.00014	-6e-05	7e-05	0.00021	3
10274	-0.00027	-2e-05	0	8e-05	0.00012	5e-05	-4e-05	-8e-05	3
10275	-0.00027	-2e-05	0	8e-05	0.00012	5e-05	-4e-05	-8e-05	3
10276	-0.00027	-2e-05	0	8e-05	0.00012	5e-05	-4e-05	-8e-05	3
10277	-0.00027	-2e-05	0	8e-05	0.00012	5e-05	-4e-05	-8e-05	3
10278	-0.00027	-2e-05	0	8e-05	0.00012	5e-05	-4e-05	-8e-05	3
10279	-0.00027	-2e-05	0	8e-05	0.00012	5e-05	-4e-05	-8e-05	3
10280	-0.00027	-2e-05	0	8e-05	0.00012	5e-05	-4e-05	-8e-05	3
10281	-0.00027	-2e-05	0	8e-05	0.00012	5e-05	-4e-05	-8e-05	3
10282	-0.00027	-2e-05	0	8e-05	0.00012	5e-05	-4e-05	-8e-05	3
10283	-0.00027	-2e-05	0	8e-05	0.00012	5e-05	-4e-05	-8e-05	3
10284	-0.00027	-2e-05	0	8e-05	0.00012	5e-05	-4e-05	-8e-05	3
10285	-0.00027	-2e-05	0	8e-05	0.00012	5e-05	-4e-05	-8e-05	3
10286	-0.00027	-2e-05	0	8e-05	0.00012	5e-05	-4e-05	-8e-05	3
10289	-0.00052	-0.00031	-4e-05	-3e-05	-0.00012	0.00025	-3e-05	-6e-05	3
10290	-0.00052	-0.00031	-4e-05	-3e-05	-0.00012	0.00025	-3e-05	-6e-05	3
10291	-0.00052	-0.00031	-4e-05	-3e-05	-0.00012	0.00025	-3e-05	-6e-05	3
10292	-0.00052	-0.00031	-4e-05	-3e-05	-0.00012	0.00025	-3e-05	-6e-05	3
10293	-0.00052	-0.00031	-4e-05	-3e-05	-0.00012	0.00025	-3e-05	-6e-05	3
10294	-0.00052	-0.00031	-4e-05	-3e-05	-0.00012	0.00025	-3e-05	-6e-05	3
10295	0.00019	0.00027	7e-05	2e-05	9e-05	0	0	9e-05	3
10296	0	-0.00017	-6e-05	-5e-05	-4e-05	6e-05	-3e-05	0	3
10298	0	-0.00017	-6e-05	-5e-05	-4e-05	6e-05	-3e-05	0	3
10299	0	-0.00017	-6e-05	-5e-05	-4e-05	6e-05	-3e-05	0	3
10300	0	-0.00017	-6e-05	-5e-05	-4e-05	6e-05	-3e-05	0	3
10301	0	-0.00017	-6e-05	-5e-05	-4e-05	6e-05	-3e-05	0	3
10302	0	-0.00017	-6e-05	-5e-05	-4e-05	6e-05	-3e-05	0	3
10303	0	-0.00017	-6e-05	-5e-05	-4e-05	6e-05	-3e-05	0	3
10304	0	-0.00017	-6e-05	-5e-05	-4e-05	6e-05	-3e-05	0	3
10305	0	-0.00017	-6e-05	-5e-05	-4e-05	6e-05	-3e-05	0	3
10306	0	-0.00017	-6e-05	-5e-05	-4e-05	6e-05	-3e-05	0	3
10307	0	-0.00017	-6e-05	-5e-05	-4e-05	6e-05	-3e-05	0	3
10308	0	-0.00017	-6e-05	-5e-05	-4e-05	6e-05	-3e-05	0	3
10309	0	-0.00017	-6e-05	-5e-05	-4e-05	6e-05	-3e-05	0	3
10310	0	-0.00017	-6e-05	-5e-05	-4e-05	6e-05	-3e-05	0	3
10311	0.00012	0.00011	5e-05	4e-05	-4e-05	-0.00036	-8e-05	-9e-05	3
10312	-0.00011	-4e-05	-4e-05	-1e-05	-1e-05	-0.00029	-1e-05	-9e-05	3
10313	-0.00011	-4e-05	-4e-05	-1e-05	-1e-05	-0.00029	-1e-05	-9e-05	3
10314	-0.00011	-4e-05	-4e-05	-1e-05	-1e-05	-0.00029	-1e-05	-9e-05	3
10315	-0.00011	-4e-05	-4e-05	-1e-05	-1e-05	-0.00029	-1e-05	-9e-05	3
10316	-0.00011	-4e-05	-4e-05	-1e-05	-1e-05	-0.00029	-1e-05	-9e-05	3
10317	-0.00011	-4e-05	-4e-05	-1e-05	-1e-05	-0.00029	-1e-05	-9e-05	3
10318	-0.00011	-4e-05	-4e-05	-1e-05	-1e-05	-0.00029	-1e-05	-9e-05	3
10319	-0.00011	-4e-05	-4e-05	-1e-05	-1e-05	-0.00029	-1e-05	-9e-05	3
10320	-0.00011	-4e-05	-4e-05	-1e-05	-1e-05	-0.00029	-1e-05	-9e-05	3
10321	-0.00011	-4e-05	-4e-05	-1e-05	-1e-05	-0.00029	-1e-05	-9e-05	3
10322	-0.00011	-4e-05	-4e-05	-1e-05	-1e-05	-0.00029	-1e-05	-9e-05	3
10323	-0.00011	-4e-05	-4e-05	-1e-05	-1e-05	-0.00029	-1e-05	-9e-05	3
10324	-0.00011	-4e-05	-4e-05	-1e-05	-1e-05	-0.00029	-1e-05	-9e-05	3
10325	-0.00011	-4e-05	-4e-05	-1e-05	-1e-05	-0.00029	-1e-05	-9e-05	3
10326	-0.00011	-4e-05	-4e-05	-1e-05	-1e-05	-0.00029	-1e-05	-9e-05	3
10327	-0.00011	-4e-05	-4e-05	-1e-05	-1e-05	-0.00029	-1e-05	-9e-05	3
10328	-0.00011	-4e-05	-4e-05	-1e-05	-1e-05	-0.00029	-1e-05	-9e-05	3
10329	-0.00011	-4e-05	-4e-05	-1e-05	-1e-05	-0.00029	-1e-05	-9e-05	3
10330	-0.00011	-4e-05	-4e-05	-1e-05	-1e-05	-0.00029	-1e-05	-9e-05	3
10331	-0.00011	-4e-05	-4e-05	-1e-05	-1e-05	-0.00029	-1e-05	-9e-05	3
10332	-0.00011	-4e-05	-4e-05	-1e-05	-1e-05	-0.00029	-1e-05	-9e-05	3
10333	0.00017	0.00012	0	-3e-05	2e-05	0.0003	7e-05	-2e-05	3
10334	0.00033	-5e-05	0.00014	0	0	0.00013	0.00011	4e-05	3
10335	0.00033	-5e-05	0.00014	0	0	0.00013	0.00011	4e-05	3
10336	0.00033	-5e-05	0.00014	0	0	0.00013	0.00011	4e-05	3
10339	0.00033	-5e-05	0.00014	0	0	0.00013	0.00011	4e-05	3
10340	0.00033	-5e-05	0.00014	0	0	0.00013	0.00011	4e-05	3
10341	0.00033	-5e-05	0.00014	0	0	0.00013	0.00011	4e-05	3
10342	0.00033	-5e-05	0.00014	0	0	0.00013	0.00011	4e-05	3
10343	0.00033	-5e-05	0.00014	0	0	0.00013	0.00011	4e-05	3
10344	0.00033	-5e-05	0.00014	0	0	0.00013	0.00011	4e-05	3
10345	0.00033	-5e-05	0.00014	0	0	0.00013	0.00011	4e-05	3
10346	0.00033	-5e-05	0.00014	0	0	0.00013	0.00011	4e-05	3
10347	0.00033	-5e-05	0.00014	0	0	0.00013	0.00011	4e-05	3
10348	0.00015	-0.0002	-1e-05	-1e-05	1e-05	2e-05	0.00019	8e-05	3
10350	0.00015	-0.0002	-1e-05	-1e-05	1e-05	2e-05	0.00019	8e-05	3
10351	0.00015	-0.0002	-1e-05	-1e-05	1e-05	2e-05	0.00019	8e-05	3
10352	0.00015	-0.0002	-1e-05	-1e-05	1e-05	2e-05	0.00019	8e-05	3
10353	0.00015	-0.0002	-1e-05	-1e-05	1e-05	2e-05	0.00019	8e-05	3
10354	0.00015	-0.0002	-1e-05	-1e-05	1e-05	2e-05	0.00019	8e-05	3
10355	-0.00021	-0.00017	-2e-05	-1e-05	2e-05	-4e-05	-2e-05	0.0002	3
10356	-0.00021	-0.00017	-2e-05	-1e-05	2e-05	-4e-05	-2e-05	0.0002	3
10357	-0.00021	-0.00017	-2e-05	-1e-05	2e-05	-4e-05	-2e-05	0.0002	3
10358	-0.00021	-0.00017	-2e-05	-1e-05	2e-05	-4e-05	-2e-05	0.0002	3
10359	-0.00021	-0.00017	-2e-05	-1e-05	2e-05	-4e-05	-2e-05	0.0002	3
10360	-0.00021	-0.00017	-2e-05	-1e-05	2e-05	-4e-05	-2e-05	0.0002	3
10361	-0.00021	-0.00017	-2e-05	-1e-05	2e-05	-4e-05	-2e-05	0.0002	3
10362	-0.00021	-0.00017	-2e-05	-1e-05	2e-05	-4e-05	-2e-05	0.0002	3
10363	-0.00021	-0.00017	-2e-05	-1e-05	2e-05	-4e-05	-2e-05	0.0002	3
10364	-0.00021	-0.00017	-2e-05	-1e-05	2e-05	-4e-05	-2e-05	0.0002	3
10365	-0.00021	-0.00017	-2e-05	-1e-05	2e-05	-4e-05	-2e-05	0.0002	3
10366	-0.00021	-0.00017	-2e-05	-1e-05	2e-05	-4e-05	-2e-05	0.0002	3
10367	-0.00021	-0.00017	-2e-05	-1e-05	2e-05	-4e-05	-2e-05	0.0002	3
10368	-0.00021	-0.00017	-2e-05	-1e-05	2e-05	-4e-05	-2e-05	0.0002	3
10369	-0.00021	-0.00017	-2e-05	-1e-05	2e-05	-4e-05	-2e-05	0.0002	3
10370	-0.00021	-0.00017	-2e-05	-1e-05	2e-05	-4e-05	-2e-05	0.0002	3
10371	-5e-05	7e-05	-2e-05	2e-05	2e-05	-2e-05	-3e-05	-2e-05	3
10372	6e-05	-3e-05	-5e-05	-6e-05	-0.00011	1e-05	-4e-05	-2e-05	3
10373	6e-05	-3e-05	-5e-05	-6e-05	-0.00011	1e-05	-4e-05	-2e-05	3
10374	6e-05	-3e-05	-5e-05	-6e-05	-0.00011	1e-05	-4e-05	-2e-05	3
10375	6e-05	-3e-05	-5e-05	-6e-05	-0.00011	1e-05	-4e-05	-2e-05	3
10376	6e-05	-3e-05	-5e-05	-6e-05	-0.00011	1e-05	-4e-05	-2e-05	3
10377	6e-05	-3e-05	-5e-05	-6e-05	-0.00011	1e-05	-4e-05	-2e-05	3
10378	6e-05	-3e-05	-5e-05	-6e-05	-0.00011	1e-05	-4e-05	-2e-05	3
10379	6e-05	-3e-05	-5e-05	-6e-05	-0.00011	1e-05	-4e-05	-2e-05	3
10380	6e-05	-3e-05	-5e-05	-6e-05	-0.00011	1e-05	-4e-05	-2e-05	3
10381	6e-05	-3e-05	-5e-05	-6e-05	-0.00011	1e-05	-4e-05	-2e-05	3
10382	6e-05	-3e-05	-5e-05	-6e-05	-0.00011	1e-05	-4e-05	-2e-05	3
10383	6e-05	-3e-05	-5e-05	-6e-05	-0.00011	1e-05	-4e-05	-2e-05	3
10384	6e-05	-3e-05	-5e-05	-6e-05	-0.00011	1e-05	-4e-05	-2e-05	3
10385	6e-05	-3e-05	-5e-05	-6e-05	-0.00011	1e-05	-4e-05	-2e-05	3
10386	6e-05	-3e-05	-5e-05	-6e-05	-0.00011	1e-05	-4e-05	-2e-05	3
10389	6e-05	-3e-05	-5e-05	-6e-05	-0.00011	1e-05	-4e-05	-2e-05	3
10390	6e-05	-3e-05	-5e-05	-6e-05	-0.00011	1e-05	-4e-05	-2e-05	3
10391	6e-05	-3e-05	-5e-05	-6e-05	-0.00011	1e-05	-4e-05	-2e-05	3
10392	6e-05	-3e-05	-5e-05	-6e-05	-0.00011	1e-05	-4e-05	-2e-05	3
10393	-0.00034	-0.00021	-3e-05	-1e-05	-3e-05	2e-05	-2e-05	-5e-05	3
10394	-0.00025	0	-7e-05	-4e-05	-3e-05	-2e-05	-3e-05	-5e-05	3
10395	-0.00025	0	-7e-05	-4e-05	-3e-05	-2e-05	-3e-05	-5e-05	3
10396	-0.00025	0	-7e-05	-4e-05	-3e-05	-2e-05	-3e-05	-5e-05	3
10397	-0.00025	0	-7e-05	-4e-05	-3e-05	-2e-05	-3e-05	-5e-05	3
10398	-0.00025	0	-7e-05	-4e-05	-3e-05	-2e-05	-3e-05	-5e-05	3
10399	-0.00025	0	-7e-05	-4e-05	-3e-05	-2e-05	-3e-05	-5e-05	3
10400	-0.00025	0	-7e-05	-4e-05	-3e-05	-2e-05	-3e-05	-5e-05	3
10401	-0.00025	0	-7e-05	-4e-05	-3e-05	-2e-05	-3e-05	-5e-05	3
10402	-0.00025	0	-7e-05	-4e-05	-3e-05	-2e-05	-3e-05	-5e-05	3
10403	-0.00025	0	-7e-05	-4e-05	-3e-05	-2e-05	-3e-05	-5e-05	3
10404	-0.00025	0	-7e-05	-4e-05	-3e-05	-2e-05	-3e-05	-5e-05	3
10405	-0.00025	0	-7e-05	-4e-05	-3e-05	-2e-05	-3e-05	-5e-05	3
10406	-0.00025	0	-7e-05	-4e-05	-3e-05	-2e-05	-3e-05	-5e-05	3
10407	-0.00025	0	-7e-05	-4e-05	-3e-05	-2e-05	-3e-05	-5e-05	3
10408	0.00013	0.00047	-5e-05	-5e-05	-8e-05	0.00015	0.0001	-3e-05	3
10409	-7e-05	0.00037	4e-05	2e-05	3e-05	0.0004	-3e-05	-0.00012	3
10410	-7e-05	0.00037	4e-05	2e-05	3e-05	0.0004	-3e-05	-0.00012	3
10411	-7e-05	0.00037	4e-05	2e-05	3e-05	0.0004	-3e-05	-0.00012	3
10412	-7e-05	0.00037	4e-05	2e-05	3e-05	0.0004	-3e-05	-0.00012	3
10413	-7e-05	0.00037	4e-05	2e-05	3e-05	0.0004	-3e-05	-0.00012	3
10414	-7e-05	0.00037	4e-05	2e-05	3e-05	0.0004	-3e-05	-0.00012	3
10415	-7e-05	0.00037	4e-05	2e-05	3e-05	0.0004	-3e-05	-0.00012	3
10416	-7e-05	0.00037	4e-05	2e-05	3e-05	0.0004	-3e-05	-0.00012	3
10417	-7e-05	0.00037	4e-05	2e-05	3e-05	0.0004	-3e-05	-0.00012	3
10418	-7e-05	0.00037	4e-05	2e-05	3e-05	0.0004	-3e-05	-0.00012	3
10419	-7e-05	0.00037	4e-05	2e-05	3e-05	0.0004	-3e-05	-0.00012	3
10420	-7e-05	0.00037	4e-05	2e-05	3e-05	0.0004	-3e-05	-0.00012	3
10421	-7e-05	0.00037	4e-05	2e-05	3e-05	0.0004	-3e-05	-0.00012	3
10422	-7e-05	0.00037	4e-05	2e-05	3e-05	0.0004	-3e-05	-0.00012	3
10423	-7e-05	0.00037	4e-05	2e-05	3e-05	0.0004	-3e-05	-0.00012	3
10424	-7e-05	0.00037	4e-05	2e-05	3e-05	0.0004	-3e-05	-0.00012	3
10425	-7e-05	0.00037	4e-05	2e-05	3e-05	0.0004	-3e-05	-0.00012	3
10426	-7e-05	0.00037	4e-05	2e-05	3e-05	0.0004	-3e-05	-0.00012	3
10427	-7e-05	0.00037	4e-05	2e-05	3e-05	0.0004	-3e-05	-0.00012	3
10428	-7e-05	0.00037	4e-05	2e-05	3e-05	0.0004	-3e-05	-0.00012	3
10429	-7e-05	0.00037	4e-05	2e-05	3e-05	0.0004	-3e-05	-0.00012	3
10430	-7e-05	0.00037	4e-05	2e-05	3e-05	0.0004	-3e-05	-0.00012	3
10431	4e-05	0.00017	7e-05	3e-05	0.00015	0.00019	3e-05	3e-05	3
10432	0.0004	0.00017	-4e-05	-8e-05	-0.00011	-0.00022	4e-05	3e-05	3
10433	0.0004	0.00017	-4e-05	-8e-05	-0.00011	-0.00022	4e-05	3e-05	3
10434	0.0004	0.00017	-4e-05	-8e-05	-0.00011	-0.00022	4e-05	3e-05	3
10435	0.0004	0.00017	-4e-05	-8e-05	-0.00011	-0.00022	4e-05	3e-05	3
10436	0.0004	0.00017	-4e-05	-8e-05	-0.00011	-0.00022	4e-05	3e-05	3
10438	0.0004	0.00017	-4e-05	-8e-05	-0.00011	-0.00022	4e-05	3e-05	3
10439	0.0004	0.00017	-4e-05	-8e-05	-0.00011	-0.00022	4e-05	3e-05	3
10440	0.0004	0.00017	-4e-05	-8e-05	-0.00011	-0.00022	4e-05	3e-05	3
10441	0.0004	0.00017	-4e-05	-8e-05	-0.00011	-0.00022	4e-05	3e-05	3
10442	0.0004	0.00017	-4e-05	-8e-05	-0.00011	-0.00022	4e-05	3e-05	3
10443	0.0004	0.00017	-4e-05	-8e-05	-0.00011	-0.00022	4e-05	3e-05	3
10444	0.0004	0.00017	-4e-05	-8e-05	-0.00011	-0.00022	4e-05	3e-05	3
10445	0.0004	0.00017	-4e-05	-8e-05	-0.00011	-0.00022	4e-05	3e-05	3
10446	0.0004	0.00017	-4e-05	-8e-05	-0.00011	-0.00022	4e-05	3e-05	3
10447	0.0004	0.00017	-4e-05	-8e-05	-0.00011	-0.00022	4e-05	3e-05	3
10448	0.0004	0.00017	-4e-05	-8e-05	-0.00011	-0.00022	4e-05	3e-05	3
10449	0.0004	0.00017	-4e-05	-8e-05	-0.00011	-0.00022	4e-05	3e-05	3
10450	0.0004	0.00017	-4e-05	-8e-05	-0.00011	-0.00022	4e-05	3e-05	3
10451	0.0004	0.00017	-4e-05	-8e-05	-0.00011	-0.00022	4e-05	3e-05	3
10452	0.0004	0.00017	-4e-05	-8e-05	-0.00011	-0.00022	4e-05	3e-05	3
10453	0.0004	0.00017	-4e-05	-8e-05	-0.00011	-0.00022	4e-05	3e-05	3
10454	-6e-05	0.00014	-2e-05	-3e-05	-2e-05	-5e-05	-0.00012	-0.00012	3
10455	-0.00026	-2e-05	-0.00012	0	8e-05	-0.00032	6e-05	-0.00022	3
10456	-0.00026	-2e-05	-0.00012	0	8e-05	-0.00032	6e-05	-0.00022	3
10457	-0.00026	-2e-05	-0.00012	0	8e-05	-0.00032	6e-05	-0.00022	3
10458	-0.00026	-2e-05	-0.00012	0	8e-05	-0.00032	6e-05	-0.00022	3
10459	-0.00026	-2e-05	-0.00012	0	8e-05	-0.00032	6e-05	-0.00022	3
10460	-0.00026	-2e-05	-0.00012	0	8e-05	-0.00032	6e-05	-0.00022	3
10461	-0.00026	-2e-05	-0.00012	0	8e-05	-0.00032	6e-05	-0.00022	3
10462	-0.00026	-2e-05	-0.00012	0	8e-05	-0.00032	6e-05	-0.00022	3
10463	-0.00026	-2e-05	-0.00012	0	8e-05	-0.00032	6e-05	-0.00022	3
10464	-0.00026	-2e-05	-0.00012	0	8e-05	-0.00032	6e-05	-0.00022	3
10465	-0.00026	-2e-05	-0.00012	0	8e-05	-0.00032	6e-05	-0.00022	3
10466	-0.00026	-2e-05	-0.00012	0	8e-05	-0.00032	6e-05	-0.00022	3
10467	-0.00026	-2e-05	-0.00012	0	8e-05	-0.00032	6e-05	-0.00022	3
10468	1e-05	-0.00017	-5e-05	0	-9e-05	-0.0004	-2e-05	4e-05	3
10469	-2e-05	-0.00021	-2e-05	0	1e-05	3e-05	7e-05	-2e-05	3
10470	-2e-05	-0.00021	-2e-05	0	1e-05	3e-05	7e-05	-2e-05	3
10471	-2e-05	-0.00021	-2e-05	0	1e-05	3e-05	7e-05	-2e-05	3
10472	-2e-05	-0.00021	-2e-05	0	1e-05	3e-05	7e-05	-2e-05	3
10473	-2e-05	-0.00021	-2e-05	0	1e-05	3e-05	7e-05	-2e-05	3
10474	-2e-05	-0.00021	-2e-05	0	1e-05	3e-05	7e-05	-2e-05	3
10475	-2e-05	-0.00021	-2e-05	0	1e-05	3e-05	7e-05	-2e-05	3
10476	-2e-05	-0.00021	-2e-05	0	1e-05	3e-05	7e-05	-2e-05	3
10477	-2e-05	-0.00021	-2e-05	0	1e-05	3e-05	7e-05	-2e-05	3
10478	-2e-05	-0.00021	-2e-05	0	1e-05	3e-05	7e-05	-2e-05	3
10479	-2e-05	-0.00021	-2e-05	0	1e-05	3e-05	7e-05	-2e-05	3
10480	-2e-05	-0.00021	-2e-05	0	1e-05	3e-05	7e-05	-2e-05	3
10481	-2e-05	-0.00021	-2e-05	0	1e-05	3e-05	7e-05	-2e-05	3
10482	-2e-05	-0.00021	-2e-05	0	1e-05	3e-05	7e-05	-2e-05	3
10483	-2e-05	-0.00021	-2e-05	0	1e-05	3e-05	7e-05	-2e-05	3
10484	-2e-05	-0.00021	-2e-05	0	1e-05	3e-05	7e-05	-2e-05	3
10485	-2e-05	-0.00021	-2e-05	0	1e-05	3e-05	7e-05	-2e-05	3
10486	-2e-05	-0.00021	-2e-05	0	1e-05	3e-05	7e-05	-2e-05	3
10488	-2e-05	-0.00021	-2e-05	0	1e-05	3e-05	7e-05	-2e-05	3
10489	-2e-05	-0.00021	-2e-05	0	1e-05	3e-05	7e-05	-2e-05	3
10490	-2e-05	-0.00021	-2e-05	0	1e-05	3e-05	7e-05	-2e-05	3
10491	3e-05	-7e-05	-3e-05	-6e-05	-9e-05	-0.00015	-9e-05	0	3
10492	0.00014	-0.00011	3e-05	0	2e-05	0.00012	1e-05	4e-05	3
10493	0.00014	-0.00011	3e-05	0	2e-05	0.00012	1e-05	4e-05	3
10494	0.00014	-0.00011	3e-05	0	2e-05	0.00012	1e-05	4e-05	3
10495	0.00014	-0.00011	3e-05	0	2e-05	0.00012	1e-05	4e-05	3
10496	0.00014	-0.00011	3e-05	0	2e-05	0.00012	1e-05	4e-05	3
10497	0.00014	-0.00011	3e-05	0	2e-05	0.00012	1e-05	4e-05	3
10498	0.00014	-0.00011	3e-05	0	2e-05	0.00012	1e-05	4e-05	3
10499	0.00014	-0.00011	3e-05	0	2e-05	0.00012	1e-05	4e-05	3
10500	0.00014	-0.00011	3e-05	0	2e-05	0.00012	1e-05	4e-05	3
10501	0.00014	-0.00011	3e-05	0	2e-05	0.00012	1e-05	4e-05	3
10502	0.00014	-0.00011	3e-05	0	2e-05	0.00012	1e-05	4e-05	3
10503	0.00014	-0.00011	3e-05	0	2e-05	0.00012	1e-05	4e-05	3
10504	0.00014	-0.00011	3e-05	0	2e-05	0.00012	1e-05	4e-05	3
10505	0.00014	-0.00011	3e-05	0	2e-05	0.00012	1e-05	4e-05	3
10506	0.00014	-0.00011	3e-05	0	2e-05	0.00012	1e-05	4e-05	3
10507	0.00014	-0.00011	3e-05	0	2e-05	0.00012	1e-05	4e-05	3
10508	0.00014	-0.00011	3e-05	0	2e-05	0.00012	1e-05	4e-05	3
10509	0.00014	-0.00011	3e-05	0	2e-05	0.00012	1e-05	4e-05	3
10510	0.00014	-0.00011	3e-05	0	2e-05	0.00012	1e-05	4e-05	3
10511	0.00014	-0.00011	3e-05	0	2e-05	0.00012	1e-05	4e-05	3
10512	0.00014	-0.00011	3e-05	0	2e-05	0.00012	1e-05	4e-05	3
10513	0.00014	-0.00011	3e-05	0	2e-05	0.00012	1e-05	4e-05	3
10514	0.00038	0.0002	3e-05	3e-05	4e-05	8e-05	-0.00018	-7e-05	3
10515	-0.00019	2e-05	-5e-05	-5e-05	5e-05	-4e-05	9e-05	0.00012	3
10516	-0.00019	2e-05	-5e-05	-5e-05	5e-05	-4e-05	9e-05	0.00012	3
10517	-0.00019	2e-05	-5e-05	-5e-05	5e-05	-4e-05	9e-05	0.00012	3
10518	-0.00019	2e-05	-5e-05	-5e-05	5e-05	-4e-05	9e-05	0.00012	3
10519	-0.00019	2e-05	-5e-05	-5e-05	5e-05	-4e-05	9e-05	0.00012	3
10520	-0.00019	2e-05	-5e-05	-5e-05	5e-05	-4e-05	9e-05	0.00012	3
10521	-0.00019	2e-05	-5e-05	-5e-05	5e-05	-4e-05	9e-05	0.00012	3
10522	-0.00019	2e-05	-5e-05	-5e-05	5e-05	-4e-05	9e-05	0.00012	3
10523	-0.00019	2e-05	-5e-05	-5e-05	5e-05	-4e-05	9e-05	0.00012	3
10524	-0.00019	2e-05	-5e-05	-5e-05	5e-05	-4e-05	9e-05	0.00012	3
10525	-0.00019	2e-05	-5e-05	-5e-05	5e-05	-4e-05	9e-05	0.00012	3
10526	-0.00019	2e-05	-5e-05	-5e-05	5e-05	-4e-05	9e-05	0.00012	3
10527	0.00031	0.00021	5e-05	4e-05	1e-05	-3e-05	-8e-05	1e-05	3
10528	0.00031	0.00021	5e-05	4e-05	1e-05	-3e-05	-8e-05	1e-05	3
10529	2e-05	-0.00011	1e-05	-1e-05	-0.00014	-0.00032	-7e-05	-1e-05	3
10530	2e-05	-0.00011	1e-05	-1e-05	-0.00014	-0.00032	-7e-05	-1e-05	3
10531	2e-05	-0.00011	1e-05	-1e-05	-0.00014	-0.00032	-7e-05	-1e-05	3
10532	2e-05	-0.00011	1e-05	-1e-05	-0.00014	-0.00032	-7e-05	-1e-05	3
10533	2e-05	-0.00011	1e-05	-1e-05	-0.00014	-0.00032	-7e-05	-1e-05	3
10534	2e-05	-0.00011	1e-05	-1e-05	-0.00014	-0.00032	-7e-05	-1e-05	3
10535	2e-05	-0.00011	1e-05	-1e-05	-0.00014	-0.00032	-7e-05	-1e-05	3
10536	2e-05	-0.00011	1e-05	-1e-05	-0.00014	-0.00032	-7e-05	-1e-05	3
10538	2e-05	-0.00011	1e-05	-1e-05	-0.00014	-0.00032	-7e-05	-1e-05	3
10539	2e-05	-0.00011	1e-05	-1e-05	-0.00014	-0.00032	-7e-05	-1e-05	3
10540	2e-05	-0.00011	1e-05	-1e-05	-0.00014	-0.00032	-7e-05	-1e-05	3
10541	2e-05	-0.00011	1e-05	-1e-05	-0.00014	-0.00032	-7e-05	-1e-05	3
10542	2e-05	-0.00011	1e-05	-1e-05	-0.00014	-0.00032	-7e-05	-1e-05	3
10543	2e-05	-0.00011	1e-05	-1e-05	-0.00014	-0.00032	-7e-05	-1e-05	3
10544	2e-05	-0.00011	1e-05	-1e-05	-0.00014	-0.00032	-7e-05	-1e-05	3
10545	2e-05	-0.00011	1e-05	-1e-05	-0.00014	-0.00032	-7e-05	-1e-05	3
10546	2e-05	-0.00011	1e-05	-1e-05	-0.00014	-0.00032	-7e-05	-1e-05	3
10547	2e-05	-0.00011	1e-05	-1e-05	-0.00014	-0.00032	-7e-05	-1e-05	3
10548	2e-05	-0.00011	1e-05	-1e-05	-0.00014	-0.00032	-7e-05	-1e-05	3
10549	2e-05	-0.00011	1e-05	-1e-05	-0.00014	-0.00032	-7e-05	-1e-05	3
10550	2e-05	-0.00011	1e-05	-1e-05	-0.00014	-0.00032	-7e-05	-1e-05	3
10551	7e-05	-8e-05	-1e-05	-5e-05	-6e-05	0.00049	4e-05	1e-05	3
10552	0.00014	-0.00011	1e-05	4e-05	0.00011	0.00012	-0.00012	1e-05	3
10553	0.00014	-0.00011	1e-05	4e-05	0.00011	0.00012	-0.00012	1e-05	3
10554	0.00014	-0.00011	1e-05	4e-05	0.00011	0.00012	-0.00012	1e-05	3
10555	0.00014	-0.00011	1e-05	4e-05	0.00011	0.00012	-0.00012	1e-05	3
10556	0.00014	-0.00011	1e-05	4e-05	0.00011	0.00012	-0.00012	1e-05	3
10557	0.00014	-0.00011	1e-05	4e-05	0.00011	0.00012	-0.00012	1e-05	3
10558	0.00014	-0.00011	1e-05	4e-05	0.00011	0.00012	-0.00012	1e-05	3
10559	0.00014	-0.00011	1e-05	4e-05	0.00011	0.00012	-0.00012	1e-05	3
10560	0.00014	-0.00011	1e-05	4e-05	0.00011	0.00012	-0.00012	1e-05	3
10561	0.00014	-0.00011	1e-05	4e-05	0.00011	0.00012	-0.00012	1e-05	3
10562	0.00014	-0.00011	1e-05	4e-05	0.00011	0.00012	-0.00012	1e-05	3
10563	0.00014	-0.00011	1e-05	4e-05	0.00011	0.00012	-0.00012	1e-05	3
10564	0.00014	-0.00011	1e-05	4e-05	0.00011	0.00012	-0.00012	1e-05	3
10565	0.00014	-0.00011	1e-05	4e-05	0.00011	0.00012	-0.00012	1e-05	3
10566	0.00014	-0.00011	1e-05	4e-05	0.00011	0.00012	-0.00012	1e-05	3
10567	0.00014	-0.00011	1e-05	4e-05	0.00011	0.00012	-0.00012	1e-05	3
10568	0.00014	-0.00011	1e-05	4e-05	0.00011	0.00012	-0.00012	1e-05	3
10569	0.00014	-0.00011	1e-05	4e-05	0.00011	0.00012	-0.00012	1e-05	3
10570	0.00014	-0.00011	1e-05	4e-05	0.00011	0.00012	-0.00012	1e-05	3
10571	0.00014	-0.00011	1e-05	4e-05	0.00011	0.00012	-0.00012	1e-05	3
10572	0.00014	-0.00011	1e-05	4e-05	0.00011	0.00012	-0.00012	1e-05	3
10573	0.00014	-0.00011	1e-05	4e-05	0.00011	0.00012	-0.00012	1e-05	3
10574	0.00053	-1e-05	-9e-05	2e-05	-3e-05	-5e-05	0	2e-05	3
10575	-0.00034	-0.00016	4e-05	6e-05	3e-05	0.00021	-7e-05	-0.00013	3
10576	-0.00034	-0.00016	4e-05	6e-05	3e-05	0.00021	-7e-05	-0.00013	3
10577	-0.00034	-0.00016	4e-05	6e-05	3e-05	0.00021	-7e-05	-0.00013	3
10578	-0.00034	-0.00016	4e-05	6e-05	3e-05	0.00021	-7e-05	-0.00013	3
10579	-0.00034	-0.00016	4e-05	6e-05	3e-05	0.00021	-7e-05	-0.00013	3
10580	-0.00034	-0.00016	4e-05	6e-05	3e-05	0.00021	-7e-05	-0.00013	3
10581	-0.00034	-0.00016	4e-05	6e-05	3e-05	0.00021	-7e-05	-0.00013	3
10582	-0.00034	-0.00016	4e-05	6e-05	3e-05	0.00021	-7e-05	-0.00013	3
10583	-0.00034	-0.00016	4e-05	6e-05	3e-05	0.00021	-7e-05	-0.00013	3
10584	-0.00034	-0.00016	4e-05	6e-05	3e-05	0.00021	-7e-05	-0.00013	3
10585	-0.00034	-0.00016	4e-05	6e-05	3e-05	0.00021	-7e-05	-0.00013	3
10586	-0.00034	-0.00016	4e-05	6e-05	3e-05	0.00021	-7e-05	-0.00013	3
10588	-0.00034	-0.00016	4e-05	6e-05	3e-05	0.00021	-7e-05	-0.00013	3
10589	8e-05	-0.00013	2e-05	4e-05	0.00029	-0.00016	0	-6e-05	3
10590	8e-05	-0.00013	2e-05	4e-05	0.00029	-0.00016	0	-6e-05	3
10591	8e-05	-0.00013	2e-05	4e-05	0.00029	-0.00016	0	-6e-05	3
10592	8e-05	-0.00013	2e-05	4e-05	0.00029	-0.00016	0	-6e-05	3
10593	8e-05	-0.00013	2e-05	4e-05	0.00029	-0.00016	0	-6e-05	3
10594	8e-05	-0.00013	2e-05	4e-05	0.00029	-0.00016	0	-6e-05	3
10595	8e-05	-0.00013	2e-05	4e-05	0.00029	-0.00016	0	-6e-05	3
10596	8e-05	-0.00013	2e-05	4e-05	0.00029	-0.00016	0	-6e-05	3
10597	8e-05	-0.00013	2e-05	4e-05	0.00029	-0.00016	0	-6e-05	3
10598	8e-05	-0.00013	2e-05	4e-05	0.00029	-0.00016	0	-6e-05	3
10599	8e-05	-0.00013	2e-05	4e-05	0.00029	-0.00016	0	-6e-05	3
10600	8e-05	-0.00013	2e-05	4e-05	0.00029	-0.00016	0	-6e-05	3
10601	8e-05	-0.00013	2e-05	4e-05	0.00029	-0.00016	0	-6e-05	3
10602	8e-05	-0.00013	2e-05	4e-05	0.00029	-0.00016	0	-6e-05	3
10603	8e-05	-0.00013	2e-05	4e-05	0.00029	-0.00016	0	-6e-05	3
10604	8e-05	-0.00013	2e-05	4e-05	0.00029	-0.00016	0	-6e-05	3
10605	8e-05	-0.00013	2e-05	4e-05	0.00029	-0.00016	0	-6e-05	3
10607	8e-05	-0.00013	2e-05	4e-05	0.00029	-0.00016	0	-6e-05	3
10608	8e-05	-0.00013	2e-05	4e-05	0.00029	-0.00016	0	-6e-05	3
10609	8e-05	-0.00013	2e-05	4e-05	0.00029	-0.00016	0	-6e-05	3
10610	8e-05	-0.00013	2e-05	4e-05	0.00029	-0.00016	0	-6e-05	3
10611	8e-05	-0.00013	2e-05	4e-05	0.00029	-0.00016	0	-6e-05	3
10612	0.00014	0.00014	4e-05	-1e-05	-4e-05	-1e-05	-4e-05	-8e-05	3
10613	0.00014	0.00014	4e-05	-1e-05	-4e-05	-1e-05	-4e-05	-8e-05	3
10614	0.00058	0.00056	9e-05	1e-05	5e-05	0.00018	6e-05	4e-05	3
10615	0.00058	0.00056	9e-05	1e-05	5e-05	0.00018	6e-05	4e-05	3
10616	0.00058	0.00056	9e-05	1e-05	5e-05	0.00018	6e-05	4e-05	3
10617	0.00028	0.00015	0	2e-05	0.00013	-0.00014	-4e-05	3e-05	3
10618	0.00028	0.00015	0	2e-05	0.00013	-0.00014	-4e-05	3e-05	3
10619	0.00028	0.00015	0	2e-05	0.00013	-0.00014	-4e-05	3e-05	3
10620	0.00028	0.00015	0	2e-05	0.00013	-0.00014	-4e-05	3e-05	3
10621	0.00028	0.00015	0	2e-05	0.00013	-0.00014	-4e-05	3e-05	3
10622	0.00028	0.00015	0	2e-05	0.00013	-0.00014	-4e-05	3e-05	3
10623	0.00028	0.00015	0	2e-05	0.00013	-0.00014	-4e-05	3e-05	3
10624	0.00028	0.00015	0	2e-05	0.00013	-0.00014	-4e-05	3e-05	3
10625	0.00028	0.00015	0	2e-05	0.00013	-0.00014	-4e-05	3e-05	3
10626	0.00028	0.00015	0	2e-05	0.00013	-0.00014	-4e-05	3e-05	3
10627	0.00028	0.00015	0	2e-05	0.00013	-0.00014	-4e-05	3e-05	3
10628	0.00028	0.00015	0	2e-05	0.00013	-0.00014	-4e-05	3e-05	3
10629	0.00028	0.00015	0	2e-05	0.00013	-0.00014	-4e-05	3e-05	3
10630	0.00028	0.00015	0	2e-05	0.00013	-0.00014	-4e-05	3e-05	3
10631	0.00028	0.00015	0	2e-05	0.00013	-0.00014	-4e-05	3e-05	3
10632	0.00028	0.00015	0	2e-05	0.00013	-0.00014	-4e-05	3e-05	3
10633	0.00028	0.00015	0	2e-05	0.00013	-0.00014	-4e-05	3e-05	3
10634	-1e-05	0.00015	-4e-05	-3e-05	4e-05	-0.00034	-2e-05	7e-05	3
10635	-0.0001	-0.00079	-0.00011	-8e-05	-8e-05	-0.00016	-2e-05	-8e-05	3
10636	0.00028	0.0002	5e-05	0	-6e-05	3e-05	0.00012	4e-05	3
10638	0.00028	0.0002	5e-05	0	-6e-05	3e-05	0.00012	4e-05	3
10639	0.00028	0.0002	5e-05	0	-6e-05	3e-05	0.00012	4e-05	3
10640	0.00028	0.0002	5e-05	0	-6e-05	3e-05	0.00012	4e-05	3
10641	0.00028	0.0002	5e-05	0	-6e-05	3e-05	0.00012	4e-05	3
10642	0.00028	0.0002	5e-05	0	-6e-05	3e-05	0.00012	4e-05	3
10643	0.00028	0.0002	5e-05	0	-6e-05	3e-05	0.00012	4e-05	3
10644	0.00028	0.0002	5e-05	0	-6e-05	3e-05	0.00012	4e-05	3
10645	0.00028	0.0002	5e-05	0	-6e-05	3e-05	0.00012	4e-05	3
10646	0.00028	0.0002	5e-05	0	-6e-05	3e-05	0.00012	4e-05	3
10647	0.00028	0.0002	5e-05	0	-6e-05	3e-05	0.00012	4e-05	3
10648	-0.00023	-0.00022	0	-1e-05	-0.00017	-0.00044	-4e-05	1e-05	3
10649	-0.00023	-0.00022	0	-1e-05	-0.00017	-0.00044	-4e-05	1e-05	3
10650	-0.00023	-0.00022	0	-1e-05	-0.00017	-0.00044	-4e-05	1e-05	3
10651	-0.00023	-0.00022	0	-1e-05	-0.00017	-0.00044	-4e-05	1e-05	3
10652	-0.00023	-0.00022	0	-1e-05	-0.00017	-0.00044	-4e-05	1e-05	3
10653	-0.00023	-0.00022	0	-1e-05	-0.00017	-0.00044	-4e-05	1e-05	3
10654	-0.00023	-0.00022	0	-1e-05	-0.00017	-0.00044	-4e-05	1e-05	3
10655	-0.00023	-0.00022	0	-1e-05	-0.00017	-0.00044	-4e-05	1e-05	3
10656	-0.0004	-0.00015	1e-05	-6e-05	-0.00012	-3e-05	-3e-05	-5e-05	3
10657	-0.0004	-0.00015	1e-05	-6e-05	-0.00012	-3e-05	-3e-05	-5e-05	3
10658	-0.0004	-0.00015	1e-05	-6e-05	-0.00012	-3e-05	-3e-05	-5e-05	3
10659	-0.0004	-0.00015	1e-05	-6e-05	-0.00012	-3e-05	-3e-05	-5e-05	3
10660	-0.0004	-0.00015	1e-05	-6e-05	-0.00012	-3e-05	-3e-05	-5e-05	3
10661	-0.0004	-0.00015	1e-05	-6e-05	-0.00012	-3e-05	-3e-05	-5e-05	3
10662	-0.0004	-0.00015	1e-05	-6e-05	-0.00012	-3e-05	-3e-05	-5e-05	3
10663	-0.0004	-0.00015	1e-05	-6e-05	-0.00012	-3e-05	-3e-05	-5e-05	3
10664	-0.0004	-0.00015	1e-05	-6e-05	-0.00012	-3e-05	-3e-05	-5e-05	3
10665	-0.0004	-0.00015	1e-05	-6e-05	-0.00012	-3e-05	-3e-05	-5e-05	3
10666	-0.0004	-0.00015	1e-05	-6e-05	-0.00012	-3e-05	-3e-05	-5e-05	3
10667	-0.0004	-0.00015	1e-05	-6e-05	-0.00012	-3e-05	-3e-05	-5e-05	3
10668	-0.0004	-0.00015	1e-05	-6e-05	-0.00012	-3e-05	-3e-05	-5e-05	3
10669	-0.0004	-0.00015	1e-05	-6e-05	-0.00012	-3e-05	-3e-05	-5e-05	3
10670	-0.0004	-0.00015	1e-05	-6e-05	-0.00012	-3e-05	-3e-05	-5e-05	3
10671	-0.00048	-0.00048	-6e-05	-3e-05	0	0.00036	2e-05	-0.00013	3
10672	-0.00048	-0.00048	-6e-05	-3e-05	0	0.00036	2e-05	-0.00013	3
10673	0.00016	0.0002	-1e-05	-1e-05	-9e-05	7e-05	-3e-05	6e-05	3
10674	0.00016	0.0002	-1e-05	-1e-05	-9e-05	7e-05	-3e-05	6e-05	3
10675	0.00016	0.0002	-1e-05	-1e-05	-9e-05	7e-05	-3e-05	6e-05	3
10676	0.00016	0.0002	-1e-05	-1e-05	-9e-05	7e-05	-3e-05	6e-05	3
10677	0.00016	0.0002	-1e-05	-1e-05	-9e-05	7e-05	-3e-05	6e-05	3
10678	0.00016	0.0002	-1e-05	-1e-05	-9e-05	7e-05	-3e-05	6e-05	3
10679	0.00016	0.0002	-1e-05	-1e-05	-9e-05	7e-05	-3e-05	6e-05	3
10680	0.00016	0.0002	-1e-05	-1e-05	-9e-05	7e-05	-3e-05	6e-05	3
10681	0.00016	0.0002	-1e-05	-1e-05	-9e-05	7e-05	-3e-05	6e-05	3
10682	0.00016	0.0002	-1e-05	-1e-05	-9e-05	7e-05	-3e-05	6e-05	3
10683	0.00016	0.0002	-1e-05	-1e-05	-9e-05	7e-05	-3e-05	6e-05	3
10684	0.00016	0.0002	-1e-05	-1e-05	-9e-05	7e-05	-3e-05	6e-05	3
10685	0.00016	0.0002	-1e-05	-1e-05	-9e-05	7e-05	-3e-05	6e-05	3
10686	0.00016	0.0002	-1e-05	-1e-05	-9e-05	7e-05	-3e-05	6e-05	3
10688	0.00016	0.0002	-1e-05	-1e-05	-9e-05	7e-05	-3e-05	6e-05	3
10689	0.00016	0.0002	-1e-05	-1e-05	-9e-05	7e-05	-3e-05	6e-05	3
10690	0.00016	0.0002	-1e-05	-1e-05	-9e-05	7e-05	-3e-05	6e-05	3
10691	0.00016	0.0002	-1e-05	-1e-05	-9e-05	7e-05	-3e-05	6e-05	3
10692	0.00016	0.0002	-1e-05	-1e-05	-9e-05	7e-05	-3e-05	6e-05	3
10693	-0.00039	-4e-05	-2e-05	-3e-05	-8e-05	-3e-05	7e-05	-4e-05	3
10694	-0.00039	-4e-05	-2e-05	-3e-05	-8e-05	-3e-05	7e-05	-4e-05	3
10695	-0.00014	0.00013	4e-05	1e-05	3e-05	-4e-05	-1e-05	4e-05	3
10696	-0.00014	0.00013	4e-05	1e-05	3e-05	-4e-05	-1e-05	4e-05	3
10697	-0.00014	0.00013	4e-05	1e-05	3e-05	-4e-05	-1e-05	4e-05	3
10698	-0.00014	0.00013	4e-05	1e-05	3e-05	-4e-05	-1e-05	4e-05	3
10699	-0.00014	0.00013	4e-05	1e-05	3e-05	-4e-05	-1e-05	4e-05	3
10700	-0.00014	0.00013	4e-05	1e-05	3e-05	-4e-05	-1e-05	4e-05	3
10701	-0.00014	0.00013	4e-05	1e-05	3e-05	-4e-05	-1e-05	4e-05	3
10702	-0.00014	0.00013	4e-05	1e-05	3e-05	-4e-05	-1e-05	4e-05	3
10703	-0.00014	0.00013	4e-05	1e-05	3e-05	-4e-05	-1e-05	4e-05	3
10704	-0.00014	0.00013	4e-05	1e-05	3e-05	-4e-05	-1e-05	4e-05	3
10705	-0.00014	0.00013	4e-05	1e-05	3e-05	-4e-05	-1e-05	4e-05	3
10706	-0.00014	0.00013	4e-05	1e-05	3e-05	-4e-05	-1e-05	4e-05	3
10707	-6e-05	1e-05	-1e-05	1e-05	0.00012	0.00027	-1e-05	1e-05	3
10708	-6e-05	1e-05	-1e-05	1e-05	0.00012	0.00027	-1e-05	1e-05	3
10709	-6e-05	1e-05	-1e-05	1e-05	0.00012	0.00027	-1e-05	1e-05	3
10710	-6e-05	1e-05	-1e-05	1e-05	0.00012	0.00027	-1e-05	1e-05	3
10711	-6e-05	1e-05	-1e-05	1e-05	0.00012	0.00027	-1e-05	1e-05	3
10712	-6e-05	1e-05	-1e-05	1e-05	0.00012	0.00027	-1e-05	1e-05	3
10713	-6e-05	1e-05	-1e-05	1e-05	0.00012	0.00027	-1e-05	1e-05	3
10714	-6e-05	1e-05	-1e-05	1e-05	0.00012	0.00027	-1e-05	1e-05	3
10715	-6e-05	1e-05	-1e-05	1e-05	0.00012	0.00027	-1e-05	1e-05	3
10716	-6e-05	1e-05	-1e-05	1e-05	0.00012	0.00027	-1e-05	1e-05	3
10717	-6e-05	1e-05	-1e-05	1e-05	0.00012	0.00027	-1e-05	1e-05	3
10718	-6e-05	1e-05	-1e-05	1e-05	0.00012	0.00027	-1e-05	1e-05	3
10719	-6e-05	1e-05	-1e-05	1e-05	0.00012	0.00027	-1e-05	1e-05	3
10720	-6e-05	1e-05	-1e-05	1e-05	0.00012	0.00027	-1e-05	1e-05	3
10721	-6e-05	1e-05	-1e-05	1e-05	0.00012	0.00027	-1e-05	1e-05	3
10722	-6e-05	1e-05	-1e-05	1e-05	0.00012	0.00027	-1e-05	1e-05	3
10723	-6e-05	1e-05	-1e-05	1e-05	0.00012	0.00027	-1e-05	1e-05	3
10724	-6e-05	1e-05	-1e-05	1e-05	0.00012	0.00027	-1e-05	1e-05	3
10725	-6e-05	1e-05	-1e-05	1e-05	0.00012	0.00027	-1e-05	1e-05	3
10726	-6e-05	1e-05	-1e-05	1e-05	0.00012	0.00027	-1e-05	1e-05	3
10727	-6e-05	1e-05	-1e-05	1e-05	0.00012	0.00027	-1e-05	1e-05	3
10728	-6e-05	1e-05	-1e-05	1e-05	0.00012	0.00027	-1e-05	1e-05	3
10729	-6e-05	1e-05	-1e-05	1e-05	0.00012	0.00027	-1e-05	1e-05	3
10730	-6e-05	1e-05	-1e-05	1e-05	0.00012	0.00027	-1e-05	1e-05	3
10731	-6e-05	1e-05	-1e-05	1e-05	0.00012	0.00027	-1e-05	1e-05	3
10732	0	0.00019	-5e-05	-5e-05	-0.00013	1e-05	3e-05	6e-05	3
10733	-8e-05	-0.00016	-7e-05	-8e-05	-3e-05	-0.00015	-0.00016	-6e-05	3
10734	0.00029	4e-05	3e-05	1e-05	2e-05	0.00016	-2e-05	2e-05	3
10735	0.00029	4e-05	3e-05	1e-05	2e-05	0.00016	-2e-05	2e-05	3
10736	0.00029	4e-05	3e-05	1e-05	2e-05	0.00016	-2e-05	2e-05	3
10738	0	-0.00029	-5e-05	-3e-05	0.00019	0.00069	2e-05	-3e-05	3
10739	0	-0.00029	-5e-05	-3e-05	0.00019	0.00069	2e-05	-3e-05	3
10740	0	-0.00029	-5e-05	-3e-05	0.00019	0.00069	2e-05	-3e-05	3
10741	0	-0.00029	-5e-05	-3e-05	0.00019	0.00069	2e-05	-3e-05	3
10742	0	-0.00029	-5e-05	-3e-05	0.00019	0.00069	2e-05	-3e-05	3
10743	0	-0.00029	-5e-05	-3e-05	0.00019	0.00069	2e-05	-3e-05	3
10744	0	-0.00029	-5e-05	-3e-05	0.00019	0.00069	2e-05	-3e-05	3
10745	0	-0.00029	-5e-05	-3e-05	0.00019	0.00069	2e-05	-3e-05	3
10746	0	-0.00029	-5e-05	-3e-05	0.00019	0.00069	2e-05	-3e-05	3
10747	0	-0.00029	-5e-05	-3e-05	0.00019	0.00069	2e-05	-3e-05	3
10748	0	-0.00029	-5e-05	-3e-05	0.00019	0.00069	2e-05	-3e-05	3
10749	0	-0.00029	-5e-05	-3e-05	0.00019	0.00069	2e-05	-3e-05	3
10750	0	-0.00029	-5e-05	-3e-05	0.00019	0.00069	2e-05	-3e-05	3
10751	0	-0.00029	-5e-05	-3e-05	0.00019	0.00069	2e-05	-3e-05	3
10752	0	-0.00029	-5e-05	-3e-05	0.00019	0.00069	2e-05	-3e-05	3
10753	0	-0.00029	-5e-05	-3e-05	0.00019	0.00069	2e-05	-3e-05	3
10754	0	-0.00029	-5e-05	-3e-05	0.00019	0.00069	2e-05	-3e-05	3
10755	0	-0.00029	-5e-05	-3e-05	0.00019	0.00069	2e-05	-3e-05	3
10756	0	-0.00029	-5e-05	-3e-05	0.00019	0.00069	2e-05	-3e-05	3
10757	0	-0.00029	-5e-05	-3e-05	0.00019	0.00069	2e-05	-3e-05	3
10758	0	-0.00029	-5e-05	-3e-05	0.00019	0.00069	2e-05	-3e-05	3
10759	0	-0.00029	-5e-05	-3e-05	0.00019	0.00069	2e-05	-3e-05	3
10760	0	-0.00029	-5e-05	-3e-05	0.00019	0.00069	2e-05	-3e-05	3
10761	0	-0.00029	-5e-05	-3e-05	0.00019	0.00069	2e-05	-3e-05	3
10762	0	-0.00029	-5e-05	-3e-05	0.00019	0.00069	2e-05	-3e-05	3
10763	0	-0.00029	-5e-05	-3e-05	0.00019	0.00069	2e-05	-3e-05	3
10764	0	-0.00029	-5e-05	-3e-05	0.00019	0.00069	2e-05	-3e-05	3
10765	0	-0.00029	-5e-05	-3e-05	0.00019	0.00069	2e-05	-3e-05	3
10766	0	-0.00029	-5e-05	-3e-05	0.00019	0.00069	2e-05	-3e-05	3
10767	0	-0.00029	-5e-05	-3e-05	0.00019	0.00069	2e-05	-3e-05	3
10768	0	-0.00029	-5e-05	-3e-05	0.00019	0.00069	2e-05	-3e-05	3
10769	0.00037	0.00037	4e-05	-2e-05	-7e-05	0.00013	0	7e-05	3
10770	0.00037	0.00037	4e-05	-2e-05	-7e-05	0.00013	0	7e-05	3
10771	5e-05	-1e-05	-7e-05	0	7e-05	0.00032	-6e-05	-2e-05	3
10772	-0.00042	0.00016	7e-05	1e-05	2e-05	-0.00035	0.00012	-1e-05	3
10773	-0.00042	0.00016	7e-05	1e-05	2e-05	-0.00035	0.00012	-1e-05	3
10774	-0.00042	0.00016	7e-05	1e-05	2e-05	-0.00035	0.00012	-1e-05	3
10775	-0.00042	0.00016	7e-05	1e-05	2e-05	-0.00035	0.00012	-1e-05	3
10776	-0.0001	0	3e-05	-2e-05	-9e-05	-0.00029	2e-05	4e-05	3
10777	-0.0001	0	3e-05	-2e-05	-9e-05	-0.00029	2e-05	4e-05	3
10778	-0.0001	0	3e-05	-2e-05	-9e-05	-0.00029	2e-05	4e-05	3
10779	-0.0001	0	3e-05	-2e-05	-9e-05	-0.00029	2e-05	4e-05	3
10780	-0.0001	0	3e-05	-2e-05	-9e-05	-0.00029	2e-05	4e-05	3
10781	-0.0001	0	3e-05	-2e-05	-9e-05	-0.00029	2e-05	4e-05	3
10782	-0.0001	0	3e-05	-2e-05	-9e-05	-0.00029	2e-05	4e-05	3
10783	-0.0001	0	3e-05	-2e-05	-9e-05	-0.00029	2e-05	4e-05	3
10784	-0.0001	0	3e-05	-2e-05	-9e-05	-0.00029	2e-05	4e-05	3
10785	-0.0001	0	3e-05	-2e-05	-9e-05	-0.00029	2e-05	4e-05	3
10786	-0.0001	0	3e-05	-2e-05	-9e-05	-0.00029	2e-05	4e-05	3
10788	-0.0001	0	3e-05	-2e-05	-9e-05	-0.00029	2e-05	4e-05	3
10789	-0.0001	0	3e-05	-2e-05	-9e-05	-0.00029	2e-05	4e-05	3
10790	-0.0001	0	3e-05	-2e-05	-9e-05	-0.00029	2e-05	4e-05	3
10791	-0.0001	0	3e-05	-2e-05	-9e-05	-0.00029	2e-05	4e-05	3
10792	-0.0001	0	3e-05	-2e-05	-9e-05	-0.00029	2e-05	4e-05	3
10793	-0.0001	0	3e-05	-2e-05	-9e-05	-0.00029	2e-05	4e-05	3
10794	-0.0001	0	3e-05	-2e-05	-9e-05	-0.00029	2e-05	4e-05	3
10795	-0.0001	0	3e-05	-2e-05	-9e-05	-0.00029	2e-05	4e-05	3
10796	-0.0001	0	3e-05	-2e-05	-9e-05	-0.00029	2e-05	4e-05	3
10797	-0.0001	0	3e-05	-2e-05	-9e-05	-0.00029	2e-05	4e-05	3
10798	-0.0001	0	3e-05	-2e-05	-9e-05	-0.00029	2e-05	4e-05	3
10799	-0.0001	0	3e-05	-2e-05	-9e-05	-0.00029	2e-05	4e-05	3
10800	-0.0001	0	3e-05	-2e-05	-9e-05	-0.00029	2e-05	4e-05	3
10801	-0.0001	0	3e-05	-2e-05	-9e-05	-0.00029	2e-05	4e-05	3
10802	-0.0001	0	3e-05	-2e-05	-9e-05	-0.00029	2e-05	4e-05	3
10803	-0.0001	0	3e-05	-2e-05	-9e-05	-0.00029	2e-05	4e-05	3
10804	-0.0001	0	3e-05	-2e-05	-9e-05	-0.00029	2e-05	4e-05	3
10805	-0.0001	0	3e-05	-2e-05	-9e-05	-0.00029	2e-05	4e-05	3
10806	-0.00062	-0.00037	-0.00012	-1e-05	-5e-05	-0.0001	-0.00012	-0.0001	3
10807	-0.00021	-8e-05	1e-05	-2e-05	-3e-05	0	2e-05	0	3
10808	-3e-05	-0.00011	-2e-05	-1e-05	3e-05	0.00025	0.00011	2e-05	3
10809	-3e-05	-0.00011	-2e-05	-1e-05	3e-05	0.00025	0.00011	2e-05	3
10810	-3e-05	-0.00011	-2e-05	-1e-05	3e-05	0.00025	0.00011	2e-05	3
10811	-3e-05	-0.00011	-2e-05	-1e-05	3e-05	0.00025	0.00011	2e-05	3
10812	-3e-05	-0.00011	-2e-05	-1e-05	3e-05	0.00025	0.00011	2e-05	3
10813	-0.00068	-0.00019	0	2e-05	0	-0.00012	-0.00011	-0.00011	3
10814	-0.00068	-0.00019	0	2e-05	0	-0.00012	-0.00011	-0.00011	3
10815	5e-05	-0.0004	-4e-05	5e-05	4e-05	-0.00032	-0.00011	-3e-05	3
10816	5e-05	-0.0004	-4e-05	5e-05	4e-05	-0.00032	-0.00011	-3e-05	3
10817	5e-05	-0.0004	-4e-05	5e-05	4e-05	-0.00032	-0.00011	-3e-05	3
10818	5e-05	-0.0004	-4e-05	5e-05	4e-05	-0.00032	-0.00011	-3e-05	3
10819	5e-05	-0.0004	-4e-05	5e-05	4e-05	-0.00032	-0.00011	-3e-05	3
10820	5e-05	-0.0004	-4e-05	5e-05	4e-05	-0.00032	-0.00011	-3e-05	3
10821	5e-05	-0.0004	-4e-05	5e-05	4e-05	-0.00032	-0.00011	-3e-05	3
10822	5e-05	-0.0004	-4e-05	5e-05	4e-05	-0.00032	-0.00011	-3e-05	3
10823	5e-05	-0.0004	-4e-05	5e-05	4e-05	-0.00032	-0.00011	-3e-05	3
10824	5e-05	-0.0004	-4e-05	5e-05	4e-05	-0.00032	-0.00011	-3e-05	3
10825	5e-05	-0.0004	-4e-05	5e-05	4e-05	-0.00032	-0.00011	-3e-05	3
10826	5e-05	-0.0004	-4e-05	5e-05	4e-05	-0.00032	-0.00011	-3e-05	3
10827	0.00047	9e-05	-3e-05	-5e-05	-8e-05	0.00019	3e-05	5e-05	3
10828	0.00047	9e-05	-3e-05	-5e-05	-8e-05	0.00019	3e-05	5e-05	3
10829	0.00047	9e-05	-3e-05	-5e-05	-8e-05	0.00019	3e-05	5e-05	3
10830	0.00047	9e-05	-3e-05	-5e-05	-8e-05	0.00019	3e-05	5e-05	3
10831	0.00047	9e-05	-3e-05	-5e-05	-8e-05	0.00019	3e-05	5e-05	3
10832	0.00047	9e-05	-3e-05	-5e-05	-8e-05	0.00019	3e-05	5e-05	3
10833	0.00047	9e-05	-3e-05	-5e-05	-8e-05	0.00019	3e-05	5e-05	3
10834	0.00047	9e-05	-3e-05	-5e-05	-8e-05	0.00019	3e-05	5e-05	3
10835	0.00047	9e-05	-3e-05	-5e-05	-8e-05	0.00019	3e-05	5e-05	3
10836	0.00047	9e-05	-3e-05	-5e-05	-8e-05	0.00019	3e-05	5e-05	3
10838	0.00047	9e-05	-3e-05	-5e-05	-8e-05	0.00019	3e-05	5e-05	3
10839	0.00047	9e-05	-3e-05	-5e-05	-8e-05	0.00019	3e-05	5e-05	3
10840	0.00047	9e-05	-3e-05	-5e-05	-8e-05	0.00019	3e-05	5e-05	3
10841	0.00047	9e-05	-3e-05	-5e-05	-8e-05	0.00019	3e-05	5e-05	3
10842	0.00047	9e-05	-3e-05	-5e-05	-8e-05	0.00019	3e-05	5e-05	3
10843	0.00047	9e-05	-3e-05	-5e-05	-8e-05	0.00019	3e-05	5e-05	3
10844	0.00047	9e-05	-3e-05	-5e-05	-8e-05	0.00019	3e-05	5e-05	3
10845	0.00047	9e-05	-3e-05	-5e-05	-8e-05	0.00019	3e-05	5e-05	3
10846	0.00047	9e-05	-3e-05	-5e-05	-8e-05	0.00019	3e-05	5e-05	3
10847	0.00047	9e-05	-3e-05	-5e-05	-8e-05	0.00019	3e-05	5e-05	3
10848	0.00047	9e-05	-3e-05	-5e-05	-8e-05	0.00019	3e-05	5e-05	3
10849	0.00047	9e-05	-3e-05	-5e-05	-8e-05	0.00019	3e-05	5e-05	3
10850	0.00047	9e-05	-3e-05	-5e-05	-8e-05	0.00019	3e-05	5e-05	3
10851	0.00047	9e-05	-3e-05	-5e-05	-8e-05	0.00019	3e-05	5e-05	3
10852	0.00047	9e-05	-3e-05	-5e-05	-8e-05	0.00019	3e-05	5e-05	3
10853	0.00018	0.00064	7e-05	0	1e-05	-0.00014	-8e-05	-2e-05	3
10854	3e-05	-8e-05	-2e-05	6e-05	8e-05	-4e-05	-3e-05	1e-05	3
10855	3e-05	-8e-05	-2e-05	6e-05	8e-05	-4e-05	-3e-05	1e-05	3
10856	3e-05	-8e-05	-2e-05	6e-05	8e-05	-4e-05	-3e-05	1e-05	3
10857	0.00042	0.00037	-0.0001	-3e-05	-9e-05	-0.00016	6e-05	9e-05	3
10858	0.00042	0.00037	-0.0001	-3e-05	-9e-05	-0.00016	6e-05	9e-05	3
10859	0.00042	0.00037	-0.0001	-3e-05	-9e-05	-0.00016	6e-05	9e-05	3
10860	0.00042	0.00037	-0.0001	-3e-05	-9e-05	-0.00016	6e-05	9e-05	3
10861	0.00042	0.00037	-0.0001	-3e-05	-9e-05	-0.00016	6e-05	9e-05	3
10862	0.00042	0.00037	-0.0001	-3e-05	-9e-05	-0.00016	6e-05	9e-05	3
10863	0.00042	0.00037	-0.0001	-3e-05	-9e-05	-0.00016	6e-05	9e-05	3
10864	0.00042	0.00037	-0.0001	-3e-05	-9e-05	-0.00016	6e-05	9e-05	3
10865	0.00042	0.00037	-0.0001	-3e-05	-9e-05	-0.00016	6e-05	9e-05	3
10866	0.00042	0.00037	-0.0001	-3e-05	-9e-05	-0.00016	6e-05	9e-05	3
10867	0.00042	0.00037	-0.0001	-3e-05	-9e-05	-0.00016	6e-05	9e-05	3
10868	0.00042	0.00037	-0.0001	-3e-05	-9e-05	-0.00016	6e-05	9e-05	3
10869	0.00042	0.00037	-0.0001	-3e-05	-9e-05	-0.00016	6e-05	9e-05	3
10870	0.00042	0.00037	-0.0001	-3e-05	-9e-05	-0.00016	6e-05	9e-05	3
10871	0.00042	0.00037	-0.0001	-3e-05	-9e-05	-0.00016	6e-05	9e-05	3
10872	0.00042	0.00037	-0.0001	-3e-05	-9e-05	-0.00016	6e-05	9e-05	3
10873	-9e-05	-0.00024	-3e-05	-1e-05	0.00021	0.00014	1e-05	-7e-05	3
10874	-9e-05	-0.00024	-3e-05	-1e-05	0.00021	0.00014	1e-05	-7e-05	3
10875	-9e-05	-0.00024	-3e-05	-1e-05	0.00021	0.00014	1e-05	-7e-05	3
10876	-9e-05	-0.00024	-3e-05	-1e-05	0.00021	0.00014	1e-05	-7e-05	3
10877	-9e-05	-0.00024	-3e-05	-1e-05	0.00021	0.00014	1e-05	-7e-05	3
10878	-9e-05	-0.00024	-3e-05	-1e-05	0.00021	0.00014	1e-05	-7e-05	3
10879	-9e-05	-0.00024	-3e-05	-1e-05	0.00021	0.00014	1e-05	-7e-05	3
10880	-9e-05	-0.00024	-3e-05	-1e-05	0.00021	0.00014	1e-05	-7e-05	3
10881	-9e-05	-0.00024	-3e-05	-1e-05	0.00021	0.00014	1e-05	-7e-05	3
10882	-9e-05	-0.00024	-3e-05	-1e-05	0.00021	0.00014	1e-05	-7e-05	3
10883	-9e-05	-0.00024	-3e-05	-1e-05	0.00021	0.00014	1e-05	-7e-05	3
10884	-9e-05	-0.00024	-3e-05	-1e-05	0.00021	0.00014	1e-05	-7e-05	3
10885	-9e-05	-0.00024	-3e-05	-1e-05	0.00021	0.00014	1e-05	-7e-05	3
10886	-9e-05	-0.00024	-3e-05	-1e-05	0.00021	0.00014	1e-05	-7e-05	3
10888	-9e-05	-0.00024	-3e-05	-1e-05	0.00021	0.00014	1e-05	-7e-05	3
10889	-0.00071	-2e-05	4e-05	-2e-05	-0.00022	-4e-05	-5e-05	-6e-05	3
10890	0.00032	-0.00012	-4e-05	-6e-05	-0.00023	-0.00017	-3e-05	0	3
10891	0.00032	-0.00012	-4e-05	-6e-05	-0.00023	-0.00017	-3e-05	0	3
10892	0.00032	-0.00012	-4e-05	-6e-05	-0.00023	-0.00017	-3e-05	0	3
10893	0.00032	-0.00012	-4e-05	-6e-05	-0.00023	-0.00017	-3e-05	0	3
10894	0.00032	-0.00012	-4e-05	-6e-05	-0.00023	-0.00017	-3e-05	0	3
10895	0.00032	-0.00012	-4e-05	-6e-05	-0.00023	-0.00017	-3e-05	0	3
10896	0.0001	-5e-05	-1e-05	-4e-05	-5e-05	3e-05	1e-05	-7e-05	3
10897	0.0001	-5e-05	-1e-05	-4e-05	-5e-05	3e-05	1e-05	-7e-05	3
10898	0.0001	-5e-05	-1e-05	-4e-05	-5e-05	3e-05	1e-05	-7e-05	3
10899	0.0001	-5e-05	-1e-05	-4e-05	-5e-05	3e-05	1e-05	-7e-05	3
10900	0.0001	-5e-05	-1e-05	-4e-05	-5e-05	3e-05	1e-05	-7e-05	3
10901	0.0001	-5e-05	-1e-05	-4e-05	-5e-05	3e-05	1e-05	-7e-05	3
10902	0.0001	-5e-05	-1e-05	-4e-05	-5e-05	3e-05	1e-05	-7e-05	3
10903	0.0001	-5e-05	-1e-05	-4e-05	-5e-05	3e-05	1e-05	-7e-05	3
10904	0.0001	-5e-05	-1e-05	-4e-05	-5e-05	3e-05	1e-05	-7e-05	3
10905	0.0001	-5e-05	-1e-05	-4e-05	-5e-05	3e-05	1e-05	-7e-05	3
10906	0.0001	-5e-05	-1e-05	-4e-05	-5e-05	3e-05	1e-05	-7e-05	3
10907	0.0001	-5e-05	-1e-05	-4e-05	-5e-05	3e-05	1e-05	-7e-05	3
10908	0.0001	-5e-05	-1e-05	-4e-05	-5e-05	3e-05	1e-05	-7e-05	3
10909	0.0001	-5e-05	-1e-05	-4e-05	-5e-05	3e-05	1e-05	-7e-05	3
10910	0.0001	-5e-05	-1e-05	-4e-05	-5e-05	3e-05	1e-05	-7e-05	3
10911	-0.00027	2e-05	-4e-05	-6e-05	-0.00021	-0.00029	0.00011	5e-05	3
10912	0.0006	0.00022	0	3e-05	0.00015	0.00043	-2e-05	2e-05	3
10913	-0.00076	-0.00027	-8e-05	-4e-05	-1e-05	-5e-05	-5e-05	-0.00012	3
10914	-0.00076	-0.00027	-8e-05	-4e-05	-1e-05	-5e-05	-5e-05	-0.00012	3
10915	-0.00076	-0.00027	-8e-05	-4e-05	-1e-05	-5e-05	-5e-05	-0.00012	3
10916	-0.00076	-0.00027	-8e-05	-4e-05	-1e-05	-5e-05	-5e-05	-0.00012	3
10917	-0.00076	-0.00027	-8e-05	-4e-05	-1e-05	-5e-05	-5e-05	-0.00012	3
10918	-0.00076	-0.00027	-8e-05	-4e-05	-1e-05	-5e-05	-5e-05	-0.00012	3
10919	-0.00076	-0.00027	-8e-05	-4e-05	-1e-05	-5e-05	-5e-05	-0.00012	3
10920	-0.00076	-0.00027	-8e-05	-4e-05	-1e-05	-5e-05	-5e-05	-0.00012	3
10921	-0.00076	-0.00027	-8e-05	-4e-05	-1e-05	-5e-05	-5e-05	-0.00012	3
10922	-0.00076	-0.00027	-8e-05	-4e-05	-1e-05	-5e-05	-5e-05	-0.00012	3
10923	-0.00076	-0.00027	-8e-05	-4e-05	-1e-05	-5e-05	-5e-05	-0.00012	3
10924	-0.00076	-0.00027	-8e-05	-4e-05	-1e-05	-5e-05	-5e-05	-0.00012	3
10925	-0.00076	-0.00027	-8e-05	-4e-05	-1e-05	-5e-05	-5e-05	-0.00012	3
10926	-0.00076	-0.00027	-8e-05	-4e-05	-1e-05	-5e-05	-5e-05	-0.00012	3
10927	-0.00076	-0.00027	-8e-05	-4e-05	-1e-05	-5e-05	-5e-05	-0.00012	3
10928	-0.00076	-0.00027	-8e-05	-4e-05	-1e-05	-5e-05	-5e-05	-0.00012	3
10929	-0.00076	-0.00027	-8e-05	-4e-05	-1e-05	-5e-05	-5e-05	-0.00012	3
10930	-0.00076	-0.00027	-8e-05	-4e-05	-1e-05	-5e-05	-5e-05	-0.00012	3
10931	-0.00076	-0.00027	-8e-05	-4e-05	-1e-05	-5e-05	-5e-05	-0.00012	3
10932	-0.00076	-0.00027	-8e-05	-4e-05	-1e-05	-5e-05	-5e-05	-0.00012	3
10933	0.00012	-2e-05	-2e-05	-2e-05	0.00017	0.00012	-1e-05	1e-05	3
10934	0.00012	-2e-05	-2e-05	-2e-05	0.00017	0.00012	-1e-05	1e-05	3
10935	-8e-05	-0.00031	-1e-05	2e-05	0.0001	0.00012	6e-05	-1e-05	3
10936	-8e-05	-0.00031	-1e-05	2e-05	0.0001	0.00012	6e-05	-1e-05	3
10938	-8e-05	-0.00031	-1e-05	2e-05	0.0001	0.00012	6e-05	-1e-05	3
10939	-8e-05	-0.00031	-1e-05	2e-05	0.0001	0.00012	6e-05	-1e-05	3
10940	-8e-05	-0.00031	-1e-05	2e-05	0.0001	0.00012	6e-05	-1e-05	3
10941	-8e-05	-0.00031	-1e-05	2e-05	0.0001	0.00012	6e-05	-1e-05	3
10942	-8e-05	-0.00031	-1e-05	2e-05	0.0001	0.00012	6e-05	-1e-05	3
10943	-8e-05	-0.00031	-1e-05	2e-05	0.0001	0.00012	6e-05	-1e-05	3
10944	-8e-05	-0.00031	-1e-05	2e-05	0.0001	0.00012	6e-05	-1e-05	3
10945	-8e-05	-0.00031	-1e-05	2e-05	0.0001	0.00012	6e-05	-1e-05	3
10946	-8e-05	-0.00031	-1e-05	2e-05	0.0001	0.00012	6e-05	-1e-05	3
10947	0.00013	0.00032	0.00012	0.00011	0.00011	-5e-05	-3e-05	4e-05	3
10948	0.0002	2e-05	-4e-05	-7e-05	-0.00029	5e-05	-4e-05	0	3
10949	0.0002	2e-05	-4e-05	-7e-05	-0.00029	5e-05	-4e-05	0	3
10950	0.0002	2e-05	-4e-05	-7e-05	-0.00029	5e-05	-4e-05	0	3
10951	0.0002	2e-05	-4e-05	-7e-05	-0.00029	5e-05	-4e-05	0	3
10952	0.0002	2e-05	-4e-05	-7e-05	-0.00029	5e-05	-4e-05	0	3
10953	0.0002	2e-05	-4e-05	-7e-05	-0.00029	5e-05	-4e-05	0	3
10954	0.0002	2e-05	-4e-05	-7e-05	-0.00029	5e-05	-4e-05	0	3
10955	0.0002	2e-05	-4e-05	-7e-05	-0.00029	5e-05	-4e-05	0	3
10956	0.0002	2e-05	-4e-05	-7e-05	-0.00029	5e-05	-4e-05	0	3
10957	0.0002	2e-05	-4e-05	-7e-05	-0.00029	5e-05	-4e-05	0	3
10958	0.0002	2e-05	-4e-05	-7e-05	-0.00029	5e-05	-4e-05	0	3
10959	0.0002	2e-05	-4e-05	-7e-05	-0.00029	5e-05	-4e-05	0	3
10960	0.0002	2e-05	-4e-05	-7e-05	-0.00029	5e-05	-4e-05	0	3
10961	0.0002	2e-05	-4e-05	-7e-05	-0.00029	5e-05	-4e-05	0	3
10962	0.0002	2e-05	-4e-05	-7e-05	-0.00029	5e-05	-4e-05	0	3
10963	0.0002	2e-05	-4e-05	-7e-05	-0.00029	5e-05	-4e-05	0	3
10964	0.0002	2e-05	-4e-05	-7e-05	-0.00029	5e-05	-4e-05	0	3
10965	0.0002	2e-05	-4e-05	-7e-05	-0.00029	5e-05	-4e-05	0	3
10966	0.0002	2e-05	-4e-05	-7e-05	-0.00029	5e-05	-4e-05	0	3
10967	0.0002	2e-05	-4e-05	-7e-05	-0.00029	5e-05	-4e-05	0	3
10968	0.0002	2e-05	-4e-05	-7e-05	-0.00029	5e-05	-4e-05	0	3
10969	0.0002	2e-05	-4e-05	-7e-05	-0.00029	5e-05	-4e-05	0	3
10970	0.0002	2e-05	-4e-05	-7e-05	-0.00029	5e-05	-4e-05	0	3
10971	0.0002	2e-05	-4e-05	-7e-05	-0.00029	5e-05	-4e-05	0	3
10972	0.0002	2e-05	-4e-05	-7e-05	-0.00029	5e-05	-4e-05	0	3
10973	0.00059	0.00011	7e-05	1e-05	7e-05	-2e-05	4e-05	6e-05	3
10974	-0.0005	-0.0007	-0.0001	-1e-05	-5e-05	-0.00011	-0.00011	-0.00011	3
10975	-0.0005	-0.0007	-0.0001	-1e-05	-5e-05	-0.00011	-0.00011	-0.00011	3
10976	-0.0005	-0.0007	-0.0001	-1e-05	-5e-05	-0.00011	-0.00011	-0.00011	3
10977	-1e-05	-4e-05	3e-05	0	9e-05	0.0001	0	-1e-05	3
10978	-1e-05	-4e-05	3e-05	0	9e-05	0.0001	0	-1e-05	3
10979	-1e-05	-4e-05	3e-05	0	9e-05	0.0001	0	-1e-05	3
10980	-1e-05	-4e-05	3e-05	0	9e-05	0.0001	0	-1e-05	3
10981	-1e-05	-4e-05	3e-05	0	9e-05	0.0001	0	-1e-05	3
10982	-1e-05	-4e-05	3e-05	0	9e-05	0.0001	0	-1e-05	3
10983	-1e-05	-4e-05	3e-05	0	9e-05	0.0001	0	-1e-05	3
10984	-1e-05	-4e-05	3e-05	0	9e-05	0.0001	0	-1e-05	3
10985	-1e-05	-4e-05	3e-05	0	9e-05	0.0001	0	-1e-05	3
10986	-1e-05	-4e-05	3e-05	0	9e-05	0.0001	0	-1e-05	3
10988	-1e-05	-4e-05	3e-05	0	9e-05	0.0001	0	-1e-05	3
10989	-1e-05	-4e-05	3e-05	0	9e-05	0.0001	0	-1e-05	3
10990	-1e-05	-4e-05	3e-05	0	9e-05	0.0001	0	-1e-05	3
10991	-1e-05	-4e-05	3e-05	0	9e-05	0.0001	0	-1e-05	3
10992	-1e-05	-4e-05	3e-05	0	9e-05	0.0001	0	-1e-05	3
10993	-1e-05	-4e-05	3e-05	0	9e-05	0.0001	0	-1e-05	3
10994	-1e-05	-4e-05	3e-05	0	9e-05	0.0001	0	-1e-05	3
10995	-1e-05	-4e-05	3e-05	0	9e-05	0.0001	0	-1e-05	3
10996	-1e-05	-4e-05	3e-05	0	9e-05	0.0001	0	-1e-05	3
10997	-1e-05	-4e-05	3e-05	0	9e-05	0.0001	0	-1e-05	3
10998	-1e-05	-4e-05	3e-05	0	9e-05	0.0001	0	-1e-05	3
10999	-1e-05	-4e-05	3e-05	0	9e-05	0.0001	0	-1e-05	3
11000	-1e-05	-4e-05	3e-05	0	9e-05	0.0001	0	-1e-05	3
11001	-1e-05	-4e-05	3e-05	0	9e-05	0.0001	0	-1e-05	3
11002	-1e-05	-4e-05	3e-05	0	9e-05	0.0001	0	-1e-05	3
11003	-1e-05	-4e-05	3e-05	0	9e-05	0.0001	0	-1e-05	3
11004	-1e-05	-4e-05	3e-05	0	9e-05	0.0001	0	-1e-05	3
11005	-1e-05	-4e-05	3e-05	0	9e-05	0.0001	0	-1e-05	3
11006	-1e-05	-4e-05	3e-05	0	9e-05	0.0001	0	-1e-05	3
11007	-1e-05	-4e-05	3e-05	0	9e-05	0.0001	0	-1e-05	3
11008	-1e-05	-4e-05	3e-05	0	9e-05	0.0001	0	-1e-05	3
11009	0.00035	0.00035	6e-05	3e-05	-3e-05	2e-05	-1e-05	1e-05	3
11010	0.00035	0.00035	6e-05	3e-05	-3e-05	2e-05	-1e-05	1e-05	3
11011	-0.00015	-0.00019	-5e-05	3e-05	0.00024	-0.00019	1e-05	-0.00011	3
11012	1e-05	0.00026	7e-05	3e-05	7e-05	0.00019	9e-05	5e-05	3
11013	1e-05	0.00026	7e-05	3e-05	7e-05	0.00019	9e-05	5e-05	3
11014	1e-05	0.00026	7e-05	3e-05	7e-05	0.00019	9e-05	5e-05	3
11015	1e-05	0.00026	7e-05	3e-05	7e-05	0.00019	9e-05	5e-05	3
11016	0.00018	0.00022	4e-05	0	-0.00012	4e-05	3e-05	0.00011	3
11017	0.00018	0.00022	4e-05	0	-0.00012	4e-05	3e-05	0.00011	3
11018	0.00018	0.00022	4e-05	0	-0.00012	4e-05	3e-05	0.00011	3
11019	0.00018	0.00022	4e-05	0	-0.00012	4e-05	3e-05	0.00011	3
11020	0.00018	0.00022	4e-05	0	-0.00012	4e-05	3e-05	0.00011	3
11021	0.00018	0.00022	4e-05	0	-0.00012	4e-05	3e-05	0.00011	3
11022	0.00018	0.00022	4e-05	0	-0.00012	4e-05	3e-05	0.00011	3
11023	0.00018	0.00022	4e-05	0	-0.00012	4e-05	3e-05	0.00011	3
11024	0.00018	0.00022	4e-05	0	-0.00012	4e-05	3e-05	0.00011	3
11025	0.00018	0.00022	4e-05	0	-0.00012	4e-05	3e-05	0.00011	3
11026	0.00018	0.00022	4e-05	0	-0.00012	4e-05	3e-05	0.00011	3
11027	0.00018	0.00022	4e-05	0	-0.00012	4e-05	3e-05	0.00011	3
11028	0.00018	0.00022	4e-05	0	-0.00012	4e-05	3e-05	0.00011	3
11029	0.00018	0.00022	4e-05	0	-0.00012	4e-05	3e-05	0.00011	3
11030	0.00018	0.00022	4e-05	0	-0.00012	4e-05	3e-05	0.00011	3
11031	0.00018	0.00022	4e-05	0	-0.00012	4e-05	3e-05	0.00011	3
11032	0.00018	0.00022	4e-05	0	-0.00012	4e-05	3e-05	0.00011	3
11033	0.00018	0.00022	4e-05	0	-0.00012	4e-05	3e-05	0.00011	3
11034	0.00018	0.00022	4e-05	0	-0.00012	4e-05	3e-05	0.00011	3
11035	0.00018	0.00022	4e-05	0	-0.00012	4e-05	3e-05	0.00011	3
11036	0.00018	0.00022	4e-05	0	-0.00012	4e-05	3e-05	0.00011	3
11038	0.00018	0.00022	4e-05	0	-0.00012	4e-05	3e-05	0.00011	3
11039	0.00018	0.00022	4e-05	0	-0.00012	4e-05	3e-05	0.00011	3
11040	0.00018	0.00022	4e-05	0	-0.00012	4e-05	3e-05	0.00011	3
11041	0.00018	0.00022	4e-05	0	-0.00012	4e-05	3e-05	0.00011	3
11042	0.00018	0.00022	4e-05	0	-0.00012	4e-05	3e-05	0.00011	3
11043	0.00018	0.00022	4e-05	0	-0.00012	4e-05	3e-05	0.00011	3
11044	0.00018	0.00022	4e-05	0	-0.00012	4e-05	3e-05	0.00011	3
11045	0.00018	0.00022	4e-05	0	-0.00012	4e-05	3e-05	0.00011	3
11046	0.0002	-3e-05	-3e-05	-2e-05	3e-05	-9e-05	-0.0001	3e-05	3
11047	-0.0001	8e-05	-2e-05	-4e-05	1e-05	0.00034	1e-05	-9e-05	3
11048	0.00046	-0.00026	-3e-05	-4e-05	-0.00032	-0.00011	-0.00011	-2e-05	3
11049	0.00046	-0.00026	-3e-05	-4e-05	-0.00032	-0.00011	-0.00011	-2e-05	3
11050	0.00046	-0.00026	-3e-05	-4e-05	-0.00032	-0.00011	-0.00011	-2e-05	3
11051	0.00046	-0.00026	-3e-05	-4e-05	-0.00032	-0.00011	-0.00011	-2e-05	3
11052	0.00046	-0.00026	-3e-05	-4e-05	-0.00032	-0.00011	-0.00011	-2e-05	3
11053	-0.00016	0.00016	2e-05	0	-2e-05	-7e-05	-4e-05	0	3
11054	-0.00016	0.00016	2e-05	0	-2e-05	-7e-05	-4e-05	0	3
11055	0.00012	0.00017	-2e-05	1e-05	-6e-05	0.00023	5e-05	6e-05	3
11056	0.00012	0.00017	-2e-05	1e-05	-6e-05	0.00023	5e-05	6e-05	3
11057	0.00012	0.00017	-2e-05	1e-05	-6e-05	0.00023	5e-05	6e-05	3
11058	0.00012	0.00017	-2e-05	1e-05	-6e-05	0.00023	5e-05	6e-05	3
11059	0.00012	0.00017	-2e-05	1e-05	-6e-05	0.00023	5e-05	6e-05	3
11060	0.00012	0.00017	-2e-05	1e-05	-6e-05	0.00023	5e-05	6e-05	3
11061	0.00012	0.00017	-2e-05	1e-05	-6e-05	0.00023	5e-05	6e-05	3
11062	0.00012	0.00017	-2e-05	1e-05	-6e-05	0.00023	5e-05	6e-05	3
11063	0.00012	0.00017	-2e-05	1e-05	-6e-05	0.00023	5e-05	6e-05	3
11064	0.00012	0.00017	-2e-05	1e-05	-6e-05	0.00023	5e-05	6e-05	3
11065	0.00012	0.00017	-2e-05	1e-05	-6e-05	0.00023	5e-05	6e-05	3
11066	0.00012	0.00017	-2e-05	1e-05	-6e-05	0.00023	5e-05	6e-05	3
11067	6e-05	-0.00012	-4e-05	-1e-05	-4e-05	0.00023	0	-3e-05	3
11068	0.0007	0.00017	-1e-05	0	-6e-05	0.00016	0.00011	0.00012	3
11069	0.0007	0.00017	-1e-05	0	-6e-05	0.00016	0.00011	0.00012	3
11070	0.0007	0.00017	-1e-05	0	-6e-05	0.00016	0.00011	0.00012	3
11071	0.0007	0.00017	-1e-05	0	-6e-05	0.00016	0.00011	0.00012	3
11072	0.0007	0.00017	-1e-05	0	-6e-05	0.00016	0.00011	0.00012	3
11073	0.0007	0.00017	-1e-05	0	-6e-05	0.00016	0.00011	0.00012	3
11074	0.0007	0.00017	-1e-05	0	-6e-05	0.00016	0.00011	0.00012	3
11075	0.0007	0.00017	-1e-05	0	-6e-05	0.00016	0.00011	0.00012	3
11076	0.0007	0.00017	-1e-05	0	-6e-05	0.00016	0.00011	0.00012	3
11077	0.0007	0.00017	-1e-05	0	-6e-05	0.00016	0.00011	0.00012	3
11078	0.0007	0.00017	-1e-05	0	-6e-05	0.00016	0.00011	0.00012	3
11079	0.0007	0.00017	-1e-05	0	-6e-05	0.00016	0.00011	0.00012	3
11080	0.0007	0.00017	-1e-05	0	-6e-05	0.00016	0.00011	0.00012	3
11081	0.0007	0.00017	-1e-05	0	-6e-05	0.00016	0.00011	0.00012	3
11082	0.0007	0.00017	-1e-05	0	-6e-05	0.00016	0.00011	0.00012	3
11083	0.0007	0.00017	-1e-05	0	-6e-05	0.00016	0.00011	0.00012	3
11084	0.0007	0.00017	-1e-05	0	-6e-05	0.00016	0.00011	0.00012	3
11085	0.0007	0.00017	-1e-05	0	-6e-05	0.00016	0.00011	0.00012	3
11086	0.0007	0.00017	-1e-05	0	-6e-05	0.00016	0.00011	0.00012	3
11088	0.0007	0.00017	-1e-05	0	-6e-05	0.00016	0.00011	0.00012	3
11089	0.0007	0.00017	-1e-05	0	-6e-05	0.00016	0.00011	0.00012	3
11090	0.0007	0.00017	-1e-05	0	-6e-05	0.00016	0.00011	0.00012	3
11091	0.0007	0.00017	-1e-05	0	-6e-05	0.00016	0.00011	0.00012	3
11092	-9e-05	0.00033	6e-05	-1e-05	-1e-05	-0.00032	3e-05	3e-05	3
11093	-9e-05	0.00033	6e-05	-1e-05	-1e-05	-0.00032	3e-05	3e-05	3
11094	-0.00012	-8e-05	3e-05	2e-05	1e-05	-0.00013	-7e-05	-2e-05	3
11095	-0.00012	-8e-05	3e-05	2e-05	1e-05	-0.00013	-7e-05	-2e-05	3
11096	-0.00012	-8e-05	3e-05	2e-05	1e-05	-0.00013	-7e-05	-2e-05	3
11097	-0.00012	-8e-05	3e-05	2e-05	1e-05	-0.00013	-7e-05	-2e-05	3
11098	-0.00012	-8e-05	3e-05	2e-05	1e-05	-0.00013	-7e-05	-2e-05	3
11099	-0.00012	-8e-05	3e-05	2e-05	1e-05	-0.00013	-7e-05	-2e-05	3
11100	-0.00012	-8e-05	3e-05	2e-05	1e-05	-0.00013	-7e-05	-2e-05	3
11101	-0.00012	-8e-05	3e-05	2e-05	1e-05	-0.00013	-7e-05	-2e-05	3
11102	-0.00012	-8e-05	3e-05	2e-05	1e-05	-0.00013	-7e-05	-2e-05	3
11103	-0.00012	-8e-05	3e-05	2e-05	1e-05	-0.00013	-7e-05	-2e-05	3
11104	-0.00012	-8e-05	3e-05	2e-05	1e-05	-0.00013	-7e-05	-2e-05	3
11105	-0.00012	-8e-05	3e-05	2e-05	1e-05	-0.00013	-7e-05	-2e-05	3
11106	-0.00012	-8e-05	3e-05	2e-05	1e-05	-0.00013	-7e-05	-2e-05	3
11107	-0.00012	-8e-05	3e-05	2e-05	1e-05	-0.00013	-7e-05	-2e-05	3
11108	-0.00012	-8e-05	3e-05	2e-05	1e-05	-0.00013	-7e-05	-2e-05	3
11109	-0.00012	-8e-05	3e-05	2e-05	1e-05	-0.00013	-7e-05	-2e-05	3
11110	-0.00012	-8e-05	3e-05	2e-05	1e-05	-0.00013	-7e-05	-2e-05	3
11111	-0.00012	-8e-05	3e-05	2e-05	1e-05	-0.00013	-7e-05	-2e-05	3
11112	-0.00012	-8e-05	3e-05	2e-05	1e-05	-0.00013	-7e-05	-2e-05	3
11113	-0.00012	-8e-05	3e-05	2e-05	1e-05	-0.00013	-7e-05	-2e-05	3
11114	-0.00062	-0.00055	-8e-05	-7e-05	-3e-05	-0.00013	-0.00012	-0.00013	3
11115	-0.00062	-0.00055	-8e-05	-7e-05	-3e-05	-0.00013	-0.00012	-0.00013	3
11116	-0.00062	-0.00055	-8e-05	-7e-05	-3e-05	-0.00013	-0.00012	-0.00013	3
11117	-0.00062	-0.00055	-8e-05	-7e-05	-3e-05	-0.00013	-0.00012	-0.00013	3
11118	-0.00062	-0.00055	-8e-05	-7e-05	-3e-05	-0.00013	-0.00012	-0.00013	3
11119	0.00014	4e-05	-3e-05	4e-05	0.00018	0.0002	6e-05	-3e-05	3
11120	0.00014	4e-05	-3e-05	4e-05	0.00018	0.0002	6e-05	-3e-05	3
11121	0.00014	4e-05	-3e-05	4e-05	0.00018	0.0002	6e-05	-3e-05	3
11122	0.00014	4e-05	-3e-05	4e-05	0.00018	0.0002	6e-05	-3e-05	3
11123	0.00014	4e-05	-3e-05	4e-05	0.00018	0.0002	6e-05	-3e-05	3
11124	0.00014	4e-05	-3e-05	4e-05	0.00018	0.0002	6e-05	-3e-05	3
11125	0.00014	4e-05	-3e-05	4e-05	0.00018	0.0002	6e-05	-3e-05	3
11126	0.00014	4e-05	-3e-05	4e-05	0.00018	0.0002	6e-05	-3e-05	3
11127	0.00027	8e-05	-5e-05	-4e-05	-3e-05	0.00025	-2e-05	-9e-05	3
11128	0.00027	8e-05	-5e-05	-4e-05	-3e-05	0.00025	-2e-05	-9e-05	3
11129	0.00027	8e-05	-5e-05	-4e-05	-3e-05	0.00025	-2e-05	-9e-05	3
11130	0.00027	8e-05	-5e-05	-4e-05	-3e-05	0.00025	-2e-05	-9e-05	3
11131	0.00027	8e-05	-5e-05	-4e-05	-3e-05	0.00025	-2e-05	-9e-05	3
11132	0.00027	8e-05	-5e-05	-4e-05	-3e-05	0.00025	-2e-05	-9e-05	3
11133	0.00027	8e-05	-5e-05	-4e-05	-3e-05	0.00025	-2e-05	-9e-05	3
11134	0.00027	8e-05	-5e-05	-4e-05	-3e-05	0.00025	-2e-05	-9e-05	3
11135	0.00027	8e-05	-5e-05	-4e-05	-3e-05	0.00025	-2e-05	-9e-05	3
11136	-0.00016	2e-05	-3e-05	-1e-05	2e-05	0	-1e-05	0	3
11138	-0.00016	2e-05	-3e-05	-1e-05	2e-05	0	-1e-05	0	3
11139	-0.00016	2e-05	-3e-05	-1e-05	2e-05	0	-1e-05	0	3
11140	-0.00016	2e-05	-3e-05	-1e-05	2e-05	0	-1e-05	0	3
11141	-0.00016	2e-05	-3e-05	-1e-05	2e-05	0	-1e-05	0	3
11142	-0.00016	2e-05	-3e-05	-1e-05	2e-05	0	-1e-05	0	3
11143	-0.00016	2e-05	-3e-05	-1e-05	2e-05	0	-1e-05	0	3
11144	-0.00016	2e-05	-3e-05	-1e-05	2e-05	0	-1e-05	0	3
11145	-0.00016	2e-05	-3e-05	-1e-05	2e-05	0	-1e-05	0	3
11146	-0.00016	2e-05	-3e-05	-1e-05	2e-05	0	-1e-05	0	3
11147	-0.00016	2e-05	-3e-05	-1e-05	2e-05	0	-1e-05	0	3
11148	-0.00016	2e-05	-3e-05	-1e-05	2e-05	0	-1e-05	0	3
11149	-0.00016	2e-05	-3e-05	-1e-05	2e-05	0	-1e-05	0	3
11150	-0.00016	2e-05	-3e-05	-1e-05	2e-05	0	-1e-05	0	3
11151	0.00013	-3e-05	-2e-05	1e-05	4e-05	0.00017	-2e-05	1e-05	3
11152	0.00013	-3e-05	-2e-05	1e-05	4e-05	0.00017	-2e-05	1e-05	3
11153	0.00011	5e-05	-1e-05	-2e-05	-1e-05	0	-8e-05	-3e-05	3
11154	0.00011	5e-05	-1e-05	-2e-05	-1e-05	0	-8e-05	-3e-05	3
11155	0.00011	5e-05	-1e-05	-2e-05	-1e-05	0	-8e-05	-3e-05	3
11156	0.00011	5e-05	-1e-05	-2e-05	-1e-05	0	-8e-05	-3e-05	3
11157	0.00011	5e-05	-1e-05	-2e-05	-1e-05	0	-8e-05	-3e-05	3
11158	0.00011	5e-05	-1e-05	-2e-05	-1e-05	0	-8e-05	-3e-05	3
11159	0.00011	5e-05	-1e-05	-2e-05	-1e-05	0	-8e-05	-3e-05	3
11160	0.00011	5e-05	-1e-05	-2e-05	-1e-05	0	-8e-05	-3e-05	3
11161	0.00011	5e-05	-1e-05	-2e-05	-1e-05	0	-8e-05	-3e-05	3
11162	0.00011	5e-05	-1e-05	-2e-05	-1e-05	0	-8e-05	-3e-05	3
11163	0.00011	5e-05	-1e-05	-2e-05	-1e-05	0	-8e-05	-3e-05	3
11164	0.00011	5e-05	-1e-05	-2e-05	-1e-05	0	-8e-05	-3e-05	3
11165	0.00011	5e-05	-1e-05	-2e-05	-1e-05	0	-8e-05	-3e-05	3
11166	0.00011	5e-05	-1e-05	-2e-05	-1e-05	0	-8e-05	-3e-05	3
11167	0.00011	5e-05	-1e-05	-2e-05	-1e-05	0	-8e-05	-3e-05	3
11168	0.00011	5e-05	-1e-05	-2e-05	-1e-05	0	-8e-05	-3e-05	3
11169	0.00011	5e-05	-1e-05	-2e-05	-1e-05	0	-8e-05	-3e-05	3
11170	0.00011	5e-05	-1e-05	-2e-05	-1e-05	0	-8e-05	-3e-05	3
11171	0.00011	5e-05	-1e-05	-2e-05	-1e-05	0	-8e-05	-3e-05	3
11172	0.00011	5e-05	-1e-05	-2e-05	-1e-05	0	-8e-05	-3e-05	3
11173	-5e-05	-1e-05	3e-05	3e-05	3e-05	-0.00015	-7e-05	-1e-05	3
11174	-5e-05	-1e-05	3e-05	3e-05	3e-05	-0.00015	-7e-05	-1e-05	3
11175	6e-05	0.00025	4e-05	-2e-05	-0.00012	-0.00016	1e-05	0	3
11176	6e-05	0.00025	4e-05	-2e-05	-0.00012	-0.00016	1e-05	0	3
11177	6e-05	0.00025	4e-05	-2e-05	-0.00012	-0.00016	1e-05	0	3
11178	6e-05	0.00025	4e-05	-2e-05	-0.00012	-0.00016	1e-05	0	3
11179	6e-05	0.00025	4e-05	-2e-05	-0.00012	-0.00016	1e-05	0	3
11180	6e-05	0.00025	4e-05	-2e-05	-0.00012	-0.00016	1e-05	0	3
11181	6e-05	0.00025	4e-05	-2e-05	-0.00012	-0.00016	1e-05	0	3
11182	6e-05	0.00025	4e-05	-2e-05	-0.00012	-0.00016	1e-05	0	3
11183	6e-05	0.00025	4e-05	-2e-05	-0.00012	-0.00016	1e-05	0	3
11184	6e-05	0.00025	4e-05	-2e-05	-0.00012	-0.00016	1e-05	0	3
11185	6e-05	0.00025	4e-05	-2e-05	-0.00012	-0.00016	1e-05	0	3
11186	6e-05	0.00025	4e-05	-2e-05	-0.00012	-0.00016	1e-05	0	3
11188	6e-05	0.00025	4e-05	-2e-05	-0.00012	-0.00016	1e-05	0	3
11189	6e-05	0.00025	4e-05	-2e-05	-0.00012	-0.00016	1e-05	0	3
11190	6e-05	0.00025	4e-05	-2e-05	-0.00012	-0.00016	1e-05	0	3
11191	6e-05	0.00025	4e-05	-2e-05	-0.00012	-0.00016	1e-05	0	3
11192	6e-05	0.00025	4e-05	-2e-05	-0.00012	-0.00016	1e-05	0	3
11193	6e-05	0.00025	4e-05	-2e-05	-0.00012	-0.00016	1e-05	0	3
11194	6e-05	0.00025	4e-05	-2e-05	-0.00012	-0.00016	1e-05	0	3
11195	6e-05	0.00025	4e-05	-2e-05	-0.00012	-0.00016	1e-05	0	3
11196	6e-05	0.00025	4e-05	-2e-05	-0.00012	-0.00016	1e-05	0	3
11197	0.00012	-3e-05	0	-1e-05	-7e-05	-0.0002	-6e-05	-4e-05	3
11198	-0.0001	-0.00031	-5e-05	0	4e-05	-3e-05	0	-8e-05	3
11199	-0.0001	-0.00031	-5e-05	0	4e-05	-3e-05	0	-8e-05	3
11200	-0.0001	-0.00031	-5e-05	0	4e-05	-3e-05	0	-8e-05	3
11201	-0.0001	-0.00031	-5e-05	0	4e-05	-3e-05	0	-8e-05	3
11202	-0.0001	-0.00031	-5e-05	0	4e-05	-3e-05	0	-8e-05	3
11203	-0.0001	-0.00031	-5e-05	0	4e-05	-3e-05	0	-8e-05	3
11204	-0.0001	-0.00031	-5e-05	0	4e-05	-3e-05	0	-8e-05	3
11205	-0.0001	-0.00031	-5e-05	0	4e-05	-3e-05	0	-8e-05	3
11206	-0.0001	-0.00031	-5e-05	0	4e-05	-3e-05	0	-8e-05	3
11207	-0.0001	-0.00031	-5e-05	0	4e-05	-3e-05	0	-8e-05	3
11208	-0.0001	-0.00031	-5e-05	0	4e-05	-3e-05	0	-8e-05	3
11209	-0.0001	-0.00031	-5e-05	0	4e-05	-3e-05	0	-8e-05	3
11210	-0.0001	-0.00031	-5e-05	0	4e-05	-3e-05	0	-8e-05	3
11211	-0.00017	-4e-05	-5e-05	-2e-05	4e-05	-0.00024	-0.0001	-0.0001	3
11212	-0.0004	9e-05	1e-05	-3e-05	-5e-05	0.0001	9e-05	-5e-05	3
11213	-0.0004	9e-05	1e-05	-3e-05	-5e-05	0.0001	9e-05	-5e-05	3
11214	-0.0004	9e-05	1e-05	-3e-05	-5e-05	0.0001	9e-05	-5e-05	3
11215	-0.0004	9e-05	1e-05	-3e-05	-5e-05	0.0001	9e-05	-5e-05	3
11216	-0.0004	9e-05	1e-05	-3e-05	-5e-05	0.0001	9e-05	-5e-05	3
11217	-0.0004	9e-05	1e-05	-3e-05	-5e-05	0.0001	9e-05	-5e-05	3
11218	-0.0004	9e-05	1e-05	-3e-05	-5e-05	0.0001	9e-05	-5e-05	3
11219	-0.0004	9e-05	1e-05	-3e-05	-5e-05	0.0001	9e-05	-5e-05	3
11220	-0.0004	9e-05	1e-05	-3e-05	-5e-05	0.0001	9e-05	-5e-05	3
11221	-0.0004	9e-05	1e-05	-3e-05	-5e-05	0.0001	9e-05	-5e-05	3
11222	-0.0004	9e-05	1e-05	-3e-05	-5e-05	0.0001	9e-05	-5e-05	3
11223	-0.0004	9e-05	1e-05	-3e-05	-5e-05	0.0001	9e-05	-5e-05	3
11224	-0.0004	9e-05	1e-05	-3e-05	-5e-05	0.0001	9e-05	-5e-05	3
11225	-0.0004	9e-05	1e-05	-3e-05	-5e-05	0.0001	9e-05	-5e-05	3
11226	-0.0004	9e-05	1e-05	-3e-05	-5e-05	0.0001	9e-05	-5e-05	3
11227	-0.0004	9e-05	1e-05	-3e-05	-5e-05	0.0001	9e-05	-5e-05	3
11228	-0.0004	9e-05	1e-05	-3e-05	-5e-05	0.0001	9e-05	-5e-05	3
11229	-0.0004	9e-05	1e-05	-3e-05	-5e-05	0.0001	9e-05	-5e-05	3
11230	-0.0004	9e-05	1e-05	-3e-05	-5e-05	0.0001	9e-05	-5e-05	3
11231	-0.0004	9e-05	1e-05	-3e-05	-5e-05	0.0001	9e-05	-5e-05	3
11232	-0.0004	9e-05	1e-05	-3e-05	-5e-05	0.0001	9e-05	-5e-05	3
11233	0.00017	0.00043	2e-05	-4e-05	-0.00011	-5e-05	0.00011	8e-05	3
11234	0.00017	0.00043	2e-05	-4e-05	-0.00011	-5e-05	0.00011	8e-05	3
11235	0.00012	0.00013	6e-05	2e-05	-7e-05	1e-05	-7e-05	7e-05	3
11236	0.00012	0.00013	6e-05	2e-05	-7e-05	1e-05	-7e-05	7e-05	3
11238	0.00012	0.00013	6e-05	2e-05	-7e-05	1e-05	-7e-05	7e-05	3
11239	0.00012	0.00013	6e-05	2e-05	-7e-05	1e-05	-7e-05	7e-05	3
11240	0.00012	0.00013	6e-05	2e-05	-7e-05	1e-05	-7e-05	7e-05	3
11241	0.00012	0.00013	6e-05	2e-05	-7e-05	1e-05	-7e-05	7e-05	3
11242	0.00012	0.00013	6e-05	2e-05	-7e-05	1e-05	-7e-05	7e-05	3
11243	0.00012	0.00013	6e-05	2e-05	-7e-05	1e-05	-7e-05	7e-05	3
11244	0.00012	0.00013	6e-05	2e-05	-7e-05	1e-05	-7e-05	7e-05	3
11245	0.00012	0.00013	6e-05	2e-05	-7e-05	1e-05	-7e-05	7e-05	3
11246	0.00012	0.00013	6e-05	2e-05	-7e-05	1e-05	-7e-05	7e-05	3
11247	0.00012	0.00013	6e-05	2e-05	-7e-05	1e-05	-7e-05	7e-05	3
11248	0.00012	0.00013	6e-05	2e-05	-7e-05	1e-05	-7e-05	7e-05	3
11249	0.00012	0.00013	6e-05	2e-05	-7e-05	1e-05	-7e-05	7e-05	3
11250	0.00012	0.00013	6e-05	2e-05	-7e-05	1e-05	-7e-05	7e-05	3
11251	0.00012	0.00013	6e-05	2e-05	-7e-05	1e-05	-7e-05	7e-05	3
11252	0.00012	0.00013	6e-05	2e-05	-7e-05	1e-05	-7e-05	7e-05	3
11253	0.00012	0.00013	6e-05	2e-05	-7e-05	1e-05	-7e-05	7e-05	3
11254	0.00012	0.00013	6e-05	2e-05	-7e-05	1e-05	-7e-05	7e-05	3
11255	0.00012	0.00013	6e-05	2e-05	-7e-05	1e-05	-7e-05	7e-05	3
11256	-0.00013	-0.00015	-3e-05	1e-05	-2e-05	-0.00022	-3e-05	-2e-05	3
11257	-2e-05	-2e-05	-1e-05	0	4e-05	0.00029	-5e-05	4e-05	3
11258	-2e-05	-2e-05	-1e-05	0	4e-05	0.00029	-5e-05	4e-05	3
11259	-2e-05	-2e-05	-1e-05	0	4e-05	0.00029	-5e-05	4e-05	3
11260	-2e-05	-2e-05	-1e-05	0	4e-05	0.00029	-5e-05	4e-05	3
11261	-2e-05	-2e-05	-1e-05	0	4e-05	0.00029	-5e-05	4e-05	3
11262	-2e-05	-2e-05	-1e-05	0	4e-05	0.00029	-5e-05	4e-05	3
11263	-2e-05	-2e-05	-1e-05	0	4e-05	0.00029	-5e-05	4e-05	3
11264	-2e-05	-2e-05	-1e-05	0	4e-05	0.00029	-5e-05	4e-05	3
11265	-2e-05	-2e-05	-1e-05	0	4e-05	0.00029	-5e-05	4e-05	3
11266	-2e-05	-2e-05	-1e-05	0	4e-05	0.00029	-5e-05	4e-05	3
11267	-2e-05	-2e-05	-1e-05	0	4e-05	0.00029	-5e-05	4e-05	3
11268	-2e-05	-2e-05	-1e-05	0	4e-05	0.00029	-5e-05	4e-05	3
11269	-2e-05	-2e-05	-1e-05	0	4e-05	0.00029	-5e-05	4e-05	3
11270	-2e-05	-2e-05	-1e-05	0	4e-05	0.00029	-5e-05	4e-05	3
11271	-2e-05	-2e-05	-1e-05	0	4e-05	0.00029	-5e-05	4e-05	3
11272	-2e-05	-2e-05	-1e-05	0	4e-05	0.00029	-5e-05	4e-05	3
11273	-2e-05	-2e-05	-1e-05	0	4e-05	0.00029	-5e-05	4e-05	3
11274	-2e-05	-2e-05	-1e-05	0	4e-05	0.00029	-5e-05	4e-05	3
11275	-2e-05	-2e-05	-1e-05	0	4e-05	0.00029	-5e-05	4e-05	3
11276	-2e-05	-2e-05	-1e-05	0	4e-05	0.00029	-5e-05	4e-05	3
11277	-2e-05	-2e-05	-1e-05	0	4e-05	0.00029	-5e-05	4e-05	3
11278	6e-05	1e-05	-1e-05	0	4e-05	0	9e-05	6e-05	3
11279	6e-05	1e-05	-1e-05	0	4e-05	0	9e-05	6e-05	3
11280	6e-05	1e-05	-1e-05	0	4e-05	0	9e-05	6e-05	3
11281	6e-05	1e-05	-1e-05	0	4e-05	0	9e-05	6e-05	3
11282	6e-05	1e-05	-1e-05	0	4e-05	0	9e-05	6e-05	3
11283	6e-05	1e-05	-1e-05	0	4e-05	0	9e-05	6e-05	3
11284	6e-05	1e-05	-1e-05	0	4e-05	0	9e-05	6e-05	3
11285	6e-05	1e-05	-1e-05	0	4e-05	0	9e-05	6e-05	3
11286	-4e-05	-0.00043	-0.00011	-2e-05	0	-0.00034	-9e-05	-0.00011	3
11288	-4e-05	-0.00043	-0.00011	-2e-05	0	-0.00034	-9e-05	-0.00011	3
11289	-4e-05	-0.00043	-0.00011	-2e-05	0	-0.00034	-9e-05	-0.00011	3
11290	-4e-05	-0.00043	-0.00011	-2e-05	0	-0.00034	-9e-05	-0.00011	3
11291	-4e-05	-0.00043	-0.00011	-2e-05	0	-0.00034	-9e-05	-0.00011	3
11292	-4e-05	-0.00043	-0.00011	-2e-05	0	-0.00034	-9e-05	-0.00011	3
11293	-0.00039	-0.00026	-0.00018	-1e-05	0	8e-05	-4e-05	-8e-05	3
11294	-0.00039	-0.00026	-0.00018	-1e-05	0	8e-05	-4e-05	-8e-05	3
11295	-0.00012	-0.00029	-3e-05	0	-4e-05	0.00022	-6e-05	-9e-05	3
11296	-0.00012	-0.00029	-3e-05	0	-4e-05	0.00022	-6e-05	-9e-05	3
11297	-0.00012	-0.00029	-3e-05	0	-4e-05	0.00022	-6e-05	-9e-05	3
11298	-0.00012	-0.00029	-3e-05	0	-4e-05	0.00022	-6e-05	-9e-05	3
11299	-0.00012	-0.00029	-3e-05	0	-4e-05	0.00022	-6e-05	-9e-05	3
11300	-0.00012	-0.00029	-3e-05	0	-4e-05	0.00022	-6e-05	-9e-05	3
11301	-0.00012	-0.00029	-3e-05	0	-4e-05	0.00022	-6e-05	-9e-05	3
11302	-0.00012	-0.00029	-3e-05	0	-4e-05	0.00022	-6e-05	-9e-05	3
11303	-0.00012	-0.00029	-3e-05	0	-4e-05	0.00022	-6e-05	-9e-05	3
11304	-0.00012	-0.00029	-3e-05	0	-4e-05	0.00022	-6e-05	-9e-05	3
11305	-0.00012	-0.00029	-3e-05	0	-4e-05	0.00022	-6e-05	-9e-05	3
11306	-0.00012	-0.00029	-3e-05	0	-4e-05	0.00022	-6e-05	-9e-05	3
11307	-0.00012	-0.00029	-3e-05	0	-4e-05	0.00022	-6e-05	-9e-05	3
11308	-0.00012	-0.00029	-3e-05	0	-4e-05	0.00022	-6e-05	-9e-05	3
11309	-0.00012	-0.00029	-3e-05	0	-4e-05	0.00022	-6e-05	-9e-05	3
11310	-0.00012	-0.00029	-3e-05	0	-4e-05	0.00022	-6e-05	-9e-05	3
11311	-0.00012	-0.00029	-3e-05	0	-4e-05	0.00022	-6e-05	-9e-05	3
11312	-0.00012	-0.00029	-3e-05	0	-4e-05	0.00022	-6e-05	-9e-05	3
11313	-0.00012	-0.00029	-3e-05	0	-4e-05	0.00022	-6e-05	-9e-05	3
11314	-0.00012	-0.00029	-3e-05	0	-4e-05	0.00022	-6e-05	-9e-05	3
11315	-0.00012	-0.00029	-3e-05	0	-4e-05	0.00022	-6e-05	-9e-05	3
11316	-0.00012	-0.00029	-3e-05	0	-4e-05	0.00022	-6e-05	-9e-05	3
11317	-0.00012	-0.00029	-3e-05	0	-4e-05	0.00022	-6e-05	-9e-05	3
11318	-0.00012	-0.00029	-3e-05	0	-4e-05	0.00022	-6e-05	-9e-05	3
11319	-0.00012	-0.00029	-3e-05	0	-4e-05	0.00022	-6e-05	-9e-05	3
11320	-0.00012	-0.00029	-3e-05	0	-4e-05	0.00022	-6e-05	-9e-05	3
11321	-0.00012	-0.00029	-3e-05	0	-4e-05	0.00022	-6e-05	-9e-05	3
11322	-0.00012	-0.00029	-3e-05	0	-4e-05	0.00022	-6e-05	-9e-05	3
11323	-0.00038	-5e-05	2e-05	1e-05	2e-05	-8e-05	-8e-05	-2e-05	3
11324	-0.00013	-7e-05	-6e-05	-4e-05	0.0001	0.00024	-4e-05	-4e-05	3
11325	-4e-05	-8e-05	2e-05	1e-05	-1e-05	0.00026	0	-2e-05	3
11326	-4e-05	-8e-05	2e-05	1e-05	-1e-05	0.00026	0	-2e-05	3
11327	-4e-05	-8e-05	2e-05	1e-05	-1e-05	0.00026	0	-2e-05	3
11328	-4e-05	-8e-05	2e-05	1e-05	-1e-05	0.00026	0	-2e-05	3
11329	-4e-05	-8e-05	2e-05	1e-05	-1e-05	0.00026	0	-2e-05	3
11330	0.0003	0.00022	2e-05	1e-05	-0.00013	-0.00036	-7e-05	0	3
11331	-0.00016	-6e-05	0	-3e-05	3e-05	-5e-05	6e-05	-3e-05	3
11332	-0.00016	-6e-05	0	-3e-05	3e-05	-5e-05	6e-05	-3e-05	3
11333	-0.00016	-6e-05	0	-3e-05	3e-05	-5e-05	6e-05	-3e-05	3
11334	-0.00016	-6e-05	0	-3e-05	3e-05	-5e-05	6e-05	-3e-05	3
11335	-0.00016	-6e-05	0	-3e-05	3e-05	-5e-05	6e-05	-3e-05	3
11336	-0.00016	-6e-05	0	-3e-05	3e-05	-5e-05	6e-05	-3e-05	3
11338	-0.00016	-6e-05	0	-3e-05	3e-05	-5e-05	6e-05	-3e-05	3
11339	-0.00016	-6e-05	0	-3e-05	3e-05	-5e-05	6e-05	-3e-05	3
11340	-0.00016	-6e-05	0	-3e-05	3e-05	-5e-05	6e-05	-3e-05	3
11341	-0.00016	-6e-05	0	-3e-05	3e-05	-5e-05	6e-05	-3e-05	3
11342	-0.00016	-6e-05	0	-3e-05	3e-05	-5e-05	6e-05	-3e-05	3
11343	-0.00016	-6e-05	0	-3e-05	3e-05	-5e-05	6e-05	-3e-05	3
11344	-0.00016	-6e-05	0	-3e-05	3e-05	-5e-05	6e-05	-3e-05	3
11345	-4e-05	-4e-05	0	-4e-05	-1e-05	-0.00015	0.00011	3e-05	3
11346	-4e-05	-4e-05	0	-4e-05	-1e-05	-0.00015	0.00011	3e-05	3
11347	-4e-05	-4e-05	0	-4e-05	-1e-05	-0.00015	0.00011	3e-05	3
11348	-4e-05	-4e-05	0	-4e-05	-1e-05	-0.00015	0.00011	3e-05	3
11349	-4e-05	-4e-05	0	-4e-05	-1e-05	-0.00015	0.00011	3e-05	3
11350	-4e-05	-4e-05	0	-4e-05	-1e-05	-0.00015	0.00011	3e-05	3
11351	-4e-05	-4e-05	0	-4e-05	-1e-05	-0.00015	0.00011	3e-05	3
11352	-4e-05	-4e-05	0	-4e-05	-1e-05	-0.00015	0.00011	3e-05	3
11353	0.00021	0.00034	6e-05	3e-05	0	0.00014	6e-05	9e-05	3
11355	0.00016	3e-05	-2e-05	-5e-05	-0.00014	2e-05	-5e-05	3e-05	3
11356	0.00016	3e-05	-2e-05	-5e-05	-0.00014	2e-05	-5e-05	3e-05	3
11357	0.00016	3e-05	-2e-05	-5e-05	-0.00014	2e-05	-5e-05	3e-05	3
11358	0.00016	3e-05	-2e-05	-5e-05	-0.00014	2e-05	-5e-05	3e-05	3
11359	0.00016	3e-05	-2e-05	-5e-05	-0.00014	2e-05	-5e-05	3e-05	3
11360	0.00016	3e-05	-2e-05	-5e-05	-0.00014	2e-05	-5e-05	3e-05	3
11361	0.00016	3e-05	-2e-05	-5e-05	-0.00014	2e-05	-5e-05	3e-05	3
11362	0.00016	3e-05	-2e-05	-5e-05	-0.00014	2e-05	-5e-05	3e-05	3
11363	0.00016	3e-05	-2e-05	-5e-05	-0.00014	2e-05	-5e-05	3e-05	3
11364	0.00016	3e-05	-2e-05	-5e-05	-0.00014	2e-05	-5e-05	3e-05	3
11365	0.00016	3e-05	-2e-05	-5e-05	-0.00014	2e-05	-5e-05	3e-05	3
11366	0.00016	3e-05	-2e-05	-5e-05	-0.00014	2e-05	-5e-05	3e-05	3
11367	0.00016	3e-05	-2e-05	-5e-05	-0.00014	2e-05	-5e-05	3e-05	3
11368	0.00016	3e-05	-2e-05	-5e-05	-0.00014	2e-05	-5e-05	3e-05	3
11369	0.00016	3e-05	-2e-05	-5e-05	-0.00014	2e-05	-5e-05	3e-05	3
11370	0.00016	3e-05	-2e-05	-5e-05	-0.00014	2e-05	-5e-05	3e-05	3
11371	0.00016	3e-05	-2e-05	-5e-05	-0.00014	2e-05	-5e-05	3e-05	3
11372	0.00016	3e-05	-2e-05	-5e-05	-0.00014	2e-05	-5e-05	3e-05	3
11373	0.00016	3e-05	-2e-05	-5e-05	-0.00014	2e-05	-5e-05	3e-05	3
11374	0.00016	3e-05	-2e-05	-5e-05	-0.00014	2e-05	-5e-05	3e-05	3
11375	0.00016	3e-05	-2e-05	-5e-05	-0.00014	2e-05	-5e-05	3e-05	3
11376	0.00027	-8e-05	0	-2e-05	-6e-05	0.0001	3e-05	2e-05	3
11377	2e-05	0.00022	3e-05	0	-2e-05	-0.00026	-2e-05	4e-05	3
11378	2e-05	0.00022	3e-05	0	-2e-05	-0.00026	-2e-05	4e-05	3
11379	2e-05	0.00022	3e-05	0	-2e-05	-0.00026	-2e-05	4e-05	3
11380	2e-05	0.00022	3e-05	0	-2e-05	-0.00026	-2e-05	4e-05	3
11381	2e-05	0.00022	3e-05	0	-2e-05	-0.00026	-2e-05	4e-05	3
11382	2e-05	0.00022	3e-05	0	-2e-05	-0.00026	-2e-05	4e-05	3
11383	2e-05	0.00022	3e-05	0	-2e-05	-0.00026	-2e-05	4e-05	3
11384	2e-05	0.00022	3e-05	0	-2e-05	-0.00026	-2e-05	4e-05	3
11385	2e-05	0.00022	3e-05	0	-2e-05	-0.00026	-2e-05	4e-05	3
11386	2e-05	0.00022	3e-05	0	-2e-05	-0.00026	-2e-05	4e-05	3
11388	2e-05	0.00022	3e-05	0	-2e-05	-0.00026	-2e-05	4e-05	3
11389	2e-05	0.00022	3e-05	0	-2e-05	-0.00026	-2e-05	4e-05	3
11390	2e-05	0.00022	3e-05	0	-2e-05	-0.00026	-2e-05	4e-05	3
11391	2e-05	0.00022	3e-05	0	-2e-05	-0.00026	-2e-05	4e-05	3
11392	2e-05	0.00022	3e-05	0	-2e-05	-0.00026	-2e-05	4e-05	3
11393	2e-05	0.00022	3e-05	0	-2e-05	-0.00026	-2e-05	4e-05	3
11394	2e-05	0.00022	3e-05	0	-2e-05	-0.00026	-2e-05	4e-05	3
11395	2e-05	0.00022	3e-05	0	-2e-05	-0.00026	-2e-05	4e-05	3
11396	2e-05	0.00022	3e-05	0	-2e-05	-0.00026	-2e-05	4e-05	3
11397	2e-05	0.00022	3e-05	0	-2e-05	-0.00026	-2e-05	4e-05	3
11398	2e-05	0.00022	3e-05	0	-2e-05	-0.00026	-2e-05	4e-05	3
