11023	0	-0.0003	-6e-05	-6e-05	-4e-05	-0.00015	0	0.00032	3
11024	0	-0.0003	-6e-05	-6e-05	-4e-05	-0.00015	0	0.00032	3
11025	0	-0.0003	-6e-05	-6e-05	-4e-05	-0.00015	0	0.00032	3
11026	0	-0.0003	-6e-05	-6e-05	-4e-05	-0.00015	0	0.00032	3
11027	0	-0.0003	-6e-05	-6e-05	-4e-05	-0.00015	0	0.00032	3
11028	0	-0.0003	-6e-05	-6e-05	-4e-05	-0.00015	0	0.00032	3
11029	0	-0.0003	-6e-05	-6e-05	-4e-05	-0.00015	0	0.00032	3
11030	0	-0.0003	-6e-05	-6e-05	-4e-05	-0.00015	0	0.00032	3
11031	0	-0.0003	-6e-05	-6e-05	-4e-05	-0.00015	0	0.00032	3
11032	0	-0.0003	-6e-05	-6e-05	-4e-05	-0.00015	0	0.00032	3
11033	0	-0.0003	-6e-05	-6e-05	-4e-05	-0.00015	0	0.00032	3
11034	0	-0.0003	-6e-05	-6e-05	-4e-05	-0.00015	0	0.00032	3
11035	0	-0.0003	-6e-05	-6e-05	-4e-05	-0.00015	0	0.00032	3
11036	0	-0.0003	-6e-05	-6e-05	-4e-05	-0.00015	0	0.00032	3
11038	-8e-05	0.00035	3e-05	2e-05	9e-05	-0.00013	0.00026	-0.00063	3
11039	-8e-05	0.00035	3e-05	2e-05	9e-05	-0.00013	0.00026	-0.00063	3
11040	-8e-05	0.00035	3e-05	2e-05	9e-05	-0.00013	0.00026	-0.00063	3
11041	-8e-05	0.00035	3e-05	2e-05	9e-05	-0.00013	0.00026	-0.00063	3
11042	-8e-05	0.00035	3e-05	2e-05	9e-05	-0.00013	0.00026	-0.00063	3
11043	-8e-05	0.00035	3e-05	2e-05	9e-05	-0.00013	0.00026	-0.00063	3
11044	-8e-05	0.00035	3e-05	2e-05	9e-05	-0.00013	0.00026	-0.00063	3
11045	-0.00031	0.00022	4e-05	2e-05	-6e-05	4e-05	-0.00017	0.00039	3
11046	-0.00031	0.00022	4e-05	2e-05	-6e-05	4e-05	-0.00017	0.00039	3
11047	-0.00104	-0.00038	-7e-05	-5e-05	-0.00032	-0.00022	-0.00022	-0.00063	3
11048	-0.00104	-0.00038	-7e-05	-5e-05	-0.00032	-0.00022	-0.00022	-0.00063	3
11049	-0.00104	-0.00038	-7e-05	-5e-05	-0.00032	-0.00022	-0.00022	-0.00063	3
11050	-0.00104	-0.00038	-7e-05	-5e-05	-0.00032	-0.00022	-0.00022	-0.00063	3
11051	-0.00104	-0.00038	-7e-05	-5e-05	-0.00032	-0.00022	-0.00022	-0.00063	3
11052	-0.00104	-0.00038	-7e-05	-5e-05	-0.00032	-0.00022	-0.00022	-0.00063	3
11053	-0.00104	-0.00038	-7e-05	-5e-05	-0.00032	-0.00022	-0.00022	-0.00063	3
11054	-0.00104	-0.00038	-7e-05	-5e-05	-0.00032	-0.00022	-0.00022	-0.00063	3
11055	-0.00104	-0.00038	-7e-05	-5e-05	-0.00032	-0.00022	-0.00022	-0.00063	3
11056	-0.00104	-0.00038	-7e-05	-5e-05	-0.00032	-0.00022	-0.00022	-0.00063	3
11057	-0.00104	-0.00038	-7e-05	-5e-05	-0.00032	-0.00022	-0.00022	-0.00063	3
11058	-0.00104	-0.00038	-7e-05	-5e-05	-0.00032	-0.00022	-0.00022	-0.00063	3
11059	-0.00104	-0.00038	-7e-05	-5e-05	-0.00032	-0.00022	-0.00022	-0.00063	3
11060	-0.00104	-0.00038	-7e-05	-5e-05	-0.00032	-0.00022	-0.00022	-0.00063	3
11061	-0.00104	-0.00038	-7e-05	-5e-05	-0.00032	-0.00022	-0.00022	-0.00063	3
11062	-0.00104	-0.00038	-7e-05	-5e-05	-0.00032	-0.00022	-0.00022	-0.00063	3
11063	-0.00104	-0.00038	-7e-05	-5e-05	-0.00032	-0.00022	-0.00022	-0.00063	3
11064	-0.00104	-0.00038	-7e-05	-5e-05	-0.00032	-0.00022	-0.00022	-0.00063	3
11065	-0.00104	-0.00038	-7e-05	-5e-05	-0.00032	-0.00022	-0.00022	-0.00063	3
11066	-0.00104	-0.00038	-7e-05	-5e-05	-0.00032	-0.00022	-0.00022	-0.00063	3
11067	-0.00104	-0.00038	-7e-05	-5e-05	-0.00032	-0.00022	-0.00022	-0.00063	3
11068	-0.00065	-0.0005	-6e-05	-1e-05	2e-05	0	0.00012	4e-05	3
11069	-0.00065	-0.0005	-6e-05	-1e-05	2e-05	0	0.00012	4e-05	3
11070	0.00108	0.00016	2e-05	2e-05	0.00017	9e-05	-7e-05	5e-05	3
11071	0.00108	0.00016	2e-05	2e-05	0.00017	9e-05	-7e-05	5e-05	3
11072	0.00108	0.00016	2e-05	2e-05	0.00017	9e-05	-7e-05	5e-05	3
11073	0.00108	0.00016	2e-05	2e-05	0.00017	9e-05	-7e-05	5e-05	3
11074	0.00108	0.00016	2e-05	2e-05	0.00017	9e-05	-7e-05	5e-05	3
11075	0.00108	0.00016	2e-05	2e-05	0.00017	9e-05	-7e-05	5e-05	3
11076	0.00108	0.00016	2e-05	2e-05	0.00017	9e-05	-7e-05	5e-05	3
11077	0.00108	0.00016	2e-05	2e-05	0.00017	9e-05	-7e-05	5e-05	3
11078	0.00108	0.00016	2e-05	2e-05	0.00017	9e-05	-7e-05	5e-05	3
11079	0.00108	0.00016	2e-05	2e-05	0.00017	9e-05	-7e-05	5e-05	3
11080	0.00108	0.00016	2e-05	2e-05	0.00017	9e-05	-7e-05	5e-05	3
11081	0.00108	0.00016	2e-05	2e-05	0.00017	9e-05	-7e-05	5e-05	3
11082	0.00025	0.00037	-2e-05	0	0.00037	0.0005	0.00022	-0.00014	3
11083	0.00025	0.00037	-2e-05	0	0.00037	0.0005	0.00022	-0.00014	3
11084	0.00025	0.00037	-2e-05	0	0.00037	0.0005	0.00022	-0.00014	3
11085	0.00025	0.00037	-2e-05	0	0.00037	0.0005	0.00022	-0.00014	3
11086	0.00025	0.00037	-2e-05	0	0.00037	0.0005	0.00022	-0.00014	3
11088	0.00025	0.00037	-2e-05	0	0.00037	0.0005	0.00022	-0.00014	3
11089	0.00025	0.00037	-2e-05	0	0.00037	0.0005	0.00022	-0.00014	3
11090	0.00025	0.00037	-2e-05	0	0.00037	0.0005	0.00022	-0.00014	3
11091	0.00025	0.00037	-2e-05	0	0.00037	0.0005	0.00022	-0.00014	3
11092	0.00025	0.00037	-2e-05	0	0.00037	0.0005	0.00022	-0.00014	3
11093	0.00025	0.00037	-2e-05	0	0.00037	0.0005	0.00022	-0.00014	3
11094	0.00025	0.00037	-2e-05	0	0.00037	0.0005	0.00022	-0.00014	3
11095	0.00025	0.00037	-2e-05	0	0.00037	0.0005	0.00022	-0.00014	3
11096	0.00025	0.00037	-2e-05	0	0.00037	0.0005	0.00022	-0.00014	3
11097	0.00025	0.00037	-2e-05	0	0.00037	0.0005	0.00022	-0.00014	3
11098	0.00094	0.0008	0.00011	3e-05	-0.00036	0.00011	1e-05	7e-05	3
11099	0.00094	0.0008	0.00011	3e-05	-0.00036	0.00011	1e-05	7e-05	3
11100	0.00094	0.0008	0.00011	3e-05	-0.00036	0.00011	1e-05	7e-05	3
11101	0.00094	0.0008	0.00011	3e-05	-0.00036	0.00011	1e-05	7e-05	3
11102	0.00094	0.0008	0.00011	3e-05	-0.00036	0.00011	1e-05	7e-05	3
11103	0.00094	0.0008	0.00011	3e-05	-0.00036	0.00011	1e-05	7e-05	3
11104	0.00094	0.0008	0.00011	3e-05	-0.00036	0.00011	1e-05	7e-05	3
11105	0.00055	0.00056	8e-05	2e-05	-0.00029	2e-05	0.00014	-0.00028	3
11106	0.00055	0.00056	8e-05	2e-05	-0.00029	2e-05	0.00014	-0.00028	3
11107	-0.00015	-3e-05	-3e-05	-6e-05	-0.00016	7e-05	0.00017	0.00038	3
11108	-0.00015	-3e-05	-3e-05	-6e-05	-0.00016	7e-05	0.00017	0.00038	3
11109	-0.00015	-3e-05	-3e-05	-6e-05	-0.00016	7e-05	0.00017	0.00038	3
11110	-0.00015	-3e-05	-3e-05	-6e-05	-0.00016	7e-05	0.00017	0.00038	3
11111	-0.00015	-3e-05	-3e-05	-6e-05	-0.00016	7e-05	0.00017	0.00038	3
11112	-0.00015	-3e-05	-3e-05	-6e-05	-0.00016	7e-05	0.00017	0.00038	3
11113	-0.00015	-3e-05	-3e-05	-6e-05	-0.00016	7e-05	0.00017	0.00038	3
11114	-0.00015	-3e-05	-3e-05	-6e-05	-0.00016	7e-05	0.00017	0.00038	3
11115	-0.00015	-3e-05	-3e-05	-6e-05	-0.00016	7e-05	0.00017	0.00038	3
11116	-0.00015	-3e-05	-3e-05	-6e-05	-0.00016	7e-05	0.00017	0.00038	3
11117	-0.00015	-3e-05	-3e-05	-6e-05	-0.00016	7e-05	0.00017	0.00038	3
11118	-0.00015	-3e-05	-3e-05	-6e-05	-0.00016	7e-05	0.00017	0.00038	3
11119	-0.00015	-3e-05	-3e-05	-6e-05	-0.00016	7e-05	0.00017	0.00038	3
11120	-0.00015	-3e-05	-3e-05	-6e-05	-0.00016	7e-05	0.00017	0.00038	3
11121	-0.00015	-3e-05	-3e-05	-6e-05	-0.00016	7e-05	0.00017	0.00038	3
11122	-0.00015	-3e-05	-3e-05	-6e-05	-0.00016	7e-05	0.00017	0.00038	3
11123	-0.00015	-3e-05	-3e-05	-6e-05	-0.00016	7e-05	0.00017	0.00038	3
11124	-0.00015	-3e-05	-3e-05	-6e-05	-0.00016	7e-05	0.00017	0.00038	3
11125	-0.00015	-3e-05	-3e-05	-6e-05	-0.00016	7e-05	0.00017	0.00038	3
11126	-0.00015	-3e-05	-3e-05	-6e-05	-0.00016	7e-05	0.00017	0.00038	3
11127	-0.00015	-3e-05	-3e-05	-6e-05	-0.00016	7e-05	0.00017	0.00038	3
11128	0.00042	-0.00028	-2e-05	-1e-05	0.00015	0.00023	-0.00052	0.00016	3
11129	-0.00098	-0.00023	-5e-05	-2e-05	0.00022	-0.00037	9e-05	-0.00085	3
11130	0.00038	-0.00035	-5e-05	0	-0.0002	-0.00016	3e-05	0.00052	3
11131	0.00038	-0.00035	-5e-05	0	-0.0002	-0.00016	3e-05	0.00052	3
11132	0.00038	-0.00035	-5e-05	0	-0.0002	-0.00016	3e-05	0.00052	3
11133	0.00038	-0.00035	-5e-05	0	-0.0002	-0.00016	3e-05	0.00052	3
11134	0.00038	-0.00035	-5e-05	0	-0.0002	-0.00016	3e-05	0.00052	3
11135	0.00038	-0.00035	-5e-05	0	-0.0002	-0.00016	3e-05	0.00052	3
11136	0.00038	-0.00035	-5e-05	0	-0.0002	-0.00016	3e-05	0.00052	3
11138	0.00038	-0.00035	-5e-05	0	-0.0002	-0.00016	3e-05	0.00052	3
11139	0.00038	-0.00035	-5e-05	0	-0.0002	-0.00016	3e-05	0.00052	3
11140	0.00038	-0.00035	-5e-05	0	-0.0002	-0.00016	3e-05	0.00052	3
11141	0.00038	-0.00035	-5e-05	0	-0.0002	-0.00016	3e-05	0.00052	3
11142	0.00038	-0.00035	-5e-05	0	-0.0002	-0.00016	3e-05	0.00052	3
11143	0.00038	-0.00035	-5e-05	0	-0.0002	-0.00016	3e-05	0.00052	3
11144	0.00038	-0.00035	-5e-05	0	-0.0002	-0.00016	3e-05	0.00052	3
11145	0.00038	-0.00035	-5e-05	0	-0.0002	-0.00016	3e-05	0.00052	3
11146	0.00038	-0.00035	-5e-05	0	-0.0002	-0.00016	3e-05	0.00052	3
11147	0.00038	-0.00035	-5e-05	0	-0.0002	-0.00016	3e-05	0.00052	3
11148	0.00038	-0.00035	-5e-05	0	-0.0002	-0.00016	3e-05	0.00052	3
11149	0.00038	-0.00035	-5e-05	0	-0.0002	-0.00016	3e-05	0.00052	3
11150	-0.00024	-7e-05	-1e-05	-5e-05	-0.00046	-0.00057	-0.00032	0.00023	3
11151	-0.00024	-7e-05	-1e-05	-5e-05	-0.00046	-0.00057	-0.00032	0.00023	3
11152	-0.0004	-0.00079	-0.00013	-1e-05	-0.00012	1e-05	-0.00013	-0.0004	3
11153	-0.0004	-0.00079	-0.00013	-1e-05	-0.00012	1e-05	-0.00013	-0.0004	3
11154	-0.0004	-0.00079	-0.00013	-1e-05	-0.00012	1e-05	-0.00013	-0.0004	3
11155	-0.0004	-0.00079	-0.00013	-1e-05	-0.00012	1e-05	-0.00013	-0.0004	3
11156	-0.0004	-0.00079	-0.00013	-1e-05	-0.00012	1e-05	-0.00013	-0.0004	3
11157	-0.0004	-0.00079	-0.00013	-1e-05	-0.00012	1e-05	-0.00013	-0.0004	3
11158	-0.0004	-0.00079	-0.00013	-1e-05	-0.00012	1e-05	-0.00013	-0.0004	3
11159	-0.0004	-0.00079	-0.00013	-1e-05	-0.00012	1e-05	-0.00013	-0.0004	3
11160	-0.0004	-0.00079	-0.00013	-1e-05	-0.00012	1e-05	-0.00013	-0.0004	3
11161	-0.0004	-0.00079	-0.00013	-1e-05	-0.00012	1e-05	-0.00013	-0.0004	3
11162	-0.0004	-0.00079	-0.00013	-1e-05	-0.00012	1e-05	-0.00013	-0.0004	3
11163	-0.0004	-0.00079	-0.00013	-1e-05	-0.00012	1e-05	-0.00013	-0.0004	3
11164	-0.0004	-0.00079	-0.00013	-1e-05	-0.00012	1e-05	-0.00013	-0.0004	3
11165	-0.0004	-0.00079	-0.00013	-1e-05	-0.00012	1e-05	-0.00013	-0.0004	3
11166	-0.0008	-0.00019	-4e-05	-2e-05	0.00011	-3e-05	-0.00012	0.00021	3
11167	0.00065	0.00093	0.00015	6e-05	-0.00018	0	-0.00021	0.0005	3
11168	0.00065	0.00093	0.00015	6e-05	-0.00018	0	-0.00021	0.0005	3
11169	0.00065	0.00093	0.00015	6e-05	-0.00018	0	-0.00021	0.0005	3
11170	0.00065	0.00093	0.00015	6e-05	-0.00018	0	-0.00021	0.0005	3
11171	0.00065	0.00093	0.00015	6e-05	-0.00018	0	-0.00021	0.0005	3
11172	0.00065	0.00093	0.00015	6e-05	-0.00018	0	-0.00021	0.0005	3
11173	0.00065	0.00093	0.00015	6e-05	-0.00018	0	-0.00021	0.0005	3
11174	0.00065	0.00093	0.00015	6e-05	-0.00018	0	-0.00021	0.0005	3
11175	0.00065	0.00093	0.00015	6e-05	-0.00018	0	-0.00021	0.0005	3
11176	0.00065	0.00093	0.00015	6e-05	-0.00018	0	-0.00021	0.0005	3
11177	0.00065	0.00093	0.00015	6e-05	-0.00018	0	-0.00021	0.0005	3
11178	0.00065	0.00093	0.00015	6e-05	-0.00018	0	-0.00021	0.0005	3
11179	0.00065	0.00093	0.00015	6e-05	-0.00018	0	-0.00021	0.0005	3
11180	0.00065	0.00093	0.00015	6e-05	-0.00018	0	-0.00021	0.0005	3
11181	0.00065	0.00093	0.00015	6e-05	-0.00018	0	-0.00021	0.0005	3
11182	0.00065	0.00093	0.00015	6e-05	-0.00018	0	-0.00021	0.0005	3
11183	0.00065	0.00093	0.00015	6e-05	-0.00018	0	-0.00021	0.0005	3
11184	0.00065	0.00093	0.00015	6e-05	-0.00018	0	-0.00021	0.0005	3
11185	0.00065	0.00093	0.00015	6e-05	-0.00018	0	-0.00021	0.0005	3
11186	0.00065	0.00093	0.00015	6e-05	-0.00018	0	-0.00021	0.0005	3
11188	-0.00029	-0.00012	1e-05	1e-05	0.0003	-9e-05	0.00044	-0.00022	3
11189	0.00015	0.00016	3e-05	-4e-05	-0.00048	-5e-05	-0.00059	0.00054	3
11190	-0.00038	-0.00021	-7e-05	-6e-05	0.00046	0.00017	-2e-05	1e-05	3
11191	-0.00038	-0.00021	-7e-05	-6e-05	0.00046	0.00017	-2e-05	1e-05	3
11192	-0.00038	-0.00021	-7e-05	-6e-05	0.00046	0.00017	-2e-05	1e-05	3
11193	-0.00038	-0.00021	-7e-05	-6e-05	0.00046	0.00017	-2e-05	1e-05	3
11194	-0.00038	-0.00021	-7e-05	-6e-05	0.00046	0.00017	-2e-05	1e-05	3
11195	-0.00038	-0.00021	-7e-05	-6e-05	0.00046	0.00017	-2e-05	1e-05	3
11196	-0.00038	-0.00021	-7e-05	-6e-05	0.00046	0.00017	-2e-05	1e-05	3
11197	-0.00038	-0.00021	-7e-05	-6e-05	0.00046	0.00017	-2e-05	1e-05	3
11198	-0.00038	-0.00021	-7e-05	-6e-05	0.00046	0.00017	-2e-05	1e-05	3
11199	-0.00038	-0.00021	-7e-05	-6e-05	0.00046	0.00017	-2e-05	1e-05	3
11200	-0.00038	-0.00021	-7e-05	-6e-05	0.00046	0.00017	-2e-05	1e-05	3
11201	-0.00038	-0.00021	-7e-05	-6e-05	0.00046	0.00017	-2e-05	1e-05	3
11202	0.00011	-0.00033	-6e-05	-1e-05	-9e-05	-1e-05	-0.00032	0.00036	3
11203	0.00011	-0.00033	-6e-05	-1e-05	-9e-05	-1e-05	-0.00032	0.00036	3
11204	0.00011	-0.00033	-6e-05	-1e-05	-9e-05	-1e-05	-0.00032	0.00036	3
11205	0.00011	-0.00033	-6e-05	-1e-05	-9e-05	-1e-05	-0.00032	0.00036	3
11206	0.00011	-0.00033	-6e-05	-1e-05	-9e-05	-1e-05	-0.00032	0.00036	3
11207	0.00011	-0.00033	-6e-05	-1e-05	-9e-05	-1e-05	-0.00032	0.00036	3
11208	0.00011	-0.00033	-6e-05	-1e-05	-9e-05	-1e-05	-0.00032	0.00036	3
11209	0.00011	-0.00033	-6e-05	-1e-05	-9e-05	-1e-05	-0.00032	0.00036	3
11210	0.00013	-0.00043	-2e-05	-2e-05	-7e-05	5e-05	8e-05	-0.00125	3
11211	-0.00012	0.00046	8e-05	-3e-05	-4e-05	-4e-05	-0.00017	0.00029	3
11212	-0.00012	0.00046	8e-05	-3e-05	-4e-05	-4e-05	-0.00017	0.00029	3
11213	-0.00012	0.00046	8e-05	-3e-05	-4e-05	-4e-05	-0.00017	0.00029	3
11214	-0.00012	0.00046	8e-05	-3e-05	-4e-05	-4e-05	-0.00017	0.00029	3
11215	-0.00012	0.00046	8e-05	-3e-05	-4e-05	-4e-05	-0.00017	0.00029	3
11216	-0.00012	0.00046	8e-05	-3e-05	-4e-05	-4e-05	-0.00017	0.00029	3
11217	-0.00012	0.00046	8e-05	-3e-05	-4e-05	-4e-05	-0.00017	0.00029	3
11218	-0.00012	0.00046	8e-05	-3e-05	-4e-05	-4e-05	-0.00017	0.00029	3
11219	-0.00012	0.00046	8e-05	-3e-05	-4e-05	-4e-05	-0.00017	0.00029	3
11220	-0.00012	0.00046	8e-05	-3e-05	-4e-05	-4e-05	-0.00017	0.00029	3
11221	-0.00012	0.00046	8e-05	-3e-05	-4e-05	-4e-05	-0.00017	0.00029	3
11222	-0.00012	0.00046	8e-05	-3e-05	-4e-05	-4e-05	-0.00017	0.00029	3
11223	-0.00012	0.00046	8e-05	-3e-05	-4e-05	-4e-05	-0.00017	0.00029	3
11224	-0.00012	0.00046	8e-05	-3e-05	-4e-05	-4e-05	-0.00017	0.00029	3
11225	-0.00012	0.00046	8e-05	-3e-05	-4e-05	-4e-05	-0.00017	0.00029	3
11226	-0.00012	0.00046	8e-05	-3e-05	-4e-05	-4e-05	-0.00017	0.00029	3
11227	-0.00012	0.00046	8e-05	-3e-05	-4e-05	-4e-05	-0.00017	0.00029	3
11228	-0.00012	0.00046	8e-05	-3e-05	-4e-05	-4e-05	-0.00017	0.00029	3
11229	-0.00012	0.00046	8e-05	-3e-05	-4e-05	-4e-05	-0.00017	0.00029	3
11230	-0.00012	0.00046	8e-05	-3e-05	-4e-05	-4e-05	-0.00017	0.00029	3
11231	-0.00012	0.00046	8e-05	-3e-05	-4e-05	-4e-05	-0.00017	0.00029	3
11232	-0.00012	0.00046	8e-05	-3e-05	-4e-05	-4e-05	-0.00017	0.00029	3
11233	-0.00012	0.00046	8e-05	-3e-05	-4e-05	-4e-05	-0.00017	0.00029	3
11234	0.00016	0.00011	7e-05	3e-05	-7e-05	-0.00038	0.00037	-0.00019	3
11235	-0.00032	-0.00012	-6e-05	-3e-05	-0.00019	-0.00051	0.00017	-0.00035	3
11236	-0.00032	-0.00012	-6e-05	-3e-05	-0.00019	-0.00051	0.00017	-0.00035	3
11238	-0.00032	-0.00012	-6e-05	-3e-05	-0.00019	-0.00051	0.00017	-0.00035	3
11239	-0.00032	-0.00012	-6e-05	-3e-05	-0.00019	-0.00051	0.00017	-0.00035	3
11240	-0.00032	-0.00012	-6e-05	-3e-05	-0.00019	-0.00051	0.00017	-0.00035	3
11241	-0.00032	-0.00012	-6e-05	-3e-05	-0.00019	-0.00051	0.00017	-0.00035	3
11242	-0.00032	-0.00012	-6e-05	-3e-05	-0.00019	-0.00051	0.00017	-0.00035	3
11243	-0.00032	-0.00012	-6e-05	-3e-05	-0.00019	-0.00051	0.00017	-0.00035	3
11244	-0.00032	-0.00012	-6e-05	-3e-05	-0.00019	-0.00051	0.00017	-0.00035	3
11245	-0.00032	-0.00012	-6e-05	-3e-05	-0.00019	-0.00051	0.00017	-0.00035	3
11246	-0.00032	-0.00012	-6e-05	-3e-05	-0.00019	-0.00051	0.00017	-0.00035	3
11247	-0.00032	-0.00012	-6e-05	-3e-05	-0.00019	-0.00051	0.00017	-0.00035	3
11248	4e-05	6e-05	-2e-05	-2e-05	-0.00019	-5e-05	-0.00023	-8e-05	3
11249	4e-05	6e-05	-2e-05	-2e-05	-0.00019	-5e-05	-0.00023	-8e-05	3
11250	0.0001	2e-05	-1e-05	-2e-05	1e-05	0.00027	-7e-05	8e-05	3
11251	0.0001	2e-05	-1e-05	-2e-05	1e-05	0.00027	-7e-05	8e-05	3
11252	0.0001	2e-05	-1e-05	-2e-05	1e-05	0.00027	-7e-05	8e-05	3
11253	0.0001	2e-05	-1e-05	-2e-05	1e-05	0.00027	-7e-05	8e-05	3
11254	0.0001	2e-05	-1e-05	-2e-05	1e-05	0.00027	-7e-05	8e-05	3
11255	0.0001	2e-05	-1e-05	-2e-05	1e-05	0.00027	-7e-05	8e-05	3
11256	0.0001	2e-05	-1e-05	-2e-05	1e-05	0.00027	-7e-05	8e-05	3
11257	0.0001	2e-05	-1e-05	-2e-05	1e-05	0.00027	-7e-05	8e-05	3
11258	0.0001	2e-05	-1e-05	-2e-05	1e-05	0.00027	-7e-05	8e-05	3
11259	0.0001	2e-05	-1e-05	-2e-05	1e-05	0.00027	-7e-05	8e-05	3
11260	0.0001	2e-05	-1e-05	-2e-05	1e-05	0.00027	-7e-05	8e-05	3
11261	0.00035	0.00015	2e-05	0	-0.00018	-0.00012	0.00016	0.00015	3
11262	-0.00016	-0.00016	-3e-05	0	9e-05	0.00011	-0.0004	-0.00032	3
11263	-0.00016	-0.00016	-3e-05	0	9e-05	0.00011	-0.0004	-0.00032	3
11264	-0.00016	-0.00016	-3e-05	0	9e-05	0.00011	-0.0004	-0.00032	3
11265	-0.00016	-0.00016	-3e-05	0	9e-05	0.00011	-0.0004	-0.00032	3
11266	-0.00016	-0.00016	-3e-05	0	9e-05	0.00011	-0.0004	-0.00032	3
11267	-0.00016	-0.00016	-3e-05	0	9e-05	0.00011	-0.0004	-0.00032	3
11268	-0.00016	-0.00016	-3e-05	0	9e-05	0.00011	-0.0004	-0.00032	3
11269	-0.00016	-0.00016	-3e-05	0	9e-05	0.00011	-0.0004	-0.00032	3
11270	-9e-05	-0.00033	-0.00012	-7e-05	-0.00036	-0.00025	-0.00049	-0.00081	3
11271	-9e-05	-0.00033	-0.00012	-7e-05	-0.00036	-0.00025	-0.00049	-0.00081	3
11272	-9e-05	-0.00033	-0.00012	-7e-05	-0.00036	-0.00025	-0.00049	-0.00081	3
11273	-9e-05	-0.00033	-0.00012	-7e-05	-0.00036	-0.00025	-0.00049	-0.00081	3
11274	-9e-05	-0.00033	-0.00012	-7e-05	-0.00036	-0.00025	-0.00049	-0.00081	3
11275	-9e-05	-0.00033	-0.00012	-7e-05	-0.00036	-0.00025	-0.00049	-0.00081	3
11276	-9e-05	-0.00033	-0.00012	-7e-05	-0.00036	-0.00025	-0.00049	-0.00081	3
11277	-9e-05	-0.00033	-0.00012	-7e-05	-0.00036	-0.00025	-0.00049	-0.00081	3
11278	-9e-05	-0.00033	-0.00012	-7e-05	-0.00036	-0.00025	-0.00049	-0.00081	3
11279	-9e-05	-0.00033	-0.00012	-7e-05	-0.00036	-0.00025	-0.00049	-0.00081	3
11280	-9e-05	-0.00033	-0.00012	-7e-05	-0.00036	-0.00025	-0.00049	-0.00081	3
11281	-9e-05	-0.00033	-0.00012	-7e-05	-0.00036	-0.00025	-0.00049	-0.00081	3
11282	-9e-05	-0.00033	-0.00012	-7e-05	-0.00036	-0.00025	-0.00049	-0.00081	3
11283	-9e-05	-0.00033	-0.00012	-7e-05	-0.00036	-0.00025	-0.00049	-0.00081	3
11284	-9e-05	-0.00033	-0.00012	-7e-05	-0.00036	-0.00025	-0.00049	-0.00081	3
11285	-0.00029	-0.00032	-7e-05	-8e-05	-0.00013	0.00023	2e-05	5e-05	3
11286	-0.00029	-0.00032	-7e-05	-8e-05	-0.00013	0.00023	2e-05	5e-05	3
11288	0.00016	-0.0003	-3e-05	4e-05	0.0005	-3e-05	-0.00038	-0.00088	3
11289	0.00016	-0.0003	-3e-05	4e-05	0.0005	-3e-05	-0.00038	-0.00088	3
11290	0.00016	-0.0003	-3e-05	4e-05	0.0005	-3e-05	-0.00038	-0.00088	3
11291	0.00016	-0.0003	-3e-05	4e-05	0.0005	-3e-05	-0.00038	-0.00088	3
11292	0.00016	-0.0003	-3e-05	4e-05	0.0005	-3e-05	-0.00038	-0.00088	3
11293	0.00016	-0.0003	-3e-05	4e-05	0.0005	-3e-05	-0.00038	-0.00088	3
11294	0.00016	-0.0003	-3e-05	4e-05	0.0005	-3e-05	-0.00038	-0.00088	3
11295	0.00016	-0.0003	-3e-05	4e-05	0.0005	-3e-05	-0.00038	-0.00088	3
11296	0.00016	-0.0003	-3e-05	4e-05	0.0005	-3e-05	-0.00038	-0.00088	3
11297	0.00016	-0.0003	-3e-05	4e-05	0.0005	-3e-05	-0.00038	-0.00088	3
11298	0.00016	-0.0003	-3e-05	4e-05	0.0005	-3e-05	-0.00038	-0.00088	3
11299	0.00016	-0.0003	-3e-05	4e-05	0.0005	-3e-05	-0.00038	-0.00088	3
11300	0.00016	-0.0003	-3e-05	4e-05	0.0005	-3e-05	-0.00038	-0.00088	3
11301	0.00016	-0.0003	-3e-05	4e-05	0.0005	-3e-05	-0.00038	-0.00088	3
11302	0.00016	-0.0003	-3e-05	4e-05	0.0005	-3e-05	-0.00038	-0.00088	3
11303	0.00016	-0.0003	-3e-05	4e-05	0.0005	-3e-05	-0.00038	-0.00088	3
11304	0.00016	-0.0003	-3e-05	4e-05	0.0005	-3e-05	-0.00038	-0.00088	3
11305	0.00016	-0.0003	-3e-05	4e-05	0.0005	-3e-05	-0.00038	-0.00088	3
11306	0.00016	-0.0003	-3e-05	4e-05	0.0005	-3e-05	-0.00038	-0.00088	3
11307	0.00016	-0.0003	-3e-05	4e-05	0.0005	-3e-05	-0.00038	-0.00088	3
11308	0.00016	-0.0003	-3e-05	4e-05	0.0005	-3e-05	-0.00038	-0.00088	3
11309	0.00016	-0.0003	-3e-05	4e-05	0.0005	-3e-05	-0.00038	-0.00088	3
11310	0.00016	-0.0003	-3e-05	4e-05	0.0005	-3e-05	-0.00038	-0.00088	3
11311	0.00016	-0.0003	-3e-05	4e-05	0.0005	-3e-05	-0.00038	-0.00088	3
11312	0.00016	-0.0003	-3e-05	4e-05	0.0005	-3e-05	-0.00038	-0.00088	3
11313	0.00016	-0.0003	-3e-05	4e-05	0.0005	-3e-05	-0.00038	-0.00088	3
11314	0.00016	-0.0003	-3e-05	4e-05	0.0005	-3e-05	-0.00038	-0.00088	3
11315	0.00078	0.00065	8e-05	5e-05	7e-05	-0.00024	0.00015	0.00032	3
11316	0.00078	0.00065	8e-05	5e-05	7e-05	-0.00024	0.00015	0.00032	3
11317	-0.00012	-4e-05	2e-05	-2e-05	-0.00032	-0.00016	0.0003	0.00067	3
11318	-0.00012	-4e-05	2e-05	-2e-05	-0.00032	-0.00016	0.0003	0.00067	3
11319	-0.00012	-4e-05	2e-05	-2e-05	-0.00032	-0.00016	0.0003	0.00067	3
11320	-0.00012	-4e-05	2e-05	-2e-05	-0.00032	-0.00016	0.0003	0.00067	3
11321	-0.00026	-0.00017	-6e-05	-5e-05	9e-05	0.00031	0.00011	0	3
11322	2e-05	-0.00032	0	1e-05	0.00019	-8e-05	-0.00018	0.00065	3
11323	2e-05	-0.00032	0	1e-05	0.00019	-8e-05	-0.00018	0.00065	3
11324	2e-05	-0.00032	0	1e-05	0.00019	-8e-05	-0.00018	0.00065	3
11325	2e-05	-0.00032	0	1e-05	0.00019	-8e-05	-0.00018	0.00065	3
11326	2e-05	-0.00032	0	1e-05	0.00019	-8e-05	-0.00018	0.00065	3
11327	2e-05	-0.00032	0	1e-05	0.00019	-8e-05	-0.00018	0.00065	3
11328	2e-05	-0.00032	0	1e-05	0.00019	-8e-05	-0.00018	0.00065	3
11329	2e-05	-0.00032	0	1e-05	0.00019	-8e-05	-0.00018	0.00065	3
11330	1e-05	-5e-05	2e-05	-4e-05	-9e-05	8e-05	0.00022	-3e-05	3
11331	-0.00034	-0.00048	-2e-05	1e-05	-2e-05	8e-05	1e-05	-0.00046	3
11332	-0.00034	-0.00048	-2e-05	1e-05	-2e-05	8e-05	1e-05	-0.00046	3
11333	-0.00034	-0.00048	-2e-05	1e-05	-2e-05	8e-05	1e-05	-0.00046	3
11334	-0.00034	-0.00048	-2e-05	1e-05	-2e-05	8e-05	1e-05	-0.00046	3
11335	-0.00034	-0.00048	-2e-05	1e-05	-2e-05	8e-05	1e-05	-0.00046	3
11336	-0.00034	-0.00048	-2e-05	1e-05	-2e-05	8e-05	1e-05	-0.00046	3
11338	-0.00034	-0.00048	-2e-05	1e-05	-2e-05	8e-05	1e-05	-0.00046	3
11339	-0.00034	-0.00048	-2e-05	1e-05	-2e-05	8e-05	1e-05	-0.00046	3
11340	-0.00034	-0.00048	-2e-05	1e-05	-2e-05	8e-05	1e-05	-0.00046	3
11341	-0.00034	-0.00048	-2e-05	1e-05	-2e-05	8e-05	1e-05	-0.00046	3
11342	-0.00034	-0.00048	-2e-05	1e-05	-2e-05	8e-05	1e-05	-0.00046	3
11343	-0.00034	-0.00048	-2e-05	1e-05	-2e-05	8e-05	1e-05	-0.00046	3
11344	-0.00034	-0.00048	-2e-05	1e-05	-2e-05	8e-05	1e-05	-0.00046	3
11345	0.00032	0.00017	1e-05	1e-05	8e-05	0.00026	0.00038	0.0002	3
11346	0.00032	0.00017	1e-05	1e-05	8e-05	0.00026	0.00038	0.0002	3
11347	-0.00043	1e-05	-1e-05	0	0.00015	0.00019	0.00041	-9e-05	3
11348	-0.00043	1e-05	-1e-05	0	0.00015	0.00019	0.00041	-9e-05	3
11349	-0.00043	1e-05	-1e-05	0	0.00015	0.00019	0.00041	-9e-05	3
11350	-0.00043	1e-05	-1e-05	0	0.00015	0.00019	0.00041	-9e-05	3
11351	-0.00043	1e-05	-1e-05	0	0.00015	0.00019	0.00041	-9e-05	3
11352	-0.00043	1e-05	-1e-05	0	0.00015	0.00019	0.00041	-9e-05	3
11353	-0.00043	1e-05	-1e-05	0	0.00015	0.00019	0.00041	-9e-05	3
11354	-0.00043	1e-05	-1e-05	0	0.00015	0.00019	0.00041	-9e-05	3
11355	-0.00043	1e-05	-1e-05	0	0.00015	0.00019	0.00041	-9e-05	3
11356	-0.00043	1e-05	-1e-05	0	0.00015	0.00019	0.00041	-9e-05	3
11357	-0.00043	1e-05	-1e-05	0	0.00015	0.00019	0.00041	-9e-05	3
11358	-0.00043	1e-05	-1e-05	0	0.00015	0.00019	0.00041	-9e-05	3
11359	-0.00043	1e-05	-1e-05	0	0.00015	0.00019	0.00041	-9e-05	3
11360	-0.00043	1e-05	-1e-05	0	0.00015	0.00019	0.00041	-9e-05	3
11361	-0.00043	1e-05	-1e-05	0	0.00015	0.00019	0.00041	-9e-05	3
11362	-0.00043	1e-05	-1e-05	0	0.00015	0.00019	0.00041	-9e-05	3
11363	-0.00043	1e-05	-1e-05	0	0.00015	0.00019	0.00041	-9e-05	3
11364	-0.00043	1e-05	-1e-05	0	0.00015	0.00019	0.00041	-9e-05	3
11365	-0.00043	1e-05	-1e-05	0	0.00015	0.00019	0.00041	-9e-05	3
11366	-0.00043	1e-05	-1e-05	0	0.00015	0.00019	0.00041	-9e-05	3
11367	-0.00043	1e-05	-1e-05	0	0.00015	0.00019	0.00041	-9e-05	3
11368	-5e-05	2e-05	-4e-05	2e-05	0.00028	0.00014	-0.00062	0.0001	3
11369	0.00073	0.00073	4e-05	-1e-05	6e-05	-9e-05	0.00042	-0.0003	3
11370	-0.00072	0.00023	0	-3e-05	-0.00017	7e-05	0.00079	0.00025	3
11371	-0.00072	0.00023	0	-3e-05	-0.00017	7e-05	0.00079	0.00025	3
11372	-0.00072	0.00023	0	-3e-05	-0.00017	7e-05	0.00079	0.00025	3
11373	-0.00072	0.00023	0	-3e-05	-0.00017	7e-05	0.00079	0.00025	3
11374	-0.00072	0.00023	0	-3e-05	-0.00017	7e-05	0.00079	0.00025	3
11375	-0.00072	0.00023	0	-3e-05	-0.00017	7e-05	0.00079	0.00025	3
11376	-0.00072	0.00023	0	-3e-05	-0.00017	7e-05	0.00079	0.00025	3
11377	-0.00072	0.00023	0	-3e-05	-0.00017	7e-05	0.00079	0.00025	3
11378	-0.00072	0.00023	0	-3e-05	-0.00017	7e-05	0.00079	0.00025	3
11379	-0.00072	0.00023	0	-3e-05	-0.00017	7e-05	0.00079	0.00025	3
11380	-0.00072	0.00023	0	-3e-05	-0.00017	7e-05	0.00079	0.00025	3
11381	-0.0001	8e-05	-1e-05	-3e-05	-0.0001	0.00059	6e-05	-0.00066	3
11382	-0.0001	8e-05	-1e-05	-3e-05	-0.0001	0.00059	6e-05	-0.00066	3
11383	-0.0001	8e-05	-1e-05	-3e-05	-0.0001	0.00059	6e-05	-0.00066	3
11384	-0.0001	8e-05	-1e-05	-3e-05	-0.0001	0.00059	6e-05	-0.00066	3
11385	-0.0001	8e-05	-1e-05	-3e-05	-0.0001	0.00059	6e-05	-0.00066	3
11386	-0.0001	8e-05	-1e-05	-3e-05	-0.0001	0.00059	6e-05	-0.00066	3
11388	-0.0001	8e-05	-1e-05	-3e-05	-0.0001	0.00059	6e-05	-0.00066	3
11389	-0.0001	8e-05	-1e-05	-3e-05	-0.0001	0.00059	6e-05	-0.00066	3
11390	-0.0001	8e-05	-1e-05	-3e-05	-0.0001	0.00059	6e-05	-0.00066	3
11391	-0.0001	8e-05	-1e-05	-3e-05	-0.0001	0.00059	6e-05	-0.00066	3
11392	-0.0001	8e-05	-1e-05	-3e-05	-0.0001	0.00059	6e-05	-0.00066	3
11393	-0.0001	8e-05	-1e-05	-3e-05	-0.0001	0.00059	6e-05	-0.00066	3
11394	-0.0001	8e-05	-1e-05	-3e-05	-0.0001	0.00059	6e-05	-0.00066	3
11395	-0.0001	8e-05	-1e-05	-3e-05	-0.0001	0.00059	6e-05	-0.00066	3
11396	-0.0001	8e-05	-1e-05	-3e-05	-0.0001	0.00059	6e-05	-0.00066	3
11397	-0.0001	8e-05	-1e-05	-3e-05	-0.0001	0.00059	6e-05	-0.00066	3
11398	7e-05	-0.00018	-0.00011	-7e-05	-7e-05	0.00023	0.00016	-0.00025	3
11399	7e-05	-0.00018	-0.00011	-7e-05	-7e-05	0.00023	0.00016	-0.00025	3
11400	7e-05	-0.00018	-0.00011	-7e-05	-7e-05	0.00023	0.00016	-0.00025	3
11401	7e-05	-0.00018	-0.00011	-7e-05	-7e-05	0.00023	0.00016	-0.00025	3
11402	7e-05	-0.00018	-0.00011	-7e-05	-7e-05	0.00023	0.00016	-0.00025	3
11403	7e-05	-0.00018	-0.00011	-7e-05	-7e-05	0.00023	0.00016	-0.00025	3
11404	7e-05	-0.00018	-0.00011	-7e-05	-7e-05	0.00023	0.00016	-0.00025	3
11405	-0.00069	2e-05	3e-05	3e-05	-0.00012	0.0002	-2e-05	-8e-05	3
11406	-0.00069	2e-05	3e-05	3e-05	-0.00012	0.0002	-2e-05	-8e-05	3
11407	-0.00017	-0.00033	-1e-05	-3e-05	-0.00029	5e-05	0.0003	-0.00043	3
11408	-0.00017	-0.00033	-1e-05	-3e-05	-0.00029	5e-05	0.0003	-0.00043	3
11409	-0.00017	-0.00033	-1e-05	-3e-05	-0.00029	5e-05	0.0003	-0.00043	3
11410	-0.00017	-0.00033	-1e-05	-3e-05	-0.00029	5e-05	0.0003	-0.00043	3
11411	-0.00017	-0.00033	-1e-05	-3e-05	-0.00029	5e-05	0.0003	-0.00043	3
11412	-0.00017	-0.00033	-1e-05	-3e-05	-0.00029	5e-05	0.0003	-0.00043	3
11413	-0.00017	-0.00033	-1e-05	-3e-05	-0.00029	5e-05	0.0003	-0.00043	3
11414	-0.00017	-0.00033	-1e-05	-3e-05	-0.00029	5e-05	0.0003	-0.00043	3
11415	-0.00017	-0.00033	-1e-05	-3e-05	-0.00029	5e-05	0.0003	-0.00043	3
11416	-0.00017	-0.00033	-1e-05	-3e-05	-0.00029	5e-05	0.0003	-0.00043	3
11417	-0.00017	-0.00033	-1e-05	-3e-05	-0.00029	5e-05	0.0003	-0.00043	3
11418	-0.00017	-0.00033	-1e-05	-3e-05	-0.00029	5e-05	0.0003	-0.00043	3
11419	-0.00017	-0.00033	-1e-05	-3e-05	-0.00029	5e-05	0.0003	-0.00043	3
11420	-0.00017	-0.00033	-1e-05	-3e-05	-0.00029	5e-05	0.0003	-0.00043	3
11421	-0.00017	-0.00033	-1e-05	-3e-05	-0.00029	5e-05	0.0003	-0.00043	3
11422	-0.00017	-0.00033	-1e-05	-3e-05	-0.00029	5e-05	0.0003	-0.00043	3
11423	-0.00017	-0.00033	-1e-05	-3e-05	-0.00029	5e-05	0.0003	-0.00043	3
11424	-0.00017	-0.00033	-1e-05	-3e-05	-0.00029	5e-05	0.0003	-0.00043	3
11425	-0.00017	-0.00033	-1e-05	-3e-05	-0.00029	5e-05	0.0003	-0.00043	3
11426	-0.00017	-0.00033	-1e-05	-3e-05	-0.00029	5e-05	0.0003	-0.00043	3
11427	-0.00017	-0.00033	-1e-05	-3e-05	-0.00029	5e-05	0.0003	-0.00043	3
11428	0.00015	0.00011	-5e-05	-4e-05	7e-05	-1e-05	-0.00017	-0.0003	3
11429	0.00032	-9e-05	-1e-05	1e-05	0.00027	-0.00014	-0.00016	0.00076	3
11430	0.00032	-9e-05	-1e-05	1e-05	0.00027	-0.00014	-0.00016	0.00076	3
11431	0.00032	-9e-05	-1e-05	1e-05	0.00027	-0.00014	-0.00016	0.00076	3
11432	0.00032	-9e-05	-1e-05	1e-05	0.00027	-0.00014	-0.00016	0.00076	3
11433	0.00032	-9e-05	-1e-05	1e-05	0.00027	-0.00014	-0.00016	0.00076	3
11434	0.00032	-9e-05	-1e-05	1e-05	0.00027	-0.00014	-0.00016	0.00076	3
11435	0.00032	-9e-05	-1e-05	1e-05	0.00027	-0.00014	-0.00016	0.00076	3
11436	0.00032	-9e-05	-1e-05	1e-05	0.00027	-0.00014	-0.00016	0.00076	3
11438	0.00032	-9e-05	-1e-05	1e-05	0.00027	-0.00014	-0.00016	0.00076	3
11439	0.00032	-9e-05	-1e-05	1e-05	0.00027	-0.00014	-0.00016	0.00076	3
11440	0.00032	-9e-05	-1e-05	1e-05	0.00027	-0.00014	-0.00016	0.00076	3
11441	0.00032	-9e-05	-1e-05	1e-05	0.00027	-0.00014	-0.00016	0.00076	3
11442	0.00032	-9e-05	-1e-05	1e-05	0.00027	-0.00014	-0.00016	0.00076	3
11443	0.00032	-9e-05	-1e-05	1e-05	0.00027	-0.00014	-0.00016	0.00076	3
11444	0.00032	-9e-05	-1e-05	1e-05	0.00027	-0.00014	-0.00016	0.00076	3
11445	0.00032	-9e-05	-1e-05	1e-05	0.00027	-0.00014	-0.00016	0.00076	3
11446	0.00032	-9e-05	-1e-05	1e-05	0.00027	-0.00014	-0.00016	0.00076	3
11447	0.00032	-9e-05	-1e-05	1e-05	0.00027	-0.00014	-0.00016	0.00076	3
11448	0.00032	-9e-05	-1e-05	1e-05	0.00027	-0.00014	-0.00016	0.00076	3
11449	0.00032	-9e-05	-1e-05	1e-05	0.00027	-0.00014	-0.00016	0.00076	3
11450	-0.00035	0.00023	0	-4e-05	8e-05	0.00032	-0.00016	-0.00026	3
11451	0.00024	0.00029	-5e-05	-1e-05	-8e-05	-0.00014	0.00015	-1e-05	3
11452	9e-05	0	4e-05	1e-05	-0.00011	-0.00028	-0.00095	-0.00036	3
11453	9e-05	0	4e-05	1e-05	-0.00011	-0.00028	-0.00095	-0.00036	3
11454	9e-05	0	4e-05	1e-05	-0.00011	-0.00028	-0.00095	-0.00036	3
11455	9e-05	0	4e-05	1e-05	-0.00011	-0.00028	-0.00095	-0.00036	3
11456	9e-05	0	4e-05	1e-05	-0.00011	-0.00028	-0.00095	-0.00036	3
11457	9e-05	0	4e-05	1e-05	-0.00011	-0.00028	-0.00095	-0.00036	3
11458	9e-05	0	4e-05	1e-05	-0.00011	-0.00028	-0.00095	-0.00036	3
11459	9e-05	0	4e-05	1e-05	-0.00011	-0.00028	-0.00095	-0.00036	3
11460	9e-05	0	4e-05	1e-05	-0.00011	-0.00028	-0.00095	-0.00036	3
11461	9e-05	0	4e-05	1e-05	-0.00011	-0.00028	-0.00095	-0.00036	3
11462	9e-05	0	4e-05	1e-05	-0.00011	-0.00028	-0.00095	-0.00036	3
11463	9e-05	0	4e-05	1e-05	-0.00011	-0.00028	-0.00095	-0.00036	3
11464	0.00023	-5e-05	-1e-05	-4e-05	2e-05	-0.00028	0.00019	0.00013	3
11465	0.00023	-5e-05	-1e-05	-4e-05	2e-05	-0.00028	0.00019	0.00013	3
11466	0.00023	-5e-05	-1e-05	-4e-05	2e-05	-0.00028	0.00019	0.00013	3
11467	0.00023	-5e-05	-1e-05	-4e-05	2e-05	-0.00028	0.00019	0.00013	3
11468	0.00023	-5e-05	-1e-05	-4e-05	2e-05	-0.00028	0.00019	0.00013	3
11469	0.00023	-5e-05	-1e-05	-4e-05	2e-05	-0.00028	0.00019	0.00013	3
11470	0.00023	-5e-05	-1e-05	-4e-05	2e-05	-0.00028	0.00019	0.00013	3
11471	0.00023	-5e-05	-1e-05	-4e-05	2e-05	-0.00028	0.00019	0.00013	3
11472	0.00023	-5e-05	-1e-05	-4e-05	2e-05	-0.00028	0.00019	0.00013	3
11473	0.00023	-5e-05	-1e-05	-4e-05	2e-05	-0.00028	0.00019	0.00013	3
11474	0.00023	-5e-05	-1e-05	-4e-05	2e-05	-0.00028	0.00019	0.00013	3
11475	0.00023	-5e-05	-1e-05	-4e-05	2e-05	-0.00028	0.00019	0.00013	3
11476	0.00023	-5e-05	-1e-05	-4e-05	2e-05	-0.00028	0.00019	0.00013	3
11477	0.00023	-5e-05	-1e-05	-4e-05	2e-05	-0.00028	0.00019	0.00013	3
11478	0.00023	-5e-05	-1e-05	-4e-05	2e-05	-0.00028	0.00019	0.00013	3
11479	0.00023	-5e-05	-1e-05	-4e-05	2e-05	-0.00028	0.00019	0.00013	3
11480	-6e-05	-0.00042	-6e-05	-1e-05	-0.0001	-5e-05	-0.0001	4e-05	3
11481	0.00027	0.00047	6e-05	1e-05	0.00028	-7e-05	-0.00025	0.0001	3
11482	0.00027	0.00047	6e-05	1e-05	0.00028	-7e-05	-0.00025	0.0001	3
11483	0.00027	0.00047	6e-05	1e-05	0.00028	-7e-05	-0.00025	0.0001	3
11484	0.00027	0.00047	6e-05	1e-05	0.00028	-7e-05	-0.00025	0.0001	3
11485	0.00027	0.00047	6e-05	1e-05	0.00028	-7e-05	-0.00025	0.0001	3
11486	0.00027	0.00047	6e-05	1e-05	0.00028	-7e-05	-0.00025	0.0001	3
11489	-0.00056	-0.00012	-1e-05	2e-05	0.00012	8e-05	8e-05	0.0001	3
11490	-0.00056	-0.00012	-1e-05	2e-05	0.00012	8e-05	8e-05	0.0001	3
11491	-0.00056	-0.00012	-1e-05	2e-05	0.00012	8e-05	8e-05	0.0001	3
11492	-0.00056	-0.00012	-1e-05	2e-05	0.00012	8e-05	8e-05	0.0001	3
11493	-0.00056	-0.00012	-1e-05	2e-05	0.00012	8e-05	8e-05	0.0001	3
11494	-0.00056	-0.00012	-1e-05	2e-05	0.00012	8e-05	8e-05	0.0001	3
11495	-0.00056	-0.00012	-1e-05	2e-05	0.00012	8e-05	8e-05	0.0001	3
11496	-0.00056	-0.00012	-1e-05	2e-05	0.00012	8e-05	8e-05	0.0001	3
11497	-0.00056	-0.00012	-1e-05	2e-05	0.00012	8e-05	8e-05	0.0001	3
11498	-0.00056	-0.00012	-1e-05	2e-05	0.00012	8e-05	8e-05	0.0001	3
11499	-0.00056	-0.00012	-1e-05	2e-05	0.00012	8e-05	8e-05	0.0001	3
11500	-0.00056	-0.00012	-1e-05	2e-05	0.00012	8e-05	8e-05	0.0001	3
11501	-0.00056	-0.00012	-1e-05	2e-05	0.00012	8e-05	8e-05	0.0001	3
11502	-0.00056	-0.00012	-1e-05	2e-05	0.00012	8e-05	8e-05	0.0001	3
11503	-0.00056	-0.00012	-1e-05	2e-05	0.00012	8e-05	8e-05	0.0001	3
11504	-0.00056	-0.00012	-1e-05	2e-05	0.00012	8e-05	8e-05	0.0001	3
11505	-0.00056	-0.00012	-1e-05	2e-05	0.00012	8e-05	8e-05	0.0001	3
11506	-0.00056	-0.00012	-1e-05	2e-05	0.00012	8e-05	8e-05	0.0001	3
11507	-0.00056	-0.00012	-1e-05	2e-05	0.00012	8e-05	8e-05	0.0001	3
11508	-0.00056	-0.00012	-1e-05	2e-05	0.00012	8e-05	8e-05	0.0001	3
11509	-0.00056	-0.00012	-1e-05	2e-05	0.00012	8e-05	8e-05	0.0001	3
11510	-0.00056	-0.00012	-1e-05	2e-05	0.00012	8e-05	8e-05	0.0001	3
11511	-0.00042	-0.00044	-8e-05	-3e-05	-7e-05	-0.00046	0.00038	0.00018	3
11512	-0.00042	-0.00044	-8e-05	-3e-05	-7e-05	-0.00046	0.00038	0.00018	3
11513	0.00075	0.00011	1e-05	1e-05	0.00019	-7e-05	0.00021	0.00045	3
11514	0.00075	0.00011	1e-05	1e-05	0.00019	-7e-05	0.00021	0.00045	3
11515	0.00075	0.00011	1e-05	1e-05	0.00019	-7e-05	0.00021	0.00045	3
11516	0.00075	0.00011	1e-05	1e-05	0.00019	-7e-05	0.00021	0.00045	3
11517	0.00075	0.00011	1e-05	1e-05	0.00019	-7e-05	0.00021	0.00045	3
11518	0.00075	0.00011	1e-05	1e-05	0.00019	-7e-05	0.00021	0.00045	3
11519	0.00075	0.00011	1e-05	1e-05	0.00019	-7e-05	0.00021	0.00045	3
11520	0.00075	0.00011	1e-05	1e-05	0.00019	-7e-05	0.00021	0.00045	3
11521	0.00075	0.00011	1e-05	1e-05	0.00019	-7e-05	0.00021	0.00045	3
11522	0.00075	0.00011	1e-05	1e-05	0.00019	-7e-05	0.00021	0.00045	3
11523	0.00075	0.00011	1e-05	1e-05	0.00019	-7e-05	0.00021	0.00045	3
11524	0.00075	0.00011	1e-05	1e-05	0.00019	-7e-05	0.00021	0.00045	3
11525	-0.00058	-4e-05	3e-05	-3e-05	-0.00011	6e-05	0.00016	-0.00012	3
11526	-0.00058	-4e-05	3e-05	-3e-05	-0.00011	6e-05	0.00016	-0.00012	3
11527	-0.00026	-7e-05	-7e-05	-0.00012	-0.00038	-0.0001	0.00036	0.00057	3
11528	-0.00026	-7e-05	-7e-05	-0.00012	-0.00038	-0.0001	0.00036	0.00057	3
11529	-0.00026	-7e-05	-7e-05	-0.00012	-0.00038	-0.0001	0.00036	0.00057	3
11530	-0.00026	-7e-05	-7e-05	-0.00012	-0.00038	-0.0001	0.00036	0.00057	3
11531	-0.00026	-7e-05	-7e-05	-0.00012	-0.00038	-0.0001	0.00036	0.00057	3
11532	-0.00026	-7e-05	-7e-05	-0.00012	-0.00038	-0.0001	0.00036	0.00057	3
11533	-0.00026	-7e-05	-7e-05	-0.00012	-0.00038	-0.0001	0.00036	0.00057	3
11534	-0.00026	-7e-05	-7e-05	-0.00012	-0.00038	-0.0001	0.00036	0.00057	3
11535	-0.00026	-7e-05	-7e-05	-0.00012	-0.00038	-0.0001	0.00036	0.00057	3
11536	-0.00026	-7e-05	-7e-05	-0.00012	-0.00038	-0.0001	0.00036	0.00057	3
11538	-0.00026	-7e-05	-7e-05	-0.00012	-0.00038	-0.0001	0.00036	0.00057	3
11539	-0.00026	-7e-05	-7e-05	-0.00012	-0.00038	-0.0001	0.00036	0.00057	3
11540	-0.00026	-7e-05	-7e-05	-0.00012	-0.00038	-0.0001	0.00036	0.00057	3
11541	-0.00026	-7e-05	-7e-05	-0.00012	-0.00038	-0.0001	0.00036	0.00057	3
11542	-0.00026	-7e-05	-7e-05	-0.00012	-0.00038	-0.0001	0.00036	0.00057	3
11543	-0.00026	-7e-05	-7e-05	-0.00012	-0.00038	-0.0001	0.00036	0.00057	3
11544	-0.00026	-7e-05	-7e-05	-0.00012	-0.00038	-0.0001	0.00036	0.00057	3
11545	-0.00026	-7e-05	-7e-05	-0.00012	-0.00038	-0.0001	0.00036	0.00057	3
11546	-0.00026	-7e-05	-7e-05	-0.00012	-0.00038	-0.0001	0.00036	0.00057	3
11547	-0.00026	-7e-05	-7e-05	-0.00012	-0.00038	-0.0001	0.00036	0.00057	3
11548	8e-05	0	-5e-05	-3e-05	-0.00025	-0.00031	-0.00015	-0.00049	3
11549	8e-05	0	-5e-05	-3e-05	-0.00025	-0.00031	-0.00015	-0.00049	3
11550	0.00016	-0.00019	-3e-05	-3e-05	-4e-05	0.00015	-0.0001	-2e-05	3
11551	0.00016	-0.00019	-3e-05	-3e-05	-4e-05	0.00015	-0.0001	-2e-05	3
11552	0.00016	-0.00019	-3e-05	-3e-05	-4e-05	0.00015	-0.0001	-2e-05	3
11553	0.00016	-0.00019	-3e-05	-3e-05	-4e-05	0.00015	-0.0001	-2e-05	3
11554	0.00016	-0.00019	-3e-05	-3e-05	-4e-05	0.00015	-0.0001	-2e-05	3
11555	0.00016	-0.00019	-3e-05	-3e-05	-4e-05	0.00015	-0.0001	-2e-05	3
11556	0.00016	-0.00019	-3e-05	-3e-05	-4e-05	0.00015	-0.0001	-2e-05	3
11557	0.00016	-0.00019	-3e-05	-3e-05	-4e-05	0.00015	-0.0001	-2e-05	3
11558	0.00016	-0.00019	-3e-05	-3e-05	-4e-05	0.00015	-0.0001	-2e-05	3
11559	0.00016	-0.00019	-3e-05	-3e-05	-4e-05	0.00015	-0.0001	-2e-05	3
11560	0.00016	-0.00019	-3e-05	-3e-05	-4e-05	0.00015	-0.0001	-2e-05	3
11561	0.00016	-0.00019	-3e-05	-3e-05	-4e-05	0.00015	-0.0001	-2e-05	3
11562	0.00016	-0.00019	-3e-05	-3e-05	-4e-05	0.00015	-0.0001	-2e-05	3
11563	0.00016	-0.00019	-3e-05	-3e-05	-4e-05	0.00015	-0.0001	-2e-05	3
11564	0.00016	-0.00019	-3e-05	-3e-05	-4e-05	0.00015	-0.0001	-2e-05	3
11565	0.00016	-0.00019	-3e-05	-3e-05	-4e-05	0.00015	-0.0001	-2e-05	3
11566	0.00016	-0.00019	-3e-05	-3e-05	-4e-05	0.00015	-0.0001	-2e-05	3
11567	0.00016	-0.00019	-3e-05	-3e-05	-4e-05	0.00015	-0.0001	-2e-05	3
11568	0.00016	-0.00019	-3e-05	-3e-05	-4e-05	0.00015	-0.0001	-2e-05	3
11569	0.00016	-0.00019	-3e-05	-3e-05	-4e-05	0.00015	-0.0001	-2e-05	3
11570	0.00021	0.00018	1e-05	-4e-05	-1e-05	0.00025	-0.0004	0.00019	3
11571	0.00021	0.00018	1e-05	-4e-05	-1e-05	0.00025	-0.0004	0.00019	3
11572	-0.00016	-8e-05	-6e-05	-2e-05	-0.00025	0.0002	-5e-05	-2e-05	3
11573	-0.00016	-8e-05	-6e-05	-2e-05	-0.00025	0.0002	-5e-05	-2e-05	3
11574	-0.00016	-8e-05	-6e-05	-2e-05	-0.00025	0.0002	-5e-05	-2e-05	3
11575	-0.00016	-8e-05	-6e-05	-2e-05	-0.00025	0.0002	-5e-05	-2e-05	3
11576	-0.00016	-8e-05	-6e-05	-2e-05	-0.00025	0.0002	-5e-05	-2e-05	3
11577	-0.00016	-8e-05	-6e-05	-2e-05	-0.00025	0.0002	-5e-05	-2e-05	3
11578	-0.00016	-8e-05	-6e-05	-2e-05	-0.00025	0.0002	-5e-05	-2e-05	3
11579	-0.00016	-8e-05	-6e-05	-2e-05	-0.00025	0.0002	-5e-05	-2e-05	3
11580	-0.00016	-8e-05	-6e-05	-2e-05	-0.00025	0.0002	-5e-05	-2e-05	3
11581	-0.00016	-8e-05	-6e-05	-2e-05	-0.00025	0.0002	-5e-05	-2e-05	3
11582	-0.00016	-8e-05	-6e-05	-2e-05	-0.00025	0.0002	-5e-05	-2e-05	3
11583	-0.00016	-8e-05	-6e-05	-2e-05	-0.00025	0.0002	-5e-05	-2e-05	3
11584	-0.00016	-8e-05	-6e-05	-2e-05	-0.00025	0.0002	-5e-05	-2e-05	3
11585	-0.00016	-8e-05	-6e-05	-2e-05	-0.00025	0.0002	-5e-05	-2e-05	3
11586	-0.00016	-8e-05	-6e-05	-2e-05	-0.00025	0.0002	-5e-05	-2e-05	3
11588	-0.00016	-8e-05	-6e-05	-2e-05	-0.00025	0.0002	-5e-05	-2e-05	3
11589	-0.00016	-8e-05	-6e-05	-2e-05	-0.00025	0.0002	-5e-05	-2e-05	3
11590	-0.00016	-8e-05	-6e-05	-2e-05	-0.00025	0.0002	-5e-05	-2e-05	3
11591	-0.00016	-8e-05	-6e-05	-2e-05	-0.00025	0.0002	-5e-05	-2e-05	3
11592	-0.00016	-8e-05	-6e-05	-2e-05	-0.00025	0.0002	-5e-05	-2e-05	3
11593	0.00055	1e-05	3e-05	7e-05	9e-05	0.00019	0.00039	0.0003	3
11594	0.0003	0.00013	8e-05	7e-05	0.00045	-7e-05	-0.00036	0.00024	3
11595	1e-05	-0.00028	-1e-05	4e-05	-0.00042	5e-05	0.00031	0.00037	3
11596	1e-05	-0.00028	-1e-05	4e-05	-0.00042	5e-05	0.00031	0.00037	3
11597	1e-05	-0.00028	-1e-05	4e-05	-0.00042	5e-05	0.00031	0.00037	3
11598	1e-05	-0.00028	-1e-05	4e-05	-0.00042	5e-05	0.00031	0.00037	3
11599	1e-05	-0.00028	-1e-05	4e-05	-0.00042	5e-05	0.00031	0.00037	3
11600	1e-05	-0.00028	-1e-05	4e-05	-0.00042	5e-05	0.00031	0.00037	3
11601	1e-05	-0.00028	-1e-05	4e-05	-0.00042	5e-05	0.00031	0.00037	3
11602	1e-05	-0.00028	-1e-05	4e-05	-0.00042	5e-05	0.00031	0.00037	3
11603	1e-05	-0.00028	-1e-05	4e-05	-0.00042	5e-05	0.00031	0.00037	3
11604	1e-05	-0.00028	-1e-05	4e-05	-0.00042	5e-05	0.00031	0.00037	3
11605	1e-05	-0.00028	-1e-05	4e-05	-0.00042	5e-05	0.00031	0.00037	3
11606	1e-05	-0.00028	-1e-05	4e-05	-0.00042	5e-05	0.00031	0.00037	3
11607	1e-05	-0.00028	-1e-05	4e-05	-0.00042	5e-05	0.00031	0.00037	3
11608	0.00035	0.00016	6e-05	1e-05	9e-05	-0.00018	-0.00023	0.0002	3
11609	5e-05	-1e-05	-4e-05	-6e-05	-0.00018	-2e-05	-1e-05	-9e-05	3
11610	-0.00011	-6e-05	-0.0001	-5e-05	-0.00012	-0.00042	-6e-05	-0.00013	3
11611	-0.00011	-6e-05	-0.0001	-5e-05	-0.00012	-0.00042	-6e-05	-0.00013	3
11612	-0.00011	-6e-05	-0.0001	-5e-05	-0.00012	-0.00042	-6e-05	-0.00013	3
11613	-0.00011	-6e-05	-0.0001	-5e-05	-0.00012	-0.00042	-6e-05	-0.00013	3
11614	-0.00011	-6e-05	-0.0001	-5e-05	-0.00012	-0.00042	-6e-05	-0.00013	3
11615	-0.00011	-6e-05	-0.0001	-5e-05	-0.00012	-0.00042	-6e-05	-0.00013	3
11616	-0.00011	-6e-05	-0.0001	-5e-05	-0.00012	-0.00042	-6e-05	-0.00013	3
11617	-0.00011	-6e-05	-0.0001	-5e-05	-0.00012	-0.00042	-6e-05	-0.00013	3
11618	-0.00011	-6e-05	-0.0001	-5e-05	-0.00012	-0.00042	-6e-05	-0.00013	3
11619	-0.00011	-6e-05	-0.0001	-5e-05	-0.00012	-0.00042	-6e-05	-0.00013	3
11620	-0.00011	-6e-05	-0.0001	-5e-05	-0.00012	-0.00042	-6e-05	-0.00013	3
11621	-0.00011	-6e-05	-0.0001	-5e-05	-0.00012	-0.00042	-6e-05	-0.00013	3
11622	-0.00011	-6e-05	-0.0001	-5e-05	-0.00012	-0.00042	-6e-05	-0.00013	3
11623	-0.00011	-6e-05	-0.0001	-5e-05	-0.00012	-0.00042	-6e-05	-0.00013	3
11624	-0.00011	-6e-05	-0.0001	-5e-05	-0.00012	-0.00042	-6e-05	-0.00013	3
11625	-0.00011	-6e-05	-0.0001	-5e-05	-0.00012	-0.00042	-6e-05	-0.00013	3
11626	-0.00011	-6e-05	-0.0001	-5e-05	-0.00012	-0.00042	-6e-05	-0.00013	3
11627	-0.00011	-6e-05	-0.0001	-5e-05	-0.00012	-0.00042	-6e-05	-0.00013	3
11628	-0.00011	-6e-05	-0.0001	-5e-05	-0.00012	-0.00042	-6e-05	-0.00013	3
11629	-0.00011	-6e-05	-0.0001	-5e-05	-0.00012	-0.00042	-6e-05	-0.00013	3
11630	0.00034	-0.00015	-6e-05	-5e-05	-0.0002	-8e-05	0.00018	-0.00016	3
11631	0.00034	-0.00015	-6e-05	-5e-05	-0.0002	-8e-05	0.00018	-0.00016	3
11632	-0.00039	0.00016	2e-05	5e-05	8e-05	-0.00012	-0.00062	-0.00037	3
11633	-0.00039	0.00016	2e-05	5e-05	8e-05	-0.00012	-0.00062	-0.00037	3
11634	-0.00039	0.00016	2e-05	5e-05	8e-05	-0.00012	-0.00062	-0.00037	3
11635	-0.00039	0.00016	2e-05	5e-05	8e-05	-0.00012	-0.00062	-0.00037	3
11636	-0.00039	0.00016	2e-05	5e-05	8e-05	-0.00012	-0.00062	-0.00037	3
11638	-0.00039	0.00016	2e-05	5e-05	8e-05	-0.00012	-0.00062	-0.00037	3
11639	-0.00039	0.00016	2e-05	5e-05	8e-05	-0.00012	-0.00062	-0.00037	3
11640	-0.00039	0.00016	2e-05	5e-05	8e-05	-0.00012	-0.00062	-0.00037	3
11641	-0.00039	0.00016	2e-05	5e-05	8e-05	-0.00012	-0.00062	-0.00037	3
11642	-0.00039	0.00016	2e-05	5e-05	8e-05	-0.00012	-0.00062	-0.00037	3
11643	-0.00039	0.00016	2e-05	5e-05	8e-05	-0.00012	-0.00062	-0.00037	3
11644	-0.00039	0.00016	2e-05	5e-05	8e-05	-0.00012	-0.00062	-0.00037	3
11645	-0.00039	0.00016	2e-05	5e-05	8e-05	-0.00012	-0.00062	-0.00037	3
11646	-0.00039	0.00016	2e-05	5e-05	8e-05	-0.00012	-0.00062	-0.00037	3
11647	-0.00039	0.00016	2e-05	5e-05	8e-05	-0.00012	-0.00062	-0.00037	3
11648	-0.00039	0.00016	2e-05	5e-05	8e-05	-0.00012	-0.00062	-0.00037	3
11649	-0.00039	0.00016	2e-05	5e-05	8e-05	-0.00012	-0.00062	-0.00037	3
11650	-0.00039	0.00016	2e-05	5e-05	8e-05	-0.00012	-0.00062	-0.00037	3
11651	-0.00039	0.00016	2e-05	5e-05	8e-05	-0.00012	-0.00062	-0.00037	3
11652	-0.00039	0.00016	2e-05	5e-05	8e-05	-0.00012	-0.00062	-0.00037	3
11653	-9e-05	-0.00014	-6e-05	-7e-05	-7e-05	-0.00013	-5e-05	-0.0002	3
11654	0.00036	7e-05	3e-05	1e-05	0.00073	0.00012	0.00017	-0.00042	3
11655	0.00036	7e-05	3e-05	1e-05	0.00073	0.00012	0.00017	-0.00042	3
11656	0.00036	7e-05	3e-05	1e-05	0.00073	0.00012	0.00017	-0.00042	3
11657	0.00036	7e-05	3e-05	1e-05	0.00073	0.00012	0.00017	-0.00042	3
11658	0.00036	7e-05	3e-05	1e-05	0.00073	0.00012	0.00017	-0.00042	3
11659	0.00036	7e-05	3e-05	1e-05	0.00073	0.00012	0.00017	-0.00042	3
11660	0.00036	7e-05	3e-05	1e-05	0.00073	0.00012	0.00017	-0.00042	3
11661	0.00036	7e-05	3e-05	1e-05	0.00073	0.00012	0.00017	-0.00042	3
11662	0.00036	7e-05	3e-05	1e-05	0.00073	0.00012	0.00017	-0.00042	3
11663	0.00036	7e-05	3e-05	1e-05	0.00073	0.00012	0.00017	-0.00042	3
11664	0.00036	7e-05	3e-05	1e-05	0.00073	0.00012	0.00017	-0.00042	3
11665	0.00036	7e-05	3e-05	1e-05	0.00073	0.00012	0.00017	-0.00042	3
11666	0.00036	7e-05	3e-05	1e-05	0.00073	0.00012	0.00017	-0.00042	3
11667	0.00036	7e-05	3e-05	1e-05	0.00073	0.00012	0.00017	-0.00042	3
11668	0.00036	7e-05	3e-05	1e-05	0.00073	0.00012	0.00017	-0.00042	3
11669	0.00036	7e-05	3e-05	1e-05	0.00073	0.00012	0.00017	-0.00042	3
11670	0.00036	7e-05	3e-05	1e-05	0.00073	0.00012	0.00017	-0.00042	3
11671	0.00036	7e-05	3e-05	1e-05	0.00073	0.00012	0.00017	-0.00042	3
11672	0.00036	7e-05	3e-05	1e-05	0.00073	0.00012	0.00017	-0.00042	3
11673	0.00036	7e-05	3e-05	1e-05	0.00073	0.00012	0.00017	-0.00042	3
11674	0.00036	7e-05	3e-05	1e-05	0.00073	0.00012	0.00017	-0.00042	3
11675	-0.00032	-0.00078	-0.00016	-5e-05	-1e-05	0.00013	0	-0.00018	3
11676	-0.00032	-0.00078	-0.00016	-5e-05	-1e-05	0.00013	0	-0.00018	3
11677	0.00025	0.00011	0	-4e-05	-0.00023	-5e-05	-6e-05	3e-05	3
11678	0.00025	0.00011	0	-4e-05	-0.00023	-5e-05	-6e-05	3e-05	3
11679	0.00025	0.00011	0	-4e-05	-0.00023	-5e-05	-6e-05	3e-05	3
11680	0.00025	0.00011	0	-4e-05	-0.00023	-5e-05	-6e-05	3e-05	3
11681	0.00025	0.00011	0	-4e-05	-0.00023	-5e-05	-6e-05	3e-05	3
11682	0.00025	0.00011	0	-4e-05	-0.00023	-5e-05	-6e-05	3e-05	3
11683	0.00025	0.00011	0	-4e-05	-0.00023	-5e-05	-6e-05	3e-05	3
11684	0.00025	0.00011	0	-4e-05	-0.00023	-5e-05	-6e-05	3e-05	3
11685	0.00025	0.00011	0	-4e-05	-0.00023	-5e-05	-6e-05	3e-05	3
11686	0.00025	0.00011	0	-4e-05	-0.00023	-5e-05	-6e-05	3e-05	3
11688	0.00025	0.00011	0	-4e-05	-0.00023	-5e-05	-6e-05	3e-05	3
11689	0.00025	0.00011	0	-4e-05	-0.00023	-5e-05	-6e-05	3e-05	3
11690	0.00025	0.00011	0	-4e-05	-0.00023	-5e-05	-6e-05	3e-05	3
11691	0.00053	-4e-05	-6e-05	-4e-05	1e-05	0.00027	0.00032	0.00045	3
11692	-0.00067	-0.00025	-5e-05	-3e-05	-0.00011	0.0003	0.00011	9e-05	3
11693	-0.00067	-0.00025	-5e-05	-3e-05	-0.00011	0.0003	0.00011	9e-05	3
11694	-0.00067	-0.00025	-5e-05	-3e-05	-0.00011	0.0003	0.00011	9e-05	3
11695	-0.00067	-0.00025	-5e-05	-3e-05	-0.00011	0.0003	0.00011	9e-05	3
11696	-0.00067	-0.00025	-5e-05	-3e-05	-0.00011	0.0003	0.00011	9e-05	3
11697	-0.00067	-0.00025	-5e-05	-3e-05	-0.00011	0.0003	0.00011	9e-05	3
11698	-0.00067	-0.00025	-5e-05	-3e-05	-0.00011	0.0003	0.00011	9e-05	3
11699	-0.00067	-0.00025	-5e-05	-3e-05	-0.00011	0.0003	0.00011	9e-05	3
11700	-0.00067	-0.00025	-5e-05	-3e-05	-0.00011	0.0003	0.00011	9e-05	3
11701	-0.00067	-0.00025	-5e-05	-3e-05	-0.00011	0.0003	0.00011	9e-05	3
11702	-0.00067	-0.00025	-5e-05	-3e-05	-0.00011	0.0003	0.00011	9e-05	3
11703	-0.00067	-0.00025	-5e-05	-3e-05	-0.00011	0.0003	0.00011	9e-05	3
11704	-0.00067	-0.00025	-5e-05	-3e-05	-0.00011	0.0003	0.00011	9e-05	3
11705	-0.00044	0.00017	2e-05	6e-05	-0.00019	-5e-05	-0.00028	-0.00038	3
11706	-0.00044	0.00017	2e-05	6e-05	-0.00019	-5e-05	-0.00028	-0.00038	3
11707	-0.00044	0.00017	2e-05	6e-05	-0.00019	-5e-05	-0.00028	-0.00038	3
11708	-0.00044	0.00017	2e-05	6e-05	-0.00019	-5e-05	-0.00028	-0.00038	3
11709	-0.00044	0.00017	2e-05	6e-05	-0.00019	-5e-05	-0.00028	-0.00038	3
11710	-0.00044	0.00017	2e-05	6e-05	-0.00019	-5e-05	-0.00028	-0.00038	3
11711	-0.00044	0.00017	2e-05	6e-05	-0.00019	-5e-05	-0.00028	-0.00038	3
11712	0.00113	0.00073	2e-05	-2e-05	-0.00011	0.00011	-4e-05	0.00053	3
11713	0.00113	0.00073	2e-05	-2e-05	-0.00011	0.00011	-4e-05	0.00053	3
11714	0.00113	0.00073	2e-05	-2e-05	-0.00011	0.00011	-4e-05	0.00053	3
11715	0.00113	0.00073	2e-05	-2e-05	-0.00011	0.00011	-4e-05	0.00053	3
11716	0.00113	0.00073	2e-05	-2e-05	-0.00011	0.00011	-4e-05	0.00053	3
11717	0.00113	0.00073	2e-05	-2e-05	-0.00011	0.00011	-4e-05	0.00053	3
11718	0.00113	0.00073	2e-05	-2e-05	-0.00011	0.00011	-4e-05	0.00053	3
11719	0.00113	0.00073	2e-05	-2e-05	-0.00011	0.00011	-4e-05	0.00053	3
11720	0.00113	0.00073	2e-05	-2e-05	-0.00011	0.00011	-4e-05	0.00053	3
11721	0.00113	0.00073	2e-05	-2e-05	-0.00011	0.00011	-4e-05	0.00053	3
11722	0.00113	0.00073	2e-05	-2e-05	-0.00011	0.00011	-4e-05	0.00053	3
11723	0.00113	0.00073	2e-05	-2e-05	-0.00011	0.00011	-4e-05	0.00053	3
11724	0.00113	0.00073	2e-05	-2e-05	-0.00011	0.00011	-4e-05	0.00053	3
11725	0.00113	0.00073	2e-05	-2e-05	-0.00011	0.00011	-4e-05	0.00053	3
11726	0.00113	0.00073	2e-05	-2e-05	-0.00011	0.00011	-4e-05	0.00053	3
11727	0.00113	0.00073	2e-05	-2e-05	-0.00011	0.00011	-4e-05	0.00053	3
11728	0.00113	0.00073	2e-05	-2e-05	-0.00011	0.00011	-4e-05	0.00053	3
11729	0.00113	0.00073	2e-05	-2e-05	-0.00011	0.00011	-4e-05	0.00053	3
11730	0.00113	0.00073	2e-05	-2e-05	-0.00011	0.00011	-4e-05	0.00053	3
11731	0.00113	0.00073	2e-05	-2e-05	-0.00011	0.00011	-4e-05	0.00053	3
11732	0.00113	0.00073	2e-05	-2e-05	-0.00011	0.00011	-4e-05	0.00053	3
11733	0.00113	0.00073	2e-05	-2e-05	-0.00011	0.00011	-4e-05	0.00053	3
11734	0.00113	0.00073	2e-05	-2e-05	-0.00011	0.00011	-4e-05	0.00053	3
11735	-0.00068	-0.00024	-1e-05	1e-05	0	3e-05	5e-05	-0.00023	3
11736	-6e-05	0.0001	-2e-05	-4e-05	-0.00018	-5e-05	0.0003	0.00049	3
11738	5e-05	0.00041	8e-05	2e-05	-3e-05	0.00011	-0.00031	-0.00024	3
11739	5e-05	0.00041	8e-05	2e-05	-3e-05	0.00011	-0.00031	-0.00024	3
11740	5e-05	0.00041	8e-05	2e-05	-3e-05	0.00011	-0.00031	-0.00024	3
11741	5e-05	0.00041	8e-05	2e-05	-3e-05	0.00011	-0.00031	-0.00024	3
11742	5e-05	0.00041	8e-05	2e-05	-3e-05	0.00011	-0.00031	-0.00024	3
11743	5e-05	0.00041	8e-05	2e-05	-3e-05	0.00011	-0.00031	-0.00024	3
11744	5e-05	0.00041	8e-05	2e-05	-3e-05	0.00011	-0.00031	-0.00024	3
11745	5e-05	0.00041	8e-05	2e-05	-3e-05	0.00011	-0.00031	-0.00024	3
11746	5e-05	0.00041	8e-05	2e-05	-3e-05	0.00011	-0.00031	-0.00024	3
11747	5e-05	0.00041	8e-05	2e-05	-3e-05	0.00011	-0.00031	-0.00024	3
11748	5e-05	0.00041	8e-05	2e-05	-3e-05	0.00011	-0.00031	-0.00024	3
11749	5e-05	0.00041	8e-05	2e-05	-3e-05	0.00011	-0.00031	-0.00024	3
11750	5e-05	0.00041	8e-05	2e-05	-3e-05	0.00011	-0.00031	-0.00024	3
11751	5e-05	0.00041	8e-05	2e-05	-3e-05	0.00011	-0.00031	-0.00024	3
11752	5e-05	0.00041	8e-05	2e-05	-3e-05	0.00011	-0.00031	-0.00024	3
11753	5e-05	0.00041	8e-05	2e-05	-3e-05	0.00011	-0.00031	-0.00024	3
11754	5e-05	0.00041	8e-05	2e-05	-3e-05	0.00011	-0.00031	-0.00024	3
11755	5e-05	0.00041	8e-05	2e-05	-3e-05	0.00011	-0.00031	-0.00024	3
11756	5e-05	0.00041	8e-05	2e-05	-3e-05	0.00011	-0.00031	-0.00024	3
11757	5e-05	0.00041	8e-05	2e-05	-3e-05	0.00011	-0.00031	-0.00024	3
11758	-0.00046	6e-05	3e-05	-1e-05	0.00019	-0.00018	-0.0006	-0.00072	3
11759	2e-05	0.0001	-2e-05	-3e-05	-0.00016	0	-0.00037	0.00047	3
11760	-0.00019	9e-05	-2e-05	-3e-05	6e-05	-0.00018	0.00055	0.00017	3
11761	-0.00019	9e-05	-2e-05	-3e-05	6e-05	-0.00018	0.00055	0.00017	3
11762	-0.00019	9e-05	-2e-05	-3e-05	6e-05	-0.00018	0.00055	0.00017	3
11763	-0.00019	9e-05	-2e-05	-3e-05	6e-05	-0.00018	0.00055	0.00017	3
11764	-0.00019	9e-05	-2e-05	-3e-05	6e-05	-0.00018	0.00055	0.00017	3
11765	-0.00074	0.00032	4e-05	1e-05	-5e-05	-0.00012	9e-05	-0.00073	3
11766	-0.00074	0.00032	4e-05	1e-05	-5e-05	-0.00012	9e-05	-0.00073	3
11767	-0.00074	0.00032	4e-05	1e-05	-5e-05	-0.00012	9e-05	-0.00073	3
11768	-0.00074	0.00032	4e-05	1e-05	-5e-05	-0.00012	9e-05	-0.00073	3
11769	-0.00074	0.00032	4e-05	1e-05	-5e-05	-0.00012	9e-05	-0.00073	3
11770	-0.00074	0.00032	4e-05	1e-05	-5e-05	-0.00012	9e-05	-0.00073	3
11771	-8e-05	-0.00068	-8e-05	2e-05	0.00104	0.00034	0.00013	5e-05	3
11772	0.00067	-5e-05	3e-05	4e-05	-0.00028	-0.00047	-0.0001	5e-05	3
11773	0.00067	-5e-05	3e-05	4e-05	-0.00028	-0.00047	-0.0001	5e-05	3
11774	0.00067	-5e-05	3e-05	4e-05	-0.00028	-0.00047	-0.0001	5e-05	3
11775	0.00067	-5e-05	3e-05	4e-05	-0.00028	-0.00047	-0.0001	5e-05	3
11776	0.00067	-5e-05	3e-05	4e-05	-0.00028	-0.00047	-0.0001	5e-05	3
11777	0.00067	-5e-05	3e-05	4e-05	-0.00028	-0.00047	-0.0001	5e-05	3
11778	0.00067	-5e-05	3e-05	4e-05	-0.00028	-0.00047	-0.0001	5e-05	3
11779	0.00067	-5e-05	3e-05	4e-05	-0.00028	-0.00047	-0.0001	5e-05	3
11780	0.00067	-5e-05	3e-05	4e-05	-0.00028	-0.00047	-0.0001	5e-05	3
11781	0.00067	-5e-05	3e-05	4e-05	-0.00028	-0.00047	-0.0001	5e-05	3
11782	0.00067	-5e-05	3e-05	4e-05	-0.00028	-0.00047	-0.0001	5e-05	3
11783	0.00067	-5e-05	3e-05	4e-05	-0.00028	-0.00047	-0.0001	5e-05	3
11784	0.00067	-5e-05	3e-05	4e-05	-0.00028	-0.00047	-0.0001	5e-05	3
11785	0.00067	-5e-05	3e-05	4e-05	-0.00028	-0.00047	-0.0001	5e-05	3
11786	0.00067	-5e-05	3e-05	4e-05	-0.00028	-0.00047	-0.0001	5e-05	3
11788	0.00067	-5e-05	3e-05	4e-05	-0.00028	-0.00047	-0.0001	5e-05	3
11789	0.00067	-5e-05	3e-05	4e-05	-0.00028	-0.00047	-0.0001	5e-05	3
11790	0.00067	-5e-05	3e-05	4e-05	-0.00028	-0.00047	-0.0001	5e-05	3
11791	0.00067	-5e-05	3e-05	4e-05	-0.00028	-0.00047	-0.0001	5e-05	3
11792	0.00067	-5e-05	3e-05	4e-05	-0.00028	-0.00047	-0.0001	5e-05	3
11793	0.00067	-5e-05	3e-05	4e-05	-0.00028	-0.00047	-0.0001	5e-05	3
11794	0.00067	-5e-05	3e-05	4e-05	-0.00028	-0.00047	-0.0001	5e-05	3
11795	0.00067	-5e-05	3e-05	4e-05	-0.00028	-0.00047	-0.0001	5e-05	3
11796	7e-05	6e-05	-1e-05	-2e-05	-0.00019	-9e-05	0.0001	-0.00051	3
11797	-0.00028	0.00022	2e-05	-2e-05	-0.00029	-0.0002	-0.00021	0.00045	3
11798	-0.00041	-0.00027	-7e-05	-6e-05	0.00016	0.00035	-3e-05	3e-05	3
11799	-0.00041	-0.00027	-7e-05	-6e-05	0.00016	0.00035	-3e-05	3e-05	3
11800	-0.00041	-0.00027	-7e-05	-6e-05	0.00016	0.00035	-3e-05	3e-05	3
11801	-0.00041	-0.00027	-7e-05	-6e-05	0.00016	0.00035	-3e-05	3e-05	3
11802	-0.00041	-0.00027	-7e-05	-6e-05	0.00016	0.00035	-3e-05	3e-05	3
11803	-0.00041	-0.00027	-7e-05	-6e-05	0.00016	0.00035	-3e-05	3e-05	3
11804	-0.00041	-0.00027	-7e-05	-6e-05	0.00016	0.00035	-3e-05	3e-05	3
11805	-0.00041	-0.00027	-7e-05	-6e-05	0.00016	0.00035	-3e-05	3e-05	3
11806	-0.00041	-0.00027	-7e-05	-6e-05	0.00016	0.00035	-3e-05	3e-05	3
11807	-0.00041	-0.00027	-7e-05	-6e-05	0.00016	0.00035	-3e-05	3e-05	3
11808	-0.00041	-0.00027	-7e-05	-6e-05	0.00016	0.00035	-3e-05	3e-05	3
11809	-0.00041	-0.00027	-7e-05	-6e-05	0.00016	0.00035	-3e-05	3e-05	3
11810	-0.00041	-0.00027	-7e-05	-6e-05	0.00016	0.00035	-3e-05	3e-05	3
11811	-0.00041	-0.00027	-7e-05	-6e-05	0.00016	0.00035	-3e-05	3e-05	3
11812	-0.00041	-0.00027	-7e-05	-6e-05	0.00016	0.00035	-3e-05	3e-05	3
11813	-0.00041	-0.00027	-7e-05	-6e-05	0.00016	0.00035	-3e-05	3e-05	3
11814	-0.00041	-0.00027	-7e-05	-6e-05	0.00016	0.00035	-3e-05	3e-05	3
11815	-0.00041	-0.00027	-7e-05	-6e-05	0.00016	0.00035	-3e-05	3e-05	3
11816	-0.00041	-0.00027	-7e-05	-6e-05	0.00016	0.00035	-3e-05	3e-05	3
11817	-0.00041	-0.00027	-7e-05	-6e-05	0.00016	0.00035	-3e-05	3e-05	3
11818	-0.00027	0.00021	5e-05	2e-05	-2e-05	-0.00032	-4e-05	0.00031	3
11819	-0.00018	0	-1e-05	4e-05	0.00015	0.00025	-0.0002	0.00049	3
11820	-0.00018	0	-1e-05	4e-05	0.00015	0.00025	-0.0002	0.00049	3
11821	-0.00018	0	-1e-05	4e-05	0.00015	0.00025	-0.0002	0.00049	3
11822	-0.00018	0	-1e-05	4e-05	0.00015	0.00025	-0.0002	0.00049	3
11823	-0.00018	0	-1e-05	4e-05	0.00015	0.00025	-0.0002	0.00049	3
11824	-0.00018	0	-1e-05	4e-05	0.00015	0.00025	-0.0002	0.00049	3
11825	-1e-05	-0.00044	-8e-05	-3e-05	-7e-05	7e-05	-4e-05	0.00099	3
11826	-1e-05	-0.00044	-8e-05	-3e-05	-7e-05	7e-05	-4e-05	0.00099	3
11827	-1e-05	-0.00044	-8e-05	-3e-05	-7e-05	7e-05	-4e-05	0.00099	3
11828	-1e-05	-0.00044	-8e-05	-3e-05	-7e-05	7e-05	-4e-05	0.00099	3
11829	-1e-05	-0.00044	-8e-05	-3e-05	-7e-05	7e-05	-4e-05	0.00099	3
11830	-1e-05	-0.00044	-8e-05	-3e-05	-7e-05	7e-05	-4e-05	0.00099	3
11831	-1e-05	-0.00044	-8e-05	-3e-05	-7e-05	7e-05	-4e-05	0.00099	3
11832	-1e-05	-0.00044	-8e-05	-3e-05	-7e-05	7e-05	-4e-05	0.00099	3
11833	-1e-05	-0.00044	-8e-05	-3e-05	-7e-05	7e-05	-4e-05	0.00099	3
11834	-1e-05	-0.00044	-8e-05	-3e-05	-7e-05	7e-05	-4e-05	0.00099	3
11835	-1e-05	-0.00044	-8e-05	-3e-05	-7e-05	7e-05	-4e-05	0.00099	3
11836	-1e-05	-0.00044	-8e-05	-3e-05	-7e-05	7e-05	-4e-05	0.00099	3
11838	-1e-05	-0.00044	-8e-05	-3e-05	-7e-05	7e-05	-4e-05	0.00099	3
11839	9e-05	-0.0003	-7e-05	1e-05	0.00058	6e-05	2e-05	-0.0003	3
11840	9e-05	-0.0003	-7e-05	1e-05	0.00058	6e-05	2e-05	-0.0003	3
11841	9e-05	-0.0003	-7e-05	1e-05	0.00058	6e-05	2e-05	-0.0003	3
11842	9e-05	-0.0003	-7e-05	1e-05	0.00058	6e-05	2e-05	-0.0003	3
11843	9e-05	-0.0003	-7e-05	1e-05	0.00058	6e-05	2e-05	-0.0003	3
11844	9e-05	-0.0003	-7e-05	1e-05	0.00058	6e-05	2e-05	-0.0003	3
11845	9e-05	-0.0003	-7e-05	1e-05	0.00058	6e-05	2e-05	-0.0003	3
11846	9e-05	-0.0003	-7e-05	1e-05	0.00058	6e-05	2e-05	-0.0003	3
11847	9e-05	-0.0003	-7e-05	1e-05	0.00058	6e-05	2e-05	-0.0003	3
11848	-7e-05	3e-05	6e-05	4e-05	0.00022	0.00012	0.00033	-2e-05	3
11849	-0.00031	4e-05	4e-05	-1e-05	-0.00015	0.0001	-0.00018	-4e-05	3
11850	-0.00072	-0.00029	-1e-05	1e-05	-0.00018	0.00018	-0.00013	-0.00083	3
11851	-0.00072	-0.00029	-1e-05	1e-05	-0.00018	0.00018	-0.00013	-0.00083	3
11852	-0.00072	-0.00029	-1e-05	1e-05	-0.00018	0.00018	-0.00013	-0.00083	3
11853	-0.00072	-0.00029	-1e-05	1e-05	-0.00018	0.00018	-0.00013	-0.00083	3
11854	-0.00072	-0.00029	-1e-05	1e-05	-0.00018	0.00018	-0.00013	-0.00083	3
11855	-0.00072	-0.00029	-1e-05	1e-05	-0.00018	0.00018	-0.00013	-0.00083	3
11856	-0.00072	-0.00029	-1e-05	1e-05	-0.00018	0.00018	-0.00013	-0.00083	3
11857	-0.00072	-0.00029	-1e-05	1e-05	-0.00018	0.00018	-0.00013	-0.00083	3
11858	-0.00072	-0.00029	-1e-05	1e-05	-0.00018	0.00018	-0.00013	-0.00083	3
11859	-0.00072	-0.00029	-1e-05	1e-05	-0.00018	0.00018	-0.00013	-0.00083	3
11860	-0.00072	-0.00029	-1e-05	1e-05	-0.00018	0.00018	-0.00013	-0.00083	3
11861	-0.00072	-0.00029	-1e-05	1e-05	-0.00018	0.00018	-0.00013	-0.00083	3
11862	-0.00072	-0.00029	-1e-05	1e-05	-0.00018	0.00018	-0.00013	-0.00083	3
11863	-0.00072	-0.00029	-1e-05	1e-05	-0.00018	0.00018	-0.00013	-0.00083	3
11864	-0.00072	-0.00029	-1e-05	1e-05	-0.00018	0.00018	-0.00013	-0.00083	3
11865	-0.00072	-0.00029	-1e-05	1e-05	-0.00018	0.00018	-0.00013	-0.00083	3
11866	-0.00072	-0.00029	-1e-05	1e-05	-0.00018	0.00018	-0.00013	-0.00083	3
11867	-0.00072	-0.00029	-1e-05	1e-05	-0.00018	0.00018	-0.00013	-0.00083	3
11868	-0.00072	-0.00029	-1e-05	1e-05	-0.00018	0.00018	-0.00013	-0.00083	3
11869	-0.00072	-0.00029	-1e-05	1e-05	-0.00018	0.00018	-0.00013	-0.00083	3
11870	-0.00072	-0.00029	-1e-05	1e-05	-0.00018	0.00018	-0.00013	-0.00083	3
11871	-0.00072	-0.00029	-1e-05	1e-05	-0.00018	0.00018	-0.00013	-0.00083	3
11872	-0.00072	-0.00029	-1e-05	1e-05	-0.00018	0.00018	-0.00013	-0.00083	3
11873	-0.00072	-0.00029	-1e-05	1e-05	-0.00018	0.00018	-0.00013	-0.00083	3
11874	-0.00072	-0.00029	-1e-05	1e-05	-0.00018	0.00018	-0.00013	-0.00083	3
11875	-0.00072	-0.00029	-1e-05	1e-05	-0.00018	0.00018	-0.00013	-0.00083	3
11876	-0.00072	-0.00029	-1e-05	1e-05	-0.00018	0.00018	-0.00013	-0.00083	3
11877	-0.00072	-0.00029	-1e-05	1e-05	-0.00018	0.00018	-0.00013	-0.00083	3
11878	2e-05	0.00017	3e-05	-3e-05	1e-05	-0.00021	0.0005	-0.00086	3
11879	2e-05	0.00017	3e-05	-3e-05	1e-05	-0.00021	0.0005	-0.00086	3
11880	-0.00027	5e-05	1e-05	0	-9e-05	-0.00029	-3e-05	-0.00038	3
11881	-0.00027	5e-05	1e-05	0	-9e-05	-0.00029	-3e-05	-0.00038	3
11882	-0.00027	5e-05	1e-05	0	-9e-05	-0.00029	-3e-05	-0.00038	3
11883	-0.00027	5e-05	1e-05	0	-9e-05	-0.00029	-3e-05	-0.00038	3
11884	-0.00027	5e-05	1e-05	0	-9e-05	-0.00029	-3e-05	-0.00038	3
11885	0.00084	0.00018	5e-05	4e-05	0.00014	1e-05	0.00013	0.00084	3
11886	0.00084	0.00018	5e-05	4e-05	0.00014	1e-05	0.00013	0.00084	3
11888	0.00084	0.00018	5e-05	4e-05	0.00014	1e-05	0.00013	0.00084	3
11889	0.00084	0.00018	5e-05	4e-05	0.00014	1e-05	0.00013	0.00084	3
11890	0.00084	0.00018	5e-05	4e-05	0.00014	1e-05	0.00013	0.00084	3
11891	0.00084	0.00018	5e-05	4e-05	0.00014	1e-05	0.00013	0.00084	3
11892	0.00084	0.00018	5e-05	4e-05	0.00014	1e-05	0.00013	0.00084	3
11893	0.00084	0.00018	5e-05	4e-05	0.00014	1e-05	0.00013	0.00084	3
11894	0.00084	0.00018	5e-05	4e-05	0.00014	1e-05	0.00013	0.00084	3
11895	0.00084	0.00018	5e-05	4e-05	0.00014	1e-05	0.00013	0.00084	3
11896	0.00084	0.00018	5e-05	4e-05	0.00014	1e-05	0.00013	0.00084	3
11897	0.00084	0.00018	5e-05	4e-05	0.00014	1e-05	0.00013	0.00084	3
11898	0.00084	0.00018	5e-05	4e-05	0.00014	1e-05	0.00013	0.00084	3
11899	-5e-05	5e-05	3e-05	0	-2e-05	0.00033	8e-05	0.00035	3
11900	-5e-05	5e-05	3e-05	0	-2e-05	0.00033	8e-05	0.00035	3
11901	-5e-05	5e-05	3e-05	0	-2e-05	0.00033	8e-05	0.00035	3
11902	-5e-05	5e-05	3e-05	0	-2e-05	0.00033	8e-05	0.00035	3
11903	-5e-05	5e-05	3e-05	0	-2e-05	0.00033	8e-05	0.00035	3
11904	-5e-05	5e-05	3e-05	0	-2e-05	0.00033	8e-05	0.00035	3
11905	-5e-05	5e-05	3e-05	0	-2e-05	0.00033	8e-05	0.00035	3
11906	-5e-05	5e-05	3e-05	0	-2e-05	0.00033	8e-05	0.00035	3
11907	-5e-05	5e-05	3e-05	0	-2e-05	0.00033	8e-05	0.00035	3
11908	-0.00056	0.00027	1e-05	-1e-05	-0.00016	-1e-05	-9e-05	3e-05	3
11909	-0.00014	0	2e-05	-3e-05	-0.00014	-3e-05	-0.00012	-5e-05	3
11910	-0.00014	0	2e-05	-3e-05	-0.00014	-3e-05	-0.00012	-5e-05	3
11911	-0.00014	0	2e-05	-3e-05	-0.00014	-3e-05	-0.00012	-5e-05	3
11912	-0.00014	0	2e-05	-3e-05	-0.00014	-3e-05	-0.00012	-5e-05	3
11913	-0.00014	0	2e-05	-3e-05	-0.00014	-3e-05	-0.00012	-5e-05	3
11914	-0.00014	0	2e-05	-3e-05	-0.00014	-3e-05	-0.00012	-5e-05	3
11915	-0.00014	0	2e-05	-3e-05	-0.00014	-3e-05	-0.00012	-5e-05	3
11916	-0.00014	0	2e-05	-3e-05	-0.00014	-3e-05	-0.00012	-5e-05	3
11917	-0.00014	0	2e-05	-3e-05	-0.00014	-3e-05	-0.00012	-5e-05	3
11918	-0.00014	0	2e-05	-3e-05	-0.00014	-3e-05	-0.00012	-5e-05	3
11919	-0.00014	0	2e-05	-3e-05	-0.00014	-3e-05	-0.00012	-5e-05	3
11920	-0.00014	0	2e-05	-3e-05	-0.00014	-3e-05	-0.00012	-5e-05	3
11921	-0.00014	0	2e-05	-3e-05	-0.00014	-3e-05	-0.00012	-5e-05	3
11922	-0.00014	0	2e-05	-3e-05	-0.00014	-3e-05	-0.00012	-5e-05	3
11923	-0.00014	0	2e-05	-3e-05	-0.00014	-3e-05	-0.00012	-5e-05	3
11924	-0.00014	0	2e-05	-3e-05	-0.00014	-3e-05	-0.00012	-5e-05	3
11925	-0.00014	0	2e-05	-3e-05	-0.00014	-3e-05	-0.00012	-5e-05	3
11926	-0.00014	0	2e-05	-3e-05	-0.00014	-3e-05	-0.00012	-5e-05	3
11927	-0.00014	0	2e-05	-3e-05	-0.00014	-3e-05	-0.00012	-5e-05	3
11928	-0.00014	0	2e-05	-3e-05	-0.00014	-3e-05	-0.00012	-5e-05	3
11929	-0.00014	0	2e-05	-3e-05	-0.00014	-3e-05	-0.00012	-5e-05	3
11930	-0.00014	0	2e-05	-3e-05	-0.00014	-3e-05	-0.00012	-5e-05	3
11931	-0.0001	-0.0002	-6e-05	-4e-05	2e-05	0.0002	-0.00029	-0.00028	3
11932	-1e-05	0.00032	2e-05	1e-05	-0.00014	-0.00033	0.00026	0.00033	3
11933	-1e-05	0.00032	2e-05	1e-05	-0.00014	-0.00033	0.00026	0.00033	3
11934	-1e-05	0.00032	2e-05	1e-05	-0.00014	-0.00033	0.00026	0.00033	3
11935	-1e-05	0.00032	2e-05	1e-05	-0.00014	-0.00033	0.00026	0.00033	3
11936	-1e-05	0.00032	2e-05	1e-05	-0.00014	-0.00033	0.00026	0.00033	3
11938	-1e-05	0.00032	2e-05	1e-05	-0.00014	-0.00033	0.00026	0.00033	3
11939	-1e-05	0.00032	2e-05	1e-05	-0.00014	-0.00033	0.00026	0.00033	3
11940	-1e-05	0.00032	2e-05	1e-05	-0.00014	-0.00033	0.00026	0.00033	3
11941	-1e-05	0.00032	2e-05	1e-05	-0.00014	-0.00033	0.00026	0.00033	3
11942	-1e-05	0.00032	2e-05	1e-05	-0.00014	-0.00033	0.00026	0.00033	3
11943	-1e-05	0.00032	2e-05	1e-05	-0.00014	-0.00033	0.00026	0.00033	3
11944	-1e-05	0.00032	2e-05	1e-05	-0.00014	-0.00033	0.00026	0.00033	3
11945	-1e-05	0.00032	2e-05	1e-05	-0.00014	-0.00033	0.00026	0.00033	3
11946	-1e-05	0.00032	2e-05	1e-05	-0.00014	-0.00033	0.00026	0.00033	3
11947	-1e-05	0.00032	2e-05	1e-05	-0.00014	-0.00033	0.00026	0.00033	3
11948	-1e-05	0.00032	2e-05	1e-05	-0.00014	-0.00033	0.00026	0.00033	3
11949	-1e-05	0.00032	2e-05	1e-05	-0.00014	-0.00033	0.00026	0.00033	3
11950	-1e-05	0.00032	2e-05	1e-05	-0.00014	-0.00033	0.00026	0.00033	3
11951	-1e-05	0.00032	2e-05	1e-05	-0.00014	-0.00033	0.00026	0.00033	3
11952	-1e-05	0.00032	2e-05	1e-05	-0.00014	-0.00033	0.00026	0.00033	3
11953	0.00019	-0.00017	-1e-05	4e-05	0.00013	0.00031	0.00011	-0.00026	3
11954	0.00019	-0.00017	-1e-05	4e-05	0.00013	0.00031	0.00011	-0.00026	3
11955	0.00019	-0.00017	-1e-05	4e-05	0.00013	0.00031	0.00011	-0.00026	3
11956	0.00019	-0.00017	-1e-05	4e-05	0.00013	0.00031	0.00011	-0.00026	3
11957	0.00019	-0.00017	-1e-05	4e-05	0.00013	0.00031	0.00011	-0.00026	3
11958	0.00019	-0.00017	-1e-05	4e-05	0.00013	0.00031	0.00011	-0.00026	3
11959	-0.00041	5e-05	4e-05	3e-05	0.0004	-9e-05	0.00033	0.00062	3
11960	-0.00041	5e-05	4e-05	3e-05	0.0004	-9e-05	0.00033	0.00062	3
11961	-0.00041	5e-05	4e-05	3e-05	0.0004	-9e-05	0.00033	0.00062	3
11962	-0.00041	5e-05	4e-05	3e-05	0.0004	-9e-05	0.00033	0.00062	3
11963	-0.00041	5e-05	4e-05	3e-05	0.0004	-9e-05	0.00033	0.00062	3
11964	-0.00041	5e-05	4e-05	3e-05	0.0004	-9e-05	0.00033	0.00062	3
11965	-0.00041	5e-05	4e-05	3e-05	0.0004	-9e-05	0.00033	0.00062	3
11966	-0.00041	5e-05	4e-05	3e-05	0.0004	-9e-05	0.00033	0.00062	3
11967	-0.00041	5e-05	4e-05	3e-05	0.0004	-9e-05	0.00033	0.00062	3
11968	-0.00041	5e-05	4e-05	3e-05	0.0004	-9e-05	0.00033	0.00062	3
11969	-0.00041	5e-05	4e-05	3e-05	0.0004	-9e-05	0.00033	0.00062	3
11970	-0.00023	-0.00021	-5e-05	0	-0.00015	-0.00022	-0.00044	-0.0005	3
11971	-0.00023	-0.00021	-5e-05	0	-0.00015	-0.00022	-0.00044	-0.0005	3
11972	-0.00023	-0.00021	-5e-05	0	-0.00015	-0.00022	-0.00044	-0.0005	3
11973	-0.00023	-0.00021	-5e-05	0	-0.00015	-0.00022	-0.00044	-0.0005	3
11974	-0.00023	-0.00021	-5e-05	0	-0.00015	-0.00022	-0.00044	-0.0005	3
11975	-0.00023	-0.00021	-5e-05	0	-0.00015	-0.00022	-0.00044	-0.0005	3
11976	-0.00023	-0.00021	-5e-05	0	-0.00015	-0.00022	-0.00044	-0.0005	3
11977	-0.00023	-0.00021	-5e-05	0	-0.00015	-0.00022	-0.00044	-0.0005	3
11978	-0.00023	-0.00021	-5e-05	0	-0.00015	-0.00022	-0.00044	-0.0005	3
11979	-0.00023	-0.00021	-5e-05	0	-0.00015	-0.00022	-0.00044	-0.0005	3
11980	-0.00023	-0.00021	-5e-05	0	-0.00015	-0.00022	-0.00044	-0.0005	3
11981	-0.00023	-0.00021	-5e-05	0	-0.00015	-0.00022	-0.00044	-0.0005	3
11982	-0.00023	-0.00021	-5e-05	0	-0.00015	-0.00022	-0.00044	-0.0005	3
11983	-0.00023	-0.00021	-5e-05	0	-0.00015	-0.00022	-0.00044	-0.0005	3
11984	-0.00023	-0.00021	-5e-05	0	-0.00015	-0.00022	-0.00044	-0.0005	3
11985	-0.00023	-0.00021	-5e-05	0	-0.00015	-0.00022	-0.00044	-0.0005	3
11986	-0.00023	-0.00021	-5e-05	0	-0.00015	-0.00022	-0.00044	-0.0005	3
11988	-0.00023	-0.00021	-5e-05	0	-0.00015	-0.00022	-0.00044	-0.0005	3
11989	-0.00023	-0.00021	-5e-05	0	-0.00015	-0.00022	-0.00044	-0.0005	3
11990	-0.00019	-0.00013	0	0	5e-05	1e-05	-8e-05	-0.00012	3
11991	-0.00019	-0.00013	0	0	5e-05	1e-05	-8e-05	-0.00012	3
11992	-0.00018	0.00069	9e-05	1e-05	0.00052	0.00027	-0.00012	0.0002	3
11993	-0.00018	0.00069	9e-05	1e-05	0.00052	0.00027	-0.00012	0.0002	3
11994	-0.00018	0.00069	9e-05	1e-05	0.00052	0.00027	-0.00012	0.0002	3
11995	-0.00018	0.00069	9e-05	1e-05	0.00052	0.00027	-0.00012	0.0002	3
11996	-0.00018	0.00069	9e-05	1e-05	0.00052	0.00027	-0.00012	0.0002	3
11997	-0.00018	0.00069	9e-05	1e-05	0.00052	0.00027	-0.00012	0.0002	3
11998	-0.00018	0.00069	9e-05	1e-05	0.00052	0.00027	-0.00012	0.0002	3
11999	-0.00018	0.00069	9e-05	1e-05	0.00052	0.00027	-0.00012	0.0002	3
12000	-0.00018	0.00069	9e-05	1e-05	0.00052	0.00027	-0.00012	0.0002	3
12001	-0.00018	0.00069	9e-05	1e-05	0.00052	0.00027	-0.00012	0.0002	3
12002	-0.00018	0.00069	9e-05	1e-05	0.00052	0.00027	-0.00012	0.0002	3
12003	-0.00018	0.00069	9e-05	1e-05	0.00052	0.00027	-0.00012	0.0002	3
12004	0.00012	1e-05	-3e-05	-2e-05	-0.00011	-0.0002	-0.00036	0.00016	3
12005	0.00012	1e-05	-3e-05	-2e-05	-0.00011	-0.0002	-0.00036	0.00016	3
12006	0.00012	1e-05	-3e-05	-2e-05	-0.00011	-0.0002	-0.00036	0.00016	3
12007	0.00012	1e-05	-3e-05	-2e-05	-0.00011	-0.0002	-0.00036	0.00016	3
12008	0.00012	1e-05	-3e-05	-2e-05	-0.00011	-0.0002	-0.00036	0.00016	3
12009	0.00012	1e-05	-3e-05	-2e-05	-0.00011	-0.0002	-0.00036	0.00016	3
12010	0.00012	1e-05	-3e-05	-2e-05	-0.00011	-0.0002	-0.00036	0.00016	3
12011	0.00012	1e-05	-3e-05	-2e-05	-0.00011	-0.0002	-0.00036	0.00016	3
12012	0.00012	1e-05	-3e-05	-2e-05	-0.00011	-0.0002	-0.00036	0.00016	3
12013	-0.00047	-0.00032	-7e-05	1e-05	0.00022	0.00033	-5e-05	-0.00036	3
12014	-0.00047	-0.00032	-7e-05	1e-05	0.00022	0.00033	-5e-05	-0.00036	3
12015	-0.00047	-0.00032	-7e-05	1e-05	0.00022	0.00033	-5e-05	-0.00036	3
12016	-0.00047	-0.00032	-7e-05	1e-05	0.00022	0.00033	-5e-05	-0.00036	3
12017	-0.00047	-0.00032	-7e-05	1e-05	0.00022	0.00033	-5e-05	-0.00036	3
12018	-0.00047	-0.00032	-7e-05	1e-05	0.00022	0.00033	-5e-05	-0.00036	3
12019	-0.00047	-0.00032	-7e-05	1e-05	0.00022	0.00033	-5e-05	-0.00036	3
12020	-0.00047	-0.00032	-7e-05	1e-05	0.00022	0.00033	-5e-05	-0.00036	3
12021	-0.00047	-0.00032	-7e-05	1e-05	0.00022	0.00033	-5e-05	-0.00036	3
12022	-0.00047	-0.00032	-7e-05	1e-05	0.00022	0.00033	-5e-05	-0.00036	3
12023	-0.00047	-0.00032	-7e-05	1e-05	0.00022	0.00033	-5e-05	-0.00036	3
12024	-0.00047	-0.00032	-7e-05	1e-05	0.00022	0.00033	-5e-05	-0.00036	3
12025	-0.00047	-0.00032	-7e-05	1e-05	0.00022	0.00033	-5e-05	-0.00036	3
12026	-0.00047	-0.00032	-7e-05	1e-05	0.00022	0.00033	-5e-05	-0.00036	3
12027	-0.00047	-0.00032	-7e-05	1e-05	0.00022	0.00033	-5e-05	-0.00036	3
12028	-0.00047	-0.00032	-7e-05	1e-05	0.00022	0.00033	-5e-05	-0.00036	3
12029	-0.00047	-0.00032	-7e-05	1e-05	0.00022	0.00033	-5e-05	-0.00036	3
12030	-0.00047	-0.00032	-7e-05	1e-05	0.00022	0.00033	-5e-05	-0.00036	3
12031	-0.00047	-0.00032	-7e-05	1e-05	0.00022	0.00033	-5e-05	-0.00036	3
12032	-0.00047	-0.00032	-7e-05	1e-05	0.00022	0.00033	-5e-05	-0.00036	3
12033	-0.00047	-0.00032	-7e-05	1e-05	0.00022	0.00033	-5e-05	-0.00036	3
12034	-0.00047	-0.00032	-7e-05	1e-05	0.00022	0.00033	-5e-05	-0.00036	3
12035	-0.00047	-0.00032	-7e-05	1e-05	0.00022	0.00033	-5e-05	-0.00036	3
12036	0.0001	9e-05	3e-05	4e-05	0.00015	0.0003	-0.00028	0.00026	3
12038	-0.00049	-0.00057	-8e-05	-7e-05	-0.00029	-7e-05	0.00021	1e-05	3
12039	-0.00049	-0.00057	-8e-05	-7e-05	-0.00029	-7e-05	0.00021	1e-05	3
12040	-0.00049	-0.00057	-8e-05	-7e-05	-0.00029	-7e-05	0.00021	1e-05	3
12041	-0.00049	-0.00057	-8e-05	-7e-05	-0.00029	-7e-05	0.00021	1e-05	3
12042	-0.00049	-0.00057	-8e-05	-7e-05	-0.00029	-7e-05	0.00021	1e-05	3
12043	-0.00049	-0.00057	-8e-05	-7e-05	-0.00029	-7e-05	0.00021	1e-05	3
12044	-0.00049	-0.00057	-8e-05	-7e-05	-0.00029	-7e-05	0.00021	1e-05	3
12045	-0.00049	-0.00057	-8e-05	-7e-05	-0.00029	-7e-05	0.00021	1e-05	3
12046	-0.00049	-0.00057	-8e-05	-7e-05	-0.00029	-7e-05	0.00021	1e-05	3
12047	-0.00049	-0.00057	-8e-05	-7e-05	-0.00029	-7e-05	0.00021	1e-05	3
12048	-0.00049	-0.00057	-8e-05	-7e-05	-0.00029	-7e-05	0.00021	1e-05	3
12049	-0.00049	-0.00057	-8e-05	-7e-05	-0.00029	-7e-05	0.00021	1e-05	3
12050	0.00077	0	2e-05	1e-05	-0.0002	-0.00019	-0.00027	0.00024	3
12051	0.00077	0	2e-05	1e-05	-0.0002	-0.00019	-0.00027	0.00024	3
12052	0.00044	-0.00026	-8e-05	-4e-05	-1e-05	-0.00016	0.00011	0.00065	3
12053	0.00044	-0.00026	-8e-05	-4e-05	-1e-05	-0.00016	0.00011	0.00065	3
12054	0.00044	-0.00026	-8e-05	-4e-05	-1e-05	-0.00016	0.00011	0.00065	3
12055	0.00044	-0.00026	-8e-05	-4e-05	-1e-05	-0.00016	0.00011	0.00065	3
12056	0.00044	-0.00026	-8e-05	-4e-05	-1e-05	-0.00016	0.00011	0.00065	3
12057	0.00044	-0.00026	-8e-05	-4e-05	-1e-05	-0.00016	0.00011	0.00065	3
12058	0.00044	-0.00026	-8e-05	-4e-05	-1e-05	-0.00016	0.00011	0.00065	3
12059	0.00044	-0.00026	-8e-05	-4e-05	-1e-05	-0.00016	0.00011	0.00065	3
12060	0.00044	-0.00026	-8e-05	-4e-05	-1e-05	-0.00016	0.00011	0.00065	3
12061	0.00044	-0.00026	-8e-05	-4e-05	-1e-05	-0.00016	0.00011	0.00065	3
12062	0.00044	-0.00026	-8e-05	-4e-05	-1e-05	-0.00016	0.00011	0.00065	3
12063	0.00044	-0.00026	-8e-05	-4e-05	-1e-05	-0.00016	0.00011	0.00065	3
12064	0.00019	-0.00013	-6e-05	-7e-05	-8e-05	-0.00028	7e-05	0.00034	3
12065	0.00019	-0.00013	-6e-05	-7e-05	-8e-05	-0.00028	7e-05	0.00034	3
12066	0.00019	-0.00013	-6e-05	-7e-05	-8e-05	-0.00028	7e-05	0.00034	3
12067	0.00019	-0.00013	-6e-05	-7e-05	-8e-05	-0.00028	7e-05	0.00034	3
12068	0.00019	-0.00013	-6e-05	-7e-05	-8e-05	-0.00028	7e-05	0.00034	3
12069	0.00019	-0.00013	-6e-05	-7e-05	-8e-05	-0.00028	7e-05	0.00034	3
12070	0.00019	-0.00013	-6e-05	-7e-05	-8e-05	-0.00028	7e-05	0.00034	3
12071	0.00019	-0.00013	-6e-05	-7e-05	-8e-05	-0.00028	7e-05	0.00034	3
12072	0.00019	-0.00013	-6e-05	-7e-05	-8e-05	-0.00028	7e-05	0.00034	3
12073	0.0008	2e-05	-5e-05	-2e-05	-0.0002	7e-05	-3e-05	-0.00026	3
12074	0.0008	2e-05	-5e-05	-2e-05	-0.0002	7e-05	-3e-05	-0.00026	3
12075	0.0008	2e-05	-5e-05	-2e-05	-0.0002	7e-05	-3e-05	-0.00026	3
12076	0.0008	2e-05	-5e-05	-2e-05	-0.0002	7e-05	-3e-05	-0.00026	3
12077	0.0008	2e-05	-5e-05	-2e-05	-0.0002	7e-05	-3e-05	-0.00026	3
12078	0.0008	2e-05	-5e-05	-2e-05	-0.0002	7e-05	-3e-05	-0.00026	3
12079	0.0008	2e-05	-5e-05	-2e-05	-0.0002	7e-05	-3e-05	-0.00026	3
12080	0.0008	2e-05	-5e-05	-2e-05	-0.0002	7e-05	-3e-05	-0.00026	3
12081	0.0008	2e-05	-5e-05	-2e-05	-0.0002	7e-05	-3e-05	-0.00026	3
12082	0.0008	2e-05	-5e-05	-2e-05	-0.0002	7e-05	-3e-05	-0.00026	3
12083	0.0008	2e-05	-5e-05	-2e-05	-0.0002	7e-05	-3e-05	-0.00026	3
12084	0.0008	2e-05	-5e-05	-2e-05	-0.0002	7e-05	-3e-05	-0.00026	3
12085	0.0008	2e-05	-5e-05	-2e-05	-0.0002	7e-05	-3e-05	-0.00026	3
12086	0.0008	2e-05	-5e-05	-2e-05	-0.0002	7e-05	-3e-05	-0.00026	3
12088	0.0008	2e-05	-5e-05	-2e-05	-0.0002	7e-05	-3e-05	-0.00026	3
12089	0.0008	2e-05	-5e-05	-2e-05	-0.0002	7e-05	-3e-05	-0.00026	3
12090	0.0008	2e-05	-5e-05	-2e-05	-0.0002	7e-05	-3e-05	-0.00026	3
12091	0.0008	2e-05	-5e-05	-2e-05	-0.0002	7e-05	-3e-05	-0.00026	3
12092	0.0008	2e-05	-5e-05	-2e-05	-0.0002	7e-05	-3e-05	-0.00026	3
12093	0.0008	2e-05	-5e-05	-2e-05	-0.0002	7e-05	-3e-05	-0.00026	3
12094	0.0008	2e-05	-5e-05	-2e-05	-0.0002	7e-05	-3e-05	-0.00026	3
12095	-0.00103	0.00014	3e-05	-2e-05	1e-05	-0.00033	0.00061	-0.00032	3
12096	-0.00014	-0.00023	-8e-05	-2e-05	-2e-05	0.00025	-0.00019	7e-05	3
12097	-7e-05	-0.00027	-8e-05	-6e-05	-0.0003	-0.00064	5e-05	-0.00017	3
12098	-7e-05	-0.00027	-8e-05	-6e-05	-0.0003	-0.00064	5e-05	-0.00017	3
12099	-7e-05	-0.00027	-8e-05	-6e-05	-0.0003	-0.00064	5e-05	-0.00017	3
12100	-7e-05	-0.00027	-8e-05	-6e-05	-0.0003	-0.00064	5e-05	-0.00017	3
12101	-7e-05	-0.00027	-8e-05	-6e-05	-0.0003	-0.00064	5e-05	-0.00017	3
12102	-7e-05	-0.00027	-8e-05	-6e-05	-0.0003	-0.00064	5e-05	-0.00017	3
12103	-7e-05	-0.00027	-8e-05	-6e-05	-0.0003	-0.00064	5e-05	-0.00017	3
12104	-7e-05	-0.00027	-8e-05	-6e-05	-0.0003	-0.00064	5e-05	-0.00017	3
12105	-7e-05	-0.00027	-8e-05	-6e-05	-0.0003	-0.00064	5e-05	-0.00017	3
12106	-7e-05	-0.00027	-8e-05	-6e-05	-0.0003	-0.00064	5e-05	-0.00017	3
12107	-7e-05	-0.00027	-8e-05	-6e-05	-0.0003	-0.00064	5e-05	-0.00017	3
12108	-7e-05	-0.00027	-8e-05	-6e-05	-0.0003	-0.00064	5e-05	-0.00017	3
12109	-7e-05	-0.00027	-8e-05	-6e-05	-0.0003	-0.00064	5e-05	-0.00017	3
12110	-0.00048	0.00015	5e-05	2e-05	2e-05	2e-05	0.00043	-0.00073	3
12111	-0.00048	0.00015	5e-05	2e-05	2e-05	2e-05	0.00043	-0.00073	3
12112	0.00084	-3e-05	3e-05	0	-0.00035	1e-05	-0.00034	-0.00049	3
12113	0.00084	-3e-05	3e-05	0	-0.00035	1e-05	-0.00034	-0.00049	3
12114	0.00084	-3e-05	3e-05	0	-0.00035	1e-05	-0.00034	-0.00049	3
12115	0.00084	-3e-05	3e-05	0	-0.00035	1e-05	-0.00034	-0.00049	3
12116	0.00084	-3e-05	3e-05	0	-0.00035	1e-05	-0.00034	-0.00049	3
12117	0.00084	-3e-05	3e-05	0	-0.00035	1e-05	-0.00034	-0.00049	3
12118	0.00084	-3e-05	3e-05	0	-0.00035	1e-05	-0.00034	-0.00049	3
12119	0.00084	-3e-05	3e-05	0	-0.00035	1e-05	-0.00034	-0.00049	3
12120	0.00084	-3e-05	3e-05	0	-0.00035	1e-05	-0.00034	-0.00049	3
12121	0.00084	-3e-05	3e-05	0	-0.00035	1e-05	-0.00034	-0.00049	3
12122	0.00084	-3e-05	3e-05	0	-0.00035	1e-05	-0.00034	-0.00049	3
12123	0.00084	-3e-05	3e-05	0	-0.00035	1e-05	-0.00034	-0.00049	3
12124	-0.00019	4e-05	-1e-05	-1e-05	0.00027	0.00013	0.00015	0.00029	3
12125	-0.00019	4e-05	-1e-05	-1e-05	0.00027	0.00013	0.00015	0.00029	3
12126	-0.00019	4e-05	-1e-05	-1e-05	0.00027	0.00013	0.00015	0.00029	3
12127	-0.00019	4e-05	-1e-05	-1e-05	0.00027	0.00013	0.00015	0.00029	3
12128	-0.00019	4e-05	-1e-05	-1e-05	0.00027	0.00013	0.00015	0.00029	3
12129	-0.00019	4e-05	-1e-05	-1e-05	0.00027	0.00013	0.00015	0.00029	3
12130	-0.00019	4e-05	-1e-05	-1e-05	0.00027	0.00013	0.00015	0.00029	3
12131	-0.00019	4e-05	-1e-05	-1e-05	0.00027	0.00013	0.00015	0.00029	3
12132	-0.00019	4e-05	-1e-05	-1e-05	0.00027	0.00013	0.00015	0.00029	3
12133	0.00015	-0.00018	-2e-05	0	-0.00019	0.00023	0.00019	-5e-05	3
12134	0.00015	-0.00018	-2e-05	0	-0.00019	0.00023	0.00019	-5e-05	3
12135	0.00015	-0.00018	-2e-05	0	-0.00019	0.00023	0.00019	-5e-05	3
12136	0.00015	-0.00018	-2e-05	0	-0.00019	0.00023	0.00019	-5e-05	3
12138	0.00015	-0.00018	-2e-05	0	-0.00019	0.00023	0.00019	-5e-05	3
12139	0.00015	-0.00018	-2e-05	0	-0.00019	0.00023	0.00019	-5e-05	3
12140	0.00015	-0.00018	-2e-05	0	-0.00019	0.00023	0.00019	-5e-05	3
12141	0.00015	-0.00018	-2e-05	0	-0.00019	0.00023	0.00019	-5e-05	3
12142	0.00015	-0.00018	-2e-05	0	-0.00019	0.00023	0.00019	-5e-05	3
12143	0.00015	-0.00018	-2e-05	0	-0.00019	0.00023	0.00019	-5e-05	3
12144	0.00015	-0.00018	-2e-05	0	-0.00019	0.00023	0.00019	-5e-05	3
12145	0.00015	-0.00018	-2e-05	0	-0.00019	0.00023	0.00019	-5e-05	3
12146	0.00015	-0.00018	-2e-05	0	-0.00019	0.00023	0.00019	-5e-05	3
12147	0.00015	-0.00018	-2e-05	0	-0.00019	0.00023	0.00019	-5e-05	3
12148	0	-2e-05	3e-05	3e-05	-5e-05	7e-05	-0.00028	-2e-05	3
12149	0	-2e-05	3e-05	3e-05	-5e-05	7e-05	-0.00028	-2e-05	3
12150	-6e-05	0.00016	-1e-05	0	0.00032	8e-05	-0.00017	-4e-05	3
12151	-6e-05	0.00016	-1e-05	0	0.00032	8e-05	-0.00017	-4e-05	3
12152	-6e-05	0.00016	-1e-05	0	0.00032	8e-05	-0.00017	-4e-05	3
12153	-6e-05	0.00016	-1e-05	0	0.00032	8e-05	-0.00017	-4e-05	3
12154	-6e-05	0.00016	-1e-05	0	0.00032	8e-05	-0.00017	-4e-05	3
12155	-6e-05	0.00016	-1e-05	0	0.00032	8e-05	-0.00017	-4e-05	3
12156	-6e-05	0.00016	-1e-05	0	0.00032	8e-05	-0.00017	-4e-05	3
12157	-6e-05	0.00016	-1e-05	0	0.00032	8e-05	-0.00017	-4e-05	3
12158	-6e-05	0.00016	-1e-05	0	0.00032	8e-05	-0.00017	-4e-05	3
12159	-6e-05	0.00016	-1e-05	0	0.00032	8e-05	-0.00017	-4e-05	3
12160	-6e-05	0.00016	-1e-05	0	0.00032	8e-05	-0.00017	-4e-05	3
12161	-6e-05	0.00016	-1e-05	0	0.00032	8e-05	-0.00017	-4e-05	3
12162	-6e-05	0.00016	-1e-05	0	0.00032	8e-05	-0.00017	-4e-05	3
12163	-6e-05	0.00016	-1e-05	0	0.00032	8e-05	-0.00017	-4e-05	3
12164	-6e-05	0.00016	-1e-05	0	0.00032	8e-05	-0.00017	-4e-05	3
12165	-6e-05	0.00016	-1e-05	0	0.00032	8e-05	-0.00017	-4e-05	3
12166	-6e-05	0.00016	-1e-05	0	0.00032	8e-05	-0.00017	-4e-05	3
12167	-6e-05	0.00016	-1e-05	0	0.00032	8e-05	-0.00017	-4e-05	3
12168	-6e-05	0.00016	-1e-05	0	0.00032	8e-05	-0.00017	-4e-05	3
12169	-6e-05	0.00016	-1e-05	0	0.00032	8e-05	-0.00017	-4e-05	3
12170	-6e-05	0.00016	-1e-05	0	0.00032	8e-05	-0.00017	-4e-05	3
12171	-6e-05	0.00016	-1e-05	0	0.00032	8e-05	-0.00017	-4e-05	3
12172	-6e-05	0.00016	-1e-05	0	0.00032	8e-05	-0.00017	-4e-05	3
12173	-6e-05	0.00016	-1e-05	0	0.00032	8e-05	-0.00017	-4e-05	3
12174	-6e-05	0.00016	-1e-05	0	0.00032	8e-05	-0.00017	-4e-05	3
12175	-6e-05	0.00016	-1e-05	0	0.00032	8e-05	-0.00017	-4e-05	3
12176	-6e-05	0.00016	-1e-05	0	0.00032	8e-05	-0.00017	-4e-05	3
12177	-6e-05	0.00016	-1e-05	0	0.00032	8e-05	-0.00017	-4e-05	3
12178	-2e-05	-0.00012	-3e-05	-3e-05	-1e-05	-0.0002	-1e-05	0.00047	3
12179	0.00012	1e-05	7e-05	6e-05	-0.00019	2e-05	-0.00015	0.0003	3
12180	0.00012	1e-05	7e-05	6e-05	-0.00019	2e-05	-0.00015	0.0003	3
12181	0.00012	1e-05	7e-05	6e-05	-0.00019	2e-05	-0.00015	0.0003	3
12182	0.00012	1e-05	7e-05	6e-05	-0.00019	2e-05	-0.00015	0.0003	3
12183	0.00012	1e-05	7e-05	6e-05	-0.00019	2e-05	-0.00015	0.0003	3
12184	0.00079	-1e-05	-1e-05	1e-05	1e-05	0.00011	0.00026	3e-05	3
12185	0.00079	-1e-05	-1e-05	1e-05	1e-05	0.00011	0.00026	3e-05	3
12186	0.00079	-1e-05	-1e-05	1e-05	1e-05	0.00011	0.00026	3e-05	3
12188	0.00079	-1e-05	-1e-05	1e-05	1e-05	0.00011	0.00026	3e-05	3
12189	0.00079	-1e-05	-1e-05	1e-05	1e-05	0.00011	0.00026	3e-05	3
12190	0.00079	-1e-05	-1e-05	1e-05	1e-05	0.00011	0.00026	3e-05	3
12191	0.00079	-1e-05	-1e-05	1e-05	1e-05	0.00011	0.00026	3e-05	3
12192	0.00079	-1e-05	-1e-05	1e-05	1e-05	0.00011	0.00026	3e-05	3
12193	-0.0006	-4e-05	-4e-05	-4e-05	-9e-05	-0.00025	0.00014	0.00013	3
12194	-0.0006	-4e-05	-4e-05	-4e-05	-9e-05	-0.00025	0.00014	0.00013	3
12195	-0.0006	-4e-05	-4e-05	-4e-05	-9e-05	-0.00025	0.00014	0.00013	3
12196	-0.0006	-4e-05	-4e-05	-4e-05	-9e-05	-0.00025	0.00014	0.00013	3
12197	-0.0006	-4e-05	-4e-05	-4e-05	-9e-05	-0.00025	0.00014	0.00013	3
12198	-0.0006	-4e-05	-4e-05	-4e-05	-9e-05	-0.00025	0.00014	0.00013	3
12199	-0.0006	-4e-05	-4e-05	-4e-05	-9e-05	-0.00025	0.00014	0.00013	3
12200	-0.0006	-4e-05	-4e-05	-4e-05	-9e-05	-0.00025	0.00014	0.00013	3
12201	-0.0006	-4e-05	-4e-05	-4e-05	-9e-05	-0.00025	0.00014	0.00013	3
12202	-0.0006	-4e-05	-4e-05	-4e-05	-9e-05	-0.00025	0.00014	0.00013	3
12203	-0.0006	-4e-05	-4e-05	-4e-05	-9e-05	-0.00025	0.00014	0.00013	3
12204	-0.0006	-4e-05	-4e-05	-4e-05	-9e-05	-0.00025	0.00014	0.00013	3
12205	-0.0006	-4e-05	-4e-05	-4e-05	-9e-05	-0.00025	0.00014	0.00013	3
12206	-0.0006	-4e-05	-4e-05	-4e-05	-9e-05	-0.00025	0.00014	0.00013	3
12207	-0.0006	-4e-05	-4e-05	-4e-05	-9e-05	-0.00025	0.00014	0.00013	3
12208	-0.00055	0.00014	1e-05	2e-05	2e-05	-0.00014	0.00018	-0.00021	3
12209	0.00018	0.00021	1e-05	1e-05	0.00036	-0.00024	0.00013	6e-05	3
12210	0.00018	0.00021	1e-05	1e-05	0.00036	-0.00024	0.00013	6e-05	3
12211	0.00018	0.00021	1e-05	1e-05	0.00036	-0.00024	0.00013	6e-05	3
12212	0.00018	0.00021	1e-05	1e-05	0.00036	-0.00024	0.00013	6e-05	3
12213	0.00018	0.00021	1e-05	1e-05	0.00036	-0.00024	0.00013	6e-05	3
12214	0.00018	0.00021	1e-05	1e-05	0.00036	-0.00024	0.00013	6e-05	3
12215	0.00018	0.00021	1e-05	1e-05	0.00036	-0.00024	0.00013	6e-05	3
12216	0.00018	0.00021	1e-05	1e-05	0.00036	-0.00024	0.00013	6e-05	3
12217	0.00018	0.00021	1e-05	1e-05	0.00036	-0.00024	0.00013	6e-05	3
12218	0.00018	0.00021	1e-05	1e-05	0.00036	-0.00024	0.00013	6e-05	3
12219	0.00018	0.00021	1e-05	1e-05	0.00036	-0.00024	0.00013	6e-05	3
12220	0.00018	0.00021	1e-05	1e-05	0.00036	-0.00024	0.00013	6e-05	3
12221	0.00018	0.00021	1e-05	1e-05	0.00036	-0.00024	0.00013	6e-05	3
12222	0.00018	0.00021	1e-05	1e-05	0.00036	-0.00024	0.00013	6e-05	3
12223	0.00018	0.00021	1e-05	1e-05	0.00036	-0.00024	0.00013	6e-05	3
12224	0.00018	0.00021	1e-05	1e-05	0.00036	-0.00024	0.00013	6e-05	3
12225	0.00018	0.00021	1e-05	1e-05	0.00036	-0.00024	0.00013	6e-05	3
12226	0.00018	0.00021	1e-05	1e-05	0.00036	-0.00024	0.00013	6e-05	3
12227	0.00018	0.00021	1e-05	1e-05	0.00036	-0.00024	0.00013	6e-05	3
12228	0.00018	0.00021	1e-05	1e-05	0.00036	-0.00024	0.00013	6e-05	3
12229	0.00018	0.00021	1e-05	1e-05	0.00036	-0.00024	0.00013	6e-05	3
12230	0.00018	0.00021	1e-05	1e-05	0.00036	-0.00024	0.00013	6e-05	3
12231	-3e-05	0.00011	-1e-05	-2e-05	-7e-05	0.0002	-0.00018	-0.00017	3
12232	0.00018	4e-05	5e-05	1e-05	-0.0001	0	-0.0002	-0.00019	3
12233	0.00018	4e-05	5e-05	1e-05	-0.0001	0	-0.0002	-0.00019	3
12234	0.00018	4e-05	5e-05	1e-05	-0.0001	0	-0.0002	-0.00019	3
12235	0.00018	4e-05	5e-05	1e-05	-0.0001	0	-0.0002	-0.00019	3
12236	0.00018	4e-05	5e-05	1e-05	-0.0001	0	-0.0002	-0.00019	3
12238	0.00018	4e-05	5e-05	1e-05	-0.0001	0	-0.0002	-0.00019	3
12239	0.00018	4e-05	5e-05	1e-05	-0.0001	0	-0.0002	-0.00019	3
12240	0.00018	4e-05	5e-05	1e-05	-0.0001	0	-0.0002	-0.00019	3
12241	0.00018	4e-05	5e-05	1e-05	-0.0001	0	-0.0002	-0.00019	3
12242	0.00018	4e-05	5e-05	1e-05	-0.0001	0	-0.0002	-0.00019	3
12243	0.00018	4e-05	5e-05	1e-05	-0.0001	0	-0.0002	-0.00019	3
12244	-0.00048	-0.00038	-8e-05	-4e-05	5e-05	7e-05	0.00034	-0.00012	3
12245	-0.00048	-0.00038	-8e-05	-4e-05	5e-05	7e-05	0.00034	-0.00012	3
12246	-0.00048	-0.00038	-8e-05	-4e-05	5e-05	7e-05	0.00034	-0.00012	3
12247	-0.00048	-0.00038	-8e-05	-4e-05	5e-05	7e-05	0.00034	-0.00012	3
12248	-0.00048	-0.00038	-8e-05	-4e-05	5e-05	7e-05	0.00034	-0.00012	3
12249	-0.00048	-0.00038	-8e-05	-4e-05	5e-05	7e-05	0.00034	-0.00012	3
12250	-0.00048	-0.00038	-8e-05	-4e-05	5e-05	7e-05	0.00034	-0.00012	3
12251	-0.00048	-0.00038	-8e-05	-4e-05	5e-05	7e-05	0.00034	-0.00012	3
12252	-0.00048	-0.00038	-8e-05	-4e-05	5e-05	7e-05	0.00034	-0.00012	3
12253	-0.00048	-0.00038	-8e-05	-4e-05	5e-05	7e-05	0.00034	-0.00012	3
12254	-0.00048	-0.00038	-8e-05	-4e-05	5e-05	7e-05	0.00034	-0.00012	3
12255	-0.00048	-0.00038	-8e-05	-4e-05	5e-05	7e-05	0.00034	-0.00012	3
12256	-0.00048	-0.00038	-8e-05	-4e-05	5e-05	7e-05	0.00034	-0.00012	3
12257	-0.00048	-0.00038	-8e-05	-4e-05	5e-05	7e-05	0.00034	-0.00012	3
12258	-0.00048	-0.00038	-8e-05	-4e-05	5e-05	7e-05	0.00034	-0.00012	3
12259	-0.00048	-0.00038	-8e-05	-4e-05	5e-05	7e-05	0.00034	-0.00012	3
12260	-3e-05	-7e-05	-2e-05	-3e-05	-0.00028	-2e-05	0.00034	0.00011	3
12261	-3e-05	-7e-05	-2e-05	-3e-05	-0.00028	-2e-05	0.00034	0.00011	3
12262	-3e-05	-7e-05	-2e-05	-3e-05	-0.00028	-2e-05	0.00034	0.00011	3
12263	-3e-05	-7e-05	-2e-05	-3e-05	-0.00028	-2e-05	0.00034	0.00011	3
12264	-3e-05	-7e-05	-2e-05	-3e-05	-0.00028	-2e-05	0.00034	0.00011	3
12265	-3e-05	-7e-05	-2e-05	-3e-05	-0.00028	-2e-05	0.00034	0.00011	3
12266	-3e-05	-7e-05	-2e-05	-3e-05	-0.00028	-2e-05	0.00034	0.00011	3
12267	-3e-05	-7e-05	-2e-05	-3e-05	-0.00028	-2e-05	0.00034	0.00011	3
12268	0.00035	0.0004	3e-05	-2e-05	-0.00014	-0.0001	-0.00016	-3e-05	3
12269	0.00035	0.0004	3e-05	-2e-05	-0.00014	-0.0001	-0.00016	-3e-05	3
12270	-7e-05	3e-05	-1e-05	0	-3e-05	0.00014	0.00034	-0.00016	3
12271	-7e-05	3e-05	-1e-05	0	-3e-05	0.00014	0.00034	-0.00016	3
12272	-7e-05	3e-05	-1e-05	0	-3e-05	0.00014	0.00034	-0.00016	3
12273	-7e-05	3e-05	-1e-05	0	-3e-05	0.00014	0.00034	-0.00016	3
12274	-7e-05	3e-05	-1e-05	0	-3e-05	0.00014	0.00034	-0.00016	3
12275	-7e-05	3e-05	-1e-05	0	-3e-05	0.00014	0.00034	-0.00016	3
12276	-7e-05	3e-05	-1e-05	0	-3e-05	0.00014	0.00034	-0.00016	3
12277	-7e-05	3e-05	-1e-05	0	-3e-05	0.00014	0.00034	-0.00016	3
12278	-7e-05	3e-05	-1e-05	0	-3e-05	0.00014	0.00034	-0.00016	3
12279	-7e-05	3e-05	-1e-05	0	-3e-05	0.00014	0.00034	-0.00016	3
12280	-7e-05	3e-05	-1e-05	0	-3e-05	0.00014	0.00034	-0.00016	3
12281	-7e-05	3e-05	-1e-05	0	-3e-05	0.00014	0.00034	-0.00016	3
12282	-7e-05	3e-05	-1e-05	0	-3e-05	0.00014	0.00034	-0.00016	3
12283	-7e-05	3e-05	-1e-05	0	-3e-05	0.00014	0.00034	-0.00016	3
12284	-7e-05	3e-05	-1e-05	0	-3e-05	0.00014	0.00034	-0.00016	3
12285	-7e-05	3e-05	-1e-05	0	-3e-05	0.00014	0.00034	-0.00016	3
12286	-7e-05	3e-05	-1e-05	0	-3e-05	0.00014	0.00034	-0.00016	3
12288	-7e-05	3e-05	-1e-05	0	-3e-05	0.00014	0.00034	-0.00016	3
12289	-7e-05	3e-05	-1e-05	0	-3e-05	0.00014	0.00034	-0.00016	3
12290	-7e-05	3e-05	-1e-05	0	-3e-05	0.00014	0.00034	-0.00016	3
12291	-0.00022	2e-05	-3e-05	-3e-05	3e-05	-0.0005	-0.00022	0.00019	3
12292	0.00047	-0.00018	-9e-05	-6e-05	-3e-05	0.00039	-0.00017	4e-05	3
12293	0.00047	-0.00018	-9e-05	-6e-05	-3e-05	0.00039	-0.00017	4e-05	3
12294	0.00047	-0.00018	-9e-05	-6e-05	-3e-05	0.00039	-0.00017	4e-05	3
12295	0.00047	-0.00018	-9e-05	-6e-05	-3e-05	0.00039	-0.00017	4e-05	3
12296	0.00047	-0.00018	-9e-05	-6e-05	-3e-05	0.00039	-0.00017	4e-05	3
12297	0.00047	-0.00018	-9e-05	-6e-05	-3e-05	0.00039	-0.00017	4e-05	3
12298	0.00047	-0.00018	-9e-05	-6e-05	-3e-05	0.00039	-0.00017	4e-05	3
12299	0.00047	-0.00018	-9e-05	-6e-05	-3e-05	0.00039	-0.00017	4e-05	3
12300	0.00047	-0.00018	-9e-05	-6e-05	-3e-05	0.00039	-0.00017	4e-05	3
12301	0.00047	-0.00018	-9e-05	-6e-05	-3e-05	0.00039	-0.00017	4e-05	3
12302	0.00047	-0.00018	-9e-05	-6e-05	-3e-05	0.00039	-0.00017	4e-05	3
12303	0.00047	-0.00018	-9e-05	-6e-05	-3e-05	0.00039	-0.00017	4e-05	3
12304	0.00047	-0.00018	-9e-05	-6e-05	-3e-05	0.00039	-0.00017	4e-05	3
12305	0.00047	-0.00018	-9e-05	-6e-05	-3e-05	0.00039	-0.00017	4e-05	3
12306	0.00047	-0.00018	-9e-05	-6e-05	-3e-05	0.00039	-0.00017	4e-05	3
12307	0.00047	-0.00018	-9e-05	-6e-05	-3e-05	0.00039	-0.00017	4e-05	3
12308	0.00047	-0.00018	-9e-05	-6e-05	-3e-05	0.00039	-0.00017	4e-05	3
12309	0.00047	-0.00018	-9e-05	-6e-05	-3e-05	0.00039	-0.00017	4e-05	3
12310	0.00047	-0.00018	-9e-05	-6e-05	-3e-05	0.00039	-0.00017	4e-05	3
12311	0.00047	-0.00018	-9e-05	-6e-05	-3e-05	0.00039	-0.00017	4e-05	3
12312	0.00047	-0.00018	-9e-05	-6e-05	-3e-05	0.00039	-0.00017	4e-05	3
12313	4e-05	-1e-05	2e-05	1e-05	0.00041	-2e-05	-0.00024	0	3
12314	-6e-05	0.00017	4e-05	2e-05	6e-05	-7e-05	-3e-05	0.00012	3
12315	-6e-05	0.00017	4e-05	2e-05	6e-05	-7e-05	-3e-05	0.00012	3
12316	-6e-05	0.00017	4e-05	2e-05	6e-05	-7e-05	-3e-05	0.00012	3
12317	-6e-05	0.00017	4e-05	2e-05	6e-05	-7e-05	-3e-05	0.00012	3
12318	-6e-05	0.00017	4e-05	2e-05	6e-05	-7e-05	-3e-05	0.00012	3
12319	-6e-05	0.00017	4e-05	2e-05	6e-05	-7e-05	-3e-05	0.00012	3
12320	-6e-05	0.00017	4e-05	2e-05	6e-05	-7e-05	-3e-05	0.00012	3
12321	-6e-05	0.00017	4e-05	2e-05	6e-05	-7e-05	-3e-05	0.00012	3
12322	-6e-05	0.00017	4e-05	2e-05	6e-05	-7e-05	-3e-05	0.00012	3
12323	-6e-05	0.00017	4e-05	2e-05	6e-05	-7e-05	-3e-05	0.00012	3
12324	-6e-05	0.00017	4e-05	2e-05	6e-05	-7e-05	-3e-05	0.00012	3
12325	-6e-05	0.00017	4e-05	2e-05	6e-05	-7e-05	-3e-05	0.00012	3
12326	-6e-05	0.00017	4e-05	2e-05	6e-05	-7e-05	-3e-05	0.00012	3
12327	-6e-05	0.00017	4e-05	2e-05	6e-05	-7e-05	-3e-05	0.00012	3
12328	0.00045	0.00013	-2e-05	-6e-05	-0.00026	0	-0.00038	-0.0006	3
12329	-5e-05	0.0002	0	-1e-05	-6e-05	-7e-05	-0.00016	0.00034	3
12330	-5e-05	0.0002	0	-1e-05	-6e-05	-7e-05	-0.00016	0.00034	3
12331	-5e-05	0.0002	0	-1e-05	-6e-05	-7e-05	-0.00016	0.00034	3
12332	-5e-05	0.0002	0	-1e-05	-6e-05	-7e-05	-0.00016	0.00034	3
12333	-5e-05	0.0002	0	-1e-05	-6e-05	-7e-05	-0.00016	0.00034	3
12334	-5e-05	0.0002	0	-1e-05	-6e-05	-7e-05	-0.00016	0.00034	3
12335	-5e-05	0.0002	0	-1e-05	-6e-05	-7e-05	-0.00016	0.00034	3
12336	-5e-05	0.0002	0	-1e-05	-6e-05	-7e-05	-0.00016	0.00034	3
12338	-5e-05	0.0002	0	-1e-05	-6e-05	-7e-05	-0.00016	0.00034	3
12339	-5e-05	0.0002	0	-1e-05	-6e-05	-7e-05	-0.00016	0.00034	3
12340	-5e-05	0.0002	0	-1e-05	-6e-05	-7e-05	-0.00016	0.00034	3
12341	-5e-05	0.0002	0	-1e-05	-6e-05	-7e-05	-0.00016	0.00034	3
12342	-5e-05	0.0002	0	-1e-05	-6e-05	-7e-05	-0.00016	0.00034	3
12343	-5e-05	0.0002	0	-1e-05	-6e-05	-7e-05	-0.00016	0.00034	3
12344	-5e-05	0.0002	0	-1e-05	-6e-05	-7e-05	-0.00016	0.00034	3
12345	-5e-05	0.0002	0	-1e-05	-6e-05	-7e-05	-0.00016	0.00034	3
12346	-5e-05	0.0002	0	-1e-05	-6e-05	-7e-05	-0.00016	0.00034	3
12347	-5e-05	0.0002	0	-1e-05	-6e-05	-7e-05	-0.00016	0.00034	3
12348	-5e-05	0.0002	0	-1e-05	-6e-05	-7e-05	-0.00016	0.00034	3
12349	-5e-05	0.0002	0	-1e-05	-6e-05	-7e-05	-0.00016	0.00034	3
12350	0.00035	0.00018	5e-05	4e-05	0.00021	1e-05	8e-05	0	3
12351	0.00035	0.00018	5e-05	4e-05	0.00021	1e-05	8e-05	0	3
12352	0.00035	0.00018	5e-05	4e-05	0.00021	1e-05	8e-05	0	3
12353	0.00035	0.00018	5e-05	4e-05	0.00021	1e-05	8e-05	0	3
12354	0.00035	0.00018	5e-05	4e-05	0.00021	1e-05	8e-05	0	3
12355	0.00035	0.00018	5e-05	4e-05	0.00021	1e-05	8e-05	0	3
12356	0.00035	0.00018	5e-05	4e-05	0.00021	1e-05	8e-05	0	3
12357	0.00035	0.00018	5e-05	4e-05	0.00021	1e-05	8e-05	0	3
12358	0.00035	0.00018	5e-05	4e-05	0.00021	1e-05	8e-05	0	3
12359	0.00035	0.00018	5e-05	4e-05	0.00021	1e-05	8e-05	0	3
12360	0.00035	0.00018	5e-05	4e-05	0.00021	1e-05	8e-05	0	3
12361	0.00035	0.00018	5e-05	4e-05	0.00021	1e-05	8e-05	0	3
12362	0.00035	0.00018	5e-05	4e-05	0.00021	1e-05	8e-05	0	3
12363	0.00035	0.00018	5e-05	4e-05	0.00021	1e-05	8e-05	0	3
12364	0.00035	0.00018	5e-05	4e-05	0.00021	1e-05	8e-05	0	3
12365	0.00035	0.00018	5e-05	4e-05	0.00021	1e-05	8e-05	0	3
12366	0.00035	0.00018	5e-05	4e-05	0.00021	1e-05	8e-05	0	3
12367	0.00035	0.00018	5e-05	4e-05	0.00021	1e-05	8e-05	0	3
12368	0.00035	0.00018	5e-05	4e-05	0.00021	1e-05	8e-05	0	3
12369	0.00035	0.00018	5e-05	4e-05	0.00021	1e-05	8e-05	0	3
12370	0.00035	0.00018	5e-05	4e-05	0.00021	1e-05	8e-05	0	3
12371	0.00035	0.00018	5e-05	4e-05	0.00021	1e-05	8e-05	0	3
12372	-4e-05	0.00037	5e-05	1e-05	0.00025	0.00033	0	0.00018	3
12373	-0.0003	2e-05	-2e-05	-1e-05	-7e-05	-0.00022	7e-05	-0.00089	3
12374	-0.0003	2e-05	-2e-05	-1e-05	-7e-05	-0.00022	7e-05	-0.00089	3
12375	-0.0003	2e-05	-2e-05	-1e-05	-7e-05	-0.00022	7e-05	-0.00089	3
12376	-0.0003	2e-05	-2e-05	-1e-05	-7e-05	-0.00022	7e-05	-0.00089	3
12377	-0.0003	2e-05	-2e-05	-1e-05	-7e-05	-0.00022	7e-05	-0.00089	3
12378	-0.0003	2e-05	-2e-05	-1e-05	-7e-05	-0.00022	7e-05	-0.00089	3
12379	-0.0003	2e-05	-2e-05	-1e-05	-7e-05	-0.00022	7e-05	-0.00089	3
12380	-0.0003	2e-05	-2e-05	-1e-05	-7e-05	-0.00022	7e-05	-0.00089	3
12381	-0.0003	2e-05	-2e-05	-1e-05	-7e-05	-0.00022	7e-05	-0.00089	3
12382	-0.0003	2e-05	-2e-05	-1e-05	-7e-05	-0.00022	7e-05	-0.00089	3
12383	-0.0003	2e-05	-2e-05	-1e-05	-7e-05	-0.00022	7e-05	-0.00089	3
12384	-0.0003	2e-05	-2e-05	-1e-05	-7e-05	-0.00022	7e-05	-0.00089	3
12385	-0.0003	2e-05	-2e-05	-1e-05	-7e-05	-0.00022	7e-05	-0.00089	3
12386	-0.0003	2e-05	-2e-05	-1e-05	-7e-05	-0.00022	7e-05	-0.00089	3
12388	-0.0003	2e-05	-2e-05	-1e-05	-7e-05	-0.00022	7e-05	-0.00089	3
12389	0.00043	0.00013	1e-05	0	3e-05	-6e-05	0.00015	0.00015	3
12390	0.00043	0.00013	1e-05	0	3e-05	-6e-05	0.00015	0.00015	3
12391	0.00043	0.00013	1e-05	0	3e-05	-6e-05	0.00015	0.00015	3
12392	0.00043	0.00013	1e-05	0	3e-05	-6e-05	0.00015	0.00015	3
12393	0.00043	0.00013	1e-05	0	3e-05	-6e-05	0.00015	0.00015	3
12394	0.00043	0.00013	1e-05	0	3e-05	-6e-05	0.00015	0.00015	3
12395	0.00043	0.00013	1e-05	0	3e-05	-6e-05	0.00015	0.00015	3
12396	0.00043	0.00013	1e-05	0	3e-05	-6e-05	0.00015	0.00015	3
12397	0.00043	0.00013	1e-05	0	3e-05	-6e-05	0.00015	0.00015	3
12398	0.00043	0.00013	1e-05	0	3e-05	-6e-05	0.00015	0.00015	3
12399	0.00043	0.00013	1e-05	0	3e-05	-6e-05	0.00015	0.00015	3
12400	0.00043	0.00013	1e-05	0	3e-05	-6e-05	0.00015	0.00015	3
12401	0.00043	0.00013	1e-05	0	3e-05	-6e-05	0.00015	0.00015	3
12402	0.00043	0.00013	1e-05	0	3e-05	-6e-05	0.00015	0.00015	3
12403	0.00043	0.00013	1e-05	0	3e-05	-6e-05	0.00015	0.00015	3
12404	0.00043	0.00013	1e-05	0	3e-05	-6e-05	0.00015	0.00015	3
12405	0.00043	0.00013	1e-05	0	3e-05	-6e-05	0.00015	0.00015	3
12406	0.00043	0.00013	1e-05	0	3e-05	-6e-05	0.00015	0.00015	3
12407	0.00043	0.00013	1e-05	0	3e-05	-6e-05	0.00015	0.00015	3
12408	0.00043	0.00013	1e-05	0	3e-05	-6e-05	0.00015	0.00015	3
12409	0.00043	0.00013	1e-05	0	3e-05	-6e-05	0.00015	0.00015	3
12410	-0.00016	6e-05	4e-05	4e-05	0.00033	8e-05	-0.00039	-4e-05	3
12411	-0.00016	6e-05	4e-05	4e-05	0.00033	8e-05	-0.00039	-4e-05	3
12412	-0.00016	6e-05	4e-05	4e-05	0.00033	8e-05	-0.00039	-4e-05	3
12413	-0.00016	6e-05	4e-05	4e-05	0.00033	8e-05	-0.00039	-4e-05	3
12414	-0.00016	6e-05	4e-05	4e-05	0.00033	8e-05	-0.00039	-4e-05	3
12415	-0.00016	6e-05	4e-05	4e-05	0.00033	8e-05	-0.00039	-4e-05	3
12416	-0.00016	6e-05	4e-05	4e-05	0.00033	8e-05	-0.00039	-4e-05	3
12417	-0.00016	6e-05	4e-05	4e-05	0.00033	8e-05	-0.00039	-4e-05	3
12418	-0.00016	6e-05	4e-05	4e-05	0.00033	8e-05	-0.00039	-4e-05	3
12419	-0.00016	6e-05	4e-05	4e-05	0.00033	8e-05	-0.00039	-4e-05	3
12420	-0.00016	6e-05	4e-05	4e-05	0.00033	8e-05	-0.00039	-4e-05	3
12421	-0.00016	6e-05	4e-05	4e-05	0.00033	8e-05	-0.00039	-4e-05	3
12422	-0.00016	6e-05	4e-05	4e-05	0.00033	8e-05	-0.00039	-4e-05	3
12423	-0.00016	6e-05	4e-05	4e-05	0.00033	8e-05	-0.00039	-4e-05	3
12424	-0.00016	6e-05	4e-05	4e-05	0.00033	8e-05	-0.00039	-4e-05	3
12425	-0.00016	6e-05	4e-05	4e-05	0.00033	8e-05	-0.00039	-4e-05	3
12426	-0.00016	6e-05	4e-05	4e-05	0.00033	8e-05	-0.00039	-4e-05	3
12427	-0.00016	6e-05	4e-05	4e-05	0.00033	8e-05	-0.00039	-4e-05	3
12428	-0.00016	6e-05	4e-05	4e-05	0.00033	8e-05	-0.00039	-4e-05	3
12429	-0.00016	6e-05	4e-05	4e-05	0.00033	8e-05	-0.00039	-4e-05	3
12430	-0.00016	6e-05	4e-05	4e-05	0.00033	8e-05	-0.00039	-4e-05	3
12431	-0.00016	6e-05	4e-05	4e-05	0.00033	8e-05	-0.00039	-4e-05	3
12432	-0.00028	-0.00044	-4e-05	4e-05	0.0001	0.00019	0.00013	5e-05	3
12433	-0.00032	-0.00011	-2e-05	-3e-05	-0.00013	0.00015	0.00016	7e-05	3
12434	-0.00032	-0.00011	-2e-05	-3e-05	-0.00013	0.00015	0.00016	7e-05	3
12435	-0.00032	-0.00011	-2e-05	-3e-05	-0.00013	0.00015	0.00016	7e-05	3
12436	-0.00032	-0.00011	-2e-05	-3e-05	-0.00013	0.00015	0.00016	7e-05	3
12438	-0.00032	-0.00011	-2e-05	-3e-05	-0.00013	0.00015	0.00016	7e-05	3
12439	-0.00032	-0.00011	-2e-05	-3e-05	-0.00013	0.00015	0.00016	7e-05	3
12440	-0.00032	-0.00011	-2e-05	-3e-05	-0.00013	0.00015	0.00016	7e-05	3
12441	-0.00032	-0.00011	-2e-05	-3e-05	-0.00013	0.00015	0.00016	7e-05	3
12442	-0.00032	-0.00011	-2e-05	-3e-05	-0.00013	0.00015	0.00016	7e-05	3
12443	-0.00032	-0.00011	-2e-05	-3e-05	-0.00013	0.00015	0.00016	7e-05	3
12444	-0.00032	-0.00011	-2e-05	-3e-05	-0.00013	0.00015	0.00016	7e-05	3
12445	-0.00032	-0.00011	-2e-05	-3e-05	-0.00013	0.00015	0.00016	7e-05	3
12446	-0.00032	-0.00011	-2e-05	-3e-05	-0.00013	0.00015	0.00016	7e-05	3
12447	-0.00032	-0.00011	-2e-05	-3e-05	-0.00013	0.00015	0.00016	7e-05	3
12448	-0.00032	-0.00011	-2e-05	-3e-05	-0.00013	0.00015	0.00016	7e-05	3
12449	-0.00032	-0.00011	-2e-05	-3e-05	-0.00013	0.00015	0.00016	7e-05	3
12450	-0.00032	-0.00011	-2e-05	-3e-05	-0.00013	0.00015	0.00016	7e-05	3
12451	-0.00032	-0.00011	-2e-05	-3e-05	-0.00013	0.00015	0.00016	7e-05	3
12452	-0.00032	-0.00011	-2e-05	-3e-05	-0.00013	0.00015	0.00016	7e-05	3
12453	-0.00032	-0.00011	-2e-05	-3e-05	-0.00013	0.00015	0.00016	7e-05	3
12454	-0.00032	-0.00011	-2e-05	-3e-05	-0.00013	0.00015	0.00016	7e-05	3
12455	0.00031	0.00041	7e-05	1e-05	-0.00012	-7e-05	0.00021	-0.00037	3
12456	-0.0007	-0.00034	-8e-05	-7e-05	-0.00045	-0.00012	-0.00026	3e-05	3
12457	-0.0007	-0.00034	-8e-05	-7e-05	-0.00045	-0.00012	-0.00026	3e-05	3
12458	-0.0007	-0.00034	-8e-05	-7e-05	-0.00045	-0.00012	-0.00026	3e-05	3
12459	-0.0007	-0.00034	-8e-05	-7e-05	-0.00045	-0.00012	-0.00026	3e-05	3
12460	-0.0007	-0.00034	-8e-05	-7e-05	-0.00045	-0.00012	-0.00026	3e-05	3
12461	-0.0007	-0.00034	-8e-05	-7e-05	-0.00045	-0.00012	-0.00026	3e-05	3
12462	-0.0007	-0.00034	-8e-05	-7e-05	-0.00045	-0.00012	-0.00026	3e-05	3
12463	-0.0007	-0.00034	-8e-05	-7e-05	-0.00045	-0.00012	-0.00026	3e-05	3
12464	-0.0007	-0.00034	-8e-05	-7e-05	-0.00045	-0.00012	-0.00026	3e-05	3
12465	-0.0007	-0.00034	-8e-05	-7e-05	-0.00045	-0.00012	-0.00026	3e-05	3
12466	-0.0007	-0.00034	-8e-05	-7e-05	-0.00045	-0.00012	-0.00026	3e-05	3
12467	-0.0007	-0.00034	-8e-05	-7e-05	-0.00045	-0.00012	-0.00026	3e-05	3
12468	-0.0007	-0.00034	-8e-05	-7e-05	-0.00045	-0.00012	-0.00026	3e-05	3
12469	-0.0007	-0.00034	-8e-05	-7e-05	-0.00045	-0.00012	-0.00026	3e-05	3
12470	-0.00018	-0.00026	-4e-05	0	-8e-05	0	0.00025	0	3
12471	0.00034	0	-2e-05	0	0.00069	0.0002	-0.00015	6e-05	3
12472	0.00034	0	-2e-05	0	0.00069	0.0002	-0.00015	6e-05	3
12473	0.00034	0	-2e-05	0	0.00069	0.0002	-0.00015	6e-05	3
12474	0.00034	0	-2e-05	0	0.00069	0.0002	-0.00015	6e-05	3
12475	0.00034	0	-2e-05	0	0.00069	0.0002	-0.00015	6e-05	3
12476	0.00034	0	-2e-05	0	0.00069	0.0002	-0.00015	6e-05	3
12477	0.00034	0	-2e-05	0	0.00069	0.0002	-0.00015	6e-05	3
12478	0.00034	0	-2e-05	0	0.00069	0.0002	-0.00015	6e-05	3
12479	0.00034	0	-2e-05	0	0.00069	0.0002	-0.00015	6e-05	3
12480	0.00034	0	-2e-05	0	0.00069	0.0002	-0.00015	6e-05	3
12481	0.00034	0	-2e-05	0	0.00069	0.0002	-0.00015	6e-05	3
12482	0.00034	0	-2e-05	0	0.00069	0.0002	-0.00015	6e-05	3
12483	0.00034	0	-2e-05	0	0.00069	0.0002	-0.00015	6e-05	3
12484	0.00034	0	-2e-05	0	0.00069	0.0002	-0.00015	6e-05	3
12485	0.00034	0	-2e-05	0	0.00069	0.0002	-0.00015	6e-05	3
12486	0.00034	0	-2e-05	0	0.00069	0.0002	-0.00015	6e-05	3
12488	0.00034	0	-2e-05	0	0.00069	0.0002	-0.00015	6e-05	3
12489	0.00034	0	-2e-05	0	0.00069	0.0002	-0.00015	6e-05	3
12490	0.00034	0	-2e-05	0	0.00069	0.0002	-0.00015	6e-05	3
12491	0.00034	0	-2e-05	0	0.00069	0.0002	-0.00015	6e-05	3
12492	-0.00029	8e-05	-4e-05	-4e-05	7e-05	0.00018	9e-05	-3e-05	3
12493	-0.00029	8e-05	-4e-05	-4e-05	7e-05	0.00018	9e-05	-3e-05	3
12494	-0.00029	8e-05	-4e-05	-4e-05	7e-05	0.00018	9e-05	-3e-05	3
12495	-0.00029	8e-05	-4e-05	-4e-05	7e-05	0.00018	9e-05	-3e-05	3
12496	-0.00029	8e-05	-4e-05	-4e-05	7e-05	0.00018	9e-05	-3e-05	3
12497	-0.00029	8e-05	-4e-05	-4e-05	7e-05	0.00018	9e-05	-3e-05	3
12498	-0.00029	8e-05	-4e-05	-4e-05	7e-05	0.00018	9e-05	-3e-05	3
12499	-0.00029	8e-05	-4e-05	-4e-05	7e-05	0.00018	9e-05	-3e-05	3
12500	-0.00034	-9e-05	-2e-05	1e-05	-0.00011	0.00017	0.00012	-4e-05	3
12501	-0.00034	-9e-05	-2e-05	1e-05	-0.00011	0.00017	0.00012	-4e-05	3
37038	-0.00072	-0.0011	-0.0001	0	0.00049	-0.00048	0.00019	-0.00024	3
37039	-0.00072	-0.0011	-0.0001	0	0.00049	-0.00048	0.00019	-0.00024	3
37040	-0.00072	-0.0011	-0.0001	0	0.00049	-0.00048	0.00019	-0.00024	3
37041	-0.00072	-0.0011	-0.0001	0	0.00049	-0.00048	0.00019	-0.00024	3
37042	-0.00072	-0.0011	-0.0001	0	0.00049	-0.00048	0.00019	-0.00024	3
37043	-0.00072	-0.0011	-0.0001	0	0.00049	-0.00048	0.00019	-0.00024	3
37044	-0.00072	-0.0011	-0.0001	0	0.00049	-0.00048	0.00019	-0.00024	3
37045	-0.00072	-0.0011	-0.0001	0	0.00049	-0.00048	0.00019	-0.00024	3
37046	-0.00072	-0.0011	-0.0001	0	0.00049	-0.00048	0.00019	-0.00024	3
37047	-0.00072	-0.0011	-0.0001	0	0.00049	-0.00048	0.00019	-0.00024	3
37048	-0.00072	-0.0011	-0.0001	0	0.00049	-0.00048	0.00019	-0.00024	3
37049	-0.00072	-0.0011	-0.0001	0	0.00049	-0.00048	0.00019	-0.00024	3
37050	-0.00072	-0.0011	-0.0001	0	0.00049	-0.00048	0.00019	-0.00024	3
37051	-0.00072	-0.0011	-0.0001	0	0.00049	-0.00048	0.00019	-0.00024	3
37052	-0.00072	-0.0011	-0.0001	0	0.00049	-0.00048	0.00019	-0.00024	3
37053	-0.00072	-0.0011	-0.0001	0	0.00049	-0.00048	0.00019	-0.00024	3
37054	-0.00072	-0.0011	-0.0001	0	0.00049	-0.00048	0.00019	-0.00024	3
37055	-0.00072	-0.0011	-0.0001	0	0.00049	-0.00048	0.00019	-0.00024	3
37056	2e-05	-0.00058	-1e-05	3e-05	-0.00013	0.0003	0.00039	-5e-05	3
37057	2e-05	-0.00058	-1e-05	3e-05	-0.00013	0.0003	0.00039	-5e-05	3
37058	-0.00043	0.00011	-7e-05	-0.0001	-0.00046	0.00016	0.00026	-8e-05	3
37059	-0.00043	0.00011	-7e-05	-0.0001	-0.00046	0.00016	0.00026	-8e-05	3
37060	-0.00043	0.00011	-7e-05	-0.0001	-0.00046	0.00016	0.00026	-8e-05	3
37061	-0.00043	0.00011	-7e-05	-0.0001	-0.00046	0.00016	0.00026	-8e-05	3
37062	-0.00043	0.00011	-7e-05	-0.0001	-0.00046	0.00016	0.00026	-8e-05	3
37063	-0.00043	0.00011	-7e-05	-0.0001	-0.00046	0.00016	0.00026	-8e-05	3
37064	-0.00043	0.00011	-7e-05	-0.0001	-0.00046	0.00016	0.00026	-8e-05	3
37065	-0.00043	0.00011	-7e-05	-0.0001	-0.00046	0.00016	0.00026	-8e-05	3
37066	-0.00043	0.00011	-7e-05	-0.0001	-0.00046	0.00016	0.00026	-8e-05	3
37067	-0.00043	0.00011	-7e-05	-0.0001	-0.00046	0.00016	0.00026	-8e-05	3
37068	-0.00043	0.00011	-7e-05	-0.0001	-0.00046	0.00016	0.00026	-8e-05	3
37069	-0.00043	0.00011	-7e-05	-0.0001	-0.00046	0.00016	0.00026	-8e-05	3
37070	-0.00043	0.00011	-7e-05	-0.0001	-0.00046	0.00016	0.00026	-8e-05	3
37071	-0.00043	0.00011	-7e-05	-0.0001	-0.00046	0.00016	0.00026	-8e-05	3
37072	-0.00043	0.00011	-7e-05	-0.0001	-0.00046	0.00016	0.00026	-8e-05	3
37073	-0.00043	0.00011	-7e-05	-0.0001	-0.00046	0.00016	0.00026	-8e-05	3
37074	-0.00043	0.00011	-7e-05	-0.0001	-0.00046	0.00016	0.00026	-8e-05	3
37075	-0.00043	0.00011	-7e-05	-0.0001	-0.00046	0.00016	0.00026	-8e-05	3
37076	-0.00043	0.00011	-7e-05	-0.0001	-0.00046	0.00016	0.00026	-8e-05	3
37077	-0.00043	0.00011	-7e-05	-0.0001	-0.00046	0.00016	0.00026	-8e-05	3
37078	-0.00043	0.00011	-7e-05	-0.0001	-0.00046	0.00016	0.00026	-8e-05	3
37079	-0.00043	-0.00079	-0.00017	-0.00011	-0.00048	3e-05	0.00053	-9e-05	3
37080	-0.00128	-0.00052	-0.00022	-6e-05	0.00031	0.00012	-0.00029	-0.00128	3
37081	0.00127	7e-05	2e-05	-2e-05	-0.00019	-0.00023	-0.0007	0.00012	3
37082	0.00127	7e-05	2e-05	-2e-05	-0.00019	-0.00023	-0.0007	0.00012	3
37083	0.00127	7e-05	2e-05	-2e-05	-0.00019	-0.00023	-0.0007	0.00012	3
37084	0.00127	7e-05	2e-05	-2e-05	-0.00019	-0.00023	-0.0007	0.00012	3
37085	0.00127	7e-05	2e-05	-2e-05	-0.00019	-0.00023	-0.0007	0.00012	3
37086	0.00127	7e-05	2e-05	-2e-05	-0.00019	-0.00023	-0.0007	0.00012	3
37089	0.00127	7e-05	2e-05	-2e-05	-0.00019	-0.00023	-0.0007	0.00012	3
37090	0.00127	7e-05	2e-05	-2e-05	-0.00019	-0.00023	-0.0007	0.00012	3
37091	0.00127	7e-05	2e-05	-2e-05	-0.00019	-0.00023	-0.0007	0.00012	3
37092	0.00127	7e-05	2e-05	-2e-05	-0.00019	-0.00023	-0.0007	0.00012	3
37093	0.00127	7e-05	2e-05	-2e-05	-0.00019	-0.00023	-0.0007	0.00012	3
37094	0.00038	-0.00077	-0.00024	-0.0001	-0.00035	-0.00054	9e-05	0.00014	3
37095	-0.00128	-0.00044	-5e-05	2e-05	0.00031	0.0003	0.00021	-0.00033	3
37096	-0.00128	-0.00044	-5e-05	2e-05	0.00031	0.0003	0.00021	-0.00033	3
37097	-0.00128	-0.00044	-5e-05	2e-05	0.00031	0.0003	0.00021	-0.00033	3
37098	-0.00128	-0.00044	-5e-05	2e-05	0.00031	0.0003	0.00021	-0.00033	3
37099	-0.00128	-0.00044	-5e-05	2e-05	0.00031	0.0003	0.00021	-0.00033	3
37100	-0.00128	-0.00044	-5e-05	2e-05	0.00031	0.0003	0.00021	-0.00033	3
37101	-0.00128	-0.00044	-5e-05	2e-05	0.00031	0.0003	0.00021	-0.00033	3
37102	-0.00128	-0.00044	-5e-05	2e-05	0.00031	0.0003	0.00021	-0.00033	3
37103	-0.00128	-0.00044	-5e-05	2e-05	0.00031	0.0003	0.00021	-0.00033	3
37104	-0.00128	-0.00044	-5e-05	2e-05	0.00031	0.0003	0.00021	-0.00033	3
37105	-0.00128	-0.00044	-5e-05	2e-05	0.00031	0.0003	0.00021	-0.00033	3
37106	-0.00128	-0.00044	-5e-05	2e-05	0.00031	0.0003	0.00021	-0.00033	3
37107	-0.00128	-0.00044	-5e-05	2e-05	0.00031	0.0003	0.00021	-0.00033	3
37108	-0.00128	-0.00044	-5e-05	2e-05	0.00031	0.0003	0.00021	-0.00033	3
37109	-0.00128	-0.00044	-5e-05	2e-05	0.00031	0.0003	0.00021	-0.00033	3
37110	-0.00128	-0.00044	-5e-05	2e-05	0.00031	0.0003	0.00021	-0.00033	3
37111	-0.00128	-0.00044	-5e-05	2e-05	0.00031	0.0003	0.00021	-0.00033	3
37112	-0.00128	-0.00044	-5e-05	2e-05	0.00031	0.0003	0.00021	-0.00033	3
37113	-0.00128	-0.00044	-5e-05	2e-05	0.00031	0.0003	0.00021	-0.00033	3
37114	-0.00128	-0.00044	-5e-05	2e-05	0.00031	0.0003	0.00021	-0.00033	3
37115	-0.00128	-0.00044	-5e-05	2e-05	0.00031	0.0003	0.00021	-0.00033	3
37116	-0.00047	0.00011	-5e-05	-0.00011	-0.00041	-0.00059	0.00065	-0.00016	3
37117	-0.00047	0.00011	-5e-05	-0.00011	-0.00041	-0.00059	0.00065	-0.00016	3
37118	5e-05	7e-05	2e-05	-8e-05	-0.00056	0.00011	0.00065	-0.00011	3
37119	5e-05	7e-05	2e-05	-8e-05	-0.00056	0.00011	0.00065	-0.00011	3
37120	5e-05	7e-05	2e-05	-8e-05	-0.00056	0.00011	0.00065	-0.00011	3
37121	5e-05	7e-05	2e-05	-8e-05	-0.00056	0.00011	0.00065	-0.00011	3
37122	5e-05	7e-05	2e-05	-8e-05	-0.00056	0.00011	0.00065	-0.00011	3
37123	5e-05	7e-05	2e-05	-8e-05	-0.00056	0.00011	0.00065	-0.00011	3
37124	5e-05	7e-05	2e-05	-8e-05	-0.00056	0.00011	0.00065	-0.00011	3
37125	5e-05	7e-05	2e-05	-8e-05	-0.00056	0.00011	0.00065	-0.00011	3
37126	5e-05	7e-05	2e-05	-8e-05	-0.00056	0.00011	0.00065	-0.00011	3
37127	5e-05	7e-05	2e-05	-8e-05	-0.00056	0.00011	0.00065	-0.00011	3
37128	5e-05	7e-05	2e-05	-8e-05	-0.00056	0.00011	0.00065	-0.00011	3
37129	5e-05	7e-05	2e-05	-8e-05	-0.00056	0.00011	0.00065	-0.00011	3
37130	5e-05	7e-05	2e-05	-8e-05	-0.00056	0.00011	0.00065	-0.00011	3
37131	5e-05	7e-05	2e-05	-8e-05	-0.00056	0.00011	0.00065	-0.00011	3
37132	5e-05	7e-05	2e-05	-8e-05	-0.00056	0.00011	0.00065	-0.00011	3
37133	5e-05	7e-05	2e-05	-8e-05	-0.00056	0.00011	0.00065	-0.00011	3
37134	5e-05	7e-05	2e-05	-8e-05	-0.00056	0.00011	0.00065	-0.00011	3
37135	5e-05	7e-05	2e-05	-8e-05	-0.00056	0.00011	0.00065	-0.00011	3
37136	5e-05	7e-05	2e-05	-8e-05	-0.00056	0.00011	0.00065	-0.00011	3
37139	0.0008	0.00087	4e-05	-0.00011	-0.00027	-0.00044	-0.00057	0.00069	3
37141	0.00124	0.0009	0.00017	5e-05	-7e-05	0.00015	-0.00018	0.00027	3
37142	0.00124	0.0009	0.00017	5e-05	-7e-05	0.00015	-0.00018	0.00027	3
37143	0.00124	0.0009	0.00017	5e-05	-7e-05	0.00015	-0.00018	0.00027	3
37144	0.00124	0.0009	0.00017	5e-05	-7e-05	0.00015	-0.00018	0.00027	3
37145	0.00124	0.0009	0.00017	5e-05	-7e-05	0.00015	-0.00018	0.00027	3
37146	0.00124	0.0009	0.00017	5e-05	-7e-05	0.00015	-0.00018	0.00027	3
37147	0.00124	0.0009	0.00017	5e-05	-7e-05	0.00015	-0.00018	0.00027	3
37148	0.00124	0.0009	0.00017	5e-05	-7e-05	0.00015	-0.00018	0.00027	3
37149	0.00124	0.0009	0.00017	5e-05	-7e-05	0.00015	-0.00018	0.00027	3
37150	0.00124	0.0009	0.00017	5e-05	-7e-05	0.00015	-0.00018	0.00027	3
37151	0.00124	0.0009	0.00017	5e-05	-7e-05	0.00015	-0.00018	0.00027	3
37152	0.00124	0.0009	0.00017	5e-05	-7e-05	0.00015	-0.00018	0.00027	3
37153	0.00124	0.0009	0.00017	5e-05	-7e-05	0.00015	-0.00018	0.00027	3
37154	0.00107	-0.00051	-0.00012	0	0.0002	0.00064	0.00028	-0.00124	3
37155	-0.00016	-0.00045	-0.00017	4e-05	-0.00018	-0.00029	0.00026	0.00016	3
37156	0.00056	0.0003	5e-05	-1e-05	-0.00022	0.00025	-0.0004	-4e-05	3
37157	0.00056	0.0003	5e-05	-1e-05	-0.00022	0.00025	-0.0004	-4e-05	3
37158	0.00056	0.0003	5e-05	-1e-05	-0.00022	0.00025	-0.0004	-4e-05	3
37159	0.00056	0.0003	5e-05	-1e-05	-0.00022	0.00025	-0.0004	-4e-05	3
37160	0.00056	0.0003	5e-05	-1e-05	-0.00022	0.00025	-0.0004	-4e-05	3
37161	0.00056	0.0003	5e-05	-1e-05	-0.00022	0.00025	-0.0004	-4e-05	3
37162	0.00056	0.0003	5e-05	-1e-05	-0.00022	0.00025	-0.0004	-4e-05	3
37163	0.00056	0.0003	5e-05	-1e-05	-0.00022	0.00025	-0.0004	-4e-05	3
37164	0.00056	0.0003	5e-05	-1e-05	-0.00022	0.00025	-0.0004	-4e-05	3
37165	0.00056	0.0003	5e-05	-1e-05	-0.00022	0.00025	-0.0004	-4e-05	3
37166	0.00056	0.0003	5e-05	-1e-05	-0.00022	0.00025	-0.0004	-4e-05	3
37167	0.00056	0.0003	5e-05	-1e-05	-0.00022	0.00025	-0.0004	-4e-05	3
37168	0.00056	0.0003	5e-05	-1e-05	-0.00022	0.00025	-0.0004	-4e-05	3
37169	0.00056	0.0003	5e-05	-1e-05	-0.00022	0.00025	-0.0004	-4e-05	3
37170	0.00056	0.0003	5e-05	-1e-05	-0.00022	0.00025	-0.0004	-4e-05	3
37171	0.00056	0.0003	5e-05	-1e-05	-0.00022	0.00025	-0.0004	-4e-05	3
37172	0.00056	0.0003	5e-05	-1e-05	-0.00022	0.00025	-0.0004	-4e-05	3
37173	0.00056	0.0003	5e-05	-1e-05	-0.00022	0.00025	-0.0004	-4e-05	3
37174	0.00056	0.0003	5e-05	-1e-05	-0.00022	0.00025	-0.0004	-4e-05	3
37175	0.00056	0.0003	5e-05	-1e-05	-0.00022	0.00025	-0.0004	-4e-05	3
37176	-0.00128	-0.00074	-9e-05	-4e-05	-0.00015	-0.00012	-0.00016	-0.00069	3
37177	-0.00071	0.00068	0.00023	4e-05	-0.0003	-0.00013	-0.0002	-0.00036	3
37178	-0.00044	-0.00058	-2e-05	0.00011	0.0003	-4e-05	0.00032	-0.0005	3
37179	-0.00044	-0.00058	-2e-05	0.00011	0.0003	-4e-05	0.00032	-0.0005	3
37180	-0.00044	-0.00058	-2e-05	0.00011	0.0003	-4e-05	0.00032	-0.0005	3
37181	-0.00044	-0.00058	-2e-05	0.00011	0.0003	-4e-05	0.00032	-0.0005	3
37182	-0.00044	-0.00058	-2e-05	0.00011	0.0003	-4e-05	0.00032	-0.0005	3
37183	-0.00044	-0.00058	-2e-05	0.00011	0.0003	-4e-05	0.00032	-0.0005	3
37184	-0.00044	-0.00058	-2e-05	0.00011	0.0003	-4e-05	0.00032	-0.0005	3
37185	-0.00044	-0.00058	-2e-05	0.00011	0.0003	-4e-05	0.00032	-0.0005	3
37186	-0.00044	-0.00058	-2e-05	0.00011	0.0003	-4e-05	0.00032	-0.0005	3
37189	-0.00044	-0.00058	-2e-05	0.00011	0.0003	-4e-05	0.00032	-0.0005	3
37190	-0.00044	-0.00058	-2e-05	0.00011	0.0003	-4e-05	0.00032	-0.0005	3
37191	-0.00044	-0.00058	-2e-05	0.00011	0.0003	-4e-05	0.00032	-0.0005	3
37192	-0.00044	-0.00058	-2e-05	0.00011	0.0003	-4e-05	0.00032	-0.0005	3
37193	-0.00044	-0.00058	-2e-05	0.00011	0.0003	-4e-05	0.00032	-0.0005	3
37194	-0.00044	-0.00058	-2e-05	0.00011	0.0003	-4e-05	0.00032	-0.0005	3
37195	-0.00044	-0.00058	-2e-05	0.00011	0.0003	-4e-05	0.00032	-0.0005	3
37196	-0.00044	-0.00058	-2e-05	0.00011	0.0003	-4e-05	0.00032	-0.0005	3
37197	-0.00044	-0.00058	-2e-05	0.00011	0.0003	-4e-05	0.00032	-0.0005	3
37198	-0.00044	-0.00058	-2e-05	0.00011	0.0003	-4e-05	0.00032	-0.0005	3
37199	-0.00095	-0.00102	-0.00024	-1e-05	0.00026	-0.0002	0.00072	-0.00019	3
37200	-0.00095	-0.00102	-0.00024	-1e-05	0.00026	-0.0002	0.00072	-0.00019	3
37201	0.00096	0.00035	6e-05	-2e-05	-0.0002	2e-05	0.00107	-0.00039	3
37202	0.00096	0.00035	6e-05	-2e-05	-0.0002	2e-05	0.00107	-0.00039	3
37203	0.00096	0.00035	6e-05	-2e-05	-0.0002	2e-05	0.00107	-0.00039	3
37204	0.00096	0.00035	6e-05	-2e-05	-0.0002	2e-05	0.00107	-0.00039	3
37205	0.00096	0.00035	6e-05	-2e-05	-0.0002	2e-05	0.00107	-0.00039	3
37206	0.00096	0.00035	6e-05	-2e-05	-0.0002	2e-05	0.00107	-0.00039	3
37207	0.00096	0.00035	6e-05	-2e-05	-0.0002	2e-05	0.00107	-0.00039	3
37208	0.00096	0.00035	6e-05	-2e-05	-0.0002	2e-05	0.00107	-0.00039	3
37209	0.00096	0.00035	6e-05	-2e-05	-0.0002	2e-05	0.00107	-0.00039	3
37210	0.00096	0.00035	6e-05	-2e-05	-0.0002	2e-05	0.00107	-0.00039	3
37211	0.00096	0.00035	6e-05	-2e-05	-0.0002	2e-05	0.00107	-0.00039	3
37212	0.00096	0.00035	6e-05	-2e-05	-0.0002	2e-05	0.00107	-0.00039	3
37213	0.00096	0.00035	6e-05	-2e-05	-0.0002	2e-05	0.00107	-0.00039	3
37214	0.00037	-0.00072	-0.00041	-0.00016	0.0001	-0.00017	-8e-05	-1e-05	3
37215	-0.00067	-0.00014	-6e-05	-8e-05	-0.0001	4e-05	0.00027	0.00088	3
37216	-0.00067	-0.00014	-6e-05	-8e-05	-0.0001	4e-05	0.00027	0.00088	3
37217	-0.00067	-0.00014	-6e-05	-8e-05	-0.0001	4e-05	0.00027	0.00088	3
37218	-0.00067	-0.00014	-6e-05	-8e-05	-0.0001	4e-05	0.00027	0.00088	3
37219	-0.00067	-0.00014	-6e-05	-8e-05	-0.0001	4e-05	0.00027	0.00088	3
37220	-0.00067	-0.00014	-6e-05	-8e-05	-0.0001	4e-05	0.00027	0.00088	3
37221	-0.00067	-0.00014	-6e-05	-8e-05	-0.0001	4e-05	0.00027	0.00088	3
37222	-0.00067	-0.00014	-6e-05	-8e-05	-0.0001	4e-05	0.00027	0.00088	3
37223	-0.00067	-0.00014	-6e-05	-8e-05	-0.0001	4e-05	0.00027	0.00088	3
37224	-0.00067	-0.00014	-6e-05	-8e-05	-0.0001	4e-05	0.00027	0.00088	3
37225	-0.00067	-0.00014	-6e-05	-8e-05	-0.0001	4e-05	0.00027	0.00088	3
37226	-0.00067	-0.00014	-6e-05	-8e-05	-0.0001	4e-05	0.00027	0.00088	3
37227	-0.00067	-0.00014	-6e-05	-8e-05	-0.0001	4e-05	0.00027	0.00088	3
37228	-0.00067	-0.00014	-6e-05	-8e-05	-0.0001	4e-05	0.00027	0.00088	3
37229	-0.00067	-0.00014	-6e-05	-8e-05	-0.0001	4e-05	0.00027	0.00088	3
37230	-0.00067	-0.00014	-6e-05	-8e-05	-0.0001	4e-05	0.00027	0.00088	3
37231	-0.00067	-0.00014	-6e-05	-8e-05	-0.0001	4e-05	0.00027	0.00088	3
37232	-0.00067	-0.00014	-6e-05	-8e-05	-0.0001	4e-05	0.00027	0.00088	3
37233	-0.00067	-0.00014	-6e-05	-8e-05	-0.0001	4e-05	0.00027	0.00088	3
37234	-0.00067	-0.00014	-6e-05	-8e-05	-0.0001	4e-05	0.00027	0.00088	3
37235	-0.00067	-0.00014	-6e-05	-8e-05	-0.0001	4e-05	0.00027	0.00088	3
37237	0.00062	8e-05	-1e-05	0	-2e-05	-0.00039	0.00061	-0.00032	3
37240	-0.00106	-7e-05	6e-05	0.0001	0.00018	-0.00016	-0.00071	-0.00128	3
37241	-0.00106	-7e-05	6e-05	0.0001	0.00018	-0.00016	-0.00071	-0.00128	3
37242	-0.00106	-7e-05	6e-05	0.0001	0.00018	-0.00016	-0.00071	-0.00128	3
37243	-0.00106	-7e-05	6e-05	0.0001	0.00018	-0.00016	-0.00071	-0.00128	3
37244	-0.00106	-7e-05	6e-05	0.0001	0.00018	-0.00016	-0.00071	-0.00128	3
37245	-0.00106	-7e-05	6e-05	0.0001	0.00018	-0.00016	-0.00071	-0.00128	3
37246	-0.00106	-7e-05	6e-05	0.0001	0.00018	-0.00016	-0.00071	-0.00128	3
37247	-0.00106	-7e-05	6e-05	0.0001	0.00018	-0.00016	-0.00071	-0.00128	3
37248	-0.00106	-7e-05	6e-05	0.0001	0.00018	-0.00016	-0.00071	-0.00128	3
37249	-0.00106	-7e-05	6e-05	0.0001	0.00018	-0.00016	-0.00071	-0.00128	3
37250	-0.00106	-7e-05	6e-05	0.0001	0.00018	-0.00016	-0.00071	-0.00128	3
37251	-0.00106	-7e-05	6e-05	0.0001	0.00018	-0.00016	-0.00071	-0.00128	3
37252	-0.00106	-7e-05	6e-05	0.0001	0.00018	-0.00016	-0.00071	-0.00128	3
37253	-0.00106	-7e-05	6e-05	0.0001	0.00018	-0.00016	-0.00071	-0.00128	3
37254	-0.00106	-7e-05	6e-05	0.0001	0.00018	-0.00016	-0.00071	-0.00128	3
37255	-0.00106	-7e-05	6e-05	0.0001	0.00018	-0.00016	-0.00071	-0.00128	3
37256	-0.00106	-7e-05	6e-05	0.0001	0.00018	-0.00016	-0.00071	-0.00128	3
37257	-0.00106	-7e-05	6e-05	0.0001	0.00018	-0.00016	-0.00071	-0.00128	3
37258	-0.00106	-7e-05	6e-05	0.0001	0.00018	-0.00016	-0.00071	-0.00128	3
37259	-0.00106	-7e-05	6e-05	0.0001	0.00018	-0.00016	-0.00071	-0.00128	3
37260	-0.00115	0.00058	4e-05	5e-05	0.00072	0.00012	-0.0007	-7e-05	3
37261	-0.00115	0.00058	4e-05	5e-05	0.00072	0.00012	-0.0007	-7e-05	3
37262	0.0006	-0.00086	-0.00034	-0.00012	1e-05	-0.00022	-0.00052	0.00069	3
37263	0.0006	-0.00086	-0.00034	-0.00012	1e-05	-0.00022	-0.00052	0.00069	3
37264	0.0006	-0.00086	-0.00034	-0.00012	1e-05	-0.00022	-0.00052	0.00069	3
37265	0.0006	-0.00086	-0.00034	-0.00012	1e-05	-0.00022	-0.00052	0.00069	3
37266	0.0006	-0.00086	-0.00034	-0.00012	1e-05	-0.00022	-0.00052	0.00069	3
37267	0.0006	-0.00086	-0.00034	-0.00012	1e-05	-0.00022	-0.00052	0.00069	3
37268	0.0006	-0.00086	-0.00034	-0.00012	1e-05	-0.00022	-0.00052	0.00069	3
37269	0.0006	-0.00086	-0.00034	-0.00012	1e-05	-0.00022	-0.00052	0.00069	3
37270	0.0006	-0.00086	-0.00034	-0.00012	1e-05	-0.00022	-0.00052	0.00069	3
37271	0.0006	-0.00086	-0.00034	-0.00012	1e-05	-0.00022	-0.00052	0.00069	3
37272	0.0006	-0.00086	-0.00034	-0.00012	1e-05	-0.00022	-0.00052	0.00069	3
37273	0.0006	-0.00086	-0.00034	-0.00012	1e-05	-0.00022	-0.00052	0.00069	3
37274	0.0006	-0.00086	-0.00034	-0.00012	1e-05	-0.00022	-0.00052	0.00069	3
37275	0.00052	0.00017	0.00014	-1e-05	-0.00036	7e-05	-0.00053	0.00016	3
37276	0.00052	0.00017	0.00014	-1e-05	-0.00036	7e-05	-0.00053	0.00016	3
37277	0.00052	0.00017	0.00014	-1e-05	-0.00036	7e-05	-0.00053	0.00016	3
37278	0.00052	0.00017	0.00014	-1e-05	-0.00036	7e-05	-0.00053	0.00016	3
37279	0.00052	0.00017	0.00014	-1e-05	-0.00036	7e-05	-0.00053	0.00016	3
37280	0.00091	0.00062	0.00016	-4e-05	-0.00018	-0.00036	0.00016	0.00116	3
37281	0.00091	0.00062	0.00016	-4e-05	-0.00018	-0.00036	0.00016	0.00116	3
37282	0.00091	0.00062	0.00016	-4e-05	-0.00018	-0.00036	0.00016	0.00116	3
37283	0.00091	0.00062	0.00016	-4e-05	-0.00018	-0.00036	0.00016	0.00116	3
37284	0.00091	0.00062	0.00016	-4e-05	-0.00018	-0.00036	0.00016	0.00116	3
37285	0.00091	0.00062	0.00016	-4e-05	-0.00018	-0.00036	0.00016	0.00116	3
37286	0.00091	0.00062	0.00016	-4e-05	-0.00018	-0.00036	0.00016	0.00116	3
37289	0.00091	0.00062	0.00016	-4e-05	-0.00018	-0.00036	0.00016	0.00116	3
37290	0.00091	0.00062	0.00016	-4e-05	-0.00018	-0.00036	0.00016	0.00116	3
37291	0.00091	0.00062	0.00016	-4e-05	-0.00018	-0.00036	0.00016	0.00116	3
37292	0.00091	0.00062	0.00016	-4e-05	-0.00018	-0.00036	0.00016	0.00116	3
37293	0.00091	0.00062	0.00016	-4e-05	-0.00018	-0.00036	0.00016	0.00116	3
37294	0.00091	0.00062	0.00016	-4e-05	-0.00018	-0.00036	0.00016	0.00116	3
37295	0.00091	0.00062	0.00016	-4e-05	-0.00018	-0.00036	0.00016	0.00116	3
37296	0.00085	-0.00052	-0.0002	-0.00011	-0.00016	0	0.00022	0.00017	3
37297	0.00049	0.0005	0.00015	0.00017	0.00065	-5e-05	0.00026	0.00127	3
37298	0.00051	9e-05	2e-05	-4e-05	-0.00011	0.00072	0	-0.00042	3
37299	0.00051	9e-05	2e-05	-4e-05	-0.00011	0.00072	0	-0.00042	3
37300	0.00051	9e-05	2e-05	-4e-05	-0.00011	0.00072	0	-0.00042	3
37301	0.00051	9e-05	2e-05	-4e-05	-0.00011	0.00072	0	-0.00042	3
37302	0.00051	9e-05	2e-05	-4e-05	-0.00011	0.00072	0	-0.00042	3
37303	0.00051	9e-05	2e-05	-4e-05	-0.00011	0.00072	0	-0.00042	3
37304	0.00051	9e-05	2e-05	-4e-05	-0.00011	0.00072	0	-0.00042	3
37305	0.00051	9e-05	2e-05	-4e-05	-0.00011	0.00072	0	-0.00042	3
37306	0.00051	9e-05	2e-05	-4e-05	-0.00011	0.00072	0	-0.00042	3
37308	0.00051	9e-05	2e-05	-4e-05	-0.00011	0.00072	0	-0.00042	3
37309	0.00051	9e-05	2e-05	-4e-05	-0.00011	0.00072	0	-0.00042	3
37310	0.00051	9e-05	2e-05	-4e-05	-0.00011	0.00072	0	-0.00042	3
37311	0.00051	9e-05	2e-05	-4e-05	-0.00011	0.00072	0	-0.00042	3
37312	0.00051	9e-05	2e-05	-4e-05	-0.00011	0.00072	0	-0.00042	3
37313	0.00051	9e-05	2e-05	-4e-05	-0.00011	0.00072	0	-0.00042	3
37314	0.00051	9e-05	2e-05	-4e-05	-0.00011	0.00072	0	-0.00042	3
37315	0.00051	9e-05	2e-05	-4e-05	-0.00011	0.00072	0	-0.00042	3
37316	0.00051	9e-05	2e-05	-4e-05	-0.00011	0.00072	0	-0.00042	3
37317	0.00051	9e-05	2e-05	-4e-05	-0.00011	0.00072	0	-0.00042	3
37318	0.00051	9e-05	2e-05	-4e-05	-0.00011	0.00072	0	-0.00042	3
37319	-9e-05	-0.00021	4e-05	-0.00012	-0.00103	-0.00033	-0.00012	-0.00023	3
37320	0.00042	0.0002	-2e-05	-1e-05	4e-05	-0.00033	-0.00033	-1e-05	3
37321	-0.00029	-0.00038	-4e-05	-6e-05	-0.00034	-0.00028	0.00095	-0.00034	3
37322	-0.00029	-0.00038	-4e-05	-6e-05	-0.00034	-0.00028	0.00095	-0.00034	3
37323	-0.00029	-0.00038	-4e-05	-6e-05	-0.00034	-0.00028	0.00095	-0.00034	3
37324	-0.00029	-0.00038	-4e-05	-6e-05	-0.00034	-0.00028	0.00095	-0.00034	3
37325	-0.00029	-0.00038	-4e-05	-6e-05	-0.00034	-0.00028	0.00095	-0.00034	3
37326	-0.00029	-0.00038	-4e-05	-6e-05	-0.00034	-0.00028	0.00095	-0.00034	3
37327	-0.00029	-0.00038	-4e-05	-6e-05	-0.00034	-0.00028	0.00095	-0.00034	3
37328	-0.00029	-0.00038	-4e-05	-6e-05	-0.00034	-0.00028	0.00095	-0.00034	3
37329	-0.00029	-0.00038	-4e-05	-6e-05	-0.00034	-0.00028	0.00095	-0.00034	3
37330	-0.00029	-0.00038	-4e-05	-6e-05	-0.00034	-0.00028	0.00095	-0.00034	3
37331	-0.00029	-0.00038	-4e-05	-6e-05	-0.00034	-0.00028	0.00095	-0.00034	3
37332	-0.00029	-0.00038	-4e-05	-6e-05	-0.00034	-0.00028	0.00095	-0.00034	3
37333	0.00114	0.00041	2e-05	-2e-05	0	0.00037	0.00059	0.00056	3
37334	0.00114	0.00041	2e-05	-2e-05	0	0.00037	0.00059	0.00056	3
37335	0.00114	0.00041	2e-05	-2e-05	0	0.00037	0.00059	0.00056	3
37336	0.00114	0.00041	2e-05	-2e-05	0	0.00037	0.00059	0.00056	3
37338	0.00114	0.00041	2e-05	-2e-05	0	0.00037	0.00059	0.00056	3
37339	0.00114	0.00041	2e-05	-2e-05	0	0.00037	0.00059	0.00056	3
37340	0.00041	0.00054	0.0002	8e-05	0.00064	0.00034	0.00032	-0.00054	3
37341	-0.00095	-0.00093	-0.00053	-0.00019	8e-05	0.00021	-0.00075	-0.00097	3
37342	-0.00095	-0.00093	-0.00053	-0.00019	8e-05	0.00021	-0.00075	-0.00097	3
37343	-0.00095	-0.00093	-0.00053	-0.00019	8e-05	0.00021	-0.00075	-0.00097	3
37344	-0.00095	-0.00093	-0.00053	-0.00019	8e-05	0.00021	-0.00075	-0.00097	3
37345	-0.00095	-0.00093	-0.00053	-0.00019	8e-05	0.00021	-0.00075	-0.00097	3
37346	-0.00095	-0.00093	-0.00053	-0.00019	8e-05	0.00021	-0.00075	-0.00097	3
37347	-0.00095	-0.00093	-0.00053	-0.00019	8e-05	0.00021	-0.00075	-0.00097	3
37348	-0.00095	-0.00093	-0.00053	-0.00019	8e-05	0.00021	-0.00075	-0.00097	3
37350	-0.00095	-0.00093	-0.00053	-0.00019	8e-05	0.00021	-0.00075	-0.00097	3
37351	-0.00095	-0.00093	-0.00053	-0.00019	8e-05	0.00021	-0.00075	-0.00097	3
37352	-0.00095	-0.00093	-0.00053	-0.00019	8e-05	0.00021	-0.00075	-0.00097	3
37353	-0.00095	-0.00093	-0.00053	-0.00019	8e-05	0.00021	-0.00075	-0.00097	3
37354	-0.00095	-0.00093	-0.00053	-0.00019	8e-05	0.00021	-0.00075	-0.00097	3
37355	-0.00095	-0.00093	-0.00053	-0.00019	8e-05	0.00021	-0.00075	-0.00097	3
37356	-0.00095	-0.00093	-0.00053	-0.00019	8e-05	0.00021	-0.00075	-0.00097	3
37357	-0.00095	-0.00093	-0.00053	-0.00019	8e-05	0.00021	-0.00075	-0.00097	3
37358	-0.00062	-0.00104	-0.00046	-0.00018	-0.00034	-0.00035	-0.00072	-0.00041	3
37359	0.00127	0.00127	0.00035	0.00013	0.00018	-0.00027	-0.00028	1e-05	3
37360	0.00127	0.00127	0.00035	0.00013	0.00018	-0.00027	-0.00028	1e-05	3
37361	0.00127	0.00127	0.00035	0.00013	0.00018	-0.00027	-0.00028	1e-05	3
37362	0.00127	0.00127	0.00035	0.00013	0.00018	-0.00027	-0.00028	1e-05	3
37363	0.00127	0.00127	0.00035	0.00013	0.00018	-0.00027	-0.00028	1e-05	3
37364	0.00127	0.00127	0.00035	0.00013	0.00018	-0.00027	-0.00028	1e-05	3
37365	0.00127	0.00127	0.00035	0.00013	0.00018	-0.00027	-0.00028	1e-05	3
37366	0.00127	0.00127	0.00035	0.00013	0.00018	-0.00027	-0.00028	1e-05	3
37367	0.00127	0.00127	0.00035	0.00013	0.00018	-0.00027	-0.00028	1e-05	3
37368	0.00127	0.00127	0.00035	0.00013	0.00018	-0.00027	-0.00028	1e-05	3
37369	0.00127	0.00127	0.00035	0.00013	0.00018	-0.00027	-0.00028	1e-05	3
37370	0.00127	0.00127	0.00035	0.00013	0.00018	-0.00027	-0.00028	1e-05	3
37371	0.00127	0.00127	0.00035	0.00013	0.00018	-0.00027	-0.00028	1e-05	3
37372	0.00127	0.00127	0.00035	0.00013	0.00018	-0.00027	-0.00028	1e-05	3
37373	0.00127	0.00127	0.00035	0.00013	0.00018	-0.00027	-0.00028	1e-05	3
37374	0.00127	0.00127	0.00035	0.00013	0.00018	-0.00027	-0.00028	1e-05	3
37375	0.00127	0.00127	0.00035	0.00013	0.00018	-0.00027	-0.00028	1e-05	3
