9925	-0.00051	-2e-05	2e-05	0.00015	0.00012	0.00029	-0.0001	1e-05	3
9926	-0.00051	-2e-05	2e-05	0.00015	0.00012	0.00029	-0.0001	1e-05	3
9927	-0.00051	-2e-05	2e-05	0.00015	0.00012	0.00029	-0.0001	1e-05	3
9928	-0.00051	-2e-05	2e-05	0.00015	0.00012	0.00029	-0.0001	1e-05	3
9929	-0.00051	-2e-05	2e-05	0.00015	0.00012	0.00029	-0.0001	1e-05	3
9930	-0.00051	-2e-05	2e-05	0.00015	0.00012	0.00029	-0.0001	1e-05	3
9931	-0.00051	-2e-05	2e-05	0.00015	0.00012	0.00029	-0.0001	1e-05	3
9932	-0.00051	-2e-05	2e-05	0.00015	0.00012	0.00029	-0.0001	1e-05	3
9933	-0.00051	-2e-05	2e-05	0.00015	0.00012	0.00029	-0.0001	1e-05	3
9934	-0.00051	-2e-05	2e-05	0.00015	0.00012	0.00029	-0.0001	1e-05	3
9935	-0.00051	-2e-05	2e-05	0.00015	0.00012	0.00029	-0.0001	1e-05	3
9937	-0.00051	-2e-05	2e-05	0.00015	0.00012	0.00029	-0.0001	1e-05	3
9939	2e-05	-0.0001	0	-0.00011	-0.00037	-0.00035	-0.00011	-2e-05	3
9940	0.00014	2e-05	-3e-05	4e-05	0.00035	0.00011	3e-05	-5e-05	3
9941	0.00014	2e-05	-3e-05	4e-05	0.00035	0.00011	3e-05	-5e-05	3
9942	0.00014	2e-05	-3e-05	4e-05	0.00035	0.00011	3e-05	-5e-05	3
9943	0.00014	2e-05	-3e-05	4e-05	0.00035	0.00011	3e-05	-5e-05	3
9944	0.00014	2e-05	-3e-05	4e-05	0.00035	0.00011	3e-05	-5e-05	3
9945	0.00014	2e-05	-3e-05	4e-05	0.00035	0.00011	3e-05	-5e-05	3
9946	0.00014	2e-05	-3e-05	4e-05	0.00035	0.00011	3e-05	-5e-05	3
9947	0.00014	2e-05	-3e-05	4e-05	0.00035	0.00011	3e-05	-5e-05	3
9948	0.00014	2e-05	-3e-05	4e-05	0.00035	0.00011	3e-05	-5e-05	3
9949	0.00014	2e-05	-3e-05	4e-05	0.00035	0.00011	3e-05	-5e-05	3
9950	0.00014	2e-05	-3e-05	4e-05	0.00035	0.00011	3e-05	-5e-05	3
9951	0.00014	2e-05	-3e-05	4e-05	0.00035	0.00011	3e-05	-5e-05	3
9952	0.00014	2e-05	-3e-05	4e-05	0.00035	0.00011	3e-05	-5e-05	3
9953	0.00014	2e-05	-3e-05	4e-05	0.00035	0.00011	3e-05	-5e-05	3
9954	0.00014	2e-05	-3e-05	4e-05	0.00035	0.00011	3e-05	-5e-05	3
9955	0.00014	2e-05	-3e-05	4e-05	0.00035	0.00011	3e-05	-5e-05	3
9956	0.00014	2e-05	-3e-05	4e-05	0.00035	0.00011	3e-05	-5e-05	3
9957	0.00014	2e-05	-3e-05	4e-05	0.00035	0.00011	3e-05	-5e-05	3
9958	0.00014	2e-05	-3e-05	4e-05	0.00035	0.00011	3e-05	-5e-05	3
9959	0.00014	2e-05	-3e-05	4e-05	0.00035	0.00011	3e-05	-5e-05	3
9960	0.00035	7e-05	8e-05	1e-05	2e-05	0.00037	5e-05	9e-05	3
9961	0.00035	7e-05	8e-05	1e-05	2e-05	0.00037	5e-05	9e-05	3
9962	-0.00013	-0.00014	-0.00012	-0.00021	-1e-05	1e-05	1e-05	-0.00015	3
9963	-0.00013	-0.00014	-0.00012	-0.00021	-1e-05	1e-05	1e-05	-0.00015	3
9964	-0.00013	-0.00014	-0.00012	-0.00021	-1e-05	1e-05	1e-05	-0.00015	3
9965	-0.00013	-0.00014	-0.00012	-0.00021	-1e-05	1e-05	1e-05	-0.00015	3
9966	-0.00013	-0.00014	-0.00012	-0.00021	-1e-05	1e-05	1e-05	-0.00015	3
9967	-0.00013	-0.00014	-0.00012	-0.00021	-1e-05	1e-05	1e-05	-0.00015	3
9968	-0.00013	-0.00014	-0.00012	-0.00021	-1e-05	1e-05	1e-05	-0.00015	3
9969	-0.00013	-0.00014	-0.00012	-0.00021	-1e-05	1e-05	1e-05	-0.00015	3
9970	-0.00013	-0.00014	-0.00012	-0.00021	-1e-05	1e-05	1e-05	-0.00015	3
9971	-0.00013	-0.00014	-0.00012	-0.00021	-1e-05	1e-05	1e-05	-0.00015	3
9972	-0.00013	-0.00014	-0.00012	-0.00021	-1e-05	1e-05	1e-05	-0.00015	3
9973	-0.00013	-0.00014	-0.00012	-0.00021	-1e-05	1e-05	1e-05	-0.00015	3
9974	0.00015	-4e-05	4e-05	-0.00011	-0.00027	-0.00022	-6e-05	5e-05	3
9975	0.00015	-4e-05	4e-05	-0.00011	-0.00027	-0.00022	-6e-05	5e-05	3
9976	0.00015	-4e-05	4e-05	-0.00011	-0.00027	-0.00022	-6e-05	5e-05	3
9977	0.00015	-4e-05	4e-05	-0.00011	-0.00027	-0.00022	-6e-05	5e-05	3
9978	0.00015	-4e-05	4e-05	-0.00011	-0.00027	-0.00022	-6e-05	5e-05	3
9979	0.00015	-4e-05	4e-05	-0.00011	-0.00027	-0.00022	-6e-05	5e-05	3
9980	0.00015	-4e-05	4e-05	-0.00011	-0.00027	-0.00022	-6e-05	5e-05	3
9981	0.00015	-4e-05	4e-05	-0.00011	-0.00027	-0.00022	-6e-05	5e-05	3
9982	0.00015	-4e-05	4e-05	-0.00011	-0.00027	-0.00022	-6e-05	5e-05	3
9983	0.00013	-3e-05	-6e-05	-0.00011	-0.00033	-0.00043	-0.00014	-8e-05	3
9984	0.00013	-3e-05	-6e-05	-0.00011	-0.00033	-0.00043	-0.00014	-8e-05	3
9985	0.00013	-3e-05	-6e-05	-0.00011	-0.00033	-0.00043	-0.00014	-8e-05	3
9987	0.00013	-3e-05	-6e-05	-0.00011	-0.00033	-0.00043	-0.00014	-8e-05	3
9989	0.00013	-3e-05	-6e-05	-0.00011	-0.00033	-0.00043	-0.00014	-8e-05	3
9990	0.00013	-3e-05	-6e-05	-0.00011	-0.00033	-0.00043	-0.00014	-8e-05	3
9991	0.00013	-3e-05	-6e-05	-0.00011	-0.00033	-0.00043	-0.00014	-8e-05	3
9992	0.00013	-3e-05	-6e-05	-0.00011	-0.00033	-0.00043	-0.00014	-8e-05	3
9993	0.00013	-3e-05	-6e-05	-0.00011	-0.00033	-0.00043	-0.00014	-8e-05	3
9994	0.00013	-3e-05	-6e-05	-0.00011	-0.00033	-0.00043	-0.00014	-8e-05	3
9995	0.00013	-3e-05	-6e-05	-0.00011	-0.00033	-0.00043	-0.00014	-8e-05	3
9996	0.00013	-3e-05	-6e-05	-0.00011	-0.00033	-0.00043	-0.00014	-8e-05	3
9997	0.00013	-3e-05	-6e-05	-0.00011	-0.00033	-0.00043	-0.00014	-8e-05	3
9998	4e-05	-9e-05	-0.00011	0.0002	0.00021	-6e-05	-0.00014	2e-05	3
9999	0.00019	2e-05	8e-05	-5e-05	-0.00041	-2e-05	0	3e-05	3
10000	-3e-05	6e-05	2e-05	-9e-05	0.00054	0.0002	0.0001	2e-05	3
10001	-3e-05	6e-05	2e-05	-9e-05	0.00054	0.0002	0.0001	2e-05	3
10002	-3e-05	6e-05	2e-05	-9e-05	0.00054	0.0002	0.0001	2e-05	3
10003	-3e-05	6e-05	2e-05	-9e-05	0.00054	0.0002	0.0001	2e-05	3
10004	-3e-05	6e-05	2e-05	-9e-05	0.00054	0.0002	0.0001	2e-05	3
10005	-3e-05	6e-05	2e-05	-9e-05	0.00054	0.0002	0.0001	2e-05	3
10006	-3e-05	6e-05	2e-05	-9e-05	0.00054	0.0002	0.0001	2e-05	3
10007	-3e-05	6e-05	2e-05	-9e-05	0.00054	0.0002	0.0001	2e-05	3
10008	-3e-05	6e-05	2e-05	-9e-05	0.00054	0.0002	0.0001	2e-05	3
10009	-3e-05	6e-05	2e-05	-9e-05	0.00054	0.0002	0.0001	2e-05	3
10010	-3e-05	6e-05	2e-05	-9e-05	0.00054	0.0002	0.0001	2e-05	3
10011	-3e-05	6e-05	2e-05	-9e-05	0.00054	0.0002	0.0001	2e-05	3
10012	-3e-05	6e-05	2e-05	-9e-05	0.00054	0.0002	0.0001	2e-05	3
10013	-3e-05	6e-05	2e-05	-9e-05	0.00054	0.0002	0.0001	2e-05	3
10014	-3e-05	6e-05	2e-05	-9e-05	0.00054	0.0002	0.0001	2e-05	3
10015	-3e-05	6e-05	2e-05	-9e-05	0.00054	0.0002	0.0001	2e-05	3
10016	-3e-05	6e-05	2e-05	-9e-05	0.00054	0.0002	0.0001	2e-05	3
10017	-3e-05	6e-05	2e-05	-9e-05	0.00054	0.0002	0.0001	2e-05	3
10018	-3e-05	6e-05	2e-05	-9e-05	0.00054	0.0002	0.0001	2e-05	3
10019	-3e-05	6e-05	2e-05	-9e-05	0.00054	0.0002	0.0001	2e-05	3
10020	2e-05	-4e-05	1e-05	-5e-05	-0.00022	-0.00017	3e-05	3e-05	3
10021	2e-05	-4e-05	1e-05	-5e-05	-0.00022	-0.00017	3e-05	3e-05	3
10022	0.00054	3e-05	2e-05	0.00011	0.00014	0.00018	6e-05	8e-05	3
10023	0.00054	3e-05	2e-05	0.00011	0.00014	0.00018	6e-05	8e-05	3
10024	0.00054	3e-05	2e-05	0.00011	0.00014	0.00018	6e-05	8e-05	3
10025	0.00054	3e-05	2e-05	0.00011	0.00014	0.00018	6e-05	8e-05	3
10026	0.00054	3e-05	2e-05	0.00011	0.00014	0.00018	6e-05	8e-05	3
10027	0.00054	3e-05	2e-05	0.00011	0.00014	0.00018	6e-05	8e-05	3
10028	0.00054	3e-05	2e-05	0.00011	0.00014	0.00018	6e-05	8e-05	3
10029	0.00054	3e-05	2e-05	0.00011	0.00014	0.00018	6e-05	8e-05	3
10030	0.00054	3e-05	2e-05	0.00011	0.00014	0.00018	6e-05	8e-05	3
10031	0.00054	3e-05	2e-05	0.00011	0.00014	0.00018	6e-05	8e-05	3
10033	0.00054	3e-05	2e-05	0.00011	0.00014	0.00018	6e-05	8e-05	3
10034	0.00037	6e-05	1e-05	-7e-05	2e-05	5e-05	2e-05	-3e-05	3
10035	0.00037	6e-05	1e-05	-7e-05	2e-05	5e-05	2e-05	-3e-05	3
10043	-0.00052	-7e-05	-5e-05	-7e-05	-0.00025	-0.00031	-3e-05	-0.00017	3
10044	-0.00052	-7e-05	-5e-05	-7e-05	-0.00025	-0.00031	-3e-05	-0.00017	3
10045	-0.00052	-7e-05	-5e-05	-7e-05	-0.00025	-0.00031	-3e-05	-0.00017	3
10046	-0.00052	-7e-05	-5e-05	-7e-05	-0.00025	-0.00031	-3e-05	-0.00017	3
10047	-0.00052	-7e-05	-5e-05	-7e-05	-0.00025	-0.00031	-3e-05	-0.00017	3
10048	-0.00052	-7e-05	-5e-05	-7e-05	-0.00025	-0.00031	-3e-05	-0.00017	3
10049	-0.00052	-7e-05	-5e-05	-7e-05	-0.00025	-0.00031	-3e-05	-0.00017	3
10050	-0.00052	-7e-05	-5e-05	-7e-05	-0.00025	-0.00031	-3e-05	-0.00017	3
10051	-0.00052	-7e-05	-5e-05	-7e-05	-0.00025	-0.00031	-3e-05	-0.00017	3
10052	-0.00052	-7e-05	-5e-05	-7e-05	-0.00025	-0.00031	-3e-05	-0.00017	3
10053	-0.00052	-7e-05	-5e-05	-7e-05	-0.00025	-0.00031	-3e-05	-0.00017	3
10054	-0.00052	-7e-05	-5e-05	-7e-05	-0.00025	-0.00031	-3e-05	-0.00017	3
10055	-0.00052	-7e-05	-5e-05	-7e-05	-0.00025	-0.00031	-3e-05	-0.00017	3
10056	-0.00052	-7e-05	-5e-05	-7e-05	-0.00025	-0.00031	-3e-05	-0.00017	3
10057	-0.00052	-7e-05	-5e-05	-7e-05	-0.00025	-0.00031	-3e-05	-0.00017	3
10058	-6e-05	-2e-05	-5e-05	-0.00017	-8e-05	-6e-05	0.00014	3e-05	3
10059	-8e-05	6e-05	2e-05	9e-05	-0.00017	-0.00021	-0.00018	-1e-05	3
10060	8e-05	2e-05	0	2e-05	0.00025	0.00031	9e-05	0.00012	3
10061	8e-05	2e-05	0	2e-05	0.00025	0.00031	9e-05	0.00012	3
10062	8e-05	2e-05	0	2e-05	0.00025	0.00031	9e-05	0.00012	3
10063	8e-05	2e-05	0	2e-05	0.00025	0.00031	9e-05	0.00012	3
10064	8e-05	2e-05	0	2e-05	0.00025	0.00031	9e-05	0.00012	3
10065	8e-05	2e-05	0	2e-05	0.00025	0.00031	9e-05	0.00012	3
10066	8e-05	2e-05	0	2e-05	0.00025	0.00031	9e-05	0.00012	3
10067	8e-05	2e-05	0	2e-05	0.00025	0.00031	9e-05	0.00012	3
10068	8e-05	2e-05	0	2e-05	0.00025	0.00031	9e-05	0.00012	3
10069	8e-05	2e-05	0	2e-05	0.00025	0.00031	9e-05	0.00012	3
10070	8e-05	2e-05	0	2e-05	0.00025	0.00031	9e-05	0.00012	3
10071	8e-05	2e-05	0	2e-05	0.00025	0.00031	9e-05	0.00012	3
10072	8e-05	2e-05	0	2e-05	0.00025	0.00031	9e-05	0.00012	3
10073	8e-05	2e-05	0	2e-05	0.00025	0.00031	9e-05	0.00012	3
10074	8e-05	2e-05	0	2e-05	0.00025	0.00031	9e-05	0.00012	3
10075	8e-05	2e-05	0	2e-05	0.00025	0.00031	9e-05	0.00012	3
10076	8e-05	2e-05	0	2e-05	0.00025	0.00031	9e-05	0.00012	3
10077	8e-05	2e-05	0	2e-05	0.00025	0.00031	9e-05	0.00012	3
10078	8e-05	2e-05	0	2e-05	0.00025	0.00031	9e-05	0.00012	3
10079	8e-05	2e-05	0	2e-05	0.00025	0.00031	9e-05	0.00012	3
10080	-0.00035	-7e-05	-6e-05	-0.00015	0.0001	-6e-05	-5e-05	-8e-05	3
10081	-0.00035	-7e-05	-6e-05	-0.00015	0.0001	-6e-05	-5e-05	-8e-05	3
10082	9e-05	1e-05	1e-05	0.00012	0.00035	0.00035	9e-05	2e-05	3
10083	9e-05	1e-05	1e-05	0.00012	0.00035	0.00035	9e-05	2e-05	3
10084	9e-05	1e-05	1e-05	0.00012	0.00035	0.00035	9e-05	2e-05	3
10085	9e-05	1e-05	1e-05	0.00012	0.00035	0.00035	9e-05	2e-05	3
10087	9e-05	1e-05	1e-05	0.00012	0.00035	0.00035	9e-05	2e-05	3
10089	9e-05	1e-05	1e-05	0.00012	0.00035	0.00035	9e-05	2e-05	3
10090	9e-05	1e-05	1e-05	0.00012	0.00035	0.00035	9e-05	2e-05	3
10091	9e-05	1e-05	1e-05	0.00012	0.00035	0.00035	9e-05	2e-05	3
10092	9e-05	1e-05	1e-05	0.00012	0.00035	0.00035	9e-05	2e-05	3
10093	9e-05	1e-05	1e-05	0.00012	0.00035	0.00035	9e-05	2e-05	3
10094	0.00045	-1e-05	3e-05	8e-05	0.00012	0.00016	0.00016	-0.00016	3
10095	0.00045	-1e-05	3e-05	8e-05	0.00012	0.00016	0.00016	-0.00016	3
10096	0.00045	-1e-05	3e-05	8e-05	0.00012	0.00016	0.00016	-0.00016	3
10097	0.00045	-1e-05	3e-05	8e-05	0.00012	0.00016	0.00016	-0.00016	3
10098	0.00045	-1e-05	3e-05	8e-05	0.00012	0.00016	0.00016	-0.00016	3
10099	0.00045	-1e-05	3e-05	8e-05	0.00012	0.00016	0.00016	-0.00016	3
10100	0.00045	-1e-05	3e-05	8e-05	0.00012	0.00016	0.00016	-0.00016	3
10101	0.00045	-1e-05	3e-05	8e-05	0.00012	0.00016	0.00016	-0.00016	3
10102	0.00045	-1e-05	3e-05	8e-05	0.00012	0.00016	0.00016	-0.00016	3
10103	7e-05	4e-05	7e-05	0.00028	0.00055	0.00041	1e-05	-9e-05	3
10104	7e-05	4e-05	7e-05	0.00028	0.00055	0.00041	1e-05	-9e-05	3
10105	7e-05	4e-05	7e-05	0.00028	0.00055	0.00041	1e-05	-9e-05	3
10106	7e-05	4e-05	7e-05	0.00028	0.00055	0.00041	1e-05	-9e-05	3
10107	7e-05	4e-05	7e-05	0.00028	0.00055	0.00041	1e-05	-9e-05	3
10108	7e-05	4e-05	7e-05	0.00028	0.00055	0.00041	1e-05	-9e-05	3
10109	7e-05	4e-05	7e-05	0.00028	0.00055	0.00041	1e-05	-9e-05	3
10110	7e-05	4e-05	7e-05	0.00028	0.00055	0.00041	1e-05	-9e-05	3
10111	7e-05	4e-05	7e-05	0.00028	0.00055	0.00041	1e-05	-9e-05	3
10112	7e-05	4e-05	7e-05	0.00028	0.00055	0.00041	1e-05	-9e-05	3
10113	7e-05	4e-05	7e-05	0.00028	0.00055	0.00041	1e-05	-9e-05	3
10114	7e-05	4e-05	7e-05	0.00028	0.00055	0.00041	1e-05	-9e-05	3
10115	7e-05	4e-05	7e-05	0.00028	0.00055	0.00041	1e-05	-9e-05	3
10116	7e-05	4e-05	7e-05	0.00028	0.00055	0.00041	1e-05	-9e-05	3
10117	7e-05	4e-05	7e-05	0.00028	0.00055	0.00041	1e-05	-9e-05	3
10118	-9e-05	-9e-05	-7e-05	-0.00012	-0.00014	1e-05	-6e-05	0	3
10119	-0.00048	-1e-05	-6e-05	-0.00016	-0.00036	-0.00037	-0.00031	-9e-05	3
10120	-0.00048	-1e-05	-6e-05	-0.00016	-0.00036	-0.00037	-0.00031	-9e-05	3
10121	-0.00048	-1e-05	-6e-05	-0.00016	-0.00036	-0.00037	-0.00031	-9e-05	3
10122	-0.00048	-1e-05	-6e-05	-0.00016	-0.00036	-0.00037	-0.00031	-9e-05	3
10123	-0.00048	-1e-05	-6e-05	-0.00016	-0.00036	-0.00037	-0.00031	-9e-05	3
10124	-0.00048	-1e-05	-6e-05	-0.00016	-0.00036	-0.00037	-0.00031	-9e-05	3
10125	-0.00048	-1e-05	-6e-05	-0.00016	-0.00036	-0.00037	-0.00031	-9e-05	3
10126	-0.00048	-1e-05	-6e-05	-0.00016	-0.00036	-0.00037	-0.00031	-9e-05	3
10127	-0.00048	-1e-05	-6e-05	-0.00016	-0.00036	-0.00037	-0.00031	-9e-05	3
10128	-0.00048	-1e-05	-6e-05	-0.00016	-0.00036	-0.00037	-0.00031	-9e-05	3
10129	-0.00048	-1e-05	-6e-05	-0.00016	-0.00036	-0.00037	-0.00031	-9e-05	3
10130	-0.00048	-1e-05	-6e-05	-0.00016	-0.00036	-0.00037	-0.00031	-9e-05	3
10131	-0.00048	-1e-05	-6e-05	-0.00016	-0.00036	-0.00037	-0.00031	-9e-05	3
10132	-0.00048	-1e-05	-6e-05	-0.00016	-0.00036	-0.00037	-0.00031	-9e-05	3
10133	-0.00048	-1e-05	-6e-05	-0.00016	-0.00036	-0.00037	-0.00031	-9e-05	3
10134	-0.00048	-1e-05	-6e-05	-0.00016	-0.00036	-0.00037	-0.00031	-9e-05	3
10135	-0.00048	-1e-05	-6e-05	-0.00016	-0.00036	-0.00037	-0.00031	-9e-05	3
10137	-0.00048	-1e-05	-6e-05	-0.00016	-0.00036	-0.00037	-0.00031	-9e-05	3
10139	-0.00048	-1e-05	-6e-05	-0.00016	-0.00036	-0.00037	-0.00031	-9e-05	3
10140	-0.00018	0	0	4e-05	7e-05	-2e-05	-1e-05	-8e-05	3
10141	-0.00013	1e-05	8e-05	0.00017	-7e-05	4e-05	-8e-05	-1e-05	3
10142	0.00072	1e-05	-4e-05	-0.00013	-0.00049	-0.00025	1e-05	0.00011	3
10143	0.00072	1e-05	-4e-05	-0.00013	-0.00049	-0.00025	1e-05	0.00011	3
10144	0.00072	1e-05	-4e-05	-0.00013	-0.00049	-0.00025	1e-05	0.00011	3
10145	0.00072	1e-05	-4e-05	-0.00013	-0.00049	-0.00025	1e-05	0.00011	3
10146	0.00072	1e-05	-4e-05	-0.00013	-0.00049	-0.00025	1e-05	0.00011	3
10147	0.00072	1e-05	-4e-05	-0.00013	-0.00049	-0.00025	1e-05	0.00011	3
10148	0.00072	1e-05	-4e-05	-0.00013	-0.00049	-0.00025	1e-05	0.00011	3
10149	0.00072	1e-05	-4e-05	-0.00013	-0.00049	-0.00025	1e-05	0.00011	3
10150	0.00072	1e-05	-4e-05	-0.00013	-0.00049	-0.00025	1e-05	0.00011	3
10151	0.00072	1e-05	-4e-05	-0.00013	-0.00049	-0.00025	1e-05	0.00011	3
10152	0.00072	1e-05	-4e-05	-0.00013	-0.00049	-0.00025	1e-05	0.00011	3
10153	0.00072	1e-05	-4e-05	-0.00013	-0.00049	-0.00025	1e-05	0.00011	3
10154	0.00036	-2e-05	-5e-05	-6e-05	-0.00031	-0.00022	-9e-05	3e-05	3
10155	0.00036	-2e-05	-5e-05	-6e-05	-0.00031	-0.00022	-9e-05	3e-05	3
10156	0.00036	-2e-05	-5e-05	-6e-05	-0.00031	-0.00022	-9e-05	3e-05	3
10157	0.00036	-2e-05	-5e-05	-6e-05	-0.00031	-0.00022	-9e-05	3e-05	3
10158	0.00036	-2e-05	-5e-05	-6e-05	-0.00031	-0.00022	-9e-05	3e-05	3
10159	0.00036	-2e-05	-5e-05	-6e-05	-0.00031	-0.00022	-9e-05	3e-05	3
10160	0.00036	-2e-05	-5e-05	-6e-05	-0.00031	-0.00022	-9e-05	3e-05	3
10161	0.00036	-2e-05	-5e-05	-6e-05	-0.00031	-0.00022	-9e-05	3e-05	3
10162	0.00036	-2e-05	-5e-05	-6e-05	-0.00031	-0.00022	-9e-05	3e-05	3
10163	0.0003	6e-05	-1e-05	-6e-05	-0.00035	-2e-05	8e-05	-5e-05	3
10164	0.0003	6e-05	-1e-05	-6e-05	-0.00035	-2e-05	8e-05	-5e-05	3
10165	0.0003	6e-05	-1e-05	-6e-05	-0.00035	-2e-05	8e-05	-5e-05	3
10167	0.0003	6e-05	-1e-05	-6e-05	-0.00035	-2e-05	8e-05	-5e-05	3
10168	0.0003	6e-05	-1e-05	-6e-05	-0.00035	-2e-05	8e-05	-5e-05	3
10169	0.0003	6e-05	-1e-05	-6e-05	-0.00035	-2e-05	8e-05	-5e-05	3
10170	0.0003	6e-05	-1e-05	-6e-05	-0.00035	-2e-05	8e-05	-5e-05	3
10171	0.0003	6e-05	-1e-05	-6e-05	-0.00035	-2e-05	8e-05	-5e-05	3
10172	0.0003	6e-05	-1e-05	-6e-05	-0.00035	-2e-05	8e-05	-5e-05	3
10173	0.0003	6e-05	-1e-05	-6e-05	-0.00035	-2e-05	8e-05	-5e-05	3
10174	0.0003	6e-05	-1e-05	-6e-05	-0.00035	-2e-05	8e-05	-5e-05	3
10175	0.0003	6e-05	-1e-05	-6e-05	-0.00035	-2e-05	8e-05	-5e-05	3
10176	0.0003	6e-05	-1e-05	-6e-05	-0.00035	-2e-05	8e-05	-5e-05	3
10177	0.0003	6e-05	-1e-05	-6e-05	-0.00035	-2e-05	8e-05	-5e-05	3
10178	-4e-05	0	0.0001	0.0001	0.00015	0.00021	-3e-05	0.00013	3
10179	0.00013	0	1e-05	0.00016	0	0.00011	0	-2e-05	3
10180	0.00031	-2e-05	2e-05	-0.0002	-0.00031	-0.00029	-6e-05	5e-05	3
10181	0.00031	-2e-05	2e-05	-0.0002	-0.00031	-0.00029	-6e-05	5e-05	3
10182	0.00031	-2e-05	2e-05	-0.0002	-0.00031	-0.00029	-6e-05	5e-05	3
10183	0.00031	-2e-05	2e-05	-0.0002	-0.00031	-0.00029	-6e-05	5e-05	3
10184	0.00031	-2e-05	2e-05	-0.0002	-0.00031	-0.00029	-6e-05	5e-05	3
10185	0.00031	-2e-05	2e-05	-0.0002	-0.00031	-0.00029	-6e-05	5e-05	3
10187	0.00031	-2e-05	2e-05	-0.0002	-0.00031	-0.00029	-6e-05	5e-05	3
10189	0.00031	-2e-05	2e-05	-0.0002	-0.00031	-0.00029	-6e-05	5e-05	3
10190	0.00031	-2e-05	2e-05	-0.0002	-0.00031	-0.00029	-6e-05	5e-05	3
10191	0.00031	-2e-05	2e-05	-0.0002	-0.00031	-0.00029	-6e-05	5e-05	3
10192	0.00031	-2e-05	2e-05	-0.0002	-0.00031	-0.00029	-6e-05	5e-05	3
10193	0.00031	-2e-05	2e-05	-0.0002	-0.00031	-0.00029	-6e-05	5e-05	3
10194	0.00031	-2e-05	2e-05	-0.0002	-0.00031	-0.00029	-6e-05	5e-05	3
10195	0.00031	-2e-05	2e-05	-0.0002	-0.00031	-0.00029	-6e-05	5e-05	3
10196	0.00031	-2e-05	2e-05	-0.0002	-0.00031	-0.00029	-6e-05	5e-05	3
10197	0.00031	-2e-05	2e-05	-0.0002	-0.00031	-0.00029	-6e-05	5e-05	3
10198	0.00031	-2e-05	2e-05	-0.0002	-0.00031	-0.00029	-6e-05	5e-05	3
10199	0.00031	-2e-05	2e-05	-0.0002	-0.00031	-0.00029	-6e-05	5e-05	3
10200	0.00031	-2e-05	2e-05	-0.0002	-0.00031	-0.00029	-6e-05	5e-05	3
10201	-0.00035	0	2e-05	-3e-05	0.00022	-3e-05	-0.00034	-2e-05	3
10202	-0.00035	-8e-05	-1e-05	-8e-05	-0.00046	7e-05	-4e-05	-5e-05	3
10203	-0.00035	-8e-05	-1e-05	-8e-05	-0.00046	7e-05	-4e-05	-5e-05	3
10204	-0.00035	-8e-05	-1e-05	-8e-05	-0.00046	7e-05	-4e-05	-5e-05	3
10205	-0.00035	-8e-05	-1e-05	-8e-05	-0.00046	7e-05	-4e-05	-5e-05	3
10206	-0.00035	-8e-05	-1e-05	-8e-05	-0.00046	7e-05	-4e-05	-5e-05	3
10207	-0.00035	-8e-05	-1e-05	-8e-05	-0.00046	7e-05	-4e-05	-5e-05	3
10208	-0.00035	-8e-05	-1e-05	-8e-05	-0.00046	7e-05	-4e-05	-5e-05	3
10209	-0.00035	-8e-05	-1e-05	-8e-05	-0.00046	7e-05	-4e-05	-5e-05	3
10210	-0.00035	-8e-05	-1e-05	-8e-05	-0.00046	7e-05	-4e-05	-5e-05	3
10211	-0.00035	-8e-05	-1e-05	-8e-05	-0.00046	7e-05	-4e-05	-5e-05	3
10212	-0.00035	-8e-05	-1e-05	-8e-05	-0.00046	7e-05	-4e-05	-5e-05	3
10213	-0.00035	-8e-05	-1e-05	-8e-05	-0.00046	7e-05	-4e-05	-5e-05	3
10214	-0.00039	-6e-05	-7e-05	-5e-05	-0.0001	-0.00017	-6e-05	-4e-05	3
10215	-0.00039	-6e-05	-7e-05	-5e-05	-0.0001	-0.00017	-6e-05	-4e-05	3
10216	-0.00039	-6e-05	-7e-05	-5e-05	-0.0001	-0.00017	-6e-05	-4e-05	3
10217	-0.00039	-6e-05	-7e-05	-5e-05	-0.0001	-0.00017	-6e-05	-4e-05	3
10218	-0.00039	-6e-05	-7e-05	-5e-05	-0.0001	-0.00017	-6e-05	-4e-05	3
10219	-0.00039	-6e-05	-7e-05	-5e-05	-0.0001	-0.00017	-6e-05	-4e-05	3
10220	-0.00039	-6e-05	-7e-05	-5e-05	-0.0001	-0.00017	-6e-05	-4e-05	3
10221	-0.00039	-6e-05	-7e-05	-5e-05	-0.0001	-0.00017	-6e-05	-4e-05	3
10222	-0.00039	-6e-05	-7e-05	-5e-05	-0.0001	-0.00017	-6e-05	-4e-05	3
10223	-1e-05	-2e-05	-3e-05	-2e-05	-0.00015	-0.00022	-4e-05	-5e-05	3
10224	-1e-05	-2e-05	-3e-05	-2e-05	-0.00015	-0.00022	-4e-05	-5e-05	3
10225	-1e-05	-2e-05	-3e-05	-2e-05	-0.00015	-0.00022	-4e-05	-5e-05	3
10226	-1e-05	-2e-05	-3e-05	-2e-05	-0.00015	-0.00022	-4e-05	-5e-05	3
10227	-1e-05	-2e-05	-3e-05	-2e-05	-0.00015	-0.00022	-4e-05	-5e-05	3
10228	-1e-05	-2e-05	-3e-05	-2e-05	-0.00015	-0.00022	-4e-05	-5e-05	3
10229	-1e-05	-2e-05	-3e-05	-2e-05	-0.00015	-0.00022	-4e-05	-5e-05	3
10230	-1e-05	-2e-05	-3e-05	-2e-05	-0.00015	-0.00022	-4e-05	-5e-05	3
10231	-1e-05	-2e-05	-3e-05	-2e-05	-0.00015	-0.00022	-4e-05	-5e-05	3
10232	-1e-05	-2e-05	-3e-05	-2e-05	-0.00015	-0.00022	-4e-05	-5e-05	3
10233	-1e-05	-2e-05	-3e-05	-2e-05	-0.00015	-0.00022	-4e-05	-5e-05	3
10234	-1e-05	-2e-05	-3e-05	-2e-05	-0.00015	-0.00022	-4e-05	-5e-05	3
10235	-1e-05	-2e-05	-3e-05	-2e-05	-0.00015	-0.00022	-4e-05	-5e-05	3
10237	-1e-05	-2e-05	-3e-05	-2e-05	-0.00015	-0.00022	-4e-05	-5e-05	3
10239	0.00056	0.0001	-2e-05	3e-05	-1e-05	1e-05	1e-05	8e-05	3
10240	-0.00068	-0.0002	-1e-05	0.00011	7e-05	-5e-05	0.00015	5e-05	3
10241	-0.00068	-0.0002	-1e-05	0.00011	7e-05	-5e-05	0.00015	5e-05	3
10242	-0.00068	-0.0002	-1e-05	0.00011	7e-05	-5e-05	0.00015	5e-05	3
10243	-0.00068	-0.0002	-1e-05	0.00011	7e-05	-5e-05	0.00015	5e-05	3
10244	-0.00068	-0.0002	-1e-05	0.00011	7e-05	-5e-05	0.00015	5e-05	3
10245	-0.00068	-0.0002	-1e-05	0.00011	7e-05	-5e-05	0.00015	5e-05	3
10246	-0.00068	-0.0002	-1e-05	0.00011	7e-05	-5e-05	0.00015	5e-05	3
10247	-0.00068	-0.0002	-1e-05	0.00011	7e-05	-5e-05	0.00015	5e-05	3
10248	-0.00068	-0.0002	-1e-05	0.00011	7e-05	-5e-05	0.00015	5e-05	3
10249	-0.00068	-0.0002	-1e-05	0.00011	7e-05	-5e-05	0.00015	5e-05	3
10250	-0.00068	-0.0002	-1e-05	0.00011	7e-05	-5e-05	0.00015	5e-05	3
10251	-0.00068	-0.0002	-1e-05	0.00011	7e-05	-5e-05	0.00015	5e-05	3
10252	-0.00068	-0.0002	-1e-05	0.00011	7e-05	-5e-05	0.00015	5e-05	3
10253	-0.00068	-0.0002	-1e-05	0.00011	7e-05	-5e-05	0.00015	5e-05	3
10254	-0.00068	-0.0002	-1e-05	0.00011	7e-05	-5e-05	0.00015	5e-05	3
10255	-0.00068	-0.0002	-1e-05	0.00011	7e-05	-5e-05	0.00015	5e-05	3
10256	-0.00068	-0.0002	-1e-05	0.00011	7e-05	-5e-05	0.00015	5e-05	3
10257	-0.00068	-0.0002	-1e-05	0.00011	7e-05	-5e-05	0.00015	5e-05	3
10258	-0.00068	-0.0002	-1e-05	0.00011	7e-05	-5e-05	0.00015	5e-05	3
10259	-0.00068	-0.0002	-1e-05	0.00011	7e-05	-5e-05	0.00015	5e-05	3
10260	1e-05	-8e-05	-0.00011	-0.00048	-0.00087	-0.00047	-0.00021	-0.00014	3
10261	-9e-05	1e-05	-4e-05	0.00022	0.00029	0.00052	5e-05	1e-05	3
10262	0.00024	0.0001	-4e-05	-5e-05	-0.00027	-0.0005	-3e-05	-2e-05	3
10263	0.00024	0.0001	-4e-05	-5e-05	-0.00027	-0.0005	-3e-05	-2e-05	3
10264	0.00024	0.0001	-4e-05	-5e-05	-0.00027	-0.0005	-3e-05	-2e-05	3
10265	0.00024	0.0001	-4e-05	-5e-05	-0.00027	-0.0005	-3e-05	-2e-05	3
10266	0.00024	0.0001	-4e-05	-5e-05	-0.00027	-0.0005	-3e-05	-2e-05	3
10267	0.00024	0.0001	-4e-05	-5e-05	-0.00027	-0.0005	-3e-05	-2e-05	3
10268	0.00024	0.0001	-4e-05	-5e-05	-0.00027	-0.0005	-3e-05	-2e-05	3
10269	0.00024	0.0001	-4e-05	-5e-05	-0.00027	-0.0005	-3e-05	-2e-05	3
10270	0.00024	0.0001	-4e-05	-5e-05	-0.00027	-0.0005	-3e-05	-2e-05	3
10271	0.00024	0.0001	-4e-05	-5e-05	-0.00027	-0.0005	-3e-05	-2e-05	3
10272	0.00024	0.0001	-4e-05	-5e-05	-0.00027	-0.0005	-3e-05	-2e-05	3
10273	0.00024	0.0001	-4e-05	-5e-05	-0.00027	-0.0005	-3e-05	-2e-05	3
10274	0.00024	0.0001	-4e-05	-5e-05	-0.00027	-0.0005	-3e-05	-2e-05	3
10275	0.00024	0.0001	-4e-05	-5e-05	-0.00027	-0.0005	-3e-05	-2e-05	3
10276	0.00024	0.0001	-4e-05	-5e-05	-0.00027	-0.0005	-3e-05	-2e-05	3
10277	0.00024	0.0001	-4e-05	-5e-05	-0.00027	-0.0005	-3e-05	-2e-05	3
10278	0.00024	0.0001	-4e-05	-5e-05	-0.00027	-0.0005	-3e-05	-2e-05	3
10279	0.00024	0.0001	-4e-05	-5e-05	-0.00027	-0.0005	-3e-05	-2e-05	3
10280	0.00024	0.0001	-4e-05	-5e-05	-0.00027	-0.0005	-3e-05	-2e-05	3
10281	0.00024	0.0001	-4e-05	-5e-05	-0.00027	-0.0005	-3e-05	-2e-05	3
10282	0.00024	0.0001	-4e-05	-5e-05	-0.00027	-0.0005	-3e-05	-2e-05	3
10283	-0.0001	-0.00025	-0.00018	-0.00018	-0.00025	-7e-05	0.00047	-3e-05	3
10284	0.00012	-0.00016	-8e-05	-6e-05	-0.00026	-4e-05	-0.0006	2e-05	3
10285	-0.00058	-0.00011	1e-05	0.00018	0.00029	0.0004	0.00048	-5e-05	3
10287	-0.00058	-0.00011	1e-05	0.00018	0.00029	0.0004	0.00048	-5e-05	3
10289	-0.00058	-0.00011	1e-05	0.00018	0.00029	0.0004	0.00048	-5e-05	3
10290	-0.00058	-0.00011	1e-05	0.00018	0.00029	0.0004	0.00048	-5e-05	3
10291	-0.00058	-0.00011	1e-05	0.00018	0.00029	0.0004	0.00048	-5e-05	3
10292	-0.00058	-0.00011	1e-05	0.00018	0.00029	0.0004	0.00048	-5e-05	3
10293	-0.00058	-0.00011	1e-05	0.00018	0.00029	0.0004	0.00048	-5e-05	3
10294	-0.00058	-0.00011	1e-05	0.00018	0.00029	0.0004	0.00048	-5e-05	3
10295	-0.00058	-0.00011	1e-05	0.00018	0.00029	0.0004	0.00048	-5e-05	3
10296	-0.00058	-0.00011	1e-05	0.00018	0.00029	0.0004	0.00048	-5e-05	3
10297	-0.00058	-0.00011	1e-05	0.00018	0.00029	0.0004	0.00048	-5e-05	3
10298	0.00026	0.00015	-2e-05	-0.00023	-0.00018	9e-05	-0.00012	2e-05	3
10299	7e-05	4e-05	4e-05	-1e-05	0.00013	1e-05	-9e-05	-1e-05	3
10300	7e-05	4e-05	4e-05	-1e-05	0.00013	1e-05	-9e-05	-1e-05	3
10301	7e-05	4e-05	4e-05	-1e-05	0.00013	1e-05	-9e-05	-1e-05	3
10302	7e-05	4e-05	4e-05	-1e-05	0.00013	1e-05	-9e-05	-1e-05	3
10303	7e-05	4e-05	4e-05	-1e-05	0.00013	1e-05	-9e-05	-1e-05	3
10304	7e-05	4e-05	4e-05	-1e-05	0.00013	1e-05	-9e-05	-1e-05	3
10305	7e-05	4e-05	4e-05	-1e-05	0.00013	1e-05	-9e-05	-1e-05	3
10306	7e-05	4e-05	4e-05	-1e-05	0.00013	1e-05	-9e-05	-1e-05	3
10307	7e-05	4e-05	4e-05	-1e-05	0.00013	1e-05	-9e-05	-1e-05	3
10308	7e-05	4e-05	4e-05	-1e-05	0.00013	1e-05	-9e-05	-1e-05	3
10309	7e-05	4e-05	4e-05	-1e-05	0.00013	1e-05	-9e-05	-1e-05	3
10310	7e-05	4e-05	4e-05	-1e-05	0.00013	1e-05	-9e-05	-1e-05	3
10311	7e-05	4e-05	4e-05	-1e-05	0.00013	1e-05	-9e-05	-1e-05	3
10312	7e-05	4e-05	4e-05	-1e-05	0.00013	1e-05	-9e-05	-1e-05	3
10313	7e-05	4e-05	4e-05	-1e-05	0.00013	1e-05	-9e-05	-1e-05	3
10314	7e-05	4e-05	4e-05	-1e-05	0.00013	1e-05	-9e-05	-1e-05	3
10315	7e-05	4e-05	4e-05	-1e-05	0.00013	1e-05	-9e-05	-1e-05	3
10316	7e-05	4e-05	4e-05	-1e-05	0.00013	1e-05	-9e-05	-1e-05	3
10317	7e-05	4e-05	4e-05	-1e-05	0.00013	1e-05	-9e-05	-1e-05	3
10318	7e-05	4e-05	4e-05	-1e-05	0.00013	1e-05	-9e-05	-1e-05	3
10319	7e-05	4e-05	4e-05	-1e-05	0.00013	1e-05	-9e-05	-1e-05	3
10320	-0.0002	-4e-05	4e-05	2e-05	-4e-05	-3e-05	5e-05	0	3
10321	-0.0002	-4e-05	4e-05	2e-05	-4e-05	-3e-05	5e-05	0	3
10322	-9e-05	0	-2e-05	-5e-05	4e-05	0.00038	-6e-05	1e-05	3
10323	-9e-05	0	-2e-05	-5e-05	4e-05	0.00038	-6e-05	1e-05	3
10324	-9e-05	0	-2e-05	-5e-05	4e-05	0.00038	-6e-05	1e-05	3
10325	-9e-05	0	-2e-05	-5e-05	4e-05	0.00038	-6e-05	1e-05	3
10326	-9e-05	0	-2e-05	-5e-05	4e-05	0.00038	-6e-05	1e-05	3
10327	-9e-05	0	-2e-05	-5e-05	4e-05	0.00038	-6e-05	1e-05	3
10328	-9e-05	0	-2e-05	-5e-05	4e-05	0.00038	-6e-05	1e-05	3
10329	-9e-05	0	-2e-05	-5e-05	4e-05	0.00038	-6e-05	1e-05	3
10330	-9e-05	0	-2e-05	-5e-05	4e-05	0.00038	-6e-05	1e-05	3
10331	-9e-05	0	-2e-05	-5e-05	4e-05	0.00038	-6e-05	1e-05	3
10332	-9e-05	0	-2e-05	-5e-05	4e-05	0.00038	-6e-05	1e-05	3
10333	-9e-05	0	-2e-05	-5e-05	4e-05	0.00038	-6e-05	1e-05	3
10334	-9e-05	0	-2e-05	-5e-05	4e-05	0.00038	-6e-05	1e-05	3
10335	-9e-05	0	-2e-05	-5e-05	4e-05	0.00038	-6e-05	1e-05	3
10337	-9e-05	0	-2e-05	-5e-05	4e-05	0.00038	-6e-05	1e-05	3
10339	-9e-05	0	-2e-05	-5e-05	4e-05	0.00038	-6e-05	1e-05	3
10340	-9e-05	0	-2e-05	-5e-05	4e-05	0.00038	-6e-05	1e-05	3
10341	-9e-05	0	-2e-05	-5e-05	4e-05	0.00038	-6e-05	1e-05	3
10342	-9e-05	0	-2e-05	-5e-05	4e-05	0.00038	-6e-05	1e-05	3
10343	0.0006	0.0001	1e-05	-2e-05	-6e-05	-0.00018	-3e-05	-9e-05	3
10344	3e-05	0	-1e-05	-0.00012	-0.00031	-2e-05	-3e-05	-1e-05	3
10345	0.00037	0	-4e-05	6e-05	-9e-05	-0.00023	-0.0001	-6e-05	3
10346	0.00037	0	-4e-05	6e-05	-9e-05	-0.00023	-0.0001	-6e-05	3
10347	0.00037	0	-4e-05	6e-05	-9e-05	-0.00023	-0.0001	-6e-05	3
10348	0.00037	0	-4e-05	6e-05	-9e-05	-0.00023	-0.0001	-6e-05	3
10349	0.00037	0	-4e-05	6e-05	-9e-05	-0.00023	-0.0001	-6e-05	3
10350	0.00037	0	-4e-05	6e-05	-9e-05	-0.00023	-0.0001	-6e-05	3
10351	0.00037	0	-4e-05	6e-05	-9e-05	-0.00023	-0.0001	-6e-05	3
10352	0.00037	0	-4e-05	6e-05	-9e-05	-0.00023	-0.0001	-6e-05	3
10353	0.00037	0	-4e-05	6e-05	-9e-05	-0.00023	-0.0001	-6e-05	3
10354	0.00037	0	-4e-05	6e-05	-9e-05	-0.00023	-0.0001	-6e-05	3
10355	0.00037	0	-4e-05	6e-05	-9e-05	-0.00023	-0.0001	-6e-05	3
10356	0.00037	0	-4e-05	6e-05	-9e-05	-0.00023	-0.0001	-6e-05	3
10357	0.00037	0	-4e-05	6e-05	-9e-05	-0.00023	-0.0001	-6e-05	3
10358	-4e-05	-2e-05	-1e-05	-0.00017	9e-05	-7e-05	6e-05	1e-05	3
10359	-3e-05	0	0	-5e-05	1e-05	-0.00018	-5e-05	3e-05	3
10360	-3e-05	0	0	-5e-05	1e-05	-0.00018	-5e-05	3e-05	3
10361	-3e-05	0	0	-5e-05	1e-05	-0.00018	-5e-05	3e-05	3
10362	-3e-05	0	0	-5e-05	1e-05	-0.00018	-5e-05	3e-05	3
10363	-3e-05	0	0	-5e-05	1e-05	-0.00018	-5e-05	3e-05	3
10364	-3e-05	0	0	-5e-05	1e-05	-0.00018	-5e-05	3e-05	3
10365	-3e-05	0	0	-5e-05	1e-05	-0.00018	-5e-05	3e-05	3
10366	-3e-05	0	0	-5e-05	1e-05	-0.00018	-5e-05	3e-05	3
10367	-3e-05	0	0	-5e-05	1e-05	-0.00018	-5e-05	3e-05	3
10368	-3e-05	0	0	-5e-05	1e-05	-0.00018	-5e-05	3e-05	3
10369	-3e-05	0	0	-5e-05	1e-05	-0.00018	-5e-05	3e-05	3
10370	-3e-05	0	0	-5e-05	1e-05	-0.00018	-5e-05	3e-05	3
10371	-3e-05	0	0	-5e-05	1e-05	-0.00018	-5e-05	3e-05	3
10372	-3e-05	0	0	-5e-05	1e-05	-0.00018	-5e-05	3e-05	3
10373	-3e-05	0	0	-5e-05	1e-05	-0.00018	-5e-05	3e-05	3
10374	-3e-05	0	0	-5e-05	1e-05	-0.00018	-5e-05	3e-05	3
10375	-3e-05	0	0	-5e-05	1e-05	-0.00018	-5e-05	3e-05	3
10376	-3e-05	0	0	-5e-05	1e-05	-0.00018	-5e-05	3e-05	3
10377	-3e-05	0	0	-5e-05	1e-05	-0.00018	-5e-05	3e-05	3
10378	-3e-05	0	0	-5e-05	1e-05	-0.00018	-5e-05	3e-05	3
10379	-3e-05	0	0	-5e-05	1e-05	-0.00018	-5e-05	3e-05	3
10380	-0.00013	-1e-05	5e-05	0.00021	0.00012	0.00027	5e-05	0.00013	3
10381	-0.00013	-1e-05	5e-05	0.00021	0.00012	0.00027	5e-05	0.00013	3
10382	2e-05	-4e-05	-2e-05	2e-05	-0.00044	-8e-05	-0.00041	-0.00012	3
10383	2e-05	-4e-05	-2e-05	2e-05	-0.00044	-8e-05	-0.00041	-0.00012	3
10384	2e-05	-4e-05	-2e-05	2e-05	-0.00044	-8e-05	-0.00041	-0.00012	3
10385	2e-05	-4e-05	-2e-05	2e-05	-0.00044	-8e-05	-0.00041	-0.00012	3
10387	2e-05	-4e-05	-2e-05	2e-05	-0.00044	-8e-05	-0.00041	-0.00012	3
10389	2e-05	-4e-05	-2e-05	2e-05	-0.00044	-8e-05	-0.00041	-0.00012	3
10390	2e-05	-4e-05	-2e-05	2e-05	-0.00044	-8e-05	-0.00041	-0.00012	3
10391	2e-05	-4e-05	-2e-05	2e-05	-0.00044	-8e-05	-0.00041	-0.00012	3
10392	2e-05	-4e-05	-2e-05	2e-05	-0.00044	-8e-05	-0.00041	-0.00012	3
10393	2e-05	-4e-05	-2e-05	2e-05	-0.00044	-8e-05	-0.00041	-0.00012	3
10394	2e-05	-4e-05	-2e-05	2e-05	-0.00044	-8e-05	-0.00041	-0.00012	3
10395	2e-05	-4e-05	-2e-05	2e-05	-0.00044	-8e-05	-0.00041	-0.00012	3
10396	2e-05	-4e-05	-2e-05	2e-05	-0.00044	-8e-05	-0.00041	-0.00012	3
10397	2e-05	-4e-05	-2e-05	2e-05	-0.00044	-8e-05	-0.00041	-0.00012	3
10398	2e-05	-4e-05	-2e-05	2e-05	-0.00044	-8e-05	-0.00041	-0.00012	3
10399	2e-05	-4e-05	-2e-05	2e-05	-0.00044	-8e-05	-0.00041	-0.00012	3
10400	2e-05	-4e-05	-2e-05	2e-05	-0.00044	-8e-05	-0.00041	-0.00012	3
10401	2e-05	-4e-05	-2e-05	2e-05	-0.00044	-8e-05	-0.00041	-0.00012	3
10402	2e-05	-4e-05	-2e-05	2e-05	-0.00044	-8e-05	-0.00041	-0.00012	3
10403	-0.00059	-3e-05	-6e-05	0	-0.00026	-0.0003	-8e-05	-3e-05	3
10404	-0.00016	0	-2e-05	-1e-05	4e-05	5e-05	5e-05	0.0001	3
10405	0.00014	7e-05	0	3e-05	-0.00017	0.00012	-8e-05	0.00021	3
10406	0.00014	7e-05	0	3e-05	-0.00017	0.00012	-8e-05	0.00021	3
10407	0.00014	7e-05	0	3e-05	-0.00017	0.00012	-8e-05	0.00021	3
10408	0.00014	7e-05	0	3e-05	-0.00017	0.00012	-8e-05	0.00021	3
10409	0.00014	7e-05	0	3e-05	-0.00017	0.00012	-8e-05	0.00021	3
10410	0.00014	7e-05	0	3e-05	-0.00017	0.00012	-8e-05	0.00021	3
10411	0.00014	7e-05	0	3e-05	-0.00017	0.00012	-8e-05	0.00021	3
10412	0.00014	7e-05	0	3e-05	-0.00017	0.00012	-8e-05	0.00021	3
10413	0.00014	7e-05	0	3e-05	-0.00017	0.00012	-8e-05	0.00021	3
10414	0.00014	7e-05	0	3e-05	-0.00017	0.00012	-8e-05	0.00021	3
10415	0.00014	7e-05	0	3e-05	-0.00017	0.00012	-8e-05	0.00021	3
10416	0.00014	7e-05	0	3e-05	-0.00017	0.00012	-8e-05	0.00021	3
10417	0.00014	7e-05	0	3e-05	-0.00017	0.00012	-8e-05	0.00021	3
10418	6e-05	-1e-05	3e-05	0	-7e-05	-0.00019	-0.00021	-6e-05	3
10419	2e-05	4e-05	-3e-05	-0.00017	-0.00051	-0.00019	0.00014	-8e-05	3
10420	0.00027	-0.00016	-4e-05	3e-05	0.00071	0.00012	-0.00021	-8e-05	3
10421	0.00027	-0.00016	-4e-05	3e-05	0.00071	0.00012	-0.00021	-8e-05	3
10422	0.00027	-0.00016	-4e-05	3e-05	0.00071	0.00012	-0.00021	-8e-05	3
10423	0.00027	-0.00016	-4e-05	3e-05	0.00071	0.00012	-0.00021	-8e-05	3
10424	0.00027	-0.00016	-4e-05	3e-05	0.00071	0.00012	-0.00021	-8e-05	3
10425	0.00027	-0.00016	-4e-05	3e-05	0.00071	0.00012	-0.00021	-8e-05	3
10426	0.00027	-0.00016	-4e-05	3e-05	0.00071	0.00012	-0.00021	-8e-05	3
10427	0.00027	-0.00016	-4e-05	3e-05	0.00071	0.00012	-0.00021	-8e-05	3
10428	0.00027	-0.00016	-4e-05	3e-05	0.00071	0.00012	-0.00021	-8e-05	3
10429	0.00027	-0.00016	-4e-05	3e-05	0.00071	0.00012	-0.00021	-8e-05	3
10430	0.00027	-0.00016	-4e-05	3e-05	0.00071	0.00012	-0.00021	-8e-05	3
10431	0.00027	-0.00016	-4e-05	3e-05	0.00071	0.00012	-0.00021	-8e-05	3
10432	0.00027	-0.00016	-4e-05	3e-05	0.00071	0.00012	-0.00021	-8e-05	3
10433	0.00027	-0.00016	-4e-05	3e-05	0.00071	0.00012	-0.00021	-8e-05	3
10434	0.00027	-0.00016	-4e-05	3e-05	0.00071	0.00012	-0.00021	-8e-05	3
10435	0.00027	-0.00016	-4e-05	3e-05	0.00071	0.00012	-0.00021	-8e-05	3
10437	0.00027	-0.00016	-4e-05	3e-05	0.00071	0.00012	-0.00021	-8e-05	3
10439	0.00027	-0.00016	-4e-05	3e-05	0.00071	0.00012	-0.00021	-8e-05	3
10440	-0.00012	2e-05	1e-05	-4e-05	-0.00034	-0.00012	3e-05	0.00014	3
10441	0.00011	-3e-05	-1e-05	-6e-05	-6e-05	2e-05	2e-05	2e-05	3
10442	0.0002	2e-05	4e-05	-0.00015	3e-05	4e-05	3e-05	2e-05	3
10443	0.0002	2e-05	4e-05	-0.00015	3e-05	4e-05	3e-05	2e-05	3
10444	0.0002	2e-05	4e-05	-0.00015	3e-05	4e-05	3e-05	2e-05	3
10445	0.0002	2e-05	4e-05	-0.00015	3e-05	4e-05	3e-05	2e-05	3
10446	0.0002	2e-05	4e-05	-0.00015	3e-05	4e-05	3e-05	2e-05	3
10447	0.0002	2e-05	4e-05	-0.00015	3e-05	4e-05	3e-05	2e-05	3
10448	0.0002	2e-05	4e-05	-0.00015	3e-05	4e-05	3e-05	2e-05	3
10449	0.0002	2e-05	4e-05	-0.00015	3e-05	4e-05	3e-05	2e-05	3
10450	0.0002	2e-05	4e-05	-0.00015	3e-05	4e-05	3e-05	2e-05	3
10451	0.0002	2e-05	4e-05	-0.00015	3e-05	4e-05	3e-05	2e-05	3
10452	0.0002	2e-05	4e-05	-0.00015	3e-05	4e-05	3e-05	2e-05	3
10453	0.0002	2e-05	4e-05	-0.00015	3e-05	4e-05	3e-05	2e-05	3
10454	0.0002	2e-05	4e-05	-0.00015	3e-05	4e-05	3e-05	2e-05	3
10455	0.0002	2e-05	4e-05	-0.00015	3e-05	4e-05	3e-05	2e-05	3
10456	0.0002	2e-05	4e-05	-0.00015	3e-05	4e-05	3e-05	2e-05	3
10457	0.0002	2e-05	4e-05	-0.00015	3e-05	4e-05	3e-05	2e-05	3
10458	0.0002	2e-05	4e-05	-0.00015	3e-05	4e-05	3e-05	2e-05	3
10459	0.0002	2e-05	4e-05	-0.00015	3e-05	4e-05	3e-05	2e-05	3
10460	0.0002	2e-05	4e-05	-0.00015	3e-05	4e-05	3e-05	2e-05	3
10461	0.0002	2e-05	4e-05	-0.00015	3e-05	4e-05	3e-05	2e-05	3
10462	0.0002	2e-05	4e-05	-0.00015	3e-05	4e-05	3e-05	2e-05	3
10463	1e-05	-3e-05	-5e-05	-0.00017	-0.00046	-0.00049	-0.00016	-0.00012	3
10464	0.00033	-1e-05	5e-05	0.00014	0.00085	0.00044	0.00022	6e-05	3
10465	-0.00034	-2e-05	-8e-05	-0.00016	-0.00071	-0.00043	-0.00022	-0.00012	3
10466	-0.00034	-2e-05	-8e-05	-0.00016	-0.00071	-0.00043	-0.00022	-0.00012	3
10467	-0.00034	-2e-05	-8e-05	-0.00016	-0.00071	-0.00043	-0.00022	-0.00012	3
10468	-0.00034	-2e-05	-8e-05	-0.00016	-0.00071	-0.00043	-0.00022	-0.00012	3
10469	-0.00034	-2e-05	-8e-05	-0.00016	-0.00071	-0.00043	-0.00022	-0.00012	3
10470	-0.00034	-2e-05	-8e-05	-0.00016	-0.00071	-0.00043	-0.00022	-0.00012	3
10471	-0.00034	-2e-05	-8e-05	-0.00016	-0.00071	-0.00043	-0.00022	-0.00012	3
10472	-0.00034	-2e-05	-8e-05	-0.00016	-0.00071	-0.00043	-0.00022	-0.00012	3
10473	-0.00034	-2e-05	-8e-05	-0.00016	-0.00071	-0.00043	-0.00022	-0.00012	3
10474	-0.00034	-2e-05	-8e-05	-0.00016	-0.00071	-0.00043	-0.00022	-0.00012	3
10475	-0.00034	-2e-05	-8e-05	-0.00016	-0.00071	-0.00043	-0.00022	-0.00012	3
10476	-0.00034	-2e-05	-8e-05	-0.00016	-0.00071	-0.00043	-0.00022	-0.00012	3
10477	-0.00034	-2e-05	-8e-05	-0.00016	-0.00071	-0.00043	-0.00022	-0.00012	3
10478	-0.00034	-2e-05	-8e-05	-0.00016	-0.00071	-0.00043	-0.00022	-0.00012	3
10479	-0.00034	-2e-05	-8e-05	-0.00016	-0.00071	-0.00043	-0.00022	-0.00012	3
10480	-0.00034	-2e-05	-8e-05	-0.00016	-0.00071	-0.00043	-0.00022	-0.00012	3
10481	-0.00034	-2e-05	-8e-05	-0.00016	-0.00071	-0.00043	-0.00022	-0.00012	3
10482	-0.00034	-2e-05	-8e-05	-0.00016	-0.00071	-0.00043	-0.00022	-0.00012	3
10483	-0.00034	-2e-05	-8e-05	-0.00016	-0.00071	-0.00043	-0.00022	-0.00012	3
10484	-0.00034	-2e-05	-8e-05	-0.00016	-0.00071	-0.00043	-0.00022	-0.00012	3
10485	-0.00019	-1e-05	-1e-05	-7e-05	-0.00035	6e-05	1e-05	-2e-05	3
10487	-0.00024	4e-05	4e-05	0.00015	0.0003	0.0001	0.00021	4e-05	3
10489	-0.00024	4e-05	4e-05	0.00015	0.0003	0.0001	0.00021	4e-05	3
10490	-0.00024	4e-05	4e-05	0.00015	0.0003	0.0001	0.00021	4e-05	3
10491	-0.00024	4e-05	4e-05	0.00015	0.0003	0.0001	0.00021	4e-05	3
10492	-0.00024	4e-05	4e-05	0.00015	0.0003	0.0001	0.00021	4e-05	3
10493	-0.00024	4e-05	4e-05	0.00015	0.0003	0.0001	0.00021	4e-05	3
10494	-0.00024	4e-05	4e-05	0.00015	0.0003	0.0001	0.00021	4e-05	3
10495	-0.00024	4e-05	4e-05	0.00015	0.0003	0.0001	0.00021	4e-05	3
10496	-0.00024	4e-05	4e-05	0.00015	0.0003	0.0001	0.00021	4e-05	3
10497	-0.00024	4e-05	4e-05	0.00015	0.0003	0.0001	0.00021	4e-05	3
10498	-0.00024	4e-05	4e-05	0.00015	0.0003	0.0001	0.00021	4e-05	3
10499	-0.00024	4e-05	4e-05	0.00015	0.0003	0.0001	0.00021	4e-05	3
10500	0.00038	4e-05	0.0001	0.00012	0.00026	0.00024	0.00011	8e-05	3
10501	0.00038	4e-05	0.0001	0.00012	0.00026	0.00024	0.00011	8e-05	3
10502	-0.00027	-4e-05	-6e-05	-4e-05	2e-05	-1e-05	4e-05	-0.0001	3
10503	-0.00027	-4e-05	-6e-05	-4e-05	2e-05	-1e-05	4e-05	-0.0001	3
10504	-0.00027	-4e-05	-6e-05	-4e-05	2e-05	-1e-05	4e-05	-0.0001	3
10505	-0.00027	-4e-05	-6e-05	-4e-05	2e-05	-1e-05	4e-05	-0.0001	3
10506	-0.00027	-4e-05	-6e-05	-4e-05	2e-05	-1e-05	4e-05	-0.0001	3
10507	-0.00027	-4e-05	-6e-05	-4e-05	2e-05	-1e-05	4e-05	-0.0001	3
10508	-0.00027	-4e-05	-6e-05	-4e-05	2e-05	-1e-05	4e-05	-0.0001	3
10509	-0.00027	-4e-05	-6e-05	-4e-05	2e-05	-1e-05	4e-05	-0.0001	3
10510	-0.00027	-4e-05	-6e-05	-4e-05	2e-05	-1e-05	4e-05	-0.0001	3
10511	-0.00027	-4e-05	-6e-05	-4e-05	2e-05	-1e-05	4e-05	-0.0001	3
10512	-0.00027	-4e-05	-6e-05	-4e-05	2e-05	-1e-05	4e-05	-0.0001	3
10513	-0.00027	-4e-05	-6e-05	-4e-05	2e-05	-1e-05	4e-05	-0.0001	3
10514	-0.00027	-4e-05	-6e-05	-4e-05	2e-05	-1e-05	4e-05	-0.0001	3
10515	-0.00027	-4e-05	-6e-05	-4e-05	2e-05	-1e-05	4e-05	-0.0001	3
10516	-0.00027	-4e-05	-6e-05	-4e-05	2e-05	-1e-05	4e-05	-0.0001	3
10517	-0.00027	-4e-05	-6e-05	-4e-05	2e-05	-1e-05	4e-05	-0.0001	3
10518	-0.00027	-4e-05	-6e-05	-4e-05	2e-05	-1e-05	4e-05	-0.0001	3
10519	-0.00027	-4e-05	-6e-05	-4e-05	2e-05	-1e-05	4e-05	-0.0001	3
10520	-0.00027	-4e-05	-6e-05	-4e-05	2e-05	-1e-05	4e-05	-0.0001	3
10521	-0.00027	-4e-05	-6e-05	-4e-05	2e-05	-1e-05	4e-05	-0.0001	3
10522	-0.00027	-4e-05	-6e-05	-4e-05	2e-05	-1e-05	4e-05	-0.0001	3
10523	-0.00012	0	-3e-05	8e-05	1e-05	0.00021	7e-05	-1e-05	3
10524	0.00011	3e-05	-1e-05	-2e-05	0.00029	0.00042	-0.0001	-8e-05	3
10525	0.00011	3e-05	-1e-05	-2e-05	0.00029	0.00042	-0.0001	-8e-05	3
10526	0.00011	3e-05	-1e-05	-2e-05	0.00029	0.00042	-0.0001	-8e-05	3
10527	0.00011	3e-05	-1e-05	-2e-05	0.00029	0.00042	-0.0001	-8e-05	3
10528	0.00011	3e-05	-1e-05	-2e-05	0.00029	0.00042	-0.0001	-8e-05	3
10529	0.00011	3e-05	-1e-05	-2e-05	0.00029	0.00042	-0.0001	-8e-05	3
10530	0.00011	3e-05	-1e-05	-2e-05	0.00029	0.00042	-0.0001	-8e-05	3
10531	0.00011	3e-05	-1e-05	-2e-05	0.00029	0.00042	-0.0001	-8e-05	3
10532	0.00011	3e-05	-1e-05	-2e-05	0.00029	0.00042	-0.0001	-8e-05	3
10533	0.00011	3e-05	-1e-05	-2e-05	0.00029	0.00042	-0.0001	-8e-05	3
10534	0.00011	3e-05	-1e-05	-2e-05	0.00029	0.00042	-0.0001	-8e-05	3
10535	0.00011	3e-05	-1e-05	-2e-05	0.00029	0.00042	-0.0001	-8e-05	3
10537	9e-05	-1e-05	0	-7e-05	-0.00021	-8e-05	0.00012	2e-05	3
10539	9e-05	-1e-05	0	-7e-05	-0.00021	-8e-05	0.00012	2e-05	3
10540	9e-05	-1e-05	0	-7e-05	-0.00021	-8e-05	0.00012	2e-05	3
10541	9e-05	-1e-05	0	-7e-05	-0.00021	-8e-05	0.00012	2e-05	3
10542	9e-05	-1e-05	0	-7e-05	-0.00021	-8e-05	0.00012	2e-05	3
10543	9e-05	-1e-05	0	-7e-05	-0.00021	-8e-05	0.00012	2e-05	3
10544	-0.00013	-2e-05	-1e-05	0.00014	0.00036	0.00016	0.00015	1e-05	3
10545	-0.00013	-2e-05	-1e-05	0.00014	0.00036	0.00016	0.00015	1e-05	3
10546	-0.00013	-2e-05	-1e-05	0.00014	0.00036	0.00016	0.00015	1e-05	3
10547	-0.00013	-2e-05	-1e-05	0.00014	0.00036	0.00016	0.00015	1e-05	3
10548	-0.00013	-2e-05	-1e-05	0.00014	0.00036	0.00016	0.00015	1e-05	3
10549	-0.00013	-2e-05	-1e-05	0.00014	0.00036	0.00016	0.00015	1e-05	3
10550	-0.00013	-2e-05	-1e-05	0.00014	0.00036	0.00016	0.00015	1e-05	3
10551	-0.00013	-2e-05	-1e-05	0.00014	0.00036	0.00016	0.00015	1e-05	3
10552	-0.00013	-2e-05	-1e-05	0.00014	0.00036	0.00016	0.00015	1e-05	3
10553	-0.00013	-2e-05	-1e-05	0.00014	0.00036	0.00016	0.00015	1e-05	3
10554	-0.00013	-2e-05	-1e-05	0.00014	0.00036	0.00016	0.00015	1e-05	3
10555	-0.00013	-2e-05	-1e-05	0.00014	0.00036	0.00016	0.00015	1e-05	3
10556	-0.00013	-2e-05	-1e-05	0.00014	0.00036	0.00016	0.00015	1e-05	3
10557	-0.00013	-2e-05	-1e-05	0.00014	0.00036	0.00016	0.00015	1e-05	3
10558	-0.00013	-2e-05	-1e-05	0.00014	0.00036	0.00016	0.00015	1e-05	3
10559	-0.00013	-2e-05	-1e-05	0.00014	0.00036	0.00016	0.00015	1e-05	3
10560	-5e-05	0	-1e-05	0.00013	0.00013	0.00012	3e-05	-4e-05	3
10561	-5e-05	0	-1e-05	0.00013	0.00013	0.00012	3e-05	-4e-05	3
10562	0.00013	2e-05	-2e-05	-1e-05	-0.00034	-0.00034	0.00016	-4e-05	3
10563	0.00013	2e-05	-2e-05	-1e-05	-0.00034	-0.00034	0.00016	-4e-05	3
10564	0.00013	2e-05	-2e-05	-1e-05	-0.00034	-0.00034	0.00016	-4e-05	3
10565	0.00013	2e-05	-2e-05	-1e-05	-0.00034	-0.00034	0.00016	-4e-05	3
10566	0.00013	2e-05	-2e-05	-1e-05	-0.00034	-0.00034	0.00016	-4e-05	3
10567	0.00013	2e-05	-2e-05	-1e-05	-0.00034	-0.00034	0.00016	-4e-05	3
10568	0.00013	2e-05	-2e-05	-1e-05	-0.00034	-0.00034	0.00016	-4e-05	3
10569	0.00013	2e-05	-2e-05	-1e-05	-0.00034	-0.00034	0.00016	-4e-05	3
10570	0.00013	2e-05	-2e-05	-1e-05	-0.00034	-0.00034	0.00016	-4e-05	3
10571	0.00013	2e-05	-2e-05	-1e-05	-0.00034	-0.00034	0.00016	-4e-05	3
10572	0.00013	2e-05	-2e-05	-1e-05	-0.00034	-0.00034	0.00016	-4e-05	3
10573	0.00013	2e-05	-2e-05	-1e-05	-0.00034	-0.00034	0.00016	-4e-05	3
10574	0.00013	2e-05	-2e-05	-1e-05	-0.00034	-0.00034	0.00016	-4e-05	3
10575	0.00013	2e-05	-2e-05	-1e-05	-0.00034	-0.00034	0.00016	-4e-05	3
10576	0.00013	2e-05	-2e-05	-1e-05	-0.00034	-0.00034	0.00016	-4e-05	3
10577	0.00013	2e-05	-2e-05	-1e-05	-0.00034	-0.00034	0.00016	-4e-05	3
10578	0.00013	2e-05	-2e-05	-1e-05	-0.00034	-0.00034	0.00016	-4e-05	3
10579	0.00013	2e-05	-2e-05	-1e-05	-0.00034	-0.00034	0.00016	-4e-05	3
10580	0.00013	2e-05	-2e-05	-1e-05	-0.00034	-0.00034	0.00016	-4e-05	3
10581	0.00013	2e-05	-2e-05	-1e-05	-0.00034	-0.00034	0.00016	-4e-05	3
10582	0.00013	2e-05	-2e-05	-1e-05	-0.00034	-0.00034	0.00016	-4e-05	3
10583	-6e-05	-2e-05	-7e-05	-0.00028	-0.00045	-0.00042	-1e-05	-8e-05	3
10584	0.0001	1e-05	3e-05	3e-05	-2e-05	0.00026	6e-05	7e-05	3
10585	-0.00037	-4e-05	0	-1e-05	8e-05	-4e-05	-0.00013	-3e-05	3
10587	-0.00037	-4e-05	0	-1e-05	8e-05	-4e-05	-0.00013	-3e-05	3
10589	-0.00037	-4e-05	0	-1e-05	8e-05	-4e-05	-0.00013	-3e-05	3
10590	-0.00037	-4e-05	0	-1e-05	8e-05	-4e-05	-0.00013	-3e-05	3
10591	-0.00037	-4e-05	0	-1e-05	8e-05	-4e-05	-0.00013	-3e-05	3
10592	-0.00037	-4e-05	0	-1e-05	8e-05	-4e-05	-0.00013	-3e-05	3
10593	-0.00037	-4e-05	0	-1e-05	8e-05	-4e-05	-0.00013	-3e-05	3
10594	-0.00037	-4e-05	0	-1e-05	8e-05	-4e-05	-0.00013	-3e-05	3
10595	-0.00037	-4e-05	0	-1e-05	8e-05	-4e-05	-0.00013	-3e-05	3
10596	-0.00037	-4e-05	0	-1e-05	8e-05	-4e-05	-0.00013	-3e-05	3
10597	0.00012	-2e-05	-3e-05	4e-05	0.00021	-0.00028	-0.00016	-0.0001	3
10598	0.00012	-2e-05	-3e-05	4e-05	0.00021	-0.00028	-0.00016	-0.0001	3
10599	0.00012	-2e-05	-3e-05	4e-05	0.00021	-0.00028	-0.00016	-0.0001	3
10600	0.00012	-2e-05	-3e-05	4e-05	0.00021	-0.00028	-0.00016	-0.0001	3
10601	0.00012	-2e-05	-3e-05	4e-05	0.00021	-0.00028	-0.00016	-0.0001	3
10602	0.00012	-2e-05	-3e-05	4e-05	0.00021	-0.00028	-0.00016	-0.0001	3
10603	0.00012	-2e-05	-3e-05	4e-05	0.00021	-0.00028	-0.00016	-0.0001	3
10604	0.00066	7e-05	0	-7e-05	6e-05	0.00012	0.0002	0.00012	3
10605	0.00066	7e-05	0	-7e-05	6e-05	0.00012	0.0002	0.00012	3
10606	0.00066	7e-05	0	-7e-05	6e-05	0.00012	0.0002	0.00012	3
10607	0.00066	7e-05	0	-7e-05	6e-05	0.00012	0.0002	0.00012	3
10608	0.00066	7e-05	0	-7e-05	6e-05	0.00012	0.0002	0.00012	3
10609	0.00066	7e-05	0	-7e-05	6e-05	0.00012	0.0002	0.00012	3
10610	0.00066	7e-05	0	-7e-05	6e-05	0.00012	0.0002	0.00012	3
10611	0.00066	7e-05	0	-7e-05	6e-05	0.00012	0.0002	0.00012	3
10612	0.00066	7e-05	0	-7e-05	6e-05	0.00012	0.0002	0.00012	3
10613	0.00066	7e-05	0	-7e-05	6e-05	0.00012	0.0002	0.00012	3
10614	0.00066	7e-05	0	-7e-05	6e-05	0.00012	0.0002	0.00012	3
10615	0.00066	7e-05	0	-7e-05	6e-05	0.00012	0.0002	0.00012	3
10616	0.00066	7e-05	0	-7e-05	6e-05	0.00012	0.0002	0.00012	3
10617	0.00066	7e-05	0	-7e-05	6e-05	0.00012	0.0002	0.00012	3
10618	0.00066	7e-05	0	-7e-05	6e-05	0.00012	0.0002	0.00012	3
10619	0.00066	7e-05	0	-7e-05	6e-05	0.00012	0.0002	0.00012	3
10620	-7e-05	4e-05	8e-05	0.0002	0.00048	0.0002	2e-05	-5e-05	3
10621	-7e-05	4e-05	8e-05	0.0002	0.00048	0.0002	2e-05	-5e-05	3
10622	0.00016	-4e-05	1e-05	-7e-05	-0.00035	-0.00036	-3e-05	7e-05	3
10623	0.00016	-4e-05	1e-05	-7e-05	-0.00035	-0.00036	-3e-05	7e-05	3
10624	0.00016	-4e-05	1e-05	-7e-05	-0.00035	-0.00036	-3e-05	7e-05	3
10625	0.00016	-4e-05	1e-05	-7e-05	-0.00035	-0.00036	-3e-05	7e-05	3
10626	0.00016	-4e-05	1e-05	-7e-05	-0.00035	-0.00036	-3e-05	7e-05	3
10627	0.00016	-4e-05	1e-05	-7e-05	-0.00035	-0.00036	-3e-05	7e-05	3
10628	0.00016	-4e-05	1e-05	-7e-05	-0.00035	-0.00036	-3e-05	7e-05	3
10629	0.00016	-4e-05	1e-05	-7e-05	-0.00035	-0.00036	-3e-05	7e-05	3
10630	0.00016	-4e-05	1e-05	-7e-05	-0.00035	-0.00036	-3e-05	7e-05	3
10631	0.00016	-4e-05	1e-05	-7e-05	-0.00035	-0.00036	-3e-05	7e-05	3
10632	0.00016	-4e-05	1e-05	-7e-05	-0.00035	-0.00036	-3e-05	7e-05	3
10633	0.00016	-4e-05	1e-05	-7e-05	-0.00035	-0.00036	-3e-05	7e-05	3
10634	0.00016	-4e-05	1e-05	-7e-05	-0.00035	-0.00036	-3e-05	7e-05	3
10635	0.00016	-4e-05	1e-05	-7e-05	-0.00035	-0.00036	-3e-05	7e-05	3
10637	0.00016	-4e-05	1e-05	-7e-05	-0.00035	-0.00036	-3e-05	7e-05	3
10639	0.00016	-4e-05	1e-05	-7e-05	-0.00035	-0.00036	-3e-05	7e-05	3
10640	0.00016	-4e-05	1e-05	-7e-05	-0.00035	-0.00036	-3e-05	7e-05	3
10641	0.00016	-4e-05	1e-05	-7e-05	-0.00035	-0.00036	-3e-05	7e-05	3
10642	0.00016	-4e-05	1e-05	-7e-05	-0.00035	-0.00036	-3e-05	7e-05	3
10643	0	-4e-05	-4e-05	5e-05	-3e-05	-0.00026	-8e-05	-4e-05	3
10644	-2e-05	9e-05	0.00011	0.00021	0.00046	0.00052	0	4e-05	3
10645	-0.00055	-4e-05	-2e-05	8e-05	0.0001	-9e-05	-5e-05	-0.0002	3
10646	-0.00055	-4e-05	-2e-05	8e-05	0.0001	-9e-05	-5e-05	-0.0002	3
10647	-0.00055	-4e-05	-2e-05	8e-05	0.0001	-9e-05	-5e-05	-0.0002	3
10648	-0.00055	-4e-05	-2e-05	8e-05	0.0001	-9e-05	-5e-05	-0.0002	3
10649	-0.00055	-4e-05	-2e-05	8e-05	0.0001	-9e-05	-5e-05	-0.0002	3
10650	-0.00055	-4e-05	-2e-05	8e-05	0.0001	-9e-05	-5e-05	-0.0002	3
10651	-0.00055	-4e-05	-2e-05	8e-05	0.0001	-9e-05	-5e-05	-0.0002	3
10652	-0.00055	-4e-05	-2e-05	8e-05	0.0001	-9e-05	-5e-05	-0.0002	3
10653	-0.00055	-4e-05	-2e-05	8e-05	0.0001	-9e-05	-5e-05	-0.0002	3
10654	-0.00055	-4e-05	-2e-05	8e-05	0.0001	-9e-05	-5e-05	-0.0002	3
10655	-0.00055	-4e-05	-2e-05	8e-05	0.0001	-9e-05	-5e-05	-0.0002	3
10656	-0.00055	-4e-05	-2e-05	8e-05	0.0001	-9e-05	-5e-05	-0.0002	3
10657	-0.00011	-2e-05	-1e-05	8e-05	0.00025	0.00021	-3e-05	6e-05	3
10658	-0.00011	-2e-05	-1e-05	8e-05	0.00025	0.00021	-3e-05	6e-05	3
10659	-0.00011	-2e-05	-1e-05	8e-05	0.00025	0.00021	-3e-05	6e-05	3
10660	-0.00011	-2e-05	-1e-05	8e-05	0.00025	0.00021	-3e-05	6e-05	3
10661	-0.00011	-2e-05	-1e-05	8e-05	0.00025	0.00021	-3e-05	6e-05	3
10662	-0.00011	-2e-05	-1e-05	8e-05	0.00025	0.00021	-3e-05	6e-05	3
10663	-0.00011	-2e-05	-1e-05	8e-05	0.00025	0.00021	-3e-05	6e-05	3
10664	8e-05	4e-05	0	1e-05	-0.00013	0.00026	-6e-05	-1e-05	3
10665	8e-05	4e-05	0	1e-05	-0.00013	0.00026	-6e-05	-1e-05	3
10666	8e-05	4e-05	0	1e-05	-0.00013	0.00026	-6e-05	-1e-05	3
10667	8e-05	4e-05	0	1e-05	-0.00013	0.00026	-6e-05	-1e-05	3
10668	8e-05	4e-05	0	1e-05	-0.00013	0.00026	-6e-05	-1e-05	3
10669	8e-05	4e-05	0	1e-05	-0.00013	0.00026	-6e-05	-1e-05	3
10670	8e-05	4e-05	0	1e-05	-0.00013	0.00026	-6e-05	-1e-05	3
10671	8e-05	4e-05	0	1e-05	-0.00013	0.00026	-6e-05	-1e-05	3
10672	8e-05	4e-05	0	1e-05	-0.00013	0.00026	-6e-05	-1e-05	3
10673	8e-05	4e-05	0	1e-05	-0.00013	0.00026	-6e-05	-1e-05	3
10674	8e-05	4e-05	0	1e-05	-0.00013	0.00026	-6e-05	-1e-05	3
10675	8e-05	4e-05	0	1e-05	-0.00013	0.00026	-6e-05	-1e-05	3
10676	8e-05	4e-05	0	1e-05	-0.00013	0.00026	-6e-05	-1e-05	3
10677	8e-05	4e-05	0	1e-05	-0.00013	0.00026	-6e-05	-1e-05	3
10678	8e-05	4e-05	0	1e-05	-0.00013	0.00026	-6e-05	-1e-05	3
10679	8e-05	4e-05	0	1e-05	-0.00013	0.00026	-6e-05	-1e-05	3
10680	5e-05	-4e-05	-4e-05	7e-05	0.00053	4e-05	3e-05	-4e-05	3
10681	5e-05	-4e-05	-4e-05	7e-05	0.00053	4e-05	3e-05	-4e-05	3
10682	0.00013	-3e-05	-8e-05	-0.00035	-0.00052	-0.00011	7e-05	6e-05	3
10683	0.00013	-3e-05	-8e-05	-0.00035	-0.00052	-0.00011	7e-05	6e-05	3
10684	0.00013	-3e-05	-8e-05	-0.00035	-0.00052	-0.00011	7e-05	6e-05	3
10685	0.00013	-3e-05	-8e-05	-0.00035	-0.00052	-0.00011	7e-05	6e-05	3
10687	0.00013	-3e-05	-8e-05	-0.00035	-0.00052	-0.00011	7e-05	6e-05	3
10689	0.00013	-3e-05	-8e-05	-0.00035	-0.00052	-0.00011	7e-05	6e-05	3
10690	0.00013	-3e-05	-8e-05	-0.00035	-0.00052	-0.00011	7e-05	6e-05	3
10691	0.00013	-3e-05	-8e-05	-0.00035	-0.00052	-0.00011	7e-05	6e-05	3
10692	0.00013	-3e-05	-8e-05	-0.00035	-0.00052	-0.00011	7e-05	6e-05	3
10693	0.00013	-3e-05	-8e-05	-0.00035	-0.00052	-0.00011	7e-05	6e-05	3
10694	0.00013	-3e-05	-8e-05	-0.00035	-0.00052	-0.00011	7e-05	6e-05	3
10695	0.00013	-3e-05	-8e-05	-0.00035	-0.00052	-0.00011	7e-05	6e-05	3
10696	0.00013	-3e-05	-8e-05	-0.00035	-0.00052	-0.00011	7e-05	6e-05	3
10697	0.00013	-3e-05	-8e-05	-0.00035	-0.00052	-0.00011	7e-05	6e-05	3
10698	0.00013	-3e-05	-8e-05	-0.00035	-0.00052	-0.00011	7e-05	6e-05	3
10699	0.00013	-3e-05	-8e-05	-0.00035	-0.00052	-0.00011	7e-05	6e-05	3
10700	0.00013	-3e-05	-8e-05	-0.00035	-0.00052	-0.00011	7e-05	6e-05	3
10701	0.00013	-3e-05	-8e-05	-0.00035	-0.00052	-0.00011	7e-05	6e-05	3
10702	0.00013	-3e-05	-8e-05	-0.00035	-0.00052	-0.00011	7e-05	6e-05	3
10703	-0.00033	-2e-05	0	-0.00016	-0.00011	0.00012	8e-05	7e-05	3
10704	0.00035	-4e-05	-4e-05	0	-0.00029	-0.0002	0	-7e-05	3
10705	0.00026	4e-05	2e-05	9e-05	4e-05	-0.0001	-1e-05	4e-05	3
10706	0.00026	4e-05	2e-05	9e-05	4e-05	-0.0001	-1e-05	4e-05	3
10707	0.00026	4e-05	2e-05	9e-05	4e-05	-0.0001	-1e-05	4e-05	3
10708	0.00026	4e-05	2e-05	9e-05	4e-05	-0.0001	-1e-05	4e-05	3
10709	0.00026	4e-05	2e-05	9e-05	4e-05	-0.0001	-1e-05	4e-05	3
10710	0.00026	4e-05	2e-05	9e-05	4e-05	-0.0001	-1e-05	4e-05	3
10711	0.00026	4e-05	2e-05	9e-05	4e-05	-0.0001	-1e-05	4e-05	3
10712	0.00026	4e-05	2e-05	9e-05	4e-05	-0.0001	-1e-05	4e-05	3
10713	0.00026	4e-05	2e-05	9e-05	4e-05	-0.0001	-1e-05	4e-05	3
10714	0.00026	4e-05	2e-05	9e-05	4e-05	-0.0001	-1e-05	4e-05	3
10715	0.00026	4e-05	2e-05	9e-05	4e-05	-0.0001	-1e-05	4e-05	3
10716	0.00026	4e-05	2e-05	9e-05	4e-05	-0.0001	-1e-05	4e-05	3
10717	6e-05	8e-05	-2e-05	4e-05	0.00084	0.00024	-0.00015	-4e-05	3
10718	6e-05	8e-05	-2e-05	4e-05	0.00084	0.00024	-0.00015	-4e-05	3
10719	6e-05	8e-05	-2e-05	4e-05	0.00084	0.00024	-0.00015	-4e-05	3
10720	6e-05	8e-05	-2e-05	4e-05	0.00084	0.00024	-0.00015	-4e-05	3
10721	6e-05	8e-05	-2e-05	4e-05	0.00084	0.00024	-0.00015	-4e-05	3
10722	6e-05	8e-05	-2e-05	4e-05	0.00084	0.00024	-0.00015	-4e-05	3
10723	6e-05	8e-05	-2e-05	4e-05	0.00084	0.00024	-0.00015	-4e-05	3
10724	-0.00032	-0.00018	1e-05	7e-05	1e-05	-8e-05	0	0	3
10725	-0.00032	-0.00018	1e-05	7e-05	1e-05	-8e-05	0	0	3
10726	-0.00032	-0.00018	1e-05	7e-05	1e-05	-8e-05	0	0	3
10727	-0.00032	-0.00018	1e-05	7e-05	1e-05	-8e-05	0	0	3
10728	-0.00032	-0.00018	1e-05	7e-05	1e-05	-8e-05	0	0	3
10729	-0.00032	-0.00018	1e-05	7e-05	1e-05	-8e-05	0	0	3
10730	-0.00032	-0.00018	1e-05	7e-05	1e-05	-8e-05	0	0	3
10731	-0.00032	-0.00018	1e-05	7e-05	1e-05	-8e-05	0	0	3
10732	-0.00032	-0.00018	1e-05	7e-05	1e-05	-8e-05	0	0	3
10733	-0.00032	-0.00018	1e-05	7e-05	1e-05	-8e-05	0	0	3
10734	-0.00032	-0.00018	1e-05	7e-05	1e-05	-8e-05	0	0	3
10735	-0.00032	-0.00018	1e-05	7e-05	1e-05	-8e-05	0	0	3
10737	-0.00032	-0.00018	1e-05	7e-05	1e-05	-8e-05	0	0	3
10739	-0.00032	-0.00018	1e-05	7e-05	1e-05	-8e-05	0	0	3
10740	9e-05	-2e-05	3e-05	2e-05	-0.00024	0.00026	0.00011	-3e-05	3
10741	9e-05	-2e-05	3e-05	2e-05	-0.00024	0.00026	0.00011	-3e-05	3
10742	0	5e-05	-2e-05	4e-05	5e-05	-2e-05	7e-05	1e-05	3
10743	0	5e-05	-2e-05	4e-05	5e-05	-2e-05	7e-05	1e-05	3
10744	0	5e-05	-2e-05	4e-05	5e-05	-2e-05	7e-05	1e-05	3
10745	0	5e-05	-2e-05	4e-05	5e-05	-2e-05	7e-05	1e-05	3
10746	0	5e-05	-2e-05	4e-05	5e-05	-2e-05	7e-05	1e-05	3
10747	0	5e-05	-2e-05	4e-05	5e-05	-2e-05	7e-05	1e-05	3
10748	0	5e-05	-2e-05	4e-05	5e-05	-2e-05	7e-05	1e-05	3
10749	0	5e-05	-2e-05	4e-05	5e-05	-2e-05	7e-05	1e-05	3
10750	0	5e-05	-2e-05	4e-05	5e-05	-2e-05	7e-05	1e-05	3
10751	0	5e-05	-2e-05	4e-05	5e-05	-2e-05	7e-05	1e-05	3
10752	0	5e-05	-2e-05	4e-05	5e-05	-2e-05	7e-05	1e-05	3
10753	0	5e-05	-2e-05	4e-05	5e-05	-2e-05	7e-05	1e-05	3
10754	0	5e-05	-2e-05	4e-05	5e-05	-2e-05	7e-05	1e-05	3
10755	0	5e-05	-2e-05	4e-05	5e-05	-2e-05	7e-05	1e-05	3
10756	0	5e-05	-2e-05	4e-05	5e-05	-2e-05	7e-05	1e-05	3
10757	0	5e-05	-2e-05	4e-05	5e-05	-2e-05	7e-05	1e-05	3
10758	0	5e-05	-2e-05	4e-05	5e-05	-2e-05	7e-05	1e-05	3
10759	0	5e-05	-2e-05	4e-05	5e-05	-2e-05	7e-05	1e-05	3
10760	0	5e-05	-2e-05	4e-05	5e-05	-2e-05	7e-05	1e-05	3
10761	0	5e-05	-2e-05	4e-05	5e-05	-2e-05	7e-05	1e-05	3
10762	0	5e-05	-2e-05	4e-05	5e-05	-2e-05	7e-05	1e-05	3
10763	-0.00027	-6e-05	-1e-05	6e-05	-0.0002	-5e-05	-7e-05	-0.0001	3
10764	2e-05	-1e-05	-1e-05	-3e-05	-0.00011	-0.00013	9e-05	3e-05	3
10765	0.00013	-5e-05	-0.00012	-0.00028	-0.00043	-0.00045	-7e-05	-7e-05	3
10766	0.00013	-5e-05	-0.00012	-0.00028	-0.00043	-0.00045	-7e-05	-7e-05	3
10767	0.00013	-5e-05	-0.00012	-0.00028	-0.00043	-0.00045	-7e-05	-7e-05	3
10768	0.00013	-5e-05	-0.00012	-0.00028	-0.00043	-0.00045	-7e-05	-7e-05	3
10769	0.00013	-5e-05	-0.00012	-0.00028	-0.00043	-0.00045	-7e-05	-7e-05	3
10770	0.00013	-5e-05	-0.00012	-0.00028	-0.00043	-0.00045	-7e-05	-7e-05	3
10771	0.00013	-5e-05	-0.00012	-0.00028	-0.00043	-0.00045	-7e-05	-7e-05	3
10772	0.00013	-5e-05	-0.00012	-0.00028	-0.00043	-0.00045	-7e-05	-7e-05	3
10773	0.00013	-5e-05	-0.00012	-0.00028	-0.00043	-0.00045	-7e-05	-7e-05	3
10774	0.00013	-5e-05	-0.00012	-0.00028	-0.00043	-0.00045	-7e-05	-7e-05	3
10775	0.00013	-5e-05	-0.00012	-0.00028	-0.00043	-0.00045	-7e-05	-7e-05	3
10776	0.00023	7e-05	6e-05	0.00029	0.00054	0.00041	0.00019	0.00015	3
10777	0.00017	-1e-05	-8e-05	-0.00026	-0.0012	-0.00038	-9e-05	-3e-05	3
10778	0.00017	-1e-05	-8e-05	-0.00026	-0.0012	-0.00038	-9e-05	-3e-05	3
10779	0.00017	-1e-05	-8e-05	-0.00026	-0.0012	-0.00038	-9e-05	-3e-05	3
10780	0.00017	-1e-05	-8e-05	-0.00026	-0.0012	-0.00038	-9e-05	-3e-05	3
10781	0.00017	-1e-05	-8e-05	-0.00026	-0.0012	-0.00038	-9e-05	-3e-05	3
10782	0.00017	-1e-05	-8e-05	-0.00026	-0.0012	-0.00038	-9e-05	-3e-05	3
10783	0.00017	-1e-05	-8e-05	-0.00026	-0.0012	-0.00038	-9e-05	-3e-05	3
10784	0.00017	-1e-05	-8e-05	-0.00026	-0.0012	-0.00038	-9e-05	-3e-05	3
10785	0.00043	1e-05	3e-05	0.0001	0.00066	9e-05	0.00013	1e-05	3
10787	-0.0005	-4e-05	-4e-05	-1e-05	-0.00031	-0.00022	-0.00018	-1e-05	3
10789	-0.0005	-4e-05	-4e-05	-1e-05	-0.00031	-0.00022	-0.00018	-1e-05	3
10790	-0.0005	-4e-05	-4e-05	-1e-05	-0.00031	-0.00022	-0.00018	-1e-05	3
10791	-0.0005	-4e-05	-4e-05	-1e-05	-0.00031	-0.00022	-0.00018	-1e-05	3
10792	-0.0005	-4e-05	-4e-05	-1e-05	-0.00031	-0.00022	-0.00018	-1e-05	3
10793	-0.0005	-4e-05	-4e-05	-1e-05	-0.00031	-0.00022	-0.00018	-1e-05	3
10794	-0.0005	-4e-05	-4e-05	-1e-05	-0.00031	-0.00022	-0.00018	-1e-05	3
10795	-0.0005	-4e-05	-4e-05	-1e-05	-0.00031	-0.00022	-0.00018	-1e-05	3
10796	-0.0005	-4e-05	-4e-05	-1e-05	-0.00031	-0.00022	-0.00018	-1e-05	3
10797	-0.0005	-4e-05	-4e-05	-1e-05	-0.00031	-0.00022	-0.00018	-1e-05	3
10798	-0.0005	-4e-05	-4e-05	-1e-05	-0.00031	-0.00022	-0.00018	-1e-05	3
10799	-0.0005	-4e-05	-4e-05	-1e-05	-0.00031	-0.00022	-0.00018	-1e-05	3
10800	-0.00018	-3e-05	4e-05	8e-05	0.00015	8e-05	1e-05	-3e-05	3
10801	-0.00018	-3e-05	4e-05	8e-05	0.00015	8e-05	1e-05	-3e-05	3
10802	-0.00019	2e-05	4e-05	0.00012	0.00065	0.0003	-6e-05	1e-05	3
10803	-0.00019	2e-05	4e-05	0.00012	0.00065	0.0003	-6e-05	1e-05	3
10804	-0.00019	2e-05	4e-05	0.00012	0.00065	0.0003	-6e-05	1e-05	3
10805	-0.00019	2e-05	4e-05	0.00012	0.00065	0.0003	-6e-05	1e-05	3
10806	-0.00019	2e-05	4e-05	0.00012	0.00065	0.0003	-6e-05	1e-05	3
10807	-0.00019	2e-05	4e-05	0.00012	0.00065	0.0003	-6e-05	1e-05	3
10808	-0.00019	2e-05	4e-05	0.00012	0.00065	0.0003	-6e-05	1e-05	3
10809	-0.00019	2e-05	4e-05	0.00012	0.00065	0.0003	-6e-05	1e-05	3
10810	-0.00019	2e-05	4e-05	0.00012	0.00065	0.0003	-6e-05	1e-05	3
10811	-0.00019	2e-05	4e-05	0.00012	0.00065	0.0003	-6e-05	1e-05	3
10812	-0.00019	2e-05	4e-05	0.00012	0.00065	0.0003	-6e-05	1e-05	3
10813	-0.00019	2e-05	4e-05	0.00012	0.00065	0.0003	-6e-05	1e-05	3
10814	-0.00019	2e-05	4e-05	0.00012	0.00065	0.0003	-6e-05	1e-05	3
10815	-0.00019	2e-05	4e-05	0.00012	0.00065	0.0003	-6e-05	1e-05	3
10816	-0.00019	2e-05	4e-05	0.00012	0.00065	0.0003	-6e-05	1e-05	3
10817	-0.00019	2e-05	4e-05	0.00012	0.00065	0.0003	-6e-05	1e-05	3
10818	-0.00019	2e-05	4e-05	0.00012	0.00065	0.0003	-6e-05	1e-05	3
10819	-0.00019	2e-05	4e-05	0.00012	0.00065	0.0003	-6e-05	1e-05	3
10820	-0.00019	2e-05	4e-05	0.00012	0.00065	0.0003	-6e-05	1e-05	3
10821	-0.00019	2e-05	4e-05	0.00012	0.00065	0.0003	-6e-05	1e-05	3
10822	-0.00019	2e-05	4e-05	0.00012	0.00065	0.0003	-6e-05	1e-05	3
10823	0.00037	0	0	1e-05	-0.00015	0.00015	8e-05	4e-05	3
10824	-0.00029	-4e-05	1e-05	-3e-05	-4e-05	-6e-05	3e-05	-3e-05	3
10825	8e-05	0	3e-05	5e-05	7e-05	8e-05	-4e-05	0	3
10826	8e-05	0	3e-05	5e-05	7e-05	8e-05	-4e-05	0	3
10827	8e-05	0	3e-05	5e-05	7e-05	8e-05	-4e-05	0	3
10828	8e-05	0	3e-05	5e-05	7e-05	8e-05	-4e-05	0	3
10829	8e-05	0	3e-05	5e-05	7e-05	8e-05	-4e-05	0	3
10830	8e-05	0	3e-05	5e-05	7e-05	8e-05	-4e-05	0	3
10831	8e-05	0	3e-05	5e-05	7e-05	8e-05	-4e-05	0	3
10832	8e-05	0	3e-05	5e-05	7e-05	8e-05	-4e-05	0	3
10833	8e-05	0	3e-05	5e-05	7e-05	8e-05	-4e-05	0	3
10834	8e-05	0	3e-05	5e-05	7e-05	8e-05	-4e-05	0	3
10835	8e-05	0	3e-05	5e-05	7e-05	8e-05	-4e-05	0	3
10837	0.00012	-6e-05	-2e-05	1e-05	-0.00018	-6e-05	-1e-05	2e-05	3
10839	0.00012	-6e-05	-2e-05	1e-05	-0.00018	-6e-05	-1e-05	2e-05	3
10840	0.00012	-6e-05	-2e-05	1e-05	-0.00018	-6e-05	-1e-05	2e-05	3
10841	0.00012	-6e-05	-2e-05	1e-05	-0.00018	-6e-05	-1e-05	2e-05	3
10842	0.00012	-6e-05	-2e-05	1e-05	-0.00018	-6e-05	-1e-05	2e-05	3
10843	0.00012	-6e-05	-2e-05	1e-05	-0.00018	-6e-05	-1e-05	2e-05	3
10844	0.00012	-6e-05	-2e-05	1e-05	-0.00018	-6e-05	-1e-05	2e-05	3
10845	0.00032	0.00013	4e-05	8e-05	0.00046	-0.00021	1e-05	4e-05	3
10846	0.00032	0.00013	4e-05	8e-05	0.00046	-0.00021	1e-05	4e-05	3
10847	0.00032	0.00013	4e-05	8e-05	0.00046	-0.00021	1e-05	4e-05	3
10848	0.00032	0.00013	4e-05	8e-05	0.00046	-0.00021	1e-05	4e-05	3
10849	0.00032	0.00013	4e-05	8e-05	0.00046	-0.00021	1e-05	4e-05	3
10850	0.00032	0.00013	4e-05	8e-05	0.00046	-0.00021	1e-05	4e-05	3
10851	0.00032	0.00013	4e-05	8e-05	0.00046	-0.00021	1e-05	4e-05	3
10852	0.00032	0.00013	4e-05	8e-05	0.00046	-0.00021	1e-05	4e-05	3
10853	0.00032	0.00013	4e-05	8e-05	0.00046	-0.00021	1e-05	4e-05	3
10854	0.00032	0.00013	4e-05	8e-05	0.00046	-0.00021	1e-05	4e-05	3
10855	0.00032	0.00013	4e-05	8e-05	0.00046	-0.00021	1e-05	4e-05	3
10856	0.00032	0.00013	4e-05	8e-05	0.00046	-0.00021	1e-05	4e-05	3
10857	0.00032	0.00013	4e-05	8e-05	0.00046	-0.00021	1e-05	4e-05	3
10858	0.00032	0.00013	4e-05	8e-05	0.00046	-0.00021	1e-05	4e-05	3
10859	0.00032	0.00013	4e-05	8e-05	0.00046	-0.00021	1e-05	4e-05	3
10860	-0.00016	-7e-05	1e-05	-0.00039	0.00023	9e-05	2e-05	-2e-05	3
10861	-0.00016	-7e-05	1e-05	-0.00039	0.00023	9e-05	2e-05	-2e-05	3
10862	-9e-05	0	-2e-05	-0.0002	-0.00043	-5e-05	-8e-05	-5e-05	3
10863	-9e-05	0	-2e-05	-0.0002	-0.00043	-5e-05	-8e-05	-5e-05	3
10864	-9e-05	0	-2e-05	-0.0002	-0.00043	-5e-05	-8e-05	-5e-05	3
10865	-9e-05	0	-2e-05	-0.0002	-0.00043	-5e-05	-8e-05	-5e-05	3
10866	-9e-05	0	-2e-05	-0.0002	-0.00043	-5e-05	-8e-05	-5e-05	3
10867	-9e-05	0	-2e-05	-0.0002	-0.00043	-5e-05	-8e-05	-5e-05	3
10868	-9e-05	0	-2e-05	-0.0002	-0.00043	-5e-05	-8e-05	-5e-05	3
10869	-9e-05	0	-2e-05	-0.0002	-0.00043	-5e-05	-8e-05	-5e-05	3
10870	-9e-05	0	-2e-05	-0.0002	-0.00043	-5e-05	-8e-05	-5e-05	3
10871	-9e-05	0	-2e-05	-0.0002	-0.00043	-5e-05	-8e-05	-5e-05	3
10872	-9e-05	0	-2e-05	-0.0002	-0.00043	-5e-05	-8e-05	-5e-05	3
10873	-9e-05	0	-2e-05	-0.0002	-0.00043	-5e-05	-8e-05	-5e-05	3
10874	-9e-05	0	-2e-05	-0.0002	-0.00043	-5e-05	-8e-05	-5e-05	3
10875	-9e-05	0	-2e-05	-0.0002	-0.00043	-5e-05	-8e-05	-5e-05	3
10876	-9e-05	0	-2e-05	-0.0002	-0.00043	-5e-05	-8e-05	-5e-05	3
10877	-9e-05	0	-2e-05	-0.0002	-0.00043	-5e-05	-8e-05	-5e-05	3
10878	-9e-05	0	-2e-05	-0.0002	-0.00043	-5e-05	-8e-05	-5e-05	3
10879	-9e-05	0	-2e-05	-0.0002	-0.00043	-5e-05	-8e-05	-5e-05	3
10880	-9e-05	0	-2e-05	-0.0002	-0.00043	-5e-05	-8e-05	-5e-05	3
10881	-9e-05	0	-2e-05	-0.0002	-0.00043	-5e-05	-8e-05	-5e-05	3
10882	-9e-05	0	-2e-05	-0.0002	-0.00043	-5e-05	-8e-05	-5e-05	3
10883	0.00011	3e-05	-9e-05	-0.00025	0.00019	0	4e-05	5e-05	3
10884	-6e-05	-5e-05	6e-05	0.00022	-0.00052	-0.00022	-8e-05	-4e-05	3
10885	7e-05	-3e-05	-1e-05	0.00022	0.00037	0.00023	-2e-05	-2e-05	3
10887	7e-05	-3e-05	-1e-05	0.00022	0.00037	0.00023	-2e-05	-2e-05	3
10889	7e-05	-3e-05	-1e-05	0.00022	0.00037	0.00023	-2e-05	-2e-05	3
10890	7e-05	-3e-05	-1e-05	0.00022	0.00037	0.00023	-2e-05	-2e-05	3
10891	7e-05	-3e-05	-1e-05	0.00022	0.00037	0.00023	-2e-05	-2e-05	3
10892	7e-05	-3e-05	-1e-05	0.00022	0.00037	0.00023	-2e-05	-2e-05	3
10893	7e-05	-3e-05	-1e-05	0.00022	0.00037	0.00023	-2e-05	-2e-05	3
10894	7e-05	-3e-05	-1e-05	0.00022	0.00037	0.00023	-2e-05	-2e-05	3
10895	7e-05	-3e-05	-1e-05	0.00022	0.00037	0.00023	-2e-05	-2e-05	3
10896	0.00013	2e-05	5e-05	-1e-05	0.00018	0.00018	0.00012	6e-05	3
10897	-4e-05	4e-05	1e-05	-9e-05	-7e-05	8e-05	1e-05	1e-05	3
10898	-4e-05	4e-05	1e-05	-9e-05	-7e-05	8e-05	1e-05	1e-05	3
10899	-4e-05	4e-05	1e-05	-9e-05	-7e-05	8e-05	1e-05	1e-05	3
10900	-4e-05	4e-05	1e-05	-9e-05	-7e-05	8e-05	1e-05	1e-05	3
10901	-4e-05	4e-05	1e-05	-9e-05	-7e-05	8e-05	1e-05	1e-05	3
10902	-4e-05	4e-05	1e-05	-9e-05	-7e-05	8e-05	1e-05	1e-05	3
10903	-4e-05	4e-05	1e-05	-9e-05	-7e-05	8e-05	1e-05	1e-05	3
10904	-4e-05	4e-05	1e-05	-9e-05	-7e-05	8e-05	1e-05	1e-05	3
10905	6e-05	0	-6e-05	7e-05	-0.00032	-3e-05	9e-05	1e-05	3
10906	6e-05	0	-6e-05	7e-05	-0.00032	-3e-05	9e-05	1e-05	3
10907	6e-05	0	-6e-05	7e-05	-0.00032	-3e-05	9e-05	1e-05	3
10908	6e-05	0	-6e-05	7e-05	-0.00032	-3e-05	9e-05	1e-05	3
10909	6e-05	0	-6e-05	7e-05	-0.00032	-3e-05	9e-05	1e-05	3
10910	6e-05	0	-6e-05	7e-05	-0.00032	-3e-05	9e-05	1e-05	3
10911	6e-05	0	-6e-05	7e-05	-0.00032	-3e-05	9e-05	1e-05	3
10912	6e-05	0	-6e-05	7e-05	-0.00032	-3e-05	9e-05	1e-05	3
10913	6e-05	0	-6e-05	7e-05	-0.00032	-3e-05	9e-05	1e-05	3
10914	6e-05	0	-6e-05	7e-05	-0.00032	-3e-05	9e-05	1e-05	3
10915	6e-05	0	-6e-05	7e-05	-0.00032	-3e-05	9e-05	1e-05	3
10916	6e-05	0	-6e-05	7e-05	-0.00032	-3e-05	9e-05	1e-05	3
10917	6e-05	0	-6e-05	7e-05	-0.00032	-3e-05	9e-05	1e-05	3
10918	6e-05	0	-6e-05	7e-05	-0.00032	-3e-05	9e-05	1e-05	3
10919	6e-05	0	-6e-05	7e-05	-0.00032	-3e-05	9e-05	1e-05	3
10920	-0.0002	-1e-05	5e-05	0.0002	0.00038	0.00047	1e-05	-5e-05	3
10921	-0.0002	-1e-05	5e-05	0.0002	0.00038	0.00047	1e-05	-5e-05	3
10922	0.00013	-4e-05	-2e-05	-4e-05	2e-05	-0.0001	6e-05	1e-05	3
10923	0.00013	-4e-05	-2e-05	-4e-05	2e-05	-0.0001	6e-05	1e-05	3
10924	0.00013	-4e-05	-2e-05	-4e-05	2e-05	-0.0001	6e-05	1e-05	3
10925	0.00013	-4e-05	-2e-05	-4e-05	2e-05	-0.0001	6e-05	1e-05	3
10926	0.00013	-4e-05	-2e-05	-4e-05	2e-05	-0.0001	6e-05	1e-05	3
10927	0.00013	-4e-05	-2e-05	-4e-05	2e-05	-0.0001	6e-05	1e-05	3
10928	0.00013	-4e-05	-2e-05	-4e-05	2e-05	-0.0001	6e-05	1e-05	3
10929	0.00013	-4e-05	-2e-05	-4e-05	2e-05	-0.0001	6e-05	1e-05	3
10930	0.00013	-4e-05	-2e-05	-4e-05	2e-05	-0.0001	6e-05	1e-05	3
10931	0.00013	-4e-05	-2e-05	-4e-05	2e-05	-0.0001	6e-05	1e-05	3
10932	0.00013	-4e-05	-2e-05	-4e-05	2e-05	-0.0001	6e-05	1e-05	3
10933	0.00013	-4e-05	-2e-05	-4e-05	2e-05	-0.0001	6e-05	1e-05	3
10934	0.00013	-4e-05	-2e-05	-4e-05	2e-05	-0.0001	6e-05	1e-05	3
10935	0.00013	-4e-05	-2e-05	-4e-05	2e-05	-0.0001	6e-05	1e-05	3
10937	0.00013	-4e-05	-2e-05	-4e-05	2e-05	-0.0001	6e-05	1e-05	3
10940	0.00013	-4e-05	-2e-05	-4e-05	2e-05	-0.0001	6e-05	1e-05	3
10941	0.00013	-4e-05	-2e-05	-4e-05	2e-05	-0.0001	6e-05	1e-05	3
10942	0.00013	-4e-05	-2e-05	-4e-05	2e-05	-0.0001	6e-05	1e-05	3
10943	0.00013	-4e-05	-2e-05	-4e-05	2e-05	-0.0001	6e-05	1e-05	3
10944	0.00047	4e-05	1e-05	5e-05	-0.00031	-0.0004	0.0001	1e-05	3
10945	-0.00023	-4e-05	2e-05	-4e-05	0.00043	0.00055	0.00026	4e-05	3
10946	-0.00023	-4e-05	2e-05	-4e-05	0.00043	0.00055	0.00026	4e-05	3
10947	-0.00023	-4e-05	2e-05	-4e-05	0.00043	0.00055	0.00026	4e-05	3
10948	-0.00023	-4e-05	2e-05	-4e-05	0.00043	0.00055	0.00026	4e-05	3
10949	-0.00023	-4e-05	2e-05	-4e-05	0.00043	0.00055	0.00026	4e-05	3
10950	-0.00023	-4e-05	2e-05	-4e-05	0.00043	0.00055	0.00026	4e-05	3
10951	-0.00023	-4e-05	2e-05	-4e-05	0.00043	0.00055	0.00026	4e-05	3
10952	-0.00023	-4e-05	2e-05	-4e-05	0.00043	0.00055	0.00026	4e-05	3
10953	-0.00023	-4e-05	2e-05	-4e-05	0.00043	0.00055	0.00026	4e-05	3
10954	-0.00023	-4e-05	2e-05	-4e-05	0.00043	0.00055	0.00026	4e-05	3
10955	-0.00023	-4e-05	2e-05	-4e-05	0.00043	0.00055	0.00026	4e-05	3
10956	-0.00023	-4e-05	2e-05	-4e-05	0.00043	0.00055	0.00026	4e-05	3
10957	0.00025	4e-05	0	0.00014	-3e-05	-3e-05	4e-05	-1e-05	3
10958	0.00025	4e-05	0	0.00014	-3e-05	-3e-05	4e-05	-1e-05	3
10959	0.00025	4e-05	0	0.00014	-3e-05	-3e-05	4e-05	-1e-05	3
10960	0.00025	4e-05	0	0.00014	-3e-05	-3e-05	4e-05	-1e-05	3
10961	0.00025	4e-05	0	0.00014	-3e-05	-3e-05	4e-05	-1e-05	3
10962	0.00025	4e-05	0	0.00014	-3e-05	-3e-05	4e-05	-1e-05	3
10963	0.00025	4e-05	0	0.00014	-3e-05	-3e-05	4e-05	-1e-05	3
10964	0.00025	4e-05	0	0.00014	-3e-05	-3e-05	4e-05	-1e-05	3
10965	5e-05	1e-05	1e-05	1e-05	-3e-05	-4e-05	3e-05	0	3
10966	5e-05	1e-05	1e-05	1e-05	-3e-05	-4e-05	3e-05	0	3
10967	5e-05	1e-05	1e-05	1e-05	-3e-05	-4e-05	3e-05	0	3
10968	5e-05	1e-05	1e-05	1e-05	-3e-05	-4e-05	3e-05	0	3
10969	5e-05	1e-05	1e-05	1e-05	-3e-05	-4e-05	3e-05	0	3
10970	5e-05	1e-05	1e-05	1e-05	-3e-05	-4e-05	3e-05	0	3
10971	5e-05	1e-05	1e-05	1e-05	-3e-05	-4e-05	3e-05	0	3
10972	5e-05	1e-05	1e-05	1e-05	-3e-05	-4e-05	3e-05	0	3
10973	5e-05	1e-05	1e-05	1e-05	-3e-05	-4e-05	3e-05	0	3
10974	5e-05	1e-05	1e-05	1e-05	-3e-05	-4e-05	3e-05	0	3
10975	5e-05	1e-05	1e-05	1e-05	-3e-05	-4e-05	3e-05	0	3
10976	5e-05	1e-05	1e-05	1e-05	-3e-05	-4e-05	3e-05	0	3
10977	5e-05	1e-05	1e-05	1e-05	-3e-05	-4e-05	3e-05	0	3
10978	5e-05	1e-05	1e-05	1e-05	-3e-05	-4e-05	3e-05	0	3
10979	5e-05	1e-05	1e-05	1e-05	-3e-05	-4e-05	3e-05	0	3
10980	-0.00057	-3e-05	-2e-05	9e-05	0.00012	-5e-05	-0.0001	-7e-05	3
10981	-0.00057	-3e-05	-2e-05	9e-05	0.00012	-5e-05	-0.0001	-7e-05	3
10982	-0.00015	-5e-05	-2e-05	-0.00017	-0.00025	-0.0001	-7e-05	1e-05	3
10983	-0.00015	-5e-05	-2e-05	-0.00017	-0.00025	-0.0001	-7e-05	1e-05	3
10984	-0.00015	-5e-05	-2e-05	-0.00017	-0.00025	-0.0001	-7e-05	1e-05	3
10985	-0.00015	-5e-05	-2e-05	-0.00017	-0.00025	-0.0001	-7e-05	1e-05	3
10987	-0.00015	-5e-05	-2e-05	-0.00017	-0.00025	-0.0001	-7e-05	1e-05	3
10989	-0.00015	-5e-05	-2e-05	-0.00017	-0.00025	-0.0001	-7e-05	1e-05	3
10990	-0.00015	-5e-05	-2e-05	-0.00017	-0.00025	-0.0001	-7e-05	1e-05	3
10991	-0.00015	-5e-05	-2e-05	-0.00017	-0.00025	-0.0001	-7e-05	1e-05	3
10992	-0.00015	-5e-05	-2e-05	-0.00017	-0.00025	-0.0001	-7e-05	1e-05	3
10993	-0.00015	-5e-05	-2e-05	-0.00017	-0.00025	-0.0001	-7e-05	1e-05	3
10994	-0.00015	-5e-05	-2e-05	-0.00017	-0.00025	-0.0001	-7e-05	1e-05	3
10995	-0.00015	-5e-05	-2e-05	-0.00017	-0.00025	-0.0001	-7e-05	1e-05	3
10996	-0.00015	-5e-05	-2e-05	-0.00017	-0.00025	-0.0001	-7e-05	1e-05	3
10997	-0.00015	-5e-05	-2e-05	-0.00017	-0.00025	-0.0001	-7e-05	1e-05	3
10998	-0.00015	-5e-05	-2e-05	-0.00017	-0.00025	-0.0001	-7e-05	1e-05	3
10999	-0.00015	-5e-05	-2e-05	-0.00017	-0.00025	-0.0001	-7e-05	1e-05	3
11000	-0.00015	-5e-05	-2e-05	-0.00017	-0.00025	-0.0001	-7e-05	1e-05	3
11001	-0.00015	-5e-05	-2e-05	-0.00017	-0.00025	-0.0001	-7e-05	1e-05	3
11002	-0.00015	-5e-05	-2e-05	-0.00017	-0.00025	-0.0001	-7e-05	1e-05	3
11003	-7e-05	-1e-05	0	-0.0001	0.00027	3e-05	-8e-05	-1e-05	3
11004	8e-05	1e-05	-5e-05	-1e-05	-0.00013	0	6e-05	0	3
11005	0.00026	2e-05	5e-05	0	-0.00031	-0.00031	-0.00011	5e-05	3
11006	0.00026	2e-05	5e-05	0	-0.00031	-0.00031	-0.00011	5e-05	3
11007	0.00026	2e-05	5e-05	0	-0.00031	-0.00031	-0.00011	5e-05	3
11008	0.00026	2e-05	5e-05	0	-0.00031	-0.00031	-0.00011	5e-05	3
11009	0.00026	2e-05	5e-05	0	-0.00031	-0.00031	-0.00011	5e-05	3
11010	0.00026	2e-05	5e-05	0	-0.00031	-0.00031	-0.00011	5e-05	3
11011	0.00026	2e-05	5e-05	0	-0.00031	-0.00031	-0.00011	5e-05	3
11012	0.00026	2e-05	5e-05	0	-0.00031	-0.00031	-0.00011	5e-05	3
11013	0.00026	2e-05	5e-05	0	-0.00031	-0.00031	-0.00011	5e-05	3
11014	0.00026	2e-05	5e-05	0	-0.00031	-0.00031	-0.00011	5e-05	3
11015	0.00026	2e-05	5e-05	0	-0.00031	-0.00031	-0.00011	5e-05	3
11016	8e-05	-5e-05	-4e-05	6e-05	-0.00031	-0.00033	-0.00011	-4e-05	3
11017	8e-05	-5e-05	-4e-05	6e-05	-0.00031	-0.00033	-0.00011	-4e-05	3
11018	8e-05	-5e-05	-4e-05	6e-05	-0.00031	-0.00033	-0.00011	-4e-05	3
11019	8e-05	-5e-05	-4e-05	6e-05	-0.00031	-0.00033	-0.00011	-4e-05	3
11020	8e-05	-5e-05	-4e-05	6e-05	-0.00031	-0.00033	-0.00011	-4e-05	3
11021	8e-05	-5e-05	-4e-05	6e-05	-0.00031	-0.00033	-0.00011	-4e-05	3
11022	8e-05	-5e-05	-4e-05	6e-05	-0.00031	-0.00033	-0.00011	-4e-05	3
11023	8e-05	-5e-05	-4e-05	6e-05	-0.00031	-0.00033	-0.00011	-4e-05	3
11024	8e-05	-5e-05	-4e-05	6e-05	-0.00031	-0.00033	-0.00011	-4e-05	3
11025	-0.00013	0.00022	0	-2e-05	0.00031	0.00044	7e-05	3e-05	3
11026	5e-05	-0.00015	0.00013	-0.0001	-0.0001	-3e-05	-4e-05	-3e-05	3
11027	5e-05	-0.00015	0.00013	-0.0001	-0.0001	-3e-05	-4e-05	-3e-05	3
11028	5e-05	-0.00015	0.00013	-0.0001	-0.0001	-3e-05	-4e-05	-3e-05	3
11029	5e-05	-0.00015	0.00013	-0.0001	-0.0001	-3e-05	-4e-05	-3e-05	3
11030	5e-05	-0.00015	0.00013	-0.0001	-0.0001	-3e-05	-4e-05	-3e-05	3
11031	5e-05	-0.00015	0.00013	-0.0001	-0.0001	-3e-05	-4e-05	-3e-05	3
11032	5e-05	-0.00015	0.00013	-0.0001	-0.0001	-3e-05	-4e-05	-3e-05	3
11033	5e-05	-0.00015	0.00013	-0.0001	-0.0001	-3e-05	-4e-05	-3e-05	3
11034	5e-05	-0.00015	0.00013	-0.0001	-0.0001	-3e-05	-4e-05	-3e-05	3
11035	5e-05	-0.00015	0.00013	-0.0001	-0.0001	-3e-05	-4e-05	-3e-05	3
11037	5e-05	-0.00015	0.00013	-0.0001	-0.0001	-3e-05	-4e-05	-3e-05	3
11039	5e-05	-0.00015	0.00013	-0.0001	-0.0001	-3e-05	-4e-05	-3e-05	3
11040	6e-05	-0.00013	-6e-05	0.00011	0.00082	0.00021	4e-05	-1e-05	3
11041	6e-05	-0.00013	-6e-05	0.00011	0.00082	0.00021	4e-05	-1e-05	3
11042	-2e-05	9e-05	1e-05	0.00011	0.00032	7e-05	-0.00011	-1e-05	3
11043	-2e-05	9e-05	1e-05	0.00011	0.00032	7e-05	-0.00011	-1e-05	3
11044	-2e-05	9e-05	1e-05	0.00011	0.00032	7e-05	-0.00011	-1e-05	3
11045	-2e-05	9e-05	1e-05	0.00011	0.00032	7e-05	-0.00011	-1e-05	3
11046	-2e-05	9e-05	1e-05	0.00011	0.00032	7e-05	-0.00011	-1e-05	3
11047	-2e-05	9e-05	1e-05	0.00011	0.00032	7e-05	-0.00011	-1e-05	3
11048	-2e-05	9e-05	1e-05	0.00011	0.00032	7e-05	-0.00011	-1e-05	3
11049	-2e-05	9e-05	1e-05	0.00011	0.00032	7e-05	-0.00011	-1e-05	3
11050	-2e-05	9e-05	1e-05	0.00011	0.00032	7e-05	-0.00011	-1e-05	3
11051	-2e-05	9e-05	1e-05	0.00011	0.00032	7e-05	-0.00011	-1e-05	3
11052	-2e-05	9e-05	1e-05	0.00011	0.00032	7e-05	-0.00011	-1e-05	3
11053	-2e-05	9e-05	1e-05	0.00011	0.00032	7e-05	-0.00011	-1e-05	3
11054	-2e-05	9e-05	1e-05	0.00011	0.00032	7e-05	-0.00011	-1e-05	3
11055	-2e-05	9e-05	1e-05	0.00011	0.00032	7e-05	-0.00011	-1e-05	3
11056	-2e-05	9e-05	1e-05	0.00011	0.00032	7e-05	-0.00011	-1e-05	3
11057	-2e-05	9e-05	1e-05	0.00011	0.00032	7e-05	-0.00011	-1e-05	3
11058	-2e-05	9e-05	1e-05	0.00011	0.00032	7e-05	-0.00011	-1e-05	3
11059	-2e-05	9e-05	1e-05	0.00011	0.00032	7e-05	-0.00011	-1e-05	3
11060	-2e-05	9e-05	1e-05	0.00011	0.00032	7e-05	-0.00011	-1e-05	3
11061	-2e-05	9e-05	1e-05	0.00011	0.00032	7e-05	-0.00011	-1e-05	3
11062	-2e-05	9e-05	1e-05	0.00011	0.00032	7e-05	-0.00011	-1e-05	3
11063	-2e-05	-4e-05	-1e-05	-1e-05	-0.00029	-0.00018	-8e-05	-3e-05	3
11064	0.00051	0	-5e-05	3e-05	0.00021	-0.00018	5e-05	1e-05	3
11065	0.0002	0.00013	9e-05	5e-05	1e-05	0.00011	-1e-05	-2e-05	3
11066	0.0002	0.00013	9e-05	5e-05	1e-05	0.00011	-1e-05	-2e-05	3
11067	0.0002	0.00013	9e-05	5e-05	1e-05	0.00011	-1e-05	-2e-05	3
11068	0.0002	0.00013	9e-05	5e-05	1e-05	0.00011	-1e-05	-2e-05	3
11069	0.0002	0.00013	9e-05	5e-05	1e-05	0.00011	-1e-05	-2e-05	3
11070	0.0002	0.00013	9e-05	5e-05	1e-05	0.00011	-1e-05	-2e-05	3
11071	0.0002	0.00013	9e-05	5e-05	1e-05	0.00011	-1e-05	-2e-05	3
11072	0.0002	0.00013	9e-05	5e-05	1e-05	0.00011	-1e-05	-2e-05	3
11073	0.0002	0.00013	9e-05	5e-05	1e-05	0.00011	-1e-05	-2e-05	3
11074	0.0002	0.00013	9e-05	5e-05	1e-05	0.00011	-1e-05	-2e-05	3
11075	0.0002	0.00013	9e-05	5e-05	1e-05	0.00011	-1e-05	-2e-05	3
11076	-0.00016	-0.00014	-8e-05	0	0.00011	2e-05	2e-05	-4e-05	3
11077	-8e-05	2e-05	-0.00011	-3e-05	-0.00038	-0.00029	-0.00019	-2e-05	3
11078	-8e-05	2e-05	-0.00011	-3e-05	-0.00038	-0.00029	-0.00019	-2e-05	3
11079	-8e-05	2e-05	-0.00011	-3e-05	-0.00038	-0.00029	-0.00019	-2e-05	3
11080	-8e-05	2e-05	-0.00011	-3e-05	-0.00038	-0.00029	-0.00019	-2e-05	3
11081	-8e-05	2e-05	-0.00011	-3e-05	-0.00038	-0.00029	-0.00019	-2e-05	3
11082	-8e-05	2e-05	-0.00011	-3e-05	-0.00038	-0.00029	-0.00019	-2e-05	3
11083	-8e-05	2e-05	-0.00011	-3e-05	-0.00038	-0.00029	-0.00019	-2e-05	3
11084	-8e-05	2e-05	-0.00011	-3e-05	-0.00038	-0.00029	-0.00019	-2e-05	3
11085	7e-05	-4e-05	1e-05	-0.00012	-0.00028	-0.0004	6e-05	0	3
11087	4e-05	6e-05	0	0.00011	0.0002	0.00062	0.00013	5e-05	3
11089	4e-05	6e-05	0	0.00011	0.0002	0.00062	0.00013	5e-05	3
11090	4e-05	6e-05	0	0.00011	0.0002	0.00062	0.00013	5e-05	3
11091	4e-05	6e-05	0	0.00011	0.0002	0.00062	0.00013	5e-05	3
11092	4e-05	6e-05	0	0.00011	0.0002	0.00062	0.00013	5e-05	3
11093	4e-05	6e-05	0	0.00011	0.0002	0.00062	0.00013	5e-05	3
11094	4e-05	6e-05	0	0.00011	0.0002	0.00062	0.00013	5e-05	3
11095	4e-05	6e-05	0	0.00011	0.0002	0.00062	0.00013	5e-05	3
11096	4e-05	6e-05	0	0.00011	0.0002	0.00062	0.00013	5e-05	3
11097	4e-05	6e-05	0	0.00011	0.0002	0.00062	0.00013	5e-05	3
11098	4e-05	6e-05	0	0.00011	0.0002	0.00062	0.00013	5e-05	3
11099	4e-05	6e-05	0	0.00011	0.0002	0.00062	0.00013	5e-05	3
11100	-5e-05	0	1e-05	-2e-05	6e-05	9e-05	7e-05	-2e-05	3
11101	-5e-05	0	1e-05	-2e-05	6e-05	9e-05	7e-05	-2e-05	3
11102	2e-05	-2e-05	-4e-05	1e-05	0.00039	9e-05	-5e-05	0	3
11103	2e-05	-2e-05	-4e-05	1e-05	0.00039	9e-05	-5e-05	0	3
11104	2e-05	-2e-05	-4e-05	1e-05	0.00039	9e-05	-5e-05	0	3
11105	2e-05	-2e-05	-4e-05	1e-05	0.00039	9e-05	-5e-05	0	3
11106	2e-05	-2e-05	-4e-05	1e-05	0.00039	9e-05	-5e-05	0	3
11107	2e-05	-2e-05	-4e-05	1e-05	0.00039	9e-05	-5e-05	0	3
11108	2e-05	-2e-05	-4e-05	1e-05	0.00039	9e-05	-5e-05	0	3
11109	2e-05	-2e-05	-4e-05	1e-05	0.00039	9e-05	-5e-05	0	3
11110	2e-05	-2e-05	-4e-05	1e-05	0.00039	9e-05	-5e-05	0	3
11111	2e-05	-2e-05	-4e-05	1e-05	0.00039	9e-05	-5e-05	0	3
11112	2e-05	-2e-05	-4e-05	1e-05	0.00039	9e-05	-5e-05	0	3
11113	2e-05	-2e-05	-4e-05	1e-05	0.00039	9e-05	-5e-05	0	3
11114	2e-05	-2e-05	-4e-05	1e-05	0.00039	9e-05	-5e-05	0	3
11115	2e-05	-2e-05	-4e-05	1e-05	0.00039	9e-05	-5e-05	0	3
11116	2e-05	-2e-05	-4e-05	1e-05	0.00039	9e-05	-5e-05	0	3
11117	2e-05	-2e-05	-4e-05	1e-05	0.00039	9e-05	-5e-05	0	3
11118	2e-05	-2e-05	-4e-05	1e-05	0.00039	9e-05	-5e-05	0	3
11119	2e-05	-2e-05	-4e-05	1e-05	0.00039	9e-05	-5e-05	0	3
11120	2e-05	-2e-05	-4e-05	1e-05	0.00039	9e-05	-5e-05	0	3
11121	2e-05	-2e-05	-4e-05	1e-05	0.00039	9e-05	-5e-05	0	3
11122	2e-05	-2e-05	-4e-05	1e-05	0.00039	9e-05	-5e-05	0	3
11123	-0.00027	0	5e-05	5e-05	3e-05	-6e-05	-2e-05	-3e-05	3
11124	5e-05	-8e-05	-2e-05	-0.00017	-0.00031	5e-05	0	-3e-05	3
11125	-0.00032	2e-05	-4e-05	9e-05	0.00015	0.00012	7e-05	-1e-05	3
11126	-0.00032	2e-05	-4e-05	9e-05	0.00015	0.00012	7e-05	-1e-05	3
11127	-0.00032	2e-05	-4e-05	9e-05	0.00015	0.00012	7e-05	-1e-05	3
11128	-0.00032	2e-05	-4e-05	9e-05	0.00015	0.00012	7e-05	-1e-05	3
11129	-0.00032	2e-05	-4e-05	9e-05	0.00015	0.00012	7e-05	-1e-05	3
11130	-0.00032	2e-05	-4e-05	9e-05	0.00015	0.00012	7e-05	-1e-05	3
11131	-0.00032	2e-05	-4e-05	9e-05	0.00015	0.00012	7e-05	-1e-05	3
11132	-0.00032	2e-05	-4e-05	9e-05	0.00015	0.00012	7e-05	-1e-05	3
11133	-0.00032	2e-05	-4e-05	9e-05	0.00015	0.00012	7e-05	-1e-05	3
11134	-0.00032	2e-05	-4e-05	9e-05	0.00015	0.00012	7e-05	-1e-05	3
11135	-0.00032	2e-05	-4e-05	9e-05	0.00015	0.00012	7e-05	-1e-05	3
11137	0.00032	-8e-05	-8e-05	-0.00019	-0.00047	-0.0002	-5e-05	-2e-05	3
11139	0.00032	-8e-05	-8e-05	-0.00019	-0.00047	-0.0002	-5e-05	-2e-05	3
11140	0.00032	-8e-05	-8e-05	-0.00019	-0.00047	-0.0002	-5e-05	-2e-05	3
11141	0.00032	-8e-05	-8e-05	-0.00019	-0.00047	-0.0002	-5e-05	-2e-05	3
11142	0.00032	-8e-05	-8e-05	-0.00019	-0.00047	-0.0002	-5e-05	-2e-05	3
11143	0.00032	-8e-05	-8e-05	-0.00019	-0.00047	-0.0002	-5e-05	-2e-05	3
11144	0.00032	-8e-05	-8e-05	-0.00019	-0.00047	-0.0002	-5e-05	-2e-05	3
11145	-1e-05	-5e-05	-6e-05	-7e-05	-0.00058	-0.00045	4e-05	-6e-05	3
11146	-1e-05	-5e-05	-6e-05	-7e-05	-0.00058	-0.00045	4e-05	-6e-05	3
11147	-1e-05	-5e-05	-6e-05	-7e-05	-0.00058	-0.00045	4e-05	-6e-05	3
11148	-1e-05	-5e-05	-6e-05	-7e-05	-0.00058	-0.00045	4e-05	-6e-05	3
11149	-1e-05	-5e-05	-6e-05	-7e-05	-0.00058	-0.00045	4e-05	-6e-05	3
11150	-1e-05	-5e-05	-6e-05	-7e-05	-0.00058	-0.00045	4e-05	-6e-05	3
11151	-1e-05	-5e-05	-6e-05	-7e-05	-0.00058	-0.00045	4e-05	-6e-05	3
11152	-1e-05	-5e-05	-6e-05	-7e-05	-0.00058	-0.00045	4e-05	-6e-05	3
11153	-1e-05	-5e-05	-6e-05	-7e-05	-0.00058	-0.00045	4e-05	-6e-05	3
11154	-1e-05	-5e-05	-6e-05	-7e-05	-0.00058	-0.00045	4e-05	-6e-05	3
11155	-1e-05	-5e-05	-6e-05	-7e-05	-0.00058	-0.00045	4e-05	-6e-05	3
11156	-1e-05	-5e-05	-6e-05	-7e-05	-0.00058	-0.00045	4e-05	-6e-05	3
11157	-1e-05	-5e-05	-6e-05	-7e-05	-0.00058	-0.00045	4e-05	-6e-05	3
11158	-1e-05	-5e-05	-6e-05	-7e-05	-0.00058	-0.00045	4e-05	-6e-05	3
11159	-1e-05	-5e-05	-6e-05	-7e-05	-0.00058	-0.00045	4e-05	-6e-05	3
11160	0.0002	4e-05	3e-05	4e-05	-9e-05	2e-05	9e-05	6e-05	3
11161	0.0002	4e-05	3e-05	4e-05	-9e-05	2e-05	9e-05	6e-05	3
11162	4e-05	0	3e-05	0.00017	0.00062	0.0005	0.00014	4e-05	3
11163	4e-05	0	3e-05	0.00017	0.00062	0.0005	0.00014	4e-05	3
11164	4e-05	0	3e-05	0.00017	0.00062	0.0005	0.00014	4e-05	3
11165	4e-05	0	3e-05	0.00017	0.00062	0.0005	0.00014	4e-05	3
11166	4e-05	0	3e-05	0.00017	0.00062	0.0005	0.00014	4e-05	3
11167	4e-05	0	3e-05	0.00017	0.00062	0.0005	0.00014	4e-05	3
11168	4e-05	0	3e-05	0.00017	0.00062	0.0005	0.00014	4e-05	3
11169	4e-05	0	3e-05	0.00017	0.00062	0.0005	0.00014	4e-05	3
11170	4e-05	0	3e-05	0.00017	0.00062	0.0005	0.00014	4e-05	3
11171	4e-05	0	3e-05	0.00017	0.00062	0.0005	0.00014	4e-05	3
11172	4e-05	0	3e-05	0.00017	0.00062	0.0005	0.00014	4e-05	3
11173	4e-05	0	3e-05	0.00017	0.00062	0.0005	0.00014	4e-05	3
11174	4e-05	0	3e-05	0.00017	0.00062	0.0005	0.00014	4e-05	3
11175	4e-05	0	3e-05	0.00017	0.00062	0.0005	0.00014	4e-05	3
11176	4e-05	0	3e-05	0.00017	0.00062	0.0005	0.00014	4e-05	3
11177	4e-05	0	3e-05	0.00017	0.00062	0.0005	0.00014	4e-05	3
11178	4e-05	0	3e-05	0.00017	0.00062	0.0005	0.00014	4e-05	3
11179	4e-05	0	3e-05	0.00017	0.00062	0.0005	0.00014	4e-05	3
11180	4e-05	0	3e-05	0.00017	0.00062	0.0005	0.00014	4e-05	3
11182	4e-05	0	3e-05	0.00017	0.00062	0.0005	0.00014	4e-05	3
11183	4e-05	0	3e-05	0.00017	0.00062	0.0005	0.00014	4e-05	3
11184	-7e-05	1e-05	-4e-05	-3e-05	-0.00025	0.00016	-0.00014	-3e-05	3
11185	0.00037	-5e-05	-4e-05	-0.0001	-0.00021	-0.00011	-0.00016	-1e-05	3
11187	0.00037	-5e-05	-4e-05	-0.0001	-0.00021	-0.00011	-0.00016	-1e-05	3
11189	0.00037	-5e-05	-4e-05	-0.0001	-0.00021	-0.00011	-0.00016	-1e-05	3
11190	0.00037	-5e-05	-4e-05	-0.0001	-0.00021	-0.00011	-0.00016	-1e-05	3
11191	0.00037	-5e-05	-4e-05	-0.0001	-0.00021	-0.00011	-0.00016	-1e-05	3
11192	0.00037	-5e-05	-4e-05	-0.0001	-0.00021	-0.00011	-0.00016	-1e-05	3
11193	0.00037	-5e-05	-4e-05	-0.0001	-0.00021	-0.00011	-0.00016	-1e-05	3
11194	0.00037	-5e-05	-4e-05	-0.0001	-0.00021	-0.00011	-0.00016	-1e-05	3
11195	0.00037	-5e-05	-4e-05	-0.0001	-0.00021	-0.00011	-0.00016	-1e-05	3
11196	-0.00018	-3e-05	-6e-05	-2e-05	3e-05	-0.00011	5e-05	3e-05	3
11197	-0.00098	-0.0001	-3e-05	-1e-05	-0.0002	-0.00027	-3e-05	-0.00011	3
11198	-0.00098	-0.0001	-3e-05	-1e-05	-0.0002	-0.00027	-3e-05	-0.00011	3
11199	-0.00098	-0.0001	-3e-05	-1e-05	-0.0002	-0.00027	-3e-05	-0.00011	3
11200	-0.00098	-0.0001	-3e-05	-1e-05	-0.0002	-0.00027	-3e-05	-0.00011	3
11201	-0.00098	-0.0001	-3e-05	-1e-05	-0.0002	-0.00027	-3e-05	-0.00011	3
11202	-0.00098	-0.0001	-3e-05	-1e-05	-0.0002	-0.00027	-3e-05	-0.00011	3
11203	-0.00098	-0.0001	-3e-05	-1e-05	-0.0002	-0.00027	-3e-05	-0.00011	3
11204	-0.00098	-0.0001	-3e-05	-1e-05	-0.0002	-0.00027	-3e-05	-0.00011	3
11205	9e-05	-2e-05	-6e-05	-0.00017	-0.00021	-6e-05	7e-05	1e-05	3
11207	9e-05	-2e-05	-6e-05	-0.00017	-0.00021	-6e-05	7e-05	1e-05	3
11208	9e-05	-2e-05	-6e-05	-0.00017	-0.00021	-6e-05	7e-05	1e-05	3
11209	9e-05	-2e-05	-6e-05	-0.00017	-0.00021	-6e-05	7e-05	1e-05	3
11210	9e-05	-2e-05	-6e-05	-0.00017	-0.00021	-6e-05	7e-05	1e-05	3
11211	9e-05	-2e-05	-6e-05	-0.00017	-0.00021	-6e-05	7e-05	1e-05	3
11212	9e-05	-2e-05	-6e-05	-0.00017	-0.00021	-6e-05	7e-05	1e-05	3
11213	9e-05	-2e-05	-6e-05	-0.00017	-0.00021	-6e-05	7e-05	1e-05	3
11214	9e-05	-2e-05	-6e-05	-0.00017	-0.00021	-6e-05	7e-05	1e-05	3
11215	9e-05	-2e-05	-6e-05	-0.00017	-0.00021	-6e-05	7e-05	1e-05	3
11216	9e-05	-2e-05	-6e-05	-0.00017	-0.00021	-6e-05	7e-05	1e-05	3
11217	9e-05	-2e-05	-6e-05	-0.00017	-0.00021	-6e-05	7e-05	1e-05	3
11218	9e-05	-2e-05	-6e-05	-0.00017	-0.00021	-6e-05	7e-05	1e-05	3
11219	0.00011	0	5e-05	0	-0.00027	-0.00016	5e-05	-3e-05	3
11220	0.00018	2e-05	1e-05	2e-05	0.00036	0.00018	-8e-05	4e-05	3
11221	0.00018	2e-05	1e-05	2e-05	0.00036	0.00018	-8e-05	4e-05	3
11222	0.00018	2e-05	1e-05	2e-05	0.00036	0.00018	-8e-05	4e-05	3
11223	0.00018	2e-05	1e-05	2e-05	0.00036	0.00018	-8e-05	4e-05	3
11224	0.00018	2e-05	1e-05	2e-05	0.00036	0.00018	-8e-05	4e-05	3
11225	0.00018	2e-05	1e-05	2e-05	0.00036	0.00018	-8e-05	4e-05	3
11226	0.00018	2e-05	1e-05	2e-05	0.00036	0.00018	-8e-05	4e-05	3
11227	-0.0002	1e-05	-6e-05	-8e-05	-0.00015	-0.00012	-9e-05	-4e-05	3
11228	-0.0002	1e-05	-6e-05	-8e-05	-0.00015	-0.00012	-9e-05	-4e-05	3
11229	-0.0002	1e-05	-6e-05	-8e-05	-0.00015	-0.00012	-9e-05	-4e-05	3
11230	-0.0002	1e-05	-6e-05	-8e-05	-0.00015	-0.00012	-9e-05	-4e-05	3
11231	-0.0002	1e-05	-6e-05	-8e-05	-0.00015	-0.00012	-9e-05	-4e-05	3
11232	-0.0002	1e-05	-6e-05	-8e-05	-0.00015	-0.00012	-9e-05	-4e-05	3
11233	-0.0002	1e-05	-6e-05	-8e-05	-0.00015	-0.00012	-9e-05	-4e-05	3
11234	-0.0002	1e-05	-6e-05	-8e-05	-0.00015	-0.00012	-9e-05	-4e-05	3
11235	-0.0002	1e-05	-6e-05	-8e-05	-0.00015	-0.00012	-9e-05	-4e-05	3
11237	-0.0002	1e-05	-6e-05	-8e-05	-0.00015	-0.00012	-9e-05	-4e-05	3
11239	-0.0002	1e-05	-6e-05	-8e-05	-0.00015	-0.00012	-9e-05	-4e-05	3
11240	-0.0002	1e-05	-6e-05	-8e-05	-0.00015	-0.00012	-9e-05	-4e-05	3
11241	-0.0002	1e-05	-6e-05	-8e-05	-0.00015	-0.00012	-9e-05	-4e-05	3
11242	-0.0002	1e-05	-6e-05	-8e-05	-0.00015	-0.00012	-9e-05	-4e-05	3
11243	0.00045	9e-05	-3e-05	-7e-05	-0.0004	-0.00056	-4e-05	9e-05	3
11244	1e-05	-4e-05	0.0001	0.00016	0.00055	0.00092	-0.0001	-0.0001	3
11245	9e-05	-0.00026	-9e-05	-6e-05	-1e-05	-0.00043	0.00014	-2e-05	3
11246	9e-05	-0.00026	-9e-05	-6e-05	-1e-05	-0.00043	0.00014	-2e-05	3
11247	9e-05	-0.00026	-9e-05	-6e-05	-1e-05	-0.00043	0.00014	-2e-05	3
11248	9e-05	-0.00026	-9e-05	-6e-05	-1e-05	-0.00043	0.00014	-2e-05	3
11249	9e-05	-0.00026	-9e-05	-6e-05	-1e-05	-0.00043	0.00014	-2e-05	3
11250	9e-05	-0.00026	-9e-05	-6e-05	-1e-05	-0.00043	0.00014	-2e-05	3
11251	9e-05	-0.00026	-9e-05	-6e-05	-1e-05	-0.00043	0.00014	-2e-05	3
11252	9e-05	-0.00026	-9e-05	-6e-05	-1e-05	-0.00043	0.00014	-2e-05	3
11253	9e-05	-0.00026	-9e-05	-6e-05	-1e-05	-0.00043	0.00014	-2e-05	3
11254	9e-05	-0.00026	-9e-05	-6e-05	-1e-05	-0.00043	0.00014	-2e-05	3
11255	9e-05	-0.00026	-9e-05	-6e-05	-1e-05	-0.00043	0.00014	-2e-05	3
11256	9e-05	-0.00026	-9e-05	-6e-05	-1e-05	-0.00043	0.00014	-2e-05	3
11257	9e-05	-0.00026	-9e-05	-6e-05	-1e-05	-0.00043	0.00014	-2e-05	3
11258	9e-05	-0.00026	-9e-05	-6e-05	-1e-05	-0.00043	0.00014	-2e-05	3
11259	9e-05	-0.00026	-9e-05	-6e-05	-1e-05	-0.00043	0.00014	-2e-05	3
11260	9e-05	-0.00026	-9e-05	-6e-05	-1e-05	-0.00043	0.00014	-2e-05	3
11261	9e-05	-0.00026	-9e-05	-6e-05	-1e-05	-0.00043	0.00014	-2e-05	3
11262	9e-05	-0.00026	-9e-05	-6e-05	-1e-05	-0.00043	0.00014	-2e-05	3
11263	9e-05	-0.00026	-9e-05	-6e-05	-1e-05	-0.00043	0.00014	-2e-05	3
11264	9e-05	-0.00026	-9e-05	-6e-05	-1e-05	-0.00043	0.00014	-2e-05	3
11265	0.00031	0.0001	6e-05	1e-05	0.00048	0.00029	-0.00047	-3e-05	3
11266	0.00031	0.0001	6e-05	1e-05	0.00048	0.00029	-0.00047	-3e-05	3
11267	5e-05	2e-05	-3e-05	0	-0.00019	-2e-05	1e-05	-2e-05	3
11268	5e-05	2e-05	-3e-05	0	-0.00019	-2e-05	1e-05	-2e-05	3
11269	5e-05	2e-05	-3e-05	0	-0.00019	-2e-05	1e-05	-2e-05	3
11270	5e-05	2e-05	-3e-05	0	-0.00019	-2e-05	1e-05	-2e-05	3
11271	5e-05	2e-05	-3e-05	0	-0.00019	-2e-05	1e-05	-2e-05	3
11272	5e-05	2e-05	-3e-05	0	-0.00019	-2e-05	1e-05	-2e-05	3
11273	5e-05	2e-05	-3e-05	0	-0.00019	-2e-05	1e-05	-2e-05	3
11274	5e-05	2e-05	-3e-05	0	-0.00019	-2e-05	1e-05	-2e-05	3
11275	5e-05	2e-05	-3e-05	0	-0.00019	-2e-05	1e-05	-2e-05	3
11276	5e-05	2e-05	-3e-05	0	-0.00019	-2e-05	1e-05	-2e-05	3
11277	5e-05	2e-05	-3e-05	0	-0.00019	-2e-05	1e-05	-2e-05	3
11278	5e-05	2e-05	-3e-05	0	-0.00019	-2e-05	1e-05	-2e-05	3
11279	5e-05	2e-05	-3e-05	0	-0.00019	-2e-05	1e-05	-2e-05	3
11280	-0.00067	-8e-05	0.00022	4e-05	0.00014	4e-05	0.00012	-0.00011	3
11281	-0.00067	-8e-05	0.00022	4e-05	0.00014	4e-05	0.00012	-0.00011	3
11282	-0.00023	1e-05	2e-05	-8e-05	-0.00028	4e-05	-1e-05	-1e-05	3
11283	-0.00023	1e-05	2e-05	-8e-05	-0.00028	4e-05	-1e-05	-1e-05	3
11284	-0.00023	1e-05	2e-05	-8e-05	-0.00028	4e-05	-1e-05	-1e-05	3
11285	-0.00023	1e-05	2e-05	-8e-05	-0.00028	4e-05	-1e-05	-1e-05	3
11287	-0.00023	1e-05	2e-05	-8e-05	-0.00028	4e-05	-1e-05	-1e-05	3
11289	-0.00023	1e-05	2e-05	-8e-05	-0.00028	4e-05	-1e-05	-1e-05	3
11290	-0.00023	1e-05	2e-05	-8e-05	-0.00028	4e-05	-1e-05	-1e-05	3
11291	-0.00023	1e-05	2e-05	-8e-05	-0.00028	4e-05	-1e-05	-1e-05	3
11292	-0.00023	1e-05	2e-05	-8e-05	-0.00028	4e-05	-1e-05	-1e-05	3
11293	-0.00023	1e-05	2e-05	-8e-05	-0.00028	4e-05	-1e-05	-1e-05	3
11294	-0.00023	1e-05	2e-05	-8e-05	-0.00028	4e-05	-1e-05	-1e-05	3
11295	-0.00023	1e-05	2e-05	-8e-05	-0.00028	4e-05	-1e-05	-1e-05	3
11296	-0.00023	1e-05	2e-05	-8e-05	-0.00028	4e-05	-1e-05	-1e-05	3
11297	-0.00023	1e-05	2e-05	-8e-05	-0.00028	4e-05	-1e-05	-1e-05	3
11298	-0.00023	1e-05	2e-05	-8e-05	-0.00028	4e-05	-1e-05	-1e-05	3
11299	-0.00023	1e-05	2e-05	-8e-05	-0.00028	4e-05	-1e-05	-1e-05	3
11300	-0.00023	1e-05	2e-05	-8e-05	-0.00028	4e-05	-1e-05	-1e-05	3
11301	-0.00023	1e-05	2e-05	-8e-05	-0.00028	4e-05	-1e-05	-1e-05	3
11302	-0.00023	1e-05	2e-05	-8e-05	-0.00028	4e-05	-1e-05	-1e-05	3
11303	0.00051	4e-05	-1e-05	-5e-05	-0.00023	-2e-05	0	3e-05	3
11304	0.00027	0.0001	6e-05	0.00013	-4e-05	0.00012	-1e-05	0.00011	3
11305	0.00027	0.0001	6e-05	0.00013	-4e-05	0.00012	-1e-05	0.00011	3
11306	0.00027	0.0001	6e-05	0.00013	-4e-05	0.00012	-1e-05	0.00011	3
11307	0.00027	0.0001	6e-05	0.00013	-4e-05	0.00012	-1e-05	0.00011	3
11308	0.00027	0.0001	6e-05	0.00013	-4e-05	0.00012	-1e-05	0.00011	3
11309	0.00027	0.0001	6e-05	0.00013	-4e-05	0.00012	-1e-05	0.00011	3
11310	0.00027	0.0001	6e-05	0.00013	-4e-05	0.00012	-1e-05	0.00011	3
11311	0.00027	0.0001	6e-05	0.00013	-4e-05	0.00012	-1e-05	0.00011	3
11312	0.00027	0.0001	6e-05	0.00013	-4e-05	0.00012	-1e-05	0.00011	3
11313	0.00027	0.0001	6e-05	0.00013	-4e-05	0.00012	-1e-05	0.00011	3
11314	0.00027	0.0001	6e-05	0.00013	-4e-05	0.00012	-1e-05	0.00011	3
11315	0.00027	0.0001	6e-05	0.00013	-4e-05	0.00012	-1e-05	0.00011	3
11316	0.00027	0.0001	6e-05	0.00013	-4e-05	0.00012	-1e-05	0.00011	3
11317	0.00027	0.0001	6e-05	0.00013	-4e-05	0.00012	-1e-05	0.00011	3
11318	0.00027	0.0001	6e-05	0.00013	-4e-05	0.00012	-1e-05	0.00011	3
11319	0.00027	0.0001	6e-05	0.00013	-4e-05	0.00012	-1e-05	0.00011	3
11320	0.00027	0.0001	6e-05	0.00013	-4e-05	0.00012	-1e-05	0.00011	3
11321	0.00027	0.0001	6e-05	0.00013	-4e-05	0.00012	-1e-05	0.00011	3
11322	0.00027	0.0001	6e-05	0.00013	-4e-05	0.00012	-1e-05	0.00011	3
11323	0.00027	0.0001	6e-05	0.00013	-4e-05	0.00012	-1e-05	0.00011	3
11324	0.00027	0.0001	6e-05	0.00013	-4e-05	0.00012	-1e-05	0.00011	3
11325	0.00012	1e-05	2e-05	4e-05	-0.00013	-5e-05	0.0002	4e-05	3
11326	0.00012	1e-05	2e-05	4e-05	-0.00013	-5e-05	0.0002	4e-05	3
11327	-4e-05	0	-6e-05	5e-05	0.00037	-2e-05	-7e-05	-8e-05	3
11328	-4e-05	0	-6e-05	5e-05	0.00037	-2e-05	-7e-05	-8e-05	3
11329	-4e-05	0	-6e-05	5e-05	0.00037	-2e-05	-7e-05	-8e-05	3
11330	-4e-05	0	-6e-05	5e-05	0.00037	-2e-05	-7e-05	-8e-05	3
11331	-4e-05	0	-6e-05	5e-05	0.00037	-2e-05	-7e-05	-8e-05	3
11332	-4e-05	0	-6e-05	5e-05	0.00037	-2e-05	-7e-05	-8e-05	3
11333	-4e-05	0	-6e-05	5e-05	0.00037	-2e-05	-7e-05	-8e-05	3
11334	-4e-05	0	-6e-05	5e-05	0.00037	-2e-05	-7e-05	-8e-05	3
11335	-4e-05	0	-6e-05	5e-05	0.00037	-2e-05	-7e-05	-8e-05	3
11337	-4e-05	0	-6e-05	5e-05	0.00037	-2e-05	-7e-05	-8e-05	3
11339	-4e-05	0	-6e-05	5e-05	0.00037	-2e-05	-7e-05	-8e-05	3
11340	-0.00038	-1e-05	-2e-05	7e-05	0.00032	-6e-05	8e-05	-1e-05	3
11341	-0.00038	-1e-05	-2e-05	7e-05	0.00032	-6e-05	8e-05	-1e-05	3
11342	0.00013	4e-05	0	1e-05	-7e-05	-2e-05	-0.00036	6e-05	3
11343	0.00013	4e-05	0	1e-05	-7e-05	-2e-05	-0.00036	6e-05	3
11344	0.00013	4e-05	0	1e-05	-7e-05	-2e-05	-0.00036	6e-05	3
11345	0.00013	4e-05	0	1e-05	-7e-05	-2e-05	-0.00036	6e-05	3
11346	0.00013	4e-05	0	1e-05	-7e-05	-2e-05	-0.00036	6e-05	3
11347	0.00013	4e-05	0	1e-05	-7e-05	-2e-05	-0.00036	6e-05	3
11348	0.00013	4e-05	0	1e-05	-7e-05	-2e-05	-0.00036	6e-05	3
11349	0.00013	4e-05	0	1e-05	-7e-05	-2e-05	-0.00036	6e-05	3
11350	0.00013	4e-05	0	1e-05	-7e-05	-2e-05	-0.00036	6e-05	3
11351	0.00013	4e-05	0	1e-05	-7e-05	-2e-05	-0.00036	6e-05	3
11352	0.00013	4e-05	0	1e-05	-7e-05	-2e-05	-0.00036	6e-05	3
11353	0.00013	4e-05	0	1e-05	-7e-05	-2e-05	-0.00036	6e-05	3
11354	0.00013	4e-05	0	1e-05	-7e-05	-2e-05	-0.00036	6e-05	3
11355	0.00013	4e-05	0	1e-05	-7e-05	-2e-05	-0.00036	6e-05	3
11356	0.00013	4e-05	0	1e-05	-7e-05	-2e-05	-0.00036	6e-05	3
11357	0.00013	4e-05	0	1e-05	-7e-05	-2e-05	-0.00036	6e-05	3
11358	0.00013	4e-05	0	1e-05	-7e-05	-2e-05	-0.00036	6e-05	3
11359	0.00013	4e-05	0	1e-05	-7e-05	-2e-05	-0.00036	6e-05	3
11360	0.00013	4e-05	0	1e-05	-7e-05	-2e-05	-0.00036	6e-05	3
11361	0.00013	4e-05	0	1e-05	-7e-05	-2e-05	-0.00036	6e-05	3
11362	0.00013	4e-05	0	1e-05	-7e-05	-2e-05	-0.00036	6e-05	3
11363	-0.0001	-4e-05	-0.0001	-0.00011	-0.00044	-0.00028	0.00015	-2e-05	3
11364	0.00016	0	0	-0.00011	-0.00037	-0.0003	1e-05	0	3
11365	0.00016	0	0	-0.00011	-0.00037	-0.0003	1e-05	0	3
11366	0.00016	0	0	-0.00011	-0.00037	-0.0003	1e-05	0	3
11367	0.00016	0	0	-0.00011	-0.00037	-0.0003	1e-05	0	3
11368	0.00016	0	0	-0.00011	-0.00037	-0.0003	1e-05	0	3
11369	0.00016	0	0	-0.00011	-0.00037	-0.0003	1e-05	0	3
11370	0.00016	0	0	-0.00011	-0.00037	-0.0003	1e-05	0	3
11371	0.00016	0	0	-0.00011	-0.00037	-0.0003	1e-05	0	3
11372	0.00016	0	0	-0.00011	-0.00037	-0.0003	1e-05	0	3
11373	0.00016	0	0	-0.00011	-0.00037	-0.0003	1e-05	0	3
11374	0.00016	0	0	-0.00011	-0.00037	-0.0003	1e-05	0	3
11375	0.00016	0	0	-0.00011	-0.00037	-0.0003	1e-05	0	3
11376	0.00016	0	0	-0.00011	-0.00037	-0.0003	1e-05	0	3
11377	0.00016	0	0	-0.00011	-0.00037	-0.0003	1e-05	0	3
11378	0.00016	0	0	-0.00011	-0.00037	-0.0003	1e-05	0	3
11379	0.00016	0	0	-0.00011	-0.00037	-0.0003	1e-05	0	3
11380	0.00016	0	0	-0.00011	-0.00037	-0.0003	1e-05	0	3
11381	0.00016	0	0	-0.00011	-0.00037	-0.0003	1e-05	0	3
11382	0.00016	0	0	-0.00011	-0.00037	-0.0003	1e-05	0	3
11383	0.00016	0	0	-0.00011	-0.00037	-0.0003	1e-05	0	3
11384	0.00016	0	0	-0.00011	-0.00037	-0.0003	1e-05	0	3
11385	0.00016	-1e-05	-3e-05	2e-05	0.00056	0.00033	-9e-05	1e-05	3
11387	-4e-05	-3e-05	-6e-05	5e-05	0.00031	0.00011	-5e-05	-9e-05	3
11389	-4e-05	-3e-05	-6e-05	5e-05	0.00031	0.00011	-5e-05	-9e-05	3
11390	-4e-05	-3e-05	-6e-05	5e-05	0.00031	0.00011	-5e-05	-9e-05	3
11391	-4e-05	-3e-05	-6e-05	5e-05	0.00031	0.00011	-5e-05	-9e-05	3
11392	-4e-05	-3e-05	-6e-05	5e-05	0.00031	0.00011	-5e-05	-9e-05	3
11393	-4e-05	-3e-05	-6e-05	5e-05	0.00031	0.00011	-5e-05	-9e-05	3
11394	-4e-05	-3e-05	-6e-05	5e-05	0.00031	0.00011	-5e-05	-9e-05	3
11395	-4e-05	-3e-05	-6e-05	5e-05	0.00031	0.00011	-5e-05	-9e-05	3
11396	-4e-05	-3e-05	-6e-05	5e-05	0.00031	0.00011	-5e-05	-9e-05	3
11397	-4e-05	-3e-05	-6e-05	5e-05	0.00031	0.00011	-5e-05	-9e-05	3
11398	-4e-05	-3e-05	-6e-05	5e-05	0.00031	0.00011	-5e-05	-9e-05	3
11399	-4e-05	-3e-05	-6e-05	5e-05	0.00031	0.00011	-5e-05	-9e-05	3
11400	3e-05	-4e-05	-6e-05	-8e-05	-0.00017	-0.00024	-0.00035	0	3
11401	-9e-05	1e-05	1e-05	4e-05	-3e-05	0.00012	0.00031	-1e-05	3
11402	-9e-05	1e-05	1e-05	4e-05	-3e-05	0.00012	0.00031	-1e-05	3
11403	-9e-05	1e-05	1e-05	4e-05	-3e-05	0.00012	0.00031	-1e-05	3
11404	-9e-05	1e-05	1e-05	4e-05	-3e-05	0.00012	0.00031	-1e-05	3
11405	-9e-05	1e-05	1e-05	4e-05	-3e-05	0.00012	0.00031	-1e-05	3
11406	-0.00033	3e-05	-2e-05	0	0.00032	0.0002	4e-05	-8e-05	3
11407	-0.00033	3e-05	-2e-05	0	0.00032	0.0002	4e-05	-8e-05	3
11408	-0.00033	3e-05	-2e-05	0	0.00032	0.0002	4e-05	-8e-05	3
11409	-0.00033	3e-05	-2e-05	0	0.00032	0.0002	4e-05	-8e-05	3
11410	-0.00033	3e-05	-2e-05	0	0.00032	0.0002	4e-05	-8e-05	3
11411	-0.00033	3e-05	-2e-05	0	0.00032	0.0002	4e-05	-8e-05	3
11412	-0.00033	3e-05	-2e-05	0	0.00032	0.0002	4e-05	-8e-05	3
11413	-0.00033	3e-05	-2e-05	0	0.00032	0.0002	4e-05	-8e-05	3
11414	-0.00033	3e-05	-2e-05	0	0.00032	0.0002	4e-05	-8e-05	3
11415	-0.00033	3e-05	-2e-05	0	0.00032	0.0002	4e-05	-8e-05	3
11416	-0.00033	3e-05	-2e-05	0	0.00032	0.0002	4e-05	-8e-05	3
11417	-0.00033	3e-05	-2e-05	0	0.00032	0.0002	4e-05	-8e-05	3
11418	-0.00033	3e-05	-2e-05	0	0.00032	0.0002	4e-05	-8e-05	3
11419	-0.00033	3e-05	-2e-05	0	0.00032	0.0002	4e-05	-8e-05	3
11420	-0.00033	3e-05	-2e-05	0	0.00032	0.0002	4e-05	-8e-05	3
11421	-0.00033	3e-05	-2e-05	0	0.00032	0.0002	4e-05	-8e-05	3
11422	-0.00033	3e-05	-2e-05	0	0.00032	0.0002	4e-05	-8e-05	3
11423	0.00054	2e-05	-4e-05	-0.00011	0.00012	0.00021	-6e-05	5e-05	3
11424	0	-1e-05	-4e-05	-5e-05	-0.00042	-0.00019	0	4e-05	3
11425	0	-1e-05	-4e-05	-5e-05	-0.00042	-0.00019	0	4e-05	3
11426	0	-1e-05	-4e-05	-5e-05	-0.00042	-0.00019	0	4e-05	3
11427	0	-1e-05	-4e-05	-5e-05	-0.00042	-0.00019	0	4e-05	3
11428	0	-1e-05	-4e-05	-5e-05	-0.00042	-0.00019	0	4e-05	3
11429	0	-1e-05	-4e-05	-5e-05	-0.00042	-0.00019	0	4e-05	3
11430	0	-1e-05	-4e-05	-5e-05	-0.00042	-0.00019	0	4e-05	3
11431	0	-1e-05	-4e-05	-5e-05	-0.00042	-0.00019	0	4e-05	3
11432	0	-1e-05	-4e-05	-5e-05	-0.00042	-0.00019	0	4e-05	3
11433	0	-1e-05	-4e-05	-5e-05	-0.00042	-0.00019	0	4e-05	3
11434	0	-1e-05	-4e-05	-5e-05	-0.00042	-0.00019	0	4e-05	3
11435	0	-1e-05	-4e-05	-5e-05	-0.00042	-0.00019	0	4e-05	3
11437	0	-1e-05	-4e-05	-5e-05	-0.00042	-0.00019	0	4e-05	3
11439	0	-1e-05	-4e-05	-5e-05	-0.00042	-0.00019	0	4e-05	3
11440	0	-1e-05	-4e-05	-5e-05	-0.00042	-0.00019	0	4e-05	3
11441	0	-1e-05	-4e-05	-5e-05	-0.00042	-0.00019	0	4e-05	3
11442	0	-1e-05	-4e-05	-5e-05	-0.00042	-0.00019	0	4e-05	3
11443	0	-1e-05	-4e-05	-5e-05	-0.00042	-0.00019	0	4e-05	3
11444	0	-1e-05	-4e-05	-5e-05	-0.00042	-0.00019	0	4e-05	3
11445	0.0004	3e-05	-3e-05	-3e-05	-0.00033	-7e-05	-3e-05	1e-05	3
11446	0.0004	3e-05	-3e-05	-3e-05	-0.00033	-7e-05	-3e-05	1e-05	3
11447	-0.00013	-4e-05	-1e-05	2e-05	6e-05	0.00031	-5e-05	-4e-05	3
11448	-0.00013	-4e-05	-1e-05	2e-05	6e-05	0.00031	-5e-05	-4e-05	3
11449	-0.00013	-4e-05	-1e-05	2e-05	6e-05	0.00031	-5e-05	-4e-05	3
11450	-0.00013	-4e-05	-1e-05	2e-05	6e-05	0.00031	-5e-05	-4e-05	3
11451	-0.00013	-4e-05	-1e-05	2e-05	6e-05	0.00031	-5e-05	-4e-05	3
11452	-0.00013	-4e-05	-1e-05	2e-05	6e-05	0.00031	-5e-05	-4e-05	3
11453	-0.00013	-4e-05	-1e-05	2e-05	6e-05	0.00031	-5e-05	-4e-05	3
11454	-0.00013	-4e-05	-1e-05	2e-05	6e-05	0.00031	-5e-05	-4e-05	3
11455	-0.00013	-4e-05	-1e-05	2e-05	6e-05	0.00031	-5e-05	-4e-05	3
11456	-0.00013	-4e-05	-1e-05	2e-05	6e-05	0.00031	-5e-05	-4e-05	3
11457	-0.00013	-4e-05	-1e-05	2e-05	6e-05	0.00031	-5e-05	-4e-05	3
11458	-0.00013	-4e-05	-1e-05	2e-05	6e-05	0.00031	-5e-05	-4e-05	3
11459	-0.0004	-5e-05	-1e-05	-3e-05	-0.00017	-7e-05	0	-1e-05	3
11460	-0.0004	-5e-05	-1e-05	-3e-05	-0.00017	-7e-05	0	-1e-05	3
11461	-0.0004	-5e-05	-1e-05	-3e-05	-0.00017	-7e-05	0	-1e-05	3
11462	-0.0004	-5e-05	-1e-05	-3e-05	-0.00017	-7e-05	0	-1e-05	3
11463	-0.0004	-5e-05	-1e-05	-3e-05	-0.00017	-7e-05	0	-1e-05	3
11464	-0.0004	-5e-05	-1e-05	-3e-05	-0.00017	-7e-05	0	-1e-05	3
11465	-0.0004	-5e-05	-1e-05	-3e-05	-0.00017	-7e-05	0	-1e-05	3
11466	-0.00017	2e-05	3e-05	5e-05	0.0002	-7e-05	-5e-05	-6e-05	3
11468	-0.00017	2e-05	3e-05	5e-05	0.0002	-7e-05	-5e-05	-6e-05	3
11469	-0.00017	2e-05	3e-05	5e-05	0.0002	-7e-05	-5e-05	-6e-05	3
11470	-0.00017	2e-05	3e-05	5e-05	0.0002	-7e-05	-5e-05	-6e-05	3
11471	-0.00017	2e-05	3e-05	5e-05	0.0002	-7e-05	-5e-05	-6e-05	3
11472	-0.00017	2e-05	3e-05	5e-05	0.0002	-7e-05	-5e-05	-6e-05	3
11473	-0.00017	2e-05	3e-05	5e-05	0.0002	-7e-05	-5e-05	-6e-05	3
11474	-0.00017	2e-05	3e-05	5e-05	0.0002	-7e-05	-5e-05	-6e-05	3
11475	-0.00017	2e-05	3e-05	5e-05	0.0002	-7e-05	-5e-05	-6e-05	3
11476	-0.00017	2e-05	3e-05	5e-05	0.0002	-7e-05	-5e-05	-6e-05	3
11477	-0.00017	2e-05	3e-05	5e-05	0.0002	-7e-05	-5e-05	-6e-05	3
11478	-0.00017	2e-05	3e-05	5e-05	0.0002	-7e-05	-5e-05	-6e-05	3
11479	-0.00017	2e-05	3e-05	5e-05	0.0002	-7e-05	-5e-05	-6e-05	3
11480	-0.00017	2e-05	3e-05	5e-05	0.0002	-7e-05	-5e-05	-6e-05	3
11481	-0.00017	2e-05	3e-05	5e-05	0.0002	-7e-05	-5e-05	-6e-05	3
11482	-2e-05	0	-4e-05	-4e-05	1e-05	0.00027	3e-05	-1e-05	3
11483	0.00037	-3e-05	2e-05	7e-05	0.00025	-0.00016	1e-05	6e-05	3
11484	0	0	1e-05	2e-05	-0.0001	-2e-05	1e-05	-2e-05	3
11485	0	0	1e-05	2e-05	-0.0001	-2e-05	1e-05	-2e-05	3
11487	0	0	1e-05	2e-05	-0.0001	-2e-05	1e-05	-2e-05	3
11489	0	0	1e-05	2e-05	-0.0001	-2e-05	1e-05	-2e-05	3
11490	0	0	1e-05	2e-05	-0.0001	-2e-05	1e-05	-2e-05	3
11491	0	0	1e-05	2e-05	-0.0001	-2e-05	1e-05	-2e-05	3
11492	0	0	1e-05	2e-05	-0.0001	-2e-05	1e-05	-2e-05	3
11493	0	0	1e-05	2e-05	-0.0001	-2e-05	1e-05	-2e-05	3
11494	0	0	1e-05	2e-05	-0.0001	-2e-05	1e-05	-2e-05	3
11495	0	0	1e-05	2e-05	-0.0001	-2e-05	1e-05	-2e-05	3
11496	0	0	1e-05	2e-05	-0.0001	-2e-05	1e-05	-2e-05	3
11497	0	0	1e-05	2e-05	-0.0001	-2e-05	1e-05	-2e-05	3
11498	0	0	1e-05	2e-05	-0.0001	-2e-05	1e-05	-2e-05	3
11499	0	0	1e-05	2e-05	-0.0001	-2e-05	1e-05	-2e-05	3
11500	0	0	1e-05	2e-05	-0.0001	-2e-05	1e-05	-2e-05	3
11501	0	0	1e-05	2e-05	-0.0001	-2e-05	1e-05	-2e-05	3
11502	0	0	1e-05	2e-05	-0.0001	-2e-05	1e-05	-2e-05	3
11503	0	0	1e-05	2e-05	-0.0001	-2e-05	1e-05	-2e-05	3
11504	0	0	1e-05	2e-05	-0.0001	-2e-05	1e-05	-2e-05	3
11505	-7e-05	8e-05	4e-05	0.00011	0.00066	0.00051	-1e-05	-1e-05	3
11506	-7e-05	8e-05	4e-05	0.00011	0.00066	0.00051	-1e-05	-1e-05	3
11507	0.00027	-3e-05	0	3e-05	-0.00012	-6e-05	-1e-05	-1e-05	3
11508	0.00027	-3e-05	0	3e-05	-0.00012	-6e-05	-1e-05	-1e-05	3
11509	0.00027	-3e-05	0	3e-05	-0.00012	-6e-05	-1e-05	-1e-05	3
11510	0.00027	-3e-05	0	3e-05	-0.00012	-6e-05	-1e-05	-1e-05	3
11511	0.00027	-3e-05	0	3e-05	-0.00012	-6e-05	-1e-05	-1e-05	3
11512	0.00027	-3e-05	0	3e-05	-0.00012	-6e-05	-1e-05	-1e-05	3
11513	0.00027	-3e-05	0	3e-05	-0.00012	-6e-05	-1e-05	-1e-05	3
11514	0.00027	-3e-05	0	3e-05	-0.00012	-6e-05	-1e-05	-1e-05	3
11515	0.00027	-3e-05	0	3e-05	-0.00012	-6e-05	-1e-05	-1e-05	3
11516	0.00027	-3e-05	0	3e-05	-0.00012	-6e-05	-1e-05	-1e-05	3
11517	0.00027	-3e-05	0	3e-05	-0.00012	-6e-05	-1e-05	-1e-05	3
11518	0.00027	-3e-05	0	3e-05	-0.00012	-6e-05	-1e-05	-1e-05	3
11519	-7e-05	3e-05	0	3e-05	-0.00034	-7e-05	-0.00018	-2e-05	3
11520	-7e-05	3e-05	0	3e-05	-0.00034	-7e-05	-0.00018	-2e-05	3
11521	-7e-05	3e-05	0	3e-05	-0.00034	-7e-05	-0.00018	-2e-05	3
11522	-7e-05	3e-05	0	3e-05	-0.00034	-7e-05	-0.00018	-2e-05	3
11523	-7e-05	3e-05	0	3e-05	-0.00034	-7e-05	-0.00018	-2e-05	3
11524	-7e-05	3e-05	0	3e-05	-0.00034	-7e-05	-0.00018	-2e-05	3
11525	-7e-05	3e-05	0	3e-05	-0.00034	-7e-05	-0.00018	-2e-05	3
11526	-0.00015	0	-2e-05	-9e-05	-0.00036	-0.00022	-1e-05	-6e-05	3
11527	-0.00015	0	-2e-05	-9e-05	-0.00036	-0.00022	-1e-05	-6e-05	3
11528	-0.00015	0	-2e-05	-9e-05	-0.00036	-0.00022	-1e-05	-6e-05	3
11529	-0.00015	0	-2e-05	-9e-05	-0.00036	-0.00022	-1e-05	-6e-05	3
11530	-0.00015	0	-2e-05	-9e-05	-0.00036	-0.00022	-1e-05	-6e-05	3
11531	-0.00015	0	-2e-05	-9e-05	-0.00036	-0.00022	-1e-05	-6e-05	3
11532	-0.00015	0	-2e-05	-9e-05	-0.00036	-0.00022	-1e-05	-6e-05	3
11533	-0.00015	0	-2e-05	-9e-05	-0.00036	-0.00022	-1e-05	-6e-05	3
11534	-0.00015	0	-2e-05	-9e-05	-0.00036	-0.00022	-1e-05	-6e-05	3
11535	-0.00015	0	-2e-05	-9e-05	-0.00036	-0.00022	-1e-05	-6e-05	3
11537	-0.00015	0	-2e-05	-9e-05	-0.00036	-0.00022	-1e-05	-6e-05	3
11539	-0.00015	0	-2e-05	-9e-05	-0.00036	-0.00022	-1e-05	-6e-05	3
11540	-0.00015	0	-2e-05	-9e-05	-0.00036	-0.00022	-1e-05	-6e-05	3
11541	-0.00015	0	-2e-05	-9e-05	-0.00036	-0.00022	-1e-05	-6e-05	3
11542	-0.00015	0	-2e-05	-9e-05	-0.00036	-0.00022	-1e-05	-6e-05	3
11543	0.00022	-3e-05	-4e-05	-9e-05	-0.00027	-0.00031	-5e-05	-3e-05	3
11544	0.00014	0	-1e-05	-5e-05	-0.00012	-0.00016	-6e-05	-5e-05	3
11546	0.00014	0	-1e-05	-5e-05	-0.00012	-0.00016	-6e-05	-5e-05	3
11547	0.00014	0	-1e-05	-5e-05	-0.00012	-0.00016	-6e-05	-5e-05	3
11548	0.00014	0	-1e-05	-5e-05	-0.00012	-0.00016	-6e-05	-5e-05	3
11549	0.00014	0	-1e-05	-5e-05	-0.00012	-0.00016	-6e-05	-5e-05	3
11550	0.00014	0	-1e-05	-5e-05	-0.00012	-0.00016	-6e-05	-5e-05	3
11551	0.00014	0	-1e-05	-5e-05	-0.00012	-0.00016	-6e-05	-5e-05	3
11552	0.00014	0	-1e-05	-5e-05	-0.00012	-0.00016	-6e-05	-5e-05	3
11553	0.00014	0	-1e-05	-5e-05	-0.00012	-0.00016	-6e-05	-5e-05	3
11554	0.00014	0	-1e-05	-5e-05	-0.00012	-0.00016	-6e-05	-5e-05	3
11555	0.00014	0	-1e-05	-5e-05	-0.00012	-0.00016	-6e-05	-5e-05	3
11556	0.00014	0	-1e-05	-5e-05	-0.00012	-0.00016	-6e-05	-5e-05	3
11557	0.00014	0	-1e-05	-5e-05	-0.00012	-0.00016	-6e-05	-5e-05	3
11558	0.00014	0	-1e-05	-5e-05	-0.00012	-0.00016	-6e-05	-5e-05	3
11559	0.00014	0	-1e-05	-5e-05	-0.00012	-0.00016	-6e-05	-5e-05	3
11560	0.00014	0	-1e-05	-5e-05	-0.00012	-0.00016	-6e-05	-5e-05	3
11561	0.00014	0	-1e-05	-5e-05	-0.00012	-0.00016	-6e-05	-5e-05	3
11562	0.00014	0	-1e-05	-5e-05	-0.00012	-0.00016	-6e-05	-5e-05	3
11563	0.00014	0	-1e-05	-5e-05	-0.00012	-0.00016	-6e-05	-5e-05	3
11564	0.00014	0	-1e-05	-5e-05	-0.00012	-0.00016	-6e-05	-5e-05	3
11565	-9e-05	-7e-05	-4e-05	4e-05	0.00054	1e-05	8e-05	3e-05	3
11566	-9e-05	-7e-05	-4e-05	4e-05	0.00054	1e-05	8e-05	3e-05	3
39298	0.00027	6e-05	-2e-05	-0.00033	0.00027	8e-05	0.00015	0.00024	3
39299	0.00027	6e-05	-2e-05	-0.00033	0.00027	8e-05	0.00015	0.00024	3
39304	0.00027	6e-05	-2e-05	-0.00033	0.00027	8e-05	0.00015	0.00024	3
39305	0.00027	6e-05	-2e-05	-0.00033	0.00027	8e-05	0.00015	0.00024	3
39306	0.00027	6e-05	-2e-05	-0.00033	0.00027	8e-05	0.00015	0.00024	3
39307	0.00027	6e-05	-2e-05	-0.00033	0.00027	8e-05	0.00015	0.00024	3
39308	0.00027	6e-05	-2e-05	-0.00033	0.00027	8e-05	0.00015	0.00024	3
39309	0.00027	6e-05	-2e-05	-0.00033	0.00027	8e-05	0.00015	0.00024	3
39310	0.00027	6e-05	-2e-05	-0.00033	0.00027	8e-05	0.00015	0.00024	3
39311	0.00027	6e-05	-2e-05	-0.00033	0.00027	8e-05	0.00015	0.00024	3
39312	0.00027	6e-05	-2e-05	-0.00033	0.00027	8e-05	0.00015	0.00024	3
39313	0.00027	6e-05	-2e-05	-0.00033	0.00027	8e-05	0.00015	0.00024	3
39314	0.00027	6e-05	-2e-05	-0.00033	0.00027	8e-05	0.00015	0.00024	3
39315	-0.00013	-7e-05	-6e-05	-0.00013	-0.00055	-9e-05	-0.00025	-0.00054	3
39316	9e-05	-1e-05	-4e-05	-3e-05	0.00018	0.00046	0.00011	0.00013	3
39317	0.00029	8e-05	5e-05	0	0.00069	0.00037	0.0003	-5e-05	3
39318	0.00029	8e-05	5e-05	0	0.00069	0.00037	0.0003	-5e-05	3
39319	0.00029	8e-05	5e-05	0	0.00069	0.00037	0.0003	-5e-05	3
39320	0.00029	8e-05	5e-05	0	0.00069	0.00037	0.0003	-5e-05	3
39321	0.00029	8e-05	5e-05	0	0.00069	0.00037	0.0003	-5e-05	3
39324	0.00029	8e-05	5e-05	0	0.00069	0.00037	0.0003	-5e-05	3
39325	0.00029	8e-05	5e-05	0	0.00069	0.00037	0.0003	-5e-05	3
39326	0.00029	8e-05	5e-05	0	0.00069	0.00037	0.0003	-5e-05	3
39327	0.00029	8e-05	5e-05	0	0.00069	0.00037	0.0003	-5e-05	3
39328	0.00029	8e-05	5e-05	0	0.00069	0.00037	0.0003	-5e-05	3
39329	0.00029	8e-05	5e-05	0	0.00069	0.00037	0.0003	-5e-05	3
39330	0.00029	8e-05	5e-05	0	0.00069	0.00037	0.0003	-5e-05	3
39331	0.00029	8e-05	5e-05	0	0.00069	0.00037	0.0003	-5e-05	3
39332	0.00029	8e-05	5e-05	0	0.00069	0.00037	0.0003	-5e-05	3
39333	0.00029	8e-05	5e-05	0	0.00069	0.00037	0.0003	-5e-05	3
39334	0.00029	8e-05	5e-05	0	0.00069	0.00037	0.0003	-5e-05	3
39335	0.00029	8e-05	5e-05	0	0.00069	0.00037	0.0003	-5e-05	3
39336	0.00029	8e-05	5e-05	0	0.00069	0.00037	0.0003	-5e-05	3
39338	-6e-05	-0.00014	-0.00029	-0.00047	-0.00024	-0.00018	-0.00033	-0.00012	3
39339	-0.00028	9e-05	0.00013	0.00021	0.00047	0.00061	0.00035	0.00022	3
39340	-0.00028	9e-05	0.00013	0.00021	0.00047	0.00061	0.00035	0.00022	3
39341	-0.00028	9e-05	0.00013	0.00021	0.00047	0.00061	0.00035	0.00022	3
39342	-0.00028	9e-05	0.00013	0.00021	0.00047	0.00061	0.00035	0.00022	3
39343	-0.00028	9e-05	0.00013	0.00021	0.00047	0.00061	0.00035	0.00022	3
39344	-0.00028	9e-05	0.00013	0.00021	0.00047	0.00061	0.00035	0.00022	3
39345	-0.00028	9e-05	0.00013	0.00021	0.00047	0.00061	0.00035	0.00022	3
39346	-0.00028	9e-05	0.00013	0.00021	0.00047	0.00061	0.00035	0.00022	3
39347	-0.00028	9e-05	0.00013	0.00021	0.00047	0.00061	0.00035	0.00022	3
39348	-0.00028	9e-05	0.00013	0.00021	0.00047	0.00061	0.00035	0.00022	3
39349	-0.00028	9e-05	0.00013	0.00021	0.00047	0.00061	0.00035	0.00022	3
39350	-0.00028	9e-05	0.00013	0.00021	0.00047	0.00061	0.00035	0.00022	3
39351	-2e-05	-3e-05	8e-05	6e-05	8e-05	-6e-05	0.00012	0.00018	3
39352	0.00013	6e-05	-5e-05	-0.00017	0.00016	-0.00019	-0.00011	-7e-05	3
39353	0.00013	6e-05	-5e-05	-0.00017	0.00016	-0.00019	-0.00011	-7e-05	3
39354	0.00013	6e-05	-5e-05	-0.00017	0.00016	-0.00019	-0.00011	-7e-05	3
39355	0.00013	6e-05	-5e-05	-0.00017	0.00016	-0.00019	-0.00011	-7e-05	3
39356	0.00013	6e-05	-5e-05	-0.00017	0.00016	-0.00019	-0.00011	-7e-05	3
39357	0.00013	6e-05	-5e-05	-0.00017	0.00016	-0.00019	-0.00011	-7e-05	3
39358	0.00013	6e-05	-5e-05	-0.00017	0.00016	-0.00019	-0.00011	-7e-05	3
39359	0.00024	-1e-05	9e-05	0.00034	0.00035	-0.00045	-0.0001	5e-05	3
39360	0.00024	-1e-05	9e-05	0.00034	0.00035	-0.00045	-0.0001	5e-05	3
39361	0.00024	-1e-05	9e-05	0.00034	0.00035	-0.00045	-0.0001	5e-05	3
39362	0.00024	-1e-05	9e-05	0.00034	0.00035	-0.00045	-0.0001	5e-05	3
39363	0.00024	-1e-05	9e-05	0.00034	0.00035	-0.00045	-0.0001	5e-05	3
39364	0.00024	-1e-05	9e-05	0.00034	0.00035	-0.00045	-0.0001	5e-05	3
39365	0.00024	-1e-05	9e-05	0.00034	0.00035	-0.00045	-0.0001	5e-05	3
39366	0.00024	-1e-05	9e-05	0.00034	0.00035	-0.00045	-0.0001	5e-05	3
39367	0.00024	-1e-05	9e-05	0.00034	0.00035	-0.00045	-0.0001	5e-05	3
39368	0.00024	-1e-05	9e-05	0.00034	0.00035	-0.00045	-0.0001	5e-05	3
39370	0.00024	-1e-05	9e-05	0.00034	0.00035	-0.00045	-0.0001	5e-05	3
39371	0.00024	-1e-05	9e-05	0.00034	0.00035	-0.00045	-0.0001	5e-05	3
39372	0.00024	-1e-05	9e-05	0.00034	0.00035	-0.00045	-0.0001	5e-05	3
39373	0.00024	-1e-05	9e-05	0.00034	0.00035	-0.00045	-0.0001	5e-05	3
39374	0.00024	-1e-05	9e-05	0.00034	0.00035	-0.00045	-0.0001	5e-05	3
39375	0.00024	-1e-05	9e-05	0.00034	0.00035	-0.00045	-0.0001	5e-05	3
39376	-2e-05	-9e-05	4e-05	0.00015	-0.00037	0	-6e-05	-0.00013	3
39377	-2e-05	-9e-05	4e-05	0.00015	-0.00037	0	-6e-05	-0.00013	3
39379	-2e-05	-9e-05	4e-05	0.00015	-0.00037	0	-6e-05	-0.00013	3
39380	-2e-05	-9e-05	4e-05	0.00015	-0.00037	0	-6e-05	-0.00013	3
39381	-2e-05	-9e-05	4e-05	0.00015	-0.00037	0	-6e-05	-0.00013	3
39382	-2e-05	-9e-05	4e-05	0.00015	-0.00037	0	-6e-05	-0.00013	3
39383	-2e-05	-9e-05	4e-05	0.00015	-0.00037	0	-6e-05	-0.00013	3
39384	-2e-05	-9e-05	4e-05	0.00015	-0.00037	0	-6e-05	-0.00013	3
39385	-2e-05	-9e-05	4e-05	0.00015	-0.00037	0	-6e-05	-0.00013	3
39386	-2e-05	-9e-05	4e-05	0.00015	-0.00037	0	-6e-05	-0.00013	3
39388	-2e-05	-9e-05	4e-05	0.00015	-0.00037	0	-6e-05	-0.00013	3
39389	-2e-05	-9e-05	4e-05	0.00015	-0.00037	0	-6e-05	-0.00013	3
39390	-2e-05	-9e-05	4e-05	0.00015	-0.00037	0	-6e-05	-0.00013	3
39391	-2e-05	-9e-05	4e-05	0.00015	-0.00037	0	-6e-05	-0.00013	3
39392	-2e-05	-9e-05	4e-05	0.00015	-0.00037	0	-6e-05	-0.00013	3
39393	-2e-05	-9e-05	4e-05	0.00015	-0.00037	0	-6e-05	-0.00013	3
39394	-2e-05	-9e-05	4e-05	0.00015	-0.00037	0	-6e-05	-0.00013	3
39395	-2e-05	-9e-05	4e-05	0.00015	-0.00037	0	-6e-05	-0.00013	3
39396	-2e-05	-9e-05	4e-05	0.00015	-0.00037	0	-6e-05	-0.00013	3
39397	-2e-05	-9e-05	4e-05	0.00015	-0.00037	0	-6e-05	-0.00013	3
39398	-0.00026	-3e-05	-2e-05	8e-05	-0.00092	-0.00041	-0.00029	-3e-05	3
39399	-0.00026	-3e-05	-2e-05	8e-05	-0.00092	-0.00041	-0.00029	-3e-05	3
39400	-0.00026	-3e-05	-2e-05	8e-05	-0.00092	-0.00041	-0.00029	-3e-05	3
39401	-0.00026	-3e-05	-2e-05	8e-05	-0.00092	-0.00041	-0.00029	-3e-05	3
39402	-0.00026	-3e-05	-2e-05	8e-05	-0.00092	-0.00041	-0.00029	-3e-05	3
39403	-0.00026	-3e-05	-2e-05	8e-05	-0.00092	-0.00041	-0.00029	-3e-05	3
39404	-0.00026	-3e-05	-2e-05	8e-05	-0.00092	-0.00041	-0.00029	-3e-05	3
39405	-0.00026	-3e-05	-2e-05	8e-05	-0.00092	-0.00041	-0.00029	-3e-05	3
39406	-0.00026	-3e-05	-2e-05	8e-05	-0.00092	-0.00041	-0.00029	-3e-05	3
39407	-0.00026	-3e-05	-2e-05	8e-05	-0.00092	-0.00041	-0.00029	-3e-05	3
39408	-0.00026	-3e-05	-2e-05	8e-05	-0.00092	-0.00041	-0.00029	-3e-05	3
39409	-0.00026	-3e-05	-2e-05	8e-05	-0.00092	-0.00041	-0.00029	-3e-05	3
39410	-0.00026	-3e-05	-2e-05	8e-05	-0.00092	-0.00041	-0.00029	-3e-05	3
39411	-0.0002	-0.0001	-0.00018	-0.00035	0.00101	0.00071	0.00011	-5e-05	3
39412	-0.0002	-0.0001	-0.00018	-0.00035	0.00101	0.00071	0.00011	-5e-05	3
39413	-0.0002	-0.0001	-0.00018	-0.00035	0.00101	0.00071	0.00011	-5e-05	3
39414	-0.0002	-0.0001	-0.00018	-0.00035	0.00101	0.00071	0.00011	-5e-05	3
39415	-0.0002	-0.0001	-0.00018	-0.00035	0.00101	0.00071	0.00011	-5e-05	3
39416	-0.0002	-0.0001	-0.00018	-0.00035	0.00101	0.00071	0.00011	-5e-05	3
39417	-0.0002	-0.0001	-0.00018	-0.00035	0.00101	0.00071	0.00011	-5e-05	3
39418	-0.0002	-0.0001	-0.00018	-0.00035	0.00101	0.00071	0.00011	-5e-05	3
39419	3e-05	3e-05	3e-05	0.00016	-0.00069	-0.00037	-0.00038	0	3
39420	0.00016	-3e-05	-3e-05	-0.00015	-0.00015	8e-05	0.00012	4e-05	3
39421	0.00016	-3e-05	-3e-05	-0.00015	-0.00015	8e-05	0.00012	4e-05	3
39422	0.00016	-3e-05	-3e-05	-0.00015	-0.00015	8e-05	0.00012	4e-05	3
39423	0.00016	-3e-05	-3e-05	-0.00015	-0.00015	8e-05	0.00012	4e-05	3
39424	0.00016	-3e-05	-3e-05	-0.00015	-0.00015	8e-05	0.00012	4e-05	3
39425	0.00016	-3e-05	-3e-05	-0.00015	-0.00015	8e-05	0.00012	4e-05	3
39426	0.00016	-3e-05	-3e-05	-0.00015	-0.00015	8e-05	0.00012	4e-05	3
39427	0.00016	-3e-05	-3e-05	-0.00015	-0.00015	8e-05	0.00012	4e-05	3
39428	0.00016	-3e-05	-3e-05	-0.00015	-0.00015	8e-05	0.00012	4e-05	3
39429	0.00016	-3e-05	-3e-05	-0.00015	-0.00015	8e-05	0.00012	4e-05	3
39430	0.00016	-3e-05	-3e-05	-0.00015	-0.00015	8e-05	0.00012	4e-05	3
39431	0.00016	-3e-05	-3e-05	-0.00015	-0.00015	8e-05	0.00012	4e-05	3
39432	0.00016	-3e-05	-3e-05	-0.00015	-0.00015	8e-05	0.00012	4e-05	3
39433	0.00016	-3e-05	-3e-05	-0.00015	-0.00015	8e-05	0.00012	4e-05	3
39434	0.00016	-3e-05	-3e-05	-0.00015	-0.00015	8e-05	0.00012	4e-05	3
39435	-0.0003	-0.00014	-0.00031	-0.00046	0.00015	0.00014	0.00015	-5e-05	3
39437	0.00046	0.00011	0.00015	-3e-05	-0.00027	7e-05	3e-05	0.00029	3
39439	0.00046	0.00011	0.00015	-3e-05	-0.00027	7e-05	3e-05	0.00029	3
39440	0.00046	0.00011	0.00015	-3e-05	-0.00027	7e-05	3e-05	0.00029	3
39441	0.00046	0.00011	0.00015	-3e-05	-0.00027	7e-05	3e-05	0.00029	3
39442	0.00046	0.00011	0.00015	-3e-05	-0.00027	7e-05	3e-05	0.00029	3
39443	0.00046	0.00011	0.00015	-3e-05	-0.00027	7e-05	3e-05	0.00029	3
39444	0.00046	0.00011	0.00015	-3e-05	-0.00027	7e-05	3e-05	0.00029	3
39445	0.00046	0.00011	0.00015	-3e-05	-0.00027	7e-05	3e-05	0.00029	3
39446	0.00046	0.00011	0.00015	-3e-05	-0.00027	7e-05	3e-05	0.00029	3
39447	0.00046	0.00011	0.00015	-3e-05	-0.00027	7e-05	3e-05	0.00029	3
39448	0.00046	0.00011	0.00015	-3e-05	-0.00027	7e-05	3e-05	0.00029	3
39449	0.00046	0.00011	0.00015	-3e-05	-0.00027	7e-05	3e-05	0.00029	3
39450	0.00046	0.00011	0.00015	-3e-05	-0.00027	7e-05	3e-05	0.00029	3
39451	0.00046	0.00011	0.00015	-3e-05	-0.00027	7e-05	3e-05	0.00029	3
39452	0.00046	0.00011	0.00015	-3e-05	-0.00027	7e-05	3e-05	0.00029	3
39453	0.00046	0.00011	0.00015	-3e-05	-0.00027	7e-05	3e-05	0.00029	3
39454	0.00046	0.00011	0.00015	-3e-05	-0.00027	7e-05	3e-05	0.00029	3
39455	0.00046	0.00011	0.00015	-3e-05	-0.00027	7e-05	3e-05	0.00029	3
39456	0.00046	0.00011	0.00015	-3e-05	-0.00027	7e-05	3e-05	0.00029	3
39457	0.00046	0.00011	0.00015	-3e-05	-0.00027	7e-05	3e-05	0.00029	3
39458	-0.00015	-1e-05	4e-05	9e-05	-0.00029	8e-05	0.00016	0	3
39459	-0.00024	-3e-05	9e-05	0.00012	-0.00027	-2e-05	-0.00022	7e-05	3
39460	0.00016	2e-05	1e-05	-0.00026	-0.00052	1e-05	3e-05	-0.00024	3
39461	0.00016	2e-05	1e-05	-0.00026	-0.00052	1e-05	3e-05	-0.00024	3
39462	0.00016	2e-05	1e-05	-0.00026	-0.00052	1e-05	3e-05	-0.00024	3
39463	0.00016	2e-05	1e-05	-0.00026	-0.00052	1e-05	3e-05	-0.00024	3
39464	0.00016	2e-05	1e-05	-0.00026	-0.00052	1e-05	3e-05	-0.00024	3
39465	0.00016	2e-05	1e-05	-0.00026	-0.00052	1e-05	3e-05	-0.00024	3
39466	0.00016	2e-05	1e-05	-0.00026	-0.00052	1e-05	3e-05	-0.00024	3
39467	0.00016	2e-05	1e-05	-0.00026	-0.00052	1e-05	3e-05	-0.00024	3
39468	0.00016	2e-05	1e-05	-0.00026	-0.00052	1e-05	3e-05	-0.00024	3
39469	0.00016	2e-05	1e-05	-0.00026	-0.00052	1e-05	3e-05	-0.00024	3
39470	0.00016	2e-05	1e-05	-0.00026	-0.00052	1e-05	3e-05	-0.00024	3
39471	0.00027	1e-05	4e-05	0.0002	0.00051	6e-05	8e-05	0.00014	3
39472	4e-05	-7e-05	-5e-05	-4e-05	0.00086	-0.00013	7e-05	2e-05	3
39473	4e-05	-7e-05	-5e-05	-4e-05	0.00086	-0.00013	7e-05	2e-05	3
39474	4e-05	-7e-05	-5e-05	-4e-05	0.00086	-0.00013	7e-05	2e-05	3
39475	4e-05	-7e-05	-5e-05	-4e-05	0.00086	-0.00013	7e-05	2e-05	3
39476	4e-05	-7e-05	-5e-05	-4e-05	0.00086	-0.00013	7e-05	2e-05	3
39477	4e-05	-7e-05	-5e-05	-4e-05	0.00086	-0.00013	7e-05	2e-05	3
39478	4e-05	-7e-05	-5e-05	-4e-05	0.00086	-0.00013	7e-05	2e-05	3
39479	4e-05	-7e-05	-5e-05	-4e-05	0.00086	-0.00013	7e-05	2e-05	3
39480	-0.00027	-5e-05	-0.00011	-0.00012	-0.00031	-0.00014	2e-05	-0.00019	3
39481	-0.00027	-5e-05	-0.00011	-0.00012	-0.00031	-0.00014	2e-05	-0.00019	3
39482	-0.00027	-5e-05	-0.00011	-0.00012	-0.00031	-0.00014	2e-05	-0.00019	3
39483	-0.00027	-5e-05	-0.00011	-0.00012	-0.00031	-0.00014	2e-05	-0.00019	3
39484	-0.00027	-5e-05	-0.00011	-0.00012	-0.00031	-0.00014	2e-05	-0.00019	3
39485	-0.00027	-5e-05	-0.00011	-0.00012	-0.00031	-0.00014	2e-05	-0.00019	3
39487	-0.00027	-5e-05	-0.00011	-0.00012	-0.00031	-0.00014	2e-05	-0.00019	3
39489	-0.00027	-5e-05	-0.00011	-0.00012	-0.00031	-0.00014	2e-05	-0.00019	3
39490	-0.00027	-5e-05	-0.00011	-0.00012	-0.00031	-0.00014	2e-05	-0.00019	3
39491	-0.00027	-5e-05	-0.00011	-0.00012	-0.00031	-0.00014	2e-05	-0.00019	3
39492	-0.00027	-5e-05	-0.00011	-0.00012	-0.00031	-0.00014	2e-05	-0.00019	3
39493	-0.00027	-5e-05	-0.00011	-0.00012	-0.00031	-0.00014	2e-05	-0.00019	3
39494	-0.00027	-5e-05	-0.00011	-0.00012	-0.00031	-0.00014	2e-05	-0.00019	3
39495	4e-05	5e-05	0.00011	0.00026	0.00029	0.0001	0.00011	0	3
39496	2e-05	3e-05	9e-05	-0.00028	0.00014	0.00013	0.00019	-6e-05	3
39497	2e-05	3e-05	9e-05	-0.00028	0.00014	0.00013	0.00019	-6e-05	3
39498	2e-05	3e-05	9e-05	-0.00028	0.00014	0.00013	0.00019	-6e-05	3
39499	2e-05	3e-05	9e-05	-0.00028	0.00014	0.00013	0.00019	-6e-05	3
39500	2e-05	3e-05	9e-05	-0.00028	0.00014	0.00013	0.00019	-6e-05	3
39501	2e-05	3e-05	9e-05	-0.00028	0.00014	0.00013	0.00019	-6e-05	3
39502	2e-05	3e-05	9e-05	-0.00028	0.00014	0.00013	0.00019	-6e-05	3
39503	2e-05	3e-05	9e-05	-0.00028	0.00014	0.00013	0.00019	-6e-05	3
39504	2e-05	3e-05	9e-05	-0.00028	0.00014	0.00013	0.00019	-6e-05	3
39505	2e-05	3e-05	9e-05	-0.00028	0.00014	0.00013	0.00019	-6e-05	3
39506	2e-05	3e-05	9e-05	-0.00028	0.00014	0.00013	0.00019	-6e-05	3
39507	2e-05	3e-05	9e-05	-0.00028	0.00014	0.00013	0.00019	-6e-05	3
39508	2e-05	3e-05	9e-05	-0.00028	0.00014	0.00013	0.00019	-6e-05	3
39509	2e-05	3e-05	9e-05	-0.00028	0.00014	0.00013	0.00019	-6e-05	3
39510	2e-05	3e-05	9e-05	-0.00028	0.00014	0.00013	0.00019	-6e-05	3
39511	2e-05	3e-05	9e-05	-0.00028	0.00014	0.00013	0.00019	-6e-05	3
39512	2e-05	3e-05	9e-05	-0.00028	0.00014	0.00013	0.00019	-6e-05	3
39513	2e-05	3e-05	9e-05	-0.00028	0.00014	0.00013	0.00019	-6e-05	3
39514	2e-05	3e-05	9e-05	-0.00028	0.00014	0.00013	0.00019	-6e-05	3
39515	2e-05	3e-05	9e-05	-0.00028	0.00014	0.00013	0.00019	-6e-05	3
39516	2e-05	3e-05	9e-05	-0.00028	0.00014	0.00013	0.00019	-6e-05	3
39517	2e-05	3e-05	9e-05	-0.00028	0.00014	0.00013	0.00019	-6e-05	3
39518	0.00073	7e-05	2e-05	0.00013	-0.00051	2e-05	0.00018	0.00019	3
39519	-0.00025	-5e-05	-1e-05	-0.00015	0.00011	-0.0001	0	-4e-05	3
39520	-0.00025	-5e-05	-1e-05	-0.00015	0.00011	-0.0001	0	-4e-05	3
39521	-0.00025	-5e-05	-1e-05	-0.00015	0.00011	-0.0001	0	-4e-05	3
39522	-0.00025	-5e-05	-1e-05	-0.00015	0.00011	-0.0001	0	-4e-05	3
39523	-0.00025	-5e-05	-1e-05	-0.00015	0.00011	-0.0001	0	-4e-05	3
39524	-0.00025	-5e-05	-1e-05	-0.00015	0.00011	-0.0001	0	-4e-05	3
39525	-0.00025	-5e-05	-1e-05	-0.00015	0.00011	-0.0001	0	-4e-05	3
39526	-0.00025	-5e-05	-1e-05	-0.00015	0.00011	-0.0001	0	-4e-05	3
39527	-0.00025	-5e-05	-1e-05	-0.00015	0.00011	-0.0001	0	-4e-05	3
39528	-0.00025	-5e-05	-1e-05	-0.00015	0.00011	-0.0001	0	-4e-05	3
39529	-0.00025	-5e-05	-1e-05	-0.00015	0.00011	-0.0001	0	-4e-05	3
39530	-0.00025	-5e-05	-1e-05	-0.00015	0.00011	-0.0001	0	-4e-05	3
39531	5e-05	-1e-05	-0.00013	-0.00011	-0.00026	-0.00018	-0.00029	-0.00014	3
39532	8e-05	-4e-05	-0.00016	-0.00018	-3e-05	0.00029	0.00017	9e-05	3
39533	8e-05	-4e-05	-0.00016	-0.00018	-3e-05	0.00029	0.00017	9e-05	3
39534	8e-05	-4e-05	-0.00016	-0.00018	-3e-05	0.00029	0.00017	9e-05	3
39535	8e-05	-4e-05	-0.00016	-0.00018	-3e-05	0.00029	0.00017	9e-05	3
39537	8e-05	-4e-05	-0.00016	-0.00018	-3e-05	0.00029	0.00017	9e-05	3
39539	8e-05	-4e-05	-0.00016	-0.00018	-3e-05	0.00029	0.00017	9e-05	3
39540	0.00043	8e-05	0.0001	0.00014	0.00076	-0.00012	4e-05	0.00011	3
39541	-0.0002	-3e-05	-2e-05	5e-05	7e-05	-1e-05	-0.00019	-0.0001	3
39542	-0.0002	-3e-05	-2e-05	5e-05	7e-05	-1e-05	-0.00019	-0.0001	3
39543	-0.0002	-3e-05	-2e-05	5e-05	7e-05	-1e-05	-0.00019	-0.0001	3
39544	-0.0002	-3e-05	-2e-05	5e-05	7e-05	-1e-05	-0.00019	-0.0001	3
39545	-0.0002	-3e-05	-2e-05	5e-05	7e-05	-1e-05	-0.00019	-0.0001	3
39546	-0.0002	-3e-05	-2e-05	5e-05	7e-05	-1e-05	-0.00019	-0.0001	3
39547	-0.0002	-3e-05	-2e-05	5e-05	7e-05	-1e-05	-0.00019	-0.0001	3
39548	-0.0002	-3e-05	-2e-05	5e-05	7e-05	-1e-05	-0.00019	-0.0001	3
39549	-0.0002	-3e-05	-2e-05	5e-05	7e-05	-1e-05	-0.00019	-0.0001	3
39550	-0.0002	-3e-05	-2e-05	5e-05	7e-05	-1e-05	-0.00019	-0.0001	3
39551	-0.0002	-3e-05	-2e-05	5e-05	7e-05	-1e-05	-0.00019	-0.0001	3
39552	-0.0002	-3e-05	-2e-05	5e-05	7e-05	-1e-05	-0.00019	-0.0001	3
39553	-0.0002	-3e-05	-2e-05	5e-05	7e-05	-1e-05	-0.00019	-0.0001	3
39554	-0.0002	-3e-05	-2e-05	5e-05	7e-05	-1e-05	-0.00019	-0.0001	3
39555	0.00042	2e-05	0.00013	0.00021	0.00016	0.0003	0.00018	8e-05	3
39556	0.00017	-3e-05	-0.00013	-0.00012	-2e-05	-0.00017	7e-05	1e-05	3
39557	-9e-05	-1e-05	-8e-05	-0.00023	-0.00082	-0.00012	-0.00015	-0.00016	3
39558	-9e-05	-1e-05	-8e-05	-0.00023	-0.00082	-0.00012	-0.00015	-0.00016	3
39559	-9e-05	-1e-05	-8e-05	-0.00023	-0.00082	-0.00012	-0.00015	-0.00016	3
39560	-9e-05	-1e-05	-8e-05	-0.00023	-0.00082	-0.00012	-0.00015	-0.00016	3
39561	-9e-05	-1e-05	-8e-05	-0.00023	-0.00082	-0.00012	-0.00015	-0.00016	3
39562	-9e-05	-1e-05	-8e-05	-0.00023	-0.00082	-0.00012	-0.00015	-0.00016	3
39563	-9e-05	-1e-05	-8e-05	-0.00023	-0.00082	-0.00012	-0.00015	-0.00016	3
39564	-9e-05	-1e-05	-8e-05	-0.00023	-0.00082	-0.00012	-0.00015	-0.00016	3
39565	-9e-05	-1e-05	-8e-05	-0.00023	-0.00082	-0.00012	-0.00015	-0.00016	3
39566	-9e-05	-1e-05	-8e-05	-0.00023	-0.00082	-0.00012	-0.00015	-0.00016	3
39567	-9e-05	-1e-05	-8e-05	-0.00023	-0.00082	-0.00012	-0.00015	-0.00016	3
39568	-9e-05	-1e-05	-8e-05	-0.00023	-0.00082	-0.00012	-0.00015	-0.00016	3
39569	-9e-05	-1e-05	-8e-05	-0.00023	-0.00082	-0.00012	-0.00015	-0.00016	3
39570	-9e-05	-1e-05	-8e-05	-0.00023	-0.00082	-0.00012	-0.00015	-0.00016	3
39571	-9e-05	-1e-05	-8e-05	-0.00023	-0.00082	-0.00012	-0.00015	-0.00016	3
39572	-9e-05	-1e-05	-8e-05	-0.00023	-0.00082	-0.00012	-0.00015	-0.00016	3
39573	-9e-05	-1e-05	-8e-05	-0.00023	-0.00082	-0.00012	-0.00015	-0.00016	3
39574	-9e-05	-1e-05	-8e-05	-0.00023	-0.00082	-0.00012	-0.00015	-0.00016	3
39575	-9e-05	-1e-05	-8e-05	-0.00023	-0.00082	-0.00012	-0.00015	-0.00016	3
39576	-9e-05	-1e-05	-8e-05	-0.00023	-0.00082	-0.00012	-0.00015	-0.00016	3
39577	-9e-05	-1e-05	-8e-05	-0.00023	-0.00082	-0.00012	-0.00015	-0.00016	3
39578	0.00048	7e-05	-1e-05	-0.00011	-0.00049	-4e-05	-5e-05	0.0001	3
39579	-7e-05	-6e-05	-1e-05	-0.00014	-0.0002	-0.00032	0	-0.00012	3
39580	0.00012	-3e-05	-4e-05	0.00015	0.00084	0.00027	-3e-05	0.00014	3
39581	0.00012	-3e-05	-4e-05	0.00015	0.00084	0.00027	-3e-05	0.00014	3
39582	0.00012	-3e-05	-4e-05	0.00015	0.00084	0.00027	-3e-05	0.00014	3
39583	0.00012	-3e-05	-4e-05	0.00015	0.00084	0.00027	-3e-05	0.00014	3
39584	0.00012	-3e-05	-4e-05	0.00015	0.00084	0.00027	-3e-05	0.00014	3
39585	0.00012	-3e-05	-4e-05	0.00015	0.00084	0.00027	-3e-05	0.00014	3
39587	0.00012	-3e-05	-4e-05	0.00015	0.00084	0.00027	-3e-05	0.00014	3
39589	0.00012	-3e-05	-4e-05	0.00015	0.00084	0.00027	-3e-05	0.00014	3
39590	0.00012	-3e-05	-4e-05	0.00015	0.00084	0.00027	-3e-05	0.00014	3
39591	0.00012	-3e-05	-4e-05	0.00015	0.00084	0.00027	-3e-05	0.00014	3
39592	-0.00015	-9e-05	-1e-05	3e-05	-0.00018	-0.00029	-1e-05	-7e-05	3
39593	-0.00015	-9e-05	-1e-05	3e-05	-0.00018	-0.00029	-1e-05	-7e-05	3
39594	-0.00015	-9e-05	-1e-05	3e-05	-0.00018	-0.00029	-1e-05	-7e-05	3
39595	-0.00015	-9e-05	-1e-05	3e-05	-0.00018	-0.00029	-1e-05	-7e-05	3
39596	-0.00015	-9e-05	-1e-05	3e-05	-0.00018	-0.00029	-1e-05	-7e-05	3
39597	-0.00015	-9e-05	-1e-05	3e-05	-0.00018	-0.00029	-1e-05	-7e-05	3
39598	-0.00015	-9e-05	-1e-05	3e-05	-0.00018	-0.00029	-1e-05	-7e-05	3
39599	-0.00015	-9e-05	-1e-05	3e-05	-0.00018	-0.00029	-1e-05	-7e-05	3
39600	0.0003	3e-05	0	1e-05	-0.00039	0.00021	0.00012	0.00011	3
39601	-0.00044	-2e-05	-3e-05	-6e-05	-0.00023	-0.00038	-0.00039	-0.00021	3
39602	-0.00044	-2e-05	-3e-05	-6e-05	-0.00023	-0.00038	-0.00039	-0.00021	3
39603	-0.00044	-2e-05	-3e-05	-6e-05	-0.00023	-0.00038	-0.00039	-0.00021	3
39604	-0.00044	-2e-05	-3e-05	-6e-05	-0.00023	-0.00038	-0.00039	-0.00021	3
39605	-0.00044	-2e-05	-3e-05	-6e-05	-0.00023	-0.00038	-0.00039	-0.00021	3
39606	-0.00044	-2e-05	-3e-05	-6e-05	-0.00023	-0.00038	-0.00039	-0.00021	3
39607	-0.00044	-2e-05	-3e-05	-6e-05	-0.00023	-0.00038	-0.00039	-0.00021	3
39608	-0.00044	-2e-05	-3e-05	-6e-05	-0.00023	-0.00038	-0.00039	-0.00021	3
