25856	-6e-05	7e-05	-2e-05	1e-05	-0.00011	-0.0005	-0.00034	2e-05	6
25857	-6e-05	7e-05	-2e-05	1e-05	-0.00011	-0.0005	-0.00034	2e-05	6
25858	-6e-05	7e-05	-2e-05	1e-05	-0.00011	-0.0005	-0.00034	2e-05	6
25859	-6e-05	7e-05	-2e-05	1e-05	-0.00011	-0.0005	-0.00034	2e-05	6
25860	-0.00025	-0.00024	-1e-05	-8e-05	-0.00029	-8e-05	-7e-05	-0.00054	6
25861	-0.00025	-0.00024	-1e-05	-8e-05	-0.00029	-8e-05	-7e-05	-0.00054	6
25862	-0.0005	-8e-05	-2e-05	9e-05	0.00076	0.00105	0.0004	-0.00024	6
25863	-0.0005	-8e-05	-2e-05	9e-05	0.00076	0.00105	0.0004	-0.00024	6
25864	-0.0005	-8e-05	-2e-05	9e-05	0.00076	0.00105	0.0004	-0.00024	6
25865	-0.0005	-8e-05	-2e-05	9e-05	0.00076	0.00105	0.0004	-0.00024	6
25866	-0.0005	-8e-05	-2e-05	9e-05	0.00076	0.00105	0.0004	-0.00024	6
25867	-0.0005	-8e-05	-2e-05	9e-05	0.00076	0.00105	0.0004	-0.00024	6
25868	-0.0005	-8e-05	-2e-05	9e-05	0.00076	0.00105	0.0004	-0.00024	6
25869	-0.0005	-8e-05	-2e-05	9e-05	0.00076	0.00105	0.0004	-0.00024	6
25870	-0.0005	-8e-05	-2e-05	9e-05	0.00076	0.00105	0.0004	-0.00024	6
25871	-0.0005	-8e-05	-2e-05	9e-05	0.00076	0.00105	0.0004	-0.00024	6
25872	-0.0005	-8e-05	-2e-05	9e-05	0.00076	0.00105	0.0004	-0.00024	6
25873	-0.0005	-8e-05	-2e-05	9e-05	0.00076	0.00105	0.0004	-0.00024	6
25874	-0.0005	-8e-05	-2e-05	9e-05	0.00076	0.00105	0.0004	-0.00024	6
25875	-0.0005	-8e-05	-2e-05	9e-05	0.00076	0.00105	0.0004	-0.00024	6
25876	-0.0005	-8e-05	-2e-05	9e-05	0.00076	0.00105	0.0004	-0.00024	6
25877	-0.0005	-8e-05	-2e-05	9e-05	0.00076	0.00105	0.0004	-0.00024	6
25878	-0.0005	-8e-05	-2e-05	9e-05	0.00076	0.00105	0.0004	-0.00024	6
25879	-0.0005	-8e-05	-2e-05	9e-05	0.00076	0.00105	0.0004	-0.00024	6
25880	-0.0005	-8e-05	-2e-05	9e-05	0.00076	0.00105	0.0004	-0.00024	6
25881	-0.0005	-8e-05	-2e-05	9e-05	0.00076	0.00105	0.0004	-0.00024	6
25882	-0.0005	-8e-05	-2e-05	9e-05	0.00076	0.00105	0.0004	-0.00024	6
25883	8e-05	-0.00011	-0.00012	-0.00037	-0.00073	-0.00044	4e-05	-8e-05	6
25884	0.00039	3e-05	-0.0001	-2e-05	3e-05	0.00098	-9e-05	2e-05	6
25885	0.00039	3e-05	-0.0001	-2e-05	3e-05	0.00098	-9e-05	2e-05	6
25887	0.00039	3e-05	-0.0001	-2e-05	3e-05	0.00098	-9e-05	2e-05	6
25889	0.00039	3e-05	-0.0001	-2e-05	3e-05	0.00098	-9e-05	2e-05	6
25890	0.00039	3e-05	-0.0001	-2e-05	3e-05	0.00098	-9e-05	2e-05	6
25893	0.00039	3e-05	-0.0001	-2e-05	3e-05	0.00098	-9e-05	2e-05	6
25894	0.00039	3e-05	-0.0001	-2e-05	3e-05	0.00098	-9e-05	2e-05	6
25895	0.00039	3e-05	-0.0001	-2e-05	3e-05	0.00098	-9e-05	2e-05	6
25897	-0.00031	-6e-05	-2e-05	0	9e-05	0.00056	7e-05	-0.00022	6
25898	-0.00031	-6e-05	-2e-05	0	9e-05	0.00056	7e-05	-0.00022	6
25899	-0.00031	-6e-05	-2e-05	0	9e-05	0.00056	7e-05	-0.00022	6
25900	-0.00031	-6e-05	-2e-05	0	9e-05	0.00056	7e-05	-0.00022	6
25901	-0.00031	-6e-05	-2e-05	0	9e-05	0.00056	7e-05	-0.00022	6
25902	-0.00031	-6e-05	-2e-05	0	9e-05	0.00056	7e-05	-0.00022	6
25903	-0.00031	-6e-05	-2e-05	0	9e-05	0.00056	7e-05	-0.00022	6
25904	-0.00041	-8e-05	-1e-05	-2e-05	0.00025	0.00046	0.00056	0.00033	6
25905	-0.00041	-8e-05	-1e-05	-2e-05	0.00025	0.00046	0.00056	0.00033	6
25906	-0.00041	-8e-05	-1e-05	-2e-05	0.00025	0.00046	0.00056	0.00033	6
25907	-0.00041	-8e-05	-1e-05	-2e-05	0.00025	0.00046	0.00056	0.00033	6
25908	-0.00041	-8e-05	-1e-05	-2e-05	0.00025	0.00046	0.00056	0.00033	6
25909	-0.00041	-8e-05	-1e-05	-2e-05	0.00025	0.00046	0.00056	0.00033	6
25910	-0.00041	-8e-05	-1e-05	-2e-05	0.00025	0.00046	0.00056	0.00033	6
25911	-0.00041	-8e-05	-1e-05	-2e-05	0.00025	0.00046	0.00056	0.00033	6
25912	-0.00041	-8e-05	-1e-05	-2e-05	0.00025	0.00046	0.00056	0.00033	6
25913	-0.00041	-8e-05	-1e-05	-2e-05	0.00025	0.00046	0.00056	0.00033	6
25914	-0.00041	-8e-05	-1e-05	-2e-05	0.00025	0.00046	0.00056	0.00033	6
25915	-0.00041	-8e-05	-1e-05	-2e-05	0.00025	0.00046	0.00056	0.00033	6
25916	-0.00041	-8e-05	-1e-05	-2e-05	0.00025	0.00046	0.00056	0.00033	6
25917	-0.00041	-8e-05	-1e-05	-2e-05	0.00025	0.00046	0.00056	0.00033	6
25918	-0.00041	-8e-05	-1e-05	-2e-05	0.00025	0.00046	0.00056	0.00033	6
25919	-0.00041	-8e-05	-1e-05	-2e-05	0.00025	0.00046	0.00056	0.00033	6
25920	3e-05	-1e-05	-7e-05	-0.0001	-0.00026	0.00076	-0.00021	7e-05	6
25921	3e-05	-1e-05	-7e-05	-0.0001	-0.00026	0.00076	-0.00021	7e-05	6
25922	0.00019	0	-4e-05	-6e-05	-0.00065	-0.00103	-1e-05	4e-05	6
25923	0.00019	0	-4e-05	-6e-05	-0.00065	-0.00103	-1e-05	4e-05	6
25924	0.00019	0	-4e-05	-6e-05	-0.00065	-0.00103	-1e-05	4e-05	6
25925	0.00019	0	-4e-05	-6e-05	-0.00065	-0.00103	-1e-05	4e-05	6
25926	0.00019	0	-4e-05	-6e-05	-0.00065	-0.00103	-1e-05	4e-05	6
25927	0.00019	0	-4e-05	-6e-05	-0.00065	-0.00103	-1e-05	4e-05	6
25928	0.00019	0	-4e-05	-6e-05	-0.00065	-0.00103	-1e-05	4e-05	6
25929	0.00019	0	-4e-05	-6e-05	-0.00065	-0.00103	-1e-05	4e-05	6
25930	0.00019	0	-4e-05	-6e-05	-0.00065	-0.00103	-1e-05	4e-05	6
25931	0.00019	0	-4e-05	-6e-05	-0.00065	-0.00103	-1e-05	4e-05	6
25932	0.00019	0	-4e-05	-6e-05	-0.00065	-0.00103	-1e-05	4e-05	6
25933	0.00019	0	-4e-05	-6e-05	-0.00065	-0.00103	-1e-05	4e-05	6
25934	0.00019	0	-4e-05	-6e-05	-0.00065	-0.00103	-1e-05	4e-05	6
25935	0.00019	0	-4e-05	-6e-05	-0.00065	-0.00103	-1e-05	4e-05	6
25937	0.00019	0	-4e-05	-6e-05	-0.00065	-0.00103	-1e-05	4e-05	6
25939	0.00019	0	-4e-05	-6e-05	-0.00065	-0.00103	-1e-05	4e-05	6
25940	0.00019	0	-4e-05	-6e-05	-0.00065	-0.00103	-1e-05	4e-05	6
25941	0.00019	0	-4e-05	-6e-05	-0.00065	-0.00103	-1e-05	4e-05	6
25942	0.00019	0	-4e-05	-6e-05	-0.00065	-0.00103	-1e-05	4e-05	6
25943	-0.00044	-0.00013	2e-05	0.00014	0.00068	-0.00044	6e-05	-0.00022	6
25944	-0.00039	-2e-05	-7e-05	-0.00029	-0.00094	-0.00071	0.00031	4e-05	6
25945	0.00055	0	0.00014	0.00022	0.00035	-0.00043	0.00076	-0.00039	6
25946	0.00055	0	0.00014	0.00022	0.00035	-0.00043	0.00076	-0.00039	6
25947	0.00055	0	0.00014	0.00022	0.00035	-0.00043	0.00076	-0.00039	6
25948	0.00055	0	0.00014	0.00022	0.00035	-0.00043	0.00076	-0.00039	6
25949	0.00055	0	0.00014	0.00022	0.00035	-0.00043	0.00076	-0.00039	6
25950	0.00055	0	0.00014	0.00022	0.00035	-0.00043	0.00076	-0.00039	6
25951	0.00055	0	0.00014	0.00022	0.00035	-0.00043	0.00076	-0.00039	6
25952	0.00055	0	0.00014	0.00022	0.00035	-0.00043	0.00076	-0.00039	6
25953	0.00055	0	0.00014	0.00022	0.00035	-0.00043	0.00076	-0.00039	6
25954	0.00055	0	0.00014	0.00022	0.00035	-0.00043	0.00076	-0.00039	6
25955	0.00055	0	0.00014	0.00022	0.00035	-0.00043	0.00076	-0.00039	6
25956	-0.00027	-3e-05	-7e-05	-6e-05	-0.00037	0.0002	-0.00022	-0.0005	6
25957	0.00023	6e-05	1e-05	-5e-05	-0.00037	0.00078	-0.0001	-0.00011	6
25958	0.00023	6e-05	1e-05	-5e-05	-0.00037	0.00078	-0.0001	-0.00011	6
25959	0.00023	6e-05	1e-05	-5e-05	-0.00037	0.00078	-0.0001	-0.00011	6
25960	0.00023	6e-05	1e-05	-5e-05	-0.00037	0.00078	-0.0001	-0.00011	6
25961	0.00023	6e-05	1e-05	-5e-05	-0.00037	0.00078	-0.0001	-0.00011	6
25962	0.00023	6e-05	1e-05	-5e-05	-0.00037	0.00078	-0.0001	-0.00011	6
25963	0.00023	6e-05	1e-05	-5e-05	-0.00037	0.00078	-0.0001	-0.00011	6
25964	0.00023	6e-05	1e-05	-5e-05	-0.00037	0.00078	-0.0001	-0.00011	6
25965	-0.00028	-7e-05	-7e-05	-0.00017	-0.0003	0.0002	-0.00032	-9e-05	6
25966	-0.00036	6e-05	4e-05	0.00023	0.00082	0.00038	-0.00023	6e-05	6
25967	-0.00036	6e-05	4e-05	0.00023	0.00082	0.00038	-0.00023	6e-05	6
25968	-0.00036	6e-05	4e-05	0.00023	0.00082	0.00038	-0.00023	6e-05	6
25969	-0.00036	6e-05	4e-05	0.00023	0.00082	0.00038	-0.00023	6e-05	6
25970	-0.00036	6e-05	4e-05	0.00023	0.00082	0.00038	-0.00023	6e-05	6
25971	-0.00036	6e-05	4e-05	0.00023	0.00082	0.00038	-0.00023	6e-05	6
25972	-0.00036	6e-05	4e-05	0.00023	0.00082	0.00038	-0.00023	6e-05	6
25973	-0.00036	6e-05	4e-05	0.00023	0.00082	0.00038	-0.00023	6e-05	6
25974	-0.00036	6e-05	4e-05	0.00023	0.00082	0.00038	-0.00023	6e-05	6
25975	-0.00036	6e-05	4e-05	0.00023	0.00082	0.00038	-0.00023	6e-05	6
25976	-0.00036	6e-05	4e-05	0.00023	0.00082	0.00038	-0.00023	6e-05	6
25977	-0.00036	6e-05	4e-05	0.00023	0.00082	0.00038	-0.00023	6e-05	6
25978	-0.00036	6e-05	4e-05	0.00023	0.00082	0.00038	-0.00023	6e-05	6
25979	-0.00036	6e-05	4e-05	0.00023	0.00082	0.00038	-0.00023	6e-05	6
25980	0.00045	3e-05	-1e-05	0.00017	0.00076	-0.00026	0.0001	0.00036	6
25981	0.00045	3e-05	-1e-05	0.00017	0.00076	-0.00026	0.0001	0.00036	6
25982	0	-2e-05	-5e-05	-0.00016	-3e-05	0.00056	1e-05	-4e-05	6
25983	0	-2e-05	-5e-05	-0.00016	-3e-05	0.00056	1e-05	-4e-05	6
25984	0	-2e-05	-5e-05	-0.00016	-3e-05	0.00056	1e-05	-4e-05	6
25985	0	-2e-05	-5e-05	-0.00016	-3e-05	0.00056	1e-05	-4e-05	6
25987	0	-2e-05	-5e-05	-0.00016	-3e-05	0.00056	1e-05	-4e-05	6
25989	0	-2e-05	-5e-05	-0.00016	-3e-05	0.00056	1e-05	-4e-05	6
25990	0	-2e-05	-5e-05	-0.00016	-3e-05	0.00056	1e-05	-4e-05	6
25991	0	-2e-05	-5e-05	-0.00016	-3e-05	0.00056	1e-05	-4e-05	6
25992	0	-2e-05	-5e-05	-0.00016	-3e-05	0.00056	1e-05	-4e-05	6
25993	0	-2e-05	-5e-05	-0.00016	-3e-05	0.00056	1e-05	-4e-05	6
25994	0	-2e-05	-5e-05	-0.00016	-3e-05	0.00056	1e-05	-4e-05	6
25995	0	-2e-05	-5e-05	-0.00016	-3e-05	0.00056	1e-05	-4e-05	6
25996	0	-2e-05	-5e-05	-0.00016	-3e-05	0.00056	1e-05	-4e-05	6
25997	0	-2e-05	-5e-05	-0.00016	-3e-05	0.00056	1e-05	-4e-05	6
25998	0	-2e-05	-5e-05	-0.00016	-3e-05	0.00056	1e-05	-4e-05	6
25999	0	-2e-05	-5e-05	-0.00016	-3e-05	0.00056	1e-05	-4e-05	6
26000	0	-2e-05	-5e-05	-0.00016	-3e-05	0.00056	1e-05	-4e-05	6
26001	0	-2e-05	-5e-05	-0.00016	-3e-05	0.00056	1e-05	-4e-05	6
26002	0	-2e-05	-5e-05	-0.00016	-3e-05	0.00056	1e-05	-4e-05	6
26003	-0.00018	0.0001	9e-05	0.00016	-0.00011	0.00021	-0.00017	0.00033	6
26004	-0.00018	0	0	0.00014	0.00079	0.00022	-0.0001	-0.00057	6
26005	-0.00085	-6e-05	-1e-05	0	-0.00056	-0.00061	-0.00034	0.00011	6
26006	-0.00085	-6e-05	-1e-05	0	-0.00056	-0.00061	-0.00034	0.00011	6
26007	-0.00085	-6e-05	-1e-05	0	-0.00056	-0.00061	-0.00034	0.00011	6
26008	-0.00085	-6e-05	-1e-05	0	-0.00056	-0.00061	-0.00034	0.00011	6
26009	-0.00085	-6e-05	-1e-05	0	-0.00056	-0.00061	-0.00034	0.00011	6
26010	-0.00085	-6e-05	-1e-05	0	-0.00056	-0.00061	-0.00034	0.00011	6
26011	-0.00085	-6e-05	-1e-05	0	-0.00056	-0.00061	-0.00034	0.00011	6
26012	-0.00085	-6e-05	-1e-05	0	-0.00056	-0.00061	-0.00034	0.00011	6
26013	-0.00085	-6e-05	-1e-05	0	-0.00056	-0.00061	-0.00034	0.00011	6
26014	-0.00085	-6e-05	-1e-05	0	-0.00056	-0.00061	-0.00034	0.00011	6
26015	-0.00085	-6e-05	-1e-05	0	-0.00056	-0.00061	-0.00034	0.00011	6
26016	0.00019	7e-05	6e-05	0.0001	4e-05	0.00066	0.00025	0.0002	6
26017	0.00019	7e-05	6e-05	0.0001	4e-05	0.00066	0.00025	0.0002	6
26018	0.00019	7e-05	6e-05	0.0001	4e-05	0.00066	0.00025	0.0002	6
26019	0.00019	7e-05	6e-05	0.0001	4e-05	0.00066	0.00025	0.0002	6
26020	0.00019	7e-05	6e-05	0.0001	4e-05	0.00066	0.00025	0.0002	6
26021	0.00019	7e-05	6e-05	0.0001	4e-05	0.00066	0.00025	0.0002	6
26022	0.00019	7e-05	6e-05	0.0001	4e-05	0.00066	0.00025	0.0002	6
26023	0.00019	7e-05	6e-05	0.0001	4e-05	0.00066	0.00025	0.0002	6
26024	0.00019	7e-05	6e-05	0.0001	4e-05	0.00066	0.00025	0.0002	6
26025	0.00042	8e-05	5e-05	9e-05	0.00028	-0.00072	-0.00052	-0.00059	6
26026	2e-05	-0.00012	-5e-05	-0.00013	-0.00038	-0.00051	-0.00069	0	6
26027	2e-05	-0.00012	-5e-05	-0.00013	-0.00038	-0.00051	-0.00069	0	6
26028	2e-05	-0.00012	-5e-05	-0.00013	-0.00038	-0.00051	-0.00069	0	6
26029	2e-05	-0.00012	-5e-05	-0.00013	-0.00038	-0.00051	-0.00069	0	6
26030	2e-05	-0.00012	-5e-05	-0.00013	-0.00038	-0.00051	-0.00069	0	6
26031	2e-05	-0.00012	-5e-05	-0.00013	-0.00038	-0.00051	-0.00069	0	6
26032	2e-05	-0.00012	-5e-05	-0.00013	-0.00038	-0.00051	-0.00069	0	6
26033	2e-05	-0.00012	-5e-05	-0.00013	-0.00038	-0.00051	-0.00069	0	6
26034	2e-05	-0.00012	-5e-05	-0.00013	-0.00038	-0.00051	-0.00069	0	6
26035	2e-05	-0.00012	-5e-05	-0.00013	-0.00038	-0.00051	-0.00069	0	6
26037	2e-05	-0.00012	-5e-05	-0.00013	-0.00038	-0.00051	-0.00069	0	6
26040	0.00059	0.00012	-3e-05	-8e-05	-0.00027	-0.0006	-0.00042	0.00027	6
26041	0.00059	0.00012	-3e-05	-8e-05	-0.00027	-0.0006	-0.00042	0.00027	6
26042	0.00047	3e-05	-7e-05	-0.00011	-0.00031	0.0006	0.00044	-0.00021	6
26043	0.00047	3e-05	-7e-05	-0.00011	-0.00031	0.0006	0.00044	-0.00021	6
26044	0.00047	3e-05	-7e-05	-0.00011	-0.00031	0.0006	0.00044	-0.00021	6
26045	0.00047	3e-05	-7e-05	-0.00011	-0.00031	0.0006	0.00044	-0.00021	6
26046	0.00047	3e-05	-7e-05	-0.00011	-0.00031	0.0006	0.00044	-0.00021	6
26047	0.00047	3e-05	-7e-05	-0.00011	-0.00031	0.0006	0.00044	-0.00021	6
26048	0.00047	3e-05	-7e-05	-0.00011	-0.00031	0.0006	0.00044	-0.00021	6
26049	0.00047	3e-05	-7e-05	-0.00011	-0.00031	0.0006	0.00044	-0.00021	6
26050	0.00047	3e-05	-7e-05	-0.00011	-0.00031	0.0006	0.00044	-0.00021	6
26051	0.00047	3e-05	-7e-05	-0.00011	-0.00031	0.0006	0.00044	-0.00021	6
26052	0.00047	3e-05	-7e-05	-0.00011	-0.00031	0.0006	0.00044	-0.00021	6
26053	0.00047	3e-05	-7e-05	-0.00011	-0.00031	0.0006	0.00044	-0.00021	6
26054	0.00047	3e-05	-7e-05	-0.00011	-0.00031	0.0006	0.00044	-0.00021	6
26055	0.00047	3e-05	-7e-05	-0.00011	-0.00031	0.0006	0.00044	-0.00021	6
26056	0.00047	3e-05	-7e-05	-0.00011	-0.00031	0.0006	0.00044	-0.00021	6
26057	0.00047	3e-05	-7e-05	-0.00011	-0.00031	0.0006	0.00044	-0.00021	6
26058	0.00047	3e-05	-7e-05	-0.00011	-0.00031	0.0006	0.00044	-0.00021	6
26059	0.00047	3e-05	-7e-05	-0.00011	-0.00031	0.0006	0.00044	-0.00021	6
26060	0.00047	3e-05	-7e-05	-0.00011	-0.00031	0.0006	0.00044	-0.00021	6
26061	0.00047	3e-05	-7e-05	-0.00011	-0.00031	0.0006	0.00044	-0.00021	6
26062	0.00047	3e-05	-7e-05	-0.00011	-0.00031	0.0006	0.00044	-0.00021	6
26063	0.00013	-1e-05	2e-05	-3e-05	5e-05	0.00049	5e-05	-0.00013	6
26064	-0.00107	-0.0001	-0.00013	-0.00017	-0.0007	-0.00109	-0.00026	-0.00057	6
26065	0.00034	-1e-05	-5e-05	-0.0002	-0.00051	-0.00028	0	0.00024	6
26066	0.00034	-1e-05	-5e-05	-0.0002	-0.00051	-0.00028	0	0.00024	6
26067	0.00034	-1e-05	-5e-05	-0.0002	-0.00051	-0.00028	0	0.00024	6
26068	0.00034	-1e-05	-5e-05	-0.0002	-0.00051	-0.00028	0	0.00024	6
26069	0.00034	-1e-05	-5e-05	-0.0002	-0.00051	-0.00028	0	0.00024	6
26070	0.00034	-1e-05	-5e-05	-0.0002	-0.00051	-0.00028	0	0.00024	6
26071	0.00034	-1e-05	-5e-05	-0.0002	-0.00051	-0.00028	0	0.00024	6
26072	0.00034	-1e-05	-5e-05	-0.0002	-0.00051	-0.00028	0	0.00024	6
26073	0.00034	-1e-05	-5e-05	-0.0002	-0.00051	-0.00028	0	0.00024	6
26074	0.00034	-1e-05	-5e-05	-0.0002	-0.00051	-0.00028	0	0.00024	6
26075	0.00034	-1e-05	-5e-05	-0.0002	-0.00051	-0.00028	0	0.00024	6
26076	-0.0003	3e-05	3e-05	-0.00011	-0.00097	-0.00029	-0.00026	-0.00032	6
26077	-0.0003	3e-05	3e-05	-0.00011	-0.00097	-0.00029	-0.00026	-0.00032	6
26078	-0.0003	3e-05	3e-05	-0.00011	-0.00097	-0.00029	-0.00026	-0.00032	6
26079	-0.0003	3e-05	3e-05	-0.00011	-0.00097	-0.00029	-0.00026	-0.00032	6
26080	-0.0003	3e-05	3e-05	-0.00011	-0.00097	-0.00029	-0.00026	-0.00032	6
26081	-0.0003	3e-05	3e-05	-0.00011	-0.00097	-0.00029	-0.00026	-0.00032	6
26082	-0.0003	3e-05	3e-05	-0.00011	-0.00097	-0.00029	-0.00026	-0.00032	6
26083	-0.0003	3e-05	3e-05	-0.00011	-0.00097	-0.00029	-0.00026	-0.00032	6
26084	-0.0003	3e-05	3e-05	-0.00011	-0.00097	-0.00029	-0.00026	-0.00032	6
26085	-0.00027	-2e-05	4e-05	0.00016	0.00082	-4e-05	0.00018	-6e-05	6
26087	-0.00027	-2e-05	4e-05	0.00016	0.00082	-4e-05	0.00018	-6e-05	6
26089	-0.00027	-2e-05	4e-05	0.00016	0.00082	-4e-05	0.00018	-6e-05	6
26090	-0.00027	-2e-05	4e-05	0.00016	0.00082	-4e-05	0.00018	-6e-05	6
26091	-0.00027	-2e-05	4e-05	0.00016	0.00082	-4e-05	0.00018	-6e-05	6
26092	-0.00027	-2e-05	4e-05	0.00016	0.00082	-4e-05	0.00018	-6e-05	6
26093	-0.00027	-2e-05	4e-05	0.00016	0.00082	-4e-05	0.00018	-6e-05	6
26094	-0.00027	-2e-05	4e-05	0.00016	0.00082	-4e-05	0.00018	-6e-05	6
26095	-0.00027	-2e-05	4e-05	0.00016	0.00082	-4e-05	0.00018	-6e-05	6
26096	-0.00027	-2e-05	4e-05	0.00016	0.00082	-4e-05	0.00018	-6e-05	6
26097	-0.00027	-2e-05	4e-05	0.00016	0.00082	-4e-05	0.00018	-6e-05	6
26098	-0.00027	-2e-05	4e-05	0.00016	0.00082	-4e-05	0.00018	-6e-05	6
26099	-0.00027	-2e-05	4e-05	0.00016	0.00082	-4e-05	0.00018	-6e-05	6
26100	-0.00046	-3e-05	-5e-05	-0.00016	-0.00052	-0.00031	0.00016	0.0001	6
26101	-0.00046	-3e-05	-5e-05	-0.00016	-0.00052	-0.00031	0.00016	0.0001	6
26102	-0.00026	5e-05	0	2e-05	-0.00024	0.00071	-0.00017	-0.00018	6
26103	-0.00026	5e-05	0	2e-05	-0.00024	0.00071	-0.00017	-0.00018	6
26104	-0.00026	5e-05	0	2e-05	-0.00024	0.00071	-0.00017	-0.00018	6
26105	-0.00026	5e-05	0	2e-05	-0.00024	0.00071	-0.00017	-0.00018	6
26106	-0.00026	5e-05	0	2e-05	-0.00024	0.00071	-0.00017	-0.00018	6
26107	-0.00026	5e-05	0	2e-05	-0.00024	0.00071	-0.00017	-0.00018	6
26108	-0.00026	5e-05	0	2e-05	-0.00024	0.00071	-0.00017	-0.00018	6
26109	-0.00026	5e-05	0	2e-05	-0.00024	0.00071	-0.00017	-0.00018	6
26110	-0.00026	5e-05	0	2e-05	-0.00024	0.00071	-0.00017	-0.00018	6
26111	-0.00026	5e-05	0	2e-05	-0.00024	0.00071	-0.00017	-0.00018	6
26112	-0.00026	5e-05	0	2e-05	-0.00024	0.00071	-0.00017	-0.00018	6
26113	-0.00026	5e-05	0	2e-05	-0.00024	0.00071	-0.00017	-0.00018	6
26114	-0.00026	5e-05	0	2e-05	-0.00024	0.00071	-0.00017	-0.00018	6
26115	-0.00026	5e-05	0	2e-05	-0.00024	0.00071	-0.00017	-0.00018	6
26116	-0.00026	5e-05	0	2e-05	-0.00024	0.00071	-0.00017	-0.00018	6
26117	-0.00026	5e-05	0	2e-05	-0.00024	0.00071	-0.00017	-0.00018	6
26118	-0.00026	5e-05	0	2e-05	-0.00024	0.00071	-0.00017	-0.00018	6
26119	-0.00026	5e-05	0	2e-05	-0.00024	0.00071	-0.00017	-0.00018	6
26120	-0.00026	5e-05	0	2e-05	-0.00024	0.00071	-0.00017	-0.00018	6
26121	-0.00026	5e-05	0	2e-05	-0.00024	0.00071	-0.00017	-0.00018	6
26122	-0.00026	5e-05	0	2e-05	-0.00024	0.00071	-0.00017	-0.00018	6
26123	-0.00027	-9e-05	-0.00011	-0.00022	-0.00054	-0.00014	7e-05	-7e-05	6
26124	-0.00035	0	-6e-05	-0.00017	-0.00055	-0.00063	-3e-05	-0.00041	6
26125	-0.00035	0	-6e-05	-0.00017	-0.00055	-0.00063	-3e-05	-0.00041	6
26126	-0.00035	0	-6e-05	-0.00017	-0.00055	-0.00063	-3e-05	-0.00041	6
26127	-0.00035	0	-6e-05	-0.00017	-0.00055	-0.00063	-3e-05	-0.00041	6
26128	-0.00035	0	-6e-05	-0.00017	-0.00055	-0.00063	-3e-05	-0.00041	6
26129	-0.00035	0	-6e-05	-0.00017	-0.00055	-0.00063	-3e-05	-0.00041	6
26130	-0.00035	0	-6e-05	-0.00017	-0.00055	-0.00063	-3e-05	-0.00041	6
26131	-0.00035	0	-6e-05	-0.00017	-0.00055	-0.00063	-3e-05	-0.00041	6
26132	-0.00035	0	-6e-05	-0.00017	-0.00055	-0.00063	-3e-05	-0.00041	6
26133	-0.00035	0	-6e-05	-0.00017	-0.00055	-0.00063	-3e-05	-0.00041	6
26134	-0.00035	0	-6e-05	-0.00017	-0.00055	-0.00063	-3e-05	-0.00041	6
26135	-0.00035	0	-6e-05	-0.00017	-0.00055	-0.00063	-3e-05	-0.00041	6
26137	-0.00087	-1e-05	-2e-05	1e-05	-0.00032	0.00033	0.00059	-0.00046	6
26139	-0.00087	-1e-05	-2e-05	1e-05	-0.00032	0.00033	0.00059	-0.00046	6
26140	-0.00087	-1e-05	-2e-05	1e-05	-0.00032	0.00033	0.00059	-0.00046	6
26141	-0.00087	-1e-05	-2e-05	1e-05	-0.00032	0.00033	0.00059	-0.00046	6
26142	-0.00087	-1e-05	-2e-05	1e-05	-0.00032	0.00033	0.00059	-0.00046	6
26143	-0.00087	-1e-05	-2e-05	1e-05	-0.00032	0.00033	0.00059	-0.00046	6
26144	-0.00087	-1e-05	-2e-05	1e-05	-0.00032	0.00033	0.00059	-0.00046	6
26145	0.00024	-2e-05	-3e-05	2e-05	5e-05	-0.0002	7e-05	0.00012	6
26146	0.00024	-2e-05	-3e-05	2e-05	5e-05	-0.0002	7e-05	0.00012	6
26147	0.00024	-2e-05	-3e-05	2e-05	5e-05	-0.0002	7e-05	0.00012	6
26148	0.00024	-2e-05	-3e-05	2e-05	5e-05	-0.0002	7e-05	0.00012	6
26149	0.00024	-2e-05	-3e-05	2e-05	5e-05	-0.0002	7e-05	0.00012	6
26150	0.00024	-2e-05	-3e-05	2e-05	5e-05	-0.0002	7e-05	0.00012	6
26151	0.00024	-2e-05	-3e-05	2e-05	5e-05	-0.0002	7e-05	0.00012	6
26152	0.00024	-2e-05	-3e-05	2e-05	5e-05	-0.0002	7e-05	0.00012	6
26153	0.00024	-2e-05	-3e-05	2e-05	5e-05	-0.0002	7e-05	0.00012	6
26154	0.00024	-2e-05	-3e-05	2e-05	5e-05	-0.0002	7e-05	0.00012	6
26155	0.00024	-2e-05	-3e-05	2e-05	5e-05	-0.0002	7e-05	0.00012	6
26156	0.00024	-2e-05	-3e-05	2e-05	5e-05	-0.0002	7e-05	0.00012	6
26157	0.00024	-2e-05	-3e-05	2e-05	5e-05	-0.0002	7e-05	0.00012	6
26158	0.00024	-2e-05	-3e-05	2e-05	5e-05	-0.0002	7e-05	0.00012	6
26159	0.00024	-2e-05	-3e-05	2e-05	5e-05	-0.0002	7e-05	0.00012	6
26160	0.00036	2e-05	2e-05	4e-05	0.00034	-0.00058	-0.00042	0.00036	6
26161	0.00036	2e-05	2e-05	4e-05	0.00034	-0.00058	-0.00042	0.00036	6
26162	0.00097	1e-05	-1e-05	-0.00012	-6e-05	0.00073	9e-05	0.00029	6
26163	0.00097	1e-05	-1e-05	-0.00012	-6e-05	0.00073	9e-05	0.00029	6
26164	0.00097	1e-05	-1e-05	-0.00012	-6e-05	0.00073	9e-05	0.00029	6
26165	0.00097	1e-05	-1e-05	-0.00012	-6e-05	0.00073	9e-05	0.00029	6
26166	0.00097	1e-05	-1e-05	-0.00012	-6e-05	0.00073	9e-05	0.00029	6
26167	0.00097	1e-05	-1e-05	-0.00012	-6e-05	0.00073	9e-05	0.00029	6
26168	0.00097	1e-05	-1e-05	-0.00012	-6e-05	0.00073	9e-05	0.00029	6
26169	0.00097	1e-05	-1e-05	-0.00012	-6e-05	0.00073	9e-05	0.00029	6
26170	0.00097	1e-05	-1e-05	-0.00012	-6e-05	0.00073	9e-05	0.00029	6
26171	0.00097	1e-05	-1e-05	-0.00012	-6e-05	0.00073	9e-05	0.00029	6
26172	0.00097	1e-05	-1e-05	-0.00012	-6e-05	0.00073	9e-05	0.00029	6
26173	0.00097	1e-05	-1e-05	-0.00012	-6e-05	0.00073	9e-05	0.00029	6
26174	0.00097	1e-05	-1e-05	-0.00012	-6e-05	0.00073	9e-05	0.00029	6
26175	0.00097	1e-05	-1e-05	-0.00012	-6e-05	0.00073	9e-05	0.00029	6
26176	0.00097	1e-05	-1e-05	-0.00012	-6e-05	0.00073	9e-05	0.00029	6
26177	0.00097	1e-05	-1e-05	-0.00012	-6e-05	0.00073	9e-05	0.00029	6
26178	0.00097	1e-05	-1e-05	-0.00012	-6e-05	0.00073	9e-05	0.00029	6
26179	0.00097	1e-05	-1e-05	-0.00012	-6e-05	0.00073	9e-05	0.00029	6
26180	0.00097	1e-05	-1e-05	-0.00012	-6e-05	0.00073	9e-05	0.00029	6
26181	0.00097	1e-05	-1e-05	-0.00012	-6e-05	0.00073	9e-05	0.00029	6
26182	0.00097	1e-05	-1e-05	-0.00012	-6e-05	0.00073	9e-05	0.00029	6
26183	-0.00063	0.00016	-3e-05	-1e-05	6e-05	-0.00051	-8e-05	-2e-05	6
26184	-0.00041	-0.00028	-3e-05	-2e-05	-0.0003	-8e-05	-0.00018	-0.00035	6
26185	-8e-05	2e-05	3e-05	2e-05	-0.00047	-0.00055	-0.00049	-0.00062	6
26187	-8e-05	2e-05	3e-05	2e-05	-0.00047	-0.00055	-0.00049	-0.00062	6
26189	-8e-05	2e-05	3e-05	2e-05	-0.00047	-0.00055	-0.00049	-0.00062	6
26190	-8e-05	2e-05	3e-05	2e-05	-0.00047	-0.00055	-0.00049	-0.00062	6
26191	-8e-05	2e-05	3e-05	2e-05	-0.00047	-0.00055	-0.00049	-0.00062	6
26192	-8e-05	2e-05	3e-05	2e-05	-0.00047	-0.00055	-0.00049	-0.00062	6
26193	-8e-05	2e-05	3e-05	2e-05	-0.00047	-0.00055	-0.00049	-0.00062	6
26194	-8e-05	2e-05	3e-05	2e-05	-0.00047	-0.00055	-0.00049	-0.00062	6
26195	-8e-05	2e-05	3e-05	2e-05	-0.00047	-0.00055	-0.00049	-0.00062	6
26196	0.00016	-4e-05	-8e-05	-0.00016	-0.00069	0.00031	0.00024	-5e-05	6
26197	0.00062	1e-05	0	8e-05	0.00071	-0.00039	-0.00028	0.00023	6
26198	0.00062	1e-05	0	8e-05	0.00071	-0.00039	-0.00028	0.00023	6
26199	0.00062	1e-05	0	8e-05	0.00071	-0.00039	-0.00028	0.00023	6
26200	0.00062	1e-05	0	8e-05	0.00071	-0.00039	-0.00028	0.00023	6
26201	0.00062	1e-05	0	8e-05	0.00071	-0.00039	-0.00028	0.00023	6
26202	0.00062	1e-05	0	8e-05	0.00071	-0.00039	-0.00028	0.00023	6
26203	0.00062	1e-05	0	8e-05	0.00071	-0.00039	-0.00028	0.00023	6
26204	0.00062	1e-05	0	8e-05	0.00071	-0.00039	-0.00028	0.00023	6
26205	8e-05	0.00011	1e-05	-2e-05	-0.00045	0.00011	9e-05	0.00017	6
26206	-0.00052	-2e-05	0	-4e-05	-8e-05	-7e-05	0.0002	0	6
26207	-0.00052	-2e-05	0	-4e-05	-8e-05	-7e-05	0.0002	0	6
26208	-0.00052	-2e-05	0	-4e-05	-8e-05	-7e-05	0.0002	0	6
26209	-0.00052	-2e-05	0	-4e-05	-8e-05	-7e-05	0.0002	0	6
26210	-0.00052	-2e-05	0	-4e-05	-8e-05	-7e-05	0.0002	0	6
26211	-0.00052	-2e-05	0	-4e-05	-8e-05	-7e-05	0.0002	0	6
26212	-0.00052	-2e-05	0	-4e-05	-8e-05	-7e-05	0.0002	0	6
26213	-0.00052	-2e-05	0	-4e-05	-8e-05	-7e-05	0.0002	0	6
26214	-0.00052	-2e-05	0	-4e-05	-8e-05	-7e-05	0.0002	0	6
26215	-0.00052	-2e-05	0	-4e-05	-8e-05	-7e-05	0.0002	0	6
26216	-0.00052	-2e-05	0	-4e-05	-8e-05	-7e-05	0.0002	0	6
26217	-0.00052	-2e-05	0	-4e-05	-8e-05	-7e-05	0.0002	0	6
26218	-0.00052	-2e-05	0	-4e-05	-8e-05	-7e-05	0.0002	0	6
26219	-0.00052	-2e-05	0	-4e-05	-8e-05	-7e-05	0.0002	0	6
26220	-0.00053	-5e-05	3e-05	7e-05	-6e-05	-0.00014	-0.0003	-0.00012	6
26221	-0.00053	-5e-05	3e-05	7e-05	-6e-05	-0.00014	-0.0003	-0.00012	6
26222	0.00079	3e-05	5e-05	0.00013	-3e-05	0.00099	-0.00014	0.00043	6
26223	0.00079	3e-05	5e-05	0.00013	-3e-05	0.00099	-0.00014	0.00043	6
26224	0.00079	3e-05	5e-05	0.00013	-3e-05	0.00099	-0.00014	0.00043	6
26225	0.00079	3e-05	5e-05	0.00013	-3e-05	0.00099	-0.00014	0.00043	6
26226	0.00079	3e-05	5e-05	0.00013	-3e-05	0.00099	-0.00014	0.00043	6
26227	0.00079	3e-05	5e-05	0.00013	-3e-05	0.00099	-0.00014	0.00043	6
26228	0.00079	3e-05	5e-05	0.00013	-3e-05	0.00099	-0.00014	0.00043	6
26229	0.00079	3e-05	5e-05	0.00013	-3e-05	0.00099	-0.00014	0.00043	6
26230	0.00079	3e-05	5e-05	0.00013	-3e-05	0.00099	-0.00014	0.00043	6
26231	0.00079	3e-05	5e-05	0.00013	-3e-05	0.00099	-0.00014	0.00043	6
26232	0.00079	3e-05	5e-05	0.00013	-3e-05	0.00099	-0.00014	0.00043	6
26233	0.00079	3e-05	5e-05	0.00013	-3e-05	0.00099	-0.00014	0.00043	6
26234	0.00079	3e-05	5e-05	0.00013	-3e-05	0.00099	-0.00014	0.00043	6
26235	0.00079	3e-05	5e-05	0.00013	-3e-05	0.00099	-0.00014	0.00043	6
26237	0.00079	3e-05	5e-05	0.00013	-3e-05	0.00099	-0.00014	0.00043	6
26239	0.00079	3e-05	5e-05	0.00013	-3e-05	0.00099	-0.00014	0.00043	6
26240	0.00079	3e-05	5e-05	0.00013	-3e-05	0.00099	-0.00014	0.00043	6
26241	0.00079	3e-05	5e-05	0.00013	-3e-05	0.00099	-0.00014	0.00043	6
26242	0.00079	3e-05	5e-05	0.00013	-3e-05	0.00099	-0.00014	0.00043	6
26243	0.00065	-1e-05	-2e-05	-9e-05	-0.00033	0.00041	-0.00027	0.00024	6
26244	9e-05	5e-05	-9e-05	-0.00019	0.0004	-0.00033	0.00018	0.00057	6
26245	-0.00024	-7e-05	1e-05	0.00012	0.00035	0.00027	3e-05	0.00022	6
26246	-0.00024	-7e-05	1e-05	0.00012	0.00035	0.00027	3e-05	0.00022	6
26247	-0.00024	-7e-05	1e-05	0.00012	0.00035	0.00027	3e-05	0.00022	6
26248	-0.00024	-7e-05	1e-05	0.00012	0.00035	0.00027	3e-05	0.00022	6
26249	-0.00024	-7e-05	1e-05	0.00012	0.00035	0.00027	3e-05	0.00022	6
26250	-0.00024	-7e-05	1e-05	0.00012	0.00035	0.00027	3e-05	0.00022	6
26251	-0.00024	-7e-05	1e-05	0.00012	0.00035	0.00027	3e-05	0.00022	6
26252	-0.00024	-7e-05	1e-05	0.00012	0.00035	0.00027	3e-05	0.00022	6
26253	-0.00024	-7e-05	1e-05	0.00012	0.00035	0.00027	3e-05	0.00022	6
26254	-0.00024	-7e-05	1e-05	0.00012	0.00035	0.00027	3e-05	0.00022	6
26255	-0.00024	-7e-05	1e-05	0.00012	0.00035	0.00027	3e-05	0.00022	6
26256	-0.00018	2e-05	-3e-05	-0.0002	0.0001	-0.00064	0.00044	-0.00016	6
26257	-9e-05	-0.00016	2e-05	0.00012	0.00079	-0.00021	-0.00023	-0.0002	6
26258	-9e-05	-0.00016	2e-05	0.00012	0.00079	-0.00021	-0.00023	-0.0002	6
26259	-9e-05	-0.00016	2e-05	0.00012	0.00079	-0.00021	-0.00023	-0.0002	6
26260	-9e-05	-0.00016	2e-05	0.00012	0.00079	-0.00021	-0.00023	-0.0002	6
26261	-9e-05	-0.00016	2e-05	0.00012	0.00079	-0.00021	-0.00023	-0.0002	6
26262	-9e-05	-0.00016	2e-05	0.00012	0.00079	-0.00021	-0.00023	-0.0002	6
26263	-9e-05	-0.00016	2e-05	0.00012	0.00079	-0.00021	-0.00023	-0.0002	6
26264	-9e-05	-0.00016	2e-05	0.00012	0.00079	-0.00021	-0.00023	-0.0002	6
26265	5e-05	-3e-05	-5e-05	-2e-05	0.00029	0.00059	-0.00015	-0.00044	6
26266	5e-05	-3e-05	-5e-05	-2e-05	0.00029	0.00059	-0.00015	-0.00044	6
26267	5e-05	-3e-05	-5e-05	-2e-05	0.00029	0.00059	-0.00015	-0.00044	6
26268	5e-05	-3e-05	-5e-05	-2e-05	0.00029	0.00059	-0.00015	-0.00044	6
26269	5e-05	-3e-05	-5e-05	-2e-05	0.00029	0.00059	-0.00015	-0.00044	6
26270	5e-05	-3e-05	-5e-05	-2e-05	0.00029	0.00059	-0.00015	-0.00044	6
26271	5e-05	-3e-05	-5e-05	-2e-05	0.00029	0.00059	-0.00015	-0.00044	6
26272	5e-05	-3e-05	-5e-05	-2e-05	0.00029	0.00059	-0.00015	-0.00044	6
26273	5e-05	-3e-05	-5e-05	-2e-05	0.00029	0.00059	-0.00015	-0.00044	6
26274	5e-05	-3e-05	-5e-05	-2e-05	0.00029	0.00059	-0.00015	-0.00044	6
26275	5e-05	-3e-05	-5e-05	-2e-05	0.00029	0.00059	-0.00015	-0.00044	6
26276	5e-05	-3e-05	-5e-05	-2e-05	0.00029	0.00059	-0.00015	-0.00044	6
26277	5e-05	-3e-05	-5e-05	-2e-05	0.00029	0.00059	-0.00015	-0.00044	6
26278	5e-05	-3e-05	-5e-05	-2e-05	0.00029	0.00059	-0.00015	-0.00044	6
26279	5e-05	-3e-05	-5e-05	-2e-05	0.00029	0.00059	-0.00015	-0.00044	6
26280	0.00062	1e-05	-1e-05	-3e-05	0.00013	0.00012	4e-05	-0.00018	6
26281	0.00062	1e-05	-1e-05	-3e-05	0.00013	0.00012	4e-05	-0.00018	6
26282	-0.00019	-3e-05	-3e-05	0	0.00031	-0.00035	0.0001	0.00012	6
26283	-0.00019	-3e-05	-3e-05	0	0.00031	-0.00035	0.0001	0.00012	6
26284	-0.00019	-3e-05	-3e-05	0	0.00031	-0.00035	0.0001	0.00012	6
26285	-0.00019	-3e-05	-3e-05	0	0.00031	-0.00035	0.0001	0.00012	6
26287	-0.00019	-3e-05	-3e-05	0	0.00031	-0.00035	0.0001	0.00012	6
26289	-0.00019	-3e-05	-3e-05	0	0.00031	-0.00035	0.0001	0.00012	6
26290	-0.00019	-3e-05	-3e-05	0	0.00031	-0.00035	0.0001	0.00012	6
26291	-0.00019	-3e-05	-3e-05	0	0.00031	-0.00035	0.0001	0.00012	6
26292	-0.00019	-3e-05	-3e-05	0	0.00031	-0.00035	0.0001	0.00012	6
26293	-0.00019	-3e-05	-3e-05	0	0.00031	-0.00035	0.0001	0.00012	6
26294	-0.00019	-3e-05	-3e-05	0	0.00031	-0.00035	0.0001	0.00012	6
26295	-0.00019	-3e-05	-3e-05	0	0.00031	-0.00035	0.0001	0.00012	6
26296	-0.00019	-3e-05	-3e-05	0	0.00031	-0.00035	0.0001	0.00012	6
26297	-0.00019	-3e-05	-3e-05	0	0.00031	-0.00035	0.0001	0.00012	6
26298	-0.00019	-3e-05	-3e-05	0	0.00031	-0.00035	0.0001	0.00012	6
26299	-0.00019	-3e-05	-3e-05	0	0.00031	-0.00035	0.0001	0.00012	6
26304	-0.00019	-3e-05	-3e-05	0	0.00031	-0.00035	0.0001	0.00012	6
26305	0.00049	-0.00016	-3e-05	0	0.00027	-3e-05	9e-05	4e-05	6
26306	-3e-05	-6e-05	-2e-05	-5e-05	-0.00014	-0.00013	0.00059	-0.00011	6
26307	-3e-05	-6e-05	-2e-05	-5e-05	-0.00014	-0.00013	0.00059	-0.00011	6
26308	-3e-05	-6e-05	-2e-05	-5e-05	-0.00014	-0.00013	0.00059	-0.00011	6
26309	-3e-05	-6e-05	-2e-05	-5e-05	-0.00014	-0.00013	0.00059	-0.00011	6
26310	-3e-05	-6e-05	-2e-05	-5e-05	-0.00014	-0.00013	0.00059	-0.00011	6
26311	-3e-05	-6e-05	-2e-05	-5e-05	-0.00014	-0.00013	0.00059	-0.00011	6
26312	-3e-05	-6e-05	-2e-05	-5e-05	-0.00014	-0.00013	0.00059	-0.00011	6
26313	-3e-05	-6e-05	-2e-05	-5e-05	-0.00014	-0.00013	0.00059	-0.00011	6
26314	-3e-05	-6e-05	-2e-05	-5e-05	-0.00014	-0.00013	0.00059	-0.00011	6
26315	-3e-05	-6e-05	-2e-05	-5e-05	-0.00014	-0.00013	0.00059	-0.00011	6
26316	5e-05	0	-5e-05	-6e-05	-0.00045	-0.00028	-6e-05	0	6
26317	0.00071	-8e-05	-7e-05	-0.00019	-0.00026	0.00025	-0.00027	-0.00012	6
26318	0.00071	-8e-05	-7e-05	-0.00019	-0.00026	0.00025	-0.00027	-0.00012	6
26319	0.00071	-8e-05	-7e-05	-0.00019	-0.00026	0.00025	-0.00027	-0.00012	6
26320	0.00071	-8e-05	-7e-05	-0.00019	-0.00026	0.00025	-0.00027	-0.00012	6
26321	0.00071	-8e-05	-7e-05	-0.00019	-0.00026	0.00025	-0.00027	-0.00012	6
26322	0.00071	-8e-05	-7e-05	-0.00019	-0.00026	0.00025	-0.00027	-0.00012	6
26323	0.00071	-8e-05	-7e-05	-0.00019	-0.00026	0.00025	-0.00027	-0.00012	6
26324	0.00071	-8e-05	-7e-05	-0.00019	-0.00026	0.00025	-0.00027	-0.00012	6
26325	0.00068	2e-05	1e-05	5e-05	-0.00045	0.00032	-0.0002	-8e-05	6
26326	-0.00064	-6e-05	-6e-05	-1e-05	0.00075	-0.0005	-4e-05	-0.00018	6
26327	-0.00064	-6e-05	-6e-05	-1e-05	0.00075	-0.0005	-4e-05	-0.00018	6
26328	-0.00064	-6e-05	-6e-05	-1e-05	0.00075	-0.0005	-4e-05	-0.00018	6
26329	-0.00064	-6e-05	-6e-05	-1e-05	0.00075	-0.0005	-4e-05	-0.00018	6
26330	-0.00064	-6e-05	-6e-05	-1e-05	0.00075	-0.0005	-4e-05	-0.00018	6
26331	-0.00064	-6e-05	-6e-05	-1e-05	0.00075	-0.0005	-4e-05	-0.00018	6
26332	-0.00064	-6e-05	-6e-05	-1e-05	0.00075	-0.0005	-4e-05	-0.00018	6
26333	-0.00064	-6e-05	-6e-05	-1e-05	0.00075	-0.0005	-4e-05	-0.00018	6
26334	-0.00064	-6e-05	-6e-05	-1e-05	0.00075	-0.0005	-4e-05	-0.00018	6
26335	-0.00064	-6e-05	-6e-05	-1e-05	0.00075	-0.0005	-4e-05	-0.00018	6
26337	-0.00064	-6e-05	-6e-05	-1e-05	0.00075	-0.0005	-4e-05	-0.00018	6
26339	-0.00064	-6e-05	-6e-05	-1e-05	0.00075	-0.0005	-4e-05	-0.00018	6
26340	-0.00018	-2e-05	0	-5e-05	2e-05	-0.00068	0.00014	0.00032	6
26341	-0.00018	-2e-05	0	-5e-05	2e-05	-0.00068	0.00014	0.00032	6
26342	0.00034	5e-05	5e-05	0	0.00059	-0.00035	-0.00019	0.00021	6
26343	0.00034	5e-05	5e-05	0	0.00059	-0.00035	-0.00019	0.00021	6
26344	0.00034	5e-05	5e-05	0	0.00059	-0.00035	-0.00019	0.00021	6
26345	0.00034	5e-05	5e-05	0	0.00059	-0.00035	-0.00019	0.00021	6
26346	0.00034	5e-05	5e-05	0	0.00059	-0.00035	-0.00019	0.00021	6
26347	0.00034	5e-05	5e-05	0	0.00059	-0.00035	-0.00019	0.00021	6
26348	0.00034	5e-05	5e-05	0	0.00059	-0.00035	-0.00019	0.00021	6
26349	0.00034	5e-05	5e-05	0	0.00059	-0.00035	-0.00019	0.00021	6
26350	0.00034	5e-05	5e-05	0	0.00059	-0.00035	-0.00019	0.00021	6
26351	0.00034	5e-05	5e-05	0	0.00059	-0.00035	-0.00019	0.00021	6
26352	0.00034	5e-05	5e-05	0	0.00059	-0.00035	-0.00019	0.00021	6
26353	0.00034	5e-05	5e-05	0	0.00059	-0.00035	-0.00019	0.00021	6
26354	0.00034	5e-05	5e-05	0	0.00059	-0.00035	-0.00019	0.00021	6
26355	0.00034	5e-05	5e-05	0	0.00059	-0.00035	-0.00019	0.00021	6
26356	0.00034	5e-05	5e-05	0	0.00059	-0.00035	-0.00019	0.00021	6
26357	0.00034	5e-05	5e-05	0	0.00059	-0.00035	-0.00019	0.00021	6
26358	0.00034	5e-05	5e-05	0	0.00059	-0.00035	-0.00019	0.00021	6
26359	0.00034	5e-05	5e-05	0	0.00059	-0.00035	-0.00019	0.00021	6
26360	0.00034	5e-05	5e-05	0	0.00059	-0.00035	-0.00019	0.00021	6
26361	0.00034	5e-05	5e-05	0	0.00059	-0.00035	-0.00019	0.00021	6
26362	0.00034	5e-05	5e-05	0	0.00059	-0.00035	-0.00019	0.00021	6
26363	-0.00083	3e-05	3e-05	1e-05	-0.00047	-0.00019	-5e-05	8e-05	6
26364	-0.00051	2e-05	-9e-05	-5e-05	0.0004	0.00021	-1e-05	-2e-05	6
26365	0.00023	-0.0001	-5e-05	-0.00016	-0.00092	-0.00075	0.00017	0.00049	6
26366	0.00023	-0.0001	-5e-05	-0.00016	-0.00092	-0.00075	0.00017	0.00049	6
26367	0.00023	-0.0001	-5e-05	-0.00016	-0.00092	-0.00075	0.00017	0.00049	6
26368	0.00023	-0.0001	-5e-05	-0.00016	-0.00092	-0.00075	0.00017	0.00049	6
26369	0.00023	-0.0001	-5e-05	-0.00016	-0.00092	-0.00075	0.00017	0.00049	6
26370	0.00023	-0.0001	-5e-05	-0.00016	-0.00092	-0.00075	0.00017	0.00049	6
26371	0.00023	-0.0001	-5e-05	-0.00016	-0.00092	-0.00075	0.00017	0.00049	6
26372	0.00023	-0.0001	-5e-05	-0.00016	-0.00092	-0.00075	0.00017	0.00049	6
26373	0.00023	-0.0001	-5e-05	-0.00016	-0.00092	-0.00075	0.00017	0.00049	6
26374	0.00023	-0.0001	-5e-05	-0.00016	-0.00092	-0.00075	0.00017	0.00049	6
26375	0.00023	-0.0001	-5e-05	-0.00016	-0.00092	-0.00075	0.00017	0.00049	6
26376	5e-05	9e-05	1e-05	3e-05	0.0002	0.0007	-0.00011	-0.00036	6
26377	-0.00016	-4e-05	3e-05	5e-05	-0.00029	-0.00052	0.00017	0.0001	6
26378	-0.00016	-4e-05	3e-05	5e-05	-0.00029	-0.00052	0.00017	0.0001	6
26379	-0.00016	-4e-05	3e-05	5e-05	-0.00029	-0.00052	0.00017	0.0001	6
26380	-0.00016	-4e-05	3e-05	5e-05	-0.00029	-0.00052	0.00017	0.0001	6
26381	-0.00016	-4e-05	3e-05	5e-05	-0.00029	-0.00052	0.00017	0.0001	6
26382	-0.00016	-4e-05	3e-05	5e-05	-0.00029	-0.00052	0.00017	0.0001	6
26383	-0.00016	-4e-05	3e-05	5e-05	-0.00029	-0.00052	0.00017	0.0001	6
26384	-0.00016	-4e-05	3e-05	5e-05	-0.00029	-0.00052	0.00017	0.0001	6
26385	-0.00022	3e-05	1e-05	-2e-05	-0.00088	0.00035	-0.0005	-0.00046	6
26387	-0.00022	3e-05	1e-05	-2e-05	-0.00088	0.00035	-0.0005	-0.00046	6
26389	-0.00022	3e-05	1e-05	-2e-05	-0.00088	0.00035	-0.0005	-0.00046	6
26390	-0.00022	3e-05	1e-05	-2e-05	-0.00088	0.00035	-0.0005	-0.00046	6
26391	-0.00022	3e-05	1e-05	-2e-05	-0.00088	0.00035	-0.0005	-0.00046	6
26392	-0.00022	3e-05	1e-05	-2e-05	-0.00088	0.00035	-0.0005	-0.00046	6
26393	-0.00022	3e-05	1e-05	-2e-05	-0.00088	0.00035	-0.0005	-0.00046	6
26394	-0.00022	3e-05	1e-05	-2e-05	-0.00088	0.00035	-0.0005	-0.00046	6
26395	-0.00022	3e-05	1e-05	-2e-05	-0.00088	0.00035	-0.0005	-0.00046	6
26396	-0.00022	3e-05	1e-05	-2e-05	-0.00088	0.00035	-0.0005	-0.00046	6
26397	-0.00022	3e-05	1e-05	-2e-05	-0.00088	0.00035	-0.0005	-0.00046	6
26398	-0.00022	3e-05	1e-05	-2e-05	-0.00088	0.00035	-0.0005	-0.00046	6
26399	-0.00022	3e-05	1e-05	-2e-05	-0.00088	0.00035	-0.0005	-0.00046	6
26400	0.00054	-1e-05	-8e-05	8e-05	0.00022	7e-05	0.00016	5e-05	6
26401	0.00054	-1e-05	-8e-05	8e-05	0.00022	7e-05	0.00016	5e-05	6
26402	0.00088	5e-05	3e-05	7e-05	5e-05	-0.00107	-0.00021	0.00034	6
26403	0.00088	5e-05	3e-05	7e-05	5e-05	-0.00107	-0.00021	0.00034	6
26404	0.00088	5e-05	3e-05	7e-05	5e-05	-0.00107	-0.00021	0.00034	6
26405	0.00088	5e-05	3e-05	7e-05	5e-05	-0.00107	-0.00021	0.00034	6
26406	0.00088	5e-05	3e-05	7e-05	5e-05	-0.00107	-0.00021	0.00034	6
26407	0.00088	5e-05	3e-05	7e-05	5e-05	-0.00107	-0.00021	0.00034	6
26408	0.00088	5e-05	3e-05	7e-05	5e-05	-0.00107	-0.00021	0.00034	6
26409	0.00088	5e-05	3e-05	7e-05	5e-05	-0.00107	-0.00021	0.00034	6
26410	0.00088	5e-05	3e-05	7e-05	5e-05	-0.00107	-0.00021	0.00034	6
26411	0.00088	5e-05	3e-05	7e-05	5e-05	-0.00107	-0.00021	0.00034	6
26412	0.00088	5e-05	3e-05	7e-05	5e-05	-0.00107	-0.00021	0.00034	6
26413	0.00088	5e-05	3e-05	7e-05	5e-05	-0.00107	-0.00021	0.00034	6
26414	0.00088	5e-05	3e-05	7e-05	5e-05	-0.00107	-0.00021	0.00034	6
26415	0.00088	5e-05	3e-05	7e-05	5e-05	-0.00107	-0.00021	0.00034	6
26416	0.00088	5e-05	3e-05	7e-05	5e-05	-0.00107	-0.00021	0.00034	6
26417	0.00088	5e-05	3e-05	7e-05	5e-05	-0.00107	-0.00021	0.00034	6
26418	0.00088	5e-05	3e-05	7e-05	5e-05	-0.00107	-0.00021	0.00034	6
26419	0.00088	5e-05	3e-05	7e-05	5e-05	-0.00107	-0.00021	0.00034	6
26420	0.00088	5e-05	3e-05	7e-05	5e-05	-0.00107	-0.00021	0.00034	6
26421	0.00088	5e-05	3e-05	7e-05	5e-05	-0.00107	-0.00021	0.00034	6
26422	0.00088	5e-05	3e-05	7e-05	5e-05	-0.00107	-0.00021	0.00034	6
26423	-0.00081	-8e-05	-4e-05	1e-05	0.00049	-0.00062	0.00011	-6e-05	6
26424	0.00016	2e-05	0	-5e-05	-0.00013	-0.00056	-8e-05	0.00031	6
26425	0.00016	2e-05	0	-5e-05	-0.00013	-0.00056	-8e-05	0.00031	6
26426	0.00016	2e-05	0	-5e-05	-0.00013	-0.00056	-8e-05	0.00031	6
26427	0.00016	2e-05	0	-5e-05	-0.00013	-0.00056	-8e-05	0.00031	6
26428	0.00016	2e-05	0	-5e-05	-0.00013	-0.00056	-8e-05	0.00031	6
26429	0.00016	2e-05	0	-5e-05	-0.00013	-0.00056	-8e-05	0.00031	6
26430	0.00016	2e-05	0	-5e-05	-0.00013	-0.00056	-8e-05	0.00031	6
26431	0.00016	2e-05	0	-5e-05	-0.00013	-0.00056	-8e-05	0.00031	6
26432	0.00016	2e-05	0	-5e-05	-0.00013	-0.00056	-8e-05	0.00031	6
26433	0.00016	2e-05	0	-5e-05	-0.00013	-0.00056	-8e-05	0.00031	6
26434	0.00016	2e-05	0	-5e-05	-0.00013	-0.00056	-8e-05	0.00031	6
26435	0.00016	2e-05	0	-5e-05	-0.00013	-0.00056	-8e-05	0.00031	6
26437	0.00016	2e-05	0	-5e-05	-0.00013	-0.00056	-8e-05	0.00031	6
26439	0.00016	2e-05	0	-5e-05	-0.00013	-0.00056	-8e-05	0.00031	6
26440	0.00016	2e-05	0	-5e-05	-0.00013	-0.00056	-8e-05	0.00031	6
26441	0.00016	2e-05	0	-5e-05	-0.00013	-0.00056	-8e-05	0.00031	6
26442	0.00016	2e-05	0	-5e-05	-0.00013	-0.00056	-8e-05	0.00031	6
26443	0.00016	2e-05	0	-5e-05	-0.00013	-0.00056	-8e-05	0.00031	6
26444	0.00016	2e-05	0	-5e-05	-0.00013	-0.00056	-8e-05	0.00031	6
26445	0	-6e-05	-1e-05	3e-05	0.00025	-0.00039	0.0002	0.00012	6
26446	0	-6e-05	-1e-05	3e-05	0.00025	-0.00039	0.0002	0.00012	6
26447	-0.00039	4e-05	5e-05	0.00023	0.00014	-0.00053	-0.00041	-0.00039	6
26448	-0.00039	4e-05	5e-05	0.00023	0.00014	-0.00053	-0.00041	-0.00039	6
26449	-0.00039	4e-05	5e-05	0.00023	0.00014	-0.00053	-0.00041	-0.00039	6
26450	-0.00039	4e-05	5e-05	0.00023	0.00014	-0.00053	-0.00041	-0.00039	6
26451	-0.00039	4e-05	5e-05	0.00023	0.00014	-0.00053	-0.00041	-0.00039	6
26452	-0.00039	4e-05	5e-05	0.00023	0.00014	-0.00053	-0.00041	-0.00039	6
26453	-0.00039	4e-05	5e-05	0.00023	0.00014	-0.00053	-0.00041	-0.00039	6
26454	-0.00039	4e-05	5e-05	0.00023	0.00014	-0.00053	-0.00041	-0.00039	6
26455	-0.00039	4e-05	5e-05	0.00023	0.00014	-0.00053	-0.00041	-0.00039	6
26456	-0.00039	4e-05	5e-05	0.00023	0.00014	-0.00053	-0.00041	-0.00039	6
26457	-0.00039	4e-05	5e-05	0.00023	0.00014	-0.00053	-0.00041	-0.00039	6
26458	-0.00039	4e-05	5e-05	0.00023	0.00014	-0.00053	-0.00041	-0.00039	6
26459	-0.00039	4e-05	5e-05	0.00023	0.00014	-0.00053	-0.00041	-0.00039	6
26460	5e-05	3e-05	3e-05	6e-05	0.00065	0.00066	7e-05	-8e-05	6
26461	5e-05	3e-05	3e-05	6e-05	0.00065	0.00066	7e-05	-8e-05	6
26462	-6e-05	-7e-05	-3e-05	-3e-05	0.00054	0.00044	0.00028	0.00041	6
26463	-6e-05	-7e-05	-3e-05	-3e-05	0.00054	0.00044	0.00028	0.00041	6
26464	-6e-05	-7e-05	-3e-05	-3e-05	0.00054	0.00044	0.00028	0.00041	6
26465	-6e-05	-7e-05	-3e-05	-3e-05	0.00054	0.00044	0.00028	0.00041	6
26466	-6e-05	-7e-05	-3e-05	-3e-05	0.00054	0.00044	0.00028	0.00041	6
26467	-6e-05	-7e-05	-3e-05	-3e-05	0.00054	0.00044	0.00028	0.00041	6
26468	-6e-05	-7e-05	-3e-05	-3e-05	0.00054	0.00044	0.00028	0.00041	6
26469	-6e-05	-7e-05	-3e-05	-3e-05	0.00054	0.00044	0.00028	0.00041	6
26470	-6e-05	-7e-05	-3e-05	-3e-05	0.00054	0.00044	0.00028	0.00041	6
26471	-6e-05	-7e-05	-3e-05	-3e-05	0.00054	0.00044	0.00028	0.00041	6
26472	-6e-05	-7e-05	-3e-05	-3e-05	0.00054	0.00044	0.00028	0.00041	6
26473	-6e-05	-7e-05	-3e-05	-3e-05	0.00054	0.00044	0.00028	0.00041	6
26474	-6e-05	-7e-05	-3e-05	-3e-05	0.00054	0.00044	0.00028	0.00041	6
26475	-6e-05	-7e-05	-3e-05	-3e-05	0.00054	0.00044	0.00028	0.00041	6
26476	-6e-05	-7e-05	-3e-05	-3e-05	0.00054	0.00044	0.00028	0.00041	6
26477	-6e-05	-7e-05	-3e-05	-3e-05	0.00054	0.00044	0.00028	0.00041	6
26478	-6e-05	-7e-05	-3e-05	-3e-05	0.00054	0.00044	0.00028	0.00041	6
26479	-6e-05	-7e-05	-3e-05	-3e-05	0.00054	0.00044	0.00028	0.00041	6
26480	-6e-05	-7e-05	-3e-05	-3e-05	0.00054	0.00044	0.00028	0.00041	6
26481	-6e-05	-7e-05	-3e-05	-3e-05	0.00054	0.00044	0.00028	0.00041	6
26482	-6e-05	-7e-05	-3e-05	-3e-05	0.00054	0.00044	0.00028	0.00041	6
26483	0.00043	2e-05	5e-05	3e-05	-0.00024	0.00025	-9e-05	-0.00022	6
26484	-0.0009	-5e-05	-5e-05	-3e-05	-0.00011	0.00071	0.00044	0.00022	6
26485	0.00031	0	4e-05	5e-05	2e-05	0.00013	0.00035	0.00019	6
26487	0.00031	0	4e-05	5e-05	2e-05	0.00013	0.00035	0.00019	6
26489	0.00031	0	4e-05	5e-05	2e-05	0.00013	0.00035	0.00019	6
26490	0.00031	0	4e-05	5e-05	2e-05	0.00013	0.00035	0.00019	6
26491	0.00031	0	4e-05	5e-05	2e-05	0.00013	0.00035	0.00019	6
26492	0.00031	0	4e-05	5e-05	2e-05	0.00013	0.00035	0.00019	6
26493	0.00031	0	4e-05	5e-05	2e-05	0.00013	0.00035	0.00019	6
26494	0.00031	0	4e-05	5e-05	2e-05	0.00013	0.00035	0.00019	6
26495	0.00031	0	4e-05	5e-05	2e-05	0.00013	0.00035	0.00019	6
26496	0.00031	0	4e-05	5e-05	2e-05	0.00013	0.00035	0.00019	6
26497	0.00031	0	4e-05	5e-05	2e-05	0.00013	0.00035	0.00019	6
26498	0.00031	0	4e-05	5e-05	2e-05	0.00013	0.00035	0.00019	6
26499	0.00031	0	4e-05	5e-05	2e-05	0.00013	0.00035	0.00019	6
26500	0.00031	0	4e-05	5e-05	2e-05	0.00013	0.00035	0.00019	6
26501	0.00031	0	4e-05	5e-05	2e-05	0.00013	0.00035	0.00019	6
26502	0.00031	0	4e-05	5e-05	2e-05	0.00013	0.00035	0.00019	6
26503	0.00031	0	4e-05	5e-05	2e-05	0.00013	0.00035	0.00019	6
26504	0.00031	0	4e-05	5e-05	2e-05	0.00013	0.00035	0.00019	6
26505	0.00074	6e-05	-4e-05	-5e-05	-0.00026	0.00103	0.0001	0.00019	6
26506	0.00074	6e-05	-4e-05	-5e-05	-0.00026	0.00103	0.0001	0.00019	6
26507	-0.00027	-2e-05	1e-05	0.00021	0.00037	-0.00039	-0.00011	-4e-05	6
26508	-0.00027	-2e-05	1e-05	0.00021	0.00037	-0.00039	-0.00011	-4e-05	6
26509	-0.00027	-2e-05	1e-05	0.00021	0.00037	-0.00039	-0.00011	-4e-05	6
26510	-0.00027	-2e-05	1e-05	0.00021	0.00037	-0.00039	-0.00011	-4e-05	6
26511	-0.00027	-2e-05	1e-05	0.00021	0.00037	-0.00039	-0.00011	-4e-05	6
26512	-0.00027	-2e-05	1e-05	0.00021	0.00037	-0.00039	-0.00011	-4e-05	6
26513	-0.00027	-2e-05	1e-05	0.00021	0.00037	-0.00039	-0.00011	-4e-05	6
26514	-0.00027	-2e-05	1e-05	0.00021	0.00037	-0.00039	-0.00011	-4e-05	6
26515	-0.00027	-2e-05	1e-05	0.00021	0.00037	-0.00039	-0.00011	-4e-05	6
26516	-0.00027	-2e-05	1e-05	0.00021	0.00037	-0.00039	-0.00011	-4e-05	6
26517	-0.00027	-2e-05	1e-05	0.00021	0.00037	-0.00039	-0.00011	-4e-05	6
26518	-0.00027	-2e-05	1e-05	0.00021	0.00037	-0.00039	-0.00011	-4e-05	6
26519	-0.00027	-2e-05	1e-05	0.00021	0.00037	-0.00039	-0.00011	-4e-05	6
26520	-9e-05	-5e-05	-1e-05	4e-05	0.00022	0	0.0004	-0.00058	6
26521	-9e-05	-5e-05	-1e-05	4e-05	0.00022	0	0.0004	-0.00058	6
26522	-2e-05	-1e-05	-3e-05	0	0.00038	0.0006	0.0001	-8e-05	6
26523	-2e-05	-1e-05	-3e-05	0	0.00038	0.0006	0.0001	-8e-05	6
26524	-2e-05	-1e-05	-3e-05	0	0.00038	0.0006	0.0001	-8e-05	6
26525	-2e-05	-1e-05	-3e-05	0	0.00038	0.0006	0.0001	-8e-05	6
26526	-2e-05	-1e-05	-3e-05	0	0.00038	0.0006	0.0001	-8e-05	6
26527	-2e-05	-1e-05	-3e-05	0	0.00038	0.0006	0.0001	-8e-05	6
26528	-2e-05	-1e-05	-3e-05	0	0.00038	0.0006	0.0001	-8e-05	6
26529	-2e-05	-1e-05	-3e-05	0	0.00038	0.0006	0.0001	-8e-05	6
26530	-2e-05	-1e-05	-3e-05	0	0.00038	0.0006	0.0001	-8e-05	6
26531	-2e-05	-1e-05	-3e-05	0	0.00038	0.0006	0.0001	-8e-05	6
26532	-2e-05	-1e-05	-3e-05	0	0.00038	0.0006	0.0001	-8e-05	6
26533	-2e-05	-1e-05	-3e-05	0	0.00038	0.0006	0.0001	-8e-05	6
26534	-2e-05	-1e-05	-3e-05	0	0.00038	0.0006	0.0001	-8e-05	6
26535	-2e-05	-1e-05	-3e-05	0	0.00038	0.0006	0.0001	-8e-05	6
26537	-2e-05	-1e-05	-3e-05	0	0.00038	0.0006	0.0001	-8e-05	6
26539	-2e-05	-1e-05	-3e-05	0	0.00038	0.0006	0.0001	-8e-05	6
26540	-2e-05	-1e-05	-3e-05	0	0.00038	0.0006	0.0001	-8e-05	6
26541	-2e-05	-1e-05	-3e-05	0	0.00038	0.0006	0.0001	-8e-05	6
26542	-2e-05	-1e-05	-3e-05	0	0.00038	0.0006	0.0001	-8e-05	6
26543	0.00062	6e-05	-5e-05	-0.00014	-0.0009	-0.00079	-0.00042	-9e-05	6
26544	-2e-05	-7e-05	2e-05	6e-05	0.00015	0.00047	0.00027	3e-05	6
26545	0.00057	7e-05	8e-05	6e-05	-9e-05	-0.00078	0.00025	-0.00032	6
26546	0.00057	7e-05	8e-05	6e-05	-9e-05	-0.00078	0.00025	-0.00032	6
26547	0.00057	7e-05	8e-05	6e-05	-9e-05	-0.00078	0.00025	-0.00032	6
26548	0.00057	7e-05	8e-05	6e-05	-9e-05	-0.00078	0.00025	-0.00032	6
26549	0.00057	7e-05	8e-05	6e-05	-9e-05	-0.00078	0.00025	-0.00032	6
26550	0.00057	7e-05	8e-05	6e-05	-9e-05	-0.00078	0.00025	-0.00032	6
26551	0.00057	7e-05	8e-05	6e-05	-9e-05	-0.00078	0.00025	-0.00032	6
26552	0.00057	7e-05	8e-05	6e-05	-9e-05	-0.00078	0.00025	-0.00032	6
26553	0.00057	7e-05	8e-05	6e-05	-9e-05	-0.00078	0.00025	-0.00032	6
26554	0.00057	7e-05	8e-05	6e-05	-9e-05	-0.00078	0.00025	-0.00032	6
26555	0.00057	7e-05	8e-05	6e-05	-9e-05	-0.00078	0.00025	-0.00032	6
26556	0.00057	7e-05	8e-05	6e-05	-9e-05	-0.00078	0.00025	-0.00032	6
26557	0.00057	7e-05	8e-05	6e-05	-9e-05	-0.00078	0.00025	-0.00032	6
26558	0.00057	7e-05	8e-05	6e-05	-9e-05	-0.00078	0.00025	-0.00032	6
26559	0.00057	7e-05	8e-05	6e-05	-9e-05	-0.00078	0.00025	-0.00032	6
26560	0.00057	7e-05	8e-05	6e-05	-9e-05	-0.00078	0.00025	-0.00032	6
26561	0.00057	7e-05	8e-05	6e-05	-9e-05	-0.00078	0.00025	-0.00032	6
26562	0.00057	7e-05	8e-05	6e-05	-9e-05	-0.00078	0.00025	-0.00032	6
26563	0.00057	7e-05	8e-05	6e-05	-9e-05	-0.00078	0.00025	-0.00032	6
26564	0.00057	7e-05	8e-05	6e-05	-9e-05	-0.00078	0.00025	-0.00032	6
26565	-0.00011	-4e-05	-6e-05	6e-05	0.00045	-2e-05	-0.00034	0.00019	6
26566	-0.00011	-4e-05	-6e-05	6e-05	0.00045	-2e-05	-0.00034	0.00019	6
26567	0.00019	4e-05	-3e-05	-6e-05	-0.00046	6e-05	-4e-05	-0.00035	6
26568	0.00019	4e-05	-3e-05	-6e-05	-0.00046	6e-05	-4e-05	-0.00035	6
26569	0.00019	4e-05	-3e-05	-6e-05	-0.00046	6e-05	-4e-05	-0.00035	6
26570	0.00019	4e-05	-3e-05	-6e-05	-0.00046	6e-05	-4e-05	-0.00035	6
26571	0.00019	4e-05	-3e-05	-6e-05	-0.00046	6e-05	-4e-05	-0.00035	6
26572	0.00019	4e-05	-3e-05	-6e-05	-0.00046	6e-05	-4e-05	-0.00035	6
26573	0.00019	4e-05	-3e-05	-6e-05	-0.00046	6e-05	-4e-05	-0.00035	6
26574	0.00019	4e-05	-3e-05	-6e-05	-0.00046	6e-05	-4e-05	-0.00035	6
26575	0.00019	4e-05	-3e-05	-6e-05	-0.00046	6e-05	-4e-05	-0.00035	6
26576	0.00019	4e-05	-3e-05	-6e-05	-0.00046	6e-05	-4e-05	-0.00035	6
26577	0.00019	4e-05	-3e-05	-6e-05	-0.00046	6e-05	-4e-05	-0.00035	6
26578	0.00019	4e-05	-3e-05	-6e-05	-0.00046	6e-05	-4e-05	-0.00035	6
26579	0.00048	0	2e-05	-4e-05	-0.00051	-0.00049	9e-05	0.0003	6
26580	6e-05	4e-05	4e-05	6e-05	0.00033	0.00042	0.00024	8e-05	6
26581	6e-05	4e-05	4e-05	6e-05	0.00033	0.00042	0.00024	8e-05	6
26582	6e-05	4e-05	4e-05	6e-05	0.00033	0.00042	0.00024	8e-05	6
26583	6e-05	4e-05	4e-05	6e-05	0.00033	0.00042	0.00024	8e-05	6
26584	6e-05	4e-05	4e-05	6e-05	0.00033	0.00042	0.00024	8e-05	6
26585	6e-05	4e-05	4e-05	6e-05	0.00033	0.00042	0.00024	8e-05	6
26587	-0.00038	-8e-05	-0.0001	-0.0002	-0.00061	0.00076	0.0002	0.00013	6
26589	-0.00038	-8e-05	-0.0001	-0.0002	-0.00061	0.00076	0.0002	0.00013	6
26590	-0.00038	-8e-05	-0.0001	-0.0002	-0.00061	0.00076	0.0002	0.00013	6
26591	-0.00038	-8e-05	-0.0001	-0.0002	-0.00061	0.00076	0.0002	0.00013	6
26592	-0.00038	-8e-05	-0.0001	-0.0002	-0.00061	0.00076	0.0002	0.00013	6
26593	-0.00038	-8e-05	-0.0001	-0.0002	-0.00061	0.00076	0.0002	0.00013	6
26594	-0.00038	-8e-05	-0.0001	-0.0002	-0.00061	0.00076	0.0002	0.00013	6
26595	-0.00038	-8e-05	-0.0001	-0.0002	-0.00061	0.00076	0.0002	0.00013	6
26596	-0.00038	-8e-05	-0.0001	-0.0002	-0.00061	0.00076	0.0002	0.00013	6
26597	-0.00038	-8e-05	-0.0001	-0.0002	-0.00061	0.00076	0.0002	0.00013	6
26598	-0.00038	-8e-05	-0.0001	-0.0002	-0.00061	0.00076	0.0002	0.00013	6
26599	-0.00038	-8e-05	-0.0001	-0.0002	-0.00061	0.00076	0.0002	0.00013	6
26600	-0.00038	-8e-05	-0.0001	-0.0002	-0.00061	0.00076	0.0002	0.00013	6
26601	-0.00038	-8e-05	-0.0001	-0.0002	-0.00061	0.00076	0.0002	0.00013	6
26602	-0.00038	-8e-05	-0.0001	-0.0002	-0.00061	0.00076	0.0002	0.00013	6
26603	-0.00045	-0.0001	-7e-05	-0.0001	-0.00111	-0.00055	-7e-05	-7e-05	6
26604	-0.00068	4e-05	-1e-05	-0.0002	-0.00053	0.00011	-0.00013	9e-05	6
26605	-0.00068	4e-05	-1e-05	-0.0002	-0.00053	0.00011	-0.00013	9e-05	6
26606	-0.00068	4e-05	-1e-05	-0.0002	-0.00053	0.00011	-0.00013	9e-05	6
26607	-0.00068	4e-05	-1e-05	-0.0002	-0.00053	0.00011	-0.00013	9e-05	6
26608	-0.00068	4e-05	-1e-05	-0.0002	-0.00053	0.00011	-0.00013	9e-05	6
26609	-0.00068	4e-05	-1e-05	-0.0002	-0.00053	0.00011	-0.00013	9e-05	6
26610	-0.00068	4e-05	-1e-05	-0.0002	-0.00053	0.00011	-0.00013	9e-05	6
26611	-0.00068	4e-05	-1e-05	-0.0002	-0.00053	0.00011	-0.00013	9e-05	6
26612	-0.00068	4e-05	-1e-05	-0.0002	-0.00053	0.00011	-0.00013	9e-05	6
26613	-0.00068	4e-05	-1e-05	-0.0002	-0.00053	0.00011	-0.00013	9e-05	6
26614	-0.00068	4e-05	-1e-05	-0.0002	-0.00053	0.00011	-0.00013	9e-05	6
26615	-0.00068	4e-05	-1e-05	-0.0002	-0.00053	0.00011	-0.00013	9e-05	6
26616	-0.00068	4e-05	-1e-05	-0.0002	-0.00053	0.00011	-0.00013	9e-05	6
26617	-0.00068	4e-05	-1e-05	-0.0002	-0.00053	0.00011	-0.00013	9e-05	6
26618	-0.00068	4e-05	-1e-05	-0.0002	-0.00053	0.00011	-0.00013	9e-05	6
26619	-0.00068	4e-05	-1e-05	-0.0002	-0.00053	0.00011	-0.00013	9e-05	6
26620	-0.00068	4e-05	-1e-05	-0.0002	-0.00053	0.00011	-0.00013	9e-05	6
26621	-0.00068	4e-05	-1e-05	-0.0002	-0.00053	0.00011	-0.00013	9e-05	6
26622	-0.00068	4e-05	-1e-05	-0.0002	-0.00053	0.00011	-0.00013	9e-05	6
26623	-0.00068	4e-05	-1e-05	-0.0002	-0.00053	0.00011	-0.00013	9e-05	6
26624	-0.00068	4e-05	-1e-05	-0.0002	-0.00053	0.00011	-0.00013	9e-05	6
26625	0.00019	3e-05	3e-05	8e-05	0.00054	0.00021	0.00079	0.00025	6
26626	0.00019	3e-05	3e-05	8e-05	0.00054	0.00021	0.00079	0.00025	6
26627	-0.00051	-2e-05	-2e-05	-3e-05	-0.00021	0.00027	-5e-05	-0.00021	6
26628	-0.00051	-2e-05	-2e-05	-3e-05	-0.00021	0.00027	-5e-05	-0.00021	6
26629	-0.00051	-2e-05	-2e-05	-3e-05	-0.00021	0.00027	-5e-05	-0.00021	6
26630	-0.00051	-2e-05	-2e-05	-3e-05	-0.00021	0.00027	-5e-05	-0.00021	6
26631	-0.00051	-2e-05	-2e-05	-3e-05	-0.00021	0.00027	-5e-05	-0.00021	6
26632	-0.00051	-2e-05	-2e-05	-3e-05	-0.00021	0.00027	-5e-05	-0.00021	6
26633	-0.00051	-2e-05	-2e-05	-3e-05	-0.00021	0.00027	-5e-05	-0.00021	6
26634	-0.00051	-2e-05	-2e-05	-3e-05	-0.00021	0.00027	-5e-05	-0.00021	6
26635	-0.00051	-2e-05	-2e-05	-3e-05	-0.00021	0.00027	-5e-05	-0.00021	6
26637	-0.00051	-2e-05	-2e-05	-3e-05	-0.00021	0.00027	-5e-05	-0.00021	6
26639	-0.00051	-2e-05	-2e-05	-3e-05	-0.00021	0.00027	-5e-05	-0.00021	6
26640	-0.00051	-2e-05	-2e-05	-3e-05	-0.00021	0.00027	-5e-05	-0.00021	6
26641	-3e-05	-4e-05	3e-05	0.00024	0.00112	0.00059	-0.00036	0.00037	6
26642	-3e-05	-4e-05	3e-05	0.00024	0.00112	0.00059	-0.00036	0.00037	6
26643	-3e-05	-4e-05	3e-05	0.00024	0.00112	0.00059	-0.00036	0.00037	6
26644	-3e-05	-4e-05	3e-05	0.00024	0.00112	0.00059	-0.00036	0.00037	6
26645	-3e-05	-4e-05	3e-05	0.00024	0.00112	0.00059	-0.00036	0.00037	6
26646	-3e-05	-4e-05	3e-05	0.00024	0.00112	0.00059	-0.00036	0.00037	6
26647	-0.00049	-0.00012	-3e-05	-9e-05	3e-05	-0.00026	7e-05	8e-05	6
26648	-0.00049	-0.00012	-3e-05	-9e-05	3e-05	-0.00026	7e-05	8e-05	6
26649	-0.00049	-0.00012	-3e-05	-9e-05	3e-05	-0.00026	7e-05	8e-05	6
26650	-0.00049	-0.00012	-3e-05	-9e-05	3e-05	-0.00026	7e-05	8e-05	6
26651	-0.00049	-0.00012	-3e-05	-9e-05	3e-05	-0.00026	7e-05	8e-05	6
26652	-0.00049	-0.00012	-3e-05	-9e-05	3e-05	-0.00026	7e-05	8e-05	6
26653	-0.00049	-0.00012	-3e-05	-9e-05	3e-05	-0.00026	7e-05	8e-05	6
26654	-0.00049	-0.00012	-3e-05	-9e-05	3e-05	-0.00026	7e-05	8e-05	6
26655	-0.00049	-0.00012	-3e-05	-9e-05	3e-05	-0.00026	7e-05	8e-05	6
26656	-0.00049	-0.00012	-3e-05	-9e-05	3e-05	-0.00026	7e-05	8e-05	6
26657	-0.00049	-0.00012	-3e-05	-9e-05	3e-05	-0.00026	7e-05	8e-05	6
26658	-0.00049	-0.00012	-3e-05	-9e-05	3e-05	-0.00026	7e-05	8e-05	6
26659	-0.00049	-0.00012	-3e-05	-9e-05	3e-05	-0.00026	7e-05	8e-05	6
26660	-0.00049	-0.00012	-3e-05	-9e-05	3e-05	-0.00026	7e-05	8e-05	6
26661	-0.00049	-0.00012	-3e-05	-9e-05	3e-05	-0.00026	7e-05	8e-05	6
26662	-0.00049	-0.00012	-3e-05	-9e-05	3e-05	-0.00026	7e-05	8e-05	6
26663	-0.0006	0	7e-05	0	-0.00055	0.0009	-0.00011	-0.00012	6
26664	0.0011	5e-05	-2e-05	8e-05	4e-05	-0.00055	0	-6e-05	6
26665	0.0011	5e-05	-2e-05	8e-05	4e-05	-0.00055	0	-6e-05	6
26666	0.0011	5e-05	-2e-05	8e-05	4e-05	-0.00055	0	-6e-05	6
26667	0.0011	5e-05	-2e-05	8e-05	4e-05	-0.00055	0	-6e-05	6
26668	0.0011	5e-05	-2e-05	8e-05	4e-05	-0.00055	0	-6e-05	6
26669	0.0011	5e-05	-2e-05	8e-05	4e-05	-0.00055	0	-6e-05	6
26670	0.0011	5e-05	-2e-05	8e-05	4e-05	-0.00055	0	-6e-05	6
26671	0.0011	5e-05	-2e-05	8e-05	4e-05	-0.00055	0	-6e-05	6
26672	0.0011	5e-05	-2e-05	8e-05	4e-05	-0.00055	0	-6e-05	6
26673	0.0011	5e-05	-2e-05	8e-05	4e-05	-0.00055	0	-6e-05	6
26674	0.0011	5e-05	-2e-05	8e-05	4e-05	-0.00055	0	-6e-05	6
26675	0.0011	5e-05	-2e-05	8e-05	4e-05	-0.00055	0	-6e-05	6
26676	0.0011	5e-05	-2e-05	8e-05	4e-05	-0.00055	0	-6e-05	6
26677	0.0011	5e-05	-2e-05	8e-05	4e-05	-0.00055	0	-6e-05	6
26678	0.0011	5e-05	-2e-05	8e-05	4e-05	-0.00055	0	-6e-05	6
26679	0.0011	5e-05	-2e-05	8e-05	4e-05	-0.00055	0	-6e-05	6
26680	0.0011	5e-05	-2e-05	8e-05	4e-05	-0.00055	0	-6e-05	6
26681	0.0011	5e-05	-2e-05	8e-05	4e-05	-0.00055	0	-6e-05	6
26682	0.0011	5e-05	-2e-05	8e-05	4e-05	-0.00055	0	-6e-05	6
26683	0.0011	5e-05	-2e-05	8e-05	4e-05	-0.00055	0	-6e-05	6
26684	0.0011	5e-05	-2e-05	8e-05	4e-05	-0.00055	0	-6e-05	6
26685	0.00036	-8e-05	-5e-05	-7e-05	-0.00057	-0.00024	-0.00047	-0.00058	6
26687	0.00036	-8e-05	-5e-05	-7e-05	-0.00057	-0.00024	-0.00047	-0.00058	6
26689	0.00107	0.00014	7e-05	0.00014	0.00036	0.00059	0.00052	0.00051	6
26690	0.00107	0.00014	7e-05	0.00014	0.00036	0.00059	0.00052	0.00051	6
26691	0.00107	0.00014	7e-05	0.00014	0.00036	0.00059	0.00052	0.00051	6
26692	0.00107	0.00014	7e-05	0.00014	0.00036	0.00059	0.00052	0.00051	6
26693	0.00107	0.00014	7e-05	0.00014	0.00036	0.00059	0.00052	0.00051	6
26694	0.00107	0.00014	7e-05	0.00014	0.00036	0.00059	0.00052	0.00051	6
26695	0.00107	0.00014	7e-05	0.00014	0.00036	0.00059	0.00052	0.00051	6
26696	0.00107	0.00014	7e-05	0.00014	0.00036	0.00059	0.00052	0.00051	6
26697	0.00107	0.00014	7e-05	0.00014	0.00036	0.00059	0.00052	0.00051	6
26698	0.00107	0.00014	7e-05	0.00014	0.00036	0.00059	0.00052	0.00051	6
26699	-0.00028	-6e-05	-5e-05	-3e-05	0.00029	-0.00037	-0.00039	-0.00057	6
26700	-0.00029	3e-05	2e-05	0	0	-0.00023	0.00051	0.00036	6
26701	-0.00029	3e-05	2e-05	0	0	-0.00023	0.00051	0.00036	6
26702	-0.00029	3e-05	2e-05	0	0	-0.00023	0.00051	0.00036	6
26703	-0.00029	3e-05	2e-05	0	0	-0.00023	0.00051	0.00036	6
26704	-0.00029	3e-05	2e-05	0	0	-0.00023	0.00051	0.00036	6
26705	-0.00029	3e-05	2e-05	0	0	-0.00023	0.00051	0.00036	6
26706	0.00015	0	1e-05	-0.00037	-0.00034	0.00077	4e-05	0.00019	6
26707	0.00015	0	1e-05	-0.00037	-0.00034	0.00077	4e-05	0.00019	6
26708	0.00015	0	1e-05	-0.00037	-0.00034	0.00077	4e-05	0.00019	6
26709	0.00015	0	1e-05	-0.00037	-0.00034	0.00077	4e-05	0.00019	6
26710	0.00015	0	1e-05	-0.00037	-0.00034	0.00077	4e-05	0.00019	6
26711	0.00015	0	1e-05	-0.00037	-0.00034	0.00077	4e-05	0.00019	6
26712	0.00015	0	1e-05	-0.00037	-0.00034	0.00077	4e-05	0.00019	6
26713	0.00015	0	1e-05	-0.00037	-0.00034	0.00077	4e-05	0.00019	6
26714	0.00015	0	1e-05	-0.00037	-0.00034	0.00077	4e-05	0.00019	6
26715	0.00015	0	1e-05	-0.00037	-0.00034	0.00077	4e-05	0.00019	6
26716	0.00015	0	1e-05	-0.00037	-0.00034	0.00077	4e-05	0.00019	6
26717	0.00015	0	1e-05	-0.00037	-0.00034	0.00077	4e-05	0.00019	6
26718	0.00015	0	1e-05	-0.00037	-0.00034	0.00077	4e-05	0.00019	6
26719	0.00015	0	1e-05	-0.00037	-0.00034	0.00077	4e-05	0.00019	6
26720	0.00015	0	1e-05	-0.00037	-0.00034	0.00077	4e-05	0.00019	6
26721	0.00015	0	1e-05	-0.00037	-0.00034	0.00077	4e-05	0.00019	6
26722	0.00015	0	1e-05	-0.00037	-0.00034	0.00077	4e-05	0.00019	6
26723	0.00017	1e-05	-6e-05	-7e-05	-0.00068	-0.00098	-0.00021	-0.00011	6
26725	-0.00087	-8e-05	-3e-05	0.00022	0.00112	0.00038	0.00028	-5e-05	6
26726	-0.00087	-8e-05	-3e-05	0.00022	0.00112	0.00038	0.00028	-5e-05	6
26727	-0.00087	-8e-05	-3e-05	0.00022	0.00112	0.00038	0.00028	-5e-05	6
26728	-0.00087	-8e-05	-3e-05	0.00022	0.00112	0.00038	0.00028	-5e-05	6
26729	-0.00087	-8e-05	-3e-05	0.00022	0.00112	0.00038	0.00028	-5e-05	6
26730	-0.00087	-8e-05	-3e-05	0.00022	0.00112	0.00038	0.00028	-5e-05	6
26731	-0.00087	-8e-05	-3e-05	0.00022	0.00112	0.00038	0.00028	-5e-05	6
26732	-0.00087	-8e-05	-3e-05	0.00022	0.00112	0.00038	0.00028	-5e-05	6
26733	-0.00087	-8e-05	-3e-05	0.00022	0.00112	0.00038	0.00028	-5e-05	6
26734	-0.00087	-8e-05	-3e-05	0.00022	0.00112	0.00038	0.00028	-5e-05	6
26735	-0.00087	-8e-05	-3e-05	0.00022	0.00112	0.00038	0.00028	-5e-05	6
26737	-0.00087	-8e-05	-3e-05	0.00022	0.00112	0.00038	0.00028	-5e-05	6
26739	-0.00087	-8e-05	-3e-05	0.00022	0.00112	0.00038	0.00028	-5e-05	6
26740	-0.00087	-8e-05	-3e-05	0.00022	0.00112	0.00038	0.00028	-5e-05	6
26741	-0.00087	-8e-05	-3e-05	0.00022	0.00112	0.00038	0.00028	-5e-05	6
26742	-0.00087	-8e-05	-3e-05	0.00022	0.00112	0.00038	0.00028	-5e-05	6
26743	-0.00087	-8e-05	-3e-05	0.00022	0.00112	0.00038	0.00028	-5e-05	6
26744	-0.00087	-8e-05	-3e-05	0.00022	0.00112	0.00038	0.00028	-5e-05	6
26745	-0.00087	-8e-05	-3e-05	0.00022	0.00112	0.00038	0.00028	-5e-05	6
26746	0.00029	0	7e-05	3e-05	0.00012	-0.00028	-1e-05	1e-05	6
26747	-0.00057	-0.00011	-0.00012	-0.00013	-0.00038	0.00045	-0.00018	-0.00011	6
26748	-0.00057	-0.00011	-0.00012	-0.00013	-0.00038	0.00045	-0.00018	-0.00011	6
26749	-0.00057	-0.00011	-0.00012	-0.00013	-0.00038	0.00045	-0.00018	-0.00011	6
26750	-0.00057	-0.00011	-0.00012	-0.00013	-0.00038	0.00045	-0.00018	-0.00011	6
26751	-0.00057	-0.00011	-0.00012	-0.00013	-0.00038	0.00045	-0.00018	-0.00011	6
26752	-0.00057	-0.00011	-0.00012	-0.00013	-0.00038	0.00045	-0.00018	-0.00011	6
26753	-0.00057	-0.00011	-0.00012	-0.00013	-0.00038	0.00045	-0.00018	-0.00011	6
26754	-0.00057	-0.00011	-0.00012	-0.00013	-0.00038	0.00045	-0.00018	-0.00011	6
26755	-0.00057	-0.00011	-0.00012	-0.00013	-0.00038	0.00045	-0.00018	-0.00011	6
26756	-0.00057	-0.00011	-0.00012	-0.00013	-0.00038	0.00045	-0.00018	-0.00011	6
26757	-0.00057	-0.00011	-0.00012	-0.00013	-0.00038	0.00045	-0.00018	-0.00011	6
26758	-0.00057	-0.00011	-0.00012	-0.00013	-0.00038	0.00045	-0.00018	-0.00011	6
26759	0.00044	2e-05	1e-05	8e-05	0.0004	0.00127	0.0003	-6e-05	6
26760	-0.00128	-6e-05	-5e-05	-6e-05	-0.00018	-0.00058	-0.00018	0.00016	6
26761	-0.00128	-6e-05	-5e-05	-6e-05	-0.00018	-0.00058	-0.00018	0.00016	6
26762	-0.00128	-6e-05	-5e-05	-6e-05	-0.00018	-0.00058	-0.00018	0.00016	6
26763	-0.00128	-6e-05	-5e-05	-6e-05	-0.00018	-0.00058	-0.00018	0.00016	6
26764	-0.00128	-6e-05	-5e-05	-6e-05	-0.00018	-0.00058	-0.00018	0.00016	6
26765	-0.00128	-6e-05	-5e-05	-6e-05	-0.00018	-0.00058	-0.00018	0.00016	6
26766	-1e-05	2e-05	-3e-05	0	-0.00034	-0.00022	8e-05	-4e-05	6
26767	-1e-05	2e-05	-3e-05	0	-0.00034	-0.00022	8e-05	-4e-05	6
26768	-1e-05	2e-05	-3e-05	0	-0.00034	-0.00022	8e-05	-4e-05	6
26769	-1e-05	2e-05	-3e-05	0	-0.00034	-0.00022	8e-05	-4e-05	6
26770	-1e-05	2e-05	-3e-05	0	-0.00034	-0.00022	8e-05	-4e-05	6
26771	-1e-05	2e-05	-3e-05	0	-0.00034	-0.00022	8e-05	-4e-05	6
26772	-1e-05	2e-05	-3e-05	0	-0.00034	-0.00022	8e-05	-4e-05	6
26773	-1e-05	2e-05	-3e-05	0	-0.00034	-0.00022	8e-05	-4e-05	6
26774	-1e-05	2e-05	-3e-05	0	-0.00034	-0.00022	8e-05	-4e-05	6
26775	-1e-05	2e-05	-3e-05	0	-0.00034	-0.00022	8e-05	-4e-05	6
26776	-1e-05	2e-05	-3e-05	0	-0.00034	-0.00022	8e-05	-4e-05	6
26777	-1e-05	2e-05	-3e-05	0	-0.00034	-0.00022	8e-05	-4e-05	6
26778	-1e-05	2e-05	-3e-05	0	-0.00034	-0.00022	8e-05	-4e-05	6
26779	-1e-05	2e-05	-3e-05	0	-0.00034	-0.00022	8e-05	-4e-05	6
26780	-1e-05	2e-05	-3e-05	0	-0.00034	-0.00022	8e-05	-4e-05	6
26781	-1e-05	2e-05	-3e-05	0	-0.00034	-0.00022	8e-05	-4e-05	6
26782	-1e-05	2e-05	-3e-05	0	-0.00034	-0.00022	8e-05	-4e-05	6
26783	0.00036	0	-0.0001	-0.00021	-0.00095	0.00035	-0.0003	9e-05	6
26784	-0.0003	-2e-05	-4e-05	-0.00011	-0.0003	-0.0006	-0.00039	-0.00043	6
26785	-0.0003	-2e-05	-4e-05	-0.00011	-0.0003	-0.0006	-0.00039	-0.00043	6
26787	-0.0003	-2e-05	-4e-05	-0.00011	-0.0003	-0.0006	-0.00039	-0.00043	6
26789	-0.0003	-2e-05	-4e-05	-0.00011	-0.0003	-0.0006	-0.00039	-0.00043	6
26790	-0.0003	-2e-05	-4e-05	-0.00011	-0.0003	-0.0006	-0.00039	-0.00043	6
26791	-0.0003	-2e-05	-4e-05	-0.00011	-0.0003	-0.0006	-0.00039	-0.00043	6
26792	-0.0003	-2e-05	-4e-05	-0.00011	-0.0003	-0.0006	-0.00039	-0.00043	6
26793	-0.0003	-2e-05	-4e-05	-0.00011	-0.0003	-0.0006	-0.00039	-0.00043	6
26794	-0.0003	-2e-05	-4e-05	-0.00011	-0.0003	-0.0006	-0.00039	-0.00043	6
26795	-0.0003	-2e-05	-4e-05	-0.00011	-0.0003	-0.0006	-0.00039	-0.00043	6
26796	-0.0003	-2e-05	-4e-05	-0.00011	-0.0003	-0.0006	-0.00039	-0.00043	6
26797	-0.0003	-2e-05	-4e-05	-0.00011	-0.0003	-0.0006	-0.00039	-0.00043	6
26798	-0.0003	-2e-05	-4e-05	-0.00011	-0.0003	-0.0006	-0.00039	-0.00043	6
26799	-0.0003	-2e-05	-4e-05	-0.00011	-0.0003	-0.0006	-0.00039	-0.00043	6
26800	-0.0003	-2e-05	-4e-05	-0.00011	-0.0003	-0.0006	-0.00039	-0.00043	6
26801	-0.0003	-2e-05	-4e-05	-0.00011	-0.0003	-0.0006	-0.00039	-0.00043	6
26802	-0.0003	-2e-05	-4e-05	-0.00011	-0.0003	-0.0006	-0.00039	-0.00043	6
26803	-0.0003	-2e-05	-4e-05	-0.00011	-0.0003	-0.0006	-0.00039	-0.00043	6
26804	-0.0003	-2e-05	-4e-05	-0.00011	-0.0003	-0.0006	-0.00039	-0.00043	6
26805	0	2e-05	0	4e-05	0.00079	-0.00032	0.00011	-0.00029	6
26806	0	2e-05	0	4e-05	0.00079	-0.00032	0.00011	-0.00029	6
26807	0.00035	1e-05	2e-05	-4e-05	-0.00018	-0.00027	-0.0001	0.00012	6
26808	0.00035	1e-05	2e-05	-4e-05	-0.00018	-0.00027	-0.0001	0.00012	6
26809	0.00035	1e-05	2e-05	-4e-05	-0.00018	-0.00027	-0.0001	0.00012	6
26810	0.00035	1e-05	2e-05	-4e-05	-0.00018	-0.00027	-0.0001	0.00012	6
26811	0.00035	1e-05	2e-05	-4e-05	-0.00018	-0.00027	-0.0001	0.00012	6
26812	0.00035	1e-05	2e-05	-4e-05	-0.00018	-0.00027	-0.0001	0.00012	6
26813	0.00035	1e-05	2e-05	-4e-05	-0.00018	-0.00027	-0.0001	0.00012	6
26814	0.00035	1e-05	2e-05	-4e-05	-0.00018	-0.00027	-0.0001	0.00012	6
26815	0.00035	1e-05	2e-05	-4e-05	-0.00018	-0.00027	-0.0001	0.00012	6
26816	0.00035	1e-05	2e-05	-4e-05	-0.00018	-0.00027	-0.0001	0.00012	6
26817	0.00035	1e-05	2e-05	-4e-05	-0.00018	-0.00027	-0.0001	0.00012	6
26818	0.00035	1e-05	2e-05	-4e-05	-0.00018	-0.00027	-0.0001	0.00012	6
26819	5e-05	3e-05	-3e-05	-0.0001	-0.00042	-0.00018	0.00013	0.00014	6
26820	-0.00054	-7e-05	2e-05	4e-05	0.00089	0.00059	1e-05	-0.00023	6
26821	-0.00054	-7e-05	2e-05	4e-05	0.00089	0.00059	1e-05	-0.00023	6
26822	-0.00054	-7e-05	2e-05	4e-05	0.00089	0.00059	1e-05	-0.00023	6
26823	-0.00054	-7e-05	2e-05	4e-05	0.00089	0.00059	1e-05	-0.00023	6
26824	-0.00054	-7e-05	2e-05	4e-05	0.00089	0.00059	1e-05	-0.00023	6
26825	-0.00054	-7e-05	2e-05	4e-05	0.00089	0.00059	1e-05	-0.00023	6
26826	0.00021	1e-05	3e-05	0.00023	0.00054	-0.0002	-8e-05	-0.00012	6
26827	0.00021	1e-05	3e-05	0.00023	0.00054	-0.0002	-8e-05	-0.00012	6
26828	0.00021	1e-05	3e-05	0.00023	0.00054	-0.0002	-8e-05	-0.00012	6
26829	0.00021	1e-05	3e-05	0.00023	0.00054	-0.0002	-8e-05	-0.00012	6
26830	0.00021	1e-05	3e-05	0.00023	0.00054	-0.0002	-8e-05	-0.00012	6
26831	0.00021	1e-05	3e-05	0.00023	0.00054	-0.0002	-8e-05	-0.00012	6
26832	0.00021	1e-05	3e-05	0.00023	0.00054	-0.0002	-8e-05	-0.00012	6
26833	0.00021	1e-05	3e-05	0.00023	0.00054	-0.0002	-8e-05	-0.00012	6
26834	0.00021	1e-05	3e-05	0.00023	0.00054	-0.0002	-8e-05	-0.00012	6
26835	0.00021	1e-05	3e-05	0.00023	0.00054	-0.0002	-8e-05	-0.00012	6
26837	0.00021	1e-05	3e-05	0.00023	0.00054	-0.0002	-8e-05	-0.00012	6
26839	0.00021	1e-05	3e-05	0.00023	0.00054	-0.0002	-8e-05	-0.00012	6
26840	0.00021	1e-05	3e-05	0.00023	0.00054	-0.0002	-8e-05	-0.00012	6
26841	0.00021	1e-05	3e-05	0.00023	0.00054	-0.0002	-8e-05	-0.00012	6
26842	0.00021	1e-05	3e-05	0.00023	0.00054	-0.0002	-8e-05	-0.00012	6
26843	7e-05	-1e-05	-4e-05	-0.00017	-0.00028	0.0008	8e-05	0.00029	6
26844	0.00014	5e-05	8e-05	0.00027	0.00071	0.00072	-0.00062	-8e-05	6
26845	-0.00026	3e-05	2e-05	-6e-05	-0.00015	-0.00017	-0.00015	-0.00035	6
26846	-0.00026	3e-05	2e-05	-6e-05	-0.00015	-0.00017	-0.00015	-0.00035	6
26847	-0.00026	3e-05	2e-05	-6e-05	-0.00015	-0.00017	-0.00015	-0.00035	6
26848	-0.00026	3e-05	2e-05	-6e-05	-0.00015	-0.00017	-0.00015	-0.00035	6
26849	-0.00026	3e-05	2e-05	-6e-05	-0.00015	-0.00017	-0.00015	-0.00035	6
26850	-0.00026	3e-05	2e-05	-6e-05	-0.00015	-0.00017	-0.00015	-0.00035	6
26851	-0.00026	3e-05	2e-05	-6e-05	-0.00015	-0.00017	-0.00015	-0.00035	6
26852	-0.00026	3e-05	2e-05	-6e-05	-0.00015	-0.00017	-0.00015	-0.00035	6
26853	-0.00026	3e-05	2e-05	-6e-05	-0.00015	-0.00017	-0.00015	-0.00035	6
26854	-0.00026	3e-05	2e-05	-6e-05	-0.00015	-0.00017	-0.00015	-0.00035	6
26855	-0.00026	3e-05	2e-05	-6e-05	-0.00015	-0.00017	-0.00015	-0.00035	6
26856	-0.00026	3e-05	2e-05	-6e-05	-0.00015	-0.00017	-0.00015	-0.00035	6
26857	-0.00026	3e-05	2e-05	-6e-05	-0.00015	-0.00017	-0.00015	-0.00035	6
26858	-0.00026	3e-05	2e-05	-6e-05	-0.00015	-0.00017	-0.00015	-0.00035	6
26859	-0.00026	3e-05	2e-05	-6e-05	-0.00015	-0.00017	-0.00015	-0.00035	6
26860	-0.00026	3e-05	2e-05	-6e-05	-0.00015	-0.00017	-0.00015	-0.00035	6
26861	-0.00026	3e-05	2e-05	-6e-05	-0.00015	-0.00017	-0.00015	-0.00035	6
26862	-0.00026	3e-05	2e-05	-6e-05	-0.00015	-0.00017	-0.00015	-0.00035	6
26863	-0.00026	3e-05	2e-05	-6e-05	-0.00015	-0.00017	-0.00015	-0.00035	6
26864	-0.00026	3e-05	2e-05	-6e-05	-0.00015	-0.00017	-0.00015	-0.00035	6
26865	0.00037	0	-4e-05	-1e-05	-9e-05	-0.00042	-0.00011	-2e-05	6
26866	0.00037	0	-4e-05	-1e-05	-9e-05	-0.00042	-0.00011	-2e-05	6
26867	-0.00074	-0.00012	-6e-05	-8e-05	0.00016	-0.00023	-0.00031	-3e-05	6
26868	-0.00074	-0.00012	-6e-05	-8e-05	0.00016	-0.00023	-0.00031	-3e-05	6
26869	-0.00074	-0.00012	-6e-05	-8e-05	0.00016	-0.00023	-0.00031	-3e-05	6
26870	-0.00074	-0.00012	-6e-05	-8e-05	0.00016	-0.00023	-0.00031	-3e-05	6
26871	-0.00074	-0.00012	-6e-05	-8e-05	0.00016	-0.00023	-0.00031	-3e-05	6
26872	-0.00074	-0.00012	-6e-05	-8e-05	0.00016	-0.00023	-0.00031	-3e-05	6
26873	-0.00074	-0.00012	-6e-05	-8e-05	0.00016	-0.00023	-0.00031	-3e-05	6
26874	-0.00074	-0.00012	-6e-05	-8e-05	0.00016	-0.00023	-0.00031	-3e-05	6
26875	-0.00074	-0.00012	-6e-05	-8e-05	0.00016	-0.00023	-0.00031	-3e-05	6
26876	-0.00074	-0.00012	-6e-05	-8e-05	0.00016	-0.00023	-0.00031	-3e-05	6
26877	-0.00074	-0.00012	-6e-05	-8e-05	0.00016	-0.00023	-0.00031	-3e-05	6
26878	-0.00074	-0.00012	-6e-05	-8e-05	0.00016	-0.00023	-0.00031	-3e-05	6
26879	0.00021	0.00012	7e-05	0.00019	0.00016	0.00042	0.0002	8e-05	6
26880	0.00058	-2e-05	7e-05	3e-05	-0.00053	-0.00012	-0.00047	-0.00022	6
26881	0.00058	-2e-05	7e-05	3e-05	-0.00053	-0.00012	-0.00047	-0.00022	6
26882	0.00058	-2e-05	7e-05	3e-05	-0.00053	-0.00012	-0.00047	-0.00022	6
26883	0.00058	-2e-05	7e-05	3e-05	-0.00053	-0.00012	-0.00047	-0.00022	6
26884	0.00058	-2e-05	7e-05	3e-05	-0.00053	-0.00012	-0.00047	-0.00022	6
26885	0.00058	-2e-05	7e-05	3e-05	-0.00053	-0.00012	-0.00047	-0.00022	6
26887	0.0004	3e-05	-7e-05	-0.00014	-0.00037	0.0005	-0.00017	-5e-05	6
26889	0.0004	3e-05	-7e-05	-0.00014	-0.00037	0.0005	-0.00017	-5e-05	6
26890	0.0004	3e-05	-7e-05	-0.00014	-0.00037	0.0005	-0.00017	-5e-05	6
26891	0.0004	3e-05	-7e-05	-0.00014	-0.00037	0.0005	-0.00017	-5e-05	6
26892	0.0004	3e-05	-7e-05	-0.00014	-0.00037	0.0005	-0.00017	-5e-05	6
26893	0.0004	3e-05	-7e-05	-0.00014	-0.00037	0.0005	-0.00017	-5e-05	6
26894	0.0004	3e-05	-7e-05	-0.00014	-0.00037	0.0005	-0.00017	-5e-05	6
26895	0.0004	3e-05	-7e-05	-0.00014	-0.00037	0.0005	-0.00017	-5e-05	6
26896	0.0004	3e-05	-7e-05	-0.00014	-0.00037	0.0005	-0.00017	-5e-05	6
26897	0.0004	3e-05	-7e-05	-0.00014	-0.00037	0.0005	-0.00017	-5e-05	6
26898	0.0004	3e-05	-7e-05	-0.00014	-0.00037	0.0005	-0.00017	-5e-05	6
26899	0.0004	3e-05	-7e-05	-0.00014	-0.00037	0.0005	-0.00017	-5e-05	6
26900	0.0004	3e-05	-7e-05	-0.00014	-0.00037	0.0005	-0.00017	-5e-05	6
26901	0.0004	3e-05	-7e-05	-0.00014	-0.00037	0.0005	-0.00017	-5e-05	6
26902	0.0004	3e-05	-7e-05	-0.00014	-0.00037	0.0005	-0.00017	-5e-05	6
26903	0.00036	-1e-05	-3e-05	5e-05	0.00034	0.00035	8e-05	3e-05	6
26904	0.00035	4e-05	2e-05	0.00012	0.00015	0.00058	0.00011	9e-05	6
26905	-2e-05	-2e-05	2e-05	-0.00022	-0.00101	-0.0003	-0.00028	0.0003	6
26906	-2e-05	-2e-05	2e-05	-0.00022	-0.00101	-0.0003	-0.00028	0.0003	6
26907	-2e-05	-2e-05	2e-05	-0.00022	-0.00101	-0.0003	-0.00028	0.0003	6
26908	-2e-05	-2e-05	2e-05	-0.00022	-0.00101	-0.0003	-0.00028	0.0003	6
26909	-2e-05	-2e-05	2e-05	-0.00022	-0.00101	-0.0003	-0.00028	0.0003	6
26910	-2e-05	-2e-05	2e-05	-0.00022	-0.00101	-0.0003	-0.00028	0.0003	6
26911	-2e-05	-2e-05	2e-05	-0.00022	-0.00101	-0.0003	-0.00028	0.0003	6
26912	-2e-05	-2e-05	2e-05	-0.00022	-0.00101	-0.0003	-0.00028	0.0003	6
26913	-2e-05	-2e-05	2e-05	-0.00022	-0.00101	-0.0003	-0.00028	0.0003	6
26914	-2e-05	-2e-05	2e-05	-0.00022	-0.00101	-0.0003	-0.00028	0.0003	6
26915	-2e-05	-2e-05	2e-05	-0.00022	-0.00101	-0.0003	-0.00028	0.0003	6
26916	-2e-05	-2e-05	2e-05	-0.00022	-0.00101	-0.0003	-0.00028	0.0003	6
26917	-2e-05	-2e-05	2e-05	-0.00022	-0.00101	-0.0003	-0.00028	0.0003	6
26918	-2e-05	-2e-05	2e-05	-0.00022	-0.00101	-0.0003	-0.00028	0.0003	6
26919	-2e-05	-2e-05	2e-05	-0.00022	-0.00101	-0.0003	-0.00028	0.0003	6
26920	-2e-05	-2e-05	2e-05	-0.00022	-0.00101	-0.0003	-0.00028	0.0003	6
26921	-2e-05	-2e-05	2e-05	-0.00022	-0.00101	-0.0003	-0.00028	0.0003	6
26922	-2e-05	-2e-05	2e-05	-0.00022	-0.00101	-0.0003	-0.00028	0.0003	6
26923	-2e-05	-2e-05	2e-05	-0.00022	-0.00101	-0.0003	-0.00028	0.0003	6
26924	-2e-05	-2e-05	2e-05	-0.00022	-0.00101	-0.0003	-0.00028	0.0003	6
26925	8e-05	5e-05	-2e-05	-4e-05	-0.00014	-0.00014	0.00015	-5e-05	6
26926	8e-05	5e-05	-2e-05	-4e-05	-0.00014	-0.00014	0.00015	-5e-05	6
26927	-0.00051	-7e-05	-3e-05	0.00016	0.00088	0.00029	0.00041	0.00015	6
26928	-0.00051	-7e-05	-3e-05	0.00016	0.00088	0.00029	0.00041	0.00015	6
26929	-0.00051	-7e-05	-3e-05	0.00016	0.00088	0.00029	0.00041	0.00015	6
26930	-0.00051	-7e-05	-3e-05	0.00016	0.00088	0.00029	0.00041	0.00015	6
26931	-0.00051	-7e-05	-3e-05	0.00016	0.00088	0.00029	0.00041	0.00015	6
26932	-0.00051	-7e-05	-3e-05	0.00016	0.00088	0.00029	0.00041	0.00015	6
26933	-0.00051	-7e-05	-3e-05	0.00016	0.00088	0.00029	0.00041	0.00015	6
26934	-0.00051	-7e-05	-3e-05	0.00016	0.00088	0.00029	0.00041	0.00015	6
26935	-0.00051	-7e-05	-3e-05	0.00016	0.00088	0.00029	0.00041	0.00015	6
26937	-0.00051	-7e-05	-3e-05	0.00016	0.00088	0.00029	0.00041	0.00015	6
26939	-7e-05	-4e-05	-5e-05	-0.00021	-0.00106	-2e-05	-0.00027	6e-05	6
26940	-7e-05	-4e-05	-5e-05	-0.00021	-0.00106	-2e-05	-0.00027	6e-05	6
26941	-7e-05	-4e-05	-5e-05	-0.00021	-0.00106	-2e-05	-0.00027	6e-05	6
26942	-7e-05	-4e-05	-5e-05	-0.00021	-0.00106	-2e-05	-0.00027	6e-05	6
26943	-7e-05	-4e-05	-5e-05	-0.00021	-0.00106	-2e-05	-0.00027	6e-05	6
26944	-7e-05	-4e-05	-5e-05	-0.00021	-0.00106	-2e-05	-0.00027	6e-05	6
26945	-7e-05	-4e-05	-5e-05	-0.00021	-0.00106	-2e-05	-0.00027	6e-05	6
26946	-7e-05	-4e-05	-5e-05	-0.00021	-0.00106	-2e-05	-0.00027	6e-05	6
26947	-7e-05	-4e-05	-5e-05	-0.00021	-0.00106	-2e-05	-0.00027	6e-05	6
26948	0.00031	6e-05	2e-05	4e-05	-0.00013	0.00063	-0.00014	0.00018	6
26949	0.00031	6e-05	2e-05	4e-05	-0.00013	0.00063	-0.00014	0.00018	6
26950	0.00031	6e-05	2e-05	4e-05	-0.00013	0.00063	-0.00014	0.00018	6
26951	0.00031	6e-05	2e-05	4e-05	-0.00013	0.00063	-0.00014	0.00018	6
26952	0.00031	6e-05	2e-05	4e-05	-0.00013	0.00063	-0.00014	0.00018	6
26953	0.00031	6e-05	2e-05	4e-05	-0.00013	0.00063	-0.00014	0.00018	6
26954	0.00031	6e-05	2e-05	4e-05	-0.00013	0.00063	-0.00014	0.00018	6
26955	0.00031	6e-05	2e-05	4e-05	-0.00013	0.00063	-0.00014	0.00018	6
26956	0.00031	6e-05	2e-05	4e-05	-0.00013	0.00063	-0.00014	0.00018	6
26957	0.00031	6e-05	2e-05	4e-05	-0.00013	0.00063	-0.00014	0.00018	6
26958	0.00031	6e-05	2e-05	4e-05	-0.00013	0.00063	-0.00014	0.00018	6
26959	0.00031	6e-05	2e-05	4e-05	-0.00013	0.00063	-0.00014	0.00018	6
26960	0.00031	6e-05	2e-05	4e-05	-0.00013	0.00063	-0.00014	0.00018	6
26961	0.00031	6e-05	2e-05	4e-05	-0.00013	0.00063	-0.00014	0.00018	6
26962	0.00031	6e-05	2e-05	4e-05	-0.00013	0.00063	-0.00014	0.00018	6
26963	-0.00071	-7e-05	-6e-05	-2e-05	0.00012	-0.00102	0.00035	0.00031	6
26964	0.00039	1e-05	2e-05	0.00015	7e-05	-0.00026	2e-05	-0.00017	6
26965	0.00039	1e-05	2e-05	0.00015	7e-05	-0.00026	2e-05	-0.00017	6
26966	0.00039	1e-05	2e-05	0.00015	7e-05	-0.00026	2e-05	-0.00017	6
26967	0.00039	1e-05	2e-05	0.00015	7e-05	-0.00026	2e-05	-0.00017	6
26968	0.00039	1e-05	2e-05	0.00015	7e-05	-0.00026	2e-05	-0.00017	6
26969	0.00039	1e-05	2e-05	0.00015	7e-05	-0.00026	2e-05	-0.00017	6
26970	0.00039	1e-05	2e-05	0.00015	7e-05	-0.00026	2e-05	-0.00017	6
26971	0.00039	1e-05	2e-05	0.00015	7e-05	-0.00026	2e-05	-0.00017	6
26972	0.00039	1e-05	2e-05	0.00015	7e-05	-0.00026	2e-05	-0.00017	6
26973	0.00039	1e-05	2e-05	0.00015	7e-05	-0.00026	2e-05	-0.00017	6
26974	0.00039	1e-05	2e-05	0.00015	7e-05	-0.00026	2e-05	-0.00017	6
26975	0.00039	1e-05	2e-05	0.00015	7e-05	-0.00026	2e-05	-0.00017	6
26976	0.00039	1e-05	2e-05	0.00015	7e-05	-0.00026	2e-05	-0.00017	6
26977	0.00039	1e-05	2e-05	0.00015	7e-05	-0.00026	2e-05	-0.00017	6
26978	0.00039	1e-05	2e-05	0.00015	7e-05	-0.00026	2e-05	-0.00017	6
26979	0.00039	1e-05	2e-05	0.00015	7e-05	-0.00026	2e-05	-0.00017	6
26980	0.00039	1e-05	2e-05	0.00015	7e-05	-0.00026	2e-05	-0.00017	6
26981	0.00039	1e-05	2e-05	0.00015	7e-05	-0.00026	2e-05	-0.00017	6
26982	0.00039	1e-05	2e-05	0.00015	7e-05	-0.00026	2e-05	-0.00017	6
26983	0.00039	1e-05	2e-05	0.00015	7e-05	-0.00026	2e-05	-0.00017	6
26984	0.00039	1e-05	2e-05	0.00015	7e-05	-0.00026	2e-05	-0.00017	6
26985	0.00057	5e-05	1e-05	8e-05	0.00066	0.0006	0.00019	0.0002	6
26987	-0.00048	-0.0002	-2e-05	-0.00012	0.00011	-0.00076	5e-05	0.00013	6
26989	-0.00048	-0.0002	-2e-05	-0.00012	0.00011	-0.00076	5e-05	0.00013	6
26990	-0.00048	-0.0002	-2e-05	-0.00012	0.00011	-0.00076	5e-05	0.00013	6
26991	-0.00048	-0.0002	-2e-05	-0.00012	0.00011	-0.00076	5e-05	0.00013	6
26992	-0.00048	-0.0002	-2e-05	-0.00012	0.00011	-0.00076	5e-05	0.00013	6
26993	-0.00048	-0.0002	-2e-05	-0.00012	0.00011	-0.00076	5e-05	0.00013	6
26994	-0.00048	-0.0002	-2e-05	-0.00012	0.00011	-0.00076	5e-05	0.00013	6
26995	-0.00048	-0.0002	-2e-05	-0.00012	0.00011	-0.00076	5e-05	0.00013	6
26996	-0.00048	-0.0002	-2e-05	-0.00012	0.00011	-0.00076	5e-05	0.00013	6
26997	-0.00048	-0.0002	-2e-05	-0.00012	0.00011	-0.00076	5e-05	0.00013	6
26998	-0.00048	-0.0002	-2e-05	-0.00012	0.00011	-0.00076	5e-05	0.00013	6
26999	8e-05	5e-05	2e-05	-8e-05	-8e-05	-0.00057	-1e-05	-0.00014	6
27000	8e-05	5e-05	2e-05	-8e-05	-8e-05	-0.00057	-1e-05	-0.00014	6
27001	8e-05	5e-05	2e-05	-8e-05	-8e-05	-0.00057	-1e-05	-0.00014	6
27002	8e-05	5e-05	2e-05	-8e-05	-8e-05	-0.00057	-1e-05	-0.00014	6
27003	8e-05	5e-05	2e-05	-8e-05	-8e-05	-0.00057	-1e-05	-0.00014	6
27004	8e-05	5e-05	2e-05	-8e-05	-8e-05	-0.00057	-1e-05	-0.00014	6
27005	8e-05	5e-05	2e-05	-8e-05	-8e-05	-0.00057	-1e-05	-0.00014	6
27006	8e-05	5e-05	2e-05	-8e-05	-8e-05	-0.00057	-1e-05	-0.00014	6
27007	8e-05	5e-05	2e-05	-8e-05	-8e-05	-0.00057	-1e-05	-0.00014	6
27008	0.00036	8e-05	5e-05	4e-05	-0.00033	0.00029	0.00016	0.00017	6
27009	0.00036	8e-05	5e-05	4e-05	-0.00033	0.00029	0.00016	0.00017	6
27010	0.00036	8e-05	5e-05	4e-05	-0.00033	0.00029	0.00016	0.00017	6
27011	0.00036	8e-05	5e-05	4e-05	-0.00033	0.00029	0.00016	0.00017	6
27012	0.00036	8e-05	5e-05	4e-05	-0.00033	0.00029	0.00016	0.00017	6
27013	0.00036	8e-05	5e-05	4e-05	-0.00033	0.00029	0.00016	0.00017	6
27014	0.00036	8e-05	5e-05	4e-05	-0.00033	0.00029	0.00016	0.00017	6
27015	0.00036	8e-05	5e-05	4e-05	-0.00033	0.00029	0.00016	0.00017	6
27016	0.00036	8e-05	5e-05	4e-05	-0.00033	0.00029	0.00016	0.00017	6
27017	0.00036	8e-05	5e-05	4e-05	-0.00033	0.00029	0.00016	0.00017	6
27018	0.00036	8e-05	5e-05	4e-05	-0.00033	0.00029	0.00016	0.00017	6
27019	0.00036	8e-05	5e-05	4e-05	-0.00033	0.00029	0.00016	0.00017	6
27020	0.00036	8e-05	5e-05	4e-05	-0.00033	0.00029	0.00016	0.00017	6
27021	0.00036	8e-05	5e-05	4e-05	-0.00033	0.00029	0.00016	0.00017	6
27022	0.00036	8e-05	5e-05	4e-05	-0.00033	0.00029	0.00016	0.00017	6
27023	-0.00024	-0.0001	-1e-05	0.00015	-4e-05	0.0004	-6e-05	1e-05	6
27024	0.00038	5e-05	-4e-05	-7e-05	-0.00048	-0.00055	2e-05	-7e-05	6
27025	0.00038	5e-05	-4e-05	-7e-05	-0.00048	-0.00055	2e-05	-7e-05	6
27026	0.00038	5e-05	-4e-05	-7e-05	-0.00048	-0.00055	2e-05	-7e-05	6
27027	0.00038	5e-05	-4e-05	-7e-05	-0.00048	-0.00055	2e-05	-7e-05	6
27028	0.00038	5e-05	-4e-05	-7e-05	-0.00048	-0.00055	2e-05	-7e-05	6
27029	0.00038	5e-05	-4e-05	-7e-05	-0.00048	-0.00055	2e-05	-7e-05	6
27030	0.00038	5e-05	-4e-05	-7e-05	-0.00048	-0.00055	2e-05	-7e-05	6
27031	0.00038	5e-05	-4e-05	-7e-05	-0.00048	-0.00055	2e-05	-7e-05	6
27032	0.00038	5e-05	-4e-05	-7e-05	-0.00048	-0.00055	2e-05	-7e-05	6
27033	0.00038	5e-05	-4e-05	-7e-05	-0.00048	-0.00055	2e-05	-7e-05	6
27034	0.00038	5e-05	-4e-05	-7e-05	-0.00048	-0.00055	2e-05	-7e-05	6
27035	0.00038	5e-05	-4e-05	-7e-05	-0.00048	-0.00055	2e-05	-7e-05	6
27037	0.00038	5e-05	-4e-05	-7e-05	-0.00048	-0.00055	2e-05	-7e-05	6
27039	0.00038	5e-05	-4e-05	-7e-05	-0.00048	-0.00055	2e-05	-7e-05	6
27040	0.00038	5e-05	-4e-05	-7e-05	-0.00048	-0.00055	2e-05	-7e-05	6
27041	0.00038	5e-05	-4e-05	-7e-05	-0.00048	-0.00055	2e-05	-7e-05	6
27042	0.00038	5e-05	-4e-05	-7e-05	-0.00048	-0.00055	2e-05	-7e-05	6
27043	0.00038	5e-05	-4e-05	-7e-05	-0.00048	-0.00055	2e-05	-7e-05	6
27044	0.00038	5e-05	-4e-05	-7e-05	-0.00048	-0.00055	2e-05	-7e-05	6
27045	0.00038	5e-05	-4e-05	-7e-05	-0.00048	-0.00055	2e-05	-7e-05	6
27046	0.00038	5e-05	-4e-05	-7e-05	-0.00048	-0.00055	2e-05	-7e-05	6
27047	0.00093	4e-05	2e-05	5e-05	0.0005	-0.00052	-7e-05	-0.00018	6
27048	0.00093	4e-05	2e-05	5e-05	0.0005	-0.00052	-7e-05	-0.00018	6
27049	0.00093	4e-05	2e-05	5e-05	0.0005	-0.00052	-7e-05	-0.00018	6
27050	0.00093	4e-05	2e-05	5e-05	0.0005	-0.00052	-7e-05	-0.00018	6
27051	0.00093	4e-05	2e-05	5e-05	0.0005	-0.00052	-7e-05	-0.00018	6
27052	0.00093	4e-05	2e-05	5e-05	0.0005	-0.00052	-7e-05	-0.00018	6
27053	0.00093	4e-05	2e-05	5e-05	0.0005	-0.00052	-7e-05	-0.00018	6
27054	0.00093	4e-05	2e-05	5e-05	0.0005	-0.00052	-7e-05	-0.00018	6
27055	0.00093	4e-05	2e-05	5e-05	0.0005	-0.00052	-7e-05	-0.00018	6
27056	0.00093	4e-05	2e-05	5e-05	0.0005	-0.00052	-7e-05	-0.00018	6
27057	0.00093	4e-05	2e-05	5e-05	0.0005	-0.00052	-7e-05	-0.00018	6
27058	0.00093	4e-05	2e-05	5e-05	0.0005	-0.00052	-7e-05	-0.00018	6
27059	0.00051	9e-05	1e-05	-0.00014	-9e-05	-9e-05	0.00046	0.00015	6
27060	0.00051	9e-05	1e-05	-0.00014	-9e-05	-9e-05	0.00046	0.00015	6
27061	0.00051	9e-05	1e-05	-0.00014	-9e-05	-9e-05	0.00046	0.00015	6
27062	0.00051	9e-05	1e-05	-0.00014	-9e-05	-9e-05	0.00046	0.00015	6
27063	0.00051	9e-05	1e-05	-0.00014	-9e-05	-9e-05	0.00046	0.00015	6
27064	0.00051	9e-05	1e-05	-0.00014	-9e-05	-9e-05	0.00046	0.00015	6
27065	0.00051	9e-05	1e-05	-0.00014	-9e-05	-9e-05	0.00046	0.00015	6
27066	0.00051	9e-05	1e-05	-0.00014	-9e-05	-9e-05	0.00046	0.00015	6
27067	0.00051	9e-05	1e-05	-0.00014	-9e-05	-9e-05	0.00046	0.00015	6
27068	-0.00098	-1e-05	4e-05	5e-05	-5e-05	0.00087	-9e-05	-0.00016	6
27069	-0.00098	-1e-05	4e-05	5e-05	-5e-05	0.00087	-9e-05	-0.00016	6
27070	-0.00098	-1e-05	4e-05	5e-05	-5e-05	0.00087	-9e-05	-0.00016	6
27071	-0.00098	-1e-05	4e-05	5e-05	-5e-05	0.00087	-9e-05	-0.00016	6
27072	-0.00098	-1e-05	4e-05	5e-05	-5e-05	0.00087	-9e-05	-0.00016	6
27073	-0.00098	-1e-05	4e-05	5e-05	-5e-05	0.00087	-9e-05	-0.00016	6
27074	-0.00098	-1e-05	4e-05	5e-05	-5e-05	0.00087	-9e-05	-0.00016	6
27075	-0.00098	-1e-05	4e-05	5e-05	-5e-05	0.00087	-9e-05	-0.00016	6
27076	-0.00098	-1e-05	4e-05	5e-05	-5e-05	0.00087	-9e-05	-0.00016	6
27077	-0.00098	-1e-05	4e-05	5e-05	-5e-05	0.00087	-9e-05	-0.00016	6
27078	-0.00098	-1e-05	4e-05	5e-05	-5e-05	0.00087	-9e-05	-0.00016	6
27079	-0.00098	-1e-05	4e-05	5e-05	-5e-05	0.00087	-9e-05	-0.00016	6
27080	-0.00098	-1e-05	4e-05	5e-05	-5e-05	0.00087	-9e-05	-0.00016	6
27081	-0.00098	-1e-05	4e-05	5e-05	-5e-05	0.00087	-9e-05	-0.00016	6
27082	-0.00098	-1e-05	4e-05	5e-05	-5e-05	0.00087	-9e-05	-0.00016	6
27083	0.00036	0.00013	-3e-05	-0.00025	-0.00088	-0.00015	0.00014	-0.00014	6
27084	4e-05	3e-05	-2e-05	6e-05	-2e-05	0.00015	6e-05	-0.00043	6
27085	4e-05	3e-05	-2e-05	6e-05	-2e-05	0.00015	6e-05	-0.00043	6
27087	4e-05	3e-05	-2e-05	6e-05	-2e-05	0.00015	6e-05	-0.00043	6
27089	4e-05	3e-05	-2e-05	6e-05	-2e-05	0.00015	6e-05	-0.00043	6
27090	4e-05	3e-05	-2e-05	6e-05	-2e-05	0.00015	6e-05	-0.00043	6
27091	4e-05	3e-05	-2e-05	6e-05	-2e-05	0.00015	6e-05	-0.00043	6
27092	4e-05	3e-05	-2e-05	6e-05	-2e-05	0.00015	6e-05	-0.00043	6
27093	4e-05	3e-05	-2e-05	6e-05	-2e-05	0.00015	6e-05	-0.00043	6
27094	4e-05	3e-05	-2e-05	6e-05	-2e-05	0.00015	6e-05	-0.00043	6
27095	4e-05	3e-05	-2e-05	6e-05	-2e-05	0.00015	6e-05	-0.00043	6
27096	4e-05	3e-05	-2e-05	6e-05	-2e-05	0.00015	6e-05	-0.00043	6
27097	4e-05	3e-05	-2e-05	6e-05	-2e-05	0.00015	6e-05	-0.00043	6
27098	4e-05	3e-05	-2e-05	6e-05	-2e-05	0.00015	6e-05	-0.00043	6
27099	4e-05	3e-05	-2e-05	6e-05	-2e-05	0.00015	6e-05	-0.00043	6
27100	4e-05	3e-05	-2e-05	6e-05	-2e-05	0.00015	6e-05	-0.00043	6
27101	4e-05	3e-05	-2e-05	6e-05	-2e-05	0.00015	6e-05	-0.00043	6
27102	4e-05	3e-05	-2e-05	6e-05	-2e-05	0.00015	6e-05	-0.00043	6
27103	4e-05	3e-05	-2e-05	6e-05	-2e-05	0.00015	6e-05	-0.00043	6
27104	4e-05	3e-05	-2e-05	6e-05	-2e-05	0.00015	6e-05	-0.00043	6
27105	-0.00078	-6e-05	-2e-05	0.00049	3e-05	0.0006	-0.00023	0.00028	6
27106	-0.00078	-6e-05	-2e-05	0.00049	3e-05	0.0006	-0.00023	0.00028	6
27107	-0.00014	-5e-05	1e-05	0.00038	-0.00049	-0.00048	-0.00025	-0.00023	6
27108	-0.00014	-5e-05	1e-05	0.00038	-0.00049	-0.00048	-0.00025	-0.00023	6
27109	-0.00014	-5e-05	1e-05	0.00038	-0.00049	-0.00048	-0.00025	-0.00023	6
27110	-0.00014	-5e-05	1e-05	0.00038	-0.00049	-0.00048	-0.00025	-0.00023	6
27111	-0.00014	-5e-05	1e-05	0.00038	-0.00049	-0.00048	-0.00025	-0.00023	6
27112	-0.00014	-5e-05	1e-05	0.00038	-0.00049	-0.00048	-0.00025	-0.00023	6
27113	-0.00014	-5e-05	1e-05	0.00038	-0.00049	-0.00048	-0.00025	-0.00023	6
27114	-0.00014	-5e-05	1e-05	0.00038	-0.00049	-0.00048	-0.00025	-0.00023	6
27115	-0.00014	-5e-05	1e-05	0.00038	-0.00049	-0.00048	-0.00025	-0.00023	6
27116	-0.00014	-5e-05	1e-05	0.00038	-0.00049	-0.00048	-0.00025	-0.00023	6
27117	-0.00014	-5e-05	1e-05	0.00038	-0.00049	-0.00048	-0.00025	-0.00023	6
27118	-0.00014	-5e-05	1e-05	0.00038	-0.00049	-0.00048	-0.00025	-0.00023	6
27119	0.00042	-0.0001	-8e-05	-9e-05	0.0005	0.00014	2e-05	-1e-05	6
27120	0.00042	-0.0001	-8e-05	-9e-05	0.0005	0.00014	2e-05	-1e-05	6
27121	0.00042	-0.0001	-8e-05	-9e-05	0.0005	0.00014	2e-05	-1e-05	6
27122	0.00042	-0.0001	-8e-05	-9e-05	0.0005	0.00014	2e-05	-1e-05	6
27123	0.00042	-0.0001	-8e-05	-9e-05	0.0005	0.00014	2e-05	-1e-05	6
27124	0.00042	-0.0001	-8e-05	-9e-05	0.0005	0.00014	2e-05	-1e-05	6
27125	0.00042	-0.0001	-8e-05	-9e-05	0.0005	0.00014	2e-05	-1e-05	6
27126	0.00042	-0.0001	-8e-05	-9e-05	0.0005	0.00014	2e-05	-1e-05	6
27127	0.00042	-0.0001	-8e-05	-9e-05	0.0005	0.00014	2e-05	-1e-05	6
27128	0.00024	2e-05	3e-05	-8e-05	0.0003	0.00036	0.00016	0.00038	6
27129	0.00024	2e-05	3e-05	-8e-05	0.0003	0.00036	0.00016	0.00038	6
27130	0.00024	2e-05	3e-05	-8e-05	0.0003	0.00036	0.00016	0.00038	6
27131	0.00024	2e-05	3e-05	-8e-05	0.0003	0.00036	0.00016	0.00038	6
27132	0.00024	2e-05	3e-05	-8e-05	0.0003	0.00036	0.00016	0.00038	6
27133	0.00024	2e-05	3e-05	-8e-05	0.0003	0.00036	0.00016	0.00038	6
27134	0.00024	2e-05	3e-05	-8e-05	0.0003	0.00036	0.00016	0.00038	6
27135	0.00024	2e-05	3e-05	-8e-05	0.0003	0.00036	0.00016	0.00038	6
27137	0.00024	2e-05	3e-05	-8e-05	0.0003	0.00036	0.00016	0.00038	6
27139	0.00024	2e-05	3e-05	-8e-05	0.0003	0.00036	0.00016	0.00038	6
27140	0.00024	2e-05	3e-05	-8e-05	0.0003	0.00036	0.00016	0.00038	6
27141	0.00024	2e-05	3e-05	-8e-05	0.0003	0.00036	0.00016	0.00038	6
27142	0.00024	2e-05	3e-05	-8e-05	0.0003	0.00036	0.00016	0.00038	6
27143	0.0006	2e-05	1e-05	-0.00013	-0.00014	-0.00025	-1e-05	-0.0002	6
27144	-0.00017	1e-05	1e-05	0.00016	-0.00016	-0.00035	0.00018	-0.00061	6
27145	0.00083	-1e-05	-1e-05	-8e-05	0.00029	0.0007	0.00027	0.00023	6
27146	0.00083	-1e-05	-1e-05	-8e-05	0.00029	0.0007	0.00027	0.00023	6
27147	0.00083	-1e-05	-1e-05	-8e-05	0.00029	0.0007	0.00027	0.00023	6
27148	0.00083	-1e-05	-1e-05	-8e-05	0.00029	0.0007	0.00027	0.00023	6
27149	0.00083	-1e-05	-1e-05	-8e-05	0.00029	0.0007	0.00027	0.00023	6
27150	0.00083	-1e-05	-1e-05	-8e-05	0.00029	0.0007	0.00027	0.00023	6
27151	0.00083	-1e-05	-1e-05	-8e-05	0.00029	0.0007	0.00027	0.00023	6
27152	0.00083	-1e-05	-1e-05	-8e-05	0.00029	0.0007	0.00027	0.00023	6
27153	0.00083	-1e-05	-1e-05	-8e-05	0.00029	0.0007	0.00027	0.00023	6
27154	0.00083	-1e-05	-1e-05	-8e-05	0.00029	0.0007	0.00027	0.00023	6
27155	0.00083	-1e-05	-1e-05	-8e-05	0.00029	0.0007	0.00027	0.00023	6
27156	0.00083	-1e-05	-1e-05	-8e-05	0.00029	0.0007	0.00027	0.00023	6
27157	0.00083	-1e-05	-1e-05	-8e-05	0.00029	0.0007	0.00027	0.00023	6
27158	0.00083	-1e-05	-1e-05	-8e-05	0.00029	0.0007	0.00027	0.00023	6
27159	0.00083	-1e-05	-1e-05	-8e-05	0.00029	0.0007	0.00027	0.00023	6
27160	0.00083	-1e-05	-1e-05	-8e-05	0.00029	0.0007	0.00027	0.00023	6
27161	0.00083	-1e-05	-1e-05	-8e-05	0.00029	0.0007	0.00027	0.00023	6
27162	0.00083	-1e-05	-1e-05	-8e-05	0.00029	0.0007	0.00027	0.00023	6
27163	0.00083	-1e-05	-1e-05	-8e-05	0.00029	0.0007	0.00027	0.00023	6
27164	0.00083	-1e-05	-1e-05	-8e-05	0.00029	0.0007	0.00027	0.00023	6
27165	-0.00069	-1e-05	5e-05	0.0001	-0.00031	0.00024	5e-05	-1e-05	6
27166	-0.00031	-7e-05	-9e-05	-0.00011	0.0004	0.00031	0.00023	-0.00023	6
27167	-0.00031	-7e-05	-9e-05	-0.00011	0.0004	0.00031	0.00023	-0.00023	6
27168	-0.00031	-7e-05	-9e-05	-0.00011	0.0004	0.00031	0.00023	-0.00023	6
27169	-0.00031	-7e-05	-9e-05	-0.00011	0.0004	0.00031	0.00023	-0.00023	6
27170	-0.00031	-7e-05	-9e-05	-0.00011	0.0004	0.00031	0.00023	-0.00023	6
27171	-0.00014	-3e-05	-5e-05	-4e-05	0	-0.00044	-0.00032	-3e-05	6
27172	-0.00014	-3e-05	-5e-05	-4e-05	0	-0.00044	-0.00032	-3e-05	6
27173	-0.00014	-3e-05	-5e-05	-4e-05	0	-0.00044	-0.00032	-3e-05	6
27174	-0.00014	-3e-05	-5e-05	-4e-05	0	-0.00044	-0.00032	-3e-05	6
27175	-0.00014	-3e-05	-5e-05	-4e-05	0	-0.00044	-0.00032	-3e-05	6
27176	-0.00014	-3e-05	-5e-05	-4e-05	0	-0.00044	-0.00032	-3e-05	6
27177	-0.00014	-3e-05	-5e-05	-4e-05	0	-0.00044	-0.00032	-3e-05	6
27178	-0.00014	-3e-05	-5e-05	-4e-05	0	-0.00044	-0.00032	-3e-05	6
27179	-0.00034	-5e-05	2e-05	9e-05	0.00016	0.00044	5e-05	-7e-05	6
27180	-0.00034	-5e-05	2e-05	9e-05	0.00016	0.00044	5e-05	-7e-05	6
27181	-0.00034	-5e-05	2e-05	9e-05	0.00016	0.00044	5e-05	-7e-05	6
27182	-0.00034	-5e-05	2e-05	9e-05	0.00016	0.00044	5e-05	-7e-05	6
27183	-0.00034	-5e-05	2e-05	9e-05	0.00016	0.00044	5e-05	-7e-05	6
27184	-0.00034	-5e-05	2e-05	9e-05	0.00016	0.00044	5e-05	-7e-05	6
27185	-0.00034	-5e-05	2e-05	9e-05	0.00016	0.00044	5e-05	-7e-05	6
27187	-0.00034	-5e-05	2e-05	9e-05	0.00016	0.00044	5e-05	-7e-05	6
27189	0.00021	-5e-05	-4e-05	0	0.0004	2e-05	0.0002	-2e-05	6
27190	0.00021	-5e-05	-4e-05	0	0.0004	2e-05	0.0002	-2e-05	6
27191	0.00021	-5e-05	-4e-05	0	0.0004	2e-05	0.0002	-2e-05	6
27192	0.00021	-5e-05	-4e-05	0	0.0004	2e-05	0.0002	-2e-05	6
27193	0.00021	-5e-05	-4e-05	0	0.0004	2e-05	0.0002	-2e-05	6
27194	0.00021	-5e-05	-4e-05	0	0.0004	2e-05	0.0002	-2e-05	6
27195	0.00021	-5e-05	-4e-05	0	0.0004	2e-05	0.0002	-2e-05	6
27196	0.00021	-5e-05	-4e-05	0	0.0004	2e-05	0.0002	-2e-05	6
27197	0.00021	-5e-05	-4e-05	0	0.0004	2e-05	0.0002	-2e-05	6
27198	0.00021	-5e-05	-4e-05	0	0.0004	2e-05	0.0002	-2e-05	6
27199	0.00021	-5e-05	-4e-05	0	0.0004	2e-05	0.0002	-2e-05	6
27200	0.00021	-5e-05	-4e-05	0	0.0004	2e-05	0.0002	-2e-05	6
27201	0.00021	-5e-05	-4e-05	0	0.0004	2e-05	0.0002	-2e-05	6
27202	0.00021	-5e-05	-4e-05	0	0.0004	2e-05	0.0002	-2e-05	6
27203	-0.00041	4e-05	-1e-05	-9e-05	-7e-05	-0.00022	-0.00017	-0.00072	6
27204	0	-3e-05	-5e-05	-0.0001	0.00016	-0.00021	-9e-05	-5e-05	6
27205	0	-3e-05	-5e-05	-0.0001	0.00016	-0.00021	-9e-05	-5e-05	6
27206	0	-3e-05	-5e-05	-0.0001	0.00016	-0.00021	-9e-05	-5e-05	6
27207	0	-3e-05	-5e-05	-0.0001	0.00016	-0.00021	-9e-05	-5e-05	6
27208	0	-3e-05	-5e-05	-0.0001	0.00016	-0.00021	-9e-05	-5e-05	6
27209	0	-3e-05	-5e-05	-0.0001	0.00016	-0.00021	-9e-05	-5e-05	6
27210	0	-3e-05	-5e-05	-0.0001	0.00016	-0.00021	-9e-05	-5e-05	6
27211	0	-3e-05	-5e-05	-0.0001	0.00016	-0.00021	-9e-05	-5e-05	6
27212	0	-3e-05	-5e-05	-0.0001	0.00016	-0.00021	-9e-05	-5e-05	6
27213	0	-3e-05	-5e-05	-0.0001	0.00016	-0.00021	-9e-05	-5e-05	6
27214	0	-3e-05	-5e-05	-0.0001	0.00016	-0.00021	-9e-05	-5e-05	6
27215	0	-3e-05	-5e-05	-0.0001	0.00016	-0.00021	-9e-05	-5e-05	6
27216	0	-3e-05	-5e-05	-0.0001	0.00016	-0.00021	-9e-05	-5e-05	6
27217	0	-3e-05	-5e-05	-0.0001	0.00016	-0.00021	-9e-05	-5e-05	6
27218	0	-3e-05	-5e-05	-0.0001	0.00016	-0.00021	-9e-05	-5e-05	6
27219	0	-3e-05	-5e-05	-0.0001	0.00016	-0.00021	-9e-05	-5e-05	6
27220	0	-3e-05	-5e-05	-0.0001	0.00016	-0.00021	-9e-05	-5e-05	6
27221	0	-3e-05	-5e-05	-0.0001	0.00016	-0.00021	-9e-05	-5e-05	6
27222	0	-3e-05	-5e-05	-0.0001	0.00016	-0.00021	-9e-05	-5e-05	6
27223	0	-3e-05	-5e-05	-0.0001	0.00016	-0.00021	-9e-05	-5e-05	6
27224	0	-3e-05	-5e-05	-0.0001	0.00016	-0.00021	-9e-05	-5e-05	6
27225	0.00017	4e-05	-3e-05	2e-05	-6e-05	-0.00059	0.00012	8e-05	6
27226	0.00017	4e-05	-3e-05	2e-05	-6e-05	-0.00059	0.00012	8e-05	6
27227	-0.00038	-9e-05	-6e-05	-0.00015	-0.0005	-0.00086	-7e-05	9e-05	6
27228	-0.00038	-9e-05	-6e-05	-0.00015	-0.0005	-0.00086	-7e-05	9e-05	6
27229	-0.00038	-9e-05	-6e-05	-0.00015	-0.0005	-0.00086	-7e-05	9e-05	6
27230	-0.00038	-9e-05	-6e-05	-0.00015	-0.0005	-0.00086	-7e-05	9e-05	6
27231	-0.00038	-9e-05	-6e-05	-0.00015	-0.0005	-0.00086	-7e-05	9e-05	6
27232	-0.00038	-9e-05	-6e-05	-0.00015	-0.0005	-0.00086	-7e-05	9e-05	6
27233	-0.00038	-9e-05	-6e-05	-0.00015	-0.0005	-0.00086	-7e-05	9e-05	6
27234	-0.00038	-9e-05	-6e-05	-0.00015	-0.0005	-0.00086	-7e-05	9e-05	6
27235	-0.00038	-9e-05	-6e-05	-0.00015	-0.0005	-0.00086	-7e-05	9e-05	6
27237	-0.00038	-9e-05	-6e-05	-0.00015	-0.0005	-0.00086	-7e-05	9e-05	6
27239	0.00016	-2e-05	5e-05	8e-05	1e-05	-0.00015	-5e-05	0	6
27240	0.00016	-2e-05	5e-05	8e-05	1e-05	-0.00015	-5e-05	0	6
27241	0.00016	-2e-05	5e-05	8e-05	1e-05	-0.00015	-5e-05	0	6
27242	0.00016	-2e-05	5e-05	8e-05	1e-05	-0.00015	-5e-05	0	6
27243	0.00016	-2e-05	5e-05	8e-05	1e-05	-0.00015	-5e-05	0	6
27244	0.00016	-2e-05	5e-05	8e-05	1e-05	-0.00015	-5e-05	0	6
27245	0.00016	-2e-05	5e-05	8e-05	1e-05	-0.00015	-5e-05	0	6
27246	0.00016	-2e-05	5e-05	8e-05	1e-05	-0.00015	-5e-05	0	6
27247	0.00016	-2e-05	5e-05	8e-05	1e-05	-0.00015	-5e-05	0	6
27248	-0.00017	0	-2e-05	5e-05	0.00019	-2e-05	-0.00047	0.00012	6
27249	-0.00017	0	-2e-05	5e-05	0.00019	-2e-05	-0.00047	0.00012	6
27250	-0.00017	0	-2e-05	5e-05	0.00019	-2e-05	-0.00047	0.00012	6
27251	-0.00017	0	-2e-05	5e-05	0.00019	-2e-05	-0.00047	0.00012	6
27252	-0.00017	0	-2e-05	5e-05	0.00019	-2e-05	-0.00047	0.00012	6
27253	-0.00017	0	-2e-05	5e-05	0.00019	-2e-05	-0.00047	0.00012	6
27254	-0.00017	0	-2e-05	5e-05	0.00019	-2e-05	-0.00047	0.00012	6
27255	-0.00017	0	-2e-05	5e-05	0.00019	-2e-05	-0.00047	0.00012	6
27256	-0.00017	0	-2e-05	5e-05	0.00019	-2e-05	-0.00047	0.00012	6
27257	-0.00017	0	-2e-05	5e-05	0.00019	-2e-05	-0.00047	0.00012	6
27258	-0.00017	0	-2e-05	5e-05	0.00019	-2e-05	-0.00047	0.00012	6
27259	-0.00017	0	-2e-05	5e-05	0.00019	-2e-05	-0.00047	0.00012	6
27260	-0.00017	0	-2e-05	5e-05	0.00019	-2e-05	-0.00047	0.00012	6
27261	-0.00017	0	-2e-05	5e-05	0.00019	-2e-05	-0.00047	0.00012	6
27262	-0.00017	0	-2e-05	5e-05	0.00019	-2e-05	-0.00047	0.00012	6
27263	-0.00082	-5e-05	4e-05	-1e-05	0.00019	0.00034	0.0001	9e-05	6
27264	7e-05	2e-05	-2e-05	-0.0001	-0.00043	0.00025	-0.00015	-0.0003	6
27265	7e-05	2e-05	-2e-05	-0.0001	-0.00043	0.00025	-0.00015	-0.0003	6
27266	7e-05	2e-05	-2e-05	-0.0001	-0.00043	0.00025	-0.00015	-0.0003	6
27267	7e-05	2e-05	-2e-05	-0.0001	-0.00043	0.00025	-0.00015	-0.0003	6
27268	7e-05	2e-05	-2e-05	-0.0001	-0.00043	0.00025	-0.00015	-0.0003	6
27269	7e-05	2e-05	-2e-05	-0.0001	-0.00043	0.00025	-0.00015	-0.0003	6
27270	7e-05	2e-05	-2e-05	-0.0001	-0.00043	0.00025	-0.00015	-0.0003	6
27271	7e-05	2e-05	-2e-05	-0.0001	-0.00043	0.00025	-0.00015	-0.0003	6
27272	7e-05	2e-05	-2e-05	-0.0001	-0.00043	0.00025	-0.00015	-0.0003	6
27273	7e-05	2e-05	-2e-05	-0.0001	-0.00043	0.00025	-0.00015	-0.0003	6
27274	7e-05	2e-05	-2e-05	-0.0001	-0.00043	0.00025	-0.00015	-0.0003	6
27275	7e-05	2e-05	-2e-05	-0.0001	-0.00043	0.00025	-0.00015	-0.0003	6
27276	7e-05	2e-05	-2e-05	-0.0001	-0.00043	0.00025	-0.00015	-0.0003	6
27277	7e-05	2e-05	-2e-05	-0.0001	-0.00043	0.00025	-0.00015	-0.0003	6
27278	7e-05	2e-05	-2e-05	-0.0001	-0.00043	0.00025	-0.00015	-0.0003	6
27279	7e-05	2e-05	-2e-05	-0.0001	-0.00043	0.00025	-0.00015	-0.0003	6
27280	7e-05	2e-05	-2e-05	-0.0001	-0.00043	0.00025	-0.00015	-0.0003	6
27281	7e-05	2e-05	-2e-05	-0.0001	-0.00043	0.00025	-0.00015	-0.0003	6
27282	7e-05	2e-05	-2e-05	-0.0001	-0.00043	0.00025	-0.00015	-0.0003	6
27283	7e-05	2e-05	-2e-05	-0.0001	-0.00043	0.00025	-0.00015	-0.0003	6
27284	7e-05	2e-05	-2e-05	-0.0001	-0.00043	0.00025	-0.00015	-0.0003	6
27285	-0.00019	-3e-05	0	-0.00013	-0.00048	0.00038	8e-05	-0.0001	6
27287	-0.00017	7e-05	6e-05	8e-05	3e-05	0.00059	0.00011	0.00027	6
27289	-0.00017	7e-05	6e-05	8e-05	3e-05	0.00059	0.00011	0.00027	6
27290	-0.00017	7e-05	6e-05	8e-05	3e-05	0.00059	0.00011	0.00027	6
27291	-0.00017	7e-05	6e-05	8e-05	3e-05	0.00059	0.00011	0.00027	6
27292	-0.00017	7e-05	6e-05	8e-05	3e-05	0.00059	0.00011	0.00027	6
27293	-0.00017	7e-05	6e-05	8e-05	3e-05	0.00059	0.00011	0.00027	6
27294	-0.00017	7e-05	6e-05	8e-05	3e-05	0.00059	0.00011	0.00027	6
27295	-0.00017	7e-05	6e-05	8e-05	3e-05	0.00059	0.00011	0.00027	6
27296	-0.00017	7e-05	6e-05	8e-05	3e-05	0.00059	0.00011	0.00027	6
27297	-0.00017	7e-05	6e-05	8e-05	3e-05	0.00059	0.00011	0.00027	6
27298	-0.00017	7e-05	6e-05	8e-05	3e-05	0.00059	0.00011	0.00027	6
27299	4e-05	-2e-05	2e-05	9e-05	0.0004	-0.00017	-2e-05	0.00015	6
27300	4e-05	-2e-05	2e-05	9e-05	0.0004	-0.00017	-2e-05	0.00015	6
27301	4e-05	-2e-05	2e-05	9e-05	0.0004	-0.00017	-2e-05	0.00015	6
27302	4e-05	-2e-05	2e-05	9e-05	0.0004	-0.00017	-2e-05	0.00015	6
27303	4e-05	-2e-05	2e-05	9e-05	0.0004	-0.00017	-2e-05	0.00015	6
27304	4e-05	-2e-05	2e-05	9e-05	0.0004	-0.00017	-2e-05	0.00015	6
27305	4e-05	-2e-05	2e-05	9e-05	0.0004	-0.00017	-2e-05	0.00015	6
27306	4e-05	-2e-05	2e-05	9e-05	0.0004	-0.00017	-2e-05	0.00015	6
27307	4e-05	-2e-05	2e-05	9e-05	0.0004	-0.00017	-2e-05	0.00015	6
27308	0.00053	-5e-05	-5e-05	-9e-05	-0.00035	-8e-05	0.00011	0.00018	6
27309	0.00053	-5e-05	-5e-05	-9e-05	-0.00035	-8e-05	0.00011	0.00018	6
27310	0.00053	-5e-05	-5e-05	-9e-05	-0.00035	-8e-05	0.00011	0.00018	6
27311	0.00053	-5e-05	-5e-05	-9e-05	-0.00035	-8e-05	0.00011	0.00018	6
27312	0.00053	-5e-05	-5e-05	-9e-05	-0.00035	-8e-05	0.00011	0.00018	6
27313	0.00053	-5e-05	-5e-05	-9e-05	-0.00035	-8e-05	0.00011	0.00018	6
27314	0.00053	-5e-05	-5e-05	-9e-05	-0.00035	-8e-05	0.00011	0.00018	6
27315	0.00053	-5e-05	-5e-05	-9e-05	-0.00035	-8e-05	0.00011	0.00018	6
27316	0.00053	-5e-05	-5e-05	-9e-05	-0.00035	-8e-05	0.00011	0.00018	6
27317	0.00053	-5e-05	-5e-05	-9e-05	-0.00035	-8e-05	0.00011	0.00018	6
27318	0.00053	-5e-05	-5e-05	-9e-05	-0.00035	-8e-05	0.00011	0.00018	6
27319	0.00053	-5e-05	-5e-05	-9e-05	-0.00035	-8e-05	0.00011	0.00018	6
27320	0.00053	-5e-05	-5e-05	-9e-05	-0.00035	-8e-05	0.00011	0.00018	6
27321	0.00053	-5e-05	-5e-05	-9e-05	-0.00035	-8e-05	0.00011	0.00018	6
27322	0.00053	-5e-05	-5e-05	-9e-05	-0.00035	-8e-05	0.00011	0.00018	6
27323	0.00016	0	0	-2e-05	-0.00044	1e-05	9e-05	0.00023	6
27324	0.00038	4e-05	-5e-05	-8e-05	0.00041	-0.00031	-2e-05	4e-05	6
27325	0.00038	4e-05	-5e-05	-8e-05	0.00041	-0.00031	-2e-05	4e-05	6
27326	0.00038	4e-05	-5e-05	-8e-05	0.00041	-0.00031	-2e-05	4e-05	6
27327	0.00038	4e-05	-5e-05	-8e-05	0.00041	-0.00031	-2e-05	4e-05	6
27328	0.00038	4e-05	-5e-05	-8e-05	0.00041	-0.00031	-2e-05	4e-05	6
27329	0.00038	4e-05	-5e-05	-8e-05	0.00041	-0.00031	-2e-05	4e-05	6
27330	0.00038	4e-05	-5e-05	-8e-05	0.00041	-0.00031	-2e-05	4e-05	6
27331	0.00038	4e-05	-5e-05	-8e-05	0.00041	-0.00031	-2e-05	4e-05	6
27332	0.00038	4e-05	-5e-05	-8e-05	0.00041	-0.00031	-2e-05	4e-05	6
27333	0.00038	4e-05	-5e-05	-8e-05	0.00041	-0.00031	-2e-05	4e-05	6
27334	0.00038	4e-05	-5e-05	-8e-05	0.00041	-0.00031	-2e-05	4e-05	6
27335	0.00038	4e-05	-5e-05	-8e-05	0.00041	-0.00031	-2e-05	4e-05	6
27337	0.00038	4e-05	-5e-05	-8e-05	0.00041	-0.00031	-2e-05	4e-05	6
27339	0.00038	4e-05	-5e-05	-8e-05	0.00041	-0.00031	-2e-05	4e-05	6
27340	0.00038	4e-05	-5e-05	-8e-05	0.00041	-0.00031	-2e-05	4e-05	6
27341	0.00038	4e-05	-5e-05	-8e-05	0.00041	-0.00031	-2e-05	4e-05	6
27342	0.00038	4e-05	-5e-05	-8e-05	0.00041	-0.00031	-2e-05	4e-05	6
27343	0.00038	4e-05	-5e-05	-8e-05	0.00041	-0.00031	-2e-05	4e-05	6
27344	0.00038	4e-05	-5e-05	-8e-05	0.00041	-0.00031	-2e-05	4e-05	6
27345	0.0003	6e-05	2e-05	-0.00011	-0.00017	-0.00047	-0.00018	7e-05	6
27346	0.0003	6e-05	2e-05	-0.00011	-0.00017	-0.00047	-0.00018	7e-05	6
27347	-0.00032	3e-05	4e-05	8e-05	0.00031	3e-05	0.00012	-0.00022	6
27348	-0.00032	3e-05	4e-05	8e-05	0.00031	3e-05	0.00012	-0.00022	6
27349	-0.00032	3e-05	4e-05	8e-05	0.00031	3e-05	0.00012	-0.00022	6
27350	-0.00032	3e-05	4e-05	8e-05	0.00031	3e-05	0.00012	-0.00022	6
27351	-0.00032	3e-05	4e-05	8e-05	0.00031	3e-05	0.00012	-0.00022	6
27352	-0.00032	3e-05	4e-05	8e-05	0.00031	3e-05	0.00012	-0.00022	6
27353	-0.00032	3e-05	4e-05	8e-05	0.00031	3e-05	0.00012	-0.00022	6
27354	-0.00032	3e-05	4e-05	8e-05	0.00031	3e-05	0.00012	-0.00022	6
27355	-0.00032	3e-05	4e-05	8e-05	0.00031	3e-05	0.00012	-0.00022	6
27356	-0.00032	3e-05	4e-05	8e-05	0.00031	3e-05	0.00012	-0.00022	6
27357	-0.00032	3e-05	4e-05	8e-05	0.00031	3e-05	0.00012	-0.00022	6
27358	-0.00032	3e-05	4e-05	8e-05	0.00031	3e-05	0.00012	-0.00022	6
27359	-0.00032	3e-05	4e-05	8e-05	0.00031	3e-05	0.00012	-0.00022	6
27360	-0.00032	3e-05	4e-05	8e-05	0.00031	3e-05	0.00012	-0.00022	6
27361	-0.00032	3e-05	4e-05	8e-05	0.00031	3e-05	0.00012	-0.00022	6
27362	-0.00032	3e-05	4e-05	8e-05	0.00031	3e-05	0.00012	-0.00022	6
27363	-0.00032	3e-05	4e-05	8e-05	0.00031	3e-05	0.00012	-0.00022	6
27364	-0.00032	3e-05	4e-05	8e-05	0.00031	3e-05	0.00012	-0.00022	6
27365	-0.00032	3e-05	4e-05	8e-05	0.00031	3e-05	0.00012	-0.00022	6
27366	-0.00032	3e-05	4e-05	8e-05	0.00031	3e-05	0.00012	-0.00022	6
27367	6e-05	1e-05	-1e-05	-4e-05	-0.00055	-0.00031	1e-05	-0.00014	6
27368	0.00021	7e-05	0.00011	0.0003	0.00087	0.00061	4e-05	5e-05	6
27369	0	-9e-05	-1e-05	0	8e-05	-0.00052	9e-05	-0.00011	6
27370	0	-9e-05	-1e-05	0	8e-05	-0.00052	9e-05	-0.00011	6
27371	0	-9e-05	-1e-05	0	8e-05	-0.00052	9e-05	-0.00011	6
27372	0	-9e-05	-1e-05	0	8e-05	-0.00052	9e-05	-0.00011	6
27373	0	-9e-05	-1e-05	0	8e-05	-0.00052	9e-05	-0.00011	6
27374	0	-9e-05	-1e-05	0	8e-05	-0.00052	9e-05	-0.00011	6
27375	0	-9e-05	-1e-05	0	8e-05	-0.00052	9e-05	-0.00011	6
27376	0	-9e-05	-1e-05	0	8e-05	-0.00052	9e-05	-0.00011	6
27377	0	-9e-05	-1e-05	0	8e-05	-0.00052	9e-05	-0.00011	6
27378	0	-9e-05	-1e-05	0	8e-05	-0.00052	9e-05	-0.00011	6
27379	0	-9e-05	-1e-05	0	8e-05	-0.00052	9e-05	-0.00011	6
27380	0	-9e-05	-1e-05	0	8e-05	-0.00052	9e-05	-0.00011	6
27381	0	-9e-05	-1e-05	0	8e-05	-0.00052	9e-05	-0.00011	6
27382	-9e-05	-5e-05	-9e-05	-5e-05	-0.00016	-0.00086	-0.00029	7e-05	6
27383	-9e-05	-5e-05	-9e-05	-5e-05	-0.00016	-0.00086	-0.00029	7e-05	6
27384	-9e-05	-5e-05	-9e-05	-5e-05	-0.00016	-0.00086	-0.00029	7e-05	6
27385	-9e-05	-5e-05	-9e-05	-5e-05	-0.00016	-0.00086	-0.00029	7e-05	6
27387	-9e-05	-5e-05	-9e-05	-5e-05	-0.00016	-0.00086	-0.00029	7e-05	6
27389	1e-05	-2e-05	-2e-05	-0.00012	-9e-05	-0.00012	5e-05	9e-05	6
27390	1e-05	-2e-05	-2e-05	-0.00012	-9e-05	-0.00012	5e-05	9e-05	6
27391	1e-05	-2e-05	-2e-05	-0.00012	-9e-05	-0.00012	5e-05	9e-05	6
27392	1e-05	-2e-05	-2e-05	-0.00012	-9e-05	-0.00012	5e-05	9e-05	6
27393	1e-05	-2e-05	-2e-05	-0.00012	-9e-05	-0.00012	5e-05	9e-05	6
27394	1e-05	-2e-05	-2e-05	-0.00012	-9e-05	-0.00012	5e-05	9e-05	6
27395	1e-05	-2e-05	-2e-05	-0.00012	-9e-05	-0.00012	5e-05	9e-05	6
27396	1e-05	-2e-05	-2e-05	-0.00012	-9e-05	-0.00012	5e-05	9e-05	6
27397	1e-05	-2e-05	-2e-05	-0.00012	-9e-05	-0.00012	5e-05	9e-05	6
27398	1e-05	-2e-05	-2e-05	-0.00012	-9e-05	-0.00012	5e-05	9e-05	6
27399	1e-05	-2e-05	-2e-05	-0.00012	-9e-05	-0.00012	5e-05	9e-05	6
27400	1e-05	-2e-05	-2e-05	-0.00012	-9e-05	-0.00012	5e-05	9e-05	6
27401	1e-05	-2e-05	-2e-05	-0.00012	-9e-05	-0.00012	5e-05	9e-05	6
27402	1e-05	-2e-05	-2e-05	-0.00012	-9e-05	-0.00012	5e-05	9e-05	6
27403	1e-05	-2e-05	-2e-05	-0.00012	-9e-05	-0.00012	5e-05	9e-05	6
27404	1e-05	-2e-05	-2e-05	-0.00012	-9e-05	-0.00012	5e-05	9e-05	6
27405	-0.00076	-0.0001	-5e-05	-0.0001	-0.00059	0.00045	-0.0005	-3e-05	6
27406	-0.00076	-0.0001	-5e-05	-0.0001	-0.00059	0.00045	-0.0005	-3e-05	6
27407	-0.00021	1e-05	0	0.00014	0.00028	0.00033	0.00011	8e-05	6
27408	-0.00021	1e-05	0	0.00014	0.00028	0.00033	0.00011	8e-05	6
27409	-0.00021	1e-05	0	0.00014	0.00028	0.00033	0.00011	8e-05	6
27410	-0.00021	1e-05	0	0.00014	0.00028	0.00033	0.00011	8e-05	6
27411	-0.00021	1e-05	0	0.00014	0.00028	0.00033	0.00011	8e-05	6
27412	-0.00021	1e-05	0	0.00014	0.00028	0.00033	0.00011	8e-05	6
27413	-0.00021	1e-05	0	0.00014	0.00028	0.00033	0.00011	8e-05	6
27414	-0.00021	1e-05	0	0.00014	0.00028	0.00033	0.00011	8e-05	6
27415	-0.00021	1e-05	0	0.00014	0.00028	0.00033	0.00011	8e-05	6
27416	-0.00021	1e-05	0	0.00014	0.00028	0.00033	0.00011	8e-05	6
27417	-0.00021	1e-05	0	0.00014	0.00028	0.00033	0.00011	8e-05	6
27418	-0.00021	1e-05	0	0.00014	0.00028	0.00033	0.00011	8e-05	6
27419	-0.00021	1e-05	0	0.00014	0.00028	0.00033	0.00011	8e-05	6
27420	-0.00021	1e-05	0	0.00014	0.00028	0.00033	0.00011	8e-05	6
27421	-0.00021	1e-05	0	0.00014	0.00028	0.00033	0.00011	8e-05	6
27422	-0.00021	1e-05	0	0.00014	0.00028	0.00033	0.00011	8e-05	6
27423	-0.00021	1e-05	0	0.00014	0.00028	0.00033	0.00011	8e-05	6
27424	-0.00021	1e-05	0	0.00014	0.00028	0.00033	0.00011	8e-05	6
27425	-0.00021	1e-05	0	0.00014	0.00028	0.00033	0.00011	8e-05	6
27426	-0.00021	1e-05	0	0.00014	0.00028	0.00033	0.00011	8e-05	6
27427	-0.00021	1e-05	0	0.00014	0.00028	0.00033	0.00011	8e-05	6
27428	-0.00046	-0.0001	-0.0001	-0.00022	-0.00042	-0.0001	9e-05	-0.00012	6
27429	0.00011	0.00013	9e-05	7e-05	-9e-05	-0.00026	0.00016	-5e-05	6
27430	0.00011	0.00013	9e-05	7e-05	-9e-05	-0.00026	0.00016	-5e-05	6
27431	0.00011	0.00013	9e-05	7e-05	-9e-05	-0.00026	0.00016	-5e-05	6
27432	0.00011	0.00013	9e-05	7e-05	-9e-05	-0.00026	0.00016	-5e-05	6
27433	0.00011	0.00013	9e-05	7e-05	-9e-05	-0.00026	0.00016	-5e-05	6
27434	0.00011	0.00013	9e-05	7e-05	-9e-05	-0.00026	0.00016	-5e-05	6
27435	0.00011	0.00013	9e-05	7e-05	-9e-05	-0.00026	0.00016	-5e-05	6
27437	0.00011	0.00013	9e-05	7e-05	-9e-05	-0.00026	0.00016	-5e-05	6
27439	0.00011	0.00013	9e-05	7e-05	-9e-05	-0.00026	0.00016	-5e-05	6
27440	0.00011	0.00013	9e-05	7e-05	-9e-05	-0.00026	0.00016	-5e-05	6
27441	0.00011	0.00013	9e-05	7e-05	-9e-05	-0.00026	0.00016	-5e-05	6
27442	0	-4e-05	-2e-05	3e-05	0.00034	-0.0004	8e-05	0.0002	6
27443	0.00013	-1e-05	-1e-05	-0.00013	-0.00025	-0.00043	-0.00023	-0.00037	6
27444	0.00013	-1e-05	-1e-05	-0.00013	-0.00025	-0.00043	-0.00023	-0.00037	6
27445	0.00013	-1e-05	-1e-05	-0.00013	-0.00025	-0.00043	-0.00023	-0.00037	6
27446	0.00013	-1e-05	-1e-05	-0.00013	-0.00025	-0.00043	-0.00023	-0.00037	6
27447	0.00013	-1e-05	-1e-05	-0.00013	-0.00025	-0.00043	-0.00023	-0.00037	6
27448	0.00013	-1e-05	-1e-05	-0.00013	-0.00025	-0.00043	-0.00023	-0.00037	6
27449	0.00013	-1e-05	-1e-05	-0.00013	-0.00025	-0.00043	-0.00023	-0.00037	6
27450	0.00013	-1e-05	-1e-05	-0.00013	-0.00025	-0.00043	-0.00023	-0.00037	6
27451	0.00013	-1e-05	-1e-05	-0.00013	-0.00025	-0.00043	-0.00023	-0.00037	6
27452	0.00013	-1e-05	-1e-05	-0.00013	-0.00025	-0.00043	-0.00023	-0.00037	6
27453	0.00013	-1e-05	-1e-05	-0.00013	-0.00025	-0.00043	-0.00023	-0.00037	6
27454	0.00013	-1e-05	-1e-05	-0.00013	-0.00025	-0.00043	-0.00023	-0.00037	6
27455	0.00013	-1e-05	-1e-05	-0.00013	-0.00025	-0.00043	-0.00023	-0.00037	6
27456	0.00013	-1e-05	-1e-05	-0.00013	-0.00025	-0.00043	-0.00023	-0.00037	6
27457	0.00013	-1e-05	-1e-05	-0.00013	-0.00025	-0.00043	-0.00023	-0.00037	6
55481	0.00011	9e-05	4e-05	0.00022	0.00095	0.00046	3e-05	0	6
55482	0.00011	9e-05	4e-05	0.00022	0.00095	0.00046	3e-05	0	6
55483	0.00011	9e-05	4e-05	0.00022	0.00095	0.00046	3e-05	0	6
55484	0.00011	9e-05	4e-05	0.00022	0.00095	0.00046	3e-05	0	6
55485	0.00011	9e-05	4e-05	0.00022	0.00095	0.00046	3e-05	0	6
55487	0.00011	9e-05	4e-05	0.00022	0.00095	0.00046	3e-05	0	6
55489	0.00011	9e-05	4e-05	0.00022	0.00095	0.00046	3e-05	0	6
55490	0.00011	9e-05	4e-05	0.00022	0.00095	0.00046	3e-05	0	6
55491	0.00011	9e-05	4e-05	0.00022	0.00095	0.00046	3e-05	0	6
55492	0.00011	9e-05	4e-05	0.00022	0.00095	0.00046	3e-05	0	6
55493	0.00011	9e-05	4e-05	0.00022	0.00095	0.00046	3e-05	0	6
55494	0.00011	9e-05	4e-05	0.00022	0.00095	0.00046	3e-05	0	6
55495	0.00011	9e-05	4e-05	0.00022	0.00095	0.00046	3e-05	0	6
55496	0.00011	9e-05	4e-05	0.00022	0.00095	0.00046	3e-05	0	6
55497	0.00011	9e-05	4e-05	0.00022	0.00095	0.00046	3e-05	0	6
55498	0.00011	9e-05	4e-05	0.00022	0.00095	0.00046	3e-05	0	6
55499	-2e-05	5e-05	-7e-05	-8e-05	-0.00029	-0.00035	8e-05	0.00104	6
55500	-2e-05	5e-05	-7e-05	-8e-05	-0.00029	-0.00035	8e-05	0.00104	6
55501	0.00027	-7e-05	1e-05	3e-05	0.00043	-0.00083	-0.00051	0.0001	6
55502	0.00027	-7e-05	1e-05	3e-05	0.00043	-0.00083	-0.00051	0.0001	6
55503	0.00027	-7e-05	1e-05	3e-05	0.00043	-0.00083	-0.00051	0.0001	6
55504	0.00027	-7e-05	1e-05	3e-05	0.00043	-0.00083	-0.00051	0.0001	6
55505	0.00027	-7e-05	1e-05	3e-05	0.00043	-0.00083	-0.00051	0.0001	6
55506	0.00027	-7e-05	1e-05	3e-05	0.00043	-0.00083	-0.00051	0.0001	6
55507	0.00027	-7e-05	1e-05	3e-05	0.00043	-0.00083	-0.00051	0.0001	6
55508	0.00027	-7e-05	1e-05	3e-05	0.00043	-0.00083	-0.00051	0.0001	6
55509	0.00027	-7e-05	1e-05	3e-05	0.00043	-0.00083	-0.00051	0.0001	6
55510	0.00027	-7e-05	1e-05	3e-05	0.00043	-0.00083	-0.00051	0.0001	6
55511	0.00027	-7e-05	1e-05	3e-05	0.00043	-0.00083	-0.00051	0.0001	6
55512	0.00027	-7e-05	1e-05	3e-05	0.00043	-0.00083	-0.00051	0.0001	6
55513	0.0002	1e-05	3e-05	8e-05	0.00127	0.00117	0.00041	-0.00055	6
55514	0.0002	1e-05	3e-05	8e-05	0.00127	0.00117	0.00041	-0.00055	6
55515	0.0002	1e-05	3e-05	8e-05	0.00127	0.00117	0.00041	-0.00055	6
55516	0.0002	1e-05	3e-05	8e-05	0.00127	0.00117	0.00041	-0.00055	6
55517	0.0002	1e-05	3e-05	8e-05	0.00127	0.00117	0.00041	-0.00055	6
55518	0.0002	1e-05	3e-05	8e-05	0.00127	0.00117	0.00041	-0.00055	6
55519	0.0002	1e-05	3e-05	8e-05	0.00127	0.00117	0.00041	-0.00055	6
55520	0.0002	1e-05	3e-05	8e-05	0.00127	0.00117	0.00041	-0.00055	6
55521	0.0002	1e-05	3e-05	8e-05	0.00127	0.00117	0.00041	-0.00055	6
55522	-0.00028	-6e-05	-3e-05	-4e-05	-9e-05	-0.00014	-0.00057	8e-05	6
55523	-0.00028	-6e-05	-3e-05	-4e-05	-9e-05	-0.00014	-0.00057	8e-05	6
55524	-0.00028	-6e-05	-3e-05	-4e-05	-9e-05	-0.00014	-0.00057	8e-05	6
55525	-0.00028	-6e-05	-3e-05	-4e-05	-9e-05	-0.00014	-0.00057	8e-05	6
55526	-0.00028	-6e-05	-3e-05	-4e-05	-9e-05	-0.00014	-0.00057	8e-05	6
55527	-0.00028	-6e-05	-3e-05	-4e-05	-9e-05	-0.00014	-0.00057	8e-05	6
55528	-0.00028	-6e-05	-3e-05	-4e-05	-9e-05	-0.00014	-0.00057	8e-05	6
55529	-0.00028	-6e-05	-3e-05	-4e-05	-9e-05	-0.00014	-0.00057	8e-05	6
55530	-0.00028	-6e-05	-3e-05	-4e-05	-9e-05	-0.00014	-0.00057	8e-05	6
55531	-0.00028	-6e-05	-3e-05	-4e-05	-9e-05	-0.00014	-0.00057	8e-05	6
55532	-0.00028	-6e-05	-3e-05	-4e-05	-9e-05	-0.00014	-0.00057	8e-05	6
55533	-0.00028	-6e-05	-3e-05	-4e-05	-9e-05	-0.00014	-0.00057	8e-05	6
55534	-0.00028	-6e-05	-3e-05	-4e-05	-9e-05	-0.00014	-0.00057	8e-05	6
55535	-0.00028	-6e-05	-3e-05	-4e-05	-9e-05	-0.00014	-0.00057	8e-05	6
55537	-0.00012	-5e-05	-9e-05	-0.00024	-0.00089	-0.00069	-4e-05	-0.00029	6
55539	-0.00094	-0.0001	0	-4e-05	-0.00022	-0.0002	-0.00012	-5e-05	6
55540	-0.00094	-0.0001	0	-4e-05	-0.00022	-0.0002	-0.00012	-5e-05	6
55541	-0.00094	-0.0001	0	-4e-05	-0.00022	-0.0002	-0.00012	-5e-05	6
55542	-0.00094	-0.0001	0	-4e-05	-0.00022	-0.0002	-0.00012	-5e-05	6
55543	-0.00094	-0.0001	0	-4e-05	-0.00022	-0.0002	-0.00012	-5e-05	6
55544	-0.00094	-0.0001	0	-4e-05	-0.00022	-0.0002	-0.00012	-5e-05	6
55545	-0.00094	-0.0001	0	-4e-05	-0.00022	-0.0002	-0.00012	-5e-05	6
55546	-0.00094	-0.0001	0	-4e-05	-0.00022	-0.0002	-0.00012	-5e-05	6
55547	-0.00094	-0.0001	0	-4e-05	-0.00022	-0.0002	-0.00012	-5e-05	6
55548	-0.00094	-0.0001	0	-4e-05	-0.00022	-0.0002	-0.00012	-5e-05	6
55549	-0.00094	-0.0001	0	-4e-05	-0.00022	-0.0002	-0.00012	-5e-05	6
55550	-0.00094	-0.0001	0	-4e-05	-0.00022	-0.0002	-0.00012	-5e-05	6
55551	-0.00094	-0.0001	0	-4e-05	-0.00022	-0.0002	-0.00012	-5e-05	6
55552	-0.00094	-0.0001	0	-4e-05	-0.00022	-0.0002	-0.00012	-5e-05	6
55553	-0.00094	-0.0001	0	-4e-05	-0.00022	-0.0002	-0.00012	-5e-05	6
55554	-0.00094	-0.0001	0	-4e-05	-0.00022	-0.0002	-0.00012	-5e-05	6
55555	-0.00094	-0.0001	0	-4e-05	-0.00022	-0.0002	-0.00012	-5e-05	6
55556	-0.00094	-0.0001	0	-4e-05	-0.00022	-0.0002	-0.00012	-5e-05	6
55557	-0.00094	-0.0001	0	-4e-05	-0.00022	-0.0002	-0.00012	-5e-05	6
55558	-0.00094	-0.0001	0	-4e-05	-0.00022	-0.0002	-0.00012	-5e-05	6
55559	0.00051	4e-05	0	-4e-05	2e-05	0.00011	-0.00086	7e-05	6
55560	7e-05	4e-05	-2e-05	0	-0.00032	-9e-05	-0.00042	6e-05	6
55561	-0.00057	-9e-05	-4e-05	0.00016	0.00026	0.00066	0.00051	0.00041	6
55562	-0.00057	-9e-05	-4e-05	0.00016	0.00026	0.00066	0.00051	0.00041	6
55563	-0.00057	-9e-05	-4e-05	0.00016	0.00026	0.00066	0.00051	0.00041	6
55564	-0.00057	-9e-05	-4e-05	0.00016	0.00026	0.00066	0.00051	0.00041	6
55565	-0.00057	-9e-05	-4e-05	0.00016	0.00026	0.00066	0.00051	0.00041	6
55566	-0.00057	-9e-05	-4e-05	0.00016	0.00026	0.00066	0.00051	0.00041	6
55567	-0.00057	-9e-05	-4e-05	0.00016	0.00026	0.00066	0.00051	0.00041	6
55568	-0.00057	-9e-05	-4e-05	0.00016	0.00026	0.00066	0.00051	0.00041	6
55569	-0.00057	-9e-05	-4e-05	0.00016	0.00026	0.00066	0.00051	0.00041	6
55570	-0.00057	-9e-05	-4e-05	0.00016	0.00026	0.00066	0.00051	0.00041	6
55571	-0.00057	-9e-05	-4e-05	0.00016	0.00026	0.00066	0.00051	0.00041	6
55572	-0.00057	-9e-05	-4e-05	0.00016	0.00026	0.00066	0.00051	0.00041	6
55573	-0.00091	-0.00012	2e-05	0.00011	0.0003	-0.00016	-0.0003	2e-05	6
55574	-0.00091	-0.00012	2e-05	0.00011	0.0003	-0.00016	-0.0003	2e-05	6
55575	-0.00091	-0.00012	2e-05	0.00011	0.0003	-0.00016	-0.0003	2e-05	6
55576	-0.00091	-0.00012	2e-05	0.00011	0.0003	-0.00016	-0.0003	2e-05	6
55577	-0.00091	-0.00012	2e-05	0.00011	0.0003	-0.00016	-0.0003	2e-05	6
55578	-0.00091	-0.00012	2e-05	0.00011	0.0003	-0.00016	-0.0003	2e-05	6
55579	-0.00091	-0.00012	2e-05	0.00011	0.0003	-0.00016	-0.0003	2e-05	6
55580	-0.00091	-0.00012	2e-05	0.00011	0.0003	-0.00016	-0.0003	2e-05	6
55581	-0.00091	-0.00012	2e-05	0.00011	0.0003	-0.00016	-0.0003	2e-05	6
55582	0	1e-05	-2e-05	-0.00012	-0.00039	0.00042	-0.00024	0.00027	6
55583	0	1e-05	-2e-05	-0.00012	-0.00039	0.00042	-0.00024	0.00027	6
55584	0	1e-05	-2e-05	-0.00012	-0.00039	0.00042	-0.00024	0.00027	6
55585	0	1e-05	-2e-05	-0.00012	-0.00039	0.00042	-0.00024	0.00027	6
55587	0	1e-05	-2e-05	-0.00012	-0.00039	0.00042	-0.00024	0.00027	6
55589	0	1e-05	-2e-05	-0.00012	-0.00039	0.00042	-0.00024	0.00027	6
55590	0	1e-05	-2e-05	-0.00012	-0.00039	0.00042	-0.00024	0.00027	6
55591	0	1e-05	-2e-05	-0.00012	-0.00039	0.00042	-0.00024	0.00027	6
55592	0	1e-05	-2e-05	-0.00012	-0.00039	0.00042	-0.00024	0.00027	6
55593	0	1e-05	-2e-05	-0.00012	-0.00039	0.00042	-0.00024	0.00027	6
55594	0	1e-05	-2e-05	-0.00012	-0.00039	0.00042	-0.00024	0.00027	6
55595	0	1e-05	-2e-05	-0.00012	-0.00039	0.00042	-0.00024	0.00027	6
55596	0	1e-05	-2e-05	-0.00012	-0.00039	0.00042	-0.00024	0.00027	6
55597	9e-05	6e-05	2e-05	-2e-05	6e-05	4e-05	7e-05	0.00055	6
55598	0.0006	0.00011	1e-05	-1e-05	4e-05	-0.00025	0.00039	-0.00017	6
55599	0.0006	0.00011	1e-05	-1e-05	4e-05	-0.00025	0.00039	-0.00017	6
55600	0.0006	0.00011	1e-05	-1e-05	4e-05	-0.00025	0.00039	-0.00017	6
55601	0.0006	0.00011	1e-05	-1e-05	4e-05	-0.00025	0.00039	-0.00017	6
55602	0.0006	0.00011	1e-05	-1e-05	4e-05	-0.00025	0.00039	-0.00017	6
55603	0.0006	0.00011	1e-05	-1e-05	4e-05	-0.00025	0.00039	-0.00017	6
55604	0.0006	0.00011	1e-05	-1e-05	4e-05	-0.00025	0.00039	-0.00017	6
55605	0.0006	0.00011	1e-05	-1e-05	4e-05	-0.00025	0.00039	-0.00017	6
55606	0.0006	0.00011	1e-05	-1e-05	4e-05	-0.00025	0.00039	-0.00017	6
55607	0.0006	0.00011	1e-05	-1e-05	4e-05	-0.00025	0.00039	-0.00017	6
55608	0.0006	0.00011	1e-05	-1e-05	4e-05	-0.00025	0.00039	-0.00017	6
55609	0.0006	0.00011	1e-05	-1e-05	4e-05	-0.00025	0.00039	-0.00017	6
55610	0.0006	0.00011	1e-05	-1e-05	4e-05	-0.00025	0.00039	-0.00017	6
55611	0.0006	0.00011	1e-05	-1e-05	4e-05	-0.00025	0.00039	-0.00017	6
55612	0.0006	0.00011	1e-05	-1e-05	4e-05	-0.00025	0.00039	-0.00017	6
55613	0.0006	0.00011	1e-05	-1e-05	4e-05	-0.00025	0.00039	-0.00017	6
55614	0.0006	0.00011	1e-05	-1e-05	4e-05	-0.00025	0.00039	-0.00017	6
55615	0.0006	0.00011	1e-05	-1e-05	4e-05	-0.00025	0.00039	-0.00017	6
55616	0.0006	0.00011	1e-05	-1e-05	4e-05	-0.00025	0.00039	-0.00017	6
55617	0.0006	0.00011	1e-05	-1e-05	4e-05	-0.00025	0.00039	-0.00017	6
55618	0.0006	0.00011	1e-05	-1e-05	4e-05	-0.00025	0.00039	-0.00017	6
55619	0.00051	0.00017	0	-1e-05	0.00019	0.00054	0.00049	0.00051	6
55620	0.00051	0.00017	0	-1e-05	0.00019	0.00054	0.00049	0.00051	6
55621	0.00049	-2e-05	-5e-05	-7e-05	-0.00027	-0.00032	1e-05	1e-05	6
55622	0.00049	-2e-05	-5e-05	-7e-05	-0.00027	-0.00032	1e-05	1e-05	6
55623	0.00049	-2e-05	-5e-05	-7e-05	-0.00027	-0.00032	1e-05	1e-05	6
55624	0.00049	-2e-05	-5e-05	-7e-05	-0.00027	-0.00032	1e-05	1e-05	6
55625	0.00049	-2e-05	-5e-05	-7e-05	-0.00027	-0.00032	1e-05	1e-05	6
55626	0.00049	-2e-05	-5e-05	-7e-05	-0.00027	-0.00032	1e-05	1e-05	6
55627	0.00049	-2e-05	-5e-05	-7e-05	-0.00027	-0.00032	1e-05	1e-05	6
55628	0.00049	-2e-05	-5e-05	-7e-05	-0.00027	-0.00032	1e-05	1e-05	6
55629	0.00049	-2e-05	-5e-05	-7e-05	-0.00027	-0.00032	1e-05	1e-05	6
55630	0.00049	-2e-05	-5e-05	-7e-05	-0.00027	-0.00032	1e-05	1e-05	6
55631	0.00049	-2e-05	-5e-05	-7e-05	-0.00027	-0.00032	1e-05	1e-05	6
55632	0.00049	-2e-05	-5e-05	-7e-05	-0.00027	-0.00032	1e-05	1e-05	6
55633	-0.00028	-1e-05	-3e-05	-0.00011	-0.00033	7e-05	0.00011	-0.00025	6
55634	-0.00028	-1e-05	-3e-05	-0.00011	-0.00033	7e-05	0.00011	-0.00025	6
55635	-0.00028	-1e-05	-3e-05	-0.00011	-0.00033	7e-05	0.00011	-0.00025	6
55637	-0.00028	-1e-05	-3e-05	-0.00011	-0.00033	7e-05	0.00011	-0.00025	6
55639	-0.00028	-1e-05	-3e-05	-0.00011	-0.00033	7e-05	0.00011	-0.00025	6
55640	-0.00028	-1e-05	-3e-05	-0.00011	-0.00033	7e-05	0.00011	-0.00025	6
55641	-0.00028	-1e-05	-3e-05	-0.00011	-0.00033	7e-05	0.00011	-0.00025	6
55642	-0.00022	2e-05	4e-05	5e-05	9e-05	-0.00011	-0.00016	-0.00011	6
55643	-0.00022	2e-05	4e-05	5e-05	9e-05	-0.00011	-0.00016	-0.00011	6
55644	-0.00022	2e-05	4e-05	5e-05	9e-05	-0.00011	-0.00016	-0.00011	6
55645	-0.00022	2e-05	4e-05	5e-05	9e-05	-0.00011	-0.00016	-0.00011	6
55646	-0.00022	2e-05	4e-05	5e-05	9e-05	-0.00011	-0.00016	-0.00011	6
55647	-0.00022	2e-05	4e-05	5e-05	9e-05	-0.00011	-0.00016	-0.00011	6
55648	-0.00022	2e-05	4e-05	5e-05	9e-05	-0.00011	-0.00016	-0.00011	6
55649	-0.00022	2e-05	4e-05	5e-05	9e-05	-0.00011	-0.00016	-0.00011	6
55650	-0.00022	2e-05	4e-05	5e-05	9e-05	-0.00011	-0.00016	-0.00011	6
55651	-0.00022	2e-05	4e-05	5e-05	9e-05	-0.00011	-0.00016	-0.00011	6
55652	-0.00022	2e-05	4e-05	5e-05	9e-05	-0.00011	-0.00016	-0.00011	6
55653	-0.00022	2e-05	4e-05	5e-05	9e-05	-0.00011	-0.00016	-0.00011	6
55654	-0.00022	2e-05	4e-05	5e-05	9e-05	-0.00011	-0.00016	-0.00011	6
55655	-0.00022	2e-05	4e-05	5e-05	9e-05	-0.00011	-0.00016	-0.00011	6
55656	-0.00022	2e-05	4e-05	5e-05	9e-05	-0.00011	-0.00016	-0.00011	6
55657	-0.00027	-3e-05	2e-05	0.00011	0.00025	-0.00045	0.00016	-0.00034	6
55658	-0.00024	-5e-05	-1e-05	0.0001	1e-05	-0.00058	-0.00014	-0.00032	6
55659	0	-5e-05	-5e-05	-3e-05	0.00014	-0.00025	0.00016	9e-05	6
55660	0	-5e-05	-5e-05	-3e-05	0.00014	-0.00025	0.00016	9e-05	6
55661	0	-5e-05	-5e-05	-3e-05	0.00014	-0.00025	0.00016	9e-05	6
55662	0	-5e-05	-5e-05	-3e-05	0.00014	-0.00025	0.00016	9e-05	6
55663	0	-5e-05	-5e-05	-3e-05	0.00014	-0.00025	0.00016	9e-05	6
55664	0	-5e-05	-5e-05	-3e-05	0.00014	-0.00025	0.00016	9e-05	6
55665	0	-5e-05	-5e-05	-3e-05	0.00014	-0.00025	0.00016	9e-05	6
55666	0	-5e-05	-5e-05	-3e-05	0.00014	-0.00025	0.00016	9e-05	6
55667	0	-5e-05	-5e-05	-3e-05	0.00014	-0.00025	0.00016	9e-05	6
55668	0	-5e-05	-5e-05	-3e-05	0.00014	-0.00025	0.00016	9e-05	6
55669	0	-5e-05	-5e-05	-3e-05	0.00014	-0.00025	0.00016	9e-05	6
55670	0	-5e-05	-5e-05	-3e-05	0.00014	-0.00025	0.00016	9e-05	6
55671	0	-5e-05	-5e-05	-3e-05	0.00014	-0.00025	0.00016	9e-05	6
55672	0	-5e-05	-5e-05	-3e-05	0.00014	-0.00025	0.00016	9e-05	6
55673	0	-5e-05	-5e-05	-3e-05	0.00014	-0.00025	0.00016	9e-05	6
55674	0	-5e-05	-5e-05	-3e-05	0.00014	-0.00025	0.00016	9e-05	6
55675	0	-5e-05	-5e-05	-3e-05	0.00014	-0.00025	0.00016	9e-05	6
55676	0	-5e-05	-5e-05	-3e-05	0.00014	-0.00025	0.00016	9e-05	6
55677	0	-5e-05	-5e-05	-3e-05	0.00014	-0.00025	0.00016	9e-05	6
55678	0	-5e-05	-5e-05	-3e-05	0.00014	-0.00025	0.00016	9e-05	6
55679	0.00049	9e-05	9e-05	4e-05	-0.00045	0.00018	-0.00032	5e-05	6
55680	0.00049	9e-05	9e-05	4e-05	-0.00045	0.00018	-0.00032	5e-05	6
55681	-7e-05	5e-05	6e-05	5e-05	-0.00039	-0.00035	0.00018	-0.00016	6
55682	-7e-05	5e-05	6e-05	5e-05	-0.00039	-0.00035	0.00018	-0.00016	6
55683	-7e-05	5e-05	6e-05	5e-05	-0.00039	-0.00035	0.00018	-0.00016	6
55684	-7e-05	5e-05	6e-05	5e-05	-0.00039	-0.00035	0.00018	-0.00016	6
55685	-7e-05	5e-05	6e-05	5e-05	-0.00039	-0.00035	0.00018	-0.00016	6
55687	-7e-05	5e-05	6e-05	5e-05	-0.00039	-0.00035	0.00018	-0.00016	6
55689	-7e-05	5e-05	6e-05	5e-05	-0.00039	-0.00035	0.00018	-0.00016	6
55690	-7e-05	5e-05	6e-05	5e-05	-0.00039	-0.00035	0.00018	-0.00016	6
55691	-7e-05	5e-05	6e-05	5e-05	-0.00039	-0.00035	0.00018	-0.00016	6
55692	-7e-05	5e-05	6e-05	5e-05	-0.00039	-0.00035	0.00018	-0.00016	6
55693	-0.00043	2e-05	2e-05	-2e-05	-0.00023	-0.00079	-4e-05	-0.0001	6
55694	-0.00043	2e-05	2e-05	-2e-05	-0.00023	-0.00079	-4e-05	-0.0001	6
55695	-0.00043	2e-05	2e-05	-2e-05	-0.00023	-0.00079	-4e-05	-0.0001	6
55696	-0.00043	2e-05	2e-05	-2e-05	-0.00023	-0.00079	-4e-05	-0.0001	6
55697	-0.00043	2e-05	2e-05	-2e-05	-0.00023	-0.00079	-4e-05	-0.0001	6
55698	-0.00043	2e-05	2e-05	-2e-05	-0.00023	-0.00079	-4e-05	-0.0001	6
55699	-0.00043	2e-05	2e-05	-2e-05	-0.00023	-0.00079	-4e-05	-0.0001	6
55700	-0.00043	2e-05	2e-05	-2e-05	-0.00023	-0.00079	-4e-05	-0.0001	6
55701	-0.00043	2e-05	2e-05	-2e-05	-0.00023	-0.00079	-4e-05	-0.0001	6
55702	-0.00051	5e-05	0	-5e-05	-0.00021	-0.00042	-0.00044	0.0001	6
55703	-0.00051	5e-05	0	-5e-05	-0.00021	-0.00042	-0.00044	0.0001	6
55704	-0.00051	5e-05	0	-5e-05	-0.00021	-0.00042	-0.00044	0.0001	6
55705	-0.00051	5e-05	0	-5e-05	-0.00021	-0.00042	-0.00044	0.0001	6
55706	-0.00051	5e-05	0	-5e-05	-0.00021	-0.00042	-0.00044	0.0001	6
55707	-0.00051	5e-05	0	-5e-05	-0.00021	-0.00042	-0.00044	0.0001	6
55708	-0.00051	5e-05	0	-5e-05	-0.00021	-0.00042	-0.00044	0.0001	6
55709	-0.00051	5e-05	0	-5e-05	-0.00021	-0.00042	-0.00044	0.0001	6
55710	-0.00051	5e-05	0	-5e-05	-0.00021	-0.00042	-0.00044	0.0001	6
55711	-0.00051	5e-05	0	-5e-05	-0.00021	-0.00042	-0.00044	0.0001	6
55712	-0.00051	5e-05	0	-5e-05	-0.00021	-0.00042	-0.00044	0.0001	6
55713	-0.00051	5e-05	0	-5e-05	-0.00021	-0.00042	-0.00044	0.0001	6
55714	-0.00051	5e-05	0	-5e-05	-0.00021	-0.00042	-0.00044	0.0001	6
55715	-0.00051	5e-05	0	-5e-05	-0.00021	-0.00042	-0.00044	0.0001	6
55716	-0.00051	5e-05	0	-5e-05	-0.00021	-0.00042	-0.00044	0.0001	6
55717	0.00039	4e-05	0	-2e-05	0.00052	-0.00047	9e-05	-0.00015	6
55718	0.00015	-1e-05	3e-05	-4e-05	-0.0002	0.00034	0.0007	-8e-05	6
55719	0.00015	-1e-05	3e-05	-4e-05	-0.0002	0.00034	0.0007	-8e-05	6
55720	0.00015	-1e-05	3e-05	-4e-05	-0.0002	0.00034	0.0007	-8e-05	6
55721	0.00015	-1e-05	3e-05	-4e-05	-0.0002	0.00034	0.0007	-8e-05	6
55722	0.00015	-1e-05	3e-05	-4e-05	-0.0002	0.00034	0.0007	-8e-05	6
55723	0.00015	-1e-05	3e-05	-4e-05	-0.0002	0.00034	0.0007	-8e-05	6
55724	0.00015	-1e-05	3e-05	-4e-05	-0.0002	0.00034	0.0007	-8e-05	6
55725	0.00015	-1e-05	3e-05	-4e-05	-0.0002	0.00034	0.0007	-8e-05	6
55726	0.00015	-1e-05	3e-05	-4e-05	-0.0002	0.00034	0.0007	-8e-05	6
55727	0.00015	-1e-05	3e-05	-4e-05	-0.0002	0.00034	0.0007	-8e-05	6
55728	0.00015	-1e-05	3e-05	-4e-05	-0.0002	0.00034	0.0007	-8e-05	6
55729	0.00015	-1e-05	3e-05	-4e-05	-0.0002	0.00034	0.0007	-8e-05	6
55730	0.00015	-1e-05	3e-05	-4e-05	-0.0002	0.00034	0.0007	-8e-05	6
55731	0.00015	-1e-05	3e-05	-4e-05	-0.0002	0.00034	0.0007	-8e-05	6
55732	0.00015	-1e-05	3e-05	-4e-05	-0.0002	0.00034	0.0007	-8e-05	6
55733	0.00015	-1e-05	3e-05	-4e-05	-0.0002	0.00034	0.0007	-8e-05	6
55734	0.00015	-1e-05	3e-05	-4e-05	-0.0002	0.00034	0.0007	-8e-05	6
55735	0.00015	-1e-05	3e-05	-4e-05	-0.0002	0.00034	0.0007	-8e-05	6
55737	0.00015	-1e-05	3e-05	-4e-05	-0.0002	0.00034	0.0007	-8e-05	6
55739	0.00015	-1e-05	3e-05	-4e-05	-0.0002	0.00034	0.0007	-8e-05	6
55740	0.00031	-2e-05	-5e-05	-0.00011	-0.00068	-0.00051	-3e-05	-0.00026	6
55741	-8e-05	-2e-05	-8e-05	-1e-05	0.00054	0.00048	2e-05	-6e-05	6
55742	-8e-05	-2e-05	-8e-05	-1e-05	0.00054	0.00048	2e-05	-6e-05	6
55743	-8e-05	-2e-05	-8e-05	-1e-05	0.00054	0.00048	2e-05	-6e-05	6
55744	-8e-05	-2e-05	-8e-05	-1e-05	0.00054	0.00048	2e-05	-6e-05	6
55745	-8e-05	-2e-05	-8e-05	-1e-05	0.00054	0.00048	2e-05	-6e-05	6
55746	-8e-05	-2e-05	-8e-05	-1e-05	0.00054	0.00048	2e-05	-6e-05	6
55747	-8e-05	-2e-05	-8e-05	-1e-05	0.00054	0.00048	2e-05	-6e-05	6
55748	-8e-05	-2e-05	-8e-05	-1e-05	0.00054	0.00048	2e-05	-6e-05	6
55749	-8e-05	-2e-05	-8e-05	-1e-05	0.00054	0.00048	2e-05	-6e-05	6
55750	-8e-05	-2e-05	-8e-05	-1e-05	0.00054	0.00048	2e-05	-6e-05	6
55751	-8e-05	-2e-05	-8e-05	-1e-05	0.00054	0.00048	2e-05	-6e-05	6
55752	-8e-05	-2e-05	-8e-05	-1e-05	0.00054	0.00048	2e-05	-6e-05	6
55753	-0.00085	-0.00016	-9e-05	-6e-05	0.00024	0.00054	-6e-05	-0.00028	6
55754	-0.00085	-0.00016	-9e-05	-6e-05	0.00024	0.00054	-6e-05	-0.00028	6
