13655	-0.00014	0	-0.00024	-0.00046	-0.00011	-0.00082	7e-05	-6e-05	4
13656	-0.00014	0	-0.00024	-0.00046	-0.00011	-0.00082	7e-05	-6e-05	4
13657	-0.00014	0	-0.00024	-0.00046	-0.00011	-0.00082	7e-05	-6e-05	4
13658	-0.00014	0	-0.00024	-0.00046	-0.00011	-0.00082	7e-05	-6e-05	4
13659	-4e-05	-1e-05	0.00011	8e-05	0.00051	0.00045	-2e-05	-0.00012	4
13660	0	0	4e-05	-0.00061	-0.00043	1e-05	8e-05	-9e-05	4
13661	0	0	4e-05	-0.00061	-0.00043	1e-05	8e-05	-9e-05	4
13662	0	0	4e-05	-0.00061	-0.00043	1e-05	8e-05	-9e-05	4
13663	0	0	4e-05	-0.00061	-0.00043	1e-05	8e-05	-9e-05	4
13664	0	0	4e-05	-0.00061	-0.00043	1e-05	8e-05	-9e-05	4
13665	0	0	4e-05	-0.00061	-0.00043	1e-05	8e-05	-9e-05	4
13666	0	0	4e-05	-0.00061	-0.00043	1e-05	8e-05	-9e-05	4
13667	0	0	4e-05	-0.00061	-0.00043	1e-05	8e-05	-9e-05	4
13668	0	0	4e-05	-0.00061	-0.00043	1e-05	8e-05	-9e-05	4
13669	0	0	4e-05	-0.00061	-0.00043	1e-05	8e-05	-9e-05	4
13670	0	0	4e-05	-0.00061	-0.00043	1e-05	8e-05	-9e-05	4
13671	0	0	4e-05	-0.00061	-0.00043	1e-05	8e-05	-9e-05	4
13672	0	0	4e-05	-0.00061	-0.00043	1e-05	8e-05	-9e-05	4
13673	0	0	4e-05	-0.00061	-0.00043	1e-05	8e-05	-9e-05	4
13674	0	0	4e-05	-0.00061	-0.00043	1e-05	8e-05	-9e-05	4
13675	0	0	4e-05	-0.00061	-0.00043	1e-05	8e-05	-9e-05	4
13676	0	0	4e-05	-0.00061	-0.00043	1e-05	8e-05	-9e-05	4
13677	0	0	4e-05	-0.00061	-0.00043	1e-05	8e-05	-9e-05	4
13678	0	0	4e-05	-0.00061	-0.00043	1e-05	8e-05	-9e-05	4
13679	0	0	4e-05	-0.00061	-0.00043	1e-05	8e-05	-9e-05	4
13680	0	0	4e-05	-0.00061	-0.00043	1e-05	8e-05	-9e-05	4
13681	0	0	4e-05	-0.00061	-0.00043	1e-05	8e-05	-9e-05	4
13682	-6e-05	1e-05	-0.00012	-0.00021	7e-05	0.00063	-5e-05	7e-05	4
13683	-9e-05	-1e-05	-0.00015	-0.00044	-0.00064	-0.00059	-0.00011	-0.00012	4
13684	-9e-05	-1e-05	-0.00015	-0.00044	-0.00064	-0.00059	-0.00011	-0.00012	4
13685	-9e-05	-1e-05	-0.00015	-0.00044	-0.00064	-0.00059	-0.00011	-0.00012	4
13686	-9e-05	-1e-05	-0.00015	-0.00044	-0.00064	-0.00059	-0.00011	-0.00012	4
13688	-9e-05	-1e-05	-0.00015	-0.00044	-0.00064	-0.00059	-0.00011	-0.00012	4
13689	-9e-05	-1e-05	-0.00015	-0.00044	-0.00064	-0.00059	-0.00011	-0.00012	4
13690	-9e-05	-1e-05	-0.00015	-0.00044	-0.00064	-0.00059	-0.00011	-0.00012	4
13691	-9e-05	-1e-05	-0.00015	-0.00044	-0.00064	-0.00059	-0.00011	-0.00012	4
13692	-9e-05	-1e-05	-0.00015	-0.00044	-0.00064	-0.00059	-0.00011	-0.00012	4
13693	-9e-05	-1e-05	-0.00015	-0.00044	-0.00064	-0.00059	-0.00011	-0.00012	4
13694	-9e-05	-1e-05	-0.00015	-0.00044	-0.00064	-0.00059	-0.00011	-0.00012	4
13695	-9e-05	-1e-05	-0.00015	-0.00044	-0.00064	-0.00059	-0.00011	-0.00012	4
13696	-9e-05	-1e-05	-0.00015	-0.00044	-0.00064	-0.00059	-0.00011	-0.00012	4
13697	-9e-05	-1e-05	-0.00015	-0.00044	-0.00064	-0.00059	-0.00011	-0.00012	4
13698	-9e-05	-1e-05	-0.00015	-0.00044	-0.00064	-0.00059	-0.00011	-0.00012	4
13699	-9e-05	-1e-05	-0.00015	-0.00044	-0.00064	-0.00059	-0.00011	-0.00012	4
13700	-9e-05	-1e-05	-0.00015	-0.00044	-0.00064	-0.00059	-0.00011	-0.00012	4
13701	-9e-05	-1e-05	-0.00015	-0.00044	-0.00064	-0.00059	-0.00011	-0.00012	4
13702	-9e-05	-1e-05	-0.00015	-0.00044	-0.00064	-0.00059	-0.00011	-0.00012	4
13703	-9e-05	-1e-05	-0.00015	-0.00044	-0.00064	-0.00059	-0.00011	-0.00012	4
13704	-9e-05	-1e-05	-0.00015	-0.00044	-0.00064	-0.00059	-0.00011	-0.00012	4
13705	0.00026	-6e-05	0.00039	0.0004	0.00049	-0.00087	0.00041	0.00039	4
13706	-0.00011	-1e-05	-0.0002	0.00045	0.00077	0.00031	-0.0002	-0.00024	4
13707	-0.00011	-1e-05	-0.0002	0.00045	0.00077	0.00031	-0.0002	-0.00024	4
13708	-0.00011	-1e-05	-0.0002	0.00045	0.00077	0.00031	-0.0002	-0.00024	4
13709	-0.00011	-1e-05	-0.0002	0.00045	0.00077	0.00031	-0.0002	-0.00024	4
13710	-0.00011	-1e-05	-0.0002	0.00045	0.00077	0.00031	-0.0002	-0.00024	4
13711	-0.00011	-1e-05	-0.0002	0.00045	0.00077	0.00031	-0.0002	-0.00024	4
13712	-0.00011	-1e-05	-0.0002	0.00045	0.00077	0.00031	-0.0002	-0.00024	4
13713	-0.00011	-1e-05	-0.0002	0.00045	0.00077	0.00031	-0.0002	-0.00024	4
13714	-0.00011	-1e-05	-0.0002	0.00045	0.00077	0.00031	-0.0002	-0.00024	4
13715	-0.00011	-1e-05	-0.0002	0.00045	0.00077	0.00031	-0.0002	-0.00024	4
13716	-0.00011	-1e-05	-0.0002	0.00045	0.00077	0.00031	-0.0002	-0.00024	4
13717	-0.00011	-1e-05	-0.0002	0.00045	0.00077	0.00031	-0.0002	-0.00024	4
13718	-0.00011	-1e-05	-0.0002	0.00045	0.00077	0.00031	-0.0002	-0.00024	4
13719	-0.0001	-3e-05	-0.00011	-0.00019	0.00015	-7e-05	-6e-05	-0.00015	4
13720	-0.0001	-3e-05	-0.00011	-0.00019	0.00015	-7e-05	-6e-05	-0.00015	4
13721	-0.0001	-3e-05	-0.00011	-0.00019	0.00015	-7e-05	-6e-05	-0.00015	4
13722	-0.0001	-3e-05	-0.00011	-0.00019	0.00015	-7e-05	-6e-05	-0.00015	4
13723	-0.0001	-3e-05	-0.00011	-0.00019	0.00015	-7e-05	-6e-05	-0.00015	4
13724	-0.0001	-3e-05	-0.00011	-0.00019	0.00015	-7e-05	-6e-05	-0.00015	4
13725	-0.0001	-3e-05	-0.00011	-0.00019	0.00015	-7e-05	-6e-05	-0.00015	4
13726	-0.0001	-3e-05	-0.00011	-0.00019	0.00015	-7e-05	-6e-05	-0.00015	4
13727	3e-05	-2e-05	0.0001	0.0002	0.00113	-0.00017	6e-05	5e-05	4
13728	3e-05	-2e-05	0.0001	0.0002	0.00113	-0.00017	6e-05	5e-05	4
13729	3e-05	-2e-05	0.0001	0.0002	0.00113	-0.00017	6e-05	5e-05	4
13730	3e-05	-2e-05	0.0001	0.0002	0.00113	-0.00017	6e-05	5e-05	4
13731	3e-05	-2e-05	0.0001	0.0002	0.00113	-0.00017	6e-05	5e-05	4
13732	3e-05	-2e-05	0.0001	0.0002	0.00113	-0.00017	6e-05	5e-05	4
13733	3e-05	-2e-05	0.0001	0.0002	0.00113	-0.00017	6e-05	5e-05	4
13734	3e-05	-2e-05	0.0001	0.0002	0.00113	-0.00017	6e-05	5e-05	4
13735	3e-05	-2e-05	0.0001	0.0002	0.00113	-0.00017	6e-05	5e-05	4
13736	3e-05	-2e-05	0.0001	0.0002	0.00113	-0.00017	6e-05	5e-05	4
13738	3e-05	-2e-05	0.0001	0.0002	0.00113	-0.00017	6e-05	5e-05	4
13739	3e-05	-2e-05	0.0001	0.0002	0.00113	-0.00017	6e-05	5e-05	4
13740	3e-05	-2e-05	0.0001	0.0002	0.00113	-0.00017	6e-05	5e-05	4
13741	3e-05	-2e-05	0.0001	0.0002	0.00113	-0.00017	6e-05	5e-05	4
13742	3e-05	-2e-05	0.0001	0.0002	0.00113	-0.00017	6e-05	5e-05	4
13743	-2e-05	0	-2e-05	-0.00097	-0.00076	0.00095	-1e-05	-0.0001	4
13744	-0.00013	-2e-05	-0.00034	-0.00069	-0.00098	3e-05	-0.00052	-0.00017	4
13745	-0.00013	-2e-05	-0.00034	-0.00069	-0.00098	3e-05	-0.00052	-0.00017	4
13746	-0.00013	-2e-05	-0.00034	-0.00069	-0.00098	3e-05	-0.00052	-0.00017	4
13747	-0.00013	-2e-05	-0.00034	-0.00069	-0.00098	3e-05	-0.00052	-0.00017	4
13748	-0.00013	-2e-05	-0.00034	-0.00069	-0.00098	3e-05	-0.00052	-0.00017	4
13749	-0.00013	-2e-05	-0.00034	-0.00069	-0.00098	3e-05	-0.00052	-0.00017	4
13750	-0.00013	-2e-05	-0.00034	-0.00069	-0.00098	3e-05	-0.00052	-0.00017	4
13751	-0.00013	-2e-05	-0.00034	-0.00069	-0.00098	3e-05	-0.00052	-0.00017	4
13752	-0.00013	-2e-05	-0.00034	-0.00069	-0.00098	3e-05	-0.00052	-0.00017	4
13753	-0.00013	-2e-05	-0.00034	-0.00069	-0.00098	3e-05	-0.00052	-0.00017	4
13754	-0.00013	-2e-05	-0.00034	-0.00069	-0.00098	3e-05	-0.00052	-0.00017	4
13755	-0.00013	-2e-05	-0.00034	-0.00069	-0.00098	3e-05	-0.00052	-0.00017	4
13756	-0.00013	-2e-05	-0.00034	-0.00069	-0.00098	3e-05	-0.00052	-0.00017	4
13757	-0.00013	-2e-05	-0.00034	-0.00069	-0.00098	3e-05	-0.00052	-0.00017	4
13758	-0.00013	-2e-05	-0.00034	-0.00069	-0.00098	3e-05	-0.00052	-0.00017	4
13759	-0.00013	-2e-05	-0.00034	-0.00069	-0.00098	3e-05	-0.00052	-0.00017	4
13760	-0.00013	-2e-05	-0.00034	-0.00069	-0.00098	3e-05	-0.00052	-0.00017	4
13761	-0.00013	-2e-05	-0.00034	-0.00069	-0.00098	3e-05	-0.00052	-0.00017	4
13762	-0.00013	-2e-05	-0.00034	-0.00069	-0.00098	3e-05	-0.00052	-0.00017	4
13763	-0.00013	-2e-05	-0.00034	-0.00069	-0.00098	3e-05	-0.00052	-0.00017	4
13764	-0.00013	-2e-05	-0.00034	-0.00069	-0.00098	3e-05	-0.00052	-0.00017	4
13765	-0.00013	-2e-05	-0.00034	-0.00069	-0.00098	3e-05	-0.00052	-0.00017	4
13766	0	1e-05	-1e-05	0.00036	0.00039	0.00011	6e-05	5e-05	4
13767	0	1e-05	-1e-05	0.00036	0.00039	0.00011	6e-05	5e-05	4
13768	0	1e-05	-1e-05	0.00036	0.00039	0.00011	6e-05	5e-05	4
13769	0	1e-05	-1e-05	0.00036	0.00039	0.00011	6e-05	5e-05	4
13770	0	1e-05	-1e-05	0.00036	0.00039	0.00011	6e-05	5e-05	4
13771	0	1e-05	-1e-05	0.00036	0.00039	0.00011	6e-05	5e-05	4
13772	0	1e-05	-1e-05	0.00036	0.00039	0.00011	6e-05	5e-05	4
13773	0	1e-05	-1e-05	0.00036	0.00039	0.00011	6e-05	5e-05	4
13774	0	1e-05	-1e-05	0.00036	0.00039	0.00011	6e-05	5e-05	4
13775	0	1e-05	-1e-05	0.00036	0.00039	0.00011	6e-05	5e-05	4
13776	0	1e-05	-1e-05	0.00036	0.00039	0.00011	6e-05	5e-05	4
13777	0	1e-05	-1e-05	0.00036	0.00039	0.00011	6e-05	5e-05	4
13778	0	1e-05	-1e-05	0.00036	0.00039	0.00011	6e-05	5e-05	4
13779	-0.00017	-4e-05	-0.00015	0.0004	-0.00026	0.00032	-0.00031	-0.00024	4
13780	-7e-05	-2e-05	-0.00026	0.00051	-0.00108	-2e-05	-0.00014	5e-05	4
13781	-7e-05	-2e-05	-0.00026	0.00051	-0.00108	-2e-05	-0.00014	5e-05	4
13782	-7e-05	-2e-05	-0.00026	0.00051	-0.00108	-2e-05	-0.00014	5e-05	4
13783	-7e-05	-2e-05	-0.00026	0.00051	-0.00108	-2e-05	-0.00014	5e-05	4
13784	-7e-05	-2e-05	-0.00026	0.00051	-0.00108	-2e-05	-0.00014	5e-05	4
13785	-7e-05	-2e-05	-0.00026	0.00051	-0.00108	-2e-05	-0.00014	5e-05	4
13786	-7e-05	-2e-05	-0.00026	0.00051	-0.00108	-2e-05	-0.00014	5e-05	4
13788	-7e-05	-2e-05	-0.00026	0.00051	-0.00108	-2e-05	-0.00014	5e-05	4
13789	-7e-05	-2e-05	-0.00026	0.00051	-0.00108	-2e-05	-0.00014	5e-05	4
13790	-7e-05	-2e-05	-0.00026	0.00051	-0.00108	-2e-05	-0.00014	5e-05	4
13791	-7e-05	-2e-05	-0.00026	0.00051	-0.00108	-2e-05	-0.00014	5e-05	4
13792	-7e-05	-2e-05	-0.00026	0.00051	-0.00108	-2e-05	-0.00014	5e-05	4
13793	-7e-05	-2e-05	-0.00026	0.00051	-0.00108	-2e-05	-0.00014	5e-05	4
13794	-7e-05	-2e-05	-0.00026	0.00051	-0.00108	-2e-05	-0.00014	5e-05	4
13795	-7e-05	-2e-05	-0.00026	0.00051	-0.00108	-2e-05	-0.00014	5e-05	4
13796	-7e-05	-2e-05	-0.00026	0.00051	-0.00108	-2e-05	-0.00014	5e-05	4
13797	-7e-05	-2e-05	-0.00026	0.00051	-0.00108	-2e-05	-0.00014	5e-05	4
13798	-7e-05	-2e-05	-0.00026	0.00051	-0.00108	-2e-05	-0.00014	5e-05	4
13799	-7e-05	-2e-05	-0.00026	0.00051	-0.00108	-2e-05	-0.00014	5e-05	4
13800	-7e-05	-2e-05	-0.00026	0.00051	-0.00108	-2e-05	-0.00014	5e-05	4
13801	-7e-05	-2e-05	-0.00026	0.00051	-0.00108	-2e-05	-0.00014	5e-05	4
13802	-0.0001	3e-05	-0.0001	0.00067	0.00091	-0.00079	-0.00025	-0.00016	4
13803	-0.00017	-2e-05	-0.00042	-0.00029	-0.00095	-0.00017	-0.00027	-0.00014	4
13804	-0.00017	-2e-05	-0.00042	-0.00029	-0.00095	-0.00017	-0.00027	-0.00014	4
13805	-0.00017	-2e-05	-0.00042	-0.00029	-0.00095	-0.00017	-0.00027	-0.00014	4
13806	-0.00017	-2e-05	-0.00042	-0.00029	-0.00095	-0.00017	-0.00027	-0.00014	4
13807	-0.00017	-2e-05	-0.00042	-0.00029	-0.00095	-0.00017	-0.00027	-0.00014	4
13808	-0.00017	-2e-05	-0.00042	-0.00029	-0.00095	-0.00017	-0.00027	-0.00014	4
13809	-0.00017	-2e-05	-0.00042	-0.00029	-0.00095	-0.00017	-0.00027	-0.00014	4
13810	-0.00017	-2e-05	-0.00042	-0.00029	-0.00095	-0.00017	-0.00027	-0.00014	4
13811	-0.00017	-2e-05	-0.00042	-0.00029	-0.00095	-0.00017	-0.00027	-0.00014	4
13812	-0.00017	-2e-05	-0.00042	-0.00029	-0.00095	-0.00017	-0.00027	-0.00014	4
13813	-0.00017	-2e-05	-0.00042	-0.00029	-0.00095	-0.00017	-0.00027	-0.00014	4
13814	-0.00017	-2e-05	-0.00042	-0.00029	-0.00095	-0.00017	-0.00027	-0.00014	4
13815	-0.00017	-2e-05	-0.00042	-0.00029	-0.00095	-0.00017	-0.00027	-0.00014	4
13816	-0.00017	-2e-05	-0.00042	-0.00029	-0.00095	-0.00017	-0.00027	-0.00014	4
13817	-0.00017	-2e-05	-0.00042	-0.00029	-0.00095	-0.00017	-0.00027	-0.00014	4
13818	-0.00017	-2e-05	-0.00042	-0.00029	-0.00095	-0.00017	-0.00027	-0.00014	4
13819	-0.00017	-2e-05	-0.00042	-0.00029	-0.00095	-0.00017	-0.00027	-0.00014	4
13820	-0.00017	-2e-05	-0.00042	-0.00029	-0.00095	-0.00017	-0.00027	-0.00014	4
13821	-0.00017	-2e-05	-0.00042	-0.00029	-0.00095	-0.00017	-0.00027	-0.00014	4
13822	-0.00017	-2e-05	-0.00042	-0.00029	-0.00095	-0.00017	-0.00027	-0.00014	4
13823	-0.00017	-2e-05	-0.00042	-0.00029	-0.00095	-0.00017	-0.00027	-0.00014	4
13824	-0.00017	-2e-05	-0.00042	-0.00029	-0.00095	-0.00017	-0.00027	-0.00014	4
13825	0.00021	0	0.00046	0.00019	-0.00058	0.00027	0.0004	0.0003	4
13826	-0.00017	1e-05	-0.00029	-0.00021	-0.00092	0.00027	-0.00039	-0.00019	4
13827	2e-05	-4e-05	0.00021	0.00057	0.00064	-0.00051	9e-05	5e-05	4
13828	2e-05	-4e-05	0.00021	0.00057	0.00064	-0.00051	9e-05	5e-05	4
13829	2e-05	-4e-05	0.00021	0.00057	0.00064	-0.00051	9e-05	5e-05	4
13830	2e-05	-4e-05	0.00021	0.00057	0.00064	-0.00051	9e-05	5e-05	4
13831	2e-05	-4e-05	0.00021	0.00057	0.00064	-0.00051	9e-05	5e-05	4
13832	2e-05	-4e-05	0.00021	0.00057	0.00064	-0.00051	9e-05	5e-05	4
13833	2e-05	-4e-05	0.00021	0.00057	0.00064	-0.00051	9e-05	5e-05	4
13834	2e-05	-4e-05	0.00021	0.00057	0.00064	-0.00051	9e-05	5e-05	4
13835	2e-05	-4e-05	0.00021	0.00057	0.00064	-0.00051	9e-05	5e-05	4
13836	2e-05	-4e-05	0.00021	0.00057	0.00064	-0.00051	9e-05	5e-05	4
13838	2e-05	-4e-05	0.00021	0.00057	0.00064	-0.00051	9e-05	5e-05	4
13839	-1e-05	0	2e-05	-0.00057	-0.00047	0.00032	-0.0003	-0.00016	4
13840	-1e-05	0	2e-05	-0.00057	-0.00047	0.00032	-0.0003	-0.00016	4
13841	-1e-05	0	2e-05	-0.00057	-0.00047	0.00032	-0.0003	-0.00016	4
13842	-1e-05	0	2e-05	-0.00057	-0.00047	0.00032	-0.0003	-0.00016	4
13843	-1e-05	0	2e-05	-0.00057	-0.00047	0.00032	-0.0003	-0.00016	4
13844	-1e-05	0	2e-05	-0.00057	-0.00047	0.00032	-0.0003	-0.00016	4
13845	-1e-05	0	2e-05	-0.00057	-0.00047	0.00032	-0.0003	-0.00016	4
13846	-1e-05	0	2e-05	-0.00057	-0.00047	0.00032	-0.0003	-0.00016	4
13847	-6e-05	-1e-05	2e-05	-0.00041	-0.00072	0.00035	-0.00023	-0.00011	4
13848	-6e-05	-1e-05	2e-05	-0.00041	-0.00072	0.00035	-0.00023	-0.00011	4
13849	-6e-05	-1e-05	2e-05	-0.00041	-0.00072	0.00035	-0.00023	-0.00011	4
13850	-6e-05	-1e-05	2e-05	-0.00041	-0.00072	0.00035	-0.00023	-0.00011	4
13851	-6e-05	-1e-05	2e-05	-0.00041	-0.00072	0.00035	-0.00023	-0.00011	4
13852	-6e-05	-1e-05	2e-05	-0.00041	-0.00072	0.00035	-0.00023	-0.00011	4
13853	-6e-05	-1e-05	2e-05	-0.00041	-0.00072	0.00035	-0.00023	-0.00011	4
13854	-6e-05	-1e-05	2e-05	-0.00041	-0.00072	0.00035	-0.00023	-0.00011	4
13855	-6e-05	-1e-05	2e-05	-0.00041	-0.00072	0.00035	-0.00023	-0.00011	4
13856	-6e-05	-1e-05	2e-05	-0.00041	-0.00072	0.00035	-0.00023	-0.00011	4
13857	-6e-05	-1e-05	2e-05	-0.00041	-0.00072	0.00035	-0.00023	-0.00011	4
13858	-6e-05	-1e-05	2e-05	-0.00041	-0.00072	0.00035	-0.00023	-0.00011	4
13859	-6e-05	-1e-05	2e-05	-0.00041	-0.00072	0.00035	-0.00023	-0.00011	4
13860	-6e-05	-1e-05	2e-05	-0.00041	-0.00072	0.00035	-0.00023	-0.00011	4
13861	-6e-05	-1e-05	2e-05	-0.00041	-0.00072	0.00035	-0.00023	-0.00011	4
13862	-7e-05	-2e-05	-0.00014	-0.00031	-0.00073	-0.00048	-7e-05	-4e-05	4
13863	9e-05	1e-05	0.00036	0.00071	0.00048	-0.00027	0.00039	2e-05	4
13864	9e-05	1e-05	0.00036	0.00071	0.00048	-0.00027	0.00039	2e-05	4
13865	9e-05	1e-05	0.00036	0.00071	0.00048	-0.00027	0.00039	2e-05	4
13866	9e-05	1e-05	0.00036	0.00071	0.00048	-0.00027	0.00039	2e-05	4
13867	9e-05	1e-05	0.00036	0.00071	0.00048	-0.00027	0.00039	2e-05	4
13868	9e-05	1e-05	0.00036	0.00071	0.00048	-0.00027	0.00039	2e-05	4
13869	9e-05	1e-05	0.00036	0.00071	0.00048	-0.00027	0.00039	2e-05	4
13870	9e-05	1e-05	0.00036	0.00071	0.00048	-0.00027	0.00039	2e-05	4
13871	9e-05	1e-05	0.00036	0.00071	0.00048	-0.00027	0.00039	2e-05	4
13872	9e-05	1e-05	0.00036	0.00071	0.00048	-0.00027	0.00039	2e-05	4
13873	9e-05	1e-05	0.00036	0.00071	0.00048	-0.00027	0.00039	2e-05	4
13874	9e-05	1e-05	0.00036	0.00071	0.00048	-0.00027	0.00039	2e-05	4
13875	9e-05	1e-05	0.00036	0.00071	0.00048	-0.00027	0.00039	2e-05	4
13876	9e-05	1e-05	0.00036	0.00071	0.00048	-0.00027	0.00039	2e-05	4
13877	9e-05	1e-05	0.00036	0.00071	0.00048	-0.00027	0.00039	2e-05	4
13878	9e-05	1e-05	0.00036	0.00071	0.00048	-0.00027	0.00039	2e-05	4
13879	9e-05	1e-05	0.00036	0.00071	0.00048	-0.00027	0.00039	2e-05	4
13880	9e-05	1e-05	0.00036	0.00071	0.00048	-0.00027	0.00039	2e-05	4
13881	9e-05	1e-05	0.00036	0.00071	0.00048	-0.00027	0.00039	2e-05	4
13882	9e-05	1e-05	0.00036	0.00071	0.00048	-0.00027	0.00039	2e-05	4
13883	9e-05	1e-05	0.00036	0.00071	0.00048	-0.00027	0.00039	2e-05	4
13884	9e-05	1e-05	0.00036	0.00071	0.00048	-0.00027	0.00039	2e-05	4
13885	-0.00023	1e-05	-0.00053	0.0004	-0.00041	-0.0002	-0.0004	-0.00018	4
13886	5e-05	1e-05	-8e-05	-0.00058	-0.00069	-0.0005	0.00034	9e-05	4
13889	5e-05	1e-05	-8e-05	-0.00058	-0.00069	-0.0005	0.00034	9e-05	4
13890	5e-05	1e-05	-8e-05	-0.00058	-0.00069	-0.0005	0.00034	9e-05	4
13891	5e-05	1e-05	-8e-05	-0.00058	-0.00069	-0.0005	0.00034	9e-05	4
13892	5e-05	1e-05	-8e-05	-0.00058	-0.00069	-0.0005	0.00034	9e-05	4
13893	5e-05	1e-05	-8e-05	-0.00058	-0.00069	-0.0005	0.00034	9e-05	4
13894	5e-05	1e-05	-8e-05	-0.00058	-0.00069	-0.0005	0.00034	9e-05	4
13895	5e-05	1e-05	-8e-05	-0.00058	-0.00069	-0.0005	0.00034	9e-05	4
13896	5e-05	1e-05	-8e-05	-0.00058	-0.00069	-0.0005	0.00034	9e-05	4
13897	5e-05	1e-05	-8e-05	-0.00058	-0.00069	-0.0005	0.00034	9e-05	4
13898	5e-05	1e-05	-8e-05	-0.00058	-0.00069	-0.0005	0.00034	9e-05	4
13899	-2e-05	-1e-05	-5e-05	0.00047	0.00012	-0.00064	7e-05	8e-05	4
13900	-2e-05	-1e-05	-5e-05	0.00047	0.00012	-0.00064	7e-05	8e-05	4
13901	-2e-05	-1e-05	-5e-05	0.00047	0.00012	-0.00064	7e-05	8e-05	4
13902	-2e-05	-1e-05	-5e-05	0.00047	0.00012	-0.00064	7e-05	8e-05	4
13903	-2e-05	-1e-05	-5e-05	0.00047	0.00012	-0.00064	7e-05	8e-05	4
13904	-2e-05	-1e-05	-5e-05	0.00047	0.00012	-0.00064	7e-05	8e-05	4
13905	-2e-05	-1e-05	-5e-05	0.00047	0.00012	-0.00064	7e-05	8e-05	4
13906	-2e-05	-1e-05	-5e-05	0.00047	0.00012	-0.00064	7e-05	8e-05	4
13907	-0.00011	-1e-05	-0.00018	-0.00088	-0.00098	0.00055	-0.00056	-0.0002	4
13908	-0.00011	-1e-05	-0.00018	-0.00088	-0.00098	0.00055	-0.00056	-0.0002	4
13909	-0.00011	-1e-05	-0.00018	-0.00088	-0.00098	0.00055	-0.00056	-0.0002	4
13910	-0.00011	-1e-05	-0.00018	-0.00088	-0.00098	0.00055	-0.00056	-0.0002	4
13911	-0.00011	-1e-05	-0.00018	-0.00088	-0.00098	0.00055	-0.00056	-0.0002	4
13912	-0.00011	-1e-05	-0.00018	-0.00088	-0.00098	0.00055	-0.00056	-0.0002	4
13913	-0.00011	-1e-05	-0.00018	-0.00088	-0.00098	0.00055	-0.00056	-0.0002	4
13914	-0.00011	-1e-05	-0.00018	-0.00088	-0.00098	0.00055	-0.00056	-0.0002	4
13915	-0.00011	-1e-05	-0.00018	-0.00088	-0.00098	0.00055	-0.00056	-0.0002	4
13916	-0.00011	-1e-05	-0.00018	-0.00088	-0.00098	0.00055	-0.00056	-0.0002	4
13917	-0.00011	-1e-05	-0.00018	-0.00088	-0.00098	0.00055	-0.00056	-0.0002	4
13918	-0.00011	-1e-05	-0.00018	-0.00088	-0.00098	0.00055	-0.00056	-0.0002	4
13919	-0.00011	-1e-05	-0.00018	-0.00088	-0.00098	0.00055	-0.00056	-0.0002	4
13920	-0.00011	-1e-05	-0.00018	-0.00088	-0.00098	0.00055	-0.00056	-0.0002	4
13921	-0.00011	-1e-05	-0.00018	-0.00088	-0.00098	0.00055	-0.00056	-0.0002	4
13922	8e-05	-1e-05	7e-05	-0.00023	0.00027	-4e-05	-4e-05	0.00011	4
13923	-7e-05	-6e-05	0.00018	0.00053	0.0011	0.00045	-0.00028	-0.0002	4
13924	-7e-05	-6e-05	0.00018	0.00053	0.0011	0.00045	-0.00028	-0.0002	4
13925	-7e-05	-6e-05	0.00018	0.00053	0.0011	0.00045	-0.00028	-0.0002	4
13926	-7e-05	-6e-05	0.00018	0.00053	0.0011	0.00045	-0.00028	-0.0002	4
13927	-7e-05	-6e-05	0.00018	0.00053	0.0011	0.00045	-0.00028	-0.0002	4
13928	-7e-05	-6e-05	0.00018	0.00053	0.0011	0.00045	-0.00028	-0.0002	4
13929	-7e-05	-6e-05	0.00018	0.00053	0.0011	0.00045	-0.00028	-0.0002	4
13930	-7e-05	-6e-05	0.00018	0.00053	0.0011	0.00045	-0.00028	-0.0002	4
13931	-7e-05	-6e-05	0.00018	0.00053	0.0011	0.00045	-0.00028	-0.0002	4
13932	-7e-05	-6e-05	0.00018	0.00053	0.0011	0.00045	-0.00028	-0.0002	4
13933	-7e-05	-6e-05	0.00018	0.00053	0.0011	0.00045	-0.00028	-0.0002	4
13934	-7e-05	-6e-05	0.00018	0.00053	0.0011	0.00045	-0.00028	-0.0002	4
13935	-7e-05	-6e-05	0.00018	0.00053	0.0011	0.00045	-0.00028	-0.0002	4
13936	-7e-05	-6e-05	0.00018	0.00053	0.0011	0.00045	-0.00028	-0.0002	4
13938	-7e-05	-6e-05	0.00018	0.00053	0.0011	0.00045	-0.00028	-0.0002	4
13939	-7e-05	-6e-05	0.00018	0.00053	0.0011	0.00045	-0.00028	-0.0002	4
13940	-7e-05	-6e-05	0.00018	0.00053	0.0011	0.00045	-0.00028	-0.0002	4
13941	-7e-05	-6e-05	0.00018	0.00053	0.0011	0.00045	-0.00028	-0.0002	4
13942	-7e-05	-6e-05	0.00018	0.00053	0.0011	0.00045	-0.00028	-0.0002	4
13943	-7e-05	-6e-05	0.00018	0.00053	0.0011	0.00045	-0.00028	-0.0002	4
13944	-7e-05	-6e-05	0.00018	0.00053	0.0011	0.00045	-0.00028	-0.0002	4
13945	-8e-05	1e-05	-0.0001	-0.00044	-0.00049	0.00028	-8e-05	-0.00019	4
13946	6e-05	1e-05	0	0.00045	0.00091	0.00065	6e-05	0.00013	4
13947	6e-05	1e-05	0	0.00045	0.00091	0.00065	6e-05	0.00013	4
13948	6e-05	1e-05	0	0.00045	0.00091	0.00065	6e-05	0.00013	4
13949	6e-05	1e-05	0	0.00045	0.00091	0.00065	6e-05	0.00013	4
13950	6e-05	1e-05	0	0.00045	0.00091	0.00065	6e-05	0.00013	4
13951	6e-05	1e-05	0	0.00045	0.00091	0.00065	6e-05	0.00013	4
13952	6e-05	1e-05	0	0.00045	0.00091	0.00065	6e-05	0.00013	4
13953	6e-05	1e-05	0	0.00045	0.00091	0.00065	6e-05	0.00013	4
13954	6e-05	1e-05	0	0.00045	0.00091	0.00065	6e-05	0.00013	4
13955	6e-05	1e-05	0	0.00045	0.00091	0.00065	6e-05	0.00013	4
13956	6e-05	1e-05	0	0.00045	0.00091	0.00065	6e-05	0.00013	4
13957	6e-05	1e-05	0	0.00045	0.00091	0.00065	6e-05	0.00013	4
13958	6e-05	1e-05	0	0.00045	0.00091	0.00065	6e-05	0.00013	4
13959	6e-05	-1e-05	0.00013	-0.00047	-0.00109	0.00068	-0.00018	8e-05	4
13960	6e-05	-1e-05	0.00013	-0.00047	-0.00109	0.00068	-0.00018	8e-05	4
13961	6e-05	-1e-05	0.00013	-0.00047	-0.00109	0.00068	-0.00018	8e-05	4
13962	6e-05	-1e-05	0.00013	-0.00047	-0.00109	0.00068	-0.00018	8e-05	4
13963	6e-05	-1e-05	0.00013	-0.00047	-0.00109	0.00068	-0.00018	8e-05	4
13964	6e-05	-1e-05	0.00013	-0.00047	-0.00109	0.00068	-0.00018	8e-05	4
13965	6e-05	-1e-05	0.00013	-0.00047	-0.00109	0.00068	-0.00018	8e-05	4
13966	6e-05	-1e-05	0.00013	-0.00047	-0.00109	0.00068	-0.00018	8e-05	4
13967	3e-05	2e-05	-5e-05	-0.00086	-0.00115	0.00024	6e-05	3e-05	4
13968	3e-05	2e-05	-5e-05	-0.00086	-0.00115	0.00024	6e-05	3e-05	4
13969	3e-05	2e-05	-5e-05	-0.00086	-0.00115	0.00024	6e-05	3e-05	4
13970	3e-05	2e-05	-5e-05	-0.00086	-0.00115	0.00024	6e-05	3e-05	4
13971	3e-05	2e-05	-5e-05	-0.00086	-0.00115	0.00024	6e-05	3e-05	4
13972	3e-05	2e-05	-5e-05	-0.00086	-0.00115	0.00024	6e-05	3e-05	4
13973	3e-05	2e-05	-5e-05	-0.00086	-0.00115	0.00024	6e-05	3e-05	4
13974	3e-05	2e-05	-5e-05	-0.00086	-0.00115	0.00024	6e-05	3e-05	4
13975	3e-05	2e-05	-5e-05	-0.00086	-0.00115	0.00024	6e-05	3e-05	4
13976	3e-05	2e-05	-5e-05	-0.00086	-0.00115	0.00024	6e-05	3e-05	4
13977	3e-05	2e-05	-5e-05	-0.00086	-0.00115	0.00024	6e-05	3e-05	4
13978	3e-05	2e-05	-5e-05	-0.00086	-0.00115	0.00024	6e-05	3e-05	4
13979	3e-05	2e-05	-5e-05	-0.00086	-0.00115	0.00024	6e-05	3e-05	4
13980	3e-05	2e-05	-5e-05	-0.00086	-0.00115	0.00024	6e-05	3e-05	4
13981	3e-05	2e-05	-5e-05	-0.00086	-0.00115	0.00024	6e-05	3e-05	4
13982	-5e-05	4e-05	-0.00013	-0.00023	-0.00036	3e-05	6e-05	-4e-05	4
13983	0.00011	1e-05	-5e-05	-0.00055	-0.00104	-7e-05	0.00028	0.00023	4
13984	0.00011	1e-05	-5e-05	-0.00055	-0.00104	-7e-05	0.00028	0.00023	4
13985	0.00011	1e-05	-5e-05	-0.00055	-0.00104	-7e-05	0.00028	0.00023	4
13986	0.00011	1e-05	-5e-05	-0.00055	-0.00104	-7e-05	0.00028	0.00023	4
13988	0.00011	1e-05	-5e-05	-0.00055	-0.00104	-7e-05	0.00028	0.00023	4
13989	0.00011	1e-05	-5e-05	-0.00055	-0.00104	-7e-05	0.00028	0.00023	4
13990	0.00011	1e-05	-5e-05	-0.00055	-0.00104	-7e-05	0.00028	0.00023	4
13991	0.00011	1e-05	-5e-05	-0.00055	-0.00104	-7e-05	0.00028	0.00023	4
13992	0.00011	1e-05	-5e-05	-0.00055	-0.00104	-7e-05	0.00028	0.00023	4
13993	0.00011	1e-05	-5e-05	-0.00055	-0.00104	-7e-05	0.00028	0.00023	4
13994	0.00011	1e-05	-5e-05	-0.00055	-0.00104	-7e-05	0.00028	0.00023	4
13995	0.00011	1e-05	-5e-05	-0.00055	-0.00104	-7e-05	0.00028	0.00023	4
13996	0.00011	1e-05	-5e-05	-0.00055	-0.00104	-7e-05	0.00028	0.00023	4
13997	0.00011	1e-05	-5e-05	-0.00055	-0.00104	-7e-05	0.00028	0.00023	4
13998	0.00011	1e-05	-5e-05	-0.00055	-0.00104	-7e-05	0.00028	0.00023	4
13999	0.00011	1e-05	-5e-05	-0.00055	-0.00104	-7e-05	0.00028	0.00023	4
14000	0.00011	1e-05	-5e-05	-0.00055	-0.00104	-7e-05	0.00028	0.00023	4
14001	0.00011	1e-05	-5e-05	-0.00055	-0.00104	-7e-05	0.00028	0.00023	4
14002	0.00011	1e-05	-5e-05	-0.00055	-0.00104	-7e-05	0.00028	0.00023	4
14003	0.00011	1e-05	-5e-05	-0.00055	-0.00104	-7e-05	0.00028	0.00023	4
14004	0.00011	1e-05	-5e-05	-0.00055	-0.00104	-7e-05	0.00028	0.00023	4
14005	-9e-05	0	-5e-05	-0.00064	-0.00072	-2e-05	-0.00018	-0.00012	4
14006	-1e-05	4e-05	2e-05	0.00059	0.00067	1e-05	0.00013	9e-05	4
14007	-1e-05	4e-05	2e-05	0.00059	0.00067	1e-05	0.00013	9e-05	4
14008	-1e-05	4e-05	2e-05	0.00059	0.00067	1e-05	0.00013	9e-05	4
14009	-1e-05	4e-05	2e-05	0.00059	0.00067	1e-05	0.00013	9e-05	4
14010	-1e-05	4e-05	2e-05	0.00059	0.00067	1e-05	0.00013	9e-05	4
14011	-1e-05	4e-05	2e-05	0.00059	0.00067	1e-05	0.00013	9e-05	4
14012	-1e-05	4e-05	2e-05	0.00059	0.00067	1e-05	0.00013	9e-05	4
14013	-1e-05	4e-05	2e-05	0.00059	0.00067	1e-05	0.00013	9e-05	4
14014	-1e-05	4e-05	2e-05	0.00059	0.00067	1e-05	0.00013	9e-05	4
14015	-1e-05	4e-05	2e-05	0.00059	0.00067	1e-05	0.00013	9e-05	4
14016	-1e-05	4e-05	2e-05	0.00059	0.00067	1e-05	0.00013	9e-05	4
14017	-1e-05	4e-05	2e-05	0.00059	0.00067	1e-05	0.00013	9e-05	4
14018	-1e-05	4e-05	2e-05	0.00059	0.00067	1e-05	0.00013	9e-05	4
14019	0.0001	-2e-05	0.00036	0.00073	0.00055	0.0002	0.00026	0.00024	4
14020	0.0001	-2e-05	0.00036	0.00073	0.00055	0.0002	0.00026	0.00024	4
14021	0.0001	-2e-05	0.00036	0.00073	0.00055	0.0002	0.00026	0.00024	4
14022	0.0001	-2e-05	0.00036	0.00073	0.00055	0.0002	0.00026	0.00024	4
14023	0.0001	-2e-05	0.00036	0.00073	0.00055	0.0002	0.00026	0.00024	4
14024	0.0001	-2e-05	0.00036	0.00073	0.00055	0.0002	0.00026	0.00024	4
14025	0.0001	-2e-05	0.00036	0.00073	0.00055	0.0002	0.00026	0.00024	4
14026	0.0001	-2e-05	0.00036	0.00073	0.00055	0.0002	0.00026	0.00024	4
14027	0.0001	-3e-05	0.00035	0.00116	0.00127	0.00084	0.0003	-8e-05	4
14028	0.0001	-3e-05	0.00035	0.00116	0.00127	0.00084	0.0003	-8e-05	4
14029	0.0001	-3e-05	0.00035	0.00116	0.00127	0.00084	0.0003	-8e-05	4
14030	0.0001	-3e-05	0.00035	0.00116	0.00127	0.00084	0.0003	-8e-05	4
14031	0.0001	-3e-05	0.00035	0.00116	0.00127	0.00084	0.0003	-8e-05	4
14032	0.0001	-3e-05	0.00035	0.00116	0.00127	0.00084	0.0003	-8e-05	4
14033	0.0001	-3e-05	0.00035	0.00116	0.00127	0.00084	0.0003	-8e-05	4
14034	0.0001	-3e-05	0.00035	0.00116	0.00127	0.00084	0.0003	-8e-05	4
14035	0.0001	-3e-05	0.00035	0.00116	0.00127	0.00084	0.0003	-8e-05	4
14036	0.0001	-3e-05	0.00035	0.00116	0.00127	0.00084	0.0003	-8e-05	4
14038	0.0001	-3e-05	0.00035	0.00116	0.00127	0.00084	0.0003	-8e-05	4
14039	0.0001	-3e-05	0.00035	0.00116	0.00127	0.00084	0.0003	-8e-05	4
14040	0.0001	-3e-05	0.00035	0.00116	0.00127	0.00084	0.0003	-8e-05	4
14041	0.0001	-3e-05	0.00035	0.00116	0.00127	0.00084	0.0003	-8e-05	4
14042	4e-05	-1e-05	7e-05	0.00016	0.00114	0.00025	-0.00019	2e-05	4
14043	4e-05	-1e-05	7e-05	0.00016	0.00114	0.00025	-0.00019	2e-05	4
14044	-0.00016	-3e-05	-0.00047	-0.00128	-0.00108	-0.00074	-0.00028	-0.00026	4
14045	-0.00016	-3e-05	-0.00047	-0.00128	-0.00108	-0.00074	-0.00028	-0.00026	4
14046	-0.00016	-3e-05	-0.00047	-0.00128	-0.00108	-0.00074	-0.00028	-0.00026	4
14047	-0.00016	-3e-05	-0.00047	-0.00128	-0.00108	-0.00074	-0.00028	-0.00026	4
14048	-0.00016	-3e-05	-0.00047	-0.00128	-0.00108	-0.00074	-0.00028	-0.00026	4
14049	-0.00016	-3e-05	-0.00047	-0.00128	-0.00108	-0.00074	-0.00028	-0.00026	4
14050	-0.00016	-3e-05	-0.00047	-0.00128	-0.00108	-0.00074	-0.00028	-0.00026	4
14051	-0.00016	-3e-05	-0.00047	-0.00128	-0.00108	-0.00074	-0.00028	-0.00026	4
14052	-0.00016	-3e-05	-0.00047	-0.00128	-0.00108	-0.00074	-0.00028	-0.00026	4
14053	-0.00016	-3e-05	-0.00047	-0.00128	-0.00108	-0.00074	-0.00028	-0.00026	4
14054	-0.00016	-3e-05	-0.00047	-0.00128	-0.00108	-0.00074	-0.00028	-0.00026	4
14055	-0.00016	-3e-05	-0.00047	-0.00128	-0.00108	-0.00074	-0.00028	-0.00026	4
14056	-0.00016	-3e-05	-0.00047	-0.00128	-0.00108	-0.00074	-0.00028	-0.00026	4
14057	-0.00016	-3e-05	-0.00047	-0.00128	-0.00108	-0.00074	-0.00028	-0.00026	4
14058	-0.00016	-3e-05	-0.00047	-0.00128	-0.00108	-0.00074	-0.00028	-0.00026	4
14059	-0.00016	-3e-05	-0.00047	-0.00128	-0.00108	-0.00074	-0.00028	-0.00026	4
14060	-0.00016	-3e-05	-0.00047	-0.00128	-0.00108	-0.00074	-0.00028	-0.00026	4
14061	-0.00016	-3e-05	-0.00047	-0.00128	-0.00108	-0.00074	-0.00028	-0.00026	4
14062	-0.00016	-3e-05	-0.00047	-0.00128	-0.00108	-0.00074	-0.00028	-0.00026	4
14063	-0.00016	-3e-05	-0.00047	-0.00128	-0.00108	-0.00074	-0.00028	-0.00026	4
14064	-0.00016	-3e-05	-0.00047	-0.00128	-0.00108	-0.00074	-0.00028	-0.00026	4
14065	-2e-05	0	-9e-05	0.00027	-0.00013	-0.00018	1e-05	2e-05	4
14066	1e-05	-2e-05	0.00013	-0.00046	-0.00121	-8e-05	1e-05	-3e-05	4
14067	1e-05	-2e-05	0.00013	-0.00046	-0.00121	-8e-05	1e-05	-3e-05	4
14068	1e-05	-2e-05	0.00013	-0.00046	-0.00121	-8e-05	1e-05	-3e-05	4
14069	1e-05	-2e-05	0.00013	-0.00046	-0.00121	-8e-05	1e-05	-3e-05	4
14070	1e-05	-2e-05	0.00013	-0.00046	-0.00121	-8e-05	1e-05	-3e-05	4
14071	1e-05	-2e-05	0.00013	-0.00046	-0.00121	-8e-05	1e-05	-3e-05	4
14072	1e-05	-2e-05	0.00013	-0.00046	-0.00121	-8e-05	1e-05	-3e-05	4
14073	1e-05	-2e-05	0.00013	-0.00046	-0.00121	-8e-05	1e-05	-3e-05	4
14074	1e-05	-2e-05	0.00013	-0.00046	-0.00121	-8e-05	1e-05	-3e-05	4
14075	1e-05	-2e-05	0.00013	-0.00046	-0.00121	-8e-05	1e-05	-3e-05	4
14076	1e-05	-2e-05	0.00013	-0.00046	-0.00121	-8e-05	1e-05	-3e-05	4
14077	1e-05	-2e-05	0.00013	-0.00046	-0.00121	-8e-05	1e-05	-3e-05	4
14078	1e-05	-2e-05	0.00013	-0.00046	-0.00121	-8e-05	1e-05	-3e-05	4
14079	2e-05	-3e-05	2e-05	0.00056	-0.00048	-0.00042	-0.00025	-5e-05	4
14081	2e-05	-3e-05	2e-05	0.00056	-0.00048	-0.00042	-0.00025	-5e-05	4
14082	2e-05	-3e-05	2e-05	0.00056	-0.00048	-0.00042	-0.00025	-5e-05	4
14083	2e-05	-3e-05	2e-05	0.00056	-0.00048	-0.00042	-0.00025	-5e-05	4
14084	2e-05	-3e-05	2e-05	0.00056	-0.00048	-0.00042	-0.00025	-5e-05	4
14085	2e-05	-3e-05	2e-05	0.00056	-0.00048	-0.00042	-0.00025	-5e-05	4
14086	2e-05	-3e-05	2e-05	0.00056	-0.00048	-0.00042	-0.00025	-5e-05	4
14089	0.00014	-3e-05	0.00024	-0.00037	-0.00019	-0.00019	0.00025	0.00018	4
14090	0.00014	-3e-05	0.00024	-0.00037	-0.00019	-0.00019	0.00025	0.00018	4
14091	0.00014	-3e-05	0.00024	-0.00037	-0.00019	-0.00019	0.00025	0.00018	4
14092	0.00014	-3e-05	0.00024	-0.00037	-0.00019	-0.00019	0.00025	0.00018	4
14093	0.00014	-3e-05	0.00024	-0.00037	-0.00019	-0.00019	0.00025	0.00018	4
14094	0.00014	-3e-05	0.00024	-0.00037	-0.00019	-0.00019	0.00025	0.00018	4
14095	0.00014	-3e-05	0.00024	-0.00037	-0.00019	-0.00019	0.00025	0.00018	4
14096	0.00014	-3e-05	0.00024	-0.00037	-0.00019	-0.00019	0.00025	0.00018	4
14097	0.00014	-3e-05	0.00024	-0.00037	-0.00019	-0.00019	0.00025	0.00018	4
14098	0.00014	-3e-05	0.00024	-0.00037	-0.00019	-0.00019	0.00025	0.00018	4
14099	0.00014	-3e-05	0.00024	-0.00037	-0.00019	-0.00019	0.00025	0.00018	4
14100	0.00014	-3e-05	0.00024	-0.00037	-0.00019	-0.00019	0.00025	0.00018	4
14101	0.00014	-3e-05	0.00024	-0.00037	-0.00019	-0.00019	0.00025	0.00018	4
14102	-0.00014	-3e-05	-0.00031	-0.00084	-0.00092	-0.00022	-0.00016	-0.00019	4
14103	-4e-05	-6e-05	-0.00011	0.00095	0.00062	7e-05	7e-05	7e-05	4
14104	-4e-05	-6e-05	-0.00011	0.00095	0.00062	7e-05	7e-05	7e-05	4
14105	-4e-05	-6e-05	-0.00011	0.00095	0.00062	7e-05	7e-05	7e-05	4
14106	-4e-05	-6e-05	-0.00011	0.00095	0.00062	7e-05	7e-05	7e-05	4
14107	-4e-05	-6e-05	-0.00011	0.00095	0.00062	7e-05	7e-05	7e-05	4
14108	-4e-05	-6e-05	-0.00011	0.00095	0.00062	7e-05	7e-05	7e-05	4
14109	-4e-05	-6e-05	-0.00011	0.00095	0.00062	7e-05	7e-05	7e-05	4
14110	-4e-05	-6e-05	-0.00011	0.00095	0.00062	7e-05	7e-05	7e-05	4
14111	-4e-05	-6e-05	-0.00011	0.00095	0.00062	7e-05	7e-05	7e-05	4
14112	-4e-05	-6e-05	-0.00011	0.00095	0.00062	7e-05	7e-05	7e-05	4
14113	-4e-05	-6e-05	-0.00011	0.00095	0.00062	7e-05	7e-05	7e-05	4
14114	-4e-05	-6e-05	-0.00011	0.00095	0.00062	7e-05	7e-05	7e-05	4
14115	-4e-05	-6e-05	-0.00011	0.00095	0.00062	7e-05	7e-05	7e-05	4
14116	-4e-05	-6e-05	-0.00011	0.00095	0.00062	7e-05	7e-05	7e-05	4
14117	-4e-05	-6e-05	-0.00011	0.00095	0.00062	7e-05	7e-05	7e-05	4
14118	-4e-05	-6e-05	-0.00011	0.00095	0.00062	7e-05	7e-05	7e-05	4
14119	-4e-05	-6e-05	-0.00011	0.00095	0.00062	7e-05	7e-05	7e-05	4
14120	-4e-05	-6e-05	-0.00011	0.00095	0.00062	7e-05	7e-05	7e-05	4
14121	-4e-05	-6e-05	-0.00011	0.00095	0.00062	7e-05	7e-05	7e-05	4
14122	-4e-05	-6e-05	-0.00011	0.00095	0.00062	7e-05	7e-05	7e-05	4
14123	-4e-05	-6e-05	-0.00011	0.00095	0.00062	7e-05	7e-05	7e-05	4
14124	-4e-05	-6e-05	-0.00011	0.00095	0.00062	7e-05	7e-05	7e-05	4
14125	-0.00015	0	-0.00028	-0.00046	-0.00067	-0.00027	-0.00023	-0.00019	4
14126	0.00019	3e-05	0.00038	0.00076	-0.00016	-0.00036	0.00045	0.0003	4
14127	0.00019	3e-05	0.00038	0.00076	-0.00016	-0.00036	0.00045	0.0003	4
14128	0.00019	3e-05	0.00038	0.00076	-0.00016	-0.00036	0.00045	0.0003	4
14129	0.00019	3e-05	0.00038	0.00076	-0.00016	-0.00036	0.00045	0.0003	4
14130	0.00019	3e-05	0.00038	0.00076	-0.00016	-0.00036	0.00045	0.0003	4
14131	0.00019	3e-05	0.00038	0.00076	-0.00016	-0.00036	0.00045	0.0003	4
14132	0.00019	3e-05	0.00038	0.00076	-0.00016	-0.00036	0.00045	0.0003	4
14133	0.00019	3e-05	0.00038	0.00076	-0.00016	-0.00036	0.00045	0.0003	4
14134	0.00019	3e-05	0.00038	0.00076	-0.00016	-0.00036	0.00045	0.0003	4
14135	0.00019	3e-05	0.00038	0.00076	-0.00016	-0.00036	0.00045	0.0003	4
14136	0.00019	3e-05	0.00038	0.00076	-0.00016	-0.00036	0.00045	0.0003	4
14138	0.00019	3e-05	0.00038	0.00076	-0.00016	-0.00036	0.00045	0.0003	4
14139	0.00019	3e-05	0.00038	0.00076	-0.00016	-0.00036	0.00045	0.0003	4
14140	0.00019	3e-05	0.00038	0.00076	-0.00016	-0.00036	0.00045	0.0003	4
14141	0.00019	3e-05	0.00038	0.00076	-0.00016	-0.00036	0.00045	0.0003	4
14142	0.00019	3e-05	0.00038	0.00076	-0.00016	-0.00036	0.00045	0.0003	4
14143	0.00019	3e-05	0.00038	0.00076	-0.00016	-0.00036	0.00045	0.0003	4
14144	0.00019	3e-05	0.00038	0.00076	-0.00016	-0.00036	0.00045	0.0003	4
14145	0.00019	3e-05	0.00038	0.00076	-0.00016	-0.00036	0.00045	0.0003	4
14146	0.00019	3e-05	0.00038	0.00076	-0.00016	-0.00036	0.00045	0.0003	4
14147	0.00019	3e-05	0.00038	0.00076	-0.00016	-0.00036	0.00045	0.0003	4
14148	4e-05	-2e-05	-8e-05	-0.00034	-0.00039	-0.00025	3e-05	0.0001	4
14149	1e-05	2e-05	-6e-05	-0.0001	-0.00048	-0.00018	-0.00012	1e-05	4
14150	1e-05	2e-05	-6e-05	-0.0001	-0.00048	-0.00018	-0.00012	1e-05	4
14151	1e-05	2e-05	-6e-05	-0.0001	-0.00048	-0.00018	-0.00012	1e-05	4
14152	1e-05	2e-05	-6e-05	-0.0001	-0.00048	-0.00018	-0.00012	1e-05	4
14153	1e-05	2e-05	-6e-05	-0.0001	-0.00048	-0.00018	-0.00012	1e-05	4
14154	1e-05	2e-05	-6e-05	-0.0001	-0.00048	-0.00018	-0.00012	1e-05	4
14155	1e-05	2e-05	-6e-05	-0.0001	-0.00048	-0.00018	-0.00012	1e-05	4
14156	1e-05	2e-05	-6e-05	-0.0001	-0.00048	-0.00018	-0.00012	1e-05	4
14157	1e-05	2e-05	-6e-05	-0.0001	-0.00048	-0.00018	-0.00012	1e-05	4
14158	1e-05	2e-05	-6e-05	-0.0001	-0.00048	-0.00018	-0.00012	1e-05	4
14159	1e-05	2e-05	-6e-05	-0.0001	-0.00048	-0.00018	-0.00012	1e-05	4
14160	1e-05	2e-05	-6e-05	-0.0001	-0.00048	-0.00018	-0.00012	1e-05	4
14161	1e-05	2e-05	-6e-05	-0.0001	-0.00048	-0.00018	-0.00012	1e-05	4
14162	0.00022	-1e-05	0.00055	7e-05	-0.00057	0.00046	0.00046	0.00028	4
14163	-6e-05	3e-05	-9e-05	9e-05	-0.00025	-0.00053	5e-05	-3e-05	4
14164	-6e-05	3e-05	-9e-05	9e-05	-0.00025	-0.00053	5e-05	-3e-05	4
14165	-6e-05	3e-05	-9e-05	9e-05	-0.00025	-0.00053	5e-05	-3e-05	4
14166	-6e-05	3e-05	-9e-05	9e-05	-0.00025	-0.00053	5e-05	-3e-05	4
14167	-6e-05	3e-05	-9e-05	9e-05	-0.00025	-0.00053	5e-05	-3e-05	4
14168	-6e-05	3e-05	-9e-05	9e-05	-0.00025	-0.00053	5e-05	-3e-05	4
14169	-6e-05	3e-05	-9e-05	9e-05	-0.00025	-0.00053	5e-05	-3e-05	4
14170	-6e-05	3e-05	-9e-05	9e-05	-0.00025	-0.00053	5e-05	-3e-05	4
14171	-6e-05	3e-05	-9e-05	9e-05	-0.00025	-0.00053	5e-05	-3e-05	4
14172	-6e-05	3e-05	-9e-05	9e-05	-0.00025	-0.00053	5e-05	-3e-05	4
14173	-6e-05	3e-05	-9e-05	9e-05	-0.00025	-0.00053	5e-05	-3e-05	4
14174	-6e-05	3e-05	-9e-05	9e-05	-0.00025	-0.00053	5e-05	-3e-05	4
14175	-6e-05	3e-05	-9e-05	9e-05	-0.00025	-0.00053	5e-05	-3e-05	4
14176	-6e-05	3e-05	-9e-05	9e-05	-0.00025	-0.00053	5e-05	-3e-05	4
14177	-6e-05	3e-05	-9e-05	9e-05	-0.00025	-0.00053	5e-05	-3e-05	4
14178	-6e-05	3e-05	-9e-05	9e-05	-0.00025	-0.00053	5e-05	-3e-05	4
14179	-6e-05	3e-05	-9e-05	9e-05	-0.00025	-0.00053	5e-05	-3e-05	4
14180	-6e-05	3e-05	-9e-05	9e-05	-0.00025	-0.00053	5e-05	-3e-05	4
14181	-6e-05	3e-05	-9e-05	9e-05	-0.00025	-0.00053	5e-05	-3e-05	4
14182	-6e-05	3e-05	-9e-05	9e-05	-0.00025	-0.00053	5e-05	-3e-05	4
14183	-6e-05	3e-05	-9e-05	9e-05	-0.00025	-0.00053	5e-05	-3e-05	4
14184	-6e-05	3e-05	-9e-05	9e-05	-0.00025	-0.00053	5e-05	-3e-05	4
14185	0.00013	-2e-05	0.00024	0.00121	0.00127	2e-05	0.00025	0.00021	4
14186	-4e-05	1e-05	1e-05	-0.00055	-0.00067	0.00048	-0.00019	-7e-05	4
14188	-4e-05	1e-05	1e-05	-0.00055	-0.00067	0.00048	-0.00019	-7e-05	4
14189	-4e-05	1e-05	1e-05	-0.00055	-0.00067	0.00048	-0.00019	-7e-05	4
14190	-4e-05	1e-05	1e-05	-0.00055	-0.00067	0.00048	-0.00019	-7e-05	4
14191	-4e-05	1e-05	1e-05	-0.00055	-0.00067	0.00048	-0.00019	-7e-05	4
14192	-4e-05	1e-05	1e-05	-0.00055	-0.00067	0.00048	-0.00019	-7e-05	4
14193	-4e-05	1e-05	1e-05	-0.00055	-0.00067	0.00048	-0.00019	-7e-05	4
14194	-4e-05	1e-05	1e-05	-0.00055	-0.00067	0.00048	-0.00019	-7e-05	4
14195	-4e-05	1e-05	1e-05	-0.00055	-0.00067	0.00048	-0.00019	-7e-05	4
14196	-4e-05	1e-05	1e-05	-0.00055	-0.00067	0.00048	-0.00019	-7e-05	4
14197	-4e-05	1e-05	1e-05	-0.00055	-0.00067	0.00048	-0.00019	-7e-05	4
14198	-4e-05	1e-05	1e-05	-0.00055	-0.00067	0.00048	-0.00019	-7e-05	4
14199	-4e-05	1e-05	1e-05	-0.00055	-0.00067	0.00048	-0.00019	-7e-05	4
14200	-4e-05	1e-05	1e-05	-0.00055	-0.00067	0.00048	-0.00019	-7e-05	4
14201	-4e-05	1e-05	1e-05	-0.00055	-0.00067	0.00048	-0.00019	-7e-05	4
14202	-4e-05	1e-05	1e-05	-0.00055	-0.00067	0.00048	-0.00019	-7e-05	4
14203	-4e-05	1e-05	1e-05	-0.00055	-0.00067	0.00048	-0.00019	-7e-05	4
14204	-4e-05	1e-05	1e-05	-0.00055	-0.00067	0.00048	-0.00019	-7e-05	4
14205	-4e-05	1e-05	1e-05	-0.00055	-0.00067	0.00048	-0.00019	-7e-05	4
14206	-4e-05	1e-05	1e-05	-0.00055	-0.00067	0.00048	-0.00019	-7e-05	4
14207	-4e-05	1e-05	1e-05	-0.00055	-0.00067	0.00048	-0.00019	-7e-05	4
14208	-6e-05	-2e-05	-0.00013	-0.0003	-0.0006	0.00037	-0.00012	-9e-05	4
14209	-3e-05	0	-3e-05	0.00041	0.00089	-0.00034	0	-8e-05	4
14210	-3e-05	0	-3e-05	0.00041	0.00089	-0.00034	0	-8e-05	4
14211	-3e-05	0	-3e-05	0.00041	0.00089	-0.00034	0	-8e-05	4
14212	-3e-05	0	-3e-05	0.00041	0.00089	-0.00034	0	-8e-05	4
14213	-3e-05	0	-3e-05	0.00041	0.00089	-0.00034	0	-8e-05	4
14214	-3e-05	0	-3e-05	0.00041	0.00089	-0.00034	0	-8e-05	4
14215	-3e-05	0	-3e-05	0.00041	0.00089	-0.00034	0	-8e-05	4
14216	-3e-05	0	-3e-05	0.00041	0.00089	-0.00034	0	-8e-05	4
14217	-3e-05	0	-3e-05	0.00041	0.00089	-0.00034	0	-8e-05	4
14218	-3e-05	0	-3e-05	0.00041	0.00089	-0.00034	0	-8e-05	4
14219	-3e-05	0	-3e-05	0.00041	0.00089	-0.00034	0	-8e-05	4
14220	-3e-05	0	-3e-05	0.00041	0.00089	-0.00034	0	-8e-05	4
14221	-3e-05	0	-3e-05	0.00041	0.00089	-0.00034	0	-8e-05	4
14222	-8e-05	1e-05	-1e-05	-0.0005	-0.00083	-0.00055	2e-05	-0.00022	4
14223	-3e-05	0	1e-05	0.00013	0.00059	-2e-05	-4e-05	-4e-05	4
14224	-3e-05	0	1e-05	0.00013	0.00059	-2e-05	-4e-05	-4e-05	4
14225	-3e-05	0	1e-05	0.00013	0.00059	-2e-05	-4e-05	-4e-05	4
14226	-3e-05	0	1e-05	0.00013	0.00059	-2e-05	-4e-05	-4e-05	4
14227	-3e-05	0	1e-05	0.00013	0.00059	-2e-05	-4e-05	-4e-05	4
14228	-3e-05	0	1e-05	0.00013	0.00059	-2e-05	-4e-05	-4e-05	4
14229	-3e-05	0	1e-05	0.00013	0.00059	-2e-05	-4e-05	-4e-05	4
14230	-3e-05	0	1e-05	0.00013	0.00059	-2e-05	-4e-05	-4e-05	4
14231	-3e-05	0	1e-05	0.00013	0.00059	-2e-05	-4e-05	-4e-05	4
14232	-3e-05	0	1e-05	0.00013	0.00059	-2e-05	-4e-05	-4e-05	4
14233	-3e-05	0	1e-05	0.00013	0.00059	-2e-05	-4e-05	-4e-05	4
14234	-3e-05	0	1e-05	0.00013	0.00059	-2e-05	-4e-05	-4e-05	4
14235	-3e-05	0	1e-05	0.00013	0.00059	-2e-05	-4e-05	-4e-05	4
14236	-3e-05	0	1e-05	0.00013	0.00059	-2e-05	-4e-05	-4e-05	4
14238	-3e-05	0	1e-05	0.00013	0.00059	-2e-05	-4e-05	-4e-05	4
14239	-3e-05	0	1e-05	0.00013	0.00059	-2e-05	-4e-05	-4e-05	4
14240	-3e-05	0	1e-05	0.00013	0.00059	-2e-05	-4e-05	-4e-05	4
14241	-3e-05	0	1e-05	0.00013	0.00059	-2e-05	-4e-05	-4e-05	4
14242	-3e-05	0	1e-05	0.00013	0.00059	-2e-05	-4e-05	-4e-05	4
14243	-3e-05	0	1e-05	0.00013	0.00059	-2e-05	-4e-05	-4e-05	4
14244	-3e-05	0	1e-05	0.00013	0.00059	-2e-05	-4e-05	-4e-05	4
14245	3e-05	-2e-05	9e-05	0.00109	0.00127	0.00029	0.00022	3e-05	4
14246	5e-05	0	-9e-05	-0.00016	-0.0004	0.00035	4e-05	9e-05	4
14247	5e-05	0	-9e-05	-0.00016	-0.0004	0.00035	4e-05	9e-05	4
14248	5e-05	0	-9e-05	-0.00016	-0.0004	0.00035	4e-05	9e-05	4
14249	5e-05	0	-9e-05	-0.00016	-0.0004	0.00035	4e-05	9e-05	4
14250	5e-05	0	-9e-05	-0.00016	-0.0004	0.00035	4e-05	9e-05	4
14251	5e-05	0	-9e-05	-0.00016	-0.0004	0.00035	4e-05	9e-05	4
14252	5e-05	0	-9e-05	-0.00016	-0.0004	0.00035	4e-05	9e-05	4
14253	5e-05	0	-9e-05	-0.00016	-0.0004	0.00035	4e-05	9e-05	4
14254	5e-05	0	-9e-05	-0.00016	-0.0004	0.00035	4e-05	9e-05	4
14255	5e-05	0	-9e-05	-0.00016	-0.0004	0.00035	4e-05	9e-05	4
14256	5e-05	0	-9e-05	-0.00016	-0.0004	0.00035	4e-05	9e-05	4
14257	5e-05	0	-9e-05	-0.00016	-0.0004	0.00035	4e-05	9e-05	4
14258	5e-05	0	-9e-05	-0.00016	-0.0004	0.00035	4e-05	9e-05	4
14259	5e-05	0	-9e-05	-0.00016	-0.0004	0.00035	4e-05	9e-05	4
14260	5e-05	0	-9e-05	-0.00016	-0.0004	0.00035	4e-05	9e-05	4
14261	5e-05	0	-9e-05	-0.00016	-0.0004	0.00035	4e-05	9e-05	4
14262	5e-05	0	-9e-05	-0.00016	-0.0004	0.00035	4e-05	9e-05	4
14263	5e-05	0	-9e-05	-0.00016	-0.0004	0.00035	4e-05	9e-05	4
14264	5e-05	0	-9e-05	-0.00016	-0.0004	0.00035	4e-05	9e-05	4
14265	5e-05	0	-9e-05	-0.00016	-0.0004	0.00035	4e-05	9e-05	4
14266	5e-05	0	-9e-05	-0.00016	-0.0004	0.00035	4e-05	9e-05	4
14267	5e-05	0	-9e-05	-0.00016	-0.0004	0.00035	4e-05	9e-05	4
14268	-4e-05	4e-05	-0.00021	-0.00023	-0.00111	4e-05	-0.00045	-0.00011	4
14269	-4e-05	-2e-05	-0.00011	0.0001	0.00018	0	-0.00021	-7e-05	4
14270	-4e-05	-2e-05	-0.00011	0.0001	0.00018	0	-0.00021	-7e-05	4
14271	-4e-05	-2e-05	-0.00011	0.0001	0.00018	0	-0.00021	-7e-05	4
14272	-4e-05	-2e-05	-0.00011	0.0001	0.00018	0	-0.00021	-7e-05	4
14273	-4e-05	-2e-05	-0.00011	0.0001	0.00018	0	-0.00021	-7e-05	4
14274	-4e-05	-2e-05	-0.00011	0.0001	0.00018	0	-0.00021	-7e-05	4
14275	-4e-05	-2e-05	-0.00011	0.0001	0.00018	0	-0.00021	-7e-05	4
14276	-4e-05	-2e-05	-0.00011	0.0001	0.00018	0	-0.00021	-7e-05	4
14277	-4e-05	-2e-05	-0.00011	0.0001	0.00018	0	-0.00021	-7e-05	4
14278	-4e-05	-2e-05	-0.00011	0.0001	0.00018	0	-0.00021	-7e-05	4
14279	-4e-05	-2e-05	-0.00011	0.0001	0.00018	0	-0.00021	-7e-05	4
14280	-4e-05	-2e-05	-0.00011	0.0001	0.00018	0	-0.00021	-7e-05	4
14281	-4e-05	-2e-05	-0.00011	0.0001	0.00018	0	-0.00021	-7e-05	4
14282	-0.00012	0	-0.00015	-0.00081	-2e-05	0.00038	-0.00026	-9e-05	4
14283	-1e-05	-1e-05	-6e-05	-0.00039	0.0001	0.00015	-2e-05	-2e-05	4
14284	-1e-05	-1e-05	-6e-05	-0.00039	0.0001	0.00015	-2e-05	-2e-05	4
14285	-1e-05	-1e-05	-6e-05	-0.00039	0.0001	0.00015	-2e-05	-2e-05	4
14286	-1e-05	-1e-05	-6e-05	-0.00039	0.0001	0.00015	-2e-05	-2e-05	4
14288	-1e-05	-1e-05	-6e-05	-0.00039	0.0001	0.00015	-2e-05	-2e-05	4
14289	-1e-05	-1e-05	-6e-05	-0.00039	0.0001	0.00015	-2e-05	-2e-05	4
14290	-1e-05	-1e-05	-6e-05	-0.00039	0.0001	0.00015	-2e-05	-2e-05	4
14291	-1e-05	-1e-05	-6e-05	-0.00039	0.0001	0.00015	-2e-05	-2e-05	4
14292	-1e-05	-1e-05	-6e-05	-0.00039	0.0001	0.00015	-2e-05	-2e-05	4
14293	-1e-05	-1e-05	-6e-05	-0.00039	0.0001	0.00015	-2e-05	-2e-05	4
14294	-1e-05	-1e-05	-6e-05	-0.00039	0.0001	0.00015	-2e-05	-2e-05	4
14295	-1e-05	-1e-05	-6e-05	-0.00039	0.0001	0.00015	-2e-05	-2e-05	4
14296	-1e-05	-1e-05	-6e-05	-0.00039	0.0001	0.00015	-2e-05	-2e-05	4
14297	-1e-05	-1e-05	-6e-05	-0.00039	0.0001	0.00015	-2e-05	-2e-05	4
14298	-1e-05	-1e-05	-6e-05	-0.00039	0.0001	0.00015	-2e-05	-2e-05	4
14299	-1e-05	-1e-05	-6e-05	-0.00039	0.0001	0.00015	-2e-05	-2e-05	4
14300	-1e-05	-1e-05	-6e-05	-0.00039	0.0001	0.00015	-2e-05	-2e-05	4
14301	-1e-05	-1e-05	-6e-05	-0.00039	0.0001	0.00015	-2e-05	-2e-05	4
14302	-1e-05	-1e-05	-6e-05	-0.00039	0.0001	0.00015	-2e-05	-2e-05	4
14303	-1e-05	-1e-05	-6e-05	-0.00039	0.0001	0.00015	-2e-05	-2e-05	4
14304	-1e-05	-1e-05	-6e-05	-0.00039	0.0001	0.00015	-2e-05	-2e-05	4
14305	-0.00031	-1e-05	-0.00031	-0.00045	-0.00021	0.00027	-0.00042	-0.0004	4
14306	5e-05	-5e-05	-5e-05	-0.00037	-0.0011	-0.0003	-6e-05	0.00012	4
14307	5e-05	-5e-05	-5e-05	-0.00037	-0.0011	-0.0003	-6e-05	0.00012	4
14308	5e-05	-5e-05	-5e-05	-0.00037	-0.0011	-0.0003	-6e-05	0.00012	4
14309	5e-05	-5e-05	-5e-05	-0.00037	-0.0011	-0.0003	-6e-05	0.00012	4
14310	5e-05	-5e-05	-5e-05	-0.00037	-0.0011	-0.0003	-6e-05	0.00012	4
14311	5e-05	-5e-05	-5e-05	-0.00037	-0.0011	-0.0003	-6e-05	0.00012	4
14312	5e-05	-5e-05	-5e-05	-0.00037	-0.0011	-0.0003	-6e-05	0.00012	4
14313	5e-05	-5e-05	-5e-05	-0.00037	-0.0011	-0.0003	-6e-05	0.00012	4
14314	5e-05	-5e-05	-5e-05	-0.00037	-0.0011	-0.0003	-6e-05	0.00012	4
14315	5e-05	-5e-05	-5e-05	-0.00037	-0.0011	-0.0003	-6e-05	0.00012	4
14316	5e-05	-5e-05	-5e-05	-0.00037	-0.0011	-0.0003	-6e-05	0.00012	4
14317	5e-05	-5e-05	-5e-05	-0.00037	-0.0011	-0.0003	-6e-05	0.00012	4
14318	5e-05	-5e-05	-5e-05	-0.00037	-0.0011	-0.0003	-6e-05	0.00012	4
14319	5e-05	-5e-05	-5e-05	-0.00037	-0.0011	-0.0003	-6e-05	0.00012	4
14320	5e-05	-5e-05	-5e-05	-0.00037	-0.0011	-0.0003	-6e-05	0.00012	4
14321	5e-05	-5e-05	-5e-05	-0.00037	-0.0011	-0.0003	-6e-05	0.00012	4
14322	5e-05	-5e-05	-5e-05	-0.00037	-0.0011	-0.0003	-6e-05	0.00012	4
14323	5e-05	-5e-05	-5e-05	-0.00037	-0.0011	-0.0003	-6e-05	0.00012	4
14324	5e-05	-5e-05	-5e-05	-0.00037	-0.0011	-0.0003	-6e-05	0.00012	4
14325	5e-05	-5e-05	-5e-05	-0.00037	-0.0011	-0.0003	-6e-05	0.00012	4
14326	5e-05	-5e-05	-5e-05	-0.00037	-0.0011	-0.0003	-6e-05	0.00012	4
14327	5e-05	-5e-05	-5e-05	-0.00037	-0.0011	-0.0003	-6e-05	0.00012	4
14328	-5e-05	-1e-05	-4e-05	0.00028	0.0001	-0.00051	0.00027	-1e-05	4
14329	4e-05	-3e-05	0.00016	0.00021	0.00066	-1e-05	0.00021	0	4
14330	4e-05	-3e-05	0.00016	0.00021	0.00066	-1e-05	0.00021	0	4
14331	4e-05	-3e-05	0.00016	0.00021	0.00066	-1e-05	0.00021	0	4
14332	4e-05	-3e-05	0.00016	0.00021	0.00066	-1e-05	0.00021	0	4
14333	4e-05	-3e-05	0.00016	0.00021	0.00066	-1e-05	0.00021	0	4
14334	4e-05	-3e-05	0.00016	0.00021	0.00066	-1e-05	0.00021	0	4
14335	4e-05	-3e-05	0.00016	0.00021	0.00066	-1e-05	0.00021	0	4
14336	4e-05	-3e-05	0.00016	0.00021	0.00066	-1e-05	0.00021	0	4
14338	4e-05	-3e-05	0.00016	0.00021	0.00066	-1e-05	0.00021	0	4
14339	4e-05	-3e-05	0.00016	0.00021	0.00066	-1e-05	0.00021	0	4
14340	4e-05	-3e-05	0.00016	0.00021	0.00066	-1e-05	0.00021	0	4
14341	4e-05	-3e-05	0.00016	0.00021	0.00066	-1e-05	0.00021	0	4
14342	0.0001	-2e-05	9e-05	1e-05	-0.00086	-0.00066	0.00026	0.00018	4
14343	-0.00013	0	-3e-05	-0.00014	0.00019	-0.00023	-2e-05	-0.00011	4
14344	-0.00013	0	-3e-05	-0.00014	0.00019	-0.00023	-2e-05	-0.00011	4
14345	-0.00013	0	-3e-05	-0.00014	0.00019	-0.00023	-2e-05	-0.00011	4
14346	-0.00013	0	-3e-05	-0.00014	0.00019	-0.00023	-2e-05	-0.00011	4
14347	-0.00013	0	-3e-05	-0.00014	0.00019	-0.00023	-2e-05	-0.00011	4
14348	-0.00013	0	-3e-05	-0.00014	0.00019	-0.00023	-2e-05	-0.00011	4
14349	-0.00013	0	-3e-05	-0.00014	0.00019	-0.00023	-2e-05	-0.00011	4
14350	-0.00013	0	-3e-05	-0.00014	0.00019	-0.00023	-2e-05	-0.00011	4
14351	-0.00013	0	-3e-05	-0.00014	0.00019	-0.00023	-2e-05	-0.00011	4
14352	-0.00013	0	-3e-05	-0.00014	0.00019	-0.00023	-2e-05	-0.00011	4
14353	-0.00013	0	-3e-05	-0.00014	0.00019	-0.00023	-2e-05	-0.00011	4
14354	-0.00013	0	-3e-05	-0.00014	0.00019	-0.00023	-2e-05	-0.00011	4
14355	-0.00013	0	-3e-05	-0.00014	0.00019	-0.00023	-2e-05	-0.00011	4
14356	-0.00013	0	-3e-05	-0.00014	0.00019	-0.00023	-2e-05	-0.00011	4
14357	-0.00013	0	-3e-05	-0.00014	0.00019	-0.00023	-2e-05	-0.00011	4
14358	-0.00013	0	-3e-05	-0.00014	0.00019	-0.00023	-2e-05	-0.00011	4
14359	-0.00013	0	-3e-05	-0.00014	0.00019	-0.00023	-2e-05	-0.00011	4
14360	-0.00013	0	-3e-05	-0.00014	0.00019	-0.00023	-2e-05	-0.00011	4
14361	-0.00013	0	-3e-05	-0.00014	0.00019	-0.00023	-2e-05	-0.00011	4
14362	-0.00013	0	-3e-05	-0.00014	0.00019	-0.00023	-2e-05	-0.00011	4
14363	-0.00013	0	-3e-05	-0.00014	0.00019	-0.00023	-2e-05	-0.00011	4
14364	-0.00013	0	-3e-05	-0.00014	0.00019	-0.00023	-2e-05	-0.00011	4
14365	0.00015	1e-05	0.0002	0.00105	0.0012	0.00068	0.00015	0.00027	4
14366	7e-05	-2e-05	-0.00012	-0.00081	-0.00112	-5e-05	-0.0001	0.00032	4
14367	7e-05	-2e-05	-0.00012	-0.00081	-0.00112	-5e-05	-0.0001	0.00032	4
14368	7e-05	-2e-05	-0.00012	-0.00081	-0.00112	-5e-05	-0.0001	0.00032	4
14369	7e-05	-2e-05	-0.00012	-0.00081	-0.00112	-5e-05	-0.0001	0.00032	4
14370	7e-05	-2e-05	-0.00012	-0.00081	-0.00112	-5e-05	-0.0001	0.00032	4
14371	7e-05	-2e-05	-0.00012	-0.00081	-0.00112	-5e-05	-0.0001	0.00032	4
14372	7e-05	-2e-05	-0.00012	-0.00081	-0.00112	-5e-05	-0.0001	0.00032	4
14373	7e-05	-2e-05	-0.00012	-0.00081	-0.00112	-5e-05	-0.0001	0.00032	4
14374	7e-05	-2e-05	-0.00012	-0.00081	-0.00112	-5e-05	-0.0001	0.00032	4
14375	7e-05	-2e-05	-0.00012	-0.00081	-0.00112	-5e-05	-0.0001	0.00032	4
14376	7e-05	-2e-05	-0.00012	-0.00081	-0.00112	-5e-05	-0.0001	0.00032	4
14377	7e-05	-2e-05	-0.00012	-0.00081	-0.00112	-5e-05	-0.0001	0.00032	4
14378	7e-05	-2e-05	-0.00012	-0.00081	-0.00112	-5e-05	-0.0001	0.00032	4
14379	7e-05	-2e-05	-0.00012	-0.00081	-0.00112	-5e-05	-0.0001	0.00032	4
14380	7e-05	-2e-05	-0.00012	-0.00081	-0.00112	-5e-05	-0.0001	0.00032	4
14381	7e-05	-2e-05	-0.00012	-0.00081	-0.00112	-5e-05	-0.0001	0.00032	4
14382	7e-05	-2e-05	-0.00012	-0.00081	-0.00112	-5e-05	-0.0001	0.00032	4
14383	7e-05	-2e-05	-0.00012	-0.00081	-0.00112	-5e-05	-0.0001	0.00032	4
14384	7e-05	-2e-05	-0.00012	-0.00081	-0.00112	-5e-05	-0.0001	0.00032	4
14385	7e-05	-2e-05	-0.00012	-0.00081	-0.00112	-5e-05	-0.0001	0.00032	4
14386	7e-05	-2e-05	-0.00012	-0.00081	-0.00112	-5e-05	-0.0001	0.00032	4
14389	-9e-05	-2e-05	-0.00013	0.00012	-0.00011	0.0005	-0.00017	-0.00021	4
14390	-9e-05	-2e-05	-0.00013	0.00012	-0.00011	0.0005	-0.00017	-0.00021	4
14391	-9e-05	-2e-05	-0.00013	0.00012	-0.00011	0.0005	-0.00017	-0.00021	4
14392	-9e-05	-2e-05	-0.00013	0.00012	-0.00011	0.0005	-0.00017	-0.00021	4
14393	-9e-05	-2e-05	-0.00013	0.00012	-0.00011	0.0005	-0.00017	-0.00021	4
14394	-9e-05	-2e-05	-0.00013	0.00012	-0.00011	0.0005	-0.00017	-0.00021	4
14395	-9e-05	-2e-05	-0.00013	0.00012	-0.00011	0.0005	-0.00017	-0.00021	4
14396	-9e-05	-2e-05	-0.00013	0.00012	-0.00011	0.0005	-0.00017	-0.00021	4
14397	-9e-05	-2e-05	-0.00013	0.00012	-0.00011	0.0005	-0.00017	-0.00021	4
14398	-9e-05	-2e-05	-0.00013	0.00012	-0.00011	0.0005	-0.00017	-0.00021	4
14399	-9e-05	-2e-05	-0.00013	0.00012	-0.00011	0.0005	-0.00017	-0.00021	4
14400	-9e-05	-2e-05	-0.00013	0.00012	-0.00011	0.0005	-0.00017	-0.00021	4
14401	-9e-05	-2e-05	-0.00013	0.00012	-0.00011	0.0005	-0.00017	-0.00021	4
14402	-8e-05	0	-9e-05	9e-05	0.00055	1e-05	-0.00018	-0.00013	4
14403	-6e-05	-4e-05	-0.00014	7e-05	-0.00092	0.00036	-0.00011	-0.00017	4
14404	-6e-05	-4e-05	-0.00014	7e-05	-0.00092	0.00036	-0.00011	-0.00017	4
14405	-6e-05	-4e-05	-0.00014	7e-05	-0.00092	0.00036	-0.00011	-0.00017	4
14406	-6e-05	-4e-05	-0.00014	7e-05	-0.00092	0.00036	-0.00011	-0.00017	4
14407	-6e-05	-4e-05	-0.00014	7e-05	-0.00092	0.00036	-0.00011	-0.00017	4
14408	-6e-05	-4e-05	-0.00014	7e-05	-0.00092	0.00036	-0.00011	-0.00017	4
14409	-6e-05	-4e-05	-0.00014	7e-05	-0.00092	0.00036	-0.00011	-0.00017	4
14410	-6e-05	-4e-05	-0.00014	7e-05	-0.00092	0.00036	-0.00011	-0.00017	4
14411	-6e-05	-4e-05	-0.00014	7e-05	-0.00092	0.00036	-0.00011	-0.00017	4
14412	-6e-05	-4e-05	-0.00014	7e-05	-0.00092	0.00036	-0.00011	-0.00017	4
14413	-6e-05	-4e-05	-0.00014	7e-05	-0.00092	0.00036	-0.00011	-0.00017	4
14414	-6e-05	-4e-05	-0.00014	7e-05	-0.00092	0.00036	-0.00011	-0.00017	4
14415	-6e-05	-4e-05	-0.00014	7e-05	-0.00092	0.00036	-0.00011	-0.00017	4
14416	-6e-05	-4e-05	-0.00014	7e-05	-0.00092	0.00036	-0.00011	-0.00017	4
14417	-6e-05	-4e-05	-0.00014	7e-05	-0.00092	0.00036	-0.00011	-0.00017	4
14418	-6e-05	-4e-05	-0.00014	7e-05	-0.00092	0.00036	-0.00011	-0.00017	4
14419	-6e-05	-4e-05	-0.00014	7e-05	-0.00092	0.00036	-0.00011	-0.00017	4
14420	-6e-05	-4e-05	-0.00014	7e-05	-0.00092	0.00036	-0.00011	-0.00017	4
14421	-6e-05	-4e-05	-0.00014	7e-05	-0.00092	0.00036	-0.00011	-0.00017	4
14422	-6e-05	-4e-05	-0.00014	7e-05	-0.00092	0.00036	-0.00011	-0.00017	4
14423	-6e-05	-4e-05	-0.00014	7e-05	-0.00092	0.00036	-0.00011	-0.00017	4
14424	-6e-05	-4e-05	-0.00014	7e-05	-0.00092	0.00036	-0.00011	-0.00017	4
14425	0.0001	1e-05	0.00025	-0.00051	-0.00018	0.00039	0.00019	-1e-05	4
14426	-6e-05	-3e-05	-7e-05	0.00026	4e-05	-0.0001	-0.00018	-0.00012	4
14427	-6e-05	-3e-05	-7e-05	0.00026	4e-05	-0.0001	-0.00018	-0.00012	4
14428	-6e-05	-3e-05	-7e-05	0.00026	4e-05	-0.0001	-0.00018	-0.00012	4
14429	-6e-05	-3e-05	-7e-05	0.00026	4e-05	-0.0001	-0.00018	-0.00012	4
14430	-6e-05	-3e-05	-7e-05	0.00026	4e-05	-0.0001	-0.00018	-0.00012	4
14431	-6e-05	-3e-05	-7e-05	0.00026	4e-05	-0.0001	-0.00018	-0.00012	4
14432	-6e-05	-3e-05	-7e-05	0.00026	4e-05	-0.0001	-0.00018	-0.00012	4
14433	-6e-05	-3e-05	-7e-05	0.00026	4e-05	-0.0001	-0.00018	-0.00012	4
14434	-6e-05	-3e-05	-7e-05	0.00026	4e-05	-0.0001	-0.00018	-0.00012	4
14435	-6e-05	-3e-05	-7e-05	0.00026	4e-05	-0.0001	-0.00018	-0.00012	4
14436	-6e-05	-3e-05	-7e-05	0.00026	4e-05	-0.0001	-0.00018	-0.00012	4
14438	-6e-05	-3e-05	-7e-05	0.00026	4e-05	-0.0001	-0.00018	-0.00012	4
14439	-6e-05	-3e-05	-7e-05	0.00026	4e-05	-0.0001	-0.00018	-0.00012	4
14440	-6e-05	-3e-05	-7e-05	0.00026	4e-05	-0.0001	-0.00018	-0.00012	4
14441	-6e-05	-3e-05	-7e-05	0.00026	4e-05	-0.0001	-0.00018	-0.00012	4
14442	-6e-05	-3e-05	-7e-05	0.00026	4e-05	-0.0001	-0.00018	-0.00012	4
14443	-6e-05	-3e-05	-7e-05	0.00026	4e-05	-0.0001	-0.00018	-0.00012	4
14444	-6e-05	-3e-05	-7e-05	0.00026	4e-05	-0.0001	-0.00018	-0.00012	4
14445	-6e-05	-3e-05	-7e-05	0.00026	4e-05	-0.0001	-0.00018	-0.00012	4
14446	-6e-05	-3e-05	-7e-05	0.00026	4e-05	-0.0001	-0.00018	-0.00012	4
14447	-6e-05	-3e-05	-7e-05	0.00026	4e-05	-0.0001	-0.00018	-0.00012	4
14448	5e-05	-3e-05	0.00017	0.00077	0.00099	0.00018	0.00021	9e-05	4
14449	5e-05	-3e-05	0.00017	0.00077	0.00099	0.00018	0.00021	9e-05	4
14450	5e-05	-3e-05	0.00017	0.00077	0.00099	0.00018	0.00021	9e-05	4
14451	5e-05	-3e-05	0.00017	0.00077	0.00099	0.00018	0.00021	9e-05	4
14452	5e-05	-3e-05	0.00017	0.00077	0.00099	0.00018	0.00021	9e-05	4
14453	5e-05	-3e-05	0.00017	0.00077	0.00099	0.00018	0.00021	9e-05	4
14454	5e-05	-3e-05	0.00017	0.00077	0.00099	0.00018	0.00021	9e-05	4
14455	5e-05	-3e-05	0.00017	0.00077	0.00099	0.00018	0.00021	9e-05	4
14456	5e-05	-3e-05	0.00017	0.00077	0.00099	0.00018	0.00021	9e-05	4
14457	5e-05	-3e-05	0.00017	0.00077	0.00099	0.00018	0.00021	9e-05	4
14458	5e-05	-3e-05	0.00017	0.00077	0.00099	0.00018	0.00021	9e-05	4
14459	5e-05	-3e-05	0.00017	0.00077	0.00099	0.00018	0.00021	9e-05	4
14460	5e-05	-3e-05	0.00017	0.00077	0.00099	0.00018	0.00021	9e-05	4
14461	5e-05	-3e-05	0.00017	0.00077	0.00099	0.00018	0.00021	9e-05	4
14462	-3e-05	-1e-05	2e-05	0	0.00072	-1e-05	-3e-05	-5e-05	4
14463	0	0	6e-05	-0.00025	-0.00017	-0.00015	0.00018	-1e-05	4
14464	0	0	6e-05	-0.00025	-0.00017	-0.00015	0.00018	-1e-05	4
14465	0	0	6e-05	-0.00025	-0.00017	-0.00015	0.00018	-1e-05	4
14466	0	0	6e-05	-0.00025	-0.00017	-0.00015	0.00018	-1e-05	4
14467	0	0	6e-05	-0.00025	-0.00017	-0.00015	0.00018	-1e-05	4
14468	0	0	6e-05	-0.00025	-0.00017	-0.00015	0.00018	-1e-05	4
14469	0	0	6e-05	-0.00025	-0.00017	-0.00015	0.00018	-1e-05	4
14470	0	0	6e-05	-0.00025	-0.00017	-0.00015	0.00018	-1e-05	4
14471	0	0	6e-05	-0.00025	-0.00017	-0.00015	0.00018	-1e-05	4
14472	0	0	6e-05	-0.00025	-0.00017	-0.00015	0.00018	-1e-05	4
14473	0	0	6e-05	-0.00025	-0.00017	-0.00015	0.00018	-1e-05	4
14474	0	0	6e-05	-0.00025	-0.00017	-0.00015	0.00018	-1e-05	4
14475	0	0	6e-05	-0.00025	-0.00017	-0.00015	0.00018	-1e-05	4
14476	0	0	6e-05	-0.00025	-0.00017	-0.00015	0.00018	-1e-05	4
14477	0	0	6e-05	-0.00025	-0.00017	-0.00015	0.00018	-1e-05	4
14478	0	0	6e-05	-0.00025	-0.00017	-0.00015	0.00018	-1e-05	4
14479	0	0	6e-05	-0.00025	-0.00017	-0.00015	0.00018	-1e-05	4
14480	0	0	6e-05	-0.00025	-0.00017	-0.00015	0.00018	-1e-05	4
14481	0	0	6e-05	-0.00025	-0.00017	-0.00015	0.00018	-1e-05	4
14482	0	0	6e-05	-0.00025	-0.00017	-0.00015	0.00018	-1e-05	4
14483	0	0	6e-05	-0.00025	-0.00017	-0.00015	0.00018	-1e-05	4
14484	0	0	6e-05	-0.00025	-0.00017	-0.00015	0.00018	-1e-05	4
14485	3e-05	1e-05	0	-0.00053	-0.00107	-0.00021	0.00025	9e-05	4
14487	0.0001	3e-05	0.00017	0.00019	-0.00061	0.00019	0.00012	0.00021	4
14489	0.0001	3e-05	0.00017	0.00019	-0.00061	0.00019	0.00012	0.00021	4
14490	0.0001	3e-05	0.00017	0.00019	-0.00061	0.00019	0.00012	0.00021	4
14491	0.0001	3e-05	0.00017	0.00019	-0.00061	0.00019	0.00012	0.00021	4
14492	0.0001	3e-05	0.00017	0.00019	-0.00061	0.00019	0.00012	0.00021	4
14493	0.0001	3e-05	0.00017	0.00019	-0.00061	0.00019	0.00012	0.00021	4
14494	0.0001	3e-05	0.00017	0.00019	-0.00061	0.00019	0.00012	0.00021	4
14495	0.0001	3e-05	0.00017	0.00019	-0.00061	0.00019	0.00012	0.00021	4
14496	0.0001	3e-05	0.00017	0.00019	-0.00061	0.00019	0.00012	0.00021	4
14497	0.0001	3e-05	0.00017	0.00019	-0.00061	0.00019	0.00012	0.00021	4
14498	0.0001	3e-05	0.00017	0.00019	-0.00061	0.00019	0.00012	0.00021	4
14499	0.0001	3e-05	0.00017	0.00019	-0.00061	0.00019	0.00012	0.00021	4
14500	0.0001	3e-05	0.00017	0.00019	-0.00061	0.00019	0.00012	0.00021	4
14501	0.0001	3e-05	0.00017	0.00019	-0.00061	0.00019	0.00012	0.00021	4
14502	0.0001	3e-05	0.00017	0.00019	-0.00061	0.00019	0.00012	0.00021	4
14503	0.0001	3e-05	0.00017	0.00019	-0.00061	0.00019	0.00012	0.00021	4
14504	0.0001	3e-05	0.00017	0.00019	-0.00061	0.00019	0.00012	0.00021	4
14505	0.0001	3e-05	0.00017	0.00019	-0.00061	0.00019	0.00012	0.00021	4
14506	0.0001	3e-05	0.00017	0.00019	-0.00061	0.00019	0.00012	0.00021	4
14507	0.0001	3e-05	0.00017	0.00019	-0.00061	0.00019	0.00012	0.00021	4
14508	-0.00011	1e-05	-0.00027	-0.00063	-0.00128	0.00043	-0.00023	-0.00015	4
14509	-1e-05	-1e-05	7e-05	-0.00045	-0.00092	-0.00044	-6e-05	2e-05	4
14510	-1e-05	-1e-05	7e-05	-0.00045	-0.00092	-0.00044	-6e-05	2e-05	4
14511	-1e-05	-1e-05	7e-05	-0.00045	-0.00092	-0.00044	-6e-05	2e-05	4
14512	-1e-05	-1e-05	7e-05	-0.00045	-0.00092	-0.00044	-6e-05	2e-05	4
14513	-1e-05	-1e-05	7e-05	-0.00045	-0.00092	-0.00044	-6e-05	2e-05	4
14514	-1e-05	-1e-05	7e-05	-0.00045	-0.00092	-0.00044	-6e-05	2e-05	4
14515	-1e-05	-1e-05	7e-05	-0.00045	-0.00092	-0.00044	-6e-05	2e-05	4
14516	-1e-05	-1e-05	7e-05	-0.00045	-0.00092	-0.00044	-6e-05	2e-05	4
14517	-1e-05	-1e-05	7e-05	-0.00045	-0.00092	-0.00044	-6e-05	2e-05	4
14518	-1e-05	-1e-05	7e-05	-0.00045	-0.00092	-0.00044	-6e-05	2e-05	4
14519	-1e-05	-1e-05	7e-05	-0.00045	-0.00092	-0.00044	-6e-05	2e-05	4
14520	-1e-05	-1e-05	7e-05	-0.00045	-0.00092	-0.00044	-6e-05	2e-05	4
14521	-1e-05	-1e-05	7e-05	-0.00045	-0.00092	-0.00044	-6e-05	2e-05	4
14522	-3e-05	-4e-05	6e-05	0.00037	-0.00013	-0.00025	1e-05	-4e-05	4
14523	0.00013	-5e-05	0.0002	0.0004	0.00073	0.00074	0.00017	6e-05	4
14524	0.00013	-5e-05	0.0002	0.0004	0.00073	0.00074	0.00017	6e-05	4
14525	0.00013	-5e-05	0.0002	0.0004	0.00073	0.00074	0.00017	6e-05	4
14526	0.00013	-5e-05	0.0002	0.0004	0.00073	0.00074	0.00017	6e-05	4
14527	0.00013	-5e-05	0.0002	0.0004	0.00073	0.00074	0.00017	6e-05	4
14528	0.00013	-5e-05	0.0002	0.0004	0.00073	0.00074	0.00017	6e-05	4
14529	0.00013	-5e-05	0.0002	0.0004	0.00073	0.00074	0.00017	6e-05	4
14530	0.00013	-5e-05	0.0002	0.0004	0.00073	0.00074	0.00017	6e-05	4
14531	0.00013	-5e-05	0.0002	0.0004	0.00073	0.00074	0.00017	6e-05	4
14532	0.00013	-5e-05	0.0002	0.0004	0.00073	0.00074	0.00017	6e-05	4
14533	0.00013	-5e-05	0.0002	0.0004	0.00073	0.00074	0.00017	6e-05	4
14534	0.00013	-5e-05	0.0002	0.0004	0.00073	0.00074	0.00017	6e-05	4
14535	0.00013	-5e-05	0.0002	0.0004	0.00073	0.00074	0.00017	6e-05	4
14536	0.00013	-5e-05	0.0002	0.0004	0.00073	0.00074	0.00017	6e-05	4
14538	0.00013	-5e-05	0.0002	0.0004	0.00073	0.00074	0.00017	6e-05	4
14539	0.00013	-5e-05	0.0002	0.0004	0.00073	0.00074	0.00017	6e-05	4
14540	0.00013	-5e-05	0.0002	0.0004	0.00073	0.00074	0.00017	6e-05	4
14541	0.00013	-5e-05	0.0002	0.0004	0.00073	0.00074	0.00017	6e-05	4
14542	0.00013	-5e-05	0.0002	0.0004	0.00073	0.00074	0.00017	6e-05	4
14543	0.00013	-5e-05	0.0002	0.0004	0.00073	0.00074	0.00017	6e-05	4
14544	0.00013	-5e-05	0.0002	0.0004	0.00073	0.00074	0.00017	6e-05	4
14545	-0.00011	-3e-05	-0.00025	0.00025	0.00068	-0.00043	-0.0001	1e-05	4
14546	-0.00014	-3e-05	-0.00044	-0.00021	-0.00051	-0.00027	-0.00016	-0.00013	4
14547	-0.00014	-3e-05	-0.00044	-0.00021	-0.00051	-0.00027	-0.00016	-0.00013	4
14548	-0.00014	-3e-05	-0.00044	-0.00021	-0.00051	-0.00027	-0.00016	-0.00013	4
14549	-0.00014	-3e-05	-0.00044	-0.00021	-0.00051	-0.00027	-0.00016	-0.00013	4
14550	-0.00014	-3e-05	-0.00044	-0.00021	-0.00051	-0.00027	-0.00016	-0.00013	4
14551	-0.00014	-3e-05	-0.00044	-0.00021	-0.00051	-0.00027	-0.00016	-0.00013	4
14552	-0.00014	-3e-05	-0.00044	-0.00021	-0.00051	-0.00027	-0.00016	-0.00013	4
14553	-0.00014	-3e-05	-0.00044	-0.00021	-0.00051	-0.00027	-0.00016	-0.00013	4
14554	-0.00014	-3e-05	-0.00044	-0.00021	-0.00051	-0.00027	-0.00016	-0.00013	4
14555	-0.00014	-3e-05	-0.00044	-0.00021	-0.00051	-0.00027	-0.00016	-0.00013	4
14556	-0.00014	-3e-05	-0.00044	-0.00021	-0.00051	-0.00027	-0.00016	-0.00013	4
14557	-0.00014	-3e-05	-0.00044	-0.00021	-0.00051	-0.00027	-0.00016	-0.00013	4
14558	-0.00014	-3e-05	-0.00044	-0.00021	-0.00051	-0.00027	-0.00016	-0.00013	4
14559	-0.00014	-3e-05	-0.00044	-0.00021	-0.00051	-0.00027	-0.00016	-0.00013	4
14560	-0.00014	-3e-05	-0.00044	-0.00021	-0.00051	-0.00027	-0.00016	-0.00013	4
14561	-0.00014	-3e-05	-0.00044	-0.00021	-0.00051	-0.00027	-0.00016	-0.00013	4
14562	-0.00014	-3e-05	-0.00044	-0.00021	-0.00051	-0.00027	-0.00016	-0.00013	4
14563	-0.00014	-3e-05	-0.00044	-0.00021	-0.00051	-0.00027	-0.00016	-0.00013	4
14564	-0.00014	-3e-05	-0.00044	-0.00021	-0.00051	-0.00027	-0.00016	-0.00013	4
14565	-0.00014	-3e-05	-0.00044	-0.00021	-0.00051	-0.00027	-0.00016	-0.00013	4
14566	-0.00014	-3e-05	-0.00044	-0.00021	-0.00051	-0.00027	-0.00016	-0.00013	4
14567	-0.00014	-3e-05	-0.00044	-0.00021	-0.00051	-0.00027	-0.00016	-0.00013	4
14568	-1e-05	-4e-05	-0.00018	-3e-05	-0.00067	0.00034	-5e-05	4e-05	4
14569	0	2e-05	9e-05	-0.00026	0.00075	-0.00083	0.00011	-2e-05	4
14570	0	2e-05	9e-05	-0.00026	0.00075	-0.00083	0.00011	-2e-05	4
14571	0	2e-05	9e-05	-0.00026	0.00075	-0.00083	0.00011	-2e-05	4
14572	0	2e-05	9e-05	-0.00026	0.00075	-0.00083	0.00011	-2e-05	4
14573	0	2e-05	9e-05	-0.00026	0.00075	-0.00083	0.00011	-2e-05	4
14574	0	2e-05	9e-05	-0.00026	0.00075	-0.00083	0.00011	-2e-05	4
14575	0	2e-05	9e-05	-0.00026	0.00075	-0.00083	0.00011	-2e-05	4
14576	0	2e-05	9e-05	-0.00026	0.00075	-0.00083	0.00011	-2e-05	4
14577	0	2e-05	9e-05	-0.00026	0.00075	-0.00083	0.00011	-2e-05	4
14578	0	2e-05	9e-05	-0.00026	0.00075	-0.00083	0.00011	-2e-05	4
14579	0	2e-05	9e-05	-0.00026	0.00075	-0.00083	0.00011	-2e-05	4
14580	0	2e-05	9e-05	-0.00026	0.00075	-0.00083	0.00011	-2e-05	4
14581	9e-05	3e-05	0.00024	0.00053	0.0003	0.00017	0.00024	7e-05	4
14582	9e-05	3e-05	0.00024	0.00053	0.0003	0.00017	0.00024	7e-05	4
14583	9e-05	3e-05	0.00024	0.00053	0.0003	0.00017	0.00024	7e-05	4
14584	9e-05	3e-05	0.00024	0.00053	0.0003	0.00017	0.00024	7e-05	4
14585	9e-05	3e-05	0.00024	0.00053	0.0003	0.00017	0.00024	7e-05	4
14586	9e-05	3e-05	0.00024	0.00053	0.0003	0.00017	0.00024	7e-05	4
14588	9e-05	3e-05	0.00024	0.00053	0.0003	0.00017	0.00024	7e-05	4
14589	9e-05	3e-05	0.00024	0.00053	0.0003	0.00017	0.00024	7e-05	4
14590	-2e-05	1e-05	-5e-05	0.0001	0.0009	0.00011	-0.0002	-8e-05	4
14592	-2e-05	1e-05	-5e-05	0.0001	0.0009	0.00011	-0.0002	-8e-05	4
14593	-2e-05	1e-05	-5e-05	0.0001	0.0009	0.00011	-0.0002	-8e-05	4
14594	-2e-05	1e-05	-5e-05	0.0001	0.0009	0.00011	-0.0002	-8e-05	4
14595	-2e-05	1e-05	-5e-05	0.0001	0.0009	0.00011	-0.0002	-8e-05	4
14596	-2e-05	1e-05	-5e-05	0.0001	0.0009	0.00011	-0.0002	-8e-05	4
14597	-2e-05	1e-05	-5e-05	0.0001	0.0009	0.00011	-0.0002	-8e-05	4
14598	-2e-05	1e-05	-5e-05	0.0001	0.0009	0.00011	-0.0002	-8e-05	4
14599	-2e-05	1e-05	-5e-05	0.0001	0.0009	0.00011	-0.0002	-8e-05	4
14600	-2e-05	1e-05	-5e-05	0.0001	0.0009	0.00011	-0.0002	-8e-05	4
14601	-2e-05	1e-05	-5e-05	0.0001	0.0009	0.00011	-0.0002	-8e-05	4
14602	-2e-05	1e-05	-5e-05	0.0001	0.0009	0.00011	-0.0002	-8e-05	4
14603	-2e-05	1e-05	-5e-05	0.0001	0.0009	0.00011	-0.0002	-8e-05	4
14604	-2e-05	1e-05	-5e-05	0.0001	0.0009	0.00011	-0.0002	-8e-05	4
14605	1e-05	-5e-05	0.00022	0.00029	0.00118	-0.00076	0.00025	4e-05	4
14606	1e-05	-5e-05	0.00022	0.00029	0.00118	-0.00076	0.00025	4e-05	4
14607	0.00012	2e-05	0.00024	0.00099	0.00108	0.00055	7e-05	0.00028	4
14608	0.00012	2e-05	0.00024	0.00099	0.00108	0.00055	7e-05	0.00028	4
14609	0.00012	2e-05	0.00024	0.00099	0.00108	0.00055	7e-05	0.00028	4
14610	0.00012	2e-05	0.00024	0.00099	0.00108	0.00055	7e-05	0.00028	4
14611	0.00012	2e-05	0.00024	0.00099	0.00108	0.00055	7e-05	0.00028	4
14612	0.00012	2e-05	0.00024	0.00099	0.00108	0.00055	7e-05	0.00028	4
14613	0.00012	2e-05	0.00024	0.00099	0.00108	0.00055	7e-05	0.00028	4
14614	0.00012	2e-05	0.00024	0.00099	0.00108	0.00055	7e-05	0.00028	4
14615	0.00012	2e-05	0.00024	0.00099	0.00108	0.00055	7e-05	0.00028	4
14616	0.00012	2e-05	0.00024	0.00099	0.00108	0.00055	7e-05	0.00028	4
14617	0.00012	2e-05	0.00024	0.00099	0.00108	0.00055	7e-05	0.00028	4
14618	0.00012	2e-05	0.00024	0.00099	0.00108	0.00055	7e-05	0.00028	4
14619	0.00012	2e-05	0.00024	0.00099	0.00108	0.00055	7e-05	0.00028	4
14620	0.00012	2e-05	0.00024	0.00099	0.00108	0.00055	7e-05	0.00028	4
14621	0.00012	2e-05	0.00024	0.00099	0.00108	0.00055	7e-05	0.00028	4
14622	0.00012	2e-05	0.00024	0.00099	0.00108	0.00055	7e-05	0.00028	4
14623	0.00012	2e-05	0.00024	0.00099	0.00108	0.00055	7e-05	0.00028	4
14624	0.00012	2e-05	0.00024	0.00099	0.00108	0.00055	7e-05	0.00028	4
14625	0.00012	2e-05	0.00024	0.00099	0.00108	0.00055	7e-05	0.00028	4
14626	0.00012	2e-05	0.00024	0.00099	0.00108	0.00055	7e-05	0.00028	4
14627	0.00012	2e-05	0.00024	0.00099	0.00108	0.00055	7e-05	0.00028	4
14628	3e-05	-6e-05	-0.00015	-0.00069	-0.00128	-4e-05	-0.00013	0	4
14629	-0.00012	-2e-05	-0.00016	0.00064	0.0004	-0.00046	2e-05	-0.00015	4
14630	-0.00012	-2e-05	-0.00016	0.00064	0.0004	-0.00046	2e-05	-0.00015	4
14631	-0.00012	-2e-05	-0.00016	0.00064	0.0004	-0.00046	2e-05	-0.00015	4
14632	-0.00012	-2e-05	-0.00016	0.00064	0.0004	-0.00046	2e-05	-0.00015	4
14633	-0.00012	-2e-05	-0.00016	0.00064	0.0004	-0.00046	2e-05	-0.00015	4
14634	-0.00012	-2e-05	-0.00016	0.00064	0.0004	-0.00046	2e-05	-0.00015	4
14635	-0.00012	-2e-05	-0.00016	0.00064	0.0004	-0.00046	2e-05	-0.00015	4
14636	-0.00012	-2e-05	-0.00016	0.00064	0.0004	-0.00046	2e-05	-0.00015	4
14638	-0.00012	-2e-05	-0.00016	0.00064	0.0004	-0.00046	2e-05	-0.00015	4
14639	-0.00012	-2e-05	-0.00016	0.00064	0.0004	-0.00046	2e-05	-0.00015	4
14640	-0.00012	-2e-05	-0.00016	0.00064	0.0004	-0.00046	2e-05	-0.00015	4
14641	2e-05	-2e-05	-6e-05	-8e-05	-0.00029	0.00019	-0.00016	-0.0001	4
14642	2e-05	-2e-05	-6e-05	-8e-05	-0.00029	0.00019	-0.00016	-0.0001	4
14643	2e-05	-2e-05	-6e-05	-8e-05	-0.00029	0.00019	-0.00016	-0.0001	4
14644	2e-05	-2e-05	-6e-05	-8e-05	-0.00029	0.00019	-0.00016	-0.0001	4
14645	2e-05	-2e-05	-6e-05	-8e-05	-0.00029	0.00019	-0.00016	-0.0001	4
14646	2e-05	-2e-05	-6e-05	-8e-05	-0.00029	0.00019	-0.00016	-0.0001	4
14647	2e-05	-2e-05	-6e-05	-8e-05	-0.00029	0.00019	-0.00016	-0.0001	4
14648	2e-05	-2e-05	-6e-05	-8e-05	-0.00029	0.00019	-0.00016	-0.0001	4
14649	2e-05	-2e-05	-6e-05	-8e-05	-0.00029	0.00019	-0.00016	-0.0001	4
14650	-9e-05	-4e-05	-0.00017	-0.00044	-0.00057	-0.00047	-0.00015	-0.00023	4
14651	-9e-05	-4e-05	-0.00017	-0.00044	-0.00057	-0.00047	-0.00015	-0.00023	4
14652	-9e-05	-4e-05	-0.00017	-0.00044	-0.00057	-0.00047	-0.00015	-0.00023	4
14653	-9e-05	-4e-05	-0.00017	-0.00044	-0.00057	-0.00047	-0.00015	-0.00023	4
14654	-9e-05	-4e-05	-0.00017	-0.00044	-0.00057	-0.00047	-0.00015	-0.00023	4
14655	-9e-05	-4e-05	-0.00017	-0.00044	-0.00057	-0.00047	-0.00015	-0.00023	4
14656	-9e-05	-4e-05	-0.00017	-0.00044	-0.00057	-0.00047	-0.00015	-0.00023	4
14657	-9e-05	-4e-05	-0.00017	-0.00044	-0.00057	-0.00047	-0.00015	-0.00023	4
14658	-9e-05	-4e-05	-0.00017	-0.00044	-0.00057	-0.00047	-0.00015	-0.00023	4
14659	-9e-05	-4e-05	-0.00017	-0.00044	-0.00057	-0.00047	-0.00015	-0.00023	4
14660	-9e-05	-4e-05	-0.00017	-0.00044	-0.00057	-0.00047	-0.00015	-0.00023	4
14661	-9e-05	-4e-05	-0.00017	-0.00044	-0.00057	-0.00047	-0.00015	-0.00023	4
14662	-9e-05	-4e-05	-0.00017	-0.00044	-0.00057	-0.00047	-0.00015	-0.00023	4
14663	-9e-05	-4e-05	-0.00017	-0.00044	-0.00057	-0.00047	-0.00015	-0.00023	4
14664	-9e-05	-4e-05	-0.00017	-0.00044	-0.00057	-0.00047	-0.00015	-0.00023	4
14665	-7e-05	1e-05	-5e-05	-0.00036	-0.00059	0.00035	-0.0001	-9e-05	4
14666	-7e-05	1e-05	-5e-05	-0.00036	-0.00059	0.00035	-0.0001	-9e-05	4
14667	-2e-05	1e-05	0.00015	-0.00045	-0.00119	-4e-05	-4e-05	2e-05	4
14668	-2e-05	1e-05	0.00015	-0.00045	-0.00119	-4e-05	-4e-05	2e-05	4
14669	-2e-05	1e-05	0.00015	-0.00045	-0.00119	-4e-05	-4e-05	2e-05	4
14670	-2e-05	1e-05	0.00015	-0.00045	-0.00119	-4e-05	-4e-05	2e-05	4
14671	-2e-05	1e-05	0.00015	-0.00045	-0.00119	-4e-05	-4e-05	2e-05	4
14672	-2e-05	1e-05	0.00015	-0.00045	-0.00119	-4e-05	-4e-05	2e-05	4
14673	-2e-05	1e-05	0.00015	-0.00045	-0.00119	-4e-05	-4e-05	2e-05	4
14674	-2e-05	1e-05	0.00015	-0.00045	-0.00119	-4e-05	-4e-05	2e-05	4
14675	-2e-05	1e-05	0.00015	-0.00045	-0.00119	-4e-05	-4e-05	2e-05	4
14676	-2e-05	1e-05	0.00015	-0.00045	-0.00119	-4e-05	-4e-05	2e-05	4
14677	-2e-05	1e-05	0.00015	-0.00045	-0.00119	-4e-05	-4e-05	2e-05	4
14678	-2e-05	1e-05	0.00015	-0.00045	-0.00119	-4e-05	-4e-05	2e-05	4
14679	-2e-05	1e-05	0.00015	-0.00045	-0.00119	-4e-05	-4e-05	2e-05	4
14680	-2e-05	1e-05	0.00015	-0.00045	-0.00119	-4e-05	-4e-05	2e-05	4
14681	-2e-05	1e-05	0.00015	-0.00045	-0.00119	-4e-05	-4e-05	2e-05	4
14682	-2e-05	1e-05	0.00015	-0.00045	-0.00119	-4e-05	-4e-05	2e-05	4
14683	-2e-05	1e-05	0.00015	-0.00045	-0.00119	-4e-05	-4e-05	2e-05	4
14684	-2e-05	1e-05	0.00015	-0.00045	-0.00119	-4e-05	-4e-05	2e-05	4
14685	-2e-05	1e-05	0.00015	-0.00045	-0.00119	-4e-05	-4e-05	2e-05	4
14686	-2e-05	1e-05	0.00015	-0.00045	-0.00119	-4e-05	-4e-05	2e-05	4
14689	-8e-05	-1e-05	-6e-05	-2e-05	-0.00066	-0.00013	-0.00017	-0.0001	4
14690	2e-05	-2e-05	0.00032	0.00071	0.0009	0.00063	0.00016	4e-05	4
14691	2e-05	-2e-05	0.00032	0.00071	0.0009	0.00063	0.00016	4e-05	4
14692	2e-05	-2e-05	0.00032	0.00071	0.0009	0.00063	0.00016	4e-05	4
14693	2e-05	-2e-05	0.00032	0.00071	0.0009	0.00063	0.00016	4e-05	4
14694	2e-05	-2e-05	0.00032	0.00071	0.0009	0.00063	0.00016	4e-05	4
14695	2e-05	-2e-05	0.00032	0.00071	0.0009	0.00063	0.00016	4e-05	4
14696	2e-05	-2e-05	0.00032	0.00071	0.0009	0.00063	0.00016	4e-05	4
14697	2e-05	-2e-05	0.00032	0.00071	0.0009	0.00063	0.00016	4e-05	4
14698	2e-05	-2e-05	0.00032	0.00071	0.0009	0.00063	0.00016	4e-05	4
14699	2e-05	-2e-05	0.00032	0.00071	0.0009	0.00063	0.00016	4e-05	4
14700	2e-05	-2e-05	0.00032	0.00071	0.0009	0.00063	0.00016	4e-05	4
14701	-2e-05	-1e-05	-0.00014	0.00118	0.00127	-0.0003	-2e-05	2e-05	4
14702	-2e-05	-1e-05	-0.00014	0.00118	0.00127	-0.0003	-2e-05	2e-05	4
14703	-2e-05	-1e-05	-0.00014	0.00118	0.00127	-0.0003	-2e-05	2e-05	4
14704	-2e-05	-1e-05	-0.00014	0.00118	0.00127	-0.0003	-2e-05	2e-05	4
14705	-2e-05	-1e-05	-0.00014	0.00118	0.00127	-0.0003	-2e-05	2e-05	4
14706	-2e-05	-1e-05	-0.00014	0.00118	0.00127	-0.0003	-2e-05	2e-05	4
14707	-2e-05	-1e-05	-0.00014	0.00118	0.00127	-0.0003	-2e-05	2e-05	4
14708	-2e-05	-1e-05	-0.00014	0.00118	0.00127	-0.0003	-2e-05	2e-05	4
14709	-2e-05	-1e-05	-0.00014	0.00118	0.00127	-0.0003	-2e-05	2e-05	4
14710	-9e-05	-3e-05	-0.0002	-0.0005	-0.00036	0.00021	-0.00033	-8e-05	4
14711	-9e-05	-3e-05	-0.0002	-0.0005	-0.00036	0.00021	-0.00033	-8e-05	4
14712	-9e-05	-3e-05	-0.0002	-0.0005	-0.00036	0.00021	-0.00033	-8e-05	4
14713	-9e-05	-3e-05	-0.0002	-0.0005	-0.00036	0.00021	-0.00033	-8e-05	4
14714	-9e-05	-3e-05	-0.0002	-0.0005	-0.00036	0.00021	-0.00033	-8e-05	4
14715	-9e-05	-3e-05	-0.0002	-0.0005	-0.00036	0.00021	-0.00033	-8e-05	4
14716	-9e-05	-3e-05	-0.0002	-0.0005	-0.00036	0.00021	-0.00033	-8e-05	4
14717	-9e-05	-3e-05	-0.0002	-0.0005	-0.00036	0.00021	-0.00033	-8e-05	4
14718	-9e-05	-3e-05	-0.0002	-0.0005	-0.00036	0.00021	-0.00033	-8e-05	4
14719	-9e-05	-3e-05	-0.0002	-0.0005	-0.00036	0.00021	-0.00033	-8e-05	4
14720	-9e-05	-3e-05	-0.0002	-0.0005	-0.00036	0.00021	-0.00033	-8e-05	4
14721	-9e-05	-3e-05	-0.0002	-0.0005	-0.00036	0.00021	-0.00033	-8e-05	4
14722	-9e-05	-3e-05	-0.0002	-0.0005	-0.00036	0.00021	-0.00033	-8e-05	4
14723	-9e-05	-3e-05	-0.0002	-0.0005	-0.00036	0.00021	-0.00033	-8e-05	4
14724	-9e-05	-3e-05	-0.0002	-0.0005	-0.00036	0.00021	-0.00033	-8e-05	4
14725	0.0001	-1e-05	0.00016	-6e-05	0.0007	0.00096	0.00026	0.00022	4
14726	0.0001	-1e-05	0.00016	-6e-05	0.0007	0.00096	0.00026	0.00022	4
14727	4e-05	-1e-05	-8e-05	9e-05	-1e-05	-0.00013	-7e-05	0.00023	4
14728	4e-05	-1e-05	-8e-05	9e-05	-1e-05	-0.00013	-7e-05	0.00023	4
14729	4e-05	-1e-05	-8e-05	9e-05	-1e-05	-0.00013	-7e-05	0.00023	4
14730	4e-05	-1e-05	-8e-05	9e-05	-1e-05	-0.00013	-7e-05	0.00023	4
14731	4e-05	-1e-05	-8e-05	9e-05	-1e-05	-0.00013	-7e-05	0.00023	4
14732	4e-05	-1e-05	-8e-05	9e-05	-1e-05	-0.00013	-7e-05	0.00023	4
14733	4e-05	-1e-05	-8e-05	9e-05	-1e-05	-0.00013	-7e-05	0.00023	4
14734	4e-05	-1e-05	-8e-05	9e-05	-1e-05	-0.00013	-7e-05	0.00023	4
14735	4e-05	-1e-05	-8e-05	9e-05	-1e-05	-0.00013	-7e-05	0.00023	4
14736	4e-05	-1e-05	-8e-05	9e-05	-1e-05	-0.00013	-7e-05	0.00023	4
14738	4e-05	-1e-05	-8e-05	9e-05	-1e-05	-0.00013	-7e-05	0.00023	4
14739	4e-05	-1e-05	-8e-05	9e-05	-1e-05	-0.00013	-7e-05	0.00023	4
14740	4e-05	-1e-05	-8e-05	9e-05	-1e-05	-0.00013	-7e-05	0.00023	4
14741	4e-05	-1e-05	-8e-05	9e-05	-1e-05	-0.00013	-7e-05	0.00023	4
14742	4e-05	-1e-05	-8e-05	9e-05	-1e-05	-0.00013	-7e-05	0.00023	4
14743	4e-05	-1e-05	-8e-05	9e-05	-1e-05	-0.00013	-7e-05	0.00023	4
14744	4e-05	-1e-05	-8e-05	9e-05	-1e-05	-0.00013	-7e-05	0.00023	4
14745	4e-05	-1e-05	-8e-05	9e-05	-1e-05	-0.00013	-7e-05	0.00023	4
14746	4e-05	-1e-05	-8e-05	9e-05	-1e-05	-0.00013	-7e-05	0.00023	4
14747	4e-05	-1e-05	-8e-05	9e-05	-1e-05	-0.00013	-7e-05	0.00023	4
14748	0.00013	3e-05	0.00028	-0.00016	-0.0011	0.00026	0.00015	0.00014	4
14749	-9e-05	-1e-05	-0.00018	-0.00066	-0.00104	-0.00032	2e-05	-0.0001	4
14750	-9e-05	-1e-05	-0.00018	-0.00066	-0.00104	-0.00032	2e-05	-0.0001	4
14751	-9e-05	-1e-05	-0.00018	-0.00066	-0.00104	-0.00032	2e-05	-0.0001	4
14752	-9e-05	-1e-05	-0.00018	-0.00066	-0.00104	-0.00032	2e-05	-0.0001	4
14753	-9e-05	-1e-05	-0.00018	-0.00066	-0.00104	-0.00032	2e-05	-0.0001	4
14754	-9e-05	-1e-05	-0.00018	-0.00066	-0.00104	-0.00032	2e-05	-0.0001	4
14755	-9e-05	-1e-05	-0.00018	-0.00066	-0.00104	-0.00032	2e-05	-0.0001	4
14756	-9e-05	-1e-05	-0.00018	-0.00066	-0.00104	-0.00032	2e-05	-0.0001	4
14757	-9e-05	-1e-05	-0.00018	-0.00066	-0.00104	-0.00032	2e-05	-0.0001	4
14758	-9e-05	-1e-05	-0.00018	-0.00066	-0.00104	-0.00032	2e-05	-0.0001	4
14759	-9e-05	-1e-05	-0.00018	-0.00066	-0.00104	-0.00032	2e-05	-0.0001	4
14760	-9e-05	-1e-05	-0.00018	-0.00066	-0.00104	-0.00032	2e-05	-0.0001	4
14761	-4e-05	0	-0.0002	-0.00017	-0.0007	-1e-05	8e-05	-4e-05	4
14762	-4e-05	0	-0.0002	-0.00017	-0.0007	-1e-05	8e-05	-4e-05	4
14763	-4e-05	0	-0.0002	-0.00017	-0.0007	-1e-05	8e-05	-4e-05	4
14764	-4e-05	0	-0.0002	-0.00017	-0.0007	-1e-05	8e-05	-4e-05	4
14765	-4e-05	0	-0.0002	-0.00017	-0.0007	-1e-05	8e-05	-4e-05	4
14766	-4e-05	0	-0.0002	-0.00017	-0.0007	-1e-05	8e-05	-4e-05	4
14767	-4e-05	0	-0.0002	-0.00017	-0.0007	-1e-05	8e-05	-4e-05	4
14768	-4e-05	0	-0.0002	-0.00017	-0.0007	-1e-05	8e-05	-4e-05	4
14769	-4e-05	0	-0.0002	-0.00017	-0.0007	-1e-05	8e-05	-4e-05	4
14770	5e-05	4e-05	0.00014	-0.00062	-0.00033	0.00022	8e-05	-4e-05	4
14771	5e-05	4e-05	0.00014	-0.00062	-0.00033	0.00022	8e-05	-4e-05	4
14772	5e-05	4e-05	0.00014	-0.00062	-0.00033	0.00022	8e-05	-4e-05	4
14773	5e-05	4e-05	0.00014	-0.00062	-0.00033	0.00022	8e-05	-4e-05	4
14774	5e-05	4e-05	0.00014	-0.00062	-0.00033	0.00022	8e-05	-4e-05	4
14775	5e-05	4e-05	0.00014	-0.00062	-0.00033	0.00022	8e-05	-4e-05	4
14776	5e-05	4e-05	0.00014	-0.00062	-0.00033	0.00022	8e-05	-4e-05	4
14777	5e-05	4e-05	0.00014	-0.00062	-0.00033	0.00022	8e-05	-4e-05	4
14778	5e-05	4e-05	0.00014	-0.00062	-0.00033	0.00022	8e-05	-4e-05	4
14779	5e-05	4e-05	0.00014	-0.00062	-0.00033	0.00022	8e-05	-4e-05	4
14780	5e-05	4e-05	0.00014	-0.00062	-0.00033	0.00022	8e-05	-4e-05	4
14781	5e-05	4e-05	0.00014	-0.00062	-0.00033	0.00022	8e-05	-4e-05	4
14782	5e-05	4e-05	0.00014	-0.00062	-0.00033	0.00022	8e-05	-4e-05	4
14783	5e-05	4e-05	0.00014	-0.00062	-0.00033	0.00022	8e-05	-4e-05	4
14784	5e-05	4e-05	0.00014	-0.00062	-0.00033	0.00022	8e-05	-4e-05	4
14785	-6e-05	-3e-05	-4e-05	-0.00102	-0.00081	-0.00033	-0.00019	-0.00011	4
14786	-6e-05	-3e-05	-4e-05	-0.00102	-0.00081	-0.00033	-0.00019	-0.00011	4
14788	4e-05	1e-05	-7e-05	-0.00014	-0.00074	0.00019	0.00021	-1e-05	4
14789	4e-05	1e-05	-7e-05	-0.00014	-0.00074	0.00019	0.00021	-1e-05	4
14790	4e-05	1e-05	-7e-05	-0.00014	-0.00074	0.00019	0.00021	-1e-05	4
14791	4e-05	1e-05	-7e-05	-0.00014	-0.00074	0.00019	0.00021	-1e-05	4
14792	4e-05	1e-05	-7e-05	-0.00014	-0.00074	0.00019	0.00021	-1e-05	4
14793	4e-05	1e-05	-7e-05	-0.00014	-0.00074	0.00019	0.00021	-1e-05	4
14794	4e-05	1e-05	-7e-05	-0.00014	-0.00074	0.00019	0.00021	-1e-05	4
14795	4e-05	1e-05	-7e-05	-0.00014	-0.00074	0.00019	0.00021	-1e-05	4
14796	4e-05	1e-05	-7e-05	-0.00014	-0.00074	0.00019	0.00021	-1e-05	4
14797	4e-05	1e-05	-7e-05	-0.00014	-0.00074	0.00019	0.00021	-1e-05	4
14798	4e-05	1e-05	-7e-05	-0.00014	-0.00074	0.00019	0.00021	-1e-05	4
14799	4e-05	1e-05	-7e-05	-0.00014	-0.00074	0.00019	0.00021	-1e-05	4
14800	4e-05	1e-05	-7e-05	-0.00014	-0.00074	0.00019	0.00021	-1e-05	4
14801	4e-05	1e-05	-7e-05	-0.00014	-0.00074	0.00019	0.00021	-1e-05	4
14802	4e-05	1e-05	-7e-05	-0.00014	-0.00074	0.00019	0.00021	-1e-05	4
14803	4e-05	1e-05	-7e-05	-0.00014	-0.00074	0.00019	0.00021	-1e-05	4
14804	4e-05	1e-05	-7e-05	-0.00014	-0.00074	0.00019	0.00021	-1e-05	4
14805	4e-05	1e-05	-7e-05	-0.00014	-0.00074	0.00019	0.00021	-1e-05	4
14806	4e-05	1e-05	-7e-05	-0.00014	-0.00074	0.00019	0.00021	-1e-05	4
14807	4e-05	1e-05	-7e-05	-0.00014	-0.00074	0.00019	0.00021	-1e-05	4
14808	-2e-05	-7e-05	8e-05	0.00014	0.00033	-0.00019	-5e-05	-2e-05	4
14809	-0.00016	0	-0.0002	-0.00049	-0.00056	0.00027	2e-05	-0.0002	4
14810	-0.00016	0	-0.0002	-0.00049	-0.00056	0.00027	2e-05	-0.0002	4
14811	-0.00016	0	-0.0002	-0.00049	-0.00056	0.00027	2e-05	-0.0002	4
14812	-0.00016	0	-0.0002	-0.00049	-0.00056	0.00027	2e-05	-0.0002	4
14813	-0.00016	0	-0.0002	-0.00049	-0.00056	0.00027	2e-05	-0.0002	4
14814	-0.00016	0	-0.0002	-0.00049	-0.00056	0.00027	2e-05	-0.0002	4
14815	-0.00016	0	-0.0002	-0.00049	-0.00056	0.00027	2e-05	-0.0002	4
14816	-0.00016	0	-0.0002	-0.00049	-0.00056	0.00027	2e-05	-0.0002	4
14817	-0.00016	0	-0.0002	-0.00049	-0.00056	0.00027	2e-05	-0.0002	4
14818	-0.00016	0	-0.0002	-0.00049	-0.00056	0.00027	2e-05	-0.0002	4
14819	-0.00016	0	-0.0002	-0.00049	-0.00056	0.00027	2e-05	-0.0002	4
14820	-0.00016	0	-0.0002	-0.00049	-0.00056	0.00027	2e-05	-0.0002	4
14821	-0.00011	2e-05	-0.0003	-0.00057	-0.00128	-5e-05	-0.00025	-0.00014	4
14822	-0.00011	2e-05	-0.0003	-0.00057	-0.00128	-5e-05	-0.00025	-0.00014	4
14823	-0.00011	2e-05	-0.0003	-0.00057	-0.00128	-5e-05	-0.00025	-0.00014	4
14824	-0.00011	2e-05	-0.0003	-0.00057	-0.00128	-5e-05	-0.00025	-0.00014	4
14825	-0.00011	2e-05	-0.0003	-0.00057	-0.00128	-5e-05	-0.00025	-0.00014	4
14826	-0.00011	2e-05	-0.0003	-0.00057	-0.00128	-5e-05	-0.00025	-0.00014	4
14827	-0.00011	2e-05	-0.0003	-0.00057	-0.00128	-5e-05	-0.00025	-0.00014	4
14828	-0.00011	2e-05	-0.0003	-0.00057	-0.00128	-5e-05	-0.00025	-0.00014	4
14829	-0.00011	2e-05	-0.0003	-0.00057	-0.00128	-5e-05	-0.00025	-0.00014	4
14830	7e-05	-5e-05	-2e-05	-0.00012	-0.00047	-0.00024	-9e-05	6e-05	4
14831	7e-05	-5e-05	-2e-05	-0.00012	-0.00047	-0.00024	-9e-05	6e-05	4
14832	7e-05	-5e-05	-2e-05	-0.00012	-0.00047	-0.00024	-9e-05	6e-05	4
14833	7e-05	-5e-05	-2e-05	-0.00012	-0.00047	-0.00024	-9e-05	6e-05	4
14834	7e-05	-5e-05	-2e-05	-0.00012	-0.00047	-0.00024	-9e-05	6e-05	4
14835	7e-05	-5e-05	-2e-05	-0.00012	-0.00047	-0.00024	-9e-05	6e-05	4
14836	7e-05	-5e-05	-2e-05	-0.00012	-0.00047	-0.00024	-9e-05	6e-05	4
14838	7e-05	-5e-05	-2e-05	-0.00012	-0.00047	-0.00024	-9e-05	6e-05	4
14839	7e-05	-5e-05	-2e-05	-0.00012	-0.00047	-0.00024	-9e-05	6e-05	4
14840	7e-05	-5e-05	-2e-05	-0.00012	-0.00047	-0.00024	-9e-05	6e-05	4
14841	7e-05	-5e-05	-2e-05	-0.00012	-0.00047	-0.00024	-9e-05	6e-05	4
14842	7e-05	-5e-05	-2e-05	-0.00012	-0.00047	-0.00024	-9e-05	6e-05	4
14843	7e-05	-5e-05	-2e-05	-0.00012	-0.00047	-0.00024	-9e-05	6e-05	4
14844	7e-05	-5e-05	-2e-05	-0.00012	-0.00047	-0.00024	-9e-05	6e-05	4
14845	5e-05	-5e-05	-4e-05	-0.00072	-0.00101	-0.00029	-6e-05	-1e-05	4
14846	5e-05	-5e-05	-4e-05	-0.00072	-0.00101	-0.00029	-6e-05	-1e-05	4
14847	6e-05	-1e-05	7e-05	0.00061	0.00091	0.00025	0.00021	0.0001	4
14848	6e-05	-1e-05	7e-05	0.00061	0.00091	0.00025	0.00021	0.0001	4
14849	6e-05	-1e-05	7e-05	0.00061	0.00091	0.00025	0.00021	0.0001	4
14850	6e-05	-1e-05	7e-05	0.00061	0.00091	0.00025	0.00021	0.0001	4
14851	6e-05	-1e-05	7e-05	0.00061	0.00091	0.00025	0.00021	0.0001	4
14852	6e-05	-1e-05	7e-05	0.00061	0.00091	0.00025	0.00021	0.0001	4
14853	6e-05	-1e-05	7e-05	0.00061	0.00091	0.00025	0.00021	0.0001	4
14854	6e-05	-1e-05	7e-05	0.00061	0.00091	0.00025	0.00021	0.0001	4
14855	6e-05	-1e-05	7e-05	0.00061	0.00091	0.00025	0.00021	0.0001	4
14856	6e-05	-1e-05	7e-05	0.00061	0.00091	0.00025	0.00021	0.0001	4
14857	6e-05	-1e-05	7e-05	0.00061	0.00091	0.00025	0.00021	0.0001	4
14858	6e-05	-1e-05	7e-05	0.00061	0.00091	0.00025	0.00021	0.0001	4
14859	6e-05	-1e-05	7e-05	0.00061	0.00091	0.00025	0.00021	0.0001	4
14860	6e-05	-1e-05	7e-05	0.00061	0.00091	0.00025	0.00021	0.0001	4
14861	6e-05	-1e-05	7e-05	0.00061	0.00091	0.00025	0.00021	0.0001	4
14862	6e-05	-1e-05	7e-05	0.00061	0.00091	0.00025	0.00021	0.0001	4
14863	6e-05	-1e-05	7e-05	0.00061	0.00091	0.00025	0.00021	0.0001	4
14864	6e-05	-1e-05	7e-05	0.00061	0.00091	0.00025	0.00021	0.0001	4
14865	6e-05	-1e-05	7e-05	0.00061	0.00091	0.00025	0.00021	0.0001	4
14866	6e-05	-1e-05	7e-05	0.00061	0.00091	0.00025	0.00021	0.0001	4
14867	6e-05	-1e-05	7e-05	0.00061	0.00091	0.00025	0.00021	0.0001	4
14868	1e-05	0	7e-05	-0.0002	-0.00068	-1e-05	0.00018	3e-05	4
14869	4e-05	-3e-05	0.0001	-0.00031	-0.00052	0.00025	-3e-05	2e-05	4
14870	4e-05	-3e-05	0.0001	-0.00031	-0.00052	0.00025	-3e-05	2e-05	4
14871	4e-05	-3e-05	0.0001	-0.00031	-0.00052	0.00025	-3e-05	2e-05	4
14872	4e-05	-3e-05	0.0001	-0.00031	-0.00052	0.00025	-3e-05	2e-05	4
14873	4e-05	-3e-05	0.0001	-0.00031	-0.00052	0.00025	-3e-05	2e-05	4
14874	4e-05	-3e-05	0.0001	-0.00031	-0.00052	0.00025	-3e-05	2e-05	4
14875	4e-05	-3e-05	0.0001	-0.00031	-0.00052	0.00025	-3e-05	2e-05	4
14877	4e-05	-3e-05	0.0001	-0.00031	-0.00052	0.00025	-3e-05	2e-05	4
14878	4e-05	-3e-05	0.0001	-0.00031	-0.00052	0.00025	-3e-05	2e-05	4
14879	4e-05	-3e-05	0.0001	-0.00031	-0.00052	0.00025	-3e-05	2e-05	4
14880	4e-05	-3e-05	0.0001	-0.00031	-0.00052	0.00025	-3e-05	2e-05	4
14881	5e-05	2e-05	7e-05	0.00036	0.00127	0.00011	7e-05	6e-05	4
14882	5e-05	2e-05	7e-05	0.00036	0.00127	0.00011	7e-05	6e-05	4
14883	5e-05	2e-05	7e-05	0.00036	0.00127	0.00011	7e-05	6e-05	4
14884	5e-05	2e-05	7e-05	0.00036	0.00127	0.00011	7e-05	6e-05	4
14885	5e-05	2e-05	7e-05	0.00036	0.00127	0.00011	7e-05	6e-05	4
14886	5e-05	2e-05	7e-05	0.00036	0.00127	0.00011	7e-05	6e-05	4
14888	5e-05	2e-05	7e-05	0.00036	0.00127	0.00011	7e-05	6e-05	4
14889	5e-05	2e-05	7e-05	0.00036	0.00127	0.00011	7e-05	6e-05	4
14890	2e-05	1e-05	0.00018	0.00064	0.00065	5e-05	-7e-05	-2e-05	4
14891	2e-05	1e-05	0.00018	0.00064	0.00065	5e-05	-7e-05	-2e-05	4
14892	2e-05	1e-05	0.00018	0.00064	0.00065	5e-05	-7e-05	-2e-05	4
14893	2e-05	1e-05	0.00018	0.00064	0.00065	5e-05	-7e-05	-2e-05	4
14894	2e-05	1e-05	0.00018	0.00064	0.00065	5e-05	-7e-05	-2e-05	4
14895	2e-05	1e-05	0.00018	0.00064	0.00065	5e-05	-7e-05	-2e-05	4
14897	2e-05	1e-05	0.00018	0.00064	0.00065	5e-05	-7e-05	-2e-05	4
14898	2e-05	1e-05	0.00018	0.00064	0.00065	5e-05	-7e-05	-2e-05	4
14899	2e-05	1e-05	0.00018	0.00064	0.00065	5e-05	-7e-05	-2e-05	4
14900	2e-05	1e-05	0.00018	0.00064	0.00065	5e-05	-7e-05	-2e-05	4
14901	2e-05	1e-05	0.00018	0.00064	0.00065	5e-05	-7e-05	-2e-05	4
14902	2e-05	1e-05	0.00018	0.00064	0.00065	5e-05	-7e-05	-2e-05	4
14903	2e-05	1e-05	0.00018	0.00064	0.00065	5e-05	-7e-05	-2e-05	4
14904	2e-05	1e-05	0.00018	0.00064	0.00065	5e-05	-7e-05	-2e-05	4
14905	0	-2e-05	4e-05	0.00081	0.00044	-0.00041	-3e-05	0	4
14906	0	-2e-05	4e-05	0.00081	0.00044	-0.00041	-3e-05	0	4
14907	-1e-05	-2e-05	0.0001	0.00064	0.00086	0.0006	7e-05	-1e-05	4
14908	-1e-05	-2e-05	0.0001	0.00064	0.00086	0.0006	7e-05	-1e-05	4
14909	-1e-05	-2e-05	0.0001	0.00064	0.00086	0.0006	7e-05	-1e-05	4
14910	-1e-05	-2e-05	0.0001	0.00064	0.00086	0.0006	7e-05	-1e-05	4
14911	-1e-05	-2e-05	0.0001	0.00064	0.00086	0.0006	7e-05	-1e-05	4
14912	-1e-05	-2e-05	0.0001	0.00064	0.00086	0.0006	7e-05	-1e-05	4
14913	-1e-05	-2e-05	0.0001	0.00064	0.00086	0.0006	7e-05	-1e-05	4
14914	-1e-05	-2e-05	0.0001	0.00064	0.00086	0.0006	7e-05	-1e-05	4
14915	-1e-05	-2e-05	0.0001	0.00064	0.00086	0.0006	7e-05	-1e-05	4
14916	-1e-05	-2e-05	0.0001	0.00064	0.00086	0.0006	7e-05	-1e-05	4
14917	-1e-05	-2e-05	0.0001	0.00064	0.00086	0.0006	7e-05	-1e-05	4
14918	-1e-05	-2e-05	0.0001	0.00064	0.00086	0.0006	7e-05	-1e-05	4
14919	-1e-05	-2e-05	0.0001	0.00064	0.00086	0.0006	7e-05	-1e-05	4
14920	-1e-05	-2e-05	0.0001	0.00064	0.00086	0.0006	7e-05	-1e-05	4
14921	-1e-05	-2e-05	0.0001	0.00064	0.00086	0.0006	7e-05	-1e-05	4
14922	-1e-05	-2e-05	0.0001	0.00064	0.00086	0.0006	7e-05	-1e-05	4
14923	-1e-05	-2e-05	0.0001	0.00064	0.00086	0.0006	7e-05	-1e-05	4
14924	-1e-05	-2e-05	0.0001	0.00064	0.00086	0.0006	7e-05	-1e-05	4
14925	-1e-05	-2e-05	0.0001	0.00064	0.00086	0.0006	7e-05	-1e-05	4
14926	-1e-05	-2e-05	0.0001	0.00064	0.00086	0.0006	7e-05	-1e-05	4
14927	-1e-05	-2e-05	0.0001	0.00064	0.00086	0.0006	7e-05	-1e-05	4
14928	0.00023	0	0.00054	0.00061	0.00026	8e-05	0.00065	0.00041	4
14930	0.00023	0	0.00054	0.00061	0.00026	8e-05	0.00065	0.00041	4
14931	-7e-05	-2e-05	-8e-05	0.00068	0.00086	0.00022	-0.00011	-8e-05	4
14932	-7e-05	-2e-05	-8e-05	0.00068	0.00086	0.00022	-0.00011	-8e-05	4
14933	-7e-05	-2e-05	-8e-05	0.00068	0.00086	0.00022	-0.00011	-8e-05	4
14934	-7e-05	-2e-05	-8e-05	0.00068	0.00086	0.00022	-0.00011	-8e-05	4
14935	-7e-05	-2e-05	-8e-05	0.00068	0.00086	0.00022	-0.00011	-8e-05	4
14936	-7e-05	-2e-05	-8e-05	0.00068	0.00086	0.00022	-0.00011	-8e-05	4
14938	-7e-05	-2e-05	-8e-05	0.00068	0.00086	0.00022	-0.00011	-8e-05	4
14939	-7e-05	-2e-05	-8e-05	0.00068	0.00086	0.00022	-0.00011	-8e-05	4
14940	-7e-05	-2e-05	-8e-05	0.00068	0.00086	0.00022	-0.00011	-8e-05	4
14941	6e-05	0	0.00043	0.0009	0.00111	0.00027	0.00027	7e-05	4
14942	6e-05	0	0.00043	0.0009	0.00111	0.00027	0.00027	7e-05	4
14943	6e-05	0	0.00043	0.0009	0.00111	0.00027	0.00027	7e-05	4
14944	6e-05	0	0.00043	0.0009	0.00111	0.00027	0.00027	7e-05	4
14945	6e-05	0	0.00043	0.0009	0.00111	0.00027	0.00027	7e-05	4
14946	6e-05	0	0.00043	0.0009	0.00111	0.00027	0.00027	7e-05	4
14947	6e-05	0	0.00043	0.0009	0.00111	0.00027	0.00027	7e-05	4
14948	6e-05	0	0.00043	0.0009	0.00111	0.00027	0.00027	7e-05	4
14949	6e-05	0	0.00043	0.0009	0.00111	0.00027	0.00027	7e-05	4
14950	0.00011	2e-05	0.0002	-0.00042	6e-05	8e-05	0.00011	0.00018	4
14951	0.00011	2e-05	0.0002	-0.00042	6e-05	8e-05	0.00011	0.00018	4
14952	0.00011	2e-05	0.0002	-0.00042	6e-05	8e-05	0.00011	0.00018	4
14953	0.00011	2e-05	0.0002	-0.00042	6e-05	8e-05	0.00011	0.00018	4
14954	0.00011	2e-05	0.0002	-0.00042	6e-05	8e-05	0.00011	0.00018	4
14955	0.00011	2e-05	0.0002	-0.00042	6e-05	8e-05	0.00011	0.00018	4
14956	0.00011	2e-05	0.0002	-0.00042	6e-05	8e-05	0.00011	0.00018	4
14957	0.00011	2e-05	0.0002	-0.00042	6e-05	8e-05	0.00011	0.00018	4
14958	0.00011	2e-05	0.0002	-0.00042	6e-05	8e-05	0.00011	0.00018	4
14959	0.00011	2e-05	0.0002	-0.00042	6e-05	8e-05	0.00011	0.00018	4
14960	0.00011	2e-05	0.0002	-0.00042	6e-05	8e-05	0.00011	0.00018	4
14961	0.00011	2e-05	0.0002	-0.00042	6e-05	8e-05	0.00011	0.00018	4
14962	0.00011	2e-05	0.0002	-0.00042	6e-05	8e-05	0.00011	0.00018	4
14963	0.00011	2e-05	0.0002	-0.00042	6e-05	8e-05	0.00011	0.00018	4
14964	0.00011	2e-05	0.0002	-0.00042	6e-05	8e-05	0.00011	0.00018	4
14965	-0.00012	2e-05	-0.00014	0.00048	0.00074	-6e-05	-0.00033	-0.00019	4
14966	-0.00012	2e-05	-0.00014	0.00048	0.00074	-6e-05	-0.00033	-0.00019	4
14967	-0.00019	-3e-05	-0.00033	-0.00082	-0.00128	-0.00061	1e-05	-0.00042	4
14968	-0.00019	-3e-05	-0.00033	-0.00082	-0.00128	-0.00061	1e-05	-0.00042	4
14969	-0.00019	-3e-05	-0.00033	-0.00082	-0.00128	-0.00061	1e-05	-0.00042	4
14970	-0.00019	-3e-05	-0.00033	-0.00082	-0.00128	-0.00061	1e-05	-0.00042	4
14971	-0.00019	-3e-05	-0.00033	-0.00082	-0.00128	-0.00061	1e-05	-0.00042	4
14972	-0.00019	-3e-05	-0.00033	-0.00082	-0.00128	-0.00061	1e-05	-0.00042	4
14973	-0.00019	-3e-05	-0.00033	-0.00082	-0.00128	-0.00061	1e-05	-0.00042	4
14974	-0.00019	-3e-05	-0.00033	-0.00082	-0.00128	-0.00061	1e-05	-0.00042	4
14975	-0.00019	-3e-05	-0.00033	-0.00082	-0.00128	-0.00061	1e-05	-0.00042	4
14976	-0.00019	-3e-05	-0.00033	-0.00082	-0.00128	-0.00061	1e-05	-0.00042	4
14977	-0.00019	-3e-05	-0.00033	-0.00082	-0.00128	-0.00061	1e-05	-0.00042	4
14978	-0.00019	-3e-05	-0.00033	-0.00082	-0.00128	-0.00061	1e-05	-0.00042	4
14979	-0.00019	-3e-05	-0.00033	-0.00082	-0.00128	-0.00061	1e-05	-0.00042	4
14980	-0.00019	-3e-05	-0.00033	-0.00082	-0.00128	-0.00061	1e-05	-0.00042	4
14981	-0.00019	-3e-05	-0.00033	-0.00082	-0.00128	-0.00061	1e-05	-0.00042	4
14982	-0.00019	-3e-05	-0.00033	-0.00082	-0.00128	-0.00061	1e-05	-0.00042	4
14983	-0.00019	-3e-05	-0.00033	-0.00082	-0.00128	-0.00061	1e-05	-0.00042	4
14984	-0.00019	-3e-05	-0.00033	-0.00082	-0.00128	-0.00061	1e-05	-0.00042	4
14985	-0.00019	-3e-05	-0.00033	-0.00082	-0.00128	-0.00061	1e-05	-0.00042	4
14986	-0.00019	-3e-05	-0.00033	-0.00082	-0.00128	-0.00061	1e-05	-0.00042	4
14989	0	0	3e-05	0.00021	-0.00038	0.00012	-3e-05	-4e-05	4
14990	0	0	3e-05	0.00021	-0.00038	0.00012	-3e-05	-4e-05	4
14991	0	0	3e-05	0.00021	-0.00038	0.00012	-3e-05	-4e-05	4
14992	0	0	3e-05	0.00021	-0.00038	0.00012	-3e-05	-4e-05	4
14993	0	0	3e-05	0.00021	-0.00038	0.00012	-3e-05	-4e-05	4
14994	0	0	3e-05	0.00021	-0.00038	0.00012	-3e-05	-4e-05	4
14995	0	0	3e-05	0.00021	-0.00038	0.00012	-3e-05	-4e-05	4
14996	0	0	3e-05	0.00021	-0.00038	0.00012	-3e-05	-4e-05	4
14997	0	0	3e-05	0.00021	-0.00038	0.00012	-3e-05	-4e-05	4
14998	0	0	3e-05	0.00021	-0.00038	0.00012	-3e-05	-4e-05	4
14999	0	0	3e-05	0.00021	-0.00038	0.00012	-3e-05	-4e-05	4
15000	0	0	3e-05	0.00021	-0.00038	0.00012	-3e-05	-4e-05	4
15001	0	1e-05	-3e-05	0.0003	0.00093	0.00034	-6e-05	0.00011	4
15002	0	1e-05	-3e-05	0.0003	0.00093	0.00034	-6e-05	0.00011	4
15003	0	1e-05	-3e-05	0.0003	0.00093	0.00034	-6e-05	0.00011	4
15004	0	1e-05	-3e-05	0.0003	0.00093	0.00034	-6e-05	0.00011	4
15005	0	1e-05	-3e-05	0.0003	0.00093	0.00034	-6e-05	0.00011	4
15006	0	1e-05	-3e-05	0.0003	0.00093	0.00034	-6e-05	0.00011	4
15007	0	1e-05	-3e-05	0.0003	0.00093	0.00034	-6e-05	0.00011	4
15008	0	1e-05	-3e-05	0.0003	0.00093	0.00034	-6e-05	0.00011	4
15009	0	1e-05	-3e-05	0.0003	0.00093	0.00034	-6e-05	0.00011	4
15010	7e-05	4e-05	-0.00011	-0.00016	-0.00055	-0.00025	1e-05	0.00017	4
15011	7e-05	4e-05	-0.00011	-0.00016	-0.00055	-0.00025	1e-05	0.00017	4
15012	7e-05	4e-05	-0.00011	-0.00016	-0.00055	-0.00025	1e-05	0.00017	4
15013	7e-05	4e-05	-0.00011	-0.00016	-0.00055	-0.00025	1e-05	0.00017	4
15014	7e-05	4e-05	-0.00011	-0.00016	-0.00055	-0.00025	1e-05	0.00017	4
15015	7e-05	4e-05	-0.00011	-0.00016	-0.00055	-0.00025	1e-05	0.00017	4
15016	7e-05	4e-05	-0.00011	-0.00016	-0.00055	-0.00025	1e-05	0.00017	4
15017	7e-05	4e-05	-0.00011	-0.00016	-0.00055	-0.00025	1e-05	0.00017	4
15018	7e-05	4e-05	-0.00011	-0.00016	-0.00055	-0.00025	1e-05	0.00017	4
15019	7e-05	4e-05	-0.00011	-0.00016	-0.00055	-0.00025	1e-05	0.00017	4
15020	7e-05	4e-05	-0.00011	-0.00016	-0.00055	-0.00025	1e-05	0.00017	4
15021	7e-05	4e-05	-0.00011	-0.00016	-0.00055	-0.00025	1e-05	0.00017	4
15022	7e-05	4e-05	-0.00011	-0.00016	-0.00055	-0.00025	1e-05	0.00017	4
15023	7e-05	4e-05	-0.00011	-0.00016	-0.00055	-0.00025	1e-05	0.00017	4
15024	7e-05	4e-05	-0.00011	-0.00016	-0.00055	-0.00025	1e-05	0.00017	4
15025	-0.0002	-1e-05	-0.00041	-0.00026	-0.00047	0.00017	-0.00035	-0.00015	4
15026	-0.0002	-1e-05	-0.00041	-0.00026	-0.00047	0.00017	-0.00035	-0.00015	4
15027	9e-05	-1e-05	0.00016	-0.0001	-0.00035	0.00047	0.00015	0.00013	4
15028	9e-05	-1e-05	0.00016	-0.0001	-0.00035	0.00047	0.00015	0.00013	4
15029	9e-05	-1e-05	0.00016	-0.0001	-0.00035	0.00047	0.00015	0.00013	4
15030	9e-05	-1e-05	0.00016	-0.0001	-0.00035	0.00047	0.00015	0.00013	4
15031	9e-05	-1e-05	0.00016	-0.0001	-0.00035	0.00047	0.00015	0.00013	4
15033	9e-05	-1e-05	0.00016	-0.0001	-0.00035	0.00047	0.00015	0.00013	4
15034	9e-05	-1e-05	0.00016	-0.0001	-0.00035	0.00047	0.00015	0.00013	4
15035	9e-05	-1e-05	0.00016	-0.0001	-0.00035	0.00047	0.00015	0.00013	4
15036	9e-05	-1e-05	0.00016	-0.0001	-0.00035	0.00047	0.00015	0.00013	4
15038	9e-05	-1e-05	0.00016	-0.0001	-0.00035	0.00047	0.00015	0.00013	4
15039	9e-05	-1e-05	0.00016	-0.0001	-0.00035	0.00047	0.00015	0.00013	4
15040	9e-05	-1e-05	0.00016	-0.0001	-0.00035	0.00047	0.00015	0.00013	4
15041	9e-05	-1e-05	0.00016	-0.0001	-0.00035	0.00047	0.00015	0.00013	4
15042	9e-05	-1e-05	0.00016	-0.0001	-0.00035	0.00047	0.00015	0.00013	4
15043	9e-05	-1e-05	0.00016	-0.0001	-0.00035	0.00047	0.00015	0.00013	4
15044	9e-05	-1e-05	0.00016	-0.0001	-0.00035	0.00047	0.00015	0.00013	4
15045	9e-05	-1e-05	0.00016	-0.0001	-0.00035	0.00047	0.00015	0.00013	4
15046	9e-05	-1e-05	0.00016	-0.0001	-0.00035	0.00047	0.00015	0.00013	4
15047	9e-05	-1e-05	0.00016	-0.0001	-0.00035	0.00047	0.00015	0.00013	4
15048	-7e-05	-1e-05	-0.00016	-0.00117	-0.00128	-0.0003	-0.00012	-0.00015	4
15049	5e-05	-4e-05	0.00021	0.00052	0.00054	0.00012	0.00019	0	4
15050	5e-05	-4e-05	0.00021	0.00052	0.00054	0.00012	0.00019	0	4
15051	5e-05	-4e-05	0.00021	0.00052	0.00054	0.00012	0.00019	0	4
15052	5e-05	-4e-05	0.00021	0.00052	0.00054	0.00012	0.00019	0	4
15053	5e-05	-4e-05	0.00021	0.00052	0.00054	0.00012	0.00019	0	4
15054	5e-05	-4e-05	0.00021	0.00052	0.00054	0.00012	0.00019	0	4
15055	5e-05	-4e-05	0.00021	0.00052	0.00054	0.00012	0.00019	0	4
15056	5e-05	-4e-05	0.00021	0.00052	0.00054	0.00012	0.00019	0	4
15057	5e-05	-4e-05	0.00021	0.00052	0.00054	0.00012	0.00019	0	4
15058	5e-05	-4e-05	0.00021	0.00052	0.00054	0.00012	0.00019	0	4
15059	5e-05	-4e-05	0.00021	0.00052	0.00054	0.00012	0.00019	0	4
15060	5e-05	-4e-05	0.00021	0.00052	0.00054	0.00012	0.00019	0	4
15061	-3e-05	-1e-05	-0.00026	-0.00024	-0.00096	0.00065	-0.00029	-0.00017	4
15062	-3e-05	-1e-05	-0.00026	-0.00024	-0.00096	0.00065	-0.00029	-0.00017	4
15063	-3e-05	-1e-05	-0.00026	-0.00024	-0.00096	0.00065	-0.00029	-0.00017	4
15064	-3e-05	-1e-05	-0.00026	-0.00024	-0.00096	0.00065	-0.00029	-0.00017	4
15065	-3e-05	-1e-05	-0.00026	-0.00024	-0.00096	0.00065	-0.00029	-0.00017	4
15066	-3e-05	-1e-05	-0.00026	-0.00024	-0.00096	0.00065	-0.00029	-0.00017	4
15067	-3e-05	-1e-05	-0.00026	-0.00024	-0.00096	0.00065	-0.00029	-0.00017	4
15068	-3e-05	-1e-05	-0.00026	-0.00024	-0.00096	0.00065	-0.00029	-0.00017	4
15069	-3e-05	-1e-05	-0.00026	-0.00024	-0.00096	0.00065	-0.00029	-0.00017	4
15070	-4e-05	0	0	-0.00052	-0.00122	-0.00046	-0.00017	-3e-05	4
15071	-4e-05	0	0	-0.00052	-0.00122	-0.00046	-0.00017	-3e-05	4
15072	-4e-05	0	0	-0.00052	-0.00122	-0.00046	-0.00017	-3e-05	4
15073	-4e-05	0	0	-0.00052	-0.00122	-0.00046	-0.00017	-3e-05	4
15074	-4e-05	0	0	-0.00052	-0.00122	-0.00046	-0.00017	-3e-05	4
15075	-4e-05	0	0	-0.00052	-0.00122	-0.00046	-0.00017	-3e-05	4
15076	-4e-05	0	0	-0.00052	-0.00122	-0.00046	-0.00017	-3e-05	4
15077	-4e-05	0	0	-0.00052	-0.00122	-0.00046	-0.00017	-3e-05	4
15078	-4e-05	0	0	-0.00052	-0.00122	-0.00046	-0.00017	-3e-05	4
15079	-4e-05	0	0	-0.00052	-0.00122	-0.00046	-0.00017	-3e-05	4
15080	-4e-05	0	0	-0.00052	-0.00122	-0.00046	-0.00017	-3e-05	4
15081	-4e-05	0	0	-0.00052	-0.00122	-0.00046	-0.00017	-3e-05	4
15082	-4e-05	0	0	-0.00052	-0.00122	-0.00046	-0.00017	-3e-05	4
15083	-4e-05	0	0	-0.00052	-0.00122	-0.00046	-0.00017	-3e-05	4
15084	-4e-05	0	0	-0.00052	-0.00122	-0.00046	-0.00017	-3e-05	4
15085	-4e-05	-3e-05	-9e-05	-0.00076	-0.0011	0.00016	8e-05	-5e-05	4
15086	-4e-05	-3e-05	-9e-05	-0.00076	-0.0011	0.00016	8e-05	-5e-05	4
15088	-0.00012	-1e-05	-0.00031	-0.00013	-3e-05	-0.00055	-0.00016	-0.00012	4
15089	-0.00012	-1e-05	-0.00031	-0.00013	-3e-05	-0.00055	-0.00016	-0.00012	4
15090	-0.00012	-1e-05	-0.00031	-0.00013	-3e-05	-0.00055	-0.00016	-0.00012	4
15091	-0.00012	-1e-05	-0.00031	-0.00013	-3e-05	-0.00055	-0.00016	-0.00012	4
15092	-0.00012	-1e-05	-0.00031	-0.00013	-3e-05	-0.00055	-0.00016	-0.00012	4
15093	-0.00012	-1e-05	-0.00031	-0.00013	-3e-05	-0.00055	-0.00016	-0.00012	4
15094	-0.00012	-1e-05	-0.00031	-0.00013	-3e-05	-0.00055	-0.00016	-0.00012	4
15095	-0.00012	-1e-05	-0.00031	-0.00013	-3e-05	-0.00055	-0.00016	-0.00012	4
15096	-0.00012	-1e-05	-0.00031	-0.00013	-3e-05	-0.00055	-0.00016	-0.00012	4
15097	-0.00012	-1e-05	-0.00031	-0.00013	-3e-05	-0.00055	-0.00016	-0.00012	4
15098	-0.00012	-1e-05	-0.00031	-0.00013	-3e-05	-0.00055	-0.00016	-0.00012	4
15099	-0.00012	-1e-05	-0.00031	-0.00013	-3e-05	-0.00055	-0.00016	-0.00012	4
15100	-0.00012	-1e-05	-0.00031	-0.00013	-3e-05	-0.00055	-0.00016	-0.00012	4
15101	-0.00012	-1e-05	-0.00031	-0.00013	-3e-05	-0.00055	-0.00016	-0.00012	4
15102	-0.00012	-1e-05	-0.00031	-0.00013	-3e-05	-0.00055	-0.00016	-0.00012	4
15103	-0.00012	-1e-05	-0.00031	-0.00013	-3e-05	-0.00055	-0.00016	-0.00012	4
15104	-0.00012	-1e-05	-0.00031	-0.00013	-3e-05	-0.00055	-0.00016	-0.00012	4
15105	-0.00012	-1e-05	-0.00031	-0.00013	-3e-05	-0.00055	-0.00016	-0.00012	4
15106	-0.00012	-1e-05	-0.00031	-0.00013	-3e-05	-0.00055	-0.00016	-0.00012	4
15107	-0.00012	-1e-05	-0.00031	-0.00013	-3e-05	-0.00055	-0.00016	-0.00012	4
15108	0.00012	-1e-05	0.00027	0.00074	0.00096	0.00014	0.00014	0.00018	4
15109	-0.00023	-3e-05	-0.00044	-0.00105	-0.00128	-0.00014	-0.0004	-0.00027	4
15110	-0.00023	-3e-05	-0.00044	-0.00105	-0.00128	-0.00014	-0.0004	-0.00027	4
15111	-0.00023	-3e-05	-0.00044	-0.00105	-0.00128	-0.00014	-0.0004	-0.00027	4
15112	-0.00023	-3e-05	-0.00044	-0.00105	-0.00128	-0.00014	-0.0004	-0.00027	4
15113	-0.00023	-3e-05	-0.00044	-0.00105	-0.00128	-0.00014	-0.0004	-0.00027	4
15114	-0.00023	-3e-05	-0.00044	-0.00105	-0.00128	-0.00014	-0.0004	-0.00027	4
15115	-0.00023	-3e-05	-0.00044	-0.00105	-0.00128	-0.00014	-0.0004	-0.00027	4
15116	-0.00023	-3e-05	-0.00044	-0.00105	-0.00128	-0.00014	-0.0004	-0.00027	4
15117	-0.00023	-3e-05	-0.00044	-0.00105	-0.00128	-0.00014	-0.0004	-0.00027	4
15118	-0.00023	-3e-05	-0.00044	-0.00105	-0.00128	-0.00014	-0.0004	-0.00027	4
15119	-0.00023	-3e-05	-0.00044	-0.00105	-0.00128	-0.00014	-0.0004	-0.00027	4
15120	-0.00023	-3e-05	-0.00044	-0.00105	-0.00128	-0.00014	-0.0004	-0.00027	4
15121	-0.00023	-3e-05	-0.00044	-0.00105	-0.00128	-0.00014	-0.0004	-0.00027	4
15122	-0.00023	-3e-05	-0.00044	-0.00105	-0.00128	-0.00014	-0.0004	-0.00027	4
15123	-0.00023	-3e-05	-0.00044	-0.00105	-0.00128	-0.00014	-0.0004	-0.00027	4
15124	-0.00023	-3e-05	-0.00044	-0.00105	-0.00128	-0.00014	-0.0004	-0.00027	4
15125	-0.00023	-3e-05	-0.00044	-0.00105	-0.00128	-0.00014	-0.0004	-0.00027	4
15126	-0.00023	-3e-05	-0.00044	-0.00105	-0.00128	-0.00014	-0.0004	-0.00027	4
15127	-0.00023	-3e-05	-0.00044	-0.00105	-0.00128	-0.00014	-0.0004	-0.00027	4
15128	-0.00023	-3e-05	-0.00044	-0.00105	-0.00128	-0.00014	-0.0004	-0.00027	4
15129	-0.00023	-3e-05	-0.00044	-0.00105	-0.00128	-0.00014	-0.0004	-0.00027	4
15130	4e-05	-2e-05	9e-05	-0.00019	0.00036	-0.00036	-4e-05	3e-05	4
15131	0	-3e-05	-2e-05	0.00046	0.00118	-0.00044	-9e-05	2e-05	4
15132	1e-05	-1e-05	3e-05	-0.00036	2e-05	0.00034	-7e-05	-4e-05	4
15133	1e-05	-1e-05	3e-05	-0.00036	2e-05	0.00034	-7e-05	-4e-05	4
15134	1e-05	-1e-05	3e-05	-0.00036	2e-05	0.00034	-7e-05	-4e-05	4
15135	1e-05	-1e-05	3e-05	-0.00036	2e-05	0.00034	-7e-05	-4e-05	4
15136	1e-05	-1e-05	3e-05	-0.00036	2e-05	0.00034	-7e-05	-4e-05	4
15138	1e-05	-1e-05	3e-05	-0.00036	2e-05	0.00034	-7e-05	-4e-05	4
15139	1e-05	-1e-05	3e-05	-0.00036	2e-05	0.00034	-7e-05	-4e-05	4
15140	1e-05	-1e-05	3e-05	-0.00036	2e-05	0.00034	-7e-05	-4e-05	4
15141	1e-05	-1e-05	3e-05	-0.00036	2e-05	0.00034	-7e-05	-4e-05	4
15142	1e-05	-1e-05	3e-05	-0.00036	2e-05	0.00034	-7e-05	-4e-05	4
15143	1e-05	-1e-05	3e-05	-0.00036	2e-05	0.00034	-7e-05	-4e-05	4
15144	1e-05	-1e-05	3e-05	-0.00036	2e-05	0.00034	-7e-05	-4e-05	4
15145	-9e-05	1e-05	-0.00014	-0.00017	0.00059	-0.00025	-7e-05	-7e-05	4
15146	-9e-05	1e-05	-0.00014	-0.00017	0.00059	-0.00025	-7e-05	-7e-05	4
15147	8e-05	-2e-05	0.00027	2e-05	-0.00036	0.0001	-2e-05	-4e-05	4
15148	8e-05	-2e-05	0.00027	2e-05	-0.00036	0.0001	-2e-05	-4e-05	4
15149	8e-05	-2e-05	0.00027	2e-05	-0.00036	0.0001	-2e-05	-4e-05	4
15150	8e-05	-2e-05	0.00027	2e-05	-0.00036	0.0001	-2e-05	-4e-05	4
15151	8e-05	-2e-05	0.00027	2e-05	-0.00036	0.0001	-2e-05	-4e-05	4
15152	8e-05	-2e-05	0.00027	2e-05	-0.00036	0.0001	-2e-05	-4e-05	4
15153	8e-05	-2e-05	0.00027	2e-05	-0.00036	0.0001	-2e-05	-4e-05	4
15154	8e-05	-2e-05	0.00027	2e-05	-0.00036	0.0001	-2e-05	-4e-05	4
15155	8e-05	-2e-05	0.00027	2e-05	-0.00036	0.0001	-2e-05	-4e-05	4
15156	8e-05	-2e-05	0.00027	2e-05	-0.00036	0.0001	-2e-05	-4e-05	4
15157	8e-05	-2e-05	0.00027	2e-05	-0.00036	0.0001	-2e-05	-4e-05	4
15158	8e-05	-2e-05	0.00027	2e-05	-0.00036	0.0001	-2e-05	-4e-05	4
15159	8e-05	-2e-05	0.00027	2e-05	-0.00036	0.0001	-2e-05	-4e-05	4
15160	8e-05	-2e-05	0.00027	2e-05	-0.00036	0.0001	-2e-05	-4e-05	4
15161	8e-05	-2e-05	0.00027	2e-05	-0.00036	0.0001	-2e-05	-4e-05	4
15162	8e-05	-2e-05	0.00027	2e-05	-0.00036	0.0001	-2e-05	-4e-05	4
15163	8e-05	-2e-05	0.00027	2e-05	-0.00036	0.0001	-2e-05	-4e-05	4
15164	8e-05	-2e-05	0.00027	2e-05	-0.00036	0.0001	-2e-05	-4e-05	4
15165	8e-05	-2e-05	0.00027	2e-05	-0.00036	0.0001	-2e-05	-4e-05	4
15166	8e-05	-2e-05	0.00027	2e-05	-0.00036	0.0001	-2e-05	-4e-05	4
15167	8e-05	-2e-05	0.00027	2e-05	-0.00036	0.0001	-2e-05	-4e-05	4
15168	-5e-05	-5e-05	0.0001	0.00082	0.00084	1e-05	9e-05	-2e-05	4
15169	-3e-05	-1e-05	-4e-05	0.0001	0.00054	-7e-05	-4e-05	-7e-05	4
15170	-3e-05	-1e-05	-4e-05	0.0001	0.00054	-7e-05	-4e-05	-7e-05	4
15171	-3e-05	-1e-05	-4e-05	0.0001	0.00054	-7e-05	-4e-05	-7e-05	4
15172	-3e-05	-1e-05	-4e-05	0.0001	0.00054	-7e-05	-4e-05	-7e-05	4
15173	-3e-05	-1e-05	-4e-05	0.0001	0.00054	-7e-05	-4e-05	-7e-05	4
15174	-3e-05	-1e-05	-4e-05	0.0001	0.00054	-7e-05	-4e-05	-7e-05	4
15175	-3e-05	-1e-05	-4e-05	0.0001	0.00054	-7e-05	-4e-05	-7e-05	4
15176	-3e-05	-1e-05	-4e-05	0.0001	0.00054	-7e-05	-4e-05	-7e-05	4
15177	-3e-05	-1e-05	-4e-05	0.0001	0.00054	-7e-05	-4e-05	-7e-05	4
15178	-3e-05	-1e-05	-4e-05	0.0001	0.00054	-7e-05	-4e-05	-7e-05	4
15179	-3e-05	-1e-05	-4e-05	0.0001	0.00054	-7e-05	-4e-05	-7e-05	4
15180	-3e-05	-1e-05	-4e-05	0.0001	0.00054	-7e-05	-4e-05	-7e-05	4
15181	-3e-05	-1e-05	-4e-05	0.0001	0.00054	-7e-05	-4e-05	-7e-05	4
15182	-3e-05	-1e-05	-4e-05	0.0001	0.00054	-7e-05	-4e-05	-7e-05	4
15183	-3e-05	-1e-05	-4e-05	0.0001	0.00054	-7e-05	-4e-05	-7e-05	4
15184	-3e-05	-1e-05	-4e-05	0.0001	0.00054	-7e-05	-4e-05	-7e-05	4
15185	-3e-05	-1e-05	-4e-05	0.0001	0.00054	-7e-05	-4e-05	-7e-05	4
15186	-3e-05	-1e-05	-4e-05	0.0001	0.00054	-7e-05	-4e-05	-7e-05	4
15188	-3e-05	-1e-05	-4e-05	0.0001	0.00054	-7e-05	-4e-05	-7e-05	4
15189	-3e-05	-1e-05	-4e-05	0.0001	0.00054	-7e-05	-4e-05	-7e-05	4
15190	0	1e-05	-3e-05	0.00016	-0.00084	-5e-05	0.00013	-1e-05	4
15191	0	1e-05	-3e-05	0.00016	-0.00084	-5e-05	0.00013	-1e-05	4
15192	-4e-05	0	-4e-05	0.00019	-0.0002	0.00023	-2e-05	2e-05	4
15193	-4e-05	0	-4e-05	0.00019	-0.0002	0.00023	-2e-05	2e-05	4
15194	-4e-05	0	-4e-05	0.00019	-0.0002	0.00023	-2e-05	2e-05	4
15195	-4e-05	0	-4e-05	0.00019	-0.0002	0.00023	-2e-05	2e-05	4
15196	-4e-05	0	-4e-05	0.00019	-0.0002	0.00023	-2e-05	2e-05	4
15197	-4e-05	0	-4e-05	0.00019	-0.0002	0.00023	-2e-05	2e-05	4
15198	-4e-05	0	-4e-05	0.00019	-0.0002	0.00023	-2e-05	2e-05	4
15199	-4e-05	0	-4e-05	0.00019	-0.0002	0.00023	-2e-05	2e-05	4
15200	-4e-05	0	-4e-05	0.00019	-0.0002	0.00023	-2e-05	2e-05	4
15201	-4e-05	0	-4e-05	0.00019	-0.0002	0.00023	-2e-05	2e-05	4
15202	-4e-05	0	-4e-05	0.00019	-0.0002	0.00023	-2e-05	2e-05	4
15203	-4e-05	0	-4e-05	0.00019	-0.0002	0.00023	-2e-05	2e-05	4
15204	-4e-05	0	-4e-05	0.00019	-0.0002	0.00023	-2e-05	2e-05	4
15205	-0.00013	1e-05	-0.00046	-0.00101	-0.00128	-0.00021	-0.00019	-0.00011	4
15206	-0.00013	1e-05	-0.00046	-0.00101	-0.00128	-0.00021	-0.00019	-0.00011	4
15207	8e-05	-3e-05	6e-05	-0.00044	-0.00114	-0.00018	0.00014	0.00017	4
15208	8e-05	-3e-05	6e-05	-0.00044	-0.00114	-0.00018	0.00014	0.00017	4
15209	8e-05	-3e-05	6e-05	-0.00044	-0.00114	-0.00018	0.00014	0.00017	4
15210	8e-05	-3e-05	6e-05	-0.00044	-0.00114	-0.00018	0.00014	0.00017	4
15211	8e-05	-3e-05	6e-05	-0.00044	-0.00114	-0.00018	0.00014	0.00017	4
15212	8e-05	-3e-05	6e-05	-0.00044	-0.00114	-0.00018	0.00014	0.00017	4
15213	8e-05	-3e-05	6e-05	-0.00044	-0.00114	-0.00018	0.00014	0.00017	4
15214	8e-05	-3e-05	6e-05	-0.00044	-0.00114	-0.00018	0.00014	0.00017	4
15215	8e-05	-3e-05	6e-05	-0.00044	-0.00114	-0.00018	0.00014	0.00017	4
15216	8e-05	-3e-05	6e-05	-0.00044	-0.00114	-0.00018	0.00014	0.00017	4
15217	8e-05	-3e-05	6e-05	-0.00044	-0.00114	-0.00018	0.00014	0.00017	4
15218	8e-05	-3e-05	6e-05	-0.00044	-0.00114	-0.00018	0.00014	0.00017	4
15219	8e-05	-3e-05	6e-05	-0.00044	-0.00114	-0.00018	0.00014	0.00017	4
15220	8e-05	-3e-05	6e-05	-0.00044	-0.00114	-0.00018	0.00014	0.00017	4
15221	8e-05	-3e-05	6e-05	-0.00044	-0.00114	-0.00018	0.00014	0.00017	4
15222	8e-05	-3e-05	6e-05	-0.00044	-0.00114	-0.00018	0.00014	0.00017	4
15223	8e-05	-3e-05	6e-05	-0.00044	-0.00114	-0.00018	0.00014	0.00017	4
15224	8e-05	-3e-05	6e-05	-0.00044	-0.00114	-0.00018	0.00014	0.00017	4
15225	8e-05	-3e-05	6e-05	-0.00044	-0.00114	-0.00018	0.00014	0.00017	4
15226	8e-05	-3e-05	6e-05	-0.00044	-0.00114	-0.00018	0.00014	0.00017	4
15227	8e-05	-3e-05	6e-05	-0.00044	-0.00114	-0.00018	0.00014	0.00017	4
15228	-6e-05	3e-05	-0.00014	-0.00047	-0.00103	-0.00024	-6e-05	-0.00011	4
15229	1e-05	-5e-05	-2e-05	-0.00016	-0.00121	-0.0001	7e-05	0.00018	4
15230	1e-05	-5e-05	-2e-05	-0.00016	-0.00121	-0.0001	7e-05	0.00018	4
15231	1e-05	-5e-05	-2e-05	-0.00016	-0.00121	-0.0001	7e-05	0.00018	4
15232	1e-05	-5e-05	-2e-05	-0.00016	-0.00121	-0.0001	7e-05	0.00018	4
15233	1e-05	-5e-05	-2e-05	-0.00016	-0.00121	-0.0001	7e-05	0.00018	4
15234	1e-05	-5e-05	-2e-05	-0.00016	-0.00121	-0.0001	7e-05	0.00018	4
15235	1e-05	-5e-05	-2e-05	-0.00016	-0.00121	-0.0001	7e-05	0.00018	4
15236	1e-05	-5e-05	-2e-05	-0.00016	-0.00121	-0.0001	7e-05	0.00018	4
15238	1e-05	-5e-05	-2e-05	-0.00016	-0.00121	-0.0001	7e-05	0.00018	4
15239	1e-05	-5e-05	-2e-05	-0.00016	-0.00121	-0.0001	7e-05	0.00018	4
15240	1e-05	-5e-05	-2e-05	-0.00016	-0.00121	-0.0001	7e-05	0.00018	4
15241	1e-05	-5e-05	-2e-05	-0.00016	-0.00121	-0.0001	7e-05	0.00018	4
15242	1e-05	-5e-05	-2e-05	-0.00016	-0.00121	-0.0001	7e-05	0.00018	4
15243	1e-05	-5e-05	-2e-05	-0.00016	-0.00121	-0.0001	7e-05	0.00018	4
15244	1e-05	-5e-05	-2e-05	-0.00016	-0.00121	-0.0001	7e-05	0.00018	4
15245	1e-05	-5e-05	-2e-05	-0.00016	-0.00121	-0.0001	7e-05	0.00018	4
15246	1e-05	-5e-05	-2e-05	-0.00016	-0.00121	-0.0001	7e-05	0.00018	4
15247	1e-05	-5e-05	-2e-05	-0.00016	-0.00121	-0.0001	7e-05	0.00018	4
15248	1e-05	-5e-05	-2e-05	-0.00016	-0.00121	-0.0001	7e-05	0.00018	4
15249	1e-05	-5e-05	-2e-05	-0.00016	-0.00121	-0.0001	7e-05	0.00018	4
15250	0	-1e-05	6e-05	-0.00011	-0.00043	9e-05	-7e-05	0	4
15251	0	-1e-05	6e-05	-0.00011	-0.00043	9e-05	-7e-05	0	4
15252	-7e-05	4e-05	-7e-05	-0.00048	-0.00062	-0.0004	-0.00017	-4e-05	4
15253	-7e-05	4e-05	-7e-05	-0.00048	-0.00062	-0.0004	-0.00017	-4e-05	4
15254	-7e-05	4e-05	-7e-05	-0.00048	-0.00062	-0.0004	-0.00017	-4e-05	4
15255	-7e-05	4e-05	-7e-05	-0.00048	-0.00062	-0.0004	-0.00017	-4e-05	4
15256	-7e-05	4e-05	-7e-05	-0.00048	-0.00062	-0.0004	-0.00017	-4e-05	4
15257	-7e-05	4e-05	-7e-05	-0.00048	-0.00062	-0.0004	-0.00017	-4e-05	4
15258	-7e-05	4e-05	-7e-05	-0.00048	-0.00062	-0.0004	-0.00017	-4e-05	4
15259	-7e-05	4e-05	-7e-05	-0.00048	-0.00062	-0.0004	-0.00017	-4e-05	4
15260	-7e-05	4e-05	-7e-05	-0.00048	-0.00062	-0.0004	-0.00017	-4e-05	4
15261	-7e-05	4e-05	-7e-05	-0.00048	-0.00062	-0.0004	-0.00017	-4e-05	4
15262	-7e-05	4e-05	-7e-05	-0.00048	-0.00062	-0.0004	-0.00017	-4e-05	4
15263	-7e-05	4e-05	-7e-05	-0.00048	-0.00062	-0.0004	-0.00017	-4e-05	4
15264	-7e-05	4e-05	-7e-05	-0.00048	-0.00062	-0.0004	-0.00017	-4e-05	4
15265	8e-05	-1e-05	0.00021	-0.00014	-0.00123	0.00035	-2e-05	2e-05	4
15266	8e-05	-1e-05	0.00021	-0.00014	-0.00123	0.00035	-2e-05	2e-05	4
15267	4e-05	-2e-05	2e-05	0.00034	0.00086	5e-05	0.00024	3e-05	4
15268	4e-05	-2e-05	2e-05	0.00034	0.00086	5e-05	0.00024	3e-05	4
15269	4e-05	-2e-05	2e-05	0.00034	0.00086	5e-05	0.00024	3e-05	4
15270	4e-05	-2e-05	2e-05	0.00034	0.00086	5e-05	0.00024	3e-05	4
15271	4e-05	-2e-05	2e-05	0.00034	0.00086	5e-05	0.00024	3e-05	4
15272	4e-05	-2e-05	2e-05	0.00034	0.00086	5e-05	0.00024	3e-05	4
15273	4e-05	-2e-05	2e-05	0.00034	0.00086	5e-05	0.00024	3e-05	4
15274	4e-05	-2e-05	2e-05	0.00034	0.00086	5e-05	0.00024	3e-05	4
15275	4e-05	-2e-05	2e-05	0.00034	0.00086	5e-05	0.00024	3e-05	4
15276	4e-05	-2e-05	2e-05	0.00034	0.00086	5e-05	0.00024	3e-05	4
15277	4e-05	-2e-05	2e-05	0.00034	0.00086	5e-05	0.00024	3e-05	4
15278	4e-05	-2e-05	2e-05	0.00034	0.00086	5e-05	0.00024	3e-05	4
15279	4e-05	-2e-05	2e-05	0.00034	0.00086	5e-05	0.00024	3e-05	4
15280	4e-05	-2e-05	2e-05	0.00034	0.00086	5e-05	0.00024	3e-05	4
15281	4e-05	-2e-05	2e-05	0.00034	0.00086	5e-05	0.00024	3e-05	4
15282	4e-05	-2e-05	2e-05	0.00034	0.00086	5e-05	0.00024	3e-05	4
15283	4e-05	-2e-05	2e-05	0.00034	0.00086	5e-05	0.00024	3e-05	4
15284	4e-05	-2e-05	2e-05	0.00034	0.00086	5e-05	0.00024	3e-05	4
15285	4e-05	-2e-05	2e-05	0.00034	0.00086	5e-05	0.00024	3e-05	4
15286	4e-05	-2e-05	2e-05	0.00034	0.00086	5e-05	0.00024	3e-05	4
15289	1e-05	-6e-05	3e-05	-0.00012	-0.00027	-7e-05	-0.00016	2e-05	4
15290	1e-05	-6e-05	3e-05	-0.00012	-0.00027	-7e-05	-0.00016	2e-05	4
15291	1e-05	-6e-05	3e-05	-0.00012	-0.00027	-7e-05	-0.00016	2e-05	4
15292	1e-05	-6e-05	3e-05	-0.00012	-0.00027	-7e-05	-0.00016	2e-05	4
15293	1e-05	-6e-05	3e-05	-0.00012	-0.00027	-7e-05	-0.00016	2e-05	4
15294	1e-05	-6e-05	3e-05	-0.00012	-0.00027	-7e-05	-0.00016	2e-05	4
15295	1e-05	-6e-05	3e-05	-0.00012	-0.00027	-7e-05	-0.00016	2e-05	4
15296	1e-05	-6e-05	3e-05	-0.00012	-0.00027	-7e-05	-0.00016	2e-05	4
15297	1e-05	-6e-05	3e-05	-0.00012	-0.00027	-7e-05	-0.00016	2e-05	4
15298	1e-05	-6e-05	3e-05	-0.00012	-0.00027	-7e-05	-0.00016	2e-05	4
15299	1e-05	-6e-05	3e-05	-0.00012	-0.00027	-7e-05	-0.00016	2e-05	4
15300	1e-05	-6e-05	3e-05	-0.00012	-0.00027	-7e-05	-0.00016	2e-05	4
15301	1e-05	-6e-05	3e-05	-0.00012	-0.00027	-7e-05	-0.00016	2e-05	4
15302	1e-05	-6e-05	3e-05	-0.00012	-0.00027	-7e-05	-0.00016	2e-05	4
15303	1e-05	-6e-05	3e-05	-0.00012	-0.00027	-7e-05	-0.00016	2e-05	4
15304	1e-05	-6e-05	3e-05	-0.00012	-0.00027	-7e-05	-0.00016	2e-05	4
15305	1e-05	-6e-05	3e-05	-0.00012	-0.00027	-7e-05	-0.00016	2e-05	4
15306	1e-05	-6e-05	3e-05	-0.00012	-0.00027	-7e-05	-0.00016	2e-05	4
15307	1e-05	-6e-05	3e-05	-0.00012	-0.00027	-7e-05	-0.00016	2e-05	4
15308	1e-05	-6e-05	3e-05	-0.00012	-0.00027	-7e-05	-0.00016	2e-05	4
15309	1e-05	-6e-05	3e-05	-0.00012	-0.00027	-7e-05	-0.00016	2e-05	4
15310	1e-05	0	5e-05	0.00032	5e-05	-3e-05	2e-05	-1e-05	4
15311	1e-05	0	5e-05	0.00032	5e-05	-3e-05	2e-05	-1e-05	4
15312	4e-05	4e-05	6e-05	0.00106	0.00118	0.00016	0.0002	0.00022	4
15313	4e-05	4e-05	6e-05	0.00106	0.00118	0.00016	0.0002	0.00022	4
15314	4e-05	4e-05	6e-05	0.00106	0.00118	0.00016	0.0002	0.00022	4
15315	4e-05	4e-05	6e-05	0.00106	0.00118	0.00016	0.0002	0.00022	4
15316	4e-05	4e-05	6e-05	0.00106	0.00118	0.00016	0.0002	0.00022	4
15317	4e-05	4e-05	6e-05	0.00106	0.00118	0.00016	0.0002	0.00022	4
15318	4e-05	4e-05	6e-05	0.00106	0.00118	0.00016	0.0002	0.00022	4
15319	4e-05	4e-05	6e-05	0.00106	0.00118	0.00016	0.0002	0.00022	4
15320	4e-05	4e-05	6e-05	0.00106	0.00118	0.00016	0.0002	0.00022	4
15321	4e-05	4e-05	6e-05	0.00106	0.00118	0.00016	0.0002	0.00022	4
15322	4e-05	4e-05	6e-05	0.00106	0.00118	0.00016	0.0002	0.00022	4
15323	4e-05	4e-05	6e-05	0.00106	0.00118	0.00016	0.0002	0.00022	4
15324	-8e-05	-1e-05	0	-0.00078	-0.00096	-0.00036	-0.00035	-0.00017	4
15325	4e-05	-6e-05	5e-05	0.0004	0.00104	0.00069	0.00035	0.00014	4
15326	4e-05	-6e-05	5e-05	0.0004	0.00104	0.00069	0.00035	0.00014	4
15327	4e-05	-6e-05	5e-05	0.0004	0.00104	0.00069	0.00035	0.00014	4
15328	4e-05	-6e-05	5e-05	0.0004	0.00104	0.00069	0.00035	0.00014	4
15329	4e-05	-6e-05	5e-05	0.0004	0.00104	0.00069	0.00035	0.00014	4
15330	4e-05	-6e-05	5e-05	0.0004	0.00104	0.00069	0.00035	0.00014	4
15331	-3e-05	5e-05	-8e-05	-0.00022	-0.00045	0.00042	-0.00031	-0.00017	4
15332	-3e-05	5e-05	-8e-05	-0.00022	-0.00045	0.00042	-0.00031	-0.00017	4
15333	-3e-05	5e-05	-8e-05	-0.00022	-0.00045	0.00042	-0.00031	-0.00017	4
15334	-3e-05	5e-05	-8e-05	-0.00022	-0.00045	0.00042	-0.00031	-0.00017	4
15335	-3e-05	5e-05	-8e-05	-0.00022	-0.00045	0.00042	-0.00031	-0.00017	4
15336	-3e-05	5e-05	-8e-05	-0.00022	-0.00045	0.00042	-0.00031	-0.00017	4
15338	-3e-05	5e-05	-8e-05	-0.00022	-0.00045	0.00042	-0.00031	-0.00017	4
15339	-3e-05	5e-05	-8e-05	-0.00022	-0.00045	0.00042	-0.00031	-0.00017	4
15340	-3e-05	5e-05	-8e-05	-0.00022	-0.00045	0.00042	-0.00031	-0.00017	4
15341	-3e-05	5e-05	-8e-05	-0.00022	-0.00045	0.00042	-0.00031	-0.00017	4
15342	-3e-05	5e-05	-8e-05	-0.00022	-0.00045	0.00042	-0.00031	-0.00017	4
15343	-3e-05	5e-05	-8e-05	-0.00022	-0.00045	0.00042	-0.00031	-0.00017	4
15344	-3e-05	5e-05	-8e-05	-0.00022	-0.00045	0.00042	-0.00031	-0.00017	4
15345	-3e-05	5e-05	-8e-05	-0.00022	-0.00045	0.00042	-0.00031	-0.00017	4
15346	-3e-05	5e-05	-8e-05	-0.00022	-0.00045	0.00042	-0.00031	-0.00017	4
15347	-3e-05	5e-05	-8e-05	-0.00022	-0.00045	0.00042	-0.00031	-0.00017	4
15348	0.00013	-4e-05	0.0003	0.00027	3e-05	8e-05	0.00011	0.00015	4
15349	-6e-05	-1e-05	-2e-05	0.00069	0.00119	0.00022	7e-05	-0.00017	4
15350	-6e-05	-1e-05	-2e-05	0.00069	0.00119	0.00022	7e-05	-0.00017	4
15351	-6e-05	-1e-05	-2e-05	0.00069	0.00119	0.00022	7e-05	-0.00017	4
15352	-6e-05	-1e-05	-2e-05	0.00069	0.00119	0.00022	7e-05	-0.00017	4
15353	-6e-05	-1e-05	-2e-05	0.00069	0.00119	0.00022	7e-05	-0.00017	4
15354	-6e-05	-1e-05	-2e-05	0.00069	0.00119	0.00022	7e-05	-0.00017	4
15355	-6e-05	-1e-05	-2e-05	0.00069	0.00119	0.00022	7e-05	-0.00017	4
15356	-6e-05	-1e-05	-2e-05	0.00069	0.00119	0.00022	7e-05	-0.00017	4
15357	-6e-05	-1e-05	-2e-05	0.00069	0.00119	0.00022	7e-05	-0.00017	4
15358	-6e-05	-1e-05	-2e-05	0.00069	0.00119	0.00022	7e-05	-0.00017	4
15359	-6e-05	-1e-05	-2e-05	0.00069	0.00119	0.00022	7e-05	-0.00017	4
15360	-6e-05	-1e-05	-2e-05	0.00069	0.00119	0.00022	7e-05	-0.00017	4
15361	-6e-05	-1e-05	-2e-05	0.00069	0.00119	0.00022	7e-05	-0.00017	4
15362	-6e-05	-1e-05	-2e-05	0.00069	0.00119	0.00022	7e-05	-0.00017	4
15363	-6e-05	-1e-05	-2e-05	0.00069	0.00119	0.00022	7e-05	-0.00017	4
15364	-6e-05	-1e-05	-2e-05	0.00069	0.00119	0.00022	7e-05	-0.00017	4
15365	-6e-05	-1e-05	-2e-05	0.00069	0.00119	0.00022	7e-05	-0.00017	4
15366	-6e-05	-1e-05	-2e-05	0.00069	0.00119	0.00022	7e-05	-0.00017	4
15367	-6e-05	-1e-05	-2e-05	0.00069	0.00119	0.00022	7e-05	-0.00017	4
15368	-6e-05	-1e-05	-2e-05	0.00069	0.00119	0.00022	7e-05	-0.00017	4
15369	-6e-05	-1e-05	-2e-05	0.00069	0.00119	0.00022	7e-05	-0.00017	4
15370	-7e-05	-4e-05	-4e-05	0.00054	0.00094	-0.0008	4e-05	-6e-05	4
15371	-7e-05	-4e-05	-4e-05	0.00054	0.00094	-0.0008	4e-05	-6e-05	4
15372	3e-05	-4e-05	-6e-05	-8e-05	-0.00058	-0.00036	4e-05	0.00018	4
15373	3e-05	-4e-05	-6e-05	-8e-05	-0.00058	-0.00036	4e-05	0.00018	4
15374	3e-05	-4e-05	-6e-05	-8e-05	-0.00058	-0.00036	4e-05	0.00018	4
15375	3e-05	-4e-05	-6e-05	-8e-05	-0.00058	-0.00036	4e-05	0.00018	4
15376	3e-05	-4e-05	-6e-05	-8e-05	-0.00058	-0.00036	4e-05	0.00018	4
15377	3e-05	-4e-05	-6e-05	-8e-05	-0.00058	-0.00036	4e-05	0.00018	4
15378	3e-05	-4e-05	-6e-05	-8e-05	-0.00058	-0.00036	4e-05	0.00018	4
15379	3e-05	-4e-05	-6e-05	-8e-05	-0.00058	-0.00036	4e-05	0.00018	4
15380	3e-05	-4e-05	-6e-05	-8e-05	-0.00058	-0.00036	4e-05	0.00018	4
15381	3e-05	-4e-05	-6e-05	-8e-05	-0.00058	-0.00036	4e-05	0.00018	4
15382	3e-05	-4e-05	-6e-05	-8e-05	-0.00058	-0.00036	4e-05	0.00018	4
15383	3e-05	-4e-05	-6e-05	-8e-05	-0.00058	-0.00036	4e-05	0.00018	4
15384	-0.00011	-2e-05	-0.00027	-4e-05	-0.00092	0.00037	-0.00016	0	4
15385	-2e-05	-4e-05	-0.00014	-0.00051	-0.00052	-0.00029	-5e-05	-4e-05	4
15386	-2e-05	-4e-05	-0.00014	-0.00051	-0.00052	-0.00029	-5e-05	-4e-05	4
15388	-2e-05	-4e-05	-0.00014	-0.00051	-0.00052	-0.00029	-5e-05	-4e-05	4
15389	-2e-05	-4e-05	-0.00014	-0.00051	-0.00052	-0.00029	-5e-05	-4e-05	4
15390	-2e-05	-4e-05	-0.00014	-0.00051	-0.00052	-0.00029	-5e-05	-4e-05	4
15391	-0.00013	-1e-05	-3e-05	-0.00011	3e-05	0.00016	-0.00021	-0.00032	4
15392	-0.00013	-1e-05	-3e-05	-0.00011	3e-05	0.00016	-0.00021	-0.00032	4
15393	-0.00013	-1e-05	-3e-05	-0.00011	3e-05	0.00016	-0.00021	-0.00032	4
15394	-0.00013	-1e-05	-3e-05	-0.00011	3e-05	0.00016	-0.00021	-0.00032	4
15395	-0.00013	-1e-05	-3e-05	-0.00011	3e-05	0.00016	-0.00021	-0.00032	4
15396	-0.00013	-1e-05	-3e-05	-0.00011	3e-05	0.00016	-0.00021	-0.00032	4
15397	-0.00013	-1e-05	-3e-05	-0.00011	3e-05	0.00016	-0.00021	-0.00032	4
15398	-0.00013	-1e-05	-3e-05	-0.00011	3e-05	0.00016	-0.00021	-0.00032	4
15399	-0.00013	-1e-05	-3e-05	-0.00011	3e-05	0.00016	-0.00021	-0.00032	4
15400	-0.00013	-1e-05	-3e-05	-0.00011	3e-05	0.00016	-0.00021	-0.00032	4
15401	-0.00013	-1e-05	-3e-05	-0.00011	3e-05	0.00016	-0.00021	-0.00032	4
15402	-0.00013	-1e-05	-3e-05	-0.00011	3e-05	0.00016	-0.00021	-0.00032	4
15403	-0.00013	-1e-05	-3e-05	-0.00011	3e-05	0.00016	-0.00021	-0.00032	4
15404	-0.00013	-1e-05	-3e-05	-0.00011	3e-05	0.00016	-0.00021	-0.00032	4
15405	-0.00013	-1e-05	-3e-05	-0.00011	3e-05	0.00016	-0.00021	-0.00032	4
15406	-0.00013	-1e-05	-3e-05	-0.00011	3e-05	0.00016	-0.00021	-0.00032	4
15407	-0.00013	-1e-05	-3e-05	-0.00011	3e-05	0.00016	-0.00021	-0.00032	4
15408	7e-05	-1e-05	0.00016	-0.00015	-0.00102	0.00033	3e-05	0.00015	4
15409	8e-05	0	0.00021	-0.00067	-0.00095	-0.00067	0.00016	0.00018	4
15410	8e-05	0	0.00021	-0.00067	-0.00095	-0.00067	0.00016	0.00018	4
15411	8e-05	0	0.00021	-0.00067	-0.00095	-0.00067	0.00016	0.00018	4
15412	8e-05	0	0.00021	-0.00067	-0.00095	-0.00067	0.00016	0.00018	4
15413	8e-05	0	0.00021	-0.00067	-0.00095	-0.00067	0.00016	0.00018	4
15414	8e-05	0	0.00021	-0.00067	-0.00095	-0.00067	0.00016	0.00018	4
15415	8e-05	0	0.00021	-0.00067	-0.00095	-0.00067	0.00016	0.00018	4
15416	8e-05	0	0.00021	-0.00067	-0.00095	-0.00067	0.00016	0.00018	4
15417	8e-05	0	0.00021	-0.00067	-0.00095	-0.00067	0.00016	0.00018	4
15418	8e-05	0	0.00021	-0.00067	-0.00095	-0.00067	0.00016	0.00018	4
15419	8e-05	0	0.00021	-0.00067	-0.00095	-0.00067	0.00016	0.00018	4
15420	8e-05	0	0.00021	-0.00067	-0.00095	-0.00067	0.00016	0.00018	4
15421	8e-05	0	0.00021	-0.00067	-0.00095	-0.00067	0.00016	0.00018	4
15422	8e-05	0	0.00021	-0.00067	-0.00095	-0.00067	0.00016	0.00018	4
15423	8e-05	0	0.00021	-0.00067	-0.00095	-0.00067	0.00016	0.00018	4
15424	8e-05	0	0.00021	-0.00067	-0.00095	-0.00067	0.00016	0.00018	4
15425	8e-05	0	0.00021	-0.00067	-0.00095	-0.00067	0.00016	0.00018	4
15426	8e-05	0	0.00021	-0.00067	-0.00095	-0.00067	0.00016	0.00018	4
15427	8e-05	0	0.00021	-0.00067	-0.00095	-0.00067	0.00016	0.00018	4
15428	8e-05	0	0.00021	-0.00067	-0.00095	-0.00067	0.00016	0.00018	4
15429	8e-05	0	0.00021	-0.00067	-0.00095	-0.00067	0.00016	0.00018	4
15430	-2e-05	3e-05	9e-05	-0.00046	-0.00083	-0.00014	9e-05	7e-05	4
15431	-2e-05	3e-05	9e-05	-0.00046	-0.00083	-0.00014	9e-05	7e-05	4
15432	-0.00017	0	-0.00029	-0.00072	-0.00097	0.00023	-0.00013	-0.00033	4
15433	-0.00017	0	-0.00029	-0.00072	-0.00097	0.00023	-0.00013	-0.00033	4
15434	-0.00017	0	-0.00029	-0.00072	-0.00097	0.00023	-0.00013	-0.00033	4
15435	-0.00017	0	-0.00029	-0.00072	-0.00097	0.00023	-0.00013	-0.00033	4
15436	-0.00017	0	-0.00029	-0.00072	-0.00097	0.00023	-0.00013	-0.00033	4
15438	-0.00017	0	-0.00029	-0.00072	-0.00097	0.00023	-0.00013	-0.00033	4
15439	-0.00017	0	-0.00029	-0.00072	-0.00097	0.00023	-0.00013	-0.00033	4
15440	-0.00017	0	-0.00029	-0.00072	-0.00097	0.00023	-0.00013	-0.00033	4
15441	-0.00017	0	-0.00029	-0.00072	-0.00097	0.00023	-0.00013	-0.00033	4
15442	-0.00017	0	-0.00029	-0.00072	-0.00097	0.00023	-0.00013	-0.00033	4
15443	-0.00017	0	-0.00029	-0.00072	-0.00097	0.00023	-0.00013	-0.00033	4
15444	0.00018	1e-05	0.00035	0.00126	0.00048	-0.00024	0.00027	0.0003	4
15445	6e-05	1e-05	-3e-05	-0.00066	-0.0011	0.00064	-0.00017	-2e-05	4
15446	6e-05	1e-05	-3e-05	-0.00066	-0.0011	0.00064	-0.00017	-2e-05	4
15447	6e-05	1e-05	-3e-05	-0.00066	-0.0011	0.00064	-0.00017	-2e-05	4
15448	6e-05	1e-05	-3e-05	-0.00066	-0.0011	0.00064	-0.00017	-2e-05	4
15449	6e-05	1e-05	-3e-05	-0.00066	-0.0011	0.00064	-0.00017	-2e-05	4
15450	6e-05	1e-05	-3e-05	-0.00066	-0.0011	0.00064	-0.00017	-2e-05	4
15451	-0.00015	0	-0.00038	-0.00094	-0.00081	-3e-05	-0.00022	-0.00016	4
15452	-0.00015	0	-0.00038	-0.00094	-0.00081	-3e-05	-0.00022	-0.00016	4
15453	-0.00015	0	-0.00038	-0.00094	-0.00081	-3e-05	-0.00022	-0.00016	4
15454	-0.00015	0	-0.00038	-0.00094	-0.00081	-3e-05	-0.00022	-0.00016	4
15455	-0.00015	0	-0.00038	-0.00094	-0.00081	-3e-05	-0.00022	-0.00016	4
15456	-0.00015	0	-0.00038	-0.00094	-0.00081	-3e-05	-0.00022	-0.00016	4
15457	-0.00015	0	-0.00038	-0.00094	-0.00081	-3e-05	-0.00022	-0.00016	4
15458	-0.00015	0	-0.00038	-0.00094	-0.00081	-3e-05	-0.00022	-0.00016	4
15459	-0.00015	0	-0.00038	-0.00094	-0.00081	-3e-05	-0.00022	-0.00016	4
15460	-0.00015	0	-0.00038	-0.00094	-0.00081	-3e-05	-0.00022	-0.00016	4
15461	-0.00015	0	-0.00038	-0.00094	-0.00081	-3e-05	-0.00022	-0.00016	4
15462	-0.00015	0	-0.00038	-0.00094	-0.00081	-3e-05	-0.00022	-0.00016	4
15463	-0.00015	0	-0.00038	-0.00094	-0.00081	-3e-05	-0.00022	-0.00016	4
15464	-0.00015	0	-0.00038	-0.00094	-0.00081	-3e-05	-0.00022	-0.00016	4
15465	-0.00015	0	-0.00038	-0.00094	-0.00081	-3e-05	-0.00022	-0.00016	4
15466	-0.00015	0	-0.00038	-0.00094	-0.00081	-3e-05	-0.00022	-0.00016	4
15467	-0.00015	0	-0.00038	-0.00094	-0.00081	-3e-05	-0.00022	-0.00016	4
15468	-0.00016	-1e-05	-0.00025	-0.00063	-0.00043	-0.00067	-0.00029	-0.00023	4
