24384	8e-05	-7e-05	-7e-05	-0.00021	-0.00073	5e-05	-0.00054	6e-05	6
24385	8e-05	-7e-05	-7e-05	-0.00021	-0.00073	5e-05	-0.00054	6e-05	6
24386	8e-05	-7e-05	-7e-05	-0.00021	-0.00073	5e-05	-0.00054	6e-05	6
24388	8e-05	-7e-05	-7e-05	-0.00021	-0.00073	5e-05	-0.00054	6e-05	6
24389	8e-05	-7e-05	-7e-05	-0.00021	-0.00073	5e-05	-0.00054	6e-05	6
24390	8e-05	-7e-05	-7e-05	-0.00021	-0.00073	5e-05	-0.00054	6e-05	6
24391	8e-05	-7e-05	-7e-05	-0.00021	-0.00073	5e-05	-0.00054	6e-05	6
24392	8e-05	-7e-05	-7e-05	-0.00021	-0.00073	5e-05	-0.00054	6e-05	6
24393	-0.00022	-1e-05	-8e-05	-9e-05	-0.00023	0.00044	-0.0001	-0.00041	6
24394	1e-05	-3e-05	-3e-05	3e-05	0.0005	0.00034	-1e-05	0.00016	6
24395	1e-05	-3e-05	-3e-05	3e-05	0.0005	0.00034	-1e-05	0.00016	6
24396	1e-05	-3e-05	-3e-05	3e-05	0.0005	0.00034	-1e-05	0.00016	6
24397	1e-05	-3e-05	-3e-05	3e-05	0.0005	0.00034	-1e-05	0.00016	6
24398	1e-05	-3e-05	-3e-05	3e-05	0.0005	0.00034	-1e-05	0.00016	6
24399	1e-05	-3e-05	-3e-05	3e-05	0.0005	0.00034	-1e-05	0.00016	6
24400	1e-05	-3e-05	-3e-05	3e-05	0.0005	0.00034	-1e-05	0.00016	6
24401	1e-05	-3e-05	-3e-05	3e-05	0.0005	0.00034	-1e-05	0.00016	6
24402	1e-05	-3e-05	-3e-05	3e-05	0.0005	0.00034	-1e-05	0.00016	6
24403	1e-05	-3e-05	-3e-05	3e-05	0.0005	0.00034	-1e-05	0.00016	6
24404	1e-05	-3e-05	-3e-05	3e-05	0.0005	0.00034	-1e-05	0.00016	6
24405	1e-05	-3e-05	-3e-05	3e-05	0.0005	0.00034	-1e-05	0.00016	6
24406	1e-05	-3e-05	-3e-05	3e-05	0.0005	0.00034	-1e-05	0.00016	6
24407	0.00017	-4e-05	-6e-05	-4e-05	-0.00074	-0.00041	-0.00016	0.00041	6
24408	0.00017	-4e-05	-6e-05	-4e-05	-0.00074	-0.00041	-0.00016	0.00041	6
24409	0.00017	-4e-05	-6e-05	-4e-05	-0.00074	-0.00041	-0.00016	0.00041	6
24410	0.00017	-4e-05	-6e-05	-4e-05	-0.00074	-0.00041	-0.00016	0.00041	6
24411	0.00017	-4e-05	-6e-05	-4e-05	-0.00074	-0.00041	-0.00016	0.00041	6
24412	0.00017	-4e-05	-6e-05	-4e-05	-0.00074	-0.00041	-0.00016	0.00041	6
24413	0.00017	-4e-05	-6e-05	-4e-05	-0.00074	-0.00041	-0.00016	0.00041	6
24414	0.00017	-4e-05	-6e-05	-4e-05	-0.00074	-0.00041	-0.00016	0.00041	6
24415	0	-3e-05	9e-05	0.00013	0.00018	-0.00049	2e-05	0.00016	6
24416	0	-3e-05	9e-05	0.00013	0.00018	-0.00049	2e-05	0.00016	6
24417	0	-3e-05	9e-05	0.00013	0.00018	-0.00049	2e-05	0.00016	6
24418	0	-3e-05	9e-05	0.00013	0.00018	-0.00049	2e-05	0.00016	6
24419	0	-3e-05	9e-05	0.00013	0.00018	-0.00049	2e-05	0.00016	6
24420	0	-3e-05	9e-05	0.00013	0.00018	-0.00049	2e-05	0.00016	6
24421	0	-3e-05	9e-05	0.00013	0.00018	-0.00049	2e-05	0.00016	6
24422	0	-3e-05	9e-05	0.00013	0.00018	-0.00049	2e-05	0.00016	6
24423	0	-3e-05	9e-05	0.00013	0.00018	-0.00049	2e-05	0.00016	6
24424	0	-3e-05	9e-05	0.00013	0.00018	-0.00049	2e-05	0.00016	6
24425	0	-3e-05	9e-05	0.00013	0.00018	-0.00049	2e-05	0.00016	6
24426	0	-3e-05	9e-05	0.00013	0.00018	-0.00049	2e-05	0.00016	6
24427	0	-3e-05	9e-05	0.00013	0.00018	-0.00049	2e-05	0.00016	6
24428	0	-3e-05	9e-05	0.00013	0.00018	-0.00049	2e-05	0.00016	6
24429	0	-3e-05	9e-05	0.00013	0.00018	-0.00049	2e-05	0.00016	6
24430	-6e-05	-3e-05	4e-05	0.00012	0.00015	-0.00038	-0.00024	0.00015	6
24431	-8e-05	-3e-05	-6e-05	-0.00013	-0.00048	-4e-05	2e-05	-2e-05	6
24432	-8e-05	-3e-05	-6e-05	-0.00013	-0.00048	-4e-05	2e-05	-2e-05	6
24433	-8e-05	-3e-05	-6e-05	-0.00013	-0.00048	-4e-05	2e-05	-2e-05	6
24434	-8e-05	-3e-05	-6e-05	-0.00013	-0.00048	-4e-05	2e-05	-2e-05	6
24435	-8e-05	-3e-05	-6e-05	-0.00013	-0.00048	-4e-05	2e-05	-2e-05	6
24436	-8e-05	-3e-05	-6e-05	-0.00013	-0.00048	-4e-05	2e-05	-2e-05	6
24438	-8e-05	-3e-05	-6e-05	-0.00013	-0.00048	-4e-05	2e-05	-2e-05	6
24439	-8e-05	-3e-05	-6e-05	-0.00013	-0.00048	-4e-05	2e-05	-2e-05	6
24440	-8e-05	-3e-05	-6e-05	-0.00013	-0.00048	-4e-05	2e-05	-2e-05	6
24441	-8e-05	-3e-05	-6e-05	-0.00013	-0.00048	-4e-05	2e-05	-2e-05	6
24442	-8e-05	-3e-05	-6e-05	-0.00013	-0.00048	-4e-05	2e-05	-2e-05	6
24443	-8e-05	-3e-05	-6e-05	-0.00013	-0.00048	-4e-05	2e-05	-2e-05	6
24444	-8e-05	-3e-05	-6e-05	-0.00013	-0.00048	-4e-05	2e-05	-2e-05	6
24445	-8e-05	-3e-05	-6e-05	-0.00013	-0.00048	-4e-05	2e-05	-2e-05	6
24446	-8e-05	-3e-05	-6e-05	-0.00013	-0.00048	-4e-05	2e-05	-2e-05	6
24447	-8e-05	-3e-05	-6e-05	-0.00013	-0.00048	-4e-05	2e-05	-2e-05	6
24448	-8e-05	-3e-05	-6e-05	-0.00013	-0.00048	-4e-05	2e-05	-2e-05	6
24449	-8e-05	-3e-05	-6e-05	-0.00013	-0.00048	-4e-05	2e-05	-2e-05	6
24450	-8e-05	-3e-05	-6e-05	-0.00013	-0.00048	-4e-05	2e-05	-2e-05	6
24451	-8e-05	-3e-05	-6e-05	-0.00013	-0.00048	-4e-05	2e-05	-2e-05	6
24452	-8e-05	-3e-05	-6e-05	-0.00013	-0.00048	-4e-05	2e-05	-2e-05	6
24453	7e-05	0	2e-05	0	0.0002	-3e-05	-0.00028	0.00012	6
24454	-0.00011	-6e-05	-6e-05	1e-05	0.00035	0.00075	0.00033	-0.00057	6
24455	-0.00011	-6e-05	-6e-05	1e-05	0.00035	0.00075	0.00033	-0.00057	6
24456	-0.00011	-6e-05	-6e-05	1e-05	0.00035	0.00075	0.00033	-0.00057	6
24457	-0.00011	-6e-05	-6e-05	1e-05	0.00035	0.00075	0.00033	-0.00057	6
24458	-0.00011	-6e-05	-6e-05	1e-05	0.00035	0.00075	0.00033	-0.00057	6
24459	-0.00011	-6e-05	-6e-05	1e-05	0.00035	0.00075	0.00033	-0.00057	6
24460	-0.00011	-6e-05	-6e-05	1e-05	0.00035	0.00075	0.00033	-0.00057	6
24461	-0.00011	-6e-05	-6e-05	1e-05	0.00035	0.00075	0.00033	-0.00057	6
24462	-0.00011	-6e-05	-6e-05	1e-05	0.00035	0.00075	0.00033	-0.00057	6
24463	-0.00011	-6e-05	-6e-05	1e-05	0.00035	0.00075	0.00033	-0.00057	6
24464	-0.00011	-6e-05	-6e-05	1e-05	0.00035	0.00075	0.00033	-0.00057	6
24465	-0.00011	-6e-05	-6e-05	1e-05	0.00035	0.00075	0.00033	-0.00057	6
24466	-0.00011	-6e-05	-6e-05	1e-05	0.00035	0.00075	0.00033	-0.00057	6
24467	0.00017	-6e-05	-0.00014	-0.00037	-0.00067	0.00067	-0.0002	0.00045	6
24468	0.00017	-6e-05	-0.00014	-0.00037	-0.00067	0.00067	-0.0002	0.00045	6
24469	0.00017	-6e-05	-0.00014	-0.00037	-0.00067	0.00067	-0.0002	0.00045	6
24470	0.00017	-6e-05	-0.00014	-0.00037	-0.00067	0.00067	-0.0002	0.00045	6
24471	0.00017	-6e-05	-0.00014	-0.00037	-0.00067	0.00067	-0.0002	0.00045	6
24472	0.00017	-6e-05	-0.00014	-0.00037	-0.00067	0.00067	-0.0002	0.00045	6
24473	0.00017	-6e-05	-0.00014	-0.00037	-0.00067	0.00067	-0.0002	0.00045	6
24474	0.00017	-6e-05	-0.00014	-0.00037	-0.00067	0.00067	-0.0002	0.00045	6
24475	-4e-05	-5e-05	-5e-05	-0.00012	-0.00045	-0.00052	-0.00033	0.00021	6
24476	-4e-05	-5e-05	-5e-05	-0.00012	-0.00045	-0.00052	-0.00033	0.00021	6
24477	-4e-05	-5e-05	-5e-05	-0.00012	-0.00045	-0.00052	-0.00033	0.00021	6
24478	-4e-05	-5e-05	-5e-05	-0.00012	-0.00045	-0.00052	-0.00033	0.00021	6
24479	-4e-05	-5e-05	-5e-05	-0.00012	-0.00045	-0.00052	-0.00033	0.00021	6
24480	-4e-05	-5e-05	-5e-05	-0.00012	-0.00045	-0.00052	-0.00033	0.00021	6
24481	-4e-05	-5e-05	-5e-05	-0.00012	-0.00045	-0.00052	-0.00033	0.00021	6
24482	-4e-05	-5e-05	-5e-05	-0.00012	-0.00045	-0.00052	-0.00033	0.00021	6
24483	-4e-05	-5e-05	-5e-05	-0.00012	-0.00045	-0.00052	-0.00033	0.00021	6
24484	-4e-05	-5e-05	-5e-05	-0.00012	-0.00045	-0.00052	-0.00033	0.00021	6
24485	-4e-05	-5e-05	-5e-05	-0.00012	-0.00045	-0.00052	-0.00033	0.00021	6
24486	-4e-05	-5e-05	-5e-05	-0.00012	-0.00045	-0.00052	-0.00033	0.00021	6
24488	-4e-05	-5e-05	-5e-05	-0.00012	-0.00045	-0.00052	-0.00033	0.00021	6
24489	-4e-05	-5e-05	-5e-05	-0.00012	-0.00045	-0.00052	-0.00033	0.00021	6
24490	0.00022	4e-05	5e-05	0.00015	0.00113	-0.00027	-0.00037	0.00051	6
24491	5e-05	-2e-05	-3e-05	-6e-05	-2e-05	-0.00029	-8e-05	0.00023	6
24492	5e-05	-2e-05	-3e-05	-6e-05	-2e-05	-0.00029	-8e-05	0.00023	6
24493	5e-05	-2e-05	-3e-05	-6e-05	-2e-05	-0.00029	-8e-05	0.00023	6
24494	5e-05	-2e-05	-3e-05	-6e-05	-2e-05	-0.00029	-8e-05	0.00023	6
24495	5e-05	-2e-05	-3e-05	-6e-05	-2e-05	-0.00029	-8e-05	0.00023	6
24496	5e-05	-2e-05	-3e-05	-6e-05	-2e-05	-0.00029	-8e-05	0.00023	6
24497	5e-05	-2e-05	-3e-05	-6e-05	-2e-05	-0.00029	-8e-05	0.00023	6
24498	5e-05	-2e-05	-3e-05	-6e-05	-2e-05	-0.00029	-8e-05	0.00023	6
24499	5e-05	-2e-05	-3e-05	-6e-05	-2e-05	-0.00029	-8e-05	0.00023	6
24500	5e-05	-2e-05	-3e-05	-6e-05	-2e-05	-0.00029	-8e-05	0.00023	6
24501	5e-05	-2e-05	-3e-05	-6e-05	-2e-05	-0.00029	-8e-05	0.00023	6
24502	5e-05	-2e-05	-3e-05	-6e-05	-2e-05	-0.00029	-8e-05	0.00023	6
24503	5e-05	-2e-05	-3e-05	-6e-05	-2e-05	-0.00029	-8e-05	0.00023	6
24504	5e-05	-2e-05	-3e-05	-6e-05	-2e-05	-0.00029	-8e-05	0.00023	6
24505	5e-05	-2e-05	-3e-05	-6e-05	-2e-05	-0.00029	-8e-05	0.00023	6
24506	5e-05	-2e-05	-3e-05	-6e-05	-2e-05	-0.00029	-8e-05	0.00023	6
24507	5e-05	-2e-05	-3e-05	-6e-05	-2e-05	-0.00029	-8e-05	0.00023	6
24508	5e-05	-2e-05	-3e-05	-6e-05	-2e-05	-0.00029	-8e-05	0.00023	6
24509	5e-05	-2e-05	-3e-05	-6e-05	-2e-05	-0.00029	-8e-05	0.00023	6
24510	5e-05	-2e-05	-3e-05	-6e-05	-2e-05	-0.00029	-8e-05	0.00023	6
24511	5e-05	-2e-05	-3e-05	-6e-05	-2e-05	-0.00029	-8e-05	0.00023	6
24512	5e-05	-2e-05	-3e-05	-6e-05	-2e-05	-0.00029	-8e-05	0.00023	6
24513	-0.00017	2e-05	2e-05	0.00015	0.00065	0.00075	0.00092	-0.00032	6
24514	0.00013	8e-05	6e-05	0.00023	0.00075	0.00067	0.00021	0.00015	6
24515	0.00013	8e-05	6e-05	0.00023	0.00075	0.00067	0.00021	0.00015	6
24516	0.00013	8e-05	6e-05	0.00023	0.00075	0.00067	0.00021	0.00015	6
24517	0.00013	8e-05	6e-05	0.00023	0.00075	0.00067	0.00021	0.00015	6
24518	0.00013	8e-05	6e-05	0.00023	0.00075	0.00067	0.00021	0.00015	6
24519	0.00013	8e-05	6e-05	0.00023	0.00075	0.00067	0.00021	0.00015	6
24520	0.00013	8e-05	6e-05	0.00023	0.00075	0.00067	0.00021	0.00015	6
24521	0.00013	8e-05	6e-05	0.00023	0.00075	0.00067	0.00021	0.00015	6
24522	0.00013	8e-05	6e-05	0.00023	0.00075	0.00067	0.00021	0.00015	6
24523	0.00013	8e-05	6e-05	0.00023	0.00075	0.00067	0.00021	0.00015	6
24524	0.00013	8e-05	6e-05	0.00023	0.00075	0.00067	0.00021	0.00015	6
24525	0.00013	8e-05	6e-05	0.00023	0.00075	0.00067	0.00021	0.00015	6
24526	0.00013	8e-05	6e-05	0.00023	0.00075	0.00067	0.00021	0.00015	6
24527	0.00014	-5e-05	-9e-05	-0.00011	-0.0005	-0.00011	0.00027	-0.00058	6
24528	0.00014	-5e-05	-9e-05	-0.00011	-0.0005	-0.00011	0.00027	-0.00058	6
24529	0.00014	-5e-05	-9e-05	-0.00011	-0.0005	-0.00011	0.00027	-0.00058	6
24530	0.00014	-5e-05	-9e-05	-0.00011	-0.0005	-0.00011	0.00027	-0.00058	6
24531	0.00014	-5e-05	-9e-05	-0.00011	-0.0005	-0.00011	0.00027	-0.00058	6
24532	0.00014	-5e-05	-9e-05	-0.00011	-0.0005	-0.00011	0.00027	-0.00058	6
24533	0.00014	-5e-05	-9e-05	-0.00011	-0.0005	-0.00011	0.00027	-0.00058	6
24534	0.00014	-5e-05	-9e-05	-0.00011	-0.0005	-0.00011	0.00027	-0.00058	6
24535	-5e-05	-1e-05	-5e-05	-0.0002	-0.00023	-0.00038	3e-05	-6e-05	6
24536	-5e-05	-1e-05	-5e-05	-0.0002	-0.00023	-0.00038	3e-05	-6e-05	6
24538	-5e-05	-1e-05	-5e-05	-0.0002	-0.00023	-0.00038	3e-05	-6e-05	6
24539	-5e-05	-1e-05	-5e-05	-0.0002	-0.00023	-0.00038	3e-05	-6e-05	6
24540	-5e-05	-1e-05	-5e-05	-0.0002	-0.00023	-0.00038	3e-05	-6e-05	6
24541	-5e-05	-1e-05	-5e-05	-0.0002	-0.00023	-0.00038	3e-05	-6e-05	6
24542	-5e-05	-1e-05	-5e-05	-0.0002	-0.00023	-0.00038	3e-05	-6e-05	6
24543	-5e-05	-1e-05	-5e-05	-0.0002	-0.00023	-0.00038	3e-05	-6e-05	6
24544	-5e-05	-1e-05	-5e-05	-0.0002	-0.00023	-0.00038	3e-05	-6e-05	6
24545	-5e-05	-1e-05	-5e-05	-0.0002	-0.00023	-0.00038	3e-05	-6e-05	6
24546	-5e-05	-1e-05	-5e-05	-0.0002	-0.00023	-0.00038	3e-05	-6e-05	6
24547	-5e-05	-1e-05	-5e-05	-0.0002	-0.00023	-0.00038	3e-05	-6e-05	6
24548	-5e-05	-1e-05	-5e-05	-0.0002	-0.00023	-0.00038	3e-05	-6e-05	6
24549	-5e-05	-1e-05	-5e-05	-0.0002	-0.00023	-0.00038	3e-05	-6e-05	6
24550	-6e-05	-1e-05	-4e-05	-3e-05	-0.00017	-0.00025	-7e-05	-0.00016	6
24551	-0.00026	0	-6e-05	3e-05	0.00028	-0.0002	-0.00017	-3e-05	6
24552	-0.00026	0	-6e-05	3e-05	0.00028	-0.0002	-0.00017	-3e-05	6
24553	-0.00026	0	-6e-05	3e-05	0.00028	-0.0002	-0.00017	-3e-05	6
24554	-0.00026	0	-6e-05	3e-05	0.00028	-0.0002	-0.00017	-3e-05	6
24555	-0.00026	0	-6e-05	3e-05	0.00028	-0.0002	-0.00017	-3e-05	6
24556	-0.00026	0	-6e-05	3e-05	0.00028	-0.0002	-0.00017	-3e-05	6
24557	-0.00026	0	-6e-05	3e-05	0.00028	-0.0002	-0.00017	-3e-05	6
24558	-0.00026	0	-6e-05	3e-05	0.00028	-0.0002	-0.00017	-3e-05	6
24559	-0.00026	0	-6e-05	3e-05	0.00028	-0.0002	-0.00017	-3e-05	6
24560	-0.00026	0	-6e-05	3e-05	0.00028	-0.0002	-0.00017	-3e-05	6
24561	-0.00026	0	-6e-05	3e-05	0.00028	-0.0002	-0.00017	-3e-05	6
24562	-0.00026	0	-6e-05	3e-05	0.00028	-0.0002	-0.00017	-3e-05	6
24563	-0.00026	0	-6e-05	3e-05	0.00028	-0.0002	-0.00017	-3e-05	6
24564	-0.00026	0	-6e-05	3e-05	0.00028	-0.0002	-0.00017	-3e-05	6
24565	-0.00026	0	-6e-05	3e-05	0.00028	-0.0002	-0.00017	-3e-05	6
24566	-0.00026	0	-6e-05	3e-05	0.00028	-0.0002	-0.00017	-3e-05	6
24567	-0.00026	0	-6e-05	3e-05	0.00028	-0.0002	-0.00017	-3e-05	6
24568	-0.00026	0	-6e-05	3e-05	0.00028	-0.0002	-0.00017	-3e-05	6
24569	-0.00026	0	-6e-05	3e-05	0.00028	-0.0002	-0.00017	-3e-05	6
24570	-0.00026	0	-6e-05	3e-05	0.00028	-0.0002	-0.00017	-3e-05	6
24571	-0.00026	0	-6e-05	3e-05	0.00028	-0.0002	-0.00017	-3e-05	6
24572	-0.00026	0	-6e-05	3e-05	0.00028	-0.0002	-0.00017	-3e-05	6
24573	-9e-05	0	4e-05	0.00013	0.00036	-0.00034	3e-05	2e-05	6
24574	5e-05	-2e-05	2e-05	-2e-05	-0.00071	-0.00039	-0.00021	-0.0003	6
24575	5e-05	-2e-05	2e-05	-2e-05	-0.00071	-0.00039	-0.00021	-0.0003	6
24576	5e-05	-2e-05	2e-05	-2e-05	-0.00071	-0.00039	-0.00021	-0.0003	6
24577	5e-05	-2e-05	2e-05	-2e-05	-0.00071	-0.00039	-0.00021	-0.0003	6
24578	5e-05	-2e-05	2e-05	-2e-05	-0.00071	-0.00039	-0.00021	-0.0003	6
24579	5e-05	-2e-05	2e-05	-2e-05	-0.00071	-0.00039	-0.00021	-0.0003	6
24580	5e-05	-2e-05	2e-05	-2e-05	-0.00071	-0.00039	-0.00021	-0.0003	6
24581	5e-05	-2e-05	2e-05	-2e-05	-0.00071	-0.00039	-0.00021	-0.0003	6
24582	5e-05	-2e-05	2e-05	-2e-05	-0.00071	-0.00039	-0.00021	-0.0003	6
24583	5e-05	-2e-05	2e-05	-2e-05	-0.00071	-0.00039	-0.00021	-0.0003	6
24584	5e-05	-2e-05	2e-05	-2e-05	-0.00071	-0.00039	-0.00021	-0.0003	6
24585	5e-05	-2e-05	2e-05	-2e-05	-0.00071	-0.00039	-0.00021	-0.0003	6
24586	5e-05	-2e-05	2e-05	-2e-05	-0.00071	-0.00039	-0.00021	-0.0003	6
24588	-0.00028	-3e-05	-0.0001	-0.00014	-0.0003	0.0001	-0.00022	-0.00022	6
24589	-0.00028	-3e-05	-0.0001	-0.00014	-0.0003	0.0001	-0.00022	-0.00022	6
24590	-0.00028	-3e-05	-0.0001	-0.00014	-0.0003	0.0001	-0.00022	-0.00022	6
24591	-0.00028	-3e-05	-0.0001	-0.00014	-0.0003	0.0001	-0.00022	-0.00022	6
24592	-0.00028	-3e-05	-0.0001	-0.00014	-0.0003	0.0001	-0.00022	-0.00022	6
24593	-0.00028	-3e-05	-0.0001	-0.00014	-0.0003	0.0001	-0.00022	-0.00022	6
24594	-0.00028	-3e-05	-0.0001	-0.00014	-0.0003	0.0001	-0.00022	-0.00022	6
24595	0.00025	3e-05	4e-05	0.00024	0.00074	-0.00041	8e-05	0.00045	6
24596	0.00025	3e-05	4e-05	0.00024	0.00074	-0.00041	8e-05	0.00045	6
24597	0.00025	3e-05	4e-05	0.00024	0.00074	-0.00041	8e-05	0.00045	6
24598	0.00025	3e-05	4e-05	0.00024	0.00074	-0.00041	8e-05	0.00045	6
24599	0.00025	3e-05	4e-05	0.00024	0.00074	-0.00041	8e-05	0.00045	6
24600	0.00025	3e-05	4e-05	0.00024	0.00074	-0.00041	8e-05	0.00045	6
24601	0.00025	3e-05	4e-05	0.00024	0.00074	-0.00041	8e-05	0.00045	6
24602	0.00025	3e-05	4e-05	0.00024	0.00074	-0.00041	8e-05	0.00045	6
24603	0.00025	3e-05	4e-05	0.00024	0.00074	-0.00041	8e-05	0.00045	6
24604	0.00025	3e-05	4e-05	0.00024	0.00074	-0.00041	8e-05	0.00045	6
24605	0.00025	3e-05	4e-05	0.00024	0.00074	-0.00041	8e-05	0.00045	6
24606	0.00025	3e-05	4e-05	0.00024	0.00074	-0.00041	8e-05	0.00045	6
24607	0.00025	3e-05	4e-05	0.00024	0.00074	-0.00041	8e-05	0.00045	6
24608	0.00025	3e-05	4e-05	0.00024	0.00074	-0.00041	8e-05	0.00045	6
24609	0.00025	3e-05	4e-05	0.00024	0.00074	-0.00041	8e-05	0.00045	6
24610	-3e-05	-8e-05	-4e-05	-0.00011	-0.00074	-0.00033	-0.00027	-0.0001	6
24611	-5e-05	-2e-05	-4e-05	-0.00014	-0.00041	-0.00018	-0.00016	-4e-05	6
24612	-5e-05	-2e-05	-4e-05	-0.00014	-0.00041	-0.00018	-0.00016	-4e-05	6
24613	-5e-05	-2e-05	-4e-05	-0.00014	-0.00041	-0.00018	-0.00016	-4e-05	6
24614	-5e-05	-2e-05	-4e-05	-0.00014	-0.00041	-0.00018	-0.00016	-4e-05	6
24615	-5e-05	-2e-05	-4e-05	-0.00014	-0.00041	-0.00018	-0.00016	-4e-05	6
24616	-5e-05	-2e-05	-4e-05	-0.00014	-0.00041	-0.00018	-0.00016	-4e-05	6
24617	-5e-05	-2e-05	-4e-05	-0.00014	-0.00041	-0.00018	-0.00016	-4e-05	6
24618	-5e-05	-2e-05	-4e-05	-0.00014	-0.00041	-0.00018	-0.00016	-4e-05	6
24619	-5e-05	-2e-05	-4e-05	-0.00014	-0.00041	-0.00018	-0.00016	-4e-05	6
24620	-5e-05	-2e-05	-4e-05	-0.00014	-0.00041	-0.00018	-0.00016	-4e-05	6
24621	-5e-05	-2e-05	-4e-05	-0.00014	-0.00041	-0.00018	-0.00016	-4e-05	6
24622	-5e-05	-2e-05	-4e-05	-0.00014	-0.00041	-0.00018	-0.00016	-4e-05	6
24623	-5e-05	-2e-05	-4e-05	-0.00014	-0.00041	-0.00018	-0.00016	-4e-05	6
24624	-5e-05	-2e-05	-4e-05	-0.00014	-0.00041	-0.00018	-0.00016	-4e-05	6
24625	-5e-05	-2e-05	-4e-05	-0.00014	-0.00041	-0.00018	-0.00016	-4e-05	6
24626	-5e-05	-2e-05	-4e-05	-0.00014	-0.00041	-0.00018	-0.00016	-4e-05	6
24627	-5e-05	-2e-05	-4e-05	-0.00014	-0.00041	-0.00018	-0.00016	-4e-05	6
24628	-5e-05	-2e-05	-4e-05	-0.00014	-0.00041	-0.00018	-0.00016	-4e-05	6
24629	-5e-05	-2e-05	-4e-05	-0.00014	-0.00041	-0.00018	-0.00016	-4e-05	6
24630	-5e-05	-2e-05	-4e-05	-0.00014	-0.00041	-0.00018	-0.00016	-4e-05	6
24631	-5e-05	-2e-05	-4e-05	-0.00014	-0.00041	-0.00018	-0.00016	-4e-05	6
24632	-5e-05	-2e-05	-4e-05	-0.00014	-0.00041	-0.00018	-0.00016	-4e-05	6
24633	-0.00036	3e-05	-6e-05	0	0.00046	0.00027	0.00028	-0.00128	6
24634	0.00013	9e-05	0.00025	0.00059	0.0005	0.00058	0.00036	-0.00011	6
24635	0.00013	9e-05	0.00025	0.00059	0.0005	0.00058	0.00036	-0.00011	6
24636	0.00013	9e-05	0.00025	0.00059	0.0005	0.00058	0.00036	-0.00011	6
24638	0.00013	9e-05	0.00025	0.00059	0.0005	0.00058	0.00036	-0.00011	6
24639	0.00013	9e-05	0.00025	0.00059	0.0005	0.00058	0.00036	-0.00011	6
24640	0.00013	9e-05	0.00025	0.00059	0.0005	0.00058	0.00036	-0.00011	6
24641	0.00013	9e-05	0.00025	0.00059	0.0005	0.00058	0.00036	-0.00011	6
24642	0.00013	9e-05	0.00025	0.00059	0.0005	0.00058	0.00036	-0.00011	6
24643	0.00013	9e-05	0.00025	0.00059	0.0005	0.00058	0.00036	-0.00011	6
24644	0.00013	9e-05	0.00025	0.00059	0.0005	0.00058	0.00036	-0.00011	6
24645	0.00013	9e-05	0.00025	0.00059	0.0005	0.00058	0.00036	-0.00011	6
24646	0.00013	9e-05	0.00025	0.00059	0.0005	0.00058	0.00036	-0.00011	6
24647	0.00013	9e-05	0.00025	0.00059	0.0005	0.00058	0.00036	-0.00011	6
24648	0.00013	9e-05	0.00025	0.00059	0.0005	0.00058	0.00036	-0.00011	6
24649	0.00013	9e-05	0.00025	0.00059	0.0005	0.00058	0.00036	-0.00011	6
24650	0.00013	9e-05	0.00025	0.00059	0.0005	0.00058	0.00036	-0.00011	6
24651	0.00013	9e-05	0.00025	0.00059	0.0005	0.00058	0.00036	-0.00011	6
24652	0.00013	9e-05	0.00025	0.00059	0.0005	0.00058	0.00036	-0.00011	6
24653	0.00013	9e-05	0.00025	0.00059	0.0005	0.00058	0.00036	-0.00011	6
24654	0.00013	9e-05	0.00025	0.00059	0.0005	0.00058	0.00036	-0.00011	6
24655	0.00013	9e-05	0.00025	0.00059	0.0005	0.00058	0.00036	-0.00011	6
24656	0.00017	0	-1e-05	-2e-05	0.0002	0.00022	-0.00026	8e-05	6
24657	-0.00029	-7e-05	-0.00012	-0.0003	-0.0007	-0.00015	-0.00026	-0.00015	6
24658	-0.00029	-7e-05	-0.00012	-0.0003	-0.0007	-0.00015	-0.00026	-0.00015	6
24659	-0.00029	-7e-05	-0.00012	-0.0003	-0.0007	-0.00015	-0.00026	-0.00015	6
24660	-0.00029	-7e-05	-0.00012	-0.0003	-0.0007	-0.00015	-0.00026	-0.00015	6
24661	-0.00029	-7e-05	-0.00012	-0.0003	-0.0007	-0.00015	-0.00026	-0.00015	6
24662	-0.00029	-7e-05	-0.00012	-0.0003	-0.0007	-0.00015	-0.00026	-0.00015	6
24663	-0.00029	-7e-05	-0.00012	-0.0003	-0.0007	-0.00015	-0.00026	-0.00015	6
24664	-0.00029	-7e-05	-0.00012	-0.0003	-0.0007	-0.00015	-0.00026	-0.00015	6
24665	-0.00029	-7e-05	-0.00012	-0.0003	-0.0007	-0.00015	-0.00026	-0.00015	6
24666	-0.00029	-7e-05	-0.00012	-0.0003	-0.0007	-0.00015	-0.00026	-0.00015	6
24667	-0.00029	-7e-05	-0.00012	-0.0003	-0.0007	-0.00015	-0.00026	-0.00015	6
24668	-0.00029	-7e-05	-0.00012	-0.0003	-0.0007	-0.00015	-0.00026	-0.00015	6
24669	-0.00029	-7e-05	-0.00012	-0.0003	-0.0007	-0.00015	-0.00026	-0.00015	6
24670	8e-05	1e-05	4e-05	0	-9e-05	-0.00067	1e-05	0.0002	6
24671	2e-05	3e-05	-3e-05	-0.0002	-0.00045	0.00023	-0.00032	-0.00054	6
24672	2e-05	3e-05	-3e-05	-0.0002	-0.00045	0.00023	-0.00032	-0.00054	6
24673	2e-05	3e-05	-3e-05	-0.0002	-0.00045	0.00023	-0.00032	-0.00054	6
24674	2e-05	3e-05	-3e-05	-0.0002	-0.00045	0.00023	-0.00032	-0.00054	6
24675	2e-05	3e-05	-3e-05	-0.0002	-0.00045	0.00023	-0.00032	-0.00054	6
24676	2e-05	3e-05	-3e-05	-0.0002	-0.00045	0.00023	-0.00032	-0.00054	6
24677	2e-05	3e-05	-3e-05	-0.0002	-0.00045	0.00023	-0.00032	-0.00054	6
24678	2e-05	3e-05	-3e-05	-0.0002	-0.00045	0.00023	-0.00032	-0.00054	6
24679	2e-05	3e-05	-3e-05	-0.0002	-0.00045	0.00023	-0.00032	-0.00054	6
24680	2e-05	3e-05	-3e-05	-0.0002	-0.00045	0.00023	-0.00032	-0.00054	6
24681	2e-05	3e-05	-3e-05	-0.0002	-0.00045	0.00023	-0.00032	-0.00054	6
24682	2e-05	3e-05	-3e-05	-0.0002	-0.00045	0.00023	-0.00032	-0.00054	6
24683	2e-05	3e-05	-3e-05	-0.0002	-0.00045	0.00023	-0.00032	-0.00054	6
24684	2e-05	3e-05	-3e-05	-0.0002	-0.00045	0.00023	-0.00032	-0.00054	6
24685	2e-05	3e-05	-3e-05	-0.0002	-0.00045	0.00023	-0.00032	-0.00054	6
24686	2e-05	3e-05	-3e-05	-0.0002	-0.00045	0.00023	-0.00032	-0.00054	6
24688	2e-05	3e-05	-3e-05	-0.0002	-0.00045	0.00023	-0.00032	-0.00054	6
24689	2e-05	3e-05	-3e-05	-0.0002	-0.00045	0.00023	-0.00032	-0.00054	6
24690	2e-05	3e-05	-3e-05	-0.0002	-0.00045	0.00023	-0.00032	-0.00054	6
24691	2e-05	3e-05	-3e-05	-0.0002	-0.00045	0.00023	-0.00032	-0.00054	6
24692	2e-05	3e-05	-3e-05	-0.0002	-0.00045	0.00023	-0.00032	-0.00054	6
24693	2e-05	3e-05	9e-05	0.00016	0.00077	0.00025	7e-05	0.00032	6
24694	-7e-05	-9e-05	-0.00014	-0.0002	-0.00071	-0.00094	-9e-05	-0.00033	6
24695	-7e-05	-9e-05	-0.00014	-0.0002	-0.00071	-0.00094	-9e-05	-0.00033	6
24696	-7e-05	-9e-05	-0.00014	-0.0002	-0.00071	-0.00094	-9e-05	-0.00033	6
24697	-7e-05	-9e-05	-0.00014	-0.0002	-0.00071	-0.00094	-9e-05	-0.00033	6
24698	-7e-05	-9e-05	-0.00014	-0.0002	-0.00071	-0.00094	-9e-05	-0.00033	6
24699	-7e-05	-9e-05	-0.00014	-0.0002	-0.00071	-0.00094	-9e-05	-0.00033	6
24700	-7e-05	-9e-05	-0.00014	-0.0002	-0.00071	-0.00094	-9e-05	-0.00033	6
24701	-7e-05	-9e-05	-0.00014	-0.0002	-0.00071	-0.00094	-9e-05	-0.00033	6
24702	-7e-05	-9e-05	-0.00014	-0.0002	-0.00071	-0.00094	-9e-05	-0.00033	6
24703	-7e-05	-9e-05	-0.00014	-0.0002	-0.00071	-0.00094	-9e-05	-0.00033	6
24704	-7e-05	-9e-05	-0.00014	-0.0002	-0.00071	-0.00094	-9e-05	-0.00033	6
24705	-7e-05	-9e-05	-0.00014	-0.0002	-0.00071	-0.00094	-9e-05	-0.00033	6
24706	-7e-05	-9e-05	-0.00014	-0.0002	-0.00071	-0.00094	-9e-05	-0.00033	6
24707	-7e-05	-9e-05	-0.00014	-0.0002	-0.00071	-0.00094	-9e-05	-0.00033	6
24708	-7e-05	-9e-05	-0.00014	-0.0002	-0.00071	-0.00094	-9e-05	-0.00033	6
24709	-7e-05	-9e-05	-0.00014	-0.0002	-0.00071	-0.00094	-9e-05	-0.00033	6
24710	-7e-05	-9e-05	-0.00014	-0.0002	-0.00071	-0.00094	-9e-05	-0.00033	6
24711	-7e-05	-9e-05	-0.00014	-0.0002	-0.00071	-0.00094	-9e-05	-0.00033	6
24712	-7e-05	-9e-05	-0.00014	-0.0002	-0.00071	-0.00094	-9e-05	-0.00033	6
24713	-7e-05	-9e-05	-0.00014	-0.0002	-0.00071	-0.00094	-9e-05	-0.00033	6
24714	-7e-05	-9e-05	-0.00014	-0.0002	-0.00071	-0.00094	-9e-05	-0.00033	6
24715	-7e-05	-9e-05	-0.00014	-0.0002	-0.00071	-0.00094	-9e-05	-0.00033	6
24716	0.0002	2e-05	2e-05	-3e-05	-0.00065	-0.00045	-0.00022	0.00019	6
24717	1e-05	-2e-05	-6e-05	-0.00019	-0.00017	0.00023	-0.00014	3e-05	6
24718	1e-05	-2e-05	-6e-05	-0.00019	-0.00017	0.00023	-0.00014	3e-05	6
24719	1e-05	-2e-05	-6e-05	-0.00019	-0.00017	0.00023	-0.00014	3e-05	6
24720	1e-05	-2e-05	-6e-05	-0.00019	-0.00017	0.00023	-0.00014	3e-05	6
24721	1e-05	-2e-05	-6e-05	-0.00019	-0.00017	0.00023	-0.00014	3e-05	6
24722	1e-05	-2e-05	-6e-05	-0.00019	-0.00017	0.00023	-0.00014	3e-05	6
24723	1e-05	-2e-05	-6e-05	-0.00019	-0.00017	0.00023	-0.00014	3e-05	6
24724	1e-05	-2e-05	-6e-05	-0.00019	-0.00017	0.00023	-0.00014	3e-05	6
24725	1e-05	-2e-05	-6e-05	-0.00019	-0.00017	0.00023	-0.00014	3e-05	6
24726	1e-05	-2e-05	-6e-05	-0.00019	-0.00017	0.00023	-0.00014	3e-05	6
24727	1e-05	-2e-05	-6e-05	-0.00019	-0.00017	0.00023	-0.00014	3e-05	6
24728	1e-05	-2e-05	-6e-05	-0.00019	-0.00017	0.00023	-0.00014	3e-05	6
24729	1e-05	-2e-05	-6e-05	-0.00019	-0.00017	0.00023	-0.00014	3e-05	6
24730	0.00026	5e-05	5e-05	8e-05	8e-05	0.00012	0.00043	0.00111	6
24731	4e-05	-2e-05	1e-05	0	0.00016	0.00019	0.00021	0.00022	6
24732	4e-05	-2e-05	1e-05	0	0.00016	0.00019	0.00021	0.00022	6
24733	4e-05	-2e-05	1e-05	0	0.00016	0.00019	0.00021	0.00022	6
24734	4e-05	-2e-05	1e-05	0	0.00016	0.00019	0.00021	0.00022	6
24735	4e-05	-2e-05	1e-05	0	0.00016	0.00019	0.00021	0.00022	6
24736	4e-05	-2e-05	1e-05	0	0.00016	0.00019	0.00021	0.00022	6
24738	4e-05	-2e-05	1e-05	0	0.00016	0.00019	0.00021	0.00022	6
24739	4e-05	-2e-05	1e-05	0	0.00016	0.00019	0.00021	0.00022	6
24740	4e-05	-2e-05	1e-05	0	0.00016	0.00019	0.00021	0.00022	6
24741	4e-05	-2e-05	1e-05	0	0.00016	0.00019	0.00021	0.00022	6
24742	4e-05	-2e-05	1e-05	0	0.00016	0.00019	0.00021	0.00022	6
24743	4e-05	-2e-05	1e-05	0	0.00016	0.00019	0.00021	0.00022	6
24744	4e-05	-2e-05	1e-05	0	0.00016	0.00019	0.00021	0.00022	6
24745	4e-05	-2e-05	1e-05	0	0.00016	0.00019	0.00021	0.00022	6
24746	4e-05	-2e-05	1e-05	0	0.00016	0.00019	0.00021	0.00022	6
24747	4e-05	-2e-05	1e-05	0	0.00016	0.00019	0.00021	0.00022	6
24748	4e-05	-2e-05	1e-05	0	0.00016	0.00019	0.00021	0.00022	6
24749	4e-05	-2e-05	1e-05	0	0.00016	0.00019	0.00021	0.00022	6
24750	4e-05	-2e-05	1e-05	0	0.00016	0.00019	0.00021	0.00022	6
24751	4e-05	-2e-05	1e-05	0	0.00016	0.00019	0.00021	0.00022	6
24752	4e-05	-2e-05	1e-05	0	0.00016	0.00019	0.00021	0.00022	6
24753	-8e-05	-2e-05	-2e-05	-1e-05	-0.0001	0.00022	-4e-05	-0.00034	6
24754	0.00018	2e-05	3e-05	0.00012	0.00068	0.00018	5e-05	0.00044	6
24755	0.00018	2e-05	3e-05	0.00012	0.00068	0.00018	5e-05	0.00044	6
24756	0.00018	2e-05	3e-05	0.00012	0.00068	0.00018	5e-05	0.00044	6
24757	0.00018	2e-05	3e-05	0.00012	0.00068	0.00018	5e-05	0.00044	6
24758	0.00018	2e-05	3e-05	0.00012	0.00068	0.00018	5e-05	0.00044	6
24759	0.00018	2e-05	3e-05	0.00012	0.00068	0.00018	5e-05	0.00044	6
24760	0.00018	2e-05	3e-05	0.00012	0.00068	0.00018	5e-05	0.00044	6
24761	0.00018	2e-05	3e-05	0.00012	0.00068	0.00018	5e-05	0.00044	6
24762	0.00018	2e-05	3e-05	0.00012	0.00068	0.00018	5e-05	0.00044	6
24763	0.00018	2e-05	3e-05	0.00012	0.00068	0.00018	5e-05	0.00044	6
24764	0.00018	2e-05	3e-05	0.00012	0.00068	0.00018	5e-05	0.00044	6
24765	0.00018	2e-05	3e-05	0.00012	0.00068	0.00018	5e-05	0.00044	6
24766	0.00018	2e-05	3e-05	0.00012	0.00068	0.00018	5e-05	0.00044	6
24767	0.00018	2e-05	3e-05	0.00012	0.00068	0.00018	5e-05	0.00044	6
24768	0.00018	2e-05	3e-05	0.00012	0.00068	0.00018	5e-05	0.00044	6
24769	0.00018	2e-05	3e-05	0.00012	0.00068	0.00018	5e-05	0.00044	6
24770	0.00018	2e-05	3e-05	0.00012	0.00068	0.00018	5e-05	0.00044	6
24771	0.00018	2e-05	3e-05	0.00012	0.00068	0.00018	5e-05	0.00044	6
24772	0.00018	2e-05	3e-05	0.00012	0.00068	0.00018	5e-05	0.00044	6
24773	0.00018	2e-05	3e-05	0.00012	0.00068	0.00018	5e-05	0.00044	6
24774	0.00018	2e-05	3e-05	0.00012	0.00068	0.00018	5e-05	0.00044	6
24775	0.00018	2e-05	3e-05	0.00012	0.00068	0.00018	5e-05	0.00044	6
24776	-0.00012	-8e-05	-8e-05	-0.00018	-0.0008	-0.00052	-0.00044	6e-05	6
24777	-4e-05	-7e-05	-5e-05	-9e-05	-0.00063	-0.00061	-0.00014	0.00018	6
24778	-4e-05	-7e-05	-5e-05	-9e-05	-0.00063	-0.00061	-0.00014	0.00018	6
24779	-4e-05	-7e-05	-5e-05	-9e-05	-0.00063	-0.00061	-0.00014	0.00018	6
24780	-4e-05	-7e-05	-5e-05	-9e-05	-0.00063	-0.00061	-0.00014	0.00018	6
24781	-4e-05	-7e-05	-5e-05	-9e-05	-0.00063	-0.00061	-0.00014	0.00018	6
24782	-4e-05	-7e-05	-5e-05	-9e-05	-0.00063	-0.00061	-0.00014	0.00018	6
24783	-4e-05	-7e-05	-5e-05	-9e-05	-0.00063	-0.00061	-0.00014	0.00018	6
24784	-4e-05	-7e-05	-5e-05	-9e-05	-0.00063	-0.00061	-0.00014	0.00018	6
24785	-4e-05	-7e-05	-5e-05	-9e-05	-0.00063	-0.00061	-0.00014	0.00018	6
24786	-4e-05	-7e-05	-5e-05	-9e-05	-0.00063	-0.00061	-0.00014	0.00018	6
24788	-4e-05	-7e-05	-5e-05	-9e-05	-0.00063	-0.00061	-0.00014	0.00018	6
24789	-4e-05	-7e-05	-5e-05	-9e-05	-0.00063	-0.00061	-0.00014	0.00018	6
24790	-8e-05	-2e-05	0	-1e-05	0.00016	8e-05	-0.00019	-4e-05	6
24791	-6e-05	-2e-05	-2e-05	-2e-05	-0.0002	-0.00036	4e-05	-0.00039	6
24792	-6e-05	-2e-05	-2e-05	-2e-05	-0.0002	-0.00036	4e-05	-0.00039	6
24793	-6e-05	-2e-05	-2e-05	-2e-05	-0.0002	-0.00036	4e-05	-0.00039	6
24794	-6e-05	-2e-05	-2e-05	-2e-05	-0.0002	-0.00036	4e-05	-0.00039	6
24795	-6e-05	-2e-05	-2e-05	-2e-05	-0.0002	-0.00036	4e-05	-0.00039	6
24796	-6e-05	-2e-05	-2e-05	-2e-05	-0.0002	-0.00036	4e-05	-0.00039	6
24797	-6e-05	-2e-05	-2e-05	-2e-05	-0.0002	-0.00036	4e-05	-0.00039	6
24798	-6e-05	-2e-05	-2e-05	-2e-05	-0.0002	-0.00036	4e-05	-0.00039	6
24799	-6e-05	-2e-05	-2e-05	-2e-05	-0.0002	-0.00036	4e-05	-0.00039	6
24800	-6e-05	-2e-05	-2e-05	-2e-05	-0.0002	-0.00036	4e-05	-0.00039	6
24801	-6e-05	-2e-05	-2e-05	-2e-05	-0.0002	-0.00036	4e-05	-0.00039	6
24802	-6e-05	-2e-05	-2e-05	-2e-05	-0.0002	-0.00036	4e-05	-0.00039	6
24803	-6e-05	-2e-05	-2e-05	-2e-05	-0.0002	-0.00036	4e-05	-0.00039	6
24804	-6e-05	-2e-05	-2e-05	-2e-05	-0.0002	-0.00036	4e-05	-0.00039	6
24805	-6e-05	-2e-05	-2e-05	-2e-05	-0.0002	-0.00036	4e-05	-0.00039	6
24806	-6e-05	-2e-05	-2e-05	-2e-05	-0.0002	-0.00036	4e-05	-0.00039	6
24807	-6e-05	-2e-05	-2e-05	-2e-05	-0.0002	-0.00036	4e-05	-0.00039	6
24808	-6e-05	-2e-05	-2e-05	-2e-05	-0.0002	-0.00036	4e-05	-0.00039	6
24809	-6e-05	-2e-05	-2e-05	-2e-05	-0.0002	-0.00036	4e-05	-0.00039	6
24810	-6e-05	-2e-05	-2e-05	-2e-05	-0.0002	-0.00036	4e-05	-0.00039	6
24811	-6e-05	-2e-05	-2e-05	-2e-05	-0.0002	-0.00036	4e-05	-0.00039	6
24812	-6e-05	-2e-05	-2e-05	-2e-05	-0.0002	-0.00036	4e-05	-0.00039	6
24813	0.0001	4e-05	-1e-05	0	5e-05	-0.00034	9e-05	-0.0004	6
24814	1e-05	2e-05	7e-05	0.00032	0.00115	-5e-05	0.00013	-8e-05	6
24815	1e-05	2e-05	7e-05	0.00032	0.00115	-5e-05	0.00013	-8e-05	6
24816	1e-05	2e-05	7e-05	0.00032	0.00115	-5e-05	0.00013	-8e-05	6
24817	1e-05	2e-05	7e-05	0.00032	0.00115	-5e-05	0.00013	-8e-05	6
24818	1e-05	2e-05	7e-05	0.00032	0.00115	-5e-05	0.00013	-8e-05	6
24819	1e-05	2e-05	7e-05	0.00032	0.00115	-5e-05	0.00013	-8e-05	6
24820	1e-05	2e-05	7e-05	0.00032	0.00115	-5e-05	0.00013	-8e-05	6
24821	1e-05	2e-05	7e-05	0.00032	0.00115	-5e-05	0.00013	-8e-05	6
24822	1e-05	2e-05	7e-05	0.00032	0.00115	-5e-05	0.00013	-8e-05	6
24823	1e-05	2e-05	7e-05	0.00032	0.00115	-5e-05	0.00013	-8e-05	6
24824	1e-05	2e-05	7e-05	0.00032	0.00115	-5e-05	0.00013	-8e-05	6
24825	1e-05	2e-05	7e-05	0.00032	0.00115	-5e-05	0.00013	-8e-05	6
24826	1e-05	2e-05	7e-05	0.00032	0.00115	-5e-05	0.00013	-8e-05	6
24827	1e-05	2e-05	7e-05	0.00032	0.00115	-5e-05	0.00013	-8e-05	6
24828	1e-05	2e-05	7e-05	0.00032	0.00115	-5e-05	0.00013	-8e-05	6
24829	1e-05	2e-05	7e-05	0.00032	0.00115	-5e-05	0.00013	-8e-05	6
24830	1e-05	2e-05	7e-05	0.00032	0.00115	-5e-05	0.00013	-8e-05	6
24831	1e-05	2e-05	7e-05	0.00032	0.00115	-5e-05	0.00013	-8e-05	6
24832	1e-05	2e-05	7e-05	0.00032	0.00115	-5e-05	0.00013	-8e-05	6
24833	1e-05	2e-05	7e-05	0.00032	0.00115	-5e-05	0.00013	-8e-05	6
24834	1e-05	2e-05	7e-05	0.00032	0.00115	-5e-05	0.00013	-8e-05	6
24835	1e-05	2e-05	7e-05	0.00032	0.00115	-5e-05	0.00013	-8e-05	6
24836	-0.00011	-4e-05	2e-05	7e-05	0.0001	-0.0009	5e-05	-6e-05	6
24838	-0.00015	-8e-05	-0.0002	-0.00027	-0.00053	0.00022	0.00025	-3e-05	6
24839	-0.00015	-8e-05	-0.0002	-0.00027	-0.00053	0.00022	0.00025	-3e-05	6
24840	-0.00015	-8e-05	-0.0002	-0.00027	-0.00053	0.00022	0.00025	-3e-05	6
24841	-0.00015	-8e-05	-0.0002	-0.00027	-0.00053	0.00022	0.00025	-3e-05	6
24842	-0.00015	-8e-05	-0.0002	-0.00027	-0.00053	0.00022	0.00025	-3e-05	6
24843	-0.00015	-8e-05	-0.0002	-0.00027	-0.00053	0.00022	0.00025	-3e-05	6
24844	-0.00015	-8e-05	-0.0002	-0.00027	-0.00053	0.00022	0.00025	-3e-05	6
24845	-0.00015	-8e-05	-0.0002	-0.00027	-0.00053	0.00022	0.00025	-3e-05	6
24846	-0.00015	-8e-05	-0.0002	-0.00027	-0.00053	0.00022	0.00025	-3e-05	6
24847	-0.00015	-8e-05	-0.0002	-0.00027	-0.00053	0.00022	0.00025	-3e-05	6
24848	-0.00015	-8e-05	-0.0002	-0.00027	-0.00053	0.00022	0.00025	-3e-05	6
24849	-0.00015	-8e-05	-0.0002	-0.00027	-0.00053	0.00022	0.00025	-3e-05	6
24850	5e-05	6e-05	0.00013	0.00044	0.00097	6e-05	0.00047	-1e-05	6
24851	-2e-05	-5e-05	-1e-05	-6e-05	-0.00076	9e-05	0.00015	0.00031	6
24852	-2e-05	-5e-05	-1e-05	-6e-05	-0.00076	9e-05	0.00015	0.00031	6
24853	-2e-05	-5e-05	-1e-05	-6e-05	-0.00076	9e-05	0.00015	0.00031	6
24854	-2e-05	-5e-05	-1e-05	-6e-05	-0.00076	9e-05	0.00015	0.00031	6
24855	-2e-05	-5e-05	-1e-05	-6e-05	-0.00076	9e-05	0.00015	0.00031	6
24856	-2e-05	-5e-05	-1e-05	-6e-05	-0.00076	9e-05	0.00015	0.00031	6
24857	-2e-05	-5e-05	-1e-05	-6e-05	-0.00076	9e-05	0.00015	0.00031	6
24858	-2e-05	-5e-05	-1e-05	-6e-05	-0.00076	9e-05	0.00015	0.00031	6
24859	-2e-05	-5e-05	-1e-05	-6e-05	-0.00076	9e-05	0.00015	0.00031	6
24860	-2e-05	-5e-05	-1e-05	-6e-05	-0.00076	9e-05	0.00015	0.00031	6
24861	-2e-05	-5e-05	-1e-05	-6e-05	-0.00076	9e-05	0.00015	0.00031	6
24862	-2e-05	-5e-05	-1e-05	-6e-05	-0.00076	9e-05	0.00015	0.00031	6
24863	-2e-05	-5e-05	-1e-05	-6e-05	-0.00076	9e-05	0.00015	0.00031	6
24864	-2e-05	-5e-05	-1e-05	-6e-05	-0.00076	9e-05	0.00015	0.00031	6
24865	-2e-05	-5e-05	-1e-05	-6e-05	-0.00076	9e-05	0.00015	0.00031	6
24866	-2e-05	-5e-05	-1e-05	-6e-05	-0.00076	9e-05	0.00015	0.00031	6
24867	-2e-05	-5e-05	-1e-05	-6e-05	-0.00076	9e-05	0.00015	0.00031	6
24868	-2e-05	-5e-05	-1e-05	-6e-05	-0.00076	9e-05	0.00015	0.00031	6
24869	-2e-05	-5e-05	-1e-05	-6e-05	-0.00076	9e-05	0.00015	0.00031	6
24870	-2e-05	-5e-05	-1e-05	-6e-05	-0.00076	9e-05	0.00015	0.00031	6
24871	-2e-05	-5e-05	-1e-05	-6e-05	-0.00076	9e-05	0.00015	0.00031	6
24872	-2e-05	-5e-05	-1e-05	-6e-05	-0.00076	9e-05	0.00015	0.00031	6
24873	-3e-05	-4e-05	-8e-05	-0.0002	-0.00031	0.00019	-0.00018	-5e-05	6
24874	-0.00015	1e-05	5e-05	1e-05	0.00032	0	0.00016	-0.00067	6
24875	-0.00015	1e-05	5e-05	1e-05	0.00032	0	0.00016	-0.00067	6
24876	-0.00015	1e-05	5e-05	1e-05	0.00032	0	0.00016	-0.00067	6
24877	-0.00015	1e-05	5e-05	1e-05	0.00032	0	0.00016	-0.00067	6
24878	-0.00015	1e-05	5e-05	1e-05	0.00032	0	0.00016	-0.00067	6
24879	-0.00015	1e-05	5e-05	1e-05	0.00032	0	0.00016	-0.00067	6
24880	-0.00015	1e-05	5e-05	1e-05	0.00032	0	0.00016	-0.00067	6
24881	-0.00015	1e-05	5e-05	1e-05	0.00032	0	0.00016	-0.00067	6
24882	-0.00015	1e-05	5e-05	1e-05	0.00032	0	0.00016	-0.00067	6
24883	-0.00015	1e-05	5e-05	1e-05	0.00032	0	0.00016	-0.00067	6
24884	-0.00015	1e-05	5e-05	1e-05	0.00032	0	0.00016	-0.00067	6
24885	-0.00015	1e-05	5e-05	1e-05	0.00032	0	0.00016	-0.00067	6
24886	-0.00015	1e-05	5e-05	1e-05	0.00032	0	0.00016	-0.00067	6
24888	-0.00015	1e-05	5e-05	1e-05	0.00032	0	0.00016	-0.00067	6
24889	-0.00015	1e-05	5e-05	1e-05	0.00032	0	0.00016	-0.00067	6
24890	-0.00015	1e-05	5e-05	1e-05	0.00032	0	0.00016	-0.00067	6
24892	-0.00015	1e-05	5e-05	1e-05	0.00032	0	0.00016	-0.00067	6
24893	-0.00015	1e-05	5e-05	1e-05	0.00032	0	0.00016	-0.00067	6
24894	-0.00015	1e-05	5e-05	1e-05	0.00032	0	0.00016	-0.00067	6
24895	-0.00015	1e-05	5e-05	1e-05	0.00032	0	0.00016	-0.00067	6
24896	1e-05	3e-05	0.00014	0.00015	-2e-05	0.00041	-6e-05	0.00018	6
24897	-6e-05	-1e-05	-5e-05	-0.00028	-0.00075	-0.00012	-0.00013	-0.0001	6
24898	-6e-05	-1e-05	-5e-05	-0.00028	-0.00075	-0.00012	-0.00013	-0.0001	6
24899	-6e-05	-1e-05	-5e-05	-0.00028	-0.00075	-0.00012	-0.00013	-0.0001	6
24900	-6e-05	-1e-05	-5e-05	-0.00028	-0.00075	-0.00012	-0.00013	-0.0001	6
24901	-6e-05	-1e-05	-5e-05	-0.00028	-0.00075	-0.00012	-0.00013	-0.0001	6
24902	-6e-05	-1e-05	-5e-05	-0.00028	-0.00075	-0.00012	-0.00013	-0.0001	6
24903	-6e-05	-1e-05	-5e-05	-0.00028	-0.00075	-0.00012	-0.00013	-0.0001	6
24904	-6e-05	-1e-05	-5e-05	-0.00028	-0.00075	-0.00012	-0.00013	-0.0001	6
24905	-6e-05	-1e-05	-5e-05	-0.00028	-0.00075	-0.00012	-0.00013	-0.0001	6
24906	-6e-05	-1e-05	-5e-05	-0.00028	-0.00075	-0.00012	-0.00013	-0.0001	6
24907	-6e-05	-1e-05	-5e-05	-0.00028	-0.00075	-0.00012	-0.00013	-0.0001	6
24908	-6e-05	-1e-05	-5e-05	-0.00028	-0.00075	-0.00012	-0.00013	-0.0001	6
24909	-6e-05	-1e-05	-5e-05	-0.00028	-0.00075	-0.00012	-0.00013	-0.0001	6
24910	-4e-05	-3e-05	-1e-05	2e-05	-0.00049	0.00052	3e-05	0.00012	6
24911	5e-05	-2e-05	-4e-05	-0.00014	-0.00076	-1e-05	-0.00035	0.00015	6
24912	5e-05	-2e-05	-4e-05	-0.00014	-0.00076	-1e-05	-0.00035	0.00015	6
24913	5e-05	-2e-05	-4e-05	-0.00014	-0.00076	-1e-05	-0.00035	0.00015	6
24914	5e-05	-2e-05	-4e-05	-0.00014	-0.00076	-1e-05	-0.00035	0.00015	6
24915	5e-05	-2e-05	-4e-05	-0.00014	-0.00076	-1e-05	-0.00035	0.00015	6
24916	5e-05	-2e-05	-4e-05	-0.00014	-0.00076	-1e-05	-0.00035	0.00015	6
24917	5e-05	-2e-05	-4e-05	-0.00014	-0.00076	-1e-05	-0.00035	0.00015	6
24918	5e-05	-2e-05	-4e-05	-0.00014	-0.00076	-1e-05	-0.00035	0.00015	6
24919	5e-05	-2e-05	-4e-05	-0.00014	-0.00076	-1e-05	-0.00035	0.00015	6
24920	5e-05	-2e-05	-4e-05	-0.00014	-0.00076	-1e-05	-0.00035	0.00015	6
24921	5e-05	-2e-05	-4e-05	-0.00014	-0.00076	-1e-05	-0.00035	0.00015	6
24922	5e-05	-2e-05	-4e-05	-0.00014	-0.00076	-1e-05	-0.00035	0.00015	6
24923	5e-05	-2e-05	-4e-05	-0.00014	-0.00076	-1e-05	-0.00035	0.00015	6
24924	5e-05	-2e-05	-4e-05	-0.00014	-0.00076	-1e-05	-0.00035	0.00015	6
24925	5e-05	-2e-05	-4e-05	-0.00014	-0.00076	-1e-05	-0.00035	0.00015	6
24926	5e-05	-2e-05	-4e-05	-0.00014	-0.00076	-1e-05	-0.00035	0.00015	6
24927	5e-05	-2e-05	-4e-05	-0.00014	-0.00076	-1e-05	-0.00035	0.00015	6
24928	5e-05	-2e-05	-4e-05	-0.00014	-0.00076	-1e-05	-0.00035	0.00015	6
24929	5e-05	-2e-05	-4e-05	-0.00014	-0.00076	-1e-05	-0.00035	0.00015	6
24930	5e-05	-2e-05	-4e-05	-0.00014	-0.00076	-1e-05	-0.00035	0.00015	6
24931	5e-05	-2e-05	-4e-05	-0.00014	-0.00076	-1e-05	-0.00035	0.00015	6
24932	5e-05	-2e-05	-4e-05	-0.00014	-0.00076	-1e-05	-0.00035	0.00015	6
24933	1e-05	-2e-05	-5e-05	-5e-05	-6e-05	-0.00043	0	-0.00016	6
24934	-4e-05	4e-05	0	-6e-05	-0.00018	0.00013	-0.00036	-0.00034	6
24935	-4e-05	4e-05	0	-6e-05	-0.00018	0.00013	-0.00036	-0.00034	6
24936	-4e-05	4e-05	0	-6e-05	-0.00018	0.00013	-0.00036	-0.00034	6
24939	-4e-05	4e-05	0	-6e-05	-0.00018	0.00013	-0.00036	-0.00034	6
24940	-4e-05	4e-05	0	-6e-05	-0.00018	0.00013	-0.00036	-0.00034	6
24941	-4e-05	4e-05	0	-6e-05	-0.00018	0.00013	-0.00036	-0.00034	6
24942	-4e-05	4e-05	0	-6e-05	-0.00018	0.00013	-0.00036	-0.00034	6
24943	-4e-05	4e-05	0	-6e-05	-0.00018	0.00013	-0.00036	-0.00034	6
24944	-4e-05	4e-05	0	-6e-05	-0.00018	0.00013	-0.00036	-0.00034	6
24945	-4e-05	4e-05	0	-6e-05	-0.00018	0.00013	-0.00036	-0.00034	6
24946	-4e-05	4e-05	0	-6e-05	-0.00018	0.00013	-0.00036	-0.00034	6
24947	-4e-05	4e-05	0	-6e-05	-0.00018	0.00013	-0.00036	-0.00034	6
24948	-4e-05	4e-05	0	-6e-05	-0.00018	0.00013	-0.00036	-0.00034	6
24949	-4e-05	4e-05	0	-6e-05	-0.00018	0.00013	-0.00036	-0.00034	6
24950	-4e-05	4e-05	0	-6e-05	-0.00018	0.00013	-0.00036	-0.00034	6
24951	-4e-05	4e-05	0	-6e-05	-0.00018	0.00013	-0.00036	-0.00034	6
24952	-4e-05	4e-05	0	-6e-05	-0.00018	0.00013	-0.00036	-0.00034	6
24953	-4e-05	4e-05	0	-6e-05	-0.00018	0.00013	-0.00036	-0.00034	6
24954	-4e-05	4e-05	0	-6e-05	-0.00018	0.00013	-0.00036	-0.00034	6
24955	-4e-05	4e-05	0	-6e-05	-0.00018	0.00013	-0.00036	-0.00034	6
24956	6e-05	0	4e-05	0.00014	0.00012	0.00031	0.00021	0.00029	6
24957	6e-05	0	4e-05	0.00014	0.00012	0.00031	0.00021	0.00029	6
24958	6e-05	0	4e-05	0.00014	0.00012	0.00031	0.00021	0.00029	6
24959	6e-05	0	4e-05	0.00014	0.00012	0.00031	0.00021	0.00029	6
24960	6e-05	0	4e-05	0.00014	0.00012	0.00031	0.00021	0.00029	6
24961	6e-05	0	4e-05	0.00014	0.00012	0.00031	0.00021	0.00029	6
24962	6e-05	0	4e-05	0.00014	0.00012	0.00031	0.00021	0.00029	6
24963	6e-05	0	4e-05	0.00014	0.00012	0.00031	0.00021	0.00029	6
24964	6e-05	0	4e-05	0.00014	0.00012	0.00031	0.00021	0.00029	6
24965	6e-05	0	4e-05	0.00014	0.00012	0.00031	0.00021	0.00029	6
24966	6e-05	0	4e-05	0.00014	0.00012	0.00031	0.00021	0.00029	6
24967	6e-05	0	4e-05	0.00014	0.00012	0.00031	0.00021	0.00029	6
24968	6e-05	0	4e-05	0.00014	0.00012	0.00031	0.00021	0.00029	6
24969	6e-05	0	4e-05	0.00014	0.00012	0.00031	0.00021	0.00029	6
24970	-0.00014	-1e-05	-8e-05	-0.00012	-1e-05	-0.00014	-0.00025	0.00027	6
24971	0.00014	1e-05	5e-05	0.00011	8e-05	-0.00054	0.0001	0.00027	6
24972	0.00014	1e-05	5e-05	0.00011	8e-05	-0.00054	0.0001	0.00027	6
24973	0.00014	1e-05	5e-05	0.00011	8e-05	-0.00054	0.0001	0.00027	6
24974	0.00014	1e-05	5e-05	0.00011	8e-05	-0.00054	0.0001	0.00027	6
24975	0.00014	1e-05	5e-05	0.00011	8e-05	-0.00054	0.0001	0.00027	6
24976	0.00014	1e-05	5e-05	0.00011	8e-05	-0.00054	0.0001	0.00027	6
24977	0.00014	1e-05	5e-05	0.00011	8e-05	-0.00054	0.0001	0.00027	6
24978	0.00014	1e-05	5e-05	0.00011	8e-05	-0.00054	0.0001	0.00027	6
24979	0.00014	1e-05	5e-05	0.00011	8e-05	-0.00054	0.0001	0.00027	6
24980	0.00014	1e-05	5e-05	0.00011	8e-05	-0.00054	0.0001	0.00027	6
24981	0.00014	1e-05	5e-05	0.00011	8e-05	-0.00054	0.0001	0.00027	6
24982	0.00014	1e-05	5e-05	0.00011	8e-05	-0.00054	0.0001	0.00027	6
24983	0.00014	1e-05	5e-05	0.00011	8e-05	-0.00054	0.0001	0.00027	6
24984	0.00014	1e-05	5e-05	0.00011	8e-05	-0.00054	0.0001	0.00027	6
24985	0.00014	1e-05	5e-05	0.00011	8e-05	-0.00054	0.0001	0.00027	6
24986	0.00014	1e-05	5e-05	0.00011	8e-05	-0.00054	0.0001	0.00027	6
24988	0.00014	1e-05	5e-05	0.00011	8e-05	-0.00054	0.0001	0.00027	6
24989	0.00014	1e-05	5e-05	0.00011	8e-05	-0.00054	0.0001	0.00027	6
24990	0.00014	1e-05	5e-05	0.00011	8e-05	-0.00054	0.0001	0.00027	6
24991	0.00014	1e-05	5e-05	0.00011	8e-05	-0.00054	0.0001	0.00027	6
24992	0.00014	1e-05	5e-05	0.00011	8e-05	-0.00054	0.0001	0.00027	6
24993	3e-05	-3e-05	-1e-05	4e-05	-0.00012	0.00031	9e-05	0.00024	6
24994	0.00016	2e-05	3e-05	0.0001	-0.00019	6e-05	-2e-05	0.00073	6
24995	0.00016	2e-05	3e-05	0.0001	-0.00019	6e-05	-2e-05	0.00073	6
24996	0.00016	2e-05	3e-05	0.0001	-0.00019	6e-05	-2e-05	0.00073	6
24997	0.00016	2e-05	3e-05	0.0001	-0.00019	6e-05	-2e-05	0.00073	6
24998	0.00016	2e-05	3e-05	0.0001	-0.00019	6e-05	-2e-05	0.00073	6
24999	0.00016	2e-05	3e-05	0.0001	-0.00019	6e-05	-2e-05	0.00073	6
25000	0.00016	2e-05	3e-05	0.0001	-0.00019	6e-05	-2e-05	0.00073	6
25001	0.00016	2e-05	3e-05	0.0001	-0.00019	6e-05	-2e-05	0.00073	6
25002	0.00016	2e-05	3e-05	0.0001	-0.00019	6e-05	-2e-05	0.00073	6
25003	0.00016	2e-05	3e-05	0.0001	-0.00019	6e-05	-2e-05	0.00073	6
25004	0.00016	2e-05	3e-05	0.0001	-0.00019	6e-05	-2e-05	0.00073	6
25005	0.00016	2e-05	3e-05	0.0001	-0.00019	6e-05	-2e-05	0.00073	6
25006	0.00016	2e-05	3e-05	0.0001	-0.00019	6e-05	-2e-05	0.00073	6
25007	0.00016	2e-05	3e-05	0.0001	-0.00019	6e-05	-2e-05	0.00073	6
25008	0.00016	2e-05	3e-05	0.0001	-0.00019	6e-05	-2e-05	0.00073	6
25009	0.00016	2e-05	3e-05	0.0001	-0.00019	6e-05	-2e-05	0.00073	6
25010	0.00016	2e-05	3e-05	0.0001	-0.00019	6e-05	-2e-05	0.00073	6
25011	0.00016	2e-05	3e-05	0.0001	-0.00019	6e-05	-2e-05	0.00073	6
25012	0.00016	2e-05	3e-05	0.0001	-0.00019	6e-05	-2e-05	0.00073	6
25013	0.00016	2e-05	3e-05	0.0001	-0.00019	6e-05	-2e-05	0.00073	6
25014	0.00016	2e-05	3e-05	0.0001	-0.00019	6e-05	-2e-05	0.00073	6
25015	0.00016	2e-05	3e-05	0.0001	-0.00019	6e-05	-2e-05	0.00073	6
25016	-0.00024	-7e-05	-0.00013	-0.0003	-0.00057	-0.00027	-0.00055	-0.00042	6
25017	-2e-05	-1e-05	1e-05	0.00016	0.00099	0.00031	-0.00026	2e-05	6
25018	-2e-05	-1e-05	1e-05	0.00016	0.00099	0.00031	-0.00026	2e-05	6
25019	-2e-05	-1e-05	1e-05	0.00016	0.00099	0.00031	-0.00026	2e-05	6
25020	-2e-05	-1e-05	1e-05	0.00016	0.00099	0.00031	-0.00026	2e-05	6
25021	-2e-05	-1e-05	1e-05	0.00016	0.00099	0.00031	-0.00026	2e-05	6
25022	-2e-05	-1e-05	1e-05	0.00016	0.00099	0.00031	-0.00026	2e-05	6
25023	-2e-05	-1e-05	1e-05	0.00016	0.00099	0.00031	-0.00026	2e-05	6
25024	-2e-05	-1e-05	1e-05	0.00016	0.00099	0.00031	-0.00026	2e-05	6
25025	-2e-05	-1e-05	1e-05	0.00016	0.00099	0.00031	-0.00026	2e-05	6
25026	-2e-05	-1e-05	1e-05	0.00016	0.00099	0.00031	-0.00026	2e-05	6
25027	-2e-05	-1e-05	1e-05	0.00016	0.00099	0.00031	-0.00026	2e-05	6
25028	-2e-05	-1e-05	1e-05	0.00016	0.00099	0.00031	-0.00026	2e-05	6
25029	-2e-05	-1e-05	1e-05	0.00016	0.00099	0.00031	-0.00026	2e-05	6
25030	-0.00019	-2e-05	-8e-05	-5e-05	0.00011	0.00027	0.00046	-0.00084	6
25031	2e-05	-3e-05	-3e-05	-5e-05	-0.00014	-3e-05	0.00014	-0.00015	6
25033	2e-05	-3e-05	-3e-05	-5e-05	-0.00014	-3e-05	0.00014	-0.00015	6
25034	2e-05	-3e-05	-3e-05	-5e-05	-0.00014	-3e-05	0.00014	-0.00015	6
25035	2e-05	-3e-05	-3e-05	-5e-05	-0.00014	-3e-05	0.00014	-0.00015	6
25036	2e-05	-3e-05	-3e-05	-5e-05	-0.00014	-3e-05	0.00014	-0.00015	6
25038	2e-05	-3e-05	-3e-05	-5e-05	-0.00014	-3e-05	0.00014	-0.00015	6
25039	2e-05	-3e-05	-3e-05	-5e-05	-0.00014	-3e-05	0.00014	-0.00015	6
25040	2e-05	-3e-05	-3e-05	-5e-05	-0.00014	-3e-05	0.00014	-0.00015	6
25041	2e-05	-3e-05	-3e-05	-5e-05	-0.00014	-3e-05	0.00014	-0.00015	6
25042	2e-05	-3e-05	-3e-05	-5e-05	-0.00014	-3e-05	0.00014	-0.00015	6
25043	2e-05	-3e-05	-3e-05	-5e-05	-0.00014	-3e-05	0.00014	-0.00015	6
25044	2e-05	-3e-05	-3e-05	-5e-05	-0.00014	-3e-05	0.00014	-0.00015	6
25045	2e-05	-3e-05	-3e-05	-5e-05	-0.00014	-3e-05	0.00014	-0.00015	6
25046	2e-05	-3e-05	-3e-05	-5e-05	-0.00014	-3e-05	0.00014	-0.00015	6
25047	2e-05	-3e-05	-3e-05	-5e-05	-0.00014	-3e-05	0.00014	-0.00015	6
25048	2e-05	-3e-05	-3e-05	-5e-05	-0.00014	-3e-05	0.00014	-0.00015	6
25049	2e-05	-3e-05	-3e-05	-5e-05	-0.00014	-3e-05	0.00014	-0.00015	6
25050	2e-05	-3e-05	-3e-05	-5e-05	-0.00014	-3e-05	0.00014	-0.00015	6
25051	2e-05	-3e-05	-3e-05	-5e-05	-0.00014	-3e-05	0.00014	-0.00015	6
25052	2e-05	-3e-05	-3e-05	-5e-05	-0.00014	-3e-05	0.00014	-0.00015	6
25053	-0.00017	-7e-05	-7e-05	-0.00018	-0.00091	0.00047	0.00035	-0.00023	6
25054	4e-05	2e-05	0.00013	0.00025	0.00033	0.0001	0.00021	-8e-05	6
25055	4e-05	2e-05	0.00013	0.00025	0.00033	0.0001	0.00021	-8e-05	6
25056	4e-05	2e-05	0.00013	0.00025	0.00033	0.0001	0.00021	-8e-05	6
25057	4e-05	2e-05	0.00013	0.00025	0.00033	0.0001	0.00021	-8e-05	6
25058	4e-05	2e-05	0.00013	0.00025	0.00033	0.0001	0.00021	-8e-05	6
25059	4e-05	2e-05	0.00013	0.00025	0.00033	0.0001	0.00021	-8e-05	6
25060	4e-05	2e-05	0.00013	0.00025	0.00033	0.0001	0.00021	-8e-05	6
25061	4e-05	2e-05	0.00013	0.00025	0.00033	0.0001	0.00021	-8e-05	6
25062	4e-05	2e-05	0.00013	0.00025	0.00033	0.0001	0.00021	-8e-05	6
25063	4e-05	2e-05	0.00013	0.00025	0.00033	0.0001	0.00021	-8e-05	6
25064	4e-05	2e-05	0.00013	0.00025	0.00033	0.0001	0.00021	-8e-05	6
25065	4e-05	2e-05	0.00013	0.00025	0.00033	0.0001	0.00021	-8e-05	6
25066	4e-05	2e-05	0.00013	0.00025	0.00033	0.0001	0.00021	-8e-05	6
25067	4e-05	2e-05	0.00013	0.00025	0.00033	0.0001	0.00021	-8e-05	6
25068	4e-05	2e-05	0.00013	0.00025	0.00033	0.0001	0.00021	-8e-05	6
25069	4e-05	2e-05	0.00013	0.00025	0.00033	0.0001	0.00021	-8e-05	6
25070	4e-05	2e-05	0.00013	0.00025	0.00033	0.0001	0.00021	-8e-05	6
25071	4e-05	2e-05	0.00013	0.00025	0.00033	0.0001	0.00021	-8e-05	6
25072	4e-05	2e-05	0.00013	0.00025	0.00033	0.0001	0.00021	-8e-05	6
25073	4e-05	2e-05	0.00013	0.00025	0.00033	0.0001	0.00021	-8e-05	6
25074	4e-05	2e-05	0.00013	0.00025	0.00033	0.0001	0.00021	-8e-05	6
25075	4e-05	2e-05	0.00013	0.00025	0.00033	0.0001	0.00021	-8e-05	6
25076	-6e-05	-4e-05	-8e-05	-0.00026	-0.00087	-0.00025	0.00071	-0.00062	6
25077	0.00019	3e-05	-3e-05	-2e-05	-0.00014	0.0004	-0.0001	0.00103	6
25078	0.00019	3e-05	-3e-05	-2e-05	-0.00014	0.0004	-0.0001	0.00103	6
25079	0.00019	3e-05	-3e-05	-2e-05	-0.00014	0.0004	-0.0001	0.00103	6
25080	0.00019	3e-05	-3e-05	-2e-05	-0.00014	0.0004	-0.0001	0.00103	6
25081	0.00019	3e-05	-3e-05	-2e-05	-0.00014	0.0004	-0.0001	0.00103	6
25082	0.00019	3e-05	-3e-05	-2e-05	-0.00014	0.0004	-0.0001	0.00103	6
25083	0.00019	3e-05	-3e-05	-2e-05	-0.00014	0.0004	-0.0001	0.00103	6
25084	0.00019	3e-05	-3e-05	-2e-05	-0.00014	0.0004	-0.0001	0.00103	6
25085	0.00019	3e-05	-3e-05	-2e-05	-0.00014	0.0004	-0.0001	0.00103	6
25086	0.00019	3e-05	-3e-05	-2e-05	-0.00014	0.0004	-0.0001	0.00103	6
25088	0.00019	3e-05	-3e-05	-2e-05	-0.00014	0.0004	-0.0001	0.00103	6
25089	0.00019	3e-05	-3e-05	-2e-05	-0.00014	0.0004	-0.0001	0.00103	6
25090	0.0001	1e-05	4e-05	8e-05	0.0005	-0.00099	-0.00027	0.00038	6
25091	0.00013	5e-05	-1e-05	1e-05	0.00015	-0.00042	0.00044	-5e-05	6
25092	0.00013	5e-05	-1e-05	1e-05	0.00015	-0.00042	0.00044	-5e-05	6
25093	0.00013	5e-05	-1e-05	1e-05	0.00015	-0.00042	0.00044	-5e-05	6
25094	0.00013	5e-05	-1e-05	1e-05	0.00015	-0.00042	0.00044	-5e-05	6
25095	0.00013	5e-05	-1e-05	1e-05	0.00015	-0.00042	0.00044	-5e-05	6
25096	0.00013	5e-05	-1e-05	1e-05	0.00015	-0.00042	0.00044	-5e-05	6
25097	0.00013	5e-05	-1e-05	1e-05	0.00015	-0.00042	0.00044	-5e-05	6
25098	0.00013	5e-05	-1e-05	1e-05	0.00015	-0.00042	0.00044	-5e-05	6
25099	0.00013	5e-05	-1e-05	1e-05	0.00015	-0.00042	0.00044	-5e-05	6
25100	0.00013	5e-05	-1e-05	1e-05	0.00015	-0.00042	0.00044	-5e-05	6
25101	0.00013	5e-05	-1e-05	1e-05	0.00015	-0.00042	0.00044	-5e-05	6
25102	0.00013	5e-05	-1e-05	1e-05	0.00015	-0.00042	0.00044	-5e-05	6
25103	0.00013	5e-05	-1e-05	1e-05	0.00015	-0.00042	0.00044	-5e-05	6
25104	0.00013	5e-05	-1e-05	1e-05	0.00015	-0.00042	0.00044	-5e-05	6
25105	0.00013	5e-05	-1e-05	1e-05	0.00015	-0.00042	0.00044	-5e-05	6
25106	0.00013	5e-05	-1e-05	1e-05	0.00015	-0.00042	0.00044	-5e-05	6
25107	0.00013	5e-05	-1e-05	1e-05	0.00015	-0.00042	0.00044	-5e-05	6
25108	0.00013	5e-05	-1e-05	1e-05	0.00015	-0.00042	0.00044	-5e-05	6
25109	0.00013	5e-05	-1e-05	1e-05	0.00015	-0.00042	0.00044	-5e-05	6
25110	0.00013	5e-05	-1e-05	1e-05	0.00015	-0.00042	0.00044	-5e-05	6
25111	0.00013	5e-05	-1e-05	1e-05	0.00015	-0.00042	0.00044	-5e-05	6
25112	0.00013	5e-05	-1e-05	1e-05	0.00015	-0.00042	0.00044	-5e-05	6
25113	5e-05	-3e-05	1e-05	-7e-05	-0.00032	-7e-05	-0.00011	0.0002	6
25114	5e-05	-3e-05	1e-05	-7e-05	-0.00032	-7e-05	-0.00011	0.0002	6
25115	-0.00013	-7e-05	-4e-05	-9e-05	-0.00039	-0.00063	-0.00011	-0.00036	6
25116	-0.00013	-7e-05	-4e-05	-9e-05	-0.00039	-0.00063	-0.00011	-0.00036	6
25117	-0.00013	-7e-05	-4e-05	-9e-05	-0.00039	-0.00063	-0.00011	-0.00036	6
25118	-0.00013	-7e-05	-4e-05	-9e-05	-0.00039	-0.00063	-0.00011	-0.00036	6
25119	-0.00013	-7e-05	-4e-05	-9e-05	-0.00039	-0.00063	-0.00011	-0.00036	6
25120	-0.00013	-7e-05	-4e-05	-9e-05	-0.00039	-0.00063	-0.00011	-0.00036	6
25121	-0.00013	-7e-05	-4e-05	-9e-05	-0.00039	-0.00063	-0.00011	-0.00036	6
25122	-0.00013	-7e-05	-4e-05	-9e-05	-0.00039	-0.00063	-0.00011	-0.00036	6
25123	-0.00013	-7e-05	-4e-05	-9e-05	-0.00039	-0.00063	-0.00011	-0.00036	6
25124	-0.00013	-7e-05	-4e-05	-9e-05	-0.00039	-0.00063	-0.00011	-0.00036	6
25125	-0.00013	-7e-05	-4e-05	-9e-05	-0.00039	-0.00063	-0.00011	-0.00036	6
25126	-0.00013	-7e-05	-4e-05	-9e-05	-0.00039	-0.00063	-0.00011	-0.00036	6
25127	-0.00013	-7e-05	-4e-05	-9e-05	-0.00039	-0.00063	-0.00011	-0.00036	6
25128	-0.00013	-7e-05	-4e-05	-9e-05	-0.00039	-0.00063	-0.00011	-0.00036	6
25129	-0.00013	-7e-05	-4e-05	-9e-05	-0.00039	-0.00063	-0.00011	-0.00036	6
25130	-0.00013	-7e-05	-4e-05	-9e-05	-0.00039	-0.00063	-0.00011	-0.00036	6
25131	-0.00013	-7e-05	-4e-05	-9e-05	-0.00039	-0.00063	-0.00011	-0.00036	6
25132	-0.00013	-7e-05	-4e-05	-9e-05	-0.00039	-0.00063	-0.00011	-0.00036	6
25133	-0.00013	-7e-05	-4e-05	-9e-05	-0.00039	-0.00063	-0.00011	-0.00036	6
25134	-0.00013	-7e-05	-4e-05	-9e-05	-0.00039	-0.00063	-0.00011	-0.00036	6
25135	-0.00013	-7e-05	-4e-05	-9e-05	-0.00039	-0.00063	-0.00011	-0.00036	6
25136	-8e-05	-4e-05	1e-05	4e-05	0	7e-05	-0.00011	0.00056	6
25138	-0.0001	-4e-05	-4e-05	-5e-05	0.00014	0.00045	-5e-05	4e-05	6
25139	-0.0001	-4e-05	-4e-05	-5e-05	0.00014	0.00045	-5e-05	4e-05	6
25140	-0.0001	-4e-05	-4e-05	-5e-05	0.00014	0.00045	-5e-05	4e-05	6
25141	-0.0001	-4e-05	-4e-05	-5e-05	0.00014	0.00045	-5e-05	4e-05	6
25142	-0.0001	-4e-05	-4e-05	-5e-05	0.00014	0.00045	-5e-05	4e-05	6
25143	-0.0001	-4e-05	-4e-05	-5e-05	0.00014	0.00045	-5e-05	4e-05	6
25144	-0.0001	-4e-05	-4e-05	-5e-05	0.00014	0.00045	-5e-05	4e-05	6
25145	-0.0001	-4e-05	-4e-05	-5e-05	0.00014	0.00045	-5e-05	4e-05	6
25146	-0.0001	-4e-05	-4e-05	-5e-05	0.00014	0.00045	-5e-05	4e-05	6
25147	-0.0001	-4e-05	-4e-05	-5e-05	0.00014	0.00045	-5e-05	4e-05	6
25148	-0.0001	-4e-05	-4e-05	-5e-05	0.00014	0.00045	-5e-05	4e-05	6
25149	-0.00015	-3e-05	-6e-05	-3e-05	-0.00031	-0.0002	2e-05	-0.00024	6
25150	0.00024	4e-05	1e-05	-1e-05	-0.00021	-0.00054	-0.0003	0.00064	6
25151	0.00024	4e-05	1e-05	-1e-05	-0.00021	-0.00054	-0.0003	0.00064	6
25152	0.00024	4e-05	1e-05	-1e-05	-0.00021	-0.00054	-0.0003	0.00064	6
25153	0.00024	4e-05	1e-05	-1e-05	-0.00021	-0.00054	-0.0003	0.00064	6
25154	0.00024	4e-05	1e-05	-1e-05	-0.00021	-0.00054	-0.0003	0.00064	6
25155	0.00024	4e-05	1e-05	-1e-05	-0.00021	-0.00054	-0.0003	0.00064	6
25156	0.00024	4e-05	1e-05	-1e-05	-0.00021	-0.00054	-0.0003	0.00064	6
25157	0.00024	4e-05	1e-05	-1e-05	-0.00021	-0.00054	-0.0003	0.00064	6
25158	-0.0001	0	-4e-05	-8e-05	-1e-05	-5e-05	-0.00011	-0.00027	6
25159	-0.0001	0	-4e-05	-8e-05	-1e-05	-5e-05	-0.00011	-0.00027	6
25160	-0.0001	0	-4e-05	-8e-05	-1e-05	-5e-05	-0.00011	-0.00027	6
25161	-0.0001	0	-4e-05	-8e-05	-1e-05	-5e-05	-0.00011	-0.00027	6
25162	-0.0001	0	-4e-05	-8e-05	-1e-05	-5e-05	-0.00011	-0.00027	6
25163	-0.0001	0	-4e-05	-8e-05	-1e-05	-5e-05	-0.00011	-0.00027	6
25164	-0.0001	0	-4e-05	-8e-05	-1e-05	-5e-05	-0.00011	-0.00027	6
25165	-0.0001	0	-4e-05	-8e-05	-1e-05	-5e-05	-0.00011	-0.00027	6
25166	-0.0001	0	-4e-05	-8e-05	-1e-05	-5e-05	-0.00011	-0.00027	6
25167	-0.0001	0	-4e-05	-8e-05	-1e-05	-5e-05	-0.00011	-0.00027	6
25168	-0.0001	0	-4e-05	-8e-05	-1e-05	-5e-05	-0.00011	-0.00027	6
25169	-0.0001	0	-4e-05	-8e-05	-1e-05	-5e-05	-0.00011	-0.00027	6
25170	-0.0001	0	-4e-05	-8e-05	-1e-05	-5e-05	-0.00011	-0.00027	6
25171	-0.0001	0	-4e-05	-8e-05	-1e-05	-5e-05	-0.00011	-0.00027	6
25172	-0.0001	0	-4e-05	-8e-05	-1e-05	-5e-05	-0.00011	-0.00027	6
25173	-1e-05	-2e-05	-2e-05	0	1e-05	2e-05	-0.00015	-0.00056	6
25174	-1e-05	-2e-05	-2e-05	0	1e-05	2e-05	-0.00015	-0.00056	6
25175	0.00027	-2e-05	0	-4e-05	-0.00042	-5e-05	-0.00034	0.0005	6
25176	0.00027	-2e-05	0	-4e-05	-0.00042	-5e-05	-0.00034	0.0005	6
25177	0.00027	-2e-05	0	-4e-05	-0.00042	-5e-05	-0.00034	0.0005	6
25178	0.00027	-2e-05	0	-4e-05	-0.00042	-5e-05	-0.00034	0.0005	6
25179	0.00027	-2e-05	0	-4e-05	-0.00042	-5e-05	-0.00034	0.0005	6
25180	0.00027	-2e-05	0	-4e-05	-0.00042	-5e-05	-0.00034	0.0005	6
25181	0.00027	-2e-05	0	-4e-05	-0.00042	-5e-05	-0.00034	0.0005	6
25182	0.00027	-2e-05	0	-4e-05	-0.00042	-5e-05	-0.00034	0.0005	6
25183	0.00027	-2e-05	0	-4e-05	-0.00042	-5e-05	-0.00034	0.0005	6
25184	0.00027	-2e-05	0	-4e-05	-0.00042	-5e-05	-0.00034	0.0005	6
25185	0.00027	-2e-05	0	-4e-05	-0.00042	-5e-05	-0.00034	0.0005	6
25186	0.00027	-2e-05	0	-4e-05	-0.00042	-5e-05	-0.00034	0.0005	6
25188	0.00027	-2e-05	0	-4e-05	-0.00042	-5e-05	-0.00034	0.0005	6
25189	0.00027	-2e-05	0	-4e-05	-0.00042	-5e-05	-0.00034	0.0005	6
25190	0.00027	-2e-05	0	-4e-05	-0.00042	-5e-05	-0.00034	0.0005	6
25191	0.00027	-2e-05	0	-4e-05	-0.00042	-5e-05	-0.00034	0.0005	6
25192	0.00027	-2e-05	0	-4e-05	-0.00042	-5e-05	-0.00034	0.0005	6
25193	0.00027	-2e-05	0	-4e-05	-0.00042	-5e-05	-0.00034	0.0005	6
25194	0.00027	-2e-05	0	-4e-05	-0.00042	-5e-05	-0.00034	0.0005	6
25195	0.00027	-2e-05	0	-4e-05	-0.00042	-5e-05	-0.00034	0.0005	6
25196	8e-05	2e-05	3e-05	0.00015	0.00056	-0.00013	0.00027	0.00024	6
25197	-0.00016	-3e-05	-9e-05	-0.00018	-0.00034	5e-05	-5e-05	-0.00042	6
25198	-0.00016	-3e-05	-9e-05	-0.00018	-0.00034	5e-05	-5e-05	-0.00042	6
25199	-0.00016	-3e-05	-9e-05	-0.00018	-0.00034	5e-05	-5e-05	-0.00042	6
25200	-0.00016	-3e-05	-9e-05	-0.00018	-0.00034	5e-05	-5e-05	-0.00042	6
25201	-0.00016	-3e-05	-9e-05	-0.00018	-0.00034	5e-05	-5e-05	-0.00042	6
25202	-0.00016	-3e-05	-9e-05	-0.00018	-0.00034	5e-05	-5e-05	-0.00042	6
25203	-0.00016	-3e-05	-9e-05	-0.00018	-0.00034	5e-05	-5e-05	-0.00042	6
25204	-0.00016	-3e-05	-9e-05	-0.00018	-0.00034	5e-05	-5e-05	-0.00042	6
25205	-0.00016	-3e-05	-9e-05	-0.00018	-0.00034	5e-05	-5e-05	-0.00042	6
25206	-0.00016	-3e-05	-9e-05	-0.00018	-0.00034	5e-05	-5e-05	-0.00042	6
25207	-0.00016	-3e-05	-9e-05	-0.00018	-0.00034	5e-05	-5e-05	-0.00042	6
25208	-0.00016	-3e-05	-9e-05	-0.00018	-0.00034	5e-05	-5e-05	-0.00042	6
25209	0.00032	4e-05	3e-05	0.00014	4e-05	0.00127	0.00023	0.00069	6
25210	0.00032	4e-05	3e-05	0.00014	4e-05	0.00127	0.00023	0.00069	6
25211	0.00032	4e-05	3e-05	0.00014	4e-05	0.00127	0.00023	0.00069	6
25212	0.00032	4e-05	3e-05	0.00014	4e-05	0.00127	0.00023	0.00069	6
25213	0.00032	4e-05	3e-05	0.00014	4e-05	0.00127	0.00023	0.00069	6
25214	0.00032	4e-05	3e-05	0.00014	4e-05	0.00127	0.00023	0.00069	6
25215	0.00032	4e-05	3e-05	0.00014	4e-05	0.00127	0.00023	0.00069	6
25216	0.00032	4e-05	3e-05	0.00014	4e-05	0.00127	0.00023	0.00069	6
25217	0.00032	4e-05	3e-05	0.00014	4e-05	0.00127	0.00023	0.00069	6
25218	5e-05	1e-05	3e-05	7e-05	-0.0006	0.00029	-9e-05	-0.00011	6
25219	5e-05	1e-05	3e-05	7e-05	-0.0006	0.00029	-9e-05	-0.00011	6
25220	5e-05	1e-05	3e-05	7e-05	-0.0006	0.00029	-9e-05	-0.00011	6
25221	5e-05	1e-05	3e-05	7e-05	-0.0006	0.00029	-9e-05	-0.00011	6
25222	5e-05	1e-05	3e-05	7e-05	-0.0006	0.00029	-9e-05	-0.00011	6
25223	5e-05	1e-05	3e-05	7e-05	-0.0006	0.00029	-9e-05	-0.00011	6
25224	5e-05	1e-05	3e-05	7e-05	-0.0006	0.00029	-9e-05	-0.00011	6
25225	5e-05	1e-05	3e-05	7e-05	-0.0006	0.00029	-9e-05	-0.00011	6
25226	5e-05	1e-05	3e-05	7e-05	-0.0006	0.00029	-9e-05	-0.00011	6
25227	5e-05	1e-05	3e-05	7e-05	-0.0006	0.00029	-9e-05	-0.00011	6
25228	5e-05	1e-05	3e-05	7e-05	-0.0006	0.00029	-9e-05	-0.00011	6
25229	5e-05	1e-05	3e-05	7e-05	-0.0006	0.00029	-9e-05	-0.00011	6
25230	5e-05	1e-05	3e-05	7e-05	-0.0006	0.00029	-9e-05	-0.00011	6
25231	5e-05	1e-05	3e-05	7e-05	-0.0006	0.00029	-9e-05	-0.00011	6
25232	5e-05	1e-05	3e-05	7e-05	-0.0006	0.00029	-9e-05	-0.00011	6
25233	0.00014	-1e-05	4e-05	0	6e-05	2e-05	-9e-05	0.00027	6
25234	-8e-05	-4e-05	-4e-05	-6e-05	-0.0001	9e-05	-2e-05	-0.0003	6
25235	-5e-05	2e-05	-1e-05	-5e-05	-2e-05	0.00014	-3e-05	-0.00027	6
25236	-5e-05	2e-05	-1e-05	-5e-05	-2e-05	0.00014	-3e-05	-0.00027	6
25238	-5e-05	2e-05	-1e-05	-5e-05	-2e-05	0.00014	-3e-05	-0.00027	6
25239	-5e-05	2e-05	-1e-05	-5e-05	-2e-05	0.00014	-3e-05	-0.00027	6
25240	-5e-05	2e-05	-1e-05	-5e-05	-2e-05	0.00014	-3e-05	-0.00027	6
25241	-5e-05	2e-05	-1e-05	-5e-05	-2e-05	0.00014	-3e-05	-0.00027	6
25242	-5e-05	2e-05	-1e-05	-5e-05	-2e-05	0.00014	-3e-05	-0.00027	6
25243	-5e-05	2e-05	-1e-05	-5e-05	-2e-05	0.00014	-3e-05	-0.00027	6
25244	-5e-05	2e-05	-1e-05	-5e-05	-2e-05	0.00014	-3e-05	-0.00027	6
25245	-5e-05	2e-05	-1e-05	-5e-05	-2e-05	0.00014	-3e-05	-0.00027	6
25246	-5e-05	2e-05	-1e-05	-5e-05	-2e-05	0.00014	-3e-05	-0.00027	6
25247	-5e-05	2e-05	-1e-05	-5e-05	-2e-05	0.00014	-3e-05	-0.00027	6
25248	-5e-05	2e-05	-1e-05	-5e-05	-2e-05	0.00014	-3e-05	-0.00027	6
25249	-5e-05	2e-05	-1e-05	-5e-05	-2e-05	0.00014	-3e-05	-0.00027	6
25250	-5e-05	2e-05	-1e-05	-5e-05	-2e-05	0.00014	-3e-05	-0.00027	6
25251	-5e-05	2e-05	-1e-05	-5e-05	-2e-05	0.00014	-3e-05	-0.00027	6
25252	-5e-05	2e-05	-1e-05	-5e-05	-2e-05	0.00014	-3e-05	-0.00027	6
25253	-5e-05	2e-05	-1e-05	-5e-05	-2e-05	0.00014	-3e-05	-0.00027	6
25254	-5e-05	2e-05	-1e-05	-5e-05	-2e-05	0.00014	-3e-05	-0.00027	6
25255	-5e-05	2e-05	-1e-05	-5e-05	-2e-05	0.00014	-3e-05	-0.00027	6
25256	-0.00016	-6e-05	-6e-05	-0.00011	-0.00024	-0.00046	-0.00022	-0.00075	6
25257	0.00043	0	1e-05	-1e-05	-3e-05	-0.00069	0.00026	0.00083	6
25258	0.00043	0	1e-05	-1e-05	-3e-05	-0.00069	0.00026	0.00083	6
25259	0.00043	0	1e-05	-1e-05	-3e-05	-0.00069	0.00026	0.00083	6
25260	0.00043	0	1e-05	-1e-05	-3e-05	-0.00069	0.00026	0.00083	6
25261	0.00043	0	1e-05	-1e-05	-3e-05	-0.00069	0.00026	0.00083	6
25262	0.00043	0	1e-05	-1e-05	-3e-05	-0.00069	0.00026	0.00083	6
25263	0.00043	0	1e-05	-1e-05	-3e-05	-0.00069	0.00026	0.00083	6
25264	0.00043	0	1e-05	-1e-05	-3e-05	-0.00069	0.00026	0.00083	6
25265	0.00043	0	1e-05	-1e-05	-3e-05	-0.00069	0.00026	0.00083	6
25266	0.00043	0	1e-05	-1e-05	-3e-05	-0.00069	0.00026	0.00083	6
25267	0.00043	0	1e-05	-1e-05	-3e-05	-0.00069	0.00026	0.00083	6
25268	0.00043	0	1e-05	-1e-05	-3e-05	-0.00069	0.00026	0.00083	6
25269	-0.00023	-5e-05	-1e-05	-2e-05	-0.00014	-0.00074	0.0005	-0.00019	6
25270	2e-05	-2e-05	-2e-05	-5e-05	-0.00016	-1e-05	0.0001	-0.00029	6
25271	2e-05	-2e-05	-2e-05	-5e-05	-0.00016	-1e-05	0.0001	-0.00029	6
25272	2e-05	-2e-05	-2e-05	-5e-05	-0.00016	-1e-05	0.0001	-0.00029	6
25273	2e-05	-2e-05	-2e-05	-5e-05	-0.00016	-1e-05	0.0001	-0.00029	6
25274	2e-05	-2e-05	-2e-05	-5e-05	-0.00016	-1e-05	0.0001	-0.00029	6
25275	2e-05	-2e-05	-2e-05	-5e-05	-0.00016	-1e-05	0.0001	-0.00029	6
25276	2e-05	-2e-05	-2e-05	-5e-05	-0.00016	-1e-05	0.0001	-0.00029	6
25277	2e-05	-2e-05	-2e-05	-5e-05	-0.00016	-1e-05	0.0001	-0.00029	6
25278	-0.00012	-1e-05	1e-05	0.00011	0.00053	-0.0002	2e-05	-0.00026	6
25279	-0.00012	-1e-05	1e-05	0.00011	0.00053	-0.0002	2e-05	-0.00026	6
25280	-0.00012	-1e-05	1e-05	0.00011	0.00053	-0.0002	2e-05	-0.00026	6
25281	-0.00012	-1e-05	1e-05	0.00011	0.00053	-0.0002	2e-05	-0.00026	6
25282	-0.00012	-1e-05	1e-05	0.00011	0.00053	-0.0002	2e-05	-0.00026	6
25283	-0.00012	-1e-05	1e-05	0.00011	0.00053	-0.0002	2e-05	-0.00026	6
25284	-0.00012	-1e-05	1e-05	0.00011	0.00053	-0.0002	2e-05	-0.00026	6
25285	-0.00012	-1e-05	1e-05	0.00011	0.00053	-0.0002	2e-05	-0.00026	6
25286	-0.00012	-1e-05	1e-05	0.00011	0.00053	-0.0002	2e-05	-0.00026	6
25288	-0.00012	-1e-05	1e-05	0.00011	0.00053	-0.0002	2e-05	-0.00026	6
25289	-0.00012	-1e-05	1e-05	0.00011	0.00053	-0.0002	2e-05	-0.00026	6
25290	-0.00012	-1e-05	1e-05	0.00011	0.00053	-0.0002	2e-05	-0.00026	6
25291	-0.00012	-1e-05	1e-05	0.00011	0.00053	-0.0002	2e-05	-0.00026	6
25292	-0.00012	-1e-05	1e-05	0.00011	0.00053	-0.0002	2e-05	-0.00026	6
25293	0	-1e-05	0	-5e-05	-0.00013	9e-05	1e-05	0.00022	6
25294	0	-1e-05	0	-5e-05	-0.00013	9e-05	1e-05	0.00022	6
25295	-0.00023	-5e-05	-0.00015	-0.00018	0.00022	0.00054	-0.00026	-0.00048	6
25296	-0.00023	-5e-05	-0.00015	-0.00018	0.00022	0.00054	-0.00026	-0.00048	6
25297	-0.00023	-5e-05	-0.00015	-0.00018	0.00022	0.00054	-0.00026	-0.00048	6
25298	-0.00023	-5e-05	-0.00015	-0.00018	0.00022	0.00054	-0.00026	-0.00048	6
25299	-0.00023	-5e-05	-0.00015	-0.00018	0.00022	0.00054	-0.00026	-0.00048	6
25300	-0.00023	-5e-05	-0.00015	-0.00018	0.00022	0.00054	-0.00026	-0.00048	6
25301	-0.00023	-5e-05	-0.00015	-0.00018	0.00022	0.00054	-0.00026	-0.00048	6
25302	-0.00023	-5e-05	-0.00015	-0.00018	0.00022	0.00054	-0.00026	-0.00048	6
25303	-0.00023	-5e-05	-0.00015	-0.00018	0.00022	0.00054	-0.00026	-0.00048	6
25304	-0.00023	-5e-05	-0.00015	-0.00018	0.00022	0.00054	-0.00026	-0.00048	6
25305	-0.00023	-5e-05	-0.00015	-0.00018	0.00022	0.00054	-0.00026	-0.00048	6
25306	-0.00023	-5e-05	-0.00015	-0.00018	0.00022	0.00054	-0.00026	-0.00048	6
25307	-0.00023	-5e-05	-0.00015	-0.00018	0.00022	0.00054	-0.00026	-0.00048	6
25308	-0.00023	-5e-05	-0.00015	-0.00018	0.00022	0.00054	-0.00026	-0.00048	6
25309	-0.00023	-5e-05	-0.00015	-0.00018	0.00022	0.00054	-0.00026	-0.00048	6
25310	-0.00023	-5e-05	-0.00015	-0.00018	0.00022	0.00054	-0.00026	-0.00048	6
25311	-0.00023	-5e-05	-0.00015	-0.00018	0.00022	0.00054	-0.00026	-0.00048	6
25312	-0.00023	-5e-05	-0.00015	-0.00018	0.00022	0.00054	-0.00026	-0.00048	6
25314	-0.00023	-5e-05	-0.00015	-0.00018	0.00022	0.00054	-0.00026	-0.00048	6
25315	-0.00023	-5e-05	-0.00015	-0.00018	0.00022	0.00054	-0.00026	-0.00048	6
25316	0.0005	0.00011	0.00016	0.00032	0.0003	2e-05	0.00036	-3e-05	6
25317	-0.0001	-5e-05	-3e-05	-0.00013	-0.00039	-8e-05	-5e-05	-0.00047	6
25318	-0.0001	-5e-05	-3e-05	-0.00013	-0.00039	-8e-05	-5e-05	-0.00047	6
25319	-0.0001	-5e-05	-3e-05	-0.00013	-0.00039	-8e-05	-5e-05	-0.00047	6
25320	-0.0001	-5e-05	-3e-05	-0.00013	-0.00039	-8e-05	-5e-05	-0.00047	6
25321	-0.0001	-5e-05	-3e-05	-0.00013	-0.00039	-8e-05	-5e-05	-0.00047	6
25322	-0.0001	-5e-05	-3e-05	-0.00013	-0.00039	-8e-05	-5e-05	-0.00047	6
25323	-0.0001	-5e-05	-3e-05	-0.00013	-0.00039	-8e-05	-5e-05	-0.00047	6
25324	-0.0001	-5e-05	-3e-05	-0.00013	-0.00039	-8e-05	-5e-05	-0.00047	6
25325	-0.0001	-5e-05	-3e-05	-0.00013	-0.00039	-8e-05	-5e-05	-0.00047	6
25326	-0.0001	-5e-05	-3e-05	-0.00013	-0.00039	-8e-05	-5e-05	-0.00047	6
25327	-0.0001	-5e-05	-3e-05	-0.00013	-0.00039	-8e-05	-5e-05	-0.00047	6
25328	-0.0001	-5e-05	-3e-05	-0.00013	-0.00039	-8e-05	-5e-05	-0.00047	6
25329	-6e-05	1e-05	-3e-05	-4e-05	7e-05	-4e-05	5e-05	-0.0001	6
25330	-6e-05	1e-05	-3e-05	-4e-05	7e-05	-4e-05	5e-05	-0.0001	6
25331	-6e-05	1e-05	-3e-05	-4e-05	7e-05	-4e-05	5e-05	-0.0001	6
25332	-6e-05	1e-05	-3e-05	-4e-05	7e-05	-4e-05	5e-05	-0.0001	6
25333	-6e-05	1e-05	-3e-05	-4e-05	7e-05	-4e-05	5e-05	-0.0001	6
25334	-6e-05	1e-05	-3e-05	-4e-05	7e-05	-4e-05	5e-05	-0.0001	6
25335	-6e-05	1e-05	-3e-05	-4e-05	7e-05	-4e-05	5e-05	-0.0001	6
25336	-6e-05	1e-05	-3e-05	-4e-05	7e-05	-4e-05	5e-05	-0.0001	6
25338	-6e-05	1e-05	-3e-05	-4e-05	7e-05	-4e-05	5e-05	-0.0001	6
25339	-0.00013	-2e-05	-2e-05	1e-05	9e-05	0.00013	0.00014	-6e-05	6
25340	-0.00013	-2e-05	-2e-05	1e-05	9e-05	0.00013	0.00014	-6e-05	6
25341	-0.00013	-2e-05	-2e-05	1e-05	9e-05	0.00013	0.00014	-6e-05	6
25342	-0.00013	-2e-05	-2e-05	1e-05	9e-05	0.00013	0.00014	-6e-05	6
25343	-0.00013	-2e-05	-2e-05	1e-05	9e-05	0.00013	0.00014	-6e-05	6
25344	-0.00013	-2e-05	-2e-05	1e-05	9e-05	0.00013	0.00014	-6e-05	6
25345	-0.00013	-2e-05	-2e-05	1e-05	9e-05	0.00013	0.00014	-6e-05	6
25346	-0.00013	-2e-05	-2e-05	1e-05	9e-05	0.00013	0.00014	-6e-05	6
25347	-0.00013	-2e-05	-2e-05	1e-05	9e-05	0.00013	0.00014	-6e-05	6
25348	-0.00013	-2e-05	-2e-05	1e-05	9e-05	0.00013	0.00014	-6e-05	6
25349	-0.00013	-2e-05	-2e-05	1e-05	9e-05	0.00013	0.00014	-6e-05	6
25350	-0.00013	-2e-05	-2e-05	1e-05	9e-05	0.00013	0.00014	-6e-05	6
25351	-0.00013	-2e-05	-2e-05	1e-05	9e-05	0.00013	0.00014	-6e-05	6
25352	-0.00013	-2e-05	-2e-05	1e-05	9e-05	0.00013	0.00014	-6e-05	6
25353	2e-05	1e-05	4e-05	9e-05	0.00016	-0.0002	5e-05	-5e-05	6
25354	2e-05	1e-05	4e-05	9e-05	0.00016	-0.0002	5e-05	-5e-05	6
25355	0.00012	4e-05	0.00016	0.00011	0.00022	-0.00056	0.00011	0.00093	6
25356	0.00012	4e-05	0.00016	0.00011	0.00022	-0.00056	0.00011	0.00093	6
25357	0.00012	4e-05	0.00016	0.00011	0.00022	-0.00056	0.00011	0.00093	6
25358	0.00012	4e-05	0.00016	0.00011	0.00022	-0.00056	0.00011	0.00093	6
25359	0.00012	4e-05	0.00016	0.00011	0.00022	-0.00056	0.00011	0.00093	6
25360	0.00012	4e-05	0.00016	0.00011	0.00022	-0.00056	0.00011	0.00093	6
25361	0.00012	4e-05	0.00016	0.00011	0.00022	-0.00056	0.00011	0.00093	6
25362	0.00012	4e-05	0.00016	0.00011	0.00022	-0.00056	0.00011	0.00093	6
25363	0.00012	4e-05	0.00016	0.00011	0.00022	-0.00056	0.00011	0.00093	6
25364	0.00012	4e-05	0.00016	0.00011	0.00022	-0.00056	0.00011	0.00093	6
25365	0.00012	4e-05	0.00016	0.00011	0.00022	-0.00056	0.00011	0.00093	6
25366	0.00012	4e-05	0.00016	0.00011	0.00022	-0.00056	0.00011	0.00093	6
25367	0.00012	4e-05	0.00016	0.00011	0.00022	-0.00056	0.00011	0.00093	6
25368	0.00012	4e-05	0.00016	0.00011	0.00022	-0.00056	0.00011	0.00093	6
25369	0.00012	4e-05	0.00016	0.00011	0.00022	-0.00056	0.00011	0.00093	6
25370	0.00012	4e-05	0.00016	0.00011	0.00022	-0.00056	0.00011	0.00093	6
25371	0.00012	4e-05	0.00016	0.00011	0.00022	-0.00056	0.00011	0.00093	6
25372	0.00012	4e-05	0.00016	0.00011	0.00022	-0.00056	0.00011	0.00093	6
25373	0.00012	4e-05	0.00016	0.00011	0.00022	-0.00056	0.00011	0.00093	6
25374	0.00012	4e-05	0.00016	0.00011	0.00022	-0.00056	0.00011	0.00093	6
25375	0.00012	4e-05	0.00016	0.00011	0.00022	-0.00056	0.00011	0.00093	6
25376	9e-05	-2e-05	1e-05	-4e-05	-0.00024	-0.00016	-0.00024	1e-05	6
25377	-0.0001	-3e-05	-9e-05	-0.00019	-0.00032	0.0002	5e-05	-0.00039	6
25378	-0.0001	-3e-05	-9e-05	-0.00019	-0.00032	0.0002	5e-05	-0.00039	6
25379	-0.0001	-3e-05	-9e-05	-0.00019	-0.00032	0.0002	5e-05	-0.00039	6
25380	-0.0001	-3e-05	-9e-05	-0.00019	-0.00032	0.0002	5e-05	-0.00039	6
25381	-0.0001	-3e-05	-9e-05	-0.00019	-0.00032	0.0002	5e-05	-0.00039	6
25382	-0.0001	-3e-05	-9e-05	-0.00019	-0.00032	0.0002	5e-05	-0.00039	6
25383	-0.0001	-3e-05	-9e-05	-0.00019	-0.00032	0.0002	5e-05	-0.00039	6
25384	-0.0001	-3e-05	-9e-05	-0.00019	-0.00032	0.0002	5e-05	-0.00039	6
25385	-0.0001	-3e-05	-9e-05	-0.00019	-0.00032	0.0002	5e-05	-0.00039	6
25386	-0.0001	-3e-05	-9e-05	-0.00019	-0.00032	0.0002	5e-05	-0.00039	6
25388	-0.0001	-3e-05	-9e-05	-0.00019	-0.00032	0.0002	5e-05	-0.00039	6
25389	1e-05	2e-05	3e-05	9e-05	0.00039	3e-05	0.00013	0.00013	6
25390	1e-05	2e-05	3e-05	9e-05	0.00039	3e-05	0.00013	0.00013	6
25391	1e-05	2e-05	3e-05	9e-05	0.00039	3e-05	0.00013	0.00013	6
25392	1e-05	2e-05	3e-05	9e-05	0.00039	3e-05	0.00013	0.00013	6
25393	1e-05	2e-05	3e-05	9e-05	0.00039	3e-05	0.00013	0.00013	6
25394	1e-05	2e-05	3e-05	9e-05	0.00039	3e-05	0.00013	0.00013	6
25395	1e-05	2e-05	3e-05	9e-05	0.00039	3e-05	0.00013	0.00013	6
25396	1e-05	2e-05	3e-05	9e-05	0.00039	3e-05	0.00013	0.00013	6
25397	1e-05	2e-05	3e-05	9e-05	0.00039	3e-05	0.00013	0.00013	6
25398	-7e-05	-1e-05	-1e-05	3e-05	0.00013	0.00026	4e-05	-4e-05	6
25399	-7e-05	-1e-05	-1e-05	3e-05	0.00013	0.00026	4e-05	-4e-05	6
25400	-7e-05	-1e-05	-1e-05	3e-05	0.00013	0.00026	4e-05	-4e-05	6
25401	-7e-05	-1e-05	-1e-05	3e-05	0.00013	0.00026	4e-05	-4e-05	6
25402	-7e-05	-1e-05	-1e-05	3e-05	0.00013	0.00026	4e-05	-4e-05	6
25403	-7e-05	-1e-05	-1e-05	3e-05	0.00013	0.00026	4e-05	-4e-05	6
25404	-7e-05	-1e-05	-1e-05	3e-05	0.00013	0.00026	4e-05	-4e-05	6
25405	-7e-05	-1e-05	-1e-05	3e-05	0.00013	0.00026	4e-05	-4e-05	6
25406	-7e-05	-1e-05	-1e-05	3e-05	0.00013	0.00026	4e-05	-4e-05	6
25407	-7e-05	-1e-05	-1e-05	3e-05	0.00013	0.00026	4e-05	-4e-05	6
25408	-7e-05	-1e-05	-1e-05	3e-05	0.00013	0.00026	4e-05	-4e-05	6
25409	-7e-05	-1e-05	-1e-05	3e-05	0.00013	0.00026	4e-05	-4e-05	6
25410	-7e-05	-1e-05	-1e-05	3e-05	0.00013	0.00026	4e-05	-4e-05	6
25411	-7e-05	-1e-05	-1e-05	3e-05	0.00013	0.00026	4e-05	-4e-05	6
25412	-7e-05	-1e-05	-1e-05	3e-05	0.00013	0.00026	4e-05	-4e-05	6
25413	-0.00013	-4e-05	-7e-05	-0.00015	-0.00071	-0.0012	-0.00013	-0.00032	6
25414	-0.00013	-4e-05	-7e-05	-0.00015	-0.00071	-0.0012	-0.00013	-0.00032	6
25415	-4e-05	1e-05	6e-05	0.00033	0.00059	0.00032	-0.00012	-0.00021	6
25416	-4e-05	1e-05	6e-05	0.00033	0.00059	0.00032	-0.00012	-0.00021	6
25417	-4e-05	1e-05	6e-05	0.00033	0.00059	0.00032	-0.00012	-0.00021	6
25418	-4e-05	1e-05	6e-05	0.00033	0.00059	0.00032	-0.00012	-0.00021	6
25419	-4e-05	1e-05	6e-05	0.00033	0.00059	0.00032	-0.00012	-0.00021	6
25420	-4e-05	1e-05	6e-05	0.00033	0.00059	0.00032	-0.00012	-0.00021	6
25421	-4e-05	1e-05	6e-05	0.00033	0.00059	0.00032	-0.00012	-0.00021	6
25422	-4e-05	1e-05	6e-05	0.00033	0.00059	0.00032	-0.00012	-0.00021	6
25423	-4e-05	1e-05	6e-05	0.00033	0.00059	0.00032	-0.00012	-0.00021	6
25424	-4e-05	1e-05	6e-05	0.00033	0.00059	0.00032	-0.00012	-0.00021	6
25425	-4e-05	1e-05	6e-05	0.00033	0.00059	0.00032	-0.00012	-0.00021	6
25426	-4e-05	1e-05	6e-05	0.00033	0.00059	0.00032	-0.00012	-0.00021	6
25427	-4e-05	1e-05	6e-05	0.00033	0.00059	0.00032	-0.00012	-0.00021	6
25428	-4e-05	1e-05	6e-05	0.00033	0.00059	0.00032	-0.00012	-0.00021	6
25429	-4e-05	1e-05	6e-05	0.00033	0.00059	0.00032	-0.00012	-0.00021	6
25430	-4e-05	1e-05	6e-05	0.00033	0.00059	0.00032	-0.00012	-0.00021	6
25431	-4e-05	1e-05	6e-05	0.00033	0.00059	0.00032	-0.00012	-0.00021	6
25432	-4e-05	1e-05	6e-05	0.00033	0.00059	0.00032	-0.00012	-0.00021	6
25433	-4e-05	1e-05	6e-05	0.00033	0.00059	0.00032	-0.00012	-0.00021	6
25434	-4e-05	1e-05	6e-05	0.00033	0.00059	0.00032	-0.00012	-0.00021	6
25435	-4e-05	1e-05	6e-05	0.00033	0.00059	0.00032	-0.00012	-0.00021	6
25436	-4e-05	1e-05	6e-05	0.00033	0.00059	0.00032	-0.00012	-0.00021	6
25439	-0.00018	-2e-05	-6e-05	-0.00014	-0.00016	-9e-05	-4e-05	-0.00034	6
25440	-0.00018	-2e-05	-6e-05	-0.00014	-0.00016	-9e-05	-4e-05	-0.00034	6
25441	-0.00018	-2e-05	-6e-05	-0.00014	-0.00016	-9e-05	-4e-05	-0.00034	6
25442	-0.00018	-2e-05	-6e-05	-0.00014	-0.00016	-9e-05	-4e-05	-0.00034	6
25443	-0.00018	-2e-05	-6e-05	-0.00014	-0.00016	-9e-05	-4e-05	-0.00034	6
25444	-0.00018	-2e-05	-6e-05	-0.00014	-0.00016	-9e-05	-4e-05	-0.00034	6
25445	-0.00018	-2e-05	-6e-05	-0.00014	-0.00016	-9e-05	-4e-05	-0.00034	6
25446	-0.00018	-2e-05	-6e-05	-0.00014	-0.00016	-9e-05	-4e-05	-0.00034	6
25447	-0.00018	-2e-05	-6e-05	-0.00014	-0.00016	-9e-05	-4e-05	-0.00034	6
25448	-0.00018	-2e-05	-6e-05	-0.00014	-0.00016	-9e-05	-4e-05	-0.00034	6
25449	-0.00018	-2e-05	-6e-05	-0.00014	-0.00016	-9e-05	-4e-05	-0.00034	6
25450	0.00034	5e-05	7e-05	0.00019	0.00086	0.00051	7e-05	0.00076	6
25451	0.00034	5e-05	7e-05	0.00019	0.00086	0.00051	7e-05	0.00076	6
25452	0.00034	5e-05	7e-05	0.00019	0.00086	0.00051	7e-05	0.00076	6
25453	0.00034	5e-05	7e-05	0.00019	0.00086	0.00051	7e-05	0.00076	6
25454	0.00034	5e-05	7e-05	0.00019	0.00086	0.00051	7e-05	0.00076	6
25455	0.00034	5e-05	7e-05	0.00019	0.00086	0.00051	7e-05	0.00076	6
25456	0.00034	5e-05	7e-05	0.00019	0.00086	0.00051	7e-05	0.00076	6
25457	0.00034	5e-05	7e-05	0.00019	0.00086	0.00051	7e-05	0.00076	6
25458	0	-1e-05	-1e-05	-5e-05	-0.0001	0.00033	-6e-05	-5e-05	6
25459	0	-1e-05	-1e-05	-5e-05	-0.0001	0.00033	-6e-05	-5e-05	6
25460	0	-1e-05	-1e-05	-5e-05	-0.0001	0.00033	-6e-05	-5e-05	6
25461	0	-1e-05	-1e-05	-5e-05	-0.0001	0.00033	-6e-05	-5e-05	6
25462	0	-1e-05	-1e-05	-5e-05	-0.0001	0.00033	-6e-05	-5e-05	6
25463	0	-1e-05	-1e-05	-5e-05	-0.0001	0.00033	-6e-05	-5e-05	6
25464	0	-1e-05	-1e-05	-5e-05	-0.0001	0.00033	-6e-05	-5e-05	6
25465	0	-1e-05	-1e-05	-5e-05	-0.0001	0.00033	-6e-05	-5e-05	6
25466	0	-1e-05	-1e-05	-5e-05	-0.0001	0.00033	-6e-05	-5e-05	6
25467	0	-1e-05	-1e-05	-5e-05	-0.0001	0.00033	-6e-05	-5e-05	6
25468	0	-1e-05	-1e-05	-5e-05	-0.0001	0.00033	-6e-05	-5e-05	6
25469	0	-1e-05	-1e-05	-5e-05	-0.0001	0.00033	-6e-05	-5e-05	6
25470	0	-1e-05	-1e-05	-5e-05	-0.0001	0.00033	-6e-05	-5e-05	6
25471	0	-1e-05	-1e-05	-5e-05	-0.0001	0.00033	-6e-05	-5e-05	6
25472	0	-1e-05	-1e-05	-5e-05	-0.0001	0.00033	-6e-05	-5e-05	6
25473	-5e-05	-1e-05	-7e-05	-0.00015	-0.00027	-8e-05	-9e-05	-0.00029	6
25474	-5e-05	-1e-05	-7e-05	-0.00015	-0.00027	-8e-05	-9e-05	-0.00029	6
25475	5e-05	0	2e-05	2e-05	-0.0005	4e-05	-1e-05	5e-05	6
25476	5e-05	0	2e-05	2e-05	-0.0005	4e-05	-1e-05	5e-05	6
25477	5e-05	0	2e-05	2e-05	-0.0005	4e-05	-1e-05	5e-05	6
25478	5e-05	0	2e-05	2e-05	-0.0005	4e-05	-1e-05	5e-05	6
25479	5e-05	0	2e-05	2e-05	-0.0005	4e-05	-1e-05	5e-05	6
25480	5e-05	0	2e-05	2e-05	-0.0005	4e-05	-1e-05	5e-05	6
25481	5e-05	0	2e-05	2e-05	-0.0005	4e-05	-1e-05	5e-05	6
25482	5e-05	0	2e-05	2e-05	-0.0005	4e-05	-1e-05	5e-05	6
25483	5e-05	0	2e-05	2e-05	-0.0005	4e-05	-1e-05	5e-05	6
25484	5e-05	0	2e-05	2e-05	-0.0005	4e-05	-1e-05	5e-05	6
25485	5e-05	0	2e-05	2e-05	-0.0005	4e-05	-1e-05	5e-05	6
25486	5e-05	0	2e-05	2e-05	-0.0005	4e-05	-1e-05	5e-05	6
25488	5e-05	0	2e-05	2e-05	-0.0005	4e-05	-1e-05	5e-05	6
25489	5e-05	0	2e-05	2e-05	-0.0005	4e-05	-1e-05	5e-05	6
25490	5e-05	0	2e-05	2e-05	-0.0005	4e-05	-1e-05	5e-05	6
25491	5e-05	0	2e-05	2e-05	-0.0005	4e-05	-1e-05	5e-05	6
25492	5e-05	0	2e-05	2e-05	-0.0005	4e-05	-1e-05	5e-05	6
25493	5e-05	0	2e-05	2e-05	-0.0005	4e-05	-1e-05	5e-05	6
25494	5e-05	0	2e-05	2e-05	-0.0005	4e-05	-1e-05	5e-05	6
25495	5e-05	0	2e-05	2e-05	-0.0005	4e-05	-1e-05	5e-05	6
25496	-6e-05	-1e-05	0	5e-05	-8e-05	-0.00017	2e-05	6e-05	6
25497	-9e-05	-8e-05	-6e-05	2e-05	0.00013	-0.00024	-3e-05	9e-05	6
25498	-9e-05	-8e-05	-6e-05	2e-05	0.00013	-0.00024	-3e-05	9e-05	6
25499	-9e-05	-8e-05	-6e-05	2e-05	0.00013	-0.00024	-3e-05	9e-05	6
25500	-9e-05	-8e-05	-6e-05	2e-05	0.00013	-0.00024	-3e-05	9e-05	6
25501	-9e-05	-8e-05	-6e-05	2e-05	0.00013	-0.00024	-3e-05	9e-05	6
25502	-9e-05	-8e-05	-6e-05	2e-05	0.00013	-0.00024	-3e-05	9e-05	6
25503	-9e-05	-8e-05	-6e-05	2e-05	0.00013	-0.00024	-3e-05	9e-05	6
25504	-9e-05	-8e-05	-6e-05	2e-05	0.00013	-0.00024	-3e-05	9e-05	6
25505	-9e-05	-8e-05	-6e-05	2e-05	0.00013	-0.00024	-3e-05	9e-05	6
25506	-9e-05	-8e-05	-6e-05	2e-05	0.00013	-0.00024	-3e-05	9e-05	6
25507	-9e-05	-8e-05	-6e-05	2e-05	0.00013	-0.00024	-3e-05	9e-05	6
25508	-9e-05	-8e-05	-6e-05	2e-05	0.00013	-0.00024	-3e-05	9e-05	6
25509	3e-05	-4e-05	-8e-05	-0.00021	-0.00092	-0.00019	-2e-05	0.00013	6
25510	-3e-05	8e-05	8e-05	0.0002	0.00103	-0.00022	-0.00029	-0.0008	6
25511	-3e-05	8e-05	8e-05	0.0002	0.00103	-0.00022	-0.00029	-0.0008	6
25512	-3e-05	8e-05	8e-05	0.0002	0.00103	-0.00022	-0.00029	-0.0008	6
25513	-3e-05	8e-05	8e-05	0.0002	0.00103	-0.00022	-0.00029	-0.0008	6
25514	-3e-05	8e-05	8e-05	0.0002	0.00103	-0.00022	-0.00029	-0.0008	6
25515	-3e-05	8e-05	8e-05	0.0002	0.00103	-0.00022	-0.00029	-0.0008	6
25516	-3e-05	8e-05	8e-05	0.0002	0.00103	-0.00022	-0.00029	-0.0008	6
25517	-3e-05	8e-05	8e-05	0.0002	0.00103	-0.00022	-0.00029	-0.0008	6
25518	2e-05	-4e-05	-2e-05	-0.00013	-0.00012	-0.00013	-5e-05	0	6
25519	2e-05	-4e-05	-2e-05	-0.00013	-0.00012	-0.00013	-5e-05	0	6
25520	2e-05	-4e-05	-2e-05	-0.00013	-0.00012	-0.00013	-5e-05	0	6
25521	2e-05	-4e-05	-2e-05	-0.00013	-0.00012	-0.00013	-5e-05	0	6
25522	2e-05	-4e-05	-2e-05	-0.00013	-0.00012	-0.00013	-5e-05	0	6
25523	2e-05	-4e-05	-2e-05	-0.00013	-0.00012	-0.00013	-5e-05	0	6
25524	2e-05	-4e-05	-2e-05	-0.00013	-0.00012	-0.00013	-5e-05	0	6
25525	2e-05	-4e-05	-2e-05	-0.00013	-0.00012	-0.00013	-5e-05	0	6
25526	2e-05	-4e-05	-2e-05	-0.00013	-0.00012	-0.00013	-5e-05	0	6
25527	2e-05	-4e-05	-2e-05	-0.00013	-0.00012	-0.00013	-5e-05	0	6
25528	2e-05	-4e-05	-2e-05	-0.00013	-0.00012	-0.00013	-5e-05	0	6
25529	2e-05	-4e-05	-2e-05	-0.00013	-0.00012	-0.00013	-5e-05	0	6
25530	2e-05	-4e-05	-2e-05	-0.00013	-0.00012	-0.00013	-5e-05	0	6
25531	2e-05	-4e-05	-2e-05	-0.00013	-0.00012	-0.00013	-5e-05	0	6
25532	2e-05	-4e-05	-2e-05	-0.00013	-0.00012	-0.00013	-5e-05	0	6
25533	-6e-05	-4e-05	-6e-05	-4e-05	0.00011	-0.00013	7e-05	1e-05	6
25534	-6e-05	-4e-05	-6e-05	-4e-05	0.00011	-0.00013	7e-05	1e-05	6
25535	0.00011	5e-05	5e-05	0.00012	0.00031	6e-05	8e-05	0.00017	6
25536	0.00011	5e-05	5e-05	0.00012	0.00031	6e-05	8e-05	0.00017	6
25538	0.00011	5e-05	5e-05	0.00012	0.00031	6e-05	8e-05	0.00017	6
25539	0.00011	5e-05	5e-05	0.00012	0.00031	6e-05	8e-05	0.00017	6
25540	0.00011	5e-05	5e-05	0.00012	0.00031	6e-05	8e-05	0.00017	6
25541	0.00011	5e-05	5e-05	0.00012	0.00031	6e-05	8e-05	0.00017	6
25542	0.00011	5e-05	5e-05	0.00012	0.00031	6e-05	8e-05	0.00017	6
25543	0.00011	5e-05	5e-05	0.00012	0.00031	6e-05	8e-05	0.00017	6
25544	0.00011	5e-05	5e-05	0.00012	0.00031	6e-05	8e-05	0.00017	6
25545	0.00011	5e-05	5e-05	0.00012	0.00031	6e-05	8e-05	0.00017	6
25546	0.00011	5e-05	5e-05	0.00012	0.00031	6e-05	8e-05	0.00017	6
25547	0.00011	5e-05	5e-05	0.00012	0.00031	6e-05	8e-05	0.00017	6
25548	0.00011	5e-05	5e-05	0.00012	0.00031	6e-05	8e-05	0.00017	6
25549	0.00011	5e-05	5e-05	0.00012	0.00031	6e-05	8e-05	0.00017	6
25550	0.00011	5e-05	5e-05	0.00012	0.00031	6e-05	8e-05	0.00017	6
25551	0.00011	5e-05	5e-05	0.00012	0.00031	6e-05	8e-05	0.00017	6
25552	0.00011	5e-05	5e-05	0.00012	0.00031	6e-05	8e-05	0.00017	6
25553	0.00011	5e-05	5e-05	0.00012	0.00031	6e-05	8e-05	0.00017	6
25554	0.00011	5e-05	5e-05	0.00012	0.00031	6e-05	8e-05	0.00017	6
25555	0.00011	5e-05	5e-05	0.00012	0.00031	6e-05	8e-05	0.00017	6
25556	-0.00011	-4e-05	-5e-05	-0.00014	-0.00049	0.00013	-0.00011	-0.00048	6
25557	0	-6e-05	-9e-05	-0.00016	-0.0006	-0.00013	-1e-05	0.00056	6
25558	0	-6e-05	-9e-05	-0.00016	-0.0006	-0.00013	-1e-05	0.00056	6
25559	0	-6e-05	-9e-05	-0.00016	-0.0006	-0.00013	-1e-05	0.00056	6
25560	0	-6e-05	-9e-05	-0.00016	-0.0006	-0.00013	-1e-05	0.00056	6
25561	0	-6e-05	-9e-05	-0.00016	-0.0006	-0.00013	-1e-05	0.00056	6
25562	0	-6e-05	-9e-05	-0.00016	-0.0006	-0.00013	-1e-05	0.00056	6
25563	0	-6e-05	-9e-05	-0.00016	-0.0006	-0.00013	-1e-05	0.00056	6
25564	0	-6e-05	-9e-05	-0.00016	-0.0006	-0.00013	-1e-05	0.00056	6
25565	0	-6e-05	-9e-05	-0.00016	-0.0006	-0.00013	-1e-05	0.00056	6
25566	0	-6e-05	-9e-05	-0.00016	-0.0006	-0.00013	-1e-05	0.00056	6
25567	0	-6e-05	-9e-05	-0.00016	-0.0006	-0.00013	-1e-05	0.00056	6
25568	0	-6e-05	-9e-05	-0.00016	-0.0006	-0.00013	-1e-05	0.00056	6
25569	0	-6e-05	-9e-05	-0.00016	-0.0006	-0.00013	-1e-05	0.00056	6
25570	0	-6e-05	-9e-05	-0.00016	-0.0006	-0.00013	-1e-05	0.00056	6
25571	0	-6e-05	-9e-05	-0.00016	-0.0006	-0.00013	-1e-05	0.00056	6
25572	0	-6e-05	-9e-05	-0.00016	-0.0006	-0.00013	-1e-05	0.00056	6
25573	0	-6e-05	-9e-05	-0.00016	-0.0006	-0.00013	-1e-05	0.00056	6
25574	0	-6e-05	-9e-05	-0.00016	-0.0006	-0.00013	-1e-05	0.00056	6
25575	0	-6e-05	-9e-05	-0.00016	-0.0006	-0.00013	-1e-05	0.00056	6
25576	0	-6e-05	-9e-05	-0.00016	-0.0006	-0.00013	-1e-05	0.00056	6
25577	0	-6e-05	-9e-05	-0.00016	-0.0006	-0.00013	-1e-05	0.00056	6
25578	-1e-05	-3e-05	-1e-05	-3e-05	-9e-05	-2e-05	0.00014	0.00051	6
25579	-1e-05	-3e-05	-1e-05	-3e-05	-9e-05	-2e-05	0.00014	0.00051	6
25580	1e-05	0	0	0.0001	0.00051	-0.00018	2e-05	0.00014	6
25581	1e-05	0	0	0.0001	0.00051	-0.00018	2e-05	0.00014	6
25582	1e-05	0	0	0.0001	0.00051	-0.00018	2e-05	0.00014	6
25583	1e-05	0	0	0.0001	0.00051	-0.00018	2e-05	0.00014	6
25584	1e-05	0	0	0.0001	0.00051	-0.00018	2e-05	0.00014	6
25585	1e-05	0	0	0.0001	0.00051	-0.00018	2e-05	0.00014	6
25586	1e-05	0	0	0.0001	0.00051	-0.00018	2e-05	0.00014	6
25588	1e-05	0	0	0.0001	0.00051	-0.00018	2e-05	0.00014	6
25589	1e-05	0	0	0.0001	0.00051	-0.00018	2e-05	0.00014	6
25590	1e-05	0	0	0.0001	0.00051	-0.00018	2e-05	0.00014	6
25591	1e-05	0	0	0.0001	0.00051	-0.00018	2e-05	0.00014	6
25592	1e-05	0	0	0.0001	0.00051	-0.00018	2e-05	0.00014	6
25593	-6e-05	-3e-05	-3e-05	-6e-05	-0.00052	0.00011	4e-05	0.00043	6
25594	-6e-05	-3e-05	-3e-05	-6e-05	-0.00052	0.00011	4e-05	0.00043	6
25595	-0.0001	1e-05	0	-2e-05	-0.00011	0.00013	0.00014	-0.00027	6
25596	-0.0001	1e-05	0	-2e-05	-0.00011	0.00013	0.00014	-0.00027	6
25597	-0.0001	1e-05	0	-2e-05	-0.00011	0.00013	0.00014	-0.00027	6
25598	-0.0001	1e-05	0	-2e-05	-0.00011	0.00013	0.00014	-0.00027	6
25599	-0.0001	1e-05	0	-2e-05	-0.00011	0.00013	0.00014	-0.00027	6
25600	-0.0001	1e-05	0	-2e-05	-0.00011	0.00013	0.00014	-0.00027	6
25601	-0.0001	1e-05	0	-2e-05	-0.00011	0.00013	0.00014	-0.00027	6
25602	-0.0001	1e-05	0	-2e-05	-0.00011	0.00013	0.00014	-0.00027	6
25603	-0.0001	1e-05	0	-2e-05	-0.00011	0.00013	0.00014	-0.00027	6
25604	-0.0001	1e-05	0	-2e-05	-0.00011	0.00013	0.00014	-0.00027	6
25605	-0.0001	1e-05	0	-2e-05	-0.00011	0.00013	0.00014	-0.00027	6
25606	-0.0001	1e-05	0	-2e-05	-0.00011	0.00013	0.00014	-0.00027	6
25607	-0.0001	1e-05	0	-2e-05	-0.00011	0.00013	0.00014	-0.00027	6
25608	-0.0001	1e-05	0	-2e-05	-0.00011	0.00013	0.00014	-0.00027	6
25609	-0.0001	1e-05	0	-2e-05	-0.00011	0.00013	0.00014	-0.00027	6
25610	-0.0001	1e-05	0	-2e-05	-0.00011	0.00013	0.00014	-0.00027	6
25611	-0.0001	1e-05	0	-2e-05	-0.00011	0.00013	0.00014	-0.00027	6
25612	-0.0001	1e-05	0	-2e-05	-0.00011	0.00013	0.00014	-0.00027	6
25613	-0.0001	1e-05	0	-2e-05	-0.00011	0.00013	0.00014	-0.00027	6
25614	-0.0001	1e-05	0	-2e-05	-0.00011	0.00013	0.00014	-0.00027	6
25615	-0.0001	1e-05	0	-2e-05	-0.00011	0.00013	0.00014	-0.00027	6
25616	1e-05	-1e-05	-5e-05	-9e-05	-0.00029	0.00022	0.00029	0.00082	6
25617	6e-05	-2e-05	-7e-05	-0.00019	-0.00058	-4e-05	5e-05	0.00055	6
25618	-2e-05	1e-05	-3e-05	3e-05	0.00053	1e-05	-7e-05	-0.00043	6
25619	-2e-05	1e-05	-3e-05	3e-05	0.00053	1e-05	-7e-05	-0.00043	6
25620	-2e-05	1e-05	-3e-05	3e-05	0.00053	1e-05	-7e-05	-0.00043	6
25621	-2e-05	1e-05	-3e-05	3e-05	0.00053	1e-05	-7e-05	-0.00043	6
25622	-2e-05	1e-05	-3e-05	3e-05	0.00053	1e-05	-7e-05	-0.00043	6
25623	-2e-05	1e-05	-3e-05	3e-05	0.00053	1e-05	-7e-05	-0.00043	6
25625	-2e-05	1e-05	-3e-05	3e-05	0.00053	1e-05	-7e-05	-0.00043	6
25626	-2e-05	1e-05	-3e-05	3e-05	0.00053	1e-05	-7e-05	-0.00043	6
25627	-2e-05	1e-05	-3e-05	3e-05	0.00053	1e-05	-7e-05	-0.00043	6
25628	-2e-05	1e-05	-3e-05	3e-05	0.00053	1e-05	-7e-05	-0.00043	6
25629	-2e-05	1e-05	-3e-05	3e-05	0.00053	1e-05	-7e-05	-0.00043	6
25630	-2e-05	1e-05	-3e-05	3e-05	0.00053	1e-05	-7e-05	-0.00043	6
25631	-2e-05	1e-05	-3e-05	3e-05	0.00053	1e-05	-7e-05	-0.00043	6
25632	-2e-05	1e-05	-3e-05	3e-05	0.00053	1e-05	-7e-05	-0.00043	6
25633	-2e-05	1e-05	-3e-05	3e-05	0.00053	1e-05	-7e-05	-0.00043	6
25634	-2e-05	1e-05	-3e-05	3e-05	0.00053	1e-05	-7e-05	-0.00043	6
25635	-2e-05	1e-05	-3e-05	3e-05	0.00053	1e-05	-7e-05	-0.00043	6
25636	-2e-05	1e-05	-3e-05	3e-05	0.00053	1e-05	-7e-05	-0.00043	6
25638	0.00012	-3e-05	3e-05	0.00011	-0.00045	5e-05	-0.00013	9e-05	6
25639	0.00012	-3e-05	3e-05	0.00011	-0.00045	5e-05	-0.00013	9e-05	6
25640	6e-05	1e-05	-4e-05	-0.00011	-0.00018	0.00012	8e-05	0.00034	6
25641	6e-05	1e-05	-4e-05	-0.00011	-0.00018	0.00012	8e-05	0.00034	6
25642	6e-05	1e-05	-4e-05	-0.00011	-0.00018	0.00012	8e-05	0.00034	6
25643	6e-05	1e-05	-4e-05	-0.00011	-0.00018	0.00012	8e-05	0.00034	6
25644	6e-05	1e-05	-4e-05	-0.00011	-0.00018	0.00012	8e-05	0.00034	6
25645	6e-05	1e-05	-4e-05	-0.00011	-0.00018	0.00012	8e-05	0.00034	6
25646	6e-05	1e-05	-4e-05	-0.00011	-0.00018	0.00012	8e-05	0.00034	6
25647	6e-05	1e-05	-4e-05	-0.00011	-0.00018	0.00012	8e-05	0.00034	6
25648	6e-05	1e-05	-4e-05	-0.00011	-0.00018	0.00012	8e-05	0.00034	6
25649	6e-05	1e-05	-4e-05	-0.00011	-0.00018	0.00012	8e-05	0.00034	6
25650	6e-05	1e-05	-4e-05	-0.00011	-0.00018	0.00012	8e-05	0.00034	6
25651	6e-05	1e-05	-4e-05	-0.00011	-0.00018	0.00012	8e-05	0.00034	6
25652	6e-05	1e-05	-4e-05	-0.00011	-0.00018	0.00012	8e-05	0.00034	6
25653	-0.0002	-1e-05	-4e-05	-9e-05	-9e-05	-0.00012	-0.00029	-0.00024	6
25654	-0.0002	-1e-05	-4e-05	-9e-05	-9e-05	-0.00012	-0.00029	-0.00024	6
25655	-0.0001	-3e-05	-1e-05	0	-0.00031	6e-05	-3e-05	-0.00051	6
25656	-0.0001	-3e-05	-1e-05	0	-0.00031	6e-05	-3e-05	-0.00051	6
25657	-0.0001	-3e-05	-1e-05	0	-0.00031	6e-05	-3e-05	-0.00051	6
25658	-0.0001	-3e-05	-1e-05	0	-0.00031	6e-05	-3e-05	-0.00051	6
25659	-0.0001	-3e-05	-1e-05	0	-0.00031	6e-05	-3e-05	-0.00051	6
25660	-0.0001	-3e-05	-1e-05	0	-0.00031	6e-05	-3e-05	-0.00051	6
25661	-0.0001	-3e-05	-1e-05	0	-0.00031	6e-05	-3e-05	-0.00051	6
25662	-0.0001	-3e-05	-1e-05	0	-0.00031	6e-05	-3e-05	-0.00051	6
25663	-0.0001	-3e-05	-1e-05	0	-0.00031	6e-05	-3e-05	-0.00051	6
25664	-0.0001	-3e-05	-1e-05	0	-0.00031	6e-05	-3e-05	-0.00051	6
25665	-0.0001	-3e-05	-1e-05	0	-0.00031	6e-05	-3e-05	-0.00051	6
25666	-0.0001	-3e-05	-1e-05	0	-0.00031	6e-05	-3e-05	-0.00051	6
25667	-0.0001	-3e-05	-1e-05	0	-0.00031	6e-05	-3e-05	-0.00051	6
25668	-0.0001	-3e-05	-1e-05	0	-0.00031	6e-05	-3e-05	-0.00051	6
25669	-0.0001	-3e-05	-1e-05	0	-0.00031	6e-05	-3e-05	-0.00051	6
25670	-0.0001	-3e-05	-1e-05	0	-0.00031	6e-05	-3e-05	-0.00051	6
25671	-0.0001	-3e-05	-1e-05	0	-0.00031	6e-05	-3e-05	-0.00051	6
25672	-0.0001	-3e-05	-1e-05	0	-0.00031	6e-05	-3e-05	-0.00051	6
25673	-0.0001	-3e-05	-1e-05	0	-0.00031	6e-05	-3e-05	-0.00051	6
25674	-0.0001	-3e-05	-1e-05	0	-0.00031	6e-05	-3e-05	-0.00051	6
25675	-0.0001	-3e-05	-1e-05	0	-0.00031	6e-05	-3e-05	-0.00051	6
25676	3e-05	-1e-05	-1e-05	0	0.00027	-0.00036	-5e-05	-0.00027	6
25677	3e-05	4e-05	2e-05	0.0001	0.00072	3e-05	0	-4e-05	6
25678	3e-05	4e-05	2e-05	0.0001	0.00072	3e-05	0	-4e-05	6
25679	3e-05	4e-05	2e-05	0.0001	0.00072	3e-05	0	-4e-05	6
25680	3e-05	4e-05	2e-05	0.0001	0.00072	3e-05	0	-4e-05	6
25681	3e-05	4e-05	2e-05	0.0001	0.00072	3e-05	0	-4e-05	6
25682	3e-05	4e-05	2e-05	0.0001	0.00072	3e-05	0	-4e-05	6
25683	3e-05	4e-05	2e-05	0.0001	0.00072	3e-05	0	-4e-05	6
25684	3e-05	4e-05	2e-05	0.0001	0.00072	3e-05	0	-4e-05	6
25685	3e-05	4e-05	2e-05	0.0001	0.00072	3e-05	0	-4e-05	6
25686	3e-05	4e-05	2e-05	0.0001	0.00072	3e-05	0	-4e-05	6
25688	3e-05	4e-05	2e-05	0.0001	0.00072	3e-05	0	-4e-05	6
25689	3e-05	4e-05	2e-05	0.0001	0.00072	3e-05	0	-4e-05	6
25690	3e-05	4e-05	2e-05	0.0001	0.00072	3e-05	0	-4e-05	6
25691	3e-05	4e-05	2e-05	0.0001	0.00072	3e-05	0	-4e-05	6
25692	3e-05	4e-05	2e-05	0.0001	0.00072	3e-05	0	-4e-05	6
25693	3e-05	4e-05	2e-05	0.0001	0.00072	3e-05	0	-4e-05	6
25694	3e-05	4e-05	2e-05	0.0001	0.00072	3e-05	0	-4e-05	6
25695	3e-05	4e-05	2e-05	0.0001	0.00072	3e-05	0	-4e-05	6
25696	3e-05	4e-05	2e-05	0.0001	0.00072	3e-05	0	-4e-05	6
25697	3e-05	4e-05	2e-05	0.0001	0.00072	3e-05	0	-4e-05	6
25698	0.00017	3e-05	4e-05	2e-05	0.00041	-0.0002	-0.00011	0.00096	6
25699	0.00017	3e-05	4e-05	2e-05	0.00041	-0.0002	-0.00011	0.00096	6
25700	-5e-05	0	-2e-05	-0.00013	-0.00083	-0.00066	-0.0001	-0.00018	6
25701	-5e-05	0	-2e-05	-0.00013	-0.00083	-0.00066	-0.0001	-0.00018	6
25702	-5e-05	0	-2e-05	-0.00013	-0.00083	-0.00066	-0.0001	-0.00018	6
25703	-5e-05	0	-2e-05	-0.00013	-0.00083	-0.00066	-0.0001	-0.00018	6
25704	-5e-05	0	-2e-05	-0.00013	-0.00083	-0.00066	-0.0001	-0.00018	6
25705	-5e-05	0	-2e-05	-0.00013	-0.00083	-0.00066	-0.0001	-0.00018	6
25706	-5e-05	0	-2e-05	-0.00013	-0.00083	-0.00066	-0.0001	-0.00018	6
25707	-5e-05	0	-2e-05	-0.00013	-0.00083	-0.00066	-0.0001	-0.00018	6
25708	-5e-05	0	-2e-05	-0.00013	-0.00083	-0.00066	-0.0001	-0.00018	6
25709	-5e-05	0	-2e-05	-0.00013	-0.00083	-0.00066	-0.0001	-0.00018	6
25710	-5e-05	0	-2e-05	-0.00013	-0.00083	-0.00066	-0.0001	-0.00018	6
25711	-5e-05	0	-2e-05	-0.00013	-0.00083	-0.00066	-0.0001	-0.00018	6
25712	-5e-05	0	-2e-05	-0.00013	-0.00083	-0.00066	-0.0001	-0.00018	6
25713	-0.00029	-0.00011	-0.00015	-0.00034	-0.00097	-0.00038	-0.00012	-0.00098	6
25714	-0.00029	-0.00011	-0.00015	-0.00034	-0.00097	-0.00038	-0.00012	-0.00098	6
25715	8e-05	1e-05	1e-05	8e-05	0.00018	0.00011	-0.00026	0.0003	6
25716	8e-05	1e-05	1e-05	8e-05	0.00018	0.00011	-0.00026	0.0003	6
25717	8e-05	1e-05	1e-05	8e-05	0.00018	0.00011	-0.00026	0.0003	6
25718	8e-05	1e-05	1e-05	8e-05	0.00018	0.00011	-0.00026	0.0003	6
25719	8e-05	1e-05	1e-05	8e-05	0.00018	0.00011	-0.00026	0.0003	6
25720	8e-05	1e-05	1e-05	8e-05	0.00018	0.00011	-0.00026	0.0003	6
25721	8e-05	1e-05	1e-05	8e-05	0.00018	0.00011	-0.00026	0.0003	6
25722	8e-05	1e-05	1e-05	8e-05	0.00018	0.00011	-0.00026	0.0003	6
25723	8e-05	1e-05	1e-05	8e-05	0.00018	0.00011	-0.00026	0.0003	6
25724	8e-05	1e-05	1e-05	8e-05	0.00018	0.00011	-0.00026	0.0003	6
25725	8e-05	1e-05	1e-05	8e-05	0.00018	0.00011	-0.00026	0.0003	6
25726	8e-05	1e-05	1e-05	8e-05	0.00018	0.00011	-0.00026	0.0003	6
25727	8e-05	1e-05	1e-05	8e-05	0.00018	0.00011	-0.00026	0.0003	6
25728	8e-05	1e-05	1e-05	8e-05	0.00018	0.00011	-0.00026	0.0003	6
25729	8e-05	1e-05	1e-05	8e-05	0.00018	0.00011	-0.00026	0.0003	6
25730	8e-05	1e-05	1e-05	8e-05	0.00018	0.00011	-0.00026	0.0003	6
25731	8e-05	1e-05	1e-05	8e-05	0.00018	0.00011	-0.00026	0.0003	6
25732	8e-05	1e-05	1e-05	8e-05	0.00018	0.00011	-0.00026	0.0003	6
25733	8e-05	1e-05	1e-05	8e-05	0.00018	0.00011	-0.00026	0.0003	6
25734	8e-05	1e-05	1e-05	8e-05	0.00018	0.00011	-0.00026	0.0003	6
25735	8e-05	1e-05	1e-05	8e-05	0.00018	0.00011	-0.00026	0.0003	6
25736	-5e-05	0	-3e-05	-1e-05	0.00019	0.00049	8e-05	-0.00019	6
25738	5e-05	4e-05	2e-05	0.00013	0.00087	-0.00022	6e-05	0.0002	6
25740	5e-05	4e-05	2e-05	0.00013	0.00087	-0.00022	6e-05	0.0002	6
25741	5e-05	4e-05	2e-05	0.00013	0.00087	-0.00022	6e-05	0.0002	6
25742	5e-05	4e-05	2e-05	0.00013	0.00087	-0.00022	6e-05	0.0002	6
25743	5e-05	4e-05	2e-05	0.00013	0.00087	-0.00022	6e-05	0.0002	6
25744	5e-05	4e-05	2e-05	0.00013	0.00087	-0.00022	6e-05	0.0002	6
25745	5e-05	4e-05	2e-05	0.00013	0.00087	-0.00022	6e-05	0.0002	6
25746	5e-05	4e-05	2e-05	0.00013	0.00087	-0.00022	6e-05	0.0002	6
25747	5e-05	4e-05	2e-05	0.00013	0.00087	-0.00022	6e-05	0.0002	6
25748	5e-05	4e-05	2e-05	0.00013	0.00087	-0.00022	6e-05	0.0002	6
25749	5e-05	4e-05	2e-05	0.00013	0.00087	-0.00022	6e-05	0.0002	6
25750	5e-05	4e-05	2e-05	0.00013	0.00087	-0.00022	6e-05	0.0002	6
25751	5e-05	4e-05	2e-05	0.00013	0.00087	-0.00022	6e-05	0.0002	6
25752	5e-05	4e-05	2e-05	0.00013	0.00087	-0.00022	6e-05	0.0002	6
25753	5e-05	4e-05	2e-05	0.00013	0.00087	-0.00022	6e-05	0.0002	6
25754	5e-05	4e-05	2e-05	0.00013	0.00087	-0.00022	6e-05	0.0002	6
25755	5e-05	4e-05	2e-05	0.00013	0.00087	-0.00022	6e-05	0.0002	6
25756	5e-05	4e-05	2e-05	0.00013	0.00087	-0.00022	6e-05	0.0002	6
25757	5e-05	4e-05	2e-05	0.00013	0.00087	-0.00022	6e-05	0.0002	6
25758	2e-05	1e-05	0	1e-05	-0.00021	-7e-05	-8e-05	-0.00012	6
25759	2e-05	1e-05	0	1e-05	-0.00021	-7e-05	-8e-05	-0.00012	6
25760	8e-05	1e-05	1e-05	-0.00011	-0.00037	0.00032	0.00011	0.00012	6
25761	8e-05	1e-05	1e-05	-0.00011	-0.00037	0.00032	0.00011	0.00012	6
25762	8e-05	1e-05	1e-05	-0.00011	-0.00037	0.00032	0.00011	0.00012	6
25763	8e-05	1e-05	1e-05	-0.00011	-0.00037	0.00032	0.00011	0.00012	6
25764	8e-05	1e-05	1e-05	-0.00011	-0.00037	0.00032	0.00011	0.00012	6
25765	8e-05	1e-05	1e-05	-0.00011	-0.00037	0.00032	0.00011	0.00012	6
25766	8e-05	1e-05	1e-05	-0.00011	-0.00037	0.00032	0.00011	0.00012	6
25767	8e-05	1e-05	1e-05	-0.00011	-0.00037	0.00032	0.00011	0.00012	6
25768	8e-05	1e-05	1e-05	-0.00011	-0.00037	0.00032	0.00011	0.00012	6
25769	8e-05	1e-05	1e-05	-0.00011	-0.00037	0.00032	0.00011	0.00012	6
25770	8e-05	1e-05	1e-05	-0.00011	-0.00037	0.00032	0.00011	0.00012	6
25771	8e-05	1e-05	1e-05	-0.00011	-0.00037	0.00032	0.00011	0.00012	6
25772	8e-05	1e-05	1e-05	-0.00011	-0.00037	0.00032	0.00011	0.00012	6
25773	0	-2e-05	1e-05	0.0001	0.00057	0.00015	0.00013	-0.00011	6
25775	0	-2e-05	1e-05	0.0001	0.00057	0.00015	0.00013	-0.00011	6
25776	0	-2e-05	1e-05	0.0001	0.00057	0.00015	0.00013	-0.00011	6
25777	0	-2e-05	1e-05	0.0001	0.00057	0.00015	0.00013	-0.00011	6
25778	0	-2e-05	1e-05	0.0001	0.00057	0.00015	0.00013	-0.00011	6
25779	-0.00012	-4e-05	-2e-05	-7e-05	0.00016	-2e-05	-0.0001	-0.0005	6
25781	-0.00012	-4e-05	-2e-05	-7e-05	0.00016	-2e-05	-0.0001	-0.0005	6
25782	-0.00012	-4e-05	-2e-05	-7e-05	0.00016	-2e-05	-0.0001	-0.0005	6
25783	-0.00012	-4e-05	-2e-05	-7e-05	0.00016	-2e-05	-0.0001	-0.0005	6
25784	-0.00012	-4e-05	-2e-05	-7e-05	0.00016	-2e-05	-0.0001	-0.0005	6
25785	-0.00012	-4e-05	-2e-05	-7e-05	0.00016	-2e-05	-0.0001	-0.0005	6
25786	-0.00012	-4e-05	-2e-05	-7e-05	0.00016	-2e-05	-0.0001	-0.0005	6
25788	-0.00012	-4e-05	-2e-05	-7e-05	0.00016	-2e-05	-0.0001	-0.0005	6
25789	-0.00012	-4e-05	-2e-05	-7e-05	0.00016	-2e-05	-0.0001	-0.0005	6
25790	-0.00012	-4e-05	-2e-05	-7e-05	0.00016	-2e-05	-0.0001	-0.0005	6
25791	-0.00012	-4e-05	-2e-05	-7e-05	0.00016	-2e-05	-0.0001	-0.0005	6
25792	-0.00012	-4e-05	-2e-05	-7e-05	0.00016	-2e-05	-0.0001	-0.0005	6
25793	-0.00012	-4e-05	-2e-05	-7e-05	0.00016	-2e-05	-0.0001	-0.0005	6
25794	-0.00012	-4e-05	-2e-05	-7e-05	0.00016	-2e-05	-0.0001	-0.0005	6
25795	-0.00012	-4e-05	-2e-05	-7e-05	0.00016	-2e-05	-0.0001	-0.0005	6
25796	4e-05	-2e-05	1e-05	2e-05	-9e-05	-0.0001	-1e-05	-0.00013	6
25797	-0.0001	-2e-05	-2e-05	-3e-05	5e-05	0.00014	-6e-05	-0.00014	6
25799	-0.0001	-2e-05	-2e-05	-3e-05	5e-05	0.00014	-6e-05	-0.00014	6
25800	-0.0001	-2e-05	-2e-05	-3e-05	5e-05	0.00014	-6e-05	-0.00014	6
25801	-0.0001	-2e-05	-2e-05	-3e-05	5e-05	0.00014	-6e-05	-0.00014	6
25802	-0.0001	-2e-05	-2e-05	-3e-05	5e-05	0.00014	-6e-05	-0.00014	6
25803	-0.0001	-2e-05	-2e-05	-3e-05	5e-05	0.00014	-6e-05	-0.00014	6
25804	-0.0001	-2e-05	-2e-05	-3e-05	5e-05	0.00014	-6e-05	-0.00014	6
25805	-0.0001	-2e-05	-2e-05	-3e-05	5e-05	0.00014	-6e-05	-0.00014	6
25806	-0.0001	-2e-05	-2e-05	-3e-05	5e-05	0.00014	-6e-05	-0.00014	6
25807	-0.0001	-2e-05	-2e-05	-3e-05	5e-05	0.00014	-6e-05	-0.00014	6
25808	-0.0001	-2e-05	-2e-05	-3e-05	5e-05	0.00014	-6e-05	-0.00014	6
25809	-0.0001	-2e-05	-2e-05	-3e-05	5e-05	0.00014	-6e-05	-0.00014	6
25810	-0.0001	-2e-05	-2e-05	-3e-05	5e-05	0.00014	-6e-05	-0.00014	6
25811	-0.0001	-2e-05	-2e-05	-3e-05	5e-05	0.00014	-6e-05	-0.00014	6
25812	-0.0001	-2e-05	-2e-05	-3e-05	5e-05	0.00014	-6e-05	-0.00014	6
25813	-0.0001	-2e-05	-2e-05	-3e-05	5e-05	0.00014	-6e-05	-0.00014	6
25814	-0.0001	-2e-05	-2e-05	-3e-05	5e-05	0.00014	-6e-05	-0.00014	6
25815	-0.0001	-2e-05	-2e-05	-3e-05	5e-05	0.00014	-6e-05	-0.00014	6
25816	-0.0001	-2e-05	-2e-05	-3e-05	5e-05	0.00014	-6e-05	-0.00014	6
25817	-0.0001	-2e-05	-2e-05	-3e-05	5e-05	0.00014	-6e-05	-0.00014	6
25818	0.00013	0	4e-05	6e-05	3e-05	0.00016	0.0002	0.00053	6
25819	0.00013	0	4e-05	6e-05	3e-05	0.00016	0.0002	0.00053	6
25820	0.00011	5e-05	4e-05	2e-05	-0.00058	-2e-05	-0.00017	0.0006	6
25821	0.00011	5e-05	4e-05	2e-05	-0.00058	-2e-05	-0.00017	0.0006	6
25822	0.00011	5e-05	4e-05	2e-05	-0.00058	-2e-05	-0.00017	0.0006	6
25823	0.00011	5e-05	4e-05	2e-05	-0.00058	-2e-05	-0.00017	0.0006	6
25824	0.00011	5e-05	4e-05	2e-05	-0.00058	-2e-05	-0.00017	0.0006	6
25825	0.00011	5e-05	4e-05	2e-05	-0.00058	-2e-05	-0.00017	0.0006	6
25826	0.00011	5e-05	4e-05	2e-05	-0.00058	-2e-05	-0.00017	0.0006	6
25827	0.00011	5e-05	4e-05	2e-05	-0.00058	-2e-05	-0.00017	0.0006	6
25828	0.00011	5e-05	4e-05	2e-05	-0.00058	-2e-05	-0.00017	0.0006	6
25829	0.00011	5e-05	4e-05	2e-05	-0.00058	-2e-05	-0.00017	0.0006	6
25830	0.00011	5e-05	4e-05	2e-05	-0.00058	-2e-05	-0.00017	0.0006	6
25831	0.00011	5e-05	4e-05	2e-05	-0.00058	-2e-05	-0.00017	0.0006	6
25832	6e-05	-6e-05	-4e-05	-2e-05	-4e-05	-0.00034	-0.00015	2e-05	6
25833	-2e-05	1e-05	0	-1e-05	-0.00021	0.00023	0.00013	0	6
25835	-2e-05	1e-05	0	-1e-05	-0.00021	0.00023	0.00013	0	6
25836	-2e-05	1e-05	0	-1e-05	-0.00021	0.00023	0.00013	0	6
25838	-2e-05	1e-05	0	-1e-05	-0.00021	0.00023	0.00013	0	6
25839	-5e-05	0	-1e-05	3e-05	-0.0001	-0.00028	-2e-05	-1e-05	6
25840	-5e-05	0	-1e-05	3e-05	-0.0001	-0.00028	-2e-05	-1e-05	6
25841	-5e-05	0	-1e-05	3e-05	-0.0001	-0.00028	-2e-05	-1e-05	6
25842	-5e-05	0	-1e-05	3e-05	-0.0001	-0.00028	-2e-05	-1e-05	6
25843	-5e-05	0	-1e-05	3e-05	-0.0001	-0.00028	-2e-05	-1e-05	6
25844	-5e-05	0	-1e-05	3e-05	-0.0001	-0.00028	-2e-05	-1e-05	6
25845	-5e-05	0	-1e-05	3e-05	-0.0001	-0.00028	-2e-05	-1e-05	6
25846	-5e-05	0	-1e-05	3e-05	-0.0001	-0.00028	-2e-05	-1e-05	6
25847	-5e-05	0	-1e-05	3e-05	-0.0001	-0.00028	-2e-05	-1e-05	6
25848	-5e-05	0	-1e-05	3e-05	-0.0001	-0.00028	-2e-05	-1e-05	6
25849	-5e-05	0	-1e-05	3e-05	-0.0001	-0.00028	-2e-05	-1e-05	6
25850	-5e-05	0	-1e-05	3e-05	-0.0001	-0.00028	-2e-05	-1e-05	6
25851	-5e-05	0	-1e-05	3e-05	-0.0001	-0.00028	-2e-05	-1e-05	6
25852	-5e-05	0	-1e-05	3e-05	-0.0001	-0.00028	-2e-05	-1e-05	6
25853	-5e-05	0	-1e-05	3e-05	-0.0001	-0.00028	-2e-05	-1e-05	6
25854	-5e-05	0	-1e-05	3e-05	-0.0001	-0.00028	-2e-05	-1e-05	6
25855	-5e-05	0	-1e-05	3e-05	-0.0001	-0.00028	-2e-05	-1e-05	6
25856	-1e-05	4e-05	7e-05	0.0002	0.00063	0.00058	0.00026	-0.00057	6
25857	-0.00017	-2e-05	-4e-05	-5e-05	-0.00025	0.00033	0.00012	-0.00027	6
25858	-0.00017	-2e-05	-4e-05	-5e-05	-0.00025	0.00033	0.00012	-0.00027	6
25859	-0.00017	-2e-05	-4e-05	-5e-05	-0.00025	0.00033	0.00012	-0.00027	6
25860	-0.00017	-2e-05	-4e-05	-5e-05	-0.00025	0.00033	0.00012	-0.00027	6
25861	-0.00017	-2e-05	-4e-05	-5e-05	-0.00025	0.00033	0.00012	-0.00027	6
25862	-0.00017	-2e-05	-4e-05	-5e-05	-0.00025	0.00033	0.00012	-0.00027	6
25863	-0.00017	-2e-05	-4e-05	-5e-05	-0.00025	0.00033	0.00012	-0.00027	6
25864	-0.00017	-2e-05	-4e-05	-5e-05	-0.00025	0.00033	0.00012	-0.00027	6
25865	-0.00017	-2e-05	-4e-05	-5e-05	-0.00025	0.00033	0.00012	-0.00027	6
25866	-0.00017	-2e-05	-4e-05	-5e-05	-0.00025	0.00033	0.00012	-0.00027	6
25867	-0.00017	-2e-05	-4e-05	-5e-05	-0.00025	0.00033	0.00012	-0.00027	6
25868	-0.00017	-2e-05	-4e-05	-5e-05	-0.00025	0.00033	0.00012	-0.00027	6
25869	-0.00017	-2e-05	-4e-05	-5e-05	-0.00025	0.00033	0.00012	-0.00027	6
25870	-0.00017	-2e-05	-4e-05	-5e-05	-0.00025	0.00033	0.00012	-0.00027	6
25871	-0.00017	-2e-05	-4e-05	-5e-05	-0.00025	0.00033	0.00012	-0.00027	6
25872	-0.00017	-2e-05	-4e-05	-5e-05	-0.00025	0.00033	0.00012	-0.00027	6
25873	-0.00017	-2e-05	-4e-05	-5e-05	-0.00025	0.00033	0.00012	-0.00027	6
25874	-0.00017	-2e-05	-4e-05	-5e-05	-0.00025	0.00033	0.00012	-0.00027	6
25875	-0.00017	-2e-05	-4e-05	-5e-05	-0.00025	0.00033	0.00012	-0.00027	6
25876	-0.00017	-2e-05	-4e-05	-5e-05	-0.00025	0.00033	0.00012	-0.00027	6
25877	-0.00017	-2e-05	-4e-05	-5e-05	-0.00025	0.00033	0.00012	-0.00027	6
25878	-7e-05	-6e-05	-8e-05	-9e-05	4e-05	-0.00043	-0.00023	0.00012	6
25879	-7e-05	-6e-05	-8e-05	-9e-05	4e-05	-0.00043	-0.00023	0.00012	6
25880	1e-05	-2e-05	-2e-05	-3e-05	1e-05	-0.00042	0	2e-05	6
25881	1e-05	-2e-05	-2e-05	-3e-05	1e-05	-0.00042	0	2e-05	6
25882	1e-05	-2e-05	-2e-05	-3e-05	1e-05	-0.00042	0	2e-05	6
25883	1e-05	-2e-05	-2e-05	-3e-05	1e-05	-0.00042	0	2e-05	6
25884	1e-05	-2e-05	-2e-05	-3e-05	1e-05	-0.00042	0	2e-05	6
25885	1e-05	-2e-05	-2e-05	-3e-05	1e-05	-0.00042	0	2e-05	6
25886	1e-05	-2e-05	-2e-05	-3e-05	1e-05	-0.00042	0	2e-05	6
25888	1e-05	-2e-05	-2e-05	-3e-05	1e-05	-0.00042	0	2e-05	6
25889	1e-05	-2e-05	-2e-05	-3e-05	1e-05	-0.00042	0	2e-05	6
25890	1e-05	-2e-05	-2e-05	-3e-05	1e-05	-0.00042	0	2e-05	6
25891	1e-05	-2e-05	-2e-05	-3e-05	1e-05	-0.00042	0	2e-05	6
25892	1e-05	-2e-05	-2e-05	-3e-05	1e-05	-0.00042	0	2e-05	6
25893	-4e-05	-3e-05	-6e-05	-0.00018	-0.00058	0.00026	0.00013	-4e-05	6
25895	-4e-05	-3e-05	-6e-05	-0.00018	-0.00058	0.00026	0.00013	-4e-05	6
25896	-4e-05	-3e-05	-6e-05	-0.00018	-0.00058	0.00026	0.00013	-4e-05	6
25897	-4e-05	-3e-05	-6e-05	-0.00018	-0.00058	0.00026	0.00013	-4e-05	6
25898	-4e-05	-3e-05	-6e-05	-0.00018	-0.00058	0.00026	0.00013	-4e-05	6
25899	-3e-05	3e-05	2e-05	0.00013	0.00066	-0.00013	4e-05	-0.00011	6
25900	-6e-05	-6e-05	-2e-05	2e-05	6e-05	-0.00021	7e-05	-0.00027	6
25901	-6e-05	-6e-05	-2e-05	2e-05	6e-05	-0.00021	7e-05	-0.00027	6
25902	-6e-05	-6e-05	-2e-05	2e-05	6e-05	-0.00021	7e-05	-0.00027	6
25903	-6e-05	-6e-05	-2e-05	2e-05	6e-05	-0.00021	7e-05	-0.00027	6
25904	-6e-05	-6e-05	-2e-05	2e-05	6e-05	-0.00021	7e-05	-0.00027	6
25905	-6e-05	-6e-05	-2e-05	2e-05	6e-05	-0.00021	7e-05	-0.00027	6
25906	-6e-05	-6e-05	-2e-05	2e-05	6e-05	-0.00021	7e-05	-0.00027	6
25907	-6e-05	-6e-05	-2e-05	2e-05	6e-05	-0.00021	7e-05	-0.00027	6
25908	-6e-05	-6e-05	-2e-05	2e-05	6e-05	-0.00021	7e-05	-0.00027	6
25909	-6e-05	-6e-05	-2e-05	2e-05	6e-05	-0.00021	7e-05	-0.00027	6
25910	-6e-05	-6e-05	-2e-05	2e-05	6e-05	-0.00021	7e-05	-0.00027	6
25911	-6e-05	-6e-05	-2e-05	2e-05	6e-05	-0.00021	7e-05	-0.00027	6
25912	-6e-05	-6e-05	-2e-05	2e-05	6e-05	-0.00021	7e-05	-0.00027	6
25913	-6e-05	-6e-05	-2e-05	2e-05	6e-05	-0.00021	7e-05	-0.00027	6
25914	-6e-05	-6e-05	-2e-05	2e-05	6e-05	-0.00021	7e-05	-0.00027	6
25915	-6e-05	-6e-05	-2e-05	2e-05	6e-05	-0.00021	7e-05	-0.00027	6
25916	0.00017	4e-05	4e-05	8e-05	0.00035	-0.00021	-0.00017	0.0004	6
25917	-3e-05	-3e-05	-3e-05	-4e-05	-0.00012	0.00032	-3e-05	0.00066	6
25918	-3e-05	-3e-05	-3e-05	-4e-05	-0.00012	0.00032	-3e-05	0.00066	6
25919	-3e-05	-3e-05	-3e-05	-4e-05	-0.00012	0.00032	-3e-05	0.00066	6
25920	-3e-05	-3e-05	-3e-05	-4e-05	-0.00012	0.00032	-3e-05	0.00066	6
25921	-3e-05	-3e-05	-3e-05	-4e-05	-0.00012	0.00032	-3e-05	0.00066	6
25922	-3e-05	-3e-05	-3e-05	-4e-05	-0.00012	0.00032	-3e-05	0.00066	6
25923	-3e-05	-3e-05	-3e-05	-4e-05	-0.00012	0.00032	-3e-05	0.00066	6
25924	-3e-05	-3e-05	-3e-05	-4e-05	-0.00012	0.00032	-3e-05	0.00066	6
25925	-3e-05	-3e-05	-3e-05	-4e-05	-0.00012	0.00032	-3e-05	0.00066	6
25926	-3e-05	-3e-05	-3e-05	-4e-05	-0.00012	0.00032	-3e-05	0.00066	6
25927	-3e-05	-3e-05	-3e-05	-4e-05	-0.00012	0.00032	-3e-05	0.00066	6
25928	-3e-05	-3e-05	-3e-05	-4e-05	-0.00012	0.00032	-3e-05	0.00066	6
25929	-3e-05	-3e-05	-3e-05	-4e-05	-0.00012	0.00032	-3e-05	0.00066	6
25930	-3e-05	-3e-05	-3e-05	-4e-05	-0.00012	0.00032	-3e-05	0.00066	6
25931	-3e-05	-3e-05	-3e-05	-4e-05	-0.00012	0.00032	-3e-05	0.00066	6
25932	-3e-05	-3e-05	-3e-05	-4e-05	-0.00012	0.00032	-3e-05	0.00066	6
25933	-3e-05	-3e-05	-3e-05	-4e-05	-0.00012	0.00032	-3e-05	0.00066	6
25934	-3e-05	-3e-05	-3e-05	-4e-05	-0.00012	0.00032	-3e-05	0.00066	6
25935	-3e-05	-3e-05	-3e-05	-4e-05	-0.00012	0.00032	-3e-05	0.00066	6
25936	-3e-05	-3e-05	-3e-05	-4e-05	-0.00012	0.00032	-3e-05	0.00066	6
25938	-1e-05	-4e-05	2e-05	1e-05	-0.00032	-0.00027	-0.00018	6e-05	6
25939	-1e-05	-4e-05	2e-05	1e-05	-0.00032	-0.00027	-0.00018	6e-05	6
25940	4e-05	-2e-05	-7e-05	-0.00012	-8e-05	-5e-05	7e-05	0	6
25941	4e-05	-2e-05	-7e-05	-0.00012	-8e-05	-5e-05	7e-05	0	6
25942	4e-05	-2e-05	-7e-05	-0.00012	-8e-05	-5e-05	7e-05	0	6
25943	4e-05	-2e-05	-7e-05	-0.00012	-8e-05	-5e-05	7e-05	0	6
25944	4e-05	-2e-05	-7e-05	-0.00012	-8e-05	-5e-05	7e-05	0	6
25945	4e-05	-2e-05	-7e-05	-0.00012	-8e-05	-5e-05	7e-05	0	6
25946	4e-05	-2e-05	-7e-05	-0.00012	-8e-05	-5e-05	7e-05	0	6
25947	4e-05	-2e-05	-7e-05	-0.00012	-8e-05	-5e-05	7e-05	0	6
25948	4e-05	-2e-05	-7e-05	-0.00012	-8e-05	-5e-05	7e-05	0	6
25949	4e-05	-2e-05	-7e-05	-0.00012	-8e-05	-5e-05	7e-05	0	6
25950	4e-05	-2e-05	-7e-05	-0.00012	-8e-05	-5e-05	7e-05	0	6
25951	4e-05	-2e-05	-7e-05	-0.00012	-8e-05	-5e-05	7e-05	0	6
25952	4e-05	-2e-05	-7e-05	-0.00012	-8e-05	-5e-05	7e-05	0	6
25953	-8e-05	2e-05	0	0.00012	0.00104	-0.00034	-5e-05	-0.00038	6
25955	-8e-05	2e-05	0	0.00012	0.00104	-0.00034	-5e-05	-0.00038	6
25956	-8e-05	2e-05	0	0.00012	0.00104	-0.00034	-5e-05	-0.00038	6
25957	-8e-05	2e-05	0	0.00012	0.00104	-0.00034	-5e-05	-0.00038	6
25958	-8e-05	2e-05	0	0.00012	0.00104	-0.00034	-5e-05	-0.00038	6
25959	0	0	-2e-05	3e-05	0.00025	0.00014	0.00022	-0.00049	6
25960	0	0	-2e-05	3e-05	0.00025	0.00014	0.00022	-0.00049	6
25961	0	0	-2e-05	3e-05	0.00025	0.00014	0.00022	-0.00049	6
25962	0	0	-2e-05	3e-05	0.00025	0.00014	0.00022	-0.00049	6
25963	0	0	-2e-05	3e-05	0.00025	0.00014	0.00022	-0.00049	6
25964	0	0	-2e-05	3e-05	0.00025	0.00014	0.00022	-0.00049	6
25965	0	0	-2e-05	3e-05	0.00025	0.00014	0.00022	-0.00049	6
25966	0	0	-2e-05	3e-05	0.00025	0.00014	0.00022	-0.00049	6
25967	0	0	-2e-05	3e-05	0.00025	0.00014	0.00022	-0.00049	6
25968	0	0	-2e-05	3e-05	0.00025	0.00014	0.00022	-0.00049	6
25969	0	0	-2e-05	3e-05	0.00025	0.00014	0.00022	-0.00049	6
25970	0	0	-2e-05	3e-05	0.00025	0.00014	0.00022	-0.00049	6
25971	0	0	-2e-05	3e-05	0.00025	0.00014	0.00022	-0.00049	6
25972	0	0	-2e-05	3e-05	0.00025	0.00014	0.00022	-0.00049	6
25973	0	0	-2e-05	3e-05	0.00025	0.00014	0.00022	-0.00049	6
25974	0	0	-2e-05	3e-05	0.00025	0.00014	0.00022	-0.00049	6
25975	0	0	-2e-05	3e-05	0.00025	0.00014	0.00022	-0.00049	6
25976	0.0001	1e-05	-6e-05	-0.00012	-0.00031	0.00043	-0.0004	0.00055	6
25977	0	-4e-05	1e-05	0	-0.00029	-0.00016	-0.00014	0.00025	6
25978	0	-4e-05	1e-05	0	-0.00029	-0.00016	-0.00014	0.00025	6
25979	0	-4e-05	1e-05	0	-0.00029	-0.00016	-0.00014	0.00025	6
25980	0	-4e-05	1e-05	0	-0.00029	-0.00016	-0.00014	0.00025	6
25981	0	-4e-05	1e-05	0	-0.00029	-0.00016	-0.00014	0.00025	6
25982	0	-4e-05	1e-05	0	-0.00029	-0.00016	-0.00014	0.00025	6
25983	0	-4e-05	1e-05	0	-0.00029	-0.00016	-0.00014	0.00025	6
25984	0	-4e-05	1e-05	0	-0.00029	-0.00016	-0.00014	0.00025	6
25985	0	-4e-05	1e-05	0	-0.00029	-0.00016	-0.00014	0.00025	6
25986	0	-4e-05	1e-05	0	-0.00029	-0.00016	-0.00014	0.00025	6
25988	0	-4e-05	1e-05	0	-0.00029	-0.00016	-0.00014	0.00025	6
25989	0	-4e-05	1e-05	0	-0.00029	-0.00016	-0.00014	0.00025	6
25990	0	-4e-05	1e-05	0	-0.00029	-0.00016	-0.00014	0.00025	6
25991	0	-4e-05	1e-05	0	-0.00029	-0.00016	-0.00014	0.00025	6
25992	0	-4e-05	1e-05	0	-0.00029	-0.00016	-0.00014	0.00025	6
25993	0	-4e-05	1e-05	0	-0.00029	-0.00016	-0.00014	0.00025	6
25994	0	-4e-05	1e-05	0	-0.00029	-0.00016	-0.00014	0.00025	6
25995	0	-4e-05	1e-05	0	-0.00029	-0.00016	-0.00014	0.00025	6
25996	0	-4e-05	1e-05	0	-0.00029	-0.00016	-0.00014	0.00025	6
25997	0	-4e-05	1e-05	0	-0.00029	-0.00016	-0.00014	0.00025	6
25998	-5e-05	-4e-05	-3e-05	-6e-05	-0.00058	-0.00014	0	-0.00035	6
25999	-5e-05	-4e-05	-3e-05	-6e-05	-0.00058	-0.00014	0	-0.00035	6
26000	-6e-05	-4e-05	-5e-05	-0.00013	-0.00085	-0.0004	6e-05	-0.00017	6
26001	-6e-05	-4e-05	-5e-05	-0.00013	-0.00085	-0.0004	6e-05	-0.00017	6
26002	-6e-05	-4e-05	-5e-05	-0.00013	-0.00085	-0.0004	6e-05	-0.00017	6
26003	-6e-05	-4e-05	-5e-05	-0.00013	-0.00085	-0.0004	6e-05	-0.00017	6
26004	-6e-05	-4e-05	-5e-05	-0.00013	-0.00085	-0.0004	6e-05	-0.00017	6
26005	-6e-05	-4e-05	-5e-05	-0.00013	-0.00085	-0.0004	6e-05	-0.00017	6
26006	-6e-05	-4e-05	-5e-05	-0.00013	-0.00085	-0.0004	6e-05	-0.00017	6
26007	-6e-05	-4e-05	-5e-05	-0.00013	-0.00085	-0.0004	6e-05	-0.00017	6
26008	-6e-05	-4e-05	-5e-05	-0.00013	-0.00085	-0.0004	6e-05	-0.00017	6
26009	-6e-05	-4e-05	-5e-05	-0.00013	-0.00085	-0.0004	6e-05	-0.00017	6
26010	-6e-05	-4e-05	-5e-05	-0.00013	-0.00085	-0.0004	6e-05	-0.00017	6
26011	-6e-05	-4e-05	-5e-05	-0.00013	-0.00085	-0.0004	6e-05	-0.00017	6
26012	-1e-05	2e-05	-3e-05	7e-05	0.00054	0.00038	-0.00014	-0.00038	6
26013	2e-05	-4e-05	-1e-05	-2e-05	0.00022	-0.00028	-7e-05	0.00048	6
26015	2e-05	-4e-05	-1e-05	-2e-05	0.00022	-0.00028	-7e-05	0.00048	6
26016	2e-05	-4e-05	-1e-05	-2e-05	0.00022	-0.00028	-7e-05	0.00048	6
26017	2e-05	-4e-05	-1e-05	-2e-05	0.00022	-0.00028	-7e-05	0.00048	6
26018	2e-05	-4e-05	-1e-05	-2e-05	0.00022	-0.00028	-7e-05	0.00048	6
26019	2e-05	-4e-05	-1e-05	-2e-05	0.00022	-0.00028	-7e-05	0.00048	6
26020	5e-05	-1e-05	-1e-05	-2e-05	0.00019	0.00031	-4e-05	-0.00015	6
26021	5e-05	-1e-05	-1e-05	-2e-05	0.00019	0.00031	-4e-05	-0.00015	6
26022	5e-05	-1e-05	-1e-05	-2e-05	0.00019	0.00031	-4e-05	-0.00015	6
26023	5e-05	-1e-05	-1e-05	-2e-05	0.00019	0.00031	-4e-05	-0.00015	6
26024	5e-05	-1e-05	-1e-05	-2e-05	0.00019	0.00031	-4e-05	-0.00015	6
26025	5e-05	-1e-05	-1e-05	-2e-05	0.00019	0.00031	-4e-05	-0.00015	6
26026	5e-05	-1e-05	-1e-05	-2e-05	0.00019	0.00031	-4e-05	-0.00015	6
26027	5e-05	-1e-05	-1e-05	-2e-05	0.00019	0.00031	-4e-05	-0.00015	6
26028	5e-05	-1e-05	-1e-05	-2e-05	0.00019	0.00031	-4e-05	-0.00015	6
26029	5e-05	-1e-05	-1e-05	-2e-05	0.00019	0.00031	-4e-05	-0.00015	6
26030	5e-05	-1e-05	-1e-05	-2e-05	0.00019	0.00031	-4e-05	-0.00015	6
26031	5e-05	-1e-05	-1e-05	-2e-05	0.00019	0.00031	-4e-05	-0.00015	6
26032	5e-05	-1e-05	-1e-05	-2e-05	0.00019	0.00031	-4e-05	-0.00015	6
26033	5e-05	-1e-05	-1e-05	-2e-05	0.00019	0.00031	-4e-05	-0.00015	6
26034	5e-05	-1e-05	-1e-05	-2e-05	0.00019	0.00031	-4e-05	-0.00015	6
26035	5e-05	-1e-05	-1e-05	-2e-05	0.00019	0.00031	-4e-05	-0.00015	6
26036	1e-05	-4e-05	-5e-05	-8e-05	-0.00038	0.00069	0.00041	0.0001	6
26038	7e-05	0	2e-05	5e-05	3e-05	-3e-05	-0.00011	0.0007	6
26039	7e-05	0	2e-05	5e-05	3e-05	-3e-05	-0.00011	0.0007	6
26040	7e-05	0	2e-05	5e-05	3e-05	-3e-05	-0.00011	0.0007	6
26041	7e-05	0	2e-05	5e-05	3e-05	-3e-05	-0.00011	0.0007	6
26042	7e-05	0	2e-05	5e-05	3e-05	-3e-05	-0.00011	0.0007	6
26043	7e-05	0	2e-05	5e-05	3e-05	-3e-05	-0.00011	0.0007	6
26044	7e-05	0	2e-05	5e-05	3e-05	-3e-05	-0.00011	0.0007	6
26045	7e-05	0	2e-05	5e-05	3e-05	-3e-05	-0.00011	0.0007	6
26046	7e-05	0	2e-05	5e-05	3e-05	-3e-05	-0.00011	0.0007	6
26047	7e-05	0	2e-05	5e-05	3e-05	-3e-05	-0.00011	0.0007	6
26048	7e-05	0	2e-05	5e-05	3e-05	-3e-05	-0.00011	0.0007	6
26049	7e-05	0	2e-05	5e-05	3e-05	-3e-05	-0.00011	0.0007	6
26050	7e-05	0	2e-05	5e-05	3e-05	-3e-05	-0.00011	0.0007	6
26051	7e-05	0	2e-05	5e-05	3e-05	-3e-05	-0.00011	0.0007	6
26052	7e-05	0	2e-05	5e-05	3e-05	-3e-05	-0.00011	0.0007	6
26053	7e-05	0	2e-05	5e-05	3e-05	-3e-05	-0.00011	0.0007	6
26054	7e-05	0	2e-05	5e-05	3e-05	-3e-05	-0.00011	0.0007	6
26055	7e-05	0	2e-05	5e-05	3e-05	-3e-05	-0.00011	0.0007	6
26056	7e-05	0	2e-05	5e-05	3e-05	-3e-05	-0.00011	0.0007	6
26057	7e-05	0	2e-05	5e-05	3e-05	-3e-05	-0.00011	0.0007	6
26058	-6e-05	-2e-05	-1e-05	-5e-05	-0.00018	-0.00053	0.0002	-0.00014	6
26059	-6e-05	-2e-05	-1e-05	-5e-05	-0.00018	-0.00053	0.0002	-0.00014	6
26060	-8e-05	0	-1e-05	2e-05	0.00022	0.00013	-0.00013	-0.00022	6
26061	-8e-05	0	-1e-05	2e-05	0.00022	0.00013	-0.00013	-0.00022	6
26062	-8e-05	0	-1e-05	2e-05	0.00022	0.00013	-0.00013	-0.00022	6
26063	-8e-05	0	-1e-05	2e-05	0.00022	0.00013	-0.00013	-0.00022	6
26064	-8e-05	0	-1e-05	2e-05	0.00022	0.00013	-0.00013	-0.00022	6
26065	-8e-05	0	-1e-05	2e-05	0.00022	0.00013	-0.00013	-0.00022	6
26066	-8e-05	0	-1e-05	2e-05	0.00022	0.00013	-0.00013	-0.00022	6
26067	-8e-05	0	-1e-05	2e-05	0.00022	0.00013	-0.00013	-0.00022	6
26068	-8e-05	0	-1e-05	2e-05	0.00022	0.00013	-0.00013	-0.00022	6
26069	-8e-05	0	-1e-05	2e-05	0.00022	0.00013	-0.00013	-0.00022	6
26070	-8e-05	0	-1e-05	2e-05	0.00022	0.00013	-0.00013	-0.00022	6
26071	-8e-05	0	-1e-05	2e-05	0.00022	0.00013	-0.00013	-0.00022	6
26072	-8e-05	0	-1e-05	2e-05	0.00022	0.00013	-0.00013	-0.00022	6
26073	-0.0001	-4e-05	-3e-05	-0.00012	-0.00121	-0.00012	1e-05	-0.0003	6
26074	-0.0001	-4e-05	-3e-05	-0.00012	-0.00121	-0.00012	1e-05	-0.0003	6
26075	-0.0001	-4e-05	-3e-05	-0.00012	-0.00121	-0.00012	1e-05	-0.0003	6
26076	-0.0001	-4e-05	-3e-05	-0.00012	-0.00121	-0.00012	1e-05	-0.0003	6
26077	-0.0001	-4e-05	-3e-05	-0.00012	-0.00121	-0.00012	1e-05	-0.0003	6
26078	-0.0001	-4e-05	-3e-05	-0.00012	-0.00121	-0.00012	1e-05	-0.0003	6
26079	-2e-05	0	-1e-05	1e-05	-5e-05	-9e-05	0.00015	-0.00014	6
26080	-2e-05	0	-1e-05	1e-05	-5e-05	-9e-05	0.00015	-0.00014	6
26081	-2e-05	0	-1e-05	1e-05	-5e-05	-9e-05	0.00015	-0.00014	6
26082	-2e-05	0	-1e-05	1e-05	-5e-05	-9e-05	0.00015	-0.00014	6
26083	-2e-05	0	-1e-05	1e-05	-5e-05	-9e-05	0.00015	-0.00014	6
26084	-2e-05	0	-1e-05	1e-05	-5e-05	-9e-05	0.00015	-0.00014	6
26085	-2e-05	0	-1e-05	1e-05	-5e-05	-9e-05	0.00015	-0.00014	6
26086	-2e-05	0	-1e-05	1e-05	-5e-05	-9e-05	0.00015	-0.00014	6
26088	-2e-05	0	-1e-05	1e-05	-5e-05	-9e-05	0.00015	-0.00014	6
26089	-2e-05	0	-1e-05	1e-05	-5e-05	-9e-05	0.00015	-0.00014	6
26090	-2e-05	0	-1e-05	1e-05	-5e-05	-9e-05	0.00015	-0.00014	6
26091	-2e-05	0	-1e-05	1e-05	-5e-05	-9e-05	0.00015	-0.00014	6
26092	-2e-05	0	-1e-05	1e-05	-5e-05	-9e-05	0.00015	-0.00014	6
26093	-2e-05	0	-1e-05	1e-05	-5e-05	-9e-05	0.00015	-0.00014	6
26094	-2e-05	0	-1e-05	1e-05	-5e-05	-9e-05	0.00015	-0.00014	6
26095	-2e-05	0	-1e-05	1e-05	-5e-05	-9e-05	0.00015	-0.00014	6
26096	0.0001	3e-05	2e-05	6e-05	0.00015	-5e-05	4e-05	8e-05	6
26097	1e-05	4e-05	7e-05	0.00026	0.00096	0.00071	0.00023	-0.00061	6
26098	1e-05	4e-05	7e-05	0.00026	0.00096	0.00071	0.00023	-0.00061	6
26099	1e-05	4e-05	7e-05	0.00026	0.00096	0.00071	0.00023	-0.00061	6
26100	1e-05	4e-05	7e-05	0.00026	0.00096	0.00071	0.00023	-0.00061	6
26101	1e-05	4e-05	7e-05	0.00026	0.00096	0.00071	0.00023	-0.00061	6
26102	1e-05	4e-05	7e-05	0.00026	0.00096	0.00071	0.00023	-0.00061	6
26103	1e-05	4e-05	7e-05	0.00026	0.00096	0.00071	0.00023	-0.00061	6
26104	1e-05	4e-05	7e-05	0.00026	0.00096	0.00071	0.00023	-0.00061	6
26105	1e-05	4e-05	7e-05	0.00026	0.00096	0.00071	0.00023	-0.00061	6
26106	1e-05	4e-05	7e-05	0.00026	0.00096	0.00071	0.00023	-0.00061	6
26107	1e-05	4e-05	7e-05	0.00026	0.00096	0.00071	0.00023	-0.00061	6
26108	1e-05	4e-05	7e-05	0.00026	0.00096	0.00071	0.00023	-0.00061	6
26109	1e-05	4e-05	7e-05	0.00026	0.00096	0.00071	0.00023	-0.00061	6
26110	1e-05	4e-05	7e-05	0.00026	0.00096	0.00071	0.00023	-0.00061	6
26111	1e-05	4e-05	7e-05	0.00026	0.00096	0.00071	0.00023	-0.00061	6
26112	1e-05	4e-05	7e-05	0.00026	0.00096	0.00071	0.00023	-0.00061	6
26113	1e-05	4e-05	7e-05	0.00026	0.00096	0.00071	0.00023	-0.00061	6
26114	1e-05	4e-05	7e-05	0.00026	0.00096	0.00071	0.00023	-0.00061	6
26115	1e-05	4e-05	7e-05	0.00026	0.00096	0.00071	0.00023	-0.00061	6
26116	1e-05	4e-05	7e-05	0.00026	0.00096	0.00071	0.00023	-0.00061	6
26117	1e-05	4e-05	7e-05	0.00026	0.00096	0.00071	0.00023	-0.00061	6
26118	-0.00015	0	6e-05	0.00023	0.00071	0.00046	-0.00023	-0.00034	6
26119	-0.00015	0	6e-05	0.00023	0.00071	0.00046	-0.00023	-0.00034	6
26120	-0.00012	-6e-05	-5e-05	-8e-05	-0.00039	0.00044	2e-05	-4e-05	6
26121	-0.00012	-6e-05	-5e-05	-8e-05	-0.00039	0.00044	2e-05	-4e-05	6
26122	-0.00012	-6e-05	-5e-05	-8e-05	-0.00039	0.00044	2e-05	-4e-05	6
26123	-0.00012	-6e-05	-5e-05	-8e-05	-0.00039	0.00044	2e-05	-4e-05	6
26124	-0.00012	-6e-05	-5e-05	-8e-05	-0.00039	0.00044	2e-05	-4e-05	6
26125	-0.00012	-6e-05	-5e-05	-8e-05	-0.00039	0.00044	2e-05	-4e-05	6
26126	-0.00012	-6e-05	-5e-05	-8e-05	-0.00039	0.00044	2e-05	-4e-05	6
26127	-0.00012	-6e-05	-5e-05	-8e-05	-0.00039	0.00044	2e-05	-4e-05	6
26128	-0.00012	-6e-05	-5e-05	-8e-05	-0.00039	0.00044	2e-05	-4e-05	6
26129	-0.00012	-6e-05	-5e-05	-8e-05	-0.00039	0.00044	2e-05	-4e-05	6
26130	-0.00012	-6e-05	-5e-05	-8e-05	-0.00039	0.00044	2e-05	-4e-05	6
26131	-0.00012	-6e-05	-5e-05	-8e-05	-0.00039	0.00044	2e-05	-4e-05	6
26132	0.00018	3e-05	-2e-05	-1e-05	0.00021	4e-05	-0.00025	0.00014	6
26133	0.00018	3e-05	-2e-05	-1e-05	0.00021	4e-05	-0.00025	0.00014	6
26134	0.00018	3e-05	-2e-05	-1e-05	0.00021	4e-05	-0.00025	0.00014	6
26135	0.00018	3e-05	-2e-05	-1e-05	0.00021	4e-05	-0.00025	0.00014	6
26136	0.00018	3e-05	-2e-05	-1e-05	0.00021	4e-05	-0.00025	0.00014	6
26138	0.00018	3e-05	-2e-05	-1e-05	0.00021	4e-05	-0.00025	0.00014	6
26139	0.00018	3e-05	-2e-05	-1e-05	0.00021	4e-05	-0.00025	0.00014	6
26140	0.00018	3e-05	-2e-05	-1e-05	0.00021	4e-05	-0.00025	0.00014	6
26141	-1e-05	0	0	3e-05	0.00014	0	-2e-05	-0.00032	6
26142	-1e-05	0	0	3e-05	0.00014	0	-2e-05	-0.00032	6
26143	-1e-05	0	0	3e-05	0.00014	0	-2e-05	-0.00032	6
26144	-1e-05	0	0	3e-05	0.00014	0	-2e-05	-0.00032	6
26145	-1e-05	0	0	3e-05	0.00014	0	-2e-05	-0.00032	6
26146	-1e-05	0	0	3e-05	0.00014	0	-2e-05	-0.00032	6
26147	-1e-05	0	0	3e-05	0.00014	0	-2e-05	-0.00032	6
26148	-1e-05	0	0	3e-05	0.00014	0	-2e-05	-0.00032	6
26149	-1e-05	0	0	3e-05	0.00014	0	-2e-05	-0.00032	6
26150	-1e-05	0	0	3e-05	0.00014	0	-2e-05	-0.00032	6
26151	-1e-05	0	0	3e-05	0.00014	0	-2e-05	-0.00032	6
26152	-1e-05	0	0	3e-05	0.00014	0	-2e-05	-0.00032	6
26153	-1e-05	0	0	3e-05	0.00014	0	-2e-05	-0.00032	6
26154	-1e-05	0	0	3e-05	0.00014	0	-2e-05	-0.00032	6
26155	-1e-05	0	0	3e-05	0.00014	0	-2e-05	-0.00032	6
26156	0.00019	3e-05	2e-05	4e-05	4e-05	-0.00035	5e-05	0.00036	6
26157	-9e-05	1e-05	-4e-05	-9e-05	-0.00028	-8e-05	0.00025	-0.00021	6
26158	-9e-05	1e-05	-4e-05	-9e-05	-0.00028	-8e-05	0.00025	-0.00021	6
26159	-9e-05	1e-05	-4e-05	-9e-05	-0.00028	-8e-05	0.00025	-0.00021	6
26160	-9e-05	1e-05	-4e-05	-9e-05	-0.00028	-8e-05	0.00025	-0.00021	6
26161	-9e-05	1e-05	-4e-05	-9e-05	-0.00028	-8e-05	0.00025	-0.00021	6
26162	-9e-05	1e-05	-4e-05	-9e-05	-0.00028	-8e-05	0.00025	-0.00021	6
26163	-9e-05	1e-05	-4e-05	-9e-05	-0.00028	-8e-05	0.00025	-0.00021	6
26164	-9e-05	1e-05	-4e-05	-9e-05	-0.00028	-8e-05	0.00025	-0.00021	6
26165	-9e-05	1e-05	-4e-05	-9e-05	-0.00028	-8e-05	0.00025	-0.00021	6
26166	-9e-05	1e-05	-4e-05	-9e-05	-0.00028	-8e-05	0.00025	-0.00021	6
26167	-9e-05	1e-05	-4e-05	-9e-05	-0.00028	-8e-05	0.00025	-0.00021	6
26168	-9e-05	1e-05	-4e-05	-9e-05	-0.00028	-8e-05	0.00025	-0.00021	6
26169	-9e-05	1e-05	-4e-05	-9e-05	-0.00028	-8e-05	0.00025	-0.00021	6
26170	-9e-05	1e-05	-4e-05	-9e-05	-0.00028	-8e-05	0.00025	-0.00021	6
26171	-9e-05	1e-05	-4e-05	-9e-05	-0.00028	-8e-05	0.00025	-0.00021	6
26172	-9e-05	1e-05	-4e-05	-9e-05	-0.00028	-8e-05	0.00025	-0.00021	6
26173	-9e-05	1e-05	-4e-05	-9e-05	-0.00028	-8e-05	0.00025	-0.00021	6
26174	-9e-05	1e-05	-4e-05	-9e-05	-0.00028	-8e-05	0.00025	-0.00021	6
26175	-9e-05	1e-05	-4e-05	-9e-05	-0.00028	-8e-05	0.00025	-0.00021	6
26176	-9e-05	1e-05	-4e-05	-9e-05	-0.00028	-8e-05	0.00025	-0.00021	6
26177	-9e-05	1e-05	-4e-05	-9e-05	-0.00028	-8e-05	0.00025	-0.00021	6
26178	-8e-05	3e-05	3e-05	0.00023	0.00095	6e-05	0.00011	-5e-05	6
26179	-8e-05	3e-05	3e-05	0.00023	0.00095	6e-05	0.00011	-5e-05	6
26180	-6e-05	-7e-05	-6e-05	-7e-05	-0.00023	-0.00026	2e-05	0.00015	6
26181	-6e-05	-7e-05	-6e-05	-7e-05	-0.00023	-0.00026	2e-05	0.00015	6
26182	-6e-05	-7e-05	-6e-05	-7e-05	-0.00023	-0.00026	2e-05	0.00015	6
26183	-6e-05	-7e-05	-6e-05	-7e-05	-0.00023	-0.00026	2e-05	0.00015	6
26184	-6e-05	-7e-05	-6e-05	-7e-05	-0.00023	-0.00026	2e-05	0.00015	6
26185	-6e-05	-7e-05	-6e-05	-7e-05	-0.00023	-0.00026	2e-05	0.00015	6
26186	-6e-05	-7e-05	-6e-05	-7e-05	-0.00023	-0.00026	2e-05	0.00015	6
26188	-6e-05	-7e-05	-6e-05	-7e-05	-0.00023	-0.00026	2e-05	0.00015	6
26189	-6e-05	-7e-05	-6e-05	-7e-05	-0.00023	-0.00026	2e-05	0.00015	6
26190	-6e-05	-7e-05	-6e-05	-7e-05	-0.00023	-0.00026	2e-05	0.00015	6
54863	-0.00012	4e-05	0	5e-05	5e-05	-0.00021	0.0002	0.00051	6
54864	-0.00012	4e-05	0	5e-05	5e-05	-0.00021	0.0002	0.00051	6
54865	-0.00012	4e-05	0	5e-05	5e-05	-0.00021	0.0002	0.00051	6
54866	-0.00012	4e-05	0	5e-05	5e-05	-0.00021	0.0002	0.00051	6
54867	-0.00012	4e-05	0	5e-05	5e-05	-0.00021	0.0002	0.00051	6
54868	-0.00012	4e-05	0	5e-05	5e-05	-0.00021	0.0002	0.00051	6
54869	-0.00012	4e-05	0	5e-05	5e-05	-0.00021	0.0002	0.00051	6
54870	-0.00012	4e-05	0	5e-05	5e-05	-0.00021	0.0002	0.00051	6
54871	-0.00012	4e-05	0	5e-05	5e-05	-0.00021	0.0002	0.00051	6
54872	-0.00012	4e-05	0	5e-05	5e-05	-0.00021	0.0002	0.00051	6
54873	2e-05	1e-05	-7e-05	-0.00013	6e-05	0.00054	0.0001	0.00024	6
54874	2e-05	1e-05	-7e-05	-0.00013	6e-05	0.00054	0.0001	0.00024	6
54875	-0.00013	-4e-05	4e-05	0.00025	0.00096	0	5e-05	-0.00027	6
54876	-0.00013	-4e-05	4e-05	0.00025	0.00096	0	5e-05	-0.00027	6
54877	-0.00013	-4e-05	4e-05	0.00025	0.00096	0	5e-05	-0.00027	6
54878	-0.00013	-4e-05	4e-05	0.00025	0.00096	0	5e-05	-0.00027	6
54879	-0.00013	-4e-05	4e-05	0.00025	0.00096	0	5e-05	-0.00027	6
54880	-0.00013	-4e-05	4e-05	0.00025	0.00096	0	5e-05	-0.00027	6
54881	-0.00013	-4e-05	4e-05	0.00025	0.00096	0	5e-05	-0.00027	6
54882	-0.00013	-4e-05	4e-05	0.00025	0.00096	0	5e-05	-0.00027	6
54883	-0.00013	-4e-05	4e-05	0.00025	0.00096	0	5e-05	-0.00027	6
54884	-0.00013	-4e-05	4e-05	0.00025	0.00096	0	5e-05	-0.00027	6
54885	-0.00013	-4e-05	4e-05	0.00025	0.00096	0	5e-05	-0.00027	6
54886	-0.00013	-4e-05	4e-05	0.00025	0.00096	0	5e-05	-0.00027	6
54888	-0.00015	0.00013	5e-05	0.00011	0.00036	-0.00023	-2e-05	2e-05	6
54889	-0.00015	0.00013	5e-05	0.00011	0.00036	-0.00023	-2e-05	2e-05	6
54890	-0.00015	0.00013	5e-05	0.00011	0.00036	-0.00023	-2e-05	2e-05	6
54891	-0.00015	0.00013	5e-05	0.00011	0.00036	-0.00023	-2e-05	2e-05	6
54892	-0.00015	0.00013	5e-05	0.00011	0.00036	-0.00023	-2e-05	2e-05	6
54893	-0.00015	0.00013	5e-05	0.00011	0.00036	-0.00023	-2e-05	2e-05	6
54894	-0.00015	0.00013	5e-05	0.00011	0.00036	-0.00023	-2e-05	2e-05	6
54895	-0.00015	0.00013	5e-05	0.00011	0.00036	-0.00023	-2e-05	2e-05	6
54896	3e-05	0.00011	-3e-05	4e-05	0.0004	-0.00011	-0.00023	-0.00042	6
54897	3e-05	0.00011	-3e-05	4e-05	0.0004	-0.00011	-0.00023	-0.00042	6
54898	3e-05	0.00011	-3e-05	4e-05	0.0004	-0.00011	-0.00023	-0.00042	6
54899	3e-05	0.00011	-3e-05	4e-05	0.0004	-0.00011	-0.00023	-0.00042	6
54900	3e-05	0.00011	-3e-05	4e-05	0.0004	-0.00011	-0.00023	-0.00042	6
54901	3e-05	0.00011	-3e-05	4e-05	0.0004	-0.00011	-0.00023	-0.00042	6
54902	3e-05	0.00011	-3e-05	4e-05	0.0004	-0.00011	-0.00023	-0.00042	6
54903	3e-05	0.00011	-3e-05	4e-05	0.0004	-0.00011	-0.00023	-0.00042	6
54904	3e-05	0.00011	-3e-05	4e-05	0.0004	-0.00011	-0.00023	-0.00042	6
54905	3e-05	0.00011	-3e-05	4e-05	0.0004	-0.00011	-0.00023	-0.00042	6
54906	3e-05	0.00011	-3e-05	4e-05	0.0004	-0.00011	-0.00023	-0.00042	6
54907	3e-05	0.00011	-3e-05	4e-05	0.0004	-0.00011	-0.00023	-0.00042	6
54908	3e-05	0.00011	-3e-05	4e-05	0.0004	-0.00011	-0.00023	-0.00042	6
54909	3e-05	0.00011	-3e-05	4e-05	0.0004	-0.00011	-0.00023	-0.00042	6
54910	3e-05	0.00011	-3e-05	4e-05	0.0004	-0.00011	-0.00023	-0.00042	6
54911	-0.00019	-0.00013	-3e-05	-7e-05	-0.00013	-0.00099	-0.00022	-0.00025	6
54912	-7e-05	-9e-05	-4e-05	0	-0.00073	-0.00091	-0.00042	-5e-05	6
54913	-7e-05	-9e-05	-4e-05	0	-0.00073	-0.00091	-0.00042	-5e-05	6
54914	-7e-05	-9e-05	-4e-05	0	-0.00073	-0.00091	-0.00042	-5e-05	6
54915	-7e-05	-9e-05	-4e-05	0	-0.00073	-0.00091	-0.00042	-5e-05	6
54916	-7e-05	-9e-05	-4e-05	0	-0.00073	-0.00091	-0.00042	-5e-05	6
54917	-7e-05	-9e-05	-4e-05	0	-0.00073	-0.00091	-0.00042	-5e-05	6
54918	-7e-05	-9e-05	-4e-05	0	-0.00073	-0.00091	-0.00042	-5e-05	6
54919	-7e-05	-9e-05	-4e-05	0	-0.00073	-0.00091	-0.00042	-5e-05	6
54920	-7e-05	-9e-05	-4e-05	0	-0.00073	-0.00091	-0.00042	-5e-05	6
