13567	2e-05	-6e-05	-1e-05	0.00035	0.00074	0.00099	0.00016	4e-05	4
13568	2e-05	-6e-05	-1e-05	0.00035	0.00074	0.00099	0.00016	4e-05	4
13569	2e-05	-6e-05	-1e-05	0.00035	0.00074	0.00099	0.00016	4e-05	4
13570	2e-05	-6e-05	-1e-05	0.00035	0.00074	0.00099	0.00016	4e-05	4
13571	2e-05	-6e-05	-1e-05	0.00035	0.00074	0.00099	0.00016	4e-05	4
13572	2e-05	-6e-05	-1e-05	0.00035	0.00074	0.00099	0.00016	4e-05	4
13573	2e-05	-6e-05	-1e-05	0.00035	0.00074	0.00099	0.00016	4e-05	4
13574	2e-05	-6e-05	-1e-05	0.00035	0.00074	0.00099	0.00016	4e-05	4
13575	2e-05	-6e-05	-1e-05	0.00035	0.00074	0.00099	0.00016	4e-05	4
13576	2e-05	-6e-05	-1e-05	0.00035	0.00074	0.00099	0.00016	4e-05	4
13577	2e-05	-6e-05	-1e-05	0.00035	0.00074	0.00099	0.00016	4e-05	4
13578	2e-05	-6e-05	-1e-05	0.00035	0.00074	0.00099	0.00016	4e-05	4
13579	2e-05	-6e-05	-1e-05	0.00035	0.00074	0.00099	0.00016	4e-05	4
13580	2e-05	-6e-05	-1e-05	0.00035	0.00074	0.00099	0.00016	4e-05	4
13581	2e-05	-6e-05	-1e-05	0.00035	0.00074	0.00099	0.00016	4e-05	4
13582	2e-05	-6e-05	-1e-05	0.00035	0.00074	0.00099	0.00016	4e-05	4
13583	2e-05	-6e-05	-1e-05	0.00035	0.00074	0.00099	0.00016	4e-05	4
13584	2e-05	-6e-05	-1e-05	0.00035	0.00074	0.00099	0.00016	4e-05	4
13585	2e-05	-6e-05	-1e-05	0.00035	0.00074	0.00099	0.00016	4e-05	4
13586	4e-05	1e-05	-6e-05	8e-05	0.00035	0.0003	8e-05	2e-05	4
13589	1e-05	7e-05	6e-05	7e-05	0.00033	7e-05	4e-05	-2e-05	4
13590	1e-05	7e-05	6e-05	7e-05	0.00033	7e-05	4e-05	-2e-05	4
13591	1e-05	7e-05	6e-05	7e-05	0.00033	7e-05	4e-05	-2e-05	4
13592	1e-05	7e-05	6e-05	7e-05	0.00033	7e-05	4e-05	-2e-05	4
13593	1e-05	7e-05	6e-05	7e-05	0.00033	7e-05	4e-05	-2e-05	4
13594	1e-05	7e-05	6e-05	7e-05	0.00033	7e-05	4e-05	-2e-05	4
13595	1e-05	7e-05	6e-05	7e-05	0.00033	7e-05	4e-05	-2e-05	4
13596	1e-05	7e-05	6e-05	7e-05	0.00033	7e-05	4e-05	-2e-05	4
13597	1e-05	7e-05	6e-05	7e-05	0.00033	7e-05	4e-05	-2e-05	4
13598	1e-05	7e-05	6e-05	7e-05	0.00033	7e-05	4e-05	-2e-05	4
13599	1e-05	7e-05	6e-05	7e-05	0.00033	7e-05	4e-05	-2e-05	4
13600	-4e-05	7e-05	5e-05	0.00017	0.00049	0.00049	7e-05	3e-05	4
13601	-3e-05	2e-05	6e-05	-0.00013	-0.00037	-5e-05	7e-05	-8e-05	4
13602	-3e-05	2e-05	6e-05	-0.00013	-0.00037	-5e-05	7e-05	-8e-05	4
13603	-3e-05	2e-05	6e-05	-0.00013	-0.00037	-5e-05	7e-05	-8e-05	4
13604	-3e-05	2e-05	6e-05	-0.00013	-0.00037	-5e-05	7e-05	-8e-05	4
13605	-3e-05	2e-05	6e-05	-0.00013	-0.00037	-5e-05	7e-05	-8e-05	4
13606	-3e-05	2e-05	6e-05	-0.00013	-0.00037	-5e-05	7e-05	-8e-05	4
13607	-3e-05	2e-05	6e-05	-0.00013	-0.00037	-5e-05	7e-05	-8e-05	4
13608	-3e-05	2e-05	6e-05	-0.00013	-0.00037	-5e-05	7e-05	-8e-05	4
13609	-3e-05	2e-05	6e-05	-0.00013	-0.00037	-5e-05	7e-05	-8e-05	4
13610	-3e-05	2e-05	6e-05	-0.00013	-0.00037	-5e-05	7e-05	-8e-05	4
13611	-3e-05	2e-05	6e-05	-0.00013	-0.00037	-5e-05	7e-05	-8e-05	4
13612	-3e-05	2e-05	6e-05	-0.00013	-0.00037	-5e-05	7e-05	-8e-05	4
13613	-3e-05	2e-05	6e-05	-0.00013	-0.00037	-5e-05	7e-05	-8e-05	4
13614	-3e-05	2e-05	6e-05	-0.00013	-0.00037	-5e-05	7e-05	-8e-05	4
13615	-3e-05	2e-05	6e-05	-0.00013	-0.00037	-5e-05	7e-05	-8e-05	4
13616	-3e-05	2e-05	6e-05	-0.00013	-0.00037	-5e-05	7e-05	-8e-05	4
13617	-3e-05	2e-05	6e-05	-0.00013	-0.00037	-5e-05	7e-05	-8e-05	4
13618	-3e-05	2e-05	6e-05	-0.00013	-0.00037	-5e-05	7e-05	-8e-05	4
13619	-3e-05	2e-05	6e-05	-0.00013	-0.00037	-5e-05	7e-05	-8e-05	4
13620	-3e-05	2e-05	6e-05	-0.00013	-0.00037	-5e-05	7e-05	-8e-05	4
13621	-3e-05	2e-05	6e-05	-0.00013	-0.00037	-5e-05	7e-05	-8e-05	4
13622	-3e-05	2e-05	6e-05	-0.00013	-0.00037	-5e-05	7e-05	-8e-05	4
13623	-3e-05	2e-05	6e-05	-0.00013	-0.00037	-5e-05	7e-05	-8e-05	4
13624	1e-05	5e-05	4e-05	0.0001	0.00014	3e-05	4e-05	0.00012	4
13625	1e-05	5e-05	4e-05	0.0001	0.00014	3e-05	4e-05	0.00012	4
13626	1e-05	5e-05	4e-05	0.0001	0.00014	3e-05	4e-05	0.00012	4
13627	1e-05	5e-05	4e-05	0.0001	0.00014	3e-05	4e-05	0.00012	4
13628	1e-05	5e-05	4e-05	0.0001	0.00014	3e-05	4e-05	0.00012	4
13629	1e-05	5e-05	4e-05	0.0001	0.00014	3e-05	4e-05	0.00012	4
13630	1e-05	5e-05	4e-05	0.0001	0.00014	3e-05	4e-05	0.00012	4
13631	1e-05	5e-05	4e-05	0.0001	0.00014	3e-05	4e-05	0.00012	4
13632	1e-05	5e-05	4e-05	0.0001	0.00014	3e-05	4e-05	0.00012	4
13633	1e-05	5e-05	4e-05	0.0001	0.00014	3e-05	4e-05	0.00012	4
13634	1e-05	5e-05	4e-05	0.0001	0.00014	3e-05	4e-05	0.00012	4
13635	1e-05	5e-05	4e-05	0.0001	0.00014	3e-05	4e-05	0.00012	4
13636	1e-05	5e-05	4e-05	0.0001	0.00014	3e-05	4e-05	0.00012	4
13639	1e-05	5e-05	4e-05	0.0001	0.00014	3e-05	4e-05	0.00012	4
13640	1e-05	5e-05	4e-05	0.0001	0.00014	3e-05	4e-05	0.00012	4
13641	1e-05	5e-05	4e-05	0.0001	0.00014	3e-05	4e-05	0.00012	4
13642	1e-05	5e-05	4e-05	0.0001	0.00014	3e-05	4e-05	0.00012	4
13643	1e-05	5e-05	4e-05	0.0001	0.00014	3e-05	4e-05	0.00012	4
13644	1e-05	5e-05	4e-05	0.0001	0.00014	3e-05	4e-05	0.00012	4
13645	1e-05	5e-05	4e-05	0.0001	0.00014	3e-05	4e-05	0.00012	4
13646	1e-05	5e-05	4e-05	0.0001	0.00014	3e-05	4e-05	0.00012	4
13647	1e-05	5e-05	4e-05	0.0001	0.00014	3e-05	4e-05	0.00012	4
13648	1e-05	5e-05	4e-05	0.0001	0.00014	3e-05	4e-05	0.00012	4
13649	1e-05	5e-05	4e-05	0.0001	0.00014	3e-05	4e-05	0.00012	4
13650	1e-05	5e-05	4e-05	0.0001	0.00014	3e-05	4e-05	0.00012	4
13651	1e-05	5e-05	4e-05	0.0001	0.00014	3e-05	4e-05	0.00012	4
13652	1e-05	5e-05	4e-05	0.0001	0.00014	3e-05	4e-05	0.00012	4
13653	1e-05	5e-05	4e-05	0.0001	0.00014	3e-05	4e-05	0.00012	4
13654	6e-05	3e-05	-3e-05	0.00034	0.00125	9e-05	6e-05	8e-05	4
13656	6e-05	4e-05	0.00023	-7e-05	-0.0007	-0.00033	3e-05	9e-05	4
13657	6e-05	4e-05	0.00023	-7e-05	-0.0007	-0.00033	3e-05	9e-05	4
13658	6e-05	4e-05	0.00023	-7e-05	-0.0007	-0.00033	3e-05	9e-05	4
13659	6e-05	4e-05	0.00023	-7e-05	-0.0007	-0.00033	3e-05	9e-05	4
13660	2e-05	-1e-05	2e-05	0	9e-05	0.00019	-3e-05	-8e-05	4
13661	-1e-05	0.00012	-0.00015	0.00011	0.00051	-2e-05	-6e-05	-3e-05	4
13662	-1e-05	0.00012	-0.00015	0.00011	0.00051	-2e-05	-6e-05	-3e-05	4
13663	-1e-05	0.00012	-0.00015	0.00011	0.00051	-2e-05	-6e-05	-3e-05	4
13664	-1e-05	0.00012	-0.00015	0.00011	0.00051	-2e-05	-6e-05	-3e-05	4
13665	-1e-05	0.00012	-0.00015	0.00011	0.00051	-2e-05	-6e-05	-3e-05	4
13666	-1e-05	0.00012	-0.00015	0.00011	0.00051	-2e-05	-6e-05	-3e-05	4
13667	-1e-05	0.00012	-0.00015	0.00011	0.00051	-2e-05	-6e-05	-3e-05	4
13668	-1e-05	0.00012	-0.00015	0.00011	0.00051	-2e-05	-6e-05	-3e-05	4
13669	-1e-05	0.00012	-0.00015	0.00011	0.00051	-2e-05	-6e-05	-3e-05	4
13670	-1e-05	0.00012	-0.00015	0.00011	0.00051	-2e-05	-6e-05	-3e-05	4
13671	-1e-05	0.00012	-0.00015	0.00011	0.00051	-2e-05	-6e-05	-3e-05	4
13672	-1e-05	0.00012	-0.00015	0.00011	0.00051	-2e-05	-6e-05	-3e-05	4
13673	-1e-05	0.00012	-0.00015	0.00011	0.00051	-2e-05	-6e-05	-3e-05	4
13674	-1e-05	0.00012	-0.00015	0.00011	0.00051	-2e-05	-6e-05	-3e-05	4
13675	-1e-05	0.00012	-0.00015	0.00011	0.00051	-2e-05	-6e-05	-3e-05	4
13676	-1e-05	0.00012	-0.00015	0.00011	0.00051	-2e-05	-6e-05	-3e-05	4
13677	-1e-05	0.00012	-0.00015	0.00011	0.00051	-2e-05	-6e-05	-3e-05	4
13678	-1e-05	0.00012	-0.00015	0.00011	0.00051	-2e-05	-6e-05	-3e-05	4
13679	-1e-05	0.00012	-0.00015	0.00011	0.00051	-2e-05	-6e-05	-3e-05	4
13680	-1e-05	0.00012	-0.00015	0.00011	0.00051	-2e-05	-6e-05	-3e-05	4
13681	-1e-05	0.00012	-0.00015	0.00011	0.00051	-2e-05	-6e-05	-3e-05	4
13682	-1e-05	0.00012	-0.00015	0.00011	0.00051	-2e-05	-6e-05	-3e-05	4
13683	-1e-05	0.00012	-0.00015	0.00011	0.00051	-2e-05	-6e-05	-3e-05	4
13684	1e-05	-1e-05	0.00012	-8e-05	-0.00053	-0.00019	2e-05	-5e-05	4
13685	0	0	-5e-05	-0.00012	-0.00053	-0.00015	1e-05	2e-05	4
13686	0	0	-5e-05	-0.00012	-0.00053	-0.00015	1e-05	2e-05	4
13689	0	0	-5e-05	-0.00012	-0.00053	-0.00015	1e-05	2e-05	4
13690	0	0	-5e-05	-0.00012	-0.00053	-0.00015	1e-05	2e-05	4
13691	0	0	-5e-05	-0.00012	-0.00053	-0.00015	1e-05	2e-05	4
13692	0	0	-5e-05	-0.00012	-0.00053	-0.00015	1e-05	2e-05	4
13693	0	0	-5e-05	-0.00012	-0.00053	-0.00015	1e-05	2e-05	4
13694	0	0	-5e-05	-0.00012	-0.00053	-0.00015	1e-05	2e-05	4
13695	0	0	-5e-05	-0.00012	-0.00053	-0.00015	1e-05	2e-05	4
13696	0	0	-5e-05	-0.00012	-0.00053	-0.00015	1e-05	2e-05	4
13697	0	0	-5e-05	-0.00012	-0.00053	-0.00015	1e-05	2e-05	4
13698	0	0	-5e-05	-0.00012	-0.00053	-0.00015	1e-05	2e-05	4
13699	0	0	-5e-05	-0.00012	-0.00053	-0.00015	1e-05	2e-05	4
13700	0	0	-5e-05	-0.00012	-0.00053	-0.00015	1e-05	2e-05	4
13701	0	0	-5e-05	-0.00012	-0.00053	-0.00015	1e-05	2e-05	4
13702	0	0	-5e-05	-0.00012	-0.00053	-0.00015	1e-05	2e-05	4
13703	0	0	-5e-05	-0.00012	-0.00053	-0.00015	1e-05	2e-05	4
13704	0	0	-5e-05	-0.00012	-0.00053	-0.00015	1e-05	2e-05	4
13705	0	0	-5e-05	-0.00012	-0.00053	-0.00015	1e-05	2e-05	4
13706	-0.00011	-3e-05	-0.00029	-0.00026	0.00023	-0.00056	-0.00025	-0.00014	4
13707	-1e-05	-1e-05	4e-05	7e-05	0.00051	0	0	0	4
13708	-1e-05	-1e-05	4e-05	7e-05	0.00051	0	0	0	4
13709	-1e-05	-1e-05	4e-05	7e-05	0.00051	0	0	0	4
13710	-1e-05	-1e-05	4e-05	7e-05	0.00051	0	0	0	4
13711	-1e-05	-1e-05	4e-05	7e-05	0.00051	0	0	0	4
13712	-1e-05	-1e-05	4e-05	7e-05	0.00051	0	0	0	4
13713	-1e-05	-1e-05	4e-05	7e-05	0.00051	0	0	0	4
13714	-1e-05	-1e-05	4e-05	7e-05	0.00051	0	0	0	4
13715	-1e-05	-1e-05	4e-05	7e-05	0.00051	0	0	0	4
13716	-1e-05	-1e-05	4e-05	7e-05	0.00051	0	0	0	4
13717	-1e-05	-1e-05	4e-05	7e-05	0.00051	0	0	0	4
13718	-1e-05	-1e-05	4e-05	7e-05	0.00051	0	0	0	4
13719	-1e-05	-1e-05	4e-05	7e-05	0.00051	0	0	0	4
13720	-2e-05	-5e-05	-8e-05	-0.00017	-0.00039	8e-05	-5e-05	-3e-05	4
13721	-3e-05	-8e-05	-8e-05	-5e-05	-1e-05	0.00043	7e-05	0.00017	4
13722	-3e-05	-8e-05	-8e-05	-5e-05	-1e-05	0.00043	7e-05	0.00017	4
13723	-3e-05	-8e-05	-8e-05	-5e-05	-1e-05	0.00043	7e-05	0.00017	4
13724	-3e-05	-8e-05	-8e-05	-5e-05	-1e-05	0.00043	7e-05	0.00017	4
13725	-3e-05	-8e-05	-8e-05	-5e-05	-1e-05	0.00043	7e-05	0.00017	4
13726	-3e-05	-8e-05	-8e-05	-5e-05	-1e-05	0.00043	7e-05	0.00017	4
13727	-3e-05	-8e-05	-8e-05	-5e-05	-1e-05	0.00043	7e-05	0.00017	4
13728	-3e-05	-8e-05	-8e-05	-5e-05	-1e-05	0.00043	7e-05	0.00017	4
13729	-3e-05	-8e-05	-8e-05	-5e-05	-1e-05	0.00043	7e-05	0.00017	4
13730	-3e-05	-8e-05	-8e-05	-5e-05	-1e-05	0.00043	7e-05	0.00017	4
13731	-3e-05	-8e-05	-8e-05	-5e-05	-1e-05	0.00043	7e-05	0.00017	4
13732	-3e-05	-8e-05	-8e-05	-5e-05	-1e-05	0.00043	7e-05	0.00017	4
13733	-3e-05	-8e-05	-8e-05	-5e-05	-1e-05	0.00043	7e-05	0.00017	4
13734	-3e-05	-8e-05	-8e-05	-5e-05	-1e-05	0.00043	7e-05	0.00017	4
13735	-3e-05	-8e-05	-8e-05	-5e-05	-1e-05	0.00043	7e-05	0.00017	4
13736	-3e-05	-8e-05	-8e-05	-5e-05	-1e-05	0.00043	7e-05	0.00017	4
13739	-3e-05	-8e-05	-8e-05	-5e-05	-1e-05	0.00043	7e-05	0.00017	4
13740	-3e-05	-8e-05	-8e-05	-5e-05	-1e-05	0.00043	7e-05	0.00017	4
13741	-3e-05	-8e-05	-8e-05	-5e-05	-1e-05	0.00043	7e-05	0.00017	4
13742	-3e-05	-8e-05	-8e-05	-5e-05	-1e-05	0.00043	7e-05	0.00017	4
13743	-3e-05	-8e-05	-8e-05	-5e-05	-1e-05	0.00043	7e-05	0.00017	4
13744	0	-3e-05	-0.0001	-1e-05	-2e-05	-9e-05	-5e-05	-8e-05	4
13745	0	-3e-05	-0.0001	-1e-05	-2e-05	-9e-05	-5e-05	-8e-05	4
13746	0	-3e-05	-0.0001	-1e-05	-2e-05	-9e-05	-5e-05	-8e-05	4
13747	0	-3e-05	-0.0001	-1e-05	-2e-05	-9e-05	-5e-05	-8e-05	4
13748	0	-3e-05	-0.0001	-1e-05	-2e-05	-9e-05	-5e-05	-8e-05	4
13749	0	-3e-05	-0.0001	-1e-05	-2e-05	-9e-05	-5e-05	-8e-05	4
13750	0	-3e-05	-0.0001	-1e-05	-2e-05	-9e-05	-5e-05	-8e-05	4
13751	0	-3e-05	-0.0001	-1e-05	-2e-05	-9e-05	-5e-05	-8e-05	4
13752	0	-3e-05	-0.0001	-1e-05	-2e-05	-9e-05	-5e-05	-8e-05	4
13753	0	-3e-05	-0.0001	-1e-05	-2e-05	-9e-05	-5e-05	-8e-05	4
13754	0	-3e-05	-0.0001	-1e-05	-2e-05	-9e-05	-5e-05	-8e-05	4
13755	0	-3e-05	-0.0001	-1e-05	-2e-05	-9e-05	-5e-05	-8e-05	4
13756	0	-3e-05	-0.0001	-1e-05	-2e-05	-9e-05	-5e-05	-8e-05	4
13757	0	-3e-05	-0.0001	-1e-05	-2e-05	-9e-05	-5e-05	-8e-05	4
13758	0	-3e-05	-0.0001	-1e-05	-2e-05	-9e-05	-5e-05	-8e-05	4
13759	0	-3e-05	-0.0001	-1e-05	-2e-05	-9e-05	-5e-05	-8e-05	4
13760	0	-3e-05	-0.0001	-1e-05	-2e-05	-9e-05	-5e-05	-8e-05	4
13761	0	-3e-05	-0.0001	-1e-05	-2e-05	-9e-05	-5e-05	-8e-05	4
13762	0	-3e-05	-0.0001	-1e-05	-2e-05	-9e-05	-5e-05	-8e-05	4
13763	0	-3e-05	-0.0001	-1e-05	-2e-05	-9e-05	-5e-05	-8e-05	4
13764	0	-3e-05	-0.0001	-1e-05	-2e-05	-9e-05	-5e-05	-8e-05	4
13765	0	-3e-05	-0.0001	-1e-05	-2e-05	-9e-05	-5e-05	-8e-05	4
13766	2e-05	4e-05	0	0	-0.00031	0.00025	0.00013	0.00013	4
13767	2e-05	-4e-05	-0.00011	-0.00015	-0.00054	-0.0004	-4e-05	0	4
13768	2e-05	-4e-05	-0.00011	-0.00015	-0.00054	-0.0004	-4e-05	0	4
13769	2e-05	-4e-05	-0.00011	-0.00015	-0.00054	-0.0004	-4e-05	0	4
13770	2e-05	-4e-05	-0.00011	-0.00015	-0.00054	-0.0004	-4e-05	0	4
13772	2e-05	-4e-05	-0.00011	-0.00015	-0.00054	-0.0004	-4e-05	0	4
13773	2e-05	-4e-05	-0.00011	-0.00015	-0.00054	-0.0004	-4e-05	0	4
13774	2e-05	-4e-05	-0.00011	-0.00015	-0.00054	-0.0004	-4e-05	0	4
13775	2e-05	-4e-05	-0.00011	-0.00015	-0.00054	-0.0004	-4e-05	0	4
13776	2e-05	-4e-05	-0.00011	-0.00015	-0.00054	-0.0004	-4e-05	0	4
13777	2e-05	-4e-05	-0.00011	-0.00015	-0.00054	-0.0004	-4e-05	0	4
13778	2e-05	-4e-05	-0.00011	-0.00015	-0.00054	-0.0004	-4e-05	0	4
13779	2e-05	-4e-05	-0.00011	-0.00015	-0.00054	-0.0004	-4e-05	0	4
13780	-6e-05	-0.00015	-0.00024	-0.00016	5e-05	-4e-05	-4e-05	-2e-05	4
13781	1e-05	8e-05	5e-05	3e-05	-0.00015	0.0003	0.00012	0	4
13782	1e-05	8e-05	5e-05	3e-05	-0.00015	0.0003	0.00012	0	4
13783	1e-05	8e-05	5e-05	3e-05	-0.00015	0.0003	0.00012	0	4
13784	1e-05	8e-05	5e-05	3e-05	-0.00015	0.0003	0.00012	0	4
13785	1e-05	8e-05	5e-05	3e-05	-0.00015	0.0003	0.00012	0	4
13786	1e-05	8e-05	5e-05	3e-05	-0.00015	0.0003	0.00012	0	4
13789	1e-05	8e-05	5e-05	3e-05	-0.00015	0.0003	0.00012	0	4
13790	1e-05	8e-05	5e-05	3e-05	-0.00015	0.0003	0.00012	0	4
13791	1e-05	8e-05	5e-05	3e-05	-0.00015	0.0003	0.00012	0	4
13792	1e-05	8e-05	5e-05	3e-05	-0.00015	0.0003	0.00012	0	4
13793	1e-05	8e-05	5e-05	3e-05	-0.00015	0.0003	0.00012	0	4
13794	1e-05	8e-05	5e-05	3e-05	-0.00015	0.0003	0.00012	0	4
13795	1e-05	8e-05	5e-05	3e-05	-0.00015	0.0003	0.00012	0	4
13796	1e-05	8e-05	5e-05	3e-05	-0.00015	0.0003	0.00012	0	4
13797	1e-05	8e-05	5e-05	3e-05	-0.00015	0.0003	0.00012	0	4
13798	1e-05	8e-05	5e-05	3e-05	-0.00015	0.0003	0.00012	0	4
13799	1e-05	8e-05	5e-05	3e-05	-0.00015	0.0003	0.00012	0	4
13800	1e-05	8e-05	5e-05	3e-05	-0.00015	0.0003	0.00012	0	4
13801	1e-05	8e-05	5e-05	3e-05	-0.00015	0.0003	0.00012	0	4
13802	1e-05	8e-05	5e-05	3e-05	-0.00015	0.0003	0.00012	0	4
13803	-1e-05	0	3e-05	6e-05	0.00042	3e-05	-1e-05	6e-05	4
13804	-2e-05	-8e-05	0	-4e-05	-0.00016	-0.00017	-0.0001	-3e-05	4
13805	-2e-05	-8e-05	0	-4e-05	-0.00016	-0.00017	-0.0001	-3e-05	4
13806	-2e-05	-8e-05	0	-4e-05	-0.00016	-0.00017	-0.0001	-3e-05	4
13807	-2e-05	-8e-05	0	-4e-05	-0.00016	-0.00017	-0.0001	-3e-05	4
13808	-2e-05	-8e-05	0	-4e-05	-0.00016	-0.00017	-0.0001	-3e-05	4
13809	-2e-05	-8e-05	0	-4e-05	-0.00016	-0.00017	-0.0001	-3e-05	4
13810	-2e-05	-8e-05	0	-4e-05	-0.00016	-0.00017	-0.0001	-3e-05	4
13811	-2e-05	-8e-05	0	-4e-05	-0.00016	-0.00017	-0.0001	-3e-05	4
13812	-2e-05	-8e-05	0	-4e-05	-0.00016	-0.00017	-0.0001	-3e-05	4
13813	-2e-05	-8e-05	0	-4e-05	-0.00016	-0.00017	-0.0001	-3e-05	4
13814	-2e-05	-8e-05	0	-4e-05	-0.00016	-0.00017	-0.0001	-3e-05	4
13815	-2e-05	-8e-05	0	-4e-05	-0.00016	-0.00017	-0.0001	-3e-05	4
13816	-2e-05	-8e-05	0	-4e-05	-0.00016	-0.00017	-0.0001	-3e-05	4
13817	-2e-05	-8e-05	0	-4e-05	-0.00016	-0.00017	-0.0001	-3e-05	4
13818	-2e-05	-8e-05	0	-4e-05	-0.00016	-0.00017	-0.0001	-3e-05	4
13819	-2e-05	-8e-05	0	-4e-05	-0.00016	-0.00017	-0.0001	-3e-05	4
13820	-2e-05	-8e-05	0	-4e-05	-0.00016	-0.00017	-0.0001	-3e-05	4
13821	-2e-05	-8e-05	0	-4e-05	-0.00016	-0.00017	-0.0001	-3e-05	4
13822	-2e-05	-8e-05	0	-4e-05	-0.00016	-0.00017	-0.0001	-3e-05	4
13823	-2e-05	-8e-05	0	-4e-05	-0.00016	-0.00017	-0.0001	-3e-05	4
13824	-2e-05	-8e-05	0	-4e-05	-0.00016	-0.00017	-0.0001	-3e-05	4
13825	-2e-05	-8e-05	0	-4e-05	-0.00016	-0.00017	-0.0001	-3e-05	4
13826	-3e-05	-5e-05	1e-05	-2e-05	0.00032	-0.00026	-5e-05	7e-05	4
13827	5e-05	-3e-05	0.00014	0.00019	0.00072	0.00035	-6e-05	-5e-05	4
13828	5e-05	-3e-05	0.00014	0.00019	0.00072	0.00035	-6e-05	-5e-05	4
13829	5e-05	-3e-05	0.00014	0.00019	0.00072	0.00035	-6e-05	-5e-05	4
13830	5e-05	-3e-05	0.00014	0.00019	0.00072	0.00035	-6e-05	-5e-05	4
13831	5e-05	-3e-05	0.00014	0.00019	0.00072	0.00035	-6e-05	-5e-05	4
13832	5e-05	-3e-05	0.00014	0.00019	0.00072	0.00035	-6e-05	-5e-05	4
13833	5e-05	-3e-05	0.00014	0.00019	0.00072	0.00035	-6e-05	-5e-05	4
13834	5e-05	-3e-05	0.00014	0.00019	0.00072	0.00035	-6e-05	-5e-05	4
13835	5e-05	-3e-05	0.00014	0.00019	0.00072	0.00035	-6e-05	-5e-05	4
13836	5e-05	-3e-05	0.00014	0.00019	0.00072	0.00035	-6e-05	-5e-05	4
13838	5e-05	-3e-05	0.00014	0.00019	0.00072	0.00035	-6e-05	-5e-05	4
13840	5e-05	-3e-05	0.00014	0.00019	0.00072	0.00035	-6e-05	-5e-05	4
13841	-6e-05	-5e-05	-0.00012	-0.00017	-0.00048	0.00015	1e-05	-4e-05	4
13842	-6e-05	-5e-05	-0.00012	-0.00017	-0.00048	0.00015	1e-05	-4e-05	4
13843	-6e-05	-5e-05	-0.00012	-0.00017	-0.00048	0.00015	1e-05	-4e-05	4
13844	-6e-05	-5e-05	-0.00012	-0.00017	-0.00048	0.00015	1e-05	-4e-05	4
13845	-6e-05	-5e-05	-0.00012	-0.00017	-0.00048	0.00015	1e-05	-4e-05	4
13846	-6e-05	-5e-05	-0.00012	-0.00017	-0.00048	0.00015	1e-05	-4e-05	4
13847	-6e-05	-5e-05	-0.00012	-0.00017	-0.00048	0.00015	1e-05	-4e-05	4
13849	-6e-05	-5e-05	-0.00012	-0.00017	-0.00048	0.00015	1e-05	-4e-05	4
13850	-6e-05	-5e-05	-0.00012	-0.00017	-0.00048	0.00015	1e-05	-4e-05	4
13851	-6e-05	-5e-05	-0.00012	-0.00017	-0.00048	0.00015	1e-05	-4e-05	4
13852	-6e-05	-5e-05	-0.00012	-0.00017	-0.00048	0.00015	1e-05	-4e-05	4
13853	-6e-05	-5e-05	-0.00012	-0.00017	-0.00048	0.00015	1e-05	-4e-05	4
13854	-6e-05	-5e-05	-0.00012	-0.00017	-0.00048	0.00015	1e-05	-4e-05	4
13855	-6e-05	-5e-05	-0.00012	-0.00017	-0.00048	0.00015	1e-05	-4e-05	4
13856	-6e-05	-5e-05	-0.00012	-0.00017	-0.00048	0.00015	1e-05	-4e-05	4
13857	-6e-05	-5e-05	-0.00012	-0.00017	-0.00048	0.00015	1e-05	-4e-05	4
13858	-6e-05	-5e-05	-0.00012	-0.00017	-0.00048	0.00015	1e-05	-4e-05	4
13859	-6e-05	-5e-05	-0.00012	-0.00017	-0.00048	0.00015	1e-05	-4e-05	4
13860	-6e-05	-5e-05	-0.00012	-0.00017	-0.00048	0.00015	1e-05	-4e-05	4
13861	-6e-05	-5e-05	-0.00012	-0.00017	-0.00048	0.00015	1e-05	-4e-05	4
13862	-6e-05	-5e-05	-0.00012	-0.00017	-0.00048	0.00015	1e-05	-4e-05	4
13863	-1e-05	-8e-05	-1e-05	0.00019	2e-05	0.00062	0.00013	4e-05	4
13864	-1e-05	-8e-05	-1e-05	0.00019	2e-05	0.00062	0.00013	4e-05	4
13865	0	-1e-05	7e-05	0.00011	-0.00026	-9e-05	2e-05	-6e-05	4
13866	0	-1e-05	7e-05	0.00011	-0.00026	-9e-05	2e-05	-6e-05	4
13867	0	-1e-05	7e-05	0.00011	-0.00026	-9e-05	2e-05	-6e-05	4
13868	0	-1e-05	7e-05	0.00011	-0.00026	-9e-05	2e-05	-6e-05	4
13869	0	-1e-05	7e-05	0.00011	-0.00026	-9e-05	2e-05	-6e-05	4
13870	0	-1e-05	7e-05	0.00011	-0.00026	-9e-05	2e-05	-6e-05	4
13871	0	-1e-05	7e-05	0.00011	-0.00026	-9e-05	2e-05	-6e-05	4
13872	0	-1e-05	7e-05	0.00011	-0.00026	-9e-05	2e-05	-6e-05	4
13873	0	-1e-05	7e-05	0.00011	-0.00026	-9e-05	2e-05	-6e-05	4
13874	0	-1e-05	7e-05	0.00011	-0.00026	-9e-05	2e-05	-6e-05	4
13875	0	-1e-05	7e-05	0.00011	-0.00026	-9e-05	2e-05	-6e-05	4
13876	0	-1e-05	7e-05	0.00011	-0.00026	-9e-05	2e-05	-6e-05	4
13877	0	-1e-05	7e-05	0.00011	-0.00026	-9e-05	2e-05	-6e-05	4
13878	0	-1e-05	7e-05	0.00011	-0.00026	-9e-05	2e-05	-6e-05	4
13879	0	-1e-05	7e-05	0.00011	-0.00026	-9e-05	2e-05	-6e-05	4
13880	0	-1e-05	7e-05	0.00011	-0.00026	-9e-05	2e-05	-6e-05	4
13881	0	-1e-05	7e-05	0.00011	-0.00026	-9e-05	2e-05	-6e-05	4
13882	0	-1e-05	7e-05	0.00011	-0.00026	-9e-05	2e-05	-6e-05	4
13883	0	-1e-05	7e-05	0.00011	-0.00026	-9e-05	2e-05	-6e-05	4
13884	0	-1e-05	7e-05	0.00011	-0.00026	-9e-05	2e-05	-6e-05	4
13885	0	-1e-05	7e-05	0.00011	-0.00026	-9e-05	2e-05	-6e-05	4
13886	3e-05	9e-05	7e-05	-7e-05	-0.00022	-0.0001	-4e-05	2e-05	4
13888	-1e-05	6e-05	-3e-05	-8e-05	-9e-05	0.00035	9e-05	3e-05	4
13889	-1e-05	6e-05	-3e-05	-8e-05	-9e-05	0.00035	9e-05	3e-05	4
13890	-1e-05	6e-05	-3e-05	-8e-05	-9e-05	0.00035	9e-05	3e-05	4
13891	-1e-05	6e-05	-3e-05	-8e-05	-9e-05	0.00035	9e-05	3e-05	4
13892	-1e-05	6e-05	-3e-05	-8e-05	-9e-05	0.00035	9e-05	3e-05	4
13893	-1e-05	6e-05	-3e-05	-8e-05	-9e-05	0.00035	9e-05	3e-05	4
13894	-1e-05	6e-05	-3e-05	-8e-05	-9e-05	0.00035	9e-05	3e-05	4
13895	-1e-05	6e-05	-3e-05	-8e-05	-9e-05	0.00035	9e-05	3e-05	4
13896	-1e-05	6e-05	-3e-05	-8e-05	-9e-05	0.00035	9e-05	3e-05	4
13897	-1e-05	6e-05	-3e-05	-8e-05	-9e-05	0.00035	9e-05	3e-05	4
13898	-1e-05	6e-05	-3e-05	-8e-05	-9e-05	0.00035	9e-05	3e-05	4
13899	-1e-05	6e-05	-3e-05	-8e-05	-9e-05	0.00035	9e-05	3e-05	4
13900	-3e-05	-1e-05	-4e-05	-0.00014	-9e-05	-1e-05	-5e-05	-0.00015	4
13901	-8e-05	-9e-05	-0.00011	-6e-05	0.00024	-0.0003	-8e-05	-3e-05	4
13902	-8e-05	-9e-05	-0.00011	-6e-05	0.00024	-0.0003	-8e-05	-3e-05	4
13903	-8e-05	-9e-05	-0.00011	-6e-05	0.00024	-0.0003	-8e-05	-3e-05	4
13904	-8e-05	-9e-05	-0.00011	-6e-05	0.00024	-0.0003	-8e-05	-3e-05	4
13905	-8e-05	-9e-05	-0.00011	-6e-05	0.00024	-0.0003	-8e-05	-3e-05	4
13906	-8e-05	-9e-05	-0.00011	-6e-05	0.00024	-0.0003	-8e-05	-3e-05	4
13907	-8e-05	-9e-05	-0.00011	-6e-05	0.00024	-0.0003	-8e-05	-3e-05	4
13908	-8e-05	-9e-05	-0.00011	-6e-05	0.00024	-0.0003	-8e-05	-3e-05	4
13909	-8e-05	-9e-05	-0.00011	-6e-05	0.00024	-0.0003	-8e-05	-3e-05	4
13910	-8e-05	-9e-05	-0.00011	-6e-05	0.00024	-0.0003	-8e-05	-3e-05	4
13911	-8e-05	-9e-05	-0.00011	-6e-05	0.00024	-0.0003	-8e-05	-3e-05	4
13913	-8e-05	-9e-05	-0.00011	-6e-05	0.00024	-0.0003	-8e-05	-3e-05	4
13914	-8e-05	-9e-05	-0.00011	-6e-05	0.00024	-0.0003	-8e-05	-3e-05	4
13915	-8e-05	-9e-05	-0.00011	-6e-05	0.00024	-0.0003	-8e-05	-3e-05	4
13916	-8e-05	-9e-05	-0.00011	-6e-05	0.00024	-0.0003	-8e-05	-3e-05	4
13917	-8e-05	-9e-05	-0.00011	-6e-05	0.00024	-0.0003	-8e-05	-3e-05	4
13918	-8e-05	-9e-05	-0.00011	-6e-05	0.00024	-0.0003	-8e-05	-3e-05	4
13919	-8e-05	-9e-05	-0.00011	-6e-05	0.00024	-0.0003	-8e-05	-3e-05	4
13920	-8e-05	-9e-05	-0.00011	-6e-05	0.00024	-0.0003	-8e-05	-3e-05	4
13921	-8e-05	-9e-05	-0.00011	-6e-05	0.00024	-0.0003	-8e-05	-3e-05	4
13922	-8e-05	-9e-05	-0.00011	-6e-05	0.00024	-0.0003	-8e-05	-3e-05	4
13923	-8e-05	-9e-05	-0.00011	-6e-05	0.00024	-0.0003	-8e-05	-3e-05	4
13924	-8e-05	-9e-05	-0.00011	-6e-05	0.00024	-0.0003	-8e-05	-3e-05	4
13925	-8e-05	-9e-05	-0.00011	-6e-05	0.00024	-0.0003	-8e-05	-3e-05	4
13926	-8e-05	-9e-05	-0.00011	-6e-05	0.00024	-0.0003	-8e-05	-3e-05	4
13927	-8e-05	-9e-05	-0.00011	-6e-05	0.00024	-0.0003	-8e-05	-3e-05	4
13928	-8e-05	-9e-05	-0.00011	-6e-05	0.00024	-0.0003	-8e-05	-3e-05	4
13929	-8e-05	-9e-05	-0.00011	-6e-05	0.00024	-0.0003	-8e-05	-3e-05	4
13930	-8e-05	-9e-05	-0.00011	-6e-05	0.00024	-0.0003	-8e-05	-3e-05	4
13931	2e-05	2e-05	0.00016	3e-05	0.00045	0.00043	7e-05	4e-05	4
13932	-1e-05	-7e-05	-0.00011	-0.00013	-0.00047	9e-05	-2e-05	-4e-05	4
13933	-1e-05	-7e-05	-0.00011	-0.00013	-0.00047	9e-05	-2e-05	-4e-05	4
13934	-1e-05	-7e-05	-0.00011	-0.00013	-0.00047	9e-05	-2e-05	-4e-05	4
13935	-1e-05	-7e-05	-0.00011	-0.00013	-0.00047	9e-05	-2e-05	-4e-05	4
13936	-1e-05	-7e-05	-0.00011	-0.00013	-0.00047	9e-05	-2e-05	-4e-05	4
13938	-1e-05	-7e-05	-0.00011	-0.00013	-0.00047	9e-05	-2e-05	-4e-05	4
13939	-1e-05	-7e-05	-0.00011	-0.00013	-0.00047	9e-05	-2e-05	-4e-05	4
13940	-1e-05	-7e-05	-0.00011	-0.00013	-0.00047	9e-05	-2e-05	-4e-05	4
13941	-1e-05	-7e-05	-0.00011	-0.00013	-0.00047	9e-05	-2e-05	-4e-05	4
13942	-1e-05	-7e-05	-0.00011	-0.00013	-0.00047	9e-05	-2e-05	-4e-05	4
13943	-1e-05	-7e-05	-0.00011	-0.00013	-0.00047	9e-05	-2e-05	-4e-05	4
13944	-1e-05	-7e-05	-0.00011	-0.00013	-0.00047	9e-05	-2e-05	-4e-05	4
13945	-1e-05	-7e-05	-0.00011	-0.00013	-0.00047	9e-05	-2e-05	-4e-05	4
13946	-2e-05	0	6e-05	0.00022	0.0005	0.00027	0	-0.00019	4
13947	4e-05	1e-05	5e-05	0.00016	0.00048	-0.00029	2e-05	0.00017	4
13948	4e-05	1e-05	5e-05	0.00016	0.00048	-0.00029	2e-05	0.00017	4
13949	4e-05	1e-05	5e-05	0.00016	0.00048	-0.00029	2e-05	0.00017	4
13950	4e-05	1e-05	5e-05	0.00016	0.00048	-0.00029	2e-05	0.00017	4
13951	4e-05	1e-05	5e-05	0.00016	0.00048	-0.00029	2e-05	0.00017	4
13952	4e-05	1e-05	5e-05	0.00016	0.00048	-0.00029	2e-05	0.00017	4
13953	4e-05	1e-05	5e-05	0.00016	0.00048	-0.00029	2e-05	0.00017	4
13954	4e-05	1e-05	5e-05	0.00016	0.00048	-0.00029	2e-05	0.00017	4
13955	4e-05	1e-05	5e-05	0.00016	0.00048	-0.00029	2e-05	0.00017	4
13956	4e-05	1e-05	5e-05	0.00016	0.00048	-0.00029	2e-05	0.00017	4
13957	4e-05	1e-05	5e-05	0.00016	0.00048	-0.00029	2e-05	0.00017	4
13958	4e-05	1e-05	5e-05	0.00016	0.00048	-0.00029	2e-05	0.00017	4
13959	4e-05	1e-05	5e-05	0.00016	0.00048	-0.00029	2e-05	0.00017	4
13960	4e-05	1e-05	5e-05	0.00016	0.00048	-0.00029	2e-05	0.00017	4
13961	-5e-05	9e-05	-0.00011	-6e-05	-4e-05	-0.00021	-0.0001	5e-05	4
13962	-5e-05	9e-05	-0.00011	-6e-05	-4e-05	-0.00021	-0.0001	5e-05	4
13963	-5e-05	9e-05	-0.00011	-6e-05	-4e-05	-0.00021	-0.0001	5e-05	4
13964	-5e-05	9e-05	-0.00011	-6e-05	-4e-05	-0.00021	-0.0001	5e-05	4
13965	-5e-05	9e-05	-0.00011	-6e-05	-4e-05	-0.00021	-0.0001	5e-05	4
13966	-5e-05	9e-05	-0.00011	-6e-05	-4e-05	-0.00021	-0.0001	5e-05	4
13967	-5e-05	9e-05	-0.00011	-6e-05	-4e-05	-0.00021	-0.0001	5e-05	4
13968	-7e-05	3e-05	2e-05	-4e-05	2e-05	5e-05	1e-05	-0.00011	4
13969	-7e-05	3e-05	2e-05	-4e-05	2e-05	5e-05	1e-05	-0.00011	4
13970	-7e-05	3e-05	2e-05	-4e-05	2e-05	5e-05	1e-05	-0.00011	4
13971	-7e-05	3e-05	2e-05	-4e-05	2e-05	5e-05	1e-05	-0.00011	4
13972	-7e-05	3e-05	2e-05	-4e-05	2e-05	5e-05	1e-05	-0.00011	4
13973	-7e-05	3e-05	2e-05	-4e-05	2e-05	5e-05	1e-05	-0.00011	4
13974	-7e-05	3e-05	2e-05	-4e-05	2e-05	5e-05	1e-05	-0.00011	4
13975	-7e-05	3e-05	2e-05	-4e-05	2e-05	5e-05	1e-05	-0.00011	4
13976	-7e-05	3e-05	2e-05	-4e-05	2e-05	5e-05	1e-05	-0.00011	4
13977	-7e-05	3e-05	2e-05	-4e-05	2e-05	5e-05	1e-05	-0.00011	4
13978	-7e-05	3e-05	2e-05	-4e-05	2e-05	5e-05	1e-05	-0.00011	4
13979	-7e-05	3e-05	2e-05	-4e-05	2e-05	5e-05	1e-05	-0.00011	4
13980	-7e-05	3e-05	2e-05	-4e-05	2e-05	5e-05	1e-05	-0.00011	4
13981	-7e-05	3e-05	2e-05	-4e-05	2e-05	5e-05	1e-05	-0.00011	4
13982	-7e-05	3e-05	2e-05	-4e-05	2e-05	5e-05	1e-05	-0.00011	4
13983	-7e-05	3e-05	2e-05	-4e-05	2e-05	5e-05	1e-05	-0.00011	4
13984	3e-05	-1e-05	0.00016	-8e-05	-0.00031	-0.00013	-1e-05	0	4
13985	3e-05	-1e-05	0.00016	-8e-05	-0.00031	-0.00013	-1e-05	0	4
13986	3e-05	-1e-05	0.00016	-8e-05	-0.00031	-0.00013	-1e-05	0	4
13988	3e-05	-1e-05	0.00016	-8e-05	-0.00031	-0.00013	-1e-05	0	4
13989	3e-05	-1e-05	0.00016	-8e-05	-0.00031	-0.00013	-1e-05	0	4
13990	3e-05	-1e-05	0.00016	-8e-05	-0.00031	-0.00013	-1e-05	0	4
13991	3e-05	-1e-05	0.00016	-8e-05	-0.00031	-0.00013	-1e-05	0	4
13992	3e-05	-1e-05	0.00016	-8e-05	-0.00031	-0.00013	-1e-05	0	4
13993	3e-05	-1e-05	0.00016	-8e-05	-0.00031	-0.00013	-1e-05	0	4
13994	3e-05	-1e-05	0.00016	-8e-05	-0.00031	-0.00013	-1e-05	0	4
13995	3e-05	-1e-05	0.00016	-8e-05	-0.00031	-0.00013	-1e-05	0	4
13996	3e-05	-1e-05	0.00016	-8e-05	-0.00031	-0.00013	-1e-05	0	4
13997	3e-05	-1e-05	0.00016	-8e-05	-0.00031	-0.00013	-1e-05	0	4
13998	3e-05	-1e-05	0.00016	-8e-05	-0.00031	-0.00013	-1e-05	0	4
13999	3e-05	-1e-05	0.00016	-8e-05	-0.00031	-0.00013	-1e-05	0	4
14000	3e-05	-1e-05	0.00016	-8e-05	-0.00031	-0.00013	-1e-05	0	4
14001	3e-05	-1e-05	0.00016	-8e-05	-0.00031	-0.00013	-1e-05	0	4
14002	3e-05	-1e-05	0.00016	-8e-05	-0.00031	-0.00013	-1e-05	0	4
14003	3e-05	-1e-05	0.00016	-8e-05	-0.00031	-0.00013	-1e-05	0	4
14004	3e-05	-1e-05	0.00016	-8e-05	-0.00031	-0.00013	-1e-05	0	4
14005	3e-05	-1e-05	0.00016	-8e-05	-0.00031	-0.00013	-1e-05	0	4
14006	3e-05	-1e-05	0.00016	-8e-05	-0.00031	-0.00013	-1e-05	0	4
14007	2e-05	3e-05	4e-05	0.00013	9e-05	0.00051	0.0001	1e-05	4
14008	-3e-05	-4e-05	4e-05	-0.00019	-0.00099	-0.00042	-0.0001	-2e-05	4
14009	-3e-05	-4e-05	4e-05	-0.00019	-0.00099	-0.00042	-0.0001	-2e-05	4
14010	-3e-05	-4e-05	4e-05	-0.00019	-0.00099	-0.00042	-0.0001	-2e-05	4
14011	-3e-05	-4e-05	4e-05	-0.00019	-0.00099	-0.00042	-0.0001	-2e-05	4
14012	-3e-05	-4e-05	4e-05	-0.00019	-0.00099	-0.00042	-0.0001	-2e-05	4
14013	-3e-05	-4e-05	4e-05	-0.00019	-0.00099	-0.00042	-0.0001	-2e-05	4
14014	-3e-05	-4e-05	4e-05	-0.00019	-0.00099	-0.00042	-0.0001	-2e-05	4
14015	-3e-05	-4e-05	4e-05	-0.00019	-0.00099	-0.00042	-0.0001	-2e-05	4
14016	-3e-05	-4e-05	4e-05	-0.00019	-0.00099	-0.00042	-0.0001	-2e-05	4
14017	-3e-05	-4e-05	4e-05	-0.00019	-0.00099	-0.00042	-0.0001	-2e-05	4
14018	-3e-05	-4e-05	4e-05	-0.00019	-0.00099	-0.00042	-0.0001	-2e-05	4
14019	-3e-05	-4e-05	4e-05	-0.00019	-0.00099	-0.00042	-0.0001	-2e-05	4
14020	0	-0.00011	-0.00025	-0.00013	-0.0004	-0.00032	-8e-05	-3e-05	4
14021	0	-0.00011	-0.00025	-0.00013	-0.0004	-0.00032	-8e-05	-3e-05	4
14022	0	-0.00011	-0.00025	-0.00013	-0.0004	-0.00032	-8e-05	-3e-05	4
14023	0	-0.00011	-0.00025	-0.00013	-0.0004	-0.00032	-8e-05	-3e-05	4
14024	0	-0.00011	-0.00025	-0.00013	-0.0004	-0.00032	-8e-05	-3e-05	4
14025	0	-0.00011	-0.00025	-0.00013	-0.0004	-0.00032	-8e-05	-3e-05	4
14026	0	-0.00011	-0.00025	-0.00013	-0.0004	-0.00032	-8e-05	-3e-05	4
14027	0	-0.00011	-0.00025	-0.00013	-0.0004	-0.00032	-8e-05	-3e-05	4
14028	0	-0.00011	-0.00025	-0.00013	-0.0004	-0.00032	-8e-05	-3e-05	4
14029	0	-1e-05	-7e-05	-4e-05	-0.00019	-9e-05	0	-3e-05	4
14030	0	-1e-05	-7e-05	-4e-05	-0.00019	-9e-05	0	-3e-05	4
14031	0	-1e-05	-7e-05	-4e-05	-0.00019	-9e-05	0	-3e-05	4
14032	0	-1e-05	-7e-05	-4e-05	-0.00019	-9e-05	0	-3e-05	4
14033	0	-1e-05	-7e-05	-4e-05	-0.00019	-9e-05	0	-3e-05	4
14034	0	-1e-05	-7e-05	-4e-05	-0.00019	-9e-05	0	-3e-05	4
14035	0	-1e-05	-7e-05	-4e-05	-0.00019	-9e-05	0	-3e-05	4
14036	0	-1e-05	-7e-05	-4e-05	-0.00019	-9e-05	0	-3e-05	4
14038	0	-1e-05	-7e-05	-4e-05	-0.00019	-9e-05	0	-3e-05	4
14039	0	-1e-05	-7e-05	-4e-05	-0.00019	-9e-05	0	-3e-05	4
14040	0	-1e-05	-7e-05	-4e-05	-0.00019	-9e-05	0	-3e-05	4
14042	0	-1e-05	-7e-05	-4e-05	-0.00019	-9e-05	0	-3e-05	4
14043	4e-05	1e-05	0.00015	-1e-05	-7e-05	-0.00011	-3e-05	-5e-05	4
14044	-2e-05	0	-8e-05	-0.00026	-0.00076	-0.00015	-6e-05	1e-05	4
14045	0	-5e-05	-3e-05	2e-05	0.00024	-3e-05	-5e-05	-6e-05	4
14046	0	-5e-05	-3e-05	2e-05	0.00024	-3e-05	-5e-05	-6e-05	4
14047	0	-5e-05	-3e-05	2e-05	0.00024	-3e-05	-5e-05	-6e-05	4
14048	0	-5e-05	-3e-05	2e-05	0.00024	-3e-05	-5e-05	-6e-05	4
14049	0	-5e-05	-3e-05	2e-05	0.00024	-3e-05	-5e-05	-6e-05	4
14050	0	-5e-05	-3e-05	2e-05	0.00024	-3e-05	-5e-05	-6e-05	4
14051	0	-5e-05	-3e-05	2e-05	0.00024	-3e-05	-5e-05	-6e-05	4
14052	0	-5e-05	-3e-05	2e-05	0.00024	-3e-05	-5e-05	-6e-05	4
14053	0	-5e-05	-3e-05	2e-05	0.00024	-3e-05	-5e-05	-6e-05	4
14054	0	-5e-05	-3e-05	2e-05	0.00024	-3e-05	-5e-05	-6e-05	4
14055	0	-5e-05	-3e-05	2e-05	0.00024	-3e-05	-5e-05	-6e-05	4
14056	0	-5e-05	-3e-05	2e-05	0.00024	-3e-05	-5e-05	-6e-05	4
14057	0	-5e-05	-3e-05	2e-05	0.00024	-3e-05	-5e-05	-6e-05	4
14058	0	-5e-05	-3e-05	2e-05	0.00024	-3e-05	-5e-05	-6e-05	4
14059	0	-5e-05	-3e-05	2e-05	0.00024	-3e-05	-5e-05	-6e-05	4
14060	0	-5e-05	-3e-05	2e-05	0.00024	-3e-05	-5e-05	-6e-05	4
14061	0	-5e-05	-3e-05	2e-05	0.00024	-3e-05	-5e-05	-6e-05	4
14062	0	-5e-05	-3e-05	2e-05	0.00024	-3e-05	-5e-05	-6e-05	4
14063	0	-5e-05	-3e-05	2e-05	0.00024	-3e-05	-5e-05	-6e-05	4
14064	0	-5e-05	-3e-05	2e-05	0.00024	-3e-05	-5e-05	-6e-05	4
14065	0	-5e-05	-3e-05	2e-05	0.00024	-3e-05	-5e-05	-6e-05	4
14066	0	-5e-05	-3e-05	2e-05	0.00024	-3e-05	-5e-05	-6e-05	4
14067	0	-5e-05	-3e-05	2e-05	0.00024	-3e-05	-5e-05	-6e-05	4
14068	0	-5e-05	-3e-05	2e-05	0.00024	-3e-05	-5e-05	-6e-05	4
14069	0	-5e-05	-3e-05	2e-05	0.00024	-3e-05	-5e-05	-6e-05	4
14070	0	-5e-05	-3e-05	2e-05	0.00024	-3e-05	-5e-05	-6e-05	4
14071	0	-5e-05	-3e-05	2e-05	0.00024	-3e-05	-5e-05	-6e-05	4
14072	0	-5e-05	-3e-05	2e-05	0.00024	-3e-05	-5e-05	-6e-05	4
14073	0	-5e-05	-3e-05	2e-05	0.00024	-3e-05	-5e-05	-6e-05	4
14074	1e-05	5e-05	0.00012	5e-05	7e-05	0.00032	0.00011	3e-05	4
14076	-6e-05	-0.00011	-0.00011	-0.0002	0.00012	5e-05	-0.0001	-9e-05	4
14077	-6e-05	-0.00011	-0.00011	-0.0002	0.00012	5e-05	-0.0001	-9e-05	4
14078	-6e-05	-0.00011	-0.00011	-0.0002	0.00012	5e-05	-0.0001	-9e-05	4
14079	-6e-05	-0.00011	-0.00011	-0.0002	0.00012	5e-05	-0.0001	-9e-05	4
14080	-3e-05	0	-0.00014	-5e-05	0.00035	0.00012	4e-05	-4e-05	4
14081	-3e-05	0	-0.00014	-5e-05	0.00035	0.00012	4e-05	-4e-05	4
14082	-3e-05	0	-0.00014	-5e-05	0.00035	0.00012	4e-05	-4e-05	4
14083	-3e-05	0	-0.00014	-5e-05	0.00035	0.00012	4e-05	-4e-05	4
14084	-3e-05	0	-0.00014	-5e-05	0.00035	0.00012	4e-05	-4e-05	4
14085	-3e-05	0	-0.00014	-5e-05	0.00035	0.00012	4e-05	-4e-05	4
14086	-3e-05	0	-0.00014	-5e-05	0.00035	0.00012	4e-05	-4e-05	4
14089	5e-05	-0.00016	-0.0001	-9e-05	-0.00015	-8e-05	-1e-05	3e-05	4
14090	5e-05	-0.00016	-0.0001	-9e-05	-0.00015	-8e-05	-1e-05	3e-05	4
14091	5e-05	-0.00016	-0.0001	-9e-05	-0.00015	-8e-05	-1e-05	3e-05	4
14092	5e-05	-0.00016	-0.0001	-9e-05	-0.00015	-8e-05	-1e-05	3e-05	4
14093	5e-05	-0.00016	-0.0001	-9e-05	-0.00015	-8e-05	-1e-05	3e-05	4
14094	5e-05	-0.00016	-0.0001	-9e-05	-0.00015	-8e-05	-1e-05	3e-05	4
14095	5e-05	-0.00016	-0.0001	-9e-05	-0.00015	-8e-05	-1e-05	3e-05	4
14096	5e-05	-0.00016	-0.0001	-9e-05	-0.00015	-8e-05	-1e-05	3e-05	4
14097	5e-05	-0.00016	-0.0001	-9e-05	-0.00015	-8e-05	-1e-05	3e-05	4
14098	5e-05	-0.00016	-0.0001	-9e-05	-0.00015	-8e-05	-1e-05	3e-05	4
14099	5e-05	-0.00016	-0.0001	-9e-05	-0.00015	-8e-05	-1e-05	3e-05	4
14100	5e-05	-0.00016	-0.0001	-9e-05	-0.00015	-8e-05	-1e-05	3e-05	4
14101	5e-05	-0.00016	-0.0001	-9e-05	-0.00015	-8e-05	-1e-05	3e-05	4
14102	5e-05	-0.00016	-0.0001	-9e-05	-0.00015	-8e-05	-1e-05	3e-05	4
14103	5e-05	-0.00016	-0.0001	-9e-05	-0.00015	-8e-05	-1e-05	3e-05	4
14104	2e-05	-2e-05	7e-05	0.00011	0.00012	4e-05	0	-1e-05	4
14105	2e-05	-2e-05	7e-05	0.00011	0.00012	4e-05	0	-1e-05	4
14106	2e-05	0.00018	0.00011	4e-05	-0.00057	1e-05	5e-05	1e-05	4
14107	2e-05	0.00018	0.00011	4e-05	-0.00057	1e-05	5e-05	1e-05	4
14108	2e-05	0.00018	0.00011	4e-05	-0.00057	1e-05	5e-05	1e-05	4
14109	2e-05	0.00018	0.00011	4e-05	-0.00057	1e-05	5e-05	1e-05	4
14110	2e-05	0.00018	0.00011	4e-05	-0.00057	1e-05	5e-05	1e-05	4
14111	2e-05	0.00018	0.00011	4e-05	-0.00057	1e-05	5e-05	1e-05	4
14112	2e-05	0.00018	0.00011	4e-05	-0.00057	1e-05	5e-05	1e-05	4
14113	2e-05	0.00018	0.00011	4e-05	-0.00057	1e-05	5e-05	1e-05	4
14114	2e-05	0.00018	0.00011	4e-05	-0.00057	1e-05	5e-05	1e-05	4
14115	2e-05	0.00018	0.00011	4e-05	-0.00057	1e-05	5e-05	1e-05	4
14116	2e-05	0.00018	0.00011	4e-05	-0.00057	1e-05	5e-05	1e-05	4
14117	2e-05	0.00018	0.00011	4e-05	-0.00057	1e-05	5e-05	1e-05	4
14118	2e-05	0.00018	0.00011	4e-05	-0.00057	1e-05	5e-05	1e-05	4
14119	2e-05	0.00018	0.00011	4e-05	-0.00057	1e-05	5e-05	1e-05	4
14120	2e-05	0.00018	0.00011	4e-05	-0.00057	1e-05	5e-05	1e-05	4
14121	2e-05	0.00018	0.00011	4e-05	-0.00057	1e-05	5e-05	1e-05	4
14122	2e-05	0.00018	0.00011	4e-05	-0.00057	1e-05	5e-05	1e-05	4
14123	2e-05	0.00018	0.00011	4e-05	-0.00057	1e-05	5e-05	1e-05	4
14124	2e-05	0.00018	0.00011	4e-05	-0.00057	1e-05	5e-05	1e-05	4
14125	2e-05	0.00018	0.00011	4e-05	-0.00057	1e-05	5e-05	1e-05	4
14126	2e-05	0.00018	0.00011	4e-05	-0.00057	1e-05	5e-05	1e-05	4
14127	2e-05	0.00018	0.00011	4e-05	-0.00057	1e-05	5e-05	1e-05	4
14128	2e-05	0.00018	0.00011	4e-05	-0.00057	1e-05	5e-05	1e-05	4
14129	2e-05	0.00018	0.00011	4e-05	-0.00057	1e-05	5e-05	1e-05	4
14130	2e-05	0.00018	0.00011	4e-05	-0.00057	1e-05	5e-05	1e-05	4
14131	2e-05	0.00018	0.00011	4e-05	-0.00057	1e-05	5e-05	1e-05	4
14132	2e-05	0.00018	0.00011	4e-05	-0.00057	1e-05	5e-05	1e-05	4
14133	-2e-05	-7e-05	0	1e-05	0.00026	-0.00023	-3e-05	3e-05	4
14134	-2e-05	-7e-05	-1e-05	0.00016	0.00021	2e-05	7e-05	3e-05	4
14135	1e-05	5e-05	5e-05	0.00012	9e-05	-0.00014	1e-05	-1e-05	4
14136	1e-05	5e-05	5e-05	0.00012	9e-05	-0.00014	1e-05	-1e-05	4
14138	1e-05	5e-05	5e-05	0.00012	9e-05	-0.00014	1e-05	-1e-05	4
14139	1e-05	5e-05	5e-05	0.00012	9e-05	-0.00014	1e-05	-1e-05	4
14140	-8e-05	-8e-05	-0.00011	-0.00014	-0.00048	-0.00012	-0.00014	-8e-05	4
14141	7e-05	0.00013	4e-05	0.0001	0.0001	-0.0001	3e-05	6e-05	4
14142	7e-05	0.00013	4e-05	0.0001	0.0001	-0.0001	3e-05	6e-05	4
14143	7e-05	0.00013	4e-05	0.0001	0.0001	-0.0001	3e-05	6e-05	4
14144	7e-05	0.00013	4e-05	0.0001	0.0001	-0.0001	3e-05	6e-05	4
14145	7e-05	0.00013	4e-05	0.0001	0.0001	-0.0001	3e-05	6e-05	4
14146	7e-05	0.00013	4e-05	0.0001	0.0001	-0.0001	3e-05	6e-05	4
14147	7e-05	0.00013	4e-05	0.0001	0.0001	-0.0001	3e-05	6e-05	4
14148	7e-05	0.00013	4e-05	0.0001	0.0001	-0.0001	3e-05	6e-05	4
14149	7e-05	0.00013	4e-05	0.0001	0.0001	-0.0001	3e-05	6e-05	4
14150	7e-05	0.00013	4e-05	0.0001	0.0001	-0.0001	3e-05	6e-05	4
14151	7e-05	0.00013	4e-05	0.0001	0.0001	-0.0001	3e-05	6e-05	4
14152	7e-05	0.00013	4e-05	0.0001	0.0001	-0.0001	3e-05	6e-05	4
14153	7e-05	0.00013	4e-05	0.0001	0.0001	-0.0001	3e-05	6e-05	4
14154	7e-05	0.00013	4e-05	0.0001	0.0001	-0.0001	3e-05	6e-05	4
14155	-3e-05	-4e-05	-0.00015	0.00019	0.00081	0.0002	-2e-05	0	4
14156	-3e-05	-4e-05	-0.00015	0.00019	0.00081	0.0002	-2e-05	0	4
14157	-3e-05	-4e-05	-0.00015	0.00019	0.00081	0.0002	-2e-05	0	4
14158	-3e-05	-4e-05	-0.00015	0.00019	0.00081	0.0002	-2e-05	0	4
14160	-3e-05	-4e-05	-0.00015	0.00019	0.00081	0.0002	-2e-05	0	4
14161	-3e-05	-4e-05	-0.00015	0.00019	0.00081	0.0002	-2e-05	0	4
14162	-3e-05	-4e-05	-0.00015	0.00019	0.00081	0.0002	-2e-05	0	4
14163	-3e-05	-4e-05	-0.00015	0.00019	0.00081	0.0002	-2e-05	0	4
14164	-7e-05	-0.00012	-0.0002	-0.00027	-0.00059	-0.00073	-0.00017	-9e-05	4
14165	3e-05	-0.00014	-4e-05	-6e-05	-0.00022	0.00015	1e-05	8e-05	4
14166	3e-05	-0.00014	-4e-05	-6e-05	-0.00022	0.00015	1e-05	8e-05	4
14167	3e-05	-0.00014	-4e-05	-6e-05	-0.00022	0.00015	1e-05	8e-05	4
14168	3e-05	-0.00014	-4e-05	-6e-05	-0.00022	0.00015	1e-05	8e-05	4
14169	3e-05	-0.00014	-4e-05	-6e-05	-0.00022	0.00015	1e-05	8e-05	4
14170	3e-05	-0.00014	-4e-05	-6e-05	-0.00022	0.00015	1e-05	8e-05	4
14171	3e-05	-0.00014	-4e-05	-6e-05	-0.00022	0.00015	1e-05	8e-05	4
14172	3e-05	-0.00014	-4e-05	-6e-05	-0.00022	0.00015	1e-05	8e-05	4
14173	3e-05	-0.00014	-4e-05	-6e-05	-0.00022	0.00015	1e-05	8e-05	4
14174	3e-05	-0.00014	-4e-05	-6e-05	-0.00022	0.00015	1e-05	8e-05	4
14175	3e-05	-0.00014	-4e-05	-6e-05	-0.00022	0.00015	1e-05	8e-05	4
14176	3e-05	-0.00014	-4e-05	-6e-05	-0.00022	0.00015	1e-05	8e-05	4
14177	3e-05	-0.00014	-4e-05	-6e-05	-0.00022	0.00015	1e-05	8e-05	4
14178	3e-05	-0.00014	-4e-05	-6e-05	-0.00022	0.00015	1e-05	8e-05	4
14179	3e-05	-0.00014	-4e-05	-6e-05	-0.00022	0.00015	1e-05	8e-05	4
14180	3e-05	-0.00014	-4e-05	-6e-05	-0.00022	0.00015	1e-05	8e-05	4
14181	3e-05	-0.00014	-4e-05	-6e-05	-0.00022	0.00015	1e-05	8e-05	4
14182	3e-05	-0.00014	-4e-05	-6e-05	-0.00022	0.00015	1e-05	8e-05	4
14183	3e-05	-0.00014	-4e-05	-6e-05	-0.00022	0.00015	1e-05	8e-05	4
14184	3e-05	-0.00014	-4e-05	-6e-05	-0.00022	0.00015	1e-05	8e-05	4
14185	3e-05	-0.00014	-4e-05	-6e-05	-0.00022	0.00015	1e-05	8e-05	4
14186	3e-05	4e-05	0.00013	0.00018	-0.00047	-0.00046	-1e-05	-1e-05	4
14188	-6e-05	0	-4e-05	-0.0001	6e-05	-0.00037	-8e-05	-8e-05	4
14189	-6e-05	0	-4e-05	-0.0001	6e-05	-0.00037	-8e-05	-8e-05	4
14190	-6e-05	0	-4e-05	-0.0001	6e-05	-0.00037	-8e-05	-8e-05	4
14191	-6e-05	0	-4e-05	-0.0001	6e-05	-0.00037	-8e-05	-8e-05	4
14192	-6e-05	0	-4e-05	-0.0001	6e-05	-0.00037	-8e-05	-8e-05	4
14193	-6e-05	0	-4e-05	-0.0001	6e-05	-0.00037	-8e-05	-8e-05	4
14194	-6e-05	0	-4e-05	-0.0001	6e-05	-0.00037	-8e-05	-8e-05	4
14195	-6e-05	0	-4e-05	-0.0001	6e-05	-0.00037	-8e-05	-8e-05	4
14196	-6e-05	0	-4e-05	-0.0001	6e-05	-0.00037	-8e-05	-8e-05	4
14197	-6e-05	0	-4e-05	-0.0001	6e-05	-0.00037	-8e-05	-8e-05	4
14198	-6e-05	0	-4e-05	-0.0001	6e-05	-0.00037	-8e-05	-8e-05	4
14199	-6e-05	0	-4e-05	-0.0001	6e-05	-0.00037	-8e-05	-8e-05	4
14200	-6e-05	0	-4e-05	-0.0001	6e-05	-0.00037	-8e-05	-8e-05	4
14201	-6e-05	0	-4e-05	-0.0001	6e-05	-0.00037	-8e-05	-8e-05	4
14202	-6e-05	0	-4e-05	-0.0001	6e-05	-0.00037	-8e-05	-8e-05	4
14203	-6e-05	0	-4e-05	-0.0001	6e-05	-0.00037	-8e-05	-8e-05	4
14204	-6e-05	0	-4e-05	-0.0001	6e-05	-0.00037	-8e-05	-8e-05	4
14205	-6e-05	0	-4e-05	-0.0001	6e-05	-0.00037	-8e-05	-8e-05	4
14206	-6e-05	0	-4e-05	-0.0001	6e-05	-0.00037	-8e-05	-8e-05	4
14208	5e-05	2e-05	4e-05	0.00011	4e-05	0.00013	0.00012	0.00024	4
14209	-6e-05	-9e-05	-0.00022	-7e-05	8e-05	0.00012	-7e-05	-6e-05	4
14210	3e-05	3e-05	0	0.00013	0.00025	0.0006	0.00017	9e-05	4
14211	3e-05	3e-05	0	0.00013	0.00025	0.0006	0.00017	9e-05	4
14212	3e-05	3e-05	0	0.00013	0.00025	0.0006	0.00017	9e-05	4
14213	3e-05	3e-05	0	0.00013	0.00025	0.0006	0.00017	9e-05	4
14214	3e-05	3e-05	0	0.00013	0.00025	0.0006	0.00017	9e-05	4
14215	3e-05	3e-05	0	0.00013	0.00025	0.0006	0.00017	9e-05	4
14216	3e-05	3e-05	0	0.00013	0.00025	0.0006	0.00017	9e-05	4
14217	3e-05	3e-05	0	0.00013	0.00025	0.0006	0.00017	9e-05	4
14218	3e-05	3e-05	0	0.00013	0.00025	0.0006	0.00017	9e-05	4
14219	3e-05	3e-05	0	0.00013	0.00025	0.0006	0.00017	9e-05	4
14220	3e-05	3e-05	0	0.00013	0.00025	0.0006	0.00017	9e-05	4
14221	3e-05	3e-05	0	0.00013	0.00025	0.0006	0.00017	9e-05	4
14222	3e-05	3e-05	0	0.00013	0.00025	0.0006	0.00017	9e-05	4
14223	3e-05	0	-1e-05	-3e-05	-0.00086	-0.00034	5e-05	-1e-05	4
14224	1e-05	7e-05	9e-05	7e-05	0.00029	0.00044	2e-05	-3e-05	4
14225	-1e-05	1e-05	-2e-05	-0.00018	-0.00021	-0.00027	-7e-05	8e-05	4
14226	-1e-05	1e-05	-2e-05	-0.00018	-0.00021	-0.00027	-7e-05	8e-05	4
14227	-1e-05	1e-05	-2e-05	-0.00018	-0.00021	-0.00027	-7e-05	8e-05	4
14228	-1e-05	1e-05	-2e-05	-0.00018	-0.00021	-0.00027	-7e-05	8e-05	4
14229	-1e-05	1e-05	-2e-05	-0.00018	-0.00021	-0.00027	-7e-05	8e-05	4
14230	-1e-05	1e-05	-2e-05	-0.00018	-0.00021	-0.00027	-7e-05	8e-05	4
14231	-1e-05	1e-05	-2e-05	-0.00018	-0.00021	-0.00027	-7e-05	8e-05	4
14232	-1e-05	1e-05	-2e-05	-0.00018	-0.00021	-0.00027	-7e-05	8e-05	4
14233	-1e-05	1e-05	-2e-05	-0.00018	-0.00021	-0.00027	-7e-05	8e-05	4
14234	-1e-05	1e-05	-2e-05	-0.00018	-0.00021	-0.00027	-7e-05	8e-05	4
14235	-1e-05	1e-05	-2e-05	-0.00018	-0.00021	-0.00027	-7e-05	8e-05	4
14236	-1e-05	1e-05	-2e-05	-0.00018	-0.00021	-0.00027	-7e-05	8e-05	4
14238	-1e-05	1e-05	-2e-05	-0.00018	-0.00021	-0.00027	-7e-05	8e-05	4
14239	-1e-05	1e-05	-2e-05	-0.00018	-0.00021	-0.00027	-7e-05	8e-05	4
14240	-1e-05	1e-05	-2e-05	-0.00018	-0.00021	-0.00027	-7e-05	8e-05	4
14241	-1e-05	1e-05	-2e-05	-0.00018	-0.00021	-0.00027	-7e-05	8e-05	4
14242	-1e-05	1e-05	-2e-05	-0.00018	-0.00021	-0.00027	-7e-05	8e-05	4
14243	-1e-05	1e-05	-2e-05	-0.00018	-0.00021	-0.00027	-7e-05	8e-05	4
14244	-1e-05	1e-05	-2e-05	-0.00018	-0.00021	-0.00027	-7e-05	8e-05	4
14245	-1e-05	1e-05	-2e-05	-0.00018	-0.00021	-0.00027	-7e-05	8e-05	4
14246	3e-05	0.0001	0.00028	0.00016	0.00063	0.00065	0.00016	5e-05	4
14247	3e-05	0.0001	0.00028	0.00016	0.00063	0.00065	0.00016	5e-05	4
14248	-2e-05	-2e-05	-1e-05	-1e-05	-0.00011	-9e-05	4e-05	1e-05	4
14249	-2e-05	-2e-05	-1e-05	-1e-05	-0.00011	-9e-05	4e-05	1e-05	4
14250	-2e-05	-2e-05	-1e-05	-1e-05	-0.00011	-9e-05	4e-05	1e-05	4
14251	-2e-05	-2e-05	-1e-05	-1e-05	-0.00011	-9e-05	4e-05	1e-05	4
14252	-2e-05	-2e-05	-1e-05	-1e-05	-0.00011	-9e-05	4e-05	1e-05	4
14253	-2e-05	-2e-05	-1e-05	-1e-05	-0.00011	-9e-05	4e-05	1e-05	4
14254	-2e-05	-2e-05	-1e-05	-1e-05	-0.00011	-9e-05	4e-05	1e-05	4
14255	-2e-05	-2e-05	-1e-05	-1e-05	-0.00011	-9e-05	4e-05	1e-05	4
14256	-2e-05	-2e-05	-1e-05	-1e-05	-0.00011	-9e-05	4e-05	1e-05	4
14257	-2e-05	-2e-05	-1e-05	-1e-05	-0.00011	-9e-05	4e-05	1e-05	4
14259	-2e-05	-2e-05	-1e-05	-1e-05	-0.00011	-9e-05	4e-05	1e-05	4
14260	-1e-05	-3e-05	-0.00012	-0.0001	-0.00034	-0.0002	-3e-05	8e-05	4
14261	-1e-05	-3e-05	-0.00012	-0.0001	-0.00034	-0.0002	-3e-05	8e-05	4
14262	-1e-05	-3e-05	-0.00012	-0.0001	-0.00034	-0.0002	-3e-05	8e-05	4
14263	-1e-05	-3e-05	-0.00012	-0.0001	-0.00034	-0.0002	-3e-05	8e-05	4
14264	-1e-05	-3e-05	-0.00012	-0.0001	-0.00034	-0.0002	-3e-05	8e-05	4
14265	-1e-05	-3e-05	-0.00012	-0.0001	-0.00034	-0.0002	-3e-05	8e-05	4
14266	-1e-05	-3e-05	-0.00012	-0.0001	-0.00034	-0.0002	-3e-05	8e-05	4
14267	-1e-05	-3e-05	-0.00012	-0.0001	-0.00034	-0.0002	-3e-05	8e-05	4
14268	-1e-05	-3e-05	-0.00012	-0.0001	-0.00034	-0.0002	-3e-05	8e-05	4
14269	-1e-05	-3e-05	-0.00012	-0.0001	-0.00034	-0.0002	-3e-05	8e-05	4
14270	-1e-05	-3e-05	-0.00012	-0.0001	-0.00034	-0.0002	-3e-05	8e-05	4
14271	-1e-05	-3e-05	-0.00012	-0.0001	-0.00034	-0.0002	-3e-05	8e-05	4
14272	-1e-05	-3e-05	-0.00012	-0.0001	-0.00034	-0.0002	-3e-05	8e-05	4
14273	-1e-05	-3e-05	-0.00012	-0.0001	-0.00034	-0.0002	-3e-05	8e-05	4
14274	-1e-05	-3e-05	-0.00012	-0.0001	-0.00034	-0.0002	-3e-05	8e-05	4
14275	-7e-05	-0.0001	-0.00016	-0.00018	-0.00021	-0.00023	-0.00019	-0.00015	4
14276	-1e-05	2e-05	2e-05	9e-05	0.00043	0.00043	3e-05	-8e-05	4
14277	-1e-05	2e-05	2e-05	9e-05	0.00043	0.00043	3e-05	-8e-05	4
14278	-1e-05	2e-05	2e-05	9e-05	0.00043	0.00043	3e-05	-8e-05	4
14279	-1e-05	2e-05	2e-05	9e-05	0.00043	0.00043	3e-05	-8e-05	4
14280	-1e-05	2e-05	2e-05	9e-05	0.00043	0.00043	3e-05	-8e-05	4
14281	-1e-05	2e-05	2e-05	9e-05	0.00043	0.00043	3e-05	-8e-05	4
14282	-1e-05	2e-05	2e-05	9e-05	0.00043	0.00043	3e-05	-8e-05	4
14283	-1e-05	2e-05	2e-05	9e-05	0.00043	0.00043	3e-05	-8e-05	4
14284	1e-05	1e-05	0.00015	-5e-05	-0.00041	-8e-05	0	-8e-05	4
14285	1e-05	1e-05	0.00015	-5e-05	-0.00041	-8e-05	0	-8e-05	4
14286	1e-05	1e-05	0.00015	-5e-05	-0.00041	-8e-05	0	-8e-05	4
14289	1e-05	1e-05	0.00015	-5e-05	-0.00041	-8e-05	0	-8e-05	4
14290	1e-05	1e-05	-8e-05	-8e-05	7e-05	-0.0004	-7e-05	-2e-05	4
14291	1e-05	1e-05	-8e-05	-8e-05	7e-05	-0.0004	-7e-05	-2e-05	4
14292	1e-05	1e-05	-8e-05	-8e-05	7e-05	-0.0004	-7e-05	-2e-05	4
14293	1e-05	1e-05	-8e-05	-8e-05	7e-05	-0.0004	-7e-05	-2e-05	4
14294	1e-05	1e-05	-8e-05	-8e-05	7e-05	-0.0004	-7e-05	-2e-05	4
14295	1e-05	1e-05	-8e-05	-8e-05	7e-05	-0.0004	-7e-05	-2e-05	4
14296	1e-05	1e-05	-8e-05	-8e-05	7e-05	-0.0004	-7e-05	-2e-05	4
14297	1e-05	1e-05	-8e-05	-8e-05	7e-05	-0.0004	-7e-05	-2e-05	4
14298	1e-05	1e-05	-8e-05	-8e-05	7e-05	-0.0004	-7e-05	-2e-05	4
14299	1e-05	1e-05	-8e-05	-8e-05	7e-05	-0.0004	-7e-05	-2e-05	4
14300	1e-05	1e-05	-8e-05	-8e-05	7e-05	-0.0004	-7e-05	-2e-05	4
14301	1e-05	1e-05	-8e-05	-8e-05	7e-05	-0.0004	-7e-05	-2e-05	4
14302	1e-05	1e-05	-8e-05	-8e-05	7e-05	-0.0004	-7e-05	-2e-05	4
14303	1e-05	1e-05	-8e-05	-8e-05	7e-05	-0.0004	-7e-05	-2e-05	4
14304	1e-05	1e-05	-8e-05	-8e-05	7e-05	-0.0004	-7e-05	-2e-05	4
14305	1e-05	1e-05	-8e-05	-8e-05	7e-05	-0.0004	-7e-05	-2e-05	4
14306	-2e-05	-0.00012	-6e-05	-8e-05	-0.00043	-0.00019	-4e-05	1e-05	4
14307	-2e-05	-0.00012	-6e-05	-8e-05	-0.00043	-0.00019	-4e-05	1e-05	4
14308	3e-05	8e-05	7e-05	0.00013	-0.00042	0.00026	4e-05	-2e-05	4
14309	3e-05	8e-05	7e-05	0.00013	-0.00042	0.00026	4e-05	-2e-05	4
14310	3e-05	8e-05	7e-05	0.00013	-0.00042	0.00026	4e-05	-2e-05	4
14311	3e-05	8e-05	7e-05	0.00013	-0.00042	0.00026	4e-05	-2e-05	4
14312	3e-05	8e-05	7e-05	0.00013	-0.00042	0.00026	4e-05	-2e-05	4
14313	3e-05	8e-05	7e-05	0.00013	-0.00042	0.00026	4e-05	-2e-05	4
14314	3e-05	8e-05	7e-05	0.00013	-0.00042	0.00026	4e-05	-2e-05	4
14315	3e-05	8e-05	7e-05	0.00013	-0.00042	0.00026	4e-05	-2e-05	4
14316	3e-05	8e-05	7e-05	0.00013	-0.00042	0.00026	4e-05	-2e-05	4
14317	3e-05	8e-05	7e-05	0.00013	-0.00042	0.00026	4e-05	-2e-05	4
14318	3e-05	8e-05	7e-05	0.00013	-0.00042	0.00026	4e-05	-2e-05	4
14319	3e-05	8e-05	7e-05	0.00013	-0.00042	0.00026	4e-05	-2e-05	4
14320	-6e-05	1e-05	-1e-05	-5e-05	0.00021	-0.0002	-4e-05	-3e-05	4
14321	-6e-05	1e-05	-1e-05	-5e-05	0.00021	-0.0002	-4e-05	-3e-05	4
14322	-6e-05	1e-05	-1e-05	-5e-05	0.00021	-0.0002	-4e-05	-3e-05	4
14323	-6e-05	1e-05	-1e-05	-5e-05	0.00021	-0.0002	-4e-05	-3e-05	4
14324	-6e-05	1e-05	-1e-05	-5e-05	0.00021	-0.0002	-4e-05	-3e-05	4
14325	-6e-05	1e-05	-1e-05	-5e-05	0.00021	-0.0002	-4e-05	-3e-05	4
14326	-6e-05	1e-05	-1e-05	-5e-05	0.00021	-0.0002	-4e-05	-3e-05	4
14327	-6e-05	1e-05	-1e-05	-5e-05	0.00021	-0.0002	-4e-05	-3e-05	4
14328	-6e-05	1e-05	-1e-05	-5e-05	0.00021	-0.0002	-4e-05	-3e-05	4
14329	0	0	0.00043	0.00018	0.00056	-9e-05	-1e-05	-4e-05	4
14330	0	0	0.00043	0.00018	0.00056	-9e-05	-1e-05	-4e-05	4
14331	0	0	0.00043	0.00018	0.00056	-9e-05	-1e-05	-4e-05	4
14332	0	0	0.00043	0.00018	0.00056	-9e-05	-1e-05	-4e-05	4
14333	0	0	0.00043	0.00018	0.00056	-9e-05	-1e-05	-4e-05	4
14334	0	0	0.00043	0.00018	0.00056	-9e-05	-1e-05	-4e-05	4
14335	0	0	0.00043	0.00018	0.00056	-9e-05	-1e-05	-4e-05	4
14336	0	0	0.00043	0.00018	0.00056	-9e-05	-1e-05	-4e-05	4
14338	0	0	0.00043	0.00018	0.00056	-9e-05	-1e-05	-4e-05	4
14339	0	0	0.00043	0.00018	0.00056	-9e-05	-1e-05	-4e-05	4
14340	0	0	0.00043	0.00018	0.00056	-9e-05	-1e-05	-4e-05	4
14341	0	0	0.00043	0.00018	0.00056	-9e-05	-1e-05	-4e-05	4
14342	0	0	0.00043	0.00018	0.00056	-9e-05	-1e-05	-4e-05	4
14343	0	0	0.00043	0.00018	0.00056	-9e-05	-1e-05	-4e-05	4
14344	0	0	0.00043	0.00018	0.00056	-9e-05	-1e-05	-4e-05	4
14345	0	0	0.00043	0.00018	0.00056	-9e-05	-1e-05	-4e-05	4
14346	0	0	0.00043	0.00018	0.00056	-9e-05	-1e-05	-4e-05	4
14347	0	0	0.00043	0.00018	0.00056	-9e-05	-1e-05	-4e-05	4
14348	0	0	0.00043	0.00018	0.00056	-9e-05	-1e-05	-4e-05	4
14349	0	0	0.00043	0.00018	0.00056	-9e-05	-1e-05	-4e-05	4
14350	0	0	0.00043	0.00018	0.00056	-9e-05	-1e-05	-4e-05	4
14351	1e-05	3e-05	6e-05	0.0001	0.00023	-0.00012	-9e-05	-1e-05	4
14352	1e-05	3e-05	6e-05	0.0001	0.00023	-0.00012	-9e-05	-1e-05	4
14353	-5e-05	-6e-05	-0.00011	-0.00015	-0.00043	-0.00032	-0.00017	-5e-05	4
14354	-5e-05	-6e-05	-0.00011	-0.00015	-0.00043	-0.00032	-0.00017	-5e-05	4
14355	-5e-05	-6e-05	-0.00011	-0.00015	-0.00043	-0.00032	-0.00017	-5e-05	4
14356	-5e-05	-6e-05	-0.00011	-0.00015	-0.00043	-0.00032	-0.00017	-5e-05	4
14357	-5e-05	-6e-05	-0.00011	-0.00015	-0.00043	-0.00032	-0.00017	-5e-05	4
14358	-5e-05	-6e-05	-0.00011	-0.00015	-0.00043	-0.00032	-0.00017	-5e-05	4
14359	-5e-05	-6e-05	-0.00011	-0.00015	-0.00043	-0.00032	-0.00017	-5e-05	4
14360	-5e-05	-6e-05	-0.00011	-0.00015	-0.00043	-0.00032	-0.00017	-5e-05	4
14361	-5e-05	-6e-05	-0.00011	-0.00015	-0.00043	-0.00032	-0.00017	-5e-05	4
14362	-5e-05	-6e-05	-0.00011	-0.00015	-0.00043	-0.00032	-0.00017	-5e-05	4
14363	-5e-05	-6e-05	-0.00011	-0.00015	-0.00043	-0.00032	-0.00017	-5e-05	4
14364	-5e-05	-6e-05	-0.00011	-0.00015	-0.00043	-0.00032	-0.00017	-5e-05	4
14365	-5e-05	-6e-05	-0.00011	-0.00015	-0.00043	-0.00032	-0.00017	-5e-05	4
14366	-4e-05	0.00011	-0.00013	-5e-05	0.00044	0.00018	-5e-05	-4e-05	4
14367	-6e-05	-0.00021	0	2e-05	0.00023	0.0002	0.00014	1e-05	4
14368	-4e-05	6e-05	5e-05	2e-05	8e-05	8e-05	-4e-05	-6e-05	4
14369	-4e-05	6e-05	5e-05	2e-05	8e-05	8e-05	-4e-05	-6e-05	4
14370	-4e-05	6e-05	5e-05	2e-05	8e-05	8e-05	-4e-05	-6e-05	4
14371	-4e-05	6e-05	5e-05	2e-05	8e-05	8e-05	-4e-05	-6e-05	4
14372	-4e-05	6e-05	5e-05	2e-05	8e-05	8e-05	-4e-05	-6e-05	4
14373	-4e-05	6e-05	5e-05	2e-05	8e-05	8e-05	-4e-05	-6e-05	4
14374	-4e-05	6e-05	5e-05	2e-05	8e-05	8e-05	-4e-05	-6e-05	4
14375	-4e-05	6e-05	5e-05	2e-05	8e-05	8e-05	-4e-05	-6e-05	4
14376	-4e-05	6e-05	5e-05	2e-05	8e-05	8e-05	-4e-05	-6e-05	4
14377	-4e-05	6e-05	5e-05	2e-05	8e-05	8e-05	-4e-05	-6e-05	4
14378	-4e-05	6e-05	5e-05	2e-05	8e-05	8e-05	-4e-05	-6e-05	4
14379	-4e-05	6e-05	5e-05	2e-05	8e-05	8e-05	-4e-05	-6e-05	4
14380	-1e-05	-2e-05	-6e-05	-3e-05	-6e-05	5e-05	-6e-05	1e-05	4
14381	-1e-05	-2e-05	-6e-05	-3e-05	-6e-05	5e-05	-6e-05	1e-05	4
14382	-1e-05	-2e-05	-6e-05	-3e-05	-6e-05	5e-05	-6e-05	1e-05	4
14383	-1e-05	-2e-05	-6e-05	-3e-05	-6e-05	5e-05	-6e-05	1e-05	4
14384	-1e-05	-2e-05	-6e-05	-3e-05	-6e-05	5e-05	-6e-05	1e-05	4
14385	-1e-05	-2e-05	-6e-05	-3e-05	-6e-05	5e-05	-6e-05	1e-05	4
14386	-1e-05	-2e-05	-6e-05	-3e-05	-6e-05	5e-05	-6e-05	1e-05	4
14389	-4e-05	-1e-05	-8e-05	-7e-05	-0.00048	-0.00017	-5e-05	-0.00019	4
14390	-4e-05	-1e-05	-8e-05	-7e-05	-0.00048	-0.00017	-5e-05	-0.00019	4
14391	-4e-05	-1e-05	-8e-05	-7e-05	-0.00048	-0.00017	-5e-05	-0.00019	4
14392	-4e-05	-1e-05	-8e-05	-7e-05	-0.00048	-0.00017	-5e-05	-0.00019	4
14393	-4e-05	-1e-05	-8e-05	-7e-05	-0.00048	-0.00017	-5e-05	-0.00019	4
14394	-4e-05	-1e-05	-8e-05	-7e-05	-0.00048	-0.00017	-5e-05	-0.00019	4
14395	-4e-05	-1e-05	-8e-05	-7e-05	-0.00048	-0.00017	-5e-05	-0.00019	4
14396	-4e-05	-1e-05	-8e-05	-7e-05	-0.00048	-0.00017	-5e-05	-0.00019	4
14397	-4e-05	-1e-05	-8e-05	-7e-05	-0.00048	-0.00017	-5e-05	-0.00019	4
14398	-4e-05	-1e-05	-8e-05	-7e-05	-0.00048	-0.00017	-5e-05	-0.00019	4
14399	-4e-05	-1e-05	-8e-05	-7e-05	-0.00048	-0.00017	-5e-05	-0.00019	4
14400	-4e-05	-1e-05	-8e-05	-7e-05	-0.00048	-0.00017	-5e-05	-0.00019	4
14401	-4e-05	-1e-05	-8e-05	-7e-05	-0.00048	-0.00017	-5e-05	-0.00019	4
14402	-4e-05	-1e-05	-8e-05	-7e-05	-0.00048	-0.00017	-5e-05	-0.00019	4
14403	-4e-05	-1e-05	-8e-05	-7e-05	-0.00048	-0.00017	-5e-05	-0.00019	4
14404	-4e-05	-1e-05	-8e-05	-7e-05	-0.00048	-0.00017	-5e-05	-0.00019	4
14405	-4e-05	-1e-05	-8e-05	-7e-05	-0.00048	-0.00017	-5e-05	-0.00019	4
14406	-4e-05	-1e-05	-8e-05	-7e-05	-0.00048	-0.00017	-5e-05	-0.00019	4
14407	-4e-05	-1e-05	-8e-05	-7e-05	-0.00048	-0.00017	-5e-05	-0.00019	4
14408	-4e-05	-1e-05	-8e-05	-7e-05	-0.00048	-0.00017	-5e-05	-0.00019	4
14409	-4e-05	-1e-05	-8e-05	-7e-05	-0.00048	-0.00017	-5e-05	-0.00019	4
14410	-4e-05	-1e-05	-8e-05	-7e-05	-0.00048	-0.00017	-5e-05	-0.00019	4
14411	-4e-05	-1e-05	0.00017	-5e-05	0.00029	-0.00032	-7e-05	-9e-05	4
14412	-4e-05	-1e-05	0.00017	-5e-05	0.00029	-0.00032	-7e-05	-9e-05	4
14413	1e-05	-5e-05	-2e-05	4e-05	0.00017	-3e-05	3e-05	4e-05	4
14414	1e-05	-5e-05	-2e-05	4e-05	0.00017	-3e-05	3e-05	4e-05	4
14415	1e-05	-5e-05	-2e-05	4e-05	0.00017	-3e-05	3e-05	4e-05	4
14416	1e-05	-5e-05	-2e-05	4e-05	0.00017	-3e-05	3e-05	4e-05	4
14417	1e-05	-5e-05	-2e-05	4e-05	0.00017	-3e-05	3e-05	4e-05	4
14418	1e-05	-5e-05	-2e-05	4e-05	0.00017	-3e-05	3e-05	4e-05	4
14419	1e-05	-5e-05	-2e-05	4e-05	0.00017	-3e-05	3e-05	4e-05	4
14420	1e-05	-5e-05	-2e-05	4e-05	0.00017	-3e-05	3e-05	4e-05	4
14421	1e-05	-5e-05	-2e-05	4e-05	0.00017	-3e-05	3e-05	4e-05	4
14422	1e-05	-5e-05	-2e-05	4e-05	0.00017	-3e-05	3e-05	4e-05	4
14423	1e-05	-5e-05	-2e-05	4e-05	0.00017	-3e-05	3e-05	4e-05	4
14424	1e-05	-5e-05	-2e-05	4e-05	0.00017	-3e-05	3e-05	4e-05	4
14425	1e-05	-5e-05	-2e-05	4e-05	0.00017	-3e-05	3e-05	4e-05	4
14426	-4e-05	-0.00011	-0.00011	2e-05	-0.00013	-2e-05	-1e-05	-4e-05	4
14427	-3e-05	-5e-05	4e-05	-1e-05	0.00019	3e-05	-7e-05	-0.00011	4
14428	-6e-05	-1e-05	-0.00011	-0.00014	-9e-05	-0.00038	-0.00013	-5e-05	4
14429	-6e-05	-1e-05	-0.00011	-0.00014	-9e-05	-0.00038	-0.00013	-5e-05	4
14430	-6e-05	-1e-05	-0.00011	-0.00014	-9e-05	-0.00038	-0.00013	-5e-05	4
14431	-6e-05	-1e-05	-0.00011	-0.00014	-9e-05	-0.00038	-0.00013	-5e-05	4
14432	-6e-05	-1e-05	-0.00011	-0.00014	-9e-05	-0.00038	-0.00013	-5e-05	4
14433	-6e-05	-1e-05	-0.00011	-0.00014	-9e-05	-0.00038	-0.00013	-5e-05	4
14434	-6e-05	-1e-05	-0.00011	-0.00014	-9e-05	-0.00038	-0.00013	-5e-05	4
14435	-6e-05	-1e-05	-0.00011	-0.00014	-9e-05	-0.00038	-0.00013	-5e-05	4
14436	-6e-05	-1e-05	-0.00011	-0.00014	-9e-05	-0.00038	-0.00013	-5e-05	4
14438	-6e-05	-1e-05	-0.00011	-0.00014	-9e-05	-0.00038	-0.00013	-5e-05	4
14439	-6e-05	-1e-05	-0.00011	-0.00014	-9e-05	-0.00038	-0.00013	-5e-05	4
14440	7e-05	-0.0001	8e-05	0.00015	0.0002	0.00018	0.00018	6e-05	4
14441	7e-05	-0.0001	8e-05	0.00015	0.0002	0.00018	0.00018	6e-05	4
14442	7e-05	-0.0001	8e-05	0.00015	0.0002	0.00018	0.00018	6e-05	4
14443	7e-05	-0.0001	8e-05	0.00015	0.0002	0.00018	0.00018	6e-05	4
14444	7e-05	-0.0001	8e-05	0.00015	0.0002	0.00018	0.00018	6e-05	4
14445	7e-05	-0.0001	8e-05	0.00015	0.0002	0.00018	0.00018	6e-05	4
14446	7e-05	-0.0001	8e-05	0.00015	0.0002	0.00018	0.00018	6e-05	4
14447	7e-05	-0.0001	8e-05	0.00015	0.0002	0.00018	0.00018	6e-05	4
14448	7e-05	-0.0001	8e-05	0.00015	0.0002	0.00018	0.00018	6e-05	4
14449	-4e-05	-2e-05	-0.00016	-3e-05	-8e-05	3e-05	-1e-05	-1e-05	4
14450	-4e-05	-2e-05	-0.00016	-3e-05	-8e-05	3e-05	-1e-05	-1e-05	4
14451	-4e-05	-2e-05	-0.00016	-3e-05	-8e-05	3e-05	-1e-05	-1e-05	4
14452	-4e-05	-2e-05	-0.00016	-3e-05	-8e-05	3e-05	-1e-05	-1e-05	4
14453	-4e-05	-2e-05	-0.00016	-3e-05	-8e-05	3e-05	-1e-05	-1e-05	4
14454	-4e-05	-2e-05	-0.00016	-3e-05	-8e-05	3e-05	-1e-05	-1e-05	4
14455	-4e-05	-2e-05	-0.00016	-3e-05	-8e-05	3e-05	-1e-05	-1e-05	4
14456	-4e-05	-2e-05	-0.00016	-3e-05	-8e-05	3e-05	-1e-05	-1e-05	4
14457	-4e-05	-2e-05	-0.00016	-3e-05	-8e-05	3e-05	-1e-05	-1e-05	4
14458	-4e-05	-2e-05	-0.00016	-3e-05	-8e-05	3e-05	-1e-05	-1e-05	4
14459	-4e-05	-2e-05	-0.00016	-3e-05	-8e-05	3e-05	-1e-05	-1e-05	4
14460	-4e-05	-2e-05	-0.00016	-3e-05	-8e-05	3e-05	-1e-05	-1e-05	4
14461	-4e-05	-2e-05	-0.00016	-3e-05	-8e-05	3e-05	-1e-05	-1e-05	4
14462	-4e-05	-2e-05	-0.00016	-3e-05	-8e-05	3e-05	-1e-05	-1e-05	4
14463	-5e-05	-3e-05	4e-05	-0.00014	-8e-05	-0.00029	-0.00016	-7e-05	4
14464	2e-05	6e-05	-7e-05	-3e-05	0.0001	-3e-05	0	6e-05	4
14465	2e-05	6e-05	-7e-05	-3e-05	0.0001	-3e-05	0	6e-05	4
14466	2e-05	6e-05	-7e-05	-3e-05	0.0001	-3e-05	0	6e-05	4
14467	2e-05	6e-05	-7e-05	-3e-05	0.0001	-3e-05	0	6e-05	4
14468	2e-05	6e-05	-7e-05	-3e-05	0.0001	-3e-05	0	6e-05	4
14469	2e-05	6e-05	-7e-05	-3e-05	0.0001	-3e-05	0	6e-05	4
14470	2e-05	6e-05	-7e-05	-3e-05	0.0001	-3e-05	0	6e-05	4
14471	1e-05	-5e-05	-0.0001	-8e-05	0.0001	-0.00022	2e-05	0.00012	4
14472	1e-05	-5e-05	-0.0001	-8e-05	0.0001	-0.00022	2e-05	0.00012	4
14473	1e-05	-5e-05	-0.0001	-8e-05	0.0001	-0.00022	2e-05	0.00012	4
14474	1e-05	-5e-05	-0.0001	-8e-05	0.0001	-0.00022	2e-05	0.00012	4
14475	1e-05	-5e-05	-0.0001	-8e-05	0.0001	-0.00022	2e-05	0.00012	4
14476	1e-05	-5e-05	-0.0001	-8e-05	0.0001	-0.00022	2e-05	0.00012	4
14477	1e-05	-5e-05	-0.0001	-8e-05	0.0001	-0.00022	2e-05	0.00012	4
14478	1e-05	-5e-05	-0.0001	-8e-05	0.0001	-0.00022	2e-05	0.00012	4
14479	1e-05	-5e-05	-0.0001	-8e-05	0.0001	-0.00022	2e-05	0.00012	4
14480	1e-05	-5e-05	-0.0001	-8e-05	0.0001	-0.00022	2e-05	0.00012	4
14481	1e-05	-5e-05	-0.0001	-8e-05	0.0001	-0.00022	2e-05	0.00012	4
14482	1e-05	-5e-05	-0.0001	-8e-05	0.0001	-0.00022	2e-05	0.00012	4
14483	1e-05	-5e-05	-0.0001	-8e-05	0.0001	-0.00022	2e-05	0.00012	4
14484	1e-05	-5e-05	-0.0001	-8e-05	0.0001	-0.00022	2e-05	0.00012	4
14485	1e-05	-5e-05	-0.0001	-8e-05	0.0001	-0.00022	2e-05	0.00012	4
14486	1e-05	-5e-05	-0.0001	-8e-05	0.0001	-0.00022	2e-05	0.00012	4
14489	1e-05	-5e-05	-0.0001	-8e-05	0.0001	-0.00022	2e-05	0.00012	4
14490	1e-05	-5e-05	-0.0001	-8e-05	0.0001	-0.00022	2e-05	0.00012	4
14491	1e-05	-5e-05	-0.0001	-8e-05	0.0001	-0.00022	2e-05	0.00012	4
14492	1e-05	-5e-05	-0.0001	-8e-05	0.0001	-0.00022	2e-05	0.00012	4
14493	1e-05	-5e-05	-0.0001	-8e-05	0.0001	-0.00022	2e-05	0.00012	4
14494	1e-05	-5e-05	-0.0001	-8e-05	0.0001	-0.00022	2e-05	0.00012	4
14495	1e-05	-5e-05	-0.0001	-8e-05	0.0001	-0.00022	2e-05	0.00012	4
14496	1e-05	-5e-05	-0.0001	-8e-05	0.0001	-0.00022	2e-05	0.00012	4
14497	1e-05	-5e-05	-0.0001	-8e-05	0.0001	-0.00022	2e-05	0.00012	4
14498	1e-05	-5e-05	-0.0001	-8e-05	0.0001	-0.00022	2e-05	0.00012	4
14499	1e-05	-5e-05	-0.0001	-8e-05	0.0001	-0.00022	2e-05	0.00012	4
14500	1e-05	-5e-05	-0.0001	-8e-05	0.0001	-0.00022	2e-05	0.00012	4
14501	1e-05	-5e-05	-0.0001	-8e-05	0.0001	-0.00022	2e-05	0.00012	4
14502	5e-05	2e-05	1e-05	8e-05	0.00023	0.00044	0.00016	9e-05	4
14503	-1e-05	2e-05	1e-05	7e-05	-0.0001	0.00029	0	6e-05	4
14504	-8e-05	-8e-05	-0.00013	-6e-05	-0.00018	-0.00027	-0.00012	-1e-05	4
14505	-8e-05	-8e-05	-0.00013	-6e-05	-0.00018	-0.00027	-0.00012	-1e-05	4
14506	-8e-05	-8e-05	-0.00013	-6e-05	-0.00018	-0.00027	-0.00012	-1e-05	4
14507	-8e-05	-8e-05	-0.00013	-6e-05	-0.00018	-0.00027	-0.00012	-1e-05	4
14508	-8e-05	-8e-05	-0.00013	-6e-05	-0.00018	-0.00027	-0.00012	-1e-05	4
14509	-2e-05	-5e-05	-1e-05	-0.00015	0.00038	-0.00011	-9e-05	-0.0001	4
14510	-2e-05	-5e-05	-1e-05	-0.00015	0.00038	-0.00011	-9e-05	-0.0001	4
14511	-2e-05	-5e-05	-1e-05	-0.00015	0.00038	-0.00011	-9e-05	-0.0001	4
14512	-2e-05	-5e-05	-1e-05	-0.00015	0.00038	-0.00011	-9e-05	-0.0001	4
14513	-2e-05	-5e-05	-1e-05	-0.00015	0.00038	-0.00011	-9e-05	-0.0001	4
14514	-2e-05	-5e-05	-1e-05	-0.00015	0.00038	-0.00011	-9e-05	-0.0001	4
14515	-2e-05	-5e-05	-1e-05	-0.00015	0.00038	-0.00011	-9e-05	-0.0001	4
14516	-2e-05	-5e-05	-1e-05	-0.00015	0.00038	-0.00011	-9e-05	-0.0001	4
14517	-2e-05	-5e-05	-1e-05	-0.00015	0.00038	-0.00011	-9e-05	-0.0001	4
14518	-2e-05	-5e-05	-1e-05	-0.00015	0.00038	-0.00011	-9e-05	-0.0001	4
14519	-2e-05	-5e-05	-1e-05	-0.00015	0.00038	-0.00011	-9e-05	-0.0001	4
14520	-2e-05	-5e-05	-1e-05	-0.00015	0.00038	-0.00011	-9e-05	-0.0001	4
14521	-2e-05	-5e-05	-1e-05	-0.00015	0.00038	-0.00011	-9e-05	-0.0001	4
14522	-2e-05	-5e-05	-1e-05	-0.00015	0.00038	-0.00011	-9e-05	-0.0001	4
14523	-2e-05	-5e-05	-1e-05	-0.00015	0.00038	-0.00011	-9e-05	-0.0001	4
14524	0	-4e-05	-2e-05	-9e-05	-0.00041	-6e-05	-3e-05	-7e-05	4
14525	-3e-05	-0.00011	-0.00021	-6e-05	-0.00044	-0.0002	0	3e-05	4
14526	-3e-05	3e-05	0.00033	5e-05	-5e-05	7e-05	-2e-05	0	4
14527	-3e-05	3e-05	0.00033	5e-05	-5e-05	7e-05	-2e-05	0	4
14528	-3e-05	3e-05	0.00033	5e-05	-5e-05	7e-05	-2e-05	0	4
14529	-3e-05	3e-05	0.00033	5e-05	-5e-05	7e-05	-2e-05	0	4
14530	-3e-05	3e-05	0.00033	5e-05	-5e-05	7e-05	-2e-05	0	4
14531	-3e-05	3e-05	0.00033	5e-05	-5e-05	7e-05	-2e-05	0	4
14532	-3e-05	3e-05	0.00033	5e-05	-5e-05	7e-05	-2e-05	0	4
14533	-3e-05	3e-05	0.00033	5e-05	-5e-05	7e-05	-2e-05	0	4
14534	-3e-05	3e-05	0.00033	5e-05	-5e-05	7e-05	-2e-05	0	4
14535	-3e-05	3e-05	0.00033	5e-05	-5e-05	7e-05	-2e-05	0	4
14536	-3e-05	3e-05	0.00033	5e-05	-5e-05	7e-05	-2e-05	0	4
14538	-3e-05	3e-05	0.00033	5e-05	-5e-05	7e-05	-2e-05	0	4
14540	-3e-05	3e-05	0.00033	5e-05	-5e-05	7e-05	-2e-05	0	4
14541	-3e-05	3e-05	0.00033	5e-05	-5e-05	7e-05	-2e-05	0	4
14542	-3e-05	3e-05	0.00033	5e-05	-5e-05	7e-05	-2e-05	0	4
14543	-3e-05	3e-05	0.00033	5e-05	-5e-05	7e-05	-2e-05	0	4
14544	-3e-05	3e-05	0.00033	5e-05	-5e-05	7e-05	-2e-05	0	4
14545	-3e-05	3e-05	0.00033	5e-05	-5e-05	7e-05	-2e-05	0	4
14546	-3e-05	3e-05	0.00033	5e-05	-5e-05	7e-05	-2e-05	0	4
14547	-3e-05	3e-05	0.00033	5e-05	-5e-05	7e-05	-2e-05	0	4
14548	-3e-05	3e-05	0.00033	5e-05	-5e-05	7e-05	-2e-05	0	4
14549	-3e-05	3e-05	0.00033	5e-05	-5e-05	7e-05	-2e-05	0	4
14550	-3e-05	3e-05	0.00033	5e-05	-5e-05	7e-05	-2e-05	0	4
14551	-3e-05	3e-05	0.00033	5e-05	-5e-05	7e-05	-2e-05	0	4
14552	-3e-05	3e-05	0.00033	5e-05	-5e-05	7e-05	-2e-05	0	4
14553	-4e-05	-8e-05	-7e-05	-0.00012	-0.00035	-0.0003	-8e-05	-3e-05	4
14554	2e-05	5e-05	3e-05	0	0.00034	-0.00012	3e-05	-6e-05	4
14555	2e-05	4e-05	-0.0001	-6e-05	-0.00015	0.00033	9e-05	0.00019	4
14556	2e-05	4e-05	-0.0001	-6e-05	-0.00015	0.00033	9e-05	0.00019	4
14557	2e-05	4e-05	-0.0001	-6e-05	-0.00015	0.00033	9e-05	0.00019	4
14558	2e-05	4e-05	-0.0001	-6e-05	-0.00015	0.00033	9e-05	0.00019	4
14559	2e-05	4e-05	-0.0001	-6e-05	-0.00015	0.00033	9e-05	0.00019	4
14560	2e-05	4e-05	-0.0001	-6e-05	-0.00015	0.00033	9e-05	0.00019	4
14561	2e-05	4e-05	-0.0001	-6e-05	-0.00015	0.00033	9e-05	0.00019	4
14562	2e-05	4e-05	-0.0001	-6e-05	-0.00015	0.00033	9e-05	0.00019	4
14563	2e-05	4e-05	-0.0001	-6e-05	-0.00015	0.00033	9e-05	0.00019	4
14564	2e-05	4e-05	-0.0001	-6e-05	-0.00015	0.00033	9e-05	0.00019	4
14565	2e-05	4e-05	-0.0001	-6e-05	-0.00015	0.00033	9e-05	0.00019	4
14566	2e-05	4e-05	-0.0001	-6e-05	-0.00015	0.00033	9e-05	0.00019	4
14567	2e-05	4e-05	-0.0001	-6e-05	-0.00015	0.00033	9e-05	0.00019	4
14568	2e-05	4e-05	-0.0001	-6e-05	-0.00015	0.00033	9e-05	0.00019	4
14569	0	-1e-05	7e-05	4e-05	8e-05	-0.00017	-0.00011	-0.00014	4
14570	1e-05	5e-05	8e-05	3e-05	-0.00055	0.00034	8e-05	3e-05	4
14571	3e-05	1e-05	7e-05	7e-05	-1e-05	-0.00019	1e-05	0	4
14572	3e-05	1e-05	7e-05	7e-05	-1e-05	-0.00019	1e-05	0	4
14573	3e-05	1e-05	7e-05	7e-05	-1e-05	-0.00019	1e-05	0	4
14574	3e-05	1e-05	7e-05	7e-05	-1e-05	-0.00019	1e-05	0	4
14575	3e-05	1e-05	7e-05	7e-05	-1e-05	-0.00019	1e-05	0	4
14576	3e-05	1e-05	7e-05	7e-05	-1e-05	-0.00019	1e-05	0	4
14577	3e-05	1e-05	7e-05	7e-05	-1e-05	-0.00019	1e-05	0	4
14578	3e-05	1e-05	7e-05	7e-05	-1e-05	-0.00019	1e-05	0	4
14579	3e-05	1e-05	7e-05	7e-05	-1e-05	-0.00019	1e-05	0	4
14580	3e-05	1e-05	7e-05	7e-05	-1e-05	-0.00019	1e-05	0	4
14581	3e-05	1e-05	7e-05	7e-05	-1e-05	-0.00019	1e-05	0	4
14582	3e-05	1e-05	7e-05	7e-05	-1e-05	-0.00019	1e-05	0	4
14583	1e-05	-3e-05	1e-05	6e-05	-0.00036	0.00018	2e-05	9e-05	4
14584	-1e-05	0	-6e-05	-8e-05	-0.0005	0.0001	-5e-05	2e-05	4
14585	-1e-05	-5e-05	-2e-05	0.00011	-0.00012	0.00042	-3e-05	1e-05	4
14586	-1e-05	-5e-05	-2e-05	0.00011	-0.00012	0.00042	-3e-05	1e-05	4
14588	-1e-05	-5e-05	-2e-05	0.00011	-0.00012	0.00042	-3e-05	1e-05	4
14589	-1e-05	-5e-05	-2e-05	0.00011	-0.00012	0.00042	-3e-05	1e-05	4
14590	-1e-05	-5e-05	-2e-05	0.00011	-0.00012	0.00042	-3e-05	1e-05	4
14591	-1e-05	-5e-05	-2e-05	0.00011	-0.00012	0.00042	-3e-05	1e-05	4
14592	-1e-05	-5e-05	-2e-05	0.00011	-0.00012	0.00042	-3e-05	1e-05	4
14593	-1e-05	-5e-05	-2e-05	0.00011	-0.00012	0.00042	-3e-05	1e-05	4
14594	-1e-05	-5e-05	-2e-05	0.00011	-0.00012	0.00042	-3e-05	1e-05	4
14595	-1e-05	-5e-05	-2e-05	0.00011	-0.00012	0.00042	-3e-05	1e-05	4
14596	-1e-05	-5e-05	-2e-05	0.00011	-0.00012	0.00042	-3e-05	1e-05	4
14597	-1e-05	-5e-05	-2e-05	0.00011	-0.00012	0.00042	-3e-05	1e-05	4
14598	-1e-05	-5e-05	-2e-05	0.00011	-0.00012	0.00042	-3e-05	1e-05	4
14599	-1e-05	-5e-05	-2e-05	0.00011	-0.00012	0.00042	-3e-05	1e-05	4
14600	-1e-05	-5e-05	-2e-05	0.00011	-0.00012	0.00042	-3e-05	1e-05	4
14601	-1e-05	-5e-05	-2e-05	0.00011	-0.00012	0.00042	-3e-05	1e-05	4
14602	-1e-05	-5e-05	-2e-05	0.00011	-0.00012	0.00042	-3e-05	1e-05	4
14603	-1e-05	-5e-05	-2e-05	0.00011	-0.00012	0.00042	-3e-05	1e-05	4
14604	-1e-05	-5e-05	-2e-05	0.00011	-0.00012	0.00042	-3e-05	1e-05	4
14605	-1e-05	-5e-05	-2e-05	0.00011	-0.00012	0.00042	-3e-05	1e-05	4
14606	2e-05	4e-05	-0.00016	-0.0001	-0.00031	-6e-05	5e-05	6e-05	4
14607	2e-05	4e-05	-0.00016	-0.0001	-0.00031	-6e-05	5e-05	6e-05	4
14608	-2e-05	1e-05	-8e-05	0	-6e-05	0.00012	-2e-05	-0.0001	4
14609	-2e-05	1e-05	-8e-05	0	-6e-05	0.00012	-2e-05	-0.0001	4
14610	-2e-05	1e-05	-8e-05	0	-6e-05	0.00012	-2e-05	-0.0001	4
14611	-2e-05	1e-05	-8e-05	0	-6e-05	0.00012	-2e-05	-0.0001	4
14612	-2e-05	1e-05	-8e-05	0	-6e-05	0.00012	-2e-05	-0.0001	4
14613	-2e-05	1e-05	-8e-05	0	-6e-05	0.00012	-2e-05	-0.0001	4
14614	-2e-05	1e-05	-8e-05	0	-6e-05	0.00012	-2e-05	-0.0001	4
14615	-2e-05	1e-05	-8e-05	0	-6e-05	0.00012	-2e-05	-0.0001	4
14616	-2e-05	1e-05	-8e-05	0	-6e-05	0.00012	-2e-05	-0.0001	4
14617	-2e-05	1e-05	-8e-05	0	-6e-05	0.00012	-2e-05	-0.0001	4
14618	-2e-05	1e-05	-8e-05	0	-6e-05	0.00012	-2e-05	-0.0001	4
14619	-2e-05	1e-05	-8e-05	0	-6e-05	0.00012	-2e-05	-0.0001	4
14620	-2e-05	1e-05	-8e-05	0	-6e-05	0.00012	-2e-05	-0.0001	4
14621	-2e-05	1e-05	-8e-05	0	-6e-05	0.00012	-2e-05	-0.0001	4
14622	-2e-05	1e-05	-8e-05	0	-6e-05	0.00012	-2e-05	-0.0001	4
14623	-2e-05	1e-05	-8e-05	0	-6e-05	0.00012	-2e-05	-0.0001	4
14624	-2e-05	1e-05	-8e-05	0	-6e-05	0.00012	-2e-05	-0.0001	4
14625	-2e-05	1e-05	-8e-05	0	-6e-05	0.00012	-2e-05	-0.0001	4
14626	-2e-05	1e-05	-8e-05	0	-6e-05	0.00012	-2e-05	-0.0001	4
14627	-2e-05	1e-05	-8e-05	0	-6e-05	0.00012	-2e-05	-0.0001	4
14628	-2e-05	1e-05	-8e-05	0	-6e-05	0.00012	-2e-05	-0.0001	4
14629	-2e-05	1e-05	-8e-05	0	-6e-05	0.00012	-2e-05	-0.0001	4
14630	0	5e-05	6e-05	8e-05	0.00029	0.00017	1e-05	-2e-05	4
14631	-2e-05	-3e-05	-0.00013	-5e-05	-9e-05	2e-05	7e-05	1e-05	4
14632	-2e-05	-3e-05	-0.00013	-5e-05	-9e-05	2e-05	7e-05	1e-05	4
14633	-2e-05	-3e-05	-0.00013	-5e-05	-9e-05	2e-05	7e-05	1e-05	4
14634	-2e-05	-3e-05	-0.00013	-5e-05	-9e-05	2e-05	7e-05	1e-05	4
14635	-2e-05	-3e-05	-0.00013	-5e-05	-9e-05	2e-05	7e-05	1e-05	4
14636	-2e-05	-3e-05	-0.00013	-5e-05	-9e-05	2e-05	7e-05	1e-05	4
14638	-2e-05	-3e-05	-0.00013	-5e-05	-9e-05	2e-05	7e-05	1e-05	4
14640	-2e-05	-3e-05	-0.00013	-5e-05	-9e-05	2e-05	7e-05	1e-05	4
14641	-2e-05	-3e-05	-0.00013	-5e-05	-9e-05	2e-05	7e-05	1e-05	4
14642	-2e-05	-3e-05	-0.00013	-5e-05	-9e-05	2e-05	7e-05	1e-05	4
14643	-2e-05	2e-05	0	4e-05	-9e-05	-0.00015	-3e-05	-1e-05	4
14644	-2e-05	2e-05	0	4e-05	-9e-05	-0.00015	-3e-05	-1e-05	4
14645	1e-05	2e-05	6e-05	-1e-05	-0.00019	-0.00011	1e-05	-7e-05	4
14646	1e-05	2e-05	6e-05	-1e-05	-0.00019	-0.00011	1e-05	-7e-05	4
14647	1e-05	2e-05	6e-05	-1e-05	-0.00019	-0.00011	1e-05	-7e-05	4
14648	1e-05	2e-05	6e-05	-1e-05	-0.00019	-0.00011	1e-05	-7e-05	4
14649	1e-05	2e-05	6e-05	-1e-05	-0.00019	-0.00011	1e-05	-7e-05	4
14650	1e-05	2e-05	6e-05	-1e-05	-0.00019	-0.00011	1e-05	-7e-05	4
14651	1e-05	2e-05	6e-05	-1e-05	-0.00019	-0.00011	1e-05	-7e-05	4
14652	1e-05	2e-05	6e-05	-1e-05	-0.00019	-0.00011	1e-05	-7e-05	4
14653	1e-05	2e-05	6e-05	-1e-05	-0.00019	-0.00011	1e-05	-7e-05	4
14654	1e-05	2e-05	6e-05	-1e-05	-0.00019	-0.00011	1e-05	-7e-05	4
14655	1e-05	2e-05	6e-05	-1e-05	-0.00019	-0.00011	1e-05	-7e-05	4
14656	1e-05	2e-05	6e-05	-1e-05	-0.00019	-0.00011	1e-05	-7e-05	4
14657	1e-05	2e-05	6e-05	-1e-05	-0.00019	-0.00011	1e-05	-7e-05	4
14658	1e-05	2e-05	6e-05	-1e-05	-0.00019	-0.00011	1e-05	-7e-05	4
14659	1e-05	2e-05	6e-05	-1e-05	-0.00019	-0.00011	1e-05	-7e-05	4
14660	1e-05	2e-05	6e-05	-1e-05	-0.00019	-0.00011	1e-05	-7e-05	4
14661	1e-05	2e-05	6e-05	-1e-05	-0.00019	-0.00011	1e-05	-7e-05	4
14662	1e-05	2e-05	6e-05	-1e-05	-0.00019	-0.00011	1e-05	-7e-05	4
14663	1e-05	2e-05	6e-05	-1e-05	-0.00019	-0.00011	1e-05	-7e-05	4
14664	1e-05	2e-05	6e-05	-1e-05	-0.00019	-0.00011	1e-05	-7e-05	4
14665	1e-05	2e-05	6e-05	-1e-05	-0.00019	-0.00011	1e-05	-7e-05	4
14666	2e-05	6e-05	0.0001	5e-05	-0.00013	8e-05	7e-05	5e-05	4
14667	2e-05	6e-05	0.0001	5e-05	-0.00013	8e-05	7e-05	5e-05	4
14668	3e-05	-5e-05	-0.00011	0	0.00039	4e-05	2e-05	1e-05	4
14669	3e-05	-5e-05	-0.00011	0	0.00039	4e-05	2e-05	1e-05	4
14670	3e-05	-5e-05	-0.00011	0	0.00039	4e-05	2e-05	1e-05	4
14671	3e-05	-5e-05	-0.00011	0	0.00039	4e-05	2e-05	1e-05	4
14672	3e-05	-5e-05	-0.00011	0	0.00039	4e-05	2e-05	1e-05	4
14673	3e-05	-5e-05	-0.00011	0	0.00039	4e-05	2e-05	1e-05	4
14674	3e-05	-5e-05	-0.00011	0	0.00039	4e-05	2e-05	1e-05	4
14675	3e-05	-5e-05	-0.00011	0	0.00039	4e-05	2e-05	1e-05	4
14676	3e-05	-5e-05	-0.00011	0	0.00039	4e-05	2e-05	1e-05	4
14677	3e-05	-5e-05	-0.00011	0	0.00039	4e-05	2e-05	1e-05	4
14678	3e-05	-5e-05	-0.00011	0	0.00039	4e-05	2e-05	1e-05	4
14679	3e-05	-5e-05	-0.00011	0	0.00039	4e-05	2e-05	1e-05	4
14680	3e-05	-5e-05	-0.00011	0	0.00039	4e-05	2e-05	1e-05	4
14681	3e-05	-5e-05	-0.00011	0	0.00039	4e-05	2e-05	1e-05	4
14682	3e-05	-5e-05	-0.00011	0	0.00039	4e-05	2e-05	1e-05	4
14683	3e-05	-5e-05	-0.00011	0	0.00039	4e-05	2e-05	1e-05	4
14684	3e-05	-5e-05	-0.00011	0	0.00039	4e-05	2e-05	1e-05	4
14685	3e-05	-5e-05	-0.00011	0	0.00039	4e-05	2e-05	1e-05	4
14686	3e-05	-5e-05	-0.00011	0	0.00039	4e-05	2e-05	1e-05	4
14689	0	2e-05	4e-05	-5e-05	3e-05	7e-05	-2e-05	-1e-05	4
14690	0	2e-05	4e-05	-5e-05	3e-05	7e-05	-2e-05	-1e-05	4
14691	-2e-05	1e-05	-0.00012	-8e-05	-0.00086	-0.00037	-5e-05	-1e-05	4
14692	-2e-05	1e-05	-0.00012	-8e-05	-0.00086	-0.00037	-5e-05	-1e-05	4
14693	-2e-05	1e-05	-0.00012	-8e-05	-0.00086	-0.00037	-5e-05	-1e-05	4
14694	-2e-05	1e-05	-0.00012	-8e-05	-0.00086	-0.00037	-5e-05	-1e-05	4
14695	-2e-05	1e-05	-0.00012	-8e-05	-0.00086	-0.00037	-5e-05	-1e-05	4
14696	-2e-05	1e-05	-0.00012	-8e-05	-0.00086	-0.00037	-5e-05	-1e-05	4
14697	-2e-05	1e-05	-0.00012	-8e-05	-0.00086	-0.00037	-5e-05	-1e-05	4
14698	-2e-05	1e-05	-0.00012	-8e-05	-0.00086	-0.00037	-5e-05	-1e-05	4
14699	-2e-05	1e-05	-0.00012	-8e-05	-0.00086	-0.00037	-5e-05	-1e-05	4
14700	-2e-05	1e-05	-0.00012	-8e-05	-0.00086	-0.00037	-5e-05	-1e-05	4
14701	-2e-05	1e-05	-0.00012	-8e-05	-0.00086	-0.00037	-5e-05	-1e-05	4
14702	-2e-05	1e-05	-0.00012	-8e-05	-0.00086	-0.00037	-5e-05	-1e-05	4
14703	-1e-05	-8e-05	0	-6e-05	-0.00067	0.00031	7e-05	3e-05	4
14704	-1e-05	-8e-05	0	-6e-05	-0.00067	0.00031	7e-05	3e-05	4
14705	-1e-05	-8e-05	0	-6e-05	-0.00067	0.00031	7e-05	3e-05	4
14706	-1e-05	-8e-05	0	-6e-05	-0.00067	0.00031	7e-05	3e-05	4
14707	-1e-05	-8e-05	0	-6e-05	-0.00067	0.00031	7e-05	3e-05	4
14708	-1e-05	-8e-05	0	-6e-05	-0.00067	0.00031	7e-05	3e-05	4
14709	-1e-05	-8e-05	0	-6e-05	-0.00067	0.00031	7e-05	3e-05	4
14710	-1e-05	-8e-05	0	-6e-05	-0.00067	0.00031	7e-05	3e-05	4
14711	-1e-05	-8e-05	0	-6e-05	-0.00067	0.00031	7e-05	3e-05	4
14712	-1e-05	-8e-05	0	-6e-05	-0.00067	0.00031	7e-05	3e-05	4
14713	-1e-05	-8e-05	0	-6e-05	-0.00067	0.00031	7e-05	3e-05	4
14714	-1e-05	-8e-05	0	-6e-05	-0.00067	0.00031	7e-05	3e-05	4
14715	-1e-05	-8e-05	0	-6e-05	-0.00067	0.00031	7e-05	3e-05	4
14716	-1e-05	-8e-05	0	-6e-05	-0.00067	0.00031	7e-05	3e-05	4
14717	-2e-05	-0.0001	-4e-05	6e-05	0.00024	0.00014	8e-05	-2e-05	4
14718	-2e-05	-0.0001	-4e-05	6e-05	0.00024	0.00014	8e-05	-2e-05	4
14719	-2e-05	-0.0001	-4e-05	6e-05	0.00024	0.00014	8e-05	-2e-05	4
14720	-2e-05	-0.0001	-4e-05	6e-05	0.00024	0.00014	8e-05	-2e-05	4
14721	-2e-05	-0.0001	-4e-05	6e-05	0.00024	0.00014	8e-05	-2e-05	4
14722	-2e-05	-0.0001	-4e-05	6e-05	0.00024	0.00014	8e-05	-2e-05	4
14723	-2e-05	-0.0001	-4e-05	6e-05	0.00024	0.00014	8e-05	-2e-05	4
14724	-2e-05	-0.0001	-4e-05	6e-05	0.00024	0.00014	8e-05	-2e-05	4
14725	-2e-05	-0.0001	-4e-05	6e-05	0.00024	0.00014	8e-05	-2e-05	4
14726	-2e-05	-0.0001	-4e-05	6e-05	0.00024	0.00014	8e-05	-2e-05	4
14727	-4e-05	5e-05	8e-05	1e-05	0.00047	-0.00039	-7e-05	-7e-05	4
14728	-3e-05	-5e-05	-9e-05	-8e-05	0.00055	-0.00019	-8e-05	-4e-05	4
14729	-3e-05	-5e-05	-9e-05	-8e-05	0.00055	-0.00019	-8e-05	-4e-05	4
14730	-3e-05	-5e-05	-9e-05	-8e-05	0.00055	-0.00019	-8e-05	-4e-05	4
14731	-3e-05	-5e-05	-9e-05	-8e-05	0.00055	-0.00019	-8e-05	-4e-05	4
14732	-3e-05	-5e-05	-9e-05	-8e-05	0.00055	-0.00019	-8e-05	-4e-05	4
14733	-3e-05	-5e-05	-9e-05	-8e-05	0.00055	-0.00019	-8e-05	-4e-05	4
14734	-3e-05	-5e-05	-9e-05	-8e-05	0.00055	-0.00019	-8e-05	-4e-05	4
14735	-3e-05	-5e-05	-9e-05	-8e-05	0.00055	-0.00019	-8e-05	-4e-05	4
14736	-3e-05	-5e-05	-9e-05	-8e-05	0.00055	-0.00019	-8e-05	-4e-05	4
14738	-3e-05	-5e-05	-9e-05	-8e-05	0.00055	-0.00019	-8e-05	-4e-05	4
14739	-3e-05	-5e-05	-9e-05	-8e-05	0.00055	-0.00019	-8e-05	-4e-05	4
14740	-3e-05	-5e-05	-9e-05	-8e-05	0.00055	-0.00019	-8e-05	-4e-05	4
14741	-3e-05	-5e-05	-9e-05	-8e-05	0.00055	-0.00019	-8e-05	-4e-05	4
14742	-3e-05	-5e-05	-9e-05	-8e-05	0.00055	-0.00019	-8e-05	-4e-05	4
14743	-3e-05	-5e-05	-9e-05	-8e-05	0.00055	-0.00019	-8e-05	-4e-05	4
14744	-3e-05	-5e-05	-9e-05	-8e-05	0.00055	-0.00019	-8e-05	-4e-05	4
14745	-3e-05	-5e-05	-9e-05	-8e-05	0.00055	-0.00019	-8e-05	-4e-05	4
14746	-3e-05	-5e-05	-9e-05	-8e-05	0.00055	-0.00019	-8e-05	-4e-05	4
14747	-3e-05	-5e-05	-9e-05	-8e-05	0.00055	-0.00019	-8e-05	-4e-05	4
14748	-3e-05	-5e-05	-9e-05	-8e-05	0.00055	-0.00019	-8e-05	-4e-05	4
14749	-5e-05	7e-05	-8e-05	-4e-05	0.00026	0.0001	-5e-05	0	4
14750	5e-05	0.00015	0.00026	-2e-05	1e-05	7e-05	0.00017	6e-05	4
14751	-3e-05	-0.00015	-0.00011	4e-05	7e-05	-0.00029	-7e-05	-6e-05	4
14752	-3e-05	-0.00015	-0.00011	4e-05	7e-05	-0.00029	-7e-05	-6e-05	4
14753	-3e-05	-0.00015	-0.00011	4e-05	7e-05	-0.00029	-7e-05	-6e-05	4
14754	-3e-05	-0.00015	-0.00011	4e-05	7e-05	-0.00029	-7e-05	-6e-05	4
14755	-3e-05	-0.00015	-0.00011	4e-05	7e-05	-0.00029	-7e-05	-6e-05	4
14756	-3e-05	-0.00015	-0.00011	4e-05	7e-05	-0.00029	-7e-05	-6e-05	4
14757	-3e-05	-0.00015	-0.00011	4e-05	7e-05	-0.00029	-7e-05	-6e-05	4
14758	-3e-05	-0.00015	-0.00011	4e-05	7e-05	-0.00029	-7e-05	-6e-05	4
14759	-3e-05	-0.00015	-0.00011	4e-05	7e-05	-0.00029	-7e-05	-6e-05	4
14760	-3e-05	-0.00015	-0.00011	4e-05	7e-05	-0.00029	-7e-05	-6e-05	4
14761	-3e-05	-0.00015	-0.00011	4e-05	7e-05	-0.00029	-7e-05	-6e-05	4
14762	-3e-05	-0.00015	-0.00011	4e-05	7e-05	-0.00029	-7e-05	-6e-05	4
14763	0	-6e-05	5e-05	4e-05	0.00017	-0.00022	-0.00011	-4e-05	4
14764	0	-6e-05	5e-05	4e-05	0.00017	-0.00022	-0.00011	-4e-05	4
14765	0	-6e-05	5e-05	4e-05	0.00017	-0.00022	-0.00011	-4e-05	4
14766	0	-6e-05	5e-05	4e-05	0.00017	-0.00022	-0.00011	-4e-05	4
14767	0	-6e-05	5e-05	4e-05	0.00017	-0.00022	-0.00011	-4e-05	4
14768	0	-6e-05	5e-05	4e-05	0.00017	-0.00022	-0.00011	-4e-05	4
14769	0	-6e-05	5e-05	4e-05	0.00017	-0.00022	-0.00011	-4e-05	4
14770	-1e-05	-2e-05	0	-7e-05	-0.00027	-0.0001	-6e-05	1e-05	4
14771	-1e-05	-2e-05	0	-7e-05	-0.00027	-0.0001	-6e-05	1e-05	4
14772	-1e-05	-2e-05	0	-7e-05	-0.00027	-0.0001	-6e-05	1e-05	4
14773	-1e-05	-2e-05	0	-7e-05	-0.00027	-0.0001	-6e-05	1e-05	4
14774	-1e-05	-2e-05	0	-7e-05	-0.00027	-0.0001	-6e-05	1e-05	4
14775	-1e-05	-2e-05	0	-7e-05	-0.00027	-0.0001	-6e-05	1e-05	4
14776	-1e-05	-2e-05	0	-7e-05	-0.00027	-0.0001	-6e-05	1e-05	4
14777	-1e-05	-2e-05	0	-7e-05	-0.00027	-0.0001	-6e-05	1e-05	4
14778	-1e-05	-2e-05	0	-7e-05	-0.00027	-0.0001	-6e-05	1e-05	4
14779	-1e-05	-2e-05	0	-7e-05	-0.00027	-0.0001	-6e-05	1e-05	4
14780	-1e-05	-2e-05	0	-7e-05	-0.00027	-0.0001	-6e-05	1e-05	4
14781	-1e-05	-2e-05	0	-7e-05	-0.00027	-0.0001	-6e-05	1e-05	4
14782	-1e-05	-2e-05	0	-7e-05	-0.00027	-0.0001	-6e-05	1e-05	4
14783	-1e-05	-2e-05	0	-7e-05	-0.00027	-0.0001	-6e-05	1e-05	4
14784	-1e-05	-2e-05	0	-7e-05	-0.00027	-0.0001	-6e-05	1e-05	4
14785	-1e-05	-2e-05	0	-7e-05	-0.00027	-0.0001	-6e-05	1e-05	4
14786	-3e-05	-4e-05	8e-05	3e-05	-5e-05	9e-05	6e-05	-2e-05	4
14788	3e-05	8e-05	0.00014	0.00015	0.00014	0.00021	0.0001	4e-05	4
14789	3e-05	8e-05	0.00014	0.00015	0.00014	0.00021	0.0001	4e-05	4
14790	3e-05	8e-05	0.00014	0.00015	0.00014	0.00021	0.0001	4e-05	4
14791	3e-05	8e-05	0.00014	0.00015	0.00014	0.00021	0.0001	4e-05	4
14792	3e-05	8e-05	0.00014	0.00015	0.00014	0.00021	0.0001	4e-05	4
14793	3e-05	8e-05	0.00014	0.00015	0.00014	0.00021	0.0001	4e-05	4
14794	3e-05	8e-05	0.00014	0.00015	0.00014	0.00021	0.0001	4e-05	4
14795	3e-05	8e-05	0.00014	0.00015	0.00014	0.00021	0.0001	4e-05	4
14796	3e-05	8e-05	0.00014	0.00015	0.00014	0.00021	0.0001	4e-05	4
14797	3e-05	8e-05	0.00014	0.00015	0.00014	0.00021	0.0001	4e-05	4
14798	3e-05	8e-05	0.00014	0.00015	0.00014	0.00021	0.0001	4e-05	4
14799	3e-05	8e-05	0.00014	0.00015	0.00014	0.00021	0.0001	4e-05	4
14800	3e-05	8e-05	0.00014	0.00015	0.00014	0.00021	0.0001	4e-05	4
14801	3e-05	8e-05	0.00014	0.00015	0.00014	0.00021	0.0001	4e-05	4
14802	3e-05	8e-05	0.00014	0.00015	0.00014	0.00021	0.0001	4e-05	4
14803	3e-05	8e-05	0.00014	0.00015	0.00014	0.00021	0.0001	4e-05	4
14804	3e-05	8e-05	0.00014	0.00015	0.00014	0.00021	0.0001	4e-05	4
14805	3e-05	8e-05	0.00014	0.00015	0.00014	0.00021	0.0001	4e-05	4
14806	3e-05	8e-05	0.00014	0.00015	0.00014	0.00021	0.0001	4e-05	4
14807	3e-05	8e-05	0.00014	0.00015	0.00014	0.00021	0.0001	4e-05	4
14808	-1e-05	-2e-05	-7e-05	-2e-05	0.0001	9e-05	1e-05	3e-05	4
14809	-1e-05	-2e-05	-7e-05	-2e-05	0.0001	9e-05	1e-05	3e-05	4
14810	0	-2e-05	-0.00018	0	0.00088	0.00015	-3e-05	-2e-05	4
14812	0	-2e-05	-0.00018	0	0.00088	0.00015	-3e-05	-2e-05	4
14813	0	-2e-05	-0.00018	0	0.00088	0.00015	-3e-05	-2e-05	4
14814	0	-2e-05	-0.00018	0	0.00088	0.00015	-3e-05	-2e-05	4
14815	0	-2e-05	-0.00018	0	0.00088	0.00015	-3e-05	-2e-05	4
14816	0	-2e-05	-0.00018	0	0.00088	0.00015	-3e-05	-2e-05	4
14817	0	-2e-05	-0.00018	0	0.00088	0.00015	-3e-05	-2e-05	4
14818	0	-2e-05	-0.00018	0	0.00088	0.00015	-3e-05	-2e-05	4
14819	0	-2e-05	-0.00018	0	0.00088	0.00015	-3e-05	-2e-05	4
14820	0	-2e-05	-0.00018	0	0.00088	0.00015	-3e-05	-2e-05	4
14821	0	-2e-05	-0.00018	0	0.00088	0.00015	-3e-05	-2e-05	4
14822	0	-2e-05	-0.00018	0	0.00088	0.00015	-3e-05	-2e-05	4
14823	-1e-05	-2e-05	3e-05	8e-05	0.00035	-0.00012	3e-05	-4e-05	4
14824	-1e-05	-2e-05	3e-05	8e-05	0.00035	-0.00012	3e-05	-4e-05	4
14825	-1e-05	-2e-05	3e-05	8e-05	0.00035	-0.00012	3e-05	-4e-05	4
14826	-1e-05	-2e-05	3e-05	8e-05	0.00035	-0.00012	3e-05	-4e-05	4
14827	-1e-05	-2e-05	3e-05	8e-05	0.00035	-0.00012	3e-05	-4e-05	4
14828	-1e-05	-2e-05	3e-05	8e-05	0.00035	-0.00012	3e-05	-4e-05	4
14829	-1e-05	-2e-05	3e-05	8e-05	0.00035	-0.00012	3e-05	-4e-05	4
14830	-5e-05	-3e-05	0.00014	-1e-05	0.00044	0.00013	-8e-05	-5e-05	4
14831	-5e-05	-3e-05	0.00014	-1e-05	0.00044	0.00013	-8e-05	-5e-05	4
14832	-5e-05	-3e-05	0.00014	-1e-05	0.00044	0.00013	-8e-05	-5e-05	4
14833	-5e-05	-3e-05	0.00014	-1e-05	0.00044	0.00013	-8e-05	-5e-05	4
14834	-5e-05	-3e-05	0.00014	-1e-05	0.00044	0.00013	-8e-05	-5e-05	4
14835	-5e-05	-3e-05	0.00014	-1e-05	0.00044	0.00013	-8e-05	-5e-05	4
14836	-5e-05	-3e-05	0.00014	-1e-05	0.00044	0.00013	-8e-05	-5e-05	4
14838	-5e-05	-3e-05	0.00014	-1e-05	0.00044	0.00013	-8e-05	-5e-05	4
14839	-5e-05	-3e-05	0.00014	-1e-05	0.00044	0.00013	-8e-05	-5e-05	4
14840	-5e-05	-3e-05	0.00014	-1e-05	0.00044	0.00013	-8e-05	-5e-05	4
14841	-5e-05	-3e-05	0.00014	-1e-05	0.00044	0.00013	-8e-05	-5e-05	4
14842	-5e-05	-3e-05	0.00014	-1e-05	0.00044	0.00013	-8e-05	-5e-05	4
14843	-5e-05	-3e-05	0.00014	-1e-05	0.00044	0.00013	-8e-05	-5e-05	4
14844	-5e-05	-3e-05	0.00014	-1e-05	0.00044	0.00013	-8e-05	-5e-05	4
14845	-5e-05	-3e-05	0.00014	-1e-05	0.00044	0.00013	-8e-05	-5e-05	4
14846	-3e-05	-4e-05	0.0002	0	6e-05	0.0001	0	-3e-05	4
14847	-3e-05	-4e-05	0.0002	0	6e-05	0.0001	0	-3e-05	4
14848	-2e-05	3e-05	-6e-05	-0.00012	-0.00041	-0.00014	-4e-05	-4e-05	4
14849	-2e-05	3e-05	-6e-05	-0.00012	-0.00041	-0.00014	-4e-05	-4e-05	4
14850	-2e-05	3e-05	-6e-05	-0.00012	-0.00041	-0.00014	-4e-05	-4e-05	4
14851	-2e-05	3e-05	-6e-05	-0.00012	-0.00041	-0.00014	-4e-05	-4e-05	4
14852	-2e-05	3e-05	-6e-05	-0.00012	-0.00041	-0.00014	-4e-05	-4e-05	4
14853	-2e-05	3e-05	-6e-05	-0.00012	-0.00041	-0.00014	-4e-05	-4e-05	4
14854	-2e-05	3e-05	-6e-05	-0.00012	-0.00041	-0.00014	-4e-05	-4e-05	4
14855	-2e-05	3e-05	-6e-05	-0.00012	-0.00041	-0.00014	-4e-05	-4e-05	4
14856	-2e-05	3e-05	-6e-05	-0.00012	-0.00041	-0.00014	-4e-05	-4e-05	4
14857	-2e-05	3e-05	-6e-05	-0.00012	-0.00041	-0.00014	-4e-05	-4e-05	4
14858	-2e-05	3e-05	-6e-05	-0.00012	-0.00041	-0.00014	-4e-05	-4e-05	4
14859	-2e-05	3e-05	-6e-05	-0.00012	-0.00041	-0.00014	-4e-05	-4e-05	4
14860	-2e-05	3e-05	-6e-05	-0.00012	-0.00041	-0.00014	-4e-05	-4e-05	4
14861	-2e-05	3e-05	-6e-05	-0.00012	-0.00041	-0.00014	-4e-05	-4e-05	4
14862	-2e-05	3e-05	-6e-05	-0.00012	-0.00041	-0.00014	-4e-05	-4e-05	4
14863	-2e-05	3e-05	-6e-05	-0.00012	-0.00041	-0.00014	-4e-05	-4e-05	4
14864	-2e-05	3e-05	-6e-05	-0.00012	-0.00041	-0.00014	-4e-05	-4e-05	4
14865	-2e-05	3e-05	-6e-05	-0.00012	-0.00041	-0.00014	-4e-05	-4e-05	4
14866	-2e-05	3e-05	-6e-05	-0.00012	-0.00041	-0.00014	-4e-05	-4e-05	4
14867	-2e-05	3e-05	-6e-05	-0.00012	-0.00041	-0.00014	-4e-05	-4e-05	4
14868	0	-5e-05	-6e-05	-6e-05	-0.00014	-0.00013	-8e-05	-4e-05	4
14869	0	-5e-05	-6e-05	-6e-05	-0.00014	-0.00013	-8e-05	-4e-05	4
14870	0	-5e-05	-6e-05	-6e-05	-0.00014	-0.00013	-8e-05	-4e-05	4
14871	0	-5e-05	-6e-05	-6e-05	-0.00014	-0.00013	-8e-05	-4e-05	4
14872	0	-5e-05	-6e-05	-6e-05	-0.00014	-0.00013	-8e-05	-4e-05	4
14873	0	-5e-05	-6e-05	-6e-05	-0.00014	-0.00013	-8e-05	-4e-05	4
14874	0	-5e-05	-6e-05	-6e-05	-0.00014	-0.00013	-8e-05	-4e-05	4
14875	0	-5e-05	-6e-05	-6e-05	-0.00014	-0.00013	-8e-05	-4e-05	4
14876	1e-05	8e-05	0.00014	1e-05	-0.00057	5e-05	0.00011	3e-05	4
14877	1e-05	8e-05	0.00014	1e-05	-0.00057	5e-05	0.00011	3e-05	4
14878	1e-05	8e-05	0.00014	1e-05	-0.00057	5e-05	0.00011	3e-05	4
14879	1e-05	8e-05	0.00014	1e-05	-0.00057	5e-05	0.00011	3e-05	4
14880	1e-05	8e-05	0.00014	1e-05	-0.00057	5e-05	0.00011	3e-05	4
14881	1e-05	8e-05	0.00014	1e-05	-0.00057	5e-05	0.00011	3e-05	4
14882	1e-05	8e-05	0.00014	1e-05	-0.00057	5e-05	0.00011	3e-05	4
14883	3e-05	4e-05	-7e-05	-3e-05	-0.00013	0.00015	0	4e-05	4
14884	3e-05	4e-05	-7e-05	-3e-05	-0.00013	0.00015	0	4e-05	4
14885	3e-05	4e-05	-7e-05	-3e-05	-0.00013	0.00015	0	4e-05	4
14886	3e-05	4e-05	-7e-05	-3e-05	-0.00013	0.00015	0	4e-05	4
14889	3e-05	4e-05	-7e-05	-3e-05	-0.00013	0.00015	0	4e-05	4
14890	-2e-05	-1e-05	0.00014	-5e-05	-4e-05	-0.00014	-7e-05	-2e-05	4
14891	-2e-05	-1e-05	0.00014	-5e-05	-4e-05	-0.00014	-7e-05	-2e-05	4
14892	-2e-05	-1e-05	0.00014	-5e-05	-4e-05	-0.00014	-7e-05	-2e-05	4
14893	-2e-05	-1e-05	0.00014	-5e-05	-4e-05	-0.00014	-7e-05	-2e-05	4
14894	-2e-05	-1e-05	0.00014	-5e-05	-4e-05	-0.00014	-7e-05	-2e-05	4
14895	-2e-05	-1e-05	0.00014	-5e-05	-4e-05	-0.00014	-7e-05	-2e-05	4
14896	-2e-05	-1e-05	0.00014	-5e-05	-4e-05	-0.00014	-7e-05	-2e-05	4
14897	-2e-05	-1e-05	0.00014	-5e-05	-4e-05	-0.00014	-7e-05	-2e-05	4
14898	-2e-05	-1e-05	0.00014	-5e-05	-4e-05	-0.00014	-7e-05	-2e-05	4
14899	-2e-05	-1e-05	0.00014	-5e-05	-4e-05	-0.00014	-7e-05	-2e-05	4
14900	-2e-05	-1e-05	0.00014	-5e-05	-4e-05	-0.00014	-7e-05	-2e-05	4
14901	-2e-05	-1e-05	0.00014	-5e-05	-4e-05	-0.00014	-7e-05	-2e-05	4
14902	-2e-05	-1e-05	0.00014	-5e-05	-4e-05	-0.00014	-7e-05	-2e-05	4
14903	-2e-05	-1e-05	0.00014	-5e-05	-4e-05	-0.00014	-7e-05	-2e-05	4
14904	-2e-05	-1e-05	0.00014	-5e-05	-4e-05	-0.00014	-7e-05	-2e-05	4
14905	-2e-05	-1e-05	0.00014	-5e-05	-4e-05	-0.00014	-7e-05	-2e-05	4
14906	-8e-05	-0.00012	-0.00012	-8e-05	0.00029	8e-05	3e-05	-3e-05	4
14907	-8e-05	-0.00012	-0.00012	-8e-05	0.00029	8e-05	3e-05	-3e-05	4
14908	-5e-05	-3e-05	-0.00016	-0.00034	-0.00092	-0.00035	-0.0001	-6e-05	4
14909	-5e-05	-3e-05	-0.00016	-0.00034	-0.00092	-0.00035	-0.0001	-6e-05	4
14910	-5e-05	-3e-05	-0.00016	-0.00034	-0.00092	-0.00035	-0.0001	-6e-05	4
14911	-5e-05	-3e-05	-0.00016	-0.00034	-0.00092	-0.00035	-0.0001	-6e-05	4
14912	-5e-05	-3e-05	-0.00016	-0.00034	-0.00092	-0.00035	-0.0001	-6e-05	4
14913	-5e-05	-3e-05	-0.00016	-0.00034	-0.00092	-0.00035	-0.0001	-6e-05	4
14914	-5e-05	-3e-05	-0.00016	-0.00034	-0.00092	-0.00035	-0.0001	-6e-05	4
14915	-5e-05	-3e-05	-0.00016	-0.00034	-0.00092	-0.00035	-0.0001	-6e-05	4
14916	-5e-05	-3e-05	-0.00016	-0.00034	-0.00092	-0.00035	-0.0001	-6e-05	4
14917	-5e-05	-3e-05	-0.00016	-0.00034	-0.00092	-0.00035	-0.0001	-6e-05	4
14918	-5e-05	-3e-05	-0.00016	-0.00034	-0.00092	-0.00035	-0.0001	-6e-05	4
14919	-5e-05	-3e-05	-0.00016	-0.00034	-0.00092	-0.00035	-0.0001	-6e-05	4
14920	-5e-05	-3e-05	-0.00016	-0.00034	-0.00092	-0.00035	-0.0001	-6e-05	4
14921	-5e-05	-3e-05	-0.00016	-0.00034	-0.00092	-0.00035	-0.0001	-6e-05	4
14922	-5e-05	-3e-05	-0.00016	-0.00034	-0.00092	-0.00035	-0.0001	-6e-05	4
14923	-5e-05	-3e-05	-0.00016	-0.00034	-0.00092	-0.00035	-0.0001	-6e-05	4
14924	-5e-05	-3e-05	-0.00016	-0.00034	-0.00092	-0.00035	-0.0001	-6e-05	4
14925	-5e-05	-3e-05	-0.00016	-0.00034	-0.00092	-0.00035	-0.0001	-6e-05	4
14926	-5e-05	-3e-05	-0.00016	-0.00034	-0.00092	-0.00035	-0.0001	-6e-05	4
14927	-5e-05	-3e-05	-0.00016	-0.00034	-0.00092	-0.00035	-0.0001	-6e-05	4
14928	-5e-05	-3e-05	-0.00016	-0.00034	-0.00092	-0.00035	-0.0001	-6e-05	4
14929	0	-1e-05	-0.00034	-0.00011	0.00022	6e-05	-2e-05	-7e-05	4
14930	0	-1e-05	-0.00034	-0.00011	0.00022	6e-05	-2e-05	-7e-05	4
14931	0	-1e-05	-0.00034	-0.00011	0.00022	6e-05	-2e-05	-7e-05	4
14932	0	-1e-05	-0.00034	-0.00011	0.00022	6e-05	-2e-05	-7e-05	4
14933	0	-1e-05	-0.00034	-0.00011	0.00022	6e-05	-2e-05	-7e-05	4
14934	0	-1e-05	-0.00034	-0.00011	0.00022	6e-05	-2e-05	-7e-05	4
14935	0	-1e-05	-0.00034	-0.00011	0.00022	6e-05	-2e-05	-7e-05	4
14936	-1e-05	-3e-05	4e-05	0	-0.00029	-1e-05	3e-05	-2e-05	4
14938	-1e-05	-3e-05	4e-05	0	-0.00029	-1e-05	3e-05	-2e-05	4
14939	-1e-05	-3e-05	4e-05	0	-0.00029	-1e-05	3e-05	-2e-05	4
14940	-1e-05	-3e-05	4e-05	0	-0.00029	-1e-05	3e-05	-2e-05	4
14941	-1e-05	-3e-05	4e-05	0	-0.00029	-1e-05	3e-05	-2e-05	4
14942	-1e-05	-3e-05	4e-05	0	-0.00029	-1e-05	3e-05	-2e-05	4
14943	-1e-05	-3e-05	4e-05	0	-0.00029	-1e-05	3e-05	-2e-05	4
14944	3e-05	0.00012	2e-05	9e-05	2e-05	0.00033	9e-05	5e-05	4
14945	3e-05	0.00012	2e-05	9e-05	2e-05	0.00033	9e-05	5e-05	4
14946	3e-05	0.00012	2e-05	9e-05	2e-05	0.00033	9e-05	5e-05	4
14947	3e-05	0.00012	2e-05	9e-05	2e-05	0.00033	9e-05	5e-05	4
14948	3e-05	0.00012	2e-05	9e-05	2e-05	0.00033	9e-05	5e-05	4
14949	3e-05	0.00012	2e-05	9e-05	2e-05	0.00033	9e-05	5e-05	4
14950	5e-05	8e-05	-7e-05	0.00015	0.00023	-5e-05	4e-05	4e-05	4
14951	5e-05	8e-05	-7e-05	0.00015	0.00023	-5e-05	4e-05	4e-05	4
14952	5e-05	8e-05	-7e-05	0.00015	0.00023	-5e-05	4e-05	4e-05	4
14953	5e-05	8e-05	-7e-05	0.00015	0.00023	-5e-05	4e-05	4e-05	4
14954	5e-05	8e-05	-7e-05	0.00015	0.00023	-5e-05	4e-05	4e-05	4
14955	5e-05	8e-05	-7e-05	0.00015	0.00023	-5e-05	4e-05	4e-05	4
14957	5e-05	8e-05	-7e-05	0.00015	0.00023	-5e-05	4e-05	4e-05	4
41143	3e-05	3e-05	-0.00013	-4e-05	-0.00059	-0.0005	4e-05	7e-05	4
41144	3e-05	3e-05	-0.00013	-4e-05	-0.00059	-0.0005	4e-05	7e-05	4
41145	3e-05	3e-05	-0.00013	-4e-05	-0.00059	-0.0005	4e-05	7e-05	4
41146	3e-05	3e-05	-0.00013	-4e-05	-0.00059	-0.0005	4e-05	7e-05	4
41147	-8e-05	-0.00012	-0.00017	-0.00024	-0.00077	-0.00074	-7e-05	-0.00012	4
41148	-8e-05	-0.00012	-0.00017	-0.00024	-0.00077	-0.00074	-7e-05	-0.00012	4
41149	-8e-05	-0.00012	-0.00017	-0.00024	-0.00077	-0.00074	-7e-05	-0.00012	4
41150	-8e-05	-0.00012	-0.00017	-0.00024	-0.00077	-0.00074	-7e-05	-0.00012	4
41151	-8e-05	-0.00012	-0.00017	-0.00024	-0.00077	-0.00074	-7e-05	-0.00012	4
41152	-8e-05	-0.00012	-0.00017	-0.00024	-0.00077	-0.00074	-7e-05	-0.00012	4
41153	-8e-05	-0.00012	-0.00017	-0.00024	-0.00077	-0.00074	-7e-05	-0.00012	4
41154	-8e-05	-0.00012	-0.00017	-0.00024	-0.00077	-0.00074	-7e-05	-0.00012	4
41155	-8e-05	-0.00012	-0.00017	-0.00024	-0.00077	-0.00074	-7e-05	-0.00012	4
41156	-4e-05	-9e-05	-5e-05	-0.00028	-0.0008	-0.00046	-0.00027	-0.00011	4
41157	0	-0.00012	-2e-05	-0.00028	0.00013	-2e-05	1e-05	-8e-05	4
41159	0	-0.00012	-2e-05	-0.00028	0.00013	-2e-05	1e-05	-8e-05	4
41160	0	-0.00012	-2e-05	-0.00028	0.00013	-2e-05	1e-05	-8e-05	4
41161	0	-0.00012	-2e-05	-0.00028	0.00013	-2e-05	1e-05	-8e-05	4
41162	0	-0.00012	-2e-05	-0.00028	0.00013	-2e-05	1e-05	-8e-05	4
41163	0	-0.00012	-2e-05	-0.00028	0.00013	-2e-05	1e-05	-8e-05	4
41164	0	-0.00012	-2e-05	-0.00028	0.00013	-2e-05	1e-05	-8e-05	4
41165	0	-0.00012	-2e-05	-0.00028	0.00013	-2e-05	1e-05	-8e-05	4
41166	0	-0.00012	-2e-05	-0.00028	0.00013	-2e-05	1e-05	-8e-05	4
41167	0	-0.00012	-2e-05	-0.00028	0.00013	-2e-05	1e-05	-8e-05	4
41168	0	-0.00012	-2e-05	-0.00028	0.00013	-2e-05	1e-05	-8e-05	4
41169	0	-0.00012	-2e-05	-0.00028	0.00013	-2e-05	1e-05	-8e-05	4
41170	0	-0.00012	-2e-05	-0.00028	0.00013	-2e-05	1e-05	-8e-05	4
41171	0	-0.00012	-2e-05	-0.00028	0.00013	-2e-05	1e-05	-8e-05	4
41172	0	-0.00012	-2e-05	-0.00028	0.00013	-2e-05	1e-05	-8e-05	4
41173	0	-0.00012	-2e-05	-0.00028	0.00013	-2e-05	1e-05	-8e-05	4
41174	0	-0.00012	-2e-05	-0.00028	0.00013	-2e-05	1e-05	-8e-05	4
41175	0	-0.00012	-2e-05	-0.00028	0.00013	-2e-05	1e-05	-8e-05	4
41176	0	-0.00012	-2e-05	-0.00028	0.00013	-2e-05	1e-05	-8e-05	4
41177	0	-0.00012	-2e-05	-0.00028	0.00013	-2e-05	1e-05	-8e-05	4
41178	-9e-05	-0.00014	-9e-05	-0.00025	-0.00039	-5e-05	-0.00017	7e-05	4
41179	-9e-05	-0.00014	-9e-05	-0.00025	-0.00039	-5e-05	-0.00017	7e-05	4
41180	5e-05	9e-05	3e-05	-1e-05	-7e-05	0.00036	1e-05	-3e-05	4
41181	5e-05	9e-05	3e-05	-1e-05	-7e-05	0.00036	1e-05	-3e-05	4
41182	5e-05	9e-05	3e-05	-1e-05	-7e-05	0.00036	1e-05	-3e-05	4
41183	5e-05	9e-05	3e-05	-1e-05	-7e-05	0.00036	1e-05	-3e-05	4
41184	5e-05	9e-05	3e-05	-1e-05	-7e-05	0.00036	1e-05	-3e-05	4
41185	5e-05	9e-05	3e-05	-1e-05	-7e-05	0.00036	1e-05	-3e-05	4
41186	5e-05	9e-05	3e-05	-1e-05	-7e-05	0.00036	1e-05	-3e-05	4
41188	5e-05	9e-05	3e-05	-1e-05	-7e-05	0.00036	1e-05	-3e-05	4
41189	5e-05	9e-05	3e-05	-1e-05	-7e-05	0.00036	1e-05	-3e-05	4
41190	5e-05	9e-05	3e-05	-1e-05	-7e-05	0.00036	1e-05	-3e-05	4
41191	5e-05	9e-05	3e-05	-1e-05	-7e-05	0.00036	1e-05	-3e-05	4
41192	5e-05	9e-05	3e-05	-1e-05	-7e-05	0.00036	1e-05	-3e-05	4
41193	2e-05	-7e-05	-8e-05	3e-05	0.00015	0.00032	0.00022	0.00057	4
41194	2e-05	-7e-05	-8e-05	3e-05	0.00015	0.00032	0.00022	0.00057	4
41195	0	0	-0.0001	0.00022	0.00055	0.00029	0	-8e-05	4
41196	0	0	-0.0001	0.00022	0.00055	0.00029	0	-8e-05	4
41197	0	0	-0.0001	0.00022	0.00055	0.00029	0	-8e-05	4
41198	0	0	-0.0001	0.00022	0.00055	0.00029	0	-8e-05	4
41199	0	0	-0.0001	0.00022	0.00055	0.00029	0	-8e-05	4
41200	0	0	-0.0001	0.00022	0.00055	0.00029	0	-8e-05	4
41201	0	0	-0.0001	0.00022	0.00055	0.00029	0	-8e-05	4
41202	0	0	-0.0001	0.00022	0.00055	0.00029	0	-8e-05	4
41203	0	0	-0.0001	0.00022	0.00055	0.00029	0	-8e-05	4
41204	0	0	-0.0001	0.00022	0.00055	0.00029	0	-8e-05	4
41205	0	0	-0.0001	0.00022	0.00055	0.00029	0	-8e-05	4
41206	0	0	-0.0001	0.00022	0.00055	0.00029	0	-8e-05	4
41207	0	0	-0.0001	0.00022	0.00055	0.00029	0	-8e-05	4
41208	0	0	-0.0001	0.00022	0.00055	0.00029	0	-8e-05	4
41209	0	0	-0.0001	0.00022	0.00055	0.00029	0	-8e-05	4
41210	0	0	-0.0001	0.00022	0.00055	0.00029	0	-8e-05	4
41211	0	0	-0.0001	0.00022	0.00055	0.00029	0	-8e-05	4
41212	0	0	-0.0001	0.00022	0.00055	0.00029	0	-8e-05	4
41213	0	0	-0.0001	0.00022	0.00055	0.00029	0	-8e-05	4
41214	0	0	-0.0001	0.00022	0.00055	0.00029	0	-8e-05	4
41215	0	0	-0.0001	0.00022	0.00055	0.00029	0	-8e-05	4
41216	-5e-05	-7e-05	0.00012	-9e-05	-0.00048	0.00017	8e-05	-8e-05	4
41217	-5e-05	-7e-05	0.00012	-9e-05	-0.00048	0.00017	8e-05	-8e-05	4
41218	0	6e-05	0.00015	6e-05	-0.00049	-0.00078	9e-05	6e-05	4
41219	0	6e-05	0.00015	6e-05	-0.00049	-0.00078	9e-05	6e-05	4
41220	0	6e-05	0.00015	6e-05	-0.00049	-0.00078	9e-05	6e-05	4
41221	0	6e-05	0.00015	6e-05	-0.00049	-0.00078	9e-05	6e-05	4
41222	0	6e-05	0.00015	6e-05	-0.00049	-0.00078	9e-05	6e-05	4
41223	0	6e-05	0.00015	6e-05	-0.00049	-0.00078	9e-05	6e-05	4
41224	0	6e-05	0.00015	6e-05	-0.00049	-0.00078	9e-05	6e-05	4
41225	0	6e-05	0.00015	6e-05	-0.00049	-0.00078	9e-05	6e-05	4
41226	0	6e-05	0.00015	6e-05	-0.00049	-0.00078	9e-05	6e-05	4
41227	0	6e-05	0.00015	6e-05	-0.00049	-0.00078	9e-05	6e-05	4
41228	0	6e-05	0.00015	6e-05	-0.00049	-0.00078	9e-05	6e-05	4
41229	0	6e-05	0.00015	6e-05	-0.00049	-0.00078	9e-05	6e-05	4
41230	0	6e-05	0.00015	6e-05	-0.00049	-0.00078	9e-05	6e-05	4
41231	0	6e-05	0.00015	6e-05	-0.00049	-0.00078	9e-05	6e-05	4
41232	0	6e-05	0.00015	6e-05	-0.00049	-0.00078	9e-05	6e-05	4
41233	0	6e-05	0.00015	6e-05	-0.00049	-0.00078	9e-05	6e-05	4
41234	0	6e-05	0.00015	6e-05	-0.00049	-0.00078	9e-05	6e-05	4
41235	0	6e-05	0.00015	6e-05	-0.00049	-0.00078	9e-05	6e-05	4
41236	0	6e-05	0.00015	6e-05	-0.00049	-0.00078	9e-05	6e-05	4
41238	-8e-05	-0.00015	-0.00017	-0.00033	0.00014	-0.00035	-0.00017	-0.00022	4
41239	-8e-05	-0.00015	-0.00017	-0.00033	0.00014	-0.00035	-0.00017	-0.00022	4
41240	0	4e-05	1e-05	0.00017	0.00084	0.00025	-9e-05	-6e-05	4
41241	0	4e-05	1e-05	0.00017	0.00084	0.00025	-9e-05	-6e-05	4
41242	0	4e-05	1e-05	0.00017	0.00084	0.00025	-9e-05	-6e-05	4
41243	0	4e-05	1e-05	0.00017	0.00084	0.00025	-9e-05	-6e-05	4
41244	0	4e-05	1e-05	0.00017	0.00084	0.00025	-9e-05	-6e-05	4
41245	0	4e-05	1e-05	0.00017	0.00084	0.00025	-9e-05	-6e-05	4
41246	0	4e-05	1e-05	0.00017	0.00084	0.00025	-9e-05	-6e-05	4
41247	0	4e-05	1e-05	0.00017	0.00084	0.00025	-9e-05	-6e-05	4
41248	0	4e-05	1e-05	0.00017	0.00084	0.00025	-9e-05	-6e-05	4
41249	0	4e-05	1e-05	0.00017	0.00084	0.00025	-9e-05	-6e-05	4
41250	0	4e-05	1e-05	0.00017	0.00084	0.00025	-9e-05	-6e-05	4
41251	0	4e-05	1e-05	0.00017	0.00084	0.00025	-9e-05	-6e-05	4
41252	0	4e-05	1e-05	0.00017	0.00084	0.00025	-9e-05	-6e-05	4
41253	-6e-05	0.00012	-0.00012	-0.00013	0.00049	9e-05	-9e-05	-0.00012	4
41254	-6e-05	0.00012	-0.00012	-0.00013	0.00049	9e-05	-9e-05	-0.00012	4
41255	-1e-05	9e-05	4e-05	0.00024	0.00018	0.00022	0.00011	-0.00043	4
41256	-1e-05	9e-05	4e-05	0.00024	0.00018	0.00022	0.00011	-0.00043	4
41257	-1e-05	9e-05	4e-05	0.00024	0.00018	0.00022	0.00011	-0.00043	4
41258	-1e-05	9e-05	4e-05	0.00024	0.00018	0.00022	0.00011	-0.00043	4
41259	-1e-05	9e-05	4e-05	0.00024	0.00018	0.00022	0.00011	-0.00043	4
41260	-1e-05	9e-05	4e-05	0.00024	0.00018	0.00022	0.00011	-0.00043	4
41261	-1e-05	9e-05	4e-05	0.00024	0.00018	0.00022	0.00011	-0.00043	4
41262	-1e-05	9e-05	4e-05	0.00024	0.00018	0.00022	0.00011	-0.00043	4
41263	-1e-05	9e-05	4e-05	0.00024	0.00018	0.00022	0.00011	-0.00043	4
41264	-1e-05	9e-05	4e-05	0.00024	0.00018	0.00022	0.00011	-0.00043	4
41265	-1e-05	9e-05	4e-05	0.00024	0.00018	0.00022	0.00011	-0.00043	4
41266	-1e-05	9e-05	4e-05	0.00024	0.00018	0.00022	0.00011	-0.00043	4
41267	-1e-05	9e-05	4e-05	0.00024	0.00018	0.00022	0.00011	-0.00043	4
41268	-1e-05	9e-05	4e-05	0.00024	0.00018	0.00022	0.00011	-0.00043	4
41269	-1e-05	9e-05	4e-05	0.00024	0.00018	0.00022	0.00011	-0.00043	4
41270	-1e-05	9e-05	4e-05	0.00024	0.00018	0.00022	0.00011	-0.00043	4
41271	-1e-05	9e-05	4e-05	0.00024	0.00018	0.00022	0.00011	-0.00043	4
41272	-1e-05	9e-05	4e-05	0.00024	0.00018	0.00022	0.00011	-0.00043	4
41273	-1e-05	9e-05	4e-05	0.00024	0.00018	0.00022	0.00011	-0.00043	4
41274	-1e-05	9e-05	4e-05	0.00024	0.00018	0.00022	0.00011	-0.00043	4
41275	-1e-05	9e-05	4e-05	0.00024	0.00018	0.00022	0.00011	-0.00043	4
41276	-6e-05	0.00012	0.00038	6e-05	0.00027	0.00015	-5e-05	-9e-05	4
41277	-3e-05	-8e-05	-8e-05	-6e-05	-0.00036	0.0003	-5e-05	8e-05	4
41278	-3e-05	-8e-05	-8e-05	-6e-05	-0.00036	0.0003	-5e-05	8e-05	4
41279	-3e-05	-8e-05	-8e-05	-6e-05	-0.00036	0.0003	-5e-05	8e-05	4
41280	-3e-05	-8e-05	-8e-05	-6e-05	-0.00036	0.0003	-5e-05	8e-05	4
41281	-3e-05	-8e-05	-8e-05	-6e-05	-0.00036	0.0003	-5e-05	8e-05	4
41282	-3e-05	-8e-05	-8e-05	-6e-05	-0.00036	0.0003	-5e-05	8e-05	4
41283	-3e-05	-8e-05	-8e-05	-6e-05	-0.00036	0.0003	-5e-05	8e-05	4
41284	-3e-05	-8e-05	-8e-05	-6e-05	-0.00036	0.0003	-5e-05	8e-05	4
41285	-3e-05	-8e-05	-8e-05	-6e-05	-0.00036	0.0003	-5e-05	8e-05	4
41286	-3e-05	-8e-05	-8e-05	-6e-05	-0.00036	0.0003	-5e-05	8e-05	4
41288	-3e-05	-8e-05	-8e-05	-6e-05	-0.00036	0.0003	-5e-05	8e-05	4
41289	-3e-05	-8e-05	-8e-05	-6e-05	-0.00036	0.0003	-5e-05	8e-05	4
41290	-3e-05	-8e-05	-8e-05	-6e-05	-0.00036	0.0003	-5e-05	8e-05	4
41291	-3e-05	-8e-05	-8e-05	-6e-05	-0.00036	0.0003	-5e-05	8e-05	4
41292	-3e-05	-8e-05	-8e-05	-6e-05	-0.00036	0.0003	-5e-05	8e-05	4
41293	-3e-05	-8e-05	-8e-05	-6e-05	-0.00036	0.0003	-5e-05	8e-05	4
41294	-3e-05	-8e-05	-8e-05	-6e-05	-0.00036	0.0003	-5e-05	8e-05	4
41295	-3e-05	-8e-05	-8e-05	-6e-05	-0.00036	0.0003	-5e-05	8e-05	4
41296	-3e-05	-8e-05	-8e-05	-6e-05	-0.00036	0.0003	-5e-05	8e-05	4
41297	-3e-05	-8e-05	-8e-05	-6e-05	-0.00036	0.0003	-5e-05	8e-05	4
41298	-1e-05	-2e-05	-0.0002	-2e-05	-0.00038	0.00011	-0.0002	-0.00015	4
41299	-1e-05	-2e-05	-0.0002	-2e-05	-0.00038	0.00011	-0.0002	-0.00015	4
41300	0	-7e-05	0.00018	-1e-05	0.00048	6e-05	6e-05	0.00021	4
41301	0	-7e-05	0.00018	-1e-05	0.00048	6e-05	6e-05	0.00021	4
41302	0	-7e-05	0.00018	-1e-05	0.00048	6e-05	6e-05	0.00021	4
41303	0	-7e-05	0.00018	-1e-05	0.00048	6e-05	6e-05	0.00021	4
41304	0	-7e-05	0.00018	-1e-05	0.00048	6e-05	6e-05	0.00021	4
41305	0	-7e-05	0.00018	-1e-05	0.00048	6e-05	6e-05	0.00021	4
41306	0	-7e-05	0.00018	-1e-05	0.00048	6e-05	6e-05	0.00021	4
41307	0	-7e-05	0.00018	-1e-05	0.00048	6e-05	6e-05	0.00021	4
41308	0	-7e-05	0.00018	-1e-05	0.00048	6e-05	6e-05	0.00021	4
41309	0	-7e-05	0.00018	-1e-05	0.00048	6e-05	6e-05	0.00021	4
41310	0	-7e-05	0.00018	-1e-05	0.00048	6e-05	6e-05	0.00021	4
41311	0	-7e-05	0.00018	-1e-05	0.00048	6e-05	6e-05	0.00021	4
41312	0	-7e-05	0.00018	-1e-05	0.00048	6e-05	6e-05	0.00021	4
41313	1e-05	5e-05	-7e-05	-0.00012	-1e-05	0.00056	0.00017	5e-05	4
41314	1e-05	5e-05	-7e-05	-0.00012	-1e-05	0.00056	0.00017	5e-05	4
41315	1e-05	5e-05	-7e-05	-0.00012	-1e-05	0.00056	0.00017	5e-05	4
41316	1e-05	5e-05	-7e-05	-0.00012	-1e-05	0.00056	0.00017	5e-05	4
41317	1e-05	5e-05	-7e-05	-0.00012	-1e-05	0.00056	0.00017	5e-05	4
41318	1e-05	5e-05	-7e-05	-0.00012	-1e-05	0.00056	0.00017	5e-05	4
41319	1e-05	5e-05	-7e-05	-0.00012	-1e-05	0.00056	0.00017	5e-05	4
41320	1e-05	5e-05	-7e-05	-0.00012	-1e-05	0.00056	0.00017	5e-05	4
41321	-3e-05	-6e-05	-9e-05	-0.00014	-0.00031	-6e-05	-0.00018	-0.00016	4
41322	-3e-05	-6e-05	-9e-05	-0.00014	-0.00031	-6e-05	-0.00018	-0.00016	4
41323	-3e-05	-6e-05	-9e-05	-0.00014	-0.00031	-6e-05	-0.00018	-0.00016	4
41324	-3e-05	-6e-05	-9e-05	-0.00014	-0.00031	-6e-05	-0.00018	-0.00016	4
41325	-3e-05	-6e-05	-9e-05	-0.00014	-0.00031	-6e-05	-0.00018	-0.00016	4
41326	-3e-05	-6e-05	-9e-05	-0.00014	-0.00031	-6e-05	-0.00018	-0.00016	4
41327	-3e-05	-6e-05	-9e-05	-0.00014	-0.00031	-6e-05	-0.00018	-0.00016	4
41328	-3e-05	-6e-05	-9e-05	-0.00014	-0.00031	-6e-05	-0.00018	-0.00016	4
41329	-3e-05	-6e-05	-9e-05	-0.00014	-0.00031	-6e-05	-0.00018	-0.00016	4
41330	-3e-05	-6e-05	-9e-05	-0.00014	-0.00031	-6e-05	-0.00018	-0.00016	4
41331	-3e-05	-6e-05	-9e-05	-0.00014	-0.00031	-6e-05	-0.00018	-0.00016	4
41332	-3e-05	-6e-05	-9e-05	-0.00014	-0.00031	-6e-05	-0.00018	-0.00016	4
41333	-3e-05	-6e-05	-9e-05	-0.00014	-0.00031	-6e-05	-0.00018	-0.00016	4
41334	-3e-05	-6e-05	-9e-05	-0.00014	-0.00031	-6e-05	-0.00018	-0.00016	4
41335	-3e-05	-6e-05	-9e-05	-0.00014	-0.00031	-6e-05	-0.00018	-0.00016	4
41336	-4e-05	-7e-05	-0.00011	-8e-05	0.00015	-0.00043	1e-05	-6e-05	4
41338	0.0001	0.00012	0.00036	0.00013	0.00036	-7e-05	0.00016	0.00029	4
41339	0.0001	0.00012	0.00036	0.00013	0.00036	-7e-05	0.00016	0.00029	4
41340	0.0001	0.00012	0.00036	0.00013	0.00036	-7e-05	0.00016	0.00029	4
41341	0.0001	0.00012	0.00036	0.00013	0.00036	-7e-05	0.00016	0.00029	4
41342	0.0001	0.00012	0.00036	0.00013	0.00036	-7e-05	0.00016	0.00029	4
41343	0.0001	0.00012	0.00036	0.00013	0.00036	-7e-05	0.00016	0.00029	4
41344	0.0001	0.00012	0.00036	0.00013	0.00036	-7e-05	0.00016	0.00029	4
41345	0.0001	0.00012	0.00036	0.00013	0.00036	-7e-05	0.00016	0.00029	4
41346	0.0001	0.00012	0.00036	0.00013	0.00036	-7e-05	0.00016	0.00029	4
41347	0.0001	0.00012	0.00036	0.00013	0.00036	-7e-05	0.00016	0.00029	4
41348	0.0001	0.00012	0.00036	0.00013	0.00036	-7e-05	0.00016	0.00029	4
41349	0.0001	0.00012	0.00036	0.00013	0.00036	-7e-05	0.00016	0.00029	4
41350	0.0001	0.00012	0.00036	0.00013	0.00036	-7e-05	0.00016	0.00029	4
41351	0.0001	0.00012	0.00036	0.00013	0.00036	-7e-05	0.00016	0.00029	4
41352	0.0001	0.00012	0.00036	0.00013	0.00036	-7e-05	0.00016	0.00029	4
41353	0.0001	0.00012	0.00036	0.00013	0.00036	-7e-05	0.00016	0.00029	4
41354	0.0001	0.00012	0.00036	0.00013	0.00036	-7e-05	0.00016	0.00029	4
41355	0.0001	0.00012	0.00036	0.00013	0.00036	-7e-05	0.00016	0.00029	4
41356	0.0001	0.00012	0.00036	0.00013	0.00036	-7e-05	0.00016	0.00029	4
41357	0.0001	0.00012	0.00036	0.00013	0.00036	-7e-05	0.00016	0.00029	4
41358	7e-05	7e-05	5e-05	0.00033	0.00073	2e-05	0.00021	0.0005	4
41359	7e-05	7e-05	5e-05	0.00033	0.00073	2e-05	0.00021	0.0005	4
41360	-3e-05	-0.00012	-0.0001	0.00014	7e-05	0.00079	0.00022	0.00012	4
41361	-3e-05	-0.00012	-0.0001	0.00014	7e-05	0.00079	0.00022	0.00012	4
41362	-3e-05	-0.00012	-0.0001	0.00014	7e-05	0.00079	0.00022	0.00012	4
41363	-3e-05	-0.00012	-0.0001	0.00014	7e-05	0.00079	0.00022	0.00012	4
41364	-3e-05	-0.00012	-0.0001	0.00014	7e-05	0.00079	0.00022	0.00012	4
41365	-3e-05	-0.00012	-0.0001	0.00014	7e-05	0.00079	0.00022	0.00012	4
41366	-3e-05	-0.00012	-0.0001	0.00014	7e-05	0.00079	0.00022	0.00012	4
41367	-3e-05	-0.00012	-0.0001	0.00014	7e-05	0.00079	0.00022	0.00012	4
41368	-3e-05	-0.00012	-0.0001	0.00014	7e-05	0.00079	0.00022	0.00012	4
41369	-3e-05	-0.00012	-0.0001	0.00014	7e-05	0.00079	0.00022	0.00012	4
41370	-3e-05	-0.00012	-0.0001	0.00014	7e-05	0.00079	0.00022	0.00012	4
41371	-3e-05	-0.00012	-0.0001	0.00014	7e-05	0.00079	0.00022	0.00012	4
41372	-3e-05	-0.00012	-0.0001	0.00014	7e-05	0.00079	0.00022	0.00012	4
41373	-2e-05	-8e-05	-4e-05	-1e-05	0.00011	-6e-05	-0.0001	-0.00011	4
41374	-2e-05	-8e-05	-4e-05	-1e-05	0.00011	-6e-05	-0.0001	-0.00011	4
41375	-2e-05	-8e-05	-4e-05	-1e-05	0.00011	-6e-05	-0.0001	-0.00011	4
41376	-2e-05	-8e-05	-4e-05	-1e-05	0.00011	-6e-05	-0.0001	-0.00011	4
41377	-2e-05	-8e-05	-4e-05	-1e-05	0.00011	-6e-05	-0.0001	-0.00011	4
41378	-2e-05	-8e-05	-4e-05	-1e-05	0.00011	-6e-05	-0.0001	-0.00011	4
41379	2e-05	0.00013	0.00013	3e-05	-0.00028	-0.00033	1e-05	0.00028	4
41380	2e-05	0.00013	0.00013	3e-05	-0.00028	-0.00033	1e-05	0.00028	4
41381	2e-05	0.00013	0.00013	3e-05	-0.00028	-0.00033	1e-05	0.00028	4
41382	2e-05	0.00013	0.00013	3e-05	-0.00028	-0.00033	1e-05	0.00028	4
41383	2e-05	0.00013	0.00013	3e-05	-0.00028	-0.00033	1e-05	0.00028	4
41384	2e-05	0.00013	0.00013	3e-05	-0.00028	-0.00033	1e-05	0.00028	4
41385	2e-05	0.00013	0.00013	3e-05	-0.00028	-0.00033	1e-05	0.00028	4
41386	2e-05	0.00013	0.00013	3e-05	-0.00028	-0.00033	1e-05	0.00028	4
41388	2e-05	0.00013	0.00013	3e-05	-0.00028	-0.00033	1e-05	0.00028	4
41389	2e-05	0.00013	0.00013	3e-05	-0.00028	-0.00033	1e-05	0.00028	4
41390	2e-05	0.00013	0.00013	3e-05	-0.00028	-0.00033	1e-05	0.00028	4
41391	2e-05	0.00013	0.00013	3e-05	-0.00028	-0.00033	1e-05	0.00028	4
41392	2e-05	0.00013	0.00013	3e-05	-0.00028	-0.00033	1e-05	0.00028	4
41393	2e-05	0.00013	0.00013	3e-05	-0.00028	-0.00033	1e-05	0.00028	4
41394	2e-05	0.00013	0.00013	3e-05	-0.00028	-0.00033	1e-05	0.00028	4
41395	2e-05	-0.0001	-1e-05	2e-05	-0.00015	0.00011	-9e-05	-3e-05	4
41396	2e-05	-0.0001	-1e-05	2e-05	-0.00015	0.00011	-9e-05	-3e-05	4
41397	2e-05	-0.0001	-1e-05	2e-05	-0.00015	0.00011	-9e-05	-3e-05	4
41398	2e-05	-0.0001	-1e-05	2e-05	-0.00015	0.00011	-9e-05	-3e-05	4
41399	2e-05	-0.0001	-1e-05	2e-05	-0.00015	0.00011	-9e-05	-3e-05	4
41400	2e-05	-0.0001	-1e-05	2e-05	-0.00015	0.00011	-9e-05	-3e-05	4
41401	2e-05	-0.0001	-1e-05	2e-05	-0.00015	0.00011	-9e-05	-3e-05	4
41402	2e-05	-0.0001	-1e-05	2e-05	-0.00015	0.00011	-9e-05	-3e-05	4
41403	-5e-05	-0.00014	-3e-05	-7e-05	-6e-05	-0.0002	-0.00011	-0.0001	4
41404	-5e-05	-6e-05	-0.00027	-0.00025	-0.00056	-4e-05	-5e-05	-9e-05	4
41405	-5e-05	-6e-05	-0.00027	-0.00025	-0.00056	-4e-05	-5e-05	-9e-05	4
41406	-5e-05	-6e-05	-0.00027	-0.00025	-0.00056	-4e-05	-5e-05	-9e-05	4
41407	-5e-05	-6e-05	-0.00027	-0.00025	-0.00056	-4e-05	-5e-05	-9e-05	4
41408	-5e-05	-6e-05	-0.00027	-0.00025	-0.00056	-4e-05	-5e-05	-9e-05	4
41409	-5e-05	-6e-05	-0.00027	-0.00025	-0.00056	-4e-05	-5e-05	-9e-05	4
41410	-5e-05	-6e-05	-0.00027	-0.00025	-0.00056	-4e-05	-5e-05	-9e-05	4
41411	-5e-05	-6e-05	-0.00027	-0.00025	-0.00056	-4e-05	-5e-05	-9e-05	4
41412	-5e-05	-6e-05	-0.00027	-0.00025	-0.00056	-4e-05	-5e-05	-9e-05	4
41413	-5e-05	-6e-05	-0.00027	-0.00025	-0.00056	-4e-05	-5e-05	-9e-05	4
41414	-5e-05	-6e-05	-0.00027	-0.00025	-0.00056	-4e-05	-5e-05	-9e-05	4
41415	-5e-05	-6e-05	-0.00027	-0.00025	-0.00056	-4e-05	-5e-05	-9e-05	4
41416	-5e-05	-6e-05	-0.00027	-0.00025	-0.00056	-4e-05	-5e-05	-9e-05	4
41417	-5e-05	-6e-05	-0.00027	-0.00025	-0.00056	-4e-05	-5e-05	-9e-05	4
41418	-5e-05	-6e-05	-0.00027	-0.00025	-0.00056	-4e-05	-5e-05	-9e-05	4
41419	0	-5e-05	-5e-05	0.00025	0.00065	0.0003	1e-05	4e-05	4
41420	-1e-05	-3e-05	-0.00024	2e-05	7e-05	5e-05	-1e-05	-0.00015	4
41421	-1e-05	-3e-05	-0.00024	2e-05	7e-05	5e-05	-1e-05	-0.00015	4
41422	-1e-05	-3e-05	-0.00024	2e-05	7e-05	5e-05	-1e-05	-0.00015	4
41423	-1e-05	-3e-05	-0.00024	2e-05	7e-05	5e-05	-1e-05	-0.00015	4
41424	-1e-05	-3e-05	-0.00024	2e-05	7e-05	5e-05	-1e-05	-0.00015	4
41425	-1e-05	-3e-05	-0.00024	2e-05	7e-05	5e-05	-1e-05	-0.00015	4
41426	-1e-05	-3e-05	-0.00024	2e-05	7e-05	5e-05	-1e-05	-0.00015	4
41427	-1e-05	-3e-05	-0.00024	2e-05	7e-05	5e-05	-1e-05	-0.00015	4
41428	-1e-05	-3e-05	-0.00024	2e-05	7e-05	5e-05	-1e-05	-0.00015	4
41429	-1e-05	-3e-05	-0.00024	2e-05	7e-05	5e-05	-1e-05	-0.00015	4
41430	-1e-05	-3e-05	-0.00024	2e-05	7e-05	5e-05	-1e-05	-0.00015	4
41431	-1e-05	-3e-05	-0.00024	2e-05	7e-05	5e-05	-1e-05	-0.00015	4
41432	-1e-05	-3e-05	-0.00024	2e-05	7e-05	5e-05	-1e-05	-0.00015	4
41433	7e-05	9e-05	0.0002	0.00016	-0.00082	-0.00016	-4e-05	-7e-05	4
41434	7e-05	9e-05	0.0002	0.00016	-0.00082	-0.00016	-4e-05	-7e-05	4
41435	7e-05	9e-05	0.0002	0.00016	-0.00082	-0.00016	-4e-05	-7e-05	4
41436	7e-05	9e-05	0.0002	0.00016	-0.00082	-0.00016	-4e-05	-7e-05	4
41438	7e-05	9e-05	0.0002	0.00016	-0.00082	-0.00016	-4e-05	-7e-05	4
41439	1e-05	1e-05	8e-05	0.00014	-0.00061	0.0005	0.00017	1e-05	4
41440	1e-05	1e-05	8e-05	0.00014	-0.00061	0.0005	0.00017	1e-05	4
41441	1e-05	1e-05	8e-05	0.00014	-0.00061	0.0005	0.00017	1e-05	4
41442	1e-05	1e-05	8e-05	0.00014	-0.00061	0.0005	0.00017	1e-05	4
41443	1e-05	1e-05	8e-05	0.00014	-0.00061	0.0005	0.00017	1e-05	4
41444	1e-05	1e-05	8e-05	0.00014	-0.00061	0.0005	0.00017	1e-05	4
41445	1e-05	1e-05	8e-05	0.00014	-0.00061	0.0005	0.00017	1e-05	4
41446	1e-05	1e-05	8e-05	0.00014	-0.00061	0.0005	0.00017	1e-05	4
41447	1e-05	1e-05	8e-05	0.00014	-0.00061	0.0005	0.00017	1e-05	4
41448	1e-05	1e-05	8e-05	0.00014	-0.00061	0.0005	0.00017	1e-05	4
41449	1e-05	1e-05	8e-05	0.00014	-0.00061	0.0005	0.00017	1e-05	4
41450	1e-05	1e-05	8e-05	0.00014	-0.00061	0.0005	0.00017	1e-05	4
41451	1e-05	1e-05	8e-05	0.00014	-0.00061	0.0005	0.00017	1e-05	4
41452	1e-05	1e-05	8e-05	0.00014	-0.00061	0.0005	0.00017	1e-05	4
41453	1e-05	1e-05	8e-05	0.00014	-0.00061	0.0005	0.00017	1e-05	4
41454	1e-05	1e-05	8e-05	0.00014	-0.00061	0.0005	0.00017	1e-05	4
41455	1e-05	1e-05	8e-05	0.00014	-0.00061	0.0005	0.00017	1e-05	4
41456	-3e-05	1e-05	-2e-05	-1e-05	0.00059	0.00011	-7e-05	9e-05	4
41457	-4e-05	2e-05	0	-0.00014	-0.00018	-0.00046	-0.00018	-0.00017	4
41458	-4e-05	2e-05	0	-0.00014	-0.00018	-0.00046	-0.00018	-0.00017	4
41459	-4e-05	2e-05	0	-0.00014	-0.00018	-0.00046	-0.00018	-0.00017	4
41460	-4e-05	2e-05	0	-0.00014	-0.00018	-0.00046	-0.00018	-0.00017	4
41462	-4e-05	2e-05	0	-0.00014	-0.00018	-0.00046	-0.00018	-0.00017	4
41463	-4e-05	2e-05	0	-0.00014	-0.00018	-0.00046	-0.00018	-0.00017	4
41464	-4e-05	2e-05	0	-0.00014	-0.00018	-0.00046	-0.00018	-0.00017	4
41465	-4e-05	2e-05	0	-0.00014	-0.00018	-0.00046	-0.00018	-0.00017	4
41466	-4e-05	2e-05	0	-0.00014	-0.00018	-0.00046	-0.00018	-0.00017	4
41467	-4e-05	2e-05	0	-0.00014	-0.00018	-0.00046	-0.00018	-0.00017	4
41468	-4e-05	2e-05	0	-0.00014	-0.00018	-0.00046	-0.00018	-0.00017	4
41469	-4e-05	2e-05	0	-0.00014	-0.00018	-0.00046	-0.00018	-0.00017	4
41470	-4e-05	2e-05	0	-0.00014	-0.00018	-0.00046	-0.00018	-0.00017	4
41471	-4e-05	2e-05	0	-0.00014	-0.00018	-0.00046	-0.00018	-0.00017	4
41472	-4e-05	2e-05	0	-0.00014	-0.00018	-0.00046	-0.00018	-0.00017	4
41473	-4e-05	2e-05	0	-0.00014	-0.00018	-0.00046	-0.00018	-0.00017	4
41474	-4e-05	2e-05	0	-0.00014	-0.00018	-0.00046	-0.00018	-0.00017	4
41475	-4e-05	2e-05	0	-0.00014	-0.00018	-0.00046	-0.00018	-0.00017	4
41476	-4e-05	2e-05	0	-0.00014	-0.00018	-0.00046	-0.00018	-0.00017	4
41477	-4e-05	2e-05	0	-0.00014	-0.00018	-0.00046	-0.00018	-0.00017	4
41478	6e-05	0.00016	5e-05	0.00019	0.00017	0.00053	0.00013	-4e-05	4
41479	6e-05	0.00016	5e-05	0.00019	0.00017	0.00053	0.00013	-4e-05	4
41480	-3e-05	-6e-05	0.00028	3e-05	0.00015	-7e-05	-2e-05	-8e-05	4
41481	-3e-05	-6e-05	0.00028	3e-05	0.00015	-7e-05	-2e-05	-8e-05	4
41482	-3e-05	-6e-05	0.00028	3e-05	0.00015	-7e-05	-2e-05	-8e-05	4
41483	-3e-05	-6e-05	0.00028	3e-05	0.00015	-7e-05	-2e-05	-8e-05	4
41484	-3e-05	-6e-05	0.00028	3e-05	0.00015	-7e-05	-2e-05	-8e-05	4
41485	-3e-05	-6e-05	0.00028	3e-05	0.00015	-7e-05	-2e-05	-8e-05	4
41486	-3e-05	-6e-05	0.00028	3e-05	0.00015	-7e-05	-2e-05	-8e-05	4
41488	-3e-05	-6e-05	0.00028	3e-05	0.00015	-7e-05	-2e-05	-8e-05	4
41489	-3e-05	-6e-05	0.00028	3e-05	0.00015	-7e-05	-2e-05	-8e-05	4
41490	-3e-05	-6e-05	0.00028	3e-05	0.00015	-7e-05	-2e-05	-8e-05	4
41491	-3e-05	-6e-05	0.00028	3e-05	0.00015	-7e-05	-2e-05	-8e-05	4
41492	-3e-05	-6e-05	0.00028	3e-05	0.00015	-7e-05	-2e-05	-8e-05	4
41493	-7e-05	-1e-05	-0.00024	-0.00017	-0.00012	-0.00013	-8e-05	-0.0003	4
41494	-7e-05	-1e-05	-0.00024	-0.00017	-0.00012	-0.00013	-8e-05	-0.0003	4
41495	-7e-05	-1e-05	-0.00024	-0.00017	-0.00012	-0.00013	-8e-05	-0.0003	4
41496	-7e-05	-1e-05	-0.00024	-0.00017	-0.00012	-0.00013	-8e-05	-0.0003	4
41497	-7e-05	-1e-05	-0.00024	-0.00017	-0.00012	-0.00013	-8e-05	-0.0003	4
41498	-7e-05	-1e-05	-0.00024	-0.00017	-0.00012	-0.00013	-8e-05	-0.0003	4
41499	6e-05	8e-05	6e-05	0	0.00066	0.00053	0.00016	0.0003	4
41500	6e-05	8e-05	6e-05	0	0.00066	0.00053	0.00016	0.0003	4
41501	6e-05	8e-05	6e-05	0	0.00066	0.00053	0.00016	0.0003	4
41502	6e-05	8e-05	6e-05	0	0.00066	0.00053	0.00016	0.0003	4
41503	6e-05	8e-05	6e-05	0	0.00066	0.00053	0.00016	0.0003	4
41504	6e-05	8e-05	6e-05	0	0.00066	0.00053	0.00016	0.0003	4
41505	6e-05	8e-05	6e-05	0	0.00066	0.00053	0.00016	0.0003	4
41506	6e-05	8e-05	6e-05	0	0.00066	0.00053	0.00016	0.0003	4
41507	6e-05	8e-05	6e-05	0	0.00066	0.00053	0.00016	0.0003	4
41508	6e-05	8e-05	6e-05	0	0.00066	0.00053	0.00016	0.0003	4
41509	6e-05	8e-05	6e-05	0	0.00066	0.00053	0.00016	0.0003	4
41510	6e-05	8e-05	6e-05	0	0.00066	0.00053	0.00016	0.0003	4
41511	6e-05	8e-05	6e-05	0	0.00066	0.00053	0.00016	0.0003	4
41512	6e-05	8e-05	6e-05	0	0.00066	0.00053	0.00016	0.0003	4
41513	6e-05	8e-05	6e-05	0	0.00066	0.00053	0.00016	0.0003	4
41514	6e-05	8e-05	6e-05	0	0.00066	0.00053	0.00016	0.0003	4
41515	6e-05	8e-05	6e-05	0	0.00066	0.00053	0.00016	0.0003	4
41516	2e-05	0	8e-05	-0.0001	-0.00069	7e-05	5e-05	2e-05	4
41517	-0.0001	-0.00014	-0.00029	-0.00046	-0.00067	-0.00107	-0.00039	-0.00025	4
41518	-0.0001	-0.00014	-0.00029	-0.00046	-0.00067	-0.00107	-0.00039	-0.00025	4
41519	-0.0001	-0.00014	-0.00029	-0.00046	-0.00067	-0.00107	-0.00039	-0.00025	4
41520	-0.0001	-0.00014	-0.00029	-0.00046	-0.00067	-0.00107	-0.00039	-0.00025	4
41521	-0.0001	-0.00014	-0.00029	-0.00046	-0.00067	-0.00107	-0.00039	-0.00025	4
41522	-0.0001	-0.00014	-0.00029	-0.00046	-0.00067	-0.00107	-0.00039	-0.00025	4
41523	-0.0001	-0.00014	-0.00029	-0.00046	-0.00067	-0.00107	-0.00039	-0.00025	4
41524	-0.0001	-0.00014	-0.00029	-0.00046	-0.00067	-0.00107	-0.00039	-0.00025	4
41525	-0.0001	-0.00014	-0.00029	-0.00046	-0.00067	-0.00107	-0.00039	-0.00025	4
41526	-0.0001	-0.00014	-0.00029	-0.00046	-0.00067	-0.00107	-0.00039	-0.00025	4
41527	-0.0001	-0.00014	-0.00029	-0.00046	-0.00067	-0.00107	-0.00039	-0.00025	4
41528	-0.0001	-0.00014	-0.00029	-0.00046	-0.00067	-0.00107	-0.00039	-0.00025	4
41529	-0.0001	-0.00014	-0.00029	-0.00046	-0.00067	-0.00107	-0.00039	-0.00025	4
41530	-0.0001	-0.00014	-0.00029	-0.00046	-0.00067	-0.00107	-0.00039	-0.00025	4
41531	-0.0001	-0.00014	-0.00029	-0.00046	-0.00067	-0.00107	-0.00039	-0.00025	4
41532	-0.0001	-0.00014	-0.00029	-0.00046	-0.00067	-0.00107	-0.00039	-0.00025	4
41533	-0.0001	-0.00014	-0.00029	-0.00046	-0.00067	-0.00107	-0.00039	-0.00025	4
41534	-0.0001	-0.00014	-0.00029	-0.00046	-0.00067	-0.00107	-0.00039	-0.00025	4
41535	-0.0001	-0.00014	-0.00029	-0.00046	-0.00067	-0.00107	-0.00039	-0.00025	4
41536	-0.0001	-0.00014	-0.00029	-0.00046	-0.00067	-0.00107	-0.00039	-0.00025	4
41538	5e-05	0	7e-05	2e-05	0.0003	-4e-05	-7e-05	6e-05	4
41539	1e-05	-1e-05	8e-05	0.00024	0.0003	-0.0003	0.00019	-1e-05	4
41540	3e-05	-4e-05	0.00024	0.00014	0	0.00018	0.00016	7e-05	4
41541	3e-05	-4e-05	0.00024	0.00014	0	0.00018	0.00016	7e-05	4
41542	3e-05	-4e-05	0.00024	0.00014	0	0.00018	0.00016	7e-05	4
41543	3e-05	-4e-05	0.00024	0.00014	0	0.00018	0.00016	7e-05	4
41544	3e-05	-4e-05	0.00024	0.00014	0	0.00018	0.00016	7e-05	4
41545	3e-05	-4e-05	0.00024	0.00014	0	0.00018	0.00016	7e-05	4
41546	3e-05	-4e-05	0.00024	0.00014	0	0.00018	0.00016	7e-05	4
41547	3e-05	-4e-05	0.00024	0.00014	0	0.00018	0.00016	7e-05	4
41548	3e-05	-4e-05	0.00024	0.00014	0	0.00018	0.00016	7e-05	4
41549	3e-05	-4e-05	0.00024	0.00014	0	0.00018	0.00016	7e-05	4
41550	3e-05	-4e-05	0.00024	0.00014	0	0.00018	0.00016	7e-05	4
41551	3e-05	-4e-05	0.00024	0.00014	0	0.00018	0.00016	7e-05	4
41552	0.00012	0.00015	1e-05	0.00023	0.00082	0.00104	0.00024	0.00029	4
41553	-2e-05	-0.0001	8e-05	-2e-05	-0.00037	-0.0003	7e-05	-6e-05	4
41555	-2e-05	-0.0001	8e-05	-2e-05	-0.00037	-0.0003	7e-05	-6e-05	4
41556	-2e-05	-0.0001	8e-05	-2e-05	-0.00037	-0.0003	7e-05	-6e-05	4
41557	-2e-05	-0.0001	8e-05	-2e-05	-0.00037	-0.0003	7e-05	-6e-05	4
41558	-2e-05	-0.0001	8e-05	-2e-05	-0.00037	-0.0003	7e-05	-6e-05	4
41559	-4e-05	-0.00011	-0.00023	-0.00018	-0.00023	-0.00031	-0.00011	-4e-05	4
41560	-4e-05	-0.00011	-0.00023	-0.00018	-0.00023	-0.00031	-0.00011	-4e-05	4
41561	-4e-05	-0.00011	-0.00023	-0.00018	-0.00023	-0.00031	-0.00011	-4e-05	4
41562	-4e-05	-0.00011	-0.00023	-0.00018	-0.00023	-0.00031	-0.00011	-4e-05	4
41563	-4e-05	-0.00011	-0.00023	-0.00018	-0.00023	-0.00031	-0.00011	-4e-05	4
41564	-4e-05	-0.00011	-0.00023	-0.00018	-0.00023	-0.00031	-0.00011	-4e-05	4
41565	-4e-05	-0.00011	-0.00023	-0.00018	-0.00023	-0.00031	-0.00011	-4e-05	4
41566	-4e-05	-0.00011	-0.00023	-0.00018	-0.00023	-0.00031	-0.00011	-4e-05	4
41567	-4e-05	-0.00011	-0.00023	-0.00018	-0.00023	-0.00031	-0.00011	-4e-05	4
41568	-4e-05	-0.00011	-0.00023	-0.00018	-0.00023	-0.00031	-0.00011	-4e-05	4
41569	-4e-05	-0.00011	-0.00023	-0.00018	-0.00023	-0.00031	-0.00011	-4e-05	4
41570	-4e-05	-0.00011	-0.00023	-0.00018	-0.00023	-0.00031	-0.00011	-4e-05	4
41571	-4e-05	-0.00011	-0.00023	-0.00018	-0.00023	-0.00031	-0.00011	-4e-05	4
41572	-4e-05	-0.00011	-0.00023	-0.00018	-0.00023	-0.00031	-0.00011	-4e-05	4
41573	-4e-05	-0.00011	-0.00023	-0.00018	-0.00023	-0.00031	-0.00011	-4e-05	4
41574	-4e-05	-0.00011	-0.00023	-0.00018	-0.00023	-0.00031	-0.00011	-4e-05	4
41575	-4e-05	-0.00011	-0.00023	-0.00018	-0.00023	-0.00031	-0.00011	-4e-05	4
41576	3e-05	0.00016	0.00016	0.00011	0.00016	0.00041	0.00016	0.00022	4
41577	1e-05	3e-05	5e-05	-0.00012	-0.00019	0.00061	4e-05	-0.00011	4
41578	1e-05	3e-05	5e-05	-0.00012	-0.00019	0.00061	4e-05	-0.00011	4
41579	1e-05	3e-05	5e-05	-0.00012	-0.00019	0.00061	4e-05	-0.00011	4
41580	1e-05	3e-05	5e-05	-0.00012	-0.00019	0.00061	4e-05	-0.00011	4
41581	1e-05	3e-05	5e-05	-0.00012	-0.00019	0.00061	4e-05	-0.00011	4
41582	1e-05	3e-05	5e-05	-0.00012	-0.00019	0.00061	4e-05	-0.00011	4
41583	1e-05	3e-05	5e-05	-0.00012	-0.00019	0.00061	4e-05	-0.00011	4
41584	1e-05	3e-05	5e-05	-0.00012	-0.00019	0.00061	4e-05	-0.00011	4
41585	1e-05	3e-05	5e-05	-0.00012	-0.00019	0.00061	4e-05	-0.00011	4
41586	1e-05	3e-05	5e-05	-0.00012	-0.00019	0.00061	4e-05	-0.00011	4
41588	1e-05	3e-05	5e-05	-0.00012	-0.00019	0.00061	4e-05	-0.00011	4
41589	1e-05	3e-05	5e-05	-0.00012	-0.00019	0.00061	4e-05	-0.00011	4
41590	1e-05	3e-05	5e-05	-0.00012	-0.00019	0.00061	4e-05	-0.00011	4
41591	1e-05	3e-05	5e-05	-0.00012	-0.00019	0.00061	4e-05	-0.00011	4
41592	1e-05	3e-05	5e-05	-0.00012	-0.00019	0.00061	4e-05	-0.00011	4
41593	1e-05	3e-05	5e-05	-0.00012	-0.00019	0.00061	4e-05	-0.00011	4
41594	1e-05	3e-05	5e-05	-0.00012	-0.00019	0.00061	4e-05	-0.00011	4
41595	1e-05	3e-05	5e-05	-0.00012	-0.00019	0.00061	4e-05	-0.00011	4
41596	1e-05	3e-05	5e-05	-0.00012	-0.00019	0.00061	4e-05	-0.00011	4
41597	1e-05	3e-05	5e-05	-0.00012	-0.00019	0.00061	4e-05	-0.00011	4
41598	-7e-05	-7e-05	-9e-05	-0.0001	-0.00019	-0.00011	-0.00015	-0.00016	4
41599	-7e-05	-7e-05	-9e-05	-0.0001	-0.00019	-0.00011	-0.00015	-0.00016	4
41600	-6e-05	-5e-05	-0.00015	-1e-05	0.00027	-0.00019	-0.00012	-0.00019	4
41601	-6e-05	-5e-05	-0.00015	-1e-05	0.00027	-0.00019	-0.00012	-0.00019	4
41602	-6e-05	-5e-05	-0.00015	-1e-05	0.00027	-0.00019	-0.00012	-0.00019	4
41603	-6e-05	-5e-05	-0.00015	-1e-05	0.00027	-0.00019	-0.00012	-0.00019	4
41604	-6e-05	-5e-05	-0.00015	-1e-05	0.00027	-0.00019	-0.00012	-0.00019	4
41605	-6e-05	-5e-05	-0.00015	-1e-05	0.00027	-0.00019	-0.00012	-0.00019	4
41606	-6e-05	-5e-05	-0.00015	-1e-05	0.00027	-0.00019	-0.00012	-0.00019	4
41607	-6e-05	-5e-05	-0.00015	-1e-05	0.00027	-0.00019	-0.00012	-0.00019	4
41608	-6e-05	-5e-05	-0.00015	-1e-05	0.00027	-0.00019	-0.00012	-0.00019	4
41609	-6e-05	-5e-05	-0.00015	-1e-05	0.00027	-0.00019	-0.00012	-0.00019	4
41610	-6e-05	-5e-05	-0.00015	-1e-05	0.00027	-0.00019	-0.00012	-0.00019	4
41611	-6e-05	-5e-05	-0.00015	-1e-05	0.00027	-0.00019	-0.00012	-0.00019	4
41612	-1e-05	3e-05	-2e-05	-3e-05	-0.00025	6e-05	3e-05	-5e-05	4
41613	-1e-05	3e-05	-2e-05	-3e-05	-0.00025	6e-05	3e-05	-5e-05	4
41614	-1e-05	3e-05	-2e-05	-3e-05	-0.00025	6e-05	3e-05	-5e-05	4
41615	-1e-05	3e-05	-2e-05	-3e-05	-0.00025	6e-05	3e-05	-5e-05	4
41616	-1e-05	3e-05	-2e-05	-3e-05	-0.00025	6e-05	3e-05	-5e-05	4
41617	-1e-05	3e-05	-2e-05	-3e-05	-0.00025	6e-05	3e-05	-5e-05	4
41618	-1e-05	3e-05	-2e-05	-3e-05	-0.00025	6e-05	3e-05	-5e-05	4
41619	-1e-05	3e-05	-2e-05	-3e-05	-0.00025	6e-05	3e-05	-5e-05	4
41620	-1e-05	3e-05	-2e-05	-3e-05	-0.00025	6e-05	3e-05	-5e-05	4
41621	-7e-05	-2e-05	0.00015	7e-05	0.0002	-0.00024	-0.00029	-9e-05	4
41622	-7e-05	-2e-05	0.00015	7e-05	0.0002	-0.00024	-0.00029	-9e-05	4
41623	-7e-05	-2e-05	0.00015	7e-05	0.0002	-0.00024	-0.00029	-9e-05	4
41624	-7e-05	-2e-05	0.00015	7e-05	0.0002	-0.00024	-0.00029	-9e-05	4
41625	-7e-05	-2e-05	0.00015	7e-05	0.0002	-0.00024	-0.00029	-9e-05	4
41626	-7e-05	-2e-05	0.00015	7e-05	0.0002	-0.00024	-0.00029	-9e-05	4
41627	-7e-05	-2e-05	0.00015	7e-05	0.0002	-0.00024	-0.00029	-9e-05	4
41628	-7e-05	-2e-05	0.00015	7e-05	0.0002	-0.00024	-0.00029	-9e-05	4
41629	-7e-05	-2e-05	0.00015	7e-05	0.0002	-0.00024	-0.00029	-9e-05	4
41630	-7e-05	-2e-05	0.00015	7e-05	0.0002	-0.00024	-0.00029	-9e-05	4
41631	-7e-05	-2e-05	0.00015	7e-05	0.0002	-0.00024	-0.00029	-9e-05	4
41632	-7e-05	-2e-05	0.00015	7e-05	0.0002	-0.00024	-0.00029	-9e-05	4
41633	-7e-05	-2e-05	0.00015	7e-05	0.0002	-0.00024	-0.00029	-9e-05	4
41634	-7e-05	-2e-05	0.00015	7e-05	0.0002	-0.00024	-0.00029	-9e-05	4
41635	-7e-05	-2e-05	0.00015	7e-05	0.0002	-0.00024	-0.00029	-9e-05	4
41636	-2e-05	-9e-05	-9e-05	-0.00016	-0.00014	-0.00026	-0.00011	-5e-05	4
41638	-2e-05	-0.00012	-0.00032	-8e-05	-8e-05	1e-05	1e-05	3e-05	4
41639	-2e-05	-0.00012	-0.00032	-8e-05	-8e-05	1e-05	1e-05	3e-05	4
41640	-2e-05	-0.00012	-0.00032	-8e-05	-8e-05	1e-05	1e-05	3e-05	4
41641	-2e-05	-0.00012	-0.00032	-8e-05	-8e-05	1e-05	1e-05	3e-05	4
41642	-2e-05	-0.00012	-0.00032	-8e-05	-8e-05	1e-05	1e-05	3e-05	4
41643	-2e-05	-0.00012	-0.00032	-8e-05	-8e-05	1e-05	1e-05	3e-05	4
41644	-2e-05	-0.00012	-0.00032	-8e-05	-8e-05	1e-05	1e-05	3e-05	4
41645	-2e-05	-0.00012	-0.00032	-8e-05	-8e-05	1e-05	1e-05	3e-05	4
41646	-2e-05	-0.00012	-0.00032	-8e-05	-8e-05	1e-05	1e-05	3e-05	4
41647	-2e-05	-0.00012	-0.00032	-8e-05	-8e-05	1e-05	1e-05	3e-05	4
41648	-2e-05	-0.00012	-0.00032	-8e-05	-8e-05	1e-05	1e-05	3e-05	4
41649	-2e-05	-0.00012	-0.00032	-8e-05	-8e-05	1e-05	1e-05	3e-05	4
41650	-2e-05	-0.00012	-0.00032	-8e-05	-8e-05	1e-05	1e-05	3e-05	4
41651	-2e-05	-0.00012	-0.00032	-8e-05	-8e-05	1e-05	1e-05	3e-05	4
41652	-2e-05	-0.00012	-0.00032	-8e-05	-8e-05	1e-05	1e-05	3e-05	4
41653	-2e-05	-0.00012	-0.00032	-8e-05	-8e-05	1e-05	1e-05	3e-05	4
41654	-2e-05	-0.00012	-0.00032	-8e-05	-8e-05	1e-05	1e-05	3e-05	4
41655	-2e-05	-0.00012	-0.00032	-8e-05	-8e-05	1e-05	1e-05	3e-05	4
41656	-2e-05	-0.00012	-0.00032	-8e-05	-8e-05	1e-05	1e-05	3e-05	4
41657	-2e-05	-0.00012	-0.00032	-8e-05	-8e-05	1e-05	1e-05	3e-05	4
41658	-2e-05	-0.00012	-0.00032	-8e-05	-8e-05	1e-05	1e-05	3e-05	4
41659	2e-05	9e-05	2e-05	-4e-05	-0.00064	-0.0007	1e-05	0.00025	4
41660	2e-05	9e-05	2e-05	-4e-05	-0.00064	-0.0007	1e-05	0.00025	4
41661	3e-05	6e-05	-3e-05	4e-05	0.00035	0.00026	0.00026	0.00061	4
41662	3e-05	6e-05	-3e-05	4e-05	0.00035	0.00026	0.00026	0.00061	4
41663	3e-05	6e-05	-3e-05	4e-05	0.00035	0.00026	0.00026	0.00061	4
41664	3e-05	6e-05	-3e-05	4e-05	0.00035	0.00026	0.00026	0.00061	4
41665	3e-05	6e-05	-3e-05	4e-05	0.00035	0.00026	0.00026	0.00061	4
41666	3e-05	6e-05	-3e-05	4e-05	0.00035	0.00026	0.00026	0.00061	4
41667	3e-05	6e-05	-3e-05	4e-05	0.00035	0.00026	0.00026	0.00061	4
41668	3e-05	6e-05	-3e-05	4e-05	0.00035	0.00026	0.00026	0.00061	4
41669	3e-05	6e-05	-3e-05	4e-05	0.00035	0.00026	0.00026	0.00061	4
41670	3e-05	6e-05	-3e-05	4e-05	0.00035	0.00026	0.00026	0.00061	4
41671	3e-05	6e-05	-3e-05	4e-05	0.00035	0.00026	0.00026	0.00061	4
41672	-3e-05	-0.0001	-3e-05	-2e-05	0.00025	-0.00028	-5e-05	-8e-05	4
41673	-3e-05	-0.0001	-3e-05	-2e-05	0.00025	-0.00028	-5e-05	-8e-05	4
41674	-3e-05	-0.0001	-3e-05	-2e-05	0.00025	-0.00028	-5e-05	-8e-05	4
41675	-3e-05	-0.0001	-3e-05	-2e-05	0.00025	-0.00028	-5e-05	-8e-05	4
41676	-3e-05	-0.0001	-3e-05	-2e-05	0.00025	-0.00028	-5e-05	-8e-05	4
41677	-3e-05	-0.0001	-3e-05	-2e-05	0.00025	-0.00028	-5e-05	-8e-05	4
