14304	-8e-05	-0.00018	-0.00022	0.00015	-0.00039	-0.00026	-0.00012	9e-05	4
14305	-8e-05	-0.00018	-0.00022	0.00015	-0.00039	-0.00026	-0.00012	9e-05	4
14306	-8e-05	-0.00018	-0.00022	0.00015	-0.00039	-0.00026	-0.00012	9e-05	4
14307	-8e-05	-0.00018	-0.00022	0.00015	-0.00039	-0.00026	-0.00012	9e-05	4
14308	9e-05	0.00013	0.00015	7e-05	-0.00032	0.00025	0.00019	9e-05	4
14309	9e-05	0.00013	0.00015	7e-05	-0.00032	0.00025	0.00019	9e-05	4
14310	9e-05	0.00013	0.00015	7e-05	-0.00032	0.00025	0.00019	9e-05	4
14311	9e-05	0.00013	0.00015	7e-05	-0.00032	0.00025	0.00019	9e-05	4
14312	9e-05	0.00013	0.00015	7e-05	-0.00032	0.00025	0.00019	9e-05	4
14313	9e-05	0.00013	0.00015	7e-05	-0.00032	0.00025	0.00019	9e-05	4
14314	9e-05	0.00013	0.00015	7e-05	-0.00032	0.00025	0.00019	9e-05	4
14315	9e-05	0.00013	0.00015	7e-05	-0.00032	0.00025	0.00019	9e-05	4
14316	9e-05	0.00013	0.00015	7e-05	-0.00032	0.00025	0.00019	9e-05	4
14317	9e-05	0.00013	0.00015	7e-05	-0.00032	0.00025	0.00019	9e-05	4
14318	9e-05	0.00013	0.00015	7e-05	-0.00032	0.00025	0.00019	9e-05	4
14319	9e-05	0.00013	0.00015	7e-05	-0.00032	0.00025	0.00019	9e-05	4
14320	9e-05	0.00013	0.00015	7e-05	-0.00032	0.00025	0.00019	9e-05	4
14321	9e-05	0.00013	0.00015	7e-05	-0.00032	0.00025	0.00019	9e-05	4
14322	9e-05	0.00013	0.00015	7e-05	-0.00032	0.00025	0.00019	9e-05	4
14323	8e-05	0.00015	0.00021	-0.0002	0.00087	0.00079	0.00035	-5e-05	4
14324	8e-05	0.00015	0.00021	-0.0002	0.00087	0.00079	0.00035	-5e-05	4
14325	-0.00014	-0.00018	-0.00021	0.00011	9e-05	-0.00014	-0.00012	-0.00018	4
14326	-0.00014	-0.00018	-0.00021	0.00011	9e-05	-0.00014	-0.00012	-0.00018	4
14327	-0.00014	-0.00018	-0.00021	0.00011	9e-05	-0.00014	-0.00012	-0.00018	4
14328	-0.00014	-0.00018	-0.00021	0.00011	9e-05	-0.00014	-0.00012	-0.00018	4
14329	-0.00014	-0.00018	-0.00021	0.00011	9e-05	-0.00014	-0.00012	-0.00018	4
14330	-0.00014	-0.00018	-0.00021	0.00011	9e-05	-0.00014	-0.00012	-0.00018	4
14331	-0.00014	-0.00018	-0.00021	0.00011	9e-05	-0.00014	-0.00012	-0.00018	4
14332	-0.00014	-0.00018	-0.00021	0.00011	9e-05	-0.00014	-0.00012	-0.00018	4
14333	-0.00014	-0.00018	-0.00021	0.00011	9e-05	-0.00014	-0.00012	-0.00018	4
14334	-0.00014	-0.00018	-0.00021	0.00011	9e-05	-0.00014	-0.00012	-0.00018	4
14335	-0.00014	-0.00018	-0.00021	0.00011	9e-05	-0.00014	-0.00012	-0.00018	4
14336	-0.00014	-0.00018	-0.00021	0.00011	9e-05	-0.00014	-0.00012	-0.00018	4
14338	-0.00014	-0.00018	-0.00021	0.00011	9e-05	-0.00014	-0.00012	-0.00018	4
14339	-0.00014	-0.00018	-0.00021	0.00011	9e-05	-0.00014	-0.00012	-0.00018	4
14340	-0.00014	-0.00018	-0.00021	0.00011	9e-05	-0.00014	-0.00012	-0.00018	4
14341	-0.00014	-0.00018	-0.00021	0.00011	9e-05	-0.00014	-0.00012	-0.00018	4
14342	-0.00014	-0.00018	-0.00021	0.00011	9e-05	-0.00014	-0.00012	-0.00018	4
14343	-0.00014	-0.00018	-0.00021	0.00011	9e-05	-0.00014	-0.00012	-0.00018	4
14344	-0.00014	-0.00018	-0.00021	0.00011	9e-05	-0.00014	-0.00012	-0.00018	4
14345	-0.00014	-0.00018	-0.00021	0.00011	9e-05	-0.00014	-0.00012	-0.00018	4
14346	-0.00014	-0.00018	-0.00021	0.00011	9e-05	-0.00014	-0.00012	-0.00018	4
14347	-0.00014	-0.00018	-0.00021	0.00011	9e-05	-0.00014	-0.00012	-0.00018	4
14348	-0.00014	-0.00018	-0.00021	0.00011	9e-05	-0.00014	-0.00012	-0.00018	4
14349	-0.00014	-0.00018	-0.00021	0.00011	9e-05	-0.00014	-0.00012	-0.00018	4
14350	-0.00014	-0.00018	-0.00021	0.00011	9e-05	-0.00014	-0.00012	-0.00018	4
14351	-0.00014	-0.00018	-0.00021	0.00011	9e-05	-0.00014	-0.00012	-0.00018	4
14352	-0.00014	-0.00018	-0.00021	0.00011	9e-05	-0.00014	-0.00012	-0.00018	4
14353	-8e-05	-0.0001	-0.00015	-0.00123	-0.00128	-0.00041	-0.00018	-0.00012	4
14354	6e-05	7e-05	2e-05	-0.0002	0.00036	0.0001	8e-05	6e-05	4
14355	6e-05	7e-05	2e-05	-0.0002	0.00036	0.0001	8e-05	6e-05	4
14356	6e-05	7e-05	2e-05	-0.0002	0.00036	0.0001	8e-05	6e-05	4
14357	6e-05	7e-05	2e-05	-0.0002	0.00036	0.0001	8e-05	6e-05	4
14358	6e-05	7e-05	2e-05	-0.0002	0.00036	0.0001	8e-05	6e-05	4
14359	6e-05	7e-05	2e-05	-0.0002	0.00036	0.0001	8e-05	6e-05	4
14360	6e-05	7e-05	2e-05	-0.0002	0.00036	0.0001	8e-05	6e-05	4
14361	6e-05	7e-05	2e-05	-0.0002	0.00036	0.0001	8e-05	6e-05	4
14362	6e-05	7e-05	2e-05	-0.0002	0.00036	0.0001	8e-05	6e-05	4
14363	6e-05	7e-05	2e-05	-0.0002	0.00036	0.0001	8e-05	6e-05	4
14364	6e-05	7e-05	2e-05	-0.0002	0.00036	0.0001	8e-05	6e-05	4
14365	6e-05	7e-05	2e-05	-0.0002	0.00036	0.0001	8e-05	6e-05	4
14366	6e-05	7e-05	2e-05	-0.0002	0.00036	0.0001	8e-05	6e-05	4
14367	6e-05	7e-05	2e-05	-0.0002	0.00036	0.0001	8e-05	6e-05	4
14368	-2e-05	-6e-05	-2e-05	0.00061	0.00022	-5e-05	-7e-05	0	4
14369	-0.00021	-0.00034	-0.00036	0.00059	8e-05	-0.00048	-0.00024	-9e-05	4
14370	-0.00021	-0.00034	-0.00036	0.00059	8e-05	-0.00048	-0.00024	-9e-05	4
14371	-0.00021	-0.00034	-0.00036	0.00059	8e-05	-0.00048	-0.00024	-9e-05	4
14372	-0.00021	-0.00034	-0.00036	0.00059	8e-05	-0.00048	-0.00024	-9e-05	4
14373	-0.00021	-0.00034	-0.00036	0.00059	8e-05	-0.00048	-0.00024	-9e-05	4
14374	-0.00021	-0.00034	-0.00036	0.00059	8e-05	-0.00048	-0.00024	-9e-05	4
14375	-0.00021	-0.00034	-0.00036	0.00059	8e-05	-0.00048	-0.00024	-9e-05	4
14376	-0.00021	-0.00034	-0.00036	0.00059	8e-05	-0.00048	-0.00024	-9e-05	4
14377	-0.00021	-0.00034	-0.00036	0.00059	8e-05	-0.00048	-0.00024	-9e-05	4
14378	-0.00021	-0.00034	-0.00036	0.00059	8e-05	-0.00048	-0.00024	-9e-05	4
14379	-0.00021	-0.00034	-0.00036	0.00059	8e-05	-0.00048	-0.00024	-9e-05	4
14380	-0.00021	-0.00034	-0.00036	0.00059	8e-05	-0.00048	-0.00024	-9e-05	4
14381	-0.00021	-0.00034	-0.00036	0.00059	8e-05	-0.00048	-0.00024	-9e-05	4
14382	-0.00021	-0.00034	-0.00036	0.00059	8e-05	-0.00048	-0.00024	-9e-05	4
14383	-5e-05	-4e-05	-7e-05	0.00023	-0.00038	-8e-05	0.00014	2e-05	4
14384	-4e-05	-6e-05	-7e-05	-0.00015	-0.00025	1e-05	-0.0002	-7e-05	4
14385	-4e-05	-6e-05	-7e-05	-0.00015	-0.00025	1e-05	-0.0002	-7e-05	4
14386	-4e-05	-6e-05	-7e-05	-0.00015	-0.00025	1e-05	-0.0002	-7e-05	4
14388	-4e-05	-6e-05	-7e-05	-0.00015	-0.00025	1e-05	-0.0002	-7e-05	4
14389	-4e-05	-6e-05	-7e-05	-0.00015	-0.00025	1e-05	-0.0002	-7e-05	4
14390	-4e-05	-6e-05	-7e-05	-0.00015	-0.00025	1e-05	-0.0002	-7e-05	4
14391	-4e-05	-6e-05	-7e-05	-0.00015	-0.00025	1e-05	-0.0002	-7e-05	4
14392	-4e-05	-6e-05	-7e-05	-0.00015	-0.00025	1e-05	-0.0002	-7e-05	4
14393	-4e-05	-6e-05	-7e-05	-0.00015	-0.00025	1e-05	-0.0002	-7e-05	4
14394	-4e-05	-6e-05	-7e-05	-0.00015	-0.00025	1e-05	-0.0002	-7e-05	4
14395	-4e-05	-6e-05	-7e-05	-0.00015	-0.00025	1e-05	-0.0002	-7e-05	4
14396	-4e-05	-6e-05	-7e-05	-0.00015	-0.00025	1e-05	-0.0002	-7e-05	4
14397	-4e-05	-6e-05	-7e-05	-0.00015	-0.00025	1e-05	-0.0002	-7e-05	4
14398	-4e-05	-6e-05	-7e-05	-0.00015	-0.00025	1e-05	-0.0002	-7e-05	4
14399	-4e-05	-6e-05	-7e-05	-0.00015	-0.00025	1e-05	-0.0002	-7e-05	4
14400	-4e-05	-6e-05	-7e-05	-0.00015	-0.00025	1e-05	-0.0002	-7e-05	4
14401	-4e-05	-6e-05	-7e-05	-0.00015	-0.00025	1e-05	-0.0002	-7e-05	4
14402	-4e-05	-6e-05	-7e-05	-0.00015	-0.00025	1e-05	-0.0002	-7e-05	4
14403	-4e-05	-6e-05	-7e-05	-0.00015	-0.00025	1e-05	-0.0002	-7e-05	4
14404	-4e-05	-6e-05	-7e-05	-0.00015	-0.00025	1e-05	-0.0002	-7e-05	4
14405	-4e-05	-4e-05	-4e-05	-9e-05	-0.00038	-0.00017	4e-05	3e-05	4
14406	-4e-05	-4e-05	-4e-05	-9e-05	-0.00038	-0.00017	4e-05	3e-05	4
14407	-6e-05	-5e-05	-2e-05	-0.00025	-0.0001	-0.00011	1e-05	-0.00014	4
14408	-6e-05	-5e-05	-2e-05	-0.00025	-0.0001	-0.00011	1e-05	-0.00014	4
14409	-6e-05	-5e-05	-2e-05	-0.00025	-0.0001	-0.00011	1e-05	-0.00014	4
14410	-6e-05	-5e-05	-2e-05	-0.00025	-0.0001	-0.00011	1e-05	-0.00014	4
14411	-6e-05	-5e-05	-2e-05	-0.00025	-0.0001	-0.00011	1e-05	-0.00014	4
14412	-6e-05	-5e-05	-2e-05	-0.00025	-0.0001	-0.00011	1e-05	-0.00014	4
14413	-6e-05	-5e-05	-2e-05	-0.00025	-0.0001	-0.00011	1e-05	-0.00014	4
14414	-6e-05	-5e-05	-2e-05	-0.00025	-0.0001	-0.00011	1e-05	-0.00014	4
14415	-6e-05	-5e-05	-2e-05	-0.00025	-0.0001	-0.00011	1e-05	-0.00014	4
14416	-6e-05	-5e-05	-2e-05	-0.00025	-0.0001	-0.00011	1e-05	-0.00014	4
14417	-6e-05	-5e-05	-2e-05	-0.00025	-0.0001	-0.00011	1e-05	-0.00014	4
14418	-6e-05	-5e-05	-2e-05	-0.00025	-0.0001	-0.00011	1e-05	-0.00014	4
14419	-6e-05	-1e-05	-5e-05	-0.00047	-0.00081	-0.00035	-0.00012	-2e-05	4
14420	-6e-05	-1e-05	-5e-05	-0.00047	-0.00081	-0.00035	-0.00012	-2e-05	4
14421	-6e-05	-1e-05	-5e-05	-0.00047	-0.00081	-0.00035	-0.00012	-2e-05	4
14422	-6e-05	-1e-05	-5e-05	-0.00047	-0.00081	-0.00035	-0.00012	-2e-05	4
14423	-6e-05	-1e-05	-5e-05	-0.00047	-0.00081	-0.00035	-0.00012	-2e-05	4
14424	-6e-05	-1e-05	-5e-05	-0.00047	-0.00081	-0.00035	-0.00012	-2e-05	4
14425	-6e-05	-1e-05	-5e-05	-0.00047	-0.00081	-0.00035	-0.00012	-2e-05	4
14426	-6e-05	-1e-05	-5e-05	-0.00047	-0.00081	-0.00035	-0.00012	-2e-05	4
14427	-6e-05	-1e-05	-5e-05	-0.00047	-0.00081	-0.00035	-0.00012	-2e-05	4
14428	2e-05	1e-05	0	-0.00019	-3e-05	-0.00018	-0.00011	2e-05	4
14429	2e-05	1e-05	0	-0.00019	-3e-05	-0.00018	-0.00011	2e-05	4
14430	2e-05	1e-05	0	-0.00019	-3e-05	-0.00018	-0.00011	2e-05	4
14431	2e-05	1e-05	0	-0.00019	-3e-05	-0.00018	-0.00011	2e-05	4
14432	2e-05	1e-05	0	-0.00019	-3e-05	-0.00018	-0.00011	2e-05	4
14433	2e-05	1e-05	0	-0.00019	-3e-05	-0.00018	-0.00011	2e-05	4
14434	2e-05	1e-05	0	-0.00019	-3e-05	-0.00018	-0.00011	2e-05	4
14435	2e-05	1e-05	0	-0.00019	-3e-05	-0.00018	-0.00011	2e-05	4
14436	2e-05	1e-05	0	-0.00019	-3e-05	-0.00018	-0.00011	2e-05	4
14438	2e-05	1e-05	0	-0.00019	-3e-05	-0.00018	-0.00011	2e-05	4
14439	2e-05	1e-05	0	-0.00019	-3e-05	-0.00018	-0.00011	2e-05	4
14440	2e-05	1e-05	0	-0.00019	-3e-05	-0.00018	-0.00011	2e-05	4
14441	2e-05	1e-05	0	-0.00019	-3e-05	-0.00018	-0.00011	2e-05	4
14442	2e-05	1e-05	0	-0.00019	-3e-05	-0.00018	-0.00011	2e-05	4
14443	-4e-05	-8e-05	-0.00012	-0.00016	9e-05	0.00012	8e-05	-9e-05	4
14444	6e-05	9e-05	0.00016	0.00084	3e-05	-6e-05	3e-05	0.00014	4
14445	6e-05	9e-05	0.00016	0.00084	3e-05	-6e-05	3e-05	0.00014	4
14446	6e-05	9e-05	0.00016	0.00084	3e-05	-6e-05	3e-05	0.00014	4
14447	6e-05	9e-05	0.00016	0.00084	3e-05	-6e-05	3e-05	0.00014	4
14448	6e-05	9e-05	0.00016	0.00084	3e-05	-6e-05	3e-05	0.00014	4
14449	6e-05	9e-05	0.00016	0.00084	3e-05	-6e-05	3e-05	0.00014	4
14450	6e-05	9e-05	0.00016	0.00084	3e-05	-6e-05	3e-05	0.00014	4
14451	6e-05	9e-05	0.00016	0.00084	3e-05	-6e-05	3e-05	0.00014	4
14452	6e-05	9e-05	0.00016	0.00084	3e-05	-6e-05	3e-05	0.00014	4
14453	6e-05	9e-05	0.00016	0.00084	3e-05	-6e-05	3e-05	0.00014	4
14454	6e-05	9e-05	0.00016	0.00084	3e-05	-6e-05	3e-05	0.00014	4
14455	6e-05	9e-05	0.00016	0.00084	3e-05	-6e-05	3e-05	0.00014	4
14456	6e-05	9e-05	0.00016	0.00084	3e-05	-6e-05	3e-05	0.00014	4
14457	6e-05	9e-05	0.00016	0.00084	3e-05	-6e-05	3e-05	0.00014	4
14458	6e-05	9e-05	0.00016	0.00084	3e-05	-6e-05	3e-05	0.00014	4
14459	6e-05	9e-05	0.00016	0.00084	3e-05	-6e-05	3e-05	0.00014	4
14460	6e-05	9e-05	0.00016	0.00084	3e-05	-6e-05	3e-05	0.00014	4
14461	6e-05	9e-05	0.00016	0.00084	3e-05	-6e-05	3e-05	0.00014	4
14462	6e-05	9e-05	0.00016	0.00084	3e-05	-6e-05	3e-05	0.00014	4
14463	6e-05	9e-05	0.00016	0.00084	3e-05	-6e-05	3e-05	0.00014	4
14464	6e-05	9e-05	0.00016	0.00084	3e-05	-6e-05	3e-05	0.00014	4
14465	-5e-05	-8e-05	-8e-05	0.0003	0.00021	-0.00015	-5e-05	1e-05	4
14466	-5e-05	-8e-05	-8e-05	0.0003	0.00021	-0.00015	-5e-05	1e-05	4
14467	0.00011	0.00017	0.00016	-0.00028	0.00025	0.00026	0.0001	0.0001	4
14468	0.00011	0.00017	0.00016	-0.00028	0.00025	0.00026	0.0001	0.0001	4
14469	0.00011	0.00017	0.00016	-0.00028	0.00025	0.00026	0.0001	0.0001	4
14470	0.00011	0.00017	0.00016	-0.00028	0.00025	0.00026	0.0001	0.0001	4
14471	0.00011	0.00017	0.00016	-0.00028	0.00025	0.00026	0.0001	0.0001	4
14472	0.00011	0.00017	0.00016	-0.00028	0.00025	0.00026	0.0001	0.0001	4
14473	0.00011	0.00017	0.00016	-0.00028	0.00025	0.00026	0.0001	0.0001	4
14474	0.00011	0.00017	0.00016	-0.00028	0.00025	0.00026	0.0001	0.0001	4
14475	0.00011	0.00017	0.00016	-0.00028	0.00025	0.00026	0.0001	0.0001	4
14476	0.00011	0.00017	0.00016	-0.00028	0.00025	0.00026	0.0001	0.0001	4
14477	0.00011	0.00017	0.00016	-0.00028	0.00025	0.00026	0.0001	0.0001	4
14478	0.00011	0.00017	0.00016	-0.00028	0.00025	0.00026	0.0001	0.0001	4
14479	-4e-05	-1e-05	-2e-05	7e-05	0.00017	1e-05	9e-05	-0.00014	4
14480	-4e-05	-1e-05	-2e-05	7e-05	0.00017	1e-05	9e-05	-0.00014	4
14481	-4e-05	-1e-05	-2e-05	7e-05	0.00017	1e-05	9e-05	-0.00014	4
14482	-4e-05	-1e-05	-2e-05	7e-05	0.00017	1e-05	9e-05	-0.00014	4
14483	-4e-05	-1e-05	-2e-05	7e-05	0.00017	1e-05	9e-05	-0.00014	4
14484	-4e-05	-1e-05	-2e-05	7e-05	0.00017	1e-05	9e-05	-0.00014	4
14485	-4e-05	-1e-05	-2e-05	7e-05	0.00017	1e-05	9e-05	-0.00014	4
14486	-4e-05	-1e-05	-2e-05	7e-05	0.00017	1e-05	9e-05	-0.00014	4
14489	-4e-05	-1e-05	3e-05	0.0004	0.00029	6e-05	-3e-05	1e-05	4
14490	-4e-05	-1e-05	3e-05	0.0004	0.00029	6e-05	-3e-05	1e-05	4
14491	-4e-05	-1e-05	3e-05	0.0004	0.00029	6e-05	-3e-05	1e-05	4
14492	-4e-05	-1e-05	3e-05	0.0004	0.00029	6e-05	-3e-05	1e-05	4
14493	-4e-05	-1e-05	3e-05	0.0004	0.00029	6e-05	-3e-05	1e-05	4
14494	-4e-05	-1e-05	3e-05	0.0004	0.00029	6e-05	-3e-05	1e-05	4
14495	-4e-05	-1e-05	3e-05	0.0004	0.00029	6e-05	-3e-05	1e-05	4
14496	-4e-05	-1e-05	3e-05	0.0004	0.00029	6e-05	-3e-05	1e-05	4
14497	-4e-05	-1e-05	3e-05	0.0004	0.00029	6e-05	-3e-05	1e-05	4
14498	-4e-05	-1e-05	3e-05	0.0004	0.00029	6e-05	-3e-05	1e-05	4
14499	-4e-05	-1e-05	3e-05	0.0004	0.00029	6e-05	-3e-05	1e-05	4
14500	-4e-05	-1e-05	3e-05	0.0004	0.00029	6e-05	-3e-05	1e-05	4
14501	-4e-05	-1e-05	3e-05	0.0004	0.00029	6e-05	-3e-05	1e-05	4
14502	-4e-05	-1e-05	3e-05	0.0004	0.00029	6e-05	-3e-05	1e-05	4
14503	2e-05	3e-05	9e-05	0.00018	0.00088	0.00025	-4e-05	-2e-05	4
14504	3e-05	-2e-05	3e-05	0.00061	0.00026	8e-05	0.0001	4e-05	4
14505	3e-05	-2e-05	3e-05	0.00061	0.00026	8e-05	0.0001	4e-05	4
14506	3e-05	-2e-05	3e-05	0.00061	0.00026	8e-05	0.0001	4e-05	4
14507	3e-05	-2e-05	3e-05	0.00061	0.00026	8e-05	0.0001	4e-05	4
14508	3e-05	-2e-05	3e-05	0.00061	0.00026	8e-05	0.0001	4e-05	4
14509	3e-05	-2e-05	3e-05	0.00061	0.00026	8e-05	0.0001	4e-05	4
14510	3e-05	-2e-05	3e-05	0.00061	0.00026	8e-05	0.0001	4e-05	4
14511	3e-05	-2e-05	3e-05	0.00061	0.00026	8e-05	0.0001	4e-05	4
14512	3e-05	-2e-05	3e-05	0.00061	0.00026	8e-05	0.0001	4e-05	4
14513	3e-05	-2e-05	3e-05	0.00061	0.00026	8e-05	0.0001	4e-05	4
14514	3e-05	-2e-05	3e-05	0.00061	0.00026	8e-05	0.0001	4e-05	4
14515	3e-05	-2e-05	3e-05	0.00061	0.00026	8e-05	0.0001	4e-05	4
14516	3e-05	-2e-05	3e-05	0.00061	0.00026	8e-05	0.0001	4e-05	4
14517	3e-05	-2e-05	3e-05	0.00061	0.00026	8e-05	0.0001	4e-05	4
14518	3e-05	-2e-05	3e-05	0.00061	0.00026	8e-05	0.0001	4e-05	4
14519	3e-05	-2e-05	3e-05	0.00061	0.00026	8e-05	0.0001	4e-05	4
14520	3e-05	-2e-05	3e-05	0.00061	0.00026	8e-05	0.0001	4e-05	4
14521	3e-05	-2e-05	3e-05	0.00061	0.00026	8e-05	0.0001	4e-05	4
14522	3e-05	-2e-05	3e-05	0.00061	0.00026	8e-05	0.0001	4e-05	4
14523	3e-05	-2e-05	3e-05	0.00061	0.00026	8e-05	0.0001	4e-05	4
14524	3e-05	-2e-05	3e-05	0.00061	0.00026	8e-05	0.0001	4e-05	4
14525	6e-05	3e-05	8e-05	0.00032	0.00026	0.00021	5e-05	5e-05	4
14526	6e-05	3e-05	8e-05	0.00032	0.00026	0.00021	5e-05	5e-05	4
14527	5e-05	7e-05	2e-05	-0.0002	9e-05	3e-05	-2e-05	-2e-05	4
14528	5e-05	7e-05	2e-05	-0.0002	9e-05	3e-05	-2e-05	-2e-05	4
14529	5e-05	7e-05	2e-05	-0.0002	9e-05	3e-05	-2e-05	-2e-05	4
14530	5e-05	7e-05	2e-05	-0.0002	9e-05	3e-05	-2e-05	-2e-05	4
14531	5e-05	7e-05	2e-05	-0.0002	9e-05	3e-05	-2e-05	-2e-05	4
14532	5e-05	7e-05	2e-05	-0.0002	9e-05	3e-05	-2e-05	-2e-05	4
14533	5e-05	7e-05	2e-05	-0.0002	9e-05	3e-05	-2e-05	-2e-05	4
14534	5e-05	7e-05	2e-05	-0.0002	9e-05	3e-05	-2e-05	-2e-05	4
14535	5e-05	7e-05	2e-05	-0.0002	9e-05	3e-05	-2e-05	-2e-05	4
14536	5e-05	7e-05	2e-05	-0.0002	9e-05	3e-05	-2e-05	-2e-05	4
14538	5e-05	7e-05	2e-05	-0.0002	9e-05	3e-05	-2e-05	-2e-05	4
14539	2e-05	3e-05	5e-05	0.00013	-0.0008	-8e-05	2e-05	1e-05	4
14540	2e-05	3e-05	5e-05	0.00013	-0.0008	-8e-05	2e-05	1e-05	4
14541	2e-05	3e-05	5e-05	0.00013	-0.0008	-8e-05	2e-05	1e-05	4
14542	2e-05	3e-05	5e-05	0.00013	-0.0008	-8e-05	2e-05	1e-05	4
14543	2e-05	3e-05	5e-05	0.00013	-0.0008	-8e-05	2e-05	1e-05	4
14544	2e-05	3e-05	5e-05	0.00013	-0.0008	-8e-05	2e-05	1e-05	4
14545	2e-05	3e-05	5e-05	0.00013	-0.0008	-8e-05	2e-05	1e-05	4
14546	2e-05	3e-05	5e-05	0.00013	-0.0008	-8e-05	2e-05	1e-05	4
14547	2e-05	3e-05	5e-05	0.00013	-0.0008	-8e-05	2e-05	1e-05	4
14548	-2e-05	-4e-05	-3e-05	-0.00011	-0.00023	-9e-05	-0.00012	1e-05	4
14549	-2e-05	-4e-05	-3e-05	-0.00011	-0.00023	-9e-05	-0.00012	1e-05	4
14550	-2e-05	-4e-05	-3e-05	-0.00011	-0.00023	-9e-05	-0.00012	1e-05	4
14551	-2e-05	-4e-05	-3e-05	-0.00011	-0.00023	-9e-05	-0.00012	1e-05	4
14552	-2e-05	-4e-05	-3e-05	-0.00011	-0.00023	-9e-05	-0.00012	1e-05	4
14553	-2e-05	-4e-05	-3e-05	-0.00011	-0.00023	-9e-05	-0.00012	1e-05	4
14554	-2e-05	-4e-05	-3e-05	-0.00011	-0.00023	-9e-05	-0.00012	1e-05	4
14555	-2e-05	-4e-05	-3e-05	-0.00011	-0.00023	-9e-05	-0.00012	1e-05	4
14556	-2e-05	-4e-05	-3e-05	-0.00011	-0.00023	-9e-05	-0.00012	1e-05	4
14557	-2e-05	-4e-05	-3e-05	-0.00011	-0.00023	-9e-05	-0.00012	1e-05	4
14558	-2e-05	-4e-05	-3e-05	-0.00011	-0.00023	-9e-05	-0.00012	1e-05	4
14559	-2e-05	-4e-05	-3e-05	-0.00011	-0.00023	-9e-05	-0.00012	1e-05	4
14560	-2e-05	-4e-05	-3e-05	-0.00011	-0.00023	-9e-05	-0.00012	1e-05	4
14561	-2e-05	-4e-05	-3e-05	-0.00011	-0.00023	-9e-05	-0.00012	1e-05	4
14562	-2e-05	-4e-05	-3e-05	-0.00011	-0.00023	-9e-05	-0.00012	1e-05	4
14563	5e-05	0.00013	0.0002	0.00057	0.00021	0.00022	0.00027	6e-05	4
14564	2e-05	8e-05	9e-05	0.0002	1e-05	4e-05	-5e-05	-1e-05	4
14565	-0.0001	-0.00015	-0.00016	-0.00026	-0.00032	-0.0003	-8e-05	-0.00011	4
14566	-0.0001	-0.00015	-0.00016	-0.00026	-0.00032	-0.0003	-8e-05	-0.00011	4
14567	-0.0001	-0.00015	-0.00016	-0.00026	-0.00032	-0.0003	-8e-05	-0.00011	4
14568	-0.0001	-0.00015	-0.00016	-0.00026	-0.00032	-0.0003	-8e-05	-0.00011	4
14569	-0.0001	-0.00015	-0.00016	-0.00026	-0.00032	-0.0003	-8e-05	-0.00011	4
14570	-0.0001	-0.00015	-0.00016	-0.00026	-0.00032	-0.0003	-8e-05	-0.00011	4
14571	-0.0001	-0.00015	-0.00016	-0.00026	-0.00032	-0.0003	-8e-05	-0.00011	4
14572	-0.0001	-0.00015	-0.00016	-0.00026	-0.00032	-0.0003	-8e-05	-0.00011	4
14573	-0.0001	-0.00015	-0.00016	-0.00026	-0.00032	-0.0003	-8e-05	-0.00011	4
14574	-0.0001	-0.00015	-0.00016	-0.00026	-0.00032	-0.0003	-8e-05	-0.00011	4
14575	-0.0001	-0.00015	-0.00016	-0.00026	-0.00032	-0.0003	-8e-05	-0.00011	4
14576	-0.0001	-0.00015	-0.00016	-0.00026	-0.00032	-0.0003	-8e-05	-0.00011	4
14577	-0.0001	-0.00015	-0.00016	-0.00026	-0.00032	-0.0003	-8e-05	-0.00011	4
14578	-0.0001	-0.00015	-0.00016	-0.00026	-0.00032	-0.0003	-8e-05	-0.00011	4
14579	-0.0001	-0.00015	-0.00016	-0.00026	-0.00032	-0.0003	-8e-05	-0.00011	4
14580	-0.0001	-0.00015	-0.00016	-0.00026	-0.00032	-0.0003	-8e-05	-0.00011	4
14581	-0.0001	-0.00015	-0.00016	-0.00026	-0.00032	-0.0003	-8e-05	-0.00011	4
14582	-0.0001	-0.00015	-0.00016	-0.00026	-0.00032	-0.0003	-8e-05	-0.00011	4
14583	-0.0001	-0.00015	-0.00016	-0.00026	-0.00032	-0.0003	-8e-05	-0.00011	4
14584	-0.0001	-0.00015	-0.00016	-0.00026	-0.00032	-0.0003	-8e-05	-0.00011	4
14585	2e-05	-5e-05	-7e-05	-0.00052	0.00031	8e-05	-0.00013	0	4
14587	2e-05	-5e-05	-7e-05	-0.00052	0.00031	8e-05	-0.00013	0	4
14589	-2e-05	0	-2e-05	-0.00018	-0.00023	8e-05	0.00022	0	4
14590	-2e-05	0	-2e-05	-0.00018	-0.00023	8e-05	0.00022	0	4
14591	-2e-05	0	-2e-05	-0.00018	-0.00023	8e-05	0.00022	0	4
14592	-2e-05	0	-2e-05	-0.00018	-0.00023	8e-05	0.00022	0	4
14593	-2e-05	0	-2e-05	-0.00018	-0.00023	8e-05	0.00022	0	4
14594	-2e-05	0	-2e-05	-0.00018	-0.00023	8e-05	0.00022	0	4
14595	-2e-05	0	-2e-05	-0.00018	-0.00023	8e-05	0.00022	0	4
14596	-2e-05	0	-2e-05	-0.00018	-0.00023	8e-05	0.00022	0	4
14597	-2e-05	0	-2e-05	-0.00018	-0.00023	8e-05	0.00022	0	4
14598	-2e-05	0	-2e-05	-0.00018	-0.00023	8e-05	0.00022	0	4
14599	-7e-05	-8e-05	-0.00016	-0.00023	-0.00029	-0.0002	-0.00014	-0.00013	4
14600	-7e-05	-8e-05	-0.00016	-0.00023	-0.00029	-0.0002	-0.00014	-0.00013	4
14601	-7e-05	-8e-05	-0.00016	-0.00023	-0.00029	-0.0002	-0.00014	-0.00013	4
14602	-7e-05	-8e-05	-0.00016	-0.00023	-0.00029	-0.0002	-0.00014	-0.00013	4
14603	-7e-05	-8e-05	-0.00016	-0.00023	-0.00029	-0.0002	-0.00014	-0.00013	4
14604	-7e-05	-8e-05	-0.00016	-0.00023	-0.00029	-0.0002	-0.00014	-0.00013	4
14605	-7e-05	-8e-05	-0.00016	-0.00023	-0.00029	-0.0002	-0.00014	-0.00013	4
14606	-7e-05	-8e-05	-0.00016	-0.00023	-0.00029	-0.0002	-0.00014	-0.00013	4
14607	-7e-05	-8e-05	-0.00016	-0.00023	-0.00029	-0.0002	-0.00014	-0.00013	4
14608	-1e-05	-0.00011	-0.00011	-0.00045	-0.00013	8e-05	-5e-05	-8e-05	4
14609	-1e-05	-0.00011	-0.00011	-0.00045	-0.00013	8e-05	-5e-05	-8e-05	4
14610	-1e-05	-0.00011	-0.00011	-0.00045	-0.00013	8e-05	-5e-05	-8e-05	4
14611	-1e-05	-0.00011	-0.00011	-0.00045	-0.00013	8e-05	-5e-05	-8e-05	4
14612	-1e-05	-0.00011	-0.00011	-0.00045	-0.00013	8e-05	-5e-05	-8e-05	4
14613	-1e-05	-0.00011	-0.00011	-0.00045	-0.00013	8e-05	-5e-05	-8e-05	4
14614	-1e-05	-0.00011	-0.00011	-0.00045	-0.00013	8e-05	-5e-05	-8e-05	4
14615	-1e-05	-0.00011	-0.00011	-0.00045	-0.00013	8e-05	-5e-05	-8e-05	4
14616	-1e-05	-0.00011	-0.00011	-0.00045	-0.00013	8e-05	-5e-05	-8e-05	4
14617	-1e-05	-0.00011	-0.00011	-0.00045	-0.00013	8e-05	-5e-05	-8e-05	4
14618	-1e-05	-0.00011	-0.00011	-0.00045	-0.00013	8e-05	-5e-05	-8e-05	4
14619	-1e-05	-0.00011	-0.00011	-0.00045	-0.00013	8e-05	-5e-05	-8e-05	4
14620	-1e-05	-0.00011	-0.00011	-0.00045	-0.00013	8e-05	-5e-05	-8e-05	4
14621	-1e-05	-0.00011	-0.00011	-0.00045	-0.00013	8e-05	-5e-05	-8e-05	4
14622	-1e-05	-0.00011	-0.00011	-0.00045	-0.00013	8e-05	-5e-05	-8e-05	4
14623	4e-05	5e-05	6e-05	0.00041	0.00068	0.00016	3e-05	0.00011	4
14624	-6e-05	-5e-05	-4e-05	5e-05	-0.00033	-0.00026	-0.00016	-6e-05	4
14625	-6e-05	-5e-05	-4e-05	5e-05	-0.00033	-0.00026	-0.00016	-6e-05	4
14626	-6e-05	-5e-05	-4e-05	5e-05	-0.00033	-0.00026	-0.00016	-6e-05	4
14627	-6e-05	-5e-05	-4e-05	5e-05	-0.00033	-0.00026	-0.00016	-6e-05	4
14628	-6e-05	-5e-05	-4e-05	5e-05	-0.00033	-0.00026	-0.00016	-6e-05	4
14629	-6e-05	-5e-05	-4e-05	5e-05	-0.00033	-0.00026	-0.00016	-6e-05	4
14630	-6e-05	-5e-05	-4e-05	5e-05	-0.00033	-0.00026	-0.00016	-6e-05	4
14631	-6e-05	-5e-05	-4e-05	5e-05	-0.00033	-0.00026	-0.00016	-6e-05	4
14632	-6e-05	-5e-05	-4e-05	5e-05	-0.00033	-0.00026	-0.00016	-6e-05	4
14633	-6e-05	-5e-05	-4e-05	5e-05	-0.00033	-0.00026	-0.00016	-6e-05	4
14634	-6e-05	-5e-05	-4e-05	5e-05	-0.00033	-0.00026	-0.00016	-6e-05	4
14635	-6e-05	-5e-05	-4e-05	5e-05	-0.00033	-0.00026	-0.00016	-6e-05	4
14636	-6e-05	-5e-05	-4e-05	5e-05	-0.00033	-0.00026	-0.00016	-6e-05	4
14638	-6e-05	-5e-05	-4e-05	5e-05	-0.00033	-0.00026	-0.00016	-6e-05	4
14639	-6e-05	-5e-05	-4e-05	5e-05	-0.00033	-0.00026	-0.00016	-6e-05	4
14640	-6e-05	-5e-05	-4e-05	5e-05	-0.00033	-0.00026	-0.00016	-6e-05	4
14641	-6e-05	-5e-05	-4e-05	5e-05	-0.00033	-0.00026	-0.00016	-6e-05	4
14642	-6e-05	-5e-05	-4e-05	5e-05	-0.00033	-0.00026	-0.00016	-6e-05	4
14643	-6e-05	-5e-05	-4e-05	5e-05	-0.00033	-0.00026	-0.00016	-6e-05	4
14644	-6e-05	-5e-05	-4e-05	5e-05	-0.00033	-0.00026	-0.00016	-6e-05	4
14645	1e-05	0	1e-05	6e-05	-5e-05	0	9e-05	0.00014	4
14646	1e-05	0	1e-05	6e-05	-5e-05	0	9e-05	0.00014	4
14647	-4e-05	-2e-05	-8e-05	-0.00026	-0.0004	-0.0002	-0.00013	-0.0002	4
14648	-4e-05	-2e-05	-8e-05	-0.00026	-0.0004	-0.0002	-0.00013	-0.0002	4
14649	-4e-05	-2e-05	-8e-05	-0.00026	-0.0004	-0.0002	-0.00013	-0.0002	4
14650	-4e-05	-2e-05	-8e-05	-0.00026	-0.0004	-0.0002	-0.00013	-0.0002	4
14651	-4e-05	-2e-05	-8e-05	-0.00026	-0.0004	-0.0002	-0.00013	-0.0002	4
14652	-4e-05	-2e-05	-8e-05	-0.00026	-0.0004	-0.0002	-0.00013	-0.0002	4
14653	-4e-05	-2e-05	-8e-05	-0.00026	-0.0004	-0.0002	-0.00013	-0.0002	4
14654	-4e-05	-2e-05	-8e-05	-0.00026	-0.0004	-0.0002	-0.00013	-0.0002	4
14655	-4e-05	-2e-05	-8e-05	-0.00026	-0.0004	-0.0002	-0.00013	-0.0002	4
14656	-4e-05	-2e-05	-8e-05	-0.00026	-0.0004	-0.0002	-0.00013	-0.0002	4
14657	-4e-05	-2e-05	-8e-05	-0.00026	-0.0004	-0.0002	-0.00013	-0.0002	4
14658	-4e-05	-2e-05	-8e-05	-0.00026	-0.0004	-0.0002	-0.00013	-0.0002	4
14659	4e-05	7e-05	7e-05	0	0.00022	0.00013	5e-05	0.00011	4
14660	4e-05	7e-05	7e-05	0	0.00022	0.00013	5e-05	0.00011	4
14661	4e-05	7e-05	7e-05	0	0.00022	0.00013	5e-05	0.00011	4
14662	4e-05	7e-05	7e-05	0	0.00022	0.00013	5e-05	0.00011	4
14663	4e-05	7e-05	7e-05	0	0.00022	0.00013	5e-05	0.00011	4
14664	4e-05	7e-05	7e-05	0	0.00022	0.00013	5e-05	0.00011	4
14665	4e-05	7e-05	7e-05	0	0.00022	0.00013	5e-05	0.00011	4
14666	4e-05	7e-05	7e-05	0	0.00022	0.00013	5e-05	0.00011	4
14667	4e-05	7e-05	7e-05	0	0.00022	0.00013	5e-05	0.00011	4
14668	0	2e-05	-0.00012	-0.0009	-0.0007	-0.00013	-0.00016	9e-05	4
14669	0	2e-05	-0.00012	-0.0009	-0.0007	-0.00013	-0.00016	9e-05	4
14670	0	2e-05	-0.00012	-0.0009	-0.0007	-0.00013	-0.00016	9e-05	4
14671	0	2e-05	-0.00012	-0.0009	-0.0007	-0.00013	-0.00016	9e-05	4
14672	0	2e-05	-0.00012	-0.0009	-0.0007	-0.00013	-0.00016	9e-05	4
14673	0	2e-05	-0.00012	-0.0009	-0.0007	-0.00013	-0.00016	9e-05	4
14674	0	2e-05	-0.00012	-0.0009	-0.0007	-0.00013	-0.00016	9e-05	4
14675	0	2e-05	-0.00012	-0.0009	-0.0007	-0.00013	-0.00016	9e-05	4
14676	0	2e-05	-0.00012	-0.0009	-0.0007	-0.00013	-0.00016	9e-05	4
14677	0	2e-05	-0.00012	-0.0009	-0.0007	-0.00013	-0.00016	9e-05	4
14678	0	2e-05	-0.00012	-0.0009	-0.0007	-0.00013	-0.00016	9e-05	4
14679	0	2e-05	-0.00012	-0.0009	-0.0007	-0.00013	-0.00016	9e-05	4
14680	0	2e-05	-0.00012	-0.0009	-0.0007	-0.00013	-0.00016	9e-05	4
14681	0	2e-05	-0.00012	-0.0009	-0.0007	-0.00013	-0.00016	9e-05	4
14682	0	2e-05	-0.00012	-0.0009	-0.0007	-0.00013	-0.00016	9e-05	4
14683	-2e-05	-7e-05	-6e-05	0.00032	4e-05	-7e-05	-0.00015	-2e-05	4
14684	1e-05	7e-05	3e-05	-2e-05	0.00113	0.00036	0.00017	8e-05	4
14685	1e-05	7e-05	3e-05	-2e-05	0.00113	0.00036	0.00017	8e-05	4
14686	1e-05	7e-05	3e-05	-2e-05	0.00113	0.00036	0.00017	8e-05	4
14688	1e-05	7e-05	3e-05	-2e-05	0.00113	0.00036	0.00017	8e-05	4
14689	1e-05	7e-05	3e-05	-2e-05	0.00113	0.00036	0.00017	8e-05	4
14690	1e-05	7e-05	3e-05	-2e-05	0.00113	0.00036	0.00017	8e-05	4
14691	1e-05	7e-05	3e-05	-2e-05	0.00113	0.00036	0.00017	8e-05	4
14692	1e-05	7e-05	3e-05	-2e-05	0.00113	0.00036	0.00017	8e-05	4
14693	1e-05	7e-05	3e-05	-2e-05	0.00113	0.00036	0.00017	8e-05	4
14694	1e-05	7e-05	3e-05	-2e-05	0.00113	0.00036	0.00017	8e-05	4
14695	1e-05	7e-05	3e-05	-2e-05	0.00113	0.00036	0.00017	8e-05	4
14696	1e-05	7e-05	3e-05	-2e-05	0.00113	0.00036	0.00017	8e-05	4
14697	1e-05	7e-05	3e-05	-2e-05	0.00113	0.00036	0.00017	8e-05	4
14698	1e-05	7e-05	3e-05	-2e-05	0.00113	0.00036	0.00017	8e-05	4
14699	1e-05	7e-05	3e-05	-2e-05	0.00113	0.00036	0.00017	8e-05	4
14700	1e-05	7e-05	3e-05	-2e-05	0.00113	0.00036	0.00017	8e-05	4
14701	1e-05	7e-05	3e-05	-2e-05	0.00113	0.00036	0.00017	8e-05	4
14702	1e-05	7e-05	3e-05	-2e-05	0.00113	0.00036	0.00017	8e-05	4
14703	1e-05	7e-05	3e-05	-2e-05	0.00113	0.00036	0.00017	8e-05	4
14704	1e-05	7e-05	3e-05	-2e-05	0.00113	0.00036	0.00017	8e-05	4
14705	-6e-05	-6e-05	-5e-05	-0.00011	-0.0003	1e-05	-0.00012	-9e-05	4
14706	-6e-05	-6e-05	-5e-05	-0.00011	-0.0003	1e-05	-0.00012	-9e-05	4
14707	-2e-05	-1e-05	2e-05	0.00052	0.00048	0.00016	5e-05	-7e-05	4
14708	-2e-05	-1e-05	2e-05	0.00052	0.00048	0.00016	5e-05	-7e-05	4
14709	-2e-05	-1e-05	2e-05	0.00052	0.00048	0.00016	5e-05	-7e-05	4
14710	-2e-05	-1e-05	2e-05	0.00052	0.00048	0.00016	5e-05	-7e-05	4
14711	-2e-05	-1e-05	2e-05	0.00052	0.00048	0.00016	5e-05	-7e-05	4
14712	-2e-05	-1e-05	2e-05	0.00052	0.00048	0.00016	5e-05	-7e-05	4
14713	-2e-05	-1e-05	2e-05	0.00052	0.00048	0.00016	5e-05	-7e-05	4
14714	-2e-05	-1e-05	2e-05	0.00052	0.00048	0.00016	5e-05	-7e-05	4
14715	-2e-05	-1e-05	2e-05	0.00052	0.00048	0.00016	5e-05	-7e-05	4
14716	-2e-05	-1e-05	2e-05	0.00052	0.00048	0.00016	5e-05	-7e-05	4
14717	-2e-05	-1e-05	2e-05	0.00052	0.00048	0.00016	5e-05	-7e-05	4
14718	-2e-05	-1e-05	2e-05	0.00052	0.00048	0.00016	5e-05	-7e-05	4
14719	-2e-05	-1e-05	2e-05	0.00052	0.00048	0.00016	5e-05	-7e-05	4
14720	-2e-05	-1e-05	2e-05	0.00052	0.00048	0.00016	5e-05	-7e-05	4
14721	-2e-05	-1e-05	2e-05	0.00052	0.00048	0.00016	5e-05	-7e-05	4
14722	-2e-05	-1e-05	2e-05	0.00052	0.00048	0.00016	5e-05	-7e-05	4
14723	-2e-05	-1e-05	2e-05	0.00052	0.00048	0.00016	5e-05	-7e-05	4
14724	-2e-05	-1e-05	2e-05	0.00052	0.00048	0.00016	5e-05	-7e-05	4
14725	-2e-05	-1e-05	2e-05	0.00052	0.00048	0.00016	5e-05	-7e-05	4
14726	-2e-05	-1e-05	2e-05	0.00052	0.00048	0.00016	5e-05	-7e-05	4
14727	-2e-05	-1e-05	2e-05	0.00052	0.00048	0.00016	5e-05	-7e-05	4
14728	-6e-05	-4e-05	-8e-05	-0.00047	-0.00049	-0.00025	6e-05	-0.00018	4
14729	-2e-05	-5e-05	-4e-05	-0.00029	-5e-05	3e-05	3e-05	0	4
14730	-2e-05	-5e-05	-4e-05	-0.00029	-5e-05	3e-05	3e-05	0	4
14731	-2e-05	-5e-05	-4e-05	-0.00029	-5e-05	3e-05	3e-05	0	4
14732	-2e-05	-5e-05	-4e-05	-0.00029	-5e-05	3e-05	3e-05	0	4
14733	-2e-05	-5e-05	-4e-05	-0.00029	-5e-05	3e-05	3e-05	0	4
14734	-2e-05	-5e-05	-4e-05	-0.00029	-5e-05	3e-05	3e-05	0	4
14735	-2e-05	-5e-05	-4e-05	-0.00029	-5e-05	3e-05	3e-05	0	4
14736	-2e-05	-5e-05	-4e-05	-0.00029	-5e-05	3e-05	3e-05	0	4
14738	-2e-05	-5e-05	-4e-05	-0.00029	-5e-05	3e-05	3e-05	0	4
14739	-2e-05	-5e-05	-4e-05	-0.00029	-5e-05	3e-05	3e-05	0	4
14740	-2e-05	-5e-05	-4e-05	-0.00029	-5e-05	3e-05	3e-05	0	4
14741	-2e-05	-5e-05	-4e-05	-0.00029	-5e-05	3e-05	3e-05	0	4
14742	-2e-05	-5e-05	-4e-05	-0.00029	-5e-05	3e-05	3e-05	0	4
14743	-1e-05	-5e-05	-8e-05	-0.0001	-1e-05	-9e-05	-0.00019	-0.0001	4
14744	-1e-05	-5e-05	-8e-05	-0.0001	-1e-05	-9e-05	-0.00019	-0.0001	4
14745	0	-1e-05	0	0.00012	-0.00014	5e-05	7e-05	0.00011	4
14746	0	-1e-05	0	0.00012	-0.00014	5e-05	7e-05	0.00011	4
14747	0	-1e-05	0	0.00012	-0.00014	5e-05	7e-05	0.00011	4
14748	0	-1e-05	0	0.00012	-0.00014	5e-05	7e-05	0.00011	4
14749	0	-1e-05	0	0.00012	-0.00014	5e-05	7e-05	0.00011	4
14750	0	-1e-05	0	0.00012	-0.00014	5e-05	7e-05	0.00011	4
14751	0	-1e-05	0	0.00012	-0.00014	5e-05	7e-05	0.00011	4
14752	0	-1e-05	0	0.00012	-0.00014	5e-05	7e-05	0.00011	4
14753	0	-1e-05	0	0.00012	-0.00014	5e-05	7e-05	0.00011	4
14754	0	-1e-05	0	0.00012	-0.00014	5e-05	7e-05	0.00011	4
14755	0	-1e-05	0	0.00012	-0.00014	5e-05	7e-05	0.00011	4
14756	0	-1e-05	0	0.00012	-0.00014	5e-05	7e-05	0.00011	4
14757	0	-1e-05	0	0.00012	-0.00014	5e-05	7e-05	0.00011	4
14758	0	-1e-05	0	0.00012	-0.00014	5e-05	7e-05	0.00011	4
14759	0	-1e-05	0	0.00012	-0.00014	5e-05	7e-05	0.00011	4
14760	0	-1e-05	0	0.00012	-0.00014	5e-05	7e-05	0.00011	4
14761	0	-1e-05	0	0.00012	-0.00014	5e-05	7e-05	0.00011	4
14762	0	-1e-05	0	0.00012	-0.00014	5e-05	7e-05	0.00011	4
14763	0	-1e-05	0	0.00012	-0.00014	5e-05	7e-05	0.00011	4
14764	0	-1e-05	0	0.00012	-0.00014	5e-05	7e-05	0.00011	4
14765	1e-05	5e-05	7e-05	0.00022	0.00022	0.00012	0.00019	3e-05	4
14766	1e-05	5e-05	7e-05	0.00022	0.00022	0.00012	0.00019	3e-05	4
14767	2e-05	3e-05	6e-05	0.0006	0.00085	0.00019	7e-05	4e-05	4
14768	2e-05	3e-05	6e-05	0.0006	0.00085	0.00019	7e-05	4e-05	4
14769	2e-05	3e-05	6e-05	0.0006	0.00085	0.00019	7e-05	4e-05	4
14770	2e-05	3e-05	6e-05	0.0006	0.00085	0.00019	7e-05	4e-05	4
14771	2e-05	3e-05	6e-05	0.0006	0.00085	0.00019	7e-05	4e-05	4
14772	2e-05	3e-05	6e-05	0.0006	0.00085	0.00019	7e-05	4e-05	4
14773	2e-05	3e-05	6e-05	0.0006	0.00085	0.00019	7e-05	4e-05	4
14774	2e-05	3e-05	6e-05	0.0006	0.00085	0.00019	7e-05	4e-05	4
14775	2e-05	3e-05	6e-05	0.0006	0.00085	0.00019	7e-05	4e-05	4
14776	2e-05	3e-05	6e-05	0.0006	0.00085	0.00019	7e-05	4e-05	4
14777	2e-05	3e-05	6e-05	0.0006	0.00085	0.00019	7e-05	4e-05	4
14778	2e-05	3e-05	6e-05	0.0006	0.00085	0.00019	7e-05	4e-05	4
14779	2e-05	3e-05	6e-05	0.0006	0.00085	0.00019	7e-05	4e-05	4
14780	2e-05	3e-05	6e-05	0.0006	0.00085	0.00019	7e-05	4e-05	4
14781	2e-05	3e-05	6e-05	0.0006	0.00085	0.00019	7e-05	4e-05	4
14782	2e-05	3e-05	6e-05	0.0006	0.00085	0.00019	7e-05	4e-05	4
14783	2e-05	3e-05	6e-05	0.0006	0.00085	0.00019	7e-05	4e-05	4
14784	2e-05	3e-05	6e-05	0.0006	0.00085	0.00019	7e-05	4e-05	4
14785	2e-05	3e-05	6e-05	0.0006	0.00085	0.00019	7e-05	4e-05	4
14786	2e-05	3e-05	6e-05	0.0006	0.00085	0.00019	7e-05	4e-05	4
14788	-1e-05	-5e-05	3e-05	0.00054	-0.00066	-0.0003	-2e-05	-0.0001	4
14790	-1e-05	-5e-05	3e-05	0.00054	-0.00066	-0.0003	-2e-05	-0.0001	4
14791	-1e-05	-5e-05	3e-05	0.00054	-0.00066	-0.0003	-2e-05	-0.0001	4
14792	-1e-05	-5e-05	3e-05	0.00054	-0.00066	-0.0003	-2e-05	-0.0001	4
14793	-1e-05	-5e-05	3e-05	0.00054	-0.00066	-0.0003	-2e-05	-0.0001	4
14794	-1e-05	-5e-05	3e-05	0.00054	-0.00066	-0.0003	-2e-05	-0.0001	4
14795	-1e-05	-5e-05	3e-05	0.00054	-0.00066	-0.0003	-2e-05	-0.0001	4
14796	-1e-05	-5e-05	3e-05	0.00054	-0.00066	-0.0003	-2e-05	-0.0001	4
14797	-1e-05	-5e-05	3e-05	0.00054	-0.00066	-0.0003	-2e-05	-0.0001	4
14798	-1e-05	-5e-05	3e-05	0.00054	-0.00066	-0.0003	-2e-05	-0.0001	4
14799	-1e-05	-5e-05	3e-05	0.00054	-0.00066	-0.0003	-2e-05	-0.0001	4
14800	-1e-05	-5e-05	3e-05	0.00054	-0.00066	-0.0003	-2e-05	-0.0001	4
14801	-1e-05	-5e-05	3e-05	0.00054	-0.00066	-0.0003	-2e-05	-0.0001	4
14802	-1e-05	-5e-05	3e-05	0.00054	-0.00066	-0.0003	-2e-05	-0.0001	4
14803	-6e-05	0	3e-05	-7e-05	-0.00017	-4e-05	-0.00012	-3e-05	4
14804	-6e-05	-5e-05	-7e-05	-0.00065	-0.00018	-8e-05	-0.0001	-0.00017	4
14805	-6e-05	-5e-05	-7e-05	-0.00065	-0.00018	-8e-05	-0.0001	-0.00017	4
14806	-6e-05	-5e-05	-7e-05	-0.00065	-0.00018	-8e-05	-0.0001	-0.00017	4
14807	-6e-05	-5e-05	-7e-05	-0.00065	-0.00018	-8e-05	-0.0001	-0.00017	4
14808	-6e-05	-5e-05	-7e-05	-0.00065	-0.00018	-8e-05	-0.0001	-0.00017	4
14809	-6e-05	-5e-05	-7e-05	-0.00065	-0.00018	-8e-05	-0.0001	-0.00017	4
14810	-6e-05	-5e-05	-7e-05	-0.00065	-0.00018	-8e-05	-0.0001	-0.00017	4
14811	-6e-05	-5e-05	-7e-05	-0.00065	-0.00018	-8e-05	-0.0001	-0.00017	4
14812	-6e-05	-5e-05	-7e-05	-0.00065	-0.00018	-8e-05	-0.0001	-0.00017	4
14813	-6e-05	-5e-05	-7e-05	-0.00065	-0.00018	-8e-05	-0.0001	-0.00017	4
14814	-6e-05	-5e-05	-7e-05	-0.00065	-0.00018	-8e-05	-0.0001	-0.00017	4
14815	-6e-05	-5e-05	-7e-05	-0.00065	-0.00018	-8e-05	-0.0001	-0.00017	4
14816	-6e-05	-5e-05	-7e-05	-0.00065	-0.00018	-8e-05	-0.0001	-0.00017	4
14817	-6e-05	-5e-05	-7e-05	-0.00065	-0.00018	-8e-05	-0.0001	-0.00017	4
14818	-6e-05	-5e-05	-7e-05	-0.00065	-0.00018	-8e-05	-0.0001	-0.00017	4
14819	-6e-05	-5e-05	-7e-05	-0.00065	-0.00018	-8e-05	-0.0001	-0.00017	4
14820	-6e-05	-5e-05	-7e-05	-0.00065	-0.00018	-8e-05	-0.0001	-0.00017	4
14821	-6e-05	-5e-05	-7e-05	-0.00065	-0.00018	-8e-05	-0.0001	-0.00017	4
14822	-6e-05	-5e-05	-7e-05	-0.00065	-0.00018	-8e-05	-0.0001	-0.00017	4
14823	-6e-05	-5e-05	-7e-05	-0.00065	-0.00018	-8e-05	-0.0001	-0.00017	4
14824	-6e-05	-5e-05	-7e-05	-0.00065	-0.00018	-8e-05	-0.0001	-0.00017	4
14825	-5e-05	-8e-05	-0.00012	-0.00064	-0.00094	-0.00043	-0.00025	-0.00014	4
14826	-5e-05	-8e-05	-0.00012	-0.00064	-0.00094	-0.00043	-0.00025	-0.00014	4
14827	1e-05	1e-05	0	-0.00046	-0.0003	7e-05	5e-05	1e-05	4
14828	1e-05	1e-05	0	-0.00046	-0.0003	7e-05	5e-05	1e-05	4
14829	1e-05	1e-05	0	-0.00046	-0.0003	7e-05	5e-05	1e-05	4
14830	1e-05	1e-05	0	-0.00046	-0.0003	7e-05	5e-05	1e-05	4
14831	1e-05	1e-05	0	-0.00046	-0.0003	7e-05	5e-05	1e-05	4
14832	1e-05	1e-05	0	-0.00046	-0.0003	7e-05	5e-05	1e-05	4
14833	1e-05	1e-05	0	-0.00046	-0.0003	7e-05	5e-05	1e-05	4
14834	1e-05	1e-05	0	-0.00046	-0.0003	7e-05	5e-05	1e-05	4
14835	1e-05	1e-05	0	-0.00046	-0.0003	7e-05	5e-05	1e-05	4
14836	1e-05	1e-05	0	-0.00046	-0.0003	7e-05	5e-05	1e-05	4
14838	1e-05	1e-05	0	-0.00046	-0.0003	7e-05	5e-05	1e-05	4
14839	1e-05	1e-05	0	-0.00046	-0.0003	7e-05	5e-05	1e-05	4
14840	1e-05	1e-05	0	-0.00046	-0.0003	7e-05	5e-05	1e-05	4
14841	1e-05	1e-05	0	-0.00046	-0.0003	7e-05	5e-05	1e-05	4
14842	1e-05	1e-05	0	-0.00046	-0.0003	7e-05	5e-05	1e-05	4
14843	1e-05	1e-05	0	-0.00046	-0.0003	7e-05	5e-05	1e-05	4
14844	1e-05	1e-05	0	-0.00046	-0.0003	7e-05	5e-05	1e-05	4
14845	1e-05	1e-05	0	-0.00046	-0.0003	7e-05	5e-05	1e-05	4
14846	1e-05	1e-05	0	-0.00046	-0.0003	7e-05	5e-05	1e-05	4
14847	1e-05	1e-05	0	-0.00046	-0.0003	7e-05	5e-05	1e-05	4
14848	-1e-05	0	0	0.00046	0.00067	6e-05	9e-05	-3e-05	4
14849	2e-05	-5e-05	-4e-05	-0.00011	-9e-05	-0.00013	-2e-05	-1e-05	4
14850	2e-05	-5e-05	-4e-05	-0.00011	-9e-05	-0.00013	-2e-05	-1e-05	4
14851	2e-05	-5e-05	-4e-05	-0.00011	-9e-05	-0.00013	-2e-05	-1e-05	4
14852	2e-05	-5e-05	-4e-05	-0.00011	-9e-05	-0.00013	-2e-05	-1e-05	4
14853	2e-05	-5e-05	-4e-05	-0.00011	-9e-05	-0.00013	-2e-05	-1e-05	4
14854	2e-05	-5e-05	-4e-05	-0.00011	-9e-05	-0.00013	-2e-05	-1e-05	4
14855	2e-05	-5e-05	-4e-05	-0.00011	-9e-05	-0.00013	-2e-05	-1e-05	4
14856	2e-05	-5e-05	-4e-05	-0.00011	-9e-05	-0.00013	-2e-05	-1e-05	4
14857	2e-05	-5e-05	-4e-05	-0.00011	-9e-05	-0.00013	-2e-05	-1e-05	4
14858	2e-05	-5e-05	-4e-05	-0.00011	-9e-05	-0.00013	-2e-05	-1e-05	4
14859	2e-05	-5e-05	-4e-05	-0.00011	-9e-05	-0.00013	-2e-05	-1e-05	4
14860	2e-05	-5e-05	-4e-05	-0.00011	-9e-05	-0.00013	-2e-05	-1e-05	4
14861	2e-05	-5e-05	-4e-05	-0.00011	-9e-05	-0.00013	-2e-05	-1e-05	4
14862	-5e-05	-6e-05	-6e-05	-0.00067	-0.00022	6e-05	0.00013	7e-05	4
14863	-5e-05	-6e-05	-6e-05	-0.00067	-0.00022	6e-05	0.00013	7e-05	4
14864	-5e-05	-6e-05	-6e-05	-0.00067	-0.00022	6e-05	0.00013	7e-05	4
14865	-5e-05	-6e-05	-6e-05	-0.00067	-0.00022	6e-05	0.00013	7e-05	4
14866	-5e-05	-6e-05	-6e-05	-0.00067	-0.00022	6e-05	0.00013	7e-05	4
14868	-5e-05	-6e-05	-6e-05	-0.00067	-0.00022	6e-05	0.00013	7e-05	4
14869	-5e-05	-6e-05	-6e-05	-0.00067	-0.00022	6e-05	0.00013	7e-05	4
14870	-5e-05	-6e-05	-6e-05	-0.00067	-0.00022	6e-05	0.00013	7e-05	4
14871	-5e-05	-6e-05	-6e-05	-0.00067	-0.00022	6e-05	0.00013	7e-05	4
14872	-5e-05	-6e-05	-6e-05	-0.00067	-0.00022	6e-05	0.00013	7e-05	4
14873	-5e-05	-6e-05	-6e-05	-0.00067	-0.00022	6e-05	0.00013	7e-05	4
14874	-5e-05	-6e-05	-6e-05	-0.00067	-0.00022	6e-05	0.00013	7e-05	4
14875	-5e-05	-6e-05	-6e-05	-0.00067	-0.00022	6e-05	0.00013	7e-05	4
14876	2e-05	1e-05	2e-05	0.0003	9e-05	6e-05	1e-05	6e-05	4
14877	2e-05	1e-05	2e-05	0.0003	9e-05	6e-05	1e-05	6e-05	4
14878	2e-05	1e-05	2e-05	0.0003	9e-05	6e-05	1e-05	6e-05	4
14879	2e-05	1e-05	2e-05	0.0003	9e-05	6e-05	1e-05	6e-05	4
14880	2e-05	1e-05	2e-05	0.0003	9e-05	6e-05	1e-05	6e-05	4
14881	2e-05	1e-05	2e-05	0.0003	9e-05	6e-05	1e-05	6e-05	4
14882	2e-05	1e-05	2e-05	0.0003	9e-05	6e-05	1e-05	6e-05	4
14883	2e-05	1e-05	2e-05	0.0003	9e-05	6e-05	1e-05	6e-05	4
14884	2e-05	1e-05	2e-05	0.0003	9e-05	6e-05	1e-05	6e-05	4
14885	-1e-05	1e-05	3e-05	0.00021	0.00043	0.00031	-3e-05	-0.0001	4
14886	-1e-05	1e-05	3e-05	0.00021	0.00043	0.00031	-3e-05	-0.0001	4
14888	-6e-05	-5e-05	-7e-05	-0.00014	-0.00043	-0.00019	-7e-05	-3e-05	4
14889	-6e-05	-5e-05	-7e-05	-0.00014	-0.00043	-0.00019	-7e-05	-3e-05	4
14890	-6e-05	-5e-05	-7e-05	-0.00014	-0.00043	-0.00019	-7e-05	-3e-05	4
14891	-6e-05	-5e-05	-7e-05	-0.00014	-0.00043	-0.00019	-7e-05	-3e-05	4
14892	-6e-05	-5e-05	-7e-05	-0.00014	-0.00043	-0.00019	-7e-05	-3e-05	4
14893	-6e-05	-5e-05	-7e-05	-0.00014	-0.00043	-0.00019	-7e-05	-3e-05	4
14894	-6e-05	-5e-05	-7e-05	-0.00014	-0.00043	-0.00019	-7e-05	-3e-05	4
14895	-6e-05	-5e-05	-7e-05	-0.00014	-0.00043	-0.00019	-7e-05	-3e-05	4
14896	-6e-05	-5e-05	-7e-05	-0.00014	-0.00043	-0.00019	-7e-05	-3e-05	4
14897	-6e-05	-5e-05	-7e-05	-0.00014	-0.00043	-0.00019	-7e-05	-3e-05	4
14898	-6e-05	-5e-05	-7e-05	-0.00014	-0.00043	-0.00019	-7e-05	-3e-05	4
14899	-6e-05	-5e-05	-7e-05	-0.00014	-0.00043	-0.00019	-7e-05	-3e-05	4
14900	-6e-05	-5e-05	-7e-05	-0.00014	-0.00043	-0.00019	-7e-05	-3e-05	4
14901	-6e-05	-5e-05	-7e-05	-0.00014	-0.00043	-0.00019	-7e-05	-3e-05	4
14902	-6e-05	-5e-05	-7e-05	-0.00014	-0.00043	-0.00019	-7e-05	-3e-05	4
14903	-6e-05	-5e-05	-7e-05	-0.00014	-0.00043	-0.00019	-7e-05	-3e-05	4
14904	-6e-05	-5e-05	-7e-05	-0.00014	-0.00043	-0.00019	-7e-05	-3e-05	4
14905	-6e-05	-5e-05	-7e-05	-0.00014	-0.00043	-0.00019	-7e-05	-3e-05	4
14906	-6e-05	-5e-05	-7e-05	-0.00014	-0.00043	-0.00019	-7e-05	-3e-05	4
14907	-6e-05	-5e-05	-7e-05	-0.00014	-0.00043	-0.00019	-7e-05	-3e-05	4
14908	0	-2e-05	2e-05	0.00012	-0.00077	-0.00016	8e-05	-4e-05	4
14909	4e-05	6e-05	0.00012	0.00036	0.0009	0.00047	8e-05	4e-05	4
14910	4e-05	6e-05	0.00012	0.00036	0.0009	0.00047	8e-05	4e-05	4
14911	4e-05	6e-05	0.00012	0.00036	0.0009	0.00047	8e-05	4e-05	4
14912	4e-05	6e-05	0.00012	0.00036	0.0009	0.00047	8e-05	4e-05	4
14913	4e-05	6e-05	0.00012	0.00036	0.0009	0.00047	8e-05	4e-05	4
14914	4e-05	6e-05	0.00012	0.00036	0.0009	0.00047	8e-05	4e-05	4
14915	4e-05	6e-05	0.00012	0.00036	0.0009	0.00047	8e-05	4e-05	4
14916	4e-05	6e-05	0.00012	0.00036	0.0009	0.00047	8e-05	4e-05	4
14917	4e-05	6e-05	0.00012	0.00036	0.0009	0.00047	8e-05	4e-05	4
14918	4e-05	6e-05	0.00012	0.00036	0.0009	0.00047	8e-05	4e-05	4
14919	4e-05	6e-05	0.00012	0.00036	0.0009	0.00047	8e-05	4e-05	4
14920	4e-05	6e-05	0.00012	0.00036	0.0009	0.00047	8e-05	4e-05	4
14921	4e-05	6e-05	0.00012	0.00036	0.0009	0.00047	8e-05	4e-05	4
14922	-3e-05	-5e-05	-9e-05	0	-0.00064	-0.00035	-0.00016	-6e-05	4
14923	-3e-05	-5e-05	-9e-05	0	-0.00064	-0.00035	-0.00016	-6e-05	4
14924	-3e-05	-5e-05	-9e-05	0	-0.00064	-0.00035	-0.00016	-6e-05	4
14925	-3e-05	-5e-05	-9e-05	0	-0.00064	-0.00035	-0.00016	-6e-05	4
14926	-3e-05	-5e-05	-9e-05	0	-0.00064	-0.00035	-0.00016	-6e-05	4
14927	-3e-05	-5e-05	-9e-05	0	-0.00064	-0.00035	-0.00016	-6e-05	4
14928	-3e-05	-5e-05	-9e-05	0	-0.00064	-0.00035	-0.00016	-6e-05	4
14929	-1e-05	2e-05	-3e-05	-0.00043	0.00014	0.00012	1e-05	0.0001	4
14930	-1e-05	2e-05	-3e-05	-0.00043	0.00014	0.00012	1e-05	0.0001	4
14931	-1e-05	2e-05	-3e-05	-0.00043	0.00014	0.00012	1e-05	0.0001	4
14932	-1e-05	2e-05	-3e-05	-0.00043	0.00014	0.00012	1e-05	0.0001	4
14933	-1e-05	2e-05	-3e-05	-0.00043	0.00014	0.00012	1e-05	0.0001	4
14934	-1e-05	2e-05	-3e-05	-0.00043	0.00014	0.00012	1e-05	0.0001	4
14935	-1e-05	2e-05	-3e-05	-0.00043	0.00014	0.00012	1e-05	0.0001	4
14936	-1e-05	2e-05	-3e-05	-0.00043	0.00014	0.00012	1e-05	0.0001	4
14938	-1e-05	2e-05	-3e-05	-0.00043	0.00014	0.00012	1e-05	0.0001	4
14939	-1e-05	2e-05	-3e-05	-0.00043	0.00014	0.00012	1e-05	0.0001	4
14940	-1e-05	2e-05	-3e-05	-0.00043	0.00014	0.00012	1e-05	0.0001	4
14941	-1e-05	2e-05	-3e-05	-0.00043	0.00014	0.00012	1e-05	0.0001	4
14942	-1e-05	2e-05	-3e-05	-0.00043	0.00014	0.00012	1e-05	0.0001	4
14943	-1e-05	2e-05	-3e-05	-0.00043	0.00014	0.00012	1e-05	0.0001	4
14944	-1e-05	2e-05	-3e-05	-0.00043	0.00014	0.00012	1e-05	0.0001	4
14945	-1e-05	2e-05	-3e-05	-0.00043	0.00014	0.00012	1e-05	0.0001	4
14946	-1e-05	2e-05	-3e-05	-0.00043	0.00014	0.00012	1e-05	0.0001	4
14947	-1e-05	2e-05	-3e-05	-0.00043	0.00014	0.00012	1e-05	0.0001	4
14948	-1e-05	2e-05	-3e-05	-0.00043	0.00014	0.00012	1e-05	0.0001	4
14949	-1e-05	2e-05	-3e-05	-0.00043	0.00014	0.00012	1e-05	0.0001	4
14950	-1e-05	2e-05	-3e-05	-0.00043	0.00014	0.00012	1e-05	0.0001	4
14951	-1e-05	2e-05	-3e-05	-0.00043	0.00014	0.00012	1e-05	0.0001	4
14952	-1e-05	2e-05	-3e-05	-0.00043	0.00014	0.00012	1e-05	0.0001	4
14953	-2e-05	-1e-05	0	-0.00034	-0.00061	-4e-05	-0.00012	-9e-05	4
14954	-1e-05	-2e-05	-3e-05	-9e-05	-0.00011	-0.00015	-9e-05	0.00013	4
14955	-1e-05	-2e-05	-3e-05	-9e-05	-0.00011	-0.00015	-9e-05	0.00013	4
14956	-1e-05	-2e-05	-3e-05	-9e-05	-0.00011	-0.00015	-9e-05	0.00013	4
14957	-1e-05	-2e-05	-3e-05	-9e-05	-0.00011	-0.00015	-9e-05	0.00013	4
14958	-1e-05	-2e-05	-3e-05	-9e-05	-0.00011	-0.00015	-9e-05	0.00013	4
14959	-1e-05	-2e-05	-3e-05	-9e-05	-0.00011	-0.00015	-9e-05	0.00013	4
14960	-1e-05	-2e-05	-3e-05	-9e-05	-0.00011	-0.00015	-9e-05	0.00013	4
14961	-1e-05	-2e-05	-3e-05	-9e-05	-0.00011	-0.00015	-9e-05	0.00013	4
14962	-1e-05	-2e-05	-3e-05	-9e-05	-0.00011	-0.00015	-9e-05	0.00013	4
14963	-1e-05	-2e-05	-3e-05	-9e-05	-0.00011	-0.00015	-9e-05	0.00013	4
14964	-1e-05	-2e-05	-3e-05	-9e-05	-0.00011	-0.00015	-9e-05	0.00013	4
14965	-1e-05	-2e-05	-3e-05	-9e-05	-0.00011	-0.00015	-9e-05	0.00013	4
14966	-1e-05	-2e-05	-3e-05	-9e-05	-0.00011	-0.00015	-9e-05	0.00013	4
14967	-1e-05	-2e-05	-3e-05	-9e-05	-0.00011	-0.00015	-9e-05	0.00013	4
14968	3e-05	0	-2e-05	6e-05	0.00037	-6e-05	6e-05	8e-05	4
14969	-8e-05	-4e-05	-6e-05	-0.00013	-0.00048	-0.00021	-5e-05	-0.00016	4
14970	-8e-05	-4e-05	-6e-05	-0.00013	-0.00048	-0.00021	-5e-05	-0.00016	4
14971	-8e-05	-4e-05	-6e-05	-0.00013	-0.00048	-0.00021	-5e-05	-0.00016	4
14972	-8e-05	-4e-05	-6e-05	-0.00013	-0.00048	-0.00021	-5e-05	-0.00016	4
14973	-8e-05	-4e-05	-6e-05	-0.00013	-0.00048	-0.00021	-5e-05	-0.00016	4
14974	-8e-05	-4e-05	-6e-05	-0.00013	-0.00048	-0.00021	-5e-05	-0.00016	4
14975	-8e-05	-4e-05	-6e-05	-0.00013	-0.00048	-0.00021	-5e-05	-0.00016	4
14976	-8e-05	-4e-05	-6e-05	-0.00013	-0.00048	-0.00021	-5e-05	-0.00016	4
14977	-8e-05	-4e-05	-6e-05	-0.00013	-0.00048	-0.00021	-5e-05	-0.00016	4
14978	-8e-05	-4e-05	-6e-05	-0.00013	-0.00048	-0.00021	-5e-05	-0.00016	4
14979	-8e-05	-4e-05	-6e-05	-0.00013	-0.00048	-0.00021	-5e-05	-0.00016	4
14980	-8e-05	-4e-05	-6e-05	-0.00013	-0.00048	-0.00021	-5e-05	-0.00016	4
14981	-8e-05	-4e-05	-6e-05	-0.00013	-0.00048	-0.00021	-5e-05	-0.00016	4
14982	0.00014	0.00014	0.00021	0.00038	0.00045	0.00028	0.0001	0.00024	4
14983	0.00014	0.00014	0.00021	0.00038	0.00045	0.00028	0.0001	0.00024	4
14984	0.00014	0.00014	0.00021	0.00038	0.00045	0.00028	0.0001	0.00024	4
14985	0.00014	0.00014	0.00021	0.00038	0.00045	0.00028	0.0001	0.00024	4
14986	0.00014	0.00014	0.00021	0.00038	0.00045	0.00028	0.0001	0.00024	4
14988	0.00014	0.00014	0.00021	0.00038	0.00045	0.00028	0.0001	0.00024	4
14989	-8e-05	-5e-05	-2e-05	0.00052	0.00057	0.00026	0.0001	0	4
14990	-8e-05	-5e-05	-2e-05	0.00052	0.00057	0.00026	0.0001	0	4
14991	-8e-05	-5e-05	-2e-05	0.00052	0.00057	0.00026	0.0001	0	4
14992	-8e-05	-5e-05	-2e-05	0.00052	0.00057	0.00026	0.0001	0	4
14993	-8e-05	-5e-05	-2e-05	0.00052	0.00057	0.00026	0.0001	0	4
14994	-8e-05	-5e-05	-2e-05	0.00052	0.00057	0.00026	0.0001	0	4
14995	-8e-05	-5e-05	-2e-05	0.00052	0.00057	0.00026	0.0001	0	4
14996	-8e-05	-5e-05	-2e-05	0.00052	0.00057	0.00026	0.0001	0	4
14997	-8e-05	-5e-05	-2e-05	0.00052	0.00057	0.00026	0.0001	0	4
14998	-8e-05	-5e-05	-2e-05	0.00052	0.00057	0.00026	0.0001	0	4
14999	-8e-05	-5e-05	-2e-05	0.00052	0.00057	0.00026	0.0001	0	4
15000	-8e-05	-5e-05	-2e-05	0.00052	0.00057	0.00026	0.0001	0	4
15001	-8e-05	-5e-05	-2e-05	0.00052	0.00057	0.00026	0.0001	0	4
15002	-8e-05	-5e-05	-2e-05	0.00052	0.00057	0.00026	0.0001	0	4
15003	-8e-05	-5e-05	-2e-05	0.00052	0.00057	0.00026	0.0001	0	4
15004	-8e-05	-5e-05	-2e-05	0.00052	0.00057	0.00026	0.0001	0	4
15005	-1e-05	-1e-05	-3e-05	0.00012	0.00088	0.00018	5e-05	7e-05	4
15006	-1e-05	-1e-05	-3e-05	0.00012	0.00088	0.00018	5e-05	7e-05	4
15007	0.00011	0.00012	0.00019	0.00028	0.00068	0.00047	0.00028	3e-05	4
15008	0.00011	0.00012	0.00019	0.00028	0.00068	0.00047	0.00028	3e-05	4
15009	0.00011	0.00012	0.00019	0.00028	0.00068	0.00047	0.00028	3e-05	4
15010	0.00011	0.00012	0.00019	0.00028	0.00068	0.00047	0.00028	3e-05	4
15011	0.00011	0.00012	0.00019	0.00028	0.00068	0.00047	0.00028	3e-05	4
15012	0.00011	0.00012	0.00019	0.00028	0.00068	0.00047	0.00028	3e-05	4
15013	0.00011	0.00012	0.00019	0.00028	0.00068	0.00047	0.00028	3e-05	4
15014	0.00011	0.00012	0.00019	0.00028	0.00068	0.00047	0.00028	3e-05	4
15015	0.00011	0.00012	0.00019	0.00028	0.00068	0.00047	0.00028	3e-05	4
15016	0.00011	0.00012	0.00019	0.00028	0.00068	0.00047	0.00028	3e-05	4
15017	0.00011	0.00012	0.00019	0.00028	0.00068	0.00047	0.00028	3e-05	4
15018	0.00011	0.00012	0.00019	0.00028	0.00068	0.00047	0.00028	3e-05	4
15019	0.00011	0.00012	0.00019	0.00028	0.00068	0.00047	0.00028	3e-05	4
15020	0.00011	0.00012	0.00019	0.00028	0.00068	0.00047	0.00028	3e-05	4
15021	0.00011	0.00012	0.00019	0.00028	0.00068	0.00047	0.00028	3e-05	4
15022	0.00011	0.00012	0.00019	0.00028	0.00068	0.00047	0.00028	3e-05	4
15023	0.00011	0.00012	0.00019	0.00028	0.00068	0.00047	0.00028	3e-05	4
15024	0.00011	0.00012	0.00019	0.00028	0.00068	0.00047	0.00028	3e-05	4
15025	0.00011	0.00012	0.00019	0.00028	0.00068	0.00047	0.00028	3e-05	4
15026	0.00011	0.00012	0.00019	0.00028	0.00068	0.00047	0.00028	3e-05	4
15027	0.00011	0.00012	0.00019	0.00028	0.00068	0.00047	0.00028	3e-05	4
15028	1e-05	0	2e-05	0.00026	-3e-05	3e-05	2e-05	3e-05	4
15029	1e-05	0	2e-05	0.00026	-3e-05	3e-05	2e-05	3e-05	4
15030	-6e-05	-7e-05	-0.00011	-0.00013	-0.00036	-0.0001	-0.00011	-6e-05	4
15031	-6e-05	-7e-05	-0.00011	-0.00013	-0.00036	-0.0001	-0.00011	-6e-05	4
15033	-6e-05	-7e-05	-0.00011	-0.00013	-0.00036	-0.0001	-0.00011	-6e-05	4
15034	-6e-05	-7e-05	-0.00011	-0.00013	-0.00036	-0.0001	-0.00011	-6e-05	4
15035	-6e-05	-7e-05	-0.00011	-0.00013	-0.00036	-0.0001	-0.00011	-6e-05	4
15036	-6e-05	-7e-05	-0.00011	-0.00013	-0.00036	-0.0001	-0.00011	-6e-05	4
15038	-6e-05	-7e-05	-0.00011	-0.00013	-0.00036	-0.0001	-0.00011	-6e-05	4
15039	-6e-05	-7e-05	-0.00011	-0.00013	-0.00036	-0.0001	-0.00011	-6e-05	4
15040	-6e-05	-7e-05	-0.00011	-0.00013	-0.00036	-0.0001	-0.00011	-6e-05	4
15041	-6e-05	-7e-05	-0.00011	-0.00013	-0.00036	-0.0001	-0.00011	-6e-05	4
15042	-1e-05	-1e-05	1e-05	0.00012	-6e-05	3e-05	4e-05	-3e-05	4
15043	-1e-05	-1e-05	1e-05	0.00012	-6e-05	3e-05	4e-05	-3e-05	4
15044	-1e-05	-1e-05	1e-05	0.00012	-6e-05	3e-05	4e-05	-3e-05	4
15045	-1e-05	-1e-05	1e-05	0.00012	-6e-05	3e-05	4e-05	-3e-05	4
15046	-1e-05	-1e-05	1e-05	0.00012	-6e-05	3e-05	4e-05	-3e-05	4
15047	-1e-05	-1e-05	1e-05	0.00012	-6e-05	3e-05	4e-05	-3e-05	4
15048	-1e-05	-1e-05	1e-05	0.00012	-6e-05	3e-05	4e-05	-3e-05	4
15049	1e-05	0	-3e-05	-0.00022	-0.00036	-0.0002	-9e-05	-9e-05	4
15050	1e-05	0	-3e-05	-0.00022	-0.00036	-0.0002	-9e-05	-9e-05	4
15051	1e-05	0	-3e-05	-0.00022	-0.00036	-0.0002	-9e-05	-9e-05	4
15052	1e-05	0	-3e-05	-0.00022	-0.00036	-0.0002	-9e-05	-9e-05	4
15053	1e-05	0	-3e-05	-0.00022	-0.00036	-0.0002	-9e-05	-9e-05	4
15054	1e-05	0	-3e-05	-0.00022	-0.00036	-0.0002	-9e-05	-9e-05	4
15055	1e-05	0	-3e-05	-0.00022	-0.00036	-0.0002	-9e-05	-9e-05	4
15056	1e-05	0	-3e-05	-0.00022	-0.00036	-0.0002	-9e-05	-9e-05	4
15057	1e-05	0	-3e-05	-0.00022	-0.00036	-0.0002	-9e-05	-9e-05	4
15058	1e-05	0	-3e-05	-0.00022	-0.00036	-0.0002	-9e-05	-9e-05	4
15059	1e-05	0	-3e-05	-0.00022	-0.00036	-0.0002	-9e-05	-9e-05	4
15060	1e-05	0	-3e-05	-0.00022	-0.00036	-0.0002	-9e-05	-9e-05	4
15061	1e-05	0	-3e-05	-0.00022	-0.00036	-0.0002	-9e-05	-9e-05	4
15062	1e-05	0	-3e-05	-0.00022	-0.00036	-0.0002	-9e-05	-9e-05	4
15063	1e-05	0	-3e-05	-0.00022	-0.00036	-0.0002	-9e-05	-9e-05	4
15064	1e-05	0	-3e-05	-0.00022	-0.00036	-0.0002	-9e-05	-9e-05	4
15065	-0.00013	-7e-05	-0.00013	-0.00029	-0.0004	-0.00015	-6e-05	-2e-05	4
15066	-0.00013	-7e-05	-0.00013	-0.00029	-0.0004	-0.00015	-6e-05	-2e-05	4
15067	2e-05	-2e-05	-3e-05	-8e-05	-6e-05	6e-05	6e-05	9e-05	4
15068	2e-05	-2e-05	-3e-05	-8e-05	-6e-05	6e-05	6e-05	9e-05	4
15069	2e-05	-2e-05	-3e-05	-8e-05	-6e-05	6e-05	6e-05	9e-05	4
15070	2e-05	-2e-05	-3e-05	-8e-05	-6e-05	6e-05	6e-05	9e-05	4
15071	2e-05	-2e-05	-3e-05	-8e-05	-6e-05	6e-05	6e-05	9e-05	4
15072	2e-05	-2e-05	-3e-05	-8e-05	-6e-05	6e-05	6e-05	9e-05	4
15073	2e-05	-2e-05	-3e-05	-8e-05	-6e-05	6e-05	6e-05	9e-05	4
15074	2e-05	-2e-05	-3e-05	-8e-05	-6e-05	6e-05	6e-05	9e-05	4
15075	2e-05	-2e-05	-3e-05	-8e-05	-6e-05	6e-05	6e-05	9e-05	4
15076	2e-05	-2e-05	-3e-05	-8e-05	-6e-05	6e-05	6e-05	9e-05	4
15077	2e-05	-2e-05	-3e-05	-8e-05	-6e-05	6e-05	6e-05	9e-05	4
15078	2e-05	-2e-05	-3e-05	-8e-05	-6e-05	6e-05	6e-05	9e-05	4
15079	2e-05	-2e-05	-3e-05	-8e-05	-6e-05	6e-05	6e-05	9e-05	4
15080	2e-05	-2e-05	-3e-05	-8e-05	-6e-05	6e-05	6e-05	9e-05	4
15081	2e-05	-2e-05	-3e-05	-8e-05	-6e-05	6e-05	6e-05	9e-05	4
15082	2e-05	-2e-05	-3e-05	-8e-05	-6e-05	6e-05	6e-05	9e-05	4
15083	2e-05	-2e-05	-3e-05	-8e-05	-6e-05	6e-05	6e-05	9e-05	4
15084	2e-05	-2e-05	-3e-05	-8e-05	-6e-05	6e-05	6e-05	9e-05	4
15085	2e-05	-2e-05	-3e-05	-8e-05	-6e-05	6e-05	6e-05	9e-05	4
15086	2e-05	-2e-05	-3e-05	-8e-05	-6e-05	6e-05	6e-05	9e-05	4
15088	6e-05	5e-05	4e-05	2e-05	0.00052	0.00029	0.00012	3e-05	4
15089	-6e-05	-6e-05	-5e-05	-0.00013	-0.00011	-0.00014	-0.00011	-7e-05	4
15090	-6e-05	-6e-05	-5e-05	-0.00013	-0.00011	-0.00014	-0.00011	-7e-05	4
15091	-6e-05	-6e-05	-5e-05	-0.00013	-0.00011	-0.00014	-0.00011	-7e-05	4
15092	-6e-05	-6e-05	-5e-05	-0.00013	-0.00011	-0.00014	-0.00011	-7e-05	4
15093	-6e-05	-6e-05	-5e-05	-0.00013	-0.00011	-0.00014	-0.00011	-7e-05	4
15094	-6e-05	-6e-05	-5e-05	-0.00013	-0.00011	-0.00014	-0.00011	-7e-05	4
15095	-6e-05	-6e-05	-5e-05	-0.00013	-0.00011	-0.00014	-0.00011	-7e-05	4
15096	-6e-05	-6e-05	-5e-05	-0.00013	-0.00011	-0.00014	-0.00011	-7e-05	4
15097	-6e-05	-6e-05	-5e-05	-0.00013	-0.00011	-0.00014	-0.00011	-7e-05	4
15098	-6e-05	-6e-05	-5e-05	-0.00013	-0.00011	-0.00014	-0.00011	-7e-05	4
15099	-6e-05	-6e-05	-5e-05	-0.00013	-0.00011	-0.00014	-0.00011	-7e-05	4
15100	-6e-05	-6e-05	-5e-05	-0.00013	-0.00011	-0.00014	-0.00011	-7e-05	4
15101	-6e-05	-6e-05	-5e-05	-0.00013	-0.00011	-0.00014	-0.00011	-7e-05	4
15102	4e-05	0	1e-05	0.00029	0.00015	6e-05	-0.00019	0	4
15103	4e-05	0	1e-05	0.00029	0.00015	6e-05	-0.00019	0	4
15104	4e-05	0	1e-05	0.00029	0.00015	6e-05	-0.00019	0	4
15105	4e-05	0	1e-05	0.00029	0.00015	6e-05	-0.00019	0	4
15106	4e-05	0	1e-05	0.00029	0.00015	6e-05	-0.00019	0	4
15107	4e-05	0	1e-05	0.00029	0.00015	6e-05	-0.00019	0	4
15108	4e-05	0	1e-05	0.00029	0.00015	6e-05	-0.00019	0	4
15109	0.00012	8e-05	9e-05	0.00071	0.00057	9e-05	0.00011	0.00011	4
15110	0.00012	8e-05	9e-05	0.00071	0.00057	9e-05	0.00011	0.00011	4
15111	0.00012	8e-05	9e-05	0.00071	0.00057	9e-05	0.00011	0.00011	4
15112	0.00012	8e-05	9e-05	0.00071	0.00057	9e-05	0.00011	0.00011	4
15113	0.00012	8e-05	9e-05	0.00071	0.00057	9e-05	0.00011	0.00011	4
15114	0.00012	8e-05	9e-05	0.00071	0.00057	9e-05	0.00011	0.00011	4
15115	0.00012	8e-05	9e-05	0.00071	0.00057	9e-05	0.00011	0.00011	4
15116	0.00012	8e-05	9e-05	0.00071	0.00057	9e-05	0.00011	0.00011	4
15117	0.00012	8e-05	9e-05	0.00071	0.00057	9e-05	0.00011	0.00011	4
15118	0.00012	8e-05	9e-05	0.00071	0.00057	9e-05	0.00011	0.00011	4
15119	0.00012	8e-05	9e-05	0.00071	0.00057	9e-05	0.00011	0.00011	4
15120	0.00012	8e-05	9e-05	0.00071	0.00057	9e-05	0.00011	0.00011	4
15121	0.00012	8e-05	9e-05	0.00071	0.00057	9e-05	0.00011	0.00011	4
15122	0.00012	8e-05	9e-05	0.00071	0.00057	9e-05	0.00011	0.00011	4
15123	0.00012	8e-05	9e-05	0.00071	0.00057	9e-05	0.00011	0.00011	4
15124	0.00012	8e-05	9e-05	0.00071	0.00057	9e-05	0.00011	0.00011	4
15125	-3e-05	-5e-05	-5e-05	-0.00023	-0.00014	-0.00018	-0.00013	-8e-05	4
15126	-3e-05	-5e-05	-5e-05	-0.00023	-0.00014	-0.00018	-0.00013	-8e-05	4
15127	-6e-05	-8e-05	-6e-05	6e-05	-0.00014	-0.00014	-6e-05	-7e-05	4
15128	-6e-05	-8e-05	-6e-05	6e-05	-0.00014	-0.00014	-6e-05	-7e-05	4
15129	-6e-05	-8e-05	-6e-05	6e-05	-0.00014	-0.00014	-6e-05	-7e-05	4
15130	-6e-05	-8e-05	-6e-05	6e-05	-0.00014	-0.00014	-6e-05	-7e-05	4
15131	-6e-05	-8e-05	-6e-05	6e-05	-0.00014	-0.00014	-6e-05	-7e-05	4
15132	-6e-05	-8e-05	-6e-05	6e-05	-0.00014	-0.00014	-6e-05	-7e-05	4
15133	-6e-05	-8e-05	-6e-05	6e-05	-0.00014	-0.00014	-6e-05	-7e-05	4
15134	-6e-05	-8e-05	-6e-05	6e-05	-0.00014	-0.00014	-6e-05	-7e-05	4
15135	-6e-05	-8e-05	-6e-05	6e-05	-0.00014	-0.00014	-6e-05	-7e-05	4
15136	-6e-05	-8e-05	-6e-05	6e-05	-0.00014	-0.00014	-6e-05	-7e-05	4
15138	-6e-05	-8e-05	-6e-05	6e-05	-0.00014	-0.00014	-6e-05	-7e-05	4
15139	-6e-05	-8e-05	-6e-05	6e-05	-0.00014	-0.00014	-6e-05	-7e-05	4
15140	-6e-05	-8e-05	-6e-05	6e-05	-0.00014	-0.00014	-6e-05	-7e-05	4
15141	-6e-05	-8e-05	-6e-05	6e-05	-0.00014	-0.00014	-6e-05	-7e-05	4
15142	-6e-05	-8e-05	-6e-05	6e-05	-0.00014	-0.00014	-6e-05	-7e-05	4
15143	-6e-05	-8e-05	-6e-05	6e-05	-0.00014	-0.00014	-6e-05	-7e-05	4
15144	-6e-05	-8e-05	-6e-05	6e-05	-0.00014	-0.00014	-6e-05	-7e-05	4
15145	-6e-05	-8e-05	-6e-05	6e-05	-0.00014	-0.00014	-6e-05	-7e-05	4
15146	-6e-05	-8e-05	-6e-05	6e-05	-0.00014	-0.00014	-6e-05	-7e-05	4
15147	-6e-05	-8e-05	-6e-05	6e-05	-0.00014	-0.00014	-6e-05	-7e-05	4
15148	-1e-05	-2e-05	4e-05	-3e-05	-0.0002	-5e-05	0.00013	-1e-05	4
15149	-2e-05	2e-05	3e-05	0.00013	0.00013	9e-05	-1e-05	-7e-05	4
15150	-2e-05	2e-05	3e-05	0.00013	0.00013	9e-05	-1e-05	-7e-05	4
15151	-2e-05	2e-05	3e-05	0.00013	0.00013	9e-05	-1e-05	-7e-05	4
15152	-2e-05	2e-05	3e-05	0.00013	0.00013	9e-05	-1e-05	-7e-05	4
15153	-2e-05	2e-05	3e-05	0.00013	0.00013	9e-05	-1e-05	-7e-05	4
15154	-2e-05	2e-05	3e-05	0.00013	0.00013	9e-05	-1e-05	-7e-05	4
15155	-2e-05	2e-05	3e-05	0.00013	0.00013	9e-05	-1e-05	-7e-05	4
15156	-2e-05	2e-05	3e-05	0.00013	0.00013	9e-05	-1e-05	-7e-05	4
15157	-2e-05	2e-05	3e-05	0.00013	0.00013	9e-05	-1e-05	-7e-05	4
15158	-2e-05	2e-05	3e-05	0.00013	0.00013	9e-05	-1e-05	-7e-05	4
15159	-2e-05	2e-05	3e-05	0.00013	0.00013	9e-05	-1e-05	-7e-05	4
15160	-2e-05	2e-05	3e-05	0.00013	0.00013	9e-05	-1e-05	-7e-05	4
15161	-2e-05	2e-05	3e-05	0.00013	0.00013	9e-05	-1e-05	-7e-05	4
15162	-2e-05	-4e-05	-7e-05	-0.0001	0.00019	-2e-05	-9e-05	6e-05	4
15163	-3e-05	-4e-05	-6e-05	-0.00048	-0.00105	-0.00033	-0.0001	-7e-05	4
15164	-3e-05	-4e-05	-6e-05	-0.00048	-0.00105	-0.00033	-0.0001	-7e-05	4
15165	-3e-05	-4e-05	-6e-05	-0.00048	-0.00105	-0.00033	-0.0001	-7e-05	4
15166	-3e-05	-4e-05	-6e-05	-0.00048	-0.00105	-0.00033	-0.0001	-7e-05	4
15167	-3e-05	-4e-05	-6e-05	-0.00048	-0.00105	-0.00033	-0.0001	-7e-05	4
15168	-3e-05	-4e-05	-6e-05	-0.00048	-0.00105	-0.00033	-0.0001	-7e-05	4
15169	-6e-05	-4e-05	-5e-05	0.00016	-0.00056	-0.00024	-0.00011	-2e-05	4
15170	-6e-05	-4e-05	-5e-05	0.00016	-0.00056	-0.00024	-0.00011	-2e-05	4
15171	-6e-05	-4e-05	-5e-05	0.00016	-0.00056	-0.00024	-0.00011	-2e-05	4
15172	-6e-05	-4e-05	-5e-05	0.00016	-0.00056	-0.00024	-0.00011	-2e-05	4
15173	-6e-05	-4e-05	-5e-05	0.00016	-0.00056	-0.00024	-0.00011	-2e-05	4
15174	-6e-05	-4e-05	-5e-05	0.00016	-0.00056	-0.00024	-0.00011	-2e-05	4
15175	-6e-05	-4e-05	-5e-05	0.00016	-0.00056	-0.00024	-0.00011	-2e-05	4
15176	-6e-05	-4e-05	-5e-05	0.00016	-0.00056	-0.00024	-0.00011	-2e-05	4
15177	-6e-05	-4e-05	-5e-05	0.00016	-0.00056	-0.00024	-0.00011	-2e-05	4
15178	-6e-05	-4e-05	-5e-05	0.00016	-0.00056	-0.00024	-0.00011	-2e-05	4
15179	-6e-05	-4e-05	-5e-05	0.00016	-0.00056	-0.00024	-0.00011	-2e-05	4
15180	-6e-05	-4e-05	-5e-05	0.00016	-0.00056	-0.00024	-0.00011	-2e-05	4
15181	-6e-05	-4e-05	-5e-05	0.00016	-0.00056	-0.00024	-0.00011	-2e-05	4
15182	-6e-05	-4e-05	-5e-05	0.00016	-0.00056	-0.00024	-0.00011	-2e-05	4
15183	-6e-05	-4e-05	-5e-05	0.00016	-0.00056	-0.00024	-0.00011	-2e-05	4
15184	-6e-05	-4e-05	-5e-05	0.00016	-0.00056	-0.00024	-0.00011	-2e-05	4
15185	-3e-05	-3e-05	-3e-05	0.00023	0.00049	5e-05	0.00013	6e-05	4
15186	-3e-05	-3e-05	-3e-05	0.00023	0.00049	5e-05	0.00013	6e-05	4
15188	0.00012	8e-05	9e-05	-0.00038	0.00023	0.00022	0.00012	8e-05	4
15189	0.00012	8e-05	9e-05	-0.00038	0.00023	0.00022	0.00012	8e-05	4
15190	0.00012	8e-05	9e-05	-0.00038	0.00023	0.00022	0.00012	8e-05	4
15191	0.00012	8e-05	9e-05	-0.00038	0.00023	0.00022	0.00012	8e-05	4
15192	0.00012	8e-05	9e-05	-0.00038	0.00023	0.00022	0.00012	8e-05	4
15193	0.00012	8e-05	9e-05	-0.00038	0.00023	0.00022	0.00012	8e-05	4
15194	0.00012	8e-05	9e-05	-0.00038	0.00023	0.00022	0.00012	8e-05	4
15195	0.00012	8e-05	9e-05	-0.00038	0.00023	0.00022	0.00012	8e-05	4
15196	0.00012	8e-05	9e-05	-0.00038	0.00023	0.00022	0.00012	8e-05	4
15197	0.00012	8e-05	9e-05	-0.00038	0.00023	0.00022	0.00012	8e-05	4
15198	0.00012	8e-05	9e-05	-0.00038	0.00023	0.00022	0.00012	8e-05	4
15199	0.00012	8e-05	9e-05	-0.00038	0.00023	0.00022	0.00012	8e-05	4
15200	0.00012	8e-05	9e-05	-0.00038	0.00023	0.00022	0.00012	8e-05	4
15201	0.00012	8e-05	9e-05	-0.00038	0.00023	0.00022	0.00012	8e-05	4
15202	0.00012	8e-05	9e-05	-0.00038	0.00023	0.00022	0.00012	8e-05	4
15203	0.00012	8e-05	9e-05	-0.00038	0.00023	0.00022	0.00012	8e-05	4
15204	0.00012	8e-05	9e-05	-0.00038	0.00023	0.00022	0.00012	8e-05	4
15205	0.00012	8e-05	9e-05	-0.00038	0.00023	0.00022	0.00012	8e-05	4
15206	0.00012	8e-05	9e-05	-0.00038	0.00023	0.00022	0.00012	8e-05	4
15207	0.00012	8e-05	9e-05	-0.00038	0.00023	0.00022	0.00012	8e-05	4
15208	-5e-05	-3e-05	-8e-05	-0.00011	-0.00063	-0.00021	-0.00016	-0.00013	4
15209	-3e-05	-4e-05	-1e-05	-2e-05	6e-05	-0.00014	-3e-05	-4e-05	4
15210	-3e-05	-4e-05	-1e-05	-2e-05	6e-05	-0.00014	-3e-05	-4e-05	4
15211	-3e-05	-4e-05	-1e-05	-2e-05	6e-05	-0.00014	-3e-05	-4e-05	4
15212	-3e-05	-4e-05	-1e-05	-2e-05	6e-05	-0.00014	-3e-05	-4e-05	4
15213	-3e-05	-4e-05	-1e-05	-2e-05	6e-05	-0.00014	-3e-05	-4e-05	4
15214	-3e-05	-4e-05	-1e-05	-2e-05	6e-05	-0.00014	-3e-05	-4e-05	4
15215	-3e-05	-4e-05	-1e-05	-2e-05	6e-05	-0.00014	-3e-05	-4e-05	4
15216	-3e-05	-4e-05	-1e-05	-2e-05	6e-05	-0.00014	-3e-05	-4e-05	4
15217	-3e-05	-4e-05	-1e-05	-2e-05	6e-05	-0.00014	-3e-05	-4e-05	4
15218	-3e-05	-4e-05	-1e-05	-2e-05	6e-05	-0.00014	-3e-05	-4e-05	4
15219	-3e-05	-4e-05	-1e-05	-2e-05	6e-05	-0.00014	-3e-05	-4e-05	4
15220	-3e-05	-4e-05	-1e-05	-2e-05	6e-05	-0.00014	-3e-05	-4e-05	4
15221	-0.00012	-0.00015	-0.00018	-0.0006	-0.00127	-0.00042	-0.00013	-8e-05	4
15222	3e-05	6e-05	0.0001	0.0005	0.00046	0.00028	0.00022	0.0001	4
15223	3e-05	6e-05	0.0001	0.0005	0.00046	0.00028	0.00022	0.0001	4
15224	3e-05	6e-05	0.0001	0.0005	0.00046	0.00028	0.00022	0.0001	4
15225	3e-05	6e-05	0.0001	0.0005	0.00046	0.00028	0.00022	0.0001	4
15226	3e-05	6e-05	0.0001	0.0005	0.00046	0.00028	0.00022	0.0001	4
15227	3e-05	6e-05	0.0001	0.0005	0.00046	0.00028	0.00022	0.0001	4
15228	3e-05	6e-05	0.0001	0.0005	0.00046	0.00028	0.00022	0.0001	4
15229	3e-05	6e-05	0.0001	0.0005	0.00046	0.00028	0.00022	0.0001	4
15230	-0.0001	0	-1e-05	-0.0001	-9e-05	-3e-05	0.00013	1e-05	4
15231	-0.0001	0	-1e-05	-0.0001	-9e-05	-3e-05	0.00013	1e-05	4
15232	-0.0001	0	-1e-05	-0.0001	-9e-05	-3e-05	0.00013	1e-05	4
15233	-0.0001	0	-1e-05	-0.0001	-9e-05	-3e-05	0.00013	1e-05	4
15234	-0.0001	0	-1e-05	-0.0001	-9e-05	-3e-05	0.00013	1e-05	4
15235	-0.0001	0	-1e-05	-0.0001	-9e-05	-3e-05	0.00013	1e-05	4
15236	-0.0001	0	-1e-05	-0.0001	-9e-05	-3e-05	0.00013	1e-05	4
15238	-0.0001	0	-1e-05	-0.0001	-9e-05	-3e-05	0.00013	1e-05	4
15239	-0.0001	0	-1e-05	-0.0001	-9e-05	-3e-05	0.00013	1e-05	4
15240	-0.0001	0	-1e-05	-0.0001	-9e-05	-3e-05	0.00013	1e-05	4
15241	-0.0001	0	-1e-05	-0.0001	-9e-05	-3e-05	0.00013	1e-05	4
15242	-0.0001	0	-1e-05	-0.0001	-9e-05	-3e-05	0.00013	1e-05	4
15243	-0.0001	0	-1e-05	-0.0001	-9e-05	-3e-05	0.00013	1e-05	4
15244	-0.0001	0	-1e-05	-0.0001	-9e-05	-3e-05	0.00013	1e-05	4
15245	2e-05	3e-05	5e-05	-0.00028	-0.00012	4e-05	2e-05	3e-05	4
15246	2e-05	3e-05	5e-05	-0.00028	-0.00012	4e-05	2e-05	3e-05	4
15247	5e-05	0	1e-05	0.00017	3e-05	1e-05	-5e-05	0.00012	4
15248	5e-05	0	1e-05	0.00017	3e-05	1e-05	-5e-05	0.00012	4
15249	5e-05	0	1e-05	0.00017	3e-05	1e-05	-5e-05	0.00012	4
15250	5e-05	0	1e-05	0.00017	3e-05	1e-05	-5e-05	0.00012	4
15251	5e-05	0	1e-05	0.00017	3e-05	1e-05	-5e-05	0.00012	4
15252	5e-05	0	1e-05	0.00017	3e-05	1e-05	-5e-05	0.00012	4
15253	5e-05	0	1e-05	0.00017	3e-05	1e-05	-5e-05	0.00012	4
15254	5e-05	0	1e-05	0.00017	3e-05	1e-05	-5e-05	0.00012	4
15255	5e-05	0	1e-05	0.00017	3e-05	1e-05	-5e-05	0.00012	4
15256	5e-05	0	1e-05	0.00017	3e-05	1e-05	-5e-05	0.00012	4
15257	5e-05	0	1e-05	0.00017	3e-05	1e-05	-5e-05	0.00012	4
15258	5e-05	0	1e-05	0.00017	3e-05	1e-05	-5e-05	0.00012	4
15259	5e-05	0	1e-05	0.00017	3e-05	1e-05	-5e-05	0.00012	4
15260	5e-05	0	1e-05	0.00017	3e-05	1e-05	-5e-05	0.00012	4
15261	5e-05	0	1e-05	0.00017	3e-05	1e-05	-5e-05	0.00012	4
15262	5e-05	0	1e-05	0.00017	3e-05	1e-05	-5e-05	0.00012	4
15263	5e-05	0	1e-05	0.00017	3e-05	1e-05	-5e-05	0.00012	4
15264	5e-05	0	1e-05	0.00017	3e-05	1e-05	-5e-05	0.00012	4
15265	5e-05	0	1e-05	0.00017	3e-05	1e-05	-5e-05	0.00012	4
15266	5e-05	0	1e-05	0.00017	3e-05	1e-05	-5e-05	0.00012	4
15267	5e-05	0	1e-05	0.00017	3e-05	1e-05	-5e-05	0.00012	4
15268	-4e-05	-9e-05	-9e-05	-0.00047	-0.00013	-0.00011	-0.00011	5e-05	4
15269	-2e-05	-3e-05	0	-7e-05	0.0002	4e-05	-0.0001	-5e-05	4
15270	-2e-05	-3e-05	0	-7e-05	0.0002	4e-05	-0.0001	-5e-05	4
15271	-2e-05	-3e-05	0	-7e-05	0.0002	4e-05	-0.0001	-5e-05	4
15272	-2e-05	-3e-05	0	-7e-05	0.0002	4e-05	-0.0001	-5e-05	4
15273	-2e-05	-3e-05	0	-7e-05	0.0002	4e-05	-0.0001	-5e-05	4
15274	-2e-05	-3e-05	0	-7e-05	0.0002	4e-05	-0.0001	-5e-05	4
15275	-2e-05	-3e-05	0	-7e-05	0.0002	4e-05	-0.0001	-5e-05	4
15276	-2e-05	-3e-05	0	-7e-05	0.0002	4e-05	-0.0001	-5e-05	4
15277	-2e-05	-3e-05	0	-7e-05	0.0002	4e-05	-0.0001	-5e-05	4
15278	-2e-05	-3e-05	0	-7e-05	0.0002	4e-05	-0.0001	-5e-05	4
15279	-2e-05	-3e-05	0	-7e-05	0.0002	4e-05	-0.0001	-5e-05	4
15280	-2e-05	-3e-05	0	-7e-05	0.0002	4e-05	-0.0001	-5e-05	4
15281	2e-05	-1e-05	-9e-05	-3e-05	-0.00011	-0.00017	-5e-05	-9e-05	4
15282	2e-05	-1e-05	-9e-05	-3e-05	-0.00011	-0.00017	-5e-05	-9e-05	4
15283	2e-05	-1e-05	-9e-05	-3e-05	-0.00011	-0.00017	-5e-05	-9e-05	4
15284	2e-05	-1e-05	-9e-05	-3e-05	-0.00011	-0.00017	-5e-05	-9e-05	4
15285	2e-05	-1e-05	-9e-05	-3e-05	-0.00011	-0.00017	-5e-05	-9e-05	4
15286	2e-05	-1e-05	-9e-05	-3e-05	-0.00011	-0.00017	-5e-05	-9e-05	4
15288	2e-05	-1e-05	-9e-05	-3e-05	-0.00011	-0.00017	-5e-05	-9e-05	4
15289	2e-05	-1e-05	-9e-05	-3e-05	-0.00011	-0.00017	-5e-05	-9e-05	4
15290	3e-05	5e-05	3e-05	-1e-05	2e-05	7e-05	3e-05	7e-05	4
15291	3e-05	5e-05	3e-05	-1e-05	2e-05	7e-05	3e-05	7e-05	4
15292	3e-05	5e-05	3e-05	-1e-05	2e-05	7e-05	3e-05	7e-05	4
15293	3e-05	5e-05	3e-05	-1e-05	2e-05	7e-05	3e-05	7e-05	4
15294	3e-05	5e-05	3e-05	-1e-05	2e-05	7e-05	3e-05	7e-05	4
15295	3e-05	5e-05	3e-05	-1e-05	2e-05	7e-05	3e-05	7e-05	4
15296	3e-05	5e-05	3e-05	-1e-05	2e-05	7e-05	3e-05	7e-05	4
15297	3e-05	5e-05	3e-05	-1e-05	2e-05	7e-05	3e-05	7e-05	4
15298	3e-05	5e-05	3e-05	-1e-05	2e-05	7e-05	3e-05	7e-05	4
15299	3e-05	5e-05	3e-05	-1e-05	2e-05	7e-05	3e-05	7e-05	4
15300	3e-05	5e-05	3e-05	-1e-05	2e-05	7e-05	3e-05	7e-05	4
15301	3e-05	5e-05	3e-05	-1e-05	2e-05	7e-05	3e-05	7e-05	4
15302	3e-05	5e-05	3e-05	-1e-05	2e-05	7e-05	3e-05	7e-05	4
15303	3e-05	5e-05	3e-05	-1e-05	2e-05	7e-05	3e-05	7e-05	4
15304	3e-05	5e-05	3e-05	-1e-05	2e-05	7e-05	3e-05	7e-05	4
15305	1e-05	3e-05	4e-05	9e-05	0.00061	0.00032	0.00018	2e-05	4
15306	1e-05	3e-05	4e-05	9e-05	0.00061	0.00032	0.00018	2e-05	4
15307	-4e-05	-5e-05	-0.00011	-0.00025	-0.0005	-0.0002	-0.00014	-8e-05	4
15308	-4e-05	-5e-05	-0.00011	-0.00025	-0.0005	-0.0002	-0.00014	-8e-05	4
15309	-4e-05	-5e-05	-0.00011	-0.00025	-0.0005	-0.0002	-0.00014	-8e-05	4
15310	-4e-05	-5e-05	-0.00011	-0.00025	-0.0005	-0.0002	-0.00014	-8e-05	4
15311	-4e-05	-5e-05	-0.00011	-0.00025	-0.0005	-0.0002	-0.00014	-8e-05	4
15312	-4e-05	-5e-05	-0.00011	-0.00025	-0.0005	-0.0002	-0.00014	-8e-05	4
15313	-4e-05	-5e-05	-0.00011	-0.00025	-0.0005	-0.0002	-0.00014	-8e-05	4
15314	-4e-05	-5e-05	-0.00011	-0.00025	-0.0005	-0.0002	-0.00014	-8e-05	4
15315	-4e-05	-5e-05	-0.00011	-0.00025	-0.0005	-0.0002	-0.00014	-8e-05	4
15316	-4e-05	-5e-05	-0.00011	-0.00025	-0.0005	-0.0002	-0.00014	-8e-05	4
15317	-4e-05	-5e-05	-0.00011	-0.00025	-0.0005	-0.0002	-0.00014	-8e-05	4
15318	-4e-05	-5e-05	-0.00011	-0.00025	-0.0005	-0.0002	-0.00014	-8e-05	4
15319	-4e-05	-5e-05	-0.00011	-0.00025	-0.0005	-0.0002	-0.00014	-8e-05	4
15320	-4e-05	-5e-05	-0.00011	-0.00025	-0.0005	-0.0002	-0.00014	-8e-05	4
15321	-4e-05	-5e-05	-0.00011	-0.00025	-0.0005	-0.0002	-0.00014	-8e-05	4
15322	-4e-05	-5e-05	-0.00011	-0.00025	-0.0005	-0.0002	-0.00014	-8e-05	4
15323	-4e-05	-5e-05	-0.00011	-0.00025	-0.0005	-0.0002	-0.00014	-8e-05	4
15324	-4e-05	-5e-05	-0.00011	-0.00025	-0.0005	-0.0002	-0.00014	-8e-05	4
15325	-4e-05	-5e-05	-0.00011	-0.00025	-0.0005	-0.0002	-0.00014	-8e-05	4
15326	-4e-05	-5e-05	-0.00011	-0.00025	-0.0005	-0.0002	-0.00014	-8e-05	4
15327	-4e-05	-5e-05	-0.00011	-0.00025	-0.0005	-0.0002	-0.00014	-8e-05	4
15328	-2e-05	-3e-05	-4e-05	-0.00027	-0.0001	7e-05	3e-05	-0.00015	4
15329	-2e-05	-3e-05	-4e-05	-0.00027	-0.0001	7e-05	3e-05	-0.00015	4
15330	-1e-05	-5e-05	-4e-05	-0.00013	-0.00059	-0.00014	-3e-05	2e-05	4
15331	-1e-05	-5e-05	-4e-05	-0.00013	-0.00059	-0.00014	-3e-05	2e-05	4
15332	-1e-05	-5e-05	-4e-05	-0.00013	-0.00059	-0.00014	-3e-05	2e-05	4
15333	-1e-05	-5e-05	-4e-05	-0.00013	-0.00059	-0.00014	-3e-05	2e-05	4
15334	-1e-05	-5e-05	-4e-05	-0.00013	-0.00059	-0.00014	-3e-05	2e-05	4
15335	-1e-05	-5e-05	-4e-05	-0.00013	-0.00059	-0.00014	-3e-05	2e-05	4
15336	-1e-05	-5e-05	-4e-05	-0.00013	-0.00059	-0.00014	-3e-05	2e-05	4
15338	-1e-05	-5e-05	-4e-05	-0.00013	-0.00059	-0.00014	-3e-05	2e-05	4
15339	-1e-05	-5e-05	-4e-05	-0.00013	-0.00059	-0.00014	-3e-05	2e-05	4
15340	-1e-05	-5e-05	-4e-05	-0.00013	-0.00059	-0.00014	-3e-05	2e-05	4
15341	-1e-05	2e-05	0	-0.00017	-0.00022	-0.0001	-6e-05	-2e-05	4
15342	-5e-05	-3e-05	-2e-05	0.00067	-0.00041	-0.00036	-0.00014	-4e-05	4
15343	-5e-05	-3e-05	-2e-05	0.00067	-0.00041	-0.00036	-0.00014	-4e-05	4
15344	-5e-05	-3e-05	-2e-05	0.00067	-0.00041	-0.00036	-0.00014	-4e-05	4
15345	-5e-05	-3e-05	-2e-05	0.00067	-0.00041	-0.00036	-0.00014	-4e-05	4
15346	-5e-05	-3e-05	-2e-05	0.00067	-0.00041	-0.00036	-0.00014	-4e-05	4
15347	-5e-05	-3e-05	-2e-05	0.00067	-0.00041	-0.00036	-0.00014	-4e-05	4
15348	-5e-05	-3e-05	-2e-05	0.00067	-0.00041	-0.00036	-0.00014	-4e-05	4
15349	-5e-05	-3e-05	-2e-05	0.00067	-0.00041	-0.00036	-0.00014	-4e-05	4
15350	-5e-05	-3e-05	-2e-05	0.00067	-0.00041	-0.00036	-0.00014	-4e-05	4
15351	-4e-05	-4e-05	-3e-05	0.00015	-0.0002	-6e-05	5e-05	-9e-05	4
15352	-4e-05	-4e-05	-3e-05	0.00015	-0.0002	-6e-05	5e-05	-9e-05	4
15353	-4e-05	-4e-05	-3e-05	0.00015	-0.0002	-6e-05	5e-05	-9e-05	4
15354	-4e-05	-4e-05	-3e-05	0.00015	-0.0002	-6e-05	5e-05	-9e-05	4
15355	-4e-05	-4e-05	-3e-05	0.00015	-0.0002	-6e-05	5e-05	-9e-05	4
15356	-4e-05	-4e-05	-3e-05	0.00015	-0.0002	-6e-05	5e-05	-9e-05	4
15357	-4e-05	-4e-05	-3e-05	0.00015	-0.0002	-6e-05	5e-05	-9e-05	4
15358	-4e-05	-4e-05	-3e-05	0.00015	-0.0002	-6e-05	5e-05	-9e-05	4
15359	-4e-05	-4e-05	-3e-05	0.00015	-0.0002	-6e-05	5e-05	-9e-05	4
15360	-4e-05	-4e-05	-3e-05	0.00015	-0.0002	-6e-05	5e-05	-9e-05	4
15361	-4e-05	-4e-05	-3e-05	0.00015	-0.0002	-6e-05	5e-05	-9e-05	4
15362	-4e-05	-4e-05	-3e-05	0.00015	-0.0002	-6e-05	5e-05	-9e-05	4
15363	-4e-05	-4e-05	-3e-05	0.00015	-0.0002	-6e-05	5e-05	-9e-05	4
15364	-4e-05	-4e-05	-3e-05	0.00015	-0.0002	-6e-05	5e-05	-9e-05	4
15365	0	1e-05	0	-0.00014	-8e-05	1e-05	-4e-05	-7e-05	4
15366	0	1e-05	0	-0.00014	-8e-05	1e-05	-4e-05	-7e-05	4
15367	0	1e-05	2e-05	-9e-05	0.0001	6e-05	5e-05	-1e-05	4
15368	0	1e-05	2e-05	-9e-05	0.0001	6e-05	5e-05	-1e-05	4
15369	0	1e-05	2e-05	-9e-05	0.0001	6e-05	5e-05	-1e-05	4
15370	0	1e-05	2e-05	-9e-05	0.0001	6e-05	5e-05	-1e-05	4
15371	0	1e-05	2e-05	-9e-05	0.0001	6e-05	5e-05	-1e-05	4
15372	0	1e-05	2e-05	-9e-05	0.0001	6e-05	5e-05	-1e-05	4
15373	0	1e-05	2e-05	-9e-05	0.0001	6e-05	5e-05	-1e-05	4
15374	0	1e-05	2e-05	-9e-05	0.0001	6e-05	5e-05	-1e-05	4
15375	0	1e-05	2e-05	-9e-05	0.0001	6e-05	5e-05	-1e-05	4
15376	0	1e-05	2e-05	-9e-05	0.0001	6e-05	5e-05	-1e-05	4
15377	0	1e-05	2e-05	-9e-05	0.0001	6e-05	5e-05	-1e-05	4
15378	0	1e-05	2e-05	-9e-05	0.0001	6e-05	5e-05	-1e-05	4
15379	0	1e-05	2e-05	-9e-05	0.0001	6e-05	5e-05	-1e-05	4
15380	0	1e-05	2e-05	-9e-05	0.0001	6e-05	5e-05	-1e-05	4
15381	0	1e-05	2e-05	-9e-05	0.0001	6e-05	5e-05	-1e-05	4
15382	0	1e-05	2e-05	-9e-05	0.0001	6e-05	5e-05	-1e-05	4
15383	0	1e-05	2e-05	-9e-05	0.0001	6e-05	5e-05	-1e-05	4
15385	0	1e-05	2e-05	-9e-05	0.0001	6e-05	5e-05	-1e-05	4
15386	0	1e-05	2e-05	-9e-05	0.0001	6e-05	5e-05	-1e-05	4
15388	2e-05	0	-2e-05	-0.0004	-0.00037	2e-05	1e-05	0	4
15389	1e-05	-1e-05	-5e-05	-0.00019	-0.00013	-4e-05	-4e-05	0	4
15390	1e-05	-1e-05	-5e-05	-0.00019	-0.00013	-4e-05	-4e-05	0	4
15391	1e-05	-1e-05	-5e-05	-0.00019	-0.00013	-4e-05	-4e-05	0	4
15392	1e-05	-1e-05	-5e-05	-0.00019	-0.00013	-4e-05	-4e-05	0	4
15393	1e-05	-1e-05	-5e-05	-0.00019	-0.00013	-4e-05	-4e-05	0	4
15394	1e-05	-1e-05	-5e-05	-0.00019	-0.00013	-4e-05	-4e-05	0	4
15395	1e-05	-1e-05	-5e-05	-0.00019	-0.00013	-4e-05	-4e-05	0	4
15396	1e-05	-1e-05	-5e-05	-0.00019	-0.00013	-4e-05	-4e-05	0	4
15397	1e-05	-1e-05	-5e-05	-0.00019	-0.00013	-4e-05	-4e-05	0	4
15398	1e-05	-1e-05	-5e-05	-0.00019	-0.00013	-4e-05	-4e-05	0	4
15399	1e-05	-1e-05	-5e-05	-0.00019	-0.00013	-4e-05	-4e-05	0	4
15400	1e-05	-1e-05	-5e-05	-0.00019	-0.00013	-4e-05	-4e-05	0	4
15401	0.00012	0.00016	0.0003	0.00035	0.0001	0.00024	0.00018	6e-05	4
15403	0.00012	0.00016	0.0003	0.00035	0.0001	0.00024	0.00018	6e-05	4
15404	0.00012	0.00016	0.0003	0.00035	0.0001	0.00024	0.00018	6e-05	4
15405	0.00012	0.00016	0.0003	0.00035	0.0001	0.00024	0.00018	6e-05	4
15406	0.00012	0.00016	0.0003	0.00035	0.0001	0.00024	0.00018	6e-05	4
15407	0.00012	0.00016	0.0003	0.00035	0.0001	0.00024	0.00018	6e-05	4
15408	0.00012	0.00016	0.0003	0.00035	0.0001	0.00024	0.00018	6e-05	4
15409	0.00012	0.00016	0.0003	0.00035	0.0001	0.00024	0.00018	6e-05	4
15410	-4e-05	-7e-05	-9e-05	-0.00035	-0.00027	-8e-05	-0.00013	-3e-05	4
15411	-4e-05	-7e-05	-9e-05	-0.00035	-0.00027	-8e-05	-0.00013	-3e-05	4
15412	-4e-05	-7e-05	-9e-05	-0.00035	-0.00027	-8e-05	-0.00013	-3e-05	4
15413	-4e-05	-7e-05	-9e-05	-0.00035	-0.00027	-8e-05	-0.00013	-3e-05	4
15414	-4e-05	-7e-05	-9e-05	-0.00035	-0.00027	-8e-05	-0.00013	-3e-05	4
15415	-4e-05	-7e-05	-9e-05	-0.00035	-0.00027	-8e-05	-0.00013	-3e-05	4
15416	-4e-05	-7e-05	-9e-05	-0.00035	-0.00027	-8e-05	-0.00013	-3e-05	4
15417	-4e-05	-7e-05	-9e-05	-0.00035	-0.00027	-8e-05	-0.00013	-3e-05	4
15418	-4e-05	-7e-05	-9e-05	-0.00035	-0.00027	-8e-05	-0.00013	-3e-05	4
15419	-4e-05	-7e-05	-9e-05	-0.00035	-0.00027	-8e-05	-0.00013	-3e-05	4
15420	-4e-05	-7e-05	-9e-05	-0.00035	-0.00027	-8e-05	-0.00013	-3e-05	4
15421	-4e-05	-7e-05	-9e-05	-0.00035	-0.00027	-8e-05	-0.00013	-3e-05	4
15422	-4e-05	-7e-05	-9e-05	-0.00035	-0.00027	-8e-05	-0.00013	-3e-05	4
15423	-4e-05	-7e-05	-9e-05	-0.00035	-0.00027	-8e-05	-0.00013	-3e-05	4
15424	-4e-05	-7e-05	-9e-05	-0.00035	-0.00027	-8e-05	-0.00013	-3e-05	4
15425	-4e-05	-7e-05	-9e-05	-0.00035	-0.00027	-8e-05	-0.00013	-3e-05	4
15426	-4e-05	-7e-05	-9e-05	-0.00035	-0.00027	-8e-05	-0.00013	-3e-05	4
15427	-4e-05	-7e-05	-9e-05	-0.00035	-0.00027	-8e-05	-0.00013	-3e-05	4
15428	-4e-05	-7e-05	-9e-05	-0.00035	-0.00027	-8e-05	-0.00013	-3e-05	4
15429	-4e-05	-7e-05	-9e-05	-0.00035	-0.00027	-8e-05	-0.00013	-3e-05	4
15430	-4e-05	-7e-05	-9e-05	-0.00035	-0.00027	-8e-05	-0.00013	-3e-05	4
15431	-4e-05	-7e-05	-9e-05	-0.00035	-0.00027	-8e-05	-0.00013	-3e-05	4
15432	-4e-05	-7e-05	-9e-05	-0.00035	-0.00027	-8e-05	-0.00013	-3e-05	4
15433	-6e-05	-0.0001	-0.00013	-9e-05	-0.00041	-0.00032	-0.00024	-3e-05	4
15434	0	2e-05	4e-05	0.00017	0.00018	0	-1e-05	-2e-05	4
15435	0	2e-05	4e-05	0.00017	0.00018	0	-1e-05	-2e-05	4
15436	0	2e-05	4e-05	0.00017	0.00018	0	-1e-05	-2e-05	4
15438	0	2e-05	4e-05	0.00017	0.00018	0	-1e-05	-2e-05	4
15439	0	2e-05	4e-05	0.00017	0.00018	0	-1e-05	-2e-05	4
15440	0	2e-05	4e-05	0.00017	0.00018	0	-1e-05	-2e-05	4
15441	0	2e-05	4e-05	0.00017	0.00018	0	-1e-05	-2e-05	4
15442	0	2e-05	4e-05	0.00017	0.00018	0	-1e-05	-2e-05	4
15443	0	2e-05	4e-05	0.00017	0.00018	0	-1e-05	-2e-05	4
15444	0	2e-05	4e-05	0.00017	0.00018	0	-1e-05	-2e-05	4
15445	0	2e-05	4e-05	0.00017	0.00018	0	-1e-05	-2e-05	4
15446	0	2e-05	4e-05	0.00017	0.00018	0	-1e-05	-2e-05	4
15447	0	2e-05	4e-05	0.00017	0.00018	0	-1e-05	-2e-05	4
15448	-5e-05	-2e-05	-1e-05	0.00052	0.00013	1e-05	-4e-05	0	4
15449	-6e-05	-5e-05	-6e-05	-0.00021	-0.00022	-0.00012	-0.00017	-6e-05	4
15450	-6e-05	-5e-05	-6e-05	-0.00021	-0.00022	-0.00012	-0.00017	-6e-05	4
15451	-6e-05	-5e-05	-6e-05	-0.00021	-0.00022	-0.00012	-0.00017	-6e-05	4
15452	-6e-05	-5e-05	-6e-05	-0.00021	-0.00022	-0.00012	-0.00017	-6e-05	4
15453	-6e-05	-5e-05	-6e-05	-0.00021	-0.00022	-0.00012	-0.00017	-6e-05	4
15454	-6e-05	-5e-05	-6e-05	-0.00021	-0.00022	-0.00012	-0.00017	-6e-05	4
15455	-6e-05	-5e-05	-6e-05	-0.00021	-0.00022	-0.00012	-0.00017	-6e-05	4
15456	-6e-05	-5e-05	-6e-05	-0.00021	-0.00022	-0.00012	-0.00017	-6e-05	4
15457	-6e-05	-5e-05	-6e-05	-0.00021	-0.00022	-0.00012	-0.00017	-6e-05	4
15458	-6e-05	-5e-05	-6e-05	-0.00021	-0.00022	-0.00012	-0.00017	-6e-05	4
15459	-6e-05	-5e-05	-6e-05	-0.00021	-0.00022	-0.00012	-0.00017	-6e-05	4
15460	-6e-05	-5e-05	-6e-05	-0.00021	-0.00022	-0.00012	-0.00017	-6e-05	4
15461	-4e-05	-0.00013	-0.0001	-0.00021	-0.0002	-0.00025	-2e-05	-0.0001	4
15462	0.00019	0.0002	0.00028	0.00062	0.00096	0.00092	0.0003	0.0003	4
15463	0.00019	0.0002	0.00028	0.00062	0.00096	0.00092	0.0003	0.0003	4
15464	0.00019	0.0002	0.00028	0.00062	0.00096	0.00092	0.0003	0.0003	4
15465	0.00019	0.0002	0.00028	0.00062	0.00096	0.00092	0.0003	0.0003	4
15466	0.00019	0.0002	0.00028	0.00062	0.00096	0.00092	0.0003	0.0003	4
15467	0.00019	0.0002	0.00028	0.00062	0.00096	0.00092	0.0003	0.0003	4
15468	0.00019	0.0002	0.00028	0.00062	0.00096	0.00092	0.0003	0.0003	4
15469	0.00019	0.0002	0.00028	0.00062	0.00096	0.00092	0.0003	0.0003	4
15470	-2e-05	-2e-05	1e-05	-2e-05	-0.00079	-0.00017	6e-05	4e-05	4
15471	-2e-05	-2e-05	1e-05	-2e-05	-0.00079	-0.00017	6e-05	4e-05	4
15472	-2e-05	-2e-05	1e-05	-2e-05	-0.00079	-0.00017	6e-05	4e-05	4
15474	-2e-05	-2e-05	1e-05	-2e-05	-0.00079	-0.00017	6e-05	4e-05	4
15475	-2e-05	-2e-05	1e-05	-2e-05	-0.00079	-0.00017	6e-05	4e-05	4
15476	-2e-05	-2e-05	1e-05	-2e-05	-0.00079	-0.00017	6e-05	4e-05	4
15477	-2e-05	-2e-05	1e-05	-2e-05	-0.00079	-0.00017	6e-05	4e-05	4
15478	-2e-05	-2e-05	1e-05	-2e-05	-0.00079	-0.00017	6e-05	4e-05	4
15479	-2e-05	-2e-05	1e-05	-2e-05	-0.00079	-0.00017	6e-05	4e-05	4
15480	-2e-05	-2e-05	1e-05	-2e-05	-0.00079	-0.00017	6e-05	4e-05	4
15481	-2e-05	-2e-05	1e-05	-2e-05	-0.00079	-0.00017	6e-05	4e-05	4
15482	-2e-05	-2e-05	1e-05	-2e-05	-0.00079	-0.00017	6e-05	4e-05	4
15483	-2e-05	-2e-05	1e-05	-2e-05	-0.00079	-0.00017	6e-05	4e-05	4
15484	-2e-05	-2e-05	1e-05	-2e-05	-0.00079	-0.00017	6e-05	4e-05	4
15485	-0.00015	-8e-05	-0.00012	-0.00072	-0.00041	-0.00024	-9e-05	-5e-05	4
15486	-0.00015	-8e-05	-0.00012	-0.00072	-0.00041	-0.00024	-9e-05	-5e-05	4
15488	-3e-05	0	3e-05	0.00024	0.00054	0.00011	2e-05	-8e-05	4
15489	-3e-05	0	3e-05	0.00024	0.00054	0.00011	2e-05	-8e-05	4
15490	-3e-05	0	3e-05	0.00024	0.00054	0.00011	2e-05	-8e-05	4
15491	-3e-05	0	3e-05	0.00024	0.00054	0.00011	2e-05	-8e-05	4
15492	-3e-05	0	3e-05	0.00024	0.00054	0.00011	2e-05	-8e-05	4
15493	-3e-05	0	3e-05	0.00024	0.00054	0.00011	2e-05	-8e-05	4
15494	-3e-05	0	3e-05	0.00024	0.00054	0.00011	2e-05	-8e-05	4
15495	-3e-05	0	3e-05	0.00024	0.00054	0.00011	2e-05	-8e-05	4
15496	-3e-05	0	3e-05	0.00024	0.00054	0.00011	2e-05	-8e-05	4
15497	-3e-05	0	3e-05	0.00024	0.00054	0.00011	2e-05	-8e-05	4
15498	-3e-05	0	3e-05	0.00024	0.00054	0.00011	2e-05	-8e-05	4
15499	-3e-05	0	3e-05	0.00024	0.00054	0.00011	2e-05	-8e-05	4
15500	-3e-05	0	3e-05	0.00024	0.00054	0.00011	2e-05	-8e-05	4
15501	-3e-05	0	3e-05	0.00024	0.00054	0.00011	2e-05	-8e-05	4
15502	-3e-05	0	3e-05	0.00024	0.00054	0.00011	2e-05	-8e-05	4
15503	-3e-05	0	3e-05	0.00024	0.00054	0.00011	2e-05	-8e-05	4
15504	-3e-05	0	3e-05	0.00024	0.00054	0.00011	2e-05	-8e-05	4
15505	-3e-05	0	3e-05	0.00024	0.00054	0.00011	2e-05	-8e-05	4
15506	-3e-05	0	3e-05	0.00024	0.00054	0.00011	2e-05	-8e-05	4
15507	-3e-05	0	3e-05	0.00024	0.00054	0.00011	2e-05	-8e-05	4
15508	-0.0001	-0.00014	-0.00021	-0.00051	-0.00016	-0.00019	-0.00013	-0.00011	4
15509	-6e-05	-4e-05	-2e-05	3e-05	-0.0001	-0.00019	-0.00011	-0.00014	4
15510	-6e-05	-4e-05	-2e-05	3e-05	-0.0001	-0.00019	-0.00011	-0.00014	4
15511	-6e-05	-4e-05	-2e-05	3e-05	-0.0001	-0.00019	-0.00011	-0.00014	4
15512	-6e-05	-4e-05	-2e-05	3e-05	-0.0001	-0.00019	-0.00011	-0.00014	4
15513	-6e-05	-4e-05	-2e-05	3e-05	-0.0001	-0.00019	-0.00011	-0.00014	4
15514	-6e-05	-4e-05	-2e-05	3e-05	-0.0001	-0.00019	-0.00011	-0.00014	4
15515	-6e-05	-4e-05	-2e-05	3e-05	-0.0001	-0.00019	-0.00011	-0.00014	4
15516	-6e-05	-4e-05	-2e-05	3e-05	-0.0001	-0.00019	-0.00011	-0.00014	4
15517	-6e-05	-4e-05	-2e-05	3e-05	-0.0001	-0.00019	-0.00011	-0.00014	4
15518	-6e-05	-4e-05	-2e-05	3e-05	-0.0001	-0.00019	-0.00011	-0.00014	4
15519	-6e-05	-4e-05	-2e-05	3e-05	-0.0001	-0.00019	-0.00011	-0.00014	4
15520	-6e-05	-4e-05	-2e-05	3e-05	-0.0001	-0.00019	-0.00011	-0.00014	4
15521	1e-05	2e-05	1e-05	-0.00022	-9e-05	-0.00015	-8e-05	-0.0001	4
15522	1e-05	2e-05	1e-05	-0.00022	-9e-05	-0.00015	-8e-05	-0.0001	4
15523	1e-05	2e-05	1e-05	-0.00022	-9e-05	-0.00015	-8e-05	-0.0001	4
15524	1e-05	2e-05	1e-05	-0.00022	-9e-05	-0.00015	-8e-05	-0.0001	4
15525	1e-05	2e-05	1e-05	-0.00022	-9e-05	-0.00015	-8e-05	-0.0001	4
15526	1e-05	2e-05	1e-05	-0.00022	-9e-05	-0.00015	-8e-05	-0.0001	4
15527	1e-05	2e-05	1e-05	-0.00022	-9e-05	-0.00015	-8e-05	-0.0001	4
15528	1e-05	2e-05	1e-05	-0.00022	-9e-05	-0.00015	-8e-05	-0.0001	4
15529	1e-05	2e-05	1e-05	-0.00022	-9e-05	-0.00015	-8e-05	-0.0001	4
15530	1e-05	3e-05	-1e-05	-0.00013	0.00041	0.00024	-9e-05	5e-05	4
15532	1e-05	3e-05	-1e-05	-0.00013	0.00041	0.00024	-9e-05	5e-05	4
15533	1e-05	3e-05	-1e-05	-0.00013	0.00041	0.00024	-9e-05	5e-05	4
15534	1e-05	3e-05	-1e-05	-0.00013	0.00041	0.00024	-9e-05	5e-05	4
15535	1e-05	3e-05	-1e-05	-0.00013	0.00041	0.00024	-9e-05	5e-05	4
15536	1e-05	3e-05	-1e-05	-0.00013	0.00041	0.00024	-9e-05	5e-05	4
15538	1e-05	3e-05	-1e-05	-0.00013	0.00041	0.00024	-9e-05	5e-05	4
15539	1e-05	3e-05	-1e-05	-0.00013	0.00041	0.00024	-9e-05	5e-05	4
15540	1e-05	3e-05	-1e-05	-0.00013	0.00041	0.00024	-9e-05	5e-05	4
15541	1e-05	3e-05	-1e-05	-0.00013	0.00041	0.00024	-9e-05	5e-05	4
15542	1e-05	3e-05	-1e-05	-0.00013	0.00041	0.00024	-9e-05	5e-05	4
15543	1e-05	3e-05	-1e-05	-0.00013	0.00041	0.00024	-9e-05	5e-05	4
15544	1e-05	3e-05	-1e-05	-0.00013	0.00041	0.00024	-9e-05	5e-05	4
15545	0	-4e-05	-4e-05	-6e-05	-5e-05	-4e-05	-5e-05	4e-05	4
15546	0	-4e-05	-4e-05	-6e-05	-5e-05	-4e-05	-5e-05	4e-05	4
15547	4e-05	-2e-05	-4e-05	-7e-05	1e-05	0.00012	0.00024	0.00013	4
15549	4e-05	-2e-05	-4e-05	-7e-05	1e-05	0.00012	0.00024	0.00013	4
15550	4e-05	-2e-05	-4e-05	-7e-05	1e-05	0.00012	0.00024	0.00013	4
15551	4e-05	-2e-05	-4e-05	-7e-05	1e-05	0.00012	0.00024	0.00013	4
15552	4e-05	-2e-05	-4e-05	-7e-05	1e-05	0.00012	0.00024	0.00013	4
15553	4e-05	-2e-05	-4e-05	-7e-05	1e-05	0.00012	0.00024	0.00013	4
15554	4e-05	-2e-05	-4e-05	-7e-05	1e-05	0.00012	0.00024	0.00013	4
15555	4e-05	-2e-05	-4e-05	-7e-05	1e-05	0.00012	0.00024	0.00013	4
15556	4e-05	-2e-05	-4e-05	-7e-05	1e-05	0.00012	0.00024	0.00013	4
15557	4e-05	-2e-05	-4e-05	-7e-05	1e-05	0.00012	0.00024	0.00013	4
15558	4e-05	-2e-05	-4e-05	-7e-05	1e-05	0.00012	0.00024	0.00013	4
15559	4e-05	-2e-05	-4e-05	-7e-05	1e-05	0.00012	0.00024	0.00013	4
15560	4e-05	-2e-05	-4e-05	-7e-05	1e-05	0.00012	0.00024	0.00013	4
15561	4e-05	-2e-05	-4e-05	-7e-05	1e-05	0.00012	0.00024	0.00013	4
15562	4e-05	-2e-05	-4e-05	-7e-05	1e-05	0.00012	0.00024	0.00013	4
15563	4e-05	-2e-05	-4e-05	-7e-05	1e-05	0.00012	0.00024	0.00013	4
15564	4e-05	-2e-05	-4e-05	-7e-05	1e-05	0.00012	0.00024	0.00013	4
15565	4e-05	-2e-05	-4e-05	-7e-05	1e-05	0.00012	0.00024	0.00013	4
15566	4e-05	-2e-05	-4e-05	-7e-05	1e-05	0.00012	0.00024	0.00013	4
15567	1e-05	4e-05	4e-05	-0.00024	-0.0003	1e-05	5e-05	-2e-05	4
15568	-2e-05	-9e-05	-0.00015	-0.00046	-0.00013	-0.00016	-9e-05	6e-05	4
15569	-2e-05	-9e-05	-0.00015	-0.00046	-0.00013	-0.00016	-9e-05	6e-05	4
15570	-6e-05	0	-2e-05	0.00021	2e-05	-3e-05	0	-8e-05	4
15571	-6e-05	0	-2e-05	0.00021	2e-05	-3e-05	0	-8e-05	4
15572	-6e-05	0	-2e-05	0.00021	2e-05	-3e-05	0	-8e-05	4
15573	-6e-05	0	-2e-05	0.00021	2e-05	-3e-05	0	-8e-05	4
15574	-6e-05	0	-2e-05	0.00021	2e-05	-3e-05	0	-8e-05	4
15575	-6e-05	0	-2e-05	0.00021	2e-05	-3e-05	0	-8e-05	4
15576	-6e-05	0	-2e-05	0.00021	2e-05	-3e-05	0	-8e-05	4
15577	-6e-05	0	-2e-05	0.00021	2e-05	-3e-05	0	-8e-05	4
15578	-6e-05	0	-2e-05	0.00021	2e-05	-3e-05	0	-8e-05	4
15579	-6e-05	0	-2e-05	0.00021	2e-05	-3e-05	0	-8e-05	4
15580	-6e-05	0	-2e-05	0.00021	2e-05	-3e-05	0	-8e-05	4
15581	0	2e-05	2e-05	-1e-05	0.00035	0.00019	2e-05	-4e-05	4
15582	1e-05	-1e-05	-1e-05	0.00016	-0.00025	-0.00028	-2e-05	-0.00011	4
15583	1e-05	-1e-05	-1e-05	0.00016	-0.00025	-0.00028	-2e-05	-0.00011	4
15584	1e-05	-1e-05	-1e-05	0.00016	-0.00025	-0.00028	-2e-05	-0.00011	4
15585	1e-05	-1e-05	-1e-05	0.00016	-0.00025	-0.00028	-2e-05	-0.00011	4
15586	1e-05	-1e-05	-1e-05	0.00016	-0.00025	-0.00028	-2e-05	-0.00011	4
15588	1e-05	-1e-05	-1e-05	0.00016	-0.00025	-0.00028	-2e-05	-0.00011	4
15589	1e-05	-1e-05	-1e-05	0.00016	-0.00025	-0.00028	-2e-05	-0.00011	4
15590	7e-05	5e-05	6e-05	0.00037	0.0006	0.00014	9e-05	5e-05	4
15591	7e-05	5e-05	6e-05	0.00037	0.0006	0.00014	9e-05	5e-05	4
15592	7e-05	5e-05	6e-05	0.00037	0.0006	0.00014	9e-05	5e-05	4
15593	7e-05	5e-05	6e-05	0.00037	0.0006	0.00014	9e-05	5e-05	4
15594	7e-05	5e-05	6e-05	0.00037	0.0006	0.00014	9e-05	5e-05	4
15595	7e-05	5e-05	6e-05	0.00037	0.0006	0.00014	9e-05	5e-05	4
15596	7e-05	5e-05	6e-05	0.00037	0.0006	0.00014	9e-05	5e-05	4
15597	7e-05	5e-05	6e-05	0.00037	0.0006	0.00014	9e-05	5e-05	4
15598	7e-05	5e-05	6e-05	0.00037	0.0006	0.00014	9e-05	5e-05	4
15599	7e-05	5e-05	6e-05	0.00037	0.0006	0.00014	9e-05	5e-05	4
15600	7e-05	5e-05	6e-05	0.00037	0.0006	0.00014	9e-05	5e-05	4
15601	7e-05	5e-05	6e-05	0.00037	0.0006	0.00014	9e-05	5e-05	4
15602	7e-05	5e-05	6e-05	0.00037	0.0006	0.00014	9e-05	5e-05	4
15603	7e-05	5e-05	6e-05	0.00037	0.0006	0.00014	9e-05	5e-05	4
15604	7e-05	5e-05	6e-05	0.00037	0.0006	0.00014	9e-05	5e-05	4
15605	-6e-05	-4e-05	-7e-05	-5e-05	-0.0001	-7e-05	-0.00024	-0.0001	4
15606	-6e-05	-4e-05	-7e-05	-5e-05	-0.0001	-7e-05	-0.00024	-0.0001	4
15607	-2e-05	-4e-05	-3e-05	4e-05	-0.00019	-0.00017	-8e-05	-4e-05	4
15608	-2e-05	-4e-05	-3e-05	4e-05	-0.00019	-0.00017	-8e-05	-4e-05	4
15609	-2e-05	-4e-05	-3e-05	4e-05	-0.00019	-0.00017	-8e-05	-4e-05	4
15610	-2e-05	-4e-05	-3e-05	4e-05	-0.00019	-0.00017	-8e-05	-4e-05	4
15611	-2e-05	-4e-05	-3e-05	4e-05	-0.00019	-0.00017	-8e-05	-4e-05	4
15612	-2e-05	-4e-05	-3e-05	4e-05	-0.00019	-0.00017	-8e-05	-4e-05	4
15613	-2e-05	-4e-05	-3e-05	4e-05	-0.00019	-0.00017	-8e-05	-4e-05	4
15614	-2e-05	-4e-05	-3e-05	4e-05	-0.00019	-0.00017	-8e-05	-4e-05	4
15615	-2e-05	-4e-05	-3e-05	4e-05	-0.00019	-0.00017	-8e-05	-4e-05	4
15616	-2e-05	-4e-05	-3e-05	4e-05	-0.00019	-0.00017	-8e-05	-4e-05	4
15617	-2e-05	-4e-05	-3e-05	4e-05	-0.00019	-0.00017	-8e-05	-4e-05	4
15618	-2e-05	-4e-05	-3e-05	4e-05	-0.00019	-0.00017	-8e-05	-4e-05	4
15619	-2e-05	-4e-05	-3e-05	4e-05	-0.00019	-0.00017	-8e-05	-4e-05	4
15620	-2e-05	-4e-05	-3e-05	4e-05	-0.00019	-0.00017	-8e-05	-4e-05	4
15621	-2e-05	-4e-05	-3e-05	4e-05	-0.00019	-0.00017	-8e-05	-4e-05	4
15622	-2e-05	-4e-05	-3e-05	4e-05	-0.00019	-0.00017	-8e-05	-4e-05	4
15623	-2e-05	-4e-05	-3e-05	4e-05	-0.00019	-0.00017	-8e-05	-4e-05	4
15624	-2e-05	-4e-05	-3e-05	4e-05	-0.00019	-0.00017	-8e-05	-4e-05	4
15625	-2e-05	-4e-05	-3e-05	4e-05	-0.00019	-0.00017	-8e-05	-4e-05	4
15626	-2e-05	-4e-05	-3e-05	4e-05	-0.00019	-0.00017	-8e-05	-4e-05	4
15627	-2e-05	-4e-05	-3e-05	4e-05	-0.00019	-0.00017	-8e-05	-4e-05	4
15628	-5e-05	-4e-05	3e-05	0.0003	0.00025	1e-05	3e-05	-4e-05	4
15629	0	-2e-05	-6e-05	-0.0005	-0.00016	2e-05	5e-05	5e-05	4
15630	0	-2e-05	-6e-05	-0.0005	-0.00016	2e-05	5e-05	5e-05	4
15631	0	-2e-05	-6e-05	-0.0005	-0.00016	2e-05	5e-05	5e-05	4
15632	0	-2e-05	-6e-05	-0.0005	-0.00016	2e-05	5e-05	5e-05	4
15633	0	-2e-05	-6e-05	-0.0005	-0.00016	2e-05	5e-05	5e-05	4
15634	0	-2e-05	-6e-05	-0.0005	-0.00016	2e-05	5e-05	5e-05	4
15635	0	-2e-05	-6e-05	-0.0005	-0.00016	2e-05	5e-05	5e-05	4
15636	0	-2e-05	-6e-05	-0.0005	-0.00016	2e-05	5e-05	5e-05	4
15638	0	-2e-05	-6e-05	-0.0005	-0.00016	2e-05	5e-05	5e-05	4
15639	0	-2e-05	-6e-05	-0.0005	-0.00016	2e-05	5e-05	5e-05	4
15640	0	-2e-05	-6e-05	-0.0005	-0.00016	2e-05	5e-05	5e-05	4
15641	-4e-05	-6e-05	-0.0001	-0.00011	-0.00081	-0.0002	0	-1e-05	4
15642	-4e-05	-6e-05	-0.0001	-0.00011	-0.00081	-0.0002	0	-1e-05	4
15643	-4e-05	-6e-05	-0.0001	-0.00011	-0.00081	-0.0002	0	-1e-05	4
15644	-4e-05	-6e-05	-0.0001	-0.00011	-0.00081	-0.0002	0	-1e-05	4
15645	-4e-05	-6e-05	-0.0001	-0.00011	-0.00081	-0.0002	0	-1e-05	4
15646	-4e-05	-6e-05	-0.0001	-0.00011	-0.00081	-0.0002	0	-1e-05	4
15647	-4e-05	-6e-05	-0.0001	-0.00011	-0.00081	-0.0002	0	-1e-05	4
15648	-4e-05	-6e-05	-0.0001	-0.00011	-0.00081	-0.0002	0	-1e-05	4
15649	-4e-05	-6e-05	-0.0001	-0.00011	-0.00081	-0.0002	0	-1e-05	4
15650	-3e-05	-3e-05	-4e-05	0.00023	-5e-05	-0.0002	-0.00012	-6e-05	4
15651	-3e-05	-3e-05	-4e-05	0.00023	-5e-05	-0.0002	-0.00012	-6e-05	4
15652	-3e-05	-3e-05	-4e-05	0.00023	-5e-05	-0.0002	-0.00012	-6e-05	4
15653	-3e-05	-3e-05	-4e-05	0.00023	-5e-05	-0.0002	-0.00012	-6e-05	4
15654	-3e-05	-3e-05	-4e-05	0.00023	-5e-05	-0.0002	-0.00012	-6e-05	4
15655	-3e-05	-3e-05	-4e-05	0.00023	-5e-05	-0.0002	-0.00012	-6e-05	4
15656	-3e-05	-3e-05	-4e-05	0.00023	-5e-05	-0.0002	-0.00012	-6e-05	4
15657	-3e-05	-3e-05	-4e-05	0.00023	-5e-05	-0.0002	-0.00012	-6e-05	4
15658	-3e-05	-3e-05	-4e-05	0.00023	-5e-05	-0.0002	-0.00012	-6e-05	4
15659	-3e-05	-3e-05	-4e-05	0.00023	-5e-05	-0.0002	-0.00012	-6e-05	4
15660	-3e-05	-3e-05	-4e-05	0.00023	-5e-05	-0.0002	-0.00012	-6e-05	4
15661	-3e-05	-3e-05	-4e-05	0.00023	-5e-05	-0.0002	-0.00012	-6e-05	4
15662	-3e-05	-3e-05	-4e-05	0.00023	-5e-05	-0.0002	-0.00012	-6e-05	4
15664	-3e-05	-3e-05	-4e-05	0.00023	-5e-05	-0.0002	-0.00012	-6e-05	4
15665	5e-05	8e-05	8e-05	-7e-05	-0.00023	0.00011	0.00011	0	4
15666	5e-05	8e-05	8e-05	-7e-05	-0.00023	0.00011	0.00011	0	4
15667	2e-05	5e-05	0.0001	0.00029	0.00059	0.00027	0.00015	2e-05	4
15668	2e-05	5e-05	0.0001	0.00029	0.00059	0.00027	0.00015	2e-05	4
15669	2e-05	5e-05	0.0001	0.00029	0.00059	0.00027	0.00015	2e-05	4
15670	2e-05	5e-05	0.0001	0.00029	0.00059	0.00027	0.00015	2e-05	4
15671	2e-05	5e-05	0.0001	0.00029	0.00059	0.00027	0.00015	2e-05	4
15672	2e-05	5e-05	0.0001	0.00029	0.00059	0.00027	0.00015	2e-05	4
15673	2e-05	5e-05	0.0001	0.00029	0.00059	0.00027	0.00015	2e-05	4
15674	2e-05	5e-05	0.0001	0.00029	0.00059	0.00027	0.00015	2e-05	4
15675	2e-05	5e-05	0.0001	0.00029	0.00059	0.00027	0.00015	2e-05	4
15676	2e-05	5e-05	0.0001	0.00029	0.00059	0.00027	0.00015	2e-05	4
15677	2e-05	5e-05	0.0001	0.00029	0.00059	0.00027	0.00015	2e-05	4
15678	2e-05	5e-05	0.0001	0.00029	0.00059	0.00027	0.00015	2e-05	4
15679	2e-05	5e-05	0.0001	0.00029	0.00059	0.00027	0.00015	2e-05	4
15680	2e-05	5e-05	0.0001	0.00029	0.00059	0.00027	0.00015	2e-05	4
15681	2e-05	5e-05	0.0001	0.00029	0.00059	0.00027	0.00015	2e-05	4
15682	2e-05	5e-05	0.0001	0.00029	0.00059	0.00027	0.00015	2e-05	4
15683	2e-05	5e-05	0.0001	0.00029	0.00059	0.00027	0.00015	2e-05	4
15684	2e-05	5e-05	0.0001	0.00029	0.00059	0.00027	0.00015	2e-05	4
15685	2e-05	5e-05	0.0001	0.00029	0.00059	0.00027	0.00015	2e-05	4
15686	2e-05	5e-05	0.0001	0.00029	0.00059	0.00027	0.00015	2e-05	4
15689	-1e-05	-1e-05	0	-0.00022	-0.00024	2e-05	8e-05	-9e-05	4
15690	-1e-05	-1e-05	0	-0.00022	-0.00024	2e-05	8e-05	-9e-05	4
15691	-1e-05	-1e-05	0	-0.00022	-0.00024	2e-05	8e-05	-9e-05	4
15692	-1e-05	-1e-05	0	-0.00022	-0.00024	2e-05	8e-05	-9e-05	4
15693	-1e-05	-1e-05	0	-0.00022	-0.00024	2e-05	8e-05	-9e-05	4
15694	-1e-05	-1e-05	0	-0.00022	-0.00024	2e-05	8e-05	-9e-05	4
15695	-1e-05	-1e-05	0	-0.00022	-0.00024	2e-05	8e-05	-9e-05	4
15696	-1e-05	-1e-05	0	-0.00022	-0.00024	2e-05	8e-05	-9e-05	4
15697	-1e-05	-1e-05	0	-0.00022	-0.00024	2e-05	8e-05	-9e-05	4
15698	-1e-05	-1e-05	0	-0.00022	-0.00024	2e-05	8e-05	-9e-05	4
15699	-1e-05	-1e-05	0	-0.00022	-0.00024	2e-05	8e-05	-9e-05	4
15700	-1e-05	-1e-05	0	-0.00022	-0.00024	2e-05	8e-05	-9e-05	4
15701	-1e-05	-1e-05	0	-0.00022	-0.00024	2e-05	8e-05	-9e-05	4
15702	-1e-05	-1e-05	0	-0.00022	-0.00024	2e-05	8e-05	-9e-05	4
15703	-1e-05	-1e-05	0	-0.00022	-0.00024	2e-05	8e-05	-9e-05	4
15704	-1e-05	-1e-05	0	-0.00022	-0.00024	2e-05	8e-05	-9e-05	4
15705	-1e-05	-1e-05	0	-0.00022	-0.00024	2e-05	8e-05	-9e-05	4
15706	-1e-05	-1e-05	0	-0.00022	-0.00024	2e-05	8e-05	-9e-05	4
15707	-1e-05	-1e-05	0	-0.00022	-0.00024	2e-05	8e-05	-9e-05	4
15708	-1e-05	-1e-05	0	-0.00022	-0.00024	2e-05	8e-05	-9e-05	4
15709	-1e-05	-1e-05	0	-0.00022	-0.00024	2e-05	8e-05	-9e-05	4
15710	-4e-05	0	4e-05	0.00077	0.00049	4e-05	3e-05	-5e-05	4
15711	-4e-05	0	4e-05	0.00077	0.00049	4e-05	3e-05	-5e-05	4
15712	-3e-05	-8e-05	-0.00012	-0.0003	-0.00036	-0.00017	-0.0002	4e-05	4
15713	-3e-05	-8e-05	-0.00012	-0.0003	-0.00036	-0.00017	-0.0002	4e-05	4
15714	-3e-05	-8e-05	-0.00012	-0.0003	-0.00036	-0.00017	-0.0002	4e-05	4
15715	-3e-05	-8e-05	-0.00012	-0.0003	-0.00036	-0.00017	-0.0002	4e-05	4
15716	-3e-05	-8e-05	-0.00012	-0.0003	-0.00036	-0.00017	-0.0002	4e-05	4
15717	-3e-05	-8e-05	-0.00012	-0.0003	-0.00036	-0.00017	-0.0002	4e-05	4
15718	-3e-05	-8e-05	-0.00012	-0.0003	-0.00036	-0.00017	-0.0002	4e-05	4
15719	-3e-05	-8e-05	-0.00012	-0.0003	-0.00036	-0.00017	-0.0002	4e-05	4
15720	-3e-05	-8e-05	-0.00012	-0.0003	-0.00036	-0.00017	-0.0002	4e-05	4
15721	-3e-05	-8e-05	-0.00012	-0.0003	-0.00036	-0.00017	-0.0002	4e-05	4
15722	-3e-05	-8e-05	-0.00012	-0.0003	-0.00036	-0.00017	-0.0002	4e-05	4
15723	-3e-05	-8e-05	-0.00012	-0.0003	-0.00036	-0.00017	-0.0002	4e-05	4
15724	-3e-05	-8e-05	-0.00012	-0.0003	-0.00036	-0.00017	-0.0002	4e-05	4
15725	0	1e-05	-4e-05	-0.00016	0.00015	8e-05	5e-05	7e-05	4
15726	0	1e-05	-4e-05	-0.00016	0.00015	8e-05	5e-05	7e-05	4
15727	0	-3e-05	-4e-05	0.0001	-0.00046	-0.00012	-0.00031	-6e-05	4
15728	0	-3e-05	-4e-05	0.0001	-0.00046	-0.00012	-0.00031	-6e-05	4
15729	0	-3e-05	-4e-05	0.0001	-0.00046	-0.00012	-0.00031	-6e-05	4
15730	0	-3e-05	-4e-05	0.0001	-0.00046	-0.00012	-0.00031	-6e-05	4
15731	0	-3e-05	-4e-05	0.0001	-0.00046	-0.00012	-0.00031	-6e-05	4
15732	0	-3e-05	-4e-05	0.0001	-0.00046	-0.00012	-0.00031	-6e-05	4
15733	0	-3e-05	-4e-05	0.0001	-0.00046	-0.00012	-0.00031	-6e-05	4
15734	0	-3e-05	-4e-05	0.0001	-0.00046	-0.00012	-0.00031	-6e-05	4
15735	0	-3e-05	-4e-05	0.0001	-0.00046	-0.00012	-0.00031	-6e-05	4
15736	0	-3e-05	-4e-05	0.0001	-0.00046	-0.00012	-0.00031	-6e-05	4
15738	0	-3e-05	-4e-05	0.0001	-0.00046	-0.00012	-0.00031	-6e-05	4
15739	0	-3e-05	-4e-05	0.0001	-0.00046	-0.00012	-0.00031	-6e-05	4
15740	0	-3e-05	-4e-05	0.0001	-0.00046	-0.00012	-0.00031	-6e-05	4
15741	0	-3e-05	-4e-05	0.0001	-0.00046	-0.00012	-0.00031	-6e-05	4
15742	0	-3e-05	-4e-05	0.0001	-0.00046	-0.00012	-0.00031	-6e-05	4
15743	0	-3e-05	-4e-05	0.0001	-0.00046	-0.00012	-0.00031	-6e-05	4
15744	0	-3e-05	-4e-05	0.0001	-0.00046	-0.00012	-0.00031	-6e-05	4
15745	0	-3e-05	-4e-05	0.0001	-0.00046	-0.00012	-0.00031	-6e-05	4
15746	0	-3e-05	-4e-05	0.0001	-0.00046	-0.00012	-0.00031	-6e-05	4
15747	0	-3e-05	-4e-05	0.0001	-0.00046	-0.00012	-0.00031	-6e-05	4
15748	-0.00011	-4e-05	-2e-05	0.00019	0.00047	0.00027	-2e-05	-0.0001	4
15749	0	0	7e-05	-0.00021	-0.00048	-0.00016	-6e-05	-2e-05	4
15750	0	0	7e-05	-0.00021	-0.00048	-0.00016	-6e-05	-2e-05	4
15751	0	0	7e-05	-0.00021	-0.00048	-0.00016	-6e-05	-2e-05	4
15752	0	0	7e-05	-0.00021	-0.00048	-0.00016	-6e-05	-2e-05	4
15753	0	0	7e-05	-0.00021	-0.00048	-0.00016	-6e-05	-2e-05	4
15754	0	0	7e-05	-0.00021	-0.00048	-0.00016	-6e-05	-2e-05	4
15755	0	0	7e-05	-0.00021	-0.00048	-0.00016	-6e-05	-2e-05	4
15756	0	0	7e-05	-0.00021	-0.00048	-0.00016	-6e-05	-2e-05	4
15757	0	0	7e-05	-0.00021	-0.00048	-0.00016	-6e-05	-2e-05	4
15758	0	0	7e-05	-0.00021	-0.00048	-0.00016	-6e-05	-2e-05	4
15759	0	0	7e-05	-0.00021	-0.00048	-0.00016	-6e-05	-2e-05	4
15760	0	0	7e-05	-0.00021	-0.00048	-0.00016	-6e-05	-2e-05	4
15761	0	0	7e-05	-0.00021	-0.00048	-0.00016	-6e-05	-2e-05	4
15762	0	0	7e-05	-0.00021	-0.00048	-0.00016	-6e-05	-2e-05	4
15763	0	0	7e-05	-0.00021	-0.00048	-0.00016	-6e-05	-2e-05	4
15764	0	0	7e-05	-0.00021	-0.00048	-0.00016	-6e-05	-2e-05	4
15765	0	0	7e-05	-0.00021	-0.00048	-0.00016	-6e-05	-2e-05	4
15766	0	0	7e-05	-0.00021	-0.00048	-0.00016	-6e-05	-2e-05	4
15767	0	0	7e-05	-0.00021	-0.00048	-0.00016	-6e-05	-2e-05	4
15768	0	0	7e-05	-0.00021	-0.00048	-0.00016	-6e-05	-2e-05	4
15769	0	0	7e-05	-0.00021	-0.00048	-0.00016	-6e-05	-2e-05	4
15770	3e-05	2e-05	-2e-05	-0.00034	0.00026	7e-05	2e-05	-6e-05	4
15771	3e-05	2e-05	-2e-05	-0.00034	0.00026	7e-05	2e-05	-6e-05	4
15772	7e-05	6e-05	3e-05	0.00016	0.00027	0.00016	8e-05	3e-05	4
15773	7e-05	6e-05	3e-05	0.00016	0.00027	0.00016	8e-05	3e-05	4
15774	7e-05	6e-05	3e-05	0.00016	0.00027	0.00016	8e-05	3e-05	4
15775	7e-05	6e-05	3e-05	0.00016	0.00027	0.00016	8e-05	3e-05	4
15776	7e-05	6e-05	3e-05	0.00016	0.00027	0.00016	8e-05	3e-05	4
15777	7e-05	6e-05	3e-05	0.00016	0.00027	0.00016	8e-05	3e-05	4
15778	7e-05	6e-05	3e-05	0.00016	0.00027	0.00016	8e-05	3e-05	4
15779	7e-05	6e-05	3e-05	0.00016	0.00027	0.00016	8e-05	3e-05	4
15780	7e-05	6e-05	3e-05	0.00016	0.00027	0.00016	8e-05	3e-05	4
15781	7e-05	6e-05	3e-05	0.00016	0.00027	0.00016	8e-05	3e-05	4
15782	7e-05	6e-05	3e-05	0.00016	0.00027	0.00016	8e-05	3e-05	4
15783	7e-05	6e-05	3e-05	0.00016	0.00027	0.00016	8e-05	3e-05	4
15784	7e-05	6e-05	3e-05	0.00016	0.00027	0.00016	8e-05	3e-05	4
15785	7e-05	6e-05	3e-05	0.00016	0.00027	0.00016	8e-05	3e-05	4
15786	-4e-05	-7e-05	-3e-05	0	-0.0005	-0.00038	2e-05	5e-05	4
15788	-1e-05	3e-05	7e-05	0.00027	0.00028	4e-05	0.0001	-6e-05	4
15789	-1e-05	3e-05	7e-05	0.00027	0.00028	4e-05	0.0001	-6e-05	4
15790	-1e-05	3e-05	7e-05	0.00027	0.00028	4e-05	0.0001	-6e-05	4
15791	-1e-05	3e-05	7e-05	0.00027	0.00028	4e-05	0.0001	-6e-05	4
15792	-1e-05	3e-05	7e-05	0.00027	0.00028	4e-05	0.0001	-6e-05	4
15793	-1e-05	3e-05	7e-05	0.00027	0.00028	4e-05	0.0001	-6e-05	4
15794	-1e-05	3e-05	7e-05	0.00027	0.00028	4e-05	0.0001	-6e-05	4
15795	-1e-05	3e-05	7e-05	0.00027	0.00028	4e-05	0.0001	-6e-05	4
15796	-1e-05	3e-05	7e-05	0.00027	0.00028	4e-05	0.0001	-6e-05	4
15797	-1e-05	3e-05	7e-05	0.00027	0.00028	4e-05	0.0001	-6e-05	4
15798	-1e-05	3e-05	7e-05	0.00027	0.00028	4e-05	0.0001	-6e-05	4
15799	-1e-05	3e-05	7e-05	0.00027	0.00028	4e-05	0.0001	-6e-05	4
15800	-1e-05	3e-05	7e-05	0.00027	0.00028	4e-05	0.0001	-6e-05	4
15801	-1e-05	3e-05	7e-05	0.00027	0.00028	4e-05	0.0001	-6e-05	4
15802	-1e-05	3e-05	7e-05	0.00027	0.00028	4e-05	0.0001	-6e-05	4
15803	-1e-05	3e-05	7e-05	0.00027	0.00028	4e-05	0.0001	-6e-05	4
15804	-1e-05	3e-05	7e-05	0.00027	0.00028	4e-05	0.0001	-6e-05	4
15805	-1e-05	3e-05	7e-05	0.00027	0.00028	4e-05	0.0001	-6e-05	4
15806	-1e-05	3e-05	7e-05	0.00027	0.00028	4e-05	0.0001	-6e-05	4
15807	-1e-05	3e-05	7e-05	0.00027	0.00028	4e-05	0.0001	-6e-05	4
15808	-7e-05	-7e-05	-5e-05	0.00014	-0.00012	-0.00011	0	0	4
15809	-4e-05	-2e-05	-1e-05	5e-05	-9e-05	-5e-05	0.00013	-0.00016	4
15810	-4e-05	-2e-05	-1e-05	5e-05	-9e-05	-5e-05	0.00013	-0.00016	4
15811	-4e-05	-2e-05	-1e-05	5e-05	-9e-05	-5e-05	0.00013	-0.00016	4
15812	-4e-05	-2e-05	-1e-05	5e-05	-9e-05	-5e-05	0.00013	-0.00016	4
15813	-4e-05	-2e-05	-1e-05	5e-05	-9e-05	-5e-05	0.00013	-0.00016	4
15814	-4e-05	-2e-05	-1e-05	5e-05	-9e-05	-5e-05	0.00013	-0.00016	4
15815	-4e-05	-2e-05	-1e-05	5e-05	-9e-05	-5e-05	0.00013	-0.00016	4
15816	-4e-05	-2e-05	-1e-05	5e-05	-9e-05	-5e-05	0.00013	-0.00016	4
15817	-4e-05	-2e-05	-1e-05	5e-05	-9e-05	-5e-05	0.00013	-0.00016	4
15818	-4e-05	-2e-05	-1e-05	5e-05	-9e-05	-5e-05	0.00013	-0.00016	4
15819	-4e-05	-2e-05	-1e-05	5e-05	-9e-05	-5e-05	0.00013	-0.00016	4
15820	-4e-05	-2e-05	-1e-05	5e-05	-9e-05	-5e-05	0.00013	-0.00016	4
15821	-4e-05	-2e-05	-1e-05	5e-05	-9e-05	-5e-05	0.00013	-0.00016	4
15822	-4e-05	-2e-05	-1e-05	5e-05	-9e-05	-5e-05	0.00013	-0.00016	4
15823	-4e-05	-2e-05	-1e-05	5e-05	-9e-05	-5e-05	0.00013	-0.00016	4
15824	-4e-05	-2e-05	-1e-05	5e-05	-9e-05	-5e-05	0.00013	-0.00016	4
15825	-4e-05	-2e-05	-1e-05	5e-05	-9e-05	-5e-05	0.00013	-0.00016	4
15826	-4e-05	-2e-05	-1e-05	5e-05	-9e-05	-5e-05	0.00013	-0.00016	4
15827	-4e-05	-2e-05	-1e-05	5e-05	-9e-05	-5e-05	0.00013	-0.00016	4
15828	-4e-05	-2e-05	-1e-05	5e-05	-9e-05	-5e-05	0.00013	-0.00016	4
15829	-4e-05	-2e-05	-1e-05	5e-05	-9e-05	-5e-05	0.00013	-0.00016	4
15830	5e-05	3e-05	2e-05	-3e-05	0.00014	7e-05	-6e-05	-0.00011	4
15831	5e-05	3e-05	2e-05	-3e-05	0.00014	7e-05	-6e-05	-0.00011	4
15832	-0.0001	-2e-05	1e-05	8e-05	0.00026	-4e-05	-1e-05	2e-05	4
15833	-0.0001	-2e-05	1e-05	8e-05	0.00026	-4e-05	-1e-05	2e-05	4
15834	-0.0001	-2e-05	1e-05	8e-05	0.00026	-4e-05	-1e-05	2e-05	4
15835	-0.0001	-2e-05	1e-05	8e-05	0.00026	-4e-05	-1e-05	2e-05	4
15836	-0.0001	-2e-05	1e-05	8e-05	0.00026	-4e-05	-1e-05	2e-05	4
15838	-0.0001	-2e-05	1e-05	8e-05	0.00026	-4e-05	-1e-05	2e-05	4
15839	-0.0001	-2e-05	1e-05	8e-05	0.00026	-4e-05	-1e-05	2e-05	4
15840	-0.0001	-2e-05	1e-05	8e-05	0.00026	-4e-05	-1e-05	2e-05	4
15841	-0.0001	-2e-05	1e-05	8e-05	0.00026	-4e-05	-1e-05	2e-05	4
15842	-0.0001	-2e-05	1e-05	8e-05	0.00026	-4e-05	-1e-05	2e-05	4
15843	-0.0001	-2e-05	1e-05	8e-05	0.00026	-4e-05	-1e-05	2e-05	4
15844	-0.0001	-2e-05	1e-05	8e-05	0.00026	-4e-05	-1e-05	2e-05	4
15845	-0.0001	-2e-05	1e-05	8e-05	0.00026	-4e-05	-1e-05	2e-05	4
15846	-0.0001	-2e-05	1e-05	8e-05	0.00026	-4e-05	-1e-05	2e-05	4
15847	-0.0001	-2e-05	1e-05	8e-05	0.00026	-4e-05	-1e-05	2e-05	4
15848	-0.0001	-2e-05	1e-05	8e-05	0.00026	-4e-05	-1e-05	2e-05	4
15849	-0.0001	-2e-05	1e-05	8e-05	0.00026	-4e-05	-1e-05	2e-05	4
15850	-0.0001	-2e-05	1e-05	8e-05	0.00026	-4e-05	-1e-05	2e-05	4
15851	-0.0001	-2e-05	1e-05	8e-05	0.00026	-4e-05	-1e-05	2e-05	4
15852	-0.0001	-2e-05	1e-05	8e-05	0.00026	-4e-05	-1e-05	2e-05	4
15853	3e-05	0	0	-0.00015	0.00015	0.00021	0.00017	5e-05	4
15854	-5e-05	-8e-05	-0.00012	-0.00023	-0.00029	-8e-05	-0.00011	-0.00012	4
15855	-5e-05	-8e-05	-0.00012	-0.00023	-0.00029	-8e-05	-0.00011	-0.00012	4
15856	-5e-05	-8e-05	-0.00012	-0.00023	-0.00029	-8e-05	-0.00011	-0.00012	4
15857	-5e-05	-8e-05	-0.00012	-0.00023	-0.00029	-8e-05	-0.00011	-0.00012	4
15858	-5e-05	-8e-05	-0.00012	-0.00023	-0.00029	-8e-05	-0.00011	-0.00012	4
15859	-5e-05	-8e-05	-0.00012	-0.00023	-0.00029	-8e-05	-0.00011	-0.00012	4
15860	-5e-05	-8e-05	-0.00012	-0.00023	-0.00029	-8e-05	-0.00011	-0.00012	4
15861	-5e-05	-8e-05	-0.00012	-0.00023	-0.00029	-8e-05	-0.00011	-0.00012	4
15862	-5e-05	-8e-05	-0.00012	-0.00023	-0.00029	-8e-05	-0.00011	-0.00012	4
15863	-5e-05	-8e-05	-0.00012	-0.00023	-0.00029	-8e-05	-0.00011	-0.00012	4
15864	-5e-05	-8e-05	-0.00012	-0.00023	-0.00029	-8e-05	-0.00011	-0.00012	4
15865	-5e-05	-8e-05	-0.00012	-0.00023	-0.00029	-8e-05	-0.00011	-0.00012	4
15866	-5e-05	-8e-05	-0.00012	-0.00023	-0.00029	-8e-05	-0.00011	-0.00012	4
15867	-5e-05	-8e-05	-0.00012	-0.00023	-0.00029	-8e-05	-0.00011	-0.00012	4
15868	2e-05	0	-1e-05	-0.00013	7e-05	-7e-05	-4e-05	2e-05	4
15869	5e-05	4e-05	7e-05	0.00026	0.00056	0.00022	0.00028	3e-05	4
15870	5e-05	4e-05	7e-05	0.00026	0.00056	0.00022	0.00028	3e-05	4
15871	5e-05	4e-05	7e-05	0.00026	0.00056	0.00022	0.00028	3e-05	4
15872	5e-05	4e-05	7e-05	0.00026	0.00056	0.00022	0.00028	3e-05	4
15873	5e-05	4e-05	7e-05	0.00026	0.00056	0.00022	0.00028	3e-05	4
15874	5e-05	4e-05	7e-05	0.00026	0.00056	0.00022	0.00028	3e-05	4
15875	5e-05	4e-05	7e-05	0.00026	0.00056	0.00022	0.00028	3e-05	4
15876	5e-05	4e-05	7e-05	0.00026	0.00056	0.00022	0.00028	3e-05	4
15877	5e-05	4e-05	7e-05	0.00026	0.00056	0.00022	0.00028	3e-05	4
15878	5e-05	4e-05	7e-05	0.00026	0.00056	0.00022	0.00028	3e-05	4
15879	5e-05	4e-05	7e-05	0.00026	0.00056	0.00022	0.00028	3e-05	4
15880	5e-05	4e-05	7e-05	0.00026	0.00056	0.00022	0.00028	3e-05	4
15881	5e-05	4e-05	7e-05	0.00026	0.00056	0.00022	0.00028	3e-05	4
15882	5e-05	4e-05	7e-05	0.00026	0.00056	0.00022	0.00028	3e-05	4
15883	5e-05	4e-05	7e-05	0.00026	0.00056	0.00022	0.00028	3e-05	4
15884	5e-05	4e-05	7e-05	0.00026	0.00056	0.00022	0.00028	3e-05	4
15885	5e-05	4e-05	7e-05	0.00026	0.00056	0.00022	0.00028	3e-05	4
15886	5e-05	4e-05	7e-05	0.00026	0.00056	0.00022	0.00028	3e-05	4
15888	5e-05	4e-05	7e-05	0.00026	0.00056	0.00022	0.00028	3e-05	4
15889	5e-05	4e-05	7e-05	0.00026	0.00056	0.00022	0.00028	3e-05	4
15890	5e-05	4e-05	7e-05	0.00026	0.00056	0.00022	0.00028	3e-05	4
15891	5e-05	4e-05	7e-05	0.00026	0.00056	0.00022	0.00028	3e-05	4
15892	5e-05	4e-05	7e-05	0.00026	0.00056	0.00022	0.00028	3e-05	4
15893	5e-05	4e-05	7e-05	0.00026	0.00056	0.00022	0.00028	3e-05	4
15894	5e-05	4e-05	7e-05	0.00026	0.00056	0.00022	0.00028	3e-05	4
15895	5e-05	4e-05	7e-05	0.00026	0.00056	0.00022	0.00028	3e-05	4
15897	5e-05	4e-05	7e-05	0.00026	0.00056	0.00022	0.00028	3e-05	4
15898	1e-05	-1e-05	-3e-05	-0.00013	-0.00031	-6e-05	-1e-05	-7e-05	4
15899	-3e-05	-6e-05	-0.00011	-0.00041	-0.00065	-0.00022	-0.00015	0.00021	4
15900	-3e-05	-6e-05	-0.00011	-0.00041	-0.00065	-0.00022	-0.00015	0.00021	4
15901	-3e-05	-6e-05	-0.00011	-0.00041	-0.00065	-0.00022	-0.00015	0.00021	4
15902	-3e-05	-6e-05	-0.00011	-0.00041	-0.00065	-0.00022	-0.00015	0.00021	4
15903	-3e-05	-6e-05	-0.00011	-0.00041	-0.00065	-0.00022	-0.00015	0.00021	4
15904	0.0001	0.00015	0.00021	0.00053	0.00068	0.00069	0.00026	3e-05	4
15905	0	-2e-05	-4e-05	-0.00018	-0.00015	-0.00011	-7e-05	3e-05	4
15906	0	-2e-05	-4e-05	-0.00018	-0.00015	-0.00011	-7e-05	3e-05	4
15907	0	-2e-05	-4e-05	-0.00018	-0.00015	-0.00011	-7e-05	3e-05	4
15908	0	-2e-05	-4e-05	-0.00018	-0.00015	-0.00011	-7e-05	3e-05	4
15909	0	-2e-05	-4e-05	-0.00018	-0.00015	-0.00011	-7e-05	3e-05	4
15910	0	-2e-05	-4e-05	-0.00018	-0.00015	-0.00011	-7e-05	3e-05	4
15911	-9e-05	-0.00012	-0.00018	-0.00101	-0.00104	-0.00043	-0.00022	-8e-05	4
15912	-9e-05	-0.00012	-0.00018	-0.00101	-0.00104	-0.00043	-0.00022	-8e-05	4
15913	-9e-05	-0.00012	-0.00018	-0.00101	-0.00104	-0.00043	-0.00022	-8e-05	4
15914	-9e-05	-0.00012	-0.00018	-0.00101	-0.00104	-0.00043	-0.00022	-8e-05	4
15915	-9e-05	-0.00012	-0.00018	-0.00101	-0.00104	-0.00043	-0.00022	-8e-05	4
15916	-9e-05	-0.00012	-0.00018	-0.00101	-0.00104	-0.00043	-0.00022	-8e-05	4
15917	-9e-05	-0.00012	-0.00018	-0.00101	-0.00104	-0.00043	-0.00022	-8e-05	4
15918	-9e-05	-0.00012	-0.00018	-0.00101	-0.00104	-0.00043	-0.00022	-8e-05	4
15919	-9e-05	-0.00012	-0.00018	-0.00101	-0.00104	-0.00043	-0.00022	-8e-05	4
15920	-9e-05	-0.00012	-0.00018	-0.00101	-0.00104	-0.00043	-0.00022	-8e-05	4
15921	-9e-05	-0.00012	-0.00018	-0.00101	-0.00104	-0.00043	-0.00022	-8e-05	4
15922	-9e-05	-0.00012	-0.00018	-0.00101	-0.00104	-0.00043	-0.00022	-8e-05	4
15923	-9e-05	-0.00012	-0.00018	-0.00101	-0.00104	-0.00043	-0.00022	-8e-05	4
15924	-9e-05	-0.00012	-0.00018	-0.00101	-0.00104	-0.00043	-0.00022	-8e-05	4
15925	-9e-05	-0.00012	-0.00018	-0.00101	-0.00104	-0.00043	-0.00022	-8e-05	4
15926	-9e-05	-0.00012	-0.00018	-0.00101	-0.00104	-0.00043	-0.00022	-8e-05	4
15927	-9e-05	-0.00012	-0.00018	-0.00101	-0.00104	-0.00043	-0.00022	-8e-05	4
15928	-2e-05	1e-05	3e-05	-2e-05	-4e-05	-2e-05	-0.00011	1e-05	4
15929	0	-3e-05	0	0.00012	0.00036	-3e-05	-3e-05	0	4
15930	0	-3e-05	0	0.00012	0.00036	-3e-05	-3e-05	0	4
15931	0	-3e-05	0	0.00012	0.00036	-3e-05	-3e-05	0	4
15932	0	-3e-05	0	0.00012	0.00036	-3e-05	-3e-05	0	4
15933	0	-3e-05	0	0.00012	0.00036	-3e-05	-3e-05	0	4
15934	0	-3e-05	0	0.00012	0.00036	-3e-05	-3e-05	0	4
15935	0	-3e-05	0	0.00012	0.00036	-3e-05	-3e-05	0	4
15936	0	-3e-05	0	0.00012	0.00036	-3e-05	-3e-05	0	4
15938	0	-3e-05	0	0.00012	0.00036	-3e-05	-3e-05	0	4
15939	0	-3e-05	0	0.00012	0.00036	-3e-05	-3e-05	0	4
15940	0	-3e-05	0	0.00012	0.00036	-3e-05	-3e-05	0	4
15941	0	-3e-05	0	0.00012	0.00036	-3e-05	-3e-05	0	4
15942	0	-3e-05	0	0.00012	0.00036	-3e-05	-3e-05	0	4
15943	0	-3e-05	0	0.00012	0.00036	-3e-05	-3e-05	0	4
15944	0	-3e-05	0	0.00012	0.00036	-3e-05	-3e-05	0	4
15945	0	-3e-05	0	0.00012	0.00036	-3e-05	-3e-05	0	4
15946	0	-3e-05	0	0.00012	0.00036	-3e-05	-3e-05	0	4
15947	0	-3e-05	0	0.00012	0.00036	-3e-05	-3e-05	0	4
15948	0	-3e-05	0	0.00012	0.00036	-3e-05	-3e-05	0	4
15949	0	-3e-05	0	0.00012	0.00036	-3e-05	-3e-05	0	4
15950	1e-05	0	1e-05	5e-05	0.00015	6e-05	3e-05	-4e-05	4
15951	1e-05	0	1e-05	5e-05	0.00015	6e-05	3e-05	-4e-05	4
15952	0.00011	0.0001	0.00014	0.00087	0.00106	0.00042	0.00014	0.00017	4
15953	0.00011	0.0001	0.00014	0.00087	0.00106	0.00042	0.00014	0.00017	4
15954	0.00011	0.0001	0.00014	0.00087	0.00106	0.00042	0.00014	0.00017	4
15955	0.00011	0.0001	0.00014	0.00087	0.00106	0.00042	0.00014	0.00017	4
15956	0.00011	0.0001	0.00014	0.00087	0.00106	0.00042	0.00014	0.00017	4
15957	0.00011	0.0001	0.00014	0.00087	0.00106	0.00042	0.00014	0.00017	4
15958	0.00011	0.0001	0.00014	0.00087	0.00106	0.00042	0.00014	0.00017	4
15959	0.00011	0.0001	0.00014	0.00087	0.00106	0.00042	0.00014	0.00017	4
15960	0.00011	0.0001	0.00014	0.00087	0.00106	0.00042	0.00014	0.00017	4
15961	0.00011	0.0001	0.00014	0.00087	0.00106	0.00042	0.00014	0.00017	4
15962	0.00011	0.0001	0.00014	0.00087	0.00106	0.00042	0.00014	0.00017	4
15963	0.00011	0.0001	0.00014	0.00087	0.00106	0.00042	0.00014	0.00017	4
15964	0.00013	0.00017	0.00018	0.0001	0.00073	0.00059	0.00028	0.00022	4
15965	0.00013	0.00017	0.00018	0.0001	0.00073	0.00059	0.00028	0.00022	4
15966	0.00013	0.00017	0.00018	0.0001	0.00073	0.00059	0.00028	0.00022	4
15967	0.00013	0.00017	0.00018	0.0001	0.00073	0.00059	0.00028	0.00022	4
15968	0.00013	0.00017	0.00018	0.0001	0.00073	0.00059	0.00028	0.00022	4
15969	0.00013	0.00017	0.00018	0.0001	0.00073	0.00059	0.00028	0.00022	4
15970	0.00013	0.00017	0.00018	0.0001	0.00073	0.00059	0.00028	0.00022	4
15971	-4e-05	-5e-05	-7e-05	0.0001	8e-05	2e-05	-8e-05	-4e-05	4
15973	-4e-05	-5e-05	-7e-05	0.0001	8e-05	2e-05	-8e-05	-4e-05	4
15974	-4e-05	-5e-05	-7e-05	0.0001	8e-05	2e-05	-8e-05	-4e-05	4
15975	-4e-05	-5e-05	-7e-05	0.0001	8e-05	2e-05	-8e-05	-4e-05	4
15976	-4e-05	-5e-05	-7e-05	0.0001	8e-05	2e-05	-8e-05	-4e-05	4
15977	-4e-05	-5e-05	-7e-05	0.0001	8e-05	2e-05	-8e-05	-4e-05	4
15978	-4e-05	-5e-05	-7e-05	0.0001	8e-05	2e-05	-8e-05	-4e-05	4
15979	-4e-05	-5e-05	-7e-05	0.0001	8e-05	2e-05	-8e-05	-4e-05	4
15980	-4e-05	-5e-05	-7e-05	0.0001	8e-05	2e-05	-8e-05	-4e-05	4
15981	-4e-05	-5e-05	-7e-05	0.0001	8e-05	2e-05	-8e-05	-4e-05	4
15982	-4e-05	-5e-05	-7e-05	0.0001	8e-05	2e-05	-8e-05	-4e-05	4
15983	-4e-05	-5e-05	-7e-05	0.0001	8e-05	2e-05	-8e-05	-4e-05	4
15984	-4e-05	-5e-05	-7e-05	0.0001	8e-05	2e-05	-8e-05	-4e-05	4
15985	-4e-05	-5e-05	-7e-05	0.0001	8e-05	2e-05	-8e-05	-4e-05	4
15986	-4e-05	-5e-05	-7e-05	0.0001	8e-05	2e-05	-8e-05	-4e-05	4
15988	-6e-05	-5e-05	-9e-05	6e-05	-0.00032	-0.00021	-0.0001	-5e-05	4
15989	-6e-05	-5e-05	-9e-05	6e-05	-0.00032	-0.00021	-0.0001	-5e-05	4
15990	3e-05	5e-05	5e-05	7e-05	0.00039	0.00019	8e-05	-6e-05	4
15991	3e-05	5e-05	5e-05	7e-05	0.00039	0.00019	8e-05	-6e-05	4
15992	3e-05	5e-05	5e-05	7e-05	0.00039	0.00019	8e-05	-6e-05	4
15993	3e-05	5e-05	5e-05	7e-05	0.00039	0.00019	8e-05	-6e-05	4
15994	3e-05	5e-05	5e-05	7e-05	0.00039	0.00019	8e-05	-6e-05	4
15995	3e-05	5e-05	5e-05	7e-05	0.00039	0.00019	8e-05	-6e-05	4
15996	3e-05	5e-05	5e-05	7e-05	0.00039	0.00019	8e-05	-6e-05	4
15997	3e-05	5e-05	5e-05	7e-05	0.00039	0.00019	8e-05	-6e-05	4
15998	3e-05	5e-05	5e-05	7e-05	0.00039	0.00019	8e-05	-6e-05	4
15999	3e-05	5e-05	5e-05	7e-05	0.00039	0.00019	8e-05	-6e-05	4
16000	3e-05	5e-05	5e-05	7e-05	0.00039	0.00019	8e-05	-6e-05	4
16001	3e-05	5e-05	5e-05	7e-05	0.00039	0.00019	8e-05	-6e-05	4
16002	3e-05	5e-05	5e-05	7e-05	0.00039	0.00019	8e-05	-6e-05	4
16003	3e-05	5e-05	5e-05	7e-05	0.00039	0.00019	8e-05	-6e-05	4
16004	3e-05	5e-05	5e-05	7e-05	0.00039	0.00019	8e-05	-6e-05	4
16005	3e-05	5e-05	5e-05	7e-05	0.00039	0.00019	8e-05	-6e-05	4
16006	3e-05	5e-05	5e-05	7e-05	0.00039	0.00019	8e-05	-6e-05	4
16007	3e-05	5e-05	5e-05	7e-05	0.00039	0.00019	8e-05	-6e-05	4
16008	3e-05	5e-05	5e-05	7e-05	0.00039	0.00019	8e-05	-6e-05	4
16009	3e-05	5e-05	5e-05	7e-05	0.00039	0.00019	8e-05	-6e-05	4
16010	0.0001	9e-05	0.0001	-3e-05	-0.00012	0.00016	0.00022	2e-05	4
16011	0.0001	9e-05	0.0001	-3e-05	-0.00012	0.00016	0.00022	2e-05	4
16012	-3e-05	-2e-05	-5e-05	-0.00042	-0.001	-0.00027	-0.00015	-9e-05	4
16013	-3e-05	-2e-05	-5e-05	-0.00042	-0.001	-0.00027	-0.00015	-9e-05	4
16014	-3e-05	-2e-05	-5e-05	-0.00042	-0.001	-0.00027	-0.00015	-9e-05	4
16015	-3e-05	-2e-05	-5e-05	-0.00042	-0.001	-0.00027	-0.00015	-9e-05	4
16016	-3e-05	-2e-05	-5e-05	-0.00042	-0.001	-0.00027	-0.00015	-9e-05	4
16017	-3e-05	-2e-05	-5e-05	-0.00042	-0.001	-0.00027	-0.00015	-9e-05	4
16018	-3e-05	-2e-05	-5e-05	-0.00042	-0.001	-0.00027	-0.00015	-9e-05	4
16019	-3e-05	-2e-05	-5e-05	-0.00042	-0.001	-0.00027	-0.00015	-9e-05	4
16020	-3e-05	-2e-05	-5e-05	-0.00042	-0.001	-0.00027	-0.00015	-9e-05	4
16021	-3e-05	-2e-05	-5e-05	-0.00042	-0.001	-0.00027	-0.00015	-9e-05	4
16022	-3e-05	-2e-05	-5e-05	-0.00042	-0.001	-0.00027	-0.00015	-9e-05	4
16023	-3e-05	-2e-05	-5e-05	-0.00042	-0.001	-0.00027	-0.00015	-9e-05	4
16024	-3e-05	-2e-05	-5e-05	-0.00042	-0.001	-0.00027	-0.00015	-9e-05	4
16025	-3e-05	-2e-05	-5e-05	-0.00042	-0.001	-0.00027	-0.00015	-9e-05	4
16026	-3e-05	-2e-05	-5e-05	-0.00042	-0.001	-0.00027	-0.00015	-9e-05	4
16027	-3e-05	-2e-05	-5e-05	-0.00042	-0.001	-0.00027	-0.00015	-9e-05	4
16028	-3e-05	-2e-05	-5e-05	-0.00042	-0.001	-0.00027	-0.00015	-9e-05	4
16029	-3e-05	-2e-05	-5e-05	-0.00042	-0.001	-0.00027	-0.00015	-9e-05	4
16030	-3e-05	-2e-05	-5e-05	-0.00042	-0.001	-0.00027	-0.00015	-9e-05	4
16031	-3e-05	-2e-05	-5e-05	-0.00042	-0.001	-0.00027	-0.00015	-9e-05	4
16032	-3e-05	-2e-05	-5e-05	-0.00042	-0.001	-0.00027	-0.00015	-9e-05	4
16033	-3e-05	0	1e-05	-2e-05	2e-05	-1e-05	4e-05	-4e-05	4
16034	5e-05	4e-05	6e-05	0.00027	0.00033	0.00014	7e-05	0.00018	4
16035	5e-05	4e-05	6e-05	0.00027	0.00033	0.00014	7e-05	0.00018	4
16036	5e-05	4e-05	6e-05	0.00027	0.00033	0.00014	7e-05	0.00018	4
16038	5e-05	4e-05	6e-05	0.00027	0.00033	0.00014	7e-05	0.00018	4
16039	5e-05	4e-05	6e-05	0.00027	0.00033	0.00014	7e-05	0.00018	4
16040	5e-05	4e-05	6e-05	0.00027	0.00033	0.00014	7e-05	0.00018	4
16041	5e-05	4e-05	6e-05	0.00027	0.00033	0.00014	7e-05	0.00018	4
16042	5e-05	4e-05	6e-05	0.00027	0.00033	0.00014	7e-05	0.00018	4
16043	5e-05	4e-05	6e-05	0.00027	0.00033	0.00014	7e-05	0.00018	4
16044	5e-05	4e-05	6e-05	0.00027	0.00033	0.00014	7e-05	0.00018	4
16045	5e-05	4e-05	6e-05	0.00027	0.00033	0.00014	7e-05	0.00018	4
16046	5e-05	4e-05	6e-05	0.00027	0.00033	0.00014	7e-05	0.00018	4
16047	5e-05	4e-05	6e-05	0.00027	0.00033	0.00014	7e-05	0.00018	4
16048	0	-5e-05	-7e-05	7e-05	0.00043	3e-05	-6e-05	-0.00019	4
16049	0	-5e-05	-7e-05	7e-05	0.00043	3e-05	-6e-05	-0.00019	4
16050	-2e-05	-4e-05	-8e-05	-0.00043	-0.00031	-0.00013	-0.00016	5e-05	4
16051	-2e-05	-4e-05	-8e-05	-0.00043	-0.00031	-0.00013	-0.00016	5e-05	4
16052	-2e-05	-4e-05	-8e-05	-0.00043	-0.00031	-0.00013	-0.00016	5e-05	4
16053	-2e-05	-4e-05	-8e-05	-0.00043	-0.00031	-0.00013	-0.00016	5e-05	4
16054	-2e-05	-4e-05	-8e-05	-0.00043	-0.00031	-0.00013	-0.00016	5e-05	4
16055	-2e-05	-4e-05	-8e-05	-0.00043	-0.00031	-0.00013	-0.00016	5e-05	4
16056	-2e-05	-4e-05	-8e-05	-0.00043	-0.00031	-0.00013	-0.00016	5e-05	4
16057	-2e-05	-4e-05	-8e-05	-0.00043	-0.00031	-0.00013	-0.00016	5e-05	4
16058	-2e-05	-4e-05	-8e-05	-0.00043	-0.00031	-0.00013	-0.00016	5e-05	4
16059	-2e-05	-4e-05	-8e-05	-0.00043	-0.00031	-0.00013	-0.00016	5e-05	4
16060	-2e-05	-4e-05	-8e-05	-0.00043	-0.00031	-0.00013	-0.00016	5e-05	4
16061	-2e-05	-4e-05	-8e-05	-0.00043	-0.00031	-0.00013	-0.00016	5e-05	4
16062	-2e-05	-4e-05	-8e-05	-0.00043	-0.00031	-0.00013	-0.00016	5e-05	4
16063	-2e-05	-4e-05	-8e-05	-0.00043	-0.00031	-0.00013	-0.00016	5e-05	4
16064	-2e-05	-4e-05	-8e-05	-0.00043	-0.00031	-0.00013	-0.00016	5e-05	4
16065	-2e-05	-4e-05	-8e-05	-0.00043	-0.00031	-0.00013	-0.00016	5e-05	4
16066	-2e-05	-4e-05	-8e-05	-0.00043	-0.00031	-0.00013	-0.00016	5e-05	4
16067	-2e-05	-4e-05	-8e-05	-0.00043	-0.00031	-0.00013	-0.00016	5e-05	4
16068	-2e-05	-4e-05	-8e-05	-0.00043	-0.00031	-0.00013	-0.00016	5e-05	4
16069	-2e-05	-4e-05	-8e-05	-0.00043	-0.00031	-0.00013	-0.00016	5e-05	4
16070	-3e-05	-5e-05	-2e-05	0.00033	-0.00019	-0.00013	-2e-05	0.0001	4
16071	-3e-05	-5e-05	-2e-05	0.00033	-0.00019	-0.00013	-2e-05	0.0001	4
16072	-3e-05	-5e-05	-2e-05	0.00033	-0.00019	-0.00013	-2e-05	0.0001	4
16073	-3e-05	-5e-05	-2e-05	0.00033	-0.00019	-0.00013	-2e-05	0.0001	4
16074	-3e-05	-5e-05	-2e-05	0.00033	-0.00019	-0.00013	-2e-05	0.0001	4
16075	-3e-05	-5e-05	-2e-05	0.00033	-0.00019	-0.00013	-2e-05	0.0001	4
16076	8e-05	0.00011	0.00017	0.0004	0.00072	0.0005	0.00017	5e-05	4
16077	8e-05	0.00011	0.00017	0.0004	0.00072	0.0005	0.00017	5e-05	4
16078	8e-05	0.00011	0.00017	0.0004	0.00072	0.0005	0.00017	5e-05	4
16079	8e-05	0.00011	0.00017	0.0004	0.00072	0.0005	0.00017	5e-05	4
16080	8e-05	0.00011	0.00017	0.0004	0.00072	0.0005	0.00017	5e-05	4
16081	8e-05	0.00011	0.00017	0.0004	0.00072	0.0005	0.00017	5e-05	4
16082	8e-05	0.00011	0.00017	0.0004	0.00072	0.0005	0.00017	5e-05	4
16083	8e-05	0.00011	0.00017	0.0004	0.00072	0.0005	0.00017	5e-05	4
16084	8e-05	0.00011	0.00017	0.0004	0.00072	0.0005	0.00017	5e-05	4
16085	-5e-05	-8e-05	-0.0001	-0.00017	-0.00015	-5e-05	1e-05	-5e-05	4
16086	-5e-05	-8e-05	-0.0001	-0.00017	-0.00015	-5e-05	1e-05	-5e-05	4
16088	-5e-05	-8e-05	-0.0001	-0.00017	-0.00015	-5e-05	1e-05	-5e-05	4
16089	-5e-05	-8e-05	-0.0001	-0.00017	-0.00015	-5e-05	1e-05	-5e-05	4
16090	-5e-05	-8e-05	-0.0001	-0.00017	-0.00015	-5e-05	1e-05	-5e-05	4
16091	3e-05	5e-05	7e-05	-4e-05	-4e-05	0.00013	0.00014	1e-05	4
16092	-2e-05	2e-05	4e-05	3e-05	-0.00034	-0.00015	0	-5e-05	4
16093	-2e-05	2e-05	4e-05	3e-05	-0.00034	-0.00015	0	-5e-05	4
16094	-2e-05	2e-05	4e-05	3e-05	-0.00034	-0.00015	0	-5e-05	4
16095	-2e-05	2e-05	4e-05	3e-05	-0.00034	-0.00015	0	-5e-05	4
16096	-2e-05	2e-05	4e-05	3e-05	-0.00034	-0.00015	0	-5e-05	4
16097	-2e-05	2e-05	4e-05	3e-05	-0.00034	-0.00015	0	-5e-05	4
16098	-2e-05	2e-05	4e-05	3e-05	-0.00034	-0.00015	0	-5e-05	4
16099	-2e-05	2e-05	4e-05	3e-05	-0.00034	-0.00015	0	-5e-05	4
16100	-2e-05	2e-05	4e-05	3e-05	-0.00034	-0.00015	0	-5e-05	4
16101	-2e-05	2e-05	4e-05	3e-05	-0.00034	-0.00015	0	-5e-05	4
16102	-2e-05	2e-05	4e-05	3e-05	-0.00034	-0.00015	0	-5e-05	4
16103	-2e-05	2e-05	4e-05	3e-05	-0.00034	-0.00015	0	-5e-05	4
16104	-2e-05	2e-05	4e-05	3e-05	-0.00034	-0.00015	0	-5e-05	4
16105	-2e-05	2e-05	4e-05	3e-05	-0.00034	-0.00015	0	-5e-05	4
16106	-2e-05	2e-05	4e-05	3e-05	-0.00034	-0.00015	0	-5e-05	4
16107	-2e-05	2e-05	4e-05	3e-05	-0.00034	-0.00015	0	-5e-05	4
16108	2e-05	2e-05	2e-05	0.00015	0.0003	4e-05	2e-05	0.00029	4
16109	-3e-05	0	-2e-05	-0.00032	-0.00035	-0.00017	-4e-05	-0.00015	4
16110	-3e-05	0	-2e-05	-0.00032	-0.00035	-0.00017	-4e-05	-0.00015	4
16111	-3e-05	0	-2e-05	-0.00032	-0.00035	-0.00017	-4e-05	-0.00015	4
16112	-3e-05	0	-2e-05	-0.00032	-0.00035	-0.00017	-4e-05	-0.00015	4
16113	-3e-05	0	-2e-05	-0.00032	-0.00035	-0.00017	-4e-05	-0.00015	4
16114	-3e-05	0	-2e-05	-0.00032	-0.00035	-0.00017	-4e-05	-0.00015	4
16115	-3e-05	0	-2e-05	-0.00032	-0.00035	-0.00017	-4e-05	-0.00015	4
16116	-3e-05	0	-2e-05	-0.00032	-0.00035	-0.00017	-4e-05	-0.00015	4
16117	-3e-05	0	-2e-05	-0.00032	-0.00035	-0.00017	-4e-05	-0.00015	4
16118	-3e-05	0	-2e-05	-0.00032	-0.00035	-0.00017	-4e-05	-0.00015	4
16119	-3e-05	0	-2e-05	-0.00032	-0.00035	-0.00017	-4e-05	-0.00015	4
16120	-3e-05	0	-2e-05	-0.00032	-0.00035	-0.00017	-4e-05	-0.00015	4
16121	-3e-05	0	-2e-05	-0.00032	-0.00035	-0.00017	-4e-05	-0.00015	4
16122	-3e-05	0	-2e-05	-0.00032	-0.00035	-0.00017	-4e-05	-0.00015	4
16123	-3e-05	0	-2e-05	-0.00032	-0.00035	-0.00017	-4e-05	-0.00015	4
16124	-3e-05	0	-2e-05	-0.00032	-0.00035	-0.00017	-4e-05	-0.00015	4
16125	-3e-05	0	-2e-05	-0.00032	-0.00035	-0.00017	-4e-05	-0.00015	4
16126	-3e-05	0	-2e-05	-0.00032	-0.00035	-0.00017	-4e-05	-0.00015	4
16127	-3e-05	0	-2e-05	-0.00032	-0.00035	-0.00017	-4e-05	-0.00015	4
16128	-3e-05	0	-2e-05	-0.00032	-0.00035	-0.00017	-4e-05	-0.00015	4
16129	-3e-05	0	-2e-05	-0.00032	-0.00035	-0.00017	-4e-05	-0.00015	4
16131	-3e-05	0	-2e-05	-0.00032	-0.00035	-0.00017	-4e-05	-0.00015	4
16132	-3e-05	-3e-05	2e-05	0.00023	-0.00018	-0.00023	-0.00016	-0.0002	4
16133	-3e-05	-5e-05	-4e-05	-0.00013	3e-05	-3e-05	-4e-05	-1e-05	4
16134	-3e-05	-5e-05	-4e-05	-0.00013	3e-05	-3e-05	-4e-05	-1e-05	4
16135	-3e-05	-5e-05	-4e-05	-0.00013	3e-05	-3e-05	-4e-05	-1e-05	4
16136	-3e-05	-5e-05	-4e-05	-0.00013	3e-05	-3e-05	-4e-05	-1e-05	4
16138	-3e-05	-5e-05	-4e-05	-0.00013	3e-05	-3e-05	-4e-05	-1e-05	4
16139	-3e-05	-5e-05	-4e-05	-0.00013	3e-05	-3e-05	-4e-05	-1e-05	4
16140	-3e-05	-5e-05	-4e-05	-0.00013	3e-05	-3e-05	-4e-05	-1e-05	4
16141	-3e-05	-5e-05	-4e-05	-0.00013	3e-05	-3e-05	-4e-05	-1e-05	4
16142	-3e-05	-5e-05	-4e-05	-0.00013	3e-05	-3e-05	-4e-05	-1e-05	4
16143	-3e-05	-5e-05	-4e-05	-0.00013	3e-05	-3e-05	-4e-05	-1e-05	4
16144	-3e-05	-5e-05	-4e-05	-0.00013	3e-05	-3e-05	-4e-05	-1e-05	4
16145	4e-05	-1e-05	-6e-05	-0.00088	-0.00054	-0.00013	6e-05	-0.0001	4
16146	4e-05	-1e-05	-6e-05	-0.00088	-0.00054	-0.00013	6e-05	-0.0001	4
16147	4e-05	-1e-05	-6e-05	-0.00088	-0.00054	-0.00013	6e-05	-0.0001	4
16148	4e-05	-1e-05	-6e-05	-0.00088	-0.00054	-0.00013	6e-05	-0.0001	4
16149	4e-05	-1e-05	-6e-05	-0.00088	-0.00054	-0.00013	6e-05	-0.0001	4
16150	4e-05	-1e-05	-6e-05	-0.00088	-0.00054	-0.00013	6e-05	-0.0001	4
16151	3e-05	1e-05	2e-05	0.00027	-3e-05	4e-05	3e-05	-5e-05	4
16152	3e-05	1e-05	2e-05	0.00027	-3e-05	4e-05	3e-05	-5e-05	4
16153	3e-05	1e-05	2e-05	0.00027	-3e-05	4e-05	3e-05	-5e-05	4
16154	3e-05	1e-05	2e-05	0.00027	-3e-05	4e-05	3e-05	-5e-05	4
16155	3e-05	1e-05	2e-05	0.00027	-3e-05	4e-05	3e-05	-5e-05	4
16156	3e-05	1e-05	2e-05	0.00027	-3e-05	4e-05	3e-05	-5e-05	4
16157	3e-05	1e-05	2e-05	0.00027	-3e-05	4e-05	3e-05	-5e-05	4
16158	3e-05	1e-05	2e-05	0.00027	-3e-05	4e-05	3e-05	-5e-05	4
16159	3e-05	1e-05	2e-05	0.00027	-3e-05	4e-05	3e-05	-5e-05	4
16160	3e-05	1e-05	2e-05	0.00027	-3e-05	4e-05	3e-05	-5e-05	4
16161	3e-05	1e-05	2e-05	0.00027	-3e-05	4e-05	3e-05	-5e-05	4
16162	3e-05	1e-05	2e-05	0.00027	-3e-05	4e-05	3e-05	-5e-05	4
16163	3e-05	1e-05	2e-05	0.00027	-3e-05	4e-05	3e-05	-5e-05	4
16164	3e-05	1e-05	2e-05	0.00027	-3e-05	4e-05	3e-05	-5e-05	4
16165	3e-05	1e-05	2e-05	0.00027	-3e-05	4e-05	3e-05	-5e-05	4
16166	3e-05	1e-05	2e-05	0.00027	-3e-05	4e-05	3e-05	-5e-05	4
41672	0.0001	0.00018	0.00017	7e-05	-0.00101	-0.00015	6e-05	0.00022	4
41673	0.0001	0.00018	0.00017	7e-05	-0.00101	-0.00015	6e-05	0.00022	4
41674	0.0001	0.00018	0.00017	7e-05	-0.00101	-0.00015	6e-05	0.00022	4
41675	-8e-05	-6e-05	0	0.00022	0.00022	-0.00033	-0.00011	-4e-05	4
41676	-8e-05	-6e-05	0	0.00022	0.00022	-0.00033	-0.00011	-4e-05	4
41677	-0.0001	-0.00014	-0.00026	-0.00053	-0.00031	-0.00027	-0.0001	-5e-05	4
41678	-0.0001	-0.00014	-0.00026	-0.00053	-0.00031	-0.00027	-0.0001	-5e-05	4
41679	-0.0001	-0.00014	-0.00026	-0.00053	-0.00031	-0.00027	-0.0001	-5e-05	4
41680	-0.0001	-0.00014	-0.00026	-0.00053	-0.00031	-0.00027	-0.0001	-5e-05	4
41681	-0.0001	-0.00014	-0.00026	-0.00053	-0.00031	-0.00027	-0.0001	-5e-05	4
41682	-0.0001	-0.00014	-0.00026	-0.00053	-0.00031	-0.00027	-0.0001	-5e-05	4
41683	-0.0001	-0.00014	-0.00026	-0.00053	-0.00031	-0.00027	-0.0001	-5e-05	4
41684	-0.0001	-0.00014	-0.00026	-0.00053	-0.00031	-0.00027	-0.0001	-5e-05	4
41685	-0.0001	-0.00014	-0.00026	-0.00053	-0.00031	-0.00027	-0.0001	-5e-05	4
41686	-0.0001	-0.00014	-0.00026	-0.00053	-0.00031	-0.00027	-0.0001	-5e-05	4
41689	-0.0001	-0.00014	-0.00026	-0.00053	-0.00031	-0.00027	-0.0001	-5e-05	4
41690	-0.0001	-0.00014	-0.00026	-0.00053	-0.00031	-0.00027	-0.0001	-5e-05	4
41691	-0.0001	-0.00014	-0.00026	-0.00053	-0.00031	-0.00027	-0.0001	-5e-05	4
41692	-0.0001	-0.00014	-0.00026	-0.00053	-0.00031	-0.00027	-0.0001	-5e-05	4
41693	-0.0001	-0.00014	-0.00026	-0.00053	-0.00031	-0.00027	-0.0001	-5e-05	4
41694	-0.0001	-0.00014	-0.00026	-0.00053	-0.00031	-0.00027	-0.0001	-5e-05	4
41695	-0.0001	-0.00014	-0.00026	-0.00053	-0.00031	-0.00027	-0.0001	-5e-05	4
41696	-0.0001	-0.00014	-0.00026	-0.00053	-0.00031	-0.00027	-0.0001	-5e-05	4
41697	-0.0001	-0.00014	-0.00026	-0.00053	-0.00031	-0.00027	-0.0001	-5e-05	4
