12366	0.0003	7e-05	1e-05	-3e-05	4e-05	0.00019	-0.00043	0.00011	3
12367	0.0011	0.00022	5e-05	2e-05	2e-05	0.00022	0.00019	0.00029	3
12368	0.0011	0.00022	5e-05	2e-05	2e-05	0.00022	0.00019	0.00029	3
12369	0.0011	0.00022	5e-05	2e-05	2e-05	0.00022	0.00019	0.00029	3
12370	0.0011	0.00022	5e-05	2e-05	2e-05	0.00022	0.00019	0.00029	3
12371	0.0011	0.00022	5e-05	2e-05	2e-05	0.00022	0.00019	0.00029	3
12372	0.0011	0.00022	5e-05	2e-05	2e-05	0.00022	0.00019	0.00029	3
12373	0.0011	0.00022	5e-05	2e-05	2e-05	0.00022	0.00019	0.00029	3
12374	0.0011	0.00022	5e-05	2e-05	2e-05	0.00022	0.00019	0.00029	3
12375	0.0011	0.00022	5e-05	2e-05	2e-05	0.00022	0.00019	0.00029	3
12376	0.0011	0.00022	5e-05	2e-05	2e-05	0.00022	0.00019	0.00029	3
12377	0.0011	0.00022	5e-05	2e-05	2e-05	0.00022	0.00019	0.00029	3
12378	0.0011	0.00022	5e-05	2e-05	2e-05	0.00022	0.00019	0.00029	3
12379	0.0011	0.00022	5e-05	2e-05	2e-05	0.00022	0.00019	0.00029	3
12380	0.0011	0.00022	5e-05	2e-05	2e-05	0.00022	0.00019	0.00029	3
12381	0.0011	0.00022	5e-05	2e-05	2e-05	0.00022	0.00019	0.00029	3
12382	0.0011	0.00022	5e-05	2e-05	2e-05	0.00022	0.00019	0.00029	3
12383	0.0011	0.00022	5e-05	2e-05	2e-05	0.00022	0.00019	0.00029	3
12384	0.0011	0.00022	5e-05	2e-05	2e-05	0.00022	0.00019	0.00029	3
12385	0.0011	0.00022	5e-05	2e-05	2e-05	0.00022	0.00019	0.00029	3
12386	0.00086	0.00011	0	2e-05	3e-05	0.00014	0.00043	0.00046	3
12389	0.00063	6e-05	-5e-05	-5e-05	-0.0001	-5e-05	0.00031	-0.00032	3
12390	0.00063	6e-05	-5e-05	-5e-05	-0.0001	-5e-05	0.00031	-0.00032	3
12391	0.00063	6e-05	-5e-05	-5e-05	-0.0001	-5e-05	0.00031	-0.00032	3
12392	0.00063	6e-05	-5e-05	-5e-05	-0.0001	-5e-05	0.00031	-0.00032	3
12393	0.00063	6e-05	-5e-05	-5e-05	-0.0001	-5e-05	0.00031	-0.00032	3
12394	0.00063	6e-05	-5e-05	-5e-05	-0.0001	-5e-05	0.00031	-0.00032	3
12395	0.00063	6e-05	-5e-05	-5e-05	-0.0001	-5e-05	0.00031	-0.00032	3
12396	0.00063	6e-05	-5e-05	-5e-05	-0.0001	-5e-05	0.00031	-0.00032	3
12397	0.00063	6e-05	-5e-05	-5e-05	-0.0001	-5e-05	0.00031	-0.00032	3
12398	0.00063	6e-05	-5e-05	-5e-05	-0.0001	-5e-05	0.00031	-0.00032	3
12399	0.00015	6e-05	2e-05	4e-05	-8e-05	-0.00032	-0.00072	-0.00044	3
12400	0.00015	6e-05	2e-05	4e-05	-8e-05	-0.00032	-0.00072	-0.00044	3
12401	0.00015	6e-05	2e-05	4e-05	-8e-05	-0.00032	-0.00072	-0.00044	3
12402	0.00015	6e-05	2e-05	4e-05	-8e-05	-0.00032	-0.00072	-0.00044	3
12403	0.00015	6e-05	2e-05	4e-05	-8e-05	-0.00032	-0.00072	-0.00044	3
12404	0.00015	6e-05	2e-05	4e-05	-8e-05	-0.00032	-0.00072	-0.00044	3
12405	0.00015	6e-05	2e-05	4e-05	-8e-05	-0.00032	-0.00072	-0.00044	3
12406	0.00015	6e-05	2e-05	4e-05	-8e-05	-0.00032	-0.00072	-0.00044	3
12407	0.00015	6e-05	2e-05	4e-05	-8e-05	-0.00032	-0.00072	-0.00044	3
12408	5e-05	1e-05	-1e-05	0	-7e-05	-2e-05	-0.00061	-0.00062	3
12410	5e-05	1e-05	-1e-05	0	-7e-05	-2e-05	-0.00061	-0.00062	3
12411	5e-05	1e-05	-1e-05	0	-7e-05	-2e-05	-0.00061	-0.00062	3
12412	5e-05	1e-05	-1e-05	0	-7e-05	-2e-05	-0.00061	-0.00062	3
12413	5e-05	1e-05	-1e-05	0	-7e-05	-2e-05	-0.00061	-0.00062	3
12414	5e-05	1e-05	-1e-05	0	-7e-05	-2e-05	-0.00061	-0.00062	3
12415	5e-05	1e-05	-1e-05	0	-7e-05	-2e-05	-0.00061	-0.00062	3
12416	5e-05	1e-05	-1e-05	0	-7e-05	-2e-05	-0.00061	-0.00062	3
12417	5e-05	1e-05	-1e-05	0	-7e-05	-2e-05	-0.00061	-0.00062	3
12418	5e-05	1e-05	-1e-05	0	-7e-05	-2e-05	-0.00061	-0.00062	3
12419	5e-05	1e-05	-1e-05	0	-7e-05	-2e-05	-0.00061	-0.00062	3
12420	5e-05	1e-05	-1e-05	0	-7e-05	-2e-05	-0.00061	-0.00062	3
12421	5e-05	1e-05	-1e-05	0	-7e-05	-2e-05	-0.00061	-0.00062	3
12422	5e-05	1e-05	-1e-05	0	-7e-05	-2e-05	-0.00061	-0.00062	3
12423	-0.00068	-0.00023	-0.00013	-8e-05	-9e-05	4e-05	0.00019	-0.00018	3
12424	-0.00068	-0.00023	-0.00013	-8e-05	-9e-05	4e-05	0.00019	-0.00018	3
12425	-0.00023	-0.0001	-3e-05	-3e-05	-1e-05	0	0.0006	0.00016	3
12426	-0.00023	-0.0001	-3e-05	-3e-05	-1e-05	0	0.0006	0.00016	3
12427	-0.00023	-0.0001	-3e-05	-3e-05	-1e-05	0	0.0006	0.00016	3
12428	-0.00023	-0.0001	-3e-05	-3e-05	-1e-05	0	0.0006	0.00016	3
12429	-0.00023	-0.0001	-3e-05	-3e-05	-1e-05	0	0.0006	0.00016	3
12430	-0.00023	-0.0001	-3e-05	-3e-05	-1e-05	0	0.0006	0.00016	3
12431	-0.00023	-0.0001	-3e-05	-3e-05	-1e-05	0	0.0006	0.00016	3
12432	-0.00023	-0.0001	-3e-05	-3e-05	-1e-05	0	0.0006	0.00016	3
12433	-0.00023	-0.0001	-3e-05	-3e-05	-1e-05	0	0.0006	0.00016	3
12434	-0.00023	-0.0001	-3e-05	-3e-05	-1e-05	0	0.0006	0.00016	3
12435	-0.00023	-0.0001	-3e-05	-3e-05	-1e-05	0	0.0006	0.00016	3
12436	-0.00023	-0.0001	-3e-05	-3e-05	-1e-05	0	0.0006	0.00016	3
12439	-0.00023	-0.0001	-3e-05	-3e-05	-1e-05	0	0.0006	0.00016	3
12440	-0.00023	-0.0001	-3e-05	-3e-05	-1e-05	0	0.0006	0.00016	3
12441	-0.00023	-0.0001	-3e-05	-3e-05	-1e-05	0	0.0006	0.00016	3
12442	-0.00023	-0.0001	-3e-05	-3e-05	-1e-05	0	0.0006	0.00016	3
12443	-0.00023	-0.0001	-3e-05	-3e-05	-1e-05	0	0.0006	0.00016	3
12444	-0.00023	-0.0001	-3e-05	-3e-05	-1e-05	0	0.0006	0.00016	3
12445	-0.00023	-0.0001	-3e-05	-3e-05	-1e-05	0	0.0006	0.00016	3
12446	-1e-05	5e-05	3e-05	0	2e-05	0.00012	0.00026	0.00026	3
12447	-1e-05	5e-05	3e-05	0	2e-05	0.00012	0.00026	0.00026	3
12448	0.00031	0.00013	2e-05	5e-05	0.0001	-5e-05	-0.00033	-0.00022	3
12449	0.00031	0.00013	2e-05	5e-05	0.0001	-5e-05	-0.00033	-0.00022	3
12450	0.00031	0.00013	2e-05	5e-05	0.0001	-5e-05	-0.00033	-0.00022	3
12451	0.00031	0.00013	2e-05	5e-05	0.0001	-5e-05	-0.00033	-0.00022	3
12452	0.00031	0.00013	2e-05	5e-05	0.0001	-5e-05	-0.00033	-0.00022	3
12453	0.00031	0.00013	2e-05	5e-05	0.0001	-5e-05	-0.00033	-0.00022	3
12454	0.00031	0.00013	2e-05	5e-05	0.0001	-5e-05	-0.00033	-0.00022	3
12455	0.00031	0.00013	2e-05	5e-05	0.0001	-5e-05	-0.00033	-0.00022	3
12456	0.00031	0.00013	2e-05	5e-05	0.0001	-5e-05	-0.00033	-0.00022	3
12457	0.00031	0.00013	2e-05	5e-05	0.0001	-5e-05	-0.00033	-0.00022	3
12458	0.00031	0.00013	2e-05	5e-05	0.0001	-5e-05	-0.00033	-0.00022	3
12459	0.00031	0.00013	2e-05	5e-05	0.0001	-5e-05	-0.00033	-0.00022	3
12460	0.00031	0.00013	2e-05	5e-05	0.0001	-5e-05	-0.00033	-0.00022	3
12461	0.00031	0.00013	2e-05	5e-05	0.0001	-5e-05	-0.00033	-0.00022	3
12462	0.00031	0.00013	2e-05	5e-05	0.0001	-5e-05	-0.00033	-0.00022	3
12463	0.00031	0.00013	2e-05	5e-05	0.0001	-5e-05	-0.00033	-0.00022	3
12464	0.00031	0.00013	2e-05	5e-05	0.0001	-5e-05	-0.00033	-0.00022	3
12465	0.00031	0.00013	2e-05	5e-05	0.0001	-5e-05	-0.00033	-0.00022	3
12466	0.00031	0.00013	2e-05	5e-05	0.0001	-5e-05	-0.00033	-0.00022	3
12467	0.00031	0.00013	2e-05	5e-05	0.0001	-5e-05	-0.00033	-0.00022	3
12468	0.00031	0.00013	2e-05	5e-05	0.0001	-5e-05	-0.00033	-0.00022	3
12469	-0.00068	-0.00039	-0.00011	-4e-05	6e-05	0.00013	-0.00015	-0.00072	3
12470	0.00058	3e-05	-3e-05	-1e-05	-9e-05	-6e-05	0.00037	0.00013	3
12471	-0.00078	-0.00022	-4e-05	-4e-05	-0.00012	-0.00027	-0.00078	-0.00027	3
12472	-0.00078	-0.00022	-4e-05	-4e-05	-0.00012	-0.00027	-0.00078	-0.00027	3
12473	-0.00078	-0.00022	-4e-05	-4e-05	-0.00012	-0.00027	-0.00078	-0.00027	3
12474	-0.00078	-0.00022	-4e-05	-4e-05	-0.00012	-0.00027	-0.00078	-0.00027	3
12475	-0.00078	-0.00022	-4e-05	-4e-05	-0.00012	-0.00027	-0.00078	-0.00027	3
12476	-0.00078	-0.00022	-4e-05	-4e-05	-0.00012	-0.00027	-0.00078	-0.00027	3
12477	-0.00078	-0.00022	-4e-05	-4e-05	-0.00012	-0.00027	-0.00078	-0.00027	3
12478	-0.00078	-0.00022	-4e-05	-4e-05	-0.00012	-0.00027	-0.00078	-0.00027	3
12479	-0.00078	-0.00022	-4e-05	-4e-05	-0.00012	-0.00027	-0.00078	-0.00027	3
12480	-0.00078	-0.00022	-4e-05	-4e-05	-0.00012	-0.00027	-0.00078	-0.00027	3
12481	-0.00078	-0.00022	-4e-05	-4e-05	-0.00012	-0.00027	-0.00078	-0.00027	3
12482	-0.00078	-0.00022	-4e-05	-4e-05	-0.00012	-0.00027	-0.00078	-0.00027	3
12483	-0.00078	-0.00022	-4e-05	-4e-05	-0.00012	-0.00027	-0.00078	-0.00027	3
12484	-0.00078	-0.00022	-4e-05	-4e-05	-0.00012	-0.00027	-0.00078	-0.00027	3
12485	-0.00078	-0.00022	-4e-05	-4e-05	-0.00012	-0.00027	-0.00078	-0.00027	3
12486	-0.00078	-0.00022	-4e-05	-4e-05	-0.00012	-0.00027	-0.00078	-0.00027	3
12489	-0.00078	-0.00022	-4e-05	-4e-05	-0.00012	-0.00027	-0.00078	-0.00027	3
12490	-0.00078	-0.00022	-4e-05	-4e-05	-0.00012	-0.00027	-0.00078	-0.00027	3
12491	-0.00014	0.00014	7e-05	8e-05	0.00012	0.00015	0.00076	0.00034	3
12492	2e-05	4e-05	0	-3e-05	-1e-05	6e-05	-2e-05	-0.00029	3
12493	-0.00087	-0.00014	-6e-05	-3e-05	-0.0001	-6e-05	-0.00018	-2e-05	3
12494	-0.00087	-0.00014	-6e-05	-3e-05	-0.0001	-6e-05	-0.00018	-2e-05	3
12495	-0.00087	-0.00014	-6e-05	-3e-05	-0.0001	-6e-05	-0.00018	-2e-05	3
12496	-0.00087	-0.00014	-6e-05	-3e-05	-0.0001	-6e-05	-0.00018	-2e-05	3
12497	-0.00087	-0.00014	-6e-05	-3e-05	-0.0001	-6e-05	-0.00018	-2e-05	3
12498	-0.00087	-0.00014	-6e-05	-3e-05	-0.0001	-6e-05	-0.00018	-2e-05	3
12499	-0.00087	-0.00014	-6e-05	-3e-05	-0.0001	-6e-05	-0.00018	-2e-05	3
12500	-0.00087	-0.00014	-6e-05	-3e-05	-0.0001	-6e-05	-0.00018	-2e-05	3
12501	-0.00087	-0.00014	-6e-05	-3e-05	-0.0001	-6e-05	-0.00018	-2e-05	3
12502	-0.00087	-0.00014	-6e-05	-3e-05	-0.0001	-6e-05	-0.00018	-2e-05	3
12503	-0.00087	-0.00014	-6e-05	-3e-05	-0.0001	-6e-05	-0.00018	-2e-05	3
12504	-0.00087	-0.00014	-6e-05	-3e-05	-0.0001	-6e-05	-0.00018	-2e-05	3
12505	-0.00087	-0.00014	-6e-05	-3e-05	-0.0001	-6e-05	-0.00018	-2e-05	3
12506	0.00122	0.00023	5e-05	5e-05	7e-05	0.00021	0.00026	0.00043	3
12507	-0.0007	-0.00019	-8e-05	-9e-05	-8e-05	-0.00051	-0.0002	-0.00016	3
12508	0.00027	0.00011	0	0	-0.0001	-0.0001	-0.00037	-4e-05	3
12509	0.00027	0.00011	0	0	-0.0001	-0.0001	-0.00037	-4e-05	3
12510	0.00027	0.00011	0	0	-0.0001	-0.0001	-0.00037	-4e-05	3
12511	0.00027	0.00011	0	0	-0.0001	-0.0001	-0.00037	-4e-05	3
12512	0.00027	0.00011	0	0	-0.0001	-0.0001	-0.00037	-4e-05	3
12513	0.00027	0.00011	0	0	-0.0001	-0.0001	-0.00037	-4e-05	3
12514	0.00027	0.00011	0	0	-0.0001	-0.0001	-0.00037	-4e-05	3
12515	0.00027	0.00011	0	0	-0.0001	-0.0001	-0.00037	-4e-05	3
12516	0.00027	0.00011	0	0	-0.0001	-0.0001	-0.00037	-4e-05	3
12517	0.00027	0.00011	0	0	-0.0001	-0.0001	-0.00037	-4e-05	3
12518	0.00027	0.00011	0	0	-0.0001	-0.0001	-0.00037	-4e-05	3
12519	0.00027	0.00011	0	0	-0.0001	-0.0001	-0.00037	-4e-05	3
12520	0.00053	0.00027	0.0001	7e-05	0.0001	-2e-05	-0.00011	0.00022	3
12521	0.00053	0.00027	0.0001	7e-05	0.0001	-2e-05	-0.00011	0.00022	3
12522	0.00053	0.00027	0.0001	7e-05	0.0001	-2e-05	-0.00011	0.00022	3
12523	0.00053	0.00027	0.0001	7e-05	0.0001	-2e-05	-0.00011	0.00022	3
12524	0.00053	0.00027	0.0001	7e-05	0.0001	-2e-05	-0.00011	0.00022	3
12525	0.00053	0.00027	0.0001	7e-05	0.0001	-2e-05	-0.00011	0.00022	3
12526	0.00053	0.00027	0.0001	7e-05	0.0001	-2e-05	-0.00011	0.00022	3
12527	0.00053	0.00027	0.0001	7e-05	0.0001	-2e-05	-0.00011	0.00022	3
12528	0.00012	-8e-05	7e-05	4e-05	8e-05	0.00025	0.00122	0.00025	3
12530	0.00012	-8e-05	7e-05	4e-05	8e-05	0.00025	0.00122	0.00025	3
12531	0.00012	-8e-05	7e-05	4e-05	8e-05	0.00025	0.00122	0.00025	3
12532	0.00012	-8e-05	7e-05	4e-05	8e-05	0.00025	0.00122	0.00025	3
12533	0.00012	-8e-05	7e-05	4e-05	8e-05	0.00025	0.00122	0.00025	3
12534	0.00012	-8e-05	7e-05	4e-05	8e-05	0.00025	0.00122	0.00025	3
12535	0.00012	-8e-05	7e-05	4e-05	8e-05	0.00025	0.00122	0.00025	3
12536	0.00012	-8e-05	7e-05	4e-05	8e-05	0.00025	0.00122	0.00025	3
12539	0.00012	-8e-05	7e-05	4e-05	8e-05	0.00025	0.00122	0.00025	3
12540	0.00012	-8e-05	7e-05	4e-05	8e-05	0.00025	0.00122	0.00025	3
12541	0.00012	-8e-05	7e-05	4e-05	8e-05	0.00025	0.00122	0.00025	3
12542	0.00012	-8e-05	7e-05	4e-05	8e-05	0.00025	0.00122	0.00025	3
12543	0.00012	-8e-05	7e-05	4e-05	8e-05	0.00025	0.00122	0.00025	3
12544	0.0004	0.00013	5e-05	7e-05	0.00012	0.00031	0.00059	0.00052	3
12545	0.00057	5e-05	-7e-05	-2e-05	-2e-05	-0.00016	-5e-05	0.00037	3
12546	0.00057	5e-05	-7e-05	-2e-05	-2e-05	-0.00016	-5e-05	0.00037	3
12547	0.00057	5e-05	-7e-05	-2e-05	-2e-05	-0.00016	-5e-05	0.00037	3
12548	0.00057	5e-05	-7e-05	-2e-05	-2e-05	-0.00016	-5e-05	0.00037	3
12549	0.00057	5e-05	-7e-05	-2e-05	-2e-05	-0.00016	-5e-05	0.00037	3
12550	0.00057	5e-05	-7e-05	-2e-05	-2e-05	-0.00016	-5e-05	0.00037	3
12551	0.00057	5e-05	-7e-05	-2e-05	-2e-05	-0.00016	-5e-05	0.00037	3
12552	0.00057	5e-05	-7e-05	-2e-05	-2e-05	-0.00016	-5e-05	0.00037	3
12553	0.00057	5e-05	-7e-05	-2e-05	-2e-05	-0.00016	-5e-05	0.00037	3
12554	0.00057	5e-05	-7e-05	-2e-05	-2e-05	-0.00016	-5e-05	0.00037	3
12555	0.00057	5e-05	-7e-05	-2e-05	-2e-05	-0.00016	-5e-05	0.00037	3
12556	0.00057	5e-05	-7e-05	-2e-05	-2e-05	-0.00016	-5e-05	0.00037	3
12557	0.00057	5e-05	-7e-05	-2e-05	-2e-05	-0.00016	-5e-05	0.00037	3
12558	0.00057	5e-05	-7e-05	-2e-05	-2e-05	-0.00016	-5e-05	0.00037	3
12559	0.00057	5e-05	-7e-05	-2e-05	-2e-05	-0.00016	-5e-05	0.00037	3
12560	0.00057	5e-05	-7e-05	-2e-05	-2e-05	-0.00016	-5e-05	0.00037	3
12561	0.00057	5e-05	-7e-05	-2e-05	-2e-05	-0.00016	-5e-05	0.00037	3
12562	0.00057	5e-05	-7e-05	-2e-05	-2e-05	-0.00016	-5e-05	0.00037	3
12563	0.00057	5e-05	-7e-05	-2e-05	-2e-05	-0.00016	-5e-05	0.00037	3
12564	0.00057	5e-05	-7e-05	-2e-05	-2e-05	-0.00016	-5e-05	0.00037	3
12565	0.00057	5e-05	-7e-05	-2e-05	-2e-05	-0.00016	-5e-05	0.00037	3
12566	-0.00047	-3e-05	6e-05	0.00011	5e-05	9e-05	-0.00031	-0.00031	3
12567	-0.00066	-0.00023	-8e-05	-8e-05	-0.00013	-0.00017	0.00025	-6e-05	3
12568	-0.00066	-0.00023	-8e-05	-8e-05	-0.00013	-0.00017	0.00025	-6e-05	3
12569	-0.00066	-0.00023	-8e-05	-8e-05	-0.00013	-0.00017	0.00025	-6e-05	3
12570	-0.00066	-0.00023	-8e-05	-8e-05	-0.00013	-0.00017	0.00025	-6e-05	3
12571	-0.00066	-0.00023	-8e-05	-8e-05	-0.00013	-0.00017	0.00025	-6e-05	3
12572	-0.00066	-0.00023	-8e-05	-8e-05	-0.00013	-0.00017	0.00025	-6e-05	3
12573	-0.00066	-0.00023	-8e-05	-8e-05	-0.00013	-0.00017	0.00025	-6e-05	3
12574	-0.00066	-0.00023	-8e-05	-8e-05	-0.00013	-0.00017	0.00025	-6e-05	3
12575	-0.00066	-0.00023	-8e-05	-8e-05	-0.00013	-0.00017	0.00025	-6e-05	3
12576	-0.00066	-0.00023	-8e-05	-8e-05	-0.00013	-0.00017	0.00025	-6e-05	3
12577	-0.00066	-0.00023	-8e-05	-8e-05	-0.00013	-0.00017	0.00025	-6e-05	3
12578	-0.00066	-0.00023	-8e-05	-8e-05	-0.00013	-0.00017	0.00025	-6e-05	3
12579	-0.00066	-0.00023	-8e-05	-8e-05	-0.00013	-0.00017	0.00025	-6e-05	3
12580	0.00046	3e-05	-5e-05	-5e-05	-7e-05	-8e-05	-1e-05	0.00018	3
12581	0.00046	3e-05	-5e-05	-5e-05	-7e-05	-8e-05	-1e-05	0.00018	3
12582	0.00046	3e-05	-5e-05	-5e-05	-7e-05	-8e-05	-1e-05	0.00018	3
12583	0.00046	3e-05	-5e-05	-5e-05	-7e-05	-8e-05	-1e-05	0.00018	3
12584	0.00046	3e-05	-5e-05	-5e-05	-7e-05	-8e-05	-1e-05	0.00018	3
12585	0.00046	3e-05	-5e-05	-5e-05	-7e-05	-8e-05	-1e-05	0.00018	3
12586	0.00046	3e-05	-5e-05	-5e-05	-7e-05	-8e-05	-1e-05	0.00018	3
12589	-2e-05	8e-05	2e-05	-4e-05	-4e-05	6e-05	2e-05	0.00017	3
12590	-2e-05	8e-05	2e-05	-4e-05	-4e-05	6e-05	2e-05	0.00017	3
12591	-2e-05	8e-05	2e-05	-4e-05	-4e-05	6e-05	2e-05	0.00017	3
12592	-2e-05	8e-05	2e-05	-4e-05	-4e-05	6e-05	2e-05	0.00017	3
12593	-2e-05	8e-05	2e-05	-4e-05	-4e-05	6e-05	2e-05	0.00017	3
12594	-2e-05	8e-05	2e-05	-4e-05	-4e-05	6e-05	2e-05	0.00017	3
12595	-2e-05	8e-05	2e-05	-4e-05	-4e-05	6e-05	2e-05	0.00017	3
12596	-2e-05	8e-05	2e-05	-4e-05	-4e-05	6e-05	2e-05	0.00017	3
12597	-2e-05	8e-05	2e-05	-4e-05	-4e-05	6e-05	2e-05	0.00017	3
12598	-2e-05	8e-05	2e-05	-4e-05	-4e-05	6e-05	2e-05	0.00017	3
12599	-2e-05	8e-05	2e-05	-4e-05	-4e-05	6e-05	2e-05	0.00017	3
12600	-2e-05	8e-05	2e-05	-4e-05	-4e-05	6e-05	2e-05	0.00017	3
12601	-2e-05	8e-05	2e-05	-4e-05	-4e-05	6e-05	2e-05	0.00017	3
12602	-2e-05	8e-05	2e-05	-4e-05	-4e-05	6e-05	2e-05	0.00017	3
12603	-2e-05	-9e-05	-6e-05	-4e-05	-4e-05	0.00012	0.00022	0.0002	3
12604	-2e-05	-9e-05	-6e-05	-4e-05	-4e-05	0.00012	0.00022	0.0002	3
12605	0.0001	7e-05	0	2e-05	4e-05	-6e-05	0.00016	3e-05	3
12606	0.0001	7e-05	0	2e-05	4e-05	-6e-05	0.00016	3e-05	3
12607	0.0001	7e-05	0	2e-05	4e-05	-6e-05	0.00016	3e-05	3
12608	0.0001	7e-05	0	2e-05	4e-05	-6e-05	0.00016	3e-05	3
12609	0.0001	7e-05	0	2e-05	4e-05	-6e-05	0.00016	3e-05	3
12610	0.0001	7e-05	0	2e-05	4e-05	-6e-05	0.00016	3e-05	3
12611	0.0001	7e-05	0	2e-05	4e-05	-6e-05	0.00016	3e-05	3
12612	0.0001	7e-05	0	2e-05	4e-05	-6e-05	0.00016	3e-05	3
12613	0.0001	7e-05	0	2e-05	4e-05	-6e-05	0.00016	3e-05	3
12614	0.0001	7e-05	0	2e-05	4e-05	-6e-05	0.00016	3e-05	3
12615	0.0001	7e-05	0	2e-05	4e-05	-6e-05	0.00016	3e-05	3
12616	0.0001	7e-05	0	2e-05	4e-05	-6e-05	0.00016	3e-05	3
12617	0.0001	7e-05	0	2e-05	4e-05	-6e-05	0.00016	3e-05	3
12618	0.0001	7e-05	0	2e-05	4e-05	-6e-05	0.00016	3e-05	3
12619	0.0001	7e-05	0	2e-05	4e-05	-6e-05	0.00016	3e-05	3
12620	0.0001	7e-05	0	2e-05	4e-05	-6e-05	0.00016	3e-05	3
12621	0.0001	7e-05	0	2e-05	4e-05	-6e-05	0.00016	3e-05	3
12622	0.0001	7e-05	0	2e-05	4e-05	-6e-05	0.00016	3e-05	3
12623	0.0001	7e-05	0	2e-05	4e-05	-6e-05	0.00016	3e-05	3
12624	0.0001	7e-05	0	2e-05	4e-05	-6e-05	0.00016	3e-05	3
12625	0.0001	7e-05	0	2e-05	4e-05	-6e-05	0.00016	3e-05	3
12626	0.00015	-4e-05	-5e-05	-9e-05	-0.00012	-0.00025	-0.00013	0	3
12627	-0.00019	-2e-05	-2e-05	0	4e-05	3e-05	0.00021	-7e-05	3
12628	-0.00019	-2e-05	-2e-05	0	4e-05	3e-05	0.00021	-7e-05	3
12629	-0.00019	-2e-05	-2e-05	0	4e-05	3e-05	0.00021	-7e-05	3
12630	-0.00019	-2e-05	-2e-05	0	4e-05	3e-05	0.00021	-7e-05	3
12631	-0.00019	-2e-05	-2e-05	0	4e-05	3e-05	0.00021	-7e-05	3
12632	-0.00019	-2e-05	-2e-05	0	4e-05	3e-05	0.00021	-7e-05	3
12633	-0.00019	-2e-05	-2e-05	0	4e-05	3e-05	0.00021	-7e-05	3
12634	-0.00019	-2e-05	-2e-05	0	4e-05	3e-05	0.00021	-7e-05	3
12635	-0.00019	-2e-05	-2e-05	0	4e-05	3e-05	0.00021	-7e-05	3
12636	-0.00019	-2e-05	-2e-05	0	4e-05	3e-05	0.00021	-7e-05	3
12638	-0.00019	-2e-05	-2e-05	0	4e-05	3e-05	0.00021	-7e-05	3
12639	0.00123	0.00021	7e-05	5e-05	4e-05	0.00011	0.00051	0.00021	3
12640	0.00123	0.00021	7e-05	5e-05	4e-05	0.00011	0.00051	0.00021	3
12641	0.00123	0.00021	7e-05	5e-05	4e-05	0.00011	0.00051	0.00021	3
12642	0.00123	0.00021	7e-05	5e-05	4e-05	0.00011	0.00051	0.00021	3
12643	0.00123	0.00021	7e-05	5e-05	4e-05	0.00011	0.00051	0.00021	3
12644	0.00123	0.00021	7e-05	5e-05	4e-05	0.00011	0.00051	0.00021	3
12645	0.00123	0.00021	7e-05	5e-05	4e-05	0.00011	0.00051	0.00021	3
12646	0.00123	0.00021	7e-05	5e-05	4e-05	0.00011	0.00051	0.00021	3
12647	0.00123	0.00021	7e-05	5e-05	4e-05	0.00011	0.00051	0.00021	3
12648	0.00123	0.00021	7e-05	5e-05	4e-05	0.00011	0.00051	0.00021	3
12649	-0.00042	-0.00013	-4e-05	5e-05	4e-05	5e-05	-0.00082	-0.0006	3
12650	-0.00042	-0.00013	-4e-05	5e-05	4e-05	5e-05	-0.00082	-0.0006	3
12651	-0.00042	-0.00013	-4e-05	5e-05	4e-05	5e-05	-0.00082	-0.0006	3
12652	-0.00042	-0.00013	-4e-05	5e-05	4e-05	5e-05	-0.00082	-0.0006	3
12653	-0.00042	-0.00013	-4e-05	5e-05	4e-05	5e-05	-0.00082	-0.0006	3
12654	-0.00042	-0.00013	-4e-05	5e-05	4e-05	5e-05	-0.00082	-0.0006	3
12655	-0.00042	-0.00013	-4e-05	5e-05	4e-05	5e-05	-0.00082	-0.0006	3
12656	-0.00042	-0.00013	-4e-05	5e-05	4e-05	5e-05	-0.00082	-0.0006	3
12657	-0.00042	-0.00013	-4e-05	5e-05	4e-05	5e-05	-0.00082	-0.0006	3
12658	-0.00042	-0.00013	-4e-05	5e-05	4e-05	5e-05	-0.00082	-0.0006	3
12659	-0.00042	-0.00013	-4e-05	5e-05	4e-05	5e-05	-0.00082	-0.0006	3
12660	-0.00042	-0.00013	-4e-05	5e-05	4e-05	5e-05	-0.00082	-0.0006	3
12661	-0.00042	-0.00013	-4e-05	5e-05	4e-05	5e-05	-0.00082	-0.0006	3
12662	-0.00042	-0.00013	-4e-05	5e-05	4e-05	5e-05	-0.00082	-0.0006	3
12663	0.00044	0.00013	3e-05	5e-05	7e-05	3e-05	-1e-05	0.00019	3
12664	0.00044	0.00013	3e-05	5e-05	7e-05	3e-05	-1e-05	0.00019	3
12665	0.00073	0.00017	3e-05	1e-05	7e-05	0.0003	0.00055	0.0001	3
12666	-0.00064	-0.00013	-9e-05	-0.0001	-0.00013	-9e-05	-0.0003	-0.0004	3
12667	-0.00064	-0.00013	-9e-05	-0.0001	-0.00013	-9e-05	-0.0003	-0.0004	3
12668	-0.00064	-0.00013	-9e-05	-0.0001	-0.00013	-9e-05	-0.0003	-0.0004	3
12669	-0.00064	-0.00013	-9e-05	-0.0001	-0.00013	-9e-05	-0.0003	-0.0004	3
12670	-0.00064	-0.00013	-9e-05	-0.0001	-0.00013	-9e-05	-0.0003	-0.0004	3
12671	-0.00064	-0.00013	-9e-05	-0.0001	-0.00013	-9e-05	-0.0003	-0.0004	3
12672	-0.00064	-0.00013	-9e-05	-0.0001	-0.00013	-9e-05	-0.0003	-0.0004	3
12673	-0.00064	-0.00013	-9e-05	-0.0001	-0.00013	-9e-05	-0.0003	-0.0004	3
12674	-0.00064	-0.00013	-9e-05	-0.0001	-0.00013	-9e-05	-0.0003	-0.0004	3
12675	-0.00064	-0.00013	-9e-05	-0.0001	-0.00013	-9e-05	-0.0003	-0.0004	3
12676	-0.00064	-0.00013	-9e-05	-0.0001	-0.00013	-9e-05	-0.0003	-0.0004	3
12677	-0.00064	-0.00013	-9e-05	-0.0001	-0.00013	-9e-05	-0.0003	-0.0004	3
12678	-0.00064	-0.00013	-9e-05	-0.0001	-0.00013	-9e-05	-0.0003	-0.0004	3
12679	-0.00064	-0.00013	-9e-05	-0.0001	-0.00013	-9e-05	-0.0003	-0.0004	3
12680	-0.00064	-0.00013	-9e-05	-0.0001	-0.00013	-9e-05	-0.0003	-0.0004	3
12681	-0.00064	-0.00013	-9e-05	-0.0001	-0.00013	-9e-05	-0.0003	-0.0004	3
12682	-0.00064	-0.00013	-9e-05	-0.0001	-0.00013	-9e-05	-0.0003	-0.0004	3
12683	-0.00064	-0.00013	-9e-05	-0.0001	-0.00013	-9e-05	-0.0003	-0.0004	3
12684	-0.00064	-0.00013	-9e-05	-0.0001	-0.00013	-9e-05	-0.0003	-0.0004	3
12685	-0.00064	-0.00013	-9e-05	-0.0001	-0.00013	-9e-05	-0.0003	-0.0004	3
12686	0.00025	5e-05	-4e-05	-1e-05	-6e-05	-2e-05	-0.00025	-0.00022	3
12689	0.00056	6e-05	2e-05	0	-1e-05	-1e-05	6e-05	0.00024	3
12690	0.00056	6e-05	2e-05	0	-1e-05	-1e-05	6e-05	0.00024	3
12691	0.00056	6e-05	2e-05	0	-1e-05	-1e-05	6e-05	0.00024	3
12692	0.00056	6e-05	2e-05	0	-1e-05	-1e-05	6e-05	0.00024	3
12693	0.00056	6e-05	2e-05	0	-1e-05	-1e-05	6e-05	0.00024	3
12694	0.00056	6e-05	2e-05	0	-1e-05	-1e-05	6e-05	0.00024	3
12695	0.00056	6e-05	2e-05	0	-1e-05	-1e-05	6e-05	0.00024	3
12696	0.00056	6e-05	2e-05	0	-1e-05	-1e-05	6e-05	0.00024	3
12697	0.00056	6e-05	2e-05	0	-1e-05	-1e-05	6e-05	0.00024	3
12698	0.00056	6e-05	2e-05	0	-1e-05	-1e-05	6e-05	0.00024	3
12699	3e-05	0	4e-05	-2e-05	2e-05	5e-05	1e-05	-0.00016	3
12700	3e-05	0	4e-05	-2e-05	2e-05	5e-05	1e-05	-0.00016	3
12701	3e-05	0	4e-05	-2e-05	2e-05	5e-05	1e-05	-0.00016	3
12702	3e-05	0	4e-05	-2e-05	2e-05	5e-05	1e-05	-0.00016	3
12703	3e-05	0	4e-05	-2e-05	2e-05	5e-05	1e-05	-0.00016	3
12704	3e-05	0	4e-05	-2e-05	2e-05	5e-05	1e-05	-0.00016	3
12705	3e-05	0	4e-05	-2e-05	2e-05	5e-05	1e-05	-0.00016	3
12706	3e-05	0	4e-05	-2e-05	2e-05	5e-05	1e-05	-0.00016	3
12707	3e-05	0	4e-05	-2e-05	2e-05	5e-05	1e-05	-0.00016	3
12708	0.00088	6e-05	0	3e-05	3e-05	0.00021	0.00052	0.0004	3
12709	0.00088	6e-05	0	3e-05	3e-05	0.00021	0.00052	0.0004	3
12710	0.00088	6e-05	0	3e-05	3e-05	0.00021	0.00052	0.0004	3
12711	0.00088	6e-05	0	3e-05	3e-05	0.00021	0.00052	0.0004	3
12712	0.00088	6e-05	0	3e-05	3e-05	0.00021	0.00052	0.0004	3
12713	0.00088	6e-05	0	3e-05	3e-05	0.00021	0.00052	0.0004	3
12714	0.00088	6e-05	0	3e-05	3e-05	0.00021	0.00052	0.0004	3
12715	0.00088	6e-05	0	3e-05	3e-05	0.00021	0.00052	0.0004	3
12716	0.00088	6e-05	0	3e-05	3e-05	0.00021	0.00052	0.0004	3
12717	0.00088	6e-05	0	3e-05	3e-05	0.00021	0.00052	0.0004	3
12718	0.00088	6e-05	0	3e-05	3e-05	0.00021	0.00052	0.0004	3
12719	0.00088	6e-05	0	3e-05	3e-05	0.00021	0.00052	0.0004	3
12720	0.00088	6e-05	0	3e-05	3e-05	0.00021	0.00052	0.0004	3
12721	0.00088	6e-05	0	3e-05	3e-05	0.00021	0.00052	0.0004	3
12722	0.00088	6e-05	0	3e-05	3e-05	0.00021	0.00052	0.0004	3
12723	0.00088	6e-05	0	3e-05	3e-05	0.00021	0.00052	0.0004	3
12724	-0.00048	-5e-05	1e-05	-1e-05	1e-05	5e-05	3e-05	-0.00048	3
12725	0.00051	0.00015	0	-1e-05	3e-05	0.00012	0.00032	0.0007	3
12726	0.00051	0.00015	0	-1e-05	3e-05	0.00012	0.00032	0.0007	3
12727	0.00051	0.00015	0	-1e-05	3e-05	0.00012	0.00032	0.0007	3
12728	0.00051	0.00015	0	-1e-05	3e-05	0.00012	0.00032	0.0007	3
12729	0.00051	0.00015	0	-1e-05	3e-05	0.00012	0.00032	0.0007	3
12730	0.00051	0.00015	0	-1e-05	3e-05	0.00012	0.00032	0.0007	3
12731	0.00051	0.00015	0	-1e-05	3e-05	0.00012	0.00032	0.0007	3
12732	0.00051	0.00015	0	-1e-05	3e-05	0.00012	0.00032	0.0007	3
12733	0.00051	0.00015	0	-1e-05	3e-05	0.00012	0.00032	0.0007	3
12734	0.00051	0.00015	0	-1e-05	3e-05	0.00012	0.00032	0.0007	3
12735	0.00051	0.00015	0	-1e-05	3e-05	0.00012	0.00032	0.0007	3
12736	0.00051	0.00015	0	-1e-05	3e-05	0.00012	0.00032	0.0007	3
12739	0.00051	0.00015	0	-1e-05	3e-05	0.00012	0.00032	0.0007	3
12741	0.00051	0.00015	0	-1e-05	3e-05	0.00012	0.00032	0.0007	3
12742	0.00051	0.00015	0	-1e-05	3e-05	0.00012	0.00032	0.0007	3
12743	0.00051	0.00015	0	-1e-05	3e-05	0.00012	0.00032	0.0007	3
12744	0.00051	0.00015	0	-1e-05	3e-05	0.00012	0.00032	0.0007	3
12745	0.00051	0.00015	0	-1e-05	3e-05	0.00012	0.00032	0.0007	3
12746	-0.00048	-0.00015	-6e-05	-7e-05	-4e-05	-3e-05	1e-05	-0.00021	3
12747	-0.00059	-2e-05	2e-05	-3e-05	-3e-05	-1e-05	0.00012	3e-05	3
12748	-0.00059	-2e-05	2e-05	-3e-05	-3e-05	-1e-05	0.00012	3e-05	3
12749	-0.00059	-2e-05	2e-05	-3e-05	-3e-05	-1e-05	0.00012	3e-05	3
12750	-0.00059	-2e-05	2e-05	-3e-05	-3e-05	-1e-05	0.00012	3e-05	3
12751	-0.00059	-2e-05	2e-05	-3e-05	-3e-05	-1e-05	0.00012	3e-05	3
12752	-0.00059	-2e-05	2e-05	-3e-05	-3e-05	-1e-05	0.00012	3e-05	3
12753	-0.00059	-2e-05	2e-05	-3e-05	-3e-05	-1e-05	0.00012	3e-05	3
12754	-0.00059	-2e-05	2e-05	-3e-05	-3e-05	-1e-05	0.00012	3e-05	3
12755	-0.00059	-2e-05	2e-05	-3e-05	-3e-05	-1e-05	0.00012	3e-05	3
12756	-0.00059	-2e-05	2e-05	-3e-05	-3e-05	-1e-05	0.00012	3e-05	3
12757	-0.00059	-2e-05	2e-05	-3e-05	-3e-05	-1e-05	0.00012	3e-05	3
12758	-0.00059	-2e-05	2e-05	-3e-05	-3e-05	-1e-05	0.00012	3e-05	3
12759	-0.00059	-2e-05	2e-05	-3e-05	-3e-05	-1e-05	0.00012	3e-05	3
12760	-0.00059	-2e-05	2e-05	-3e-05	-3e-05	-1e-05	0.00012	3e-05	3
12761	-0.00059	-2e-05	2e-05	-3e-05	-3e-05	-1e-05	0.00012	3e-05	3
12762	-0.00059	-2e-05	2e-05	-3e-05	-3e-05	-1e-05	0.00012	3e-05	3
12763	-0.00059	-2e-05	2e-05	-3e-05	-3e-05	-1e-05	0.00012	3e-05	3
12764	-0.00059	-2e-05	2e-05	-3e-05	-3e-05	-1e-05	0.00012	3e-05	3
12765	-0.00059	-2e-05	2e-05	-3e-05	-3e-05	-1e-05	0.00012	3e-05	3
12766	-0.00059	-2e-05	2e-05	-3e-05	-3e-05	-1e-05	0.00012	3e-05	3
12767	-0.00059	-2e-05	2e-05	-3e-05	-3e-05	-1e-05	0.00012	3e-05	3
12768	-0.00025	-6e-05	-4e-05	-2e-05	-9e-05	-6e-05	0.00018	0.0002	3
12769	-0.00025	-6e-05	-4e-05	-2e-05	-9e-05	-6e-05	0.00018	0.0002	3
12770	0.00025	6e-05	6e-05	3e-05	0.00013	0.00014	0.00022	-0.00025	3
12771	0.00025	6e-05	6e-05	3e-05	0.00013	0.00014	0.00022	-0.00025	3
12772	0.00025	6e-05	6e-05	3e-05	0.00013	0.00014	0.00022	-0.00025	3
12773	0.00025	6e-05	6e-05	3e-05	0.00013	0.00014	0.00022	-0.00025	3
12774	0.00025	6e-05	6e-05	3e-05	0.00013	0.00014	0.00022	-0.00025	3
12775	0.00025	6e-05	6e-05	3e-05	0.00013	0.00014	0.00022	-0.00025	3
12776	0.00025	6e-05	6e-05	3e-05	0.00013	0.00014	0.00022	-0.00025	3
12777	0.00025	6e-05	6e-05	3e-05	0.00013	0.00014	0.00022	-0.00025	3
12778	0.00025	6e-05	6e-05	3e-05	0.00013	0.00014	0.00022	-0.00025	3
12779	0.00025	6e-05	6e-05	3e-05	0.00013	0.00014	0.00022	-0.00025	3
12780	0.00025	6e-05	6e-05	3e-05	0.00013	0.00014	0.00022	-0.00025	3
12781	0.00025	6e-05	6e-05	3e-05	0.00013	0.00014	0.00022	-0.00025	3
12782	0.00025	6e-05	6e-05	3e-05	0.00013	0.00014	0.00022	-0.00025	3
12783	-0.00099	-0.00038	-9e-05	-6e-05	-5e-05	-7e-05	0.0001	-0.00053	3
12784	-0.00099	-0.00038	-9e-05	-6e-05	-5e-05	-7e-05	0.0001	-0.00053	3
12785	-0.00043	-0.00011	3e-05	6e-05	7e-05	0.00016	5e-05	-0.00017	3
12786	-0.00043	-0.00011	3e-05	6e-05	7e-05	0.00016	5e-05	-0.00017	3
12789	-0.00043	-0.00011	3e-05	6e-05	7e-05	0.00016	5e-05	-0.00017	3
12790	-0.00043	-0.00011	3e-05	6e-05	7e-05	0.00016	5e-05	-0.00017	3
12791	-0.00043	-0.00011	3e-05	6e-05	7e-05	0.00016	5e-05	-0.00017	3
12792	-0.00043	-0.00011	3e-05	6e-05	7e-05	0.00016	5e-05	-0.00017	3
12793	-0.00043	-0.00011	3e-05	6e-05	7e-05	0.00016	5e-05	-0.00017	3
12794	-0.00043	-0.00011	3e-05	6e-05	7e-05	0.00016	5e-05	-0.00017	3
12795	-0.00043	-0.00011	3e-05	6e-05	7e-05	0.00016	5e-05	-0.00017	3
12796	-0.00043	-0.00011	3e-05	6e-05	7e-05	0.00016	5e-05	-0.00017	3
12797	-0.00043	-0.00011	3e-05	6e-05	7e-05	0.00016	5e-05	-0.00017	3
12798	-0.00043	-0.00011	3e-05	6e-05	7e-05	0.00016	5e-05	-0.00017	3
12799	-0.00043	-0.00011	3e-05	6e-05	7e-05	0.00016	5e-05	-0.00017	3
12800	-0.00043	-0.00011	3e-05	6e-05	7e-05	0.00016	5e-05	-0.00017	3
12801	-0.00043	-0.00011	3e-05	6e-05	7e-05	0.00016	5e-05	-0.00017	3
12802	-0.00043	-0.00011	3e-05	6e-05	7e-05	0.00016	5e-05	-0.00017	3
12803	-0.00043	-0.00011	3e-05	6e-05	7e-05	0.00016	5e-05	-0.00017	3
12804	-0.00043	-0.00011	3e-05	6e-05	7e-05	0.00016	5e-05	-0.00017	3
12805	-0.00043	-0.00011	3e-05	6e-05	7e-05	0.00016	5e-05	-0.00017	3
12806	0.00046	0.00017	2e-05	1e-05	2e-05	3e-05	9e-05	0.00066	3
12807	-0.00037	1e-05	4e-05	2e-05	-1e-05	-7e-05	-0.00059	-0.0003	3
12808	-0.00037	1e-05	4e-05	2e-05	-1e-05	-7e-05	-0.00059	-0.0003	3
12809	-0.00037	1e-05	4e-05	2e-05	-1e-05	-7e-05	-0.00059	-0.0003	3
12810	-0.00037	1e-05	4e-05	2e-05	-1e-05	-7e-05	-0.00059	-0.0003	3
12811	-0.00037	1e-05	4e-05	2e-05	-1e-05	-7e-05	-0.00059	-0.0003	3
12812	-0.00037	1e-05	4e-05	2e-05	-1e-05	-7e-05	-0.00059	-0.0003	3
12813	-0.00037	1e-05	4e-05	2e-05	-1e-05	-7e-05	-0.00059	-0.0003	3
12814	-0.00037	1e-05	4e-05	2e-05	-1e-05	-7e-05	-0.00059	-0.0003	3
12815	-0.00037	1e-05	4e-05	2e-05	-1e-05	-7e-05	-0.00059	-0.0003	3
12816	-0.00037	1e-05	4e-05	2e-05	-1e-05	-7e-05	-0.00059	-0.0003	3
12817	-0.00037	1e-05	4e-05	2e-05	-1e-05	-7e-05	-0.00059	-0.0003	3
12818	-0.00037	1e-05	4e-05	2e-05	-1e-05	-7e-05	-0.00059	-0.0003	3
12819	-0.00037	1e-05	4e-05	2e-05	-1e-05	-7e-05	-0.00059	-0.0003	3
12820	-0.00091	-0.00012	-1e-05	-2e-05	-1e-05	0.00016	0.00073	0.00057	3
12821	-0.00091	-0.00012	-1e-05	-2e-05	-1e-05	0.00016	0.00073	0.00057	3
12822	-0.00091	-0.00012	-1e-05	-2e-05	-1e-05	0.00016	0.00073	0.00057	3
12823	-0.00091	-0.00012	-1e-05	-2e-05	-1e-05	0.00016	0.00073	0.00057	3
12824	-0.00091	-0.00012	-1e-05	-2e-05	-1e-05	0.00016	0.00073	0.00057	3
12825	-0.00091	-0.00012	-1e-05	-2e-05	-1e-05	0.00016	0.00073	0.00057	3
12826	-0.00091	-0.00012	-1e-05	-2e-05	-1e-05	0.00016	0.00073	0.00057	3
12827	-0.00091	-0.00012	-1e-05	-2e-05	-1e-05	0.00016	0.00073	0.00057	3
12828	-2e-05	-3e-05	-5e-05	-6e-05	-3e-05	-3e-05	0.00017	0.00027	3
12829	-2e-05	-3e-05	-5e-05	-6e-05	-3e-05	-3e-05	0.00017	0.00027	3
12830	-2e-05	-3e-05	-5e-05	-6e-05	-3e-05	-3e-05	0.00017	0.00027	3
12831	-2e-05	-3e-05	-5e-05	-6e-05	-3e-05	-3e-05	0.00017	0.00027	3
12832	-2e-05	-3e-05	-5e-05	-6e-05	-3e-05	-3e-05	0.00017	0.00027	3
12833	-2e-05	-3e-05	-5e-05	-6e-05	-3e-05	-3e-05	0.00017	0.00027	3
12834	-2e-05	-3e-05	-5e-05	-6e-05	-3e-05	-3e-05	0.00017	0.00027	3
12835	-2e-05	-3e-05	-5e-05	-6e-05	-3e-05	-3e-05	0.00017	0.00027	3
12836	-2e-05	-3e-05	-5e-05	-6e-05	-3e-05	-3e-05	0.00017	0.00027	3
12839	-2e-05	-3e-05	-5e-05	-6e-05	-3e-05	-3e-05	0.00017	0.00027	3
12840	-2e-05	-3e-05	-5e-05	-6e-05	-3e-05	-3e-05	0.00017	0.00027	3
12841	-2e-05	-3e-05	-5e-05	-6e-05	-3e-05	-3e-05	0.00017	0.00027	3
12842	-2e-05	-3e-05	-5e-05	-6e-05	-3e-05	-3e-05	0.00017	0.00027	3
12843	-2e-05	-3e-05	-5e-05	-6e-05	-3e-05	-3e-05	0.00017	0.00027	3
12844	0.00089	0.00024	4e-05	3e-05	1e-05	-2e-05	-0.00029	0.00042	3
12845	-0.00066	-8e-05	-4e-05	-5e-05	-5e-05	-2e-05	2e-05	-0.00015	3
12847	-0.00066	-8e-05	-4e-05	-5e-05	-5e-05	-2e-05	2e-05	-0.00015	3
12848	-0.00066	-8e-05	-4e-05	-5e-05	-5e-05	-2e-05	2e-05	-0.00015	3
12849	-0.00066	-8e-05	-4e-05	-5e-05	-5e-05	-2e-05	2e-05	-0.00015	3
12850	-0.00066	-8e-05	-4e-05	-5e-05	-5e-05	-2e-05	2e-05	-0.00015	3
12851	-0.00066	-8e-05	-4e-05	-5e-05	-5e-05	-2e-05	2e-05	-0.00015	3
12852	-0.00066	-8e-05	-4e-05	-5e-05	-5e-05	-2e-05	2e-05	-0.00015	3
12853	-0.00066	-8e-05	-4e-05	-5e-05	-5e-05	-2e-05	2e-05	-0.00015	3
12854	-0.00066	-8e-05	-4e-05	-5e-05	-5e-05	-2e-05	2e-05	-0.00015	3
12855	-0.00066	-8e-05	-4e-05	-5e-05	-5e-05	-2e-05	2e-05	-0.00015	3
12856	-0.00066	-8e-05	-4e-05	-5e-05	-5e-05	-2e-05	2e-05	-0.00015	3
12857	-0.00066	-8e-05	-4e-05	-5e-05	-5e-05	-2e-05	2e-05	-0.00015	3
12858	-0.00066	-8e-05	-4e-05	-5e-05	-5e-05	-2e-05	2e-05	-0.00015	3
12859	-0.00066	-8e-05	-4e-05	-5e-05	-5e-05	-2e-05	2e-05	-0.00015	3
12860	-0.00066	-8e-05	-4e-05	-5e-05	-5e-05	-2e-05	2e-05	-0.00015	3
12861	-0.00066	-8e-05	-4e-05	-5e-05	-5e-05	-2e-05	2e-05	-0.00015	3
12862	-0.00066	-8e-05	-4e-05	-5e-05	-5e-05	-2e-05	2e-05	-0.00015	3
12863	-0.00066	-8e-05	-4e-05	-5e-05	-5e-05	-2e-05	2e-05	-0.00015	3
12864	-0.00066	-8e-05	-4e-05	-5e-05	-5e-05	-2e-05	2e-05	-0.00015	3
12865	-0.00066	-8e-05	-4e-05	-5e-05	-5e-05	-2e-05	2e-05	-0.00015	3
12866	0.00048	8e-05	0	-5e-05	-1e-05	7e-05	0.00041	0.00015	3
12867	7e-05	-9e-05	-3e-05	3e-05	4e-05	-0.00013	-2e-05	-0.00031	3
12868	7e-05	-9e-05	-3e-05	3e-05	4e-05	-0.00013	-2e-05	-0.00031	3
12869	7e-05	-9e-05	-3e-05	3e-05	4e-05	-0.00013	-2e-05	-0.00031	3
12870	7e-05	-9e-05	-3e-05	3e-05	4e-05	-0.00013	-2e-05	-0.00031	3
12871	7e-05	-9e-05	-3e-05	3e-05	4e-05	-0.00013	-2e-05	-0.00031	3
12872	7e-05	-9e-05	-3e-05	3e-05	4e-05	-0.00013	-2e-05	-0.00031	3
12873	7e-05	-9e-05	-3e-05	3e-05	4e-05	-0.00013	-2e-05	-0.00031	3
12874	7e-05	-9e-05	-3e-05	3e-05	4e-05	-0.00013	-2e-05	-0.00031	3
12875	7e-05	-9e-05	-3e-05	3e-05	4e-05	-0.00013	-2e-05	-0.00031	3
12876	7e-05	-9e-05	-3e-05	3e-05	4e-05	-0.00013	-2e-05	-0.00031	3
12877	7e-05	-9e-05	-3e-05	3e-05	4e-05	-0.00013	-2e-05	-0.00031	3
12878	7e-05	-9e-05	-3e-05	3e-05	4e-05	-0.00013	-2e-05	-0.00031	3
12879	0.00028	4e-05	-3e-05	0	-2e-05	-5e-05	-0.00015	-0.00014	3
12880	0.00028	4e-05	-3e-05	0	-2e-05	-5e-05	-0.00015	-0.00014	3
12881	0.00028	4e-05	-3e-05	0	-2e-05	-5e-05	-0.00015	-0.00014	3
12882	0.00028	4e-05	-3e-05	0	-2e-05	-5e-05	-0.00015	-0.00014	3
12883	0.00028	4e-05	-3e-05	0	-2e-05	-5e-05	-0.00015	-0.00014	3
12884	0.00028	4e-05	-3e-05	0	-2e-05	-5e-05	-0.00015	-0.00014	3
12885	0.00028	4e-05	-3e-05	0	-2e-05	-5e-05	-0.00015	-0.00014	3
12886	0.00028	4e-05	-3e-05	0	-2e-05	-5e-05	-0.00015	-0.00014	3
12889	-0.00018	-0.00012	-3e-05	4e-05	-1e-05	-6e-05	-0.00066	-0.00043	3
12890	-0.00018	-0.00012	-3e-05	4e-05	-1e-05	-6e-05	-0.00066	-0.00043	3
12891	-0.00018	-0.00012	-3e-05	4e-05	-1e-05	-6e-05	-0.00066	-0.00043	3
12892	-0.00018	-0.00012	-3e-05	4e-05	-1e-05	-6e-05	-0.00066	-0.00043	3
12893	-0.00018	-0.00012	-3e-05	4e-05	-1e-05	-6e-05	-0.00066	-0.00043	3
12894	-0.00018	-0.00012	-3e-05	4e-05	-1e-05	-6e-05	-0.00066	-0.00043	3
12895	-0.00018	-0.00012	-3e-05	4e-05	-1e-05	-6e-05	-0.00066	-0.00043	3
12896	-0.00018	-0.00012	-3e-05	4e-05	-1e-05	-6e-05	-0.00066	-0.00043	3
12897	-0.00018	-0.00012	-3e-05	4e-05	-1e-05	-6e-05	-0.00066	-0.00043	3
12898	-0.00018	-0.00012	-3e-05	4e-05	-1e-05	-6e-05	-0.00066	-0.00043	3
12899	-0.00018	-0.00012	-3e-05	4e-05	-1e-05	-6e-05	-0.00066	-0.00043	3
12900	-0.00018	-0.00012	-3e-05	4e-05	-1e-05	-6e-05	-0.00066	-0.00043	3
12901	-0.00018	-0.00012	-3e-05	4e-05	-1e-05	-6e-05	-0.00066	-0.00043	3
12902	-0.00018	-0.00012	-3e-05	4e-05	-1e-05	-6e-05	-0.00066	-0.00043	3
12903	0.00027	3e-05	2e-05	6e-05	4e-05	-8e-05	-0.00018	-0.0002	3
12904	0.00027	3e-05	2e-05	6e-05	4e-05	-8e-05	-0.00018	-0.0002	3
12905	-0.00054	-0.00013	-7e-05	-0.00011	-0.00012	-0.00035	-0.00083	-0.00014	3
12906	-0.00054	-0.00013	-7e-05	-0.00011	-0.00012	-0.00035	-0.00083	-0.00014	3
12907	-0.00054	-0.00013	-7e-05	-0.00011	-0.00012	-0.00035	-0.00083	-0.00014	3
12908	-0.00054	-0.00013	-7e-05	-0.00011	-0.00012	-0.00035	-0.00083	-0.00014	3
12909	-0.00054	-0.00013	-7e-05	-0.00011	-0.00012	-0.00035	-0.00083	-0.00014	3
12910	-0.00054	-0.00013	-7e-05	-0.00011	-0.00012	-0.00035	-0.00083	-0.00014	3
12911	-0.00054	-0.00013	-7e-05	-0.00011	-0.00012	-0.00035	-0.00083	-0.00014	3
12912	-0.00054	-0.00013	-7e-05	-0.00011	-0.00012	-0.00035	-0.00083	-0.00014	3
12913	-0.00054	-0.00013	-7e-05	-0.00011	-0.00012	-0.00035	-0.00083	-0.00014	3
12914	-0.00054	-0.00013	-7e-05	-0.00011	-0.00012	-0.00035	-0.00083	-0.00014	3
12915	-0.00054	-0.00013	-7e-05	-0.00011	-0.00012	-0.00035	-0.00083	-0.00014	3
12916	-0.00054	-0.00013	-7e-05	-0.00011	-0.00012	-0.00035	-0.00083	-0.00014	3
12917	-0.00054	-0.00013	-7e-05	-0.00011	-0.00012	-0.00035	-0.00083	-0.00014	3
12918	-0.00054	-0.00013	-7e-05	-0.00011	-0.00012	-0.00035	-0.00083	-0.00014	3
12919	-0.00054	-0.00013	-7e-05	-0.00011	-0.00012	-0.00035	-0.00083	-0.00014	3
12920	-0.00054	-0.00013	-7e-05	-0.00011	-0.00012	-0.00035	-0.00083	-0.00014	3
12921	-0.00054	-0.00013	-7e-05	-0.00011	-0.00012	-0.00035	-0.00083	-0.00014	3
12922	-0.00054	-0.00013	-7e-05	-0.00011	-0.00012	-0.00035	-0.00083	-0.00014	3
12923	-0.00054	-0.00013	-7e-05	-0.00011	-0.00012	-0.00035	-0.00083	-0.00014	3
12924	-0.00054	-0.00013	-7e-05	-0.00011	-0.00012	-0.00035	-0.00083	-0.00014	3
12925	-0.00054	-0.00013	-7e-05	-0.00011	-0.00012	-0.00035	-0.00083	-0.00014	3
12926	-0.00054	-0.00013	-7e-05	-0.00011	-0.00012	-0.00035	-0.00083	-0.00014	3
12927	0.00013	-2e-05	2e-05	4e-05	9e-05	0.00013	0.0003	-0.00029	3
12928	0.00046	0.00014	5e-05	-1e-05	1e-05	9e-05	0.00015	0.00018	3
12929	0.00046	0.00014	5e-05	-1e-05	1e-05	9e-05	0.00015	0.00018	3
12930	0.00046	0.00014	5e-05	-1e-05	1e-05	9e-05	0.00015	0.00018	3
12931	0.00046	0.00014	5e-05	-1e-05	1e-05	9e-05	0.00015	0.00018	3
12932	0.00046	0.00014	5e-05	-1e-05	1e-05	9e-05	0.00015	0.00018	3
12933	0.00046	0.00014	5e-05	-1e-05	1e-05	9e-05	0.00015	0.00018	3
12934	0.00046	0.00014	5e-05	-1e-05	1e-05	9e-05	0.00015	0.00018	3
12935	0.00046	0.00014	5e-05	-1e-05	1e-05	9e-05	0.00015	0.00018	3
12936	0.00046	0.00014	5e-05	-1e-05	1e-05	9e-05	0.00015	0.00018	3
12939	0.00034	9e-05	3e-05	-1e-05	1e-05	-4e-05	-0.00021	0.00023	3
12940	0.00034	9e-05	3e-05	-1e-05	1e-05	-4e-05	-0.00021	0.00023	3
12941	0.00034	9e-05	3e-05	-1e-05	1e-05	-4e-05	-0.00021	0.00023	3
12942	0.00034	9e-05	3e-05	-1e-05	1e-05	-4e-05	-0.00021	0.00023	3
12943	0.00034	9e-05	3e-05	-1e-05	1e-05	-4e-05	-0.00021	0.00023	3
12944	0.00034	9e-05	3e-05	-1e-05	1e-05	-4e-05	-0.00021	0.00023	3
12945	0.00034	9e-05	3e-05	-1e-05	1e-05	-4e-05	-0.00021	0.00023	3
12946	0.00034	9e-05	3e-05	-1e-05	1e-05	-4e-05	-0.00021	0.00023	3
12947	0.00034	9e-05	3e-05	-1e-05	1e-05	-4e-05	-0.00021	0.00023	3
12948	0.00066	0.0001	-5e-05	-5e-05	-8e-05	4e-05	0.0001	-0.0001	3
12949	0.00066	0.0001	-5e-05	-5e-05	-8e-05	4e-05	0.0001	-0.0001	3
12950	0.00066	0.0001	-5e-05	-5e-05	-8e-05	4e-05	0.0001	-0.0001	3
12951	0.00066	0.0001	-5e-05	-5e-05	-8e-05	4e-05	0.0001	-0.0001	3
12952	0.00066	0.0001	-5e-05	-5e-05	-8e-05	4e-05	0.0001	-0.0001	3
12953	0.00066	0.0001	-5e-05	-5e-05	-8e-05	4e-05	0.0001	-0.0001	3
12954	0.00066	0.0001	-5e-05	-5e-05	-8e-05	4e-05	0.0001	-0.0001	3
12955	0.00066	0.0001	-5e-05	-5e-05	-8e-05	4e-05	0.0001	-0.0001	3
12956	0.00066	0.0001	-5e-05	-5e-05	-8e-05	4e-05	0.0001	-0.0001	3
12957	0.00066	0.0001	-5e-05	-5e-05	-8e-05	4e-05	0.0001	-0.0001	3
12958	0.00066	0.0001	-5e-05	-5e-05	-8e-05	4e-05	0.0001	-0.0001	3
12959	0.00066	0.0001	-5e-05	-5e-05	-8e-05	4e-05	0.0001	-0.0001	3
12960	0.00066	0.0001	-5e-05	-5e-05	-8e-05	4e-05	0.0001	-0.0001	3
12961	0.00066	0.0001	-5e-05	-5e-05	-8e-05	4e-05	0.0001	-0.0001	3
12962	0.00066	0.0001	-5e-05	-5e-05	-8e-05	4e-05	0.0001	-0.0001	3
12963	-0.00094	-0.00022	-8e-05	-3e-05	-9e-05	-1e-05	-1e-05	0.00017	3
12964	-0.00094	-0.00022	-8e-05	-3e-05	-9e-05	-1e-05	-1e-05	0.00017	3
12965	0	3e-05	2e-05	1e-05	-2e-05	0.0001	0.00052	0.00033	3
12966	0	3e-05	2e-05	1e-05	-2e-05	0.0001	0.00052	0.00033	3
12967	0	3e-05	2e-05	1e-05	-2e-05	0.0001	0.00052	0.00033	3
12968	0	3e-05	2e-05	1e-05	-2e-05	0.0001	0.00052	0.00033	3
12969	0	3e-05	2e-05	1e-05	-2e-05	0.0001	0.00052	0.00033	3
12970	0	3e-05	2e-05	1e-05	-2e-05	0.0001	0.00052	0.00033	3
12971	0	3e-05	2e-05	1e-05	-2e-05	0.0001	0.00052	0.00033	3
12972	0	3e-05	2e-05	1e-05	-2e-05	0.0001	0.00052	0.00033	3
12973	0	3e-05	2e-05	1e-05	-2e-05	0.0001	0.00052	0.00033	3
12974	0	3e-05	2e-05	1e-05	-2e-05	0.0001	0.00052	0.00033	3
12975	0	3e-05	2e-05	1e-05	-2e-05	0.0001	0.00052	0.00033	3
12976	0	3e-05	2e-05	1e-05	-2e-05	0.0001	0.00052	0.00033	3
12977	0	3e-05	2e-05	1e-05	-2e-05	0.0001	0.00052	0.00033	3
12978	0	3e-05	2e-05	1e-05	-2e-05	0.0001	0.00052	0.00033	3
12979	0	3e-05	2e-05	1e-05	-2e-05	0.0001	0.00052	0.00033	3
12980	0	3e-05	2e-05	1e-05	-2e-05	0.0001	0.00052	0.00033	3
12981	0	3e-05	2e-05	1e-05	-2e-05	0.0001	0.00052	0.00033	3
12982	0	3e-05	2e-05	1e-05	-2e-05	0.0001	0.00052	0.00033	3
12983	0	3e-05	2e-05	1e-05	-2e-05	0.0001	0.00052	0.00033	3
12984	0	3e-05	2e-05	1e-05	-2e-05	0.0001	0.00052	0.00033	3
12985	0	3e-05	2e-05	1e-05	-2e-05	0.0001	0.00052	0.00033	3
12986	-0.00023	-3e-05	-2e-05	-1e-05	-3e-05	0	9e-05	6e-05	3
12989	0.00013	2e-05	0	1e-05	0	-4e-05	0	1e-05	3
12990	0.00013	2e-05	0	1e-05	0	-4e-05	0	1e-05	3
12991	0.00013	2e-05	0	1e-05	0	-4e-05	0	1e-05	3
12992	0.00013	2e-05	0	1e-05	0	-4e-05	0	1e-05	3
12993	0.00013	2e-05	0	1e-05	0	-4e-05	0	1e-05	3
12994	0.00013	2e-05	0	1e-05	0	-4e-05	0	1e-05	3
12995	0.00013	2e-05	0	1e-05	0	-4e-05	0	1e-05	3
12996	0.00013	2e-05	0	1e-05	0	-4e-05	0	1e-05	3
12997	0.00013	2e-05	0	1e-05	0	-4e-05	0	1e-05	3
12998	0.00013	2e-05	0	1e-05	0	-4e-05	0	1e-05	3
12999	0.00013	2e-05	0	1e-05	0	-4e-05	0	1e-05	3
13000	-0.00073	-0.00017	-5e-05	-7e-05	4e-05	-8e-05	-0.00054	-0.0008	3
13001	-0.00073	-0.00017	-5e-05	-7e-05	4e-05	-8e-05	-0.00054	-0.0008	3
13002	-0.00073	-0.00017	-5e-05	-7e-05	4e-05	-8e-05	-0.00054	-0.0008	3
13003	-0.00073	-0.00017	-5e-05	-7e-05	4e-05	-8e-05	-0.00054	-0.0008	3
13004	-0.00073	-0.00017	-5e-05	-7e-05	4e-05	-8e-05	-0.00054	-0.0008	3
13005	-0.00073	-0.00017	-5e-05	-7e-05	4e-05	-8e-05	-0.00054	-0.0008	3
13006	-0.00073	-0.00017	-5e-05	-7e-05	4e-05	-8e-05	-0.00054	-0.0008	3
13007	-0.00073	-0.00017	-5e-05	-7e-05	4e-05	-8e-05	-0.00054	-0.0008	3
13008	-0.00011	-6e-05	0	2e-05	0.0001	6e-05	0.00083	0.00032	3
13009	-0.00011	-6e-05	0	2e-05	0.0001	6e-05	0.00083	0.00032	3
13010	-0.00011	-6e-05	0	2e-05	0.0001	6e-05	0.00083	0.00032	3
13011	-0.00011	-6e-05	0	2e-05	0.0001	6e-05	0.00083	0.00032	3
13012	-0.00011	-6e-05	0	2e-05	0.0001	6e-05	0.00083	0.00032	3
13013	-0.00011	-6e-05	0	2e-05	0.0001	6e-05	0.00083	0.00032	3
13014	-0.00011	-6e-05	0	2e-05	0.0001	6e-05	0.00083	0.00032	3
13015	-0.00011	-6e-05	0	2e-05	0.0001	6e-05	0.00083	0.00032	3
13016	-0.00011	-6e-05	0	2e-05	0.0001	6e-05	0.00083	0.00032	3
13017	-0.00011	-6e-05	0	2e-05	0.0001	6e-05	0.00083	0.00032	3
13018	-0.00011	-6e-05	0	2e-05	0.0001	6e-05	0.00083	0.00032	3
13019	-0.00011	-6e-05	0	2e-05	0.0001	6e-05	0.00083	0.00032	3
13020	-0.00011	-6e-05	0	2e-05	0.0001	6e-05	0.00083	0.00032	3
13021	-0.00011	-6e-05	0	2e-05	0.0001	6e-05	0.00083	0.00032	3
13022	-0.00011	-6e-05	0	2e-05	0.0001	6e-05	0.00083	0.00032	3
13023	0.0004	0.0001	-2e-05	-1e-05	-9e-05	-0.00018	-0.00049	2e-05	3
13024	0.0004	0.0001	-2e-05	-1e-05	-9e-05	-0.00018	-0.00049	2e-05	3
13025	-3e-05	-3e-05	-4e-05	-2e-05	-6e-05	-2e-05	-0.00018	-0.00014	3
13026	-3e-05	-3e-05	-4e-05	-2e-05	-6e-05	-2e-05	-0.00018	-0.00014	3
13027	-3e-05	-3e-05	-4e-05	-2e-05	-6e-05	-2e-05	-0.00018	-0.00014	3
13028	-3e-05	-3e-05	-4e-05	-2e-05	-6e-05	-2e-05	-0.00018	-0.00014	3
13029	-3e-05	-3e-05	-4e-05	-2e-05	-6e-05	-2e-05	-0.00018	-0.00014	3
13030	-3e-05	-3e-05	-4e-05	-2e-05	-6e-05	-2e-05	-0.00018	-0.00014	3
13031	-3e-05	-3e-05	-4e-05	-2e-05	-6e-05	-2e-05	-0.00018	-0.00014	3
13032	-3e-05	-3e-05	-4e-05	-2e-05	-6e-05	-2e-05	-0.00018	-0.00014	3
13033	-3e-05	-3e-05	-4e-05	-2e-05	-6e-05	-2e-05	-0.00018	-0.00014	3
13034	-3e-05	-3e-05	-4e-05	-2e-05	-6e-05	-2e-05	-0.00018	-0.00014	3
13035	-3e-05	-3e-05	-4e-05	-2e-05	-6e-05	-2e-05	-0.00018	-0.00014	3
13036	-3e-05	-3e-05	-4e-05	-2e-05	-6e-05	-2e-05	-0.00018	-0.00014	3
13039	-3e-05	-3e-05	-4e-05	-2e-05	-6e-05	-2e-05	-0.00018	-0.00014	3
13040	-3e-05	-3e-05	-4e-05	-2e-05	-6e-05	-2e-05	-0.00018	-0.00014	3
13041	-3e-05	-3e-05	-4e-05	-2e-05	-6e-05	-2e-05	-0.00018	-0.00014	3
13042	-3e-05	-3e-05	-4e-05	-2e-05	-6e-05	-2e-05	-0.00018	-0.00014	3
13043	-3e-05	-3e-05	-4e-05	-2e-05	-6e-05	-2e-05	-0.00018	-0.00014	3
13044	-3e-05	-3e-05	-4e-05	-2e-05	-6e-05	-2e-05	-0.00018	-0.00014	3
13045	-3e-05	-3e-05	-4e-05	-2e-05	-6e-05	-2e-05	-0.00018	-0.00014	3
13046	-0.00015	-4e-05	-2e-05	-3e-05	-1e-05	4e-05	0.00019	0	3
13047	7e-05	-1e-05	0	-3e-05	-2e-05	-8e-05	-3e-05	-5e-05	3
13048	7e-05	-1e-05	0	-3e-05	-2e-05	-8e-05	-3e-05	-5e-05	3
13049	7e-05	-1e-05	0	-3e-05	-2e-05	-8e-05	-3e-05	-5e-05	3
13050	7e-05	-1e-05	0	-3e-05	-2e-05	-8e-05	-3e-05	-5e-05	3
13051	7e-05	-1e-05	0	-3e-05	-2e-05	-8e-05	-3e-05	-5e-05	3
13052	7e-05	-1e-05	0	-3e-05	-2e-05	-8e-05	-3e-05	-5e-05	3
13053	7e-05	-1e-05	0	-3e-05	-2e-05	-8e-05	-3e-05	-5e-05	3
13054	7e-05	-1e-05	0	-3e-05	-2e-05	-8e-05	-3e-05	-5e-05	3
13055	7e-05	-1e-05	0	-3e-05	-2e-05	-8e-05	-3e-05	-5e-05	3
13056	7e-05	-1e-05	0	-3e-05	-2e-05	-8e-05	-3e-05	-5e-05	3
13057	7e-05	-1e-05	0	-3e-05	-2e-05	-8e-05	-3e-05	-5e-05	3
13058	7e-05	-1e-05	0	-3e-05	-2e-05	-8e-05	-3e-05	-5e-05	3
13059	0.00012	2e-05	4e-05	3e-05	5e-05	6e-05	0.00017	-1e-05	3
13060	0.00012	2e-05	4e-05	3e-05	5e-05	6e-05	0.00017	-1e-05	3
13061	0.00012	2e-05	4e-05	3e-05	5e-05	6e-05	0.00017	-1e-05	3
13062	0.00012	2e-05	4e-05	3e-05	5e-05	6e-05	0.00017	-1e-05	3
13063	0.00012	2e-05	4e-05	3e-05	5e-05	6e-05	0.00017	-1e-05	3
13064	0.00012	2e-05	4e-05	3e-05	5e-05	6e-05	0.00017	-1e-05	3
13065	0.00012	2e-05	4e-05	3e-05	5e-05	6e-05	0.00017	-1e-05	3
13066	0.00012	2e-05	4e-05	3e-05	5e-05	6e-05	0.00017	-1e-05	3
13067	0.00012	2e-05	4e-05	3e-05	5e-05	6e-05	0.00017	-1e-05	3
13068	0.00012	2e-05	4e-05	3e-05	5e-05	6e-05	0.00017	-1e-05	3
13069	0.00012	2e-05	4e-05	3e-05	5e-05	6e-05	0.00017	-1e-05	3
13070	0.00012	2e-05	4e-05	3e-05	5e-05	6e-05	0.00017	-1e-05	3
13071	0.00012	2e-05	4e-05	3e-05	5e-05	6e-05	0.00017	-1e-05	3
13072	0.00012	2e-05	4e-05	3e-05	5e-05	6e-05	0.00017	-1e-05	3
13073	0.00012	2e-05	4e-05	3e-05	5e-05	6e-05	0.00017	-1e-05	3
13074	0.00012	2e-05	4e-05	3e-05	5e-05	6e-05	0.00017	-1e-05	3
13075	0.00012	2e-05	4e-05	3e-05	5e-05	6e-05	0.00017	-1e-05	3
13076	0.00127	0.00052	8e-05	3e-05	6e-05	5e-05	5e-05	0.00098	3
13077	0.00127	0.00052	8e-05	3e-05	6e-05	5e-05	5e-05	0.00098	3
13078	0.00127	0.00052	8e-05	3e-05	6e-05	5e-05	5e-05	0.00098	3
13079	0.00127	0.00052	8e-05	3e-05	6e-05	5e-05	5e-05	0.00098	3
13080	0.00127	0.00052	8e-05	3e-05	6e-05	5e-05	5e-05	0.00098	3
13081	0.00127	0.00052	8e-05	3e-05	6e-05	5e-05	5e-05	0.00098	3
13082	0.00127	0.00052	8e-05	3e-05	6e-05	5e-05	5e-05	0.00098	3
13083	-0.00115	-0.0006	-7e-05	0	0.00023	0.00035	-0.00023	-0.00095	3
13084	0.00092	0.00013	0	-5e-05	-9e-05	-0.00021	0.00031	0.00065	3
13085	0.00042	-3e-05	-4e-05	-2e-05	-3e-05	3e-05	0.0004	0.0001	3
13086	0.00042	-3e-05	-4e-05	-2e-05	-3e-05	3e-05	0.0004	0.0001	3
13089	0.00042	-3e-05	-4e-05	-2e-05	-3e-05	3e-05	0.0004	0.0001	3
13090	0.00042	-3e-05	-4e-05	-2e-05	-3e-05	3e-05	0.0004	0.0001	3
13091	0.00042	-3e-05	-4e-05	-2e-05	-3e-05	3e-05	0.0004	0.0001	3
13092	0.00042	-3e-05	-4e-05	-2e-05	-3e-05	3e-05	0.0004	0.0001	3
13093	0.00042	-3e-05	-4e-05	-2e-05	-3e-05	3e-05	0.0004	0.0001	3
13094	0.00042	-3e-05	-4e-05	-2e-05	-3e-05	3e-05	0.0004	0.0001	3
13095	0.00042	-3e-05	-4e-05	-2e-05	-3e-05	3e-05	0.0004	0.0001	3
13096	0.00042	-3e-05	-4e-05	-2e-05	-3e-05	3e-05	0.0004	0.0001	3
13097	0.00042	-3e-05	-4e-05	-2e-05	-3e-05	3e-05	0.0004	0.0001	3
13098	0.00042	-3e-05	-4e-05	-2e-05	-3e-05	3e-05	0.0004	0.0001	3
13099	0.00042	-3e-05	-4e-05	-2e-05	-3e-05	3e-05	0.0004	0.0001	3
13100	0.00042	-3e-05	-4e-05	-2e-05	-3e-05	3e-05	0.0004	0.0001	3
13101	0.00042	-3e-05	-4e-05	-2e-05	-3e-05	3e-05	0.0004	0.0001	3
13102	0.00042	-3e-05	-4e-05	-2e-05	-3e-05	3e-05	0.0004	0.0001	3
13103	0.00042	-3e-05	-4e-05	-2e-05	-3e-05	3e-05	0.0004	0.0001	3
13104	0.00042	-3e-05	-4e-05	-2e-05	-3e-05	3e-05	0.0004	0.0001	3
13105	0.00042	-3e-05	-4e-05	-2e-05	-3e-05	3e-05	0.0004	0.0001	3
13106	-0.00097	-0.00017	-4e-05	2e-05	9e-05	0.00013	0.00029	-0.00013	3
13107	-0.00025	-2e-05	-1e-05	1e-05	-4e-05	-7e-05	-0.00048	-0.00031	3
13108	-0.00025	-2e-05	-1e-05	1e-05	-4e-05	-7e-05	-0.00048	-0.00031	3
13109	-0.00025	-2e-05	-1e-05	1e-05	-4e-05	-7e-05	-0.00048	-0.00031	3
13110	-0.00025	-2e-05	-1e-05	1e-05	-4e-05	-7e-05	-0.00048	-0.00031	3
13111	-0.00025	-2e-05	-1e-05	1e-05	-4e-05	-7e-05	-0.00048	-0.00031	3
13112	-0.00025	-2e-05	-1e-05	1e-05	-4e-05	-7e-05	-0.00048	-0.00031	3
13113	-0.00025	-2e-05	-1e-05	1e-05	-4e-05	-7e-05	-0.00048	-0.00031	3
13114	-0.00025	-2e-05	-1e-05	1e-05	-4e-05	-7e-05	-0.00048	-0.00031	3
13115	-0.00025	-2e-05	-1e-05	1e-05	-4e-05	-7e-05	-0.00048	-0.00031	3
13116	-0.00025	-2e-05	-1e-05	1e-05	-4e-05	-7e-05	-0.00048	-0.00031	3
13117	-0.00025	-2e-05	-1e-05	1e-05	-4e-05	-7e-05	-0.00048	-0.00031	3
13118	-0.00025	-2e-05	-1e-05	1e-05	-4e-05	-7e-05	-0.00048	-0.00031	3
13119	-0.00025	-2e-05	-1e-05	1e-05	-4e-05	-7e-05	-0.00048	-0.00031	3
13120	-0.00025	-2e-05	-1e-05	1e-05	-4e-05	-7e-05	-0.00048	-0.00031	3
13121	-0.00025	-2e-05	-1e-05	1e-05	-4e-05	-7e-05	-0.00048	-0.00031	3
13122	-0.00025	-2e-05	-1e-05	1e-05	-4e-05	-7e-05	-0.00048	-0.00031	3
13123	-0.00025	-2e-05	-1e-05	1e-05	-4e-05	-7e-05	-0.00048	-0.00031	3
13124	-0.00025	-2e-05	-1e-05	1e-05	-4e-05	-7e-05	-0.00048	-0.00031	3
13125	-0.00025	-2e-05	-1e-05	1e-05	-4e-05	-7e-05	-0.00048	-0.00031	3
13126	-0.00025	-2e-05	-1e-05	1e-05	-4e-05	-7e-05	-0.00048	-0.00031	3
13127	-0.00025	-2e-05	-1e-05	1e-05	-4e-05	-7e-05	-0.00048	-0.00031	3
13128	-0.00061	-0.00013	-3e-05	-3e-05	0	-2e-05	-0.00036	-0.00062	3
13130	-0.00092	-0.00022	-2e-05	-1e-05	-1e-05	-0.00012	-0.00047	-0.00017	3
13131	-0.00092	-0.00022	-2e-05	-1e-05	-1e-05	-0.00012	-0.00047	-0.00017	3
13132	-0.00092	-0.00022	-2e-05	-1e-05	-1e-05	-0.00012	-0.00047	-0.00017	3
13133	-0.00092	-0.00022	-2e-05	-1e-05	-1e-05	-0.00012	-0.00047	-0.00017	3
13134	-0.00092	-0.00022	-2e-05	-1e-05	-1e-05	-0.00012	-0.00047	-0.00017	3
13135	-0.00092	-0.00022	-2e-05	-1e-05	-1e-05	-0.00012	-0.00047	-0.00017	3
13136	-0.00092	-0.00022	-2e-05	-1e-05	-1e-05	-0.00012	-0.00047	-0.00017	3
13138	-0.00092	-0.00022	-2e-05	-1e-05	-1e-05	-0.00012	-0.00047	-0.00017	3
13140	-0.00092	-0.00022	-2e-05	-1e-05	-1e-05	-0.00012	-0.00047	-0.00017	3
13141	-0.00092	-0.00022	-2e-05	-1e-05	-1e-05	-0.00012	-0.00047	-0.00017	3
13142	-0.00092	-0.00022	-2e-05	-1e-05	-1e-05	-0.00012	-0.00047	-0.00017	3
13143	0.00032	7e-05	-2e-05	6e-05	8e-05	0	4e-05	0.00016	3
13144	0.00032	7e-05	-2e-05	6e-05	8e-05	0	4e-05	0.00016	3
13145	9e-05	-5e-05	-3e-05	-3e-05	-2e-05	-4e-05	-0.00022	-0.00016	3
13146	9e-05	-5e-05	-3e-05	-3e-05	-2e-05	-4e-05	-0.00022	-0.00016	3
13147	9e-05	-5e-05	-3e-05	-3e-05	-2e-05	-4e-05	-0.00022	-0.00016	3
13148	9e-05	-5e-05	-3e-05	-3e-05	-2e-05	-4e-05	-0.00022	-0.00016	3
13149	9e-05	-5e-05	-3e-05	-3e-05	-2e-05	-4e-05	-0.00022	-0.00016	3
13150	9e-05	-5e-05	-3e-05	-3e-05	-2e-05	-4e-05	-0.00022	-0.00016	3
13151	9e-05	-5e-05	-3e-05	-3e-05	-2e-05	-4e-05	-0.00022	-0.00016	3
13152	9e-05	-5e-05	-3e-05	-3e-05	-2e-05	-4e-05	-0.00022	-0.00016	3
13153	9e-05	-5e-05	-3e-05	-3e-05	-2e-05	-4e-05	-0.00022	-0.00016	3
13154	9e-05	-5e-05	-3e-05	-3e-05	-2e-05	-4e-05	-0.00022	-0.00016	3
13155	9e-05	-5e-05	-3e-05	-3e-05	-2e-05	-4e-05	-0.00022	-0.00016	3
13156	9e-05	-5e-05	-3e-05	-3e-05	-2e-05	-4e-05	-0.00022	-0.00016	3
13157	9e-05	-5e-05	-3e-05	-3e-05	-2e-05	-4e-05	-0.00022	-0.00016	3
13158	9e-05	-5e-05	-3e-05	-3e-05	-2e-05	-4e-05	-0.00022	-0.00016	3
13159	9e-05	-5e-05	-3e-05	-3e-05	-2e-05	-4e-05	-0.00022	-0.00016	3
13160	9e-05	-5e-05	-3e-05	-3e-05	-2e-05	-4e-05	-0.00022	-0.00016	3
13161	9e-05	-5e-05	-3e-05	-3e-05	-2e-05	-4e-05	-0.00022	-0.00016	3
13162	9e-05	-5e-05	-3e-05	-3e-05	-2e-05	-4e-05	-0.00022	-0.00016	3
13163	9e-05	-5e-05	-3e-05	-3e-05	-2e-05	-4e-05	-0.00022	-0.00016	3
13164	9e-05	-5e-05	-3e-05	-3e-05	-2e-05	-4e-05	-0.00022	-0.00016	3
13165	9e-05	-5e-05	-3e-05	-3e-05	-2e-05	-4e-05	-0.00022	-0.00016	3
13166	0.00041	0.00013	4e-05	2e-05	-3e-05	5e-05	7e-05	0.00015	3
13167	0.00041	0.00013	4e-05	2e-05	-3e-05	5e-05	7e-05	0.00015	3
13168	-0.00036	-0.00021	-9e-05	-8e-05	-6e-05	0	0.00012	-0.00057	3
13169	-0.00036	-0.00021	-9e-05	-8e-05	-6e-05	0	0.00012	-0.00057	3
13170	-0.00036	-0.00021	-9e-05	-8e-05	-6e-05	0	0.00012	-0.00057	3
13171	-0.00036	-0.00021	-9e-05	-8e-05	-6e-05	0	0.00012	-0.00057	3
13172	-0.00036	-0.00021	-9e-05	-8e-05	-6e-05	0	0.00012	-0.00057	3
13173	-0.00036	-0.00021	-9e-05	-8e-05	-6e-05	0	0.00012	-0.00057	3
13174	-0.00036	-0.00021	-9e-05	-8e-05	-6e-05	0	0.00012	-0.00057	3
13175	-0.00036	-0.00021	-9e-05	-8e-05	-6e-05	0	0.00012	-0.00057	3
13176	-0.00036	-0.00021	-9e-05	-8e-05	-6e-05	0	0.00012	-0.00057	3
13177	-0.00036	-0.00021	-9e-05	-8e-05	-6e-05	0	0.00012	-0.00057	3
13178	-0.00036	-0.00021	-9e-05	-8e-05	-6e-05	0	0.00012	-0.00057	3
13179	-0.00036	-0.00021	-9e-05	-8e-05	-6e-05	0	0.00012	-0.00057	3
13180	-0.00036	-0.00021	-9e-05	-8e-05	-6e-05	0	0.00012	-0.00057	3
13181	-0.00036	-0.00021	-9e-05	-8e-05	-6e-05	0	0.00012	-0.00057	3
13182	-0.00036	-0.00021	-9e-05	-8e-05	-6e-05	0	0.00012	-0.00057	3
13183	-0.00036	-0.00021	-9e-05	-8e-05	-6e-05	0	0.00012	-0.00057	3
13184	-0.00036	-0.00021	-9e-05	-8e-05	-6e-05	0	0.00012	-0.00057	3
13185	-0.00036	-0.00021	-9e-05	-8e-05	-6e-05	0	0.00012	-0.00057	3
13186	-0.00036	-0.00021	-9e-05	-8e-05	-6e-05	0	0.00012	-0.00057	3
13189	0.00018	-3e-05	-3e-05	-4e-05	-7e-05	4e-05	-0.00024	-0.0001	3
13190	0.00026	5e-05	-2e-05	-4e-05	-0.00013	-0.00026	-0.00063	-0.00015	3
13191	0.00026	5e-05	-2e-05	-4e-05	-0.00013	-0.00026	-0.00063	-0.00015	3
13192	0.00026	5e-05	-2e-05	-4e-05	-0.00013	-0.00026	-0.00063	-0.00015	3
13193	0.00026	5e-05	-2e-05	-4e-05	-0.00013	-0.00026	-0.00063	-0.00015	3
13194	0.00026	5e-05	-2e-05	-4e-05	-0.00013	-0.00026	-0.00063	-0.00015	3
13195	0.00026	5e-05	-2e-05	-4e-05	-0.00013	-0.00026	-0.00063	-0.00015	3
13196	0.00026	5e-05	-2e-05	-4e-05	-0.00013	-0.00026	-0.00063	-0.00015	3
13197	0.00026	5e-05	-2e-05	-4e-05	-0.00013	-0.00026	-0.00063	-0.00015	3
13198	0.00026	5e-05	-2e-05	-4e-05	-0.00013	-0.00026	-0.00063	-0.00015	3
13199	0.00026	5e-05	-2e-05	-4e-05	-0.00013	-0.00026	-0.00063	-0.00015	3
13200	0.00026	5e-05	-2e-05	-4e-05	-0.00013	-0.00026	-0.00063	-0.00015	3
13201	0.00026	5e-05	-2e-05	-4e-05	-0.00013	-0.00026	-0.00063	-0.00015	3
13202	0.00026	5e-05	-2e-05	-4e-05	-0.00013	-0.00026	-0.00063	-0.00015	3
13203	0.00049	-2e-05	-7e-05	-7e-05	-1e-05	-0.00017	8e-05	-0.00041	3
13204	0.00049	-2e-05	-7e-05	-7e-05	-1e-05	-0.00017	8e-05	-0.00041	3
13205	-0.00012	-7e-05	2e-05	6e-05	0.00019	0.00012	0.00023	-0.0008	3
13206	-0.00012	-7e-05	2e-05	6e-05	0.00019	0.00012	0.00023	-0.0008	3
13207	-0.00012	-7e-05	2e-05	6e-05	0.00019	0.00012	0.00023	-0.0008	3
13208	-0.00012	-7e-05	2e-05	6e-05	0.00019	0.00012	0.00023	-0.0008	3
13209	-0.00012	-7e-05	2e-05	6e-05	0.00019	0.00012	0.00023	-0.0008	3
13210	-0.00012	-7e-05	2e-05	6e-05	0.00019	0.00012	0.00023	-0.0008	3
13211	-0.00012	-7e-05	2e-05	6e-05	0.00019	0.00012	0.00023	-0.0008	3
13212	-0.00012	-7e-05	2e-05	6e-05	0.00019	0.00012	0.00023	-0.0008	3
13213	-0.00012	-7e-05	2e-05	6e-05	0.00019	0.00012	0.00023	-0.0008	3
13214	-0.00012	-7e-05	2e-05	6e-05	0.00019	0.00012	0.00023	-0.0008	3
13215	-0.00012	-7e-05	2e-05	6e-05	0.00019	0.00012	0.00023	-0.0008	3
13216	-0.00012	-7e-05	2e-05	6e-05	0.00019	0.00012	0.00023	-0.0008	3
13217	-0.00012	-7e-05	2e-05	6e-05	0.00019	0.00012	0.00023	-0.0008	3
13218	-0.00012	-7e-05	2e-05	6e-05	0.00019	0.00012	0.00023	-0.0008	3
13219	-0.00012	-7e-05	2e-05	6e-05	0.00019	0.00012	0.00023	-0.0008	3
13220	-0.00012	-7e-05	2e-05	6e-05	0.00019	0.00012	0.00023	-0.0008	3
13221	-0.00012	-7e-05	2e-05	6e-05	0.00019	0.00012	0.00023	-0.0008	3
13222	-0.00012	-7e-05	2e-05	6e-05	0.00019	0.00012	0.00023	-0.0008	3
13223	-0.00012	-7e-05	2e-05	6e-05	0.00019	0.00012	0.00023	-0.0008	3
13224	-0.00012	-7e-05	2e-05	6e-05	0.00019	0.00012	0.00023	-0.0008	3
13225	-0.00012	-7e-05	2e-05	6e-05	0.00019	0.00012	0.00023	-0.0008	3
13226	-0.00077	-0.00027	-5e-05	0	1e-05	-1e-05	-0.0007	3e-05	3
13227	0.00056	0.0001	-2e-05	2e-05	3e-05	-1e-05	0.00033	0.00043	3
13228	0.00056	0.0001	-2e-05	2e-05	3e-05	-1e-05	0.00033	0.00043	3
13229	0.00056	0.0001	-2e-05	2e-05	3e-05	-1e-05	0.00033	0.00043	3
13230	0.00056	0.0001	-2e-05	2e-05	3e-05	-1e-05	0.00033	0.00043	3
13231	0.00056	0.0001	-2e-05	2e-05	3e-05	-1e-05	0.00033	0.00043	3
13232	0.00056	0.0001	-2e-05	2e-05	3e-05	-1e-05	0.00033	0.00043	3
13233	0.00056	0.0001	-2e-05	2e-05	3e-05	-1e-05	0.00033	0.00043	3
13234	0.00056	0.0001	-2e-05	2e-05	3e-05	-1e-05	0.00033	0.00043	3
13235	0.00056	0.0001	-2e-05	2e-05	3e-05	-1e-05	0.00033	0.00043	3
13236	0.00056	0.0001	-2e-05	2e-05	3e-05	-1e-05	0.00033	0.00043	3
13238	0.00056	0.0001	-2e-05	2e-05	3e-05	-1e-05	0.00033	0.00043	3
13239	0.00056	0.0001	-2e-05	2e-05	3e-05	-1e-05	0.00033	0.00043	3
13240	0.00056	0.0001	-2e-05	2e-05	3e-05	-1e-05	0.00033	0.00043	3
13241	0.00056	0.0001	-2e-05	2e-05	3e-05	-1e-05	0.00033	0.00043	3
13242	0.00056	0.0001	-2e-05	2e-05	3e-05	-1e-05	0.00033	0.00043	3
13243	0.00056	0.0001	-2e-05	2e-05	3e-05	-1e-05	0.00033	0.00043	3
13244	0.00056	0.0001	-2e-05	2e-05	3e-05	-1e-05	0.00033	0.00043	3
13245	0.00056	0.0001	-2e-05	2e-05	3e-05	-1e-05	0.00033	0.00043	3
13246	0.00056	0.0001	-2e-05	2e-05	3e-05	-1e-05	0.00033	0.00043	3
13247	0.00056	0.0001	-2e-05	2e-05	3e-05	-1e-05	0.00033	0.00043	3
13248	-0.00029	1e-05	7e-05	5e-05	9e-05	0.00024	0.00042	0.0001	3
13249	-0.00029	1e-05	7e-05	5e-05	9e-05	0.00024	0.00042	0.0001	3
13250	-0.0001	-9e-05	-5e-05	-0.00013	-0.00016	6e-05	-8e-05	-4e-05	3
13251	-0.0001	-9e-05	-5e-05	-0.00013	-0.00016	6e-05	-8e-05	-4e-05	3
13252	-0.0001	-9e-05	-5e-05	-0.00013	-0.00016	6e-05	-8e-05	-4e-05	3
13253	-0.0001	-9e-05	-5e-05	-0.00013	-0.00016	6e-05	-8e-05	-4e-05	3
13254	-0.0001	-9e-05	-5e-05	-0.00013	-0.00016	6e-05	-8e-05	-4e-05	3
13255	-0.0001	-9e-05	-5e-05	-0.00013	-0.00016	6e-05	-8e-05	-4e-05	3
13256	-0.0001	-9e-05	-5e-05	-0.00013	-0.00016	6e-05	-8e-05	-4e-05	3
13257	-0.0001	-9e-05	-5e-05	-0.00013	-0.00016	6e-05	-8e-05	-4e-05	3
13258	-0.0001	-9e-05	-5e-05	-0.00013	-0.00016	6e-05	-8e-05	-4e-05	3
13259	-0.0001	-9e-05	-5e-05	-0.00013	-0.00016	6e-05	-8e-05	-4e-05	3
13260	-0.0001	-9e-05	-5e-05	-0.00013	-0.00016	6e-05	-8e-05	-4e-05	3
13261	-0.0001	-9e-05	-5e-05	-0.00013	-0.00016	6e-05	-8e-05	-4e-05	3
13262	7e-05	-1e-05	3e-05	1e-05	4e-05	4e-05	0.00026	0.00033	3
13263	0.00011	0.00013	7e-05	4e-05	0	0.00012	0.0006	0.00042	3
13264	0.00011	0.00013	7e-05	4e-05	0	0.00012	0.0006	0.00042	3
13265	0.00011	0.00013	7e-05	4e-05	0	0.00012	0.0006	0.00042	3
13266	0.00011	0.00013	7e-05	4e-05	0	0.00012	0.0006	0.00042	3
13267	0.00011	0.00013	7e-05	4e-05	0	0.00012	0.0006	0.00042	3
13268	0.00011	0.00013	7e-05	4e-05	0	0.00012	0.0006	0.00042	3
13269	0.00011	0.00013	7e-05	4e-05	0	0.00012	0.0006	0.00042	3
13270	0.00011	0.00013	7e-05	4e-05	0	0.00012	0.0006	0.00042	3
13271	0.00011	0.00013	7e-05	4e-05	0	0.00012	0.0006	0.00042	3
13272	0.00011	0.00013	7e-05	4e-05	0	0.00012	0.0006	0.00042	3
13273	0.00011	0.00013	7e-05	4e-05	0	0.00012	0.0006	0.00042	3
13274	0.00011	0.00013	7e-05	4e-05	0	0.00012	0.0006	0.00042	3
13275	0.00011	0.00013	7e-05	4e-05	0	0.00012	0.0006	0.00042	3
13276	0.00011	0.00013	7e-05	4e-05	0	0.00012	0.0006	0.00042	3
13277	-0.00014	-4e-05	-1e-05	0	-1e-05	-1e-05	0.00011	-2e-05	3
13278	-0.00014	-4e-05	-1e-05	0	-1e-05	-1e-05	0.00011	-2e-05	3
13279	-0.00014	-4e-05	-1e-05	0	-1e-05	-1e-05	0.00011	-2e-05	3
13280	-0.00014	-4e-05	-1e-05	0	-1e-05	-1e-05	0.00011	-2e-05	3
13281	-0.00014	-4e-05	-1e-05	0	-1e-05	-1e-05	0.00011	-2e-05	3
13282	-0.00014	-4e-05	-1e-05	0	-1e-05	-1e-05	0.00011	-2e-05	3
13283	-0.00014	-4e-05	-1e-05	0	-1e-05	-1e-05	0.00011	-2e-05	3
13284	-0.00014	-4e-05	-1e-05	0	-1e-05	-1e-05	0.00011	-2e-05	3
13285	-0.00014	-4e-05	-1e-05	0	-1e-05	-1e-05	0.00011	-2e-05	3
13286	0.00123	0.00021	2e-05	2e-05	6e-05	3e-05	0.00018	-5e-05	3
13289	0.0004	4e-05	2e-05	3e-05	-1e-05	-2e-05	-0.00013	0.00032	3
13290	0.0004	4e-05	2e-05	3e-05	-1e-05	-2e-05	-0.00013	0.00032	3
13291	0.0004	4e-05	2e-05	3e-05	-1e-05	-2e-05	-0.00013	0.00032	3
13292	0.0004	4e-05	2e-05	3e-05	-1e-05	-2e-05	-0.00013	0.00032	3
13293	0.0004	4e-05	2e-05	3e-05	-1e-05	-2e-05	-0.00013	0.00032	3
13294	0.0004	4e-05	2e-05	3e-05	-1e-05	-2e-05	-0.00013	0.00032	3
13295	0.0004	4e-05	2e-05	3e-05	-1e-05	-2e-05	-0.00013	0.00032	3
13296	0.0004	4e-05	2e-05	3e-05	-1e-05	-2e-05	-0.00013	0.00032	3
13297	0.0004	4e-05	2e-05	3e-05	-1e-05	-2e-05	-0.00013	0.00032	3
13298	0.0004	4e-05	2e-05	3e-05	-1e-05	-2e-05	-0.00013	0.00032	3
13299	0.0004	4e-05	2e-05	3e-05	-1e-05	-2e-05	-0.00013	0.00032	3
13300	0.0004	4e-05	2e-05	3e-05	-1e-05	-2e-05	-0.00013	0.00032	3
13301	0.0004	4e-05	2e-05	3e-05	-1e-05	-2e-05	-0.00013	0.00032	3
13302	0.0004	4e-05	2e-05	3e-05	-1e-05	-2e-05	-0.00013	0.00032	3
13303	0.0004	4e-05	2e-05	3e-05	-1e-05	-2e-05	-0.00013	0.00032	3
13304	0.0004	4e-05	2e-05	3e-05	-1e-05	-2e-05	-0.00013	0.00032	3
13305	0.0004	4e-05	2e-05	3e-05	-1e-05	-2e-05	-0.00013	0.00032	3
13306	0.0004	4e-05	2e-05	3e-05	-1e-05	-2e-05	-0.00013	0.00032	3
13307	0.0004	4e-05	2e-05	3e-05	-1e-05	-2e-05	-0.00013	0.00032	3
13308	0.00051	4e-05	2e-05	4e-05	-2e-05	-4e-05	0.00018	-2e-05	3
13309	0.00051	4e-05	2e-05	4e-05	-2e-05	-4e-05	0.00018	-2e-05	3
13310	0.00055	-2e-05	-1e-05	-3e-05	-4e-05	-8e-05	-0.00041	-0.00048	3
13311	0.00055	-2e-05	-1e-05	-3e-05	-4e-05	-8e-05	-0.00041	-0.00048	3
13312	0.00055	-2e-05	-1e-05	-3e-05	-4e-05	-8e-05	-0.00041	-0.00048	3
13313	0.00055	-2e-05	-1e-05	-3e-05	-4e-05	-8e-05	-0.00041	-0.00048	3
13314	0.00055	-2e-05	-1e-05	-3e-05	-4e-05	-8e-05	-0.00041	-0.00048	3
13315	0.00055	-2e-05	-1e-05	-3e-05	-4e-05	-8e-05	-0.00041	-0.00048	3
13316	0.00055	-2e-05	-1e-05	-3e-05	-4e-05	-8e-05	-0.00041	-0.00048	3
13317	0.00055	-2e-05	-1e-05	-3e-05	-4e-05	-8e-05	-0.00041	-0.00048	3
13318	0.00055	-2e-05	-1e-05	-3e-05	-4e-05	-8e-05	-0.00041	-0.00048	3
13319	0.00055	-2e-05	-1e-05	-3e-05	-4e-05	-8e-05	-0.00041	-0.00048	3
13320	0.00055	-2e-05	-1e-05	-3e-05	-4e-05	-8e-05	-0.00041	-0.00048	3
13321	0.00055	-2e-05	-1e-05	-3e-05	-4e-05	-8e-05	-0.00041	-0.00048	3
13322	0.00055	-2e-05	-1e-05	-3e-05	-4e-05	-8e-05	-0.00041	-0.00048	3
13323	-0.00011	-4e-05	-5e-05	-4e-05	-0.0001	-0.0001	-0.00045	-4e-05	3
13324	-0.00011	-4e-05	-5e-05	-4e-05	-0.0001	-0.0001	-0.00045	-4e-05	3
13325	-0.00011	-4e-05	-5e-05	-4e-05	-0.0001	-0.0001	-0.00045	-4e-05	3
13326	-0.00011	-4e-05	-5e-05	-4e-05	-0.0001	-0.0001	-0.00045	-4e-05	3
13327	-0.00011	-4e-05	-5e-05	-4e-05	-0.0001	-0.0001	-0.00045	-4e-05	3
13328	-0.00011	-4e-05	-5e-05	-4e-05	-0.0001	-0.0001	-0.00045	-4e-05	3
13329	-0.00051	-6e-05	-1e-05	2e-05	0	7e-05	0.00041	0.00019	3
13330	-0.00051	-6e-05	-1e-05	2e-05	0	7e-05	0.00041	0.00019	3
13331	-0.00051	-6e-05	-1e-05	2e-05	0	7e-05	0.00041	0.00019	3
13332	-0.00051	-6e-05	-1e-05	2e-05	0	7e-05	0.00041	0.00019	3
13333	-0.00051	-6e-05	-1e-05	2e-05	0	7e-05	0.00041	0.00019	3
13334	-0.00051	-6e-05	-1e-05	2e-05	0	7e-05	0.00041	0.00019	3
13335	-0.00051	-6e-05	-1e-05	2e-05	0	7e-05	0.00041	0.00019	3
13336	-0.00051	-6e-05	-1e-05	2e-05	0	7e-05	0.00041	0.00019	3
13339	-0.00051	-6e-05	-1e-05	2e-05	0	7e-05	0.00041	0.00019	3
13340	-0.00051	-6e-05	-1e-05	2e-05	0	7e-05	0.00041	0.00019	3
13341	-0.00051	-6e-05	-1e-05	2e-05	0	7e-05	0.00041	0.00019	3
13342	-0.00051	-6e-05	-1e-05	2e-05	0	7e-05	0.00041	0.00019	3
13343	-0.00051	-6e-05	-1e-05	2e-05	0	7e-05	0.00041	0.00019	3
13344	-0.00051	-6e-05	-1e-05	2e-05	0	7e-05	0.00041	0.00019	3
13345	-0.00051	-6e-05	-1e-05	2e-05	0	7e-05	0.00041	0.00019	3
13346	-0.00102	-0.00019	-6e-05	-3e-05	-9e-05	-0.00041	-0.00056	-0.00025	3
13347	0.00055	0.00016	4e-05	4e-05	2e-05	0.0001	0.00037	-0.00026	3
13348	0.00055	0.00016	4e-05	4e-05	2e-05	0.0001	0.00037	-0.00026	3
13349	0.00055	0.00016	4e-05	4e-05	2e-05	0.0001	0.00037	-0.00026	3
13350	0.00055	0.00016	4e-05	4e-05	2e-05	0.0001	0.00037	-0.00026	3
13351	0.00055	0.00016	4e-05	4e-05	2e-05	0.0001	0.00037	-0.00026	3
13352	0.00055	0.00016	4e-05	4e-05	2e-05	0.0001	0.00037	-0.00026	3
13353	0.00055	0.00016	4e-05	4e-05	2e-05	0.0001	0.00037	-0.00026	3
13354	0.00055	0.00016	4e-05	4e-05	2e-05	0.0001	0.00037	-0.00026	3
13355	0.00055	0.00016	4e-05	4e-05	2e-05	0.0001	0.00037	-0.00026	3
13356	0.00055	0.00016	4e-05	4e-05	2e-05	0.0001	0.00037	-0.00026	3
13357	0.00055	0.00016	4e-05	4e-05	2e-05	0.0001	0.00037	-0.00026	3
13358	0.00055	0.00016	4e-05	4e-05	2e-05	0.0001	0.00037	-0.00026	3
13359	0.00055	0.00016	4e-05	4e-05	2e-05	0.0001	0.00037	-0.00026	3
13360	0.00055	0.00016	4e-05	4e-05	2e-05	0.0001	0.00037	-0.00026	3
13361	0.00055	0.00016	4e-05	4e-05	2e-05	0.0001	0.00037	-0.00026	3
13362	0.00055	0.00016	4e-05	4e-05	2e-05	0.0001	0.00037	-0.00026	3
13363	0.00055	0.00016	4e-05	4e-05	2e-05	0.0001	0.00037	-0.00026	3
13364	0.00055	0.00016	4e-05	4e-05	2e-05	0.0001	0.00037	-0.00026	3
13365	0.00055	0.00016	4e-05	4e-05	2e-05	0.0001	0.00037	-0.00026	3
13366	0.00055	0.00016	4e-05	4e-05	2e-05	0.0001	0.00037	-0.00026	3
13367	0.00055	0.00016	4e-05	4e-05	2e-05	0.0001	0.00037	-0.00026	3
13368	0.00055	0.00016	4e-05	4e-05	2e-05	0.0001	0.00037	-0.00026	3
13369	0.00055	0.00016	4e-05	4e-05	2e-05	0.0001	0.00037	-0.00026	3
13370	0.00055	0.00016	4e-05	4e-05	2e-05	0.0001	0.00037	-0.00026	3
13371	0.00055	0.00016	4e-05	4e-05	2e-05	0.0001	0.00037	-0.00026	3
13372	0.00055	0.00016	4e-05	4e-05	2e-05	0.0001	0.00037	-0.00026	3
13373	0.00055	0.00016	4e-05	4e-05	2e-05	0.0001	0.00037	-0.00026	3
13374	0.00055	0.00016	4e-05	4e-05	2e-05	0.0001	0.00037	-0.00026	3
13375	0.00055	0.00016	4e-05	4e-05	2e-05	0.0001	0.00037	-0.00026	3
13376	0.00018	7e-05	2e-05	0	-4e-05	0.00023	0.0002	0.00014	3
13377	0.00029	0.00013	3e-05	0	1e-05	-3e-05	-4e-05	0.00031	3
13378	0.00029	0.00013	3e-05	0	1e-05	-3e-05	-4e-05	0.00031	3
13379	0.00029	0.00013	3e-05	0	1e-05	-3e-05	-4e-05	0.00031	3
13380	0.00029	0.00013	3e-05	0	1e-05	-3e-05	-4e-05	0.00031	3
13381	0.00029	0.00013	3e-05	0	1e-05	-3e-05	-4e-05	0.00031	3
13382	-0.00057	-0.00016	-7e-05	-9e-05	-0.00012	-0.00018	-0.00021	-0.00015	3
13383	-0.00057	-0.00016	-7e-05	-9e-05	-0.00012	-0.00018	-0.00021	-0.00015	3
13384	-0.00057	-0.00016	-7e-05	-9e-05	-0.00012	-0.00018	-0.00021	-0.00015	3
13385	-0.00057	-0.00016	-7e-05	-9e-05	-0.00012	-0.00018	-0.00021	-0.00015	3
13386	-0.00057	-0.00016	-7e-05	-9e-05	-0.00012	-0.00018	-0.00021	-0.00015	3
13388	-0.00057	-0.00016	-7e-05	-9e-05	-0.00012	-0.00018	-0.00021	-0.00015	3
13390	-0.00057	-0.00016	-7e-05	-9e-05	-0.00012	-0.00018	-0.00021	-0.00015	3
13391	-0.00057	-0.00016	-7e-05	-9e-05	-0.00012	-0.00018	-0.00021	-0.00015	3
13392	-0.00057	-0.00016	-7e-05	-9e-05	-0.00012	-0.00018	-0.00021	-0.00015	3
13393	-0.00057	-0.00016	-7e-05	-9e-05	-0.00012	-0.00018	-0.00021	-0.00015	3
13394	-0.00057	-0.00016	-7e-05	-9e-05	-0.00012	-0.00018	-0.00021	-0.00015	3
13395	-0.00057	-0.00016	-7e-05	-9e-05	-0.00012	-0.00018	-0.00021	-0.00015	3
13396	-0.00057	-0.00016	-7e-05	-9e-05	-0.00012	-0.00018	-0.00021	-0.00015	3
13397	-0.00051	-0.00014	-6e-05	-5e-05	-6e-05	-0.00018	-0.00056	-9e-05	3
13398	-0.00051	-0.00014	-6e-05	-5e-05	-6e-05	-0.00018	-0.00056	-9e-05	3
13399	-0.00051	-0.00014	-6e-05	-5e-05	-6e-05	-0.00018	-0.00056	-9e-05	3
13400	-0.00051	-0.00014	-6e-05	-5e-05	-6e-05	-0.00018	-0.00056	-9e-05	3
13401	-0.00051	-0.00014	-6e-05	-5e-05	-6e-05	-0.00018	-0.00056	-9e-05	3
13402	-0.00051	-0.00014	-6e-05	-5e-05	-6e-05	-0.00018	-0.00056	-9e-05	3
13403	-0.00051	-0.00014	-6e-05	-5e-05	-6e-05	-0.00018	-0.00056	-9e-05	3
13404	-0.00051	-0.00014	-6e-05	-5e-05	-6e-05	-0.00018	-0.00056	-9e-05	3
13405	-0.00051	-0.00014	-6e-05	-5e-05	-6e-05	-0.00018	-0.00056	-9e-05	3
13406	0.00061	0.00014	4e-05	2e-05	-3e-05	0.00017	0.0004	0.00058	3
13407	-0.00018	-5e-05	1e-05	1e-05	8e-05	0.00012	0.00018	5e-05	3
13408	-0.00018	-5e-05	1e-05	1e-05	8e-05	0.00012	0.00018	5e-05	3
13409	-0.00018	-5e-05	1e-05	1e-05	8e-05	0.00012	0.00018	5e-05	3
13410	-0.00018	-5e-05	1e-05	1e-05	8e-05	0.00012	0.00018	5e-05	3
13411	-0.00018	-5e-05	1e-05	1e-05	8e-05	0.00012	0.00018	5e-05	3
13412	-0.00018	-5e-05	1e-05	1e-05	8e-05	0.00012	0.00018	5e-05	3
13413	-0.00018	-5e-05	1e-05	1e-05	8e-05	0.00012	0.00018	5e-05	3
13414	-0.00018	-5e-05	1e-05	1e-05	8e-05	0.00012	0.00018	5e-05	3
13415	-0.00018	-5e-05	1e-05	1e-05	8e-05	0.00012	0.00018	5e-05	3
13416	-0.00018	-5e-05	1e-05	1e-05	8e-05	0.00012	0.00018	5e-05	3
13417	-0.00018	-5e-05	1e-05	1e-05	8e-05	0.00012	0.00018	5e-05	3
13418	-0.00018	-5e-05	1e-05	1e-05	8e-05	0.00012	0.00018	5e-05	3
13419	-0.00018	-5e-05	1e-05	1e-05	8e-05	0.00012	0.00018	5e-05	3
13420	-0.00018	-5e-05	1e-05	1e-05	8e-05	0.00012	0.00018	5e-05	3
13421	-0.00018	-5e-05	1e-05	1e-05	8e-05	0.00012	0.00018	5e-05	3
13422	-0.00018	-5e-05	1e-05	1e-05	8e-05	0.00012	0.00018	5e-05	3
13423	-0.00018	-5e-05	1e-05	1e-05	8e-05	0.00012	0.00018	5e-05	3
13424	-0.00018	-5e-05	1e-05	1e-05	8e-05	0.00012	0.00018	5e-05	3
13425	-0.00018	-5e-05	1e-05	1e-05	8e-05	0.00012	0.00018	5e-05	3
13426	-0.00018	-5e-05	1e-05	1e-05	8e-05	0.00012	0.00018	5e-05	3
13427	-0.00018	-5e-05	1e-05	1e-05	8e-05	0.00012	0.00018	5e-05	3
13428	0.00013	5e-05	0	0	-2e-05	-0.0001	-0.00051	5e-05	3
13429	0.00013	5e-05	0	0	-2e-05	-0.0001	-0.00051	5e-05	3
13430	-0.00018	-0.00015	-6e-05	-3e-05	-4e-05	-9e-05	-8e-05	3e-05	3
13431	-0.00018	-0.00015	-6e-05	-3e-05	-4e-05	-9e-05	-8e-05	3e-05	3
13432	-0.00018	-0.00015	-6e-05	-3e-05	-4e-05	-9e-05	-8e-05	3e-05	3
13433	-0.00018	-0.00015	-6e-05	-3e-05	-4e-05	-9e-05	-8e-05	3e-05	3
13434	-0.00018	-0.00015	-6e-05	-3e-05	-4e-05	-9e-05	-8e-05	3e-05	3
13435	-0.00018	-0.00015	-6e-05	-3e-05	-4e-05	-9e-05	-8e-05	3e-05	3
13436	-0.00018	-0.00015	-6e-05	-3e-05	-4e-05	-9e-05	-8e-05	3e-05	3
13439	-0.00018	-0.00015	-6e-05	-3e-05	-4e-05	-9e-05	-8e-05	3e-05	3
13440	-0.00018	-0.00015	-6e-05	-3e-05	-4e-05	-9e-05	-8e-05	3e-05	3
13441	-0.00018	-0.00015	-6e-05	-3e-05	-4e-05	-9e-05	-8e-05	3e-05	3
13442	-0.00018	-0.00015	-6e-05	-3e-05	-4e-05	-9e-05	-8e-05	3e-05	3
13443	0.00089	2e-05	-1e-05	-1e-05	1e-05	-8e-05	-0.00024	-0.00021	3
13444	0.00089	2e-05	-1e-05	-1e-05	1e-05	-8e-05	-0.00024	-0.00021	3
13445	0.00089	2e-05	-1e-05	-1e-05	1e-05	-8e-05	-0.00024	-0.00021	3
13446	0.00089	2e-05	-1e-05	-1e-05	1e-05	-8e-05	-0.00024	-0.00021	3
13447	0.00089	2e-05	-1e-05	-1e-05	1e-05	-8e-05	-0.00024	-0.00021	3
13448	0.00089	2e-05	-1e-05	-1e-05	1e-05	-8e-05	-0.00024	-0.00021	3
13449	0.00022	1e-05	-1e-05	3e-05	-1e-05	7e-05	0.00029	0.00049	3
13450	0.00022	1e-05	-1e-05	3e-05	-1e-05	7e-05	0.00029	0.00049	3
13451	0.00022	1e-05	-1e-05	3e-05	-1e-05	7e-05	0.00029	0.00049	3
13452	0.00022	1e-05	-1e-05	3e-05	-1e-05	7e-05	0.00029	0.00049	3
13453	0.00022	1e-05	-1e-05	3e-05	-1e-05	7e-05	0.00029	0.00049	3
13454	0.00022	1e-05	-1e-05	3e-05	-1e-05	7e-05	0.00029	0.00049	3
13455	0.00022	1e-05	-1e-05	3e-05	-1e-05	7e-05	0.00029	0.00049	3
13456	0.00022	1e-05	-1e-05	3e-05	-1e-05	7e-05	0.00029	0.00049	3
13457	0.00022	1e-05	-1e-05	3e-05	-1e-05	7e-05	0.00029	0.00049	3
13458	0.00022	1e-05	-1e-05	3e-05	-1e-05	7e-05	0.00029	0.00049	3
13459	0.00022	1e-05	-1e-05	3e-05	-1e-05	7e-05	0.00029	0.00049	3
13460	0.00022	1e-05	-1e-05	3e-05	-1e-05	7e-05	0.00029	0.00049	3
13461	0.00022	1e-05	-1e-05	3e-05	-1e-05	7e-05	0.00029	0.00049	3
13462	0.00022	1e-05	-1e-05	3e-05	-1e-05	7e-05	0.00029	0.00049	3
13463	0.00022	1e-05	-1e-05	3e-05	-1e-05	7e-05	0.00029	0.00049	3
13464	0.00022	1e-05	-1e-05	3e-05	-1e-05	7e-05	0.00029	0.00049	3
13465	0.00022	1e-05	-1e-05	3e-05	-1e-05	7e-05	0.00029	0.00049	3
13466	3e-05	3e-05	-1e-05	-6e-05	1e-05	-4e-05	-0.00024	-0.00012	3
13467	0.00012	-2e-05	-4e-05	-6e-05	-0.00015	-5e-05	-0.0001	-0.00033	3
13468	0.00012	-2e-05	-4e-05	-6e-05	-0.00015	-5e-05	-0.0001	-0.00033	3
13469	0.00012	-2e-05	-4e-05	-6e-05	-0.00015	-5e-05	-0.0001	-0.00033	3
13470	0.00012	-2e-05	-4e-05	-6e-05	-0.00015	-5e-05	-0.0001	-0.00033	3
13471	0.00012	-2e-05	-4e-05	-6e-05	-0.00015	-5e-05	-0.0001	-0.00033	3
13472	0.00012	-2e-05	-4e-05	-6e-05	-0.00015	-5e-05	-0.0001	-0.00033	3
13473	0.00012	-2e-05	-4e-05	-6e-05	-0.00015	-5e-05	-0.0001	-0.00033	3
13474	0.00012	-2e-05	-4e-05	-6e-05	-0.00015	-5e-05	-0.0001	-0.00033	3
13475	0.00012	-2e-05	-4e-05	-6e-05	-0.00015	-5e-05	-0.0001	-0.00033	3
13476	0.00012	-2e-05	-4e-05	-6e-05	-0.00015	-5e-05	-0.0001	-0.00033	3
13477	0.00012	-2e-05	-4e-05	-6e-05	-0.00015	-5e-05	-0.0001	-0.00033	3
13478	0.00012	-2e-05	-4e-05	-6e-05	-0.00015	-5e-05	-0.0001	-0.00033	3
13479	0.00012	-2e-05	-4e-05	-6e-05	-0.00015	-5e-05	-0.0001	-0.00033	3
13480	0.00012	-2e-05	-4e-05	-6e-05	-0.00015	-5e-05	-0.0001	-0.00033	3
13481	0.00012	-2e-05	-4e-05	-6e-05	-0.00015	-5e-05	-0.0001	-0.00033	3
13482	0.00012	-2e-05	-4e-05	-6e-05	-0.00015	-5e-05	-0.0001	-0.00033	3
13483	0.00012	-2e-05	-4e-05	-6e-05	-0.00015	-5e-05	-0.0001	-0.00033	3
13484	0.00012	-2e-05	-4e-05	-6e-05	-0.00015	-5e-05	-0.0001	-0.00033	3
13485	0.00012	-2e-05	-4e-05	-6e-05	-0.00015	-5e-05	-0.0001	-0.00033	3
13486	0.00012	-2e-05	-4e-05	-6e-05	-0.00015	-5e-05	-0.0001	-0.00033	3
13489	-0.00047	-8e-05	-6e-05	-4e-05	-5e-05	-9e-05	-0.00036	-7e-05	3
13490	-0.00023	-1e-05	-1e-05	-1e-05	-4e-05	1e-05	-0.00028	0.00049	3
13491	-0.00023	-1e-05	-1e-05	-1e-05	-4e-05	1e-05	-0.00028	0.00049	3
13492	-0.00023	-1e-05	-1e-05	-1e-05	-4e-05	1e-05	-0.00028	0.00049	3
13493	-0.00023	-1e-05	-1e-05	-1e-05	-4e-05	1e-05	-0.00028	0.00049	3
13494	-0.00023	-1e-05	-1e-05	-1e-05	-4e-05	1e-05	-0.00028	0.00049	3
13495	-0.00023	-1e-05	-1e-05	-1e-05	-4e-05	1e-05	-0.00028	0.00049	3
13496	-0.00023	-1e-05	-1e-05	-1e-05	-4e-05	1e-05	-0.00028	0.00049	3
13497	-0.00023	-1e-05	-1e-05	-1e-05	-4e-05	1e-05	-0.00028	0.00049	3
13498	-0.00023	-1e-05	-1e-05	-1e-05	-4e-05	1e-05	-0.00028	0.00049	3
13499	-0.00023	-1e-05	-1e-05	-1e-05	-4e-05	1e-05	-0.00028	0.00049	3
13500	-0.00023	-1e-05	-1e-05	-1e-05	-4e-05	1e-05	-0.00028	0.00049	3
13501	-0.00023	-1e-05	-1e-05	-1e-05	-4e-05	1e-05	-0.00028	0.00049	3
13502	-0.00023	-1e-05	-1e-05	-1e-05	-4e-05	1e-05	-0.00028	0.00049	3
13503	-8e-05	-9e-05	-8e-05	-4e-05	-3e-05	-6e-05	7e-05	3e-05	3
13504	-8e-05	-9e-05	-8e-05	-4e-05	-3e-05	-6e-05	7e-05	3e-05	3
13505	-8e-05	-9e-05	-8e-05	-4e-05	-3e-05	-6e-05	7e-05	3e-05	3
13506	-8e-05	-9e-05	-8e-05	-4e-05	-3e-05	-6e-05	7e-05	3e-05	3
13507	-8e-05	-9e-05	-8e-05	-4e-05	-3e-05	-6e-05	7e-05	3e-05	3
13508	-8e-05	-9e-05	-8e-05	-4e-05	-3e-05	-6e-05	7e-05	3e-05	3
13509	-8e-05	-9e-05	-8e-05	-4e-05	-3e-05	-6e-05	7e-05	3e-05	3
13510	-8e-05	-9e-05	-8e-05	-4e-05	-3e-05	-6e-05	7e-05	3e-05	3
13511	0.00041	0.0001	1e-05	-3e-05	-2e-05	-8e-05	0.00056	0.00055	3
13512	0.00041	0.0001	1e-05	-3e-05	-2e-05	-8e-05	0.00056	0.00055	3
13513	0.00041	0.0001	1e-05	-3e-05	-2e-05	-8e-05	0.00056	0.00055	3
13514	0.00041	0.0001	1e-05	-3e-05	-2e-05	-8e-05	0.00056	0.00055	3
13515	0.00041	0.0001	1e-05	-3e-05	-2e-05	-8e-05	0.00056	0.00055	3
13516	0.00041	0.0001	1e-05	-3e-05	-2e-05	-8e-05	0.00056	0.00055	3
13517	0.00041	0.0001	1e-05	-3e-05	-2e-05	-8e-05	0.00056	0.00055	3
13518	0.00041	0.0001	1e-05	-3e-05	-2e-05	-8e-05	0.00056	0.00055	3
13519	0.00041	0.0001	1e-05	-3e-05	-2e-05	-8e-05	0.00056	0.00055	3
13520	0.00041	0.0001	1e-05	-3e-05	-2e-05	-8e-05	0.00056	0.00055	3
13521	0.00041	0.0001	1e-05	-3e-05	-2e-05	-8e-05	0.00056	0.00055	3
13522	0.00041	0.0001	1e-05	-3e-05	-2e-05	-8e-05	0.00056	0.00055	3
13523	0.00041	0.0001	1e-05	-3e-05	-2e-05	-8e-05	0.00056	0.00055	3
13524	0.00041	0.0001	1e-05	-3e-05	-2e-05	-8e-05	0.00056	0.00055	3
13525	0.00041	0.0001	1e-05	-3e-05	-2e-05	-8e-05	0.00056	0.00055	3
13526	0.00041	0.0001	1e-05	-3e-05	-2e-05	-8e-05	0.00056	0.00055	3
13527	-0.00012	0	0	2e-05	-1e-05	7e-05	0.00014	4e-05	3
13528	-0.00012	0	0	2e-05	-1e-05	7e-05	0.00014	4e-05	3
13529	-0.00012	0	0	2e-05	-1e-05	7e-05	0.00014	4e-05	3
13530	-0.00012	0	0	2e-05	-1e-05	7e-05	0.00014	4e-05	3
13531	-0.00012	0	0	2e-05	-1e-05	7e-05	0.00014	4e-05	3
13532	0.00062	0.0001	1e-05	-1e-05	3e-05	4e-05	0.00021	-0.00027	3
13533	0.00062	0.0001	1e-05	-1e-05	3e-05	4e-05	0.00021	-0.00027	3
13534	0.00062	0.0001	1e-05	-1e-05	3e-05	4e-05	0.00021	-0.00027	3
13535	0.00062	0.0001	1e-05	-1e-05	3e-05	4e-05	0.00021	-0.00027	3
13536	0.00062	0.0001	1e-05	-1e-05	3e-05	4e-05	0.00021	-0.00027	3
13539	0.00062	0.0001	1e-05	-1e-05	3e-05	4e-05	0.00021	-0.00027	3
13540	0.00062	0.0001	1e-05	-1e-05	3e-05	4e-05	0.00021	-0.00027	3
13541	0.00062	0.0001	1e-05	-1e-05	3e-05	4e-05	0.00021	-0.00027	3
13542	0.00062	0.0001	1e-05	-1e-05	3e-05	4e-05	0.00021	-0.00027	3
13543	0.00062	0.0001	1e-05	-1e-05	3e-05	4e-05	0.00021	-0.00027	3
13544	0.00062	0.0001	1e-05	-1e-05	3e-05	4e-05	0.00021	-0.00027	3
13545	0.00062	0.0001	1e-05	-1e-05	3e-05	4e-05	0.00021	-0.00027	3
13546	0.00062	0.0001	1e-05	-1e-05	3e-05	4e-05	0.00021	-0.00027	3
13547	0.00062	0.0001	1e-05	-1e-05	3e-05	4e-05	0.00021	-0.00027	3
13548	0.00062	0.0001	1e-05	-1e-05	3e-05	4e-05	0.00021	-0.00027	3
13549	0.00062	0.0001	1e-05	-1e-05	3e-05	4e-05	0.00021	-0.00027	3
13550	0.00062	0.0001	1e-05	-1e-05	3e-05	4e-05	0.00021	-0.00027	3
13551	0.00062	0.0001	1e-05	-1e-05	3e-05	4e-05	0.00021	-0.00027	3
13552	0.00062	0.0001	1e-05	-1e-05	3e-05	4e-05	0.00021	-0.00027	3
13553	0.00062	0.0001	1e-05	-1e-05	3e-05	4e-05	0.00021	-0.00027	3
13554	0.00062	0.0001	1e-05	-1e-05	3e-05	4e-05	0.00021	-0.00027	3
13555	0.00062	0.0001	1e-05	-1e-05	3e-05	4e-05	0.00021	-0.00027	3
13556	0.00025	0.00012	6e-05	7e-05	0.00017	0.00024	0.00099	0.00019	3
13557	-0.00078	-5e-05	4e-05	1e-05	8e-05	-4e-05	-3e-05	-0.00021	3
13558	-0.00078	-5e-05	4e-05	1e-05	8e-05	-4e-05	-3e-05	-0.00021	3
13559	-0.00078	-5e-05	4e-05	1e-05	8e-05	-4e-05	-3e-05	-0.00021	3
13560	-0.00078	-5e-05	4e-05	1e-05	8e-05	-4e-05	-3e-05	-0.00021	3
13561	-0.00078	-5e-05	4e-05	1e-05	8e-05	-4e-05	-3e-05	-0.00021	3
13562	0.00068	0.00011	0	5e-05	3e-05	-3e-05	-0.00018	0.00031	3
13563	-0.00015	-4e-05	-4e-05	-8e-05	-0.00013	-7e-05	-8e-05	-0.0001	3
13564	-0.00015	-4e-05	-4e-05	-8e-05	-0.00013	-7e-05	-8e-05	-0.0001	3
13565	-0.00015	-4e-05	-4e-05	-8e-05	-0.00013	-7e-05	-8e-05	-0.0001	3
13566	-0.00015	-4e-05	-4e-05	-8e-05	-0.00013	-7e-05	-8e-05	-0.0001	3
13567	-0.00015	-4e-05	-4e-05	-8e-05	-0.00013	-7e-05	-8e-05	-0.0001	3
13568	-0.00015	-4e-05	-4e-05	-8e-05	-0.00013	-7e-05	-8e-05	-0.0001	3
13569	-0.00015	-4e-05	-4e-05	-8e-05	-0.00013	-7e-05	-8e-05	-0.0001	3
13570	-0.00015	-4e-05	-4e-05	-8e-05	-0.00013	-7e-05	-8e-05	-0.0001	3
13571	-0.00015	-4e-05	-4e-05	-8e-05	-0.00013	-7e-05	-8e-05	-0.0001	3
13572	-0.00015	-4e-05	-4e-05	-8e-05	-0.00013	-7e-05	-8e-05	-0.0001	3
13573	-0.00015	-4e-05	-4e-05	-8e-05	-0.00013	-7e-05	-8e-05	-0.0001	3
13574	-0.00015	-4e-05	-4e-05	-8e-05	-0.00013	-7e-05	-8e-05	-0.0001	3
13575	-0.00015	-4e-05	-4e-05	-8e-05	-0.00013	-7e-05	-8e-05	-0.0001	3
13576	-0.00015	-4e-05	-4e-05	-8e-05	-0.00013	-7e-05	-8e-05	-0.0001	3
13577	3e-05	-4e-05	1e-05	6e-05	1e-05	-1e-05	-0.00011	-5e-05	3
13578	3e-05	-4e-05	1e-05	6e-05	1e-05	-1e-05	-0.00011	-5e-05	3
13579	3e-05	-4e-05	1e-05	6e-05	1e-05	-1e-05	-0.00011	-5e-05	3
13580	3e-05	-4e-05	1e-05	6e-05	1e-05	-1e-05	-0.00011	-5e-05	3
13581	3e-05	-4e-05	1e-05	6e-05	1e-05	-1e-05	-0.00011	-5e-05	3
13582	3e-05	-4e-05	1e-05	6e-05	1e-05	-1e-05	-0.00011	-5e-05	3
13583	3e-05	-4e-05	1e-05	6e-05	1e-05	-1e-05	-0.00011	-5e-05	3
13584	3e-05	-4e-05	1e-05	6e-05	1e-05	-1e-05	-0.00011	-5e-05	3
13585	3e-05	-4e-05	1e-05	6e-05	1e-05	-1e-05	-0.00011	-5e-05	3
13586	-0.0002	-5e-05	0	-1e-05	-0.00012	-0.00012	-0.00031	-5e-05	3
13589	-0.00024	-8e-05	0	2e-05	3e-05	-2e-05	-0.00014	-0.00057	3
13590	-0.00024	-8e-05	0	2e-05	3e-05	-2e-05	-0.00014	-0.00057	3
13591	-0.00024	-8e-05	0	2e-05	3e-05	-2e-05	-0.00014	-0.00057	3
13592	-0.00024	-8e-05	0	2e-05	3e-05	-2e-05	-0.00014	-0.00057	3
13593	-0.00024	-8e-05	0	2e-05	3e-05	-2e-05	-0.00014	-0.00057	3
13594	-0.00024	-8e-05	0	2e-05	3e-05	-2e-05	-0.00014	-0.00057	3
13595	-0.00024	-8e-05	0	2e-05	3e-05	-2e-05	-0.00014	-0.00057	3
13596	-0.00024	-8e-05	0	2e-05	3e-05	-2e-05	-0.00014	-0.00057	3
13597	-0.00024	-8e-05	0	2e-05	3e-05	-2e-05	-0.00014	-0.00057	3
13598	-0.00024	-8e-05	0	2e-05	3e-05	-2e-05	-0.00014	-0.00057	3
13599	-0.00024	-8e-05	0	2e-05	3e-05	-2e-05	-0.00014	-0.00057	3
13600	-0.00024	-8e-05	0	2e-05	3e-05	-2e-05	-0.00014	-0.00057	3
13601	-0.00024	-8e-05	0	2e-05	3e-05	-2e-05	-0.00014	-0.00057	3
13602	-0.00024	-8e-05	0	2e-05	3e-05	-2e-05	-0.00014	-0.00057	3
13603	-0.00024	-8e-05	0	2e-05	3e-05	-2e-05	-0.00014	-0.00057	3
13604	-0.00024	-8e-05	0	2e-05	3e-05	-2e-05	-0.00014	-0.00057	3
13605	-0.00024	-8e-05	0	2e-05	3e-05	-2e-05	-0.00014	-0.00057	3
13606	-0.00024	-8e-05	0	2e-05	3e-05	-2e-05	-0.00014	-0.00057	3
13607	-0.00024	-8e-05	0	2e-05	3e-05	-2e-05	-0.00014	-0.00057	3
13608	-1e-05	3e-05	-4e-05	-5e-05	-1e-05	-0.00011	-0.00016	-0.00052	3
13609	-1e-05	3e-05	-4e-05	-5e-05	-1e-05	-0.00011	-0.00016	-0.00052	3
13610	0.00023	4e-05	2e-05	1e-05	5e-05	0.00021	0.00042	0.00013	3
13611	0.00023	4e-05	2e-05	1e-05	5e-05	0.00021	0.00042	0.00013	3
13612	0.00023	4e-05	2e-05	1e-05	5e-05	0.00021	0.00042	0.00013	3
13613	0.00023	4e-05	2e-05	1e-05	5e-05	0.00021	0.00042	0.00013	3
13614	0.00023	4e-05	2e-05	1e-05	5e-05	0.00021	0.00042	0.00013	3
13615	0.00023	4e-05	2e-05	1e-05	5e-05	0.00021	0.00042	0.00013	3
13616	0.00023	4e-05	2e-05	1e-05	5e-05	0.00021	0.00042	0.00013	3
13617	0.00023	4e-05	2e-05	1e-05	5e-05	0.00021	0.00042	0.00013	3
13618	0.00023	4e-05	2e-05	1e-05	5e-05	0.00021	0.00042	0.00013	3
13619	0.00023	4e-05	2e-05	1e-05	5e-05	0.00021	0.00042	0.00013	3
13620	0.00023	4e-05	2e-05	1e-05	5e-05	0.00021	0.00042	0.00013	3
13621	0.00023	4e-05	2e-05	1e-05	5e-05	0.00021	0.00042	0.00013	3
13622	0.00019	0	-1e-05	1e-05	3e-05	-5e-05	-0.00016	8e-05	3
13623	0.00019	0	-1e-05	1e-05	3e-05	-5e-05	-0.00016	8e-05	3
13624	0.00019	0	-1e-05	1e-05	3e-05	-5e-05	-0.00016	8e-05	3
13625	0.00019	0	-1e-05	1e-05	3e-05	-5e-05	-0.00016	8e-05	3
13626	0.00019	0	-1e-05	1e-05	3e-05	-5e-05	-0.00016	8e-05	3
13627	0.00019	0	-1e-05	1e-05	3e-05	-5e-05	-0.00016	8e-05	3
13628	0.00019	0	-1e-05	1e-05	3e-05	-5e-05	-0.00016	8e-05	3
13629	0.00019	0	-1e-05	1e-05	3e-05	-5e-05	-0.00016	8e-05	3
13630	0.00019	0	-1e-05	1e-05	3e-05	-5e-05	-0.00016	8e-05	3
13631	7e-05	-4e-05	-5e-05	-4e-05	-2e-05	-1e-05	0	-5e-05	3
13632	7e-05	-4e-05	-5e-05	-4e-05	-2e-05	-1e-05	0	-5e-05	3
13633	7e-05	-4e-05	-5e-05	-4e-05	-2e-05	-1e-05	0	-5e-05	3
13634	7e-05	-4e-05	-5e-05	-4e-05	-2e-05	-1e-05	0	-5e-05	3
13635	7e-05	-4e-05	-5e-05	-4e-05	-2e-05	-1e-05	0	-5e-05	3
13636	7e-05	-4e-05	-5e-05	-4e-05	-2e-05	-1e-05	0	-5e-05	3
13639	7e-05	-4e-05	-5e-05	-4e-05	-2e-05	-1e-05	0	-5e-05	3
13640	7e-05	-4e-05	-5e-05	-4e-05	-2e-05	-1e-05	0	-5e-05	3
13641	7e-05	-4e-05	-5e-05	-4e-05	-2e-05	-1e-05	0	-5e-05	3
13642	7e-05	-4e-05	-5e-05	-4e-05	-2e-05	-1e-05	0	-5e-05	3
13643	7e-05	-4e-05	-5e-05	-4e-05	-2e-05	-1e-05	0	-5e-05	3
13644	7e-05	-4e-05	-5e-05	-4e-05	-2e-05	-1e-05	0	-5e-05	3
13645	7e-05	-4e-05	-5e-05	-4e-05	-2e-05	-1e-05	0	-5e-05	3
13646	7e-05	-4e-05	-5e-05	-4e-05	-2e-05	-1e-05	0	-5e-05	3
13647	7e-05	-4e-05	-5e-05	-4e-05	-2e-05	-1e-05	0	-5e-05	3
13648	7e-05	-4e-05	-5e-05	-4e-05	-2e-05	-1e-05	0	-5e-05	3
13649	7e-05	-4e-05	-5e-05	-4e-05	-2e-05	-1e-05	0	-5e-05	3
13650	7e-05	-4e-05	-5e-05	-4e-05	-2e-05	-1e-05	0	-5e-05	3
13651	7e-05	-4e-05	-5e-05	-4e-05	-2e-05	-1e-05	0	-5e-05	3
13652	7e-05	-4e-05	-5e-05	-4e-05	-2e-05	-1e-05	0	-5e-05	3
13653	-0.00046	-0.00012	-4e-05	4e-05	3e-05	9e-05	7e-05	6e-05	3
13654	-0.00046	-0.00012	-4e-05	4e-05	3e-05	9e-05	7e-05	6e-05	3
13655	3e-05	-5e-05	1e-05	0	-7e-05	-8e-05	0	0.00058	3
13656	3e-05	-5e-05	1e-05	0	-7e-05	-8e-05	0	0.00058	3
13657	3e-05	-5e-05	1e-05	0	-7e-05	-8e-05	0	0.00058	3
13658	3e-05	-5e-05	1e-05	0	-7e-05	-8e-05	0	0.00058	3
13659	3e-05	-5e-05	1e-05	0	-7e-05	-8e-05	0	0.00058	3
13660	3e-05	-5e-05	1e-05	0	-7e-05	-8e-05	0	0.00058	3
13661	3e-05	-5e-05	1e-05	0	-7e-05	-8e-05	0	0.00058	3
13662	3e-05	-5e-05	1e-05	0	-7e-05	-8e-05	0	0.00058	3
13663	3e-05	-5e-05	1e-05	0	-7e-05	-8e-05	0	0.00058	3
13664	3e-05	-5e-05	1e-05	0	-7e-05	-8e-05	0	0.00058	3
13665	3e-05	-5e-05	1e-05	0	-7e-05	-8e-05	0	0.00058	3
13666	3e-05	-5e-05	1e-05	0	-7e-05	-8e-05	0	0.00058	3
13667	3e-05	-5e-05	1e-05	0	-7e-05	-8e-05	0	0.00058	3
13668	3e-05	-5e-05	1e-05	0	-7e-05	-8e-05	0	0.00058	3
13669	-0.00012	-0.00014	-3e-05	-3e-05	-0.00011	-6e-05	0.00012	0.00017	3
13670	-0.00012	-0.00014	-3e-05	-3e-05	-0.00011	-6e-05	0.00012	0.00017	3
13671	-0.00012	-0.00014	-3e-05	-3e-05	-0.00011	-6e-05	0.00012	0.00017	3
13672	-0.00012	-0.00014	-3e-05	-3e-05	-0.00011	-6e-05	0.00012	0.00017	3
13673	-0.00012	-0.00014	-3e-05	-3e-05	-0.00011	-6e-05	0.00012	0.00017	3
13674	-3e-05	5e-05	6e-05	4e-05	9e-05	4e-05	-0.00029	-0.00037	3
13675	-3e-05	5e-05	6e-05	4e-05	9e-05	4e-05	-0.00029	-0.00037	3
13676	-3e-05	5e-05	6e-05	4e-05	9e-05	4e-05	-0.00029	-0.00037	3
13677	-3e-05	5e-05	6e-05	4e-05	9e-05	4e-05	-0.00029	-0.00037	3
13678	-3e-05	5e-05	6e-05	4e-05	9e-05	4e-05	-0.00029	-0.00037	3
13679	-3e-05	5e-05	6e-05	4e-05	9e-05	4e-05	-0.00029	-0.00037	3
13680	-3e-05	5e-05	6e-05	4e-05	9e-05	4e-05	-0.00029	-0.00037	3
13681	-3e-05	5e-05	6e-05	4e-05	9e-05	4e-05	-0.00029	-0.00037	3
13682	-0.00037	-4e-05	1e-05	2e-05	-1e-05	2e-05	8e-05	0.0001	3
13683	-0.00037	-4e-05	1e-05	2e-05	-1e-05	2e-05	8e-05	0.0001	3
13684	-0.00037	-4e-05	1e-05	2e-05	-1e-05	2e-05	8e-05	0.0001	3
13685	-0.00037	-4e-05	1e-05	2e-05	-1e-05	2e-05	8e-05	0.0001	3
13686	-0.00037	-4e-05	1e-05	2e-05	-1e-05	2e-05	8e-05	0.0001	3
13689	-0.00037	-4e-05	1e-05	2e-05	-1e-05	2e-05	8e-05	0.0001	3
13690	-0.00037	-4e-05	1e-05	2e-05	-1e-05	2e-05	8e-05	0.0001	3
13691	-0.00037	-4e-05	1e-05	2e-05	-1e-05	2e-05	8e-05	0.0001	3
13692	-0.00037	-4e-05	1e-05	2e-05	-1e-05	2e-05	8e-05	0.0001	3
13693	-0.00037	-4e-05	1e-05	2e-05	-1e-05	2e-05	8e-05	0.0001	3
13694	-0.00037	-4e-05	1e-05	2e-05	-1e-05	2e-05	8e-05	0.0001	3
13695	-0.00037	-4e-05	1e-05	2e-05	-1e-05	2e-05	8e-05	0.0001	3
13696	-0.00037	-4e-05	1e-05	2e-05	-1e-05	2e-05	8e-05	0.0001	3
13697	0.00013	-9e-05	-9e-05	-6e-05	-6e-05	0.0001	0.00028	-8e-05	3
13698	0.00013	-9e-05	-9e-05	-6e-05	-6e-05	0.0001	0.00028	-8e-05	3
13699	0.00013	-9e-05	-9e-05	-6e-05	-6e-05	0.0001	0.00028	-8e-05	3
13700	0.00013	-9e-05	-9e-05	-6e-05	-6e-05	0.0001	0.00028	-8e-05	3
13701	0.00013	-9e-05	-9e-05	-6e-05	-6e-05	0.0001	0.00028	-8e-05	3
13702	0.00013	-9e-05	-9e-05	-6e-05	-6e-05	0.0001	0.00028	-8e-05	3
13703	0.00013	-9e-05	-9e-05	-6e-05	-6e-05	0.0001	0.00028	-8e-05	3
13704	0.00013	-9e-05	-9e-05	-6e-05	-6e-05	0.0001	0.00028	-8e-05	3
13705	0.00013	-9e-05	-9e-05	-6e-05	-6e-05	0.0001	0.00028	-8e-05	3
13706	-0.00112	-0.0003	-9e-05	-8e-05	-9e-05	-0.00015	-0.00025	-0.00049	3
13707	-0.00013	-5e-05	-4e-05	1e-05	-1e-05	-0.00024	-0.00042	-0.00053	3
13708	-0.00013	-5e-05	-4e-05	1e-05	-1e-05	-0.00024	-0.00042	-0.00053	3
13709	-0.00013	-5e-05	-4e-05	1e-05	-1e-05	-0.00024	-0.00042	-0.00053	3
13710	-0.00013	-5e-05	-4e-05	1e-05	-1e-05	-0.00024	-0.00042	-0.00053	3
13711	-0.00013	-5e-05	-4e-05	1e-05	-1e-05	-0.00024	-0.00042	-0.00053	3
13712	-0.00013	-5e-05	-4e-05	1e-05	-1e-05	-0.00024	-0.00042	-0.00053	3
13713	-0.00013	-5e-05	-4e-05	1e-05	-1e-05	-0.00024	-0.00042	-0.00053	3
13714	-0.00013	-5e-05	-4e-05	1e-05	-1e-05	-0.00024	-0.00042	-0.00053	3
13715	-0.00013	-5e-05	-4e-05	1e-05	-1e-05	-0.00024	-0.00042	-0.00053	3
13716	-0.00013	-5e-05	-4e-05	1e-05	-1e-05	-0.00024	-0.00042	-0.00053	3
13717	-0.00013	-5e-05	-4e-05	1e-05	-1e-05	-0.00024	-0.00042	-0.00053	3
13718	-0.00013	-5e-05	-4e-05	1e-05	-1e-05	-0.00024	-0.00042	-0.00053	3
13719	-0.00013	-5e-05	-4e-05	1e-05	-1e-05	-0.00024	-0.00042	-0.00053	3
13720	-0.00013	-5e-05	-4e-05	1e-05	-1e-05	-0.00024	-0.00042	-0.00053	3
13721	-0.00013	-5e-05	-4e-05	1e-05	-1e-05	-0.00024	-0.00042	-0.00053	3
13722	-0.00013	-5e-05	-4e-05	1e-05	-1e-05	-0.00024	-0.00042	-0.00053	3
13723	-0.00013	-5e-05	-4e-05	1e-05	-1e-05	-0.00024	-0.00042	-0.00053	3
13724	-0.00013	-5e-05	-4e-05	1e-05	-1e-05	-0.00024	-0.00042	-0.00053	3
13725	-0.00013	-5e-05	-4e-05	1e-05	-1e-05	-0.00024	-0.00042	-0.00053	3
13726	-0.00013	-5e-05	-4e-05	1e-05	-1e-05	-0.00024	-0.00042	-0.00053	3
13727	-0.00013	-5e-05	-4e-05	1e-05	-1e-05	-0.00024	-0.00042	-0.00053	3
13728	0.00013	7e-05	4e-05	-2e-05	0.00012	0.00014	-0.00024	5e-05	3
13729	0.00013	7e-05	4e-05	-2e-05	0.00012	0.00014	-0.00024	5e-05	3
13730	-0.00015	-2e-05	-2e-05	-1e-05	-3e-05	-1e-05	-0.00014	0.00015	3
13731	-0.00015	-2e-05	-2e-05	-1e-05	-3e-05	-1e-05	-0.00014	0.00015	3
13732	-0.00015	-2e-05	-2e-05	-1e-05	-3e-05	-1e-05	-0.00014	0.00015	3
13733	-0.00015	-2e-05	-2e-05	-1e-05	-3e-05	-1e-05	-0.00014	0.00015	3
13734	-0.00015	-2e-05	-2e-05	-1e-05	-3e-05	-1e-05	-0.00014	0.00015	3
13735	-0.00015	-2e-05	-2e-05	-1e-05	-3e-05	-1e-05	-0.00014	0.00015	3
13737	-0.00015	-2e-05	-2e-05	-1e-05	-3e-05	-1e-05	-0.00014	0.00015	3
13739	-0.00015	-2e-05	-2e-05	-1e-05	-3e-05	-1e-05	-0.00014	0.00015	3
13740	-0.00015	-2e-05	-2e-05	-1e-05	-3e-05	-1e-05	-0.00014	0.00015	3
13741	-0.00015	-2e-05	-2e-05	-1e-05	-3e-05	-1e-05	-0.00014	0.00015	3
13742	0.00098	0.00018	3e-05	2e-05	-1e-05	1e-05	3e-05	1e-05	3
13743	0.00098	0.00018	3e-05	2e-05	-1e-05	1e-05	3e-05	1e-05	3
13744	0.00098	0.00018	3e-05	2e-05	-1e-05	1e-05	3e-05	1e-05	3
13745	0.00098	0.00018	3e-05	2e-05	-1e-05	1e-05	3e-05	1e-05	3
13746	0.00098	0.00018	3e-05	2e-05	-1e-05	1e-05	3e-05	1e-05	3
13747	0.00098	0.00018	3e-05	2e-05	-1e-05	1e-05	3e-05	1e-05	3
13748	0.00098	0.00018	3e-05	2e-05	-1e-05	1e-05	3e-05	1e-05	3
13749	0.00098	0.00018	3e-05	2e-05	-1e-05	1e-05	3e-05	1e-05	3
13750	0.00098	0.00018	3e-05	2e-05	-1e-05	1e-05	3e-05	1e-05	3
13751	5e-05	1e-05	3e-05	0	1e-05	4e-05	-0.00024	-0.00018	3
13752	5e-05	1e-05	3e-05	0	1e-05	4e-05	-0.00024	-0.00018	3
13753	5e-05	1e-05	3e-05	0	1e-05	4e-05	-0.00024	-0.00018	3
13754	5e-05	1e-05	3e-05	0	1e-05	4e-05	-0.00024	-0.00018	3
13755	5e-05	1e-05	3e-05	0	1e-05	4e-05	-0.00024	-0.00018	3
13756	5e-05	1e-05	3e-05	0	1e-05	4e-05	-0.00024	-0.00018	3
13757	5e-05	1e-05	3e-05	0	1e-05	4e-05	-0.00024	-0.00018	3
13758	5e-05	1e-05	3e-05	0	1e-05	4e-05	-0.00024	-0.00018	3
13759	5e-05	1e-05	3e-05	0	1e-05	4e-05	-0.00024	-0.00018	3
13760	5e-05	1e-05	3e-05	0	1e-05	4e-05	-0.00024	-0.00018	3
13761	5e-05	1e-05	3e-05	0	1e-05	4e-05	-0.00024	-0.00018	3
13762	5e-05	1e-05	3e-05	0	1e-05	4e-05	-0.00024	-0.00018	3
13763	5e-05	1e-05	3e-05	0	1e-05	4e-05	-0.00024	-0.00018	3
13764	5e-05	1e-05	3e-05	0	1e-05	4e-05	-0.00024	-0.00018	3
13765	5e-05	1e-05	3e-05	0	1e-05	4e-05	-0.00024	-0.00018	3
13766	-0.0007	-0.00016	-5e-05	-3e-05	-2e-05	6e-05	-0.00034	-0.00026	3
13767	-0.0005	-0.00011	-8e-05	-1e-05	6e-05	7e-05	0.00019	0.00015	3
13768	-0.0005	-0.00011	-8e-05	-1e-05	6e-05	7e-05	0.00019	0.00015	3
13769	-0.0005	-0.00011	-8e-05	-1e-05	6e-05	7e-05	0.00019	0.00015	3
13770	-0.0005	-0.00011	-8e-05	-1e-05	6e-05	7e-05	0.00019	0.00015	3
13771	-0.0005	-0.00011	-8e-05	-1e-05	6e-05	7e-05	0.00019	0.00015	3
13772	-0.0005	-0.00011	-8e-05	-1e-05	6e-05	7e-05	0.00019	0.00015	3
13773	-0.0005	-0.00011	-8e-05	-1e-05	6e-05	7e-05	0.00019	0.00015	3
13774	-0.0005	-0.00011	-8e-05	-1e-05	6e-05	7e-05	0.00019	0.00015	3
13775	-0.0005	-0.00011	-8e-05	-1e-05	6e-05	7e-05	0.00019	0.00015	3
13776	-0.0005	-0.00011	-8e-05	-1e-05	6e-05	7e-05	0.00019	0.00015	3
13777	-0.0005	-0.00011	-8e-05	-1e-05	6e-05	7e-05	0.00019	0.00015	3
13778	-0.0005	-0.00011	-8e-05	-1e-05	6e-05	7e-05	0.00019	0.00015	3
13779	-0.0005	-0.00011	-8e-05	-1e-05	6e-05	7e-05	0.00019	0.00015	3
13780	-0.0005	-0.00011	-8e-05	-1e-05	6e-05	7e-05	0.00019	0.00015	3
13781	-0.0005	-0.00011	-8e-05	-1e-05	6e-05	7e-05	0.00019	0.00015	3
13782	-0.0005	-0.00011	-8e-05	-1e-05	6e-05	7e-05	0.00019	0.00015	3
13783	-0.0005	-0.00011	-8e-05	-1e-05	6e-05	7e-05	0.00019	0.00015	3
13784	-0.0005	-0.00011	-8e-05	-1e-05	6e-05	7e-05	0.00019	0.00015	3
13785	-0.0005	-0.00011	-8e-05	-1e-05	6e-05	7e-05	0.00019	0.00015	3
13786	-0.0005	-0.00011	-8e-05	-1e-05	6e-05	7e-05	0.00019	0.00015	3
13789	-0.00048	-0.00011	-4e-05	-1e-05	6e-05	0.00011	0.00026	-1e-05	3
13790	0.00069	0.00015	1e-05	-1e-05	-0.0001	-5e-05	-0.00026	0.00027	3
13791	0.00069	0.00015	1e-05	-1e-05	-0.0001	-5e-05	-0.00026	0.00027	3
13792	0.00069	0.00015	1e-05	-1e-05	-0.0001	-5e-05	-0.00026	0.00027	3
13793	0.00069	0.00015	1e-05	-1e-05	-0.0001	-5e-05	-0.00026	0.00027	3
13794	0.00069	0.00015	1e-05	-1e-05	-0.0001	-5e-05	-0.00026	0.00027	3
13795	0.00069	0.00015	1e-05	-1e-05	-0.0001	-5e-05	-0.00026	0.00027	3
13796	0.00069	0.00015	1e-05	-1e-05	-0.0001	-5e-05	-0.00026	0.00027	3
13797	0.00069	0.00015	1e-05	-1e-05	-0.0001	-5e-05	-0.00026	0.00027	3
13798	0.00069	0.00015	1e-05	-1e-05	-0.0001	-5e-05	-0.00026	0.00027	3
13799	0.00069	0.00015	1e-05	-1e-05	-0.0001	-5e-05	-0.00026	0.00027	3
13800	0.00069	0.00015	1e-05	-1e-05	-0.0001	-5e-05	-0.00026	0.00027	3
13801	0.00069	0.00015	1e-05	-1e-05	-0.0001	-5e-05	-0.00026	0.00027	3
13802	-0.00065	-7e-05	-5e-05	-2e-05	-5e-05	1e-05	0.00024	-6e-05	3
13803	-0.00022	-1e-05	2e-05	9e-05	0.00015	0.00015	0.00044	4e-05	3
13804	-0.00022	-1e-05	2e-05	9e-05	0.00015	0.00015	0.00044	4e-05	3
13805	-0.00022	-1e-05	2e-05	9e-05	0.00015	0.00015	0.00044	4e-05	3
13806	-0.00022	-1e-05	2e-05	9e-05	0.00015	0.00015	0.00044	4e-05	3
13807	-0.00022	-1e-05	2e-05	9e-05	0.00015	0.00015	0.00044	4e-05	3
13808	-0.00022	-1e-05	2e-05	9e-05	0.00015	0.00015	0.00044	4e-05	3
13809	-0.00022	-1e-05	2e-05	9e-05	0.00015	0.00015	0.00044	4e-05	3
13810	-0.00022	-1e-05	2e-05	9e-05	0.00015	0.00015	0.00044	4e-05	3
13811	-8e-05	-5e-05	2e-05	-5e-05	8e-05	0.00023	0.00047	0.00019	3
13812	-8e-05	-5e-05	2e-05	-5e-05	8e-05	0.00023	0.00047	0.00019	3
13813	-8e-05	-5e-05	2e-05	-5e-05	8e-05	0.00023	0.00047	0.00019	3
13814	-8e-05	-5e-05	2e-05	-5e-05	8e-05	0.00023	0.00047	0.00019	3
13815	-8e-05	-5e-05	2e-05	-5e-05	8e-05	0.00023	0.00047	0.00019	3
13816	-8e-05	-5e-05	2e-05	-5e-05	8e-05	0.00023	0.00047	0.00019	3
13817	-8e-05	-5e-05	2e-05	-5e-05	8e-05	0.00023	0.00047	0.00019	3
13818	-8e-05	-5e-05	2e-05	-5e-05	8e-05	0.00023	0.00047	0.00019	3
13819	-8e-05	-5e-05	2e-05	-5e-05	8e-05	0.00023	0.00047	0.00019	3
13820	-8e-05	-5e-05	2e-05	-5e-05	8e-05	0.00023	0.00047	0.00019	3
13821	-8e-05	-5e-05	2e-05	-5e-05	8e-05	0.00023	0.00047	0.00019	3
13822	-8e-05	-5e-05	2e-05	-5e-05	8e-05	0.00023	0.00047	0.00019	3
13823	-8e-05	-5e-05	2e-05	-5e-05	8e-05	0.00023	0.00047	0.00019	3
13824	-8e-05	-5e-05	2e-05	-5e-05	8e-05	0.00023	0.00047	0.00019	3
13825	-8e-05	-5e-05	2e-05	-5e-05	8e-05	0.00023	0.00047	0.00019	3
13826	0.00053	0.00016	0	-4e-05	-3e-05	-2e-05	7e-05	1e-05	3
13827	0.00053	0.00016	0	-4e-05	-3e-05	-2e-05	7e-05	1e-05	3
13828	0.00053	0.00016	0	-4e-05	-3e-05	-2e-05	7e-05	1e-05	3
13829	0.00053	0.00016	0	-4e-05	-3e-05	-2e-05	7e-05	1e-05	3
13830	0.00053	0.00016	0	-4e-05	-3e-05	-2e-05	7e-05	1e-05	3
13831	0.00053	0.00016	0	-4e-05	-3e-05	-2e-05	7e-05	1e-05	3
13832	-0.00041	-0.0001	-4e-05	1e-05	1e-05	5e-05	0.00031	-0.00014	3
13833	-0.00041	-0.0001	-4e-05	1e-05	1e-05	5e-05	0.00031	-0.00014	3
13834	-0.00041	-0.0001	-4e-05	1e-05	1e-05	5e-05	0.00031	-0.00014	3
13835	-0.00041	-0.0001	-4e-05	1e-05	1e-05	5e-05	0.00031	-0.00014	3
13837	-0.00041	-0.0001	-4e-05	1e-05	1e-05	5e-05	0.00031	-0.00014	3
13839	-0.00041	-0.0001	-4e-05	1e-05	1e-05	5e-05	0.00031	-0.00014	3
13840	-0.00041	-0.0001	-4e-05	1e-05	1e-05	5e-05	0.00031	-0.00014	3
13841	-0.00041	-0.0001	-4e-05	1e-05	1e-05	5e-05	0.00031	-0.00014	3
13842	-0.00041	-0.0001	-4e-05	1e-05	1e-05	5e-05	0.00031	-0.00014	3
13843	-0.00041	-0.0001	-4e-05	1e-05	1e-05	5e-05	0.00031	-0.00014	3
13844	-0.00041	-0.0001	-4e-05	1e-05	1e-05	5e-05	0.00031	-0.00014	3
13845	-0.00041	-0.0001	-4e-05	1e-05	1e-05	5e-05	0.00031	-0.00014	3
13846	-0.00041	-0.0001	-4e-05	1e-05	1e-05	5e-05	0.00031	-0.00014	3
13847	-0.00041	-0.0001	-4e-05	1e-05	1e-05	5e-05	0.00031	-0.00014	3
13848	0.00024	7e-05	0	7e-05	0.00011	-1e-05	-0.00026	-7e-05	3
13849	0.00024	7e-05	0	7e-05	0.00011	-1e-05	-0.00026	-7e-05	3
13850	0.00024	7e-05	0	7e-05	0.00011	-1e-05	-0.00026	-7e-05	3
13851	0.00024	7e-05	0	7e-05	0.00011	-1e-05	-0.00026	-7e-05	3
13852	0.00024	7e-05	0	7e-05	0.00011	-1e-05	-0.00026	-7e-05	3
13853	0.00024	7e-05	0	7e-05	0.00011	-1e-05	-0.00026	-7e-05	3
13854	0.00024	7e-05	0	7e-05	0.00011	-1e-05	-0.00026	-7e-05	3
13855	0.00024	7e-05	0	7e-05	0.00011	-1e-05	-0.00026	-7e-05	3
13856	-0.00052	-9e-05	-2e-05	-3e-05	-2e-05	-4e-05	-0.00042	0.00013	3
13857	-0.00052	-9e-05	-2e-05	-3e-05	-2e-05	-4e-05	-0.00042	0.00013	3
13858	-0.00052	-9e-05	-2e-05	-3e-05	-2e-05	-4e-05	-0.00042	0.00013	3
13859	-0.00052	-9e-05	-2e-05	-3e-05	-2e-05	-4e-05	-0.00042	0.00013	3
13860	-0.00052	-9e-05	-2e-05	-3e-05	-2e-05	-4e-05	-0.00042	0.00013	3
13861	-0.00052	-9e-05	-2e-05	-3e-05	-2e-05	-4e-05	-0.00042	0.00013	3
13862	0.00041	2e-05	-3e-05	0	-4e-05	1e-05	0.00022	3e-05	3
13863	0.00041	2e-05	-3e-05	0	-4e-05	1e-05	0.00022	3e-05	3
13864	0.00041	2e-05	-3e-05	0	-4e-05	1e-05	0.00022	3e-05	3
13865	0.00041	2e-05	-3e-05	0	-4e-05	1e-05	0.00022	3e-05	3
13866	0.00041	2e-05	-3e-05	0	-4e-05	1e-05	0.00022	3e-05	3
13867	0.00041	2e-05	-3e-05	0	-4e-05	1e-05	0.00022	3e-05	3
13868	0.00041	2e-05	-3e-05	0	-4e-05	1e-05	0.00022	3e-05	3
13869	0.00041	2e-05	-3e-05	0	-4e-05	1e-05	0.00022	3e-05	3
13870	0.00041	2e-05	-3e-05	0	-4e-05	1e-05	0.00022	3e-05	3
13871	0.00041	2e-05	-3e-05	0	-4e-05	1e-05	0.00022	3e-05	3
13872	0.00041	2e-05	-3e-05	0	-4e-05	1e-05	0.00022	3e-05	3
13873	0.00041	2e-05	-3e-05	0	-4e-05	1e-05	0.00022	3e-05	3
13874	0.00041	2e-05	-3e-05	0	-4e-05	1e-05	0.00022	3e-05	3
13875	0.00041	2e-05	-3e-05	0	-4e-05	1e-05	0.00022	3e-05	3
13876	0.00041	2e-05	-3e-05	0	-4e-05	1e-05	0.00022	3e-05	3
13877	0.00041	2e-05	-3e-05	0	-4e-05	1e-05	0.00022	3e-05	3
13878	-9e-05	0	0	0	-3e-05	-4e-05	-4e-05	0.00015	3
13879	-9e-05	0	0	0	-3e-05	-4e-05	-4e-05	0.00015	3
13880	-9e-05	0	0	0	-3e-05	-4e-05	-4e-05	0.00015	3
13881	-9e-05	0	0	0	-3e-05	-4e-05	-4e-05	0.00015	3
13882	-9e-05	0	0	0	-3e-05	-4e-05	-4e-05	0.00015	3
13883	-9e-05	0	0	0	-3e-05	-4e-05	-4e-05	0.00015	3
13884	-9e-05	0	0	0	-3e-05	-4e-05	-4e-05	0.00015	3
13885	-3e-05	-1e-05	1e-05	-1e-05	-2e-05	4e-05	-3e-05	-3e-05	3
13887	-3e-05	-1e-05	1e-05	-1e-05	-2e-05	4e-05	-3e-05	-3e-05	3
13890	-0.00086	-0.00068	-0.00022	-0.0001	-5e-05	-0.00012	-0.00015	-0.00115	3
13891	-0.00086	-0.00068	-0.00022	-0.0001	-5e-05	-0.00012	-0.00015	-0.00115	3
13892	-0.00086	-0.00068	-0.00022	-0.0001	-5e-05	-0.00012	-0.00015	-0.00115	3
13893	-0.00086	-0.00068	-0.00022	-0.0001	-5e-05	-0.00012	-0.00015	-0.00115	3
13894	-0.00086	-0.00068	-0.00022	-0.0001	-5e-05	-0.00012	-0.00015	-0.00115	3
13895	-0.00086	-0.00068	-0.00022	-0.0001	-5e-05	-0.00012	-0.00015	-0.00115	3
13896	-0.00086	-0.00068	-0.00022	-0.0001	-5e-05	-0.00012	-0.00015	-0.00115	3
13897	-0.00086	-0.00068	-0.00022	-0.0001	-5e-05	-0.00012	-0.00015	-0.00115	3
13898	-0.00086	-0.00068	-0.00022	-0.0001	-5e-05	-0.00012	-0.00015	-0.00115	3
13899	-0.00086	-0.00068	-0.00022	-0.0001	-5e-05	-0.00012	-0.00015	-0.00115	3
13900	-0.00086	-0.00068	-0.00022	-0.0001	-5e-05	-0.00012	-0.00015	-0.00115	3
13901	-0.00086	-0.00068	-0.00022	-0.0001	-5e-05	-0.00012	-0.00015	-0.00115	3
13902	-0.00086	-0.00068	-0.00022	-0.0001	-5e-05	-0.00012	-0.00015	-0.00115	3
13903	-0.00086	-0.00068	-0.00022	-0.0001	-5e-05	-0.00012	-0.00015	-0.00115	3
13904	-0.00086	-0.00068	-0.00022	-0.0001	-5e-05	-0.00012	-0.00015	-0.00115	3
13905	-0.00086	-0.00068	-0.00022	-0.0001	-5e-05	-0.00012	-0.00015	-0.00115	3
13906	-0.00086	-0.00068	-0.00022	-0.0001	-5e-05	-0.00012	-0.00015	-0.00115	3
13907	-0.00086	-0.00068	-0.00022	-0.0001	-5e-05	-0.00012	-0.00015	-0.00115	3
13908	-0.00086	-0.00068	-0.00022	-0.0001	-5e-05	-0.00012	-0.00015	-0.00115	3
13909	0.00032	4e-05	-1e-05	0	-4e-05	-2e-05	0.00023	0.00019	3
13910	0.00074	0.00032	8e-05	3e-05	-2e-05	-5e-05	-5e-05	0.00022	3
13911	0.00074	0.00032	8e-05	3e-05	-2e-05	-5e-05	-5e-05	0.00022	3
13912	0.00074	0.00032	8e-05	3e-05	-2e-05	-5e-05	-5e-05	0.00022	3
13913	0.00074	0.00032	8e-05	3e-05	-2e-05	-5e-05	-5e-05	0.00022	3
13914	0.00074	0.00032	8e-05	3e-05	-2e-05	-5e-05	-5e-05	0.00022	3
13915	0.00074	0.00032	8e-05	3e-05	-2e-05	-5e-05	-5e-05	0.00022	3
13916	0.00074	0.00032	8e-05	3e-05	-2e-05	-5e-05	-5e-05	0.00022	3
13917	0.00074	0.00032	8e-05	3e-05	-2e-05	-5e-05	-5e-05	0.00022	3
13918	0.00074	0.00032	8e-05	3e-05	-2e-05	-5e-05	-5e-05	0.00022	3
13919	0.00074	0.00032	8e-05	3e-05	-2e-05	-5e-05	-5e-05	0.00022	3
13920	0.00074	0.00032	8e-05	3e-05	-2e-05	-5e-05	-5e-05	0.00022	3
13921	0.00074	0.00032	8e-05	3e-05	-2e-05	-5e-05	-5e-05	0.00022	3
13922	0.00074	0.00032	8e-05	3e-05	-2e-05	-5e-05	-5e-05	0.00022	3
13923	0.00074	0.00032	8e-05	3e-05	-2e-05	-5e-05	-5e-05	0.00022	3
13924	0.00074	0.00032	8e-05	3e-05	-2e-05	-5e-05	-5e-05	0.00022	3
13925	0.00074	0.00032	8e-05	3e-05	-2e-05	-5e-05	-5e-05	0.00022	3
13926	0.00074	0.00032	8e-05	3e-05	-2e-05	-5e-05	-5e-05	0.00022	3
13927	0.00074	0.00032	8e-05	3e-05	-2e-05	-5e-05	-5e-05	0.00022	3
13928	0.00074	0.00032	8e-05	3e-05	-2e-05	-5e-05	-5e-05	0.00022	3
13929	0.00074	0.00032	8e-05	3e-05	-2e-05	-5e-05	-5e-05	0.00022	3
13930	0.00074	0.00032	8e-05	3e-05	-2e-05	-5e-05	-5e-05	0.00022	3
13931	-0.00029	-0.00011	-3e-05	-5e-05	-4e-05	-6e-05	-0.00023	-0.00025	3
13932	0.00014	0.0001	2e-05	1e-05	0	-5e-05	3e-05	0.00017	3
13933	0.00014	0.0001	2e-05	1e-05	0	-5e-05	3e-05	0.00017	3
13934	0.00014	0.0001	2e-05	1e-05	0	-5e-05	3e-05	0.00017	3
13935	0.00014	0.0001	2e-05	1e-05	0	-5e-05	3e-05	0.00017	3
13937	0.00014	0.0001	2e-05	1e-05	0	-5e-05	3e-05	0.00017	3
13940	0.00014	0.0001	2e-05	1e-05	0	-5e-05	3e-05	0.00017	3
13941	0.00014	0.0001	2e-05	1e-05	0	-5e-05	3e-05	0.00017	3
13942	0.00014	0.0001	2e-05	1e-05	0	-5e-05	3e-05	0.00017	3
13943	0.00014	0.0001	2e-05	1e-05	0	-5e-05	3e-05	0.00017	3
13944	0.00014	0.0001	2e-05	1e-05	0	-5e-05	3e-05	0.00017	3
13945	-0.00034	-0.00012	-5e-05	-5e-05	2e-05	-3e-05	-8e-05	-7e-05	3
13946	0.00037	0.00015	3e-05	-3e-05	-7e-05	1e-05	6e-05	0.00033	3
13947	0.00022	-2e-05	5e-05	-2e-05	4e-05	0.00012	0.00072	-0.00043	3
13948	0.00022	-2e-05	5e-05	-2e-05	4e-05	0.00012	0.00072	-0.00043	3
13949	0.00022	-2e-05	5e-05	-2e-05	4e-05	0.00012	0.00072	-0.00043	3
13950	0.00022	-2e-05	5e-05	-2e-05	4e-05	0.00012	0.00072	-0.00043	3
13951	0.00022	-2e-05	5e-05	-2e-05	4e-05	0.00012	0.00072	-0.00043	3
13952	0.00022	-2e-05	5e-05	-2e-05	4e-05	0.00012	0.00072	-0.00043	3
13953	0.00022	-2e-05	5e-05	-2e-05	4e-05	0.00012	0.00072	-0.00043	3
13954	0.00022	-2e-05	5e-05	-2e-05	4e-05	0.00012	0.00072	-0.00043	3
13955	0.00022	-2e-05	5e-05	-2e-05	4e-05	0.00012	0.00072	-0.00043	3
13956	0.00022	-2e-05	5e-05	-2e-05	4e-05	0.00012	0.00072	-0.00043	3
13957	0.00022	-2e-05	5e-05	-2e-05	4e-05	0.00012	0.00072	-0.00043	3
13958	0.00022	-2e-05	5e-05	-2e-05	4e-05	0.00012	0.00072	-0.00043	3
13959	0.00022	-2e-05	5e-05	-2e-05	4e-05	0.00012	0.00072	-0.00043	3
13960	0.00022	-2e-05	5e-05	-2e-05	4e-05	0.00012	0.00072	-0.00043	3
13961	0.00022	-2e-05	5e-05	-2e-05	4e-05	0.00012	0.00072	-0.00043	3
13962	0.00022	-2e-05	5e-05	-2e-05	4e-05	0.00012	0.00072	-0.00043	3
13963	0.00022	-2e-05	5e-05	-2e-05	4e-05	0.00012	0.00072	-0.00043	3
13964	0.00022	-2e-05	5e-05	-2e-05	4e-05	0.00012	0.00072	-0.00043	3
13965	0.00022	-2e-05	5e-05	-2e-05	4e-05	0.00012	0.00072	-0.00043	3
13966	0.00022	-2e-05	5e-05	-2e-05	4e-05	0.00012	0.00072	-0.00043	3
13967	0.00022	-2e-05	5e-05	-2e-05	4e-05	0.00012	0.00072	-0.00043	3
13968	1e-05	-1e-05	-1e-05	4e-05	2e-05	-1e-05	1e-05	0	3
13969	1e-05	-1e-05	-1e-05	4e-05	2e-05	-1e-05	1e-05	0	3
13970	0.00037	0.00011	-5e-05	-4e-05	-4e-05	-2e-05	-0.0003	0.00021	3
13971	0.00037	0.00011	-5e-05	-4e-05	-4e-05	-2e-05	-0.0003	0.00021	3
13972	0.00037	0.00011	-5e-05	-4e-05	-4e-05	-2e-05	-0.0003	0.00021	3
13973	0.00037	0.00011	-5e-05	-4e-05	-4e-05	-2e-05	-0.0003	0.00021	3
13974	0.00037	0.00011	-5e-05	-4e-05	-4e-05	-2e-05	-0.0003	0.00021	3
13975	0.00037	0.00011	-5e-05	-4e-05	-4e-05	-2e-05	-0.0003	0.00021	3
13976	0.00037	0.00011	-5e-05	-4e-05	-4e-05	-2e-05	-0.0003	0.00021	3
13977	0.00037	0.00011	-5e-05	-4e-05	-4e-05	-2e-05	-0.0003	0.00021	3
13978	0.00037	0.00011	-5e-05	-4e-05	-4e-05	-2e-05	-0.0003	0.00021	3
13979	0.00037	0.00011	-5e-05	-4e-05	-4e-05	-2e-05	-0.0003	0.00021	3
13980	0.00037	0.00011	-5e-05	-4e-05	-4e-05	-2e-05	-0.0003	0.00021	3
13981	0.00037	0.00011	-5e-05	-4e-05	-4e-05	-2e-05	-0.0003	0.00021	3
13982	-0.00054	-0.00015	-5e-05	-6e-05	-8e-05	-3e-05	2e-05	-7e-05	3
13983	-0.00054	-0.00015	-5e-05	-6e-05	-8e-05	-3e-05	2e-05	-7e-05	3
13984	-0.00054	-0.00015	-5e-05	-6e-05	-8e-05	-3e-05	2e-05	-7e-05	3
13985	-0.00054	-0.00015	-5e-05	-6e-05	-8e-05	-3e-05	2e-05	-7e-05	3
13987	-0.00054	-0.00015	-5e-05	-6e-05	-8e-05	-3e-05	2e-05	-7e-05	3
13990	-0.00054	-0.00015	-5e-05	-6e-05	-8e-05	-3e-05	2e-05	-7e-05	3
13991	-5e-05	8e-05	1e-05	-1e-05	1e-05	-1e-05	5e-05	0.0001	3
13992	-5e-05	8e-05	1e-05	-1e-05	1e-05	-1e-05	5e-05	0.0001	3
13993	-5e-05	8e-05	1e-05	-1e-05	1e-05	-1e-05	5e-05	0.0001	3
13994	-5e-05	8e-05	1e-05	-1e-05	1e-05	-1e-05	5e-05	0.0001	3
13995	-5e-05	8e-05	1e-05	-1e-05	1e-05	-1e-05	5e-05	0.0001	3
13996	-5e-05	8e-05	1e-05	-1e-05	1e-05	-1e-05	5e-05	0.0001	3
13997	-5e-05	8e-05	1e-05	-1e-05	1e-05	-1e-05	5e-05	0.0001	3
13998	-5e-05	8e-05	1e-05	-1e-05	1e-05	-1e-05	5e-05	0.0001	3
13999	-5e-05	8e-05	1e-05	-1e-05	1e-05	-1e-05	5e-05	0.0001	3
14000	-5e-05	8e-05	1e-05	-1e-05	1e-05	-1e-05	5e-05	0.0001	3
14001	-5e-05	8e-05	1e-05	-1e-05	1e-05	-1e-05	5e-05	0.0001	3
14002	-5e-05	8e-05	1e-05	-1e-05	1e-05	-1e-05	5e-05	0.0001	3
14003	-5e-05	8e-05	1e-05	-1e-05	1e-05	-1e-05	5e-05	0.0001	3
14004	-5e-05	8e-05	1e-05	-1e-05	1e-05	-1e-05	5e-05	0.0001	3
14005	-5e-05	8e-05	1e-05	-1e-05	1e-05	-1e-05	5e-05	0.0001	3
14006	4e-05	2e-05	4e-05	6e-05	0.0001	-5e-05	-0.00041	0	3
14007	0.0005	0.0001	5e-05	5e-05	4e-05	2e-05	-0.00016	0.00025	3
14008	0.0005	0.0001	5e-05	5e-05	4e-05	2e-05	-0.00016	0.00025	3
14009	0.0005	0.0001	5e-05	5e-05	4e-05	2e-05	-0.00016	0.00025	3
14010	0.0005	0.0001	5e-05	5e-05	4e-05	2e-05	-0.00016	0.00025	3
14011	0.0005	0.0001	5e-05	5e-05	4e-05	2e-05	-0.00016	0.00025	3
14012	0.0005	0.0001	5e-05	5e-05	4e-05	2e-05	-0.00016	0.00025	3
14013	0.0005	0.0001	5e-05	5e-05	4e-05	2e-05	-0.00016	0.00025	3
14014	0.0005	0.0001	5e-05	5e-05	4e-05	2e-05	-0.00016	0.00025	3
14015	0.0005	0.0001	5e-05	5e-05	4e-05	2e-05	-0.00016	0.00025	3
14016	0.0005	0.0001	5e-05	5e-05	4e-05	2e-05	-0.00016	0.00025	3
14017	0.0005	0.0001	5e-05	5e-05	4e-05	2e-05	-0.00016	0.00025	3
14018	0.0005	0.0001	5e-05	5e-05	4e-05	2e-05	-0.00016	0.00025	3
14019	0.0005	0.0001	5e-05	5e-05	4e-05	2e-05	-0.00016	0.00025	3
14020	0.0005	0.0001	5e-05	5e-05	4e-05	2e-05	-0.00016	0.00025	3
14021	0.0005	0.0001	5e-05	5e-05	4e-05	2e-05	-0.00016	0.00025	3
14022	0.0005	0.0001	5e-05	5e-05	4e-05	2e-05	-0.00016	0.00025	3
14023	0.0005	0.0001	5e-05	5e-05	4e-05	2e-05	-0.00016	0.00025	3
14024	0.0005	0.0001	5e-05	5e-05	4e-05	2e-05	-0.00016	0.00025	3
14025	0.0005	0.0001	5e-05	5e-05	4e-05	2e-05	-0.00016	0.00025	3
14026	0.0005	0.0001	5e-05	5e-05	4e-05	2e-05	-0.00016	0.00025	3
14027	0.0005	0.0001	5e-05	5e-05	4e-05	2e-05	-0.00016	0.00025	3
14028	0.00074	0.00014	0	-7e-05	-9e-05	-3e-05	-0.0002	4e-05	3
14029	0.00074	0.00014	0	-7e-05	-9e-05	-3e-05	-0.0002	4e-05	3
14030	1e-05	-2e-05	-1e-05	2e-05	-7e-05	-8e-05	-0.00073	-0.00021	3
14031	1e-05	-2e-05	-1e-05	2e-05	-7e-05	-8e-05	-0.00073	-0.00021	3
14032	1e-05	-2e-05	-1e-05	2e-05	-7e-05	-8e-05	-0.00073	-0.00021	3
14033	1e-05	-2e-05	-1e-05	2e-05	-7e-05	-8e-05	-0.00073	-0.00021	3
14034	1e-05	-2e-05	-1e-05	2e-05	-7e-05	-8e-05	-0.00073	-0.00021	3
14035	1e-05	-2e-05	-1e-05	2e-05	-7e-05	-8e-05	-0.00073	-0.00021	3
44054	0.00073	0.00012	7e-05	9e-05	0.00012	0.00038	0.00034	3e-05	3
44056	0.00073	0.00012	7e-05	9e-05	0.00012	0.00038	0.00034	3e-05	3
44057	0.00073	0.00012	7e-05	9e-05	0.00012	0.00038	0.00034	3e-05	3
44058	0.00073	0.00012	7e-05	9e-05	0.00012	0.00038	0.00034	3e-05	3
44059	0.00073	0.00012	7e-05	9e-05	0.00012	0.00038	0.00034	3e-05	3
44060	0.00073	0.00012	7e-05	9e-05	0.00012	0.00038	0.00034	3e-05	3
44061	0.00073	0.00012	7e-05	9e-05	0.00012	0.00038	0.00034	3e-05	3
44062	0.00073	0.00012	7e-05	9e-05	0.00012	0.00038	0.00034	3e-05	3
44063	0.00073	0.00012	7e-05	9e-05	0.00012	0.00038	0.00034	3e-05	3
44064	0.00073	0.00012	7e-05	9e-05	0.00012	0.00038	0.00034	3e-05	3
44065	0.00073	0.00012	7e-05	9e-05	0.00012	0.00038	0.00034	3e-05	3
44066	0.00023	-8e-05	-0.00011	-0.00017	-0.00014	-8e-05	-0.0002	-6e-05	3
44067	0.00023	-8e-05	-0.00011	-0.00017	-0.00014	-8e-05	-0.0002	-6e-05	3
44068	-0.00025	-7e-05	-3e-05	-3e-05	-0.00014	1e-05	0.00051	-0.00021	3
44069	-0.00025	-7e-05	-3e-05	-3e-05	-0.00014	1e-05	0.00051	-0.00021	3
44070	-0.00025	-7e-05	-3e-05	-3e-05	-0.00014	1e-05	0.00051	-0.00021	3
44071	-0.00025	-7e-05	-3e-05	-3e-05	-0.00014	1e-05	0.00051	-0.00021	3
44072	-0.00025	-7e-05	-3e-05	-3e-05	-0.00014	1e-05	0.00051	-0.00021	3
44073	-0.00025	-7e-05	-3e-05	-3e-05	-0.00014	1e-05	0.00051	-0.00021	3
44074	-0.00025	-7e-05	-3e-05	-3e-05	-0.00014	1e-05	0.00051	-0.00021	3
44075	-0.00025	-7e-05	-3e-05	-3e-05	-0.00014	1e-05	0.00051	-0.00021	3
44076	-0.00025	-7e-05	-3e-05	-3e-05	-0.00014	1e-05	0.00051	-0.00021	3
44077	-0.00025	-7e-05	-3e-05	-3e-05	-0.00014	1e-05	0.00051	-0.00021	3
44078	-0.00025	-7e-05	-3e-05	-3e-05	-0.00014	1e-05	0.00051	-0.00021	3
44079	-0.00025	-7e-05	-3e-05	-3e-05	-0.00014	1e-05	0.00051	-0.00021	3
44080	-0.00025	-7e-05	-3e-05	-3e-05	-0.00014	1e-05	0.00051	-0.00021	3
44081	-0.00025	-7e-05	-3e-05	-3e-05	-0.00014	1e-05	0.00051	-0.00021	3
44082	-0.00025	-7e-05	-3e-05	-3e-05	-0.00014	1e-05	0.00051	-0.00021	3
44083	-0.00025	-7e-05	-3e-05	-3e-05	-0.00014	1e-05	0.00051	-0.00021	3
44084	-0.00025	-7e-05	-3e-05	-3e-05	-0.00014	1e-05	0.00051	-0.00021	3
44085	-0.00025	-7e-05	-3e-05	-3e-05	-0.00014	1e-05	0.00051	-0.00021	3
44086	-0.00025	-7e-05	-3e-05	-3e-05	-0.00014	1e-05	0.00051	-0.00021	3
44088	-0.00025	-7e-05	-3e-05	-3e-05	-0.00014	1e-05	0.00051	-0.00021	3
44089	0.00018	6e-05	2e-05	2e-05	0	0.00012	0.00042	-4e-05	3
44090	0.00025	-3e-05	-3e-05	-1e-05	-5e-05	-8e-05	9e-05	-7e-05	3
44091	-0.00011	5e-05	0	-2e-05	-6e-05	-2e-05	-0.00031	-0.00011	3
44092	-0.00011	5e-05	0	-2e-05	-6e-05	-2e-05	-0.00031	-0.00011	3
44093	-0.00011	5e-05	0	-2e-05	-6e-05	-2e-05	-0.00031	-0.00011	3
44094	-0.00011	5e-05	0	-2e-05	-6e-05	-2e-05	-0.00031	-0.00011	3
44095	-0.00011	5e-05	0	-2e-05	-6e-05	-2e-05	-0.00031	-0.00011	3
44096	-0.00011	5e-05	0	-2e-05	-6e-05	-2e-05	-0.00031	-0.00011	3
44097	-0.00011	5e-05	0	-2e-05	-6e-05	-2e-05	-0.00031	-0.00011	3
44098	-0.00011	5e-05	0	-2e-05	-6e-05	-2e-05	-0.00031	-0.00011	3
44099	-0.00011	5e-05	0	-2e-05	-6e-05	-2e-05	-0.00031	-0.00011	3
44100	-0.00011	5e-05	0	-2e-05	-6e-05	-2e-05	-0.00031	-0.00011	3
44101	-0.00011	5e-05	0	-2e-05	-6e-05	-2e-05	-0.00031	-0.00011	3
44102	-0.00011	-2e-05	-2e-05	3e-05	5e-05	-0.00013	-0.00062	0.00014	3
44103	-0.00011	-2e-05	-2e-05	3e-05	5e-05	-0.00013	-0.00062	0.00014	3
44104	-0.00011	-2e-05	-2e-05	3e-05	5e-05	-0.00013	-0.00062	0.00014	3
44105	-0.00011	-2e-05	-2e-05	3e-05	5e-05	-0.00013	-0.00062	0.00014	3
44106	-0.00011	-2e-05	-2e-05	3e-05	5e-05	-0.00013	-0.00062	0.00014	3
44107	-0.00011	-2e-05	-2e-05	3e-05	5e-05	-0.00013	-0.00062	0.00014	3
44108	-0.00011	-2e-05	-2e-05	3e-05	5e-05	-0.00013	-0.00062	0.00014	3
44109	-0.00011	-2e-05	-2e-05	3e-05	5e-05	-0.00013	-0.00062	0.00014	3
44110	-0.00011	-2e-05	-2e-05	3e-05	5e-05	-0.00013	-0.00062	0.00014	3
44111	-0.00044	-8e-05	-3e-05	-5e-05	-1e-05	-8e-05	-0.00057	-5e-05	3
44112	-0.00044	-8e-05	-3e-05	-5e-05	-1e-05	-8e-05	-0.00057	-5e-05	3
44113	-0.00044	-8e-05	-3e-05	-5e-05	-1e-05	-8e-05	-0.00057	-5e-05	3
44114	-0.00044	-8e-05	-3e-05	-5e-05	-1e-05	-8e-05	-0.00057	-5e-05	3
44115	-0.00044	-8e-05	-3e-05	-5e-05	-1e-05	-8e-05	-0.00057	-5e-05	3
44116	-0.00044	-8e-05	-3e-05	-5e-05	-1e-05	-8e-05	-0.00057	-5e-05	3
44117	-0.00044	-8e-05	-3e-05	-5e-05	-1e-05	-8e-05	-0.00057	-5e-05	3
44118	-0.00044	-8e-05	-3e-05	-5e-05	-1e-05	-8e-05	-0.00057	-5e-05	3
44119	-0.00044	-8e-05	-3e-05	-5e-05	-1e-05	-8e-05	-0.00057	-5e-05	3
44120	-0.00044	-8e-05	-3e-05	-5e-05	-1e-05	-8e-05	-0.00057	-5e-05	3
44121	-0.00044	-8e-05	-3e-05	-5e-05	-1e-05	-8e-05	-0.00057	-5e-05	3
44122	-0.00044	-8e-05	-3e-05	-5e-05	-1e-05	-8e-05	-0.00057	-5e-05	3
44123	-0.00044	-8e-05	-3e-05	-5e-05	-1e-05	-8e-05	-0.00057	-5e-05	3
44124	-0.00044	-8e-05	-3e-05	-5e-05	-1e-05	-8e-05	-0.00057	-5e-05	3
44125	-0.00044	-8e-05	-3e-05	-5e-05	-1e-05	-8e-05	-0.00057	-5e-05	3
44126	0.00015	1e-05	-1e-05	-1e-05	1e-05	0.00013	9e-05	0.00011	3
44127	0.00015	1e-05	-1e-05	-1e-05	1e-05	0.00013	9e-05	0.00011	3
44128	0.00033	-1e-05	-6e-05	-6e-05	-9e-05	0	1e-05	0.00011	3
44129	0.00033	-1e-05	-6e-05	-6e-05	-9e-05	0	1e-05	0.00011	3
44130	0.00033	-1e-05	-6e-05	-6e-05	-9e-05	0	1e-05	0.00011	3
44131	0.00033	-1e-05	-6e-05	-6e-05	-9e-05	0	1e-05	0.00011	3
44132	0.00033	-1e-05	-6e-05	-6e-05	-9e-05	0	1e-05	0.00011	3
44133	0.00033	-1e-05	-6e-05	-6e-05	-9e-05	0	1e-05	0.00011	3
44134	0.00033	-1e-05	-6e-05	-6e-05	-9e-05	0	1e-05	0.00011	3
44135	0.00033	-1e-05	-6e-05	-6e-05	-9e-05	0	1e-05	0.00011	3
44136	0.00033	-1e-05	-6e-05	-6e-05	-9e-05	0	1e-05	0.00011	3
44138	0.00033	-1e-05	-6e-05	-6e-05	-9e-05	0	1e-05	0.00011	3
44139	0.00033	-1e-05	-6e-05	-6e-05	-9e-05	0	1e-05	0.00011	3
44140	0.00033	-1e-05	-6e-05	-6e-05	-9e-05	0	1e-05	0.00011	3
44141	0.00033	-1e-05	-6e-05	-6e-05	-9e-05	0	1e-05	0.00011	3
44142	0.00033	-1e-05	-6e-05	-6e-05	-9e-05	0	1e-05	0.00011	3
44143	0.00033	-1e-05	-6e-05	-6e-05	-9e-05	0	1e-05	0.00011	3
44144	0.00033	-1e-05	-6e-05	-6e-05	-9e-05	0	1e-05	0.00011	3
44145	0.00033	-1e-05	-6e-05	-6e-05	-9e-05	0	1e-05	0.00011	3
44146	0.00033	-1e-05	-6e-05	-6e-05	-9e-05	0	1e-05	0.00011	3
44147	0.00033	-1e-05	-6e-05	-6e-05	-9e-05	0	1e-05	0.00011	3
44148	0.00033	-1e-05	-6e-05	-6e-05	-9e-05	0	1e-05	0.00011	3
44149	-0.00012	-2e-05	3e-05	-7e-05	-4e-05	0	3e-05	6e-05	3
44150	-0.00012	-2e-05	3e-05	-7e-05	-4e-05	0	3e-05	6e-05	3
44151	-0.00026	2e-05	2e-05	3e-05	2e-05	-5e-05	0.00058	0.00044	3
44152	-0.00026	2e-05	2e-05	3e-05	2e-05	-5e-05	0.00058	0.00044	3
44153	-0.00026	2e-05	2e-05	3e-05	2e-05	-5e-05	0.00058	0.00044	3
44154	-0.00026	2e-05	2e-05	3e-05	2e-05	-5e-05	0.00058	0.00044	3
44155	-0.00026	2e-05	2e-05	3e-05	2e-05	-5e-05	0.00058	0.00044	3
44156	-0.00026	2e-05	2e-05	3e-05	2e-05	-5e-05	0.00058	0.00044	3
44157	-0.00026	2e-05	2e-05	3e-05	2e-05	-5e-05	0.00058	0.00044	3
44158	-0.00026	2e-05	2e-05	3e-05	2e-05	-5e-05	0.00058	0.00044	3
44159	-0.00026	2e-05	2e-05	3e-05	2e-05	-5e-05	0.00058	0.00044	3
44160	-0.00026	2e-05	2e-05	3e-05	2e-05	-5e-05	0.00058	0.00044	3
44161	-0.00026	2e-05	2e-05	3e-05	2e-05	-5e-05	0.00058	0.00044	3
44162	-0.00026	2e-05	2e-05	3e-05	2e-05	-5e-05	0.00058	0.00044	3
44163	-0.00026	2e-05	2e-05	3e-05	2e-05	-5e-05	0.00058	0.00044	3
44164	-0.00026	2e-05	2e-05	3e-05	2e-05	-5e-05	0.00058	0.00044	3
44165	-0.00026	2e-05	2e-05	3e-05	2e-05	-5e-05	0.00058	0.00044	3
44166	-0.00026	2e-05	2e-05	3e-05	2e-05	-5e-05	0.00058	0.00044	3
44167	-0.00026	2e-05	2e-05	3e-05	2e-05	-5e-05	0.00058	0.00044	3
44168	-0.00026	2e-05	2e-05	3e-05	2e-05	-5e-05	0.00058	0.00044	3
44169	-0.00026	2e-05	2e-05	3e-05	2e-05	-5e-05	0.00058	0.00044	3
44170	-0.00026	2e-05	2e-05	3e-05	2e-05	-5e-05	0.00058	0.00044	3
44171	0.00015	9e-05	3e-05	0	-5e-05	-2e-05	0.00033	0.00024	3
44172	0.00015	9e-05	3e-05	0	-5e-05	-2e-05	0.00033	0.00024	3
44173	-0.00019	-0.00011	-5e-05	-6e-05	-0.00014	-0.00011	-6e-05	7e-05	3
44174	-0.00019	-0.00011	-5e-05	-6e-05	-0.00014	-0.00011	-6e-05	7e-05	3
44175	-0.00019	-0.00011	-5e-05	-6e-05	-0.00014	-0.00011	-6e-05	7e-05	3
44176	-0.00019	-0.00011	-5e-05	-6e-05	-0.00014	-0.00011	-6e-05	7e-05	3
44177	-0.00019	-0.00011	-5e-05	-6e-05	-0.00014	-0.00011	-6e-05	7e-05	3
44178	-0.00019	-0.00011	-5e-05	-6e-05	-0.00014	-0.00011	-6e-05	7e-05	3
44179	-0.00019	-0.00011	-5e-05	-6e-05	-0.00014	-0.00011	-6e-05	7e-05	3
44180	-0.00019	-0.00011	-5e-05	-6e-05	-0.00014	-0.00011	-6e-05	7e-05	3
44181	-0.00019	-0.00011	-5e-05	-6e-05	-0.00014	-0.00011	-6e-05	7e-05	3
44182	-0.00019	-0.00011	-5e-05	-6e-05	-0.00014	-0.00011	-6e-05	7e-05	3
44183	-0.00019	-0.00011	-5e-05	-6e-05	-0.00014	-0.00011	-6e-05	7e-05	3
44184	-0.00019	-0.00011	-5e-05	-6e-05	-0.00014	-0.00011	-6e-05	7e-05	3
44185	-0.00019	-0.00011	-5e-05	-6e-05	-0.00014	-0.00011	-6e-05	7e-05	3
44186	-0.00019	-0.00011	-5e-05	-6e-05	-0.00014	-0.00011	-6e-05	7e-05	3
44188	-0.00019	-0.00011	-5e-05	-6e-05	-0.00014	-0.00011	-6e-05	7e-05	3
44189	-0.00019	-0.00011	-5e-05	-6e-05	-0.00014	-0.00011	-6e-05	7e-05	3
44190	-0.00019	-0.00011	-5e-05	-6e-05	-0.00014	-0.00011	-6e-05	7e-05	3
44191	-0.00019	-0.00011	-5e-05	-6e-05	-0.00014	-0.00011	-6e-05	7e-05	3
44192	-0.00019	-0.00011	-5e-05	-6e-05	-0.00014	-0.00011	-6e-05	7e-05	3
44193	-0.00019	-0.00011	-5e-05	-6e-05	-0.00014	-0.00011	-6e-05	7e-05	3
44194	-0.00019	-0.00011	-5e-05	-6e-05	-0.00014	-0.00011	-6e-05	7e-05	3
44195	-0.00019	-0.00011	-5e-05	-6e-05	-0.00014	-0.00011	-6e-05	7e-05	3
44196	-0.00019	-0.00011	-5e-05	-6e-05	-0.00014	-0.00011	-6e-05	7e-05	3
44197	-0.00019	-0.00011	-5e-05	-6e-05	-0.00014	-0.00011	-6e-05	7e-05	3
44198	-0.00019	-0.00011	-5e-05	-6e-05	-0.00014	-0.00011	-6e-05	7e-05	3
44199	-0.00019	-0.00011	-5e-05	-6e-05	-0.00014	-0.00011	-6e-05	7e-05	3
44200	-0.00019	-0.00011	-5e-05	-6e-05	-0.00014	-0.00011	-6e-05	7e-05	3
44201	0.00037	9e-05	3e-05	4e-05	9e-05	0.0001	7e-05	0.00036	3
44202	0.00037	9e-05	3e-05	4e-05	9e-05	0.0001	7e-05	0.00036	3
44203	0.00027	4e-05	0	0	-6e-05	-0.00015	-0.00024	-3e-05	3
44204	0.00027	4e-05	0	0	-6e-05	-0.00015	-0.00024	-3e-05	3
44205	0.00027	4e-05	0	0	-6e-05	-0.00015	-0.00024	-3e-05	3
44206	0.00027	4e-05	0	0	-6e-05	-0.00015	-0.00024	-3e-05	3
44207	0.00027	4e-05	0	0	-6e-05	-0.00015	-0.00024	-3e-05	3
44208	0.00027	4e-05	0	0	-6e-05	-0.00015	-0.00024	-3e-05	3
44209	0.00027	4e-05	0	0	-6e-05	-0.00015	-0.00024	-3e-05	3
44210	0.00027	4e-05	0	0	-6e-05	-0.00015	-0.00024	-3e-05	3
44211	0.00027	4e-05	0	0	-6e-05	-0.00015	-0.00024	-3e-05	3
44212	0.00027	4e-05	0	0	-6e-05	-0.00015	-0.00024	-3e-05	3
44213	0.00027	4e-05	0	0	-6e-05	-0.00015	-0.00024	-3e-05	3
44214	0.00027	4e-05	0	0	-6e-05	-0.00015	-0.00024	-3e-05	3
44215	0.00027	4e-05	0	0	-6e-05	-0.00015	-0.00024	-3e-05	3
44216	0.00027	4e-05	0	0	-6e-05	-0.00015	-0.00024	-3e-05	3
44217	0.00027	4e-05	0	0	-6e-05	-0.00015	-0.00024	-3e-05	3
44218	0.00027	4e-05	0	0	-6e-05	-0.00015	-0.00024	-3e-05	3
44219	0.00027	4e-05	0	0	-6e-05	-0.00015	-0.00024	-3e-05	3
44220	0.00027	4e-05	0	0	-6e-05	-0.00015	-0.00024	-3e-05	3
44221	0.00027	4e-05	0	0	-6e-05	-0.00015	-0.00024	-3e-05	3
44222	0.00027	4e-05	0	0	-6e-05	-0.00015	-0.00024	-3e-05	3
44223	0.00027	4e-05	0	0	-6e-05	-0.00015	-0.00024	-3e-05	3
44224	-5e-05	2e-05	-1e-05	-1e-05	-0.0001	-0.00016	-0.00063	-0.00028	3
44225	3e-05	1e-05	-1e-05	2e-05	7e-05	0	-0.00016	-0.0001	3
44226	-0.00026	-4e-05	0	-1e-05	0.00014	6e-05	-3e-05	-1e-05	3
44227	-0.00036	-5e-05	0	3e-05	1e-05	-0.00013	0.00016	-0.0001	3
44228	-0.00036	-5e-05	0	3e-05	1e-05	-0.00013	0.00016	-0.0001	3
44229	-0.00036	-5e-05	0	3e-05	1e-05	-0.00013	0.00016	-0.0001	3
44230	-0.00036	-5e-05	0	3e-05	1e-05	-0.00013	0.00016	-0.0001	3
44231	-0.00036	-5e-05	0	3e-05	1e-05	-0.00013	0.00016	-0.0001	3
44232	-0.00036	-5e-05	0	3e-05	1e-05	-0.00013	0.00016	-0.0001	3
44233	-0.00036	-5e-05	0	3e-05	1e-05	-0.00013	0.00016	-0.0001	3
44234	-0.00036	-5e-05	0	3e-05	1e-05	-0.00013	0.00016	-0.0001	3
44235	-0.00036	-5e-05	0	3e-05	1e-05	-0.00013	0.00016	-0.0001	3
44236	-0.00036	-5e-05	0	3e-05	1e-05	-0.00013	0.00016	-0.0001	3
44238	-0.00036	-5e-05	0	3e-05	1e-05	-0.00013	0.00016	-0.0001	3
44239	-0.00036	-5e-05	0	3e-05	1e-05	-0.00013	0.00016	-0.0001	3
44240	-0.00036	-5e-05	0	3e-05	1e-05	-0.00013	0.00016	-0.0001	3
44241	-0.00036	-5e-05	0	3e-05	1e-05	-0.00013	0.00016	-0.0001	3
44242	-0.00036	-5e-05	0	3e-05	1e-05	-0.00013	0.00016	-0.0001	3
44243	-0.00036	-5e-05	0	3e-05	1e-05	-0.00013	0.00016	-0.0001	3
44244	-0.00036	-5e-05	0	3e-05	1e-05	-0.00013	0.00016	-0.0001	3
44245	-0.00036	-5e-05	0	3e-05	1e-05	-0.00013	0.00016	-0.0001	3
44246	-0.00036	-5e-05	0	3e-05	1e-05	-0.00013	0.00016	-0.0001	3
44247	-0.00036	-5e-05	0	3e-05	1e-05	-0.00013	0.00016	-0.0001	3
44248	0.00074	0.00013	1e-05	0	0.0001	2e-05	0.00032	0.00051	3
44249	0.00013	2e-05	-2e-05	-2e-05	2e-05	-8e-05	-0.00022	-0.00017	3
44250	0.00013	2e-05	-2e-05	-2e-05	2e-05	-8e-05	-0.00022	-0.00017	3
44251	0.00013	2e-05	-2e-05	-2e-05	2e-05	-8e-05	-0.00022	-0.00017	3
44252	0.00039	7e-05	1e-05	6e-05	1e-05	5e-05	0.00026	3e-05	3
44253	0.00039	7e-05	1e-05	6e-05	1e-05	5e-05	0.00026	3e-05	3
44254	0.00039	7e-05	1e-05	6e-05	1e-05	5e-05	0.00026	3e-05	3
44255	0.00039	7e-05	1e-05	6e-05	1e-05	5e-05	0.00026	3e-05	3
44256	0.00039	7e-05	1e-05	6e-05	1e-05	5e-05	0.00026	3e-05	3
44257	0.00039	7e-05	1e-05	6e-05	1e-05	5e-05	0.00026	3e-05	3
44258	0.00039	7e-05	1e-05	6e-05	1e-05	5e-05	0.00026	3e-05	3
44259	0.00039	7e-05	1e-05	6e-05	1e-05	5e-05	0.00026	3e-05	3
44260	0.00039	7e-05	1e-05	6e-05	1e-05	5e-05	0.00026	3e-05	3
44261	0.00039	7e-05	1e-05	6e-05	1e-05	5e-05	0.00026	3e-05	3
44262	0.00039	7e-05	1e-05	6e-05	1e-05	5e-05	0.00026	3e-05	3
44263	0.00039	7e-05	1e-05	6e-05	1e-05	5e-05	0.00026	3e-05	3
44264	0.00039	7e-05	1e-05	6e-05	1e-05	5e-05	0.00026	3e-05	3
44265	0.00039	7e-05	1e-05	6e-05	1e-05	5e-05	0.00026	3e-05	3
44266	0.00039	7e-05	1e-05	6e-05	1e-05	5e-05	0.00026	3e-05	3
44267	0.00039	7e-05	1e-05	6e-05	1e-05	5e-05	0.00026	3e-05	3
44268	0.00039	7e-05	1e-05	6e-05	1e-05	5e-05	0.00026	3e-05	3
44269	0	-1e-05	-1e-05	0	2e-05	1e-05	0.0001	-0.00013	3
44270	-0.0003	-0.00011	-2e-05	3e-05	4e-05	1e-05	-0.00024	-0.00033	3
44271	-0.0003	-0.00011	-2e-05	3e-05	4e-05	1e-05	-0.00024	-0.00033	3
44272	-0.0003	-0.00011	-2e-05	3e-05	4e-05	1e-05	-0.00024	-0.00033	3
44273	-0.0003	-0.00011	-2e-05	3e-05	4e-05	1e-05	-0.00024	-0.00033	3
44274	-0.0003	-0.00011	-2e-05	3e-05	4e-05	1e-05	-0.00024	-0.00033	3
44275	-0.0003	-0.00011	-2e-05	3e-05	4e-05	1e-05	-0.00024	-0.00033	3
44276	-0.0003	-0.00011	-2e-05	3e-05	4e-05	1e-05	-0.00024	-0.00033	3
44277	-0.0003	-0.00011	-2e-05	3e-05	4e-05	1e-05	-0.00024	-0.00033	3
44278	-0.0003	-0.00011	-2e-05	3e-05	4e-05	1e-05	-0.00024	-0.00033	3
44279	-0.0003	-0.00011	-2e-05	3e-05	4e-05	1e-05	-0.00024	-0.00033	3
44280	-0.0003	-0.00011	-2e-05	3e-05	4e-05	1e-05	-0.00024	-0.00033	3
44281	-0.0003	-0.00011	-2e-05	3e-05	4e-05	1e-05	-0.00024	-0.00033	3
44282	-0.00038	-6e-05	-8e-05	-8e-05	-0.00021	-0.00015	-0.00022	-0.00011	3
44284	-0.00038	-6e-05	-8e-05	-8e-05	-0.00021	-0.00015	-0.00022	-0.00011	3
44285	-0.00038	-6e-05	-8e-05	-8e-05	-0.00021	-0.00015	-0.00022	-0.00011	3
44286	-0.00038	-6e-05	-8e-05	-8e-05	-0.00021	-0.00015	-0.00022	-0.00011	3
44288	-0.00038	-6e-05	-8e-05	-8e-05	-0.00021	-0.00015	-0.00022	-0.00011	3
44289	-0.00038	-6e-05	-8e-05	-8e-05	-0.00021	-0.00015	-0.00022	-0.00011	3
44290	-0.00038	-6e-05	-8e-05	-8e-05	-0.00021	-0.00015	-0.00022	-0.00011	3
44291	-0.0002	-6e-05	-5e-05	-3e-05	-3e-05	0.00017	0.0002	-0.00029	3
44292	-0.0002	-6e-05	-5e-05	-3e-05	-3e-05	0.00017	0.0002	-0.00029	3
44293	-0.0002	-6e-05	-5e-05	-3e-05	-3e-05	0.00017	0.0002	-0.00029	3
44294	-0.0002	-6e-05	-5e-05	-3e-05	-3e-05	0.00017	0.0002	-0.00029	3
44295	-0.0002	-6e-05	-5e-05	-3e-05	-3e-05	0.00017	0.0002	-0.00029	3
44296	-0.0002	-6e-05	-5e-05	-3e-05	-3e-05	0.00017	0.0002	-0.00029	3
44297	-0.0002	-6e-05	-5e-05	-3e-05	-3e-05	0.00017	0.0002	-0.00029	3
44298	-0.0002	-6e-05	-5e-05	-3e-05	-3e-05	0.00017	0.0002	-0.00029	3
44299	-0.0002	-6e-05	-5e-05	-3e-05	-3e-05	0.00017	0.0002	-0.00029	3
44300	-0.0002	-6e-05	-5e-05	-3e-05	-3e-05	0.00017	0.0002	-0.00029	3
44301	-0.0002	-6e-05	-5e-05	-3e-05	-3e-05	0.00017	0.0002	-0.00029	3
44302	-0.0002	-6e-05	-5e-05	-3e-05	-3e-05	0.00017	0.0002	-0.00029	3
