11786	0.00028	0.00014	6e-05	8e-05	0.00012	0.00035	-4e-05	1e-05	3
11787	0.00028	0.00014	6e-05	8e-05	0.00012	0.00035	-4e-05	1e-05	3
11788	0.00028	0.00014	6e-05	8e-05	0.00012	0.00035	-4e-05	1e-05	3
11789	0.00028	0.00014	6e-05	8e-05	0.00012	0.00035	-4e-05	1e-05	3
11790	0.00013	-5e-05	-1e-05	-2e-05	-5e-05	0.00045	-2e-05	9e-05	3
11791	0.00013	-5e-05	-1e-05	-2e-05	-5e-05	0.00045	-2e-05	9e-05	3
11792	0.00013	-5e-05	-1e-05	-2e-05	-5e-05	0.00045	-2e-05	9e-05	3
11793	0.00013	-5e-05	-1e-05	-2e-05	-5e-05	0.00045	-2e-05	9e-05	3
11794	0.00013	-5e-05	-1e-05	-2e-05	-5e-05	0.00045	-2e-05	9e-05	3
11795	0.00013	-5e-05	-1e-05	-2e-05	-5e-05	0.00045	-2e-05	9e-05	3
11796	0.00013	-5e-05	-1e-05	-2e-05	-5e-05	0.00045	-2e-05	9e-05	3
11797	0.00013	-5e-05	-1e-05	-2e-05	-5e-05	0.00045	-2e-05	9e-05	3
11798	0.00013	-5e-05	-1e-05	-2e-05	-5e-05	0.00045	-2e-05	9e-05	3
11799	0.00013	-5e-05	-1e-05	-2e-05	-5e-05	0.00045	-2e-05	9e-05	3
11800	0.00013	-5e-05	-1e-05	-2e-05	-5e-05	0.00045	-2e-05	9e-05	3
11801	0.00013	-5e-05	-1e-05	-2e-05	-5e-05	0.00045	-2e-05	9e-05	3
11802	0.00013	-5e-05	-1e-05	-2e-05	-5e-05	0.00045	-2e-05	9e-05	3
11803	0.00013	-5e-05	-1e-05	-2e-05	-5e-05	0.00045	-2e-05	9e-05	3
11804	0.00013	-5e-05	-1e-05	-2e-05	-5e-05	0.00045	-2e-05	9e-05	3
11805	-0.00013	-8e-05	-8e-05	0.0001	0.00018	0.00044	-9e-05	-1e-05	3
11806	-9e-05	0	-5e-05	-4e-05	-8e-05	-0.00011	-7e-05	-1e-05	3
11807	-9e-05	0	-5e-05	-4e-05	-8e-05	-0.00011	-7e-05	-1e-05	3
11808	-9e-05	0	-5e-05	-4e-05	-8e-05	-0.00011	-7e-05	-1e-05	3
11809	-9e-05	0	-5e-05	-4e-05	-8e-05	-0.00011	-7e-05	-1e-05	3
11810	-9e-05	0	-5e-05	-4e-05	-8e-05	-0.00011	-7e-05	-1e-05	3
11811	-9e-05	0	-5e-05	-4e-05	-8e-05	-0.00011	-7e-05	-1e-05	3
11812	-9e-05	0	-5e-05	-4e-05	-8e-05	-0.00011	-7e-05	-1e-05	3
11813	-9e-05	0	-5e-05	-4e-05	-8e-05	-0.00011	-7e-05	-1e-05	3
11814	-9e-05	0	-5e-05	-4e-05	-8e-05	-0.00011	-7e-05	-1e-05	3
11815	-9e-05	0	-5e-05	-4e-05	-8e-05	-0.00011	-7e-05	-1e-05	3
11816	-9e-05	0	-5e-05	-4e-05	-8e-05	-0.00011	-7e-05	-1e-05	3
11817	-9e-05	0	-5e-05	-4e-05	-8e-05	-0.00011	-7e-05	-1e-05	3
11818	-9e-05	0	-5e-05	-4e-05	-8e-05	-0.00011	-7e-05	-1e-05	3
11819	-9e-05	0	-5e-05	-4e-05	-8e-05	-0.00011	-7e-05	-1e-05	3
11820	-9e-05	0	-5e-05	-4e-05	-8e-05	-0.00011	-7e-05	-1e-05	3
11821	-9e-05	0	-5e-05	-4e-05	-8e-05	-0.00011	-7e-05	-1e-05	3
11822	-9e-05	0	-5e-05	-4e-05	-8e-05	-0.00011	-7e-05	-1e-05	3
11823	-9e-05	0	-5e-05	-4e-05	-8e-05	-0.00011	-7e-05	-1e-05	3
11824	-9e-05	0	-5e-05	-4e-05	-8e-05	-0.00011	-7e-05	-1e-05	3
11825	-9e-05	0	-5e-05	-4e-05	-8e-05	-0.00011	-7e-05	-1e-05	3
11826	-9e-05	0	-5e-05	-4e-05	-8e-05	-0.00011	-7e-05	-1e-05	3
11827	-0.00029	-3e-05	0	-0.00011	-0.00089	0.0002	-6e-05	-9e-05	3
11828	-0.00029	-3e-05	0	-0.00011	-0.00089	0.0002	-6e-05	-9e-05	3
11829	-0.00043	-9e-05	-4e-05	-8e-05	-0.00039	-0.0002	0.00011	1e-05	3
11830	-0.00043	-9e-05	-4e-05	-8e-05	-0.00039	-0.0002	0.00011	1e-05	3
11831	-0.00043	-9e-05	-4e-05	-8e-05	-0.00039	-0.0002	0.00011	1e-05	3
11832	-0.00043	-9e-05	-4e-05	-8e-05	-0.00039	-0.0002	0.00011	1e-05	3
11833	-0.00043	-9e-05	-4e-05	-8e-05	-0.00039	-0.0002	0.00011	1e-05	3
11834	-0.00043	-9e-05	-4e-05	-8e-05	-0.00039	-0.0002	0.00011	1e-05	3
11835	-0.00043	-9e-05	-4e-05	-8e-05	-0.00039	-0.0002	0.00011	1e-05	3
11837	-0.00043	-9e-05	-4e-05	-8e-05	-0.00039	-0.0002	0.00011	1e-05	3
11839	-0.00043	-9e-05	-4e-05	-8e-05	-0.00039	-0.0002	0.00011	1e-05	3
11840	-0.00043	-9e-05	-4e-05	-8e-05	-0.00039	-0.0002	0.00011	1e-05	3
11841	2e-05	-3e-05	-3e-05	-7e-05	-0.00011	-0.0002	-9e-05	-1e-05	3
11842	2e-05	-3e-05	-3e-05	-7e-05	-0.00011	-0.0002	-9e-05	-1e-05	3
11843	2e-05	-3e-05	-3e-05	-7e-05	-0.00011	-0.0002	-9e-05	-1e-05	3
11844	2e-05	-3e-05	-3e-05	-7e-05	-0.00011	-0.0002	-9e-05	-1e-05	3
11845	2e-05	-3e-05	-3e-05	-7e-05	-0.00011	-0.0002	-9e-05	-1e-05	3
11846	2e-05	-3e-05	-3e-05	-7e-05	-0.00011	-0.0002	-9e-05	-1e-05	3
11847	2e-05	-3e-05	-3e-05	-7e-05	-0.00011	-0.0002	-9e-05	-1e-05	3
11848	2e-05	-3e-05	-3e-05	-7e-05	-0.00011	-0.0002	-9e-05	-1e-05	3
11849	2e-05	-3e-05	-3e-05	-7e-05	-0.00011	-0.0002	-9e-05	-1e-05	3
11850	0.00023	1e-05	4e-05	-2e-05	-0.00049	-0.00013	-4e-05	2e-05	3
11851	0.00023	1e-05	4e-05	-2e-05	-0.00049	-0.00013	-4e-05	2e-05	3
11852	0.00023	1e-05	4e-05	-2e-05	-0.00049	-0.00013	-4e-05	2e-05	3
11853	0.00023	1e-05	4e-05	-2e-05	-0.00049	-0.00013	-4e-05	2e-05	3
11854	0.00023	1e-05	4e-05	-2e-05	-0.00049	-0.00013	-4e-05	2e-05	3
11855	0.00023	1e-05	4e-05	-2e-05	-0.00049	-0.00013	-4e-05	2e-05	3
11856	0.00023	1e-05	4e-05	-2e-05	-0.00049	-0.00013	-4e-05	2e-05	3
11857	0.00023	1e-05	4e-05	-2e-05	-0.00049	-0.00013	-4e-05	2e-05	3
11858	0.00023	1e-05	4e-05	-2e-05	-0.00049	-0.00013	-4e-05	2e-05	3
11859	0.00023	1e-05	4e-05	-2e-05	-0.00049	-0.00013	-4e-05	2e-05	3
11860	0.00023	1e-05	4e-05	-2e-05	-0.00049	-0.00013	-4e-05	2e-05	3
11861	0.00023	1e-05	4e-05	-2e-05	-0.00049	-0.00013	-4e-05	2e-05	3
11862	0.00023	1e-05	4e-05	-2e-05	-0.00049	-0.00013	-4e-05	2e-05	3
11863	0.00023	1e-05	4e-05	-2e-05	-0.00049	-0.00013	-4e-05	2e-05	3
11864	0.00023	1e-05	4e-05	-2e-05	-0.00049	-0.00013	-4e-05	2e-05	3
11865	-4e-05	-0.00014	2e-05	0.00011	0.00075	-1e-05	6e-05	3e-05	3
11866	0.00017	3e-05	-3e-05	-0.00019	-0.00042	-0.00077	-0.00011	-3e-05	3
11867	0.00017	3e-05	-3e-05	-0.00019	-0.00042	-0.00077	-0.00011	-3e-05	3
11868	0.00017	3e-05	-3e-05	-0.00019	-0.00042	-0.00077	-0.00011	-3e-05	3
11869	0.00017	3e-05	-3e-05	-0.00019	-0.00042	-0.00077	-0.00011	-3e-05	3
11870	0.00017	3e-05	-3e-05	-0.00019	-0.00042	-0.00077	-0.00011	-3e-05	3
11871	0.00017	3e-05	-3e-05	-0.00019	-0.00042	-0.00077	-0.00011	-3e-05	3
11872	0.00017	3e-05	-3e-05	-0.00019	-0.00042	-0.00077	-0.00011	-3e-05	3
11873	0.00017	3e-05	-3e-05	-0.00019	-0.00042	-0.00077	-0.00011	-3e-05	3
11874	0.00017	3e-05	-3e-05	-0.00019	-0.00042	-0.00077	-0.00011	-3e-05	3
11875	0.00017	3e-05	-3e-05	-0.00019	-0.00042	-0.00077	-0.00011	-3e-05	3
11876	0.00017	3e-05	-3e-05	-0.00019	-0.00042	-0.00077	-0.00011	-3e-05	3
11877	0.00017	3e-05	-3e-05	-0.00019	-0.00042	-0.00077	-0.00011	-3e-05	3
11878	0.00017	3e-05	-3e-05	-0.00019	-0.00042	-0.00077	-0.00011	-3e-05	3
11879	0.00017	3e-05	-3e-05	-0.00019	-0.00042	-0.00077	-0.00011	-3e-05	3
11880	0.00017	3e-05	-3e-05	-0.00019	-0.00042	-0.00077	-0.00011	-3e-05	3
11881	0.00017	3e-05	-3e-05	-0.00019	-0.00042	-0.00077	-0.00011	-3e-05	3
11882	0.00017	3e-05	-3e-05	-0.00019	-0.00042	-0.00077	-0.00011	-3e-05	3
11883	0.00017	3e-05	-3e-05	-0.00019	-0.00042	-0.00077	-0.00011	-3e-05	3
11884	0.00017	3e-05	-3e-05	-0.00019	-0.00042	-0.00077	-0.00011	-3e-05	3
11885	0.00017	3e-05	-3e-05	-0.00019	-0.00042	-0.00077	-0.00011	-3e-05	3
11887	-0.0001	5e-05	3e-05	-0.00011	-0.00033	-0.00019	-5e-05	0	3
11889	8e-05	-9e-05	-3e-05	2e-05	0.00021	2e-05	0	1e-05	3
11890	8e-05	-9e-05	-3e-05	2e-05	0.00021	2e-05	0	1e-05	3
11891	8e-05	-9e-05	-3e-05	2e-05	0.00021	2e-05	0	1e-05	3
11892	8e-05	-9e-05	-3e-05	2e-05	0.00021	2e-05	0	1e-05	3
11893	8e-05	-9e-05	-3e-05	2e-05	0.00021	2e-05	0	1e-05	3
11894	8e-05	-9e-05	-3e-05	2e-05	0.00021	2e-05	0	1e-05	3
11895	8e-05	-9e-05	-3e-05	2e-05	0.00021	2e-05	0	1e-05	3
11896	8e-05	-9e-05	-3e-05	2e-05	0.00021	2e-05	0	1e-05	3
11897	8e-05	-9e-05	-3e-05	2e-05	0.00021	2e-05	0	1e-05	3
11898	8e-05	-9e-05	-3e-05	2e-05	0.00021	2e-05	0	1e-05	3
11899	8e-05	-9e-05	-3e-05	2e-05	0.00021	2e-05	0	1e-05	3
11900	8e-05	-9e-05	-3e-05	2e-05	0.00021	2e-05	0	1e-05	3
11901	-0.00028	0	0	-7e-05	-0.00039	-0.00022	-5e-05	-8e-05	3
11902	-0.00028	0	0	-7e-05	-0.00039	-0.00022	-5e-05	-8e-05	3
11903	-0.00028	0	0	-7e-05	-0.00039	-0.00022	-5e-05	-8e-05	3
11904	-0.00028	0	0	-7e-05	-0.00039	-0.00022	-5e-05	-8e-05	3
11905	-0.00028	0	0	-7e-05	-0.00039	-0.00022	-5e-05	-8e-05	3
11906	-0.00028	0	0	-7e-05	-0.00039	-0.00022	-5e-05	-8e-05	3
11907	-0.00028	0	0	-7e-05	-0.00039	-0.00022	-5e-05	-8e-05	3
11908	-0.00028	0	0	-7e-05	-0.00039	-0.00022	-5e-05	-8e-05	3
11909	-0.00028	0	0	-7e-05	-0.00039	-0.00022	-5e-05	-8e-05	3
11910	-0.00046	3e-05	1e-05	-1e-05	-4e-05	0.00012	-2e-05	-0.00012	3
11911	-0.00046	3e-05	1e-05	-1e-05	-4e-05	0.00012	-2e-05	-0.00012	3
11912	-0.00046	3e-05	1e-05	-1e-05	-4e-05	0.00012	-2e-05	-0.00012	3
11913	-0.00046	3e-05	1e-05	-1e-05	-4e-05	0.00012	-2e-05	-0.00012	3
11914	-0.00046	3e-05	1e-05	-1e-05	-4e-05	0.00012	-2e-05	-0.00012	3
11915	-0.00046	3e-05	1e-05	-1e-05	-4e-05	0.00012	-2e-05	-0.00012	3
11916	-0.00046	3e-05	1e-05	-1e-05	-4e-05	0.00012	-2e-05	-0.00012	3
11917	-0.00046	3e-05	1e-05	-1e-05	-4e-05	0.00012	-2e-05	-0.00012	3
11918	-0.00046	3e-05	1e-05	-1e-05	-4e-05	0.00012	-2e-05	-0.00012	3
11919	-0.00046	3e-05	1e-05	-1e-05	-4e-05	0.00012	-2e-05	-0.00012	3
11920	-0.00046	3e-05	1e-05	-1e-05	-4e-05	0.00012	-2e-05	-0.00012	3
11921	-0.00046	3e-05	1e-05	-1e-05	-4e-05	0.00012	-2e-05	-0.00012	3
11922	-0.00046	3e-05	1e-05	-1e-05	-4e-05	0.00012	-2e-05	-0.00012	3
11923	-0.00046	3e-05	1e-05	-1e-05	-4e-05	0.00012	-2e-05	-0.00012	3
11924	-0.00046	3e-05	1e-05	-1e-05	-4e-05	0.00012	-2e-05	-0.00012	3
11925	-3e-05	-1e-05	-5e-05	-0.00014	-0.00019	0.00014	2e-05	-6e-05	3
11926	-0.00048	-9e-05	-4e-05	-3e-05	0.00025	0.00021	4e-05	-1e-05	3
11927	-0.00048	-9e-05	-4e-05	-3e-05	0.00025	0.00021	4e-05	-1e-05	3
11928	-0.00048	-9e-05	-4e-05	-3e-05	0.00025	0.00021	4e-05	-1e-05	3
11929	-0.00048	-9e-05	-4e-05	-3e-05	0.00025	0.00021	4e-05	-1e-05	3
11930	-0.00048	-9e-05	-4e-05	-3e-05	0.00025	0.00021	4e-05	-1e-05	3
11931	-0.00048	-9e-05	-4e-05	-3e-05	0.00025	0.00021	4e-05	-1e-05	3
11932	-0.00048	-9e-05	-4e-05	-3e-05	0.00025	0.00021	4e-05	-1e-05	3
11933	-0.00048	-9e-05	-4e-05	-3e-05	0.00025	0.00021	4e-05	-1e-05	3
11934	-0.00048	-9e-05	-4e-05	-3e-05	0.00025	0.00021	4e-05	-1e-05	3
11935	-0.00048	-9e-05	-4e-05	-3e-05	0.00025	0.00021	4e-05	-1e-05	3
11937	-0.00048	-9e-05	-4e-05	-3e-05	0.00025	0.00021	4e-05	-1e-05	3
11939	-0.00048	-9e-05	-4e-05	-3e-05	0.00025	0.00021	4e-05	-1e-05	3
11940	-0.00048	-9e-05	-4e-05	-3e-05	0.00025	0.00021	4e-05	-1e-05	3
11941	-0.00048	-9e-05	-4e-05	-3e-05	0.00025	0.00021	4e-05	-1e-05	3
11942	-0.00048	-9e-05	-4e-05	-3e-05	0.00025	0.00021	4e-05	-1e-05	3
11943	-0.00048	-9e-05	-4e-05	-3e-05	0.00025	0.00021	4e-05	-1e-05	3
11944	-0.00048	-9e-05	-4e-05	-3e-05	0.00025	0.00021	4e-05	-1e-05	3
11945	-0.00048	-9e-05	-4e-05	-3e-05	0.00025	0.00021	4e-05	-1e-05	3
11946	-0.00048	-9e-05	-4e-05	-3e-05	0.00025	0.00021	4e-05	-1e-05	3
11947	-3e-05	4e-05	3e-05	0.00013	0.00077	-7e-05	0.00016	2e-05	3
11948	-3e-05	4e-05	3e-05	0.00013	0.00077	-7e-05	0.00016	2e-05	3
11949	-1e-05	-4e-05	-0.00013	2e-05	0.00078	0.00078	7e-05	-1e-05	3
11950	-1e-05	-4e-05	-0.00013	2e-05	0.00078	0.00078	7e-05	-1e-05	3
11951	-1e-05	-4e-05	-0.00013	2e-05	0.00078	0.00078	7e-05	-1e-05	3
11952	-1e-05	-4e-05	-0.00013	2e-05	0.00078	0.00078	7e-05	-1e-05	3
11953	-1e-05	-4e-05	-0.00013	2e-05	0.00078	0.00078	7e-05	-1e-05	3
11954	-1e-05	-4e-05	-0.00013	2e-05	0.00078	0.00078	7e-05	-1e-05	3
11955	-1e-05	-4e-05	-0.00013	2e-05	0.00078	0.00078	7e-05	-1e-05	3
11956	-1e-05	-4e-05	-0.00013	2e-05	0.00078	0.00078	7e-05	-1e-05	3
11957	-1e-05	-4e-05	-0.00013	2e-05	0.00078	0.00078	7e-05	-1e-05	3
11958	-1e-05	-4e-05	-0.00013	2e-05	0.00078	0.00078	7e-05	-1e-05	3
11959	-1e-05	-4e-05	-0.00013	2e-05	0.00078	0.00078	7e-05	-1e-05	3
11960	-1e-05	-4e-05	-0.00013	2e-05	0.00078	0.00078	7e-05	-1e-05	3
11961	-0.0001	-5e-05	-2e-05	0	-0.00033	-1e-05	-8e-05	0	3
11962	-0.0001	-5e-05	-2e-05	0	-0.00033	-1e-05	-8e-05	0	3
11963	-0.0001	-5e-05	-2e-05	0	-0.00033	-1e-05	-8e-05	0	3
11964	-0.0001	-5e-05	-2e-05	0	-0.00033	-1e-05	-8e-05	0	3
11965	-0.0001	-5e-05	-2e-05	0	-0.00033	-1e-05	-8e-05	0	3
11966	-0.0001	-5e-05	-2e-05	0	-0.00033	-1e-05	-8e-05	0	3
11967	-0.0001	-5e-05	-2e-05	0	-0.00033	-1e-05	-8e-05	0	3
11968	-0.0001	-5e-05	-2e-05	0	-0.00033	-1e-05	-8e-05	0	3
11969	-0.0001	-5e-05	-2e-05	0	-0.00033	-1e-05	-8e-05	0	3
11970	-0.00016	0.00015	0.00033	0.00014	0.0001	-6e-05	5e-05	-0.00016	3
11971	-0.00016	0.00015	0.00033	0.00014	0.0001	-6e-05	5e-05	-0.00016	3
11972	-0.00016	0.00015	0.00033	0.00014	0.0001	-6e-05	5e-05	-0.00016	3
11973	-0.00016	0.00015	0.00033	0.00014	0.0001	-6e-05	5e-05	-0.00016	3
11974	-0.00016	0.00015	0.00033	0.00014	0.0001	-6e-05	5e-05	-0.00016	3
11975	-0.00016	0.00015	0.00033	0.00014	0.0001	-6e-05	5e-05	-0.00016	3
11976	-0.00016	0.00015	0.00033	0.00014	0.0001	-6e-05	5e-05	-0.00016	3
11977	-0.00016	0.00015	0.00033	0.00014	0.0001	-6e-05	5e-05	-0.00016	3
11978	-0.00016	0.00015	0.00033	0.00014	0.0001	-6e-05	5e-05	-0.00016	3
11979	-0.00016	0.00015	0.00033	0.00014	0.0001	-6e-05	5e-05	-0.00016	3
11980	-0.00016	0.00015	0.00033	0.00014	0.0001	-6e-05	5e-05	-0.00016	3
11981	-0.00016	0.00015	0.00033	0.00014	0.0001	-6e-05	5e-05	-0.00016	3
11982	-0.00016	0.00015	0.00033	0.00014	0.0001	-6e-05	5e-05	-0.00016	3
11983	-0.00016	0.00015	0.00033	0.00014	0.0001	-6e-05	5e-05	-0.00016	3
11984	-0.00016	0.00015	0.00033	0.00014	0.0001	-6e-05	5e-05	-0.00016	3
11985	0.00048	-2e-05	-0.00012	-7e-05	-8e-05	0.00017	-0.00012	-0.00014	3
11987	4e-05	-6e-05	-8e-05	-6e-05	0.0001	4e-05	-9e-05	-3e-05	3
11989	4e-05	-6e-05	-8e-05	-6e-05	0.0001	4e-05	-9e-05	-3e-05	3
11990	4e-05	-6e-05	-8e-05	-6e-05	0.0001	4e-05	-9e-05	-3e-05	3
11991	4e-05	-6e-05	-8e-05	-6e-05	0.0001	4e-05	-9e-05	-3e-05	3
11992	4e-05	-6e-05	-8e-05	-6e-05	0.0001	4e-05	-9e-05	-3e-05	3
11993	4e-05	-6e-05	-8e-05	-6e-05	0.0001	4e-05	-9e-05	-3e-05	3
11994	4e-05	-6e-05	-8e-05	-6e-05	0.0001	4e-05	-9e-05	-3e-05	3
11995	4e-05	-6e-05	-8e-05	-6e-05	0.0001	4e-05	-9e-05	-3e-05	3
11996	4e-05	-6e-05	-8e-05	-6e-05	0.0001	4e-05	-9e-05	-3e-05	3
11997	4e-05	-6e-05	-8e-05	-6e-05	0.0001	4e-05	-9e-05	-3e-05	3
11998	4e-05	-6e-05	-8e-05	-6e-05	0.0001	4e-05	-9e-05	-3e-05	3
11999	4e-05	-6e-05	-8e-05	-6e-05	0.0001	4e-05	-9e-05	-3e-05	3
12000	4e-05	-6e-05	-8e-05	-6e-05	0.0001	4e-05	-9e-05	-3e-05	3
12001	4e-05	-6e-05	-8e-05	-6e-05	0.0001	4e-05	-9e-05	-3e-05	3
12002	4e-05	-6e-05	-8e-05	-6e-05	0.0001	4e-05	-9e-05	-3e-05	3
12003	4e-05	-6e-05	-8e-05	-6e-05	0.0001	4e-05	-9e-05	-3e-05	3
12004	4e-05	-6e-05	-8e-05	-6e-05	0.0001	4e-05	-9e-05	-3e-05	3
12005	4e-05	-6e-05	-8e-05	-6e-05	0.0001	4e-05	-9e-05	-3e-05	3
12006	4e-05	-6e-05	-8e-05	-6e-05	0.0001	4e-05	-9e-05	-3e-05	3
12007	0.00037	-0.00017	-2e-05	1e-05	-0.00025	-0.00023	-3e-05	4e-05	3
12008	0.00037	-0.00017	-2e-05	1e-05	-0.00025	-0.00023	-3e-05	4e-05	3
12009	0.00021	-1e-05	1e-05	2e-05	-9e-05	-0.0001	4e-05	0.00011	3
12010	0.00021	-1e-05	1e-05	2e-05	-9e-05	-0.0001	4e-05	0.00011	3
12011	0.00021	-1e-05	1e-05	2e-05	-9e-05	-0.0001	4e-05	0.00011	3
12012	0.00021	-1e-05	1e-05	2e-05	-9e-05	-0.0001	4e-05	0.00011	3
12013	0.00021	-1e-05	1e-05	2e-05	-9e-05	-0.0001	4e-05	0.00011	3
12014	0.00021	-1e-05	1e-05	2e-05	-9e-05	-0.0001	4e-05	0.00011	3
12015	0.00021	-1e-05	1e-05	2e-05	-9e-05	-0.0001	4e-05	0.00011	3
12016	0.00021	-1e-05	1e-05	2e-05	-9e-05	-0.0001	4e-05	0.00011	3
12017	0.00021	-1e-05	1e-05	2e-05	-9e-05	-0.0001	4e-05	0.00011	3
12018	0.00021	-1e-05	1e-05	2e-05	-9e-05	-0.0001	4e-05	0.00011	3
12019	0.00021	-1e-05	1e-05	2e-05	-9e-05	-0.0001	4e-05	0.00011	3
12020	0.00021	-1e-05	1e-05	2e-05	-9e-05	-0.0001	4e-05	0.00011	3
12021	-0.00012	5e-05	-4e-05	4e-05	0.00028	9e-05	2e-05	6e-05	3
12022	-0.00012	5e-05	-4e-05	4e-05	0.00028	9e-05	2e-05	6e-05	3
12023	-0.00012	5e-05	-4e-05	4e-05	0.00028	9e-05	2e-05	6e-05	3
12024	-0.00012	5e-05	-4e-05	4e-05	0.00028	9e-05	2e-05	6e-05	3
12025	-0.00012	5e-05	-4e-05	4e-05	0.00028	9e-05	2e-05	6e-05	3
12026	-0.00012	5e-05	-4e-05	4e-05	0.00028	9e-05	2e-05	6e-05	3
12027	-0.00012	5e-05	-4e-05	4e-05	0.00028	9e-05	2e-05	6e-05	3
12028	-0.00012	5e-05	-4e-05	4e-05	0.00028	9e-05	2e-05	6e-05	3
12029	-0.00012	5e-05	-4e-05	4e-05	0.00028	9e-05	2e-05	6e-05	3
12030	-1e-05	3e-05	-7e-05	-0.00015	-8e-05	-0.00019	-0.00014	-0.00019	3
12031	-1e-05	3e-05	-7e-05	-0.00015	-8e-05	-0.00019	-0.00014	-0.00019	3
12032	-1e-05	3e-05	-7e-05	-0.00015	-8e-05	-0.00019	-0.00014	-0.00019	3
12033	-1e-05	3e-05	-7e-05	-0.00015	-8e-05	-0.00019	-0.00014	-0.00019	3
12034	-1e-05	3e-05	-7e-05	-0.00015	-8e-05	-0.00019	-0.00014	-0.00019	3
12035	-1e-05	3e-05	-7e-05	-0.00015	-8e-05	-0.00019	-0.00014	-0.00019	3
12037	-1e-05	3e-05	-7e-05	-0.00015	-8e-05	-0.00019	-0.00014	-0.00019	3
12039	-1e-05	3e-05	-7e-05	-0.00015	-8e-05	-0.00019	-0.00014	-0.00019	3
12040	-1e-05	3e-05	-7e-05	-0.00015	-8e-05	-0.00019	-0.00014	-0.00019	3
12041	-1e-05	3e-05	-7e-05	-0.00015	-8e-05	-0.00019	-0.00014	-0.00019	3
12042	-1e-05	3e-05	-7e-05	-0.00015	-8e-05	-0.00019	-0.00014	-0.00019	3
12043	-1e-05	3e-05	-7e-05	-0.00015	-8e-05	-0.00019	-0.00014	-0.00019	3
12044	-1e-05	3e-05	-7e-05	-0.00015	-8e-05	-0.00019	-0.00014	-0.00019	3
12045	-0.00038	5e-05	-0.00033	-6e-05	-0.0006	-0.00048	6e-05	-0.00012	3
12046	-2e-05	-0.00012	-3e-05	2e-05	-6e-05	-0.0003	-7e-05	-9e-05	3
12047	-2e-05	-0.00012	-3e-05	2e-05	-6e-05	-0.0003	-7e-05	-9e-05	3
12048	-2e-05	-0.00012	-3e-05	2e-05	-6e-05	-0.0003	-7e-05	-9e-05	3
12049	-2e-05	-0.00012	-3e-05	2e-05	-6e-05	-0.0003	-7e-05	-9e-05	3
12050	-2e-05	-0.00012	-3e-05	2e-05	-6e-05	-0.0003	-7e-05	-9e-05	3
12051	-2e-05	-0.00012	-3e-05	2e-05	-6e-05	-0.0003	-7e-05	-9e-05	3
12052	-2e-05	-0.00012	-3e-05	2e-05	-6e-05	-0.0003	-7e-05	-9e-05	3
12053	-2e-05	-0.00012	-3e-05	2e-05	-6e-05	-0.0003	-7e-05	-9e-05	3
12054	-2e-05	-0.00012	-3e-05	2e-05	-6e-05	-0.0003	-7e-05	-9e-05	3
12055	-2e-05	-0.00012	-3e-05	2e-05	-6e-05	-0.0003	-7e-05	-9e-05	3
12056	-2e-05	-0.00012	-3e-05	2e-05	-6e-05	-0.0003	-7e-05	-9e-05	3
12057	-2e-05	-0.00012	-3e-05	2e-05	-6e-05	-0.0003	-7e-05	-9e-05	3
12058	-2e-05	-0.00012	-3e-05	2e-05	-6e-05	-0.0003	-7e-05	-9e-05	3
12059	-2e-05	-0.00012	-3e-05	2e-05	-6e-05	-0.0003	-7e-05	-9e-05	3
12060	-2e-05	-0.00012	-3e-05	2e-05	-6e-05	-0.0003	-7e-05	-9e-05	3
12061	-2e-05	-0.00012	-3e-05	2e-05	-6e-05	-0.0003	-7e-05	-9e-05	3
12062	-2e-05	-0.00012	-3e-05	2e-05	-6e-05	-0.0003	-7e-05	-9e-05	3
12063	-2e-05	-0.00012	-3e-05	2e-05	-6e-05	-0.0003	-7e-05	-9e-05	3
12064	-2e-05	-0.00012	-3e-05	2e-05	-6e-05	-0.0003	-7e-05	-9e-05	3
12065	-2e-05	-0.00012	-3e-05	2e-05	-6e-05	-0.0003	-7e-05	-9e-05	3
12066	-2e-05	-0.00012	-3e-05	2e-05	-6e-05	-0.0003	-7e-05	-9e-05	3
12067	-0.00018	8e-05	0.00023	0.00015	0.0009	0.00033	1e-05	7e-05	3
12068	-0.00018	8e-05	0.00023	0.00015	0.0009	0.00033	1e-05	7e-05	3
12069	0.00031	-7e-05	-0.0001	-2e-05	0.00028	-8e-05	-5e-05	7e-05	3
12070	0.00031	-7e-05	-0.0001	-2e-05	0.00028	-8e-05	-5e-05	7e-05	3
12071	0.00031	-7e-05	-0.0001	-2e-05	0.00028	-8e-05	-5e-05	7e-05	3
12072	0.00031	-7e-05	-0.0001	-2e-05	0.00028	-8e-05	-5e-05	7e-05	3
12073	0.00031	-7e-05	-0.0001	-2e-05	0.00028	-8e-05	-5e-05	7e-05	3
12074	0.00031	-7e-05	-0.0001	-2e-05	0.00028	-8e-05	-5e-05	7e-05	3
12075	0.00031	-7e-05	-0.0001	-2e-05	0.00028	-8e-05	-5e-05	7e-05	3
12076	0.00031	-7e-05	-0.0001	-2e-05	0.00028	-8e-05	-5e-05	7e-05	3
12077	0.00031	-7e-05	-0.0001	-2e-05	0.00028	-8e-05	-5e-05	7e-05	3
12078	0.00031	-7e-05	-0.0001	-2e-05	0.00028	-8e-05	-5e-05	7e-05	3
12079	0.00031	-7e-05	-0.0001	-2e-05	0.00028	-8e-05	-5e-05	7e-05	3
12080	0.00031	-7e-05	-0.0001	-2e-05	0.00028	-8e-05	-5e-05	7e-05	3
12081	-2e-05	-4e-05	2e-05	4e-05	-0.00027	-6e-05	-1e-05	4e-05	3
12082	-2e-05	-4e-05	2e-05	4e-05	-0.00027	-6e-05	-1e-05	4e-05	3
12083	-2e-05	-4e-05	2e-05	4e-05	-0.00027	-6e-05	-1e-05	4e-05	3
12084	-2e-05	-4e-05	2e-05	4e-05	-0.00027	-6e-05	-1e-05	4e-05	3
12085	-2e-05	-4e-05	2e-05	4e-05	-0.00027	-6e-05	-1e-05	4e-05	3
12087	-2e-05	-4e-05	2e-05	4e-05	-0.00027	-6e-05	-1e-05	4e-05	3
12089	-2e-05	-4e-05	2e-05	4e-05	-0.00027	-6e-05	-1e-05	4e-05	3
12090	-0.00015	5e-05	7e-05	-9e-05	-0.00041	0	-1e-05	5e-05	3
12091	-0.00015	5e-05	7e-05	-9e-05	-0.00041	0	-1e-05	5e-05	3
12092	-0.00015	5e-05	7e-05	-9e-05	-0.00041	0	-1e-05	5e-05	3
12093	-0.00015	5e-05	7e-05	-9e-05	-0.00041	0	-1e-05	5e-05	3
12094	-0.00015	5e-05	7e-05	-9e-05	-0.00041	0	-1e-05	5e-05	3
12095	-0.00015	5e-05	7e-05	-9e-05	-0.00041	0	-1e-05	5e-05	3
12096	-0.00015	5e-05	7e-05	-9e-05	-0.00041	0	-1e-05	5e-05	3
12097	-0.00015	5e-05	7e-05	-9e-05	-0.00041	0	-1e-05	5e-05	3
12098	-0.00015	5e-05	7e-05	-9e-05	-0.00041	0	-1e-05	5e-05	3
12099	-0.00015	5e-05	7e-05	-9e-05	-0.00041	0	-1e-05	5e-05	3
12100	-0.00015	5e-05	7e-05	-9e-05	-0.00041	0	-1e-05	5e-05	3
12101	-0.00015	5e-05	7e-05	-9e-05	-0.00041	0	-1e-05	5e-05	3
12102	-0.00015	5e-05	7e-05	-9e-05	-0.00041	0	-1e-05	5e-05	3
12103	-0.00015	5e-05	7e-05	-9e-05	-0.00041	0	-1e-05	5e-05	3
12104	-0.00015	5e-05	7e-05	-9e-05	-0.00041	0	-1e-05	5e-05	3
12105	0.0001	8e-05	1e-05	-2e-05	0.00038	-0.00024	9e-05	5e-05	3
12106	0.0002	-4e-05	-8e-05	7e-05	0.00023	-0.00015	0	6e-05	3
12107	0.0002	-4e-05	-8e-05	7e-05	0.00023	-0.00015	0	6e-05	3
12108	0.0002	-4e-05	-8e-05	7e-05	0.00023	-0.00015	0	6e-05	3
12109	0.0002	-4e-05	-8e-05	7e-05	0.00023	-0.00015	0	6e-05	3
12110	0.0002	-4e-05	-8e-05	7e-05	0.00023	-0.00015	0	6e-05	3
12111	0.0002	-4e-05	-8e-05	7e-05	0.00023	-0.00015	0	6e-05	3
12112	0.0002	-4e-05	-8e-05	7e-05	0.00023	-0.00015	0	6e-05	3
12113	0.0002	-4e-05	-8e-05	7e-05	0.00023	-0.00015	0	6e-05	3
12114	0.0002	-4e-05	-8e-05	7e-05	0.00023	-0.00015	0	6e-05	3
12115	0.0002	-4e-05	-8e-05	7e-05	0.00023	-0.00015	0	6e-05	3
12116	0.0002	-4e-05	-8e-05	7e-05	0.00023	-0.00015	0	6e-05	3
12117	0.0002	-4e-05	-8e-05	7e-05	0.00023	-0.00015	0	6e-05	3
12118	0.0002	-4e-05	-8e-05	7e-05	0.00023	-0.00015	0	6e-05	3
12119	0.0002	-4e-05	-8e-05	7e-05	0.00023	-0.00015	0	6e-05	3
12120	0.0002	-4e-05	-8e-05	7e-05	0.00023	-0.00015	0	6e-05	3
12121	0.0002	-4e-05	-8e-05	7e-05	0.00023	-0.00015	0	6e-05	3
12122	0.0002	-4e-05	-8e-05	7e-05	0.00023	-0.00015	0	6e-05	3
12123	0.0002	-4e-05	-8e-05	7e-05	0.00023	-0.00015	0	6e-05	3
12124	0.0002	-4e-05	-8e-05	7e-05	0.00023	-0.00015	0	6e-05	3
12125	0.0002	-4e-05	-8e-05	7e-05	0.00023	-0.00015	0	6e-05	3
12126	0.0002	-4e-05	-8e-05	7e-05	0.00023	-0.00015	0	6e-05	3
12127	-0.00055	-9e-05	2e-05	-7e-05	-0.00027	-0.00022	-0.00011	-0.00011	3
12128	-0.00055	-9e-05	2e-05	-7e-05	-0.00027	-0.00022	-0.00011	-0.00011	3
12129	0	6e-05	-0.00013	-9e-05	-0.00059	-8e-05	-5e-05	0.00012	3
12130	0	6e-05	-0.00013	-9e-05	-0.00059	-8e-05	-5e-05	0.00012	3
12131	0	6e-05	-0.00013	-9e-05	-0.00059	-8e-05	-5e-05	0.00012	3
12132	0	6e-05	-0.00013	-9e-05	-0.00059	-8e-05	-5e-05	0.00012	3
12133	0	6e-05	-0.00013	-9e-05	-0.00059	-8e-05	-5e-05	0.00012	3
12134	0	6e-05	-0.00013	-9e-05	-0.00059	-8e-05	-5e-05	0.00012	3
12135	0	6e-05	-0.00013	-9e-05	-0.00059	-8e-05	-5e-05	0.00012	3
12137	0	6e-05	-0.00013	-9e-05	-0.00059	-8e-05	-5e-05	0.00012	3
12139	0	6e-05	-0.00013	-9e-05	-0.00059	-8e-05	-5e-05	0.00012	3
12140	0	6e-05	-0.00013	-9e-05	-0.00059	-8e-05	-5e-05	0.00012	3
12141	0.00021	-9e-05	7e-05	3e-05	0.00016	0.00048	-9e-05	-7e-05	3
12142	0.00021	-9e-05	7e-05	3e-05	0.00016	0.00048	-9e-05	-7e-05	3
12143	0.00021	-9e-05	7e-05	3e-05	0.00016	0.00048	-9e-05	-7e-05	3
12144	0.00021	-9e-05	7e-05	3e-05	0.00016	0.00048	-9e-05	-7e-05	3
12145	0.00021	-9e-05	7e-05	3e-05	0.00016	0.00048	-9e-05	-7e-05	3
12146	0.00021	-9e-05	7e-05	3e-05	0.00016	0.00048	-9e-05	-7e-05	3
12147	0.00021	-9e-05	7e-05	3e-05	0.00016	0.00048	-9e-05	-7e-05	3
12148	0.00021	-9e-05	7e-05	3e-05	0.00016	0.00048	-9e-05	-7e-05	3
12149	0.00021	-9e-05	7e-05	3e-05	0.00016	0.00048	-9e-05	-7e-05	3
12150	-9e-05	-3e-05	-5e-05	3e-05	-0.00011	-0.00018	-5e-05	-3e-05	3
12151	-9e-05	-3e-05	-5e-05	3e-05	-0.00011	-0.00018	-5e-05	-3e-05	3
12152	-9e-05	-3e-05	-5e-05	3e-05	-0.00011	-0.00018	-5e-05	-3e-05	3
12153	-9e-05	-3e-05	-5e-05	3e-05	-0.00011	-0.00018	-5e-05	-3e-05	3
12154	-9e-05	-3e-05	-5e-05	3e-05	-0.00011	-0.00018	-5e-05	-3e-05	3
12155	-9e-05	-3e-05	-5e-05	3e-05	-0.00011	-0.00018	-5e-05	-3e-05	3
12156	-9e-05	-3e-05	-5e-05	3e-05	-0.00011	-0.00018	-5e-05	-3e-05	3
12157	-9e-05	-3e-05	-5e-05	3e-05	-0.00011	-0.00018	-5e-05	-3e-05	3
12158	-9e-05	-3e-05	-5e-05	3e-05	-0.00011	-0.00018	-5e-05	-3e-05	3
12159	-9e-05	-3e-05	-5e-05	3e-05	-0.00011	-0.00018	-5e-05	-3e-05	3
12160	-9e-05	-3e-05	-5e-05	3e-05	-0.00011	-0.00018	-5e-05	-3e-05	3
12161	-9e-05	-3e-05	-5e-05	3e-05	-0.00011	-0.00018	-5e-05	-3e-05	3
12162	-9e-05	-3e-05	-5e-05	3e-05	-0.00011	-0.00018	-5e-05	-3e-05	3
12163	-9e-05	-3e-05	-5e-05	3e-05	-0.00011	-0.00018	-5e-05	-3e-05	3
12164	-9e-05	-3e-05	-5e-05	3e-05	-0.00011	-0.00018	-5e-05	-3e-05	3
12165	-4e-05	-0.00012	-1e-05	-5e-05	-0.00011	-8e-05	-1e-05	-5e-05	3
12166	0.00016	0.0001	-1e-05	-6e-05	-0.00022	-6e-05	5e-05	0.00017	3
12167	0.00016	0.0001	-1e-05	-6e-05	-0.00022	-6e-05	5e-05	0.00017	3
12168	0.00016	0.0001	-1e-05	-6e-05	-0.00022	-6e-05	5e-05	0.00017	3
12169	0.00016	0.0001	-1e-05	-6e-05	-0.00022	-6e-05	5e-05	0.00017	3
12170	0.00016	0.0001	-1e-05	-6e-05	-0.00022	-6e-05	5e-05	0.00017	3
12171	0.00016	0.0001	-1e-05	-6e-05	-0.00022	-6e-05	5e-05	0.00017	3
12172	0.00016	0.0001	-1e-05	-6e-05	-0.00022	-6e-05	5e-05	0.00017	3
12173	0.00016	0.0001	-1e-05	-6e-05	-0.00022	-6e-05	5e-05	0.00017	3
12174	0.00016	0.0001	-1e-05	-6e-05	-0.00022	-6e-05	5e-05	0.00017	3
12175	0.00016	0.0001	-1e-05	-6e-05	-0.00022	-6e-05	5e-05	0.00017	3
12176	0.00016	0.0001	-1e-05	-6e-05	-0.00022	-6e-05	5e-05	0.00017	3
12177	0.00016	0.0001	-1e-05	-6e-05	-0.00022	-6e-05	5e-05	0.00017	3
12178	0.00016	0.0001	-1e-05	-6e-05	-0.00022	-6e-05	5e-05	0.00017	3
12179	0.00016	0.0001	-1e-05	-6e-05	-0.00022	-6e-05	5e-05	0.00017	3
12180	0.00016	0.0001	-1e-05	-6e-05	-0.00022	-6e-05	5e-05	0.00017	3
12181	0.00016	0.0001	-1e-05	-6e-05	-0.00022	-6e-05	5e-05	0.00017	3
12182	0.00016	0.0001	-1e-05	-6e-05	-0.00022	-6e-05	5e-05	0.00017	3
12183	0.00016	0.0001	-1e-05	-6e-05	-0.00022	-6e-05	5e-05	0.00017	3
12184	0.00016	0.0001	-1e-05	-6e-05	-0.00022	-6e-05	5e-05	0.00017	3
12185	0.00016	0.0001	-1e-05	-6e-05	-0.00022	-6e-05	5e-05	0.00017	3
12187	0.00021	0.00012	7e-05	5e-05	0.00024	0.00018	-6e-05	-3e-05	3
12189	0.00025	0	-9e-05	-4e-05	-0.00013	-8e-05	0.00011	0.00011	3
12190	0.00025	0	-9e-05	-4e-05	-0.00013	-8e-05	0.00011	0.00011	3
12191	0.00025	0	-9e-05	-4e-05	-0.00013	-8e-05	0.00011	0.00011	3
12192	0.00025	0	-9e-05	-4e-05	-0.00013	-8e-05	0.00011	0.00011	3
12193	0.00025	0	-9e-05	-4e-05	-0.00013	-8e-05	0.00011	0.00011	3
12194	0.00025	0	-9e-05	-4e-05	-0.00013	-8e-05	0.00011	0.00011	3
12195	0.00025	0	-9e-05	-4e-05	-0.00013	-8e-05	0.00011	0.00011	3
12196	0.00025	0	-9e-05	-4e-05	-0.00013	-8e-05	0.00011	0.00011	3
12197	0.00025	0	-9e-05	-4e-05	-0.00013	-8e-05	0.00011	0.00011	3
12198	0.00025	0	-9e-05	-4e-05	-0.00013	-8e-05	0.00011	0.00011	3
12199	0.00025	0	-9e-05	-4e-05	-0.00013	-8e-05	0.00011	0.00011	3
12200	0.00025	0	-9e-05	-4e-05	-0.00013	-8e-05	0.00011	0.00011	3
12201	0.00025	0	-9e-05	-4e-05	-0.00013	-8e-05	0.00011	0.00011	3
12202	0.00025	0	-9e-05	-4e-05	-0.00013	-8e-05	0.00011	0.00011	3
12203	0.00025	0	-9e-05	-4e-05	-0.00013	-8e-05	0.00011	0.00011	3
12204	0.00025	0	-9e-05	-4e-05	-0.00013	-8e-05	0.00011	0.00011	3
12205	0.00025	0	-9e-05	-4e-05	-0.00013	-8e-05	0.00011	0.00011	3
12206	0.00025	0	-9e-05	-4e-05	-0.00013	-8e-05	0.00011	0.00011	3
12207	0.00025	0	-9e-05	-4e-05	-0.00013	-8e-05	0.00011	0.00011	3
12208	0.00025	0	-9e-05	-4e-05	-0.00013	-8e-05	0.00011	0.00011	3
12209	0.00025	0	-9e-05	-4e-05	-0.00013	-8e-05	0.00011	0.00011	3
12210	-8e-05	-2e-05	0	1e-05	-0.00037	-3e-05	2e-05	-4e-05	3
12211	3e-05	2e-05	7e-05	1e-05	0.00102	4e-05	-2e-05	-2e-05	3
12212	3e-05	2e-05	7e-05	1e-05	0.00102	4e-05	-2e-05	-2e-05	3
12213	3e-05	2e-05	7e-05	1e-05	0.00102	4e-05	-2e-05	-2e-05	3
12214	3e-05	2e-05	7e-05	1e-05	0.00102	4e-05	-2e-05	-2e-05	3
12215	3e-05	2e-05	7e-05	1e-05	0.00102	4e-05	-2e-05	-2e-05	3
12216	3e-05	2e-05	7e-05	1e-05	0.00102	4e-05	-2e-05	-2e-05	3
12217	3e-05	2e-05	7e-05	1e-05	0.00102	4e-05	-2e-05	-2e-05	3
12218	3e-05	2e-05	7e-05	1e-05	0.00102	4e-05	-2e-05	-2e-05	3
12219	3e-05	2e-05	7e-05	1e-05	0.00102	4e-05	-2e-05	-2e-05	3
12220	3e-05	2e-05	7e-05	1e-05	0.00102	4e-05	-2e-05	-2e-05	3
12221	3e-05	2e-05	7e-05	1e-05	0.00102	4e-05	-2e-05	-2e-05	3
12222	3e-05	2e-05	7e-05	1e-05	0.00102	4e-05	-2e-05	-2e-05	3
12223	3e-05	2e-05	7e-05	1e-05	0.00102	4e-05	-2e-05	-2e-05	3
12224	3e-05	2e-05	7e-05	1e-05	0.00102	4e-05	-2e-05	-2e-05	3
12225	0.00015	-0.00016	-0.00011	-8e-05	3e-05	-0.00029	-5e-05	0	3
12226	0.00042	3e-05	0.00011	0.00012	-0.00018	-0.00019	-0.00019	-0.00029	3
12227	0.00042	3e-05	0.00011	0.00012	-0.00018	-0.00019	-0.00019	-0.00029	3
12228	0.00042	3e-05	0.00011	0.00012	-0.00018	-0.00019	-0.00019	-0.00029	3
12229	0.00042	3e-05	0.00011	0.00012	-0.00018	-0.00019	-0.00019	-0.00029	3
12230	0.00042	3e-05	0.00011	0.00012	-0.00018	-0.00019	-0.00019	-0.00029	3
12231	0.00042	3e-05	0.00011	0.00012	-0.00018	-0.00019	-0.00019	-0.00029	3
12232	0.00042	3e-05	0.00011	0.00012	-0.00018	-0.00019	-0.00019	-0.00029	3
12233	0.00042	3e-05	0.00011	0.00012	-0.00018	-0.00019	-0.00019	-0.00029	3
12234	0.00042	3e-05	0.00011	0.00012	-0.00018	-0.00019	-0.00019	-0.00029	3
12235	0.00042	3e-05	0.00011	0.00012	-0.00018	-0.00019	-0.00019	-0.00029	3
12237	0.00042	3e-05	0.00011	0.00012	-0.00018	-0.00019	-0.00019	-0.00029	3
12239	0.00042	3e-05	0.00011	0.00012	-0.00018	-0.00019	-0.00019	-0.00029	3
12240	0.00042	3e-05	0.00011	0.00012	-0.00018	-0.00019	-0.00019	-0.00029	3
12241	0.00042	3e-05	0.00011	0.00012	-0.00018	-0.00019	-0.00019	-0.00029	3
12242	0.00042	3e-05	0.00011	0.00012	-0.00018	-0.00019	-0.00019	-0.00029	3
12243	0.00042	3e-05	0.00011	0.00012	-0.00018	-0.00019	-0.00019	-0.00029	3
12244	0.00042	3e-05	0.00011	0.00012	-0.00018	-0.00019	-0.00019	-0.00029	3
12245	0.00042	3e-05	0.00011	0.00012	-0.00018	-0.00019	-0.00019	-0.00029	3
12246	0.00042	3e-05	0.00011	0.00012	-0.00018	-0.00019	-0.00019	-0.00029	3
12247	-0.00021	-1e-05	-1e-05	-5e-05	0.00013	0.00014	3e-05	5e-05	3
12248	-0.00021	-1e-05	-1e-05	-5e-05	0.00013	0.00014	3e-05	5e-05	3
12249	-0.00067	-8e-05	-7e-05	-9e-05	-8e-05	-6e-05	5e-05	-5e-05	3
12250	-0.00067	-8e-05	-7e-05	-9e-05	-8e-05	-6e-05	5e-05	-5e-05	3
12251	-0.00067	-8e-05	-7e-05	-9e-05	-8e-05	-6e-05	5e-05	-5e-05	3
12252	-0.00067	-8e-05	-7e-05	-9e-05	-8e-05	-6e-05	5e-05	-5e-05	3
12253	-0.00067	-8e-05	-7e-05	-9e-05	-8e-05	-6e-05	5e-05	-5e-05	3
12254	-0.00067	-8e-05	-7e-05	-9e-05	-8e-05	-6e-05	5e-05	-5e-05	3
12255	-0.00067	-8e-05	-7e-05	-9e-05	-8e-05	-6e-05	5e-05	-5e-05	3
12256	-0.00067	-8e-05	-7e-05	-9e-05	-8e-05	-6e-05	5e-05	-5e-05	3
12257	-0.00067	-8e-05	-7e-05	-9e-05	-8e-05	-6e-05	5e-05	-5e-05	3
12258	-0.00067	-8e-05	-7e-05	-9e-05	-8e-05	-6e-05	5e-05	-5e-05	3
12259	-0.00067	-8e-05	-7e-05	-9e-05	-8e-05	-6e-05	5e-05	-5e-05	3
12260	-0.00067	-8e-05	-7e-05	-9e-05	-8e-05	-6e-05	5e-05	-5e-05	3
12261	-0.00067	-8e-05	-7e-05	-9e-05	-8e-05	-6e-05	5e-05	-5e-05	3
12262	-0.00067	-8e-05	-7e-05	-9e-05	-8e-05	-6e-05	5e-05	-5e-05	3
12263	-0.00067	-8e-05	-7e-05	-9e-05	-8e-05	-6e-05	5e-05	-5e-05	3
12264	-0.00067	-8e-05	-7e-05	-9e-05	-8e-05	-6e-05	5e-05	-5e-05	3
12265	-0.00067	-8e-05	-7e-05	-9e-05	-8e-05	-6e-05	5e-05	-5e-05	3
12266	-0.00067	-8e-05	-7e-05	-9e-05	-8e-05	-6e-05	5e-05	-5e-05	3
12267	-0.00067	-8e-05	-7e-05	-9e-05	-8e-05	-6e-05	5e-05	-5e-05	3
12269	5e-05	0.0001	6e-05	2e-05	-0.00015	-0.00014	-0.0001	6e-05	3
12270	5e-05	0.0001	6e-05	2e-05	-0.00015	-0.00014	-0.0001	6e-05	3
12271	-2e-05	-4e-05	-1e-05	-1e-05	-0.00046	-0.0002	-0.00011	-2e-05	3
12272	-2e-05	-4e-05	-1e-05	-1e-05	-0.00046	-0.0002	-0.00011	-2e-05	3
12273	-2e-05	-4e-05	-1e-05	-1e-05	-0.00046	-0.0002	-0.00011	-2e-05	3
12274	-2e-05	-4e-05	-1e-05	-1e-05	-0.00046	-0.0002	-0.00011	-2e-05	3
12275	-2e-05	-4e-05	-1e-05	-1e-05	-0.00046	-0.0002	-0.00011	-2e-05	3
12276	-2e-05	-4e-05	-1e-05	-1e-05	-0.00046	-0.0002	-0.00011	-2e-05	3
12277	-2e-05	-4e-05	-1e-05	-1e-05	-0.00046	-0.0002	-0.00011	-2e-05	3
12278	-2e-05	-4e-05	-1e-05	-1e-05	-0.00046	-0.0002	-0.00011	-2e-05	3
12279	-2e-05	-4e-05	-1e-05	-1e-05	-0.00046	-0.0002	-0.00011	-2e-05	3
12280	-2e-05	-4e-05	-1e-05	-1e-05	-0.00046	-0.0002	-0.00011	-2e-05	3
12281	-2e-05	-4e-05	-1e-05	-1e-05	-0.00046	-0.0002	-0.00011	-2e-05	3
12282	-2e-05	-4e-05	-1e-05	-1e-05	-0.00046	-0.0002	-0.00011	-2e-05	3
12283	-2e-05	-4e-05	-1e-05	-1e-05	-0.00046	-0.0002	-0.00011	-2e-05	3
12284	-0.00033	8e-05	-3e-05	-3e-05	9e-05	-0.00012	7e-05	7e-05	3
12285	-0.00033	8e-05	-3e-05	-3e-05	9e-05	-0.00012	7e-05	7e-05	3
12287	-0.00033	8e-05	-3e-05	-3e-05	9e-05	-0.00012	7e-05	7e-05	3
12289	-0.00033	8e-05	-3e-05	-3e-05	9e-05	-0.00012	7e-05	7e-05	3
12290	-0.00033	8e-05	-3e-05	-3e-05	9e-05	-0.00012	7e-05	7e-05	3
12291	-0.00031	-0.00014	-2e-05	-7e-05	-0.00026	-9e-05	-6e-05	-1e-05	3
12292	-0.00031	-0.00014	-2e-05	-7e-05	-0.00026	-9e-05	-6e-05	-1e-05	3
12293	-0.00031	-0.00014	-2e-05	-7e-05	-0.00026	-9e-05	-6e-05	-1e-05	3
12294	-0.00031	-0.00014	-2e-05	-7e-05	-0.00026	-9e-05	-6e-05	-1e-05	3
12295	-0.00031	-0.00014	-2e-05	-7e-05	-0.00026	-9e-05	-6e-05	-1e-05	3
12296	-0.00031	-0.00014	-2e-05	-7e-05	-0.00026	-9e-05	-6e-05	-1e-05	3
12297	-0.00031	-0.00014	-2e-05	-7e-05	-0.00026	-9e-05	-6e-05	-1e-05	3
12298	-0.00031	-0.00014	-2e-05	-7e-05	-0.00026	-9e-05	-6e-05	-1e-05	3
12299	-0.00031	-0.00014	-2e-05	-7e-05	-0.00026	-9e-05	-6e-05	-1e-05	3
12300	-0.00031	-0.00014	-2e-05	-7e-05	-0.00026	-9e-05	-6e-05	-1e-05	3
12301	-0.00031	-0.00014	-2e-05	-7e-05	-0.00026	-9e-05	-6e-05	-1e-05	3
12302	-0.00031	-0.00014	-2e-05	-7e-05	-0.00026	-9e-05	-6e-05	-1e-05	3
12303	-0.00031	-0.00014	-2e-05	-7e-05	-0.00026	-9e-05	-6e-05	-1e-05	3
12304	-0.00031	-0.00014	-2e-05	-7e-05	-0.00026	-9e-05	-6e-05	-1e-05	3
12305	-0.00031	-0.00014	-2e-05	-7e-05	-0.00026	-9e-05	-6e-05	-1e-05	3
12306	-0.00031	-0.00014	-2e-05	-7e-05	-0.00026	-9e-05	-6e-05	-1e-05	3
12307	-0.00047	-6e-05	-6e-05	-6e-05	-0.00022	-0.00026	-7e-05	-1e-05	3
12308	-0.00047	-6e-05	-6e-05	-6e-05	-0.00022	-0.00026	-7e-05	-1e-05	3
12309	0.00021	7e-05	4e-05	3e-05	-9e-05	0.0003	0	-3e-05	3
12310	0.00021	7e-05	4e-05	3e-05	-9e-05	0.0003	0	-3e-05	3
12311	0.00021	7e-05	4e-05	3e-05	-9e-05	0.0003	0	-3e-05	3
12312	0.00021	7e-05	4e-05	3e-05	-9e-05	0.0003	0	-3e-05	3
12313	0.00021	7e-05	4e-05	3e-05	-9e-05	0.0003	0	-3e-05	3
12314	0.00021	7e-05	4e-05	3e-05	-9e-05	0.0003	0	-3e-05	3
12315	0.00021	7e-05	4e-05	3e-05	-9e-05	0.0003	0	-3e-05	3
12316	0.00021	7e-05	4e-05	3e-05	-9e-05	0.0003	0	-3e-05	3
12317	0.00021	7e-05	4e-05	3e-05	-9e-05	0.0003	0	-3e-05	3
12318	0.00021	7e-05	4e-05	3e-05	-9e-05	0.0003	0	-3e-05	3
12319	0.00021	7e-05	4e-05	3e-05	-9e-05	0.0003	0	-3e-05	3
12320	0.00021	7e-05	4e-05	3e-05	-9e-05	0.0003	0	-3e-05	3
12321	0.00021	7e-05	4e-05	3e-05	-9e-05	0.0003	0	-3e-05	3
12322	0.00021	7e-05	4e-05	3e-05	-9e-05	0.0003	0	-3e-05	3
12323	0.00021	7e-05	4e-05	3e-05	-9e-05	0.0003	0	-3e-05	3
12324	0.00021	7e-05	4e-05	3e-05	-9e-05	0.0003	0	-3e-05	3
12325	0.00021	7e-05	4e-05	3e-05	-9e-05	0.0003	0	-3e-05	3
12326	0.00021	7e-05	4e-05	3e-05	-9e-05	0.0003	0	-3e-05	3
12327	0.00021	7e-05	4e-05	3e-05	-9e-05	0.0003	0	-3e-05	3
12328	0.00021	7e-05	4e-05	3e-05	-9e-05	0.0003	0	-3e-05	3
12329	0.00021	7e-05	4e-05	3e-05	-9e-05	0.0003	0	-3e-05	3
12330	-0.00052	-1e-05	-2e-05	-6e-05	-0.00043	5e-05	-4e-05	-0.00013	3
12331	-9e-05	3e-05	6e-05	0	0.00038	0.00018	9e-05	8e-05	3
12332	-9e-05	3e-05	6e-05	0	0.00038	0.00018	9e-05	8e-05	3
12333	-9e-05	3e-05	6e-05	0	0.00038	0.00018	9e-05	8e-05	3
12334	-9e-05	3e-05	6e-05	0	0.00038	0.00018	9e-05	8e-05	3
12335	-9e-05	3e-05	6e-05	0	0.00038	0.00018	9e-05	8e-05	3
12337	-9e-05	3e-05	6e-05	0	0.00038	0.00018	9e-05	8e-05	3
12340	-9e-05	3e-05	6e-05	0	0.00038	0.00018	9e-05	8e-05	3
12341	-9e-05	3e-05	6e-05	0	0.00038	0.00018	9e-05	8e-05	3
12342	-9e-05	3e-05	6e-05	0	0.00038	0.00018	9e-05	8e-05	3
12343	-9e-05	3e-05	6e-05	0	0.00038	0.00018	9e-05	8e-05	3
12344	0.00105	0.00017	1e-05	0.00019	0.00052	0.00043	0.00013	0.00011	3
12345	0.00105	0.00017	1e-05	0.00019	0.00052	0.00043	0.00013	0.00011	3
12346	0.00105	0.00017	1e-05	0.00019	0.00052	0.00043	0.00013	0.00011	3
12347	0.00105	0.00017	1e-05	0.00019	0.00052	0.00043	0.00013	0.00011	3
12348	0.00105	0.00017	1e-05	0.00019	0.00052	0.00043	0.00013	0.00011	3
12349	0.00105	0.00017	1e-05	0.00019	0.00052	0.00043	0.00013	0.00011	3
12350	0.00105	0.00017	1e-05	0.00019	0.00052	0.00043	0.00013	0.00011	3
12351	0.0001	-5e-05	-5e-05	9e-05	0.0001	0.00065	8e-05	7e-05	3
12352	0.0001	-5e-05	-5e-05	9e-05	0.0001	0.00065	8e-05	7e-05	3
12353	0.0001	-5e-05	-5e-05	9e-05	0.0001	0.00065	8e-05	7e-05	3
12354	0.0001	-5e-05	-5e-05	9e-05	0.0001	0.00065	8e-05	7e-05	3
12355	0.0001	-5e-05	-5e-05	9e-05	0.0001	0.00065	8e-05	7e-05	3
12356	0.0001	-5e-05	-5e-05	9e-05	0.0001	0.00065	8e-05	7e-05	3
12357	0.0001	-5e-05	-5e-05	9e-05	0.0001	0.00065	8e-05	7e-05	3
12358	0.0001	-5e-05	-5e-05	9e-05	0.0001	0.00065	8e-05	7e-05	3
12359	0.0001	-5e-05	-5e-05	9e-05	0.0001	0.00065	8e-05	7e-05	3
12360	0.0001	-5e-05	-5e-05	9e-05	0.0001	0.00065	8e-05	7e-05	3
12361	0.0001	-5e-05	-5e-05	9e-05	0.0001	0.00065	8e-05	7e-05	3
12362	0.0001	-5e-05	-5e-05	9e-05	0.0001	0.00065	8e-05	7e-05	3
12363	0.0001	-5e-05	-5e-05	9e-05	0.0001	0.00065	8e-05	7e-05	3
12364	0.0001	-5e-05	-5e-05	9e-05	0.0001	0.00065	8e-05	7e-05	3
12365	0.0001	-5e-05	-5e-05	9e-05	0.0001	0.00065	8e-05	7e-05	3
12366	0.0001	-5e-05	-5e-05	9e-05	0.0001	0.00065	8e-05	7e-05	3
12367	0.00024	0	3e-05	6e-05	0.00046	0.00041	-2e-05	1e-05	3
12368	0.00024	0	3e-05	6e-05	0.00046	0.00041	-2e-05	1e-05	3
12369	0.00012	4e-05	4e-05	5e-05	-0.00012	-0.00033	-0.0001	-6e-05	3
12370	0.00012	4e-05	4e-05	5e-05	-0.00012	-0.00033	-0.0001	-6e-05	3
12371	0.00012	4e-05	4e-05	5e-05	-0.00012	-0.00033	-0.0001	-6e-05	3
12372	0.00012	4e-05	4e-05	5e-05	-0.00012	-0.00033	-0.0001	-6e-05	3
12373	0.00012	4e-05	4e-05	5e-05	-0.00012	-0.00033	-0.0001	-6e-05	3
12374	0.00012	4e-05	4e-05	5e-05	-0.00012	-0.00033	-0.0001	-6e-05	3
12375	0.00012	4e-05	4e-05	5e-05	-0.00012	-0.00033	-0.0001	-6e-05	3
12376	0.00012	4e-05	4e-05	5e-05	-0.00012	-0.00033	-0.0001	-6e-05	3
12377	0.00012	4e-05	4e-05	5e-05	-0.00012	-0.00033	-0.0001	-6e-05	3
12378	0.00012	4e-05	4e-05	5e-05	-0.00012	-0.00033	-0.0001	-6e-05	3
12379	0.00012	4e-05	4e-05	5e-05	-0.00012	-0.00033	-0.0001	-6e-05	3
12380	0.00012	4e-05	4e-05	5e-05	-0.00012	-0.00033	-0.0001	-6e-05	3
12381	0.00012	4e-05	4e-05	5e-05	-0.00012	-0.00033	-0.0001	-6e-05	3
12382	0.00012	4e-05	4e-05	5e-05	-0.00012	-0.00033	-0.0001	-6e-05	3
12383	0.00012	4e-05	4e-05	5e-05	-0.00012	-0.00033	-0.0001	-6e-05	3
12384	0.00012	4e-05	4e-05	5e-05	-0.00012	-0.00033	-0.0001	-6e-05	3
12385	0.00012	4e-05	4e-05	5e-05	-0.00012	-0.00033	-0.0001	-6e-05	3
12387	0.00012	4e-05	4e-05	5e-05	-0.00012	-0.00033	-0.0001	-6e-05	3
12389	0.00012	4e-05	4e-05	5e-05	-0.00012	-0.00033	-0.0001	-6e-05	3
12390	-0.00032	-0.00024	-0.00018	-0.00015	-0.00041	-0.00027	-3e-05	1e-05	3
12391	-0.00019	-2e-05	4e-05	7e-05	0.00016	-7e-05	2e-05	-3e-05	3
12393	-0.00019	-2e-05	4e-05	7e-05	0.00016	-7e-05	2e-05	-3e-05	3
12394	-0.00019	-2e-05	4e-05	7e-05	0.00016	-7e-05	2e-05	-3e-05	3
12395	-0.00019	-2e-05	4e-05	7e-05	0.00016	-7e-05	2e-05	-3e-05	3
12396	-0.00019	-2e-05	4e-05	7e-05	0.00016	-7e-05	2e-05	-3e-05	3
12397	-0.00019	-2e-05	4e-05	7e-05	0.00016	-7e-05	2e-05	-3e-05	3
12398	-0.00019	-2e-05	4e-05	7e-05	0.00016	-7e-05	2e-05	-3e-05	3
12399	-0.00019	-2e-05	4e-05	7e-05	0.00016	-7e-05	2e-05	-3e-05	3
12400	-0.00019	-2e-05	4e-05	7e-05	0.00016	-7e-05	2e-05	-3e-05	3
12401	-0.00019	-2e-05	4e-05	7e-05	0.00016	-7e-05	2e-05	-3e-05	3
12402	-0.00019	-2e-05	4e-05	7e-05	0.00016	-7e-05	2e-05	-3e-05	3
12403	-0.00019	-2e-05	4e-05	7e-05	0.00016	-7e-05	2e-05	-3e-05	3
12404	5e-05	8e-05	0.00015	-4e-05	-0.00012	-0.00019	-6e-05	0	3
12405	5e-05	8e-05	0.00015	-4e-05	-0.00012	-0.00019	-6e-05	0	3
12406	5e-05	8e-05	0.00015	-4e-05	-0.00012	-0.00019	-6e-05	0	3
12407	5e-05	8e-05	0.00015	-4e-05	-0.00012	-0.00019	-6e-05	0	3
12408	5e-05	8e-05	0.00015	-4e-05	-0.00012	-0.00019	-6e-05	0	3
12409	5e-05	8e-05	0.00015	-4e-05	-0.00012	-0.00019	-6e-05	0	3
12410	5e-05	8e-05	0.00015	-4e-05	-0.00012	-0.00019	-6e-05	0	3
12411	-7e-05	-0.00013	-3e-05	-4e-05	-5e-05	-0.0001	-2e-05	-0.00017	3
12412	-7e-05	-0.00013	-3e-05	-4e-05	-5e-05	-0.0001	-2e-05	-0.00017	3
12413	-7e-05	-0.00013	-3e-05	-4e-05	-5e-05	-0.0001	-2e-05	-0.00017	3
12414	-7e-05	-0.00013	-3e-05	-4e-05	-5e-05	-0.0001	-2e-05	-0.00017	3
12415	-7e-05	-0.00013	-3e-05	-4e-05	-5e-05	-0.0001	-2e-05	-0.00017	3
12416	-7e-05	-0.00013	-3e-05	-4e-05	-5e-05	-0.0001	-2e-05	-0.00017	3
12417	-7e-05	-0.00013	-3e-05	-4e-05	-5e-05	-0.0001	-2e-05	-0.00017	3
12418	-7e-05	-0.00013	-3e-05	-4e-05	-5e-05	-0.0001	-2e-05	-0.00017	3
12419	-7e-05	-0.00013	-3e-05	-4e-05	-5e-05	-0.0001	-2e-05	-0.00017	3
12420	-7e-05	-0.00013	-3e-05	-4e-05	-5e-05	-0.0001	-2e-05	-0.00017	3
12421	-7e-05	-0.00013	-3e-05	-4e-05	-5e-05	-0.0001	-2e-05	-0.00017	3
12422	-7e-05	-0.00013	-3e-05	-4e-05	-5e-05	-0.0001	-2e-05	-0.00017	3
12423	-7e-05	-0.00013	-3e-05	-4e-05	-5e-05	-0.0001	-2e-05	-0.00017	3
12424	-7e-05	-0.00013	-3e-05	-4e-05	-5e-05	-0.0001	-2e-05	-0.00017	3
12425	-7e-05	-0.00013	-3e-05	-4e-05	-5e-05	-0.0001	-2e-05	-0.00017	3
12426	-7e-05	-0.00013	-3e-05	-4e-05	-5e-05	-0.0001	-2e-05	-0.00017	3
12427	5e-05	-4e-05	-0.00018	3e-05	0.00016	0.00012	6e-05	3e-05	3
12428	5e-05	-4e-05	-0.00018	3e-05	0.00016	0.00012	6e-05	3e-05	3
12429	0.00036	8e-05	3e-05	7e-05	0.00022	0.0002	4e-05	2e-05	3
12430	0.00036	8e-05	3e-05	7e-05	0.00022	0.0002	4e-05	2e-05	3
12431	0.00036	8e-05	3e-05	7e-05	0.00022	0.0002	4e-05	2e-05	3
12432	0.00036	8e-05	3e-05	7e-05	0.00022	0.0002	4e-05	2e-05	3
12433	0.00036	8e-05	3e-05	7e-05	0.00022	0.0002	4e-05	2e-05	3
12434	0.00036	8e-05	3e-05	7e-05	0.00022	0.0002	4e-05	2e-05	3
12435	0.00036	8e-05	3e-05	7e-05	0.00022	0.0002	4e-05	2e-05	3
12437	0.00036	8e-05	3e-05	7e-05	0.00022	0.0002	4e-05	2e-05	3
12439	0.00036	8e-05	3e-05	7e-05	0.00022	0.0002	4e-05	2e-05	3
12440	0.00036	8e-05	3e-05	7e-05	0.00022	0.0002	4e-05	2e-05	3
12441	0.00036	8e-05	3e-05	7e-05	0.00022	0.0002	4e-05	2e-05	3
12442	0.00036	8e-05	3e-05	7e-05	0.00022	0.0002	4e-05	2e-05	3
12443	0.00036	8e-05	3e-05	7e-05	0.00022	0.0002	4e-05	2e-05	3
12444	0.00036	8e-05	3e-05	7e-05	0.00022	0.0002	4e-05	2e-05	3
12445	0.00036	8e-05	3e-05	7e-05	0.00022	0.0002	4e-05	2e-05	3
12446	0.00036	8e-05	3e-05	7e-05	0.00022	0.0002	4e-05	2e-05	3
12447	0.00036	8e-05	3e-05	7e-05	0.00022	0.0002	4e-05	2e-05	3
12448	0.00036	8e-05	3e-05	7e-05	0.00022	0.0002	4e-05	2e-05	3
12449	0.00036	8e-05	3e-05	7e-05	0.00022	0.0002	4e-05	2e-05	3
12450	-1e-05	-7e-05	3e-05	-4e-05	-3e-05	-9e-05	-1e-05	-4e-05	3
12451	-1e-05	-7e-05	3e-05	-4e-05	-3e-05	-9e-05	-1e-05	-4e-05	3
12452	-2e-05	-2e-05	0	-1e-05	-0.00026	0.00043	0.00017	5e-05	3
12453	-2e-05	-2e-05	0	-1e-05	-0.00026	0.00043	0.00017	5e-05	3
12454	-2e-05	-2e-05	0	-1e-05	-0.00026	0.00043	0.00017	5e-05	3
12455	-2e-05	-2e-05	0	-1e-05	-0.00026	0.00043	0.00017	5e-05	3
12456	-2e-05	-2e-05	0	-1e-05	-0.00026	0.00043	0.00017	5e-05	3
12457	-2e-05	-2e-05	0	-1e-05	-0.00026	0.00043	0.00017	5e-05	3
12458	-2e-05	-2e-05	0	-1e-05	-0.00026	0.00043	0.00017	5e-05	3
12459	-2e-05	-2e-05	0	-1e-05	-0.00026	0.00043	0.00017	5e-05	3
12460	-2e-05	-2e-05	0	-1e-05	-0.00026	0.00043	0.00017	5e-05	3
12461	-2e-05	-2e-05	0	-1e-05	-0.00026	0.00043	0.00017	5e-05	3
12462	-2e-05	-2e-05	0	-1e-05	-0.00026	0.00043	0.00017	5e-05	3
12463	-2e-05	-2e-05	0	-1e-05	-0.00026	0.00043	0.00017	5e-05	3
12464	-1e-05	-1e-05	4e-05	-1e-05	0.00035	3e-05	2e-05	-7e-05	3
12465	-1e-05	-1e-05	4e-05	-1e-05	0.00035	3e-05	2e-05	-7e-05	3
12466	-1e-05	-1e-05	4e-05	-1e-05	0.00035	3e-05	2e-05	-7e-05	3
12467	-1e-05	-1e-05	4e-05	-1e-05	0.00035	3e-05	2e-05	-7e-05	3
12468	-1e-05	-1e-05	4e-05	-1e-05	0.00035	3e-05	2e-05	-7e-05	3
12469	-1e-05	-1e-05	4e-05	-1e-05	0.00035	3e-05	2e-05	-7e-05	3
12470	-1e-05	-1e-05	4e-05	-1e-05	0.00035	3e-05	2e-05	-7e-05	3
12471	-8e-05	8e-05	5e-05	3e-05	8e-05	-6e-05	-2e-05	2e-05	3
12472	-8e-05	8e-05	5e-05	3e-05	8e-05	-6e-05	-2e-05	2e-05	3
12473	-8e-05	8e-05	5e-05	3e-05	8e-05	-6e-05	-2e-05	2e-05	3
12474	-8e-05	8e-05	5e-05	3e-05	8e-05	-6e-05	-2e-05	2e-05	3
12475	-8e-05	8e-05	5e-05	3e-05	8e-05	-6e-05	-2e-05	2e-05	3
12476	-8e-05	8e-05	5e-05	3e-05	8e-05	-6e-05	-2e-05	2e-05	3
12477	-8e-05	8e-05	5e-05	3e-05	8e-05	-6e-05	-2e-05	2e-05	3
12478	-8e-05	8e-05	5e-05	3e-05	8e-05	-6e-05	-2e-05	2e-05	3
12479	-8e-05	8e-05	5e-05	3e-05	8e-05	-6e-05	-2e-05	2e-05	3
12480	-8e-05	8e-05	5e-05	3e-05	8e-05	-6e-05	-2e-05	2e-05	3
12481	-8e-05	8e-05	5e-05	3e-05	8e-05	-6e-05	-2e-05	2e-05	3
12482	-8e-05	8e-05	5e-05	3e-05	8e-05	-6e-05	-2e-05	2e-05	3
12483	-8e-05	8e-05	5e-05	3e-05	8e-05	-6e-05	-2e-05	2e-05	3
12484	-8e-05	8e-05	5e-05	3e-05	8e-05	-6e-05	-2e-05	2e-05	3
12485	-8e-05	8e-05	5e-05	3e-05	8e-05	-6e-05	-2e-05	2e-05	3
12487	7e-05	5e-05	3e-05	-0.0001	-0.00096	-8e-05	3e-05	2e-05	3
12489	8e-05	-6e-05	-0.00013	1e-05	0.00074	0.00047	0.00013	-0.0002	3
12490	8e-05	-6e-05	-0.00013	1e-05	0.00074	0.00047	0.00013	-0.0002	3
12491	8e-05	-6e-05	-0.00013	1e-05	0.00074	0.00047	0.00013	-0.0002	3
12492	8e-05	-6e-05	-0.00013	1e-05	0.00074	0.00047	0.00013	-0.0002	3
12493	8e-05	-6e-05	-0.00013	1e-05	0.00074	0.00047	0.00013	-0.0002	3
12494	8e-05	-6e-05	-0.00013	1e-05	0.00074	0.00047	0.00013	-0.0002	3
12495	8e-05	-6e-05	-0.00013	1e-05	0.00074	0.00047	0.00013	-0.0002	3
12496	8e-05	-6e-05	-0.00013	1e-05	0.00074	0.00047	0.00013	-0.0002	3
12497	8e-05	-6e-05	-0.00013	1e-05	0.00074	0.00047	0.00013	-0.0002	3
12498	8e-05	-6e-05	-0.00013	1e-05	0.00074	0.00047	0.00013	-0.0002	3
12499	8e-05	-6e-05	-0.00013	1e-05	0.00074	0.00047	0.00013	-0.0002	3
12500	8e-05	-6e-05	-0.00013	1e-05	0.00074	0.00047	0.00013	-0.0002	3
12501	8e-05	-6e-05	-0.00013	1e-05	0.00074	0.00047	0.00013	-0.0002	3
12502	8e-05	-6e-05	-0.00013	1e-05	0.00074	0.00047	0.00013	-0.0002	3
12503	8e-05	-6e-05	-0.00013	1e-05	0.00074	0.00047	0.00013	-0.0002	3
12504	8e-05	-6e-05	-0.00013	1e-05	0.00074	0.00047	0.00013	-0.0002	3
12505	8e-05	-6e-05	-0.00013	1e-05	0.00074	0.00047	0.00013	-0.0002	3
12506	8e-05	-6e-05	-0.00013	1e-05	0.00074	0.00047	0.00013	-0.0002	3
12507	8e-05	-6e-05	-0.00013	1e-05	0.00074	0.00047	0.00013	-0.0002	3
12508	8e-05	-6e-05	-0.00013	1e-05	0.00074	0.00047	0.00013	-0.0002	3
12509	8e-05	-6e-05	-0.00013	1e-05	0.00074	0.00047	0.00013	-0.0002	3
12510	-0.00013	-3e-05	9e-05	0.00011	0.00055	0.00023	4e-05	-7e-05	3
12511	-6e-05	-9e-05	-7e-05	-8e-05	-0.00035	-0.00023	-0.0001	-9e-05	3
12512	-6e-05	-9e-05	-7e-05	-8e-05	-0.00035	-0.00023	-0.0001	-9e-05	3
12513	-6e-05	-9e-05	-7e-05	-8e-05	-0.00035	-0.00023	-0.0001	-9e-05	3
12514	-6e-05	-9e-05	-7e-05	-8e-05	-0.00035	-0.00023	-0.0001	-9e-05	3
12515	-6e-05	-9e-05	-7e-05	-8e-05	-0.00035	-0.00023	-0.0001	-9e-05	3
12516	-6e-05	-9e-05	-7e-05	-8e-05	-0.00035	-0.00023	-0.0001	-9e-05	3
12517	-6e-05	-9e-05	-7e-05	-8e-05	-0.00035	-0.00023	-0.0001	-9e-05	3
12518	-6e-05	-9e-05	-7e-05	-8e-05	-0.00035	-0.00023	-0.0001	-9e-05	3
12519	-6e-05	-9e-05	-7e-05	-8e-05	-0.00035	-0.00023	-0.0001	-9e-05	3
12520	-6e-05	-9e-05	-7e-05	-8e-05	-0.00035	-0.00023	-0.0001	-9e-05	3
12521	-6e-05	-9e-05	-7e-05	-8e-05	-0.00035	-0.00023	-0.0001	-9e-05	3
12522	-6e-05	-9e-05	-7e-05	-8e-05	-0.00035	-0.00023	-0.0001	-9e-05	3
12523	-6e-05	-9e-05	-7e-05	-8e-05	-0.00035	-0.00023	-0.0001	-9e-05	3
12524	0.00011	4e-05	-5e-05	0	-0.0002	-0.00019	4e-05	4e-05	3
12525	0.00011	4e-05	-5e-05	0	-0.0002	-0.00019	4e-05	4e-05	3
12526	0.00011	4e-05	-5e-05	0	-0.0002	-0.00019	4e-05	4e-05	3
12527	0.00011	4e-05	-5e-05	0	-0.0002	-0.00019	4e-05	4e-05	3
12528	0.00011	4e-05	-5e-05	0	-0.0002	-0.00019	4e-05	4e-05	3
12529	0.00011	4e-05	-5e-05	0	-0.0002	-0.00019	4e-05	4e-05	3
12530	0.00011	4e-05	-5e-05	0	-0.0002	-0.00019	4e-05	4e-05	3
12531	0.00039	5e-05	4e-05	-8e-05	-0.00027	-0.00014	-2e-05	9e-05	3
12532	0.00039	5e-05	4e-05	-8e-05	-0.00027	-0.00014	-2e-05	9e-05	3
12533	0.00039	5e-05	4e-05	-8e-05	-0.00027	-0.00014	-2e-05	9e-05	3
12534	0.00039	5e-05	4e-05	-8e-05	-0.00027	-0.00014	-2e-05	9e-05	3
12535	0.00039	5e-05	4e-05	-8e-05	-0.00027	-0.00014	-2e-05	9e-05	3
12537	0.00039	5e-05	4e-05	-8e-05	-0.00027	-0.00014	-2e-05	9e-05	3
12539	0.00039	5e-05	4e-05	-8e-05	-0.00027	-0.00014	-2e-05	9e-05	3
12540	0.00039	5e-05	4e-05	-8e-05	-0.00027	-0.00014	-2e-05	9e-05	3
12541	0.00039	5e-05	4e-05	-8e-05	-0.00027	-0.00014	-2e-05	9e-05	3
12542	0.00039	5e-05	4e-05	-8e-05	-0.00027	-0.00014	-2e-05	9e-05	3
12543	0.00039	5e-05	4e-05	-8e-05	-0.00027	-0.00014	-2e-05	9e-05	3
12544	0.00039	5e-05	4e-05	-8e-05	-0.00027	-0.00014	-2e-05	9e-05	3
12546	0.00039	5e-05	4e-05	-8e-05	-0.00027	-0.00014	-2e-05	9e-05	3
12547	-6e-05	-9e-05	9e-05	-3e-05	-0.0001	-0.00021	-1e-05	-1e-05	3
12548	-6e-05	-9e-05	9e-05	-3e-05	-0.0001	-0.00021	-1e-05	-1e-05	3
12549	-0.00027	6e-05	5e-05	-4e-05	-7e-05	-0.00016	2e-05	3e-05	3
12550	-0.00027	6e-05	5e-05	-4e-05	-7e-05	-0.00016	2e-05	3e-05	3
12551	-0.00027	6e-05	5e-05	-4e-05	-7e-05	-0.00016	2e-05	3e-05	3
12552	-0.00027	6e-05	5e-05	-4e-05	-7e-05	-0.00016	2e-05	3e-05	3
12553	-0.00027	6e-05	5e-05	-4e-05	-7e-05	-0.00016	2e-05	3e-05	3
12554	-0.00027	6e-05	5e-05	-4e-05	-7e-05	-0.00016	2e-05	3e-05	3
12555	-0.00027	6e-05	5e-05	-4e-05	-7e-05	-0.00016	2e-05	3e-05	3
12556	-0.00027	6e-05	5e-05	-4e-05	-7e-05	-0.00016	2e-05	3e-05	3
12557	-0.00027	6e-05	5e-05	-4e-05	-7e-05	-0.00016	2e-05	3e-05	3
12558	-0.00027	6e-05	5e-05	-4e-05	-7e-05	-0.00016	2e-05	3e-05	3
12559	-0.00027	6e-05	5e-05	-4e-05	-7e-05	-0.00016	2e-05	3e-05	3
12560	-0.00027	6e-05	5e-05	-4e-05	-7e-05	-0.00016	2e-05	3e-05	3
12561	-0.00027	6e-05	5e-05	-4e-05	-7e-05	-0.00016	2e-05	3e-05	3
12562	-0.00027	6e-05	5e-05	-4e-05	-7e-05	-0.00016	2e-05	3e-05	3
12563	-0.00027	6e-05	5e-05	-4e-05	-7e-05	-0.00016	2e-05	3e-05	3
12564	-0.00027	6e-05	5e-05	-4e-05	-7e-05	-0.00016	2e-05	3e-05	3
12565	-0.00027	6e-05	5e-05	-4e-05	-7e-05	-0.00016	2e-05	3e-05	3
12566	-0.00027	6e-05	5e-05	-4e-05	-7e-05	-0.00016	2e-05	3e-05	3
12567	-0.00027	6e-05	5e-05	-4e-05	-7e-05	-0.00016	2e-05	3e-05	3
12568	-0.00027	6e-05	5e-05	-4e-05	-7e-05	-0.00016	2e-05	3e-05	3
12569	-0.00027	6e-05	5e-05	-4e-05	-7e-05	-0.00016	2e-05	3e-05	3
12570	2e-05	-6e-05	-5e-05	0	0.00039	-0.00014	-0.00013	-8e-05	3
12571	-9e-05	-7e-05	-4e-05	-1e-05	0.00034	5e-05	-0.00014	-6e-05	3
12572	-9e-05	-7e-05	-4e-05	-1e-05	0.00034	5e-05	-0.00014	-6e-05	3
12573	-9e-05	-7e-05	-4e-05	-1e-05	0.00034	5e-05	-0.00014	-6e-05	3
12574	-9e-05	-7e-05	-4e-05	-1e-05	0.00034	5e-05	-0.00014	-6e-05	3
12575	-9e-05	-7e-05	-4e-05	-1e-05	0.00034	5e-05	-0.00014	-6e-05	3
12576	-9e-05	-7e-05	-4e-05	-1e-05	0.00034	5e-05	-0.00014	-6e-05	3
12577	-9e-05	-7e-05	-4e-05	-1e-05	0.00034	5e-05	-0.00014	-6e-05	3
12578	-9e-05	-7e-05	-4e-05	-1e-05	0.00034	5e-05	-0.00014	-6e-05	3
12579	-9e-05	-7e-05	-4e-05	-1e-05	0.00034	5e-05	-0.00014	-6e-05	3
12580	-9e-05	-7e-05	-4e-05	-1e-05	0.00034	5e-05	-0.00014	-6e-05	3
12581	-9e-05	-7e-05	-4e-05	-1e-05	0.00034	5e-05	-0.00014	-6e-05	3
12582	-9e-05	-7e-05	-4e-05	-1e-05	0.00034	5e-05	-0.00014	-6e-05	3
12583	-9e-05	-7e-05	-4e-05	-1e-05	0.00034	5e-05	-0.00014	-6e-05	3
12584	-5e-05	3e-05	0	-4e-05	-0.00022	0.00014	-6e-05	4e-05	3
12585	-5e-05	3e-05	0	-4e-05	-0.00022	0.00014	-6e-05	4e-05	3
12587	-5e-05	3e-05	0	-4e-05	-0.00022	0.00014	-6e-05	4e-05	3
12589	-5e-05	3e-05	0	-4e-05	-0.00022	0.00014	-6e-05	4e-05	3
12590	-0.00071	-8e-05	-5e-05	-1e-05	-0.00035	-9e-05	-6e-05	3e-05	3
12591	-0.00071	-8e-05	-5e-05	-1e-05	-0.00035	-9e-05	-6e-05	3e-05	3
12592	-0.00071	-8e-05	-5e-05	-1e-05	-0.00035	-9e-05	-6e-05	3e-05	3
12593	-0.00071	-8e-05	-5e-05	-1e-05	-0.00035	-9e-05	-6e-05	3e-05	3
12594	-0.00071	-8e-05	-5e-05	-1e-05	-0.00035	-9e-05	-6e-05	3e-05	3
12595	-0.00071	-8e-05	-5e-05	-1e-05	-0.00035	-9e-05	-6e-05	3e-05	3
12596	-0.00071	-8e-05	-5e-05	-1e-05	-0.00035	-9e-05	-6e-05	3e-05	3
12597	-0.00071	-8e-05	-5e-05	-1e-05	-0.00035	-9e-05	-6e-05	3e-05	3
12598	-0.00071	-8e-05	-5e-05	-1e-05	-0.00035	-9e-05	-6e-05	3e-05	3
12599	-0.00071	-8e-05	-5e-05	-1e-05	-0.00035	-9e-05	-6e-05	3e-05	3
12600	-0.00071	-8e-05	-5e-05	-1e-05	-0.00035	-9e-05	-6e-05	3e-05	3
12601	-0.00071	-8e-05	-5e-05	-1e-05	-0.00035	-9e-05	-6e-05	3e-05	3
12602	-0.00071	-8e-05	-5e-05	-1e-05	-0.00035	-9e-05	-6e-05	3e-05	3
12603	-0.00071	-8e-05	-5e-05	-1e-05	-0.00035	-9e-05	-6e-05	3e-05	3
12604	-0.00071	-8e-05	-5e-05	-1e-05	-0.00035	-9e-05	-6e-05	3e-05	3
12605	-0.00071	-8e-05	-5e-05	-1e-05	-0.00035	-9e-05	-6e-05	3e-05	3
12606	-0.00071	-8e-05	-5e-05	-1e-05	-0.00035	-9e-05	-6e-05	3e-05	3
12607	0.00056	2e-05	-9e-05	-0.00012	-0.0006	-0.00042	6e-05	4e-05	3
12608	0.00056	2e-05	-9e-05	-0.00012	-0.0006	-0.00042	6e-05	4e-05	3
12609	0.00011	-1e-05	-1e-05	-0.00013	-0.00026	-0.00047	-3e-05	3e-05	3
12610	0.00011	-1e-05	-1e-05	-0.00013	-0.00026	-0.00047	-3e-05	3e-05	3
12611	0.00011	-1e-05	-1e-05	-0.00013	-0.00026	-0.00047	-3e-05	3e-05	3
12612	0.00011	-1e-05	-1e-05	-0.00013	-0.00026	-0.00047	-3e-05	3e-05	3
12613	0.00011	-1e-05	-1e-05	-0.00013	-0.00026	-0.00047	-3e-05	3e-05	3
12614	0.00011	-1e-05	-1e-05	-0.00013	-0.00026	-0.00047	-3e-05	3e-05	3
12615	0.00011	-1e-05	-1e-05	-0.00013	-0.00026	-0.00047	-3e-05	3e-05	3
12616	0.00011	-1e-05	-1e-05	-0.00013	-0.00026	-0.00047	-3e-05	3e-05	3
12617	0.00011	-1e-05	-1e-05	-0.00013	-0.00026	-0.00047	-3e-05	3e-05	3
12618	0.00011	-1e-05	-1e-05	-0.00013	-0.00026	-0.00047	-3e-05	3e-05	3
12619	0.00011	-1e-05	-1e-05	-0.00013	-0.00026	-0.00047	-3e-05	3e-05	3
12620	0.00011	-1e-05	-1e-05	-0.00013	-0.00026	-0.00047	-3e-05	3e-05	3
12621	0.00011	-1e-05	-1e-05	-0.00013	-0.00026	-0.00047	-3e-05	3e-05	3
12622	0.00011	-1e-05	-1e-05	-0.00013	-0.00026	-0.00047	-3e-05	3e-05	3
12623	0.00011	-1e-05	-1e-05	-0.00013	-0.00026	-0.00047	-3e-05	3e-05	3
12624	0.00011	-1e-05	-1e-05	-0.00013	-0.00026	-0.00047	-3e-05	3e-05	3
12625	0.00011	-1e-05	-1e-05	-0.00013	-0.00026	-0.00047	-3e-05	3e-05	3
12626	0.00011	-1e-05	-1e-05	-0.00013	-0.00026	-0.00047	-3e-05	3e-05	3
12627	0.00011	-1e-05	-1e-05	-0.00013	-0.00026	-0.00047	-3e-05	3e-05	3
12628	0.00011	-1e-05	-1e-05	-0.00013	-0.00026	-0.00047	-3e-05	3e-05	3
12629	0.00011	-1e-05	-1e-05	-0.00013	-0.00026	-0.00047	-3e-05	3e-05	3
12630	-1e-05	-8e-05	-4e-05	-2e-05	0.00023	4e-05	-6e-05	-2e-05	3
12631	0.00015	-5e-05	-3e-05	0.0001	-0.00019	0.00011	3e-05	6e-05	3
12632	0.00015	-5e-05	-3e-05	0.0001	-0.00019	0.00011	3e-05	6e-05	3
12633	0.00015	-5e-05	-3e-05	0.0001	-0.00019	0.00011	3e-05	6e-05	3
12634	0.00015	-5e-05	-3e-05	0.0001	-0.00019	0.00011	3e-05	6e-05	3
12635	0.00015	-5e-05	-3e-05	0.0001	-0.00019	0.00011	3e-05	6e-05	3
12637	0.00015	-5e-05	-3e-05	0.0001	-0.00019	0.00011	3e-05	6e-05	3
12639	0.00015	-5e-05	-3e-05	0.0001	-0.00019	0.00011	3e-05	6e-05	3
12640	0.00015	-5e-05	-3e-05	0.0001	-0.00019	0.00011	3e-05	6e-05	3
12641	0.00015	-5e-05	-3e-05	0.0001	-0.00019	0.00011	3e-05	6e-05	3
12642	0.00015	-5e-05	-3e-05	0.0001	-0.00019	0.00011	3e-05	6e-05	3
12643	0.00015	-5e-05	-3e-05	0.0001	-0.00019	0.00011	3e-05	6e-05	3
12644	-6e-05	5e-05	-2e-05	-7e-05	5e-05	-0.00014	-3e-05	-8e-05	3
12645	-6e-05	5e-05	-2e-05	-7e-05	5e-05	-0.00014	-3e-05	-8e-05	3
12646	-6e-05	5e-05	-2e-05	-7e-05	5e-05	-0.00014	-3e-05	-8e-05	3
12647	-6e-05	5e-05	-2e-05	-7e-05	5e-05	-0.00014	-3e-05	-8e-05	3
12648	-6e-05	5e-05	-2e-05	-7e-05	5e-05	-0.00014	-3e-05	-8e-05	3
12649	-6e-05	5e-05	-2e-05	-7e-05	5e-05	-0.00014	-3e-05	-8e-05	3
12650	-6e-05	5e-05	-2e-05	-7e-05	5e-05	-0.00014	-3e-05	-8e-05	3
12651	-5e-05	-5e-05	-2e-05	0.00011	0.00042	0.00028	0	0	3
12652	-5e-05	-5e-05	-2e-05	0.00011	0.00042	0.00028	0	0	3
12653	-5e-05	-5e-05	-2e-05	0.00011	0.00042	0.00028	0	0	3
12654	-5e-05	-5e-05	-2e-05	0.00011	0.00042	0.00028	0	0	3
12655	-5e-05	-5e-05	-2e-05	0.00011	0.00042	0.00028	0	0	3
12656	-5e-05	-5e-05	-2e-05	0.00011	0.00042	0.00028	0	0	3
12657	-5e-05	-5e-05	-2e-05	0.00011	0.00042	0.00028	0	0	3
12658	-5e-05	-5e-05	-2e-05	0.00011	0.00042	0.00028	0	0	3
12659	-5e-05	-5e-05	-2e-05	0.00011	0.00042	0.00028	0	0	3
12660	-5e-05	-5e-05	-2e-05	0.00011	0.00042	0.00028	0	0	3
12661	-5e-05	-5e-05	-2e-05	0.00011	0.00042	0.00028	0	0	3
12662	-5e-05	-5e-05	-2e-05	0.00011	0.00042	0.00028	0	0	3
12663	-5e-05	-5e-05	-2e-05	0.00011	0.00042	0.00028	0	0	3
12664	-5e-05	-5e-05	-2e-05	0.00011	0.00042	0.00028	0	0	3
12665	-5e-05	-5e-05	-2e-05	0.00011	0.00042	0.00028	0	0	3
12666	-5e-05	-5e-05	-2e-05	0.00011	0.00042	0.00028	0	0	3
12667	-0.00017	0	-2e-05	5e-05	0.0001	7e-05	-4e-05	9e-05	3
12668	-0.00017	0	-2e-05	5e-05	0.0001	7e-05	-4e-05	9e-05	3
12669	0.0001	-2e-05	-3e-05	-9e-05	-0.00046	-0.00037	2e-05	-1e-05	3
12670	0.0001	-2e-05	-3e-05	-9e-05	-0.00046	-0.00037	2e-05	-1e-05	3
12671	0.0001	-2e-05	-3e-05	-9e-05	-0.00046	-0.00037	2e-05	-1e-05	3
12672	0.0001	-2e-05	-3e-05	-9e-05	-0.00046	-0.00037	2e-05	-1e-05	3
12673	0.0001	-2e-05	-3e-05	-9e-05	-0.00046	-0.00037	2e-05	-1e-05	3
12674	0.0001	-2e-05	-3e-05	-9e-05	-0.00046	-0.00037	2e-05	-1e-05	3
12675	0.0001	-2e-05	-3e-05	-9e-05	-0.00046	-0.00037	2e-05	-1e-05	3
12676	0.0001	-2e-05	-3e-05	-9e-05	-0.00046	-0.00037	2e-05	-1e-05	3
12677	0.0001	-2e-05	-3e-05	-9e-05	-0.00046	-0.00037	2e-05	-1e-05	3
12678	0.0001	-2e-05	-3e-05	-9e-05	-0.00046	-0.00037	2e-05	-1e-05	3
12679	0.0001	-2e-05	-3e-05	-9e-05	-0.00046	-0.00037	2e-05	-1e-05	3
12680	0.0001	-2e-05	-3e-05	-9e-05	-0.00046	-0.00037	2e-05	-1e-05	3
12681	0.0001	-2e-05	-3e-05	-9e-05	-0.00046	-0.00037	2e-05	-1e-05	3
12682	0.0001	-2e-05	-3e-05	-9e-05	-0.00046	-0.00037	2e-05	-1e-05	3
12683	0.0001	-2e-05	-3e-05	-9e-05	-0.00046	-0.00037	2e-05	-1e-05	3
12684	0.0001	-2e-05	-3e-05	-9e-05	-0.00046	-0.00037	2e-05	-1e-05	3
12685	0.0001	-2e-05	-3e-05	-9e-05	-0.00046	-0.00037	2e-05	-1e-05	3
12687	0.0001	-2e-05	-3e-05	-9e-05	-0.00046	-0.00037	2e-05	-1e-05	3
12689	0.0001	-2e-05	-3e-05	-9e-05	-0.00046	-0.00037	2e-05	-1e-05	3
12690	-0.0002	0.0001	0.0001	1e-05	0	0.00031	0	-3e-05	3
12691	-0.00013	9e-05	-1e-05	-9e-05	0.0002	-6e-05	-0.00011	0	3
12693	-0.00013	9e-05	-1e-05	-9e-05	0.0002	-6e-05	-0.00011	0	3
12694	-0.00013	9e-05	-1e-05	-9e-05	0.0002	-6e-05	-0.00011	0	3
12695	-0.00013	9e-05	-1e-05	-9e-05	0.0002	-6e-05	-0.00011	0	3
12697	-0.00013	9e-05	-1e-05	-9e-05	0.0002	-6e-05	-0.00011	0	3
12698	-0.00013	9e-05	-1e-05	-9e-05	0.0002	-6e-05	-0.00011	0	3
12699	-0.00013	9e-05	-1e-05	-9e-05	0.0002	-6e-05	-0.00011	0	3
12700	-0.00013	9e-05	-1e-05	-9e-05	0.0002	-6e-05	-0.00011	0	3
12701	-0.00013	9e-05	-1e-05	-9e-05	0.0002	-6e-05	-0.00011	0	3
12702	-0.00013	9e-05	-1e-05	-9e-05	0.0002	-6e-05	-0.00011	0	3
12703	0.00012	3e-05	8e-05	6e-05	-0.00047	-1e-05	0	7e-05	3
12704	0.00012	3e-05	8e-05	6e-05	-0.00047	-1e-05	0	7e-05	3
12705	0.00012	3e-05	8e-05	6e-05	-0.00047	-1e-05	0	7e-05	3
12706	0.00012	3e-05	8e-05	6e-05	-0.00047	-1e-05	0	7e-05	3
12707	0.00012	3e-05	8e-05	6e-05	-0.00047	-1e-05	0	7e-05	3
12708	0.00012	3e-05	8e-05	6e-05	-0.00047	-1e-05	0	7e-05	3
12709	0.00012	3e-05	8e-05	6e-05	-0.00047	-1e-05	0	7e-05	3
12710	0.00012	3e-05	8e-05	6e-05	-0.00047	-1e-05	0	7e-05	3
12711	0.00012	3e-05	8e-05	6e-05	-0.00047	-1e-05	0	7e-05	3
12712	7e-05	2e-05	-8e-05	-3e-05	-0.00031	0.00034	7e-05	-5e-05	3
12713	7e-05	2e-05	-8e-05	-3e-05	-0.00031	0.00034	7e-05	-5e-05	3
12714	7e-05	2e-05	-8e-05	-3e-05	-0.00031	0.00034	7e-05	-5e-05	3
12715	7e-05	2e-05	-8e-05	-3e-05	-0.00031	0.00034	7e-05	-5e-05	3
12716	7e-05	2e-05	-8e-05	-3e-05	-0.00031	0.00034	7e-05	-5e-05	3
12717	7e-05	2e-05	-8e-05	-3e-05	-0.00031	0.00034	7e-05	-5e-05	3
12718	7e-05	2e-05	-8e-05	-3e-05	-0.00031	0.00034	7e-05	-5e-05	3
12719	7e-05	2e-05	-8e-05	-3e-05	-0.00031	0.00034	7e-05	-5e-05	3
12720	7e-05	2e-05	-8e-05	-3e-05	-0.00031	0.00034	7e-05	-5e-05	3
12721	7e-05	2e-05	-8e-05	-3e-05	-0.00031	0.00034	7e-05	-5e-05	3
12722	7e-05	2e-05	-8e-05	-3e-05	-0.00031	0.00034	7e-05	-5e-05	3
12723	7e-05	2e-05	-8e-05	-3e-05	-0.00031	0.00034	7e-05	-5e-05	3
12724	7e-05	2e-05	-8e-05	-3e-05	-0.00031	0.00034	7e-05	-5e-05	3
12725	7e-05	2e-05	-8e-05	-3e-05	-0.00031	0.00034	7e-05	-5e-05	3
12726	7e-05	2e-05	-8e-05	-3e-05	-0.00031	0.00034	7e-05	-5e-05	3
12727	-4e-05	-3e-05	-5e-05	-4e-05	-8e-05	1e-05	-9e-05	1e-05	3
12728	-4e-05	-3e-05	-5e-05	-4e-05	-8e-05	1e-05	-9e-05	1e-05	3
12729	-0.00058	-1e-05	0	3e-05	-0.00036	-2e-05	0	-2e-05	3
12730	-0.00058	-1e-05	0	3e-05	-0.00036	-2e-05	0	-2e-05	3
12731	-0.00058	-1e-05	0	3e-05	-0.00036	-2e-05	0	-2e-05	3
12732	-0.00058	-1e-05	0	3e-05	-0.00036	-2e-05	0	-2e-05	3
12733	-0.00058	-1e-05	0	3e-05	-0.00036	-2e-05	0	-2e-05	3
12734	-0.00058	-1e-05	0	3e-05	-0.00036	-2e-05	0	-2e-05	3
12735	-0.00058	-1e-05	0	3e-05	-0.00036	-2e-05	0	-2e-05	3
12737	-0.00058	-1e-05	0	3e-05	-0.00036	-2e-05	0	-2e-05	3
12739	-0.00058	-1e-05	0	3e-05	-0.00036	-2e-05	0	-2e-05	3
12740	-0.00058	-1e-05	0	3e-05	-0.00036	-2e-05	0	-2e-05	3
12741	-0.00058	-1e-05	0	3e-05	-0.00036	-2e-05	0	-2e-05	3
12742	-0.00058	-1e-05	0	3e-05	-0.00036	-2e-05	0	-2e-05	3
12743	-0.00058	-1e-05	0	3e-05	-0.00036	-2e-05	0	-2e-05	3
12744	-0.00058	-1e-05	0	3e-05	-0.00036	-2e-05	0	-2e-05	3
12745	-0.00058	-1e-05	0	3e-05	-0.00036	-2e-05	0	-2e-05	3
12746	-0.00058	-1e-05	0	3e-05	-0.00036	-2e-05	0	-2e-05	3
12747	-0.00058	-1e-05	0	3e-05	-0.00036	-2e-05	0	-2e-05	3
12748	-0.00058	-1e-05	0	3e-05	-0.00036	-2e-05	0	-2e-05	3
12749	-0.00058	-1e-05	0	3e-05	-0.00036	-2e-05	0	-2e-05	3
12750	-0.00035	0	-5e-05	7e-05	-0.0001	-0.00041	-0.0001	-9e-05	3
12751	0.00028	0.00015	7e-05	8e-05	0.00056	9e-05	6e-05	0.00023	3
12753	0.00028	0.00015	7e-05	8e-05	0.00056	9e-05	6e-05	0.00023	3
12754	0.00028	0.00015	7e-05	8e-05	0.00056	9e-05	6e-05	0.00023	3
12755	0.00028	0.00015	7e-05	8e-05	0.00056	9e-05	6e-05	0.00023	3
12756	0.00028	0.00015	7e-05	8e-05	0.00056	9e-05	6e-05	0.00023	3
12757	0.00028	0.00015	7e-05	8e-05	0.00056	9e-05	6e-05	0.00023	3
12758	0.00028	0.00015	7e-05	8e-05	0.00056	9e-05	6e-05	0.00023	3
12759	0.00028	0.00015	7e-05	8e-05	0.00056	9e-05	6e-05	0.00023	3
12760	0.00028	0.00015	7e-05	8e-05	0.00056	9e-05	6e-05	0.00023	3
12761	0.00028	0.00015	7e-05	8e-05	0.00056	9e-05	6e-05	0.00023	3
12762	0.00028	0.00015	7e-05	8e-05	0.00056	9e-05	6e-05	0.00023	3
12763	-9e-05	-0.00035	-2e-05	7e-05	0.00041	0.00017	8e-05	-5e-05	3
12764	-9e-05	-0.00035	-2e-05	7e-05	0.00041	0.00017	8e-05	-5e-05	3
12765	-9e-05	-0.00035	-2e-05	7e-05	0.00041	0.00017	8e-05	-5e-05	3
12766	-9e-05	-0.00035	-2e-05	7e-05	0.00041	0.00017	8e-05	-5e-05	3
12767	-9e-05	-0.00035	-2e-05	7e-05	0.00041	0.00017	8e-05	-5e-05	3
12768	-9e-05	-0.00035	-2e-05	7e-05	0.00041	0.00017	8e-05	-5e-05	3
12769	-9e-05	-0.00035	-2e-05	7e-05	0.00041	0.00017	8e-05	-5e-05	3
12770	-9e-05	-0.00035	-2e-05	7e-05	0.00041	0.00017	8e-05	-5e-05	3
12771	-9e-05	-0.00035	-2e-05	7e-05	0.00041	0.00017	8e-05	-5e-05	3
12772	-0.00071	-0.00011	1e-05	-9e-05	-0.00023	-0.00012	-3e-05	-0.00018	3
12773	-0.00071	-0.00011	1e-05	-9e-05	-0.00023	-0.00012	-3e-05	-0.00018	3
12774	-0.00071	-0.00011	1e-05	-9e-05	-0.00023	-0.00012	-3e-05	-0.00018	3
12775	-0.00071	-0.00011	1e-05	-9e-05	-0.00023	-0.00012	-3e-05	-0.00018	3
12776	-0.00071	-0.00011	1e-05	-9e-05	-0.00023	-0.00012	-3e-05	-0.00018	3
12777	-0.00071	-0.00011	1e-05	-9e-05	-0.00023	-0.00012	-3e-05	-0.00018	3
12778	-0.00071	-0.00011	1e-05	-9e-05	-0.00023	-0.00012	-3e-05	-0.00018	3
12779	-0.00071	-0.00011	1e-05	-9e-05	-0.00023	-0.00012	-3e-05	-0.00018	3
12780	-0.00071	-0.00011	1e-05	-9e-05	-0.00023	-0.00012	-3e-05	-0.00018	3
12781	-0.00071	-0.00011	1e-05	-9e-05	-0.00023	-0.00012	-3e-05	-0.00018	3
12782	-0.00071	-0.00011	1e-05	-9e-05	-0.00023	-0.00012	-3e-05	-0.00018	3
12783	-0.00071	-0.00011	1e-05	-9e-05	-0.00023	-0.00012	-3e-05	-0.00018	3
12784	-0.00071	-0.00011	1e-05	-9e-05	-0.00023	-0.00012	-3e-05	-0.00018	3
12785	-0.00071	-0.00011	1e-05	-9e-05	-0.00023	-0.00012	-3e-05	-0.00018	3
12787	-0.00015	6e-05	-6e-05	-0.00021	-0.0004	-0.00033	-4e-05	0	3
12789	0.00025	-0.00011	-8e-05	9e-05	0.00043	3e-05	0	-2e-05	3
12790	0.00025	-0.00011	-8e-05	9e-05	0.00043	3e-05	0	-2e-05	3
12791	0.00025	-0.00011	-8e-05	9e-05	0.00043	3e-05	0	-2e-05	3
12792	0.00025	-0.00011	-8e-05	9e-05	0.00043	3e-05	0	-2e-05	3
12793	0.00025	-0.00011	-8e-05	9e-05	0.00043	3e-05	0	-2e-05	3
12794	0.00025	-0.00011	-8e-05	9e-05	0.00043	3e-05	0	-2e-05	3
12795	0.00025	-0.00011	-8e-05	9e-05	0.00043	3e-05	0	-2e-05	3
12796	0.00025	-0.00011	-8e-05	9e-05	0.00043	3e-05	0	-2e-05	3
12797	0.00025	-0.00011	-8e-05	9e-05	0.00043	3e-05	0	-2e-05	3
12798	0.00025	-0.00011	-8e-05	9e-05	0.00043	3e-05	0	-2e-05	3
12799	0.00025	-0.00011	-8e-05	9e-05	0.00043	3e-05	0	-2e-05	3
12800	0.00025	-0.00011	-8e-05	9e-05	0.00043	3e-05	0	-2e-05	3
12801	0.00025	-0.00011	-8e-05	9e-05	0.00043	3e-05	0	-2e-05	3
12802	0.00025	-0.00011	-8e-05	9e-05	0.00043	3e-05	0	-2e-05	3
12803	0.00025	-0.00011	-8e-05	9e-05	0.00043	3e-05	0	-2e-05	3
12804	0.00025	-0.00011	-8e-05	9e-05	0.00043	3e-05	0	-2e-05	3
12805	0.00025	-0.00011	-8e-05	9e-05	0.00043	3e-05	0	-2e-05	3
12806	0.00025	-0.00011	-8e-05	9e-05	0.00043	3e-05	0	-2e-05	3
12807	0.00025	-0.00011	-8e-05	9e-05	0.00043	3e-05	0	-2e-05	3
12808	0.00025	-0.00011	-8e-05	9e-05	0.00043	3e-05	0	-2e-05	3
12809	0.00025	-0.00011	-8e-05	9e-05	0.00043	3e-05	0	-2e-05	3
12810	9e-05	-1e-05	-2e-05	-8e-05	-0.00028	-0.0001	-2e-05	-4e-05	3
12811	0.00051	6e-05	3e-05	7e-05	0.00013	0.00012	-1e-05	3e-05	3
12812	0.00051	6e-05	3e-05	7e-05	0.00013	0.00012	-1e-05	3e-05	3
12813	0.00051	6e-05	3e-05	7e-05	0.00013	0.00012	-1e-05	3e-05	3
12814	0.00051	6e-05	3e-05	7e-05	0.00013	0.00012	-1e-05	3e-05	3
12815	0.00051	6e-05	3e-05	7e-05	0.00013	0.00012	-1e-05	3e-05	3
12816	0.00051	6e-05	3e-05	7e-05	0.00013	0.00012	-1e-05	3e-05	3
12817	0.00051	6e-05	3e-05	7e-05	0.00013	0.00012	-1e-05	3e-05	3
12818	0.00051	6e-05	3e-05	7e-05	0.00013	0.00012	-1e-05	3e-05	3
12819	0.00051	6e-05	3e-05	7e-05	0.00013	0.00012	-1e-05	3e-05	3
12820	0.00051	6e-05	3e-05	7e-05	0.00013	0.00012	-1e-05	3e-05	3
12821	0.00051	6e-05	3e-05	7e-05	0.00013	0.00012	-1e-05	3e-05	3
12822	0.00051	6e-05	3e-05	7e-05	0.00013	0.00012	-1e-05	3e-05	3
12823	9e-05	3e-05	1e-05	0.00012	0.00049	0.00026	0	0	3
12824	9e-05	3e-05	1e-05	0.00012	0.00049	0.00026	0	0	3
12825	9e-05	3e-05	1e-05	0.00012	0.00049	0.00026	0	0	3
12826	9e-05	3e-05	1e-05	0.00012	0.00049	0.00026	0	0	3
12827	9e-05	3e-05	1e-05	0.00012	0.00049	0.00026	0	0	3
12828	9e-05	3e-05	1e-05	0.00012	0.00049	0.00026	0	0	3
12829	9e-05	3e-05	1e-05	0.00012	0.00049	0.00026	0	0	3
12830	9e-05	3e-05	1e-05	0.00012	0.00049	0.00026	0	0	3
12831	9e-05	3e-05	1e-05	0.00012	0.00049	0.00026	0	0	3
12832	0	6e-05	5e-05	0.00011	0.00075	4e-05	3e-05	4e-05	3
12833	0	6e-05	5e-05	0.00011	0.00075	4e-05	3e-05	4e-05	3
12834	0	6e-05	5e-05	0.00011	0.00075	4e-05	3e-05	4e-05	3
12835	0	6e-05	5e-05	0.00011	0.00075	4e-05	3e-05	4e-05	3
12837	0	6e-05	5e-05	0.00011	0.00075	4e-05	3e-05	4e-05	3
12839	0	6e-05	5e-05	0.00011	0.00075	4e-05	3e-05	4e-05	3
12840	0	6e-05	5e-05	0.00011	0.00075	4e-05	3e-05	4e-05	3
12841	0	6e-05	5e-05	0.00011	0.00075	4e-05	3e-05	4e-05	3
12842	0	6e-05	5e-05	0.00011	0.00075	4e-05	3e-05	4e-05	3
12843	0	6e-05	5e-05	0.00011	0.00075	4e-05	3e-05	4e-05	3
12844	0	6e-05	5e-05	0.00011	0.00075	4e-05	3e-05	4e-05	3
12845	0	6e-05	5e-05	0.00011	0.00075	4e-05	3e-05	4e-05	3
12846	0	6e-05	5e-05	0.00011	0.00075	4e-05	3e-05	4e-05	3
12847	-0.00066	-6e-05	-4e-05	0	4e-05	0.00022	1e-05	-0.00021	3
12848	-0.00066	-6e-05	-4e-05	0	4e-05	0.00022	1e-05	-0.00021	3
12849	-1e-05	-6e-05	-4e-05	-6e-05	-8e-05	0.00013	4e-05	0	3
12850	-1e-05	-6e-05	-4e-05	-6e-05	-8e-05	0.00013	4e-05	0	3
12851	-1e-05	-6e-05	-4e-05	-6e-05	-8e-05	0.00013	4e-05	0	3
12852	-1e-05	-6e-05	-4e-05	-6e-05	-8e-05	0.00013	4e-05	0	3
12853	-1e-05	-6e-05	-4e-05	-6e-05	-8e-05	0.00013	4e-05	0	3
12854	-1e-05	-6e-05	-4e-05	-6e-05	-8e-05	0.00013	4e-05	0	3
12855	-1e-05	-6e-05	-4e-05	-6e-05	-8e-05	0.00013	4e-05	0	3
12856	-1e-05	-6e-05	-4e-05	-6e-05	-8e-05	0.00013	4e-05	0	3
12857	-1e-05	-6e-05	-4e-05	-6e-05	-8e-05	0.00013	4e-05	0	3
12858	-1e-05	-6e-05	-4e-05	-6e-05	-8e-05	0.00013	4e-05	0	3
12859	-1e-05	-6e-05	-4e-05	-6e-05	-8e-05	0.00013	4e-05	0	3
12860	-1e-05	-6e-05	-4e-05	-6e-05	-8e-05	0.00013	4e-05	0	3
12861	-1e-05	-6e-05	-4e-05	-6e-05	-8e-05	0.00013	4e-05	0	3
12862	-1e-05	-6e-05	-4e-05	-6e-05	-8e-05	0.00013	4e-05	0	3
12863	-1e-05	-6e-05	-4e-05	-6e-05	-8e-05	0.00013	4e-05	0	3
12864	-1e-05	-6e-05	-4e-05	-6e-05	-8e-05	0.00013	4e-05	0	3
12865	-1e-05	-6e-05	-4e-05	-6e-05	-8e-05	0.00013	4e-05	0	3
12866	-1e-05	-6e-05	-4e-05	-6e-05	-8e-05	0.00013	4e-05	0	3
12867	-1e-05	-6e-05	-4e-05	-6e-05	-8e-05	0.00013	4e-05	0	3
12868	-1e-05	-6e-05	-4e-05	-6e-05	-8e-05	0.00013	4e-05	0	3
12869	-1e-05	-6e-05	-4e-05	-6e-05	-8e-05	0.00013	4e-05	0	3
12870	-0.00038	1e-05	0.00014	6e-05	6e-05	-3e-05	5e-05	-2e-05	3
12871	2e-05	-0.00015	-9e-05	-0.00015	-0.00046	-0.0003	8e-05	-0.00013	3
12872	2e-05	-0.00015	-9e-05	-0.00015	-0.00046	-0.0003	8e-05	-0.00013	3
12873	2e-05	-0.00015	-9e-05	-0.00015	-0.00046	-0.0003	8e-05	-0.00013	3
12874	2e-05	-0.00015	-9e-05	-0.00015	-0.00046	-0.0003	8e-05	-0.00013	3
12875	2e-05	-0.00015	-9e-05	-0.00015	-0.00046	-0.0003	8e-05	-0.00013	3
12876	2e-05	-0.00015	-9e-05	-0.00015	-0.00046	-0.0003	8e-05	-0.00013	3
12877	2e-05	-0.00015	-9e-05	-0.00015	-0.00046	-0.0003	8e-05	-0.00013	3
12878	2e-05	-0.00015	-9e-05	-0.00015	-0.00046	-0.0003	8e-05	-0.00013	3
12879	2e-05	-0.00015	-9e-05	-0.00015	-0.00046	-0.0003	8e-05	-0.00013	3
12880	2e-05	-0.00015	-9e-05	-0.00015	-0.00046	-0.0003	8e-05	-0.00013	3
12881	2e-05	-0.00015	-9e-05	-0.00015	-0.00046	-0.0003	8e-05	-0.00013	3
12882	2e-05	-0.00015	-9e-05	-0.00015	-0.00046	-0.0003	8e-05	-0.00013	3
12883	0.00084	-5e-05	-5e-05	-5e-05	-0.00044	-9e-05	-2e-05	0.00012	3
12884	0.00084	-5e-05	-5e-05	-5e-05	-0.00044	-9e-05	-2e-05	0.00012	3
12885	0.00084	-5e-05	-5e-05	-5e-05	-0.00044	-9e-05	-2e-05	0.00012	3
12887	0.00084	-5e-05	-5e-05	-5e-05	-0.00044	-9e-05	-2e-05	0.00012	3
12889	0.00084	-5e-05	-5e-05	-5e-05	-0.00044	-9e-05	-2e-05	0.00012	3
12890	0.00084	-5e-05	-5e-05	-5e-05	-0.00044	-9e-05	-2e-05	0.00012	3
12891	0.00084	-5e-05	-5e-05	-5e-05	-0.00044	-9e-05	-2e-05	0.00012	3
12892	3e-05	0.00013	0	1e-05	-0.00027	0.00023	4e-05	-2e-05	3
12893	3e-05	0.00013	0	1e-05	-0.00027	0.00023	4e-05	-2e-05	3
12894	3e-05	0.00013	0	1e-05	-0.00027	0.00023	4e-05	-2e-05	3
12895	3e-05	0.00013	0	1e-05	-0.00027	0.00023	4e-05	-2e-05	3
12896	3e-05	0.00013	0	1e-05	-0.00027	0.00023	4e-05	-2e-05	3
12897	3e-05	0.00013	0	1e-05	-0.00027	0.00023	4e-05	-2e-05	3
12898	3e-05	0.00013	0	1e-05	-0.00027	0.00023	4e-05	-2e-05	3
12899	3e-05	0.00013	0	1e-05	-0.00027	0.00023	4e-05	-2e-05	3
12900	3e-05	0.00013	0	1e-05	-0.00027	0.00023	4e-05	-2e-05	3
12901	3e-05	0.00013	0	1e-05	-0.00027	0.00023	4e-05	-2e-05	3
12902	3e-05	0.00013	0	1e-05	-0.00027	0.00023	4e-05	-2e-05	3
12903	3e-05	0.00013	0	1e-05	-0.00027	0.00023	4e-05	-2e-05	3
12904	3e-05	0.00013	0	1e-05	-0.00027	0.00023	4e-05	-2e-05	3
12905	3e-05	0.00013	0	1e-05	-0.00027	0.00023	4e-05	-2e-05	3
12906	3e-05	0.00013	0	1e-05	-0.00027	0.00023	4e-05	-2e-05	3
12907	0.00019	7e-05	-1e-05	-7e-05	-1e-05	-0.0002	9e-05	3e-05	3
12908	0.00019	7e-05	-1e-05	-7e-05	-1e-05	-0.0002	9e-05	3e-05	3
12909	-0.0002	0	-2e-05	0	0.00025	2e-05	-0.00012	-1e-05	3
12910	-0.0002	0	-2e-05	0	0.00025	2e-05	-0.00012	-1e-05	3
12911	-0.0002	0	-2e-05	0	0.00025	2e-05	-0.00012	-1e-05	3
12912	-0.0002	0	-2e-05	0	0.00025	2e-05	-0.00012	-1e-05	3
12913	-0.0002	0	-2e-05	0	0.00025	2e-05	-0.00012	-1e-05	3
12914	-0.0002	0	-2e-05	0	0.00025	2e-05	-0.00012	-1e-05	3
12915	-0.0002	0	-2e-05	0	0.00025	2e-05	-0.00012	-1e-05	3
12916	-0.0002	0	-2e-05	0	0.00025	2e-05	-0.00012	-1e-05	3
12917	-0.0002	0	-2e-05	0	0.00025	2e-05	-0.00012	-1e-05	3
12918	-0.0002	0	-2e-05	0	0.00025	2e-05	-0.00012	-1e-05	3
12919	-0.0002	0	-2e-05	0	0.00025	2e-05	-0.00012	-1e-05	3
12920	-0.0002	0	-2e-05	0	0.00025	2e-05	-0.00012	-1e-05	3
12921	-0.0002	0	-2e-05	0	0.00025	2e-05	-0.00012	-1e-05	3
12922	-0.0002	0	-2e-05	0	0.00025	2e-05	-0.00012	-1e-05	3
12923	-0.0002	0	-2e-05	0	0.00025	2e-05	-0.00012	-1e-05	3
12924	-0.0002	0	-2e-05	0	0.00025	2e-05	-0.00012	-1e-05	3
12925	-0.0002	0	-2e-05	0	0.00025	2e-05	-0.00012	-1e-05	3
12926	-0.0002	0	-2e-05	0	0.00025	2e-05	-0.00012	-1e-05	3
12927	-0.0002	0	-2e-05	0	0.00025	2e-05	-0.00012	-1e-05	3
12928	-0.0002	0	-2e-05	0	0.00025	2e-05	-0.00012	-1e-05	3
12929	-0.0002	0	-2e-05	0	0.00025	2e-05	-0.00012	-1e-05	3
12930	9e-05	6e-05	-1e-05	8e-05	-0.00023	-0.00018	1e-05	-1e-05	3
12931	-0.00036	1e-05	8e-05	0.0001	0.00077	0.00013	0.00011	6e-05	3
12932	-0.00036	1e-05	8e-05	0.0001	0.00077	0.00013	0.00011	6e-05	3
12933	-0.00036	1e-05	8e-05	0.0001	0.00077	0.00013	0.00011	6e-05	3
12934	-0.00036	1e-05	8e-05	0.0001	0.00077	0.00013	0.00011	6e-05	3
12935	-0.00036	1e-05	8e-05	0.0001	0.00077	0.00013	0.00011	6e-05	3
12937	-0.00036	1e-05	8e-05	0.0001	0.00077	0.00013	0.00011	6e-05	3
12939	-0.00036	1e-05	8e-05	0.0001	0.00077	0.00013	0.00011	6e-05	3
12940	-0.00036	1e-05	8e-05	0.0001	0.00077	0.00013	0.00011	6e-05	3
12941	-0.00036	1e-05	8e-05	0.0001	0.00077	0.00013	0.00011	6e-05	3
12942	-0.00036	1e-05	8e-05	0.0001	0.00077	0.00013	0.00011	6e-05	3
12943	-5e-05	1e-05	0	-1e-05	-0.00035	-0.00011	-0.00014	-8e-05	3
12944	-0.00022	-6e-05	-5e-05	0	-1e-05	7e-05	9e-05	3e-05	3
12945	-0.00022	-6e-05	-5e-05	0	-1e-05	7e-05	9e-05	3e-05	3
12946	-0.00022	-6e-05	-5e-05	0	-1e-05	7e-05	9e-05	3e-05	3
12947	-0.00022	-6e-05	-5e-05	0	-1e-05	7e-05	9e-05	3e-05	3
12948	-0.00022	-6e-05	-5e-05	0	-1e-05	7e-05	9e-05	3e-05	3
12949	-0.00022	-6e-05	-5e-05	0	-1e-05	7e-05	9e-05	3e-05	3
12950	-0.00022	-6e-05	-5e-05	0	-1e-05	7e-05	9e-05	3e-05	3
12951	-0.00022	-6e-05	-5e-05	0	-1e-05	7e-05	9e-05	3e-05	3
12952	4e-05	-4e-05	-4e-05	-0.0001	-0.00016	-0.00012	-8e-05	-5e-05	3
12953	4e-05	-4e-05	-4e-05	-0.0001	-0.00016	-0.00012	-8e-05	-5e-05	3
12954	4e-05	-4e-05	-4e-05	-0.0001	-0.00016	-0.00012	-8e-05	-5e-05	3
12955	4e-05	-4e-05	-4e-05	-0.0001	-0.00016	-0.00012	-8e-05	-5e-05	3
12956	4e-05	-4e-05	-4e-05	-0.0001	-0.00016	-0.00012	-8e-05	-5e-05	3
12957	4e-05	-4e-05	-4e-05	-0.0001	-0.00016	-0.00012	-8e-05	-5e-05	3
12958	4e-05	-4e-05	-4e-05	-0.0001	-0.00016	-0.00012	-8e-05	-5e-05	3
12959	4e-05	-4e-05	-4e-05	-0.0001	-0.00016	-0.00012	-8e-05	-5e-05	3
12960	4e-05	-4e-05	-4e-05	-0.0001	-0.00016	-0.00012	-8e-05	-5e-05	3
12961	4e-05	-4e-05	-4e-05	-0.0001	-0.00016	-0.00012	-8e-05	-5e-05	3
12962	4e-05	-4e-05	-4e-05	-0.0001	-0.00016	-0.00012	-8e-05	-5e-05	3
12963	4e-05	-4e-05	-4e-05	-0.0001	-0.00016	-0.00012	-8e-05	-5e-05	3
12964	4e-05	-4e-05	-4e-05	-0.0001	-0.00016	-0.00012	-8e-05	-5e-05	3
12965	4e-05	-4e-05	-4e-05	-0.0001	-0.00016	-0.00012	-8e-05	-5e-05	3
12966	4e-05	-4e-05	-4e-05	-0.0001	-0.00016	-0.00012	-8e-05	-5e-05	3
12967	-1e-05	-7e-05	-2e-05	0.00015	0.00028	0.00018	-6e-05	-2e-05	3
12968	-1e-05	-7e-05	-2e-05	0.00015	0.00028	0.00018	-6e-05	-2e-05	3
12969	-0.00022	-6e-05	-9e-05	-0.0001	-0.00059	-0.00032	-0.00019	1e-05	3
12970	-0.00022	-6e-05	-9e-05	-0.0001	-0.00059	-0.00032	-0.00019	1e-05	3
12971	-0.00022	-6e-05	-9e-05	-0.0001	-0.00059	-0.00032	-0.00019	1e-05	3
12972	-0.00022	-6e-05	-9e-05	-0.0001	-0.00059	-0.00032	-0.00019	1e-05	3
12973	-0.00022	-6e-05	-9e-05	-0.0001	-0.00059	-0.00032	-0.00019	1e-05	3
12974	-0.00022	-6e-05	-9e-05	-0.0001	-0.00059	-0.00032	-0.00019	1e-05	3
12975	-0.00022	-6e-05	-9e-05	-0.0001	-0.00059	-0.00032	-0.00019	1e-05	3
12976	-0.00022	-6e-05	-9e-05	-0.0001	-0.00059	-0.00032	-0.00019	1e-05	3
12977	-0.00022	-6e-05	-9e-05	-0.0001	-0.00059	-0.00032	-0.00019	1e-05	3
12978	-0.00022	-6e-05	-9e-05	-0.0001	-0.00059	-0.00032	-0.00019	1e-05	3
12979	-0.00022	-6e-05	-9e-05	-0.0001	-0.00059	-0.00032	-0.00019	1e-05	3
12980	-0.00022	-6e-05	-9e-05	-0.0001	-0.00059	-0.00032	-0.00019	1e-05	3
12981	-0.00022	-6e-05	-9e-05	-0.0001	-0.00059	-0.00032	-0.00019	1e-05	3
12982	-0.00022	-6e-05	-9e-05	-0.0001	-0.00059	-0.00032	-0.00019	1e-05	3
12983	-0.00022	-6e-05	-9e-05	-0.0001	-0.00059	-0.00032	-0.00019	1e-05	3
12984	-0.00022	-6e-05	-9e-05	-0.0001	-0.00059	-0.00032	-0.00019	1e-05	3
12985	-0.00022	-6e-05	-9e-05	-0.0001	-0.00059	-0.00032	-0.00019	1e-05	3
12987	-0.00022	-6e-05	-9e-05	-0.0001	-0.00059	-0.00032	-0.00019	1e-05	3
12989	-0.00022	-6e-05	-9e-05	-0.0001	-0.00059	-0.00032	-0.00019	1e-05	3
12990	0.00057	0.00012	6e-05	3e-05	8e-05	6e-05	0.00012	9e-05	3
12991	0.00024	-5e-05	-5e-05	-2e-05	-0.00023	-0.00022	1e-05	-6e-05	3
12992	0.00024	-5e-05	-5e-05	-2e-05	-0.00023	-0.00022	1e-05	-6e-05	3
12993	0.00024	-5e-05	-5e-05	-2e-05	-0.00023	-0.00022	1e-05	-6e-05	3
12994	0.00024	-5e-05	-5e-05	-2e-05	-0.00023	-0.00022	1e-05	-6e-05	3
12995	0.00024	-5e-05	-5e-05	-2e-05	-0.00023	-0.00022	1e-05	-6e-05	3
12996	0.00024	-5e-05	-5e-05	-2e-05	-0.00023	-0.00022	1e-05	-6e-05	3
12997	0.00024	-5e-05	-5e-05	-2e-05	-0.00023	-0.00022	1e-05	-6e-05	3
12998	0.00024	-5e-05	-5e-05	-2e-05	-0.00023	-0.00022	1e-05	-6e-05	3
12999	0.00024	-5e-05	-5e-05	-2e-05	-0.00023	-0.00022	1e-05	-6e-05	3
13000	0.00024	-5e-05	-5e-05	-2e-05	-0.00023	-0.00022	1e-05	-6e-05	3
13001	0.00024	-5e-05	-5e-05	-2e-05	-0.00023	-0.00022	1e-05	-6e-05	3
13002	0.00024	-5e-05	-5e-05	-2e-05	-0.00023	-0.00022	1e-05	-6e-05	3
13003	6e-05	1e-05	-1e-05	-6e-05	0.00026	0.00034	-5e-05	-2e-05	3
13004	6e-05	1e-05	-1e-05	-6e-05	0.00026	0.00034	-5e-05	-2e-05	3
13005	6e-05	1e-05	-1e-05	-6e-05	0.00026	0.00034	-5e-05	-2e-05	3
13006	6e-05	1e-05	-1e-05	-6e-05	0.00026	0.00034	-5e-05	-2e-05	3
13007	6e-05	1e-05	-1e-05	-6e-05	0.00026	0.00034	-5e-05	-2e-05	3
13008	6e-05	1e-05	-1e-05	-6e-05	0.00026	0.00034	-5e-05	-2e-05	3
13009	6e-05	1e-05	-1e-05	-6e-05	0.00026	0.00034	-5e-05	-2e-05	3
13010	6e-05	1e-05	-1e-05	-6e-05	0.00026	0.00034	-5e-05	-2e-05	3
13011	6e-05	1e-05	-1e-05	-6e-05	0.00026	0.00034	-5e-05	-2e-05	3
13012	6e-05	1e-05	-1e-05	-6e-05	0.00026	0.00034	-5e-05	-2e-05	3
13013	6e-05	1e-05	-1e-05	-6e-05	0.00026	0.00034	-5e-05	-2e-05	3
13014	6e-05	1e-05	-1e-05	-6e-05	0.00026	0.00034	-5e-05	-2e-05	3
13015	6e-05	1e-05	-1e-05	-6e-05	0.00026	0.00034	-5e-05	-2e-05	3
13016	6e-05	1e-05	-1e-05	-6e-05	0.00026	0.00034	-5e-05	-2e-05	3
13017	6e-05	1e-05	-1e-05	-6e-05	0.00026	0.00034	-5e-05	-2e-05	3
13018	0.00044	2e-05	-1e-05	-7e-05	-0.00014	-0.00039	-0.00017	2e-05	3
13019	0.00044	2e-05	-1e-05	-7e-05	-0.00014	-0.00039	-0.00017	2e-05	3
13020	0.00044	2e-05	-1e-05	-7e-05	-0.00014	-0.00039	-0.00017	2e-05	3
13021	0.00044	2e-05	-1e-05	-7e-05	-0.00014	-0.00039	-0.00017	2e-05	3
13022	0.00044	2e-05	-1e-05	-7e-05	-0.00014	-0.00039	-0.00017	2e-05	3
13023	0.00044	2e-05	-1e-05	-7e-05	-0.00014	-0.00039	-0.00017	2e-05	3
13024	0.00044	2e-05	-1e-05	-7e-05	-0.00014	-0.00039	-0.00017	2e-05	3
13025	0.00044	2e-05	-1e-05	-7e-05	-0.00014	-0.00039	-0.00017	2e-05	3
13026	0.00044	2e-05	-1e-05	-7e-05	-0.00014	-0.00039	-0.00017	2e-05	3
13027	-0.00037	-7e-05	-9e-05	-0.00025	-0.00067	4e-05	-3e-05	-8e-05	3
13028	-0.00037	-7e-05	-9e-05	-0.00025	-0.00067	4e-05	-3e-05	-8e-05	3
13029	-0.00042	-6e-05	-7e-05	0	8e-05	0.00021	3e-05	-1e-05	3
13030	-0.00042	-6e-05	-7e-05	0	8e-05	0.00021	3e-05	-1e-05	3
13031	-0.00042	-6e-05	-7e-05	0	8e-05	0.00021	3e-05	-1e-05	3
13032	-0.00042	-6e-05	-7e-05	0	8e-05	0.00021	3e-05	-1e-05	3
13033	-0.00042	-6e-05	-7e-05	0	8e-05	0.00021	3e-05	-1e-05	3
13034	-0.00042	-6e-05	-7e-05	0	8e-05	0.00021	3e-05	-1e-05	3
13035	-0.00042	-6e-05	-7e-05	0	8e-05	0.00021	3e-05	-1e-05	3
13037	-0.00042	-6e-05	-7e-05	0	8e-05	0.00021	3e-05	-1e-05	3
13039	-0.00042	-6e-05	-7e-05	0	8e-05	0.00021	3e-05	-1e-05	3
13040	-0.00042	-6e-05	-7e-05	0	8e-05	0.00021	3e-05	-1e-05	3
13041	-0.00042	-6e-05	-7e-05	0	8e-05	0.00021	3e-05	-1e-05	3
13042	-0.00042	-6e-05	-7e-05	0	8e-05	0.00021	3e-05	-1e-05	3
13043	-0.00042	-6e-05	-7e-05	0	8e-05	0.00021	3e-05	-1e-05	3
13044	-0.00042	-6e-05	-7e-05	0	8e-05	0.00021	3e-05	-1e-05	3
13045	-0.00042	-6e-05	-7e-05	0	8e-05	0.00021	3e-05	-1e-05	3
13046	-0.00042	-6e-05	-7e-05	0	8e-05	0.00021	3e-05	-1e-05	3
13047	-0.00042	-6e-05	-7e-05	0	8e-05	0.00021	3e-05	-1e-05	3
13048	-0.00042	-6e-05	-7e-05	0	8e-05	0.00021	3e-05	-1e-05	3
13049	-0.00042	-6e-05	-7e-05	0	8e-05	0.00021	3e-05	-1e-05	3
13050	0.00011	4e-05	0	-3e-05	5e-05	-0.00037	-0.00012	8e-05	3
13051	0.00031	5e-05	9e-05	6e-05	-0.00011	0.00014	-0.00011	-3e-05	3
13052	0.00031	5e-05	9e-05	6e-05	-0.00011	0.00014	-0.00011	-3e-05	3
13053	0.00031	5e-05	9e-05	6e-05	-0.00011	0.00014	-0.00011	-3e-05	3
13054	0.00031	5e-05	9e-05	6e-05	-0.00011	0.00014	-0.00011	-3e-05	3
13055	0.00031	5e-05	9e-05	6e-05	-0.00011	0.00014	-0.00011	-3e-05	3
13056	0.00031	5e-05	9e-05	6e-05	-0.00011	0.00014	-0.00011	-3e-05	3
13057	0.00031	5e-05	9e-05	6e-05	-0.00011	0.00014	-0.00011	-3e-05	3
13058	0.00031	5e-05	9e-05	6e-05	-0.00011	0.00014	-0.00011	-3e-05	3
13059	0.00031	5e-05	9e-05	6e-05	-0.00011	0.00014	-0.00011	-3e-05	3
13060	0.00031	5e-05	9e-05	6e-05	-0.00011	0.00014	-0.00011	-3e-05	3
13061	0.00031	5e-05	9e-05	6e-05	-0.00011	0.00014	-0.00011	-3e-05	3
13062	0.00031	5e-05	9e-05	6e-05	-0.00011	0.00014	-0.00011	-3e-05	3
13063	-0.00013	-5e-05	0	-2e-05	-0.00017	-0.00047	-7e-05	-6e-05	3
13064	-0.00013	-5e-05	0	-2e-05	-0.00017	-0.00047	-7e-05	-6e-05	3
13065	-0.00013	-5e-05	0	-2e-05	-0.00017	-0.00047	-7e-05	-6e-05	3
13066	-0.00013	-5e-05	0	-2e-05	-0.00017	-0.00047	-7e-05	-6e-05	3
13067	-0.00013	-5e-05	0	-2e-05	-0.00017	-0.00047	-7e-05	-6e-05	3
13068	-0.00013	-5e-05	0	-2e-05	-0.00017	-0.00047	-7e-05	-6e-05	3
13069	-0.00013	-5e-05	0	-2e-05	-0.00017	-0.00047	-7e-05	-6e-05	3
13070	-0.00013	-5e-05	0	-2e-05	-0.00017	-0.00047	-7e-05	-6e-05	3
13071	-0.00013	-5e-05	0	-2e-05	-0.00017	-0.00047	-7e-05	-6e-05	3
13072	-0.00011	0	2e-05	8e-05	0.00012	-0.00013	0.00011	0	3
13073	-0.00011	0	2e-05	8e-05	0.00012	-0.00013	0.00011	0	3
13074	-0.00011	0	2e-05	8e-05	0.00012	-0.00013	0.00011	0	3
13075	-0.00011	0	2e-05	8e-05	0.00012	-0.00013	0.00011	0	3
13076	-0.00011	0	2e-05	8e-05	0.00012	-0.00013	0.00011	0	3
13077	-0.00011	0	2e-05	8e-05	0.00012	-0.00013	0.00011	0	3
13078	-0.00011	0	2e-05	8e-05	0.00012	-0.00013	0.00011	0	3
13079	-0.00011	0	2e-05	8e-05	0.00012	-0.00013	0.00011	0	3
13080	-0.00011	0	2e-05	8e-05	0.00012	-0.00013	0.00011	0	3
13081	-0.00011	0	2e-05	8e-05	0.00012	-0.00013	0.00011	0	3
13082	-0.00011	0	2e-05	8e-05	0.00012	-0.00013	0.00011	0	3
13083	-0.00011	0	2e-05	8e-05	0.00012	-0.00013	0.00011	0	3
13084	-0.00011	0	2e-05	8e-05	0.00012	-0.00013	0.00011	0	3
13085	-0.00011	0	2e-05	8e-05	0.00012	-0.00013	0.00011	0	3
13087	-1e-05	-7e-05	-5e-05	2e-05	0.00011	0	-7e-05	-0.00012	3
13089	-0.00047	-6e-05	-3e-05	-9e-05	0.00036	9e-05	-6e-05	-5e-05	3
13090	-0.00047	-6e-05	-3e-05	-9e-05	0.00036	9e-05	-6e-05	-5e-05	3
13091	-0.00047	-6e-05	-3e-05	-9e-05	0.00036	9e-05	-6e-05	-5e-05	3
13092	-0.00047	-6e-05	-3e-05	-9e-05	0.00036	9e-05	-6e-05	-5e-05	3
13093	-0.00047	-6e-05	-3e-05	-9e-05	0.00036	9e-05	-6e-05	-5e-05	3
13094	-0.00047	-6e-05	-3e-05	-9e-05	0.00036	9e-05	-6e-05	-5e-05	3
13095	-0.00047	-6e-05	-3e-05	-9e-05	0.00036	9e-05	-6e-05	-5e-05	3
13096	-0.00047	-6e-05	-3e-05	-9e-05	0.00036	9e-05	-6e-05	-5e-05	3
13097	-0.00047	-6e-05	-3e-05	-9e-05	0.00036	9e-05	-6e-05	-5e-05	3
13098	-0.00047	-6e-05	-3e-05	-9e-05	0.00036	9e-05	-6e-05	-5e-05	3
13099	-0.00047	-6e-05	-3e-05	-9e-05	0.00036	9e-05	-6e-05	-5e-05	3
13100	-0.00047	-6e-05	-3e-05	-9e-05	0.00036	9e-05	-6e-05	-5e-05	3
13101	-0.00047	-6e-05	-3e-05	-9e-05	0.00036	9e-05	-6e-05	-5e-05	3
13102	-0.00047	-6e-05	-3e-05	-9e-05	0.00036	9e-05	-6e-05	-5e-05	3
13103	-0.00047	-6e-05	-3e-05	-9e-05	0.00036	9e-05	-6e-05	-5e-05	3
13104	-0.00047	-6e-05	-3e-05	-9e-05	0.00036	9e-05	-6e-05	-5e-05	3
13105	-0.00047	-6e-05	-3e-05	-9e-05	0.00036	9e-05	-6e-05	-5e-05	3
13106	-0.00047	-6e-05	-3e-05	-9e-05	0.00036	9e-05	-6e-05	-5e-05	3
13107	-0.00047	-6e-05	-3e-05	-9e-05	0.00036	9e-05	-6e-05	-5e-05	3
13108	-0.00047	-6e-05	-3e-05	-9e-05	0.00036	9e-05	-6e-05	-5e-05	3
13109	-0.00047	-6e-05	-3e-05	-9e-05	0.00036	9e-05	-6e-05	-5e-05	3
13110	-0.00045	-3e-05	-5e-05	-2e-05	0.00012	0.00012	-8e-05	-5e-05	3
13111	-0.00014	1e-05	4e-05	0.00017	0.00028	-0.00016	-1e-05	-4e-05	3
13112	0.00027	3e-05	-1e-05	-3e-05	-0.0002	0.00022	0.00015	-2e-05	3
13113	0.00027	3e-05	-1e-05	-3e-05	-0.0002	0.00022	0.00015	-2e-05	3
13114	0.00027	3e-05	-1e-05	-3e-05	-0.0002	0.00022	0.00015	-2e-05	3
13115	0.00027	3e-05	-1e-05	-3e-05	-0.0002	0.00022	0.00015	-2e-05	3
13116	0.00027	3e-05	-1e-05	-3e-05	-0.0002	0.00022	0.00015	-2e-05	3
13117	0.00027	3e-05	-1e-05	-3e-05	-0.0002	0.00022	0.00015	-2e-05	3
13118	0.00027	3e-05	-1e-05	-3e-05	-0.0002	0.00022	0.00015	-2e-05	3
13119	0.00027	3e-05	-1e-05	-3e-05	-0.0002	0.00022	0.00015	-2e-05	3
13120	0.00027	3e-05	-1e-05	-3e-05	-0.0002	0.00022	0.00015	-2e-05	3
13121	0.00027	3e-05	-1e-05	-3e-05	-0.0002	0.00022	0.00015	-2e-05	3
13122	0.00027	3e-05	-1e-05	-3e-05	-0.0002	0.00022	0.00015	-2e-05	3
13123	0.00027	3e-05	-1e-05	-3e-05	-0.0002	0.00022	0.00015	-2e-05	3
13124	0.00027	3e-05	-1e-05	-3e-05	-0.0002	0.00022	0.00015	-2e-05	3
13125	0.00027	3e-05	-1e-05	-3e-05	-0.0002	0.00022	0.00015	-2e-05	3
13126	0.00027	3e-05	-1e-05	-3e-05	-0.0002	0.00022	0.00015	-2e-05	3
13127	0.00027	3e-05	-1e-05	-3e-05	-0.0002	0.00022	0.00015	-2e-05	3
13128	0.00027	3e-05	-1e-05	-3e-05	-0.0002	0.00022	0.00015	-2e-05	3
13129	0.00027	3e-05	-1e-05	-3e-05	-0.0002	0.00022	0.00015	-2e-05	3
13130	0.00027	3e-05	-1e-05	-3e-05	-0.0002	0.00022	0.00015	-2e-05	3
13131	0.00027	3e-05	-1e-05	-3e-05	-0.0002	0.00022	0.00015	-2e-05	3
13132	9e-05	-2e-05	-1e-05	-4e-05	-8e-05	-8e-05	-5e-05	-7e-05	3
13133	9e-05	-2e-05	-1e-05	-4e-05	-8e-05	-8e-05	-5e-05	-7e-05	3
13134	0.0003	-1e-05	1e-05	-4e-05	-0.00018	0	9e-05	7e-05	3
13135	0.0003	-1e-05	1e-05	-4e-05	-0.00018	0	9e-05	7e-05	3
13137	0.0003	-1e-05	1e-05	-4e-05	-0.00018	0	9e-05	7e-05	3
13139	0.0003	-1e-05	1e-05	-4e-05	-0.00018	0	9e-05	7e-05	3
13140	0.0003	-1e-05	1e-05	-4e-05	-0.00018	0	9e-05	7e-05	3
13141	0.0003	-1e-05	1e-05	-4e-05	-0.00018	0	9e-05	7e-05	3
13142	0.0003	-1e-05	1e-05	-4e-05	-0.00018	0	9e-05	7e-05	3
13143	0.0003	-1e-05	1e-05	-4e-05	-0.00018	0	9e-05	7e-05	3
13144	0.0003	-1e-05	1e-05	-4e-05	-0.00018	0	9e-05	7e-05	3
13145	0.0003	-1e-05	1e-05	-4e-05	-0.00018	0	9e-05	7e-05	3
13146	0.0003	-1e-05	1e-05	-4e-05	-0.00018	0	9e-05	7e-05	3
13147	0.00038	5e-05	2e-05	4e-05	7e-05	0.0001	-2e-05	4e-05	3
13148	0.00038	5e-05	2e-05	4e-05	7e-05	0.0001	-2e-05	4e-05	3
13149	0.00018	-2e-05	-5e-05	-5e-05	-0.0005	-0.00031	-8e-05	1e-05	3
13150	0.00018	-2e-05	-5e-05	-5e-05	-0.0005	-0.00031	-8e-05	1e-05	3
13151	0.00018	-2e-05	-5e-05	-5e-05	-0.0005	-0.00031	-8e-05	1e-05	3
13152	0.00018	-2e-05	-5e-05	-5e-05	-0.0005	-0.00031	-8e-05	1e-05	3
13153	0.00018	-2e-05	-5e-05	-5e-05	-0.0005	-0.00031	-8e-05	1e-05	3
13154	0.00018	-2e-05	-5e-05	-5e-05	-0.0005	-0.00031	-8e-05	1e-05	3
13155	0.00018	-2e-05	-5e-05	-5e-05	-0.0005	-0.00031	-8e-05	1e-05	3
13156	0.00018	-2e-05	-5e-05	-5e-05	-0.0005	-0.00031	-8e-05	1e-05	3
13157	0.00018	-2e-05	-5e-05	-5e-05	-0.0005	-0.00031	-8e-05	1e-05	3
13158	0.00018	-2e-05	-5e-05	-5e-05	-0.0005	-0.00031	-8e-05	1e-05	3
13159	0.00018	-2e-05	-5e-05	-5e-05	-0.0005	-0.00031	-8e-05	1e-05	3
13160	0.00018	-2e-05	-5e-05	-5e-05	-0.0005	-0.00031	-8e-05	1e-05	3
13161	0.00018	-2e-05	-5e-05	-5e-05	-0.0005	-0.00031	-8e-05	1e-05	3
13162	0.00018	-2e-05	-5e-05	-5e-05	-0.0005	-0.00031	-8e-05	1e-05	3
13163	0.00018	-2e-05	-5e-05	-5e-05	-0.0005	-0.00031	-8e-05	1e-05	3
13164	0.00018	-2e-05	-5e-05	-5e-05	-0.0005	-0.00031	-8e-05	1e-05	3
13165	0.00018	-2e-05	-5e-05	-5e-05	-0.0005	-0.00031	-8e-05	1e-05	3
13166	0.00018	-2e-05	-5e-05	-5e-05	-0.0005	-0.00031	-8e-05	1e-05	3
13167	0.00018	-2e-05	-5e-05	-5e-05	-0.0005	-0.00031	-8e-05	1e-05	3
13168	0.00018	-2e-05	-5e-05	-5e-05	-0.0005	-0.00031	-8e-05	1e-05	3
13169	-8e-05	-2e-05	-3e-05	-0.00016	0.00012	0.00068	0.00011	-4e-05	3
13170	0.00045	6e-05	3e-05	7e-05	-0.00028	-0.00093	-4e-05	-4e-05	3
13171	7e-05	5e-05	1e-05	-0.00015	-0.00017	-0.00034	-4e-05	3e-05	3
13172	7e-05	5e-05	1e-05	-0.00015	-0.00017	-0.00034	-4e-05	3e-05	3
13173	7e-05	5e-05	1e-05	-0.00015	-0.00017	-0.00034	-4e-05	3e-05	3
13174	7e-05	5e-05	1e-05	-0.00015	-0.00017	-0.00034	-4e-05	3e-05	3
13175	7e-05	5e-05	1e-05	-0.00015	-0.00017	-0.00034	-4e-05	3e-05	3
13176	7e-05	5e-05	1e-05	-0.00015	-0.00017	-0.00034	-4e-05	3e-05	3
13177	7e-05	5e-05	1e-05	-0.00015	-0.00017	-0.00034	-4e-05	3e-05	3
13178	7e-05	5e-05	1e-05	-0.00015	-0.00017	-0.00034	-4e-05	3e-05	3
13179	7e-05	5e-05	1e-05	-0.00015	-0.00017	-0.00034	-4e-05	3e-05	3
13180	7e-05	5e-05	1e-05	-0.00015	-0.00017	-0.00034	-4e-05	3e-05	3
13181	7e-05	5e-05	1e-05	-0.00015	-0.00017	-0.00034	-4e-05	3e-05	3
13182	7e-05	5e-05	1e-05	-0.00015	-0.00017	-0.00034	-4e-05	3e-05	3
13183	7e-05	5e-05	1e-05	-0.00015	-0.00017	-0.00034	-4e-05	3e-05	3
13184	7e-05	5e-05	1e-05	-0.00015	-0.00017	-0.00034	-4e-05	3e-05	3
13185	7e-05	5e-05	1e-05	-0.00015	-0.00017	-0.00034	-4e-05	3e-05	3
13187	7e-05	5e-05	1e-05	-0.00015	-0.00017	-0.00034	-4e-05	3e-05	3
13189	7e-05	5e-05	1e-05	-0.00015	-0.00017	-0.00034	-4e-05	3e-05	3
13190	7e-05	5e-05	1e-05	-0.00015	-0.00017	-0.00034	-4e-05	3e-05	3
13191	7e-05	5e-05	1e-05	-0.00015	-0.00017	-0.00034	-4e-05	3e-05	3
13192	4e-05	-1e-05	-5e-05	-2e-05	0.00011	0.00014	4e-05	0.00013	3
13193	4e-05	-1e-05	-5e-05	-2e-05	0.00011	0.00014	4e-05	0.00013	3
13194	4e-05	2e-05	3e-05	0.00011	0.00045	-0.00016	1e-05	1e-05	3
13195	4e-05	2e-05	3e-05	0.00011	0.00045	-0.00016	1e-05	1e-05	3
13196	4e-05	2e-05	3e-05	0.00011	0.00045	-0.00016	1e-05	1e-05	3
13197	4e-05	2e-05	3e-05	0.00011	0.00045	-0.00016	1e-05	1e-05	3
13198	4e-05	2e-05	3e-05	0.00011	0.00045	-0.00016	1e-05	1e-05	3
13199	4e-05	2e-05	3e-05	0.00011	0.00045	-0.00016	1e-05	1e-05	3
13200	4e-05	2e-05	3e-05	0.00011	0.00045	-0.00016	1e-05	1e-05	3
13201	4e-05	2e-05	3e-05	0.00011	0.00045	-0.00016	1e-05	1e-05	3
13202	4e-05	2e-05	3e-05	0.00011	0.00045	-0.00016	1e-05	1e-05	3
13203	4e-05	2e-05	3e-05	0.00011	0.00045	-0.00016	1e-05	1e-05	3
13204	4e-05	2e-05	3e-05	0.00011	0.00045	-0.00016	1e-05	1e-05	3
13205	4e-05	2e-05	3e-05	0.00011	0.00045	-0.00016	1e-05	1e-05	3
13206	4e-05	2e-05	3e-05	0.00011	0.00045	-0.00016	1e-05	1e-05	3
13207	-0.00032	4e-05	2e-05	-5e-05	-1e-05	0.00067	0.00021	4e-05	3
13208	-0.00032	4e-05	2e-05	-5e-05	-1e-05	0.00067	0.00021	4e-05	3
13209	0.00043	-1e-05	-2e-05	4e-05	-9e-05	6e-05	-6e-05	3e-05	3
13210	0.00043	-1e-05	-2e-05	4e-05	-9e-05	6e-05	-6e-05	3e-05	3
13211	0.00043	-1e-05	-2e-05	4e-05	-9e-05	6e-05	-6e-05	3e-05	3
13212	0.00043	-1e-05	-2e-05	4e-05	-9e-05	6e-05	-6e-05	3e-05	3
13213	0.00043	-1e-05	-2e-05	4e-05	-9e-05	6e-05	-6e-05	3e-05	3
13214	0.00043	-1e-05	-2e-05	4e-05	-9e-05	6e-05	-6e-05	3e-05	3
13215	0.00043	-1e-05	-2e-05	4e-05	-9e-05	6e-05	-6e-05	3e-05	3
13216	0.00043	-1e-05	-2e-05	4e-05	-9e-05	6e-05	-6e-05	3e-05	3
13217	0.00043	-1e-05	-2e-05	4e-05	-9e-05	6e-05	-6e-05	3e-05	3
13218	0.00043	-1e-05	-2e-05	4e-05	-9e-05	6e-05	-6e-05	3e-05	3
13219	0.00043	-1e-05	-2e-05	4e-05	-9e-05	6e-05	-6e-05	3e-05	3
13220	0.00043	-1e-05	-2e-05	4e-05	-9e-05	6e-05	-6e-05	3e-05	3
13221	0.00043	-1e-05	-2e-05	4e-05	-9e-05	6e-05	-6e-05	3e-05	3
13222	0.00043	-1e-05	-2e-05	4e-05	-9e-05	6e-05	-6e-05	3e-05	3
13223	0.00043	-1e-05	-2e-05	4e-05	-9e-05	6e-05	-6e-05	3e-05	3
13224	0.00043	-1e-05	-2e-05	4e-05	-9e-05	6e-05	-6e-05	3e-05	3
13225	0.00043	-1e-05	-2e-05	4e-05	-9e-05	6e-05	-6e-05	3e-05	3
13226	0.00043	-1e-05	-2e-05	4e-05	-9e-05	6e-05	-6e-05	3e-05	3
13227	0.00043	-1e-05	-2e-05	4e-05	-9e-05	6e-05	-6e-05	3e-05	3
13228	0.00043	-1e-05	-2e-05	4e-05	-9e-05	6e-05	-6e-05	3e-05	3
13229	0.00043	-1e-05	-2e-05	4e-05	-9e-05	6e-05	-6e-05	3e-05	3
13230	0.00043	-1e-05	-2e-05	4e-05	-9e-05	6e-05	-6e-05	3e-05	3
13231	0.00033	1e-05	-2e-05	-7e-05	6e-05	-0.00036	-9e-05	-1e-05	3
13232	-0.00041	-5e-05	1e-05	5e-05	0.0008	0.00036	8e-05	-8e-05	3
13233	-0.00041	-5e-05	1e-05	5e-05	0.0008	0.00036	8e-05	-8e-05	3
13234	-0.00041	-5e-05	1e-05	5e-05	0.0008	0.00036	8e-05	-8e-05	3
13235	-0.00041	-5e-05	1e-05	5e-05	0.0008	0.00036	8e-05	-8e-05	3
13237	-0.00041	-5e-05	1e-05	5e-05	0.0008	0.00036	8e-05	-8e-05	3
13239	-0.00041	-5e-05	1e-05	5e-05	0.0008	0.00036	8e-05	-8e-05	3
13240	-0.00041	-5e-05	1e-05	5e-05	0.0008	0.00036	8e-05	-8e-05	3
13241	-0.00041	-5e-05	1e-05	5e-05	0.0008	0.00036	8e-05	-8e-05	3
13242	-0.00041	-5e-05	1e-05	5e-05	0.0008	0.00036	8e-05	-8e-05	3
13243	-0.00041	-5e-05	1e-05	5e-05	0.0008	0.00036	8e-05	-8e-05	3
13244	-0.00041	-5e-05	1e-05	5e-05	0.0008	0.00036	8e-05	-8e-05	3
13245	-0.00041	-5e-05	1e-05	5e-05	0.0008	0.00036	8e-05	-8e-05	3
13246	-0.00041	-5e-05	1e-05	5e-05	0.0008	0.00036	8e-05	-8e-05	3
13247	-0.00041	-5e-05	1e-05	5e-05	0.0008	0.00036	8e-05	-8e-05	3
13248	-0.00041	-5e-05	1e-05	5e-05	0.0008	0.00036	8e-05	-8e-05	3
13249	-0.00041	-5e-05	1e-05	5e-05	0.0008	0.00036	8e-05	-8e-05	3
13250	-0.00041	-5e-05	1e-05	5e-05	0.0008	0.00036	8e-05	-8e-05	3
13251	-0.00041	-5e-05	1e-05	5e-05	0.0008	0.00036	8e-05	-8e-05	3
13252	-9e-05	-4e-05	-3e-05	3e-05	8e-05	9e-05	2e-05	-4e-05	3
13253	-9e-05	-4e-05	-3e-05	3e-05	8e-05	9e-05	2e-05	-4e-05	3
13254	0.00023	0	2e-05	9e-05	5e-05	1e-05	-0.00016	1e-05	3
13255	0.00023	0	2e-05	9e-05	5e-05	1e-05	-0.00016	1e-05	3
13256	0.00023	0	2e-05	9e-05	5e-05	1e-05	-0.00016	1e-05	3
13257	0.00023	0	2e-05	9e-05	5e-05	1e-05	-0.00016	1e-05	3
13258	0.00023	0	2e-05	9e-05	5e-05	1e-05	-0.00016	1e-05	3
13259	0.00023	0	2e-05	9e-05	5e-05	1e-05	-0.00016	1e-05	3
13260	0.00023	0	2e-05	9e-05	5e-05	1e-05	-0.00016	1e-05	3
13261	0.00023	0	2e-05	9e-05	5e-05	1e-05	-0.00016	1e-05	3
13262	0.00023	0	2e-05	9e-05	5e-05	1e-05	-0.00016	1e-05	3
13263	0.00023	0	2e-05	9e-05	5e-05	1e-05	-0.00016	1e-05	3
13264	0.00023	0	2e-05	9e-05	5e-05	1e-05	-0.00016	1e-05	3
13265	0.00023	0	2e-05	9e-05	5e-05	1e-05	-0.00016	1e-05	3
13266	-0.00013	0	-2e-05	0.00013	0.00073	0.0002	-1e-05	9e-05	3
13267	-0.00013	0	-2e-05	0.00013	0.00073	0.0002	-1e-05	9e-05	3
13268	-0.00013	0	-2e-05	0.00013	0.00073	0.0002	-1e-05	9e-05	3
13271	-0.00013	0	-2e-05	0.00013	0.00073	0.0002	-1e-05	9e-05	3
13272	-0.00013	0	-2e-05	0.00013	0.00073	0.0002	-1e-05	9e-05	3
13273	2e-05	2e-05	3e-05	0	0.00011	7e-05	-2e-05	0	3
13274	2e-05	2e-05	3e-05	0	0.00011	7e-05	-2e-05	0	3
13275	2e-05	2e-05	3e-05	0	0.00011	7e-05	-2e-05	0	3
13276	2e-05	2e-05	3e-05	0	0.00011	7e-05	-2e-05	0	3
13277	2e-05	2e-05	3e-05	0	0.00011	7e-05	-2e-05	0	3
13278	2e-05	2e-05	3e-05	0	0.00011	7e-05	-2e-05	0	3
13279	2e-05	2e-05	3e-05	0	0.00011	7e-05	-2e-05	0	3
13280	2e-05	2e-05	3e-05	0	0.00011	7e-05	-2e-05	0	3
13281	2e-05	2e-05	3e-05	0	0.00011	7e-05	-2e-05	0	3
13282	2e-05	2e-05	3e-05	0	0.00011	7e-05	-2e-05	0	3
13283	2e-05	2e-05	3e-05	0	0.00011	7e-05	-2e-05	0	3
13284	2e-05	2e-05	3e-05	0	0.00011	7e-05	-2e-05	0	3
13285	2e-05	2e-05	3e-05	0	0.00011	7e-05	-2e-05	0	3
13286	2e-05	2e-05	3e-05	0	0.00011	7e-05	-2e-05	0	3
13288	2e-05	2e-05	3e-05	0	0.00011	7e-05	-2e-05	0	3
13289	2e-05	2e-05	3e-05	0	0.00011	7e-05	-2e-05	0	3
13290	-0.00015	-8e-05	0	9e-05	-5e-05	0.0004	0	-5e-05	3
13291	0.00035	-4e-05	1e-05	3e-05	-0.0002	-0.0002	-3e-05	-3e-05	3
13292	0.00035	-4e-05	1e-05	3e-05	-0.0002	-0.0002	-3e-05	-3e-05	3
13293	0.00035	-4e-05	1e-05	3e-05	-0.0002	-0.0002	-3e-05	-3e-05	3
13294	0.00035	-4e-05	1e-05	3e-05	-0.0002	-0.0002	-3e-05	-3e-05	3
13295	0.00035	-4e-05	1e-05	3e-05	-0.0002	-0.0002	-3e-05	-3e-05	3
13296	0.00035	-4e-05	1e-05	3e-05	-0.0002	-0.0002	-3e-05	-3e-05	3
13297	0.00035	-4e-05	1e-05	3e-05	-0.0002	-0.0002	-3e-05	-3e-05	3
13298	0.00035	-4e-05	1e-05	3e-05	-0.0002	-0.0002	-3e-05	-3e-05	3
13299	0.00035	-4e-05	1e-05	3e-05	-0.0002	-0.0002	-3e-05	-3e-05	3
13300	0.00035	-4e-05	1e-05	3e-05	-0.0002	-0.0002	-3e-05	-3e-05	3
13301	0.00035	-4e-05	1e-05	3e-05	-0.0002	-0.0002	-3e-05	-3e-05	3
13302	0.00035	-4e-05	1e-05	3e-05	-0.0002	-0.0002	-3e-05	-3e-05	3
13303	0.00035	-4e-05	1e-05	3e-05	-0.0002	-0.0002	-3e-05	-3e-05	3
13304	0.00035	-4e-05	1e-05	3e-05	-0.0002	-0.0002	-3e-05	-3e-05	3
13305	0.00035	-4e-05	1e-05	3e-05	-0.0002	-0.0002	-3e-05	-3e-05	3
13306	0.00035	-4e-05	1e-05	3e-05	-0.0002	-0.0002	-3e-05	-3e-05	3
13307	0.00035	-4e-05	1e-05	3e-05	-0.0002	-0.0002	-3e-05	-3e-05	3
13308	0.00035	-4e-05	1e-05	3e-05	-0.0002	-0.0002	-3e-05	-3e-05	3
13309	0.00035	-4e-05	1e-05	3e-05	-0.0002	-0.0002	-3e-05	-3e-05	3
13310	0.00035	-4e-05	1e-05	3e-05	-0.0002	-0.0002	-3e-05	-3e-05	3
13311	0.00035	-4e-05	1e-05	3e-05	-0.0002	-0.0002	-3e-05	-3e-05	3
13312	-0.00021	-3e-05	-2e-05	-0.0003	-0.00026	-0.0001	-3e-05	-7e-05	3
13313	-0.00021	-3e-05	-2e-05	-0.0003	-0.00026	-0.0001	-3e-05	-7e-05	3
13314	-6e-05	1e-05	3e-05	8e-05	-7e-05	0.00075	0.00011	-2e-05	3
13315	-6e-05	1e-05	3e-05	8e-05	-7e-05	0.00075	0.00011	-2e-05	3
13316	-6e-05	1e-05	3e-05	8e-05	-7e-05	0.00075	0.00011	-2e-05	3
13317	-6e-05	1e-05	3e-05	8e-05	-7e-05	0.00075	0.00011	-2e-05	3
13318	-6e-05	1e-05	3e-05	8e-05	-7e-05	0.00075	0.00011	-2e-05	3
13319	-6e-05	1e-05	3e-05	8e-05	-7e-05	0.00075	0.00011	-2e-05	3
13320	-6e-05	1e-05	3e-05	8e-05	-7e-05	0.00075	0.00011	-2e-05	3
13321	-6e-05	1e-05	3e-05	8e-05	-7e-05	0.00075	0.00011	-2e-05	3
13322	-6e-05	1e-05	3e-05	8e-05	-7e-05	0.00075	0.00011	-2e-05	3
13323	-6e-05	1e-05	3e-05	8e-05	-7e-05	0.00075	0.00011	-2e-05	3
13324	-6e-05	1e-05	3e-05	8e-05	-7e-05	0.00075	0.00011	-2e-05	3
13325	-6e-05	1e-05	3e-05	8e-05	-7e-05	0.00075	0.00011	-2e-05	3
13326	0.00034	8e-05	1e-05	-5e-05	-0.00022	0.0001	5e-05	6e-05	3
13327	0.00034	8e-05	1e-05	-5e-05	-0.00022	0.0001	5e-05	6e-05	3
13328	0.00034	8e-05	1e-05	-5e-05	-0.00022	0.0001	5e-05	6e-05	3
13329	0.00034	8e-05	1e-05	-5e-05	-0.00022	0.0001	5e-05	6e-05	3
13330	0.00034	8e-05	1e-05	-5e-05	-0.00022	0.0001	5e-05	6e-05	3
13331	0.00034	8e-05	1e-05	-5e-05	-0.00022	0.0001	5e-05	6e-05	3
13332	0.00034	8e-05	1e-05	-5e-05	-0.00022	0.0001	5e-05	6e-05	3
13333	-7e-05	-5e-05	-5e-05	-7e-05	-0.00011	-0.00041	1e-05	-2e-05	3
13334	-7e-05	-5e-05	-5e-05	-7e-05	-0.00011	-0.00041	1e-05	-2e-05	3
13335	-7e-05	-5e-05	-5e-05	-7e-05	-0.00011	-0.00041	1e-05	-2e-05	3
13336	-7e-05	-5e-05	-5e-05	-7e-05	-0.00011	-0.00041	1e-05	-2e-05	3
13338	-7e-05	-5e-05	-5e-05	-7e-05	-0.00011	-0.00041	1e-05	-2e-05	3
13339	-7e-05	-5e-05	-5e-05	-7e-05	-0.00011	-0.00041	1e-05	-2e-05	3
13340	-7e-05	-5e-05	-5e-05	-7e-05	-0.00011	-0.00041	1e-05	-2e-05	3
13341	-7e-05	-5e-05	-5e-05	-7e-05	-0.00011	-0.00041	1e-05	-2e-05	3
13342	-7e-05	-5e-05	-5e-05	-7e-05	-0.00011	-0.00041	1e-05	-2e-05	3
13343	-7e-05	-5e-05	-5e-05	-7e-05	-0.00011	-0.00041	1e-05	-2e-05	3
13344	-7e-05	-5e-05	-5e-05	-7e-05	-0.00011	-0.00041	1e-05	-2e-05	3
13345	-7e-05	-5e-05	-5e-05	-7e-05	-0.00011	-0.00041	1e-05	-2e-05	3
13346	-7e-05	-5e-05	-5e-05	-7e-05	-0.00011	-0.00041	1e-05	-2e-05	3
13347	-7e-05	-5e-05	-5e-05	-7e-05	-0.00011	-0.00041	1e-05	-2e-05	3
13348	-7e-05	-5e-05	-5e-05	-7e-05	-0.00011	-0.00041	1e-05	-2e-05	3
13349	-0.00018	5e-05	9e-05	0.0001	0.00055	0.00028	5e-05	2e-05	3
13350	-9e-05	-1e-05	-2e-05	-2e-05	-5e-05	0.00051	1e-05	-4e-05	3
13351	0.00031	2e-05	-1e-05	-3e-05	0.00012	-0.00017	-0.00011	-1e-05	3
13352	0.00031	2e-05	-1e-05	-3e-05	0.00012	-0.00017	-0.00011	-1e-05	3
13353	0.00031	2e-05	-1e-05	-3e-05	0.00012	-0.00017	-0.00011	-1e-05	3
13354	0.00031	2e-05	-1e-05	-3e-05	0.00012	-0.00017	-0.00011	-1e-05	3
13355	0.00031	2e-05	-1e-05	-3e-05	0.00012	-0.00017	-0.00011	-1e-05	3
13356	0.00031	2e-05	-1e-05	-3e-05	0.00012	-0.00017	-0.00011	-1e-05	3
13357	0.00031	2e-05	-1e-05	-3e-05	0.00012	-0.00017	-0.00011	-1e-05	3
13358	0.00031	2e-05	-1e-05	-3e-05	0.00012	-0.00017	-0.00011	-1e-05	3
13359	0.00031	2e-05	-1e-05	-3e-05	0.00012	-0.00017	-0.00011	-1e-05	3
13360	0.00031	2e-05	-1e-05	-3e-05	0.00012	-0.00017	-0.00011	-1e-05	3
13361	0.00031	2e-05	-1e-05	-3e-05	0.00012	-0.00017	-0.00011	-1e-05	3
13362	0.00031	2e-05	-1e-05	-3e-05	0.00012	-0.00017	-0.00011	-1e-05	3
13363	0.00031	2e-05	-1e-05	-3e-05	0.00012	-0.00017	-0.00011	-1e-05	3
13364	0.00031	2e-05	-1e-05	-3e-05	0.00012	-0.00017	-0.00011	-1e-05	3
13365	0.00031	2e-05	-1e-05	-3e-05	0.00012	-0.00017	-0.00011	-1e-05	3
13366	0.00031	2e-05	-1e-05	-3e-05	0.00012	-0.00017	-0.00011	-1e-05	3
13367	0.00031	2e-05	-1e-05	-3e-05	0.00012	-0.00017	-0.00011	-1e-05	3
13368	0.00031	2e-05	-1e-05	-3e-05	0.00012	-0.00017	-0.00011	-1e-05	3
13369	0.00031	2e-05	-1e-05	-3e-05	0.00012	-0.00017	-0.00011	-1e-05	3
13370	0.00031	2e-05	-1e-05	-3e-05	0.00012	-0.00017	-0.00011	-1e-05	3
13371	0.00031	2e-05	-1e-05	-3e-05	0.00012	-0.00017	-0.00011	-1e-05	3
13372	0.00011	0	-2e-05	-8e-05	0.00016	0.0002	0.00013	1e-05	3
13373	0.00011	0	-2e-05	-8e-05	0.00016	0.0002	0.00013	1e-05	3
13374	-2e-05	-4e-05	-6e-05	-9e-05	-0.00037	5e-05	-0.00019	-4e-05	3
13375	-2e-05	-4e-05	-6e-05	-9e-05	-0.00037	5e-05	-0.00019	-4e-05	3
13376	-2e-05	-4e-05	-6e-05	-9e-05	-0.00037	5e-05	-0.00019	-4e-05	3
13377	-2e-05	-4e-05	-6e-05	-9e-05	-0.00037	5e-05	-0.00019	-4e-05	3
13378	-2e-05	-4e-05	-6e-05	-9e-05	-0.00037	5e-05	-0.00019	-4e-05	3
13379	-2e-05	-4e-05	-6e-05	-9e-05	-0.00037	5e-05	-0.00019	-4e-05	3
13380	-2e-05	-4e-05	-6e-05	-9e-05	-0.00037	5e-05	-0.00019	-4e-05	3
13381	-2e-05	-4e-05	-6e-05	-9e-05	-0.00037	5e-05	-0.00019	-4e-05	3
13382	-2e-05	-4e-05	-6e-05	-9e-05	-0.00037	5e-05	-0.00019	-4e-05	3
13383	-2e-05	-4e-05	-6e-05	-9e-05	-0.00037	5e-05	-0.00019	-4e-05	3
13384	-2e-05	-4e-05	-6e-05	-9e-05	-0.00037	5e-05	-0.00019	-4e-05	3
13385	-2e-05	-4e-05	-6e-05	-9e-05	-0.00037	5e-05	-0.00019	-4e-05	3
13387	6e-05	1e-05	1e-05	8e-05	0.00026	0.00023	0.00017	1e-05	3
13389	6e-05	1e-05	1e-05	8e-05	0.00026	0.00023	0.00017	1e-05	3
13390	6e-05	1e-05	1e-05	8e-05	0.00026	0.00023	0.00017	1e-05	3
13391	6e-05	1e-05	1e-05	8e-05	0.00026	0.00023	0.00017	1e-05	3
13392	6e-05	1e-05	1e-05	8e-05	0.00026	0.00023	0.00017	1e-05	3
13393	-0.00018	-0.0001	-0.0001	-0.00014	-0.00037	-0.00026	-7e-05	-8e-05	3
13394	-0.00018	-0.0001	-0.0001	-0.00014	-0.00037	-0.00026	-7e-05	-8e-05	3
13395	-0.00018	-0.0001	-0.0001	-0.00014	-0.00037	-0.00026	-7e-05	-8e-05	3
13396	-0.00018	-0.0001	-0.0001	-0.00014	-0.00037	-0.00026	-7e-05	-8e-05	3
13397	-0.00018	-0.0001	-0.0001	-0.00014	-0.00037	-0.00026	-7e-05	-8e-05	3
13398	-0.00018	-0.0001	-0.0001	-0.00014	-0.00037	-0.00026	-7e-05	-8e-05	3
13399	-0.00018	-0.0001	-0.0001	-0.00014	-0.00037	-0.00026	-7e-05	-8e-05	3
13400	-0.00018	-0.0001	-0.0001	-0.00014	-0.00037	-0.00026	-7e-05	-8e-05	3
13401	-0.00018	-0.0001	-0.0001	-0.00014	-0.00037	-0.00026	-7e-05	-8e-05	3
13402	-0.00018	-0.0001	-0.0001	-0.00014	-0.00037	-0.00026	-7e-05	-8e-05	3
13403	-0.00018	-0.0001	-0.0001	-0.00014	-0.00037	-0.00026	-7e-05	-8e-05	3
13404	-0.00018	-0.0001	-0.0001	-0.00014	-0.00037	-0.00026	-7e-05	-8e-05	3
13405	-0.00018	-0.0001	-0.0001	-0.00014	-0.00037	-0.00026	-7e-05	-8e-05	3
13406	-0.00018	-0.0001	-0.0001	-0.00014	-0.00037	-0.00026	-7e-05	-8e-05	3
13407	-0.00018	-0.0001	-0.0001	-0.00014	-0.00037	-0.00026	-7e-05	-8e-05	3
13408	-0.00018	-0.0001	-0.0001	-0.00014	-0.00037	-0.00026	-7e-05	-8e-05	3
13409	-0.00018	-0.0001	-0.0001	-0.00014	-0.00037	-0.00026	-7e-05	-8e-05	3
13410	-0.00017	5e-05	-3e-05	0.00012	0.00062	-1e-05	-0.0001	4e-05	3
13411	-0.00019	0	8e-05	0.00014	-3e-05	-0.00066	0.00013	4e-05	3
13412	-0.00019	0	8e-05	0.00014	-3e-05	-0.00066	0.00013	4e-05	3
13413	-0.00019	0	8e-05	0.00014	-3e-05	-0.00066	0.00013	4e-05	3
13414	-0.00019	0	8e-05	0.00014	-3e-05	-0.00066	0.00013	4e-05	3
13415	-0.00019	0	8e-05	0.00014	-3e-05	-0.00066	0.00013	4e-05	3
13416	-0.00019	0	8e-05	0.00014	-3e-05	-0.00066	0.00013	4e-05	3
13417	-0.00019	0	8e-05	0.00014	-3e-05	-0.00066	0.00013	4e-05	3
13418	-0.00019	0	8e-05	0.00014	-3e-05	-0.00066	0.00013	4e-05	3
13419	-0.00019	0	8e-05	0.00014	-3e-05	-0.00066	0.00013	4e-05	3
13420	-0.00019	0	8e-05	0.00014	-3e-05	-0.00066	0.00013	4e-05	3
13421	-0.00019	0	8e-05	0.00014	-3e-05	-0.00066	0.00013	4e-05	3
13422	-0.00019	0	8e-05	0.00014	-3e-05	-0.00066	0.00013	4e-05	3
13423	-0.00019	0	8e-05	0.00014	-3e-05	-0.00066	0.00013	4e-05	3
13424	-0.00019	0	8e-05	0.00014	-3e-05	-0.00066	0.00013	4e-05	3
13425	-0.00019	0	8e-05	0.00014	-3e-05	-0.00066	0.00013	4e-05	3
13426	-0.00019	0	8e-05	0.00014	-3e-05	-0.00066	0.00013	4e-05	3
13427	-0.00019	0	8e-05	0.00014	-3e-05	-0.00066	0.00013	4e-05	3
13428	-0.00019	0	8e-05	0.00014	-3e-05	-0.00066	0.00013	4e-05	3
13429	-0.00019	0	8e-05	0.00014	-3e-05	-0.00066	0.00013	4e-05	3
13430	-0.00019	0	8e-05	0.00014	-3e-05	-0.00066	0.00013	4e-05	3
13431	-0.00019	0	8e-05	0.00014	-3e-05	-0.00066	0.00013	4e-05	3
13432	-0.00051	-3e-05	0	2e-05	4e-05	2e-05	-7e-05	-7e-05	3
13433	-0.00051	-3e-05	0	2e-05	4e-05	2e-05	-7e-05	-7e-05	3
13434	-0.0001	1e-05	0	2e-05	8e-05	0.00015	-9e-05	-7e-05	3
13435	-0.0001	1e-05	0	2e-05	8e-05	0.00015	-9e-05	-7e-05	3
13437	-0.0001	1e-05	0	2e-05	8e-05	0.00015	-9e-05	-7e-05	3
13439	-0.0001	1e-05	0	2e-05	8e-05	0.00015	-9e-05	-7e-05	3
13440	-0.0001	1e-05	0	2e-05	8e-05	0.00015	-9e-05	-7e-05	3
13441	-0.0001	1e-05	0	2e-05	8e-05	0.00015	-9e-05	-7e-05	3
13442	-0.0001	1e-05	0	2e-05	8e-05	0.00015	-9e-05	-7e-05	3
13443	-0.0001	1e-05	0	2e-05	8e-05	0.00015	-9e-05	-7e-05	3
13444	-0.0001	1e-05	0	2e-05	8e-05	0.00015	-9e-05	-7e-05	3
13445	-0.0001	1e-05	0	2e-05	8e-05	0.00015	-9e-05	-7e-05	3
13446	0.00023	0	-3e-05	-0.00012	-0.00048	-0.00016	-0.00035	2e-05	3
13447	0.00036	1e-05	-4e-05	-0.00011	-0.0006	-0.00045	0.00015	7e-05	3
13448	0.00036	1e-05	-4e-05	-0.00011	-0.0006	-0.00045	0.00015	7e-05	3
13449	0.00036	1e-05	-4e-05	-0.00011	-0.0006	-0.00045	0.00015	7e-05	3
13450	0.00036	1e-05	-4e-05	-0.00011	-0.0006	-0.00045	0.00015	7e-05	3
13451	0.00036	1e-05	-4e-05	-0.00011	-0.0006	-0.00045	0.00015	7e-05	3
13452	0.00036	1e-05	-4e-05	-0.00011	-0.0006	-0.00045	0.00015	7e-05	3
13453	-0.00041	-1e-05	-3e-05	-0.0001	-0.00025	0.00012	7e-05	1e-05	3
13454	-0.00041	-1e-05	-3e-05	-0.0001	-0.00025	0.00012	7e-05	1e-05	3
13455	-0.00041	-1e-05	-3e-05	-0.0001	-0.00025	0.00012	7e-05	1e-05	3
13456	-0.00041	-1e-05	-3e-05	-0.0001	-0.00025	0.00012	7e-05	1e-05	3
13457	-0.00041	-1e-05	-3e-05	-0.0001	-0.00025	0.00012	7e-05	1e-05	3
13458	-0.00041	-1e-05	-3e-05	-0.0001	-0.00025	0.00012	7e-05	1e-05	3
13459	-0.00041	-1e-05	-3e-05	-0.0001	-0.00025	0.00012	7e-05	1e-05	3
13460	-0.00041	-1e-05	-3e-05	-0.0001	-0.00025	0.00012	7e-05	1e-05	3
13461	-0.00041	-1e-05	-3e-05	-0.0001	-0.00025	0.00012	7e-05	1e-05	3
13462	-0.00041	-1e-05	-3e-05	-0.0001	-0.00025	0.00012	7e-05	1e-05	3
13463	-0.00041	-1e-05	-3e-05	-0.0001	-0.00025	0.00012	7e-05	1e-05	3
13464	-0.00041	-1e-05	-3e-05	-0.0001	-0.00025	0.00012	7e-05	1e-05	3
13465	-0.00041	-1e-05	-3e-05	-0.0001	-0.00025	0.00012	7e-05	1e-05	3
13466	-0.00041	-1e-05	-3e-05	-0.0001	-0.00025	0.00012	7e-05	1e-05	3
13467	-0.00041	-1e-05	-3e-05	-0.0001	-0.00025	0.00012	7e-05	1e-05	3
13468	-0.00041	-1e-05	-3e-05	-0.0001	-0.00025	0.00012	7e-05	1e-05	3
13469	0.0001	1e-05	-1e-05	1e-05	-0.00021	0.00024	7e-05	-3e-05	3
13470	-5e-05	-2e-05	1e-05	8e-05	-4e-05	-0.00017	-9e-05	1e-05	3
13471	0.00051	1e-05	-3e-05	4e-05	0.00028	0.00038	0.00021	3e-05	3
13473	0.00051	1e-05	-3e-05	4e-05	0.00028	0.00038	0.00021	3e-05	3
13474	0.00051	1e-05	-3e-05	4e-05	0.00028	0.00038	0.00021	3e-05	3
13475	0.00051	1e-05	-3e-05	4e-05	0.00028	0.00038	0.00021	3e-05	3
13476	0.00051	1e-05	-3e-05	4e-05	0.00028	0.00038	0.00021	3e-05	3
13477	0.00051	1e-05	-3e-05	4e-05	0.00028	0.00038	0.00021	3e-05	3
13478	0.00051	1e-05	-3e-05	4e-05	0.00028	0.00038	0.00021	3e-05	3
13479	0.00051	1e-05	-3e-05	4e-05	0.00028	0.00038	0.00021	3e-05	3
13480	0.00051	1e-05	-3e-05	4e-05	0.00028	0.00038	0.00021	3e-05	3
13481	0.00051	1e-05	-3e-05	4e-05	0.00028	0.00038	0.00021	3e-05	3
13482	0.00051	1e-05	-3e-05	4e-05	0.00028	0.00038	0.00021	3e-05	3
13483	0.00051	1e-05	-3e-05	4e-05	0.00028	0.00038	0.00021	3e-05	3
13484	0.00051	1e-05	-3e-05	4e-05	0.00028	0.00038	0.00021	3e-05	3
13485	0.00051	1e-05	-3e-05	4e-05	0.00028	0.00038	0.00021	3e-05	3
13487	0.00051	1e-05	-3e-05	4e-05	0.00028	0.00038	0.00021	3e-05	3
13489	0.00051	1e-05	-3e-05	4e-05	0.00028	0.00038	0.00021	3e-05	3
13490	0.00051	1e-05	-3e-05	4e-05	0.00028	0.00038	0.00021	3e-05	3
13491	0.00051	1e-05	-3e-05	4e-05	0.00028	0.00038	0.00021	3e-05	3
13492	-3e-05	0	6e-05	4e-05	-0.00043	-0.00083	-0.00011	-7e-05	3
13493	-3e-05	0	6e-05	4e-05	-0.00043	-0.00083	-0.00011	-7e-05	3
13494	-8e-05	-2e-05	-7e-05	-0.00015	8e-05	-9e-05	-0.0001	-2e-05	3
13495	-8e-05	-2e-05	-7e-05	-0.00015	8e-05	-9e-05	-0.0001	-2e-05	3
13496	-8e-05	-2e-05	-7e-05	-0.00015	8e-05	-9e-05	-0.0001	-2e-05	3
13497	-8e-05	-2e-05	-7e-05	-0.00015	8e-05	-9e-05	-0.0001	-2e-05	3
13498	-8e-05	-2e-05	-7e-05	-0.00015	8e-05	-9e-05	-0.0001	-2e-05	3
13499	-8e-05	-2e-05	-7e-05	-0.00015	8e-05	-9e-05	-0.0001	-2e-05	3
13500	-8e-05	-2e-05	-7e-05	-0.00015	8e-05	-9e-05	-0.0001	-2e-05	3
13501	-8e-05	-2e-05	-7e-05	-0.00015	8e-05	-9e-05	-0.0001	-2e-05	3
13502	-8e-05	-2e-05	-7e-05	-0.00015	8e-05	-9e-05	-0.0001	-2e-05	3
13504	-8e-05	-2e-05	-7e-05	-0.00015	8e-05	-9e-05	-0.0001	-2e-05	3
13505	-8e-05	-2e-05	-7e-05	-0.00015	8e-05	-9e-05	-0.0001	-2e-05	3
13506	-8e-05	-2e-05	-7e-05	-0.00015	8e-05	-9e-05	-0.0001	-2e-05	3
13507	0.00014	1e-05	-9e-05	-0.0001	-0.00037	-0.00014	9e-05	-2e-05	3
13508	0.00017	-8e-05	2e-05	5e-05	0.00027	0.00041	3e-05	0.0001	3
13509	0.00017	-8e-05	2e-05	5e-05	0.00027	0.00041	3e-05	0.0001	3
13510	0.00017	-8e-05	2e-05	5e-05	0.00027	0.00041	3e-05	0.0001	3
13511	0.00017	-8e-05	2e-05	5e-05	0.00027	0.00041	3e-05	0.0001	3
13512	0.00017	-8e-05	2e-05	5e-05	0.00027	0.00041	3e-05	0.0001	3
13513	0.00017	-8e-05	2e-05	5e-05	0.00027	0.00041	3e-05	0.0001	3
13514	-0.00023	-1e-05	3e-05	9e-05	0.00025	0.0005	7e-05	-3e-05	3
13515	-0.00023	-1e-05	3e-05	9e-05	0.00025	0.0005	7e-05	-3e-05	3
13516	-0.00023	-1e-05	3e-05	9e-05	0.00025	0.0005	7e-05	-3e-05	3
13517	-0.00023	-1e-05	3e-05	9e-05	0.00025	0.0005	7e-05	-3e-05	3
13518	-0.00023	-1e-05	3e-05	9e-05	0.00025	0.0005	7e-05	-3e-05	3
13519	-0.00023	-1e-05	3e-05	9e-05	0.00025	0.0005	7e-05	-3e-05	3
13520	-0.00023	-1e-05	3e-05	9e-05	0.00025	0.0005	7e-05	-3e-05	3
13521	-0.00023	-1e-05	3e-05	9e-05	0.00025	0.0005	7e-05	-3e-05	3
13522	-0.00023	-1e-05	3e-05	9e-05	0.00025	0.0005	7e-05	-3e-05	3
13523	-0.00023	-1e-05	3e-05	9e-05	0.00025	0.0005	7e-05	-3e-05	3
13524	-0.00023	-1e-05	3e-05	9e-05	0.00025	0.0005	7e-05	-3e-05	3
13525	-0.00023	-1e-05	3e-05	9e-05	0.00025	0.0005	7e-05	-3e-05	3
13526	-0.00023	-1e-05	3e-05	9e-05	0.00025	0.0005	7e-05	-3e-05	3
13527	-0.00023	-1e-05	3e-05	9e-05	0.00025	0.0005	7e-05	-3e-05	3
13528	-0.00023	-1e-05	3e-05	9e-05	0.00025	0.0005	7e-05	-3e-05	3
13529	-0.00023	-1e-05	3e-05	9e-05	0.00025	0.0005	7e-05	-3e-05	3
13530	-0.00023	-1e-05	3e-05	9e-05	0.00025	0.0005	7e-05	-3e-05	3
13531	4e-05	-3e-05	-4e-05	0.00011	-7e-05	4e-05	-0.00011	-4e-05	3
13532	0.00032	5e-05	-2e-05	-6e-05	-0.00059	-0.00033	-5e-05	1e-05	3
13533	0.00032	5e-05	-2e-05	-6e-05	-0.00059	-0.00033	-5e-05	1e-05	3
13534	0.00032	5e-05	-2e-05	-6e-05	-0.00059	-0.00033	-5e-05	1e-05	3
13535	0.00032	5e-05	-2e-05	-6e-05	-0.00059	-0.00033	-5e-05	1e-05	3
13537	0.00032	5e-05	-2e-05	-6e-05	-0.00059	-0.00033	-5e-05	1e-05	3
13539	0.00032	5e-05	-2e-05	-6e-05	-0.00059	-0.00033	-5e-05	1e-05	3
13540	0.00032	5e-05	-2e-05	-6e-05	-0.00059	-0.00033	-5e-05	1e-05	3
13541	0.00032	5e-05	-2e-05	-6e-05	-0.00059	-0.00033	-5e-05	1e-05	3
13542	0.00032	5e-05	-2e-05	-6e-05	-0.00059	-0.00033	-5e-05	1e-05	3
13543	0.00032	5e-05	-2e-05	-6e-05	-0.00059	-0.00033	-5e-05	1e-05	3
13544	0.00032	5e-05	-2e-05	-6e-05	-0.00059	-0.00033	-5e-05	1e-05	3
13545	0.00032	5e-05	-2e-05	-6e-05	-0.00059	-0.00033	-5e-05	1e-05	3
13546	0.00032	5e-05	-2e-05	-6e-05	-0.00059	-0.00033	-5e-05	1e-05	3
13547	0.00032	5e-05	-2e-05	-6e-05	-0.00059	-0.00033	-5e-05	1e-05	3
13548	0.00032	5e-05	-2e-05	-6e-05	-0.00059	-0.00033	-5e-05	1e-05	3
13549	0.00032	5e-05	-2e-05	-6e-05	-0.00059	-0.00033	-5e-05	1e-05	3
13550	0.00032	5e-05	-2e-05	-6e-05	-0.00059	-0.00033	-5e-05	1e-05	3
13551	0.00032	5e-05	-2e-05	-6e-05	-0.00059	-0.00033	-5e-05	1e-05	3
13552	0.00032	5e-05	-2e-05	-6e-05	-0.00059	-0.00033	-5e-05	1e-05	3
13553	-0.00034	-1e-05	0	3e-05	0	0.00024	-0.00013	-6e-05	3
13554	-0.00034	-1e-05	0	3e-05	0	0.00024	-0.00013	-6e-05	3
13555	4e-05	-2e-05	-3e-05	-9e-05	-0.00033	-0.00042	4e-05	-4e-05	3
13556	4e-05	-2e-05	-3e-05	-9e-05	-0.00033	-0.00042	4e-05	-4e-05	3
13557	4e-05	-2e-05	-3e-05	-9e-05	-0.00033	-0.00042	4e-05	-4e-05	3
13558	4e-05	-2e-05	-3e-05	-9e-05	-0.00033	-0.00042	4e-05	-4e-05	3
13559	4e-05	-2e-05	-3e-05	-9e-05	-0.00033	-0.00042	4e-05	-4e-05	3
13560	4e-05	-2e-05	-3e-05	-9e-05	-0.00033	-0.00042	4e-05	-4e-05	3
13561	4e-05	-2e-05	-3e-05	-9e-05	-0.00033	-0.00042	4e-05	-4e-05	3
13562	4e-05	-2e-05	-3e-05	-9e-05	-0.00033	-0.00042	4e-05	-4e-05	3
13563	4e-05	-2e-05	-3e-05	-9e-05	-0.00033	-0.00042	4e-05	-4e-05	3
13564	4e-05	-2e-05	-3e-05	-9e-05	-0.00033	-0.00042	4e-05	-4e-05	3
13565	4e-05	-2e-05	-3e-05	-9e-05	-0.00033	-0.00042	4e-05	-4e-05	3
13566	4e-05	-2e-05	-3e-05	-9e-05	-0.00033	-0.00042	4e-05	-4e-05	3
13567	2e-05	-0.00012	-6e-05	-0.0002	-0.00027	-0.00015	-6e-05	-4e-05	3
13568	2e-05	-0.00012	-6e-05	-0.0002	-0.00027	-0.00015	-6e-05	-4e-05	3
13569	2e-05	-0.00012	-6e-05	-0.0002	-0.00027	-0.00015	-6e-05	-4e-05	3
13570	2e-05	-0.00012	-6e-05	-0.0002	-0.00027	-0.00015	-6e-05	-4e-05	3
13571	2e-05	-0.00012	-6e-05	-0.0002	-0.00027	-0.00015	-6e-05	-4e-05	3
13572	2e-05	-0.00012	-6e-05	-0.0002	-0.00027	-0.00015	-6e-05	-4e-05	3
13573	2e-05	-0.00012	-6e-05	-0.0002	-0.00027	-0.00015	-6e-05	-4e-05	3
13574	2e-05	-0.00012	-6e-05	-0.0002	-0.00027	-0.00015	-6e-05	-4e-05	3
13575	2e-05	-0.00012	-6e-05	-0.0002	-0.00027	-0.00015	-6e-05	-4e-05	3
13576	-2e-05	1e-05	-2e-05	7e-05	0.00038	0.00039	-2e-05	0	3
13577	-2e-05	1e-05	-2e-05	7e-05	0.00038	0.00039	-2e-05	0	3
13578	-2e-05	1e-05	-2e-05	7e-05	0.00038	0.00039	-2e-05	0	3
13579	-2e-05	1e-05	-2e-05	7e-05	0.00038	0.00039	-2e-05	0	3
13580	-2e-05	1e-05	-2e-05	7e-05	0.00038	0.00039	-2e-05	0	3
13581	-2e-05	1e-05	-2e-05	7e-05	0.00038	0.00039	-2e-05	0	3
13582	-2e-05	1e-05	-2e-05	7e-05	0.00038	0.00039	-2e-05	0	3
13583	-2e-05	1e-05	-2e-05	7e-05	0.00038	0.00039	-2e-05	0	3
13584	-2e-05	1e-05	-2e-05	7e-05	0.00038	0.00039	-2e-05	0	3
13585	-2e-05	1e-05	-2e-05	7e-05	0.00038	0.00039	-2e-05	0	3
13587	-2e-05	1e-05	-2e-05	7e-05	0.00038	0.00039	-2e-05	0	3
13589	-2e-05	1e-05	-2e-05	7e-05	0.00038	0.00039	-2e-05	0	3
13590	-2e-05	1e-05	-2e-05	7e-05	0.00038	0.00039	-2e-05	0	3
13591	0.00033	6e-05	-1e-05	-0.00013	-0.00049	-0.00017	-0.0002	-3e-05	3
13592	-0.00016	-7e-05	-1e-05	-4e-05	0.00038	6e-05	-0.00012	9e-05	3
13593	-0.00016	-7e-05	-1e-05	-4e-05	0.00038	6e-05	-0.00012	9e-05	3
13594	-0.00016	-7e-05	-1e-05	-4e-05	0.00038	6e-05	-0.00012	9e-05	3
13595	-0.00016	-7e-05	-1e-05	-4e-05	0.00038	6e-05	-0.00012	9e-05	3
13596	-0.00016	-7e-05	-1e-05	-4e-05	0.00038	6e-05	-0.00012	9e-05	3
13597	-0.00016	-7e-05	-1e-05	-4e-05	0.00038	6e-05	-0.00012	9e-05	3
13598	-0.00016	-7e-05	-1e-05	-4e-05	0.00038	6e-05	-0.00012	9e-05	3
13599	-0.00016	-7e-05	-1e-05	-4e-05	0.00038	6e-05	-0.00012	9e-05	3
13600	-0.00016	-7e-05	-1e-05	-4e-05	0.00038	6e-05	-0.00012	9e-05	3
13601	-0.00016	-7e-05	-1e-05	-4e-05	0.00038	6e-05	-0.00012	9e-05	3
13602	-0.00016	-7e-05	-1e-05	-4e-05	0.00038	6e-05	-0.00012	9e-05	3
13603	-0.00016	-7e-05	-1e-05	-4e-05	0.00038	6e-05	-0.00012	9e-05	3
13604	-0.00016	-7e-05	-1e-05	-4e-05	0.00038	6e-05	-0.00012	9e-05	3
13605	-0.00016	-7e-05	-1e-05	-4e-05	0.00038	6e-05	-0.00012	9e-05	3
13606	-0.00016	-7e-05	-1e-05	-4e-05	0.00038	6e-05	-0.00012	9e-05	3
13607	-0.00016	-7e-05	-1e-05	-4e-05	0.00038	6e-05	-0.00012	9e-05	3
13608	-0.00016	-7e-05	-1e-05	-4e-05	0.00038	6e-05	-0.00012	9e-05	3
13609	-0.00016	-7e-05	-1e-05	-4e-05	0.00038	6e-05	-0.00012	9e-05	3
13610	-0.00016	-7e-05	-1e-05	-4e-05	0.00038	6e-05	-0.00012	9e-05	3
13611	-0.00016	-7e-05	-1e-05	-4e-05	0.00038	6e-05	-0.00012	9e-05	3
13612	-0.00016	-7e-05	-1e-05	-4e-05	0.00038	6e-05	-0.00012	9e-05	3
13613	3e-05	-1e-05	-2e-05	-6e-05	-1e-05	-0.00027	4e-05	-4e-05	3
13614	3e-05	-1e-05	-2e-05	-6e-05	-1e-05	-0.00027	4e-05	-4e-05	3
13615	0	-1e-05	0	1e-05	-0.00016	0.0001	-6e-05	-5e-05	3
13616	0	-1e-05	0	1e-05	-0.00016	0.0001	-6e-05	-5e-05	3
13617	0	-1e-05	0	1e-05	-0.00016	0.0001	-6e-05	-5e-05	3
13618	0	-1e-05	0	1e-05	-0.00016	0.0001	-6e-05	-5e-05	3
13619	0	-1e-05	0	1e-05	-0.00016	0.0001	-6e-05	-5e-05	3
13620	0	-1e-05	0	1e-05	-0.00016	0.0001	-6e-05	-5e-05	3
13621	0	-1e-05	0	1e-05	-0.00016	0.0001	-6e-05	-5e-05	3
13622	0	-1e-05	0	1e-05	-0.00016	0.0001	-6e-05	-5e-05	3
13623	0	-1e-05	0	1e-05	-0.00016	0.0001	-6e-05	-5e-05	3
13624	0	-1e-05	0	1e-05	-0.00016	0.0001	-6e-05	-5e-05	3
13625	0	-1e-05	0	1e-05	-0.00016	0.0001	-6e-05	-5e-05	3
13626	0	-1e-05	0	1e-05	-0.00016	0.0001	-6e-05	-5e-05	3
13627	0.00021	-1e-05	-0.0001	-0.00012	0.00029	-7e-05	6e-05	0	3
13628	0.00021	-1e-05	-0.0001	-0.00012	0.00029	-7e-05	6e-05	0	3
13629	0.00021	-1e-05	-0.0001	-0.00012	0.00029	-7e-05	6e-05	0	3
13630	0.00021	-1e-05	-0.0001	-0.00012	0.00029	-7e-05	6e-05	0	3
13631	0.00021	-1e-05	-0.0001	-0.00012	0.00029	-7e-05	6e-05	0	3
13632	0.00021	-1e-05	-0.0001	-0.00012	0.00029	-7e-05	6e-05	0	3
13633	0.00021	-1e-05	-0.0001	-0.00012	0.00029	-7e-05	6e-05	0	3
13634	0.00021	-1e-05	-0.0001	-0.00012	0.00029	-7e-05	6e-05	0	3
13635	0.00021	-1e-05	-0.0001	-0.00012	0.00029	-7e-05	6e-05	0	3
13637	8e-05	3e-05	2e-05	5e-05	0.00044	0.00028	0.00021	3e-05	3
13639	8e-05	3e-05	2e-05	5e-05	0.00044	0.00028	0.00021	3e-05	3
13640	8e-05	3e-05	2e-05	5e-05	0.00044	0.00028	0.00021	3e-05	3
13641	8e-05	3e-05	2e-05	5e-05	0.00044	0.00028	0.00021	3e-05	3
13642	8e-05	3e-05	2e-05	5e-05	0.00044	0.00028	0.00021	3e-05	3
13643	8e-05	3e-05	2e-05	5e-05	0.00044	0.00028	0.00021	3e-05	3
13644	8e-05	3e-05	2e-05	5e-05	0.00044	0.00028	0.00021	3e-05	3
13645	8e-05	3e-05	2e-05	5e-05	0.00044	0.00028	0.00021	3e-05	3
13646	8e-05	3e-05	2e-05	5e-05	0.00044	0.00028	0.00021	3e-05	3
13647	8e-05	3e-05	2e-05	5e-05	0.00044	0.00028	0.00021	3e-05	3
13648	8e-05	3e-05	2e-05	5e-05	0.00044	0.00028	0.00021	3e-05	3
13649	8e-05	3e-05	2e-05	5e-05	0.00044	0.00028	0.00021	3e-05	3
13650	8e-05	3e-05	2e-05	5e-05	0.00044	0.00028	0.00021	3e-05	3
13651	5e-05	-2e-05	7e-05	5e-05	0.00056	0.00074	-4e-05	8e-05	3
13652	-2e-05	-1e-05	1e-05	-1e-05	-0.00032	-0.00034	7e-05	-1e-05	3
13653	-2e-05	-1e-05	1e-05	-1e-05	-0.00032	-0.00034	7e-05	-1e-05	3
13654	-2e-05	-1e-05	1e-05	-1e-05	-0.00032	-0.00034	7e-05	-1e-05	3
13655	-2e-05	-1e-05	1e-05	-1e-05	-0.00032	-0.00034	7e-05	-1e-05	3
13656	-2e-05	-1e-05	1e-05	-1e-05	-0.00032	-0.00034	7e-05	-1e-05	3
13657	-2e-05	-1e-05	1e-05	-1e-05	-0.00032	-0.00034	7e-05	-1e-05	3
13658	-2e-05	-1e-05	1e-05	-1e-05	-0.00032	-0.00034	7e-05	-1e-05	3
13659	-2e-05	-1e-05	1e-05	-1e-05	-0.00032	-0.00034	7e-05	-1e-05	3
13660	-2e-05	-1e-05	1e-05	-1e-05	-0.00032	-0.00034	7e-05	-1e-05	3
13661	-2e-05	-1e-05	1e-05	-1e-05	-0.00032	-0.00034	7e-05	-1e-05	3
13662	-2e-05	-1e-05	1e-05	-1e-05	-0.00032	-0.00034	7e-05	-1e-05	3
13663	-2e-05	-1e-05	1e-05	-1e-05	-0.00032	-0.00034	7e-05	-1e-05	3
13664	-2e-05	-1e-05	1e-05	-1e-05	-0.00032	-0.00034	7e-05	-1e-05	3
13665	-2e-05	-1e-05	1e-05	-1e-05	-0.00032	-0.00034	7e-05	-1e-05	3
13666	-2e-05	-1e-05	1e-05	-1e-05	-0.00032	-0.00034	7e-05	-1e-05	3
13667	-2e-05	-1e-05	1e-05	-1e-05	-0.00032	-0.00034	7e-05	-1e-05	3
13668	-2e-05	-1e-05	1e-05	-1e-05	-0.00032	-0.00034	7e-05	-1e-05	3
13669	-2e-05	-1e-05	1e-05	-1e-05	-0.00032	-0.00034	7e-05	-1e-05	3
13670	-2e-05	-1e-05	1e-05	-1e-05	-0.00032	-0.00034	7e-05	-1e-05	3
13671	-2e-05	-1e-05	1e-05	-1e-05	-0.00032	-0.00034	7e-05	-1e-05	3
13672	-2e-05	-1e-05	1e-05	-1e-05	-0.00032	-0.00034	7e-05	-1e-05	3
13673	7e-05	-1e-05	0	-8e-05	-0.00029	0.00016	0	0	3
13674	7e-05	-1e-05	0	-8e-05	-0.00029	0.00016	0	0	3
13675	-0.00011	-6e-05	-3e-05	-4e-05	-0.00039	-0.00014	-7e-05	-8e-05	3
13676	-0.00011	-6e-05	-3e-05	-4e-05	-0.00039	-0.00014	-7e-05	-8e-05	3
13677	-0.00011	-6e-05	-3e-05	-4e-05	-0.00039	-0.00014	-7e-05	-8e-05	3
13678	-0.00011	-6e-05	-3e-05	-4e-05	-0.00039	-0.00014	-7e-05	-8e-05	3
13679	-0.00011	-6e-05	-3e-05	-4e-05	-0.00039	-0.00014	-7e-05	-8e-05	3
13680	-0.00011	-6e-05	-3e-05	-4e-05	-0.00039	-0.00014	-7e-05	-8e-05	3
13681	-0.00011	-6e-05	-3e-05	-4e-05	-0.00039	-0.00014	-7e-05	-8e-05	3
13682	-0.00011	-6e-05	-3e-05	-4e-05	-0.00039	-0.00014	-7e-05	-8e-05	3
13683	-0.00011	-6e-05	-3e-05	-4e-05	-0.00039	-0.00014	-7e-05	-8e-05	3
13684	-0.00011	-6e-05	-3e-05	-4e-05	-0.00039	-0.00014	-7e-05	-8e-05	3
13685	-0.00011	-6e-05	-3e-05	-4e-05	-0.00039	-0.00014	-7e-05	-8e-05	3
13687	0.00019	8e-05	-1e-05	0.00016	0.00078	0.00043	-1e-05	0.0001	3
13689	0.00019	8e-05	-1e-05	0.00016	0.00078	0.00043	-1e-05	0.0001	3
13690	0.00019	8e-05	-1e-05	0.00016	0.00078	0.00043	-1e-05	0.0001	3
13691	0.00019	8e-05	-1e-05	0.00016	0.00078	0.00043	-1e-05	0.0001	3
13692	0.00019	8e-05	-1e-05	0.00016	0.00078	0.00043	-1e-05	0.0001	3
13693	0.00019	8e-05	-1e-05	0.00016	0.00078	0.00043	-1e-05	0.0001	3
13694	0.00019	8e-05	-1e-05	0.00016	0.00078	0.00043	-1e-05	0.0001	3
13695	9e-05	2e-05	-3e-05	5e-05	-7e-05	-0.00075	-0.0001	-6e-05	3
13696	9e-05	2e-05	-3e-05	5e-05	-7e-05	-0.00075	-0.0001	-6e-05	3
13697	9e-05	2e-05	-3e-05	5e-05	-7e-05	-0.00075	-0.0001	-6e-05	3
45919	0.00015	-1e-05	2e-05	1e-05	0.00021	4e-05	-2e-05	-4e-05	3
45920	0.00015	-1e-05	2e-05	1e-05	0.00021	4e-05	-2e-05	-4e-05	3
45921	0.00015	-1e-05	2e-05	1e-05	0.00021	4e-05	-2e-05	-4e-05	3
45922	0.00015	-1e-05	2e-05	1e-05	0.00021	4e-05	-2e-05	-4e-05	3
45923	0.00015	-1e-05	2e-05	1e-05	0.00021	4e-05	-2e-05	-4e-05	3
45924	0.00015	-1e-05	2e-05	1e-05	0.00021	4e-05	-2e-05	-4e-05	3
45925	0.00015	-1e-05	2e-05	1e-05	0.00021	4e-05	-2e-05	-4e-05	3
45926	0.00015	-1e-05	2e-05	1e-05	0.00021	4e-05	-2e-05	-4e-05	3
45927	0.00015	-1e-05	2e-05	1e-05	0.00021	4e-05	-2e-05	-4e-05	3
45928	0.00015	-1e-05	2e-05	1e-05	0.00021	4e-05	-2e-05	-4e-05	3
45929	0.00015	-1e-05	2e-05	1e-05	0.00021	4e-05	-2e-05	-4e-05	3
45930	0.00015	-1e-05	2e-05	1e-05	0.00021	4e-05	-2e-05	-4e-05	3
45931	0.00015	-1e-05	2e-05	1e-05	0.00021	4e-05	-2e-05	-4e-05	3
45932	0.00015	-1e-05	2e-05	1e-05	0.00021	4e-05	-2e-05	-4e-05	3
45933	0.00015	-1e-05	2e-05	1e-05	0.00021	4e-05	-2e-05	-4e-05	3
45934	0.00015	-1e-05	2e-05	1e-05	0.00021	4e-05	-2e-05	-4e-05	3
45935	0.00015	-1e-05	2e-05	1e-05	0.00021	4e-05	-2e-05	-4e-05	3
45937	-0.00023	-4e-05	-7e-05	-1e-05	-0.00018	-5e-05	-7e-05	-1e-05	3
45939	-0.00023	-4e-05	-7e-05	-1e-05	-0.00018	-5e-05	-7e-05	-1e-05	3
45940	-0.00023	-4e-05	-7e-05	-1e-05	-0.00018	-5e-05	-7e-05	-1e-05	3
45941	-0.00023	-4e-05	-7e-05	-1e-05	-0.00018	-5e-05	-7e-05	-1e-05	3
45942	-0.00023	-4e-05	-7e-05	-1e-05	-0.00018	-5e-05	-7e-05	-1e-05	3
45943	-0.00023	-4e-05	-7e-05	-1e-05	-0.00018	-5e-05	-7e-05	-1e-05	3
45944	-0.00023	-4e-05	-7e-05	-1e-05	-0.00018	-5e-05	-7e-05	-1e-05	3
45945	-0.00023	-4e-05	-7e-05	-1e-05	-0.00018	-5e-05	-7e-05	-1e-05	3
45946	-0.00023	-4e-05	-7e-05	-1e-05	-0.00018	-5e-05	-7e-05	-1e-05	3
45947	-0.00023	-4e-05	-7e-05	-1e-05	-0.00018	-5e-05	-7e-05	-1e-05	3
45948	-0.00023	-4e-05	-7e-05	-1e-05	-0.00018	-5e-05	-7e-05	-1e-05	3
45949	-0.00023	-4e-05	-7e-05	-1e-05	-0.00018	-5e-05	-7e-05	-1e-05	3
45950	-0.00023	-4e-05	-7e-05	-1e-05	-0.00018	-5e-05	-7e-05	-1e-05	3
45951	-0.00012	-5e-05	-3e-05	-0.0001	-0.00059	-0.0003	-0.00016	-0.00012	3
45952	0.00015	7e-05	2e-05	3e-05	-7e-05	-2e-05	3e-05	6e-05	3
45953	0.00015	7e-05	2e-05	3e-05	-7e-05	-2e-05	3e-05	6e-05	3
45954	0.00015	7e-05	2e-05	3e-05	-7e-05	-2e-05	3e-05	6e-05	3
45955	0.00015	7e-05	2e-05	3e-05	-7e-05	-2e-05	3e-05	6e-05	3
45956	0.00015	7e-05	2e-05	3e-05	-7e-05	-2e-05	3e-05	6e-05	3
45957	0.00015	7e-05	2e-05	3e-05	-7e-05	-2e-05	3e-05	6e-05	3
45958	0.00015	7e-05	2e-05	3e-05	-7e-05	-2e-05	3e-05	6e-05	3
