24551	9e-05	0.00011	2e-05	0.00073	-8e-05	-0.00013	-4e-05	1e-05	5
24552	9e-05	0.00011	2e-05	0.00073	-8e-05	-0.00013	-4e-05	1e-05	5
24553	9e-05	0.00011	2e-05	0.00073	-8e-05	-0.00013	-4e-05	1e-05	5
24554	9e-05	0.00011	2e-05	0.00073	-8e-05	-0.00013	-4e-05	1e-05	5
24555	9e-05	0.00011	2e-05	0.00073	-8e-05	-0.00013	-4e-05	1e-05	5
24556	9e-05	0.00011	2e-05	0.00073	-8e-05	-0.00013	-4e-05	1e-05	5
24557	9e-05	0.00011	2e-05	0.00073	-8e-05	-0.00013	-4e-05	1e-05	5
24558	9e-05	0.00011	2e-05	0.00073	-8e-05	-0.00013	-4e-05	1e-05	5
24559	9e-05	0.00011	2e-05	0.00073	-8e-05	-0.00013	-4e-05	1e-05	5
24560	9e-05	0.00011	2e-05	0.00073	-8e-05	-0.00013	-4e-05	1e-05	5
24561	9e-05	0.00011	2e-05	0.00073	-8e-05	-0.00013	-4e-05	1e-05	5
24562	-0.00043	-1e-05	0.00018	0.00044	-0.00043	-8e-05	-3e-05	-8e-05	5
24563	-0.00043	-1e-05	0.00018	0.00044	-0.00043	-8e-05	-3e-05	-8e-05	5
24564	-0.0002	-0.00011	-5e-05	-0.0004	-0.00039	2e-05	2e-05	1e-05	5
24565	-0.0002	-0.00011	-5e-05	-0.0004	-0.00039	2e-05	2e-05	1e-05	5
24566	-0.0002	-0.00011	-5e-05	-0.0004	-0.00039	2e-05	2e-05	1e-05	5
24567	-0.0002	-0.00011	-5e-05	-0.0004	-0.00039	2e-05	2e-05	1e-05	5
24568	-0.0002	-0.00011	-5e-05	-0.0004	-0.00039	2e-05	2e-05	1e-05	5
24569	-0.0002	-0.00011	-5e-05	-0.0004	-0.00039	2e-05	2e-05	1e-05	5
24570	-0.0002	-0.00011	-5e-05	-0.0004	-0.00039	2e-05	2e-05	1e-05	5
24571	-0.0002	-0.00011	-5e-05	-0.0004	-0.00039	2e-05	2e-05	1e-05	5
24572	-0.0002	-0.00011	-5e-05	-0.0004	-0.00039	2e-05	2e-05	1e-05	5
24573	-0.0002	-0.00011	-5e-05	-0.0004	-0.00039	2e-05	2e-05	1e-05	5
24574	-0.0002	-0.00011	-5e-05	-0.0004	-0.00039	2e-05	2e-05	1e-05	5
24575	-0.0002	-0.00011	-5e-05	-0.0004	-0.00039	2e-05	2e-05	1e-05	5
24576	-0.0002	-0.00011	-5e-05	-0.0004	-0.00039	2e-05	2e-05	1e-05	5
24577	-0.00017	-4e-05	0.0001	8e-05	0.0004	6e-05	0	-2e-05	5
24578	-0.00017	-4e-05	0.0001	8e-05	0.0004	6e-05	0	-2e-05	5
24579	-0.00011	0.00014	0.00038	0.00038	-0.00024	-2e-05	0	1e-05	5
24580	-0.00011	0.00014	0.00038	0.00038	-0.00024	-2e-05	0	1e-05	5
24581	-0.00011	0.00014	0.00038	0.00038	-0.00024	-2e-05	0	1e-05	5
24582	-0.00011	0.00014	0.00038	0.00038	-0.00024	-2e-05	0	1e-05	5
24583	-0.00011	0.00014	0.00038	0.00038	-0.00024	-2e-05	0	1e-05	5
24584	-0.00011	0.00014	0.00038	0.00038	-0.00024	-2e-05	0	1e-05	5
24585	-0.00011	0.00014	0.00038	0.00038	-0.00024	-2e-05	0	1e-05	5
24587	-0.00011	0.00014	0.00038	0.00038	-0.00024	-2e-05	0	1e-05	5
24589	-0.00011	0.00014	0.00038	0.00038	-0.00024	-2e-05	0	1e-05	5
24590	-0.00011	0.00014	0.00038	0.00038	-0.00024	-2e-05	0	1e-05	5
24591	-0.00011	0.00014	0.00038	0.00038	-0.00024	-2e-05	0	1e-05	5
24592	-0.00011	0.00014	0.00038	0.00038	-0.00024	-2e-05	0	1e-05	5
24593	-0.00011	0.00014	0.00038	0.00038	-0.00024	-2e-05	0	1e-05	5
24594	-0.00011	0.00014	0.00038	0.00038	-0.00024	-2e-05	0	1e-05	5
24595	-0.00011	0.00014	0.00038	0.00038	-0.00024	-2e-05	0	1e-05	5
24596	-0.00011	0.00014	0.00038	0.00038	-0.00024	-2e-05	0	1e-05	5
24597	-0.00011	0.00014	0.00038	0.00038	-0.00024	-2e-05	0	1e-05	5
24598	-0.00011	0.00014	0.00038	0.00038	-0.00024	-2e-05	0	1e-05	5
24599	-0.00011	0.00014	0.00038	0.00038	-0.00024	-2e-05	0	1e-05	5
24600	0.00013	-7e-05	-0.00026	-0.00101	4e-05	-3e-05	-1e-05	-1e-05	5
24601	0.00019	0	-0.00024	-0.00049	-0.00023	-0.00012	-2e-05	0	5
24602	3e-05	-6e-05	0.00035	-5e-05	1e-05	-4e-05	-4e-05	-1e-05	5
24603	3e-05	-6e-05	0.00035	-5e-05	1e-05	-4e-05	-4e-05	-1e-05	5
24604	3e-05	-6e-05	0.00035	-5e-05	1e-05	-4e-05	-4e-05	-1e-05	5
24605	3e-05	-6e-05	0.00035	-5e-05	1e-05	-4e-05	-4e-05	-1e-05	5
24606	3e-05	-6e-05	0.00035	-5e-05	1e-05	-4e-05	-4e-05	-1e-05	5
24607	3e-05	-6e-05	0.00035	-5e-05	1e-05	-4e-05	-4e-05	-1e-05	5
24608	3e-05	-6e-05	0.00035	-5e-05	1e-05	-4e-05	-4e-05	-1e-05	5
24609	3e-05	-6e-05	0.00035	-5e-05	1e-05	-4e-05	-4e-05	-1e-05	5
24610	3e-05	-6e-05	0.00035	-5e-05	1e-05	-4e-05	-4e-05	-1e-05	5
24611	3e-05	-6e-05	0.00035	-5e-05	1e-05	-4e-05	-4e-05	-1e-05	5
24612	3e-05	-6e-05	0.00035	-5e-05	1e-05	-4e-05	-4e-05	-1e-05	5
24613	3e-05	-6e-05	0.00035	-5e-05	1e-05	-4e-05	-4e-05	-1e-05	5
24614	3e-05	-6e-05	0.00035	-5e-05	1e-05	-4e-05	-4e-05	-1e-05	5
24615	3e-05	-6e-05	0.00035	-5e-05	1e-05	-4e-05	-4e-05	-1e-05	5
24616	3e-05	-6e-05	0.00035	-5e-05	1e-05	-4e-05	-4e-05	-1e-05	5
24617	3e-05	-6e-05	0.00035	-5e-05	1e-05	-4e-05	-4e-05	-1e-05	5
24618	3e-05	-6e-05	0.00035	-5e-05	1e-05	-4e-05	-4e-05	-1e-05	5
24619	3e-05	-6e-05	0.00035	-5e-05	1e-05	-4e-05	-4e-05	-1e-05	5
24620	3e-05	-6e-05	0.00035	-5e-05	1e-05	-4e-05	-4e-05	-1e-05	5
24621	3e-05	-6e-05	0.00035	-5e-05	1e-05	-4e-05	-4e-05	-1e-05	5
24622	0.0005	1e-05	0.00014	0.00053	-9e-05	3e-05	-1e-05	0	5
24623	0.0005	1e-05	0.00014	0.00053	-9e-05	3e-05	-1e-05	0	5
24624	6e-05	-3e-05	-7e-05	0.00022	0.00028	-1e-05	-3e-05	-3e-05	5
24625	6e-05	-3e-05	-7e-05	0.00022	0.00028	-1e-05	-3e-05	-3e-05	5
24626	6e-05	-3e-05	-7e-05	0.00022	0.00028	-1e-05	-3e-05	-3e-05	5
24627	6e-05	-3e-05	-7e-05	0.00022	0.00028	-1e-05	-3e-05	-3e-05	5
24628	6e-05	-3e-05	-7e-05	0.00022	0.00028	-1e-05	-3e-05	-3e-05	5
24629	6e-05	-3e-05	-7e-05	0.00022	0.00028	-1e-05	-3e-05	-3e-05	5
24630	6e-05	-3e-05	-7e-05	0.00022	0.00028	-1e-05	-3e-05	-3e-05	5
24631	6e-05	-3e-05	-7e-05	0.00022	0.00028	-1e-05	-3e-05	-3e-05	5
24632	6e-05	-3e-05	-7e-05	0.00022	0.00028	-1e-05	-3e-05	-3e-05	5
24633	6e-05	-3e-05	-7e-05	0.00022	0.00028	-1e-05	-3e-05	-3e-05	5
24634	6e-05	-3e-05	-7e-05	0.00022	0.00028	-1e-05	-3e-05	-3e-05	5
24635	6e-05	-3e-05	-7e-05	0.00022	0.00028	-1e-05	-3e-05	-3e-05	5
24637	0.00011	-4e-05	2e-05	0.00034	7e-05	-5e-05	-6e-05	-2e-05	5
24639	0.00011	-4e-05	2e-05	0.00034	7e-05	-5e-05	-6e-05	-2e-05	5
24640	0.00011	-4e-05	2e-05	0.00034	7e-05	-5e-05	-6e-05	-2e-05	5
24641	0.00011	-4e-05	2e-05	0.00034	7e-05	-5e-05	-6e-05	-2e-05	5
24642	0.00011	-4e-05	2e-05	0.00034	7e-05	-5e-05	-6e-05	-2e-05	5
24643	0.00011	-4e-05	2e-05	0.00034	7e-05	-5e-05	-6e-05	-2e-05	5
24644	-0.00045	-6e-05	-7e-05	-2e-05	-0.00015	-3e-05	-4e-05	-5e-05	5
24645	-0.00045	-6e-05	-7e-05	-2e-05	-0.00015	-3e-05	-4e-05	-5e-05	5
24646	-0.00045	-6e-05	-7e-05	-2e-05	-0.00015	-3e-05	-4e-05	-5e-05	5
24647	-0.00045	-6e-05	-7e-05	-2e-05	-0.00015	-3e-05	-4e-05	-5e-05	5
24648	-0.00045	-6e-05	-7e-05	-2e-05	-0.00015	-3e-05	-4e-05	-5e-05	5
24649	-0.00045	-6e-05	-7e-05	-2e-05	-0.00015	-3e-05	-4e-05	-5e-05	5
24650	-0.00045	-6e-05	-7e-05	-2e-05	-0.00015	-3e-05	-4e-05	-5e-05	5
24651	-0.00045	-6e-05	-7e-05	-2e-05	-0.00015	-3e-05	-4e-05	-5e-05	5
24652	-0.00045	-6e-05	-7e-05	-2e-05	-0.00015	-3e-05	-4e-05	-5e-05	5
24653	-0.00045	-6e-05	-7e-05	-2e-05	-0.00015	-3e-05	-4e-05	-5e-05	5
24654	-0.00045	-6e-05	-7e-05	-2e-05	-0.00015	-3e-05	-4e-05	-5e-05	5
24655	-0.00045	-6e-05	-7e-05	-2e-05	-0.00015	-3e-05	-4e-05	-5e-05	5
24656	-0.00045	-6e-05	-7e-05	-2e-05	-0.00015	-3e-05	-4e-05	-5e-05	5
24657	-0.00045	-6e-05	-7e-05	-2e-05	-0.00015	-3e-05	-4e-05	-5e-05	5
24658	-0.00045	-6e-05	-7e-05	-2e-05	-0.00015	-3e-05	-4e-05	-5e-05	5
24659	-0.00045	-6e-05	-7e-05	-2e-05	-0.00015	-3e-05	-4e-05	-5e-05	5
24660	-9e-05	-6e-05	-0.0001	-0.00128	0.0001	0.0001	6e-05	1e-05	5
24661	-7e-05	-4e-05	0.00017	-0.00019	0.00025	0.00017	1e-05	-3e-05	5
24662	-7e-05	-4e-05	0.00017	-0.00019	0.00025	0.00017	1e-05	-3e-05	5
24663	-7e-05	-4e-05	0.00017	-0.00019	0.00025	0.00017	1e-05	-3e-05	5
24664	-7e-05	-4e-05	0.00017	-0.00019	0.00025	0.00017	1e-05	-3e-05	5
24665	-7e-05	-4e-05	0.00017	-0.00019	0.00025	0.00017	1e-05	-3e-05	5
24666	-7e-05	-4e-05	0.00017	-0.00019	0.00025	0.00017	1e-05	-3e-05	5
24667	-7e-05	-4e-05	0.00017	-0.00019	0.00025	0.00017	1e-05	-3e-05	5
24668	-7e-05	-4e-05	0.00017	-0.00019	0.00025	0.00017	1e-05	-3e-05	5
24669	-7e-05	-4e-05	0.00017	-0.00019	0.00025	0.00017	1e-05	-3e-05	5
24670	-7e-05	-4e-05	0.00017	-0.00019	0.00025	0.00017	1e-05	-3e-05	5
24671	-7e-05	-4e-05	0.00017	-0.00019	0.00025	0.00017	1e-05	-3e-05	5
24672	-7e-05	-4e-05	0.00017	-0.00019	0.00025	0.00017	1e-05	-3e-05	5
24673	-7e-05	-4e-05	0.00017	-0.00019	0.00025	0.00017	1e-05	-3e-05	5
24674	-7e-05	-4e-05	0.00017	-0.00019	0.00025	0.00017	1e-05	-3e-05	5
24675	-7e-05	-4e-05	0.00017	-0.00019	0.00025	0.00017	1e-05	-3e-05	5
24676	-7e-05	-4e-05	0.00017	-0.00019	0.00025	0.00017	1e-05	-3e-05	5
24677	-7e-05	-4e-05	0.00017	-0.00019	0.00025	0.00017	1e-05	-3e-05	5
24678	-7e-05	-4e-05	0.00017	-0.00019	0.00025	0.00017	1e-05	-3e-05	5
24679	-7e-05	-4e-05	0.00017	-0.00019	0.00025	0.00017	1e-05	-3e-05	5
24680	-7e-05	-4e-05	0.00017	-0.00019	0.00025	0.00017	1e-05	-3e-05	5
24681	-7e-05	-4e-05	0.00017	-0.00019	0.00025	0.00017	1e-05	-3e-05	5
24682	-0.0002	-9e-05	-9e-05	-0.00086	0.0003	-9e-05	-4e-05	0	5
24683	-0.0002	-9e-05	-9e-05	-0.00086	0.0003	-9e-05	-4e-05	0	5
24684	9e-05	1e-05	3e-05	0.00042	3e-05	-7e-05	-2e-05	0	5
24685	9e-05	1e-05	3e-05	0.00042	3e-05	-7e-05	-2e-05	0	5
24687	9e-05	1e-05	3e-05	0.00042	3e-05	-7e-05	-2e-05	0	5
24689	9e-05	1e-05	3e-05	0.00042	3e-05	-7e-05	-2e-05	0	5
24690	9e-05	1e-05	3e-05	0.00042	3e-05	-7e-05	-2e-05	0	5
24691	9e-05	1e-05	3e-05	0.00042	3e-05	-7e-05	-2e-05	0	5
24692	9e-05	1e-05	3e-05	0.00042	3e-05	-7e-05	-2e-05	0	5
24693	9e-05	1e-05	3e-05	0.00042	3e-05	-7e-05	-2e-05	0	5
24694	9e-05	1e-05	3e-05	0.00042	3e-05	-7e-05	-2e-05	0	5
24695	9e-05	1e-05	3e-05	0.00042	3e-05	-7e-05	-2e-05	0	5
24696	9e-05	1e-05	3e-05	0.00042	3e-05	-7e-05	-2e-05	0	5
24697	8e-05	-3e-05	-8e-05	0.00092	0.00032	-1e-05	-2e-05	4e-05	5
24698	8e-05	-3e-05	-8e-05	0.00092	0.00032	-1e-05	-2e-05	4e-05	5
24699	8e-05	-3e-05	-8e-05	0.00092	0.00032	-1e-05	-2e-05	4e-05	5
24700	8e-05	-3e-05	-8e-05	0.00092	0.00032	-1e-05	-2e-05	4e-05	5
24701	8e-05	-3e-05	-8e-05	0.00092	0.00032	-1e-05	-2e-05	4e-05	5
24702	8e-05	-3e-05	-8e-05	0.00092	0.00032	-1e-05	-2e-05	4e-05	5
24703	0.00015	-8e-05	0.00015	6e-05	0.00087	0.00028	4e-05	-2e-05	5
24704	0	-0.00016	-0.00046	-0.00086	-0.00065	-0.00013	-4e-05	-1e-05	5
24705	0	-0.00016	-0.00046	-0.00086	-0.00065	-0.00013	-4e-05	-1e-05	5
24706	0	-0.00016	-0.00046	-0.00086	-0.00065	-0.00013	-4e-05	-1e-05	5
24707	0	-0.00016	-0.00046	-0.00086	-0.00065	-0.00013	-4e-05	-1e-05	5
24708	0	-0.00016	-0.00046	-0.00086	-0.00065	-0.00013	-4e-05	-1e-05	5
24709	0	-0.00016	-0.00046	-0.00086	-0.00065	-0.00013	-4e-05	-1e-05	5
24710	0	-0.00016	-0.00046	-0.00086	-0.00065	-0.00013	-4e-05	-1e-05	5
24711	0	-0.00016	-0.00046	-0.00086	-0.00065	-0.00013	-4e-05	-1e-05	5
24712	0	-0.00016	-0.00046	-0.00086	-0.00065	-0.00013	-4e-05	-1e-05	5
24713	0	-0.00016	-0.00046	-0.00086	-0.00065	-0.00013	-4e-05	-1e-05	5
24714	0	-0.00016	-0.00046	-0.00086	-0.00065	-0.00013	-4e-05	-1e-05	5
24715	0	-0.00016	-0.00046	-0.00086	-0.00065	-0.00013	-4e-05	-1e-05	5
24716	0	-0.00016	-0.00046	-0.00086	-0.00065	-0.00013	-4e-05	-1e-05	5
24717	0	-0.00016	-0.00046	-0.00086	-0.00065	-0.00013	-4e-05	-1e-05	5
24718	0	-0.00016	-0.00046	-0.00086	-0.00065	-0.00013	-4e-05	-1e-05	5
24719	0	-0.00016	-0.00046	-0.00086	-0.00065	-0.00013	-4e-05	-1e-05	5
24720	0.00044	0.00012	-0.00015	-3e-05	-0.00019	-1e-05	4e-05	9e-05	5
24721	-0.0003	1e-05	0.00033	-0.00026	-0.00075	-5e-05	-1e-05	1e-05	5
24722	-0.0001	-3e-05	-1e-05	0.00075	0.00045	8e-05	3e-05	-3e-05	5
24723	-0.0001	-3e-05	-1e-05	0.00075	0.00045	8e-05	3e-05	-3e-05	5
24724	-0.0001	-3e-05	-1e-05	0.00075	0.00045	8e-05	3e-05	-3e-05	5
24725	-0.0001	-3e-05	-1e-05	0.00075	0.00045	8e-05	3e-05	-3e-05	5
24726	-0.0001	-3e-05	-1e-05	0.00075	0.00045	8e-05	3e-05	-3e-05	5
24727	-0.0001	-3e-05	-1e-05	0.00075	0.00045	8e-05	3e-05	-3e-05	5
24728	-0.0001	-3e-05	-1e-05	0.00075	0.00045	8e-05	3e-05	-3e-05	5
24729	-0.0001	-3e-05	-1e-05	0.00075	0.00045	8e-05	3e-05	-3e-05	5
24730	-0.0001	-3e-05	-1e-05	0.00075	0.00045	8e-05	3e-05	-3e-05	5
24731	-0.0001	-3e-05	-1e-05	0.00075	0.00045	8e-05	3e-05	-3e-05	5
24732	-0.0001	-3e-05	-1e-05	0.00075	0.00045	8e-05	3e-05	-3e-05	5
24733	-0.0001	-3e-05	-1e-05	0.00075	0.00045	8e-05	3e-05	-3e-05	5
24734	-0.0001	-3e-05	-1e-05	0.00075	0.00045	8e-05	3e-05	-3e-05	5
24735	-0.0001	-3e-05	-1e-05	0.00075	0.00045	8e-05	3e-05	-3e-05	5
24737	-0.0001	-3e-05	-1e-05	0.00075	0.00045	8e-05	3e-05	-3e-05	5
24739	-0.0001	-3e-05	-1e-05	0.00075	0.00045	8e-05	3e-05	-3e-05	5
24740	-0.0001	-3e-05	-1e-05	0.00075	0.00045	8e-05	3e-05	-3e-05	5
24741	-0.0001	-3e-05	-1e-05	0.00075	0.00045	8e-05	3e-05	-3e-05	5
24742	-0.0001	-3e-05	-1e-05	0.00075	0.00045	8e-05	3e-05	-3e-05	5
24743	4e-05	8e-05	-0.00014	0.00019	0.00023	-1e-05	0	0	5
24744	3e-05	-2e-05	8e-05	9e-05	-0.00072	-0.0001	-1e-05	3e-05	5
24745	3e-05	-2e-05	8e-05	9e-05	-0.00072	-0.0001	-1e-05	3e-05	5
24746	3e-05	-2e-05	8e-05	9e-05	-0.00072	-0.0001	-1e-05	3e-05	5
24747	3e-05	-2e-05	8e-05	9e-05	-0.00072	-0.0001	-1e-05	3e-05	5
24748	3e-05	-2e-05	8e-05	9e-05	-0.00072	-0.0001	-1e-05	3e-05	5
24749	3e-05	-2e-05	8e-05	9e-05	-0.00072	-0.0001	-1e-05	3e-05	5
24750	3e-05	-2e-05	8e-05	9e-05	-0.00072	-0.0001	-1e-05	3e-05	5
24751	3e-05	-2e-05	8e-05	9e-05	-0.00072	-0.0001	-1e-05	3e-05	5
24752	3e-05	-2e-05	8e-05	9e-05	-0.00072	-0.0001	-1e-05	3e-05	5
24753	3e-05	-2e-05	8e-05	9e-05	-0.00072	-0.0001	-1e-05	3e-05	5
24754	3e-05	-2e-05	8e-05	9e-05	-0.00072	-0.0001	-1e-05	3e-05	5
24755	3e-05	-2e-05	8e-05	9e-05	-0.00072	-0.0001	-1e-05	3e-05	5
24756	3e-05	-2e-05	8e-05	9e-05	-0.00072	-0.0001	-1e-05	3e-05	5
24757	-0.00019	-0.00011	0.00011	0.00013	-0.00018	-8e-05	-9e-05	-0.00011	5
24758	-0.00019	-0.00011	0.00011	0.00013	-0.00018	-8e-05	-9e-05	-0.00011	5
24759	-0.00019	-0.00011	0.00011	0.00013	-0.00018	-8e-05	-9e-05	-0.00011	5
24760	-0.00019	-0.00011	0.00011	0.00013	-0.00018	-8e-05	-9e-05	-0.00011	5
24761	-0.00019	-0.00011	0.00011	0.00013	-0.00018	-8e-05	-9e-05	-0.00011	5
24762	-0.00019	-0.00011	0.00011	0.00013	-0.00018	-8e-05	-9e-05	-0.00011	5
24763	0.00014	3e-05	-0.0003	0.00024	2e-05	-4e-05	2e-05	3e-05	5
24764	-0.00016	4e-05	0.0001	0.00033	0.00049	-4e-05	0	0	5
24765	-0.00016	4e-05	0.0001	0.00033	0.00049	-4e-05	0	0	5
24766	-0.00016	4e-05	0.0001	0.00033	0.00049	-4e-05	0	0	5
24767	-0.00016	4e-05	0.0001	0.00033	0.00049	-4e-05	0	0	5
24768	-0.00016	4e-05	0.0001	0.00033	0.00049	-4e-05	0	0	5
24769	-0.00016	4e-05	0.0001	0.00033	0.00049	-4e-05	0	0	5
24770	-0.00016	4e-05	0.0001	0.00033	0.00049	-4e-05	0	0	5
24771	-0.00016	4e-05	0.0001	0.00033	0.00049	-4e-05	0	0	5
24772	-0.00016	4e-05	0.0001	0.00033	0.00049	-4e-05	0	0	5
24773	-0.00016	4e-05	0.0001	0.00033	0.00049	-4e-05	0	0	5
24774	-0.00016	4e-05	0.0001	0.00033	0.00049	-4e-05	0	0	5
24775	-0.00016	4e-05	0.0001	0.00033	0.00049	-4e-05	0	0	5
24776	-0.00016	4e-05	0.0001	0.00033	0.00049	-4e-05	0	0	5
24777	-0.00016	4e-05	0.0001	0.00033	0.00049	-4e-05	0	0	5
24778	-0.00016	4e-05	0.0001	0.00033	0.00049	-4e-05	0	0	5
24779	-0.00016	4e-05	0.0001	0.00033	0.00049	-4e-05	0	0	5
24780	2e-05	-3e-05	-0.00013	-0.00029	-0.00024	2e-05	3e-05	4e-05	5
24781	2e-05	-3e-05	-0.00013	-0.00029	-0.00024	2e-05	3e-05	4e-05	5
24782	-0.00028	-0.00017	2e-05	0.0002	-0.00028	0	-1e-05	-8e-05	5
24783	-0.00028	-0.00017	2e-05	0.0002	-0.00028	0	-1e-05	-8e-05	5
24784	-0.00028	-0.00017	2e-05	0.0002	-0.00028	0	-1e-05	-8e-05	5
24785	-0.00028	-0.00017	2e-05	0.0002	-0.00028	0	-1e-05	-8e-05	5
24787	-0.00028	-0.00017	2e-05	0.0002	-0.00028	0	-1e-05	-8e-05	5
24789	-0.00028	-0.00017	2e-05	0.0002	-0.00028	0	-1e-05	-8e-05	5
24790	-0.00028	-0.00017	2e-05	0.0002	-0.00028	0	-1e-05	-8e-05	5
24791	-0.00028	-0.00017	2e-05	0.0002	-0.00028	0	-1e-05	-8e-05	5
24792	-0.00028	-0.00017	2e-05	0.0002	-0.00028	0	-1e-05	-8e-05	5
24793	-0.00028	-0.00017	2e-05	0.0002	-0.00028	0	-1e-05	-8e-05	5
24794	-0.00028	-0.00017	2e-05	0.0002	-0.00028	0	-1e-05	-8e-05	5
24795	-0.00028	-0.00017	2e-05	0.0002	-0.00028	0	-1e-05	-8e-05	5
24796	-0.00028	-0.00017	2e-05	0.0002	-0.00028	0	-1e-05	-8e-05	5
24797	-0.00028	-0.00017	2e-05	0.0002	-0.00028	0	-1e-05	-8e-05	5
24798	-0.00028	-0.00017	2e-05	0.0002	-0.00028	0	-1e-05	-8e-05	5
24799	-0.00028	-0.00017	2e-05	0.0002	-0.00028	0	-1e-05	-8e-05	5
24800	-0.00028	-0.00017	2e-05	0.0002	-0.00028	0	-1e-05	-8e-05	5
24801	-0.00028	-0.00017	2e-05	0.0002	-0.00028	0	-1e-05	-8e-05	5
24802	-5e-05	-0.00012	-0.00056	0.0004	0.00046	-2e-05	-3e-05	-6e-05	5
24803	-5e-05	-0.00012	-0.00056	0.0004	0.00046	-2e-05	-3e-05	-6e-05	5
24804	-0.00019	-4e-05	-0.0001	-0.00034	6e-05	4e-05	-1e-05	-1e-05	5
24805	-0.00019	-4e-05	-0.0001	-0.00034	6e-05	4e-05	-1e-05	-1e-05	5
24806	-0.00019	-4e-05	-0.0001	-0.00034	6e-05	4e-05	-1e-05	-1e-05	5
24807	-0.00019	-4e-05	-0.0001	-0.00034	6e-05	4e-05	-1e-05	-1e-05	5
24808	-0.00019	-4e-05	-0.0001	-0.00034	6e-05	4e-05	-1e-05	-1e-05	5
24809	-0.00019	-4e-05	-0.0001	-0.00034	6e-05	4e-05	-1e-05	-1e-05	5
24810	-0.00019	-4e-05	-0.0001	-0.00034	6e-05	4e-05	-1e-05	-1e-05	5
24811	-0.00019	-4e-05	-0.0001	-0.00034	6e-05	4e-05	-1e-05	-1e-05	5
24812	-0.00019	-4e-05	-0.0001	-0.00034	6e-05	4e-05	-1e-05	-1e-05	5
24813	-0.00019	-4e-05	-0.0001	-0.00034	6e-05	4e-05	-1e-05	-1e-05	5
24814	-0.00019	-4e-05	-0.0001	-0.00034	6e-05	4e-05	-1e-05	-1e-05	5
24815	-0.00019	-4e-05	-0.0001	-0.00034	6e-05	4e-05	-1e-05	-1e-05	5
24816	-0.00019	-4e-05	-0.0001	-0.00034	6e-05	4e-05	-1e-05	-1e-05	5
24817	-0.00015	-2e-05	-0.00014	-0.00042	-0.00046	0	-2e-05	-8e-05	5
24818	-0.00015	-2e-05	-0.00014	-0.00042	-0.00046	0	-2e-05	-8e-05	5
24819	-0.00015	-2e-05	-0.00014	-0.00042	-0.00046	0	-2e-05	-8e-05	5
24820	-0.00015	-2e-05	-0.00014	-0.00042	-0.00046	0	-2e-05	-8e-05	5
24821	-0.00015	-2e-05	-0.00014	-0.00042	-0.00046	0	-2e-05	-8e-05	5
24822	-0.00015	-2e-05	-0.00014	-0.00042	-0.00046	0	-2e-05	-8e-05	5
24823	0.00022	7e-05	0.00024	0.00015	0.00032	0.00014	6e-05	9e-05	5
24824	5e-05	-7e-05	-0.00027	0.00022	0.00021	-3e-05	-2e-05	-8e-05	5
24825	5e-05	-7e-05	-0.00027	0.00022	0.00021	-3e-05	-2e-05	-8e-05	5
24826	5e-05	-7e-05	-0.00027	0.00022	0.00021	-3e-05	-2e-05	-8e-05	5
24827	5e-05	-7e-05	-0.00027	0.00022	0.00021	-3e-05	-2e-05	-8e-05	5
24828	5e-05	-7e-05	-0.00027	0.00022	0.00021	-3e-05	-2e-05	-8e-05	5
24829	5e-05	-7e-05	-0.00027	0.00022	0.00021	-3e-05	-2e-05	-8e-05	5
24830	5e-05	-7e-05	-0.00027	0.00022	0.00021	-3e-05	-2e-05	-8e-05	5
24831	5e-05	-7e-05	-0.00027	0.00022	0.00021	-3e-05	-2e-05	-8e-05	5
24832	5e-05	-7e-05	-0.00027	0.00022	0.00021	-3e-05	-2e-05	-8e-05	5
24833	5e-05	-7e-05	-0.00027	0.00022	0.00021	-3e-05	-2e-05	-8e-05	5
24834	5e-05	-7e-05	-0.00027	0.00022	0.00021	-3e-05	-2e-05	-8e-05	5
24835	5e-05	-7e-05	-0.00027	0.00022	0.00021	-3e-05	-2e-05	-8e-05	5
24837	5e-05	-7e-05	-0.00027	0.00022	0.00021	-3e-05	-2e-05	-8e-05	5
24839	5e-05	-7e-05	-0.00027	0.00022	0.00021	-3e-05	-2e-05	-8e-05	5
24840	-0.00013	2e-05	0.00023	-0.00056	0.00016	-3e-05	-4e-05	-6e-05	5
24841	-0.00086	-0.00024	0.00012	-0.00043	-0.00014	0.00014	3e-05	-0.00017	5
24842	-0.00086	-0.00024	0.00012	-0.00043	-0.00014	0.00014	3e-05	-0.00017	5
24843	-0.00086	-0.00024	0.00012	-0.00043	-0.00014	0.00014	3e-05	-0.00017	5
24844	-0.00086	-0.00024	0.00012	-0.00043	-0.00014	0.00014	3e-05	-0.00017	5
24845	-0.00086	-0.00024	0.00012	-0.00043	-0.00014	0.00014	3e-05	-0.00017	5
24846	-0.00086	-0.00024	0.00012	-0.00043	-0.00014	0.00014	3e-05	-0.00017	5
24847	-0.00086	-0.00024	0.00012	-0.00043	-0.00014	0.00014	3e-05	-0.00017	5
24848	-0.00086	-0.00024	0.00012	-0.00043	-0.00014	0.00014	3e-05	-0.00017	5
24849	-0.00086	-0.00024	0.00012	-0.00043	-0.00014	0.00014	3e-05	-0.00017	5
24850	-0.00086	-0.00024	0.00012	-0.00043	-0.00014	0.00014	3e-05	-0.00017	5
24851	-0.00086	-0.00024	0.00012	-0.00043	-0.00014	0.00014	3e-05	-0.00017	5
24852	-0.00086	-0.00024	0.00012	-0.00043	-0.00014	0.00014	3e-05	-0.00017	5
24855	-0.00086	-0.00024	0.00012	-0.00043	-0.00014	0.00014	3e-05	-0.00017	5
24856	-0.00086	-0.00024	0.00012	-0.00043	-0.00014	0.00014	3e-05	-0.00017	5
24857	-0.00086	-0.00024	0.00012	-0.00043	-0.00014	0.00014	3e-05	-0.00017	5
24858	-0.00086	-0.00024	0.00012	-0.00043	-0.00014	0.00014	3e-05	-0.00017	5
24859	-0.00086	-0.00024	0.00012	-0.00043	-0.00014	0.00014	3e-05	-0.00017	5
24860	-0.00086	-0.00024	0.00012	-0.00043	-0.00014	0.00014	3e-05	-0.00017	5
24861	-0.00086	-0.00024	0.00012	-0.00043	-0.00014	0.00014	3e-05	-0.00017	5
24862	0.00012	-5e-05	-0.00013	0.00108	4e-05	2e-05	-1e-05	0	5
24863	-0.00012	5e-05	0.00021	8e-05	-0.0001	-2e-05	0	-1e-05	5
24864	0.00031	3e-05	-9e-05	0.00041	-0.00017	-6e-05	-1e-05	8e-05	5
24865	0.00031	3e-05	-9e-05	0.00041	-0.00017	-6e-05	-1e-05	8e-05	5
24866	0.00031	3e-05	-9e-05	0.00041	-0.00017	-6e-05	-1e-05	8e-05	5
24867	0.00031	3e-05	-9e-05	0.00041	-0.00017	-6e-05	-1e-05	8e-05	5
24868	0.00031	3e-05	-9e-05	0.00041	-0.00017	-6e-05	-1e-05	8e-05	5
24869	0.00031	3e-05	-9e-05	0.00041	-0.00017	-6e-05	-1e-05	8e-05	5
24870	0.00031	3e-05	-9e-05	0.00041	-0.00017	-6e-05	-1e-05	8e-05	5
24871	0.00031	3e-05	-9e-05	0.00041	-0.00017	-6e-05	-1e-05	8e-05	5
24872	0.00031	3e-05	-9e-05	0.00041	-0.00017	-6e-05	-1e-05	8e-05	5
24873	0.00031	3e-05	-9e-05	0.00041	-0.00017	-6e-05	-1e-05	8e-05	5
24874	0.00031	3e-05	-9e-05	0.00041	-0.00017	-6e-05	-1e-05	8e-05	5
24875	0.00031	3e-05	-9e-05	0.00041	-0.00017	-6e-05	-1e-05	8e-05	5
24876	0.00031	3e-05	-9e-05	0.00041	-0.00017	-6e-05	-1e-05	8e-05	5
24877	0.00013	0.00013	0.00057	0.00012	-0.00033	5e-05	5e-05	2e-05	5
24878	0.00013	0.00013	0.00057	0.00012	-0.00033	5e-05	5e-05	2e-05	5
24879	0.00013	0.00013	0.00057	0.00012	-0.00033	5e-05	5e-05	2e-05	5
24880	0.00013	0.00013	0.00057	0.00012	-0.00033	5e-05	5e-05	2e-05	5
24881	0.00013	0.00013	0.00057	0.00012	-0.00033	5e-05	5e-05	2e-05	5
24882	0.00013	0.00013	0.00057	0.00012	-0.00033	5e-05	5e-05	2e-05	5
24883	-0.0002	-0.00017	-0.00037	-0.00011	-0.00022	-8e-05	-2e-05	-3e-05	5
24884	0.00024	9e-05	-5e-05	-0.0011	0.00058	8e-05	4e-05	6e-05	5
24885	0.00024	9e-05	-5e-05	-0.0011	0.00058	8e-05	4e-05	6e-05	5
24887	0.00024	9e-05	-5e-05	-0.0011	0.00058	8e-05	4e-05	6e-05	5
24889	0.00024	9e-05	-5e-05	-0.0011	0.00058	8e-05	4e-05	6e-05	5
24890	0.00024	9e-05	-5e-05	-0.0011	0.00058	8e-05	4e-05	6e-05	5
24891	0.00024	9e-05	-5e-05	-0.0011	0.00058	8e-05	4e-05	6e-05	5
24892	0.00024	9e-05	-5e-05	-0.0011	0.00058	8e-05	4e-05	6e-05	5
24893	0.00024	9e-05	-5e-05	-0.0011	0.00058	8e-05	4e-05	6e-05	5
24894	0.00024	9e-05	-5e-05	-0.0011	0.00058	8e-05	4e-05	6e-05	5
24895	0.00024	9e-05	-5e-05	-0.0011	0.00058	8e-05	4e-05	6e-05	5
24896	0.00024	9e-05	-5e-05	-0.0011	0.00058	8e-05	4e-05	6e-05	5
24897	0.00024	9e-05	-5e-05	-0.0011	0.00058	8e-05	4e-05	6e-05	5
24898	0.00024	9e-05	-5e-05	-0.0011	0.00058	8e-05	4e-05	6e-05	5
24899	0.00024	9e-05	-5e-05	-0.0011	0.00058	8e-05	4e-05	6e-05	5
24900	9e-05	9e-05	0.0003	0.00038	-0.0002	1e-05	-1e-05	1e-05	5
24901	-1e-05	8e-05	-8e-05	0.0005	-0.00017	-8e-05	-5e-05	-2e-05	5
24902	-1e-05	8e-05	-8e-05	0.0005	-0.00017	-8e-05	-5e-05	-2e-05	5
24903	-1e-05	8e-05	-8e-05	0.0005	-0.00017	-8e-05	-5e-05	-2e-05	5
24904	-1e-05	8e-05	-8e-05	0.0005	-0.00017	-8e-05	-5e-05	-2e-05	5
24905	-1e-05	8e-05	-8e-05	0.0005	-0.00017	-8e-05	-5e-05	-2e-05	5
24906	-1e-05	8e-05	-8e-05	0.0005	-0.00017	-8e-05	-5e-05	-2e-05	5
24907	-1e-05	8e-05	-8e-05	0.0005	-0.00017	-8e-05	-5e-05	-2e-05	5
24908	-1e-05	8e-05	-8e-05	0.0005	-0.00017	-8e-05	-5e-05	-2e-05	5
24909	-1e-05	8e-05	-8e-05	0.0005	-0.00017	-8e-05	-5e-05	-2e-05	5
24910	-1e-05	8e-05	-8e-05	0.0005	-0.00017	-8e-05	-5e-05	-2e-05	5
24911	-1e-05	8e-05	-8e-05	0.0005	-0.00017	-8e-05	-5e-05	-2e-05	5
24912	-1e-05	8e-05	-8e-05	0.0005	-0.00017	-8e-05	-5e-05	-2e-05	5
24913	-1e-05	8e-05	-8e-05	0.0005	-0.00017	-8e-05	-5e-05	-2e-05	5
24914	-1e-05	8e-05	-8e-05	0.0005	-0.00017	-8e-05	-5e-05	-2e-05	5
24915	-1e-05	8e-05	-8e-05	0.0005	-0.00017	-8e-05	-5e-05	-2e-05	5
24916	-1e-05	8e-05	-8e-05	0.0005	-0.00017	-8e-05	-5e-05	-2e-05	5
24917	-1e-05	8e-05	-8e-05	0.0005	-0.00017	-8e-05	-5e-05	-2e-05	5
24918	-1e-05	8e-05	-8e-05	0.0005	-0.00017	-8e-05	-5e-05	-2e-05	5
24919	-1e-05	8e-05	-8e-05	0.0005	-0.00017	-8e-05	-5e-05	-2e-05	5
24920	-1e-05	8e-05	-8e-05	0.0005	-0.00017	-8e-05	-5e-05	-2e-05	5
24921	-1e-05	8e-05	-8e-05	0.0005	-0.00017	-8e-05	-5e-05	-2e-05	5
24922	6e-05	-9e-05	-0.00018	0.00011	-0.00036	3e-05	0	-2e-05	5
24923	6e-05	-9e-05	-0.00018	0.00011	-0.00036	3e-05	0	-2e-05	5
24924	1e-05	-3e-05	-0.00025	0.00028	-0.00019	-2e-05	-2e-05	0	5
24925	1e-05	-3e-05	-0.00025	0.00028	-0.00019	-2e-05	-2e-05	0	5
24926	1e-05	-3e-05	-0.00025	0.00028	-0.00019	-2e-05	-2e-05	0	5
24927	1e-05	-3e-05	-0.00025	0.00028	-0.00019	-2e-05	-2e-05	0	5
24928	1e-05	-3e-05	-0.00025	0.00028	-0.00019	-2e-05	-2e-05	0	5
24929	1e-05	-3e-05	-0.00025	0.00028	-0.00019	-2e-05	-2e-05	0	5
24930	1e-05	-3e-05	-0.00025	0.00028	-0.00019	-2e-05	-2e-05	0	5
24931	1e-05	-3e-05	-0.00025	0.00028	-0.00019	-2e-05	-2e-05	0	5
24932	1e-05	-3e-05	-0.00025	0.00028	-0.00019	-2e-05	-2e-05	0	5
24933	1e-05	-3e-05	-0.00025	0.00028	-0.00019	-2e-05	-2e-05	0	5
24934	1e-05	-3e-05	-0.00025	0.00028	-0.00019	-2e-05	-2e-05	0	5
24935	1e-05	-3e-05	-0.00025	0.00028	-0.00019	-2e-05	-2e-05	0	5
24937	-0.00028	-6e-05	-0.00029	0.00018	0.00017	-7e-05	-5e-05	-8e-05	5
24939	-0.00028	-6e-05	-0.00029	0.00018	0.00017	-7e-05	-5e-05	-8e-05	5
24940	-0.00028	-6e-05	-0.00029	0.00018	0.00017	-7e-05	-5e-05	-8e-05	5
24941	-0.00028	-6e-05	-0.00029	0.00018	0.00017	-7e-05	-5e-05	-8e-05	5
24942	-0.00028	-6e-05	-0.00029	0.00018	0.00017	-7e-05	-5e-05	-8e-05	5
24943	-0.00024	-7e-05	6e-05	-0.00045	-0.00057	-8e-05	-5e-05	-5e-05	5
24944	0.00033	0.00012	9e-05	0.00033	0.00041	0.00017	5e-05	9e-05	5
24945	0.00033	0.00012	9e-05	0.00033	0.00041	0.00017	5e-05	9e-05	5
24946	0.00033	0.00012	9e-05	0.00033	0.00041	0.00017	5e-05	9e-05	5
24947	0.00033	0.00012	9e-05	0.00033	0.00041	0.00017	5e-05	9e-05	5
24948	0.00033	0.00012	9e-05	0.00033	0.00041	0.00017	5e-05	9e-05	5
24949	0.00033	0.00012	9e-05	0.00033	0.00041	0.00017	5e-05	9e-05	5
24950	0.00033	0.00012	9e-05	0.00033	0.00041	0.00017	5e-05	9e-05	5
24951	0.00033	0.00012	9e-05	0.00033	0.00041	0.00017	5e-05	9e-05	5
24952	0.00033	0.00012	9e-05	0.00033	0.00041	0.00017	5e-05	9e-05	5
24953	0.00033	0.00012	9e-05	0.00033	0.00041	0.00017	5e-05	9e-05	5
24954	0.00033	0.00012	9e-05	0.00033	0.00041	0.00017	5e-05	9e-05	5
24955	0.00033	0.00012	9e-05	0.00033	0.00041	0.00017	5e-05	9e-05	5
24956	0.00033	0.00012	9e-05	0.00033	0.00041	0.00017	5e-05	9e-05	5
24957	0.00033	0.00012	9e-05	0.00033	0.00041	0.00017	5e-05	9e-05	5
24958	0.00033	0.00012	9e-05	0.00033	0.00041	0.00017	5e-05	9e-05	5
24959	0.00033	0.00012	9e-05	0.00033	0.00041	0.00017	5e-05	9e-05	5
24960	4e-05	1e-05	0.00012	-0.00063	-0.00019	2e-05	3e-05	3e-05	5
24961	-0.00022	0	-5e-05	0.00014	0.00012	6e-05	1e-05	-4e-05	5
24962	0.00019	-2e-05	-6e-05	-0.00031	8e-05	-7e-05	-1e-05	2e-05	5
24963	0.00019	-2e-05	-6e-05	-0.00031	8e-05	-7e-05	-1e-05	2e-05	5
24964	0.00019	-2e-05	-6e-05	-0.00031	8e-05	-7e-05	-1e-05	2e-05	5
24965	0.00019	-2e-05	-6e-05	-0.00031	8e-05	-7e-05	-1e-05	2e-05	5
24966	0.00019	-2e-05	-6e-05	-0.00031	8e-05	-7e-05	-1e-05	2e-05	5
24967	0.00019	-2e-05	-6e-05	-0.00031	8e-05	-7e-05	-1e-05	2e-05	5
24968	0.00019	-2e-05	-6e-05	-0.00031	8e-05	-7e-05	-1e-05	2e-05	5
24969	0.00019	-2e-05	-6e-05	-0.00031	8e-05	-7e-05	-1e-05	2e-05	5
24970	0.00019	-2e-05	-6e-05	-0.00031	8e-05	-7e-05	-1e-05	2e-05	5
24971	0.00019	-2e-05	-6e-05	-0.00031	8e-05	-7e-05	-1e-05	2e-05	5
24972	0.00019	-2e-05	-6e-05	-0.00031	8e-05	-7e-05	-1e-05	2e-05	5
24973	0.00019	-2e-05	-6e-05	-0.00031	8e-05	-7e-05	-1e-05	2e-05	5
24974	0.00019	-2e-05	-6e-05	-0.00031	8e-05	-7e-05	-1e-05	2e-05	5
24975	0.00019	-2e-05	-6e-05	-0.00031	8e-05	-7e-05	-1e-05	2e-05	5
24976	0.00019	-2e-05	-6e-05	-0.00031	8e-05	-7e-05	-1e-05	2e-05	5
24977	0.00019	-2e-05	-6e-05	-0.00031	8e-05	-7e-05	-1e-05	2e-05	5
24978	0.00019	-2e-05	-6e-05	-0.00031	8e-05	-7e-05	-1e-05	2e-05	5
24979	0.00019	-2e-05	-6e-05	-0.00031	8e-05	-7e-05	-1e-05	2e-05	5
24980	0.00019	-2e-05	-6e-05	-0.00031	8e-05	-7e-05	-1e-05	2e-05	5
24981	0.00019	-2e-05	-6e-05	-0.00031	8e-05	-7e-05	-1e-05	2e-05	5
24982	-2e-05	8e-05	0.00027	0.00085	0.00053	8e-05	0	-2e-05	5
24983	0.00019	1e-05	9e-05	-0.00041	-0.00021	-0.00013	-3e-05	2e-05	5
24984	0.00019	1e-05	9e-05	-0.00041	-0.00021	-0.00013	-3e-05	2e-05	5
24985	0.00019	1e-05	9e-05	-0.00041	-0.00021	-0.00013	-3e-05	2e-05	5
24987	0.00019	1e-05	9e-05	-0.00041	-0.00021	-0.00013	-3e-05	2e-05	5
24989	0.00019	1e-05	9e-05	-0.00041	-0.00021	-0.00013	-3e-05	2e-05	5
24990	0.00019	1e-05	9e-05	-0.00041	-0.00021	-0.00013	-3e-05	2e-05	5
24991	0.00019	1e-05	9e-05	-0.00041	-0.00021	-0.00013	-3e-05	2e-05	5
24992	0.00019	1e-05	9e-05	-0.00041	-0.00021	-0.00013	-3e-05	2e-05	5
24993	0.00019	1e-05	9e-05	-0.00041	-0.00021	-0.00013	-3e-05	2e-05	5
24994	0.00019	1e-05	9e-05	-0.00041	-0.00021	-0.00013	-3e-05	2e-05	5
24995	0.00019	1e-05	9e-05	-0.00041	-0.00021	-0.00013	-3e-05	2e-05	5
24996	0.00028	0.0001	-7e-05	-0.00048	-0.00041	5e-05	2e-05	8e-05	5
24997	0.00028	0.0001	-7e-05	-0.00048	-0.00041	5e-05	2e-05	8e-05	5
24998	0.00028	0.0001	-7e-05	-0.00048	-0.00041	5e-05	2e-05	8e-05	5
24999	0.00028	0.0001	-7e-05	-0.00048	-0.00041	5e-05	2e-05	8e-05	5
25000	0.00028	0.0001	-7e-05	-0.00048	-0.00041	5e-05	2e-05	8e-05	5
25001	0.00028	0.0001	-7e-05	-0.00048	-0.00041	5e-05	2e-05	8e-05	5
25002	0.00028	0.0001	-7e-05	-0.00048	-0.00041	5e-05	2e-05	8e-05	5
25003	0.00028	0.0001	-7e-05	-0.00048	-0.00041	5e-05	2e-05	8e-05	5
25004	-0.0001	-8e-05	-0.0001	-0.00086	-0.00055	-6e-05	-4e-05	3e-05	5
25005	-0.0001	-8e-05	-0.0001	-0.00086	-0.00055	-6e-05	-4e-05	3e-05	5
25006	-0.0001	-8e-05	-0.0001	-0.00086	-0.00055	-6e-05	-4e-05	3e-05	5
25007	-0.0001	-8e-05	-0.0001	-0.00086	-0.00055	-6e-05	-4e-05	3e-05	5
25008	-0.0001	-8e-05	-0.0001	-0.00086	-0.00055	-6e-05	-4e-05	3e-05	5
25009	-0.0001	-8e-05	-0.0001	-0.00086	-0.00055	-6e-05	-4e-05	3e-05	5
25010	-0.0001	-8e-05	-0.0001	-0.00086	-0.00055	-6e-05	-4e-05	3e-05	5
25011	-0.0001	-8e-05	-0.0001	-0.00086	-0.00055	-6e-05	-4e-05	3e-05	5
25012	-0.0001	-8e-05	-0.0001	-0.00086	-0.00055	-6e-05	-4e-05	3e-05	5
25013	-0.0001	-8e-05	-0.0001	-0.00086	-0.00055	-6e-05	-4e-05	3e-05	5
25014	-0.0001	-8e-05	-0.0001	-0.00086	-0.00055	-6e-05	-4e-05	3e-05	5
25015	-0.0001	-8e-05	-0.0001	-0.00086	-0.00055	-6e-05	-4e-05	3e-05	5
25016	-0.0001	-8e-05	-0.0001	-0.00086	-0.00055	-6e-05	-4e-05	3e-05	5
25017	-0.0001	-8e-05	-0.0001	-0.00086	-0.00055	-6e-05	-4e-05	3e-05	5
25018	-0.0001	-8e-05	-0.0001	-0.00086	-0.00055	-6e-05	-4e-05	3e-05	5
25019	-9e-05	1e-05	0.00017	-0.00042	0.00013	-4e-05	-3e-05	7e-05	5
25020	-0.00015	-8e-05	-5e-05	0.00015	-0.0007	-8e-05	-3e-05	-4e-05	5
25021	-0.00015	-8e-05	-5e-05	0.00015	-0.0007	-8e-05	-3e-05	-4e-05	5
25022	-0.00015	-8e-05	-5e-05	0.00015	-0.0007	-8e-05	-3e-05	-4e-05	5
25023	-0.00015	-8e-05	-5e-05	0.00015	-0.0007	-8e-05	-3e-05	-4e-05	5
25024	-0.00015	-8e-05	-5e-05	0.00015	-0.0007	-8e-05	-3e-05	-4e-05	5
25025	-0.00015	-8e-05	-5e-05	0.00015	-0.0007	-8e-05	-3e-05	-4e-05	5
25026	-0.00015	-8e-05	-5e-05	0.00015	-0.0007	-8e-05	-3e-05	-4e-05	5
25027	-0.00015	-8e-05	-5e-05	0.00015	-0.0007	-8e-05	-3e-05	-4e-05	5
25028	-0.00015	-8e-05	-5e-05	0.00015	-0.0007	-8e-05	-3e-05	-4e-05	5
25029	-0.00015	-8e-05	-5e-05	0.00015	-0.0007	-8e-05	-3e-05	-4e-05	5
25030	-0.00015	-8e-05	-5e-05	0.00015	-0.0007	-8e-05	-3e-05	-4e-05	5
25031	-0.00015	-8e-05	-5e-05	0.00015	-0.0007	-8e-05	-3e-05	-4e-05	5
25033	-0.00015	-8e-05	-5e-05	0.00015	-0.0007	-8e-05	-3e-05	-4e-05	5
25034	-0.00015	-8e-05	-5e-05	0.00015	-0.0007	-8e-05	-3e-05	-4e-05	5
25035	-0.00015	-8e-05	-5e-05	0.00015	-0.0007	-8e-05	-3e-05	-4e-05	5
25037	-0.00015	-8e-05	-5e-05	0.00015	-0.0007	-8e-05	-3e-05	-4e-05	5
25039	-0.00015	-8e-05	-5e-05	0.00015	-0.0007	-8e-05	-3e-05	-4e-05	5
25040	-0.00015	-8e-05	-5e-05	0.00015	-0.0007	-8e-05	-3e-05	-4e-05	5
25041	-0.00015	-8e-05	-5e-05	0.00015	-0.0007	-8e-05	-3e-05	-4e-05	5
25042	2e-05	-3e-05	1e-05	0.00053	0.00014	0	2e-05	2e-05	5
25043	-0.00017	2e-05	0.00017	0.00016	0.00018	-2e-05	0	1e-05	5
25044	-0.00017	2e-05	0.00017	0.00016	0.00018	-2e-05	0	1e-05	5
25045	-0.00017	2e-05	0.00017	0.00016	0.00018	-2e-05	0	1e-05	5
25046	-0.00017	2e-05	0.00017	0.00016	0.00018	-2e-05	0	1e-05	5
25047	-0.00017	2e-05	0.00017	0.00016	0.00018	-2e-05	0	1e-05	5
25048	-0.00017	2e-05	0.00017	0.00016	0.00018	-2e-05	0	1e-05	5
25049	-0.00017	2e-05	0.00017	0.00016	0.00018	-2e-05	0	1e-05	5
25050	-0.00017	2e-05	0.00017	0.00016	0.00018	-2e-05	0	1e-05	5
25051	-0.00017	2e-05	0.00017	0.00016	0.00018	-2e-05	0	1e-05	5
25052	-0.00017	2e-05	0.00017	0.00016	0.00018	-2e-05	0	1e-05	5
25053	-0.00017	2e-05	0.00017	0.00016	0.00018	-2e-05	0	1e-05	5
25054	-0.00017	2e-05	0.00017	0.00016	0.00018	-2e-05	0	1e-05	5
25055	-0.00017	2e-05	0.00017	0.00016	0.00018	-2e-05	0	1e-05	5
25056	-9e-05	-6e-05	8e-05	-0.00034	0.0001	-6e-05	-4e-05	-4e-05	5
25057	-9e-05	-6e-05	8e-05	-0.00034	0.0001	-6e-05	-4e-05	-4e-05	5
25058	-9e-05	-6e-05	8e-05	-0.00034	0.0001	-6e-05	-4e-05	-4e-05	5
25059	-9e-05	-6e-05	8e-05	-0.00034	0.0001	-6e-05	-4e-05	-4e-05	5
25060	-9e-05	-6e-05	8e-05	-0.00034	0.0001	-6e-05	-4e-05	-4e-05	5
25061	-9e-05	-6e-05	8e-05	-0.00034	0.0001	-6e-05	-4e-05	-4e-05	5
25062	-9e-05	-6e-05	8e-05	-0.00034	0.0001	-6e-05	-4e-05	-4e-05	5
25063	-9e-05	-6e-05	8e-05	-0.00034	0.0001	-6e-05	-4e-05	-4e-05	5
25064	9e-05	8e-05	4e-05	0.00022	0.00018	0.00014	0	-2e-05	5
25065	9e-05	8e-05	4e-05	0.00022	0.00018	0.00014	0	-2e-05	5
25066	9e-05	8e-05	4e-05	0.00022	0.00018	0.00014	0	-2e-05	5
25067	9e-05	8e-05	4e-05	0.00022	0.00018	0.00014	0	-2e-05	5
25068	9e-05	8e-05	4e-05	0.00022	0.00018	0.00014	0	-2e-05	5
25069	9e-05	8e-05	4e-05	0.00022	0.00018	0.00014	0	-2e-05	5
25070	9e-05	8e-05	4e-05	0.00022	0.00018	0.00014	0	-2e-05	5
25071	9e-05	8e-05	4e-05	0.00022	0.00018	0.00014	0	-2e-05	5
25072	9e-05	8e-05	4e-05	0.00022	0.00018	0.00014	0	-2e-05	5
25073	9e-05	8e-05	4e-05	0.00022	0.00018	0.00014	0	-2e-05	5
25074	9e-05	8e-05	4e-05	0.00022	0.00018	0.00014	0	-2e-05	5
25075	9e-05	8e-05	4e-05	0.00022	0.00018	0.00014	0	-2e-05	5
25076	9e-05	8e-05	4e-05	0.00022	0.00018	0.00014	0	-2e-05	5
25077	9e-05	8e-05	4e-05	0.00022	0.00018	0.00014	0	-2e-05	5
25078	9e-05	8e-05	4e-05	0.00022	0.00018	0.00014	0	-2e-05	5
25079	0.00012	-4e-05	9e-05	-0.0008	0.00082	6e-05	-1e-05	-2e-05	5
25080	0.00029	-3e-05	-2e-05	0.00027	0.00051	8e-05	4e-05	5e-05	5
25081	0.00029	-3e-05	-2e-05	0.00027	0.00051	8e-05	4e-05	5e-05	5
25082	0.00029	-3e-05	-2e-05	0.00027	0.00051	8e-05	4e-05	5e-05	5
25083	0.00029	-3e-05	-2e-05	0.00027	0.00051	8e-05	4e-05	5e-05	5
25084	0.00029	-3e-05	-2e-05	0.00027	0.00051	8e-05	4e-05	5e-05	5
25085	0.00029	-3e-05	-2e-05	0.00027	0.00051	8e-05	4e-05	5e-05	5
25087	0.00029	-3e-05	-2e-05	0.00027	0.00051	8e-05	4e-05	5e-05	5
25089	0.00029	-3e-05	-2e-05	0.00027	0.00051	8e-05	4e-05	5e-05	5
25090	0.00029	-3e-05	-2e-05	0.00027	0.00051	8e-05	4e-05	5e-05	5
25091	0.00029	-3e-05	-2e-05	0.00027	0.00051	8e-05	4e-05	5e-05	5
25092	0.00029	-3e-05	-2e-05	0.00027	0.00051	8e-05	4e-05	5e-05	5
25093	0.00029	-3e-05	-2e-05	0.00027	0.00051	8e-05	4e-05	5e-05	5
25094	0.00029	-3e-05	-2e-05	0.00027	0.00051	8e-05	4e-05	5e-05	5
25095	0.00029	-3e-05	-2e-05	0.00027	0.00051	8e-05	4e-05	5e-05	5
25096	0.00029	-3e-05	-2e-05	0.00027	0.00051	8e-05	4e-05	5e-05	5
25097	0.00029	-3e-05	-2e-05	0.00027	0.00051	8e-05	4e-05	5e-05	5
25098	0.00029	-3e-05	-2e-05	0.00027	0.00051	8e-05	4e-05	5e-05	5
25099	0.00029	-3e-05	-2e-05	0.00027	0.00051	8e-05	4e-05	5e-05	5
25100	0.00029	-3e-05	-2e-05	0.00027	0.00051	8e-05	4e-05	5e-05	5
25101	0.00029	-3e-05	-2e-05	0.00027	0.00051	8e-05	4e-05	5e-05	5
25102	-0.00025	5e-05	0.00017	6e-05	-8e-05	2e-05	0	3e-05	5
25103	0.0001	5e-05	3e-05	0.0004	5e-05	-2e-05	1e-05	5e-05	5
25104	0.0001	5e-05	3e-05	0.0004	5e-05	-2e-05	1e-05	5e-05	5
25105	0.0001	5e-05	3e-05	0.0004	5e-05	-2e-05	1e-05	5e-05	5
25106	0.0001	5e-05	3e-05	0.0004	5e-05	-2e-05	1e-05	5e-05	5
25107	0.0001	5e-05	3e-05	0.0004	5e-05	-2e-05	1e-05	5e-05	5
25108	0.0001	5e-05	3e-05	0.0004	5e-05	-2e-05	1e-05	5e-05	5
25109	0.0001	5e-05	3e-05	0.0004	5e-05	-2e-05	1e-05	5e-05	5
25110	0.0001	5e-05	3e-05	0.0004	5e-05	-2e-05	1e-05	5e-05	5
25111	0.0001	5e-05	3e-05	0.0004	5e-05	-2e-05	1e-05	5e-05	5
25112	0.0001	5e-05	3e-05	0.0004	5e-05	-2e-05	1e-05	5e-05	5
25113	0.0001	5e-05	3e-05	0.0004	5e-05	-2e-05	1e-05	5e-05	5
25114	0.0001	5e-05	3e-05	0.0004	5e-05	-2e-05	1e-05	5e-05	5
25115	0.0001	5e-05	3e-05	0.0004	5e-05	-2e-05	1e-05	5e-05	5
25116	0.0001	5e-05	3e-05	0.0004	5e-05	-2e-05	1e-05	5e-05	5
25117	0.0001	5e-05	3e-05	0.0004	5e-05	-2e-05	1e-05	5e-05	5
25118	0.0001	5e-05	3e-05	0.0004	5e-05	-2e-05	1e-05	5e-05	5
25119	0.0001	5e-05	3e-05	0.0004	5e-05	-2e-05	1e-05	5e-05	5
25120	0.0001	5e-05	3e-05	0.0004	5e-05	-2e-05	1e-05	5e-05	5
25121	0.0001	5e-05	3e-05	0.0004	5e-05	-2e-05	1e-05	5e-05	5
25122	0.0001	5e-05	3e-05	0.0004	5e-05	-2e-05	1e-05	5e-05	5
25123	0.0001	5e-05	3e-05	0.0004	5e-05	-2e-05	1e-05	5e-05	5
25124	0.0001	5e-05	3e-05	0.0004	5e-05	-2e-05	1e-05	5e-05	5
25125	0.00025	7e-05	0.00013	0.00064	0.00014	0.00014	6e-05	4e-05	5
25126	-0.00017	-1e-05	0.00017	0.00016	-0.00025	-1e-05	-1e-05	-4e-05	5
25127	-0.00017	-1e-05	0.00017	0.00016	-0.00025	-1e-05	-1e-05	-4e-05	5
25128	-0.00017	-1e-05	0.00017	0.00016	-0.00025	-1e-05	-1e-05	-4e-05	5
25129	-0.00017	-1e-05	0.00017	0.00016	-0.00025	-1e-05	-1e-05	-4e-05	5
25130	-0.00017	-1e-05	0.00017	0.00016	-0.00025	-1e-05	-1e-05	-4e-05	5
25131	-0.00017	-1e-05	0.00017	0.00016	-0.00025	-1e-05	-1e-05	-4e-05	5
25132	-0.00017	-1e-05	0.00017	0.00016	-0.00025	-1e-05	-1e-05	-4e-05	5
25133	-0.00017	-1e-05	0.00017	0.00016	-0.00025	-1e-05	-1e-05	-4e-05	5
25134	-0.00017	-1e-05	0.00017	0.00016	-0.00025	-1e-05	-1e-05	-4e-05	5
25135	-0.00017	-1e-05	0.00017	0.00016	-0.00025	-1e-05	-1e-05	-4e-05	5
25137	-0.00017	-1e-05	0.00017	0.00016	-0.00025	-1e-05	-1e-05	-4e-05	5
25139	3e-05	1e-05	0.00034	0.00016	0.00039	6e-05	4e-05	-1e-05	5
25140	-0.00025	-0.00017	-5e-05	0.00056	-0.00018	-0.00013	-5e-05	-9e-05	5
25141	-0.00025	-0.00017	-5e-05	0.00056	-0.00018	-0.00013	-5e-05	-9e-05	5
25142	-0.00025	-0.00017	-5e-05	0.00056	-0.00018	-0.00013	-5e-05	-9e-05	5
25143	-0.00025	-0.00017	-5e-05	0.00056	-0.00018	-0.00013	-5e-05	-9e-05	5
25144	-0.00025	-0.00017	-5e-05	0.00056	-0.00018	-0.00013	-5e-05	-9e-05	5
25145	-0.00025	-0.00017	-5e-05	0.00056	-0.00018	-0.00013	-5e-05	-9e-05	5
25146	-0.00025	-0.00017	-5e-05	0.00056	-0.00018	-0.00013	-5e-05	-9e-05	5
25147	-0.00025	-0.00017	-5e-05	0.00056	-0.00018	-0.00013	-5e-05	-9e-05	5
25148	-0.00025	-0.00017	-5e-05	0.00056	-0.00018	-0.00013	-5e-05	-9e-05	5
25149	-0.00025	-0.00017	-5e-05	0.00056	-0.00018	-0.00013	-5e-05	-9e-05	5
25150	-0.00025	-0.00017	-5e-05	0.00056	-0.00018	-0.00013	-5e-05	-9e-05	5
25151	-0.00025	-0.00017	-5e-05	0.00056	-0.00018	-0.00013	-5e-05	-9e-05	5
25152	-0.00025	-0.00017	-5e-05	0.00056	-0.00018	-0.00013	-5e-05	-9e-05	5
25153	-0.00025	-0.00017	-5e-05	0.00056	-0.00018	-0.00013	-5e-05	-9e-05	5
25154	-0.00025	-0.00017	-5e-05	0.00056	-0.00018	-0.00013	-5e-05	-9e-05	5
25155	-0.00025	-0.00017	-5e-05	0.00056	-0.00018	-0.00013	-5e-05	-9e-05	5
25156	-0.00025	-0.00017	-5e-05	0.00056	-0.00018	-0.00013	-5e-05	-9e-05	5
25157	-0.00025	-0.00017	-5e-05	0.00056	-0.00018	-0.00013	-5e-05	-9e-05	5
25158	-0.00025	-0.00017	-5e-05	0.00056	-0.00018	-0.00013	-5e-05	-9e-05	5
25159	-0.00025	-0.00017	-5e-05	0.00056	-0.00018	-0.00013	-5e-05	-9e-05	5
25160	-0.00025	-0.00017	-5e-05	0.00056	-0.00018	-0.00013	-5e-05	-9e-05	5
25161	-8e-05	-0.00014	-3e-05	-0.00034	0.00024	4e-05	0	-3e-05	5
25162	-0.00011	-2e-05	-0.00015	-0.0002	0.00075	0.00018	2e-05	0	5
25163	0.00042	2e-05	-0.00011	-0.0001	0.00027	-2e-05	-3e-05	3e-05	5
25164	0.00042	2e-05	-0.00011	-0.0001	0.00027	-2e-05	-3e-05	3e-05	5
25165	0.00042	2e-05	-0.00011	-0.0001	0.00027	-2e-05	-3e-05	3e-05	5
25166	0.00042	2e-05	-0.00011	-0.0001	0.00027	-2e-05	-3e-05	3e-05	5
25167	0.00042	2e-05	-0.00011	-0.0001	0.00027	-2e-05	-3e-05	3e-05	5
25168	0.00042	2e-05	-0.00011	-0.0001	0.00027	-2e-05	-3e-05	3e-05	5
25169	0.00042	2e-05	-0.00011	-0.0001	0.00027	-2e-05	-3e-05	3e-05	5
25170	0.00042	2e-05	-0.00011	-0.0001	0.00027	-2e-05	-3e-05	3e-05	5
25171	0.00042	2e-05	-0.00011	-0.0001	0.00027	-2e-05	-3e-05	3e-05	5
25172	0.00042	2e-05	-0.00011	-0.0001	0.00027	-2e-05	-3e-05	3e-05	5
25173	0.00042	2e-05	-0.00011	-0.0001	0.00027	-2e-05	-3e-05	3e-05	5
25174	0.00042	2e-05	-0.00011	-0.0001	0.00027	-2e-05	-3e-05	3e-05	5
25175	0.00042	2e-05	-0.00011	-0.0001	0.00027	-2e-05	-3e-05	3e-05	5
25176	0.00025	6e-05	-3e-05	-0.0002	-0.00044	-3e-05	-1e-05	6e-05	5
25177	0.00025	6e-05	-3e-05	-0.0002	-0.00044	-3e-05	-1e-05	6e-05	5
25178	0.00025	6e-05	-3e-05	-0.0002	-0.00044	-3e-05	-1e-05	6e-05	5
25179	0.00025	6e-05	-3e-05	-0.0002	-0.00044	-3e-05	-1e-05	6e-05	5
25180	0.00025	6e-05	-3e-05	-0.0002	-0.00044	-3e-05	-1e-05	6e-05	5
25181	0.00025	6e-05	-3e-05	-0.0002	-0.00044	-3e-05	-1e-05	6e-05	5
25182	0.00025	6e-05	-3e-05	-0.0002	-0.00044	-3e-05	-1e-05	6e-05	5
25183	0.00025	6e-05	-3e-05	-0.0002	-0.00044	-3e-05	-1e-05	6e-05	5
25184	-0.00016	-3e-05	4e-05	-0.00043	-0.00064	-5e-05	-3e-05	-0.00011	5
25185	-0.00016	-3e-05	4e-05	-0.00043	-0.00064	-5e-05	-3e-05	-0.00011	5
25187	-0.00016	-3e-05	4e-05	-0.00043	-0.00064	-5e-05	-3e-05	-0.00011	5
25189	-0.00016	-3e-05	4e-05	-0.00043	-0.00064	-5e-05	-3e-05	-0.00011	5
25190	-0.00016	-3e-05	4e-05	-0.00043	-0.00064	-5e-05	-3e-05	-0.00011	5
25191	-0.00016	-3e-05	4e-05	-0.00043	-0.00064	-5e-05	-3e-05	-0.00011	5
25192	-0.00016	-3e-05	4e-05	-0.00043	-0.00064	-5e-05	-3e-05	-0.00011	5
25193	-0.00016	-3e-05	4e-05	-0.00043	-0.00064	-5e-05	-3e-05	-0.00011	5
25194	-0.00016	-3e-05	4e-05	-0.00043	-0.00064	-5e-05	-3e-05	-0.00011	5
25195	-0.00016	-3e-05	4e-05	-0.00043	-0.00064	-5e-05	-3e-05	-0.00011	5
25196	-0.00016	-3e-05	4e-05	-0.00043	-0.00064	-5e-05	-3e-05	-0.00011	5
25197	-0.00016	-3e-05	4e-05	-0.00043	-0.00064	-5e-05	-3e-05	-0.00011	5
25198	-0.00016	-3e-05	4e-05	-0.00043	-0.00064	-5e-05	-3e-05	-0.00011	5
25199	-6e-05	-1e-05	-0.00021	-0.00038	0.00038	0.00011	5e-05	0.00018	5
25200	-0.00015	-3e-05	-9e-05	-0.0003	0.00026	-2e-05	0	-1e-05	5
25201	-0.00015	-3e-05	-9e-05	-0.0003	0.00026	-2e-05	0	-1e-05	5
25202	-0.00015	-3e-05	-9e-05	-0.0003	0.00026	-2e-05	0	-1e-05	5
25203	-0.00015	-3e-05	-9e-05	-0.0003	0.00026	-2e-05	0	-1e-05	5
25204	-0.00015	-3e-05	-9e-05	-0.0003	0.00026	-2e-05	0	-1e-05	5
25205	-0.00015	-3e-05	-9e-05	-0.0003	0.00026	-2e-05	0	-1e-05	5
25206	-0.00015	-3e-05	-9e-05	-0.0003	0.00026	-2e-05	0	-1e-05	5
25207	-0.00015	-3e-05	-9e-05	-0.0003	0.00026	-2e-05	0	-1e-05	5
25208	-0.00015	-3e-05	-9e-05	-0.0003	0.00026	-2e-05	0	-1e-05	5
25209	-0.00015	-3e-05	-9e-05	-0.0003	0.00026	-2e-05	0	-1e-05	5
25210	-0.00015	-3e-05	-9e-05	-0.0003	0.00026	-2e-05	0	-1e-05	5
25211	-0.00015	-3e-05	-9e-05	-0.0003	0.00026	-2e-05	0	-1e-05	5
25212	-0.00015	-3e-05	-9e-05	-0.0003	0.00026	-2e-05	0	-1e-05	5
25213	-0.00015	-3e-05	-9e-05	-0.0003	0.00026	-2e-05	0	-1e-05	5
25214	-0.00015	-3e-05	-9e-05	-0.0003	0.00026	-2e-05	0	-1e-05	5
25215	-0.00015	-3e-05	-9e-05	-0.0003	0.00026	-2e-05	0	-1e-05	5
25216	-0.00015	-3e-05	-9e-05	-0.0003	0.00026	-2e-05	0	-1e-05	5
25217	-0.00015	-3e-05	-9e-05	-0.0003	0.00026	-2e-05	0	-1e-05	5
25218	-0.00015	-3e-05	-9e-05	-0.0003	0.00026	-2e-05	0	-1e-05	5
25219	-0.00015	-3e-05	-9e-05	-0.0003	0.00026	-2e-05	0	-1e-05	5
25220	-0.00015	-3e-05	-9e-05	-0.0003	0.00026	-2e-05	0	-1e-05	5
25221	-0.00015	-3e-05	-9e-05	-0.0003	0.00026	-2e-05	0	-1e-05	5
25222	-3e-05	-2e-05	-9e-05	-0.00051	0.0002	6e-05	0	2e-05	5
25223	-3e-05	-2e-05	-9e-05	-0.00051	0.0002	6e-05	0	2e-05	5
25224	-3e-05	-2e-05	-9e-05	-0.00051	0.0002	6e-05	0	2e-05	5
25225	-3e-05	-2e-05	-9e-05	-0.00051	0.0002	6e-05	0	2e-05	5
25226	-3e-05	-2e-05	-9e-05	-0.00051	0.0002	6e-05	0	2e-05	5
25227	-3e-05	-2e-05	-9e-05	-0.00051	0.0002	6e-05	0	2e-05	5
25228	-3e-05	-2e-05	-9e-05	-0.00051	0.0002	6e-05	0	2e-05	5
25229	-3e-05	-2e-05	-9e-05	-0.00051	0.0002	6e-05	0	2e-05	5
25230	-3e-05	-2e-05	-9e-05	-0.00051	0.0002	6e-05	0	2e-05	5
25231	-3e-05	-2e-05	-9e-05	-0.00051	0.0002	6e-05	0	2e-05	5
25232	-3e-05	-2e-05	-9e-05	-0.00051	0.0002	6e-05	0	2e-05	5
25233	-3e-05	-2e-05	-9e-05	-0.00051	0.0002	6e-05	0	2e-05	5
25234	-3e-05	-2e-05	-9e-05	-0.00051	0.0002	6e-05	0	2e-05	5
25235	-3e-05	-2e-05	-9e-05	-0.00051	0.0002	6e-05	0	2e-05	5
25237	0.00014	6e-05	0.00017	0.00052	0.00019	4e-05	1e-05	2e-05	5
25239	0.00014	6e-05	0.00017	0.00052	0.00019	4e-05	1e-05	2e-05	5
25240	0.00014	6e-05	0.00017	0.00052	0.00019	4e-05	1e-05	2e-05	5
25241	0.00014	6e-05	0.00017	0.00052	0.00019	4e-05	1e-05	2e-05	5
25242	0.00014	6e-05	0.00017	0.00052	0.00019	4e-05	1e-05	2e-05	5
25243	0.00014	6e-05	0.00017	0.00052	0.00019	4e-05	1e-05	2e-05	5
25244	0.00018	0.0001	0.00026	-0.00021	0.00014	2e-05	-2e-05	-3e-05	5
25245	0.00018	0.0001	0.00026	-0.00021	0.00014	2e-05	-2e-05	-3e-05	5
25246	0.00018	0.0001	0.00026	-0.00021	0.00014	2e-05	-2e-05	-3e-05	5
25247	0.00018	0.0001	0.00026	-0.00021	0.00014	2e-05	-2e-05	-3e-05	5
25248	0.00018	0.0001	0.00026	-0.00021	0.00014	2e-05	-2e-05	-3e-05	5
25249	0.00018	0.0001	0.00026	-0.00021	0.00014	2e-05	-2e-05	-3e-05	5
25250	0.00018	0.0001	0.00026	-0.00021	0.00014	2e-05	-2e-05	-3e-05	5
25251	0.00018	0.0001	0.00026	-0.00021	0.00014	2e-05	-2e-05	-3e-05	5
25252	0.00018	0.0001	0.00026	-0.00021	0.00014	2e-05	-2e-05	-3e-05	5
25253	0.00018	0.0001	0.00026	-0.00021	0.00014	2e-05	-2e-05	-3e-05	5
25254	0.00018	0.0001	0.00026	-0.00021	0.00014	2e-05	-2e-05	-3e-05	5
25255	0.00018	0.0001	0.00026	-0.00021	0.00014	2e-05	-2e-05	-3e-05	5
25256	0.00018	0.0001	0.00026	-0.00021	0.00014	2e-05	-2e-05	-3e-05	5
25257	0.00018	0.0001	0.00026	-0.00021	0.00014	2e-05	-2e-05	-3e-05	5
25258	0.00018	0.0001	0.00026	-0.00021	0.00014	2e-05	-2e-05	-3e-05	5
25259	-0.00029	-0.00018	-9e-05	2e-05	-0.00048	-2e-05	-2e-05	-8e-05	5
25260	-0.00018	7e-05	8e-05	-0.00016	0	-7e-05	-4e-05	-4e-05	5
25261	-0.00018	7e-05	8e-05	-0.00016	0	-7e-05	-4e-05	-4e-05	5
25262	-0.00018	7e-05	8e-05	-0.00016	0	-7e-05	-4e-05	-4e-05	5
25263	-0.00018	7e-05	8e-05	-0.00016	0	-7e-05	-4e-05	-4e-05	5
25264	-0.00018	7e-05	8e-05	-0.00016	0	-7e-05	-4e-05	-4e-05	5
25265	-0.00018	7e-05	8e-05	-0.00016	0	-7e-05	-4e-05	-4e-05	5
25266	-0.00018	7e-05	8e-05	-0.00016	0	-7e-05	-4e-05	-4e-05	5
25267	-0.00018	7e-05	8e-05	-0.00016	0	-7e-05	-4e-05	-4e-05	5
25268	-0.00018	7e-05	8e-05	-0.00016	0	-7e-05	-4e-05	-4e-05	5
25269	-0.00018	7e-05	8e-05	-0.00016	0	-7e-05	-4e-05	-4e-05	5
25270	-0.00018	7e-05	8e-05	-0.00016	0	-7e-05	-4e-05	-4e-05	5
25271	-0.00018	7e-05	8e-05	-0.00016	0	-7e-05	-4e-05	-4e-05	5
25272	-0.00018	7e-05	8e-05	-0.00016	0	-7e-05	-4e-05	-4e-05	5
25273	-0.00018	7e-05	8e-05	-0.00016	0	-7e-05	-4e-05	-4e-05	5
25274	-0.00018	7e-05	8e-05	-0.00016	0	-7e-05	-4e-05	-4e-05	5
25275	-0.00018	7e-05	8e-05	-0.00016	0	-7e-05	-4e-05	-4e-05	5
25276	-0.00018	7e-05	8e-05	-0.00016	0	-7e-05	-4e-05	-4e-05	5
25277	-0.00018	7e-05	8e-05	-0.00016	0	-7e-05	-4e-05	-4e-05	5
25278	-0.00018	7e-05	8e-05	-0.00016	0	-7e-05	-4e-05	-4e-05	5
25279	-0.00018	7e-05	8e-05	-0.00016	0	-7e-05	-4e-05	-4e-05	5
25280	-0.00018	7e-05	8e-05	-0.00016	0	-7e-05	-4e-05	-4e-05	5
25281	-0.00018	7e-05	8e-05	-0.00016	0	-7e-05	-4e-05	-4e-05	5
25282	7e-05	6e-05	1e-05	0.00051	-0.00024	0	0	-3e-05	5
25283	-3e-05	-3e-05	0	-0.00021	-0.00014	2e-05	0	4e-05	5
25284	-3e-05	-3e-05	0	-0.00021	-0.00014	2e-05	0	4e-05	5
25285	-3e-05	-3e-05	0	-0.00021	-0.00014	2e-05	0	4e-05	5
25287	-3e-05	-3e-05	0	-0.00021	-0.00014	2e-05	0	4e-05	5
25289	-3e-05	-3e-05	0	-0.00021	-0.00014	2e-05	0	4e-05	5
25290	-3e-05	-3e-05	0	-0.00021	-0.00014	2e-05	0	4e-05	5
25291	-3e-05	-3e-05	0	-0.00021	-0.00014	2e-05	0	4e-05	5
25292	-3e-05	-3e-05	0	-0.00021	-0.00014	2e-05	0	4e-05	5
25293	-3e-05	-3e-05	0	-0.00021	-0.00014	2e-05	0	4e-05	5
25294	-3e-05	-3e-05	0	-0.00021	-0.00014	2e-05	0	4e-05	5
25295	-3e-05	-3e-05	0	-0.00021	-0.00014	2e-05	0	4e-05	5
25296	4e-05	-0.00015	-3e-05	-0.00019	-7e-05	-8e-05	-5e-05	-3e-05	5
25297	4e-05	-0.00015	-3e-05	-0.00019	-7e-05	-8e-05	-5e-05	-3e-05	5
25298	4e-05	-0.00015	-3e-05	-0.00019	-7e-05	-8e-05	-5e-05	-3e-05	5
25299	4e-05	-0.00015	-3e-05	-0.00019	-7e-05	-8e-05	-5e-05	-3e-05	5
25300	4e-05	-0.00015	-3e-05	-0.00019	-7e-05	-8e-05	-5e-05	-3e-05	5
25301	4e-05	-0.00015	-3e-05	-0.00019	-7e-05	-8e-05	-5e-05	-3e-05	5
25302	4e-05	-0.00015	-3e-05	-0.00019	-7e-05	-8e-05	-5e-05	-3e-05	5
25303	4e-05	-0.00015	-3e-05	-0.00019	-7e-05	-8e-05	-5e-05	-3e-05	5
25304	-0.00025	-0.00021	-0.00039	-0.00038	-0.00011	-4e-05	-1e-05	-4e-05	5
25305	-0.00025	-0.00021	-0.00039	-0.00038	-0.00011	-4e-05	-1e-05	-4e-05	5
25306	-0.00025	-0.00021	-0.00039	-0.00038	-0.00011	-4e-05	-1e-05	-4e-05	5
25307	-0.00025	-0.00021	-0.00039	-0.00038	-0.00011	-4e-05	-1e-05	-4e-05	5
25308	-0.00025	-0.00021	-0.00039	-0.00038	-0.00011	-4e-05	-1e-05	-4e-05	5
25309	-0.00025	-0.00021	-0.00039	-0.00038	-0.00011	-4e-05	-1e-05	-4e-05	5
25310	-0.00025	-0.00021	-0.00039	-0.00038	-0.00011	-4e-05	-1e-05	-4e-05	5
25311	-0.00025	-0.00021	-0.00039	-0.00038	-0.00011	-4e-05	-1e-05	-4e-05	5
25312	-0.00025	-0.00021	-0.00039	-0.00038	-0.00011	-4e-05	-1e-05	-4e-05	5
25313	-0.00025	-0.00021	-0.00039	-0.00038	-0.00011	-4e-05	-1e-05	-4e-05	5
25314	-0.00025	-0.00021	-0.00039	-0.00038	-0.00011	-4e-05	-1e-05	-4e-05	5
25315	-0.00025	-0.00021	-0.00039	-0.00038	-0.00011	-4e-05	-1e-05	-4e-05	5
25316	-0.00025	-0.00021	-0.00039	-0.00038	-0.00011	-4e-05	-1e-05	-4e-05	5
25317	-0.00025	-0.00021	-0.00039	-0.00038	-0.00011	-4e-05	-1e-05	-4e-05	5
25318	-0.00025	-0.00021	-0.00039	-0.00038	-0.00011	-4e-05	-1e-05	-4e-05	5
25319	6e-05	5e-05	2e-05	-0.00042	-0.00049	-2e-05	-1e-05	4e-05	5
25320	5e-05	-0.0001	-0.00024	0.00084	0.00025	0.00012	3e-05	1e-05	5
25321	5e-05	-0.0001	-0.00024	0.00084	0.00025	0.00012	3e-05	1e-05	5
25322	5e-05	-0.0001	-0.00024	0.00084	0.00025	0.00012	3e-05	1e-05	5
25323	5e-05	-0.0001	-0.00024	0.00084	0.00025	0.00012	3e-05	1e-05	5
25324	5e-05	-0.0001	-0.00024	0.00084	0.00025	0.00012	3e-05	1e-05	5
25325	5e-05	-0.0001	-0.00024	0.00084	0.00025	0.00012	3e-05	1e-05	5
25326	5e-05	-0.0001	-0.00024	0.00084	0.00025	0.00012	3e-05	1e-05	5
25327	5e-05	-0.0001	-0.00024	0.00084	0.00025	0.00012	3e-05	1e-05	5
25328	5e-05	-0.0001	-0.00024	0.00084	0.00025	0.00012	3e-05	1e-05	5
25329	5e-05	-0.0001	-0.00024	0.00084	0.00025	0.00012	3e-05	1e-05	5
25330	5e-05	-0.0001	-0.00024	0.00084	0.00025	0.00012	3e-05	1e-05	5
25331	5e-05	-0.0001	-0.00024	0.00084	0.00025	0.00012	3e-05	1e-05	5
25332	5e-05	-0.0001	-0.00024	0.00084	0.00025	0.00012	3e-05	1e-05	5
25333	5e-05	-0.0001	-0.00024	0.00084	0.00025	0.00012	3e-05	1e-05	5
25334	5e-05	-0.0001	-0.00024	0.00084	0.00025	0.00012	3e-05	1e-05	5
25335	5e-05	-0.0001	-0.00024	0.00084	0.00025	0.00012	3e-05	1e-05	5
25337	5e-05	-0.0001	-0.00024	0.00084	0.00025	0.00012	3e-05	1e-05	5
25339	5e-05	-0.0001	-0.00024	0.00084	0.00025	0.00012	3e-05	1e-05	5
25340	5e-05	-0.0001	-0.00024	0.00084	0.00025	0.00012	3e-05	1e-05	5
25341	5e-05	-0.0001	-0.00024	0.00084	0.00025	0.00012	3e-05	1e-05	5
25342	-6e-05	0	1e-05	-0.00048	-1e-05	3e-05	-2e-05	-1e-05	5
25343	-0.0001	6e-05	0.00016	0.00083	0.00019	-0.00011	-3e-05	0	5
25344	-0.0001	6e-05	0.00016	0.00083	0.00019	-0.00011	-3e-05	0	5
25345	-0.0001	6e-05	0.00016	0.00083	0.00019	-0.00011	-3e-05	0	5
25346	-0.0001	6e-05	0.00016	0.00083	0.00019	-0.00011	-3e-05	0	5
25347	-0.0001	6e-05	0.00016	0.00083	0.00019	-0.00011	-3e-05	0	5
25348	-0.0001	6e-05	0.00016	0.00083	0.00019	-0.00011	-3e-05	0	5
25349	-0.0001	6e-05	0.00016	0.00083	0.00019	-0.00011	-3e-05	0	5
25350	-0.0001	6e-05	0.00016	0.00083	0.00019	-0.00011	-3e-05	0	5
25351	-0.0001	6e-05	0.00016	0.00083	0.00019	-0.00011	-3e-05	0	5
25352	-0.0001	6e-05	0.00016	0.00083	0.00019	-0.00011	-3e-05	0	5
25353	-0.0001	6e-05	0.00016	0.00083	0.00019	-0.00011	-3e-05	0	5
25354	-0.0001	6e-05	0.00016	0.00083	0.00019	-0.00011	-3e-05	0	5
25355	-0.0001	6e-05	0.00016	0.00083	0.00019	-0.00011	-3e-05	0	5
25356	-8e-05	-0.00014	5e-05	0.00043	0.00067	3e-05	-1e-05	-6e-05	5
25357	-8e-05	-0.00014	5e-05	0.00043	0.00067	3e-05	-1e-05	-6e-05	5
25358	-8e-05	-0.00014	5e-05	0.00043	0.00067	3e-05	-1e-05	-6e-05	5
25359	-8e-05	-0.00014	5e-05	0.00043	0.00067	3e-05	-1e-05	-6e-05	5
25360	-8e-05	-0.00014	5e-05	0.00043	0.00067	3e-05	-1e-05	-6e-05	5
25361	-8e-05	-0.00014	5e-05	0.00043	0.00067	3e-05	-1e-05	-6e-05	5
25362	-8e-05	-0.00014	5e-05	0.00043	0.00067	3e-05	-1e-05	-6e-05	5
25363	-8e-05	-0.00014	5e-05	0.00043	0.00067	3e-05	-1e-05	-6e-05	5
25364	0.00037	-2e-05	-9e-05	-0.00083	9e-05	-3e-05	-2e-05	1e-05	5
25365	0.00037	-2e-05	-9e-05	-0.00083	9e-05	-3e-05	-2e-05	1e-05	5
25366	0.00037	-2e-05	-9e-05	-0.00083	9e-05	-3e-05	-2e-05	1e-05	5
25367	0.00037	-2e-05	-9e-05	-0.00083	9e-05	-3e-05	-2e-05	1e-05	5
25368	0.00037	-2e-05	-9e-05	-0.00083	9e-05	-3e-05	-2e-05	1e-05	5
25369	0.00037	-2e-05	-9e-05	-0.00083	9e-05	-3e-05	-2e-05	1e-05	5
25370	0.00037	-2e-05	-9e-05	-0.00083	9e-05	-3e-05	-2e-05	1e-05	5
25371	0.00037	-2e-05	-9e-05	-0.00083	9e-05	-3e-05	-2e-05	1e-05	5
25372	0.00037	-2e-05	-9e-05	-0.00083	9e-05	-3e-05	-2e-05	1e-05	5
25373	0.00037	-2e-05	-9e-05	-0.00083	9e-05	-3e-05	-2e-05	1e-05	5
25374	0.00037	-2e-05	-9e-05	-0.00083	9e-05	-3e-05	-2e-05	1e-05	5
25375	0.00037	-2e-05	-9e-05	-0.00083	9e-05	-3e-05	-2e-05	1e-05	5
25376	0.00037	-2e-05	-9e-05	-0.00083	9e-05	-3e-05	-2e-05	1e-05	5
25377	0.00037	-2e-05	-9e-05	-0.00083	9e-05	-3e-05	-2e-05	1e-05	5
25378	0.00037	-2e-05	-9e-05	-0.00083	9e-05	-3e-05	-2e-05	1e-05	5
25379	0.00013	0.00017	0.0002	0.0006	-0.00023	2e-05	1e-05	-1e-05	5
25380	0.0004	4e-05	4e-05	-8e-05	-0.00031	-4e-05	-1e-05	3e-05	5
25381	0.0004	4e-05	4e-05	-8e-05	-0.00031	-4e-05	-1e-05	3e-05	5
25382	0.0004	4e-05	4e-05	-8e-05	-0.00031	-4e-05	-1e-05	3e-05	5
25383	0.0004	4e-05	4e-05	-8e-05	-0.00031	-4e-05	-1e-05	3e-05	5
25384	0.0004	4e-05	4e-05	-8e-05	-0.00031	-4e-05	-1e-05	3e-05	5
25385	0.0004	4e-05	4e-05	-8e-05	-0.00031	-4e-05	-1e-05	3e-05	5
25387	0.0004	4e-05	4e-05	-8e-05	-0.00031	-4e-05	-1e-05	3e-05	5
25389	0.0004	4e-05	4e-05	-8e-05	-0.00031	-4e-05	-1e-05	3e-05	5
25390	0.0004	4e-05	4e-05	-8e-05	-0.00031	-4e-05	-1e-05	3e-05	5
25391	0.0004	4e-05	4e-05	-8e-05	-0.00031	-4e-05	-1e-05	3e-05	5
25392	0.0004	4e-05	4e-05	-8e-05	-0.00031	-4e-05	-1e-05	3e-05	5
25393	0.0004	4e-05	4e-05	-8e-05	-0.00031	-4e-05	-1e-05	3e-05	5
25394	0.0004	4e-05	4e-05	-8e-05	-0.00031	-4e-05	-1e-05	3e-05	5
25395	0.0004	4e-05	4e-05	-8e-05	-0.00031	-4e-05	-1e-05	3e-05	5
25396	0.0004	4e-05	4e-05	-8e-05	-0.00031	-4e-05	-1e-05	3e-05	5
25397	0.0004	4e-05	4e-05	-8e-05	-0.00031	-4e-05	-1e-05	3e-05	5
25398	0.0004	4e-05	4e-05	-8e-05	-0.00031	-4e-05	-1e-05	3e-05	5
25399	0.0004	4e-05	4e-05	-8e-05	-0.00031	-4e-05	-1e-05	3e-05	5
25400	0.0004	4e-05	4e-05	-8e-05	-0.00031	-4e-05	-1e-05	3e-05	5
25401	0.0004	4e-05	4e-05	-8e-05	-0.00031	-4e-05	-1e-05	3e-05	5
25402	-8e-05	-4e-05	-0.00015	-0.00049	0.00037	0	-2e-05	2e-05	5
25403	-0.0001	0.0001	0.0001	-0.00015	0.00026	-3e-05	0	-1e-05	5
25404	-0.0001	0.0001	0.0001	-0.00015	0.00026	-3e-05	0	-1e-05	5
25405	-0.0001	0.0001	0.0001	-0.00015	0.00026	-3e-05	0	-1e-05	5
25406	-0.0001	0.0001	0.0001	-0.00015	0.00026	-3e-05	0	-1e-05	5
25407	-0.0001	0.0001	0.0001	-0.00015	0.00026	-3e-05	0	-1e-05	5
25408	-0.0001	0.0001	0.0001	-0.00015	0.00026	-3e-05	0	-1e-05	5
25409	-0.0001	0.0001	0.0001	-0.00015	0.00026	-3e-05	0	-1e-05	5
25410	-0.0001	0.0001	0.0001	-0.00015	0.00026	-3e-05	0	-1e-05	5
25411	-0.0001	0.0001	0.0001	-0.00015	0.00026	-3e-05	0	-1e-05	5
25412	-0.0001	0.0001	0.0001	-0.00015	0.00026	-3e-05	0	-1e-05	5
25413	-0.0001	0.0001	0.0001	-0.00015	0.00026	-3e-05	0	-1e-05	5
25414	-0.0001	0.0001	0.0001	-0.00015	0.00026	-3e-05	0	-1e-05	5
25415	-0.0001	0.0001	0.0001	-0.00015	0.00026	-3e-05	0	-1e-05	5
25416	-0.0001	-4e-05	0.0002	-7e-05	-0.00048	-2e-05	-3e-05	-6e-05	5
25417	-0.0001	-4e-05	0.0002	-7e-05	-0.00048	-2e-05	-3e-05	-6e-05	5
25418	-0.0001	-4e-05	0.0002	-7e-05	-0.00048	-2e-05	-3e-05	-6e-05	5
25419	-0.0001	-4e-05	0.0002	-7e-05	-0.00048	-2e-05	-3e-05	-6e-05	5
25420	-0.0001	-4e-05	0.0002	-7e-05	-0.00048	-2e-05	-3e-05	-6e-05	5
25421	-0.0001	-4e-05	0.0002	-7e-05	-0.00048	-2e-05	-3e-05	-6e-05	5
25422	-0.0001	-4e-05	0.0002	-7e-05	-0.00048	-2e-05	-3e-05	-6e-05	5
25423	-0.0001	-4e-05	0.0002	-7e-05	-0.00048	-2e-05	-3e-05	-6e-05	5
25424	-0.00017	-6e-05	5e-05	2e-05	-0.00016	-2e-05	1e-05	-5e-05	5
25425	-0.00017	-6e-05	5e-05	2e-05	-0.00016	-2e-05	1e-05	-5e-05	5
25426	-0.00017	-6e-05	5e-05	2e-05	-0.00016	-2e-05	1e-05	-5e-05	5
25427	-0.00017	-6e-05	5e-05	2e-05	-0.00016	-2e-05	1e-05	-5e-05	5
25428	-0.00017	-6e-05	5e-05	2e-05	-0.00016	-2e-05	1e-05	-5e-05	5
25429	-0.00017	-6e-05	5e-05	2e-05	-0.00016	-2e-05	1e-05	-5e-05	5
25430	-0.00017	-6e-05	5e-05	2e-05	-0.00016	-2e-05	1e-05	-5e-05	5
25431	-0.00017	-6e-05	5e-05	2e-05	-0.00016	-2e-05	1e-05	-5e-05	5
25432	-0.00017	-6e-05	5e-05	2e-05	-0.00016	-2e-05	1e-05	-5e-05	5
25433	-0.00017	-6e-05	5e-05	2e-05	-0.00016	-2e-05	1e-05	-5e-05	5
25434	-0.00017	-6e-05	5e-05	2e-05	-0.00016	-2e-05	1e-05	-5e-05	5
25435	-0.00017	-6e-05	5e-05	2e-05	-0.00016	-2e-05	1e-05	-5e-05	5
25437	-0.00017	-6e-05	5e-05	2e-05	-0.00016	-2e-05	1e-05	-5e-05	5
25439	4e-05	0.00014	1e-05	0.00025	0.00029	3e-05	2e-05	2e-05	5
25440	-0.00029	-0.00016	-0.00011	-0.0001	-0.00019	-8e-05	-3e-05	-7e-05	5
25441	-0.00029	-0.00016	-0.00011	-0.0001	-0.00019	-8e-05	-3e-05	-7e-05	5
25442	-0.00029	-0.00016	-0.00011	-0.0001	-0.00019	-8e-05	-3e-05	-7e-05	5
25443	-0.00029	-0.00016	-0.00011	-0.0001	-0.00019	-8e-05	-3e-05	-7e-05	5
25444	-0.00029	-0.00016	-0.00011	-0.0001	-0.00019	-8e-05	-3e-05	-7e-05	5
25445	-0.00029	-0.00016	-0.00011	-0.0001	-0.00019	-8e-05	-3e-05	-7e-05	5
25446	-0.00029	-0.00016	-0.00011	-0.0001	-0.00019	-8e-05	-3e-05	-7e-05	5
25447	-0.00029	-0.00016	-0.00011	-0.0001	-0.00019	-8e-05	-3e-05	-7e-05	5
25448	-0.00029	-0.00016	-0.00011	-0.0001	-0.00019	-8e-05	-3e-05	-7e-05	5
25449	-0.00029	-0.00016	-0.00011	-0.0001	-0.00019	-8e-05	-3e-05	-7e-05	5
25450	-0.00029	-0.00016	-0.00011	-0.0001	-0.00019	-8e-05	-3e-05	-7e-05	5
25451	-0.00029	-0.00016	-0.00011	-0.0001	-0.00019	-8e-05	-3e-05	-7e-05	5
25452	-0.00029	-0.00016	-0.00011	-0.0001	-0.00019	-8e-05	-3e-05	-7e-05	5
25453	-0.00029	-0.00016	-0.00011	-0.0001	-0.00019	-8e-05	-3e-05	-7e-05	5
25454	-0.00029	-0.00016	-0.00011	-0.0001	-0.00019	-8e-05	-3e-05	-7e-05	5
25455	-0.00029	-0.00016	-0.00011	-0.0001	-0.00019	-8e-05	-3e-05	-7e-05	5
25456	-0.00029	-0.00016	-0.00011	-0.0001	-0.00019	-8e-05	-3e-05	-7e-05	5
25457	-0.00029	-0.00016	-0.00011	-0.0001	-0.00019	-8e-05	-3e-05	-7e-05	5
25458	-0.00029	-0.00016	-0.00011	-0.0001	-0.00019	-8e-05	-3e-05	-7e-05	5
25459	-0.00029	-0.00016	-0.00011	-0.0001	-0.00019	-8e-05	-3e-05	-7e-05	5
25460	-0.00029	-0.00016	-0.00011	-0.0001	-0.00019	-8e-05	-3e-05	-7e-05	5
25461	-0.00029	-0.00016	-0.00011	-0.0001	-0.00019	-8e-05	-3e-05	-7e-05	5
25462	-0.00032	-7e-05	2e-05	0.00061	1e-05	0.00012	0	-0.00016	5
25463	-0.00032	-7e-05	2e-05	0.00061	1e-05	0.00012	0	-0.00016	5
25464	-0.00032	-7e-05	2e-05	0.00061	1e-05	0.00012	0	-0.00016	5
25465	-0.00032	-7e-05	2e-05	0.00061	1e-05	0.00012	0	-0.00016	5
25466	-0.00032	-7e-05	2e-05	0.00061	1e-05	0.00012	0	-0.00016	5
25467	-0.00032	-7e-05	2e-05	0.00061	1e-05	0.00012	0	-0.00016	5
25468	-0.00032	-7e-05	2e-05	0.00061	1e-05	0.00012	0	-0.00016	5
25469	-0.00032	-7e-05	2e-05	0.00061	1e-05	0.00012	0	-0.00016	5
25470	-0.00032	-7e-05	2e-05	0.00061	1e-05	0.00012	0	-0.00016	5
25471	-0.00032	-7e-05	2e-05	0.00061	1e-05	0.00012	0	-0.00016	5
25472	-0.00032	-7e-05	2e-05	0.00061	1e-05	0.00012	0	-0.00016	5
25473	-0.00032	-7e-05	2e-05	0.00061	1e-05	0.00012	0	-0.00016	5
25474	-0.00032	-7e-05	2e-05	0.00061	1e-05	0.00012	0	-0.00016	5
25475	-0.00032	-7e-05	2e-05	0.00061	1e-05	0.00012	0	-0.00016	5
25476	-0.00032	-7e-05	2e-05	0.00061	1e-05	0.00012	0	-0.00016	5
25477	-0.00032	-7e-05	2e-05	0.00061	1e-05	0.00012	0	-0.00016	5
25478	-0.00032	-7e-05	2e-05	0.00061	1e-05	0.00012	0	-0.00016	5
25479	-0.00032	-7e-05	2e-05	0.00061	1e-05	0.00012	0	-0.00016	5
25480	-0.00032	-7e-05	2e-05	0.00061	1e-05	0.00012	0	-0.00016	5
25481	-0.00032	-7e-05	2e-05	0.00061	1e-05	0.00012	0	-0.00016	5
25482	-0.00032	-7e-05	2e-05	0.00061	1e-05	0.00012	0	-0.00016	5
25483	-0.00032	-7e-05	2e-05	0.00061	1e-05	0.00012	0	-0.00016	5
25484	-0.00032	-7e-05	2e-05	0.00061	1e-05	0.00012	0	-0.00016	5
25485	0	-0.00014	-0.00041	0.0004	0.001	0.00014	-2e-05	-6e-05	5
25487	1e-05	2e-05	3e-05	-0.00043	4e-05	2e-05	2e-05	0	5
25489	1e-05	2e-05	3e-05	-0.00043	4e-05	2e-05	2e-05	0	5
25490	1e-05	2e-05	3e-05	-0.00043	4e-05	2e-05	2e-05	0	5
25491	1e-05	2e-05	3e-05	-0.00043	4e-05	2e-05	2e-05	0	5
25492	1e-05	2e-05	3e-05	-0.00043	4e-05	2e-05	2e-05	0	5
25493	1e-05	2e-05	3e-05	-0.00043	4e-05	2e-05	2e-05	0	5
25494	1e-05	2e-05	3e-05	-0.00043	4e-05	2e-05	2e-05	0	5
25495	1e-05	2e-05	3e-05	-0.00043	4e-05	2e-05	2e-05	0	5
25496	1e-05	2e-05	3e-05	-0.00043	4e-05	2e-05	2e-05	0	5
25497	1e-05	2e-05	3e-05	-0.00043	4e-05	2e-05	2e-05	0	5
25498	1e-05	2e-05	3e-05	-0.00043	4e-05	2e-05	2e-05	0	5
25499	0	0.00011	0.00022	0.00051	-0.00043	-9e-05	0	2e-05	5
25500	7e-05	5e-05	3e-05	7e-05	-0.00038	-6e-05	-1e-05	2e-05	5
25501	7e-05	5e-05	3e-05	7e-05	-0.00038	-6e-05	-1e-05	2e-05	5
25502	7e-05	5e-05	3e-05	7e-05	-0.00038	-6e-05	-1e-05	2e-05	5
25503	7e-05	5e-05	3e-05	7e-05	-0.00038	-6e-05	-1e-05	2e-05	5
25504	7e-05	5e-05	3e-05	7e-05	-0.00038	-6e-05	-1e-05	2e-05	5
25505	7e-05	5e-05	3e-05	7e-05	-0.00038	-6e-05	-1e-05	2e-05	5
25506	7e-05	5e-05	3e-05	7e-05	-0.00038	-6e-05	-1e-05	2e-05	5
25507	7e-05	5e-05	3e-05	7e-05	-0.00038	-6e-05	-1e-05	2e-05	5
25508	7e-05	5e-05	3e-05	7e-05	-0.00038	-6e-05	-1e-05	2e-05	5
25509	7e-05	5e-05	3e-05	7e-05	-0.00038	-6e-05	-1e-05	2e-05	5
25510	7e-05	5e-05	3e-05	7e-05	-0.00038	-6e-05	-1e-05	2e-05	5
25511	7e-05	5e-05	3e-05	7e-05	-0.00038	-6e-05	-1e-05	2e-05	5
25512	7e-05	5e-05	3e-05	7e-05	-0.00038	-6e-05	-1e-05	2e-05	5
25513	7e-05	5e-05	3e-05	7e-05	-0.00038	-6e-05	-1e-05	2e-05	5
25514	7e-05	5e-05	3e-05	7e-05	-0.00038	-6e-05	-1e-05	2e-05	5
25515	7e-05	5e-05	3e-05	7e-05	-0.00038	-6e-05	-1e-05	2e-05	5
25516	7e-05	5e-05	3e-05	7e-05	-0.00038	-6e-05	-1e-05	2e-05	5
25517	7e-05	5e-05	3e-05	7e-05	-0.00038	-6e-05	-1e-05	2e-05	5
25518	7e-05	5e-05	3e-05	7e-05	-0.00038	-6e-05	-1e-05	2e-05	5
25519	7e-05	5e-05	3e-05	7e-05	-0.00038	-6e-05	-1e-05	2e-05	5
25520	7e-05	5e-05	3e-05	7e-05	-0.00038	-6e-05	-1e-05	2e-05	5
25521	-0.00012	-3e-05	-4e-05	-0.0006	-0.00044	1e-05	1e-05	-1e-05	5
25522	1e-05	-3e-05	0.00048	-0.00023	-0.00069	8e-05	1e-05	-2e-05	5
25523	-2e-05	-5e-05	-6e-05	4e-05	0.00025	-5e-05	-5e-05	-1e-05	5
25524	-2e-05	-5e-05	-6e-05	4e-05	0.00025	-5e-05	-5e-05	-1e-05	5
25525	-2e-05	-5e-05	-6e-05	4e-05	0.00025	-5e-05	-5e-05	-1e-05	5
25526	-2e-05	-5e-05	-6e-05	4e-05	0.00025	-5e-05	-5e-05	-1e-05	5
25527	-2e-05	-5e-05	-6e-05	4e-05	0.00025	-5e-05	-5e-05	-1e-05	5
25528	-2e-05	-5e-05	-6e-05	4e-05	0.00025	-5e-05	-5e-05	-1e-05	5
25529	-2e-05	-5e-05	-6e-05	4e-05	0.00025	-5e-05	-5e-05	-1e-05	5
25530	-2e-05	-5e-05	-6e-05	4e-05	0.00025	-5e-05	-5e-05	-1e-05	5
25531	-2e-05	-5e-05	-6e-05	4e-05	0.00025	-5e-05	-5e-05	-1e-05	5
25532	-2e-05	-5e-05	-6e-05	4e-05	0.00025	-5e-05	-5e-05	-1e-05	5
25533	-2e-05	-5e-05	-6e-05	4e-05	0.00025	-5e-05	-5e-05	-1e-05	5
25534	-2e-05	-5e-05	-6e-05	4e-05	0.00025	-5e-05	-5e-05	-1e-05	5
25535	-2e-05	-5e-05	-6e-05	4e-05	0.00025	-5e-05	-5e-05	-1e-05	5
25537	-2e-05	-5e-05	-6e-05	4e-05	0.00025	-5e-05	-5e-05	-1e-05	5
25539	-2e-05	-5e-05	-6e-05	4e-05	0.00025	-5e-05	-5e-05	-1e-05	5
25540	-2e-05	-5e-05	-6e-05	4e-05	0.00025	-5e-05	-5e-05	-1e-05	5
25541	-2e-05	-5e-05	-6e-05	4e-05	0.00025	-5e-05	-5e-05	-1e-05	5
25542	-2e-05	-5e-05	-6e-05	4e-05	0.00025	-5e-05	-5e-05	-1e-05	5
25543	-2e-05	-5e-05	-6e-05	4e-05	0.00025	-5e-05	-5e-05	-1e-05	5
25544	-2e-05	-5e-05	-6e-05	4e-05	0.00025	-5e-05	-5e-05	-1e-05	5
25545	-6e-05	-7e-05	-0.00015	-0.00076	-0.00047	-0.00033	-0.0001	-7e-05	5
25546	5e-05	-3e-05	-0.00024	-0.00037	-8e-05	3e-05	-1e-05	1e-05	5
25547	5e-05	-3e-05	-0.00024	-0.00037	-8e-05	3e-05	-1e-05	1e-05	5
25548	5e-05	-3e-05	-0.00024	-0.00037	-8e-05	3e-05	-1e-05	1e-05	5
25549	5e-05	-3e-05	-0.00024	-0.00037	-8e-05	3e-05	-1e-05	1e-05	5
25550	5e-05	-3e-05	-0.00024	-0.00037	-8e-05	3e-05	-1e-05	1e-05	5
25551	5e-05	-3e-05	-0.00024	-0.00037	-8e-05	3e-05	-1e-05	1e-05	5
25552	5e-05	-3e-05	-0.00024	-0.00037	-8e-05	3e-05	-1e-05	1e-05	5
25553	5e-05	-3e-05	-0.00024	-0.00037	-8e-05	3e-05	-1e-05	1e-05	5
25554	5e-05	-3e-05	-0.00024	-0.00037	-8e-05	3e-05	-1e-05	1e-05	5
25555	5e-05	-3e-05	-0.00024	-0.00037	-8e-05	3e-05	-1e-05	1e-05	5
25556	5e-05	-3e-05	-0.00024	-0.00037	-8e-05	3e-05	-1e-05	1e-05	5
25557	5e-05	-3e-05	-0.00024	-0.00037	-8e-05	3e-05	-1e-05	1e-05	5
25558	5e-05	-3e-05	-0.00024	-0.00037	-8e-05	3e-05	-1e-05	1e-05	5
25559	-3e-05	-9e-05	-0.00015	-0.00016	-0.00047	-4e-05	-4e-05	-2e-05	5
25560	8e-05	8e-05	7e-05	-0.00017	-0.00022	-5e-05	-3e-05	3e-05	5
25561	8e-05	8e-05	7e-05	-0.00017	-0.00022	-5e-05	-3e-05	3e-05	5
25562	8e-05	8e-05	7e-05	-0.00017	-0.00022	-5e-05	-3e-05	3e-05	5
25563	8e-05	8e-05	7e-05	-0.00017	-0.00022	-5e-05	-3e-05	3e-05	5
25564	8e-05	8e-05	7e-05	-0.00017	-0.00022	-5e-05	-3e-05	3e-05	5
25565	8e-05	8e-05	7e-05	-0.00017	-0.00022	-5e-05	-3e-05	3e-05	5
25566	8e-05	8e-05	7e-05	-0.00017	-0.00022	-5e-05	-3e-05	3e-05	5
25567	8e-05	8e-05	7e-05	-0.00017	-0.00022	-5e-05	-3e-05	3e-05	5
25568	8e-05	8e-05	7e-05	-0.00017	-0.00022	-5e-05	-3e-05	3e-05	5
25569	8e-05	8e-05	7e-05	-0.00017	-0.00022	-5e-05	-3e-05	3e-05	5
25570	8e-05	8e-05	7e-05	-0.00017	-0.00022	-5e-05	-3e-05	3e-05	5
25571	8e-05	8e-05	7e-05	-0.00017	-0.00022	-5e-05	-3e-05	3e-05	5
25572	8e-05	8e-05	7e-05	-0.00017	-0.00022	-5e-05	-3e-05	3e-05	5
25573	8e-05	8e-05	7e-05	-0.00017	-0.00022	-5e-05	-3e-05	3e-05	5
25574	8e-05	8e-05	7e-05	-0.00017	-0.00022	-5e-05	-3e-05	3e-05	5
25575	8e-05	8e-05	7e-05	-0.00017	-0.00022	-5e-05	-3e-05	3e-05	5
25576	8e-05	8e-05	7e-05	-0.00017	-0.00022	-5e-05	-3e-05	3e-05	5
25577	8e-05	8e-05	7e-05	-0.00017	-0.00022	-5e-05	-3e-05	3e-05	5
25578	8e-05	8e-05	7e-05	-0.00017	-0.00022	-5e-05	-3e-05	3e-05	5
25579	8e-05	8e-05	7e-05	-0.00017	-0.00022	-5e-05	-3e-05	3e-05	5
25580	8e-05	8e-05	7e-05	-0.00017	-0.00022	-5e-05	-3e-05	3e-05	5
25581	8e-05	8e-05	7e-05	-0.00017	-0.00022	-5e-05	-3e-05	3e-05	5
25582	1e-05	-2e-05	2e-05	-3e-05	0.00026	9e-05	3e-05	-1e-05	5
25583	1e-05	-2e-05	2e-05	-3e-05	0.00026	9e-05	3e-05	-1e-05	5
25584	1e-05	-2e-05	2e-05	-3e-05	0.00026	9e-05	3e-05	-1e-05	5
25585	1e-05	-2e-05	2e-05	-3e-05	0.00026	9e-05	3e-05	-1e-05	5
25587	1e-05	-2e-05	2e-05	-3e-05	0.00026	9e-05	3e-05	-1e-05	5
25589	1e-05	-2e-05	2e-05	-3e-05	0.00026	9e-05	3e-05	-1e-05	5
25590	1e-05	-2e-05	2e-05	-3e-05	0.00026	9e-05	3e-05	-1e-05	5
25591	1e-05	-2e-05	2e-05	-3e-05	0.00026	9e-05	3e-05	-1e-05	5
25592	1e-05	-2e-05	2e-05	-3e-05	0.00026	9e-05	3e-05	-1e-05	5
25593	1e-05	-2e-05	2e-05	-3e-05	0.00026	9e-05	3e-05	-1e-05	5
25594	1e-05	-2e-05	2e-05	-3e-05	0.00026	9e-05	3e-05	-1e-05	5
25595	1e-05	-2e-05	2e-05	-3e-05	0.00026	9e-05	3e-05	-1e-05	5
25596	1e-05	-2e-05	2e-05	-3e-05	0.00026	9e-05	3e-05	-1e-05	5
25597	1e-05	-2e-05	2e-05	-3e-05	0.00026	9e-05	3e-05	-1e-05	5
25598	1e-05	-2e-05	2e-05	-3e-05	0.00026	9e-05	3e-05	-1e-05	5
25599	1e-05	-2e-05	2e-05	-3e-05	0.00026	9e-05	3e-05	-1e-05	5
25600	1e-05	-2e-05	2e-05	-3e-05	0.00026	9e-05	3e-05	-1e-05	5
25601	1e-05	-2e-05	2e-05	-3e-05	0.00026	9e-05	3e-05	-1e-05	5
25602	1e-05	-2e-05	2e-05	-3e-05	0.00026	9e-05	3e-05	-1e-05	5
25603	1e-05	-2e-05	2e-05	-3e-05	0.00026	9e-05	3e-05	-1e-05	5
25604	1e-05	-2e-05	2e-05	-3e-05	0.00026	9e-05	3e-05	-1e-05	5
25605	-1e-05	5e-05	0.00011	0.00013	-0.00028	-4e-05	-3e-05	-1e-05	5
25606	2e-05	0.00012	0.00027	-0.00014	-4e-05	-9e-05	-4e-05	2e-05	5
25607	2e-05	0.00012	0.00027	-0.00014	-4e-05	-9e-05	-4e-05	2e-05	5
25608	2e-05	0.00012	0.00027	-0.00014	-4e-05	-9e-05	-4e-05	2e-05	5
25609	2e-05	0.00012	0.00027	-0.00014	-4e-05	-9e-05	-4e-05	2e-05	5
25610	2e-05	0.00012	0.00027	-0.00014	-4e-05	-9e-05	-4e-05	2e-05	5
25611	2e-05	0.00012	0.00027	-0.00014	-4e-05	-9e-05	-4e-05	2e-05	5
25612	2e-05	0.00012	0.00027	-0.00014	-4e-05	-9e-05	-4e-05	2e-05	5
25613	2e-05	0.00012	0.00027	-0.00014	-4e-05	-9e-05	-4e-05	2e-05	5
25614	2e-05	0.00012	0.00027	-0.00014	-4e-05	-9e-05	-4e-05	2e-05	5
25615	2e-05	0.00012	0.00027	-0.00014	-4e-05	-9e-05	-4e-05	2e-05	5
25616	2e-05	0.00012	0.00027	-0.00014	-4e-05	-9e-05	-4e-05	2e-05	5
25617	2e-05	0.00012	0.00027	-0.00014	-4e-05	-9e-05	-4e-05	2e-05	5
25618	2e-05	0.00012	0.00027	-0.00014	-4e-05	-9e-05	-4e-05	2e-05	5
25619	-0.00011	-5e-05	-0.00026	-0.00023	4e-05	-3e-05	-3e-05	-2e-05	5
25620	-0.00021	1e-05	0.00026	4e-05	-1e-05	-4e-05	-1e-05	0	5
25621	-0.00021	1e-05	0.00026	4e-05	-1e-05	-4e-05	-1e-05	0	5
25622	-0.00021	1e-05	0.00026	4e-05	-1e-05	-4e-05	-1e-05	0	5
25623	-0.00021	1e-05	0.00026	4e-05	-1e-05	-4e-05	-1e-05	0	5
25624	-0.00021	1e-05	0.00026	4e-05	-1e-05	-4e-05	-1e-05	0	5
25625	-0.00021	1e-05	0.00026	4e-05	-1e-05	-4e-05	-1e-05	0	5
25626	-0.00021	1e-05	0.00026	4e-05	-1e-05	-4e-05	-1e-05	0	5
25627	-0.00021	1e-05	0.00026	4e-05	-1e-05	-4e-05	-1e-05	0	5
25628	-0.00021	1e-05	0.00026	4e-05	-1e-05	-4e-05	-1e-05	0	5
25629	-0.00021	1e-05	0.00026	4e-05	-1e-05	-4e-05	-1e-05	0	5
25630	-0.00021	1e-05	0.00026	4e-05	-1e-05	-4e-05	-1e-05	0	5
25631	-0.00021	1e-05	0.00026	4e-05	-1e-05	-4e-05	-1e-05	0	5
25632	-0.00021	1e-05	0.00026	4e-05	-1e-05	-4e-05	-1e-05	0	5
25633	-0.00021	1e-05	0.00026	4e-05	-1e-05	-4e-05	-1e-05	0	5
25634	-0.00021	1e-05	0.00026	4e-05	-1e-05	-4e-05	-1e-05	0	5
25635	-0.00021	1e-05	0.00026	4e-05	-1e-05	-4e-05	-1e-05	0	5
25637	-0.00021	1e-05	0.00026	4e-05	-1e-05	-4e-05	-1e-05	0	5
25639	-0.00021	1e-05	0.00026	4e-05	-1e-05	-4e-05	-1e-05	0	5
25640	-0.00021	1e-05	0.00026	4e-05	-1e-05	-4e-05	-1e-05	0	5
25641	-0.00021	1e-05	0.00026	4e-05	-1e-05	-4e-05	-1e-05	0	5
25642	-9e-05	0.0001	0.00032	-0.00057	0.00049	0.00025	9e-05	4e-05	5
25643	7e-05	-4e-05	-8e-05	9e-05	-5e-05	3e-05	-2e-05	-3e-05	5
25644	7e-05	-4e-05	-8e-05	9e-05	-5e-05	3e-05	-2e-05	-3e-05	5
25645	7e-05	-4e-05	-8e-05	9e-05	-5e-05	3e-05	-2e-05	-3e-05	5
25646	7e-05	-4e-05	-8e-05	9e-05	-5e-05	3e-05	-2e-05	-3e-05	5
25647	7e-05	-4e-05	-8e-05	9e-05	-5e-05	3e-05	-2e-05	-3e-05	5
25648	7e-05	-4e-05	-8e-05	9e-05	-5e-05	3e-05	-2e-05	-3e-05	5
25649	7e-05	-4e-05	-8e-05	9e-05	-5e-05	3e-05	-2e-05	-3e-05	5
25650	7e-05	-4e-05	-8e-05	9e-05	-5e-05	3e-05	-2e-05	-3e-05	5
25651	7e-05	-4e-05	-8e-05	9e-05	-5e-05	3e-05	-2e-05	-3e-05	5
25652	7e-05	-4e-05	-8e-05	9e-05	-5e-05	3e-05	-2e-05	-3e-05	5
25653	7e-05	-4e-05	-8e-05	9e-05	-5e-05	3e-05	-2e-05	-3e-05	5
25654	7e-05	-4e-05	-8e-05	9e-05	-5e-05	3e-05	-2e-05	-3e-05	5
25655	7e-05	-4e-05	-8e-05	9e-05	-5e-05	3e-05	-2e-05	-3e-05	5
25656	7e-05	-4e-05	-8e-05	9e-05	-5e-05	3e-05	-2e-05	-3e-05	5
25657	7e-05	-4e-05	-8e-05	9e-05	-5e-05	3e-05	-2e-05	-3e-05	5
25658	7e-05	-4e-05	-8e-05	9e-05	-5e-05	3e-05	-2e-05	-3e-05	5
25659	7e-05	-4e-05	-8e-05	9e-05	-5e-05	3e-05	-2e-05	-3e-05	5
25660	7e-05	-4e-05	-8e-05	9e-05	-5e-05	3e-05	-2e-05	-3e-05	5
25661	7e-05	-4e-05	-8e-05	9e-05	-5e-05	3e-05	-2e-05	-3e-05	5
25662	7e-05	-4e-05	-8e-05	9e-05	-5e-05	3e-05	-2e-05	-3e-05	5
25663	7e-05	-4e-05	-8e-05	9e-05	-5e-05	3e-05	-2e-05	-3e-05	5
25664	7e-05	-4e-05	-8e-05	9e-05	-5e-05	3e-05	-2e-05	-3e-05	5
25665	-0.00055	2e-05	0.00048	-0.00024	-0.00012	-0.00012	-4e-05	-7e-05	5
25666	7e-05	-0.00021	-0.00083	-0.00039	-0.00032	1e-05	-2e-05	-3e-05	5
25667	7e-05	-0.00021	-0.00083	-0.00039	-0.00032	1e-05	-2e-05	-3e-05	5
25668	7e-05	-0.00021	-0.00083	-0.00039	-0.00032	1e-05	-2e-05	-3e-05	5
25669	7e-05	-0.00021	-0.00083	-0.00039	-0.00032	1e-05	-2e-05	-3e-05	5
25670	7e-05	-0.00021	-0.00083	-0.00039	-0.00032	1e-05	-2e-05	-3e-05	5
25671	7e-05	-0.00021	-0.00083	-0.00039	-0.00032	1e-05	-2e-05	-3e-05	5
25672	7e-05	-0.00021	-0.00083	-0.00039	-0.00032	1e-05	-2e-05	-3e-05	5
25673	7e-05	-0.00021	-0.00083	-0.00039	-0.00032	1e-05	-2e-05	-3e-05	5
25674	7e-05	-0.00021	-0.00083	-0.00039	-0.00032	1e-05	-2e-05	-3e-05	5
25675	7e-05	-0.00021	-0.00083	-0.00039	-0.00032	1e-05	-2e-05	-3e-05	5
25676	7e-05	-0.00021	-0.00083	-0.00039	-0.00032	1e-05	-2e-05	-3e-05	5
25677	7e-05	-0.00021	-0.00083	-0.00039	-0.00032	1e-05	-2e-05	-3e-05	5
25678	7e-05	-0.00021	-0.00083	-0.00039	-0.00032	1e-05	-2e-05	-3e-05	5
25679	-0.00012	0.00012	0.00014	0.0005	0.00039	0.0001	4e-05	5e-05	5
25680	-0.00021	2e-05	0.00023	0.00082	0.00015	-5e-05	-1e-05	-1e-05	5
25681	-0.00021	2e-05	0.00023	0.00082	0.00015	-5e-05	-1e-05	-1e-05	5
25682	-0.00021	2e-05	0.00023	0.00082	0.00015	-5e-05	-1e-05	-1e-05	5
25683	-0.00021	2e-05	0.00023	0.00082	0.00015	-5e-05	-1e-05	-1e-05	5
25684	-0.00021	2e-05	0.00023	0.00082	0.00015	-5e-05	-1e-05	-1e-05	5
25685	-0.00021	2e-05	0.00023	0.00082	0.00015	-5e-05	-1e-05	-1e-05	5
25687	-0.00021	2e-05	0.00023	0.00082	0.00015	-5e-05	-1e-05	-1e-05	5
25689	-0.00021	2e-05	0.00023	0.00082	0.00015	-5e-05	-1e-05	-1e-05	5
25690	-0.00021	2e-05	0.00023	0.00082	0.00015	-5e-05	-1e-05	-1e-05	5
25691	-0.00021	2e-05	0.00023	0.00082	0.00015	-5e-05	-1e-05	-1e-05	5
25692	-0.00021	2e-05	0.00023	0.00082	0.00015	-5e-05	-1e-05	-1e-05	5
25693	-0.00021	2e-05	0.00023	0.00082	0.00015	-5e-05	-1e-05	-1e-05	5
25694	-0.00021	2e-05	0.00023	0.00082	0.00015	-5e-05	-1e-05	-1e-05	5
25695	-0.00021	2e-05	0.00023	0.00082	0.00015	-5e-05	-1e-05	-1e-05	5
25696	-0.00021	2e-05	0.00023	0.00082	0.00015	-5e-05	-1e-05	-1e-05	5
25697	-0.00021	2e-05	0.00023	0.00082	0.00015	-5e-05	-1e-05	-1e-05	5
25698	-0.00021	2e-05	0.00023	0.00082	0.00015	-5e-05	-1e-05	-1e-05	5
25699	-0.00021	2e-05	0.00023	0.00082	0.00015	-5e-05	-1e-05	-1e-05	5
25700	-0.00021	2e-05	0.00023	0.00082	0.00015	-5e-05	-1e-05	-1e-05	5
25701	-0.00021	2e-05	0.00023	0.00082	0.00015	-5e-05	-1e-05	-1e-05	5
25702	2e-05	-3e-05	6e-05	0.00032	-0.00016	-4e-05	-3e-05	-3e-05	5
25703	8e-05	7e-05	-0.00013	-9e-05	0.00027	-5e-05	-1e-05	1e-05	5
25704	8e-05	7e-05	-0.00013	-9e-05	0.00027	-5e-05	-1e-05	1e-05	5
25705	8e-05	7e-05	-0.00013	-9e-05	0.00027	-5e-05	-1e-05	1e-05	5
25706	8e-05	7e-05	-0.00013	-9e-05	0.00027	-5e-05	-1e-05	1e-05	5
25707	8e-05	7e-05	-0.00013	-9e-05	0.00027	-5e-05	-1e-05	1e-05	5
25708	8e-05	7e-05	-0.00013	-9e-05	0.00027	-5e-05	-1e-05	1e-05	5
25709	8e-05	7e-05	-0.00013	-9e-05	0.00027	-5e-05	-1e-05	1e-05	5
25710	8e-05	7e-05	-0.00013	-9e-05	0.00027	-5e-05	-1e-05	1e-05	5
25711	8e-05	7e-05	-0.00013	-9e-05	0.00027	-5e-05	-1e-05	1e-05	5
25712	8e-05	7e-05	-0.00013	-9e-05	0.00027	-5e-05	-1e-05	1e-05	5
25713	8e-05	7e-05	-0.00013	-9e-05	0.00027	-5e-05	-1e-05	1e-05	5
25714	8e-05	7e-05	-0.00013	-9e-05	0.00027	-5e-05	-1e-05	1e-05	5
25715	8e-05	7e-05	-0.00013	-9e-05	0.00027	-5e-05	-1e-05	1e-05	5
25716	8e-05	7e-05	-0.00013	-9e-05	0.00027	-5e-05	-1e-05	1e-05	5
25717	8e-05	7e-05	-0.00013	-9e-05	0.00027	-5e-05	-1e-05	1e-05	5
25718	8e-05	7e-05	-0.00013	-9e-05	0.00027	-5e-05	-1e-05	1e-05	5
25719	8e-05	7e-05	-0.00013	-9e-05	0.00027	-5e-05	-1e-05	1e-05	5
25720	8e-05	7e-05	-0.00013	-9e-05	0.00027	-5e-05	-1e-05	1e-05	5
25721	8e-05	7e-05	-0.00013	-9e-05	0.00027	-5e-05	-1e-05	1e-05	5
25722	8e-05	7e-05	-0.00013	-9e-05	0.00027	-5e-05	-1e-05	1e-05	5
25723	8e-05	7e-05	-0.00013	-9e-05	0.00027	-5e-05	-1e-05	1e-05	5
25724	8e-05	7e-05	-0.00013	-9e-05	0.00027	-5e-05	-1e-05	1e-05	5
25725	0.00014	9e-05	2e-05	-0.00021	0.00021	1e-05	-3e-05	-1e-05	5
25726	-0.0002	-6e-05	-1e-05	-0.00113	0.00018	7e-05	2e-05	-3e-05	5
25727	-0.0002	-6e-05	-1e-05	-0.00113	0.00018	7e-05	2e-05	-3e-05	5
25728	-0.0002	-6e-05	-1e-05	-0.00113	0.00018	7e-05	2e-05	-3e-05	5
25729	-0.0002	-6e-05	-1e-05	-0.00113	0.00018	7e-05	2e-05	-3e-05	5
25730	-0.0002	-6e-05	-1e-05	-0.00113	0.00018	7e-05	2e-05	-3e-05	5
25731	-0.0002	-6e-05	-1e-05	-0.00113	0.00018	7e-05	2e-05	-3e-05	5
25732	-0.0002	-6e-05	-1e-05	-0.00113	0.00018	7e-05	2e-05	-3e-05	5
25733	-0.0002	-6e-05	-1e-05	-0.00113	0.00018	7e-05	2e-05	-3e-05	5
25734	-0.0002	-6e-05	-1e-05	-0.00113	0.00018	7e-05	2e-05	-3e-05	5
25735	-0.0002	-6e-05	-1e-05	-0.00113	0.00018	7e-05	2e-05	-3e-05	5
25737	-0.0002	-6e-05	-1e-05	-0.00113	0.00018	7e-05	2e-05	-3e-05	5
25739	-0.00029	-0.00023	-0.0003	0.00012	-0.00028	0	-3e-05	-5e-05	5
25740	0.00011	0	-5e-05	0.00028	-0.00024	-4e-05	-2e-05	1e-05	5
25742	0.00011	0	-5e-05	0.00028	-0.00024	-4e-05	-2e-05	1e-05	5
25743	0.00011	0	-5e-05	0.00028	-0.00024	-4e-05	-2e-05	1e-05	5
25744	0.00011	0	-5e-05	0.00028	-0.00024	-4e-05	-2e-05	1e-05	5
25745	0.00011	0	-5e-05	0.00028	-0.00024	-4e-05	-2e-05	1e-05	5
25746	0.00011	0	-5e-05	0.00028	-0.00024	-4e-05	-2e-05	1e-05	5
25747	0.00011	0	-5e-05	0.00028	-0.00024	-4e-05	-2e-05	1e-05	5
25748	0.00011	0	-5e-05	0.00028	-0.00024	-4e-05	-2e-05	1e-05	5
25749	0.00011	0	-5e-05	0.00028	-0.00024	-4e-05	-2e-05	1e-05	5
25750	0.00011	0	-5e-05	0.00028	-0.00024	-4e-05	-2e-05	1e-05	5
25751	0.00011	0	-5e-05	0.00028	-0.00024	-4e-05	-2e-05	1e-05	5
25752	0.00011	0	-5e-05	0.00028	-0.00024	-4e-05	-2e-05	1e-05	5
25753	0.00011	0	-5e-05	0.00028	-0.00024	-4e-05	-2e-05	1e-05	5
25754	0.00011	0	-5e-05	0.00028	-0.00024	-4e-05	-2e-05	1e-05	5
25755	0.00011	0	-5e-05	0.00028	-0.00024	-4e-05	-2e-05	1e-05	5
25756	0.00011	0	-5e-05	0.00028	-0.00024	-4e-05	-2e-05	1e-05	5
25757	0.00011	0	-5e-05	0.00028	-0.00024	-4e-05	-2e-05	1e-05	5
25758	0.00011	0	-5e-05	0.00028	-0.00024	-4e-05	-2e-05	1e-05	5
25759	0.00011	0	-5e-05	0.00028	-0.00024	-4e-05	-2e-05	1e-05	5
25760	0.00011	0	-5e-05	0.00028	-0.00024	-4e-05	-2e-05	1e-05	5
25761	0.00017	-5e-05	-0.00028	-0.00081	0.0001	5e-05	3e-05	1e-05	5
25762	2e-05	-0.00017	-0.00025	5e-05	0.00012	1e-05	1e-05	0	5
25763	1e-05	0.00016	0.00051	0.00048	6e-05	8e-05	5e-05	2e-05	5
25764	1e-05	0.00016	0.00051	0.00048	6e-05	8e-05	5e-05	2e-05	5
25765	1e-05	0.00016	0.00051	0.00048	6e-05	8e-05	5e-05	2e-05	5
25766	1e-05	0.00016	0.00051	0.00048	6e-05	8e-05	5e-05	2e-05	5
25767	1e-05	0.00016	0.00051	0.00048	6e-05	8e-05	5e-05	2e-05	5
25768	1e-05	0.00016	0.00051	0.00048	6e-05	8e-05	5e-05	2e-05	5
25769	1e-05	0.00016	0.00051	0.00048	6e-05	8e-05	5e-05	2e-05	5
25770	1e-05	0.00016	0.00051	0.00048	6e-05	8e-05	5e-05	2e-05	5
25771	1e-05	0.00016	0.00051	0.00048	6e-05	8e-05	5e-05	2e-05	5
25772	1e-05	0.00016	0.00051	0.00048	6e-05	8e-05	5e-05	2e-05	5
25773	1e-05	0.00016	0.00051	0.00048	6e-05	8e-05	5e-05	2e-05	5
25774	1e-05	0.00016	0.00051	0.00048	6e-05	8e-05	5e-05	2e-05	5
25775	1e-05	0.00016	0.00051	0.00048	6e-05	8e-05	5e-05	2e-05	5
25776	1e-05	0.00016	0.00051	0.00048	6e-05	8e-05	5e-05	2e-05	5
25777	1e-05	0.00016	0.00051	0.00048	6e-05	8e-05	5e-05	2e-05	5
25778	1e-05	0.00016	0.00051	0.00048	6e-05	8e-05	5e-05	2e-05	5
25779	1e-05	0.00016	0.00051	0.00048	6e-05	8e-05	5e-05	2e-05	5
25780	1e-05	0.00016	0.00051	0.00048	6e-05	8e-05	5e-05	2e-05	5
25781	1e-05	0.00016	0.00051	0.00048	6e-05	8e-05	5e-05	2e-05	5
25782	1e-05	0.00016	0.00051	0.00048	6e-05	8e-05	5e-05	2e-05	5
25783	1e-05	0.00016	0.00051	0.00048	6e-05	8e-05	5e-05	2e-05	5
25784	1e-05	0.00016	0.00051	0.00048	6e-05	8e-05	5e-05	2e-05	5
25785	9e-05	-2e-05	-0.00014	-0.00056	-0.00029	1e-05	0	0	5
25787	0.00017	3e-05	0.00011	0.00037	5e-05	-8e-05	-3e-05	-3e-05	5
25789	0.00017	3e-05	0.00011	0.00037	5e-05	-8e-05	-3e-05	-3e-05	5
25790	0.00017	3e-05	0.00011	0.00037	5e-05	-8e-05	-3e-05	-3e-05	5
25791	0.00017	3e-05	0.00011	0.00037	5e-05	-8e-05	-3e-05	-3e-05	5
25792	0.00017	3e-05	0.00011	0.00037	5e-05	-8e-05	-3e-05	-3e-05	5
25793	0.00017	3e-05	0.00011	0.00037	5e-05	-8e-05	-3e-05	-3e-05	5
25794	0.00017	3e-05	0.00011	0.00037	5e-05	-8e-05	-3e-05	-3e-05	5
25795	0.00017	3e-05	0.00011	0.00037	5e-05	-8e-05	-3e-05	-3e-05	5
25796	0.00017	3e-05	0.00011	0.00037	5e-05	-8e-05	-3e-05	-3e-05	5
25797	0.00017	3e-05	0.00011	0.00037	5e-05	-8e-05	-3e-05	-3e-05	5
25798	0.00017	3e-05	0.00011	0.00037	5e-05	-8e-05	-3e-05	-3e-05	5
25799	0.00013	-3e-05	8e-05	0.00079	0.00012	-5e-05	-3e-05	1e-05	5
25800	5e-05	-8e-05	-0.00023	0.00015	-0.00015	-4e-05	0	-2e-05	5
25801	5e-05	-8e-05	-0.00023	0.00015	-0.00015	-4e-05	0	-2e-05	5
25802	5e-05	-8e-05	-0.00023	0.00015	-0.00015	-4e-05	0	-2e-05	5
25803	5e-05	-8e-05	-0.00023	0.00015	-0.00015	-4e-05	0	-2e-05	5
25804	5e-05	-8e-05	-0.00023	0.00015	-0.00015	-4e-05	0	-2e-05	5
25805	5e-05	-8e-05	-0.00023	0.00015	-0.00015	-4e-05	0	-2e-05	5
25806	5e-05	-8e-05	-0.00023	0.00015	-0.00015	-4e-05	0	-2e-05	5
25807	5e-05	-8e-05	-0.00023	0.00015	-0.00015	-4e-05	0	-2e-05	5
25808	5e-05	-8e-05	-0.00023	0.00015	-0.00015	-4e-05	0	-2e-05	5
25809	5e-05	-8e-05	-0.00023	0.00015	-0.00015	-4e-05	0	-2e-05	5
25810	5e-05	-8e-05	-0.00023	0.00015	-0.00015	-4e-05	0	-2e-05	5
25811	5e-05	-8e-05	-0.00023	0.00015	-0.00015	-4e-05	0	-2e-05	5
25812	5e-05	-8e-05	-0.00023	0.00015	-0.00015	-4e-05	0	-2e-05	5
25813	5e-05	-8e-05	-0.00023	0.00015	-0.00015	-4e-05	0	-2e-05	5
25814	5e-05	-8e-05	-0.00023	0.00015	-0.00015	-4e-05	0	-2e-05	5
25815	5e-05	-8e-05	-0.00023	0.00015	-0.00015	-4e-05	0	-2e-05	5
25816	5e-05	-8e-05	-0.00023	0.00015	-0.00015	-4e-05	0	-2e-05	5
25817	5e-05	-8e-05	-0.00023	0.00015	-0.00015	-4e-05	0	-2e-05	5
25818	5e-05	-8e-05	-0.00023	0.00015	-0.00015	-4e-05	0	-2e-05	5
25819	5e-05	-8e-05	-0.00023	0.00015	-0.00015	-4e-05	0	-2e-05	5
25820	5e-05	-8e-05	-0.00023	0.00015	-0.00015	-4e-05	0	-2e-05	5
25821	5e-05	-8e-05	-0.00023	0.00015	-0.00015	-4e-05	0	-2e-05	5
25822	0.00021	1e-05	4e-05	8e-05	-4e-05	-1e-05	-2e-05	0	5
25823	0.00021	1e-05	4e-05	8e-05	-4e-05	-1e-05	-2e-05	0	5
25824	0.00021	1e-05	4e-05	8e-05	-4e-05	-1e-05	-2e-05	0	5
25825	0.00021	1e-05	4e-05	8e-05	-4e-05	-1e-05	-2e-05	0	5
25826	0.00021	1e-05	4e-05	8e-05	-4e-05	-1e-05	-2e-05	0	5
25827	0.00021	1e-05	4e-05	8e-05	-4e-05	-1e-05	-2e-05	0	5
25828	0.00021	1e-05	4e-05	8e-05	-4e-05	-1e-05	-2e-05	0	5
25829	0.00021	1e-05	4e-05	8e-05	-4e-05	-1e-05	-2e-05	0	5
25830	0.00021	1e-05	4e-05	8e-05	-4e-05	-1e-05	-2e-05	0	5
25831	0.00021	1e-05	4e-05	8e-05	-4e-05	-1e-05	-2e-05	0	5
25832	0.00021	1e-05	4e-05	8e-05	-4e-05	-1e-05	-2e-05	0	5
25833	0.00021	1e-05	4e-05	8e-05	-4e-05	-1e-05	-2e-05	0	5
25834	0.00021	1e-05	4e-05	8e-05	-4e-05	-1e-05	-2e-05	0	5
25835	0.00021	1e-05	4e-05	8e-05	-4e-05	-1e-05	-2e-05	0	5
25837	0.00021	1e-05	4e-05	8e-05	-4e-05	-1e-05	-2e-05	0	5
25839	0.00021	1e-05	4e-05	8e-05	-4e-05	-1e-05	-2e-05	0	5
25840	0.00021	1e-05	4e-05	8e-05	-4e-05	-1e-05	-2e-05	0	5
25841	0.00021	1e-05	4e-05	8e-05	-4e-05	-1e-05	-2e-05	0	5
25842	0.00021	1e-05	4e-05	8e-05	-4e-05	-1e-05	-2e-05	0	5
25843	0.00021	1e-05	4e-05	8e-05	-4e-05	-1e-05	-2e-05	0	5
25844	0.00021	1e-05	4e-05	8e-05	-4e-05	-1e-05	-2e-05	0	5
25845	9e-05	-3e-05	-0.00014	0.00087	-0.00013	-0.00016	-9e-05	-5e-05	5
25846	-5e-05	3e-05	-0.00016	-0.00076	-0.00037	-2e-05	1e-05	0	5
25847	-5e-05	3e-05	-0.00016	-0.00076	-0.00037	-2e-05	1e-05	0	5
25848	-5e-05	3e-05	-0.00016	-0.00076	-0.00037	-2e-05	1e-05	0	5
25849	-5e-05	3e-05	-0.00016	-0.00076	-0.00037	-2e-05	1e-05	0	5
25850	-5e-05	3e-05	-0.00016	-0.00076	-0.00037	-2e-05	1e-05	0	5
25851	-5e-05	3e-05	-0.00016	-0.00076	-0.00037	-2e-05	1e-05	0	5
25852	-5e-05	3e-05	-0.00016	-0.00076	-0.00037	-2e-05	1e-05	0	5
25853	-5e-05	3e-05	-0.00016	-0.00076	-0.00037	-2e-05	1e-05	0	5
25854	-5e-05	3e-05	-0.00016	-0.00076	-0.00037	-2e-05	1e-05	0	5
25855	-5e-05	3e-05	-0.00016	-0.00076	-0.00037	-2e-05	1e-05	0	5
25856	-5e-05	3e-05	-0.00016	-0.00076	-0.00037	-2e-05	1e-05	0	5
25857	-5e-05	3e-05	-0.00016	-0.00076	-0.00037	-2e-05	1e-05	0	5
25858	-5e-05	3e-05	-0.00016	-0.00076	-0.00037	-2e-05	1e-05	0	5
25859	1e-05	-6e-05	-0.00011	0.00081	0.00015	5e-05	0	-2e-05	5
25860	8e-05	2e-05	0.00016	0.00032	-3e-05	1e-05	0	0	5
25861	8e-05	2e-05	0.00016	0.00032	-3e-05	1e-05	0	0	5
25862	8e-05	2e-05	0.00016	0.00032	-3e-05	1e-05	0	0	5
25863	8e-05	2e-05	0.00016	0.00032	-3e-05	1e-05	0	0	5
25864	8e-05	2e-05	0.00016	0.00032	-3e-05	1e-05	0	0	5
25865	8e-05	2e-05	0.00016	0.00032	-3e-05	1e-05	0	0	5
25866	8e-05	2e-05	0.00016	0.00032	-3e-05	1e-05	0	0	5
25867	8e-05	2e-05	0.00016	0.00032	-3e-05	1e-05	0	0	5
25868	8e-05	2e-05	0.00016	0.00032	-3e-05	1e-05	0	0	5
25869	8e-05	2e-05	0.00016	0.00032	-3e-05	1e-05	0	0	5
25870	8e-05	2e-05	0.00016	0.00032	-3e-05	1e-05	0	0	5
25871	8e-05	2e-05	0.00016	0.00032	-3e-05	1e-05	0	0	5
25872	8e-05	2e-05	0.00016	0.00032	-3e-05	1e-05	0	0	5
25873	8e-05	2e-05	0.00016	0.00032	-3e-05	1e-05	0	0	5
25874	8e-05	2e-05	0.00016	0.00032	-3e-05	1e-05	0	0	5
25875	8e-05	2e-05	0.00016	0.00032	-3e-05	1e-05	0	0	5
25876	8e-05	2e-05	0.00016	0.00032	-3e-05	1e-05	0	0	5
25877	8e-05	2e-05	0.00016	0.00032	-3e-05	1e-05	0	0	5
25878	8e-05	2e-05	0.00016	0.00032	-3e-05	1e-05	0	0	5
25879	8e-05	2e-05	0.00016	0.00032	-3e-05	1e-05	0	0	5
25880	8e-05	2e-05	0.00016	0.00032	-3e-05	1e-05	0	0	5
25881	-0.00018	-9e-05	-2e-05	-4e-05	-0.00027	3e-05	3e-05	-2e-05	5
25882	-0.00017	-0.0001	-7e-05	0.00061	0.00012	-1e-05	-3e-05	-3e-05	5
25883	-0.00017	-0.0001	-7e-05	0.00061	0.00012	-1e-05	-3e-05	-3e-05	5
25884	-0.00017	-0.0001	-7e-05	0.00061	0.00012	-1e-05	-3e-05	-3e-05	5
25885	-0.00017	-0.0001	-7e-05	0.00061	0.00012	-1e-05	-3e-05	-3e-05	5
25887	-0.00017	-0.0001	-7e-05	0.00061	0.00012	-1e-05	-3e-05	-3e-05	5
25889	-0.00017	-0.0001	-7e-05	0.00061	0.00012	-1e-05	-3e-05	-3e-05	5
25890	-0.00017	-0.0001	-7e-05	0.00061	0.00012	-1e-05	-3e-05	-3e-05	5
25891	-0.00017	-0.0001	-7e-05	0.00061	0.00012	-1e-05	-3e-05	-3e-05	5
25892	-0.00017	-0.0001	-7e-05	0.00061	0.00012	-1e-05	-3e-05	-3e-05	5
25893	-0.00017	-0.0001	-7e-05	0.00061	0.00012	-1e-05	-3e-05	-3e-05	5
25894	-0.00017	-0.0001	-7e-05	0.00061	0.00012	-1e-05	-3e-05	-3e-05	5
25895	-0.00017	-0.0001	-7e-05	0.00061	0.00012	-1e-05	-3e-05	-3e-05	5
25896	-0.00017	-0.0001	-7e-05	0.00061	0.00012	-1e-05	-3e-05	-3e-05	5
25897	-0.00017	-0.0001	-7e-05	0.00061	0.00012	-1e-05	-3e-05	-3e-05	5
25898	-0.00017	-0.0001	-7e-05	0.00061	0.00012	-1e-05	-3e-05	-3e-05	5
25899	-0.00017	-0.0001	-7e-05	0.00061	0.00012	-1e-05	-3e-05	-3e-05	5
25900	-0.00017	-0.0001	-7e-05	0.00061	0.00012	-1e-05	-3e-05	-3e-05	5
25901	-0.00017	-0.0001	-7e-05	0.00061	0.00012	-1e-05	-3e-05	-3e-05	5
25902	-0.00017	-0.0001	-7e-05	0.00061	0.00012	-1e-05	-3e-05	-3e-05	5
25903	-0.00017	-0.0001	-7e-05	0.00061	0.00012	-1e-05	-3e-05	-3e-05	5
25904	-0.00017	-0.0001	-7e-05	0.00061	0.00012	-1e-05	-3e-05	-3e-05	5
25905	-0.0002	2e-05	2e-05	4e-05	0.00011	-6e-05	-2e-05	-2e-05	5
25906	7e-05	0.00012	0.00045	0.0009	0.00078	0.0001	4e-05	0	5
25907	7e-05	0.00012	0.00045	0.0009	0.00078	0.0001	4e-05	0	5
25908	7e-05	0.00012	0.00045	0.0009	0.00078	0.0001	4e-05	0	5
25909	7e-05	0.00012	0.00045	0.0009	0.00078	0.0001	4e-05	0	5
25910	7e-05	0.00012	0.00045	0.0009	0.00078	0.0001	4e-05	0	5
25911	7e-05	0.00012	0.00045	0.0009	0.00078	0.0001	4e-05	0	5
25912	7e-05	0.00012	0.00045	0.0009	0.00078	0.0001	4e-05	0	5
25913	7e-05	0.00012	0.00045	0.0009	0.00078	0.0001	4e-05	0	5
25914	7e-05	0.00012	0.00045	0.0009	0.00078	0.0001	4e-05	0	5
25915	7e-05	0.00012	0.00045	0.0009	0.00078	0.0001	4e-05	0	5
25916	7e-05	0.00012	0.00045	0.0009	0.00078	0.0001	4e-05	0	5
25917	7e-05	0.00012	0.00045	0.0009	0.00078	0.0001	4e-05	0	5
25918	7e-05	0.00012	0.00045	0.0009	0.00078	0.0001	4e-05	0	5
25919	0.00011	-2e-05	6e-05	4e-05	-1e-05	-2e-05	-4e-05	-5e-05	5
25920	-9e-05	-4e-05	-2e-05	-0.00015	0.00015	-8e-05	-4e-05	-5e-05	5
25921	-9e-05	-4e-05	-2e-05	-0.00015	0.00015	-8e-05	-4e-05	-5e-05	5
25922	-9e-05	-4e-05	-2e-05	-0.00015	0.00015	-8e-05	-4e-05	-5e-05	5
25923	-9e-05	-4e-05	-2e-05	-0.00015	0.00015	-8e-05	-4e-05	-5e-05	5
25924	-9e-05	-4e-05	-2e-05	-0.00015	0.00015	-8e-05	-4e-05	-5e-05	5
25925	-9e-05	-4e-05	-2e-05	-0.00015	0.00015	-8e-05	-4e-05	-5e-05	5
25926	-9e-05	-4e-05	-2e-05	-0.00015	0.00015	-8e-05	-4e-05	-5e-05	5
25927	-9e-05	-4e-05	-2e-05	-0.00015	0.00015	-8e-05	-4e-05	-5e-05	5
25928	-9e-05	-4e-05	-2e-05	-0.00015	0.00015	-8e-05	-4e-05	-5e-05	5
25929	-9e-05	-4e-05	-2e-05	-0.00015	0.00015	-8e-05	-4e-05	-5e-05	5
25930	-9e-05	-4e-05	-2e-05	-0.00015	0.00015	-8e-05	-4e-05	-5e-05	5
25931	-9e-05	-4e-05	-2e-05	-0.00015	0.00015	-8e-05	-4e-05	-5e-05	5
25932	-9e-05	-4e-05	-2e-05	-0.00015	0.00015	-8e-05	-4e-05	-5e-05	5
25933	-9e-05	-4e-05	-2e-05	-0.00015	0.00015	-8e-05	-4e-05	-5e-05	5
25934	-9e-05	-4e-05	-2e-05	-0.00015	0.00015	-8e-05	-4e-05	-5e-05	5
25935	-9e-05	-4e-05	-2e-05	-0.00015	0.00015	-8e-05	-4e-05	-5e-05	5
25937	-9e-05	-4e-05	-2e-05	-0.00015	0.00015	-8e-05	-4e-05	-5e-05	5
25939	-9e-05	-4e-05	-2e-05	-0.00015	0.00015	-8e-05	-4e-05	-5e-05	5
25940	-9e-05	-4e-05	-2e-05	-0.00015	0.00015	-8e-05	-4e-05	-5e-05	5
25941	-9e-05	-4e-05	-2e-05	-0.00015	0.00015	-8e-05	-4e-05	-5e-05	5
25942	-9e-05	-4e-05	-2e-05	-0.00015	0.00015	-8e-05	-4e-05	-5e-05	5
25943	-0.00017	-7e-05	-1e-05	-0.00013	-0.0001	-2e-05	-2e-05	-1e-05	5
25944	-0.00017	-7e-05	-1e-05	-0.00013	-0.0001	-2e-05	-2e-05	-1e-05	5
25945	-0.00017	-7e-05	-1e-05	-0.00013	-0.0001	-2e-05	-2e-05	-1e-05	5
25946	-0.00017	-7e-05	-1e-05	-0.00013	-0.0001	-2e-05	-2e-05	-1e-05	5
25947	-0.00017	-7e-05	-1e-05	-0.00013	-0.0001	-2e-05	-2e-05	-1e-05	5
25948	-0.00017	-7e-05	-1e-05	-0.00013	-0.0001	-2e-05	-2e-05	-1e-05	5
25949	-0.00017	-7e-05	-1e-05	-0.00013	-0.0001	-2e-05	-2e-05	-1e-05	5
25950	-0.00017	-7e-05	-1e-05	-0.00013	-0.0001	-2e-05	-2e-05	-1e-05	5
25951	-0.00017	-7e-05	-1e-05	-0.00013	-0.0001	-2e-05	-2e-05	-1e-05	5
25952	-0.00017	-7e-05	-1e-05	-0.00013	-0.0001	-2e-05	-2e-05	-1e-05	5
25953	-0.00017	-7e-05	-1e-05	-0.00013	-0.0001	-2e-05	-2e-05	-1e-05	5
25954	-0.00017	-7e-05	-1e-05	-0.00013	-0.0001	-2e-05	-2e-05	-1e-05	5
25955	-0.00017	-7e-05	-1e-05	-0.00013	-0.0001	-2e-05	-2e-05	-1e-05	5
25956	-0.00017	-7e-05	-1e-05	-0.00013	-0.0001	-2e-05	-2e-05	-1e-05	5
25957	-0.00017	-7e-05	-1e-05	-0.00013	-0.0001	-2e-05	-2e-05	-1e-05	5
25958	-0.00017	-7e-05	-1e-05	-0.00013	-0.0001	-2e-05	-2e-05	-1e-05	5
25959	-0.00017	-7e-05	-1e-05	-0.00013	-0.0001	-2e-05	-2e-05	-1e-05	5
25960	-0.00017	-7e-05	-1e-05	-0.00013	-0.0001	-2e-05	-2e-05	-1e-05	5
25961	-0.00017	-7e-05	-1e-05	-0.00013	-0.0001	-2e-05	-2e-05	-1e-05	5
25962	-0.00017	-7e-05	-1e-05	-0.00013	-0.0001	-2e-05	-2e-05	-1e-05	5
25963	-0.00017	-7e-05	-1e-05	-0.00013	-0.0001	-2e-05	-2e-05	-1e-05	5
25964	-0.00017	-7e-05	-1e-05	-0.00013	-0.0001	-2e-05	-2e-05	-1e-05	5
25965	0	0.00011	0.00025	0.00048	0.00025	7e-05	2e-05	2e-05	5
25966	-1e-05	-0.00015	-0.00046	-0.00103	-0.00052	-5e-05	0	1e-05	5
25967	-1e-05	-0.00015	-0.00046	-0.00103	-0.00052	-5e-05	0	1e-05	5
25968	-1e-05	-0.00015	-0.00046	-0.00103	-0.00052	-5e-05	0	1e-05	5
25969	-1e-05	-0.00015	-0.00046	-0.00103	-0.00052	-5e-05	0	1e-05	5
25970	-1e-05	-0.00015	-0.00046	-0.00103	-0.00052	-5e-05	0	1e-05	5
25971	-1e-05	-0.00015	-0.00046	-0.00103	-0.00052	-5e-05	0	1e-05	5
25972	-1e-05	-0.00015	-0.00046	-0.00103	-0.00052	-5e-05	0	1e-05	5
25973	-1e-05	-0.00015	-0.00046	-0.00103	-0.00052	-5e-05	0	1e-05	5
25974	-1e-05	-0.00015	-0.00046	-0.00103	-0.00052	-5e-05	0	1e-05	5
25975	-1e-05	-0.00015	-0.00046	-0.00103	-0.00052	-5e-05	0	1e-05	5
25976	-1e-05	-0.00015	-0.00046	-0.00103	-0.00052	-5e-05	0	1e-05	5
25977	-1e-05	-0.00015	-0.00046	-0.00103	-0.00052	-5e-05	0	1e-05	5
25978	-1e-05	-0.00015	-0.00046	-0.00103	-0.00052	-5e-05	0	1e-05	5
25979	1e-05	5e-05	0.00025	2e-05	0.00012	-7e-05	-3e-05	-2e-05	5
25980	-6e-05	0	0	2e-05	-0.00012	-4e-05	-2e-05	-1e-05	5
25981	-6e-05	0	0	2e-05	-0.00012	-4e-05	-2e-05	-1e-05	5
25982	-6e-05	0	0	2e-05	-0.00012	-4e-05	-2e-05	-1e-05	5
25983	-6e-05	0	0	2e-05	-0.00012	-4e-05	-2e-05	-1e-05	5
25984	-6e-05	0	0	2e-05	-0.00012	-4e-05	-2e-05	-1e-05	5
25985	-6e-05	0	0	2e-05	-0.00012	-4e-05	-2e-05	-1e-05	5
25987	-6e-05	0	0	2e-05	-0.00012	-4e-05	-2e-05	-1e-05	5
25989	-6e-05	0	0	2e-05	-0.00012	-4e-05	-2e-05	-1e-05	5
25990	-6e-05	0	0	2e-05	-0.00012	-4e-05	-2e-05	-1e-05	5
25991	-6e-05	0	0	2e-05	-0.00012	-4e-05	-2e-05	-1e-05	5
25992	-6e-05	0	0	2e-05	-0.00012	-4e-05	-2e-05	-1e-05	5
25993	-6e-05	0	0	2e-05	-0.00012	-4e-05	-2e-05	-1e-05	5
25994	-6e-05	0	0	2e-05	-0.00012	-4e-05	-2e-05	-1e-05	5
25995	-6e-05	0	0	2e-05	-0.00012	-4e-05	-2e-05	-1e-05	5
25996	-6e-05	0	0	2e-05	-0.00012	-4e-05	-2e-05	-1e-05	5
25997	-6e-05	0	0	2e-05	-0.00012	-4e-05	-2e-05	-1e-05	5
25998	-6e-05	0	0	2e-05	-0.00012	-4e-05	-2e-05	-1e-05	5
25999	-6e-05	0	0	2e-05	-0.00012	-4e-05	-2e-05	-1e-05	5
26000	-6e-05	0	0	2e-05	-0.00012	-4e-05	-2e-05	-1e-05	5
26001	-6e-05	0	0	2e-05	-0.00012	-4e-05	-2e-05	-1e-05	5
26002	-0.00017	-3e-05	7e-05	-0.00058	0.00075	2e-05	-2e-05	-2e-05	5
26003	-3e-05	-2e-05	-0.00017	-1e-05	-0.00017	1e-05	0	2e-05	5
26004	-3e-05	-2e-05	-0.00017	-1e-05	-0.00017	1e-05	0	2e-05	5
26005	-3e-05	-2e-05	-0.00017	-1e-05	-0.00017	1e-05	0	2e-05	5
26006	-3e-05	-2e-05	-0.00017	-1e-05	-0.00017	1e-05	0	2e-05	5
26007	-3e-05	-2e-05	-0.00017	-1e-05	-0.00017	1e-05	0	2e-05	5
26008	-3e-05	-2e-05	-0.00017	-1e-05	-0.00017	1e-05	0	2e-05	5
26009	-3e-05	-2e-05	-0.00017	-1e-05	-0.00017	1e-05	0	2e-05	5
26010	-3e-05	-2e-05	-0.00017	-1e-05	-0.00017	1e-05	0	2e-05	5
26011	-3e-05	-2e-05	-0.00017	-1e-05	-0.00017	1e-05	0	2e-05	5
26012	-3e-05	-2e-05	-0.00017	-1e-05	-0.00017	1e-05	0	2e-05	5
26013	-3e-05	-2e-05	-0.00017	-1e-05	-0.00017	1e-05	0	2e-05	5
26014	-3e-05	-2e-05	-0.00017	-1e-05	-0.00017	1e-05	0	2e-05	5
26015	-3e-05	-2e-05	-0.00017	-1e-05	-0.00017	1e-05	0	2e-05	5
26016	-3e-05	-2e-05	-0.00017	-1e-05	-0.00017	1e-05	0	2e-05	5
26017	-3e-05	-2e-05	-0.00017	-1e-05	-0.00017	1e-05	0	2e-05	5
26018	-3e-05	-2e-05	-0.00017	-1e-05	-0.00017	1e-05	0	2e-05	5
26019	-3e-05	-2e-05	-0.00017	-1e-05	-0.00017	1e-05	0	2e-05	5
26020	-3e-05	-2e-05	-0.00017	-1e-05	-0.00017	1e-05	0	2e-05	5
26021	-3e-05	-2e-05	-0.00017	-1e-05	-0.00017	1e-05	0	2e-05	5
26022	-3e-05	-2e-05	-0.00017	-1e-05	-0.00017	1e-05	0	2e-05	5
26023	-3e-05	-2e-05	-0.00017	-1e-05	-0.00017	1e-05	0	2e-05	5
26024	-3e-05	-2e-05	-0.00017	-1e-05	-0.00017	1e-05	0	2e-05	5
26025	7e-05	3e-05	0.00036	0.00052	0.00068	6e-05	-1e-05	-1e-05	5
26026	-4e-05	2e-05	0.00014	0.00023	3e-05	-3e-05	0	-1e-05	5
26027	-4e-05	2e-05	0.00014	0.00023	3e-05	-3e-05	0	-1e-05	5
26028	-4e-05	2e-05	0.00014	0.00023	3e-05	-3e-05	0	-1e-05	5
26029	-4e-05	2e-05	0.00014	0.00023	3e-05	-3e-05	0	-1e-05	5
26030	-4e-05	2e-05	0.00014	0.00023	3e-05	-3e-05	0	-1e-05	5
26031	-4e-05	2e-05	0.00014	0.00023	3e-05	-3e-05	0	-1e-05	5
26032	-4e-05	2e-05	0.00014	0.00023	3e-05	-3e-05	0	-1e-05	5
26033	-4e-05	2e-05	0.00014	0.00023	3e-05	-3e-05	0	-1e-05	5
26034	-4e-05	2e-05	0.00014	0.00023	3e-05	-3e-05	0	-1e-05	5
26035	-4e-05	2e-05	0.00014	0.00023	3e-05	-3e-05	0	-1e-05	5
26037	-4e-05	2e-05	0.00014	0.00023	3e-05	-3e-05	0	-1e-05	5
26039	2e-05	-2e-05	6e-05	0.0003	-0.00023	-2e-05	-3e-05	-1e-05	5
26040	2e-05	-2e-05	-6e-05	0.00037	-3e-05	8e-05	1e-05	1e-05	5
26041	2e-05	-2e-05	-6e-05	0.00037	-3e-05	8e-05	1e-05	1e-05	5
26042	2e-05	-2e-05	-6e-05	0.00037	-3e-05	8e-05	1e-05	1e-05	5
26043	2e-05	-2e-05	-6e-05	0.00037	-3e-05	8e-05	1e-05	1e-05	5
26044	2e-05	-2e-05	-6e-05	0.00037	-3e-05	8e-05	1e-05	1e-05	5
26045	2e-05	-2e-05	-6e-05	0.00037	-3e-05	8e-05	1e-05	1e-05	5
26046	2e-05	-2e-05	-6e-05	0.00037	-3e-05	8e-05	1e-05	1e-05	5
26047	2e-05	-2e-05	-6e-05	0.00037	-3e-05	8e-05	1e-05	1e-05	5
26048	2e-05	-2e-05	-6e-05	0.00037	-3e-05	8e-05	1e-05	1e-05	5
26049	2e-05	-2e-05	-6e-05	0.00037	-3e-05	8e-05	1e-05	1e-05	5
26050	2e-05	-2e-05	-6e-05	0.00037	-3e-05	8e-05	1e-05	1e-05	5
26051	2e-05	-2e-05	-6e-05	0.00037	-3e-05	8e-05	1e-05	1e-05	5
26052	2e-05	-2e-05	-6e-05	0.00037	-3e-05	8e-05	1e-05	1e-05	5
26053	2e-05	-2e-05	-6e-05	0.00037	-3e-05	8e-05	1e-05	1e-05	5
26054	2e-05	-2e-05	-6e-05	0.00037	-3e-05	8e-05	1e-05	1e-05	5
26055	2e-05	-2e-05	-6e-05	0.00037	-3e-05	8e-05	1e-05	1e-05	5
26056	2e-05	-2e-05	-6e-05	0.00037	-3e-05	8e-05	1e-05	1e-05	5
26057	2e-05	-2e-05	-6e-05	0.00037	-3e-05	8e-05	1e-05	1e-05	5
26058	2e-05	-2e-05	-6e-05	0.00037	-3e-05	8e-05	1e-05	1e-05	5
26059	2e-05	-2e-05	-6e-05	0.00037	-3e-05	8e-05	1e-05	1e-05	5
26060	2e-05	-2e-05	-6e-05	0.00037	-3e-05	8e-05	1e-05	1e-05	5
26061	2e-05	-2e-05	-6e-05	0.00037	-3e-05	8e-05	1e-05	1e-05	5
26062	-6e-05	-3e-05	6e-05	0.00044	-1e-05	4e-05	1e-05	-1e-05	5
26063	0.00021	4e-05	4e-05	0.0002	0.00019	-0.00011	-4e-05	3e-05	5
26064	0.00021	4e-05	4e-05	0.0002	0.00019	-0.00011	-4e-05	3e-05	5
26065	0.00021	4e-05	4e-05	0.0002	0.00019	-0.00011	-4e-05	3e-05	5
26066	0.00021	4e-05	4e-05	0.0002	0.00019	-0.00011	-4e-05	3e-05	5
26067	0.00021	4e-05	4e-05	0.0002	0.00019	-0.00011	-4e-05	3e-05	5
26068	0.00021	4e-05	4e-05	0.0002	0.00019	-0.00011	-4e-05	3e-05	5
26069	0.00021	4e-05	4e-05	0.0002	0.00019	-0.00011	-4e-05	3e-05	5
26070	0.00021	4e-05	4e-05	0.0002	0.00019	-0.00011	-4e-05	3e-05	5
26071	0.00021	4e-05	4e-05	0.0002	0.00019	-0.00011	-4e-05	3e-05	5
26072	0.00021	4e-05	4e-05	0.0002	0.00019	-0.00011	-4e-05	3e-05	5
26073	0.00021	4e-05	4e-05	0.0002	0.00019	-0.00011	-4e-05	3e-05	5
26074	0.00021	4e-05	4e-05	0.0002	0.00019	-0.00011	-4e-05	3e-05	5
26075	0.00021	4e-05	4e-05	0.0002	0.00019	-0.00011	-4e-05	3e-05	5
26076	0.00021	4e-05	4e-05	0.0002	0.00019	-0.00011	-4e-05	3e-05	5
26077	0.00021	4e-05	4e-05	0.0002	0.00019	-0.00011	-4e-05	3e-05	5
26078	0.00021	4e-05	4e-05	0.0002	0.00019	-0.00011	-4e-05	3e-05	5
26079	0.00021	4e-05	4e-05	0.0002	0.00019	-0.00011	-4e-05	3e-05	5
26080	0.00021	4e-05	4e-05	0.0002	0.00019	-0.00011	-4e-05	3e-05	5
26081	0.00021	4e-05	4e-05	0.0002	0.00019	-0.00011	-4e-05	3e-05	5
26082	0.00021	4e-05	4e-05	0.0002	0.00019	-0.00011	-4e-05	3e-05	5
26083	0.00021	4e-05	4e-05	0.0002	0.00019	-0.00011	-4e-05	3e-05	5
26084	0.00021	4e-05	4e-05	0.0002	0.00019	-0.00011	-4e-05	3e-05	5
26085	0.00018	8e-05	2e-05	-6e-05	0.00035	0	-1e-05	2e-05	5
26087	-3e-05	5e-05	-1e-05	-0.00051	4e-05	4e-05	1e-05	2e-05	5
26089	-3e-05	5e-05	-1e-05	-0.00051	4e-05	4e-05	1e-05	2e-05	5
26090	-3e-05	5e-05	-1e-05	-0.00051	4e-05	4e-05	1e-05	2e-05	5
26091	-3e-05	5e-05	-1e-05	-0.00051	4e-05	4e-05	1e-05	2e-05	5
26092	-3e-05	5e-05	-1e-05	-0.00051	4e-05	4e-05	1e-05	2e-05	5
26093	-3e-05	5e-05	-1e-05	-0.00051	4e-05	4e-05	1e-05	2e-05	5
26094	-3e-05	5e-05	-1e-05	-0.00051	4e-05	4e-05	1e-05	2e-05	5
26095	-3e-05	5e-05	-1e-05	-0.00051	4e-05	4e-05	1e-05	2e-05	5
26096	-3e-05	5e-05	-1e-05	-0.00051	4e-05	4e-05	1e-05	2e-05	5
26097	-3e-05	5e-05	-1e-05	-0.00051	4e-05	4e-05	1e-05	2e-05	5
26098	1e-05	-6e-05	-0.00021	9e-05	-9e-05	-0.00016	-4e-05	0	5
26099	4e-05	1e-05	-0.0002	-0.0001	0.00019	4e-05	2e-05	1e-05	5
26100	4e-05	1e-05	-0.0002	-0.0001	0.00019	4e-05	2e-05	1e-05	5
26101	4e-05	1e-05	-0.0002	-0.0001	0.00019	4e-05	2e-05	1e-05	5
26102	4e-05	1e-05	-0.0002	-0.0001	0.00019	4e-05	2e-05	1e-05	5
26103	4e-05	1e-05	-0.0002	-0.0001	0.00019	4e-05	2e-05	1e-05	5
26104	4e-05	1e-05	-0.0002	-0.0001	0.00019	4e-05	2e-05	1e-05	5
26105	4e-05	1e-05	-0.0002	-0.0001	0.00019	4e-05	2e-05	1e-05	5
26106	-4e-05	-1e-05	0.00015	0.0007	0.00023	1e-05	-2e-05	-3e-05	5
26107	-4e-05	-1e-05	0.0001	-0.00044	0.00013	-8e-05	-5e-05	-6e-05	5
26108	-4e-05	-1e-05	0.0001	-0.00044	0.00013	-8e-05	-5e-05	-6e-05	5
26109	-4e-05	-1e-05	0.0001	-0.00044	0.00013	-8e-05	-5e-05	-6e-05	5
26110	-4e-05	-1e-05	0.0001	-0.00044	0.00013	-8e-05	-5e-05	-6e-05	5
26111	-4e-05	-1e-05	0.0001	-0.00044	0.00013	-8e-05	-5e-05	-6e-05	5
26112	-4e-05	-1e-05	0.0001	-0.00044	0.00013	-8e-05	-5e-05	-6e-05	5
26113	-4e-05	-1e-05	0.0001	-0.00044	0.00013	-8e-05	-5e-05	-6e-05	5
26114	-4e-05	-1e-05	0.0001	-0.00044	0.00013	-8e-05	-5e-05	-6e-05	5
26115	-4e-05	-1e-05	0.0001	-0.00044	0.00013	-8e-05	-5e-05	-6e-05	5
26116	-4e-05	-1e-05	0.0001	-0.00044	0.00013	-8e-05	-5e-05	-6e-05	5
26117	-4e-05	-1e-05	0.0001	-0.00044	0.00013	-8e-05	-5e-05	-6e-05	5
26118	-4e-05	-1e-05	0.0001	-0.00044	0.00013	-8e-05	-5e-05	-6e-05	5
26119	-4e-05	-1e-05	0.0001	-0.00044	0.00013	-8e-05	-5e-05	-6e-05	5
26120	-4e-05	-1e-05	0.0001	-0.00044	0.00013	-8e-05	-5e-05	-6e-05	5
26121	-4e-05	-1e-05	0.0001	-0.00044	0.00013	-8e-05	-5e-05	-6e-05	5
26122	-0.00026	7e-05	8e-05	-0.00034	3e-05	0	-3e-05	-6e-05	5
26123	-0.00017	-0.00016	-2e-05	0.00022	-0.00018	-5e-05	-2e-05	-3e-05	5
26124	-0.00017	-0.00016	-2e-05	0.00022	-0.00018	-5e-05	-2e-05	-3e-05	5
26125	-0.00017	-0.00016	-2e-05	0.00022	-0.00018	-5e-05	-2e-05	-3e-05	5
26126	-0.00017	-0.00016	-2e-05	0.00022	-0.00018	-5e-05	-2e-05	-3e-05	5
26127	-0.00017	-0.00016	-2e-05	0.00022	-0.00018	-5e-05	-2e-05	-3e-05	5
26128	-0.00017	-0.00016	-2e-05	0.00022	-0.00018	-5e-05	-2e-05	-3e-05	5
26129	-0.00017	-0.00016	-2e-05	0.00022	-0.00018	-5e-05	-2e-05	-3e-05	5
26130	-0.00017	-0.00016	-2e-05	0.00022	-0.00018	-5e-05	-2e-05	-3e-05	5
26131	-0.00017	-0.00016	-2e-05	0.00022	-0.00018	-5e-05	-2e-05	-3e-05	5
26132	-0.00017	-0.00016	-2e-05	0.00022	-0.00018	-5e-05	-2e-05	-3e-05	5
26133	-0.00017	-0.00016	-2e-05	0.00022	-0.00018	-5e-05	-2e-05	-3e-05	5
26134	-0.00017	-0.00016	-2e-05	0.00022	-0.00018	-5e-05	-2e-05	-3e-05	5
26135	-0.00017	-0.00016	-2e-05	0.00022	-0.00018	-5e-05	-2e-05	-3e-05	5
26137	-0.00017	-0.00016	-2e-05	0.00022	-0.00018	-5e-05	-2e-05	-3e-05	5
26139	-0.00017	-0.00016	-2e-05	0.00022	-0.00018	-5e-05	-2e-05	-3e-05	5
26140	-0.00017	-0.00016	-2e-05	0.00022	-0.00018	-5e-05	-2e-05	-3e-05	5
26141	-0.00017	-0.00016	-2e-05	0.00022	-0.00018	-5e-05	-2e-05	-3e-05	5
26142	-0.00017	-0.00016	-2e-05	0.00022	-0.00018	-5e-05	-2e-05	-3e-05	5
26143	-0.00017	-0.00016	-2e-05	0.00022	-0.00018	-5e-05	-2e-05	-3e-05	5
26144	-0.00017	-0.00016	-2e-05	0.00022	-0.00018	-5e-05	-2e-05	-3e-05	5
26145	0.00019	0	-2e-05	0.00015	7e-05	5e-05	4e-05	1e-05	5
26146	0.00014	0.0001	-8e-05	0.00011	-0.00016	6e-05	3e-05	0	5
26147	0.00014	0.0001	-8e-05	0.00011	-0.00016	6e-05	3e-05	0	5
26148	0.00014	0.0001	-8e-05	0.00011	-0.00016	6e-05	3e-05	0	5
26149	0.00014	0.0001	-8e-05	0.00011	-0.00016	6e-05	3e-05	0	5
26150	0.00014	0.0001	-8e-05	0.00011	-0.00016	6e-05	3e-05	0	5
26151	0.00014	0.0001	-8e-05	0.00011	-0.00016	6e-05	3e-05	0	5
26152	0.00014	0.0001	-8e-05	0.00011	-0.00016	6e-05	3e-05	0	5
26153	0.00014	0.0001	-8e-05	0.00011	-0.00016	6e-05	3e-05	0	5
26154	0.00014	0.0001	-8e-05	0.00011	-0.00016	6e-05	3e-05	0	5
26155	0.00014	0.0001	-8e-05	0.00011	-0.00016	6e-05	3e-05	0	5
26156	0.00014	0.0001	-8e-05	0.00011	-0.00016	6e-05	3e-05	0	5
26157	0.00014	0.0001	-8e-05	0.00011	-0.00016	6e-05	3e-05	0	5
26158	-0.00027	-0.0001	0.0002	0.00037	7e-05	8e-05	3e-05	2e-05	5
26159	0	5e-05	2e-05	0.0002	2e-05	0	-1e-05	0	5
26160	0	5e-05	2e-05	0.0002	2e-05	0	-1e-05	0	5
26161	0	5e-05	2e-05	0.0002	2e-05	0	-1e-05	0	5
26162	0	5e-05	2e-05	0.0002	2e-05	0	-1e-05	0	5
26163	0	5e-05	2e-05	0.0002	2e-05	0	-1e-05	0	5
26164	0	5e-05	2e-05	0.0002	2e-05	0	-1e-05	0	5
26165	0	5e-05	2e-05	0.0002	2e-05	0	-1e-05	0	5
26166	-7e-05	-2e-05	5e-05	0.00055	4e-05	-1e-05	-1e-05	0	5
26167	0	-5e-05	-0.00011	-0.00036	3e-05	3e-05	0	-2e-05	5
26168	0	-5e-05	-0.00011	-0.00036	3e-05	3e-05	0	-2e-05	5
26169	0	-5e-05	-0.00011	-0.00036	3e-05	3e-05	0	-2e-05	5
26170	0	-5e-05	-0.00011	-0.00036	3e-05	3e-05	0	-2e-05	5
26171	0	-5e-05	-0.00011	-0.00036	3e-05	3e-05	0	-2e-05	5
26172	0	-5e-05	-0.00011	-0.00036	3e-05	3e-05	0	-2e-05	5
26173	0	-5e-05	-0.00011	-0.00036	3e-05	3e-05	0	-2e-05	5
26174	0	-5e-05	-0.00011	-0.00036	3e-05	3e-05	0	-2e-05	5
26175	0	-5e-05	-0.00011	-0.00036	3e-05	3e-05	0	-2e-05	5
26176	0	-5e-05	-0.00011	-0.00036	3e-05	3e-05	0	-2e-05	5
26177	0	-5e-05	-0.00011	-0.00036	3e-05	3e-05	0	-2e-05	5
26178	0	-5e-05	-0.00011	-0.00036	3e-05	3e-05	0	-2e-05	5
26179	0	-5e-05	-0.00011	-0.00036	3e-05	3e-05	0	-2e-05	5
26180	0	-5e-05	-0.00011	-0.00036	3e-05	3e-05	0	-2e-05	5
26181	0.00016	1e-05	0	0.00011	-0.00013	0	2e-05	1e-05	5
26182	0.00016	1e-05	-5e-05	0.00044	-0.00011	-2e-05	1e-05	2e-05	5
26183	0	8e-05	0.00019	0.00087	-1e-05	0	0	1e-05	5
26184	0	8e-05	0.00019	0.00087	-1e-05	0	0	1e-05	5
26185	0	8e-05	0.00019	0.00087	-1e-05	0	0	1e-05	5
26187	0	8e-05	0.00019	0.00087	-1e-05	0	0	1e-05	5
26189	0	8e-05	0.00019	0.00087	-1e-05	0	0	1e-05	5
26190	0	8e-05	0.00019	0.00087	-1e-05	0	0	1e-05	5
26191	0	8e-05	0.00019	0.00087	-1e-05	0	0	1e-05	5
26192	0	8e-05	0.00019	0.00087	-1e-05	0	0	1e-05	5
26193	0	8e-05	0.00019	0.00087	-1e-05	0	0	1e-05	5
26194	0	8e-05	0.00019	0.00087	-1e-05	0	0	1e-05	5
26195	0	8e-05	0.00019	0.00087	-1e-05	0	0	1e-05	5
26196	0	8e-05	0.00019	0.00087	-1e-05	0	0	1e-05	5
26197	0	8e-05	0.00019	0.00087	-1e-05	0	0	1e-05	5
26198	0	8e-05	0.00019	0.00087	-1e-05	0	0	1e-05	5
26199	0	8e-05	0.00019	0.00087	-1e-05	0	0	1e-05	5
26200	0	8e-05	0.00019	0.00087	-1e-05	0	0	1e-05	5
26201	0	8e-05	0.00019	0.00087	-1e-05	0	0	1e-05	5
26202	0	8e-05	0.00019	0.00087	-1e-05	0	0	1e-05	5
26203	0	8e-05	0.00019	0.00087	-1e-05	0	0	1e-05	5
26204	0	8e-05	0.00019	0.00087	-1e-05	0	0	1e-05	5
26205	-1e-05	2e-05	0.0001	0.00014	-0.00017	4e-05	2e-05	3e-05	5
26206	2e-05	3e-05	0.00018	0.00044	-0.00021	-4e-05	-3e-05	-4e-05	5
26207	2e-05	3e-05	0.00018	0.00044	-0.00021	-4e-05	-3e-05	-4e-05	5
26208	2e-05	3e-05	0.00018	0.00044	-0.00021	-4e-05	-3e-05	-4e-05	5
26209	2e-05	3e-05	0.00018	0.00044	-0.00021	-4e-05	-3e-05	-4e-05	5
26210	2e-05	3e-05	0.00018	0.00044	-0.00021	-4e-05	-3e-05	-4e-05	5
26211	2e-05	3e-05	0.00018	0.00044	-0.00021	-4e-05	-3e-05	-4e-05	5
26212	2e-05	3e-05	0.00018	0.00044	-0.00021	-4e-05	-3e-05	-4e-05	5
26213	2e-05	3e-05	0.00018	0.00044	-0.00021	-4e-05	-3e-05	-4e-05	5
26214	2e-05	3e-05	0.00018	0.00044	-0.00021	-4e-05	-3e-05	-4e-05	5
26215	2e-05	3e-05	0.00018	0.00044	-0.00021	-4e-05	-3e-05	-4e-05	5
26216	2e-05	3e-05	0.00018	0.00044	-0.00021	-4e-05	-3e-05	-4e-05	5
26217	2e-05	3e-05	0.00018	0.00044	-0.00021	-4e-05	-3e-05	-4e-05	5
26218	0.00019	4e-05	-8e-05	-1e-05	0.00047	1e-05	1e-05	2e-05	5
26219	-0.00019	7e-05	0.00038	0.00017	2e-05	-2e-05	0	-1e-05	5
26220	-0.00019	7e-05	0.00038	0.00017	2e-05	-2e-05	0	-1e-05	5
26221	-0.00019	7e-05	0.00038	0.00017	2e-05	-2e-05	0	-1e-05	5
26222	-0.00019	7e-05	0.00038	0.00017	2e-05	-2e-05	0	-1e-05	5
26223	-0.00019	7e-05	0.00038	0.00017	2e-05	-2e-05	0	-1e-05	5
26224	-0.00019	7e-05	0.00038	0.00017	2e-05	-2e-05	0	-1e-05	5
26225	-0.00019	7e-05	0.00038	0.00017	2e-05	-2e-05	0	-1e-05	5
26226	-0.00019	7e-05	0.00038	0.00017	2e-05	-2e-05	0	-1e-05	5
26227	0.00015	8e-05	9e-05	0.0001	0.00015	2e-05	1e-05	-3e-05	5
26228	0.00015	8e-05	9e-05	0.0001	0.00015	2e-05	1e-05	-3e-05	5
26229	0.00015	8e-05	9e-05	0.0001	0.00015	2e-05	1e-05	-3e-05	5
26230	0.00015	8e-05	9e-05	0.0001	0.00015	2e-05	1e-05	-3e-05	5
26231	0.00015	8e-05	9e-05	0.0001	0.00015	2e-05	1e-05	-3e-05	5
26232	0.00015	8e-05	9e-05	0.0001	0.00015	2e-05	1e-05	-3e-05	5
26233	0.00015	8e-05	9e-05	0.0001	0.00015	2e-05	1e-05	-3e-05	5
26234	0.00015	8e-05	9e-05	0.0001	0.00015	2e-05	1e-05	-3e-05	5
26235	0.00015	8e-05	9e-05	0.0001	0.00015	2e-05	1e-05	-3e-05	5
26237	0.00015	8e-05	9e-05	0.0001	0.00015	2e-05	1e-05	-3e-05	5
26239	0.00015	8e-05	9e-05	0.0001	0.00015	2e-05	1e-05	-3e-05	5
26240	0.00015	8e-05	9e-05	0.0001	0.00015	2e-05	1e-05	-3e-05	5
26241	0.00015	8e-05	9e-05	0.0001	0.00015	2e-05	1e-05	-3e-05	5
26242	-0.00011	1e-05	3e-05	-0.00028	-0.00037	-3e-05	0	4e-05	5
26243	-8e-05	-8e-05	0	-0.00015	0.00039	8e-05	-3e-05	-8e-05	5
26244	-8e-05	-8e-05	0	-0.00015	0.00039	8e-05	-3e-05	-8e-05	5
26245	-8e-05	-8e-05	0	-0.00015	0.00039	8e-05	-3e-05	-8e-05	5
26246	-8e-05	-8e-05	0	-0.00015	0.00039	8e-05	-3e-05	-8e-05	5
26247	-8e-05	-8e-05	0	-0.00015	0.00039	8e-05	-3e-05	-8e-05	5
26248	-8e-05	-8e-05	0	-0.00015	0.00039	8e-05	-3e-05	-8e-05	5
26249	-8e-05	-8e-05	0	-0.00015	0.00039	8e-05	-3e-05	-8e-05	5
26250	-8e-05	-8e-05	0	-0.00015	0.00039	8e-05	-3e-05	-8e-05	5
26251	-8e-05	-8e-05	0	-0.00015	0.00039	8e-05	-3e-05	-8e-05	5
26252	-8e-05	-8e-05	0	-0.00015	0.00039	8e-05	-3e-05	-8e-05	5
26253	-8e-05	-8e-05	0	-0.00015	0.00039	8e-05	-3e-05	-8e-05	5
26254	-8e-05	-8e-05	0	-0.00015	0.00039	8e-05	-3e-05	-8e-05	5
26255	-8e-05	-8e-05	0	-0.00015	0.00039	8e-05	-3e-05	-8e-05	5
26256	-8e-05	-8e-05	0	-0.00015	0.00039	8e-05	-3e-05	-8e-05	5
26257	-8e-05	-8e-05	0	-0.00015	0.00039	8e-05	-3e-05	-8e-05	5
26258	-8e-05	-8e-05	0	-0.00015	0.00039	8e-05	-3e-05	-8e-05	5
26259	-8e-05	-8e-05	0	-0.00015	0.00039	8e-05	-3e-05	-8e-05	5
26260	-8e-05	-8e-05	0	-0.00015	0.00039	8e-05	-3e-05	-8e-05	5
26261	-8e-05	-8e-05	0	-0.00015	0.00039	8e-05	-3e-05	-8e-05	5
26262	-8e-05	-8e-05	0	-0.00015	0.00039	8e-05	-3e-05	-8e-05	5
26263	-8e-05	-8e-05	0	-0.00015	0.00039	8e-05	-3e-05	-8e-05	5
26264	-8e-05	-8e-05	0	-0.00015	0.00039	8e-05	-3e-05	-8e-05	5
26265	-3e-05	-9e-05	3e-05	6e-05	-0.00027	-1e-05	1e-05	-1e-05	5
26266	1e-05	-4e-05	-0.00011	0.00042	0.00047	-8e-05	-1e-05	-1e-05	5
26267	1e-05	-4e-05	-0.00011	0.00042	0.00047	-8e-05	-1e-05	-1e-05	5
26268	1e-05	-4e-05	-0.00011	0.00042	0.00047	-8e-05	-1e-05	-1e-05	5
26269	1e-05	-4e-05	-0.00011	0.00042	0.00047	-8e-05	-1e-05	-1e-05	5
26270	1e-05	-4e-05	-0.00011	0.00042	0.00047	-8e-05	-1e-05	-1e-05	5
26271	1e-05	-4e-05	-0.00011	0.00042	0.00047	-8e-05	-1e-05	-1e-05	5
26272	1e-05	-4e-05	-0.00011	0.00042	0.00047	-8e-05	-1e-05	-1e-05	5
56752	5e-05	-2e-05	-0.0001	-0.00012	-0.00031	-0.00014	-1e-05	-0.00012	5
56753	5e-05	-2e-05	-0.0001	-0.00012	-0.00031	-0.00014	-1e-05	-0.00012	5
56754	5e-05	-2e-05	-0.0001	-0.00012	-0.00031	-0.00014	-1e-05	-0.00012	5
56755	5e-05	-2e-05	-0.0001	-0.00012	-0.00031	-0.00014	-1e-05	-0.00012	5
56756	5e-05	-2e-05	-0.0001	-0.00012	-0.00031	-0.00014	-1e-05	-0.00012	5
56757	5e-05	-2e-05	-0.0001	-0.00012	-0.00031	-0.00014	-1e-05	-0.00012	5
56758	-0.00052	6e-05	0.00015	-0.00075	-0.00089	-0.00013	-3e-05	0.00014	5
56759	0	-2e-05	-0.00035	-2e-05	-0.00078	1e-05	3e-05	0.00012	5
56760	0	-2e-05	-0.00035	-2e-05	-0.00078	1e-05	3e-05	0.00012	5
56761	0	-2e-05	-0.00035	-2e-05	-0.00078	1e-05	3e-05	0.00012	5
56762	0	-2e-05	-0.00035	-2e-05	-0.00078	1e-05	3e-05	0.00012	5
56763	0	-2e-05	-0.00035	-2e-05	-0.00078	1e-05	3e-05	0.00012	5
56764	0	-2e-05	-0.00035	-2e-05	-0.00078	1e-05	3e-05	0.00012	5
56765	0	-2e-05	-0.00035	-2e-05	-0.00078	1e-05	3e-05	0.00012	5
56766	6e-05	-2e-05	0.00017	0.00053	0.0003	0.00022	7e-05	4e-05	5
56767	-0.00024	0.0001	0.00024	-0.00028	-0.00035	-0.00015	-0.00013	-0.00011	5
56768	-0.00024	0.0001	0.00024	-0.00028	-0.00035	-0.00015	-0.00013	-0.00011	5
56769	-0.00024	0.0001	0.00024	-0.00028	-0.00035	-0.00015	-0.00013	-0.00011	5
56770	-0.00024	0.0001	0.00024	-0.00028	-0.00035	-0.00015	-0.00013	-0.00011	5
56771	-0.00024	0.0001	0.00024	-0.00028	-0.00035	-0.00015	-0.00013	-0.00011	5
56772	-0.00024	0.0001	0.00024	-0.00028	-0.00035	-0.00015	-0.00013	-0.00011	5
56773	-0.00024	0.0001	0.00024	-0.00028	-0.00035	-0.00015	-0.00013	-0.00011	5
56774	-0.00024	0.0001	0.00024	-0.00028	-0.00035	-0.00015	-0.00013	-0.00011	5
56775	-0.00024	0.0001	0.00024	-0.00028	-0.00035	-0.00015	-0.00013	-0.00011	5
56776	-0.00024	0.0001	0.00024	-0.00028	-0.00035	-0.00015	-0.00013	-0.00011	5
56777	-0.00024	0.0001	0.00024	-0.00028	-0.00035	-0.00015	-0.00013	-0.00011	5
56778	-0.00024	0.0001	0.00024	-0.00028	-0.00035	-0.00015	-0.00013	-0.00011	5
56779	-0.00024	0.0001	0.00024	-0.00028	-0.00035	-0.00015	-0.00013	-0.00011	5
56780	-0.00024	0.0001	0.00024	-0.00028	-0.00035	-0.00015	-0.00013	-0.00011	5
56781	-0.00024	0.0001	0.00024	-0.00028	-0.00035	-0.00015	-0.00013	-0.00011	5
56782	-0.00084	0	0.00012	0.00044	-0.00031	1e-05	-0.0001	-0.00023	5
56783	-0.00084	0	0.00012	0.00044	-0.00031	1e-05	-0.0001	-0.00023	5
56784	-0.00084	0	0.00012	0.00044	-0.00031	1e-05	-0.0001	-0.00023	5
56785	-0.00084	0	0.00012	0.00044	-0.00031	1e-05	-0.0001	-0.00023	5
56787	-0.00084	0	0.00012	0.00044	-0.00031	1e-05	-0.0001	-0.00023	5
56789	-0.00084	0	0.00012	0.00044	-0.00031	1e-05	-0.0001	-0.00023	5
56790	-0.00084	0	0.00012	0.00044	-0.00031	1e-05	-0.0001	-0.00023	5
56791	-0.00084	0	0.00012	0.00044	-0.00031	1e-05	-0.0001	-0.00023	5
56792	-0.00084	0	0.00012	0.00044	-0.00031	1e-05	-0.0001	-0.00023	5
56793	-0.00084	0	0.00012	0.00044	-0.00031	1e-05	-0.0001	-0.00023	5
56794	-0.00084	0	0.00012	0.00044	-0.00031	1e-05	-0.0001	-0.00023	5
56795	-0.00084	0	0.00012	0.00044	-0.00031	1e-05	-0.0001	-0.00023	5
56796	-0.00084	0	0.00012	0.00044	-0.00031	1e-05	-0.0001	-0.00023	5
56797	-0.00084	0	0.00012	0.00044	-0.00031	1e-05	-0.0001	-0.00023	5
56798	-0.00084	0	0.00012	0.00044	-0.00031	1e-05	-0.0001	-0.00023	5
56799	-0.00084	0	0.00012	0.00044	-0.00031	1e-05	-0.0001	-0.00023	5
56800	-0.00084	0	0.00012	0.00044	-0.00031	1e-05	-0.0001	-0.00023	5
56801	-0.00084	0	0.00012	0.00044	-0.00031	1e-05	-0.0001	-0.00023	5
56802	-0.00084	0	0.00012	0.00044	-0.00031	1e-05	-0.0001	-0.00023	5
56803	-0.00084	0	0.00012	0.00044	-0.00031	1e-05	-0.0001	-0.00023	5
56804	-0.00084	0	0.00012	0.00044	-0.00031	1e-05	-0.0001	-0.00023	5
56805	-0.00033	-1e-05	-8e-05	0.00013	3e-05	2e-05	1e-05	8e-05	5
56806	-6e-05	-0.00017	-0.00051	-9e-05	5e-05	-4e-05	-5e-05	4e-05	5
56807	-6e-05	-0.00017	-0.00051	-9e-05	5e-05	-4e-05	-5e-05	4e-05	5
56808	-6e-05	-0.00017	-0.00051	-9e-05	5e-05	-4e-05	-5e-05	4e-05	5
56809	-6e-05	-0.00017	-0.00051	-9e-05	5e-05	-4e-05	-5e-05	4e-05	5
56810	-6e-05	-0.00017	-0.00051	-9e-05	5e-05	-4e-05	-5e-05	4e-05	5
56811	-6e-05	-0.00017	-0.00051	-9e-05	5e-05	-4e-05	-5e-05	4e-05	5
56812	-6e-05	-0.00017	-0.00051	-9e-05	5e-05	-4e-05	-5e-05	4e-05	5
56813	-6e-05	-0.00017	-0.00051	-9e-05	5e-05	-4e-05	-5e-05	4e-05	5
56814	-6e-05	-0.00017	-0.00051	-9e-05	5e-05	-4e-05	-5e-05	4e-05	5
56815	-6e-05	-0.00017	-0.00051	-9e-05	5e-05	-4e-05	-5e-05	4e-05	5
56816	-6e-05	-0.00017	-0.00051	-9e-05	5e-05	-4e-05	-5e-05	4e-05	5
56817	-6e-05	-0.00017	-0.00051	-9e-05	5e-05	-4e-05	-5e-05	4e-05	5
56818	-6e-05	-0.00017	-0.00051	-9e-05	5e-05	-4e-05	-5e-05	4e-05	5
56819	-6e-05	-0.00017	-0.00051	-9e-05	5e-05	-4e-05	-5e-05	4e-05	5
56820	-6e-05	-0.00017	-0.00051	-9e-05	5e-05	-4e-05	-5e-05	4e-05	5
56821	-6e-05	-0.00017	-0.00051	-9e-05	5e-05	-4e-05	-5e-05	4e-05	5
56822	-6e-05	-0.00017	-0.00051	-9e-05	5e-05	-4e-05	-5e-05	4e-05	5
56823	-6e-05	-0.00017	-0.00051	-9e-05	5e-05	-4e-05	-5e-05	4e-05	5
56824	-6e-05	-0.00017	-0.00051	-9e-05	5e-05	-4e-05	-5e-05	4e-05	5
56825	-6e-05	-0.00017	-0.00051	-9e-05	5e-05	-4e-05	-5e-05	4e-05	5
56826	-6e-05	-0.00017	-0.00051	-9e-05	5e-05	-4e-05	-5e-05	4e-05	5
56827	-0.00017	0	-8e-05	-0.00017	-0.00025	9e-05	3e-05	-4e-05	5
56828	-0.00014	-4e-05	9e-05	-0.00075	-0.00048	7e-05	0	0.00012	5
56829	-0.00014	-4e-05	9e-05	-0.00075	-0.00048	7e-05	0	0.00012	5
56830	-0.00014	-4e-05	9e-05	-0.00075	-0.00048	7e-05	0	0.00012	5
56831	-0.00014	-4e-05	9e-05	-0.00075	-0.00048	7e-05	0	0.00012	5
56832	-0.00014	-4e-05	9e-05	-0.00075	-0.00048	7e-05	0	0.00012	5
56833	-0.00014	-4e-05	9e-05	-0.00075	-0.00048	7e-05	0	0.00012	5
56834	-0.00014	-4e-05	9e-05	-0.00075	-0.00048	7e-05	0	0.00012	5
56835	-0.00014	-4e-05	9e-05	-0.00075	-0.00048	7e-05	0	0.00012	5
56837	-0.00014	-4e-05	9e-05	-0.00075	-0.00048	7e-05	0	0.00012	5
56839	-0.00014	-4e-05	9e-05	-0.00075	-0.00048	7e-05	0	0.00012	5
56840	-0.00014	-4e-05	9e-05	-0.00075	-0.00048	7e-05	0	0.00012	5
56841	-0.00014	-4e-05	9e-05	-0.00075	-0.00048	7e-05	0	0.00012	5
56842	0.00012	-0.0001	1e-05	0.00028	0.00115	0.00018	3e-05	-7e-05	5
56843	0.00012	-0.0001	1e-05	0.00028	0.00115	0.00018	3e-05	-7e-05	5
56844	0.00012	-0.0001	1e-05	0.00028	0.00115	0.00018	3e-05	-7e-05	5
56845	0.00012	-0.0001	1e-05	0.00028	0.00115	0.00018	3e-05	-7e-05	5
56846	0.00012	-0.0001	1e-05	0.00028	0.00115	0.00018	3e-05	-7e-05	5
56847	0.00012	-0.0001	1e-05	0.00028	0.00115	0.00018	3e-05	-7e-05	5
56848	0.00012	-0.0001	1e-05	0.00028	0.00115	0.00018	3e-05	-7e-05	5
56849	0.00012	-0.0001	1e-05	0.00028	0.00115	0.00018	3e-05	-7e-05	5
56850	0.00012	-0.0001	1e-05	0.00028	0.00115	0.00018	3e-05	-7e-05	5
56851	0.00012	-0.0001	1e-05	0.00028	0.00115	0.00018	3e-05	-7e-05	5
56852	0.00012	-0.0001	1e-05	0.00028	0.00115	0.00018	3e-05	-7e-05	5
56853	0.00012	-0.0001	1e-05	0.00028	0.00115	0.00018	3e-05	-7e-05	5
56854	0.00012	-0.0001	1e-05	0.00028	0.00115	0.00018	3e-05	-7e-05	5
56855	0.00012	-0.0001	1e-05	0.00028	0.00115	0.00018	3e-05	-7e-05	5
56856	0.00012	-0.0001	1e-05	0.00028	0.00115	0.00018	3e-05	-7e-05	5
56857	0.00012	-0.0001	1e-05	0.00028	0.00115	0.00018	3e-05	-7e-05	5
56858	0.00012	-0.0001	1e-05	0.00028	0.00115	0.00018	3e-05	-7e-05	5
56859	0.00012	-0.0001	1e-05	0.00028	0.00115	0.00018	3e-05	-7e-05	5
56860	0.00012	-0.0001	1e-05	0.00028	0.00115	0.00018	3e-05	-7e-05	5
56861	0.00012	-0.0001	1e-05	0.00028	0.00115	0.00018	3e-05	-7e-05	5
56862	0.00012	-0.0001	1e-05	0.00028	0.00115	0.00018	3e-05	-7e-05	5
56863	0.00012	-0.0001	1e-05	0.00028	0.00115	0.00018	3e-05	-7e-05	5
56864	0.00012	-0.0001	1e-05	0.00028	0.00115	0.00018	3e-05	-7e-05	5
56865	0.00018	-5e-05	0.00015	7e-05	0.00027	4e-05	-2e-05	-6e-05	5
56866	-9e-05	0.00011	-0.00016	-7e-05	0.00076	0.0001	0.0001	0.00011	5
56867	-9e-05	0.00011	-0.00016	-7e-05	0.00076	0.0001	0.0001	0.00011	5
56868	-9e-05	0.00011	-0.00016	-7e-05	0.00076	0.0001	0.0001	0.00011	5
56869	-9e-05	0.00011	-0.00016	-7e-05	0.00076	0.0001	0.0001	0.00011	5
56870	-9e-05	0.00011	-0.00016	-7e-05	0.00076	0.0001	0.0001	0.00011	5
56871	-9e-05	0.00011	-0.00016	-7e-05	0.00076	0.0001	0.0001	0.00011	5
56872	-9e-05	0.00011	-0.00016	-7e-05	0.00076	0.0001	0.0001	0.00011	5
56873	-9e-05	0.00011	-0.00016	-7e-05	0.00076	0.0001	0.0001	0.00011	5
56874	-9e-05	0.00011	-0.00016	-7e-05	0.00076	0.0001	0.0001	0.00011	5
56875	-9e-05	0.00011	-0.00016	-7e-05	0.00076	0.0001	0.0001	0.00011	5
56876	-9e-05	0.00011	-0.00016	-7e-05	0.00076	0.0001	0.0001	0.00011	5
56877	-9e-05	0.00011	-0.00016	-7e-05	0.00076	0.0001	0.0001	0.00011	5
56878	-9e-05	0.00011	-0.00016	-7e-05	0.00076	0.0001	0.0001	0.00011	5
56879	-9e-05	0.00011	-0.00016	-7e-05	0.00076	0.0001	0.0001	0.00011	5
56880	-9e-05	0.00011	-0.00016	-7e-05	0.00076	0.0001	0.0001	0.00011	5
56881	-9e-05	0.00011	-0.00016	-7e-05	0.00076	0.0001	0.0001	0.00011	5
56882	-9e-05	0.00011	-0.00016	-7e-05	0.00076	0.0001	0.0001	0.00011	5
56883	-9e-05	0.00011	-0.00016	-7e-05	0.00076	0.0001	0.0001	0.00011	5
56884	-9e-05	0.00011	-0.00016	-7e-05	0.00076	0.0001	0.0001	0.00011	5
56885	-9e-05	0.00011	-0.00016	-7e-05	0.00076	0.0001	0.0001	0.00011	5
56887	-0.0001	-7e-05	-3e-05	-0.00022	0.00055	8e-05	9e-05	2e-05	5
56889	0.0004	1e-05	0.00011	0.00049	-0.00064	-0.00011	-5e-05	0	5
56890	0.0004	1e-05	0.00011	0.00049	-0.00064	-0.00011	-5e-05	0	5
56891	0.0004	1e-05	0.00011	0.00049	-0.00064	-0.00011	-5e-05	0	5
56892	0.0004	1e-05	0.00011	0.00049	-0.00064	-0.00011	-5e-05	0	5
56893	0.0004	1e-05	0.00011	0.00049	-0.00064	-0.00011	-5e-05	0	5
56894	0.0004	1e-05	0.00011	0.00049	-0.00064	-0.00011	-5e-05	0	5
56895	0.0004	1e-05	0.00011	0.00049	-0.00064	-0.00011	-5e-05	0	5
56896	0.0004	1e-05	0.00011	0.00049	-0.00064	-0.00011	-5e-05	0	5
56897	0.0004	1e-05	0.00011	0.00049	-0.00064	-0.00011	-5e-05	0	5
56898	0.0004	1e-05	0.00011	0.00049	-0.00064	-0.00011	-5e-05	0	5
56899	0.0004	1e-05	0.00011	0.00049	-0.00064	-0.00011	-5e-05	0	5
56900	0.0004	1e-05	0.00011	0.00049	-0.00064	-0.00011	-5e-05	0	5
56901	0.0004	1e-05	0.00011	0.00049	-0.00064	-0.00011	-5e-05	0	5
56902	1e-05	-3e-05	9e-05	-7e-05	-0.00081	-0.0001	-4e-05	7e-05	5
56903	1e-05	-3e-05	9e-05	-7e-05	-0.00081	-0.0001	-4e-05	7e-05	5
56904	1e-05	-3e-05	9e-05	-7e-05	-0.00081	-0.0001	-4e-05	7e-05	5
56905	1e-05	-3e-05	9e-05	-7e-05	-0.00081	-0.0001	-4e-05	7e-05	5
56906	1e-05	-3e-05	9e-05	-7e-05	-0.00081	-0.0001	-4e-05	7e-05	5
56907	1e-05	-3e-05	9e-05	-7e-05	-0.00081	-0.0001	-4e-05	7e-05	5
56908	1e-05	-3e-05	9e-05	-7e-05	-0.00081	-0.0001	-4e-05	7e-05	5
56909	1e-05	-3e-05	9e-05	-7e-05	-0.00081	-0.0001	-4e-05	7e-05	5
56910	1e-05	-3e-05	9e-05	-7e-05	-0.00081	-0.0001	-4e-05	7e-05	5
56911	1e-05	-3e-05	9e-05	-7e-05	-0.00081	-0.0001	-4e-05	7e-05	5
56912	1e-05	-3e-05	9e-05	-7e-05	-0.00081	-0.0001	-4e-05	7e-05	5
56913	1e-05	-3e-05	9e-05	-7e-05	-0.00081	-0.0001	-4e-05	7e-05	5
56914	1e-05	-3e-05	9e-05	-7e-05	-0.00081	-0.0001	-4e-05	7e-05	5
56915	1e-05	-3e-05	9e-05	-7e-05	-0.00081	-0.0001	-4e-05	7e-05	5
56916	1e-05	-3e-05	9e-05	-7e-05	-0.00081	-0.0001	-4e-05	7e-05	5
56917	1e-05	-3e-05	9e-05	-7e-05	-0.00081	-0.0001	-4e-05	7e-05	5
56918	1e-05	-3e-05	9e-05	-7e-05	-0.00081	-0.0001	-4e-05	7e-05	5
56919	1e-05	-3e-05	9e-05	-7e-05	-0.00081	-0.0001	-4e-05	7e-05	5
56920	1e-05	-3e-05	9e-05	-7e-05	-0.00081	-0.0001	-4e-05	7e-05	5
56921	1e-05	-3e-05	9e-05	-7e-05	-0.00081	-0.0001	-4e-05	7e-05	5
56922	1e-05	-3e-05	9e-05	-7e-05	-0.00081	-0.0001	-4e-05	7e-05	5
56923	1e-05	-3e-05	9e-05	-7e-05	-0.00081	-0.0001	-4e-05	7e-05	5
56924	1e-05	-3e-05	9e-05	-7e-05	-0.00081	-0.0001	-4e-05	7e-05	5
56925	2e-05	-8e-05	0	-0.00011	-0.00041	-4e-05	-2e-05	0.00017	5
56926	-0.00028	6e-05	0.00012	0.00047	0.00075	0.00016	2e-05	-0.00044	5
56927	-0.00028	6e-05	0.00012	0.00047	0.00075	0.00016	2e-05	-0.00044	5
56928	-0.00028	6e-05	0.00012	0.00047	0.00075	0.00016	2e-05	-0.00044	5
56929	-0.00028	6e-05	0.00012	0.00047	0.00075	0.00016	2e-05	-0.00044	5
56930	-0.00028	6e-05	0.00012	0.00047	0.00075	0.00016	2e-05	-0.00044	5
56931	-0.00028	6e-05	0.00012	0.00047	0.00075	0.00016	2e-05	-0.00044	5
56932	-0.00028	6e-05	0.00012	0.00047	0.00075	0.00016	2e-05	-0.00044	5
56933	-0.00028	6e-05	0.00012	0.00047	0.00075	0.00016	2e-05	-0.00044	5
56934	-0.00028	6e-05	0.00012	0.00047	0.00075	0.00016	2e-05	-0.00044	5
56935	-0.00028	6e-05	0.00012	0.00047	0.00075	0.00016	2e-05	-0.00044	5
56937	-0.00028	6e-05	0.00012	0.00047	0.00075	0.00016	2e-05	-0.00044	5
56939	-0.00028	6e-05	0.00012	0.00047	0.00075	0.00016	2e-05	-0.00044	5
56940	-0.00028	6e-05	0.00012	0.00047	0.00075	0.00016	2e-05	-0.00044	5
56941	-0.00028	6e-05	0.00012	0.00047	0.00075	0.00016	2e-05	-0.00044	5
56942	-0.00028	6e-05	0.00012	0.00047	0.00075	0.00016	2e-05	-0.00044	5
56943	-0.00028	6e-05	0.00012	0.00047	0.00075	0.00016	2e-05	-0.00044	5
56944	-0.00028	6e-05	0.00012	0.00047	0.00075	0.00016	2e-05	-0.00044	5
56945	-0.00028	6e-05	0.00012	0.00047	0.00075	0.00016	2e-05	-0.00044	5
56946	-0.00028	6e-05	0.00012	0.00047	0.00075	0.00016	2e-05	-0.00044	5
56947	7e-05	2e-05	-0.00012	-5e-05	-0.00062	-0.0002	-3e-05	0.00013	5
56948	0.00021	0.00012	0.00042	0.00014	-0.00062	-4e-05	0.00015	0.00015	5
56949	0.00021	0.00012	0.00042	0.00014	-0.00062	-4e-05	0.00015	0.00015	5
56950	0.00021	0.00012	0.00042	0.00014	-0.00062	-4e-05	0.00015	0.00015	5
56951	0.00021	0.00012	0.00042	0.00014	-0.00062	-4e-05	0.00015	0.00015	5
56952	0.00021	0.00012	0.00042	0.00014	-0.00062	-4e-05	0.00015	0.00015	5
56953	0.00021	0.00012	0.00042	0.00014	-0.00062	-4e-05	0.00015	0.00015	5
56954	0.00021	0.00012	0.00042	0.00014	-0.00062	-4e-05	0.00015	0.00015	5
56955	0.00021	0.00012	0.00042	0.00014	-0.00062	-4e-05	0.00015	0.00015	5
56956	0.00021	0.00012	0.00042	0.00014	-0.00062	-4e-05	0.00015	0.00015	5
56957	0.00021	0.00012	0.00042	0.00014	-0.00062	-4e-05	0.00015	0.00015	5
56958	0.00021	0.00012	0.00042	0.00014	-0.00062	-4e-05	0.00015	0.00015	5
56959	0.00021	0.00012	0.00042	0.00014	-0.00062	-4e-05	0.00015	0.00015	5
56960	0.00021	0.00012	0.00042	0.00014	-0.00062	-4e-05	0.00015	0.00015	5
56961	0.00021	0.00012	0.00042	0.00014	-0.00062	-4e-05	0.00015	0.00015	5
56962	0.00024	-1e-05	-8e-05	-0.00022	-0.00089	-0.00018	-7e-05	6e-05	5
56963	0.00024	-1e-05	-8e-05	-0.00022	-0.00089	-0.00018	-7e-05	6e-05	5
56964	0.00024	-1e-05	-8e-05	-0.00022	-0.00089	-0.00018	-7e-05	6e-05	5
56965	0.00024	-1e-05	-8e-05	-0.00022	-0.00089	-0.00018	-7e-05	6e-05	5
56966	0.00024	-1e-05	-8e-05	-0.00022	-0.00089	-0.00018	-7e-05	6e-05	5
56967	0.00024	-1e-05	-8e-05	-0.00022	-0.00089	-0.00018	-7e-05	6e-05	5
56968	0.00024	-1e-05	-8e-05	-0.00022	-0.00089	-0.00018	-7e-05	6e-05	5
56969	0.00024	-1e-05	-8e-05	-0.00022	-0.00089	-0.00018	-7e-05	6e-05	5
56970	0.00024	-1e-05	-8e-05	-0.00022	-0.00089	-0.00018	-7e-05	6e-05	5
56971	0.00024	-1e-05	-8e-05	-0.00022	-0.00089	-0.00018	-7e-05	6e-05	5
