31247	-8e-05	-3e-05	-2e-05	5e-05	7e-05	5e-05	8e-05	9e-05	6
31248	-8e-05	-3e-05	-2e-05	5e-05	7e-05	5e-05	8e-05	9e-05	6
31249	-8e-05	-3e-05	-2e-05	5e-05	7e-05	5e-05	8e-05	9e-05	6
31250	-8e-05	-3e-05	-2e-05	5e-05	7e-05	5e-05	8e-05	9e-05	6
31251	-8e-05	-3e-05	-2e-05	5e-05	7e-05	5e-05	8e-05	9e-05	6
31252	-8e-05	-3e-05	-2e-05	5e-05	7e-05	5e-05	8e-05	9e-05	6
31253	-8e-05	-3e-05	-2e-05	5e-05	7e-05	5e-05	8e-05	9e-05	6
31254	-0.00016	0	0	-4e-05	-0.0002	-0.00027	-0.00012	-0.00021	6
31255	-0.00016	0	0	-4e-05	-0.0002	-0.00027	-0.00012	-0.00021	6
31256	-0.00016	0	0	-4e-05	-0.0002	-0.00027	-0.00012	-0.00021	6
31257	-0.00016	0	0	-4e-05	-0.0002	-0.00027	-0.00012	-0.00021	6
31258	-0.00016	0	0	-4e-05	-0.0002	-0.00027	-0.00012	-0.00021	6
31259	-0.00016	0	0	-4e-05	-0.0002	-0.00027	-0.00012	-0.00021	6
31260	-0.00016	0	0	-4e-05	-0.0002	-0.00027	-0.00012	-0.00021	6
31261	-7e-05	-3e-05	-4e-05	-6e-05	-0.00016	-0.00015	-7e-05	-9e-05	6
31262	-7e-05	-3e-05	-4e-05	-6e-05	-0.00016	-0.00015	-7e-05	-9e-05	6
31263	-7e-05	-3e-05	-4e-05	-6e-05	-0.00016	-0.00015	-7e-05	-9e-05	6
31264	-7e-05	-3e-05	-4e-05	-6e-05	-0.00016	-0.00015	-7e-05	-9e-05	6
31265	-7e-05	-3e-05	-4e-05	-6e-05	-0.00016	-0.00015	-7e-05	-9e-05	6
31266	-7e-05	-3e-05	-4e-05	-6e-05	-0.00016	-0.00015	-7e-05	-9e-05	6
31267	-7e-05	-3e-05	-4e-05	-6e-05	-0.00016	-0.00015	-7e-05	-9e-05	6
31268	-7e-05	-3e-05	-4e-05	-6e-05	-0.00016	-0.00015	-7e-05	-9e-05	6
31269	-7e-05	-3e-05	-4e-05	-6e-05	-0.00016	-0.00015	-7e-05	-9e-05	6
31270	-7e-05	-3e-05	-4e-05	-6e-05	-0.00016	-0.00015	-7e-05	-9e-05	6
31271	-7e-05	-3e-05	-4e-05	-6e-05	-0.00016	-0.00015	-7e-05	-9e-05	6
31272	-7e-05	-3e-05	-4e-05	-6e-05	-0.00016	-0.00015	-7e-05	-9e-05	6
31273	-7e-05	-3e-05	-4e-05	-6e-05	-0.00016	-0.00015	-7e-05	-9e-05	6
31274	-7e-05	-3e-05	-4e-05	-6e-05	-0.00016	-0.00015	-7e-05	-9e-05	6
31275	-7e-05	-3e-05	-4e-05	-6e-05	-0.00016	-0.00015	-7e-05	-9e-05	6
31276	-7e-05	-3e-05	-4e-05	-6e-05	-0.00016	-0.00015	-7e-05	-9e-05	6
31277	-0.00021	-8e-05	-6e-05	-2e-05	-0.00015	-0.00054	3e-05	9e-05	6
31278	-0.00021	-8e-05	-6e-05	-2e-05	-0.00015	-0.00054	3e-05	9e-05	6
31279	0.00036	2e-05	-1e-05	-4e-05	-9e-05	0.00039	1e-05	0.00014	6
31280	0.00036	2e-05	-1e-05	-4e-05	-9e-05	0.00039	1e-05	0.00014	6
31281	0.00036	2e-05	-1e-05	-4e-05	-9e-05	0.00039	1e-05	0.00014	6
31282	0.00036	2e-05	-1e-05	-4e-05	-9e-05	0.00039	1e-05	0.00014	6
31283	0.00036	2e-05	-1e-05	-4e-05	-9e-05	0.00039	1e-05	0.00014	6
31284	0.00036	2e-05	-1e-05	-4e-05	-9e-05	0.00039	1e-05	0.00014	6
31285	0.00036	2e-05	-1e-05	-4e-05	-9e-05	0.00039	1e-05	0.00014	6
31286	0.00036	2e-05	-1e-05	-4e-05	-9e-05	0.00039	1e-05	0.00014	6
31288	0.00036	2e-05	-1e-05	-4e-05	-9e-05	0.00039	1e-05	0.00014	6
31289	0.00036	2e-05	-1e-05	-4e-05	-9e-05	0.00039	1e-05	0.00014	6
31290	0.00036	2e-05	-1e-05	-4e-05	-9e-05	0.00039	1e-05	0.00014	6
31291	0.00036	2e-05	-1e-05	-4e-05	-9e-05	0.00039	1e-05	0.00014	6
31292	0.00036	2e-05	-1e-05	-4e-05	-9e-05	0.00039	1e-05	0.00014	6
31293	0.00036	2e-05	-1e-05	-4e-05	-9e-05	0.00039	1e-05	0.00014	6
31294	0.00036	2e-05	-1e-05	-4e-05	-9e-05	0.00039	1e-05	0.00014	6
31295	0.00036	2e-05	-1e-05	-4e-05	-9e-05	0.00039	1e-05	0.00014	6
31296	0.00036	2e-05	-1e-05	-4e-05	-9e-05	0.00039	1e-05	0.00014	6
31297	0.00036	2e-05	-1e-05	-4e-05	-9e-05	0.00039	1e-05	0.00014	6
31298	0.00036	2e-05	-1e-05	-4e-05	-9e-05	0.00039	1e-05	0.00014	6
31299	0.00036	2e-05	-1e-05	-4e-05	-9e-05	0.00039	1e-05	0.00014	6
31300	-6e-05	3e-05	4e-05	2e-05	8e-05	0.00013	1e-05	0.00021	6
31301	-5e-05	-4e-05	-5e-05	-7e-05	8e-05	-6e-05	1e-05	3e-05	6
31302	-5e-05	-4e-05	-5e-05	-7e-05	8e-05	-6e-05	1e-05	3e-05	6
31303	-5e-05	-4e-05	-5e-05	-7e-05	8e-05	-6e-05	1e-05	3e-05	6
31304	-5e-05	-4e-05	-5e-05	-7e-05	8e-05	-6e-05	1e-05	3e-05	6
31305	-5e-05	-4e-05	-5e-05	-7e-05	8e-05	-6e-05	1e-05	3e-05	6
31306	-5e-05	-4e-05	-5e-05	-7e-05	8e-05	-6e-05	1e-05	3e-05	6
31307	-5e-05	-4e-05	-5e-05	-7e-05	8e-05	-6e-05	1e-05	3e-05	6
31308	-5e-05	-4e-05	-5e-05	-7e-05	8e-05	-6e-05	1e-05	3e-05	6
31309	-5e-05	-4e-05	-5e-05	-7e-05	8e-05	-6e-05	1e-05	3e-05	6
31310	-5e-05	-4e-05	-5e-05	-7e-05	8e-05	-6e-05	1e-05	3e-05	6
31311	-5e-05	-4e-05	-5e-05	-7e-05	8e-05	-6e-05	1e-05	3e-05	6
31312	-5e-05	-4e-05	-5e-05	-7e-05	8e-05	-6e-05	1e-05	3e-05	6
31313	-5e-05	-4e-05	-5e-05	-7e-05	8e-05	-6e-05	1e-05	3e-05	6
31314	-9e-05	-5e-05	-4e-05	-7e-05	-0.00022	-0.00045	-0.00013	-0.0002	6
31315	-9e-05	-5e-05	-4e-05	-7e-05	-0.00022	-0.00045	-0.00013	-0.0002	6
31316	-9e-05	-5e-05	-4e-05	-7e-05	-0.00022	-0.00045	-0.00013	-0.0002	6
31317	-9e-05	-5e-05	-4e-05	-7e-05	-0.00022	-0.00045	-0.00013	-0.0002	6
31318	-9e-05	-5e-05	-4e-05	-7e-05	-0.00022	-0.00045	-0.00013	-0.0002	6
31319	-9e-05	-5e-05	-4e-05	-7e-05	-0.00022	-0.00045	-0.00013	-0.0002	6
31320	-9e-05	-5e-05	-4e-05	-7e-05	-0.00022	-0.00045	-0.00013	-0.0002	6
31321	-0.00011	-2e-05	-1e-05	-6e-05	-5e-05	-0.00057	-8e-05	-3e-05	6
31322	-0.00011	-2e-05	-1e-05	-6e-05	-5e-05	-0.00057	-8e-05	-3e-05	6
31323	-0.00011	-2e-05	-1e-05	-6e-05	-5e-05	-0.00057	-8e-05	-3e-05	6
31324	-0.00011	-2e-05	-1e-05	-6e-05	-5e-05	-0.00057	-8e-05	-3e-05	6
31325	-0.00011	-2e-05	-1e-05	-6e-05	-5e-05	-0.00057	-8e-05	-3e-05	6
31326	-0.00011	-2e-05	-1e-05	-6e-05	-5e-05	-0.00057	-8e-05	-3e-05	6
31327	-0.00011	-2e-05	-1e-05	-6e-05	-5e-05	-0.00057	-8e-05	-3e-05	6
31328	-0.00011	-2e-05	-1e-05	-6e-05	-5e-05	-0.00057	-8e-05	-3e-05	6
31329	-0.00011	-2e-05	-1e-05	-6e-05	-5e-05	-0.00057	-8e-05	-3e-05	6
31330	-0.00011	-2e-05	-1e-05	-6e-05	-5e-05	-0.00057	-8e-05	-3e-05	6
31331	-0.00011	-2e-05	-1e-05	-6e-05	-5e-05	-0.00057	-8e-05	-3e-05	6
31332	-0.00011	-2e-05	-1e-05	-6e-05	-5e-05	-0.00057	-8e-05	-3e-05	6
31333	-0.00011	-2e-05	-1e-05	-6e-05	-5e-05	-0.00057	-8e-05	-3e-05	6
31334	-0.00011	-2e-05	-1e-05	-6e-05	-5e-05	-0.00057	-8e-05	-3e-05	6
31335	-0.00011	-2e-05	-1e-05	-6e-05	-5e-05	-0.00057	-8e-05	-3e-05	6
31336	-0.00011	-2e-05	-1e-05	-6e-05	-5e-05	-0.00057	-8e-05	-3e-05	6
31339	-7e-05	-1e-05	-1e-05	8e-05	0.00013	-4e-05	-0.00013	8e-05	6
31340	-7e-05	-1e-05	-1e-05	8e-05	0.00013	-4e-05	-0.00013	8e-05	6
31341	-7e-05	-1e-05	-1e-05	8e-05	0.00013	-4e-05	-0.00013	8e-05	6
31342	-7e-05	-1e-05	-1e-05	8e-05	0.00013	-4e-05	-0.00013	8e-05	6
31343	-7e-05	-1e-05	-1e-05	8e-05	0.00013	-4e-05	-0.00013	8e-05	6
31344	-7e-05	-1e-05	-1e-05	8e-05	0.00013	-4e-05	-0.00013	8e-05	6
31345	-7e-05	-1e-05	-1e-05	8e-05	0.00013	-4e-05	-0.00013	8e-05	6
31346	-7e-05	-1e-05	-1e-05	8e-05	0.00013	-4e-05	-0.00013	8e-05	6
31347	-7e-05	-1e-05	-1e-05	8e-05	0.00013	-4e-05	-0.00013	8e-05	6
31348	-7e-05	-1e-05	-1e-05	8e-05	0.00013	-4e-05	-0.00013	8e-05	6
31349	-7e-05	-1e-05	-1e-05	8e-05	0.00013	-4e-05	-0.00013	8e-05	6
31350	-7e-05	-1e-05	-1e-05	8e-05	0.00013	-4e-05	-0.00013	8e-05	6
31351	-7e-05	-1e-05	-1e-05	8e-05	0.00013	-4e-05	-0.00013	8e-05	6
31352	-7e-05	-1e-05	-1e-05	8e-05	0.00013	-4e-05	-0.00013	8e-05	6
31353	-7e-05	-1e-05	-1e-05	8e-05	0.00013	-4e-05	-0.00013	8e-05	6
31354	-7e-05	-1e-05	-1e-05	8e-05	0.00013	-4e-05	-0.00013	8e-05	6
31355	-7e-05	-1e-05	-1e-05	8e-05	0.00013	-4e-05	-0.00013	8e-05	6
31356	-7e-05	-1e-05	-1e-05	8e-05	0.00013	-4e-05	-0.00013	8e-05	6
31357	-7e-05	-1e-05	-1e-05	8e-05	0.00013	-4e-05	-0.00013	8e-05	6
31358	-7e-05	-1e-05	-1e-05	8e-05	0.00013	-4e-05	-0.00013	8e-05	6
31359	-7e-05	-1e-05	-1e-05	8e-05	0.00013	-4e-05	-0.00013	8e-05	6
31360	7e-05	0	-1e-05	-1e-05	-0.0002	-0.00063	0.00011	0.00012	6
31361	-1e-05	-1e-05	0	3e-05	0	8e-05	0	0.00013	6
31362	-1e-05	-1e-05	0	3e-05	0	8e-05	0	0.00013	6
31363	-1e-05	-1e-05	0	3e-05	0	8e-05	0	0.00013	6
31364	-1e-05	-1e-05	0	3e-05	0	8e-05	0	0.00013	6
31365	-1e-05	-1e-05	0	3e-05	0	8e-05	0	0.00013	6
31366	-1e-05	-1e-05	0	3e-05	0	8e-05	0	0.00013	6
31367	-1e-05	-1e-05	0	3e-05	0	8e-05	0	0.00013	6
31368	-1e-05	-1e-05	0	3e-05	0	8e-05	0	0.00013	6
31369	-1e-05	-1e-05	0	3e-05	0	8e-05	0	0.00013	6
31370	-1e-05	-1e-05	0	3e-05	0	8e-05	0	0.00013	6
31371	-1e-05	-1e-05	0	3e-05	0	8e-05	0	0.00013	6
31372	-1e-05	-1e-05	0	3e-05	0	8e-05	0	0.00013	6
31373	-1e-05	-1e-05	0	3e-05	0	8e-05	0	0.00013	6
31374	-0.00022	-4e-05	-4e-05	-1e-05	8e-05	9e-05	-0.00015	-0.00018	6
31375	-0.00022	-4e-05	-4e-05	-1e-05	8e-05	9e-05	-0.00015	-0.00018	6
31376	-0.00022	-4e-05	-4e-05	-1e-05	8e-05	9e-05	-0.00015	-0.00018	6
31377	-0.00022	-4e-05	-4e-05	-1e-05	8e-05	9e-05	-0.00015	-0.00018	6
31378	-0.00022	-4e-05	-4e-05	-1e-05	8e-05	9e-05	-0.00015	-0.00018	6
31379	-0.00022	-4e-05	-4e-05	-1e-05	8e-05	9e-05	-0.00015	-0.00018	6
31380	-0.00022	-4e-05	-4e-05	-1e-05	8e-05	9e-05	-0.00015	-0.00018	6
31381	-2e-05	2e-05	4e-05	8e-05	0.0001	0.00023	0.00011	-8e-05	6
31382	-2e-05	2e-05	4e-05	8e-05	0.0001	0.00023	0.00011	-8e-05	6
31384	-2e-05	2e-05	4e-05	8e-05	0.0001	0.00023	0.00011	-8e-05	6
31385	-2e-05	2e-05	4e-05	8e-05	0.0001	0.00023	0.00011	-8e-05	6
31386	-2e-05	2e-05	4e-05	8e-05	0.0001	0.00023	0.00011	-8e-05	6
31388	-2e-05	2e-05	4e-05	8e-05	0.0001	0.00023	0.00011	-8e-05	6
31389	-2e-05	2e-05	4e-05	8e-05	0.0001	0.00023	0.00011	-8e-05	6
31390	-2e-05	2e-05	4e-05	8e-05	0.0001	0.00023	0.00011	-8e-05	6
31391	-2e-05	2e-05	4e-05	8e-05	0.0001	0.00023	0.00011	-8e-05	6
31392	-2e-05	2e-05	4e-05	8e-05	0.0001	0.00023	0.00011	-8e-05	6
31393	-2e-05	2e-05	4e-05	8e-05	0.0001	0.00023	0.00011	-8e-05	6
31394	-2e-05	2e-05	4e-05	8e-05	0.0001	0.00023	0.00011	-8e-05	6
31395	-2e-05	2e-05	4e-05	8e-05	0.0001	0.00023	0.00011	-8e-05	6
31396	-2e-05	2e-05	4e-05	8e-05	0.0001	0.00023	0.00011	-8e-05	6
31397	0.0001	-1e-05	-2e-05	-0.0001	-0.0002	0.0006	2e-05	0.00011	6
31398	0.0001	-1e-05	-2e-05	-0.0001	-0.0002	0.0006	2e-05	0.00011	6
31399	-4e-05	-7e-05	-7e-05	-0.0001	-0.00029	-0.00021	-0.00016	-0.00018	6
31400	-4e-05	-7e-05	-7e-05	-0.0001	-0.00029	-0.00021	-0.00016	-0.00018	6
31401	-4e-05	-7e-05	-7e-05	-0.0001	-0.00029	-0.00021	-0.00016	-0.00018	6
31402	-4e-05	-7e-05	-7e-05	-0.0001	-0.00029	-0.00021	-0.00016	-0.00018	6
31403	-4e-05	-7e-05	-7e-05	-0.0001	-0.00029	-0.00021	-0.00016	-0.00018	6
31404	-4e-05	-7e-05	-7e-05	-0.0001	-0.00029	-0.00021	-0.00016	-0.00018	6
31405	-4e-05	-7e-05	-7e-05	-0.0001	-0.00029	-0.00021	-0.00016	-0.00018	6
31406	-4e-05	-7e-05	-7e-05	-0.0001	-0.00029	-0.00021	-0.00016	-0.00018	6
31407	-4e-05	-7e-05	-7e-05	-0.0001	-0.00029	-0.00021	-0.00016	-0.00018	6
31408	-4e-05	-7e-05	-7e-05	-0.0001	-0.00029	-0.00021	-0.00016	-0.00018	6
31409	-4e-05	-7e-05	-7e-05	-0.0001	-0.00029	-0.00021	-0.00016	-0.00018	6
31410	-4e-05	-7e-05	-7e-05	-0.0001	-0.00029	-0.00021	-0.00016	-0.00018	6
31411	-4e-05	-7e-05	-7e-05	-0.0001	-0.00029	-0.00021	-0.00016	-0.00018	6
31412	-4e-05	-7e-05	-7e-05	-0.0001	-0.00029	-0.00021	-0.00016	-0.00018	6
31413	-4e-05	-7e-05	-7e-05	-0.0001	-0.00029	-0.00021	-0.00016	-0.00018	6
31414	-4e-05	-7e-05	-7e-05	-0.0001	-0.00029	-0.00021	-0.00016	-0.00018	6
31415	-4e-05	-7e-05	-7e-05	-0.0001	-0.00029	-0.00021	-0.00016	-0.00018	6
31416	-4e-05	-7e-05	-7e-05	-0.0001	-0.00029	-0.00021	-0.00016	-0.00018	6
31417	-4e-05	-7e-05	-7e-05	-0.0001	-0.00029	-0.00021	-0.00016	-0.00018	6
31418	-4e-05	-7e-05	-7e-05	-0.0001	-0.00029	-0.00021	-0.00016	-0.00018	6
31419	-4e-05	-7e-05	-7e-05	-0.0001	-0.00029	-0.00021	-0.00016	-0.00018	6
31420	3e-05	1e-05	0	-2e-05	-0.00019	9e-05	-1e-05	0.0001	6
31421	0	3e-05	3e-05	2e-05	-9e-05	-0.00027	0.00011	2e-05	6
31422	0	3e-05	3e-05	2e-05	-9e-05	-0.00027	0.00011	2e-05	6
31423	0	3e-05	3e-05	2e-05	-9e-05	-0.00027	0.00011	2e-05	6
31424	0	3e-05	3e-05	2e-05	-9e-05	-0.00027	0.00011	2e-05	6
31425	0	3e-05	3e-05	2e-05	-9e-05	-0.00027	0.00011	2e-05	6
31426	0	3e-05	3e-05	2e-05	-9e-05	-0.00027	0.00011	2e-05	6
31427	0	3e-05	3e-05	2e-05	-9e-05	-0.00027	0.00011	2e-05	6
31428	0	3e-05	3e-05	2e-05	-9e-05	-0.00027	0.00011	2e-05	6
31429	0	3e-05	3e-05	2e-05	-9e-05	-0.00027	0.00011	2e-05	6
31430	0	3e-05	3e-05	2e-05	-9e-05	-0.00027	0.00011	2e-05	6
31431	0	3e-05	3e-05	2e-05	-9e-05	-0.00027	0.00011	2e-05	6
31432	0	3e-05	3e-05	2e-05	-9e-05	-0.00027	0.00011	2e-05	6
31433	0	3e-05	3e-05	2e-05	-9e-05	-0.00027	0.00011	2e-05	6
31434	8e-05	-1e-05	-3e-05	-5e-05	-7e-05	-0.00016	-1e-05	0.00012	6
31435	-0.00016	-6e-05	-5e-05	-3e-05	-0.0001	0.00014	-0.00021	-0.00037	6
31436	-0.00016	-6e-05	-5e-05	-3e-05	-0.0001	0.00014	-0.00021	-0.00037	6
31438	-0.00016	-6e-05	-5e-05	-3e-05	-0.0001	0.00014	-0.00021	-0.00037	6
31439	-0.00016	-6e-05	-5e-05	-3e-05	-0.0001	0.00014	-0.00021	-0.00037	6
31440	-0.00016	-6e-05	-5e-05	-3e-05	-0.0001	0.00014	-0.00021	-0.00037	6
31441	0.0001	1e-05	0	-3e-05	0.0001	0.00027	0.0001	1e-05	6
31442	0.0001	1e-05	0	-3e-05	0.0001	0.00027	0.0001	1e-05	6
31443	0.0001	1e-05	0	-3e-05	0.0001	0.00027	0.0001	1e-05	6
31444	0.0001	1e-05	0	-3e-05	0.0001	0.00027	0.0001	1e-05	6
31445	0.0001	1e-05	0	-3e-05	0.0001	0.00027	0.0001	1e-05	6
31446	0.0001	1e-05	0	-3e-05	0.0001	0.00027	0.0001	1e-05	6
31447	0.0001	1e-05	0	-3e-05	0.0001	0.00027	0.0001	1e-05	6
31448	0.0001	1e-05	0	-3e-05	0.0001	0.00027	0.0001	1e-05	6
31449	0.0001	1e-05	0	-3e-05	0.0001	0.00027	0.0001	1e-05	6
31450	0.0001	1e-05	0	-3e-05	0.0001	0.00027	0.0001	1e-05	6
31451	0.0001	1e-05	0	-3e-05	0.0001	0.00027	0.0001	1e-05	6
31452	0.0001	1e-05	0	-3e-05	0.0001	0.00027	0.0001	1e-05	6
31453	0.0001	1e-05	0	-3e-05	0.0001	0.00027	0.0001	1e-05	6
31454	0.0001	1e-05	0	-3e-05	0.0001	0.00027	0.0001	1e-05	6
31455	0.0001	1e-05	0	-3e-05	0.0001	0.00027	0.0001	1e-05	6
31456	0.0001	1e-05	0	-3e-05	0.0001	0.00027	0.0001	1e-05	6
31457	4e-05	1e-05	0	1e-05	-3e-05	0.00018	6e-05	0.00011	6
31458	4e-05	1e-05	0	1e-05	-3e-05	0.00018	6e-05	0.00011	6
31459	-7e-05	-1e-05	-1e-05	1e-05	0.0002	-8e-05	-7e-05	-6e-05	6
31460	-7e-05	-1e-05	-1e-05	1e-05	0.0002	-8e-05	-7e-05	-6e-05	6
31461	-7e-05	-1e-05	-1e-05	1e-05	0.0002	-8e-05	-7e-05	-6e-05	6
31462	-7e-05	-1e-05	-1e-05	1e-05	0.0002	-8e-05	-7e-05	-6e-05	6
31463	-7e-05	-1e-05	-1e-05	1e-05	0.0002	-8e-05	-7e-05	-6e-05	6
31464	-7e-05	-1e-05	-1e-05	1e-05	0.0002	-8e-05	-7e-05	-6e-05	6
31465	-7e-05	-1e-05	-1e-05	1e-05	0.0002	-8e-05	-7e-05	-6e-05	6
31466	-7e-05	-1e-05	-1e-05	1e-05	0.0002	-8e-05	-7e-05	-6e-05	6
31467	-7e-05	-1e-05	-1e-05	1e-05	0.0002	-8e-05	-7e-05	-6e-05	6
31468	-7e-05	-1e-05	-1e-05	1e-05	0.0002	-8e-05	-7e-05	-6e-05	6
31469	-7e-05	-1e-05	-1e-05	1e-05	0.0002	-8e-05	-7e-05	-6e-05	6
31470	-7e-05	-1e-05	-1e-05	1e-05	0.0002	-8e-05	-7e-05	-6e-05	6
31471	-7e-05	-1e-05	-1e-05	1e-05	0.0002	-8e-05	-7e-05	-6e-05	6
31472	-7e-05	-1e-05	-1e-05	1e-05	0.0002	-8e-05	-7e-05	-6e-05	6
31473	-7e-05	-1e-05	-1e-05	1e-05	0.0002	-8e-05	-7e-05	-6e-05	6
31474	-7e-05	-1e-05	-1e-05	1e-05	0.0002	-8e-05	-7e-05	-6e-05	6
31475	-7e-05	-1e-05	-1e-05	1e-05	0.0002	-8e-05	-7e-05	-6e-05	6
31476	-7e-05	-1e-05	-1e-05	1e-05	0.0002	-8e-05	-7e-05	-6e-05	6
31477	-7e-05	-1e-05	-1e-05	1e-05	0.0002	-8e-05	-7e-05	-6e-05	6
31478	-7e-05	-1e-05	-1e-05	1e-05	0.0002	-8e-05	-7e-05	-6e-05	6
31479	-7e-05	-1e-05	-1e-05	1e-05	0.0002	-8e-05	-7e-05	-6e-05	6
31480	0.00013	-2e-05	1e-05	0.0001	0.0003	0	1e-05	0.00018	6
31481	-5e-05	-2e-05	-4e-05	-6e-05	-6e-05	0.0002	3e-05	-0.00015	6
31483	-5e-05	-2e-05	-4e-05	-6e-05	-6e-05	0.0002	3e-05	-0.00015	6
31484	-5e-05	-2e-05	-4e-05	-6e-05	-6e-05	0.0002	3e-05	-0.00015	6
31485	-5e-05	-2e-05	-4e-05	-6e-05	-6e-05	0.0002	3e-05	-0.00015	6
31486	-5e-05	-2e-05	-4e-05	-6e-05	-6e-05	0.0002	3e-05	-0.00015	6
31488	-5e-05	-2e-05	-4e-05	-6e-05	-6e-05	0.0002	3e-05	-0.00015	6
31489	-5e-05	-2e-05	-4e-05	-6e-05	-6e-05	0.0002	3e-05	-0.00015	6
31490	-5e-05	-2e-05	-4e-05	-6e-05	-6e-05	0.0002	3e-05	-0.00015	6
31491	-5e-05	-2e-05	-4e-05	-6e-05	-6e-05	0.0002	3e-05	-0.00015	6
31492	-5e-05	-2e-05	-4e-05	-6e-05	-6e-05	0.0002	3e-05	-0.00015	6
31493	-5e-05	-2e-05	-4e-05	-6e-05	-6e-05	0.0002	3e-05	-0.00015	6
31494	-9e-05	-1e-05	-1e-05	0	0.00037	-0.00044	-2e-05	-0.00018	6
31495	-9e-05	-1e-05	-1e-05	0	0.00037	-0.00044	-2e-05	-0.00018	6
31496	-9e-05	-1e-05	-1e-05	0	0.00037	-0.00044	-2e-05	-0.00018	6
31497	-9e-05	-1e-05	-1e-05	0	0.00037	-0.00044	-2e-05	-0.00018	6
31498	-9e-05	-1e-05	-1e-05	0	0.00037	-0.00044	-2e-05	-0.00018	6
31499	-9e-05	-1e-05	-1e-05	0	0.00037	-0.00044	-2e-05	-0.00018	6
31500	-9e-05	-1e-05	-1e-05	0	0.00037	-0.00044	-2e-05	-0.00018	6
31501	-9e-05	-1e-05	-1e-05	0	0.00037	-0.00044	-2e-05	-0.00018	6
31502	2e-05	0	-1e-05	-1e-05	-0.0001	0.0001	8e-05	0.00012	6
31503	2e-05	0	-1e-05	-1e-05	-0.0001	0.0001	8e-05	0.00012	6
31504	2e-05	0	-1e-05	-1e-05	-0.0001	0.0001	8e-05	0.00012	6
31505	2e-05	0	-1e-05	-1e-05	-0.0001	0.0001	8e-05	0.00012	6
31506	2e-05	0	-1e-05	-1e-05	-0.0001	0.0001	8e-05	0.00012	6
31507	2e-05	0	-1e-05	-1e-05	-0.0001	0.0001	8e-05	0.00012	6
31508	2e-05	0	-1e-05	-1e-05	-0.0001	0.0001	8e-05	0.00012	6
31509	2e-05	0	-1e-05	-1e-05	-0.0001	0.0001	8e-05	0.00012	6
31510	2e-05	0	-1e-05	-1e-05	-0.0001	0.0001	8e-05	0.00012	6
31511	2e-05	0	-1e-05	-1e-05	-0.0001	0.0001	8e-05	0.00012	6
31512	2e-05	0	-1e-05	-1e-05	-0.0001	0.0001	8e-05	0.00012	6
31513	2e-05	0	-1e-05	-1e-05	-0.0001	0.0001	8e-05	0.00012	6
31514	2e-05	0	-1e-05	-1e-05	-0.0001	0.0001	8e-05	0.00012	6
31515	2e-05	0	-1e-05	-1e-05	-0.0001	0.0001	8e-05	0.00012	6
31516	2e-05	0	-1e-05	-1e-05	-0.0001	0.0001	8e-05	0.00012	6
31517	-0.00016	-4e-05	-1e-05	1e-05	-0.00013	-4e-05	-6e-05	-0.00012	6
31518	-0.00016	-4e-05	-1e-05	1e-05	-0.00013	-4e-05	-6e-05	-0.00012	6
31519	-0.00026	-5e-05	-5e-05	-7e-05	-5e-05	0	-8e-05	-5e-05	6
31520	-0.00026	-5e-05	-5e-05	-7e-05	-5e-05	0	-8e-05	-5e-05	6
31521	-0.00026	-5e-05	-5e-05	-7e-05	-5e-05	0	-8e-05	-5e-05	6
31522	-0.00026	-5e-05	-5e-05	-7e-05	-5e-05	0	-8e-05	-5e-05	6
31523	-0.00026	-5e-05	-5e-05	-7e-05	-5e-05	0	-8e-05	-5e-05	6
31524	-0.00026	-5e-05	-5e-05	-7e-05	-5e-05	0	-8e-05	-5e-05	6
31525	-0.00026	-5e-05	-5e-05	-7e-05	-5e-05	0	-8e-05	-5e-05	6
31526	-0.00026	-5e-05	-5e-05	-7e-05	-5e-05	0	-8e-05	-5e-05	6
31527	-0.00026	-5e-05	-5e-05	-7e-05	-5e-05	0	-8e-05	-5e-05	6
31528	-0.00026	-5e-05	-5e-05	-7e-05	-5e-05	0	-8e-05	-5e-05	6
31529	-0.00026	-5e-05	-5e-05	-7e-05	-5e-05	0	-8e-05	-5e-05	6
31530	-0.00026	-5e-05	-5e-05	-7e-05	-5e-05	0	-8e-05	-5e-05	6
31531	-0.00026	-5e-05	-5e-05	-7e-05	-5e-05	0	-8e-05	-5e-05	6
31532	-0.00026	-5e-05	-5e-05	-7e-05	-5e-05	0	-8e-05	-5e-05	6
31533	-0.00026	-5e-05	-5e-05	-7e-05	-5e-05	0	-8e-05	-5e-05	6
31534	-0.00026	-5e-05	-5e-05	-7e-05	-5e-05	0	-8e-05	-5e-05	6
31535	-0.00026	-5e-05	-5e-05	-7e-05	-5e-05	0	-8e-05	-5e-05	6
31536	-0.00026	-5e-05	-5e-05	-7e-05	-5e-05	0	-8e-05	-5e-05	6
31538	-0.00026	-5e-05	-5e-05	-7e-05	-5e-05	0	-8e-05	-5e-05	6
31539	-0.00026	-5e-05	-5e-05	-7e-05	-5e-05	0	-8e-05	-5e-05	6
31540	1e-05	-2e-05	-2e-05	-1e-05	-2e-05	-0.00015	-7e-05	0	6
31541	-0.00017	-5e-05	-5e-05	-7e-05	-0.00013	-0.00017	-0.00016	-0.00029	6
31543	-0.00017	-5e-05	-5e-05	-7e-05	-0.00013	-0.00017	-0.00016	-0.00029	6
31544	-0.00017	-5e-05	-5e-05	-7e-05	-0.00013	-0.00017	-0.00016	-0.00029	6
31545	-0.00017	-5e-05	-5e-05	-7e-05	-0.00013	-0.00017	-0.00016	-0.00029	6
31546	-0.00017	-5e-05	-5e-05	-7e-05	-0.00013	-0.00017	-0.00016	-0.00029	6
31547	-0.00017	-5e-05	-5e-05	-7e-05	-0.00013	-0.00017	-0.00016	-0.00029	6
31548	-0.00017	-5e-05	-5e-05	-7e-05	-0.00013	-0.00017	-0.00016	-0.00029	6
31549	-0.00017	-5e-05	-5e-05	-7e-05	-0.00013	-0.00017	-0.00016	-0.00029	6
31550	-0.00017	-5e-05	-5e-05	-7e-05	-0.00013	-0.00017	-0.00016	-0.00029	6
31551	-0.00017	-5e-05	-5e-05	-7e-05	-0.00013	-0.00017	-0.00016	-0.00029	6
31552	-0.00017	-5e-05	-5e-05	-7e-05	-0.00013	-0.00017	-0.00016	-0.00029	6
31553	-0.00017	-5e-05	-5e-05	-7e-05	-0.00013	-0.00017	-0.00016	-0.00029	6
31554	0	-2e-05	-3e-05	-5e-05	-0.00023	0.0003	0.00016	0.00014	6
31555	0	-2e-05	-3e-05	-5e-05	-0.00023	0.0003	0.00016	0.00014	6
31556	0	-2e-05	-3e-05	-5e-05	-0.00023	0.0003	0.00016	0.00014	6
31557	0	-2e-05	-3e-05	-5e-05	-0.00023	0.0003	0.00016	0.00014	6
31558	0	-2e-05	-3e-05	-5e-05	-0.00023	0.0003	0.00016	0.00014	6
31559	0	-2e-05	-3e-05	-5e-05	-0.00023	0.0003	0.00016	0.00014	6
31560	0	-2e-05	-3e-05	-5e-05	-0.00023	0.0003	0.00016	0.00014	6
31561	8e-05	0	-1e-05	-1e-05	-0.0001	1e-05	4e-05	7e-05	6
31562	8e-05	0	-1e-05	-1e-05	-0.0001	1e-05	4e-05	7e-05	6
31563	8e-05	0	-1e-05	-1e-05	-0.0001	1e-05	4e-05	7e-05	6
31564	8e-05	0	-1e-05	-1e-05	-0.0001	1e-05	4e-05	7e-05	6
31565	8e-05	0	-1e-05	-1e-05	-0.0001	1e-05	4e-05	7e-05	6
31566	8e-05	0	-1e-05	-1e-05	-0.0001	1e-05	4e-05	7e-05	6
31567	8e-05	0	-1e-05	-1e-05	-0.0001	1e-05	4e-05	7e-05	6
31568	8e-05	0	-1e-05	-1e-05	-0.0001	1e-05	4e-05	7e-05	6
31569	8e-05	0	-1e-05	-1e-05	-0.0001	1e-05	4e-05	7e-05	6
31570	8e-05	0	-1e-05	-1e-05	-0.0001	1e-05	4e-05	7e-05	6
31571	8e-05	0	-1e-05	-1e-05	-0.0001	1e-05	4e-05	7e-05	6
31572	8e-05	0	-1e-05	-1e-05	-0.0001	1e-05	4e-05	7e-05	6
31573	8e-05	0	-1e-05	-1e-05	-0.0001	1e-05	4e-05	7e-05	6
31574	8e-05	0	-1e-05	-1e-05	-0.0001	1e-05	4e-05	7e-05	6
31575	8e-05	0	-1e-05	-1e-05	-0.0001	1e-05	4e-05	7e-05	6
31576	8e-05	0	-1e-05	-1e-05	-0.0001	1e-05	4e-05	7e-05	6
31577	5e-05	-2e-05	-3e-05	-4e-05	6e-05	0.00015	-2e-05	-4e-05	6
31578	5e-05	-2e-05	-3e-05	-4e-05	6e-05	0.00015	-2e-05	-4e-05	6
31579	7e-05	-1e-05	1e-05	0.00011	0.00039	0.00043	0.0001	6e-05	6
31580	7e-05	-1e-05	1e-05	0.00011	0.00039	0.00043	0.0001	6e-05	6
31581	7e-05	-1e-05	1e-05	0.00011	0.00039	0.00043	0.0001	6e-05	6
31582	7e-05	-1e-05	1e-05	0.00011	0.00039	0.00043	0.0001	6e-05	6
31583	7e-05	-1e-05	1e-05	0.00011	0.00039	0.00043	0.0001	6e-05	6
31584	7e-05	-1e-05	1e-05	0.00011	0.00039	0.00043	0.0001	6e-05	6
31585	7e-05	-1e-05	1e-05	0.00011	0.00039	0.00043	0.0001	6e-05	6
31586	7e-05	-1e-05	1e-05	0.00011	0.00039	0.00043	0.0001	6e-05	6
31588	7e-05	-1e-05	1e-05	0.00011	0.00039	0.00043	0.0001	6e-05	6
31589	7e-05	-1e-05	1e-05	0.00011	0.00039	0.00043	0.0001	6e-05	6
31590	7e-05	-1e-05	1e-05	0.00011	0.00039	0.00043	0.0001	6e-05	6
31591	7e-05	-1e-05	1e-05	0.00011	0.00039	0.00043	0.0001	6e-05	6
31592	7e-05	-1e-05	1e-05	0.00011	0.00039	0.00043	0.0001	6e-05	6
31593	7e-05	-1e-05	1e-05	0.00011	0.00039	0.00043	0.0001	6e-05	6
31594	7e-05	-1e-05	1e-05	0.00011	0.00039	0.00043	0.0001	6e-05	6
31595	7e-05	-1e-05	1e-05	0.00011	0.00039	0.00043	0.0001	6e-05	6
31596	7e-05	-1e-05	1e-05	0.00011	0.00039	0.00043	0.0001	6e-05	6
31597	7e-05	-1e-05	1e-05	0.00011	0.00039	0.00043	0.0001	6e-05	6
31598	7e-05	-1e-05	1e-05	0.00011	0.00039	0.00043	0.0001	6e-05	6
31599	7e-05	-1e-05	1e-05	0.00011	0.00039	0.00043	0.0001	6e-05	6
31600	-0.0001	-3e-05	3e-05	4e-05	0.00024	8e-05	-5e-05	-0.00024	6
31601	-0.0001	-3e-05	3e-05	4e-05	0.00024	8e-05	-5e-05	-0.00024	6
31602	0.00041	-1e-05	-2e-05	2e-05	0.00012	-0.00047	-8e-05	0.00044	6
31603	0.00041	-1e-05	-2e-05	2e-05	0.00012	-0.00047	-8e-05	0.00044	6
31604	0.00041	-1e-05	-2e-05	2e-05	0.00012	-0.00047	-8e-05	0.00044	6
31605	0.00041	-1e-05	-2e-05	2e-05	0.00012	-0.00047	-8e-05	0.00044	6
31606	0.00041	-1e-05	-2e-05	2e-05	0.00012	-0.00047	-8e-05	0.00044	6
31607	0.00041	-1e-05	-2e-05	2e-05	0.00012	-0.00047	-8e-05	0.00044	6
31608	0.00041	-1e-05	-2e-05	2e-05	0.00012	-0.00047	-8e-05	0.00044	6
31609	0.00041	-1e-05	-2e-05	2e-05	0.00012	-0.00047	-8e-05	0.00044	6
31610	0.00041	-1e-05	-2e-05	2e-05	0.00012	-0.00047	-8e-05	0.00044	6
31611	0.00041	-1e-05	-2e-05	2e-05	0.00012	-0.00047	-8e-05	0.00044	6
31612	0.00041	-1e-05	-2e-05	2e-05	0.00012	-0.00047	-8e-05	0.00044	6
31613	4e-05	2e-05	2e-05	4e-05	0.00017	0.00017	9e-05	0.00014	6
31614	4e-05	2e-05	2e-05	4e-05	0.00017	0.00017	9e-05	0.00014	6
31615	4e-05	2e-05	2e-05	4e-05	0.00017	0.00017	9e-05	0.00014	6
31616	4e-05	2e-05	2e-05	4e-05	0.00017	0.00017	9e-05	0.00014	6
31617	4e-05	2e-05	2e-05	4e-05	0.00017	0.00017	9e-05	0.00014	6
31618	4e-05	2e-05	2e-05	4e-05	0.00017	0.00017	9e-05	0.00014	6
31619	4e-05	2e-05	2e-05	4e-05	0.00017	0.00017	9e-05	0.00014	6
31620	4e-05	2e-05	2e-05	4e-05	0.00017	0.00017	9e-05	0.00014	6
31621	4e-05	2e-05	2e-05	4e-05	0.00017	0.00017	9e-05	0.00014	6
31622	-8e-05	-1e-05	-3e-05	-4e-05	-9e-05	-6e-05	8e-05	-9e-05	6
31623	-8e-05	-1e-05	-3e-05	-4e-05	-9e-05	-6e-05	8e-05	-9e-05	6
31624	-8e-05	-1e-05	-3e-05	-4e-05	-9e-05	-6e-05	8e-05	-9e-05	6
31625	-8e-05	-1e-05	-3e-05	-4e-05	-9e-05	-6e-05	8e-05	-9e-05	6
31626	-8e-05	-1e-05	-3e-05	-4e-05	-9e-05	-6e-05	8e-05	-9e-05	6
31627	-8e-05	-1e-05	-3e-05	-4e-05	-9e-05	-6e-05	8e-05	-9e-05	6
31628	-8e-05	-1e-05	-3e-05	-4e-05	-9e-05	-6e-05	8e-05	-9e-05	6
31629	-8e-05	-1e-05	-3e-05	-4e-05	-9e-05	-6e-05	8e-05	-9e-05	6
31630	-8e-05	-1e-05	-3e-05	-4e-05	-9e-05	-6e-05	8e-05	-9e-05	6
31631	-8e-05	-1e-05	-3e-05	-4e-05	-9e-05	-6e-05	8e-05	-9e-05	6
31632	-8e-05	-1e-05	-3e-05	-4e-05	-9e-05	-6e-05	8e-05	-9e-05	6
31633	-8e-05	-1e-05	-3e-05	-4e-05	-9e-05	-6e-05	8e-05	-9e-05	6
31634	-8e-05	-1e-05	-3e-05	-4e-05	-9e-05	-6e-05	8e-05	-9e-05	6
31635	-8e-05	-1e-05	-3e-05	-4e-05	-9e-05	-6e-05	8e-05	-9e-05	6
31636	-8e-05	-1e-05	-3e-05	-4e-05	-9e-05	-6e-05	8e-05	-9e-05	6
31638	-0.00014	-1e-05	-2e-05	-5e-05	-0.00022	-0.00035	-0.00015	-8e-05	6
31639	-0.00014	-1e-05	-2e-05	-5e-05	-0.00022	-0.00035	-0.00015	-8e-05	6
31640	-0.00014	-1e-05	-2e-05	-5e-05	-0.00022	-0.00035	-0.00015	-8e-05	6
31641	-0.00014	-1e-05	-2e-05	-5e-05	-0.00022	-0.00035	-0.00015	-8e-05	6
31642	-0.00014	-1e-05	-2e-05	-5e-05	-0.00022	-0.00035	-0.00015	-8e-05	6
31643	-8e-05	3e-05	6e-05	7e-05	0.00013	6e-05	-4e-05	-8e-05	6
31644	-8e-05	3e-05	6e-05	7e-05	0.00013	6e-05	-4e-05	-8e-05	6
31645	-8e-05	3e-05	6e-05	7e-05	0.00013	6e-05	-4e-05	-8e-05	6
31646	-8e-05	3e-05	6e-05	7e-05	0.00013	6e-05	-4e-05	-8e-05	6
31647	-8e-05	3e-05	6e-05	7e-05	0.00013	6e-05	-4e-05	-8e-05	6
31648	-8e-05	3e-05	6e-05	7e-05	0.00013	6e-05	-4e-05	-8e-05	6
31649	-8e-05	3e-05	6e-05	7e-05	0.00013	6e-05	-4e-05	-8e-05	6
31650	-8e-05	3e-05	6e-05	7e-05	0.00013	6e-05	-4e-05	-8e-05	6
31651	-8e-05	3e-05	6e-05	7e-05	0.00013	6e-05	-4e-05	-8e-05	6
31652	-8e-05	3e-05	6e-05	7e-05	0.00013	6e-05	-4e-05	-8e-05	6
31653	-8e-05	3e-05	6e-05	7e-05	0.00013	6e-05	-4e-05	-8e-05	6
31654	-8e-05	3e-05	6e-05	7e-05	0.00013	6e-05	-4e-05	-8e-05	6
31655	-8e-05	3e-05	6e-05	7e-05	0.00013	6e-05	-4e-05	-8e-05	6
31656	-8e-05	3e-05	6e-05	7e-05	0.00013	6e-05	-4e-05	-8e-05	6
31657	-8e-05	3e-05	6e-05	7e-05	0.00013	6e-05	-4e-05	-8e-05	6
31658	-8e-05	3e-05	6e-05	7e-05	0.00013	6e-05	-4e-05	-8e-05	6
31659	-8e-05	3e-05	6e-05	7e-05	0.00013	6e-05	-4e-05	-8e-05	6
31660	-7e-05	0	0	-6e-05	5e-05	0.00065	3e-05	-5e-05	6
31661	-7e-05	0	-2e-05	-4e-05	-0.00015	-5e-05	-3e-05	-0.00017	6
31663	-7e-05	0	-2e-05	-4e-05	-0.00015	-5e-05	-3e-05	-0.00017	6
31664	-7e-05	0	-2e-05	-4e-05	-0.00015	-5e-05	-3e-05	-0.00017	6
31665	-7e-05	0	-2e-05	-4e-05	-0.00015	-5e-05	-3e-05	-0.00017	6
31666	-7e-05	0	-2e-05	-4e-05	-0.00015	-5e-05	-3e-05	-0.00017	6
31667	-7e-05	0	-2e-05	-4e-05	-0.00015	-5e-05	-3e-05	-0.00017	6
31668	-7e-05	0	-2e-05	-4e-05	-0.00015	-5e-05	-3e-05	-0.00017	6
31669	-7e-05	0	-2e-05	-4e-05	-0.00015	-5e-05	-3e-05	-0.00017	6
31670	-7e-05	0	-2e-05	-4e-05	-0.00015	-5e-05	-3e-05	-0.00017	6
31671	-7e-05	0	-2e-05	-4e-05	-0.00015	-5e-05	-3e-05	-0.00017	6
31672	-7e-05	0	-2e-05	-4e-05	-0.00015	-5e-05	-3e-05	-0.00017	6
31673	-7e-05	0	-2e-05	-4e-05	-0.00015	-5e-05	-3e-05	-0.00017	6
31674	-3e-05	-2e-05	-3e-05	-1e-05	0.00031	6e-05	-3e-05	-0.00013	6
31675	-3e-05	-2e-05	-3e-05	-1e-05	0.00031	6e-05	-3e-05	-0.00013	6
31676	-3e-05	-2e-05	-3e-05	-1e-05	0.00031	6e-05	-3e-05	-0.00013	6
31677	-3e-05	-2e-05	-3e-05	-1e-05	0.00031	6e-05	-3e-05	-0.00013	6
31678	-3e-05	-2e-05	-3e-05	-1e-05	0.00031	6e-05	-3e-05	-0.00013	6
31679	-3e-05	-2e-05	-3e-05	-1e-05	0.00031	6e-05	-3e-05	-0.00013	6
31680	-3e-05	-2e-05	-3e-05	-1e-05	0.00031	6e-05	-3e-05	-0.00013	6
31681	-3e-05	-2e-05	-3e-05	-1e-05	0.00031	6e-05	-3e-05	-0.00013	6
31682	4e-05	0	0	3e-05	-9e-05	0.00019	9e-05	7e-05	6
31683	4e-05	0	0	3e-05	-9e-05	0.00019	9e-05	7e-05	6
31684	4e-05	0	0	3e-05	-9e-05	0.00019	9e-05	7e-05	6
31685	4e-05	0	0	3e-05	-9e-05	0.00019	9e-05	7e-05	6
31686	4e-05	0	0	3e-05	-9e-05	0.00019	9e-05	7e-05	6
31688	4e-05	0	0	3e-05	-9e-05	0.00019	9e-05	7e-05	6
31689	4e-05	0	0	3e-05	-9e-05	0.00019	9e-05	7e-05	6
31690	4e-05	0	0	3e-05	-9e-05	0.00019	9e-05	7e-05	6
31691	4e-05	0	0	3e-05	-9e-05	0.00019	9e-05	7e-05	6
31692	4e-05	0	0	3e-05	-9e-05	0.00019	9e-05	7e-05	6
31693	4e-05	0	0	3e-05	-9e-05	0.00019	9e-05	7e-05	6
31694	4e-05	0	0	3e-05	-9e-05	0.00019	9e-05	7e-05	6
31695	4e-05	0	0	3e-05	-9e-05	0.00019	9e-05	7e-05	6
31696	4e-05	0	0	3e-05	-9e-05	0.00019	9e-05	7e-05	6
31697	-1e-05	-8e-05	-8e-05	-8e-05	-0.00025	-0.00016	-8e-05	0	6
31698	-1e-05	-8e-05	-8e-05	-8e-05	-0.00025	-0.00016	-8e-05	0	6
31699	-0.00017	-3e-05	0	-2e-05	4e-05	0.0001	-3e-05	-0.00025	6
31700	-0.00017	-3e-05	0	-2e-05	4e-05	0.0001	-3e-05	-0.00025	6
31701	-0.00017	-3e-05	0	-2e-05	4e-05	0.0001	-3e-05	-0.00025	6
31702	-0.00017	-3e-05	0	-2e-05	4e-05	0.0001	-3e-05	-0.00025	6
31703	-0.00017	-3e-05	0	-2e-05	4e-05	0.0001	-3e-05	-0.00025	6
31704	-0.00017	-3e-05	0	-2e-05	4e-05	0.0001	-3e-05	-0.00025	6
31705	-0.00017	-3e-05	0	-2e-05	4e-05	0.0001	-3e-05	-0.00025	6
31706	-0.00017	-3e-05	0	-2e-05	4e-05	0.0001	-3e-05	-0.00025	6
31707	-0.00017	-3e-05	0	-2e-05	4e-05	0.0001	-3e-05	-0.00025	6
31708	-0.00017	-3e-05	0	-2e-05	4e-05	0.0001	-3e-05	-0.00025	6
31709	-0.00017	-3e-05	0	-2e-05	4e-05	0.0001	-3e-05	-0.00025	6
31710	-0.00017	-3e-05	0	-2e-05	4e-05	0.0001	-3e-05	-0.00025	6
31711	-0.00017	-3e-05	0	-2e-05	4e-05	0.0001	-3e-05	-0.00025	6
31712	-0.00017	-3e-05	0	-2e-05	4e-05	0.0001	-3e-05	-0.00025	6
31713	-0.00017	-3e-05	0	-2e-05	4e-05	0.0001	-3e-05	-0.00025	6
31714	-0.00017	-3e-05	0	-2e-05	4e-05	0.0001	-3e-05	-0.00025	6
31715	-0.00017	-3e-05	0	-2e-05	4e-05	0.0001	-3e-05	-0.00025	6
31716	-0.00017	-3e-05	0	-2e-05	4e-05	0.0001	-3e-05	-0.00025	6
31717	-0.00017	-3e-05	0	-2e-05	4e-05	0.0001	-3e-05	-0.00025	6
31718	-0.00017	-3e-05	0	-2e-05	4e-05	0.0001	-3e-05	-0.00025	6
31719	-0.00017	-3e-05	0	-2e-05	4e-05	0.0001	-3e-05	-0.00025	6
31720	2e-05	1e-05	1e-05	-3e-05	-8e-05	-0.00042	0	-5e-05	6
31721	4e-05	-4e-05	-3e-05	-5e-05	9e-05	0.00094	0.00022	0.00026	6
31723	4e-05	-4e-05	-3e-05	-5e-05	9e-05	0.00094	0.00022	0.00026	6
31724	4e-05	-4e-05	-3e-05	-5e-05	9e-05	0.00094	0.00022	0.00026	6
31725	4e-05	-4e-05	-3e-05	-5e-05	9e-05	0.00094	0.00022	0.00026	6
31726	4e-05	-4e-05	-3e-05	-5e-05	9e-05	0.00094	0.00022	0.00026	6
31727	4e-05	-4e-05	-3e-05	-5e-05	9e-05	0.00094	0.00022	0.00026	6
31728	4e-05	-4e-05	-3e-05	-5e-05	9e-05	0.00094	0.00022	0.00026	6
31729	4e-05	-4e-05	-3e-05	-5e-05	9e-05	0.00094	0.00022	0.00026	6
31730	4e-05	-4e-05	-3e-05	-5e-05	9e-05	0.00094	0.00022	0.00026	6
31731	4e-05	-4e-05	-3e-05	-5e-05	9e-05	0.00094	0.00022	0.00026	6
31732	4e-05	-4e-05	-3e-05	-5e-05	9e-05	0.00094	0.00022	0.00026	6
31733	-0.00017	4e-05	2e-05	1e-05	-0.00017	-5e-05	-1e-05	-0.0001	6
31734	-0.00017	4e-05	2e-05	1e-05	-0.00017	-5e-05	-1e-05	-0.0001	6
31735	-0.00017	4e-05	2e-05	1e-05	-0.00017	-5e-05	-1e-05	-0.0001	6
31736	-0.00017	4e-05	2e-05	1e-05	-0.00017	-5e-05	-1e-05	-0.0001	6
31738	-0.00017	4e-05	2e-05	1e-05	-0.00017	-5e-05	-1e-05	-0.0001	6
31739	-0.00017	4e-05	2e-05	1e-05	-0.00017	-5e-05	-1e-05	-0.0001	6
31740	-0.00017	4e-05	2e-05	1e-05	-0.00017	-5e-05	-1e-05	-0.0001	6
31741	-0.00017	4e-05	2e-05	1e-05	-0.00017	-5e-05	-1e-05	-0.0001	6
31742	-0.00011	-2e-05	-4e-05	-9e-05	-0.00016	-0.00015	-0.00014	-0.00013	6
31743	-0.00011	-2e-05	-4e-05	-9e-05	-0.00016	-0.00015	-0.00014	-0.00013	6
31744	-0.00011	-2e-05	-4e-05	-9e-05	-0.00016	-0.00015	-0.00014	-0.00013	6
31745	-0.00011	-2e-05	-4e-05	-9e-05	-0.00016	-0.00015	-0.00014	-0.00013	6
31746	-0.00011	-2e-05	-4e-05	-9e-05	-0.00016	-0.00015	-0.00014	-0.00013	6
31747	-0.00011	-2e-05	-4e-05	-9e-05	-0.00016	-0.00015	-0.00014	-0.00013	6
31748	-0.00011	-2e-05	-4e-05	-9e-05	-0.00016	-0.00015	-0.00014	-0.00013	6
31749	-0.00011	-2e-05	-4e-05	-9e-05	-0.00016	-0.00015	-0.00014	-0.00013	6
31750	-0.00011	-2e-05	-4e-05	-9e-05	-0.00016	-0.00015	-0.00014	-0.00013	6
31751	-0.00011	-2e-05	-4e-05	-9e-05	-0.00016	-0.00015	-0.00014	-0.00013	6
31752	-0.00011	-2e-05	-4e-05	-9e-05	-0.00016	-0.00015	-0.00014	-0.00013	6
31753	-0.00011	-2e-05	-4e-05	-9e-05	-0.00016	-0.00015	-0.00014	-0.00013	6
31754	-0.00011	-2e-05	-4e-05	-9e-05	-0.00016	-0.00015	-0.00014	-0.00013	6
31755	-0.00011	-2e-05	-4e-05	-9e-05	-0.00016	-0.00015	-0.00014	-0.00013	6
31756	-0.00011	-2e-05	-4e-05	-9e-05	-0.00016	-0.00015	-0.00014	-0.00013	6
31757	-6e-05	-2e-05	0	-1e-05	8e-05	-0.00025	-8e-05	-7e-05	6
31758	-6e-05	-2e-05	0	-1e-05	8e-05	-0.00025	-8e-05	-7e-05	6
31759	5e-05	1e-05	3e-05	4e-05	0	-0.00027	-8e-05	0.00012	6
31760	5e-05	1e-05	3e-05	4e-05	0	-0.00027	-8e-05	0.00012	6
31761	5e-05	1e-05	3e-05	4e-05	0	-0.00027	-8e-05	0.00012	6
31762	5e-05	1e-05	3e-05	4e-05	0	-0.00027	-8e-05	0.00012	6
31763	5e-05	1e-05	3e-05	4e-05	0	-0.00027	-8e-05	0.00012	6
31764	5e-05	1e-05	3e-05	4e-05	0	-0.00027	-8e-05	0.00012	6
31765	5e-05	1e-05	3e-05	4e-05	0	-0.00027	-8e-05	0.00012	6
31766	5e-05	1e-05	3e-05	4e-05	0	-0.00027	-8e-05	0.00012	6
31767	5e-05	1e-05	3e-05	4e-05	0	-0.00027	-8e-05	0.00012	6
31768	5e-05	1e-05	3e-05	4e-05	0	-0.00027	-8e-05	0.00012	6
31769	5e-05	1e-05	3e-05	4e-05	0	-0.00027	-8e-05	0.00012	6
31770	5e-05	1e-05	3e-05	4e-05	0	-0.00027	-8e-05	0.00012	6
31771	5e-05	1e-05	3e-05	4e-05	0	-0.00027	-8e-05	0.00012	6
31772	5e-05	1e-05	3e-05	4e-05	0	-0.00027	-8e-05	0.00012	6
31773	5e-05	1e-05	3e-05	4e-05	0	-0.00027	-8e-05	0.00012	6
31774	5e-05	1e-05	3e-05	4e-05	0	-0.00027	-8e-05	0.00012	6
31775	5e-05	1e-05	3e-05	4e-05	0	-0.00027	-8e-05	0.00012	6
31776	5e-05	1e-05	3e-05	4e-05	0	-0.00027	-8e-05	0.00012	6
31777	5e-05	1e-05	3e-05	4e-05	0	-0.00027	-8e-05	0.00012	6
31778	5e-05	1e-05	3e-05	4e-05	0	-0.00027	-8e-05	0.00012	6
31779	5e-05	1e-05	3e-05	4e-05	0	-0.00027	-8e-05	0.00012	6
31780	0.00021	1e-05	0	-7e-05	-0.00011	0.00034	-0.00012	7e-05	6
31781	4e-05	-1e-05	-1e-05	-5e-05	-0.00018	-7e-05	-4e-05	2e-05	6
31782	4e-05	-1e-05	-1e-05	-5e-05	-0.00018	-7e-05	-4e-05	2e-05	6
31783	4e-05	-1e-05	-1e-05	-5e-05	-0.00018	-7e-05	-4e-05	2e-05	6
31784	4e-05	-1e-05	-1e-05	-5e-05	-0.00018	-7e-05	-4e-05	2e-05	6
31785	4e-05	-1e-05	-1e-05	-5e-05	-0.00018	-7e-05	-4e-05	2e-05	6
31786	4e-05	-1e-05	-1e-05	-5e-05	-0.00018	-7e-05	-4e-05	2e-05	6
31788	4e-05	-1e-05	-1e-05	-5e-05	-0.00018	-7e-05	-4e-05	2e-05	6
31789	4e-05	-1e-05	-1e-05	-5e-05	-0.00018	-7e-05	-4e-05	2e-05	6
31790	4e-05	-1e-05	-1e-05	-5e-05	-0.00018	-7e-05	-4e-05	2e-05	6
31791	4e-05	-1e-05	-1e-05	-5e-05	-0.00018	-7e-05	-4e-05	2e-05	6
31792	4e-05	-1e-05	-1e-05	-5e-05	-0.00018	-7e-05	-4e-05	2e-05	6
31793	-2e-05	-1e-05	-3e-05	-7e-05	-0.00012	-0.00025	-6e-05	-0.0001	6
31795	-2e-05	-1e-05	-3e-05	-7e-05	-0.00012	-0.00025	-6e-05	-0.0001	6
31796	-2e-05	-1e-05	-3e-05	-7e-05	-0.00012	-0.00025	-6e-05	-0.0001	6
31797	-2e-05	-1e-05	-3e-05	-7e-05	-0.00012	-0.00025	-6e-05	-0.0001	6
31798	-2e-05	-1e-05	-3e-05	-7e-05	-0.00012	-0.00025	-6e-05	-0.0001	6
31799	-2e-05	-1e-05	-3e-05	-7e-05	-0.00012	-0.00025	-6e-05	-0.0001	6
31800	-2e-05	-1e-05	-3e-05	-7e-05	-0.00012	-0.00025	-6e-05	-0.0001	6
31801	-2e-05	-1e-05	-3e-05	-7e-05	-0.00012	-0.00025	-6e-05	-0.0001	6
31802	0.00016	4e-05	1e-05	0	-2e-05	0.00028	0.00012	0.00035	6
31803	-8e-05	-4e-05	-3e-05	-3e-05	-2e-05	-0.00018	-0.0001	-0.0002	6
31804	-8e-05	-4e-05	-3e-05	-3e-05	-2e-05	-0.00018	-0.0001	-0.0002	6
31805	-8e-05	-4e-05	-3e-05	-3e-05	-2e-05	-0.00018	-0.0001	-0.0002	6
31806	-8e-05	-4e-05	-3e-05	-3e-05	-2e-05	-0.00018	-0.0001	-0.0002	6
31807	-8e-05	-4e-05	-3e-05	-3e-05	-2e-05	-0.00018	-0.0001	-0.0002	6
31808	-8e-05	-4e-05	-3e-05	-3e-05	-2e-05	-0.00018	-0.0001	-0.0002	6
31809	-8e-05	-4e-05	-3e-05	-3e-05	-2e-05	-0.00018	-0.0001	-0.0002	6
31810	-8e-05	-4e-05	-3e-05	-3e-05	-2e-05	-0.00018	-0.0001	-0.0002	6
31811	-8e-05	-4e-05	-3e-05	-3e-05	-2e-05	-0.00018	-0.0001	-0.0002	6
31812	-8e-05	-4e-05	-3e-05	-3e-05	-2e-05	-0.00018	-0.0001	-0.0002	6
31813	-8e-05	-4e-05	-3e-05	-3e-05	-2e-05	-0.00018	-0.0001	-0.0002	6
31814	-8e-05	-4e-05	-3e-05	-3e-05	-2e-05	-0.00018	-0.0001	-0.0002	6
31815	-8e-05	-4e-05	-3e-05	-3e-05	-2e-05	-0.00018	-0.0001	-0.0002	6
31816	-8e-05	-4e-05	-3e-05	-3e-05	-2e-05	-0.00018	-0.0001	-0.0002	6
31817	2e-05	-1e-05	-2e-05	-3e-05	-0.00012	0.00045	9e-05	0	6
31818	2e-05	-1e-05	-2e-05	-3e-05	-0.00012	0.00045	9e-05	0	6
31819	-4e-05	2e-05	2e-05	3e-05	-3e-05	4e-05	0.0001	2e-05	6
31820	-4e-05	2e-05	2e-05	3e-05	-3e-05	4e-05	0.0001	2e-05	6
31821	-4e-05	2e-05	2e-05	3e-05	-3e-05	4e-05	0.0001	2e-05	6
31822	-4e-05	2e-05	2e-05	3e-05	-3e-05	4e-05	0.0001	2e-05	6
31823	-4e-05	2e-05	2e-05	3e-05	-3e-05	4e-05	0.0001	2e-05	6
31824	-4e-05	2e-05	2e-05	3e-05	-3e-05	4e-05	0.0001	2e-05	6
31825	-4e-05	2e-05	2e-05	3e-05	-3e-05	4e-05	0.0001	2e-05	6
31826	-4e-05	2e-05	2e-05	3e-05	-3e-05	4e-05	0.0001	2e-05	6
31827	-4e-05	2e-05	2e-05	3e-05	-3e-05	4e-05	0.0001	2e-05	6
31828	-4e-05	2e-05	2e-05	3e-05	-3e-05	4e-05	0.0001	2e-05	6
31829	-4e-05	2e-05	2e-05	3e-05	-3e-05	4e-05	0.0001	2e-05	6
31830	-4e-05	2e-05	2e-05	3e-05	-3e-05	4e-05	0.0001	2e-05	6
31831	-4e-05	2e-05	2e-05	3e-05	-3e-05	4e-05	0.0001	2e-05	6
31832	-4e-05	2e-05	2e-05	3e-05	-3e-05	4e-05	0.0001	2e-05	6
31833	-4e-05	2e-05	2e-05	3e-05	-3e-05	4e-05	0.0001	2e-05	6
31834	-4e-05	2e-05	2e-05	3e-05	-3e-05	4e-05	0.0001	2e-05	6
31835	-4e-05	2e-05	2e-05	3e-05	-3e-05	4e-05	0.0001	2e-05	6
31836	-4e-05	2e-05	2e-05	3e-05	-3e-05	4e-05	0.0001	2e-05	6
31838	-4e-05	2e-05	2e-05	3e-05	-3e-05	4e-05	0.0001	2e-05	6
31839	-4e-05	2e-05	2e-05	3e-05	-3e-05	4e-05	0.0001	2e-05	6
31840	3e-05	-2e-05	0	-2e-05	-0.00013	-0.00041	5e-05	0.00012	6
31841	4e-05	3e-05	0	-2e-05	-1e-05	-0.00023	-9e-05	5e-05	6
31843	4e-05	3e-05	0	-2e-05	-1e-05	-0.00023	-9e-05	5e-05	6
31844	4e-05	3e-05	0	-2e-05	-1e-05	-0.00023	-9e-05	5e-05	6
31845	4e-05	3e-05	0	-2e-05	-1e-05	-0.00023	-9e-05	5e-05	6
31846	4e-05	3e-05	0	-2e-05	-1e-05	-0.00023	-9e-05	5e-05	6
31847	4e-05	3e-05	0	-2e-05	-1e-05	-0.00023	-9e-05	5e-05	6
31848	4e-05	3e-05	0	-2e-05	-1e-05	-0.00023	-9e-05	5e-05	6
31849	4e-05	3e-05	0	-2e-05	-1e-05	-0.00023	-9e-05	5e-05	6
31850	4e-05	3e-05	0	-2e-05	-1e-05	-0.00023	-9e-05	5e-05	6
31851	4e-05	3e-05	0	-2e-05	-1e-05	-0.00023	-9e-05	5e-05	6
31852	4e-05	3e-05	0	-2e-05	-1e-05	-0.00023	-9e-05	5e-05	6
31853	2e-05	-1e-05	1e-05	5e-05	6e-05	-7e-05	9e-05	0	6
31854	2e-05	-1e-05	1e-05	5e-05	6e-05	-7e-05	9e-05	0	6
31855	2e-05	-1e-05	1e-05	5e-05	6e-05	-7e-05	9e-05	0	6
31856	2e-05	-1e-05	1e-05	5e-05	6e-05	-7e-05	9e-05	0	6
31857	2e-05	-1e-05	1e-05	5e-05	6e-05	-7e-05	9e-05	0	6
31858	2e-05	-1e-05	1e-05	5e-05	6e-05	-7e-05	9e-05	0	6
31859	2e-05	-1e-05	1e-05	5e-05	6e-05	-7e-05	9e-05	0	6
31860	2e-05	-1e-05	1e-05	5e-05	6e-05	-7e-05	9e-05	0	6
31861	2e-05	-1e-05	1e-05	5e-05	6e-05	-7e-05	9e-05	0	6
31862	-0.00024	-2e-05	1e-05	4e-05	-3e-05	1e-05	-5e-05	-0.00025	6
31863	-0.00014	-6e-05	-5e-05	-5e-05	-1e-05	-0.00035	-1e-05	4e-05	6
31864	-0.00014	-6e-05	-5e-05	-5e-05	-1e-05	-0.00035	-1e-05	4e-05	6
31865	-0.00014	-6e-05	-5e-05	-5e-05	-1e-05	-0.00035	-1e-05	4e-05	6
31866	-0.00014	-6e-05	-5e-05	-5e-05	-1e-05	-0.00035	-1e-05	4e-05	6
31867	-0.00014	-6e-05	-5e-05	-5e-05	-1e-05	-0.00035	-1e-05	4e-05	6
31868	-0.00014	-6e-05	-5e-05	-5e-05	-1e-05	-0.00035	-1e-05	4e-05	6
31869	-0.00014	-6e-05	-5e-05	-5e-05	-1e-05	-0.00035	-1e-05	4e-05	6
31870	-0.00014	-6e-05	-5e-05	-5e-05	-1e-05	-0.00035	-1e-05	4e-05	6
31871	-0.00014	-6e-05	-5e-05	-5e-05	-1e-05	-0.00035	-1e-05	4e-05	6
31872	-0.00014	-6e-05	-5e-05	-5e-05	-1e-05	-0.00035	-1e-05	4e-05	6
31873	-0.00014	-6e-05	-5e-05	-5e-05	-1e-05	-0.00035	-1e-05	4e-05	6
31874	-0.00014	-6e-05	-5e-05	-5e-05	-1e-05	-0.00035	-1e-05	4e-05	6
31875	-0.00014	-6e-05	-5e-05	-5e-05	-1e-05	-0.00035	-1e-05	4e-05	6
31876	-0.00014	-6e-05	-5e-05	-5e-05	-1e-05	-0.00035	-1e-05	4e-05	6
31877	-1e-05	-1e-05	-1e-05	7e-05	0.0001	5e-05	-3e-05	-1e-05	6
31878	-1e-05	-1e-05	-1e-05	7e-05	0.0001	5e-05	-3e-05	-1e-05	6
31879	-3e-05	-3e-05	-1e-05	-1e-05	2e-05	6e-05	2e-05	-9e-05	6
31880	-3e-05	-3e-05	-1e-05	-1e-05	2e-05	6e-05	2e-05	-9e-05	6
31881	-3e-05	-3e-05	-1e-05	-1e-05	2e-05	6e-05	2e-05	-9e-05	6
31882	-3e-05	-3e-05	-1e-05	-1e-05	2e-05	6e-05	2e-05	-9e-05	6
31883	-3e-05	-3e-05	-1e-05	-1e-05	2e-05	6e-05	2e-05	-9e-05	6
31884	-3e-05	-3e-05	-1e-05	-1e-05	2e-05	6e-05	2e-05	-9e-05	6
31885	-3e-05	-3e-05	-1e-05	-1e-05	2e-05	6e-05	2e-05	-9e-05	6
31886	-3e-05	-3e-05	-1e-05	-1e-05	2e-05	6e-05	2e-05	-9e-05	6
31888	-3e-05	-3e-05	-1e-05	-1e-05	2e-05	6e-05	2e-05	-9e-05	6
31889	-3e-05	-3e-05	-1e-05	-1e-05	2e-05	6e-05	2e-05	-9e-05	6
31890	-3e-05	-3e-05	-1e-05	-1e-05	2e-05	6e-05	2e-05	-9e-05	6
31891	-3e-05	-3e-05	-1e-05	-1e-05	2e-05	6e-05	2e-05	-9e-05	6
31892	-3e-05	-3e-05	-1e-05	-1e-05	2e-05	6e-05	2e-05	-9e-05	6
31893	-3e-05	-3e-05	-1e-05	-1e-05	2e-05	6e-05	2e-05	-9e-05	6
31894	-3e-05	-3e-05	-1e-05	-1e-05	2e-05	6e-05	2e-05	-9e-05	6
31895	-3e-05	-3e-05	-1e-05	-1e-05	2e-05	6e-05	2e-05	-9e-05	6
31896	-3e-05	-3e-05	-1e-05	-1e-05	2e-05	6e-05	2e-05	-9e-05	6
31897	-3e-05	-3e-05	-1e-05	-1e-05	2e-05	6e-05	2e-05	-9e-05	6
31898	-3e-05	-3e-05	-1e-05	-1e-05	2e-05	6e-05	2e-05	-9e-05	6
31899	-3e-05	-3e-05	-1e-05	-1e-05	2e-05	6e-05	2e-05	-9e-05	6
31900	-4e-05	-3e-05	-1e-05	8e-05	9e-05	-0.00035	1e-05	8e-05	6
31901	-4e-05	-3e-05	-1e-05	8e-05	9e-05	-0.00035	1e-05	8e-05	6
31902	1e-05	-3e-05	-4e-05	-6e-05	1e-05	-0.00055	-0.00018	-8e-05	6
31903	1e-05	-3e-05	-4e-05	-6e-05	1e-05	-0.00055	-0.00018	-8e-05	6
31904	1e-05	-3e-05	-4e-05	-6e-05	1e-05	-0.00055	-0.00018	-8e-05	6
31905	1e-05	-3e-05	-4e-05	-6e-05	1e-05	-0.00055	-0.00018	-8e-05	6
31906	1e-05	-3e-05	-4e-05	-6e-05	1e-05	-0.00055	-0.00018	-8e-05	6
31907	1e-05	-3e-05	-4e-05	-6e-05	1e-05	-0.00055	-0.00018	-8e-05	6
31908	1e-05	-3e-05	-4e-05	-6e-05	1e-05	-0.00055	-0.00018	-8e-05	6
31909	1e-05	-3e-05	-4e-05	-6e-05	1e-05	-0.00055	-0.00018	-8e-05	6
31910	1e-05	-3e-05	-4e-05	-6e-05	1e-05	-0.00055	-0.00018	-8e-05	6
31911	1e-05	-3e-05	-4e-05	-6e-05	1e-05	-0.00055	-0.00018	-8e-05	6
31912	1e-05	-3e-05	-4e-05	-6e-05	1e-05	-0.00055	-0.00018	-8e-05	6
31913	6e-05	2e-05	1e-05	0	-3e-05	0.00012	4e-05	4e-05	6
31915	6e-05	2e-05	1e-05	0	-3e-05	0.00012	4e-05	4e-05	6
31916	6e-05	2e-05	1e-05	0	-3e-05	0.00012	4e-05	4e-05	6
31917	6e-05	2e-05	1e-05	0	-3e-05	0.00012	4e-05	4e-05	6
31918	6e-05	2e-05	1e-05	0	-3e-05	0.00012	4e-05	4e-05	6
31919	6e-05	2e-05	1e-05	0	-3e-05	0.00012	4e-05	4e-05	6
31920	6e-05	2e-05	1e-05	0	-3e-05	0.00012	4e-05	4e-05	6
31921	6e-05	2e-05	1e-05	0	-3e-05	0.00012	4e-05	4e-05	6
31922	-0.00012	1e-05	1e-05	-6e-05	-0.00026	0.00034	1e-05	-0.00015	6
31924	-0.00012	1e-05	1e-05	-6e-05	-0.00026	0.00034	1e-05	-0.00015	6
31925	-0.00012	1e-05	1e-05	-6e-05	-0.00026	0.00034	1e-05	-0.00015	6
31926	-0.00012	1e-05	1e-05	-6e-05	-0.00026	0.00034	1e-05	-0.00015	6
31927	-0.00012	1e-05	1e-05	-6e-05	-0.00026	0.00034	1e-05	-0.00015	6
31928	-0.00012	1e-05	1e-05	-6e-05	-0.00026	0.00034	1e-05	-0.00015	6
31929	-0.00012	1e-05	1e-05	-6e-05	-0.00026	0.00034	1e-05	-0.00015	6
31930	-0.00012	1e-05	1e-05	-6e-05	-0.00026	0.00034	1e-05	-0.00015	6
31931	-0.00012	1e-05	1e-05	-6e-05	-0.00026	0.00034	1e-05	-0.00015	6
31932	-0.00012	1e-05	1e-05	-6e-05	-0.00026	0.00034	1e-05	-0.00015	6
31933	-0.00012	1e-05	1e-05	-6e-05	-0.00026	0.00034	1e-05	-0.00015	6
31934	-0.00012	1e-05	1e-05	-6e-05	-0.00026	0.00034	1e-05	-0.00015	6
31935	-0.00012	1e-05	1e-05	-6e-05	-0.00026	0.00034	1e-05	-0.00015	6
31936	-0.00012	1e-05	1e-05	-6e-05	-0.00026	0.00034	1e-05	-0.00015	6
31938	-4e-05	-2e-05	-3e-05	3e-05	0.00018	-0.00021	-8e-05	1e-05	6
31939	-1e-05	-3e-05	-1e-05	1e-05	0.0001	0.00043	0.0001	-3e-05	6
31940	-1e-05	-3e-05	-1e-05	1e-05	0.0001	0.00043	0.0001	-3e-05	6
31941	-1e-05	-3e-05	-1e-05	1e-05	0.0001	0.00043	0.0001	-3e-05	6
31942	-1e-05	-3e-05	-1e-05	1e-05	0.0001	0.00043	0.0001	-3e-05	6
31943	-1e-05	-3e-05	-1e-05	1e-05	0.0001	0.00043	0.0001	-3e-05	6
31944	-1e-05	-3e-05	-1e-05	1e-05	0.0001	0.00043	0.0001	-3e-05	6
31945	-1e-05	-3e-05	-1e-05	1e-05	0.0001	0.00043	0.0001	-3e-05	6
31946	-1e-05	-3e-05	-1e-05	1e-05	0.0001	0.00043	0.0001	-3e-05	6
31947	-1e-05	-3e-05	-1e-05	1e-05	0.0001	0.00043	0.0001	-3e-05	6
31948	-1e-05	-3e-05	-1e-05	1e-05	0.0001	0.00043	0.0001	-3e-05	6
31949	-1e-05	-3e-05	-1e-05	1e-05	0.0001	0.00043	0.0001	-3e-05	6
31950	-1e-05	-3e-05	-1e-05	1e-05	0.0001	0.00043	0.0001	-3e-05	6
31951	-1e-05	-3e-05	-1e-05	1e-05	0.0001	0.00043	0.0001	-3e-05	6
31952	-1e-05	-3e-05	-1e-05	1e-05	0.0001	0.00043	0.0001	-3e-05	6
31953	-1e-05	-3e-05	-1e-05	1e-05	0.0001	0.00043	0.0001	-3e-05	6
31954	-1e-05	-3e-05	-1e-05	1e-05	0.0001	0.00043	0.0001	-3e-05	6
31955	-1e-05	-3e-05	-1e-05	1e-05	0.0001	0.00043	0.0001	-3e-05	6
31956	-1e-05	-3e-05	-1e-05	1e-05	0.0001	0.00043	0.0001	-3e-05	6
31957	-1e-05	-3e-05	-1e-05	1e-05	0.0001	0.00043	0.0001	-3e-05	6
31958	-1e-05	-3e-05	-1e-05	1e-05	0.0001	0.00043	0.0001	-3e-05	6
31959	-1e-05	-3e-05	-1e-05	1e-05	0.0001	0.00043	0.0001	-3e-05	6
31960	3e-05	0	-2e-05	-1e-05	-1e-05	0.00039	5e-05	-5e-05	6
31961	-3e-05	0	1e-05	0	-2e-05	-0.00028	-2e-05	-0.00012	6
31962	-3e-05	0	1e-05	0	-2e-05	-0.00028	-2e-05	-0.00012	6
31963	-3e-05	0	1e-05	0	-2e-05	-0.00028	-2e-05	-0.00012	6
31964	-3e-05	0	1e-05	0	-2e-05	-0.00028	-2e-05	-0.00012	6
31965	-3e-05	0	1e-05	0	-2e-05	-0.00028	-2e-05	-0.00012	6
31966	-3e-05	0	1e-05	0	-2e-05	-0.00028	-2e-05	-0.00012	6
31967	-3e-05	0	1e-05	0	-2e-05	-0.00028	-2e-05	-0.00012	6
31968	-3e-05	0	1e-05	0	-2e-05	-0.00028	-2e-05	-0.00012	6
31969	-3e-05	0	1e-05	0	-2e-05	-0.00028	-2e-05	-0.00012	6
31970	-3e-05	0	1e-05	0	-2e-05	-0.00028	-2e-05	-0.00012	6
31971	-3e-05	0	1e-05	0	-2e-05	-0.00028	-2e-05	-0.00012	6
31972	-3e-05	0	1e-05	0	-2e-05	-0.00028	-2e-05	-0.00012	6
31973	6e-05	0	-1e-05	-1e-05	2e-05	-1e-05	0	-2e-05	6
31974	-2e-05	-1e-05	-2e-05	-4e-05	-0.00012	-0.00043	-1e-05	7e-05	6
31975	-2e-05	-1e-05	-2e-05	-4e-05	-0.00012	-0.00043	-1e-05	7e-05	6
31976	-2e-05	-1e-05	-2e-05	-4e-05	-0.00012	-0.00043	-1e-05	7e-05	6
31977	-2e-05	-1e-05	-2e-05	-4e-05	-0.00012	-0.00043	-1e-05	7e-05	6
31978	-2e-05	-1e-05	-2e-05	-4e-05	-0.00012	-0.00043	-1e-05	7e-05	6
31979	-2e-05	-1e-05	-2e-05	-4e-05	-0.00012	-0.00043	-1e-05	7e-05	6
31980	-2e-05	-1e-05	-2e-05	-4e-05	-0.00012	-0.00043	-1e-05	7e-05	6
31981	-2e-05	-1e-05	-2e-05	-4e-05	-0.00012	-0.00043	-1e-05	7e-05	6
31982	7e-05	2e-05	0	-1e-05	0	4e-05	0.00011	0.00014	6
31983	7e-05	2e-05	0	-1e-05	0	4e-05	0.00011	0.00014	6
31984	7e-05	2e-05	0	-1e-05	0	4e-05	0.00011	0.00014	6
31985	7e-05	2e-05	0	-1e-05	0	4e-05	0.00011	0.00014	6
31986	7e-05	2e-05	0	-1e-05	0	4e-05	0.00011	0.00014	6
31988	7e-05	2e-05	0	-1e-05	0	4e-05	0.00011	0.00014	6
31989	7e-05	2e-05	0	-1e-05	0	4e-05	0.00011	0.00014	6
31990	7e-05	2e-05	0	-1e-05	0	4e-05	0.00011	0.00014	6
31991	7e-05	2e-05	0	-1e-05	0	4e-05	0.00011	0.00014	6
31992	7e-05	2e-05	0	-1e-05	0	4e-05	0.00011	0.00014	6
31993	7e-05	2e-05	0	-1e-05	0	4e-05	0.00011	0.00014	6
31994	7e-05	2e-05	0	-1e-05	0	4e-05	0.00011	0.00014	6
31995	7e-05	2e-05	0	-1e-05	0	4e-05	0.00011	0.00014	6
31996	7e-05	2e-05	0	-1e-05	0	4e-05	0.00011	0.00014	6
31997	-3e-05	-1e-05	-1e-05	-7e-05	-0.00018	3e-05	-2e-05	7e-05	6
31998	-3e-05	-1e-05	-1e-05	-7e-05	-0.00018	3e-05	-2e-05	7e-05	6
31999	-0.00011	-3e-05	-4e-05	3e-05	-7e-05	-8e-05	-8e-05	-5e-05	6
32000	-0.00011	-3e-05	-4e-05	3e-05	-7e-05	-8e-05	-8e-05	-5e-05	6
32001	-0.00011	-3e-05	-4e-05	3e-05	-7e-05	-8e-05	-8e-05	-5e-05	6
32002	-0.00011	-3e-05	-4e-05	3e-05	-7e-05	-8e-05	-8e-05	-5e-05	6
32003	-0.00011	-3e-05	-4e-05	3e-05	-7e-05	-8e-05	-8e-05	-5e-05	6
32004	-0.00011	-3e-05	-4e-05	3e-05	-7e-05	-8e-05	-8e-05	-5e-05	6
32005	-0.00011	-3e-05	-4e-05	3e-05	-7e-05	-8e-05	-8e-05	-5e-05	6
32006	-0.00011	-3e-05	-4e-05	3e-05	-7e-05	-8e-05	-8e-05	-5e-05	6
32007	-0.00011	-3e-05	-4e-05	3e-05	-7e-05	-8e-05	-8e-05	-5e-05	6
32008	-0.00011	-3e-05	-4e-05	3e-05	-7e-05	-8e-05	-8e-05	-5e-05	6
32009	-0.00011	-3e-05	-4e-05	3e-05	-7e-05	-8e-05	-8e-05	-5e-05	6
32010	-0.00011	-3e-05	-4e-05	3e-05	-7e-05	-8e-05	-8e-05	-5e-05	6
32011	-0.00011	-3e-05	-4e-05	3e-05	-7e-05	-8e-05	-8e-05	-5e-05	6
32012	-0.00011	-3e-05	-4e-05	3e-05	-7e-05	-8e-05	-8e-05	-5e-05	6
32013	-0.00011	-3e-05	-4e-05	3e-05	-7e-05	-8e-05	-8e-05	-5e-05	6
32014	-0.00011	-3e-05	-4e-05	3e-05	-7e-05	-8e-05	-8e-05	-5e-05	6
32015	-0.00011	-3e-05	-4e-05	3e-05	-7e-05	-8e-05	-8e-05	-5e-05	6
32016	-0.00011	-3e-05	-4e-05	3e-05	-7e-05	-8e-05	-8e-05	-5e-05	6
32017	-0.00011	-3e-05	-4e-05	3e-05	-7e-05	-8e-05	-8e-05	-5e-05	6
32018	-0.00011	-3e-05	-4e-05	3e-05	-7e-05	-8e-05	-8e-05	-5e-05	6
32019	-0.00011	-3e-05	-4e-05	3e-05	-7e-05	-8e-05	-8e-05	-5e-05	6
32020	-0.00011	-3e-05	-4e-05	3e-05	-7e-05	-8e-05	-8e-05	-5e-05	6
32021	0.00011	1e-05	-2e-05	2e-05	0.00015	-0.00019	-4e-05	9e-05	6
32023	0.00011	1e-05	-2e-05	2e-05	0.00015	-0.00019	-4e-05	9e-05	6
32024	0.00011	1e-05	-2e-05	2e-05	0.00015	-0.00019	-4e-05	9e-05	6
32025	0.00011	1e-05	-2e-05	2e-05	0.00015	-0.00019	-4e-05	9e-05	6
32026	0.00011	1e-05	-2e-05	2e-05	0.00015	-0.00019	-4e-05	9e-05	6
32027	0.00011	1e-05	-2e-05	2e-05	0.00015	-0.00019	-4e-05	9e-05	6
32028	0.00011	1e-05	-2e-05	2e-05	0.00015	-0.00019	-4e-05	9e-05	6
32029	0.00011	1e-05	-2e-05	2e-05	0.00015	-0.00019	-4e-05	9e-05	6
32030	0.00011	1e-05	-2e-05	2e-05	0.00015	-0.00019	-4e-05	9e-05	6
32031	0.00011	1e-05	-2e-05	2e-05	0.00015	-0.00019	-4e-05	9e-05	6
32032	0.00011	1e-05	-2e-05	2e-05	0.00015	-0.00019	-4e-05	9e-05	6
32033	0.00011	1e-05	-2e-05	2e-05	0.00015	-0.00019	-4e-05	9e-05	6
32034	0.00011	1e-05	-2e-05	2e-05	0.00015	-0.00019	-4e-05	9e-05	6
32035	0.00011	1e-05	-2e-05	2e-05	0.00015	-0.00019	-4e-05	9e-05	6
32036	0.00011	1e-05	-2e-05	2e-05	0.00015	-0.00019	-4e-05	9e-05	6
32038	0.00011	1e-05	-2e-05	2e-05	0.00015	-0.00019	-4e-05	9e-05	6
32039	0.00011	1e-05	-2e-05	2e-05	0.00015	-0.00019	-4e-05	9e-05	6
32040	0.00011	1e-05	-2e-05	2e-05	0.00015	-0.00019	-4e-05	9e-05	6
32041	0.00011	1e-05	-2e-05	2e-05	0.00015	-0.00019	-4e-05	9e-05	6
32042	-9e-05	-7e-05	-7e-05	-4e-05	8e-05	0	-4e-05	-0.00012	6
32043	-9e-05	-7e-05	-7e-05	-4e-05	8e-05	0	-4e-05	-0.00012	6
32044	1e-05	0	0	4e-05	3e-05	0.00023	-5e-05	0	6
32045	1e-05	0	0	4e-05	3e-05	0.00023	-5e-05	0	6
32046	1e-05	0	0	4e-05	3e-05	0.00023	-5e-05	0	6
32047	1e-05	0	0	4e-05	3e-05	0.00023	-5e-05	0	6
32048	1e-05	0	0	4e-05	3e-05	0.00023	-5e-05	0	6
32049	1e-05	0	0	4e-05	3e-05	0.00023	-5e-05	0	6
32050	1e-05	0	0	4e-05	3e-05	0.00023	-5e-05	0	6
32051	1e-05	0	0	4e-05	3e-05	0.00023	-5e-05	0	6
32052	1e-05	0	0	4e-05	3e-05	0.00023	-5e-05	0	6
32053	1e-05	0	0	4e-05	3e-05	0.00023	-5e-05	0	6
32054	1e-05	0	0	4e-05	3e-05	0.00023	-5e-05	0	6
32055	1e-05	0	0	4e-05	3e-05	0.00023	-5e-05	0	6
32056	1e-05	0	0	4e-05	3e-05	0.00023	-5e-05	0	6
32057	4e-05	1e-05	5e-05	5e-05	3e-05	4e-05	-1e-05	1e-05	6
32058	4e-05	1e-05	5e-05	5e-05	3e-05	4e-05	-1e-05	1e-05	6
32059	-0.00018	-4e-05	1e-05	1e-05	5e-05	-1e-05	2e-05	1e-05	6
32060	-0.00018	-4e-05	1e-05	1e-05	5e-05	-1e-05	2e-05	1e-05	6
32061	-0.00018	-4e-05	1e-05	1e-05	5e-05	-1e-05	2e-05	1e-05	6
32062	-0.00018	-4e-05	1e-05	1e-05	5e-05	-1e-05	2e-05	1e-05	6
32063	-0.00018	-4e-05	1e-05	1e-05	5e-05	-1e-05	2e-05	1e-05	6
32064	-0.00018	-4e-05	1e-05	1e-05	5e-05	-1e-05	2e-05	1e-05	6
32065	-0.00018	-4e-05	1e-05	1e-05	5e-05	-1e-05	2e-05	1e-05	6
32066	-0.00018	-4e-05	1e-05	1e-05	5e-05	-1e-05	2e-05	1e-05	6
32067	-0.00018	-4e-05	1e-05	1e-05	5e-05	-1e-05	2e-05	1e-05	6
32068	-0.00018	-4e-05	1e-05	1e-05	5e-05	-1e-05	2e-05	1e-05	6
32069	-0.00018	-4e-05	1e-05	1e-05	5e-05	-1e-05	2e-05	1e-05	6
32070	-0.00018	-4e-05	1e-05	1e-05	5e-05	-1e-05	2e-05	1e-05	6
32071	-0.00018	-4e-05	1e-05	1e-05	5e-05	-1e-05	2e-05	1e-05	6
32072	-0.00018	-4e-05	1e-05	1e-05	5e-05	-1e-05	2e-05	1e-05	6
32073	-0.00018	-4e-05	1e-05	1e-05	5e-05	-1e-05	2e-05	1e-05	6
32074	-0.00018	-4e-05	1e-05	1e-05	5e-05	-1e-05	2e-05	1e-05	6
32075	-0.00018	-4e-05	1e-05	1e-05	5e-05	-1e-05	2e-05	1e-05	6
32076	-0.00018	-4e-05	1e-05	1e-05	5e-05	-1e-05	2e-05	1e-05	6
32077	-0.00018	-4e-05	1e-05	1e-05	5e-05	-1e-05	2e-05	1e-05	6
32078	-0.00018	-4e-05	1e-05	1e-05	5e-05	-1e-05	2e-05	1e-05	6
32079	-0.00018	-4e-05	1e-05	1e-05	5e-05	-1e-05	2e-05	1e-05	6
32080	7e-05	-2e-05	-2e-05	-1e-05	1e-05	-5e-05	1e-05	0.00014	6
32081	1e-05	-1e-05	0	6e-05	0.00036	8e-05	-5e-05	-9e-05	6
32082	1e-05	-1e-05	0	6e-05	0.00036	8e-05	-5e-05	-9e-05	6
32083	1e-05	-1e-05	0	6e-05	0.00036	8e-05	-5e-05	-9e-05	6
32084	1e-05	-1e-05	0	6e-05	0.00036	8e-05	-5e-05	-9e-05	6
32085	1e-05	-1e-05	0	6e-05	0.00036	8e-05	-5e-05	-9e-05	6
32086	1e-05	-1e-05	0	6e-05	0.00036	8e-05	-5e-05	-9e-05	6
32088	1e-05	-1e-05	0	6e-05	0.00036	8e-05	-5e-05	-9e-05	6
32089	1e-05	-1e-05	0	6e-05	0.00036	8e-05	-5e-05	-9e-05	6
32090	1e-05	-1e-05	0	6e-05	0.00036	8e-05	-5e-05	-9e-05	6
32091	1e-05	-1e-05	0	6e-05	0.00036	8e-05	-5e-05	-9e-05	6
32092	1e-05	-1e-05	0	6e-05	0.00036	8e-05	-5e-05	-9e-05	6
32093	1e-05	-1e-05	0	6e-05	0.00036	8e-05	-5e-05	-9e-05	6
32094	1e-05	-1e-05	0	6e-05	0.00036	8e-05	-5e-05	-9e-05	6
32095	1e-05	-1e-05	0	6e-05	0.00036	8e-05	-5e-05	-9e-05	6
32096	1e-05	-1e-05	0	6e-05	0.00036	8e-05	-5e-05	-9e-05	6
32097	1e-05	-1e-05	0	6e-05	0.00036	8e-05	-5e-05	-9e-05	6
32098	1e-05	-1e-05	0	6e-05	0.00036	8e-05	-5e-05	-9e-05	6
32099	1e-05	-1e-05	0	6e-05	0.00036	8e-05	-5e-05	-9e-05	6
32100	1e-05	-1e-05	0	6e-05	0.00036	8e-05	-5e-05	-9e-05	6
32101	1e-05	-1e-05	0	6e-05	0.00036	8e-05	-5e-05	-9e-05	6
32102	1e-05	-1e-05	0	6e-05	0.00036	8e-05	-5e-05	-9e-05	6
32103	6e-05	0	0	6e-05	7e-05	-0.00017	-8e-05	8e-05	6
32104	0.00011	0	-4e-05	-4e-05	-0.00013	-0.00018	-7e-05	3e-05	6
32105	0.00011	0	-4e-05	-4e-05	-0.00013	-0.00018	-7e-05	3e-05	6
32106	0.00011	0	-4e-05	-4e-05	-0.00013	-0.00018	-7e-05	3e-05	6
32107	0.00011	0	-4e-05	-4e-05	-0.00013	-0.00018	-7e-05	3e-05	6
32108	0.00011	0	-4e-05	-4e-05	-0.00013	-0.00018	-7e-05	3e-05	6
32109	0.00011	0	-4e-05	-4e-05	-0.00013	-0.00018	-7e-05	3e-05	6
32110	0.00011	0	-4e-05	-4e-05	-0.00013	-0.00018	-7e-05	3e-05	6
32111	0.00011	0	-4e-05	-4e-05	-0.00013	-0.00018	-7e-05	3e-05	6
32112	0.00011	0	-4e-05	-4e-05	-0.00013	-0.00018	-7e-05	3e-05	6
32113	0.00011	0	-4e-05	-4e-05	-0.00013	-0.00018	-7e-05	3e-05	6
32114	0.00011	0	-4e-05	-4e-05	-0.00013	-0.00018	-7e-05	3e-05	6
32115	0.00011	0	-4e-05	-4e-05	-0.00013	-0.00018	-7e-05	3e-05	6
32116	0.00011	0	-4e-05	-4e-05	-0.00013	-0.00018	-7e-05	3e-05	6
32117	0.00011	0	-4e-05	-4e-05	-0.00013	-0.00018	-7e-05	3e-05	6
32118	0.00011	0	-4e-05	-4e-05	-0.00013	-0.00018	-7e-05	3e-05	6
32119	0.00011	0	-4e-05	-4e-05	-0.00013	-0.00018	-7e-05	3e-05	6
32120	0.00011	0	-4e-05	-4e-05	-0.00013	-0.00018	-7e-05	3e-05	6
32121	0.00011	0	-4e-05	-4e-05	-0.00013	-0.00018	-7e-05	3e-05	6
32122	0.00011	0	-4e-05	-4e-05	-0.00013	-0.00018	-7e-05	3e-05	6
32123	0.00011	0	-4e-05	-4e-05	-0.00013	-0.00018	-7e-05	3e-05	6
32124	0.00011	0	-4e-05	-4e-05	-0.00013	-0.00018	-7e-05	3e-05	6
32125	0	1e-05	2e-05	4e-05	5e-05	0.00048	8e-05	9e-05	6
32126	5e-05	2e-05	2e-05	2e-05	5e-05	3e-05	4e-05	1e-05	6
32127	5e-05	2e-05	2e-05	2e-05	5e-05	3e-05	4e-05	1e-05	6
32128	5e-05	2e-05	2e-05	2e-05	5e-05	3e-05	4e-05	1e-05	6
32129	5e-05	2e-05	2e-05	2e-05	5e-05	3e-05	4e-05	1e-05	6
32130	5e-05	2e-05	2e-05	2e-05	5e-05	3e-05	4e-05	1e-05	6
32131	5e-05	2e-05	2e-05	2e-05	5e-05	3e-05	4e-05	1e-05	6
32132	5e-05	2e-05	2e-05	2e-05	5e-05	3e-05	4e-05	1e-05	6
32133	5e-05	2e-05	2e-05	2e-05	5e-05	3e-05	4e-05	1e-05	6
32134	5e-05	2e-05	2e-05	2e-05	5e-05	3e-05	4e-05	1e-05	6
32135	5e-05	2e-05	2e-05	2e-05	5e-05	3e-05	4e-05	1e-05	6
32136	5e-05	2e-05	2e-05	2e-05	5e-05	3e-05	4e-05	1e-05	6
32138	5e-05	2e-05	2e-05	2e-05	5e-05	3e-05	4e-05	1e-05	6
32139	5e-05	2e-05	2e-05	2e-05	5e-05	3e-05	4e-05	1e-05	6
32140	-6e-05	1e-05	-1e-05	-5e-05	-4e-05	-0.00021	-5e-05	-5e-05	6
32141	6e-05	0	-2e-05	-7e-05	-0.00017	0.00013	0.00013	2e-05	6
32142	6e-05	0	-2e-05	-7e-05	-0.00017	0.00013	0.00013	2e-05	6
32143	6e-05	0	-2e-05	-7e-05	-0.00017	0.00013	0.00013	2e-05	6
32144	6e-05	0	-2e-05	-7e-05	-0.00017	0.00013	0.00013	2e-05	6
32145	6e-05	0	-2e-05	-7e-05	-0.00017	0.00013	0.00013	2e-05	6
32146	6e-05	0	-2e-05	-7e-05	-0.00017	0.00013	0.00013	2e-05	6
32147	6e-05	0	-2e-05	-7e-05	-0.00017	0.00013	0.00013	2e-05	6
32148	6e-05	0	-2e-05	-7e-05	-0.00017	0.00013	0.00013	2e-05	6
32149	6e-05	0	-2e-05	-7e-05	-0.00017	0.00013	0.00013	2e-05	6
32150	6e-05	0	-2e-05	-7e-05	-0.00017	0.00013	0.00013	2e-05	6
32151	6e-05	0	-2e-05	-7e-05	-0.00017	0.00013	0.00013	2e-05	6
32152	6e-05	0	-2e-05	-7e-05	-0.00017	0.00013	0.00013	2e-05	6
32153	6e-05	0	-2e-05	-7e-05	-0.00017	0.00013	0.00013	2e-05	6
32154	6e-05	0	-2e-05	-7e-05	-0.00017	0.00013	0.00013	2e-05	6
32155	6e-05	0	-2e-05	-7e-05	-0.00017	0.00013	0.00013	2e-05	6
32156	6e-05	0	-2e-05	-7e-05	-0.00017	0.00013	0.00013	2e-05	6
32157	6e-05	0	-2e-05	-7e-05	-0.00017	0.00013	0.00013	2e-05	6
32158	6e-05	0	-2e-05	-7e-05	-0.00017	0.00013	0.00013	2e-05	6
32159	6e-05	0	-2e-05	-7e-05	-0.00017	0.00013	0.00013	2e-05	6
32160	6e-05	0	-2e-05	-7e-05	-0.00017	0.00013	0.00013	2e-05	6
32161	6e-05	0	-2e-05	-7e-05	-0.00017	0.00013	0.00013	2e-05	6
32162	-0.0001	-1e-05	0	-4e-05	-0.00017	3e-05	9e-05	0	6
32163	-0.0001	-1e-05	0	-4e-05	-0.00017	3e-05	9e-05	0	6
32164	0	-4e-05	-3e-05	-2e-05	-0.00013	-0.00025	0.00011	5e-05	6
32165	0	-4e-05	-3e-05	-2e-05	-0.00013	-0.00025	0.00011	5e-05	6
32166	0	-4e-05	-3e-05	-2e-05	-0.00013	-0.00025	0.00011	5e-05	6
32167	0	-4e-05	-3e-05	-2e-05	-0.00013	-0.00025	0.00011	5e-05	6
32168	0	-4e-05	-3e-05	-2e-05	-0.00013	-0.00025	0.00011	5e-05	6
32169	0	-4e-05	-3e-05	-2e-05	-0.00013	-0.00025	0.00011	5e-05	6
32170	0	-4e-05	-3e-05	-2e-05	-0.00013	-0.00025	0.00011	5e-05	6
32172	0	-4e-05	-3e-05	-2e-05	-0.00013	-0.00025	0.00011	5e-05	6
32173	0	-4e-05	-3e-05	-2e-05	-0.00013	-0.00025	0.00011	5e-05	6
32174	0	-4e-05	-3e-05	-2e-05	-0.00013	-0.00025	0.00011	5e-05	6
32175	0	-4e-05	-3e-05	-2e-05	-0.00013	-0.00025	0.00011	5e-05	6
32176	0	-4e-05	-3e-05	-2e-05	-0.00013	-0.00025	0.00011	5e-05	6
32177	-5e-05	-4e-05	-5e-05	-3e-05	0.00014	-0.00022	-3e-05	8e-05	6
32178	-5e-05	-4e-05	-5e-05	-3e-05	0.00014	-0.00022	-3e-05	8e-05	6
32179	-0.00019	2e-05	5e-05	2e-05	0.00012	-0.00022	-0.00024	-0.00031	6
32180	-0.00019	2e-05	5e-05	2e-05	0.00012	-0.00022	-0.00024	-0.00031	6
32181	-0.00019	2e-05	5e-05	2e-05	0.00012	-0.00022	-0.00024	-0.00031	6
32182	-0.00019	2e-05	5e-05	2e-05	0.00012	-0.00022	-0.00024	-0.00031	6
32183	-0.00019	2e-05	5e-05	2e-05	0.00012	-0.00022	-0.00024	-0.00031	6
32184	-0.00019	2e-05	5e-05	2e-05	0.00012	-0.00022	-0.00024	-0.00031	6
32185	-0.00019	2e-05	5e-05	2e-05	0.00012	-0.00022	-0.00024	-0.00031	6
32186	-0.00019	2e-05	5e-05	2e-05	0.00012	-0.00022	-0.00024	-0.00031	6
32188	-0.00019	2e-05	5e-05	2e-05	0.00012	-0.00022	-0.00024	-0.00031	6
32189	-0.00019	2e-05	5e-05	2e-05	0.00012	-0.00022	-0.00024	-0.00031	6
32190	-0.00019	2e-05	5e-05	2e-05	0.00012	-0.00022	-0.00024	-0.00031	6
32191	-0.00019	2e-05	5e-05	2e-05	0.00012	-0.00022	-0.00024	-0.00031	6
32192	-0.00019	2e-05	5e-05	2e-05	0.00012	-0.00022	-0.00024	-0.00031	6
32193	-0.00019	2e-05	5e-05	2e-05	0.00012	-0.00022	-0.00024	-0.00031	6
32194	-0.00019	2e-05	5e-05	2e-05	0.00012	-0.00022	-0.00024	-0.00031	6
32195	-0.00019	2e-05	5e-05	2e-05	0.00012	-0.00022	-0.00024	-0.00031	6
32196	-0.00019	2e-05	5e-05	2e-05	0.00012	-0.00022	-0.00024	-0.00031	6
32197	-0.00019	2e-05	5e-05	2e-05	0.00012	-0.00022	-0.00024	-0.00031	6
32198	-0.00019	2e-05	5e-05	2e-05	0.00012	-0.00022	-0.00024	-0.00031	6
32199	-0.00019	2e-05	5e-05	2e-05	0.00012	-0.00022	-0.00024	-0.00031	6
32200	0	0	-2e-05	-6e-05	-0.00013	0.00015	-7e-05	-0.0002	6
32201	8e-05	-4e-05	-2e-05	0	5e-05	-0.0001	3e-05	0.00016	6
32202	8e-05	-4e-05	-2e-05	0	5e-05	-0.0001	3e-05	0.00016	6
32203	8e-05	-4e-05	-2e-05	0	5e-05	-0.0001	3e-05	0.00016	6
32204	8e-05	-4e-05	-2e-05	0	5e-05	-0.0001	3e-05	0.00016	6
32205	8e-05	-4e-05	-2e-05	0	5e-05	-0.0001	3e-05	0.00016	6
32206	8e-05	-4e-05	-2e-05	0	5e-05	-0.0001	3e-05	0.00016	6
32207	8e-05	-4e-05	-2e-05	0	5e-05	-0.0001	3e-05	0.00016	6
32208	8e-05	-4e-05	-2e-05	0	5e-05	-0.0001	3e-05	0.00016	6
32209	8e-05	-4e-05	-2e-05	0	5e-05	-0.0001	3e-05	0.00016	6
32210	8e-05	-4e-05	-2e-05	0	5e-05	-0.0001	3e-05	0.00016	6
32211	8e-05	-4e-05	-2e-05	0	5e-05	-0.0001	3e-05	0.00016	6
32212	8e-05	-4e-05	-2e-05	0	5e-05	-0.0001	3e-05	0.00016	6
32213	8e-05	-4e-05	-2e-05	0	5e-05	-0.0001	3e-05	0.00016	6
32214	8e-05	-4e-05	-2e-05	0	5e-05	-0.0001	3e-05	0.00016	6
32215	8e-05	-4e-05	-2e-05	0	5e-05	-0.0001	3e-05	0.00016	6
32216	8e-05	-4e-05	-2e-05	0	5e-05	-0.0001	3e-05	0.00016	6
32217	8e-05	-4e-05	-2e-05	0	5e-05	-0.0001	3e-05	0.00016	6
32218	8e-05	-4e-05	-2e-05	0	5e-05	-0.0001	3e-05	0.00016	6
32219	8e-05	-4e-05	-2e-05	0	5e-05	-0.0001	3e-05	0.00016	6
32220	8e-05	-4e-05	-2e-05	0	5e-05	-0.0001	3e-05	0.00016	6
32221	8e-05	-4e-05	-2e-05	0	5e-05	-0.0001	3e-05	0.00016	6
32222	-4e-05	1e-05	2e-05	7e-05	0.00028	-0.00017	-2e-05	-0.00012	6
32223	-4e-05	1e-05	2e-05	7e-05	0.00028	-0.00017	-2e-05	-0.00012	6
32224	0.0002	2e-05	2e-05	3e-05	5e-05	0.00062	-6e-05	7e-05	6
32225	0.0002	2e-05	2e-05	3e-05	5e-05	0.00062	-6e-05	7e-05	6
32226	0.0002	2e-05	2e-05	3e-05	5e-05	0.00062	-6e-05	7e-05	6
32227	0.0002	2e-05	2e-05	3e-05	5e-05	0.00062	-6e-05	7e-05	6
32228	0.0002	2e-05	2e-05	3e-05	5e-05	0.00062	-6e-05	7e-05	6
32229	0.0002	2e-05	2e-05	3e-05	5e-05	0.00062	-6e-05	7e-05	6
32230	0.0002	2e-05	2e-05	3e-05	5e-05	0.00062	-6e-05	7e-05	6
32231	0.0002	2e-05	2e-05	3e-05	5e-05	0.00062	-6e-05	7e-05	6
32232	0.0002	2e-05	2e-05	3e-05	5e-05	0.00062	-6e-05	7e-05	6
32233	0.0002	2e-05	2e-05	3e-05	5e-05	0.00062	-6e-05	7e-05	6
32234	0.0002	2e-05	2e-05	3e-05	5e-05	0.00062	-6e-05	7e-05	6
32235	0.0002	2e-05	2e-05	3e-05	5e-05	0.00062	-6e-05	7e-05	6
32236	0.0002	2e-05	2e-05	3e-05	5e-05	0.00062	-6e-05	7e-05	6
32238	-3e-05	-3e-05	-3e-05	1e-05	0.00015	0.00026	0.00011	-0.00015	6
32239	-3e-05	-3e-05	-3e-05	1e-05	0.00015	0.00026	0.00011	-0.00015	6
32240	-3e-05	-3e-05	-3e-05	1e-05	0.00015	0.00026	0.00011	-0.00015	6
32241	-3e-05	-3e-05	-3e-05	1e-05	0.00015	0.00026	0.00011	-0.00015	6
32242	-3e-05	-3e-05	-3e-05	1e-05	0.00015	0.00026	0.00011	-0.00015	6
32243	-1e-05	-3e-05	-7e-05	-0.00011	-7e-05	0.00015	1e-05	6e-05	6
32245	-1e-05	-3e-05	-7e-05	-0.00011	-7e-05	0.00015	1e-05	6e-05	6
32246	-1e-05	-3e-05	-7e-05	-0.00011	-7e-05	0.00015	1e-05	6e-05	6
32247	-1e-05	-3e-05	-7e-05	-0.00011	-7e-05	0.00015	1e-05	6e-05	6
32248	-1e-05	-3e-05	-7e-05	-0.00011	-7e-05	0.00015	1e-05	6e-05	6
32249	-1e-05	-3e-05	-7e-05	-0.00011	-7e-05	0.00015	1e-05	6e-05	6
32250	-1e-05	-3e-05	-7e-05	-0.00011	-7e-05	0.00015	1e-05	6e-05	6
32251	-1e-05	-3e-05	-7e-05	-0.00011	-7e-05	0.00015	1e-05	6e-05	6
32252	-1e-05	-3e-05	-7e-05	-0.00011	-7e-05	0.00015	1e-05	6e-05	6
32253	-1e-05	-3e-05	-7e-05	-0.00011	-7e-05	0.00015	1e-05	6e-05	6
32254	-1e-05	-3e-05	-7e-05	-0.00011	-7e-05	0.00015	1e-05	6e-05	6
32255	-1e-05	-3e-05	-7e-05	-0.00011	-7e-05	0.00015	1e-05	6e-05	6
32256	-1e-05	-3e-05	-7e-05	-0.00011	-7e-05	0.00015	1e-05	6e-05	6
32257	-1e-05	-3e-05	-7e-05	-0.00011	-7e-05	0.00015	1e-05	6e-05	6
32258	-1e-05	-3e-05	-7e-05	-0.00011	-7e-05	0.00015	1e-05	6e-05	6
32259	-7e-05	0	-1e-05	-3e-05	-0.00027	-0.0001	-0.00011	-0.00025	6
32260	-7e-05	0	-1e-05	-3e-05	-0.00027	-0.0001	-0.00011	-0.00025	6
32261	-7e-05	0	-1e-05	-3e-05	-0.00027	-0.0001	-0.00011	-0.00025	6
32262	-7e-05	0	-1e-05	-3e-05	-0.00027	-0.0001	-0.00011	-0.00025	6
32263	-7e-05	0	-1e-05	-3e-05	-0.00027	-0.0001	-0.00011	-0.00025	6
32264	-7e-05	0	-1e-05	-3e-05	-0.00027	-0.0001	-0.00011	-0.00025	6
32265	-7e-05	0	-1e-05	-3e-05	-0.00027	-0.0001	-0.00011	-0.00025	6
32266	-7e-05	0	-1e-05	-3e-05	-0.00027	-0.0001	-0.00011	-0.00025	6
32267	0	2e-05	3e-05	3e-05	7e-05	-3e-05	-0.00013	-2e-05	6
32268	0	2e-05	3e-05	3e-05	7e-05	-3e-05	-0.00013	-2e-05	6
32269	0	2e-05	3e-05	3e-05	7e-05	-3e-05	-0.00013	-2e-05	6
32270	0	2e-05	3e-05	3e-05	7e-05	-3e-05	-0.00013	-2e-05	6
32271	0	2e-05	3e-05	3e-05	7e-05	-3e-05	-0.00013	-2e-05	6
32272	0	2e-05	3e-05	3e-05	7e-05	-3e-05	-0.00013	-2e-05	6
32273	0	2e-05	3e-05	3e-05	7e-05	-3e-05	-0.00013	-2e-05	6
32274	0	2e-05	3e-05	3e-05	7e-05	-3e-05	-0.00013	-2e-05	6
32275	0	2e-05	3e-05	3e-05	7e-05	-3e-05	-0.00013	-2e-05	6
32276	0	2e-05	3e-05	3e-05	7e-05	-3e-05	-0.00013	-2e-05	6
32277	0	2e-05	3e-05	3e-05	7e-05	-3e-05	-0.00013	-2e-05	6
32278	0	2e-05	3e-05	3e-05	7e-05	-3e-05	-0.00013	-2e-05	6
32279	0	2e-05	3e-05	3e-05	7e-05	-3e-05	-0.00013	-2e-05	6
32280	0	2e-05	3e-05	3e-05	7e-05	-3e-05	-0.00013	-2e-05	6
32281	0	2e-05	3e-05	3e-05	7e-05	-3e-05	-0.00013	-2e-05	6
32282	1e-05	1e-05	1e-05	6e-05	-2e-05	-0.00019	-7e-05	2e-05	6
32283	1e-05	1e-05	1e-05	6e-05	-2e-05	-0.00019	-7e-05	2e-05	6
32284	-2e-05	-2e-05	-1e-05	1e-05	8e-05	-0.00013	-1e-05	-6e-05	6
32285	-2e-05	-2e-05	-1e-05	1e-05	8e-05	-0.00013	-1e-05	-6e-05	6
32286	-2e-05	-2e-05	-1e-05	1e-05	8e-05	-0.00013	-1e-05	-6e-05	6
32289	-2e-05	-2e-05	-1e-05	1e-05	8e-05	-0.00013	-1e-05	-6e-05	6
32290	-2e-05	-2e-05	-1e-05	1e-05	8e-05	-0.00013	-1e-05	-6e-05	6
32291	-2e-05	-2e-05	-1e-05	1e-05	8e-05	-0.00013	-1e-05	-6e-05	6
32292	-2e-05	-2e-05	-1e-05	1e-05	8e-05	-0.00013	-1e-05	-6e-05	6
32293	-2e-05	-2e-05	-1e-05	1e-05	8e-05	-0.00013	-1e-05	-6e-05	6
32294	-2e-05	-2e-05	-1e-05	1e-05	8e-05	-0.00013	-1e-05	-6e-05	6
32295	-2e-05	-2e-05	-1e-05	1e-05	8e-05	-0.00013	-1e-05	-6e-05	6
32296	-2e-05	-2e-05	-1e-05	1e-05	8e-05	-0.00013	-1e-05	-6e-05	6
32297	1e-05	0	-1e-05	-1e-05	-0.00016	-0.00031	-6e-05	0.00013	6
32298	1e-05	0	-1e-05	-1e-05	-0.00016	-0.00031	-6e-05	0.00013	6
32299	1e-05	0	-1e-05	-1e-05	-0.00016	-0.00031	-6e-05	0.00013	6
32300	1e-05	0	-1e-05	-1e-05	-0.00016	-0.00031	-6e-05	0.00013	6
32301	1e-05	0	-1e-05	-1e-05	-0.00016	-0.00031	-6e-05	0.00013	6
32302	1e-05	0	-1e-05	-1e-05	-0.00016	-0.00031	-6e-05	0.00013	6
32303	0.00029	4e-05	-1e-05	-2e-05	1e-05	0.00034	5e-05	0.00028	6
32304	-3e-05	-3e-05	-5e-05	-4e-05	-0.00016	-0.00021	2e-05	-3e-05	6
32305	-3e-05	-3e-05	-5e-05	-4e-05	-0.00016	-0.00021	2e-05	-3e-05	6
32306	-3e-05	-3e-05	-5e-05	-4e-05	-0.00016	-0.00021	2e-05	-3e-05	6
32307	-3e-05	-3e-05	-5e-05	-4e-05	-0.00016	-0.00021	2e-05	-3e-05	6
32308	-3e-05	-3e-05	-5e-05	-4e-05	-0.00016	-0.00021	2e-05	-3e-05	6
32309	-3e-05	-3e-05	-5e-05	-4e-05	-0.00016	-0.00021	2e-05	-3e-05	6
32310	-3e-05	-3e-05	-5e-05	-4e-05	-0.00016	-0.00021	2e-05	-3e-05	6
32311	-3e-05	-3e-05	-5e-05	-4e-05	-0.00016	-0.00021	2e-05	-3e-05	6
32312	-3e-05	-3e-05	-5e-05	-4e-05	-0.00016	-0.00021	2e-05	-3e-05	6
32313	-3e-05	-3e-05	-5e-05	-4e-05	-0.00016	-0.00021	2e-05	-3e-05	6
32314	-3e-05	-3e-05	-5e-05	-4e-05	-0.00016	-0.00021	2e-05	-3e-05	6
32315	-3e-05	-3e-05	-5e-05	-4e-05	-0.00016	-0.00021	2e-05	-3e-05	6
32316	-3e-05	-3e-05	-5e-05	-4e-05	-0.00016	-0.00021	2e-05	-3e-05	6
32317	-3e-05	-3e-05	-5e-05	-4e-05	-0.00016	-0.00021	2e-05	-3e-05	6
32318	-3e-05	-3e-05	-5e-05	-4e-05	-0.00016	-0.00021	2e-05	-3e-05	6
32319	-3e-05	-3e-05	-5e-05	-4e-05	-0.00016	-0.00021	2e-05	-3e-05	6
32320	0.00024	2e-05	3e-05	5e-05	0.00015	-0.00019	2e-05	8e-05	6
32321	-6e-05	-4e-05	-2e-05	1e-05	-1e-05	-0.00033	4e-05	-6e-05	6
32322	-6e-05	-4e-05	-2e-05	1e-05	-1e-05	-0.00033	4e-05	-6e-05	6
32323	-6e-05	-4e-05	-2e-05	1e-05	-1e-05	-0.00033	4e-05	-6e-05	6
32324	-6e-05	-4e-05	-2e-05	1e-05	-1e-05	-0.00033	4e-05	-6e-05	6
32325	-6e-05	-4e-05	-2e-05	1e-05	-1e-05	-0.00033	4e-05	-6e-05	6
32326	-6e-05	-4e-05	-2e-05	1e-05	-1e-05	-0.00033	4e-05	-6e-05	6
32327	-6e-05	-4e-05	-2e-05	1e-05	-1e-05	-0.00033	4e-05	-6e-05	6
32328	-6e-05	-4e-05	-2e-05	1e-05	-1e-05	-0.00033	4e-05	-6e-05	6
32329	-6e-05	-4e-05	-2e-05	1e-05	-1e-05	-0.00033	4e-05	-6e-05	6
32330	-6e-05	-4e-05	-2e-05	1e-05	-1e-05	-0.00033	4e-05	-6e-05	6
32331	-6e-05	-4e-05	-2e-05	1e-05	-1e-05	-0.00033	4e-05	-6e-05	6
32332	-6e-05	-4e-05	-2e-05	1e-05	-1e-05	-0.00033	4e-05	-6e-05	6
32333	-6e-05	-4e-05	-2e-05	1e-05	-1e-05	-0.00033	4e-05	-6e-05	6
32334	-6e-05	-4e-05	-2e-05	1e-05	-1e-05	-0.00033	4e-05	-6e-05	6
32335	-6e-05	-4e-05	-2e-05	1e-05	-1e-05	-0.00033	4e-05	-6e-05	6
32336	-6e-05	-4e-05	-2e-05	1e-05	-1e-05	-0.00033	4e-05	-6e-05	6
32338	-6e-05	-4e-05	-2e-05	1e-05	-1e-05	-0.00033	4e-05	-6e-05	6
32339	-6e-05	-4e-05	-2e-05	1e-05	-1e-05	-0.00033	4e-05	-6e-05	6
32340	-6e-05	-4e-05	-2e-05	1e-05	-1e-05	-0.00033	4e-05	-6e-05	6
32341	-6e-05	-4e-05	-2e-05	1e-05	-1e-05	-0.00033	4e-05	-6e-05	6
32342	-4e-05	-3e-05	-2e-05	-0.0001	3e-05	0.00041	0.00012	-8e-05	6
32343	-4e-05	-3e-05	-2e-05	-0.0001	3e-05	0.00041	0.00012	-8e-05	6
32344	3e-05	1e-05	3e-05	4e-05	0.00021	0.00026	0	1e-05	6
32345	3e-05	1e-05	3e-05	4e-05	0.00021	0.00026	0	1e-05	6
32346	3e-05	1e-05	3e-05	4e-05	0.00021	0.00026	0	1e-05	6
32347	3e-05	1e-05	3e-05	4e-05	0.00021	0.00026	0	1e-05	6
32348	3e-05	1e-05	3e-05	4e-05	0.00021	0.00026	0	1e-05	6
32349	3e-05	1e-05	3e-05	4e-05	0.00021	0.00026	0	1e-05	6
32350	3e-05	1e-05	3e-05	4e-05	0.00021	0.00026	0	1e-05	6
32351	3e-05	1e-05	3e-05	4e-05	0.00021	0.00026	0	1e-05	6
32352	3e-05	1e-05	3e-05	4e-05	0.00021	0.00026	0	1e-05	6
32353	3e-05	1e-05	3e-05	4e-05	0.00021	0.00026	0	1e-05	6
32354	3e-05	1e-05	3e-05	4e-05	0.00021	0.00026	0	1e-05	6
32355	3e-05	1e-05	3e-05	4e-05	0.00021	0.00026	0	1e-05	6
32356	3e-05	1e-05	3e-05	4e-05	0.00021	0.00026	0	1e-05	6
32357	1e-05	-3e-05	-0.0001	-0.00016	-0.00029	-0.00026	-2e-05	5e-05	6
32358	1e-05	-3e-05	-0.0001	-0.00016	-0.00029	-0.00026	-2e-05	5e-05	6
32359	1e-05	-3e-05	-0.0001	-0.00016	-0.00029	-0.00026	-2e-05	5e-05	6
32360	1e-05	-3e-05	-0.0001	-0.00016	-0.00029	-0.00026	-2e-05	5e-05	6
32361	1e-05	-3e-05	-0.0001	-0.00016	-0.00029	-0.00026	-2e-05	5e-05	6
32362	1e-05	-3e-05	-0.0001	-0.00016	-0.00029	-0.00026	-2e-05	5e-05	6
32363	2e-05	0	0	4e-05	0.00013	6e-05	-5e-05	-0.0001	6
32365	2e-05	0	0	4e-05	0.00013	6e-05	-5e-05	-0.0001	6
32366	2e-05	0	0	4e-05	0.00013	6e-05	-5e-05	-0.0001	6
32367	2e-05	0	0	4e-05	0.00013	6e-05	-5e-05	-0.0001	6
32368	2e-05	0	0	4e-05	0.00013	6e-05	-5e-05	-0.0001	6
32369	2e-05	0	0	4e-05	0.00013	6e-05	-5e-05	-0.0001	6
32370	2e-05	0	0	4e-05	0.00013	6e-05	-5e-05	-0.0001	6
32371	2e-05	0	0	4e-05	0.00013	6e-05	-5e-05	-0.0001	6
32372	2e-05	0	0	4e-05	0.00013	6e-05	-5e-05	-0.0001	6
32373	2e-05	0	0	4e-05	0.00013	6e-05	-5e-05	-0.0001	6
32374	2e-05	0	0	4e-05	0.00013	6e-05	-5e-05	-0.0001	6
32375	2e-05	0	0	4e-05	0.00013	6e-05	-5e-05	-0.0001	6
32376	2e-05	0	0	4e-05	0.00013	6e-05	-5e-05	-0.0001	6
32377	2e-05	0	0	4e-05	0.00013	6e-05	-5e-05	-0.0001	6
32378	2e-05	0	0	4e-05	0.00013	6e-05	-5e-05	-0.0001	6
32379	2e-05	0	0	4e-05	0.00013	6e-05	-5e-05	-0.0001	6
32380	-3e-05	-4e-05	-3e-05	-6e-05	-3e-05	-0.00021	-0.00011	-8e-05	6
32381	-9e-05	-1e-05	-2e-05	2e-05	-3e-05	-6e-05	9e-05	-6e-05	6
32382	-9e-05	-1e-05	-2e-05	2e-05	-3e-05	-6e-05	9e-05	-6e-05	6
32383	-9e-05	-1e-05	-2e-05	2e-05	-3e-05	-6e-05	9e-05	-6e-05	6
32384	-9e-05	-1e-05	-2e-05	2e-05	-3e-05	-6e-05	9e-05	-6e-05	6
32385	-9e-05	-1e-05	-2e-05	2e-05	-3e-05	-6e-05	9e-05	-6e-05	6
32386	-9e-05	-1e-05	-2e-05	2e-05	-3e-05	-6e-05	9e-05	-6e-05	6
32389	-9e-05	-1e-05	-2e-05	2e-05	-3e-05	-6e-05	9e-05	-6e-05	6
32390	-9e-05	-1e-05	-2e-05	2e-05	-3e-05	-6e-05	9e-05	-6e-05	6
32391	-9e-05	-1e-05	-2e-05	2e-05	-3e-05	-6e-05	9e-05	-6e-05	6
32392	-9e-05	-1e-05	-2e-05	2e-05	-3e-05	-6e-05	9e-05	-6e-05	6
32393	-9e-05	-1e-05	-2e-05	2e-05	-3e-05	-6e-05	9e-05	-6e-05	6
32394	-9e-05	-1e-05	-2e-05	2e-05	-3e-05	-6e-05	9e-05	-6e-05	6
32395	-9e-05	-1e-05	-2e-05	2e-05	-3e-05	-6e-05	9e-05	-6e-05	6
32396	-9e-05	-1e-05	-2e-05	2e-05	-3e-05	-6e-05	9e-05	-6e-05	6
32397	-9e-05	-1e-05	-2e-05	2e-05	-3e-05	-6e-05	9e-05	-6e-05	6
32398	-9e-05	-1e-05	-2e-05	2e-05	-3e-05	-6e-05	9e-05	-6e-05	6
32399	-9e-05	-1e-05	-2e-05	2e-05	-3e-05	-6e-05	9e-05	-6e-05	6
32400	-9e-05	-1e-05	-2e-05	2e-05	-3e-05	-6e-05	9e-05	-6e-05	6
32401	-9e-05	-1e-05	-2e-05	2e-05	-3e-05	-6e-05	9e-05	-6e-05	6
32402	-1e-05	-4e-05	-2e-05	0	9e-05	0.00014	0	5e-05	6
32403	-1e-05	-4e-05	-2e-05	0	9e-05	0.00014	0	5e-05	6
32404	3e-05	1e-05	-1e-05	-2e-05	-7e-05	-0.00035	-6e-05	-0.0001	6
32405	3e-05	1e-05	-1e-05	-2e-05	-7e-05	-0.00035	-6e-05	-0.0001	6
32406	3e-05	1e-05	-1e-05	-2e-05	-7e-05	-0.00035	-6e-05	-0.0001	6
32407	3e-05	1e-05	-1e-05	-2e-05	-7e-05	-0.00035	-6e-05	-0.0001	6
32408	3e-05	1e-05	-1e-05	-2e-05	-7e-05	-0.00035	-6e-05	-0.0001	6
32409	3e-05	1e-05	-1e-05	-2e-05	-7e-05	-0.00035	-6e-05	-0.0001	6
32410	3e-05	1e-05	-1e-05	-2e-05	-7e-05	-0.00035	-6e-05	-0.0001	6
32411	3e-05	1e-05	-1e-05	-2e-05	-7e-05	-0.00035	-6e-05	-0.0001	6
32412	3e-05	1e-05	-1e-05	-2e-05	-7e-05	-0.00035	-6e-05	-0.0001	6
32413	3e-05	1e-05	-1e-05	-2e-05	-7e-05	-0.00035	-6e-05	-0.0001	6
32414	3e-05	1e-05	-1e-05	-2e-05	-7e-05	-0.00035	-6e-05	-0.0001	6
32415	3e-05	1e-05	-1e-05	-2e-05	-7e-05	-0.00035	-6e-05	-0.0001	6
32416	0	1e-05	-2e-05	4e-05	0.00027	0.00011	-2e-05	4e-05	6
32417	0	1e-05	-2e-05	4e-05	0.00027	0.00011	-2e-05	4e-05	6
32418	0	1e-05	-2e-05	4e-05	0.00027	0.00011	-2e-05	4e-05	6
32419	0	1e-05	-2e-05	4e-05	0.00027	0.00011	-2e-05	4e-05	6
32420	0	1e-05	-2e-05	4e-05	0.00027	0.00011	-2e-05	4e-05	6
32421	0	1e-05	-2e-05	4e-05	0.00027	0.00011	-2e-05	4e-05	6
32422	0	1e-05	-2e-05	4e-05	0.00027	0.00011	-2e-05	4e-05	6
32423	0	1e-05	-2e-05	4e-05	0.00027	0.00011	-2e-05	4e-05	6
32424	-0.00016	-2e-05	-3e-05	-9e-05	-0.00019	0.00054	0.00019	-4e-05	6
32425	-0.00016	-2e-05	-3e-05	-9e-05	-0.00019	0.00054	0.00019	-4e-05	6
32426	-0.00016	-2e-05	-3e-05	-9e-05	-0.00019	0.00054	0.00019	-4e-05	6
32427	-0.00016	-2e-05	-3e-05	-9e-05	-0.00019	0.00054	0.00019	-4e-05	6
32428	-0.00016	-2e-05	-3e-05	-9e-05	-0.00019	0.00054	0.00019	-4e-05	6
32429	-0.00016	-2e-05	-3e-05	-9e-05	-0.00019	0.00054	0.00019	-4e-05	6
32430	-0.00016	-2e-05	-3e-05	-9e-05	-0.00019	0.00054	0.00019	-4e-05	6
32432	-0.00016	-2e-05	-3e-05	-9e-05	-0.00019	0.00054	0.00019	-4e-05	6
32433	-0.00016	-2e-05	-3e-05	-9e-05	-0.00019	0.00054	0.00019	-4e-05	6
32434	-0.00016	-2e-05	-3e-05	-9e-05	-0.00019	0.00054	0.00019	-4e-05	6
32435	-0.00016	-2e-05	-3e-05	-9e-05	-0.00019	0.00054	0.00019	-4e-05	6
32436	-0.00016	-2e-05	-3e-05	-9e-05	-0.00019	0.00054	0.00019	-4e-05	6
32439	-0.00016	-2e-05	-3e-05	-9e-05	-0.00019	0.00054	0.00019	-4e-05	6
32440	-0.00016	-2e-05	-3e-05	-9e-05	-0.00019	0.00054	0.00019	-4e-05	6
32441	-0.00016	-2e-05	-3e-05	-9e-05	-0.00019	0.00054	0.00019	-4e-05	6
32442	-0.00016	-2e-05	-3e-05	-9e-05	-0.00019	0.00054	0.00019	-4e-05	6
32443	-0.00016	-2e-05	-3e-05	-9e-05	-0.00019	0.00054	0.00019	-4e-05	6
32444	-0.00016	-2e-05	-3e-05	-9e-05	-0.00019	0.00054	0.00019	-4e-05	6
32445	-0.00016	-2e-05	-3e-05	-9e-05	-0.00019	0.00054	0.00019	-4e-05	6
32446	-0.00016	-2e-05	-3e-05	-9e-05	-0.00019	0.00054	0.00019	-4e-05	6
32447	0.00016	1e-05	0	-3e-05	-0.00022	-0.00019	-1e-05	-0.0001	6
32448	0	0	-2e-05	-6e-05	-8e-05	-0.00031	-1e-05	-1e-05	6
32449	0	0	-2e-05	-6e-05	-8e-05	-0.00031	-1e-05	-1e-05	6
32450	0	0	-2e-05	-6e-05	-8e-05	-0.00031	-1e-05	-1e-05	6
32451	0	0	-2e-05	-6e-05	-8e-05	-0.00031	-1e-05	-1e-05	6
32452	0	0	-2e-05	-6e-05	-8e-05	-0.00031	-1e-05	-1e-05	6
32453	0	0	-2e-05	-6e-05	-8e-05	-0.00031	-1e-05	-1e-05	6
32454	0	0	-2e-05	-6e-05	-8e-05	-0.00031	-1e-05	-1e-05	6
32455	0	0	-2e-05	-6e-05	-8e-05	-0.00031	-1e-05	-1e-05	6
32456	0	0	-2e-05	-6e-05	-8e-05	-0.00031	-1e-05	-1e-05	6
32457	0	0	-2e-05	-6e-05	-8e-05	-0.00031	-1e-05	-1e-05	6
32458	0	0	-2e-05	-6e-05	-8e-05	-0.00031	-1e-05	-1e-05	6
32459	0	0	-2e-05	-6e-05	-8e-05	-0.00031	-1e-05	-1e-05	6
32460	0	0	-2e-05	-6e-05	-8e-05	-0.00031	-1e-05	-1e-05	6
32461	0	0	-2e-05	-6e-05	-8e-05	-0.00031	-1e-05	-1e-05	6
32462	0.0001	-1e-05	0	1e-05	4e-05	0.00024	-1e-05	0.0001	6
32463	0.0001	-1e-05	0	1e-05	4e-05	0.00024	-1e-05	0.0001	6
32464	0.0001	-1e-05	0	1e-05	4e-05	0.00024	-1e-05	0.0001	6
32465	0.0001	-1e-05	0	1e-05	4e-05	0.00024	-1e-05	0.0001	6
32466	0.0001	-1e-05	0	1e-05	4e-05	0.00024	-1e-05	0.0001	6
32467	0.0001	-1e-05	0	1e-05	4e-05	0.00024	-1e-05	0.0001	6
32468	0.0001	-1e-05	0	1e-05	4e-05	0.00024	-1e-05	0.0001	6
32469	0.0001	-1e-05	0	1e-05	4e-05	0.00024	-1e-05	0.0001	6
32470	0.0001	-1e-05	0	1e-05	4e-05	0.00024	-1e-05	0.0001	6
32471	0.0001	-1e-05	0	1e-05	4e-05	0.00024	-1e-05	0.0001	6
32472	0.0001	-1e-05	0	1e-05	4e-05	0.00024	-1e-05	0.0001	6
32473	0.0001	-1e-05	0	1e-05	4e-05	0.00024	-1e-05	0.0001	6
32474	0.0001	-1e-05	0	1e-05	4e-05	0.00024	-1e-05	0.0001	6
32475	0.0001	-1e-05	0	1e-05	4e-05	0.00024	-1e-05	0.0001	6
32476	0	-2e-05	2e-05	0.0001	5e-05	0.0005	8e-05	0.00013	6
32477	0	-2e-05	2e-05	0.0001	5e-05	0.0005	8e-05	0.00013	6
32478	0	-2e-05	2e-05	0.0001	5e-05	0.0005	8e-05	0.00013	6
32479	0	-2e-05	2e-05	0.0001	5e-05	0.0005	8e-05	0.00013	6
32480	0	-2e-05	2e-05	0.0001	5e-05	0.0005	8e-05	0.00013	6
32481	0	-2e-05	2e-05	0.0001	5e-05	0.0005	8e-05	0.00013	6
32482	0	-2e-05	2e-05	0.0001	5e-05	0.0005	8e-05	0.00013	6
32483	0	-2e-05	2e-05	0.0001	5e-05	0.0005	8e-05	0.00013	6
32484	-2e-05	-1e-05	-1e-05	-5e-05	2e-05	-0.0003	0	-4e-05	6
32485	-2e-05	-1e-05	-1e-05	-5e-05	2e-05	-0.0003	0	-4e-05	6
32486	-2e-05	-1e-05	-1e-05	-5e-05	2e-05	-0.0003	0	-4e-05	6
32489	-2e-05	-1e-05	-1e-05	-5e-05	2e-05	-0.0003	0	-4e-05	6
32490	-2e-05	-1e-05	-1e-05	-5e-05	2e-05	-0.0003	0	-4e-05	6
32491	-2e-05	-1e-05	-1e-05	-5e-05	2e-05	-0.0003	0	-4e-05	6
32492	-2e-05	-1e-05	-1e-05	-5e-05	2e-05	-0.0003	0	-4e-05	6
32493	-2e-05	-1e-05	-1e-05	-5e-05	2e-05	-0.0003	0	-4e-05	6
32494	-2e-05	-1e-05	-1e-05	-5e-05	2e-05	-0.0003	0	-4e-05	6
32495	-2e-05	-1e-05	-1e-05	-5e-05	2e-05	-0.0003	0	-4e-05	6
32496	-2e-05	-1e-05	-1e-05	-5e-05	2e-05	-0.0003	0	-4e-05	6
32497	-2e-05	-1e-05	-1e-05	-5e-05	2e-05	-0.0003	0	-4e-05	6
32498	-2e-05	-1e-05	-1e-05	-5e-05	2e-05	-0.0003	0	-4e-05	6
32499	-7e-05	1e-05	-2e-05	-4e-05	-0.00016	8e-05	0	3e-05	6
32500	0.00038	2e-05	3e-05	7e-05	0.00014	0.00028	3e-05	0.00036	6
32501	0.00038	2e-05	3e-05	7e-05	0.00014	0.00028	3e-05	0.00036	6
32502	0.00038	2e-05	3e-05	7e-05	0.00014	0.00028	3e-05	0.00036	6
32503	0.00038	2e-05	3e-05	7e-05	0.00014	0.00028	3e-05	0.00036	6
32504	0.00038	2e-05	3e-05	7e-05	0.00014	0.00028	3e-05	0.00036	6
32505	0.00038	2e-05	3e-05	7e-05	0.00014	0.00028	3e-05	0.00036	6
32506	0.00038	2e-05	3e-05	7e-05	0.00014	0.00028	3e-05	0.00036	6
32507	0.00038	2e-05	3e-05	7e-05	0.00014	0.00028	3e-05	0.00036	6
32508	0.00038	2e-05	3e-05	7e-05	0.00014	0.00028	3e-05	0.00036	6
32509	0.00038	2e-05	3e-05	7e-05	0.00014	0.00028	3e-05	0.00036	6
32510	0.00038	2e-05	3e-05	7e-05	0.00014	0.00028	3e-05	0.00036	6
32511	0.00038	2e-05	3e-05	7e-05	0.00014	0.00028	3e-05	0.00036	6
32512	0.00038	2e-05	3e-05	7e-05	0.00014	0.00028	3e-05	0.00036	6
32513	0.00038	2e-05	3e-05	7e-05	0.00014	0.00028	3e-05	0.00036	6
32514	0.00038	2e-05	3e-05	7e-05	0.00014	0.00028	3e-05	0.00036	6
32515	0.00038	2e-05	3e-05	7e-05	0.00014	0.00028	3e-05	0.00036	6
32516	0.00038	2e-05	3e-05	7e-05	0.00014	0.00028	3e-05	0.00036	6
32517	0.00038	2e-05	3e-05	7e-05	0.00014	0.00028	3e-05	0.00036	6
32518	0.00038	2e-05	3e-05	7e-05	0.00014	0.00028	3e-05	0.00036	6
32519	0.00038	2e-05	3e-05	7e-05	0.00014	0.00028	3e-05	0.00036	6
32520	0.00038	2e-05	3e-05	7e-05	0.00014	0.00028	3e-05	0.00036	6
32521	0.00038	2e-05	3e-05	7e-05	0.00014	0.00028	3e-05	0.00036	6
32522	-9e-05	-1e-05	-2e-05	-9e-05	-0.00011	-0.00014	-0.00017	-0.00015	6
32523	-9e-05	-1e-05	-2e-05	-3e-05	9e-05	0.00039	-6e-05	0	6
32524	-9e-05	-1e-05	-2e-05	-3e-05	9e-05	0.00039	-6e-05	0	6
32525	-9e-05	-1e-05	-2e-05	-3e-05	9e-05	0.00039	-6e-05	0	6
32526	-9e-05	-1e-05	-2e-05	-3e-05	9e-05	0.00039	-6e-05	0	6
32527	-9e-05	-1e-05	-2e-05	-3e-05	9e-05	0.00039	-6e-05	0	6
32528	-9e-05	-1e-05	-2e-05	-3e-05	9e-05	0.00039	-6e-05	0	6
32529	-9e-05	-1e-05	-2e-05	-3e-05	9e-05	0.00039	-6e-05	0	6
32530	-9e-05	-1e-05	-2e-05	-3e-05	9e-05	0.00039	-6e-05	0	6
32531	-9e-05	-1e-05	-2e-05	-3e-05	9e-05	0.00039	-6e-05	0	6
32532	-9e-05	-1e-05	-2e-05	-3e-05	9e-05	0.00039	-6e-05	0	6
32533	-9e-05	-1e-05	-2e-05	-3e-05	9e-05	0.00039	-6e-05	0	6
32534	-9e-05	-1e-05	-2e-05	-3e-05	9e-05	0.00039	-6e-05	0	6
32535	-9e-05	-1e-05	-2e-05	-3e-05	9e-05	0.00039	-6e-05	0	6
32536	-6e-05	-1e-05	-3e-05	-3e-05	0	0.00026	-8e-05	-0.00012	6
32539	-6e-05	-1e-05	-3e-05	-3e-05	0	0.00026	-8e-05	-0.00012	6
32540	-6e-05	-1e-05	-3e-05	-3e-05	0	0.00026	-8e-05	-0.00012	6
32541	-6e-05	-1e-05	-3e-05	-3e-05	0	0.00026	-8e-05	-0.00012	6
32542	-6e-05	-1e-05	-3e-05	-3e-05	0	0.00026	-8e-05	-0.00012	6
32543	-6e-05	-1e-05	-3e-05	-3e-05	0	0.00026	-8e-05	-0.00012	6
32544	-8e-05	-1e-05	-1e-05	-1e-05	-0.0001	-0.00047	-0.00018	-0.00019	6
32545	-8e-05	-1e-05	-1e-05	-1e-05	-0.0001	-0.00047	-0.00018	-0.00019	6
32546	-8e-05	-1e-05	-1e-05	-1e-05	-0.0001	-0.00047	-0.00018	-0.00019	6
32547	-8e-05	-1e-05	-1e-05	-1e-05	-0.0001	-0.00047	-0.00018	-0.00019	6
32548	-8e-05	-1e-05	-1e-05	-1e-05	-0.0001	-0.00047	-0.00018	-0.00019	6
32549	-8e-05	-1e-05	-1e-05	-1e-05	-0.0001	-0.00047	-0.00018	-0.00019	6
32550	-8e-05	-1e-05	-1e-05	-1e-05	-0.0001	-0.00047	-0.00018	-0.00019	6
32551	-8e-05	-1e-05	-1e-05	-1e-05	-0.0001	-0.00047	-0.00018	-0.00019	6
32552	-8e-05	-1e-05	-1e-05	-1e-05	-0.0001	-0.00047	-0.00018	-0.00019	6
32553	-8e-05	-1e-05	-1e-05	-1e-05	-0.0001	-0.00047	-0.00018	-0.00019	6
32554	-8e-05	-1e-05	-1e-05	-1e-05	-0.0001	-0.00047	-0.00018	-0.00019	6
32555	-8e-05	-1e-05	-1e-05	-1e-05	-0.0001	-0.00047	-0.00018	-0.00019	6
32556	-8e-05	-1e-05	-1e-05	-1e-05	-0.0001	-0.00047	-0.00018	-0.00019	6
32557	-8e-05	-1e-05	-1e-05	-1e-05	-0.0001	-0.00047	-0.00018	-0.00019	6
32558	-8e-05	-1e-05	-1e-05	-1e-05	-0.0001	-0.00047	-0.00018	-0.00019	6
32559	-8e-05	-1e-05	-1e-05	-9e-05	-0.00023	0.00012	6e-05	1e-05	6
32560	0	-3e-05	-2e-05	-3e-05	-0.00019	-0.00026	-8e-05	-2e-05	6
32561	0	-3e-05	-2e-05	-3e-05	-0.00019	-0.00026	-8e-05	-2e-05	6
32562	0	-3e-05	-2e-05	-3e-05	-0.00019	-0.00026	-8e-05	-2e-05	6
32563	0	-3e-05	-2e-05	-3e-05	-0.00019	-0.00026	-8e-05	-2e-05	6
32564	0	-3e-05	-2e-05	-3e-05	-0.00019	-0.00026	-8e-05	-2e-05	6
32565	0	-3e-05	-2e-05	-3e-05	-0.00019	-0.00026	-8e-05	-2e-05	6
32566	0	-3e-05	-2e-05	-3e-05	-0.00019	-0.00026	-8e-05	-2e-05	6
32567	0	-3e-05	-2e-05	-3e-05	-0.00019	-0.00026	-8e-05	-2e-05	6
32568	0	-3e-05	-2e-05	-3e-05	-0.00019	-0.00026	-8e-05	-2e-05	6
32569	0	-3e-05	-2e-05	-3e-05	-0.00019	-0.00026	-8e-05	-2e-05	6
32570	0	-3e-05	-2e-05	-3e-05	-0.00019	-0.00026	-8e-05	-2e-05	6
32571	0	-3e-05	-2e-05	-3e-05	-0.00019	-0.00026	-8e-05	-2e-05	6
32572	0	-3e-05	-2e-05	-3e-05	-0.00019	-0.00026	-8e-05	-2e-05	6
32573	0	-3e-05	-2e-05	-3e-05	-0.00019	-0.00026	-8e-05	-2e-05	6
32574	0	-3e-05	-2e-05	-3e-05	-0.00019	-0.00026	-8e-05	-2e-05	6
32575	0	-3e-05	-2e-05	-3e-05	-0.00019	-0.00026	-8e-05	-2e-05	6
32576	0	-3e-05	-2e-05	-3e-05	-0.00019	-0.00026	-8e-05	-2e-05	6
32577	0	-3e-05	-2e-05	-3e-05	-0.00019	-0.00026	-8e-05	-2e-05	6
32578	0	-3e-05	-2e-05	-3e-05	-0.00019	-0.00026	-8e-05	-2e-05	6
32579	0	-3e-05	-2e-05	-3e-05	-0.00019	-0.00026	-8e-05	-2e-05	6
32580	0	-3e-05	-2e-05	-3e-05	-0.00019	-0.00026	-8e-05	-2e-05	6
32581	0	-3e-05	-2e-05	-3e-05	-0.00019	-0.00026	-8e-05	-2e-05	6
32582	-9e-05	-4e-05	-6e-05	-7e-05	-0.00035	-0.00031	-0.00013	-6e-05	6
32583	-9e-05	-4e-05	-6e-05	-7e-05	-0.00035	-0.00031	-0.00013	-6e-05	6
32584	-9e-05	-4e-05	-6e-05	-7e-05	-0.00035	-0.00031	-0.00013	-6e-05	6
32585	-9e-05	-4e-05	-6e-05	-7e-05	-0.00035	-0.00031	-0.00013	-6e-05	6
32586	-9e-05	-4e-05	-6e-05	-7e-05	-0.00035	-0.00031	-0.00013	-6e-05	6
32589	-9e-05	-4e-05	-6e-05	-7e-05	-0.00035	-0.00031	-0.00013	-6e-05	6
32590	-9e-05	-4e-05	-6e-05	-7e-05	-0.00035	-0.00031	-0.00013	-6e-05	6
32591	-9e-05	-4e-05	-6e-05	-7e-05	-0.00035	-0.00031	-0.00013	-6e-05	6
32592	-9e-05	-4e-05	-6e-05	-7e-05	-0.00035	-0.00031	-0.00013	-6e-05	6
32593	-9e-05	-4e-05	-6e-05	-7e-05	-0.00035	-0.00031	-0.00013	-6e-05	6
32594	-9e-05	-4e-05	-6e-05	-7e-05	-0.00035	-0.00031	-0.00013	-6e-05	6
32595	-9e-05	-4e-05	-6e-05	-7e-05	-0.00035	-0.00031	-0.00013	-6e-05	6
32596	3e-05	-4e-05	-1e-05	-4e-05	-0.0002	-0.00026	-0.00018	3e-05	6
32597	3e-05	-4e-05	-1e-05	-4e-05	-0.0002	-0.00026	-0.00018	3e-05	6
32598	3e-05	-4e-05	-1e-05	-4e-05	-0.0002	-0.00026	-0.00018	3e-05	6
32599	3e-05	-4e-05	-1e-05	-4e-05	-0.0002	-0.00026	-0.00018	3e-05	6
32600	3e-05	-4e-05	-1e-05	-4e-05	-0.0002	-0.00026	-0.00018	3e-05	6
32601	3e-05	-4e-05	-1e-05	-4e-05	-0.0002	-0.00026	-0.00018	3e-05	6
32602	3e-05	-4e-05	-1e-05	-4e-05	-0.0002	-0.00026	-0.00018	3e-05	6
32603	3e-05	-4e-05	-1e-05	-4e-05	-0.0002	-0.00026	-0.00018	3e-05	6
32604	-9e-05	-1e-05	-1e-05	0	-0.00014	-9e-05	-6e-05	-8e-05	6
32605	-9e-05	-1e-05	-1e-05	0	-0.00014	-9e-05	-6e-05	-8e-05	6
32606	-9e-05	-1e-05	-1e-05	0	-0.00014	-9e-05	-6e-05	-8e-05	6
32607	-9e-05	-1e-05	-1e-05	0	-0.00014	-9e-05	-6e-05	-8e-05	6
32608	-9e-05	-1e-05	-1e-05	0	-0.00014	-9e-05	-6e-05	-8e-05	6
32609	-9e-05	-1e-05	-1e-05	0	-0.00014	-9e-05	-6e-05	-8e-05	6
32610	-9e-05	-1e-05	-1e-05	0	-0.00014	-9e-05	-6e-05	-8e-05	6
32611	-9e-05	-1e-05	-1e-05	0	-0.00014	-9e-05	-6e-05	-8e-05	6
32612	-9e-05	-1e-05	-1e-05	0	-0.00014	-9e-05	-6e-05	-8e-05	6
32613	-9e-05	-1e-05	-1e-05	0	-0.00014	-9e-05	-6e-05	-8e-05	6
32614	-9e-05	-1e-05	-1e-05	0	-0.00014	-9e-05	-6e-05	-8e-05	6
32615	-9e-05	-1e-05	-1e-05	0	-0.00014	-9e-05	-6e-05	-8e-05	6
32616	-9e-05	-1e-05	-1e-05	0	-0.00014	-9e-05	-6e-05	-8e-05	6
32617	-9e-05	-1e-05	-1e-05	0	-0.00014	-9e-05	-6e-05	-8e-05	6
32618	-9e-05	-1e-05	-1e-05	0	-0.00014	-9e-05	-6e-05	-8e-05	6
32619	2e-05	0	1e-05	1e-05	5e-05	-0.00035	-2e-05	2e-05	6
32620	-1e-05	0	0	2e-05	0.00014	0.00018	-1e-05	-7e-05	6
32621	-1e-05	0	0	2e-05	0.00014	0.00018	-1e-05	-7e-05	6
32622	-1e-05	0	0	2e-05	0.00014	0.00018	-1e-05	-7e-05	6
32623	-1e-05	0	0	2e-05	0.00014	0.00018	-1e-05	-7e-05	6
32624	-1e-05	0	0	2e-05	0.00014	0.00018	-1e-05	-7e-05	6
32625	-1e-05	0	0	2e-05	0.00014	0.00018	-1e-05	-7e-05	6
32626	-1e-05	0	0	2e-05	0.00014	0.00018	-1e-05	-7e-05	6
32627	-1e-05	0	0	2e-05	0.00014	0.00018	-1e-05	-7e-05	6
32628	-1e-05	0	0	2e-05	0.00014	0.00018	-1e-05	-7e-05	6
32629	-1e-05	0	0	2e-05	0.00014	0.00018	-1e-05	-7e-05	6
32630	-1e-05	0	0	2e-05	0.00014	0.00018	-1e-05	-7e-05	6
32631	-1e-05	0	0	2e-05	0.00014	0.00018	-1e-05	-7e-05	6
32632	-1e-05	0	0	2e-05	0.00014	0.00018	-1e-05	-7e-05	6
32633	-1e-05	0	0	2e-05	0.00014	0.00018	-1e-05	-7e-05	6
32634	-1e-05	0	0	2e-05	0.00014	0.00018	-1e-05	-7e-05	6
32635	-1e-05	0	0	2e-05	0.00014	0.00018	-1e-05	-7e-05	6
32636	-1e-05	0	0	2e-05	0.00014	0.00018	-1e-05	-7e-05	6
32638	-1e-05	0	0	2e-05	0.00014	0.00018	-1e-05	-7e-05	6
32639	-1e-05	0	0	2e-05	0.00014	0.00018	-1e-05	-7e-05	6
32640	-1e-05	0	0	2e-05	0.00014	0.00018	-1e-05	-7e-05	6
32641	-1e-05	0	0	2e-05	0.00014	0.00018	-1e-05	-7e-05	6
32642	5e-05	-1e-05	0	-3e-05	-0.00022	0.00026	0.00011	0.0003	6
32643	5e-05	-1e-05	0	-3e-05	-0.00022	0.00026	0.00011	0.0003	6
32644	5e-05	-1e-05	0	-3e-05	-0.00022	0.00026	0.00011	0.0003	6
32645	5e-05	-1e-05	0	-3e-05	-0.00022	0.00026	0.00011	0.0003	6
32646	5e-05	-1e-05	0	-3e-05	-0.00022	0.00026	0.00011	0.0003	6
32647	5e-05	-1e-05	0	-3e-05	-0.00022	0.00026	0.00011	0.0003	6
32648	5e-05	-1e-05	0	-3e-05	-0.00022	0.00026	0.00011	0.0003	6
32649	5e-05	-1e-05	0	-3e-05	-0.00022	0.00026	0.00011	0.0003	6
32650	5e-05	-1e-05	0	-3e-05	-0.00022	0.00026	0.00011	0.0003	6
32651	5e-05	-1e-05	0	-3e-05	-0.00022	0.00026	0.00011	0.0003	6
32652	5e-05	-1e-05	0	-3e-05	-0.00022	0.00026	0.00011	0.0003	6
32653	5e-05	-1e-05	0	-3e-05	-0.00022	0.00026	0.00011	0.0003	6
32654	5e-05	-1e-05	0	-3e-05	-0.00022	0.00026	0.00011	0.0003	6
32655	5e-05	-1e-05	0	-3e-05	-0.00022	0.00026	0.00011	0.0003	6
32656	-2e-05	-1e-05	-2e-05	-3e-05	-0.00013	0.00024	1e-05	0.0001	6
32657	-2e-05	-1e-05	-2e-05	-3e-05	-0.00013	0.00024	1e-05	0.0001	6
32658	-2e-05	-1e-05	-2e-05	-3e-05	-0.00013	0.00024	1e-05	0.0001	6
32659	-2e-05	-1e-05	-2e-05	-3e-05	-0.00013	0.00024	1e-05	0.0001	6
32660	-2e-05	-1e-05	-2e-05	-3e-05	-0.00013	0.00024	1e-05	0.0001	6
32661	-2e-05	-1e-05	-2e-05	-3e-05	-0.00013	0.00024	1e-05	0.0001	6
32662	-2e-05	-1e-05	-2e-05	-3e-05	-0.00013	0.00024	1e-05	0.0001	6
32663	-2e-05	-1e-05	-2e-05	-3e-05	-0.00013	0.00024	1e-05	0.0001	6
32664	-0.00011	-2e-05	1e-05	2e-05	-1e-05	0.00022	9e-05	1e-05	6
32665	-0.00011	-2e-05	1e-05	2e-05	-1e-05	0.00022	9e-05	1e-05	6
32666	-0.00011	-2e-05	1e-05	2e-05	-1e-05	0.00022	9e-05	1e-05	6
32667	-0.00011	-2e-05	1e-05	2e-05	-1e-05	0.00022	9e-05	1e-05	6
32668	-0.00011	-2e-05	1e-05	2e-05	-1e-05	0.00022	9e-05	1e-05	6
32669	-0.00011	-2e-05	1e-05	2e-05	-1e-05	0.00022	9e-05	1e-05	6
32670	-0.00011	-2e-05	1e-05	2e-05	-1e-05	0.00022	9e-05	1e-05	6
32671	-0.00011	-2e-05	1e-05	2e-05	-1e-05	0.00022	9e-05	1e-05	6
32672	-0.00011	-2e-05	1e-05	2e-05	-1e-05	0.00022	9e-05	1e-05	6
32673	-0.00011	-2e-05	1e-05	2e-05	-1e-05	0.00022	9e-05	1e-05	6
32674	-0.00011	-2e-05	1e-05	2e-05	-1e-05	0.00022	9e-05	1e-05	6
32675	-0.00011	-2e-05	1e-05	2e-05	-1e-05	0.00022	9e-05	1e-05	6
32676	-0.00011	-2e-05	1e-05	2e-05	-1e-05	0.00022	9e-05	1e-05	6
32677	-0.00011	-2e-05	1e-05	2e-05	-1e-05	0.00022	9e-05	1e-05	6
32678	-0.00011	-2e-05	1e-05	2e-05	-1e-05	0.00022	9e-05	1e-05	6
32679	3e-05	-3e-05	-3e-05	-4e-05	-7e-05	-0.00016	-8e-05	8e-05	6
32680	5e-05	0	-2e-05	-8e-05	-0.00011	-9e-05	-6e-05	0.0001	6
32681	5e-05	0	-2e-05	-8e-05	-0.00011	-9e-05	-6e-05	0.0001	6
32682	5e-05	0	-2e-05	-8e-05	-0.00011	-9e-05	-6e-05	0.0001	6
32683	5e-05	0	-2e-05	-8e-05	-0.00011	-9e-05	-6e-05	0.0001	6
32684	5e-05	0	-2e-05	-8e-05	-0.00011	-9e-05	-6e-05	0.0001	6
32685	5e-05	0	-2e-05	-8e-05	-0.00011	-9e-05	-6e-05	0.0001	6
32686	5e-05	0	-2e-05	-8e-05	-0.00011	-9e-05	-6e-05	0.0001	6
32688	5e-05	0	-2e-05	-8e-05	-0.00011	-9e-05	-6e-05	0.0001	6
32689	5e-05	0	-2e-05	-8e-05	-0.00011	-9e-05	-6e-05	0.0001	6
32690	5e-05	0	-2e-05	-8e-05	-0.00011	-9e-05	-6e-05	0.0001	6
32691	5e-05	0	-2e-05	-8e-05	-0.00011	-9e-05	-6e-05	0.0001	6
32692	5e-05	0	-2e-05	-8e-05	-0.00011	-9e-05	-6e-05	0.0001	6
32693	5e-05	0	-2e-05	-8e-05	-0.00011	-9e-05	-6e-05	0.0001	6
32694	5e-05	0	-2e-05	-8e-05	-0.00011	-9e-05	-6e-05	0.0001	6
32696	5e-05	0	-2e-05	-8e-05	-0.00011	-9e-05	-6e-05	0.0001	6
32697	5e-05	0	-2e-05	-8e-05	-0.00011	-9e-05	-6e-05	0.0001	6
32698	5e-05	0	-2e-05	-8e-05	-0.00011	-9e-05	-6e-05	0.0001	6
32699	5e-05	0	-2e-05	-8e-05	-0.00011	-9e-05	-6e-05	0.0001	6
32700	5e-05	0	-2e-05	-8e-05	-0.00011	-9e-05	-6e-05	0.0001	6
32701	5e-05	0	-2e-05	-8e-05	-0.00011	-9e-05	-6e-05	0.0001	6
32702	7e-05	1e-05	4e-05	3e-05	0.00017	1e-05	3e-05	0.00017	6
32703	7e-05	1e-05	4e-05	3e-05	0.00017	1e-05	3e-05	0.00017	6
32704	7e-05	1e-05	4e-05	3e-05	0.00017	1e-05	3e-05	0.00017	6
32705	7e-05	1e-05	4e-05	3e-05	0.00017	1e-05	3e-05	0.00017	6
32706	7e-05	1e-05	4e-05	3e-05	0.00017	1e-05	3e-05	0.00017	6
32707	7e-05	1e-05	4e-05	3e-05	0.00017	1e-05	3e-05	0.00017	6
32708	7e-05	1e-05	4e-05	3e-05	0.00017	1e-05	3e-05	0.00017	6
32709	7e-05	1e-05	4e-05	3e-05	0.00017	1e-05	3e-05	0.00017	6
32710	7e-05	1e-05	4e-05	3e-05	0.00017	1e-05	3e-05	0.00017	6
32711	7e-05	1e-05	4e-05	3e-05	0.00017	1e-05	3e-05	0.00017	6
32712	7e-05	1e-05	4e-05	3e-05	0.00017	1e-05	3e-05	0.00017	6
32713	7e-05	1e-05	4e-05	3e-05	0.00017	1e-05	3e-05	0.00017	6
32714	7e-05	1e-05	4e-05	3e-05	0.00017	1e-05	3e-05	0.00017	6
32715	7e-05	1e-05	4e-05	3e-05	0.00017	1e-05	3e-05	0.00017	6
32716	2e-05	0	2e-05	4e-05	9e-05	-0.00019	2e-05	0.0001	6
32717	2e-05	0	2e-05	4e-05	9e-05	-0.00019	2e-05	0.0001	6
32718	2e-05	0	2e-05	4e-05	9e-05	-0.00019	2e-05	0.0001	6
32719	2e-05	0	2e-05	4e-05	9e-05	-0.00019	2e-05	0.0001	6
32720	2e-05	0	2e-05	4e-05	9e-05	-0.00019	2e-05	0.0001	6
32721	2e-05	0	2e-05	4e-05	9e-05	-0.00019	2e-05	0.0001	6
32722	2e-05	0	2e-05	4e-05	9e-05	-0.00019	2e-05	0.0001	6
32723	2e-05	0	2e-05	4e-05	9e-05	-0.00019	2e-05	0.0001	6
32724	-6e-05	-1e-05	-1e-05	-4e-05	-9e-05	-9e-05	0	-1e-05	6
32725	-6e-05	-1e-05	-1e-05	-4e-05	-9e-05	-9e-05	0	-1e-05	6
32726	-6e-05	-1e-05	-1e-05	-4e-05	-9e-05	-9e-05	0	-1e-05	6
32727	-6e-05	-1e-05	-1e-05	-4e-05	-9e-05	-9e-05	0	-1e-05	6
32728	-6e-05	-1e-05	-1e-05	-4e-05	-9e-05	-9e-05	0	-1e-05	6
32729	-6e-05	-1e-05	-1e-05	-4e-05	-9e-05	-9e-05	0	-1e-05	6
32730	-6e-05	-1e-05	-1e-05	-4e-05	-9e-05	-9e-05	0	-1e-05	6
32731	-6e-05	-1e-05	-1e-05	-4e-05	-9e-05	-9e-05	0	-1e-05	6
32732	-6e-05	-1e-05	-1e-05	-4e-05	-9e-05	-9e-05	0	-1e-05	6
32733	-6e-05	-1e-05	-1e-05	-4e-05	-9e-05	-9e-05	0	-1e-05	6
32734	-6e-05	-1e-05	-1e-05	-4e-05	-9e-05	-9e-05	0	-1e-05	6
32735	-6e-05	-1e-05	-1e-05	-4e-05	-9e-05	-9e-05	0	-1e-05	6
32736	-6e-05	-1e-05	-1e-05	-4e-05	-9e-05	-9e-05	0	-1e-05	6
32738	-6e-05	-1e-05	-1e-05	-4e-05	-9e-05	-9e-05	0	-1e-05	6
32739	-6e-05	-1e-05	-1e-05	-4e-05	-9e-05	-9e-05	0	-1e-05	6
32740	-6e-05	-1e-05	-1e-05	-4e-05	-9e-05	-9e-05	0	-1e-05	6
32741	-6e-05	-1e-05	-1e-05	-4e-05	-9e-05	-9e-05	0	-1e-05	6
32742	-6e-05	-1e-05	-1e-05	-4e-05	-9e-05	-9e-05	0	-1e-05	6
32743	-6e-05	-1e-05	-1e-05	-4e-05	-9e-05	-9e-05	0	-1e-05	6
32744	-6e-05	-1e-05	-1e-05	-4e-05	-9e-05	-9e-05	0	-1e-05	6
32745	-6e-05	-1e-05	-1e-05	-4e-05	-9e-05	-9e-05	0	-1e-05	6
32746	-6e-05	-1e-05	-1e-05	-4e-05	-9e-05	-9e-05	0	-1e-05	6
32747	8e-05	4e-05	5e-05	0.00011	0.0002	-6e-05	1e-05	0.00012	6
32748	0.00014	-1e-05	0	6e-05	0.00018	0.00017	8e-05	0.00028	6
32749	0.00014	-1e-05	0	6e-05	0.00018	0.00017	8e-05	0.00028	6
32750	0.00014	-1e-05	0	6e-05	0.00018	0.00017	8e-05	0.00028	6
32751	0.00014	-1e-05	0	6e-05	0.00018	0.00017	8e-05	0.00028	6
32752	0.00014	-1e-05	0	6e-05	0.00018	0.00017	8e-05	0.00028	6
32753	0.00014	-1e-05	0	6e-05	0.00018	0.00017	8e-05	0.00028	6
32754	0.00014	-1e-05	0	6e-05	0.00018	0.00017	8e-05	0.00028	6
32755	0.00014	-1e-05	0	6e-05	0.00018	0.00017	8e-05	0.00028	6
32756	0.00014	-1e-05	0	6e-05	0.00018	0.00017	8e-05	0.00028	6
32757	0.00014	-1e-05	0	6e-05	0.00018	0.00017	8e-05	0.00028	6
32758	0.00014	-1e-05	0	6e-05	0.00018	0.00017	8e-05	0.00028	6
32759	0.00014	-1e-05	0	6e-05	0.00018	0.00017	8e-05	0.00028	6
32760	0.00014	-1e-05	0	6e-05	0.00018	0.00017	8e-05	0.00028	6
32761	0.00014	-1e-05	0	6e-05	0.00018	0.00017	8e-05	0.00028	6
32762	-7e-05	1e-05	-1e-05	2e-05	-4e-05	-0.00031	-0.00013	-4e-05	6
32763	-7e-05	1e-05	-1e-05	2e-05	-4e-05	-0.00031	-0.00013	-4e-05	6
32764	-7e-05	1e-05	-1e-05	2e-05	-4e-05	-0.00031	-0.00013	-4e-05	6
32765	-7e-05	1e-05	-1e-05	2e-05	-4e-05	-0.00031	-0.00013	-4e-05	6
32766	-7e-05	1e-05	-1e-05	2e-05	-4e-05	-0.00031	-0.00013	-4e-05	6
32767	-7e-05	1e-05	-1e-05	2e-05	-4e-05	-0.00031	-0.00013	-4e-05	6
32768	-7e-05	1e-05	-1e-05	2e-05	-4e-05	-0.00031	-0.00013	-4e-05	6
32769	-7e-05	1e-05	-1e-05	2e-05	-4e-05	-0.00031	-0.00013	-4e-05	6
32770	-7e-05	1e-05	-1e-05	2e-05	-4e-05	-0.00031	-0.00013	-4e-05	6
32771	-7e-05	1e-05	-1e-05	2e-05	-4e-05	-0.00031	-0.00013	-4e-05	6
32772	-7e-05	1e-05	-1e-05	2e-05	-4e-05	-0.00031	-0.00013	-4e-05	6
32773	-7e-05	1e-05	-1e-05	2e-05	-4e-05	-0.00031	-0.00013	-4e-05	6
32774	-7e-05	1e-05	-1e-05	2e-05	-4e-05	-0.00031	-0.00013	-4e-05	6
32775	-7e-05	1e-05	-1e-05	2e-05	-4e-05	-0.00031	-0.00013	-4e-05	6
32776	0.00014	3e-05	2e-05	-5e-05	-0.00026	-7e-05	-1e-05	0.00032	6
32777	0.00014	3e-05	2e-05	-5e-05	-0.00026	-7e-05	-1e-05	0.00032	6
32778	0.00014	3e-05	2e-05	-5e-05	-0.00026	-7e-05	-1e-05	0.00032	6
32779	0.00014	3e-05	2e-05	-5e-05	-0.00026	-7e-05	-1e-05	0.00032	6
32780	0.00014	3e-05	2e-05	-5e-05	-0.00026	-7e-05	-1e-05	0.00032	6
32781	0.00014	3e-05	2e-05	-5e-05	-0.00026	-7e-05	-1e-05	0.00032	6
32782	0.00014	3e-05	2e-05	-5e-05	-0.00026	-7e-05	-1e-05	0.00032	6
32783	0.00014	3e-05	2e-05	-5e-05	-0.00026	-7e-05	-1e-05	0.00032	6
32784	-0.00012	-2e-05	0	2e-05	0.00023	0.00011	-2e-05	-0.00014	6
32785	-0.00012	-2e-05	0	2e-05	0.00023	0.00011	-2e-05	-0.00014	6
32786	-0.00012	-2e-05	0	2e-05	0.00023	0.00011	-2e-05	-0.00014	6
32788	-0.00012	-2e-05	0	2e-05	0.00023	0.00011	-2e-05	-0.00014	6
32789	-0.00012	-2e-05	0	2e-05	0.00023	0.00011	-2e-05	-0.00014	6
32790	-0.00012	-2e-05	0	2e-05	0.00023	0.00011	-2e-05	-0.00014	6
32791	-0.00012	-2e-05	0	2e-05	0.00023	0.00011	-2e-05	-0.00014	6
32792	-0.00012	-2e-05	0	2e-05	0.00023	0.00011	-2e-05	-0.00014	6
32793	-0.00012	-2e-05	0	2e-05	0.00023	0.00011	-2e-05	-0.00014	6
32794	-0.00012	-2e-05	0	2e-05	0.00023	0.00011	-2e-05	-0.00014	6
32795	-0.00012	-2e-05	0	2e-05	0.00023	0.00011	-2e-05	-0.00014	6
32796	-0.00012	-2e-05	0	2e-05	0.00023	0.00011	-2e-05	-0.00014	6
32797	-0.00012	-2e-05	0	2e-05	0.00023	0.00011	-2e-05	-0.00014	6
32798	-0.00012	-2e-05	0	2e-05	0.00023	0.00011	-2e-05	-0.00014	6
32799	-8e-05	-2e-05	0	1e-05	7e-05	-7e-05	-8e-05	-0.00015	6
32800	-7e-05	1e-05	-1e-05	3e-05	0	0.00014	-1e-05	-0.00014	6
32801	-7e-05	1e-05	-1e-05	3e-05	0	0.00014	-1e-05	-0.00014	6
32802	-7e-05	1e-05	-1e-05	3e-05	0	0.00014	-1e-05	-0.00014	6
32803	-7e-05	1e-05	-1e-05	3e-05	0	0.00014	-1e-05	-0.00014	6
32804	-7e-05	1e-05	-1e-05	3e-05	0	0.00014	-1e-05	-0.00014	6
32805	-7e-05	1e-05	-1e-05	3e-05	0	0.00014	-1e-05	-0.00014	6
32806	-7e-05	1e-05	-1e-05	3e-05	0	0.00014	-1e-05	-0.00014	6
32807	-7e-05	1e-05	-1e-05	3e-05	0	0.00014	-1e-05	-0.00014	6
32808	-7e-05	1e-05	-1e-05	3e-05	0	0.00014	-1e-05	-0.00014	6
32809	-7e-05	1e-05	-1e-05	3e-05	0	0.00014	-1e-05	-0.00014	6
32810	-7e-05	1e-05	-1e-05	3e-05	0	0.00014	-1e-05	-0.00014	6
32811	-7e-05	1e-05	-1e-05	3e-05	0	0.00014	-1e-05	-0.00014	6
32812	-7e-05	1e-05	-1e-05	3e-05	0	0.00014	-1e-05	-0.00014	6
32813	-7e-05	1e-05	-1e-05	3e-05	0	0.00014	-1e-05	-0.00014	6
32814	-7e-05	1e-05	-1e-05	3e-05	0	0.00014	-1e-05	-0.00014	6
32815	-7e-05	1e-05	-1e-05	3e-05	0	0.00014	-1e-05	-0.00014	6
32816	-7e-05	1e-05	-1e-05	3e-05	0	0.00014	-1e-05	-0.00014	6
32817	-7e-05	1e-05	-1e-05	3e-05	0	0.00014	-1e-05	-0.00014	6
32818	-7e-05	1e-05	-1e-05	3e-05	0	0.00014	-1e-05	-0.00014	6
32819	-7e-05	1e-05	-1e-05	3e-05	0	0.00014	-1e-05	-0.00014	6
32820	-7e-05	1e-05	-1e-05	3e-05	0	0.00014	-1e-05	-0.00014	6
32821	0.00023	-2e-05	-3e-05	-4e-05	-1e-05	0.00014	1e-05	7e-05	6
32822	0	-4e-05	-2e-05	-2e-05	0	5e-05	-3e-05	-0.0001	6
32823	0	-4e-05	-2e-05	-2e-05	0	5e-05	-3e-05	-0.0001	6
32824	0	-4e-05	-2e-05	-2e-05	0	5e-05	-3e-05	-0.0001	6
32825	0	-4e-05	-2e-05	-2e-05	0	5e-05	-3e-05	-0.0001	6
32826	0	-4e-05	-2e-05	-2e-05	0	5e-05	-3e-05	-0.0001	6
32827	0	-4e-05	-2e-05	-2e-05	0	5e-05	-3e-05	-0.0001	6
32828	0	-4e-05	-2e-05	-2e-05	0	5e-05	-3e-05	-0.0001	6
32829	0	-4e-05	-2e-05	-2e-05	0	5e-05	-3e-05	-0.0001	6
32830	0	-4e-05	-2e-05	-2e-05	0	5e-05	-3e-05	-0.0001	6
32831	0	-4e-05	-2e-05	-2e-05	0	5e-05	-3e-05	-0.0001	6
32832	0	-4e-05	-2e-05	-2e-05	0	5e-05	-3e-05	-0.0001	6
32833	0	-4e-05	-2e-05	-2e-05	0	5e-05	-3e-05	-0.0001	6
32834	0	-4e-05	-2e-05	-2e-05	0	5e-05	-3e-05	-0.0001	6
32835	0	-4e-05	-2e-05	-2e-05	0	5e-05	-3e-05	-0.0001	6
32836	0	-4e-05	-2e-05	-2e-05	0	5e-05	-3e-05	-0.0001	6
32838	-5e-05	-1e-05	0	4e-05	0.00015	0.00023	-1e-05	4e-05	6
32839	-5e-05	-1e-05	0	4e-05	0.00015	0.00023	-1e-05	4e-05	6
32840	-5e-05	-1e-05	0	4e-05	0.00015	0.00023	-1e-05	4e-05	6
32841	-5e-05	-1e-05	0	4e-05	0.00015	0.00023	-1e-05	4e-05	6
32842	-5e-05	-1e-05	0	4e-05	0.00015	0.00023	-1e-05	4e-05	6
32843	-5e-05	-1e-05	0	4e-05	0.00015	0.00023	-1e-05	4e-05	6
32844	-6e-05	-1e-05	-1e-05	7e-05	9e-05	0.0004	5e-05	-0.00016	6
32845	-6e-05	-1e-05	-1e-05	7e-05	9e-05	0.0004	5e-05	-0.00016	6
32846	-6e-05	-1e-05	-1e-05	7e-05	9e-05	0.0004	5e-05	-0.00016	6
32847	-6e-05	-1e-05	-1e-05	7e-05	9e-05	0.0004	5e-05	-0.00016	6
32848	-6e-05	-1e-05	-1e-05	7e-05	9e-05	0.0004	5e-05	-0.00016	6
32849	-6e-05	-1e-05	-1e-05	7e-05	9e-05	0.0004	5e-05	-0.00016	6
32850	-6e-05	-1e-05	-1e-05	7e-05	9e-05	0.0004	5e-05	-0.00016	6
32851	-6e-05	-1e-05	-1e-05	7e-05	9e-05	0.0004	5e-05	-0.00016	6
32852	-6e-05	-1e-05	-1e-05	7e-05	9e-05	0.0004	5e-05	-0.00016	6
32853	-6e-05	-1e-05	-1e-05	7e-05	9e-05	0.0004	5e-05	-0.00016	6
32854	-6e-05	-1e-05	-1e-05	7e-05	9e-05	0.0004	5e-05	-0.00016	6
32855	-6e-05	-1e-05	-1e-05	7e-05	9e-05	0.0004	5e-05	-0.00016	6
32856	-6e-05	-1e-05	-1e-05	7e-05	9e-05	0.0004	5e-05	-0.00016	6
32857	-6e-05	-1e-05	-1e-05	7e-05	9e-05	0.0004	5e-05	-0.00016	6
32858	-6e-05	-1e-05	-1e-05	7e-05	9e-05	0.0004	5e-05	-0.00016	6
32859	-0.00017	-2e-05	-3e-05	-1e-05	-5e-05	-0.00024	1e-05	-0.0001	6
32860	-5e-05	-2e-05	-2e-05	-4e-05	0.00011	9e-05	4e-05	-0.00017	6
32861	-5e-05	-2e-05	-2e-05	-4e-05	0.00011	9e-05	4e-05	-0.00017	6
32862	-5e-05	-2e-05	-2e-05	-4e-05	0.00011	9e-05	4e-05	-0.00017	6
32863	-5e-05	-2e-05	-2e-05	-4e-05	0.00011	9e-05	4e-05	-0.00017	6
32864	-5e-05	-2e-05	-2e-05	-4e-05	0.00011	9e-05	4e-05	-0.00017	6
32865	-5e-05	-2e-05	-2e-05	-4e-05	0.00011	9e-05	4e-05	-0.00017	6
32866	-5e-05	-2e-05	-2e-05	-4e-05	0.00011	9e-05	4e-05	-0.00017	6
32867	-5e-05	-2e-05	-2e-05	-4e-05	0.00011	9e-05	4e-05	-0.00017	6
32868	-5e-05	-2e-05	-2e-05	-4e-05	0.00011	9e-05	4e-05	-0.00017	6
32869	-5e-05	-2e-05	-2e-05	-4e-05	0.00011	9e-05	4e-05	-0.00017	6
32870	-5e-05	-2e-05	-2e-05	-4e-05	0.00011	9e-05	4e-05	-0.00017	6
32871	-5e-05	-2e-05	-2e-05	-4e-05	0.00011	9e-05	4e-05	-0.00017	6
32872	-5e-05	-2e-05	-2e-05	-4e-05	0.00011	9e-05	4e-05	-0.00017	6
32873	-5e-05	-2e-05	-2e-05	-4e-05	0.00011	9e-05	4e-05	-0.00017	6
32874	-5e-05	-2e-05	-2e-05	-4e-05	0.00011	9e-05	4e-05	-0.00017	6
32875	-5e-05	-2e-05	-2e-05	-4e-05	0.00011	9e-05	4e-05	-0.00017	6
32876	-5e-05	-2e-05	-2e-05	-4e-05	0.00011	9e-05	4e-05	-0.00017	6
32877	-5e-05	-2e-05	-2e-05	-4e-05	0.00011	9e-05	4e-05	-0.00017	6
32878	-5e-05	-2e-05	-2e-05	-4e-05	0.00011	9e-05	4e-05	-0.00017	6
32879	-5e-05	-2e-05	-2e-05	-4e-05	0.00011	9e-05	4e-05	-0.00017	6
32880	-5e-05	-2e-05	-2e-05	-4e-05	0.00011	9e-05	4e-05	-0.00017	6
32881	-5e-05	-2e-05	-2e-05	-4e-05	0.00011	9e-05	4e-05	-0.00017	6
32882	-1e-05	1e-05	0	-2e-05	-3e-05	-0.00024	-2e-05	-0.00012	6
32883	0.00014	2e-05	-1e-05	4e-05	0.00015	-0.00055	3e-05	8e-05	6
32884	0.00014	2e-05	-1e-05	4e-05	0.00015	-0.00055	3e-05	8e-05	6
32885	0.00014	2e-05	-1e-05	4e-05	0.00015	-0.00055	3e-05	8e-05	6
32886	0.00014	2e-05	-1e-05	4e-05	0.00015	-0.00055	3e-05	8e-05	6
32888	0.00014	2e-05	-1e-05	4e-05	0.00015	-0.00055	3e-05	8e-05	6
32889	0.00014	2e-05	-1e-05	4e-05	0.00015	-0.00055	3e-05	8e-05	6
32890	0.00014	2e-05	-1e-05	4e-05	0.00015	-0.00055	3e-05	8e-05	6
32891	0.00014	2e-05	-1e-05	4e-05	0.00015	-0.00055	3e-05	8e-05	6
32892	0.00014	2e-05	-1e-05	4e-05	0.00015	-0.00055	3e-05	8e-05	6
32893	0.00014	2e-05	-1e-05	4e-05	0.00015	-0.00055	3e-05	8e-05	6
32894	0.00014	2e-05	-1e-05	4e-05	0.00015	-0.00055	3e-05	8e-05	6
32895	0.00014	2e-05	-1e-05	4e-05	0.00015	-0.00055	3e-05	8e-05	6
32896	0.00014	2e-05	-1e-05	4e-05	0.00015	-0.00055	3e-05	8e-05	6
32897	0.00014	2e-05	-1e-05	4e-05	0.00015	-0.00055	3e-05	8e-05	6
32898	0.00014	2e-05	-1e-05	4e-05	0.00015	-0.00055	3e-05	8e-05	6
32899	0.00014	2e-05	-1e-05	4e-05	0.00015	-0.00055	3e-05	8e-05	6
32900	0.00014	2e-05	-1e-05	4e-05	0.00015	-0.00055	3e-05	8e-05	6
32901	0.00014	2e-05	-1e-05	4e-05	0.00015	-0.00055	3e-05	8e-05	6
32902	0.00014	2e-05	-1e-05	4e-05	0.00015	-0.00055	3e-05	8e-05	6
32903	0.00014	2e-05	-1e-05	4e-05	0.00015	-0.00055	3e-05	8e-05	6
32904	0.00014	2e-05	-1e-05	4e-05	0.00015	-0.00055	3e-05	8e-05	6
32905	-3e-05	-2e-05	0	-3e-05	3e-05	4e-05	-2e-05	-0.00019	6
32906	-2e-05	0	1e-05	0	-0.0001	-0.00046	-1e-05	9e-05	6
32907	-2e-05	0	1e-05	0	-0.0001	-0.00046	-1e-05	9e-05	6
32908	-2e-05	0	1e-05	0	-0.0001	-0.00046	-1e-05	9e-05	6
32909	-2e-05	0	1e-05	0	-0.0001	-0.00046	-1e-05	9e-05	6
32910	-2e-05	0	1e-05	0	-0.0001	-0.00046	-1e-05	9e-05	6
32911	-2e-05	0	1e-05	0	-0.0001	-0.00046	-1e-05	9e-05	6
32912	-2e-05	0	1e-05	0	-0.0001	-0.00046	-1e-05	9e-05	6
32913	-2e-05	0	1e-05	0	-0.0001	-0.00046	-1e-05	9e-05	6
32914	-2e-05	0	1e-05	0	-0.0001	-0.00046	-1e-05	9e-05	6
32915	-2e-05	0	1e-05	0	-0.0001	-0.00046	-1e-05	9e-05	6
32916	-2e-05	0	1e-05	0	-0.0001	-0.00046	-1e-05	9e-05	6
32917	-2e-05	0	1e-05	0	-0.0001	-0.00046	-1e-05	9e-05	6
32918	-2e-05	0	1e-05	0	-0.0001	-0.00046	-1e-05	9e-05	6
32919	-0.00011	-1e-05	-4e-05	-6e-05	-1e-05	-2e-05	-9e-05	-8e-05	6
32920	3e-05	-3e-05	-4e-05	-5e-05	-0.00023	-1e-05	1e-05	-5e-05	6
32921	3e-05	-3e-05	-4e-05	-5e-05	-0.00023	-1e-05	1e-05	-5e-05	6
32922	3e-05	-3e-05	-4e-05	-5e-05	-0.00023	-1e-05	1e-05	-5e-05	6
32923	3e-05	-3e-05	-4e-05	-5e-05	-0.00023	-1e-05	1e-05	-5e-05	6
32924	3e-05	-3e-05	-4e-05	-5e-05	-0.00023	-1e-05	1e-05	-5e-05	6
32925	3e-05	-3e-05	-4e-05	-5e-05	-0.00023	-1e-05	1e-05	-5e-05	6
32926	3e-05	-3e-05	-4e-05	-5e-05	-0.00023	-1e-05	1e-05	-5e-05	6
32927	3e-05	-3e-05	-4e-05	-5e-05	-0.00023	-1e-05	1e-05	-5e-05	6
32928	3e-05	-3e-05	-4e-05	-5e-05	-0.00023	-1e-05	1e-05	-5e-05	6
32929	3e-05	-3e-05	-4e-05	-5e-05	-0.00023	-1e-05	1e-05	-5e-05	6
32930	3e-05	-3e-05	-4e-05	-5e-05	-0.00023	-1e-05	1e-05	-5e-05	6
32931	3e-05	-3e-05	-4e-05	-5e-05	-0.00023	-1e-05	1e-05	-5e-05	6
32932	3e-05	-3e-05	-4e-05	-5e-05	-0.00023	-1e-05	1e-05	-5e-05	6
32933	3e-05	-3e-05	-4e-05	-5e-05	-0.00023	-1e-05	1e-05	-5e-05	6
32934	3e-05	-3e-05	-4e-05	-5e-05	-0.00023	-1e-05	1e-05	-5e-05	6
32935	3e-05	-3e-05	-4e-05	-5e-05	-0.00023	-1e-05	1e-05	-5e-05	6
32936	3e-05	-3e-05	-4e-05	-5e-05	-0.00023	-1e-05	1e-05	-5e-05	6
32938	3e-05	-3e-05	-4e-05	-5e-05	-0.00023	-1e-05	1e-05	-5e-05	6
32939	3e-05	-3e-05	-4e-05	-5e-05	-0.00023	-1e-05	1e-05	-5e-05	6
32940	3e-05	-3e-05	-4e-05	-5e-05	-0.00023	-1e-05	1e-05	-5e-05	6
32941	3e-05	-3e-05	-4e-05	-5e-05	-0.00023	-1e-05	1e-05	-5e-05	6
32942	-8e-05	-1e-05	0	-1e-05	0.0001	7e-05	-5e-05	-0.00011	6
32943	-8e-05	-1e-05	0	-1e-05	0.0001	7e-05	-5e-05	-0.00011	6
32944	-8e-05	-1e-05	0	-1e-05	0.0001	7e-05	-5e-05	-0.00011	6
32945	-8e-05	-1e-05	0	-1e-05	0.0001	7e-05	-5e-05	-0.00011	6
32946	-8e-05	-1e-05	0	-1e-05	0.0001	7e-05	-5e-05	-0.00011	6
32947	-8e-05	-1e-05	0	-1e-05	0.0001	7e-05	-5e-05	-0.00011	6
32948	-8e-05	-1e-05	0	-1e-05	0.0001	7e-05	-5e-05	-0.00011	6
32949	-8e-05	-1e-05	0	-1e-05	0.0001	7e-05	-5e-05	-0.00011	6
32950	-8e-05	-1e-05	0	-1e-05	0.0001	7e-05	-5e-05	-0.00011	6
32951	-8e-05	-1e-05	0	-1e-05	0.0001	7e-05	-5e-05	-0.00011	6
32952	-8e-05	-1e-05	0	-1e-05	0.0001	7e-05	-5e-05	-0.00011	6
32953	-8e-05	-1e-05	0	-1e-05	0.0001	7e-05	-5e-05	-0.00011	6
32954	-8e-05	-1e-05	0	-1e-05	0.0001	7e-05	-5e-05	-0.00011	6
32955	-8e-05	-1e-05	0	-1e-05	0.0001	7e-05	-5e-05	-0.00011	6
32956	-0.00019	-5e-05	-3e-05	-0.00011	-8e-05	0.00074	0.00012	-0.00021	6
32957	-0.00019	-5e-05	-3e-05	-0.00011	-8e-05	0.00074	0.00012	-0.00021	6
32958	-0.00019	-5e-05	-3e-05	-0.00011	-8e-05	0.00074	0.00012	-0.00021	6
32959	-0.00019	-5e-05	-3e-05	-0.00011	-8e-05	0.00074	0.00012	-0.00021	6
32960	-0.00019	-5e-05	-3e-05	-0.00011	-8e-05	0.00074	0.00012	-0.00021	6
32961	-0.00019	-5e-05	-3e-05	-0.00011	-8e-05	0.00074	0.00012	-0.00021	6
32962	-0.00019	-5e-05	-3e-05	-0.00011	-8e-05	0.00074	0.00012	-0.00021	6
32963	-0.00019	-5e-05	-3e-05	-0.00011	-8e-05	0.00074	0.00012	-0.00021	6
32964	1e-05	-1e-05	-1e-05	1e-05	-3e-05	-0.00069	-0.00015	-7e-05	6
32965	1e-05	-1e-05	-1e-05	1e-05	-3e-05	-0.00069	-0.00015	-7e-05	6
32966	1e-05	-1e-05	-1e-05	1e-05	-3e-05	-0.00069	-0.00015	-7e-05	6
32967	1e-05	-1e-05	-1e-05	1e-05	-3e-05	-0.00069	-0.00015	-7e-05	6
32968	1e-05	-1e-05	-1e-05	1e-05	-3e-05	-0.00069	-0.00015	-7e-05	6
32969	1e-05	-1e-05	-1e-05	1e-05	-3e-05	-0.00069	-0.00015	-7e-05	6
32970	1e-05	-1e-05	-1e-05	1e-05	-3e-05	-0.00069	-0.00015	-7e-05	6
32971	1e-05	-1e-05	-1e-05	1e-05	-3e-05	-0.00069	-0.00015	-7e-05	6
32972	1e-05	-1e-05	-1e-05	1e-05	-3e-05	-0.00069	-0.00015	-7e-05	6
32973	1e-05	-1e-05	-1e-05	1e-05	-3e-05	-0.00069	-0.00015	-7e-05	6
32974	1e-05	-1e-05	-1e-05	1e-05	-3e-05	-0.00069	-0.00015	-7e-05	6
32975	1e-05	-1e-05	-1e-05	1e-05	-3e-05	-0.00069	-0.00015	-7e-05	6
32976	1e-05	-1e-05	-1e-05	1e-05	-3e-05	-0.00069	-0.00015	-7e-05	6
32977	1e-05	-1e-05	-1e-05	1e-05	-3e-05	-0.00069	-0.00015	-7e-05	6
32978	1e-05	-1e-05	-1e-05	1e-05	-3e-05	-0.00069	-0.00015	-7e-05	6
32979	-6e-05	-2e-05	-2e-05	1e-05	1e-05	-0.00014	-0.00016	-0.00018	6
32980	-6e-05	0	-1e-05	-5e-05	-5e-05	0.00011	8e-05	-0.00016	6
32981	-6e-05	0	-1e-05	-5e-05	-5e-05	0.00011	8e-05	-0.00016	6
32982	-6e-05	0	-1e-05	-5e-05	-5e-05	0.00011	8e-05	-0.00016	6
32983	-6e-05	0	-1e-05	-5e-05	-5e-05	0.00011	8e-05	-0.00016	6
32984	-6e-05	0	-1e-05	-5e-05	-5e-05	0.00011	8e-05	-0.00016	6
32985	-6e-05	0	-1e-05	-5e-05	-5e-05	0.00011	8e-05	-0.00016	6
32986	-6e-05	0	-1e-05	-5e-05	-5e-05	0.00011	8e-05	-0.00016	6
32988	-6e-05	0	-1e-05	-5e-05	-5e-05	0.00011	8e-05	-0.00016	6
32989	-6e-05	0	-1e-05	-5e-05	-5e-05	0.00011	8e-05	-0.00016	6
32990	-6e-05	0	-1e-05	-5e-05	-5e-05	0.00011	8e-05	-0.00016	6
32991	-6e-05	0	-1e-05	-5e-05	-5e-05	0.00011	8e-05	-0.00016	6
32992	-6e-05	0	-1e-05	-5e-05	-5e-05	0.00011	8e-05	-0.00016	6
32993	-6e-05	0	-1e-05	-5e-05	-5e-05	0.00011	8e-05	-0.00016	6
32994	-6e-05	0	-1e-05	-5e-05	-5e-05	0.00011	8e-05	-0.00016	6
32995	-6e-05	0	-1e-05	-5e-05	-5e-05	0.00011	8e-05	-0.00016	6
32996	-6e-05	0	-1e-05	-5e-05	-5e-05	0.00011	8e-05	-0.00016	6
32997	-6e-05	0	-1e-05	-5e-05	-5e-05	0.00011	8e-05	-0.00016	6
32998	-6e-05	0	-1e-05	-5e-05	-5e-05	0.00011	8e-05	-0.00016	6
32999	-6e-05	0	-1e-05	-5e-05	-5e-05	0.00011	8e-05	-0.00016	6
33000	-6e-05	0	-1e-05	-5e-05	-5e-05	0.00011	8e-05	-0.00016	6
33001	-6e-05	0	-1e-05	-5e-05	-5e-05	0.00011	8e-05	-0.00016	6
33002	-6e-05	1e-05	-1e-05	0	-0.00011	-0.00012	-3e-05	-6e-05	6
33003	-6e-05	1e-05	-1e-05	0	-0.00011	-0.00012	-3e-05	-6e-05	6
33004	-6e-05	1e-05	-1e-05	0	-0.00011	-0.00012	-3e-05	-6e-05	6
33005	-6e-05	1e-05	-1e-05	0	-0.00011	-0.00012	-3e-05	-6e-05	6
33006	-6e-05	1e-05	-1e-05	0	-0.00011	-0.00012	-3e-05	-6e-05	6
33007	-6e-05	1e-05	-1e-05	0	-0.00011	-0.00012	-3e-05	-6e-05	6
33008	-6e-05	1e-05	-1e-05	0	-0.00011	-0.00012	-3e-05	-6e-05	6
33009	-6e-05	1e-05	-1e-05	0	-0.00011	-0.00012	-3e-05	-6e-05	6
33010	-6e-05	1e-05	-1e-05	0	-0.00011	-0.00012	-3e-05	-6e-05	6
33011	-6e-05	1e-05	-1e-05	0	-0.00011	-0.00012	-3e-05	-6e-05	6
33012	-6e-05	1e-05	-1e-05	0	-0.00011	-0.00012	-3e-05	-6e-05	6
33013	-6e-05	1e-05	-1e-05	0	-0.00011	-0.00012	-3e-05	-6e-05	6
33014	-6e-05	1e-05	-1e-05	0	-0.00011	-0.00012	-3e-05	-6e-05	6
33015	-6e-05	1e-05	-1e-05	0	-0.00011	-0.00012	-3e-05	-6e-05	6
33016	-6e-05	1e-05	-1e-05	0	-0.00011	-0.00012	-3e-05	-6e-05	6
33017	-6e-05	1e-05	-1e-05	0	-0.00011	-0.00012	-3e-05	-6e-05	6
33018	-6e-05	1e-05	-1e-05	0	-0.00011	-0.00012	-3e-05	-6e-05	6
33019	-6e-05	1e-05	-1e-05	0	-0.00011	-0.00012	-3e-05	-6e-05	6
33020	-6e-05	1e-05	-1e-05	0	-0.00011	-0.00012	-3e-05	-6e-05	6
33021	-6e-05	1e-05	-1e-05	0	-0.00011	-0.00012	-3e-05	-6e-05	6
33022	-6e-05	1e-05	-1e-05	0	-0.00011	-0.00012	-3e-05	-6e-05	6
33023	-6e-05	1e-05	-1e-05	0	-0.00011	-0.00012	-3e-05	-6e-05	6
33024	-6e-05	1e-05	-1e-05	0	-0.00011	-0.00012	-3e-05	-6e-05	6
33025	0.00011	0	-1e-05	-2e-05	-0.00015	3e-05	3e-05	0.00013	6
33026	-0.00024	-2e-05	-2e-05	-4e-05	-0.00014	0.00038	8e-05	-0.00014	6
33027	-0.00024	-2e-05	-2e-05	-4e-05	-0.00014	0.00038	8e-05	-0.00014	6
33028	-0.00024	-2e-05	-2e-05	-4e-05	-0.00014	0.00038	8e-05	-0.00014	6
33029	-0.00024	-2e-05	-2e-05	-4e-05	-0.00014	0.00038	8e-05	-0.00014	6
33030	-0.00024	-2e-05	-2e-05	-4e-05	-0.00014	0.00038	8e-05	-0.00014	6
33031	-0.00024	-2e-05	-2e-05	-4e-05	-0.00014	0.00038	8e-05	-0.00014	6
33032	-0.00024	-2e-05	-2e-05	-4e-05	-0.00014	0.00038	8e-05	-0.00014	6
33033	-0.00024	-2e-05	-2e-05	-4e-05	-0.00014	0.00038	8e-05	-0.00014	6
33034	-0.00024	-2e-05	-2e-05	-4e-05	-0.00014	0.00038	8e-05	-0.00014	6
33035	-0.00024	-2e-05	-2e-05	-4e-05	-0.00014	0.00038	8e-05	-0.00014	6
33036	-0.00024	-2e-05	-2e-05	-4e-05	-0.00014	0.00038	8e-05	-0.00014	6
33038	-0.00024	-2e-05	-2e-05	-4e-05	-0.00014	0.00038	8e-05	-0.00014	6
33039	-0.00024	-2e-05	-2e-05	-4e-05	-0.00014	0.00038	8e-05	-0.00014	6
33040	7e-05	1e-05	0	-6e-05	-0.00014	8e-05	-7e-05	-0.0001	6
33041	7e-05	1e-05	0	-6e-05	-0.00014	8e-05	-7e-05	-0.0001	6
33042	7e-05	1e-05	0	-6e-05	-0.00014	8e-05	-7e-05	-0.0001	6
33043	7e-05	1e-05	0	-6e-05	-0.00014	8e-05	-7e-05	-0.0001	6
33044	7e-05	1e-05	0	-6e-05	-0.00014	8e-05	-7e-05	-0.0001	6
33045	7e-05	1e-05	0	-6e-05	-0.00014	8e-05	-7e-05	-0.0001	6
33046	7e-05	1e-05	0	-6e-05	-0.00014	8e-05	-7e-05	-0.0001	6
33047	7e-05	1e-05	0	-6e-05	-0.00014	8e-05	-7e-05	-0.0001	6
33048	7e-05	1e-05	0	-6e-05	-0.00014	8e-05	-7e-05	-0.0001	6
33049	7e-05	1e-05	0	-6e-05	-0.00014	8e-05	-7e-05	-0.0001	6
33050	7e-05	1e-05	0	-6e-05	-0.00014	8e-05	-7e-05	-0.0001	6
33051	7e-05	1e-05	0	-6e-05	-0.00014	8e-05	-7e-05	-0.0001	6
33052	7e-05	1e-05	0	-6e-05	-0.00014	8e-05	-7e-05	-0.0001	6
33053	7e-05	1e-05	0	-6e-05	-0.00014	8e-05	-7e-05	-0.0001	6
33054	7e-05	1e-05	0	-6e-05	-0.00014	8e-05	-7e-05	-0.0001	6
33055	7e-05	1e-05	0	-6e-05	-0.00014	8e-05	-7e-05	-0.0001	6
33056	7e-05	1e-05	0	-6e-05	-0.00014	8e-05	-7e-05	-0.0001	6
33057	7e-05	1e-05	0	-6e-05	-0.00014	8e-05	-7e-05	-0.0001	6
33058	7e-05	1e-05	0	-6e-05	-0.00014	8e-05	-7e-05	-0.0001	6
33059	7e-05	1e-05	0	-6e-05	-0.00014	8e-05	-7e-05	-0.0001	6
33060	7e-05	1e-05	0	-6e-05	-0.00014	8e-05	-7e-05	-0.0001	6
33061	7e-05	1e-05	0	-6e-05	-0.00014	8e-05	-7e-05	-0.0001	6
33062	-1e-05	-2e-05	-2e-05	1e-05	0.0001	0.00064	1e-05	-2e-05	6
33063	-1e-05	-2e-05	-2e-05	1e-05	0.0001	0.00064	1e-05	-2e-05	6
33064	-1e-05	-2e-05	-2e-05	1e-05	0.0001	0.00064	1e-05	-2e-05	6
33065	-1e-05	-2e-05	-2e-05	1e-05	0.0001	0.00064	1e-05	-2e-05	6
33066	-1e-05	-2e-05	-2e-05	1e-05	0.0001	0.00064	1e-05	-2e-05	6
33067	-1e-05	-2e-05	-2e-05	1e-05	0.0001	0.00064	1e-05	-2e-05	6
33068	-1e-05	-2e-05	-2e-05	1e-05	0.0001	0.00064	1e-05	-2e-05	6
33069	-1e-05	-2e-05	-2e-05	1e-05	0.0001	0.00064	1e-05	-2e-05	6
33070	-1e-05	-2e-05	-2e-05	1e-05	0.0001	0.00064	1e-05	-2e-05	6
33071	-1e-05	-2e-05	-2e-05	1e-05	0.0001	0.00064	1e-05	-2e-05	6
33072	-1e-05	-2e-05	-2e-05	1e-05	0.0001	0.00064	1e-05	-2e-05	6
33073	-1e-05	-2e-05	-2e-05	1e-05	0.0001	0.00064	1e-05	-2e-05	6
33074	-1e-05	-2e-05	-2e-05	1e-05	0.0001	0.00064	1e-05	-2e-05	6
33075	-1e-05	-2e-05	-2e-05	1e-05	0.0001	0.00064	1e-05	-2e-05	6
33076	-1e-05	-2e-05	-2e-05	1e-05	0.0001	0.00064	1e-05	-2e-05	6
33077	-1e-05	-2e-05	-2e-05	1e-05	0.0001	0.00064	1e-05	-2e-05	6
33078	-1e-05	-2e-05	-2e-05	1e-05	0.0001	0.00064	1e-05	-2e-05	6
33079	-1e-05	-2e-05	-2e-05	1e-05	0.0001	0.00064	1e-05	-2e-05	6
33080	-1e-05	-2e-05	-2e-05	1e-05	0.0001	0.00064	1e-05	-2e-05	6
33081	-1e-05	-2e-05	-2e-05	1e-05	0.0001	0.00064	1e-05	-2e-05	6
33082	-1e-05	-2e-05	-2e-05	1e-05	0.0001	0.00064	1e-05	-2e-05	6
33083	-1e-05	-2e-05	-2e-05	1e-05	0.0001	0.00064	1e-05	-2e-05	6
33084	-1e-05	-2e-05	-2e-05	1e-05	0.0001	0.00064	1e-05	-2e-05	6
33085	-5e-05	-1e-05	-1e-05	0	-6e-05	-0.00026	-0.00012	-0.00017	6
33086	3e-05	-1e-05	-3e-05	-3e-05	-6e-05	0.00026	-5e-05	5e-05	6
33088	3e-05	-1e-05	-3e-05	-3e-05	-6e-05	0.00026	-5e-05	5e-05	6
33089	3e-05	-1e-05	-3e-05	-3e-05	-6e-05	0.00026	-5e-05	5e-05	6
33090	3e-05	-1e-05	-3e-05	-3e-05	-6e-05	0.00026	-5e-05	5e-05	6
33091	3e-05	-1e-05	-3e-05	-3e-05	-6e-05	0.00026	-5e-05	5e-05	6
33092	3e-05	-1e-05	-3e-05	-3e-05	-6e-05	0.00026	-5e-05	5e-05	6
33093	3e-05	-1e-05	-3e-05	-3e-05	-6e-05	0.00026	-5e-05	5e-05	6
33094	3e-05	-1e-05	-3e-05	-3e-05	-6e-05	0.00026	-5e-05	5e-05	6
33095	3e-05	-1e-05	-3e-05	-3e-05	-6e-05	0.00026	-5e-05	5e-05	6
33096	3e-05	-1e-05	-3e-05	-3e-05	-6e-05	0.00026	-5e-05	5e-05	6
33097	3e-05	-1e-05	-3e-05	-3e-05	-6e-05	0.00026	-5e-05	5e-05	6
33098	3e-05	-1e-05	-3e-05	-3e-05	-6e-05	0.00026	-5e-05	5e-05	6
33099	-5e-05	1e-05	2e-05	6e-05	0.00012	0.0001	-1e-05	1e-05	6
33100	4e-05	0	-1e-05	-4e-05	2e-05	-7e-05	0	0.00012	6
33101	4e-05	0	-1e-05	-4e-05	2e-05	-7e-05	0	0.00012	6
33102	4e-05	0	-1e-05	-4e-05	2e-05	-7e-05	0	0.00012	6
33103	4e-05	0	-1e-05	-4e-05	2e-05	-7e-05	0	0.00012	6
33104	4e-05	0	-1e-05	-4e-05	2e-05	-7e-05	0	0.00012	6
33105	4e-05	0	-1e-05	-4e-05	2e-05	-7e-05	0	0.00012	6
33106	4e-05	0	-1e-05	-4e-05	2e-05	-7e-05	0	0.00012	6
33107	4e-05	0	-1e-05	-4e-05	2e-05	-7e-05	0	0.00012	6
33108	4e-05	0	-1e-05	-4e-05	2e-05	-7e-05	0	0.00012	6
33109	4e-05	0	-1e-05	-4e-05	2e-05	-7e-05	0	0.00012	6
33110	4e-05	0	-1e-05	-4e-05	2e-05	-7e-05	0	0.00012	6
33111	4e-05	0	-1e-05	-4e-05	2e-05	-7e-05	0	0.00012	6
33112	4e-05	0	-1e-05	-4e-05	2e-05	-7e-05	0	0.00012	6
33113	4e-05	0	-1e-05	-4e-05	2e-05	-7e-05	0	0.00012	6
33114	4e-05	0	-1e-05	-4e-05	2e-05	-7e-05	0	0.00012	6
33115	4e-05	0	-1e-05	-4e-05	2e-05	-7e-05	0	0.00012	6
33116	4e-05	0	-1e-05	-4e-05	2e-05	-7e-05	0	0.00012	6
33117	4e-05	0	-1e-05	-4e-05	2e-05	-7e-05	0	0.00012	6
33118	4e-05	0	-1e-05	-4e-05	2e-05	-7e-05	0	0.00012	6
33119	4e-05	0	-1e-05	-4e-05	2e-05	-7e-05	0	0.00012	6
33120	4e-05	0	-1e-05	-4e-05	2e-05	-7e-05	0	0.00012	6
33121	4e-05	0	-1e-05	-4e-05	2e-05	-7e-05	0	0.00012	6
33122	3e-05	-2e-05	1e-05	2e-05	0.00013	-0.00021	2e-05	0	6
33123	3e-05	-2e-05	1e-05	2e-05	0.00013	-0.00021	2e-05	0	6
33124	3e-05	-2e-05	1e-05	2e-05	0.00013	-0.00021	2e-05	0	6
33125	3e-05	-2e-05	1e-05	2e-05	0.00013	-0.00021	2e-05	0	6
33126	3e-05	-2e-05	1e-05	2e-05	0.00013	-0.00021	2e-05	0	6
33127	3e-05	-2e-05	1e-05	2e-05	0.00013	-0.00021	2e-05	0	6
33128	3e-05	-2e-05	1e-05	2e-05	0.00013	-0.00021	2e-05	0	6
33129	3e-05	-2e-05	1e-05	2e-05	0.00013	-0.00021	2e-05	0	6
33130	3e-05	-2e-05	1e-05	2e-05	0.00013	-0.00021	2e-05	0	6
33131	3e-05	-2e-05	1e-05	2e-05	0.00013	-0.00021	2e-05	0	6
33132	3e-05	-2e-05	1e-05	2e-05	0.00013	-0.00021	2e-05	0	6
33133	3e-05	-2e-05	1e-05	2e-05	0.00013	-0.00021	2e-05	0	6
33134	3e-05	-2e-05	1e-05	2e-05	0.00013	-0.00021	2e-05	0	6
33135	3e-05	-2e-05	1e-05	2e-05	0.00013	-0.00021	2e-05	0	6
33136	3e-05	-2e-05	1e-05	2e-05	0.00013	-0.00021	2e-05	0	6
33138	3e-05	-2e-05	1e-05	2e-05	0.00013	-0.00021	2e-05	0	6
33139	3e-05	-2e-05	1e-05	2e-05	0.00013	-0.00021	2e-05	0	6
33140	3e-05	-2e-05	1e-05	2e-05	0.00013	-0.00021	2e-05	0	6
33141	3e-05	-2e-05	1e-05	2e-05	0.00013	-0.00021	2e-05	0	6
33142	3e-05	-2e-05	1e-05	2e-05	0.00013	-0.00021	2e-05	0	6
33143	3e-05	-2e-05	1e-05	2e-05	0.00013	-0.00021	2e-05	0	6
33144	3e-05	-2e-05	1e-05	2e-05	0.00013	-0.00021	2e-05	0	6
33145	5e-05	0	-2e-05	-2e-05	2e-05	-0.00046	-4e-05	0.0001	6
33146	1e-05	0	-2e-05	-2e-05	-0.0002	-0.00037	-0.0001	-0.00019	6
33147	1e-05	0	-2e-05	-2e-05	-0.0002	-0.00037	-0.0001	-0.00019	6
33148	1e-05	0	-2e-05	-2e-05	-0.0002	-0.00037	-0.0001	-0.00019	6
33149	1e-05	0	-2e-05	-2e-05	-0.0002	-0.00037	-0.0001	-0.00019	6
33150	1e-05	0	-2e-05	-2e-05	-0.0002	-0.00037	-0.0001	-0.00019	6
33151	1e-05	0	-2e-05	-2e-05	-0.0002	-0.00037	-0.0001	-0.00019	6
33152	1e-05	0	-2e-05	-2e-05	-0.0002	-0.00037	-0.0001	-0.00019	6
33153	1e-05	0	-2e-05	-2e-05	-0.0002	-0.00037	-0.0001	-0.00019	6
33154	1e-05	0	-2e-05	-2e-05	-0.0002	-0.00037	-0.0001	-0.00019	6
33155	1e-05	0	-2e-05	-2e-05	-0.0002	-0.00037	-0.0001	-0.00019	6
33156	1e-05	0	-2e-05	-2e-05	-0.0002	-0.00037	-0.0001	-0.00019	6
33157	1e-05	0	-2e-05	-2e-05	-0.0002	-0.00037	-0.0001	-0.00019	6
33158	1e-05	0	-2e-05	-2e-05	-0.0002	-0.00037	-0.0001	-0.00019	6
33159	1e-05	0	-2e-05	-2e-05	-0.0002	-0.00037	-0.0001	-0.00019	6
33160	7e-05	3e-05	5e-05	0.00015	0.00034	0.00036	5e-05	7e-05	6
33161	7e-05	3e-05	5e-05	0.00015	0.00034	0.00036	5e-05	7e-05	6
33162	7e-05	3e-05	5e-05	0.00015	0.00034	0.00036	5e-05	7e-05	6
33163	7e-05	3e-05	5e-05	0.00015	0.00034	0.00036	5e-05	7e-05	6
33164	7e-05	3e-05	5e-05	0.00015	0.00034	0.00036	5e-05	7e-05	6
33165	7e-05	3e-05	5e-05	0.00015	0.00034	0.00036	5e-05	7e-05	6
33166	7e-05	3e-05	5e-05	0.00015	0.00034	0.00036	5e-05	7e-05	6
33167	7e-05	3e-05	5e-05	0.00015	0.00034	0.00036	5e-05	7e-05	6
33168	7e-05	3e-05	5e-05	0.00015	0.00034	0.00036	5e-05	7e-05	6
33169	7e-05	3e-05	5e-05	0.00015	0.00034	0.00036	5e-05	7e-05	6
33170	7e-05	3e-05	5e-05	0.00015	0.00034	0.00036	5e-05	7e-05	6
33171	7e-05	3e-05	5e-05	0.00015	0.00034	0.00036	5e-05	7e-05	6
33172	7e-05	3e-05	5e-05	0.00015	0.00034	0.00036	5e-05	7e-05	6
33173	7e-05	3e-05	5e-05	0.00015	0.00034	0.00036	5e-05	7e-05	6
33174	7e-05	3e-05	5e-05	0.00015	0.00034	0.00036	5e-05	7e-05	6
33175	7e-05	3e-05	5e-05	0.00015	0.00034	0.00036	5e-05	7e-05	6
33176	7e-05	3e-05	5e-05	0.00015	0.00034	0.00036	5e-05	7e-05	6
33177	7e-05	3e-05	5e-05	0.00015	0.00034	0.00036	5e-05	7e-05	6
33178	7e-05	3e-05	5e-05	0.00015	0.00034	0.00036	5e-05	7e-05	6
33179	7e-05	3e-05	5e-05	0.00015	0.00034	0.00036	5e-05	7e-05	6
33180	7e-05	3e-05	5e-05	0.00015	0.00034	0.00036	5e-05	7e-05	6
33181	7e-05	3e-05	5e-05	0.00015	0.00034	0.00036	5e-05	7e-05	6
33182	2e-05	-3e-05	-4e-05	-6e-05	-2e-05	-0.00033	2e-05	7e-05	6
33183	2e-05	-3e-05	-4e-05	-6e-05	-2e-05	-0.00033	2e-05	7e-05	6
33184	2e-05	-3e-05	-4e-05	-6e-05	-2e-05	-0.00033	2e-05	7e-05	6
33185	2e-05	-3e-05	-4e-05	-6e-05	-2e-05	-0.00033	2e-05	7e-05	6
33186	2e-05	-3e-05	-4e-05	-6e-05	-2e-05	-0.00033	2e-05	7e-05	6
33188	2e-05	-3e-05	-4e-05	-6e-05	-2e-05	-0.00033	2e-05	7e-05	6
33189	2e-05	-3e-05	-4e-05	-6e-05	-2e-05	-0.00033	2e-05	7e-05	6
33190	2e-05	-3e-05	-4e-05	-6e-05	-2e-05	-0.00033	2e-05	7e-05	6
33191	2e-05	-3e-05	-4e-05	-6e-05	-2e-05	-0.00033	2e-05	7e-05	6
33192	2e-05	-3e-05	-4e-05	-6e-05	-2e-05	-0.00033	2e-05	7e-05	6
33193	2e-05	-3e-05	-4e-05	-6e-05	-2e-05	-0.00033	2e-05	7e-05	6
33194	2e-05	-3e-05	-4e-05	-6e-05	-2e-05	-0.00033	2e-05	7e-05	6
33195	2e-05	-3e-05	-4e-05	-6e-05	-2e-05	-0.00033	2e-05	7e-05	6
33196	2e-05	-3e-05	-4e-05	-6e-05	-2e-05	-0.00033	2e-05	7e-05	6
33197	2e-05	-3e-05	-4e-05	-6e-05	-2e-05	-0.00033	2e-05	7e-05	6
33198	2e-05	-3e-05	-4e-05	-6e-05	-2e-05	-0.00033	2e-05	7e-05	6
33199	2e-05	-3e-05	-4e-05	-6e-05	-2e-05	-0.00033	2e-05	7e-05	6
33200	2e-05	-3e-05	-4e-05	-6e-05	-2e-05	-0.00033	2e-05	7e-05	6
33201	2e-05	-3e-05	-4e-05	-6e-05	-2e-05	-0.00033	2e-05	7e-05	6
33202	2e-05	-3e-05	-4e-05	-6e-05	-2e-05	-0.00033	2e-05	7e-05	6
33203	2e-05	-3e-05	-4e-05	-6e-05	-2e-05	-0.00033	2e-05	7e-05	6
33204	2e-05	-3e-05	-4e-05	-6e-05	-2e-05	-0.00033	2e-05	7e-05	6
33205	0.00012	-4e-05	-6e-05	-4e-05	-0.00015	0.00012	1e-05	5e-05	6
33206	0.00012	4e-05	2e-05	6e-05	0.00015	0.00017	0.00012	0.00024	6
33207	0.00012	4e-05	2e-05	6e-05	0.00015	0.00017	0.00012	0.00024	6
33208	0.00012	4e-05	2e-05	6e-05	0.00015	0.00017	0.00012	0.00024	6
33209	0.00012	4e-05	2e-05	6e-05	0.00015	0.00017	0.00012	0.00024	6
33210	0.00012	4e-05	2e-05	6e-05	0.00015	0.00017	0.00012	0.00024	6
33211	0.00012	4e-05	2e-05	6e-05	0.00015	0.00017	0.00012	0.00024	6
33212	0.00012	4e-05	2e-05	6e-05	0.00015	0.00017	0.00012	0.00024	6
33213	0.00012	4e-05	2e-05	6e-05	0.00015	0.00017	0.00012	0.00024	6
33214	0.00012	4e-05	2e-05	6e-05	0.00015	0.00017	0.00012	0.00024	6
33215	0.00012	4e-05	2e-05	6e-05	0.00015	0.00017	0.00012	0.00024	6
33216	0.00012	4e-05	2e-05	6e-05	0.00015	0.00017	0.00012	0.00024	6
33217	0.00012	4e-05	2e-05	6e-05	0.00015	0.00017	0.00012	0.00024	6
33218	0.00012	4e-05	2e-05	6e-05	0.00015	0.00017	0.00012	0.00024	6
33219	-6e-05	-5e-05	-1e-05	2e-05	0.00032	0.00018	0	-0.00014	6
33220	5e-05	-1e-05	1e-05	-2e-05	-5e-05	-0.00019	-8e-05	0.0001	6
33221	5e-05	-1e-05	1e-05	-2e-05	-5e-05	-0.00019	-8e-05	0.0001	6
33222	5e-05	-1e-05	1e-05	-2e-05	-5e-05	-0.00019	-8e-05	0.0001	6
33223	5e-05	-1e-05	1e-05	-2e-05	-5e-05	-0.00019	-8e-05	0.0001	6
33224	5e-05	-1e-05	1e-05	-2e-05	-5e-05	-0.00019	-8e-05	0.0001	6
33225	5e-05	-1e-05	1e-05	-2e-05	-5e-05	-0.00019	-8e-05	0.0001	6
33226	5e-05	-1e-05	1e-05	-2e-05	-5e-05	-0.00019	-8e-05	0.0001	6
33227	5e-05	-1e-05	1e-05	-2e-05	-5e-05	-0.00019	-8e-05	0.0001	6
33228	5e-05	-1e-05	1e-05	-2e-05	-5e-05	-0.00019	-8e-05	0.0001	6
33229	5e-05	-1e-05	1e-05	-2e-05	-5e-05	-0.00019	-8e-05	0.0001	6
33230	5e-05	-1e-05	1e-05	-2e-05	-5e-05	-0.00019	-8e-05	0.0001	6
33231	5e-05	-1e-05	1e-05	-2e-05	-5e-05	-0.00019	-8e-05	0.0001	6
33232	5e-05	-1e-05	1e-05	-2e-05	-5e-05	-0.00019	-8e-05	0.0001	6
33233	5e-05	-1e-05	1e-05	-2e-05	-5e-05	-0.00019	-8e-05	0.0001	6
33234	5e-05	-1e-05	1e-05	-2e-05	-5e-05	-0.00019	-8e-05	0.0001	6
33235	5e-05	-1e-05	1e-05	-2e-05	-5e-05	-0.00019	-8e-05	0.0001	6
33236	5e-05	-1e-05	1e-05	-2e-05	-5e-05	-0.00019	-8e-05	0.0001	6
