4719	8e-05	-1e-05	-4e-05	3e-05	0.00031	-1e-05	8e-05	-3e-05	2
4720	8e-05	-1e-05	-4e-05	3e-05	0.00031	-1e-05	8e-05	-3e-05	2
4721	8e-05	-1e-05	-4e-05	3e-05	0.00031	-1e-05	8e-05	-3e-05	2
4722	8e-05	-1e-05	-4e-05	3e-05	0.00031	-1e-05	8e-05	-3e-05	2
4723	8e-05	-1e-05	-4e-05	3e-05	0.00031	-1e-05	8e-05	-3e-05	2
4724	-0.0001	5e-05	2e-05	-0.00038	-0.00012	-0.0006	-0.00022	-0.00015	2
4725	-8e-05	-9e-05	-0.00012	-2e-05	1e-05	0.00032	0.00014	0.00015	2
4726	1e-05	1e-05	0.00022	0.00035	-8e-05	-0.00013	-0.00012	5e-05	2
4727	1e-05	1e-05	0.00022	0.00035	-8e-05	-0.00013	-0.00012	5e-05	2
4728	1e-05	1e-05	0.00022	0.00035	-8e-05	-0.00013	-0.00012	5e-05	2
4729	1e-05	1e-05	0.00022	0.00035	-8e-05	-0.00013	-0.00012	5e-05	2
4730	1e-05	1e-05	0.00022	0.00035	-8e-05	-0.00013	-0.00012	5e-05	2
4731	1e-05	1e-05	0.00022	0.00035	-8e-05	-0.00013	-0.00012	5e-05	2
4732	1e-05	1e-05	0.00022	0.00035	-8e-05	-0.00013	-0.00012	5e-05	2
4733	1e-05	1e-05	0.00022	0.00035	-8e-05	-0.00013	-0.00012	5e-05	2
4734	1e-05	1e-05	0.00022	0.00035	-8e-05	-0.00013	-0.00012	5e-05	2
4735	1e-05	1e-05	0.00022	0.00035	-8e-05	-0.00013	-0.00012	5e-05	2
4736	1e-05	1e-05	0.00022	0.00035	-8e-05	-0.00013	-0.00012	5e-05	2
4739	1e-05	1e-05	0.00022	0.00035	-8e-05	-0.00013	-0.00012	5e-05	2
4740	1e-05	1e-05	0.00022	0.00035	-8e-05	-0.00013	-0.00012	5e-05	2
4741	1e-05	1e-05	0.00022	0.00035	-8e-05	-0.00013	-0.00012	5e-05	2
4742	1e-05	1e-05	0.00022	0.00035	-8e-05	-0.00013	-0.00012	5e-05	2
4743	1e-05	1e-05	0.00022	0.00035	-8e-05	-0.00013	-0.00012	5e-05	2
4744	1e-05	1e-05	0.00022	0.00035	-8e-05	-0.00013	-0.00012	5e-05	2
4745	1e-05	1e-05	0.00022	0.00035	-8e-05	-0.00013	-0.00012	5e-05	2
4746	1e-05	1e-05	0.00022	0.00035	-8e-05	-0.00013	-0.00012	5e-05	2
4747	0	1e-05	-1e-05	0.00021	-2e-05	7e-05	7e-05	-5e-05	2
4748	0.00013	7e-05	0.00014	2e-05	-3e-05	0	-5e-05	0.00012	2
4749	0.00013	7e-05	0.00014	2e-05	-3e-05	0	-5e-05	0.00012	2
4750	0.00013	7e-05	0.00014	2e-05	-3e-05	0	-5e-05	0.00012	2
4751	0.00013	7e-05	0.00014	2e-05	-3e-05	0	-5e-05	0.00012	2
4752	0.00013	7e-05	0.00014	2e-05	-3e-05	0	-5e-05	0.00012	2
4753	0.00013	7e-05	0.00014	2e-05	-3e-05	0	-5e-05	0.00012	2
4754	0.00013	7e-05	0.00014	2e-05	-3e-05	0	-5e-05	0.00012	2
4755	0.00013	7e-05	0.00014	2e-05	-3e-05	0	-5e-05	0.00012	2
4756	0.00013	7e-05	0.00014	2e-05	-3e-05	0	-5e-05	0.00012	2
4757	0.00013	7e-05	0.00014	2e-05	-3e-05	0	-5e-05	0.00012	2
4758	0.00013	7e-05	0.00014	2e-05	-3e-05	0	-5e-05	0.00012	2
4759	0.00013	7e-05	0.00014	2e-05	-3e-05	0	-5e-05	0.00012	2
4760	0.00013	7e-05	0.00014	2e-05	-3e-05	0	-5e-05	0.00012	2
4761	0.00013	7e-05	0.00014	2e-05	-3e-05	0	-5e-05	0.00012	2
4762	-8e-05	-9e-05	-0.00037	-0.00067	-0.00016	0.00015	0.00015	-3e-05	2
4763	-3e-05	-2e-05	-0.00018	-0.00021	-0.00012	-5e-05	0.00027	5e-05	2
4764	-3e-05	-2e-05	-0.00018	-0.00021	-0.00012	-5e-05	0.00027	5e-05	2
4765	-3e-05	-2e-05	-0.00018	-0.00021	-0.00012	-5e-05	0.00027	5e-05	2
4766	-3e-05	-2e-05	-0.00018	-0.00021	-0.00012	-5e-05	0.00027	5e-05	2
4767	-3e-05	-2e-05	-0.00018	-0.00021	-0.00012	-5e-05	0.00027	5e-05	2
4768	-3e-05	-2e-05	-0.00018	-0.00021	-0.00012	-5e-05	0.00027	5e-05	2
4769	-3e-05	-2e-05	-0.00018	-0.00021	-0.00012	-5e-05	0.00027	5e-05	2
4770	-3e-05	-2e-05	-0.00018	-0.00021	-0.00012	-5e-05	0.00027	5e-05	2
4771	-3e-05	-2e-05	-0.00018	-0.00021	-0.00012	-5e-05	0.00027	5e-05	2
4772	-3e-05	-2e-05	-0.00018	-0.00021	-0.00012	-5e-05	0.00027	5e-05	2
4773	-3e-05	-2e-05	-0.00018	-0.00021	-0.00012	-5e-05	0.00027	5e-05	2
4774	-3e-05	-2e-05	-0.00018	-0.00021	-0.00012	-5e-05	0.00027	5e-05	2
4775	-3e-05	-2e-05	-0.00018	-0.00021	-0.00012	-5e-05	0.00027	5e-05	2
4776	-3e-05	-2e-05	-0.00018	-0.00021	-0.00012	-5e-05	0.00027	5e-05	2
4777	-3e-05	-2e-05	-0.00018	-0.00021	-0.00012	-5e-05	0.00027	5e-05	2
4778	-3e-05	-2e-05	-0.00018	-0.00021	-0.00012	-5e-05	0.00027	5e-05	2
4779	-3e-05	-2e-05	-0.00018	-0.00021	-0.00012	-5e-05	0.00027	5e-05	2
4780	-3e-05	-2e-05	-0.00018	-0.00021	-0.00012	-5e-05	0.00027	5e-05	2
4781	-3e-05	-2e-05	-0.00018	-0.00021	-0.00012	-5e-05	0.00027	5e-05	2
4782	-3e-05	-2e-05	-0.00018	-0.00021	-0.00012	-5e-05	0.00027	5e-05	2
4783	-3e-05	-2e-05	-0.00018	-0.00021	-0.00012	-5e-05	0.00027	5e-05	2
4784	-3e-05	-2e-05	-0.00018	-0.00021	-0.00012	-5e-05	0.00027	5e-05	2
4785	0.00012	4e-05	8e-05	-5e-05	-7e-05	0.00041	0.00042	0.00015	2
4786	0.00012	4e-05	8e-05	-5e-05	-7e-05	0.00041	0.00042	0.00015	2
4788	0.00012	4e-05	8e-05	-5e-05	-7e-05	0.00041	0.00042	0.00015	2
4789	0.00012	4e-05	8e-05	-5e-05	-7e-05	0.00041	0.00042	0.00015	2
4790	0.00012	4e-05	8e-05	-5e-05	-7e-05	0.00041	0.00042	0.00015	2
4791	0.00012	4e-05	8e-05	-5e-05	-7e-05	0.00041	0.00042	0.00015	2
4792	-5e-05	-4e-05	-0.00014	-0.00011	0.00014	0.00013	4e-05	9e-05	2
4793	-5e-05	-4e-05	-0.00014	-0.00011	0.00014	0.00013	4e-05	9e-05	2
4794	-5e-05	-4e-05	-0.00014	-0.00011	0.00014	0.00013	4e-05	9e-05	2
4795	-5e-05	-4e-05	-0.00014	-0.00011	0.00014	0.00013	4e-05	9e-05	2
4796	-5e-05	-4e-05	-0.00014	-0.00011	0.00014	0.00013	4e-05	9e-05	2
4797	-5e-05	-4e-05	-0.00014	-0.00011	0.00014	0.00013	4e-05	9e-05	2
4798	-5e-05	-4e-05	-0.00014	-0.00011	0.00014	0.00013	4e-05	9e-05	2
4799	-5e-05	-4e-05	-0.00014	-0.00011	0.00014	0.00013	4e-05	9e-05	2
4800	-5e-05	-4e-05	-0.00014	-0.00011	0.00014	0.00013	4e-05	9e-05	2
4801	-5e-05	-4e-05	-0.00014	-0.00011	0.00014	0.00013	4e-05	9e-05	2
4802	-5e-05	-4e-05	-0.00014	-0.00011	0.00014	0.00013	4e-05	9e-05	2
4803	-5e-05	-4e-05	-0.00014	-0.00011	0.00014	0.00013	4e-05	9e-05	2
4804	-5e-05	-4e-05	-0.00014	-0.00011	0.00014	0.00013	4e-05	9e-05	2
4805	-5e-05	-4e-05	-0.00014	-0.00011	0.00014	0.00013	4e-05	9e-05	2
4806	-5e-05	-4e-05	-0.00014	-0.00011	0.00014	0.00013	4e-05	9e-05	2
4807	-2e-05	3e-05	9e-05	-7e-05	1e-05	0.00042	-0.00012	-0.00012	2
4808	0	0	-0.00013	-0.00024	-8e-05	2e-05	6e-05	-0.00017	2
4809	0.0001	4e-05	0.00016	0.00024	-3e-05	9e-05	0.00029	0.00011	2
4810	0.0001	4e-05	0.00016	0.00024	-3e-05	9e-05	0.00029	0.00011	2
4811	0.0001	4e-05	0.00016	0.00024	-3e-05	9e-05	0.00029	0.00011	2
4812	0.0001	4e-05	0.00016	0.00024	-3e-05	9e-05	0.00029	0.00011	2
4813	0.0001	4e-05	0.00016	0.00024	-3e-05	9e-05	0.00029	0.00011	2
4814	0.0001	4e-05	0.00016	0.00024	-3e-05	9e-05	0.00029	0.00011	2
4815	0.0001	4e-05	0.00016	0.00024	-3e-05	9e-05	0.00029	0.00011	2
4816	0.0001	4e-05	0.00016	0.00024	-3e-05	9e-05	0.00029	0.00011	2
4817	0.0001	4e-05	0.00016	0.00024	-3e-05	9e-05	0.00029	0.00011	2
4818	0.0001	4e-05	0.00016	0.00024	-3e-05	9e-05	0.00029	0.00011	2
4819	0.0001	4e-05	0.00016	0.00024	-3e-05	9e-05	0.00029	0.00011	2
4820	0.0001	4e-05	0.00016	0.00024	-3e-05	9e-05	0.00029	0.00011	2
4821	0.0001	4e-05	0.00016	0.00024	-3e-05	9e-05	0.00029	0.00011	2
4822	9e-05	-1e-05	-1e-05	-0.00022	-0.00013	-0.00023	-5e-05	5e-05	2
4823	4e-05	4e-05	0.00016	-0.00013	-0.00014	-9e-05	-0.0002	-1e-05	2
4824	4e-05	4e-05	0.00016	-0.00013	-0.00014	-9e-05	-0.0002	-1e-05	2
4825	4e-05	4e-05	0.00016	-0.00013	-0.00014	-9e-05	-0.0002	-1e-05	2
4826	4e-05	4e-05	0.00016	-0.00013	-0.00014	-9e-05	-0.0002	-1e-05	2
4827	4e-05	4e-05	0.00016	-0.00013	-0.00014	-9e-05	-0.0002	-1e-05	2
4828	4e-05	4e-05	0.00016	-0.00013	-0.00014	-9e-05	-0.0002	-1e-05	2
4829	4e-05	4e-05	0.00016	-0.00013	-0.00014	-9e-05	-0.0002	-1e-05	2
4830	4e-05	4e-05	0.00016	-0.00013	-0.00014	-9e-05	-0.0002	-1e-05	2
4831	4e-05	4e-05	0.00016	-0.00013	-0.00014	-9e-05	-0.0002	-1e-05	2
4832	4e-05	4e-05	0.00016	-0.00013	-0.00014	-9e-05	-0.0002	-1e-05	2
4833	4e-05	4e-05	0.00016	-0.00013	-0.00014	-9e-05	-0.0002	-1e-05	2
4834	4e-05	4e-05	0.00016	-0.00013	-0.00014	-9e-05	-0.0002	-1e-05	2
4835	4e-05	4e-05	0.00016	-0.00013	-0.00014	-9e-05	-0.0002	-1e-05	2
4836	4e-05	4e-05	0.00016	-0.00013	-0.00014	-9e-05	-0.0002	-1e-05	2
4838	4e-05	4e-05	0.00016	-0.00013	-0.00014	-9e-05	-0.0002	-1e-05	2
4839	4e-05	4e-05	0.00016	-0.00013	-0.00014	-9e-05	-0.0002	-1e-05	2
4840	4e-05	4e-05	0.00016	-0.00013	-0.00014	-9e-05	-0.0002	-1e-05	2
4841	4e-05	4e-05	0.00016	-0.00013	-0.00014	-9e-05	-0.0002	-1e-05	2
4842	4e-05	4e-05	0.00016	-0.00013	-0.00014	-9e-05	-0.0002	-1e-05	2
4843	4e-05	4e-05	0.00016	-0.00013	-0.00014	-9e-05	-0.0002	-1e-05	2
4844	4e-05	4e-05	0.00016	-0.00013	-0.00014	-9e-05	-0.0002	-1e-05	2
4845	7e-05	6e-05	0.00018	-3e-05	-9e-05	0.00028	0.00036	6e-05	2
4846	-0.00011	-5e-05	-7e-05	-5e-05	-5e-05	-0.0002	-0.00032	-0.00014	2
4847	-0.00011	-5e-05	-7e-05	-5e-05	-5e-05	-0.0002	-0.00032	-0.00014	2
4848	-0.00011	-5e-05	-7e-05	-5e-05	-5e-05	-0.0002	-0.00032	-0.00014	2
4849	-0.00011	-5e-05	-7e-05	-5e-05	-5e-05	-0.0002	-0.00032	-0.00014	2
4850	-0.00011	-5e-05	-7e-05	-5e-05	-5e-05	-0.0002	-0.00032	-0.00014	2
4851	-0.00011	-5e-05	-7e-05	-5e-05	-5e-05	-0.0002	-0.00032	-0.00014	2
4852	-0.00011	-5e-05	-7e-05	-5e-05	-5e-05	-0.0002	-0.00032	-0.00014	2
4853	-0.00011	-5e-05	-7e-05	-5e-05	-5e-05	-0.0002	-0.00032	-0.00014	2
4854	-0.00011	-5e-05	-7e-05	-5e-05	-5e-05	-0.0002	-0.00032	-0.00014	2
4855	-0.00011	-5e-05	-7e-05	-5e-05	-5e-05	-0.0002	-0.00032	-0.00014	2
4856	-0.00011	-5e-05	-7e-05	-5e-05	-5e-05	-0.0002	-0.00032	-0.00014	2
4857	-0.00011	-5e-05	-7e-05	-5e-05	-5e-05	-0.0002	-0.00032	-0.00014	2
4858	-0.00011	-5e-05	-7e-05	-5e-05	-5e-05	-0.0002	-0.00032	-0.00014	2
4859	-0.00011	-5e-05	-7e-05	-5e-05	-5e-05	-0.0002	-0.00032	-0.00014	2
4860	-0.00011	-5e-05	-7e-05	-5e-05	-5e-05	-0.0002	-0.00032	-0.00014	2
4861	-0.00011	-5e-05	-7e-05	-5e-05	-5e-05	-0.0002	-0.00032	-0.00014	2
4862	-0.00011	-5e-05	-7e-05	-5e-05	-5e-05	-0.0002	-0.00032	-0.00014	2
4863	-0.00011	-5e-05	-7e-05	-5e-05	-5e-05	-0.0002	-0.00032	-0.00014	2
4864	-0.00011	-5e-05	-7e-05	-5e-05	-5e-05	-0.0002	-0.00032	-0.00014	2
4865	-0.00011	-5e-05	-7e-05	-5e-05	-5e-05	-0.0002	-0.00032	-0.00014	2
4866	-0.00011	-5e-05	-7e-05	-5e-05	-5e-05	-0.0002	-0.00032	-0.00014	2
4867	0.00011	0.00012	0.00018	0.00048	-0.00011	-0.00033	-0.00029	-4e-05	2
4868	-3e-05	-5e-05	-9e-05	-7e-05	7e-05	-0.00019	-4e-05	7e-05	2
4869	-3e-05	-5e-05	-9e-05	-7e-05	7e-05	-0.00019	-4e-05	7e-05	2
4870	-3e-05	-5e-05	-9e-05	-7e-05	7e-05	-0.00019	-4e-05	7e-05	2
4871	-3e-05	-5e-05	-9e-05	-7e-05	7e-05	-0.00019	-4e-05	7e-05	2
4872	-3e-05	-5e-05	-9e-05	-7e-05	7e-05	-0.00019	-4e-05	7e-05	2
4873	-3e-05	-5e-05	-9e-05	-7e-05	7e-05	-0.00019	-4e-05	7e-05	2
4874	-3e-05	-5e-05	-9e-05	-7e-05	7e-05	-0.00019	-4e-05	7e-05	2
4875	-3e-05	-5e-05	-9e-05	-7e-05	7e-05	-0.00019	-4e-05	7e-05	2
4876	-3e-05	-5e-05	-9e-05	-7e-05	7e-05	-0.00019	-4e-05	7e-05	2
4877	-3e-05	-5e-05	-9e-05	-7e-05	7e-05	-0.00019	-4e-05	7e-05	2
4878	-3e-05	-5e-05	-9e-05	-7e-05	7e-05	-0.00019	-4e-05	7e-05	2
4879	-3e-05	-5e-05	-9e-05	-7e-05	7e-05	-0.00019	-4e-05	7e-05	2
4880	-3e-05	-5e-05	-9e-05	-7e-05	7e-05	-0.00019	-4e-05	7e-05	2
4881	-3e-05	-5e-05	-9e-05	-7e-05	7e-05	-0.00019	-4e-05	7e-05	2
4882	0.00011	5e-05	6e-05	-0.00016	-0.00011	-0.00012	0.00035	0.00019	2
4883	0	-1e-05	3e-05	-0.00029	-0.00022	-0.00022	-0.00015	2e-05	2
4884	0	-1e-05	3e-05	-0.00029	-0.00022	-0.00022	-0.00015	2e-05	2
4885	0	-1e-05	3e-05	-0.00029	-0.00022	-0.00022	-0.00015	2e-05	2
4886	0	-1e-05	3e-05	-0.00029	-0.00022	-0.00022	-0.00015	2e-05	2
4889	0	-1e-05	3e-05	-0.00029	-0.00022	-0.00022	-0.00015	2e-05	2
4890	0	-1e-05	3e-05	-0.00029	-0.00022	-0.00022	-0.00015	2e-05	2
4891	0	-1e-05	3e-05	-0.00029	-0.00022	-0.00022	-0.00015	2e-05	2
4892	0	-1e-05	3e-05	-0.00029	-0.00022	-0.00022	-0.00015	2e-05	2
4893	0	-1e-05	3e-05	-0.00029	-0.00022	-0.00022	-0.00015	2e-05	2
4894	0	-1e-05	3e-05	-0.00029	-0.00022	-0.00022	-0.00015	2e-05	2
4895	0	-1e-05	3e-05	-0.00029	-0.00022	-0.00022	-0.00015	2e-05	2
4896	0	-1e-05	3e-05	-0.00029	-0.00022	-0.00022	-0.00015	2e-05	2
4897	0	-1e-05	3e-05	-0.00029	-0.00022	-0.00022	-0.00015	2e-05	2
4898	0	-1e-05	3e-05	-0.00029	-0.00022	-0.00022	-0.00015	2e-05	2
4899	0	-1e-05	3e-05	-0.00029	-0.00022	-0.00022	-0.00015	2e-05	2
4900	0	-1e-05	3e-05	-0.00029	-0.00022	-0.00022	-0.00015	2e-05	2
4901	0	-1e-05	3e-05	-0.00029	-0.00022	-0.00022	-0.00015	2e-05	2
4902	0	-1e-05	3e-05	-0.00029	-0.00022	-0.00022	-0.00015	2e-05	2
4903	0	-1e-05	3e-05	-0.00029	-0.00022	-0.00022	-0.00015	2e-05	2
4904	-0.00012	-3e-05	3e-05	0.00014	5e-05	-0.00023	-0.00047	-0.00028	2
4905	0.00011	7e-05	0.00017	0.00027	4e-05	-0.00013	0.00013	3e-05	2
4906	0.00011	7e-05	0.00017	0.00027	4e-05	-0.00013	0.00013	3e-05	2
4907	0.00011	7e-05	0.00017	0.00027	4e-05	-0.00013	0.00013	3e-05	2
4908	0.00011	7e-05	0.00017	0.00027	4e-05	-0.00013	0.00013	3e-05	2
4909	0.00011	7e-05	0.00017	0.00027	4e-05	-0.00013	0.00013	3e-05	2
4910	0.00011	7e-05	0.00017	0.00027	4e-05	-0.00013	0.00013	3e-05	2
4911	0.00011	7e-05	0.00017	0.00027	4e-05	-0.00013	0.00013	3e-05	2
4912	0.00011	7e-05	0.00017	0.00027	4e-05	-0.00013	0.00013	3e-05	2
4913	0.00011	7e-05	0.00017	0.00027	4e-05	-0.00013	0.00013	3e-05	2
4914	0.00011	7e-05	0.00017	0.00027	4e-05	-0.00013	0.00013	3e-05	2
4915	0.00011	7e-05	0.00017	0.00027	4e-05	-0.00013	0.00013	3e-05	2
4916	0.00011	7e-05	0.00017	0.00027	4e-05	-0.00013	0.00013	3e-05	2
4917	0.00011	7e-05	0.00017	0.00027	4e-05	-0.00013	0.00013	3e-05	2
4918	0.00011	7e-05	0.00017	0.00027	4e-05	-0.00013	0.00013	3e-05	2
4919	0.00011	7e-05	0.00017	0.00027	4e-05	-0.00013	0.00013	3e-05	2
4920	0.00011	7e-05	0.00017	0.00027	4e-05	-0.00013	0.00013	3e-05	2
4921	0.00011	7e-05	0.00017	0.00027	4e-05	-0.00013	0.00013	3e-05	2
4922	0.00011	7e-05	0.00017	0.00027	4e-05	-0.00013	0.00013	3e-05	2
4923	0.00011	7e-05	0.00017	0.00027	4e-05	-0.00013	0.00013	3e-05	2
4924	0.00011	7e-05	0.00017	0.00027	4e-05	-0.00013	0.00013	3e-05	2
4925	0.00011	7e-05	0.00017	0.00027	4e-05	-0.00013	0.00013	3e-05	2
4926	0.00011	7e-05	0.00017	0.00027	4e-05	-0.00013	0.00013	3e-05	2
4927	0.00011	7e-05	0.00017	0.00027	4e-05	-0.00013	0.00013	3e-05	2
4928	1e-05	3e-05	0.0001	5e-05	-8e-05	-4e-05	0.00027	0.00012	2
4929	6e-05	-1e-05	1e-05	0.00019	-0.00016	0.00041	0.00015	-1e-05	2
4930	6e-05	-1e-05	1e-05	0.00019	-0.00016	0.00041	0.00015	-1e-05	2
4931	6e-05	-1e-05	1e-05	0.00019	-0.00016	0.00041	0.00015	-1e-05	2
4932	6e-05	-1e-05	1e-05	0.00019	-0.00016	0.00041	0.00015	-1e-05	2
4933	6e-05	-1e-05	1e-05	0.00019	-0.00016	0.00041	0.00015	-1e-05	2
4934	6e-05	-1e-05	1e-05	0.00019	-0.00016	0.00041	0.00015	-1e-05	2
4935	6e-05	-1e-05	1e-05	0.00019	-0.00016	0.00041	0.00015	-1e-05	2
4936	6e-05	-1e-05	1e-05	0.00019	-0.00016	0.00041	0.00015	-1e-05	2
4938	6e-05	-1e-05	1e-05	0.00019	-0.00016	0.00041	0.00015	-1e-05	2
4939	6e-05	-1e-05	1e-05	0.00019	-0.00016	0.00041	0.00015	-1e-05	2
4940	6e-05	-1e-05	1e-05	0.00019	-0.00016	0.00041	0.00015	-1e-05	2
4941	6e-05	-1e-05	1e-05	0.00019	-0.00016	0.00041	0.00015	-1e-05	2
4942	0.00011	0.00012	0.00017	-1e-05	-1e-05	-0.00037	-6e-05	1e-05	2
4943	9e-05	4e-05	7e-05	3e-05	-0.00013	-0.00029	-8e-05	0.00011	2
4944	-0.00015	-2e-05	7e-05	-5e-05	-7e-05	8e-05	-0.00028	-5e-05	2
4945	-0.00015	-2e-05	7e-05	-5e-05	-7e-05	8e-05	-0.00028	-5e-05	2
4946	-0.00015	-2e-05	7e-05	-5e-05	-7e-05	8e-05	-0.00028	-5e-05	2
4947	-0.00015	-2e-05	7e-05	-5e-05	-7e-05	8e-05	-0.00028	-5e-05	2
4948	-0.00015	-2e-05	7e-05	-5e-05	-7e-05	8e-05	-0.00028	-5e-05	2
4949	-0.00015	-2e-05	7e-05	-5e-05	-7e-05	8e-05	-0.00028	-5e-05	2
4950	-0.00015	-2e-05	7e-05	-5e-05	-7e-05	8e-05	-0.00028	-5e-05	2
4951	-0.00015	-2e-05	7e-05	-5e-05	-7e-05	8e-05	-0.00028	-5e-05	2
4952	-0.00015	-2e-05	7e-05	-5e-05	-7e-05	8e-05	-0.00028	-5e-05	2
4953	-0.00015	-2e-05	7e-05	-5e-05	-7e-05	8e-05	-0.00028	-5e-05	2
4954	-0.00015	-2e-05	7e-05	-5e-05	-7e-05	8e-05	-0.00028	-5e-05	2
4955	-0.00015	-2e-05	7e-05	-5e-05	-7e-05	8e-05	-0.00028	-5e-05	2
4956	-0.00015	-2e-05	7e-05	-5e-05	-7e-05	8e-05	-0.00028	-5e-05	2
4957	-0.00015	-2e-05	7e-05	-5e-05	-7e-05	8e-05	-0.00028	-5e-05	2
4958	-0.00015	-2e-05	7e-05	-5e-05	-7e-05	8e-05	-0.00028	-5e-05	2
4959	-0.00015	-2e-05	7e-05	-5e-05	-7e-05	8e-05	-0.00028	-5e-05	2
4960	-0.00015	-2e-05	7e-05	-5e-05	-7e-05	8e-05	-0.00028	-5e-05	2
4961	-0.00015	-2e-05	7e-05	-5e-05	-7e-05	8e-05	-0.00028	-5e-05	2
4962	-0.00015	-2e-05	7e-05	-5e-05	-7e-05	8e-05	-0.00028	-5e-05	2
4963	-0.00015	-2e-05	7e-05	-5e-05	-7e-05	8e-05	-0.00028	-5e-05	2
4964	-0.00015	-2e-05	7e-05	-5e-05	-7e-05	8e-05	-0.00028	-5e-05	2
4965	-0.00015	-2e-05	7e-05	-5e-05	-7e-05	8e-05	-0.00028	-5e-05	2
4966	0.00011	-2e-05	-0.00018	-0.00018	-8e-05	0.00014	-0.0003	3e-05	2
4967	-4e-05	-2e-05	0.00017	-0.00011	5e-05	3e-05	0	-0.00013	2
4968	-4e-05	-2e-05	0.00017	-0.00011	5e-05	3e-05	0	-0.00013	2
4969	-4e-05	-2e-05	0.00017	-0.00011	5e-05	3e-05	0	-0.00013	2
4970	-4e-05	-2e-05	0.00017	-0.00011	5e-05	3e-05	0	-0.00013	2
4971	-4e-05	-2e-05	0.00017	-0.00011	5e-05	3e-05	0	-0.00013	2
4972	-4e-05	-2e-05	0.00017	-0.00011	5e-05	3e-05	0	-0.00013	2
4973	-4e-05	-2e-05	0.00017	-0.00011	5e-05	3e-05	0	-0.00013	2
4974	-4e-05	-2e-05	0.00017	-0.00011	5e-05	3e-05	0	-0.00013	2
4975	-4e-05	-2e-05	0.00017	-0.00011	5e-05	3e-05	0	-0.00013	2
4976	-4e-05	-2e-05	0.00017	-0.00011	5e-05	3e-05	0	-0.00013	2
4977	-4e-05	-2e-05	0.00017	-0.00011	5e-05	3e-05	0	-0.00013	2
4978	-4e-05	-2e-05	0.00017	-0.00011	5e-05	3e-05	0	-0.00013	2
4979	-4e-05	-2e-05	0.00017	-0.00011	5e-05	3e-05	0	-0.00013	2
4980	-4e-05	-2e-05	0.00017	-0.00011	5e-05	3e-05	0	-0.00013	2
4981	-4e-05	-2e-05	0.00017	-0.00011	5e-05	3e-05	0	-0.00013	2
4982	-4e-05	-2e-05	0.00017	-0.00011	5e-05	3e-05	0	-0.00013	2
4983	-4e-05	-2e-05	0.00017	-0.00011	5e-05	3e-05	0	-0.00013	2
4984	-4e-05	-2e-05	0.00017	-0.00011	5e-05	3e-05	0	-0.00013	2
4985	-4e-05	-2e-05	0.00017	-0.00011	5e-05	3e-05	0	-0.00013	2
4986	-4e-05	-2e-05	0.00017	-0.00011	5e-05	3e-05	0	-0.00013	2
4989	0	1e-05	-0.00021	0.00014	0.00017	0.00021	-0.0003	-3e-05	2
4990	0	1e-05	-0.00021	0.00014	0.00017	0.00021	-0.0003	-3e-05	2
4991	0	1e-05	-0.00021	0.00014	0.00017	0.00021	-0.0003	-3e-05	2
4992	0	1e-05	-0.00021	0.00014	0.00017	0.00021	-0.0003	-3e-05	2
4993	0	1e-05	-0.00021	0.00014	0.00017	0.00021	-0.0003	-3e-05	2
4994	0	1e-05	-0.00021	0.00014	0.00017	0.00021	-0.0003	-3e-05	2
4995	0	1e-05	-0.00021	0.00014	0.00017	0.00021	-0.0003	-3e-05	2
4996	0	1e-05	-0.00021	0.00014	0.00017	0.00021	-0.0003	-3e-05	2
4997	0	1e-05	-0.00021	0.00014	0.00017	0.00021	-0.0003	-3e-05	2
4998	0	1e-05	-0.00021	0.00014	0.00017	0.00021	-0.0003	-3e-05	2
4999	0	1e-05	-0.00021	0.00014	0.00017	0.00021	-0.0003	-3e-05	2
5000	0	1e-05	-0.00021	0.00014	0.00017	0.00021	-0.0003	-3e-05	2
5001	0	1e-05	-0.00021	0.00014	0.00017	0.00021	-0.0003	-3e-05	2
5002	-0.00016	-8e-05	-5e-05	-0.00018	-7e-05	-0.00012	-0.00018	-0.0002	2
5003	-0.00016	-8e-05	-5e-05	-0.00018	-7e-05	-0.00012	-0.00018	-0.0002	2
5004	-0.00016	-8e-05	-5e-05	-0.00018	-7e-05	-0.00012	-0.00018	-0.0002	2
5005	-0.00016	-8e-05	-5e-05	-0.00018	-7e-05	-0.00012	-0.00018	-0.0002	2
5006	-0.00016	-8e-05	-5e-05	-0.00018	-7e-05	-0.00012	-0.00018	-0.0002	2
5007	-0.00016	-8e-05	-5e-05	-0.00018	-7e-05	-0.00012	-0.00018	-0.0002	2
5008	-0.00016	-8e-05	-5e-05	-0.00018	-7e-05	-0.00012	-0.00018	-0.0002	2
5009	0.00015	5e-05	0.0001	2e-05	-5e-05	-0.00014	0.00024	0.00016	2
5010	-8e-05	-9e-05	-5e-05	-4e-05	4e-05	7e-05	0.00012	1e-05	2
5011	-8e-05	-9e-05	-5e-05	-4e-05	4e-05	7e-05	0.00012	1e-05	2
5012	-8e-05	-9e-05	-5e-05	-4e-05	4e-05	7e-05	0.00012	1e-05	2
5013	-8e-05	-9e-05	-5e-05	-4e-05	4e-05	7e-05	0.00012	1e-05	2
5014	-8e-05	-9e-05	-5e-05	-4e-05	4e-05	7e-05	0.00012	1e-05	2
5015	-8e-05	-9e-05	-5e-05	-4e-05	4e-05	7e-05	0.00012	1e-05	2
5016	-8e-05	-9e-05	-5e-05	-4e-05	4e-05	7e-05	0.00012	1e-05	2
5017	-8e-05	-9e-05	-5e-05	-4e-05	4e-05	7e-05	0.00012	1e-05	2
5018	-8e-05	-9e-05	-5e-05	-4e-05	4e-05	7e-05	0.00012	1e-05	2
5019	-8e-05	-9e-05	-5e-05	-4e-05	4e-05	7e-05	0.00012	1e-05	2
5020	-8e-05	-9e-05	-5e-05	-4e-05	4e-05	7e-05	0.00012	1e-05	2
5021	-8e-05	-9e-05	-5e-05	-4e-05	4e-05	7e-05	0.00012	1e-05	2
5022	-8e-05	-9e-05	-5e-05	-4e-05	4e-05	7e-05	0.00012	1e-05	2
5023	-8e-05	-9e-05	-5e-05	-4e-05	4e-05	7e-05	0.00012	1e-05	2
5024	-8e-05	-9e-05	-5e-05	-4e-05	4e-05	7e-05	0.00012	1e-05	2
5025	8e-05	0	1e-05	4e-05	-1e-05	-0.00013	2e-05	0.00013	2
5026	0.00016	2e-05	-7e-05	-1e-05	3e-05	-4e-05	0.00062	0.00016	2
5027	0.00016	2e-05	-7e-05	-1e-05	3e-05	-4e-05	0.00062	0.00016	2
5028	0.00016	2e-05	-7e-05	-1e-05	3e-05	-4e-05	0.00062	0.00016	2
5029	0.00016	2e-05	-7e-05	-1e-05	3e-05	-4e-05	0.00062	0.00016	2
5030	0.00016	2e-05	-7e-05	-1e-05	3e-05	-4e-05	0.00062	0.00016	2
5032	0.00016	2e-05	-7e-05	-1e-05	3e-05	-4e-05	0.00062	0.00016	2
5033	0.00016	2e-05	-7e-05	-1e-05	3e-05	-4e-05	0.00062	0.00016	2
5034	0.00016	2e-05	-7e-05	-1e-05	3e-05	-4e-05	0.00062	0.00016	2
5035	0.00016	2e-05	-7e-05	-1e-05	3e-05	-4e-05	0.00062	0.00016	2
5036	0.00016	2e-05	-7e-05	-1e-05	3e-05	-4e-05	0.00062	0.00016	2
5038	0.00016	2e-05	-7e-05	-1e-05	3e-05	-4e-05	0.00062	0.00016	2
5039	0.00016	2e-05	-7e-05	-1e-05	3e-05	-4e-05	0.00062	0.00016	2
5040	0.00016	2e-05	-7e-05	-1e-05	3e-05	-4e-05	0.00062	0.00016	2
5041	0.00016	2e-05	-7e-05	-1e-05	3e-05	-4e-05	0.00062	0.00016	2
5042	0.00016	2e-05	-7e-05	-1e-05	3e-05	-4e-05	0.00062	0.00016	2
5043	0.00016	2e-05	-7e-05	-1e-05	3e-05	-4e-05	0.00062	0.00016	2
5044	0.00016	2e-05	-7e-05	-1e-05	3e-05	-4e-05	0.00062	0.00016	2
5045	0.00016	2e-05	-7e-05	-1e-05	3e-05	-4e-05	0.00062	0.00016	2
5046	0.00016	2e-05	-7e-05	-1e-05	3e-05	-4e-05	0.00062	0.00016	2
5047	-7e-05	-0.00011	1e-05	0.0001	-1e-05	-6e-05	-0.00016	-4e-05	2
5048	-0.00013	1e-05	-1e-05	0.00013	2e-05	-0.00014	-0.00022	-5e-05	2
5049	-0.00013	1e-05	-1e-05	0.00013	2e-05	-0.00014	-0.00022	-5e-05	2
5050	-0.00013	1e-05	-1e-05	0.00013	2e-05	-0.00014	-0.00022	-5e-05	2
5051	-0.00013	1e-05	-1e-05	0.00013	2e-05	-0.00014	-0.00022	-5e-05	2
5052	-0.00013	1e-05	-1e-05	0.00013	2e-05	-0.00014	-0.00022	-5e-05	2
5053	-0.00013	1e-05	-1e-05	0.00013	2e-05	-0.00014	-0.00022	-5e-05	2
5054	-0.00013	1e-05	-1e-05	0.00013	2e-05	-0.00014	-0.00022	-5e-05	2
5055	-0.00013	1e-05	-1e-05	0.00013	2e-05	-0.00014	-0.00022	-5e-05	2
5056	-0.00013	1e-05	-1e-05	0.00013	2e-05	-0.00014	-0.00022	-5e-05	2
5057	-0.00013	1e-05	-1e-05	0.00013	2e-05	-0.00014	-0.00022	-5e-05	2
5058	-0.00013	1e-05	-1e-05	0.00013	2e-05	-0.00014	-0.00022	-5e-05	2
5059	-0.00013	1e-05	-1e-05	0.00013	2e-05	-0.00014	-0.00022	-5e-05	2
5060	-0.00013	1e-05	-1e-05	0.00013	2e-05	-0.00014	-0.00022	-5e-05	2
5061	-0.00013	1e-05	-1e-05	0.00013	2e-05	-0.00014	-0.00022	-5e-05	2
5062	-0.0001	-2e-05	-8e-05	0	0.00019	5e-05	-0.00012	-9e-05	2
5063	-0.0001	-2e-05	-8e-05	0	0.00019	5e-05	-0.00012	-9e-05	2
5064	-0.0001	-2e-05	-8e-05	0	0.00019	5e-05	-0.00012	-9e-05	2
5065	-0.0001	-2e-05	-8e-05	0	0.00019	5e-05	-0.00012	-9e-05	2
5066	-0.0001	-2e-05	-8e-05	0	0.00019	5e-05	-0.00012	-9e-05	2
5067	-0.0001	-2e-05	-8e-05	0	0.00019	5e-05	-0.00012	-9e-05	2
5068	-0.0001	-2e-05	-8e-05	0	0.00019	5e-05	-0.00012	-9e-05	2
5069	-0.0001	-2e-05	-8e-05	0	0.00019	5e-05	-0.00012	-9e-05	2
5070	-0.0001	-2e-05	-8e-05	0	0.00019	5e-05	-0.00012	-9e-05	2
5071	-0.0001	-2e-05	-8e-05	0	0.00019	5e-05	-0.00012	-9e-05	2
5072	-0.0001	-2e-05	-8e-05	0	0.00019	5e-05	-0.00012	-9e-05	2
5073	-0.0001	-2e-05	-8e-05	0	0.00019	5e-05	-0.00012	-9e-05	2
5074	-0.0001	-2e-05	-8e-05	0	0.00019	5e-05	-0.00012	-9e-05	2
5075	-0.0001	-2e-05	-8e-05	0	0.00019	5e-05	-0.00012	-9e-05	2
5076	-0.0001	-2e-05	-8e-05	0	0.00019	5e-05	-0.00012	-9e-05	2
5077	-0.0001	-2e-05	-8e-05	0	0.00019	5e-05	-0.00012	-9e-05	2
5078	-0.0001	-2e-05	-8e-05	0	0.00019	5e-05	-0.00012	-9e-05	2
5079	-0.0001	-2e-05	-8e-05	0	0.00019	5e-05	-0.00012	-9e-05	2
5080	-0.0001	-2e-05	-8e-05	0	0.00019	5e-05	-0.00012	-9e-05	2
5081	-0.0001	-2e-05	-8e-05	0	0.00019	5e-05	-0.00012	-9e-05	2
5082	-0.0001	-2e-05	-8e-05	0	0.00019	5e-05	-0.00012	-9e-05	2
5083	-0.0001	-2e-05	-8e-05	0	0.00019	5e-05	-0.00012	-9e-05	2
5084	-2e-05	3e-05	1e-05	-0.00046	-0.00014	-0.00021	0	2e-05	2
5085	2e-05	-5e-05	-1e-05	-0.00035	-0.00033	-0.00015	8e-05	6e-05	2
5086	2e-05	-5e-05	-1e-05	-0.00035	-0.00033	-0.00015	8e-05	6e-05	2
5088	2e-05	-5e-05	-1e-05	-0.00035	-0.00033	-0.00015	8e-05	6e-05	2
5089	2e-05	-5e-05	-1e-05	-0.00035	-0.00033	-0.00015	8e-05	6e-05	2
5090	2e-05	-5e-05	-1e-05	-0.00035	-0.00033	-0.00015	8e-05	6e-05	2
5091	2e-05	-5e-05	-1e-05	-0.00035	-0.00033	-0.00015	8e-05	6e-05	2
5092	2e-05	-5e-05	-1e-05	-0.00035	-0.00033	-0.00015	8e-05	6e-05	2
5093	2e-05	-5e-05	-1e-05	-0.00035	-0.00033	-0.00015	8e-05	6e-05	2
5094	2e-05	-5e-05	-1e-05	-0.00035	-0.00033	-0.00015	8e-05	6e-05	2
5095	2e-05	-5e-05	-1e-05	-0.00035	-0.00033	-0.00015	8e-05	6e-05	2
5096	2e-05	-5e-05	-1e-05	-0.00035	-0.00033	-0.00015	8e-05	6e-05	2
5097	2e-05	-5e-05	-1e-05	-0.00035	-0.00033	-0.00015	8e-05	6e-05	2
5098	2e-05	-5e-05	-1e-05	-0.00035	-0.00033	-0.00015	8e-05	6e-05	2
5099	2e-05	-5e-05	-1e-05	-0.00035	-0.00033	-0.00015	8e-05	6e-05	2
5100	2e-05	-5e-05	-1e-05	-0.00035	-0.00033	-0.00015	8e-05	6e-05	2
5101	2e-05	-5e-05	-1e-05	-0.00035	-0.00033	-0.00015	8e-05	6e-05	2
5102	2e-05	-5e-05	-1e-05	-0.00035	-0.00033	-0.00015	8e-05	6e-05	2
5103	2e-05	-5e-05	-1e-05	-0.00035	-0.00033	-0.00015	8e-05	6e-05	2
5104	2e-05	-5e-05	-1e-05	-0.00035	-0.00033	-0.00015	8e-05	6e-05	2
5105	2e-05	-5e-05	-1e-05	-0.00035	-0.00033	-0.00015	8e-05	6e-05	2
5106	2e-05	-5e-05	-1e-05	-0.00035	-0.00033	-0.00015	8e-05	6e-05	2
5107	2e-05	-5e-05	-1e-05	-0.00035	-0.00033	-0.00015	8e-05	6e-05	2
5108	2e-05	-0.00011	-0.00014	-0.00023	0.00021	-0.0004	1e-05	1e-05	2
5109	-2e-05	1e-05	-4e-05	0.0002	0.00014	-0.00032	-5e-05	-0.0002	2
5110	-2e-05	1e-05	-4e-05	0.0002	0.00014	-0.00032	-5e-05	-0.0002	2
5111	-2e-05	1e-05	-4e-05	0.0002	0.00014	-0.00032	-5e-05	-0.0002	2
5112	-2e-05	1e-05	-4e-05	0.0002	0.00014	-0.00032	-5e-05	-0.0002	2
5113	-2e-05	1e-05	-4e-05	0.0002	0.00014	-0.00032	-5e-05	-0.0002	2
5114	-2e-05	1e-05	-4e-05	0.0002	0.00014	-0.00032	-5e-05	-0.0002	2
5115	-2e-05	1e-05	-4e-05	0.0002	0.00014	-0.00032	-5e-05	-0.0002	2
5116	-2e-05	1e-05	-4e-05	0.0002	0.00014	-0.00032	-5e-05	-0.0002	2
5117	-2e-05	1e-05	-4e-05	0.0002	0.00014	-0.00032	-5e-05	-0.0002	2
5118	-2e-05	1e-05	-4e-05	0.0002	0.00014	-0.00032	-5e-05	-0.0002	2
5119	-2e-05	1e-05	-4e-05	0.0002	0.00014	-0.00032	-5e-05	-0.0002	2
5120	-2e-05	1e-05	-4e-05	0.0002	0.00014	-0.00032	-5e-05	-0.0002	2
5121	-2e-05	1e-05	-4e-05	0.0002	0.00014	-0.00032	-5e-05	-0.0002	2
5122	-2e-05	1e-05	-4e-05	0.0002	0.00014	-0.00032	-5e-05	-0.0002	2
5123	-2e-05	1e-05	-4e-05	0.0002	0.00014	-0.00032	-5e-05	-0.0002	2
5124	-2e-05	1e-05	-4e-05	0.0002	0.00014	-0.00032	-5e-05	-0.0002	2
5125	-2e-05	1e-05	-4e-05	0.0002	0.00014	-0.00032	-5e-05	-0.0002	2
5126	-2e-05	1e-05	-4e-05	0.0002	0.00014	-0.00032	-5e-05	-0.0002	2
5127	-2e-05	1e-05	-4e-05	0.0002	0.00014	-0.00032	-5e-05	-0.0002	2
5128	-2e-05	1e-05	-4e-05	0.0002	0.00014	-0.00032	-5e-05	-0.0002	2
5130	-1e-05	-4e-05	-1e-05	5e-05	-5e-05	4e-05	-0.00025	-5e-05	2
5131	-0.0001	0	0.00015	0.0004	-4e-05	-0.00012	-0.00035	-0.0001	2
5132	-0.0001	0	0.00015	0.0004	-4e-05	-0.00012	-0.00035	-0.0001	2
5133	-0.0001	0	0.00015	0.0004	-4e-05	-0.00012	-0.00035	-0.0001	2
5134	-0.0001	0	0.00015	0.0004	-4e-05	-0.00012	-0.00035	-0.0001	2
5135	-0.0001	0	0.00015	0.0004	-4e-05	-0.00012	-0.00035	-0.0001	2
5136	-0.0001	0	0.00015	0.0004	-4e-05	-0.00012	-0.00035	-0.0001	2
5138	-0.0001	0	0.00015	0.0004	-4e-05	-0.00012	-0.00035	-0.0001	2
5139	-0.0001	0	0.00015	0.0004	-4e-05	-0.00012	-0.00035	-0.0001	2
5140	-0.0001	0	0.00015	0.0004	-4e-05	-0.00012	-0.00035	-0.0001	2
5141	-0.0001	0	0.00015	0.0004	-4e-05	-0.00012	-0.00035	-0.0001	2
5142	-0.0001	0	0.00015	0.0004	-4e-05	-0.00012	-0.00035	-0.0001	2
5143	-0.0001	0	0.00015	0.0004	-4e-05	-0.00012	-0.00035	-0.0001	2
5144	-0.0001	0	0.00015	0.0004	-4e-05	-0.00012	-0.00035	-0.0001	2
5145	0.00011	5e-05	0.00013	-6e-05	-7e-05	0.00018	0.0004	0.00016	2
5146	0.00011	5e-05	0.00013	-6e-05	-7e-05	0.00018	0.0004	0.00016	2
5147	0.00011	5e-05	0.00013	-6e-05	-7e-05	0.00018	0.0004	0.00016	2
5148	0.00011	5e-05	0.00013	-6e-05	-7e-05	0.00018	0.0004	0.00016	2
5149	0.00011	5e-05	0.00013	-6e-05	-7e-05	0.00018	0.0004	0.00016	2
5150	0.00011	5e-05	0.00013	-6e-05	-7e-05	0.00018	0.0004	0.00016	2
5151	0.00011	5e-05	0.00013	-6e-05	-7e-05	0.00018	0.0004	0.00016	2
5152	-1e-05	-8e-05	-0.00024	-0.00028	-9e-05	5e-05	0.00028	5e-05	2
5153	-1e-05	-8e-05	-0.00024	-0.00028	-9e-05	5e-05	0.00028	5e-05	2
5154	-1e-05	-8e-05	-0.00024	-0.00028	-9e-05	5e-05	0.00028	5e-05	2
5155	-1e-05	-8e-05	-0.00024	-0.00028	-9e-05	5e-05	0.00028	5e-05	2
5156	-1e-05	-8e-05	-0.00024	-0.00028	-9e-05	5e-05	0.00028	5e-05	2
5157	-1e-05	-8e-05	-0.00024	-0.00028	-9e-05	5e-05	0.00028	5e-05	2
5158	-1e-05	-8e-05	-0.00024	-0.00028	-9e-05	5e-05	0.00028	5e-05	2
5159	-1e-05	-8e-05	-0.00024	-0.00028	-9e-05	5e-05	0.00028	5e-05	2
5160	-1e-05	-8e-05	-0.00024	-0.00028	-9e-05	5e-05	0.00028	5e-05	2
5161	-1e-05	-8e-05	-0.00024	-0.00028	-9e-05	5e-05	0.00028	5e-05	2
5162	-1e-05	-8e-05	-0.00024	-0.00028	-9e-05	5e-05	0.00028	5e-05	2
5163	-1e-05	-8e-05	-0.00024	-0.00028	-9e-05	5e-05	0.00028	5e-05	2
5164	-1e-05	-8e-05	-0.00024	-0.00028	-9e-05	5e-05	0.00028	5e-05	2
5165	-1e-05	-8e-05	-0.00024	-0.00028	-9e-05	5e-05	0.00028	5e-05	2
5166	-1e-05	-8e-05	-0.00024	-0.00028	-9e-05	5e-05	0.00028	5e-05	2
5167	-9e-05	1e-05	9e-05	0.00033	8e-05	5e-05	-0.00031	-2e-05	2
5168	1e-05	-1e-05	8e-05	-2e-05	-1e-05	-0.00036	-0.00025	-9e-05	2
5169	1e-05	-1e-05	8e-05	-2e-05	-1e-05	-0.00036	-0.00025	-9e-05	2
5170	1e-05	-1e-05	8e-05	-2e-05	-1e-05	-0.00036	-0.00025	-9e-05	2
5171	1e-05	-1e-05	8e-05	-2e-05	-1e-05	-0.00036	-0.00025	-9e-05	2
5172	1e-05	-1e-05	8e-05	-2e-05	-1e-05	-0.00036	-0.00025	-9e-05	2
5173	1e-05	-1e-05	8e-05	-2e-05	-1e-05	-0.00036	-0.00025	-9e-05	2
5174	1e-05	-1e-05	8e-05	-2e-05	-1e-05	-0.00036	-0.00025	-9e-05	2
5175	1e-05	-1e-05	8e-05	-2e-05	-1e-05	-0.00036	-0.00025	-9e-05	2
5176	1e-05	-1e-05	8e-05	-2e-05	-1e-05	-0.00036	-0.00025	-9e-05	2
5177	1e-05	-1e-05	8e-05	-2e-05	-1e-05	-0.00036	-0.00025	-9e-05	2
5178	1e-05	-1e-05	8e-05	-2e-05	-1e-05	-0.00036	-0.00025	-9e-05	2
5179	1e-05	-1e-05	8e-05	-2e-05	-1e-05	-0.00036	-0.00025	-9e-05	2
5180	1e-05	-1e-05	8e-05	-2e-05	-1e-05	-0.00036	-0.00025	-9e-05	2
5181	-0.00015	2e-05	0.00014	0.00021	1e-05	-0.00015	-0.00015	-9e-05	2
5182	-0.00015	2e-05	0.00014	0.00021	1e-05	-0.00015	-0.00015	-9e-05	2
5183	-0.00015	2e-05	0.00014	0.00021	1e-05	-0.00015	-0.00015	-9e-05	2
5184	-0.00015	2e-05	0.00014	0.00021	1e-05	-0.00015	-0.00015	-9e-05	2
5185	-0.00015	2e-05	0.00014	0.00021	1e-05	-0.00015	-0.00015	-9e-05	2
5186	-0.00015	2e-05	0.00014	0.00021	1e-05	-0.00015	-0.00015	-9e-05	2
5188	-0.00011	-9e-05	-0.00016	-0.00045	-9e-05	-0.00015	0.00018	-0.00013	2
5190	-2e-05	-3e-05	-0.00013	-0.00017	8e-05	0.00017	4e-05	3e-05	2
5191	-2e-05	-3e-05	-0.00013	-0.00017	8e-05	0.00017	4e-05	3e-05	2
5192	-2e-05	-3e-05	-0.00013	-0.00017	8e-05	0.00017	4e-05	3e-05	2
5193	-2e-05	-3e-05	-0.00013	-0.00017	8e-05	0.00017	4e-05	3e-05	2
5194	-2e-05	-3e-05	-0.00013	-0.00017	8e-05	0.00017	4e-05	3e-05	2
5195	-2e-05	-3e-05	-0.00013	-0.00017	8e-05	0.00017	4e-05	3e-05	2
5196	-2e-05	-3e-05	-0.00013	-0.00017	8e-05	0.00017	4e-05	3e-05	2
5197	-2e-05	-3e-05	-0.00013	-0.00017	8e-05	0.00017	4e-05	3e-05	2
5198	-2e-05	-3e-05	-0.00013	-0.00017	8e-05	0.00017	4e-05	3e-05	2
5199	-2e-05	-3e-05	-0.00013	-0.00017	8e-05	0.00017	4e-05	3e-05	2
5200	-2e-05	-3e-05	-0.00013	-0.00017	8e-05	0.00017	4e-05	3e-05	2
5201	-2e-05	-3e-05	-0.00013	-0.00017	8e-05	0.00017	4e-05	3e-05	2
5202	-2e-05	-3e-05	-0.00013	-0.00017	8e-05	0.00017	4e-05	3e-05	2
5203	-2e-05	-3e-05	-0.00013	-0.00017	8e-05	0.00017	4e-05	3e-05	2
5204	-2e-05	-3e-05	-0.00013	-0.00017	8e-05	0.00017	4e-05	3e-05	2
5205	-7e-05	-7e-05	-4e-05	-2e-05	-5e-05	-7e-05	-9e-05	-3e-05	2
5206	-3e-05	1e-05	-1e-05	-0.00013	9e-05	0.00014	0.00035	0.00019	2
5207	-3e-05	1e-05	-1e-05	-0.00013	9e-05	0.00014	0.00035	0.00019	2
5208	-3e-05	1e-05	-1e-05	-0.00013	9e-05	0.00014	0.00035	0.00019	2
5209	-3e-05	1e-05	-1e-05	-0.00013	9e-05	0.00014	0.00035	0.00019	2
5210	-3e-05	1e-05	-1e-05	-0.00013	9e-05	0.00014	0.00035	0.00019	2
5211	-3e-05	1e-05	-1e-05	-0.00013	9e-05	0.00014	0.00035	0.00019	2
5212	-3e-05	1e-05	-1e-05	-0.00013	9e-05	0.00014	0.00035	0.00019	2
5213	-3e-05	1e-05	-1e-05	-0.00013	9e-05	0.00014	0.00035	0.00019	2
5214	-3e-05	1e-05	-1e-05	-0.00013	9e-05	0.00014	0.00035	0.00019	2
5215	-3e-05	1e-05	-1e-05	-0.00013	9e-05	0.00014	0.00035	0.00019	2
5216	-3e-05	1e-05	-1e-05	-0.00013	9e-05	0.00014	0.00035	0.00019	2
5217	-3e-05	1e-05	-1e-05	-0.00013	9e-05	0.00014	0.00035	0.00019	2
5218	-3e-05	1e-05	-1e-05	-0.00013	9e-05	0.00014	0.00035	0.00019	2
5219	-3e-05	1e-05	-1e-05	-0.00013	9e-05	0.00014	0.00035	0.00019	2
5220	-3e-05	1e-05	-1e-05	-0.00013	9e-05	0.00014	0.00035	0.00019	2
5221	-3e-05	1e-05	-1e-05	-0.00013	9e-05	0.00014	0.00035	0.00019	2
5222	-3e-05	1e-05	-1e-05	-0.00013	9e-05	0.00014	0.00035	0.00019	2
5223	-3e-05	1e-05	-1e-05	-0.00013	9e-05	0.00014	0.00035	0.00019	2
5224	-3e-05	1e-05	-1e-05	-0.00013	9e-05	0.00014	0.00035	0.00019	2
5225	-3e-05	1e-05	-1e-05	-0.00013	9e-05	0.00014	0.00035	0.00019	2
5226	-3e-05	1e-05	-1e-05	-0.00013	9e-05	0.00014	0.00035	0.00019	2
5227	-3e-05	1e-05	-1e-05	-0.00013	9e-05	0.00014	0.00035	0.00019	2
5228	-3e-05	-2e-05	-5e-05	8e-05	1e-05	-6e-05	-3e-05	-7e-05	2
5229	-3e-05	-2e-05	-5e-05	8e-05	1e-05	-6e-05	-3e-05	-7e-05	2
5230	-3e-05	-2e-05	-5e-05	8e-05	1e-05	-6e-05	-3e-05	-7e-05	2
5231	-3e-05	-2e-05	-5e-05	8e-05	1e-05	-6e-05	-3e-05	-7e-05	2
5232	-3e-05	-2e-05	-5e-05	8e-05	1e-05	-6e-05	-3e-05	-7e-05	2
5233	-3e-05	-2e-05	-5e-05	8e-05	1e-05	-6e-05	-3e-05	-7e-05	2
5234	-3e-05	-2e-05	-5e-05	8e-05	1e-05	-6e-05	-3e-05	-7e-05	2
5235	-3e-05	-2e-05	-5e-05	8e-05	1e-05	-6e-05	-3e-05	-7e-05	2
5236	-3e-05	-2e-05	-5e-05	8e-05	1e-05	-6e-05	-3e-05	-7e-05	2
5238	-3e-05	-2e-05	-5e-05	8e-05	1e-05	-6e-05	-3e-05	-7e-05	2
5239	-3e-05	-2e-05	-5e-05	8e-05	1e-05	-6e-05	-3e-05	-7e-05	2
5240	-3e-05	-2e-05	-5e-05	8e-05	1e-05	-6e-05	-3e-05	-7e-05	2
5241	0	-3e-05	0	-0.00011	0.00028	0.00016	-4e-05	3e-05	2
5242	0	-3e-05	0	-0.00011	0.00028	0.00016	-4e-05	3e-05	2
5243	0	-3e-05	0	-0.00011	0.00028	0.00016	-4e-05	3e-05	2
5244	0	-3e-05	0	-0.00011	0.00028	0.00016	-4e-05	3e-05	2
5245	0	-3e-05	0	-0.00011	0.00028	0.00016	-4e-05	3e-05	2
5246	0	-3e-05	0	-0.00011	0.00028	0.00016	-4e-05	3e-05	2
5247	0	-3e-05	0	-0.00011	0.00028	0.00016	-4e-05	3e-05	2
5248	0	-3e-05	0	-0.00011	0.00028	0.00016	-4e-05	3e-05	2
5249	0.00018	-3e-05	-3e-05	-1e-05	-7e-05	0.00022	-1e-05	5e-05	2
5250	0.00018	-3e-05	-3e-05	-1e-05	-7e-05	0.00022	-1e-05	5e-05	2
5251	0.00018	-3e-05	-3e-05	-1e-05	-7e-05	0.00022	-1e-05	5e-05	2
5252	0.00018	-3e-05	-3e-05	-1e-05	-7e-05	0.00022	-1e-05	5e-05	2
5253	0.00018	-3e-05	-3e-05	-1e-05	-7e-05	0.00022	-1e-05	5e-05	2
5254	0.00018	-3e-05	-3e-05	-1e-05	-7e-05	0.00022	-1e-05	5e-05	2
5255	0.00018	-3e-05	-3e-05	-1e-05	-7e-05	0.00022	-1e-05	5e-05	2
5256	0.00018	-3e-05	-3e-05	-1e-05	-7e-05	0.00022	-1e-05	5e-05	2
5257	0.00018	-3e-05	-3e-05	-1e-05	-7e-05	0.00022	-1e-05	5e-05	2
5258	0.00018	-3e-05	-3e-05	-1e-05	-7e-05	0.00022	-1e-05	5e-05	2
5259	0.00018	-3e-05	-3e-05	-1e-05	-7e-05	0.00022	-1e-05	5e-05	2
5260	0.00018	-3e-05	-3e-05	-1e-05	-7e-05	0.00022	-1e-05	5e-05	2
5261	0.00018	-3e-05	-3e-05	-1e-05	-7e-05	0.00022	-1e-05	5e-05	2
5262	0.00018	-3e-05	-3e-05	-1e-05	-7e-05	0.00022	-1e-05	5e-05	2
5263	0.00018	-3e-05	-3e-05	-1e-05	-7e-05	0.00022	-1e-05	5e-05	2
5264	0.00018	-3e-05	-3e-05	-1e-05	-7e-05	0.00022	-1e-05	5e-05	2
5265	-1e-05	-2e-05	1e-05	0.00022	-3e-05	-2e-05	1e-05	0	2
5266	-5e-05	-1e-05	5e-05	-0.00011	0	-0.00013	-5e-05	-6e-05	2
5267	-5e-05	-1e-05	5e-05	-0.00011	0	-0.00013	-5e-05	-6e-05	2
5268	-5e-05	-1e-05	5e-05	-0.00011	0	-0.00013	-5e-05	-6e-05	2
5269	-5e-05	-1e-05	5e-05	-0.00011	0	-0.00013	-5e-05	-6e-05	2
5270	-5e-05	-1e-05	5e-05	-0.00011	0	-0.00013	-5e-05	-6e-05	2
5271	-5e-05	-1e-05	5e-05	-0.00011	0	-0.00013	-5e-05	-6e-05	2
5272	-5e-05	-1e-05	5e-05	-0.00011	0	-0.00013	-5e-05	-6e-05	2
5273	-5e-05	-1e-05	5e-05	-0.00011	0	-0.00013	-5e-05	-6e-05	2
5274	-5e-05	-1e-05	5e-05	-0.00011	0	-0.00013	-5e-05	-6e-05	2
5275	-5e-05	-1e-05	5e-05	-0.00011	0	-0.00013	-5e-05	-6e-05	2
5276	-5e-05	-1e-05	5e-05	-0.00011	0	-0.00013	-5e-05	-6e-05	2
5277	-5e-05	-1e-05	5e-05	-0.00011	0	-0.00013	-5e-05	-6e-05	2
5278	-5e-05	-1e-05	5e-05	-0.00011	0	-0.00013	-5e-05	-6e-05	2
5279	-5e-05	-1e-05	5e-05	-0.00011	0	-0.00013	-5e-05	-6e-05	2
5280	-5e-05	-1e-05	5e-05	-0.00011	0	-0.00013	-5e-05	-6e-05	2
5281	-5e-05	-1e-05	5e-05	-0.00011	0	-0.00013	-5e-05	-6e-05	2
5282	-5e-05	-1e-05	5e-05	-0.00011	0	-0.00013	-5e-05	-6e-05	2
5283	-5e-05	-1e-05	5e-05	-0.00011	0	-0.00013	-5e-05	-6e-05	2
5284	-5e-05	-1e-05	5e-05	-0.00011	0	-0.00013	-5e-05	-6e-05	2
5285	-5e-05	-1e-05	5e-05	-0.00011	0	-0.00013	-5e-05	-6e-05	2
5286	-5e-05	-1e-05	5e-05	-0.00011	0	-0.00013	-5e-05	-6e-05	2
5290	-0.0002	2e-05	0.00011	0.00032	-3e-05	6e-05	-4e-05	-1e-05	2
5291	-0.0002	2e-05	0.00011	0.00032	-3e-05	6e-05	-4e-05	-1e-05	2
5292	-0.0002	2e-05	0.00011	0.00032	-3e-05	6e-05	-4e-05	-1e-05	2
5293	-0.0002	2e-05	0.00011	0.00032	-3e-05	6e-05	-4e-05	-1e-05	2
5294	-0.0002	2e-05	0.00011	0.00032	-3e-05	6e-05	-4e-05	-1e-05	2
5295	-0.0002	2e-05	0.00011	0.00032	-3e-05	6e-05	-4e-05	-1e-05	2
5296	-0.0002	2e-05	0.00011	0.00032	-3e-05	6e-05	-4e-05	-1e-05	2
5297	-0.0002	2e-05	0.00011	0.00032	-3e-05	6e-05	-4e-05	-1e-05	2
5298	-0.0002	2e-05	0.00011	0.00032	-3e-05	6e-05	-4e-05	-1e-05	2
5299	-0.0002	2e-05	0.00011	0.00032	-3e-05	6e-05	-4e-05	-1e-05	2
5300	-0.0002	2e-05	0.00011	0.00032	-3e-05	6e-05	-4e-05	-1e-05	2
5301	-0.0002	2e-05	0.00011	0.00032	-3e-05	6e-05	-4e-05	-1e-05	2
5302	-0.0002	2e-05	0.00011	0.00032	-3e-05	6e-05	-4e-05	-1e-05	2
5303	-0.0002	2e-05	0.00011	0.00032	-3e-05	6e-05	-4e-05	-1e-05	2
5304	-0.0002	2e-05	0.00011	0.00032	-3e-05	6e-05	-4e-05	-1e-05	2
5305	-0.0002	2e-05	0.00011	0.00032	-3e-05	6e-05	-4e-05	-1e-05	2
5306	-0.0002	2e-05	0.00011	0.00032	-3e-05	6e-05	-4e-05	-1e-05	2
5307	-0.0002	2e-05	0.00011	0.00032	-3e-05	6e-05	-4e-05	-1e-05	2
5308	-0.0002	2e-05	0.00011	0.00032	-3e-05	6e-05	-4e-05	-1e-05	2
5309	-0.0002	2e-05	0.00011	0.00032	-3e-05	6e-05	-4e-05	-1e-05	2
5310	7e-05	1e-05	0	0.00014	-2e-05	0.00018	0.00034	0.00011	2
5311	9e-05	-1e-05	2e-05	-0.00016	-4e-05	-0.00014	3e-05	7e-05	2
5312	9e-05	-1e-05	2e-05	-0.00016	-4e-05	-0.00014	3e-05	7e-05	2
5313	9e-05	-1e-05	2e-05	-0.00016	-4e-05	-0.00014	3e-05	7e-05	2
5314	9e-05	-1e-05	2e-05	-0.00016	-4e-05	-0.00014	3e-05	7e-05	2
5315	9e-05	-1e-05	2e-05	-0.00016	-4e-05	-0.00014	3e-05	7e-05	2
5316	9e-05	-1e-05	2e-05	-0.00016	-4e-05	-0.00014	3e-05	7e-05	2
5317	9e-05	-1e-05	2e-05	-0.00016	-4e-05	-0.00014	3e-05	7e-05	2
5318	9e-05	-1e-05	2e-05	-0.00016	-4e-05	-0.00014	3e-05	7e-05	2
5319	9e-05	-1e-05	2e-05	-0.00016	-4e-05	-0.00014	3e-05	7e-05	2
5320	9e-05	-1e-05	2e-05	-0.00016	-4e-05	-0.00014	3e-05	7e-05	2
5321	9e-05	-1e-05	2e-05	-0.00016	-4e-05	-0.00014	3e-05	7e-05	2
5322	9e-05	-1e-05	2e-05	-0.00016	-4e-05	-0.00014	3e-05	7e-05	2
5323	9e-05	-1e-05	2e-05	-0.00016	-4e-05	-0.00014	3e-05	7e-05	2
5324	9e-05	-1e-05	2e-05	-0.00016	-4e-05	-0.00014	3e-05	7e-05	2
5325	-0.00026	-9e-05	-0.00018	3e-05	0.00014	7e-05	0	-5e-05	2
5326	3e-05	-0.00011	-0.00055	-0.00033	-0.00023	0.00012	8e-05	-1e-05	2
5327	3e-05	-0.00011	-0.00055	-0.00033	-0.00023	0.00012	8e-05	-1e-05	2
5328	3e-05	-0.00011	-0.00055	-0.00033	-0.00023	0.00012	8e-05	-1e-05	2
5329	3e-05	-0.00011	-0.00055	-0.00033	-0.00023	0.00012	8e-05	-1e-05	2
5330	3e-05	-0.00011	-0.00055	-0.00033	-0.00023	0.00012	8e-05	-1e-05	2
5331	3e-05	-0.00011	-0.00055	-0.00033	-0.00023	0.00012	8e-05	-1e-05	2
5332	3e-05	-0.00011	-0.00055	-0.00033	-0.00023	0.00012	8e-05	-1e-05	2
5333	3e-05	-0.00011	-0.00055	-0.00033	-0.00023	0.00012	8e-05	-1e-05	2
5334	3e-05	-0.00011	-0.00055	-0.00033	-0.00023	0.00012	8e-05	-1e-05	2
5335	3e-05	-0.00011	-0.00055	-0.00033	-0.00023	0.00012	8e-05	-1e-05	2
5336	3e-05	-0.00011	-0.00055	-0.00033	-0.00023	0.00012	8e-05	-1e-05	2
5338	3e-05	-0.00011	-0.00055	-0.00033	-0.00023	0.00012	8e-05	-1e-05	2
5339	3e-05	-0.00011	-0.00055	-0.00033	-0.00023	0.00012	8e-05	-1e-05	2
5340	3e-05	-0.00011	-0.00055	-0.00033	-0.00023	0.00012	8e-05	-1e-05	2
5341	3e-05	-0.00011	-0.00055	-0.00033	-0.00023	0.00012	8e-05	-1e-05	2
5342	3e-05	-0.00011	-0.00055	-0.00033	-0.00023	0.00012	8e-05	-1e-05	2
5343	3e-05	-0.00011	-0.00055	-0.00033	-0.00023	0.00012	8e-05	-1e-05	2
5344	3e-05	-0.00011	-0.00055	-0.00033	-0.00023	0.00012	8e-05	-1e-05	2
5345	3e-05	-0.00011	-0.00055	-0.00033	-0.00023	0.00012	8e-05	-1e-05	2
5346	3e-05	-0.00011	-0.00055	-0.00033	-0.00023	0.00012	8e-05	-1e-05	2
5347	-0.00012	-5e-05	0.00011	0.00022	0	0.00015	8e-05	1e-05	2
5348	-8e-05	-1e-05	1e-05	-0.0004	-0.00012	-0.00011	3e-05	2e-05	2
5349	-8e-05	-1e-05	1e-05	-0.0004	-0.00012	-0.00011	3e-05	2e-05	2
5350	-8e-05	-1e-05	1e-05	-0.0004	-0.00012	-0.00011	3e-05	2e-05	2
5351	-8e-05	-1e-05	1e-05	-0.0004	-0.00012	-0.00011	3e-05	2e-05	2
5352	-8e-05	-1e-05	1e-05	-0.0004	-0.00012	-0.00011	3e-05	2e-05	2
5353	-8e-05	-1e-05	1e-05	-0.0004	-0.00012	-0.00011	3e-05	2e-05	2
5354	-8e-05	-1e-05	1e-05	-0.0004	-0.00012	-0.00011	3e-05	2e-05	2
5355	-8e-05	-1e-05	1e-05	-0.0004	-0.00012	-0.00011	3e-05	2e-05	2
5356	-8e-05	-1e-05	1e-05	-0.0004	-0.00012	-0.00011	3e-05	2e-05	2
5357	-8e-05	-1e-05	1e-05	-0.0004	-0.00012	-0.00011	3e-05	2e-05	2
5358	-8e-05	-1e-05	1e-05	-0.0004	-0.00012	-0.00011	3e-05	2e-05	2
5359	-8e-05	-1e-05	1e-05	-0.0004	-0.00012	-0.00011	3e-05	2e-05	2
5360	-8e-05	-1e-05	1e-05	-0.0004	-0.00012	-0.00011	3e-05	2e-05	2
5361	-8e-05	-1e-05	1e-05	-0.0004	-0.00012	-0.00011	3e-05	2e-05	2
5362	-8e-05	-1e-05	1e-05	-0.0004	-0.00012	-0.00011	3e-05	2e-05	2
5363	-8e-05	-1e-05	1e-05	-0.0004	-0.00012	-0.00011	3e-05	2e-05	2
5365	-8e-05	-1e-05	1e-05	-0.0004	-0.00012	-0.00011	3e-05	2e-05	2
5366	-8e-05	-1e-05	1e-05	-0.0004	-0.00012	-0.00011	3e-05	2e-05	2
5367	-8e-05	-1e-05	1e-05	-0.0004	-0.00012	-0.00011	3e-05	2e-05	2
5368	-8e-05	-1e-05	1e-05	-0.0004	-0.00012	-0.00011	3e-05	2e-05	2
5369	-8e-05	-1e-05	1e-05	-0.0004	-0.00012	-0.00011	3e-05	2e-05	2
5370	4e-05	7e-05	2e-05	0.00013	2e-05	0.00011	-6e-05	1e-05	2
5371	-5e-05	-0.00014	5e-05	0.00016	-1e-05	0.00034	4e-05	-5e-05	2
5372	-5e-05	-0.00014	5e-05	0.00016	-1e-05	0.00034	4e-05	-5e-05	2
5373	-5e-05	-0.00014	5e-05	0.00016	-1e-05	0.00034	4e-05	-5e-05	2
5374	-5e-05	-0.00014	5e-05	0.00016	-1e-05	0.00034	4e-05	-5e-05	2
5375	-5e-05	-0.00014	5e-05	0.00016	-1e-05	0.00034	4e-05	-5e-05	2
5376	-5e-05	-0.00014	5e-05	0.00016	-1e-05	0.00034	4e-05	-5e-05	2
5377	-5e-05	-0.00014	5e-05	0.00016	-1e-05	0.00034	4e-05	-5e-05	2
5378	-5e-05	-0.00014	5e-05	0.00016	-1e-05	0.00034	4e-05	-5e-05	2
5379	-5e-05	-0.00014	5e-05	0.00016	-1e-05	0.00034	4e-05	-5e-05	2
5380	-5e-05	-0.00014	5e-05	0.00016	-1e-05	0.00034	4e-05	-5e-05	2
5381	-5e-05	-0.00014	5e-05	0.00016	-1e-05	0.00034	4e-05	-5e-05	2
5382	-5e-05	-0.00014	5e-05	0.00016	-1e-05	0.00034	4e-05	-5e-05	2
5383	-5e-05	-0.00014	5e-05	0.00016	-1e-05	0.00034	4e-05	-5e-05	2
5384	-5e-05	-0.00014	5e-05	0.00016	-1e-05	0.00034	4e-05	-5e-05	2
5385	-3e-05	1e-05	5e-05	0.00014	-9e-05	-0.0002	-9e-05	-4e-05	2
5387	-8e-05	8e-05	0.00013	0.00015	0.00012	1e-05	-0.00011	-0.00017	2
5389	-8e-05	8e-05	0.00013	0.00015	0.00012	1e-05	-0.00011	-0.00017	2
5390	-8e-05	8e-05	0.00013	0.00015	0.00012	1e-05	-0.00011	-0.00017	2
5391	-8e-05	8e-05	0.00013	0.00015	0.00012	1e-05	-0.00011	-0.00017	2
5392	-8e-05	8e-05	0.00013	0.00015	0.00012	1e-05	-0.00011	-0.00017	2
5393	-8e-05	8e-05	0.00013	0.00015	0.00012	1e-05	-0.00011	-0.00017	2
5394	-8e-05	8e-05	0.00013	0.00015	0.00012	1e-05	-0.00011	-0.00017	2
5395	-8e-05	8e-05	0.00013	0.00015	0.00012	1e-05	-0.00011	-0.00017	2
5396	-8e-05	8e-05	0.00013	0.00015	0.00012	1e-05	-0.00011	-0.00017	2
5397	-8e-05	8e-05	0.00013	0.00015	0.00012	1e-05	-0.00011	-0.00017	2
5398	-8e-05	8e-05	0.00013	0.00015	0.00012	1e-05	-0.00011	-0.00017	2
5399	-8e-05	8e-05	0.00013	0.00015	0.00012	1e-05	-0.00011	-0.00017	2
5400	-8e-05	8e-05	0.00013	0.00015	0.00012	1e-05	-0.00011	-0.00017	2
5401	-8e-05	8e-05	0.00013	0.00015	0.00012	1e-05	-0.00011	-0.00017	2
5402	-8e-05	8e-05	0.00013	0.00015	0.00012	1e-05	-0.00011	-0.00017	2
5403	-8e-05	8e-05	0.00013	0.00015	0.00012	1e-05	-0.00011	-0.00017	2
5404	-8e-05	8e-05	0.00013	0.00015	0.00012	1e-05	-0.00011	-0.00017	2
5405	-8e-05	8e-05	0.00013	0.00015	0.00012	1e-05	-0.00011	-0.00017	2
5406	-8e-05	8e-05	0.00013	0.00015	0.00012	1e-05	-0.00011	-0.00017	2
5407	4e-05	-9e-05	0	-0.0002	-0.00018	-0.00022	5e-05	0.0001	2
5408	-9e-05	-9e-05	-9e-05	-2e-05	1e-05	0.00013	0.00011	-9e-05	2
5409	-9e-05	-9e-05	-9e-05	-2e-05	1e-05	0.00013	0.00011	-9e-05	2
5410	-9e-05	-9e-05	-9e-05	-2e-05	1e-05	0.00013	0.00011	-9e-05	2
5411	-9e-05	-9e-05	-9e-05	-2e-05	1e-05	0.00013	0.00011	-9e-05	2
5412	-9e-05	-9e-05	-9e-05	-2e-05	1e-05	0.00013	0.00011	-9e-05	2
5413	-9e-05	-9e-05	-9e-05	-2e-05	1e-05	0.00013	0.00011	-9e-05	2
5414	-9e-05	-9e-05	-9e-05	-2e-05	1e-05	0.00013	0.00011	-9e-05	2
5415	-9e-05	-9e-05	-9e-05	-2e-05	1e-05	0.00013	0.00011	-9e-05	2
5416	-9e-05	-9e-05	-9e-05	-2e-05	1e-05	0.00013	0.00011	-9e-05	2
5417	-9e-05	-9e-05	-9e-05	-2e-05	1e-05	0.00013	0.00011	-9e-05	2
5418	-9e-05	-9e-05	-9e-05	-2e-05	1e-05	0.00013	0.00011	-9e-05	2
5419	-9e-05	-9e-05	-9e-05	-2e-05	1e-05	0.00013	0.00011	-9e-05	2
5420	-9e-05	-9e-05	-9e-05	-2e-05	1e-05	0.00013	0.00011	-9e-05	2
5421	-9e-05	-9e-05	-9e-05	-2e-05	1e-05	0.00013	0.00011	-9e-05	2
5422	-9e-05	-9e-05	-9e-05	-2e-05	1e-05	0.00013	0.00011	-9e-05	2
5423	-9e-05	-9e-05	-9e-05	-2e-05	1e-05	0.00013	0.00011	-9e-05	2
5424	-9e-05	-9e-05	-9e-05	-2e-05	1e-05	0.00013	0.00011	-9e-05	2
5425	-9e-05	-9e-05	-9e-05	-2e-05	1e-05	0.00013	0.00011	-9e-05	2
5426	-9e-05	-9e-05	-9e-05	-2e-05	1e-05	0.00013	0.00011	-9e-05	2
5427	-9e-05	-9e-05	-9e-05	-2e-05	1e-05	0.00013	0.00011	-9e-05	2
5428	-9e-05	-9e-05	-9e-05	-2e-05	1e-05	0.00013	0.00011	-9e-05	2
5429	-9e-05	-9e-05	-9e-05	-2e-05	1e-05	0.00013	0.00011	-9e-05	2
5430	0.00012	0.0001	0.00012	-5e-05	4e-05	8e-05	7e-05	6e-05	2
5431	0.0001	8e-05	0.00027	0.00046	-0.0001	-0.00014	-0.00012	6e-05	2
5432	0.0001	8e-05	0.00027	0.00046	-0.0001	-0.00014	-0.00012	6e-05	2
5433	0.0001	8e-05	0.00027	0.00046	-0.0001	-0.00014	-0.00012	6e-05	2
5434	0.0001	8e-05	0.00027	0.00046	-0.0001	-0.00014	-0.00012	6e-05	2
5435	0.0001	8e-05	0.00027	0.00046	-0.0001	-0.00014	-0.00012	6e-05	2
5436	0.0001	8e-05	0.00027	0.00046	-0.0001	-0.00014	-0.00012	6e-05	2
5438	0.0001	8e-05	0.00027	0.00046	-0.0001	-0.00014	-0.00012	6e-05	2
5439	0.0001	8e-05	0.00027	0.00046	-0.0001	-0.00014	-0.00012	6e-05	2
5440	0.0001	8e-05	0.00027	0.00046	-0.0001	-0.00014	-0.00012	6e-05	2
5441	0.0001	8e-05	0.00027	0.00046	-0.0001	-0.00014	-0.00012	6e-05	2
5442	0.0001	8e-05	0.00027	0.00046	-0.0001	-0.00014	-0.00012	6e-05	2
5443	0.0001	8e-05	0.00027	0.00046	-0.0001	-0.00014	-0.00012	6e-05	2
5444	0.0001	8e-05	0.00027	0.00046	-0.0001	-0.00014	-0.00012	6e-05	2
5445	-0.00021	-0.0001	1e-05	-6e-05	-7e-05	-0.00021	-0.00018	-0.00017	2
5446	0.00013	1e-05	0.00012	9e-05	4e-05	-0.00046	-2e-05	1e-05	2
5447	0.00013	1e-05	0.00012	9e-05	4e-05	-0.00046	-2e-05	1e-05	2
5448	0.00013	1e-05	0.00012	9e-05	4e-05	-0.00046	-2e-05	1e-05	2
5449	0.00013	1e-05	0.00012	9e-05	4e-05	-0.00046	-2e-05	1e-05	2
5450	0.00013	1e-05	0.00012	9e-05	4e-05	-0.00046	-2e-05	1e-05	2
5451	0.00013	1e-05	0.00012	9e-05	4e-05	-0.00046	-2e-05	1e-05	2
5452	0.00013	1e-05	0.00012	9e-05	4e-05	-0.00046	-2e-05	1e-05	2
5453	0.00013	1e-05	0.00012	9e-05	4e-05	-0.00046	-2e-05	1e-05	2
5454	0.00013	1e-05	0.00012	9e-05	4e-05	-0.00046	-2e-05	1e-05	2
5455	0.00013	1e-05	0.00012	9e-05	4e-05	-0.00046	-2e-05	1e-05	2
5456	0.00013	1e-05	0.00012	9e-05	4e-05	-0.00046	-2e-05	1e-05	2
5457	0.00013	1e-05	0.00012	9e-05	4e-05	-0.00046	-2e-05	1e-05	2
5458	0.00013	1e-05	0.00012	9e-05	4e-05	-0.00046	-2e-05	1e-05	2
5459	0.00013	1e-05	0.00012	9e-05	4e-05	-0.00046	-2e-05	1e-05	2
5460	0.00013	1e-05	0.00012	9e-05	4e-05	-0.00046	-2e-05	1e-05	2
5461	0.00013	1e-05	0.00012	9e-05	4e-05	-0.00046	-2e-05	1e-05	2
5462	0.00013	1e-05	0.00012	9e-05	4e-05	-0.00046	-2e-05	1e-05	2
5463	0.00013	1e-05	0.00012	9e-05	4e-05	-0.00046	-2e-05	1e-05	2
5464	0.00013	1e-05	0.00012	9e-05	4e-05	-0.00046	-2e-05	1e-05	2
5465	0.00013	1e-05	0.00012	9e-05	4e-05	-0.00046	-2e-05	1e-05	2
5466	0.00013	1e-05	0.00012	9e-05	4e-05	-0.00046	-2e-05	1e-05	2
5467	-1e-05	-1e-05	-4e-05	-1e-05	8e-05	0.00046	-6e-05	-7e-05	2
5468	3e-05	0	-5e-05	0	-3e-05	5e-05	2e-05	5e-05	2
5469	3e-05	0	-5e-05	0	-3e-05	5e-05	2e-05	5e-05	2
5470	3e-05	0	-5e-05	0	-3e-05	5e-05	2e-05	5e-05	2
5471	3e-05	0	-5e-05	0	-3e-05	5e-05	2e-05	5e-05	2
5472	3e-05	0	-5e-05	0	-3e-05	5e-05	2e-05	5e-05	2
5473	3e-05	0	-5e-05	0	-3e-05	5e-05	2e-05	5e-05	2
5474	3e-05	0	-5e-05	0	-3e-05	5e-05	2e-05	5e-05	2
5475	3e-05	0	-5e-05	0	-3e-05	5e-05	2e-05	5e-05	2
5476	3e-05	0	-5e-05	0	-3e-05	5e-05	2e-05	5e-05	2
5477	3e-05	0	-5e-05	0	-3e-05	5e-05	2e-05	5e-05	2
5478	3e-05	0	-5e-05	0	-3e-05	5e-05	2e-05	5e-05	2
5479	3e-05	0	-5e-05	0	-3e-05	5e-05	2e-05	5e-05	2
5480	3e-05	0	-5e-05	0	-3e-05	5e-05	2e-05	5e-05	2
5481	3e-05	0	-5e-05	0	-3e-05	5e-05	2e-05	5e-05	2
5482	3e-05	0	-5e-05	0	-3e-05	5e-05	2e-05	5e-05	2
5483	3e-05	0	-5e-05	0	-3e-05	5e-05	2e-05	5e-05	2
5484	3e-05	0	-5e-05	0	-3e-05	5e-05	2e-05	5e-05	2
5485	3e-05	0	-5e-05	0	-3e-05	5e-05	2e-05	5e-05	2
5486	3e-05	0	-5e-05	0	-3e-05	5e-05	2e-05	5e-05	2
5488	3e-05	0	-5e-05	0	-3e-05	5e-05	2e-05	5e-05	2
5489	3e-05	0	-5e-05	0	-3e-05	5e-05	2e-05	5e-05	2
5490	3e-05	-5e-05	-0.00032	-0.0004	-1e-05	-3e-05	-0.00015	1e-05	2
5491	3e-05	-5e-05	-0.00032	-0.0004	-1e-05	-3e-05	-0.00015	1e-05	2
5492	3e-05	-5e-05	-0.00032	-0.0004	-1e-05	-3e-05	-0.00015	1e-05	2
5493	3e-05	-5e-05	-0.00032	-0.0004	-1e-05	-3e-05	-0.00015	1e-05	2
5494	3e-05	-5e-05	-0.00032	-0.0004	-1e-05	-3e-05	-0.00015	1e-05	2
5495	3e-05	-5e-05	-0.00032	-0.0004	-1e-05	-3e-05	-0.00015	1e-05	2
5496	3e-05	-5e-05	-0.00032	-0.0004	-1e-05	-3e-05	-0.00015	1e-05	2
5497	3e-05	2e-05	0	3e-05	-9e-05	0.0002	0.00016	6e-05	2
5498	-9e-05	-2e-05	-0.00011	-0.00022	-5e-05	-0.0002	-0.0001	-3e-05	2
5499	-9e-05	-2e-05	-0.00011	-0.00022	-5e-05	-0.0002	-0.0001	-3e-05	2
5500	-9e-05	-2e-05	-0.00011	-0.00022	-5e-05	-0.0002	-0.0001	-3e-05	2
5501	-9e-05	-2e-05	-0.00011	-0.00022	-5e-05	-0.0002	-0.0001	-3e-05	2
5502	-9e-05	-2e-05	-0.00011	-0.00022	-5e-05	-0.0002	-0.0001	-3e-05	2
5503	0	-2e-05	-0.00011	-0.00047	0.00027	0.00025	0.00028	0.0001	2
5504	0	-2e-05	-0.00011	-0.00047	0.00027	0.00025	0.00028	0.0001	2
5505	0	-2e-05	-0.00011	-0.00047	0.00027	0.00025	0.00028	0.0001	2
5506	0	-2e-05	-0.00011	-0.00047	0.00027	0.00025	0.00028	0.0001	2
5507	0	-2e-05	-0.00011	-0.00047	0.00027	0.00025	0.00028	0.0001	2
5508	0	-2e-05	-0.00011	-0.00047	0.00027	0.00025	0.00028	0.0001	2
5509	0	-2e-05	-0.00011	-0.00047	0.00027	0.00025	0.00028	0.0001	2
5510	0	-2e-05	-0.00011	-0.00047	0.00027	0.00025	0.00028	0.0001	2
5511	0	-2e-05	-0.00011	-0.00047	0.00027	0.00025	0.00028	0.0001	2
5512	0	-2e-05	-0.00011	-0.00047	0.00027	0.00025	0.00028	0.0001	2
5513	0	-2e-05	-0.00011	-0.00047	0.00027	0.00025	0.00028	0.0001	2
5514	0	-2e-05	-0.00011	-0.00047	0.00027	0.00025	0.00028	0.0001	2
5515	0	-2e-05	-0.00011	-0.00047	0.00027	0.00025	0.00028	0.0001	2
5516	0	-2e-05	-0.00011	-0.00047	0.00027	0.00025	0.00028	0.0001	2
5517	0	-2e-05	-0.00011	-0.00047	0.00027	0.00025	0.00028	0.0001	2
5518	0	-2e-05	-0.00011	-0.00047	0.00027	0.00025	0.00028	0.0001	2
5519	0	-2e-05	-0.00011	-0.00047	0.00027	0.00025	0.00028	0.0001	2
5520	0	-2e-05	-0.00011	-0.00047	0.00027	0.00025	0.00028	0.0001	2
5521	0	-2e-05	-0.00011	-0.00047	0.00027	0.00025	0.00028	0.0001	2
5522	0	-2e-05	-0.00011	-0.00047	0.00027	0.00025	0.00028	0.0001	2
5523	0	-2e-05	-0.00011	-0.00047	0.00027	0.00025	0.00028	0.0001	2
5524	0	-2e-05	-0.00011	-0.00047	0.00027	0.00025	0.00028	0.0001	2
5525	0	-2e-05	-0.00011	-0.00047	0.00027	0.00025	0.00028	0.0001	2
5526	0	-2e-05	-0.00011	-0.00047	0.00027	0.00025	0.00028	0.0001	2
5527	0	-2e-05	-0.00011	-0.00047	0.00027	0.00025	0.00028	0.0001	2
5528	0	-2e-05	-0.00011	-0.00047	0.00027	0.00025	0.00028	0.0001	2
5529	1e-05	-4e-05	-3e-05	0.00025	1e-05	-0.00026	-0.00021	-9e-05	2
5530	-0.00023	-8e-05	0	-0.00013	-0.00012	2e-05	5e-05	-5e-05	2
5531	0.00018	9e-05	5e-05	0.0001	7e-05	9e-05	-5e-05	-4e-05	2
5532	0.00018	9e-05	5e-05	0.0001	7e-05	9e-05	-5e-05	-4e-05	2
5533	0.00018	9e-05	5e-05	0.0001	7e-05	9e-05	-5e-05	-4e-05	2
5534	0.00018	9e-05	5e-05	0.0001	7e-05	9e-05	-5e-05	-4e-05	2
5535	0.00018	9e-05	5e-05	0.0001	7e-05	9e-05	-5e-05	-4e-05	2
5536	0.00018	9e-05	5e-05	0.0001	7e-05	9e-05	-5e-05	-4e-05	2
5538	0.00018	9e-05	5e-05	0.0001	7e-05	9e-05	-5e-05	-4e-05	2
5539	0.00018	9e-05	5e-05	0.0001	7e-05	9e-05	-5e-05	-4e-05	2
5540	0.00018	9e-05	5e-05	0.0001	7e-05	9e-05	-5e-05	-4e-05	2
5541	0.00018	9e-05	5e-05	0.0001	7e-05	9e-05	-5e-05	-4e-05	2
5542	0.00018	9e-05	5e-05	0.0001	7e-05	9e-05	-5e-05	-4e-05	2
5543	0.00018	9e-05	5e-05	0.0001	7e-05	9e-05	-5e-05	-4e-05	2
5544	0.00018	9e-05	5e-05	0.0001	7e-05	9e-05	-5e-05	-4e-05	2
5545	0.00018	9e-05	5e-05	0.0001	7e-05	9e-05	-5e-05	-4e-05	2
5546	0.00018	9e-05	5e-05	0.0001	7e-05	9e-05	-5e-05	-4e-05	2
5547	0.00018	9e-05	5e-05	0.0001	7e-05	9e-05	-5e-05	-4e-05	2
5548	0.00018	9e-05	5e-05	0.0001	7e-05	9e-05	-5e-05	-4e-05	2
5549	-4e-05	-5e-05	0	2e-05	-0.00013	2e-05	-0.00017	-4e-05	2
5550	-4e-05	-5e-05	0	2e-05	-0.00013	2e-05	-0.00017	-4e-05	2
5551	-4e-05	-5e-05	0	2e-05	-0.00013	2e-05	-0.00017	-4e-05	2
5552	-4e-05	-5e-05	0	2e-05	-0.00013	2e-05	-0.00017	-4e-05	2
5553	-4e-05	-5e-05	0	2e-05	-0.00013	2e-05	-0.00017	-4e-05	2
5554	-4e-05	-5e-05	0	2e-05	-0.00013	2e-05	-0.00017	-4e-05	2
5555	-4e-05	-5e-05	0	2e-05	-0.00013	2e-05	-0.00017	-4e-05	2
5556	-4e-05	-5e-05	0	2e-05	-0.00013	2e-05	-0.00017	-4e-05	2
5557	-4e-05	-5e-05	0	2e-05	-0.00013	2e-05	-0.00017	-4e-05	2
5558	-4e-05	-5e-05	0	2e-05	-0.00013	2e-05	-0.00017	-4e-05	2
5559	-4e-05	-5e-05	0	2e-05	-0.00013	2e-05	-0.00017	-4e-05	2
5560	-4e-05	-5e-05	0	2e-05	-0.00013	2e-05	-0.00017	-4e-05	2
5561	-4e-05	-5e-05	0	2e-05	-0.00013	2e-05	-0.00017	-4e-05	2
5562	-4e-05	-5e-05	0	2e-05	-0.00013	2e-05	-0.00017	-4e-05	2
5563	-4e-05	-5e-05	0	2e-05	-0.00013	2e-05	-0.00017	-4e-05	2
5564	-4e-05	-5e-05	0	2e-05	-0.00013	2e-05	-0.00017	-4e-05	2
5565	5e-05	-5e-05	-6e-05	-5e-05	-1e-05	7e-05	-4e-05	-1e-05	2
5566	0.00011	0	-0.00024	-0.00014	-3e-05	0.00055	-0.00019	0	2
5567	0.00011	0	-0.00024	-0.00014	-3e-05	0.00055	-0.00019	0	2
5568	0.00011	0	-0.00024	-0.00014	-3e-05	0.00055	-0.00019	0	2
5569	0.00011	0	-0.00024	-0.00014	-3e-05	0.00055	-0.00019	0	2
5570	0.00011	0	-0.00024	-0.00014	-3e-05	0.00055	-0.00019	0	2
5571	2e-05	2e-05	5e-05	7e-05	0.00012	0.00011	0.00023	8e-05	2
5572	2e-05	2e-05	5e-05	7e-05	0.00012	0.00011	0.00023	8e-05	2
5573	2e-05	2e-05	5e-05	7e-05	0.00012	0.00011	0.00023	8e-05	2
5574	2e-05	2e-05	5e-05	7e-05	0.00012	0.00011	0.00023	8e-05	2
5575	2e-05	2e-05	5e-05	7e-05	0.00012	0.00011	0.00023	8e-05	2
5576	2e-05	2e-05	5e-05	7e-05	0.00012	0.00011	0.00023	8e-05	2
5577	2e-05	2e-05	5e-05	7e-05	0.00012	0.00011	0.00023	8e-05	2
5578	2e-05	2e-05	5e-05	7e-05	0.00012	0.00011	0.00023	8e-05	2
5579	2e-05	2e-05	5e-05	7e-05	0.00012	0.00011	0.00023	8e-05	2
5580	2e-05	2e-05	5e-05	7e-05	0.00012	0.00011	0.00023	8e-05	2
5581	2e-05	2e-05	5e-05	7e-05	0.00012	0.00011	0.00023	8e-05	2
5582	2e-05	2e-05	5e-05	7e-05	0.00012	0.00011	0.00023	8e-05	2
5583	2e-05	2e-05	5e-05	7e-05	0.00012	0.00011	0.00023	8e-05	2
5584	2e-05	2e-05	5e-05	7e-05	0.00012	0.00011	0.00023	8e-05	2
5585	2e-05	2e-05	5e-05	7e-05	0.00012	0.00011	0.00023	8e-05	2
5586	2e-05	2e-05	5e-05	7e-05	0.00012	0.00011	0.00023	8e-05	2
5589	-0.00017	-0.00023	-0.00073	-0.00057	-0.0001	0.00043	0.00025	-0.0001	2
5590	-0.00017	-0.00023	-0.00073	-0.00057	-0.0001	0.00043	0.00025	-0.0001	2
5591	-0.00017	-0.00023	-0.00073	-0.00057	-0.0001	0.00043	0.00025	-0.0001	2
5592	-0.00017	-0.00023	-0.00073	-0.00057	-0.0001	0.00043	0.00025	-0.0001	2
5593	-0.00017	-0.00023	-0.00073	-0.00057	-0.0001	0.00043	0.00025	-0.0001	2
5594	-0.00017	-0.00023	-0.00073	-0.00057	-0.0001	0.00043	0.00025	-0.0001	2
5595	-0.00017	-0.00023	-0.00073	-0.00057	-0.0001	0.00043	0.00025	-0.0001	2
5596	-0.00017	-0.00023	-0.00073	-0.00057	-0.0001	0.00043	0.00025	-0.0001	2
5597	-0.00017	-0.00023	-0.00073	-0.00057	-0.0001	0.00043	0.00025	-0.0001	2
5598	-0.00017	-0.00023	-0.00073	-0.00057	-0.0001	0.00043	0.00025	-0.0001	2
5599	-0.00017	-0.00023	-0.00073	-0.00057	-0.0001	0.00043	0.00025	-0.0001	2
5600	-0.00017	-0.00023	-0.00073	-0.00057	-0.0001	0.00043	0.00025	-0.0001	2
5601	-0.00017	-0.00023	-0.00073	-0.00057	-0.0001	0.00043	0.00025	-0.0001	2
5602	-0.00017	-0.00023	-0.00073	-0.00057	-0.0001	0.00043	0.00025	-0.0001	2
5603	-0.00017	-0.00023	-0.00073	-0.00057	-0.0001	0.00043	0.00025	-0.0001	2
5604	-0.00017	-0.00023	-0.00073	-0.00057	-0.0001	0.00043	0.00025	-0.0001	2
5605	-0.00017	-0.00023	-0.00073	-0.00057	-0.0001	0.00043	0.00025	-0.0001	2
5606	-0.00017	-0.00023	-0.00073	-0.00057	-0.0001	0.00043	0.00025	-0.0001	2
5607	-0.00017	-0.00023	-0.00073	-0.00057	-0.0001	0.00043	0.00025	-0.0001	2
5608	-0.00017	-0.00023	-0.00073	-0.00057	-0.0001	0.00043	0.00025	-0.0001	2
5609	-0.00017	-0.00023	-0.00073	-0.00057	-0.0001	0.00043	0.00025	-0.0001	2
5610	-1e-05	0	0.0002	0.00029	-2e-05	-0.00022	-3e-05	2e-05	2
5611	-1e-05	0	0.0002	0.00029	-2e-05	-0.00022	-3e-05	2e-05	2
5612	-1e-05	0	0.0002	0.00029	-2e-05	-0.00022	-3e-05	2e-05	2
5613	-1e-05	0	0.0002	0.00029	-2e-05	-0.00022	-3e-05	2e-05	2
5614	-1e-05	0	0.0002	0.00029	-2e-05	-0.00022	-3e-05	2e-05	2
5615	-1e-05	0	0.0002	0.00029	-2e-05	-0.00022	-3e-05	2e-05	2
5616	-1e-05	-6e-05	0	-2e-05	-0.00011	-0.00024	5e-05	0.0001	2
5617	-1e-05	-6e-05	0	-2e-05	-0.00011	-0.00024	5e-05	0.0001	2
5618	-1e-05	-6e-05	0	-2e-05	-0.00011	-0.00024	5e-05	0.0001	2
5619	-1e-05	-6e-05	0	-2e-05	-0.00011	-0.00024	5e-05	0.0001	2
5620	-1e-05	-6e-05	0	-2e-05	-0.00011	-0.00024	5e-05	0.0001	2
5621	-1e-05	-6e-05	0	-2e-05	-0.00011	-0.00024	5e-05	0.0001	2
5622	-1e-05	-6e-05	0	-2e-05	-0.00011	-0.00024	5e-05	0.0001	2
5623	-1e-05	-6e-05	0	-2e-05	-0.00011	-0.00024	5e-05	0.0001	2
5624	1e-05	6e-05	-4e-05	0.00013	-5e-05	0.00021	0.00017	-2e-05	2
5625	1e-05	6e-05	-4e-05	0.00013	-5e-05	0.00021	0.00017	-2e-05	2
5626	1e-05	6e-05	-4e-05	0.00013	-5e-05	0.00021	0.00017	-2e-05	2
5627	1e-05	6e-05	-4e-05	0.00013	-5e-05	0.00021	0.00017	-2e-05	2
5628	1e-05	6e-05	-4e-05	0.00013	-5e-05	0.00021	0.00017	-2e-05	2
5629	1e-05	6e-05	-4e-05	0.00013	-5e-05	0.00021	0.00017	-2e-05	2
5630	1e-05	6e-05	-4e-05	0.00013	-5e-05	0.00021	0.00017	-2e-05	2
5631	-5e-05	-1e-05	9e-05	0.00011	-4e-05	2e-05	-4e-05	-0.00013	2
5632	-5e-05	-1e-05	9e-05	0.00011	-4e-05	2e-05	-4e-05	-0.00013	2
5633	-5e-05	-1e-05	9e-05	0.00011	-4e-05	2e-05	-4e-05	-0.00013	2
5634	-5e-05	-1e-05	9e-05	0.00011	-4e-05	2e-05	-4e-05	-0.00013	2
5635	-5e-05	-1e-05	9e-05	0.00011	-4e-05	2e-05	-4e-05	-0.00013	2
5636	-5e-05	-1e-05	9e-05	0.00011	-4e-05	2e-05	-4e-05	-0.00013	2
5639	-5e-05	-1e-05	9e-05	0.00011	-4e-05	2e-05	-4e-05	-0.00013	2
5640	-5e-05	-1e-05	9e-05	0.00011	-4e-05	2e-05	-4e-05	-0.00013	2
5641	-5e-05	-1e-05	9e-05	0.00011	-4e-05	2e-05	-4e-05	-0.00013	2
5642	-5e-05	-1e-05	9e-05	0.00011	-4e-05	2e-05	-4e-05	-0.00013	2
5643	-5e-05	-1e-05	9e-05	0.00011	-4e-05	2e-05	-4e-05	-0.00013	2
5644	-5e-05	-1e-05	9e-05	0.00011	-4e-05	2e-05	-4e-05	-0.00013	2
5645	-5e-05	-1e-05	9e-05	0.00011	-4e-05	2e-05	-4e-05	-0.00013	2
5646	-5e-05	-1e-05	9e-05	0.00011	-4e-05	2e-05	-4e-05	-0.00013	2
5647	-5e-05	-1e-05	9e-05	0.00011	-4e-05	2e-05	-4e-05	-0.00013	2
5648	-5e-05	-1e-05	9e-05	0.00011	-4e-05	2e-05	-4e-05	-0.00013	2
5649	-5e-05	-1e-05	9e-05	0.00011	-4e-05	2e-05	-4e-05	-0.00013	2
5650	-5e-05	-1e-05	9e-05	0.00011	-4e-05	2e-05	-4e-05	-0.00013	2
5651	-5e-05	-1e-05	9e-05	0.00011	-4e-05	2e-05	-4e-05	-0.00013	2
5652	-5e-05	-1e-05	9e-05	0.00011	-4e-05	2e-05	-4e-05	-0.00013	2
5653	-5e-05	-1e-05	9e-05	0.00011	-4e-05	2e-05	-4e-05	-0.00013	2
5654	-5e-05	-1e-05	9e-05	0.00011	-4e-05	2e-05	-4e-05	-0.00013	2
5655	-4e-05	0	8e-05	-0.00022	3e-05	0.00018	0.0001	-7e-05	2
5656	0	0	-0.00018	-0.0001	-7e-05	-3e-05	4e-05	0.00013	2
5657	0	3e-05	5e-05	-0.00014	0	-6e-05	-0.0001	-8e-05	2
5658	0	3e-05	5e-05	-0.00014	0	-6e-05	-0.0001	-8e-05	2
5659	0	3e-05	5e-05	-0.00014	0	-6e-05	-0.0001	-8e-05	2
5660	0	3e-05	5e-05	-0.00014	0	-6e-05	-0.0001	-8e-05	2
5661	0	3e-05	5e-05	-0.00014	0	-6e-05	-0.0001	-8e-05	2
5662	0	3e-05	5e-05	-0.00014	0	-6e-05	-0.0001	-8e-05	2
5663	0	3e-05	5e-05	-0.00014	0	-6e-05	-0.0001	-8e-05	2
5664	0	3e-05	5e-05	-0.00014	0	-6e-05	-0.0001	-8e-05	2
5665	0	3e-05	5e-05	-0.00014	0	-6e-05	-0.0001	-8e-05	2
5666	0	3e-05	5e-05	-0.00014	0	-6e-05	-0.0001	-8e-05	2
5667	0	3e-05	5e-05	-0.00014	0	-6e-05	-0.0001	-8e-05	2
5668	0	3e-05	5e-05	-0.00014	0	-6e-05	-0.0001	-8e-05	2
5669	0	3e-05	5e-05	-0.00014	0	-6e-05	-0.0001	-8e-05	2
5670	-3e-05	1e-05	0.0001	0.00039	8e-05	-4e-05	-4e-05	-5e-05	2
5671	0.00024	7e-05	0.00011	0.00042	-5e-05	-0.00017	0.00011	5e-05	2
5672	0.00024	7e-05	0.00011	0.00042	-5e-05	-0.00017	0.00011	5e-05	2
5673	0.00024	7e-05	0.00011	0.00042	-5e-05	-0.00017	0.00011	5e-05	2
5674	0.00024	7e-05	0.00011	0.00042	-5e-05	-0.00017	0.00011	5e-05	2
5675	0.00024	7e-05	0.00011	0.00042	-5e-05	-0.00017	0.00011	5e-05	2
5676	0.00024	7e-05	0.00011	0.00042	-5e-05	-0.00017	0.00011	5e-05	2
5677	0.00024	7e-05	0.00011	0.00042	-5e-05	-0.00017	0.00011	5e-05	2
5678	0.00024	7e-05	0.00011	0.00042	-5e-05	-0.00017	0.00011	5e-05	2
5679	0.00024	7e-05	0.00011	0.00042	-5e-05	-0.00017	0.00011	5e-05	2
5680	0.00024	7e-05	0.00011	0.00042	-5e-05	-0.00017	0.00011	5e-05	2
5681	0.00024	7e-05	0.00011	0.00042	-5e-05	-0.00017	0.00011	5e-05	2
5682	0.00024	7e-05	0.00011	0.00042	-5e-05	-0.00017	0.00011	5e-05	2
5683	0.00024	7e-05	0.00011	0.00042	-5e-05	-0.00017	0.00011	5e-05	2
5684	-0.00013	-6e-05	-0.00017	5e-05	-8e-05	0.00016	8e-05	-0.00014	2
5685	-0.00013	-6e-05	-0.00017	5e-05	-8e-05	0.00016	8e-05	-0.00014	2
5686	-0.00013	-6e-05	-0.00017	5e-05	-8e-05	0.00016	8e-05	-0.00014	2
5688	-0.00013	-6e-05	-0.00017	5e-05	-8e-05	0.00016	8e-05	-0.00014	2
5689	-0.00013	-6e-05	-0.00017	5e-05	-8e-05	0.00016	8e-05	-0.00014	2
5690	-0.00013	-6e-05	-0.00017	5e-05	-8e-05	0.00016	8e-05	-0.00014	2
5691	-7e-05	2e-05	-0.0001	8e-05	0.00011	-2e-05	-6e-05	-6e-05	2
5692	-7e-05	2e-05	-0.0001	8e-05	0.00011	-2e-05	-6e-05	-6e-05	2
5693	-7e-05	2e-05	-0.0001	8e-05	0.00011	-2e-05	-6e-05	-6e-05	2
5694	-7e-05	2e-05	-0.0001	8e-05	0.00011	-2e-05	-6e-05	-6e-05	2
5695	-7e-05	2e-05	-0.0001	8e-05	0.00011	-2e-05	-6e-05	-6e-05	2
5696	-7e-05	2e-05	-0.0001	8e-05	0.00011	-2e-05	-6e-05	-6e-05	2
5697	-7e-05	2e-05	-0.0001	8e-05	0.00011	-2e-05	-6e-05	-6e-05	2
5698	-7e-05	2e-05	-0.0001	8e-05	0.00011	-2e-05	-6e-05	-6e-05	2
5699	-7e-05	2e-05	-0.0001	8e-05	0.00011	-2e-05	-6e-05	-6e-05	2
5700	-7e-05	2e-05	-0.0001	8e-05	0.00011	-2e-05	-6e-05	-6e-05	2
5701	-7e-05	2e-05	-0.0001	8e-05	0.00011	-2e-05	-6e-05	-6e-05	2
5702	-7e-05	2e-05	-0.0001	8e-05	0.00011	-2e-05	-6e-05	-6e-05	2
5703	-7e-05	2e-05	-0.0001	8e-05	0.00011	-2e-05	-6e-05	-6e-05	2
5704	-7e-05	2e-05	-0.0001	8e-05	0.00011	-2e-05	-6e-05	-6e-05	2
5705	-7e-05	2e-05	-0.0001	8e-05	0.00011	-2e-05	-6e-05	-6e-05	2
5706	-7e-05	2e-05	-0.0001	8e-05	0.00011	-2e-05	-6e-05	-6e-05	2
5707	-5e-05	-1e-05	0.00018	0.0002	-2e-05	-0.00035	-7e-05	0	2
5708	-5e-05	-1e-05	0.00018	0.0002	-2e-05	-0.00035	-7e-05	0	2
5709	0	-6e-05	-3e-05	-0.00014	-2e-05	0.00035	-9e-05	4e-05	2
5710	0	-6e-05	-3e-05	-0.00014	-2e-05	0.00035	-9e-05	4e-05	2
5711	0	-6e-05	-3e-05	-0.00014	-2e-05	0.00035	-9e-05	4e-05	2
5712	0	-6e-05	-3e-05	-0.00014	-2e-05	0.00035	-9e-05	4e-05	2
5713	0	-6e-05	-3e-05	-0.00014	-2e-05	0.00035	-9e-05	4e-05	2
5714	0	-6e-05	-3e-05	-0.00014	-2e-05	0.00035	-9e-05	4e-05	2
5715	0	-6e-05	-3e-05	-0.00014	-2e-05	0.00035	-9e-05	4e-05	2
5716	0	-6e-05	-3e-05	-0.00014	-2e-05	0.00035	-9e-05	4e-05	2
5717	0	-6e-05	-3e-05	-0.00014	-2e-05	0.00035	-9e-05	4e-05	2
5718	0	-6e-05	-3e-05	-0.00014	-2e-05	0.00035	-9e-05	4e-05	2
5719	0	-6e-05	-3e-05	-0.00014	-2e-05	0.00035	-9e-05	4e-05	2
5720	0	-6e-05	-3e-05	-0.00014	-2e-05	0.00035	-9e-05	4e-05	2
5721	0	-6e-05	-3e-05	-0.00014	-2e-05	0.00035	-9e-05	4e-05	2
5722	0	-6e-05	-3e-05	-0.00014	-2e-05	0.00035	-9e-05	4e-05	2
5723	0	-6e-05	-3e-05	-0.00014	-2e-05	0.00035	-9e-05	4e-05	2
5724	0	-6e-05	-3e-05	-0.00014	-2e-05	0.00035	-9e-05	4e-05	2
5725	0	-6e-05	-3e-05	-0.00014	-2e-05	0.00035	-9e-05	4e-05	2
5726	0	-6e-05	-3e-05	-0.00014	-2e-05	0.00035	-9e-05	4e-05	2
5727	0	-6e-05	-3e-05	-0.00014	-2e-05	0.00035	-9e-05	4e-05	2
5728	0	-6e-05	-3e-05	-0.00014	-2e-05	0.00035	-9e-05	4e-05	2
5729	0	-6e-05	-3e-05	-0.00014	-2e-05	0.00035	-9e-05	4e-05	2
5730	0	-1e-05	-3e-05	-0.0001	-5e-05	2e-05	0.0001	7e-05	2
5731	5e-05	7e-05	0.00024	0.00072	-1e-05	2e-05	0.00013	-3e-05	2
5732	0.00012	1e-05	-0.00017	-0.00093	7e-05	0.00029	-0.00019	4e-05	2
5733	0.00012	1e-05	-0.00017	-0.00093	7e-05	0.00029	-0.00019	4e-05	2
5734	0.00012	1e-05	-0.00017	-0.00093	7e-05	0.00029	-0.00019	4e-05	2
5735	0.00012	1e-05	-0.00017	-0.00093	7e-05	0.00029	-0.00019	4e-05	2
5736	0.00012	1e-05	-0.00017	-0.00093	7e-05	0.00029	-0.00019	4e-05	2
5739	0.00012	1e-05	-0.00017	-0.00093	7e-05	0.00029	-0.00019	4e-05	2
5740	0.00012	1e-05	-0.00017	-0.00093	7e-05	0.00029	-0.00019	4e-05	2
5741	0.00012	1e-05	-0.00017	-0.00093	7e-05	0.00029	-0.00019	4e-05	2
5742	0.00012	1e-05	-0.00017	-0.00093	7e-05	0.00029	-0.00019	4e-05	2
5743	0.00012	1e-05	-0.00017	-0.00093	7e-05	0.00029	-0.00019	4e-05	2
5744	-9e-05	-6e-05	-2e-05	-0.00013	-4e-05	-0.0001	-0.00039	-6e-05	2
5745	-9e-05	-6e-05	-2e-05	-0.00013	-4e-05	-0.0001	-0.00039	-6e-05	2
5746	-9e-05	-6e-05	-2e-05	-0.00013	-4e-05	-0.0001	-0.00039	-6e-05	2
5747	-9e-05	-6e-05	-2e-05	-0.00013	-4e-05	-0.0001	-0.00039	-6e-05	2
5748	-9e-05	-6e-05	-2e-05	-0.00013	-4e-05	-0.0001	-0.00039	-6e-05	2
5749	-9e-05	-6e-05	-2e-05	-0.00013	-4e-05	-0.0001	-0.00039	-6e-05	2
5750	-9e-05	-6e-05	-2e-05	-0.00013	-4e-05	-0.0001	-0.00039	-6e-05	2
5751	-4e-05	1e-05	0.00022	0.00019	0.00012	0	-7e-05	-9e-05	2
5752	-4e-05	1e-05	0.00022	0.00019	0.00012	0	-7e-05	-9e-05	2
5753	-4e-05	1e-05	0.00022	0.00019	0.00012	0	-7e-05	-9e-05	2
5754	-4e-05	1e-05	0.00022	0.00019	0.00012	0	-7e-05	-9e-05	2
5755	-4e-05	1e-05	0.00022	0.00019	0.00012	0	-7e-05	-9e-05	2
5756	-4e-05	1e-05	0.00022	0.00019	0.00012	0	-7e-05	-9e-05	2
5757	-4e-05	1e-05	0.00022	0.00019	0.00012	0	-7e-05	-9e-05	2
5758	-4e-05	1e-05	0.00022	0.00019	0.00012	0	-7e-05	-9e-05	2
5759	-4e-05	1e-05	0.00022	0.00019	0.00012	0	-7e-05	-9e-05	2
5760	-4e-05	1e-05	0.00022	0.00019	0.00012	0	-7e-05	-9e-05	2
5761	-4e-05	1e-05	0.00022	0.00019	0.00012	0	-7e-05	-9e-05	2
5762	-4e-05	1e-05	0.00022	0.00019	0.00012	0	-7e-05	-9e-05	2
5763	-4e-05	1e-05	0.00022	0.00019	0.00012	0	-7e-05	-9e-05	2
5764	-4e-05	1e-05	0.00022	0.00019	0.00012	0	-7e-05	-9e-05	2
5765	-4e-05	1e-05	0.00022	0.00019	0.00012	0	-7e-05	-9e-05	2
5766	-4e-05	1e-05	0.00022	0.00019	0.00012	0	-7e-05	-9e-05	2
5767	-4e-05	1e-05	0.00022	0.00019	0.00012	0	-7e-05	-9e-05	2
5768	0.00011	8e-05	0.00015	0.00013	-0.0001	-0.0002	-8e-05	7e-05	2
5769	0.00011	8e-05	0.00015	0.00013	-0.0001	-0.0002	-8e-05	7e-05	2
5770	0.00011	8e-05	0.00015	0.00013	-0.0001	-0.0002	-8e-05	7e-05	2
5771	0.00011	8e-05	0.00015	0.00013	-0.0001	-0.0002	-8e-05	7e-05	2
5772	0.00011	8e-05	0.00015	0.00013	-0.0001	-0.0002	-8e-05	7e-05	2
5773	2e-05	0	1e-05	3e-05	0.00013	0.00025	4e-05	-4e-05	2
5774	-5e-05	5e-05	8e-05	-6e-05	-4e-05	-0.00016	-7e-05	-3e-05	2
5775	-5e-05	5e-05	8e-05	-6e-05	-4e-05	-0.00016	-7e-05	-3e-05	2
5776	-5e-05	5e-05	8e-05	-6e-05	-4e-05	-0.00016	-7e-05	-3e-05	2
5777	-5e-05	5e-05	8e-05	-6e-05	-4e-05	-0.00016	-7e-05	-3e-05	2
5778	-5e-05	5e-05	8e-05	-6e-05	-4e-05	-0.00016	-7e-05	-3e-05	2
5779	-5e-05	5e-05	8e-05	-6e-05	-4e-05	-0.00016	-7e-05	-3e-05	2
5780	-5e-05	5e-05	8e-05	-6e-05	-4e-05	-0.00016	-7e-05	-3e-05	2
5781	-5e-05	5e-05	8e-05	-6e-05	-4e-05	-0.00016	-7e-05	-3e-05	2
5782	-5e-05	5e-05	8e-05	-6e-05	-4e-05	-0.00016	-7e-05	-3e-05	2
5783	-5e-05	5e-05	8e-05	-6e-05	-4e-05	-0.00016	-7e-05	-3e-05	2
5784	-5e-05	5e-05	8e-05	-6e-05	-4e-05	-0.00016	-7e-05	-3e-05	2
5785	-5e-05	5e-05	8e-05	-6e-05	-4e-05	-0.00016	-7e-05	-3e-05	2
5786	-5e-05	5e-05	8e-05	-6e-05	-4e-05	-0.00016	-7e-05	-3e-05	2
5789	-5e-05	5e-05	8e-05	-6e-05	-4e-05	-0.00016	-7e-05	-3e-05	2
5790	-3e-05	-2e-05	-4e-05	-5e-05	-7e-05	8e-05	-4e-05	1e-05	2
5791	-2e-05	3e-05	0.00011	0.00043	0.00014	7e-05	0.0001	-1e-05	2
5792	-2e-05	3e-05	0.00011	0.00043	0.00014	7e-05	0.0001	-1e-05	2
5793	-2e-05	3e-05	0.00011	0.00043	0.00014	7e-05	0.0001	-1e-05	2
5794	-2e-05	3e-05	0.00011	0.00043	0.00014	7e-05	0.0001	-1e-05	2
5795	-2e-05	3e-05	0.00011	0.00043	0.00014	7e-05	0.0001	-1e-05	2
5796	-2e-05	3e-05	0.00011	0.00043	0.00014	7e-05	0.0001	-1e-05	2
5797	9e-05	-8e-05	0	0.00028	-0.00016	-0.00033	0.00015	0.00015	2
5798	9e-05	-8e-05	0	0.00028	-0.00016	-0.00033	0.00015	0.00015	2
5799	9e-05	-8e-05	0	0.00028	-0.00016	-0.00033	0.00015	0.00015	2
5800	9e-05	-8e-05	0	0.00028	-0.00016	-0.00033	0.00015	0.00015	2
5801	9e-05	-8e-05	0	0.00028	-0.00016	-0.00033	0.00015	0.00015	2
5802	9e-05	-8e-05	0	0.00028	-0.00016	-0.00033	0.00015	0.00015	2
5803	9e-05	-8e-05	0	0.00028	-0.00016	-0.00033	0.00015	0.00015	2
5804	8e-05	0	-0.00013	-0.00014	1e-05	0.00037	0.00038	5e-05	2
5805	8e-05	0	-0.00013	-0.00014	1e-05	0.00037	0.00038	5e-05	2
5806	8e-05	0	-0.00013	-0.00014	1e-05	0.00037	0.00038	5e-05	2
5807	8e-05	0	-0.00013	-0.00014	1e-05	0.00037	0.00038	5e-05	2
5808	8e-05	0	-0.00013	-0.00014	1e-05	0.00037	0.00038	5e-05	2
5809	8e-05	0	-0.00013	-0.00014	1e-05	0.00037	0.00038	5e-05	2
5810	8e-05	0	-0.00013	-0.00014	1e-05	0.00037	0.00038	5e-05	2
5811	-1e-05	-8e-05	-5e-05	1e-05	0	-0.00014	0.0002	2e-05	2
5812	-1e-05	-8e-05	-5e-05	1e-05	0	-0.00014	0.0002	2e-05	2
5813	-1e-05	-8e-05	-5e-05	1e-05	0	-0.00014	0.0002	2e-05	2
5814	-1e-05	-8e-05	-5e-05	1e-05	0	-0.00014	0.0002	2e-05	2
5815	-1e-05	-8e-05	-5e-05	1e-05	0	-0.00014	0.0002	2e-05	2
5816	-1e-05	-8e-05	-5e-05	1e-05	0	-0.00014	0.0002	2e-05	2
5817	-1e-05	-8e-05	-5e-05	1e-05	0	-0.00014	0.0002	2e-05	2
5818	-1e-05	-8e-05	-5e-05	1e-05	0	-0.00014	0.0002	2e-05	2
5819	-1e-05	-8e-05	-5e-05	1e-05	0	-0.00014	0.0002	2e-05	2
5820	-1e-05	-8e-05	-5e-05	1e-05	0	-0.00014	0.0002	2e-05	2
5821	-1e-05	-8e-05	-5e-05	1e-05	0	-0.00014	0.0002	2e-05	2
5822	-1e-05	-8e-05	-5e-05	1e-05	0	-0.00014	0.0002	2e-05	2
5823	-1e-05	-8e-05	-5e-05	1e-05	0	-0.00014	0.0002	2e-05	2
5824	-1e-05	-8e-05	-5e-05	1e-05	0	-0.00014	0.0002	2e-05	2
5825	-1e-05	-8e-05	-5e-05	1e-05	0	-0.00014	0.0002	2e-05	2
5826	-1e-05	-8e-05	-5e-05	1e-05	0	-0.00014	0.0002	2e-05	2
5827	0	0	1e-05	-1e-05	0.00014	0.00017	9e-05	-5e-05	2
5828	0	0	1e-05	-1e-05	0.00014	0.00017	9e-05	-5e-05	2
5829	-0.0001	-4e-05	-3e-05	0.0001	-5e-05	0.00021	2e-05	-3e-05	2
5830	-0.0001	-4e-05	-3e-05	0.0001	-5e-05	0.00021	2e-05	-3e-05	2
5831	-0.0001	-4e-05	-3e-05	0.0001	-5e-05	0.00021	2e-05	-3e-05	2
5832	-0.0001	-4e-05	-3e-05	0.0001	-5e-05	0.00021	2e-05	-3e-05	2
5833	-0.0001	-4e-05	-3e-05	0.0001	-5e-05	0.00021	2e-05	-3e-05	2
5834	-0.0001	-4e-05	-3e-05	0.0001	-5e-05	0.00021	2e-05	-3e-05	2
5835	-0.0001	-4e-05	-3e-05	0.0001	-5e-05	0.00021	2e-05	-3e-05	2
5836	-0.0001	-4e-05	-3e-05	0.0001	-5e-05	0.00021	2e-05	-3e-05	2
5839	-0.0001	-4e-05	-3e-05	0.0001	-5e-05	0.00021	2e-05	-3e-05	2
5840	-0.0001	-4e-05	-3e-05	0.0001	-5e-05	0.00021	2e-05	-3e-05	2
5841	-0.0001	-4e-05	-3e-05	0.0001	-5e-05	0.00021	2e-05	-3e-05	2
5842	-0.0001	-4e-05	-3e-05	0.0001	-5e-05	0.00021	2e-05	-3e-05	2
5843	-0.0001	-4e-05	-3e-05	0.0001	-5e-05	0.00021	2e-05	-3e-05	2
5844	-0.0001	-4e-05	-3e-05	0.0001	-5e-05	0.00021	2e-05	-3e-05	2
5845	-0.0001	-4e-05	-3e-05	0.0001	-5e-05	0.00021	2e-05	-3e-05	2
5846	-0.0001	-4e-05	-3e-05	0.0001	-5e-05	0.00021	2e-05	-3e-05	2
5847	-0.0001	-4e-05	-3e-05	0.0001	-5e-05	0.00021	2e-05	-3e-05	2
5848	-0.0001	-4e-05	-3e-05	0.0001	-5e-05	0.00021	2e-05	-3e-05	2
5849	-0.0001	-4e-05	-3e-05	0.0001	-5e-05	0.00021	2e-05	-3e-05	2
5850	0	-3e-05	-0.00014	-0.00012	0.00016	-9e-05	-0.00028	-9e-05	2
5851	-0.00015	-6e-05	-0.00028	-0.00031	0.00015	0.00013	-0.00041	-0.00018	2
5852	-0.00015	-6e-05	-0.00028	-0.00031	0.00015	0.00013	-0.00041	-0.00018	2
5853	-0.00015	-6e-05	-0.00028	-0.00031	0.00015	0.00013	-0.00041	-0.00018	2
5854	-0.00015	-6e-05	-0.00028	-0.00031	0.00015	0.00013	-0.00041	-0.00018	2
5855	-0.00015	-6e-05	-0.00028	-0.00031	0.00015	0.00013	-0.00041	-0.00018	2
5856	-0.00015	-6e-05	-0.00028	-0.00031	0.00015	0.00013	-0.00041	-0.00018	2
5857	-0.00015	-6e-05	-0.00028	-0.00031	0.00015	0.00013	-0.00041	-0.00018	2
5858	-0.00015	-6e-05	-0.00028	-0.00031	0.00015	0.00013	-0.00041	-0.00018	2
5859	-0.00015	-6e-05	-0.00028	-0.00031	0.00015	0.00013	-0.00041	-0.00018	2
5860	-0.00015	-6e-05	-0.00028	-0.00031	0.00015	0.00013	-0.00041	-0.00018	2
5861	-0.00015	-6e-05	-0.00028	-0.00031	0.00015	0.00013	-0.00041	-0.00018	2
5862	-0.00015	-6e-05	-0.00028	-0.00031	0.00015	0.00013	-0.00041	-0.00018	2
5863	-0.00015	-6e-05	-0.00028	-0.00031	0.00015	0.00013	-0.00041	-0.00018	2
5864	-8e-05	2e-05	0.0001	-7e-05	-6e-05	-0.00018	0.0001	-4e-05	2
5865	-8e-05	2e-05	0.0001	-7e-05	-6e-05	-0.00018	0.0001	-4e-05	2
5866	-8e-05	2e-05	0.0001	-7e-05	-6e-05	-0.00018	0.0001	-4e-05	2
5867	-8e-05	2e-05	0.0001	-7e-05	-6e-05	-0.00018	0.0001	-4e-05	2
5868	-8e-05	2e-05	0.0001	-7e-05	-6e-05	-0.00018	0.0001	-4e-05	2
5869	-8e-05	2e-05	0.0001	-7e-05	-6e-05	-0.00018	0.0001	-4e-05	2
5870	-8e-05	2e-05	0.0001	-7e-05	-6e-05	-0.00018	0.0001	-4e-05	2
5871	-8e-05	3e-05	0.00017	0.00016	-9e-05	-0.00014	5e-05	-3e-05	2
5872	-8e-05	3e-05	0.00017	0.00016	-9e-05	-0.00014	5e-05	-3e-05	2
5873	-8e-05	3e-05	0.00017	0.00016	-9e-05	-0.00014	5e-05	-3e-05	2
5874	-8e-05	3e-05	0.00017	0.00016	-9e-05	-0.00014	5e-05	-3e-05	2
5875	-8e-05	3e-05	0.00017	0.00016	-9e-05	-0.00014	5e-05	-3e-05	2
5876	-8e-05	3e-05	0.00017	0.00016	-9e-05	-0.00014	5e-05	-3e-05	2
5877	-8e-05	3e-05	0.00017	0.00016	-9e-05	-0.00014	5e-05	-3e-05	2
5878	-8e-05	3e-05	0.00017	0.00016	-9e-05	-0.00014	5e-05	-3e-05	2
5880	-8e-05	3e-05	0.00017	0.00016	-9e-05	-0.00014	5e-05	-3e-05	2
5881	-8e-05	3e-05	0.00017	0.00016	-9e-05	-0.00014	5e-05	-3e-05	2
5882	-8e-05	3e-05	0.00017	0.00016	-9e-05	-0.00014	5e-05	-3e-05	2
5883	-8e-05	3e-05	0.00017	0.00016	-9e-05	-0.00014	5e-05	-3e-05	2
5884	-8e-05	3e-05	0.00017	0.00016	-9e-05	-0.00014	5e-05	-3e-05	2
5885	-8e-05	3e-05	0.00017	0.00016	-9e-05	-0.00014	5e-05	-3e-05	2
5886	-8e-05	3e-05	0.00017	0.00016	-9e-05	-0.00014	5e-05	-3e-05	2
5889	-0.00017	-9e-05	6e-05	6e-05	-0.00012	0.00017	-0.00017	-8e-05	2
5890	-0.00017	-9e-05	6e-05	6e-05	-0.00012	0.00017	-0.00017	-8e-05	2
5891	-0.00017	-9e-05	6e-05	6e-05	-0.00012	0.00017	-0.00017	-8e-05	2
5892	-0.00017	-9e-05	6e-05	6e-05	-0.00012	0.00017	-0.00017	-8e-05	2
5893	-0.00017	-9e-05	6e-05	6e-05	-0.00012	0.00017	-0.00017	-8e-05	2
5894	-0.00017	-9e-05	6e-05	6e-05	-0.00012	0.00017	-0.00017	-8e-05	2
5895	-0.00017	-9e-05	6e-05	6e-05	-0.00012	0.00017	-0.00017	-8e-05	2
5896	-0.00017	-9e-05	6e-05	6e-05	-0.00012	0.00017	-0.00017	-8e-05	2
5897	-0.00017	-9e-05	6e-05	6e-05	-0.00012	0.00017	-0.00017	-8e-05	2
5898	-0.00017	-9e-05	6e-05	6e-05	-0.00012	0.00017	-0.00017	-8e-05	2
5899	-0.00017	-9e-05	6e-05	6e-05	-0.00012	0.00017	-0.00017	-8e-05	2
5900	-0.00017	-9e-05	6e-05	6e-05	-0.00012	0.00017	-0.00017	-8e-05	2
5901	-0.00017	-9e-05	6e-05	6e-05	-0.00012	0.00017	-0.00017	-8e-05	2
5902	-0.00017	-9e-05	6e-05	6e-05	-0.00012	0.00017	-0.00017	-8e-05	2
5903	-0.00017	-9e-05	6e-05	6e-05	-0.00012	0.00017	-0.00017	-8e-05	2
5904	-0.00017	-9e-05	6e-05	6e-05	-0.00012	0.00017	-0.00017	-8e-05	2
5905	-0.00017	-9e-05	6e-05	6e-05	-0.00012	0.00017	-0.00017	-8e-05	2
5906	-0.00017	-9e-05	6e-05	6e-05	-0.00012	0.00017	-0.00017	-8e-05	2
5907	-0.00017	-9e-05	6e-05	6e-05	-0.00012	0.00017	-0.00017	-8e-05	2
5908	-0.00017	-9e-05	6e-05	6e-05	-0.00012	0.00017	-0.00017	-8e-05	2
5909	-0.00017	-9e-05	6e-05	6e-05	-0.00012	0.00017	-0.00017	-8e-05	2
5910	9e-05	-5e-05	-0.0001	-0.00011	-5e-05	-0.00018	-4e-05	1e-05	2
5911	4e-05	6e-05	7e-05	0.00011	1e-05	1e-05	-2e-05	0	2
5912	3e-05	3e-05	1e-05	-0.00011	8e-05	-8e-05	0.00016	6e-05	2
5913	3e-05	3e-05	1e-05	-0.00011	8e-05	-8e-05	0.00016	6e-05	2
5914	3e-05	3e-05	1e-05	-0.00011	8e-05	-8e-05	0.00016	6e-05	2
5915	3e-05	3e-05	1e-05	-0.00011	8e-05	-8e-05	0.00016	6e-05	2
5916	3e-05	3e-05	1e-05	-0.00011	8e-05	-8e-05	0.00016	6e-05	2
5917	3e-05	3e-05	1e-05	-0.00011	8e-05	-8e-05	0.00016	6e-05	2
5918	3e-05	3e-05	1e-05	-0.00011	8e-05	-8e-05	0.00016	6e-05	2
5919	3e-05	3e-05	1e-05	-0.00011	8e-05	-8e-05	0.00016	6e-05	2
5920	3e-05	3e-05	1e-05	-0.00011	8e-05	-8e-05	0.00016	6e-05	2
5921	3e-05	3e-05	1e-05	-0.00011	8e-05	-8e-05	0.00016	6e-05	2
5922	3e-05	3e-05	1e-05	-0.00011	8e-05	-8e-05	0.00016	6e-05	2
5923	3e-05	3e-05	1e-05	-0.00011	8e-05	-8e-05	0.00016	6e-05	2
5924	-0.0001	0	6e-05	0.00011	-0.00017	2e-05	-0.00015	2e-05	2
5925	-0.0001	0	6e-05	0.00011	-0.00017	2e-05	-0.00015	2e-05	2
5926	-0.0001	0	6e-05	0.00011	-0.00017	2e-05	-0.00015	2e-05	2
5927	-0.0001	0	6e-05	0.00011	-0.00017	2e-05	-0.00015	2e-05	2
5928	-0.0001	0	6e-05	0.00011	-0.00017	2e-05	-0.00015	2e-05	2
5929	-0.0001	0	6e-05	0.00011	-0.00017	2e-05	-0.00015	2e-05	2
5930	-0.0001	0	6e-05	0.00011	-0.00017	2e-05	-0.00015	2e-05	2
5931	-4e-05	-2e-05	-0.00011	-2e-05	-5e-05	-1e-05	0.00019	-1e-05	2
5932	-4e-05	-2e-05	-0.00011	-2e-05	-5e-05	-1e-05	0.00019	-1e-05	2
5933	-4e-05	-2e-05	-0.00011	-2e-05	-5e-05	-1e-05	0.00019	-1e-05	2
5934	-4e-05	-2e-05	-0.00011	-2e-05	-5e-05	-1e-05	0.00019	-1e-05	2
5935	-4e-05	-2e-05	-0.00011	-2e-05	-5e-05	-1e-05	0.00019	-1e-05	2
5936	-4e-05	-2e-05	-0.00011	-2e-05	-5e-05	-1e-05	0.00019	-1e-05	2
5938	-4e-05	-2e-05	-0.00011	-2e-05	-5e-05	-1e-05	0.00019	-1e-05	2
5939	-4e-05	-2e-05	-0.00011	-2e-05	-5e-05	-1e-05	0.00019	-1e-05	2
5940	-4e-05	-2e-05	-0.00011	-2e-05	-5e-05	-1e-05	0.00019	-1e-05	2
5941	-4e-05	-2e-05	-0.00011	-2e-05	-5e-05	-1e-05	0.00019	-1e-05	2
5942	-4e-05	-2e-05	-0.00011	-2e-05	-5e-05	-1e-05	0.00019	-1e-05	2
5943	-4e-05	-2e-05	-0.00011	-2e-05	-5e-05	-1e-05	0.00019	-1e-05	2
5944	-4e-05	-2e-05	-0.00011	-2e-05	-5e-05	-1e-05	0.00019	-1e-05	2
5945	-4e-05	-2e-05	-0.00011	-2e-05	-5e-05	-1e-05	0.00019	-1e-05	2
5946	-4e-05	-2e-05	-0.00011	-2e-05	-5e-05	-1e-05	0.00019	-1e-05	2
5947	-4e-05	-2e-05	-0.00011	-2e-05	-5e-05	-1e-05	0.00019	-1e-05	2
5948	-3e-05	-2e-05	-9e-05	0.0002	0	-0.0001	9e-05	2e-05	2
5949	-3e-05	-2e-05	-9e-05	0.0002	0	-0.0001	9e-05	2e-05	2
5950	-3e-05	-2e-05	-9e-05	0.0002	0	-0.0001	9e-05	2e-05	2
5951	-3e-05	-2e-05	-9e-05	0.0002	0	-0.0001	9e-05	2e-05	2
5952	-3e-05	-2e-05	-9e-05	0.0002	0	-0.0001	9e-05	2e-05	2
5953	0	3e-05	5e-05	-8e-05	0.00014	0.0002	0.00021	-5e-05	2
5954	0	3e-05	5e-05	-8e-05	0.00014	0.0002	0.00021	-5e-05	2
5955	0	3e-05	5e-05	-8e-05	0.00014	0.0002	0.00021	-5e-05	2
5956	0	3e-05	5e-05	-8e-05	0.00014	0.0002	0.00021	-5e-05	2
5957	0	3e-05	5e-05	-8e-05	0.00014	0.0002	0.00021	-5e-05	2
5958	0	3e-05	5e-05	-8e-05	0.00014	0.0002	0.00021	-5e-05	2
5959	0	3e-05	5e-05	-8e-05	0.00014	0.0002	0.00021	-5e-05	2
5960	0	3e-05	5e-05	-8e-05	0.00014	0.0002	0.00021	-5e-05	2
5961	0	3e-05	5e-05	-8e-05	0.00014	0.0002	0.00021	-5e-05	2
5962	0	3e-05	5e-05	-8e-05	0.00014	0.0002	0.00021	-5e-05	2
5963	0	3e-05	5e-05	-8e-05	0.00014	0.0002	0.00021	-5e-05	2
5964	0	3e-05	5e-05	-8e-05	0.00014	0.0002	0.00021	-5e-05	2
5965	0	3e-05	5e-05	-8e-05	0.00014	0.0002	0.00021	-5e-05	2
5966	0	3e-05	5e-05	-8e-05	0.00014	0.0002	0.00021	-5e-05	2
5967	0	3e-05	5e-05	-8e-05	0.00014	0.0002	0.00021	-5e-05	2
5968	0	3e-05	5e-05	-8e-05	0.00014	0.0002	0.00021	-5e-05	2
5969	0	3e-05	5e-05	-8e-05	0.00014	0.0002	0.00021	-5e-05	2
5970	8e-05	4e-05	0.0002	0.00018	-2e-05	9e-05	2e-05	6e-05	2
5971	-1e-05	-2e-05	8e-05	0.00012	-0.00013	-0.00035	-0.00043	1e-05	2
5972	-1e-05	-2e-05	8e-05	0.00012	-0.00013	-0.00035	-0.00043	1e-05	2
5973	-1e-05	-2e-05	8e-05	0.00012	-0.00013	-0.00035	-0.00043	1e-05	2
5974	-1e-05	-2e-05	8e-05	0.00012	-0.00013	-0.00035	-0.00043	1e-05	2
5975	-1e-05	-2e-05	8e-05	0.00012	-0.00013	-0.00035	-0.00043	1e-05	2
5976	-1e-05	-2e-05	8e-05	0.00012	-0.00013	-0.00035	-0.00043	1e-05	2
5977	-1e-05	-2e-05	8e-05	0.00012	-0.00013	-0.00035	-0.00043	1e-05	2
5978	-1e-05	-2e-05	8e-05	0.00012	-0.00013	-0.00035	-0.00043	1e-05	2
5979	-1e-05	-2e-05	8e-05	0.00012	-0.00013	-0.00035	-0.00043	1e-05	2
5980	-1e-05	-2e-05	8e-05	0.00012	-0.00013	-0.00035	-0.00043	1e-05	2
5981	-1e-05	-2e-05	8e-05	0.00012	-0.00013	-0.00035	-0.00043	1e-05	2
5982	-1e-05	-2e-05	8e-05	0.00012	-0.00013	-0.00035	-0.00043	1e-05	2
5983	-1e-05	-2e-05	8e-05	0.00012	-0.00013	-0.00035	-0.00043	1e-05	2
5984	-7e-05	-2e-05	-4e-05	-0.00014	7e-05	0.00013	-0.00021	-7e-05	2
5985	-7e-05	-2e-05	-4e-05	-0.00014	7e-05	0.00013	-0.00021	-7e-05	2
5986	-7e-05	-2e-05	-4e-05	-0.00014	7e-05	0.00013	-0.00021	-7e-05	2
5988	-7e-05	-2e-05	-4e-05	-0.00014	7e-05	0.00013	-0.00021	-7e-05	2
5989	-7e-05	-2e-05	-4e-05	-0.00014	7e-05	0.00013	-0.00021	-7e-05	2
5990	-7e-05	-2e-05	-4e-05	-0.00014	7e-05	0.00013	-0.00021	-7e-05	2
5991	-7e-05	-2e-05	-4e-05	-0.00014	7e-05	0.00013	-0.00021	-7e-05	2
5992	-9e-05	-7e-05	-0.0001	1e-05	-2e-05	-0.00011	-2e-05	-1e-05	2
5993	-4e-05	-2e-05	1e-05	5e-05	2e-05	0.0002	0.0001	2e-05	2
5994	-4e-05	-2e-05	1e-05	5e-05	2e-05	0.0002	0.0001	2e-05	2
5995	-4e-05	-2e-05	1e-05	5e-05	2e-05	0.0002	0.0001	2e-05	2
5996	-4e-05	-2e-05	1e-05	5e-05	2e-05	0.0002	0.0001	2e-05	2
5997	-4e-05	-2e-05	1e-05	5e-05	2e-05	0.0002	0.0001	2e-05	2
5998	-4e-05	-2e-05	1e-05	5e-05	2e-05	0.0002	0.0001	2e-05	2
5999	-4e-05	-2e-05	1e-05	5e-05	2e-05	0.0002	0.0001	2e-05	2
6000	-4e-05	-2e-05	1e-05	5e-05	2e-05	0.0002	0.0001	2e-05	2
6001	-4e-05	-2e-05	1e-05	5e-05	2e-05	0.0002	0.0001	2e-05	2
6002	-4e-05	-2e-05	1e-05	5e-05	2e-05	0.0002	0.0001	2e-05	2
6003	-4e-05	-2e-05	1e-05	5e-05	2e-05	0.0002	0.0001	2e-05	2
6004	-4e-05	-2e-05	1e-05	5e-05	2e-05	0.0002	0.0001	2e-05	2
6005	-4e-05	-2e-05	1e-05	5e-05	2e-05	0.0002	0.0001	2e-05	2
6006	-4e-05	-2e-05	1e-05	5e-05	2e-05	0.0002	0.0001	2e-05	2
6007	7e-05	-2e-05	-0.00012	-0.00039	9e-05	7e-05	2e-05	2e-05	2
6008	7e-05	-2e-05	-0.00012	-0.00039	9e-05	7e-05	2e-05	2e-05	2
6009	-1e-05	2e-05	-3e-05	2e-05	-3e-05	-8e-05	1e-05	4e-05	2
6010	-1e-05	2e-05	-3e-05	2e-05	-3e-05	-8e-05	1e-05	4e-05	2
6011	-1e-05	2e-05	-3e-05	2e-05	-3e-05	-8e-05	1e-05	4e-05	2
6012	-1e-05	2e-05	-3e-05	2e-05	-3e-05	-8e-05	1e-05	4e-05	2
6013	-1e-05	2e-05	-3e-05	2e-05	-3e-05	-8e-05	1e-05	4e-05	2
6014	-1e-05	2e-05	-3e-05	2e-05	-3e-05	-8e-05	1e-05	4e-05	2
6015	-1e-05	2e-05	-3e-05	2e-05	-3e-05	-8e-05	1e-05	4e-05	2
6016	-1e-05	2e-05	-3e-05	2e-05	-3e-05	-8e-05	1e-05	4e-05	2
6017	-1e-05	2e-05	-3e-05	2e-05	-3e-05	-8e-05	1e-05	4e-05	2
6018	-1e-05	2e-05	-3e-05	2e-05	-3e-05	-8e-05	1e-05	4e-05	2
6019	-1e-05	2e-05	-3e-05	2e-05	-3e-05	-8e-05	1e-05	4e-05	2
6020	-1e-05	2e-05	-3e-05	2e-05	-3e-05	-8e-05	1e-05	4e-05	2
6021	-1e-05	2e-05	-3e-05	2e-05	-3e-05	-8e-05	1e-05	4e-05	2
6022	-1e-05	2e-05	-3e-05	2e-05	-3e-05	-8e-05	1e-05	4e-05	2
6023	-1e-05	2e-05	-3e-05	2e-05	-3e-05	-8e-05	1e-05	4e-05	2
6024	-1e-05	2e-05	-3e-05	2e-05	-3e-05	-8e-05	1e-05	4e-05	2
6025	-1e-05	2e-05	-3e-05	2e-05	-3e-05	-8e-05	1e-05	4e-05	2
6026	-1e-05	2e-05	-3e-05	2e-05	-3e-05	-8e-05	1e-05	4e-05	2
6027	-1e-05	2e-05	-3e-05	2e-05	-3e-05	-8e-05	1e-05	4e-05	2
6028	-1e-05	2e-05	-3e-05	2e-05	-3e-05	-8e-05	1e-05	4e-05	2
6029	-1e-05	2e-05	-3e-05	2e-05	-3e-05	-8e-05	1e-05	4e-05	2
6030	-1e-05	2e-05	-3e-05	2e-05	-3e-05	-8e-05	1e-05	4e-05	2
6031	-5e-05	-3e-05	6e-05	0.00019	-0.00015	-0.00016	5e-05	2e-05	2
6032	-3e-05	-9e-05	-0.00011	-5e-05	2e-05	-0.0001	-3e-05	-1e-05	2
6033	-3e-05	-9e-05	-0.00011	-5e-05	2e-05	-0.0001	-3e-05	-1e-05	2
6034	-3e-05	-9e-05	-0.00011	-5e-05	2e-05	-0.0001	-3e-05	-1e-05	2
6035	-3e-05	-9e-05	-0.00011	-5e-05	2e-05	-0.0001	-3e-05	-1e-05	2
6036	-3e-05	-9e-05	-0.00011	-5e-05	2e-05	-0.0001	-3e-05	-1e-05	2
6038	-3e-05	-9e-05	-0.00011	-5e-05	2e-05	-0.0001	-3e-05	-1e-05	2
6039	-3e-05	-9e-05	-0.00011	-5e-05	2e-05	-0.0001	-3e-05	-1e-05	2
6040	-3e-05	-9e-05	-0.00011	-5e-05	2e-05	-0.0001	-3e-05	-1e-05	2
6041	-3e-05	-9e-05	-0.00011	-5e-05	2e-05	-0.0001	-3e-05	-1e-05	2
6042	-3e-05	-9e-05	-0.00011	-5e-05	2e-05	-0.0001	-3e-05	-1e-05	2
6043	1e-05	-1e-05	-2e-05	-6e-05	-8e-05	0.00017	2e-05	3e-05	2
6044	-0.00014	-6e-05	-0.00021	-0.00022	0.00012	-0.00037	0	-0.0002	2
6045	-0.00014	-6e-05	-0.00021	-0.00022	0.00012	-0.00037	0	-0.0002	2
6046	-0.00014	-6e-05	-0.00021	-0.00022	0.00012	-0.00037	0	-0.0002	2
6047	-0.00014	-6e-05	-0.00021	-0.00022	0.00012	-0.00037	0	-0.0002	2
6048	-0.00014	-6e-05	-0.00021	-0.00022	0.00012	-0.00037	0	-0.0002	2
6049	-0.00014	-6e-05	-0.00021	-0.00022	0.00012	-0.00037	0	-0.0002	2
6050	-0.00014	-6e-05	-0.00021	-0.00022	0.00012	-0.00037	0	-0.0002	2
6051	-0.00014	-6e-05	-0.00021	-0.00022	0.00012	-0.00037	0	-0.0002	2
6052	0.00019	7e-05	0.00022	0.00031	-0.00013	0.0001	6e-05	0.00011	2
6053	-7e-05	-1e-05	0	-0.0001	0.00021	-0.00013	-4e-05	-0.00012	2
6054	-7e-05	-1e-05	0	-0.0001	0.00021	-0.00013	-4e-05	-0.00012	2
6055	-7e-05	-1e-05	0	-0.0001	0.00021	-0.00013	-4e-05	-0.00012	2
6056	-7e-05	-1e-05	0	-0.0001	0.00021	-0.00013	-4e-05	-0.00012	2
6057	-7e-05	-1e-05	0	-0.0001	0.00021	-0.00013	-4e-05	-0.00012	2
6058	-7e-05	-1e-05	0	-0.0001	0.00021	-0.00013	-4e-05	-0.00012	2
6059	-7e-05	-1e-05	0	-0.0001	0.00021	-0.00013	-4e-05	-0.00012	2
6060	-7e-05	-1e-05	0	-0.0001	0.00021	-0.00013	-4e-05	-0.00012	2
6061	-7e-05	-1e-05	0	-0.0001	0.00021	-0.00013	-4e-05	-0.00012	2
6062	-7e-05	-1e-05	0	-0.0001	0.00021	-0.00013	-4e-05	-0.00012	2
6063	-7e-05	-1e-05	0	-0.0001	0.00021	-0.00013	-4e-05	-0.00012	2
6064	-7e-05	-1e-05	0	-0.0001	0.00021	-0.00013	-4e-05	-0.00012	2
6065	-7e-05	-1e-05	0	-0.0001	0.00021	-0.00013	-4e-05	-0.00012	2
6066	-7e-05	-1e-05	0	-0.0001	0.00021	-0.00013	-4e-05	-0.00012	2
6067	-0.00012	-6e-05	7e-05	-1e-05	-7e-05	-0.00024	-1e-05	-3e-05	2
6068	-0.00012	-6e-05	7e-05	-1e-05	-7e-05	-0.00024	-1e-05	-3e-05	2
6069	0.00011	0.0001	0.00012	0.00015	0	-0.00018	0.00017	5e-05	2
6070	0.00011	0.0001	0.00012	0.00015	0	-0.00018	0.00017	5e-05	2
6071	0.00011	0.0001	0.00012	0.00015	0	-0.00018	0.00017	5e-05	2
6072	0.00011	0.0001	0.00012	0.00015	0	-0.00018	0.00017	5e-05	2
6073	0.00011	0.0001	0.00012	0.00015	0	-0.00018	0.00017	5e-05	2
6074	0.00011	0.0001	0.00012	0.00015	0	-0.00018	0.00017	5e-05	2
6075	0.00011	0.0001	0.00012	0.00015	0	-0.00018	0.00017	5e-05	2
6076	0.00011	0.0001	0.00012	0.00015	0	-0.00018	0.00017	5e-05	2
6077	0.00011	0.0001	0.00012	0.00015	0	-0.00018	0.00017	5e-05	2
6078	0.00011	0.0001	0.00012	0.00015	0	-0.00018	0.00017	5e-05	2
6079	0.00011	0.0001	0.00012	0.00015	0	-0.00018	0.00017	5e-05	2
6080	0.00011	0.0001	0.00012	0.00015	0	-0.00018	0.00017	5e-05	2
6081	0.00011	0.0001	0.00012	0.00015	0	-0.00018	0.00017	5e-05	2
6082	0.00011	0.0001	0.00012	0.00015	0	-0.00018	0.00017	5e-05	2
6083	0.00011	0.0001	0.00012	0.00015	0	-0.00018	0.00017	5e-05	2
6084	0.00011	0.0001	0.00012	0.00015	0	-0.00018	0.00017	5e-05	2
6085	0.00011	0.0001	0.00012	0.00015	0	-0.00018	0.00017	5e-05	2
6087	0.00011	0.0001	0.00012	0.00015	0	-0.00018	0.00017	5e-05	2
6089	0.00011	0.0001	0.00012	0.00015	0	-0.00018	0.00017	5e-05	2
6090	-0.00023	3e-05	0.00021	0.00016	-1e-05	-6e-05	-0.00024	3e-05	2
6091	-0.00023	3e-05	0.00021	0.00016	-1e-05	-6e-05	-0.00024	3e-05	2
6092	6e-05	3e-05	0.00012	0.0001	-0.0001	0.00014	-5e-05	2e-05	2
6093	6e-05	3e-05	0.00012	0.0001	-0.0001	0.00014	-5e-05	2e-05	2
6094	6e-05	3e-05	0.00012	0.0001	-0.0001	0.00014	-5e-05	2e-05	2
6095	6e-05	3e-05	0.00012	0.0001	-0.0001	0.00014	-5e-05	2e-05	2
6096	6e-05	3e-05	0.00012	0.0001	-0.0001	0.00014	-5e-05	2e-05	2
6097	6e-05	3e-05	0.00012	0.0001	-0.0001	0.00014	-5e-05	2e-05	2
6098	6e-05	3e-05	0.00012	0.0001	-0.0001	0.00014	-5e-05	2e-05	2
6099	6e-05	3e-05	0.00012	0.0001	-0.0001	0.00014	-5e-05	2e-05	2
6100	6e-05	3e-05	0.00012	0.0001	-0.0001	0.00014	-5e-05	2e-05	2
6101	6e-05	3e-05	0.00012	0.0001	-0.0001	0.00014	-5e-05	2e-05	2
6102	6e-05	3e-05	0.00012	0.0001	-0.0001	0.00014	-5e-05	2e-05	2
6103	-4e-05	-8e-05	-0.00011	-0.00018	2e-05	-0.00027	-0.00012	-8e-05	2
6104	2e-05	2e-05	7e-05	0.00017	-0.00012	0.0002	0.00021	0.00011	2
6105	2e-05	2e-05	7e-05	0.00017	-0.00012	0.0002	0.00021	0.00011	2
6106	2e-05	2e-05	7e-05	0.00017	-0.00012	0.0002	0.00021	0.00011	2
6107	2e-05	2e-05	7e-05	0.00017	-0.00012	0.0002	0.00021	0.00011	2
6108	2e-05	2e-05	7e-05	0.00017	-0.00012	0.0002	0.00021	0.00011	2
6109	2e-05	2e-05	7e-05	0.00017	-0.00012	0.0002	0.00021	0.00011	2
6110	2e-05	2e-05	7e-05	0.00017	-0.00012	0.0002	0.00021	0.00011	2
6111	2e-05	2e-05	7e-05	0.00017	-0.00012	0.0002	0.00021	0.00011	2
6112	2e-05	2e-05	7e-05	0.00017	-0.00012	0.0002	0.00021	0.00011	2
6114	2e-05	2e-05	7e-05	0.00017	-0.00012	0.0002	0.00021	0.00011	2
6115	2e-05	2e-05	7e-05	0.00017	-0.00012	0.0002	0.00021	0.00011	2
6116	2e-05	2e-05	7e-05	0.00017	-0.00012	0.0002	0.00021	0.00011	2
6117	2e-05	2e-05	7e-05	0.00017	-0.00012	0.0002	0.00021	0.00011	2
6118	2e-05	2e-05	7e-05	0.00017	-0.00012	0.0002	0.00021	0.00011	2
6119	2e-05	2e-05	7e-05	0.00017	-0.00012	0.0002	0.00021	0.00011	2
6120	1e-05	1e-05	-9e-05	-9e-05	-3e-05	-0.00013	-9e-05	2e-05	2
6121	1e-05	1e-05	-9e-05	-9e-05	-3e-05	-0.00013	-9e-05	2e-05	2
6122	1e-05	1e-05	-9e-05	-9e-05	-3e-05	-0.00013	-9e-05	2e-05	2
6123	1e-05	1e-05	-9e-05	-9e-05	-3e-05	-0.00013	-9e-05	2e-05	2
6124	1e-05	1e-05	-9e-05	-9e-05	-3e-05	-0.00013	-9e-05	2e-05	2
6125	1e-05	1e-05	-9e-05	-9e-05	-3e-05	-0.00013	-9e-05	2e-05	2
6126	1e-05	1e-05	-9e-05	-9e-05	-3e-05	-0.00013	-9e-05	2e-05	2
6127	-2e-05	-2e-05	-4e-05	-0.00013	-0.00012	-2e-05	0.00025	5e-05	2
6128	-2e-05	-2e-05	-4e-05	-0.00013	-0.00012	-2e-05	0.00025	5e-05	2
6129	0	0	4e-05	0.00018	5e-05	2e-05	-0.00014	-6e-05	2
6130	0	0	4e-05	0.00018	5e-05	2e-05	-0.00014	-6e-05	2
6131	0	0	4e-05	0.00018	5e-05	2e-05	-0.00014	-6e-05	2
6132	0	0	4e-05	0.00018	5e-05	2e-05	-0.00014	-6e-05	2
6133	0	0	4e-05	0.00018	5e-05	2e-05	-0.00014	-6e-05	2
6134	0	0	4e-05	0.00018	5e-05	2e-05	-0.00014	-6e-05	2
6135	0	0	4e-05	0.00018	5e-05	2e-05	-0.00014	-6e-05	2
6136	0	0	4e-05	0.00018	5e-05	2e-05	-0.00014	-6e-05	2
6138	0	0	4e-05	0.00018	5e-05	2e-05	-0.00014	-6e-05	2
6139	0	0	4e-05	0.00018	5e-05	2e-05	-0.00014	-6e-05	2
6140	0	0	4e-05	0.00018	5e-05	2e-05	-0.00014	-6e-05	2
6141	0	0	4e-05	0.00018	5e-05	2e-05	-0.00014	-6e-05	2
6142	0	0	4e-05	0.00018	5e-05	2e-05	-0.00014	-6e-05	2
6143	0	0	4e-05	0.00018	5e-05	2e-05	-0.00014	-6e-05	2
6144	0	0	4e-05	0.00018	5e-05	2e-05	-0.00014	-6e-05	2
6145	0	0	4e-05	0.00018	5e-05	2e-05	-0.00014	-6e-05	2
6146	0	0	4e-05	0.00018	5e-05	2e-05	-0.00014	-6e-05	2
6147	0	0	4e-05	0.00018	5e-05	2e-05	-0.00014	-6e-05	2
6148	0	0	4e-05	0.00018	5e-05	2e-05	-0.00014	-6e-05	2
6149	8e-05	6e-05	0.00011	0.00021	-4e-05	0.00035	-0.00013	4e-05	2
6150	8e-05	6e-05	0.00011	0.00021	-4e-05	0.00035	-0.00013	4e-05	2
6151	8e-05	6e-05	0.00011	0.00021	-4e-05	0.00035	-0.00013	4e-05	2
6152	8e-05	6e-05	0.00011	0.00021	-4e-05	0.00035	-0.00013	4e-05	2
6153	8e-05	6e-05	0.00011	0.00021	-4e-05	0.00035	-0.00013	4e-05	2
6154	8e-05	6e-05	0.00011	0.00021	-4e-05	0.00035	-0.00013	4e-05	2
6155	8e-05	6e-05	0.00011	0.00021	-4e-05	0.00035	-0.00013	4e-05	2
6156	8e-05	6e-05	0.00011	0.00021	-4e-05	0.00035	-0.00013	4e-05	2
6157	-2e-05	-7e-05	1e-05	0.00018	-6e-05	-2e-05	5e-05	9e-05	2
6158	-2e-05	-7e-05	1e-05	0.00018	-6e-05	-2e-05	5e-05	9e-05	2
6160	-2e-05	-7e-05	1e-05	0.00018	-6e-05	-2e-05	5e-05	9e-05	2
6161	-2e-05	-7e-05	1e-05	0.00018	-6e-05	-2e-05	5e-05	9e-05	2
6162	-2e-05	-7e-05	1e-05	0.00018	-6e-05	-2e-05	5e-05	9e-05	2
6163	-2e-05	-7e-05	1e-05	0.00018	-6e-05	-2e-05	5e-05	9e-05	2
6164	4e-05	-6e-05	-0.00023	-0.00023	-0.00014	0.00017	-1e-05	-2e-05	2
6165	4e-05	-6e-05	-0.00023	-0.00023	-0.00014	0.00017	-1e-05	-2e-05	2
6166	4e-05	-6e-05	-0.00023	-0.00023	-0.00014	0.00017	-1e-05	-2e-05	2
6167	4e-05	-6e-05	-0.00023	-0.00023	-0.00014	0.00017	-1e-05	-2e-05	2
6168	4e-05	-6e-05	-0.00023	-0.00023	-0.00014	0.00017	-1e-05	-2e-05	2
6169	4e-05	-6e-05	-0.00023	-0.00023	-0.00014	0.00017	-1e-05	-2e-05	2
6170	4e-05	-6e-05	-0.00023	-0.00023	-0.00014	0.00017	-1e-05	-2e-05	2
6171	4e-05	-6e-05	-0.00023	-0.00023	-0.00014	0.00017	-1e-05	-2e-05	2
6172	4e-05	-6e-05	-0.00023	-0.00023	-0.00014	0.00017	-1e-05	-2e-05	2
6173	4e-05	-6e-05	-0.00023	-0.00023	-0.00014	0.00017	-1e-05	-2e-05	2
6174	4e-05	-6e-05	-0.00023	-0.00023	-0.00014	0.00017	-1e-05	-2e-05	2
6175	4e-05	-6e-05	-0.00023	-0.00023	-0.00014	0.00017	-1e-05	-2e-05	2
6176	4e-05	-6e-05	-0.00023	-0.00023	-0.00014	0.00017	-1e-05	-2e-05	2
6177	4e-05	-6e-05	-0.00023	-0.00023	-0.00014	0.00017	-1e-05	-2e-05	2
6178	1e-05	-3e-05	-7e-05	-2e-05	-6e-05	-2e-05	-0.00013	-2e-05	2
6179	-1e-05	1e-05	6e-05	-8e-05	6e-05	8e-05	0.00026	-5e-05	2
6180	-1e-05	1e-05	6e-05	-8e-05	6e-05	8e-05	0.00026	-5e-05	2
6181	-1e-05	1e-05	6e-05	-8e-05	6e-05	8e-05	0.00026	-5e-05	2
6182	-1e-05	1e-05	6e-05	-8e-05	6e-05	8e-05	0.00026	-5e-05	2
6183	-1e-05	1e-05	6e-05	-8e-05	6e-05	8e-05	0.00026	-5e-05	2
6184	-1e-05	1e-05	6e-05	-8e-05	6e-05	8e-05	0.00026	-5e-05	2
6185	-1e-05	1e-05	6e-05	-8e-05	6e-05	8e-05	0.00026	-5e-05	2
6186	-1e-05	1e-05	6e-05	-8e-05	6e-05	8e-05	0.00026	-5e-05	2
6189	0.00011	7e-05	2e-05	-0.0001	-9e-05	-3e-05	-1e-05	7e-05	2
6190	0.00011	7e-05	2e-05	-0.0001	-9e-05	-3e-05	-1e-05	7e-05	2
6191	0.00011	7e-05	2e-05	-0.0001	-9e-05	-3e-05	-1e-05	7e-05	2
6192	0.00011	7e-05	2e-05	-0.0001	-9e-05	-3e-05	-1e-05	7e-05	2
6193	0.00011	7e-05	2e-05	-0.0001	-9e-05	-3e-05	-1e-05	7e-05	2
6194	0.00011	7e-05	2e-05	-0.0001	-9e-05	-3e-05	-1e-05	7e-05	2
6195	0.00011	7e-05	2e-05	-0.0001	-9e-05	-3e-05	-1e-05	7e-05	2
6196	0.00011	7e-05	2e-05	-0.0001	-9e-05	-3e-05	-1e-05	7e-05	2
6197	0.00011	7e-05	2e-05	-0.0001	-9e-05	-3e-05	-1e-05	7e-05	2
6198	0.00011	7e-05	2e-05	-0.0001	-9e-05	-3e-05	-1e-05	7e-05	2
6199	0.00011	7e-05	2e-05	-0.0001	-9e-05	-3e-05	-1e-05	7e-05	2
6200	0.00011	7e-05	2e-05	-0.0001	-9e-05	-3e-05	-1e-05	7e-05	2
6201	0.00011	7e-05	2e-05	-0.0001	-9e-05	-3e-05	-1e-05	7e-05	2
6202	0.00011	7e-05	2e-05	-0.0001	-9e-05	-3e-05	-1e-05	7e-05	2
6203	0.00011	7e-05	2e-05	-0.0001	-9e-05	-3e-05	-1e-05	7e-05	2
6204	0.00011	7e-05	2e-05	-0.0001	-9e-05	-3e-05	-1e-05	7e-05	2
6205	0.00011	7e-05	2e-05	-0.0001	-9e-05	-3e-05	-1e-05	7e-05	2
6206	0.00011	7e-05	2e-05	-0.0001	-9e-05	-3e-05	-1e-05	7e-05	2
6207	0.00011	7e-05	2e-05	-0.0001	-9e-05	-3e-05	-1e-05	7e-05	2
6208	0.00011	7e-05	2e-05	-0.0001	-9e-05	-3e-05	-1e-05	7e-05	2
6209	0.00011	7e-05	2e-05	-0.0001	-9e-05	-3e-05	-1e-05	7e-05	2
6210	7e-05	1e-05	0.00013	0.00038	1e-05	-1e-05	5e-05	-8e-05	2
6211	-1e-05	-2e-05	-0.00014	-0.00024	-0.00015	0.00014	-9e-05	-5e-05	2
6212	-1e-05	-2e-05	-0.00014	-0.00024	-0.00015	0.00014	-9e-05	-5e-05	2
6213	-1e-05	-2e-05	-0.00014	-0.00024	-0.00015	0.00014	-9e-05	-5e-05	2
6214	-1e-05	-2e-05	-0.00014	-0.00024	-0.00015	0.00014	-9e-05	-5e-05	2
6215	-1e-05	-2e-05	-0.00014	-0.00024	-0.00015	0.00014	-9e-05	-5e-05	2
6216	-1e-05	-2e-05	-0.00014	-0.00024	-0.00015	0.00014	-9e-05	-5e-05	2
6217	-1e-05	-2e-05	-0.00014	-0.00024	-0.00015	0.00014	-9e-05	-5e-05	2
6218	-1e-05	-2e-05	-0.00014	-0.00024	-0.00015	0.00014	-9e-05	-5e-05	2
6219	-1e-05	-2e-05	-0.00014	-0.00024	-0.00015	0.00014	-9e-05	-5e-05	2
6220	-1e-05	-2e-05	-0.00014	-0.00024	-0.00015	0.00014	-9e-05	-5e-05	2
6221	-1e-05	-2e-05	-0.00014	-0.00024	-0.00015	0.00014	-9e-05	-5e-05	2
6222	-1e-05	-2e-05	-0.00014	-0.00024	-0.00015	0.00014	-9e-05	-5e-05	2
6223	-1e-05	1e-05	0.00013	0.00024	6e-05	-6e-05	0.00011	1e-05	2
6224	0	2e-05	-6e-05	-7e-05	-3e-05	1e-05	0.00021	0.00013	2
6225	0	2e-05	-6e-05	-7e-05	-3e-05	1e-05	0.00021	0.00013	2
6226	0	2e-05	-6e-05	-7e-05	-3e-05	1e-05	0.00021	0.00013	2
6227	0	2e-05	-6e-05	-7e-05	-3e-05	1e-05	0.00021	0.00013	2
6228	0	2e-05	-6e-05	-7e-05	-3e-05	1e-05	0.00021	0.00013	2
6229	0	2e-05	-6e-05	-7e-05	-3e-05	1e-05	0.00021	0.00013	2
6230	0	2e-05	-6e-05	-7e-05	-3e-05	1e-05	0.00021	0.00013	2
6231	0	2e-05	-6e-05	-7e-05	-3e-05	1e-05	0.00021	0.00013	2
6232	2e-05	0	-7e-05	-0.00016	-0.0001	-1e-05	-5e-05	-0.0001	2
6233	0	-3e-05	-4e-05	0.0001	1e-05	1e-05	-4e-05	1e-05	2
6234	0	-3e-05	-4e-05	0.0001	1e-05	1e-05	-4e-05	1e-05	2
6235	0	-3e-05	-4e-05	0.0001	1e-05	1e-05	-4e-05	1e-05	2
6236	0	-3e-05	-4e-05	0.0001	1e-05	1e-05	-4e-05	1e-05	2
6238	0	-3e-05	-4e-05	0.0001	1e-05	1e-05	-4e-05	1e-05	2
6239	0	-3e-05	-4e-05	0.0001	1e-05	1e-05	-4e-05	1e-05	2
6240	0	-3e-05	-4e-05	0.0001	1e-05	1e-05	-4e-05	1e-05	2
6241	0	-3e-05	-4e-05	0.0001	1e-05	1e-05	-4e-05	1e-05	2
6242	0	-3e-05	-4e-05	0.0001	1e-05	1e-05	-4e-05	1e-05	2
6243	0	-3e-05	-4e-05	0.0001	1e-05	1e-05	-4e-05	1e-05	2
6244	0	-3e-05	-4e-05	0.0001	1e-05	1e-05	-4e-05	1e-05	2
6245	0	-3e-05	-4e-05	0.0001	1e-05	1e-05	-4e-05	1e-05	2
6246	0	-3e-05	-4e-05	0.0001	1e-05	1e-05	-4e-05	1e-05	2
6247	8e-05	-4e-05	-7e-05	-2e-05	0.0001	-8e-05	-0.00013	-1e-05	2
6248	8e-05	-4e-05	-7e-05	-2e-05	0.0001	-8e-05	-0.00013	-1e-05	2
6249	-5e-05	-5e-05	-3e-05	-0.00011	-6e-05	-4e-05	-6e-05	9e-05	2
6250	-5e-05	-5e-05	-3e-05	-0.00011	-6e-05	-4e-05	-6e-05	9e-05	2
6251	-5e-05	-5e-05	-3e-05	-0.00011	-6e-05	-4e-05	-6e-05	9e-05	2
6252	-5e-05	-5e-05	-3e-05	-0.00011	-6e-05	-4e-05	-6e-05	9e-05	2
6253	-5e-05	-5e-05	-3e-05	-0.00011	-6e-05	-4e-05	-6e-05	9e-05	2
6254	-5e-05	-5e-05	-3e-05	-0.00011	-6e-05	-4e-05	-6e-05	9e-05	2
6255	-5e-05	-5e-05	-3e-05	-0.00011	-6e-05	-4e-05	-6e-05	9e-05	2
6256	-5e-05	-5e-05	-3e-05	-0.00011	-6e-05	-4e-05	-6e-05	9e-05	2
6257	-5e-05	-5e-05	-3e-05	-0.00011	-6e-05	-4e-05	-6e-05	9e-05	2
6258	-5e-05	-5e-05	-3e-05	-0.00011	-6e-05	-4e-05	-6e-05	9e-05	2
6259	-5e-05	-5e-05	-3e-05	-0.00011	-6e-05	-4e-05	-6e-05	9e-05	2
6260	-5e-05	-5e-05	-3e-05	-0.00011	-6e-05	-4e-05	-6e-05	9e-05	2
6261	-5e-05	-5e-05	-3e-05	-0.00011	-6e-05	-4e-05	-6e-05	9e-05	2
6262	-5e-05	-5e-05	-3e-05	-0.00011	-6e-05	-4e-05	-6e-05	9e-05	2
6263	-5e-05	-5e-05	-3e-05	-0.00011	-6e-05	-4e-05	-6e-05	9e-05	2
6264	-5e-05	-5e-05	-3e-05	-0.00011	-6e-05	-4e-05	-6e-05	9e-05	2
6265	-5e-05	-5e-05	-3e-05	-0.00011	-6e-05	-4e-05	-6e-05	9e-05	2
6266	-5e-05	-5e-05	-3e-05	-0.00011	-6e-05	-4e-05	-6e-05	9e-05	2
6267	-5e-05	-5e-05	-3e-05	-0.00011	-6e-05	-4e-05	-6e-05	9e-05	2
6268	-5e-05	-5e-05	-3e-05	-0.00011	-6e-05	-4e-05	-6e-05	9e-05	2
6270	-5e-05	-5e-05	-3e-05	-0.00011	-6e-05	-4e-05	-6e-05	9e-05	2
6271	2e-05	1e-05	-2e-05	-0.00011	1e-05	1e-05	-8e-05	-1e-05	2
6272	3e-05	-3e-05	0	0.00012	-5e-05	-7e-05	7e-05	7e-05	2
6273	-1e-05	-2e-05	7e-05	0.00026	-2e-05	-7e-05	0	-3e-05	2
6274	-1e-05	-2e-05	7e-05	0.00026	-2e-05	-7e-05	0	-3e-05	2
6275	-1e-05	-2e-05	7e-05	0.00026	-2e-05	-7e-05	0	-3e-05	2
6276	-1e-05	-2e-05	7e-05	0.00026	-2e-05	-7e-05	0	-3e-05	2
6277	-1e-05	-2e-05	7e-05	0.00026	-2e-05	-7e-05	0	-3e-05	2
6278	-1e-05	-2e-05	7e-05	0.00026	-2e-05	-7e-05	0	-3e-05	2
6279	-1e-05	-2e-05	7e-05	0.00026	-2e-05	-7e-05	0	-3e-05	2
6280	-1e-05	-2e-05	7e-05	0.00026	-2e-05	-7e-05	0	-3e-05	2
6281	-1e-05	-2e-05	7e-05	0.00026	-2e-05	-7e-05	0	-3e-05	2
6282	-1e-05	-2e-05	7e-05	0.00026	-2e-05	-7e-05	0	-3e-05	2
6283	-1e-05	-2e-05	7e-05	0.00026	-2e-05	-7e-05	0	-3e-05	2
6284	-1e-05	-2e-05	7e-05	0.00026	-2e-05	-7e-05	0	-3e-05	2
6285	-3e-05	1e-05	-7e-05	-3e-05	-3e-05	-0.00019	-5e-05	-8e-05	2
6286	-3e-05	1e-05	-7e-05	-3e-05	-3e-05	-0.00019	-5e-05	-8e-05	2
6289	-3e-05	1e-05	-7e-05	-3e-05	-3e-05	-0.00019	-5e-05	-8e-05	2
6290	-3e-05	1e-05	-7e-05	-3e-05	-3e-05	-0.00019	-5e-05	-8e-05	2
6291	-3e-05	1e-05	-7e-05	-3e-05	-3e-05	-0.00019	-5e-05	-8e-05	2
6292	-3e-05	1e-05	-7e-05	-3e-05	-3e-05	-0.00019	-5e-05	-8e-05	2
6293	-3e-05	1e-05	-7e-05	-3e-05	-3e-05	-0.00019	-5e-05	-8e-05	2
6294	-3e-05	1e-05	-7e-05	-3e-05	-3e-05	-0.00019	-5e-05	-8e-05	2
6295	-3e-05	1e-05	-7e-05	-3e-05	-3e-05	-0.00019	-5e-05	-8e-05	2
6296	-3e-05	1e-05	-7e-05	-3e-05	-3e-05	-0.00019	-5e-05	-8e-05	2
6297	-3e-05	1e-05	-7e-05	-3e-05	-3e-05	-0.00019	-5e-05	-8e-05	2
6298	-3e-05	1e-05	-7e-05	-3e-05	-3e-05	-0.00019	-5e-05	-8e-05	2
6299	-3e-05	1e-05	-7e-05	-3e-05	-3e-05	-0.00019	-5e-05	-8e-05	2
6300	-3e-05	1e-05	-7e-05	-3e-05	-3e-05	-0.00019	-5e-05	-8e-05	2
6301	-7e-05	-1e-05	1e-05	-4e-05	0.00012	7e-05	-0.00014	-0.00014	2
6302	-7e-05	-1e-05	1e-05	-4e-05	0.00012	7e-05	-0.00014	-0.00014	2
6303	-7e-05	-1e-05	1e-05	-4e-05	0.00012	7e-05	-0.00014	-0.00014	2
6304	-7e-05	-1e-05	1e-05	-4e-05	0.00012	7e-05	-0.00014	-0.00014	2
6305	-7e-05	-1e-05	1e-05	-4e-05	0.00012	7e-05	-0.00014	-0.00014	2
6306	-7e-05	-1e-05	1e-05	-4e-05	0.00012	7e-05	-0.00014	-0.00014	2
6307	-7e-05	-1e-05	1e-05	-4e-05	0.00012	7e-05	-0.00014	-0.00014	2
6308	0	2e-05	3e-05	-5e-05	3e-05	7e-05	-6e-05	-3e-05	2
6310	6e-05	-1e-05	2e-05	3e-05	-0.00012	-0.0001	0.0004	0.00012	2
6311	6e-05	-1e-05	2e-05	3e-05	-0.00012	-0.0001	0.0004	0.00012	2
6312	6e-05	-1e-05	2e-05	3e-05	-0.00012	-0.0001	0.0004	0.00012	2
6313	6e-05	-1e-05	2e-05	3e-05	-0.00012	-0.0001	0.0004	0.00012	2
6314	6e-05	-1e-05	2e-05	3e-05	-0.00012	-0.0001	0.0004	0.00012	2
6315	6e-05	-1e-05	2e-05	3e-05	-0.00012	-0.0001	0.0004	0.00012	2
6316	6e-05	-1e-05	2e-05	3e-05	-0.00012	-0.0001	0.0004	0.00012	2
6317	6e-05	-1e-05	2e-05	3e-05	-0.00012	-0.0001	0.0004	0.00012	2
6318	6e-05	-1e-05	2e-05	3e-05	-0.00012	-0.0001	0.0004	0.00012	2
6319	6e-05	-1e-05	2e-05	3e-05	-0.00012	-0.0001	0.0004	0.00012	2
6320	6e-05	-1e-05	2e-05	3e-05	-0.00012	-0.0001	0.0004	0.00012	2
6321	6e-05	-1e-05	2e-05	3e-05	-0.00012	-0.0001	0.0004	0.00012	2
6322	6e-05	-1e-05	2e-05	3e-05	-0.00012	-0.0001	0.0004	0.00012	2
6323	6e-05	-1e-05	2e-05	3e-05	-0.00012	-0.0001	0.0004	0.00012	2
6324	6e-05	-1e-05	2e-05	3e-05	-0.00012	-0.0001	0.0004	0.00012	2
6325	6e-05	-1e-05	2e-05	3e-05	-0.00012	-0.0001	0.0004	0.00012	2
6326	6e-05	-1e-05	2e-05	3e-05	-0.00012	-0.0001	0.0004	0.00012	2
6327	6e-05	-1e-05	2e-05	3e-05	-0.00012	-0.0001	0.0004	0.00012	2
6328	6e-05	-1e-05	2e-05	3e-05	-0.00012	-0.0001	0.0004	0.00012	2
6329	6e-05	-1e-05	2e-05	3e-05	-0.00012	-0.0001	0.0004	0.00012	2
6330	6e-05	-1e-05	2e-05	3e-05	-0.00012	-0.0001	0.0004	0.00012	2
6331	6e-05	5e-05	0.00014	0.00023	1e-05	0.00013	0.00016	0.00011	2
6332	6e-05	5e-05	0.00014	0.00023	1e-05	0.00013	0.00016	0.00011	2
6333	-5e-05	-2e-05	-7e-05	-0.00014	-2e-05	-0.00021	-7e-05	-6e-05	2
6334	-5e-05	-2e-05	-7e-05	-0.00014	-2e-05	-0.00021	-7e-05	-6e-05	2
6335	-5e-05	-2e-05	-7e-05	-0.00014	-2e-05	-0.00021	-7e-05	-6e-05	2
6336	-5e-05	-2e-05	-7e-05	-0.00014	-2e-05	-0.00021	-7e-05	-6e-05	2
6338	-5e-05	-2e-05	-7e-05	-0.00014	-2e-05	-0.00021	-7e-05	-6e-05	2
6339	-5e-05	-2e-05	-7e-05	-0.00014	-2e-05	-0.00021	-7e-05	-6e-05	2
6340	-5e-05	-2e-05	-7e-05	-0.00014	-2e-05	-0.00021	-7e-05	-6e-05	2
6341	-5e-05	-2e-05	-7e-05	-0.00014	-2e-05	-0.00021	-7e-05	-6e-05	2
6342	-5e-05	-2e-05	-7e-05	-0.00014	-2e-05	-0.00021	-7e-05	-6e-05	2
6343	-5e-05	-2e-05	-7e-05	-0.00014	-2e-05	-0.00021	-7e-05	-6e-05	2
6344	7e-05	-3e-05	3e-05	7e-05	-0.00016	-2e-05	8e-05	0.0001	2
6345	-0.00015	-3e-05	-9e-05	0	0.00016	-5e-05	-0.00032	-0.0001	2
6346	-0.00015	-3e-05	-9e-05	0	0.00016	-5e-05	-0.00032	-0.0001	2
6347	-0.00015	-3e-05	-9e-05	0	0.00016	-5e-05	-0.00032	-0.0001	2
6348	-0.00015	-3e-05	-9e-05	0	0.00016	-5e-05	-0.00032	-0.0001	2
6349	-0.00015	-3e-05	-9e-05	0	0.00016	-5e-05	-0.00032	-0.0001	2
6350	-0.00015	-3e-05	-9e-05	0	0.00016	-5e-05	-0.00032	-0.0001	2
6351	-0.00015	-3e-05	-9e-05	0	0.00016	-5e-05	-0.00032	-0.0001	2
6352	-0.00015	-3e-05	-9e-05	0	0.00016	-5e-05	-0.00032	-0.0001	2
6353	0	-5e-05	-8e-05	-6e-05	-3e-05	2e-05	2e-05	1e-05	2
6354	0	-5e-05	-8e-05	-6e-05	-3e-05	2e-05	2e-05	1e-05	2
6355	0	-5e-05	-8e-05	-6e-05	-3e-05	2e-05	2e-05	1e-05	2
6356	0	-5e-05	-8e-05	-6e-05	-3e-05	2e-05	2e-05	1e-05	2
6357	0	-5e-05	-8e-05	-6e-05	-3e-05	2e-05	2e-05	1e-05	2
6358	0	-5e-05	-8e-05	-6e-05	-3e-05	2e-05	2e-05	1e-05	2
6359	0	-5e-05	-8e-05	-6e-05	-3e-05	2e-05	2e-05	1e-05	2
6360	0	-5e-05	-8e-05	-6e-05	-3e-05	2e-05	2e-05	1e-05	2
6361	0	-5e-05	-8e-05	-6e-05	-3e-05	2e-05	2e-05	1e-05	2
6362	0	-5e-05	-8e-05	-6e-05	-3e-05	2e-05	2e-05	1e-05	2
6363	0	-5e-05	-8e-05	-6e-05	-3e-05	2e-05	2e-05	1e-05	2
6364	0	-5e-05	-8e-05	-6e-05	-3e-05	2e-05	2e-05	1e-05	2
6365	0	-5e-05	-8e-05	-6e-05	-3e-05	2e-05	2e-05	1e-05	2
6366	0	-5e-05	-8e-05	-6e-05	-3e-05	2e-05	2e-05	1e-05	2
6367	0	-5e-05	-8e-05	-6e-05	-3e-05	2e-05	2e-05	1e-05	2
6368	-0.0001	-7e-05	-1e-05	-4e-05	-8e-05	-9e-05	-0.0001	-0.0001	2
6369	-0.0001	-7e-05	-1e-05	-4e-05	-8e-05	-9e-05	-0.0001	-0.0001	2
6370	3e-05	-4e-05	0	0.00013	0.00012	3e-05	-5e-05	0	2
6371	3e-05	-4e-05	0	0.00013	0.00012	3e-05	-5e-05	0	2
6372	3e-05	-4e-05	0	0.00013	0.00012	3e-05	-5e-05	0	2
6373	3e-05	-4e-05	0	0.00013	0.00012	3e-05	-5e-05	0	2
6374	3e-05	-4e-05	0	0.00013	0.00012	3e-05	-5e-05	0	2
6375	3e-05	-4e-05	0	0.00013	0.00012	3e-05	-5e-05	0	2
6376	3e-05	-4e-05	0	0.00013	0.00012	3e-05	-5e-05	0	2
6377	3e-05	-4e-05	0	0.00013	0.00012	3e-05	-5e-05	0	2
6378	3e-05	-4e-05	0	0.00013	0.00012	3e-05	-5e-05	0	2
6379	3e-05	-4e-05	0	0.00013	0.00012	3e-05	-5e-05	0	2
6380	3e-05	-4e-05	0	0.00013	0.00012	3e-05	-5e-05	0	2
6381	3e-05	-4e-05	0	0.00013	0.00012	3e-05	-5e-05	0	2
6382	3e-05	-4e-05	0	0.00013	0.00012	3e-05	-5e-05	0	2
6383	3e-05	-4e-05	0	0.00013	0.00012	3e-05	-5e-05	0	2
6384	3e-05	-4e-05	0	0.00013	0.00012	3e-05	-5e-05	0	2
6385	3e-05	-4e-05	0	0.00013	0.00012	3e-05	-5e-05	0	2
6386	3e-05	-4e-05	0	0.00013	0.00012	3e-05	-5e-05	0	2
6388	3e-05	-4e-05	0	0.00013	0.00012	3e-05	-5e-05	0	2
6389	3e-05	-4e-05	0	0.00013	0.00012	3e-05	-5e-05	0	2
6390	3e-05	-4e-05	0	0.00013	0.00012	3e-05	-5e-05	0	2
6391	4e-05	-4e-05	-0.00015	-0.00021	-6e-05	-7e-05	0	-7e-05	2
6392	4e-05	-4e-05	-0.00015	-0.00021	-6e-05	-7e-05	0	-7e-05	2
6393	4e-05	-4e-05	-0.00015	-0.00021	-6e-05	-7e-05	0	-7e-05	2
6394	4e-05	-4e-05	-0.00015	-0.00021	-6e-05	-7e-05	0	-7e-05	2
6395	4e-05	-4e-05	-0.00015	-0.00021	-6e-05	-7e-05	0	-7e-05	2
6396	4e-05	-4e-05	-0.00015	-0.00021	-6e-05	-7e-05	0	-7e-05	2
6397	0	-1e-05	1e-05	0.00012	6e-05	6e-05	3e-05	1e-05	2
6398	0	-1e-05	1e-05	0.00012	6e-05	6e-05	3e-05	1e-05	2
6399	0	-1e-05	1e-05	0.00012	6e-05	6e-05	3e-05	1e-05	2
6400	0	-1e-05	1e-05	0.00012	6e-05	6e-05	3e-05	1e-05	2
6401	0	-1e-05	1e-05	0.00012	6e-05	6e-05	3e-05	1e-05	2
6402	0	-1e-05	1e-05	0.00012	6e-05	6e-05	3e-05	1e-05	2
6403	0	-1e-05	1e-05	0.00012	6e-05	6e-05	3e-05	1e-05	2
6404	2e-05	6e-05	2e-05	-0.00021	-0.0001	0.0001	0.00017	-2e-05	2
6405	0	2e-05	9e-05	0.0002	-1e-05	-1e-05	0.00022	4e-05	2
6406	0	2e-05	9e-05	0.0002	-1e-05	-1e-05	0.00022	4e-05	2
6407	0	2e-05	9e-05	0.0002	-1e-05	-1e-05	0.00022	4e-05	2
6408	0	2e-05	9e-05	0.0002	-1e-05	-1e-05	0.00022	4e-05	2
6409	0	2e-05	9e-05	0.0002	-1e-05	-1e-05	0.00022	4e-05	2
6410	0	2e-05	9e-05	0.0002	-1e-05	-1e-05	0.00022	4e-05	2
6411	0	2e-05	9e-05	0.0002	-1e-05	-1e-05	0.00022	4e-05	2
6412	0	2e-05	9e-05	0.0002	-1e-05	-1e-05	0.00022	4e-05	2
6413	0	2e-05	9e-05	0.0002	-1e-05	-1e-05	0.00022	4e-05	2
6414	3e-05	-7e-05	-0.00013	-9e-05	-2e-05	0.00016	0.0002	3e-05	2
6415	3e-05	-7e-05	-0.00013	-9e-05	-2e-05	0.00016	0.0002	3e-05	2
6416	3e-05	-7e-05	-0.00013	-9e-05	-2e-05	0.00016	0.0002	3e-05	2
6417	3e-05	-7e-05	-0.00013	-9e-05	-2e-05	0.00016	0.0002	3e-05	2
6418	3e-05	-7e-05	-0.00013	-9e-05	-2e-05	0.00016	0.0002	3e-05	2
6419	3e-05	-7e-05	-0.00013	-9e-05	-2e-05	0.00016	0.0002	3e-05	2
6420	3e-05	-7e-05	-0.00013	-9e-05	-2e-05	0.00016	0.0002	3e-05	2
6421	3e-05	-7e-05	-0.00013	-9e-05	-2e-05	0.00016	0.0002	3e-05	2
6422	3e-05	-7e-05	-0.00013	-9e-05	-2e-05	0.00016	0.0002	3e-05	2
6423	3e-05	-7e-05	-0.00013	-9e-05	-2e-05	0.00016	0.0002	3e-05	2
6424	3e-05	-7e-05	-0.00013	-9e-05	-2e-05	0.00016	0.0002	3e-05	2
6425	3e-05	-7e-05	-0.00013	-9e-05	-2e-05	0.00016	0.0002	3e-05	2
6426	3e-05	-7e-05	-0.00013	-9e-05	-2e-05	0.00016	0.0002	3e-05	2
6427	3e-05	-7e-05	-0.00013	-9e-05	-2e-05	0.00016	0.0002	3e-05	2
6428	0	0	6e-05	-0.00014	0	0.00022	2e-05	0	2
6429	0	0	6e-05	-0.00014	0	0.00022	2e-05	0	2
6430	-6e-05	1e-05	-1e-05	-9e-05	-4e-05	-9e-05	0	-8e-05	2
6431	-6e-05	1e-05	-1e-05	-9e-05	-4e-05	-9e-05	0	-8e-05	2
6432	-6e-05	1e-05	-1e-05	-9e-05	-4e-05	-9e-05	0	-8e-05	2
6433	-6e-05	1e-05	-1e-05	-9e-05	-4e-05	-9e-05	0	-8e-05	2
6434	-6e-05	1e-05	-1e-05	-9e-05	-4e-05	-9e-05	0	-8e-05	2
6435	-6e-05	1e-05	-1e-05	-9e-05	-4e-05	-9e-05	0	-8e-05	2
6436	-6e-05	1e-05	-1e-05	-9e-05	-4e-05	-9e-05	0	-8e-05	2
6438	-6e-05	1e-05	-1e-05	-9e-05	-4e-05	-9e-05	0	-8e-05	2
6439	-6e-05	1e-05	-1e-05	-9e-05	-4e-05	-9e-05	0	-8e-05	2
6441	-6e-05	1e-05	-1e-05	-9e-05	-4e-05	-9e-05	0	-8e-05	2
6442	-6e-05	1e-05	-1e-05	-9e-05	-4e-05	-9e-05	0	-8e-05	2
6443	-6e-05	1e-05	-1e-05	-9e-05	-4e-05	-9e-05	0	-8e-05	2
6444	-6e-05	1e-05	-1e-05	-9e-05	-4e-05	-9e-05	0	-8e-05	2
6445	-6e-05	1e-05	-1e-05	-9e-05	-4e-05	-9e-05	0	-8e-05	2
6446	-6e-05	1e-05	-1e-05	-9e-05	-4e-05	-9e-05	0	-8e-05	2
6447	-6e-05	1e-05	-1e-05	-9e-05	-4e-05	-9e-05	0	-8e-05	2
6448	-6e-05	1e-05	-1e-05	-9e-05	-4e-05	-9e-05	0	-8e-05	2
6449	-6e-05	1e-05	-1e-05	-9e-05	-4e-05	-9e-05	0	-8e-05	2
6450	-6e-05	1e-05	-1e-05	-9e-05	-4e-05	-9e-05	0	-8e-05	2
6451	-0.00012	-2e-05	5e-05	-4e-05	-8e-05	-0.0001	-9e-05	-0.00012	2
6452	-0.00012	-2e-05	5e-05	-4e-05	-8e-05	-0.0001	-9e-05	-0.00012	2
6453	0.00012	1e-05	-1e-05	-0.00034	-4e-05	0.00022	-0.00017	-7e-05	2
6454	0.00012	1e-05	-1e-05	-0.00034	-4e-05	0.00022	-0.00017	-7e-05	2
6455	0.00012	1e-05	-1e-05	-0.00034	-4e-05	0.00022	-0.00017	-7e-05	2
6456	0.00012	1e-05	-1e-05	-0.00034	-4e-05	0.00022	-0.00017	-7e-05	2
6457	0.00012	1e-05	-1e-05	-0.00034	-4e-05	0.00022	-0.00017	-7e-05	2
6458	0.00012	1e-05	-1e-05	-0.00034	-4e-05	0.00022	-0.00017	-7e-05	2
6459	0.00012	1e-05	-1e-05	-0.00034	-4e-05	0.00022	-0.00017	-7e-05	2
6460	0.00012	1e-05	-1e-05	-0.00034	-4e-05	0.00022	-0.00017	-7e-05	2
6461	0.00012	1e-05	-1e-05	-0.00034	-4e-05	0.00022	-0.00017	-7e-05	2
6462	0.00012	1e-05	-1e-05	-0.00034	-4e-05	0.00022	-0.00017	-7e-05	2
6463	0.00012	1e-05	-1e-05	-0.00034	-4e-05	0.00022	-0.00017	-7e-05	2
6464	0.00012	1e-05	-1e-05	-0.00034	-4e-05	0.00022	-0.00017	-7e-05	2
6465	0.00012	1e-05	-1e-05	-0.00034	-4e-05	0.00022	-0.00017	-7e-05	2
6466	0.00012	1e-05	-1e-05	-0.00034	-4e-05	0.00022	-0.00017	-7e-05	2
6467	0.00012	1e-05	-1e-05	-0.00034	-4e-05	0.00022	-0.00017	-7e-05	2
6468	0.00012	1e-05	-1e-05	-0.00034	-4e-05	0.00022	-0.00017	-7e-05	2
6469	0.00012	1e-05	-1e-05	-0.00034	-4e-05	0.00022	-0.00017	-7e-05	2
6470	0.00012	1e-05	-1e-05	-0.00034	-4e-05	0.00022	-0.00017	-7e-05	2
6471	0.00012	1e-05	-1e-05	-0.00034	-4e-05	0.00022	-0.00017	-7e-05	2
6472	0.00012	1e-05	-1e-05	-0.00034	-4e-05	0.00022	-0.00017	-7e-05	2
6473	-6e-05	-9e-05	-0.00017	-0.00027	8e-05	-0.00016	-8e-05	-3e-05	2
6474	-6e-05	-9e-05	-0.00017	-0.00027	8e-05	-0.00016	-8e-05	-3e-05	2
6475	-6e-05	-9e-05	-0.00017	-0.00027	8e-05	-0.00016	-8e-05	-3e-05	2
6476	-6e-05	-9e-05	-0.00017	-0.00027	8e-05	-0.00016	-8e-05	-3e-05	2
6477	-6e-05	-9e-05	-0.00017	-0.00027	8e-05	-0.00016	-8e-05	-3e-05	2
6478	-6e-05	-9e-05	-0.00017	-0.00027	8e-05	-0.00016	-8e-05	-3e-05	2
6479	-6e-05	-9e-05	-0.00017	-0.00027	8e-05	-0.00016	-8e-05	-3e-05	2
6480	-6e-05	-9e-05	-0.00017	-0.00027	8e-05	-0.00016	-8e-05	-3e-05	2
6481	-0.00017	-6e-05	5e-05	0.00016	-5e-05	-9e-05	-2e-05	-0.00014	2
6482	-0.00017	-6e-05	5e-05	0.00016	-5e-05	-9e-05	-2e-05	-0.00014	2
6483	-0.00017	-6e-05	5e-05	0.00016	-5e-05	-9e-05	-2e-05	-0.00014	2
6484	-0.00017	-6e-05	5e-05	0.00016	-5e-05	-9e-05	-2e-05	-0.00014	2
6485	-0.00017	-6e-05	5e-05	0.00016	-5e-05	-9e-05	-2e-05	-0.00014	2
6486	-0.00017	-6e-05	5e-05	0.00016	-5e-05	-9e-05	-2e-05	-0.00014	2
6489	3e-05	-7e-05	-0.00026	-0.00027	1e-05	0.0001	0.0001	-2e-05	2
6490	-3e-05	5e-05	9e-05	8e-05	-9e-05	-0.00016	-6e-05	0	2
6491	-3e-05	5e-05	9e-05	8e-05	-9e-05	-0.00016	-6e-05	0	2
6492	-3e-05	5e-05	9e-05	8e-05	-9e-05	-0.00016	-6e-05	0	2
6493	-3e-05	5e-05	9e-05	8e-05	-9e-05	-0.00016	-6e-05	0	2
6494	-3e-05	5e-05	9e-05	8e-05	-9e-05	-0.00016	-6e-05	0	2
6495	-3e-05	5e-05	9e-05	8e-05	-9e-05	-0.00016	-6e-05	0	2
6496	-3e-05	5e-05	9e-05	8e-05	-9e-05	-0.00016	-6e-05	0	2
6497	-3e-05	5e-05	9e-05	8e-05	-9e-05	-0.00016	-6e-05	0	2
6498	-3e-05	5e-05	9e-05	8e-05	-9e-05	-0.00016	-6e-05	0	2
6499	-3e-05	5e-05	9e-05	8e-05	-9e-05	-0.00016	-6e-05	0	2
6500	-3e-05	5e-05	9e-05	8e-05	-9e-05	-0.00016	-6e-05	0	2
6501	-3e-05	5e-05	9e-05	8e-05	-9e-05	-0.00016	-6e-05	0	2
6502	-3e-05	5e-05	9e-05	8e-05	-9e-05	-0.00016	-6e-05	0	2
6503	-3e-05	5e-05	9e-05	8e-05	-9e-05	-0.00016	-6e-05	0	2
6504	-3e-05	5e-05	9e-05	8e-05	-9e-05	-0.00016	-6e-05	0	2
6505	-3e-05	5e-05	9e-05	8e-05	-9e-05	-0.00016	-6e-05	0	2
6506	-3e-05	5e-05	9e-05	8e-05	-9e-05	-0.00016	-6e-05	0	2
6507	-3e-05	5e-05	9e-05	8e-05	-9e-05	-0.00016	-6e-05	0	2
6508	-3e-05	5e-05	9e-05	8e-05	-9e-05	-0.00016	-6e-05	0	2
6509	-3e-05	5e-05	9e-05	8e-05	-9e-05	-0.00016	-6e-05	0	2
6510	-3e-05	5e-05	9e-05	8e-05	-9e-05	-0.00016	-6e-05	0	2
6511	1e-05	2e-05	1e-05	0.00016	-1e-05	-7e-05	-6e-05	-1e-05	2
6512	0.00018	8e-05	6e-05	0.00014	-0.00014	-0.00032	0.00011	2e-05	2
6513	0.00018	8e-05	6e-05	0.00014	-0.00014	-0.00032	0.00011	2e-05	2
6514	0.00018	8e-05	6e-05	0.00014	-0.00014	-0.00032	0.00011	2e-05	2
6515	0.00018	8e-05	6e-05	0.00014	-0.00014	-0.00032	0.00011	2e-05	2
6516	0.00018	8e-05	6e-05	0.00014	-0.00014	-0.00032	0.00011	2e-05	2
6517	0.00018	8e-05	6e-05	0.00014	-0.00014	-0.00032	0.00011	2e-05	2
6518	0.00018	8e-05	6e-05	0.00014	-0.00014	-0.00032	0.00011	2e-05	2
6519	0.00018	8e-05	6e-05	0.00014	-0.00014	-0.00032	0.00011	2e-05	2
6520	0.00018	8e-05	6e-05	0.00014	-0.00014	-0.00032	0.00011	2e-05	2
6521	0.00018	8e-05	6e-05	0.00014	-0.00014	-0.00032	0.00011	2e-05	2
6522	0.00018	8e-05	6e-05	0.00014	-0.00014	-0.00032	0.00011	2e-05	2
6523	0.00018	8e-05	6e-05	0.00014	-0.00014	-0.00032	0.00011	2e-05	2
6524	0.00018	8e-05	6e-05	0.00014	-0.00014	-0.00032	0.00011	2e-05	2
6525	0.00018	8e-05	6e-05	0.00014	-0.00014	-0.00032	0.00011	2e-05	2
6526	0.00018	8e-05	6e-05	0.00014	-0.00014	-0.00032	0.00011	2e-05	2
6527	0.00018	8e-05	6e-05	0.00014	-0.00014	-0.00032	0.00011	2e-05	2
6528	0.00018	8e-05	6e-05	0.00014	-0.00014	-0.00032	0.00011	2e-05	2
6529	0.00018	8e-05	6e-05	0.00014	-0.00014	-0.00032	0.00011	2e-05	2
6530	0.00018	8e-05	6e-05	0.00014	-0.00014	-0.00032	0.00011	2e-05	2
6531	0.00018	8e-05	6e-05	0.00014	-0.00014	-0.00032	0.00011	2e-05	2
6532	0.00018	8e-05	6e-05	0.00014	-0.00014	-0.00032	0.00011	2e-05	2
6533	-4e-05	-3e-05	-1e-05	-7e-05	-4e-05	1e-05	0.00016	7e-05	2
6534	-4e-05	-3e-05	-1e-05	-7e-05	-4e-05	1e-05	0.00016	7e-05	2
6535	-4e-05	-3e-05	-1e-05	-7e-05	-4e-05	1e-05	0.00016	7e-05	2
6536	-3e-05	4e-05	9e-05	3e-05	3e-05	3e-05	0.00013	3e-05	2
6538	-3e-05	4e-05	9e-05	3e-05	3e-05	3e-05	0.00013	3e-05	2
6540	-3e-05	4e-05	9e-05	3e-05	3e-05	3e-05	0.00013	3e-05	2
6541	-3e-05	4e-05	9e-05	3e-05	3e-05	3e-05	0.00013	3e-05	2
6542	-3e-05	4e-05	9e-05	3e-05	3e-05	3e-05	0.00013	3e-05	2
6543	-3e-05	4e-05	9e-05	3e-05	3e-05	3e-05	0.00013	3e-05	2
6544	-3e-05	4e-05	9e-05	3e-05	3e-05	3e-05	0.00013	3e-05	2
6545	-3e-05	4e-05	9e-05	3e-05	3e-05	3e-05	0.00013	3e-05	2
6546	-3e-05	4e-05	9e-05	3e-05	3e-05	3e-05	0.00013	3e-05	2
6547	-3e-05	4e-05	9e-05	3e-05	3e-05	3e-05	0.00013	3e-05	2
6548	-3e-05	4e-05	9e-05	3e-05	3e-05	3e-05	0.00013	3e-05	2
6549	-3e-05	4e-05	9e-05	3e-05	3e-05	3e-05	0.00013	3e-05	2
6550	-5e-05	-2e-05	3e-05	0.00029	0	-4e-05	-8e-05	-3e-05	2
6551	0	-2e-05	-0.00018	-0.00019	5e-05	-5e-05	-0.0001	-1e-05	2
6552	0	-2e-05	-0.00018	-0.00019	5e-05	-5e-05	-0.0001	-1e-05	2
6553	0	-2e-05	-0.00018	-0.00019	5e-05	-5e-05	-0.0001	-1e-05	2
6554	0	-2e-05	-0.00018	-0.00019	5e-05	-5e-05	-0.0001	-1e-05	2
6555	0	-2e-05	-0.00018	-0.00019	5e-05	-5e-05	-0.0001	-1e-05	2
6556	0	-2e-05	-0.00018	-0.00019	5e-05	-5e-05	-0.0001	-1e-05	2
6557	0	-2e-05	-0.00018	-0.00019	5e-05	-5e-05	-0.0001	-1e-05	2
6558	0	-2e-05	-0.00018	-0.00019	5e-05	-5e-05	-0.0001	-1e-05	2
6559	0	-2e-05	-0.00018	-0.00019	5e-05	-5e-05	-0.0001	-1e-05	2
6560	0	-2e-05	-0.00018	-0.00019	5e-05	-5e-05	-0.0001	-1e-05	2
6561	0	-2e-05	-0.00018	-0.00019	5e-05	-5e-05	-0.0001	-1e-05	2
6562	0	-2e-05	-0.00018	-0.00019	5e-05	-5e-05	-0.0001	-1e-05	2
6563	0	-2e-05	-0.00018	-0.00019	5e-05	-5e-05	-0.0001	-1e-05	2
6564	0	-2e-05	-0.00018	-0.00019	5e-05	-5e-05	-0.0001	-1e-05	2
6565	0	-2e-05	-0.00018	-0.00019	5e-05	-5e-05	-0.0001	-1e-05	2
6566	0	-2e-05	-0.00018	-0.00019	5e-05	-5e-05	-0.0001	-1e-05	2
6567	0	-2e-05	-0.00018	-0.00019	5e-05	-5e-05	-0.0001	-1e-05	2
6568	0	-2e-05	-0.00018	-0.00019	5e-05	-5e-05	-0.0001	-1e-05	2
6569	0	-2e-05	-0.00018	-0.00019	5e-05	-5e-05	-0.0001	-1e-05	2
6570	0	-2e-05	-0.00018	-0.00019	5e-05	-5e-05	-0.0001	-1e-05	2
6571	0	-5e-05	4e-05	0.00014	-1e-05	-9e-05	-0.00037	-2e-05	2
6572	2e-05	-6e-05	-0.00011	-0.00011	7e-05	0.00011	-0.0001	0	2
6573	2e-05	-6e-05	-0.00011	-0.00011	7e-05	0.00011	-0.0001	0	2
6574	2e-05	-6e-05	-0.00011	-0.00011	7e-05	0.00011	-0.0001	0	2
6575	2e-05	-6e-05	-0.00011	-0.00011	7e-05	0.00011	-0.0001	0	2
6576	2e-05	-6e-05	-0.00011	-0.00011	7e-05	0.00011	-0.0001	0	2
6577	2e-05	-6e-05	-0.00011	-0.00011	7e-05	0.00011	-0.0001	0	2
6578	2e-05	-6e-05	-0.00011	-0.00011	7e-05	0.00011	-0.0001	0	2
6579	2e-05	-6e-05	-0.00011	-0.00011	7e-05	0.00011	-0.0001	0	2
6580	2e-05	-6e-05	-0.00011	-0.00011	7e-05	0.00011	-0.0001	0	2
6581	2e-05	-6e-05	-0.00011	-0.00011	7e-05	0.00011	-0.0001	0	2
6582	2e-05	-6e-05	-0.00011	-0.00011	7e-05	0.00011	-0.0001	0	2
6583	2e-05	-6e-05	-0.00011	-0.00011	7e-05	0.00011	-0.0001	0	2
6584	2e-05	-6e-05	-0.00011	-0.00011	7e-05	0.00011	-0.0001	0	2
6585	2e-05	-6e-05	-0.00011	-0.00011	7e-05	0.00011	-0.0001	0	2
6586	2e-05	-6e-05	-0.00011	-0.00011	7e-05	0.00011	-0.0001	0	2
6588	2e-05	-6e-05	-0.00011	-0.00011	7e-05	0.00011	-0.0001	0	2
6590	2e-05	-6e-05	-0.00011	-0.00011	7e-05	0.00011	-0.0001	0	2
6591	2e-05	-6e-05	-0.00011	-0.00011	7e-05	0.00011	-0.0001	0	2
6592	2e-05	-6e-05	-0.00011	-0.00011	7e-05	0.00011	-0.0001	0	2
6593	2e-05	-6e-05	-0.00011	-0.00011	7e-05	0.00011	-0.0001	0	2
6594	2e-05	5e-05	0.00012	4e-05	-2e-05	-0.0001	-0.00023	0	2
6595	2e-05	5e-05	0.00012	4e-05	-2e-05	-0.0001	-0.00023	0	2
6596	2e-05	5e-05	0.00012	4e-05	-2e-05	-0.0001	-0.00023	0	2
6597	2e-05	5e-05	0.00012	4e-05	-2e-05	-0.0001	-0.00023	0	2
6598	2e-05	5e-05	0.00012	4e-05	-2e-05	-0.0001	-0.00023	0	2
6599	2e-05	5e-05	0.00012	4e-05	-2e-05	-0.0001	-0.00023	0	2
6600	0	1e-05	-4e-05	-0.00024	-2e-05	0.00012	-2e-05	2e-05	2
6601	0	1e-05	-4e-05	-0.00024	-2e-05	0.00012	-2e-05	2e-05	2
6602	0	1e-05	-4e-05	-0.00024	-2e-05	0.00012	-2e-05	2e-05	2
6603	0	1e-05	-4e-05	-0.00024	-2e-05	0.00012	-2e-05	2e-05	2
6604	0	1e-05	-4e-05	-0.00024	-2e-05	0.00012	-2e-05	2e-05	2
6605	0	1e-05	-4e-05	-0.00024	-2e-05	0.00012	-2e-05	2e-05	2
6606	0	1e-05	-4e-05	-0.00024	-2e-05	0.00012	-2e-05	2e-05	2
6607	0	1e-05	-4e-05	-0.00024	-2e-05	0.00012	-2e-05	2e-05	2
6608	5e-05	8e-05	5e-05	5e-05	2e-05	6e-05	0.00012	5e-05	2
6609	5e-05	8e-05	5e-05	5e-05	2e-05	6e-05	0.00012	5e-05	2
6610	5e-05	8e-05	5e-05	5e-05	2e-05	6e-05	0.00012	5e-05	2
6611	5e-05	8e-05	5e-05	5e-05	2e-05	6e-05	0.00012	5e-05	2
6612	5e-05	8e-05	5e-05	5e-05	2e-05	6e-05	0.00012	5e-05	2
6613	5e-05	8e-05	5e-05	5e-05	2e-05	6e-05	0.00012	5e-05	2
6614	5e-05	8e-05	5e-05	5e-05	2e-05	6e-05	0.00012	5e-05	2
6615	-1e-05	2e-05	-3e-05	0.00021	-4e-05	-0.00012	-6e-05	0	2
6616	-1e-05	2e-05	-3e-05	0.00021	-4e-05	-0.00012	-6e-05	0	2
6617	-1e-05	2e-05	-3e-05	0.00021	-4e-05	-0.00012	-6e-05	0	2
6618	-1e-05	2e-05	-3e-05	0.00021	-4e-05	-0.00012	-6e-05	0	2
6619	-1e-05	2e-05	-3e-05	0.00021	-4e-05	-0.00012	-6e-05	0	2
6620	-1e-05	2e-05	-3e-05	0.00021	-4e-05	-0.00012	-6e-05	0	2
6621	-1e-05	2e-05	-3e-05	0.00021	-4e-05	-0.00012	-6e-05	0	2
6622	-1e-05	2e-05	-3e-05	0.00021	-4e-05	-0.00012	-6e-05	0	2
6623	-1e-05	2e-05	-3e-05	0.00021	-4e-05	-0.00012	-6e-05	0	2
6624	-1e-05	2e-05	-3e-05	0.00021	-4e-05	-0.00012	-6e-05	0	2
6625	-1e-05	2e-05	-3e-05	0.00021	-4e-05	-0.00012	-6e-05	0	2
6626	-1e-05	2e-05	-3e-05	0.00021	-4e-05	-0.00012	-6e-05	0	2
6627	-1e-05	2e-05	-3e-05	0.00021	-4e-05	-0.00012	-6e-05	0	2
6628	-1e-05	2e-05	-3e-05	0.00021	-4e-05	-0.00012	-6e-05	0	2
6629	-1e-05	2e-05	-3e-05	0.00021	-4e-05	-0.00012	-6e-05	0	2
6630	-1e-05	2e-05	-3e-05	0.00021	-4e-05	-0.00012	-6e-05	0	2
6631	-1e-05	2e-05	-3e-05	0.00021	-4e-05	-0.00012	-6e-05	0	2
6632	-1e-05	2e-05	-3e-05	0.00021	-4e-05	-0.00012	-6e-05	0	2
6633	-1e-05	2e-05	-3e-05	0.00021	-4e-05	-0.00012	-6e-05	0	2
6634	-1e-05	2e-05	-3e-05	0.00021	-4e-05	-0.00012	-6e-05	0	2
6635	-1e-05	2e-05	-3e-05	0.00021	-4e-05	-0.00012	-6e-05	0	2
6636	-1e-05	2e-05	-3e-05	0.00021	-4e-05	-0.00012	-6e-05	0	2
6639	2e-05	3e-05	-6e-05	-4e-05	-2e-05	-1e-05	6e-05	-1e-05	2
6640	-6e-05	-3e-05	3e-05	5e-05	0.00012	0.00041	-5e-05	-1e-05	2
6641	-6e-05	-3e-05	3e-05	5e-05	0.00012	0.00041	-5e-05	-1e-05	2
6642	-6e-05	-3e-05	3e-05	5e-05	0.00012	0.00041	-5e-05	-1e-05	2
6643	-6e-05	-3e-05	3e-05	5e-05	0.00012	0.00041	-5e-05	-1e-05	2
6644	-6e-05	-3e-05	3e-05	5e-05	0.00012	0.00041	-5e-05	-1e-05	2
6645	-6e-05	-3e-05	3e-05	5e-05	0.00012	0.00041	-5e-05	-1e-05	2
6646	-6e-05	-3e-05	3e-05	5e-05	0.00012	0.00041	-5e-05	-1e-05	2
6647	-6e-05	-3e-05	3e-05	5e-05	0.00012	0.00041	-5e-05	-1e-05	2
6648	-6e-05	-3e-05	3e-05	5e-05	0.00012	0.00041	-5e-05	-1e-05	2
6649	-6e-05	-3e-05	3e-05	5e-05	0.00012	0.00041	-5e-05	-1e-05	2
6650	-6e-05	-3e-05	3e-05	5e-05	0.00012	0.00041	-5e-05	-1e-05	2
6651	-6e-05	-3e-05	3e-05	5e-05	0.00012	0.00041	-5e-05	-1e-05	2
6652	-6e-05	-3e-05	3e-05	5e-05	0.00012	0.00041	-5e-05	-1e-05	2
6653	-4e-05	0	-0.00012	-0.00014	4e-05	6e-05	-7e-05	-0.00018	2
6655	-1e-05	0	5e-05	5e-05	4e-05	3e-05	-5e-05	1e-05	2
6656	-1e-05	0	5e-05	5e-05	4e-05	3e-05	-5e-05	1e-05	2
6657	-1e-05	0	5e-05	5e-05	4e-05	3e-05	-5e-05	1e-05	2
6658	-1e-05	0	5e-05	5e-05	4e-05	3e-05	-5e-05	1e-05	2
6659	-1e-05	0	5e-05	5e-05	4e-05	3e-05	-5e-05	1e-05	2
6660	-1e-05	0	5e-05	5e-05	4e-05	3e-05	-5e-05	1e-05	2
6661	-1e-05	0	5e-05	5e-05	4e-05	3e-05	-5e-05	1e-05	2
6662	-1e-05	0	5e-05	5e-05	4e-05	3e-05	-5e-05	1e-05	2
6663	-1e-05	0	5e-05	5e-05	4e-05	3e-05	-5e-05	1e-05	2
6664	-1e-05	0	5e-05	5e-05	4e-05	3e-05	-5e-05	1e-05	2
6665	-1e-05	0	5e-05	5e-05	4e-05	3e-05	-5e-05	1e-05	2
6666	-1e-05	0	5e-05	5e-05	4e-05	3e-05	-5e-05	1e-05	2
6667	-1e-05	0	5e-05	5e-05	4e-05	3e-05	-5e-05	1e-05	2
6668	-6e-05	-5e-05	1e-05	1e-05	-4e-05	0.00016	0.00016	4e-05	2
6669	-6e-05	-5e-05	1e-05	1e-05	-4e-05	0.00016	0.00016	4e-05	2
6670	-6e-05	-5e-05	1e-05	1e-05	-4e-05	0.00016	0.00016	4e-05	2
6671	-6e-05	-5e-05	1e-05	1e-05	-4e-05	0.00016	0.00016	4e-05	2
6672	-6e-05	-5e-05	1e-05	1e-05	-4e-05	0.00016	0.00016	4e-05	2
6673	-6e-05	-5e-05	1e-05	1e-05	-4e-05	0.00016	0.00016	4e-05	2
6674	-6e-05	-5e-05	1e-05	1e-05	-4e-05	0.00016	0.00016	4e-05	2
6675	-6e-05	-5e-05	1e-05	1e-05	-4e-05	0.00016	0.00016	4e-05	2
6676	0	1e-05	3e-05	-0.0002	-8e-05	-0.00027	1e-05	-5e-05	2
6677	0	1e-05	3e-05	-0.0002	-8e-05	-0.00027	1e-05	-5e-05	2
6678	0	1e-05	3e-05	-0.0002	-8e-05	-0.00027	1e-05	-5e-05	2
6679	0	1e-05	3e-05	-0.0002	-8e-05	-0.00027	1e-05	-5e-05	2
6680	0	1e-05	3e-05	-0.0002	-8e-05	-0.00027	1e-05	-5e-05	2
6681	0	1e-05	3e-05	-0.0002	-8e-05	-0.00027	1e-05	-5e-05	2
6682	0	1e-05	3e-05	-0.0002	-8e-05	-0.00027	1e-05	-5e-05	2
6683	0	1e-05	3e-05	-0.0002	-8e-05	-0.00027	1e-05	-5e-05	2
6684	0	1e-05	3e-05	-0.0002	-8e-05	-0.00027	1e-05	-5e-05	2
6685	0	1e-05	3e-05	-0.0002	-8e-05	-0.00027	1e-05	-5e-05	2
6686	0	1e-05	3e-05	-0.0002	-8e-05	-0.00027	1e-05	-5e-05	2
