23047	0.00024	0.00021	5e-05	0	-0.00017	-6e-05	-3e-05	-1e-05	5
23048	0.00024	0.00021	5e-05	0	-0.00017	-6e-05	-3e-05	-1e-05	5
23049	0.00024	0.00021	5e-05	0	-0.00017	-6e-05	-3e-05	-1e-05	5
23050	0.00024	0.00021	5e-05	0	-0.00017	-6e-05	-3e-05	-1e-05	5
23051	0.00024	0.00021	5e-05	0	-0.00017	-6e-05	-3e-05	-1e-05	5
23052	0.00024	0.00021	5e-05	0	-0.00017	-6e-05	-3e-05	-1e-05	5
23053	0.00024	0.00021	5e-05	0	-0.00017	-6e-05	-3e-05	-1e-05	5
23054	0.00024	0.00021	5e-05	0	-0.00017	-6e-05	-3e-05	-1e-05	5
23055	-0.00011	-2e-05	-9e-05	-0.00018	-0.00017	-1e-05	-3e-05	-5e-05	5
23056	1e-05	-5e-05	-2e-05	6e-05	8e-05	0.00015	-5e-05	-3e-05	5
23057	-6e-05	-5e-05	-0.00011	8e-05	-0.00012	-0.00013	-4e-05	-7e-05	5
23058	-6e-05	-5e-05	-0.00011	8e-05	-0.00012	-0.00013	-4e-05	-7e-05	5
23059	-6e-05	-5e-05	-0.00011	8e-05	-0.00012	-0.00013	-4e-05	-7e-05	5
23060	-6e-05	-5e-05	-0.00011	8e-05	-0.00012	-0.00013	-4e-05	-7e-05	5
23061	-6e-05	-5e-05	-0.00011	8e-05	-0.00012	-0.00013	-4e-05	-7e-05	5
23062	-6e-05	-5e-05	-0.00011	8e-05	-0.00012	-0.00013	-4e-05	-7e-05	5
23063	-6e-05	-5e-05	-0.00011	8e-05	-0.00012	-0.00013	-4e-05	-7e-05	5
23064	-6e-05	-5e-05	-0.00011	8e-05	-0.00012	-0.00013	-4e-05	-7e-05	5
23065	-6e-05	-5e-05	-0.00011	8e-05	-0.00012	-0.00013	-4e-05	-7e-05	5
23066	-6e-05	-5e-05	-0.00011	8e-05	-0.00012	-0.00013	-4e-05	-7e-05	5
23067	-6e-05	-5e-05	-0.00011	8e-05	-0.00012	-0.00013	-4e-05	-7e-05	5
23068	-6e-05	-5e-05	-0.00011	8e-05	-0.00012	-0.00013	-4e-05	-7e-05	5
23069	1e-05	5e-05	-4e-05	-7e-05	0.00012	5e-05	-7e-05	-5e-05	5
23070	1e-05	5e-05	-4e-05	-7e-05	0.00012	5e-05	-7e-05	-5e-05	5
23071	1e-05	5e-05	-4e-05	-7e-05	0.00012	5e-05	-7e-05	-5e-05	5
23072	1e-05	5e-05	-4e-05	-7e-05	0.00012	5e-05	-7e-05	-5e-05	5
23073	1e-05	5e-05	-4e-05	-7e-05	0.00012	5e-05	-7e-05	-5e-05	5
23074	1e-05	5e-05	-4e-05	-7e-05	0.00012	5e-05	-7e-05	-5e-05	5
23075	1e-05	5e-05	-4e-05	-7e-05	0.00012	5e-05	-7e-05	-5e-05	5
23076	1e-05	5e-05	-4e-05	-7e-05	0.00012	5e-05	-7e-05	-5e-05	5
23077	1e-05	5e-05	-4e-05	-7e-05	0.00012	5e-05	-7e-05	-5e-05	5
23078	1e-05	5e-05	-4e-05	-7e-05	0.00012	5e-05	-7e-05	-5e-05	5
23079	1e-05	5e-05	-4e-05	-7e-05	0.00012	5e-05	-7e-05	-5e-05	5
23080	1e-05	5e-05	-4e-05	-7e-05	0.00012	5e-05	-7e-05	-5e-05	5
23081	1e-05	5e-05	-4e-05	-7e-05	0.00012	5e-05	-7e-05	-5e-05	5
23082	1e-05	5e-05	-4e-05	-7e-05	0.00012	5e-05	-7e-05	-5e-05	5
23083	1e-05	5e-05	-4e-05	-7e-05	0.00012	5e-05	-7e-05	-5e-05	5
23084	-0.00011	2e-05	5e-05	-0.00017	0.00042	7e-05	0	0	5
23085	-0.00011	2e-05	5e-05	-0.00017	0.00042	7e-05	0	0	5
23086	-0.00011	2e-05	5e-05	-0.00017	0.00042	7e-05	0	0	5
23088	-0.00011	2e-05	5e-05	-0.00017	0.00042	7e-05	0	0	5
23089	-0.00011	2e-05	5e-05	-0.00017	0.00042	7e-05	0	0	5
23090	-0.00011	2e-05	5e-05	-0.00017	0.00042	7e-05	0	0	5
23091	-0.00011	2e-05	5e-05	-0.00017	0.00042	7e-05	0	0	5
23092	-0.00011	2e-05	5e-05	-0.00017	0.00042	7e-05	0	0	5
23093	-0.00011	2e-05	5e-05	-0.00017	0.00042	7e-05	0	0	5
23094	8e-05	-0.00012	1e-05	-6e-05	-0.00013	0.00023	8e-05	3e-05	5
23095	-0.00021	-0.00017	-0.00017	-0.00012	-0.00037	-5e-05	-4e-05	-4e-05	5
23096	0.0001	7e-05	-1e-05	0.00013	0.00061	-7e-05	-3e-05	2e-05	5
23097	0.0001	7e-05	-1e-05	0.00013	0.00061	-7e-05	-3e-05	2e-05	5
23098	0.0001	7e-05	-1e-05	0.00013	0.00061	-7e-05	-3e-05	2e-05	5
23099	0.0001	7e-05	-1e-05	0.00013	0.00061	-7e-05	-3e-05	2e-05	5
23100	0.0001	7e-05	-1e-05	0.00013	0.00061	-7e-05	-3e-05	2e-05	5
23101	0.0001	7e-05	-1e-05	0.00013	0.00061	-7e-05	-3e-05	2e-05	5
23102	0.0001	7e-05	-1e-05	0.00013	0.00061	-7e-05	-3e-05	2e-05	5
23103	0.0001	7e-05	-1e-05	0.00013	0.00061	-7e-05	-3e-05	2e-05	5
23104	0.0001	7e-05	-1e-05	0.00013	0.00061	-7e-05	-3e-05	2e-05	5
23105	0.0001	7e-05	-1e-05	0.00013	0.00061	-7e-05	-3e-05	2e-05	5
23106	0.0001	7e-05	-1e-05	0.00013	0.00061	-7e-05	-3e-05	2e-05	5
23107	0.0001	7e-05	-1e-05	0.00013	0.00061	-7e-05	-3e-05	2e-05	5
23108	0.0001	7e-05	-1e-05	0.00013	0.00061	-7e-05	-3e-05	2e-05	5
23109	0.0001	7e-05	-1e-05	0.00013	0.00061	-7e-05	-3e-05	2e-05	5
23110	0.0001	7e-05	-1e-05	0.00013	0.00061	-7e-05	-3e-05	2e-05	5
23111	0.0001	7e-05	-1e-05	0.00013	0.00061	-7e-05	-3e-05	2e-05	5
23112	0.0001	7e-05	-1e-05	0.00013	0.00061	-7e-05	-3e-05	2e-05	5
23113	0.0001	7e-05	-1e-05	0.00013	0.00061	-7e-05	-3e-05	2e-05	5
23114	0.0001	7e-05	-1e-05	0.00013	0.00061	-7e-05	-3e-05	2e-05	5
23115	0.0001	7e-05	-1e-05	0.00013	0.00061	-7e-05	-3e-05	2e-05	5
23116	0.0001	7e-05	-1e-05	0.00013	0.00061	-7e-05	-3e-05	2e-05	5
23117	0.0001	7e-05	-1e-05	0.00013	0.00061	-7e-05	-3e-05	2e-05	5
23118	0.0001	7e-05	-1e-05	0.00013	0.00061	-7e-05	-3e-05	2e-05	5
23119	0.0001	7e-05	-1e-05	0.00013	0.00061	-7e-05	-3e-05	2e-05	5
23120	0.0001	7e-05	-1e-05	0.00013	0.00061	-7e-05	-3e-05	2e-05	5
23121	0.0001	7e-05	-1e-05	0.00013	0.00061	-7e-05	-3e-05	2e-05	5
23122	0.0001	7e-05	-1e-05	0.00013	0.00061	-7e-05	-3e-05	2e-05	5
23123	0.0001	8e-05	7e-05	0.00012	0.00016	-5e-05	-3e-05	-3e-05	5
23124	0.0001	8e-05	7e-05	0.00012	0.00016	-5e-05	-3e-05	-3e-05	5
23125	0.0001	8e-05	7e-05	0.00012	0.00016	-5e-05	-3e-05	-3e-05	5
23126	0.0001	8e-05	7e-05	0.00012	0.00016	-5e-05	-3e-05	-3e-05	5
23127	0.0001	8e-05	7e-05	0.00012	0.00016	-5e-05	-3e-05	-3e-05	5
23128	0.0001	8e-05	7e-05	0.00012	0.00016	-5e-05	-3e-05	-3e-05	5
23129	0.0001	8e-05	7e-05	0.00012	0.00016	-5e-05	-3e-05	-3e-05	5
23130	0.0001	8e-05	7e-05	0.00012	0.00016	-5e-05	-3e-05	-3e-05	5
23131	0.00018	8e-05	-6e-05	-0.0001	-1e-05	3e-05	-1e-05	4e-05	5
23132	-7e-05	-7e-05	0	0	6e-05	-0.00017	-5e-05	-2e-05	5
23133	-7e-05	-7e-05	0	0	6e-05	-0.00017	-5e-05	-2e-05	5
23134	-7e-05	-7e-05	0	0	6e-05	-0.00017	-5e-05	-2e-05	5
23135	-7e-05	-7e-05	0	0	6e-05	-0.00017	-5e-05	-2e-05	5
23136	-7e-05	-7e-05	0	0	6e-05	-0.00017	-5e-05	-2e-05	5
23139	-7e-05	-7e-05	0	0	6e-05	-0.00017	-5e-05	-2e-05	5
23140	-7e-05	-7e-05	0	0	6e-05	-0.00017	-5e-05	-2e-05	5
23141	-7e-05	-7e-05	0	0	6e-05	-0.00017	-5e-05	-2e-05	5
23142	-7e-05	-7e-05	0	0	6e-05	-0.00017	-5e-05	-2e-05	5
23143	-7e-05	-7e-05	0	0	6e-05	-0.00017	-5e-05	-2e-05	5
23144	-7e-05	-7e-05	0	0	6e-05	-0.00017	-5e-05	-2e-05	5
23145	-7e-05	-7e-05	0	0	6e-05	-0.00017	-5e-05	-2e-05	5
23146	-7e-05	-7e-05	0	0	6e-05	-0.00017	-5e-05	-2e-05	5
23147	-7e-05	-7e-05	0	0	6e-05	-0.00017	-5e-05	-2e-05	5
23148	-7e-05	-7e-05	0	0	6e-05	-0.00017	-5e-05	-2e-05	5
23149	-7e-05	-7e-05	0	0	6e-05	-0.00017	-5e-05	-2e-05	5
23150	-7e-05	-7e-05	0	0	6e-05	-0.00017	-5e-05	-2e-05	5
23151	-7e-05	-7e-05	0	0	6e-05	-0.00017	-5e-05	-2e-05	5
23152	-7e-05	-7e-05	0	0	6e-05	-0.00017	-5e-05	-2e-05	5
23153	-7e-05	-7e-05	0	0	6e-05	-0.00017	-5e-05	-2e-05	5
23154	-7e-05	-7e-05	0	0	6e-05	-0.00017	-5e-05	-2e-05	5
23155	-7e-05	-7e-05	0	0	6e-05	-0.00017	-5e-05	-2e-05	5
23156	-7e-05	-7e-05	0	0	6e-05	-0.00017	-5e-05	-2e-05	5
23157	-7e-05	-7e-05	0	0	6e-05	-0.00017	-5e-05	-2e-05	5
23158	-7e-05	-7e-05	0	0	6e-05	-0.00017	-5e-05	-2e-05	5
23159	-7e-05	-7e-05	0	0	6e-05	-0.00017	-5e-05	-2e-05	5
23160	-7e-05	-7e-05	0	0	6e-05	-0.00017	-5e-05	-2e-05	5
23161	-7e-05	-7e-05	0	0	6e-05	-0.00017	-5e-05	-2e-05	5
23162	-7e-05	-7e-05	0	0	6e-05	-0.00017	-5e-05	-2e-05	5
23163	-7e-05	-7e-05	0	0	6e-05	-0.00017	-5e-05	-2e-05	5
23164	-7e-05	-7e-05	0	0	6e-05	-0.00017	-5e-05	-2e-05	5
23165	-7e-05	-7e-05	0	0	6e-05	-0.00017	-5e-05	-2e-05	5
23166	-7e-05	-7e-05	0	0	6e-05	-0.00017	-5e-05	-2e-05	5
23167	-7e-05	-7e-05	0	0	6e-05	-0.00017	-5e-05	-2e-05	5
23168	0	8e-05	3e-05	0.00018	0.00026	0	-6e-05	-4e-05	5
23169	-1e-05	5e-05	9e-05	8e-05	-0.00028	-8e-05	5e-05	3e-05	5
23170	-1e-05	5e-05	9e-05	8e-05	-0.00028	-8e-05	5e-05	3e-05	5
23171	7e-05	-2e-05	-6e-05	-5e-05	-0.00026	1e-05	0	2e-05	5
23172	7e-05	-2e-05	-6e-05	-5e-05	-0.00026	1e-05	0	2e-05	5
23173	7e-05	-2e-05	-6e-05	-5e-05	-0.00026	1e-05	0	2e-05	5
23174	7e-05	-2e-05	-6e-05	-5e-05	-0.00026	1e-05	0	2e-05	5
23175	-0.00016	-0.00012	3e-05	5e-05	-0.00037	0.00015	4e-05	-6e-05	5
23176	-0.00016	-0.00012	3e-05	5e-05	-0.00037	0.00015	4e-05	-6e-05	5
23177	-8e-05	2e-05	3e-05	7e-05	-0.00039	0.00012	3e-05	-6e-05	5
23179	-8e-05	2e-05	3e-05	7e-05	-0.00039	0.00012	3e-05	-6e-05	5
23180	-8e-05	2e-05	3e-05	7e-05	-0.00039	0.00012	3e-05	-6e-05	5
23181	-8e-05	2e-05	3e-05	7e-05	-0.00039	0.00012	3e-05	-6e-05	5
23182	-8e-05	2e-05	3e-05	7e-05	-0.00039	0.00012	3e-05	-6e-05	5
23183	-8e-05	2e-05	3e-05	7e-05	-0.00039	0.00012	3e-05	-6e-05	5
23184	-8e-05	2e-05	3e-05	7e-05	-0.00039	0.00012	3e-05	-6e-05	5
23185	-8e-05	2e-05	3e-05	7e-05	-0.00039	0.00012	3e-05	-6e-05	5
23186	-8e-05	2e-05	3e-05	7e-05	-0.00039	0.00012	3e-05	-6e-05	5
23188	-8e-05	2e-05	3e-05	7e-05	-0.00039	0.00012	3e-05	-6e-05	5
23189	-8e-05	2e-05	3e-05	7e-05	-0.00039	0.00012	3e-05	-6e-05	5
23190	0.00011	-8e-05	7e-05	0.00023	7e-05	0.00011	0	0	5
23191	0.00011	-8e-05	7e-05	0.00023	7e-05	0.00011	0	0	5
23192	0.00011	-8e-05	7e-05	0.00023	7e-05	0.00011	0	0	5
23193	0.00011	-8e-05	7e-05	0.00023	7e-05	0.00011	0	0	5
23194	0.00011	-8e-05	7e-05	0.00023	7e-05	0.00011	0	0	5
23195	0.00011	-8e-05	7e-05	0.00023	7e-05	0.00011	0	0	5
23196	0.00011	-8e-05	7e-05	0.00023	7e-05	0.00011	0	0	5
23197	0.00011	-8e-05	7e-05	0.00023	7e-05	0.00011	0	0	5
23198	0.00011	-8e-05	7e-05	0.00023	7e-05	0.00011	0	0	5
23199	0.00011	-8e-05	7e-05	0.00023	7e-05	0.00011	0	0	5
23200	0.00011	-8e-05	7e-05	0.00023	7e-05	0.00011	0	0	5
23201	0.00011	-8e-05	7e-05	0.00023	7e-05	0.00011	0	0	5
23202	0.00011	-8e-05	7e-05	0.00023	7e-05	0.00011	0	0	5
23203	0.00011	-8e-05	7e-05	0.00023	7e-05	0.00011	0	0	5
23204	0.00011	-8e-05	7e-05	0.00023	7e-05	0.00011	0	0	5
23205	-0.00012	-0.00019	-0.00025	-1e-05	0.0005	-1e-05	-1e-05	-6e-05	5
23206	-0.00012	-0.00019	-0.00025	-1e-05	0.0005	-1e-05	-1e-05	-6e-05	5
23207	-0.00012	-0.00019	-0.00025	-1e-05	0.0005	-1e-05	-1e-05	-6e-05	5
23208	-0.00012	-0.00019	-0.00025	-1e-05	0.0005	-1e-05	-1e-05	-6e-05	5
23209	-0.00012	-0.00019	-0.00025	-1e-05	0.0005	-1e-05	-1e-05	-6e-05	5
23210	-0.00012	-0.00019	-0.00025	-1e-05	0.0005	-1e-05	-1e-05	-6e-05	5
23211	-0.00012	-0.00019	-0.00025	-1e-05	0.0005	-1e-05	-1e-05	-6e-05	5
23212	-0.00012	-0.00019	-0.00025	-1e-05	0.0005	-1e-05	-1e-05	-6e-05	5
23213	0.00015	6e-05	0	-7e-05	-3e-05	-1e-05	-2e-05	2e-05	5
23214	0.00015	6e-05	0	-7e-05	-3e-05	-1e-05	-2e-05	2e-05	5
23215	0.00015	6e-05	0	-7e-05	-3e-05	-1e-05	-2e-05	2e-05	5
23216	0.00015	6e-05	0	-7e-05	-3e-05	-1e-05	-2e-05	2e-05	5
23217	0.00015	6e-05	0	-7e-05	-3e-05	-1e-05	-2e-05	2e-05	5
23218	0.00015	6e-05	0	-7e-05	-3e-05	-1e-05	-2e-05	2e-05	5
23219	0.00015	6e-05	0	-7e-05	-3e-05	-1e-05	-2e-05	2e-05	5
23220	0.00015	6e-05	0	-7e-05	-3e-05	-1e-05	-2e-05	2e-05	5
23221	0.00015	6e-05	0	-7e-05	-3e-05	-1e-05	-2e-05	2e-05	5
23222	0.00015	6e-05	0	-7e-05	-3e-05	-1e-05	-2e-05	2e-05	5
23223	0.00015	6e-05	0	-7e-05	-3e-05	-1e-05	-2e-05	2e-05	5
23224	0.00015	6e-05	0	-7e-05	-3e-05	-1e-05	-2e-05	2e-05	5
23225	0.00015	6e-05	0	-7e-05	-3e-05	-1e-05	-2e-05	2e-05	5
23226	-9e-05	4e-05	0	-9e-05	-0.00027	-0.00013	-3e-05	-2e-05	5
23227	-9e-05	4e-05	0	-9e-05	-0.00027	-0.00013	-3e-05	-2e-05	5
23228	-9e-05	4e-05	0	-9e-05	-0.00027	-0.00013	-3e-05	-2e-05	5
23229	-9e-05	4e-05	0	-9e-05	-0.00027	-0.00013	-3e-05	-2e-05	5
23230	-9e-05	4e-05	0	-9e-05	-0.00027	-0.00013	-3e-05	-2e-05	5
23231	-9e-05	4e-05	0	-9e-05	-0.00027	-0.00013	-3e-05	-2e-05	5
23232	-9e-05	4e-05	0	-9e-05	-0.00027	-0.00013	-3e-05	-2e-05	5
23233	-9e-05	4e-05	0	-9e-05	-0.00027	-0.00013	-3e-05	-2e-05	5
23234	-9e-05	4e-05	0	-9e-05	-0.00027	-0.00013	-3e-05	-2e-05	5
23235	-9e-05	4e-05	0	-9e-05	-0.00027	-0.00013	-3e-05	-2e-05	5
23236	-9e-05	4e-05	0	-9e-05	-0.00027	-0.00013	-3e-05	-2e-05	5
23238	-9e-05	4e-05	0	-9e-05	-0.00027	-0.00013	-3e-05	-2e-05	5
23239	-9e-05	4e-05	0	-9e-05	-0.00027	-0.00013	-3e-05	-2e-05	5
23240	-9e-05	4e-05	0	-9e-05	-0.00027	-0.00013	-3e-05	-2e-05	5
23241	-9e-05	4e-05	0	-9e-05	-0.00027	-0.00013	-3e-05	-2e-05	5
23242	-9e-05	4e-05	0	-9e-05	-0.00027	-0.00013	-3e-05	-2e-05	5
23243	-4e-05	0	3e-05	-3e-05	-0.00013	-6e-05	-5e-05	-4e-05	5
23244	-2e-05	6e-05	2e-05	-0.0001	-0.00019	-5e-05	-1e-05	-1e-05	5
23245	-2e-05	6e-05	2e-05	-0.0001	-0.00019	-5e-05	-1e-05	-1e-05	5
23246	-2e-05	6e-05	2e-05	-0.0001	-0.00019	-5e-05	-1e-05	-1e-05	5
23247	-2e-05	6e-05	2e-05	-0.0001	-0.00019	-5e-05	-1e-05	-1e-05	5
23248	-2e-05	6e-05	2e-05	-0.0001	-0.00019	-5e-05	-1e-05	-1e-05	5
23249	0	-3e-05	-0.00021	-0.00018	0.00084	0.00025	-1e-05	-1e-05	5
23250	0	-3e-05	-0.00021	-0.00018	0.00084	0.00025	-1e-05	-1e-05	5
23251	0	-3e-05	-0.00021	-0.00018	0.00084	0.00025	-1e-05	-1e-05	5
23252	0	-3e-05	-0.00021	-0.00018	0.00084	0.00025	-1e-05	-1e-05	5
23253	0	-3e-05	-0.00021	-0.00018	0.00084	0.00025	-1e-05	-1e-05	5
23254	0	-3e-05	-0.00021	-0.00018	0.00084	0.00025	-1e-05	-1e-05	5
23255	0	-3e-05	-0.00021	-0.00018	0.00084	0.00025	-1e-05	-1e-05	5
23256	0	-3e-05	-0.00021	-0.00018	0.00084	0.00025	-1e-05	-1e-05	5
23257	0	-3e-05	-0.00021	-0.00018	0.00084	0.00025	-1e-05	-1e-05	5
23258	0	-3e-05	-0.00021	-0.00018	0.00084	0.00025	-1e-05	-1e-05	5
23259	0	-3e-05	-0.00021	-0.00018	0.00084	0.00025	-1e-05	-1e-05	5
23260	0	-3e-05	-0.00021	-0.00018	0.00084	0.00025	-1e-05	-1e-05	5
23261	0	-3e-05	-0.00021	-0.00018	0.00084	0.00025	-1e-05	-1e-05	5
23262	0	-3e-05	-0.00021	-0.00018	0.00084	0.00025	-1e-05	-1e-05	5
23263	0	-3e-05	-0.00021	-0.00018	0.00084	0.00025	-1e-05	-1e-05	5
23264	0	-3e-05	-0.00021	-0.00018	0.00084	0.00025	-1e-05	-1e-05	5
23265	-1e-05	-3e-05	8e-05	0.0001	2e-05	1e-05	2e-05	-2e-05	5
23266	-1e-05	-3e-05	8e-05	0.0001	2e-05	1e-05	2e-05	-2e-05	5
23267	-1e-05	-3e-05	8e-05	0.0001	2e-05	1e-05	2e-05	-2e-05	5
23268	-1e-05	-3e-05	8e-05	0.0001	2e-05	1e-05	2e-05	-2e-05	5
23269	-1e-05	-3e-05	8e-05	0.0001	2e-05	1e-05	2e-05	-2e-05	5
23270	-1e-05	-3e-05	8e-05	0.0001	2e-05	1e-05	2e-05	-2e-05	5
23271	-1e-05	-3e-05	8e-05	0.0001	2e-05	1e-05	2e-05	-2e-05	5
23272	-1e-05	-3e-05	8e-05	0.0001	2e-05	1e-05	2e-05	-2e-05	5
23273	-1e-05	-3e-05	8e-05	0.0001	2e-05	1e-05	2e-05	-2e-05	5
23274	-1e-05	-3e-05	8e-05	0.0001	2e-05	1e-05	2e-05	-2e-05	5
23275	-1e-05	-3e-05	8e-05	0.0001	2e-05	1e-05	2e-05	-2e-05	5
23276	-1e-05	-3e-05	8e-05	0.0001	2e-05	1e-05	2e-05	-2e-05	5
23277	-1e-05	-3e-05	8e-05	0.0001	2e-05	1e-05	2e-05	-2e-05	5
23278	-1e-05	-3e-05	8e-05	0.0001	2e-05	1e-05	2e-05	-2e-05	5
23279	-1e-05	-3e-05	8e-05	0.0001	2e-05	1e-05	2e-05	-2e-05	5
23280	-1e-05	-3e-05	8e-05	0.0001	2e-05	1e-05	2e-05	-2e-05	5
23281	-1e-05	-3e-05	8e-05	0.0001	2e-05	1e-05	2e-05	-2e-05	5
23282	-1e-05	-3e-05	8e-05	0.0001	2e-05	1e-05	2e-05	-2e-05	5
23283	-1e-05	-3e-05	8e-05	0.0001	2e-05	1e-05	2e-05	-2e-05	5
23284	-1e-05	-3e-05	8e-05	0.0001	2e-05	1e-05	2e-05	-2e-05	5
23285	-1e-05	-3e-05	8e-05	0.0001	2e-05	1e-05	2e-05	-2e-05	5
23286	-1e-05	-3e-05	8e-05	0.0001	2e-05	1e-05	2e-05	-2e-05	5
23289	-0.00012	7e-05	5e-05	-4e-05	-0.00013	-0.0002	-5e-05	-3e-05	5
23290	-0.00012	7e-05	5e-05	-4e-05	-0.00013	-0.0002	-5e-05	-3e-05	5
23291	-0.00012	-0.00012	-0.00012	-0.00011	-0.00048	-8e-05	-3e-05	-4e-05	5
23292	-0.00012	-0.00012	-0.00012	-0.00011	-0.00048	-8e-05	-3e-05	-4e-05	5
23293	-0.00012	-0.00012	-0.00012	-0.00011	-0.00048	-8e-05	-3e-05	-4e-05	5
23294	-0.00012	-0.00012	-0.00012	-0.00011	-0.00048	-8e-05	-3e-05	-4e-05	5
23295	0.00016	-0.00014	-3e-05	-3e-05	-0.00025	-9e-05	-2e-05	-4e-05	5
23296	0.00016	-0.00014	-3e-05	-3e-05	-0.00025	-9e-05	-2e-05	-4e-05	5
23297	0.00016	-0.00014	-3e-05	-3e-05	-0.00025	-9e-05	-2e-05	-4e-05	5
23298	0.00016	-0.00014	-3e-05	-3e-05	-0.00025	-9e-05	-2e-05	-4e-05	5
23299	0.00016	-0.00014	-3e-05	-3e-05	-0.00025	-9e-05	-2e-05	-4e-05	5
23300	0.00016	-0.00014	-3e-05	-3e-05	-0.00025	-9e-05	-2e-05	-4e-05	5
23301	0.00016	-0.00014	-3e-05	-3e-05	-0.00025	-9e-05	-2e-05	-4e-05	5
23302	0.00016	-0.00014	-3e-05	-3e-05	-0.00025	-9e-05	-2e-05	-4e-05	5
23303	0.00016	-0.00014	-3e-05	-3e-05	-0.00025	-9e-05	-2e-05	-4e-05	5
23304	0.00016	-0.00014	-3e-05	-3e-05	-0.00025	-9e-05	-2e-05	-4e-05	5
23305	0.00016	-0.00014	-3e-05	-3e-05	-0.00025	-9e-05	-2e-05	-4e-05	5
23306	0.00016	-0.00014	-3e-05	-3e-05	-0.00025	-9e-05	-2e-05	-4e-05	5
23307	0.00016	-0.00014	-3e-05	-3e-05	-0.00025	-9e-05	-2e-05	-4e-05	5
23308	0.00016	-0.00014	-3e-05	-3e-05	-0.00025	-9e-05	-2e-05	-4e-05	5
23309	0.00016	-0.00014	-3e-05	-3e-05	-0.00025	-9e-05	-2e-05	-4e-05	5
23310	0.00016	-0.00014	-3e-05	-3e-05	-0.00025	-9e-05	-2e-05	-4e-05	5
23311	0.00016	-0.00014	-3e-05	-3e-05	-0.00025	-9e-05	-2e-05	-4e-05	5
23312	0.00016	-0.00014	-3e-05	-3e-05	-0.00025	-9e-05	-2e-05	-4e-05	5
23313	0.00016	-0.00014	-3e-05	-3e-05	-0.00025	-9e-05	-2e-05	-4e-05	5
23314	0.00016	-0.00014	-3e-05	-3e-05	-0.00025	-9e-05	-2e-05	-4e-05	5
23315	0.00016	-0.00014	-3e-05	-3e-05	-0.00025	-9e-05	-2e-05	-4e-05	5
23316	0.00016	-0.00014	-3e-05	-3e-05	-0.00025	-9e-05	-2e-05	-4e-05	5
23317	0.00016	-0.00014	-3e-05	-3e-05	-0.00025	-9e-05	-2e-05	-4e-05	5
23318	0.00016	-0.00014	-3e-05	-3e-05	-0.00025	-9e-05	-2e-05	-4e-05	5
23319	0.00016	-0.00014	-3e-05	-3e-05	-0.00025	-9e-05	-2e-05	-4e-05	5
23320	0.00016	-0.00014	-3e-05	-3e-05	-0.00025	-9e-05	-2e-05	-4e-05	5
23321	0.00016	-0.00014	-3e-05	-3e-05	-0.00025	-9e-05	-2e-05	-4e-05	5
23322	0.00016	-0.00014	-3e-05	-3e-05	-0.00025	-9e-05	-2e-05	-4e-05	5
23323	0.00016	-0.00014	-3e-05	-3e-05	-0.00025	-9e-05	-2e-05	-4e-05	5
23324	0.00016	-0.00014	-3e-05	-3e-05	-0.00025	-9e-05	-2e-05	-4e-05	5
23325	0.00016	-0.00014	-3e-05	-3e-05	-0.00025	-9e-05	-2e-05	-4e-05	5
23326	-5e-05	-1e-05	-4e-05	-0.00011	7e-05	-0.00018	2e-05	-5e-05	5
23327	1e-05	0.00012	1e-05	6e-05	0	-0.00013	0	7e-05	5
23328	-5e-05	-1e-05	-7e-05	-4e-05	0.00025	9e-05	1e-05	-3e-05	5
23329	-5e-05	-1e-05	-7e-05	-4e-05	0.00025	9e-05	1e-05	-3e-05	5
23330	-5e-05	-1e-05	-7e-05	-4e-05	0.00025	9e-05	1e-05	-3e-05	5
23331	-5e-05	-1e-05	-7e-05	-4e-05	0.00025	9e-05	1e-05	-3e-05	5
23332	4e-05	-6e-05	-7e-05	-6e-05	-0.00024	-0.00013	-5e-05	1e-05	5
23333	-2e-05	-1e-05	-3e-05	4e-05	0.00025	-1e-05	-1e-05	-2e-05	5
23334	-0.00013	-1e-05	-6e-05	1e-05	-0.00016	-4e-05	-4e-05	-4e-05	5
23335	-0.00013	-1e-05	-6e-05	1e-05	-0.00016	-4e-05	-4e-05	-4e-05	5
23336	-0.00013	-1e-05	-6e-05	1e-05	-0.00016	-4e-05	-4e-05	-4e-05	5
23338	-0.00013	-1e-05	-6e-05	1e-05	-0.00016	-4e-05	-4e-05	-4e-05	5
23339	-0.00013	-1e-05	-6e-05	1e-05	-0.00016	-4e-05	-4e-05	-4e-05	5
23340	-0.00013	-1e-05	-6e-05	1e-05	-0.00016	-4e-05	-4e-05	-4e-05	5
23341	-0.00013	-1e-05	-6e-05	1e-05	-0.00016	-4e-05	-4e-05	-4e-05	5
23342	-0.00013	-1e-05	-6e-05	1e-05	-0.00016	-4e-05	-4e-05	-4e-05	5
23343	-0.00013	-1e-05	-6e-05	1e-05	-0.00016	-4e-05	-4e-05	-4e-05	5
23344	-0.00013	-1e-05	-6e-05	1e-05	-0.00016	-4e-05	-4e-05	-4e-05	5
23345	-0.00013	-1e-05	-6e-05	1e-05	-0.00016	-4e-05	-4e-05	-4e-05	5
23346	-0.00013	-1e-05	-6e-05	1e-05	-0.00016	-4e-05	-4e-05	-4e-05	5
23347	-0.00013	-1e-05	-6e-05	1e-05	-0.00016	-4e-05	-4e-05	-4e-05	5
23348	-0.00013	-1e-05	-6e-05	1e-05	-0.00016	-4e-05	-4e-05	-4e-05	5
23349	-0.00013	-1e-05	-6e-05	1e-05	-0.00016	-4e-05	-4e-05	-4e-05	5
23350	-0.00013	-1e-05	-6e-05	1e-05	-0.00016	-4e-05	-4e-05	-4e-05	5
23351	-0.00013	-1e-05	-6e-05	1e-05	-0.00016	-4e-05	-4e-05	-4e-05	5
23352	-0.00013	-1e-05	-6e-05	1e-05	-0.00016	-4e-05	-4e-05	-4e-05	5
23353	-0.00013	-1e-05	-6e-05	1e-05	-0.00016	-4e-05	-4e-05	-4e-05	5
23354	-0.00013	-1e-05	-6e-05	1e-05	-0.00016	-4e-05	-4e-05	-4e-05	5
23355	-0.00013	-1e-05	-6e-05	1e-05	-0.00016	-4e-05	-4e-05	-4e-05	5
23356	-0.00013	-1e-05	-6e-05	1e-05	-0.00016	-4e-05	-4e-05	-4e-05	5
23357	-0.00013	-1e-05	-6e-05	1e-05	-0.00016	-4e-05	-4e-05	-4e-05	5
23358	-0.00013	-1e-05	-6e-05	1e-05	-0.00016	-4e-05	-4e-05	-4e-05	5
23359	-0.00013	-1e-05	-6e-05	1e-05	-0.00016	-4e-05	-4e-05	-4e-05	5
23360	-0.00013	-1e-05	-6e-05	1e-05	-0.00016	-4e-05	-4e-05	-4e-05	5
23361	-0.00013	-1e-05	-6e-05	1e-05	-0.00016	-4e-05	-4e-05	-4e-05	5
23362	-0.00013	-1e-05	-6e-05	1e-05	-0.00016	-4e-05	-4e-05	-4e-05	5
23363	-8e-05	0	-0.00016	-3e-05	0.0001	8e-05	7e-05	1e-05	5
23364	-8e-05	0	-0.00016	-3e-05	0.0001	8e-05	7e-05	1e-05	5
23365	-4e-05	-0.00011	0.00012	8e-05	-0.00036	6e-05	6e-05	3e-05	5
23366	-4e-05	-0.00011	0.00012	8e-05	-0.00036	6e-05	6e-05	3e-05	5
23367	-4e-05	-0.00011	0.00012	8e-05	-0.00036	6e-05	6e-05	3e-05	5
23368	-4e-05	-0.00011	0.00012	8e-05	-0.00036	6e-05	6e-05	3e-05	5
23369	-4e-05	-0.00011	0.00012	8e-05	-0.00036	6e-05	6e-05	3e-05	5
23370	-4e-05	-0.00011	0.00012	8e-05	-0.00036	6e-05	6e-05	3e-05	5
23371	-4e-05	-0.00011	0.00012	8e-05	-0.00036	6e-05	6e-05	3e-05	5
23372	-4e-05	-0.00011	0.00012	8e-05	-0.00036	6e-05	6e-05	3e-05	5
23373	-4e-05	-0.00011	0.00012	8e-05	-0.00036	6e-05	6e-05	3e-05	5
23374	-4e-05	-0.00011	0.00012	8e-05	-0.00036	6e-05	6e-05	3e-05	5
23375	-4e-05	-0.00011	0.00012	8e-05	-0.00036	6e-05	6e-05	3e-05	5
23376	-4e-05	-0.00011	0.00012	8e-05	-0.00036	6e-05	6e-05	3e-05	5
23377	-4e-05	-0.00011	0.00012	8e-05	-0.00036	6e-05	6e-05	3e-05	5
23378	-0.0001	0	7e-05	0.00013	0.00026	9e-05	0	-1e-05	5
23379	-0.0001	0	7e-05	0.00013	0.00026	9e-05	0	-1e-05	5
23380	-0.0001	0	7e-05	0.00013	0.00026	9e-05	0	-1e-05	5
23381	-0.0001	0	7e-05	0.00013	0.00026	9e-05	0	-1e-05	5
23382	-0.0001	0	7e-05	0.00013	0.00026	9e-05	0	-1e-05	5
23383	-0.0001	0	7e-05	0.00013	0.00026	9e-05	0	-1e-05	5
23384	-1e-05	7e-05	7e-05	6e-05	2e-05	-0.0001	7e-05	-3e-05	5
23385	-1e-05	7e-05	7e-05	6e-05	2e-05	-0.0001	7e-05	-3e-05	5
23386	-1e-05	7e-05	7e-05	6e-05	2e-05	-0.0001	7e-05	-3e-05	5
23388	-1e-05	7e-05	7e-05	6e-05	2e-05	-0.0001	7e-05	-3e-05	5
23389	-1e-05	7e-05	7e-05	6e-05	2e-05	-0.0001	7e-05	-3e-05	5
23390	-1e-05	7e-05	7e-05	6e-05	2e-05	-0.0001	7e-05	-3e-05	5
23391	-1e-05	7e-05	7e-05	6e-05	2e-05	-0.0001	7e-05	-3e-05	5
23392	-1e-05	7e-05	7e-05	6e-05	2e-05	-0.0001	7e-05	-3e-05	5
23393	-1e-05	7e-05	7e-05	6e-05	2e-05	-0.0001	7e-05	-3e-05	5
23394	-1e-05	7e-05	7e-05	6e-05	2e-05	-0.0001	7e-05	-3e-05	5
23395	-1e-05	7e-05	7e-05	6e-05	2e-05	-0.0001	7e-05	-3e-05	5
23396	-1e-05	7e-05	7e-05	6e-05	2e-05	-0.0001	7e-05	-3e-05	5
23397	-1e-05	7e-05	7e-05	6e-05	2e-05	-0.0001	7e-05	-3e-05	5
23398	-1e-05	7e-05	7e-05	6e-05	2e-05	-0.0001	7e-05	-3e-05	5
23399	-1e-05	7e-05	7e-05	6e-05	2e-05	-0.0001	7e-05	-3e-05	5
23400	-0.0002	-0.00019	-0.00012	-7e-05	8e-05	-4e-05	-3e-05	-7e-05	5
23401	8e-05	3e-05	4e-05	-8e-05	-0.00026	-0.00018	-4e-05	1e-05	5
23402	8e-05	3e-05	4e-05	-8e-05	-0.00026	-0.00018	-4e-05	1e-05	5
23403	8e-05	3e-05	4e-05	-8e-05	-0.00026	-0.00018	-4e-05	1e-05	5
23404	8e-05	3e-05	4e-05	-8e-05	-0.00026	-0.00018	-4e-05	1e-05	5
23405	8e-05	3e-05	4e-05	-8e-05	-0.00026	-0.00018	-4e-05	1e-05	5
23406	8e-05	3e-05	4e-05	-8e-05	-0.00026	-0.00018	-4e-05	1e-05	5
23407	8e-05	3e-05	4e-05	-8e-05	-0.00026	-0.00018	-4e-05	1e-05	5
23408	-0.00012	6e-05	0.00011	-1e-05	4e-05	-8e-05	-6e-05	-6e-05	5
23409	-0.00012	6e-05	0.00011	-1e-05	4e-05	-8e-05	-6e-05	-6e-05	5
23410	-0.00012	6e-05	0.00011	-1e-05	4e-05	-8e-05	-6e-05	-6e-05	5
23411	-0.00012	6e-05	0.00011	-1e-05	4e-05	-8e-05	-6e-05	-6e-05	5
23412	-0.00012	6e-05	0.00011	-1e-05	4e-05	-8e-05	-6e-05	-6e-05	5
23413	-0.00012	6e-05	0.00011	-1e-05	4e-05	-8e-05	-6e-05	-6e-05	5
23414	-0.00012	6e-05	0.00011	-1e-05	4e-05	-8e-05	-6e-05	-6e-05	5
23415	8e-05	2e-05	2e-05	-3e-05	-6e-05	4e-05	-1e-05	-1e-05	5
23416	8e-05	-1e-05	4e-05	1e-05	-0.00017	-0.0001	-4e-05	-3e-05	5
23417	-9e-05	5e-05	-7e-05	-0.00011	-8e-05	2e-05	-2e-05	0	5
23418	-9e-05	5e-05	-7e-05	-0.00011	-8e-05	2e-05	-2e-05	0	5
23419	-9e-05	5e-05	-7e-05	-0.00011	-8e-05	2e-05	-2e-05	0	5
23420	-9e-05	5e-05	-7e-05	-0.00011	-8e-05	2e-05	-2e-05	0	5
23421	-9e-05	5e-05	-7e-05	-0.00011	-8e-05	2e-05	-2e-05	0	5
23422	-9e-05	5e-05	-7e-05	-0.00011	-8e-05	2e-05	-2e-05	0	5
23423	-9e-05	5e-05	-7e-05	-0.00011	-8e-05	2e-05	-2e-05	0	5
23424	-9e-05	5e-05	-7e-05	-0.00011	-8e-05	2e-05	-2e-05	0	5
23425	-9e-05	5e-05	-7e-05	-0.00011	-8e-05	2e-05	-2e-05	0	5
23426	-9e-05	5e-05	-7e-05	-0.00011	-8e-05	2e-05	-2e-05	0	5
23427	-9e-05	5e-05	-7e-05	-0.00011	-8e-05	2e-05	-2e-05	0	5
23428	-9e-05	5e-05	-7e-05	-0.00011	-8e-05	2e-05	-2e-05	0	5
23429	-9e-05	5e-05	-7e-05	-0.00011	-8e-05	2e-05	-2e-05	0	5
23430	-9e-05	5e-05	-7e-05	-0.00011	-8e-05	2e-05	-2e-05	0	5
23431	-9e-05	5e-05	-7e-05	-0.00011	-8e-05	2e-05	-2e-05	0	5
23432	-9e-05	5e-05	-7e-05	-0.00011	-8e-05	2e-05	-2e-05	0	5
23433	-9e-05	5e-05	-7e-05	-0.00011	-8e-05	2e-05	-2e-05	0	5
23434	-9e-05	5e-05	-7e-05	-0.00011	-8e-05	2e-05	-2e-05	0	5
23435	-9e-05	5e-05	-7e-05	-0.00011	-8e-05	2e-05	-2e-05	0	5
23436	-9e-05	5e-05	-7e-05	-0.00011	-8e-05	2e-05	-2e-05	0	5
23438	-9e-05	5e-05	-7e-05	-0.00011	-8e-05	2e-05	-2e-05	0	5
23439	-9e-05	5e-05	-7e-05	-0.00011	-8e-05	2e-05	-2e-05	0	5
23440	-9e-05	5e-05	-7e-05	-0.00011	-8e-05	2e-05	-2e-05	0	5
23441	-9e-05	5e-05	-7e-05	-0.00011	-8e-05	2e-05	-2e-05	0	5
23442	-9e-05	5e-05	-7e-05	-0.00011	-8e-05	2e-05	-2e-05	0	5
23443	-9e-05	5e-05	-7e-05	-0.00011	-8e-05	2e-05	-2e-05	0	5
23444	-9e-05	5e-05	-7e-05	-0.00011	-8e-05	2e-05	-2e-05	0	5
23445	-0.00011	-1e-05	6e-05	2e-05	-0.00028	-6e-05	-2e-05	-4e-05	5
23446	-0.00011	-1e-05	6e-05	2e-05	-0.00028	-6e-05	-2e-05	-4e-05	5
23447	0.0001	-1e-05	-9e-05	-0.00019	0.00027	-9e-05	-3e-05	2e-05	5
23448	0.0001	-1e-05	-9e-05	-0.00019	0.00027	-9e-05	-3e-05	2e-05	5
23449	0.0001	-1e-05	-9e-05	-0.00019	0.00027	-9e-05	-3e-05	2e-05	5
23450	0.0001	-1e-05	-9e-05	-0.00019	0.00027	-9e-05	-3e-05	2e-05	5
23451	0.0001	-1e-05	-9e-05	-0.00019	0.00027	-9e-05	-3e-05	2e-05	5
23452	-3e-05	0	-4e-05	0.00026	0.00044	9e-05	-5e-05	-3e-05	5
23453	-9e-05	-8e-05	-7e-05	-0.00026	-0.00016	6e-05	-1e-05	-2e-05	5
23454	0.00011	3e-05	2e-05	-8e-05	2e-05	0	-3e-05	3e-05	5
23455	0.00011	3e-05	2e-05	-8e-05	2e-05	0	-3e-05	3e-05	5
23456	0.00011	3e-05	2e-05	-8e-05	2e-05	0	-3e-05	3e-05	5
23457	0.00011	3e-05	2e-05	-8e-05	2e-05	0	-3e-05	3e-05	5
23458	0.00011	3e-05	2e-05	-8e-05	2e-05	0	-3e-05	3e-05	5
23460	0.00011	3e-05	2e-05	-8e-05	2e-05	0	-3e-05	3e-05	5
23461	0.00011	3e-05	2e-05	-8e-05	2e-05	0	-3e-05	3e-05	5
23462	0.00011	3e-05	2e-05	-8e-05	2e-05	0	-3e-05	3e-05	5
23463	0.00011	3e-05	2e-05	-8e-05	2e-05	0	-3e-05	3e-05	5
23464	0.00011	3e-05	2e-05	-8e-05	2e-05	0	-3e-05	3e-05	5
23465	0.00011	3e-05	2e-05	-8e-05	2e-05	0	-3e-05	3e-05	5
23466	0.00011	3e-05	2e-05	-8e-05	2e-05	0	-3e-05	3e-05	5
23467	0.00011	3e-05	2e-05	-8e-05	2e-05	0	-3e-05	3e-05	5
23468	0.00011	3e-05	2e-05	-8e-05	2e-05	0	-3e-05	3e-05	5
23469	0.00011	3e-05	2e-05	-8e-05	2e-05	0	-3e-05	3e-05	5
23470	0.00011	3e-05	2e-05	-8e-05	2e-05	0	-3e-05	3e-05	5
23471	0.00011	3e-05	2e-05	-8e-05	2e-05	0	-3e-05	3e-05	5
23472	0.00011	3e-05	2e-05	-8e-05	2e-05	0	-3e-05	3e-05	5
23473	0.00011	3e-05	2e-05	-8e-05	2e-05	0	-3e-05	3e-05	5
23474	0.00011	3e-05	2e-05	-8e-05	2e-05	0	-3e-05	3e-05	5
23475	0.00011	3e-05	2e-05	-8e-05	2e-05	0	-3e-05	3e-05	5
23476	0.00011	3e-05	2e-05	-8e-05	2e-05	0	-3e-05	3e-05	5
23477	0.00011	3e-05	2e-05	-8e-05	2e-05	0	-3e-05	3e-05	5
23478	0.00011	3e-05	2e-05	-8e-05	2e-05	0	-3e-05	3e-05	5
23479	0.00011	3e-05	2e-05	-8e-05	2e-05	0	-3e-05	3e-05	5
23480	0.00011	3e-05	2e-05	-8e-05	2e-05	0	-3e-05	3e-05	5
23481	0.00011	3e-05	2e-05	-8e-05	2e-05	0	-3e-05	3e-05	5
23482	0.00011	3e-05	2e-05	-8e-05	2e-05	0	-3e-05	3e-05	5
23483	0.00021	0.00019	1e-05	-2e-05	-0.00031	-4e-05	0	-1e-05	5
23484	0.00017	-4e-05	-6e-05	0	0.00015	0.00014	1e-05	-2e-05	5
23485	0.00017	-4e-05	-6e-05	0	0.00015	0.00014	1e-05	-2e-05	5
23486	0.00017	-4e-05	-6e-05	0	0.00015	0.00014	1e-05	-2e-05	5
23488	0.00017	-4e-05	-6e-05	0	0.00015	0.00014	1e-05	-2e-05	5
23489	0.00017	-4e-05	-6e-05	0	0.00015	0.00014	1e-05	-2e-05	5
23490	0.00017	-4e-05	-6e-05	0	0.00015	0.00014	1e-05	-2e-05	5
23491	0.00017	-4e-05	-6e-05	0	0.00015	0.00014	1e-05	-2e-05	5
23492	0.00017	-4e-05	-6e-05	0	0.00015	0.00014	1e-05	-2e-05	5
23493	0.00017	-4e-05	-6e-05	0	0.00015	0.00014	1e-05	-2e-05	5
23494	0.00017	-4e-05	-6e-05	0	0.00015	0.00014	1e-05	-2e-05	5
23495	0.00017	-4e-05	-6e-05	0	0.00015	0.00014	1e-05	-2e-05	5
23496	0.00017	-4e-05	-6e-05	0	0.00015	0.00014	1e-05	-2e-05	5
23497	0.00017	-4e-05	-6e-05	0	0.00015	0.00014	1e-05	-2e-05	5
23498	0.00017	-4e-05	-6e-05	0	0.00015	0.00014	1e-05	-2e-05	5
23499	0.00017	-4e-05	-6e-05	0	0.00015	0.00014	1e-05	-2e-05	5
23500	0.00017	-4e-05	-6e-05	0	0.00015	0.00014	1e-05	-2e-05	5
23501	0.00017	-4e-05	-6e-05	0	0.00015	0.00014	1e-05	-2e-05	5
23502	0.00017	-4e-05	-6e-05	0	0.00015	0.00014	1e-05	-2e-05	5
23503	0.00017	-4e-05	-6e-05	0	0.00015	0.00014	1e-05	-2e-05	5
23504	0.00017	-4e-05	-6e-05	0	0.00015	0.00014	1e-05	-2e-05	5
23505	-8e-05	-8e-05	-2e-05	-3e-05	-8e-05	0.00014	2e-05	7e-05	5
23506	-8e-05	-8e-05	-2e-05	-3e-05	-8e-05	0.00014	2e-05	7e-05	5
23508	0.00033	4e-05	3e-05	9e-05	0.00054	4e-05	-1e-05	0.00012	5
23509	0.00033	4e-05	3e-05	9e-05	0.00054	4e-05	-1e-05	0.00012	5
23510	0.00033	4e-05	3e-05	9e-05	0.00054	4e-05	-1e-05	0.00012	5
23511	0.00033	4e-05	3e-05	9e-05	0.00054	4e-05	-1e-05	0.00012	5
23512	0.00033	4e-05	3e-05	9e-05	0.00054	4e-05	-1e-05	0.00012	5
23513	0.00033	4e-05	3e-05	9e-05	0.00054	4e-05	-1e-05	0.00012	5
23514	0.00033	4e-05	3e-05	9e-05	0.00054	4e-05	-1e-05	0.00012	5
23515	0.00033	4e-05	3e-05	9e-05	0.00054	4e-05	-1e-05	0.00012	5
23516	0.00033	4e-05	3e-05	9e-05	0.00054	4e-05	-1e-05	0.00012	5
23517	0.00033	4e-05	3e-05	9e-05	0.00054	4e-05	-1e-05	0.00012	5
23518	0.00033	4e-05	3e-05	9e-05	0.00054	4e-05	-1e-05	0.00012	5
23519	0.00033	4e-05	3e-05	9e-05	0.00054	4e-05	-1e-05	0.00012	5
23520	-6e-05	-2e-05	-6e-05	-6e-05	0	-0.0001	-4e-05	1e-05	5
23521	-6e-05	-2e-05	-6e-05	-6e-05	0	-0.0001	-4e-05	1e-05	5
23522	-0.00013	2e-05	3e-05	0.00016	0.00017	-1e-05	4e-05	-2e-05	5
23523	-0.00013	2e-05	3e-05	0.00016	0.00017	-1e-05	4e-05	-2e-05	5
23524	-0.00013	2e-05	3e-05	0.00016	0.00017	-1e-05	4e-05	-2e-05	5
23525	-0.00013	2e-05	3e-05	0.00016	0.00017	-1e-05	4e-05	-2e-05	5
23526	-0.00013	2e-05	3e-05	0.00016	0.00017	-1e-05	4e-05	-2e-05	5
23527	-0.00013	2e-05	3e-05	0.00016	0.00017	-1e-05	4e-05	-2e-05	5
23528	-0.00013	2e-05	3e-05	0.00016	0.00017	-1e-05	4e-05	-2e-05	5
23529	-0.00013	2e-05	3e-05	0.00016	0.00017	-1e-05	4e-05	-2e-05	5
23530	-0.00013	2e-05	3e-05	0.00016	0.00017	-1e-05	4e-05	-2e-05	5
23531	-0.00013	2e-05	3e-05	0.00016	0.00017	-1e-05	4e-05	-2e-05	5
23532	-0.00013	2e-05	3e-05	0.00016	0.00017	-1e-05	4e-05	-2e-05	5
23533	-0.00013	2e-05	3e-05	0.00016	0.00017	-1e-05	4e-05	-2e-05	5
23534	-0.00013	2e-05	3e-05	0.00016	0.00017	-1e-05	4e-05	-2e-05	5
23535	0	-0.00016	-0.00023	-0.00017	0.00042	9e-05	2e-05	-2e-05	5
23536	0	-0.00016	-0.00023	-0.00017	0.00042	9e-05	2e-05	-2e-05	5
23538	-8e-05	-1e-05	3e-05	-7e-05	0.00014	0.00019	2e-05	-5e-05	5
23539	-8e-05	-1e-05	3e-05	-7e-05	0.00014	0.00019	2e-05	-5e-05	5
23540	-8e-05	-1e-05	3e-05	-7e-05	0.00014	0.00019	2e-05	-5e-05	5
23541	-8e-05	-1e-05	3e-05	-7e-05	0.00014	0.00019	2e-05	-5e-05	5
23542	-8e-05	-1e-05	3e-05	-7e-05	0.00014	0.00019	2e-05	-5e-05	5
23543	-8e-05	-1e-05	3e-05	-7e-05	0.00014	0.00019	2e-05	-5e-05	5
23544	-8e-05	-1e-05	3e-05	-7e-05	0.00014	0.00019	2e-05	-5e-05	5
23545	-8e-05	-1e-05	3e-05	-7e-05	0.00014	0.00019	2e-05	-5e-05	5
23546	-8e-05	-1e-05	3e-05	-7e-05	0.00014	0.00019	2e-05	-5e-05	5
23547	-8e-05	-1e-05	3e-05	-7e-05	0.00014	0.00019	2e-05	-5e-05	5
23548	-8e-05	-1e-05	3e-05	-7e-05	0.00014	0.00019	2e-05	-5e-05	5
23549	-8e-05	-1e-05	3e-05	-7e-05	0.00014	0.00019	2e-05	-5e-05	5
23550	-8e-05	-1e-05	3e-05	-7e-05	0.00014	0.00019	2e-05	-5e-05	5
23551	-8e-05	-1e-05	3e-05	-7e-05	0.00014	0.00019	2e-05	-5e-05	5
23552	-8e-05	-1e-05	3e-05	-7e-05	0.00014	0.00019	2e-05	-5e-05	5
23553	-8e-05	-1e-05	3e-05	-7e-05	0.00014	0.00019	2e-05	-5e-05	5
23554	-8e-05	-1e-05	3e-05	-7e-05	0.00014	0.00019	2e-05	-5e-05	5
23555	-8e-05	-1e-05	3e-05	-7e-05	0.00014	0.00019	2e-05	-5e-05	5
23556	-8e-05	-1e-05	3e-05	-7e-05	0.00014	0.00019	2e-05	-5e-05	5
23557	-8e-05	-1e-05	3e-05	-7e-05	0.00014	0.00019	2e-05	-5e-05	5
23558	-0.00016	-0.00013	-7e-05	6e-05	-0.00055	-9e-05	-5e-05	-6e-05	5
23559	-0.00016	-0.00013	-7e-05	6e-05	-0.00055	-9e-05	-5e-05	-6e-05	5
23560	-0.00016	-0.00013	-7e-05	6e-05	-0.00055	-9e-05	-5e-05	-6e-05	5
23561	-0.00016	-0.00013	-7e-05	6e-05	-0.00055	-9e-05	-5e-05	-6e-05	5
23562	-0.00016	-0.00013	-7e-05	6e-05	-0.00055	-9e-05	-5e-05	-6e-05	5
23563	-0.00016	-0.00013	-7e-05	6e-05	-0.00055	-9e-05	-5e-05	-6e-05	5
23564	-0.00016	-0.00013	-7e-05	6e-05	-0.00055	-9e-05	-5e-05	-6e-05	5
23565	-6e-05	-3e-05	-7e-05	-6e-05	-0.00036	5e-05	-1e-05	1e-05	5
23566	-6e-05	-3e-05	-7e-05	-6e-05	-0.00036	5e-05	-1e-05	1e-05	5
23567	-6e-05	-3e-05	-7e-05	-6e-05	-0.00036	5e-05	-1e-05	1e-05	5
23568	-6e-05	-3e-05	-7e-05	-6e-05	-0.00036	5e-05	-1e-05	1e-05	5
23569	-6e-05	-3e-05	-7e-05	-6e-05	-0.00036	5e-05	-1e-05	1e-05	5
23570	-6e-05	-3e-05	-7e-05	-6e-05	-0.00036	5e-05	-1e-05	1e-05	5
23571	-6e-05	-3e-05	-7e-05	-6e-05	-0.00036	5e-05	-1e-05	1e-05	5
23572	-0.00012	-0.00012	-6e-05	5e-05	5e-05	-0.00011	-5e-05	-6e-05	5
23573	-0.00012	-0.00012	-6e-05	5e-05	5e-05	-0.00011	-5e-05	-6e-05	5
23574	-0.00012	-0.00012	-6e-05	5e-05	5e-05	-0.00011	-5e-05	-6e-05	5
23575	-0.00012	-0.00012	-6e-05	5e-05	5e-05	-0.00011	-5e-05	-6e-05	5
23576	-0.00012	-0.00012	-6e-05	5e-05	5e-05	-0.00011	-5e-05	-6e-05	5
23577	-0.00012	-0.00012	-6e-05	5e-05	5e-05	-0.00011	-5e-05	-6e-05	5
23578	-0.00012	-0.00012	-6e-05	5e-05	5e-05	-0.00011	-5e-05	-6e-05	5
23579	0.00015	-1e-05	2e-05	2e-05	-0.00013	0	-3e-05	1e-05	5
23580	0.00015	-1e-05	2e-05	2e-05	-0.00013	0	-3e-05	1e-05	5
23581	0.00015	-1e-05	2e-05	2e-05	-0.00013	0	-3e-05	1e-05	5
23582	0.00015	-1e-05	2e-05	2e-05	-0.00013	0	-3e-05	1e-05	5
23583	0.00015	-1e-05	2e-05	2e-05	-0.00013	0	-3e-05	1e-05	5
23584	0.00015	-1e-05	2e-05	2e-05	-0.00013	0	-3e-05	1e-05	5
23585	0.00015	-1e-05	2e-05	2e-05	-0.00013	0	-3e-05	1e-05	5
23586	0.00015	-1e-05	2e-05	2e-05	-0.00013	0	-3e-05	1e-05	5
23588	0.00015	-1e-05	2e-05	2e-05	-0.00013	0	-3e-05	1e-05	5
23589	0.00015	-1e-05	2e-05	2e-05	-0.00013	0	-3e-05	1e-05	5
23590	0.00015	-1e-05	2e-05	2e-05	-0.00013	0	-3e-05	1e-05	5
23591	0.00015	-1e-05	2e-05	2e-05	-0.00013	0	-3e-05	1e-05	5
23592	0.00015	-1e-05	2e-05	2e-05	-0.00013	0	-3e-05	1e-05	5
23593	0.00015	-1e-05	2e-05	2e-05	-0.00013	0	-3e-05	1e-05	5
23594	0.00015	-1e-05	2e-05	2e-05	-0.00013	0	-3e-05	1e-05	5
23595	-8e-05	3e-05	3e-05	3e-05	-4e-05	-3e-05	0	-6e-05	5
23596	-8e-05	3e-05	3e-05	3e-05	-4e-05	-3e-05	0	-6e-05	5
23597	-0.00022	2e-05	-3e-05	5e-05	0.00013	-0.00012	-3e-05	-5e-05	5
23598	-0.00022	2e-05	-3e-05	5e-05	0.00013	-0.00012	-3e-05	-5e-05	5
23599	-0.00022	2e-05	-3e-05	5e-05	0.00013	-0.00012	-3e-05	-5e-05	5
23601	-0.00022	2e-05	-3e-05	5e-05	0.00013	-0.00012	-3e-05	-5e-05	5
23602	-0.00022	2e-05	-3e-05	5e-05	0.00013	-0.00012	-3e-05	-5e-05	5
23603	-0.00022	2e-05	-3e-05	5e-05	0.00013	-0.00012	-3e-05	-5e-05	5
23604	-0.00022	2e-05	-3e-05	5e-05	0.00013	-0.00012	-3e-05	-5e-05	5
23605	-0.00022	2e-05	-3e-05	5e-05	0.00013	-0.00012	-3e-05	-5e-05	5
23606	-0.00022	2e-05	-3e-05	5e-05	0.00013	-0.00012	-3e-05	-5e-05	5
23607	-0.00022	2e-05	-3e-05	5e-05	0.00013	-0.00012	-3e-05	-5e-05	5
23608	-0.00022	2e-05	-3e-05	5e-05	0.00013	-0.00012	-3e-05	-5e-05	5
23609	-0.00022	2e-05	-3e-05	5e-05	0.00013	-0.00012	-3e-05	-5e-05	5
23610	-0.00022	2e-05	-3e-05	5e-05	0.00013	-0.00012	-3e-05	-5e-05	5
23611	-0.00022	2e-05	-3e-05	5e-05	0.00013	-0.00012	-3e-05	-5e-05	5
23612	-0.00022	2e-05	-3e-05	5e-05	0.00013	-0.00012	-3e-05	-5e-05	5
23613	-0.00022	2e-05	-3e-05	5e-05	0.00013	-0.00012	-3e-05	-5e-05	5
23614	-0.00022	2e-05	-3e-05	5e-05	0.00013	-0.00012	-3e-05	-5e-05	5
23615	-0.00022	2e-05	-3e-05	5e-05	0.00013	-0.00012	-3e-05	-5e-05	5
23616	-0.00022	2e-05	-3e-05	5e-05	0.00013	-0.00012	-3e-05	-5e-05	5
23617	-0.00022	2e-05	-3e-05	5e-05	0.00013	-0.00012	-3e-05	-5e-05	5
23618	-0.00022	2e-05	-3e-05	5e-05	0.00013	-0.00012	-3e-05	-5e-05	5
23619	-0.00022	2e-05	-3e-05	5e-05	0.00013	-0.00012	-3e-05	-5e-05	5
23620	-0.00022	2e-05	-3e-05	5e-05	0.00013	-0.00012	-3e-05	-5e-05	5
23621	-0.00022	2e-05	-3e-05	5e-05	0.00013	-0.00012	-3e-05	-5e-05	5
23622	-0.00022	2e-05	-3e-05	5e-05	0.00013	-0.00012	-3e-05	-5e-05	5
23623	-0.00022	2e-05	-3e-05	5e-05	0.00013	-0.00012	-3e-05	-5e-05	5
23624	-0.00022	2e-05	-3e-05	5e-05	0.00013	-0.00012	-3e-05	-5e-05	5
23625	-4e-05	-6e-05	9e-05	0.00019	0.00047	-7e-05	4e-05	3e-05	5
23626	3e-05	6e-05	-0.0001	-0.00021	-0.00031	-3e-05	0	1e-05	5
23627	8e-05	1e-05	1e-05	-9e-05	-0.00039	-0.00014	-1e-05	-3e-05	5
23628	8e-05	1e-05	1e-05	-9e-05	-0.00039	-0.00014	-1e-05	-3e-05	5
23629	8e-05	1e-05	1e-05	-9e-05	-0.00039	-0.00014	-1e-05	-3e-05	5
23630	8e-05	1e-05	1e-05	-9e-05	-0.00039	-0.00014	-1e-05	-3e-05	5
23631	8e-05	1e-05	1e-05	-9e-05	-0.00039	-0.00014	-1e-05	-3e-05	5
23632	8e-05	1e-05	1e-05	-9e-05	-0.00039	-0.00014	-1e-05	-3e-05	5
23633	8e-05	1e-05	1e-05	-9e-05	-0.00039	-0.00014	-1e-05	-3e-05	5
23634	8e-05	1e-05	1e-05	-9e-05	-0.00039	-0.00014	-1e-05	-3e-05	5
23635	8e-05	1e-05	1e-05	-9e-05	-0.00039	-0.00014	-1e-05	-3e-05	5
23636	8e-05	1e-05	1e-05	-9e-05	-0.00039	-0.00014	-1e-05	-3e-05	5
23638	8e-05	1e-05	1e-05	-9e-05	-0.00039	-0.00014	-1e-05	-3e-05	5
23639	8e-05	1e-05	1e-05	-9e-05	-0.00039	-0.00014	-1e-05	-3e-05	5
23640	6e-05	8e-05	0.00012	0.00017	0.00039	0	-3e-05	0	5
23641	6e-05	8e-05	0.00012	0.00017	0.00039	0	-3e-05	0	5
23642	1e-05	1e-05	1e-05	7e-05	-0.00037	-5e-05	5e-05	2e-05	5
23643	1e-05	1e-05	1e-05	7e-05	-0.00037	-5e-05	5e-05	2e-05	5
23644	1e-05	1e-05	1e-05	7e-05	-0.00037	-5e-05	5e-05	2e-05	5
23645	1e-05	1e-05	1e-05	7e-05	-0.00037	-5e-05	5e-05	2e-05	5
23646	1e-05	1e-05	1e-05	7e-05	-0.00037	-5e-05	5e-05	2e-05	5
23647	1e-05	1e-05	1e-05	7e-05	-0.00037	-5e-05	5e-05	2e-05	5
23648	1e-05	1e-05	1e-05	7e-05	-0.00037	-5e-05	5e-05	2e-05	5
23649	1e-05	1e-05	1e-05	7e-05	-0.00037	-5e-05	5e-05	2e-05	5
23650	1e-05	1e-05	1e-05	7e-05	-0.00037	-5e-05	5e-05	2e-05	5
23651	1e-05	1e-05	1e-05	7e-05	-0.00037	-5e-05	5e-05	2e-05	5
23652	1e-05	1e-05	1e-05	7e-05	-0.00037	-5e-05	5e-05	2e-05	5
23653	1e-05	1e-05	1e-05	7e-05	-0.00037	-5e-05	5e-05	2e-05	5
23654	1e-05	1e-05	1e-05	7e-05	-0.00037	-5e-05	5e-05	2e-05	5
23655	-0.00013	-8e-05	1e-05	-4e-05	-5e-05	-2e-05	-3e-05	-5e-05	5
23656	-0.00013	-8e-05	1e-05	-4e-05	-5e-05	-2e-05	-3e-05	-5e-05	5
23657	-4e-05	6e-05	-4e-05	-0.00017	-0.00035	-2e-05	-6e-05	-3e-05	5
23658	-4e-05	6e-05	-4e-05	-0.00017	-0.00035	-2e-05	-6e-05	-3e-05	5
23659	-4e-05	6e-05	-4e-05	-0.00017	-0.00035	-2e-05	-6e-05	-3e-05	5
23660	-4e-05	6e-05	-4e-05	-0.00017	-0.00035	-2e-05	-6e-05	-3e-05	5
23661	-4e-05	6e-05	-4e-05	-0.00017	-0.00035	-2e-05	-6e-05	-3e-05	5
23662	-4e-05	6e-05	-4e-05	-0.00017	-0.00035	-2e-05	-6e-05	-3e-05	5
23663	-4e-05	6e-05	-4e-05	-0.00017	-0.00035	-2e-05	-6e-05	-3e-05	5
23664	-4e-05	6e-05	-4e-05	-0.00017	-0.00035	-2e-05	-6e-05	-3e-05	5
23665	-4e-05	6e-05	-4e-05	-0.00017	-0.00035	-2e-05	-6e-05	-3e-05	5
23666	-4e-05	6e-05	-4e-05	-0.00017	-0.00035	-2e-05	-6e-05	-3e-05	5
23667	-4e-05	6e-05	-4e-05	-0.00017	-0.00035	-2e-05	-6e-05	-3e-05	5
23668	-4e-05	6e-05	-4e-05	-0.00017	-0.00035	-2e-05	-6e-05	-3e-05	5
23669	-4e-05	6e-05	-4e-05	-0.00017	-0.00035	-2e-05	-6e-05	-3e-05	5
23670	-4e-05	6e-05	-4e-05	-0.00017	-0.00035	-2e-05	-6e-05	-3e-05	5
23671	-4e-05	6e-05	-4e-05	-0.00017	-0.00035	-2e-05	-6e-05	-3e-05	5
23672	-4e-05	6e-05	-4e-05	-0.00017	-0.00035	-2e-05	-6e-05	-3e-05	5
23673	-4e-05	6e-05	-4e-05	-0.00017	-0.00035	-2e-05	-6e-05	-3e-05	5
23674	-4e-05	6e-05	-4e-05	-0.00017	-0.00035	-2e-05	-6e-05	-3e-05	5
23675	-4e-05	6e-05	-4e-05	-0.00017	-0.00035	-2e-05	-6e-05	-3e-05	5
23676	-4e-05	6e-05	-4e-05	-0.00017	-0.00035	-2e-05	-6e-05	-3e-05	5
23677	-4e-05	6e-05	-4e-05	-0.00017	-0.00035	-2e-05	-6e-05	-3e-05	5
23678	-4e-05	6e-05	-4e-05	-0.00017	-0.00035	-2e-05	-6e-05	-3e-05	5
23679	4e-05	-0.00012	-6e-05	-1e-05	-0.00021	0	-1e-05	-3e-05	5
23680	4e-05	-0.00012	-6e-05	-1e-05	-0.00021	0	-1e-05	-3e-05	5
23681	4e-05	-0.00012	-6e-05	-1e-05	-0.00021	0	-1e-05	-3e-05	5
23682	4e-05	-0.00012	-6e-05	-1e-05	-0.00021	0	-1e-05	-3e-05	5
23683	4e-05	-0.00012	-6e-05	-1e-05	-0.00021	0	-1e-05	-3e-05	5
23684	-0.00041	-0.00028	1e-05	5e-05	0	-9e-05	-4e-05	-8e-05	5
23685	-0.00041	-0.00028	1e-05	5e-05	0	-9e-05	-4e-05	-8e-05	5
23686	-0.00041	-0.00028	1e-05	5e-05	0	-9e-05	-4e-05	-8e-05	5
23688	-0.00041	-0.00028	1e-05	5e-05	0	-9e-05	-4e-05	-8e-05	5
23689	-0.00041	-0.00028	1e-05	5e-05	0	-9e-05	-4e-05	-8e-05	5
23690	-0.00041	-0.00028	1e-05	5e-05	0	-9e-05	-4e-05	-8e-05	5
23691	-0.00041	-0.00028	1e-05	5e-05	0	-9e-05	-4e-05	-8e-05	5
23692	0	0.00018	-5e-05	-0.00017	-0.00037	-0.0005	0	0	5
23693	0	0.00018	-5e-05	-0.00017	-0.00037	-0.0005	0	0	5
23694	0	0.00018	-5e-05	-0.00017	-0.00037	-0.0005	0	0	5
23695	0	0.00018	-5e-05	-0.00017	-0.00037	-0.0005	0	0	5
23696	0	0.00018	-5e-05	-0.00017	-0.00037	-0.0005	0	0	5
23697	0	0.00018	-5e-05	-0.00017	-0.00037	-0.0005	0	0	5
23698	0	0.00018	-5e-05	-0.00017	-0.00037	-0.0005	0	0	5
23699	1e-05	4e-05	-8e-05	1e-05	0.00019	0.00025	2e-05	-1e-05	5
23700	1e-05	4e-05	-8e-05	1e-05	0.00019	0.00025	2e-05	-1e-05	5
23701	1e-05	4e-05	-8e-05	1e-05	0.00019	0.00025	2e-05	-1e-05	5
23702	1e-05	4e-05	-8e-05	1e-05	0.00019	0.00025	2e-05	-1e-05	5
23703	1e-05	4e-05	-8e-05	1e-05	0.00019	0.00025	2e-05	-1e-05	5
23704	1e-05	4e-05	-8e-05	1e-05	0.00019	0.00025	2e-05	-1e-05	5
23705	1e-05	4e-05	-8e-05	1e-05	0.00019	0.00025	2e-05	-1e-05	5
23706	1e-05	4e-05	-8e-05	1e-05	0.00019	0.00025	2e-05	-1e-05	5
23707	1e-05	4e-05	-8e-05	1e-05	0.00019	0.00025	2e-05	-1e-05	5
23708	1e-05	4e-05	-8e-05	1e-05	0.00019	0.00025	2e-05	-1e-05	5
23709	1e-05	4e-05	-8e-05	1e-05	0.00019	0.00025	2e-05	-1e-05	5
23710	1e-05	4e-05	-8e-05	1e-05	0.00019	0.00025	2e-05	-1e-05	5
23711	1e-05	4e-05	-8e-05	1e-05	0.00019	0.00025	2e-05	-1e-05	5
23712	1e-05	4e-05	-8e-05	1e-05	0.00019	0.00025	2e-05	-1e-05	5
23713	1e-05	4e-05	-8e-05	1e-05	0.00019	0.00025	2e-05	-1e-05	5
23714	-4e-05	-6e-05	2e-05	0.00013	0.00012	7e-05	-3e-05	-3e-05	5
23715	-4e-05	-6e-05	2e-05	0.00013	0.00012	7e-05	-3e-05	-3e-05	5
23716	-4e-05	-6e-05	2e-05	0.00013	0.00012	7e-05	-3e-05	-3e-05	5
23717	-4e-05	-6e-05	2e-05	0.00013	0.00012	7e-05	-3e-05	-3e-05	5
23718	-4e-05	-6e-05	2e-05	0.00013	0.00012	7e-05	-3e-05	-3e-05	5
23719	-4e-05	-6e-05	2e-05	0.00013	0.00012	7e-05	-3e-05	-3e-05	5
23720	-4e-05	-6e-05	2e-05	0.00013	0.00012	7e-05	-3e-05	-3e-05	5
23721	-4e-05	-6e-05	2e-05	0.00013	0.00012	7e-05	-3e-05	-3e-05	5
23722	-4e-05	-6e-05	2e-05	0.00013	0.00012	7e-05	-3e-05	-3e-05	5
23723	6e-05	3e-05	1e-05	5e-05	0.00063	-6e-05	2e-05	3e-05	5
23724	6e-05	3e-05	1e-05	5e-05	0.00063	-6e-05	2e-05	3e-05	5
23725	6e-05	3e-05	1e-05	5e-05	0.00063	-6e-05	2e-05	3e-05	5
23726	6e-05	3e-05	1e-05	5e-05	0.00063	-6e-05	2e-05	3e-05	5
23727	6e-05	3e-05	1e-05	5e-05	0.00063	-6e-05	2e-05	3e-05	5
23728	6e-05	3e-05	1e-05	5e-05	0.00063	-6e-05	2e-05	3e-05	5
23729	6e-05	3e-05	1e-05	5e-05	0.00063	-6e-05	2e-05	3e-05	5
23730	6e-05	3e-05	1e-05	5e-05	0.00063	-6e-05	2e-05	3e-05	5
23731	6e-05	3e-05	1e-05	5e-05	0.00063	-6e-05	2e-05	3e-05	5
23732	6e-05	3e-05	1e-05	5e-05	0.00063	-6e-05	2e-05	3e-05	5
23733	6e-05	3e-05	1e-05	5e-05	0.00063	-6e-05	2e-05	3e-05	5
23734	6e-05	3e-05	1e-05	5e-05	0.00063	-6e-05	2e-05	3e-05	5
23735	6e-05	3e-05	1e-05	5e-05	0.00063	-6e-05	2e-05	3e-05	5
23736	6e-05	3e-05	1e-05	5e-05	0.00063	-6e-05	2e-05	3e-05	5
23738	9e-05	-2e-05	-5e-05	-0.0002	-0.00045	6e-05	0	3e-05	5
23739	9e-05	-2e-05	-5e-05	-0.0002	-0.00045	6e-05	0	3e-05	5
23740	8e-05	5e-05	1e-05	-2e-05	-6e-05	0	-3e-05	0	5
23741	8e-05	5e-05	1e-05	-2e-05	-6e-05	0	-3e-05	0	5
23742	8e-05	5e-05	1e-05	-2e-05	-6e-05	0	-3e-05	0	5
23743	8e-05	5e-05	1e-05	-2e-05	-6e-05	0	-3e-05	0	5
23744	8e-05	5e-05	1e-05	-2e-05	-6e-05	0	-3e-05	0	5
23745	8e-05	5e-05	1e-05	-2e-05	-6e-05	0	-3e-05	0	5
23746	8e-05	5e-05	1e-05	-2e-05	-6e-05	0	-3e-05	0	5
23747	8e-05	5e-05	1e-05	-2e-05	-6e-05	0	-3e-05	0	5
23748	8e-05	5e-05	1e-05	-2e-05	-6e-05	0	-3e-05	0	5
23749	8e-05	5e-05	1e-05	-2e-05	-6e-05	0	-3e-05	0	5
23750	8e-05	5e-05	1e-05	-2e-05	-6e-05	0	-3e-05	0	5
23751	8e-05	5e-05	1e-05	-2e-05	-6e-05	0	-3e-05	0	5
23753	-2e-05	8e-05	7e-05	0	-0.00014	-4e-05	0	-4e-05	5
23754	0.00012	1e-05	0	1e-05	0.00017	0.00011	2e-05	5e-05	5
23755	0.00012	1e-05	0	1e-05	0.00017	0.00011	2e-05	5e-05	5
23756	0.00012	1e-05	0	1e-05	0.00017	0.00011	2e-05	5e-05	5
23757	0.00012	1e-05	0	1e-05	0.00017	0.00011	2e-05	5e-05	5
23758	0.00012	1e-05	0	1e-05	0.00017	0.00011	2e-05	5e-05	5
23759	0.00012	1e-05	0	1e-05	0.00017	0.00011	2e-05	5e-05	5
23760	-0.00011	-6e-05	-2e-05	-5e-05	-2e-05	-6e-05	-4e-05	-1e-05	5
23761	-0.00011	-6e-05	-2e-05	-5e-05	-2e-05	-6e-05	-4e-05	-1e-05	5
23762	-0.00011	-6e-05	-2e-05	-5e-05	-2e-05	-6e-05	-4e-05	-1e-05	5
23763	-0.00011	-6e-05	-2e-05	-5e-05	-2e-05	-6e-05	-4e-05	-1e-05	5
23764	-0.00011	-6e-05	-2e-05	-5e-05	-2e-05	-6e-05	-4e-05	-1e-05	5
23765	-0.00011	-6e-05	-2e-05	-5e-05	-2e-05	-6e-05	-4e-05	-1e-05	5
23766	-0.00011	-6e-05	-2e-05	-5e-05	-2e-05	-6e-05	-4e-05	-1e-05	5
23767	-0.00011	-6e-05	-2e-05	-5e-05	-2e-05	-6e-05	-4e-05	-1e-05	5
23768	-0.00011	-6e-05	-2e-05	-5e-05	-2e-05	-6e-05	-4e-05	-1e-05	5
23769	-0.00011	-6e-05	-2e-05	-5e-05	-2e-05	-6e-05	-4e-05	-1e-05	5
23770	-0.00011	-6e-05	-2e-05	-5e-05	-2e-05	-6e-05	-4e-05	-1e-05	5
23771	-0.00011	-6e-05	-2e-05	-5e-05	-2e-05	-6e-05	-4e-05	-1e-05	5
23772	-0.00011	-6e-05	-2e-05	-5e-05	-2e-05	-6e-05	-4e-05	-1e-05	5
23773	-0.00011	-6e-05	-2e-05	-5e-05	-2e-05	-6e-05	-4e-05	-1e-05	5
23774	-0.00011	-6e-05	-2e-05	-5e-05	-2e-05	-6e-05	-4e-05	-1e-05	5
23775	-0.00011	-6e-05	-2e-05	-5e-05	-2e-05	-6e-05	-4e-05	-1e-05	5
23776	1e-05	0.0001	8e-05	6e-05	0.00061	6e-05	3e-05	2e-05	5
23777	1e-05	0.0001	8e-05	6e-05	0.00061	6e-05	3e-05	2e-05	5
23778	0.00021	2e-05	-0.00011	-0.0001	-0.00033	0	1e-05	0	5
23779	0.00021	2e-05	-0.00011	-0.0001	-0.00033	0	1e-05	0	5
23780	0.00021	2e-05	-0.00011	-0.0001	-0.00033	0	1e-05	0	5
23781	0.00021	2e-05	-0.00011	-0.0001	-0.00033	0	1e-05	0	5
23782	0.00021	2e-05	-0.00011	-0.0001	-0.00033	0	1e-05	0	5
23783	0.00021	2e-05	-0.00011	-0.0001	-0.00033	0	1e-05	0	5
23784	0.00021	2e-05	-0.00011	-0.0001	-0.00033	0	1e-05	0	5
23785	0.00021	2e-05	-0.00011	-0.0001	-0.00033	0	1e-05	0	5
23786	0.00021	2e-05	-0.00011	-0.0001	-0.00033	0	1e-05	0	5
23788	0.00021	2e-05	-0.00011	-0.0001	-0.00033	0	1e-05	0	5
23789	0.00021	2e-05	-0.00011	-0.0001	-0.00033	0	1e-05	0	5
23790	0.00021	2e-05	-0.00011	-0.0001	-0.00033	0	1e-05	0	5
23791	0.00021	2e-05	-0.00011	-0.0001	-0.00033	0	1e-05	0	5
23792	0.00021	2e-05	-0.00011	-0.0001	-0.00033	0	1e-05	0	5
23793	0.00021	2e-05	-0.00011	-0.0001	-0.00033	0	1e-05	0	5
23794	0.00021	2e-05	-0.00011	-0.0001	-0.00033	0	1e-05	0	5
23795	0.00021	2e-05	-0.00011	-0.0001	-0.00033	0	1e-05	0	5
23796	0.00021	2e-05	-0.00011	-0.0001	-0.00033	0	1e-05	0	5
23797	0.00021	2e-05	-0.00011	-0.0001	-0.00033	0	1e-05	0	5
23798	0.00021	2e-05	-0.00011	-0.0001	-0.00033	0	1e-05	0	5
23799	2e-05	2e-05	0	-1e-05	-0.00038	0.00025	3e-05	2e-05	5
23800	2e-05	2e-05	0	-1e-05	-0.00038	0.00025	3e-05	2e-05	5
23801	-4e-05	-7e-05	-3e-05	-3e-05	-0.00015	-0.00033	3e-05	1e-05	5
23802	-4e-05	-7e-05	-3e-05	-3e-05	-0.00015	-0.00033	3e-05	1e-05	5
23803	-4e-05	-7e-05	-3e-05	-3e-05	-0.00015	-0.00033	3e-05	1e-05	5
23804	-4e-05	-7e-05	-3e-05	-3e-05	-0.00015	-0.00033	3e-05	1e-05	5
23805	-4e-05	-7e-05	-3e-05	-3e-05	-0.00015	-0.00033	3e-05	1e-05	5
23806	-4e-05	-7e-05	-3e-05	-3e-05	-0.00015	-0.00033	3e-05	1e-05	5
23807	-4e-05	-7e-05	-3e-05	-3e-05	-0.00015	-0.00033	3e-05	1e-05	5
23808	-4e-05	-7e-05	-3e-05	-3e-05	-0.00015	-0.00033	3e-05	1e-05	5
23809	-4e-05	-7e-05	-3e-05	-3e-05	-0.00015	-0.00033	3e-05	1e-05	5
23810	-4e-05	-7e-05	-3e-05	-3e-05	-0.00015	-0.00033	3e-05	1e-05	5
23811	-4e-05	-7e-05	-3e-05	-3e-05	-0.00015	-0.00033	3e-05	1e-05	5
23812	-4e-05	-7e-05	-3e-05	-3e-05	-0.00015	-0.00033	3e-05	1e-05	5
23813	-9e-05	-4e-05	3e-05	4e-05	-6e-05	-1e-05	-7e-05	-1e-05	5
23814	-9e-05	-4e-05	3e-05	4e-05	-6e-05	-1e-05	-7e-05	-1e-05	5
23815	-9e-05	-4e-05	3e-05	4e-05	-6e-05	-1e-05	-7e-05	-1e-05	5
23816	-9e-05	-4e-05	3e-05	4e-05	-6e-05	-1e-05	-7e-05	-1e-05	5
23817	-9e-05	-4e-05	3e-05	4e-05	-6e-05	-1e-05	-7e-05	-1e-05	5
23818	-9e-05	-4e-05	3e-05	4e-05	-6e-05	-1e-05	-7e-05	-1e-05	5
23819	-9e-05	-4e-05	3e-05	4e-05	-6e-05	-1e-05	-7e-05	-1e-05	5
23820	0	-3e-05	-4e-05	-5e-05	-3e-05	6e-05	2e-05	0	5
23821	0	-3e-05	-4e-05	-5e-05	-3e-05	6e-05	2e-05	0	5
23822	0	-3e-05	-4e-05	-5e-05	-3e-05	6e-05	2e-05	0	5
23823	0	-3e-05	-4e-05	-5e-05	-3e-05	6e-05	2e-05	0	5
23824	0	-3e-05	-4e-05	-5e-05	-3e-05	6e-05	2e-05	0	5
23825	0	-3e-05	-4e-05	-5e-05	-3e-05	6e-05	2e-05	0	5
23826	0	-3e-05	-4e-05	-5e-05	-3e-05	6e-05	2e-05	0	5
23827	0	-3e-05	-4e-05	-5e-05	-3e-05	6e-05	2e-05	0	5
23828	0	-3e-05	-4e-05	-5e-05	-3e-05	6e-05	2e-05	0	5
23829	0	-3e-05	-4e-05	-5e-05	-3e-05	6e-05	2e-05	0	5
23830	0	-3e-05	-4e-05	-5e-05	-3e-05	6e-05	2e-05	0	5
23831	0	-3e-05	-4e-05	-5e-05	-3e-05	6e-05	2e-05	0	5
23832	0	-3e-05	-4e-05	-5e-05	-3e-05	6e-05	2e-05	0	5
23833	0	-3e-05	-4e-05	-5e-05	-3e-05	6e-05	2e-05	0	5
23834	0	-3e-05	-4e-05	-5e-05	-3e-05	6e-05	2e-05	0	5
23835	0	-3e-05	-4e-05	-5e-05	-3e-05	6e-05	2e-05	0	5
23836	-4e-05	1e-05	-3e-05	3e-05	0.0003	-0.00011	-4e-05	-3e-05	5
23838	-4e-05	1e-05	-3e-05	3e-05	0.0003	-0.00011	-4e-05	-3e-05	5
23839	-4e-05	1e-05	-3e-05	3e-05	0.0003	-0.00011	-4e-05	-3e-05	5
23840	-4e-05	1e-05	-3e-05	3e-05	0.0003	-0.00011	-4e-05	-3e-05	5
23841	-4e-05	1e-05	-3e-05	3e-05	0.0003	-0.00011	-4e-05	-3e-05	5
23842	-4e-05	1e-05	-3e-05	3e-05	0.0003	-0.00011	-4e-05	-3e-05	5
23843	-4e-05	1e-05	-3e-05	3e-05	0.0003	-0.00011	-4e-05	-3e-05	5
23844	-4e-05	3e-05	9e-05	9e-05	6e-05	-9e-05	-2e-05	-3e-05	5
23845	-4e-05	3e-05	9e-05	9e-05	6e-05	-9e-05	-2e-05	-3e-05	5
23846	-4e-05	3e-05	9e-05	9e-05	6e-05	-9e-05	-2e-05	-3e-05	5
23847	-4e-05	3e-05	9e-05	9e-05	6e-05	-9e-05	-2e-05	-3e-05	5
23848	-4e-05	3e-05	9e-05	9e-05	6e-05	-9e-05	-2e-05	-3e-05	5
23849	-4e-05	3e-05	9e-05	9e-05	6e-05	-9e-05	-2e-05	-3e-05	5
23850	-4e-05	3e-05	9e-05	9e-05	6e-05	-9e-05	-2e-05	-3e-05	5
23851	-4e-05	3e-05	9e-05	9e-05	6e-05	-9e-05	-2e-05	-3e-05	5
23852	-4e-05	3e-05	9e-05	9e-05	6e-05	-9e-05	-2e-05	-3e-05	5
23853	-4e-05	3e-05	9e-05	9e-05	6e-05	-9e-05	-2e-05	-3e-05	5
23854	-4e-05	3e-05	9e-05	9e-05	6e-05	-9e-05	-2e-05	-3e-05	5
23855	-4e-05	3e-05	9e-05	9e-05	6e-05	-9e-05	-2e-05	-3e-05	5
23856	-4e-05	3e-05	9e-05	9e-05	6e-05	-9e-05	-2e-05	-3e-05	5
23857	-4e-05	3e-05	9e-05	9e-05	6e-05	-9e-05	-2e-05	-3e-05	5
23858	-0.00021	-5e-05	2e-05	1e-05	0.0003	5e-05	0	-3e-05	5
23859	-0.00021	-5e-05	2e-05	1e-05	0.0003	5e-05	0	-3e-05	5
23860	-5e-05	-0.0001	7e-05	6e-05	3e-05	0.00011	-3e-05	-2e-05	5
23861	-5e-05	-0.0001	7e-05	6e-05	3e-05	0.00011	-3e-05	-2e-05	5
23862	-5e-05	-0.0001	7e-05	6e-05	3e-05	0.00011	-3e-05	-2e-05	5
23863	-5e-05	-0.0001	7e-05	6e-05	3e-05	0.00011	-3e-05	-2e-05	5
23864	-5e-05	-0.0001	7e-05	6e-05	3e-05	0.00011	-3e-05	-2e-05	5
23865	-5e-05	-0.0001	7e-05	6e-05	3e-05	0.00011	-3e-05	-2e-05	5
23866	-5e-05	-0.0001	7e-05	6e-05	3e-05	0.00011	-3e-05	-2e-05	5
23867	-5e-05	-0.0001	7e-05	6e-05	3e-05	0.00011	-3e-05	-2e-05	5
23868	-5e-05	-0.0001	7e-05	6e-05	3e-05	0.00011	-3e-05	-2e-05	5
23869	-5e-05	-0.0001	7e-05	6e-05	3e-05	0.00011	-3e-05	-2e-05	5
23870	-5e-05	-0.0001	7e-05	6e-05	3e-05	0.00011	-3e-05	-2e-05	5
23871	-5e-05	-0.0001	7e-05	6e-05	3e-05	0.00011	-3e-05	-2e-05	5
23872	-5e-05	-0.0001	7e-05	6e-05	3e-05	0.00011	-3e-05	-2e-05	5
23873	0.00011	0.0001	5e-05	1e-05	-0.00036	-6e-05	1e-05	2e-05	5
23874	0.00011	0.0001	5e-05	1e-05	-0.00036	-6e-05	1e-05	2e-05	5
23875	0.00011	0.0001	5e-05	1e-05	-0.00036	-6e-05	1e-05	2e-05	5
23876	0.00011	0.0001	5e-05	1e-05	-0.00036	-6e-05	1e-05	2e-05	5
23877	0.00011	0.0001	5e-05	1e-05	-0.00036	-6e-05	1e-05	2e-05	5
23878	0.00011	0.0001	5e-05	1e-05	-0.00036	-6e-05	1e-05	2e-05	5
23879	0.00011	0.0001	5e-05	1e-05	-0.00036	-6e-05	1e-05	2e-05	5
23880	0.00011	0.0001	5e-05	1e-05	-0.00036	-6e-05	1e-05	2e-05	5
23881	6e-05	2e-05	-1e-05	5e-05	0.00019	6e-05	-2e-05	-1e-05	5
23882	6e-05	2e-05	-1e-05	5e-05	0.00019	6e-05	-2e-05	-1e-05	5
23883	6e-05	2e-05	-1e-05	5e-05	0.00019	6e-05	-2e-05	-1e-05	5
23884	6e-05	2e-05	-1e-05	5e-05	0.00019	6e-05	-2e-05	-1e-05	5
23885	6e-05	2e-05	-1e-05	5e-05	0.00019	6e-05	-2e-05	-1e-05	5
23886	6e-05	2e-05	-1e-05	5e-05	0.00019	6e-05	-2e-05	-1e-05	5
23888	6e-05	2e-05	-1e-05	5e-05	0.00019	6e-05	-2e-05	-1e-05	5
23889	6e-05	2e-05	-1e-05	5e-05	0.00019	6e-05	-2e-05	-1e-05	5
23890	6e-05	2e-05	-1e-05	5e-05	0.00019	6e-05	-2e-05	-1e-05	5
23891	6e-05	2e-05	-1e-05	5e-05	0.00019	6e-05	-2e-05	-1e-05	5
23892	6e-05	2e-05	-1e-05	5e-05	0.00019	6e-05	-2e-05	-1e-05	5
23893	6e-05	2e-05	-1e-05	5e-05	0.00019	6e-05	-2e-05	-1e-05	5
23894	6e-05	2e-05	-1e-05	5e-05	0.00019	6e-05	-2e-05	-1e-05	5
23895	6e-05	2e-05	-1e-05	5e-05	0.00019	6e-05	-2e-05	-1e-05	5
23896	6e-05	2e-05	-1e-05	5e-05	0.00019	6e-05	-2e-05	-1e-05	5
23897	6e-05	2e-05	-1e-05	5e-05	0.00019	6e-05	-2e-05	-1e-05	5
23898	6e-05	2e-05	-1e-05	5e-05	0.00019	6e-05	-2e-05	-1e-05	5
23899	6e-05	2e-05	-1e-05	5e-05	0.00019	6e-05	-2e-05	-1e-05	5
23900	6e-05	2e-05	-1e-05	5e-05	0.00019	6e-05	-2e-05	-1e-05	5
23901	6e-05	2e-05	-1e-05	5e-05	0.00019	6e-05	-2e-05	-1e-05	5
23902	6e-05	2e-05	-1e-05	5e-05	0.00019	6e-05	-2e-05	-1e-05	5
23903	6e-05	2e-05	-1e-05	5e-05	0.00019	6e-05	-2e-05	-1e-05	5
23904	-0.00011	-3e-05	-7e-05	-9e-05	-0.00015	-0.0001	-3e-05	-7e-05	5
23905	0.00012	0.00019	-6e-05	-0.00016	-0.00026	-6e-05	-4e-05	-1e-05	5
23906	0.00012	0.00019	-6e-05	-0.00016	-0.00026	-6e-05	-4e-05	-1e-05	5
23907	0.00012	0.00019	-6e-05	-0.00016	-0.00026	-6e-05	-4e-05	-1e-05	5
23908	0.00012	0.00019	-6e-05	-0.00016	-0.00026	-6e-05	-4e-05	-1e-05	5
23909	0.00012	0.00019	-6e-05	-0.00016	-0.00026	-6e-05	-4e-05	-1e-05	5
23910	0.00012	0.00019	-6e-05	-0.00016	-0.00026	-6e-05	-4e-05	-1e-05	5
23911	0.00012	0.00019	-6e-05	-0.00016	-0.00026	-6e-05	-4e-05	-1e-05	5
23912	0.00012	0.00019	-6e-05	-0.00016	-0.00026	-6e-05	-4e-05	-1e-05	5
23913	0.00012	0.00019	-6e-05	-0.00016	-0.00026	-6e-05	-4e-05	-1e-05	5
23914	0.00012	0.00019	-6e-05	-0.00016	-0.00026	-6e-05	-4e-05	-1e-05	5
23915	0.00012	0.00019	-6e-05	-0.00016	-0.00026	-6e-05	-4e-05	-1e-05	5
23916	0.00012	0.00019	-6e-05	-0.00016	-0.00026	-6e-05	-4e-05	-1e-05	5
23917	0.00012	0.00019	-6e-05	-0.00016	-0.00026	-6e-05	-4e-05	-1e-05	5
23918	0.0001	-0.00013	-3e-05	0	0.00022	-3e-05	0	2e-05	5
23919	-0.00031	-2e-05	1e-05	3e-05	0.00031	0.00019	-1e-05	-5e-05	5
23920	0	-5e-05	-0.0001	-4e-05	9e-05	-1e-05	5e-05	2e-05	5
23921	0	-5e-05	-0.0001	-4e-05	9e-05	-1e-05	5e-05	2e-05	5
23922	0	-5e-05	-0.0001	-4e-05	9e-05	-1e-05	5e-05	2e-05	5
23923	0	-5e-05	-0.0001	-4e-05	9e-05	-1e-05	5e-05	2e-05	5
23924	0	-5e-05	-0.0001	-4e-05	9e-05	-1e-05	5e-05	2e-05	5
23925	0	-5e-05	-0.0001	-4e-05	9e-05	-1e-05	5e-05	2e-05	5
23926	0	-5e-05	-0.0001	-4e-05	9e-05	-1e-05	5e-05	2e-05	5
23927	0	-5e-05	-0.0001	-4e-05	9e-05	-1e-05	5e-05	2e-05	5
23928	0	-5e-05	-0.0001	-4e-05	9e-05	-1e-05	5e-05	2e-05	5
23929	0	-5e-05	-0.0001	-4e-05	9e-05	-1e-05	5e-05	2e-05	5
23930	0	-5e-05	-0.0001	-4e-05	9e-05	-1e-05	5e-05	2e-05	5
23931	0	-5e-05	-0.0001	-4e-05	9e-05	-1e-05	5e-05	2e-05	5
23932	0	-5e-05	-0.0001	-4e-05	9e-05	-1e-05	5e-05	2e-05	5
23933	0.0001	-1e-05	-7e-05	5e-05	0.00049	0	-1e-05	2e-05	5
23934	0.0001	-1e-05	-7e-05	5e-05	0.00049	0	-1e-05	2e-05	5
23935	0.0001	-1e-05	-7e-05	5e-05	0.00049	0	-1e-05	2e-05	5
23936	0.0001	-1e-05	-7e-05	5e-05	0.00049	0	-1e-05	2e-05	5
23938	0.0001	-1e-05	-7e-05	5e-05	0.00049	0	-1e-05	2e-05	5
23939	0.0001	-1e-05	-7e-05	5e-05	0.00049	0	-1e-05	2e-05	5
23940	-3e-05	-1e-05	0	-7e-05	-8e-05	-6e-05	-4e-05	1e-05	5
23941	-3e-05	-1e-05	0	-7e-05	-8e-05	-6e-05	-4e-05	1e-05	5
23942	-3e-05	-1e-05	0	-7e-05	-8e-05	-6e-05	-4e-05	1e-05	5
23943	-3e-05	-1e-05	0	-7e-05	-8e-05	-6e-05	-4e-05	1e-05	5
23944	-3e-05	-1e-05	0	-7e-05	-8e-05	-6e-05	-4e-05	1e-05	5
23945	-3e-05	-1e-05	0	-7e-05	-8e-05	-6e-05	-4e-05	1e-05	5
23946	-3e-05	-1e-05	0	-7e-05	-8e-05	-6e-05	-4e-05	1e-05	5
23947	-3e-05	-1e-05	0	-7e-05	-8e-05	-6e-05	-4e-05	1e-05	5
23948	-3e-05	-1e-05	0	-7e-05	-8e-05	-6e-05	-4e-05	1e-05	5
23949	-3e-05	-1e-05	0	-7e-05	-8e-05	-6e-05	-4e-05	1e-05	5
23950	-3e-05	-1e-05	0	-7e-05	-8e-05	-6e-05	-4e-05	1e-05	5
23951	-3e-05	-1e-05	0	-7e-05	-8e-05	-6e-05	-4e-05	1e-05	5
23952	-3e-05	-1e-05	0	-7e-05	-8e-05	-6e-05	-4e-05	1e-05	5
23953	-3e-05	-1e-05	0	-7e-05	-8e-05	-6e-05	-4e-05	1e-05	5
23954	-3e-05	-1e-05	0	-7e-05	-8e-05	-6e-05	-4e-05	1e-05	5
23955	-3e-05	-1e-05	0	-7e-05	-8e-05	-6e-05	-4e-05	1e-05	5
23956	8e-05	4e-05	-1e-05	-7e-05	-0.00042	-0.00011	0	-1e-05	5
23957	8e-05	4e-05	-1e-05	-7e-05	-0.00042	-0.00011	0	-1e-05	5
23958	-7e-05	-0.00014	-5e-05	-1e-05	-4e-05	3e-05	-2e-05	-2e-05	5
23959	-7e-05	-0.00014	-5e-05	-1e-05	-4e-05	3e-05	-2e-05	-2e-05	5
23960	-7e-05	-0.00014	-5e-05	-1e-05	-4e-05	3e-05	-2e-05	-2e-05	5
23961	-7e-05	-0.00014	-5e-05	-1e-05	-4e-05	3e-05	-2e-05	-2e-05	5
23962	-7e-05	-0.00014	-5e-05	-1e-05	-4e-05	3e-05	-2e-05	-2e-05	5
23963	-7e-05	-0.00014	-5e-05	-1e-05	-4e-05	3e-05	-2e-05	-2e-05	5
23964	-7e-05	-0.00014	-5e-05	-1e-05	-4e-05	3e-05	-2e-05	-2e-05	5
23965	-7e-05	-0.00014	-5e-05	-1e-05	-4e-05	3e-05	-2e-05	-2e-05	5
23966	-7e-05	-0.00014	-5e-05	-1e-05	-4e-05	3e-05	-2e-05	-2e-05	5
23967	-7e-05	-0.00014	-5e-05	-1e-05	-4e-05	3e-05	-2e-05	-2e-05	5
23968	-7e-05	-0.00014	-5e-05	-1e-05	-4e-05	3e-05	-2e-05	-2e-05	5
23969	-7e-05	-0.00014	-5e-05	-1e-05	-4e-05	3e-05	-2e-05	-2e-05	5
23970	-7e-05	-0.00014	-5e-05	-1e-05	-4e-05	3e-05	-2e-05	-2e-05	5
23971	-7e-05	-0.00014	-5e-05	-1e-05	-4e-05	3e-05	-2e-05	-2e-05	5
23972	-7e-05	-0.00014	-5e-05	-1e-05	-4e-05	3e-05	-2e-05	-2e-05	5
23973	-7e-05	-0.00014	-5e-05	-1e-05	-4e-05	3e-05	-2e-05	-2e-05	5
23974	-7e-05	-0.00014	-5e-05	-1e-05	-4e-05	3e-05	-2e-05	-2e-05	5
23975	-7e-05	-0.00014	-5e-05	-1e-05	-4e-05	3e-05	-2e-05	-2e-05	5
23976	-7e-05	-0.00014	-5e-05	-1e-05	-4e-05	3e-05	-2e-05	-2e-05	5
23977	-7e-05	-0.00014	-5e-05	-1e-05	-4e-05	3e-05	-2e-05	-2e-05	5
23978	-6e-05	1e-05	-6e-05	-3e-05	0.00019	0	-1e-05	-3e-05	5
23979	8e-05	0	6e-05	2e-05	-0.00033	-1e-05	1e-05	1e-05	5
23980	-0.00017	-1e-05	7e-05	8e-05	0.00038	0	-2e-05	1e-05	5
23981	-0.00017	-1e-05	7e-05	8e-05	0.00038	0	-2e-05	1e-05	5
23982	-0.00017	-1e-05	7e-05	8e-05	0.00038	0	-2e-05	1e-05	5
23983	-0.00017	-1e-05	7e-05	8e-05	0.00038	0	-2e-05	1e-05	5
23984	-0.00017	-1e-05	7e-05	8e-05	0.00038	0	-2e-05	1e-05	5
23985	-0.00017	-1e-05	7e-05	8e-05	0.00038	0	-2e-05	1e-05	5
23986	-0.00017	-1e-05	7e-05	8e-05	0.00038	0	-2e-05	1e-05	5
23988	-0.00017	-1e-05	7e-05	8e-05	0.00038	0	-2e-05	1e-05	5
23989	-0.00017	-1e-05	7e-05	8e-05	0.00038	0	-2e-05	1e-05	5
23990	-0.00017	-1e-05	7e-05	8e-05	0.00038	0	-2e-05	1e-05	5
23991	-0.00017	-1e-05	7e-05	8e-05	0.00038	0	-2e-05	1e-05	5
23992	-0.00017	-1e-05	7e-05	8e-05	0.00038	0	-2e-05	1e-05	5
23993	3e-05	-2e-05	-5e-05	-8e-05	-0.00022	-0.00028	-3e-05	-2e-05	5
23994	3e-05	-2e-05	-5e-05	-8e-05	-0.00022	-0.00028	-3e-05	-2e-05	5
23995	3e-05	-2e-05	-5e-05	-8e-05	-0.00022	-0.00028	-3e-05	-2e-05	5
23996	3e-05	-2e-05	-5e-05	-8e-05	-0.00022	-0.00028	-3e-05	-2e-05	5
23997	3e-05	-2e-05	-5e-05	-8e-05	-0.00022	-0.00028	-3e-05	-2e-05	5
23998	3e-05	-2e-05	-5e-05	-8e-05	-0.00022	-0.00028	-3e-05	-2e-05	5
23999	3e-05	-2e-05	-5e-05	-8e-05	-0.00022	-0.00028	-3e-05	-2e-05	5
24000	3e-05	-2e-05	-5e-05	-8e-05	-0.00022	-0.00028	-3e-05	-2e-05	5
24001	-1e-05	1e-05	1e-05	-2e-05	-0.0003	0.0001	1e-05	-1e-05	5
24002	-1e-05	1e-05	1e-05	-2e-05	-0.0003	0.0001	1e-05	-1e-05	5
24003	-1e-05	1e-05	1e-05	-2e-05	-0.0003	0.0001	1e-05	-1e-05	5
24004	-1e-05	1e-05	1e-05	-2e-05	-0.0003	0.0001	1e-05	-1e-05	5
24005	-1e-05	1e-05	1e-05	-2e-05	-0.0003	0.0001	1e-05	-1e-05	5
24006	-1e-05	1e-05	1e-05	-2e-05	-0.0003	0.0001	1e-05	-1e-05	5
24007	-1e-05	1e-05	1e-05	-2e-05	-0.0003	0.0001	1e-05	-1e-05	5
24008	-1e-05	1e-05	1e-05	-2e-05	-0.0003	0.0001	1e-05	-1e-05	5
24009	-1e-05	1e-05	1e-05	-2e-05	-0.0003	0.0001	1e-05	-1e-05	5
24010	-1e-05	1e-05	1e-05	-2e-05	-0.0003	0.0001	1e-05	-1e-05	5
24011	-1e-05	1e-05	1e-05	-2e-05	-0.0003	0.0001	1e-05	-1e-05	5
24012	-1e-05	1e-05	1e-05	-2e-05	-0.0003	0.0001	1e-05	-1e-05	5
24013	-1e-05	1e-05	1e-05	-2e-05	-0.0003	0.0001	1e-05	-1e-05	5
24014	-1e-05	1e-05	1e-05	-2e-05	-0.0003	0.0001	1e-05	-1e-05	5
24015	-1e-05	1e-05	1e-05	-2e-05	-0.0003	0.0001	1e-05	-1e-05	5
24016	7e-05	-1e-05	-5e-05	-0.00014	-0.00014	5e-05	-1e-05	2e-05	5
24017	-8e-05	-7e-05	-4e-05	1e-05	-0.00034	-0.00012	-4e-05	-3e-05	5
24018	7e-05	6e-05	1e-05	0.00012	0.00041	0.0001	9e-05	0	5
24019	7e-05	6e-05	1e-05	0.00012	0.00041	0.0001	9e-05	0	5
24020	7e-05	6e-05	1e-05	0.00012	0.00041	0.0001	9e-05	0	5
24021	7e-05	6e-05	1e-05	0.00012	0.00041	0.0001	9e-05	0	5
24022	7e-05	6e-05	1e-05	0.00012	0.00041	0.0001	9e-05	0	5
24023	7e-05	6e-05	1e-05	0.00012	0.00041	0.0001	9e-05	0	5
24024	7e-05	6e-05	1e-05	0.00012	0.00041	0.0001	9e-05	0	5
24025	7e-05	6e-05	1e-05	0.00012	0.00041	0.0001	9e-05	0	5
24026	7e-05	6e-05	1e-05	0.00012	0.00041	0.0001	9e-05	0	5
24027	7e-05	6e-05	1e-05	0.00012	0.00041	0.0001	9e-05	0	5
24028	7e-05	6e-05	1e-05	0.00012	0.00041	0.0001	9e-05	0	5
24029	7e-05	6e-05	1e-05	0.00012	0.00041	0.0001	9e-05	0	5
24030	7e-05	6e-05	1e-05	0.00012	0.00041	0.0001	9e-05	0	5
24031	7e-05	6e-05	1e-05	0.00012	0.00041	0.0001	9e-05	0	5
24032	7e-05	6e-05	1e-05	0.00012	0.00041	0.0001	9e-05	0	5
24033	7e-05	6e-05	1e-05	0.00012	0.00041	0.0001	9e-05	0	5
24034	7e-05	6e-05	1e-05	0.00012	0.00041	0.0001	9e-05	0	5
24035	7e-05	6e-05	1e-05	0.00012	0.00041	0.0001	9e-05	0	5
24036	7e-05	6e-05	1e-05	0.00012	0.00041	0.0001	9e-05	0	5
24038	7e-05	6e-05	1e-05	0.00012	0.00041	0.0001	9e-05	0	5
24039	5e-05	-6e-05	-0.00012	-0.0002	-0.00039	-4e-05	-1e-05	2e-05	5
24040	5e-05	-6e-05	-0.00012	-0.0002	-0.00039	-4e-05	-1e-05	2e-05	5
24041	5e-05	-6e-05	-0.00012	-0.0002	-0.00039	-4e-05	-1e-05	2e-05	5
24042	5e-05	-6e-05	-0.00012	-0.0002	-0.00039	-4e-05	-1e-05	2e-05	5
24043	5e-05	-6e-05	-0.00012	-0.0002	-0.00039	-4e-05	-1e-05	2e-05	5
24044	5e-05	-6e-05	-0.00012	-0.0002	-0.00039	-4e-05	-1e-05	2e-05	5
24045	5e-05	-6e-05	-0.00012	-0.0002	-0.00039	-4e-05	-1e-05	2e-05	5
24046	5e-05	-6e-05	-0.00012	-0.0002	-0.00039	-4e-05	-1e-05	2e-05	5
24047	5e-05	-6e-05	-0.00012	-0.0002	-0.00039	-4e-05	-1e-05	2e-05	5
24048	5e-05	-6e-05	-0.00012	-0.0002	-0.00039	-4e-05	-1e-05	2e-05	5
24049	5e-05	-6e-05	-0.00012	-0.0002	-0.00039	-4e-05	-1e-05	2e-05	5
24050	5e-05	-6e-05	-0.00012	-0.0002	-0.00039	-4e-05	-1e-05	2e-05	5
24051	5e-05	-6e-05	-0.00012	-0.0002	-0.00039	-4e-05	-1e-05	2e-05	5
24052	5e-05	-6e-05	-0.00012	-0.0002	-0.00039	-4e-05	-1e-05	2e-05	5
24053	2e-05	1e-05	-2e-05	-0.00011	-0.00021	-8e-05	-5e-05	0	5
24054	2e-05	1e-05	-2e-05	-0.00011	-0.00021	-8e-05	-5e-05	0	5
24055	2e-05	1e-05	-2e-05	-0.00011	-0.00021	-8e-05	-5e-05	0	5
24056	2e-05	1e-05	-2e-05	-0.00011	-0.00021	-8e-05	-5e-05	0	5
24057	2e-05	1e-05	-2e-05	-0.00011	-0.00021	-8e-05	-5e-05	0	5
24058	2e-05	1e-05	-2e-05	-0.00011	-0.00021	-8e-05	-5e-05	0	5
24059	2e-05	1e-05	-2e-05	-0.00011	-0.00021	-8e-05	-5e-05	0	5
24060	2e-05	1e-05	-2e-05	-0.00011	-0.00021	-8e-05	-5e-05	0	5
24061	-0.00023	-0.00017	-2e-05	0.0001	0	4e-05	1e-05	-2e-05	5
24062	-0.00023	-0.00017	-2e-05	0.0001	0	4e-05	1e-05	-2e-05	5
24063	0.00017	0	-4e-05	-6e-05	-3e-05	-2e-05	-1e-05	-1e-05	5
24064	0.00017	0	-4e-05	-6e-05	-3e-05	-2e-05	-1e-05	-1e-05	5
24065	0.00017	0	-4e-05	-6e-05	-3e-05	-2e-05	-1e-05	-1e-05	5
24066	0.00017	0	-4e-05	-6e-05	-3e-05	-2e-05	-1e-05	-1e-05	5
24067	0.00017	0	-4e-05	-6e-05	-3e-05	-2e-05	-1e-05	-1e-05	5
24068	0.00017	0	-4e-05	-6e-05	-3e-05	-2e-05	-1e-05	-1e-05	5
24069	0.00017	0	-4e-05	-6e-05	-3e-05	-2e-05	-1e-05	-1e-05	5
24070	0.00017	0	-4e-05	-6e-05	-3e-05	-2e-05	-1e-05	-1e-05	5
24071	0.00017	0	-4e-05	-6e-05	-3e-05	-2e-05	-1e-05	-1e-05	5
24072	0.00017	0	-4e-05	-6e-05	-3e-05	-2e-05	-1e-05	-1e-05	5
24073	0.00017	0	-4e-05	-6e-05	-3e-05	-2e-05	-1e-05	-1e-05	5
24074	0.00017	0	-4e-05	-6e-05	-3e-05	-2e-05	-1e-05	-1e-05	5
24075	0.00017	0	-4e-05	-6e-05	-3e-05	-2e-05	-1e-05	-1e-05	5
24076	0.00017	0	-4e-05	-6e-05	-3e-05	-2e-05	-1e-05	-1e-05	5
24077	0.00017	0	-4e-05	-6e-05	-3e-05	-2e-05	-1e-05	-1e-05	5
24078	0.00014	6e-05	0.0001	0.00016	-9e-05	0.00015	-6e-05	1e-05	5
24080	0.00014	6e-05	0.0001	0.00016	-9e-05	0.00015	-6e-05	1e-05	5
24081	0.00014	6e-05	0.0001	0.00016	-9e-05	0.00015	-6e-05	1e-05	5
24082	0.00014	6e-05	0.0001	0.00016	-9e-05	0.00015	-6e-05	1e-05	5
24083	0.00014	6e-05	0.0001	0.00016	-9e-05	0.00015	-6e-05	1e-05	5
24084	0.00014	6e-05	0.0001	0.00016	-9e-05	0.00015	-6e-05	1e-05	5
24085	0.00014	6e-05	0.0001	0.00016	-9e-05	0.00015	-6e-05	1e-05	5
24086	0.00014	6e-05	0.0001	0.00016	-9e-05	0.00015	-6e-05	1e-05	5
24088	0.00014	6e-05	0.0001	0.00016	-9e-05	0.00015	-6e-05	1e-05	5
24089	0.00014	6e-05	0.0001	0.00016	-9e-05	0.00015	-6e-05	1e-05	5
24090	0.00014	6e-05	0.0001	0.00016	-9e-05	0.00015	-6e-05	1e-05	5
24091	0.00014	6e-05	0.0001	0.00016	-9e-05	0.00015	-6e-05	1e-05	5
24092	0.00014	6e-05	0.0001	0.00016	-9e-05	0.00015	-6e-05	1e-05	5
24093	0.00014	6e-05	0.0001	0.00016	-9e-05	0.00015	-6e-05	1e-05	5
24094	0.00014	6e-05	0.0001	0.00016	-9e-05	0.00015	-6e-05	1e-05	5
24095	0.00014	6e-05	0.0001	0.00016	-9e-05	0.00015	-6e-05	1e-05	5
24096	0.00014	6e-05	0.0001	0.00016	-9e-05	0.00015	-6e-05	1e-05	5
24097	0.00014	6e-05	0.0001	0.00016	-9e-05	0.00015	-6e-05	1e-05	5
24098	0.00014	6e-05	0.0001	0.00016	-9e-05	0.00015	-6e-05	1e-05	5
24099	3e-05	8e-05	0.00013	8e-05	0.00018	7e-05	-2e-05	-1e-05	5
24100	3e-05	8e-05	0.00013	8e-05	0.00018	7e-05	-2e-05	-1e-05	5
24101	-1e-05	8e-05	5e-05	-4e-05	-0.00056	-3e-05	-1e-05	-2e-05	5
24102	-1e-05	8e-05	5e-05	-4e-05	-0.00056	-3e-05	-1e-05	-2e-05	5
24103	-1e-05	8e-05	5e-05	-4e-05	-0.00056	-3e-05	-1e-05	-2e-05	5
24104	-1e-05	8e-05	5e-05	-4e-05	-0.00056	-3e-05	-1e-05	-2e-05	5
24105	-1e-05	8e-05	5e-05	-4e-05	-0.00056	-3e-05	-1e-05	-2e-05	5
24106	-1e-05	8e-05	5e-05	-4e-05	-0.00056	-3e-05	-1e-05	-2e-05	5
24107	-1e-05	8e-05	5e-05	-4e-05	-0.00056	-3e-05	-1e-05	-2e-05	5
24108	-1e-05	8e-05	5e-05	-4e-05	-0.00056	-3e-05	-1e-05	-2e-05	5
24109	-1e-05	8e-05	5e-05	-4e-05	-0.00056	-3e-05	-1e-05	-2e-05	5
24110	-1e-05	8e-05	5e-05	-4e-05	-0.00056	-3e-05	-1e-05	-2e-05	5
24111	-1e-05	8e-05	5e-05	-4e-05	-0.00056	-3e-05	-1e-05	-2e-05	5
24112	-1e-05	8e-05	5e-05	-4e-05	-0.00056	-3e-05	-1e-05	-2e-05	5
24113	-1e-05	8e-05	5e-05	-4e-05	-0.00056	-3e-05	-1e-05	-2e-05	5
24114	-1e-05	8e-05	5e-05	-4e-05	-0.00056	-3e-05	-1e-05	-2e-05	5
24115	-1e-05	8e-05	5e-05	-4e-05	-0.00056	-3e-05	-1e-05	-2e-05	5
24116	-1e-05	8e-05	5e-05	-4e-05	-0.00056	-3e-05	-1e-05	-2e-05	5
24117	-1e-05	8e-05	5e-05	-4e-05	-0.00056	-3e-05	-1e-05	-2e-05	5
24118	-1e-05	8e-05	5e-05	-4e-05	-0.00056	-3e-05	-1e-05	-2e-05	5
24119	-1e-05	8e-05	5e-05	-4e-05	-0.00056	-3e-05	-1e-05	-2e-05	5
24120	-1e-05	8e-05	5e-05	-4e-05	-0.00056	-3e-05	-1e-05	-2e-05	5
24121	2e-05	0	-2e-05	1e-05	0.00011	1e-05	-2e-05	0	5
24122	2e-05	0	-2e-05	1e-05	0.00011	1e-05	-2e-05	0	5
24123	-0.00013	-0.00013	-8e-05	-0.00014	-0.00041	-9e-05	0	-5e-05	5
24124	-0.00013	-0.00013	-8e-05	-0.00014	-0.00041	-9e-05	0	-5e-05	5
24125	-0.00013	-0.00013	-8e-05	-0.00014	-0.00041	-9e-05	0	-5e-05	5
24126	-0.00013	-0.00013	-8e-05	-0.00014	-0.00041	-9e-05	0	-5e-05	5
24127	-0.00013	-0.00013	-8e-05	-0.00014	-0.00041	-9e-05	0	-5e-05	5
24128	-0.00013	-0.00013	-8e-05	-0.00014	-0.00041	-9e-05	0	-5e-05	5
24129	-0.00013	-0.00013	-8e-05	-0.00014	-0.00041	-9e-05	0	-5e-05	5
24130	-0.00013	-0.00013	-8e-05	-0.00014	-0.00041	-9e-05	0	-5e-05	5
24131	-0.00013	-0.00013	-8e-05	-0.00014	-0.00041	-9e-05	0	-5e-05	5
24132	-0.00013	-0.00013	-8e-05	-0.00014	-0.00041	-9e-05	0	-5e-05	5
24133	-0.00013	-0.00013	-8e-05	-0.00014	-0.00041	-9e-05	0	-5e-05	5
24134	-0.00013	-0.00013	-8e-05	-0.00014	-0.00041	-9e-05	0	-5e-05	5
24135	-0.00013	-0.00013	-8e-05	-0.00014	-0.00041	-9e-05	0	-5e-05	5
24136	0.00012	8e-05	5e-05	-3e-05	2e-05	3e-05	3e-05	1e-05	5
24138	1e-05	-7e-05	-5e-05	-1e-05	0.00012	-0.0001	-2e-05	-1e-05	5
24140	1e-05	-7e-05	-5e-05	-1e-05	0.00012	-0.0001	-2e-05	-1e-05	5
24141	1e-05	-7e-05	-5e-05	-1e-05	0.00012	-0.0001	-2e-05	-1e-05	5
24142	1e-05	-7e-05	-5e-05	-1e-05	0.00012	-0.0001	-2e-05	-1e-05	5
24143	1e-05	-7e-05	-5e-05	-1e-05	0.00012	-0.0001	-2e-05	-1e-05	5
24144	1e-05	-7e-05	-5e-05	-1e-05	0.00012	-0.0001	-2e-05	-1e-05	5
24145	1e-05	-7e-05	-5e-05	-1e-05	0.00012	-0.0001	-2e-05	-1e-05	5
24146	1e-05	-7e-05	-5e-05	-1e-05	0.00012	-0.0001	-2e-05	-1e-05	5
24147	1e-05	-7e-05	-5e-05	-1e-05	0.00012	-0.0001	-2e-05	-1e-05	5
24148	1e-05	-7e-05	-5e-05	-1e-05	0.00012	-0.0001	-2e-05	-1e-05	5
24149	1e-05	-7e-05	-5e-05	-1e-05	0.00012	-0.0001	-2e-05	-1e-05	5
24150	1e-05	-7e-05	-5e-05	-1e-05	0.00012	-0.0001	-2e-05	-1e-05	5
24151	1e-05	-7e-05	-5e-05	-1e-05	0.00012	-0.0001	-2e-05	-1e-05	5
24152	1e-05	-7e-05	-5e-05	-1e-05	0.00012	-0.0001	-2e-05	-1e-05	5
24153	1e-05	-7e-05	-5e-05	-1e-05	0.00012	-0.0001	-2e-05	-1e-05	5
24154	1e-05	-7e-05	-5e-05	-1e-05	0.00012	-0.0001	-2e-05	-1e-05	5
24155	1e-05	-7e-05	-5e-05	-1e-05	0.00012	-0.0001	-2e-05	-1e-05	5
24156	1e-05	-7e-05	-5e-05	-1e-05	0.00012	-0.0001	-2e-05	-1e-05	5
24157	1e-05	-7e-05	-5e-05	-1e-05	0.00012	-0.0001	-2e-05	-1e-05	5
24158	-4e-05	-1e-05	0	-2e-05	-0.00025	-5e-05	-3e-05	-1e-05	5
24159	-4e-05	-1e-05	-4e-05	-2e-05	0.00023	3e-05	-1e-05	-1e-05	5
24160	-0.00029	-9e-05	0	8e-05	0.00032	9e-05	0	-3e-05	5
24161	-0.00029	-9e-05	0	8e-05	0.00032	9e-05	0	-3e-05	5
24162	-0.00029	-9e-05	0	8e-05	0.00032	9e-05	0	-3e-05	5
24163	-0.00029	-9e-05	0	8e-05	0.00032	9e-05	0	-3e-05	5
24164	-0.00029	-9e-05	0	8e-05	0.00032	9e-05	0	-3e-05	5
24165	-0.00029	-9e-05	0	8e-05	0.00032	9e-05	0	-3e-05	5
24166	-0.00029	-9e-05	0	8e-05	0.00032	9e-05	0	-3e-05	5
24167	-0.00029	-9e-05	0	8e-05	0.00032	9e-05	0	-3e-05	5
24168	-0.00029	-9e-05	0	8e-05	0.00032	9e-05	0	-3e-05	5
24169	-0.00029	-9e-05	0	8e-05	0.00032	9e-05	0	-3e-05	5
24170	-0.00029	-9e-05	0	8e-05	0.00032	9e-05	0	-3e-05	5
24171	-0.00029	-9e-05	0	8e-05	0.00032	9e-05	0	-3e-05	5
24172	-0.00029	-9e-05	0	8e-05	0.00032	9e-05	0	-3e-05	5
24173	-0.00029	-9e-05	0	8e-05	0.00032	9e-05	0	-3e-05	5
24174	-0.00029	-9e-05	0	8e-05	0.00032	9e-05	0	-3e-05	5
24175	-0.00029	-9e-05	0	8e-05	0.00032	9e-05	0	-3e-05	5
24176	-0.00029	-9e-05	0	8e-05	0.00032	9e-05	0	-3e-05	5
24177	-0.00029	-9e-05	0	8e-05	0.00032	9e-05	0	-3e-05	5
24178	-0.00029	-9e-05	0	8e-05	0.00032	9e-05	0	-3e-05	5
24179	-0.00029	-9e-05	0	8e-05	0.00032	9e-05	0	-3e-05	5
24180	-0.00029	-9e-05	0	8e-05	0.00032	9e-05	0	-3e-05	5
24181	-0.00016	-9e-05	-0.00013	-8e-05	1e-05	3e-05	-1e-05	0	5
24182	-0.00016	-9e-05	-0.00013	-8e-05	1e-05	3e-05	-1e-05	0	5
24183	-1e-05	-1e-05	4e-05	0.00015	0.00032	-4e-05	-1e-05	1e-05	5
24184	-1e-05	-1e-05	4e-05	0.00015	0.00032	-4e-05	-1e-05	1e-05	5
24185	-1e-05	-1e-05	4e-05	0.00015	0.00032	-4e-05	-1e-05	1e-05	5
24186	-1e-05	-1e-05	4e-05	0.00015	0.00032	-4e-05	-1e-05	1e-05	5
24188	-1e-05	-1e-05	4e-05	0.00015	0.00032	-4e-05	-1e-05	1e-05	5
24189	-1e-05	-1e-05	4e-05	0.00015	0.00032	-4e-05	-1e-05	1e-05	5
24190	-1e-05	-1e-05	4e-05	0.00015	0.00032	-4e-05	-1e-05	1e-05	5
24191	-1e-05	-1e-05	4e-05	0.00015	0.00032	-4e-05	-1e-05	1e-05	5
24192	-1e-05	-1e-05	4e-05	0.00015	0.00032	-4e-05	-1e-05	1e-05	5
24193	-1e-05	-1e-05	4e-05	0.00015	0.00032	-4e-05	-1e-05	1e-05	5
24194	-1e-05	-1e-05	4e-05	0.00015	0.00032	-4e-05	-1e-05	1e-05	5
24195	-1e-05	-1e-05	4e-05	0.00015	0.00032	-4e-05	-1e-05	1e-05	5
24196	-6e-05	3e-05	3e-05	8e-05	0.00023	1e-05	-2e-05	-4e-05	5
24197	-6e-05	3e-05	3e-05	8e-05	0.00023	1e-05	-2e-05	-4e-05	5
24198	-6e-05	3e-05	3e-05	8e-05	0.00023	1e-05	-2e-05	-4e-05	5
24199	-6e-05	3e-05	3e-05	8e-05	0.00023	1e-05	-2e-05	-4e-05	5
24200	-6e-05	3e-05	3e-05	8e-05	0.00023	1e-05	-2e-05	-4e-05	5
24201	-6e-05	3e-05	3e-05	8e-05	0.00023	1e-05	-2e-05	-4e-05	5
24202	-6e-05	3e-05	3e-05	8e-05	0.00023	1e-05	-2e-05	-4e-05	5
24203	-6e-05	3e-05	3e-05	8e-05	0.00023	1e-05	-2e-05	-4e-05	5
24204	3e-05	-7e-05	-0.00011	-0.00014	-2e-05	3e-05	3e-05	0	5
24205	3e-05	-7e-05	-0.00011	-0.00014	-2e-05	3e-05	3e-05	0	5
24206	3e-05	-7e-05	-0.00011	-0.00014	-2e-05	3e-05	3e-05	0	5
24207	3e-05	-7e-05	-0.00011	-0.00014	-2e-05	3e-05	3e-05	0	5
24208	3e-05	-7e-05	-0.00011	-0.00014	-2e-05	3e-05	3e-05	0	5
24209	3e-05	-7e-05	-0.00011	-0.00014	-2e-05	3e-05	3e-05	0	5
24210	3e-05	-7e-05	-0.00011	-0.00014	-2e-05	3e-05	3e-05	0	5
24211	3e-05	-7e-05	-0.00011	-0.00014	-2e-05	3e-05	3e-05	0	5
24212	3e-05	-7e-05	-0.00011	-0.00014	-2e-05	3e-05	3e-05	0	5
24213	3e-05	-7e-05	-0.00011	-0.00014	-2e-05	3e-05	3e-05	0	5
24214	3e-05	-7e-05	-0.00011	-0.00014	-2e-05	3e-05	3e-05	0	5
24215	3e-05	-7e-05	-0.00011	-0.00014	-2e-05	3e-05	3e-05	0	5
24216	3e-05	-7e-05	-0.00011	-0.00014	-2e-05	3e-05	3e-05	0	5
24217	3e-05	-7e-05	-0.00011	-0.00014	-2e-05	3e-05	3e-05	0	5
24218	3e-05	-1e-05	-4e-05	8e-05	0.00019	6e-05	5e-05	1e-05	5
24219	1e-05	5e-05	5e-05	4e-05	-0.00017	-0.00011	-4e-05	-1e-05	5
24220	7e-05	-1e-05	5e-05	0.00014	0.00016	0.00019	-1e-05	0	5
24221	7e-05	-1e-05	5e-05	0.00014	0.00016	0.00019	-1e-05	0	5
24222	7e-05	-1e-05	5e-05	0.00014	0.00016	0.00019	-1e-05	0	5
24223	7e-05	-1e-05	5e-05	0.00014	0.00016	0.00019	-1e-05	0	5
24224	7e-05	-1e-05	5e-05	0.00014	0.00016	0.00019	-1e-05	0	5
24225	7e-05	-1e-05	5e-05	0.00014	0.00016	0.00019	-1e-05	0	5
24226	7e-05	-1e-05	5e-05	0.00014	0.00016	0.00019	-1e-05	0	5
24227	7e-05	-1e-05	5e-05	0.00014	0.00016	0.00019	-1e-05	0	5
24228	7e-05	-1e-05	5e-05	0.00014	0.00016	0.00019	-1e-05	0	5
24229	7e-05	-1e-05	5e-05	0.00014	0.00016	0.00019	-1e-05	0	5
24230	7e-05	-1e-05	5e-05	0.00014	0.00016	0.00019	-1e-05	0	5
24231	7e-05	-1e-05	5e-05	0.00014	0.00016	0.00019	-1e-05	0	5
24232	1e-05	-3e-05	-1e-05	0	0.00048	6e-05	2e-05	-1e-05	5
24233	1e-05	-3e-05	-1e-05	0	0.00048	6e-05	2e-05	-1e-05	5
24234	1e-05	-3e-05	-1e-05	0	0.00048	6e-05	2e-05	-1e-05	5
24235	1e-05	-3e-05	-1e-05	0	0.00048	6e-05	2e-05	-1e-05	5
24236	1e-05	-3e-05	-1e-05	0	0.00048	6e-05	2e-05	-1e-05	5
24238	1e-05	-3e-05	-1e-05	0	0.00048	6e-05	2e-05	-1e-05	5
24239	1e-05	-3e-05	-1e-05	0	0.00048	6e-05	2e-05	-1e-05	5
24240	1e-05	-3e-05	-1e-05	0	0.00048	6e-05	2e-05	-1e-05	5
24241	1e-05	-3e-05	-1e-05	0	0.00048	6e-05	2e-05	-1e-05	5
24242	-0.00012	-8e-05	0	-3e-05	-0.0002	-7e-05	-9e-05	-4e-05	5
24243	-0.00012	-8e-05	0	-3e-05	-0.0002	-7e-05	-9e-05	-4e-05	5
24244	-0.00012	-8e-05	0	-3e-05	-0.0002	-7e-05	-9e-05	-4e-05	5
24245	-0.00012	-8e-05	0	-3e-05	-0.0002	-7e-05	-9e-05	-4e-05	5
24246	-0.00012	-8e-05	0	-3e-05	-0.0002	-7e-05	-9e-05	-4e-05	5
24247	-0.00012	-8e-05	0	-3e-05	-0.0002	-7e-05	-9e-05	-4e-05	5
24248	-0.00012	-8e-05	0	-3e-05	-0.0002	-7e-05	-9e-05	-4e-05	5
24249	-0.00012	-8e-05	0	-3e-05	-0.0002	-7e-05	-9e-05	-4e-05	5
24250	-0.00012	-8e-05	0	-3e-05	-0.0002	-7e-05	-9e-05	-4e-05	5
24251	-0.00012	-8e-05	0	-3e-05	-0.0002	-7e-05	-9e-05	-4e-05	5
24252	-0.00012	-8e-05	0	-3e-05	-0.0002	-7e-05	-9e-05	-4e-05	5
24253	-0.00012	-8e-05	0	-3e-05	-0.0002	-7e-05	-9e-05	-4e-05	5
24254	-0.00012	-8e-05	0	-3e-05	-0.0002	-7e-05	-9e-05	-4e-05	5
24255	-0.00012	-8e-05	0	-3e-05	-0.0002	-7e-05	-9e-05	-4e-05	5
24256	0.00013	-3e-05	-0.00014	-0.00017	-0.00011	1e-05	-5e-05	-5e-05	5
24257	0.00013	-3e-05	-0.00014	-0.00017	-0.00011	1e-05	-5e-05	-5e-05	5
24258	0.00013	-3e-05	-0.00014	-0.00017	-0.00011	1e-05	-5e-05	-5e-05	5
24259	0.00013	-3e-05	-0.00014	-0.00017	-0.00011	1e-05	-5e-05	-5e-05	5
24260	0.00013	-3e-05	-0.00014	-0.00017	-0.00011	1e-05	-5e-05	-5e-05	5
24261	0.00013	-3e-05	-0.00014	-0.00017	-0.00011	1e-05	-5e-05	-5e-05	5
24262	-1e-05	-4e-05	-3e-05	9e-05	0.00073	-0.00011	-3e-05	0	5
24263	-1e-05	-4e-05	-3e-05	9e-05	0.00073	-0.00011	-3e-05	0	5
24264	-1e-05	-4e-05	-3e-05	9e-05	0.00073	-0.00011	-3e-05	0	5
24265	-1e-05	-4e-05	-3e-05	9e-05	0.00073	-0.00011	-3e-05	0	5
24266	-1e-05	-4e-05	-3e-05	9e-05	0.00073	-0.00011	-3e-05	0	5
24267	-1e-05	-4e-05	-3e-05	9e-05	0.00073	-0.00011	-3e-05	0	5
24268	-1e-05	-4e-05	-3e-05	9e-05	0.00073	-0.00011	-3e-05	0	5
24269	-1e-05	-4e-05	-3e-05	9e-05	0.00073	-0.00011	-3e-05	0	5
24270	-1e-05	-4e-05	-3e-05	9e-05	0.00073	-0.00011	-3e-05	0	5
24271	-1e-05	-4e-05	-3e-05	9e-05	0.00073	-0.00011	-3e-05	0	5
24272	-1e-05	-4e-05	-3e-05	9e-05	0.00073	-0.00011	-3e-05	0	5
24273	-1e-05	-4e-05	-3e-05	9e-05	0.00073	-0.00011	-3e-05	0	5
24274	-1e-05	-4e-05	-3e-05	9e-05	0.00073	-0.00011	-3e-05	0	5
24275	-1e-05	-4e-05	-3e-05	9e-05	0.00073	-0.00011	-3e-05	0	5
24276	-1e-05	-4e-05	-3e-05	9e-05	0.00073	-0.00011	-3e-05	0	5
24277	-1e-05	-4e-05	-3e-05	9e-05	0.00073	-0.00011	-3e-05	0	5
24278	-1e-05	-4e-05	-3e-05	9e-05	0.00073	-0.00011	-3e-05	0	5
24279	0	1e-05	1e-05	0	-0.00012	-0.00012	-1e-05	-1e-05	5
24280	0	1e-05	1e-05	0	-0.00012	-0.00012	-1e-05	-1e-05	5
24281	3e-05	-1e-05	-7e-05	-9e-05	-0.00075	0.00011	3e-05	-1e-05	5
24282	3e-05	-1e-05	-7e-05	-9e-05	-0.00075	0.00011	3e-05	-1e-05	5
24283	3e-05	-1e-05	-7e-05	-9e-05	-0.00075	0.00011	3e-05	-1e-05	5
24284	3e-05	-1e-05	-7e-05	-9e-05	-0.00075	0.00011	3e-05	-1e-05	5
24285	3e-05	-1e-05	-7e-05	-9e-05	-0.00075	0.00011	3e-05	-1e-05	5
24286	3e-05	-1e-05	-7e-05	-9e-05	-0.00075	0.00011	3e-05	-1e-05	5
24288	3e-05	-1e-05	-7e-05	-9e-05	-0.00075	0.00011	3e-05	-1e-05	5
24289	3e-05	-1e-05	-7e-05	-9e-05	-0.00075	0.00011	3e-05	-1e-05	5
24290	3e-05	-1e-05	-7e-05	-9e-05	-0.00075	0.00011	3e-05	-1e-05	5
24291	3e-05	-1e-05	-7e-05	-9e-05	-0.00075	0.00011	3e-05	-1e-05	5
24292	3e-05	-1e-05	-7e-05	-9e-05	-0.00075	0.00011	3e-05	-1e-05	5
24293	3e-05	-1e-05	-7e-05	-9e-05	-0.00075	0.00011	3e-05	-1e-05	5
24294	3e-05	-1e-05	-7e-05	-9e-05	-0.00075	0.00011	3e-05	-1e-05	5
24295	3e-05	-1e-05	-7e-05	-9e-05	-0.00075	0.00011	3e-05	-1e-05	5
24296	3e-05	-1e-05	-7e-05	-9e-05	-0.00075	0.00011	3e-05	-1e-05	5
24297	3e-05	-1e-05	-7e-05	-9e-05	-0.00075	0.00011	3e-05	-1e-05	5
24298	3e-05	-1e-05	-7e-05	-9e-05	-0.00075	0.00011	3e-05	-1e-05	5
24299	3e-05	-1e-05	-7e-05	-9e-05	-0.00075	0.00011	3e-05	-1e-05	5
24300	3e-05	-1e-05	-7e-05	-9e-05	-0.00075	0.00011	3e-05	-1e-05	5
24301	0.00011	-6e-05	2e-05	8e-05	-0.00013	-2e-05	2e-05	4e-05	5
24302	0.00011	-6e-05	2e-05	8e-05	-0.00013	-2e-05	2e-05	4e-05	5
24303	1e-05	6e-05	-1e-05	-6e-05	1e-05	-0.0001	-2e-05	-2e-05	5
24304	1e-05	6e-05	-1e-05	-6e-05	1e-05	-0.0001	-2e-05	-2e-05	5
24305	1e-05	6e-05	-1e-05	-6e-05	1e-05	-0.0001	-2e-05	-2e-05	5
24306	1e-05	6e-05	-1e-05	-6e-05	1e-05	-0.0001	-2e-05	-2e-05	5
24307	1e-05	6e-05	-1e-05	-6e-05	1e-05	-0.0001	-2e-05	-2e-05	5
24308	1e-05	6e-05	-1e-05	-6e-05	1e-05	-0.0001	-2e-05	-2e-05	5
24309	1e-05	6e-05	-1e-05	-6e-05	1e-05	-0.0001	-2e-05	-2e-05	5
24310	1e-05	6e-05	-1e-05	-6e-05	1e-05	-0.0001	-2e-05	-2e-05	5
24311	1e-05	6e-05	-1e-05	-6e-05	1e-05	-0.0001	-2e-05	-2e-05	5
24312	1e-05	6e-05	-1e-05	-6e-05	1e-05	-0.0001	-2e-05	-2e-05	5
24313	1e-05	6e-05	-1e-05	-6e-05	1e-05	-0.0001	-2e-05	-2e-05	5
24314	1e-05	6e-05	-1e-05	-6e-05	1e-05	-0.0001	-2e-05	-2e-05	5
24315	1e-05	6e-05	-1e-05	-6e-05	1e-05	-0.0001	-2e-05	-2e-05	5
24316	-3e-05	-6e-05	2e-05	4e-05	0	-6e-05	1e-05	-1e-05	5
24317	3e-05	3e-05	-6e-05	-0.00016	-0.00023	-0.0001	-3e-05	0	5
24318	3e-05	3e-05	-6e-05	-0.00016	-0.00023	-0.0001	-3e-05	0	5
24319	3e-05	3e-05	-6e-05	-0.00016	-0.00023	-0.0001	-3e-05	0	5
24320	3e-05	3e-05	-6e-05	-0.00016	-0.00023	-0.0001	-3e-05	0	5
24321	3e-05	3e-05	-6e-05	-0.00016	-0.00023	-0.0001	-3e-05	0	5
24322	3e-05	3e-05	-6e-05	-0.00016	-0.00023	-0.0001	-3e-05	0	5
24323	3e-05	3e-05	-6e-05	-0.00016	-0.00023	-0.0001	-3e-05	0	5
24324	3e-05	3e-05	-6e-05	-0.00016	-0.00023	-0.0001	-3e-05	0	5
24325	3e-05	3e-05	-6e-05	-0.00016	-0.00023	-0.0001	-3e-05	0	5
24326	3e-05	3e-05	-6e-05	-0.00016	-0.00023	-0.0001	-3e-05	0	5
24327	3e-05	3e-05	-6e-05	-0.00016	-0.00023	-0.0001	-3e-05	0	5
24328	3e-05	3e-05	-6e-05	-0.00016	-0.00023	-0.0001	-3e-05	0	5
24329	3e-05	3e-05	-6e-05	-0.00016	-0.00023	-0.0001	-3e-05	0	5
24330	3e-05	3e-05	-6e-05	-0.00016	-0.00023	-0.0001	-3e-05	0	5
24331	3e-05	3e-05	-6e-05	-0.00016	-0.00023	-0.0001	-3e-05	0	5
24332	3e-05	3e-05	-6e-05	-0.00016	-0.00023	-0.0001	-3e-05	0	5
24333	3e-05	3e-05	-6e-05	-0.00016	-0.00023	-0.0001	-3e-05	0	5
24334	3e-05	3e-05	-6e-05	-0.00016	-0.00023	-0.0001	-3e-05	0	5
24335	3e-05	3e-05	-6e-05	-0.00016	-0.00023	-0.0001	-3e-05	0	5
24336	3e-05	3e-05	-6e-05	-0.00016	-0.00023	-0.0001	-3e-05	0	5
24338	3e-05	3e-05	-6e-05	-0.00016	-0.00023	-0.0001	-3e-05	0	5
24339	2e-05	9e-05	2e-05	-4e-05	-0.0002	-4e-05	2e-05	1e-05	5
24340	2e-05	9e-05	2e-05	-4e-05	-0.0002	-4e-05	2e-05	1e-05	5
24341	2e-05	9e-05	2e-05	-4e-05	-0.0002	-4e-05	2e-05	1e-05	5
24342	2e-05	9e-05	2e-05	-4e-05	-0.0002	-4e-05	2e-05	1e-05	5
24343	2e-05	9e-05	2e-05	-4e-05	-0.0002	-4e-05	2e-05	1e-05	5
24344	2e-05	9e-05	2e-05	-4e-05	-0.0002	-4e-05	2e-05	1e-05	5
24345	2e-05	9e-05	2e-05	-4e-05	-0.0002	-4e-05	2e-05	1e-05	5
24346	2e-05	9e-05	2e-05	-4e-05	-0.0002	-4e-05	2e-05	1e-05	5
24347	2e-05	9e-05	2e-05	-4e-05	-0.0002	-4e-05	2e-05	1e-05	5
24348	2e-05	9e-05	2e-05	-4e-05	-0.0002	-4e-05	2e-05	1e-05	5
24349	2e-05	9e-05	2e-05	-4e-05	-0.0002	-4e-05	2e-05	1e-05	5
24350	2e-05	9e-05	2e-05	-4e-05	-0.0002	-4e-05	2e-05	1e-05	5
24351	2e-05	9e-05	2e-05	-4e-05	-0.0002	-4e-05	2e-05	1e-05	5
24352	2e-05	9e-05	2e-05	-4e-05	-0.0002	-4e-05	2e-05	1e-05	5
24353	2e-05	9e-05	2e-05	-4e-05	-0.0002	-4e-05	2e-05	1e-05	5
24354	2e-05	9e-05	2e-05	-4e-05	-0.0002	-4e-05	2e-05	1e-05	5
24355	2e-05	9e-05	2e-05	-4e-05	-0.0002	-4e-05	2e-05	1e-05	5
24356	2e-05	9e-05	2e-05	-4e-05	-0.0002	-4e-05	2e-05	1e-05	5
24357	2e-05	9e-05	2e-05	-4e-05	-0.0002	-4e-05	2e-05	1e-05	5
24358	2e-05	9e-05	2e-05	-4e-05	-0.0002	-4e-05	2e-05	1e-05	5
24359	2e-05	9e-05	2e-05	-4e-05	-0.0002	-4e-05	2e-05	1e-05	5
24360	-2e-05	-8e-05	-9e-05	-0.0001	-5e-05	-2e-05	-1e-05	-2e-05	5
24361	2e-05	-2e-05	-0.00014	-0.00019	-0.00066	-0.00016	9e-05	-2e-05	5
24362	-7e-05	-7e-05	-5e-05	-3e-05	5e-05	-3e-05	-2e-05	0	5
24363	-7e-05	-7e-05	-5e-05	-3e-05	5e-05	-3e-05	-2e-05	0	5
24364	-7e-05	-7e-05	-5e-05	-3e-05	5e-05	-3e-05	-2e-05	0	5
24365	-7e-05	-7e-05	-5e-05	-3e-05	5e-05	-3e-05	-2e-05	0	5
24366	-7e-05	-7e-05	-5e-05	-3e-05	5e-05	-3e-05	-2e-05	0	5
24367	-7e-05	-7e-05	-5e-05	-3e-05	5e-05	-3e-05	-2e-05	0	5
24368	-7e-05	-7e-05	-5e-05	-3e-05	5e-05	-3e-05	-2e-05	0	5
24369	-7e-05	-7e-05	-5e-05	-3e-05	5e-05	-3e-05	-2e-05	0	5
24370	-7e-05	-7e-05	-5e-05	-3e-05	5e-05	-3e-05	-2e-05	0	5
24371	-7e-05	-7e-05	-5e-05	-3e-05	5e-05	-3e-05	-2e-05	0	5
24372	-7e-05	-7e-05	-5e-05	-3e-05	5e-05	-3e-05	-2e-05	0	5
24373	-7e-05	-7e-05	-5e-05	-3e-05	5e-05	-3e-05	-2e-05	0	5
24374	-7e-05	-7e-05	-5e-05	-3e-05	5e-05	-3e-05	-2e-05	0	5
24375	4e-05	-3e-05	-8e-05	-7e-05	-4e-05	-0.0001	-3e-05	-3e-05	5
24376	0	-2e-05	0	4e-05	0.00039	-7e-05	1e-05	-1e-05	5
24377	0	-2e-05	0	4e-05	0.00039	-7e-05	1e-05	-1e-05	5
24378	0	-2e-05	0	4e-05	0.00039	-7e-05	1e-05	-1e-05	5
24379	0	-2e-05	0	4e-05	0.00039	-7e-05	1e-05	-1e-05	5
24380	0	-2e-05	0	4e-05	0.00039	-7e-05	1e-05	-1e-05	5
24381	0	-2e-05	0	4e-05	0.00039	-7e-05	1e-05	-1e-05	5
24382	0	-2e-05	0	4e-05	0.00039	-7e-05	1e-05	-1e-05	5
24383	0	-2e-05	0	4e-05	0.00039	-7e-05	1e-05	-1e-05	5
24384	0	-2e-05	0	4e-05	0.00039	-7e-05	1e-05	-1e-05	5
24385	0	-2e-05	0	4e-05	0.00039	-7e-05	1e-05	-1e-05	5
24386	0	-2e-05	0	4e-05	0.00039	-7e-05	1e-05	-1e-05	5
24388	0	-2e-05	0	4e-05	0.00039	-7e-05	1e-05	-1e-05	5
24389	0	-2e-05	0	4e-05	0.00039	-7e-05	1e-05	-1e-05	5
24390	0	-2e-05	0	4e-05	0.00039	-7e-05	1e-05	-1e-05	5
24391	0	-2e-05	0	4e-05	0.00039	-7e-05	1e-05	-1e-05	5
24392	0	-2e-05	0	4e-05	0.00039	-7e-05	1e-05	-1e-05	5
24393	0	-2e-05	0	4e-05	0.00039	-7e-05	1e-05	-1e-05	5
24394	0	-2e-05	0	4e-05	0.00039	-7e-05	1e-05	-1e-05	5
24395	0	-2e-05	0	4e-05	0.00039	-7e-05	1e-05	-1e-05	5
24396	0	-2e-05	0	4e-05	0.00039	-7e-05	1e-05	-1e-05	5
24397	0	-2e-05	0	4e-05	0.00039	-7e-05	1e-05	-1e-05	5
24398	-7e-05	-5e-05	-7e-05	-9e-05	0.0002	-9e-05	-8e-05	-4e-05	5
24399	1e-05	3e-05	2e-05	-5e-05	-0.0006	4e-05	1e-05	-3e-05	5
24400	1e-05	3e-05	2e-05	-5e-05	-0.0006	4e-05	1e-05	-3e-05	5
24401	1e-05	3e-05	2e-05	-5e-05	-0.0006	4e-05	1e-05	-3e-05	5
24402	1e-05	3e-05	2e-05	-5e-05	-0.0006	4e-05	1e-05	-3e-05	5
24403	1e-05	3e-05	2e-05	-5e-05	-0.0006	4e-05	1e-05	-3e-05	5
24404	1e-05	3e-05	2e-05	-5e-05	-0.0006	4e-05	1e-05	-3e-05	5
24405	1e-05	3e-05	2e-05	-5e-05	-0.0006	4e-05	1e-05	-3e-05	5
24406	1e-05	3e-05	2e-05	-5e-05	-0.0006	4e-05	1e-05	-3e-05	5
24407	1e-05	3e-05	2e-05	-5e-05	-0.0006	4e-05	1e-05	-3e-05	5
24408	1e-05	3e-05	2e-05	-5e-05	-0.0006	4e-05	1e-05	-3e-05	5
24409	1e-05	3e-05	2e-05	-5e-05	-0.0006	4e-05	1e-05	-3e-05	5
24410	1e-05	3e-05	2e-05	-5e-05	-0.0006	4e-05	1e-05	-3e-05	5
24411	1e-05	3e-05	2e-05	-5e-05	-0.0006	4e-05	1e-05	-3e-05	5
24412	1e-05	3e-05	2e-05	-5e-05	-0.0006	4e-05	1e-05	-3e-05	5
24413	1e-05	3e-05	2e-05	-5e-05	-0.0006	4e-05	1e-05	-3e-05	5
24414	1e-05	3e-05	2e-05	-5e-05	-0.0006	4e-05	1e-05	-3e-05	5
24415	1e-05	3e-05	2e-05	-5e-05	-0.0006	4e-05	1e-05	-3e-05	5
24416	1e-05	3e-05	2e-05	-5e-05	-0.0006	4e-05	1e-05	-3e-05	5
24417	1e-05	3e-05	2e-05	-5e-05	-0.0006	4e-05	1e-05	-3e-05	5
24418	1e-05	3e-05	2e-05	-5e-05	-0.0006	4e-05	1e-05	-3e-05	5
24419	1e-05	3e-05	2e-05	-5e-05	-0.0006	4e-05	1e-05	-3e-05	5
24420	-3e-05	3e-05	8e-05	2e-05	-0.00032	0	-1e-05	1e-05	5
24421	1e-05	0	1e-05	-3e-05	9e-05	-0.0001	-6e-05	-3e-05	5
24422	1e-05	0	1e-05	-3e-05	9e-05	-0.0001	-6e-05	-3e-05	5
24423	1e-05	0	1e-05	-3e-05	9e-05	-0.0001	-6e-05	-3e-05	5
24424	1e-05	0	1e-05	-3e-05	9e-05	-0.0001	-6e-05	-3e-05	5
24425	1e-05	0	1e-05	-3e-05	9e-05	-0.0001	-6e-05	-3e-05	5
24426	1e-05	0	1e-05	-3e-05	9e-05	-0.0001	-6e-05	-3e-05	5
24427	1e-05	0	1e-05	-3e-05	9e-05	-0.0001	-6e-05	-3e-05	5
24428	1e-05	0	1e-05	-3e-05	9e-05	-0.0001	-6e-05	-3e-05	5
24429	1e-05	0	1e-05	-3e-05	9e-05	-0.0001	-6e-05	-3e-05	5
24430	1e-05	0	1e-05	-3e-05	9e-05	-0.0001	-6e-05	-3e-05	5
24431	1e-05	0	1e-05	-3e-05	9e-05	-0.0001	-6e-05	-3e-05	5
24432	1e-05	0	1e-05	-3e-05	9e-05	-0.0001	-6e-05	-3e-05	5
24433	1e-05	0	1e-05	-3e-05	9e-05	-0.0001	-6e-05	-3e-05	5
24434	1e-05	0	1e-05	-3e-05	9e-05	-0.0001	-6e-05	-3e-05	5
24435	1e-05	0	1e-05	-3e-05	9e-05	-0.0001	-6e-05	-3e-05	5
24436	1e-05	0	1e-05	-3e-05	9e-05	-0.0001	-6e-05	-3e-05	5
24439	-4e-05	1e-05	0	6e-05	-0.0002	0.00018	1e-05	-3e-05	5
24440	-4e-05	1e-05	0	6e-05	-0.0002	0.00018	1e-05	-3e-05	5
24441	-4e-05	1e-05	0	6e-05	-0.0002	0.00018	1e-05	-3e-05	5
24442	-4e-05	1e-05	0	6e-05	-0.0002	0.00018	1e-05	-3e-05	5
24443	-4e-05	1e-05	0	6e-05	-0.0002	0.00018	1e-05	-3e-05	5
24444	-4e-05	1e-05	0	6e-05	-0.0002	0.00018	1e-05	-3e-05	5
24445	-4e-05	1e-05	0	6e-05	-0.0002	0.00018	1e-05	-3e-05	5
24446	-4e-05	1e-05	0	6e-05	-0.0002	0.00018	1e-05	-3e-05	5
24447	-4e-05	1e-05	0	6e-05	-0.0002	0.00018	1e-05	-3e-05	5
24448	-4e-05	1e-05	0	6e-05	-0.0002	0.00018	1e-05	-3e-05	5
24449	-4e-05	1e-05	0	6e-05	-0.0002	0.00018	1e-05	-3e-05	5
24450	-4e-05	1e-05	0	6e-05	-0.0002	0.00018	1e-05	-3e-05	5
24451	-4e-05	1e-05	0	6e-05	-0.0002	0.00018	1e-05	-3e-05	5
24452	-4e-05	1e-05	0	6e-05	-0.0002	0.00018	1e-05	-3e-05	5
24453	-4e-05	1e-05	0	6e-05	-0.0002	0.00018	1e-05	-3e-05	5
24454	-4e-05	1e-05	0	6e-05	-0.0002	0.00018	1e-05	-3e-05	5
24455	-4e-05	1e-05	0	6e-05	-0.0002	0.00018	1e-05	-3e-05	5
24456	-4e-05	1e-05	0	6e-05	-0.0002	0.00018	1e-05	-3e-05	5
24457	-4e-05	1e-05	0	6e-05	-0.0002	0.00018	1e-05	-3e-05	5
24458	-3e-05	4e-05	-1e-05	0.0001	0.00021	-1e-05	-6e-05	-3e-05	5
24459	-9e-05	-0.00014	-0.0001	0.00013	2e-05	-7e-05	0	-1e-05	5
24460	-9e-05	-0.00014	-0.0001	0.00013	2e-05	-7e-05	0	-1e-05	5
24461	-9e-05	-0.00014	-0.0001	0.00013	2e-05	-7e-05	0	-1e-05	5
24462	-9e-05	-0.00014	-0.0001	0.00013	2e-05	-7e-05	0	-1e-05	5
24463	-9e-05	-0.00014	-0.0001	0.00013	2e-05	-7e-05	0	-1e-05	5
24464	-9e-05	-0.00014	-0.0001	0.00013	2e-05	-7e-05	0	-1e-05	5
24465	-9e-05	-0.00014	-0.0001	0.00013	2e-05	-7e-05	0	-1e-05	5
24466	-9e-05	-0.00014	-0.0001	0.00013	2e-05	-7e-05	0	-1e-05	5
24467	-9e-05	-0.00014	-0.0001	0.00013	2e-05	-7e-05	0	-1e-05	5
24468	-9e-05	-0.00014	-0.0001	0.00013	2e-05	-7e-05	0	-1e-05	5
24469	-9e-05	-0.00014	-0.0001	0.00013	2e-05	-7e-05	0	-1e-05	5
24470	-9e-05	-0.00014	-0.0001	0.00013	2e-05	-7e-05	0	-1e-05	5
24471	-9e-05	-0.00014	-0.0001	0.00013	2e-05	-7e-05	0	-1e-05	5
24472	-9e-05	-0.00014	-0.0001	0.00013	2e-05	-7e-05	0	-1e-05	5
24473	-9e-05	-0.00014	-0.0001	0.00013	2e-05	-7e-05	0	-1e-05	5
24474	-9e-05	-0.00014	-0.0001	0.00013	2e-05	-7e-05	0	-1e-05	5
24475	-9e-05	-0.00014	-0.0001	0.00013	2e-05	-7e-05	0	-1e-05	5
24476	-9e-05	-0.00014	-0.0001	0.00013	2e-05	-7e-05	0	-1e-05	5
24477	-9e-05	-0.00014	-0.0001	0.00013	2e-05	-7e-05	0	-1e-05	5
24478	-9e-05	-0.00014	-0.0001	0.00013	2e-05	-7e-05	0	-1e-05	5
24479	-9e-05	-0.00014	-0.0001	0.00013	2e-05	-7e-05	0	-1e-05	5
24480	-9e-05	-0.00014	-0.0001	0.00013	2e-05	-7e-05	0	-1e-05	5
24481	-9e-05	-0.00014	-0.0001	0.00013	2e-05	-7e-05	0	-1e-05	5
24482	-9e-05	-0.00014	-0.0001	0.00013	2e-05	-7e-05	0	-1e-05	5
24483	-9e-05	-0.00014	-0.0001	0.00013	2e-05	-7e-05	0	-1e-05	5
24484	-9e-05	-0.00014	-0.0001	0.00013	2e-05	-7e-05	0	-1e-05	5
24485	-9e-05	-0.00014	-0.0001	0.00013	2e-05	-7e-05	0	-1e-05	5
24486	-9e-05	-0.00014	-0.0001	0.00013	2e-05	-7e-05	0	-1e-05	5
24488	0.00023	6e-05	1e-05	-8e-05	-0.00029	-4e-05	-3e-05	-3e-05	5
24489	0.00023	6e-05	1e-05	-8e-05	-0.00029	-4e-05	-3e-05	-3e-05	5
24490	0.00023	6e-05	1e-05	-8e-05	-0.00029	-4e-05	-3e-05	-3e-05	5
24491	0.00023	6e-05	1e-05	-8e-05	-0.00029	-4e-05	-3e-05	-3e-05	5
24492	0.00023	6e-05	1e-05	-8e-05	-0.00029	-4e-05	-3e-05	-3e-05	5
24493	0.00023	6e-05	1e-05	-8e-05	-0.00029	-4e-05	-3e-05	-3e-05	5
24494	0.00023	6e-05	1e-05	-8e-05	-0.00029	-4e-05	-3e-05	-3e-05	5
24495	0.00023	6e-05	1e-05	-8e-05	-0.00029	-4e-05	-3e-05	-3e-05	5
24496	0.00023	6e-05	1e-05	-8e-05	-0.00029	-4e-05	-3e-05	-3e-05	5
24497	6e-05	6e-05	8e-05	-2e-05	0.00022	-0.00014	-2e-05	1e-05	5
24498	0.00019	8e-05	7e-05	0.00028	-4e-05	6e-05	-4e-05	-8e-05	5
24499	8e-05	-0.0001	-1e-05	5e-05	0.00038	-1e-05	-2e-05	-1e-05	5
24500	8e-05	-0.0001	-1e-05	5e-05	0.00038	-1e-05	-2e-05	-1e-05	5
24501	8e-05	-0.0001	-1e-05	5e-05	0.00038	-1e-05	-2e-05	-1e-05	5
24502	8e-05	-0.0001	-1e-05	5e-05	0.00038	-1e-05	-2e-05	-1e-05	5
24503	8e-05	-0.0001	-1e-05	5e-05	0.00038	-1e-05	-2e-05	-1e-05	5
24504	8e-05	-0.0001	-1e-05	5e-05	0.00038	-1e-05	-2e-05	-1e-05	5
24505	8e-05	-0.0001	-1e-05	5e-05	0.00038	-1e-05	-2e-05	-1e-05	5
24506	8e-05	-0.0001	-1e-05	5e-05	0.00038	-1e-05	-2e-05	-1e-05	5
24507	8e-05	-0.0001	-1e-05	5e-05	0.00038	-1e-05	-2e-05	-1e-05	5
24508	8e-05	-0.0001	-1e-05	5e-05	0.00038	-1e-05	-2e-05	-1e-05	5
24509	8e-05	-0.0001	-1e-05	5e-05	0.00038	-1e-05	-2e-05	-1e-05	5
24510	8e-05	-0.0001	-1e-05	5e-05	0.00038	-1e-05	-2e-05	-1e-05	5
24511	8e-05	-0.0001	-1e-05	5e-05	0.00038	-1e-05	-2e-05	-1e-05	5
24512	8e-05	-0.0001	-1e-05	5e-05	0.00038	-1e-05	-2e-05	-1e-05	5
24513	8e-05	-0.0001	-1e-05	5e-05	0.00038	-1e-05	-2e-05	-1e-05	5
24514	8e-05	-0.0001	-1e-05	5e-05	0.00038	-1e-05	-2e-05	-1e-05	5
24515	8e-05	-0.0001	-1e-05	5e-05	0.00038	-1e-05	-2e-05	-1e-05	5
24516	8e-05	-0.0001	-1e-05	5e-05	0.00038	-1e-05	-2e-05	-1e-05	5
24517	8e-05	-0.0001	-1e-05	5e-05	0.00038	-1e-05	-2e-05	-1e-05	5
24518	-1e-05	-3e-05	-9e-05	-0.00012	0.00016	1e-05	2e-05	3e-05	5
24519	-1e-05	-3e-05	-9e-05	-0.00012	0.00016	1e-05	2e-05	3e-05	5
24520	-1e-05	-3e-05	-9e-05	-0.00012	0.00016	1e-05	2e-05	3e-05	5
24521	-1e-05	-3e-05	-9e-05	-0.00012	0.00016	1e-05	2e-05	3e-05	5
24522	-1e-05	-3e-05	-9e-05	-0.00012	0.00016	1e-05	2e-05	3e-05	5
24523	-1e-05	-3e-05	-9e-05	-0.00012	0.00016	1e-05	2e-05	3e-05	5
24524	-1e-05	-3e-05	-9e-05	-0.00012	0.00016	1e-05	2e-05	3e-05	5
24525	-0.00013	-7e-05	-6e-05	-0.00012	-0.00021	-5e-05	2e-05	-6e-05	5
24526	-0.00013	-7e-05	-6e-05	-0.00012	-0.00021	-5e-05	2e-05	-6e-05	5
24527	-0.00013	-7e-05	-6e-05	-0.00012	-0.00021	-5e-05	2e-05	-6e-05	5
24528	-0.00013	-7e-05	-6e-05	-0.00012	-0.00021	-5e-05	2e-05	-6e-05	5
24529	-0.00013	-7e-05	-6e-05	-0.00012	-0.00021	-5e-05	2e-05	-6e-05	5
24530	-0.00013	-7e-05	-6e-05	-0.00012	-0.00021	-5e-05	2e-05	-6e-05	5
24531	-0.00013	-7e-05	-6e-05	-0.00012	-0.00021	-5e-05	2e-05	-6e-05	5
24532	-0.00013	-7e-05	-6e-05	-0.00012	-0.00021	-5e-05	2e-05	-6e-05	5
24533	-0.00013	-7e-05	-6e-05	-0.00012	-0.00021	-5e-05	2e-05	-6e-05	5
24534	-0.00013	-7e-05	-6e-05	-0.00012	-0.00021	-5e-05	2e-05	-6e-05	5
24535	-0.00013	-7e-05	-6e-05	-0.00012	-0.00021	-5e-05	2e-05	-6e-05	5
24536	-0.00013	-7e-05	-6e-05	-0.00012	-0.00021	-5e-05	2e-05	-6e-05	5
24538	-0.00013	-7e-05	-6e-05	-0.00012	-0.00021	-5e-05	2e-05	-6e-05	5
24539	-0.00013	-7e-05	-6e-05	-0.00012	-0.00021	-5e-05	2e-05	-6e-05	5
24540	-0.00013	-7e-05	-6e-05	-0.00012	-0.00021	-5e-05	2e-05	-6e-05	5
24541	-0.00013	-7e-05	-6e-05	-0.00012	-0.00021	-5e-05	2e-05	-6e-05	5
24542	-0.00013	-7e-05	-6e-05	-0.00012	-0.00021	-5e-05	2e-05	-6e-05	5
24543	-0.00013	-7e-05	-6e-05	-0.00012	-0.00021	-5e-05	2e-05	-6e-05	5
24544	-0.00013	-7e-05	-6e-05	-0.00012	-0.00021	-5e-05	2e-05	-6e-05	5
24545	-0.00013	-7e-05	-6e-05	-0.00012	-0.00021	-5e-05	2e-05	-6e-05	5
24546	-0.00013	-7e-05	-6e-05	-0.00012	-0.00021	-5e-05	2e-05	-6e-05	5
24547	-0.00013	-7e-05	-6e-05	-0.00012	-0.00021	-5e-05	2e-05	-6e-05	5
24548	-0.00013	-7e-05	-6e-05	-0.00012	-0.00021	-5e-05	2e-05	-6e-05	5
24549	-0.00013	-7e-05	-6e-05	-0.00012	-0.00021	-5e-05	2e-05	-6e-05	5
24550	-0.00013	-7e-05	-6e-05	-0.00012	-0.00021	-5e-05	2e-05	-6e-05	5
24551	-0.00013	-7e-05	-6e-05	-0.00012	-0.00021	-5e-05	2e-05	-6e-05	5
24552	-0.00013	-7e-05	-6e-05	-0.00012	-0.00021	-5e-05	2e-05	-6e-05	5
24553	-0.00013	-7e-05	-6e-05	-0.00012	-0.00021	-5e-05	2e-05	-6e-05	5
24554	-0.00013	-7e-05	-6e-05	-0.00012	-0.00021	-5e-05	2e-05	-6e-05	5
24555	-0.00013	-7e-05	-6e-05	-0.00012	-0.00021	-5e-05	2e-05	-6e-05	5
24556	-0.00013	-7e-05	-6e-05	-0.00012	-0.00021	-5e-05	2e-05	-6e-05	5
24557	-5e-05	-5e-05	-5e-05	-0.00024	-0.00061	-0.00015	-4e-05	2e-05	5
24558	-9e-05	-1e-05	-8e-05	-0.00012	0.00021	-1e-05	-2e-05	-1e-05	5
24559	-9e-05	-1e-05	-8e-05	-0.00012	0.00021	-1e-05	-2e-05	-1e-05	5
24560	-0.00012	-0.0001	-6e-05	0.00022	0.00098	0.00034	6e-05	0	5
24561	-0.00012	-0.0001	-6e-05	0.00022	0.00098	0.00034	6e-05	0	5
24562	-0.00012	-0.0001	-6e-05	0.00022	0.00098	0.00034	6e-05	0	5
24563	-7e-05	0	3e-05	-7e-05	-0.00025	5e-05	2e-05	1e-05	5
24564	-7e-05	0	3e-05	-7e-05	-0.00025	5e-05	2e-05	1e-05	5
24565	-7e-05	0	3e-05	-7e-05	-0.00025	5e-05	2e-05	1e-05	5
24566	-7e-05	0	3e-05	-7e-05	-0.00025	5e-05	2e-05	1e-05	5
24567	-7e-05	0	3e-05	-7e-05	-0.00025	5e-05	2e-05	1e-05	5
24568	-7e-05	0	3e-05	-7e-05	-0.00025	5e-05	2e-05	1e-05	5
24569	-7e-05	0	3e-05	-7e-05	-0.00025	5e-05	2e-05	1e-05	5
24570	-7e-05	0	3e-05	-7e-05	-0.00025	5e-05	2e-05	1e-05	5
24571	-7e-05	0	3e-05	-7e-05	-0.00025	5e-05	2e-05	1e-05	5
24572	-7e-05	0	3e-05	-7e-05	-0.00025	5e-05	2e-05	1e-05	5
24573	-7e-05	0	3e-05	-7e-05	-0.00025	5e-05	2e-05	1e-05	5
24574	-7e-05	0	3e-05	-7e-05	-0.00025	5e-05	2e-05	1e-05	5
24575	-7e-05	0	3e-05	-7e-05	-0.00025	5e-05	2e-05	1e-05	5
24576	-7e-05	0	3e-05	-7e-05	-0.00025	5e-05	2e-05	1e-05	5
24577	-7e-05	0	3e-05	-7e-05	-0.00025	5e-05	2e-05	1e-05	5
24578	-7e-05	0	0	-0.0001	-0.00023	-0.00021	-2e-05	-4e-05	5
24579	-0.00022	-0.00013	0	3e-05	0.00013	0.00025	2e-05	-4e-05	5
24580	-0.00022	-0.00013	0	3e-05	0.00013	0.00025	2e-05	-4e-05	5
24581	-0.00022	-0.00013	0	3e-05	0.00013	0.00025	2e-05	-4e-05	5
24582	-0.00022	-0.00013	0	3e-05	0.00013	0.00025	2e-05	-4e-05	5
24583	-0.00022	-0.00013	0	3e-05	0.00013	0.00025	2e-05	-4e-05	5
24584	-0.00022	-0.00013	0	3e-05	0.00013	0.00025	2e-05	-4e-05	5
24585	-0.00022	-0.00013	0	3e-05	0.00013	0.00025	2e-05	-4e-05	5
24586	-0.00022	-0.00013	0	3e-05	0.00013	0.00025	2e-05	-4e-05	5
24588	-0.00022	-0.00013	0	3e-05	0.00013	0.00025	2e-05	-4e-05	5
24589	-0.00022	-0.00013	0	3e-05	0.00013	0.00025	2e-05	-4e-05	5
24590	-0.00022	-0.00013	0	3e-05	0.00013	0.00025	2e-05	-4e-05	5
24591	-0.00022	-0.00013	0	3e-05	0.00013	0.00025	2e-05	-4e-05	5
24592	-0.00022	-0.00013	0	3e-05	0.00013	0.00025	2e-05	-4e-05	5
24593	-0.00022	-0.00013	0	3e-05	0.00013	0.00025	2e-05	-4e-05	5
24594	-0.00022	-0.00013	0	3e-05	0.00013	0.00025	2e-05	-4e-05	5
24595	-0.00022	-0.00013	0	3e-05	0.00013	0.00025	2e-05	-4e-05	5
24596	-0.00022	-0.00013	0	3e-05	0.00013	0.00025	2e-05	-4e-05	5
24597	-0.00022	-0.00013	0	3e-05	0.00013	0.00025	2e-05	-4e-05	5
24598	-0.00022	-0.00013	0	3e-05	0.00013	0.00025	2e-05	-4e-05	5
24599	-0.00022	-0.00013	0	3e-05	0.00013	0.00025	2e-05	-4e-05	5
24600	-0.00011	0	3e-05	2e-05	-8e-05	-0.00019	-7e-05	1e-05	5
24601	-8e-05	-5e-05	-2e-05	-0.00013	-0.00014	6e-05	5e-05	2e-05	5
24602	-8e-05	-5e-05	-2e-05	-0.00013	-0.00014	6e-05	5e-05	2e-05	5
24603	-8e-05	-5e-05	-2e-05	-0.00013	-0.00014	6e-05	5e-05	2e-05	5
24604	-8e-05	-5e-05	-2e-05	-0.00013	-0.00014	6e-05	5e-05	2e-05	5
24605	-8e-05	-5e-05	-2e-05	-0.00013	-0.00014	6e-05	5e-05	2e-05	5
24606	-8e-05	-5e-05	-2e-05	-0.00013	-0.00014	6e-05	5e-05	2e-05	5
24607	-8e-05	-5e-05	-2e-05	-0.00013	-0.00014	6e-05	5e-05	2e-05	5
24608	-8e-05	-5e-05	-2e-05	-0.00013	-0.00014	6e-05	5e-05	2e-05	5
24609	-8e-05	-5e-05	-2e-05	-0.00013	-0.00014	6e-05	5e-05	2e-05	5
24610	-8e-05	-5e-05	-2e-05	-0.00013	-0.00014	6e-05	5e-05	2e-05	5
24611	-8e-05	-5e-05	-2e-05	-0.00013	-0.00014	6e-05	5e-05	2e-05	5
24612	-8e-05	-5e-05	-2e-05	-0.00013	-0.00014	6e-05	5e-05	2e-05	5
24613	-8e-05	-5e-05	-2e-05	-0.00013	-0.00014	6e-05	5e-05	2e-05	5
24614	-8e-05	-5e-05	-2e-05	-0.00013	-0.00014	6e-05	5e-05	2e-05	5
24615	-8e-05	-5e-05	-2e-05	-0.00013	-0.00014	6e-05	5e-05	2e-05	5
24616	-8e-05	-5e-05	-2e-05	-0.00013	-0.00014	6e-05	5e-05	2e-05	5
24617	1e-05	3e-05	0	-6e-05	-9e-05	-3e-05	-3e-05	-1e-05	5
24618	0.00012	8e-05	1e-05	-6e-05	-0.00013	-9e-05	-7e-05	0	5
24619	0.00012	8e-05	1e-05	-6e-05	-0.00013	-9e-05	-7e-05	0	5
24620	0.00012	8e-05	1e-05	-6e-05	-0.00013	-9e-05	-7e-05	0	5
24621	0.00012	8e-05	1e-05	-6e-05	-0.00013	-9e-05	-7e-05	0	5
24622	0.00012	8e-05	1e-05	-6e-05	-0.00013	-9e-05	-7e-05	0	5
24623	0.00012	8e-05	1e-05	-6e-05	-0.00013	-9e-05	-7e-05	0	5
24624	0.00012	8e-05	1e-05	-6e-05	-0.00013	-9e-05	-7e-05	0	5
24625	0.00012	8e-05	1e-05	-6e-05	-0.00013	-9e-05	-7e-05	0	5
24626	0.00012	8e-05	1e-05	-6e-05	-0.00013	-9e-05	-7e-05	0	5
24627	0.00012	8e-05	1e-05	-6e-05	-0.00013	-9e-05	-7e-05	0	5
24628	0.00012	8e-05	1e-05	-6e-05	-0.00013	-9e-05	-7e-05	0	5
24629	0.00012	8e-05	1e-05	-6e-05	-0.00013	-9e-05	-7e-05	0	5
24630	0.00012	8e-05	1e-05	-6e-05	-0.00013	-9e-05	-7e-05	0	5
24631	0.00012	8e-05	1e-05	-6e-05	-0.00013	-9e-05	-7e-05	0	5
24632	0.00012	8e-05	1e-05	-6e-05	-0.00013	-9e-05	-7e-05	0	5
24633	0.00012	8e-05	1e-05	-6e-05	-0.00013	-9e-05	-7e-05	0	5
24634	0.00012	8e-05	1e-05	-6e-05	-0.00013	-9e-05	-7e-05	0	5
24635	0.00012	8e-05	1e-05	-6e-05	-0.00013	-9e-05	-7e-05	0	5
24636	0.00012	8e-05	1e-05	-6e-05	-0.00013	-9e-05	-7e-05	0	5
24638	8e-05	3e-05	3e-05	-1e-05	-0.00039	0	-2e-05	1e-05	5
24639	8e-05	3e-05	3e-05	-1e-05	-0.00039	0	-2e-05	1e-05	5
24640	8e-05	3e-05	3e-05	-1e-05	-0.00039	0	-2e-05	1e-05	5
24641	8e-05	3e-05	3e-05	-1e-05	-0.00039	0	-2e-05	1e-05	5
24642	8e-05	3e-05	3e-05	-1e-05	-0.00039	0	-2e-05	1e-05	5
24643	8e-05	3e-05	3e-05	-1e-05	-0.00039	0	-2e-05	1e-05	5
24644	8e-05	3e-05	3e-05	-1e-05	-0.00039	0	-2e-05	1e-05	5
24645	-6e-05	-0.0001	-0.00012	-0.0001	0.00044	3e-05	-2e-05	-1e-05	5
24646	1e-05	8e-05	9e-05	0.00011	6e-05	-7e-05	-3e-05	-3e-05	5
24647	1e-05	8e-05	9e-05	0.00011	6e-05	-7e-05	-3e-05	-3e-05	5
24648	1e-05	8e-05	9e-05	0.00011	6e-05	-7e-05	-3e-05	-3e-05	5
24649	1e-05	8e-05	9e-05	0.00011	6e-05	-7e-05	-3e-05	-3e-05	5
24650	1e-05	8e-05	9e-05	0.00011	6e-05	-7e-05	-3e-05	-3e-05	5
24651	1e-05	8e-05	9e-05	0.00011	6e-05	-7e-05	-3e-05	-3e-05	5
24652	1e-05	8e-05	9e-05	0.00011	6e-05	-7e-05	-3e-05	-3e-05	5
24653	1e-05	8e-05	9e-05	0.00011	6e-05	-7e-05	-3e-05	-3e-05	5
24654	1e-05	8e-05	9e-05	0.00011	6e-05	-7e-05	-3e-05	-3e-05	5
24655	1e-05	8e-05	9e-05	0.00011	6e-05	-7e-05	-3e-05	-3e-05	5
24656	1e-05	8e-05	9e-05	0.00011	6e-05	-7e-05	-3e-05	-3e-05	5
24657	1e-05	8e-05	9e-05	0.00011	6e-05	-7e-05	-3e-05	-3e-05	5
24658	1e-05	8e-05	9e-05	0.00011	6e-05	-7e-05	-3e-05	-3e-05	5
24659	1e-05	8e-05	9e-05	0.00011	6e-05	-7e-05	-3e-05	-3e-05	5
24660	1e-05	8e-05	9e-05	0.00011	6e-05	-7e-05	-3e-05	-3e-05	5
24661	-9e-05	-1e-05	1e-05	7e-05	-0.0002	-8e-05	-3e-05	-5e-05	5
24662	0.00034	0.00021	7e-05	0	0.00014	-1e-05	1e-05	4e-05	5
24663	0.00034	0.00021	7e-05	0	0.00014	-1e-05	1e-05	4e-05	5
24664	0.00034	0.00021	7e-05	0	0.00014	-1e-05	1e-05	4e-05	5
24665	0.00034	0.00021	7e-05	0	0.00014	-1e-05	1e-05	4e-05	5
24666	0.00034	0.00021	7e-05	0	0.00014	-1e-05	1e-05	4e-05	5
24667	0.00034	0.00021	7e-05	0	0.00014	-1e-05	1e-05	4e-05	5
24668	0.00034	0.00021	7e-05	0	0.00014	-1e-05	1e-05	4e-05	5
24669	0.00034	0.00021	7e-05	0	0.00014	-1e-05	1e-05	4e-05	5
24670	0.00034	0.00021	7e-05	0	0.00014	-1e-05	1e-05	4e-05	5
24671	0.00034	0.00021	7e-05	0	0.00014	-1e-05	1e-05	4e-05	5
24672	0.00034	0.00021	7e-05	0	0.00014	-1e-05	1e-05	4e-05	5
24673	0.00034	0.00021	7e-05	0	0.00014	-1e-05	1e-05	4e-05	5
24674	0.00034	0.00021	7e-05	0	0.00014	-1e-05	1e-05	4e-05	5
24675	0.00034	0.00021	7e-05	0	0.00014	-1e-05	1e-05	4e-05	5
24676	0.00034	0.00021	7e-05	0	0.00014	-1e-05	1e-05	4e-05	5
24677	-0.00021	-0.00015	-2e-05	3e-05	4e-05	0.0001	2e-05	-1e-05	5
24678	0.00015	5e-05	0	1e-05	-1e-05	7e-05	1e-05	4e-05	5
24679	0.00015	5e-05	0	1e-05	-1e-05	7e-05	1e-05	4e-05	5
24680	0.00015	5e-05	0	1e-05	-1e-05	7e-05	1e-05	4e-05	5
24681	0.00015	5e-05	0	1e-05	-1e-05	7e-05	1e-05	4e-05	5
24682	0.00015	5e-05	0	1e-05	-1e-05	7e-05	1e-05	4e-05	5
24683	0.00015	5e-05	0	1e-05	-1e-05	7e-05	1e-05	4e-05	5
24684	0.00015	5e-05	0	1e-05	-1e-05	7e-05	1e-05	4e-05	5
24685	0.00015	5e-05	0	1e-05	-1e-05	7e-05	1e-05	4e-05	5
24686	0.00015	5e-05	0	1e-05	-1e-05	7e-05	1e-05	4e-05	5
24688	0.00015	5e-05	0	1e-05	-1e-05	7e-05	1e-05	4e-05	5
24689	0.00015	5e-05	0	1e-05	-1e-05	7e-05	1e-05	4e-05	5
24690	0.00015	5e-05	0	1e-05	-1e-05	7e-05	1e-05	4e-05	5
24691	0.00015	5e-05	0	1e-05	-1e-05	7e-05	1e-05	4e-05	5
24692	0.00015	5e-05	0	1e-05	-1e-05	7e-05	1e-05	4e-05	5
24693	0.00015	5e-05	0	1e-05	-1e-05	7e-05	1e-05	4e-05	5
24694	0.00015	5e-05	0	1e-05	-1e-05	7e-05	1e-05	4e-05	5
24695	0.00015	5e-05	0	1e-05	-1e-05	7e-05	1e-05	4e-05	5
24696	0.00015	5e-05	0	1e-05	-1e-05	7e-05	1e-05	4e-05	5
24697	0.00015	5e-05	0	1e-05	-1e-05	7e-05	1e-05	4e-05	5
24698	6e-05	-4e-05	-2e-05	-6e-05	-0.0004	-4e-05	2e-05	-4e-05	5
24699	-3e-05	8e-05	5e-05	2e-05	0.00019	-0.0001	-2e-05	-1e-05	5
24700	-3e-05	8e-05	5e-05	2e-05	0.00019	-0.0001	-2e-05	-1e-05	5
24701	-3e-05	8e-05	5e-05	2e-05	0.00019	-0.0001	-2e-05	-1e-05	5
24702	-3e-05	8e-05	5e-05	2e-05	0.00019	-0.0001	-2e-05	-1e-05	5
24703	-3e-05	8e-05	5e-05	2e-05	0.00019	-0.0001	-2e-05	-1e-05	5
24704	-3e-05	8e-05	5e-05	2e-05	0.00019	-0.0001	-2e-05	-1e-05	5
24705	-3e-05	8e-05	5e-05	2e-05	0.00019	-0.0001	-2e-05	-1e-05	5
24706	-3e-05	8e-05	5e-05	2e-05	0.00019	-0.0001	-2e-05	-1e-05	5
24707	-3e-05	8e-05	5e-05	2e-05	0.00019	-0.0001	-2e-05	-1e-05	5
24708	-3e-05	8e-05	5e-05	2e-05	0.00019	-0.0001	-2e-05	-1e-05	5
24709	-3e-05	8e-05	5e-05	2e-05	0.00019	-0.0001	-2e-05	-1e-05	5
24710	-3e-05	8e-05	5e-05	2e-05	0.00019	-0.0001	-2e-05	-1e-05	5
24711	-3e-05	8e-05	5e-05	2e-05	0.00019	-0.0001	-2e-05	-1e-05	5
24712	-3e-05	8e-05	5e-05	2e-05	0.00019	-0.0001	-2e-05	-1e-05	5
24714	-3e-05	8e-05	5e-05	2e-05	0.00019	-0.0001	-2e-05	-1e-05	5
24715	-3e-05	8e-05	5e-05	2e-05	0.00019	-0.0001	-2e-05	-1e-05	5
24716	-3e-05	8e-05	5e-05	2e-05	0.00019	-0.0001	-2e-05	-1e-05	5
24717	-3e-05	8e-05	5e-05	2e-05	0.00019	-0.0001	-2e-05	-1e-05	5
24718	-3e-05	8e-05	5e-05	2e-05	0.00019	-0.0001	-2e-05	-1e-05	5
24719	-3e-05	8e-05	5e-05	2e-05	0.00019	-0.0001	-2e-05	-1e-05	5
24720	-3e-05	8e-05	5e-05	2e-05	0.00019	-0.0001	-2e-05	-1e-05	5
24721	-3e-05	-2e-05	-2e-05	2e-05	9e-05	4e-05	-2e-05	-2e-05	5
24722	0	-2e-05	-6e-05	-4e-05	0.00023	-8e-05	1e-05	-2e-05	5
24723	0	-2e-05	-6e-05	-4e-05	0.00023	-8e-05	1e-05	-2e-05	5
24724	0	-2e-05	-6e-05	-4e-05	0.00023	-8e-05	1e-05	-2e-05	5
24725	0	-2e-05	-6e-05	-4e-05	0.00023	-8e-05	1e-05	-2e-05	5
24726	0	-2e-05	-6e-05	-4e-05	0.00023	-8e-05	1e-05	-2e-05	5
24727	0	-2e-05	-6e-05	-4e-05	0.00023	-8e-05	1e-05	-2e-05	5
24728	0	-2e-05	-6e-05	-4e-05	0.00023	-8e-05	1e-05	-2e-05	5
24729	0	-2e-05	-6e-05	-4e-05	0.00023	-8e-05	1e-05	-2e-05	5
24730	0	-2e-05	-6e-05	-4e-05	0.00023	-8e-05	1e-05	-2e-05	5
24731	0	-2e-05	-6e-05	-4e-05	0.00023	-8e-05	1e-05	-2e-05	5
24732	0	-2e-05	-6e-05	-4e-05	0.00023	-8e-05	1e-05	-2e-05	5
24733	0	-2e-05	-6e-05	-4e-05	0.00023	-8e-05	1e-05	-2e-05	5
24734	0	-2e-05	-6e-05	-4e-05	0.00023	-8e-05	1e-05	-2e-05	5
24735	4e-05	-7e-05	-0.00012	-0.00036	-0.00053	-0.00011	-1e-05	0	5
24736	-4e-05	-7e-05	-0.0001	-0.00015	-0.00038	-0.00016	-2e-05	-1e-05	5
24738	-4e-05	-7e-05	-0.0001	-0.00015	-0.00038	-0.00016	-2e-05	-1e-05	5
24740	-4e-05	-7e-05	-0.0001	-0.00015	-0.00038	-0.00016	-2e-05	-1e-05	5
24741	-4e-05	-7e-05	-0.0001	-0.00015	-0.00038	-0.00016	-2e-05	-1e-05	5
24742	-4e-05	-7e-05	-0.0001	-0.00015	-0.00038	-0.00016	-2e-05	-1e-05	5
24743	-4e-05	-7e-05	-0.0001	-0.00015	-0.00038	-0.00016	-2e-05	-1e-05	5
24744	-4e-05	-7e-05	-0.0001	-0.00015	-0.00038	-0.00016	-2e-05	-1e-05	5
24745	-4e-05	-7e-05	-0.0001	-0.00015	-0.00038	-0.00016	-2e-05	-1e-05	5
24746	-4e-05	-7e-05	-0.0001	-0.00015	-0.00038	-0.00016	-2e-05	-1e-05	5
24747	-4e-05	-7e-05	-0.0001	-0.00015	-0.00038	-0.00016	-2e-05	-1e-05	5
24748	-4e-05	-7e-05	-0.0001	-0.00015	-0.00038	-0.00016	-2e-05	-1e-05	5
24749	-4e-05	-7e-05	-0.0001	-0.00015	-0.00038	-0.00016	-2e-05	-1e-05	5
24750	-4e-05	-7e-05	-0.0001	-0.00015	-0.00038	-0.00016	-2e-05	-1e-05	5
24751	-4e-05	-7e-05	-0.0001	-0.00015	-0.00038	-0.00016	-2e-05	-1e-05	5
24752	-4e-05	-7e-05	-0.0001	-0.00015	-0.00038	-0.00016	-2e-05	-1e-05	5
24753	-4e-05	-7e-05	-0.0001	-0.00015	-0.00038	-0.00016	-2e-05	-1e-05	5
24754	-4e-05	-7e-05	-0.0001	-0.00015	-0.00038	-0.00016	-2e-05	-1e-05	5
24755	-4e-05	-7e-05	-0.0001	-0.00015	-0.00038	-0.00016	-2e-05	-1e-05	5
24756	-4e-05	-7e-05	-0.0001	-0.00015	-0.00038	-0.00016	-2e-05	-1e-05	5
24757	-4e-05	-7e-05	-0.0001	-0.00015	-0.00038	-0.00016	-2e-05	-1e-05	5
24758	6e-05	6e-05	0.00016	0.00014	-5e-05	4e-05	0	-1e-05	5
24759	-5e-05	-3e-05	5e-05	0.0002	0.00017	0.00022	3e-05	3e-05	5
24760	-5e-05	-3e-05	5e-05	0.0002	0.00017	0.00022	3e-05	3e-05	5
24761	-5e-05	-3e-05	5e-05	0.0002	0.00017	0.00022	3e-05	3e-05	5
24762	-5e-05	-3e-05	5e-05	0.0002	0.00017	0.00022	3e-05	3e-05	5
24763	-5e-05	-3e-05	5e-05	0.0002	0.00017	0.00022	3e-05	3e-05	5
24764	-5e-05	-3e-05	5e-05	0.0002	0.00017	0.00022	3e-05	3e-05	5
24765	-5e-05	-3e-05	5e-05	0.0002	0.00017	0.00022	3e-05	3e-05	5
24766	-5e-05	-3e-05	5e-05	0.0002	0.00017	0.00022	3e-05	3e-05	5
24767	-5e-05	-3e-05	5e-05	0.0002	0.00017	0.00022	3e-05	3e-05	5
24768	-5e-05	-3e-05	5e-05	0.0002	0.00017	0.00022	3e-05	3e-05	5
24769	-5e-05	-3e-05	5e-05	0.0002	0.00017	0.00022	3e-05	3e-05	5
24770	-5e-05	-3e-05	5e-05	0.0002	0.00017	0.00022	3e-05	3e-05	5
24771	-5e-05	-3e-05	5e-05	0.0002	0.00017	0.00022	3e-05	3e-05	5
24772	-5e-05	-3e-05	5e-05	0.0002	0.00017	0.00022	3e-05	3e-05	5
24773	-5e-05	-3e-05	5e-05	0.0002	0.00017	0.00022	3e-05	3e-05	5
24774	-5e-05	-3e-05	5e-05	0.0002	0.00017	0.00022	3e-05	3e-05	5
24775	-5e-05	-3e-05	5e-05	0.0002	0.00017	0.00022	3e-05	3e-05	5
24776	-5e-05	-3e-05	5e-05	0.0002	0.00017	0.00022	3e-05	3e-05	5
24777	-5e-05	-3e-05	5e-05	0.0002	0.00017	0.00022	3e-05	3e-05	5
24778	-5e-05	-3e-05	5e-05	0.0002	0.00017	0.00022	3e-05	3e-05	5
24779	-5e-05	-3e-05	5e-05	0.0002	0.00017	0.00022	3e-05	3e-05	5
24780	-5e-05	-3e-05	5e-05	0.0002	0.00017	0.00022	3e-05	3e-05	5
24781	1e-05	-1e-05	1e-05	3e-05	9e-05	0.00015	-2e-05	-1e-05	5
24782	-8e-05	-8e-05	-6e-05	0.00012	-0.00012	-4e-05	-2e-05	-2e-05	5
24783	-8e-05	-8e-05	-6e-05	0.00012	-0.00012	-4e-05	-2e-05	-2e-05	5
24784	-8e-05	-8e-05	-6e-05	0.00012	-0.00012	-4e-05	-2e-05	-2e-05	5
24785	-8e-05	-8e-05	-6e-05	0.00012	-0.00012	-4e-05	-2e-05	-2e-05	5
24786	-8e-05	-8e-05	-6e-05	0.00012	-0.00012	-4e-05	-2e-05	-2e-05	5
24788	-8e-05	-8e-05	-6e-05	0.00012	-0.00012	-4e-05	-2e-05	-2e-05	5
24789	-8e-05	-8e-05	-6e-05	0.00012	-0.00012	-4e-05	-2e-05	-2e-05	5
24790	-8e-05	-8e-05	-6e-05	0.00012	-0.00012	-4e-05	-2e-05	-2e-05	5
24791	-8e-05	-8e-05	-6e-05	0.00012	-0.00012	-4e-05	-2e-05	-2e-05	5
24792	-8e-05	-8e-05	-6e-05	0.00012	-0.00012	-4e-05	-2e-05	-2e-05	5
24793	-8e-05	-8e-05	-6e-05	0.00012	-0.00012	-4e-05	-2e-05	-2e-05	5
24794	-8e-05	-8e-05	-6e-05	0.00012	-0.00012	-4e-05	-2e-05	-2e-05	5
24795	-8e-05	-8e-05	-6e-05	0.00012	-0.00012	-4e-05	-2e-05	-2e-05	5
24796	-8e-05	-8e-05	-6e-05	0.00012	-0.00012	-4e-05	-2e-05	-2e-05	5
24797	-8e-05	-8e-05	-6e-05	0.00012	-0.00012	-4e-05	-2e-05	-2e-05	5
24798	-8e-05	-8e-05	-6e-05	0.00012	-0.00012	-4e-05	-2e-05	-2e-05	5
24799	-8e-05	-8e-05	-6e-05	0.00012	-0.00012	-4e-05	-2e-05	-2e-05	5
24800	-8e-05	-8e-05	-6e-05	0.00012	-0.00012	-4e-05	-2e-05	-2e-05	5
24801	-8e-05	-8e-05	-6e-05	0.00012	-0.00012	-4e-05	-2e-05	-2e-05	5
24802	-8e-05	-8e-05	-6e-05	0.00012	-0.00012	-4e-05	-2e-05	-2e-05	5
24803	0.00017	6e-05	2e-05	-6e-05	5e-05	4e-05	1e-05	3e-05	5
24804	-2e-05	-8e-05	-3e-05	4e-05	-0.00019	-2e-05	-6e-05	-3e-05	5
24805	-2e-05	-8e-05	-3e-05	4e-05	-0.00019	-2e-05	-6e-05	-3e-05	5
24806	-2e-05	-8e-05	-3e-05	4e-05	-0.00019	-2e-05	-6e-05	-3e-05	5
24807	-2e-05	-8e-05	-3e-05	4e-05	-0.00019	-2e-05	-6e-05	-3e-05	5
24808	-2e-05	-8e-05	-3e-05	4e-05	-0.00019	-2e-05	-6e-05	-3e-05	5
24809	-2e-05	-8e-05	-3e-05	4e-05	-0.00019	-2e-05	-6e-05	-3e-05	5
24810	-2e-05	-8e-05	-3e-05	4e-05	-0.00019	-2e-05	-6e-05	-3e-05	5
24811	-2e-05	-8e-05	-3e-05	4e-05	-0.00019	-2e-05	-6e-05	-3e-05	5
24812	-2e-05	-8e-05	-3e-05	4e-05	-0.00019	-2e-05	-6e-05	-3e-05	5
24813	-2e-05	-8e-05	-3e-05	4e-05	-0.00019	-2e-05	-6e-05	-3e-05	5
24814	-2e-05	-8e-05	-3e-05	4e-05	-0.00019	-2e-05	-6e-05	-3e-05	5
24815	-2e-05	-8e-05	-3e-05	4e-05	-0.00019	-2e-05	-6e-05	-3e-05	5
24816	-2e-05	-8e-05	-3e-05	4e-05	-0.00019	-2e-05	-6e-05	-3e-05	5
24817	-2e-05	-8e-05	-3e-05	4e-05	-0.00019	-2e-05	-6e-05	-3e-05	5
24818	5e-05	-7e-05	-0.00013	-7e-05	0.00017	-9e-05	-4e-05	-3e-05	5
24819	-8e-05	-3e-05	-1e-05	-0.00012	-0.00029	-0.00019	-3e-05	-5e-05	5
24820	-8e-05	-3e-05	-1e-05	-0.00012	-0.00029	-0.00019	-3e-05	-5e-05	5
24821	-8e-05	-3e-05	-1e-05	-0.00012	-0.00029	-0.00019	-3e-05	-5e-05	5
24822	-8e-05	-3e-05	-1e-05	-0.00012	-0.00029	-0.00019	-3e-05	-5e-05	5
24823	-8e-05	-3e-05	-1e-05	-0.00012	-0.00029	-0.00019	-3e-05	-5e-05	5
24824	-8e-05	-3e-05	-1e-05	-0.00012	-0.00029	-0.00019	-3e-05	-5e-05	5
24825	-8e-05	-3e-05	-1e-05	-0.00012	-0.00029	-0.00019	-3e-05	-5e-05	5
24826	-8e-05	-3e-05	-1e-05	-0.00012	-0.00029	-0.00019	-3e-05	-5e-05	5
24827	-8e-05	-3e-05	-1e-05	-0.00012	-0.00029	-0.00019	-3e-05	-5e-05	5
24828	-8e-05	-3e-05	-1e-05	-0.00012	-0.00029	-0.00019	-3e-05	-5e-05	5
24829	-8e-05	-3e-05	-1e-05	-0.00012	-0.00029	-0.00019	-3e-05	-5e-05	5
24830	-8e-05	-3e-05	-1e-05	-0.00012	-0.00029	-0.00019	-3e-05	-5e-05	5
24831	-8e-05	-3e-05	-1e-05	-0.00012	-0.00029	-0.00019	-3e-05	-5e-05	5
24832	-8e-05	-3e-05	-1e-05	-0.00012	-0.00029	-0.00019	-3e-05	-5e-05	5
24833	-8e-05	-3e-05	-1e-05	-0.00012	-0.00029	-0.00019	-3e-05	-5e-05	5
24834	-8e-05	-3e-05	-1e-05	-0.00012	-0.00029	-0.00019	-3e-05	-5e-05	5
24835	-8e-05	-3e-05	-1e-05	-0.00012	-0.00029	-0.00019	-3e-05	-5e-05	5
24836	-8e-05	-3e-05	-1e-05	-0.00012	-0.00029	-0.00019	-3e-05	-5e-05	5
24838	-8e-05	-3e-05	-1e-05	-0.00012	-0.00029	-0.00019	-3e-05	-5e-05	5
24839	-8e-05	-3e-05	-1e-05	-0.00012	-0.00029	-0.00019	-3e-05	-5e-05	5
24840	-8e-05	-3e-05	-1e-05	-0.00012	-0.00029	-0.00019	-3e-05	-5e-05	5
24841	6e-05	2e-05	-6e-05	-4e-05	0.00044	-0.00021	-1e-05	0	5
24842	1e-05	-7e-05	-1e-05	-0.00014	-0.00032	5e-05	4e-05	0	5
24843	1e-05	-7e-05	-1e-05	-0.00014	-0.00032	5e-05	4e-05	0	5
24844	1e-05	-7e-05	-1e-05	-0.00014	-0.00032	5e-05	4e-05	0	5
24845	1e-05	-7e-05	-1e-05	-0.00014	-0.00032	5e-05	4e-05	0	5
24846	1e-05	-7e-05	-1e-05	-0.00014	-0.00032	5e-05	4e-05	0	5
24847	1e-05	-7e-05	-1e-05	-0.00014	-0.00032	5e-05	4e-05	0	5
24848	1e-05	-7e-05	-1e-05	-0.00014	-0.00032	5e-05	4e-05	0	5
24849	1e-05	-7e-05	-1e-05	-0.00014	-0.00032	5e-05	4e-05	0	5
24850	1e-05	-7e-05	-1e-05	-0.00014	-0.00032	5e-05	4e-05	0	5
24851	1e-05	-7e-05	-1e-05	-0.00014	-0.00032	5e-05	4e-05	0	5
24852	1e-05	-7e-05	-1e-05	-0.00014	-0.00032	5e-05	4e-05	0	5
24853	1e-05	-7e-05	-1e-05	-0.00014	-0.00032	5e-05	4e-05	0	5
24854	1e-05	-7e-05	-1e-05	-0.00014	-0.00032	5e-05	4e-05	0	5
24855	-6e-05	-1e-05	1e-05	-3e-05	-0.00038	0	-7e-05	-4e-05	5
24856	-3e-05	0	-1e-05	0.00017	0.00089	0.00044	-4e-05	-1e-05	5
24857	-3e-05	0	-1e-05	0.00017	0.00089	0.00044	-4e-05	-1e-05	5
24858	-3e-05	0	-1e-05	0.00017	0.00089	0.00044	-4e-05	-1e-05	5
24859	-3e-05	0	-1e-05	0.00017	0.00089	0.00044	-4e-05	-1e-05	5
24860	-3e-05	0	-1e-05	0.00017	0.00089	0.00044	-4e-05	-1e-05	5
24861	-3e-05	0	-1e-05	0.00017	0.00089	0.00044	-4e-05	-1e-05	5
24862	-3e-05	0	-1e-05	0.00017	0.00089	0.00044	-4e-05	-1e-05	5
24863	-3e-05	0	-1e-05	0.00017	0.00089	0.00044	-4e-05	-1e-05	5
24864	-3e-05	0	-1e-05	0.00017	0.00089	0.00044	-4e-05	-1e-05	5
24865	-3e-05	0	-1e-05	0.00017	0.00089	0.00044	-4e-05	-1e-05	5
24866	-3e-05	0	-1e-05	0.00017	0.00089	0.00044	-4e-05	-1e-05	5
24867	-3e-05	0	-1e-05	0.00017	0.00089	0.00044	-4e-05	-1e-05	5
24868	-3e-05	0	-1e-05	0.00017	0.00089	0.00044	-4e-05	-1e-05	5
24869	-3e-05	0	-1e-05	0.00017	0.00089	0.00044	-4e-05	-1e-05	5
24870	-3e-05	0	-1e-05	0.00017	0.00089	0.00044	-4e-05	-1e-05	5
24871	-3e-05	0	-1e-05	0.00017	0.00089	0.00044	-4e-05	-1e-05	5
24872	-3e-05	0	-1e-05	0.00017	0.00089	0.00044	-4e-05	-1e-05	5
24873	-3e-05	0	-1e-05	0.00017	0.00089	0.00044	-4e-05	-1e-05	5
24874	-3e-05	0	-1e-05	0.00017	0.00089	0.00044	-4e-05	-1e-05	5
24875	-3e-05	0	-1e-05	0.00017	0.00089	0.00044	-4e-05	-1e-05	5
24876	-3e-05	0	-1e-05	0.00017	0.00089	0.00044	-4e-05	-1e-05	5
24877	-3e-05	0	-1e-05	0.00017	0.00089	0.00044	-4e-05	-1e-05	5
24878	-3e-05	0	-1e-05	0.00017	0.00089	0.00044	-4e-05	-1e-05	5
24879	-3e-05	0	-1e-05	0.00017	0.00089	0.00044	-4e-05	-1e-05	5
24880	-3e-05	0	-1e-05	0.00017	0.00089	0.00044	-4e-05	-1e-05	5
24881	-3e-05	0	-1e-05	0.00017	0.00089	0.00044	-4e-05	-1e-05	5
24882	-3e-05	0	-1e-05	0.00017	0.00089	0.00044	-4e-05	-1e-05	5
24883	-3e-05	0	-1e-05	0.00017	0.00089	0.00044	-4e-05	-1e-05	5
24884	-3e-05	0	-1e-05	0.00017	0.00089	0.00044	-4e-05	-1e-05	5
24885	-3e-05	0	-1e-05	0.00017	0.00089	0.00044	-4e-05	-1e-05	5
24886	-3e-05	0	-1e-05	0.00017	0.00089	0.00044	-4e-05	-1e-05	5
24888	-3e-05	0	-1e-05	0.00017	0.00089	0.00044	-4e-05	-1e-05	5
24889	-3e-05	0	-1e-05	0.00017	0.00089	0.00044	-4e-05	-1e-05	5
24890	-3e-05	0	-1e-05	0.00017	0.00089	0.00044	-4e-05	-1e-05	5
24891	-3e-05	0	-1e-05	0.00017	0.00089	0.00044	-4e-05	-1e-05	5
24892	-3e-05	0	-1e-05	0.00017	0.00089	0.00044	-4e-05	-1e-05	5
24893	-3e-05	0	-1e-05	0.00017	0.00089	0.00044	-4e-05	-1e-05	5
24894	-0.00019	-7e-05	4e-05	-1e-05	-1e-05	0.00012	0	-6e-05	5
24895	0.00014	-2e-05	4e-05	1e-05	-0.0001	3e-05	-3e-05	5e-05	5
24896	0.00014	-2e-05	4e-05	1e-05	-0.0001	3e-05	-3e-05	5e-05	5
24897	0.00014	-2e-05	4e-05	1e-05	-0.0001	3e-05	-3e-05	5e-05	5
24898	0.00014	-2e-05	4e-05	1e-05	-0.0001	3e-05	-3e-05	5e-05	5
24899	0.00014	-2e-05	4e-05	1e-05	-0.0001	3e-05	-3e-05	5e-05	5
24900	0.00014	-2e-05	4e-05	1e-05	-0.0001	3e-05	-3e-05	5e-05	5
24901	0.00014	-2e-05	4e-05	1e-05	-0.0001	3e-05	-3e-05	5e-05	5
24902	0.00014	-2e-05	4e-05	1e-05	-0.0001	3e-05	-3e-05	5e-05	5
24903	0.00014	-2e-05	4e-05	1e-05	-0.0001	3e-05	-3e-05	5e-05	5
24904	0.00014	-2e-05	4e-05	1e-05	-0.0001	3e-05	-3e-05	5e-05	5
24905	0.00014	-2e-05	4e-05	1e-05	-0.0001	3e-05	-3e-05	5e-05	5
24906	0.00014	-2e-05	4e-05	1e-05	-0.0001	3e-05	-3e-05	5e-05	5
24907	0.00014	-2e-05	4e-05	1e-05	-0.0001	3e-05	-3e-05	5e-05	5
24908	6e-05	1e-05	-7e-05	6e-05	0.00019	-6e-05	1e-05	-1e-05	5
24909	6e-05	1e-05	-7e-05	6e-05	0.00019	-6e-05	1e-05	-1e-05	5
24910	6e-05	1e-05	-7e-05	6e-05	0.00019	-6e-05	1e-05	-1e-05	5
24911	6e-05	1e-05	-7e-05	6e-05	0.00019	-6e-05	1e-05	-1e-05	5
24912	6e-05	1e-05	-7e-05	6e-05	0.00019	-6e-05	1e-05	-1e-05	5
24913	6e-05	1e-05	-7e-05	6e-05	0.00019	-6e-05	1e-05	-1e-05	5
24914	6e-05	1e-05	-7e-05	6e-05	0.00019	-6e-05	1e-05	-1e-05	5
24915	6e-05	1e-05	-7e-05	6e-05	0.00019	-6e-05	1e-05	-1e-05	5
24916	6e-05	1e-05	-7e-05	6e-05	0.00019	-6e-05	1e-05	-1e-05	5
24917	6e-05	1e-05	-7e-05	6e-05	0.00019	-6e-05	1e-05	-1e-05	5
24918	6e-05	1e-05	-7e-05	6e-05	0.00019	-6e-05	1e-05	-1e-05	5
24919	6e-05	1e-05	-7e-05	6e-05	0.00019	-6e-05	1e-05	-1e-05	5
24920	6e-05	1e-05	-7e-05	6e-05	0.00019	-6e-05	1e-05	-1e-05	5
24921	6e-05	1e-05	-7e-05	6e-05	0.00019	-6e-05	1e-05	-1e-05	5
24922	6e-05	1e-05	-7e-05	6e-05	0.00019	-6e-05	1e-05	-1e-05	5
24923	6e-05	1e-05	-7e-05	6e-05	0.00019	-6e-05	1e-05	-1e-05	5
24924	6e-05	1e-05	-7e-05	6e-05	0.00019	-6e-05	1e-05	-1e-05	5
24925	6e-05	1e-05	-7e-05	6e-05	0.00019	-6e-05	1e-05	-1e-05	5
24926	6e-05	1e-05	-7e-05	6e-05	0.00019	-6e-05	1e-05	-1e-05	5
24927	6e-05	1e-05	-7e-05	6e-05	0.00019	-6e-05	1e-05	-1e-05	5
24928	6e-05	1e-05	-7e-05	6e-05	0.00019	-6e-05	1e-05	-1e-05	5
24929	6e-05	1e-05	-7e-05	6e-05	0.00019	-6e-05	1e-05	-1e-05	5
24930	6e-05	1e-05	-7e-05	6e-05	0.00019	-6e-05	1e-05	-1e-05	5
24931	8e-05	3e-05	0	6e-05	0.00044	-9e-05	-3e-05	-1e-05	5
24932	8e-05	3e-05	0	6e-05	0.00044	-9e-05	-3e-05	-1e-05	5
24933	8e-05	3e-05	0	6e-05	0.00044	-9e-05	-3e-05	-1e-05	5
24934	8e-05	3e-05	0	6e-05	0.00044	-9e-05	-3e-05	-1e-05	5
24935	8e-05	3e-05	0	6e-05	0.00044	-9e-05	-3e-05	-1e-05	5
24936	8e-05	3e-05	0	6e-05	0.00044	-9e-05	-3e-05	-1e-05	5
24938	8e-05	3e-05	0	6e-05	0.00044	-9e-05	-3e-05	-1e-05	5
24939	8e-05	3e-05	0	6e-05	0.00044	-9e-05	-3e-05	-1e-05	5
24940	8e-05	3e-05	0	6e-05	0.00044	-9e-05	-3e-05	-1e-05	5
24941	8e-05	3e-05	0	6e-05	0.00044	-9e-05	-3e-05	-1e-05	5
24942	8e-05	3e-05	0	6e-05	0.00044	-9e-05	-3e-05	-1e-05	5
24943	8e-05	3e-05	0	6e-05	0.00044	-9e-05	-3e-05	-1e-05	5
24944	8e-05	3e-05	0	6e-05	0.00044	-9e-05	-3e-05	-1e-05	5
24945	8e-05	3e-05	0	6e-05	0.00044	-9e-05	-3e-05	-1e-05	5
24946	8e-05	3e-05	0	6e-05	0.00044	-9e-05	-3e-05	-1e-05	5
24947	8e-05	3e-05	0	6e-05	0.00044	-9e-05	-3e-05	-1e-05	5
24948	8e-05	3e-05	0	6e-05	0.00044	-9e-05	-3e-05	-1e-05	5
24949	8e-05	3e-05	0	6e-05	0.00044	-9e-05	-3e-05	-1e-05	5
24950	8e-05	3e-05	0	6e-05	0.00044	-9e-05	-3e-05	-1e-05	5
24951	8e-05	3e-05	0	6e-05	0.00044	-9e-05	-3e-05	-1e-05	5
24952	8e-05	3e-05	0	6e-05	0.00044	-9e-05	-3e-05	-1e-05	5
24953	8e-05	3e-05	0	6e-05	0.00044	-9e-05	-3e-05	-1e-05	5
24954	8e-05	3e-05	0	6e-05	0.00044	-9e-05	-3e-05	-1e-05	5
24955	9e-05	5e-05	1e-05	0.0001	0	6e-05	1e-05	3e-05	5
24956	-6e-05	-1e-05	1e-05	-6e-05	-0.00049	-0.00018	0	-1e-05	5
24957	1e-05	2e-05	9e-05	0.00016	0.00048	0.0003	3e-05	3e-05	5
24958	1e-05	2e-05	9e-05	0.00016	0.00048	0.0003	3e-05	3e-05	5
24959	1e-05	2e-05	9e-05	0.00016	0.00048	0.0003	3e-05	3e-05	5
24960	1e-05	2e-05	9e-05	0.00016	0.00048	0.0003	3e-05	3e-05	5
24961	1e-05	2e-05	9e-05	0.00016	0.00048	0.0003	3e-05	3e-05	5
24962	1e-05	2e-05	9e-05	0.00016	0.00048	0.0003	3e-05	3e-05	5
24963	1e-05	2e-05	9e-05	0.00016	0.00048	0.0003	3e-05	3e-05	5
24964	1e-05	2e-05	9e-05	0.00016	0.00048	0.0003	3e-05	3e-05	5
24965	1e-05	2e-05	9e-05	0.00016	0.00048	0.0003	3e-05	3e-05	5
24966	1e-05	2e-05	9e-05	0.00016	0.00048	0.0003	3e-05	3e-05	5
24967	1e-05	2e-05	9e-05	0.00016	0.00048	0.0003	3e-05	3e-05	5
24968	1e-05	2e-05	9e-05	0.00016	0.00048	0.0003	3e-05	3e-05	5
24969	1e-05	2e-05	9e-05	0.00016	0.00048	0.0003	3e-05	3e-05	5
24970	1e-05	2e-05	9e-05	0.00016	0.00048	0.0003	3e-05	3e-05	5
24971	1e-05	2e-05	9e-05	0.00016	0.00048	0.0003	3e-05	3e-05	5
24972	1e-05	2e-05	9e-05	0.00016	0.00048	0.0003	3e-05	3e-05	5
24973	1e-05	2e-05	9e-05	0.00016	0.00048	0.0003	3e-05	3e-05	5
24974	1e-05	2e-05	9e-05	0.00016	0.00048	0.0003	3e-05	3e-05	5
24976	1e-05	2e-05	9e-05	0.00016	0.00048	0.0003	3e-05	3e-05	5
24977	-7e-05	-1e-05	-3e-05	-6e-05	8e-05	-7e-05	-1e-05	-2e-05	5
24978	-7e-05	-1e-05	-3e-05	-6e-05	8e-05	-7e-05	-1e-05	-2e-05	5
24979	-0.0001	-6e-05	-3e-05	-1e-05	0.00021	0.0001	1e-05	-6e-05	5
24980	-0.0001	-6e-05	-3e-05	-1e-05	0.00021	0.0001	1e-05	-6e-05	5
24981	-0.0001	-6e-05	-3e-05	-1e-05	0.00021	0.0001	1e-05	-6e-05	5
24982	-0.0001	-6e-05	-3e-05	-1e-05	0.00021	0.0001	1e-05	-6e-05	5
24983	-0.0001	-6e-05	-3e-05	-1e-05	0.00021	0.0001	1e-05	-6e-05	5
24984	-0.0001	-6e-05	-3e-05	-1e-05	0.00021	0.0001	1e-05	-6e-05	5
24985	-0.0001	-6e-05	-3e-05	-1e-05	0.00021	0.0001	1e-05	-6e-05	5
24986	-0.0001	-6e-05	-3e-05	-1e-05	0.00021	0.0001	1e-05	-6e-05	5
24988	-0.0001	-6e-05	-3e-05	-1e-05	0.00021	0.0001	1e-05	-6e-05	5
24989	-0.0001	-6e-05	-3e-05	-1e-05	0.00021	0.0001	1e-05	-6e-05	5
24990	-0.0001	-6e-05	-3e-05	-1e-05	0.00021	0.0001	1e-05	-6e-05	5
24991	-0.0001	-6e-05	-3e-05	-1e-05	0.00021	0.0001	1e-05	-6e-05	5
24992	-0.0001	-6e-05	-3e-05	-1e-05	0.00021	0.0001	1e-05	-6e-05	5
24993	-0.0001	-6e-05	-3e-05	-1e-05	0.00021	0.0001	1e-05	-6e-05	5
24994	-0.0001	-6e-05	-3e-05	-1e-05	0.00021	0.0001	1e-05	-6e-05	5
24995	-0.0001	-6e-05	-3e-05	-1e-05	0.00021	0.0001	1e-05	-6e-05	5
24996	-0.0001	-6e-05	-3e-05	-1e-05	0.00021	0.0001	1e-05	-6e-05	5
24997	-0.0001	-6e-05	-3e-05	-1e-05	0.00021	0.0001	1e-05	-6e-05	5
24998	-0.0001	-6e-05	-3e-05	-1e-05	0.00021	0.0001	1e-05	-6e-05	5
24999	-0.0001	-6e-05	-3e-05	-1e-05	0.00021	0.0001	1e-05	-6e-05	5
25000	2e-05	3e-05	2e-05	1e-05	0.0002	0	1e-05	0	5
25001	6e-05	2e-05	1e-05	2e-05	0.00048	2e-05	2e-05	2e-05	5
25002	-0.00013	-2e-05	-5e-05	-2e-05	-0.00024	1e-05	2e-05	-2e-05	5
25003	-0.00013	-2e-05	-5e-05	-2e-05	-0.00024	1e-05	2e-05	-2e-05	5
25004	-0.00013	-2e-05	-5e-05	-2e-05	-0.00024	1e-05	2e-05	-2e-05	5
25005	-0.00013	-2e-05	-5e-05	-2e-05	-0.00024	1e-05	2e-05	-2e-05	5
25006	-0.00013	-2e-05	-5e-05	-2e-05	-0.00024	1e-05	2e-05	-2e-05	5
25007	-0.00013	-2e-05	-5e-05	-2e-05	-0.00024	1e-05	2e-05	-2e-05	5
25008	-0.00013	-2e-05	-5e-05	-2e-05	-0.00024	1e-05	2e-05	-2e-05	5
25009	-0.00013	-2e-05	-5e-05	-2e-05	-0.00024	1e-05	2e-05	-2e-05	5
25010	-0.00013	-2e-05	-5e-05	-2e-05	-0.00024	1e-05	2e-05	-2e-05	5
25011	-0.00013	-2e-05	-5e-05	-2e-05	-0.00024	1e-05	2e-05	-2e-05	5
25012	-0.00013	-2e-05	-5e-05	-2e-05	-0.00024	1e-05	2e-05	-2e-05	5
25013	-0.00013	-2e-05	-5e-05	-2e-05	-0.00024	1e-05	2e-05	-2e-05	5
25014	-0.00013	-2e-05	-5e-05	-2e-05	-0.00024	1e-05	2e-05	-2e-05	5
25015	-0.00013	-2e-05	-5e-05	-2e-05	-0.00024	1e-05	2e-05	-2e-05	5
25016	-0.00013	-2e-05	-5e-05	-2e-05	-0.00024	1e-05	2e-05	-2e-05	5
25017	-0.00013	-2e-05	-5e-05	-2e-05	-0.00024	1e-05	2e-05	-2e-05	5
25018	-0.00013	-2e-05	-5e-05	-2e-05	-0.00024	1e-05	2e-05	-2e-05	5
25019	-0.00013	-2e-05	-5e-05	-2e-05	-0.00024	1e-05	2e-05	-2e-05	5
25020	-0.00013	-2e-05	-5e-05	-2e-05	-0.00024	1e-05	2e-05	-2e-05	5
25021	-0.00013	-2e-05	-5e-05	-2e-05	-0.00024	1e-05	2e-05	-2e-05	5
25022	-0.00013	-2e-05	-5e-05	-2e-05	-0.00024	1e-05	2e-05	-2e-05	5
25023	-0.00013	-2e-05	-5e-05	-2e-05	-0.00024	1e-05	2e-05	-2e-05	5
25024	-0.00013	-2e-05	-5e-05	-2e-05	-0.00024	1e-05	2e-05	-2e-05	5
25025	-0.00013	-2e-05	-5e-05	-2e-05	-0.00024	1e-05	2e-05	-2e-05	5
25026	-0.00013	-2e-05	-5e-05	-2e-05	-0.00024	1e-05	2e-05	-2e-05	5
25027	-0.00013	-2e-05	-5e-05	-2e-05	-0.00024	1e-05	2e-05	-2e-05	5
25028	-0.00013	-2e-05	-5e-05	-2e-05	-0.00024	1e-05	2e-05	-2e-05	5
25029	-0.00013	-2e-05	-5e-05	-2e-05	-0.00024	1e-05	2e-05	-2e-05	5
25030	-0.00013	-2e-05	-5e-05	-2e-05	-0.00024	1e-05	2e-05	-2e-05	5
25031	2e-05	1e-05	2e-05	0.00016	0.00045	0.00017	4e-05	1e-05	5
25033	2e-05	1e-05	2e-05	0.00016	0.00045	0.00017	4e-05	1e-05	5
25034	2e-05	1e-05	2e-05	0.00016	0.00045	0.00017	4e-05	1e-05	5
