29103	8e-05	-1e-05	-2e-05	-3e-05	8e-05	-0.00026	1e-05	0.00023	6
29104	8e-05	-1e-05	-2e-05	-3e-05	8e-05	-0.00026	1e-05	0.00023	6
29105	8e-05	-1e-05	-2e-05	-3e-05	8e-05	-0.00026	1e-05	0.00023	6
29106	8e-05	-1e-05	-2e-05	-3e-05	8e-05	-0.00026	1e-05	0.00023	6
29107	8e-05	-1e-05	-2e-05	-3e-05	8e-05	-0.00026	1e-05	0.00023	6
29108	8e-05	-1e-05	-2e-05	-3e-05	8e-05	-0.00026	1e-05	0.00023	6
29109	8e-05	-1e-05	-2e-05	-3e-05	8e-05	-0.00026	1e-05	0.00023	6
29110	8e-05	-1e-05	-2e-05	-3e-05	8e-05	-0.00026	1e-05	0.00023	6
29111	8e-05	-1e-05	-2e-05	-3e-05	8e-05	-0.00026	1e-05	0.00023	6
29112	8e-05	-1e-05	-2e-05	-3e-05	8e-05	-0.00026	1e-05	0.00023	6
29113	8e-05	-1e-05	-2e-05	-3e-05	8e-05	-0.00026	1e-05	0.00023	6
29114	8e-05	-1e-05	-2e-05	-3e-05	8e-05	-0.00026	1e-05	0.00023	6
29115	8e-05	-1e-05	-2e-05	-3e-05	8e-05	-0.00026	1e-05	0.00023	6
29116	-9e-05	-7e-05	-9e-05	3e-05	0.00074	-0.00054	-0.00015	-9e-05	6
29117	-9e-05	-7e-05	-9e-05	3e-05	0.00074	-0.00054	-0.00015	-9e-05	6
29118	-0.00014	7e-05	6e-05	-4e-05	-0.00055	-0.00071	-0.0001	-0.00049	6
29119	-0.00014	7e-05	6e-05	-4e-05	-0.00055	-0.00071	-0.0001	-0.00049	6
29120	-0.00014	7e-05	6e-05	-4e-05	-0.00055	-0.00071	-0.0001	-0.00049	6
29121	-0.00014	7e-05	6e-05	-4e-05	-0.00055	-0.00071	-0.0001	-0.00049	6
29122	-0.00014	7e-05	6e-05	-4e-05	-0.00055	-0.00071	-0.0001	-0.00049	6
29123	-0.00014	7e-05	6e-05	-4e-05	-0.00055	-0.00071	-0.0001	-0.00049	6
29124	-0.00014	7e-05	6e-05	-4e-05	-0.00055	-0.00071	-0.0001	-0.00049	6
29125	-0.00014	7e-05	6e-05	-4e-05	-0.00055	-0.00071	-0.0001	-0.00049	6
29126	-0.00014	7e-05	6e-05	-4e-05	-0.00055	-0.00071	-0.0001	-0.00049	6
29127	-0.00014	7e-05	6e-05	-4e-05	-0.00055	-0.00071	-0.0001	-0.00049	6
29128	-0.00014	7e-05	6e-05	-4e-05	-0.00055	-0.00071	-0.0001	-0.00049	6
29129	-0.00014	7e-05	6e-05	-4e-05	-0.00055	-0.00071	-0.0001	-0.00049	6
29130	-0.00014	7e-05	6e-05	-4e-05	-0.00055	-0.00071	-0.0001	-0.00049	6
29131	0.00014	0.00015	9e-05	-1e-05	0.00012	0.00108	5e-05	0.00013	6
29132	-3e-05	-1e-05	3e-05	1e-05	9e-05	-0.00054	-0.00013	-0.00013	6
29133	-0.00013	-8e-05	-7e-05	1e-05	0.00027	8e-05	-4e-05	-0.00027	6
29134	-0.00013	-8e-05	-7e-05	1e-05	0.00027	8e-05	-4e-05	-0.00027	6
29135	-0.00013	-8e-05	-7e-05	1e-05	0.00027	8e-05	-4e-05	-0.00027	6
29136	-0.00013	-8e-05	-7e-05	1e-05	0.00027	8e-05	-4e-05	-0.00027	6
29138	-0.00013	-8e-05	-7e-05	1e-05	0.00027	8e-05	-4e-05	-0.00027	6
29139	-0.00013	-8e-05	-7e-05	1e-05	0.00027	8e-05	-4e-05	-0.00027	6
29140	-0.00013	-8e-05	-7e-05	1e-05	0.00027	8e-05	-4e-05	-0.00027	6
29141	-0.00013	-8e-05	-7e-05	1e-05	0.00027	8e-05	-4e-05	-0.00027	6
29142	-0.00013	-8e-05	-7e-05	1e-05	0.00027	8e-05	-4e-05	-0.00027	6
29143	-0.00013	-8e-05	-7e-05	1e-05	0.00027	8e-05	-4e-05	-0.00027	6
29144	-0.00013	-8e-05	-7e-05	1e-05	0.00027	8e-05	-4e-05	-0.00027	6
29145	-0.00013	-8e-05	-7e-05	1e-05	0.00027	8e-05	-4e-05	-0.00027	6
29146	-0.00013	-8e-05	-7e-05	1e-05	0.00027	8e-05	-4e-05	-0.00027	6
29147	-0.00013	-8e-05	-7e-05	1e-05	0.00027	8e-05	-4e-05	-0.00027	6
29148	-0.00013	-8e-05	-7e-05	1e-05	0.00027	8e-05	-4e-05	-0.00027	6
29149	-0.00013	-8e-05	-7e-05	1e-05	0.00027	8e-05	-4e-05	-0.00027	6
29150	-0.00013	-8e-05	-7e-05	1e-05	0.00027	8e-05	-4e-05	-0.00027	6
29151	-0.00013	-8e-05	-7e-05	1e-05	0.00027	8e-05	-4e-05	-0.00027	6
29152	-0.00013	-8e-05	-7e-05	1e-05	0.00027	8e-05	-4e-05	-0.00027	6
29153	-0.00015	-5e-05	-6e-05	-6e-05	-0.00019	-0.0003	-1e-05	-2e-05	6
29154	-0.00015	-5e-05	-6e-05	-6e-05	-0.00019	-0.0003	-1e-05	-2e-05	6
29155	-1e-05	-2e-05	6e-05	-8e-05	-0.00012	0.00021	-8e-05	-1e-05	6
29156	-1e-05	-2e-05	6e-05	-8e-05	-0.00012	0.00021	-8e-05	-1e-05	6
29157	-1e-05	-2e-05	6e-05	-8e-05	-0.00012	0.00021	-8e-05	-1e-05	6
29158	-1e-05	-2e-05	6e-05	-8e-05	-0.00012	0.00021	-8e-05	-1e-05	6
29159	-1e-05	-2e-05	6e-05	-8e-05	-0.00012	0.00021	-8e-05	-1e-05	6
29160	-1e-05	-2e-05	6e-05	-8e-05	-0.00012	0.00021	-8e-05	-1e-05	6
29161	-1e-05	-2e-05	6e-05	-8e-05	-0.00012	0.00021	-8e-05	-1e-05	6
29162	-1e-05	-2e-05	6e-05	-8e-05	-0.00012	0.00021	-8e-05	-1e-05	6
29163	-1e-05	-2e-05	6e-05	-8e-05	-0.00012	0.00021	-8e-05	-1e-05	6
29164	-1e-05	-2e-05	6e-05	-8e-05	-0.00012	0.00021	-8e-05	-1e-05	6
29165	-1e-05	-2e-05	6e-05	-8e-05	-0.00012	0.00021	-8e-05	-1e-05	6
29166	-1e-05	-2e-05	6e-05	-8e-05	-0.00012	0.00021	-8e-05	-1e-05	6
29167	-1e-05	-2e-05	6e-05	-8e-05	-0.00012	0.00021	-8e-05	-1e-05	6
29168	-0.00023	-9e-05	-6e-05	4e-05	8e-05	0.00015	8e-05	6e-05	6
29169	-0.00023	-9e-05	-6e-05	4e-05	8e-05	0.00015	8e-05	6e-05	6
29170	6e-05	-2e-05	-4e-05	-1e-05	2e-05	-0.00062	-6e-05	0.00022	6
29171	6e-05	-2e-05	-4e-05	-1e-05	2e-05	-0.00062	-6e-05	0.00022	6
29172	6e-05	-2e-05	-4e-05	-1e-05	2e-05	-0.00062	-6e-05	0.00022	6
29173	6e-05	-2e-05	-4e-05	-1e-05	2e-05	-0.00062	-6e-05	0.00022	6
29174	6e-05	-2e-05	-4e-05	-1e-05	2e-05	-0.00062	-6e-05	0.00022	6
29175	6e-05	-2e-05	-4e-05	-1e-05	2e-05	-0.00062	-6e-05	0.00022	6
29176	6e-05	-2e-05	-4e-05	-1e-05	2e-05	-0.00062	-6e-05	0.00022	6
29177	6e-05	-2e-05	-4e-05	-1e-05	2e-05	-0.00062	-6e-05	0.00022	6
29178	6e-05	-2e-05	-4e-05	-1e-05	2e-05	-0.00062	-6e-05	0.00022	6
29179	6e-05	-2e-05	-4e-05	-1e-05	2e-05	-0.00062	-6e-05	0.00022	6
29180	6e-05	-2e-05	-4e-05	-1e-05	2e-05	-0.00062	-6e-05	0.00022	6
29181	6e-05	-2e-05	-4e-05	-1e-05	2e-05	-0.00062	-6e-05	0.00022	6
29182	6e-05	-2e-05	-4e-05	-1e-05	2e-05	-0.00062	-6e-05	0.00022	6
29183	6e-05	-2e-05	-4e-05	-1e-05	2e-05	-0.00062	-6e-05	0.00022	6
29184	6e-05	-2e-05	-4e-05	-1e-05	2e-05	-0.00062	-6e-05	0.00022	6
29185	6e-05	-2e-05	-4e-05	-1e-05	2e-05	-0.00062	-6e-05	0.00022	6
29186	6e-05	-2e-05	-4e-05	-1e-05	2e-05	-0.00062	-6e-05	0.00022	6
29188	6e-05	-2e-05	-4e-05	-1e-05	2e-05	-0.00062	-6e-05	0.00022	6
29189	6e-05	-2e-05	-4e-05	-1e-05	2e-05	-0.00062	-6e-05	0.00022	6
29190	6e-05	-2e-05	-4e-05	-1e-05	2e-05	-0.00062	-6e-05	0.00022	6
29191	-0.00019	-8e-05	-4e-05	-5e-05	-0.00048	0.00045	0.00021	2e-05	6
29192	4e-05	4e-05	4e-05	-2e-05	-0.00061	-0.00029	-1e-05	-0.00012	6
29193	-0.00019	2e-05	1e-05	5e-05	0.00079	2e-05	-7e-05	-0.00032	6
29194	-0.00019	2e-05	1e-05	5e-05	0.00079	2e-05	-7e-05	-0.00032	6
29195	-0.00019	2e-05	1e-05	5e-05	0.00079	2e-05	-7e-05	-0.00032	6
29196	-0.00019	2e-05	1e-05	5e-05	0.00079	2e-05	-7e-05	-0.00032	6
29197	-0.00019	2e-05	1e-05	5e-05	0.00079	2e-05	-7e-05	-0.00032	6
29198	-0.00019	2e-05	1e-05	5e-05	0.00079	2e-05	-7e-05	-0.00032	6
29199	-0.00019	2e-05	1e-05	5e-05	0.00079	2e-05	-7e-05	-0.00032	6
29200	-0.00019	2e-05	1e-05	5e-05	0.00079	2e-05	-7e-05	-0.00032	6
29201	-0.00019	2e-05	1e-05	5e-05	0.00079	2e-05	-7e-05	-0.00032	6
29202	-0.00019	2e-05	1e-05	5e-05	0.00079	2e-05	-7e-05	-0.00032	6
29203	-0.00019	2e-05	1e-05	5e-05	0.00079	2e-05	-7e-05	-0.00032	6
29204	-0.00019	2e-05	1e-05	5e-05	0.00079	2e-05	-7e-05	-0.00032	6
29205	0	-5e-05	-3e-05	-4e-05	-0.0003	-0.00017	-0.00011	-6e-05	6
29206	0	-5e-05	-3e-05	-4e-05	-0.0003	-0.00017	-0.00011	-6e-05	6
29207	0	-5e-05	-3e-05	-4e-05	-0.0003	-0.00017	-0.00011	-6e-05	6
29208	0	-5e-05	-3e-05	-4e-05	-0.0003	-0.00017	-0.00011	-6e-05	6
29209	0	-5e-05	-3e-05	-4e-05	-0.0003	-0.00017	-0.00011	-6e-05	6
29210	0	-5e-05	-3e-05	-4e-05	-0.0003	-0.00017	-0.00011	-6e-05	6
29211	0	-5e-05	-3e-05	-4e-05	-0.0003	-0.00017	-0.00011	-6e-05	6
29212	0	-5e-05	-3e-05	-4e-05	-0.0003	-0.00017	-0.00011	-6e-05	6
29213	0	-5e-05	-3e-05	-4e-05	-0.0003	-0.00017	-0.00011	-6e-05	6
29214	0.00011	-7e-05	-8e-05	-8e-05	-0.0004	0.00035	6e-05	0.00019	6
29215	0.00011	-7e-05	-8e-05	-8e-05	-0.0004	0.00035	6e-05	0.00019	6
29216	0.00011	-7e-05	-8e-05	-8e-05	-0.0004	0.00035	6e-05	0.00019	6
29217	0.00011	-7e-05	-8e-05	-8e-05	-0.0004	0.00035	6e-05	0.00019	6
29218	0.00011	-7e-05	-8e-05	-8e-05	-0.0004	0.00035	6e-05	0.00019	6
29219	0.00011	-7e-05	-8e-05	-8e-05	-0.0004	0.00035	6e-05	0.00019	6
29220	0.00011	-7e-05	-8e-05	-8e-05	-0.0004	0.00035	6e-05	0.00019	6
29221	0.00011	-7e-05	-8e-05	-8e-05	-0.0004	0.00035	6e-05	0.00019	6
29222	0.00011	-7e-05	-8e-05	-8e-05	-0.0004	0.00035	6e-05	0.00019	6
29223	0.00011	-7e-05	-8e-05	-8e-05	-0.0004	0.00035	6e-05	0.00019	6
29224	0.00011	-7e-05	-8e-05	-8e-05	-0.0004	0.00035	6e-05	0.00019	6
29225	0.00011	-7e-05	-8e-05	-8e-05	-0.0004	0.00035	6e-05	0.00019	6
29226	0.00011	-7e-05	-8e-05	-8e-05	-0.0004	0.00035	6e-05	0.00019	6
29227	0.00011	-7e-05	-8e-05	-8e-05	-0.0004	0.00035	6e-05	0.00019	6
29228	0.00011	-7e-05	-8e-05	-8e-05	-0.0004	0.00035	6e-05	0.00019	6
29229	0.00011	-7e-05	-8e-05	-8e-05	-0.0004	0.00035	6e-05	0.00019	6
29230	0.00011	-7e-05	-8e-05	-8e-05	-0.0004	0.00035	6e-05	0.00019	6
29231	0.00011	-7e-05	-8e-05	-8e-05	-0.0004	0.00035	6e-05	0.00019	6
29232	0.00011	-7e-05	-8e-05	-8e-05	-0.0004	0.00035	6e-05	0.00019	6
29233	0.00011	-7e-05	-8e-05	-8e-05	-0.0004	0.00035	6e-05	0.00019	6
29234	0.00011	-7e-05	-8e-05	-8e-05	-0.0004	0.00035	6e-05	0.00019	6
29235	0.00011	-7e-05	-8e-05	-8e-05	-0.0004	0.00035	6e-05	0.00019	6
29236	-3e-05	-1e-05	-9e-05	-2e-05	0	-0.00045	-6e-05	-0.00016	6
29238	0.00014	1e-05	1e-05	0	-0.00019	-0.00031	-6e-05	0.00026	6
29239	0.00014	1e-05	1e-05	0	-0.00019	-0.00031	-6e-05	0.00026	6
29240	0.00014	1e-05	1e-05	0	-0.00019	-0.00031	-6e-05	0.00026	6
29241	0.00014	1e-05	1e-05	0	-0.00019	-0.00031	-6e-05	0.00026	6
29242	0.00014	1e-05	1e-05	0	-0.00019	-0.00031	-6e-05	0.00026	6
29243	0.00014	1e-05	1e-05	0	-0.00019	-0.00031	-6e-05	0.00026	6
29244	0.00014	1e-05	1e-05	0	-0.00019	-0.00031	-6e-05	0.00026	6
29245	0.00014	1e-05	1e-05	0	-0.00019	-0.00031	-6e-05	0.00026	6
29246	0.00014	1e-05	1e-05	0	-0.00019	-0.00031	-6e-05	0.00026	6
29247	0.00014	1e-05	1e-05	0	-0.00019	-0.00031	-6e-05	0.00026	6
29249	0.00014	1e-05	1e-05	0	-0.00019	-0.00031	-6e-05	0.00026	6
29250	0.00014	1e-05	1e-05	0	-0.00019	-0.00031	-6e-05	0.00026	6
29251	5e-05	3e-05	3e-05	-4e-05	-0.00015	-0.00028	1e-05	-3e-05	6
29252	-4e-05	-6e-05	-6e-05	-2e-05	0.00018	0.0001	4e-05	-0.00011	6
29253	-4e-05	-6e-05	-6e-05	-2e-05	0.00018	0.0001	4e-05	-0.00011	6
29254	-4e-05	-6e-05	-6e-05	-2e-05	0.00018	0.0001	4e-05	-0.00011	6
29255	-4e-05	-6e-05	-6e-05	-2e-05	0.00018	0.0001	4e-05	-0.00011	6
29256	-4e-05	-6e-05	-6e-05	-2e-05	0.00018	0.0001	4e-05	-0.00011	6
29257	-4e-05	-6e-05	-6e-05	-2e-05	0.00018	0.0001	4e-05	-0.00011	6
29258	-4e-05	-6e-05	-6e-05	-2e-05	0.00018	0.0001	4e-05	-0.00011	6
29259	-4e-05	-6e-05	-6e-05	-2e-05	0.00018	0.0001	4e-05	-0.00011	6
29260	-4e-05	-6e-05	-6e-05	-2e-05	0.00018	0.0001	4e-05	-0.00011	6
29261	-4e-05	-6e-05	-6e-05	-2e-05	0.00018	0.0001	4e-05	-0.00011	6
29262	-4e-05	-6e-05	-6e-05	-2e-05	0.00018	0.0001	4e-05	-0.00011	6
29263	-4e-05	-6e-05	-6e-05	-2e-05	0.00018	0.0001	4e-05	-0.00011	6
29264	-4e-05	-6e-05	-6e-05	-2e-05	0.00018	0.0001	4e-05	-0.00011	6
29265	-4e-05	-6e-05	-6e-05	-2e-05	0.00018	0.0001	4e-05	-0.00011	6
29266	-4e-05	-6e-05	-6e-05	-2e-05	0.00018	0.0001	4e-05	-0.00011	6
29267	-4e-05	-6e-05	-6e-05	-2e-05	0.00018	0.0001	4e-05	-0.00011	6
29268	-4e-05	-6e-05	-6e-05	-2e-05	0.00018	0.0001	4e-05	-0.00011	6
29269	-4e-05	-6e-05	-6e-05	-2e-05	0.00018	0.0001	4e-05	-0.00011	6
29270	-4e-05	-6e-05	-6e-05	-2e-05	0.00018	0.0001	4e-05	-0.00011	6
29271	-4e-05	-6e-05	-6e-05	-2e-05	0.00018	0.0001	4e-05	-0.00011	6
29272	-4e-05	-6e-05	-6e-05	-2e-05	0.00018	0.0001	4e-05	-0.00011	6
29273	-4e-05	-6e-05	-6e-05	-2e-05	0.00018	0.0001	4e-05	-0.00011	6
29274	7e-05	4e-05	6e-05	4e-05	0.00028	0.00035	0.0001	0.00031	6
29275	-7e-05	-6e-05	-2e-05	1e-05	0.00019	-0.00063	1e-05	-0.00027	6
29276	-7e-05	-6e-05	-2e-05	1e-05	0.00019	-0.00063	1e-05	-0.00027	6
29277	-7e-05	-6e-05	-2e-05	1e-05	0.00019	-0.00063	1e-05	-0.00027	6
29278	-7e-05	-6e-05	-2e-05	1e-05	0.00019	-0.00063	1e-05	-0.00027	6
29279	-7e-05	-6e-05	-2e-05	1e-05	0.00019	-0.00063	1e-05	-0.00027	6
29280	-7e-05	-6e-05	-2e-05	1e-05	0.00019	-0.00063	1e-05	-0.00027	6
29281	-7e-05	-6e-05	-2e-05	1e-05	0.00019	-0.00063	1e-05	-0.00027	6
29282	-7e-05	-6e-05	-2e-05	1e-05	0.00019	-0.00063	1e-05	-0.00027	6
29283	-7e-05	-6e-05	-2e-05	1e-05	0.00019	-0.00063	1e-05	-0.00027	6
29284	-7e-05	-6e-05	-2e-05	1e-05	0.00019	-0.00063	1e-05	-0.00027	6
29285	-7e-05	-6e-05	-2e-05	1e-05	0.00019	-0.00063	1e-05	-0.00027	6
29286	-7e-05	-6e-05	-2e-05	1e-05	0.00019	-0.00063	1e-05	-0.00027	6
29288	-7e-05	-6e-05	-2e-05	1e-05	0.00019	-0.00063	1e-05	-0.00027	6
29289	3e-05	0	-6e-05	-5e-05	0.00035	0.00012	6e-05	0.00018	6
29290	-0.0002	-4e-05	-2e-05	-3e-05	-0.00044	-9e-05	-7e-05	-2e-05	6
29291	-0.00012	-7e-05	-2e-05	0	0.00022	0.00039	-1e-05	0.00062	6
29292	-0.00012	-7e-05	-2e-05	0	0.00022	0.00039	-1e-05	0.00062	6
29293	-0.00012	-7e-05	-2e-05	0	0.00022	0.00039	-1e-05	0.00062	6
29294	-0.00012	-7e-05	-2e-05	0	0.00022	0.00039	-1e-05	0.00062	6
29295	-0.00012	-7e-05	-2e-05	0	0.00022	0.00039	-1e-05	0.00062	6
29296	-0.00012	-7e-05	-2e-05	0	0.00022	0.00039	-1e-05	0.00062	6
29297	-0.00012	-7e-05	-2e-05	0	0.00022	0.00039	-1e-05	0.00062	6
29298	-0.00012	-7e-05	-2e-05	0	0.00022	0.00039	-1e-05	0.00062	6
29299	-0.00012	-7e-05	-2e-05	0	0.00022	0.00039	-1e-05	0.00062	6
29300	-0.00012	-7e-05	-2e-05	0	0.00022	0.00039	-1e-05	0.00062	6
29301	-0.00012	-7e-05	-2e-05	0	0.00022	0.00039	-1e-05	0.00062	6
29302	-0.00012	-7e-05	-2e-05	0	0.00022	0.00039	-1e-05	0.00062	6
29303	-0.00012	-7e-05	-2e-05	0	0.00022	0.00039	-1e-05	0.00062	6
29304	-0.00012	-7e-05	-2e-05	0	0.00022	0.00039	-1e-05	0.00062	6
29305	-0.00012	-7e-05	-2e-05	0	0.00022	0.00039	-1e-05	0.00062	6
29306	-0.00012	-7e-05	-2e-05	0	0.00022	0.00039	-1e-05	0.00062	6
29307	-0.00012	-7e-05	-2e-05	0	0.00022	0.00039	-1e-05	0.00062	6
29308	-0.00012	-7e-05	-2e-05	0	0.00022	0.00039	-1e-05	0.00062	6
29309	-0.00012	-7e-05	-2e-05	0	0.00022	0.00039	-1e-05	0.00062	6
29310	-0.00012	-7e-05	-2e-05	0	0.00022	0.00039	-1e-05	0.00062	6
29311	-0.00012	-7e-05	-2e-05	0	0.00022	0.00039	-1e-05	0.00062	6
29312	8e-05	-6e-05	-5e-05	-7e-05	-0.00013	-0.00011	6e-05	0.00014	6
29313	0.00011	8e-05	5e-05	1e-05	-4e-05	0.00059	8e-05	-8e-05	6
29314	0.00011	8e-05	5e-05	1e-05	-4e-05	0.00059	8e-05	-8e-05	6
29315	0.00011	8e-05	5e-05	1e-05	-4e-05	0.00059	8e-05	-8e-05	6
29316	0.00011	8e-05	5e-05	1e-05	-4e-05	0.00059	8e-05	-8e-05	6
29317	0.00011	8e-05	5e-05	1e-05	-4e-05	0.00059	8e-05	-8e-05	6
29318	0.00011	8e-05	5e-05	1e-05	-4e-05	0.00059	8e-05	-8e-05	6
29319	0.00011	8e-05	5e-05	1e-05	-4e-05	0.00059	8e-05	-8e-05	6
29320	0.00011	8e-05	5e-05	1e-05	-4e-05	0.00059	8e-05	-8e-05	6
29321	0.00011	8e-05	5e-05	1e-05	-4e-05	0.00059	8e-05	-8e-05	6
29322	0.00011	8e-05	5e-05	1e-05	-4e-05	0.00059	8e-05	-8e-05	6
29323	0.00011	8e-05	5e-05	1e-05	-4e-05	0.00059	8e-05	-8e-05	6
29324	0.00011	8e-05	5e-05	1e-05	-4e-05	0.00059	8e-05	-8e-05	6
29325	0.00011	8e-05	5e-05	1e-05	-4e-05	0.00059	8e-05	-8e-05	6
29326	0.00011	8e-05	5e-05	1e-05	-4e-05	0.00059	8e-05	-8e-05	6
29327	0.00011	8e-05	5e-05	1e-05	-4e-05	0.00059	8e-05	-8e-05	6
29328	0.00011	8e-05	5e-05	1e-05	-4e-05	0.00059	8e-05	-8e-05	6
29329	0.00011	8e-05	5e-05	1e-05	-4e-05	0.00059	8e-05	-8e-05	6
29330	0.00011	8e-05	5e-05	1e-05	-4e-05	0.00059	8e-05	-8e-05	6
29331	0.00011	8e-05	5e-05	1e-05	-4e-05	0.00059	8e-05	-8e-05	6
29332	0.00011	8e-05	5e-05	1e-05	-4e-05	0.00059	8e-05	-8e-05	6
29333	0.00011	8e-05	5e-05	1e-05	-4e-05	0.00059	8e-05	-8e-05	6
29334	0.00013	3e-05	5e-05	1e-05	-0.00028	-0.0003	-0.00012	-6e-05	6
29335	0.00013	3e-05	5e-05	1e-05	-0.00028	-0.0003	-0.00012	-6e-05	6
29336	0.00013	3e-05	5e-05	1e-05	-0.00028	-0.0003	-0.00012	-6e-05	6
29338	0.00013	3e-05	5e-05	1e-05	-0.00028	-0.0003	-0.00012	-6e-05	6
29339	0.00013	3e-05	5e-05	1e-05	-0.00028	-0.0003	-0.00012	-6e-05	6
29340	0.00013	3e-05	5e-05	1e-05	-0.00028	-0.0003	-0.00012	-6e-05	6
29341	0.00013	3e-05	5e-05	1e-05	-0.00028	-0.0003	-0.00012	-6e-05	6
29342	0.00013	3e-05	5e-05	1e-05	-0.00028	-0.0003	-0.00012	-6e-05	6
29343	0.00013	3e-05	5e-05	1e-05	-0.00028	-0.0003	-0.00012	-6e-05	6
29344	0.00013	3e-05	5e-05	1e-05	-0.00028	-0.0003	-0.00012	-6e-05	6
29345	0.00013	3e-05	5e-05	1e-05	-0.00028	-0.0003	-0.00012	-6e-05	6
29346	0.00013	3e-05	5e-05	1e-05	-0.00028	-0.0003	-0.00012	-6e-05	6
29347	0.00013	3e-05	5e-05	1e-05	-0.00028	-0.0003	-0.00012	-6e-05	6
29348	0.00013	3e-05	5e-05	1e-05	-0.00028	-0.0003	-0.00012	-6e-05	6
29349	1e-05	3e-05	-2e-05	-1e-05	-5e-05	0.00036	4e-05	-2e-05	6
29350	-7e-05	-2e-05	6e-05	1e-05	-0.00039	-0.00022	-5e-05	-0.00022	6
29351	-1e-05	-1e-05	-4e-05	4e-05	0.00078	0.0003	2e-05	-0.00035	6
29352	-5e-05	0	1e-05	-2e-05	-0.00039	-1e-05	3e-05	-0.00017	6
29353	-5e-05	0	1e-05	-2e-05	-0.00039	-1e-05	3e-05	-0.00017	6
29354	-5e-05	0	1e-05	-2e-05	-0.00039	-1e-05	3e-05	-0.00017	6
29355	-5e-05	0	1e-05	-2e-05	-0.00039	-1e-05	3e-05	-0.00017	6
29356	-5e-05	0	1e-05	-2e-05	-0.00039	-1e-05	3e-05	-0.00017	6
29357	-5e-05	0	1e-05	-2e-05	-0.00039	-1e-05	3e-05	-0.00017	6
29358	-5e-05	0	1e-05	-2e-05	-0.00039	-1e-05	3e-05	-0.00017	6
29359	-5e-05	0	1e-05	-2e-05	-0.00039	-1e-05	3e-05	-0.00017	6
29360	-5e-05	0	1e-05	-2e-05	-0.00039	-1e-05	3e-05	-0.00017	6
29361	-5e-05	0	1e-05	-2e-05	-0.00039	-1e-05	3e-05	-0.00017	6
29362	-5e-05	0	1e-05	-2e-05	-0.00039	-1e-05	3e-05	-0.00017	6
29363	-5e-05	0	1e-05	-2e-05	-0.00039	-1e-05	3e-05	-0.00017	6
29364	-5e-05	0	1e-05	-2e-05	-0.00039	-1e-05	3e-05	-0.00017	6
29365	-5e-05	0	1e-05	-2e-05	-0.00039	-1e-05	3e-05	-0.00017	6
29366	-5e-05	0	1e-05	-2e-05	-0.00039	-1e-05	3e-05	-0.00017	6
29367	-5e-05	0	1e-05	-2e-05	-0.00039	-1e-05	3e-05	-0.00017	6
29368	-5e-05	0	1e-05	-2e-05	-0.00039	-1e-05	3e-05	-0.00017	6
29369	-5e-05	0	1e-05	-2e-05	-0.00039	-1e-05	3e-05	-0.00017	6
29370	-5e-05	0	1e-05	-2e-05	-0.00039	-1e-05	3e-05	-0.00017	6
29371	2e-05	-7e-05	-3e-05	-4e-05	0.00013	-0.00019	-0.00012	-0.00031	6
29372	0.0002	6e-05	6e-05	5e-05	-2e-05	0.00018	-0.0002	-0.0002	6
29373	0.0002	6e-05	6e-05	5e-05	-2e-05	0.00018	-0.0002	-0.0002	6
29374	0.0002	6e-05	6e-05	5e-05	-2e-05	0.00018	-0.0002	-0.0002	6
29375	0.0002	6e-05	6e-05	5e-05	-2e-05	0.00018	-0.0002	-0.0002	6
29376	0.0002	6e-05	6e-05	5e-05	-2e-05	0.00018	-0.0002	-0.0002	6
29377	0.0002	6e-05	6e-05	5e-05	-2e-05	0.00018	-0.0002	-0.0002	6
29378	0.0002	6e-05	6e-05	5e-05	-2e-05	0.00018	-0.0002	-0.0002	6
29379	0.0002	6e-05	6e-05	5e-05	-2e-05	0.00018	-0.0002	-0.0002	6
29380	0.0002	6e-05	6e-05	5e-05	-2e-05	0.00018	-0.0002	-0.0002	6
29381	0.0002	6e-05	6e-05	5e-05	-2e-05	0.00018	-0.0002	-0.0002	6
29382	0.0002	6e-05	6e-05	5e-05	-2e-05	0.00018	-0.0002	-0.0002	6
29383	0.0002	6e-05	6e-05	5e-05	-2e-05	0.00018	-0.0002	-0.0002	6
29384	0.0002	6e-05	6e-05	5e-05	-2e-05	0.00018	-0.0002	-0.0002	6
29385	0.0002	6e-05	6e-05	5e-05	-2e-05	0.00018	-0.0002	-0.0002	6
29386	0.0002	6e-05	6e-05	5e-05	-2e-05	0.00018	-0.0002	-0.0002	6
29388	0.0002	6e-05	6e-05	5e-05	-2e-05	0.00018	-0.0002	-0.0002	6
29389	0.0002	6e-05	6e-05	5e-05	-2e-05	0.00018	-0.0002	-0.0002	6
29390	0.0002	6e-05	6e-05	5e-05	-2e-05	0.00018	-0.0002	-0.0002	6
29391	0.0002	6e-05	6e-05	5e-05	-2e-05	0.00018	-0.0002	-0.0002	6
29392	0.0002	6e-05	6e-05	5e-05	-2e-05	0.00018	-0.0002	-0.0002	6
29393	-6e-05	1e-05	1e-05	4e-05	-0.00017	-0.0003	-0.00014	-0.00036	6
29394	-6e-05	1e-05	1e-05	4e-05	-0.00017	-0.0003	-0.00014	-0.00036	6
29395	-5e-05	-2e-05	-0.00019	-8e-05	0.00052	0.00072	6e-05	-0.00022	6
29396	-5e-05	-2e-05	-0.00019	-8e-05	0.00052	0.00072	6e-05	-0.00022	6
29397	-5e-05	-2e-05	-0.00019	-8e-05	0.00052	0.00072	6e-05	-0.00022	6
29398	-5e-05	-2e-05	-0.00019	-8e-05	0.00052	0.00072	6e-05	-0.00022	6
29399	-5e-05	-2e-05	-0.00019	-8e-05	0.00052	0.00072	6e-05	-0.00022	6
29400	-5e-05	-2e-05	-0.00019	-8e-05	0.00052	0.00072	6e-05	-0.00022	6
29401	-5e-05	-2e-05	-0.00019	-8e-05	0.00052	0.00072	6e-05	-0.00022	6
29402	-5e-05	-2e-05	-0.00019	-8e-05	0.00052	0.00072	6e-05	-0.00022	6
29403	-5e-05	-2e-05	-0.00019	-8e-05	0.00052	0.00072	6e-05	-0.00022	6
29404	-5e-05	-2e-05	-0.00019	-8e-05	0.00052	0.00072	6e-05	-0.00022	6
29405	-5e-05	-2e-05	-0.00019	-8e-05	0.00052	0.00072	6e-05	-0.00022	6
29406	-5e-05	-2e-05	-0.00019	-8e-05	0.00052	0.00072	6e-05	-0.00022	6
29407	-5e-05	-2e-05	-0.00019	-8e-05	0.00052	0.00072	6e-05	-0.00022	6
29408	0.00028	3e-05	-2e-05	-5e-05	-0.00011	0.00062	0.00017	7e-05	6
29409	0.00028	3e-05	-2e-05	-5e-05	-0.00011	0.00062	0.00017	7e-05	6
29410	0.00028	3e-05	-2e-05	-5e-05	-0.00011	0.00062	0.00017	7e-05	6
29411	0.00028	3e-05	-2e-05	-5e-05	-0.00011	0.00062	0.00017	7e-05	6
29412	0.00028	3e-05	-2e-05	-5e-05	-0.00011	0.00062	0.00017	7e-05	6
29413	0.00028	3e-05	-2e-05	-5e-05	-0.00011	0.00062	0.00017	7e-05	6
29414	-0.00034	2e-05	0	-5e-05	-0.00025	-0.00027	-0.00011	0.00015	6
29415	-6e-05	-6e-05	0	-3e-05	0.0001	0.00023	3e-05	0.0002	6
29416	-6e-05	-6e-05	0	-3e-05	0.0001	0.00023	3e-05	0.0002	6
29417	-6e-05	-6e-05	0	-3e-05	0.0001	0.00023	3e-05	0.0002	6
29418	-6e-05	-6e-05	0	-3e-05	0.0001	0.00023	3e-05	0.0002	6
29419	-6e-05	-6e-05	0	-3e-05	0.0001	0.00023	3e-05	0.0002	6
29420	-6e-05	-6e-05	0	-3e-05	0.0001	0.00023	3e-05	0.0002	6
29421	-6e-05	-6e-05	0	-3e-05	0.0001	0.00023	3e-05	0.0002	6
29422	-6e-05	-6e-05	0	-3e-05	0.0001	0.00023	3e-05	0.0002	6
29423	-6e-05	-6e-05	0	-3e-05	0.0001	0.00023	3e-05	0.0002	6
29424	-6e-05	-6e-05	0	-3e-05	0.0001	0.00023	3e-05	0.0002	6
29425	-6e-05	-6e-05	0	-3e-05	0.0001	0.00023	3e-05	0.0002	6
29426	-6e-05	-6e-05	0	-3e-05	0.0001	0.00023	3e-05	0.0002	6
29427	-6e-05	-6e-05	0	-3e-05	0.0001	0.00023	3e-05	0.0002	6
29428	-6e-05	-6e-05	0	-3e-05	0.0001	0.00023	3e-05	0.0002	6
29429	-6e-05	-6e-05	0	-3e-05	0.0001	0.00023	3e-05	0.0002	6
29430	-6e-05	-6e-05	0	-3e-05	0.0001	0.00023	3e-05	0.0002	6
29431	3e-05	-3e-05	-0.0001	-3e-05	0.00025	7e-05	0	4e-05	6
29432	-4e-05	1e-05	2e-05	-4e-05	-5e-05	0.0004	0.00018	0.0003	6
29433	-1e-05	-4e-05	-8e-05	-5e-05	-0.0003	-0.00088	-6e-05	-0.00013	6
29434	-1e-05	-4e-05	-8e-05	-5e-05	-0.0003	-0.00088	-6e-05	-0.00013	6
29435	-1e-05	-4e-05	-8e-05	-5e-05	-0.0003	-0.00088	-6e-05	-0.00013	6
29436	-1e-05	-4e-05	-8e-05	-5e-05	-0.0003	-0.00088	-6e-05	-0.00013	6
29438	-1e-05	-4e-05	-8e-05	-5e-05	-0.0003	-0.00088	-6e-05	-0.00013	6
29439	-1e-05	-4e-05	-8e-05	-5e-05	-0.0003	-0.00088	-6e-05	-0.00013	6
29440	-1e-05	-4e-05	-8e-05	-5e-05	-0.0003	-0.00088	-6e-05	-0.00013	6
29441	-1e-05	-4e-05	-8e-05	-5e-05	-0.0003	-0.00088	-6e-05	-0.00013	6
29442	-1e-05	-4e-05	-8e-05	-5e-05	-0.0003	-0.00088	-6e-05	-0.00013	6
29443	-1e-05	-4e-05	-8e-05	-5e-05	-0.0003	-0.00088	-6e-05	-0.00013	6
29444	-1e-05	-4e-05	-8e-05	-5e-05	-0.0003	-0.00088	-6e-05	-0.00013	6
29445	-1e-05	-4e-05	-8e-05	-5e-05	-0.0003	-0.00088	-6e-05	-0.00013	6
29446	-1e-05	-4e-05	-8e-05	-5e-05	-0.0003	-0.00088	-6e-05	-0.00013	6
29447	-1e-05	-4e-05	-8e-05	-5e-05	-0.0003	-0.00088	-6e-05	-0.00013	6
29448	-1e-05	-4e-05	-8e-05	-5e-05	-0.0003	-0.00088	-6e-05	-0.00013	6
29449	-1e-05	-4e-05	-8e-05	-5e-05	-0.0003	-0.00088	-6e-05	-0.00013	6
29450	-1e-05	-4e-05	-8e-05	-5e-05	-0.0003	-0.00088	-6e-05	-0.00013	6
29451	-1e-05	-4e-05	-8e-05	-5e-05	-0.0003	-0.00088	-6e-05	-0.00013	6
29452	-1e-05	-4e-05	-8e-05	-5e-05	-0.0003	-0.00088	-6e-05	-0.00013	6
29453	-0.00011	-1e-05	-5e-05	-5e-05	-0.00046	-0.00066	-3e-05	4e-05	6
29454	-0.00011	-1e-05	-5e-05	-5e-05	-0.00046	-0.00066	-3e-05	4e-05	6
29455	-0.00011	-1e-05	-5e-05	-5e-05	-0.00046	-0.00066	-3e-05	4e-05	6
29456	-0.00011	-1e-05	-5e-05	-5e-05	-0.00046	-0.00066	-3e-05	4e-05	6
29457	-0.00011	-1e-05	-5e-05	-5e-05	-0.00046	-0.00066	-3e-05	4e-05	6
29458	-0.00011	-1e-05	-5e-05	-5e-05	-0.00046	-0.00066	-3e-05	4e-05	6
29459	-0.00011	-1e-05	-5e-05	-5e-05	-0.00046	-0.00066	-3e-05	4e-05	6
29460	-0.00011	-1e-05	-5e-05	-5e-05	-0.00046	-0.00066	-3e-05	4e-05	6
29461	-0.00011	-1e-05	-5e-05	-5e-05	-0.00046	-0.00066	-3e-05	4e-05	6
29462	-0.00011	-1e-05	-5e-05	-5e-05	-0.00046	-0.00066	-3e-05	4e-05	6
29463	-0.00011	-1e-05	-5e-05	-5e-05	-0.00046	-0.00066	-3e-05	4e-05	6
29464	-0.00011	-1e-05	-5e-05	-5e-05	-0.00046	-0.00066	-3e-05	4e-05	6
29465	-0.00011	-1e-05	-5e-05	-5e-05	-0.00046	-0.00066	-3e-05	4e-05	6
29466	-0.00011	-1e-05	-5e-05	-5e-05	-0.00046	-0.00066	-3e-05	4e-05	6
29467	-0.00011	-1e-05	-5e-05	-5e-05	-0.00046	-0.00066	-3e-05	4e-05	6
29468	-4e-05	2e-05	6e-05	9e-05	0.00017	-6e-05	0.00021	0.00025	6
29469	-4e-05	2e-05	6e-05	9e-05	0.00017	-6e-05	0.00021	0.00025	6
29470	-4e-05	2e-05	6e-05	9e-05	0.00017	-6e-05	0.00021	0.00025	6
29471	-4e-05	2e-05	6e-05	9e-05	0.00017	-6e-05	0.00021	0.00025	6
29472	-4e-05	2e-05	6e-05	9e-05	0.00017	-6e-05	0.00021	0.00025	6
29473	-4e-05	2e-05	6e-05	9e-05	0.00017	-6e-05	0.00021	0.00025	6
29474	-4e-05	2e-05	6e-05	9e-05	0.00017	-6e-05	0.00021	0.00025	6
29475	-0.00012	7e-05	7e-05	-5e-05	-0.00011	0.0005	2e-05	-0.00026	6
29476	-0.00012	7e-05	7e-05	-5e-05	-0.00011	0.0005	2e-05	-0.00026	6
29477	-0.00012	7e-05	7e-05	-5e-05	-0.00011	0.0005	2e-05	-0.00026	6
29478	-0.00012	7e-05	7e-05	-5e-05	-0.00011	0.0005	2e-05	-0.00026	6
29479	-0.00012	7e-05	7e-05	-5e-05	-0.00011	0.0005	2e-05	-0.00026	6
29480	-0.00012	7e-05	7e-05	-5e-05	-0.00011	0.0005	2e-05	-0.00026	6
29481	-0.00012	7e-05	7e-05	-5e-05	-0.00011	0.0005	2e-05	-0.00026	6
29482	-0.00012	7e-05	7e-05	-5e-05	-0.00011	0.0005	2e-05	-0.00026	6
29483	-0.00012	7e-05	7e-05	-5e-05	-0.00011	0.0005	2e-05	-0.00026	6
29484	-0.00012	7e-05	7e-05	-5e-05	-0.00011	0.0005	2e-05	-0.00026	6
29485	-0.00012	7e-05	7e-05	-5e-05	-0.00011	0.0005	2e-05	-0.00026	6
29486	-0.00012	7e-05	7e-05	-5e-05	-0.00011	0.0005	2e-05	-0.00026	6
29488	-0.00012	7e-05	7e-05	-5e-05	-0.00011	0.0005	2e-05	-0.00026	6
29489	-0.00012	7e-05	7e-05	-5e-05	-0.00011	0.0005	2e-05	-0.00026	6
29490	-0.00012	-1e-05	-0.00015	-6e-05	-0.0002	0.00012	1e-05	-6e-05	6
29491	0.0001	1e-05	4e-05	-3e-05	-0.00015	-0.00025	-3e-05	-0.00024	6
29492	0.0001	1e-05	4e-05	-3e-05	-0.00015	-0.00025	-3e-05	-0.00024	6
29493	0.0001	1e-05	4e-05	-3e-05	-0.00015	-0.00025	-3e-05	-0.00024	6
29494	0.0001	1e-05	4e-05	-3e-05	-0.00015	-0.00025	-3e-05	-0.00024	6
29495	0.0001	1e-05	4e-05	-3e-05	-0.00015	-0.00025	-3e-05	-0.00024	6
29496	0.0001	1e-05	4e-05	-3e-05	-0.00015	-0.00025	-3e-05	-0.00024	6
29497	0.0001	1e-05	4e-05	-3e-05	-0.00015	-0.00025	-3e-05	-0.00024	6
29498	0.0001	1e-05	4e-05	-3e-05	-0.00015	-0.00025	-3e-05	-0.00024	6
29499	0.0001	1e-05	4e-05	-3e-05	-0.00015	-0.00025	-3e-05	-0.00024	6
29500	0.0001	1e-05	4e-05	-3e-05	-0.00015	-0.00025	-3e-05	-0.00024	6
29501	0.0001	1e-05	4e-05	-3e-05	-0.00015	-0.00025	-3e-05	-0.00024	6
29502	0.0001	1e-05	4e-05	-3e-05	-0.00015	-0.00025	-3e-05	-0.00024	6
29503	0.0001	1e-05	4e-05	-3e-05	-0.00015	-0.00025	-3e-05	-0.00024	6
29504	0.0001	1e-05	4e-05	-3e-05	-0.00015	-0.00025	-3e-05	-0.00024	6
29505	0.0001	1e-05	4e-05	-3e-05	-0.00015	-0.00025	-3e-05	-0.00024	6
29506	0.0001	1e-05	4e-05	-3e-05	-0.00015	-0.00025	-3e-05	-0.00024	6
29507	0.0001	1e-05	4e-05	-3e-05	-0.00015	-0.00025	-3e-05	-0.00024	6
29508	0.0001	1e-05	4e-05	-3e-05	-0.00015	-0.00025	-3e-05	-0.00024	6
29509	0.0001	1e-05	4e-05	-3e-05	-0.00015	-0.00025	-3e-05	-0.00024	6
29510	0.0001	1e-05	4e-05	-3e-05	-0.00015	-0.00025	-3e-05	-0.00024	6
29511	0.0001	1e-05	4e-05	-3e-05	-0.00015	-0.00025	-3e-05	-0.00024	6
29512	0.0001	1e-05	4e-05	-3e-05	-0.00015	-0.00025	-3e-05	-0.00024	6
29513	-6e-05	-0.00015	-0.0001	-4e-05	0.00011	0.00051	6e-05	0.00024	6
29514	-6e-05	-0.00015	-0.0001	-4e-05	0.00011	0.00051	6e-05	0.00024	6
29515	-6e-05	-0.00015	-0.0001	-4e-05	0.00011	0.00051	6e-05	0.00024	6
29516	-6e-05	-0.00015	-0.0001	-4e-05	0.00011	0.00051	6e-05	0.00024	6
29517	-6e-05	-0.00015	-0.0001	-4e-05	0.00011	0.00051	6e-05	0.00024	6
29518	-6e-05	-0.00015	-0.0001	-4e-05	0.00011	0.00051	6e-05	0.00024	6
29519	-6e-05	-0.00015	-0.0001	-4e-05	0.00011	0.00051	6e-05	0.00024	6
29520	-6e-05	-0.00015	-0.0001	-4e-05	0.00011	0.00051	6e-05	0.00024	6
29521	-6e-05	-0.00015	-0.0001	-4e-05	0.00011	0.00051	6e-05	0.00024	6
29522	-6e-05	-0.00015	-0.0001	-4e-05	0.00011	0.00051	6e-05	0.00024	6
29523	-6e-05	-0.00015	-0.0001	-4e-05	0.00011	0.00051	6e-05	0.00024	6
29524	-6e-05	-0.00015	-0.0001	-4e-05	0.00011	0.00051	6e-05	0.00024	6
29525	-6e-05	-0.00015	-0.0001	-4e-05	0.00011	0.00051	6e-05	0.00024	6
29526	-6e-05	-0.00015	-0.0001	-4e-05	0.00011	0.00051	6e-05	0.00024	6
29527	-0.00012	-7e-05	-5e-05	-2e-05	0.00013	0.00015	-2e-05	8e-05	6
29528	-0.00012	-7e-05	-5e-05	-2e-05	0.00013	0.00015	-2e-05	8e-05	6
29529	-0.00012	-7e-05	-5e-05	-2e-05	0.00013	0.00015	-2e-05	8e-05	6
29530	-0.00012	-7e-05	-5e-05	-2e-05	0.00013	0.00015	-2e-05	8e-05	6
29531	-0.00012	-7e-05	-5e-05	-2e-05	0.00013	0.00015	-2e-05	8e-05	6
29532	-0.00012	-7e-05	-5e-05	-2e-05	0.00013	0.00015	-2e-05	8e-05	6
29533	-0.00012	-7e-05	-5e-05	-2e-05	0.00013	0.00015	-2e-05	8e-05	6
29534	-0.00012	-7e-05	-5e-05	-2e-05	0.00013	0.00015	-2e-05	8e-05	6
29535	-0.00012	-7e-05	-5e-05	-2e-05	0.00013	0.00015	-2e-05	8e-05	6
29536	-9e-05	2e-05	3e-05	3e-05	-0.00041	-0.0004	-8e-05	-0.00029	6
29538	-9e-05	2e-05	3e-05	3e-05	-0.00041	-0.0004	-8e-05	-0.00029	6
29539	-9e-05	2e-05	3e-05	3e-05	-0.00041	-0.0004	-8e-05	-0.00029	6
29540	-9e-05	2e-05	3e-05	3e-05	-0.00041	-0.0004	-8e-05	-0.00029	6
29541	-9e-05	2e-05	3e-05	3e-05	-0.00041	-0.0004	-8e-05	-0.00029	6
29542	-9e-05	2e-05	3e-05	3e-05	-0.00041	-0.0004	-8e-05	-0.00029	6
29543	-9e-05	2e-05	3e-05	3e-05	-0.00041	-0.0004	-8e-05	-0.00029	6
29544	-9e-05	2e-05	3e-05	3e-05	-0.00041	-0.0004	-8e-05	-0.00029	6
29545	-9e-05	2e-05	3e-05	3e-05	-0.00041	-0.0004	-8e-05	-0.00029	6
29546	-9e-05	2e-05	3e-05	3e-05	-0.00041	-0.0004	-8e-05	-0.00029	6
29547	-9e-05	2e-05	3e-05	3e-05	-0.00041	-0.0004	-8e-05	-0.00029	6
29548	-9e-05	2e-05	3e-05	3e-05	-0.00041	-0.0004	-8e-05	-0.00029	6
29549	-9e-05	2e-05	3e-05	3e-05	-0.00041	-0.0004	-8e-05	-0.00029	6
29550	-8e-05	-2e-05	1e-05	-1e-05	-0.00015	-0.00024	0.00018	9e-05	6
29551	-1e-05	2e-05	4e-05	4e-05	2e-05	0.00026	0	3e-05	6
29552	-1e-05	2e-05	4e-05	4e-05	2e-05	0.00026	0	3e-05	6
29553	-1e-05	2e-05	4e-05	4e-05	2e-05	0.00026	0	3e-05	6
29554	-1e-05	2e-05	4e-05	4e-05	2e-05	0.00026	0	3e-05	6
29555	-1e-05	2e-05	4e-05	4e-05	2e-05	0.00026	0	3e-05	6
29556	-1e-05	2e-05	4e-05	4e-05	2e-05	0.00026	0	3e-05	6
29557	-1e-05	2e-05	4e-05	4e-05	2e-05	0.00026	0	3e-05	6
29558	-1e-05	2e-05	4e-05	4e-05	2e-05	0.00026	0	3e-05	6
29559	-1e-05	2e-05	4e-05	4e-05	2e-05	0.00026	0	3e-05	6
29560	-1e-05	2e-05	4e-05	4e-05	2e-05	0.00026	0	3e-05	6
29561	-1e-05	2e-05	4e-05	4e-05	2e-05	0.00026	0	3e-05	6
29562	-1e-05	2e-05	4e-05	4e-05	2e-05	0.00026	0	3e-05	6
29563	-1e-05	2e-05	4e-05	4e-05	2e-05	0.00026	0	3e-05	6
29564	-1e-05	2e-05	4e-05	4e-05	2e-05	0.00026	0	3e-05	6
29565	-1e-05	2e-05	4e-05	4e-05	2e-05	0.00026	0	3e-05	6
29566	-1e-05	2e-05	4e-05	4e-05	2e-05	0.00026	0	3e-05	6
29567	-1e-05	2e-05	4e-05	4e-05	2e-05	0.00026	0	3e-05	6
29568	-1e-05	2e-05	4e-05	4e-05	2e-05	0.00026	0	3e-05	6
29569	-1e-05	2e-05	4e-05	4e-05	2e-05	0.00026	0	3e-05	6
29570	-1e-05	2e-05	4e-05	4e-05	2e-05	0.00026	0	3e-05	6
29571	-1e-05	2e-05	4e-05	4e-05	2e-05	0.00026	0	3e-05	6
29572	-1e-05	2e-05	4e-05	4e-05	2e-05	0.00026	0	3e-05	6
29573	4e-05	1e-05	1e-05	5e-05	7e-05	0.00047	0.00016	0.00036	6
29574	4e-05	1e-05	1e-05	5e-05	7e-05	0.00047	0.00016	0.00036	6
29575	4e-05	1e-05	1e-05	5e-05	7e-05	0.00047	0.00016	0.00036	6
29576	4e-05	1e-05	1e-05	5e-05	7e-05	0.00047	0.00016	0.00036	6
29577	4e-05	1e-05	1e-05	5e-05	7e-05	0.00047	0.00016	0.00036	6
29578	4e-05	1e-05	1e-05	5e-05	7e-05	0.00047	0.00016	0.00036	6
29579	4e-05	1e-05	1e-05	5e-05	7e-05	0.00047	0.00016	0.00036	6
29580	4e-05	1e-05	1e-05	5e-05	7e-05	0.00047	0.00016	0.00036	6
29581	4e-05	1e-05	1e-05	5e-05	7e-05	0.00047	0.00016	0.00036	6
29582	4e-05	1e-05	1e-05	5e-05	7e-05	0.00047	0.00016	0.00036	6
29583	4e-05	1e-05	1e-05	5e-05	7e-05	0.00047	0.00016	0.00036	6
29584	4e-05	1e-05	1e-05	5e-05	7e-05	0.00047	0.00016	0.00036	6
29585	4e-05	1e-05	1e-05	5e-05	7e-05	0.00047	0.00016	0.00036	6
29586	4e-05	1e-05	1e-05	5e-05	7e-05	0.00047	0.00016	0.00036	6
29588	4e-05	1e-05	1e-05	5e-05	7e-05	0.00047	0.00016	0.00036	6
29589	-1e-05	0	-8e-05	-3e-05	5e-05	-0.0006	-1e-05	6e-05	6
29590	-1e-05	0	-8e-05	-3e-05	5e-05	-0.0006	-1e-05	6e-05	6
29591	-1e-05	0	-8e-05	-3e-05	5e-05	-0.0006	-1e-05	6e-05	6
29592	-1e-05	0	-8e-05	-3e-05	5e-05	-0.0006	-1e-05	6e-05	6
29593	-1e-05	0	-8e-05	-3e-05	5e-05	-0.0006	-1e-05	6e-05	6
29594	-1e-05	0	-8e-05	-3e-05	5e-05	-0.0006	-1e-05	6e-05	6
29595	-0.00011	-3e-05	-6e-05	2e-05	0.00015	0.00014	-4e-05	-0.00011	6
29596	-0.00011	-3e-05	-6e-05	2e-05	0.00015	0.00014	-4e-05	-0.00011	6
29597	-0.00011	-3e-05	-6e-05	2e-05	0.00015	0.00014	-4e-05	-0.00011	6
29598	-0.00011	-3e-05	-6e-05	2e-05	0.00015	0.00014	-4e-05	-0.00011	6
29599	-0.00011	-3e-05	-6e-05	2e-05	0.00015	0.00014	-4e-05	-0.00011	6
29600	-0.00011	-3e-05	-6e-05	2e-05	0.00015	0.00014	-4e-05	-0.00011	6
29601	-0.00011	-3e-05	-6e-05	2e-05	0.00015	0.00014	-4e-05	-0.00011	6
29602	-0.00011	-3e-05	-6e-05	2e-05	0.00015	0.00014	-4e-05	-0.00011	6
29603	-0.00011	-3e-05	-6e-05	2e-05	0.00015	0.00014	-4e-05	-0.00011	6
29604	-0.00011	-3e-05	-6e-05	2e-05	0.00015	0.00014	-4e-05	-0.00011	6
29605	-0.00011	-3e-05	-6e-05	2e-05	0.00015	0.00014	-4e-05	-0.00011	6
29606	-0.00011	-3e-05	-6e-05	2e-05	0.00015	0.00014	-4e-05	-0.00011	6
29607	-0.00011	-3e-05	-6e-05	2e-05	0.00015	0.00014	-4e-05	-0.00011	6
29608	-0.00011	-3e-05	-6e-05	2e-05	0.00015	0.00014	-4e-05	-0.00011	6
29609	-0.00011	-3e-05	-6e-05	2e-05	0.00015	0.00014	-4e-05	-0.00011	6
29610	-0.00013	-1e-05	1e-05	-0.0001	-0.00018	7e-05	-0.00012	-0.00017	6
29611	-2e-05	-6e-05	-3e-05	-5e-05	0.00017	-0.00028	0	-0.00034	6
29612	-2e-05	-6e-05	-3e-05	-5e-05	0.00017	-0.00028	0	-0.00034	6
29613	-2e-05	-6e-05	-3e-05	-5e-05	0.00017	-0.00028	0	-0.00034	6
29614	-2e-05	-6e-05	-3e-05	-5e-05	0.00017	-0.00028	0	-0.00034	6
29615	-2e-05	-6e-05	-3e-05	-5e-05	0.00017	-0.00028	0	-0.00034	6
29616	-2e-05	-6e-05	-3e-05	-5e-05	0.00017	-0.00028	0	-0.00034	6
29617	-2e-05	-6e-05	-3e-05	-5e-05	0.00017	-0.00028	0	-0.00034	6
29618	-2e-05	-6e-05	-3e-05	-5e-05	0.00017	-0.00028	0	-0.00034	6
29619	-2e-05	-6e-05	-3e-05	-5e-05	0.00017	-0.00028	0	-0.00034	6
29620	-2e-05	-6e-05	-3e-05	-5e-05	0.00017	-0.00028	0	-0.00034	6
29621	-2e-05	-6e-05	-3e-05	-5e-05	0.00017	-0.00028	0	-0.00034	6
29622	-2e-05	-6e-05	-3e-05	-5e-05	0.00017	-0.00028	0	-0.00034	6
29623	-2e-05	-6e-05	-3e-05	-5e-05	0.00017	-0.00028	0	-0.00034	6
29624	-2e-05	-6e-05	-3e-05	-5e-05	0.00017	-0.00028	0	-0.00034	6
29625	-2e-05	-6e-05	-3e-05	-5e-05	0.00017	-0.00028	0	-0.00034	6
29626	-2e-05	-6e-05	-3e-05	-5e-05	0.00017	-0.00028	0	-0.00034	6
29627	-2e-05	-6e-05	-3e-05	-5e-05	0.00017	-0.00028	0	-0.00034	6
29628	-2e-05	-6e-05	-3e-05	-5e-05	0.00017	-0.00028	0	-0.00034	6
29629	-2e-05	-6e-05	-3e-05	-5e-05	0.00017	-0.00028	0	-0.00034	6
29630	-2e-05	-6e-05	-3e-05	-5e-05	0.00017	-0.00028	0	-0.00034	6
29631	-2e-05	-6e-05	-3e-05	-5e-05	0.00017	-0.00028	0	-0.00034	6
29632	-2e-05	-6e-05	-3e-05	-5e-05	0.00017	-0.00028	0	-0.00034	6
29633	0.00012	0.0001	5e-05	5e-05	-0.00021	0.0003	-6e-05	0.0002	6
29634	0.00012	0.0001	5e-05	5e-05	-0.00021	0.0003	-6e-05	0.0002	6
29635	0.00012	0.0001	5e-05	5e-05	-0.00021	0.0003	-6e-05	0.0002	6
29636	0.00012	0.0001	5e-05	5e-05	-0.00021	0.0003	-6e-05	0.0002	6
29638	0.00012	0.0001	5e-05	5e-05	-0.00021	0.0003	-6e-05	0.0002	6
29639	0.00012	0.0001	5e-05	5e-05	-0.00021	0.0003	-6e-05	0.0002	6
29640	0.00012	0.0001	5e-05	5e-05	-0.00021	0.0003	-6e-05	0.0002	6
29641	0.00012	0.0001	5e-05	5e-05	-0.00021	0.0003	-6e-05	0.0002	6
29642	0.00012	0.0001	5e-05	5e-05	-0.00021	0.0003	-6e-05	0.0002	6
29643	0.00012	0.0001	5e-05	5e-05	-0.00021	0.0003	-6e-05	0.0002	6
29644	0.00012	0.0001	5e-05	5e-05	-0.00021	0.0003	-6e-05	0.0002	6
29645	0.00012	0.0001	5e-05	5e-05	-0.00021	0.0003	-6e-05	0.0002	6
29646	0.00012	0.0001	5e-05	5e-05	-0.00021	0.0003	-6e-05	0.0002	6
29647	0.00012	0.0001	5e-05	5e-05	-0.00021	0.0003	-6e-05	0.0002	6
29648	-1e-05	0	0	1e-05	0.0001	-0.00034	8e-05	0.00027	6
29650	-1e-05	0	0	1e-05	0.0001	-0.00034	8e-05	0.00027	6
29651	-1e-05	0	0	1e-05	0.0001	-0.00034	8e-05	0.00027	6
29652	-1e-05	0	0	1e-05	0.0001	-0.00034	8e-05	0.00027	6
29653	-1e-05	0	0	1e-05	0.0001	-0.00034	8e-05	0.00027	6
29654	-1e-05	0	0	1e-05	0.0001	-0.00034	8e-05	0.00027	6
29655	-1e-05	0	0	1e-05	0.0001	-0.00034	8e-05	0.00027	6
29656	-1e-05	0	0	1e-05	0.0001	-0.00034	8e-05	0.00027	6
29657	-1e-05	0	0	1e-05	0.0001	-0.00034	8e-05	0.00027	6
29658	-1e-05	0	0	1e-05	0.0001	-0.00034	8e-05	0.00027	6
29659	-1e-05	0	0	1e-05	0.0001	-0.00034	8e-05	0.00027	6
29660	-1e-05	0	0	1e-05	0.0001	-0.00034	8e-05	0.00027	6
29661	-1e-05	0	0	1e-05	0.0001	-0.00034	8e-05	0.00027	6
29662	-1e-05	0	0	1e-05	0.0001	-0.00034	8e-05	0.00027	6
29663	-1e-05	0	0	1e-05	0.0001	-0.00034	8e-05	0.00027	6
29664	-1e-05	0	0	1e-05	0.0001	-0.00034	8e-05	0.00027	6
29665	-1e-05	0	0	1e-05	0.0001	-0.00034	8e-05	0.00027	6
29666	-1e-05	0	0	1e-05	0.0001	-0.00034	8e-05	0.00027	6
29667	-1e-05	0	0	1e-05	0.0001	-0.00034	8e-05	0.00027	6
29668	-1e-05	0	0	1e-05	0.0001	-0.00034	8e-05	0.00027	6
29669	-1e-05	0	0	1e-05	0.0001	-0.00034	8e-05	0.00027	6
29670	6e-05	2e-05	-7e-05	2e-05	-9e-05	4e-05	-3e-05	9e-05	6
29671	8e-05	-1e-05	5e-05	5e-05	2e-05	3e-05	-0.00013	0	6
29672	8e-05	-1e-05	5e-05	5e-05	2e-05	3e-05	-0.00013	0	6
29673	8e-05	-1e-05	5e-05	5e-05	2e-05	3e-05	-0.00013	0	6
29674	8e-05	-1e-05	5e-05	5e-05	2e-05	3e-05	-0.00013	0	6
29675	8e-05	-1e-05	5e-05	5e-05	2e-05	3e-05	-0.00013	0	6
29676	8e-05	-1e-05	5e-05	5e-05	2e-05	3e-05	-0.00013	0	6
29677	8e-05	-1e-05	5e-05	5e-05	2e-05	3e-05	-0.00013	0	6
29678	8e-05	-1e-05	5e-05	5e-05	2e-05	3e-05	-0.00013	0	6
29679	8e-05	-1e-05	5e-05	5e-05	2e-05	3e-05	-0.00013	0	6
29680	8e-05	-1e-05	5e-05	5e-05	2e-05	3e-05	-0.00013	0	6
29681	8e-05	-1e-05	5e-05	5e-05	2e-05	3e-05	-0.00013	0	6
29682	8e-05	-1e-05	5e-05	5e-05	2e-05	3e-05	-0.00013	0	6
29683	8e-05	-1e-05	5e-05	5e-05	2e-05	3e-05	-0.00013	0	6
29684	8e-05	-1e-05	5e-05	5e-05	2e-05	3e-05	-0.00013	0	6
29685	8e-05	-1e-05	5e-05	5e-05	2e-05	3e-05	-0.00013	0	6
29686	8e-05	-1e-05	5e-05	5e-05	2e-05	3e-05	-0.00013	0	6
29688	8e-05	-1e-05	5e-05	5e-05	2e-05	3e-05	-0.00013	0	6
29689	8e-05	-1e-05	5e-05	5e-05	2e-05	3e-05	-0.00013	0	6
29690	8e-05	-1e-05	5e-05	5e-05	2e-05	3e-05	-0.00013	0	6
29691	8e-05	-1e-05	5e-05	5e-05	2e-05	3e-05	-0.00013	0	6
29692	8e-05	-1e-05	5e-05	5e-05	2e-05	3e-05	-0.00013	0	6
29693	3e-05	1e-05	9e-05	0	-3e-05	-0.00019	-3e-05	-0.00012	6
29694	3e-05	1e-05	9e-05	0	-3e-05	-0.00019	-3e-05	-0.00012	6
29695	3e-05	1e-05	9e-05	0	-3e-05	-0.00019	-3e-05	-0.00012	6
29696	3e-05	1e-05	9e-05	0	-3e-05	-0.00019	-3e-05	-0.00012	6
29697	3e-05	1e-05	9e-05	0	-3e-05	-0.00019	-3e-05	-0.00012	6
29698	3e-05	1e-05	9e-05	0	-3e-05	-0.00019	-3e-05	-0.00012	6
29699	3e-05	1e-05	9e-05	0	-3e-05	-0.00019	-3e-05	-0.00012	6
29700	3e-05	1e-05	9e-05	0	-3e-05	-0.00019	-3e-05	-0.00012	6
29701	3e-05	1e-05	9e-05	0	-3e-05	-0.00019	-3e-05	-0.00012	6
29702	3e-05	1e-05	9e-05	0	-3e-05	-0.00019	-3e-05	-0.00012	6
29703	3e-05	1e-05	9e-05	0	-3e-05	-0.00019	-3e-05	-0.00012	6
29704	3e-05	1e-05	9e-05	0	-3e-05	-0.00019	-3e-05	-0.00012	6
29705	3e-05	1e-05	9e-05	0	-3e-05	-0.00019	-3e-05	-0.00012	6
29706	3e-05	1e-05	9e-05	0	-3e-05	-0.00019	-3e-05	-0.00012	6
29707	3e-05	1e-05	9e-05	0	-3e-05	-0.00019	-3e-05	-0.00012	6
29708	3e-05	1e-05	9e-05	0	-3e-05	-0.00019	-3e-05	-0.00012	6
29709	-7e-05	-2e-05	-8e-05	-6e-05	-3e-05	-0.00046	-0.00014	-0.00023	6
29710	-2e-05	1e-05	0	-8e-05	-0.00046	-0.00011	1e-05	-2e-05	6
29711	3e-05	-6e-05	6e-05	2e-05	2e-05	-6e-05	5e-05	0.0004	6
29712	3e-05	-6e-05	6e-05	2e-05	2e-05	-6e-05	5e-05	0.0004	6
29713	3e-05	-6e-05	6e-05	2e-05	2e-05	-6e-05	5e-05	0.0004	6
29714	3e-05	-6e-05	6e-05	2e-05	2e-05	-6e-05	5e-05	0.0004	6
29715	3e-05	-6e-05	6e-05	2e-05	2e-05	-6e-05	5e-05	0.0004	6
29716	3e-05	-6e-05	6e-05	2e-05	2e-05	-6e-05	5e-05	0.0004	6
29717	3e-05	-6e-05	6e-05	2e-05	2e-05	-6e-05	5e-05	0.0004	6
29718	3e-05	-6e-05	6e-05	2e-05	2e-05	-6e-05	5e-05	0.0004	6
29719	3e-05	-6e-05	6e-05	2e-05	2e-05	-6e-05	5e-05	0.0004	6
29720	3e-05	-6e-05	6e-05	2e-05	2e-05	-6e-05	5e-05	0.0004	6
29721	3e-05	-6e-05	6e-05	2e-05	2e-05	-6e-05	5e-05	0.0004	6
29722	3e-05	-6e-05	6e-05	2e-05	2e-05	-6e-05	5e-05	0.0004	6
29723	3e-05	-6e-05	6e-05	2e-05	2e-05	-6e-05	5e-05	0.0004	6
29724	3e-05	-6e-05	6e-05	2e-05	2e-05	-6e-05	5e-05	0.0004	6
29725	3e-05	-6e-05	6e-05	2e-05	2e-05	-6e-05	5e-05	0.0004	6
29726	3e-05	-6e-05	6e-05	2e-05	2e-05	-6e-05	5e-05	0.0004	6
29727	3e-05	-6e-05	6e-05	2e-05	2e-05	-6e-05	5e-05	0.0004	6
29728	3e-05	-6e-05	6e-05	2e-05	2e-05	-6e-05	5e-05	0.0004	6
29729	3e-05	-6e-05	6e-05	2e-05	2e-05	-6e-05	5e-05	0.0004	6
29730	-1e-05	-6e-05	-1e-05	-1e-05	0.00019	0.00028	-3e-05	-4e-05	6
29731	-1e-05	0	-1e-05	-7e-05	-3e-05	-9e-05	-9e-05	-0.0005	6
29732	-1e-05	0	-1e-05	-7e-05	-3e-05	-9e-05	-9e-05	-0.0005	6
29733	-1e-05	0	-1e-05	-7e-05	-3e-05	-9e-05	-9e-05	-0.0005	6
29734	-1e-05	0	-1e-05	-7e-05	-3e-05	-9e-05	-9e-05	-0.0005	6
29735	-1e-05	0	-1e-05	-7e-05	-3e-05	-9e-05	-9e-05	-0.0005	6
29736	-1e-05	0	-1e-05	-7e-05	-3e-05	-9e-05	-9e-05	-0.0005	6
29738	-1e-05	0	-1e-05	-7e-05	-3e-05	-9e-05	-9e-05	-0.0005	6
29739	-1e-05	0	-1e-05	-7e-05	-3e-05	-9e-05	-9e-05	-0.0005	6
29740	-1e-05	0	-1e-05	-7e-05	-3e-05	-9e-05	-9e-05	-0.0005	6
29741	-1e-05	0	-1e-05	-7e-05	-3e-05	-9e-05	-9e-05	-0.0005	6
29742	-1e-05	0	-1e-05	-7e-05	-3e-05	-9e-05	-9e-05	-0.0005	6
29743	-1e-05	0	-1e-05	-7e-05	-3e-05	-9e-05	-9e-05	-0.0005	6
29744	-1e-05	0	-1e-05	-7e-05	-3e-05	-9e-05	-9e-05	-0.0005	6
29745	-1e-05	0	-1e-05	-7e-05	-3e-05	-9e-05	-9e-05	-0.0005	6
29746	-1e-05	0	-1e-05	-7e-05	-3e-05	-9e-05	-9e-05	-0.0005	6
29747	-1e-05	0	-1e-05	-7e-05	-3e-05	-9e-05	-9e-05	-0.0005	6
29748	-1e-05	0	-1e-05	-7e-05	-3e-05	-9e-05	-9e-05	-0.0005	6
29749	-1e-05	0	-1e-05	-7e-05	-3e-05	-9e-05	-9e-05	-0.0005	6
29750	-1e-05	0	-1e-05	-7e-05	-3e-05	-9e-05	-9e-05	-0.0005	6
29751	-1e-05	0	-1e-05	-7e-05	-3e-05	-9e-05	-9e-05	-0.0005	6
29752	3e-05	-1e-05	-5e-05	-3e-05	6e-05	0.00015	1e-05	-0.0001	6
29753	-7e-05	1e-05	4e-05	-6e-05	-0.00044	-0.00024	3e-05	5e-05	6
29754	-7e-05	1e-05	4e-05	-6e-05	-0.00044	-0.00024	3e-05	5e-05	6
29755	-7e-05	1e-05	4e-05	-6e-05	-0.00044	-0.00024	3e-05	5e-05	6
29756	-7e-05	1e-05	4e-05	-6e-05	-0.00044	-0.00024	3e-05	5e-05	6
29757	-7e-05	1e-05	4e-05	-6e-05	-0.00044	-0.00024	3e-05	5e-05	6
29758	-7e-05	1e-05	4e-05	-6e-05	-0.00044	-0.00024	3e-05	5e-05	6
29759	-7e-05	1e-05	4e-05	-6e-05	-0.00044	-0.00024	3e-05	5e-05	6
29760	-0.00021	-6e-05	-4e-05	2e-05	-4e-05	0.00016	2e-05	3e-05	6
29761	-0.00021	-6e-05	-4e-05	2e-05	-4e-05	0.00016	2e-05	3e-05	6
29762	-0.00021	-6e-05	-4e-05	2e-05	-4e-05	0.00016	2e-05	3e-05	6
29763	-0.00021	-6e-05	-4e-05	2e-05	-4e-05	0.00016	2e-05	3e-05	6
29764	-0.00021	-6e-05	-4e-05	2e-05	-4e-05	0.00016	2e-05	3e-05	6
29765	-0.00021	-6e-05	-4e-05	2e-05	-4e-05	0.00016	2e-05	3e-05	6
29766	-0.00021	-6e-05	-4e-05	2e-05	-4e-05	0.00016	2e-05	3e-05	6
29767	-0.00021	-6e-05	-4e-05	2e-05	-4e-05	0.00016	2e-05	3e-05	6
29768	-1e-05	6e-05	1e-05	-3e-05	-0.00024	-0.0002	3e-05	1e-05	6
29769	-1e-05	6e-05	1e-05	-3e-05	-0.00024	-0.0002	3e-05	1e-05	6
29770	-1e-05	6e-05	1e-05	-3e-05	-0.00024	-0.0002	3e-05	1e-05	6
29771	-1e-05	6e-05	1e-05	-3e-05	-0.00024	-0.0002	3e-05	1e-05	6
29772	-1e-05	6e-05	1e-05	-3e-05	-0.00024	-0.0002	3e-05	1e-05	6
29773	-1e-05	6e-05	1e-05	-3e-05	-0.00024	-0.0002	3e-05	1e-05	6
29774	-1e-05	6e-05	1e-05	-3e-05	-0.00024	-0.0002	3e-05	1e-05	6
29775	-1e-05	6e-05	1e-05	-3e-05	-0.00024	-0.0002	3e-05	1e-05	6
29776	-1e-05	6e-05	1e-05	-3e-05	-0.00024	-0.0002	3e-05	1e-05	6
29777	-1e-05	6e-05	1e-05	-3e-05	-0.00024	-0.0002	3e-05	1e-05	6
29778	-1e-05	6e-05	1e-05	-3e-05	-0.00024	-0.0002	3e-05	1e-05	6
29779	-1e-05	6e-05	1e-05	-3e-05	-0.00024	-0.0002	3e-05	1e-05	6
29780	-1e-05	6e-05	1e-05	-3e-05	-0.00024	-0.0002	3e-05	1e-05	6
29781	-1e-05	6e-05	1e-05	-3e-05	-0.00024	-0.0002	3e-05	1e-05	6
29782	-1e-05	6e-05	1e-05	-3e-05	-0.00024	-0.0002	3e-05	1e-05	6
29783	-1e-05	6e-05	1e-05	-3e-05	-0.00024	-0.0002	3e-05	1e-05	6
29784	-1e-05	6e-05	1e-05	-3e-05	-0.00024	-0.0002	3e-05	1e-05	6
29785	-1e-05	6e-05	1e-05	-3e-05	-0.00024	-0.0002	3e-05	1e-05	6
29786	-1e-05	6e-05	1e-05	-3e-05	-0.00024	-0.0002	3e-05	1e-05	6
29788	-1e-05	6e-05	1e-05	-3e-05	-0.00024	-0.0002	3e-05	1e-05	6
29789	-1e-05	6e-05	1e-05	-3e-05	-0.00024	-0.0002	3e-05	1e-05	6
29790	-1e-05	-3e-05	-1e-05	2e-05	-4e-05	-0.00028	-4e-05	0.00013	6
29791	3e-05	-3e-05	-5e-05	-5e-05	5e-05	0.0001	0	3e-05	6
29792	3e-05	-3e-05	-5e-05	-5e-05	5e-05	0.0001	0	3e-05	6
29793	3e-05	-3e-05	-5e-05	-5e-05	5e-05	0.0001	0	3e-05	6
29794	3e-05	-3e-05	-5e-05	-5e-05	5e-05	0.0001	0	3e-05	6
29795	3e-05	-3e-05	-5e-05	-5e-05	5e-05	0.0001	0	3e-05	6
29796	3e-05	-3e-05	-5e-05	-5e-05	5e-05	0.0001	0	3e-05	6
29797	3e-05	-3e-05	-5e-05	-5e-05	5e-05	0.0001	0	3e-05	6
29798	3e-05	-3e-05	-5e-05	-5e-05	5e-05	0.0001	0	3e-05	6
29799	3e-05	-3e-05	-5e-05	-5e-05	5e-05	0.0001	0	3e-05	6
29800	3e-05	-3e-05	-5e-05	-5e-05	5e-05	0.0001	0	3e-05	6
29801	3e-05	-3e-05	-5e-05	-5e-05	5e-05	0.0001	0	3e-05	6
29802	3e-05	-3e-05	-5e-05	-5e-05	5e-05	0.0001	0	3e-05	6
29803	3e-05	-3e-05	-5e-05	-5e-05	5e-05	0.0001	0	3e-05	6
29804	3e-05	-3e-05	-5e-05	-5e-05	5e-05	0.0001	0	3e-05	6
29805	3e-05	-3e-05	-5e-05	-5e-05	5e-05	0.0001	0	3e-05	6
29806	3e-05	-3e-05	-5e-05	-5e-05	5e-05	0.0001	0	3e-05	6
29807	3e-05	-3e-05	-5e-05	-5e-05	5e-05	0.0001	0	3e-05	6
29808	3e-05	-3e-05	-5e-05	-5e-05	5e-05	0.0001	0	3e-05	6
29809	3e-05	-3e-05	-5e-05	-5e-05	5e-05	0.0001	0	3e-05	6
29810	3e-05	-3e-05	-5e-05	-5e-05	5e-05	0.0001	0	3e-05	6
29811	3e-05	-3e-05	-5e-05	-5e-05	5e-05	0.0001	0	3e-05	6
29812	3e-05	-3e-05	-5e-05	-5e-05	5e-05	0.0001	0	3e-05	6
29813	3e-05	-3e-05	-5e-05	-5e-05	5e-05	0.0001	0	3e-05	6
29814	-5e-05	-0.00011	-4e-05	-1e-05	-0.00012	-6e-05	-2e-05	3e-05	6
29815	-5e-05	-0.00011	-4e-05	-1e-05	-0.00012	-6e-05	-2e-05	3e-05	6
29816	-5e-05	-0.00011	-4e-05	-1e-05	-0.00012	-6e-05	-2e-05	3e-05	6
29817	-5e-05	-0.00011	-4e-05	-1e-05	-0.00012	-6e-05	-2e-05	3e-05	6
29818	-5e-05	-0.00011	-4e-05	-1e-05	-0.00012	-6e-05	-2e-05	3e-05	6
29819	-5e-05	-0.00011	-4e-05	-1e-05	-0.00012	-6e-05	-2e-05	3e-05	6
29820	-5e-05	-0.00011	-4e-05	-1e-05	-0.00012	-6e-05	-2e-05	3e-05	6
29821	-5e-05	-0.00011	-4e-05	-1e-05	-0.00012	-6e-05	-2e-05	3e-05	6
29822	-5e-05	-0.00011	-4e-05	-1e-05	-0.00012	-6e-05	-2e-05	3e-05	6
29823	-5e-05	-0.00011	-4e-05	-1e-05	-0.00012	-6e-05	-2e-05	3e-05	6
29824	-5e-05	-0.00011	-4e-05	-1e-05	-0.00012	-6e-05	-2e-05	3e-05	6
29825	-5e-05	-0.00011	-4e-05	-1e-05	-0.00012	-6e-05	-2e-05	3e-05	6
29826	-5e-05	-0.00011	-4e-05	-1e-05	-0.00012	-6e-05	-2e-05	3e-05	6
29827	-5e-05	-0.00011	-4e-05	-1e-05	-0.00012	-6e-05	-2e-05	3e-05	6
29828	-8e-05	-9e-05	-6e-05	-0.00012	-4e-05	-6e-05	-0.00012	3e-05	6
29829	-8e-05	-9e-05	-6e-05	-0.00012	-4e-05	-6e-05	-0.00012	3e-05	6
29830	-8e-05	-9e-05	-6e-05	-0.00012	-4e-05	-6e-05	-0.00012	3e-05	6
29831	-8e-05	-9e-05	-6e-05	-0.00012	-4e-05	-6e-05	-0.00012	3e-05	6
29832	-8e-05	-9e-05	-6e-05	-0.00012	-4e-05	-6e-05	-0.00012	3e-05	6
29833	-8e-05	-9e-05	-6e-05	-0.00012	-4e-05	-6e-05	-0.00012	3e-05	6
29834	-8e-05	-9e-05	-6e-05	-0.00012	-4e-05	-6e-05	-0.00012	3e-05	6
29835	-0.00023	2e-05	2e-05	-3e-05	0.00014	-0.0003	-0.00012	0	6
29836	-0.00023	2e-05	2e-05	-3e-05	0.00014	-0.0003	-0.00012	0	6
29838	-0.00023	2e-05	2e-05	-3e-05	0.00014	-0.0003	-0.00012	0	6
29839	-0.00023	2e-05	2e-05	-3e-05	0.00014	-0.0003	-0.00012	0	6
29840	-0.00023	2e-05	2e-05	-3e-05	0.00014	-0.0003	-0.00012	0	6
29841	-0.00023	2e-05	2e-05	-3e-05	0.00014	-0.0003	-0.00012	0	6
29842	-0.00023	2e-05	2e-05	-3e-05	0.00014	-0.0003	-0.00012	0	6
29843	-0.00023	2e-05	2e-05	-3e-05	0.00014	-0.0003	-0.00012	0	6
29844	-0.00023	2e-05	2e-05	-3e-05	0.00014	-0.0003	-0.00012	0	6
29845	-0.00023	2e-05	2e-05	-3e-05	0.00014	-0.0003	-0.00012	0	6
29846	-0.00023	2e-05	2e-05	-3e-05	0.00014	-0.0003	-0.00012	0	6
29847	-0.00023	2e-05	2e-05	-3e-05	0.00014	-0.0003	-0.00012	0	6
29848	-0.00023	2e-05	2e-05	-3e-05	0.00014	-0.0003	-0.00012	0	6
29849	-0.00023	2e-05	2e-05	-3e-05	0.00014	-0.0003	-0.00012	0	6
29850	-7e-05	-8e-05	-3e-05	-2e-05	-0.00015	4e-05	-3e-05	-0.00013	6
29851	8e-05	0	-3e-05	-1e-05	-0.0001	-0.00015	1e-05	-0.00015	6
29852	8e-05	0	-3e-05	-1e-05	-0.0001	-0.00015	1e-05	-0.00015	6
29853	8e-05	0	-3e-05	-1e-05	-0.0001	-0.00015	1e-05	-0.00015	6
29854	8e-05	0	-3e-05	-1e-05	-0.0001	-0.00015	1e-05	-0.00015	6
29855	8e-05	0	-3e-05	-1e-05	-0.0001	-0.00015	1e-05	-0.00015	6
29856	8e-05	0	-3e-05	-1e-05	-0.0001	-0.00015	1e-05	-0.00015	6
29857	8e-05	0	-3e-05	-1e-05	-0.0001	-0.00015	1e-05	-0.00015	6
29858	8e-05	0	-3e-05	-1e-05	-0.0001	-0.00015	1e-05	-0.00015	6
29859	8e-05	0	-3e-05	-1e-05	-0.0001	-0.00015	1e-05	-0.00015	6
29860	8e-05	0	-3e-05	-1e-05	-0.0001	-0.00015	1e-05	-0.00015	6
29861	8e-05	0	-3e-05	-1e-05	-0.0001	-0.00015	1e-05	-0.00015	6
29862	8e-05	0	-3e-05	-1e-05	-0.0001	-0.00015	1e-05	-0.00015	6
29863	8e-05	0	-3e-05	-1e-05	-0.0001	-0.00015	1e-05	-0.00015	6
29864	8e-05	0	-3e-05	-1e-05	-0.0001	-0.00015	1e-05	-0.00015	6
29865	8e-05	0	-3e-05	-1e-05	-0.0001	-0.00015	1e-05	-0.00015	6
29866	8e-05	0	-3e-05	-1e-05	-0.0001	-0.00015	1e-05	-0.00015	6
29867	8e-05	0	-3e-05	-1e-05	-0.0001	-0.00015	1e-05	-0.00015	6
29868	8e-05	0	-3e-05	-1e-05	-0.0001	-0.00015	1e-05	-0.00015	6
29869	8e-05	0	-3e-05	-1e-05	-0.0001	-0.00015	1e-05	-0.00015	6
29870	8e-05	0	-3e-05	-1e-05	-0.0001	-0.00015	1e-05	-0.00015	6
29871	8e-05	0	-3e-05	-1e-05	-0.0001	-0.00015	1e-05	-0.00015	6
29872	-0.00023	-2e-05	-1e-05	-1e-05	0.00011	-2e-05	-6e-05	-4e-05	6
29873	-3e-05	-0.0001	-1e-05	2e-05	0.00027	0.00092	9e-05	-3e-05	6
29874	0.00011	8e-05	2e-05	1e-05	-7e-05	0.00033	0.00012	-0.00013	6
29875	0.00011	8e-05	2e-05	1e-05	-7e-05	0.00033	0.00012	-0.00013	6
29876	0.00011	8e-05	2e-05	1e-05	-7e-05	0.00033	0.00012	-0.00013	6
29877	0.00011	8e-05	2e-05	1e-05	-7e-05	0.00033	0.00012	-0.00013	6
29878	0.00011	8e-05	2e-05	1e-05	-7e-05	0.00033	0.00012	-0.00013	6
29879	0.00011	8e-05	2e-05	1e-05	-7e-05	0.00033	0.00012	-0.00013	6
29880	0.00011	8e-05	2e-05	1e-05	-7e-05	0.00033	0.00012	-0.00013	6
29881	0.00011	8e-05	2e-05	1e-05	-7e-05	0.00033	0.00012	-0.00013	6
29882	0.00011	8e-05	2e-05	1e-05	-7e-05	0.00033	0.00012	-0.00013	6
29883	0.00011	8e-05	2e-05	1e-05	-7e-05	0.00033	0.00012	-0.00013	6
29884	0.00011	8e-05	2e-05	1e-05	-7e-05	0.00033	0.00012	-0.00013	6
29885	0.00011	8e-05	2e-05	1e-05	-7e-05	0.00033	0.00012	-0.00013	6
29886	0.00011	8e-05	2e-05	1e-05	-7e-05	0.00033	0.00012	-0.00013	6
29888	4e-05	1e-05	6e-05	4e-05	0.00023	0.0007	0.00016	0.00033	6
29889	4e-05	1e-05	6e-05	4e-05	0.00023	0.0007	0.00016	0.00033	6
29890	4e-05	1e-05	6e-05	4e-05	0.00023	0.0007	0.00016	0.00033	6
29891	4e-05	1e-05	6e-05	4e-05	0.00023	0.0007	0.00016	0.00033	6
29892	4e-05	1e-05	6e-05	4e-05	0.00023	0.0007	0.00016	0.00033	6
29893	4e-05	1e-05	6e-05	4e-05	0.00023	0.0007	0.00016	0.00033	6
29894	4e-05	1e-05	6e-05	4e-05	0.00023	0.0007	0.00016	0.00033	6
29895	4e-05	1e-05	6e-05	4e-05	0.00023	0.0007	0.00016	0.00033	6
29896	4e-05	1e-05	6e-05	4e-05	0.00023	0.0007	0.00016	0.00033	6
29897	4e-05	1e-05	6e-05	4e-05	0.00023	0.0007	0.00016	0.00033	6
29898	4e-05	1e-05	6e-05	4e-05	0.00023	0.0007	0.00016	0.00033	6
29899	4e-05	1e-05	6e-05	4e-05	0.00023	0.0007	0.00016	0.00033	6
29900	4e-05	1e-05	6e-05	4e-05	0.00023	0.0007	0.00016	0.00033	6
29901	4e-05	1e-05	6e-05	4e-05	0.00023	0.0007	0.00016	0.00033	6
29902	4e-05	1e-05	6e-05	4e-05	0.00023	0.0007	0.00016	0.00033	6
29903	-3e-05	-3e-05	-1e-05	-2e-05	0.00011	0.00011	-9e-05	-1e-05	6
29904	7e-05	1e-05	0	2e-05	0.00016	-0.0001	3e-05	5e-05	6
29905	7e-05	1e-05	0	2e-05	0.00016	-0.0001	3e-05	5e-05	6
29906	7e-05	1e-05	0	2e-05	0.00016	-0.0001	3e-05	5e-05	6
29907	7e-05	1e-05	0	2e-05	0.00016	-0.0001	3e-05	5e-05	6
29908	7e-05	1e-05	0	2e-05	0.00016	-0.0001	3e-05	5e-05	6
29909	7e-05	1e-05	0	2e-05	0.00016	-0.0001	3e-05	5e-05	6
29910	-1e-05	0	-1e-05	4e-05	3e-05	-0.00016	-3e-05	-0.00018	6
29911	4e-05	1e-05	-2e-05	0	3e-05	0.00063	6e-05	-9e-05	6
29912	4e-05	1e-05	-2e-05	0	3e-05	0.00063	6e-05	-9e-05	6
29913	4e-05	1e-05	-2e-05	0	3e-05	0.00063	6e-05	-9e-05	6
29914	4e-05	1e-05	-2e-05	0	3e-05	0.00063	6e-05	-9e-05	6
29915	4e-05	1e-05	-2e-05	0	3e-05	0.00063	6e-05	-9e-05	6
29916	4e-05	1e-05	-2e-05	0	3e-05	0.00063	6e-05	-9e-05	6
29917	4e-05	1e-05	-2e-05	0	3e-05	0.00063	6e-05	-9e-05	6
29918	4e-05	1e-05	-2e-05	0	3e-05	0.00063	6e-05	-9e-05	6
29919	4e-05	1e-05	-2e-05	0	3e-05	0.00063	6e-05	-9e-05	6
29920	4e-05	1e-05	-2e-05	0	3e-05	0.00063	6e-05	-9e-05	6
29921	4e-05	1e-05	-2e-05	0	3e-05	0.00063	6e-05	-9e-05	6
29922	4e-05	1e-05	-2e-05	0	3e-05	0.00063	6e-05	-9e-05	6
29923	4e-05	1e-05	-2e-05	0	3e-05	0.00063	6e-05	-9e-05	6
29924	4e-05	1e-05	-2e-05	0	3e-05	0.00063	6e-05	-9e-05	6
29925	4e-05	1e-05	-2e-05	0	3e-05	0.00063	6e-05	-9e-05	6
29926	4e-05	1e-05	-2e-05	0	3e-05	0.00063	6e-05	-9e-05	6
29927	4e-05	1e-05	-2e-05	0	3e-05	0.00063	6e-05	-9e-05	6
29928	4e-05	1e-05	-2e-05	0	3e-05	0.00063	6e-05	-9e-05	6
29929	4e-05	1e-05	-2e-05	0	3e-05	0.00063	6e-05	-9e-05	6
29930	4e-05	1e-05	-2e-05	0	3e-05	0.00063	6e-05	-9e-05	6
29931	4e-05	1e-05	-2e-05	0	3e-05	0.00063	6e-05	-9e-05	6
29932	4e-05	1e-05	-2e-05	0	3e-05	0.00063	6e-05	-9e-05	6
29933	4e-05	1e-05	-2e-05	0	3e-05	0.00063	6e-05	-9e-05	6
29934	4e-05	1e-05	-2e-05	0	3e-05	0.00063	6e-05	-9e-05	6
29935	4e-05	1e-05	-2e-05	0	3e-05	0.00063	6e-05	-9e-05	6
29936	4e-05	1e-05	-2e-05	0	3e-05	0.00063	6e-05	-9e-05	6
29938	4e-05	1e-05	-2e-05	0	3e-05	0.00063	6e-05	-9e-05	6
29939	4e-05	1e-05	-2e-05	0	3e-05	0.00063	6e-05	-9e-05	6
29940	4e-05	1e-05	-2e-05	0	3e-05	0.00063	6e-05	-9e-05	6
29941	4e-05	1e-05	-2e-05	0	3e-05	0.00063	6e-05	-9e-05	6
29942	-2e-05	-5e-05	-8e-05	-4e-05	4e-05	0.0001	-3e-05	9e-05	6
29943	-9e-05	-0.00015	-5e-05	0	-0.00013	-0.00037	-1e-05	0.00032	6
29944	-9e-05	-0.00015	-5e-05	0	-0.00013	-0.00037	-1e-05	0.00032	6
29945	-9e-05	-0.00015	-5e-05	0	-0.00013	-0.00037	-1e-05	0.00032	6
29946	-9e-05	-0.00015	-5e-05	0	-0.00013	-0.00037	-1e-05	0.00032	6
29947	-0.00014	-7e-05	-5e-05	0	0	-0.00018	-0.0001	-0.00043	6
29948	-0.00014	-7e-05	-5e-05	0	0	-0.00018	-0.0001	-0.00043	6
29949	-0.00014	-7e-05	-5e-05	0	0	-0.00018	-0.0001	-0.00043	6
29950	-0.00014	-7e-05	-5e-05	0	0	-0.00018	-0.0001	-0.00043	6
29952	-0.00014	-7e-05	-5e-05	0	0	-0.00018	-0.0001	-0.00043	6
29953	-0.00014	-7e-05	-5e-05	0	0	-0.00018	-0.0001	-0.00043	6
29954	-0.00014	-7e-05	-5e-05	0	0	-0.00018	-0.0001	-0.00043	6
29955	-2e-05	0	0	-0.00011	-0.00018	-0.00024	-0.00021	9e-05	6
29956	-2e-05	0	0	-0.00011	-0.00018	-0.00024	-0.00021	9e-05	6
29957	-2e-05	0	0	-0.00011	-0.00018	-0.00024	-0.00021	9e-05	6
29958	-2e-05	0	0	-0.00011	-0.00018	-0.00024	-0.00021	9e-05	6
29959	-2e-05	0	0	-0.00011	-0.00018	-0.00024	-0.00021	9e-05	6
29960	-2e-05	0	0	-0.00011	-0.00018	-0.00024	-0.00021	9e-05	6
29961	-2e-05	0	0	-0.00011	-0.00018	-0.00024	-0.00021	9e-05	6
29962	-2e-05	0	0	-0.00011	-0.00018	-0.00024	-0.00021	9e-05	6
29963	-2e-05	0	0	-0.00011	-0.00018	-0.00024	-0.00021	9e-05	6
29964	-2e-05	0	0	-0.00011	-0.00018	-0.00024	-0.00021	9e-05	6
29965	-2e-05	0	0	-0.00011	-0.00018	-0.00024	-0.00021	9e-05	6
29966	-2e-05	0	0	-0.00011	-0.00018	-0.00024	-0.00021	9e-05	6
29967	-2e-05	0	0	-0.00011	-0.00018	-0.00024	-0.00021	9e-05	6
29968	-2e-05	0	0	-0.00011	-0.00018	-0.00024	-0.00021	9e-05	6
29969	-2e-05	0	0	-0.00011	-0.00018	-0.00024	-0.00021	9e-05	6
29970	8e-05	0.00012	0.0001	2e-05	-0.00021	-0.00012	6e-05	0.00019	6
29971	4e-05	-4e-05	-0.0001	-5e-05	0.00019	-7e-05	-7e-05	-5e-05	6
29972	4e-05	-4e-05	-0.0001	-5e-05	0.00019	-7e-05	-7e-05	-5e-05	6
29973	4e-05	-4e-05	-0.0001	-5e-05	0.00019	-7e-05	-7e-05	-5e-05	6
29974	4e-05	-4e-05	-0.0001	-5e-05	0.00019	-7e-05	-7e-05	-5e-05	6
29975	4e-05	-4e-05	-0.0001	-5e-05	0.00019	-7e-05	-7e-05	-5e-05	6
29976	4e-05	-4e-05	-0.0001	-5e-05	0.00019	-7e-05	-7e-05	-5e-05	6
29977	4e-05	-4e-05	-0.0001	-5e-05	0.00019	-7e-05	-7e-05	-5e-05	6
29978	4e-05	-4e-05	-0.0001	-5e-05	0.00019	-7e-05	-7e-05	-5e-05	6
29979	4e-05	-4e-05	-0.0001	-5e-05	0.00019	-7e-05	-7e-05	-5e-05	6
29980	4e-05	-4e-05	-0.0001	-5e-05	0.00019	-7e-05	-7e-05	-5e-05	6
29981	4e-05	-4e-05	-0.0001	-5e-05	0.00019	-7e-05	-7e-05	-5e-05	6
29982	4e-05	-4e-05	-0.0001	-5e-05	0.00019	-7e-05	-7e-05	-5e-05	6
29983	4e-05	-4e-05	-0.0001	-5e-05	0.00019	-7e-05	-7e-05	-5e-05	6
29984	4e-05	-4e-05	-0.0001	-5e-05	0.00019	-7e-05	-7e-05	-5e-05	6
29985	4e-05	-4e-05	-0.0001	-5e-05	0.00019	-7e-05	-7e-05	-5e-05	6
29986	4e-05	-4e-05	-0.0001	-5e-05	0.00019	-7e-05	-7e-05	-5e-05	6
29988	4e-05	-4e-05	-0.0001	-5e-05	0.00019	-7e-05	-7e-05	-5e-05	6
29989	4e-05	-4e-05	-0.0001	-5e-05	0.00019	-7e-05	-7e-05	-5e-05	6
29990	4e-05	-4e-05	-0.0001	-5e-05	0.00019	-7e-05	-7e-05	-5e-05	6
29991	4e-05	-4e-05	-0.0001	-5e-05	0.00019	-7e-05	-7e-05	-5e-05	6
29992	9e-05	0.0001	2e-05	-2e-05	-5e-05	0.00046	4e-05	0.00014	6
29993	-0.00016	-0.00015	-8e-05	-4e-05	-0.00026	-0.00083	-0.00015	-1e-05	6
29994	1e-05	4e-05	5e-05	5e-05	7e-05	5e-05	-0.00018	-0.00032	6
29995	1e-05	4e-05	5e-05	5e-05	7e-05	5e-05	-0.00018	-0.00032	6
29996	1e-05	4e-05	5e-05	5e-05	7e-05	5e-05	-0.00018	-0.00032	6
29997	1e-05	4e-05	5e-05	5e-05	7e-05	5e-05	-0.00018	-0.00032	6
29999	1e-05	4e-05	5e-05	5e-05	7e-05	5e-05	-0.00018	-0.00032	6
30000	1e-05	4e-05	5e-05	5e-05	7e-05	5e-05	-0.00018	-0.00032	6
30001	1e-05	4e-05	5e-05	5e-05	7e-05	5e-05	-0.00018	-0.00032	6
30002	1e-05	4e-05	5e-05	5e-05	7e-05	5e-05	-0.00018	-0.00032	6
30003	1e-05	4e-05	5e-05	5e-05	7e-05	5e-05	-0.00018	-0.00032	6
30004	1e-05	4e-05	5e-05	5e-05	7e-05	5e-05	-0.00018	-0.00032	6
30005	1e-05	4e-05	5e-05	5e-05	7e-05	5e-05	-0.00018	-0.00032	6
30006	1e-05	4e-05	5e-05	5e-05	7e-05	5e-05	-0.00018	-0.00032	6
30007	-5e-05	-3e-05	1e-05	3e-05	4e-05	-0.00021	3e-05	-1e-05	6
30008	-5e-05	-3e-05	1e-05	3e-05	4e-05	-0.00021	3e-05	-1e-05	6
30009	-5e-05	-3e-05	1e-05	3e-05	4e-05	-0.00021	3e-05	-1e-05	6
30010	-5e-05	-3e-05	1e-05	3e-05	4e-05	-0.00021	3e-05	-1e-05	6
30011	-5e-05	-3e-05	1e-05	3e-05	4e-05	-0.00021	3e-05	-1e-05	6
30012	-5e-05	-3e-05	1e-05	3e-05	4e-05	-0.00021	3e-05	-1e-05	6
30013	-5e-05	-3e-05	1e-05	3e-05	4e-05	-0.00021	3e-05	-1e-05	6
30014	-5e-05	-3e-05	1e-05	3e-05	4e-05	-0.00021	3e-05	-1e-05	6
30015	-5e-05	-3e-05	1e-05	3e-05	4e-05	-0.00021	3e-05	-1e-05	6
30016	-5e-05	-3e-05	1e-05	3e-05	4e-05	-0.00021	3e-05	-1e-05	6
30017	-5e-05	-3e-05	1e-05	3e-05	4e-05	-0.00021	3e-05	-1e-05	6
30018	-5e-05	-3e-05	1e-05	3e-05	4e-05	-0.00021	3e-05	-1e-05	6
30019	-5e-05	-3e-05	1e-05	3e-05	4e-05	-0.00021	3e-05	-1e-05	6
30020	-5e-05	-3e-05	1e-05	3e-05	4e-05	-0.00021	3e-05	-1e-05	6
30021	-5e-05	-3e-05	1e-05	3e-05	4e-05	-0.00021	3e-05	-1e-05	6
30022	-5e-05	-3e-05	1e-05	3e-05	4e-05	-0.00021	3e-05	-1e-05	6
30023	-4e-05	1e-05	1e-05	1e-05	1e-05	-0.00023	7e-05	0.00015	6
30024	-4e-05	1e-05	1e-05	1e-05	1e-05	-0.00023	7e-05	0.00015	6
30025	-4e-05	1e-05	1e-05	1e-05	1e-05	-0.00023	7e-05	0.00015	6
30026	-4e-05	1e-05	1e-05	1e-05	1e-05	-0.00023	7e-05	0.00015	6
30027	-4e-05	1e-05	1e-05	1e-05	1e-05	-0.00023	7e-05	0.00015	6
30028	-4e-05	1e-05	1e-05	1e-05	1e-05	-0.00023	7e-05	0.00015	6
30029	-4e-05	1e-05	1e-05	1e-05	1e-05	-0.00023	7e-05	0.00015	6
30030	2e-05	3e-05	-2e-05	-3e-05	7e-05	0.00017	2e-05	-0.00014	6
30031	0.00022	6e-05	-6e-05	-8e-05	-0.00023	0.00047	0	-0.00022	6
30032	0.00022	6e-05	-6e-05	-8e-05	-0.00023	0.00047	0	-0.00022	6
30033	0.00022	6e-05	-6e-05	-8e-05	-0.00023	0.00047	0	-0.00022	6
30034	0.00022	6e-05	-6e-05	-8e-05	-0.00023	0.00047	0	-0.00022	6
30035	0.00022	6e-05	-6e-05	-8e-05	-0.00023	0.00047	0	-0.00022	6
30042	0.00022	6e-05	-6e-05	-8e-05	-0.00023	0.00047	0	-0.00022	6
30043	0.00022	6e-05	-6e-05	-8e-05	-0.00023	0.00047	0	-0.00022	6
30044	0.00022	6e-05	-6e-05	-8e-05	-0.00023	0.00047	0	-0.00022	6
30045	0.00022	6e-05	-6e-05	-8e-05	-0.00023	0.00047	0	-0.00022	6
30046	0.00022	6e-05	-6e-05	-8e-05	-0.00023	0.00047	0	-0.00022	6
30047	0.00022	6e-05	-6e-05	-8e-05	-0.00023	0.00047	0	-0.00022	6
30048	0.00022	6e-05	-6e-05	-8e-05	-0.00023	0.00047	0	-0.00022	6
30049	0.00022	6e-05	-6e-05	-8e-05	-0.00023	0.00047	0	-0.00022	6
30050	0.00022	6e-05	-6e-05	-8e-05	-0.00023	0.00047	0	-0.00022	6
30051	0.00022	6e-05	-6e-05	-8e-05	-0.00023	0.00047	0	-0.00022	6
30052	0.00022	6e-05	-6e-05	-8e-05	-0.00023	0.00047	0	-0.00022	6
30053	0.00022	6e-05	-6e-05	-8e-05	-0.00023	0.00047	0	-0.00022	6
30054	0.00022	6e-05	-6e-05	-8e-05	-0.00023	0.00047	0	-0.00022	6
30055	0.00022	6e-05	-6e-05	-8e-05	-0.00023	0.00047	0	-0.00022	6
30056	0.00022	6e-05	-6e-05	-8e-05	-0.00023	0.00047	0	-0.00022	6
30057	0.00022	6e-05	-6e-05	-8e-05	-0.00023	0.00047	0	-0.00022	6
30058	0.00022	6e-05	-6e-05	-8e-05	-0.00023	0.00047	0	-0.00022	6
30059	0.00022	6e-05	-6e-05	-8e-05	-0.00023	0.00047	0	-0.00022	6
30060	0.00022	6e-05	-6e-05	-8e-05	-0.00023	0.00047	0	-0.00022	6
30061	2e-05	3e-05	2e-05	-8e-05	-0.0002	3e-05	0	-0.00019	6
30062	-8e-05	4e-05	6e-05	1e-05	0.00027	0.00024	5e-05	7e-05	6
30063	-8e-05	4e-05	6e-05	1e-05	0.00027	0.00024	5e-05	7e-05	6
30064	-8e-05	4e-05	6e-05	1e-05	0.00027	0.00024	5e-05	7e-05	6
30065	-8e-05	4e-05	6e-05	1e-05	0.00027	0.00024	5e-05	7e-05	6
30066	-8e-05	4e-05	6e-05	1e-05	0.00027	0.00024	5e-05	7e-05	6
30067	-3e-05	-0.0001	-0.0001	-9e-05	-2e-05	-0.00013	-0.00011	-5e-05	6
30068	-3e-05	-0.0001	-0.0001	-9e-05	-2e-05	-0.00013	-0.00011	-5e-05	6
30069	-3e-05	-0.0001	-0.0001	-9e-05	-2e-05	-0.00013	-0.00011	-5e-05	6
30070	-3e-05	-0.0001	-0.0001	-9e-05	-2e-05	-0.00013	-0.00011	-5e-05	6
30071	-3e-05	-0.0001	-0.0001	-9e-05	-2e-05	-0.00013	-0.00011	-5e-05	6
30072	-3e-05	-0.0001	-0.0001	-9e-05	-2e-05	-0.00013	-0.00011	-5e-05	6
30073	-3e-05	-0.0001	-0.0001	-9e-05	-2e-05	-0.00013	-0.00011	-5e-05	6
30074	-3e-05	-0.0001	-0.0001	-9e-05	-2e-05	-0.00013	-0.00011	-5e-05	6
30075	-3e-05	3e-05	7e-05	5e-05	0.00027	-0.00012	7e-05	-1e-05	6
30076	-3e-05	3e-05	7e-05	5e-05	0.00027	-0.00012	7e-05	-1e-05	6
30077	-3e-05	3e-05	7e-05	5e-05	0.00027	-0.00012	7e-05	-1e-05	6
30078	-3e-05	3e-05	7e-05	5e-05	0.00027	-0.00012	7e-05	-1e-05	6
30079	-3e-05	3e-05	7e-05	5e-05	0.00027	-0.00012	7e-05	-1e-05	6
30080	-3e-05	3e-05	7e-05	5e-05	0.00027	-0.00012	7e-05	-1e-05	6
30081	-3e-05	3e-05	7e-05	5e-05	0.00027	-0.00012	7e-05	-1e-05	6
30082	-3e-05	3e-05	7e-05	5e-05	0.00027	-0.00012	7e-05	-1e-05	6
30083	-3e-05	3e-05	7e-05	5e-05	0.00027	-0.00012	7e-05	-1e-05	6
30084	-3e-05	3e-05	7e-05	5e-05	0.00027	-0.00012	7e-05	-1e-05	6
30085	-3e-05	3e-05	7e-05	5e-05	0.00027	-0.00012	7e-05	-1e-05	6
30086	-3e-05	3e-05	7e-05	5e-05	0.00027	-0.00012	7e-05	-1e-05	6
30088	-3e-05	3e-05	7e-05	5e-05	0.00027	-0.00012	7e-05	-1e-05	6
30089	-3e-05	3e-05	7e-05	5e-05	0.00027	-0.00012	7e-05	-1e-05	6
30090	-3e-05	3e-05	7e-05	5e-05	0.00027	-0.00012	7e-05	-1e-05	6
30091	-3e-05	3e-05	7e-05	5e-05	0.00027	-0.00012	7e-05	-1e-05	6
30092	-3e-05	3e-05	7e-05	5e-05	0.00027	-0.00012	7e-05	-1e-05	6
30093	-3e-05	3e-05	7e-05	5e-05	0.00027	-0.00012	7e-05	-1e-05	6
30094	-3e-05	3e-05	7e-05	5e-05	0.00027	-0.00012	7e-05	-1e-05	6
30095	-3e-05	3e-05	7e-05	5e-05	0.00027	-0.00012	7e-05	-1e-05	6
30096	-3e-05	3e-05	7e-05	5e-05	0.00027	-0.00012	7e-05	-1e-05	6
30097	-3e-05	3e-05	7e-05	5e-05	0.00027	-0.00012	7e-05	-1e-05	6
30098	-3e-05	3e-05	7e-05	5e-05	0.00027	-0.00012	7e-05	-1e-05	6
30099	-3e-05	3e-05	7e-05	5e-05	0.00027	-0.00012	7e-05	-1e-05	6
30100	-3e-05	3e-05	7e-05	5e-05	0.00027	-0.00012	7e-05	-1e-05	6
30101	-3e-05	3e-05	7e-05	5e-05	0.00027	-0.00012	7e-05	-1e-05	6
30102	-3e-05	3e-05	7e-05	5e-05	0.00027	-0.00012	7e-05	-1e-05	6
30103	-3e-05	3e-05	7e-05	5e-05	0.00027	-0.00012	7e-05	-1e-05	6
30104	-3e-05	3e-05	7e-05	5e-05	0.00027	-0.00012	7e-05	-1e-05	6
30105	-3e-05	3e-05	7e-05	5e-05	0.00027	-0.00012	7e-05	-1e-05	6
30106	-1e-05	7e-05	2e-05	-3e-05	1e-05	0.00036	-3e-05	-3e-05	6
30107	-3e-05	-0.00013	-7e-05	2e-05	-0.00027	-0.00048	-3e-05	0.00018	6
30108	-3e-05	-0.00013	-7e-05	2e-05	-0.00027	-0.00048	-3e-05	0.00018	6
30109	-3e-05	-0.00013	-7e-05	2e-05	-0.00027	-0.00048	-3e-05	0.00018	6
30110	-3e-05	-0.00013	-7e-05	2e-05	-0.00027	-0.00048	-3e-05	0.00018	6
30111	-3e-05	-0.00013	-7e-05	2e-05	-0.00027	-0.00048	-3e-05	0.00018	6
30112	3e-05	4e-05	3e-05	1e-05	0.00018	0.00032	8e-05	-0.00015	6
30113	-5e-05	-0.0001	-0.00016	-3e-05	1e-05	0.00075	4e-05	6e-05	6
30114	-5e-05	-0.0001	-0.00016	-3e-05	1e-05	0.00075	4e-05	6e-05	6
30115	-5e-05	-0.0001	-0.00016	-3e-05	1e-05	0.00075	4e-05	6e-05	6
30116	-5e-05	-0.0001	-0.00016	-3e-05	1e-05	0.00075	4e-05	6e-05	6
30117	-5e-05	-0.0001	-0.00016	-3e-05	1e-05	0.00075	4e-05	6e-05	6
30118	-5e-05	-0.0001	-0.00016	-3e-05	1e-05	0.00075	4e-05	6e-05	6
30119	-5e-05	-0.0001	-0.00016	-3e-05	1e-05	0.00075	4e-05	6e-05	6
30120	-5e-05	-0.0001	-0.00016	-3e-05	1e-05	0.00075	4e-05	6e-05	6
30121	-5e-05	-0.0001	-0.00016	-3e-05	1e-05	0.00075	4e-05	6e-05	6
30122	-5e-05	-0.0001	-0.00016	-3e-05	1e-05	0.00075	4e-05	6e-05	6
30123	-5e-05	-0.0001	-0.00016	-3e-05	1e-05	0.00075	4e-05	6e-05	6
30124	-5e-05	-0.0001	-0.00016	-3e-05	1e-05	0.00075	4e-05	6e-05	6
30125	-5e-05	-0.0001	-0.00016	-3e-05	1e-05	0.00075	4e-05	6e-05	6
30126	-5e-05	-0.0001	-0.00016	-3e-05	1e-05	0.00075	4e-05	6e-05	6
30127	2e-05	-2e-05	-1e-05	-5e-05	-0.0002	-0.00037	-4e-05	0.00025	6
30128	2e-05	-2e-05	-1e-05	-5e-05	-0.0002	-0.00037	-4e-05	0.00025	6
30129	2e-05	-2e-05	-1e-05	-5e-05	-0.0002	-0.00037	-4e-05	0.00025	6
30130	2e-05	-2e-05	-1e-05	-5e-05	-0.0002	-0.00037	-4e-05	0.00025	6
30131	2e-05	-2e-05	-1e-05	-5e-05	-0.0002	-0.00037	-4e-05	0.00025	6
30132	2e-05	-2e-05	-1e-05	-5e-05	-0.0002	-0.00037	-4e-05	0.00025	6
30133	2e-05	-2e-05	-1e-05	-5e-05	-0.0002	-0.00037	-4e-05	0.00025	6
30134	2e-05	-2e-05	-1e-05	-5e-05	-0.0002	-0.00037	-4e-05	0.00025	6
30135	2e-05	-2e-05	-1e-05	-5e-05	-0.0002	-0.00037	-4e-05	0.00025	6
30136	2e-05	-2e-05	-1e-05	-5e-05	-0.0002	-0.00037	-4e-05	0.00025	6
30138	2e-05	-2e-05	-1e-05	-5e-05	-0.0002	-0.00037	-4e-05	0.00025	6
30139	2e-05	-2e-05	-1e-05	-5e-05	-0.0002	-0.00037	-4e-05	0.00025	6
30140	2e-05	-2e-05	-1e-05	-5e-05	-0.0002	-0.00037	-4e-05	0.00025	6
30141	2e-05	-2e-05	-1e-05	-5e-05	-0.0002	-0.00037	-4e-05	0.00025	6
30142	-2e-05	2e-05	3e-05	-2e-05	0.00011	-0.00019	1e-05	-4e-05	6
30143	-2e-05	2e-05	3e-05	-2e-05	0.00011	-0.00019	1e-05	-4e-05	6
30144	-2e-05	2e-05	3e-05	-2e-05	0.00011	-0.00019	1e-05	-4e-05	6
30145	-2e-05	2e-05	3e-05	-2e-05	0.00011	-0.00019	1e-05	-4e-05	6
30146	-2e-05	2e-05	3e-05	-2e-05	0.00011	-0.00019	1e-05	-4e-05	6
30147	-2e-05	2e-05	3e-05	-2e-05	0.00011	-0.00019	1e-05	-4e-05	6
30148	-2e-05	2e-05	3e-05	-2e-05	0.00011	-0.00019	1e-05	-4e-05	6
30149	-2e-05	2e-05	3e-05	-2e-05	0.00011	-0.00019	1e-05	-4e-05	6
30150	-0.00017	-8e-05	-2e-05	5e-05	0.00062	0.00028	6e-05	-0.00047	6
30151	-0.00013	-2e-05	-2e-05	0	8e-05	-0.00019	3e-05	3e-05	6
30152	-0.00013	-2e-05	-2e-05	0	8e-05	-0.00019	3e-05	3e-05	6
30153	-0.00013	-2e-05	-2e-05	0	8e-05	-0.00019	3e-05	3e-05	6
30154	-0.00013	-2e-05	-2e-05	0	8e-05	-0.00019	3e-05	3e-05	6
30155	-0.00013	-2e-05	-2e-05	0	8e-05	-0.00019	3e-05	3e-05	6
30156	-0.00013	-2e-05	-2e-05	0	8e-05	-0.00019	3e-05	3e-05	6
30157	-0.00013	-2e-05	-2e-05	0	8e-05	-0.00019	3e-05	3e-05	6
30158	-0.00013	-2e-05	-2e-05	0	8e-05	-0.00019	3e-05	3e-05	6
30159	-0.00013	-2e-05	-2e-05	0	8e-05	-0.00019	3e-05	3e-05	6
30160	-0.00013	-2e-05	-2e-05	0	8e-05	-0.00019	3e-05	3e-05	6
30161	-0.00013	-2e-05	-2e-05	0	8e-05	-0.00019	3e-05	3e-05	6
30162	-0.00013	-2e-05	-2e-05	0	8e-05	-0.00019	3e-05	3e-05	6
30163	-0.00013	-2e-05	-2e-05	0	8e-05	-0.00019	3e-05	3e-05	6
30164	-0.00013	-2e-05	-2e-05	0	8e-05	-0.00019	3e-05	3e-05	6
30165	-0.00013	-2e-05	-2e-05	0	8e-05	-0.00019	3e-05	3e-05	6
30166	-0.00013	-2e-05	-2e-05	0	8e-05	-0.00019	3e-05	3e-05	6
30167	-0.00013	-2e-05	-2e-05	0	8e-05	-0.00019	3e-05	3e-05	6
30168	-0.00013	-2e-05	-2e-05	0	8e-05	-0.00019	3e-05	3e-05	6
30169	-0.00013	-2e-05	-2e-05	0	8e-05	-0.00019	3e-05	3e-05	6
30170	-0.00013	-2e-05	-2e-05	0	8e-05	-0.00019	3e-05	3e-05	6
30171	-0.00013	-2e-05	-2e-05	0	8e-05	-0.00019	3e-05	3e-05	6
30172	-0.00013	-2e-05	-2e-05	0	8e-05	-0.00019	3e-05	3e-05	6
30173	-0.00013	-2e-05	-2e-05	0	8e-05	-0.00019	3e-05	3e-05	6
30174	-0.00013	-2e-05	-2e-05	0	8e-05	-0.00019	3e-05	3e-05	6
30175	-0.00013	-2e-05	-2e-05	0	8e-05	-0.00019	3e-05	3e-05	6
30176	-0.00013	-2e-05	-2e-05	0	8e-05	-0.00019	3e-05	3e-05	6
30177	-0.00013	-2e-05	-2e-05	0	8e-05	-0.00019	3e-05	3e-05	6
30178	-0.00013	-2e-05	-2e-05	0	8e-05	-0.00019	3e-05	3e-05	6
30179	-0.00013	-2e-05	-2e-05	0	8e-05	-0.00019	3e-05	3e-05	6
30180	-0.00013	-2e-05	-2e-05	0	8e-05	-0.00019	3e-05	3e-05	6
30181	-0.00021	-1e-05	-5e-05	2e-05	0.00065	7e-05	-0.00023	7e-05	6
30182	3e-05	-1e-05	-1e-05	-7e-05	-0.00036	-0.00013	0	-0.00011	6
30183	3e-05	-1e-05	-1e-05	-7e-05	-0.00036	-0.00013	0	-0.00011	6
30184	3e-05	-1e-05	-1e-05	-7e-05	-0.00036	-0.00013	0	-0.00011	6
30185	3e-05	-1e-05	-1e-05	-7e-05	-0.00036	-0.00013	0	-0.00011	6
30186	3e-05	-1e-05	-1e-05	-7e-05	-0.00036	-0.00013	0	-0.00011	6
30188	3e-05	-1e-05	-1e-05	-7e-05	-0.00036	-0.00013	0	-0.00011	6
30189	3e-05	-1e-05	-1e-05	-7e-05	-0.00036	-0.00013	0	-0.00011	6
30190	3e-05	-1e-05	-1e-05	-7e-05	-0.00036	-0.00013	0	-0.00011	6
30191	3e-05	-1e-05	-1e-05	-7e-05	-0.00036	-0.00013	0	-0.00011	6
30192	3e-05	-1e-05	-1e-05	-7e-05	-0.00036	-0.00013	0	-0.00011	6
30193	3e-05	-1e-05	-1e-05	-7e-05	-0.00036	-0.00013	0	-0.00011	6
30194	3e-05	-1e-05	-1e-05	-7e-05	-0.00036	-0.00013	0	-0.00011	6
30195	3e-05	-1e-05	-1e-05	-7e-05	-0.00036	-0.00013	0	-0.00011	6
30196	0.0001	-2e-05	-1e-05	-1e-05	-0.00023	-0.00024	-8e-05	-8e-05	6
30197	0	2e-05	-2e-05	-6e-05	-7e-05	0.00048	5e-05	7e-05	6
30198	0	2e-05	-2e-05	-6e-05	-7e-05	0.00048	5e-05	7e-05	6
30199	0	2e-05	-2e-05	-6e-05	-7e-05	0.00048	5e-05	7e-05	6
30200	0	2e-05	-2e-05	-6e-05	-7e-05	0.00048	5e-05	7e-05	6
30201	0	2e-05	-2e-05	-6e-05	-7e-05	0.00048	5e-05	7e-05	6
30202	0	2e-05	-2e-05	-6e-05	-7e-05	0.00048	5e-05	7e-05	6
30203	0	2e-05	-2e-05	-6e-05	-7e-05	0.00048	5e-05	7e-05	6
30204	0	2e-05	-2e-05	-6e-05	-7e-05	0.00048	5e-05	7e-05	6
30205	0	2e-05	-2e-05	-6e-05	-7e-05	0.00048	5e-05	7e-05	6
30206	0	2e-05	-2e-05	-6e-05	-7e-05	0.00048	5e-05	7e-05	6
30207	0	2e-05	-2e-05	-6e-05	-7e-05	0.00048	5e-05	7e-05	6
30208	0	2e-05	-2e-05	-6e-05	-7e-05	0.00048	5e-05	7e-05	6
30209	0	2e-05	-2e-05	-6e-05	-7e-05	0.00048	5e-05	7e-05	6
30210	-0.00013	-7e-05	-7e-05	2e-05	-4e-05	-0.00029	4e-05	0.0001	6
30211	6e-05	4e-05	0	1e-05	1e-05	-0.00013	-4e-05	0.00015	6
30212	6e-05	4e-05	0	1e-05	1e-05	-0.00013	-4e-05	0.00015	6
30213	6e-05	4e-05	0	1e-05	1e-05	-0.00013	-4e-05	0.00015	6
30214	6e-05	4e-05	0	1e-05	1e-05	-0.00013	-4e-05	0.00015	6
30215	6e-05	4e-05	0	1e-05	1e-05	-0.00013	-4e-05	0.00015	6
30216	6e-05	4e-05	0	1e-05	1e-05	-0.00013	-4e-05	0.00015	6
30217	6e-05	4e-05	0	1e-05	1e-05	-0.00013	-4e-05	0.00015	6
30218	-0.00014	-1e-05	-3e-05	-5e-05	-0.00017	-0.00026	-0.00023	-0.0005	6
30219	-0.00014	-1e-05	-3e-05	-5e-05	-0.00017	-0.00026	-0.00023	-0.0005	6
30220	-0.00014	-1e-05	-3e-05	-5e-05	-0.00017	-0.00026	-0.00023	-0.0005	6
30221	-0.00014	-1e-05	-3e-05	-5e-05	-0.00017	-0.00026	-0.00023	-0.0005	6
30222	-0.00014	-1e-05	-3e-05	-5e-05	-0.00017	-0.00026	-0.00023	-0.0005	6
30223	-0.00014	-1e-05	-3e-05	-5e-05	-0.00017	-0.00026	-0.00023	-0.0005	6
30224	-0.00014	-1e-05	-3e-05	-5e-05	-0.00017	-0.00026	-0.00023	-0.0005	6
30225	-0.00014	-1e-05	-3e-05	-5e-05	-0.00017	-0.00026	-0.00023	-0.0005	6
30226	-0.00014	-1e-05	-3e-05	-5e-05	-0.00017	-0.00026	-0.00023	-0.0005	6
30227	-0.00014	-1e-05	-3e-05	-5e-05	-0.00017	-0.00026	-0.00023	-0.0005	6
30228	-0.00014	-1e-05	-3e-05	-5e-05	-0.00017	-0.00026	-0.00023	-0.0005	6
30229	-0.00014	-1e-05	-3e-05	-5e-05	-0.00017	-0.00026	-0.00023	-0.0005	6
30230	-0.00014	-1e-05	-3e-05	-5e-05	-0.00017	-0.00026	-0.00023	-0.0005	6
30231	-0.00014	-1e-05	-3e-05	-5e-05	-0.00017	-0.00026	-0.00023	-0.0005	6
30232	-0.00015	-4e-05	-7e-05	-4e-05	0.0001	-0.00042	-9e-05	-0.00012	6
30233	0	-4e-05	-4e-05	-6e-05	5e-05	-0.00023	-2e-05	-0.00015	6
30235	0	-4e-05	-4e-05	-6e-05	5e-05	-0.00023	-2e-05	-0.00015	6
30236	0	-4e-05	-4e-05	-6e-05	5e-05	-0.00023	-2e-05	-0.00015	6
30238	0	-4e-05	-4e-05	-6e-05	5e-05	-0.00023	-2e-05	-0.00015	6
30239	0	-4e-05	-4e-05	-6e-05	5e-05	-0.00023	-2e-05	-0.00015	6
30240	0	-4e-05	-4e-05	-6e-05	5e-05	-0.00023	-2e-05	-0.00015	6
30241	0	-4e-05	-4e-05	-6e-05	5e-05	-0.00023	-2e-05	-0.00015	6
30242	0	-4e-05	-4e-05	-6e-05	5e-05	-0.00023	-2e-05	-0.00015	6
30243	0	-4e-05	-4e-05	-6e-05	5e-05	-0.00023	-2e-05	-0.00015	6
30244	0	-4e-05	-4e-05	-6e-05	5e-05	-0.00023	-2e-05	-0.00015	6
30245	0	-4e-05	-4e-05	-6e-05	5e-05	-0.00023	-2e-05	-0.00015	6
30246	0	-4e-05	-4e-05	-6e-05	5e-05	-0.00023	-2e-05	-0.00015	6
30247	0	-4e-05	-4e-05	-6e-05	5e-05	-0.00023	-2e-05	-0.00015	6
30248	0	-4e-05	-4e-05	-6e-05	5e-05	-0.00023	-2e-05	-0.00015	6
30249	0	-4e-05	-4e-05	-6e-05	5e-05	-0.00023	-2e-05	-0.00015	6
30250	0	-4e-05	-4e-05	-6e-05	5e-05	-0.00023	-2e-05	-0.00015	6
30251	0	-4e-05	-4e-05	-6e-05	5e-05	-0.00023	-2e-05	-0.00015	6
30252	0	-4e-05	-4e-05	-6e-05	5e-05	-0.00023	-2e-05	-0.00015	6
30253	0	-4e-05	-4e-05	-6e-05	5e-05	-0.00023	-2e-05	-0.00015	6
30254	0	-4e-05	-4e-05	-6e-05	5e-05	-0.00023	-2e-05	-0.00015	6
30255	0	-4e-05	-4e-05	-6e-05	5e-05	-0.00023	-2e-05	-0.00015	6
30256	0	-4e-05	-4e-05	-6e-05	5e-05	-0.00023	-2e-05	-0.00015	6
30257	0	-4e-05	-4e-05	-6e-05	5e-05	-0.00023	-2e-05	-0.00015	6
30258	0	-4e-05	-4e-05	-6e-05	5e-05	-0.00023	-2e-05	-0.00015	6
30259	0	-4e-05	-4e-05	-6e-05	5e-05	-0.00023	-2e-05	-0.00015	6
30260	0	-4e-05	-4e-05	-6e-05	5e-05	-0.00023	-2e-05	-0.00015	6
30261	0	-4e-05	-4e-05	-6e-05	5e-05	-0.00023	-2e-05	-0.00015	6
30262	0	-4e-05	-4e-05	-6e-05	5e-05	-0.00023	-2e-05	-0.00015	6
30263	-7e-05	-5e-05	-0.0001	-8e-05	0.00018	0.00038	-0.00014	-5e-05	6
30264	-2e-05	2e-05	0	-1e-05	-0.00024	0.00042	3e-05	-4e-05	6
30265	0.00021	0.00014	0.00015	0.00016	0.00091	-0.00029	0.00012	0.00022	6
30266	0.00021	0.00014	0.00015	0.00016	0.00091	-0.00029	0.00012	0.00022	6
30267	0.00021	0.00014	0.00015	0.00016	0.00091	-0.00029	0.00012	0.00022	6
30268	0.00021	0.00014	0.00015	0.00016	0.00091	-0.00029	0.00012	0.00022	6
30269	0.00021	0.00014	0.00015	0.00016	0.00091	-0.00029	0.00012	0.00022	6
30270	-7e-05	-1e-05	0	-2e-05	-0.00012	4e-05	-0.00014	-0.00019	6
30271	4e-05	-0.00013	-8e-05	1e-05	-0.00011	3e-05	-0.0001	-0.00012	6
30272	4e-05	-0.00013	-8e-05	1e-05	-0.00011	3e-05	-0.0001	-0.00012	6
30273	4e-05	-0.00013	-8e-05	1e-05	-0.00011	3e-05	-0.0001	-0.00012	6
30274	4e-05	-0.00013	-8e-05	1e-05	-0.00011	3e-05	-0.0001	-0.00012	6
30275	4e-05	-0.00013	-8e-05	1e-05	-0.00011	3e-05	-0.0001	-0.00012	6
30276	4e-05	-0.00013	-8e-05	1e-05	-0.00011	3e-05	-0.0001	-0.00012	6
30277	4e-05	-0.00013	-8e-05	1e-05	-0.00011	3e-05	-0.0001	-0.00012	6
30278	4e-05	-0.00013	-8e-05	1e-05	-0.00011	3e-05	-0.0001	-0.00012	6
30279	4e-05	-0.00013	-8e-05	1e-05	-0.00011	3e-05	-0.0001	-0.00012	6
30280	4e-05	-0.00013	-8e-05	1e-05	-0.00011	3e-05	-0.0001	-0.00012	6
30281	4e-05	-0.00013	-8e-05	1e-05	-0.00011	3e-05	-0.0001	-0.00012	6
30282	4e-05	-0.00013	-8e-05	1e-05	-0.00011	3e-05	-0.0001	-0.00012	6
30283	4e-05	-0.00013	-8e-05	1e-05	-0.00011	3e-05	-0.0001	-0.00012	6
30284	4e-05	-0.00013	-8e-05	1e-05	-0.00011	3e-05	-0.0001	-0.00012	6
30285	4e-05	-0.00013	-8e-05	1e-05	-0.00011	3e-05	-0.0001	-0.00012	6
30286	4e-05	-0.00013	-8e-05	1e-05	-0.00011	3e-05	-0.0001	-0.00012	6
30288	4e-05	-0.00013	-8e-05	1e-05	-0.00011	3e-05	-0.0001	-0.00012	6
30289	4e-05	-0.00013	-8e-05	1e-05	-0.00011	3e-05	-0.0001	-0.00012	6
30290	4e-05	-0.00013	-8e-05	1e-05	-0.00011	3e-05	-0.0001	-0.00012	6
30291	4e-05	-0.00013	-8e-05	1e-05	-0.00011	3e-05	-0.0001	-0.00012	6
30292	4e-05	-0.00013	-8e-05	1e-05	-0.00011	3e-05	-0.0001	-0.00012	6
30293	4e-05	-0.00013	-8e-05	1e-05	-0.00011	3e-05	-0.0001	-0.00012	6
30294	4e-05	-0.00013	-8e-05	1e-05	-0.00011	3e-05	-0.0001	-0.00012	6
30295	4e-05	-0.00013	-8e-05	1e-05	-0.00011	3e-05	-0.0001	-0.00012	6
30296	4e-05	-0.00013	-8e-05	1e-05	-0.00011	3e-05	-0.0001	-0.00012	6
30297	4e-05	-0.00013	-8e-05	1e-05	-0.00011	3e-05	-0.0001	-0.00012	6
30298	4e-05	-0.00013	-8e-05	1e-05	-0.00011	3e-05	-0.0001	-0.00012	6
30299	4e-05	-0.00013	-8e-05	1e-05	-0.00011	3e-05	-0.0001	-0.00012	6
30300	4e-05	-0.00013	-8e-05	1e-05	-0.00011	3e-05	-0.0001	-0.00012	6
30301	1e-05	3e-05	3e-05	-4e-05	-0.00011	3e-05	0	0.00015	6
30302	1e-05	3e-05	3e-05	-4e-05	-0.00011	3e-05	0	0.00015	6
30303	1e-05	3e-05	3e-05	-4e-05	-0.00011	3e-05	0	0.00015	6
30304	1e-05	3e-05	3e-05	-4e-05	-0.00011	3e-05	0	0.00015	6
30305	1e-05	3e-05	3e-05	-4e-05	-0.00011	3e-05	0	0.00015	6
30306	1e-05	3e-05	3e-05	-4e-05	-0.00011	3e-05	0	0.00015	6
30307	1e-05	3e-05	3e-05	-4e-05	-0.00011	3e-05	0	0.00015	6
30308	1e-05	3e-05	3e-05	-4e-05	-0.00011	3e-05	0	0.00015	6
30309	1e-05	3e-05	3e-05	-4e-05	-0.00011	3e-05	0	0.00015	6
30310	1e-05	3e-05	3e-05	-4e-05	-0.00011	3e-05	0	0.00015	6
30311	1e-05	3e-05	3e-05	-4e-05	-0.00011	3e-05	0	0.00015	6
30312	1e-05	3e-05	3e-05	-4e-05	-0.00011	3e-05	0	0.00015	6
30313	1e-05	3e-05	3e-05	-4e-05	-0.00011	3e-05	0	0.00015	6
30314	1e-05	3e-05	3e-05	-4e-05	-0.00011	3e-05	0	0.00015	6
30315	1e-05	3e-05	3e-05	-4e-05	-0.00011	3e-05	0	0.00015	6
30316	8e-05	-1e-05	-2e-05	-6e-05	0.0001	-0.00019	-8e-05	0	6
30317	-2e-05	0	2e-05	0.00013	0.00042	0.00074	0.00016	0.00013	6
30318	-2e-05	0	2e-05	0.00013	0.00042	0.00074	0.00016	0.00013	6
30319	-2e-05	0	2e-05	0.00013	0.00042	0.00074	0.00016	0.00013	6
30320	-2e-05	0	2e-05	0.00013	0.00042	0.00074	0.00016	0.00013	6
30321	-2e-05	0	2e-05	0.00013	0.00042	0.00074	0.00016	0.00013	6
30322	-2e-05	0	2e-05	0.00013	0.00042	0.00074	0.00016	0.00013	6
30323	-2e-05	0	2e-05	0.00013	0.00042	0.00074	0.00016	0.00013	6
30324	-2e-05	0	2e-05	0.00013	0.00042	0.00074	0.00016	0.00013	6
30325	-2e-05	0	2e-05	0.00013	0.00042	0.00074	0.00016	0.00013	6
30326	-2e-05	0	2e-05	0.00013	0.00042	0.00074	0.00016	0.00013	6
30327	-2e-05	0	2e-05	0.00013	0.00042	0.00074	0.00016	0.00013	6
30328	-2e-05	0	2e-05	0.00013	0.00042	0.00074	0.00016	0.00013	6
30329	-2e-05	0	2e-05	0.00013	0.00042	0.00074	0.00016	0.00013	6
30330	-2e-05	0	2e-05	0.00013	0.00042	0.00074	0.00016	0.00013	6
30331	-2e-05	0	2e-05	0.00013	0.00042	0.00074	0.00016	0.00013	6
30332	-2e-05	0	2e-05	0.00013	0.00042	0.00074	0.00016	0.00013	6
30333	-2e-05	0	2e-05	0.00013	0.00042	0.00074	0.00016	0.00013	6
30334	-2e-05	0	2e-05	0.00013	0.00042	0.00074	0.00016	0.00013	6
30335	-2e-05	0	2e-05	0.00013	0.00042	0.00074	0.00016	0.00013	6
30336	-2e-05	0	2e-05	0.00013	0.00042	0.00074	0.00016	0.00013	6
30338	7e-05	2e-05	-1e-05	-8e-05	0	0.0003	0.00013	0.00011	6
30339	-7e-05	0	-1e-05	-6e-05	-0.0001	-0.00016	-2e-05	-2e-05	6
30340	-7e-05	0	-1e-05	-6e-05	-0.0001	-0.00016	-2e-05	-2e-05	6
30341	-7e-05	0	-1e-05	-6e-05	-0.0001	-0.00016	-2e-05	-2e-05	6
30342	-7e-05	0	-1e-05	-6e-05	-0.0001	-0.00016	-2e-05	-2e-05	6
30343	-7e-05	0	-1e-05	-6e-05	-0.0001	-0.00016	-2e-05	-2e-05	6
30344	-7e-05	0	-1e-05	-6e-05	-0.0001	-0.00016	-2e-05	-2e-05	6
30345	-7e-05	0	-1e-05	-6e-05	-0.0001	-0.00016	-2e-05	-2e-05	6
30346	-7e-05	0	-1e-05	-6e-05	-0.0001	-0.00016	-2e-05	-2e-05	6
30347	-7e-05	0	-1e-05	-6e-05	-0.0001	-0.00016	-2e-05	-2e-05	6
30348	-7e-05	0	-1e-05	-6e-05	-0.0001	-0.00016	-2e-05	-2e-05	6
30349	-7e-05	0	-1e-05	-6e-05	-0.0001	-0.00016	-2e-05	-2e-05	6
30350	-7e-05	0	-1e-05	-6e-05	-0.0001	-0.00016	-2e-05	-2e-05	6
30351	-7e-05	0	-1e-05	-6e-05	-0.0001	-0.00016	-2e-05	-2e-05	6
30352	4e-05	-1e-05	-3e-05	3e-05	0.00013	0.00011	0	8e-05	6
30353	-8e-05	-4e-05	-5e-05	-6e-05	-0.00028	-0.00089	-1e-05	-0.00015	6
30354	-8e-05	-4e-05	-5e-05	-6e-05	-0.00028	-0.00089	-1e-05	-0.00015	6
30355	-8e-05	-4e-05	-5e-05	-6e-05	-0.00028	-0.00089	-1e-05	-0.00015	6
30356	-8e-05	-4e-05	-5e-05	-6e-05	-0.00028	-0.00089	-1e-05	-0.00015	6
30357	-8e-05	-4e-05	-5e-05	-6e-05	-0.00028	-0.00089	-1e-05	-0.00015	6
30358	-8e-05	-4e-05	-5e-05	-6e-05	-0.00028	-0.00089	-1e-05	-0.00015	6
30359	-8e-05	-4e-05	-5e-05	-6e-05	-0.00028	-0.00089	-1e-05	-0.00015	6
30360	-8e-05	-4e-05	-5e-05	-6e-05	-0.00028	-0.00089	-1e-05	-0.00015	6
30361	-8e-05	-4e-05	-5e-05	-6e-05	-0.00028	-0.00089	-1e-05	-0.00015	6
30362	-8e-05	-4e-05	-5e-05	-6e-05	-0.00028	-0.00089	-1e-05	-0.00015	6
30363	-8e-05	-4e-05	-5e-05	-6e-05	-0.00028	-0.00089	-1e-05	-0.00015	6
30364	-8e-05	-4e-05	-5e-05	-6e-05	-0.00028	-0.00089	-1e-05	-0.00015	6
30365	-8e-05	-4e-05	-5e-05	-6e-05	-0.00028	-0.00089	-1e-05	-0.00015	6
30366	-8e-05	-4e-05	-5e-05	-6e-05	-0.00028	-0.00089	-1e-05	-0.00015	6
30367	-8e-05	-4e-05	-5e-05	-6e-05	-0.00028	-0.00089	-1e-05	-0.00015	6
30368	-8e-05	-4e-05	-5e-05	-6e-05	-0.00028	-0.00089	-1e-05	-0.00015	6
30369	-8e-05	-4e-05	-5e-05	-6e-05	-0.00028	-0.00089	-1e-05	-0.00015	6
30370	-8e-05	-4e-05	-5e-05	-6e-05	-0.00028	-0.00089	-1e-05	-0.00015	6
30371	-8e-05	-4e-05	-5e-05	-6e-05	-0.00028	-0.00089	-1e-05	-0.00015	6
30372	-8e-05	-4e-05	-5e-05	-6e-05	-0.00028	-0.00089	-1e-05	-0.00015	6
30373	-8e-05	-4e-05	-5e-05	-6e-05	-0.00028	-0.00089	-1e-05	-0.00015	6
30374	-8e-05	-4e-05	-5e-05	-6e-05	-0.00028	-0.00089	-1e-05	-0.00015	6
30375	-8e-05	-4e-05	-5e-05	-6e-05	-0.00028	-0.00089	-1e-05	-0.00015	6
30376	-8e-05	-4e-05	-5e-05	-6e-05	-0.00028	-0.00089	-1e-05	-0.00015	6
30377	-6e-05	-7e-05	-5e-05	-7e-05	-6e-05	-3e-05	-6e-05	0.00011	6
30378	0.00014	4e-05	-3e-05	-5e-05	-0.00032	-0.00016	0	0.00021	6
30379	0.00014	4e-05	-3e-05	-5e-05	-0.00032	-0.00016	0	0.00021	6
30380	0.00014	4e-05	-3e-05	-5e-05	-0.00032	-0.00016	0	0.00021	6
30381	0.00014	4e-05	-3e-05	-5e-05	-0.00032	-0.00016	0	0.00021	6
30382	0.00014	4e-05	-3e-05	-5e-05	-0.00032	-0.00016	0	0.00021	6
30383	0.00014	4e-05	-3e-05	-5e-05	-0.00032	-0.00016	0	0.00021	6
30384	0.00014	4e-05	-3e-05	-5e-05	-0.00032	-0.00016	0	0.00021	6
30385	0.00014	4e-05	-3e-05	-5e-05	-0.00032	-0.00016	0	0.00021	6
30386	0.00014	4e-05	-3e-05	-5e-05	-0.00032	-0.00016	0	0.00021	6
30388	0.00014	4e-05	-3e-05	-5e-05	-0.00032	-0.00016	0	0.00021	6
30389	0.00014	4e-05	-3e-05	-5e-05	-0.00032	-0.00016	0	0.00021	6
30390	-0.00015	-4e-05	-8e-05	2e-05	-9e-05	-0.0003	3e-05	-0.00029	6
30391	6e-05	-6e-05	-8e-05	-0.0001	-0.00042	-0.00025	-9e-05	-0.00017	6
30392	6e-05	-6e-05	-8e-05	-0.0001	-0.00042	-0.00025	-9e-05	-0.00017	6
30393	6e-05	-6e-05	-8e-05	-0.0001	-0.00042	-0.00025	-9e-05	-0.00017	6
30394	6e-05	-6e-05	-8e-05	-0.0001	-0.00042	-0.00025	-9e-05	-0.00017	6
30395	6e-05	-6e-05	-8e-05	-0.0001	-0.00042	-0.00025	-9e-05	-0.00017	6
30396	6e-05	-6e-05	-8e-05	-0.0001	-0.00042	-0.00025	-9e-05	-0.00017	6
30397	6e-05	-6e-05	-8e-05	-0.0001	-0.00042	-0.00025	-9e-05	-0.00017	6
30398	6e-05	-6e-05	-8e-05	-0.0001	-0.00042	-0.00025	-9e-05	-0.00017	6
30399	6e-05	-6e-05	-8e-05	-0.0001	-0.00042	-0.00025	-9e-05	-0.00017	6
30400	6e-05	-6e-05	-8e-05	-0.0001	-0.00042	-0.00025	-9e-05	-0.00017	6
30401	6e-05	-6e-05	-8e-05	-0.0001	-0.00042	-0.00025	-9e-05	-0.00017	6
30402	6e-05	-6e-05	-8e-05	-0.0001	-0.00042	-0.00025	-9e-05	-0.00017	6
30403	6e-05	-6e-05	-8e-05	-0.0001	-0.00042	-0.00025	-9e-05	-0.00017	6
30404	6e-05	-6e-05	-8e-05	-0.0001	-0.00042	-0.00025	-9e-05	-0.00017	6
30405	6e-05	-6e-05	-8e-05	-0.0001	-0.00042	-0.00025	-9e-05	-0.00017	6
30406	6e-05	-6e-05	-8e-05	-0.0001	-0.00042	-0.00025	-9e-05	-0.00017	6
30407	6e-05	-6e-05	-8e-05	-0.0001	-0.00042	-0.00025	-9e-05	-0.00017	6
30408	6e-05	-6e-05	-8e-05	-0.0001	-0.00042	-0.00025	-9e-05	-0.00017	6
30409	6e-05	-6e-05	-8e-05	-0.0001	-0.00042	-0.00025	-9e-05	-0.00017	6
30410	6e-05	-6e-05	-8e-05	-0.0001	-0.00042	-0.00025	-9e-05	-0.00017	6
30411	6e-05	-6e-05	-8e-05	-0.0001	-0.00042	-0.00025	-9e-05	-0.00017	6
30412	6e-05	-6e-05	-8e-05	-0.0001	-0.00042	-0.00025	-9e-05	-0.00017	6
30413	6e-05	-6e-05	-8e-05	-0.0001	-0.00042	-0.00025	-9e-05	-0.00017	6
30414	6e-05	-6e-05	-8e-05	-0.0001	-0.00042	-0.00025	-9e-05	-0.00017	6
30415	6e-05	-6e-05	-8e-05	-0.0001	-0.00042	-0.00025	-9e-05	-0.00017	6
30416	6e-05	-6e-05	-8e-05	-0.0001	-0.00042	-0.00025	-9e-05	-0.00017	6
30417	6e-05	-6e-05	-8e-05	-0.0001	-0.00042	-0.00025	-9e-05	-0.00017	6
30418	6e-05	-6e-05	-8e-05	-0.0001	-0.00042	-0.00025	-9e-05	-0.00017	6
30419	6e-05	-6e-05	-8e-05	-0.0001	-0.00042	-0.00025	-9e-05	-0.00017	6
30420	6e-05	-6e-05	-8e-05	-0.0001	-0.00042	-0.00025	-9e-05	-0.00017	6
30421	7e-05	0	-2e-05	1e-05	-0.00013	-1e-05	-4e-05	0.00027	6
30422	7e-05	0	-2e-05	1e-05	-0.00013	-1e-05	-4e-05	0.00027	6
30423	7e-05	0	-2e-05	1e-05	-0.00013	-1e-05	-4e-05	0.00027	6
30424	7e-05	0	-2e-05	1e-05	-0.00013	-1e-05	-4e-05	0.00027	6
30425	7e-05	0	-2e-05	1e-05	-0.00013	-1e-05	-4e-05	0.00027	6
30426	7e-05	0	-2e-05	1e-05	-0.00013	-1e-05	-4e-05	0.00027	6
30427	7e-05	0	-2e-05	1e-05	-0.00013	-1e-05	-4e-05	0.00027	6
30428	7e-05	0	-2e-05	1e-05	-0.00013	-1e-05	-4e-05	0.00027	6
30429	7e-05	0	-2e-05	1e-05	-0.00013	-1e-05	-4e-05	0.00027	6
30430	7e-05	0	-2e-05	1e-05	-0.00013	-1e-05	-4e-05	0.00027	6
30431	7e-05	0	-2e-05	1e-05	-0.00013	-1e-05	-4e-05	0.00027	6
30432	7e-05	0	-2e-05	1e-05	-0.00013	-1e-05	-4e-05	0.00027	6
30433	7e-05	0	-2e-05	1e-05	-0.00013	-1e-05	-4e-05	0.00027	6
30434	7e-05	0	-2e-05	1e-05	-0.00013	-1e-05	-4e-05	0.00027	6
30435	7e-05	0	-2e-05	1e-05	-0.00013	-1e-05	-4e-05	0.00027	6
30436	1e-05	1e-05	-5e-05	-4e-05	-2e-05	-0.00063	-5e-05	4e-05	6
30438	-2e-05	-4e-05	-2e-05	1e-05	8e-05	-0.00017	-2e-05	1e-05	6
30439	-2e-05	-4e-05	-2e-05	1e-05	8e-05	-0.00017	-2e-05	1e-05	6
30440	-2e-05	-4e-05	-2e-05	1e-05	8e-05	-0.00017	-2e-05	1e-05	6
30441	-2e-05	-4e-05	-2e-05	1e-05	8e-05	-0.00017	-2e-05	1e-05	6
30442	-2e-05	-4e-05	-2e-05	1e-05	8e-05	-0.00017	-2e-05	1e-05	6
30443	-2e-05	-4e-05	-2e-05	1e-05	8e-05	-0.00017	-2e-05	1e-05	6
30444	-2e-05	-4e-05	-2e-05	1e-05	8e-05	-0.00017	-2e-05	1e-05	6
30445	-2e-05	-4e-05	-2e-05	1e-05	8e-05	-0.00017	-2e-05	1e-05	6
30446	-2e-05	-4e-05	-2e-05	1e-05	8e-05	-0.00017	-2e-05	1e-05	6
30447	-2e-05	-4e-05	-2e-05	1e-05	8e-05	-0.00017	-2e-05	1e-05	6
30448	-2e-05	-4e-05	-2e-05	1e-05	8e-05	-0.00017	-2e-05	1e-05	6
30449	-2e-05	-4e-05	-2e-05	1e-05	8e-05	-0.00017	-2e-05	1e-05	6
30450	-2e-05	-4e-05	-2e-05	1e-05	8e-05	-0.00017	-2e-05	1e-05	6
30451	-2e-05	-4e-05	-2e-05	1e-05	8e-05	-0.00017	-2e-05	1e-05	6
30452	-2e-05	-4e-05	-2e-05	1e-05	8e-05	-0.00017	-2e-05	1e-05	6
30453	-2e-05	-4e-05	-2e-05	1e-05	8e-05	-0.00017	-2e-05	1e-05	6
30454	-2e-05	-4e-05	-2e-05	1e-05	8e-05	-0.00017	-2e-05	1e-05	6
30455	-2e-05	-4e-05	-2e-05	1e-05	8e-05	-0.00017	-2e-05	1e-05	6
30456	-2e-05	-4e-05	-2e-05	1e-05	8e-05	-0.00017	-2e-05	1e-05	6
30457	-2e-05	-4e-05	-2e-05	1e-05	8e-05	-0.00017	-2e-05	1e-05	6
30458	-0.00013	-8e-05	-6e-05	-3e-05	0.0001	-0.00012	-8e-05	4e-05	6
30459	0	2e-05	0.00012	-7e-05	-0.00045	0.00082	0.00014	-8e-05	6
30460	0	2e-05	0.00012	-7e-05	-0.00045	0.00082	0.00014	-8e-05	6
30461	0	2e-05	0.00012	-7e-05	-0.00045	0.00082	0.00014	-8e-05	6
30462	0	2e-05	0.00012	-7e-05	-0.00045	0.00082	0.00014	-8e-05	6
30463	0	2e-05	0.00012	-7e-05	-0.00045	0.00082	0.00014	-8e-05	6
30464	0	2e-05	0.00012	-7e-05	-0.00045	0.00082	0.00014	-8e-05	6
30465	0	2e-05	0.00012	-7e-05	-0.00045	0.00082	0.00014	-8e-05	6
30466	0	2e-05	0.00012	-7e-05	-0.00045	0.00082	0.00014	-8e-05	6
30467	0	2e-05	0.00012	-7e-05	-0.00045	0.00082	0.00014	-8e-05	6
30468	0	2e-05	0.00012	-7e-05	-0.00045	0.00082	0.00014	-8e-05	6
30469	0	2e-05	0.00012	-7e-05	-0.00045	0.00082	0.00014	-8e-05	6
30470	0	2e-05	0.00012	-7e-05	-0.00045	0.00082	0.00014	-8e-05	6
30471	0	2e-05	0.00012	-7e-05	-0.00045	0.00082	0.00014	-8e-05	6
30472	9e-05	-2e-05	-0.00012	0	0	-0.00035	0	0.00015	6
30473	0	1e-05	1e-05	8e-05	0.00013	2e-05	-7e-05	-0.00014	6
30474	0	1e-05	1e-05	8e-05	0.00013	2e-05	-7e-05	-0.00014	6
30475	0	1e-05	1e-05	8e-05	0.00013	2e-05	-7e-05	-0.00014	6
30476	0	1e-05	1e-05	8e-05	0.00013	2e-05	-7e-05	-0.00014	6
30477	0	1e-05	1e-05	8e-05	0.00013	2e-05	-7e-05	-0.00014	6
30478	0	1e-05	1e-05	8e-05	0.00013	2e-05	-7e-05	-0.00014	6
30479	0	1e-05	1e-05	8e-05	0.00013	2e-05	-7e-05	-0.00014	6
30480	0	1e-05	1e-05	8e-05	0.00013	2e-05	-7e-05	-0.00014	6
30481	0	1e-05	1e-05	8e-05	0.00013	2e-05	-7e-05	-0.00014	6
30482	0	1e-05	1e-05	8e-05	0.00013	2e-05	-7e-05	-0.00014	6
30483	0	1e-05	1e-05	8e-05	0.00013	2e-05	-7e-05	-0.00014	6
30484	0	1e-05	1e-05	8e-05	0.00013	2e-05	-7e-05	-0.00014	6
30485	0	1e-05	1e-05	8e-05	0.00013	2e-05	-7e-05	-0.00014	6
30486	0	1e-05	1e-05	8e-05	0.00013	2e-05	-7e-05	-0.00014	6
30488	0	1e-05	1e-05	8e-05	0.00013	2e-05	-7e-05	-0.00014	6
30489	0	1e-05	1e-05	8e-05	0.00013	2e-05	-7e-05	-0.00014	6
30490	0	1e-05	1e-05	8e-05	0.00013	2e-05	-7e-05	-0.00014	6
30491	0	1e-05	1e-05	8e-05	0.00013	2e-05	-7e-05	-0.00014	6
30492	0	1e-05	1e-05	8e-05	0.00013	2e-05	-7e-05	-0.00014	6
30493	0	1e-05	1e-05	8e-05	0.00013	2e-05	-7e-05	-0.00014	6
30494	0	1e-05	1e-05	8e-05	0.00013	2e-05	-7e-05	-0.00014	6
30495	0	1e-05	1e-05	8e-05	0.00013	2e-05	-7e-05	-0.00014	6
30496	0	1e-05	-3e-05	-3e-05	-0.00031	-0.00014	5e-05	-1e-05	6
30497	-7e-05	-5e-05	-4e-05	-5e-05	4e-05	6e-05	-1e-05	0.00015	6
30498	-7e-05	-5e-05	-4e-05	-5e-05	4e-05	6e-05	-1e-05	0.00015	6
30499	-7e-05	-5e-05	-4e-05	-5e-05	4e-05	6e-05	-1e-05	0.00015	6
30500	-7e-05	-5e-05	-4e-05	-5e-05	4e-05	6e-05	-1e-05	0.00015	6
30501	-7e-05	-5e-05	-4e-05	-5e-05	4e-05	6e-05	-1e-05	0.00015	6
30502	-7e-05	-5e-05	-4e-05	-5e-05	4e-05	6e-05	-1e-05	0.00015	6
30503	-7e-05	-5e-05	-4e-05	-5e-05	4e-05	6e-05	-1e-05	0.00015	6
30504	-7e-05	-5e-05	-4e-05	-5e-05	4e-05	6e-05	-1e-05	0.00015	6
30505	-7e-05	-5e-05	-4e-05	-5e-05	4e-05	6e-05	-1e-05	0.00015	6
30506	-7e-05	-5e-05	-4e-05	-5e-05	4e-05	6e-05	-1e-05	0.00015	6
30507	-7e-05	-5e-05	-4e-05	-5e-05	4e-05	6e-05	-1e-05	0.00015	6
30508	-7e-05	-5e-05	-4e-05	-5e-05	4e-05	6e-05	-1e-05	0.00015	6
30509	-7e-05	-5e-05	-4e-05	-5e-05	4e-05	6e-05	-1e-05	0.00015	6
30510	-7e-05	-0.00013	-6e-05	2e-05	0.00016	1e-05	-4e-05	1e-05	6
30511	-4e-05	3e-05	-1e-05	2e-05	2e-05	-5e-05	-0.00016	-1e-05	6
30512	-4e-05	3e-05	-1e-05	2e-05	2e-05	-5e-05	-0.00016	-1e-05	6
30513	-4e-05	3e-05	-1e-05	2e-05	2e-05	-5e-05	-0.00016	-1e-05	6
30514	-4e-05	3e-05	-1e-05	2e-05	2e-05	-5e-05	-0.00016	-1e-05	6
30515	-4e-05	3e-05	-1e-05	2e-05	2e-05	-5e-05	-0.00016	-1e-05	6
30516	-4e-05	3e-05	-1e-05	2e-05	2e-05	-5e-05	-0.00016	-1e-05	6
30517	-4e-05	3e-05	-1e-05	2e-05	2e-05	-5e-05	-0.00016	-1e-05	6
30518	-4e-05	3e-05	-1e-05	2e-05	2e-05	-5e-05	-0.00016	-1e-05	6
30519	-4e-05	3e-05	-1e-05	2e-05	2e-05	-5e-05	-0.00016	-1e-05	6
30520	-4e-05	3e-05	-1e-05	2e-05	2e-05	-5e-05	-0.00016	-1e-05	6
30521	-4e-05	3e-05	-1e-05	2e-05	2e-05	-5e-05	-0.00016	-1e-05	6
30522	-4e-05	3e-05	-1e-05	2e-05	2e-05	-5e-05	-0.00016	-1e-05	6
30523	-4e-05	3e-05	-1e-05	2e-05	2e-05	-5e-05	-0.00016	-1e-05	6
30524	-4e-05	3e-05	-1e-05	2e-05	2e-05	-5e-05	-0.00016	-1e-05	6
30525	-4e-05	3e-05	-1e-05	2e-05	2e-05	-5e-05	-0.00016	-1e-05	6
30526	-4e-05	3e-05	-1e-05	2e-05	2e-05	-5e-05	-0.00016	-1e-05	6
30527	-4e-05	3e-05	-1e-05	2e-05	2e-05	-5e-05	-0.00016	-1e-05	6
30528	-4e-05	3e-05	-1e-05	2e-05	2e-05	-5e-05	-0.00016	-1e-05	6
30529	-4e-05	3e-05	-1e-05	2e-05	2e-05	-5e-05	-0.00016	-1e-05	6
30530	-4e-05	3e-05	-1e-05	2e-05	2e-05	-5e-05	-0.00016	-1e-05	6
30531	-4e-05	3e-05	-1e-05	2e-05	2e-05	-5e-05	-0.00016	-1e-05	6
30532	-4e-05	3e-05	-1e-05	2e-05	2e-05	-5e-05	-0.00016	-1e-05	6
30533	-4e-05	3e-05	-1e-05	2e-05	2e-05	-5e-05	-0.00016	-1e-05	6
30534	-4e-05	3e-05	-1e-05	2e-05	2e-05	-5e-05	-0.00016	-1e-05	6
30535	-4e-05	3e-05	-1e-05	2e-05	2e-05	-5e-05	-0.00016	-1e-05	6
30536	-4e-05	3e-05	-1e-05	2e-05	2e-05	-5e-05	-0.00016	-1e-05	6
30538	-4e-05	3e-05	-1e-05	2e-05	2e-05	-5e-05	-0.00016	-1e-05	6
30539	-4e-05	3e-05	-1e-05	2e-05	2e-05	-5e-05	-0.00016	-1e-05	6
30540	-4e-05	3e-05	-1e-05	2e-05	2e-05	-5e-05	-0.00016	-1e-05	6
30541	-3e-05	-1e-05	-4e-05	-4e-05	-0.00011	-0.00065	-3e-05	3e-05	6
30543	-3e-05	-1e-05	-4e-05	-4e-05	-0.00011	-0.00065	-3e-05	3e-05	6
30544	-3e-05	-1e-05	-4e-05	-4e-05	-0.00011	-0.00065	-3e-05	3e-05	6
30545	-3e-05	-1e-05	-4e-05	-4e-05	-0.00011	-0.00065	-3e-05	3e-05	6
30546	-3e-05	-1e-05	-4e-05	-4e-05	-0.00011	-0.00065	-3e-05	3e-05	6
30547	-3e-05	-1e-05	-4e-05	-4e-05	-0.00011	-0.00065	-3e-05	3e-05	6
30548	-3e-05	-1e-05	-4e-05	-4e-05	-0.00011	-0.00065	-3e-05	3e-05	6
30549	-3e-05	-1e-05	-4e-05	-4e-05	-0.00011	-0.00065	-3e-05	3e-05	6
30550	-3e-05	-1e-05	-4e-05	-4e-05	-0.00011	-0.00065	-3e-05	3e-05	6
30551	-3e-05	-1e-05	-4e-05	-4e-05	-0.00011	-0.00065	-3e-05	3e-05	6
30552	-3e-05	-1e-05	-4e-05	-4e-05	-0.00011	-0.00065	-3e-05	3e-05	6
30553	-3e-05	-1e-05	-4e-05	-4e-05	-0.00011	-0.00065	-3e-05	3e-05	6
30554	-3e-05	-1e-05	-4e-05	-4e-05	-0.00011	-0.00065	-3e-05	3e-05	6
30555	-3e-05	-1e-05	-4e-05	-4e-05	-0.00011	-0.00065	-3e-05	3e-05	6
30556	-0.0002	-7e-05	-0.00018	0	9e-05	-4e-05	-1e-05	-0.00011	6
30557	-0.0002	-7e-05	-0.00018	0	9e-05	-4e-05	-1e-05	-0.00011	6
30558	-0.0002	-7e-05	-0.00018	0	9e-05	-4e-05	-1e-05	-0.00011	6
30559	-0.0002	-7e-05	-0.00018	0	9e-05	-4e-05	-1e-05	-0.00011	6
30560	-0.0002	-7e-05	-0.00018	0	9e-05	-4e-05	-1e-05	-0.00011	6
30561	-0.0002	-7e-05	-0.00018	0	9e-05	-4e-05	-1e-05	-0.00011	6
30562	-0.0002	-7e-05	-0.00018	0	9e-05	-4e-05	-1e-05	-0.00011	6
30563	-0.0002	-7e-05	-0.00018	0	9e-05	-4e-05	-1e-05	-0.00011	6
30564	-0.0002	-7e-05	-0.00018	0	9e-05	-4e-05	-1e-05	-0.00011	6
30565	-0.0002	-7e-05	-0.00018	0	9e-05	-4e-05	-1e-05	-0.00011	6
30566	-0.0002	-7e-05	-0.00018	0	9e-05	-4e-05	-1e-05	-0.00011	6
30567	-0.0002	-7e-05	-0.00018	0	9e-05	-4e-05	-1e-05	-0.00011	6
30568	-0.0002	-7e-05	-0.00018	0	9e-05	-4e-05	-1e-05	-0.00011	6
30569	-0.0002	-7e-05	-0.00018	0	9e-05	-4e-05	-1e-05	-0.00011	6
30570	-0.0002	-7e-05	-0.00018	0	9e-05	-4e-05	-1e-05	-0.00011	6
30571	-0.0002	-7e-05	-0.00018	0	9e-05	-4e-05	-1e-05	-0.00011	6
30572	-0.0002	-7e-05	-0.00018	0	9e-05	-4e-05	-1e-05	-0.00011	6
30573	-0.0002	-7e-05	-0.00018	0	9e-05	-4e-05	-1e-05	-0.00011	6
30574	-0.0002	-7e-05	-0.00018	0	9e-05	-4e-05	-1e-05	-0.00011	6
30575	-0.0002	-7e-05	-0.00018	0	9e-05	-4e-05	-1e-05	-0.00011	6
30576	-0.0002	-7e-05	-0.00018	0	9e-05	-4e-05	-1e-05	-0.00011	6
30577	-0.0002	-7e-05	-0.00018	0	9e-05	-4e-05	-1e-05	-0.00011	6
30578	0.00017	6e-05	5e-05	4e-05	6e-05	0.00027	0.0001	9e-05	6
30579	9e-05	4e-05	7e-05	-3e-05	-2e-05	-0.0002	5e-05	0.00031	6
30580	9e-05	4e-05	7e-05	-3e-05	-2e-05	-0.0002	5e-05	0.00031	6
30581	9e-05	4e-05	7e-05	-3e-05	-2e-05	-0.0002	5e-05	0.00031	6
30582	9e-05	4e-05	7e-05	-3e-05	-2e-05	-0.0002	5e-05	0.00031	6
30583	9e-05	4e-05	7e-05	-3e-05	-2e-05	-0.0002	5e-05	0.00031	6
30584	9e-05	4e-05	7e-05	-3e-05	-2e-05	-0.0002	5e-05	0.00031	6
30585	9e-05	4e-05	7e-05	-3e-05	-2e-05	-0.0002	5e-05	0.00031	6
30586	9e-05	4e-05	7e-05	-3e-05	-2e-05	-0.0002	5e-05	0.00031	6
30588	9e-05	4e-05	7e-05	-3e-05	-2e-05	-0.0002	5e-05	0.00031	6
30589	9e-05	4e-05	7e-05	-3e-05	-2e-05	-0.0002	5e-05	0.00031	6
30590	9e-05	4e-05	7e-05	-3e-05	-2e-05	-0.0002	5e-05	0.00031	6
30591	9e-05	4e-05	7e-05	-3e-05	-2e-05	-0.0002	5e-05	0.00031	6
30592	9e-05	4e-05	7e-05	-3e-05	-2e-05	-0.0002	5e-05	0.00031	6
30593	-3e-05	-2e-05	0	0	1e-05	-0.00051	-0.00016	-0.00011	6
30594	-3e-05	-2e-05	0	0	1e-05	-0.00051	-0.00016	-0.00011	6
30595	-3e-05	-2e-05	0	0	1e-05	-0.00051	-0.00016	-0.00011	6
30596	-3e-05	-2e-05	0	0	1e-05	-0.00051	-0.00016	-0.00011	6
30597	-3e-05	-2e-05	0	0	1e-05	-0.00051	-0.00016	-0.00011	6
30598	-3e-05	-2e-05	0	0	1e-05	-0.00051	-0.00016	-0.00011	6
30599	-3e-05	-2e-05	0	0	1e-05	-0.00051	-0.00016	-0.00011	6
30600	-3e-05	-2e-05	0	0	1e-05	-0.00051	-0.00016	-0.00011	6
30601	-3e-05	-2e-05	0	0	1e-05	-0.00051	-0.00016	-0.00011	6
30602	-3e-05	-2e-05	0	0	1e-05	-0.00051	-0.00016	-0.00011	6
30603	-3e-05	-2e-05	0	0	1e-05	-0.00051	-0.00016	-0.00011	6
30604	-3e-05	-2e-05	0	0	1e-05	-0.00051	-0.00016	-0.00011	6
30605	-3e-05	-2e-05	0	0	1e-05	-0.00051	-0.00016	-0.00011	6
30606	-3e-05	-2e-05	0	0	1e-05	-0.00051	-0.00016	-0.00011	6
30607	-3e-05	-2e-05	0	0	1e-05	-0.00051	-0.00016	-0.00011	6
30608	-3e-05	-2e-05	0	0	1e-05	-0.00051	-0.00016	-0.00011	6
30609	-3e-05	-2e-05	0	0	1e-05	-0.00051	-0.00016	-0.00011	6
30610	-3e-05	-2e-05	0	0	1e-05	-0.00051	-0.00016	-0.00011	6
30611	-3e-05	-2e-05	0	0	1e-05	-0.00051	-0.00016	-0.00011	6
30612	-3e-05	-2e-05	0	0	1e-05	-0.00051	-0.00016	-0.00011	6
30613	-3e-05	-2e-05	0	0	1e-05	-0.00051	-0.00016	-0.00011	6
30614	-3e-05	-2e-05	0	0	1e-05	-0.00051	-0.00016	-0.00011	6
30615	-3e-05	-2e-05	0	0	1e-05	-0.00051	-0.00016	-0.00011	6
30616	-8e-05	-9e-05	-3e-05	-3e-05	-6e-05	-0.0004	-1e-05	-0.00014	6
30617	-8e-05	-8e-05	-8e-05	-7e-05	0.00014	-0.00036	-0.00011	-0.0002	6
30618	-8e-05	-8e-05	-8e-05	-7e-05	0.00014	-0.00036	-0.00011	-0.0002	6
30619	-8e-05	-8e-05	-8e-05	-7e-05	0.00014	-0.00036	-0.00011	-0.0002	6
30620	-8e-05	-8e-05	-8e-05	-7e-05	0.00014	-0.00036	-0.00011	-0.0002	6
30621	-8e-05	-8e-05	-8e-05	-7e-05	0.00014	-0.00036	-0.00011	-0.0002	6
30622	-8e-05	-8e-05	-8e-05	-7e-05	0.00014	-0.00036	-0.00011	-0.0002	6
30623	-8e-05	-8e-05	-8e-05	-7e-05	0.00014	-0.00036	-0.00011	-0.0002	6
30624	-8e-05	-8e-05	-8e-05	-7e-05	0.00014	-0.00036	-0.00011	-0.0002	6
30625	-8e-05	-8e-05	-8e-05	-7e-05	0.00014	-0.00036	-0.00011	-0.0002	6
30626	-8e-05	-8e-05	-8e-05	-7e-05	0.00014	-0.00036	-0.00011	-0.0002	6
30627	-8e-05	-8e-05	-8e-05	-7e-05	0.00014	-0.00036	-0.00011	-0.0002	6
30628	-8e-05	-8e-05	-8e-05	-7e-05	0.00014	-0.00036	-0.00011	-0.0002	6
30629	-8e-05	-8e-05	-8e-05	-7e-05	0.00014	-0.00036	-0.00011	-0.0002	6
30630	-2e-05	-3e-05	-3e-05	1e-05	0.00019	0.00011	0.0001	-7e-05	6
30631	6e-05	2e-05	6e-05	3e-05	5e-05	0.00021	4e-05	-0.00012	6
30632	6e-05	2e-05	6e-05	3e-05	5e-05	0.00021	4e-05	-0.00012	6
30633	6e-05	2e-05	6e-05	3e-05	5e-05	0.00021	4e-05	-0.00012	6
30634	6e-05	2e-05	6e-05	3e-05	5e-05	0.00021	4e-05	-0.00012	6
30635	6e-05	2e-05	6e-05	3e-05	5e-05	0.00021	4e-05	-0.00012	6
30636	6e-05	2e-05	6e-05	3e-05	5e-05	0.00021	4e-05	-0.00012	6
30638	6e-05	2e-05	6e-05	3e-05	5e-05	0.00021	4e-05	-0.00012	6
30640	6e-05	2e-05	6e-05	3e-05	5e-05	0.00021	4e-05	-0.00012	6
30641	6e-05	2e-05	6e-05	3e-05	5e-05	0.00021	4e-05	-0.00012	6
30642	6e-05	2e-05	6e-05	3e-05	5e-05	0.00021	4e-05	-0.00012	6
30643	6e-05	2e-05	6e-05	3e-05	5e-05	0.00021	4e-05	-0.00012	6
30644	6e-05	2e-05	6e-05	3e-05	5e-05	0.00021	4e-05	-0.00012	6
30645	6e-05	2e-05	6e-05	3e-05	5e-05	0.00021	4e-05	-0.00012	6
30646	6e-05	2e-05	6e-05	3e-05	5e-05	0.00021	4e-05	-0.00012	6
30647	6e-05	2e-05	6e-05	3e-05	5e-05	0.00021	4e-05	-0.00012	6
30648	6e-05	2e-05	6e-05	3e-05	5e-05	0.00021	4e-05	-0.00012	6
30649	6e-05	2e-05	6e-05	3e-05	5e-05	0.00021	4e-05	-0.00012	6
30650	6e-05	2e-05	6e-05	3e-05	5e-05	0.00021	4e-05	-0.00012	6
30651	6e-05	2e-05	6e-05	3e-05	5e-05	0.00021	4e-05	-0.00012	6
30652	6e-05	2e-05	6e-05	3e-05	5e-05	0.00021	4e-05	-0.00012	6
30653	-8e-05	-0.00013	-5e-05	2e-05	7e-05	-5e-05	-0.00014	-0.00013	6
30654	0	-2e-05	-0.0001	-1e-05	9e-05	0.00018	0.0001	5e-05	6
30655	0	-2e-05	-0.0001	-1e-05	9e-05	0.00018	0.0001	5e-05	6
30656	0	-2e-05	-0.0001	-1e-05	9e-05	0.00018	0.0001	5e-05	6
30657	0	-2e-05	-0.0001	-1e-05	9e-05	0.00018	0.0001	5e-05	6
30658	0	-2e-05	-0.0001	-1e-05	9e-05	0.00018	0.0001	5e-05	6
30659	0	-2e-05	-0.0001	-1e-05	9e-05	0.00018	0.0001	5e-05	6
30660	0	-2e-05	-0.0001	-1e-05	9e-05	0.00018	0.0001	5e-05	6
30661	0	-2e-05	-0.0001	-1e-05	9e-05	0.00018	0.0001	5e-05	6
30662	0	-2e-05	-0.0001	-1e-05	9e-05	0.00018	0.0001	5e-05	6
30663	0	-2e-05	-0.0001	-1e-05	9e-05	0.00018	0.0001	5e-05	6
30664	0	-2e-05	-0.0001	-1e-05	9e-05	0.00018	0.0001	5e-05	6
30665	0	-2e-05	-0.0001	-1e-05	9e-05	0.00018	0.0001	5e-05	6
30666	0	-2e-05	-0.0001	-1e-05	9e-05	0.00018	0.0001	5e-05	6
30667	0	-2e-05	-0.0001	-1e-05	9e-05	0.00018	0.0001	5e-05	6
30668	0	-2e-05	-0.0001	-1e-05	9e-05	0.00018	0.0001	5e-05	6
30669	0	-2e-05	-0.0001	-1e-05	9e-05	0.00018	0.0001	5e-05	6
30670	0	-2e-05	-0.0001	-1e-05	9e-05	0.00018	0.0001	5e-05	6
30671	0	-2e-05	-0.0001	-1e-05	9e-05	0.00018	0.0001	5e-05	6
30672	0	-2e-05	-0.0001	-1e-05	9e-05	0.00018	0.0001	5e-05	6
30673	0	-2e-05	-0.0001	-1e-05	9e-05	0.00018	0.0001	5e-05	6
30674	0	-2e-05	-0.0001	-1e-05	9e-05	0.00018	0.0001	5e-05	6
30675	0	-2e-05	-0.0001	-1e-05	9e-05	0.00018	0.0001	5e-05	6
30676	8e-05	5e-05	4e-05	2e-05	-0.00014	-0.00045	7e-05	0.00012	6
30677	-5e-05	-3e-05	9e-05	4e-05	6e-05	0.0007	0.0001	-0.00011	6
30678	-5e-05	-3e-05	9e-05	4e-05	6e-05	0.0007	0.0001	-0.00011	6
30679	-5e-05	-3e-05	9e-05	4e-05	6e-05	0.0007	0.0001	-0.00011	6
30680	-5e-05	-3e-05	9e-05	4e-05	6e-05	0.0007	0.0001	-0.00011	6
30681	-5e-05	-3e-05	9e-05	4e-05	6e-05	0.0007	0.0001	-0.00011	6
30682	-5e-05	-3e-05	9e-05	4e-05	6e-05	0.0007	0.0001	-0.00011	6
30683	-5e-05	-3e-05	9e-05	4e-05	6e-05	0.0007	0.0001	-0.00011	6
30684	-5e-05	-3e-05	9e-05	4e-05	6e-05	0.0007	0.0001	-0.00011	6
30685	-5e-05	-3e-05	9e-05	4e-05	6e-05	0.0007	0.0001	-0.00011	6
30686	-5e-05	-3e-05	9e-05	4e-05	6e-05	0.0007	0.0001	-0.00011	6
30688	-5e-05	-3e-05	9e-05	4e-05	6e-05	0.0007	0.0001	-0.00011	6
30689	-5e-05	-3e-05	9e-05	4e-05	6e-05	0.0007	0.0001	-0.00011	6
30690	-5e-05	-3e-05	9e-05	4e-05	6e-05	0.0007	0.0001	-0.00011	6
30691	-5e-05	-3e-05	9e-05	4e-05	6e-05	0.0007	0.0001	-0.00011	6
30692	-5e-05	-3e-05	9e-05	4e-05	6e-05	0.0007	0.0001	-0.00011	6
30693	-5e-05	-3e-05	9e-05	4e-05	6e-05	0.0007	0.0001	-0.00011	6
30694	-5e-05	-3e-05	9e-05	4e-05	6e-05	0.0007	0.0001	-0.00011	6
30695	-5e-05	-3e-05	9e-05	4e-05	6e-05	0.0007	0.0001	-0.00011	6
30696	-5e-05	-3e-05	9e-05	4e-05	6e-05	0.0007	0.0001	-0.00011	6
30697	-5e-05	-3e-05	9e-05	4e-05	6e-05	0.0007	0.0001	-0.00011	6
30698	-5e-05	-3e-05	9e-05	4e-05	6e-05	0.0007	0.0001	-0.00011	6
30699	-5e-05	-3e-05	9e-05	4e-05	6e-05	0.0007	0.0001	-0.00011	6
30700	-2e-05	-2e-05	-4e-05	-1e-05	6e-05	-0.00022	-6e-05	-0.00016	6
30701	-2e-05	-2e-05	-4e-05	-1e-05	6e-05	-0.00022	-6e-05	-0.00016	6
30702	-2e-05	-2e-05	-4e-05	-1e-05	6e-05	-0.00022	-6e-05	-0.00016	6
30703	-2e-05	-2e-05	-4e-05	-1e-05	6e-05	-0.00022	-6e-05	-0.00016	6
30704	-2e-05	-2e-05	-4e-05	-1e-05	6e-05	-0.00022	-6e-05	-0.00016	6
30705	-2e-05	-2e-05	-4e-05	-1e-05	6e-05	-0.00022	-6e-05	-0.00016	6
30706	-2e-05	-2e-05	-4e-05	-1e-05	6e-05	-0.00022	-6e-05	-0.00016	6
30707	-2e-05	-2e-05	-4e-05	-1e-05	6e-05	-0.00022	-6e-05	-0.00016	6
30708	-2e-05	-2e-05	-4e-05	-1e-05	6e-05	-0.00022	-6e-05	-0.00016	6
30709	-2e-05	-2e-05	-4e-05	-1e-05	6e-05	-0.00022	-6e-05	-0.00016	6
30710	-2e-05	-2e-05	-4e-05	-1e-05	6e-05	-0.00022	-6e-05	-0.00016	6
30711	-2e-05	-2e-05	-4e-05	-1e-05	6e-05	-0.00022	-6e-05	-0.00016	6
30712	4e-05	-5e-05	-6e-05	-6e-05	-0.00034	-6e-05	-4e-05	0	6
30713	-0.00023	-3e-05	-1e-05	-1e-05	-5e-05	0.00039	5e-05	-4e-05	6
30714	-0.00023	-3e-05	-1e-05	-1e-05	-5e-05	0.00039	5e-05	-4e-05	6
30715	-0.00023	-3e-05	-1e-05	-1e-05	-5e-05	0.00039	5e-05	-4e-05	6
30716	-0.00023	-3e-05	-1e-05	-1e-05	-5e-05	0.00039	5e-05	-4e-05	6
30717	-0.00023	-3e-05	-1e-05	-1e-05	-5e-05	0.00039	5e-05	-4e-05	6
30718	-0.00023	-3e-05	-1e-05	-1e-05	-5e-05	0.00039	5e-05	-4e-05	6
30719	-0.00023	-3e-05	-1e-05	-1e-05	-5e-05	0.00039	5e-05	-4e-05	6
30720	-0.00023	-3e-05	-1e-05	-1e-05	-5e-05	0.00039	5e-05	-4e-05	6
30721	-0.00023	-3e-05	-1e-05	-1e-05	-5e-05	0.00039	5e-05	-4e-05	6
30722	-0.00023	-3e-05	-1e-05	-1e-05	-5e-05	0.00039	5e-05	-4e-05	6
30723	-0.00023	-3e-05	-1e-05	-1e-05	-5e-05	0.00039	5e-05	-4e-05	6
30724	-0.00023	-3e-05	-1e-05	-1e-05	-5e-05	0.00039	5e-05	-4e-05	6
30725	-0.00023	-3e-05	-1e-05	-1e-05	-5e-05	0.00039	5e-05	-4e-05	6
30726	-0.00023	-3e-05	-1e-05	-1e-05	-5e-05	0.00039	5e-05	-4e-05	6
30727	-0.00023	-3e-05	-1e-05	-1e-05	-5e-05	0.00039	5e-05	-4e-05	6
30728	-0.00023	-3e-05	-1e-05	-1e-05	-5e-05	0.00039	5e-05	-4e-05	6
30729	-0.00023	-3e-05	-1e-05	-1e-05	-5e-05	0.00039	5e-05	-4e-05	6
30730	-0.00023	-3e-05	-1e-05	-1e-05	-5e-05	0.00039	5e-05	-4e-05	6
30731	-0.00023	-3e-05	-1e-05	-1e-05	-5e-05	0.00039	5e-05	-4e-05	6
30732	-0.00023	-3e-05	-1e-05	-1e-05	-5e-05	0.00039	5e-05	-4e-05	6
30733	-0.00023	-3e-05	-1e-05	-1e-05	-5e-05	0.00039	5e-05	-4e-05	6
30734	-0.00023	-3e-05	-1e-05	-1e-05	-5e-05	0.00039	5e-05	-4e-05	6
30735	-0.00023	-3e-05	-1e-05	-1e-05	-5e-05	0.00039	5e-05	-4e-05	6
30736	-2e-05	0	-4e-05	-1e-05	-5e-05	9e-05	-0.00018	-0.0001	6
30738	5e-05	-1e-05	1e-05	-3e-05	0.00021	-0.00044	9e-05	1e-05	6
30739	5e-05	-1e-05	1e-05	-3e-05	0.00021	-0.00044	9e-05	1e-05	6
30740	5e-05	-1e-05	1e-05	-3e-05	0.00021	-0.00044	9e-05	1e-05	6
30741	5e-05	-1e-05	1e-05	-3e-05	0.00021	-0.00044	9e-05	1e-05	6
30742	5e-05	-1e-05	1e-05	-3e-05	0.00021	-0.00044	9e-05	1e-05	6
30743	5e-05	-1e-05	1e-05	-3e-05	0.00021	-0.00044	9e-05	1e-05	6
30744	5e-05	-1e-05	1e-05	-3e-05	0.00021	-0.00044	9e-05	1e-05	6
30745	5e-05	-1e-05	1e-05	-3e-05	0.00021	-0.00044	9e-05	1e-05	6
30746	5e-05	-1e-05	1e-05	-3e-05	0.00021	-0.00044	9e-05	1e-05	6
30747	5e-05	-1e-05	1e-05	-3e-05	0.00021	-0.00044	9e-05	1e-05	6
30748	5e-05	-1e-05	1e-05	-3e-05	0.00021	-0.00044	9e-05	1e-05	6
30749	-3e-05	0	-1e-05	0	-2e-05	0.00037	-0.00015	-0.00027	6
30750	4e-05	-2e-05	-1e-05	3e-05	6e-05	0.00045	0.00011	0.0001	6
30751	4e-05	-2e-05	-1e-05	3e-05	6e-05	0.00045	0.00011	0.0001	6
30752	4e-05	-2e-05	-1e-05	3e-05	6e-05	0.00045	0.00011	0.0001	6
30753	4e-05	-2e-05	-1e-05	3e-05	6e-05	0.00045	0.00011	0.0001	6
30754	4e-05	-2e-05	-1e-05	3e-05	6e-05	0.00045	0.00011	0.0001	6
30755	4e-05	-2e-05	-1e-05	3e-05	6e-05	0.00045	0.00011	0.0001	6
30756	4e-05	-2e-05	-1e-05	3e-05	6e-05	0.00045	0.00011	0.0001	6
30757	4e-05	-2e-05	-1e-05	3e-05	6e-05	0.00045	0.00011	0.0001	6
30758	6e-05	5e-05	4e-05	1e-05	-3e-05	-0.00011	0.00011	0.00013	6
30759	6e-05	5e-05	4e-05	1e-05	-3e-05	-0.00011	0.00011	0.00013	6
30760	6e-05	5e-05	4e-05	1e-05	-3e-05	-0.00011	0.00011	0.00013	6
30761	6e-05	5e-05	4e-05	1e-05	-3e-05	-0.00011	0.00011	0.00013	6
30762	6e-05	5e-05	4e-05	1e-05	-3e-05	-0.00011	0.00011	0.00013	6
30763	6e-05	5e-05	4e-05	1e-05	-3e-05	-0.00011	0.00011	0.00013	6
30764	6e-05	5e-05	4e-05	1e-05	-3e-05	-0.00011	0.00011	0.00013	6
30765	6e-05	5e-05	4e-05	1e-05	-3e-05	-0.00011	0.00011	0.00013	6
30766	6e-05	5e-05	4e-05	1e-05	-3e-05	-0.00011	0.00011	0.00013	6
30767	6e-05	5e-05	4e-05	1e-05	-3e-05	-0.00011	0.00011	0.00013	6
30768	6e-05	5e-05	4e-05	1e-05	-3e-05	-0.00011	0.00011	0.00013	6
30769	6e-05	5e-05	4e-05	1e-05	-3e-05	-0.00011	0.00011	0.00013	6
30770	6e-05	5e-05	4e-05	1e-05	-3e-05	-0.00011	0.00011	0.00013	6
30771	6e-05	5e-05	4e-05	1e-05	-3e-05	-0.00011	0.00011	0.00013	6
30772	6e-05	5e-05	4e-05	1e-05	-3e-05	-0.00011	0.00011	0.00013	6
30773	6e-05	5e-05	4e-05	1e-05	-3e-05	-0.00011	0.00011	0.00013	6
30774	-0.0001	-1e-05	1e-05	4e-05	-2e-05	-6e-05	-3e-05	2e-05	6
30775	4e-05	0	4e-05	-4e-05	-0.00032	1e-05	-6e-05	0.00011	6
30776	4e-05	0	4e-05	-4e-05	-0.00032	1e-05	-6e-05	0.00011	6
30777	4e-05	0	4e-05	-4e-05	-0.00032	1e-05	-6e-05	0.00011	6
30778	4e-05	0	4e-05	-4e-05	-0.00032	1e-05	-6e-05	0.00011	6
30779	4e-05	0	4e-05	-4e-05	-0.00032	1e-05	-6e-05	0.00011	6
30780	4e-05	0	4e-05	-4e-05	-0.00032	1e-05	-6e-05	0.00011	6
30781	4e-05	0	4e-05	-4e-05	-0.00032	1e-05	-6e-05	0.00011	6
30782	4e-05	0	4e-05	-4e-05	-0.00032	1e-05	-6e-05	0.00011	6
30783	4e-05	0	4e-05	-4e-05	-0.00032	1e-05	-6e-05	0.00011	6
30784	4e-05	0	4e-05	-4e-05	-0.00032	1e-05	-6e-05	0.00011	6
30785	4e-05	0	4e-05	-4e-05	-0.00032	1e-05	-6e-05	0.00011	6
30786	4e-05	0	4e-05	-4e-05	-0.00032	1e-05	-6e-05	0.00011	6
30788	4e-05	0	4e-05	-4e-05	-0.00032	1e-05	-6e-05	0.00011	6
30789	4e-05	0	4e-05	-4e-05	-0.00032	1e-05	-6e-05	0.00011	6
30790	4e-05	0	4e-05	-4e-05	-0.00032	1e-05	-6e-05	0.00011	6
30791	4e-05	0	4e-05	-4e-05	-0.00032	1e-05	-6e-05	0.00011	6
30792	4e-05	0	4e-05	-4e-05	-0.00032	1e-05	-6e-05	0.00011	6
30793	4e-05	0	4e-05	-4e-05	-0.00032	1e-05	-6e-05	0.00011	6
30794	4e-05	0	4e-05	-4e-05	-0.00032	1e-05	-6e-05	0.00011	6
30795	4e-05	0	4e-05	-4e-05	-0.00032	1e-05	-6e-05	0.00011	6
30796	-3e-05	2e-05	-1e-05	3e-05	-3e-05	2e-05	0	3e-05	6
30797	-3e-05	2e-05	-1e-05	3e-05	-3e-05	2e-05	0	3e-05	6
30798	-3e-05	2e-05	-1e-05	3e-05	-3e-05	2e-05	0	3e-05	6
30799	-3e-05	2e-05	-1e-05	3e-05	-3e-05	2e-05	0	3e-05	6
30800	-3e-05	2e-05	-1e-05	3e-05	-3e-05	2e-05	0	3e-05	6
30801	-3e-05	2e-05	-1e-05	3e-05	-3e-05	2e-05	0	3e-05	6
30802	-3e-05	2e-05	-1e-05	3e-05	-3e-05	2e-05	0	3e-05	6
30803	-3e-05	2e-05	-1e-05	3e-05	-3e-05	2e-05	0	3e-05	6
30804	-3e-05	2e-05	-1e-05	3e-05	-3e-05	2e-05	0	3e-05	6
30805	-3e-05	2e-05	-1e-05	3e-05	-3e-05	2e-05	0	3e-05	6
30806	-3e-05	2e-05	-1e-05	3e-05	-3e-05	2e-05	0	3e-05	6
30807	-3e-05	2e-05	-1e-05	3e-05	-3e-05	2e-05	0	3e-05	6
30808	-3e-05	2e-05	-1e-05	3e-05	-3e-05	2e-05	0	3e-05	6
30809	-3e-05	2e-05	-1e-05	3e-05	-3e-05	2e-05	0	3e-05	6
30810	-3e-05	2e-05	-1e-05	3e-05	-3e-05	2e-05	0	3e-05	6
30811	-3e-05	2e-05	-1e-05	3e-05	-3e-05	2e-05	0	3e-05	6
30812	-3e-05	2e-05	-1e-05	3e-05	-3e-05	2e-05	0	3e-05	6
30813	-3e-05	2e-05	-1e-05	3e-05	-3e-05	2e-05	0	3e-05	6
30814	-3e-05	2e-05	-1e-05	3e-05	-3e-05	2e-05	0	3e-05	6
30815	-3e-05	2e-05	-1e-05	3e-05	-3e-05	2e-05	0	3e-05	6
30816	-3e-05	2e-05	-1e-05	3e-05	-3e-05	2e-05	0	3e-05	6
30817	-3e-05	2e-05	-1e-05	3e-05	-3e-05	2e-05	0	3e-05	6
30818	-3e-05	2e-05	-1e-05	3e-05	-3e-05	2e-05	0	3e-05	6
30819	6e-05	2e-05	-3e-05	5e-05	0.00014	0.00023	-1e-05	-7e-05	6
30820	6e-05	2e-05	-3e-05	5e-05	0.00014	0.00023	-1e-05	-7e-05	6
30821	6e-05	2e-05	-3e-05	5e-05	0.00014	0.00023	-1e-05	-7e-05	6
30822	6e-05	2e-05	-3e-05	5e-05	0.00014	0.00023	-1e-05	-7e-05	6
30824	6e-05	2e-05	-3e-05	5e-05	0.00014	0.00023	-1e-05	-7e-05	6
30825	6e-05	2e-05	-3e-05	5e-05	0.00014	0.00023	-1e-05	-7e-05	6
30826	6e-05	2e-05	-3e-05	5e-05	0.00014	0.00023	-1e-05	-7e-05	6
30827	6e-05	2e-05	-3e-05	5e-05	0.00014	0.00023	-1e-05	-7e-05	6
30828	6e-05	2e-05	-3e-05	5e-05	0.00014	0.00023	-1e-05	-7e-05	6
30829	6e-05	2e-05	-3e-05	5e-05	0.00014	0.00023	-1e-05	-7e-05	6
30830	6e-05	2e-05	-3e-05	5e-05	0.00014	0.00023	-1e-05	-7e-05	6
30831	6e-05	2e-05	-3e-05	5e-05	0.00014	0.00023	-1e-05	-7e-05	6
30832	6e-05	2e-05	-3e-05	5e-05	0.00014	0.00023	-1e-05	-7e-05	6
30833	6e-05	2e-05	-3e-05	5e-05	0.00014	0.00023	-1e-05	-7e-05	6
30834	2e-05	5e-05	5e-05	-1e-05	-0.00032	0.00011	1e-05	-0.00013	6
30835	0.00016	-4e-05	-5e-05	-3e-05	-6e-05	-0.00029	-0.00012	0.00016	6
30836	0.00016	-4e-05	-5e-05	-3e-05	-6e-05	-0.00029	-0.00012	0.00016	6
30838	0.00016	-4e-05	-5e-05	-3e-05	-6e-05	-0.00029	-0.00012	0.00016	6
30839	0.00016	-4e-05	-5e-05	-3e-05	-6e-05	-0.00029	-0.00012	0.00016	6
30840	0.00016	-4e-05	-5e-05	-3e-05	-6e-05	-0.00029	-0.00012	0.00016	6
30841	0.00016	-4e-05	-5e-05	-3e-05	-6e-05	-0.00029	-0.00012	0.00016	6
30842	0.00016	-4e-05	-5e-05	-3e-05	-6e-05	-0.00029	-0.00012	0.00016	6
30843	0.00016	-4e-05	-5e-05	-3e-05	-6e-05	-0.00029	-0.00012	0.00016	6
30844	0.00016	-4e-05	-5e-05	-3e-05	-6e-05	-0.00029	-0.00012	0.00016	6
30845	0.00016	-4e-05	-5e-05	-3e-05	-6e-05	-0.00029	-0.00012	0.00016	6
30846	0.00016	-4e-05	-5e-05	-3e-05	-6e-05	-0.00029	-0.00012	0.00016	6
30847	0.00016	-4e-05	-5e-05	-3e-05	-6e-05	-0.00029	-0.00012	0.00016	6
30848	0.00016	-4e-05	-5e-05	-3e-05	-6e-05	-0.00029	-0.00012	0.00016	6
30849	0.00016	-4e-05	-5e-05	-3e-05	-6e-05	-0.00029	-0.00012	0.00016	6
30850	0.00016	-4e-05	-5e-05	-3e-05	-6e-05	-0.00029	-0.00012	0.00016	6
30851	0.00016	-4e-05	-5e-05	-3e-05	-6e-05	-0.00029	-0.00012	0.00016	6
30852	0.00016	-4e-05	-5e-05	-3e-05	-6e-05	-0.00029	-0.00012	0.00016	6
30853	0.00016	-4e-05	-5e-05	-3e-05	-6e-05	-0.00029	-0.00012	0.00016	6
30854	0.00016	-4e-05	-5e-05	-3e-05	-6e-05	-0.00029	-0.00012	0.00016	6
30855	0.00016	-4e-05	-5e-05	-3e-05	-6e-05	-0.00029	-0.00012	0.00016	6
30856	0	-3e-05	-9e-05	2e-05	0.00013	2e-05	-4e-05	9e-05	6
30857	-3e-05	-1e-05	-4e-05	-1e-05	-3e-05	-5e-05	1e-05	7e-05	6
30858	-3e-05	-1e-05	-4e-05	-1e-05	-3e-05	-5e-05	1e-05	7e-05	6
30859	-3e-05	-1e-05	-4e-05	-1e-05	-3e-05	-5e-05	1e-05	7e-05	6
30860	-3e-05	-1e-05	-4e-05	-1e-05	-3e-05	-5e-05	1e-05	7e-05	6
30861	-3e-05	-1e-05	-4e-05	-1e-05	-3e-05	-5e-05	1e-05	7e-05	6
30862	-3e-05	-1e-05	-4e-05	-1e-05	-3e-05	-5e-05	1e-05	7e-05	6
30863	-3e-05	-1e-05	-4e-05	-1e-05	-3e-05	-5e-05	1e-05	7e-05	6
30864	-3e-05	-1e-05	-4e-05	-1e-05	-3e-05	-5e-05	1e-05	7e-05	6
30865	-3e-05	-1e-05	-4e-05	-1e-05	-3e-05	-5e-05	1e-05	7e-05	6
30866	-3e-05	-1e-05	-4e-05	-1e-05	-3e-05	-5e-05	1e-05	7e-05	6
30867	-3e-05	-1e-05	-4e-05	-1e-05	-3e-05	-5e-05	1e-05	7e-05	6
30868	-3e-05	-1e-05	-4e-05	-1e-05	-3e-05	-5e-05	1e-05	7e-05	6
30869	0.00017	8e-05	4e-05	-5e-05	-0.00035	-0.00035	-2e-05	1e-05	6
30870	0.00017	8e-05	4e-05	-5e-05	-0.00035	-0.00035	-2e-05	1e-05	6
30871	0.00017	8e-05	4e-05	-5e-05	-0.00035	-0.00035	-2e-05	1e-05	6
30872	0.00017	8e-05	4e-05	-5e-05	-0.00035	-0.00035	-2e-05	1e-05	6
30873	0.00017	8e-05	4e-05	-5e-05	-0.00035	-0.00035	-2e-05	1e-05	6
30874	0.00017	8e-05	4e-05	-5e-05	-0.00035	-0.00035	-2e-05	1e-05	6
30875	0.00017	8e-05	4e-05	-5e-05	-0.00035	-0.00035	-2e-05	1e-05	6
30876	0.00017	8e-05	4e-05	-5e-05	-0.00035	-0.00035	-2e-05	1e-05	6
30877	0.00017	8e-05	4e-05	-5e-05	-0.00035	-0.00035	-2e-05	1e-05	6
30878	6e-05	0	8e-05	3e-05	-0.00024	-0.00014	4e-05	6e-05	6
30879	6e-05	0	8e-05	3e-05	-0.00024	-0.00014	4e-05	6e-05	6
30880	6e-05	0	8e-05	3e-05	-0.00024	-0.00014	4e-05	6e-05	6
30881	6e-05	0	8e-05	3e-05	-0.00024	-0.00014	4e-05	6e-05	6
30882	6e-05	0	8e-05	3e-05	-0.00024	-0.00014	4e-05	6e-05	6
30883	6e-05	0	8e-05	3e-05	-0.00024	-0.00014	4e-05	6e-05	6
30884	6e-05	0	8e-05	3e-05	-0.00024	-0.00014	4e-05	6e-05	6
30885	6e-05	0	8e-05	3e-05	-0.00024	-0.00014	4e-05	6e-05	6
30886	6e-05	0	8e-05	3e-05	-0.00024	-0.00014	4e-05	6e-05	6
30888	6e-05	0	8e-05	3e-05	-0.00024	-0.00014	4e-05	6e-05	6
30889	6e-05	0	8e-05	3e-05	-0.00024	-0.00014	4e-05	6e-05	6
30890	6e-05	0	8e-05	3e-05	-0.00024	-0.00014	4e-05	6e-05	6
30891	6e-05	0	8e-05	3e-05	-0.00024	-0.00014	4e-05	6e-05	6
30892	6e-05	0	8e-05	3e-05	-0.00024	-0.00014	4e-05	6e-05	6
30893	6e-05	0	8e-05	3e-05	-0.00024	-0.00014	4e-05	6e-05	6
30894	-4e-05	6e-05	5e-05	-2e-05	0	-1e-05	1e-05	-0.00036	6
30895	-4e-05	6e-05	5e-05	-2e-05	0	-1e-05	1e-05	-0.00036	6
30896	-4e-05	6e-05	5e-05	-2e-05	0	-1e-05	1e-05	-0.00036	6
30897	-4e-05	6e-05	5e-05	-2e-05	0	-1e-05	1e-05	-0.00036	6
30898	-4e-05	6e-05	5e-05	-2e-05	0	-1e-05	1e-05	-0.00036	6
30899	-4e-05	6e-05	5e-05	-2e-05	0	-1e-05	1e-05	-0.00036	6
30900	-4e-05	6e-05	5e-05	-2e-05	0	-1e-05	1e-05	-0.00036	6
30901	-4e-05	6e-05	5e-05	-2e-05	0	-1e-05	1e-05	-0.00036	6
30902	-4e-05	6e-05	5e-05	-2e-05	0	-1e-05	1e-05	-0.00036	6
30903	-4e-05	6e-05	5e-05	-2e-05	0	-1e-05	1e-05	-0.00036	6
30904	-4e-05	6e-05	5e-05	-2e-05	0	-1e-05	1e-05	-0.00036	6
30905	-4e-05	6e-05	5e-05	-2e-05	0	-1e-05	1e-05	-0.00036	6
30906	-4e-05	6e-05	5e-05	-2e-05	0	-1e-05	1e-05	-0.00036	6
30907	-4e-05	6e-05	5e-05	-2e-05	0	-1e-05	1e-05	-0.00036	6
30908	-4e-05	6e-05	5e-05	-2e-05	0	-1e-05	1e-05	-0.00036	6
30909	-4e-05	6e-05	5e-05	-2e-05	0	-1e-05	1e-05	-0.00036	6
30910	-4e-05	6e-05	5e-05	-2e-05	0	-1e-05	1e-05	-0.00036	6
30911	-4e-05	6e-05	5e-05	-2e-05	0	-1e-05	1e-05	-0.00036	6
30912	-4e-05	6e-05	5e-05	-2e-05	0	-1e-05	1e-05	-0.00036	6
30913	-4e-05	6e-05	5e-05	-2e-05	0	-1e-05	1e-05	-0.00036	6
30914	-4e-05	6e-05	5e-05	-2e-05	0	-1e-05	1e-05	-0.00036	6
30915	-4e-05	6e-05	5e-05	-2e-05	0	-1e-05	1e-05	-0.00036	6
30916	0	8e-05	4e-05	1e-05	0.00022	0.00019	7e-05	0.00016	6
30917	0	8e-05	4e-05	1e-05	0.00022	0.00019	7e-05	0.00016	6
30918	0	8e-05	4e-05	1e-05	0.00022	0.00019	7e-05	0.00016	6
30919	0	8e-05	4e-05	1e-05	0.00022	0.00019	7e-05	0.00016	6
30920	0	8e-05	4e-05	1e-05	0.00022	0.00019	7e-05	0.00016	6
30921	0	8e-05	4e-05	1e-05	0.00022	0.00019	7e-05	0.00016	6
30922	0	8e-05	4e-05	1e-05	0.00022	0.00019	7e-05	0.00016	6
30923	0	8e-05	4e-05	1e-05	0.00022	0.00019	7e-05	0.00016	6
30924	0	8e-05	4e-05	1e-05	0.00022	0.00019	7e-05	0.00016	6
30925	0	8e-05	4e-05	1e-05	0.00022	0.00019	7e-05	0.00016	6
30926	0	8e-05	4e-05	1e-05	0.00022	0.00019	7e-05	0.00016	6
30927	0	8e-05	4e-05	1e-05	0.00022	0.00019	7e-05	0.00016	6
30928	0	8e-05	4e-05	1e-05	0.00022	0.00019	7e-05	0.00016	6
30929	0	8e-05	4e-05	1e-05	0.00022	0.00019	7e-05	0.00016	6
30930	0	8e-05	4e-05	1e-05	0.00022	0.00019	7e-05	0.00016	6
30931	0	8e-05	4e-05	1e-05	0.00022	0.00019	7e-05	0.00016	6
30932	0	8e-05	4e-05	1e-05	0.00022	0.00019	7e-05	0.00016	6
30933	0	8e-05	4e-05	1e-05	0.00022	0.00019	7e-05	0.00016	6
30934	0	8e-05	4e-05	1e-05	0.00022	0.00019	7e-05	0.00016	6
30935	0	8e-05	4e-05	1e-05	0.00022	0.00019	7e-05	0.00016	6
30936	0	8e-05	4e-05	1e-05	0.00022	0.00019	7e-05	0.00016	6
30938	0	8e-05	4e-05	1e-05	0.00022	0.00019	7e-05	0.00016	6
30939	-2e-05	0	0	-4e-05	-0.0001	-0.00029	-0.00013	-0.0001	6
30940	-6e-05	-7e-05	-4e-05	-4e-05	4e-05	0.00037	6e-05	0.00017	6
30942	-6e-05	-7e-05	-4e-05	-4e-05	4e-05	0.00037	6e-05	0.00017	6
30943	-6e-05	-7e-05	-4e-05	-4e-05	4e-05	0.00037	6e-05	0.00017	6
30944	-6e-05	-7e-05	-4e-05	-4e-05	4e-05	0.00037	6e-05	0.00017	6
30945	-6e-05	-7e-05	-4e-05	-4e-05	4e-05	0.00037	6e-05	0.00017	6
30946	-6e-05	-7e-05	-4e-05	-4e-05	4e-05	0.00037	6e-05	0.00017	6
30947	-6e-05	-7e-05	-4e-05	-4e-05	4e-05	0.00037	6e-05	0.00017	6
30948	-6e-05	-7e-05	-4e-05	-4e-05	4e-05	0.00037	6e-05	0.00017	6
30949	-6e-05	-7e-05	-4e-05	-4e-05	4e-05	0.00037	6e-05	0.00017	6
30950	-6e-05	-7e-05	-4e-05	-4e-05	4e-05	0.00037	6e-05	0.00017	6
30951	-6e-05	-7e-05	-4e-05	-4e-05	4e-05	0.00037	6e-05	0.00017	6
30952	-6e-05	-7e-05	-4e-05	-4e-05	4e-05	0.00037	6e-05	0.00017	6
30953	-1e-05	3e-05	-0.00011	-2e-05	0.00015	2e-05	-0.00013	-0.00018	6
30954	3e-05	1e-05	-1e-05	-5e-05	-0.00014	0.00023	-8e-05	0.00017	6
30955	3e-05	1e-05	-1e-05	-5e-05	-0.00014	0.00023	-8e-05	0.00017	6
30956	3e-05	1e-05	-1e-05	-5e-05	-0.00014	0.00023	-8e-05	0.00017	6
30957	3e-05	1e-05	-1e-05	-5e-05	-0.00014	0.00023	-8e-05	0.00017	6
30958	3e-05	1e-05	-1e-05	-5e-05	-0.00014	0.00023	-8e-05	0.00017	6
30959	3e-05	1e-05	-1e-05	-5e-05	-0.00014	0.00023	-8e-05	0.00017	6
30960	3e-05	1e-05	-1e-05	-5e-05	-0.00014	0.00023	-8e-05	0.00017	6
30961	3e-05	1e-05	-1e-05	-5e-05	-0.00014	0.00023	-8e-05	0.00017	6
30962	3e-05	1e-05	-1e-05	-5e-05	-0.00014	0.00023	-8e-05	0.00017	6
30963	3e-05	1e-05	-1e-05	-5e-05	-0.00014	0.00023	-8e-05	0.00017	6
30964	3e-05	1e-05	-1e-05	-5e-05	-0.00014	0.00023	-8e-05	0.00017	6
30965	3e-05	1e-05	-1e-05	-5e-05	-0.00014	0.00023	-8e-05	0.00017	6
30966	3e-05	1e-05	-1e-05	-5e-05	-0.00014	0.00023	-8e-05	0.00017	6
30967	3e-05	1e-05	-1e-05	-5e-05	-0.00014	0.00023	-8e-05	0.00017	6
30968	3e-05	1e-05	-1e-05	-5e-05	-0.00014	0.00023	-8e-05	0.00017	6
30969	3e-05	1e-05	-1e-05	-5e-05	-0.00014	0.00023	-8e-05	0.00017	6
30970	3e-05	1e-05	-1e-05	-5e-05	-0.00014	0.00023	-8e-05	0.00017	6
30971	3e-05	1e-05	-1e-05	-5e-05	-0.00014	0.00023	-8e-05	0.00017	6
30972	3e-05	1e-05	-1e-05	-5e-05	-0.00014	0.00023	-8e-05	0.00017	6
30973	3e-05	1e-05	-1e-05	-5e-05	-0.00014	0.00023	-8e-05	0.00017	6
30974	3e-05	1e-05	-1e-05	-5e-05	-0.00014	0.00023	-8e-05	0.00017	6
30975	3e-05	1e-05	-1e-05	-5e-05	-0.00014	0.00023	-8e-05	0.00017	6
30976	-3e-05	-4e-05	4e-05	5e-05	-2e-05	0.00029	0.00011	-0.0004	6
30977	-2e-05	-2e-05	-2e-05	0	-0.0001	-0.00044	-0.00012	-1e-05	6
30978	-2e-05	-2e-05	-2e-05	0	-0.0001	-0.00044	-0.00012	-1e-05	6
30979	-2e-05	-2e-05	-2e-05	0	-0.0001	-0.00044	-0.00012	-1e-05	6
30980	-2e-05	-2e-05	-2e-05	0	-0.0001	-0.00044	-0.00012	-1e-05	6
30981	-2e-05	-2e-05	-2e-05	0	-0.0001	-0.00044	-0.00012	-1e-05	6
30982	-2e-05	-2e-05	-2e-05	0	-0.0001	-0.00044	-0.00012	-1e-05	6
30983	-2e-05	-2e-05	-2e-05	0	-0.0001	-0.00044	-0.00012	-1e-05	6
30984	-2e-05	-2e-05	-2e-05	0	-0.0001	-0.00044	-0.00012	-1e-05	6
30985	-2e-05	-2e-05	-2e-05	0	-0.0001	-0.00044	-0.00012	-1e-05	6
30986	-2e-05	-2e-05	-2e-05	0	-0.0001	-0.00044	-0.00012	-1e-05	6
30988	-2e-05	-2e-05	-2e-05	0	-0.0001	-0.00044	-0.00012	-1e-05	6
30989	6e-05	6e-05	3e-05	-4e-05	-2e-05	0.0001	0	0.00012	6
30991	6e-05	6e-05	3e-05	-4e-05	-2e-05	0.0001	0	0.00012	6
30992	6e-05	6e-05	3e-05	-4e-05	-2e-05	0.0001	0	0.00012	6
30993	6e-05	6e-05	3e-05	-4e-05	-2e-05	0.0001	0	0.00012	6
30994	6e-05	6e-05	3e-05	-4e-05	-2e-05	0.0001	0	0.00012	6
30995	6e-05	6e-05	3e-05	-4e-05	-2e-05	0.0001	0	0.00012	6
30996	6e-05	6e-05	3e-05	-4e-05	-2e-05	0.0001	0	0.00012	6
30997	6e-05	6e-05	3e-05	-4e-05	-2e-05	0.0001	0	0.00012	6
30998	-1e-05	-1e-05	0	-2e-05	-0.00014	0.0003	-2e-05	-0.00022	6
30999	-1e-05	-1e-05	0	-2e-05	-0.00014	0.0003	-2e-05	-0.00022	6
31000	-1e-05	-1e-05	0	-2e-05	-0.00014	0.0003	-2e-05	-0.00022	6
31001	-1e-05	-1e-05	0	-2e-05	-0.00014	0.0003	-2e-05	-0.00022	6
31002	-1e-05	-1e-05	0	-2e-05	-0.00014	0.0003	-2e-05	-0.00022	6
31003	-1e-05	-1e-05	0	-2e-05	-0.00014	0.0003	-2e-05	-0.00022	6
31004	-1e-05	-1e-05	0	-2e-05	-0.00014	0.0003	-2e-05	-0.00022	6
31005	-1e-05	-1e-05	0	-2e-05	-0.00014	0.0003	-2e-05	-0.00022	6
31006	-1e-05	-1e-05	0	-2e-05	-0.00014	0.0003	-2e-05	-0.00022	6
31007	-1e-05	-1e-05	0	-2e-05	-0.00014	0.0003	-2e-05	-0.00022	6
31008	-1e-05	-1e-05	0	-2e-05	-0.00014	0.0003	-2e-05	-0.00022	6
31009	-1e-05	-1e-05	0	-2e-05	-0.00014	0.0003	-2e-05	-0.00022	6
31010	-1e-05	-1e-05	0	-2e-05	-0.00014	0.0003	-2e-05	-0.00022	6
31011	-1e-05	-1e-05	0	-2e-05	-0.00014	0.0003	-2e-05	-0.00022	6
31012	-1e-05	-1e-05	0	-2e-05	-0.00014	0.0003	-2e-05	-0.00022	6
31013	5e-05	-1e-05	-3e-05	-4e-05	-2e-05	-6e-05	6e-05	0.00024	6
62671	7e-05	1e-05	2e-05	5e-05	0.00068	-0.00057	4e-05	-0.00016	6
62672	7e-05	1e-05	2e-05	5e-05	0.00068	-0.00057	4e-05	-0.00016	6
62673	7e-05	1e-05	2e-05	5e-05	0.00068	-0.00057	4e-05	-0.00016	6
62674	7e-05	1e-05	2e-05	5e-05	0.00068	-0.00057	4e-05	-0.00016	6
62675	7e-05	1e-05	2e-05	5e-05	0.00068	-0.00057	4e-05	-0.00016	6
62676	7e-05	1e-05	2e-05	5e-05	0.00068	-0.00057	4e-05	-0.00016	6
62677	7e-05	1e-05	2e-05	5e-05	0.00068	-0.00057	4e-05	-0.00016	6
62678	7e-05	1e-05	2e-05	5e-05	0.00068	-0.00057	4e-05	-0.00016	6
62679	5e-05	3e-05	5e-05	-3e-05	-0.00038	-1e-05	-3e-05	0.00019	6
62680	-0.00012	-2e-05	-3e-05	-2e-05	0.00026	0.00032	-1e-05	-6e-05	6
62681	-3e-05	-5e-05	-4e-05	-4e-05	-0.00025	0.00018	2e-05	-0.00026	6
62682	-3e-05	-5e-05	-4e-05	-4e-05	-0.00025	0.00018	2e-05	-0.00026	6
62683	-3e-05	-5e-05	-4e-05	-4e-05	-0.00025	0.00018	2e-05	-0.00026	6
62684	-3e-05	-5e-05	-4e-05	-4e-05	-0.00025	0.00018	2e-05	-0.00026	6
62685	-3e-05	-5e-05	-4e-05	-4e-05	-0.00025	0.00018	2e-05	-0.00026	6
62686	-3e-05	-5e-05	-4e-05	-4e-05	-0.00025	0.00018	2e-05	-0.00026	6
62689	-3e-05	-5e-05	-4e-05	-4e-05	-0.00025	0.00018	2e-05	-0.00026	6
62690	-3e-05	-5e-05	-4e-05	-4e-05	-0.00025	0.00018	2e-05	-0.00026	6
62691	-3e-05	-5e-05	-4e-05	-4e-05	-0.00025	0.00018	2e-05	-0.00026	6
62692	-3e-05	-5e-05	-4e-05	-4e-05	-0.00025	0.00018	2e-05	-0.00026	6
62693	-3e-05	-5e-05	-4e-05	-4e-05	-0.00025	0.00018	2e-05	-0.00026	6
62694	-3e-05	-5e-05	-4e-05	-4e-05	-0.00025	0.00018	2e-05	-0.00026	6
62695	-3e-05	-5e-05	-4e-05	-4e-05	-0.00025	0.00018	2e-05	-0.00026	6
62696	-3e-05	-5e-05	-4e-05	-4e-05	-0.00025	0.00018	2e-05	-0.00026	6
62697	-3e-05	-5e-05	-4e-05	-4e-05	-0.00025	0.00018	2e-05	-0.00026	6
62698	-3e-05	-5e-05	-4e-05	-4e-05	-0.00025	0.00018	2e-05	-0.00026	6
62699	-3e-05	-5e-05	-4e-05	-4e-05	-0.00025	0.00018	2e-05	-0.00026	6
62700	-3e-05	-5e-05	-4e-05	-4e-05	-0.00025	0.00018	2e-05	-0.00026	6
62701	-3e-05	4e-05	2e-05	-2e-05	0.00031	-0.00034	-0.00022	1e-05	6
62702	0	1e-05	5e-05	2e-05	0.00013	1e-05	2e-05	2e-05	6
62703	0.0002	3e-05	5e-05	6e-05	-9e-05	-0.00023	-0.00014	-6e-05	6
62704	0.0002	3e-05	5e-05	6e-05	-9e-05	-0.00023	-0.00014	-6e-05	6
62705	0.0002	3e-05	5e-05	6e-05	-9e-05	-0.00023	-0.00014	-6e-05	6
62706	0.0002	3e-05	5e-05	6e-05	-9e-05	-0.00023	-0.00014	-6e-05	6
62707	0.0002	3e-05	5e-05	6e-05	-9e-05	-0.00023	-0.00014	-6e-05	6
62708	0.0002	3e-05	5e-05	6e-05	-9e-05	-0.00023	-0.00014	-6e-05	6
62709	0.0002	3e-05	5e-05	6e-05	-9e-05	-0.00023	-0.00014	-6e-05	6
