21047	-3e-05	5e-05	0.00018	0.00061	0.00041	1e-05	1e-05	-1e-05	5
21048	-3e-05	5e-05	0.00018	0.00061	0.00041	1e-05	1e-05	-1e-05	5
21049	-3e-05	5e-05	0.00018	0.00061	0.00041	1e-05	1e-05	-1e-05	5
21050	-3e-05	5e-05	0.00018	0.00061	0.00041	1e-05	1e-05	-1e-05	5
21051	-3e-05	5e-05	0.00018	0.00061	0.00041	1e-05	1e-05	-1e-05	5
21052	-3e-05	5e-05	0.00018	0.00061	0.00041	1e-05	1e-05	-1e-05	5
21053	-3e-05	5e-05	0.00018	0.00061	0.00041	1e-05	1e-05	-1e-05	5
21054	-3e-05	5e-05	0.00018	0.00061	0.00041	1e-05	1e-05	-1e-05	5
21055	-3e-05	5e-05	0.00018	0.00061	0.00041	1e-05	1e-05	-1e-05	5
21056	-3e-05	5e-05	0.00018	0.00061	0.00041	1e-05	1e-05	-1e-05	5
21057	-3e-05	5e-05	0.00018	0.00061	0.00041	1e-05	1e-05	-1e-05	5
21058	-3e-05	5e-05	0.00018	0.00061	0.00041	1e-05	1e-05	-1e-05	5
21059	-3e-05	5e-05	0.00018	0.00061	0.00041	1e-05	1e-05	-1e-05	5
21060	-3e-05	5e-05	0.00018	0.00061	0.00041	1e-05	1e-05	-1e-05	5
21061	-3e-05	5e-05	0.00018	0.00061	0.00041	1e-05	1e-05	-1e-05	5
21062	-3e-05	5e-05	0.00018	0.00061	0.00041	1e-05	1e-05	-1e-05	5
21063	-3e-05	5e-05	0.00018	0.00061	0.00041	1e-05	1e-05	-1e-05	5
21064	-3e-05	5e-05	0.00018	0.00061	0.00041	1e-05	1e-05	-1e-05	5
21065	-3e-05	5e-05	0.00018	0.00061	0.00041	1e-05	1e-05	-1e-05	5
21066	0.00016	0.00022	0.00021	0.00022	0.00011	0.00024	0.00013	5e-05	5
21067	0	-3e-05	4e-05	0.00037	0.00034	0.00011	5e-05	3e-05	5
21068	0	-3e-05	4e-05	0.00037	0.00034	0.00011	5e-05	3e-05	5
21069	0	-3e-05	4e-05	0.00037	0.00034	0.00011	5e-05	3e-05	5
21070	0	-3e-05	4e-05	0.00037	0.00034	0.00011	5e-05	3e-05	5
21071	0	-3e-05	4e-05	0.00037	0.00034	0.00011	5e-05	3e-05	5
21072	0	-3e-05	4e-05	0.00037	0.00034	0.00011	5e-05	3e-05	5
21073	0	-3e-05	4e-05	0.00037	0.00034	0.00011	5e-05	3e-05	5
21074	0	-3e-05	4e-05	0.00037	0.00034	0.00011	5e-05	3e-05	5
21075	0	-3e-05	4e-05	0.00037	0.00034	0.00011	5e-05	3e-05	5
21076	0	-3e-05	4e-05	0.00037	0.00034	0.00011	5e-05	3e-05	5
21077	0	-3e-05	4e-05	0.00037	0.00034	0.00011	5e-05	3e-05	5
21078	0	-3e-05	4e-05	0.00037	0.00034	0.00011	5e-05	3e-05	5
21079	0	-3e-05	4e-05	0.00037	0.00034	0.00011	5e-05	3e-05	5
21080	0	-3e-05	4e-05	0.00037	0.00034	0.00011	5e-05	3e-05	5
21081	0	-3e-05	4e-05	0.00037	0.00034	0.00011	5e-05	3e-05	5
21082	0	-3e-05	4e-05	0.00037	0.00034	0.00011	5e-05	3e-05	5
21083	0	-3e-05	4e-05	0.00037	0.00034	0.00011	5e-05	3e-05	5
21084	0	-3e-05	4e-05	0.00037	0.00034	0.00011	5e-05	3e-05	5
21085	0	-3e-05	4e-05	0.00037	0.00034	0.00011	5e-05	3e-05	5
21086	0	-3e-05	4e-05	0.00037	0.00034	0.00011	5e-05	3e-05	5
21088	0	-3e-05	4e-05	0.00037	0.00034	0.00011	5e-05	3e-05	5
21089	-0.00011	-0.00018	-0.00018	-1e-05	0.00044	1e-05	-7e-05	-5e-05	5
21090	0.00011	0.00018	0.00015	0.00041	0.00046	0.00015	6e-05	3e-05	5
21091	0.00011	0.00018	0.00015	0.00041	0.00046	0.00015	6e-05	3e-05	5
21092	0.00011	0.00018	0.00015	0.00041	0.00046	0.00015	6e-05	3e-05	5
21093	0.00011	0.00018	0.00015	0.00041	0.00046	0.00015	6e-05	3e-05	5
21094	0.00011	0.00018	0.00015	0.00041	0.00046	0.00015	6e-05	3e-05	5
21095	0.00011	0.00018	0.00015	0.00041	0.00046	0.00015	6e-05	3e-05	5
21096	0.00011	0.00018	0.00015	0.00041	0.00046	0.00015	6e-05	3e-05	5
21097	0.00011	0.00018	0.00015	0.00041	0.00046	0.00015	6e-05	3e-05	5
21098	0.00011	0.00018	0.00015	0.00041	0.00046	0.00015	6e-05	3e-05	5
21099	0.00011	0.00018	0.00015	0.00041	0.00046	0.00015	6e-05	3e-05	5
21100	0.00011	0.00018	0.00015	0.00041	0.00046	0.00015	6e-05	3e-05	5
21101	0.00011	0.00018	0.00015	0.00041	0.00046	0.00015	6e-05	3e-05	5
21102	0.00011	0.00018	0.00015	0.00041	0.00046	0.00015	6e-05	3e-05	5
21103	-9e-05	-0.00016	-0.00034	-0.00104	-0.00022	-0.00011	-7e-05	-6e-05	5
21104	-6e-05	0	-7e-05	-0.00032	-0.00025	-9e-05	-3e-05	-3e-05	5
21105	-6e-05	0	-7e-05	-0.00032	-0.00025	-9e-05	-3e-05	-3e-05	5
21106	-6e-05	0	-7e-05	-0.00032	-0.00025	-9e-05	-3e-05	-3e-05	5
21107	-6e-05	0	-7e-05	-0.00032	-0.00025	-9e-05	-3e-05	-3e-05	5
21108	-6e-05	0	-7e-05	-0.00032	-0.00025	-9e-05	-3e-05	-3e-05	5
21109	-6e-05	0	-7e-05	-0.00032	-0.00025	-9e-05	-3e-05	-3e-05	5
21110	-6e-05	0	-7e-05	-0.00032	-0.00025	-9e-05	-3e-05	-3e-05	5
21111	-6e-05	0	-7e-05	-0.00032	-0.00025	-9e-05	-3e-05	-3e-05	5
21112	-6e-05	0	-7e-05	-0.00032	-0.00025	-9e-05	-3e-05	-3e-05	5
21113	-6e-05	0	-7e-05	-0.00032	-0.00025	-9e-05	-3e-05	-3e-05	5
21114	-6e-05	0	-7e-05	-0.00032	-0.00025	-9e-05	-3e-05	-3e-05	5
21115	-6e-05	0	-7e-05	-0.00032	-0.00025	-9e-05	-3e-05	-3e-05	5
21116	-6e-05	0	-7e-05	-0.00032	-0.00025	-9e-05	-3e-05	-3e-05	5
21117	-6e-05	0	-7e-05	-0.00032	-0.00025	-9e-05	-3e-05	-3e-05	5
21118	-6e-05	0	-7e-05	-0.00032	-0.00025	-9e-05	-3e-05	-3e-05	5
21119	-6e-05	0	-7e-05	-0.00032	-0.00025	-9e-05	-3e-05	-3e-05	5
21120	-6e-05	0	-7e-05	-0.00032	-0.00025	-9e-05	-3e-05	-3e-05	5
21121	-6e-05	0	-7e-05	-0.00032	-0.00025	-9e-05	-3e-05	-3e-05	5
21122	-6e-05	0	-7e-05	-0.00032	-0.00025	-9e-05	-3e-05	-3e-05	5
21123	-6e-05	0	-7e-05	-0.00032	-0.00025	-9e-05	-3e-05	-3e-05	5
21124	-6e-05	0	-7e-05	-0.00032	-0.00025	-9e-05	-3e-05	-3e-05	5
21125	-6e-05	0	-7e-05	-0.00032	-0.00025	-9e-05	-3e-05	-3e-05	5
21126	-6e-05	0	-7e-05	-0.00032	-0.00025	-9e-05	-3e-05	-3e-05	5
21127	-6e-05	0	-7e-05	-0.00032	-0.00025	-9e-05	-3e-05	-3e-05	5
21128	-6e-05	0	-7e-05	-0.00032	-0.00025	-9e-05	-3e-05	-3e-05	5
21129	-6e-05	0	-7e-05	-0.00032	-0.00025	-9e-05	-3e-05	-3e-05	5
21130	-6e-05	0	-7e-05	-0.00032	-0.00025	-9e-05	-3e-05	-3e-05	5
21131	-6e-05	0	-7e-05	-0.00032	-0.00025	-9e-05	-3e-05	-3e-05	5
21132	-6e-05	0	-7e-05	-0.00032	-0.00025	-9e-05	-3e-05	-3e-05	5
21133	-6e-05	0	-7e-05	-0.00032	-0.00025	-9e-05	-3e-05	-3e-05	5
21134	-4e-05	-8e-05	-9e-05	-0.00049	-0.00044	-0.00011	-2e-05	-1e-05	5
21135	-4e-05	-8e-05	-9e-05	-0.00049	-0.00044	-0.00011	-2e-05	-1e-05	5
21136	-4e-05	-8e-05	-9e-05	-0.00049	-0.00044	-0.00011	-2e-05	-1e-05	5
21138	-4e-05	-8e-05	-9e-05	-0.00049	-0.00044	-0.00011	-2e-05	-1e-05	5
21139	-4e-05	-8e-05	-9e-05	-0.00049	-0.00044	-0.00011	-2e-05	-1e-05	5
21140	-4e-05	-8e-05	-9e-05	-0.00049	-0.00044	-0.00011	-2e-05	-1e-05	5
21141	-4e-05	-8e-05	-9e-05	-0.00049	-0.00044	-0.00011	-2e-05	-1e-05	5
21142	-3e-05	-4e-05	9e-05	0.00103	0.00089	0	1e-05	-2e-05	5
21143	6e-05	5e-05	-6e-05	0.00018	-0.00017	-2e-05	-1e-05	2e-05	5
21145	6e-05	5e-05	-6e-05	0.00018	-0.00017	-2e-05	-1e-05	2e-05	5
21146	6e-05	5e-05	-6e-05	0.00018	-0.00017	-2e-05	-1e-05	2e-05	5
21147	6e-05	5e-05	-6e-05	0.00018	-0.00017	-2e-05	-1e-05	2e-05	5
21148	6e-05	5e-05	-6e-05	0.00018	-0.00017	-2e-05	-1e-05	2e-05	5
21149	6e-05	5e-05	-6e-05	0.00018	-0.00017	-2e-05	-1e-05	2e-05	5
21150	6e-05	5e-05	-6e-05	0.00018	-0.00017	-2e-05	-1e-05	2e-05	5
21151	6e-05	5e-05	-6e-05	0.00018	-0.00017	-2e-05	-1e-05	2e-05	5
21152	6e-05	5e-05	-6e-05	0.00018	-0.00017	-2e-05	-1e-05	2e-05	5
21153	6e-05	5e-05	-6e-05	0.00018	-0.00017	-2e-05	-1e-05	2e-05	5
21154	6e-05	5e-05	-6e-05	0.00018	-0.00017	-2e-05	-1e-05	2e-05	5
21155	6e-05	5e-05	-6e-05	0.00018	-0.00017	-2e-05	-1e-05	2e-05	5
21156	6e-05	5e-05	-6e-05	0.00018	-0.00017	-2e-05	-1e-05	2e-05	5
21157	6e-05	5e-05	-6e-05	0.00018	-0.00017	-2e-05	-1e-05	2e-05	5
21158	6e-05	5e-05	-6e-05	0.00018	-0.00017	-2e-05	-1e-05	2e-05	5
21159	6e-05	5e-05	-6e-05	0.00018	-0.00017	-2e-05	-1e-05	2e-05	5
21160	6e-05	5e-05	-6e-05	0.00018	-0.00017	-2e-05	-1e-05	2e-05	5
21161	6e-05	5e-05	-6e-05	0.00018	-0.00017	-2e-05	-1e-05	2e-05	5
21162	6e-05	5e-05	-6e-05	0.00018	-0.00017	-2e-05	-1e-05	2e-05	5
21163	6e-05	5e-05	-6e-05	0.00018	-0.00017	-2e-05	-1e-05	2e-05	5
21164	6e-05	5e-05	-6e-05	0.00018	-0.00017	-2e-05	-1e-05	2e-05	5
21165	6e-05	5e-05	-6e-05	0.00018	-0.00017	-2e-05	-1e-05	2e-05	5
21166	6e-05	5e-05	-6e-05	0.00018	-0.00017	-2e-05	-1e-05	2e-05	5
21167	6e-05	5e-05	-6e-05	0.00018	-0.00017	-2e-05	-1e-05	2e-05	5
21168	6e-05	5e-05	-6e-05	0.00018	-0.00017	-2e-05	-1e-05	2e-05	5
21169	6e-05	5e-05	-6e-05	0.00018	-0.00017	-2e-05	-1e-05	2e-05	5
21170	6e-05	5e-05	-6e-05	0.00018	-0.00017	-2e-05	-1e-05	2e-05	5
21171	-2e-05	-9e-05	-7e-05	-0.00037	-0.00044	-0.00011	-7e-05	-4e-05	5
21172	0	1e-05	-1e-05	0.00033	0.00064	7e-05	-2e-05	0	5
21173	0	1e-05	-1e-05	0.00033	0.00064	7e-05	-2e-05	0	5
21174	0	1e-05	-1e-05	0.00033	0.00064	7e-05	-2e-05	0	5
21175	0	1e-05	-1e-05	0.00033	0.00064	7e-05	-2e-05	0	5
21176	0	1e-05	-1e-05	0.00033	0.00064	7e-05	-2e-05	0	5
21177	0	1e-05	-1e-05	0.00033	0.00064	7e-05	-2e-05	0	5
21178	0	1e-05	-1e-05	0.00033	0.00064	7e-05	-2e-05	0	5
21179	0	1e-05	-1e-05	0.00033	0.00064	7e-05	-2e-05	0	5
21180	0	1e-05	-1e-05	0.00033	0.00064	7e-05	-2e-05	0	5
21181	0	1e-05	-1e-05	0.00033	0.00064	7e-05	-2e-05	0	5
21182	0	1e-05	-1e-05	0.00033	0.00064	7e-05	-2e-05	0	5
21183	0	1e-05	-1e-05	0.00033	0.00064	7e-05	-2e-05	0	5
21184	0	1e-05	-1e-05	0.00033	0.00064	7e-05	-2e-05	0	5
21185	0	1e-05	-1e-05	0.00033	0.00064	7e-05	-2e-05	0	5
21186	-1e-05	5e-05	7e-05	0.0003	0.00025	6e-05	4e-05	-3e-05	5
21188	-2e-05	-5e-05	-5e-05	-0.00046	-0.00051	-9e-05	-2e-05	4e-05	5
21189	-2e-05	-5e-05	-5e-05	-0.00046	-0.00051	-9e-05	-2e-05	4e-05	5
21190	-2e-05	-5e-05	-5e-05	-0.00046	-0.00051	-9e-05	-2e-05	4e-05	5
21191	-2e-05	-5e-05	-5e-05	-0.00046	-0.00051	-9e-05	-2e-05	4e-05	5
21192	-2e-05	-5e-05	-5e-05	-0.00046	-0.00051	-9e-05	-2e-05	4e-05	5
21193	-2e-05	-5e-05	-5e-05	-0.00046	-0.00051	-9e-05	-2e-05	4e-05	5
21194	-2e-05	-5e-05	-5e-05	-0.00046	-0.00051	-9e-05	-2e-05	4e-05	5
21195	-2e-05	-5e-05	-5e-05	-0.00046	-0.00051	-9e-05	-2e-05	4e-05	5
21196	-2e-05	-5e-05	-5e-05	-0.00046	-0.00051	-9e-05	-2e-05	4e-05	5
21197	-2e-05	-5e-05	-5e-05	-0.00046	-0.00051	-9e-05	-2e-05	4e-05	5
21198	-2e-05	-5e-05	-5e-05	-0.00046	-0.00051	-9e-05	-2e-05	4e-05	5
21199	-2e-05	-5e-05	-5e-05	-0.00046	-0.00051	-9e-05	-2e-05	4e-05	5
21200	-2e-05	-5e-05	-5e-05	-0.00046	-0.00051	-9e-05	-2e-05	4e-05	5
21201	5e-05	3e-05	-4e-05	0.00023	0.00041	0	-1e-05	1e-05	5
21202	0	4e-05	0.0001	-4e-05	0.00018	-3e-05	2e-05	-1e-05	5
21203	0	4e-05	0.0001	-4e-05	0.00018	-3e-05	2e-05	-1e-05	5
21204	0	4e-05	0.0001	-4e-05	0.00018	-3e-05	2e-05	-1e-05	5
21205	0	4e-05	0.0001	-4e-05	0.00018	-3e-05	2e-05	-1e-05	5
21206	0	4e-05	0.0001	-4e-05	0.00018	-3e-05	2e-05	-1e-05	5
21207	0	4e-05	0.0001	-4e-05	0.00018	-3e-05	2e-05	-1e-05	5
21208	0	4e-05	0.0001	-4e-05	0.00018	-3e-05	2e-05	-1e-05	5
21209	0	4e-05	0.0001	-4e-05	0.00018	-3e-05	2e-05	-1e-05	5
21210	0	4e-05	0.0001	-4e-05	0.00018	-3e-05	2e-05	-1e-05	5
21211	0	4e-05	0.0001	-4e-05	0.00018	-3e-05	2e-05	-1e-05	5
21212	0	4e-05	0.0001	-4e-05	0.00018	-3e-05	2e-05	-1e-05	5
21213	0	4e-05	0.0001	-4e-05	0.00018	-3e-05	2e-05	-1e-05	5
21214	0	4e-05	0.0001	-4e-05	0.00018	-3e-05	2e-05	-1e-05	5
21215	0	4e-05	0.0001	-4e-05	0.00018	-3e-05	2e-05	-1e-05	5
21216	0	4e-05	0.0001	-4e-05	0.00018	-3e-05	2e-05	-1e-05	5
21217	0	4e-05	0.0001	-4e-05	0.00018	-3e-05	2e-05	-1e-05	5
21218	0	4e-05	0.0001	-4e-05	0.00018	-3e-05	2e-05	-1e-05	5
21219	0	4e-05	0.0001	-4e-05	0.00018	-3e-05	2e-05	-1e-05	5
21220	0	4e-05	0.0001	-4e-05	0.00018	-3e-05	2e-05	-1e-05	5
21221	0	4e-05	0.0001	-4e-05	0.00018	-3e-05	2e-05	-1e-05	5
21222	0	4e-05	0.0001	-4e-05	0.00018	-3e-05	2e-05	-1e-05	5
21223	-7e-05	-0.0002	-0.00018	-0.00021	-0.00032	-0.00014	-0.0001	-9e-05	5
21224	5e-05	8e-05	0.00018	0.00062	-0.00014	9e-05	6e-05	4e-05	5
21225	5e-05	8e-05	0.00018	0.00062	-0.00014	9e-05	6e-05	4e-05	5
21226	5e-05	8e-05	0.00018	0.00062	-0.00014	9e-05	6e-05	4e-05	5
21227	5e-05	8e-05	0.00018	0.00062	-0.00014	9e-05	6e-05	4e-05	5
21228	5e-05	8e-05	0.00018	0.00062	-0.00014	9e-05	6e-05	4e-05	5
21229	5e-05	8e-05	0.00018	0.00062	-0.00014	9e-05	6e-05	4e-05	5
21230	5e-05	8e-05	0.00018	0.00062	-0.00014	9e-05	6e-05	4e-05	5
21231	5e-05	8e-05	0.00018	0.00062	-0.00014	9e-05	6e-05	4e-05	5
21232	5e-05	8e-05	0.00018	0.00062	-0.00014	9e-05	6e-05	4e-05	5
21233	5e-05	8e-05	0.00018	0.00062	-0.00014	9e-05	6e-05	4e-05	5
21234	5e-05	8e-05	0.00018	0.00062	-0.00014	9e-05	6e-05	4e-05	5
21235	5e-05	8e-05	0.00018	0.00062	-0.00014	9e-05	6e-05	4e-05	5
21236	5e-05	8e-05	0.00018	0.00062	-0.00014	9e-05	6e-05	4e-05	5
21238	5e-05	8e-05	0.00018	0.00062	-0.00014	9e-05	6e-05	4e-05	5
21239	5e-05	8e-05	0.00018	0.00062	-0.00014	9e-05	6e-05	4e-05	5
21240	5e-05	8e-05	0.00018	0.00062	-0.00014	9e-05	6e-05	4e-05	5
21241	5e-05	8e-05	0.00018	0.00062	-0.00014	9e-05	6e-05	4e-05	5
21242	5e-05	8e-05	0.00018	0.00062	-0.00014	9e-05	6e-05	4e-05	5
21243	5e-05	8e-05	0.00018	0.00062	-0.00014	9e-05	6e-05	4e-05	5
21244	5e-05	8e-05	0.00018	0.00062	-0.00014	9e-05	6e-05	4e-05	5
21245	5e-05	8e-05	0.00018	0.00062	-0.00014	9e-05	6e-05	4e-05	5
21246	-0.0001	-8e-05	0	0.00037	6e-05	-0.00011	-0.00011	-6e-05	5
21247	1e-05	-4e-05	0	-0.00035	0.00023	0.00015	5e-05	0	5
21248	1e-05	-4e-05	0	-0.00035	0.00023	0.00015	5e-05	0	5
21249	1e-05	-4e-05	0	-0.00035	0.00023	0.00015	5e-05	0	5
21250	1e-05	-4e-05	0	-0.00035	0.00023	0.00015	5e-05	0	5
21251	1e-05	-4e-05	0	-0.00035	0.00023	0.00015	5e-05	0	5
21252	1e-05	-4e-05	0	-0.00035	0.00023	0.00015	5e-05	0	5
21253	1e-05	-4e-05	0	-0.00035	0.00023	0.00015	5e-05	0	5
21254	1e-05	-4e-05	0	-0.00035	0.00023	0.00015	5e-05	0	5
21255	1e-05	-4e-05	0	-0.00035	0.00023	0.00015	5e-05	0	5
21256	1e-05	-4e-05	0	-0.00035	0.00023	0.00015	5e-05	0	5
21257	1e-05	-4e-05	0	-0.00035	0.00023	0.00015	5e-05	0	5
21258	1e-05	-4e-05	0	-0.00035	0.00023	0.00015	5e-05	0	5
21259	1e-05	-4e-05	0	-0.00035	0.00023	0.00015	5e-05	0	5
21260	1e-05	-4e-05	0	-0.00035	0.00023	0.00015	5e-05	0	5
21261	4e-05	3e-05	-8e-05	0.00014	0.00038	0.0001	5e-05	-2e-05	5
21262	-0.00015	-0.00013	-0.00012	-0.00012	0.00019	-3e-05	-3e-05	-6e-05	5
21263	-0.00015	-0.00013	-0.00012	-0.00012	0.00019	-3e-05	-3e-05	-6e-05	5
21264	-0.00015	-0.00013	-0.00012	-0.00012	0.00019	-3e-05	-3e-05	-6e-05	5
21265	-0.00015	-0.00013	-0.00012	-0.00012	0.00019	-3e-05	-3e-05	-6e-05	5
21266	-0.00015	-0.00013	-0.00012	-0.00012	0.00019	-3e-05	-3e-05	-6e-05	5
21267	-0.00015	-0.00013	-0.00012	-0.00012	0.00019	-3e-05	-3e-05	-6e-05	5
21268	-0.00015	-0.00013	-0.00012	-0.00012	0.00019	-3e-05	-3e-05	-6e-05	5
21269	-0.00015	-0.00013	-0.00012	-0.00012	0.00019	-3e-05	-3e-05	-6e-05	5
21270	-0.00015	-0.00013	-0.00012	-0.00012	0.00019	-3e-05	-3e-05	-6e-05	5
21271	-0.00015	-0.00013	-0.00012	-0.00012	0.00019	-3e-05	-3e-05	-6e-05	5
21272	-0.00015	-0.00013	-0.00012	-0.00012	0.00019	-3e-05	-3e-05	-6e-05	5
21273	-0.00015	-0.00013	-0.00012	-0.00012	0.00019	-3e-05	-3e-05	-6e-05	5
21274	-0.00015	-0.00013	-0.00012	-0.00012	0.00019	-3e-05	-3e-05	-6e-05	5
21275	-0.00015	-0.00013	-0.00012	-0.00012	0.00019	-3e-05	-3e-05	-6e-05	5
21276	-0.00015	-0.00013	-0.00012	-0.00012	0.00019	-3e-05	-3e-05	-6e-05	5
21277	-0.00015	-0.00013	-0.00012	-0.00012	0.00019	-3e-05	-3e-05	-6e-05	5
21278	-0.00015	-0.00013	-0.00012	-0.00012	0.00019	-3e-05	-3e-05	-6e-05	5
21279	-0.00015	-0.00013	-0.00012	-0.00012	0.00019	-3e-05	-3e-05	-6e-05	5
21280	-0.00015	-0.00013	-0.00012	-0.00012	0.00019	-3e-05	-3e-05	-6e-05	5
21281	-0.00015	-0.00013	-0.00012	-0.00012	0.00019	-3e-05	-3e-05	-6e-05	5
21282	-0.00015	-0.00013	-0.00012	-0.00012	0.00019	-3e-05	-3e-05	-6e-05	5
21283	-0.00013	-0.0002	-0.0002	0	-5e-05	-0.00024	-0.00015	-9e-05	5
21284	4e-05	7e-05	0	-0.00025	0.00048	0.00011	4e-05	1e-05	5
21285	4e-05	7e-05	0	-0.00025	0.00048	0.00011	4e-05	1e-05	5
21286	4e-05	7e-05	0	-0.00025	0.00048	0.00011	4e-05	1e-05	5
21288	4e-05	7e-05	0	-0.00025	0.00048	0.00011	4e-05	1e-05	5
21289	4e-05	7e-05	0	-0.00025	0.00048	0.00011	4e-05	1e-05	5
21290	4e-05	7e-05	0	-0.00025	0.00048	0.00011	4e-05	1e-05	5
21291	4e-05	7e-05	0	-0.00025	0.00048	0.00011	4e-05	1e-05	5
21292	4e-05	7e-05	0	-0.00025	0.00048	0.00011	4e-05	1e-05	5
21293	4e-05	7e-05	0	-0.00025	0.00048	0.00011	4e-05	1e-05	5
21294	4e-05	7e-05	0	-0.00025	0.00048	0.00011	4e-05	1e-05	5
21295	4e-05	7e-05	0	-0.00025	0.00048	0.00011	4e-05	1e-05	5
21296	4e-05	7e-05	0	-0.00025	0.00048	0.00011	4e-05	1e-05	5
21297	4e-05	7e-05	0	-0.00025	0.00048	0.00011	4e-05	1e-05	5
21298	4e-05	7e-05	0	-0.00025	0.00048	0.00011	4e-05	1e-05	5
21299	4e-05	7e-05	0	-0.00025	0.00048	0.00011	4e-05	1e-05	5
21300	4e-05	7e-05	0	-0.00025	0.00048	0.00011	4e-05	1e-05	5
21301	4e-05	7e-05	0	-0.00025	0.00048	0.00011	4e-05	1e-05	5
21302	4e-05	7e-05	0	-0.00025	0.00048	0.00011	4e-05	1e-05	5
21303	4e-05	7e-05	0	-0.00025	0.00048	0.00011	4e-05	1e-05	5
21304	4e-05	7e-05	0	-0.00025	0.00048	0.00011	4e-05	1e-05	5
21305	4e-05	7e-05	0	-0.00025	0.00048	0.00011	4e-05	1e-05	5
21306	-4e-05	-6e-05	-0.0002	-0.00033	-0.00024	-2e-05	-1e-05	-3e-05	5
21307	2e-05	0	-4e-05	0.00014	-0.00047	-8e-05	-5e-05	0	5
21308	2e-05	0	-4e-05	0.00014	-0.00047	-8e-05	-5e-05	0	5
21309	2e-05	0	-4e-05	0.00014	-0.00047	-8e-05	-5e-05	0	5
21310	2e-05	0	-4e-05	0.00014	-0.00047	-8e-05	-5e-05	0	5
21311	2e-05	0	-4e-05	0.00014	-0.00047	-8e-05	-5e-05	0	5
21312	2e-05	0	-4e-05	0.00014	-0.00047	-8e-05	-5e-05	0	5
21313	2e-05	0	-4e-05	0.00014	-0.00047	-8e-05	-5e-05	0	5
21314	2e-05	0	-4e-05	0.00014	-0.00047	-8e-05	-5e-05	0	5
21315	2e-05	0	-4e-05	0.00014	-0.00047	-8e-05	-5e-05	0	5
21316	2e-05	0	-4e-05	0.00014	-0.00047	-8e-05	-5e-05	0	5
21317	2e-05	0	-4e-05	0.00014	-0.00047	-8e-05	-5e-05	0	5
21318	2e-05	0	-4e-05	0.00014	-0.00047	-8e-05	-5e-05	0	5
21319	2e-05	0	-4e-05	0.00014	-0.00047	-8e-05	-5e-05	0	5
21320	4e-05	3e-05	0.00012	-0.00057	0.00016	4e-05	1e-05	1e-05	5
21321	4e-05	3e-05	0.00012	-0.00057	0.00016	4e-05	1e-05	1e-05	5
21322	4e-05	3e-05	0.00012	-0.00057	0.00016	4e-05	1e-05	1e-05	5
21323	4e-05	3e-05	0.00012	-0.00057	0.00016	4e-05	1e-05	1e-05	5
21324	4e-05	3e-05	0.00012	-0.00057	0.00016	4e-05	1e-05	1e-05	5
21325	4e-05	3e-05	0.00012	-0.00057	0.00016	4e-05	1e-05	1e-05	5
21326	4e-05	3e-05	0.00012	-0.00057	0.00016	4e-05	1e-05	1e-05	5
21327	4e-05	3e-05	0.00012	-0.00057	0.00016	4e-05	1e-05	1e-05	5
21328	-3e-05	-8e-05	-0.00016	-0.00054	-0.00026	-9e-05	-5e-05	-4e-05	5
21329	-3e-05	-8e-05	-0.00016	-0.00054	-0.00026	-9e-05	-5e-05	-4e-05	5
21330	-3e-05	-8e-05	-0.00016	-0.00054	-0.00026	-9e-05	-5e-05	-4e-05	5
21331	-3e-05	-8e-05	-0.00016	-0.00054	-0.00026	-9e-05	-5e-05	-4e-05	5
21332	-3e-05	-8e-05	-0.00016	-0.00054	-0.00026	-9e-05	-5e-05	-4e-05	5
21333	-3e-05	-8e-05	-0.00016	-0.00054	-0.00026	-9e-05	-5e-05	-4e-05	5
21334	-3e-05	-8e-05	-0.00016	-0.00054	-0.00026	-9e-05	-5e-05	-4e-05	5
21335	-3e-05	-8e-05	-0.00016	-0.00054	-0.00026	-9e-05	-5e-05	-4e-05	5
21336	-3e-05	-8e-05	-0.00016	-0.00054	-0.00026	-9e-05	-5e-05	-4e-05	5
21338	-3e-05	-8e-05	-0.00016	-0.00054	-0.00026	-9e-05	-5e-05	-4e-05	5
21339	-3e-05	-8e-05	-0.00016	-0.00054	-0.00026	-9e-05	-5e-05	-4e-05	5
21340	-3e-05	-8e-05	-0.00016	-0.00054	-0.00026	-9e-05	-5e-05	-4e-05	5
21341	-3e-05	-8e-05	-0.00016	-0.00054	-0.00026	-9e-05	-5e-05	-4e-05	5
21342	-3e-05	-8e-05	-0.00016	-0.00054	-0.00026	-9e-05	-5e-05	-4e-05	5
21343	-1e-05	-2e-05	-5e-05	-0.00054	-0.00023	2e-05	1e-05	2e-05	5
21344	0.00011	0.00017	0.00031	0.0005	0.00025	6e-05	5e-05	7e-05	5
21345	0.00011	0.00017	0.00031	0.0005	0.00025	6e-05	5e-05	7e-05	5
21346	0.00011	0.00017	0.00031	0.0005	0.00025	6e-05	5e-05	7e-05	5
21347	0.00011	0.00017	0.00031	0.0005	0.00025	6e-05	5e-05	7e-05	5
21348	0.00011	0.00017	0.00031	0.0005	0.00025	6e-05	5e-05	7e-05	5
21349	0.00011	0.00017	0.00031	0.0005	0.00025	6e-05	5e-05	7e-05	5
21350	0.00011	0.00017	0.00031	0.0005	0.00025	6e-05	5e-05	7e-05	5
21351	0.00011	0.00017	0.00031	0.0005	0.00025	6e-05	5e-05	7e-05	5
21352	0.00011	0.00017	0.00031	0.0005	0.00025	6e-05	5e-05	7e-05	5
21353	0.00011	0.00017	0.00031	0.0005	0.00025	6e-05	5e-05	7e-05	5
21354	0.00011	0.00017	0.00031	0.0005	0.00025	6e-05	5e-05	7e-05	5
21355	0.00011	0.00017	0.00031	0.0005	0.00025	6e-05	5e-05	7e-05	5
21356	0.00011	0.00017	0.00031	0.0005	0.00025	6e-05	5e-05	7e-05	5
21357	0.00011	0.00017	0.00031	0.0005	0.00025	6e-05	5e-05	7e-05	5
21358	0.00011	0.00017	0.00031	0.0005	0.00025	6e-05	5e-05	7e-05	5
21359	0.00011	0.00017	0.00031	0.0005	0.00025	6e-05	5e-05	7e-05	5
21360	0.00011	0.00017	0.00031	0.0005	0.00025	6e-05	5e-05	7e-05	5
21361	0.00011	0.00017	0.00031	0.0005	0.00025	6e-05	5e-05	7e-05	5
21362	0.00011	0.00017	0.00031	0.0005	0.00025	6e-05	5e-05	7e-05	5
21363	0.00011	0.00017	0.00031	0.0005	0.00025	6e-05	5e-05	7e-05	5
21364	0.00011	0.00017	0.00031	0.0005	0.00025	6e-05	5e-05	7e-05	5
21365	0.00011	0.00017	0.00031	0.0005	0.00025	6e-05	5e-05	7e-05	5
21366	-2e-05	4e-05	0.00017	0.001	0.00054	0.00014	8e-05	4e-05	5
21367	4e-05	1e-05	2e-05	2e-05	0.00014	0.00015	4e-05	5e-05	5
21368	4e-05	1e-05	2e-05	2e-05	0.00014	0.00015	4e-05	5e-05	5
21369	4e-05	1e-05	2e-05	2e-05	0.00014	0.00015	4e-05	5e-05	5
21370	4e-05	1e-05	2e-05	2e-05	0.00014	0.00015	4e-05	5e-05	5
21371	4e-05	1e-05	2e-05	2e-05	0.00014	0.00015	4e-05	5e-05	5
21372	4e-05	1e-05	2e-05	2e-05	0.00014	0.00015	4e-05	5e-05	5
21373	4e-05	1e-05	2e-05	2e-05	0.00014	0.00015	4e-05	5e-05	5
21374	4e-05	1e-05	2e-05	2e-05	0.00014	0.00015	4e-05	5e-05	5
21375	4e-05	1e-05	2e-05	2e-05	0.00014	0.00015	4e-05	5e-05	5
21376	4e-05	1e-05	2e-05	2e-05	0.00014	0.00015	4e-05	5e-05	5
21377	4e-05	1e-05	2e-05	2e-05	0.00014	0.00015	4e-05	5e-05	5
21378	4e-05	1e-05	2e-05	2e-05	0.00014	0.00015	4e-05	5e-05	5
21379	4e-05	1e-05	2e-05	2e-05	0.00014	0.00015	4e-05	5e-05	5
21380	3e-05	0.00012	0.00017	0.00021	0	7e-05	6e-05	0	5
21381	3e-05	0.00012	0.00017	0.00021	0	7e-05	6e-05	0	5
21382	3e-05	0.00012	0.00017	0.00021	0	7e-05	6e-05	0	5
21383	3e-05	0.00012	0.00017	0.00021	0	7e-05	6e-05	0	5
21384	3e-05	0.00012	0.00017	0.00021	0	7e-05	6e-05	0	5
21385	3e-05	0.00012	0.00017	0.00021	0	7e-05	6e-05	0	5
21386	3e-05	0.00012	0.00017	0.00021	0	7e-05	6e-05	0	5
21388	-3e-05	-4e-05	-0.00015	-0.00019	-0.00018	1e-05	0	-2e-05	5
21389	-3e-05	-4e-05	-0.00015	-0.00019	-0.00018	1e-05	0	-2e-05	5
21390	-3e-05	-4e-05	-0.00015	-0.00019	-0.00018	1e-05	0	-2e-05	5
21391	-3e-05	-4e-05	-0.00015	-0.00019	-0.00018	1e-05	0	-2e-05	5
21392	-3e-05	-4e-05	-0.00015	-0.00019	-0.00018	1e-05	0	-2e-05	5
21393	-3e-05	-4e-05	-0.00015	-0.00019	-0.00018	1e-05	0	-2e-05	5
21394	-3e-05	-4e-05	-0.00015	-0.00019	-0.00018	1e-05	0	-2e-05	5
21395	-3e-05	-4e-05	-0.00015	-0.00019	-0.00018	1e-05	0	-2e-05	5
21396	-3e-05	-4e-05	-0.00015	-0.00019	-0.00018	1e-05	0	-2e-05	5
21397	-3e-05	-4e-05	-0.00015	-0.00019	-0.00018	1e-05	0	-2e-05	5
21398	-3e-05	-4e-05	-0.00015	-0.00019	-0.00018	1e-05	0	-2e-05	5
21399	-3e-05	-4e-05	-0.00015	-0.00019	-0.00018	1e-05	0	-2e-05	5
21400	-3e-05	-4e-05	-0.00015	-0.00019	-0.00018	1e-05	0	-2e-05	5
21401	-3e-05	-4e-05	-0.00015	-0.00019	-0.00018	1e-05	0	-2e-05	5
21402	-3e-05	-4e-05	-0.00015	-0.00019	-0.00018	1e-05	0	-2e-05	5
21403	7e-05	0.0001	0.00021	0.00103	0.00041	9e-05	5e-05	4e-05	5
21404	0	-3e-05	-2e-05	-1e-05	-0.0002	-0.00014	-3e-05	-3e-05	5
21405	0	-3e-05	-2e-05	-1e-05	-0.0002	-0.00014	-3e-05	-3e-05	5
21406	0	-3e-05	-2e-05	-1e-05	-0.0002	-0.00014	-3e-05	-3e-05	5
21407	0	-3e-05	-2e-05	-1e-05	-0.0002	-0.00014	-3e-05	-3e-05	5
21408	0	-3e-05	-2e-05	-1e-05	-0.0002	-0.00014	-3e-05	-3e-05	5
21409	0	-3e-05	-2e-05	-1e-05	-0.0002	-0.00014	-3e-05	-3e-05	5
21410	0	-3e-05	-2e-05	-1e-05	-0.0002	-0.00014	-3e-05	-3e-05	5
21411	0	-3e-05	-2e-05	-1e-05	-0.0002	-0.00014	-3e-05	-3e-05	5
21412	0	-3e-05	-2e-05	-1e-05	-0.0002	-0.00014	-3e-05	-3e-05	5
21413	0	-3e-05	-2e-05	-1e-05	-0.0002	-0.00014	-3e-05	-3e-05	5
21414	0	-3e-05	-2e-05	-1e-05	-0.0002	-0.00014	-3e-05	-3e-05	5
21415	0	-3e-05	-2e-05	-1e-05	-0.0002	-0.00014	-3e-05	-3e-05	5
21416	0	-3e-05	-2e-05	-1e-05	-0.0002	-0.00014	-3e-05	-3e-05	5
21417	0	-3e-05	-2e-05	-1e-05	-0.0002	-0.00014	-3e-05	-3e-05	5
21418	0	-3e-05	-2e-05	-1e-05	-0.0002	-0.00014	-3e-05	-3e-05	5
21419	0	-3e-05	-2e-05	-1e-05	-0.0002	-0.00014	-3e-05	-3e-05	5
21420	0	-3e-05	-2e-05	-1e-05	-0.0002	-0.00014	-3e-05	-3e-05	5
21421	0	-3e-05	-2e-05	-1e-05	-0.0002	-0.00014	-3e-05	-3e-05	5
21422	0	-3e-05	-2e-05	-1e-05	-0.0002	-0.00014	-3e-05	-3e-05	5
21423	0	-3e-05	-2e-05	-1e-05	-0.0002	-0.00014	-3e-05	-3e-05	5
21424	0	-3e-05	-2e-05	-1e-05	-0.0002	-0.00014	-3e-05	-3e-05	5
21425	0	-3e-05	-2e-05	-1e-05	-0.0002	-0.00014	-3e-05	-3e-05	5
21426	0	-3e-05	-2e-05	-1e-05	-0.0002	-0.00014	-3e-05	-3e-05	5
21427	0	-3e-05	-2e-05	-1e-05	-0.0002	-0.00014	-3e-05	-3e-05	5
21428	3e-05	-1e-05	-3e-05	0.0002	0	0.00013	7e-05	3e-05	5
21429	-1e-05	-5e-05	-9e-05	0.00012	5e-05	-0.00014	-8e-05	-3e-05	5
21430	-1e-05	-5e-05	-9e-05	0.00012	5e-05	-0.00014	-8e-05	-3e-05	5
21431	-1e-05	-5e-05	-9e-05	0.00012	5e-05	-0.00014	-8e-05	-3e-05	5
21432	-1e-05	-5e-05	-9e-05	0.00012	5e-05	-0.00014	-8e-05	-3e-05	5
21433	-1e-05	-5e-05	-9e-05	0.00012	5e-05	-0.00014	-8e-05	-3e-05	5
21434	-1e-05	-5e-05	-9e-05	0.00012	5e-05	-0.00014	-8e-05	-3e-05	5
21435	-1e-05	-5e-05	-9e-05	0.00012	5e-05	-0.00014	-8e-05	-3e-05	5
21436	-1e-05	-5e-05	-9e-05	0.00012	5e-05	-0.00014	-8e-05	-3e-05	5
21438	-1e-05	-5e-05	-9e-05	0.00012	5e-05	-0.00014	-8e-05	-3e-05	5
21439	-1e-05	-5e-05	-9e-05	0.00012	5e-05	-0.00014	-8e-05	-3e-05	5
21440	-3e-05	-8e-05	3e-05	0.00018	-0.00019	-0.00014	-9e-05	-5e-05	5
21441	-3e-05	-8e-05	3e-05	0.00018	-0.00019	-0.00014	-9e-05	-5e-05	5
21442	-3e-05	-8e-05	3e-05	0.00018	-0.00019	-0.00014	-9e-05	-5e-05	5
21443	-3e-05	-8e-05	3e-05	0.00018	-0.00019	-0.00014	-9e-05	-5e-05	5
21444	-3e-05	-8e-05	3e-05	0.00018	-0.00019	-0.00014	-9e-05	-5e-05	5
21445	-3e-05	-8e-05	3e-05	0.00018	-0.00019	-0.00014	-9e-05	-5e-05	5
21446	-3e-05	-8e-05	3e-05	0.00018	-0.00019	-0.00014	-9e-05	-5e-05	5
21447	-3e-05	-8e-05	3e-05	0.00018	-0.00019	-0.00014	-9e-05	-5e-05	5
21448	-1e-05	-8e-05	3e-05	3e-05	-0.00028	-0.00013	-5e-05	-3e-05	5
21449	-1e-05	-8e-05	3e-05	3e-05	-0.00028	-0.00013	-5e-05	-3e-05	5
21450	-1e-05	-8e-05	3e-05	3e-05	-0.00028	-0.00013	-5e-05	-3e-05	5
21451	-1e-05	-8e-05	3e-05	3e-05	-0.00028	-0.00013	-5e-05	-3e-05	5
21452	-1e-05	-8e-05	3e-05	3e-05	-0.00028	-0.00013	-5e-05	-3e-05	5
21453	-1e-05	-8e-05	3e-05	3e-05	-0.00028	-0.00013	-5e-05	-3e-05	5
21454	-1e-05	-8e-05	3e-05	3e-05	-0.00028	-0.00013	-5e-05	-3e-05	5
21455	-1e-05	-8e-05	3e-05	3e-05	-0.00028	-0.00013	-5e-05	-3e-05	5
21456	-1e-05	-8e-05	3e-05	3e-05	-0.00028	-0.00013	-5e-05	-3e-05	5
21457	-1e-05	-8e-05	3e-05	3e-05	-0.00028	-0.00013	-5e-05	-3e-05	5
21458	-1e-05	-8e-05	3e-05	3e-05	-0.00028	-0.00013	-5e-05	-3e-05	5
21459	-1e-05	-8e-05	3e-05	3e-05	-0.00028	-0.00013	-5e-05	-3e-05	5
21460	-1e-05	-8e-05	3e-05	3e-05	-0.00028	-0.00013	-5e-05	-3e-05	5
21461	-1e-05	-8e-05	3e-05	3e-05	-0.00028	-0.00013	-5e-05	-3e-05	5
21462	-1e-05	-8e-05	3e-05	3e-05	-0.00028	-0.00013	-5e-05	-3e-05	5
21463	-1e-05	-8e-05	3e-05	3e-05	-0.00028	-0.00013	-5e-05	-3e-05	5
21464	-9e-05	-0.00012	-0.00011	-0.00045	-0.00033	-0.00011	-7e-05	-8e-05	5
21465	-9e-05	-0.00012	-0.00011	-0.00045	-0.00033	-0.00011	-7e-05	-8e-05	5
21467	-9e-05	-0.00012	-0.00011	-0.00045	-0.00033	-0.00011	-7e-05	-8e-05	5
21468	-9e-05	-0.00012	-0.00011	-0.00045	-0.00033	-0.00011	-7e-05	-8e-05	5
21469	-9e-05	-0.00012	-0.00011	-0.00045	-0.00033	-0.00011	-7e-05	-8e-05	5
21470	-9e-05	-0.00012	-0.00011	-0.00045	-0.00033	-0.00011	-7e-05	-8e-05	5
21471	-9e-05	-0.00012	-0.00011	-0.00045	-0.00033	-0.00011	-7e-05	-8e-05	5
21472	-9e-05	-0.00012	-0.00011	-0.00045	-0.00033	-0.00011	-7e-05	-8e-05	5
21473	-9e-05	-0.00012	-0.00011	-0.00045	-0.00033	-0.00011	-7e-05	-8e-05	5
21474	-9e-05	-0.00012	-0.00011	-0.00045	-0.00033	-0.00011	-7e-05	-8e-05	5
21475	-9e-05	-0.00012	-0.00011	-0.00045	-0.00033	-0.00011	-7e-05	-8e-05	5
21476	-9e-05	-0.00012	-0.00011	-0.00045	-0.00033	-0.00011	-7e-05	-8e-05	5
21477	-9e-05	-0.00012	-0.00011	-0.00045	-0.00033	-0.00011	-7e-05	-8e-05	5
21478	-9e-05	-0.00012	-0.00011	-0.00045	-0.00033	-0.00011	-7e-05	-8e-05	5
21479	-9e-05	-0.00012	-0.00011	-0.00045	-0.00033	-0.00011	-7e-05	-8e-05	5
21480	-9e-05	-0.00012	-0.00011	-0.00045	-0.00033	-0.00011	-7e-05	-8e-05	5
21481	-9e-05	-0.00012	-0.00011	-0.00045	-0.00033	-0.00011	-7e-05	-8e-05	5
21482	-9e-05	-0.00012	-0.00011	-0.00045	-0.00033	-0.00011	-7e-05	-8e-05	5
21483	-9e-05	-0.00012	-0.00011	-0.00045	-0.00033	-0.00011	-7e-05	-8e-05	5
21484	-9e-05	-0.00012	-0.00011	-0.00045	-0.00033	-0.00011	-7e-05	-8e-05	5
21485	0.00022	9e-05	0.0001	0.00046	6e-05	3e-05	4e-05	0.00016	5
21486	0.00023	4e-05	-5e-05	-0.00013	-0.00013	-5e-05	0	0.00025	5
21488	0.00023	4e-05	-5e-05	-0.00013	-0.00013	-5e-05	0	0.00025	5
21489	0.00023	4e-05	-5e-05	-0.00013	-0.00013	-5e-05	0	0.00025	5
21490	0.00023	4e-05	-5e-05	-0.00013	-0.00013	-5e-05	0	0.00025	5
21491	0.00023	4e-05	-5e-05	-0.00013	-0.00013	-5e-05	0	0.00025	5
21492	0.00023	4e-05	-5e-05	-0.00013	-0.00013	-5e-05	0	0.00025	5
21493	-0.00027	-0.00011	-0.00027	-0.00089	-0.00022	-0.0002	-0.00013	-0.00021	5
21494	-0.00027	-0.00011	-0.00027	-0.00089	-0.00022	-0.0002	-0.00013	-0.00021	5
21495	-0.00027	-0.00011	-0.00027	-0.00089	-0.00022	-0.0002	-0.00013	-0.00021	5
21496	-0.00027	-0.00011	-0.00027	-0.00089	-0.00022	-0.0002	-0.00013	-0.00021	5
21497	-0.00027	-0.00011	-0.00027	-0.00089	-0.00022	-0.0002	-0.00013	-0.00021	5
21498	-0.00027	-0.00011	-0.00027	-0.00089	-0.00022	-0.0002	-0.00013	-0.00021	5
21499	-0.00027	-0.00011	-0.00027	-0.00089	-0.00022	-0.0002	-0.00013	-0.00021	5
21500	-4e-05	-2e-05	-8e-05	-8e-05	0.00011	6e-05	2e-05	0	5
21501	-4e-05	-2e-05	-8e-05	-8e-05	0.00011	6e-05	2e-05	0	5
21502	-4e-05	-2e-05	-8e-05	-8e-05	0.00011	6e-05	2e-05	0	5
21503	-4e-05	-2e-05	-8e-05	-8e-05	0.00011	6e-05	2e-05	0	5
21504	-4e-05	-2e-05	-8e-05	-8e-05	0.00011	6e-05	2e-05	0	5
21505	-4e-05	-2e-05	-8e-05	-8e-05	0.00011	6e-05	2e-05	0	5
21506	-4e-05	-2e-05	-8e-05	-8e-05	0.00011	6e-05	2e-05	0	5
21507	-4e-05	-2e-05	-8e-05	-8e-05	0.00011	6e-05	2e-05	0	5
21508	0	8e-05	0.00019	0.00083	0.00062	0.00025	9e-05	7e-05	5
21509	0	8e-05	0.00019	0.00083	0.00062	0.00025	9e-05	7e-05	5
21510	0	8e-05	0.00019	0.00083	0.00062	0.00025	9e-05	7e-05	5
21511	0	8e-05	0.00019	0.00083	0.00062	0.00025	9e-05	7e-05	5
21512	0	8e-05	0.00019	0.00083	0.00062	0.00025	9e-05	7e-05	5
21513	0	8e-05	0.00019	0.00083	0.00062	0.00025	9e-05	7e-05	5
21514	0	8e-05	0.00019	0.00083	0.00062	0.00025	9e-05	7e-05	5
21515	0	8e-05	0.00019	0.00083	0.00062	0.00025	9e-05	7e-05	5
21516	0	8e-05	0.00019	0.00083	0.00062	0.00025	9e-05	7e-05	5
21517	0	8e-05	0.00019	0.00083	0.00062	0.00025	9e-05	7e-05	5
21518	0	8e-05	0.00019	0.00083	0.00062	0.00025	9e-05	7e-05	5
21519	0	8e-05	0.00019	0.00083	0.00062	0.00025	9e-05	7e-05	5
21520	0	8e-05	0.00019	0.00083	0.00062	0.00025	9e-05	7e-05	5
21521	0	8e-05	0.00019	0.00083	0.00062	0.00025	9e-05	7e-05	5
21522	0	8e-05	0.00019	0.00083	0.00062	0.00025	9e-05	7e-05	5
21523	0	8e-05	0.00019	0.00083	0.00062	0.00025	9e-05	7e-05	5
21524	-3e-05	-7e-05	-8e-05	-0.00023	0.00016	-8e-05	-8e-05	-1e-05	5
21525	1e-05	6e-05	5e-05	0.00021	-0.00015	-4e-05	1e-05	1e-05	5
21526	1e-05	6e-05	5e-05	0.00021	-0.00015	-4e-05	1e-05	1e-05	5
21527	1e-05	6e-05	5e-05	0.00021	-0.00015	-4e-05	1e-05	1e-05	5
21528	1e-05	6e-05	5e-05	0.00021	-0.00015	-4e-05	1e-05	1e-05	5
21529	1e-05	6e-05	5e-05	0.00021	-0.00015	-4e-05	1e-05	1e-05	5
21530	1e-05	6e-05	5e-05	0.00021	-0.00015	-4e-05	1e-05	1e-05	5
21531	1e-05	6e-05	5e-05	0.00021	-0.00015	-4e-05	1e-05	1e-05	5
21532	1e-05	6e-05	5e-05	0.00021	-0.00015	-4e-05	1e-05	1e-05	5
21533	1e-05	6e-05	5e-05	0.00021	-0.00015	-4e-05	1e-05	1e-05	5
21534	1e-05	6e-05	5e-05	0.00021	-0.00015	-4e-05	1e-05	1e-05	5
21535	1e-05	6e-05	5e-05	0.00021	-0.00015	-4e-05	1e-05	1e-05	5
21536	1e-05	6e-05	5e-05	0.00021	-0.00015	-4e-05	1e-05	1e-05	5
21538	1e-05	6e-05	5e-05	0.00021	-0.00015	-4e-05	1e-05	1e-05	5
21539	1e-05	6e-05	5e-05	0.00021	-0.00015	-4e-05	1e-05	1e-05	5
21540	1e-05	6e-05	5e-05	0.00021	-0.00015	-4e-05	1e-05	1e-05	5
21541	1e-05	6e-05	5e-05	0.00021	-0.00015	-4e-05	1e-05	1e-05	5
21542	1e-05	6e-05	5e-05	0.00021	-0.00015	-4e-05	1e-05	1e-05	5
21543	1e-05	6e-05	5e-05	0.00021	-0.00015	-4e-05	1e-05	1e-05	5
21544	1e-05	6e-05	5e-05	0.00021	-0.00015	-4e-05	1e-05	1e-05	5
21545	1e-05	6e-05	5e-05	0.00021	-0.00015	-4e-05	1e-05	1e-05	5
21546	-7e-05	3e-05	0.00015	0.00014	-0.00017	3e-05	-3e-05	-0.0001	5
21547	5e-05	1e-05	0.00012	0.00036	-3e-05	5e-05	1e-05	0.00013	5
21548	5e-05	1e-05	0.00012	0.00036	-3e-05	5e-05	1e-05	0.00013	5
21549	5e-05	1e-05	0.00012	0.00036	-3e-05	5e-05	1e-05	0.00013	5
21550	5e-05	1e-05	0.00012	0.00036	-3e-05	5e-05	1e-05	0.00013	5
21551	5e-05	1e-05	0.00012	0.00036	-3e-05	5e-05	1e-05	0.00013	5
21552	5e-05	1e-05	0.00012	0.00036	-3e-05	5e-05	1e-05	0.00013	5
21553	5e-05	1e-05	0.00012	0.00036	-3e-05	5e-05	1e-05	0.00013	5
21554	5e-05	1e-05	0.00012	0.00036	-3e-05	5e-05	1e-05	0.00013	5
21555	5e-05	1e-05	0.00012	0.00036	-3e-05	5e-05	1e-05	0.00013	5
21556	5e-05	1e-05	0.00012	0.00036	-3e-05	5e-05	1e-05	0.00013	5
21557	5e-05	1e-05	0.00012	0.00036	-3e-05	5e-05	1e-05	0.00013	5
21558	5e-05	1e-05	0.00012	0.00036	-3e-05	5e-05	1e-05	0.00013	5
21559	5e-05	1e-05	0.00012	0.00036	-3e-05	5e-05	1e-05	0.00013	5
21560	-0.00016	-4e-05	-0.00014	-0.00031	-7e-05	-0.0001	-5e-05	-0.00011	5
21561	-0.00016	-4e-05	-0.00014	-0.00031	-7e-05	-0.0001	-5e-05	-0.00011	5
21562	-0.00016	-4e-05	-0.00014	-0.00031	-7e-05	-0.0001	-5e-05	-0.00011	5
21563	-0.00016	-4e-05	-0.00014	-0.00031	-7e-05	-0.0001	-5e-05	-0.00011	5
21564	-0.00016	-4e-05	-0.00014	-0.00031	-7e-05	-0.0001	-5e-05	-0.00011	5
21565	-0.00016	-4e-05	-0.00014	-0.00031	-7e-05	-0.0001	-5e-05	-0.00011	5
21566	-0.00016	-4e-05	-0.00014	-0.00031	-7e-05	-0.0001	-5e-05	-0.00011	5
21567	-0.00016	-4e-05	-0.00014	-0.00031	-7e-05	-0.0001	-5e-05	-0.00011	5
21568	-6e-05	-0.00013	-0.0002	-0.00065	-4e-05	-0.00012	-6e-05	-5e-05	5
21569	-6e-05	-0.00013	-0.0002	-0.00065	-4e-05	-0.00012	-6e-05	-5e-05	5
21570	-6e-05	-0.00013	-0.0002	-0.00065	-4e-05	-0.00012	-6e-05	-5e-05	5
21571	-6e-05	-0.00013	-0.0002	-0.00065	-4e-05	-0.00012	-6e-05	-5e-05	5
21572	-6e-05	-0.00013	-0.0002	-0.00065	-4e-05	-0.00012	-6e-05	-5e-05	5
21573	-6e-05	-0.00013	-0.0002	-0.00065	-4e-05	-0.00012	-6e-05	-5e-05	5
21574	-6e-05	-0.00013	-0.0002	-0.00065	-4e-05	-0.00012	-6e-05	-5e-05	5
21575	-6e-05	-0.00013	-0.0002	-0.00065	-4e-05	-0.00012	-6e-05	-5e-05	5
21576	-6e-05	-0.00013	-0.0002	-0.00065	-4e-05	-0.00012	-6e-05	-5e-05	5
21577	-6e-05	-0.00013	-0.0002	-0.00065	-4e-05	-0.00012	-6e-05	-5e-05	5
21578	-6e-05	-0.00013	-0.0002	-0.00065	-4e-05	-0.00012	-6e-05	-5e-05	5
21579	-6e-05	-0.00013	-0.0002	-0.00065	-4e-05	-0.00012	-6e-05	-5e-05	5
21580	-6e-05	-0.00013	-0.0002	-0.00065	-4e-05	-0.00012	-6e-05	-5e-05	5
21581	-6e-05	-0.00013	-0.0002	-0.00065	-4e-05	-0.00012	-6e-05	-5e-05	5
21582	-6e-05	-0.00013	-0.0002	-0.00065	-4e-05	-0.00012	-6e-05	-5e-05	5
21583	-6e-05	-0.00013	-0.0002	-0.00065	-4e-05	-0.00012	-6e-05	-5e-05	5
21584	8e-05	-4e-05	0	0.0005	0.0003	1e-05	-2e-05	8e-05	5
21585	2e-05	-5e-05	-9e-05	-0.00015	-0.00032	0	1e-05	-1e-05	5
21586	2e-05	-5e-05	-9e-05	-0.00015	-0.00032	0	1e-05	-1e-05	5
21588	2e-05	-5e-05	-9e-05	-0.00015	-0.00032	0	1e-05	-1e-05	5
21589	2e-05	-5e-05	-9e-05	-0.00015	-0.00032	0	1e-05	-1e-05	5
21590	2e-05	-5e-05	-9e-05	-0.00015	-0.00032	0	1e-05	-1e-05	5
21591	2e-05	-5e-05	-9e-05	-0.00015	-0.00032	0	1e-05	-1e-05	5
21592	2e-05	-5e-05	-9e-05	-0.00015	-0.00032	0	1e-05	-1e-05	5
21593	2e-05	-5e-05	-9e-05	-0.00015	-0.00032	0	1e-05	-1e-05	5
21594	2e-05	-5e-05	-9e-05	-0.00015	-0.00032	0	1e-05	-1e-05	5
21595	2e-05	-5e-05	-9e-05	-0.00015	-0.00032	0	1e-05	-1e-05	5
21596	2e-05	-5e-05	-9e-05	-0.00015	-0.00032	0	1e-05	-1e-05	5
21597	2e-05	-5e-05	-9e-05	-0.00015	-0.00032	0	1e-05	-1e-05	5
21598	2e-05	-5e-05	-9e-05	-0.00015	-0.00032	0	1e-05	-1e-05	5
21599	2e-05	-5e-05	-9e-05	-0.00015	-0.00032	0	1e-05	-1e-05	5
21600	2e-05	-5e-05	-9e-05	-0.00015	-0.00032	0	1e-05	-1e-05	5
21601	2e-05	-5e-05	-9e-05	-0.00015	-0.00032	0	1e-05	-1e-05	5
21602	2e-05	-5e-05	-9e-05	-0.00015	-0.00032	0	1e-05	-1e-05	5
21603	2e-05	-5e-05	-9e-05	-0.00015	-0.00032	0	1e-05	-1e-05	5
21604	2e-05	-5e-05	-9e-05	-0.00015	-0.00032	0	1e-05	-1e-05	5
21605	2e-05	-5e-05	-9e-05	-0.00015	-0.00032	0	1e-05	-1e-05	5
21606	0.00013	4e-05	0.0001	0.00039	0.00021	0	2e-05	9e-05	5
21607	6e-05	5e-05	3e-05	-0.00035	0.00029	3e-05	2e-05	4e-05	5
21608	6e-05	5e-05	3e-05	-0.00035	0.00029	3e-05	2e-05	4e-05	5
21609	6e-05	5e-05	3e-05	-0.00035	0.00029	3e-05	2e-05	4e-05	5
21610	6e-05	5e-05	3e-05	-0.00035	0.00029	3e-05	2e-05	4e-05	5
21611	6e-05	5e-05	3e-05	-0.00035	0.00029	3e-05	2e-05	4e-05	5
21612	6e-05	5e-05	3e-05	-0.00035	0.00029	3e-05	2e-05	4e-05	5
21613	6e-05	5e-05	3e-05	-0.00035	0.00029	3e-05	2e-05	4e-05	5
21614	6e-05	5e-05	3e-05	-0.00035	0.00029	3e-05	2e-05	4e-05	5
21615	6e-05	5e-05	3e-05	-0.00035	0.00029	3e-05	2e-05	4e-05	5
21616	6e-05	5e-05	3e-05	-0.00035	0.00029	3e-05	2e-05	4e-05	5
21617	6e-05	5e-05	3e-05	-0.00035	0.00029	3e-05	2e-05	4e-05	5
21618	6e-05	5e-05	3e-05	-0.00035	0.00029	3e-05	2e-05	4e-05	5
21619	6e-05	5e-05	3e-05	-0.00035	0.00029	3e-05	2e-05	4e-05	5
21620	6e-05	5e-05	3e-05	-0.00035	0.00029	3e-05	2e-05	4e-05	5
21621	6e-05	5e-05	3e-05	-0.00035	0.00029	3e-05	2e-05	4e-05	5
21622	6e-05	5e-05	3e-05	-0.00035	0.00029	3e-05	2e-05	4e-05	5
21623	6e-05	5e-05	3e-05	-0.00035	0.00029	3e-05	2e-05	4e-05	5
21624	6e-05	5e-05	3e-05	-0.00035	0.00029	3e-05	2e-05	4e-05	5
21625	6e-05	5e-05	3e-05	-0.00035	0.00029	3e-05	2e-05	4e-05	5
21626	6e-05	5e-05	3e-05	-0.00035	0.00029	3e-05	2e-05	4e-05	5
21627	6e-05	5e-05	3e-05	-0.00035	0.00029	3e-05	2e-05	4e-05	5
21628	6e-05	5e-05	3e-05	-0.00035	0.00029	3e-05	2e-05	4e-05	5
21629	-3e-05	-1e-05	-4e-05	-1e-05	-4e-05	-3e-05	-6e-05	-9e-05	5
21630	-2e-05	-1e-05	3e-05	0.00044	0.00044	0.00013	8e-05	6e-05	5
21631	-2e-05	-1e-05	3e-05	0.00044	0.00044	0.00013	8e-05	6e-05	5
21632	-2e-05	-1e-05	3e-05	0.00044	0.00044	0.00013	8e-05	6e-05	5
21633	-2e-05	-1e-05	3e-05	0.00044	0.00044	0.00013	8e-05	6e-05	5
21634	-2e-05	-1e-05	3e-05	0.00044	0.00044	0.00013	8e-05	6e-05	5
21635	-2e-05	-1e-05	3e-05	0.00044	0.00044	0.00013	8e-05	6e-05	5
21636	-2e-05	-1e-05	3e-05	0.00044	0.00044	0.00013	8e-05	6e-05	5
21638	-2e-05	-1e-05	3e-05	0.00044	0.00044	0.00013	8e-05	6e-05	5
21639	-2e-05	-1e-05	3e-05	0.00044	0.00044	0.00013	8e-05	6e-05	5
21640	-2e-05	-1e-05	3e-05	0.00044	0.00044	0.00013	8e-05	6e-05	5
21641	-2e-05	-1e-05	3e-05	0.00044	0.00044	0.00013	8e-05	6e-05	5
21642	-2e-05	-1e-05	3e-05	0.00044	0.00044	0.00013	8e-05	6e-05	5
21643	-2e-05	-1e-05	3e-05	0.00044	0.00044	0.00013	8e-05	6e-05	5
21644	1e-05	-4e-05	-9e-05	-0.00024	-0.00021	-7e-05	-4e-05	-7e-05	5
21645	6e-05	5e-05	0.00016	0.00045	6e-05	8e-05	5e-05	6e-05	5
21646	6e-05	5e-05	0.00016	0.00045	6e-05	8e-05	5e-05	6e-05	5
21647	6e-05	5e-05	0.00016	0.00045	6e-05	8e-05	5e-05	6e-05	5
21648	6e-05	5e-05	0.00016	0.00045	6e-05	8e-05	5e-05	6e-05	5
21649	6e-05	5e-05	0.00016	0.00045	6e-05	8e-05	5e-05	6e-05	5
21650	6e-05	5e-05	0.00016	0.00045	6e-05	8e-05	5e-05	6e-05	5
21651	6e-05	5e-05	0.00016	0.00045	6e-05	8e-05	5e-05	6e-05	5
21652	6e-05	5e-05	0.00016	0.00045	6e-05	8e-05	5e-05	6e-05	5
21653	6e-05	5e-05	0.00016	0.00045	6e-05	8e-05	5e-05	6e-05	5
21654	6e-05	5e-05	0.00016	0.00045	6e-05	8e-05	5e-05	6e-05	5
21655	6e-05	5e-05	0.00016	0.00045	6e-05	8e-05	5e-05	6e-05	5
21656	6e-05	5e-05	0.00016	0.00045	6e-05	8e-05	5e-05	6e-05	5
21657	6e-05	5e-05	0.00016	0.00045	6e-05	8e-05	5e-05	6e-05	5
21658	6e-05	5e-05	0.00016	0.00045	6e-05	8e-05	5e-05	6e-05	5
21659	6e-05	5e-05	0.00016	0.00045	6e-05	8e-05	5e-05	6e-05	5
21660	6e-05	5e-05	0.00016	0.00045	6e-05	8e-05	5e-05	6e-05	5
21661	6e-05	5e-05	0.00016	0.00045	6e-05	8e-05	5e-05	6e-05	5
21662	6e-05	5e-05	0.00016	0.00045	6e-05	8e-05	5e-05	6e-05	5
21663	6e-05	5e-05	0.00016	0.00045	6e-05	8e-05	5e-05	6e-05	5
21664	6e-05	5e-05	0.00016	0.00045	6e-05	8e-05	5e-05	6e-05	5
21665	6e-05	5e-05	0.00016	0.00045	6e-05	8e-05	5e-05	6e-05	5
21666	-0.00023	-0.0001	-0.00011	-9e-05	-0.00022	-4e-05	-8e-05	-0.00024	5
21667	0	0	-1e-05	-0.00015	-0.00041	-5e-05	-3e-05	0	5
21668	0	0	-1e-05	-0.00015	-0.00041	-5e-05	-3e-05	0	5
21669	0	0	-1e-05	-0.00015	-0.00041	-5e-05	-3e-05	0	5
21670	0	0	-1e-05	-0.00015	-0.00041	-5e-05	-3e-05	0	5
21671	0	0	-1e-05	-0.00015	-0.00041	-5e-05	-3e-05	0	5
21672	0	0	-1e-05	-0.00015	-0.00041	-5e-05	-3e-05	0	5
21673	0	0	-1e-05	-0.00015	-0.00041	-5e-05	-3e-05	0	5
21674	0	0	-1e-05	-0.00015	-0.00041	-5e-05	-3e-05	0	5
21675	0	0	-1e-05	-0.00015	-0.00041	-5e-05	-3e-05	0	5
21676	0	0	-1e-05	-0.00015	-0.00041	-5e-05	-3e-05	0	5
21677	0	0	-1e-05	-0.00015	-0.00041	-5e-05	-3e-05	0	5
21678	0	0	-1e-05	-0.00015	-0.00041	-5e-05	-3e-05	0	5
21679	0	0	-1e-05	-0.00015	-0.00041	-5e-05	-3e-05	0	5
21680	0	0	-1e-05	-0.00015	-0.00041	-5e-05	-3e-05	0	5
21681	0	0	-1e-05	-0.00015	-0.00041	-5e-05	-3e-05	0	5
21682	0	0	-1e-05	-0.00015	-0.00041	-5e-05	-3e-05	0	5
21683	0	0	-1e-05	-0.00015	-0.00041	-5e-05	-3e-05	0	5
21684	0	0	-1e-05	-0.00015	-0.00041	-5e-05	-3e-05	0	5
21685	0	0	-1e-05	-0.00015	-0.00041	-5e-05	-3e-05	0	5
21686	0	0	-1e-05	-0.00015	-0.00041	-5e-05	-3e-05	0	5
21688	0	0	-1e-05	-0.00015	-0.00041	-5e-05	-3e-05	0	5
21689	3e-05	5e-05	7e-05	0.00021	8e-05	-2e-05	-3e-05	3e-05	5
21690	6e-05	5e-05	5e-05	8e-05	-0.0001	-8e-05	-4e-05	-4e-05	5
21691	6e-05	5e-05	5e-05	8e-05	-0.0001	-8e-05	-4e-05	-4e-05	5
21692	6e-05	5e-05	5e-05	8e-05	-0.0001	-8e-05	-4e-05	-4e-05	5
21693	6e-05	5e-05	5e-05	8e-05	-0.0001	-8e-05	-4e-05	-4e-05	5
21694	6e-05	5e-05	5e-05	8e-05	-0.0001	-8e-05	-4e-05	-4e-05	5
21695	6e-05	5e-05	5e-05	8e-05	-0.0001	-8e-05	-4e-05	-4e-05	5
21696	6e-05	5e-05	5e-05	8e-05	-0.0001	-8e-05	-4e-05	-4e-05	5
21697	6e-05	5e-05	5e-05	8e-05	-0.0001	-8e-05	-4e-05	-4e-05	5
21698	6e-05	5e-05	5e-05	8e-05	-0.0001	-8e-05	-4e-05	-4e-05	5
21699	6e-05	5e-05	5e-05	8e-05	-0.0001	-8e-05	-4e-05	-4e-05	5
21700	6e-05	5e-05	5e-05	8e-05	-0.0001	-8e-05	-4e-05	-4e-05	5
21701	6e-05	5e-05	5e-05	8e-05	-0.0001	-8e-05	-4e-05	-4e-05	5
21702	-5e-05	-7e-05	-0.00011	-0.00045	9e-05	5e-05	1e-05	-5e-05	5
21703	-3e-05	-5e-05	-2e-05	0.00021	-3e-05	-6e-05	-5e-05	0	5
21704	-3e-05	-5e-05	-2e-05	0.00021	-3e-05	-6e-05	-5e-05	0	5
21705	-3e-05	-5e-05	-2e-05	0.00021	-3e-05	-6e-05	-5e-05	0	5
21706	-3e-05	-5e-05	-2e-05	0.00021	-3e-05	-6e-05	-5e-05	0	5
21707	-3e-05	-5e-05	-2e-05	0.00021	-3e-05	-6e-05	-5e-05	0	5
21708	-3e-05	-5e-05	-2e-05	0.00021	-3e-05	-6e-05	-5e-05	0	5
21709	-3e-05	-5e-05	-2e-05	0.00021	-3e-05	-6e-05	-5e-05	0	5
21710	-3e-05	-5e-05	-2e-05	0.00021	-3e-05	-6e-05	-5e-05	0	5
21711	6e-05	2e-05	-2e-05	-3e-05	3e-05	0	-1e-05	2e-05	5
21712	6e-05	2e-05	-2e-05	-3e-05	3e-05	0	-1e-05	2e-05	5
21713	6e-05	2e-05	-2e-05	-3e-05	3e-05	0	-1e-05	2e-05	5
21714	6e-05	2e-05	-2e-05	-3e-05	3e-05	0	-1e-05	2e-05	5
21715	6e-05	2e-05	-2e-05	-3e-05	3e-05	0	-1e-05	2e-05	5
21716	6e-05	2e-05	-2e-05	-3e-05	3e-05	0	-1e-05	2e-05	5
21717	6e-05	2e-05	-2e-05	-3e-05	3e-05	0	-1e-05	2e-05	5
21718	6e-05	2e-05	-2e-05	-3e-05	3e-05	0	-1e-05	2e-05	5
21719	6e-05	2e-05	-2e-05	-3e-05	3e-05	0	-1e-05	2e-05	5
21720	6e-05	2e-05	-2e-05	-3e-05	3e-05	0	-1e-05	2e-05	5
21721	6e-05	2e-05	-2e-05	-3e-05	3e-05	0	-1e-05	2e-05	5
21722	6e-05	2e-05	-2e-05	-3e-05	3e-05	0	-1e-05	2e-05	5
21723	6e-05	2e-05	-2e-05	-3e-05	3e-05	0	-1e-05	2e-05	5
21724	6e-05	2e-05	-2e-05	-3e-05	3e-05	0	-1e-05	2e-05	5
21725	6e-05	2e-05	-2e-05	-3e-05	3e-05	0	-1e-05	2e-05	5
21726	-8e-05	-9e-05	-1e-05	-0.0008	-0.00022	-3e-05	4e-05	0	5
21727	-8e-05	-9e-05	-1e-05	-0.0008	-0.00022	-3e-05	4e-05	0	5
21728	-2e-05	0	-5e-05	-0.00039	-0.00027	0.00012	2e-05	-4e-05	5
21729	-2e-05	0	-5e-05	-0.00039	-0.00027	0.00012	2e-05	-4e-05	5
21730	-2e-05	0	-5e-05	-0.00039	-0.00027	0.00012	2e-05	-4e-05	5
21731	-2e-05	0	-5e-05	-0.00039	-0.00027	0.00012	2e-05	-4e-05	5
21732	-2e-05	0	-5e-05	-0.00039	-0.00027	0.00012	2e-05	-4e-05	5
21733	-2e-05	0	-5e-05	-0.00039	-0.00027	0.00012	2e-05	-4e-05	5
21734	-2e-05	0	-5e-05	-0.00039	-0.00027	0.00012	2e-05	-4e-05	5
21735	-2e-05	0	-5e-05	-0.00039	-0.00027	0.00012	2e-05	-4e-05	5
21736	-2e-05	0	-5e-05	-0.00039	-0.00027	0.00012	2e-05	-4e-05	5
21738	-2e-05	0	-5e-05	-0.00039	-0.00027	0.00012	2e-05	-4e-05	5
21739	-2e-05	0	-5e-05	-0.00039	-0.00027	0.00012	2e-05	-4e-05	5
21740	-2e-05	0	-5e-05	-0.00039	-0.00027	0.00012	2e-05	-4e-05	5
21741	-2e-05	0	-5e-05	-0.00039	-0.00027	0.00012	2e-05	-4e-05	5
21742	-2e-05	0	-5e-05	-0.00039	-0.00027	0.00012	2e-05	-4e-05	5
21743	-2e-05	0	-5e-05	-0.00039	-0.00027	0.00012	2e-05	-4e-05	5
21744	-2e-05	0	-5e-05	-0.00039	-0.00027	0.00012	2e-05	-4e-05	5
21745	-2e-05	0	-5e-05	-0.00039	-0.00027	0.00012	2e-05	-4e-05	5
21746	-2e-05	0	-5e-05	-0.00039	-0.00027	0.00012	2e-05	-4e-05	5
21747	-2e-05	0	-5e-05	-0.00039	-0.00027	0.00012	2e-05	-4e-05	5
21748	-2e-05	0	-5e-05	-0.00039	-0.00027	0.00012	2e-05	-4e-05	5
21749	-2e-05	0	-5e-05	-0.00039	-0.00027	0.00012	2e-05	-4e-05	5
21750	-2e-05	0	-5e-05	-0.00039	-0.00027	0.00012	2e-05	-4e-05	5
21751	-2e-05	0	-5e-05	-0.00039	-0.00027	0.00012	2e-05	-4e-05	5
21752	-2e-05	0	-5e-05	-0.00039	-0.00027	0.00012	2e-05	-4e-05	5
21753	-2e-05	0	-5e-05	-0.00039	-0.00027	0.00012	2e-05	-4e-05	5
21754	-2e-05	0	-5e-05	-0.00039	-0.00027	0.00012	2e-05	-4e-05	5
21755	-2e-05	0	-5e-05	-0.00039	-0.00027	0.00012	2e-05	-4e-05	5
21756	4e-05	-5e-05	-9e-05	-0.00023	5e-05	-3e-05	-5e-05	1e-05	5
21757	4e-05	-5e-05	-9e-05	-0.00023	5e-05	-3e-05	-5e-05	1e-05	5
21758	-2e-05	0	6e-05	0.0006	0.00017	5e-05	0	-4e-05	5
21759	-2e-05	0	6e-05	0.0006	0.00017	5e-05	0	-4e-05	5
21760	-2e-05	0	6e-05	0.0006	0.00017	5e-05	0	-4e-05	5
21761	-2e-05	0	6e-05	0.0006	0.00017	5e-05	0	-4e-05	5
21762	-2e-05	0	6e-05	0.0006	0.00017	5e-05	0	-4e-05	5
21763	-2e-05	0	6e-05	0.0006	0.00017	5e-05	0	-4e-05	5
21764	-2e-05	0	6e-05	0.0006	0.00017	5e-05	0	-4e-05	5
21765	-2e-05	0	6e-05	0.0006	0.00017	5e-05	0	-4e-05	5
21766	-2e-05	0	6e-05	0.0006	0.00017	5e-05	0	-4e-05	5
21767	-2e-05	0	6e-05	0.0006	0.00017	5e-05	0	-4e-05	5
21768	-2e-05	0	6e-05	0.0006	0.00017	5e-05	0	-4e-05	5
21769	-2e-05	0	6e-05	0.0006	0.00017	5e-05	0	-4e-05	5
21770	-2e-05	0	6e-05	0.0006	0.00017	5e-05	0	-4e-05	5
21771	-0.00013	1e-05	-6e-05	0.00027	0.00021	8e-05	3e-05	-5e-05	5
21772	-0.00013	1e-05	-6e-05	0.00027	0.00021	8e-05	3e-05	-5e-05	5
21773	5e-05	4e-05	-3e-05	0.00062	0.00013	-5e-05	-1e-05	-8e-05	5
21774	5e-05	4e-05	-3e-05	0.00062	0.00013	-5e-05	-1e-05	-8e-05	5
21775	5e-05	4e-05	-3e-05	0.00062	0.00013	-5e-05	-1e-05	-8e-05	5
21776	5e-05	4e-05	-3e-05	0.00062	0.00013	-5e-05	-1e-05	-8e-05	5
21777	5e-05	4e-05	-3e-05	0.00062	0.00013	-5e-05	-1e-05	-8e-05	5
21778	5e-05	4e-05	-3e-05	0.00062	0.00013	-5e-05	-1e-05	-8e-05	5
21779	5e-05	4e-05	-3e-05	0.00062	0.00013	-5e-05	-1e-05	-8e-05	5
21780	5e-05	4e-05	-3e-05	0.00062	0.00013	-5e-05	-1e-05	-8e-05	5
21781	5e-05	4e-05	-3e-05	0.00062	0.00013	-5e-05	-1e-05	-8e-05	5
21782	5e-05	4e-05	-3e-05	0.00062	0.00013	-5e-05	-1e-05	-8e-05	5
21783	5e-05	4e-05	-3e-05	0.00062	0.00013	-5e-05	-1e-05	-8e-05	5
21784	5e-05	4e-05	-3e-05	0.00062	0.00013	-5e-05	-1e-05	-8e-05	5
21785	5e-05	4e-05	-3e-05	0.00062	0.00013	-5e-05	-1e-05	-8e-05	5
21786	5e-05	4e-05	-3e-05	0.00062	0.00013	-5e-05	-1e-05	-8e-05	5
21788	-3e-05	-3e-05	1e-05	-8e-05	1e-05	-4e-05	-0.0001	3e-05	5
21789	-3e-05	-3e-05	1e-05	-8e-05	1e-05	-4e-05	-0.0001	3e-05	5
21790	-3e-05	-3e-05	1e-05	-8e-05	1e-05	-4e-05	-0.0001	3e-05	5
21791	-3e-05	-3e-05	1e-05	-8e-05	1e-05	-4e-05	-0.0001	3e-05	5
21792	-3e-05	-3e-05	1e-05	-8e-05	1e-05	-4e-05	-0.0001	3e-05	5
21793	-3e-05	-3e-05	1e-05	-8e-05	1e-05	-4e-05	-0.0001	3e-05	5
21794	-3e-05	-3e-05	1e-05	-8e-05	1e-05	-4e-05	-0.0001	3e-05	5
21795	-3e-05	-3e-05	1e-05	-8e-05	1e-05	-4e-05	-0.0001	3e-05	5
21796	-3e-05	-3e-05	1e-05	-8e-05	1e-05	-4e-05	-0.0001	3e-05	5
21797	-3e-05	-3e-05	1e-05	-8e-05	1e-05	-4e-05	-0.0001	3e-05	5
21798	-3e-05	-3e-05	1e-05	-8e-05	1e-05	-4e-05	-0.0001	3e-05	5
21799	-3e-05	-3e-05	1e-05	-8e-05	1e-05	-4e-05	-0.0001	3e-05	5
21800	-3e-05	-3e-05	1e-05	-8e-05	1e-05	-4e-05	-0.0001	3e-05	5
21801	-3e-05	-3e-05	1e-05	-8e-05	1e-05	-4e-05	-0.0001	3e-05	5
21802	-3e-05	-3e-05	1e-05	-8e-05	1e-05	-4e-05	-0.0001	3e-05	5
21803	-3e-05	-3e-05	1e-05	-8e-05	1e-05	-4e-05	-0.0001	3e-05	5
21804	-3e-05	-3e-05	1e-05	-8e-05	1e-05	-4e-05	-0.0001	3e-05	5
21805	-3e-05	-3e-05	1e-05	-8e-05	1e-05	-4e-05	-0.0001	3e-05	5
21806	-3e-05	-3e-05	1e-05	-8e-05	1e-05	-4e-05	-0.0001	3e-05	5
21807	-3e-05	-3e-05	1e-05	-8e-05	1e-05	-4e-05	-0.0001	3e-05	5
21808	-3e-05	-3e-05	1e-05	-8e-05	1e-05	-4e-05	-0.0001	3e-05	5
21809	7e-05	-1e-05	-7e-05	0.00013	-0.00043	-0.00015	-9e-05	5e-05	5
21810	-0.0001	-0.00013	-2e-05	-0.00044	-0.0002	-0.00016	-6e-05	-7e-05	5
21811	-0.0001	-0.00013	-2e-05	-0.00044	-0.0002	-0.00016	-6e-05	-7e-05	5
21812	-0.0001	-0.00013	-2e-05	-0.00044	-0.0002	-0.00016	-6e-05	-7e-05	5
21813	-0.0001	-0.00013	-2e-05	-0.00044	-0.0002	-0.00016	-6e-05	-7e-05	5
21814	-0.0001	-0.00013	-2e-05	-0.00044	-0.0002	-0.00016	-6e-05	-7e-05	5
21815	-0.0001	-0.00013	-2e-05	-0.00044	-0.0002	-0.00016	-6e-05	-7e-05	5
21816	-0.0001	-0.00013	-2e-05	-0.00044	-0.0002	-0.00016	-6e-05	-7e-05	5
21817	-0.0001	-0.00013	-2e-05	-0.00044	-0.0002	-0.00016	-6e-05	-7e-05	5
21818	-0.0001	-0.00013	-2e-05	-0.00044	-0.0002	-0.00016	-6e-05	-7e-05	5
21819	-0.0001	-0.00013	-2e-05	-0.00044	-0.0002	-0.00016	-6e-05	-7e-05	5
21820	-0.0001	-0.00013	-2e-05	-0.00044	-0.0002	-0.00016	-6e-05	-7e-05	5
21821	-0.0001	-0.00013	-2e-05	-0.00044	-0.0002	-0.00016	-6e-05	-7e-05	5
21822	-0.0001	-0.00013	-2e-05	-0.00044	-0.0002	-0.00016	-6e-05	-7e-05	5
21823	6e-05	5e-05	3e-05	9e-05	-2e-05	-2e-05	1e-05	4e-05	5
21824	6e-05	5e-05	3e-05	9e-05	-2e-05	-2e-05	1e-05	4e-05	5
21825	6e-05	5e-05	3e-05	9e-05	-2e-05	-2e-05	1e-05	4e-05	5
21826	6e-05	5e-05	3e-05	9e-05	-2e-05	-2e-05	1e-05	4e-05	5
21827	6e-05	5e-05	3e-05	9e-05	-2e-05	-2e-05	1e-05	4e-05	5
21828	6e-05	5e-05	3e-05	9e-05	-2e-05	-2e-05	1e-05	4e-05	5
21829	6e-05	5e-05	3e-05	9e-05	-2e-05	-2e-05	1e-05	4e-05	5
21830	1e-05	5e-05	5e-05	0	0.00014	0.0001	1e-05	2e-05	5
21831	1e-05	5e-05	5e-05	0	0.00014	0.0001	1e-05	2e-05	5
21832	1e-05	5e-05	5e-05	0	0.00014	0.0001	1e-05	2e-05	5
21833	1e-05	5e-05	5e-05	0	0.00014	0.0001	1e-05	2e-05	5
21834	1e-05	5e-05	5e-05	0	0.00014	0.0001	1e-05	2e-05	5
21835	1e-05	5e-05	5e-05	0	0.00014	0.0001	1e-05	2e-05	5
21836	1e-05	5e-05	5e-05	0	0.00014	0.0001	1e-05	2e-05	5
21838	1e-05	5e-05	5e-05	0	0.00014	0.0001	1e-05	2e-05	5
21839	1e-05	5e-05	5e-05	0	0.00014	0.0001	1e-05	2e-05	5
21840	1e-05	5e-05	5e-05	0	0.00014	0.0001	1e-05	2e-05	5
21841	1e-05	5e-05	5e-05	0	0.00014	0.0001	1e-05	2e-05	5
21842	1e-05	5e-05	5e-05	0	0.00014	0.0001	1e-05	2e-05	5
21843	1e-05	5e-05	5e-05	0	0.00014	0.0001	1e-05	2e-05	5
21844	1e-05	5e-05	5e-05	0	0.00014	0.0001	1e-05	2e-05	5
21845	1e-05	5e-05	5e-05	0	0.00014	0.0001	1e-05	2e-05	5
21846	0.00012	4e-05	1e-05	-0.00013	0.00029	0.00018	8e-05	0.00012	5
21847	0.00012	4e-05	1e-05	-0.00013	0.00029	0.00018	8e-05	0.00012	5
21848	0.00023	5e-05	6e-05	-0.00015	0.00018	0.00012	6e-05	0.00013	5
21849	0.00023	5e-05	6e-05	-0.00015	0.00018	0.00012	6e-05	0.00013	5
21850	0.00023	5e-05	6e-05	-0.00015	0.00018	0.00012	6e-05	0.00013	5
21851	0.00023	5e-05	6e-05	-0.00015	0.00018	0.00012	6e-05	0.00013	5
21852	0.00023	5e-05	6e-05	-0.00015	0.00018	0.00012	6e-05	0.00013	5
21853	0.00023	5e-05	6e-05	-0.00015	0.00018	0.00012	6e-05	0.00013	5
21854	0.00023	5e-05	6e-05	-0.00015	0.00018	0.00012	6e-05	0.00013	5
21855	0.00023	5e-05	6e-05	-0.00015	0.00018	0.00012	6e-05	0.00013	5
21856	0.00023	5e-05	6e-05	-0.00015	0.00018	0.00012	6e-05	0.00013	5
21857	0.00023	5e-05	6e-05	-0.00015	0.00018	0.00012	6e-05	0.00013	5
21858	0.00023	5e-05	6e-05	-0.00015	0.00018	0.00012	6e-05	0.00013	5
21859	0.00023	5e-05	6e-05	-0.00015	0.00018	0.00012	6e-05	0.00013	5
21860	0.00023	5e-05	6e-05	-0.00015	0.00018	0.00012	6e-05	0.00013	5
21861	0.00023	5e-05	6e-05	-0.00015	0.00018	0.00012	6e-05	0.00013	5
21862	0.00023	5e-05	6e-05	-0.00015	0.00018	0.00012	6e-05	0.00013	5
21863	0.00023	5e-05	6e-05	-0.00015	0.00018	0.00012	6e-05	0.00013	5
21864	0.00023	5e-05	6e-05	-0.00015	0.00018	0.00012	6e-05	0.00013	5
21865	0.00023	5e-05	6e-05	-0.00015	0.00018	0.00012	6e-05	0.00013	5
21866	0.00023	5e-05	6e-05	-0.00015	0.00018	0.00012	6e-05	0.00013	5
21867	0.00023	5e-05	6e-05	-0.00015	0.00018	0.00012	6e-05	0.00013	5
21868	0.00023	5e-05	6e-05	-0.00015	0.00018	0.00012	6e-05	0.00013	5
21869	-0.00017	-0.00011	-8e-05	0.00011	3e-05	-6e-05	-6e-05	-3e-05	5
21870	2e-05	0	-1e-05	0	-3e-05	-4e-05	1e-05	7e-05	5
21871	2e-05	0	-1e-05	0	-3e-05	-4e-05	1e-05	7e-05	5
21872	2e-05	0	-1e-05	0	-3e-05	-4e-05	1e-05	7e-05	5
21873	2e-05	0	-1e-05	0	-3e-05	-4e-05	1e-05	7e-05	5
21874	2e-05	0	-1e-05	0	-3e-05	-4e-05	1e-05	7e-05	5
21875	2e-05	0	-1e-05	0	-3e-05	-4e-05	1e-05	7e-05	5
21876	2e-05	0	-1e-05	0	-3e-05	-4e-05	1e-05	7e-05	5
21877	2e-05	0	-1e-05	0	-3e-05	-4e-05	1e-05	7e-05	5
21878	2e-05	0	-1e-05	0	-3e-05	-4e-05	1e-05	7e-05	5
21879	2e-05	0	-1e-05	0	-3e-05	-4e-05	1e-05	7e-05	5
21880	2e-05	0	-1e-05	0	-3e-05	-4e-05	1e-05	7e-05	5
21881	2e-05	0	-1e-05	0	-3e-05	-4e-05	1e-05	7e-05	5
21882	2e-05	0	-1e-05	0	-3e-05	-4e-05	1e-05	7e-05	5
21883	0.0001	-3e-05	0.00012	0.00038	-0.00011	-7e-05	-1e-05	4e-05	5
21884	0.0001	-3e-05	0.00012	0.00038	-0.00011	-7e-05	-1e-05	4e-05	5
21885	0.0001	-3e-05	0.00012	0.00038	-0.00011	-7e-05	-1e-05	4e-05	5
21886	0.0001	-3e-05	0.00012	0.00038	-0.00011	-7e-05	-1e-05	4e-05	5
21888	0.0001	-3e-05	0.00012	0.00038	-0.00011	-7e-05	-1e-05	4e-05	5
21889	0.0001	-3e-05	0.00012	0.00038	-0.00011	-7e-05	-1e-05	4e-05	5
21890	-0.00014	-7e-05	-0.0001	-2e-05	-0.00043	-0.00012	-7e-05	-0.0001	5
21891	-0.00014	-7e-05	-0.0001	-2e-05	-0.00043	-0.00012	-7e-05	-0.0001	5
21892	-0.00014	-7e-05	-0.0001	-2e-05	-0.00043	-0.00012	-7e-05	-0.0001	5
21893	-0.00014	-7e-05	-0.0001	-2e-05	-0.00043	-0.00012	-7e-05	-0.0001	5
21894	-0.00014	-7e-05	-0.0001	-2e-05	-0.00043	-0.00012	-7e-05	-0.0001	5
21895	-0.00014	-7e-05	-0.0001	-2e-05	-0.00043	-0.00012	-7e-05	-0.0001	5
21896	-0.00014	-7e-05	-0.0001	-2e-05	-0.00043	-0.00012	-7e-05	-0.0001	5
21897	-0.00014	-7e-05	-0.0001	-2e-05	-0.00043	-0.00012	-7e-05	-0.0001	5
21898	-0.00014	-7e-05	-0.0001	-2e-05	-0.00043	-0.00012	-7e-05	-0.0001	5
21899	-0.00014	-7e-05	-0.0001	-2e-05	-0.00043	-0.00012	-7e-05	-0.0001	5
21900	-0.00014	-7e-05	-0.0001	-2e-05	-0.00043	-0.00012	-7e-05	-0.0001	5
21901	-0.00014	-7e-05	-0.0001	-2e-05	-0.00043	-0.00012	-7e-05	-0.0001	5
21902	-0.00014	-7e-05	-0.0001	-2e-05	-0.00043	-0.00012	-7e-05	-0.0001	5
21903	-0.00014	-7e-05	-0.0001	-2e-05	-0.00043	-0.00012	-7e-05	-0.0001	5
21904	-0.00014	-7e-05	-0.0001	-2e-05	-0.00043	-0.00012	-7e-05	-0.0001	5
21905	-0.00014	-7e-05	-0.0001	-2e-05	-0.00043	-0.00012	-7e-05	-0.0001	5
21906	-5e-05	5e-05	0.00015	0.00047	0.00088	0.00027	6e-05	-2e-05	5
21907	-5e-05	5e-05	0.00015	0.00047	0.00088	0.00027	6e-05	-2e-05	5
21908	-3e-05	3e-05	-9e-05	-0.00098	-0.00057	-7e-05	3e-05	-3e-05	5
21909	-3e-05	3e-05	-9e-05	-0.00098	-0.00057	-7e-05	3e-05	-3e-05	5
21910	-3e-05	3e-05	-9e-05	-0.00098	-0.00057	-7e-05	3e-05	-3e-05	5
21911	-3e-05	3e-05	-9e-05	-0.00098	-0.00057	-7e-05	3e-05	-3e-05	5
21912	-3e-05	3e-05	-9e-05	-0.00098	-0.00057	-7e-05	3e-05	-3e-05	5
21913	-3e-05	3e-05	-9e-05	-0.00098	-0.00057	-7e-05	3e-05	-3e-05	5
21914	-3e-05	3e-05	-9e-05	-0.00098	-0.00057	-7e-05	3e-05	-3e-05	5
21915	-3e-05	3e-05	-9e-05	-0.00098	-0.00057	-7e-05	3e-05	-3e-05	5
21916	-3e-05	3e-05	-9e-05	-0.00098	-0.00057	-7e-05	3e-05	-3e-05	5
21917	-3e-05	3e-05	-9e-05	-0.00098	-0.00057	-7e-05	3e-05	-3e-05	5
21918	-3e-05	3e-05	-9e-05	-0.00098	-0.00057	-7e-05	3e-05	-3e-05	5
21919	-3e-05	3e-05	-9e-05	-0.00098	-0.00057	-7e-05	3e-05	-3e-05	5
21920	-3e-05	3e-05	-9e-05	-0.00098	-0.00057	-7e-05	3e-05	-3e-05	5
21921	-3e-05	3e-05	-9e-05	-0.00098	-0.00057	-7e-05	3e-05	-3e-05	5
21922	-3e-05	3e-05	-9e-05	-0.00098	-0.00057	-7e-05	3e-05	-3e-05	5
21923	-3e-05	3e-05	-9e-05	-0.00098	-0.00057	-7e-05	3e-05	-3e-05	5
21924	-3e-05	3e-05	-9e-05	-0.00098	-0.00057	-7e-05	3e-05	-3e-05	5
21926	-3e-05	3e-05	-9e-05	-0.00098	-0.00057	-7e-05	3e-05	-3e-05	5
21927	-3e-05	3e-05	-9e-05	-0.00098	-0.00057	-7e-05	3e-05	-3e-05	5
21928	-3e-05	3e-05	-9e-05	-0.00098	-0.00057	-7e-05	3e-05	-3e-05	5
21929	7e-05	-3e-05	-8e-05	-0.00043	-0.00017	1e-05	0	3e-05	5
21930	7e-05	-3e-05	-8e-05	-0.00043	-0.00017	1e-05	0	3e-05	5
21931	-2e-05	-4e-05	-2e-05	0.00014	0.00032	-5e-05	-5e-05	0	5
21932	-2e-05	-4e-05	-2e-05	0.00014	0.00032	-5e-05	-5e-05	0	5
21933	-2e-05	-4e-05	-2e-05	0.00014	0.00032	-5e-05	-5e-05	0	5
21934	-2e-05	-4e-05	-2e-05	0.00014	0.00032	-5e-05	-5e-05	0	5
21935	-2e-05	-4e-05	-2e-05	0.00014	0.00032	-5e-05	-5e-05	0	5
21936	-2e-05	-4e-05	-2e-05	0.00014	0.00032	-5e-05	-5e-05	0	5
21938	-2e-05	-4e-05	-2e-05	0.00014	0.00032	-5e-05	-5e-05	0	5
21939	-2e-05	-4e-05	-2e-05	0.00014	0.00032	-5e-05	-5e-05	0	5
21940	-2e-05	-4e-05	-2e-05	0.00014	0.00032	-5e-05	-5e-05	0	5
21941	-2e-05	-4e-05	-2e-05	0.00014	0.00032	-5e-05	-5e-05	0	5
21942	-2e-05	-4e-05	-2e-05	0.00014	0.00032	-5e-05	-5e-05	0	5
21943	3e-05	4e-05	8e-05	0.00015	0.00025	7e-05	7e-05	9e-05	5
21944	3e-05	4e-05	8e-05	0.00015	0.00025	7e-05	7e-05	9e-05	5
21945	3e-05	4e-05	8e-05	0.00015	0.00025	7e-05	7e-05	9e-05	5
21946	3e-05	4e-05	8e-05	0.00015	0.00025	7e-05	7e-05	9e-05	5
21947	3e-05	4e-05	8e-05	0.00015	0.00025	7e-05	7e-05	9e-05	5
21948	3e-05	4e-05	8e-05	0.00015	0.00025	7e-05	7e-05	9e-05	5
21949	3e-05	4e-05	8e-05	0.00015	0.00025	7e-05	7e-05	9e-05	5
21950	-0.00029	-0.00012	-7e-05	9e-05	2e-05	-0.00013	-6e-05	-0.00015	5
21951	-0.00029	-0.00012	-7e-05	9e-05	2e-05	-0.00013	-6e-05	-0.00015	5
21952	-0.00029	-0.00012	-7e-05	9e-05	2e-05	-0.00013	-6e-05	-0.00015	5
21953	-0.00029	-0.00012	-7e-05	9e-05	2e-05	-0.00013	-6e-05	-0.00015	5
21954	-0.00029	-0.00012	-7e-05	9e-05	2e-05	-0.00013	-6e-05	-0.00015	5
21955	-0.00029	-0.00012	-7e-05	9e-05	2e-05	-0.00013	-6e-05	-0.00015	5
21956	-0.00029	-0.00012	-7e-05	9e-05	2e-05	-0.00013	-6e-05	-0.00015	5
21957	-0.00029	-0.00012	-7e-05	9e-05	2e-05	-0.00013	-6e-05	-0.00015	5
21958	-0.00029	-0.00012	-7e-05	9e-05	2e-05	-0.00013	-6e-05	-0.00015	5
21959	-0.00029	-0.00012	-7e-05	9e-05	2e-05	-0.00013	-6e-05	-0.00015	5
21960	-0.00029	-0.00012	-7e-05	9e-05	2e-05	-0.00013	-6e-05	-0.00015	5
21961	-0.00029	-0.00012	-7e-05	9e-05	2e-05	-0.00013	-6e-05	-0.00015	5
21962	-0.00029	-0.00012	-7e-05	9e-05	2e-05	-0.00013	-6e-05	-0.00015	5
21963	-0.00029	-0.00012	-7e-05	9e-05	2e-05	-0.00013	-6e-05	-0.00015	5
21964	-0.00029	-0.00012	-7e-05	9e-05	2e-05	-0.00013	-6e-05	-0.00015	5
21965	-0.00029	-0.00012	-7e-05	9e-05	2e-05	-0.00013	-6e-05	-0.00015	5
21966	-6e-05	-4e-05	-0.00011	7e-05	-0.00034	-0.00011	-7e-05	-9e-05	5
21967	-6e-05	-4e-05	-0.00011	7e-05	-0.00034	-0.00011	-7e-05	-9e-05	5
21968	4e-05	3e-05	9e-05	0.00076	-0.00023	-8e-05	-2e-05	0	5
21969	4e-05	3e-05	9e-05	0.00076	-0.00023	-8e-05	-2e-05	0	5
21970	4e-05	3e-05	9e-05	0.00076	-0.00023	-8e-05	-2e-05	0	5
21971	4e-05	3e-05	9e-05	0.00076	-0.00023	-8e-05	-2e-05	0	5
21972	4e-05	3e-05	9e-05	0.00076	-0.00023	-8e-05	-2e-05	0	5
21973	4e-05	3e-05	9e-05	0.00076	-0.00023	-8e-05	-2e-05	0	5
21974	4e-05	3e-05	9e-05	0.00076	-0.00023	-8e-05	-2e-05	0	5
21975	4e-05	3e-05	9e-05	0.00076	-0.00023	-8e-05	-2e-05	0	5
21976	4e-05	3e-05	9e-05	0.00076	-0.00023	-8e-05	-2e-05	0	5
21977	4e-05	3e-05	9e-05	0.00076	-0.00023	-8e-05	-2e-05	0	5
21978	4e-05	3e-05	9e-05	0.00076	-0.00023	-8e-05	-2e-05	0	5
21979	4e-05	3e-05	9e-05	0.00076	-0.00023	-8e-05	-2e-05	0	5
21980	4e-05	3e-05	9e-05	0.00076	-0.00023	-8e-05	-2e-05	0	5
21981	4e-05	3e-05	9e-05	0.00076	-0.00023	-8e-05	-2e-05	0	5
21982	4e-05	3e-05	9e-05	0.00076	-0.00023	-8e-05	-2e-05	0	5
21983	4e-05	3e-05	9e-05	0.00076	-0.00023	-8e-05	-2e-05	0	5
21984	4e-05	3e-05	9e-05	0.00076	-0.00023	-8e-05	-2e-05	0	5
21985	4e-05	3e-05	9e-05	0.00076	-0.00023	-8e-05	-2e-05	0	5
21986	4e-05	3e-05	9e-05	0.00076	-0.00023	-8e-05	-2e-05	0	5
21988	4e-05	3e-05	9e-05	0.00076	-0.00023	-8e-05	-2e-05	0	5
21989	-4e-05	-3e-05	-4e-05	-0.00045	-0.0004	-0.00012	-2e-05	-2e-05	5
21990	4e-05	-5e-05	-8e-05	-0.00024	0.00024	1e-05	-1e-05	1e-05	5
21991	4e-05	-5e-05	-8e-05	-0.00024	0.00024	1e-05	-1e-05	1e-05	5
21992	4e-05	-5e-05	-8e-05	-0.00024	0.00024	1e-05	-1e-05	1e-05	5
21993	4e-05	-5e-05	-8e-05	-0.00024	0.00024	1e-05	-1e-05	1e-05	5
21994	4e-05	-5e-05	-8e-05	-0.00024	0.00024	1e-05	-1e-05	1e-05	5
21995	4e-05	-5e-05	-8e-05	-0.00024	0.00024	1e-05	-1e-05	1e-05	5
21996	4e-05	-5e-05	-8e-05	-0.00024	0.00024	1e-05	-1e-05	1e-05	5
21997	4e-05	-5e-05	-8e-05	-0.00024	0.00024	1e-05	-1e-05	1e-05	5
21998	4e-05	-5e-05	-8e-05	-0.00024	0.00024	1e-05	-1e-05	1e-05	5
21999	4e-05	-5e-05	-8e-05	-0.00024	0.00024	1e-05	-1e-05	1e-05	5
22000	4e-05	-5e-05	-8e-05	-0.00024	0.00024	1e-05	-1e-05	1e-05	5
22001	4e-05	-5e-05	-8e-05	-0.00024	0.00024	1e-05	-1e-05	1e-05	5
22002	4e-05	-5e-05	-8e-05	-0.00024	0.00024	1e-05	-1e-05	1e-05	5
22003	-7e-05	-5e-05	-0.00016	-0.0002	9e-05	0	2e-05	-2e-05	5
22004	-7e-05	-5e-05	-0.00016	-0.0002	9e-05	0	2e-05	-2e-05	5
22005	-7e-05	-5e-05	-0.00016	-0.0002	9e-05	0	2e-05	-2e-05	5
22006	-7e-05	-5e-05	-0.00016	-0.0002	9e-05	0	2e-05	-2e-05	5
22007	-7e-05	-5e-05	-0.00016	-0.0002	9e-05	0	2e-05	-2e-05	5
22008	-7e-05	-5e-05	-0.00016	-0.0002	9e-05	0	2e-05	-2e-05	5
22009	-7e-05	-5e-05	-0.00016	-0.0002	9e-05	0	2e-05	-2e-05	5
22010	-4e-05	-3e-05	-2e-05	3e-05	-3e-05	3e-05	-2e-05	-4e-05	5
22011	-4e-05	-3e-05	-2e-05	3e-05	-3e-05	3e-05	-2e-05	-4e-05	5
22012	-4e-05	-3e-05	-2e-05	3e-05	-3e-05	3e-05	-2e-05	-4e-05	5
22013	-4e-05	-3e-05	-2e-05	3e-05	-3e-05	3e-05	-2e-05	-4e-05	5
22014	-4e-05	-3e-05	-2e-05	3e-05	-3e-05	3e-05	-2e-05	-4e-05	5
22015	-4e-05	-3e-05	-2e-05	3e-05	-3e-05	3e-05	-2e-05	-4e-05	5
22016	-4e-05	-3e-05	-2e-05	3e-05	-3e-05	3e-05	-2e-05	-4e-05	5
22017	-4e-05	-3e-05	-2e-05	3e-05	-3e-05	3e-05	-2e-05	-4e-05	5
22018	-4e-05	-3e-05	-2e-05	3e-05	-3e-05	3e-05	-2e-05	-4e-05	5
22019	-4e-05	-3e-05	-2e-05	3e-05	-3e-05	3e-05	-2e-05	-4e-05	5
22020	-4e-05	-3e-05	-2e-05	3e-05	-3e-05	3e-05	-2e-05	-4e-05	5
22021	-4e-05	-3e-05	-2e-05	3e-05	-3e-05	3e-05	-2e-05	-4e-05	5
22022	-4e-05	-3e-05	-2e-05	3e-05	-3e-05	3e-05	-2e-05	-4e-05	5
22023	-4e-05	-3e-05	-2e-05	3e-05	-3e-05	3e-05	-2e-05	-4e-05	5
22024	-4e-05	-3e-05	-2e-05	3e-05	-3e-05	3e-05	-2e-05	-4e-05	5
22027	-4e-05	-3e-05	-2e-05	3e-05	-3e-05	3e-05	-2e-05	-4e-05	5
22028	-4e-05	-3e-05	-2e-05	3e-05	-3e-05	3e-05	-2e-05	-4e-05	5
22029	-4e-05	-3e-05	-2e-05	3e-05	-3e-05	3e-05	-2e-05	-4e-05	5
22030	-4e-05	-3e-05	-2e-05	3e-05	-3e-05	3e-05	-2e-05	-4e-05	5
22031	-4e-05	-3e-05	-2e-05	3e-05	-3e-05	3e-05	-2e-05	-4e-05	5
22032	-4e-05	-3e-05	-2e-05	3e-05	-3e-05	3e-05	-2e-05	-4e-05	5
22033	-4e-05	-3e-05	-2e-05	3e-05	-3e-05	3e-05	-2e-05	-4e-05	5
22034	-1e-05	-2e-05	-7e-05	-0.0001	-5e-05	1e-05	-5e-05	0	5
22035	0.00015	-1e-05	-0.00014	-4e-05	0.00018	8e-05	4e-05	0.00014	5
22036	0.00015	-1e-05	-0.00014	-4e-05	0.00018	8e-05	4e-05	0.00014	5
22038	0.00015	-1e-05	-0.00014	-4e-05	0.00018	8e-05	4e-05	0.00014	5
22039	0.00015	-1e-05	-0.00014	-4e-05	0.00018	8e-05	4e-05	0.00014	5
22040	0.00015	-1e-05	-0.00014	-4e-05	0.00018	8e-05	4e-05	0.00014	5
22041	0.00015	-1e-05	-0.00014	-4e-05	0.00018	8e-05	4e-05	0.00014	5
22042	0.00015	-1e-05	-0.00014	-4e-05	0.00018	8e-05	4e-05	0.00014	5
22043	0.00015	-1e-05	-0.00014	-4e-05	0.00018	8e-05	4e-05	0.00014	5
22044	0.00015	-1e-05	-0.00014	-4e-05	0.00018	8e-05	4e-05	0.00014	5
22045	0.00015	-1e-05	-0.00014	-4e-05	0.00018	8e-05	4e-05	0.00014	5
22046	0.00015	-1e-05	-0.00014	-4e-05	0.00018	8e-05	4e-05	0.00014	5
22047	0.00015	-1e-05	-0.00014	-4e-05	0.00018	8e-05	4e-05	0.00014	5
22048	0.00015	-1e-05	-0.00014	-4e-05	0.00018	8e-05	4e-05	0.00014	5
22049	2e-05	-5e-05	3e-05	4e-05	-0.00033	-0.00014	-8e-05	-4e-05	5
22050	2e-05	0	-4e-05	-0.0004	0.0001	1e-05	0	9e-05	5
22051	2e-05	0	-4e-05	-0.0004	0.0001	1e-05	0	9e-05	5
22052	2e-05	0	-4e-05	-0.0004	0.0001	1e-05	0	9e-05	5
22053	2e-05	0	-4e-05	-0.0004	0.0001	1e-05	0	9e-05	5
22054	2e-05	0	-4e-05	-0.0004	0.0001	1e-05	0	9e-05	5
22055	2e-05	0	-4e-05	-0.0004	0.0001	1e-05	0	9e-05	5
22056	2e-05	0	-4e-05	-0.0004	0.0001	1e-05	0	9e-05	5
22057	2e-05	0	-4e-05	-0.0004	0.0001	1e-05	0	9e-05	5
22058	2e-05	0	-4e-05	-0.0004	0.0001	1e-05	0	9e-05	5
22059	2e-05	0	-4e-05	-0.0004	0.0001	1e-05	0	9e-05	5
22060	2e-05	0	-4e-05	-0.0004	0.0001	1e-05	0	9e-05	5
22061	2e-05	0	-4e-05	-0.0004	0.0001	1e-05	0	9e-05	5
22062	2e-05	0	-4e-05	-0.0004	0.0001	1e-05	0	9e-05	5
22063	-5e-05	2e-05	4e-05	-0.00016	0.00018	7e-05	0	-6e-05	5
22064	-5e-05	2e-05	4e-05	-0.00016	0.00018	7e-05	0	-6e-05	5
22065	-5e-05	2e-05	4e-05	-0.00016	0.00018	7e-05	0	-6e-05	5
22066	-5e-05	2e-05	4e-05	-0.00016	0.00018	7e-05	0	-6e-05	5
22067	-5e-05	2e-05	4e-05	-0.00016	0.00018	7e-05	0	-6e-05	5
22068	-5e-05	2e-05	4e-05	-0.00016	0.00018	7e-05	0	-6e-05	5
22069	-5e-05	2e-05	4e-05	-0.00016	0.00018	7e-05	0	-6e-05	5
22070	0.00011	1e-05	-4e-05	-0.00016	-9e-05	-1e-05	1e-05	0	5
22071	0.00011	1e-05	-4e-05	-0.00016	-9e-05	-1e-05	1e-05	0	5
22072	0.00011	1e-05	-4e-05	-0.00016	-9e-05	-1e-05	1e-05	0	5
22073	0.00011	1e-05	-4e-05	-0.00016	-9e-05	-1e-05	1e-05	0	5
22074	0.00011	1e-05	-4e-05	-0.00016	-9e-05	-1e-05	1e-05	0	5
22075	0.00011	1e-05	-4e-05	-0.00016	-9e-05	-1e-05	1e-05	0	5
22076	0.00011	1e-05	-4e-05	-0.00016	-9e-05	-1e-05	1e-05	0	5
22077	0.00011	1e-05	-4e-05	-0.00016	-9e-05	-1e-05	1e-05	0	5
22078	0.00011	1e-05	-4e-05	-0.00016	-9e-05	-1e-05	1e-05	0	5
22079	0.00011	1e-05	-4e-05	-0.00016	-9e-05	-1e-05	1e-05	0	5
22080	0.00011	1e-05	-4e-05	-0.00016	-9e-05	-1e-05	1e-05	0	5
22081	0.00011	1e-05	-4e-05	-0.00016	-9e-05	-1e-05	1e-05	0	5
22082	0.00011	1e-05	-4e-05	-0.00016	-9e-05	-1e-05	1e-05	0	5
22083	0.00011	1e-05	-4e-05	-0.00016	-9e-05	-1e-05	1e-05	0	5
22084	0.00011	1e-05	-4e-05	-0.00016	-9e-05	-1e-05	1e-05	0	5
22085	0.00011	1e-05	-4e-05	-0.00016	-9e-05	-1e-05	1e-05	0	5
22086	5e-05	0.00012	8e-05	-0.0002	0.00011	2e-05	4e-05	3e-05	5
22088	-0.00013	7e-05	0.00013	0.00063	0.0004	0.00016	5e-05	-0.0001	5
22089	-0.00013	7e-05	0.00013	0.00063	0.0004	0.00016	5e-05	-0.0001	5
22090	-0.00013	7e-05	0.00013	0.00063	0.0004	0.00016	5e-05	-0.0001	5
22091	-0.00013	7e-05	0.00013	0.00063	0.0004	0.00016	5e-05	-0.0001	5
22092	-0.00013	7e-05	0.00013	0.00063	0.0004	0.00016	5e-05	-0.0001	5
22093	-0.00013	7e-05	0.00013	0.00063	0.0004	0.00016	5e-05	-0.0001	5
22094	-0.00013	7e-05	0.00013	0.00063	0.0004	0.00016	5e-05	-0.0001	5
22095	-0.00013	7e-05	0.00013	0.00063	0.0004	0.00016	5e-05	-0.0001	5
22096	-0.00013	7e-05	0.00013	0.00063	0.0004	0.00016	5e-05	-0.0001	5
22097	-0.00013	7e-05	0.00013	0.00063	0.0004	0.00016	5e-05	-0.0001	5
22098	-0.00013	7e-05	0.00013	0.00063	0.0004	0.00016	5e-05	-0.0001	5
22099	-0.00013	7e-05	0.00013	0.00063	0.0004	0.00016	5e-05	-0.0001	5
22100	-0.00013	7e-05	0.00013	0.00063	0.0004	0.00016	5e-05	-0.0001	5
22101	-0.00013	7e-05	0.00013	0.00063	0.0004	0.00016	5e-05	-0.0001	5
22102	-0.00013	7e-05	0.00013	0.00063	0.0004	0.00016	5e-05	-0.0001	5
22103	-0.00013	7e-05	0.00013	0.00063	0.0004	0.00016	5e-05	-0.0001	5
22104	-0.00013	7e-05	0.00013	0.00063	0.0004	0.00016	5e-05	-0.0001	5
22105	-0.00013	7e-05	0.00013	0.00063	0.0004	0.00016	5e-05	-0.0001	5
22106	-0.00013	7e-05	0.00013	0.00063	0.0004	0.00016	5e-05	-0.0001	5
22107	-0.00013	7e-05	0.00013	0.00063	0.0004	0.00016	5e-05	-0.0001	5
22108	-0.00013	7e-05	0.00013	0.00063	0.0004	0.00016	5e-05	-0.0001	5
22109	-3e-05	-4e-05	4e-05	0.00019	-0.00013	-8e-05	-5e-05	-7e-05	5
22110	-0.00011	-2e-05	4e-05	-0.00041	-0.00039	-3e-05	-2e-05	-0.00015	5
22111	-0.00011	-2e-05	4e-05	-0.00041	-0.00039	-3e-05	-2e-05	-0.00015	5
22112	-0.00011	-2e-05	4e-05	-0.00041	-0.00039	-3e-05	-2e-05	-0.00015	5
22113	-0.00011	-2e-05	4e-05	-0.00041	-0.00039	-3e-05	-2e-05	-0.00015	5
22114	-0.00011	-2e-05	4e-05	-0.00041	-0.00039	-3e-05	-2e-05	-0.00015	5
22115	-0.00011	-2e-05	4e-05	-0.00041	-0.00039	-3e-05	-2e-05	-0.00015	5
22116	-0.00011	-2e-05	4e-05	-0.00041	-0.00039	-3e-05	-2e-05	-0.00015	5
22117	-0.00011	-2e-05	4e-05	-0.00041	-0.00039	-3e-05	-2e-05	-0.00015	5
22118	-0.00011	-2e-05	4e-05	-0.00041	-0.00039	-3e-05	-2e-05	-0.00015	5
22119	-0.00011	-2e-05	4e-05	-0.00041	-0.00039	-3e-05	-2e-05	-0.00015	5
22120	-0.00011	-2e-05	4e-05	-0.00041	-0.00039	-3e-05	-2e-05	-0.00015	5
22121	-0.00011	-2e-05	4e-05	-0.00041	-0.00039	-3e-05	-2e-05	-0.00015	5
22122	4e-05	-0.0001	-0.00016	-0.00023	-0.00025	-0.00015	-6e-05	8e-05	5
22123	4e-05	-3e-05	-4e-05	-0.00049	3e-05	5e-05	0	-4e-05	5
22124	4e-05	-3e-05	-4e-05	-0.00049	3e-05	5e-05	0	-4e-05	5
22125	4e-05	-3e-05	-4e-05	-0.00049	3e-05	5e-05	0	-4e-05	5
22126	4e-05	-3e-05	-4e-05	-0.00049	3e-05	5e-05	0	-4e-05	5
22127	4e-05	-3e-05	-4e-05	-0.00049	3e-05	5e-05	0	-4e-05	5
22128	4e-05	-3e-05	-4e-05	-0.00049	3e-05	5e-05	0	-4e-05	5
22129	4e-05	-3e-05	-4e-05	-0.00049	3e-05	5e-05	0	-4e-05	5
22130	4e-05	-3e-05	-4e-05	-0.00049	3e-05	5e-05	0	-4e-05	5
22131	-3e-05	6e-05	7e-05	0.00036	0.00018	0	0	-0.0001	5
22132	-3e-05	6e-05	7e-05	0.00036	0.00018	0	0	-0.0001	5
22133	-3e-05	6e-05	7e-05	0.00036	0.00018	0	0	-0.0001	5
22134	-3e-05	6e-05	7e-05	0.00036	0.00018	0	0	-0.0001	5
22135	-3e-05	6e-05	7e-05	0.00036	0.00018	0	0	-0.0001	5
22136	-3e-05	6e-05	7e-05	0.00036	0.00018	0	0	-0.0001	5
22138	-3e-05	6e-05	7e-05	0.00036	0.00018	0	0	-0.0001	5
22139	-3e-05	6e-05	7e-05	0.00036	0.00018	0	0	-0.0001	5
22140	-3e-05	6e-05	7e-05	0.00036	0.00018	0	0	-0.0001	5
22141	-3e-05	6e-05	7e-05	0.00036	0.00018	0	0	-0.0001	5
22142	-3e-05	6e-05	7e-05	0.00036	0.00018	0	0	-0.0001	5
22143	-3e-05	6e-05	7e-05	0.00036	0.00018	0	0	-0.0001	5
22144	-3e-05	6e-05	7e-05	0.00036	0.00018	0	0	-0.0001	5
22145	0	-5e-05	1e-05	0.00024	0	-5e-05	-1e-05	0	5
22146	1e-05	-6e-05	-0.00012	-9e-05	-7e-05	-2e-05	0	4e-05	5
22147	1e-05	-6e-05	-0.00012	-9e-05	-7e-05	-2e-05	0	4e-05	5
22148	1e-05	-6e-05	-0.00012	-9e-05	-7e-05	-2e-05	0	4e-05	5
22149	1e-05	-6e-05	-0.00012	-9e-05	-7e-05	-2e-05	0	4e-05	5
22150	1e-05	-6e-05	-0.00012	-9e-05	-7e-05	-2e-05	0	4e-05	5
22151	1e-05	-6e-05	-0.00012	-9e-05	-7e-05	-2e-05	0	4e-05	5
22152	1e-05	-6e-05	-0.00012	-9e-05	-7e-05	-2e-05	0	4e-05	5
22153	1e-05	-6e-05	-0.00012	-9e-05	-7e-05	-2e-05	0	4e-05	5
22154	-2e-05	4e-05	0.00011	-1e-05	0.00014	5e-05	2e-05	3e-05	5
22155	-2e-05	4e-05	0.00011	-1e-05	0.00014	5e-05	2e-05	3e-05	5
22156	-2e-05	4e-05	0.00011	-1e-05	0.00014	5e-05	2e-05	3e-05	5
22157	-2e-05	4e-05	0.00011	-1e-05	0.00014	5e-05	2e-05	3e-05	5
22158	-2e-05	4e-05	0.00011	-1e-05	0.00014	5e-05	2e-05	3e-05	5
22159	-2e-05	4e-05	0.00011	-1e-05	0.00014	5e-05	2e-05	3e-05	5
22160	-2e-05	4e-05	0.00011	-1e-05	0.00014	5e-05	2e-05	3e-05	5
22161	-2e-05	4e-05	0.00011	-1e-05	0.00014	5e-05	2e-05	3e-05	5
22162	-2e-05	4e-05	0.00011	-1e-05	0.00014	5e-05	2e-05	3e-05	5
22163	-2e-05	4e-05	0.00011	-1e-05	0.00014	5e-05	2e-05	3e-05	5
22164	-2e-05	4e-05	0.00011	-1e-05	0.00014	5e-05	2e-05	3e-05	5
22165	-2e-05	4e-05	0.00011	-1e-05	0.00014	5e-05	2e-05	3e-05	5
22166	-2e-05	4e-05	0.00011	-1e-05	0.00014	5e-05	2e-05	3e-05	5
22167	-2e-05	4e-05	0.00011	-1e-05	0.00014	5e-05	2e-05	3e-05	5
22168	-2e-05	4e-05	0.00011	-1e-05	0.00014	5e-05	2e-05	3e-05	5
22169	-3e-05	-1e-05	-8e-05	-0.00018	-0.00017	-7e-05	-1e-05	-1e-05	5
22170	7e-05	2e-05	-3e-05	-0.00033	-4e-05	6e-05	2e-05	5e-05	5
22171	7e-05	2e-05	-3e-05	-0.00033	-4e-05	6e-05	2e-05	5e-05	5
22172	7e-05	2e-05	-3e-05	-0.00033	-4e-05	6e-05	2e-05	5e-05	5
22173	7e-05	2e-05	-3e-05	-0.00033	-4e-05	6e-05	2e-05	5e-05	5
22174	7e-05	2e-05	-3e-05	-0.00033	-4e-05	6e-05	2e-05	5e-05	5
22175	7e-05	2e-05	-3e-05	-0.00033	-4e-05	6e-05	2e-05	5e-05	5
22176	7e-05	2e-05	-3e-05	-0.00033	-4e-05	6e-05	2e-05	5e-05	5
22177	7e-05	2e-05	-3e-05	-0.00033	-4e-05	6e-05	2e-05	5e-05	5
22178	7e-05	2e-05	-3e-05	-0.00033	-4e-05	6e-05	2e-05	5e-05	5
22179	7e-05	2e-05	-3e-05	-0.00033	-4e-05	6e-05	2e-05	5e-05	5
22180	7e-05	2e-05	-3e-05	-0.00033	-4e-05	6e-05	2e-05	5e-05	5
22181	7e-05	2e-05	-3e-05	-0.00033	-4e-05	6e-05	2e-05	5e-05	5
22182	-3e-05	-4e-05	-4e-05	0	0.00061	0.00014	4e-05	-6e-05	5
22183	-3e-05	-4e-05	-4e-05	0	0.00061	0.00014	4e-05	-6e-05	5
22184	-3e-05	-4e-05	-4e-05	0	0.00061	0.00014	4e-05	-6e-05	5
22185	-3e-05	-4e-05	-4e-05	0	0.00061	0.00014	4e-05	-6e-05	5
22186	-3e-05	-4e-05	-4e-05	0	0.00061	0.00014	4e-05	-6e-05	5
22188	-3e-05	-4e-05	-4e-05	0	0.00061	0.00014	4e-05	-6e-05	5
22189	-3e-05	-4e-05	-4e-05	0	0.00061	0.00014	4e-05	-6e-05	5
22190	-3e-05	-4e-05	-4e-05	0	0.00061	0.00014	4e-05	-6e-05	5
22191	-3e-05	-4e-05	-4e-05	0	0.00061	0.00014	4e-05	-6e-05	5
22192	-3e-05	-4e-05	-4e-05	0	0.00061	0.00014	4e-05	-6e-05	5
22193	-3e-05	-4e-05	-4e-05	0	0.00061	0.00014	4e-05	-6e-05	5
22194	-3e-05	-4e-05	-4e-05	0	0.00061	0.00014	4e-05	-6e-05	5
22195	-3e-05	-4e-05	-4e-05	0	0.00061	0.00014	4e-05	-6e-05	5
22196	-3e-05	-4e-05	-4e-05	0	0.00061	0.00014	4e-05	-6e-05	5
22197	-3e-05	-4e-05	-4e-05	0	0.00061	0.00014	4e-05	-6e-05	5
22198	-3e-05	-4e-05	-4e-05	0	0.00061	0.00014	4e-05	-6e-05	5
22199	-3e-05	-4e-05	-4e-05	0	0.00061	0.00014	4e-05	-6e-05	5
22200	-3e-05	-4e-05	-4e-05	0	0.00061	0.00014	4e-05	-6e-05	5
22201	-3e-05	-4e-05	-4e-05	0	0.00061	0.00014	4e-05	-6e-05	5
22202	-3e-05	-4e-05	-4e-05	0	0.00061	0.00014	4e-05	-6e-05	5
22203	-3e-05	-4e-05	-4e-05	0	0.00061	0.00014	4e-05	-6e-05	5
22204	-3e-05	-4e-05	-4e-05	0	0.00061	0.00014	4e-05	-6e-05	5
22205	-3e-05	-4e-05	-4e-05	0	0.00061	0.00014	4e-05	-6e-05	5
22207	-3e-05	0	-7e-05	-0.00018	7e-05	-3e-05	-3e-05	-6e-05	5
22208	4e-05	1e-05	6e-05	0.00031	-0.00012	-7e-05	-6e-05	5e-05	5
22209	0	3e-05	1e-05	1e-05	-5e-05	2e-05	3e-05	3e-05	5
22210	0	3e-05	1e-05	1e-05	-5e-05	2e-05	3e-05	3e-05	5
22211	0	3e-05	1e-05	1e-05	-5e-05	2e-05	3e-05	3e-05	5
22212	0	3e-05	1e-05	1e-05	-5e-05	2e-05	3e-05	3e-05	5
22213	0	3e-05	1e-05	1e-05	-5e-05	2e-05	3e-05	3e-05	5
22214	0	3e-05	1e-05	1e-05	-5e-05	2e-05	3e-05	3e-05	5
22215	0	3e-05	1e-05	1e-05	-5e-05	2e-05	3e-05	3e-05	5
22216	0	3e-05	1e-05	1e-05	-5e-05	2e-05	3e-05	3e-05	5
22217	0	3e-05	1e-05	1e-05	-5e-05	2e-05	3e-05	3e-05	5
22218	0	3e-05	1e-05	1e-05	-5e-05	2e-05	3e-05	3e-05	5
22219	0	3e-05	1e-05	1e-05	-5e-05	2e-05	3e-05	3e-05	5
22220	0	3e-05	1e-05	1e-05	-5e-05	2e-05	3e-05	3e-05	5
22221	0	3e-05	1e-05	1e-05	-5e-05	2e-05	3e-05	3e-05	5
22222	0	3e-05	1e-05	1e-05	-5e-05	2e-05	3e-05	3e-05	5
22223	0	3e-05	1e-05	1e-05	-5e-05	2e-05	3e-05	3e-05	5
22224	0	3e-05	1e-05	1e-05	-5e-05	2e-05	3e-05	3e-05	5
22225	0	3e-05	1e-05	1e-05	-5e-05	2e-05	3e-05	3e-05	5
22226	0	3e-05	1e-05	1e-05	-5e-05	2e-05	3e-05	3e-05	5
22227	0	3e-05	1e-05	1e-05	-5e-05	2e-05	3e-05	3e-05	5
22228	0	3e-05	1e-05	1e-05	-5e-05	2e-05	3e-05	3e-05	5
22229	0.00015	0	5e-05	0.0005	0.00011	-1e-05	-2e-05	0.00019	5
22230	-5e-05	2e-05	2e-05	-0.00053	-0.0006	0	1e-05	-7e-05	5
22231	4e-05	2e-05	5e-05	0.0004	0.00029	5e-05	4e-05	6e-05	5
22232	4e-05	2e-05	5e-05	0.0004	0.00029	5e-05	4e-05	6e-05	5
22233	4e-05	2e-05	5e-05	0.0004	0.00029	5e-05	4e-05	6e-05	5
22234	4e-05	2e-05	5e-05	0.0004	0.00029	5e-05	4e-05	6e-05	5
22235	4e-05	2e-05	5e-05	0.0004	0.00029	5e-05	4e-05	6e-05	5
22236	4e-05	2e-05	5e-05	0.0004	0.00029	5e-05	4e-05	6e-05	5
22238	4e-05	2e-05	5e-05	0.0004	0.00029	5e-05	4e-05	6e-05	5
22239	4e-05	2e-05	5e-05	0.0004	0.00029	5e-05	4e-05	6e-05	5
22240	4e-05	2e-05	5e-05	0.0004	0.00029	5e-05	4e-05	6e-05	5
22241	4e-05	2e-05	5e-05	0.0004	0.00029	5e-05	4e-05	6e-05	5
22242	-3e-05	-4e-05	-9e-05	-0.00016	-1e-05	4e-05	-4e-05	-1e-05	5
22243	-2e-05	-4e-05	-0.00014	-0.00042	0.00028	2e-05	2e-05	-1e-05	5
22244	-2e-05	-4e-05	-0.00014	-0.00042	0.00028	2e-05	2e-05	-1e-05	5
22245	-2e-05	-4e-05	-0.00014	-0.00042	0.00028	2e-05	2e-05	-1e-05	5
22246	-2e-05	-4e-05	-0.00014	-0.00042	0.00028	2e-05	2e-05	-1e-05	5
22247	-2e-05	-4e-05	-0.00014	-0.00042	0.00028	2e-05	2e-05	-1e-05	5
22248	-2e-05	-4e-05	-0.00014	-0.00042	0.00028	2e-05	2e-05	-1e-05	5
22249	-2e-05	-4e-05	-0.00014	-0.00042	0.00028	2e-05	2e-05	-1e-05	5
22250	-2e-05	-4e-05	-0.00014	-0.00042	0.00028	2e-05	2e-05	-1e-05	5
22251	-7e-05	-9e-05	-0.00013	-0.00033	-0.00025	-0.00016	-9e-05	-9e-05	5
22252	-7e-05	-9e-05	-0.00013	-0.00033	-0.00025	-0.00016	-9e-05	-9e-05	5
22253	-7e-05	-9e-05	-0.00013	-0.00033	-0.00025	-0.00016	-9e-05	-9e-05	5
22254	-7e-05	-9e-05	-0.00013	-0.00033	-0.00025	-0.00016	-9e-05	-9e-05	5
22255	-7e-05	-9e-05	-0.00013	-0.00033	-0.00025	-0.00016	-9e-05	-9e-05	5
22256	-7e-05	-9e-05	-0.00013	-0.00033	-0.00025	-0.00016	-9e-05	-9e-05	5
22257	-7e-05	-9e-05	-0.00013	-0.00033	-0.00025	-0.00016	-9e-05	-9e-05	5
22258	-7e-05	-9e-05	-0.00013	-0.00033	-0.00025	-0.00016	-9e-05	-9e-05	5
22259	-7e-05	-9e-05	-0.00013	-0.00033	-0.00025	-0.00016	-9e-05	-9e-05	5
22260	-7e-05	-9e-05	-0.00013	-0.00033	-0.00025	-0.00016	-9e-05	-9e-05	5
22261	-7e-05	-9e-05	-0.00013	-0.00033	-0.00025	-0.00016	-9e-05	-9e-05	5
22262	-7e-05	-9e-05	-0.00013	-0.00033	-0.00025	-0.00016	-9e-05	-9e-05	5
22263	-7e-05	-9e-05	-0.00013	-0.00033	-0.00025	-0.00016	-9e-05	-9e-05	5
22264	-7e-05	-9e-05	-0.00013	-0.00033	-0.00025	-0.00016	-9e-05	-9e-05	5
22265	-7e-05	-9e-05	-0.00013	-0.00033	-0.00025	-0.00016	-9e-05	-9e-05	5
22266	-7e-05	-9e-05	-0.00013	-0.00033	-0.00025	-0.00016	-9e-05	-9e-05	5
22267	0	1e-05	4e-05	-0.00018	-0.00046	-9e-05	-5e-05	-4e-05	5
22268	8e-05	0.0001	0.0002	0.00081	7e-05	3e-05	3e-05	9e-05	5
22269	8e-05	0.0001	0.0002	0.00081	7e-05	3e-05	3e-05	9e-05	5
22270	8e-05	0.0001	0.0002	0.00081	7e-05	3e-05	3e-05	9e-05	5
22271	8e-05	0.0001	0.0002	0.00081	7e-05	3e-05	3e-05	9e-05	5
22272	8e-05	0.0001	0.0002	0.00081	7e-05	3e-05	3e-05	9e-05	5
22273	8e-05	0.0001	0.0002	0.00081	7e-05	3e-05	3e-05	9e-05	5
22274	8e-05	0.0001	0.0002	0.00081	7e-05	3e-05	3e-05	9e-05	5
22275	8e-05	0.0001	0.0002	0.00081	7e-05	3e-05	3e-05	9e-05	5
22276	8e-05	0.0001	0.0002	0.00081	7e-05	3e-05	3e-05	9e-05	5
22277	8e-05	0.0001	0.0002	0.00081	7e-05	3e-05	3e-05	9e-05	5
22278	8e-05	0.0001	0.0002	0.00081	7e-05	3e-05	3e-05	9e-05	5
22279	8e-05	0.0001	0.0002	0.00081	7e-05	3e-05	3e-05	9e-05	5
22280	8e-05	0.0001	0.0002	0.00081	7e-05	3e-05	3e-05	9e-05	5
22281	8e-05	0.0001	0.0002	0.00081	7e-05	3e-05	3e-05	9e-05	5
22282	8e-05	0.0001	0.0002	0.00081	7e-05	3e-05	3e-05	9e-05	5
22283	8e-05	0.0001	0.0002	0.00081	7e-05	3e-05	3e-05	9e-05	5
22284	8e-05	0.0001	0.0002	0.00081	7e-05	3e-05	3e-05	9e-05	5
22285	8e-05	0.0001	0.0002	0.00081	7e-05	3e-05	3e-05	9e-05	5
22286	8e-05	0.0001	0.0002	0.00081	7e-05	3e-05	3e-05	9e-05	5
22288	8e-05	0.0001	0.0002	0.00081	7e-05	3e-05	3e-05	9e-05	5
22289	8e-05	0.0001	0.0002	0.00081	7e-05	3e-05	3e-05	9e-05	5
22290	8e-05	0.0001	0.0002	0.00081	7e-05	3e-05	3e-05	9e-05	5
22291	8e-05	0.0001	0.0002	0.00081	7e-05	3e-05	3e-05	9e-05	5
22292	8e-05	0.0001	0.0002	0.00081	7e-05	3e-05	3e-05	9e-05	5
22293	8e-05	0.0001	0.0002	0.00081	7e-05	3e-05	3e-05	9e-05	5
22294	8e-05	0.0001	0.0002	0.00081	7e-05	3e-05	3e-05	9e-05	5
22295	8e-05	0.0001	0.0002	0.00081	7e-05	3e-05	3e-05	9e-05	5
22296	8e-05	0.0001	0.0002	0.00081	7e-05	3e-05	3e-05	9e-05	5
22297	-0.00023	-9e-05	-6e-05	5e-05	-0.0001	-5e-05	-5e-05	-0.00013	5
22298	-2e-05	-1e-05	3e-05	-0.00055	-0.00051	2e-05	2e-05	2e-05	5
22299	-2e-05	-1e-05	3e-05	-0.00055	-0.00051	2e-05	2e-05	2e-05	5
22300	-2e-05	-1e-05	3e-05	-0.00055	-0.00051	2e-05	2e-05	2e-05	5
22301	-2e-05	-1e-05	3e-05	-0.00055	-0.00051	2e-05	2e-05	2e-05	5
22302	-2e-05	-1e-05	3e-05	-0.00055	-0.00051	2e-05	2e-05	2e-05	5
22303	-2e-05	-1e-05	3e-05	-0.00055	-0.00051	2e-05	2e-05	2e-05	5
22304	-2e-05	-1e-05	3e-05	-0.00055	-0.00051	2e-05	2e-05	2e-05	5
22305	-2e-05	-1e-05	3e-05	-0.00055	-0.00051	2e-05	2e-05	2e-05	5
22306	-2e-05	-1e-05	3e-05	-0.00055	-0.00051	2e-05	2e-05	2e-05	5
22307	-2e-05	-1e-05	3e-05	-0.00055	-0.00051	2e-05	2e-05	2e-05	5
22308	-2e-05	-1e-05	3e-05	-0.00055	-0.00051	2e-05	2e-05	2e-05	5
22309	-2e-05	-1e-05	3e-05	-0.00055	-0.00051	2e-05	2e-05	2e-05	5
22310	-2e-05	-1e-05	3e-05	-0.00055	-0.00051	2e-05	2e-05	2e-05	5
22311	-1e-05	5e-05	8e-05	-5e-05	-0.00027	-2e-05	1e-05	-6e-05	5
22312	-1e-05	5e-05	8e-05	-5e-05	-0.00027	-2e-05	1e-05	-6e-05	5
22313	1e-05	-5e-05	-7e-05	0.00016	0.00023	-2e-05	-2e-05	-1e-05	5
22314	1e-05	-5e-05	-7e-05	0.00016	0.00023	-2e-05	-2e-05	-1e-05	5
22315	1e-05	-5e-05	-7e-05	0.00016	0.00023	-2e-05	-2e-05	-1e-05	5
22316	1e-05	-5e-05	-7e-05	0.00016	0.00023	-2e-05	-2e-05	-1e-05	5
22317	1e-05	-5e-05	-7e-05	0.00016	0.00023	-2e-05	-2e-05	-1e-05	5
22318	1e-05	-5e-05	-7e-05	0.00016	0.00023	-2e-05	-2e-05	-1e-05	5
22319	1e-05	-5e-05	-7e-05	0.00016	0.00023	-2e-05	-2e-05	-1e-05	5
22320	1e-05	-5e-05	-7e-05	0.00016	0.00023	-2e-05	-2e-05	-1e-05	5
22321	1e-05	-5e-05	-7e-05	0.00016	0.00023	-2e-05	-2e-05	-1e-05	5
22322	1e-05	-5e-05	-7e-05	0.00016	0.00023	-2e-05	-2e-05	-1e-05	5
22323	1e-05	-5e-05	-7e-05	0.00016	0.00023	-2e-05	-2e-05	-1e-05	5
22324	1e-05	-5e-05	-7e-05	0.00016	0.00023	-2e-05	-2e-05	-1e-05	5
22325	1e-05	-5e-05	-7e-05	0.00016	0.00023	-2e-05	-2e-05	-1e-05	5
22326	1e-05	-5e-05	-7e-05	0.00016	0.00023	-2e-05	-2e-05	-1e-05	5
22327	0.00015	0.0001	7e-05	-0.0002	-0.00039	6e-05	9e-05	-2e-05	5
22328	0.00015	0.0001	7e-05	-0.0002	-0.00039	6e-05	9e-05	-2e-05	5
22329	0.00015	0.0001	7e-05	-0.0002	-0.00039	6e-05	9e-05	-2e-05	5
22330	0.00015	0.0001	7e-05	-0.0002	-0.00039	6e-05	9e-05	-2e-05	5
22331	0.00015	0.0001	7e-05	-0.0002	-0.00039	6e-05	9e-05	-2e-05	5
22332	-1e-05	-0.00014	-0.00025	-0.00048	-0.00019	0	-5e-05	-1e-05	5
22333	-1e-05	-0.00014	-0.00025	-0.00048	-0.00019	0	-5e-05	-1e-05	5
22334	-1e-05	-0.00014	-0.00025	-0.00048	-0.00019	0	-5e-05	-1e-05	5
22335	-1e-05	-0.00014	-0.00025	-0.00048	-0.00019	0	-5e-05	-1e-05	5
22336	-1e-05	-0.00014	-0.00025	-0.00048	-0.00019	0	-5e-05	-1e-05	5
22339	-1e-05	-0.00014	-0.00025	-0.00048	-0.00019	0	-5e-05	-1e-05	5
22340	-1e-05	-0.00014	-0.00025	-0.00048	-0.00019	0	-5e-05	-1e-05	5
22341	-1e-05	-0.00014	-0.00025	-0.00048	-0.00019	0	-5e-05	-1e-05	5
22342	-1e-05	-0.00014	-0.00025	-0.00048	-0.00019	0	-5e-05	-1e-05	5
22343	-1e-05	-0.00014	-0.00025	-0.00048	-0.00019	0	-5e-05	-1e-05	5
22344	-1e-05	-0.00014	-0.00025	-0.00048	-0.00019	0	-5e-05	-1e-05	5
22345	-1e-05	-0.00014	-0.00025	-0.00048	-0.00019	0	-5e-05	-1e-05	5
22346	-1e-05	-0.00014	-0.00025	-0.00048	-0.00019	0	-5e-05	-1e-05	5
22347	-1e-05	-0.00014	-0.00025	-0.00048	-0.00019	0	-5e-05	-1e-05	5
22348	-1e-05	-0.00014	-0.00025	-0.00048	-0.00019	0	-5e-05	-1e-05	5
22349	-1e-05	-0.00014	-0.00025	-0.00048	-0.00019	0	-5e-05	-1e-05	5
22350	-1e-05	-0.00014	-0.00025	-0.00048	-0.00019	0	-5e-05	-1e-05	5
22351	-4e-05	4e-05	8e-05	0.0002	0.00053	0.00012	4e-05	5e-05	5
22352	-4e-05	4e-05	8e-05	0.0002	0.00053	0.00012	4e-05	5e-05	5
22353	-4e-05	4e-05	8e-05	0.0002	0.00053	0.00012	4e-05	5e-05	5
22354	-4e-05	4e-05	8e-05	0.0002	0.00053	0.00012	4e-05	5e-05	5
22355	-4e-05	4e-05	8e-05	0.0002	0.00053	0.00012	4e-05	5e-05	5
22356	-0.0001	-8e-05	-9e-05	-0.00043	-0.00023	-0.00014	-0.0001	-0.0001	5
22357	-0.0001	-8e-05	-9e-05	-0.00043	-0.00023	-0.00014	-0.0001	-0.0001	5
22358	-0.0001	-8e-05	-9e-05	-0.00043	-0.00023	-0.00014	-0.0001	-0.0001	5
22359	-0.0001	-8e-05	-9e-05	-0.00043	-0.00023	-0.00014	-0.0001	-0.0001	5
22360	-0.0001	-8e-05	-9e-05	-0.00043	-0.00023	-0.00014	-0.0001	-0.0001	5
22361	-0.0001	-8e-05	-9e-05	-0.00043	-0.00023	-0.00014	-0.0001	-0.0001	5
22362	-0.0001	-8e-05	-9e-05	-0.00043	-0.00023	-0.00014	-0.0001	-0.0001	5
22363	0.0001	8e-05	6e-05	0.00014	-0.00013	0	2e-05	7e-05	5
22364	0.0001	8e-05	6e-05	0.00014	-0.00013	0	2e-05	7e-05	5
22365	0.0001	8e-05	6e-05	0.00014	-0.00013	0	2e-05	7e-05	5
22366	0.0001	8e-05	6e-05	0.00014	-0.00013	0	2e-05	7e-05	5
22367	0.0001	8e-05	6e-05	0.00014	-0.00013	0	2e-05	7e-05	5
22368	0.0001	8e-05	6e-05	0.00014	-0.00013	0	2e-05	7e-05	5
22369	0.0001	8e-05	6e-05	0.00014	-0.00013	0	2e-05	7e-05	5
22370	0.0001	8e-05	6e-05	0.00014	-0.00013	0	2e-05	7e-05	5
22371	0.0001	8e-05	6e-05	0.00014	-0.00013	0	2e-05	7e-05	5
22372	0.0001	8e-05	6e-05	0.00014	-0.00013	0	2e-05	7e-05	5
22373	1e-05	-1e-05	1e-05	0.00014	-1e-05	-5e-05	-2e-05	1e-05	5
22374	1e-05	-1e-05	1e-05	0.00014	-1e-05	-5e-05	-2e-05	1e-05	5
22375	1e-05	-1e-05	1e-05	0.00014	-1e-05	-5e-05	-2e-05	1e-05	5
22376	1e-05	-1e-05	1e-05	0.00014	-1e-05	-5e-05	-2e-05	1e-05	5
22377	1e-05	-1e-05	1e-05	0.00014	-1e-05	-5e-05	-2e-05	1e-05	5
22378	1e-05	-1e-05	1e-05	0.00014	-1e-05	-5e-05	-2e-05	1e-05	5
22379	1e-05	-1e-05	1e-05	0.00014	-1e-05	-5e-05	-2e-05	1e-05	5
22380	1e-05	-1e-05	1e-05	0.00014	-1e-05	-5e-05	-2e-05	1e-05	5
22381	1e-05	-1e-05	1e-05	0.00014	-1e-05	-5e-05	-2e-05	1e-05	5
22382	1e-05	-1e-05	1e-05	0.00014	-1e-05	-5e-05	-2e-05	1e-05	5
22383	1e-05	-1e-05	1e-05	0.00014	-1e-05	-5e-05	-2e-05	1e-05	5
22384	1e-05	-1e-05	1e-05	0.00014	-1e-05	-5e-05	-2e-05	1e-05	5
22385	1e-05	-1e-05	1e-05	0.00014	-1e-05	-5e-05	-2e-05	1e-05	5
22386	1e-05	-1e-05	1e-05	0.00014	-1e-05	-5e-05	-2e-05	1e-05	5
22388	-0.0001	-5e-05	-6e-05	-0.0006	-0.00038	-7e-05	-3e-05	-5e-05	5
22389	8e-05	6e-05	9e-05	0.00057	0.00067	7e-05	3e-05	5e-05	5
22390	8e-05	6e-05	9e-05	0.00057	0.00067	7e-05	3e-05	5e-05	5
22391	8e-05	6e-05	9e-05	0.00057	0.00067	7e-05	3e-05	5e-05	5
22392	8e-05	6e-05	9e-05	0.00057	0.00067	7e-05	3e-05	5e-05	5
22393	8e-05	6e-05	9e-05	0.00057	0.00067	7e-05	3e-05	5e-05	5
22394	8e-05	6e-05	9e-05	0.00057	0.00067	7e-05	3e-05	5e-05	5
22395	8e-05	6e-05	9e-05	0.00057	0.00067	7e-05	3e-05	5e-05	5
22396	8e-05	6e-05	9e-05	0.00057	0.00067	7e-05	3e-05	5e-05	5
22397	8e-05	6e-05	9e-05	0.00057	0.00067	7e-05	3e-05	5e-05	5
22398	8e-05	6e-05	9e-05	0.00057	0.00067	7e-05	3e-05	5e-05	5
22399	8e-05	6e-05	9e-05	0.00057	0.00067	7e-05	3e-05	5e-05	5
22400	8e-05	6e-05	9e-05	0.00057	0.00067	7e-05	3e-05	5e-05	5
22401	8e-05	6e-05	9e-05	0.00057	0.00067	7e-05	3e-05	5e-05	5
22402	8e-05	6e-05	9e-05	0.00057	0.00067	7e-05	3e-05	5e-05	5
22403	8e-05	6e-05	9e-05	0.00057	0.00067	7e-05	3e-05	5e-05	5
22404	8e-05	6e-05	9e-05	0.00057	0.00067	7e-05	3e-05	5e-05	5
22405	8e-05	6e-05	9e-05	0.00057	0.00067	7e-05	3e-05	5e-05	5
22406	8e-05	6e-05	9e-05	0.00057	0.00067	7e-05	3e-05	5e-05	5
22407	8e-05	6e-05	9e-05	0.00057	0.00067	7e-05	3e-05	5e-05	5
22408	8e-05	6e-05	9e-05	0.00057	0.00067	7e-05	3e-05	5e-05	5
22409	0.00011	5e-05	4e-05	-6e-05	6e-05	7e-05	1e-05	4e-05	5
22410	-6e-05	-9e-05	-0.00012	-5e-05	-0.00025	-7e-05	-3e-05	-4e-05	5
22411	-0.00021	-0.00015	-0.00011	-0.00017	-0.0001	-0.00014	-7e-05	-0.00016	5
22412	-0.00021	-0.00015	-0.00011	-0.00017	-0.0001	-0.00014	-7e-05	-0.00016	5
22413	-0.00021	-0.00015	-0.00011	-0.00017	-0.0001	-0.00014	-7e-05	-0.00016	5
22414	-0.00021	-0.00015	-0.00011	-0.00017	-0.0001	-0.00014	-7e-05	-0.00016	5
22415	-0.00021	-0.00015	-0.00011	-0.00017	-0.0001	-0.00014	-7e-05	-0.00016	5
22416	-0.00021	-0.00015	-0.00011	-0.00017	-0.0001	-0.00014	-7e-05	-0.00016	5
22417	-0.00021	-0.00015	-0.00011	-0.00017	-0.0001	-0.00014	-7e-05	-0.00016	5
22418	-0.00021	-0.00015	-0.00011	-0.00017	-0.0001	-0.00014	-7e-05	-0.00016	5
22419	-0.00021	-0.00015	-0.00011	-0.00017	-0.0001	-0.00014	-7e-05	-0.00016	5
22420	-0.00021	-0.00015	-0.00011	-0.00017	-0.0001	-0.00014	-7e-05	-0.00016	5
22421	-0.00021	-0.00015	-0.00011	-0.00017	-0.0001	-0.00014	-7e-05	-0.00016	5
22422	-0.00021	-0.00015	-0.00011	-0.00017	-0.0001	-0.00014	-7e-05	-0.00016	5
22423	-0.00021	-0.00015	-0.00011	-0.00017	-0.0001	-0.00014	-7e-05	-0.00016	5
22424	-0.00021	-0.00015	-0.00011	-0.00017	-0.0001	-0.00014	-7e-05	-0.00016	5
22425	-0.00021	-0.00015	-0.00011	-0.00017	-0.0001	-0.00014	-7e-05	-0.00016	5
22426	-0.00021	-0.00015	-0.00011	-0.00017	-0.0001	-0.00014	-7e-05	-0.00016	5
22427	-0.00021	-0.00015	-0.00011	-0.00017	-0.0001	-0.00014	-7e-05	-0.00016	5
22428	-0.00021	-0.00015	-0.00011	-0.00017	-0.0001	-0.00014	-7e-05	-0.00016	5
22429	-0.00021	-0.00015	-0.00011	-0.00017	-0.0001	-0.00014	-7e-05	-0.00016	5
22430	-0.00021	-0.00015	-0.00011	-0.00017	-0.0001	-0.00014	-7e-05	-0.00016	5
22431	-0.00021	-0.00015	-0.00011	-0.00017	-0.0001	-0.00014	-7e-05	-0.00016	5
22432	-0.0001	-1e-05	-1e-05	-3e-05	0.00029	-8e-05	-6e-05	-9e-05	5
22433	-0.0001	-1e-05	-1e-05	-3e-05	0.00029	-8e-05	-6e-05	-9e-05	5
22434	4e-05	0	-1e-05	0.00025	0.00029	7e-05	6e-05	2e-05	5
22435	4e-05	0	-1e-05	0.00025	0.00029	7e-05	6e-05	2e-05	5
22436	4e-05	0	-1e-05	0.00025	0.00029	7e-05	6e-05	2e-05	5
22438	4e-05	0	-1e-05	0.00025	0.00029	7e-05	6e-05	2e-05	5
22439	4e-05	0	-1e-05	0.00025	0.00029	7e-05	6e-05	2e-05	5
22440	4e-05	0	-1e-05	0.00025	0.00029	7e-05	6e-05	2e-05	5
22441	4e-05	0	-1e-05	0.00025	0.00029	7e-05	6e-05	2e-05	5
22442	4e-05	0	-1e-05	0.00025	0.00029	7e-05	6e-05	2e-05	5
22443	4e-05	0	-1e-05	0.00025	0.00029	7e-05	6e-05	2e-05	5
22444	4e-05	0	-1e-05	0.00025	0.00029	7e-05	6e-05	2e-05	5
22445	4e-05	0	-1e-05	0.00025	0.00029	7e-05	6e-05	2e-05	5
22446	4e-05	0	-1e-05	0.00025	0.00029	7e-05	6e-05	2e-05	5
22447	4e-05	0	-1e-05	0.00025	0.00029	7e-05	6e-05	2e-05	5
22448	-6e-05	-5e-05	-3e-05	0.00017	0.00015	-4e-05	-4e-05	-1e-05	5
22449	-6e-05	-5e-05	-3e-05	0.00017	0.00015	-4e-05	-4e-05	-1e-05	5
22450	-6e-05	-5e-05	-3e-05	0.00017	0.00015	-4e-05	-4e-05	-1e-05	5
22451	-6e-05	-5e-05	-3e-05	0.00017	0.00015	-4e-05	-4e-05	-1e-05	5
22452	-6e-05	-5e-05	-3e-05	0.00017	0.00015	-4e-05	-4e-05	-1e-05	5
22453	3e-05	-3e-05	-0.0001	-0.00024	5e-05	-1e-05	-1e-05	4e-05	5
22454	3e-05	-3e-05	-0.0001	-0.00024	5e-05	-1e-05	-1e-05	4e-05	5
22455	3e-05	-3e-05	-0.0001	-0.00024	5e-05	-1e-05	-1e-05	4e-05	5
22456	3e-05	-3e-05	-0.0001	-0.00024	5e-05	-1e-05	-1e-05	4e-05	5
22457	3e-05	-3e-05	-0.0001	-0.00024	5e-05	-1e-05	-1e-05	4e-05	5
22458	3e-05	-3e-05	-0.0001	-0.00024	5e-05	-1e-05	-1e-05	4e-05	5
22459	3e-05	-3e-05	-0.0001	-0.00024	5e-05	-1e-05	-1e-05	4e-05	5
22460	3e-05	-3e-05	-0.0001	-0.00024	5e-05	-1e-05	-1e-05	4e-05	5
22461	3e-05	-3e-05	-0.0001	-0.00024	5e-05	-1e-05	-1e-05	4e-05	5
22462	3e-05	-3e-05	-0.0001	-0.00024	5e-05	-1e-05	-1e-05	4e-05	5
22463	3e-05	-3e-05	-0.0001	-0.00024	5e-05	-1e-05	-1e-05	4e-05	5
22464	3e-05	-3e-05	-0.0001	-0.00024	5e-05	-1e-05	-1e-05	4e-05	5
22465	3e-05	-3e-05	-0.0001	-0.00024	5e-05	-1e-05	-1e-05	4e-05	5
22466	3e-05	-3e-05	-0.0001	-0.00024	5e-05	-1e-05	-1e-05	4e-05	5
22467	3e-05	-3e-05	-0.0001	-0.00024	5e-05	-1e-05	-1e-05	4e-05	5
22468	3e-05	-3e-05	-0.0001	-0.00024	5e-05	-1e-05	-1e-05	4e-05	5
22469	3e-05	-3e-05	-0.0001	-0.00024	5e-05	-1e-05	-1e-05	4e-05	5
22470	3e-05	-3e-05	-0.0001	-0.00024	5e-05	-1e-05	-1e-05	4e-05	5
22471	-1e-05	-1e-05	-0.00011	-0.00038	-0.00012	6e-05	0	0	5
22472	-1e-05	-1e-05	-0.00011	-0.00038	-0.00012	6e-05	0	0	5
22473	-1e-05	-1e-05	-0.00011	-0.00038	-0.00012	6e-05	0	0	5
22474	-1e-05	-1e-05	-0.00011	-0.00038	-0.00012	6e-05	0	0	5
22475	-1e-05	-1e-05	-0.00011	-0.00038	-0.00012	6e-05	0	0	5
22476	2e-05	1e-05	2e-05	-0.00036	-0.00019	-3e-05	-5e-05	0	5
22477	2e-05	1e-05	2e-05	-0.00036	-0.00019	-3e-05	-5e-05	0	5
22478	2e-05	1e-05	2e-05	-0.00036	-0.00019	-3e-05	-5e-05	0	5
22479	2e-05	1e-05	2e-05	-0.00036	-0.00019	-3e-05	-5e-05	0	5
22480	2e-05	1e-05	2e-05	-0.00036	-0.00019	-3e-05	-5e-05	0	5
22481	2e-05	1e-05	2e-05	-0.00036	-0.00019	-3e-05	-5e-05	0	5
22482	2e-05	1e-05	2e-05	-0.00036	-0.00019	-3e-05	-5e-05	0	5
22483	-4e-05	0	-1e-05	0.00029	0.00026	-2e-05	1e-05	3e-05	5
22484	0	-1e-05	2e-05	0.0005	-0.00019	-5e-05	-3e-05	-2e-05	5
22485	0	-1e-05	2e-05	0.0005	-0.00019	-5e-05	-3e-05	-2e-05	5
22486	0	-1e-05	2e-05	0.0005	-0.00019	-5e-05	-3e-05	-2e-05	5
22488	0	-1e-05	2e-05	0.0005	-0.00019	-5e-05	-3e-05	-2e-05	5
22489	0	-1e-05	2e-05	0.0005	-0.00019	-5e-05	-3e-05	-2e-05	5
22490	0	-1e-05	2e-05	0.0005	-0.00019	-5e-05	-3e-05	-2e-05	5
22491	0	-1e-05	2e-05	0.0005	-0.00019	-5e-05	-3e-05	-2e-05	5
22492	-5e-05	-5e-05	-2e-05	0.00021	-0.00018	-6e-05	-3e-05	-7e-05	5
22494	-5e-05	-5e-05	-2e-05	0.00021	-0.00018	-6e-05	-3e-05	-7e-05	5
22495	-5e-05	-5e-05	-2e-05	0.00021	-0.00018	-6e-05	-3e-05	-7e-05	5
22496	-5e-05	-5e-05	-2e-05	0.00021	-0.00018	-6e-05	-3e-05	-7e-05	5
22497	-5e-05	-5e-05	-2e-05	0.00021	-0.00018	-6e-05	-3e-05	-7e-05	5
22498	-5e-05	-5e-05	-2e-05	0.00021	-0.00018	-6e-05	-3e-05	-7e-05	5
22499	-5e-05	-5e-05	-2e-05	0.00021	-0.00018	-6e-05	-3e-05	-7e-05	5
22500	-5e-05	-5e-05	-2e-05	0.00021	-0.00018	-6e-05	-3e-05	-7e-05	5
22501	-5e-05	-5e-05	-2e-05	0.00021	-0.00018	-6e-05	-3e-05	-7e-05	5
22502	-5e-05	-5e-05	-2e-05	0.00021	-0.00018	-6e-05	-3e-05	-7e-05	5
22503	-5e-05	-5e-05	-2e-05	0.00021	-0.00018	-6e-05	-3e-05	-7e-05	5
22504	-5e-05	-5e-05	-2e-05	0.00021	-0.00018	-6e-05	-3e-05	-7e-05	5
22505	-5e-05	-5e-05	-2e-05	0.00021	-0.00018	-6e-05	-3e-05	-7e-05	5
22506	-5e-05	-5e-05	-2e-05	0.00021	-0.00018	-6e-05	-3e-05	-7e-05	5
22507	-2e-05	-4e-05	-1e-05	-0.00012	-4e-05	-3e-05	-2e-05	-1e-05	5
22508	-2e-05	-4e-05	-1e-05	-0.00012	-4e-05	-3e-05	-2e-05	-1e-05	5
22509	0.00011	2e-05	6e-05	5e-05	-0.00024	2e-05	0	-3e-05	5
22510	0.00011	2e-05	6e-05	5e-05	-0.00024	2e-05	0	-3e-05	5
22511	0.00011	2e-05	6e-05	5e-05	-0.00024	2e-05	0	-3e-05	5
22512	0.00011	2e-05	6e-05	5e-05	-0.00024	2e-05	0	-3e-05	5
22513	0.00011	2e-05	6e-05	5e-05	-0.00024	2e-05	0	-3e-05	5
22514	0.00011	2e-05	6e-05	5e-05	-0.00024	2e-05	0	-3e-05	5
22515	0.00011	2e-05	6e-05	5e-05	-0.00024	2e-05	0	-3e-05	5
22516	0.00011	2e-05	6e-05	5e-05	-0.00024	2e-05	0	-3e-05	5
22517	0.00011	2e-05	6e-05	5e-05	-0.00024	2e-05	0	-3e-05	5
22518	0.00011	2e-05	6e-05	5e-05	-0.00024	2e-05	0	-3e-05	5
22519	0.00011	2e-05	6e-05	5e-05	-0.00024	2e-05	0	-3e-05	5
22520	0.00011	2e-05	6e-05	5e-05	-0.00024	2e-05	0	-3e-05	5
22521	0.00011	2e-05	6e-05	5e-05	-0.00024	2e-05	0	-3e-05	5
22522	0.00011	2e-05	6e-05	5e-05	-0.00024	2e-05	0	-3e-05	5
22523	0.00011	2e-05	6e-05	5e-05	-0.00024	2e-05	0	-3e-05	5
22524	0.00011	2e-05	6e-05	5e-05	-0.00024	2e-05	0	-3e-05	5
22525	0.00011	2e-05	6e-05	5e-05	-0.00024	2e-05	0	-3e-05	5
22526	0.00011	2e-05	6e-05	5e-05	-0.00024	2e-05	0	-3e-05	5
22527	0.00011	2e-05	6e-05	5e-05	-0.00024	2e-05	0	-3e-05	5
22528	0.00011	2e-05	6e-05	5e-05	-0.00024	2e-05	0	-3e-05	5
22529	0.00011	2e-05	6e-05	5e-05	-0.00024	2e-05	0	-3e-05	5
22530	2e-05	-2e-05	-9e-05	-0.00045	8e-05	3e-05	1e-05	1e-05	5
22531	-4e-05	-7e-05	-6e-05	-0.0003	-1e-05	-3e-05	-5e-05	-1e-05	5
22533	-4e-05	-7e-05	-6e-05	-0.0003	-1e-05	-3e-05	-5e-05	-1e-05	5
22534	-4e-05	-7e-05	-6e-05	-0.0003	-1e-05	-3e-05	-5e-05	-1e-05	5
48199	-1e-05	0.00012	5e-05	-0.00025	-9e-05	0.0001	7e-05	3e-05	5
48200	-1e-05	0.00012	5e-05	-0.00025	-9e-05	0.0001	7e-05	3e-05	5
48201	-1e-05	0.00012	5e-05	-0.00025	-9e-05	0.0001	7e-05	3e-05	5
48202	-1e-05	0.00012	5e-05	-0.00025	-9e-05	0.0001	7e-05	3e-05	5
48203	-1e-05	0.00012	5e-05	-0.00025	-9e-05	0.0001	7e-05	3e-05	5
48204	-1e-05	0.00012	5e-05	-0.00025	-9e-05	0.0001	7e-05	3e-05	5
48205	-1e-05	0.00012	5e-05	-0.00025	-9e-05	0.0001	7e-05	3e-05	5
48206	-1e-05	0.00012	5e-05	-0.00025	-9e-05	0.0001	7e-05	3e-05	5
48207	-1e-05	0.00012	5e-05	-0.00025	-9e-05	0.0001	7e-05	3e-05	5
48208	-1e-05	0.00012	5e-05	-0.00025	-9e-05	0.0001	7e-05	3e-05	5
48209	-1e-05	0.00012	5e-05	-0.00025	-9e-05	0.0001	7e-05	3e-05	5
48210	-1e-05	0.00012	5e-05	-0.00025	-9e-05	0.0001	7e-05	3e-05	5
48211	-1e-05	0.00012	5e-05	-0.00025	-9e-05	0.0001	7e-05	3e-05	5
48212	-1e-05	0.00012	5e-05	-0.00025	-9e-05	0.0001	7e-05	3e-05	5
48213	-1e-05	0.00012	5e-05	-0.00025	-9e-05	0.0001	7e-05	3e-05	5
48214	-1e-05	0.00012	5e-05	-0.00025	-9e-05	0.0001	7e-05	3e-05	5
48215	-1e-05	0.00012	5e-05	-0.00025	-9e-05	0.0001	7e-05	3e-05	5
48216	-1e-05	0.00012	5e-05	-0.00025	-9e-05	0.0001	7e-05	3e-05	5
48217	1e-05	-2e-05	4e-05	0.00034	0.00042	8e-05	0	1e-05	5
48218	4e-05	0.0001	0.00015	0.00033	0.00021	0.00015	8e-05	7e-05	5
48219	4e-05	0.0001	0.00015	0.00033	0.00021	0.00015	8e-05	7e-05	5
48220	4e-05	0.0001	0.00015	0.00033	0.00021	0.00015	8e-05	7e-05	5
48221	4e-05	0.0001	0.00015	0.00033	0.00021	0.00015	8e-05	7e-05	5
48222	4e-05	0.0001	0.00015	0.00033	0.00021	0.00015	8e-05	7e-05	5
48223	4e-05	0.0001	0.00015	0.00033	0.00021	0.00015	8e-05	7e-05	5
48224	4e-05	0.0001	0.00015	0.00033	0.00021	0.00015	8e-05	7e-05	5
48225	4e-05	0.0001	0.00015	0.00033	0.00021	0.00015	8e-05	7e-05	5
48226	4e-05	0.0001	0.00015	0.00033	0.00021	0.00015	8e-05	7e-05	5
48227	4e-05	0.0001	0.00015	0.00033	0.00021	0.00015	8e-05	7e-05	5
48228	4e-05	0.0001	0.00015	0.00033	0.00021	0.00015	8e-05	7e-05	5
48229	4e-05	0.0001	0.00015	0.00033	0.00021	0.00015	8e-05	7e-05	5
48230	4e-05	0.0001	0.00015	0.00033	0.00021	0.00015	8e-05	7e-05	5
48231	4e-05	0.0001	0.00015	0.00033	0.00021	0.00015	8e-05	7e-05	5
48232	4e-05	0.0001	0.00015	0.00033	0.00021	0.00015	8e-05	7e-05	5
48233	4e-05	0.0001	0.00015	0.00033	0.00021	0.00015	8e-05	7e-05	5
48234	4e-05	0.0001	0.00015	0.00033	0.00021	0.00015	8e-05	7e-05	5
48235	4e-05	0.0001	0.00015	0.00033	0.00021	0.00015	8e-05	7e-05	5
48236	4e-05	0.0001	0.00015	0.00033	0.00021	0.00015	8e-05	7e-05	5
48238	4e-05	0.0001	0.00015	0.00033	0.00021	0.00015	8e-05	7e-05	5
48240	-6e-05	-4e-05	-8e-05	0.00085	0.00015	-0.00018	-8e-05	-5e-05	5
48241	-3e-05	-3e-05	-6e-05	-0.0003	-0.00043	-9e-05	-5e-05	-5e-05	5
48242	-3e-05	-3e-05	-6e-05	-0.0003	-0.00043	-9e-05	-5e-05	-5e-05	5
48243	-3e-05	-3e-05	-6e-05	-0.0003	-0.00043	-9e-05	-5e-05	-5e-05	5
48244	-3e-05	-3e-05	-6e-05	-0.0003	-0.00043	-9e-05	-5e-05	-5e-05	5
48245	-3e-05	-3e-05	-6e-05	-0.0003	-0.00043	-9e-05	-5e-05	-5e-05	5
48246	-3e-05	-3e-05	-6e-05	-0.0003	-0.00043	-9e-05	-5e-05	-5e-05	5
48247	-3e-05	-3e-05	-6e-05	-0.0003	-0.00043	-9e-05	-5e-05	-5e-05	5
48248	-3e-05	-3e-05	-6e-05	-0.0003	-0.00043	-9e-05	-5e-05	-5e-05	5
48249	-3e-05	-3e-05	-6e-05	-0.0003	-0.00043	-9e-05	-5e-05	-5e-05	5
48250	-3e-05	-3e-05	-6e-05	-0.0003	-0.00043	-9e-05	-5e-05	-5e-05	5
48251	-3e-05	-3e-05	-6e-05	-0.0003	-0.00043	-9e-05	-5e-05	-5e-05	5
48252	-3e-05	-3e-05	-6e-05	-0.0003	-0.00043	-9e-05	-5e-05	-5e-05	5
48253	-3e-05	-3e-05	-6e-05	-0.0003	-0.00043	-9e-05	-5e-05	-5e-05	5
48254	-1e-05	6e-05	-0.00023	-0.0012	-0.00053	-0.0002	-7e-05	0	5
48255	1e-05	3e-05	0.00019	0.00032	-0.00071	-0.00013	-7e-05	2e-05	5
48256	8e-05	0.00014	0.00032	0.00024	0.00062	0.00015	8e-05	3e-05	5
48257	8e-05	0.00014	0.00032	0.00024	0.00062	0.00015	8e-05	3e-05	5
48258	8e-05	0.00014	0.00032	0.00024	0.00062	0.00015	8e-05	3e-05	5
48259	8e-05	0.00014	0.00032	0.00024	0.00062	0.00015	8e-05	3e-05	5
48260	8e-05	0.00014	0.00032	0.00024	0.00062	0.00015	8e-05	3e-05	5
48261	8e-05	0.00014	0.00032	0.00024	0.00062	0.00015	8e-05	3e-05	5
48262	8e-05	0.00014	0.00032	0.00024	0.00062	0.00015	8e-05	3e-05	5
48263	8e-05	0.00014	0.00032	0.00024	0.00062	0.00015	8e-05	3e-05	5
48264	8e-05	0.00014	0.00032	0.00024	0.00062	0.00015	8e-05	3e-05	5
48265	8e-05	0.00014	0.00032	0.00024	0.00062	0.00015	8e-05	3e-05	5
48266	8e-05	0.00014	0.00032	0.00024	0.00062	0.00015	8e-05	3e-05	5
48267	8e-05	0.00014	0.00032	0.00024	0.00062	0.00015	8e-05	3e-05	5
48268	8e-05	0.00014	0.00032	0.00024	0.00062	0.00015	8e-05	3e-05	5
48269	8e-05	0.00014	0.00032	0.00024	0.00062	0.00015	8e-05	3e-05	5
48270	8e-05	0.00014	0.00032	0.00024	0.00062	0.00015	8e-05	3e-05	5
48271	8e-05	0.00014	0.00032	0.00024	0.00062	0.00015	8e-05	3e-05	5
48272	8e-05	0.00014	0.00032	0.00024	0.00062	0.00015	8e-05	3e-05	5
48273	8e-05	0.00014	0.00032	0.00024	0.00062	0.00015	8e-05	3e-05	5
48274	8e-05	0.00014	0.00032	0.00024	0.00062	0.00015	8e-05	3e-05	5
48275	8e-05	0.00014	0.00032	0.00024	0.00062	0.00015	8e-05	3e-05	5
48276	8e-05	0.00014	0.00032	0.00024	0.00062	0.00015	8e-05	3e-05	5
48277	-0.00015	-0.0002	-0.00026	-0.00061	-0.00018	-4e-05	-5e-05	-6e-05	5
48278	0.00017	0.00018	8e-05	-0.00038	-0.00088	-0.0001	1e-05	6e-05	5
48279	0.00017	0.00018	8e-05	-0.00038	-0.00088	-0.0001	1e-05	6e-05	5
48280	0.00017	0.00018	8e-05	-0.00038	-0.00088	-0.0001	1e-05	6e-05	5
48281	0.00017	0.00018	8e-05	-0.00038	-0.00088	-0.0001	1e-05	6e-05	5
48282	0.00017	0.00018	8e-05	-0.00038	-0.00088	-0.0001	1e-05	6e-05	5
48283	0.00017	0.00018	8e-05	-0.00038	-0.00088	-0.0001	1e-05	6e-05	5
48284	0.00017	0.00018	8e-05	-0.00038	-0.00088	-0.0001	1e-05	6e-05	5
48285	0.00017	0.00018	8e-05	-0.00038	-0.00088	-0.0001	1e-05	6e-05	5
48286	0.00017	0.00018	8e-05	-0.00038	-0.00088	-0.0001	1e-05	6e-05	5
48289	0.00017	0.00018	8e-05	-0.00038	-0.00088	-0.0001	1e-05	6e-05	5
48290	0.00017	0.00018	8e-05	-0.00038	-0.00088	-0.0001	1e-05	6e-05	5
48291	0.00017	0.00018	8e-05	-0.00038	-0.00088	-0.0001	1e-05	6e-05	5
48292	0.00017	0.00018	8e-05	-0.00038	-0.00088	-0.0001	1e-05	6e-05	5
48293	0.00017	0.00018	8e-05	-0.00038	-0.00088	-0.0001	1e-05	6e-05	5
48294	0.00017	0.00018	8e-05	-0.00038	-0.00088	-0.0001	1e-05	6e-05	5
48295	0.00017	0.00018	8e-05	-0.00038	-0.00088	-0.0001	1e-05	6e-05	5
48296	0.00017	0.00018	8e-05	-0.00038	-0.00088	-0.0001	1e-05	6e-05	5
48297	0.00017	0.00018	8e-05	-0.00038	-0.00088	-0.0001	1e-05	6e-05	5
48298	0.00017	0.00018	8e-05	-0.00038	-0.00088	-0.0001	1e-05	6e-05	5
48299	0.00017	0.00018	8e-05	-0.00038	-0.00088	-0.0001	1e-05	6e-05	5
48300	-0.00014	-0.00016	-0.00028	-0.0006	-9e-05	-5e-05	-5e-05	-7e-05	5
48301	8e-05	0.0002	0.00014	-0.00089	-0.00069	-7e-05	2e-05	5e-05	5
48302	8e-05	0.0002	0.00014	-0.00089	-0.00069	-7e-05	2e-05	5e-05	5
48303	8e-05	0.0002	0.00014	-0.00089	-0.00069	-7e-05	2e-05	5e-05	5
48304	8e-05	0.0002	0.00014	-0.00089	-0.00069	-7e-05	2e-05	5e-05	5
48305	8e-05	0.0002	0.00014	-0.00089	-0.00069	-7e-05	2e-05	5e-05	5
48306	8e-05	0.0002	0.00014	-0.00089	-0.00069	-7e-05	2e-05	5e-05	5
48307	8e-05	0.0002	0.00014	-0.00089	-0.00069	-7e-05	2e-05	5e-05	5
48308	8e-05	0.0002	0.00014	-0.00089	-0.00069	-7e-05	2e-05	5e-05	5
48309	8e-05	0.0002	0.00014	-0.00089	-0.00069	-7e-05	2e-05	5e-05	5
48310	8e-05	0.0002	0.00014	-0.00089	-0.00069	-7e-05	2e-05	5e-05	5
48311	8e-05	0.0002	0.00014	-0.00089	-0.00069	-7e-05	2e-05	5e-05	5
48312	8e-05	0.0002	0.00014	-0.00089	-0.00069	-7e-05	2e-05	5e-05	5
48313	8e-05	0.0002	0.00014	-0.00089	-0.00069	-7e-05	2e-05	5e-05	5
48314	1e-05	-2e-05	7e-05	9e-05	8e-05	0.00011	3e-05	2e-05	5
48315	-7e-05	-5e-05	-3e-05	0.00055	0.00041	0.00013	3e-05	-3e-05	5
48316	-7e-05	-5e-05	-3e-05	0.00055	0.00041	0.00013	3e-05	-3e-05	5
48317	-7e-05	-5e-05	-3e-05	0.00055	0.00041	0.00013	3e-05	-3e-05	5
48318	-7e-05	-5e-05	-3e-05	0.00055	0.00041	0.00013	3e-05	-3e-05	5
48319	-7e-05	-5e-05	-3e-05	0.00055	0.00041	0.00013	3e-05	-3e-05	5
48320	-7e-05	-5e-05	-3e-05	0.00055	0.00041	0.00013	3e-05	-3e-05	5
48321	-7e-05	-5e-05	-3e-05	0.00055	0.00041	0.00013	3e-05	-3e-05	5
48322	-7e-05	-5e-05	-3e-05	0.00055	0.00041	0.00013	3e-05	-3e-05	5
48323	-7e-05	-5e-05	-3e-05	0.00055	0.00041	0.00013	3e-05	-3e-05	5
48324	-7e-05	-5e-05	-3e-05	0.00055	0.00041	0.00013	3e-05	-3e-05	5
48325	-7e-05	-5e-05	-3e-05	0.00055	0.00041	0.00013	3e-05	-3e-05	5
48326	-7e-05	-5e-05	-3e-05	0.00055	0.00041	0.00013	3e-05	-3e-05	5
48327	-7e-05	-5e-05	-3e-05	0.00055	0.00041	0.00013	3e-05	-3e-05	5
48328	-7e-05	-5e-05	-3e-05	0.00055	0.00041	0.00013	3e-05	-3e-05	5
48329	-7e-05	-5e-05	-3e-05	0.00055	0.00041	0.00013	3e-05	-3e-05	5
48330	-7e-05	-5e-05	-3e-05	0.00055	0.00041	0.00013	3e-05	-3e-05	5
48331	-7e-05	-5e-05	-3e-05	0.00055	0.00041	0.00013	3e-05	-3e-05	5
48332	-7e-05	-5e-05	-3e-05	0.00055	0.00041	0.00013	3e-05	-3e-05	5
48333	-7e-05	-5e-05	-3e-05	0.00055	0.00041	0.00013	3e-05	-3e-05	5
48334	-7e-05	-5e-05	-3e-05	0.00055	0.00041	0.00013	3e-05	-3e-05	5
48335	-7e-05	-5e-05	-3e-05	0.00055	0.00041	0.00013	3e-05	-3e-05	5
48336	-7e-05	-5e-05	-3e-05	0.00055	0.00041	0.00013	3e-05	-3e-05	5
48340	-4e-05	0	0.00013	0.00061	0.00107	0.00033	8e-05	-5e-05	5
48341	-4e-05	0	0.00013	0.00061	0.00107	0.00033	8e-05	-5e-05	5
48342	-4e-05	0	0.00013	0.00061	0.00107	0.00033	8e-05	-5e-05	5
48343	-4e-05	0	0.00013	0.00061	0.00107	0.00033	8e-05	-5e-05	5
48344	-4e-05	0	0.00013	0.00061	0.00107	0.00033	8e-05	-5e-05	5
48345	-4e-05	0	0.00013	0.00061	0.00107	0.00033	8e-05	-5e-05	5
48346	-4e-05	0	0.00013	0.00061	0.00107	0.00033	8e-05	-5e-05	5
48347	-4e-05	0	0.00013	0.00061	0.00107	0.00033	8e-05	-5e-05	5
48348	-4e-05	0	0.00013	0.00061	0.00107	0.00033	8e-05	-5e-05	5
48349	-4e-05	0	0.00013	0.00061	0.00107	0.00033	8e-05	-5e-05	5
48350	-4e-05	0	0.00013	0.00061	0.00107	0.00033	8e-05	-5e-05	5
48351	-4e-05	0	0.00013	0.00061	0.00107	0.00033	8e-05	-5e-05	5
48352	-4e-05	0	0.00013	0.00061	0.00107	0.00033	8e-05	-5e-05	5
48353	-4e-05	0	0.00013	0.00061	0.00107	0.00033	8e-05	-5e-05	5
48354	-4e-05	0	0.00013	0.00061	0.00107	0.00033	8e-05	-5e-05	5
48355	-4e-05	0	0.00013	0.00061	0.00107	0.00033	8e-05	-5e-05	5
48356	-4e-05	0	0.00013	0.00061	0.00107	0.00033	8e-05	-5e-05	5
48357	-4e-05	0	0.00013	0.00061	0.00107	0.00033	8e-05	-5e-05	5
48358	-4e-05	0	0.00013	0.00061	0.00107	0.00033	8e-05	-5e-05	5
48359	-4e-05	0	0.00013	0.00061	0.00107	0.00033	8e-05	-5e-05	5
48360	-0.00011	-0.0001	-1e-05	0.00018	4e-05	-3e-05	-6e-05	-3e-05	5
48361	-2e-05	2e-05	6e-05	0.0002	-0.00022	1e-05	7e-05	1e-05	5
48362	-2e-05	2e-05	6e-05	0.0002	-0.00022	1e-05	7e-05	1e-05	5
48363	-2e-05	2e-05	6e-05	0.0002	-0.00022	1e-05	7e-05	1e-05	5
48364	-2e-05	2e-05	6e-05	0.0002	-0.00022	1e-05	7e-05	1e-05	5
48365	-2e-05	2e-05	6e-05	0.0002	-0.00022	1e-05	7e-05	1e-05	5
48366	-2e-05	2e-05	6e-05	0.0002	-0.00022	1e-05	7e-05	1e-05	5
48367	-2e-05	2e-05	6e-05	0.0002	-0.00022	1e-05	7e-05	1e-05	5
48368	-2e-05	2e-05	6e-05	0.0002	-0.00022	1e-05	7e-05	1e-05	5
48369	-2e-05	2e-05	6e-05	0.0002	-0.00022	1e-05	7e-05	1e-05	5
48370	-2e-05	2e-05	6e-05	0.0002	-0.00022	1e-05	7e-05	1e-05	5
48371	-2e-05	2e-05	6e-05	0.0002	-0.00022	1e-05	7e-05	1e-05	5
48372	-2e-05	2e-05	6e-05	0.0002	-0.00022	1e-05	7e-05	1e-05	5
48373	-2e-05	2e-05	6e-05	0.0002	-0.00022	1e-05	7e-05	1e-05	5
48374	1e-05	5e-05	1e-05	8e-05	-8e-05	-4e-05	3e-05	-2e-05	5
48375	-9e-05	-0.00018	-0.00015	2e-05	0.00022	-8e-05	-7e-05	-5e-05	5
48376	-9e-05	-0.00018	-0.00015	2e-05	0.00022	-8e-05	-7e-05	-5e-05	5
48377	-9e-05	-0.00018	-0.00015	2e-05	0.00022	-8e-05	-7e-05	-5e-05	5
48378	-9e-05	-0.00018	-0.00015	2e-05	0.00022	-8e-05	-7e-05	-5e-05	5
48379	-9e-05	-0.00018	-0.00015	2e-05	0.00022	-8e-05	-7e-05	-5e-05	5
48380	-9e-05	-0.00018	-0.00015	2e-05	0.00022	-8e-05	-7e-05	-5e-05	5
48381	-9e-05	-0.00018	-0.00015	2e-05	0.00022	-8e-05	-7e-05	-5e-05	5
48382	-9e-05	-0.00018	-0.00015	2e-05	0.00022	-8e-05	-7e-05	-5e-05	5
48383	-9e-05	-0.00018	-0.00015	2e-05	0.00022	-8e-05	-7e-05	-5e-05	5
48384	-9e-05	-0.00018	-0.00015	2e-05	0.00022	-8e-05	-7e-05	-5e-05	5
48385	-9e-05	-0.00018	-0.00015	2e-05	0.00022	-8e-05	-7e-05	-5e-05	5
48386	-9e-05	-0.00018	-0.00015	2e-05	0.00022	-8e-05	-7e-05	-5e-05	5
48388	-9e-05	-0.00018	-0.00015	2e-05	0.00022	-8e-05	-7e-05	-5e-05	5
48389	-9e-05	-0.00018	-0.00015	2e-05	0.00022	-8e-05	-7e-05	-5e-05	5
48390	-9e-05	-0.00018	-0.00015	2e-05	0.00022	-8e-05	-7e-05	-5e-05	5
48391	-9e-05	-0.00018	-0.00015	2e-05	0.00022	-8e-05	-7e-05	-5e-05	5
48392	-9e-05	-0.00018	-0.00015	2e-05	0.00022	-8e-05	-7e-05	-5e-05	5
48393	-9e-05	-0.00018	-0.00015	2e-05	0.00022	-8e-05	-7e-05	-5e-05	5
48394	-9e-05	-0.00018	-0.00015	2e-05	0.00022	-8e-05	-7e-05	-5e-05	5
48395	-9e-05	-0.00018	-0.00015	2e-05	0.00022	-8e-05	-7e-05	-5e-05	5
48396	-9e-05	-0.00018	-0.00015	2e-05	0.00022	-8e-05	-7e-05	-5e-05	5
48397	0.00017	0.00024	0.00045	0.00078	0.00029	0.00035	0.00019	0.00017	5
48399	0.00017	0.00024	0.00045	0.00078	0.00029	0.00035	0.00019	0.00017	5
48400	0.00017	0.00024	0.00045	0.00078	0.00029	0.00035	0.00019	0.00017	5
48401	0.00017	0.00024	0.00045	0.00078	0.00029	0.00035	0.00019	0.00017	5
48402	0.00017	0.00024	0.00045	0.00078	0.00029	0.00035	0.00019	0.00017	5
48403	0.00017	0.00024	0.00045	0.00078	0.00029	0.00035	0.00019	0.00017	5
48404	0.00017	0.00024	0.00045	0.00078	0.00029	0.00035	0.00019	0.00017	5
48405	0.00017	0.00024	0.00045	0.00078	0.00029	0.00035	0.00019	0.00017	5
48406	0.00017	0.00024	0.00045	0.00078	0.00029	0.00035	0.00019	0.00017	5
48407	0.00017	0.00024	0.00045	0.00078	0.00029	0.00035	0.00019	0.00017	5
48408	0.00017	0.00024	0.00045	0.00078	0.00029	0.00035	0.00019	0.00017	5
48409	0.00017	0.00024	0.00045	0.00078	0.00029	0.00035	0.00019	0.00017	5
48410	0.00017	0.00024	0.00045	0.00078	0.00029	0.00035	0.00019	0.00017	5
48411	0.00017	0.00024	0.00045	0.00078	0.00029	0.00035	0.00019	0.00017	5
48412	0.00017	0.00024	0.00045	0.00078	0.00029	0.00035	0.00019	0.00017	5
48413	0.00017	0.00024	0.00045	0.00078	0.00029	0.00035	0.00019	0.00017	5
48414	0.00017	0.00024	0.00045	0.00078	0.00029	0.00035	0.00019	0.00017	5
48415	0.00017	0.00024	0.00045	0.00078	0.00029	0.00035	0.00019	0.00017	5
48416	0.00017	0.00024	0.00045	0.00078	0.00029	0.00035	0.00019	0.00017	5
48417	0.00017	0.00024	0.00045	0.00078	0.00029	0.00035	0.00019	0.00017	5
48418	0.00017	0.00024	0.00045	0.00078	0.00029	0.00035	0.00019	0.00017	5
48419	0.00017	0.00024	0.00045	0.00078	0.00029	0.00035	0.00019	0.00017	5
48420	-4e-05	2e-05	5e-05	-9e-05	-0.00031	-3e-05	0	1e-05	5
48421	0	-4e-05	-0.00013	-0.00053	-0.00038	-9e-05	-3e-05	-1e-05	5
48422	0	-4e-05	-0.00013	-0.00053	-0.00038	-9e-05	-3e-05	-1e-05	5
48423	0	-4e-05	-0.00013	-0.00053	-0.00038	-9e-05	-3e-05	-1e-05	5
48424	0	-4e-05	-0.00013	-0.00053	-0.00038	-9e-05	-3e-05	-1e-05	5
48425	0	-4e-05	-0.00013	-0.00053	-0.00038	-9e-05	-3e-05	-1e-05	5
48426	0	-4e-05	-0.00013	-0.00053	-0.00038	-9e-05	-3e-05	-1e-05	5
48427	0	-4e-05	-0.00013	-0.00053	-0.00038	-9e-05	-3e-05	-1e-05	5
48428	0	-4e-05	-0.00013	-0.00053	-0.00038	-9e-05	-3e-05	-1e-05	5
48429	0	-4e-05	-0.00013	-0.00053	-0.00038	-9e-05	-3e-05	-1e-05	5
48430	0	-4e-05	-0.00013	-0.00053	-0.00038	-9e-05	-3e-05	-1e-05	5
48431	0	-4e-05	-0.00013	-0.00053	-0.00038	-9e-05	-3e-05	-1e-05	5
48432	0	-4e-05	-0.00013	-0.00053	-0.00038	-9e-05	-3e-05	-1e-05	5
48433	0	-4e-05	-0.00013	-0.00053	-0.00038	-9e-05	-3e-05	-1e-05	5
48434	-0.00015	-9e-05	-0.00012	0.00021	0.00057	-4e-05	-5e-05	-9e-05	5
48435	-2e-05	-0.00011	-4e-05	-0.00016	-0.00029	2e-05	-1e-05	0	5
48436	-2e-05	-0.00011	-4e-05	-0.00016	-0.00029	2e-05	-1e-05	0	5
48439	-2e-05	-0.00011	-4e-05	-0.00016	-0.00029	2e-05	-1e-05	0	5
48440	-2e-05	-0.00011	-4e-05	-0.00016	-0.00029	2e-05	-1e-05	0	5
48441	-2e-05	-0.00011	-4e-05	-0.00016	-0.00029	2e-05	-1e-05	0	5
48442	-2e-05	-0.00011	-4e-05	-0.00016	-0.00029	2e-05	-1e-05	0	5
48443	-2e-05	-0.00011	-4e-05	-0.00016	-0.00029	2e-05	-1e-05	0	5
48444	-2e-05	-0.00011	-4e-05	-0.00016	-0.00029	2e-05	-1e-05	0	5
48447	-2e-05	-0.00011	-4e-05	-0.00016	-0.00029	2e-05	-1e-05	0	5
48448	-2e-05	-0.00011	-4e-05	-0.00016	-0.00029	2e-05	-1e-05	0	5
48449	-2e-05	-0.00011	-4e-05	-0.00016	-0.00029	2e-05	-1e-05	0	5
48450	-2e-05	-0.00011	-4e-05	-0.00016	-0.00029	2e-05	-1e-05	0	5
48451	-2e-05	-0.00011	-4e-05	-0.00016	-0.00029	2e-05	-1e-05	0	5
48452	-2e-05	-0.00011	-4e-05	-0.00016	-0.00029	2e-05	-1e-05	0	5
48453	-2e-05	-0.00011	-4e-05	-0.00016	-0.00029	2e-05	-1e-05	0	5
48454	-2e-05	-0.00011	-4e-05	-0.00016	-0.00029	2e-05	-1e-05	0	5
48455	-2e-05	-0.00011	-4e-05	-0.00016	-0.00029	2e-05	-1e-05	0	5
48456	-2e-05	-0.00011	-4e-05	-0.00016	-0.00029	2e-05	-1e-05	0	5
48457	-8e-05	-0.00011	-5e-05	0.00023	0.00082	0.00026	5e-05	-4e-05	5
48458	-8e-05	-0.00011	-5e-05	0.00023	0.00082	0.00026	5e-05	-4e-05	5
48459	0	9e-05	0.00011	0.00052	-0.0001	-9e-05	1e-05	2e-05	5
48460	0	9e-05	0.00011	0.00052	-0.0001	-9e-05	1e-05	2e-05	5
48461	0	9e-05	0.00011	0.00052	-0.0001	-9e-05	1e-05	2e-05	5
48462	0	9e-05	0.00011	0.00052	-0.0001	-9e-05	1e-05	2e-05	5
48463	0	9e-05	0.00011	0.00052	-0.0001	-9e-05	1e-05	2e-05	5
48464	0	9e-05	0.00011	0.00052	-0.0001	-9e-05	1e-05	2e-05	5
48465	0	9e-05	0.00011	0.00052	-0.0001	-9e-05	1e-05	2e-05	5
48466	0	9e-05	0.00011	0.00052	-0.0001	-9e-05	1e-05	2e-05	5
48467	0	9e-05	0.00011	0.00052	-0.0001	-9e-05	1e-05	2e-05	5
48468	0	9e-05	0.00011	0.00052	-0.0001	-9e-05	1e-05	2e-05	5
48469	0	9e-05	0.00011	0.00052	-0.0001	-9e-05	1e-05	2e-05	5
48470	0	9e-05	0.00011	0.00052	-0.0001	-9e-05	1e-05	2e-05	5
48471	0	9e-05	0.00011	0.00052	-0.0001	-9e-05	1e-05	2e-05	5
48472	0	9e-05	0.00011	0.00052	-0.0001	-9e-05	1e-05	2e-05	5
48473	0	9e-05	0.00011	0.00052	-0.0001	-9e-05	1e-05	2e-05	5
48474	0	9e-05	0.00011	0.00052	-0.0001	-9e-05	1e-05	2e-05	5
48475	0	9e-05	0.00011	0.00052	-0.0001	-9e-05	1e-05	2e-05	5
48476	0	9e-05	0.00011	0.00052	-0.0001	-9e-05	1e-05	2e-05	5
48477	0	9e-05	0.00011	0.00052	-0.0001	-9e-05	1e-05	2e-05	5
48478	0	9e-05	0.00011	0.00052	-0.0001	-9e-05	1e-05	2e-05	5
48479	0	9e-05	0.00011	0.00052	-0.0001	-9e-05	1e-05	2e-05	5
48480	2e-05	5e-05	0.00015	0.00021	-0.00028	-4e-05	-4e-05	-5e-05	5
48481	-3e-05	-8e-05	-0.00013	-0.00089	-0.00042	-0.00012	-8e-05	-3e-05	5
48482	-3e-05	-8e-05	-0.00013	-0.00089	-0.00042	-0.00012	-8e-05	-3e-05	5
48483	-3e-05	-8e-05	-0.00013	-0.00089	-0.00042	-0.00012	-8e-05	-3e-05	5
48484	-3e-05	-8e-05	-0.00013	-0.00089	-0.00042	-0.00012	-8e-05	-3e-05	5
48485	-3e-05	-8e-05	-0.00013	-0.00089	-0.00042	-0.00012	-8e-05	-3e-05	5
48486	-3e-05	-8e-05	-0.00013	-0.00089	-0.00042	-0.00012	-8e-05	-3e-05	5
48488	-3e-05	-8e-05	-0.00013	-0.00089	-0.00042	-0.00012	-8e-05	-3e-05	5
48489	-3e-05	-8e-05	-0.00013	-0.00089	-0.00042	-0.00012	-8e-05	-3e-05	5
48490	-3e-05	-8e-05	-0.00013	-0.00089	-0.00042	-0.00012	-8e-05	-3e-05	5
48491	-3e-05	-8e-05	-0.00013	-0.00089	-0.00042	-0.00012	-8e-05	-3e-05	5
48492	-3e-05	-8e-05	-0.00013	-0.00089	-0.00042	-0.00012	-8e-05	-3e-05	5
48493	-2e-05	-8e-05	2e-05	0.00036	-0.00039	-0.00012	-2e-05	0	5
48494	4e-05	0.00015	0.00021	0.00045	0.00054	9e-05	6e-05	-2e-05	5
48495	4e-05	0.00015	0.00021	0.00045	0.00054	9e-05	6e-05	-2e-05	5
48496	4e-05	0.00015	0.00021	0.00045	0.00054	9e-05	6e-05	-2e-05	5
48497	4e-05	0.00015	0.00021	0.00045	0.00054	9e-05	6e-05	-2e-05	5
48498	4e-05	0.00015	0.00021	0.00045	0.00054	9e-05	6e-05	-2e-05	5
48499	4e-05	0.00015	0.00021	0.00045	0.00054	9e-05	6e-05	-2e-05	5
48500	4e-05	0.00015	0.00021	0.00045	0.00054	9e-05	6e-05	-2e-05	5
48501	4e-05	0.00015	0.00021	0.00045	0.00054	9e-05	6e-05	-2e-05	5
48502	-4e-05	-0.00011	-0.00034	-0.00093	-0.00036	-0.00014	-9e-05	-7e-05	5
48503	-4e-05	-0.00011	-0.00034	-0.00093	-0.00036	-0.00014	-9e-05	-7e-05	5
48504	-4e-05	-0.00011	-0.00034	-0.00093	-0.00036	-0.00014	-9e-05	-7e-05	5
48505	-4e-05	-0.00011	-0.00034	-0.00093	-0.00036	-0.00014	-9e-05	-7e-05	5
48506	-4e-05	-0.00011	-0.00034	-0.00093	-0.00036	-0.00014	-9e-05	-7e-05	5
48507	-4e-05	-0.00011	-0.00034	-0.00093	-0.00036	-0.00014	-9e-05	-7e-05	5
48508	-4e-05	-0.00011	-0.00034	-0.00093	-0.00036	-0.00014	-9e-05	-7e-05	5
48509	-4e-05	-0.00011	-0.00034	-0.00093	-0.00036	-0.00014	-9e-05	-7e-05	5
48510	-4e-05	-0.00011	-0.00034	-0.00093	-0.00036	-0.00014	-9e-05	-7e-05	5
48511	-4e-05	-0.00011	-0.00034	-0.00093	-0.00036	-0.00014	-9e-05	-7e-05	5
48512	-4e-05	-0.00011	-0.00034	-0.00093	-0.00036	-0.00014	-9e-05	-7e-05	5
48513	-4e-05	-0.00011	-0.00034	-0.00093	-0.00036	-0.00014	-9e-05	-7e-05	5
48514	-4e-05	-0.00011	-0.00034	-0.00093	-0.00036	-0.00014	-9e-05	-7e-05	5
48515	-4e-05	-0.00011	-0.00034	-0.00093	-0.00036	-0.00014	-9e-05	-7e-05	5
48516	-4e-05	-0.00011	-0.00034	-0.00093	-0.00036	-0.00014	-9e-05	-7e-05	5
48517	-3e-05	-2e-05	-7e-05	-0.00017	-0.00037	-8e-05	-2e-05	1e-05	5
48518	-3e-05	-2e-05	-7e-05	-0.00017	-0.00037	-8e-05	-2e-05	1e-05	5
48519	5e-05	-5e-05	-0.0001	0.00042	0.0007	3e-05	-3e-05	-3e-05	5
48520	5e-05	-5e-05	-0.0001	0.00042	0.0007	3e-05	-3e-05	-3e-05	5
48521	5e-05	-5e-05	-0.0001	0.00042	0.0007	3e-05	-3e-05	-3e-05	5
48522	5e-05	-5e-05	-0.0001	0.00042	0.0007	3e-05	-3e-05	-3e-05	5
48523	5e-05	-5e-05	-0.0001	0.00042	0.0007	3e-05	-3e-05	-3e-05	5
48524	5e-05	-5e-05	-0.0001	0.00042	0.0007	3e-05	-3e-05	-3e-05	5
48525	5e-05	-5e-05	-0.0001	0.00042	0.0007	3e-05	-3e-05	-3e-05	5
48526	5e-05	-5e-05	-0.0001	0.00042	0.0007	3e-05	-3e-05	-3e-05	5
48527	5e-05	-5e-05	-0.0001	0.00042	0.0007	3e-05	-3e-05	-3e-05	5
48528	5e-05	-5e-05	-0.0001	0.00042	0.0007	3e-05	-3e-05	-3e-05	5
48529	5e-05	-5e-05	-0.0001	0.00042	0.0007	3e-05	-3e-05	-3e-05	5
48530	5e-05	-5e-05	-0.0001	0.00042	0.0007	3e-05	-3e-05	-3e-05	5
48531	5e-05	-5e-05	-0.0001	0.00042	0.0007	3e-05	-3e-05	-3e-05	5
48532	5e-05	-5e-05	-0.0001	0.00042	0.0007	3e-05	-3e-05	-3e-05	5
48533	5e-05	-5e-05	-0.0001	0.00042	0.0007	3e-05	-3e-05	-3e-05	5
48534	5e-05	-5e-05	-0.0001	0.00042	0.0007	3e-05	-3e-05	-3e-05	5
48535	5e-05	-5e-05	-0.0001	0.00042	0.0007	3e-05	-3e-05	-3e-05	5
48536	5e-05	-5e-05	-0.0001	0.00042	0.0007	3e-05	-3e-05	-3e-05	5
48538	5e-05	-5e-05	-0.0001	0.00042	0.0007	3e-05	-3e-05	-3e-05	5
48539	5e-05	-5e-05	-0.0001	0.00042	0.0007	3e-05	-3e-05	-3e-05	5
48540	2e-05	-9e-05	-0.00025	-0.0007	-0.00082	-0.00013	-6e-05	0	5
48541	-6e-05	-5e-05	-1e-05	0.0001	-0.00014	-0.00017	-7e-05	-3e-05	5
48542	-6e-05	-5e-05	-1e-05	0.0001	-0.00014	-0.00017	-7e-05	-3e-05	5
48543	-6e-05	-5e-05	-1e-05	0.0001	-0.00014	-0.00017	-7e-05	-3e-05	5
48544	-6e-05	-5e-05	-1e-05	0.0001	-0.00014	-0.00017	-7e-05	-3e-05	5
48545	-6e-05	-5e-05	-1e-05	0.0001	-0.00014	-0.00017	-7e-05	-3e-05	5
48546	-6e-05	-5e-05	-1e-05	0.0001	-0.00014	-0.00017	-7e-05	-3e-05	5
48547	-6e-05	-5e-05	-1e-05	0.0001	-0.00014	-0.00017	-7e-05	-3e-05	5
48548	-6e-05	-5e-05	-1e-05	0.0001	-0.00014	-0.00017	-7e-05	-3e-05	5
48549	-6e-05	-5e-05	-1e-05	0.0001	-0.00014	-0.00017	-7e-05	-3e-05	5
48550	-6e-05	-5e-05	-1e-05	0.0001	-0.00014	-0.00017	-7e-05	-3e-05	5
48551	-6e-05	-5e-05	-1e-05	0.0001	-0.00014	-0.00017	-7e-05	-3e-05	5
48552	-6e-05	-5e-05	-1e-05	0.0001	-0.00014	-0.00017	-7e-05	-3e-05	5
48553	-6e-05	-5e-05	-1e-05	0.0001	-0.00014	-0.00017	-7e-05	-3e-05	5
48554	5e-05	0	-3e-05	-0.0001	-0.00019	-7e-05	-1e-05	1e-05	5
48555	5e-05	0	-3e-05	-0.0001	-0.00019	-7e-05	-1e-05	1e-05	5
48556	5e-05	0	-3e-05	-0.0001	-0.00019	-7e-05	-1e-05	1e-05	5
48557	5e-05	0	-3e-05	-0.0001	-0.00019	-7e-05	-1e-05	1e-05	5
48558	5e-05	0	-3e-05	-0.0001	-0.00019	-7e-05	-1e-05	1e-05	5
48559	5e-05	0	-3e-05	-0.0001	-0.00019	-7e-05	-1e-05	1e-05	5
48560	5e-05	0	-3e-05	-0.0001	-0.00019	-7e-05	-1e-05	1e-05	5
48561	0	-1e-05	-2e-05	0.00019	0.00031	4e-05	1e-05	0	5
48562	0	-1e-05	-2e-05	0.00019	0.00031	4e-05	1e-05	0	5
48563	0	-1e-05	-2e-05	0.00019	0.00031	4e-05	1e-05	0	5
48564	0	-1e-05	-2e-05	0.00019	0.00031	4e-05	1e-05	0	5
48565	0	-1e-05	-2e-05	0.00019	0.00031	4e-05	1e-05	0	5
48566	0	-1e-05	-2e-05	0.00019	0.00031	4e-05	1e-05	0	5
48567	0	-1e-05	-2e-05	0.00019	0.00031	4e-05	1e-05	0	5
48568	0	-1e-05	-2e-05	0.00019	0.00031	4e-05	1e-05	0	5
48569	0	-1e-05	-2e-05	0.00019	0.00031	4e-05	1e-05	0	5
48570	0	-1e-05	-2e-05	0.00019	0.00031	4e-05	1e-05	0	5
48571	0	-1e-05	-2e-05	0.00019	0.00031	4e-05	1e-05	0	5
48572	0	-1e-05	-2e-05	0.00019	0.00031	4e-05	1e-05	0	5
48573	0	-1e-05	-2e-05	0.00019	0.00031	4e-05	1e-05	0	5
48574	0	-1e-05	-2e-05	0.00019	0.00031	4e-05	1e-05	0	5
48575	0	-1e-05	-2e-05	0.00019	0.00031	4e-05	1e-05	0	5
48576	0	-1e-05	-2e-05	0.00019	0.00031	4e-05	1e-05	0	5
48577	-5e-05	-0.00014	-0.00015	-0.00053	-0.00108	-0.00032	-0.00013	-8e-05	5
48578	-5e-05	-0.00014	-0.00015	-0.00053	-0.00108	-0.00032	-0.00013	-8e-05	5
48579	-4e-05	7e-05	0.00027	0.00071	-5e-05	6e-05	5e-05	-3e-05	5
48580	-4e-05	7e-05	0.00027	0.00071	-5e-05	6e-05	5e-05	-3e-05	5
48581	-4e-05	7e-05	0.00027	0.00071	-5e-05	6e-05	5e-05	-3e-05	5
48582	-4e-05	7e-05	0.00027	0.00071	-5e-05	6e-05	5e-05	-3e-05	5
48583	-4e-05	7e-05	0.00027	0.00071	-5e-05	6e-05	5e-05	-3e-05	5
48584	-4e-05	7e-05	0.00027	0.00071	-5e-05	6e-05	5e-05	-3e-05	5
48585	-4e-05	7e-05	0.00027	0.00071	-5e-05	6e-05	5e-05	-3e-05	5
48586	-4e-05	7e-05	0.00027	0.00071	-5e-05	6e-05	5e-05	-3e-05	5
48588	-4e-05	7e-05	0.00027	0.00071	-5e-05	6e-05	5e-05	-3e-05	5
48590	-4e-05	7e-05	0.00027	0.00071	-5e-05	6e-05	5e-05	-3e-05	5
48591	-4e-05	7e-05	0.00027	0.00071	-5e-05	6e-05	5e-05	-3e-05	5
48592	-4e-05	7e-05	0.00027	0.00071	-5e-05	6e-05	5e-05	-3e-05	5
48593	-4e-05	7e-05	0.00027	0.00071	-5e-05	6e-05	5e-05	-3e-05	5
48594	-4e-05	7e-05	0.00027	0.00071	-5e-05	6e-05	5e-05	-3e-05	5
48595	-4e-05	7e-05	0.00027	0.00071	-5e-05	6e-05	5e-05	-3e-05	5
48596	-4e-05	7e-05	0.00027	0.00071	-5e-05	6e-05	5e-05	-3e-05	5
48597	-4e-05	7e-05	0.00027	0.00071	-5e-05	6e-05	5e-05	-3e-05	5
48598	-4e-05	7e-05	0.00027	0.00071	-5e-05	6e-05	5e-05	-3e-05	5
48599	-4e-05	7e-05	0.00027	0.00071	-5e-05	6e-05	5e-05	-3e-05	5
48600	2e-05	2e-05	3e-05	0.00018	-7e-05	-8e-05	-4e-05	1e-05	5
48601	0.00011	0.00013	0.00016	0.00034	0.0002	4e-05	3e-05	3e-05	5
48602	0	-7e-05	-0.00014	-0.00036	-4e-05	-5e-05	-4e-05	0	5
48603	0	-7e-05	-0.00014	-0.00036	-4e-05	-5e-05	-4e-05	0	5
48604	0	-7e-05	-0.00014	-0.00036	-4e-05	-5e-05	-4e-05	0	5
48605	0	-7e-05	-0.00014	-0.00036	-4e-05	-5e-05	-4e-05	0	5
48606	0	-7e-05	-0.00014	-0.00036	-4e-05	-5e-05	-4e-05	0	5
48607	0	-7e-05	-0.00014	-0.00036	-4e-05	-5e-05	-4e-05	0	5
48608	0	-7e-05	-0.00014	-0.00036	-4e-05	-5e-05	-4e-05	0	5
48609	0	-7e-05	-0.00014	-0.00036	-4e-05	-5e-05	-4e-05	0	5
48610	0	-7e-05	-0.00014	-0.00036	-4e-05	-5e-05	-4e-05	0	5
48611	0	-7e-05	-0.00014	-0.00036	-4e-05	-5e-05	-4e-05	0	5
48612	0	-7e-05	-0.00014	-0.00036	-4e-05	-5e-05	-4e-05	0	5
48613	0	-7e-05	-0.00014	-0.00036	-4e-05	-5e-05	-4e-05	0	5
48614	4e-05	0.00013	0.00024	0.00041	0.00034	0.00017	9e-05	6e-05	5
48615	4e-05	0.00013	0.00024	0.00041	0.00034	0.00017	9e-05	6e-05	5
48616	4e-05	0.00013	0.00024	0.00041	0.00034	0.00017	9e-05	6e-05	5
48617	4e-05	0.00013	0.00024	0.00041	0.00034	0.00017	9e-05	6e-05	5
48618	4e-05	0.00013	0.00024	0.00041	0.00034	0.00017	9e-05	6e-05	5
48619	4e-05	0.00013	0.00024	0.00041	0.00034	0.00017	9e-05	6e-05	5
48620	4e-05	0.00013	0.00024	0.00041	0.00034	0.00017	9e-05	6e-05	5
48621	1e-05	-1e-05	-0.00015	-0.00024	-0.0002	-0.00018	-9e-05	-3e-05	5
48622	1e-05	-1e-05	-0.00015	-0.00024	-0.0002	-0.00018	-9e-05	-3e-05	5
48623	1e-05	-1e-05	-0.00015	-0.00024	-0.0002	-0.00018	-9e-05	-3e-05	5
48624	1e-05	-1e-05	-0.00015	-0.00024	-0.0002	-0.00018	-9e-05	-3e-05	5
48625	1e-05	-1e-05	-0.00015	-0.00024	-0.0002	-0.00018	-9e-05	-3e-05	5
48626	1e-05	-1e-05	-0.00015	-0.00024	-0.0002	-0.00018	-9e-05	-3e-05	5
48627	1e-05	-1e-05	-0.00015	-0.00024	-0.0002	-0.00018	-9e-05	-3e-05	5
48628	1e-05	-1e-05	-0.00015	-0.00024	-0.0002	-0.00018	-9e-05	-3e-05	5
48629	1e-05	-1e-05	-0.00015	-0.00024	-0.0002	-0.00018	-9e-05	-3e-05	5
48630	1e-05	-1e-05	-0.00015	-0.00024	-0.0002	-0.00018	-9e-05	-3e-05	5
48631	1e-05	-1e-05	-0.00015	-0.00024	-0.0002	-0.00018	-9e-05	-3e-05	5
48632	1e-05	-1e-05	-0.00015	-0.00024	-0.0002	-0.00018	-9e-05	-3e-05	5
48633	1e-05	-1e-05	-0.00015	-0.00024	-0.0002	-0.00018	-9e-05	-3e-05	5
48634	1e-05	-1e-05	-0.00015	-0.00024	-0.0002	-0.00018	-9e-05	-3e-05	5
48635	1e-05	-1e-05	-0.00015	-0.00024	-0.0002	-0.00018	-9e-05	-3e-05	5
48636	1e-05	-1e-05	-0.00015	-0.00024	-0.0002	-0.00018	-9e-05	-3e-05	5
48639	1e-05	-1e-05	-0.00015	-0.00024	-0.0002	-0.00018	-9e-05	-3e-05	5
48641	1e-05	-1e-05	-0.00015	-0.00024	-0.0002	-0.00018	-9e-05	-3e-05	5
48642	1e-05	-1e-05	-0.00015	-0.00024	-0.0002	-0.00018	-9e-05	-3e-05	5
48643	1e-05	-1e-05	-0.00015	-0.00024	-0.0002	-0.00018	-9e-05	-3e-05	5
48644	1e-05	-1e-05	-0.00015	-0.00024	-0.0002	-0.00018	-9e-05	-3e-05	5
48645	1e-05	-1e-05	-0.00015	-0.00024	-0.0002	-0.00018	-9e-05	-3e-05	5
48646	1e-05	-1e-05	-0.00015	-0.00024	-0.0002	-0.00018	-9e-05	-3e-05	5
48647	1e-05	-1e-05	-0.00015	-0.00024	-0.0002	-0.00018	-9e-05	-3e-05	5
48648	1e-05	-1e-05	-0.00015	-0.00024	-0.0002	-0.00018	-9e-05	-3e-05	5
48649	1e-05	-1e-05	-0.00015	-0.00024	-0.0002	-0.00018	-9e-05	-3e-05	5
48650	1e-05	-1e-05	-0.00015	-0.00024	-0.0002	-0.00018	-9e-05	-3e-05	5
48651	1e-05	-1e-05	-0.00015	-0.00024	-0.0002	-0.00018	-9e-05	-3e-05	5
48652	2e-05	-3e-05	3e-05	0.00073	0.0004	0.00011	4e-05	0	5
48653	2e-05	-3e-05	3e-05	0.00073	0.0004	0.00011	4e-05	0	5
48654	3e-05	5e-05	1e-05	8e-05	9e-05	-2e-05	0	1e-05	5
48655	3e-05	5e-05	1e-05	8e-05	9e-05	-2e-05	0	1e-05	5
48656	3e-05	5e-05	1e-05	8e-05	9e-05	-2e-05	0	1e-05	5
48657	3e-05	5e-05	1e-05	8e-05	9e-05	-2e-05	0	1e-05	5
48658	3e-05	5e-05	1e-05	8e-05	9e-05	-2e-05	0	1e-05	5
48659	3e-05	5e-05	1e-05	8e-05	9e-05	-2e-05	0	1e-05	5
48660	-3e-05	-2e-05	-8e-05	-0.00023	7e-05	7e-05	1e-05	7e-05	5
48661	1e-05	-4e-05	4e-05	0.00011	0.0001	0.00013	8e-05	4e-05	5
