24358	-1e-05	0	7e-05	-0.00031	-0.00042	-0.00018	4e-05	-1e-05	5
24359	-1e-05	0	7e-05	-0.00031	-0.00042	-0.00018	4e-05	-1e-05	5
24360	-1e-05	0	7e-05	-0.00031	-0.00042	-0.00018	4e-05	-1e-05	5
24361	-1e-05	0	7e-05	-0.00031	-0.00042	-0.00018	4e-05	-1e-05	5
24362	-1e-05	0	7e-05	-0.00031	-0.00042	-0.00018	4e-05	-1e-05	5
24363	-1e-05	0	7e-05	-0.00031	-0.00042	-0.00018	4e-05	-1e-05	5
24364	-1e-05	0	7e-05	-0.00031	-0.00042	-0.00018	4e-05	-1e-05	5
24365	-1e-05	0	7e-05	-0.00031	-0.00042	-0.00018	4e-05	-1e-05	5
24366	-1e-05	0	7e-05	-0.00031	-0.00042	-0.00018	4e-05	-1e-05	5
24367	-1e-05	0	7e-05	-0.00031	-0.00042	-0.00018	4e-05	-1e-05	5
24368	-1e-05	0	7e-05	-0.00031	-0.00042	-0.00018	4e-05	-1e-05	5
24369	2e-05	-0.00012	-0.00014	-0.00023	-0.00017	2e-05	0.00015	7e-05	5
24370	2e-05	-0.00012	-0.00014	-0.00023	-0.00017	2e-05	0.00015	7e-05	5
24371	2e-05	-0.00012	-0.00014	-0.00023	-0.00017	2e-05	0.00015	7e-05	5
24372	2e-05	-0.00012	-0.00014	-0.00023	-0.00017	2e-05	0.00015	7e-05	5
24373	2e-05	-0.00012	-0.00014	-0.00023	-0.00017	2e-05	0.00015	7e-05	5
24374	2e-05	-0.00012	-0.00014	-0.00023	-0.00017	2e-05	0.00015	7e-05	5
24375	2e-05	-0.00012	-0.00014	-0.00023	-0.00017	2e-05	0.00015	7e-05	5
24376	2e-05	-0.00012	-0.00014	-0.00023	-0.00017	2e-05	0.00015	7e-05	5
24377	2e-05	-0.00012	-0.00014	-0.00023	-0.00017	2e-05	0.00015	7e-05	5
24378	2e-05	-0.00012	-0.00014	-0.00023	-0.00017	2e-05	0.00015	7e-05	5
24379	2e-05	-0.00012	-0.00014	-0.00023	-0.00017	2e-05	0.00015	7e-05	5
24380	2e-05	-0.00012	-0.00014	-0.00023	-0.00017	2e-05	0.00015	7e-05	5
24381	2e-05	-0.00012	-0.00014	-0.00023	-0.00017	2e-05	0.00015	7e-05	5
24382	2e-05	-0.00012	-0.00014	-0.00023	-0.00017	2e-05	0.00015	7e-05	5
24383	2e-05	-0.00012	-0.00014	-0.00023	-0.00017	2e-05	0.00015	7e-05	5
24384	2e-05	-0.00012	-0.00014	-0.00023	-0.00017	2e-05	0.00015	7e-05	5
24385	2e-05	-0.00012	-0.00014	-0.00023	-0.00017	2e-05	0.00015	7e-05	5
24386	2e-05	-0.00012	-0.00014	-0.00023	-0.00017	2e-05	0.00015	7e-05	5
24388	2e-05	-0.00012	-0.00014	-0.00023	-0.00017	2e-05	0.00015	7e-05	5
24390	2e-05	-0.00012	-0.00014	-0.00023	-0.00017	2e-05	0.00015	7e-05	5
24391	2e-05	-0.00012	-0.00014	-0.00023	-0.00017	2e-05	0.00015	7e-05	5
24392	2e-05	-0.00012	-0.00014	-0.00023	-0.00017	2e-05	0.00015	7e-05	5
24393	2e-05	-0.00012	-0.00014	-0.00023	-0.00017	2e-05	0.00015	7e-05	5
24394	-8e-05	-0.00038	-0.00015	0.00021	-0.00014	1e-05	4e-05	4e-05	5
24395	-8e-05	-0.00038	-0.00015	0.00021	-0.00014	1e-05	4e-05	4e-05	5
24396	-0.00011	-0.00016	-0.00017	4e-05	0.00016	-0.00014	-0.00012	-0.00012	5
24397	-0.00011	-0.00016	-0.00017	4e-05	0.00016	-0.00014	-0.00012	-0.00012	5
24398	-0.00011	-0.00016	-0.00017	4e-05	0.00016	-0.00014	-0.00012	-0.00012	5
24399	-0.00011	-0.00016	-0.00017	4e-05	0.00016	-0.00014	-0.00012	-0.00012	5
24400	-0.00011	-0.00016	-0.00017	4e-05	0.00016	-0.00014	-0.00012	-0.00012	5
24401	-0.00011	-0.00016	-0.00017	4e-05	0.00016	-0.00014	-0.00012	-0.00012	5
24402	-0.00011	-0.00016	-0.00017	4e-05	0.00016	-0.00014	-0.00012	-0.00012	5
24403	-0.00011	-0.00016	-0.00017	4e-05	0.00016	-0.00014	-0.00012	-0.00012	5
24404	-0.00011	-0.00016	-0.00017	4e-05	0.00016	-0.00014	-0.00012	-0.00012	5
24405	-0.00011	-0.00016	-0.00017	4e-05	0.00016	-0.00014	-0.00012	-0.00012	5
24406	-0.00011	-0.00016	-0.00017	4e-05	0.00016	-0.00014	-0.00012	-0.00012	5
24407	-0.00011	-0.00016	-0.00017	4e-05	0.00016	-0.00014	-0.00012	-0.00012	5
24408	-0.00011	-0.00016	-0.00017	4e-05	0.00016	-0.00014	-0.00012	-0.00012	5
24409	-0.00011	-0.00016	-0.00017	4e-05	0.00016	-0.00014	-0.00012	-0.00012	5
24410	-0.00011	-0.00016	-0.00017	4e-05	0.00016	-0.00014	-0.00012	-0.00012	5
24411	-0.00011	-0.00016	-0.00017	4e-05	0.00016	-0.00014	-0.00012	-0.00012	5
24412	-0.00011	-0.00016	-0.00017	4e-05	0.00016	-0.00014	-0.00012	-0.00012	5
24413	-0.00011	-0.00016	-0.00017	4e-05	0.00016	-0.00014	-0.00012	-0.00012	5
24414	-0.00011	-0.00016	-0.00017	4e-05	0.00016	-0.00014	-0.00012	-0.00012	5
24415	8e-05	-0.00013	7e-05	0.00036	0.0005	0.00017	4e-05	1e-05	5
24416	8e-05	-0.00013	7e-05	0.00036	0.0005	0.00017	4e-05	1e-05	5
24417	-5e-05	-0.00011	-0.00015	-0.00028	2e-05	-5e-05	0	2e-05	5
24418	-5e-05	-0.00011	-0.00015	-0.00028	2e-05	-5e-05	0	2e-05	5
24419	-5e-05	-0.00011	-0.00015	-0.00028	2e-05	-5e-05	0	2e-05	5
24420	-5e-05	-0.00011	-0.00015	-0.00028	2e-05	-5e-05	0	2e-05	5
24421	-5e-05	-0.00011	-0.00015	-0.00028	2e-05	-5e-05	0	2e-05	5
24422	-5e-05	-0.00011	-0.00015	-0.00028	2e-05	-5e-05	0	2e-05	5
24423	-5e-05	-0.00011	-0.00015	-0.00028	2e-05	-5e-05	0	2e-05	5
24424	-5e-05	-0.00011	-0.00015	-0.00028	2e-05	-5e-05	0	2e-05	5
24425	-5e-05	-0.00011	-0.00015	-0.00028	2e-05	-5e-05	0	2e-05	5
24426	-5e-05	-0.00011	-0.00015	-0.00028	2e-05	-5e-05	0	2e-05	5
24427	-5e-05	-0.00011	-0.00015	-0.00028	2e-05	-5e-05	0	2e-05	5
24428	-5e-05	-0.00011	-0.00015	-0.00028	2e-05	-5e-05	0	2e-05	5
24429	-5e-05	0.00023	0.00028	0.00049	0.00056	7e-05	0	-4e-05	5
24430	-5e-05	0.00023	0.00028	0.00049	0.00056	7e-05	0	-4e-05	5
24431	-5e-05	0.00023	0.00028	0.00049	0.00056	7e-05	0	-4e-05	5
24432	-5e-05	0.00023	0.00028	0.00049	0.00056	7e-05	0	-4e-05	5
24433	-5e-05	0.00023	0.00028	0.00049	0.00056	7e-05	0	-4e-05	5
24434	-5e-05	0.00023	0.00028	0.00049	0.00056	7e-05	0	-4e-05	5
24435	-5e-05	0.00023	0.00028	0.00049	0.00056	7e-05	0	-4e-05	5
24436	-5e-05	0.00023	0.00028	0.00049	0.00056	7e-05	0	-4e-05	5
24438	-5e-05	0.00023	0.00028	0.00049	0.00056	7e-05	0	-4e-05	5
24439	-5e-05	0.00023	0.00028	0.00049	0.00056	7e-05	0	-4e-05	5
24440	-5e-05	0.00023	0.00028	0.00049	0.00056	7e-05	0	-4e-05	5
24441	-5e-05	0.00023	0.00028	0.00049	0.00056	7e-05	0	-4e-05	5
24442	-5e-05	0.00023	0.00028	0.00049	0.00056	7e-05	0	-4e-05	5
24443	-5e-05	0.00023	0.00028	0.00049	0.00056	7e-05	0	-4e-05	5
24444	-5e-05	0.00023	0.00028	0.00049	0.00056	7e-05	0	-4e-05	5
24445	-5e-05	-3e-05	-4e-05	0.00015	0.00034	2e-05	-0.00012	-0.00012	5
24446	-5e-05	-3e-05	-4e-05	0.00015	0.00034	2e-05	-0.00012	-0.00012	5
24447	-5e-05	-3e-05	-4e-05	0.00015	0.00034	2e-05	-0.00012	-0.00012	5
24448	-5e-05	-3e-05	-4e-05	0.00015	0.00034	2e-05	-0.00012	-0.00012	5
24449	-5e-05	-3e-05	-4e-05	0.00015	0.00034	2e-05	-0.00012	-0.00012	5
24450	-5e-05	-3e-05	-4e-05	0.00015	0.00034	2e-05	-0.00012	-0.00012	5
24451	-5e-05	-3e-05	-4e-05	0.00015	0.00034	2e-05	-0.00012	-0.00012	5
24452	-5e-05	-3e-05	-4e-05	0.00015	0.00034	2e-05	-0.00012	-0.00012	5
24453	-3e-05	-3e-05	5e-05	-0.00015	-0.00041	-0.00022	6e-05	-2e-05	5
24454	-3e-05	-3e-05	5e-05	-0.00015	-0.00041	-0.00022	6e-05	-2e-05	5
24455	-3e-05	-3e-05	5e-05	-0.00015	-0.00041	-0.00022	6e-05	-2e-05	5
24456	-3e-05	-3e-05	5e-05	-0.00015	-0.00041	-0.00022	6e-05	-2e-05	5
24457	-3e-05	-3e-05	5e-05	-0.00015	-0.00041	-0.00022	6e-05	-2e-05	5
24458	-3e-05	-3e-05	5e-05	-0.00015	-0.00041	-0.00022	6e-05	-2e-05	5
24459	7e-05	0.00017	0.0002	-0.00038	-0.00066	-0.00024	-7e-05	2e-05	5
24460	7e-05	0.00017	0.0002	-0.00038	-0.00066	-0.00024	-7e-05	2e-05	5
24461	7e-05	0.00017	0.0002	-0.00038	-0.00066	-0.00024	-7e-05	2e-05	5
24462	7e-05	0.00017	0.0002	-0.00038	-0.00066	-0.00024	-7e-05	2e-05	5
24463	7e-05	0.00017	0.0002	-0.00038	-0.00066	-0.00024	-7e-05	2e-05	5
24464	7e-05	0.00017	0.0002	-0.00038	-0.00066	-0.00024	-7e-05	2e-05	5
24465	7e-05	0.00017	0.0002	-0.00038	-0.00066	-0.00024	-7e-05	2e-05	5
24466	7e-05	0.00017	0.0002	-0.00038	-0.00066	-0.00024	-7e-05	2e-05	5
24467	7e-05	0.00017	0.0002	-0.00038	-0.00066	-0.00024	-7e-05	2e-05	5
24468	7e-05	0.00017	0.0002	-0.00038	-0.00066	-0.00024	-7e-05	2e-05	5
24470	7e-05	0.00017	0.0002	-0.00038	-0.00066	-0.00024	-7e-05	2e-05	5
24471	7e-05	0.00017	0.0002	-0.00038	-0.00066	-0.00024	-7e-05	2e-05	5
24472	7e-05	0.00017	0.0002	-0.00038	-0.00066	-0.00024	-7e-05	2e-05	5
24473	7e-05	0.00017	0.0002	-0.00038	-0.00066	-0.00024	-7e-05	2e-05	5
24474	7e-05	0.00017	0.0002	-0.00038	-0.00066	-0.00024	-7e-05	2e-05	5
24475	-2e-05	-6e-05	-0.00025	-0.00031	0	0.00015	5e-05	1e-05	5
24476	-2e-05	-6e-05	-0.00025	-0.00031	0	0.00015	5e-05	1e-05	5
24477	5e-05	0.0001	0.00025	-4e-05	-0.0002	-0.00012	-2e-05	7e-05	5
24478	5e-05	0.0001	0.00025	-4e-05	-0.0002	-0.00012	-2e-05	7e-05	5
24479	5e-05	0.0001	0.00025	-4e-05	-0.0002	-0.00012	-2e-05	7e-05	5
24480	5e-05	0.0001	0.00025	-4e-05	-0.0002	-0.00012	-2e-05	7e-05	5
24481	5e-05	0.0001	0.00025	-4e-05	-0.0002	-0.00012	-2e-05	7e-05	5
24482	5e-05	0.0001	0.00025	-4e-05	-0.0002	-0.00012	-2e-05	7e-05	5
24483	5e-05	0.0001	0.00025	-4e-05	-0.0002	-0.00012	-2e-05	7e-05	5
24484	5e-05	0.0001	0.00025	-4e-05	-0.0002	-0.00012	-2e-05	7e-05	5
24485	5e-05	0.0001	0.00025	-4e-05	-0.0002	-0.00012	-2e-05	7e-05	5
24486	5e-05	0.0001	0.00025	-4e-05	-0.0002	-0.00012	-2e-05	7e-05	5
24489	5e-05	0.0001	0.00025	-4e-05	-0.0002	-0.00012	-2e-05	7e-05	5
24490	5e-05	0.0001	0.00025	-4e-05	-0.0002	-0.00012	-2e-05	7e-05	5
24491	5e-05	0.0001	0.00025	-4e-05	-0.0002	-0.00012	-2e-05	7e-05	5
24492	5e-05	0.0001	0.00025	-4e-05	-0.0002	-0.00012	-2e-05	7e-05	5
24493	5e-05	0.0001	0.00025	-4e-05	-0.0002	-0.00012	-2e-05	7e-05	5
24494	5e-05	0.0001	0.00025	-4e-05	-0.0002	-0.00012	-2e-05	7e-05	5
24495	5e-05	0.0001	0.00025	-4e-05	-0.0002	-0.00012	-2e-05	7e-05	5
24496	5e-05	0.0001	0.00025	-4e-05	-0.0002	-0.00012	-2e-05	7e-05	5
24497	5e-05	0.0001	0.00025	-4e-05	-0.0002	-0.00012	-2e-05	7e-05	5
24498	-4e-05	-4e-05	-0.00033	-0.00034	-0.00024	-0.00032	-0.00015	-0.0001	5
24499	-0.00011	-0.00027	-0.00021	-0.00015	-0.00022	0.00022	9e-05	2e-05	5
24500	-0.00011	-0.00027	-0.00021	-0.00015	-0.00022	0.00022	9e-05	2e-05	5
24501	-0.00011	-0.00027	-0.00021	-0.00015	-0.00022	0.00022	9e-05	2e-05	5
24502	-0.00011	-0.00027	-0.00021	-0.00015	-0.00022	0.00022	9e-05	2e-05	5
24503	-0.00011	-0.00027	-0.00021	-0.00015	-0.00022	0.00022	9e-05	2e-05	5
24504	-0.00011	-0.00027	-0.00021	-0.00015	-0.00022	0.00022	9e-05	2e-05	5
24505	-0.00011	-0.00027	-0.00021	-0.00015	-0.00022	0.00022	9e-05	2e-05	5
24506	-0.00011	-0.00027	-0.00021	-0.00015	-0.00022	0.00022	9e-05	2e-05	5
24507	-0.00011	-0.00027	-0.00021	-0.00015	-0.00022	0.00022	9e-05	2e-05	5
24508	-0.00011	-0.00027	-0.00021	-0.00015	-0.00022	0.00022	9e-05	2e-05	5
24509	-0.00011	-0.00027	-0.00021	-0.00015	-0.00022	0.00022	9e-05	2e-05	5
24510	-0.00011	-0.00027	-0.00021	-0.00015	-0.00022	0.00022	9e-05	2e-05	5
24511	-0.00011	-0.00027	-0.00021	-0.00015	-0.00022	0.00022	9e-05	2e-05	5
24512	-0.00011	-0.00027	-0.00021	-0.00015	-0.00022	0.00022	9e-05	2e-05	5
24513	-0.00011	-0.00027	-0.00021	-0.00015	-0.00022	0.00022	9e-05	2e-05	5
24514	-0.00011	-0.00027	-0.00021	-0.00015	-0.00022	0.00022	9e-05	2e-05	5
24515	-0.00011	-0.00027	-0.00021	-0.00015	-0.00022	0.00022	9e-05	2e-05	5
24516	-0.00011	-0.00027	-0.00021	-0.00015	-0.00022	0.00022	9e-05	2e-05	5
24517	-0.00011	-0.00027	-0.00021	-0.00015	-0.00022	0.00022	9e-05	2e-05	5
24518	-0.00011	-0.00027	-0.00021	-0.00015	-0.00022	0.00022	9e-05	2e-05	5
24519	-0.00011	-0.00027	-0.00021	-0.00015	-0.00022	0.00022	9e-05	2e-05	5
24520	2e-05	0.00018	0.00034	9e-05	-6e-05	-0.00015	-6e-05	-4e-05	5
24521	2e-05	0.00018	0.00034	9e-05	-6e-05	-0.00015	-6e-05	-4e-05	5
24522	1e-05	7e-05	0.00026	0.00019	-0.00023	-0.00035	-0.00013	-3e-05	5
24523	1e-05	7e-05	0.00026	0.00019	-0.00023	-0.00035	-0.00013	-3e-05	5
24524	1e-05	7e-05	0.00026	0.00019	-0.00023	-0.00035	-0.00013	-3e-05	5
24525	1e-05	7e-05	0.00026	0.00019	-0.00023	-0.00035	-0.00013	-3e-05	5
24526	1e-05	7e-05	0.00026	0.00019	-0.00023	-0.00035	-0.00013	-3e-05	5
24527	1e-05	7e-05	0.00026	0.00019	-0.00023	-0.00035	-0.00013	-3e-05	5
24528	1e-05	7e-05	0.00026	0.00019	-0.00023	-0.00035	-0.00013	-3e-05	5
24529	1e-05	7e-05	0.00026	0.00019	-0.00023	-0.00035	-0.00013	-3e-05	5
24530	1e-05	7e-05	0.00026	0.00019	-0.00023	-0.00035	-0.00013	-3e-05	5
24531	1e-05	7e-05	0.00026	0.00019	-0.00023	-0.00035	-0.00013	-3e-05	5
24532	1e-05	7e-05	0.00026	0.00019	-0.00023	-0.00035	-0.00013	-3e-05	5
24533	1e-05	7e-05	0.00026	0.00019	-0.00023	-0.00035	-0.00013	-3e-05	5
24534	1e-05	7e-05	0.00026	0.00019	-0.00023	-0.00035	-0.00013	-3e-05	5
24535	1e-05	-5e-05	-0.00012	-0.00027	-0.0003	-0.00024	-3e-05	2e-05	5
24537	4e-05	6e-05	0.00018	0.00014	-0.00036	-0.00024	-4e-05	-3e-05	5
24539	4e-05	6e-05	0.00018	0.00014	-0.00036	-0.00024	-4e-05	-3e-05	5
24540	4e-05	6e-05	0.00018	0.00014	-0.00036	-0.00024	-4e-05	-3e-05	5
24541	4e-05	6e-05	0.00018	0.00014	-0.00036	-0.00024	-4e-05	-3e-05	5
24542	4e-05	6e-05	0.00018	0.00014	-0.00036	-0.00024	-4e-05	-3e-05	5
24543	4e-05	6e-05	0.00018	0.00014	-0.00036	-0.00024	-4e-05	-3e-05	5
24544	4e-05	6e-05	0.00018	0.00014	-0.00036	-0.00024	-4e-05	-3e-05	5
24545	4e-05	6e-05	0.00018	0.00014	-0.00036	-0.00024	-4e-05	-3e-05	5
24546	4e-05	6e-05	0.00018	0.00014	-0.00036	-0.00024	-4e-05	-3e-05	5
24547	4e-05	6e-05	0.00018	0.00014	-0.00036	-0.00024	-4e-05	-3e-05	5
24548	4e-05	6e-05	0.00018	0.00014	-0.00036	-0.00024	-4e-05	-3e-05	5
24549	4e-05	6e-05	0.00018	0.00014	-0.00036	-0.00024	-4e-05	-3e-05	5
24550	4e-05	6e-05	0.00018	0.00014	-0.00036	-0.00024	-4e-05	-3e-05	5
24551	4e-05	6e-05	0.00018	0.00014	-0.00036	-0.00024	-4e-05	-3e-05	5
24552	4e-05	6e-05	0.00018	0.00014	-0.00036	-0.00024	-4e-05	-3e-05	5
24553	4e-05	6e-05	0.00018	0.00014	-0.00036	-0.00024	-4e-05	-3e-05	5
24554	4e-05	6e-05	0.00018	0.00014	-0.00036	-0.00024	-4e-05	-3e-05	5
24555	4e-05	6e-05	0.00018	0.00014	-0.00036	-0.00024	-4e-05	-3e-05	5
24556	4e-05	6e-05	0.00018	0.00014	-0.00036	-0.00024	-4e-05	-3e-05	5
24557	4e-05	6e-05	0.00018	0.00014	-0.00036	-0.00024	-4e-05	-3e-05	5
24558	4e-05	6e-05	0.00018	0.00014	-0.00036	-0.00024	-4e-05	-3e-05	5
24559	4e-05	6e-05	0.00018	0.00014	-0.00036	-0.00024	-4e-05	-3e-05	5
24560	4e-05	6e-05	0.00018	0.00014	-0.00036	-0.00024	-4e-05	-3e-05	5
24561	4e-05	6e-05	0.00018	0.00014	-0.00036	-0.00024	-4e-05	-3e-05	5
24562	4e-05	6e-05	0.00018	0.00014	-0.00036	-0.00024	-4e-05	-3e-05	5
24564	4e-05	6e-05	0.00018	0.00014	-0.00036	-0.00024	-4e-05	-3e-05	5
24565	4e-05	6e-05	0.00018	0.00014	-0.00036	-0.00024	-4e-05	-3e-05	5
24566	4e-05	6e-05	0.00018	0.00014	-0.00036	-0.00024	-4e-05	-3e-05	5
24567	4e-05	6e-05	0.00018	0.00014	-0.00036	-0.00024	-4e-05	-3e-05	5
24568	4e-05	6e-05	0.00018	0.00014	-0.00036	-0.00024	-4e-05	-3e-05	5
24569	4e-05	6e-05	0.00018	0.00014	-0.00036	-0.00024	-4e-05	-3e-05	5
24570	4e-05	6e-05	0.00018	0.00014	-0.00036	-0.00024	-4e-05	-3e-05	5
24571	4e-05	6e-05	0.00018	0.00014	-0.00036	-0.00024	-4e-05	-3e-05	5
24572	4e-05	6e-05	0.00018	0.00014	-0.00036	-0.00024	-4e-05	-3e-05	5
24573	4e-05	6e-05	0.00018	0.00014	-0.00036	-0.00024	-4e-05	-3e-05	5
24574	3e-05	-5e-05	-0.00015	-0.0003	-0.00033	1e-05	-1e-05	4e-05	5
24575	3e-05	-5e-05	-0.00015	-0.0003	-0.00033	1e-05	-1e-05	4e-05	5
24576	-7e-05	-6e-05	-4e-05	-0.0002	-5e-05	0.0002	7e-05	-3e-05	5
24577	-2e-05	1e-05	0.00011	-4e-05	-0.00013	-0.00014	-2e-05	-1e-05	5
24578	0	0.0001	-9e-05	-0.0001	0.00024	3e-05	2e-05	1e-05	5
24579	0	0.0001	-9e-05	-0.0001	0.00024	3e-05	2e-05	1e-05	5
24580	0	0.0001	-9e-05	-0.0001	0.00024	3e-05	2e-05	1e-05	5
24581	0	0.0001	-9e-05	-0.0001	0.00024	3e-05	2e-05	1e-05	5
24582	0	0.0001	-9e-05	-0.0001	0.00024	3e-05	2e-05	1e-05	5
24583	0	0.0001	-9e-05	-0.0001	0.00024	3e-05	2e-05	1e-05	5
24584	0	0.0001	-9e-05	-0.0001	0.00024	3e-05	2e-05	1e-05	5
24585	0	0.0001	-9e-05	-0.0001	0.00024	3e-05	2e-05	1e-05	5
24586	0	0.0001	-9e-05	-0.0001	0.00024	3e-05	2e-05	1e-05	5
24588	0	0.0001	-9e-05	-0.0001	0.00024	3e-05	2e-05	1e-05	5
24589	0	0.0001	-9e-05	-0.0001	0.00024	3e-05	2e-05	1e-05	5
24590	0	0.0001	-9e-05	-0.0001	0.00024	3e-05	2e-05	1e-05	5
24591	0	0.0001	-9e-05	-0.0001	0.00024	3e-05	2e-05	1e-05	5
24592	0	0.0001	-9e-05	-0.0001	0.00024	3e-05	2e-05	1e-05	5
24593	0	0.0001	-9e-05	-0.0001	0.00024	3e-05	2e-05	1e-05	5
24594	0	0.0001	-9e-05	-0.0001	0.00024	3e-05	2e-05	1e-05	5
24595	0	0.0001	-9e-05	-0.0001	0.00024	3e-05	2e-05	1e-05	5
24596	0	0.0001	-9e-05	-0.0001	0.00024	3e-05	2e-05	1e-05	5
24597	4e-05	7e-05	0.00018	0.00043	0.00065	0.00024	0.00015	9e-05	5
24598	-5e-05	-7e-05	-1e-05	0.00051	0.00033	-6e-05	4e-05	-3e-05	5
24599	-5e-05	-7e-05	-1e-05	0.00051	0.00033	-6e-05	4e-05	-3e-05	5
24600	-5e-05	-7e-05	-1e-05	0.00051	0.00033	-6e-05	4e-05	-3e-05	5
24601	-6e-05	-0.00018	-0.00047	-0.00028	-0.00013	-0.00029	-0.00015	-7e-05	5
24602	-6e-05	-0.00018	-0.00047	-0.00028	-0.00013	-0.00029	-0.00015	-7e-05	5
24603	-6e-05	-0.00018	-0.00047	-0.00028	-0.00013	-0.00029	-0.00015	-7e-05	5
24604	-6e-05	-0.00018	-0.00047	-0.00028	-0.00013	-0.00029	-0.00015	-7e-05	5
24605	-6e-05	-0.00018	-0.00047	-0.00028	-0.00013	-0.00029	-0.00015	-7e-05	5
24606	-6e-05	-0.00018	-0.00047	-0.00028	-0.00013	-0.00029	-0.00015	-7e-05	5
24607	-6e-05	-0.00018	-0.00047	-0.00028	-0.00013	-0.00029	-0.00015	-7e-05	5
24608	-6e-05	-0.00018	-0.00047	-0.00028	-0.00013	-0.00029	-0.00015	-7e-05	5
24609	-6e-05	-0.00018	-0.00047	-0.00028	-0.00013	-0.00029	-0.00015	-7e-05	5
24610	-6e-05	-0.00018	-0.00047	-0.00028	-0.00013	-0.00029	-0.00015	-7e-05	5
24611	-6e-05	-0.00018	-0.00047	-0.00028	-0.00013	-0.00029	-0.00015	-7e-05	5
24612	-6e-05	-0.00018	-0.00047	-0.00028	-0.00013	-0.00029	-0.00015	-7e-05	5
24613	-6e-05	-0.00018	-0.00047	-0.00028	-0.00013	-0.00029	-0.00015	-7e-05	5
24614	-6e-05	-0.00018	-0.00047	-0.00028	-0.00013	-0.00029	-0.00015	-7e-05	5
24615	-6e-05	-0.00018	-0.00047	-0.00028	-0.00013	-0.00029	-0.00015	-7e-05	5
24616	-6e-05	-0.00018	-0.00047	-0.00028	-0.00013	-0.00029	-0.00015	-7e-05	5
24617	-6e-05	-0.00018	-0.00047	-0.00028	-0.00013	-0.00029	-0.00015	-7e-05	5
24618	-5e-05	-0.00025	-0.00014	-0.00049	-0.00045	6e-05	-3e-05	-1e-05	5
24619	-5e-05	-0.00025	-0.00014	-0.00049	-0.00045	6e-05	-3e-05	-1e-05	5
24620	-5e-05	-0.00025	-0.00014	-0.00049	-0.00045	6e-05	-3e-05	-1e-05	5
24621	-5e-05	-0.00025	-0.00014	-0.00049	-0.00045	6e-05	-3e-05	-1e-05	5
24622	-5e-05	-0.00025	-0.00014	-0.00049	-0.00045	6e-05	-3e-05	-1e-05	5
24623	-5e-05	-0.00025	-0.00014	-0.00049	-0.00045	6e-05	-3e-05	-1e-05	5
24624	-1e-05	3e-05	8e-05	0.0002	6e-05	-0.00018	2e-05	-5e-05	5
24625	-1e-05	3e-05	8e-05	0.0002	6e-05	-0.00018	2e-05	-5e-05	5
24626	-1e-05	3e-05	8e-05	0.0002	6e-05	-0.00018	2e-05	-5e-05	5
24627	-1e-05	3e-05	8e-05	0.0002	6e-05	-0.00018	2e-05	-5e-05	5
24628	-1e-05	3e-05	8e-05	0.0002	6e-05	-0.00018	2e-05	-5e-05	5
24629	-1e-05	3e-05	8e-05	0.0002	6e-05	-0.00018	2e-05	-5e-05	5
24630	-1e-05	3e-05	8e-05	0.0002	6e-05	-0.00018	2e-05	-5e-05	5
24631	-1e-05	3e-05	8e-05	0.0002	6e-05	-0.00018	2e-05	-5e-05	5
24632	-1e-05	3e-05	8e-05	0.0002	6e-05	-0.00018	2e-05	-5e-05	5
24633	-1e-05	6e-05	-3e-05	0.00021	0.00017	7e-05	-8e-05	-8e-05	5
24634	-9e-05	-0.00031	-0.00063	-0.00055	-9e-05	0.00017	5e-05	0	5
24635	-9e-05	-0.00031	-0.00063	-0.00055	-9e-05	0.00017	5e-05	0	5
24636	-9e-05	-0.00031	-0.00063	-0.00055	-9e-05	0.00017	5e-05	0	5
24638	-9e-05	-0.00031	-0.00063	-0.00055	-9e-05	0.00017	5e-05	0	5
24639	-9e-05	-0.00031	-0.00063	-0.00055	-9e-05	0.00017	5e-05	0	5
24640	-9e-05	-0.00031	-0.00063	-0.00055	-9e-05	0.00017	5e-05	0	5
24641	-9e-05	-0.00031	-0.00063	-0.00055	-9e-05	0.00017	5e-05	0	5
24642	-9e-05	-0.00031	-0.00063	-0.00055	-9e-05	0.00017	5e-05	0	5
24643	-9e-05	-0.00031	-0.00063	-0.00055	-9e-05	0.00017	5e-05	0	5
24644	-9e-05	-0.00031	-0.00063	-0.00055	-9e-05	0.00017	5e-05	0	5
24645	-9e-05	-0.00031	-0.00063	-0.00055	-9e-05	0.00017	5e-05	0	5
24646	-9e-05	-0.00031	-0.00063	-0.00055	-9e-05	0.00017	5e-05	0	5
24647	-9e-05	-0.00031	-0.00063	-0.00055	-9e-05	0.00017	5e-05	0	5
24648	-9e-05	-0.00031	-0.00063	-0.00055	-9e-05	0.00017	5e-05	0	5
24649	-9e-05	-0.00031	-0.00063	-0.00055	-9e-05	0.00017	5e-05	0	5
24650	-9e-05	-0.00031	-0.00063	-0.00055	-9e-05	0.00017	5e-05	0	5
24651	-9e-05	-0.00031	-0.00063	-0.00055	-9e-05	0.00017	5e-05	0	5
24652	-9e-05	-0.00031	-0.00063	-0.00055	-9e-05	0.00017	5e-05	0	5
24653	-9e-05	-0.00031	-0.00063	-0.00055	-9e-05	0.00017	5e-05	0	5
24654	-9e-05	-0.00031	-0.00063	-0.00055	-9e-05	0.00017	5e-05	0	5
24655	0.0001	0.0002	0.00029	0.0006	0.00059	0.00033	0.00015	8e-05	5
24656	4e-05	0.00024	0.00042	6e-05	-9e-05	-0.0003	-0.00019	-8e-05	5
24657	0	-1e-05	-0.00024	-0.00048	-0.00025	-1e-05	-9e-05	-4e-05	5
24658	0	-1e-05	-0.00024	-0.00048	-0.00025	-1e-05	-9e-05	-4e-05	5
24659	0	-1e-05	-0.00024	-0.00048	-0.00025	-1e-05	-9e-05	-4e-05	5
24660	0	-1e-05	-0.00024	-0.00048	-0.00025	-1e-05	-9e-05	-4e-05	5
24661	0	-1e-05	-0.00024	-0.00048	-0.00025	-1e-05	-9e-05	-4e-05	5
24662	0	-1e-05	-0.00024	-0.00048	-0.00025	-1e-05	-9e-05	-4e-05	5
24663	0	-1e-05	-0.00024	-0.00048	-0.00025	-1e-05	-9e-05	-4e-05	5
24664	0	-1e-05	-0.00024	-0.00048	-0.00025	-1e-05	-9e-05	-4e-05	5
24665	0	-1e-05	-0.00024	-0.00048	-0.00025	-1e-05	-9e-05	-4e-05	5
24666	0	-1e-05	-0.00024	-0.00048	-0.00025	-1e-05	-9e-05	-4e-05	5
24667	0	-1e-05	-0.00024	-0.00048	-0.00025	-1e-05	-9e-05	-4e-05	5
24668	0	-1e-05	-0.00024	-0.00048	-0.00025	-1e-05	-9e-05	-4e-05	5
24669	0	-1e-05	-0.00024	-0.00048	-0.00025	-1e-05	-9e-05	-4e-05	5
24670	0	-1e-05	-0.00024	-0.00048	-0.00025	-1e-05	-9e-05	-4e-05	5
24671	0	-1e-05	-0.00024	-0.00048	-0.00025	-1e-05	-9e-05	-4e-05	5
24672	0	-1e-05	-0.00024	-0.00048	-0.00025	-1e-05	-9e-05	-4e-05	5
24673	0	-1e-05	-0.00024	-0.00048	-0.00025	-1e-05	-9e-05	-4e-05	5
24674	0	-1e-05	-0.00024	-0.00048	-0.00025	-1e-05	-9e-05	-4e-05	5
24675	0	-1e-05	-0.00024	-0.00048	-0.00025	-1e-05	-9e-05	-4e-05	5
24676	0	-1e-05	-0.00024	-0.00048	-0.00025	-1e-05	-9e-05	-4e-05	5
24677	0	-1e-05	-0.00024	-0.00048	-0.00025	-1e-05	-9e-05	-4e-05	5
24678	-5e-05	0	9e-05	0.00033	0.00011	-0.00027	2e-05	-7e-05	5
24679	7e-05	0.00027	0.00059	0.00036	0.00022	-6e-05	-2e-05	4e-05	5
24680	7e-05	0.00027	0.00059	0.00036	0.00022	-6e-05	-2e-05	4e-05	5
24681	7e-05	0.00027	0.00059	0.00036	0.00022	-6e-05	-2e-05	4e-05	5
24682	7e-05	0.00027	0.00059	0.00036	0.00022	-6e-05	-2e-05	4e-05	5
24683	7e-05	0.00027	0.00059	0.00036	0.00022	-6e-05	-2e-05	4e-05	5
24684	7e-05	0.00027	0.00059	0.00036	0.00022	-6e-05	-2e-05	4e-05	5
24685	7e-05	0.00027	0.00059	0.00036	0.00022	-6e-05	-2e-05	4e-05	5
24686	7e-05	0.00027	0.00059	0.00036	0.00022	-6e-05	-2e-05	4e-05	5
24689	7e-05	0.00027	0.00059	0.00036	0.00022	-6e-05	-2e-05	4e-05	5
24690	7e-05	0.00027	0.00059	0.00036	0.00022	-6e-05	-2e-05	4e-05	5
24691	7e-05	0.00027	0.00059	0.00036	0.00022	-6e-05	-2e-05	4e-05	5
24692	7e-05	0.00027	0.00059	0.00036	0.00022	-6e-05	-2e-05	4e-05	5
24693	7e-05	0.00027	0.00059	0.00036	0.00022	-6e-05	-2e-05	4e-05	5
24694	7e-05	0.00027	0.00059	0.00036	0.00022	-6e-05	-2e-05	4e-05	5
24695	7e-05	0.00027	0.00059	0.00036	0.00022	-6e-05	-2e-05	4e-05	5
24696	7e-05	0.00027	0.00059	0.00036	0.00022	-6e-05	-2e-05	4e-05	5
24697	7e-05	0.00027	0.00059	0.00036	0.00022	-6e-05	-2e-05	4e-05	5
24698	7e-05	0.00027	0.00059	0.00036	0.00022	-6e-05	-2e-05	4e-05	5
24699	7e-05	0.00027	0.00059	0.00036	0.00022	-6e-05	-2e-05	4e-05	5
24700	-4e-05	-0.00013	-0.0001	-7e-05	0	0.0002	-1e-05	3e-05	5
24701	-4e-05	-0.00013	-0.0001	-7e-05	0	0.0002	-1e-05	3e-05	5
24702	5e-05	0.00022	0.00051	0.00088	0.00064	0.00039	0.00013	5e-05	5
24703	5e-05	0.00022	0.00051	0.00088	0.00064	0.00039	0.00013	5e-05	5
24704	5e-05	0.00022	0.00051	0.00088	0.00064	0.00039	0.00013	5e-05	5
24705	5e-05	0.00022	0.00051	0.00088	0.00064	0.00039	0.00013	5e-05	5
24706	5e-05	0.00022	0.00051	0.00088	0.00064	0.00039	0.00013	5e-05	5
24707	5e-05	0.00022	0.00051	0.00088	0.00064	0.00039	0.00013	5e-05	5
24708	5e-05	0.00022	0.00051	0.00088	0.00064	0.00039	0.00013	5e-05	5
24709	5e-05	0.00022	0.00051	0.00088	0.00064	0.00039	0.00013	5e-05	5
24710	5e-05	0.00022	0.00051	0.00088	0.00064	0.00039	0.00013	5e-05	5
24711	5e-05	0.00022	0.00051	0.00088	0.00064	0.00039	0.00013	5e-05	5
24712	5e-05	0.00022	0.00051	0.00088	0.00064	0.00039	0.00013	5e-05	5
24713	5e-05	0.00022	0.00051	0.00088	0.00064	0.00039	0.00013	5e-05	5
24714	5e-05	0.00022	0.00051	0.00088	0.00064	0.00039	0.00013	5e-05	5
24715	5e-05	0.00022	0.00051	0.00088	0.00064	0.00039	0.00013	5e-05	5
24716	5e-05	0.00022	0.00051	0.00088	0.00064	0.00039	0.00013	5e-05	5
24717	5e-05	0.00022	0.00051	0.00088	0.00064	0.00039	0.00013	5e-05	5
24718	5e-05	0.00022	0.00051	0.00088	0.00064	0.00039	0.00013	5e-05	5
24719	5e-05	0.00022	0.00051	0.00088	0.00064	0.00039	0.00013	5e-05	5
24720	5e-05	0.00022	0.00051	0.00088	0.00064	0.00039	0.00013	5e-05	5
24721	5e-05	0.00022	0.00051	0.00088	0.00064	0.00039	0.00013	5e-05	5
24722	5e-05	0.00022	0.00051	0.00088	0.00064	0.00039	0.00013	5e-05	5
24723	1e-05	4e-05	9e-05	0.00059	0.00033	-8e-05	8e-05	3e-05	5
24724	-5e-05	-0.00016	-0.00032	-6e-05	-0.00025	-0.00017	-0.00015	-8e-05	5
24725	-5e-05	-0.00016	-0.00032	-6e-05	-0.00025	-0.00017	-0.00015	-8e-05	5
24726	-5e-05	-0.00016	-0.00032	-6e-05	-0.00025	-0.00017	-0.00015	-8e-05	5
24727	-5e-05	-0.00016	-0.00032	-6e-05	-0.00025	-0.00017	-0.00015	-8e-05	5
24728	-5e-05	-0.00016	-0.00032	-6e-05	-0.00025	-0.00017	-0.00015	-8e-05	5
24729	-5e-05	-0.00016	-0.00032	-6e-05	-0.00025	-0.00017	-0.00015	-8e-05	5
24730	-5e-05	-0.00016	-0.00032	-6e-05	-0.00025	-0.00017	-0.00015	-8e-05	5
24731	-5e-05	-0.00016	-0.00032	-6e-05	-0.00025	-0.00017	-0.00015	-8e-05	5
24732	-5e-05	-0.00016	-0.00032	-6e-05	-0.00025	-0.00017	-0.00015	-8e-05	5
24733	-5e-05	-0.00016	-0.00032	-6e-05	-0.00025	-0.00017	-0.00015	-8e-05	5
24734	-5e-05	-0.00016	-0.00032	-6e-05	-0.00025	-0.00017	-0.00015	-8e-05	5
24735	-5e-05	-0.00016	-0.00032	-6e-05	-0.00025	-0.00017	-0.00015	-8e-05	5
24736	-5e-05	-0.00016	-0.00032	-6e-05	-0.00025	-0.00017	-0.00015	-8e-05	5
24739	0	6e-05	2e-05	-8e-05	-0.00016	-0.00013	-0.00014	-3e-05	5
24740	3e-05	6e-05	0.00011	-0.0003	-0.00052	-0.00018	0	1e-05	5
24741	3e-05	6e-05	0.00011	-0.0003	-0.00052	-0.00018	0	1e-05	5
24742	3e-05	6e-05	0.00011	-0.0003	-0.00052	-0.00018	0	1e-05	5
24743	3e-05	6e-05	0.00011	-0.0003	-0.00052	-0.00018	0	1e-05	5
24744	3e-05	6e-05	0.00011	-0.0003	-0.00052	-0.00018	0	1e-05	5
24745	3e-05	6e-05	0.00011	-0.0003	-0.00052	-0.00018	0	1e-05	5
24746	3e-05	6e-05	0.00011	-0.0003	-0.00052	-0.00018	0	1e-05	5
24747	3e-05	6e-05	0.00011	-0.0003	-0.00052	-0.00018	0	1e-05	5
24748	3e-05	6e-05	0.00011	-0.0003	-0.00052	-0.00018	0	1e-05	5
24749	3e-05	6e-05	0.00011	-0.0003	-0.00052	-0.00018	0	1e-05	5
24750	3e-05	6e-05	0.00011	-0.0003	-0.00052	-0.00018	0	1e-05	5
24751	3e-05	6e-05	0.00011	-0.0003	-0.00052	-0.00018	0	1e-05	5
24752	3e-05	6e-05	0.00011	-0.0003	-0.00052	-0.00018	0	1e-05	5
24753	3e-05	-0.00013	-0.0002	-0.00023	-0.0002	-0.00015	-0.0001	-3e-05	5
24754	3e-05	-0.00013	-0.0002	-0.00023	-0.0002	-0.00015	-0.0001	-3e-05	5
24755	3e-05	-0.00013	-0.0002	-0.00023	-0.0002	-0.00015	-0.0001	-3e-05	5
24756	3e-05	-0.00013	-0.0002	-0.00023	-0.0002	-0.00015	-0.0001	-3e-05	5
24757	3e-05	-0.00013	-0.0002	-0.00023	-0.0002	-0.00015	-0.0001	-3e-05	5
24758	3e-05	-0.00013	-0.0002	-0.00023	-0.0002	-0.00015	-0.0001	-3e-05	5
24759	3e-05	2e-05	0.00041	0.00044	0.00039	0.00034	6e-05	1e-05	5
24760	3e-05	2e-05	0.00041	0.00044	0.00039	0.00034	6e-05	1e-05	5
24761	3e-05	2e-05	0.00041	0.00044	0.00039	0.00034	6e-05	1e-05	5
24762	3e-05	2e-05	0.00041	0.00044	0.00039	0.00034	6e-05	1e-05	5
24763	3e-05	2e-05	0.00041	0.00044	0.00039	0.00034	6e-05	1e-05	5
24764	3e-05	2e-05	0.00041	0.00044	0.00039	0.00034	6e-05	1e-05	5
24765	3e-05	2e-05	0.00041	0.00044	0.00039	0.00034	6e-05	1e-05	5
24766	3e-05	2e-05	0.00041	0.00044	0.00039	0.00034	6e-05	1e-05	5
24767	3e-05	2e-05	0.00041	0.00044	0.00039	0.00034	6e-05	1e-05	5
24768	3e-05	2e-05	0.00041	0.00044	0.00039	0.00034	6e-05	1e-05	5
24769	3e-05	2e-05	0.00041	0.00044	0.00039	0.00034	6e-05	1e-05	5
24770	3e-05	2e-05	0.00041	0.00044	0.00039	0.00034	6e-05	1e-05	5
24771	3e-05	2e-05	0.00041	0.00044	0.00039	0.00034	6e-05	1e-05	5
24772	3e-05	2e-05	0.00041	0.00044	0.00039	0.00034	6e-05	1e-05	5
24773	3e-05	2e-05	0.00041	0.00044	0.00039	0.00034	6e-05	1e-05	5
24774	3e-05	2e-05	0.00041	0.00044	0.00039	0.00034	6e-05	1e-05	5
24775	-5e-05	-0.00019	-0.00052	-0.00052	-0.00016	1e-05	-6e-05	-4e-05	5
24776	-5e-05	-0.00019	-0.00052	-0.00052	-0.00016	1e-05	-6e-05	-4e-05	5
24777	-5e-05	-0.00014	-3e-05	-0.0001	-9e-05	3e-05	2e-05	-1e-05	5
24778	-5e-05	-0.00014	-3e-05	-0.0001	-9e-05	3e-05	2e-05	-1e-05	5
24779	-5e-05	-0.00014	-3e-05	-0.0001	-9e-05	3e-05	2e-05	-1e-05	5
24781	-5e-05	-0.00014	-3e-05	-0.0001	-9e-05	3e-05	2e-05	-1e-05	5
24782	-5e-05	-0.00014	-3e-05	-0.0001	-9e-05	3e-05	2e-05	-1e-05	5
24783	-5e-05	-0.00014	-3e-05	-0.0001	-9e-05	3e-05	2e-05	-1e-05	5
24784	-5e-05	-0.00014	-3e-05	-0.0001	-9e-05	3e-05	2e-05	-1e-05	5
24785	-5e-05	-0.00014	-3e-05	-0.0001	-9e-05	3e-05	2e-05	-1e-05	5
24786	-5e-05	-0.00014	-3e-05	-0.0001	-9e-05	3e-05	2e-05	-1e-05	5
24788	-5e-05	-0.00014	-3e-05	-0.0001	-9e-05	3e-05	2e-05	-1e-05	5
24790	-5e-05	-0.00014	-3e-05	-0.0001	-9e-05	3e-05	2e-05	-1e-05	5
24791	-5e-05	-0.00014	-3e-05	-0.0001	-9e-05	3e-05	2e-05	-1e-05	5
24792	-5e-05	-0.00014	-3e-05	-0.0001	-9e-05	3e-05	2e-05	-1e-05	5
24793	-5e-05	-0.00014	-3e-05	-0.0001	-9e-05	3e-05	2e-05	-1e-05	5
24794	-5e-05	-0.00014	-3e-05	-0.0001	-9e-05	3e-05	2e-05	-1e-05	5
24795	-5e-05	-0.00014	-3e-05	-0.0001	-9e-05	3e-05	2e-05	-1e-05	5
24796	-5e-05	-0.00014	-3e-05	-0.0001	-9e-05	3e-05	2e-05	-1e-05	5
24797	-5e-05	-0.00014	-3e-05	-0.0001	-9e-05	3e-05	2e-05	-1e-05	5
24798	4e-05	3e-05	-5e-05	-7e-05	0.00018	0.00025	0.00015	8e-05	5
24799	4e-05	3e-05	-5e-05	-7e-05	0.00018	0.00025	0.00015	8e-05	5
24800	-3e-05	5e-05	-0.00011	0.00021	0.00048	0.00015	3e-05	-2e-05	5
24801	-3e-05	5e-05	-0.00011	0.00021	0.00048	0.00015	3e-05	-2e-05	5
24802	-3e-05	5e-05	-0.00011	0.00021	0.00048	0.00015	3e-05	-2e-05	5
24803	-3e-05	5e-05	-0.00011	0.00021	0.00048	0.00015	3e-05	-2e-05	5
24804	-3e-05	5e-05	-0.00011	0.00021	0.00048	0.00015	3e-05	-2e-05	5
24805	-3e-05	5e-05	-0.00011	0.00021	0.00048	0.00015	3e-05	-2e-05	5
24806	-3e-05	5e-05	-0.00011	0.00021	0.00048	0.00015	3e-05	-2e-05	5
24807	-3e-05	5e-05	-0.00011	0.00021	0.00048	0.00015	3e-05	-2e-05	5
24808	-3e-05	5e-05	-0.00011	0.00021	0.00048	0.00015	3e-05	-2e-05	5
24809	-3e-05	5e-05	-0.00011	0.00021	0.00048	0.00015	3e-05	-2e-05	5
24810	-3e-05	5e-05	-0.00011	0.00021	0.00048	0.00015	3e-05	-2e-05	5
24811	-3e-05	5e-05	-0.00011	0.00021	0.00048	0.00015	3e-05	-2e-05	5
24812	-4e-05	-3e-05	-0.00015	-0.00023	-7e-05	-9e-05	-4e-05	-4e-05	5
24813	-4e-05	-3e-05	-0.00015	-0.00023	-7e-05	-9e-05	-4e-05	-4e-05	5
24814	-4e-05	-3e-05	-0.00015	-0.00023	-7e-05	-9e-05	-4e-05	-4e-05	5
24815	-4e-05	-3e-05	-0.00015	-0.00023	-7e-05	-9e-05	-4e-05	-4e-05	5
24816	-4e-05	-3e-05	-0.00015	-0.00023	-7e-05	-9e-05	-4e-05	-4e-05	5
24817	-4e-05	-3e-05	-0.00015	-0.00023	-7e-05	-9e-05	-4e-05	-4e-05	5
24818	-4e-05	-3e-05	-0.00015	-0.00023	-7e-05	-9e-05	-4e-05	-4e-05	5
24819	-3e-05	0.0001	1e-05	-0.00028	-0.00049	-0.00025	-6e-05	-8e-05	5
24820	-3e-05	0.0001	1e-05	-0.00028	-0.00049	-0.00025	-6e-05	-8e-05	5
24821	-3e-05	0.0001	1e-05	-0.00028	-0.00049	-0.00025	-6e-05	-8e-05	5
24822	-3e-05	0.0001	1e-05	-0.00028	-0.00049	-0.00025	-6e-05	-8e-05	5
24823	-3e-05	0.0001	1e-05	-0.00028	-0.00049	-0.00025	-6e-05	-8e-05	5
24824	-3e-05	0.0001	1e-05	-0.00028	-0.00049	-0.00025	-6e-05	-8e-05	5
24825	-3e-05	0.0001	1e-05	-0.00028	-0.00049	-0.00025	-6e-05	-8e-05	5
24826	-3e-05	0.0001	1e-05	-0.00028	-0.00049	-0.00025	-6e-05	-8e-05	5
24827	-3e-05	0.0001	1e-05	-0.00028	-0.00049	-0.00025	-6e-05	-8e-05	5
24828	-3e-05	0.0001	1e-05	-0.00028	-0.00049	-0.00025	-6e-05	-8e-05	5
24829	-3e-05	0.0001	1e-05	-0.00028	-0.00049	-0.00025	-6e-05	-8e-05	5
24830	-3e-05	0.0001	1e-05	-0.00028	-0.00049	-0.00025	-6e-05	-8e-05	5
24831	-3e-05	0.0001	1e-05	-0.00028	-0.00049	-0.00025	-6e-05	-8e-05	5
24832	-3e-05	0.0001	1e-05	-0.00028	-0.00049	-0.00025	-6e-05	-8e-05	5
24833	-3e-05	0.0001	1e-05	-0.00028	-0.00049	-0.00025	-6e-05	-8e-05	5
24834	-3e-05	0.0001	1e-05	-0.00028	-0.00049	-0.00025	-6e-05	-8e-05	5
24835	-3e-05	0.0001	1e-05	-0.00028	-0.00049	-0.00025	-6e-05	-8e-05	5
24836	1e-05	-6e-05	8e-05	0.00017	6e-05	0.00017	7e-05	5e-05	5
24839	-0.00016	-3e-05	2e-05	-0.00028	-0.0002	-0.00032	-0.00022	-0.00022	5
24840	-0.00016	-3e-05	2e-05	-0.00028	-0.0002	-0.00032	-0.00022	-0.00022	5
24841	-0.00016	-3e-05	2e-05	-0.00028	-0.0002	-0.00032	-0.00022	-0.00022	5
24842	-0.00016	-3e-05	2e-05	-0.00028	-0.0002	-0.00032	-0.00022	-0.00022	5
24843	-0.00016	-3e-05	2e-05	-0.00028	-0.0002	-0.00032	-0.00022	-0.00022	5
24844	-0.00016	-3e-05	2e-05	-0.00028	-0.0002	-0.00032	-0.00022	-0.00022	5
24845	-0.00016	-3e-05	2e-05	-0.00028	-0.0002	-0.00032	-0.00022	-0.00022	5
24846	-0.00016	-3e-05	2e-05	-0.00028	-0.0002	-0.00032	-0.00022	-0.00022	5
24847	-0.00016	-3e-05	2e-05	-0.00028	-0.0002	-0.00032	-0.00022	-0.00022	5
24848	-0.00016	-3e-05	2e-05	-0.00028	-0.0002	-0.00032	-0.00022	-0.00022	5
24849	-0.00016	-3e-05	2e-05	-0.00028	-0.0002	-0.00032	-0.00022	-0.00022	5
24850	-0.00016	-3e-05	2e-05	-0.00028	-0.0002	-0.00032	-0.00022	-0.00022	5
24851	-0.00016	-3e-05	2e-05	-0.00028	-0.0002	-0.00032	-0.00022	-0.00022	5
24852	-0.00016	-3e-05	2e-05	-0.00028	-0.0002	-0.00032	-0.00022	-0.00022	5
24853	-0.00016	-3e-05	2e-05	-0.00028	-0.0002	-0.00032	-0.00022	-0.00022	5
24854	-0.00016	-3e-05	2e-05	-0.00028	-0.0002	-0.00032	-0.00022	-0.00022	5
24855	-0.00016	-3e-05	2e-05	-0.00028	-0.0002	-0.00032	-0.00022	-0.00022	5
24856	-0.00016	-3e-05	2e-05	-0.00028	-0.0002	-0.00032	-0.00022	-0.00022	5
24857	-0.00016	-3e-05	2e-05	-0.00028	-0.0002	-0.00032	-0.00022	-0.00022	5
24858	-3e-05	0.00012	0.00011	7e-05	-0.00028	-0.00016	-2e-05	5e-05	5
24859	-3e-05	0.00012	0.00011	7e-05	-0.00028	-0.00016	-2e-05	5e-05	5
24860	-3e-05	0.00012	0.00011	7e-05	-0.00028	-0.00016	-2e-05	5e-05	5
24861	-3e-05	0.00012	0.00011	7e-05	-0.00028	-0.00016	-2e-05	5e-05	5
24862	-3e-05	0.00012	0.00011	7e-05	-0.00028	-0.00016	-2e-05	5e-05	5
24863	-3e-05	0.00012	0.00011	7e-05	-0.00028	-0.00016	-2e-05	5e-05	5
24864	-3e-05	0.00012	0.00011	7e-05	-0.00028	-0.00016	-2e-05	5e-05	5
24865	-3e-05	0.00012	0.00011	7e-05	-0.00028	-0.00016	-2e-05	5e-05	5
24866	-3e-05	0.00012	0.00011	7e-05	-0.00028	-0.00016	-2e-05	5e-05	5
24867	-3e-05	0.00012	0.00011	7e-05	-0.00028	-0.00016	-2e-05	5e-05	5
24868	-3e-05	0.00012	0.00011	7e-05	-0.00028	-0.00016	-2e-05	5e-05	5
24869	-3e-05	0.00012	0.00011	7e-05	-0.00028	-0.00016	-2e-05	5e-05	5
24870	-3e-05	0.00012	0.00011	7e-05	-0.00028	-0.00016	-2e-05	5e-05	5
24871	-3e-05	0.00012	0.00011	7e-05	-0.00028	-0.00016	-2e-05	5e-05	5
24872	-3e-05	0.00012	0.00011	7e-05	-0.00028	-0.00016	-2e-05	5e-05	5
24873	2e-05	0.00014	0.00027	-0.00015	-0.0004	7e-05	0.0001	2e-05	5
24874	2e-05	0.00014	0.00027	-0.00015	-0.0004	7e-05	0.0001	2e-05	5
24875	2e-05	0.00014	0.00027	-0.00015	-0.0004	7e-05	0.0001	2e-05	5
24876	2e-05	0.00014	0.00027	-0.00015	-0.0004	7e-05	0.0001	2e-05	5
24877	2e-05	0.00014	0.00027	-0.00015	-0.0004	7e-05	0.0001	2e-05	5
24878	2e-05	0.00014	0.00027	-0.00015	-0.0004	7e-05	0.0001	2e-05	5
24879	0.0001	0.0001	0.00037	0.00035	-0.00014	8e-05	0.00028	0.00015	5
24880	0.0001	0.0001	0.00037	0.00035	-0.00014	8e-05	0.00028	0.00015	5
24881	0.0001	0.0001	0.00037	0.00035	-0.00014	8e-05	0.00028	0.00015	5
24882	0.0001	0.0001	0.00037	0.00035	-0.00014	8e-05	0.00028	0.00015	5
24883	0.0001	0.0001	0.00037	0.00035	-0.00014	8e-05	0.00028	0.00015	5
24884	0.0001	0.0001	0.00037	0.00035	-0.00014	8e-05	0.00028	0.00015	5
24885	0.0001	0.0001	0.00037	0.00035	-0.00014	8e-05	0.00028	0.00015	5
24886	0.0001	0.0001	0.00037	0.00035	-0.00014	8e-05	0.00028	0.00015	5
24888	0.0001	0.0001	0.00037	0.00035	-0.00014	8e-05	0.00028	0.00015	5
24890	0.0001	0.0001	0.00037	0.00035	-0.00014	8e-05	0.00028	0.00015	5
24891	0.0001	0.0001	0.00037	0.00035	-0.00014	8e-05	0.00028	0.00015	5
24892	0.0001	0.0001	0.00037	0.00035	-0.00014	8e-05	0.00028	0.00015	5
24893	0.0001	0.0001	0.00037	0.00035	-0.00014	8e-05	0.00028	0.00015	5
24894	0.0001	0.0001	0.00037	0.00035	-0.00014	8e-05	0.00028	0.00015	5
24895	7e-05	3e-05	-5e-05	-2e-05	0.00015	0.00018	0.0001	8e-05	5
24896	7e-05	3e-05	-5e-05	-2e-05	0.00015	0.00018	0.0001	8e-05	5
24897	-8e-05	-0.00028	-0.00036	-0.00036	-0.00036	-0.00025	-0.00013	-8e-05	5
24898	-8e-05	-0.00028	-0.00036	-0.00036	-0.00036	-0.00025	-0.00013	-8e-05	5
24899	-8e-05	-0.00028	-0.00036	-0.00036	-0.00036	-0.00025	-0.00013	-8e-05	5
24900	-8e-05	-0.00028	-0.00036	-0.00036	-0.00036	-0.00025	-0.00013	-8e-05	5
24901	-8e-05	-0.00028	-0.00036	-0.00036	-0.00036	-0.00025	-0.00013	-8e-05	5
24902	-8e-05	-0.00028	-0.00036	-0.00036	-0.00036	-0.00025	-0.00013	-8e-05	5
24903	-8e-05	-0.00028	-0.00036	-0.00036	-0.00036	-0.00025	-0.00013	-8e-05	5
24904	-8e-05	-0.00028	-0.00036	-0.00036	-0.00036	-0.00025	-0.00013	-8e-05	5
24905	-8e-05	-0.00028	-0.00036	-0.00036	-0.00036	-0.00025	-0.00013	-8e-05	5
24906	-8e-05	-0.00028	-0.00036	-0.00036	-0.00036	-0.00025	-0.00013	-8e-05	5
24907	-8e-05	-0.00028	-0.00036	-0.00036	-0.00036	-0.00025	-0.00013	-8e-05	5
24908	-8e-05	-0.00028	-0.00036	-0.00036	-0.00036	-0.00025	-0.00013	-8e-05	5
24909	-8e-05	-0.00028	-0.00036	-0.00036	-0.00036	-0.00025	-0.00013	-8e-05	5
24910	-8e-05	-0.00028	-0.00036	-0.00036	-0.00036	-0.00025	-0.00013	-8e-05	5
24911	-8e-05	-0.00028	-0.00036	-0.00036	-0.00036	-0.00025	-0.00013	-8e-05	5
24912	-8e-05	-0.00028	-0.00036	-0.00036	-0.00036	-0.00025	-0.00013	-8e-05	5
24913	-8e-05	-0.00028	-0.00036	-0.00036	-0.00036	-0.00025	-0.00013	-8e-05	5
24914	-8e-05	-0.00028	-0.00036	-0.00036	-0.00036	-0.00025	-0.00013	-8e-05	5
24915	-8e-05	-0.00028	-0.00036	-0.00036	-0.00036	-0.00025	-0.00013	-8e-05	5
24916	-8e-05	-0.00028	-0.00036	-0.00036	-0.00036	-0.00025	-0.00013	-8e-05	5
24917	0	4e-05	5e-05	0.00013	0.00017	3e-05	-2e-05	-2e-05	5
24918	0	4e-05	5e-05	0.00013	0.00017	3e-05	-2e-05	-2e-05	5
24919	0	4e-05	5e-05	0.00013	0.00017	3e-05	-2e-05	-2e-05	5
24920	0	4e-05	5e-05	0.00013	0.00017	3e-05	-2e-05	-2e-05	5
24921	0	4e-05	5e-05	0.00013	0.00017	3e-05	-2e-05	-2e-05	5
24922	0	4e-05	5e-05	0.00013	0.00017	3e-05	-2e-05	-2e-05	5
24923	0	4e-05	5e-05	0.00013	0.00017	3e-05	-2e-05	-2e-05	5
24924	0	4e-05	5e-05	0.00013	0.00017	3e-05	-2e-05	-2e-05	5
24925	5e-05	3e-05	-0.00016	0.00016	0.00038	0.00037	0.00011	7e-05	5
24926	5e-05	3e-05	-0.00016	0.00016	0.00038	0.00037	0.00011	7e-05	5
24927	5e-05	3e-05	-0.00016	0.00016	0.00038	0.00037	0.00011	7e-05	5
24928	5e-05	3e-05	-0.00016	0.00016	0.00038	0.00037	0.00011	7e-05	5
24929	5e-05	3e-05	-0.00016	0.00016	0.00038	0.00037	0.00011	7e-05	5
24930	5e-05	3e-05	-0.00016	0.00016	0.00038	0.00037	0.00011	7e-05	5
24931	5e-05	3e-05	-0.00016	0.00016	0.00038	0.00037	0.00011	7e-05	5
24932	-8e-05	-0.00016	-0.00044	-0.00039	3e-05	-1e-05	-7e-05	-6e-05	5
24933	-8e-05	-0.00016	-0.00044	-0.00039	3e-05	-1e-05	-7e-05	-6e-05	5
24934	-8e-05	-0.00016	-0.00044	-0.00039	3e-05	-1e-05	-7e-05	-6e-05	5
24935	-8e-05	-0.00016	-0.00044	-0.00039	3e-05	-1e-05	-7e-05	-6e-05	5
24936	-8e-05	-0.00016	-0.00044	-0.00039	3e-05	-1e-05	-7e-05	-6e-05	5
24938	-8e-05	-0.00016	-0.00044	-0.00039	3e-05	-1e-05	-7e-05	-6e-05	5
24939	-8e-05	-0.00016	-0.00044	-0.00039	3e-05	-1e-05	-7e-05	-6e-05	5
24940	-8e-05	-0.00016	-0.00044	-0.00039	3e-05	-1e-05	-7e-05	-6e-05	5
24941	-8e-05	-0.00016	-0.00044	-0.00039	3e-05	-1e-05	-7e-05	-6e-05	5
24942	-8e-05	-0.00016	-0.00044	-0.00039	3e-05	-1e-05	-7e-05	-6e-05	5
24943	-8e-05	-0.00016	-0.00044	-0.00039	3e-05	-1e-05	-7e-05	-6e-05	5
24944	-8e-05	-0.00016	-0.00044	-0.00039	3e-05	-1e-05	-7e-05	-6e-05	5
24945	-8e-05	-0.00016	-0.00044	-0.00039	3e-05	-1e-05	-7e-05	-6e-05	5
24946	2e-05	4e-05	8e-05	-8e-05	-3e-05	4e-05	-4e-05	-1e-05	5
24947	2e-05	4e-05	8e-05	-8e-05	-3e-05	4e-05	-4e-05	-1e-05	5
24948	2e-05	4e-05	8e-05	-8e-05	-3e-05	4e-05	-4e-05	-1e-05	5
24949	2e-05	4e-05	8e-05	-8e-05	-3e-05	4e-05	-4e-05	-1e-05	5
24950	2e-05	4e-05	8e-05	-8e-05	-3e-05	4e-05	-4e-05	-1e-05	5
24951	2e-05	4e-05	8e-05	-8e-05	-3e-05	4e-05	-4e-05	-1e-05	5
24952	2e-05	4e-05	8e-05	-8e-05	-3e-05	4e-05	-4e-05	-1e-05	5
24953	2e-05	4e-05	8e-05	-8e-05	-3e-05	4e-05	-4e-05	-1e-05	5
24954	2e-05	4e-05	8e-05	-8e-05	-3e-05	4e-05	-4e-05	-1e-05	5
24955	-9e-05	-0.00014	-0.00011	0.00014	-0.00025	-0.00021	-0.00011	-9e-05	5
24956	-9e-05	-0.00014	-0.00011	0.00014	-0.00025	-0.00021	-0.00011	-9e-05	5
24957	1e-05	-4e-05	-0.0002	-0.0002	-3e-05	-0.00011	4e-05	2e-05	5
24958	1e-05	-4e-05	-0.0002	-0.0002	-3e-05	-0.00011	4e-05	2e-05	5
24959	1e-05	-4e-05	-0.0002	-0.0002	-3e-05	-0.00011	4e-05	2e-05	5
24960	1e-05	-4e-05	-0.0002	-0.0002	-3e-05	-0.00011	4e-05	2e-05	5
24961	1e-05	-4e-05	-0.0002	-0.0002	-3e-05	-0.00011	4e-05	2e-05	5
24962	1e-05	-4e-05	-0.0002	-0.0002	-3e-05	-0.00011	4e-05	2e-05	5
24963	1e-05	-4e-05	-0.0002	-0.0002	-3e-05	-0.00011	4e-05	2e-05	5
24964	1e-05	-4e-05	-0.0002	-0.0002	-3e-05	-0.00011	4e-05	2e-05	5
24965	1e-05	-4e-05	-0.0002	-0.0002	-3e-05	-0.00011	4e-05	2e-05	5
24966	1e-05	-4e-05	-0.0002	-0.0002	-3e-05	-0.00011	4e-05	2e-05	5
24967	1e-05	-4e-05	-0.0002	-0.0002	-3e-05	-0.00011	4e-05	2e-05	5
24968	1e-05	-4e-05	-0.0002	-0.0002	-3e-05	-0.00011	4e-05	2e-05	5
24969	1e-05	-4e-05	-0.0002	-0.0002	-3e-05	-0.00011	4e-05	2e-05	5
24970	1e-05	-4e-05	-0.0002	-0.0002	-3e-05	-0.00011	4e-05	2e-05	5
24971	1e-05	-4e-05	-0.0002	-0.0002	-3e-05	-0.00011	4e-05	2e-05	5
24972	1e-05	-4e-05	-0.0002	-0.0002	-3e-05	-0.00011	4e-05	2e-05	5
24973	1e-05	-4e-05	-0.0002	-0.0002	-3e-05	-0.00011	4e-05	2e-05	5
24974	1e-05	-4e-05	-0.0002	-0.0002	-3e-05	-0.00011	4e-05	2e-05	5
24975	1e-05	-4e-05	-0.0002	-0.0002	-3e-05	-0.00011	4e-05	2e-05	5
24976	1e-05	-4e-05	-0.0002	-0.0002	-3e-05	-0.00011	4e-05	2e-05	5
24977	1e-05	-4e-05	-0.0002	-0.0002	-3e-05	-0.00011	4e-05	2e-05	5
24978	3e-05	5e-05	0.00016	9e-05	5e-05	6e-05	0	1e-05	5
24979	-6e-05	-0.0001	-0.00017	2e-05	0.00016	-0.00018	-0.00019	-8e-05	5
24980	-6e-05	-0.0001	-0.00017	2e-05	0.00016	-0.00018	-0.00019	-8e-05	5
24981	-6e-05	-0.0001	-0.00017	2e-05	0.00016	-0.00018	-0.00019	-8e-05	5
24982	-6e-05	-0.0001	-0.00017	2e-05	0.00016	-0.00018	-0.00019	-8e-05	5
24983	-6e-05	-0.0001	-0.00017	2e-05	0.00016	-0.00018	-0.00019	-8e-05	5
24984	-6e-05	-0.0001	-0.00017	2e-05	0.00016	-0.00018	-0.00019	-8e-05	5
24985	-6e-05	-0.0001	-0.00017	2e-05	0.00016	-0.00018	-0.00019	-8e-05	5
24986	-6e-05	-0.0001	-0.00017	2e-05	0.00016	-0.00018	-0.00019	-8e-05	5
24988	-6e-05	-0.0001	-0.00017	2e-05	0.00016	-0.00018	-0.00019	-8e-05	5
24989	-6e-05	-0.0001	-0.00017	2e-05	0.00016	-0.00018	-0.00019	-8e-05	5
24990	-6e-05	-0.0001	-0.00017	2e-05	0.00016	-0.00018	-0.00019	-8e-05	5
24991	-6e-05	-0.0001	-0.00017	2e-05	0.00016	-0.00018	-0.00019	-8e-05	5
24992	-6e-05	-0.0001	-0.00017	2e-05	0.00016	-0.00018	-0.00019	-8e-05	5
24993	-6e-05	-0.0001	-0.00017	2e-05	0.00016	-0.00018	-0.00019	-8e-05	5
24994	-6e-05	-0.0001	-0.00017	2e-05	0.00016	-0.00018	-0.00019	-8e-05	5
24995	-6e-05	-0.0001	-0.00017	2e-05	0.00016	-0.00018	-0.00019	-8e-05	5
24996	-6e-05	-0.0001	-0.00017	2e-05	0.00016	-0.00018	-0.00019	-8e-05	5
24997	-6e-05	-0.0001	-0.00017	2e-05	0.00016	-0.00018	-0.00019	-8e-05	5
24998	-6e-05	-0.0001	-0.00017	2e-05	0.00016	-0.00018	-0.00019	-8e-05	5
24999	-6e-05	-0.0001	-0.00017	2e-05	0.00016	-0.00018	-0.00019	-8e-05	5
25000	0	5e-05	8e-05	0.00013	-9e-05	0.00011	0.00014	3e-05	5
25001	-1e-05	-8e-05	-0.00022	-0.0003	0.00017	0.00013	0	-1e-05	5
25002	0.00013	0.00016	6e-05	0.00029	0.00027	0.00029	0.00013	0.00011	5
25003	0.00013	0.00016	6e-05	0.00029	0.00027	0.00029	0.00013	0.00011	5
25004	0.00013	0.00016	6e-05	0.00029	0.00027	0.00029	0.00013	0.00011	5
25005	0.00013	0.00016	6e-05	0.00029	0.00027	0.00029	0.00013	0.00011	5
25006	0.00013	0.00016	6e-05	0.00029	0.00027	0.00029	0.00013	0.00011	5
25007	0.00013	0.00016	6e-05	0.00029	0.00027	0.00029	0.00013	0.00011	5
25008	0.00013	0.00016	6e-05	0.00029	0.00027	0.00029	0.00013	0.00011	5
25009	0.00013	0.00016	6e-05	0.00029	0.00027	0.00029	0.00013	0.00011	5
25010	0.00013	0.00016	6e-05	0.00029	0.00027	0.00029	0.00013	0.00011	5
25011	0.00013	0.00016	6e-05	0.00029	0.00027	0.00029	0.00013	0.00011	5
25012	0.00013	0.00016	6e-05	0.00029	0.00027	0.00029	0.00013	0.00011	5
25013	0.00013	0.00016	6e-05	0.00029	0.00027	0.00029	0.00013	0.00011	5
25014	0.00013	0.00016	6e-05	0.00029	0.00027	0.00029	0.00013	0.00011	5
25015	-5e-05	-7e-05	-9e-05	0	-2e-05	-2e-05	3e-05	-2e-05	5
25016	2e-05	-6e-05	-0.0001	0.00029	0.00072	0.00036	7e-05	4e-05	5
25017	-5e-05	6e-05	0.00023	1e-05	-0.0003	-3e-05	-2e-05	-2e-05	5
25018	-5e-05	6e-05	0.00023	1e-05	-0.0003	-3e-05	-2e-05	-2e-05	5
25019	-5e-05	6e-05	0.00023	1e-05	-0.0003	-3e-05	-2e-05	-2e-05	5
25020	-5e-05	6e-05	0.00023	1e-05	-0.0003	-3e-05	-2e-05	-2e-05	5
25021	-5e-05	6e-05	0.00023	1e-05	-0.0003	-3e-05	-2e-05	-2e-05	5
25022	-5e-05	6e-05	0.00023	1e-05	-0.0003	-3e-05	-2e-05	-2e-05	5
25023	-5e-05	6e-05	0.00023	1e-05	-0.0003	-3e-05	-2e-05	-2e-05	5
25024	-5e-05	6e-05	0.00023	1e-05	-0.0003	-3e-05	-2e-05	-2e-05	5
25025	-5e-05	6e-05	0.00023	1e-05	-0.0003	-3e-05	-2e-05	-2e-05	5
25026	-5e-05	6e-05	0.00023	1e-05	-0.0003	-3e-05	-2e-05	-2e-05	5
25027	-5e-05	6e-05	0.00023	1e-05	-0.0003	-3e-05	-2e-05	-2e-05	5
25028	-5e-05	6e-05	0.00023	1e-05	-0.0003	-3e-05	-2e-05	-2e-05	5
25029	-5e-05	6e-05	0.00023	1e-05	-0.0003	-3e-05	-2e-05	-2e-05	5
25030	-5e-05	6e-05	0.00023	1e-05	-0.0003	-3e-05	-2e-05	-2e-05	5
25031	-5e-05	6e-05	0.00023	1e-05	-0.0003	-3e-05	-2e-05	-2e-05	5
25033	-5e-05	6e-05	0.00023	1e-05	-0.0003	-3e-05	-2e-05	-2e-05	5
25034	-5e-05	6e-05	0.00023	1e-05	-0.0003	-3e-05	-2e-05	-2e-05	5
25035	-5e-05	6e-05	0.00023	1e-05	-0.0003	-3e-05	-2e-05	-2e-05	5
25036	-5e-05	6e-05	0.00023	1e-05	-0.0003	-3e-05	-2e-05	-2e-05	5
25039	-4e-05	-8e-05	-2e-05	-8e-05	-0.00031	-0.00022	-9e-05	-5e-05	5
25040	-4e-05	-8e-05	-2e-05	-8e-05	-0.00031	-0.00022	-9e-05	-5e-05	5
25041	-4e-05	-8e-05	-2e-05	-8e-05	-0.00031	-0.00022	-9e-05	-5e-05	5
25042	-4e-05	-8e-05	-2e-05	-8e-05	-0.00031	-0.00022	-9e-05	-5e-05	5
25043	-4e-05	-8e-05	-2e-05	-8e-05	-0.00031	-0.00022	-9e-05	-5e-05	5
25044	-1e-05	7e-05	0.00014	0.00022	0.00032	7e-05	-4e-05	0	5
25045	-1e-05	7e-05	0.00014	0.00022	0.00032	7e-05	-4e-05	0	5
25046	-1e-05	7e-05	0.00014	0.00022	0.00032	7e-05	-4e-05	0	5
25047	-1e-05	7e-05	0.00014	0.00022	0.00032	7e-05	-4e-05	0	5
25048	-1e-05	7e-05	0.00014	0.00022	0.00032	7e-05	-4e-05	0	5
25049	-1e-05	7e-05	0.00014	0.00022	0.00032	7e-05	-4e-05	0	5
25050	-1e-05	7e-05	0.00014	0.00022	0.00032	7e-05	-4e-05	0	5
25051	-1e-05	1e-05	-0.00015	-0.00075	-0.00057	-0.00021	-9e-05	-5e-05	5
25052	-1e-05	1e-05	-0.00015	-0.00075	-0.00057	-0.00021	-9e-05	-5e-05	5
25053	-1e-05	1e-05	-0.00015	-0.00075	-0.00057	-0.00021	-9e-05	-5e-05	5
25054	-1e-05	1e-05	-0.00015	-0.00075	-0.00057	-0.00021	-9e-05	-5e-05	5
25055	-1e-05	1e-05	-0.00015	-0.00075	-0.00057	-0.00021	-9e-05	-5e-05	5
25056	-1e-05	1e-05	-0.00015	-0.00075	-0.00057	-0.00021	-9e-05	-5e-05	5
25057	-1e-05	1e-05	-0.00015	-0.00075	-0.00057	-0.00021	-9e-05	-5e-05	5
25058	-1e-05	1e-05	-0.00015	-0.00075	-0.00057	-0.00021	-9e-05	-5e-05	5
25059	-1e-05	1e-05	-0.00015	-0.00075	-0.00057	-0.00021	-9e-05	-5e-05	5
25060	-2e-05	4e-05	0.00013	-0.00019	-0.00032	-0.00039	-0.00018	-8e-05	5
25061	-2e-05	4e-05	0.00013	-0.00019	-0.00032	-0.00039	-0.00018	-8e-05	5
25062	-2e-05	4e-05	0.00013	-0.00019	-0.00032	-0.00039	-0.00018	-8e-05	5
25064	-2e-05	4e-05	0.00013	-0.00019	-0.00032	-0.00039	-0.00018	-8e-05	5
25065	-2e-05	4e-05	0.00013	-0.00019	-0.00032	-0.00039	-0.00018	-8e-05	5
25066	-2e-05	4e-05	0.00013	-0.00019	-0.00032	-0.00039	-0.00018	-8e-05	5
25067	-2e-05	4e-05	0.00013	-0.00019	-0.00032	-0.00039	-0.00018	-8e-05	5
25068	-2e-05	4e-05	0.00013	-0.00019	-0.00032	-0.00039	-0.00018	-8e-05	5
25069	-2e-05	4e-05	0.00013	-0.00019	-0.00032	-0.00039	-0.00018	-8e-05	5
25070	-2e-05	4e-05	0.00013	-0.00019	-0.00032	-0.00039	-0.00018	-8e-05	5
25071	-2e-05	4e-05	0.00013	-0.00019	-0.00032	-0.00039	-0.00018	-8e-05	5
25072	-2e-05	4e-05	0.00013	-0.00019	-0.00032	-0.00039	-0.00018	-8e-05	5
25073	-2e-05	4e-05	0.00013	-0.00019	-0.00032	-0.00039	-0.00018	-8e-05	5
25074	-2e-05	4e-05	0.00013	-0.00019	-0.00032	-0.00039	-0.00018	-8e-05	5
25075	1e-05	-1e-05	-3e-05	1e-05	3e-05	0.00016	6e-05	3e-05	5
25076	0	4e-05	0.0001	0.00015	0.00032	7e-05	2e-05	1e-05	5
25077	-0.00012	-0.00017	-0.00032	-0.00023	0.00021	0.00017	2e-05	-7e-05	5
25078	-0.00012	-0.00017	-0.00032	-0.00023	0.00021	0.00017	2e-05	-7e-05	5
25079	-0.00012	-0.00017	-0.00032	-0.00023	0.00021	0.00017	2e-05	-7e-05	5
25080	-0.00012	-0.00017	-0.00032	-0.00023	0.00021	0.00017	2e-05	-7e-05	5
25081	-0.00012	-0.00017	-0.00032	-0.00023	0.00021	0.00017	2e-05	-7e-05	5
25082	-0.00012	-0.00017	-0.00032	-0.00023	0.00021	0.00017	2e-05	-7e-05	5
25083	-0.00012	-0.00017	-0.00032	-0.00023	0.00021	0.00017	2e-05	-7e-05	5
25084	-0.00012	-0.00017	-0.00032	-0.00023	0.00021	0.00017	2e-05	-7e-05	5
25085	-0.00012	-0.00017	-0.00032	-0.00023	0.00021	0.00017	2e-05	-7e-05	5
25086	-0.00012	-0.00017	-0.00032	-0.00023	0.00021	0.00017	2e-05	-7e-05	5
25088	-0.00012	-0.00017	-0.00032	-0.00023	0.00021	0.00017	2e-05	-7e-05	5
25090	-0.00012	-0.00017	-0.00032	-0.00023	0.00021	0.00017	2e-05	-7e-05	5
25091	-0.00012	-0.00017	-0.00032	-0.00023	0.00021	0.00017	2e-05	-7e-05	5
25092	-0.00012	-0.00017	-0.00032	-0.00023	0.00021	0.00017	2e-05	-7e-05	5
25093	-0.00012	-0.00017	-0.00032	-0.00023	0.00021	0.00017	2e-05	-7e-05	5
25094	-0.00012	-0.00017	-0.00032	-0.00023	0.00021	0.00017	2e-05	-7e-05	5
25095	-0.00012	-0.00017	-0.00032	-0.00023	0.00021	0.00017	2e-05	-7e-05	5
25096	-0.00012	-0.00017	-0.00032	-0.00023	0.00021	0.00017	2e-05	-7e-05	5
25097	0.00012	0.00013	0.00041	0.00055	0.00058	0.00053	0.00019	0.0001	5
25098	0.00012	0.00013	0.00041	0.00055	0.00058	0.00053	0.00019	0.0001	5
25099	0.00012	0.00013	0.00041	0.00055	0.00058	0.00053	0.00019	0.0001	5
25100	0.00012	0.00013	0.00041	0.00055	0.00058	0.00053	0.00019	0.0001	5
25101	0.00012	0.00013	0.00041	0.00055	0.00058	0.00053	0.00019	0.0001	5
25102	0.00012	0.00013	0.00041	0.00055	0.00058	0.00053	0.00019	0.0001	5
25103	0.00012	0.00013	0.00041	0.00055	0.00058	0.00053	0.00019	0.0001	5
25104	0.00012	0.00013	0.00041	0.00055	0.00058	0.00053	0.00019	0.0001	5
25105	0.00012	0.00013	0.00041	0.00055	0.00058	0.00053	0.00019	0.0001	5
25106	0.00012	0.00013	0.00041	0.00055	0.00058	0.00053	0.00019	0.0001	5
25107	0.00012	0.00013	0.00041	0.00055	0.00058	0.00053	0.00019	0.0001	5
25108	0.00012	0.00013	0.00041	0.00055	0.00058	0.00053	0.00019	0.0001	5
25109	0.00012	0.00013	0.00041	0.00055	0.00058	0.00053	0.00019	0.0001	5
25110	0.00012	0.00013	0.00041	0.00055	0.00058	0.00053	0.00019	0.0001	5
25111	0.00012	0.00013	0.00041	0.00055	0.00058	0.00053	0.00019	0.0001	5
25112	0.00012	0.00013	0.00041	0.00055	0.00058	0.00053	0.00019	0.0001	5
25113	-0.00013	-0.0001	-0.00037	-0.00093	-0.0007	-0.00052	-0.00023	-0.00016	5
25114	2e-05	3e-05	0.00013	0.0003	0.00025	0.00014	0	3e-05	5
25115	2e-05	3e-05	0.00013	0.0003	0.00025	0.00014	0	3e-05	5
25116	2e-05	3e-05	0.00013	0.0003	0.00025	0.00014	0	3e-05	5
25117	2e-05	3e-05	0.00013	0.0003	0.00025	0.00014	0	3e-05	5
25118	2e-05	3e-05	0.00013	0.0003	0.00025	0.00014	0	3e-05	5
25119	2e-05	3e-05	0.00013	0.0003	0.00025	0.00014	0	3e-05	5
25120	2e-05	3e-05	0.00013	0.0003	0.00025	0.00014	0	3e-05	5
25121	-3e-05	0	7e-05	0.00021	0.0002	-4e-05	-8e-05	-0.00011	5
25122	-3e-05	0	7e-05	0.00021	0.0002	-4e-05	-8e-05	-0.00011	5
25123	-3e-05	0	7e-05	0.00021	0.0002	-4e-05	-8e-05	-0.00011	5
25124	-3e-05	0	7e-05	0.00021	0.0002	-4e-05	-8e-05	-0.00011	5
25125	-3e-05	0	7e-05	0.00021	0.0002	-4e-05	-8e-05	-0.00011	5
25126	-3e-05	0	7e-05	0.00021	0.0002	-4e-05	-8e-05	-0.00011	5
25127	-3e-05	0	7e-05	0.00021	0.0002	-4e-05	-8e-05	-0.00011	5
25128	-3e-05	0	7e-05	0.00021	0.0002	-4e-05	-8e-05	-0.00011	5
25129	-3e-05	0	7e-05	0.00021	0.0002	-4e-05	-8e-05	-0.00011	5
25130	-3e-05	0	7e-05	0.00021	0.0002	-4e-05	-8e-05	-0.00011	5
25131	-3e-05	0	7e-05	0.00021	0.0002	-4e-05	-8e-05	-0.00011	5
25132	-3e-05	0	7e-05	0.00021	0.0002	-4e-05	-8e-05	-0.00011	5
25133	-3e-05	0	7e-05	0.00021	0.0002	-4e-05	-8e-05	-0.00011	5
25134	5e-05	0.0001	-0.00011	-0.00057	-0.0004	-0.00019	-9e-05	1e-05	5
25135	0.00013	0.00012	0.00012	0.00025	0.00035	0.00043	0.0003	0.00018	5
25136	0.00013	0.00012	0.00012	0.00025	0.00035	0.00043	0.0003	0.00018	5
25138	0.00013	0.00012	0.00012	0.00025	0.00035	0.00043	0.0003	0.00018	5
25139	0.00013	0.00012	0.00012	0.00025	0.00035	0.00043	0.0003	0.00018	5
25140	0.00013	0.00012	0.00012	0.00025	0.00035	0.00043	0.0003	0.00018	5
25141	0.00013	0.00012	0.00012	0.00025	0.00035	0.00043	0.0003	0.00018	5
25142	0.00013	0.00012	0.00012	0.00025	0.00035	0.00043	0.0003	0.00018	5
25143	0.00013	0.00012	0.00012	0.00025	0.00035	0.00043	0.0003	0.00018	5
25144	0.00013	0.00012	0.00012	0.00025	0.00035	0.00043	0.0003	0.00018	5
25145	0.00013	0.00012	0.00012	0.00025	0.00035	0.00043	0.0003	0.00018	5
25146	0.00013	0.00012	0.00012	0.00025	0.00035	0.00043	0.0003	0.00018	5
25147	0.00013	0.00012	0.00012	0.00025	0.00035	0.00043	0.0003	0.00018	5
25148	0.00013	0.00012	0.00012	0.00025	0.00035	0.00043	0.0003	0.00018	5
25149	0.00013	0.00012	0.00012	0.00025	0.00035	0.00043	0.0003	0.00018	5
25150	0.00013	0.00012	0.00012	0.00025	0.00035	0.00043	0.0003	0.00018	5
25151	0.00013	0.00012	0.00012	0.00025	0.00035	0.00043	0.0003	0.00018	5
25152	0.00013	0.00012	0.00012	0.00025	0.00035	0.00043	0.0003	0.00018	5
25153	0.00013	0.00012	0.00012	0.00025	0.00035	0.00043	0.0003	0.00018	5
25154	0.00013	0.00012	0.00012	0.00025	0.00035	0.00043	0.0003	0.00018	5
25155	0.00013	0.00012	0.00012	0.00025	0.00035	0.00043	0.0003	0.00018	5
25156	0.00013	0.00012	0.00012	0.00025	0.00035	0.00043	0.0003	0.00018	5
25157	-1e-05	2e-05	-7e-05	0.00012	-0.00019	-0.00018	-8e-05	-3e-05	5
25158	-0.00012	-0.00022	-0.00027	-0.00022	-0.00026	-8e-05	-2e-05	1e-05	5
25159	-0.00012	-0.00022	-0.00027	-0.00022	-0.00026	-8e-05	-2e-05	1e-05	5
25160	-0.00012	-0.00022	-0.00027	-0.00022	-0.00026	-8e-05	-2e-05	1e-05	5
25161	-0.00012	-0.00022	-0.00027	-0.00022	-0.00026	-8e-05	-2e-05	1e-05	5
25162	-0.00012	-0.00022	-0.00027	-0.00022	-0.00026	-8e-05	-2e-05	1e-05	5
25163	-0.00012	-0.00022	-0.00027	-0.00022	-0.00026	-8e-05	-2e-05	1e-05	5
25164	-0.00012	-0.00022	-0.00027	-0.00022	-0.00026	-8e-05	-2e-05	1e-05	5
25165	-0.00012	-0.00022	-0.00027	-0.00022	-0.00026	-8e-05	-2e-05	1e-05	5
25166	-0.00012	-0.00022	-0.00027	-0.00022	-0.00026	-8e-05	-2e-05	1e-05	5
25167	-0.00012	-0.00022	-0.00027	-0.00022	-0.00026	-8e-05	-2e-05	1e-05	5
25168	-0.00012	-0.00022	-0.00027	-0.00022	-0.00026	-8e-05	-2e-05	1e-05	5
25169	-0.00012	-0.00022	-0.00027	-0.00022	-0.00026	-8e-05	-2e-05	1e-05	5
25170	-0.00012	-0.00022	-0.00027	-0.00022	-0.00026	-8e-05	-2e-05	1e-05	5
25171	-0.00012	-0.00022	-0.00027	-0.00022	-0.00026	-8e-05	-2e-05	1e-05	5
25172	-0.00012	-0.00022	-0.00027	-0.00022	-0.00026	-8e-05	-2e-05	1e-05	5
25173	-0.00012	-0.00022	-0.00027	-0.00022	-0.00026	-8e-05	-2e-05	1e-05	5
25174	-0.00012	-0.00022	-0.00027	-0.00022	-0.00026	-8e-05	-2e-05	1e-05	5
25175	-0.00012	-0.00022	-0.00027	-0.00022	-0.00026	-8e-05	-2e-05	1e-05	5
25176	-0.00012	-0.00022	-0.00027	-0.00022	-0.00026	-8e-05	-2e-05	1e-05	5
25177	-0.00012	-0.00022	-0.00027	-0.00022	-0.00026	-8e-05	-2e-05	1e-05	5
25178	-0.00012	-0.00022	-0.00027	-0.00022	-0.00026	-8e-05	-2e-05	1e-05	5
25179	-0.00012	-0.00022	-0.00027	-0.00022	-0.00026	-8e-05	-2e-05	1e-05	5
25180	-3e-05	0	-6e-05	-0.00015	0.00026	0.00017	6e-05	-1e-05	5
25181	6e-05	0.00023	0.00018	0.00021	5e-05	0.00018	0.00012	7e-05	5
25182	6e-05	0.00023	0.00018	0.00021	5e-05	0.00018	0.00012	7e-05	5
25183	6e-05	0.00023	0.00018	0.00021	5e-05	0.00018	0.00012	7e-05	5
25184	6e-05	0.00023	0.00018	0.00021	5e-05	0.00018	0.00012	7e-05	5
25185	6e-05	0.00023	0.00018	0.00021	5e-05	0.00018	0.00012	7e-05	5
25186	6e-05	0.00023	0.00018	0.00021	5e-05	0.00018	0.00012	7e-05	5
25188	6e-05	0.00023	0.00018	0.00021	5e-05	0.00018	0.00012	7e-05	5
25189	6e-05	0.00023	0.00018	0.00021	5e-05	0.00018	0.00012	7e-05	5
25190	6e-05	0.00023	0.00018	0.00021	5e-05	0.00018	0.00012	7e-05	5
25191	6e-05	0.00023	0.00018	0.00021	5e-05	0.00018	0.00012	7e-05	5
25192	6e-05	0.00023	0.00018	0.00021	5e-05	0.00018	0.00012	7e-05	5
25193	6e-05	0.00023	0.00018	0.00021	5e-05	0.00018	0.00012	7e-05	5
25194	6e-05	0.00023	0.00018	0.00021	5e-05	0.00018	0.00012	7e-05	5
25195	6e-05	0.00023	0.00018	0.00021	5e-05	0.00018	0.00012	7e-05	5
25196	6e-05	0.00023	0.00018	0.00021	5e-05	0.00018	0.00012	7e-05	5
25197	6e-05	0.00023	0.00018	0.00021	5e-05	0.00018	0.00012	7e-05	5
25198	6e-05	0.00023	0.00018	0.00021	5e-05	0.00018	0.00012	7e-05	5
25199	6e-05	0.00023	0.00018	0.00021	5e-05	0.00018	0.00012	7e-05	5
25200	6e-05	0.00023	0.00018	0.00021	5e-05	0.00018	0.00012	7e-05	5
25201	6e-05	0.00023	0.00018	0.00021	5e-05	0.00018	0.00012	7e-05	5
25202	6e-05	0.00023	0.00018	0.00021	5e-05	0.00018	0.00012	7e-05	5
25203	6e-05	0.00023	0.00018	0.00021	5e-05	0.00018	0.00012	7e-05	5
25204	-0.0001	-0.00023	-0.00041	-0.00044	0.00011	-0.00014	-0.0002	-0.00015	5
25205	-0.0001	-0.00023	-0.00041	-0.00044	0.00011	-0.00014	-0.0002	-0.00015	5
25206	-0.0001	-0.00023	-0.00041	-0.00044	0.00011	-0.00014	-0.0002	-0.00015	5
25207	-0.0001	-0.00023	-0.00041	-0.00044	0.00011	-0.00014	-0.0002	-0.00015	5
25208	-0.0001	-0.00023	-0.00041	-0.00044	0.00011	-0.00014	-0.0002	-0.00015	5
25209	-0.0001	-0.00023	-0.00041	-0.00044	0.00011	-0.00014	-0.0002	-0.00015	5
25210	-0.0001	-0.00023	-0.00041	-0.00044	0.00011	-0.00014	-0.0002	-0.00015	5
25211	-0.0001	-0.00023	-0.00041	-0.00044	0.00011	-0.00014	-0.0002	-0.00015	5
25212	-0.0001	-0.00023	-0.00041	-0.00044	0.00011	-0.00014	-0.0002	-0.00015	5
25213	-0.0001	-0.00023	-0.00041	-0.00044	0.00011	-0.00014	-0.0002	-0.00015	5
25214	-0.0001	-0.00023	-0.00041	-0.00044	0.00011	-0.00014	-0.0002	-0.00015	5
25215	-0.0001	-0.00023	-0.00041	-0.00044	0.00011	-0.00014	-0.0002	-0.00015	5
25216	-0.0001	-0.00023	-0.00041	-0.00044	0.00011	-0.00014	-0.0002	-0.00015	5
25217	-0.0001	-0.00023	-0.00041	-0.00044	0.00011	-0.00014	-0.0002	-0.00015	5
25218	-0.0001	-0.00023	-0.00041	-0.00044	0.00011	-0.00014	-0.0002	-0.00015	5
25219	-0.0001	-0.00023	-0.00041	-0.00044	0.00011	-0.00014	-0.0002	-0.00015	5
25220	-0.0001	-0.00023	-0.00041	-0.00044	0.00011	-0.00014	-0.0002	-0.00015	5
25221	-0.0001	-0.00023	-0.00041	-0.00044	0.00011	-0.00014	-0.0002	-0.00015	5
25222	-0.0001	-0.00023	-0.00041	-0.00044	0.00011	-0.00014	-0.0002	-0.00015	5
25223	-0.0001	-0.00023	-0.00041	-0.00044	0.00011	-0.00014	-0.0002	-0.00015	5
25224	-0.0001	-0.00023	-0.00041	-0.00044	0.00011	-0.00014	-0.0002	-0.00015	5
25225	-0.0001	-0.00023	-0.00041	-0.00044	0.00011	-0.00014	-0.0002	-0.00015	5
25226	6e-05	0.00015	6e-05	0.00012	0.00075	0.00036	0.00015	9e-05	5
25227	-8e-05	-0.00018	-0.0003	-0.00078	-0.00052	-0.00051	-0.0002	-0.00011	5
25228	-1e-05	-0.00014	-0.00013	0.00018	-1e-05	-1e-05	-3e-05	-4e-05	5
25229	-1e-05	-0.00014	-0.00013	0.00018	-1e-05	-1e-05	-3e-05	-4e-05	5
25230	-1e-05	-0.00014	-0.00013	0.00018	-1e-05	-1e-05	-3e-05	-4e-05	5
25231	-1e-05	-0.00014	-0.00013	0.00018	-1e-05	-1e-05	-3e-05	-4e-05	5
25232	-1e-05	-0.00014	-0.00013	0.00018	-1e-05	-1e-05	-3e-05	-4e-05	5
25233	-1e-05	-0.00014	-0.00013	0.00018	-1e-05	-1e-05	-3e-05	-4e-05	5
25234	-1e-05	-0.00014	-0.00013	0.00018	-1e-05	-1e-05	-3e-05	-4e-05	5
25235	-1e-05	-0.00014	-0.00013	0.00018	-1e-05	-1e-05	-3e-05	-4e-05	5
25236	-1e-05	-0.00014	-0.00013	0.00018	-1e-05	-1e-05	-3e-05	-4e-05	5
25238	-1e-05	-0.00014	-0.00013	0.00018	-1e-05	-1e-05	-3e-05	-4e-05	5
25239	3e-05	4e-05	-7e-05	-0.00057	-0.00051	-0.00031	-0.00019	-5e-05	5
25240	3e-05	4e-05	-7e-05	-0.00057	-0.00051	-0.00031	-0.00019	-5e-05	5
25241	3e-05	4e-05	-7e-05	-0.00057	-0.00051	-0.00031	-0.00019	-5e-05	5
25242	3e-05	4e-05	-7e-05	-0.00057	-0.00051	-0.00031	-0.00019	-5e-05	5
25243	3e-05	4e-05	-7e-05	-0.00057	-0.00051	-0.00031	-0.00019	-5e-05	5
25244	3e-05	4e-05	-7e-05	-0.00057	-0.00051	-0.00031	-0.00019	-5e-05	5
25245	3e-05	4e-05	-7e-05	-0.00057	-0.00051	-0.00031	-0.00019	-5e-05	5
25246	3e-05	4e-05	-7e-05	-0.00057	-0.00051	-0.00031	-0.00019	-5e-05	5
25247	3e-05	4e-05	-7e-05	-0.00057	-0.00051	-0.00031	-0.00019	-5e-05	5
25248	3e-05	4e-05	-7e-05	-0.00057	-0.00051	-0.00031	-0.00019	-5e-05	5
25249	3e-05	4e-05	-7e-05	-0.00057	-0.00051	-0.00031	-0.00019	-5e-05	5
25250	3e-05	4e-05	-7e-05	-0.00057	-0.00051	-0.00031	-0.00019	-5e-05	5
25251	3e-05	4e-05	-7e-05	-0.00057	-0.00051	-0.00031	-0.00019	-5e-05	5
25252	3e-05	4e-05	-7e-05	-0.00057	-0.00051	-0.00031	-0.00019	-5e-05	5
25253	3e-05	4e-05	-7e-05	-0.00057	-0.00051	-0.00031	-0.00019	-5e-05	5
25254	3e-05	4e-05	-7e-05	-0.00057	-0.00051	-0.00031	-0.00019	-5e-05	5
25255	3e-05	4e-05	-7e-05	-0.00057	-0.00051	-0.00031	-0.00019	-5e-05	5
25256	-5e-05	-3e-05	-0.00015	-0.00034	-0.00044	-6e-05	0	-4e-05	5
25257	-2e-05	5e-05	4e-05	5e-05	0.00019	-8e-05	-5e-05	1e-05	5
25258	1e-05	-6e-05	-8e-05	-0.00024	-7e-05	5e-05	-1e-05	0	5
25259	1e-05	-6e-05	-8e-05	-0.00024	-7e-05	5e-05	-1e-05	0	5
25260	1e-05	-6e-05	-8e-05	-0.00024	-7e-05	5e-05	-1e-05	0	5
25261	1e-05	-6e-05	-8e-05	-0.00024	-7e-05	5e-05	-1e-05	0	5
25262	1e-05	-6e-05	-8e-05	-0.00024	-7e-05	5e-05	-1e-05	0	5
25263	1e-05	-6e-05	-8e-05	-0.00024	-7e-05	5e-05	-1e-05	0	5
25264	1e-05	-6e-05	-8e-05	-0.00024	-7e-05	5e-05	-1e-05	0	5
25265	1e-05	-6e-05	-8e-05	-0.00024	-7e-05	5e-05	-1e-05	0	5
25266	1e-05	-6e-05	-8e-05	-0.00024	-7e-05	5e-05	-1e-05	0	5
25267	1e-05	-6e-05	-8e-05	-0.00024	-7e-05	5e-05	-1e-05	0	5
25268	1e-05	-6e-05	-8e-05	-0.00024	-7e-05	5e-05	-1e-05	0	5
25269	1e-05	-6e-05	-8e-05	-0.00024	-7e-05	5e-05	-1e-05	0	5
25270	1e-05	-6e-05	-8e-05	-0.00024	-7e-05	5e-05	-1e-05	0	5
25271	1e-05	-6e-05	-8e-05	-0.00024	-7e-05	5e-05	-1e-05	0	5
25272	1e-05	-6e-05	-8e-05	-0.00024	-7e-05	5e-05	-1e-05	0	5
25273	1e-05	-6e-05	-8e-05	-0.00024	-7e-05	5e-05	-1e-05	0	5
25274	1e-05	-6e-05	-8e-05	-0.00024	-7e-05	5e-05	-1e-05	0	5
25275	1e-05	-6e-05	-8e-05	-0.00024	-7e-05	5e-05	-1e-05	0	5
25276	1e-05	-6e-05	-8e-05	-0.00024	-7e-05	5e-05	-1e-05	0	5
25277	1e-05	-6e-05	-8e-05	-0.00024	-7e-05	5e-05	-1e-05	0	5
25278	-6e-05	2e-05	0.00013	0.00021	-2e-05	8e-05	5e-05	-5e-05	5
25279	-6e-05	2e-05	0.00013	0.00021	-2e-05	8e-05	5e-05	-5e-05	5
25280	3e-05	1e-05	0.00012	0.00025	0.0002	5e-05	8e-05	8e-05	5
25281	3e-05	1e-05	0.00012	0.00025	0.0002	5e-05	8e-05	8e-05	5
25282	3e-05	1e-05	0.00012	0.00025	0.0002	5e-05	8e-05	8e-05	5
25283	3e-05	1e-05	0.00012	0.00025	0.0002	5e-05	8e-05	8e-05	5
25284	3e-05	1e-05	0.00012	0.00025	0.0002	5e-05	8e-05	8e-05	5
25285	3e-05	1e-05	0.00012	0.00025	0.0002	5e-05	8e-05	8e-05	5
25286	3e-05	1e-05	0.00012	0.00025	0.0002	5e-05	8e-05	8e-05	5
25289	3e-05	1e-05	0.00012	0.00025	0.0002	5e-05	8e-05	8e-05	5
25290	3e-05	1e-05	0.00012	0.00025	0.0002	5e-05	8e-05	8e-05	5
25291	3e-05	1e-05	0.00012	0.00025	0.0002	5e-05	8e-05	8e-05	5
25292	3e-05	1e-05	0.00012	0.00025	0.0002	5e-05	8e-05	8e-05	5
25293	3e-05	1e-05	0.00012	0.00025	0.0002	5e-05	8e-05	8e-05	5
25294	3e-05	1e-05	0.00012	0.00025	0.0002	5e-05	8e-05	8e-05	5
25295	3e-05	1e-05	0.00012	0.00025	0.0002	5e-05	8e-05	8e-05	5
25296	3e-05	1e-05	0.00012	0.00025	0.0002	5e-05	8e-05	8e-05	5
25297	3e-05	1e-05	0.00012	0.00025	0.0002	5e-05	8e-05	8e-05	5
25298	3e-05	1e-05	0.00012	0.00025	0.0002	5e-05	8e-05	8e-05	5
25299	3e-05	1e-05	0.00012	0.00025	0.0002	5e-05	8e-05	8e-05	5
25300	3e-05	1e-05	0.00012	0.00025	0.0002	5e-05	8e-05	8e-05	5
25301	-5e-05	-0.00013	-0.00017	7e-05	0.00019	0.00031	7e-05	-1e-05	5
25302	-2e-05	2e-05	5e-05	0.00026	0.00013	-0.00014	-0.00011	-9e-05	5
25303	-2e-05	2e-05	5e-05	0.00026	0.00013	-0.00014	-0.00011	-9e-05	5
25304	-2e-05	2e-05	5e-05	0.00026	0.00013	-0.00014	-0.00011	-9e-05	5
25305	-2e-05	2e-05	5e-05	0.00026	0.00013	-0.00014	-0.00011	-9e-05	5
25306	-2e-05	2e-05	5e-05	0.00026	0.00013	-0.00014	-0.00011	-9e-05	5
25307	-2e-05	2e-05	5e-05	0.00026	0.00013	-0.00014	-0.00011	-9e-05	5
25308	-2e-05	2e-05	5e-05	0.00026	0.00013	-0.00014	-0.00011	-9e-05	5
25309	-2e-05	2e-05	5e-05	0.00026	0.00013	-0.00014	-0.00011	-9e-05	5
25310	-2e-05	2e-05	5e-05	0.00026	0.00013	-0.00014	-0.00011	-9e-05	5
25311	-2e-05	2e-05	5e-05	0.00026	0.00013	-0.00014	-0.00011	-9e-05	5
25312	-2e-05	2e-05	5e-05	0.00026	0.00013	-0.00014	-0.00011	-9e-05	5
25313	-2e-05	2e-05	5e-05	0.00026	0.00013	-0.00014	-0.00011	-9e-05	5
25314	-2e-05	2e-05	5e-05	0.00026	0.00013	-0.00014	-0.00011	-9e-05	5
25315	-2e-05	2e-05	5e-05	0.00026	0.00013	-0.00014	-0.00011	-9e-05	5
25316	-2e-05	2e-05	5e-05	0.00026	0.00013	-0.00014	-0.00011	-9e-05	5
25317	-2e-05	2e-05	5e-05	0.00026	0.00013	-0.00014	-0.00011	-9e-05	5
25318	-2e-05	2e-05	5e-05	0.00026	0.00013	-0.00014	-0.00011	-9e-05	5
25319	-2e-05	2e-05	5e-05	0.00026	0.00013	-0.00014	-0.00011	-9e-05	5
25320	-2e-05	2e-05	5e-05	0.00026	0.00013	-0.00014	-0.00011	-9e-05	5
25321	-2e-05	2e-05	5e-05	0.00026	0.00013	-0.00014	-0.00011	-9e-05	5
25322	-2e-05	2e-05	5e-05	0.00026	0.00013	-0.00014	-0.00011	-9e-05	5
25323	-2e-05	2e-05	5e-05	0.00026	0.00013	-0.00014	-0.00011	-9e-05	5
25324	-2e-05	2e-05	5e-05	0.00026	0.00013	-0.00014	-0.00011	-9e-05	5
25325	-2e-05	2e-05	5e-05	0.00026	0.00013	-0.00014	-0.00011	-9e-05	5
25326	-2e-05	2e-05	5e-05	0.00026	0.00013	-0.00014	-0.00011	-9e-05	5
25327	-2e-05	2e-05	5e-05	0.00026	0.00013	-0.00014	-0.00011	-9e-05	5
25328	-2e-05	2e-05	5e-05	0.00026	0.00013	-0.00014	-0.00011	-9e-05	5
25329	-2e-05	2e-05	5e-05	0.00026	0.00013	-0.00014	-0.00011	-9e-05	5
25330	1e-05	-5e-05	-0.00012	0.00014	0.00042	0.00013	0.0001	3e-05	5
25331	-4e-05	-8e-05	-0.00014	-0.00051	-0.0003	-0.00031	-0.00018	-6e-05	5
25332	-4e-05	-8e-05	-0.00014	-0.00051	-0.0003	-0.00031	-0.00018	-6e-05	5
25333	-4e-05	-8e-05	-0.00014	-0.00051	-0.0003	-0.00031	-0.00018	-6e-05	5
25334	-4e-05	-8e-05	-0.00014	-0.00051	-0.0003	-0.00031	-0.00018	-6e-05	5
25335	-4e-05	-8e-05	-0.00014	-0.00051	-0.0003	-0.00031	-0.00018	-6e-05	5
25336	-4e-05	-8e-05	-0.00014	-0.00051	-0.0003	-0.00031	-0.00018	-6e-05	5
25338	-4e-05	-8e-05	-0.00014	-0.00051	-0.0003	-0.00031	-0.00018	-6e-05	5
25339	-4e-05	-8e-05	-0.00014	-0.00051	-0.0003	-0.00031	-0.00018	-6e-05	5
25340	-4e-05	-8e-05	-0.00014	-0.00051	-0.0003	-0.00031	-0.00018	-6e-05	5
25341	-4e-05	-8e-05	-0.00014	-0.00051	-0.0003	-0.00031	-0.00018	-6e-05	5
25342	-4e-05	-8e-05	-0.00014	-0.00051	-0.0003	-0.00031	-0.00018	-6e-05	5
25343	-4e-05	-8e-05	-0.00014	-0.00051	-0.0003	-0.00031	-0.00018	-6e-05	5
25345	-4e-05	-8e-05	-0.00014	-0.00051	-0.0003	-0.00031	-0.00018	-6e-05	5
25346	-4e-05	-8e-05	-0.00014	-0.00051	-0.0003	-0.00031	-0.00018	-6e-05	5
25347	-4e-05	-8e-05	-0.00014	-0.00051	-0.0003	-0.00031	-0.00018	-6e-05	5
25348	-4e-05	-8e-05	-0.00014	-0.00051	-0.0003	-0.00031	-0.00018	-6e-05	5
25349	-4e-05	-8e-05	-0.00014	-0.00051	-0.0003	-0.00031	-0.00018	-6e-05	5
25350	-4e-05	-8e-05	-0.00014	-0.00051	-0.0003	-0.00031	-0.00018	-6e-05	5
25351	-4e-05	-8e-05	-0.00014	-0.00051	-0.0003	-0.00031	-0.00018	-6e-05	5
25352	-4e-05	-8e-05	-0.00014	-0.00051	-0.0003	-0.00031	-0.00018	-6e-05	5
25353	0	-0.00017	-0.00037	-0.00034	-0.00022	-0.00027	-8e-05	-2e-05	5
25354	5e-05	0.00013	0.00026	0.00036	0.00036	0.0001	3e-05	-5e-05	5
25355	5e-05	0.00013	0.00026	0.00036	0.00036	0.0001	3e-05	-5e-05	5
25356	5e-05	0.00013	0.00026	0.00036	0.00036	0.0001	3e-05	-5e-05	5
25357	5e-05	0.00013	0.00026	0.00036	0.00036	0.0001	3e-05	-5e-05	5
25358	5e-05	0.00013	0.00026	0.00036	0.00036	0.0001	3e-05	-5e-05	5
25359	5e-05	0.00013	0.00026	0.00036	0.00036	0.0001	3e-05	-5e-05	5
25360	5e-05	0.00013	0.00026	0.00036	0.00036	0.0001	3e-05	-5e-05	5
25361	5e-05	0.00013	0.00026	0.00036	0.00036	0.0001	3e-05	-5e-05	5
25362	5e-05	0.00013	0.00026	0.00036	0.00036	0.0001	3e-05	-5e-05	5
25363	5e-05	0.00013	0.00026	0.00036	0.00036	0.0001	3e-05	-5e-05	5
25364	5e-05	0.00013	0.00026	0.00036	0.00036	0.0001	3e-05	-5e-05	5
25365	5e-05	0.00013	0.00026	0.00036	0.00036	0.0001	3e-05	-5e-05	5
25366	5e-05	0.00013	0.00026	0.00036	0.00036	0.0001	3e-05	-5e-05	5
25367	5e-05	0.00013	0.00026	0.00036	0.00036	0.0001	3e-05	-5e-05	5
25368	-0.0001	-0.00011	4e-05	-5e-05	-0.00048	-3e-05	5e-05	3e-05	5
25369	-0.0001	-0.00011	4e-05	-5e-05	-0.00048	-3e-05	5e-05	3e-05	5
25370	-0.0001	-0.00011	4e-05	-5e-05	-0.00048	-3e-05	5e-05	3e-05	5
25371	-0.0001	-0.00011	4e-05	-5e-05	-0.00048	-3e-05	5e-05	3e-05	5
25372	-0.0001	-0.00011	4e-05	-5e-05	-0.00048	-3e-05	5e-05	3e-05	5
25373	-0.0001	-0.00011	4e-05	-5e-05	-0.00048	-3e-05	5e-05	3e-05	5
25374	-0.0001	-0.00011	4e-05	-5e-05	-0.00048	-3e-05	5e-05	3e-05	5
25375	1e-05	6e-05	0.00031	0.00045	0.00029	0.00021	0.00011	5e-05	5
25376	1e-05	6e-05	0.00031	0.00045	0.00029	0.00021	0.00011	5e-05	5
25377	1e-05	6e-05	0.00031	0.00045	0.00029	0.00021	0.00011	5e-05	5
25378	1e-05	6e-05	0.00031	0.00045	0.00029	0.00021	0.00011	5e-05	5
25379	1e-05	6e-05	0.00031	0.00045	0.00029	0.00021	0.00011	5e-05	5
25380	1e-05	6e-05	0.00031	0.00045	0.00029	0.00021	0.00011	5e-05	5
25381	1e-05	6e-05	0.00031	0.00045	0.00029	0.00021	0.00011	5e-05	5
25382	1e-05	6e-05	0.00031	0.00045	0.00029	0.00021	0.00011	5e-05	5
25383	1e-05	0.0001	0.00019	0.00022	-0.00014	-0.0001	-5e-05	-3e-05	5
25384	1e-05	0.0001	0.00019	0.00022	-0.00014	-0.0001	-5e-05	-3e-05	5
25385	1e-05	0.0001	0.00019	0.00022	-0.00014	-0.0001	-5e-05	-3e-05	5
25386	1e-05	0.0001	0.00019	0.00022	-0.00014	-0.0001	-5e-05	-3e-05	5
25388	1e-05	0.0001	0.00019	0.00022	-0.00014	-0.0001	-5e-05	-3e-05	5
25389	1e-05	0.0001	0.00019	0.00022	-0.00014	-0.0001	-5e-05	-3e-05	5
25390	1e-05	0.0001	0.00019	0.00022	-0.00014	-0.0001	-5e-05	-3e-05	5
25391	1e-05	0.0001	0.00019	0.00022	-0.00014	-0.0001	-5e-05	-3e-05	5
25392	1e-05	0.0001	0.00019	0.00022	-0.00014	-0.0001	-5e-05	-3e-05	5
25393	1e-05	0.0001	0.00019	0.00022	-0.00014	-0.0001	-5e-05	-3e-05	5
25394	1e-05	0.0001	0.00019	0.00022	-0.00014	-0.0001	-5e-05	-3e-05	5
25395	1e-05	0.0001	0.00019	0.00022	-0.00014	-0.0001	-5e-05	-3e-05	5
25396	1e-05	0.0001	0.00019	0.00022	-0.00014	-0.0001	-5e-05	-3e-05	5
25397	1e-05	0.0001	0.00019	0.00022	-0.00014	-0.0001	-5e-05	-3e-05	5
25398	1e-05	0.0001	0.00019	0.00022	-0.00014	-0.0001	-5e-05	-3e-05	5
25399	1e-05	0.0001	0.00019	0.00022	-0.00014	-0.0001	-5e-05	-3e-05	5
25400	1e-05	0.0001	0.00019	0.00022	-0.00014	-0.0001	-5e-05	-3e-05	5
25401	1e-05	0.0001	0.00019	0.00022	-0.00014	-0.0001	-5e-05	-3e-05	5
25402	1e-05	0.0001	0.00019	0.00022	-0.00014	-0.0001	-5e-05	-3e-05	5
25403	1e-05	0.0001	0.00019	0.00022	-0.00014	-0.0001	-5e-05	-3e-05	5
25404	1e-05	0.0001	0.00019	0.00022	-0.00014	-0.0001	-5e-05	-3e-05	5
25405	1e-05	0.0001	0.00019	0.00022	-0.00014	-0.0001	-5e-05	-3e-05	5
25406	-4e-05	-1e-05	-5e-05	-7e-05	-1e-05	6e-05	-5e-05	-5e-05	5
25407	0.00011	0.00012	0.00018	-0.00045	-0.00077	-0.00023	-9e-05	6e-05	5
25408	1e-05	-7e-05	-0.00023	-0.00017	0.00023	8e-05	4e-05	-1e-05	5
25409	4e-05	0.0003	0.00052	0.00044	0.00047	0.00012	6e-05	-3e-05	5
25410	4e-05	0.0003	0.00052	0.00044	0.00047	0.00012	6e-05	-3e-05	5
25411	4e-05	0.0003	0.00052	0.00044	0.00047	0.00012	6e-05	-3e-05	5
25412	4e-05	0.0003	0.00052	0.00044	0.00047	0.00012	6e-05	-3e-05	5
25413	4e-05	0.0003	0.00052	0.00044	0.00047	0.00012	6e-05	-3e-05	5
25414	4e-05	0.0003	0.00052	0.00044	0.00047	0.00012	6e-05	-3e-05	5
25415	4e-05	0.0003	0.00052	0.00044	0.00047	0.00012	6e-05	-3e-05	5
25416	4e-05	0.0003	0.00052	0.00044	0.00047	0.00012	6e-05	-3e-05	5
25417	4e-05	0.0003	0.00052	0.00044	0.00047	0.00012	6e-05	-3e-05	5
25418	4e-05	0.0003	0.00052	0.00044	0.00047	0.00012	6e-05	-3e-05	5
25419	4e-05	0.0003	0.00052	0.00044	0.00047	0.00012	6e-05	-3e-05	5
25420	4e-05	0.0003	0.00052	0.00044	0.00047	0.00012	6e-05	-3e-05	5
25421	4e-05	0.0003	0.00052	0.00044	0.00047	0.00012	6e-05	-3e-05	5
25422	4e-05	0.0003	0.00052	0.00044	0.00047	0.00012	6e-05	-3e-05	5
25423	4e-05	0.0003	0.00052	0.00044	0.00047	0.00012	6e-05	-3e-05	5
25424	4e-05	0.0003	0.00052	0.00044	0.00047	0.00012	6e-05	-3e-05	5
25425	4e-05	0.0003	0.00052	0.00044	0.00047	0.00012	6e-05	-3e-05	5
25426	4e-05	0.0003	0.00052	0.00044	0.00047	0.00012	6e-05	-3e-05	5
25427	4e-05	0.0003	0.00052	0.00044	0.00047	0.00012	6e-05	-3e-05	5
25428	4e-05	0.0003	0.00052	0.00044	0.00047	0.00012	6e-05	-3e-05	5
25429	-1e-05	0	0.00011	8e-05	0.0004	0.00022	8e-05	6e-05	5
25430	-0.00011	-0.00027	-0.00051	-0.00023	-0.00034	-0.00035	-0.00016	-8e-05	5
25431	-0.00011	-0.00027	-0.00051	-0.00023	-0.00034	-0.00035	-0.00016	-8e-05	5
25432	-0.00011	-0.00027	-0.00051	-0.00023	-0.00034	-0.00035	-0.00016	-8e-05	5
25433	-0.00011	-0.00027	-0.00051	-0.00023	-0.00034	-0.00035	-0.00016	-8e-05	5
25434	-0.00011	-0.00027	-0.00051	-0.00023	-0.00034	-0.00035	-0.00016	-8e-05	5
25435	-0.00011	-0.00027	-0.00051	-0.00023	-0.00034	-0.00035	-0.00016	-8e-05	5
25436	-0.00011	-0.00027	-0.00051	-0.00023	-0.00034	-0.00035	-0.00016	-8e-05	5
25439	-0.00011	-0.00027	-0.00051	-0.00023	-0.00034	-0.00035	-0.00016	-8e-05	5
25440	-0.00011	-0.00027	-0.00051	-0.00023	-0.00034	-0.00035	-0.00016	-8e-05	5
25441	-0.00011	-0.00027	-0.00051	-0.00023	-0.00034	-0.00035	-0.00016	-8e-05	5
25442	-0.00011	-0.00027	-0.00051	-0.00023	-0.00034	-0.00035	-0.00016	-8e-05	5
25443	-0.00011	-0.00027	-0.00051	-0.00023	-0.00034	-0.00035	-0.00016	-8e-05	5
25444	-0.00011	-0.00025	-0.00036	-0.00012	-0.00029	-0.00015	-0.00014	-7e-05	5
25445	-0.00011	-0.00025	-0.00036	-0.00012	-0.00029	-0.00015	-0.00014	-7e-05	5
25446	-0.00011	-0.00025	-0.00036	-0.00012	-0.00029	-0.00015	-0.00014	-7e-05	5
25447	-0.00011	-0.00025	-0.00036	-0.00012	-0.00029	-0.00015	-0.00014	-7e-05	5
25448	-0.00011	-0.00025	-0.00036	-0.00012	-0.00029	-0.00015	-0.00014	-7e-05	5
25449	-0.00011	-0.00025	-0.00036	-0.00012	-0.00029	-0.00015	-0.00014	-7e-05	5
25450	-0.00011	-0.00025	-0.00036	-0.00012	-0.00029	-0.00015	-0.00014	-7e-05	5
25451	-0.00011	-0.00025	-0.00036	-0.00012	-0.00029	-0.00015	-0.00014	-7e-05	5
25452	-0.00011	-0.00025	-0.00036	-0.00012	-0.00029	-0.00015	-0.00014	-7e-05	5
25453	-0.00011	-0.00025	-0.00036	-0.00012	-0.00029	-0.00015	-0.00014	-7e-05	5
25454	-0.00011	-0.00025	-0.00036	-0.00012	-0.00029	-0.00015	-0.00014	-7e-05	5
25455	-0.00011	-0.00025	-0.00036	-0.00012	-0.00029	-0.00015	-0.00014	-7e-05	5
25456	-0.00011	-0.00025	-0.00036	-0.00012	-0.00029	-0.00015	-0.00014	-7e-05	5
25457	-0.00011	-0.00025	-0.00036	-0.00012	-0.00029	-0.00015	-0.00014	-7e-05	5
25458	7e-05	0.00022	0.00041	0.00058	0.00061	0.00032	0.00013	8e-05	5
25459	1e-05	-0.00016	-0.00029	-0.00016	-0.0001	-4e-05	7e-05	5e-05	5
25460	1e-05	-0.00016	-0.00029	-0.00016	-0.0001	-4e-05	7e-05	5e-05	5
25461	1e-05	-0.00016	-0.00029	-0.00016	-0.0001	-4e-05	7e-05	5e-05	5
25462	1e-05	-0.00016	-0.00029	-0.00016	-0.0001	-4e-05	7e-05	5e-05	5
25463	1e-05	-0.00016	-0.00029	-0.00016	-0.0001	-4e-05	7e-05	5e-05	5
25464	1e-05	-0.00016	-0.00029	-0.00016	-0.0001	-4e-05	7e-05	5e-05	5
25465	1e-05	-0.00016	-0.00029	-0.00016	-0.0001	-4e-05	7e-05	5e-05	5
25466	1e-05	-0.00016	-0.00029	-0.00016	-0.0001	-4e-05	7e-05	5e-05	5
25467	1e-05	-0.00016	-0.00029	-0.00016	-0.0001	-4e-05	7e-05	5e-05	5
25468	1e-05	-0.00016	-0.00029	-0.00016	-0.0001	-4e-05	7e-05	5e-05	5
25469	1e-05	-0.00016	-0.00029	-0.00016	-0.0001	-4e-05	7e-05	5e-05	5
25470	1e-05	-0.00016	-0.00029	-0.00016	-0.0001	-4e-05	7e-05	5e-05	5
25471	1e-05	-0.00016	-0.00029	-0.00016	-0.0001	-4e-05	7e-05	5e-05	5
25472	1e-05	-0.00016	-0.00029	-0.00016	-0.0001	-4e-05	7e-05	5e-05	5
25473	1e-05	-0.00016	-0.00029	-0.00016	-0.0001	-4e-05	7e-05	5e-05	5
25474	1e-05	-0.00016	-0.00029	-0.00016	-0.0001	-4e-05	7e-05	5e-05	5
25475	1e-05	-0.00016	-0.00029	-0.00016	-0.0001	-4e-05	7e-05	5e-05	5
25476	1e-05	-0.00016	-0.00029	-0.00016	-0.0001	-4e-05	7e-05	5e-05	5
25477	1e-05	-0.00016	-0.00029	-0.00016	-0.0001	-4e-05	7e-05	5e-05	5
25478	1e-05	-0.00016	-0.00029	-0.00016	-0.0001	-4e-05	7e-05	5e-05	5
25479	1e-05	-0.00016	-0.00029	-0.00016	-0.0001	-4e-05	7e-05	5e-05	5
25480	1e-05	-0.00016	-0.00029	-0.00016	-0.0001	-4e-05	7e-05	5e-05	5
25481	1e-05	-0.00016	-0.00029	-0.00016	-0.0001	-4e-05	7e-05	5e-05	5
25482	-1e-05	0	-5e-05	0.00011	-4e-05	-0.00014	-0.00011	-3e-05	5
25483	-0.00013	-0.00029	-0.00013	0.00031	0.00053	0.0001	4e-05	-4e-05	5
25484	-0.00013	-0.00029	-0.00013	0.00031	0.00053	0.0001	4e-05	-4e-05	5
25485	-0.00013	-0.00029	-0.00013	0.00031	0.00053	0.0001	4e-05	-4e-05	5
25486	-0.00013	-0.00029	-0.00013	0.00031	0.00053	0.0001	4e-05	-4e-05	5
25489	-0.00013	-0.00029	-0.00013	0.00031	0.00053	0.0001	4e-05	-4e-05	5
25490	-0.00013	-0.00029	-0.00013	0.00031	0.00053	0.0001	4e-05	-4e-05	5
25491	-0.00013	-0.00029	-0.00013	0.00031	0.00053	0.0001	4e-05	-4e-05	5
25492	-0.00013	-0.00029	-0.00013	0.00031	0.00053	0.0001	4e-05	-4e-05	5
25493	-0.00013	-0.00029	-0.00013	0.00031	0.00053	0.0001	4e-05	-4e-05	5
25494	-0.00013	-0.00029	-0.00013	0.00031	0.00053	0.0001	4e-05	-4e-05	5
25495	-0.00013	-0.00029	-0.00013	0.00031	0.00053	0.0001	4e-05	-4e-05	5
25496	-0.00013	-0.00029	-0.00013	0.00031	0.00053	0.0001	4e-05	-4e-05	5
25497	-0.00013	-0.00029	-0.00013	0.00031	0.00053	0.0001	4e-05	-4e-05	5
25498	-0.00013	-0.00029	-0.00013	0.00031	0.00053	0.0001	4e-05	-4e-05	5
25499	-0.00013	-0.00029	-0.00013	0.00031	0.00053	0.0001	4e-05	-4e-05	5
25500	-0.00013	-0.00029	-0.00013	0.00031	0.00053	0.0001	4e-05	-4e-05	5
25501	-0.00013	-0.00029	-0.00013	0.00031	0.00053	0.0001	4e-05	-4e-05	5
25502	-0.00013	-0.00029	-0.00013	0.00031	0.00053	0.0001	4e-05	-4e-05	5
25503	-7e-05	-0.00031	-6e-05	-0.0003	-0.00042	-0.00015	-2e-05	2e-05	5
25504	6e-05	0.00015	0.00016	0.0003	0.00036	0.00038	9e-05	7e-05	5
25505	6e-05	0.00015	0.00016	0.0003	0.00036	0.00038	9e-05	7e-05	5
25506	6e-05	0.00015	0.00016	0.0003	0.00036	0.00038	9e-05	7e-05	5
25507	6e-05	0.00015	0.00016	0.0003	0.00036	0.00038	9e-05	7e-05	5
25508	6e-05	0.00015	0.00016	0.0003	0.00036	0.00038	9e-05	7e-05	5
25509	6e-05	0.00015	0.00016	0.0003	0.00036	0.00038	9e-05	7e-05	5
25510	6e-05	0.00015	0.00016	0.0003	0.00036	0.00038	9e-05	7e-05	5
25511	6e-05	0.00015	0.00016	0.0003	0.00036	0.00038	9e-05	7e-05	5
25512	6e-05	0.00015	0.00016	0.0003	0.00036	0.00038	9e-05	7e-05	5
25513	6e-05	0.00015	0.00016	0.0003	0.00036	0.00038	9e-05	7e-05	5
25514	6e-05	0.00015	0.00016	0.0003	0.00036	0.00038	9e-05	7e-05	5
25515	6e-05	0.00015	0.00016	0.0003	0.00036	0.00038	9e-05	7e-05	5
25516	6e-05	0.00015	0.00016	0.0003	0.00036	0.00038	9e-05	7e-05	5
25517	6e-05	0.00015	0.00016	0.0003	0.00036	0.00038	9e-05	7e-05	5
25518	6e-05	0.00015	0.00016	0.0003	0.00036	0.00038	9e-05	7e-05	5
25519	6e-05	0.00015	0.00016	0.0003	0.00036	0.00038	9e-05	7e-05	5
25520	6e-05	0.00015	0.00016	0.0003	0.00036	0.00038	9e-05	7e-05	5
25521	6e-05	0.00015	0.00016	0.0003	0.00036	0.00038	9e-05	7e-05	5
25522	6e-05	0.00015	0.00016	0.0003	0.00036	0.00038	9e-05	7e-05	5
25523	6e-05	0.00015	0.00016	0.0003	0.00036	0.00038	9e-05	7e-05	5
25524	6e-05	0.00015	0.00016	0.0003	0.00036	0.00038	9e-05	7e-05	5
25525	6e-05	0.00015	0.00016	0.0003	0.00036	0.00038	9e-05	7e-05	5
25526	6e-05	0.00015	0.00016	0.0003	0.00036	0.00038	9e-05	7e-05	5
25527	6e-05	0.00015	0.00016	0.0003	0.00036	0.00038	9e-05	7e-05	5
25528	6e-05	0.00015	0.00016	0.0003	0.00036	0.00038	9e-05	7e-05	5
25529	6e-05	0.00015	0.00016	0.0003	0.00036	0.00038	9e-05	7e-05	5
25530	6e-05	0.00015	0.00016	0.0003	0.00036	0.00038	9e-05	7e-05	5
25531	6e-05	0.00015	0.00016	0.0003	0.00036	0.00038	9e-05	7e-05	5
25532	6e-05	0.00015	0.00016	0.0003	0.00036	0.00038	9e-05	7e-05	5
25533	1e-05	1e-05	-6e-05	-0.00011	8e-05	-0.00017	-6e-05	-3e-05	5
25534	1e-05	1e-05	-6e-05	-0.00011	8e-05	-0.00017	-6e-05	-3e-05	5
25535	1e-05	1e-05	-6e-05	-0.00011	8e-05	-0.00017	-6e-05	-3e-05	5
25536	1e-05	1e-05	-6e-05	-0.00011	8e-05	-0.00017	-6e-05	-3e-05	5
25539	1e-05	1e-05	-6e-05	-0.00011	8e-05	-0.00017	-6e-05	-3e-05	5
25540	1e-05	1e-05	-6e-05	-0.00011	8e-05	-0.00017	-6e-05	-3e-05	5
25541	1e-05	1e-05	-6e-05	-0.00011	8e-05	-0.00017	-6e-05	-3e-05	5
25542	1e-05	1e-05	-6e-05	-0.00011	8e-05	-0.00017	-6e-05	-3e-05	5
25543	1e-05	1e-05	-6e-05	-0.00011	8e-05	-0.00017	-6e-05	-3e-05	5
25544	1e-05	1e-05	-6e-05	-0.00011	8e-05	-0.00017	-6e-05	-3e-05	5
25545	1e-05	1e-05	-6e-05	-0.00011	8e-05	-0.00017	-6e-05	-3e-05	5
25546	1e-05	1e-05	-6e-05	-0.00011	8e-05	-0.00017	-6e-05	-3e-05	5
25547	1e-05	1e-05	-6e-05	-0.00011	8e-05	-0.00017	-6e-05	-3e-05	5
25548	1e-05	1e-05	-6e-05	-0.00011	8e-05	-0.00017	-6e-05	-3e-05	5
25549	1e-05	1e-05	-6e-05	-0.00011	8e-05	-0.00017	-6e-05	-3e-05	5
25550	1e-05	1e-05	-6e-05	-0.00011	8e-05	-0.00017	-6e-05	-3e-05	5
25551	1e-05	1e-05	-6e-05	-0.00011	8e-05	-0.00017	-6e-05	-3e-05	5
25552	1e-05	1e-05	-6e-05	-0.00011	8e-05	-0.00017	-6e-05	-3e-05	5
25553	1e-05	1e-05	-6e-05	-0.00011	8e-05	-0.00017	-6e-05	-3e-05	5
25554	1e-05	1e-05	-6e-05	-0.00011	8e-05	-0.00017	-6e-05	-3e-05	5
25555	1e-05	1e-05	-6e-05	-0.00011	8e-05	-0.00017	-6e-05	-3e-05	5
25556	-5e-05	-0.00015	-0.00028	-0.0001	2e-05	-3e-05	-2e-05	-6e-05	5
25557	7e-05	0.00011	3e-05	-0.0003	-0.00075	0	9e-05	5e-05	5
25558	7e-05	0.00011	3e-05	-0.0003	-0.00075	0	9e-05	5e-05	5
25559	-3e-05	1e-05	-4e-05	0.00016	-3e-05	-0.00023	-0.00012	-7e-05	5
25560	-3e-05	1e-05	-4e-05	0.00016	-3e-05	-0.00023	-0.00012	-7e-05	5
25561	-3e-05	1e-05	-4e-05	0.00016	-3e-05	-0.00023	-0.00012	-7e-05	5
25562	-3e-05	1e-05	-4e-05	0.00016	-3e-05	-0.00023	-0.00012	-7e-05	5
25563	-3e-05	1e-05	-4e-05	0.00016	-3e-05	-0.00023	-0.00012	-7e-05	5
25564	-3e-05	1e-05	-4e-05	0.00016	-3e-05	-0.00023	-0.00012	-7e-05	5
25565	-3e-05	1e-05	-4e-05	0.00016	-3e-05	-0.00023	-0.00012	-7e-05	5
25566	-3e-05	1e-05	-4e-05	0.00016	-3e-05	-0.00023	-0.00012	-7e-05	5
25567	-3e-05	1e-05	-4e-05	0.00016	-3e-05	-0.00023	-0.00012	-7e-05	5
25568	-3e-05	1e-05	-4e-05	0.00016	-3e-05	-0.00023	-0.00012	-7e-05	5
25569	-3e-05	1e-05	-4e-05	0.00016	-3e-05	-0.00023	-0.00012	-7e-05	5
25570	4e-05	0.00012	0.00018	-0.00017	-0.00028	-2e-05	4e-05	5e-05	5
25571	4e-05	0.00012	0.00018	-0.00017	-0.00028	-2e-05	4e-05	5e-05	5
25572	4e-05	0.00012	0.00018	-0.00017	-0.00028	-2e-05	4e-05	5e-05	5
25573	4e-05	0.00012	0.00018	-0.00017	-0.00028	-2e-05	4e-05	5e-05	5
25574	4e-05	0.00012	0.00018	-0.00017	-0.00028	-2e-05	4e-05	5e-05	5
25575	4e-05	0.00012	0.00018	-0.00017	-0.00028	-2e-05	4e-05	5e-05	5
25576	4e-05	0.00012	0.00018	-0.00017	-0.00028	-2e-05	4e-05	5e-05	5
25577	4e-05	0.00012	0.00018	-0.00017	-0.00028	-2e-05	4e-05	5e-05	5
25578	3e-05	0.00018	0.00035	3e-05	-0.00014	-0.00017	-3e-05	-1e-05	5
25579	1e-05	1e-05	-1e-05	0.00017	0.0002	-4e-05	-9e-05	-4e-05	5
25580	1e-05	1e-05	-1e-05	0.00017	0.0002	-4e-05	-9e-05	-4e-05	5
25581	1e-05	1e-05	-1e-05	0.00017	0.0002	-4e-05	-9e-05	-4e-05	5
25582	1e-05	1e-05	-1e-05	0.00017	0.0002	-4e-05	-9e-05	-4e-05	5
25583	1e-05	1e-05	-1e-05	0.00017	0.0002	-4e-05	-9e-05	-4e-05	5
25584	1e-05	1e-05	-1e-05	0.00017	0.0002	-4e-05	-9e-05	-4e-05	5
25585	1e-05	1e-05	-1e-05	0.00017	0.0002	-4e-05	-9e-05	-4e-05	5
25586	1e-05	1e-05	-1e-05	0.00017	0.0002	-4e-05	-9e-05	-4e-05	5
25588	1e-05	1e-05	-1e-05	0.00017	0.0002	-4e-05	-9e-05	-4e-05	5
25589	1e-05	1e-05	-1e-05	0.00017	0.0002	-4e-05	-9e-05	-4e-05	5
25590	1e-05	1e-05	-1e-05	0.00017	0.0002	-4e-05	-9e-05	-4e-05	5
25591	1e-05	1e-05	-1e-05	0.00017	0.0002	-4e-05	-9e-05	-4e-05	5
25592	1e-05	1e-05	-1e-05	0.00017	0.0002	-4e-05	-9e-05	-4e-05	5
25593	1e-05	1e-05	-1e-05	0.00017	0.0002	-4e-05	-9e-05	-4e-05	5
25594	1e-05	1e-05	-1e-05	0.00017	0.0002	-4e-05	-9e-05	-4e-05	5
25595	1e-05	1e-05	-1e-05	0.00017	0.0002	-4e-05	-9e-05	-4e-05	5
25596	1e-05	1e-05	-1e-05	0.00017	0.0002	-4e-05	-9e-05	-4e-05	5
25597	1e-05	1e-05	-1e-05	0.00017	0.0002	-4e-05	-9e-05	-4e-05	5
25598	1e-05	1e-05	-1e-05	0.00017	0.0002	-4e-05	-9e-05	-4e-05	5
25599	1e-05	1e-05	-1e-05	0.00017	0.0002	-4e-05	-9e-05	-4e-05	5
25600	1e-05	1e-05	-1e-05	0.00017	0.0002	-4e-05	-9e-05	-4e-05	5
25601	1e-05	1e-05	-1e-05	0.00017	0.0002	-4e-05	-9e-05	-4e-05	5
25602	1e-05	1e-05	-1e-05	0.00017	0.0002	-4e-05	-9e-05	-4e-05	5
25603	1e-05	1e-05	-1e-05	0.00017	0.0002	-4e-05	-9e-05	-4e-05	5
25604	1e-05	1e-05	-1e-05	0.00017	0.0002	-4e-05	-9e-05	-4e-05	5
25605	1e-05	1e-05	-1e-05	0.00017	0.0002	-4e-05	-9e-05	-4e-05	5
25606	1e-05	1e-05	-1e-05	0.00017	0.0002	-4e-05	-9e-05	-4e-05	5
25607	1e-05	1e-05	-1e-05	0.00017	0.0002	-4e-05	-9e-05	-4e-05	5
25608	0	3e-05	-4e-05	9e-05	0.00023	5e-05	-4e-05	-4e-05	5
25609	-5e-05	-2e-05	7e-05	-2e-05	6e-05	-0.00013	-8e-05	-6e-05	5
25610	-5e-05	-2e-05	7e-05	-2e-05	6e-05	-0.00013	-8e-05	-6e-05	5
25611	-5e-05	-2e-05	7e-05	-2e-05	6e-05	-0.00013	-8e-05	-6e-05	5
25612	-5e-05	-2e-05	7e-05	-2e-05	6e-05	-0.00013	-8e-05	-6e-05	5
25613	-5e-05	-2e-05	7e-05	-2e-05	6e-05	-0.00013	-8e-05	-6e-05	5
25614	-5e-05	-2e-05	7e-05	-2e-05	6e-05	-0.00013	-8e-05	-6e-05	5
25615	-5e-05	-2e-05	7e-05	-2e-05	6e-05	-0.00013	-8e-05	-6e-05	5
25616	-5e-05	-2e-05	7e-05	-2e-05	6e-05	-0.00013	-8e-05	-6e-05	5
25617	-5e-05	-2e-05	7e-05	-2e-05	6e-05	-0.00013	-8e-05	-6e-05	5
25618	-5e-05	-2e-05	7e-05	-2e-05	6e-05	-0.00013	-8e-05	-6e-05	5
25619	-5e-05	-2e-05	7e-05	-2e-05	6e-05	-0.00013	-8e-05	-6e-05	5
25620	-5e-05	-2e-05	7e-05	-2e-05	6e-05	-0.00013	-8e-05	-6e-05	5
25621	-5e-05	-2e-05	7e-05	-2e-05	6e-05	-0.00013	-8e-05	-6e-05	5
25622	-5e-05	-2e-05	7e-05	-2e-05	6e-05	-0.00013	-8e-05	-6e-05	5
25623	-5e-05	-2e-05	7e-05	-2e-05	6e-05	-0.00013	-8e-05	-6e-05	5
25624	-5e-05	-2e-05	7e-05	-2e-05	6e-05	-0.00013	-8e-05	-6e-05	5
25625	-5e-05	-2e-05	7e-05	-2e-05	6e-05	-0.00013	-8e-05	-6e-05	5
25626	-5e-05	-2e-05	7e-05	-2e-05	6e-05	-0.00013	-8e-05	-6e-05	5
25627	-5e-05	-2e-05	7e-05	-2e-05	6e-05	-0.00013	-8e-05	-6e-05	5
25628	-5e-05	-2e-05	7e-05	-2e-05	6e-05	-0.00013	-8e-05	-6e-05	5
25629	-5e-05	-2e-05	7e-05	-2e-05	6e-05	-0.00013	-8e-05	-6e-05	5
25630	-3e-05	-0.0001	-0.00022	-0.00035	-0.00038	-0.00045	-0.00018	-6e-05	5
25631	0	-6e-05	-3e-05	-6e-05	-0.00015	-4e-05	-2e-05	1e-05	5
25632	0	-6e-05	-3e-05	-6e-05	-0.00015	-4e-05	-2e-05	1e-05	5
25633	0	-6e-05	-3e-05	-6e-05	-0.00015	-4e-05	-2e-05	1e-05	5
25634	0	-6e-05	-3e-05	-6e-05	-0.00015	-4e-05	-2e-05	1e-05	5
25635	0	-6e-05	-3e-05	-6e-05	-0.00015	-4e-05	-2e-05	1e-05	5
25636	0	-6e-05	-3e-05	-6e-05	-0.00015	-4e-05	-2e-05	1e-05	5
25638	0	-6e-05	-3e-05	-6e-05	-0.00015	-4e-05	-2e-05	1e-05	5
25639	0	-6e-05	-3e-05	-6e-05	-0.00015	-4e-05	-2e-05	1e-05	5
25640	0	-6e-05	-3e-05	-6e-05	-0.00015	-4e-05	-2e-05	1e-05	5
25641	0	-6e-05	-3e-05	-6e-05	-0.00015	-4e-05	-2e-05	1e-05	5
25642	0	-6e-05	-3e-05	-6e-05	-0.00015	-4e-05	-2e-05	1e-05	5
25643	0	-6e-05	-3e-05	-6e-05	-0.00015	-4e-05	-2e-05	1e-05	5
25644	0	-6e-05	-3e-05	-6e-05	-0.00015	-4e-05	-2e-05	1e-05	5
25645	0	-6e-05	-3e-05	-6e-05	-0.00015	-4e-05	-2e-05	1e-05	5
25646	1e-05	5e-05	-0.00012	-0.00051	-0.00054	-0.00015	0	6e-05	5
25647	1e-05	5e-05	-0.00012	-0.00051	-0.00054	-0.00015	0	6e-05	5
25648	-5e-05	4e-05	1e-05	-7e-05	6e-05	1e-05	-2e-05	-3e-05	5
25649	-5e-05	4e-05	1e-05	-7e-05	6e-05	1e-05	-2e-05	-3e-05	5
25650	-5e-05	4e-05	1e-05	-7e-05	6e-05	1e-05	-2e-05	-3e-05	5
25651	-5e-05	4e-05	1e-05	-7e-05	6e-05	1e-05	-2e-05	-3e-05	5
25652	-5e-05	4e-05	1e-05	-7e-05	6e-05	1e-05	-2e-05	-3e-05	5
25653	-5e-05	4e-05	1e-05	-7e-05	6e-05	1e-05	-2e-05	-3e-05	5
25654	-5e-05	4e-05	1e-05	-7e-05	6e-05	1e-05	-2e-05	-3e-05	5
25655	-5e-05	4e-05	1e-05	-7e-05	6e-05	1e-05	-2e-05	-3e-05	5
25656	-5e-05	4e-05	1e-05	-7e-05	6e-05	1e-05	-2e-05	-3e-05	5
25657	-5e-05	4e-05	1e-05	-7e-05	6e-05	1e-05	-2e-05	-3e-05	5
25658	-5e-05	4e-05	1e-05	-7e-05	6e-05	1e-05	-2e-05	-3e-05	5
25659	-5e-05	4e-05	1e-05	-7e-05	6e-05	1e-05	-2e-05	-3e-05	5
25660	-5e-05	4e-05	1e-05	-7e-05	6e-05	1e-05	-2e-05	-3e-05	5
25661	-5e-05	4e-05	1e-05	-7e-05	6e-05	1e-05	-2e-05	-3e-05	5
25662	-8e-05	-0.0002	-0.00034	-0.00071	-0.00071	-0.00045	-0.00015	-4e-05	5
25663	-8e-05	-0.0002	-0.00034	-0.00071	-0.00071	-0.00045	-0.00015	-4e-05	5
25664	-8e-05	-0.0002	-0.00034	-0.00071	-0.00071	-0.00045	-0.00015	-4e-05	5
25665	-8e-05	-0.0002	-0.00034	-0.00071	-0.00071	-0.00045	-0.00015	-4e-05	5
25666	-8e-05	-0.0002	-0.00034	-0.00071	-0.00071	-0.00045	-0.00015	-4e-05	5
25667	-8e-05	-0.0002	-0.00034	-0.00071	-0.00071	-0.00045	-0.00015	-4e-05	5
25668	-8e-05	-0.0002	-0.00034	-0.00071	-0.00071	-0.00045	-0.00015	-4e-05	5
25669	-8e-05	-0.0002	-0.00034	-0.00071	-0.00071	-0.00045	-0.00015	-4e-05	5
25670	-8e-05	-0.0002	-0.00034	-0.00071	-0.00071	-0.00045	-0.00015	-4e-05	5
25671	-8e-05	-0.0002	-0.00034	-0.00071	-0.00071	-0.00045	-0.00015	-4e-05	5
25672	-8e-05	-0.0002	-0.00034	-0.00071	-0.00071	-0.00045	-0.00015	-4e-05	5
25673	-8e-05	-0.0002	-0.00034	-0.00071	-0.00071	-0.00045	-0.00015	-4e-05	5
25674	-8e-05	-0.0002	-0.00034	-0.00071	-0.00071	-0.00045	-0.00015	-4e-05	5
25675	-8e-05	-0.0002	-0.00034	-0.00071	-0.00071	-0.00045	-0.00015	-4e-05	5
25676	-8e-05	-0.0002	-0.00034	-0.00071	-0.00071	-0.00045	-0.00015	-4e-05	5
25677	-8e-05	-0.0002	-0.00034	-0.00071	-0.00071	-0.00045	-0.00015	-4e-05	5
25678	-8e-05	-0.0002	-0.00034	-0.00071	-0.00071	-0.00045	-0.00015	-4e-05	5
25679	-8e-05	-0.0002	-0.00034	-0.00071	-0.00071	-0.00045	-0.00015	-4e-05	5
25680	-8e-05	-0.0002	-0.00034	-0.00071	-0.00071	-0.00045	-0.00015	-4e-05	5
25681	-8e-05	-0.0002	-0.00034	-0.00071	-0.00071	-0.00045	-0.00015	-4e-05	5
25682	-8e-05	-0.0002	-0.00034	-0.00071	-0.00071	-0.00045	-0.00015	-4e-05	5
25683	2e-05	-1e-05	-2e-05	-1e-05	0.00025	8e-05	3e-05	1e-05	5
25684	8e-05	6e-05	0.00017	0.00034	8e-05	0.00029	0.00011	6e-05	5
25685	8e-05	6e-05	0.00017	0.00034	8e-05	0.00029	0.00011	6e-05	5
25686	8e-05	6e-05	0.00017	0.00034	8e-05	0.00029	0.00011	6e-05	5
25689	8e-05	6e-05	0.00017	0.00034	8e-05	0.00029	0.00011	6e-05	5
25690	8e-05	6e-05	0.00017	0.00034	8e-05	0.00029	0.00011	6e-05	5
25691	8e-05	6e-05	0.00017	0.00034	8e-05	0.00029	0.00011	6e-05	5
25692	8e-05	6e-05	0.00017	0.00034	8e-05	0.00029	0.00011	6e-05	5
25693	8e-05	6e-05	0.00017	0.00034	8e-05	0.00029	0.00011	6e-05	5
25694	8e-05	6e-05	0.00017	0.00034	8e-05	0.00029	0.00011	6e-05	5
25695	8e-05	6e-05	0.00017	0.00034	8e-05	0.00029	0.00011	6e-05	5
25696	8e-05	6e-05	0.00017	0.00034	8e-05	0.00029	0.00011	6e-05	5
25697	8e-05	6e-05	0.00017	0.00034	8e-05	0.00029	0.00011	6e-05	5
25698	8e-05	6e-05	0.00017	0.00034	8e-05	0.00029	0.00011	6e-05	5
25699	8e-05	6e-05	0.00017	0.00034	8e-05	0.00029	0.00011	6e-05	5
25700	8e-05	6e-05	0.00017	0.00034	8e-05	0.00029	0.00011	6e-05	5
25701	8e-05	6e-05	0.00017	0.00034	8e-05	0.00029	0.00011	6e-05	5
25702	8e-05	6e-05	0.00017	0.00034	8e-05	0.00029	0.00011	6e-05	5
25703	8e-05	6e-05	0.00017	0.00034	8e-05	0.00029	0.00011	6e-05	5
25704	8e-05	6e-05	0.00017	0.00034	8e-05	0.00029	0.00011	6e-05	5
25705	8e-05	6e-05	0.00017	0.00034	8e-05	0.00029	0.00011	6e-05	5
25706	2e-05	7e-05	0.00029	0.00048	0.00047	0.00014	5e-05	2e-05	5
25707	2e-05	7e-05	0.00029	0.00048	0.00047	0.00014	5e-05	2e-05	5
25708	2e-05	7e-05	0.00029	0.00048	0.00047	0.00014	5e-05	2e-05	5
25709	2e-05	7e-05	0.00029	0.00048	0.00047	0.00014	5e-05	2e-05	5
25710	2e-05	7e-05	0.00029	0.00048	0.00047	0.00014	5e-05	2e-05	5
25711	2e-05	7e-05	0.00029	0.00048	0.00047	0.00014	5e-05	2e-05	5
25712	2e-05	7e-05	0.00029	0.00048	0.00047	0.00014	5e-05	2e-05	5
25713	2e-05	7e-05	0.00029	0.00048	0.00047	0.00014	5e-05	2e-05	5
25714	2e-05	7e-05	0.00029	0.00048	0.00047	0.00014	5e-05	2e-05	5
25715	2e-05	7e-05	0.00029	0.00048	0.00047	0.00014	5e-05	2e-05	5
25716	2e-05	7e-05	0.00029	0.00048	0.00047	0.00014	5e-05	2e-05	5
25717	2e-05	7e-05	0.00029	0.00048	0.00047	0.00014	5e-05	2e-05	5
25718	2e-05	7e-05	0.00029	0.00048	0.00047	0.00014	5e-05	2e-05	5
25719	2e-05	7e-05	0.00029	0.00048	0.00047	0.00014	5e-05	2e-05	5
25720	-0.0001	-0.00015	-6e-05	-1e-05	-6e-05	-0.00024	-0.00016	-0.00012	5
25721	1e-05	5e-05	1e-05	5e-05	0.00027	-7e-05	4e-05	-1e-05	5
25722	1e-05	5e-05	1e-05	5e-05	0.00027	-7e-05	4e-05	-1e-05	5
25723	1e-05	5e-05	1e-05	5e-05	0.00027	-7e-05	4e-05	-1e-05	5
25724	1e-05	5e-05	1e-05	5e-05	0.00027	-7e-05	4e-05	-1e-05	5
25725	1e-05	5e-05	1e-05	5e-05	0.00027	-7e-05	4e-05	-1e-05	5
25726	1e-05	5e-05	1e-05	5e-05	0.00027	-7e-05	4e-05	-1e-05	5
25727	1e-05	5e-05	1e-05	5e-05	0.00027	-7e-05	4e-05	-1e-05	5
25728	1e-05	5e-05	1e-05	5e-05	0.00027	-7e-05	4e-05	-1e-05	5
25729	1e-05	5e-05	1e-05	5e-05	0.00027	-7e-05	4e-05	-1e-05	5
25730	1e-05	5e-05	1e-05	5e-05	0.00027	-7e-05	4e-05	-1e-05	5
25731	1e-05	5e-05	1e-05	5e-05	0.00027	-7e-05	4e-05	-1e-05	5
25732	1e-05	5e-05	1e-05	5e-05	0.00027	-7e-05	4e-05	-1e-05	5
25733	1e-05	5e-05	1e-05	5e-05	0.00027	-7e-05	4e-05	-1e-05	5
25734	-8e-05	-0.00016	-0.00027	-0.00033	-0.0002	-0.00011	-7e-05	-6e-05	5
25735	-5e-05	-0.00014	-0.00011	0.00015	0.00048	0.00044	9e-05	-4e-05	5
25736	-5e-05	-0.00014	-0.00011	0.00015	0.00048	0.00044	9e-05	-4e-05	5
25738	-5e-05	-0.00014	-0.00011	0.00015	0.00048	0.00044	9e-05	-4e-05	5
25739	-5e-05	-0.00014	-0.00011	0.00015	0.00048	0.00044	9e-05	-4e-05	5
25740	-5e-05	-0.00014	-0.00011	0.00015	0.00048	0.00044	9e-05	-4e-05	5
25741	-5e-05	-0.00014	-0.00011	0.00015	0.00048	0.00044	9e-05	-4e-05	5
25742	-5e-05	-0.00014	-0.00011	0.00015	0.00048	0.00044	9e-05	-4e-05	5
25743	-5e-05	-0.00014	-0.00011	0.00015	0.00048	0.00044	9e-05	-4e-05	5
25744	-5e-05	-0.00014	-0.00011	0.00015	0.00048	0.00044	9e-05	-4e-05	5
25745	-5e-05	-0.00014	-0.00011	0.00015	0.00048	0.00044	9e-05	-4e-05	5
25746	-5e-05	-0.00014	-0.00011	0.00015	0.00048	0.00044	9e-05	-4e-05	5
25747	-5e-05	-0.00014	-0.00011	0.00015	0.00048	0.00044	9e-05	-4e-05	5
25748	-5e-05	-0.00014	-0.00011	0.00015	0.00048	0.00044	9e-05	-4e-05	5
25749	-5e-05	-0.00014	-0.00011	0.00015	0.00048	0.00044	9e-05	-4e-05	5
25750	-5e-05	-0.00014	-0.00011	0.00015	0.00048	0.00044	9e-05	-4e-05	5
25751	-5e-05	-0.00014	-0.00011	0.00015	0.00048	0.00044	9e-05	-4e-05	5
25752	-5e-05	-0.00014	-0.00011	0.00015	0.00048	0.00044	9e-05	-4e-05	5
25753	-5e-05	-0.00014	-0.00011	0.00015	0.00048	0.00044	9e-05	-4e-05	5
25754	-5e-05	-0.00014	-0.00011	0.00015	0.00048	0.00044	9e-05	-4e-05	5
25755	-5e-05	-0.00014	-0.00011	0.00015	0.00048	0.00044	9e-05	-4e-05	5
25756	-5e-05	-0.00014	-0.00011	0.00015	0.00048	0.00044	9e-05	-4e-05	5
25757	-9e-05	-1e-05	-4e-05	-0.00021	-0.00016	-0.00011	-0.00015	-0.0001	5
25758	-2e-05	0.00014	-4e-05	-7e-05	-8e-05	-0.00012	-6e-05	-4e-05	5
25759	-2e-05	0.00014	-4e-05	-7e-05	-8e-05	-0.00012	-6e-05	-4e-05	5
25760	-2e-05	0.00014	-4e-05	-7e-05	-8e-05	-0.00012	-6e-05	-4e-05	5
25761	-2e-05	0.00014	-4e-05	-7e-05	-8e-05	-0.00012	-6e-05	-4e-05	5
25762	-2e-05	0.00014	-4e-05	-7e-05	-8e-05	-0.00012	-6e-05	-4e-05	5
25763	-2e-05	0.00014	-4e-05	-7e-05	-8e-05	-0.00012	-6e-05	-4e-05	5
25764	-2e-05	0.00014	-4e-05	-7e-05	-8e-05	-0.00012	-6e-05	-4e-05	5
25765	-2e-05	0.00014	-4e-05	-7e-05	-8e-05	-0.00012	-6e-05	-4e-05	5
25766	-2e-05	0.00014	-4e-05	-7e-05	-8e-05	-0.00012	-6e-05	-4e-05	5
25767	-2e-05	0.00014	-4e-05	-7e-05	-8e-05	-0.00012	-6e-05	-4e-05	5
25768	-2e-05	0.00014	-4e-05	-7e-05	-8e-05	-0.00012	-6e-05	-4e-05	5
25769	-2e-05	0.00014	-4e-05	-7e-05	-8e-05	-0.00012	-6e-05	-4e-05	5
25770	-2e-05	0.00014	-4e-05	-7e-05	-8e-05	-0.00012	-6e-05	-4e-05	5
25771	-2e-05	0.00014	-4e-05	-7e-05	-8e-05	-0.00012	-6e-05	-4e-05	5
25772	-2e-05	0.00014	-4e-05	-7e-05	-8e-05	-0.00012	-6e-05	-4e-05	5
25773	-2e-05	0.00014	-4e-05	-7e-05	-8e-05	-0.00012	-6e-05	-4e-05	5
25774	-2e-05	0.00014	-4e-05	-7e-05	-8e-05	-0.00012	-6e-05	-4e-05	5
25775	-2e-05	0.00014	-4e-05	-7e-05	-8e-05	-0.00012	-6e-05	-4e-05	5
25776	-2e-05	0.00014	-4e-05	-7e-05	-8e-05	-0.00012	-6e-05	-4e-05	5
25777	-2e-05	0.00014	-4e-05	-7e-05	-8e-05	-0.00012	-6e-05	-4e-05	5
25778	-2e-05	0.00014	-4e-05	-7e-05	-8e-05	-0.00012	-6e-05	-4e-05	5
25779	-2e-05	0.00014	-4e-05	-7e-05	-8e-05	-0.00012	-6e-05	-4e-05	5
25780	1e-05	6e-05	0	0.00011	0.00019	0.0002	6e-05	1e-05	5
25781	-2e-05	4e-05	6e-05	7e-05	0.0002	-2e-05	-9e-05	-6e-05	5
25782	3e-05	0.00025	0.00012	-2e-05	-4e-05	-6e-05	1e-05	2e-05	5
25783	3e-05	0.00025	0.00012	-2e-05	-4e-05	-6e-05	1e-05	2e-05	5
25784	3e-05	0.00025	0.00012	-2e-05	-4e-05	-6e-05	1e-05	2e-05	5
25785	3e-05	0.00025	0.00012	-2e-05	-4e-05	-6e-05	1e-05	2e-05	5
25786	3e-05	0.00025	0.00012	-2e-05	-4e-05	-6e-05	1e-05	2e-05	5
25788	3e-05	0.00025	0.00012	-2e-05	-4e-05	-6e-05	1e-05	2e-05	5
25789	3e-05	0.00025	0.00012	-2e-05	-4e-05	-6e-05	1e-05	2e-05	5
25790	3e-05	0.00025	0.00012	-2e-05	-4e-05	-6e-05	1e-05	2e-05	5
25791	3e-05	0.00025	0.00012	-2e-05	-4e-05	-6e-05	1e-05	2e-05	5
25792	3e-05	0.00025	0.00012	-2e-05	-4e-05	-6e-05	1e-05	2e-05	5
25793	3e-05	0.00025	0.00012	-2e-05	-4e-05	-6e-05	1e-05	2e-05	5
25794	0	-0.00027	-0.00026	-0.00033	-0.00044	-0.00016	-3e-05	2e-05	5
25795	-4e-05	-0.00015	-0.0002	-0.00028	-0.00034	-0.00016	-7e-05	-9e-05	5
25796	-4e-05	-0.00015	-0.0002	-0.00028	-0.00034	-0.00016	-7e-05	-9e-05	5
25797	-4e-05	-0.00015	-0.0002	-0.00028	-0.00034	-0.00016	-7e-05	-9e-05	5
25798	-4e-05	-0.00015	-0.0002	-0.00028	-0.00034	-0.00016	-7e-05	-9e-05	5
25799	-4e-05	-0.00015	-0.0002	-0.00028	-0.00034	-0.00016	-7e-05	-9e-05	5
25800	-4e-05	-0.00015	-0.0002	-0.00028	-0.00034	-0.00016	-7e-05	-9e-05	5
25801	-4e-05	-0.00015	-0.0002	-0.00028	-0.00034	-0.00016	-7e-05	-9e-05	5
25802	-4e-05	-0.00015	-0.0002	-0.00028	-0.00034	-0.00016	-7e-05	-9e-05	5
25803	-4e-05	-0.00015	-0.0002	-0.00028	-0.00034	-0.00016	-7e-05	-9e-05	5
25804	-4e-05	-0.00015	-0.0002	-0.00028	-0.00034	-0.00016	-7e-05	-9e-05	5
25805	-4e-05	-0.00015	-0.0002	-0.00028	-0.00034	-0.00016	-7e-05	-9e-05	5
25806	-4e-05	-0.00015	-0.0002	-0.00028	-0.00034	-0.00016	-7e-05	-9e-05	5
25807	-4e-05	-0.00015	-0.0002	-0.00028	-0.00034	-0.00016	-7e-05	-9e-05	5
25808	-4e-05	-0.00015	-0.0002	-0.00028	-0.00034	-0.00016	-7e-05	-9e-05	5
25809	-4e-05	-0.00015	-0.0002	-0.00028	-0.00034	-0.00016	-7e-05	-9e-05	5
25810	-4e-05	-0.00015	-0.0002	-0.00028	-0.00034	-0.00016	-7e-05	-9e-05	5
25811	-4e-05	-0.00015	-0.0002	-0.00028	-0.00034	-0.00016	-7e-05	-9e-05	5
25812	-4e-05	-0.00015	-0.0002	-0.00028	-0.00034	-0.00016	-7e-05	-9e-05	5
25813	-4e-05	-0.00015	-0.0002	-0.00028	-0.00034	-0.00016	-7e-05	-9e-05	5
25814	-4e-05	-0.00015	-0.0002	-0.00028	-0.00034	-0.00016	-7e-05	-9e-05	5
25815	-4e-05	-0.00015	-0.0002	-0.00028	-0.00034	-0.00016	-7e-05	-9e-05	5
25816	-4e-05	-0.00015	-0.0002	-0.00028	-0.00034	-0.00016	-7e-05	-9e-05	5
25817	2e-05	-6e-05	3e-05	-0.00027	-0.00046	-0.00017	0	3e-05	5
25818	-1e-05	-3e-05	0	7e-05	3e-05	0.00016	2e-05	0	5
25819	-1e-05	-3e-05	0	7e-05	3e-05	0.00016	2e-05	0	5
25820	-1e-05	-3e-05	0	7e-05	3e-05	0.00016	2e-05	0	5
25821	-1e-05	-3e-05	0	7e-05	3e-05	0.00016	2e-05	0	5
25822	-1e-05	-3e-05	0	7e-05	3e-05	0.00016	2e-05	0	5
25823	-1e-05	-3e-05	0	7e-05	3e-05	0.00016	2e-05	0	5
25824	-1e-05	-3e-05	0	7e-05	3e-05	0.00016	2e-05	0	5
25825	-1e-05	-3e-05	0	7e-05	3e-05	0.00016	2e-05	0	5
25826	-1e-05	-3e-05	0	7e-05	3e-05	0.00016	2e-05	0	5
25827	-1e-05	-3e-05	0	7e-05	3e-05	0.00016	2e-05	0	5
25828	-1e-05	-3e-05	0	7e-05	3e-05	0.00016	2e-05	0	5
25829	-1e-05	-3e-05	0	7e-05	3e-05	0.00016	2e-05	0	5
25830	-1e-05	-3e-05	0	7e-05	3e-05	0.00016	2e-05	0	5
25831	-1e-05	-3e-05	0	7e-05	3e-05	0.00016	2e-05	0	5
25832	-1e-05	-3e-05	0	7e-05	3e-05	0.00016	2e-05	0	5
25833	-1e-05	-3e-05	0	7e-05	3e-05	0.00016	2e-05	0	5
25834	-1e-05	-3e-05	0	7e-05	3e-05	0.00016	2e-05	0	5
25835	-1e-05	-3e-05	0	7e-05	3e-05	0.00016	2e-05	0	5
25836	-1e-05	-3e-05	0	7e-05	3e-05	0.00016	2e-05	0	5
25838	-1e-05	-3e-05	0	7e-05	3e-05	0.00016	2e-05	0	5
25839	-1e-05	-3e-05	0	7e-05	3e-05	0.00016	2e-05	0	5
25840	-1e-05	-3e-05	0	7e-05	3e-05	0.00016	2e-05	0	5
25841	-4e-05	-3e-05	-0.00016	-0.00011	-5e-05	-0.00021	5e-05	-4e-05	5
25842	3e-05	4e-05	8e-05	-0.00012	-0.00014	-0.00022	-7e-05	1e-05	5
25843	3e-05	4e-05	8e-05	-0.00012	-0.00014	-0.00022	-7e-05	1e-05	5
25844	3e-05	4e-05	8e-05	-0.00012	-0.00014	-0.00022	-7e-05	1e-05	5
25845	3e-05	4e-05	8e-05	-0.00012	-0.00014	-0.00022	-7e-05	1e-05	5
25846	3e-05	4e-05	8e-05	-0.00012	-0.00014	-0.00022	-7e-05	1e-05	5
25847	3e-05	4e-05	8e-05	-0.00012	-0.00014	-0.00022	-7e-05	1e-05	5
25848	3e-05	4e-05	8e-05	-0.00012	-0.00014	-0.00022	-7e-05	1e-05	5
25849	3e-05	4e-05	8e-05	-0.00012	-0.00014	-0.00022	-7e-05	1e-05	5
25850	3e-05	4e-05	8e-05	-0.00012	-0.00014	-0.00022	-7e-05	1e-05	5
25851	3e-05	4e-05	8e-05	-0.00012	-0.00014	-0.00022	-7e-05	1e-05	5
25852	3e-05	4e-05	8e-05	-0.00012	-0.00014	-0.00022	-7e-05	1e-05	5
25853	3e-05	4e-05	8e-05	-0.00012	-0.00014	-0.00022	-7e-05	1e-05	5
25854	-1e-05	-6e-05	-0.00013	-5e-05	0.00019	9e-05	-2e-05	-2e-05	5
25855	1e-05	0.00017	0.0002	-0.00013	-0.00024	-3e-05	7e-05	2e-05	5
25856	1e-05	0.00017	0.0002	-0.00013	-0.00024	-3e-05	7e-05	2e-05	5
25857	1e-05	0.00017	0.0002	-0.00013	-0.00024	-3e-05	7e-05	2e-05	5
25858	1e-05	0.00017	0.0002	-0.00013	-0.00024	-3e-05	7e-05	2e-05	5
25859	1e-05	0.00017	0.0002	-0.00013	-0.00024	-3e-05	7e-05	2e-05	5
25860	1e-05	0.00017	0.0002	-0.00013	-0.00024	-3e-05	7e-05	2e-05	5
25861	1e-05	0.00017	0.0002	-0.00013	-0.00024	-3e-05	7e-05	2e-05	5
25862	1e-05	0.00017	0.0002	-0.00013	-0.00024	-3e-05	7e-05	2e-05	5
25863	1e-05	0.00017	0.0002	-0.00013	-0.00024	-3e-05	7e-05	2e-05	5
25864	1e-05	0.00017	0.0002	-0.00013	-0.00024	-3e-05	7e-05	2e-05	5
25865	1e-05	0.00017	0.0002	-0.00013	-0.00024	-3e-05	7e-05	2e-05	5
25866	1e-05	0.00017	0.0002	-0.00013	-0.00024	-3e-05	7e-05	2e-05	5
25867	1e-05	0.00017	0.0002	-0.00013	-0.00024	-3e-05	7e-05	2e-05	5
25868	1e-05	0.00017	0.0002	-0.00013	-0.00024	-3e-05	7e-05	2e-05	5
25869	1e-05	0.00017	0.0002	-0.00013	-0.00024	-3e-05	7e-05	2e-05	5
25870	1e-05	0.00017	0.0002	-0.00013	-0.00024	-3e-05	7e-05	2e-05	5
25871	1e-05	0.00017	0.0002	-0.00013	-0.00024	-3e-05	7e-05	2e-05	5
25872	1e-05	0.00017	0.0002	-0.00013	-0.00024	-3e-05	7e-05	2e-05	5
25873	1e-05	0.00017	0.0002	-0.00013	-0.00024	-3e-05	7e-05	2e-05	5
25874	1e-05	0.00017	0.0002	-0.00013	-0.00024	-3e-05	7e-05	2e-05	5
25875	1e-05	0.00017	0.0002	-0.00013	-0.00024	-3e-05	7e-05	2e-05	5
25876	1e-05	0.00017	0.0002	-0.00013	-0.00024	-3e-05	7e-05	2e-05	5
25877	1e-05	0.00017	0.0002	-0.00013	-0.00024	-3e-05	7e-05	2e-05	5
25878	1e-05	0.00017	0.0002	-0.00013	-0.00024	-3e-05	7e-05	2e-05	5
25879	1e-05	0.00017	0.0002	-0.00013	-0.00024	-3e-05	7e-05	2e-05	5
25880	1e-05	0.00017	0.0002	-0.00013	-0.00024	-3e-05	7e-05	2e-05	5
25881	1e-05	0.00017	0.0002	-0.00013	-0.00024	-3e-05	7e-05	2e-05	5
25882	1e-05	0.00017	0.0002	-0.00013	-0.00024	-3e-05	7e-05	2e-05	5
25883	1e-05	0.00017	0.0002	-0.00013	-0.00024	-3e-05	7e-05	2e-05	5
25884	1e-05	0.00017	0.0002	-0.00013	-0.00024	-3e-05	7e-05	2e-05	5
25885	-5e-05	-0.0001	1e-05	0.00045	0.00046	0.00013	0.0001	6e-05	5
25887	1e-05	1e-05	5e-05	-0.0002	-0.00042	-0.00016	-4e-05	2e-05	5
25890	1e-05	1e-05	5e-05	-0.0002	-0.00042	-0.00016	-4e-05	2e-05	5
25891	1e-05	1e-05	5e-05	-0.0002	-0.00042	-0.00016	-4e-05	2e-05	5
25892	1e-05	1e-05	5e-05	-0.0002	-0.00042	-0.00016	-4e-05	2e-05	5
25893	1e-05	1e-05	5e-05	-0.0002	-0.00042	-0.00016	-4e-05	2e-05	5
25894	1e-05	1e-05	5e-05	-0.0002	-0.00042	-0.00016	-4e-05	2e-05	5
25895	1e-05	1e-05	5e-05	-0.0002	-0.00042	-0.00016	-4e-05	2e-05	5
25896	1e-05	1e-05	5e-05	-0.0002	-0.00042	-0.00016	-4e-05	2e-05	5
25897	1e-05	1e-05	5e-05	-0.0002	-0.00042	-0.00016	-4e-05	2e-05	5
25898	1e-05	1e-05	5e-05	-0.0002	-0.00042	-0.00016	-4e-05	2e-05	5
25899	1e-05	1e-05	5e-05	-0.0002	-0.00042	-0.00016	-4e-05	2e-05	5
25900	1e-05	1e-05	5e-05	-0.0002	-0.00042	-0.00016	-4e-05	2e-05	5
25901	1e-05	1e-05	5e-05	-0.0002	-0.00042	-0.00016	-4e-05	2e-05	5
25902	1e-05	1e-05	5e-05	-0.0002	-0.00042	-0.00016	-4e-05	2e-05	5
25903	1e-05	1e-05	5e-05	-0.0002	-0.00042	-0.00016	-4e-05	2e-05	5
25904	1e-05	1e-05	5e-05	-0.0002	-0.00042	-0.00016	-4e-05	2e-05	5
25905	1e-05	1e-05	5e-05	-0.0002	-0.00042	-0.00016	-4e-05	2e-05	5
25906	1e-05	1e-05	5e-05	-0.0002	-0.00042	-0.00016	-4e-05	2e-05	5
25907	1e-05	1e-05	5e-05	-0.0002	-0.00042	-0.00016	-4e-05	2e-05	5
25908	-6e-05	-9e-05	-0.00017	0.00013	-2e-05	5e-05	-1e-05	-5e-05	5
25909	-5e-05	-0.0001	-7e-05	0.00018	0.0003	5e-05	-1e-05	-6e-05	5
25910	-5e-05	-0.0001	-7e-05	0.00018	0.0003	5e-05	-1e-05	-6e-05	5
25911	-5e-05	-0.0001	-7e-05	0.00018	0.0003	5e-05	-1e-05	-6e-05	5
25912	-5e-05	-0.0001	-7e-05	0.00018	0.0003	5e-05	-1e-05	-6e-05	5
25913	-5e-05	-0.0001	-7e-05	0.00018	0.0003	5e-05	-1e-05	-6e-05	5
25914	-5e-05	-0.0001	-7e-05	0.00018	0.0003	5e-05	-1e-05	-6e-05	5
25915	4e-05	4e-05	4e-05	1e-05	-0.00022	-0.00014	-9e-05	1e-05	5
25916	-5e-05	-0.00016	-0.00014	-0.0002	-0.00027	-0.00011	-7e-05	-5e-05	5
25917	-5e-05	-0.00016	-0.00014	-0.0002	-0.00027	-0.00011	-7e-05	-5e-05	5
25918	-5e-05	-0.00016	-0.00014	-0.0002	-0.00027	-0.00011	-7e-05	-5e-05	5
25919	-5e-05	-0.00016	-0.00014	-0.0002	-0.00027	-0.00011	-7e-05	-5e-05	5
25920	-5e-05	-0.00016	-0.00014	-0.0002	-0.00027	-0.00011	-7e-05	-5e-05	5
25921	-5e-05	-0.00016	-0.00014	-0.0002	-0.00027	-0.00011	-7e-05	-5e-05	5
25922	-5e-05	-0.00016	-0.00014	-0.0002	-0.00027	-0.00011	-7e-05	-5e-05	5
25923	-5e-05	-0.00016	-0.00014	-0.0002	-0.00027	-0.00011	-7e-05	-5e-05	5
25924	-5e-05	-0.00016	-0.00014	-0.0002	-0.00027	-0.00011	-7e-05	-5e-05	5
25925	-5e-05	-0.00016	-0.00014	-0.0002	-0.00027	-0.00011	-7e-05	-5e-05	5
25926	-5e-05	-0.00016	-0.00014	-0.0002	-0.00027	-0.00011	-7e-05	-5e-05	5
25927	-5e-05	-0.00016	-0.00014	-0.0002	-0.00027	-0.00011	-7e-05	-5e-05	5
25928	-5e-05	-0.00016	-0.00014	-0.0002	-0.00027	-0.00011	-7e-05	-5e-05	5
25929	-5e-05	-0.00016	-0.00014	-0.0002	-0.00027	-0.00011	-7e-05	-5e-05	5
25930	-5e-05	-0.00016	-0.00014	-0.0002	-0.00027	-0.00011	-7e-05	-5e-05	5
25931	-5e-05	-0.00016	-0.00014	-0.0002	-0.00027	-0.00011	-7e-05	-5e-05	5
25932	-5e-05	-0.00016	-0.00014	-0.0002	-0.00027	-0.00011	-7e-05	-5e-05	5
25933	-5e-05	-0.00016	-0.00014	-0.0002	-0.00027	-0.00011	-7e-05	-5e-05	5
25934	-5e-05	-0.00016	-0.00014	-0.0002	-0.00027	-0.00011	-7e-05	-5e-05	5
25935	-5e-05	-0.00016	-0.00014	-0.0002	-0.00027	-0.00011	-7e-05	-5e-05	5
25936	-5e-05	-0.00016	-0.00014	-0.0002	-0.00027	-0.00011	-7e-05	-5e-05	5
25939	5e-05	0	1e-05	0.0003	0.00028	0.00021	2e-05	6e-05	5
25940	5e-05	0	1e-05	0.0003	0.00028	0.00021	2e-05	6e-05	5
25941	5e-05	0	1e-05	0.0003	0.00028	0.00021	2e-05	6e-05	5
25942	5e-05	0	1e-05	0.0003	0.00028	0.00021	2e-05	6e-05	5
25943	5e-05	0	1e-05	0.0003	0.00028	0.00021	2e-05	6e-05	5
25944	5e-05	0	1e-05	0.0003	0.00028	0.00021	2e-05	6e-05	5
25945	5e-05	0	1e-05	0.0003	0.00028	0.00021	2e-05	6e-05	5
25946	5e-05	0	1e-05	0.0003	0.00028	0.00021	2e-05	6e-05	5
25947	5e-05	0	1e-05	0.0003	0.00028	0.00021	2e-05	6e-05	5
25948	5e-05	0	1e-05	0.0003	0.00028	0.00021	2e-05	6e-05	5
25949	5e-05	0	1e-05	0.0003	0.00028	0.00021	2e-05	6e-05	5
25950	5e-05	0	1e-05	0.0003	0.00028	0.00021	2e-05	6e-05	5
25951	5e-05	0	1e-05	0.0003	0.00028	0.00021	2e-05	6e-05	5
25952	5e-05	0	1e-05	0.0003	0.00028	0.00021	2e-05	6e-05	5
25953	5e-05	0	1e-05	0.0003	0.00028	0.00021	2e-05	6e-05	5
25954	5e-05	0	1e-05	0.0003	0.00028	0.00021	2e-05	6e-05	5
25955	5e-05	0	1e-05	0.0003	0.00028	0.00021	2e-05	6e-05	5
25956	5e-05	0	1e-05	0.0003	0.00028	0.00021	2e-05	6e-05	5
25957	5e-05	0	1e-05	0.0003	0.00028	0.00021	2e-05	6e-05	5
25958	5e-05	0	1e-05	0.0003	0.00028	0.00021	2e-05	6e-05	5
25959	5e-05	0	1e-05	0.0003	0.00028	0.00021	2e-05	6e-05	5
25960	5e-05	0	1e-05	0.0003	0.00028	0.00021	2e-05	6e-05	5
25961	-2e-05	-7e-05	-0.00012	-9e-05	4e-05	0.0001	6e-05	1e-05	5
25962	-2e-05	-7e-05	-0.00012	-9e-05	4e-05	0.0001	6e-05	1e-05	5
25963	-2e-05	-7e-05	-0.00012	-9e-05	4e-05	0.0001	6e-05	1e-05	5
25964	-2e-05	-7e-05	-0.00012	-9e-05	4e-05	0.0001	6e-05	1e-05	5
25965	-2e-05	-7e-05	-0.00012	-9e-05	4e-05	0.0001	6e-05	1e-05	5
25966	-2e-05	-7e-05	-0.00012	-9e-05	4e-05	0.0001	6e-05	1e-05	5
25967	-2e-05	-7e-05	-0.00012	-9e-05	4e-05	0.0001	6e-05	1e-05	5
25968	-2e-05	-7e-05	-0.00012	-9e-05	4e-05	0.0001	6e-05	1e-05	5
25969	-2e-05	-7e-05	-0.00012	-9e-05	4e-05	0.0001	6e-05	1e-05	5
25970	-2e-05	-7e-05	-0.00012	-9e-05	4e-05	0.0001	6e-05	1e-05	5
25971	-2e-05	-7e-05	-0.00012	-9e-05	4e-05	0.0001	6e-05	1e-05	5
25972	-2e-05	-7e-05	-0.00012	-9e-05	4e-05	0.0001	6e-05	1e-05	5
25973	-2e-05	-7e-05	-0.00012	-9e-05	4e-05	0.0001	6e-05	1e-05	5
25974	-2e-05	-7e-05	-0.00012	-9e-05	4e-05	0.0001	6e-05	1e-05	5
25975	-2e-05	-7e-05	-0.00012	-9e-05	4e-05	0.0001	6e-05	1e-05	5
25976	-2e-05	-7e-05	-0.00012	-9e-05	4e-05	0.0001	6e-05	1e-05	5
25977	-2e-05	-7e-05	-0.00012	-9e-05	4e-05	0.0001	6e-05	1e-05	5
25978	-2e-05	-7e-05	-0.00012	-9e-05	4e-05	0.0001	6e-05	1e-05	5
25979	-2e-05	-7e-05	-0.00012	-9e-05	4e-05	0.0001	6e-05	1e-05	5
25980	-2e-05	-7e-05	-0.00012	-9e-05	4e-05	0.0001	6e-05	1e-05	5
25981	-2e-05	-7e-05	-0.00012	-9e-05	4e-05	0.0001	6e-05	1e-05	5
25982	-2e-05	-7e-05	-0.00012	-9e-05	4e-05	0.0001	6e-05	1e-05	5
25983	3e-05	0.0002	7e-05	0.00017	2e-05	0.0001	0.00012	4e-05	5
25984	3e-05	0.0002	7e-05	0.00017	2e-05	0.0001	0.00012	4e-05	5
25985	2e-05	0.00012	0.00016	0.00015	0.00013	6e-05	5e-05	4e-05	5
25986	2e-05	0.00012	0.00016	0.00015	0.00013	6e-05	5e-05	4e-05	5
25989	2e-05	0.00012	0.00016	0.00015	0.00013	6e-05	5e-05	4e-05	5
25990	2e-05	0.00012	0.00016	0.00015	0.00013	6e-05	5e-05	4e-05	5
25991	2e-05	0.00012	0.00016	0.00015	0.00013	6e-05	5e-05	4e-05	5
25992	2e-05	0.00012	0.00016	0.00015	0.00013	6e-05	5e-05	4e-05	5
25993	2e-05	0.00012	0.00016	0.00015	0.00013	6e-05	5e-05	4e-05	5
25994	2e-05	0.00012	0.00016	0.00015	0.00013	6e-05	5e-05	4e-05	5
25995	2e-05	0.00012	0.00016	0.00015	0.00013	6e-05	5e-05	4e-05	5
25996	2e-05	0.00012	0.00016	0.00015	0.00013	6e-05	5e-05	4e-05	5
25997	2e-05	0.00012	0.00016	0.00015	0.00013	6e-05	5e-05	4e-05	5
25998	2e-05	0.00012	0.00016	0.00015	0.00013	6e-05	5e-05	4e-05	5
25999	2e-05	0.00012	0.00016	0.00015	0.00013	6e-05	5e-05	4e-05	5
26000	2e-05	0.00012	0.00016	0.00015	0.00013	6e-05	5e-05	4e-05	5
26001	2e-05	0.00012	0.00016	0.00015	0.00013	6e-05	5e-05	4e-05	5
26002	2e-05	0.00012	0.00016	0.00015	0.00013	6e-05	5e-05	4e-05	5
26003	2e-05	0.00012	0.00016	0.00015	0.00013	6e-05	5e-05	4e-05	5
26004	2e-05	0.00012	0.00016	0.00015	0.00013	6e-05	5e-05	4e-05	5
26005	-5e-05	-7e-05	-3e-05	-0.00021	-4e-05	-0.00041	-0.00025	-0.00011	5
26006	0	-4e-05	-0.00011	-0.00017	-0.00037	0.00011	0.0001	5e-05	5
26007	0	-4e-05	-0.00011	-0.00017	-0.00037	0.00011	0.0001	5e-05	5
26008	0	-4e-05	-0.00011	-0.00017	-0.00037	0.00011	0.0001	5e-05	5
26009	0	-4e-05	-0.00011	-0.00017	-0.00037	0.00011	0.0001	5e-05	5
26010	0	-4e-05	-0.00011	-0.00017	-0.00037	0.00011	0.0001	5e-05	5
26011	0	-4e-05	-0.00011	-0.00017	-0.00037	0.00011	0.0001	5e-05	5
26012	0	-4e-05	-0.00011	-0.00017	-0.00037	0.00011	0.0001	5e-05	5
26013	0	-4e-05	-0.00011	-0.00017	-0.00037	0.00011	0.0001	5e-05	5
26014	0	-4e-05	-0.00011	-0.00017	-0.00037	0.00011	0.0001	5e-05	5
26015	0	-4e-05	-0.00011	-0.00017	-0.00037	0.00011	0.0001	5e-05	5
26016	0	-4e-05	-0.00011	-0.00017	-0.00037	0.00011	0.0001	5e-05	5
26017	0	-4e-05	-0.00011	-0.00017	-0.00037	0.00011	0.0001	5e-05	5
26018	0	-4e-05	-0.00011	-0.00017	-0.00037	0.00011	0.0001	5e-05	5
26019	0	-4e-05	-0.00011	-0.00017	-0.00037	0.00011	0.0001	5e-05	5
26020	0	-4e-05	-0.00011	-0.00017	-0.00037	0.00011	0.0001	5e-05	5
26021	0	-4e-05	-0.00011	-0.00017	-0.00037	0.00011	0.0001	5e-05	5
26022	0	-4e-05	-0.00011	-0.00017	-0.00037	0.00011	0.0001	5e-05	5
26023	0	-4e-05	-0.00011	-0.00017	-0.00037	0.00011	0.0001	5e-05	5
26024	0	-4e-05	-0.00011	-0.00017	-0.00037	0.00011	0.0001	5e-05	5
26025	0	-4e-05	-0.00011	-0.00017	-0.00037	0.00011	0.0001	5e-05	5
26026	0	-4e-05	-0.00011	-0.00017	-0.00037	0.00011	0.0001	5e-05	5
26027	0	-4e-05	-0.00011	-0.00017	-0.00037	0.00011	0.0001	5e-05	5
26028	0	-4e-05	-0.00011	-0.00017	-0.00037	0.00011	0.0001	5e-05	5
26029	0	-4e-05	-0.00011	-0.00017	-0.00037	0.00011	0.0001	5e-05	5
26030	0	-4e-05	-0.00011	-0.00017	-0.00037	0.00011	0.0001	5e-05	5
26031	0	-4e-05	-0.00011	-0.00017	-0.00037	0.00011	0.0001	5e-05	5
26032	0	-4e-05	-0.00011	-0.00017	-0.00037	0.00011	0.0001	5e-05	5
26033	0	-4e-05	-0.00011	-0.00017	-0.00037	0.00011	0.0001	5e-05	5
26034	0	-4e-05	-0.00011	-0.00017	-0.00037	0.00011	0.0001	5e-05	5
26035	0	-4e-05	-0.00011	-0.00017	-0.00037	0.00011	0.0001	5e-05	5
26037	0.0001	0.00011	0.00014	0.00055	0.0006	0.00044	0.00015	6e-05	5
26040	6e-05	2e-05	4e-05	-0.00037	-0.00048	-3e-05	2e-05	4e-05	5
26041	6e-05	2e-05	4e-05	-0.00037	-0.00048	-3e-05	2e-05	4e-05	5
26042	6e-05	2e-05	4e-05	-0.00037	-0.00048	-3e-05	2e-05	4e-05	5
26043	6e-05	2e-05	4e-05	-0.00037	-0.00048	-3e-05	2e-05	4e-05	5
26044	6e-05	2e-05	4e-05	-0.00037	-0.00048	-3e-05	2e-05	4e-05	5
26045	6e-05	2e-05	4e-05	-0.00037	-0.00048	-3e-05	2e-05	4e-05	5
26046	6e-05	2e-05	4e-05	-0.00037	-0.00048	-3e-05	2e-05	4e-05	5
26047	6e-05	2e-05	4e-05	-0.00037	-0.00048	-3e-05	2e-05	4e-05	5
26048	6e-05	2e-05	4e-05	-0.00037	-0.00048	-3e-05	2e-05	4e-05	5
26050	6e-05	2e-05	4e-05	-0.00037	-0.00048	-3e-05	2e-05	4e-05	5
26051	6e-05	2e-05	4e-05	-0.00037	-0.00048	-3e-05	2e-05	4e-05	5
26052	6e-05	2e-05	4e-05	-0.00037	-0.00048	-3e-05	2e-05	4e-05	5
26053	6e-05	2e-05	4e-05	-0.00037	-0.00048	-3e-05	2e-05	4e-05	5
26054	6e-05	2e-05	4e-05	-0.00037	-0.00048	-3e-05	2e-05	4e-05	5
26055	6e-05	2e-05	4e-05	-0.00037	-0.00048	-3e-05	2e-05	4e-05	5
26056	6e-05	2e-05	4e-05	-0.00037	-0.00048	-3e-05	2e-05	4e-05	5
26057	6e-05	2e-05	4e-05	-0.00037	-0.00048	-3e-05	2e-05	4e-05	5
26058	-3e-05	0.0001	0.00014	-8e-05	-5e-05	-4e-05	-6e-05	-3e-05	5
26059	-3e-05	0.0001	0.00014	-8e-05	-5e-05	-4e-05	-6e-05	-3e-05	5
26060	-3e-05	-0.00018	-1e-05	0.00015	0.00029	6e-05	0	0	5
26061	-4e-05	-0.00011	-0.00016	-0.00013	0.00017	1e-05	-3e-05	-4e-05	5
26062	-4e-05	-0.00011	-0.00016	-0.00013	0.00017	1e-05	-3e-05	-4e-05	5
26063	-4e-05	-0.00011	-0.00016	-0.00013	0.00017	1e-05	-3e-05	-4e-05	5
26064	-4e-05	-0.00011	-0.00016	-0.00013	0.00017	1e-05	-3e-05	-4e-05	5
26065	-4e-05	-0.00011	-0.00016	-0.00013	0.00017	1e-05	-3e-05	-4e-05	5
26066	-4e-05	-0.00011	-0.00016	-0.00013	0.00017	1e-05	-3e-05	-4e-05	5
26067	-4e-05	-0.00011	-0.00016	-0.00013	0.00017	1e-05	-3e-05	-4e-05	5
26068	-4e-05	-0.00011	-0.00016	-0.00013	0.00017	1e-05	-3e-05	-4e-05	5
26069	-4e-05	-0.00011	-0.00016	-0.00013	0.00017	1e-05	-3e-05	-4e-05	5
26070	-4e-05	-0.00011	-0.00016	-0.00013	0.00017	1e-05	-3e-05	-4e-05	5
26071	-4e-05	-0.00011	-0.00016	-0.00013	0.00017	1e-05	-3e-05	-4e-05	5
26072	-4e-05	-0.00011	-0.00016	-0.00013	0.00017	1e-05	-3e-05	-4e-05	5
26073	-4e-05	-0.00011	-0.00016	-0.00013	0.00017	1e-05	-3e-05	-4e-05	5
26074	-4e-05	-0.00011	-0.00016	-0.00013	0.00017	1e-05	-3e-05	-4e-05	5
26075	-4e-05	-0.00011	-0.00016	-0.00013	0.00017	1e-05	-3e-05	-4e-05	5
26076	-4e-05	-0.00011	-0.00016	-0.00013	0.00017	1e-05	-3e-05	-4e-05	5
26077	-4e-05	-0.00011	-0.00016	-0.00013	0.00017	1e-05	-3e-05	-4e-05	5
26078	-4e-05	-0.00011	-0.00016	-0.00013	0.00017	1e-05	-3e-05	-4e-05	5
26079	-4e-05	-0.00011	-0.00016	-0.00013	0.00017	1e-05	-3e-05	-4e-05	5
26080	-4e-05	-0.00011	-0.00016	-0.00013	0.00017	1e-05	-3e-05	-4e-05	5
26081	-4e-05	-0.00011	-0.00016	-0.00013	0.00017	1e-05	-3e-05	-4e-05	5
26082	-4e-05	-0.00011	-0.00016	-0.00013	0.00017	1e-05	-3e-05	-4e-05	5
26083	-4e-05	-0.00011	-0.00016	-0.00013	0.00017	1e-05	-3e-05	-4e-05	5
26084	-4e-05	-0.00011	-0.00016	-0.00013	0.00017	1e-05	-3e-05	-4e-05	5
26085	-4e-05	-0.00011	-0.00016	-0.00013	0.00017	1e-05	-3e-05	-4e-05	5
26086	-4e-05	-0.00011	-0.00016	-0.00013	0.00017	1e-05	-3e-05	-4e-05	5
26089	-5e-05	-7e-05	-7e-05	-3e-05	5e-05	0.0001	-3e-05	-4e-05	5
26090	-5e-05	-7e-05	-7e-05	-3e-05	5e-05	0.0001	-3e-05	-4e-05	5
26091	-5e-05	-7e-05	-7e-05	-3e-05	5e-05	0.0001	-3e-05	-4e-05	5
26092	-5e-05	-7e-05	-7e-05	-3e-05	5e-05	0.0001	-3e-05	-4e-05	5
26093	-5e-05	-7e-05	-7e-05	-3e-05	5e-05	0.0001	-3e-05	-4e-05	5
26094	-5e-05	-7e-05	-7e-05	-3e-05	5e-05	0.0001	-3e-05	-4e-05	5
26095	-5e-05	-7e-05	-7e-05	-3e-05	5e-05	0.0001	-3e-05	-4e-05	5
26096	-5e-05	-7e-05	-7e-05	-3e-05	5e-05	0.0001	-3e-05	-4e-05	5
26097	-5e-05	-7e-05	-7e-05	-3e-05	5e-05	0.0001	-3e-05	-4e-05	5
26098	-5e-05	-7e-05	-7e-05	-3e-05	5e-05	0.0001	-3e-05	-4e-05	5
26099	-5e-05	-7e-05	-7e-05	-3e-05	5e-05	0.0001	-3e-05	-4e-05	5
26100	-5e-05	-7e-05	-7e-05	-3e-05	5e-05	0.0001	-3e-05	-4e-05	5
26101	-5e-05	-7e-05	-7e-05	-3e-05	5e-05	0.0001	-3e-05	-4e-05	5
26102	-5e-05	-7e-05	-7e-05	-3e-05	5e-05	0.0001	-3e-05	-4e-05	5
26103	-5e-05	-7e-05	-7e-05	-3e-05	5e-05	0.0001	-3e-05	-4e-05	5
26104	-5e-05	-7e-05	-7e-05	-3e-05	5e-05	0.0001	-3e-05	-4e-05	5
26105	-5e-05	-7e-05	-7e-05	-3e-05	5e-05	0.0001	-3e-05	-4e-05	5
26106	-5e-05	-7e-05	-7e-05	-3e-05	5e-05	0.0001	-3e-05	-4e-05	5
26107	-5e-05	-7e-05	-7e-05	-3e-05	5e-05	0.0001	-3e-05	-4e-05	5
26108	-5e-05	-7e-05	-7e-05	-3e-05	5e-05	0.0001	-3e-05	-4e-05	5
26109	-5e-05	-7e-05	-7e-05	-3e-05	5e-05	0.0001	-3e-05	-4e-05	5
26110	-5e-05	-7e-05	-7e-05	-3e-05	5e-05	0.0001	-3e-05	-4e-05	5
26111	0.00015	0.00033	0.00042	0.00011	-6e-05	0.00036	0.00027	0.00018	5
26112	-8e-05	-0.00027	-0.00043	-0.00023	-0.00028	-4e-05	-4e-05	-4e-05	5
26113	-2e-05	0.00013	0.00016	-6e-05	-2e-05	-0.00025	-0.00015	-6e-05	5
26114	-2e-05	0.00013	0.00016	-6e-05	-2e-05	-0.00025	-0.00015	-6e-05	5
26115	-2e-05	0.00013	0.00016	-6e-05	-2e-05	-0.00025	-0.00015	-6e-05	5
26116	-2e-05	0.00013	0.00016	-6e-05	-2e-05	-0.00025	-0.00015	-6e-05	5
26117	-2e-05	0.00013	0.00016	-6e-05	-2e-05	-0.00025	-0.00015	-6e-05	5
26118	-2e-05	0.00013	0.00016	-6e-05	-2e-05	-0.00025	-0.00015	-6e-05	5
26119	-2e-05	0.00013	0.00016	-6e-05	-2e-05	-0.00025	-0.00015	-6e-05	5
26120	-2e-05	0.00013	0.00016	-6e-05	-2e-05	-0.00025	-0.00015	-6e-05	5
26121	-2e-05	0.00013	0.00016	-6e-05	-2e-05	-0.00025	-0.00015	-6e-05	5
26122	-2e-05	0.00013	0.00016	-6e-05	-2e-05	-0.00025	-0.00015	-6e-05	5
26123	-2e-05	0.00013	0.00016	-6e-05	-2e-05	-0.00025	-0.00015	-6e-05	5
26124	-2e-05	0.00013	0.00016	-6e-05	-2e-05	-0.00025	-0.00015	-6e-05	5
26125	-2e-05	0.00013	0.00016	-6e-05	-2e-05	-0.00025	-0.00015	-6e-05	5
26126	-2e-05	0.00013	0.00016	-6e-05	-2e-05	-0.00025	-0.00015	-6e-05	5
26127	-2e-05	0.00013	0.00016	-6e-05	-2e-05	-0.00025	-0.00015	-6e-05	5
26128	-2e-05	0.00013	0.00016	-6e-05	-2e-05	-0.00025	-0.00015	-6e-05	5
26129	-2e-05	0.00013	0.00016	-6e-05	-2e-05	-0.00025	-0.00015	-6e-05	5
26130	-2e-05	0.00013	0.00016	-6e-05	-2e-05	-0.00025	-0.00015	-6e-05	5
26131	-2e-05	0.00013	0.00016	-6e-05	-2e-05	-0.00025	-0.00015	-6e-05	5
26132	-2e-05	0.00013	0.00016	-6e-05	-2e-05	-0.00025	-0.00015	-6e-05	5
26133	1e-05	-8e-05	0.0002	0	-7e-05	-0.00033	-0.00012	0	5
26134	1e-05	-8e-05	0.0002	0	-7e-05	-0.00033	-0.00012	0	5
26135	1e-05	-8e-05	0.0002	0	-7e-05	-0.00033	-0.00012	0	5
26136	1e-05	-8e-05	0.0002	0	-7e-05	-0.00033	-0.00012	0	5
26138	1e-05	-8e-05	0.0002	0	-7e-05	-0.00033	-0.00012	0	5
26139	1e-05	-8e-05	0.0002	0	-7e-05	-0.00033	-0.00012	0	5
26140	0.0001	0.00017	7e-05	3e-05	0.00012	0.0004	0.00026	0.00014	5
26141	-5e-05	-0.0001	1e-05	0.00036	9e-05	-9e-05	8e-05	-1e-05	5
26142	-5e-05	-0.0001	1e-05	0.00036	9e-05	-9e-05	8e-05	-1e-05	5
26143	-5e-05	-0.0001	1e-05	0.00036	9e-05	-9e-05	8e-05	-1e-05	5
26144	-5e-05	-0.0001	1e-05	0.00036	9e-05	-9e-05	8e-05	-1e-05	5
26145	-5e-05	-0.0001	1e-05	0.00036	9e-05	-9e-05	8e-05	-1e-05	5
26146	-5e-05	-0.0001	1e-05	0.00036	9e-05	-9e-05	8e-05	-1e-05	5
26147	-5e-05	-0.0001	1e-05	0.00036	9e-05	-9e-05	8e-05	-1e-05	5
26148	-5e-05	-0.0001	1e-05	0.00036	9e-05	-9e-05	8e-05	-1e-05	5
26149	-5e-05	-0.0001	1e-05	0.00036	9e-05	-9e-05	8e-05	-1e-05	5
26150	-5e-05	-0.0001	1e-05	0.00036	9e-05	-9e-05	8e-05	-1e-05	5
26151	-5e-05	-0.0001	1e-05	0.00036	9e-05	-9e-05	8e-05	-1e-05	5
26152	-5e-05	-0.0001	1e-05	0.00036	9e-05	-9e-05	8e-05	-1e-05	5
26153	-5e-05	-0.0001	1e-05	0.00036	9e-05	-9e-05	8e-05	-1e-05	5
26154	-5e-05	-0.0001	1e-05	0.00036	9e-05	-9e-05	8e-05	-1e-05	5
26155	-5e-05	-0.0001	1e-05	0.00036	9e-05	-9e-05	8e-05	-1e-05	5
26156	-5e-05	-0.0001	1e-05	0.00036	9e-05	-9e-05	8e-05	-1e-05	5
26157	-5e-05	-0.0001	1e-05	0.00036	9e-05	-9e-05	8e-05	-1e-05	5
26158	-5e-05	-0.0001	1e-05	0.00036	9e-05	-9e-05	8e-05	-1e-05	5
26159	-5e-05	-0.0001	1e-05	0.00036	9e-05	-9e-05	8e-05	-1e-05	5
26160	-5e-05	-0.0001	1e-05	0.00036	9e-05	-9e-05	8e-05	-1e-05	5
26161	-5e-05	-0.0001	1e-05	0.00036	9e-05	-9e-05	8e-05	-1e-05	5
26162	-5e-05	-0.0001	1e-05	0.00036	9e-05	-9e-05	8e-05	-1e-05	5
26163	-2e-05	-1e-05	2e-05	-9e-05	-5e-05	-0.00012	-6e-05	-2e-05	5
26164	8e-05	8e-05	2e-05	-0.00014	-0.00016	-6e-05	-2e-05	2e-05	5
26165	8e-05	8e-05	2e-05	-0.00014	-0.00016	-6e-05	-2e-05	2e-05	5
26166	8e-05	8e-05	2e-05	-0.00014	-0.00016	-6e-05	-2e-05	2e-05	5
26167	8e-05	8e-05	2e-05	-0.00014	-0.00016	-6e-05	-2e-05	2e-05	5
26168	8e-05	8e-05	2e-05	-0.00014	-0.00016	-6e-05	-2e-05	2e-05	5
26169	8e-05	8e-05	2e-05	-0.00014	-0.00016	-6e-05	-2e-05	2e-05	5
26170	8e-05	8e-05	2e-05	-0.00014	-0.00016	-6e-05	-2e-05	2e-05	5
26171	8e-05	8e-05	2e-05	-0.00014	-0.00016	-6e-05	-2e-05	2e-05	5
26172	8e-05	8e-05	2e-05	-0.00014	-0.00016	-6e-05	-2e-05	2e-05	5
26173	8e-05	8e-05	2e-05	-0.00014	-0.00016	-6e-05	-2e-05	2e-05	5
26174	8e-05	8e-05	2e-05	-0.00014	-0.00016	-6e-05	-2e-05	2e-05	5
26175	8e-05	8e-05	2e-05	-0.00014	-0.00016	-6e-05	-2e-05	2e-05	5
26176	8e-05	8e-05	2e-05	-0.00014	-0.00016	-6e-05	-2e-05	2e-05	5
26177	8e-05	8e-05	2e-05	-0.00014	-0.00016	-6e-05	-2e-05	2e-05	5
26178	8e-05	8e-05	2e-05	-0.00014	-0.00016	-6e-05	-2e-05	2e-05	5
26179	8e-05	8e-05	2e-05	-0.00014	-0.00016	-6e-05	-2e-05	2e-05	5
26180	8e-05	8e-05	2e-05	-0.00014	-0.00016	-6e-05	-2e-05	2e-05	5
26181	8e-05	8e-05	2e-05	-0.00014	-0.00016	-6e-05	-2e-05	2e-05	5
26182	8e-05	8e-05	2e-05	-0.00014	-0.00016	-6e-05	-2e-05	2e-05	5
26183	8e-05	8e-05	2e-05	-0.00014	-0.00016	-6e-05	-2e-05	2e-05	5
26184	8e-05	8e-05	2e-05	-0.00014	-0.00016	-6e-05	-2e-05	2e-05	5
26185	8e-05	8e-05	2e-05	-0.00014	-0.00016	-6e-05	-2e-05	2e-05	5
26186	5e-05	0.00015	0.00031	5e-05	-0.00013	0.00022	9e-05	6e-05	5
26189	-9e-05	-0.00018	-0.0004	-0.00049	-0.00037	-0.00019	-0.00012	-8e-05	5
26190	-9e-05	-0.00018	-0.0004	-0.00049	-0.00037	-0.00019	-0.00012	-8e-05	5
26191	-9e-05	-0.00018	-0.0004	-0.00049	-0.00037	-0.00019	-0.00012	-8e-05	5
26192	-9e-05	-0.00018	-0.0004	-0.00049	-0.00037	-0.00019	-0.00012	-8e-05	5
26193	-9e-05	-0.00018	-0.0004	-0.00049	-0.00037	-0.00019	-0.00012	-8e-05	5
26194	-9e-05	-0.00018	-0.0004	-0.00049	-0.00037	-0.00019	-0.00012	-8e-05	5
26195	-9e-05	-0.00018	-0.0004	-0.00049	-0.00037	-0.00019	-0.00012	-8e-05	5
26196	-9e-05	-0.00018	-0.0004	-0.00049	-0.00037	-0.00019	-0.00012	-8e-05	5
26197	-9e-05	-0.00018	-0.0004	-0.00049	-0.00037	-0.00019	-0.00012	-8e-05	5
26198	-9e-05	-0.00018	-0.0004	-0.00049	-0.00037	-0.00019	-0.00012	-8e-05	5
26199	-9e-05	-0.00018	-0.0004	-0.00049	-0.00037	-0.00019	-0.00012	-8e-05	5
26200	-9e-05	-0.00018	-0.0004	-0.00049	-0.00037	-0.00019	-0.00012	-8e-05	5
26201	-9e-05	-0.00018	-0.0004	-0.00049	-0.00037	-0.00019	-0.00012	-8e-05	5
26202	-9e-05	-0.00018	-0.0004	-0.00049	-0.00037	-0.00019	-0.00012	-8e-05	5
26203	-9e-05	-0.00018	-0.0004	-0.00049	-0.00037	-0.00019	-0.00012	-8e-05	5
26204	-9e-05	-0.00018	-0.0004	-0.00049	-0.00037	-0.00019	-0.00012	-8e-05	5
26205	-9e-05	-0.00018	-0.0004	-0.00049	-0.00037	-0.00019	-0.00012	-8e-05	5
26206	-9e-05	-0.00018	-0.0004	-0.00049	-0.00037	-0.00019	-0.00012	-8e-05	5
26207	-9e-05	-0.00018	-0.0004	-0.00049	-0.00037	-0.00019	-0.00012	-8e-05	5
26208	2e-05	0.0001	0.00026	0.00028	0.00019	2e-05	-5e-05	-5e-05	5
26209	2e-05	0.0001	0.00026	0.00028	0.00019	2e-05	-5e-05	-5e-05	5
26210	2e-05	0.0001	0.00026	0.00028	0.00019	2e-05	-5e-05	-5e-05	5
26211	2e-05	0.0001	0.00026	0.00028	0.00019	2e-05	-5e-05	-5e-05	5
26212	2e-05	0.0001	0.00026	0.00028	0.00019	2e-05	-5e-05	-5e-05	5
26213	2e-05	0.0001	0.00026	0.00028	0.00019	2e-05	-5e-05	-5e-05	5
26214	2e-05	0.0001	0.00026	0.00028	0.00019	2e-05	-5e-05	-5e-05	5
26215	3e-05	-2e-05	3e-05	0.0002	0.00029	0.00014	4e-05	-1e-05	5
