29926	5e-05	-0.00013	4e-05	-5e-05	5e-05	9e-05	0.00011	0.0004	6
29927	9e-05	-0.00014	-0.00019	-0.00029	-0.0005	-0.00038	3e-05	0.00014	6
29929	-0.00032	-0.00025	-6e-05	0.00013	0.00028	0.00011	-0.0002	9e-05	6
29930	0.00026	3e-05	-4e-05	-6e-05	-0.00011	-0.00013	-0.00015	6e-05	6
29931	0.00026	3e-05	-4e-05	-6e-05	-0.00011	-0.00013	-0.00015	6e-05	6
29932	0.00026	3e-05	-4e-05	-6e-05	-0.00011	-0.00013	-0.00015	6e-05	6
29933	0.00026	3e-05	-4e-05	-6e-05	-0.00011	-0.00013	-0.00015	6e-05	6
29934	0.00026	3e-05	-4e-05	-6e-05	-0.00011	-0.00013	-0.00015	6e-05	6
29935	0.00026	3e-05	-4e-05	-6e-05	-0.00011	-0.00013	-0.00015	6e-05	6
29936	0.00026	3e-05	-4e-05	-6e-05	-0.00011	-0.00013	-0.00015	6e-05	6
29938	0.00026	3e-05	-4e-05	-6e-05	-0.00011	-0.00013	-0.00015	6e-05	6
29939	0.00026	3e-05	-4e-05	-6e-05	-0.00011	-0.00013	-0.00015	6e-05	6
29940	0.00026	3e-05	-4e-05	-6e-05	-0.00011	-0.00013	-0.00015	6e-05	6
29941	0.00026	3e-05	-4e-05	-6e-05	-0.00011	-0.00013	-0.00015	6e-05	6
29942	0.00026	3e-05	-4e-05	-6e-05	-0.00011	-0.00013	-0.00015	6e-05	6
29943	0.00026	3e-05	-4e-05	-6e-05	-0.00011	-0.00013	-0.00015	6e-05	6
29944	0.00026	3e-05	-4e-05	-6e-05	-0.00011	-0.00013	-0.00015	6e-05	6
29945	0.00026	3e-05	-4e-05	-6e-05	-0.00011	-0.00013	-0.00015	6e-05	6
29946	0.00026	3e-05	-4e-05	-6e-05	-0.00011	-0.00013	-0.00015	6e-05	6
29947	0.00026	3e-05	-4e-05	-6e-05	-0.00011	-0.00013	-0.00015	6e-05	6
29949	0.00026	3e-05	-4e-05	-6e-05	-0.00011	-0.00013	-0.00015	6e-05	6
29950	0.00019	6e-05	1e-05	-6e-05	-0.00014	-6e-05	7e-05	0.00057	6
29951	0.00019	6e-05	1e-05	-6e-05	-0.00014	-6e-05	7e-05	0.00057	6
29952	7e-05	0.00011	-0.0001	-6e-05	-3e-05	-9e-05	-1e-05	-9e-05	6
29953	7e-05	0.00011	-0.0001	-6e-05	-3e-05	-9e-05	-1e-05	-9e-05	6
29954	7e-05	0.00011	-0.0001	-6e-05	-3e-05	-9e-05	-1e-05	-9e-05	6
29955	7e-05	0.00011	-0.0001	-6e-05	-3e-05	-9e-05	-1e-05	-9e-05	6
29956	7e-05	0.00011	-0.0001	-6e-05	-3e-05	-9e-05	-1e-05	-9e-05	6
29957	7e-05	0.00011	-0.0001	-6e-05	-3e-05	-9e-05	-1e-05	-9e-05	6
29958	7e-05	0.00011	-0.0001	-6e-05	-3e-05	-9e-05	-1e-05	-9e-05	6
29959	7e-05	0.00011	-0.0001	-6e-05	-3e-05	-9e-05	-1e-05	-9e-05	6
29960	7e-05	0.00011	-0.0001	-6e-05	-3e-05	-9e-05	-1e-05	-9e-05	6
29961	7e-05	0.00011	-0.0001	-6e-05	-3e-05	-9e-05	-1e-05	-9e-05	6
29962	7e-05	0.00011	-0.0001	-6e-05	-3e-05	-9e-05	-1e-05	-9e-05	6
29963	7e-05	0.00011	-0.0001	-6e-05	-3e-05	-9e-05	-1e-05	-9e-05	6
29964	7e-05	0.00011	-0.0001	-6e-05	-3e-05	-9e-05	-1e-05	-9e-05	6
29965	7e-05	0.00011	-0.0001	-6e-05	-3e-05	-9e-05	-1e-05	-9e-05	6
29966	7e-05	0.00011	-0.0001	-6e-05	-3e-05	-9e-05	-1e-05	-9e-05	6
29967	7e-05	0.00011	-0.0001	-6e-05	-3e-05	-9e-05	-1e-05	-9e-05	6
29968	7e-05	0.00011	-0.0001	-6e-05	-3e-05	-9e-05	-1e-05	-9e-05	6
29969	7e-05	0.00011	-0.0001	-6e-05	-3e-05	-9e-05	-1e-05	-9e-05	6
29970	7e-05	0.00011	-0.0001	-6e-05	-3e-05	-9e-05	-1e-05	-9e-05	6
29971	7e-05	0.00011	-0.0001	-6e-05	-3e-05	-9e-05	-1e-05	-9e-05	6
29972	-0.00061	-0.00057	-3e-05	8e-05	0.00019	0.00017	1e-05	-0.00028	6
29973	-0.00061	-0.00057	-3e-05	8e-05	0.00019	0.00017	1e-05	-0.00028	6
29974	0.00035	0.00032	0.00013	0.00023	0.00048	0.00014	-5e-05	-0.0002	6
29975	0.00035	0.00032	0.00013	0.00023	0.00048	0.00014	-5e-05	-0.0002	6
29976	0.00035	0.00032	0.00013	0.00023	0.00048	0.00014	-5e-05	-0.0002	6
29977	0.00035	0.00032	0.00013	0.00023	0.00048	0.00014	-5e-05	-0.0002	6
29978	0.00035	0.00032	0.00013	0.00023	0.00048	0.00014	-5e-05	-0.0002	6
29979	0.00035	0.00032	0.00013	0.00023	0.00048	0.00014	-5e-05	-0.0002	6
29980	0.00035	0.00032	0.00013	0.00023	0.00048	0.00014	-5e-05	-0.0002	6
29981	0.00035	0.00032	0.00013	0.00023	0.00048	0.00014	-5e-05	-0.0002	6
29982	0.00035	0.00032	0.00013	0.00023	0.00048	0.00014	-5e-05	-0.0002	6
29983	0.00035	0.00032	0.00013	0.00023	0.00048	0.00014	-5e-05	-0.0002	6
29984	0.00035	0.00032	0.00013	0.00023	0.00048	0.00014	-5e-05	-0.0002	6
29985	0.00035	0.00032	0.00013	0.00023	0.00048	0.00014	-5e-05	-0.0002	6
29987	-6e-05	0.00012	0	9e-05	0.00028	0.00015	-1e-05	-0.00037	6
29989	-6e-05	0.00012	0	9e-05	0.00028	0.00015	-1e-05	-0.00037	6
29991	-6e-05	0.00012	0	9e-05	0.00028	0.00015	-1e-05	-0.00037	6
29992	-6e-05	0.00012	0	9e-05	0.00028	0.00015	-1e-05	-0.00037	6
29993	-6e-05	0.00012	0	9e-05	0.00028	0.00015	-1e-05	-0.00037	6
29994	-6e-05	0.00012	0	9e-05	0.00028	0.00015	-1e-05	-0.00037	6
29995	-0.00018	-0.00016	9e-05	-2e-05	-0.0001	-5e-05	-0.00013	-0.00035	6
29996	6e-05	0.00011	2e-05	-0.00014	-0.00033	-9e-05	-3e-05	-0.00056	6
29997	6e-05	0.00011	2e-05	-0.00014	-0.00033	-9e-05	-3e-05	-0.00056	6
29998	6e-05	0.00011	2e-05	-0.00014	-0.00033	-9e-05	-3e-05	-0.00056	6
29999	6e-05	0.00011	2e-05	-0.00014	-0.00033	-9e-05	-3e-05	-0.00056	6
30000	6e-05	0.00011	2e-05	-0.00014	-0.00033	-9e-05	-3e-05	-0.00056	6
30001	6e-05	0.00011	2e-05	-0.00014	-0.00033	-9e-05	-3e-05	-0.00056	6
30002	6e-05	0.00011	2e-05	-0.00014	-0.00033	-9e-05	-3e-05	-0.00056	6
30003	6e-05	0.00011	2e-05	-0.00014	-0.00033	-9e-05	-3e-05	-0.00056	6
30004	6e-05	0.00011	2e-05	-0.00014	-0.00033	-9e-05	-3e-05	-0.00056	6
30005	6e-05	0.00011	2e-05	-0.00014	-0.00033	-9e-05	-3e-05	-0.00056	6
30006	6e-05	0.00011	2e-05	-0.00014	-0.00033	-9e-05	-3e-05	-0.00056	6
30007	6e-05	0.00011	2e-05	-0.00014	-0.00033	-9e-05	-3e-05	-0.00056	6
30008	6e-05	0.00011	2e-05	-0.00014	-0.00033	-9e-05	-3e-05	-0.00056	6
30009	6e-05	0.00011	2e-05	-0.00014	-0.00033	-9e-05	-3e-05	-0.00056	6
30010	-0.00045	-0.00023	9e-05	0.00014	0.00014	0.00011	-0.00013	-0.00049	6
30011	-0.00045	-0.00023	9e-05	0.00014	0.00014	0.00011	-0.00013	-0.00049	6
30012	-0.00018	-8e-05	-3e-05	-1e-05	-5e-05	5e-05	-4e-05	-0.00011	6
30013	-0.00018	-8e-05	-3e-05	-1e-05	-5e-05	5e-05	-4e-05	-0.00011	6
30014	-0.00018	-8e-05	-3e-05	-1e-05	-5e-05	5e-05	-4e-05	-0.00011	6
30015	-0.00018	-8e-05	-3e-05	-1e-05	-5e-05	5e-05	-4e-05	-0.00011	6
30016	-0.00018	-8e-05	-3e-05	-1e-05	-5e-05	5e-05	-4e-05	-0.00011	6
30017	-0.00018	-8e-05	-3e-05	-1e-05	-5e-05	5e-05	-4e-05	-0.00011	6
30018	-0.00018	-8e-05	-3e-05	-1e-05	-5e-05	5e-05	-4e-05	-0.00011	6
30019	-0.00018	-8e-05	-3e-05	-1e-05	-5e-05	5e-05	-4e-05	-0.00011	6
30020	-0.00018	-8e-05	-3e-05	-1e-05	-5e-05	5e-05	-4e-05	-0.00011	6
30021	-0.00018	-8e-05	-3e-05	-1e-05	-5e-05	5e-05	-4e-05	-0.00011	6
30022	-0.00018	-8e-05	-3e-05	-1e-05	-5e-05	5e-05	-4e-05	-0.00011	6
30023	-0.00018	-8e-05	-3e-05	-1e-05	-5e-05	5e-05	-4e-05	-0.00011	6
30024	-0.00016	0.00018	2e-05	-6e-05	-0.00015	-0.00013	-2e-05	0.00012	6
30025	-0.00016	0.00018	2e-05	-6e-05	-0.00015	-0.00013	-2e-05	0.00012	6
30026	-0.00016	0.00018	2e-05	-6e-05	-0.00015	-0.00013	-2e-05	0.00012	6
30027	-0.00016	0.00018	2e-05	-6e-05	-0.00015	-0.00013	-2e-05	0.00012	6
30028	-0.00016	0.00018	2e-05	-6e-05	-0.00015	-0.00013	-2e-05	0.00012	6
30029	-0.00016	0.00018	2e-05	-6e-05	-0.00015	-0.00013	-2e-05	0.00012	6
30030	-0.00016	0.00018	2e-05	-6e-05	-0.00015	-0.00013	-2e-05	0.00012	6
30031	-0.00016	0.00018	2e-05	-6e-05	-0.00015	-0.00013	-2e-05	0.00012	6
30032	-2e-05	-5e-05	-4e-05	-0.00011	-0.00012	-8e-05	0.0002	-8e-05	6
30033	-0.00035	-0.00025	-5e-05	7e-05	0.0001	0.00013	0.00014	0.00052	6
30034	-0.00035	-0.00025	-5e-05	7e-05	0.0001	0.00013	0.00014	0.00052	6
30035	-0.00035	-0.00025	-5e-05	7e-05	0.0001	0.00013	0.00014	0.00052	6
30044	-0.00035	-0.00025	-5e-05	7e-05	0.0001	0.00013	0.00014	0.00052	6
30046	-0.00035	-0.00025	-5e-05	7e-05	0.0001	0.00013	0.00014	0.00052	6
30047	-0.00035	-0.00025	-5e-05	7e-05	0.0001	0.00013	0.00014	0.00052	6
30048	-0.00033	-0.00026	-8e-05	-0.0001	-0.00015	-0.00021	-0.0003	-0.00052	6
30049	4e-05	-0.00033	-0.00021	-6e-05	-4e-05	-5e-05	1e-05	-3e-05	6
30050	4e-05	-0.00033	-0.00021	-6e-05	-4e-05	-5e-05	1e-05	-3e-05	6
30051	4e-05	-0.00033	-0.00021	-6e-05	-4e-05	-5e-05	1e-05	-3e-05	6
30052	4e-05	-0.00033	-0.00021	-6e-05	-4e-05	-5e-05	1e-05	-3e-05	6
30053	4e-05	-0.00033	-0.00021	-6e-05	-4e-05	-5e-05	1e-05	-3e-05	6
30054	4e-05	-0.00033	-0.00021	-6e-05	-4e-05	-5e-05	1e-05	-3e-05	6
30055	4e-05	-0.00033	-0.00021	-6e-05	-4e-05	-5e-05	1e-05	-3e-05	6
30056	4e-05	-0.00033	-0.00021	-6e-05	-4e-05	-5e-05	1e-05	-3e-05	6
30057	4e-05	-0.00033	-0.00021	-6e-05	-4e-05	-5e-05	1e-05	-3e-05	6
30058	4e-05	-0.00033	-0.00021	-6e-05	-4e-05	-5e-05	1e-05	-3e-05	6
30059	4e-05	-0.00033	-0.00021	-6e-05	-4e-05	-5e-05	1e-05	-3e-05	6
30060	4e-05	-0.00033	-0.00021	-6e-05	-4e-05	-5e-05	1e-05	-3e-05	6
30061	4e-05	-0.00033	-0.00021	-6e-05	-4e-05	-5e-05	1e-05	-3e-05	6
30062	4e-05	-0.00033	-0.00021	-6e-05	-4e-05	-5e-05	1e-05	-3e-05	6
30063	4e-05	-0.00033	-0.00021	-6e-05	-4e-05	-5e-05	1e-05	-3e-05	6
30064	4e-05	-0.00033	-0.00021	-6e-05	-4e-05	-5e-05	1e-05	-3e-05	6
30065	4e-05	-0.00033	-0.00021	-6e-05	-4e-05	-5e-05	1e-05	-3e-05	6
30066	4e-05	-0.00033	-0.00021	-6e-05	-4e-05	-5e-05	1e-05	-3e-05	6
30067	4e-05	-0.00033	-0.00021	-6e-05	-4e-05	-5e-05	1e-05	-3e-05	6
30068	4e-05	-0.00033	-0.00021	-6e-05	-4e-05	-5e-05	1e-05	-3e-05	6
30069	4e-05	-0.00033	-0.00021	-6e-05	-4e-05	-5e-05	1e-05	-3e-05	6
30070	0.00038	0.00017	-4e-05	-8e-05	-0.00015	-0.00017	-0.00016	0.0002	6
30071	0.00017	-3e-05	0	0.00012	0.00018	2e-05	-0.00017	-0.00028	6
30072	0.00029	0.00022	-5e-05	-5e-05	-0.00011	-7e-05	-9e-05	0.00015	6
30073	0.00029	0.00022	-5e-05	-5e-05	-0.00011	-7e-05	-9e-05	0.00015	6
30074	0.00029	0.00022	-5e-05	-5e-05	-0.00011	-7e-05	-9e-05	0.00015	6
30075	0.00029	0.00022	-5e-05	-5e-05	-0.00011	-7e-05	-9e-05	0.00015	6
30076	0.00029	0.00022	-5e-05	-5e-05	-0.00011	-7e-05	-9e-05	0.00015	6
30077	0.00029	0.00022	-5e-05	-5e-05	-0.00011	-7e-05	-9e-05	0.00015	6
30078	0.00029	0.00022	-5e-05	-5e-05	-0.00011	-7e-05	-9e-05	0.00015	6
30079	0.00029	0.00022	-5e-05	-5e-05	-0.00011	-7e-05	-9e-05	0.00015	6
30080	0.00029	0.00022	-5e-05	-5e-05	-0.00011	-7e-05	-9e-05	0.00015	6
30081	0.00029	0.00022	-5e-05	-5e-05	-0.00011	-7e-05	-9e-05	0.00015	6
30082	0.00029	0.00022	-5e-05	-5e-05	-0.00011	-7e-05	-9e-05	0.00015	6
30083	0.00029	0.00022	-5e-05	-5e-05	-0.00011	-7e-05	-9e-05	0.00015	6
30084	-0.00025	-0.00035	-1e-05	-5e-05	-0.0002	-0.00012	-0.0001	-0.00025	6
30085	-0.00025	-0.00035	-1e-05	-5e-05	-0.0002	-0.00012	-0.0001	-0.00025	6
30086	-0.00025	-0.00035	-1e-05	-5e-05	-0.0002	-0.00012	-0.0001	-0.00025	6
30089	-0.00025	-0.00035	-1e-05	-5e-05	-0.0002	-0.00012	-0.0001	-0.00025	6
30090	-0.00025	-0.00035	-1e-05	-5e-05	-0.0002	-0.00012	-0.0001	-0.00025	6
30091	-0.00025	-0.00035	-1e-05	-5e-05	-0.0002	-0.00012	-0.0001	-0.00025	6
30092	-0.00025	-0.00035	-1e-05	-5e-05	-0.0002	-0.00012	-0.0001	-0.00025	6
30093	-0.00025	-0.00035	-1e-05	-5e-05	-0.0002	-0.00012	-0.0001	-0.00025	6
30094	-0.00025	-0.00035	-1e-05	-5e-05	-0.0002	-0.00012	-0.0001	-0.00025	6
30095	-0.00025	-0.00035	-1e-05	-5e-05	-0.0002	-0.00012	-0.0001	-0.00025	6
30096	-0.00025	-0.00035	-1e-05	-5e-05	-0.0002	-0.00012	-0.0001	-0.00025	6
30097	-0.00025	-0.00035	-1e-05	-5e-05	-0.0002	-0.00012	-0.0001	-0.00025	6
30098	-0.00025	-0.00035	-1e-05	-5e-05	-0.0002	-0.00012	-0.0001	-0.00025	6
30099	-4e-05	0.00012	6e-05	2e-05	0.00017	0.00017	-0.00014	-0.00055	6
30100	-3e-05	-0.00012	-8e-05	-0.0001	-0.0002	-0.00065	-0.00055	0.00023	6
30101	-3e-05	-0.00012	-8e-05	-0.0001	-0.0002	-0.00065	-0.00055	0.00023	6
30102	-3e-05	-0.00012	-8e-05	-0.0001	-0.0002	-0.00065	-0.00055	0.00023	6
30103	-3e-05	-0.00012	-8e-05	-0.0001	-0.0002	-0.00065	-0.00055	0.00023	6
30104	-3e-05	-0.00012	-8e-05	-0.0001	-0.0002	-0.00065	-0.00055	0.00023	6
30105	-3e-05	-0.00012	-8e-05	-0.0001	-0.0002	-0.00065	-0.00055	0.00023	6
30106	-3e-05	-0.00012	-8e-05	-0.0001	-0.0002	-0.00065	-0.00055	0.00023	6
30107	0.00019	0.00022	0.00011	0.0001	0.00027	0.0008	0.00052	0.00033	6
30108	0.00019	0.00022	0.00011	0.0001	0.00027	0.0008	0.00052	0.00033	6
30109	-0.00036	-0.00019	2e-05	-5e-05	-0.00018	-0.00017	-0.00016	-0.00067	6
30110	-0.00036	-0.00019	2e-05	-5e-05	-0.00018	-0.00017	-0.00016	-0.00067	6
30111	-0.00036	-0.00019	2e-05	-5e-05	-0.00018	-0.00017	-0.00016	-0.00067	6
30112	-0.00036	-0.00019	2e-05	-5e-05	-0.00018	-0.00017	-0.00016	-0.00067	6
30113	-0.00036	-0.00019	2e-05	-5e-05	-0.00018	-0.00017	-0.00016	-0.00067	6
30114	-0.00036	-0.00019	2e-05	-5e-05	-0.00018	-0.00017	-0.00016	-0.00067	6
30115	-0.00036	-0.00019	2e-05	-5e-05	-0.00018	-0.00017	-0.00016	-0.00067	6
30116	-0.00036	-0.00019	2e-05	-5e-05	-0.00018	-0.00017	-0.00016	-0.00067	6
30117	-0.00036	-0.00019	2e-05	-5e-05	-0.00018	-0.00017	-0.00016	-0.00067	6
30118	-0.00036	-0.00019	2e-05	-5e-05	-0.00018	-0.00017	-0.00016	-0.00067	6
30119	-0.00036	-0.00019	2e-05	-5e-05	-0.00018	-0.00017	-0.00016	-0.00067	6
30120	-0.00036	-0.00019	2e-05	-5e-05	-0.00018	-0.00017	-0.00016	-0.00067	6
30121	-0.00036	-0.00019	2e-05	-5e-05	-0.00018	-0.00017	-0.00016	-0.00067	6
30122	-0.00036	-0.00019	2e-05	-5e-05	-0.00018	-0.00017	-0.00016	-0.00067	6
30123	-0.00036	-0.00019	2e-05	-5e-05	-0.00018	-0.00017	-0.00016	-0.00067	6
30124	-0.00036	-0.00019	2e-05	-5e-05	-0.00018	-0.00017	-0.00016	-0.00067	6
30125	-0.00036	-0.00019	2e-05	-5e-05	-0.00018	-0.00017	-0.00016	-0.00067	6
30126	-0.00036	-0.00019	2e-05	-5e-05	-0.00018	-0.00017	-0.00016	-0.00067	6
30127	-0.00036	-0.00019	2e-05	-5e-05	-0.00018	-0.00017	-0.00016	-0.00067	6
30128	-0.00036	-0.00019	2e-05	-5e-05	-0.00018	-0.00017	-0.00016	-0.00067	6
30129	-0.00036	-0.00019	2e-05	-5e-05	-0.00018	-0.00017	-0.00016	-0.00067	6
30130	0.00014	0.00016	-4e-05	-4e-05	4e-05	0.00025	0.00023	2e-05	6
30131	-0.00033	8e-05	0.0001	0.00021	0.00053	0.00021	4e-05	0.00018	6
30132	-0.00033	8e-05	0.0001	0.00021	0.00053	0.00021	4e-05	0.00018	6
30133	-0.00033	8e-05	0.0001	0.00021	0.00053	0.00021	4e-05	0.00018	6
30134	-0.00033	8e-05	0.0001	0.00021	0.00053	0.00021	4e-05	0.00018	6
30135	-0.00033	8e-05	0.0001	0.00021	0.00053	0.00021	4e-05	0.00018	6
30137	-0.00033	8e-05	0.0001	0.00021	0.00053	0.00021	4e-05	0.00018	6
30140	-0.00033	8e-05	0.0001	0.00021	0.00053	0.00021	4e-05	0.00018	6
30141	-0.00033	8e-05	0.0001	0.00021	0.00053	0.00021	4e-05	0.00018	6
30142	-0.00033	8e-05	0.0001	0.00021	0.00053	0.00021	4e-05	0.00018	6
30143	-0.00033	8e-05	0.0001	0.00021	0.00053	0.00021	4e-05	0.00018	6
30144	0.00028	0.00034	-4e-05	-5e-05	-0.00015	-0.00031	-0.00045	0.00037	6
30145	0.00028	0.00034	-4e-05	-5e-05	-0.00015	-0.00031	-0.00045	0.00037	6
30146	0.00028	0.00034	-4e-05	-5e-05	-0.00015	-0.00031	-0.00045	0.00037	6
30147	0.00028	0.00034	-4e-05	-5e-05	-0.00015	-0.00031	-0.00045	0.00037	6
30148	0.00028	0.00034	-4e-05	-5e-05	-0.00015	-0.00031	-0.00045	0.00037	6
30149	0.00028	0.00034	-4e-05	-5e-05	-0.00015	-0.00031	-0.00045	0.00037	6
30150	0.00028	0.00034	-4e-05	-5e-05	-0.00015	-0.00031	-0.00045	0.00037	6
30151	0.00028	0.00034	-4e-05	-5e-05	-0.00015	-0.00031	-0.00045	0.00037	6
30152	0.00028	0.00034	-4e-05	-5e-05	-0.00015	-0.00031	-0.00045	0.00037	6
30153	0.00021	0.0002	-4e-05	-0.00011	-0.0002	-7e-05	1e-05	-2e-05	6
30154	0.00021	0.0002	-4e-05	-0.00011	-0.0002	-7e-05	1e-05	-2e-05	6
30155	0.00021	0.0002	-4e-05	-0.00011	-0.0002	-7e-05	1e-05	-2e-05	6
30156	0.00021	0.0002	-4e-05	-0.00011	-0.0002	-7e-05	1e-05	-2e-05	6
30157	0.00021	0.0002	-4e-05	-0.00011	-0.0002	-7e-05	1e-05	-2e-05	6
30158	0.00021	0.0002	-4e-05	-0.00011	-0.0002	-7e-05	1e-05	-2e-05	6
30159	0.00021	0.0002	-4e-05	-0.00011	-0.0002	-7e-05	1e-05	-2e-05	6
30160	0.00021	0.0002	-4e-05	-0.00011	-0.0002	-7e-05	1e-05	-2e-05	6
30161	0.00021	0.0002	-4e-05	-0.00011	-0.0002	-7e-05	1e-05	-2e-05	6
30162	0.00021	0.0002	-4e-05	-0.00011	-0.0002	-7e-05	1e-05	-2e-05	6
30163	0.00021	0.0002	-4e-05	-0.00011	-0.0002	-7e-05	1e-05	-2e-05	6
30164	0.00021	0.0002	-4e-05	-0.00011	-0.0002	-7e-05	1e-05	-2e-05	6
30165	0.00021	0.0002	-4e-05	-0.00011	-0.0002	-7e-05	1e-05	-2e-05	6
30166	0.00021	0.0002	-4e-05	-0.00011	-0.0002	-7e-05	1e-05	-2e-05	6
30167	0.00021	0.0002	-4e-05	-0.00011	-0.0002	-7e-05	1e-05	-2e-05	6
30168	0.00021	0.0002	-4e-05	-0.00011	-0.0002	-7e-05	1e-05	-2e-05	6
30169	0.00021	0.0002	-4e-05	-0.00011	-0.0002	-7e-05	1e-05	-2e-05	6
30170	0.00021	0.0002	-4e-05	-0.00011	-0.0002	-7e-05	1e-05	-2e-05	6
30171	0.00021	0.0002	-4e-05	-0.00011	-0.0002	-7e-05	1e-05	-2e-05	6
30172	0.00021	0.0002	-4e-05	-0.00011	-0.0002	-7e-05	1e-05	-2e-05	6
30173	0.00021	0.0002	-4e-05	-0.00011	-0.0002	-7e-05	1e-05	-2e-05	6
30174	0.00021	0.0002	-4e-05	-0.00011	-0.0002	-7e-05	1e-05	-2e-05	6
30175	0.00015	0.0002	1e-05	2e-05	0.00012	0.00027	0.00033	0.00024	6
30176	0.00015	0.0002	1e-05	2e-05	0.00012	0.00027	0.00033	0.00024	6
30177	6e-05	-0.00012	5e-05	-1e-05	-4e-05	0.00014	8e-05	0.00045	6
30178	6e-05	-0.00012	5e-05	-1e-05	-4e-05	0.00014	8e-05	0.00045	6
30179	6e-05	-0.00012	5e-05	-1e-05	-4e-05	0.00014	8e-05	0.00045	6
30180	6e-05	-0.00012	5e-05	-1e-05	-4e-05	0.00014	8e-05	0.00045	6
30181	6e-05	-0.00012	5e-05	-1e-05	-4e-05	0.00014	8e-05	0.00045	6
30182	6e-05	-0.00012	5e-05	-1e-05	-4e-05	0.00014	8e-05	0.00045	6
30183	6e-05	-0.00012	5e-05	-1e-05	-4e-05	0.00014	8e-05	0.00045	6
30184	6e-05	-0.00012	5e-05	-1e-05	-4e-05	0.00014	8e-05	0.00045	6
30185	6e-05	-0.00012	5e-05	-1e-05	-4e-05	0.00014	8e-05	0.00045	6
30186	6e-05	-0.00012	5e-05	-1e-05	-4e-05	0.00014	8e-05	0.00045	6
30189	6e-05	-0.00012	5e-05	-1e-05	-4e-05	0.00014	8e-05	0.00045	6
30190	6e-05	-0.00012	5e-05	-1e-05	-4e-05	0.00014	8e-05	0.00045	6
30191	6e-05	-0.00012	5e-05	-1e-05	-4e-05	0.00014	8e-05	0.00045	6
30192	6e-05	-0.00012	5e-05	-1e-05	-4e-05	0.00014	8e-05	0.00045	6
30193	6e-05	-0.00012	5e-05	-1e-05	-4e-05	0.00014	8e-05	0.00045	6
30194	6e-05	-0.00012	5e-05	-1e-05	-4e-05	0.00014	8e-05	0.00045	6
30195	6e-05	-0.00012	5e-05	-1e-05	-4e-05	0.00014	8e-05	0.00045	6
30197	6e-05	-0.00012	5e-05	-1e-05	-4e-05	0.00014	8e-05	0.00045	6
30198	6e-05	-0.00012	5e-05	-1e-05	-4e-05	0.00014	8e-05	0.00045	6
30199	0.00019	-6e-05	-1e-05	-1e-05	2e-05	-0.00018	-0.0002	-9e-05	6
30200	0.00019	-6e-05	-1e-05	-1e-05	2e-05	-0.00018	-0.0002	-9e-05	6
30201	0.00011	0.00011	-1e-05	7e-05	0.00034	0.00051	0.00034	0.0002	6
30202	0.00011	0.00011	-1e-05	7e-05	0.00034	0.00051	0.00034	0.0002	6
30203	0.00011	0.00011	-1e-05	7e-05	0.00034	0.00051	0.00034	0.0002	6
30204	0.00011	0.00011	-1e-05	7e-05	0.00034	0.00051	0.00034	0.0002	6
30205	0.00011	0.00011	-1e-05	7e-05	0.00034	0.00051	0.00034	0.0002	6
30206	0.00011	0.00011	-1e-05	7e-05	0.00034	0.00051	0.00034	0.0002	6
30207	0.00011	0.00011	-1e-05	7e-05	0.00034	0.00051	0.00034	0.0002	6
30208	0.00011	0.00011	-1e-05	7e-05	0.00034	0.00051	0.00034	0.0002	6
30209	0.00011	0.00011	-1e-05	7e-05	0.00034	0.00051	0.00034	0.0002	6
30210	0.00011	0.00011	-1e-05	7e-05	0.00034	0.00051	0.00034	0.0002	6
30211	0.00011	0.00011	-1e-05	7e-05	0.00034	0.00051	0.00034	0.0002	6
30212	0.00011	0.00011	-1e-05	7e-05	0.00034	0.00051	0.00034	0.0002	6
30213	-0.00027	-0.00012	-4e-05	-8e-05	-0.00015	-0.00017	-3e-05	5e-05	6
30214	0.00022	0.0004	5e-05	9e-05	0.00021	0.00015	7e-05	-0.00018	6
30215	0.00022	0.0004	5e-05	9e-05	0.00021	0.00015	7e-05	-0.00018	6
30216	0.00022	0.0004	5e-05	9e-05	0.00021	0.00015	7e-05	-0.00018	6
30217	0.00022	0.0004	5e-05	9e-05	0.00021	0.00015	7e-05	-0.00018	6
30218	0.00022	0.0004	5e-05	9e-05	0.00021	0.00015	7e-05	-0.00018	6
30219	0.00022	0.0004	5e-05	9e-05	0.00021	0.00015	7e-05	-0.00018	6
30220	0.00022	0.0004	5e-05	9e-05	0.00021	0.00015	7e-05	-0.00018	6
30221	0.00022	0.0004	5e-05	9e-05	0.00021	0.00015	7e-05	-0.00018	6
30222	0.00022	0.0004	5e-05	9e-05	0.00021	0.00015	7e-05	-0.00018	6
30223	0.00022	0.0004	5e-05	9e-05	0.00021	0.00015	7e-05	-0.00018	6
30224	0.00022	0.0004	5e-05	9e-05	0.00021	0.00015	7e-05	-0.00018	6
30225	0.00022	0.0004	5e-05	9e-05	0.00021	0.00015	7e-05	-0.00018	6
30226	0.00022	0.0004	5e-05	9e-05	0.00021	0.00015	7e-05	-0.00018	6
30227	0.00022	0.0004	5e-05	9e-05	0.00021	0.00015	7e-05	-0.00018	6
30228	2e-05	8e-05	-2e-05	2e-05	5e-05	0	-1e-05	-0.00014	6
30229	-0.00016	-3e-05	-0.0001	-0.0001	-0.00017	-0.00017	-6e-05	-0.00016	6
30230	-0.00016	-3e-05	-0.0001	-0.0001	-0.00017	-0.00017	-6e-05	-0.00016	6
30231	-0.00016	-3e-05	-0.0001	-0.0001	-0.00017	-0.00017	-6e-05	-0.00016	6
30232	-0.00016	-3e-05	-0.0001	-0.0001	-0.00017	-0.00017	-6e-05	-0.00016	6
30233	-0.00016	-3e-05	-0.0001	-0.0001	-0.00017	-0.00017	-6e-05	-0.00016	6
30234	-0.00016	-3e-05	-0.0001	-0.0001	-0.00017	-0.00017	-6e-05	-0.00016	6
30235	-0.00016	-3e-05	-0.0001	-0.0001	-0.00017	-0.00017	-6e-05	-0.00016	6
30236	-0.00016	-3e-05	-0.0001	-0.0001	-0.00017	-0.00017	-6e-05	-0.00016	6
30238	-0.00016	-3e-05	-0.0001	-0.0001	-0.00017	-0.00017	-6e-05	-0.00016	6
30240	-0.00016	-3e-05	-0.0001	-0.0001	-0.00017	-0.00017	-6e-05	-0.00016	6
30241	-0.00016	-3e-05	-0.0001	-0.0001	-0.00017	-0.00017	-6e-05	-0.00016	6
30242	-0.00016	-3e-05	-0.0001	-0.0001	-0.00017	-0.00017	-6e-05	-0.00016	6
30243	-0.00016	-3e-05	-0.0001	-0.0001	-0.00017	-0.00017	-6e-05	-0.00016	6
30244	-0.00016	-3e-05	-0.0001	-0.0001	-0.00017	-0.00017	-6e-05	-0.00016	6
30245	-0.00016	-3e-05	-0.0001	-0.0001	-0.00017	-0.00017	-6e-05	-0.00016	6
30246	-0.00016	-3e-05	-0.0001	-0.0001	-0.00017	-0.00017	-6e-05	-0.00016	6
30247	-0.00016	-3e-05	-0.0001	-0.0001	-0.00017	-0.00017	-6e-05	-0.00016	6
30248	-0.00016	-3e-05	-0.0001	-0.0001	-0.00017	-0.00017	-6e-05	-0.00016	6
30250	0.00012	-3e-05	-3e-05	4e-05	0.00011	-6e-05	0.00013	0.00017	6
30251	0.00064	0.00043	0	-6e-05	9e-05	0	3e-05	0.00027	6
30252	0.00064	0.00043	0	-6e-05	9e-05	0	3e-05	0.00027	6
30253	0.00064	0.00043	0	-6e-05	9e-05	0	3e-05	0.00027	6
30254	0.00064	0.00043	0	-6e-05	9e-05	0	3e-05	0.00027	6
30255	0.00064	0.00043	0	-6e-05	9e-05	0	3e-05	0.00027	6
30256	0.00064	0.00043	0	-6e-05	9e-05	0	3e-05	0.00027	6
30257	0.00064	0.00043	0	-6e-05	9e-05	0	3e-05	0.00027	6
30258	0.00064	0.00043	0	-6e-05	9e-05	0	3e-05	0.00027	6
30259	0.00064	0.00043	0	-6e-05	9e-05	0	3e-05	0.00027	6
30260	0.00064	0.00043	0	-6e-05	9e-05	0	3e-05	0.00027	6
30261	0.00064	0.00043	0	-6e-05	9e-05	0	3e-05	0.00027	6
30262	0.00064	0.00043	0	-6e-05	9e-05	0	3e-05	0.00027	6
30263	0.00064	0.00043	0	-6e-05	9e-05	0	3e-05	0.00027	6
30264	0.00064	0.00043	0	-6e-05	9e-05	0	3e-05	0.00027	6
30265	0.00064	0.00043	0	-6e-05	9e-05	0	3e-05	0.00027	6
30266	0.00064	0.00043	0	-6e-05	9e-05	0	3e-05	0.00027	6
30267	0.00064	0.00043	0	-6e-05	9e-05	0	3e-05	0.00027	6
30268	0.00064	0.00043	0	-6e-05	9e-05	0	3e-05	0.00027	6
30269	0.00064	0.00043	0	-6e-05	9e-05	0	3e-05	0.00027	6
30270	0.00064	0.00043	0	-6e-05	9e-05	0	3e-05	0.00027	6
30271	0.00064	0.00043	0	-6e-05	9e-05	0	3e-05	0.00027	6
30272	0.00064	0.00043	0	-6e-05	9e-05	0	3e-05	0.00027	6
30273	0.0001	9e-05	5e-05	-1e-05	-6e-05	-6e-05	6e-05	0.00013	6
30274	-0.00075	-0.00034	3e-05	-3e-05	-0.00015	-0.00011	-8e-05	0	6
30275	-0.00075	-0.00034	3e-05	-3e-05	-0.00015	-0.00011	-8e-05	0	6
30276	-0.00075	-0.00034	3e-05	-3e-05	-0.00015	-0.00011	-8e-05	0	6
30277	-0.00075	-0.00034	3e-05	-3e-05	-0.00015	-0.00011	-8e-05	0	6
30278	-0.00075	-0.00034	3e-05	-3e-05	-0.00015	-0.00011	-8e-05	0	6
30279	-0.00075	-0.00034	3e-05	-3e-05	-0.00015	-0.00011	-8e-05	0	6
30280	-0.00075	-0.00034	3e-05	-3e-05	-0.00015	-0.00011	-8e-05	0	6
30281	-0.00075	-0.00034	3e-05	-3e-05	-0.00015	-0.00011	-8e-05	0	6
30282	-0.00075	-0.00034	3e-05	-3e-05	-0.00015	-0.00011	-8e-05	0	6
30283	-0.00075	-0.00034	3e-05	-3e-05	-0.00015	-0.00011	-8e-05	0	6
30284	-0.00075	-0.00034	3e-05	-3e-05	-0.00015	-0.00011	-8e-05	0	6
30285	-0.00075	-0.00034	3e-05	-3e-05	-0.00015	-0.00011	-8e-05	0	6
30286	-0.00075	-0.00034	3e-05	-3e-05	-0.00015	-0.00011	-8e-05	0	6
30289	0.00028	2e-05	4e-05	6e-05	1e-05	3e-05	0.00018	6e-05	6
30290	0.00028	2e-05	4e-05	6e-05	1e-05	3e-05	0.00018	6e-05	6
30291	0.00028	2e-05	4e-05	6e-05	1e-05	3e-05	0.00018	6e-05	6
30292	0.00028	2e-05	4e-05	6e-05	1e-05	3e-05	0.00018	6e-05	6
30293	0.00028	2e-05	4e-05	6e-05	1e-05	3e-05	0.00018	6e-05	6
30294	0.00028	2e-05	4e-05	6e-05	1e-05	3e-05	0.00018	6e-05	6
30295	0.00028	2e-05	4e-05	6e-05	1e-05	3e-05	0.00018	6e-05	6
30296	0.00028	2e-05	4e-05	6e-05	1e-05	3e-05	0.00018	6e-05	6
30297	0.00028	2e-05	4e-05	6e-05	1e-05	3e-05	0.00018	6e-05	6
30298	0.00028	2e-05	4e-05	6e-05	1e-05	3e-05	0.00018	6e-05	6
30299	0.00028	2e-05	4e-05	6e-05	1e-05	3e-05	0.00018	6e-05	6
30300	0.00028	2e-05	4e-05	6e-05	1e-05	3e-05	0.00018	6e-05	6
30301	0.00028	2e-05	4e-05	6e-05	1e-05	3e-05	0.00018	6e-05	6
30302	0.00028	2e-05	4e-05	6e-05	1e-05	3e-05	0.00018	6e-05	6
30303	0.00028	2e-05	4e-05	6e-05	1e-05	3e-05	0.00018	6e-05	6
30304	0.00028	2e-05	4e-05	6e-05	1e-05	3e-05	0.00018	6e-05	6
30305	0.00028	2e-05	4e-05	6e-05	1e-05	3e-05	0.00018	6e-05	6
30306	0.00028	2e-05	4e-05	6e-05	1e-05	3e-05	0.00018	6e-05	6
30307	0.00028	2e-05	4e-05	6e-05	1e-05	3e-05	0.00018	6e-05	6
30308	0.00028	2e-05	4e-05	6e-05	1e-05	3e-05	0.00018	6e-05	6
30309	0.00028	2e-05	4e-05	6e-05	1e-05	3e-05	0.00018	6e-05	6
30310	0.00013	0.0002	6e-05	4e-05	-1e-05	-7e-05	-0.0001	-4e-05	6
30311	-0.00049	-0.00063	-0.00012	-8e-05	-0.0002	-0.00019	-0.00033	-0.00028	6
30312	-0.00049	-0.00063	-0.00012	-8e-05	-0.0002	-0.00019	-0.00033	-0.00028	6
30313	-0.00049	-0.00063	-0.00012	-8e-05	-0.0002	-0.00019	-0.00033	-0.00028	6
30314	-0.00049	-0.00063	-0.00012	-8e-05	-0.0002	-0.00019	-0.00033	-0.00028	6
30315	-0.00049	-0.00063	-0.00012	-8e-05	-0.0002	-0.00019	-0.00033	-0.00028	6
30316	-0.00049	-0.00063	-0.00012	-8e-05	-0.0002	-0.00019	-0.00033	-0.00028	6
30317	-0.00049	-0.00063	-0.00012	-8e-05	-0.0002	-0.00019	-0.00033	-0.00028	6
30318	-0.00049	-0.00063	-0.00012	-8e-05	-0.0002	-0.00019	-0.00033	-0.00028	6
30319	-0.00049	-0.00063	-0.00012	-8e-05	-0.0002	-0.00019	-0.00033	-0.00028	6
30320	-0.00049	-0.00063	-0.00012	-8e-05	-0.0002	-0.00019	-0.00033	-0.00028	6
30321	-0.00049	-0.00063	-0.00012	-8e-05	-0.0002	-0.00019	-0.00033	-0.00028	6
30322	-0.00049	-0.00063	-0.00012	-8e-05	-0.0002	-0.00019	-0.00033	-0.00028	6
30323	-0.00049	-0.00063	-0.00012	-8e-05	-0.0002	-0.00019	-0.00033	-0.00028	6
30324	-0.00049	-0.00063	-0.00012	-8e-05	-0.0002	-0.00019	-0.00033	-0.00028	6
30325	-0.00049	-0.00063	-0.00012	-8e-05	-0.0002	-0.00019	-0.00033	-0.00028	6
30326	-0.00049	-0.00063	-0.00012	-8e-05	-0.0002	-0.00019	-0.00033	-0.00028	6
30327	-0.00049	-0.00063	-0.00012	-8e-05	-0.0002	-0.00019	-0.00033	-0.00028	6
30328	-0.00049	-0.00063	-0.00012	-8e-05	-0.0002	-0.00019	-0.00033	-0.00028	6
30329	-0.00049	-0.00063	-0.00012	-8e-05	-0.0002	-0.00019	-0.00033	-0.00028	6
30330	-0.00049	-0.00063	-0.00012	-8e-05	-0.0002	-0.00019	-0.00033	-0.00028	6
30331	-0.00049	-0.00063	-0.00012	-8e-05	-0.0002	-0.00019	-0.00033	-0.00028	6
30332	-0.00049	-0.00063	-0.00012	-8e-05	-0.0002	-0.00019	-0.00033	-0.00028	6
30333	7e-05	7e-05	6e-05	7e-05	6e-05	7e-05	-0.00016	-0.00028	6
30334	7e-05	7e-05	6e-05	7e-05	6e-05	7e-05	-0.00016	-0.00028	6
30335	7e-05	7e-05	6e-05	7e-05	6e-05	7e-05	-0.00016	-0.00028	6
30336	7e-05	7e-05	6e-05	7e-05	6e-05	7e-05	-0.00016	-0.00028	6
30339	7e-05	7e-05	6e-05	7e-05	6e-05	7e-05	-0.00016	-0.00028	6
30340	7e-05	7e-05	6e-05	7e-05	6e-05	7e-05	-0.00016	-0.00028	6
30341	7e-05	7e-05	6e-05	7e-05	6e-05	7e-05	-0.00016	-0.00028	6
30342	7e-05	7e-05	6e-05	7e-05	6e-05	7e-05	-0.00016	-0.00028	6
30343	7e-05	7e-05	6e-05	7e-05	6e-05	7e-05	-0.00016	-0.00028	6
30344	7e-05	7e-05	6e-05	7e-05	6e-05	7e-05	-0.00016	-0.00028	6
30345	7e-05	7e-05	6e-05	7e-05	6e-05	7e-05	-0.00016	-0.00028	6
30346	7e-05	7e-05	6e-05	7e-05	6e-05	7e-05	-0.00016	-0.00028	6
30347	7e-05	7e-05	6e-05	7e-05	6e-05	7e-05	-0.00016	-0.00028	6
30348	7e-05	7e-05	6e-05	7e-05	6e-05	7e-05	-0.00016	-0.00028	6
30349	-0.00022	-0.00039	-7e-05	-8e-05	-0.00022	-0.00016	-0.00011	-0.0001	6
30350	7e-05	0.00018	2e-05	-4e-05	-6e-05	1e-05	4e-05	-0.00022	6
30351	7e-05	0.00018	2e-05	-4e-05	-6e-05	1e-05	4e-05	-0.00022	6
30352	7e-05	0.00018	2e-05	-4e-05	-6e-05	1e-05	4e-05	-0.00022	6
30353	7e-05	0.00018	2e-05	-4e-05	-6e-05	1e-05	4e-05	-0.00022	6
30354	7e-05	0.00018	2e-05	-4e-05	-6e-05	1e-05	4e-05	-0.00022	6
30355	7e-05	0.00018	2e-05	-4e-05	-6e-05	1e-05	4e-05	-0.00022	6
30356	7e-05	0.00018	2e-05	-4e-05	-6e-05	1e-05	4e-05	-0.00022	6
30357	7e-05	0.00018	2e-05	-4e-05	-6e-05	1e-05	4e-05	-0.00022	6
30358	7e-05	0.00018	2e-05	-4e-05	-6e-05	1e-05	4e-05	-0.00022	6
30359	7e-05	0.00018	2e-05	-4e-05	-6e-05	1e-05	4e-05	-0.00022	6
30360	7e-05	0.00018	2e-05	-4e-05	-6e-05	1e-05	4e-05	-0.00022	6
30361	7e-05	0.00018	2e-05	-4e-05	-6e-05	1e-05	4e-05	-0.00022	6
30362	7e-05	0.00018	2e-05	-4e-05	-6e-05	1e-05	4e-05	-0.00022	6
30363	7e-05	0.00018	2e-05	-4e-05	-6e-05	1e-05	4e-05	-0.00022	6
30364	7e-05	0.00018	2e-05	-4e-05	-6e-05	1e-05	4e-05	-0.00022	6
30365	7e-05	0.00018	2e-05	-4e-05	-6e-05	1e-05	4e-05	-0.00022	6
30366	7e-05	0.00018	2e-05	-4e-05	-6e-05	1e-05	4e-05	-0.00022	6
30367	7e-05	0.00018	2e-05	-4e-05	-6e-05	1e-05	4e-05	-0.00022	6
30368	7e-05	0.00018	2e-05	-4e-05	-6e-05	1e-05	4e-05	-0.00022	6
30369	7e-05	0.00018	2e-05	-4e-05	-6e-05	1e-05	4e-05	-0.00022	6
30370	7e-05	0.00018	2e-05	-4e-05	-6e-05	1e-05	4e-05	-0.00022	6
30371	7e-05	0.00018	2e-05	-4e-05	-6e-05	1e-05	4e-05	-0.00022	6
30372	7e-05	0.00018	2e-05	-4e-05	-6e-05	1e-05	4e-05	-0.00022	6
30373	7e-05	0.00018	2e-05	-4e-05	-6e-05	1e-05	4e-05	-0.00022	6
30374	7e-05	0.00018	2e-05	-4e-05	-6e-05	1e-05	4e-05	-0.00022	6
30375	7e-05	0.00018	2e-05	-4e-05	-6e-05	1e-05	4e-05	-0.00022	6
30376	7e-05	0.00018	2e-05	-4e-05	-6e-05	1e-05	4e-05	-0.00022	6
30377	7e-05	0.00018	2e-05	-4e-05	-6e-05	1e-05	4e-05	-0.00022	6
30378	-0.00069	-0.00033	-0.00014	9e-05	0.00032	5e-05	5e-05	-8e-05	6
30379	0.00024	8e-05	-6e-05	-1e-05	-0.0001	-1e-05	1e-05	8e-05	6
30380	0.00024	8e-05	-6e-05	-1e-05	-0.0001	-1e-05	1e-05	8e-05	6
30381	0.00024	8e-05	-6e-05	-1e-05	-0.0001	-1e-05	1e-05	8e-05	6
30382	0.00024	8e-05	-6e-05	-1e-05	-0.0001	-1e-05	1e-05	8e-05	6
30383	0.00024	8e-05	-6e-05	-1e-05	-0.0001	-1e-05	1e-05	8e-05	6
30384	0.00024	8e-05	-6e-05	-1e-05	-0.0001	-1e-05	1e-05	8e-05	6
30385	0.00024	8e-05	-6e-05	-1e-05	-0.0001	-1e-05	1e-05	8e-05	6
30386	0.00024	8e-05	-6e-05	-1e-05	-0.0001	-1e-05	1e-05	8e-05	6
30388	0.00024	8e-05	-6e-05	-1e-05	-0.0001	-1e-05	1e-05	8e-05	6
30389	0.00024	8e-05	-6e-05	-1e-05	-0.0001	-1e-05	1e-05	8e-05	6
30390	0.00024	8e-05	-6e-05	-1e-05	-0.0001	-1e-05	1e-05	8e-05	6
30391	0.00024	8e-05	-6e-05	-1e-05	-0.0001	-1e-05	1e-05	8e-05	6
30392	0.00024	8e-05	-6e-05	-1e-05	-0.0001	-1e-05	1e-05	8e-05	6
30393	0.00024	8e-05	-6e-05	-1e-05	-0.0001	-1e-05	1e-05	8e-05	6
30394	0.00024	8e-05	-6e-05	-1e-05	-0.0001	-1e-05	1e-05	8e-05	6
30395	0.00024	8e-05	-6e-05	-1e-05	-0.0001	-1e-05	1e-05	8e-05	6
30396	0.00024	8e-05	-6e-05	-1e-05	-0.0001	-1e-05	1e-05	8e-05	6
30397	0.00024	8e-05	-6e-05	-1e-05	-0.0001	-1e-05	1e-05	8e-05	6
30398	0.00024	8e-05	-6e-05	-1e-05	-0.0001	-1e-05	1e-05	8e-05	6
30399	0.00024	8e-05	-6e-05	-1e-05	-0.0001	-1e-05	1e-05	8e-05	6
30400	0.00024	8e-05	-6e-05	-1e-05	-0.0001	-1e-05	1e-05	8e-05	6
30401	-4e-05	-4e-05	6e-05	-8e-05	-0.00021	-0.00012	-0.00027	-0.00048	6
30402	-0.0002	-0.00023	1e-05	4e-05	0.00011	4e-05	0.00044	0.00014	6
30403	-0.0002	-0.00023	1e-05	4e-05	0.00011	4e-05	0.00044	0.00014	6
30404	-0.0002	-0.00023	1e-05	4e-05	0.00011	4e-05	0.00044	0.00014	6
30405	-0.0002	-0.00023	1e-05	4e-05	0.00011	4e-05	0.00044	0.00014	6
30406	-0.0002	-0.00023	1e-05	4e-05	0.00011	4e-05	0.00044	0.00014	6
30407	-0.0002	-0.00023	1e-05	4e-05	0.00011	4e-05	0.00044	0.00014	6
30408	-7e-05	-0.00018	3e-05	0.00013	0.00016	-5e-05	-2e-05	-2e-05	6
30409	-7e-05	-0.00018	3e-05	0.00013	0.00016	-5e-05	-2e-05	-2e-05	6
30410	-7e-05	-0.00018	3e-05	0.00013	0.00016	-5e-05	-2e-05	-2e-05	6
30411	-7e-05	-0.00018	3e-05	0.00013	0.00016	-5e-05	-2e-05	-2e-05	6
30412	-7e-05	-0.00018	3e-05	0.00013	0.00016	-5e-05	-2e-05	-2e-05	6
30413	-7e-05	-0.00018	3e-05	0.00013	0.00016	-5e-05	-2e-05	-2e-05	6
30414	-7e-05	-0.00018	3e-05	0.00013	0.00016	-5e-05	-2e-05	-2e-05	6
30415	-7e-05	-0.00018	3e-05	0.00013	0.00016	-5e-05	-2e-05	-2e-05	6
30416	-7e-05	-0.00018	3e-05	0.00013	0.00016	-5e-05	-2e-05	-2e-05	6
30417	-7e-05	-0.00018	3e-05	0.00013	0.00016	-5e-05	-2e-05	-2e-05	6
30418	-7e-05	-0.00018	3e-05	0.00013	0.00016	-5e-05	-2e-05	-2e-05	6
30419	-7e-05	-0.00018	3e-05	0.00013	0.00016	-5e-05	-2e-05	-2e-05	6
30420	-7e-05	-0.00018	3e-05	0.00013	0.00016	-5e-05	-2e-05	-2e-05	6
30421	-7e-05	-0.00018	3e-05	0.00013	0.00016	-5e-05	-2e-05	-2e-05	6
30422	-7e-05	-0.00018	3e-05	0.00013	0.00016	-5e-05	-2e-05	-2e-05	6
30423	-7e-05	-0.00018	3e-05	0.00013	0.00016	-5e-05	-2e-05	-2e-05	6
30424	-7e-05	-0.00018	3e-05	0.00013	0.00016	-5e-05	-2e-05	-2e-05	6
30425	-7e-05	-0.00018	3e-05	0.00013	0.00016	-5e-05	-2e-05	-2e-05	6
30426	-7e-05	-0.00018	3e-05	0.00013	0.00016	-5e-05	-2e-05	-2e-05	6
30427	-7e-05	-0.00018	3e-05	0.00013	0.00016	-5e-05	-2e-05	-2e-05	6
30428	-7e-05	-0.00018	3e-05	0.00013	0.00016	-5e-05	-2e-05	-2e-05	6
30429	-7e-05	-0.00018	3e-05	0.00013	0.00016	-5e-05	-2e-05	-2e-05	6
30430	-0.00021	-0.00017	7e-05	-3e-05	-1e-05	3e-05	7e-05	0	6
30431	-0.00021	-0.00017	7e-05	-3e-05	-1e-05	3e-05	7e-05	0	6
30432	-4e-05	5e-05	-8e-05	-8e-05	-3e-05	7e-05	-0.0001	-0.00012	6
30433	-4e-05	5e-05	-8e-05	-8e-05	-3e-05	7e-05	-0.0001	-0.00012	6
30434	-4e-05	5e-05	-8e-05	-8e-05	-3e-05	7e-05	-0.0001	-0.00012	6
30435	-4e-05	5e-05	-8e-05	-8e-05	-3e-05	7e-05	-0.0001	-0.00012	6
30436	-4e-05	5e-05	-8e-05	-8e-05	-3e-05	7e-05	-0.0001	-0.00012	6
30438	-4e-05	5e-05	-8e-05	-8e-05	-3e-05	7e-05	-0.0001	-0.00012	6
30440	-4e-05	5e-05	-8e-05	-8e-05	-3e-05	7e-05	-0.0001	-0.00012	6
30441	-4e-05	5e-05	-8e-05	-8e-05	-3e-05	7e-05	-0.0001	-0.00012	6
30442	-4e-05	5e-05	-8e-05	-8e-05	-3e-05	7e-05	-0.0001	-0.00012	6
30443	-4e-05	5e-05	-8e-05	-8e-05	-3e-05	7e-05	-0.0001	-0.00012	6
30444	-4e-05	5e-05	-8e-05	-8e-05	-3e-05	7e-05	-0.0001	-0.00012	6
30445	-4e-05	5e-05	-8e-05	-8e-05	-3e-05	7e-05	-0.0001	-0.00012	6
30446	-4e-05	5e-05	-8e-05	-8e-05	-3e-05	7e-05	-0.0001	-0.00012	6
30447	-4e-05	5e-05	-8e-05	-8e-05	-3e-05	7e-05	-0.0001	-0.00012	6
30448	-4e-05	5e-05	-8e-05	-8e-05	-3e-05	7e-05	-0.0001	-0.00012	6
30449	-4e-05	5e-05	-8e-05	-8e-05	-3e-05	7e-05	-0.0001	-0.00012	6
30450	-4e-05	5e-05	-8e-05	-8e-05	-3e-05	7e-05	-0.0001	-0.00012	6
30451	-4e-05	5e-05	-8e-05	-8e-05	-3e-05	7e-05	-0.0001	-0.00012	6
30452	-4e-05	5e-05	-8e-05	-8e-05	-3e-05	7e-05	-0.0001	-0.00012	6
30453	0.00032	0.00011	9e-05	0.00013	0.0002	7e-05	-5e-05	0.00029	6
30454	-7e-05	-9e-05	-0.0001	-4e-05	-6e-05	-5e-05	-1e-05	-8e-05	6
30455	-7e-05	-9e-05	-0.0001	-4e-05	-6e-05	-5e-05	-1e-05	-8e-05	6
30456	-7e-05	-9e-05	-0.0001	-4e-05	-6e-05	-5e-05	-1e-05	-8e-05	6
30457	-7e-05	-9e-05	-0.0001	-4e-05	-6e-05	-5e-05	-1e-05	-8e-05	6
30458	-7e-05	-9e-05	-0.0001	-4e-05	-6e-05	-5e-05	-1e-05	-8e-05	6
30459	-7e-05	-9e-05	-0.0001	-4e-05	-6e-05	-5e-05	-1e-05	-8e-05	6
30460	-7e-05	-9e-05	-0.0001	-4e-05	-6e-05	-5e-05	-1e-05	-8e-05	6
30461	-7e-05	-9e-05	-0.0001	-4e-05	-6e-05	-5e-05	-1e-05	-8e-05	6
30462	-7e-05	-9e-05	-0.0001	-4e-05	-6e-05	-5e-05	-1e-05	-8e-05	6
30463	-7e-05	-9e-05	-0.0001	-4e-05	-6e-05	-5e-05	-1e-05	-8e-05	6
30464	-7e-05	-9e-05	-0.0001	-4e-05	-6e-05	-5e-05	-1e-05	-8e-05	6
30465	-7e-05	-9e-05	-0.0001	-4e-05	-6e-05	-5e-05	-1e-05	-8e-05	6
30466	-7e-05	-9e-05	-0.0001	-4e-05	-6e-05	-5e-05	-1e-05	-8e-05	6
30467	-7e-05	-9e-05	-0.0001	-4e-05	-6e-05	-5e-05	-1e-05	-8e-05	6
30468	-7e-05	-9e-05	-0.0001	-4e-05	-6e-05	-5e-05	-1e-05	-8e-05	6
30469	-7e-05	-9e-05	-0.0001	-4e-05	-6e-05	-5e-05	-1e-05	-8e-05	6
30470	-7e-05	-9e-05	-0.0001	-4e-05	-6e-05	-5e-05	-1e-05	-8e-05	6
30471	-7e-05	-9e-05	-0.0001	-4e-05	-6e-05	-5e-05	-1e-05	-8e-05	6
30472	-7e-05	-9e-05	-0.0001	-4e-05	-6e-05	-5e-05	-1e-05	-8e-05	6
30473	-7e-05	-9e-05	-0.0001	-4e-05	-6e-05	-5e-05	-1e-05	-8e-05	6
30474	-7e-05	-9e-05	-0.0001	-4e-05	-6e-05	-5e-05	-1e-05	-8e-05	6
30475	-7e-05	-9e-05	-0.0001	-4e-05	-6e-05	-5e-05	-1e-05	-8e-05	6
30476	0.00023	0.00013	2e-05	-5e-05	-0.00013	2e-05	0.0002	-0.0001	6
30477	0.00023	0.0001	8e-05	7e-05	-2e-05	5e-05	-7e-05	0.00011	6
30478	0.00023	0.0001	8e-05	7e-05	-2e-05	5e-05	-7e-05	0.00011	6
30479	0.00023	0.0001	8e-05	7e-05	-2e-05	5e-05	-7e-05	0.00011	6
30480	0.00023	0.0001	8e-05	7e-05	-2e-05	5e-05	-7e-05	0.00011	6
30481	0.00023	0.0001	8e-05	7e-05	-2e-05	5e-05	-7e-05	0.00011	6
30482	0.00023	0.0001	8e-05	7e-05	-2e-05	5e-05	-7e-05	0.00011	6
30483	0.00023	0.0001	8e-05	7e-05	-2e-05	5e-05	-7e-05	0.00011	6
30484	0.00023	0.0001	8e-05	7e-05	-2e-05	5e-05	-7e-05	0.00011	6
30485	0.00023	0.0001	8e-05	7e-05	-2e-05	5e-05	-7e-05	0.00011	6
30486	0.00023	0.0001	8e-05	7e-05	-2e-05	5e-05	-7e-05	0.00011	6
30488	0.00023	0.0001	8e-05	7e-05	-2e-05	5e-05	-7e-05	0.00011	6
30489	0.00023	0.0001	8e-05	7e-05	-2e-05	5e-05	-7e-05	0.00011	6
30490	0.00023	0.0001	8e-05	7e-05	-2e-05	5e-05	-7e-05	0.00011	6
30491	-0.0001	-9e-05	-0.0001	-0.00015	-0.00023	-0.00021	-5e-05	-1e-05	6
30492	-0.0001	-9e-05	-0.0001	-0.00015	-0.00023	-0.00021	-5e-05	-1e-05	6
30493	-0.0001	-9e-05	-0.0001	-0.00015	-0.00023	-0.00021	-5e-05	-1e-05	6
30494	-0.0001	-9e-05	-0.0001	-0.00015	-0.00023	-0.00021	-5e-05	-1e-05	6
30495	-0.0001	-9e-05	-0.0001	-0.00015	-0.00023	-0.00021	-5e-05	-1e-05	6
30496	-0.0001	-9e-05	-0.0001	-0.00015	-0.00023	-0.00021	-5e-05	-1e-05	6
30497	-0.0001	-9e-05	-0.0001	-0.00015	-0.00023	-0.00021	-5e-05	-1e-05	6
30498	5e-05	2e-05	5e-05	-2e-05	-4e-05	-2e-05	-1e-05	-2e-05	6
30499	5e-05	2e-05	5e-05	-2e-05	-4e-05	-2e-05	-1e-05	-2e-05	6
30500	5e-05	2e-05	5e-05	-2e-05	-4e-05	-2e-05	-1e-05	-2e-05	6
30501	5e-05	2e-05	5e-05	-2e-05	-4e-05	-2e-05	-1e-05	-2e-05	6
30502	5e-05	2e-05	5e-05	-2e-05	-4e-05	-2e-05	-1e-05	-2e-05	6
30503	5e-05	2e-05	5e-05	-2e-05	-4e-05	-2e-05	-1e-05	-2e-05	6
30504	5e-05	2e-05	5e-05	-2e-05	-4e-05	-2e-05	-1e-05	-2e-05	6
30505	5e-05	2e-05	5e-05	-2e-05	-4e-05	-2e-05	-1e-05	-2e-05	6
30506	5e-05	2e-05	5e-05	-2e-05	-4e-05	-2e-05	-1e-05	-2e-05	6
30507	5e-05	2e-05	5e-05	-2e-05	-4e-05	-2e-05	-1e-05	-2e-05	6
30508	5e-05	2e-05	5e-05	-2e-05	-4e-05	-2e-05	-1e-05	-2e-05	6
30509	5e-05	2e-05	5e-05	-2e-05	-4e-05	-2e-05	-1e-05	-2e-05	6
30510	5e-05	2e-05	5e-05	-2e-05	-4e-05	-2e-05	-1e-05	-2e-05	6
30511	5e-05	2e-05	5e-05	-2e-05	-4e-05	-2e-05	-1e-05	-2e-05	6
30512	5e-05	2e-05	5e-05	-2e-05	-4e-05	-2e-05	-1e-05	-2e-05	6
30513	8e-05	-0.0001	-0.00021	-0.00012	-0.0001	-9e-05	-0.00021	0.00023	6
30514	-0.00018	-8e-05	-2e-05	-4e-05	-7e-05	-5e-05	-1e-05	-1e-05	6
30515	-0.00018	-8e-05	-2e-05	-4e-05	-7e-05	-5e-05	-1e-05	-1e-05	6
30516	-0.00018	-8e-05	-2e-05	-4e-05	-7e-05	-5e-05	-1e-05	-1e-05	6
30517	-0.00018	-8e-05	-2e-05	-4e-05	-7e-05	-5e-05	-1e-05	-1e-05	6
30518	-0.00018	-8e-05	-2e-05	-4e-05	-7e-05	-5e-05	-1e-05	-1e-05	6
30519	-0.00018	-8e-05	-2e-05	-4e-05	-7e-05	-5e-05	-1e-05	-1e-05	6
30520	-0.00018	-8e-05	-2e-05	-4e-05	-7e-05	-5e-05	-1e-05	-1e-05	6
30521	-0.00018	-8e-05	-2e-05	-4e-05	-7e-05	-5e-05	-1e-05	-1e-05	6
30522	-0.00018	-8e-05	-2e-05	-4e-05	-7e-05	-5e-05	-1e-05	-1e-05	6
30523	-0.00018	-8e-05	-2e-05	-4e-05	-7e-05	-5e-05	-1e-05	-1e-05	6
30524	-0.00018	-8e-05	-2e-05	-4e-05	-7e-05	-5e-05	-1e-05	-1e-05	6
30525	-0.00018	-8e-05	-2e-05	-4e-05	-7e-05	-5e-05	-1e-05	-1e-05	6
30526	-0.00018	-8e-05	-2e-05	-4e-05	-7e-05	-5e-05	-1e-05	-1e-05	6
30527	-0.00018	-8e-05	-2e-05	-4e-05	-7e-05	-5e-05	-1e-05	-1e-05	6
30528	-0.00018	-8e-05	-2e-05	-4e-05	-7e-05	-5e-05	-1e-05	-1e-05	6
30529	0.00011	0.00031	8e-05	2e-05	2e-05	2e-05	5e-05	-0.0002	6
30530	-4e-05	6e-05	4e-05	6e-05	0.00011	0.00015	-6e-05	-0.00034	6
30531	-4e-05	6e-05	4e-05	6e-05	0.00011	0.00015	-6e-05	-0.00034	6
30532	-4e-05	6e-05	4e-05	6e-05	0.00011	0.00015	-6e-05	-0.00034	6
30533	-4e-05	6e-05	4e-05	6e-05	0.00011	0.00015	-6e-05	-0.00034	6
30534	-4e-05	6e-05	4e-05	6e-05	0.00011	0.00015	-6e-05	-0.00034	6
30535	-4e-05	6e-05	4e-05	6e-05	0.00011	0.00015	-6e-05	-0.00034	6
30536	-4e-05	6e-05	4e-05	6e-05	0.00011	0.00015	-6e-05	-0.00034	6
30539	-4e-05	6e-05	4e-05	6e-05	0.00011	0.00015	-6e-05	-0.00034	6
30540	-4e-05	6e-05	4e-05	6e-05	0.00011	0.00015	-6e-05	-0.00034	6
30541	-4e-05	6e-05	4e-05	6e-05	0.00011	0.00015	-6e-05	-0.00034	6
30542	-4e-05	6e-05	4e-05	6e-05	0.00011	0.00015	-6e-05	-0.00034	6
30543	-4e-05	6e-05	4e-05	6e-05	0.00011	0.00015	-6e-05	-0.00034	6
30544	-4e-05	6e-05	4e-05	6e-05	0.00011	0.00015	-6e-05	-0.00034	6
30545	-4e-05	6e-05	4e-05	6e-05	0.00011	0.00015	-6e-05	-0.00034	6
30546	-4e-05	6e-05	4e-05	6e-05	0.00011	0.00015	-6e-05	-0.00034	6
30547	-4e-05	6e-05	4e-05	6e-05	0.00011	0.00015	-6e-05	-0.00034	6
30548	-4e-05	6e-05	4e-05	6e-05	0.00011	0.00015	-6e-05	-0.00034	6
30549	-4e-05	6e-05	4e-05	6e-05	0.00011	0.00015	-6e-05	-0.00034	6
30550	5e-05	6e-05	-1e-05	1e-05	-8e-05	-6e-05	-0.0002	-0.00057	6
30551	-8e-05	-5e-05	-2e-05	3e-05	6e-05	3e-05	-2e-05	4e-05	6
30552	-8e-05	-5e-05	-2e-05	3e-05	6e-05	3e-05	-2e-05	4e-05	6
30553	-8e-05	-5e-05	-2e-05	3e-05	6e-05	3e-05	-2e-05	4e-05	6
30554	-8e-05	-5e-05	-2e-05	3e-05	6e-05	3e-05	-2e-05	4e-05	6
30555	-8e-05	-5e-05	-2e-05	3e-05	6e-05	3e-05	-2e-05	4e-05	6
30556	-8e-05	-5e-05	-2e-05	3e-05	6e-05	3e-05	-2e-05	4e-05	6
30557	-8e-05	-5e-05	-2e-05	3e-05	6e-05	3e-05	-2e-05	4e-05	6
30558	-8e-05	-5e-05	-2e-05	3e-05	6e-05	3e-05	-2e-05	4e-05	6
30559	-8e-05	-5e-05	-2e-05	3e-05	6e-05	3e-05	-2e-05	4e-05	6
30560	-8e-05	-5e-05	-2e-05	3e-05	6e-05	3e-05	-2e-05	4e-05	6
30561	-8e-05	-5e-05	-2e-05	3e-05	6e-05	3e-05	-2e-05	4e-05	6
30562	-8e-05	-5e-05	-2e-05	3e-05	6e-05	3e-05	-2e-05	4e-05	6
30563	-8e-05	-5e-05	-2e-05	3e-05	6e-05	3e-05	-2e-05	4e-05	6
30564	-8e-05	-5e-05	-2e-05	3e-05	6e-05	3e-05	-2e-05	4e-05	6
30565	-8e-05	-5e-05	-2e-05	3e-05	6e-05	3e-05	-2e-05	4e-05	6
30566	-8e-05	-5e-05	-2e-05	3e-05	6e-05	3e-05	-2e-05	4e-05	6
30567	-8e-05	-5e-05	-2e-05	3e-05	6e-05	3e-05	-2e-05	4e-05	6
30568	-8e-05	-5e-05	-2e-05	3e-05	6e-05	3e-05	-2e-05	4e-05	6
30569	-8e-05	-5e-05	-2e-05	3e-05	6e-05	3e-05	-2e-05	4e-05	6
30570	-8e-05	-5e-05	-2e-05	3e-05	6e-05	3e-05	-2e-05	4e-05	6
30571	-8e-05	-5e-05	-2e-05	3e-05	6e-05	3e-05	-2e-05	4e-05	6
30572	-8e-05	-5e-05	-2e-05	3e-05	6e-05	3e-05	-2e-05	4e-05	6
30573	-8e-05	-5e-05	-2e-05	3e-05	6e-05	3e-05	-2e-05	4e-05	6
30574	-8e-05	-5e-05	-2e-05	3e-05	6e-05	3e-05	-2e-05	4e-05	6
30575	-8e-05	-5e-05	-2e-05	3e-05	6e-05	3e-05	-2e-05	4e-05	6
30576	-8e-05	-5e-05	-2e-05	3e-05	6e-05	3e-05	-2e-05	4e-05	6
30577	-8e-05	-5e-05	-2e-05	3e-05	6e-05	3e-05	-2e-05	4e-05	6
30578	-8e-05	-5e-05	-2e-05	3e-05	6e-05	3e-05	-2e-05	4e-05	6
30580	-8e-05	-5e-05	-2e-05	3e-05	6e-05	3e-05	-2e-05	4e-05	6
30581	0.00018	0.00014	5e-05	4e-05	-5e-05	1e-05	0.00014	0.00023	6
30582	4e-05	6e-05	3e-05	-6e-05	-6e-05	-4e-05	-0.00014	-3e-05	6
30583	4e-05	6e-05	3e-05	-6e-05	-6e-05	-4e-05	-0.00014	-3e-05	6
30584	4e-05	6e-05	3e-05	-6e-05	-6e-05	-4e-05	-0.00014	-3e-05	6
30586	4e-05	6e-05	3e-05	-6e-05	-6e-05	-4e-05	-0.00014	-3e-05	6
30587	4e-05	6e-05	3e-05	-6e-05	-6e-05	-4e-05	-0.00014	-3e-05	6
30588	0.00019	0.00011	5e-05	0.0001	0.00019	0.00011	0.00017	0.00011	6
30589	0.00019	0.00011	5e-05	0.0001	0.00019	0.00011	0.00017	0.00011	6
30590	0.00019	0.00011	5e-05	0.0001	0.00019	0.00011	0.00017	0.00011	6
30591	0.00019	0.00011	5e-05	0.0001	0.00019	0.00011	0.00017	0.00011	6
30592	0.00019	0.00011	5e-05	0.0001	0.00019	0.00011	0.00017	0.00011	6
30593	0.00019	0.00011	5e-05	0.0001	0.00019	0.00011	0.00017	0.00011	6
30594	0.00019	0.00011	5e-05	0.0001	0.00019	0.00011	0.00017	0.00011	6
30595	0.00019	0.00011	5e-05	0.0001	0.00019	0.00011	0.00017	0.00011	6
30596	0.00019	0.00011	5e-05	0.0001	0.00019	0.00011	0.00017	0.00011	6
30597	0.00019	0.00011	5e-05	0.0001	0.00019	0.00011	0.00017	0.00011	6
30598	0.00019	0.00011	5e-05	0.0001	0.00019	0.00011	0.00017	0.00011	6
30599	0.00019	0.00011	5e-05	0.0001	0.00019	0.00011	0.00017	0.00011	6
30600	0.00019	0.00011	5e-05	0.0001	0.00019	0.00011	0.00017	0.00011	6
30601	0.00019	0.00011	5e-05	0.0001	0.00019	0.00011	0.00017	0.00011	6
30602	0.00019	0.00011	5e-05	0.0001	0.00019	0.00011	0.00017	0.00011	6
30603	0.00019	0.00011	5e-05	0.0001	0.00019	0.00011	0.00017	0.00011	6
30604	0.00019	0.00011	5e-05	0.0001	0.00019	0.00011	0.00017	0.00011	6
30605	0.00019	0.00011	5e-05	0.0001	0.00019	0.00011	0.00017	0.00011	6
30606	0.00019	0.00011	5e-05	0.0001	0.00019	0.00011	0.00017	0.00011	6
30607	0.00019	0.00011	5e-05	0.0001	0.00019	0.00011	0.00017	0.00011	6
30608	0.00019	0.00011	5e-05	0.0001	0.00019	0.00011	0.00017	0.00011	6
30609	0.00019	0.00011	5e-05	0.0001	0.00019	0.00011	0.00017	0.00011	6
30610	-0.0001	-9e-05	-4e-05	2e-05	7e-05	-7e-05	-0.0002	0.0001	6
30611	-0.00022	-0.0001	-4e-05	-3e-05	-0.00013	-7e-05	1e-05	-7e-05	6
30612	-0.00022	-0.0001	-4e-05	-3e-05	-0.00013	-7e-05	1e-05	-7e-05	6
30613	-0.00022	-0.0001	-4e-05	-3e-05	-0.00013	-7e-05	1e-05	-7e-05	6
30614	-0.00022	-0.0001	-4e-05	-3e-05	-0.00013	-7e-05	1e-05	-7e-05	6
30615	-0.00022	-0.0001	-4e-05	-3e-05	-0.00013	-7e-05	1e-05	-7e-05	6
30616	-0.00022	-0.0001	-4e-05	-3e-05	-0.00013	-7e-05	1e-05	-7e-05	6
30617	-0.00022	-0.0001	-4e-05	-3e-05	-0.00013	-7e-05	1e-05	-7e-05	6
30618	-0.00022	-0.0001	-4e-05	-3e-05	-0.00013	-7e-05	1e-05	-7e-05	6
30619	-0.00022	-0.0001	-4e-05	-3e-05	-0.00013	-7e-05	1e-05	-7e-05	6
30620	-0.00022	-0.0001	-4e-05	-3e-05	-0.00013	-7e-05	1e-05	-7e-05	6
30621	-0.00022	-0.0001	-4e-05	-3e-05	-0.00013	-7e-05	1e-05	-7e-05	6
30622	-0.00022	-0.0001	-4e-05	-3e-05	-0.00013	-7e-05	1e-05	-7e-05	6
30623	-0.00022	-0.0001	-4e-05	-3e-05	-0.00013	-7e-05	1e-05	-7e-05	6
30624	-0.00022	-0.0001	-4e-05	-3e-05	-0.00013	-7e-05	1e-05	-7e-05	6
30625	-0.00022	-0.0001	-4e-05	-3e-05	-0.00013	-7e-05	1e-05	-7e-05	6
30626	-0.00022	-0.0001	-4e-05	-3e-05	-0.00013	-7e-05	1e-05	-7e-05	6
30627	-0.00022	-0.0001	-4e-05	-3e-05	-0.00013	-7e-05	1e-05	-7e-05	6
30628	-0.00022	-0.0001	-4e-05	-3e-05	-0.00013	-7e-05	1e-05	-7e-05	6
30629	-0.00022	-0.0001	-4e-05	-3e-05	-0.00013	-7e-05	1e-05	-7e-05	6
30630	-0.00022	-0.0001	-4e-05	-3e-05	-0.00013	-7e-05	1e-05	-7e-05	6
30631	-0.00022	-0.0001	-4e-05	-3e-05	-0.00013	-7e-05	1e-05	-7e-05	6
30633	-9e-05	0.0001	3e-05	-5e-05	-0.0001	-8e-05	-0.00024	-0.00016	6
30634	-0.00016	-3e-05	-2e-05	-3e-05	-5e-05	1e-05	0.00016	0.00046	6
30635	-0.00016	-3e-05	-2e-05	-3e-05	-5e-05	1e-05	0.00016	0.00046	6
30636	-0.00016	-3e-05	-2e-05	-3e-05	-5e-05	1e-05	0.00016	0.00046	6
30639	-0.00016	-3e-05	-2e-05	-3e-05	-5e-05	1e-05	0.00016	0.00046	6
30640	-0.00016	-3e-05	-2e-05	-3e-05	-5e-05	1e-05	0.00016	0.00046	6
30641	-0.00016	-3e-05	-2e-05	-3e-05	-5e-05	1e-05	0.00016	0.00046	6
30642	-0.00016	-3e-05	-2e-05	-3e-05	-5e-05	1e-05	0.00016	0.00046	6
30643	-0.00016	-3e-05	-2e-05	-3e-05	-5e-05	1e-05	0.00016	0.00046	6
30644	-0.00016	-3e-05	-2e-05	-3e-05	-5e-05	1e-05	0.00016	0.00046	6
30645	-0.00016	-3e-05	-2e-05	-3e-05	-5e-05	1e-05	0.00016	0.00046	6
30646	-0.00016	-3e-05	-2e-05	-3e-05	-5e-05	1e-05	0.00016	0.00046	6
30647	-0.00016	-3e-05	-2e-05	-3e-05	-5e-05	1e-05	0.00016	0.00046	6
30648	-0.00016	-3e-05	-2e-05	-3e-05	-5e-05	1e-05	0.00016	0.00046	6
30649	-0.00016	-3e-05	-2e-05	-3e-05	-5e-05	1e-05	0.00016	0.00046	6
30650	-0.00016	-3e-05	-2e-05	-3e-05	-5e-05	1e-05	0.00016	0.00046	6
30651	-0.00016	-3e-05	-2e-05	-3e-05	-5e-05	1e-05	0.00016	0.00046	6
30652	-0.00016	-3e-05	-2e-05	-3e-05	-5e-05	1e-05	0.00016	0.00046	6
30653	-0.00016	-3e-05	-2e-05	-3e-05	-5e-05	1e-05	0.00016	0.00046	6
30654	-0.00016	-3e-05	-2e-05	-3e-05	-5e-05	1e-05	0.00016	0.00046	6
30655	-0.00016	-3e-05	-2e-05	-3e-05	-5e-05	1e-05	0.00016	0.00046	6
30656	-6e-05	7e-05	-9e-05	-8e-05	-8e-05	-0.00012	-0.00022	-0.0002	6
30657	1e-05	-1e-05	-4e-05	-3e-05	7e-05	-4e-05	-0.00032	-0.00044	6
30658	1e-05	-1e-05	-4e-05	-3e-05	7e-05	-4e-05	-0.00032	-0.00044	6
30659	1e-05	-1e-05	-4e-05	-3e-05	7e-05	-4e-05	-0.00032	-0.00044	6
30660	1e-05	-1e-05	-4e-05	-3e-05	7e-05	-4e-05	-0.00032	-0.00044	6
30661	1e-05	-1e-05	-4e-05	-3e-05	7e-05	-4e-05	-0.00032	-0.00044	6
30662	1e-05	-1e-05	-4e-05	-3e-05	7e-05	-4e-05	-0.00032	-0.00044	6
30663	1e-05	-1e-05	-4e-05	-3e-05	7e-05	-4e-05	-0.00032	-0.00044	6
30664	1e-05	-1e-05	-4e-05	-3e-05	7e-05	-4e-05	-0.00032	-0.00044	6
30665	1e-05	-1e-05	-4e-05	-3e-05	7e-05	-4e-05	-0.00032	-0.00044	6
30666	1e-05	-1e-05	-4e-05	-3e-05	7e-05	-4e-05	-0.00032	-0.00044	6
30667	1e-05	-1e-05	-4e-05	-3e-05	7e-05	-4e-05	-0.00032	-0.00044	6
30668	1e-05	-1e-05	-4e-05	-3e-05	7e-05	-4e-05	-0.00032	-0.00044	6
30669	1e-05	-1e-05	-4e-05	-3e-05	7e-05	-4e-05	-0.00032	-0.00044	6
30670	1e-05	-1e-05	-4e-05	-3e-05	7e-05	-4e-05	-0.00032	-0.00044	6
30671	1e-05	-1e-05	-4e-05	-3e-05	7e-05	-4e-05	-0.00032	-0.00044	6
30672	1e-05	-1e-05	-4e-05	-3e-05	7e-05	-4e-05	-0.00032	-0.00044	6
30673	1e-05	-1e-05	-4e-05	-3e-05	7e-05	-4e-05	-0.00032	-0.00044	6
30674	1e-05	-1e-05	-4e-05	-3e-05	7e-05	-4e-05	-0.00032	-0.00044	6
30675	1e-05	-1e-05	-4e-05	-3e-05	7e-05	-4e-05	-0.00032	-0.00044	6
30676	1e-05	-1e-05	-4e-05	-3e-05	7e-05	-4e-05	-0.00032	-0.00044	6
30677	1e-05	-1e-05	-4e-05	-3e-05	7e-05	-4e-05	-0.00032	-0.00044	6
30678	-1e-05	2e-05	2e-05	1e-05	-1e-05	1e-05	0.00022	0.0004	6
30679	-1e-05	2e-05	2e-05	1e-05	-1e-05	1e-05	0.00022	0.0004	6
30680	5e-05	8e-05	-3e-05	-2e-05	-7e-05	-0.00014	4e-05	3e-05	6
30681	5e-05	8e-05	-3e-05	-2e-05	-7e-05	-0.00014	4e-05	3e-05	6
30682	5e-05	8e-05	-3e-05	-2e-05	-7e-05	-0.00014	4e-05	3e-05	6
30683	5e-05	8e-05	-3e-05	-2e-05	-7e-05	-0.00014	4e-05	3e-05	6
30684	5e-05	8e-05	-3e-05	-2e-05	-7e-05	-0.00014	4e-05	3e-05	6
30685	5e-05	8e-05	-3e-05	-2e-05	-7e-05	-0.00014	4e-05	3e-05	6
30686	5e-05	8e-05	-3e-05	-2e-05	-7e-05	-0.00014	4e-05	3e-05	6
30688	5e-05	8e-05	-3e-05	-2e-05	-7e-05	-0.00014	4e-05	3e-05	6
30689	5e-05	8e-05	-3e-05	-2e-05	-7e-05	-0.00014	4e-05	3e-05	6
30690	5e-05	8e-05	-3e-05	-2e-05	-7e-05	-0.00014	4e-05	3e-05	6
30691	5e-05	8e-05	-3e-05	-2e-05	-7e-05	-0.00014	4e-05	3e-05	6
30692	5e-05	8e-05	-3e-05	-2e-05	-7e-05	-0.00014	4e-05	3e-05	6
30693	3e-05	-3e-05	8e-05	0.0002	0.00037	7e-05	0.00023	0.00022	6
30694	3e-05	-3e-05	8e-05	0.0002	0.00037	7e-05	0.00023	0.00022	6
30695	3e-05	-3e-05	8e-05	0.0002	0.00037	7e-05	0.00023	0.00022	6
30696	3e-05	-3e-05	8e-05	0.0002	0.00037	7e-05	0.00023	0.00022	6
30697	3e-05	-3e-05	8e-05	0.0002	0.00037	7e-05	0.00023	0.00022	6
30698	3e-05	-3e-05	8e-05	0.0002	0.00037	7e-05	0.00023	0.00022	6
30699	3e-05	-3e-05	8e-05	0.0002	0.00037	7e-05	0.00023	0.00022	6
30700	3e-05	-3e-05	8e-05	0.0002	0.00037	7e-05	0.00023	0.00022	6
30701	3e-05	-3e-05	8e-05	0.0002	0.00037	7e-05	0.00023	0.00022	6
30702	3e-05	-3e-05	8e-05	0.0002	0.00037	7e-05	0.00023	0.00022	6
30703	3e-05	-3e-05	8e-05	0.0002	0.00037	7e-05	0.00023	0.00022	6
30704	3e-05	-3e-05	8e-05	0.0002	0.00037	7e-05	0.00023	0.00022	6
30705	3e-05	-3e-05	8e-05	0.0002	0.00037	7e-05	0.00023	0.00022	6
30706	3e-05	-3e-05	8e-05	0.0002	0.00037	7e-05	0.00023	0.00022	6
30707	3e-05	-3e-05	8e-05	0.0002	0.00037	7e-05	0.00023	0.00022	6
30708	-0.00037	-0.00013	-7e-05	-0.00014	-0.0003	-0.00023	-0.00047	-0.00034	6
30709	-0.00037	-0.00013	-7e-05	-0.00014	-0.0003	-0.00023	-0.00047	-0.00034	6
30710	-0.00037	-0.00013	-7e-05	-0.00014	-0.0003	-0.00023	-0.00047	-0.00034	6
30711	-0.00037	-0.00013	-7e-05	-0.00014	-0.0003	-0.00023	-0.00047	-0.00034	6
30712	-0.00037	-0.00013	-7e-05	-0.00014	-0.0003	-0.00023	-0.00047	-0.00034	6
30713	-0.00037	-0.00013	-7e-05	-0.00014	-0.0003	-0.00023	-0.00047	-0.00034	6
30714	-0.00037	-0.00013	-7e-05	-0.00014	-0.0003	-0.00023	-0.00047	-0.00034	6
30715	-0.00037	-0.00013	-7e-05	-0.00014	-0.0003	-0.00023	-0.00047	-0.00034	6
30716	-0.00037	-0.00013	-7e-05	-0.00014	-0.0003	-0.00023	-0.00047	-0.00034	6
30717	-0.00037	-0.00013	-7e-05	-0.00014	-0.0003	-0.00023	-0.00047	-0.00034	6
30718	-0.00037	-0.00013	-7e-05	-0.00014	-0.0003	-0.00023	-0.00047	-0.00034	6
30719	-0.00037	-0.00013	-7e-05	-0.00014	-0.0003	-0.00023	-0.00047	-0.00034	6
30720	-0.00037	-0.00013	-7e-05	-0.00014	-0.0003	-0.00023	-0.00047	-0.00034	6
30721	-0.00037	-0.00013	-7e-05	-0.00014	-0.0003	-0.00023	-0.00047	-0.00034	6
30722	-0.00037	-0.00013	-7e-05	-0.00014	-0.0003	-0.00023	-0.00047	-0.00034	6
30723	-0.00037	-0.00013	-7e-05	-0.00014	-0.0003	-0.00023	-0.00047	-0.00034	6
30724	-0.00037	-0.00013	-7e-05	-0.00014	-0.0003	-0.00023	-0.00047	-0.00034	6
30725	-0.00037	-0.00013	-7e-05	-0.00014	-0.0003	-0.00023	-0.00047	-0.00034	6
30726	-0.00037	-0.00013	-7e-05	-0.00014	-0.0003	-0.00023	-0.00047	-0.00034	6
30727	-0.00037	-0.00013	-7e-05	-0.00014	-0.0003	-0.00023	-0.00047	-0.00034	6
30728	-0.00037	-0.00013	-7e-05	-0.00014	-0.0003	-0.00023	-0.00047	-0.00034	6
30729	-0.00037	-0.00013	-7e-05	-0.00014	-0.0003	-0.00023	-0.00047	-0.00034	6
30730	-0.00037	-0.00013	-7e-05	-0.00014	-0.0003	-0.00023	-0.00047	-0.00034	6
30731	8e-05	-4e-05	7e-05	8e-05	0.00026	0.00011	-7e-05	-0.00023	6
30732	8e-05	-4e-05	7e-05	8e-05	0.00026	0.00011	-7e-05	-0.00023	6
30733	8e-05	-4e-05	7e-05	8e-05	0.00026	0.00011	-7e-05	-0.00023	6
30734	8e-05	-4e-05	7e-05	8e-05	0.00026	0.00011	-7e-05	-0.00023	6
30735	8e-05	-4e-05	7e-05	8e-05	0.00026	0.00011	-7e-05	-0.00023	6
30736	8e-05	-4e-05	7e-05	8e-05	0.00026	0.00011	-7e-05	-0.00023	6
30738	8e-05	-4e-05	7e-05	8e-05	0.00026	0.00011	-7e-05	-0.00023	6
30740	8e-05	-4e-05	7e-05	8e-05	0.00026	0.00011	-7e-05	-0.00023	6
30741	8e-05	-4e-05	7e-05	8e-05	0.00026	0.00011	-7e-05	-0.00023	6
30742	8e-05	-4e-05	7e-05	8e-05	0.00026	0.00011	-7e-05	-0.00023	6
30743	8e-05	-4e-05	7e-05	8e-05	0.00026	0.00011	-7e-05	-0.00023	6
30744	8e-05	-4e-05	7e-05	8e-05	0.00026	0.00011	-7e-05	-0.00023	6
30745	8e-05	-4e-05	7e-05	8e-05	0.00026	0.00011	-7e-05	-0.00023	6
30746	8e-05	-4e-05	7e-05	8e-05	0.00026	0.00011	-7e-05	-0.00023	6
30747	8e-05	-4e-05	7e-05	8e-05	0.00026	0.00011	-7e-05	-0.00023	6
30748	8e-05	-4e-05	7e-05	8e-05	0.00026	0.00011	-7e-05	-0.00023	6
30749	8e-05	-4e-05	7e-05	8e-05	0.00026	0.00011	-7e-05	-0.00023	6
30750	8e-05	-4e-05	7e-05	8e-05	0.00026	0.00011	-7e-05	-0.00023	6
30751	8e-05	-4e-05	7e-05	8e-05	0.00026	0.00011	-7e-05	-0.00023	6
30752	8e-05	-4e-05	7e-05	8e-05	0.00026	0.00011	-7e-05	-0.00023	6
30753	-0.0001	5e-05	-1e-05	-5e-05	-2e-05	9e-05	7e-05	-0.00014	6
30754	-0.0001	5e-05	-1e-05	-5e-05	-2e-05	9e-05	7e-05	-0.00014	6
30755	-0.0001	5e-05	-1e-05	-5e-05	-2e-05	9e-05	7e-05	-0.00014	6
30756	-0.0001	5e-05	-1e-05	-5e-05	-2e-05	9e-05	7e-05	-0.00014	6
30757	-0.0001	5e-05	-1e-05	-5e-05	-2e-05	9e-05	7e-05	-0.00014	6
30758	-0.0001	5e-05	-1e-05	-5e-05	-2e-05	9e-05	7e-05	-0.00014	6
30759	-0.0001	5e-05	-1e-05	-5e-05	-2e-05	9e-05	7e-05	-0.00014	6
30760	-0.0001	5e-05	-1e-05	-5e-05	-2e-05	9e-05	7e-05	-0.00014	6
30761	-0.0001	5e-05	-1e-05	-5e-05	-2e-05	9e-05	7e-05	-0.00014	6
30762	-0.0001	5e-05	-1e-05	-5e-05	-2e-05	9e-05	7e-05	-0.00014	6
30763	-0.0001	5e-05	-1e-05	-5e-05	-2e-05	9e-05	7e-05	-0.00014	6
30764	-0.0001	5e-05	-1e-05	-5e-05	-2e-05	9e-05	7e-05	-0.00014	6
30765	-0.0001	5e-05	-1e-05	-5e-05	-2e-05	9e-05	7e-05	-0.00014	6
30766	-0.0001	5e-05	-1e-05	-5e-05	-2e-05	9e-05	7e-05	-0.00014	6
30767	-0.0001	5e-05	-1e-05	-5e-05	-2e-05	9e-05	7e-05	-0.00014	6
30768	6e-05	0.0001	0.00023	6e-05	2e-05	0.00013	0.00036	-5e-05	6
30769	6e-05	0.0001	0.00023	6e-05	2e-05	0.00013	0.00036	-5e-05	6
30770	6e-05	0.0001	0.00023	6e-05	2e-05	0.00013	0.00036	-5e-05	6
30771	6e-05	0.0001	0.00023	6e-05	2e-05	0.00013	0.00036	-5e-05	6
30772	6e-05	0.0001	0.00023	6e-05	2e-05	0.00013	0.00036	-5e-05	6
30774	6e-05	0.0001	0.00023	6e-05	2e-05	0.00013	0.00036	-5e-05	6
30775	0.00026	8e-05	-5e-05	-9e-05	-0.00021	-0.00014	-6e-05	7e-05	6
30776	0.00026	8e-05	-5e-05	-9e-05	-0.00021	-0.00014	-6e-05	7e-05	6
30777	0.00026	8e-05	-5e-05	-9e-05	-0.00021	-0.00014	-6e-05	7e-05	6
30778	0.00026	8e-05	-5e-05	-9e-05	-0.00021	-0.00014	-6e-05	7e-05	6
30779	0.00026	8e-05	-5e-05	-9e-05	-0.00021	-0.00014	-6e-05	7e-05	6
30780	0.00026	8e-05	-5e-05	-9e-05	-0.00021	-0.00014	-6e-05	7e-05	6
30781	0.00026	8e-05	-5e-05	-9e-05	-0.00021	-0.00014	-6e-05	7e-05	6
30782	0.00026	8e-05	-5e-05	-9e-05	-0.00021	-0.00014	-6e-05	7e-05	6
30783	0.00026	8e-05	-5e-05	-9e-05	-0.00021	-0.00014	-6e-05	7e-05	6
30784	0.00026	8e-05	-5e-05	-9e-05	-0.00021	-0.00014	-6e-05	7e-05	6
30785	0.00026	8e-05	-5e-05	-9e-05	-0.00021	-0.00014	-6e-05	7e-05	6
30786	0.00026	8e-05	-5e-05	-9e-05	-0.00021	-0.00014	-6e-05	7e-05	6
30788	0.00026	8e-05	-5e-05	-9e-05	-0.00021	-0.00014	-6e-05	7e-05	6
30789	0.00026	8e-05	-5e-05	-9e-05	-0.00021	-0.00014	-6e-05	7e-05	6
30790	2e-05	-5e-05	-3e-05	-5e-05	-4e-05	-7e-05	-8e-05	-1e-05	6
30791	-0.00013	-0.00014	-1e-05	-9e-05	-0.00019	0	-1e-05	-7e-05	6
30792	-0.00013	-0.00014	-1e-05	-9e-05	-0.00019	0	-1e-05	-7e-05	6
30793	-0.00013	-0.00014	-1e-05	-9e-05	-0.00019	0	-1e-05	-7e-05	6
30794	-0.00013	-0.00014	-1e-05	-9e-05	-0.00019	0	-1e-05	-7e-05	6
30795	-0.00013	-0.00014	-1e-05	-9e-05	-0.00019	0	-1e-05	-7e-05	6
30796	-0.00013	-0.00014	-1e-05	-9e-05	-0.00019	0	-1e-05	-7e-05	6
30797	-0.00013	-0.00014	-1e-05	-9e-05	-0.00019	0	-1e-05	-7e-05	6
30798	-0.00013	-0.00014	-1e-05	-9e-05	-0.00019	0	-1e-05	-7e-05	6
30799	-0.00013	-0.00014	-1e-05	-9e-05	-0.00019	0	-1e-05	-7e-05	6
30800	-0.00013	-0.00014	-1e-05	-9e-05	-0.00019	0	-1e-05	-7e-05	6
30801	-0.00013	-0.00014	-1e-05	-9e-05	-0.00019	0	-1e-05	-7e-05	6
30802	-0.00013	-0.00014	-1e-05	-9e-05	-0.00019	0	-1e-05	-7e-05	6
30803	-0.00013	-0.00014	-1e-05	-9e-05	-0.00019	0	-1e-05	-7e-05	6
30804	-0.00013	-0.00014	-1e-05	-9e-05	-0.00019	0	-1e-05	-7e-05	6
30805	-0.00013	-0.00014	-1e-05	-9e-05	-0.00019	0	-1e-05	-7e-05	6
30806	-0.00013	-0.00014	-1e-05	-9e-05	-0.00019	0	-1e-05	-7e-05	6
30807	-0.00013	-0.00014	-1e-05	-9e-05	-0.00019	0	-1e-05	-7e-05	6
30808	-0.00013	-0.00014	-1e-05	-9e-05	-0.00019	0	-1e-05	-7e-05	6
30809	-0.00013	-0.00014	-1e-05	-9e-05	-0.00019	0	-1e-05	-7e-05	6
30810	-0.00013	-0.00014	-1e-05	-9e-05	-0.00019	0	-1e-05	-7e-05	6
30811	-0.00013	-0.00014	-1e-05	-9e-05	-0.00019	0	-1e-05	-7e-05	6
30812	-0.00013	-0.00014	-1e-05	-9e-05	-0.00019	0	-1e-05	-7e-05	6
30813	-9e-05	3e-05	9e-05	6e-05	0.00019	6e-05	-8e-05	2e-05	6
30814	0.00056	0.00026	-0.00012	-8e-05	-8e-05	-1e-05	8e-05	0.00027	6
30815	0.00056	0.00026	-0.00012	-8e-05	-8e-05	-1e-05	8e-05	0.00027	6
30816	0.00056	0.00026	-0.00012	-8e-05	-8e-05	-1e-05	8e-05	0.00027	6
30817	0.00056	0.00026	-0.00012	-8e-05	-8e-05	-1e-05	8e-05	0.00027	6
30818	0.00056	0.00026	-0.00012	-8e-05	-8e-05	-1e-05	8e-05	0.00027	6
30819	0.00056	0.00026	-0.00012	-8e-05	-8e-05	-1e-05	8e-05	0.00027	6
30820	0.00056	0.00026	-0.00012	-8e-05	-8e-05	-1e-05	8e-05	0.00027	6
30821	0.00056	0.00026	-0.00012	-8e-05	-8e-05	-1e-05	8e-05	0.00027	6
30822	0.00056	0.00026	-0.00012	-8e-05	-8e-05	-1e-05	8e-05	0.00027	6
30823	0.00056	0.00026	-0.00012	-8e-05	-8e-05	-1e-05	8e-05	0.00027	6
30824	0.00056	0.00026	-0.00012	-8e-05	-8e-05	-1e-05	8e-05	0.00027	6
30825	0.00056	0.00026	-0.00012	-8e-05	-8e-05	-1e-05	8e-05	0.00027	6
30826	0.00056	0.00026	-0.00012	-8e-05	-8e-05	-1e-05	8e-05	0.00027	6
30827	0.00056	0.00026	-0.00012	-8e-05	-8e-05	-1e-05	8e-05	0.00027	6
30828	-1e-05	-0.00013	-6e-05	5e-05	4e-05	-1e-05	-9e-05	2e-05	6
30829	-1e-05	-0.00013	-6e-05	5e-05	4e-05	-1e-05	-9e-05	2e-05	6
30830	-1e-05	-0.00013	-6e-05	5e-05	4e-05	-1e-05	-9e-05	2e-05	6
30831	-1e-05	-0.00013	-6e-05	5e-05	4e-05	-1e-05	-9e-05	2e-05	6
30832	-1e-05	-0.00013	-6e-05	5e-05	4e-05	-1e-05	-9e-05	2e-05	6
30833	-1e-05	-0.00013	-6e-05	5e-05	4e-05	-1e-05	-9e-05	2e-05	6
30834	-1e-05	-0.00013	-6e-05	5e-05	4e-05	-1e-05	-9e-05	2e-05	6
30835	-0.00016	-0.00018	-3e-05	1e-05	-5e-05	-7e-05	0.00021	0.00023	6
30836	-0.00016	-0.00018	-3e-05	1e-05	-5e-05	-7e-05	0.00021	0.00023	6
30838	-0.00016	-0.00018	-3e-05	1e-05	-5e-05	-7e-05	0.00021	0.00023	6
30839	-0.00016	-0.00018	-3e-05	1e-05	-5e-05	-7e-05	0.00021	0.00023	6
30840	-0.00016	-0.00018	-3e-05	1e-05	-5e-05	-7e-05	0.00021	0.00023	6
30841	-0.00016	-0.00018	-3e-05	1e-05	-5e-05	-7e-05	0.00021	0.00023	6
30842	-0.00016	-0.00018	-3e-05	1e-05	-5e-05	-7e-05	0.00021	0.00023	6
30843	-0.00016	-0.00018	-3e-05	1e-05	-5e-05	-7e-05	0.00021	0.00023	6
30844	-0.00016	-0.00018	-3e-05	1e-05	-5e-05	-7e-05	0.00021	0.00023	6
30845	-0.00016	-0.00018	-3e-05	1e-05	-5e-05	-7e-05	0.00021	0.00023	6
30846	-0.00016	-0.00018	-3e-05	1e-05	-5e-05	-7e-05	0.00021	0.00023	6
30847	-0.00016	-0.00018	-3e-05	1e-05	-5e-05	-7e-05	0.00021	0.00023	6
30848	-0.00016	-0.00018	-3e-05	1e-05	-5e-05	-7e-05	0.00021	0.00023	6
30849	-0.00016	-0.00018	-3e-05	1e-05	-5e-05	-7e-05	0.00021	0.00023	6
30850	-0.00016	-0.00018	-3e-05	1e-05	-5e-05	-7e-05	0.00021	0.00023	6
30851	-0.00016	-0.00018	-3e-05	1e-05	-5e-05	-7e-05	0.00021	0.00023	6
30852	-0.00016	-0.00018	-3e-05	1e-05	-5e-05	-7e-05	0.00021	0.00023	6
30853	-0.00016	-0.00018	-3e-05	1e-05	-5e-05	-7e-05	0.00021	0.00023	6
30854	-0.00016	-0.00018	-3e-05	1e-05	-5e-05	-7e-05	0.00021	0.00023	6
30855	-0.00016	-0.00018	-3e-05	1e-05	-5e-05	-7e-05	0.00021	0.00023	6
30856	-0.00016	-0.00018	-3e-05	1e-05	-5e-05	-7e-05	0.00021	0.00023	6
30857	-0.00016	-0.00018	-3e-05	1e-05	-5e-05	-7e-05	0.00021	0.00023	6
30858	-1e-05	-5e-05	-3e-05	1e-05	0.00012	0.00019	0.00032	0.00014	6
30859	-0.00014	-7e-05	-4e-05	-4e-05	-0.00017	-0.00011	-0.00017	-0.00022	6
30860	-0.00014	-7e-05	-4e-05	-4e-05	-0.00017	-0.00011	-0.00017	-0.00022	6
30861	-0.00014	-7e-05	-4e-05	-4e-05	-0.00017	-0.00011	-0.00017	-0.00022	6
30862	-0.00014	-7e-05	-4e-05	-4e-05	-0.00017	-0.00011	-0.00017	-0.00022	6
30863	-0.00014	-7e-05	-4e-05	-4e-05	-0.00017	-0.00011	-0.00017	-0.00022	6
30864	-0.00014	-7e-05	-4e-05	-4e-05	-0.00017	-0.00011	-0.00017	-0.00022	6
30865	-0.00014	-7e-05	-4e-05	-4e-05	-0.00017	-0.00011	-0.00017	-0.00022	6
30866	-0.00014	-7e-05	-4e-05	-4e-05	-0.00017	-0.00011	-0.00017	-0.00022	6
30868	-0.00014	-7e-05	-4e-05	-4e-05	-0.00017	-0.00011	-0.00017	-0.00022	6
30869	-0.00014	-7e-05	-4e-05	-4e-05	-0.00017	-0.00011	-0.00017	-0.00022	6
30870	-0.00014	-7e-05	-4e-05	-4e-05	-0.00017	-0.00011	-0.00017	-0.00022	6
30871	-0.00014	-7e-05	-4e-05	-4e-05	-0.00017	-0.00011	-0.00017	-0.00022	6
30872	-0.00014	-7e-05	-4e-05	-4e-05	-0.00017	-0.00011	-0.00017	-0.00022	6
30873	-0.00014	-7e-05	-4e-05	-4e-05	-0.00017	-0.00011	-0.00017	-0.00022	6
30874	-0.00014	-7e-05	-4e-05	-4e-05	-0.00017	-0.00011	-0.00017	-0.00022	6
30875	-0.00014	-7e-05	-4e-05	-4e-05	-0.00017	-0.00011	-0.00017	-0.00022	6
30876	-0.00014	-7e-05	-4e-05	-4e-05	-0.00017	-0.00011	-0.00017	-0.00022	6
30877	-0.00014	-7e-05	-4e-05	-4e-05	-0.00017	-0.00011	-0.00017	-0.00022	6
30878	-0.00014	-7e-05	-4e-05	-4e-05	-0.00017	-0.00011	-0.00017	-0.00022	6
30879	-0.00014	-7e-05	-4e-05	-4e-05	-0.00017	-0.00011	-0.00017	-0.00022	6
30880	-0.00014	-7e-05	-4e-05	-4e-05	-0.00017	-0.00011	-0.00017	-0.00022	6
30881	-0.00021	-4e-05	-3e-05	2e-05	0.00011	0.00011	4e-05	-0.00025	6
30882	0	1e-05	-8e-05	-0.00011	-0.00018	-6e-05	9e-05	4e-05	6
30883	0	1e-05	3e-05	-7e-05	-7e-05	-5e-05	-0.00012	-0.0001	6
30884	0	1e-05	3e-05	-7e-05	-7e-05	-5e-05	-0.00012	-0.0001	6
30885	0	1e-05	3e-05	-7e-05	-7e-05	-5e-05	-0.00012	-0.0001	6
30886	0.0004	0.0003	0	-2e-05	-0.00022	-0.00019	2e-05	9e-05	6
30889	7e-05	-0.00015	0.00011	9e-05	0.00035	0.00023	-0.00013	-0.00016	6
30890	7e-05	-0.00015	0.00011	9e-05	0.00035	0.00023	-0.00013	-0.00016	6
30891	7e-05	-0.00015	0.00011	9e-05	0.00035	0.00023	-0.00013	-0.00016	6
30892	7e-05	-0.00015	0.00011	9e-05	0.00035	0.00023	-0.00013	-0.00016	6
30893	7e-05	-0.00015	0.00011	9e-05	0.00035	0.00023	-0.00013	-0.00016	6
30894	7e-05	-0.00015	0.00011	9e-05	0.00035	0.00023	-0.00013	-0.00016	6
30895	7e-05	-0.00015	0.00011	9e-05	0.00035	0.00023	-0.00013	-0.00016	6
30896	-2e-05	8e-05	-1e-05	0	1e-05	8e-05	1e-05	0.00013	6
30897	-2e-05	8e-05	-1e-05	0	1e-05	8e-05	1e-05	0.00013	6
30898	-2e-05	8e-05	-1e-05	0	1e-05	8e-05	1e-05	0.00013	6
30899	-2e-05	8e-05	-1e-05	0	1e-05	8e-05	1e-05	0.00013	6
30900	-2e-05	8e-05	-1e-05	0	1e-05	8e-05	1e-05	0.00013	6
30901	-2e-05	8e-05	-1e-05	0	1e-05	8e-05	1e-05	0.00013	6
30902	-2e-05	8e-05	-1e-05	0	1e-05	8e-05	1e-05	0.00013	6
30903	-2e-05	8e-05	-1e-05	0	1e-05	8e-05	1e-05	0.00013	6
30904	-2e-05	8e-05	-1e-05	0	1e-05	8e-05	1e-05	0.00013	6
30905	-2e-05	8e-05	-1e-05	0	1e-05	8e-05	1e-05	0.00013	6
30906	-2e-05	8e-05	-1e-05	0	1e-05	8e-05	1e-05	0.00013	6
30907	-2e-05	8e-05	-1e-05	0	1e-05	8e-05	1e-05	0.00013	6
30908	-2e-05	8e-05	-1e-05	0	1e-05	8e-05	1e-05	0.00013	6
30910	5e-05	3e-05	-2e-05	-2e-05	-0.00014	-0.00018	-0.00015	0.00019	6
30911	-6e-05	-0.0001	-1e-05	9e-05	0.00014	-1e-05	-0.00013	-5e-05	6
30912	-6e-05	-0.0001	-1e-05	9e-05	0.00014	-1e-05	-0.00013	-5e-05	6
30913	-6e-05	-0.0001	-1e-05	9e-05	0.00014	-1e-05	-0.00013	-5e-05	6
30914	-6e-05	-0.0001	-1e-05	9e-05	0.00014	-1e-05	-0.00013	-5e-05	6
30915	-6e-05	-0.0001	-1e-05	9e-05	0.00014	-1e-05	-0.00013	-5e-05	6
30916	-6e-05	-0.0001	-1e-05	9e-05	0.00014	-1e-05	-0.00013	-5e-05	6
30917	-6e-05	-0.0001	-1e-05	9e-05	0.00014	-1e-05	-0.00013	-5e-05	6
30918	-6e-05	-0.0001	-1e-05	9e-05	0.00014	-1e-05	-0.00013	-5e-05	6
30919	-6e-05	-0.0001	-1e-05	9e-05	0.00014	-1e-05	-0.00013	-5e-05	6
30920	-6e-05	-0.0001	-1e-05	9e-05	0.00014	-1e-05	-0.00013	-5e-05	6
30921	-6e-05	-0.0001	-1e-05	9e-05	0.00014	-1e-05	-0.00013	-5e-05	6
30922	-6e-05	-0.0001	-1e-05	9e-05	0.00014	-1e-05	-0.00013	-5e-05	6
30923	-6e-05	-0.0001	-1e-05	9e-05	0.00014	-1e-05	-0.00013	-5e-05	6
30924	-6e-05	-0.0001	-1e-05	9e-05	0.00014	-1e-05	-0.00013	-5e-05	6
30925	-6e-05	-0.0001	-1e-05	9e-05	0.00014	-1e-05	-0.00013	-5e-05	6
30926	-6e-05	-0.0001	-1e-05	9e-05	0.00014	-1e-05	-0.00013	-5e-05	6
30927	-6e-05	-0.0001	-1e-05	9e-05	0.00014	-1e-05	-0.00013	-5e-05	6
30928	-6e-05	-0.0001	-1e-05	9e-05	0.00014	-1e-05	-0.00013	-5e-05	6
30929	-6e-05	-0.0001	-1e-05	9e-05	0.00014	-1e-05	-0.00013	-5e-05	6
30930	-6e-05	-0.0001	-1e-05	9e-05	0.00014	-1e-05	-0.00013	-5e-05	6
30931	-6e-05	-0.0001	-1e-05	9e-05	0.00014	-1e-05	-0.00013	-5e-05	6
30932	-6e-05	-0.0001	-1e-05	9e-05	0.00014	-1e-05	-0.00013	-5e-05	6
30933	-6e-05	-0.0001	-1e-05	9e-05	0.00014	-1e-05	-0.00013	-5e-05	6
30934	6e-05	2e-05	0.0001	-3e-05	-4e-05	0	0.00015	0.00016	6
30935	6e-05	2e-05	0.0001	-3e-05	-4e-05	0	0.00015	0.00016	6
30936	6e-05	2e-05	0.0001	-3e-05	-4e-05	0	0.00015	0.00016	6
30939	6e-05	2e-05	0.0001	-3e-05	-4e-05	0	0.00015	0.00016	6
30940	6e-05	2e-05	0.0001	-3e-05	-4e-05	0	0.00015	0.00016	6
30941	6e-05	2e-05	0.0001	-3e-05	-4e-05	0	0.00015	0.00016	6
30942	6e-05	2e-05	0.0001	-3e-05	-4e-05	0	0.00015	0.00016	6
30943	6e-05	2e-05	0.0001	-3e-05	-4e-05	0	0.00015	0.00016	6
30944	6e-05	2e-05	0.0001	-3e-05	-4e-05	0	0.00015	0.00016	6
30945	6e-05	2e-05	0.0001	-3e-05	-4e-05	0	0.00015	0.00016	6
30946	6e-05	2e-05	0.0001	-3e-05	-4e-05	0	0.00015	0.00016	6
30947	6e-05	2e-05	0.0001	-3e-05	-4e-05	0	0.00015	0.00016	6
30948	6e-05	2e-05	0.0001	-3e-05	-4e-05	0	0.00015	0.00016	6
30949	6e-05	2e-05	0.0001	-3e-05	-4e-05	0	0.00015	0.00016	6
30950	6e-05	2e-05	0.0001	-3e-05	-4e-05	0	0.00015	0.00016	6
30951	6e-05	2e-05	0.0001	-3e-05	-4e-05	0	0.00015	0.00016	6
30952	6e-05	2e-05	0.0001	-3e-05	-4e-05	0	0.00015	0.00016	6
30953	6e-05	2e-05	0.0001	-3e-05	-4e-05	0	0.00015	0.00016	6
30954	6e-05	2e-05	0.0001	-3e-05	-4e-05	0	0.00015	0.00016	6
30955	6e-05	2e-05	0.0001	-3e-05	-4e-05	0	0.00015	0.00016	6
30956	0.00013	-2e-05	-6e-05	-8e-05	-0.00011	-0.00015	-0.00012	0.00016	6
30957	0.00014	0.00013	1e-05	-1e-05	-4e-05	-6e-05	-6e-05	-1e-05	6
30958	0.00014	0.00013	1e-05	-1e-05	-4e-05	-6e-05	-6e-05	-1e-05	6
30959	0.00014	0.00013	1e-05	-1e-05	-4e-05	-6e-05	-6e-05	-1e-05	6
30960	0.00014	0.00013	1e-05	-1e-05	-4e-05	-6e-05	-6e-05	-1e-05	6
30961	0.00014	0.00013	1e-05	-1e-05	-4e-05	-6e-05	-6e-05	-1e-05	6
30962	0.00014	0.00013	1e-05	-1e-05	-4e-05	-6e-05	-6e-05	-1e-05	6
30963	0.00014	0.00013	1e-05	-1e-05	-4e-05	-6e-05	-6e-05	-1e-05	6
30964	0.00014	0.00013	1e-05	-1e-05	-4e-05	-6e-05	-6e-05	-1e-05	6
30965	0.00014	0.00013	1e-05	-1e-05	-4e-05	-6e-05	-6e-05	-1e-05	6
30966	0.00014	0.00013	1e-05	-1e-05	-4e-05	-6e-05	-6e-05	-1e-05	6
30967	0.00014	0.00013	1e-05	-1e-05	-4e-05	-6e-05	-6e-05	-1e-05	6
30968	0.00014	0.00013	1e-05	-1e-05	-4e-05	-6e-05	-6e-05	-1e-05	6
30969	0.00014	0.00013	1e-05	-1e-05	-4e-05	-6e-05	-6e-05	-1e-05	6
30970	0.00014	0.00013	1e-05	-1e-05	-4e-05	-6e-05	-6e-05	-1e-05	6
30971	-0.00019	-0.00022	-5e-05	3e-05	1e-05	1e-05	-0.00011	-0.00021	6
30972	-0.00019	-0.00022	-5e-05	3e-05	1e-05	1e-05	-0.00011	-0.00021	6
30973	-0.00019	-0.00022	-5e-05	3e-05	1e-05	1e-05	-0.00011	-0.00021	6
30974	-0.00019	-0.00022	-5e-05	3e-05	1e-05	1e-05	-0.00011	-0.00021	6
30975	-0.00019	-0.00022	-5e-05	3e-05	1e-05	1e-05	-0.00011	-0.00021	6
30976	-0.00019	-0.00022	-5e-05	3e-05	1e-05	1e-05	-0.00011	-0.00021	6
30977	-0.00019	-0.00022	-5e-05	3e-05	1e-05	1e-05	-0.00011	-0.00021	6
30978	0.00019	-1e-05	-9e-05	-6e-05	0	0	5e-05	0.00031	6
30979	0.00019	-1e-05	-9e-05	-6e-05	0	0	5e-05	0.00031	6
30980	0.00019	-1e-05	-9e-05	-6e-05	0	0	5e-05	0.00031	6
30981	0.00019	-1e-05	-9e-05	-6e-05	0	0	5e-05	0.00031	6
30982	0.00019	-1e-05	-9e-05	-6e-05	0	0	5e-05	0.00031	6
30983	0.00019	-1e-05	-9e-05	-6e-05	0	0	5e-05	0.00031	6
30984	0.00019	-1e-05	-9e-05	-6e-05	0	0	5e-05	0.00031	6
30985	0.00019	-1e-05	-9e-05	-6e-05	0	0	5e-05	0.00031	6
30986	0.00019	-1e-05	-9e-05	-6e-05	0	0	5e-05	0.00031	6
30988	0.00019	-1e-05	-9e-05	-6e-05	0	0	5e-05	0.00031	6
30989	0.00019	-1e-05	-9e-05	-6e-05	0	0	5e-05	0.00031	6
30990	0.00019	-1e-05	-9e-05	-6e-05	0	0	5e-05	0.00031	6
30991	0.00019	-1e-05	-9e-05	-6e-05	0	0	5e-05	0.00031	6
30992	0.00019	-1e-05	-9e-05	-6e-05	0	0	5e-05	0.00031	6
30993	7e-05	0.00016	-4e-05	0	-3e-05	2e-05	9e-05	2e-05	6
30994	5e-05	2e-05	5e-05	1e-05	-5e-05	2e-05	0.00019	0.00019	6
30995	5e-05	2e-05	5e-05	1e-05	-5e-05	2e-05	0.00019	0.00019	6
30996	5e-05	2e-05	5e-05	1e-05	-5e-05	2e-05	0.00019	0.00019	6
30997	5e-05	2e-05	5e-05	1e-05	-5e-05	2e-05	0.00019	0.00019	6
30998	5e-05	2e-05	5e-05	1e-05	-5e-05	2e-05	0.00019	0.00019	6
30999	5e-05	2e-05	5e-05	1e-05	-5e-05	2e-05	0.00019	0.00019	6
31000	5e-05	2e-05	5e-05	1e-05	-5e-05	2e-05	0.00019	0.00019	6
31001	5e-05	2e-05	5e-05	1e-05	-5e-05	2e-05	0.00019	0.00019	6
31002	5e-05	2e-05	5e-05	1e-05	-5e-05	2e-05	0.00019	0.00019	6
31003	5e-05	2e-05	5e-05	1e-05	-5e-05	2e-05	0.00019	0.00019	6
31004	5e-05	2e-05	5e-05	1e-05	-5e-05	2e-05	0.00019	0.00019	6
31005	5e-05	2e-05	5e-05	1e-05	-5e-05	2e-05	0.00019	0.00019	6
31006	5e-05	2e-05	5e-05	1e-05	-5e-05	2e-05	0.00019	0.00019	6
31007	5e-05	2e-05	5e-05	1e-05	-5e-05	2e-05	0.00019	0.00019	6
31008	-2e-05	5e-05	-1e-05	-2e-05	6e-05	9e-05	0.00025	0.00023	6
31009	-2e-05	5e-05	-1e-05	-2e-05	6e-05	9e-05	0.00025	0.00023	6
31010	-2e-05	5e-05	-1e-05	-2e-05	6e-05	9e-05	0.00025	0.00023	6
31011	-2e-05	5e-05	-1e-05	-2e-05	6e-05	9e-05	0.00025	0.00023	6
31012	-2e-05	5e-05	-1e-05	-2e-05	6e-05	9e-05	0.00025	0.00023	6
31013	-2e-05	5e-05	-1e-05	-2e-05	6e-05	9e-05	0.00025	0.00023	6
31014	-2e-05	5e-05	-1e-05	-2e-05	6e-05	9e-05	0.00025	0.00023	6
31015	-2e-05	5e-05	-1e-05	-2e-05	6e-05	9e-05	0.00025	0.00023	6
31016	-0.00026	-0.00015	-2e-05	-1e-05	2e-05	-2e-05	-6e-05	-0.00044	6
31017	-0.00026	-0.00015	-2e-05	-1e-05	2e-05	-2e-05	-6e-05	-0.00044	6
31018	-0.00026	-0.00015	-2e-05	-1e-05	2e-05	-2e-05	-6e-05	-0.00044	6
31019	-0.00026	-0.00015	-2e-05	-1e-05	2e-05	-2e-05	-6e-05	-0.00044	6
31020	-0.00026	-0.00015	-2e-05	-1e-05	2e-05	-2e-05	-6e-05	-0.00044	6
31021	-0.00026	-0.00015	-2e-05	-1e-05	2e-05	-2e-05	-6e-05	-0.00044	6
31022	-0.00026	-0.00015	-2e-05	-1e-05	2e-05	-2e-05	-6e-05	-0.00044	6
31023	-0.00026	-0.00015	-2e-05	-1e-05	2e-05	-2e-05	-6e-05	-0.00044	6
31024	-0.00026	-0.00015	-2e-05	-1e-05	2e-05	-2e-05	-6e-05	-0.00044	6
31025	-0.00026	-0.00015	-2e-05	-1e-05	2e-05	-2e-05	-6e-05	-0.00044	6
31026	-0.00026	-0.00015	-2e-05	-1e-05	2e-05	-2e-05	-6e-05	-0.00044	6
31027	-0.00026	-0.00015	-2e-05	-1e-05	2e-05	-2e-05	-6e-05	-0.00044	6
31028	-0.00026	-0.00015	-2e-05	-1e-05	2e-05	-2e-05	-6e-05	-0.00044	6
31029	-0.00026	-0.00015	-2e-05	-1e-05	2e-05	-2e-05	-6e-05	-0.00044	6
31030	-0.00026	-0.00015	-2e-05	-1e-05	2e-05	-2e-05	-6e-05	-0.00044	6
31031	-0.00026	-0.00015	-2e-05	-1e-05	2e-05	-2e-05	-6e-05	-0.00044	6
31032	0.00014	2e-05	0	-4e-05	-7e-05	0	-2e-05	0.00011	6
31033	-0.00049	-0.00038	-4e-05	4e-05	0.00011	-2e-05	-9e-05	-8e-05	6
31034	-0.00049	-0.00038	-4e-05	4e-05	0.00011	-2e-05	-9e-05	-8e-05	6
31035	-0.00049	-0.00038	-4e-05	4e-05	0.00011	-2e-05	-9e-05	-8e-05	6
31036	-0.00049	-0.00038	-4e-05	4e-05	0.00011	-2e-05	-9e-05	-8e-05	6
31038	-0.00049	-0.00038	-4e-05	4e-05	0.00011	-2e-05	-9e-05	-8e-05	6
31039	-0.00049	-0.00038	-4e-05	4e-05	0.00011	-2e-05	-9e-05	-8e-05	6
31040	-0.00049	-0.00038	-4e-05	4e-05	0.00011	-2e-05	-9e-05	-8e-05	6
31041	-0.00049	-0.00038	-4e-05	4e-05	0.00011	-2e-05	-9e-05	-8e-05	6
31042	-0.00049	-0.00038	-4e-05	4e-05	0.00011	-2e-05	-9e-05	-8e-05	6
31043	-0.00049	-0.00038	-4e-05	4e-05	0.00011	-2e-05	-9e-05	-8e-05	6
31044	-0.00049	-0.00038	-4e-05	4e-05	0.00011	-2e-05	-9e-05	-8e-05	6
31045	-0.00049	-0.00038	-4e-05	4e-05	0.00011	-2e-05	-9e-05	-8e-05	6
31046	-0.00049	-0.00038	-4e-05	4e-05	0.00011	-2e-05	-9e-05	-8e-05	6
31047	-0.00049	-0.00038	-4e-05	4e-05	0.00011	-2e-05	-9e-05	-8e-05	6
31048	-0.00049	-0.00038	-4e-05	4e-05	0.00011	-2e-05	-9e-05	-8e-05	6
31049	-0.00049	-0.00038	-4e-05	4e-05	0.00011	-2e-05	-9e-05	-8e-05	6
31050	-0.00049	-0.00038	-4e-05	4e-05	0.00011	-2e-05	-9e-05	-8e-05	6
31051	-0.00049	-0.00038	-4e-05	4e-05	0.00011	-2e-05	-9e-05	-8e-05	6
31052	-0.00049	-0.00038	-4e-05	4e-05	0.00011	-2e-05	-9e-05	-8e-05	6
31053	-0.00049	-0.00038	-4e-05	4e-05	0.00011	-2e-05	-9e-05	-8e-05	6
31054	-0.00049	-0.00038	-4e-05	4e-05	0.00011	-2e-05	-9e-05	-8e-05	6
31055	-0.00049	-0.00038	-4e-05	4e-05	0.00011	-2e-05	-9e-05	-8e-05	6
31056	-0.00049	-0.00038	-4e-05	4e-05	0.00011	-2e-05	-9e-05	-8e-05	6
31057	-0.00049	-0.00038	-4e-05	4e-05	0.00011	-2e-05	-9e-05	-8e-05	6
31058	-0.00049	-0.00038	-4e-05	4e-05	0.00011	-2e-05	-9e-05	-8e-05	6
31059	-0.00049	-0.00038	-4e-05	4e-05	0.00011	-2e-05	-9e-05	-8e-05	6
31060	-0.00049	-0.00038	-4e-05	4e-05	0.00011	-2e-05	-9e-05	-8e-05	6
31061	-9e-05	-5e-05	-9e-05	-6e-05	-3e-05	-7e-05	-0.00013	-0.00018	6
31062	0.00046	0.00025	-2e-05	0	3e-05	1e-05	-2e-05	0.00026	6
31063	0.00046	0.00025	-2e-05	0	3e-05	1e-05	-2e-05	0.00026	6
31064	0.00046	0.00025	-2e-05	0	3e-05	1e-05	-2e-05	0.00026	6
31065	0.00046	0.00025	-2e-05	0	3e-05	1e-05	-2e-05	0.00026	6
31066	0.00046	0.00025	-2e-05	0	3e-05	1e-05	-2e-05	0.00026	6
31067	-0.00011	-3e-05	6e-05	5e-05	0.00012	2e-05	1e-05	0.0002	6
31068	-0.00011	-3e-05	6e-05	5e-05	0.00012	2e-05	1e-05	0.0002	6
31069	-0.00011	-3e-05	6e-05	5e-05	0.00012	2e-05	1e-05	0.0002	6
31070	-0.00011	-3e-05	6e-05	5e-05	0.00012	2e-05	1e-05	0.0002	6
31071	-0.00011	-3e-05	6e-05	5e-05	0.00012	2e-05	1e-05	0.0002	6
31072	-0.00011	-3e-05	6e-05	5e-05	0.00012	2e-05	1e-05	0.0002	6
31073	-0.00011	-3e-05	6e-05	5e-05	0.00012	2e-05	1e-05	0.0002	6
31074	-0.00011	-3e-05	6e-05	5e-05	0.00012	2e-05	1e-05	0.0002	6
31075	-0.00011	-3e-05	6e-05	5e-05	0.00012	2e-05	1e-05	0.0002	6
31076	-0.00011	-3e-05	6e-05	5e-05	0.00012	2e-05	1e-05	0.0002	6
31077	-0.00011	-3e-05	6e-05	5e-05	0.00012	2e-05	1e-05	0.0002	6
31078	-0.00011	-3e-05	6e-05	5e-05	0.00012	2e-05	1e-05	0.0002	6
31079	-0.00011	-3e-05	6e-05	5e-05	0.00012	2e-05	1e-05	0.0002	6
31080	-0.00011	-3e-05	6e-05	5e-05	0.00012	2e-05	1e-05	0.0002	6
31081	-0.00011	-3e-05	6e-05	5e-05	0.00012	2e-05	1e-05	0.0002	6
31082	-0.00011	-3e-05	6e-05	5e-05	0.00012	2e-05	1e-05	0.0002	6
31083	-8e-05	0	-5e-05	-4e-05	-2e-05	3e-05	0	-6e-05	6
31084	-8e-05	0	-5e-05	-4e-05	-2e-05	3e-05	0	-6e-05	6
31085	-8e-05	0	-5e-05	-4e-05	-2e-05	3e-05	0	-6e-05	6
31086	-8e-05	0	-5e-05	-4e-05	-2e-05	3e-05	0	-6e-05	6
31088	-8e-05	0	-5e-05	-4e-05	-2e-05	3e-05	0	-6e-05	6
31089	-8e-05	0	-5e-05	-4e-05	-2e-05	3e-05	0	-6e-05	6
31090	0.00012	-2e-05	3e-05	-2e-05	-5e-05	-0.00016	-0.00013	-0.0001	6
31091	-0.00019	-0.00016	-0.00012	-0.00015	-0.00016	-8e-05	0.00026	-4e-05	6
31092	-0.00019	-0.00016	-0.00012	-0.00015	-0.00016	-8e-05	0.00026	-4e-05	6
31093	-0.00019	-0.00016	-0.00012	-0.00015	-0.00016	-8e-05	0.00026	-4e-05	6
31094	-0.00019	-0.00016	-0.00012	-0.00015	-0.00016	-8e-05	0.00026	-4e-05	6
31095	-0.00019	-0.00016	-0.00012	-0.00015	-0.00016	-8e-05	0.00026	-4e-05	6
31096	-0.00019	-0.00016	-0.00012	-0.00015	-0.00016	-8e-05	0.00026	-4e-05	6
31097	-0.00019	-0.00016	-0.00012	-0.00015	-0.00016	-8e-05	0.00026	-4e-05	6
31098	-0.00019	-0.00016	-0.00012	-0.00015	-0.00016	-8e-05	0.00026	-4e-05	6
31099	-0.00019	-0.00016	-0.00012	-0.00015	-0.00016	-8e-05	0.00026	-4e-05	6
31100	-0.00019	-0.00016	-0.00012	-0.00015	-0.00016	-8e-05	0.00026	-4e-05	6
31101	-0.00019	-0.00016	-0.00012	-0.00015	-0.00016	-8e-05	0.00026	-4e-05	6
31102	-0.00019	-0.00016	-0.00012	-0.00015	-0.00016	-8e-05	0.00026	-4e-05	6
31103	-0.00019	-0.00016	-0.00012	-0.00015	-0.00016	-8e-05	0.00026	-4e-05	6
31104	-0.00019	-0.00016	-0.00012	-0.00015	-0.00016	-8e-05	0.00026	-4e-05	6
31105	-0.00019	-0.00016	-0.00012	-0.00015	-0.00016	-8e-05	0.00026	-4e-05	6
31106	-0.00019	-0.00016	-0.00012	-0.00015	-0.00016	-8e-05	0.00026	-4e-05	6
31107	-0.00019	-0.00016	-0.00012	-0.00015	-0.00016	-8e-05	0.00026	-4e-05	6
31108	-0.00019	-0.00016	-0.00012	-0.00015	-0.00016	-8e-05	0.00026	-4e-05	6
31109	-0.00019	-0.00016	-0.00012	-0.00015	-0.00016	-8e-05	0.00026	-4e-05	6
31110	-0.00019	-0.00016	-0.00012	-0.00015	-0.00016	-8e-05	0.00026	-4e-05	6
31111	-0.00019	-0.00016	-0.00012	-0.00015	-0.00016	-8e-05	0.00026	-4e-05	6
31112	-0.00019	-0.00016	-0.00012	-0.00015	-0.00016	-8e-05	0.00026	-4e-05	6
31113	-0.00019	-0.00016	-0.00012	-0.00015	-0.00016	-8e-05	0.00026	-4e-05	6
31114	-0.00019	-0.00016	-0.00012	-0.00015	-0.00016	-8e-05	0.00026	-4e-05	6
31115	-0.00019	-0.00016	-0.00012	-0.00015	-0.00016	-8e-05	0.00026	-4e-05	6
31116	-0.00019	-0.00016	-0.00012	-0.00015	-0.00016	-8e-05	0.00026	-4e-05	6
31117	-0.00019	-0.00016	-0.00012	-0.00015	-0.00016	-8e-05	0.00026	-4e-05	6
31118	-0.00019	-0.00016	-0.00012	-0.00015	-0.00016	-8e-05	0.00026	-4e-05	6
31119	-0.00019	-0.00016	-0.00012	-0.00015	-0.00016	-8e-05	0.00026	-4e-05	6
31120	-0.00019	-0.00016	-0.00012	-0.00015	-0.00016	-8e-05	0.00026	-4e-05	6
31121	-0.00019	-0.00016	-0.00012	-0.00015	-0.00016	-8e-05	0.00026	-4e-05	6
31122	-0.00019	-0.00016	-0.00012	-0.00015	-0.00016	-8e-05	0.00026	-4e-05	6
31123	-0.00019	-0.00016	-0.00012	-0.00015	-0.00016	-8e-05	0.00026	-4e-05	6
31124	-0.00019	-0.00016	-0.00012	-0.00015	-0.00016	-8e-05	0.00026	-4e-05	6
31125	-0.00019	-0.00016	-0.00012	-0.00015	-0.00016	-8e-05	0.00026	-4e-05	6
31126	-0.00019	-0.00016	-0.00012	-0.00015	-0.00016	-8e-05	0.00026	-4e-05	6
31127	-0.00019	-0.00016	-0.00012	-0.00015	-0.00016	-8e-05	0.00026	-4e-05	6
31128	-0.00019	-0.00016	-0.00012	-0.00015	-0.00016	-8e-05	0.00026	-4e-05	6
31129	-0.00019	-0.00016	-0.00012	-0.00015	-0.00016	-8e-05	0.00026	-4e-05	6
31130	-0.00019	-0.00016	-0.00012	-0.00015	-0.00016	-8e-05	0.00026	-4e-05	6
31131	-0.00019	-0.00016	-0.00012	-0.00015	-0.00016	-8e-05	0.00026	-4e-05	6
31132	-0.00019	-0.00016	-0.00012	-0.00015	-0.00016	-8e-05	0.00026	-4e-05	6
31133	-0.00019	-0.00016	-0.00012	-0.00015	-0.00016	-8e-05	0.00026	-4e-05	6
31134	-0.00019	-0.00016	-0.00012	-0.00015	-0.00016	-8e-05	0.00026	-4e-05	6
31135	-0.00019	-0.00016	-0.00012	-0.00015	-0.00016	-8e-05	0.00026	-4e-05	6
31136	-0.00019	-0.00016	-0.00012	-0.00015	-0.00016	-8e-05	0.00026	-4e-05	6
31139	-1e-05	9e-05	6e-05	1e-05	-6e-05	-6e-05	-0.00011	-0.00018	6
31140	0.00024	0.0003	9e-05	-4e-05	-5e-05	-1e-05	9e-05	3e-05	6
31141	0.00024	0.0003	9e-05	-4e-05	-5e-05	-1e-05	9e-05	3e-05	6
31142	0.00024	0.0003	9e-05	-4e-05	-5e-05	-1e-05	9e-05	3e-05	6
31143	3e-05	5e-05	-6e-05	-5e-05	-8e-05	-4e-05	0	3e-05	6
31144	3e-05	5e-05	-6e-05	-5e-05	-8e-05	-4e-05	0	3e-05	6
31145	3e-05	5e-05	-6e-05	-5e-05	-8e-05	-4e-05	0	3e-05	6
31146	3e-05	5e-05	-6e-05	-5e-05	-8e-05	-4e-05	0	3e-05	6
31147	3e-05	5e-05	-6e-05	-5e-05	-8e-05	-4e-05	0	3e-05	6
31148	3e-05	5e-05	-6e-05	-5e-05	-8e-05	-4e-05	0	3e-05	6
31149	3e-05	5e-05	-6e-05	-5e-05	-8e-05	-4e-05	0	3e-05	6
31150	3e-05	5e-05	-6e-05	-5e-05	-8e-05	-4e-05	0	3e-05	6
31151	3e-05	5e-05	-6e-05	-5e-05	-8e-05	-4e-05	0	3e-05	6
31152	3e-05	5e-05	-6e-05	-5e-05	-8e-05	-4e-05	0	3e-05	6
31153	3e-05	5e-05	-6e-05	-5e-05	-8e-05	-4e-05	0	3e-05	6
31154	3e-05	5e-05	-6e-05	-5e-05	-8e-05	-4e-05	0	3e-05	6
31155	3e-05	5e-05	-6e-05	-5e-05	-8e-05	-4e-05	0	3e-05	6
31156	3e-05	5e-05	-6e-05	-5e-05	-8e-05	-4e-05	0	3e-05	6
31157	3e-05	5e-05	-6e-05	-5e-05	-8e-05	-4e-05	0	3e-05	6
31158	1e-05	4e-05	-2e-05	-6e-05	-7e-05	-2e-05	-2e-05	9e-05	6
31159	-0.00054	-0.0004	6e-05	5e-05	2e-05	4e-05	2e-05	-0.00043	6
31160	-0.00054	-0.0004	6e-05	5e-05	2e-05	4e-05	2e-05	-0.00043	6
31161	-0.00054	-0.0004	6e-05	5e-05	2e-05	4e-05	2e-05	-0.00043	6
31162	-0.00054	-0.0004	6e-05	5e-05	2e-05	4e-05	2e-05	-0.00043	6
31163	-0.00054	-0.0004	6e-05	5e-05	2e-05	4e-05	2e-05	-0.00043	6
31164	-0.00054	-0.0004	6e-05	5e-05	2e-05	4e-05	2e-05	-0.00043	6
31165	-0.00054	-0.0004	6e-05	5e-05	2e-05	4e-05	2e-05	-0.00043	6
31166	-0.00054	-0.0004	6e-05	5e-05	2e-05	4e-05	2e-05	-0.00043	6
31167	-0.00054	-0.0004	6e-05	5e-05	2e-05	4e-05	2e-05	-0.00043	6
31168	-0.00054	-0.0004	6e-05	5e-05	2e-05	4e-05	2e-05	-0.00043	6
31169	-0.00054	-0.0004	6e-05	5e-05	2e-05	4e-05	2e-05	-0.00043	6
31170	-0.00054	-0.0004	6e-05	5e-05	2e-05	4e-05	2e-05	-0.00043	6
31171	-0.00054	-0.0004	6e-05	5e-05	2e-05	4e-05	2e-05	-0.00043	6
31172	-0.00054	-0.0004	6e-05	5e-05	2e-05	4e-05	2e-05	-0.00043	6
31173	-0.00054	-0.0004	6e-05	5e-05	2e-05	4e-05	2e-05	-0.00043	6
31174	-0.00054	-0.0004	6e-05	5e-05	2e-05	4e-05	2e-05	-0.00043	6
31175	-0.00054	-0.0004	6e-05	5e-05	2e-05	4e-05	2e-05	-0.00043	6
31176	-0.00054	-0.0004	6e-05	5e-05	2e-05	4e-05	2e-05	-0.00043	6
31177	-0.00054	-0.0004	6e-05	5e-05	2e-05	4e-05	2e-05	-0.00043	6
31178	-0.00054	-0.0004	6e-05	5e-05	2e-05	4e-05	2e-05	-0.00043	6
31179	-0.00054	-0.0004	6e-05	5e-05	2e-05	4e-05	2e-05	-0.00043	6
31180	-0.00054	-0.0004	6e-05	5e-05	2e-05	4e-05	2e-05	-0.00043	6
31181	0	0	1e-05	-0.00011	-0.00017	-0.0002	-2e-05	9e-05	6
31182	0.00016	9e-05	-0.00012	-8e-05	1e-05	-2e-05	-0.00023	-5e-05	6
31183	0.00016	9e-05	-0.00012	-8e-05	1e-05	-2e-05	-0.00023	-5e-05	6
31184	0.00016	9e-05	-0.00012	-8e-05	1e-05	-2e-05	-0.00023	-5e-05	6
31185	0.00016	9e-05	-0.00012	-8e-05	1e-05	-2e-05	-0.00023	-5e-05	6
31186	0.00016	9e-05	-0.00012	-8e-05	1e-05	-2e-05	-0.00023	-5e-05	6
31188	0.00016	9e-05	-0.00012	-8e-05	1e-05	-2e-05	-0.00023	-5e-05	6
31189	0.00016	9e-05	-0.00012	-8e-05	1e-05	-2e-05	-0.00023	-5e-05	6
31190	0.00016	9e-05	-0.00012	-8e-05	1e-05	-2e-05	-0.00023	-5e-05	6
31191	0.00016	9e-05	-0.00012	-8e-05	1e-05	-2e-05	-0.00023	-5e-05	6
31192	0.00016	9e-05	-0.00012	-8e-05	1e-05	-2e-05	-0.00023	-5e-05	6
31193	0.00016	9e-05	-0.00012	-8e-05	1e-05	-2e-05	-0.00023	-5e-05	6
31194	0.00016	9e-05	-0.00012	-8e-05	1e-05	-2e-05	-0.00023	-5e-05	6
31195	0.00016	9e-05	-0.00012	-8e-05	1e-05	-2e-05	-0.00023	-5e-05	6
31196	0.00016	9e-05	-0.00012	-8e-05	1e-05	-2e-05	-0.00023	-5e-05	6
31197	0.00016	9e-05	-0.00012	-8e-05	1e-05	-2e-05	-0.00023	-5e-05	6
31198	0.00016	9e-05	-0.00012	-8e-05	1e-05	-2e-05	-0.00023	-5e-05	6
31199	0.00016	9e-05	-0.00012	-8e-05	1e-05	-2e-05	-0.00023	-5e-05	6
31200	0.00016	9e-05	-0.00012	-8e-05	1e-05	-2e-05	-0.00023	-5e-05	6
31201	0.00016	9e-05	-0.00012	-8e-05	1e-05	-2e-05	-0.00023	-5e-05	6
31202	0.00016	9e-05	-0.00012	-8e-05	1e-05	-2e-05	-0.00023	-5e-05	6
31203	0.00016	9e-05	-0.00012	-8e-05	1e-05	-2e-05	-0.00023	-5e-05	6
31204	0.00016	9e-05	-0.00012	-8e-05	1e-05	-2e-05	-0.00023	-5e-05	6
31205	0.00016	9e-05	-0.00012	-8e-05	1e-05	-2e-05	-0.00023	-5e-05	6
31206	0.00016	9e-05	-0.00012	-8e-05	1e-05	-2e-05	-0.00023	-5e-05	6
31207	0.00016	9e-05	-0.00012	-8e-05	1e-05	-2e-05	-0.00023	-5e-05	6
31208	0.00016	9e-05	-0.00012	-8e-05	1e-05	-2e-05	-0.00023	-5e-05	6
31209	0.00016	9e-05	-0.00012	-8e-05	1e-05	-2e-05	-0.00023	-5e-05	6
31210	0.00016	9e-05	-0.00012	-8e-05	1e-05	-2e-05	-0.00023	-5e-05	6
31211	0.00016	9e-05	-0.00012	-8e-05	1e-05	-2e-05	-0.00023	-5e-05	6
31212	-2e-05	1e-05	5e-05	0.0001	0.00015	7e-05	-1e-05	6e-05	6
31213	0.0002	0.00022	0.00016	0.00026	0.00038	0.00024	0.00012	1e-05	6
31214	0.0002	0.00022	0.00016	0.00026	0.00038	0.00024	0.00012	1e-05	6
31215	0.00046	0.00026	-2e-05	-3e-05	3e-05	9e-05	2e-05	0.00026	6
31216	0.00046	0.00026	-2e-05	-3e-05	3e-05	9e-05	2e-05	0.00026	6
31217	0.00046	0.00026	-2e-05	-3e-05	3e-05	9e-05	2e-05	0.00026	6
31218	0.00046	0.00026	-2e-05	-3e-05	3e-05	9e-05	2e-05	0.00026	6
31219	0.00046	0.00026	-2e-05	-3e-05	3e-05	9e-05	2e-05	0.00026	6
31220	0.00046	0.00026	-2e-05	-3e-05	3e-05	9e-05	2e-05	0.00026	6
31221	0.00046	0.00026	-2e-05	-3e-05	3e-05	9e-05	2e-05	0.00026	6
31222	0.00046	0.00026	-2e-05	-3e-05	3e-05	9e-05	2e-05	0.00026	6
31223	0.00046	0.00026	-2e-05	-3e-05	3e-05	9e-05	2e-05	0.00026	6
31224	0.00046	0.00026	-2e-05	-3e-05	3e-05	9e-05	2e-05	0.00026	6
31225	0.00046	0.00026	-2e-05	-3e-05	3e-05	9e-05	2e-05	0.00026	6
31226	0.00046	0.00026	-2e-05	-3e-05	3e-05	9e-05	2e-05	0.00026	6
31227	0.00046	0.00026	-2e-05	-3e-05	3e-05	9e-05	2e-05	0.00026	6
31228	0.00046	0.00026	-2e-05	-3e-05	3e-05	9e-05	2e-05	0.00026	6
31229	0.00046	0.00026	-2e-05	-3e-05	3e-05	9e-05	2e-05	0.00026	6
31230	0.00046	0.00026	-2e-05	-3e-05	3e-05	9e-05	2e-05	0.00026	6
31231	0.00046	0.00026	-2e-05	-3e-05	3e-05	9e-05	2e-05	0.00026	6
31232	0.00046	0.00026	-2e-05	-3e-05	3e-05	9e-05	2e-05	0.00026	6
31233	0.00046	0.00026	-2e-05	-3e-05	3e-05	9e-05	2e-05	0.00026	6
31234	0.00046	0.00026	-2e-05	-3e-05	3e-05	9e-05	2e-05	0.00026	6
31235	0.0001	6e-05	1e-05	-6e-05	-0.00012	-5e-05	-0.00015	3e-05	6
31236	-0.00013	-0.00018	-0.00014	-0.00011	-8e-05	3e-05	2e-05	-6e-05	6
31239	4e-05	6e-05	-0.0001	-5e-05	-7e-05	-9e-05	-0.00011	-4e-05	6
31240	4e-05	6e-05	-0.0001	-5e-05	-7e-05	-9e-05	-0.00011	-4e-05	6
31241	4e-05	6e-05	-0.0001	-5e-05	-7e-05	-9e-05	-0.00011	-4e-05	6
31242	4e-05	6e-05	-0.0001	-5e-05	-7e-05	-9e-05	-0.00011	-4e-05	6
31243	4e-05	6e-05	-0.0001	-5e-05	-7e-05	-9e-05	-0.00011	-4e-05	6
31244	4e-05	6e-05	-0.0001	-5e-05	-7e-05	-9e-05	-0.00011	-4e-05	6
31245	4e-05	6e-05	-0.0001	-5e-05	-7e-05	-9e-05	-0.00011	-4e-05	6
31246	4e-05	6e-05	-0.0001	-5e-05	-7e-05	-9e-05	-0.00011	-4e-05	6
31247	4e-05	6e-05	-0.0001	-5e-05	-7e-05	-9e-05	-0.00011	-4e-05	6
31248	4e-05	6e-05	-0.0001	-5e-05	-7e-05	-9e-05	-0.00011	-4e-05	6
31249	4e-05	6e-05	-0.0001	-5e-05	-7e-05	-9e-05	-0.00011	-4e-05	6
31250	4e-05	6e-05	-0.0001	-5e-05	-7e-05	-9e-05	-0.00011	-4e-05	6
31251	4e-05	6e-05	-0.0001	-5e-05	-7e-05	-9e-05	-0.00011	-4e-05	6
31252	4e-05	6e-05	-0.0001	-5e-05	-7e-05	-9e-05	-0.00011	-4e-05	6
31253	4e-05	6e-05	-0.0001	-5e-05	-7e-05	-9e-05	-0.00011	-4e-05	6
31254	4e-05	6e-05	-0.0001	-5e-05	-7e-05	-9e-05	-0.00011	-4e-05	6
31255	4e-05	6e-05	-0.0001	-5e-05	-7e-05	-9e-05	-0.00011	-4e-05	6
31256	4e-05	6e-05	-0.0001	-5e-05	-7e-05	-9e-05	-0.00011	-4e-05	6
31257	4e-05	6e-05	-0.0001	-5e-05	-7e-05	-9e-05	-0.00011	-4e-05	6
31258	-0.00024	-0.00017	0	1e-05	-1e-05	-3e-05	-0.00011	-0.00014	6
31259	7e-05	-0.00012	-5e-05	-0.0001	-1e-05	0.00011	6e-05	-7e-05	6
31260	7e-05	-0.00012	-5e-05	-0.0001	-1e-05	0.00011	6e-05	-7e-05	6
31261	7e-05	-0.00012	-5e-05	-0.0001	-1e-05	0.00011	6e-05	-7e-05	6
31262	7e-05	-0.00012	-5e-05	-0.0001	-1e-05	0.00011	6e-05	-7e-05	6
31263	7e-05	-0.00012	-5e-05	-0.0001	-1e-05	0.00011	6e-05	-7e-05	6
31264	7e-05	-0.00012	-5e-05	-0.0001	-1e-05	0.00011	6e-05	-7e-05	6
31265	7e-05	-0.00012	-5e-05	-0.0001	-1e-05	0.00011	6e-05	-7e-05	6
31266	7e-05	-0.00012	-5e-05	-0.0001	-1e-05	0.00011	6e-05	-7e-05	6
31267	7e-05	-0.00012	-5e-05	-0.0001	-1e-05	0.00011	6e-05	-7e-05	6
31268	7e-05	-0.00012	-5e-05	-0.0001	-1e-05	0.00011	6e-05	-7e-05	6
31269	7e-05	-0.00012	-5e-05	-0.0001	-1e-05	0.00011	6e-05	-7e-05	6
31270	0	-7e-05	-8e-05	-8e-05	-0.00018	-0.00014	-8e-05	-5e-05	6
31271	4e-05	5e-05	-2e-05	-7e-05	-0.00019	-9e-05	-9e-05	-0.00023	6
31272	4e-05	5e-05	-2e-05	-7e-05	-0.00019	-9e-05	-9e-05	-0.00023	6
31273	4e-05	5e-05	-2e-05	-7e-05	-0.00019	-9e-05	-9e-05	-0.00023	6
31274	4e-05	5e-05	-2e-05	-7e-05	-0.00019	-9e-05	-9e-05	-0.00023	6
31275	4e-05	5e-05	-2e-05	-7e-05	-0.00019	-9e-05	-9e-05	-0.00023	6
31276	4e-05	5e-05	-2e-05	-7e-05	-0.00019	-9e-05	-9e-05	-0.00023	6
31277	4e-05	5e-05	-2e-05	-7e-05	-0.00019	-9e-05	-9e-05	-0.00023	6
31278	4e-05	5e-05	-2e-05	-7e-05	-0.00019	-9e-05	-9e-05	-0.00023	6
31279	4e-05	5e-05	-2e-05	-7e-05	-0.00019	-9e-05	-9e-05	-0.00023	6
31280	4e-05	5e-05	-2e-05	-7e-05	-0.00019	-9e-05	-9e-05	-0.00023	6
31281	4e-05	5e-05	-2e-05	-7e-05	-0.00019	-9e-05	-9e-05	-0.00023	6
31282	4e-05	5e-05	-2e-05	-7e-05	-0.00019	-9e-05	-9e-05	-0.00023	6
31283	4e-05	5e-05	-2e-05	-7e-05	-0.00019	-9e-05	-9e-05	-0.00023	6
31284	4e-05	5e-05	-2e-05	-7e-05	-0.00019	-9e-05	-9e-05	-0.00023	6
31285	4e-05	5e-05	-2e-05	-7e-05	-0.00019	-9e-05	-9e-05	-0.00023	6
31286	4e-05	5e-05	-2e-05	-7e-05	-0.00019	-9e-05	-9e-05	-0.00023	6
31289	4e-05	5e-05	-2e-05	-7e-05	-0.00019	-9e-05	-9e-05	-0.00023	6
31290	4e-05	5e-05	-2e-05	-7e-05	-0.00019	-9e-05	-9e-05	-0.00023	6
31291	4e-05	5e-05	-2e-05	-7e-05	-0.00019	-9e-05	-9e-05	-0.00023	6
31292	4e-05	5e-05	-2e-05	-7e-05	-0.00019	-9e-05	-9e-05	-0.00023	6
31293	-0.00023	-0.00023	4e-05	4e-05	3e-05	8e-05	4e-05	-3e-05	6
31294	-0.00014	-1e-05	-1e-05	-4e-05	-2e-05	-7e-05	-8e-05	-0.00029	6
31295	-0.00014	-1e-05	-1e-05	-4e-05	-2e-05	-7e-05	-8e-05	-0.00029	6
31296	-0.00014	-1e-05	-1e-05	-4e-05	-2e-05	-7e-05	-8e-05	-0.00029	6
31297	-0.00014	-1e-05	-1e-05	-4e-05	-2e-05	-7e-05	-8e-05	-0.00029	6
31298	-0.00014	-1e-05	-1e-05	-4e-05	-2e-05	-7e-05	-8e-05	-0.00029	6
31299	-0.00014	-1e-05	-1e-05	-4e-05	-2e-05	-7e-05	-8e-05	-0.00029	6
31300	-0.00014	-1e-05	-1e-05	-4e-05	-2e-05	-7e-05	-8e-05	-0.00029	6
31301	-0.00014	-1e-05	-1e-05	-4e-05	-2e-05	-7e-05	-8e-05	-0.00029	6
31302	-0.00014	-1e-05	-1e-05	-4e-05	-2e-05	-7e-05	-8e-05	-0.00029	6
31303	-0.00014	-1e-05	-1e-05	-4e-05	-2e-05	-7e-05	-8e-05	-0.00029	6
31304	-0.00014	-1e-05	-1e-05	-4e-05	-2e-05	-7e-05	-8e-05	-0.00029	6
31305	-0.00014	-1e-05	-1e-05	-4e-05	-2e-05	-7e-05	-8e-05	-0.00029	6
31306	-0.00014	-1e-05	-1e-05	-4e-05	-2e-05	-7e-05	-8e-05	-0.00029	6
31307	-0.00014	-1e-05	-1e-05	-4e-05	-2e-05	-7e-05	-8e-05	-0.00029	6
31308	-0.00014	-1e-05	-1e-05	-4e-05	-2e-05	-7e-05	-8e-05	-0.00029	6
31309	-0.00014	-1e-05	-1e-05	-4e-05	-2e-05	-7e-05	-8e-05	-0.00029	6
31310	-0.00014	-1e-05	-1e-05	-4e-05	-2e-05	-7e-05	-8e-05	-0.00029	6
31311	-0.00014	-1e-05	-1e-05	-4e-05	-2e-05	-7e-05	-8e-05	-0.00029	6
31312	-0.00014	-1e-05	-1e-05	-4e-05	-2e-05	-7e-05	-8e-05	-0.00029	6
31313	-0.00014	-1e-05	-1e-05	-4e-05	-2e-05	-7e-05	-8e-05	-0.00029	6
31314	-0.00014	-1e-05	-1e-05	-4e-05	-2e-05	-7e-05	-8e-05	-0.00029	6
31315	-0.00014	-1e-05	-1e-05	-4e-05	-2e-05	-7e-05	-8e-05	-0.00029	6
31316	-0.00014	-1e-05	-1e-05	-4e-05	-2e-05	-7e-05	-8e-05	-0.00029	6
31317	-0.00014	-1e-05	-1e-05	-4e-05	-2e-05	-7e-05	-8e-05	-0.00029	6
31318	-0.00014	-1e-05	-1e-05	-4e-05	-2e-05	-7e-05	-8e-05	-0.00029	6
31319	-0.00014	-1e-05	-1e-05	-4e-05	-2e-05	-7e-05	-8e-05	-0.00029	6
31320	-0.00014	-1e-05	-1e-05	-4e-05	-2e-05	-7e-05	-8e-05	-0.00029	6
31321	-0.00014	-1e-05	-1e-05	-4e-05	-2e-05	-7e-05	-8e-05	-0.00029	6
31322	-0.00014	-1e-05	-1e-05	-4e-05	-2e-05	-7e-05	-8e-05	-0.00029	6
31323	-0.00014	-1e-05	-1e-05	-4e-05	-2e-05	-7e-05	-8e-05	-0.00029	6
31324	-0.00014	-1e-05	-1e-05	-4e-05	-2e-05	-7e-05	-8e-05	-0.00029	6
31325	-0.00014	-1e-05	-1e-05	-4e-05	-2e-05	-7e-05	-8e-05	-0.00029	6
31326	-0.00014	-1e-05	-1e-05	-4e-05	-2e-05	-7e-05	-8e-05	-0.00029	6
31327	-0.00014	-1e-05	-1e-05	-4e-05	-2e-05	-7e-05	-8e-05	-0.00029	6
31328	-0.00014	-1e-05	-1e-05	-4e-05	-2e-05	-7e-05	-8e-05	-0.00029	6
31330	-0.00014	-1e-05	-1e-05	-4e-05	-2e-05	-7e-05	-8e-05	-0.00029	6
31331	-0.00014	-1e-05	-1e-05	-4e-05	-2e-05	-7e-05	-8e-05	-0.00029	6
31332	-2e-05	1e-05	2e-05	5e-05	3e-05	-3e-05	4e-05	0.00013	6
31334	-2e-05	1e-05	2e-05	5e-05	3e-05	-3e-05	4e-05	0.00013	6
31335	-2e-05	1e-05	2e-05	5e-05	3e-05	-3e-05	4e-05	0.00013	6
31336	-2e-05	1e-05	2e-05	5e-05	3e-05	-3e-05	4e-05	0.00013	6
31339	-2e-05	1e-05	2e-05	5e-05	3e-05	-3e-05	4e-05	0.00013	6
31340	-2e-05	3e-05	-3e-05	-2e-05	-5e-05	-4e-05	-9e-05	-0.00027	6
31341	-9e-05	-0.0001	5e-05	-1e-05	-4e-05	1e-05	0.00014	0.00028	6
31342	-9e-05	-0.0001	5e-05	-1e-05	-4e-05	1e-05	0.00014	0.00028	6
31343	-9e-05	-0.0001	5e-05	-1e-05	-4e-05	1e-05	0.00014	0.00028	6
31344	-9e-05	-0.0001	5e-05	-1e-05	-4e-05	1e-05	0.00014	0.00028	6
31345	-9e-05	-0.0001	5e-05	-1e-05	-4e-05	1e-05	0.00014	0.00028	6
31346	-9e-05	-0.0001	5e-05	-1e-05	-4e-05	1e-05	0.00014	0.00028	6
31347	-9e-05	-0.0001	5e-05	-1e-05	-4e-05	1e-05	0.00014	0.00028	6
31348	-9e-05	-0.0001	5e-05	-1e-05	-4e-05	1e-05	0.00014	0.00028	6
31349	-9e-05	-0.0001	5e-05	-1e-05	-4e-05	1e-05	0.00014	0.00028	6
31350	-9e-05	-0.0001	5e-05	-1e-05	-4e-05	1e-05	0.00014	0.00028	6
31351	-9e-05	-0.0001	5e-05	-1e-05	-4e-05	1e-05	0.00014	0.00028	6
31352	-9e-05	-0.0001	5e-05	-1e-05	-4e-05	1e-05	0.00014	0.00028	6
31353	-9e-05	-0.0001	5e-05	-1e-05	-4e-05	1e-05	0.00014	0.00028	6
31354	-9e-05	-0.0001	5e-05	-1e-05	-4e-05	1e-05	0.00014	0.00028	6
31355	-9e-05	-0.0001	5e-05	-1e-05	-4e-05	1e-05	0.00014	0.00028	6
31356	-9e-05	-0.0001	5e-05	-1e-05	-4e-05	1e-05	0.00014	0.00028	6
31357	-9e-05	-0.0001	5e-05	-1e-05	-4e-05	1e-05	0.00014	0.00028	6
31358	-9e-05	-0.0001	5e-05	-1e-05	-4e-05	1e-05	0.00014	0.00028	6
31359	-9e-05	-0.0001	5e-05	-1e-05	-4e-05	1e-05	0.00014	0.00028	6
31360	-9e-05	-0.0001	5e-05	-1e-05	-4e-05	1e-05	0.00014	0.00028	6
31361	-7e-05	-0.00012	-8e-05	-8e-05	-0.0001	-9e-05	-4e-05	5e-05	6
31362	-3e-05	-6e-05	8e-05	2e-05	1e-05	-4e-05	-9e-05	0.00013	6
31363	-3e-05	-6e-05	8e-05	2e-05	1e-05	-4e-05	-9e-05	0.00013	6
31364	-3e-05	-6e-05	8e-05	2e-05	1e-05	-4e-05	-9e-05	0.00013	6
31365	-3e-05	-6e-05	8e-05	2e-05	1e-05	-4e-05	-9e-05	0.00013	6
31366	-3e-05	-6e-05	8e-05	2e-05	1e-05	-4e-05	-9e-05	0.00013	6
31367	-3e-05	-6e-05	8e-05	2e-05	1e-05	-4e-05	-9e-05	0.00013	6
31368	-3e-05	-6e-05	8e-05	2e-05	1e-05	-4e-05	-9e-05	0.00013	6
31369	-3e-05	-6e-05	8e-05	2e-05	1e-05	-4e-05	-9e-05	0.00013	6
31370	-3e-05	-6e-05	8e-05	2e-05	1e-05	-4e-05	-9e-05	0.00013	6
31371	-3e-05	-6e-05	8e-05	2e-05	1e-05	-4e-05	-9e-05	0.00013	6
31372	-3e-05	-6e-05	8e-05	2e-05	1e-05	-4e-05	-9e-05	0.00013	6
31373	-3e-05	-6e-05	8e-05	2e-05	1e-05	-4e-05	-9e-05	0.00013	6
31374	-3e-05	-6e-05	8e-05	2e-05	1e-05	-4e-05	-9e-05	0.00013	6
31375	-3e-05	-6e-05	8e-05	2e-05	1e-05	-4e-05	-9e-05	0.00013	6
31376	-3e-05	-6e-05	8e-05	2e-05	1e-05	-4e-05	-9e-05	0.00013	6
31377	-3e-05	-6e-05	8e-05	2e-05	1e-05	-4e-05	-9e-05	0.00013	6
31378	-3e-05	-6e-05	8e-05	2e-05	1e-05	-4e-05	-9e-05	0.00013	6
31379	-3e-05	-6e-05	8e-05	2e-05	1e-05	-4e-05	-9e-05	0.00013	6
31380	-3e-05	-6e-05	8e-05	2e-05	1e-05	-4e-05	-9e-05	0.00013	6
31381	-3e-05	-6e-05	8e-05	2e-05	1e-05	-4e-05	-9e-05	0.00013	6
31382	-3e-05	-6e-05	8e-05	2e-05	1e-05	-4e-05	-9e-05	0.00013	6
31383	-3e-05	-6e-05	8e-05	2e-05	1e-05	-4e-05	-9e-05	0.00013	6
31384	-0.0002	-1e-05	-2e-05	-1e-05	1e-05	2e-05	-1e-05	-2e-05	6
31385	0.00025	0.00018	-7e-05	-1e-05	5e-05	1e-05	-0.00011	-0.00014	6
31386	0.00025	0.00018	-7e-05	-1e-05	5e-05	1e-05	-0.00011	-0.00014	6
31388	0.00025	0.00018	-7e-05	-1e-05	5e-05	1e-05	-0.00011	-0.00014	6
31389	0.00025	0.00018	-7e-05	-1e-05	5e-05	1e-05	-0.00011	-0.00014	6
31390	0.00025	0.00018	-7e-05	-1e-05	5e-05	1e-05	-0.00011	-0.00014	6
31391	0.00025	0.00018	-7e-05	-1e-05	5e-05	1e-05	-0.00011	-0.00014	6
31392	0.00025	0.00018	-7e-05	-1e-05	5e-05	1e-05	-0.00011	-0.00014	6
31393	0.00014	0.00013	5e-05	1e-05	-1e-05	-1e-05	0.0001	0.00024	6
31394	0.00014	0.00013	5e-05	1e-05	-1e-05	-1e-05	0.0001	0.00024	6
31395	0.00014	0.00013	5e-05	1e-05	-1e-05	-1e-05	0.0001	0.00024	6
31396	0.00014	0.00013	5e-05	1e-05	-1e-05	-1e-05	0.0001	0.00024	6
31397	0.00014	0.00013	5e-05	1e-05	-1e-05	-1e-05	0.0001	0.00024	6
31398	9e-05	0.00015	1e-05	-1e-05	-1e-05	-3e-05	0.0001	0.00035	6
31399	9e-05	0.00015	1e-05	-1e-05	-1e-05	-3e-05	0.0001	0.00035	6
31400	9e-05	0.00015	1e-05	-1e-05	-1e-05	-3e-05	0.0001	0.00035	6
31401	9e-05	0.00015	1e-05	-1e-05	-1e-05	-3e-05	0.0001	0.00035	6
31402	9e-05	0.00015	1e-05	-1e-05	-1e-05	-3e-05	0.0001	0.00035	6
31403	9e-05	0.00015	1e-05	-1e-05	-1e-05	-3e-05	0.0001	0.00035	6
31404	9e-05	0.00015	1e-05	-1e-05	-1e-05	-3e-05	0.0001	0.00035	6
31405	9e-05	0.00015	1e-05	-1e-05	-1e-05	-3e-05	0.0001	0.00035	6
31406	9e-05	0.00015	1e-05	-1e-05	-1e-05	-3e-05	0.0001	0.00035	6
31407	9e-05	0.00015	1e-05	-1e-05	-1e-05	-3e-05	0.0001	0.00035	6
31408	9e-05	0.00015	1e-05	-1e-05	-1e-05	-3e-05	0.0001	0.00035	6
31409	9e-05	0.00015	1e-05	-1e-05	-1e-05	-3e-05	0.0001	0.00035	6
31410	9e-05	0.00015	1e-05	-1e-05	-1e-05	-3e-05	0.0001	0.00035	6
31411	9e-05	0.00015	1e-05	-1e-05	-1e-05	-3e-05	0.0001	0.00035	6
31412	9e-05	0.00015	1e-05	-1e-05	-1e-05	-3e-05	0.0001	0.00035	6
31413	9e-05	0.00015	1e-05	-1e-05	-1e-05	-3e-05	0.0001	0.00035	6
31414	9e-05	0.00015	1e-05	-1e-05	-1e-05	-3e-05	0.0001	0.00035	6
31415	9e-05	0.00015	1e-05	-1e-05	-1e-05	-3e-05	0.0001	0.00035	6
31416	0.0003	0.0002	1e-05	4e-05	0.00016	0.00012	6e-05	0.00023	6
31417	0.0003	0.0002	1e-05	4e-05	0.00016	0.00012	6e-05	0.00023	6
31418	0.0003	0.0002	1e-05	4e-05	0.00016	0.00012	6e-05	0.00023	6
31419	0.0003	0.0002	1e-05	4e-05	0.00016	0.00012	6e-05	0.00023	6
31420	0.0003	0.0002	1e-05	4e-05	0.00016	0.00012	6e-05	0.00023	6
31421	0.0003	0.0002	1e-05	4e-05	0.00016	0.00012	6e-05	0.00023	6
31422	0.0003	0.0002	1e-05	4e-05	0.00016	0.00012	6e-05	0.00023	6
31423	0.0003	0.0002	1e-05	4e-05	0.00016	0.00012	6e-05	0.00023	6
31424	0.0003	0.0002	1e-05	4e-05	0.00016	0.00012	6e-05	0.00023	6
31425	0.0003	0.0002	1e-05	4e-05	0.00016	0.00012	6e-05	0.00023	6
31426	0.0003	0.0002	1e-05	4e-05	0.00016	0.00012	6e-05	0.00023	6
31427	0.0003	0.0002	1e-05	4e-05	0.00016	0.00012	6e-05	0.00023	6
31429	0.0003	0.0002	1e-05	4e-05	0.00016	0.00012	6e-05	0.00023	6
31430	0.0003	0.0002	1e-05	4e-05	0.00016	0.00012	6e-05	0.00023	6
31431	0.0003	0.0002	1e-05	4e-05	0.00016	0.00012	6e-05	0.00023	6
31432	0.0003	0.0002	1e-05	4e-05	0.00016	0.00012	6e-05	0.00023	6
31433	0.0003	0.0002	1e-05	4e-05	0.00016	0.00012	6e-05	0.00023	6
31434	0.0003	0.0002	1e-05	4e-05	0.00016	0.00012	6e-05	0.00023	6
31435	0.0003	0.0002	1e-05	4e-05	0.00016	0.00012	6e-05	0.00023	6
31437	-0.00011	-0.00039	-8e-05	-1e-05	-1e-05	0	-0.00013	-0.00029	6
31439	-0.00011	-0.00039	-8e-05	-1e-05	-1e-05	0	-0.00013	-0.00029	6
31441	-0.00011	-0.00039	-8e-05	-1e-05	-1e-05	0	-0.00013	-0.00029	6
31442	-0.00011	-0.00039	-8e-05	-1e-05	-1e-05	0	-0.00013	-0.00029	6
31443	-0.00011	-0.00039	-8e-05	-1e-05	-1e-05	0	-0.00013	-0.00029	6
31444	-0.00011	-0.00039	-8e-05	-1e-05	-1e-05	0	-0.00013	-0.00029	6
31445	-0.00011	-0.00039	-8e-05	-1e-05	-1e-05	0	-0.00013	-0.00029	6
31446	-0.00011	-0.00039	-8e-05	-1e-05	-1e-05	0	-0.00013	-0.00029	6
31447	-0.00011	-0.00039	-8e-05	-1e-05	-1e-05	0	-0.00013	-0.00029	6
31448	-0.00011	-0.00039	-8e-05	-1e-05	-1e-05	0	-0.00013	-0.00029	6
31449	-0.00011	-0.00039	-8e-05	-1e-05	-1e-05	0	-0.00013	-0.00029	6
31450	-0.00011	-0.00039	-8e-05	-1e-05	-1e-05	0	-0.00013	-0.00029	6
31451	-0.00011	-0.00039	-8e-05	-1e-05	-1e-05	0	-0.00013	-0.00029	6
31452	-0.00011	-0.00039	-8e-05	-1e-05	-1e-05	0	-0.00013	-0.00029	6
31453	-0.00011	-0.00039	-8e-05	-1e-05	-1e-05	0	-0.00013	-0.00029	6
31454	-0.00011	-0.00039	-8e-05	-1e-05	-1e-05	0	-0.00013	-0.00029	6
31455	-0.00011	-0.00039	-8e-05	-1e-05	-1e-05	0	-0.00013	-0.00029	6
31456	-0.00011	-0.00039	-8e-05	-1e-05	-1e-05	0	-0.00013	-0.00029	6
31457	-0.00011	-0.00039	-8e-05	-1e-05	-1e-05	0	-0.00013	-0.00029	6
31458	-0.00011	-0.00039	-8e-05	-1e-05	-1e-05	0	-0.00013	-0.00029	6
31459	0.00052	0.00021	-1e-05	3e-05	4e-05	9e-05	6e-05	9e-05	6
31460	-0.00014	-5e-05	6e-05	-6e-05	-0.00019	-0.00013	-3e-05	0.00021	6
31461	-0.00014	-5e-05	6e-05	-6e-05	-0.00019	-0.00013	-3e-05	0.00021	6
31462	-0.00014	-5e-05	6e-05	-6e-05	-0.00019	-0.00013	-3e-05	0.00021	6
31463	-0.00014	-5e-05	6e-05	-6e-05	-0.00019	-0.00013	-3e-05	0.00021	6
31464	-0.00014	-5e-05	6e-05	-6e-05	-0.00019	-0.00013	-3e-05	0.00021	6
31465	-0.00014	-5e-05	6e-05	-6e-05	-0.00019	-0.00013	-3e-05	0.00021	6
31466	-0.00014	-5e-05	6e-05	-6e-05	-0.00019	-0.00013	-3e-05	0.00021	6
31467	-0.00014	-5e-05	6e-05	-6e-05	-0.00019	-0.00013	-3e-05	0.00021	6
31468	-0.00014	-5e-05	6e-05	-6e-05	-0.00019	-0.00013	-3e-05	0.00021	6
31469	-0.00014	-5e-05	6e-05	-6e-05	-0.00019	-0.00013	-3e-05	0.00021	6
31470	-0.00014	-5e-05	6e-05	-6e-05	-0.00019	-0.00013	-3e-05	0.00021	6
31471	-0.00014	-5e-05	6e-05	-6e-05	-0.00019	-0.00013	-3e-05	0.00021	6
31472	-0.00014	-5e-05	6e-05	-6e-05	-0.00019	-0.00013	-3e-05	0.00021	6
31473	-0.00014	-5e-05	6e-05	-6e-05	-0.00019	-0.00013	-3e-05	0.00021	6
31474	-0.00014	-5e-05	6e-05	-6e-05	-0.00019	-0.00013	-3e-05	0.00021	6
31475	-5e-05	0	-6e-05	-8e-05	-0.00014	-0.0001	5e-05	-0.0001	6
31476	-5e-05	0	-6e-05	-8e-05	-0.00014	-0.0001	5e-05	-0.0001	6
31477	-5e-05	0	-6e-05	-8e-05	-0.00014	-0.0001	5e-05	-0.0001	6
31478	-5e-05	0	-6e-05	-8e-05	-0.00014	-0.0001	5e-05	-0.0001	6
31479	-5e-05	0	-6e-05	-8e-05	-0.00014	-0.0001	5e-05	-0.0001	6
31480	-5e-05	0	-6e-05	-8e-05	-0.00014	-0.0001	5e-05	-0.0001	6
31481	-5e-05	0	-6e-05	-8e-05	-0.00014	-0.0001	5e-05	-0.0001	6
31482	-5e-05	0	-6e-05	-8e-05	-0.00014	-0.0001	5e-05	-0.0001	6
31483	-5e-05	0	-6e-05	-8e-05	-0.00014	-0.0001	5e-05	-0.0001	6
31484	-5e-05	0	-6e-05	-8e-05	-0.00014	-0.0001	5e-05	-0.0001	6
31485	-5e-05	0	-6e-05	-8e-05	-0.00014	-0.0001	5e-05	-0.0001	6
31486	-5e-05	0	-6e-05	-8e-05	-0.00014	-0.0001	5e-05	-0.0001	6
31489	-5e-05	0	-6e-05	-8e-05	-0.00014	-0.0001	5e-05	-0.0001	6
31490	-5e-05	0	-6e-05	-8e-05	-0.00014	-0.0001	5e-05	-0.0001	6
31491	-5e-05	0	-6e-05	-8e-05	-0.00014	-0.0001	5e-05	-0.0001	6
31492	-5e-05	0	-6e-05	-8e-05	-0.00014	-0.0001	5e-05	-0.0001	6
31493	-5e-05	0	-6e-05	-8e-05	-0.00014	-0.0001	5e-05	-0.0001	6
31494	-5e-05	0	-6e-05	-8e-05	-0.00014	-0.0001	5e-05	-0.0001	6
31495	-5e-05	0	-6e-05	-8e-05	-0.00014	-0.0001	5e-05	-0.0001	6
31496	0.00027	0.00021	-3e-05	1e-05	4e-05	6e-05	9e-05	0.00017	6
31497	-0.00018	-6e-05	-2e-05	-4e-05	3e-05	4e-05	6e-05	0.00027	6
31498	-0.00018	-6e-05	-2e-05	-4e-05	3e-05	4e-05	6e-05	0.00027	6
31499	-0.00018	-6e-05	-2e-05	-4e-05	3e-05	4e-05	6e-05	0.00027	6
31500	-0.00018	-6e-05	-2e-05	-4e-05	3e-05	4e-05	6e-05	0.00027	6
31501	-0.00018	-6e-05	-2e-05	-4e-05	3e-05	4e-05	6e-05	0.00027	6
31502	-0.00018	-6e-05	-2e-05	-4e-05	3e-05	4e-05	6e-05	0.00027	6
31503	-0.00018	-6e-05	-2e-05	-4e-05	3e-05	4e-05	6e-05	0.00027	6
31504	-0.00018	-6e-05	-2e-05	-4e-05	3e-05	4e-05	6e-05	0.00027	6
31505	-0.00018	-6e-05	-2e-05	-4e-05	3e-05	4e-05	6e-05	0.00027	6
31506	-0.00018	-6e-05	-2e-05	-4e-05	3e-05	4e-05	6e-05	0.00027	6
31507	-0.00018	-6e-05	-2e-05	-4e-05	3e-05	4e-05	6e-05	0.00027	6
31508	-0.00018	-6e-05	-2e-05	-4e-05	3e-05	4e-05	6e-05	0.00027	6
31509	-0.00018	-6e-05	-2e-05	-4e-05	3e-05	4e-05	6e-05	0.00027	6
31510	-0.00018	-6e-05	-2e-05	-4e-05	3e-05	4e-05	6e-05	0.00027	6
31511	-0.00014	0.00011	3e-05	8e-05	0.00018	0.00018	-2e-05	-7e-05	6
31513	-0.00014	0.00011	3e-05	8e-05	0.00018	0.00018	-2e-05	-7e-05	6
31514	-0.00014	0.00011	3e-05	8e-05	0.00018	0.00018	-2e-05	-7e-05	6
31515	-0.00014	0.00011	3e-05	8e-05	0.00018	0.00018	-2e-05	-7e-05	6
31516	-0.00014	0.00011	3e-05	8e-05	0.00018	0.00018	-2e-05	-7e-05	6
31517	-0.00014	0.00011	3e-05	8e-05	0.00018	0.00018	-2e-05	-7e-05	6
31518	-0.00014	0.00011	3e-05	8e-05	0.00018	0.00018	-2e-05	-7e-05	6
31519	-0.00014	0.00011	3e-05	8e-05	0.00018	0.00018	-2e-05	-7e-05	6
31520	-0.00014	0.00011	3e-05	8e-05	0.00018	0.00018	-2e-05	-7e-05	6
31521	-0.00014	0.00011	3e-05	8e-05	0.00018	0.00018	-2e-05	-7e-05	6
31522	-0.00014	0.00011	3e-05	8e-05	0.00018	0.00018	-2e-05	-7e-05	6
31523	-0.00014	0.00011	3e-05	8e-05	0.00018	0.00018	-2e-05	-7e-05	6
31524	-0.00014	0.00011	3e-05	8e-05	0.00018	0.00018	-2e-05	-7e-05	6
31525	-0.00014	0.00011	3e-05	8e-05	0.00018	0.00018	-2e-05	-7e-05	6
31526	-0.00014	0.00011	3e-05	8e-05	0.00018	0.00018	-2e-05	-7e-05	6
31527	-0.00014	0.00011	3e-05	8e-05	0.00018	0.00018	-2e-05	-7e-05	6
31528	-0.00014	0.00011	3e-05	8e-05	0.00018	0.00018	-2e-05	-7e-05	6
31530	-0.00014	0.00011	3e-05	8e-05	0.00018	0.00018	-2e-05	-7e-05	6
31531	-0.00014	0.00011	3e-05	8e-05	0.00018	0.00018	-2e-05	-7e-05	6
31532	-0.00014	0.00011	3e-05	8e-05	0.00018	0.00018	-2e-05	-7e-05	6
31533	-0.00014	0.00011	3e-05	8e-05	0.00018	0.00018	-2e-05	-7e-05	6
31534	-8e-05	-0.00011	-0.00014	-7e-05	7e-05	-3e-05	-4e-05	-6e-05	6
31535	0.00019	0.0002	4e-05	0	-9e-05	-0.0001	-5e-05	-6e-05	6
31536	0.00019	0.0002	4e-05	0	-9e-05	-0.0001	-5e-05	-6e-05	6
31539	0.00019	0.0002	4e-05	0	-9e-05	-0.0001	-5e-05	-6e-05	6
31541	0.00019	0.0002	4e-05	0	-9e-05	-0.0001	-5e-05	-6e-05	6
31542	0.00019	0.0002	4e-05	0	-9e-05	-0.0001	-5e-05	-6e-05	6
31543	0.00019	0.0002	4e-05	0	-9e-05	-0.0001	-5e-05	-6e-05	6
31544	0.00019	0.0002	4e-05	0	-9e-05	-0.0001	-5e-05	-6e-05	6
31545	0.00019	0.0002	4e-05	0	-9e-05	-0.0001	-5e-05	-6e-05	6
31546	0.00019	0.0002	4e-05	0	-9e-05	-0.0001	-5e-05	-6e-05	6
31547	0.00019	0.0002	4e-05	0	-9e-05	-0.0001	-5e-05	-6e-05	6
31548	0.00019	0.0002	4e-05	0	-9e-05	-0.0001	-5e-05	-6e-05	6
31549	0.00019	0.0002	4e-05	0	-9e-05	-0.0001	-5e-05	-6e-05	6
31550	0.00019	0.0002	4e-05	0	-9e-05	-0.0001	-5e-05	-6e-05	6
31551	0.00019	0.0002	4e-05	0	-9e-05	-0.0001	-5e-05	-6e-05	6
31552	0.00019	0.0002	4e-05	0	-9e-05	-0.0001	-5e-05	-6e-05	6
31553	0.00019	0.0002	4e-05	0	-9e-05	-0.0001	-5e-05	-6e-05	6
31554	0.00019	0.0002	4e-05	0	-9e-05	-0.0001	-5e-05	-6e-05	6
31555	0.00019	0.0002	4e-05	0	-9e-05	-0.0001	-5e-05	-6e-05	6
31556	0.00019	0.0002	4e-05	0	-9e-05	-0.0001	-5e-05	-6e-05	6
31557	0.00019	0.0002	4e-05	0	-9e-05	-0.0001	-5e-05	-6e-05	6
31558	0.00019	0.0002	4e-05	0	-9e-05	-0.0001	-5e-05	-6e-05	6
31559	0.00019	0.0002	4e-05	0	-9e-05	-0.0001	-5e-05	-6e-05	6
31560	0.00019	0.0002	4e-05	0	-9e-05	-0.0001	-5e-05	-6e-05	6
31561	0.00019	0.0002	4e-05	0	-9e-05	-0.0001	-5e-05	-6e-05	6
31562	0.00019	0.0002	4e-05	0	-9e-05	-0.0001	-5e-05	-6e-05	6
31563	0.00019	0.0002	4e-05	0	-9e-05	-0.0001	-5e-05	-6e-05	6
31564	0.00019	0.0002	4e-05	0	-9e-05	-0.0001	-5e-05	-6e-05	6
31565	0.00019	0.0002	4e-05	0	-9e-05	-0.0001	-5e-05	-6e-05	6
31566	0.00019	0.0002	4e-05	0	-9e-05	-0.0001	-5e-05	-6e-05	6
31567	0.00019	0.0002	4e-05	0	-9e-05	-0.0001	-5e-05	-6e-05	6
31568	0.00019	0.0002	4e-05	0	-9e-05	-0.0001	-5e-05	-6e-05	6
31570	0.00019	0.0002	4e-05	0	-9e-05	-0.0001	-5e-05	-6e-05	6
31571	0.00019	0.0002	4e-05	0	-9e-05	-0.0001	-5e-05	-6e-05	6
31572	-0.00015	-0.0001	0	-2e-05	3e-05	9e-05	-1e-05	-0.00023	6
31573	-6e-05	-0.0001	-5e-05	-5e-05	-0.0001	-0.00034	-0.00013	2e-05	6
31574	-6e-05	-0.0001	-5e-05	-5e-05	-0.0001	-0.00034	-0.00013	2e-05	6
31575	-6e-05	-0.0001	-5e-05	-5e-05	-0.0001	-0.00034	-0.00013	2e-05	6
31576	-6e-05	-0.0001	-5e-05	-5e-05	-0.0001	-0.00034	-0.00013	2e-05	6
31577	-6e-05	-0.0001	-5e-05	-5e-05	-0.0001	-0.00034	-0.00013	2e-05	6
31578	-6e-05	-0.0001	-5e-05	-5e-05	-0.0001	-0.00034	-0.00013	2e-05	6
31579	-6e-05	-0.0001	-5e-05	-5e-05	-0.0001	-0.00034	-0.00013	2e-05	6
31580	-6e-05	-0.0001	-5e-05	-5e-05	-0.0001	-0.00034	-0.00013	2e-05	6
31581	-6e-05	-0.0001	-5e-05	-5e-05	-0.0001	-0.00034	-0.00013	2e-05	6
31582	-6e-05	-0.0001	-5e-05	-5e-05	-0.0001	-0.00034	-0.00013	2e-05	6
31583	-6e-05	-0.0001	-5e-05	-5e-05	-0.0001	-0.00034	-0.00013	2e-05	6
31584	-6e-05	-0.0001	-5e-05	-5e-05	-0.0001	-0.00034	-0.00013	2e-05	6
31585	-6e-05	-0.0001	-5e-05	-5e-05	-0.0001	-0.00034	-0.00013	2e-05	6
31587	-0.00022	-0.00016	-3e-05	9e-05	0.00014	0.0001	6e-05	-0.00012	6
31589	-0.00022	-0.00016	-3e-05	9e-05	0.00014	0.0001	6e-05	-0.00012	6
31590	-0.00022	-0.00016	-3e-05	9e-05	0.00014	0.0001	6e-05	-0.00012	6
31591	-0.00022	-0.00016	-3e-05	9e-05	0.00014	0.0001	6e-05	-0.00012	6
31592	-3e-05	-3e-05	-8e-05	0	-2e-05	-4e-05	-2e-05	-0.00013	6
31593	-3e-05	-3e-05	-8e-05	0	-2e-05	-4e-05	-2e-05	-0.00013	6
31594	-3e-05	-3e-05	-8e-05	0	-2e-05	-4e-05	-2e-05	-0.00013	6
31595	-3e-05	-3e-05	-8e-05	0	-2e-05	-4e-05	-2e-05	-0.00013	6
31596	-3e-05	-3e-05	-8e-05	0	-2e-05	-4e-05	-2e-05	-0.00013	6
31597	-3e-05	-3e-05	-8e-05	0	-2e-05	-4e-05	-2e-05	-0.00013	6
31598	-3e-05	-3e-05	-8e-05	0	-2e-05	-4e-05	-2e-05	-0.00013	6
31599	-3e-05	-3e-05	-8e-05	0	-2e-05	-4e-05	-2e-05	-0.00013	6
31600	-3e-05	-3e-05	-8e-05	0	-2e-05	-4e-05	-2e-05	-0.00013	6
31601	-3e-05	-3e-05	-8e-05	0	-2e-05	-4e-05	-2e-05	-0.00013	6
31602	-3e-05	-3e-05	-8e-05	0	-2e-05	-4e-05	-2e-05	-0.00013	6
31603	-3e-05	-3e-05	-8e-05	0	-2e-05	-4e-05	-2e-05	-0.00013	6
31604	-3e-05	-3e-05	-8e-05	0	-2e-05	-4e-05	-2e-05	-0.00013	6
31605	-3e-05	-3e-05	-8e-05	0	-2e-05	-4e-05	-2e-05	-0.00013	6
31606	-3e-05	-3e-05	-8e-05	0	-2e-05	-4e-05	-2e-05	-0.00013	6
31607	-3e-05	-3e-05	-8e-05	0	-2e-05	-4e-05	-2e-05	-0.00013	6
31608	9e-05	7e-05	1e-05	-2e-05	-1e-05	4e-05	-5e-05	2e-05	6
31609	9e-05	7e-05	1e-05	-2e-05	-1e-05	4e-05	-5e-05	2e-05	6
31610	9e-05	7e-05	1e-05	-2e-05	-1e-05	4e-05	-5e-05	2e-05	6
31611	9e-05	7e-05	1e-05	-2e-05	-1e-05	4e-05	-5e-05	2e-05	6
31612	9e-05	7e-05	1e-05	-2e-05	-1e-05	4e-05	-5e-05	2e-05	6
31613	9e-05	7e-05	1e-05	-2e-05	-1e-05	4e-05	-5e-05	2e-05	6
31614	9e-05	7e-05	1e-05	-2e-05	-1e-05	4e-05	-5e-05	2e-05	6
31615	9e-05	7e-05	1e-05	-2e-05	-1e-05	4e-05	-5e-05	2e-05	6
31616	-0.00014	-6e-05	-1e-05	-2e-05	-3e-05	-4e-05	-0.00017	-0.00021	6
31617	0.00015	3e-05	-5e-05	-7e-05	-0.00012	-4e-05	4e-05	2e-05	6
31618	0.00015	3e-05	-5e-05	-7e-05	-0.00012	-4e-05	4e-05	2e-05	6
31619	0.00015	3e-05	-5e-05	-7e-05	-0.00012	-4e-05	4e-05	2e-05	6
31620	0.00015	3e-05	-5e-05	-7e-05	-0.00012	-4e-05	4e-05	2e-05	6
31621	0.00015	3e-05	-5e-05	-7e-05	-0.00012	-4e-05	4e-05	2e-05	6
31622	0.00015	3e-05	-5e-05	-7e-05	-0.00012	-4e-05	4e-05	2e-05	6
31623	0.00015	3e-05	-5e-05	-7e-05	-0.00012	-4e-05	4e-05	2e-05	6
31624	0.00015	3e-05	-5e-05	-7e-05	-0.00012	-4e-05	4e-05	2e-05	6
31625	0.00015	3e-05	-5e-05	-7e-05	-0.00012	-4e-05	4e-05	2e-05	6
31626	0.00015	3e-05	-5e-05	-7e-05	-0.00012	-4e-05	4e-05	2e-05	6
31627	0.00015	3e-05	-5e-05	-7e-05	-0.00012	-4e-05	4e-05	2e-05	6
31628	0.00015	3e-05	-5e-05	-7e-05	-0.00012	-4e-05	4e-05	2e-05	6
31629	0.00015	3e-05	-5e-05	-7e-05	-0.00012	-4e-05	4e-05	2e-05	6
31630	0.00015	3e-05	-5e-05	-7e-05	-0.00012	-4e-05	4e-05	2e-05	6
31631	0.00015	3e-05	-5e-05	-7e-05	-0.00012	-4e-05	4e-05	2e-05	6
31632	0.00015	3e-05	-5e-05	-7e-05	-0.00012	-4e-05	4e-05	2e-05	6
31633	0.00015	3e-05	-5e-05	-7e-05	-0.00012	-4e-05	4e-05	2e-05	6
31634	0.00015	3e-05	-5e-05	-7e-05	-0.00012	-4e-05	4e-05	2e-05	6
31635	0.00015	3e-05	-5e-05	-7e-05	-0.00012	-4e-05	4e-05	2e-05	6
31636	0.00015	3e-05	-5e-05	-7e-05	-0.00012	-4e-05	4e-05	2e-05	6
31639	-0.00012	-9e-05	-5e-05	0	2e-05	4e-05	0	-3e-05	6
31640	-0.00012	-9e-05	-5e-05	0	2e-05	4e-05	0	-3e-05	6
31641	-0.00012	-9e-05	-5e-05	0	2e-05	4e-05	0	-3e-05	6
31642	-0.00012	-9e-05	-5e-05	0	2e-05	4e-05	0	-3e-05	6
31643	-0.00012	-9e-05	-5e-05	0	2e-05	4e-05	0	-3e-05	6
31644	-0.00012	-9e-05	-5e-05	0	2e-05	4e-05	0	-3e-05	6
31645	-0.00012	-9e-05	-5e-05	0	2e-05	4e-05	0	-3e-05	6
31646	-0.00012	-9e-05	-5e-05	0	2e-05	4e-05	0	-3e-05	6
31647	-0.00012	-9e-05	-5e-05	0	2e-05	4e-05	0	-3e-05	6
31648	-0.00012	-9e-05	-5e-05	0	2e-05	4e-05	0	-3e-05	6
31649	-0.00012	-9e-05	-5e-05	0	2e-05	4e-05	0	-3e-05	6
31650	-0.00012	-9e-05	-5e-05	0	2e-05	4e-05	0	-3e-05	6
31651	-0.00012	-9e-05	-5e-05	0	2e-05	4e-05	0	-3e-05	6
31652	-0.00012	-9e-05	-5e-05	0	2e-05	4e-05	0	-3e-05	6
31653	-0.00012	-9e-05	-5e-05	0	2e-05	4e-05	0	-3e-05	6
31654	-0.00012	-9e-05	-5e-05	0	2e-05	4e-05	0	-3e-05	6
31655	-0.00012	-9e-05	-5e-05	0	2e-05	4e-05	0	-3e-05	6
31656	-0.00012	-9e-05	-5e-05	0	2e-05	4e-05	0	-3e-05	6
31657	-0.00012	-9e-05	-5e-05	0	2e-05	4e-05	0	-3e-05	6
31658	-0.00012	-9e-05	-5e-05	0	2e-05	4e-05	0	-3e-05	6
31659	-0.00012	-9e-05	-5e-05	0	2e-05	4e-05	0	-3e-05	6
31660	-0.00012	-9e-05	-5e-05	0	2e-05	4e-05	0	-3e-05	6
31661	-0.00012	-9e-05	-5e-05	0	2e-05	4e-05	0	-3e-05	6
31662	-0.00012	-9e-05	-5e-05	0	2e-05	4e-05	0	-3e-05	6
31663	-0.00013	-6e-05	2e-05	3e-05	0	2e-05	-7e-05	-0.00029	6
31664	-0.00013	-6e-05	2e-05	3e-05	0	2e-05	-7e-05	-0.00029	6
31665	-0.00013	-6e-05	2e-05	3e-05	0	2e-05	-7e-05	-0.00029	6
31666	-0.00013	-6e-05	2e-05	3e-05	0	2e-05	-7e-05	-0.00029	6
31667	-0.00013	-6e-05	2e-05	3e-05	0	2e-05	-7e-05	-0.00029	6
31668	-0.00013	-6e-05	2e-05	3e-05	0	2e-05	-7e-05	-0.00029	6
31669	-0.00013	-6e-05	2e-05	3e-05	0	2e-05	-7e-05	-0.00029	6
31670	-0.00013	-6e-05	2e-05	3e-05	0	2e-05	-7e-05	-0.00029	6
31671	-0.00013	-6e-05	2e-05	3e-05	0	2e-05	-7e-05	-0.00029	6
31672	-0.00013	-6e-05	2e-05	3e-05	0	2e-05	-7e-05	-0.00029	6
31673	-0.00013	-6e-05	2e-05	3e-05	0	2e-05	-7e-05	-0.00029	6
31674	-0.00013	-6e-05	2e-05	3e-05	0	2e-05	-7e-05	-0.00029	6
31675	-0.00013	-6e-05	2e-05	3e-05	0	2e-05	-7e-05	-0.00029	6
31676	0	5e-05	7e-05	5e-05	0.00016	7e-05	-5e-05	-0.00024	6
31678	0	5e-05	7e-05	5e-05	0.00016	7e-05	-5e-05	-0.00024	6
31679	0	5e-05	7e-05	5e-05	0.00016	7e-05	-5e-05	-0.00024	6
31680	0	5e-05	7e-05	5e-05	0.00016	7e-05	-5e-05	-0.00024	6
31681	0	5e-05	7e-05	5e-05	0.00016	7e-05	-5e-05	-0.00024	6
31682	0	5e-05	7e-05	5e-05	0.00016	7e-05	-5e-05	-0.00024	6
31683	0	5e-05	7e-05	5e-05	0.00016	7e-05	-5e-05	-0.00024	6
31684	0	5e-05	7e-05	5e-05	0.00016	7e-05	-5e-05	-0.00024	6
31685	0	5e-05	7e-05	5e-05	0.00016	7e-05	-5e-05	-0.00024	6
31686	0	5e-05	7e-05	5e-05	0.00016	7e-05	-5e-05	-0.00024	6
31688	0	5e-05	7e-05	5e-05	0.00016	7e-05	-5e-05	-0.00024	6
31689	0	5e-05	7e-05	5e-05	0.00016	7e-05	-5e-05	-0.00024	6
31690	0	5e-05	7e-05	5e-05	0.00016	7e-05	-5e-05	-0.00024	6
31691	0	5e-05	7e-05	5e-05	0.00016	7e-05	-5e-05	-0.00024	6
31692	-0.00017	-0.00025	-5e-05	0	5e-05	0	3e-05	-0.0001	6
31693	-0.00017	-0.00025	-5e-05	0	5e-05	0	3e-05	-0.0001	6
31694	-3e-05	2e-05	8e-05	6e-05	7e-05	4e-05	-0.0001	-0.0002	6
31695	0.00025	5e-05	4e-05	5e-05	0.00014	0.00012	9e-05	2e-05	6
31696	0.00025	5e-05	4e-05	5e-05	0.00014	0.00012	9e-05	2e-05	6
31697	0.00025	5e-05	4e-05	5e-05	0.00014	0.00012	9e-05	2e-05	6
31698	0.00025	5e-05	4e-05	5e-05	0.00014	0.00012	9e-05	2e-05	6
31699	0.00025	5e-05	4e-05	5e-05	0.00014	0.00012	9e-05	2e-05	6
31700	0.00025	5e-05	4e-05	5e-05	0.00014	0.00012	9e-05	2e-05	6
31701	0.00025	5e-05	4e-05	5e-05	0.00014	0.00012	9e-05	2e-05	6
31702	0.00025	5e-05	4e-05	5e-05	0.00014	0.00012	9e-05	2e-05	6
31703	0.00025	5e-05	4e-05	5e-05	0.00014	0.00012	9e-05	2e-05	6
31704	0.00025	5e-05	4e-05	5e-05	0.00014	0.00012	9e-05	2e-05	6
31705	0.00025	5e-05	4e-05	5e-05	0.00014	0.00012	9e-05	2e-05	6
31706	0.00025	5e-05	4e-05	5e-05	0.00014	0.00012	9e-05	2e-05	6
31707	0.00025	5e-05	4e-05	5e-05	0.00014	0.00012	9e-05	2e-05	6
31708	0.00025	5e-05	4e-05	5e-05	0.00014	0.00012	9e-05	2e-05	6
31709	0.00025	5e-05	4e-05	5e-05	0.00014	0.00012	9e-05	2e-05	6
31710	0.00025	5e-05	4e-05	5e-05	0.00014	0.00012	9e-05	2e-05	6
31711	0.00025	5e-05	4e-05	5e-05	0.00014	0.00012	9e-05	2e-05	6
31712	0.00025	5e-05	4e-05	5e-05	0.00014	0.00012	9e-05	2e-05	6
31713	0.00025	5e-05	4e-05	5e-05	0.00014	0.00012	9e-05	2e-05	6
31714	-0.00038	-0.00026	0	-3e-05	-0.0001	-9e-05	-8e-05	-0.00036	6
31715	-0.00038	-0.00026	0	-3e-05	-0.0001	-9e-05	-8e-05	-0.00036	6
31716	-0.00038	-0.00026	0	-3e-05	-0.0001	-9e-05	-8e-05	-0.00036	6
31717	-0.00038	-0.00026	0	-3e-05	-0.0001	-9e-05	-8e-05	-0.00036	6
31718	-0.00038	-0.00026	0	-3e-05	-0.0001	-9e-05	-8e-05	-0.00036	6
31719	-0.00038	-0.00026	0	-3e-05	-0.0001	-9e-05	-8e-05	-0.00036	6
31720	-0.00038	-0.00026	0	-3e-05	-0.0001	-9e-05	-8e-05	-0.00036	6
31721	-0.00038	-0.00026	0	-3e-05	-0.0001	-9e-05	-8e-05	-0.00036	6
31722	-0.00038	-0.00026	0	-3e-05	-0.0001	-9e-05	-8e-05	-0.00036	6
31723	-0.00038	-0.00026	0	-3e-05	-0.0001	-9e-05	-8e-05	-0.00036	6
31724	-0.00038	-0.00026	0	-3e-05	-0.0001	-9e-05	-8e-05	-0.00036	6
31725	-0.00038	-0.00026	0	-3e-05	-0.0001	-9e-05	-8e-05	-0.00036	6
31726	-0.00038	-0.00026	0	-3e-05	-0.0001	-9e-05	-8e-05	-0.00036	6
31727	-0.00038	-0.00026	0	-3e-05	-0.0001	-9e-05	-8e-05	-0.00036	6
31728	-0.00038	-0.00026	0	-3e-05	-0.0001	-9e-05	-8e-05	-0.00036	6
31729	-0.00038	-0.00026	0	-3e-05	-0.0001	-9e-05	-8e-05	-0.00036	6
31730	-0.00038	-0.00026	0	-3e-05	-0.0001	-9e-05	-8e-05	-0.00036	6
31731	-0.00038	-0.00026	0	-3e-05	-0.0001	-9e-05	-8e-05	-0.00036	6
31732	-0.00038	-0.00026	0	-3e-05	-0.0001	-9e-05	-8e-05	-0.00036	6
31733	-0.00038	-0.00026	0	-3e-05	-0.0001	-9e-05	-8e-05	-0.00036	6
31734	-0.00038	-0.00026	0	-3e-05	-0.0001	-9e-05	-8e-05	-0.00036	6
31735	-0.00038	-0.00026	0	-3e-05	-0.0001	-9e-05	-8e-05	-0.00036	6
31737	3e-05	8e-05	-9e-05	-5e-05	-8e-05	4e-05	-2e-05	-9e-05	6
31740	3e-05	8e-05	-9e-05	-5e-05	-8e-05	4e-05	-2e-05	-9e-05	6
31741	3e-05	8e-05	-9e-05	-5e-05	-8e-05	4e-05	-2e-05	-9e-05	6
31742	3e-05	8e-05	-9e-05	-5e-05	-8e-05	4e-05	-2e-05	-9e-05	6
31743	3e-05	8e-05	-9e-05	-5e-05	-8e-05	4e-05	-2e-05	-9e-05	6
31744	3e-05	8e-05	-9e-05	-5e-05	-8e-05	4e-05	-2e-05	-9e-05	6
31745	3e-05	8e-05	-9e-05	-5e-05	-8e-05	4e-05	-2e-05	-9e-05	6
31746	3e-05	8e-05	-9e-05	-5e-05	-8e-05	4e-05	-2e-05	-9e-05	6
31747	3e-05	8e-05	-9e-05	-5e-05	-8e-05	4e-05	-2e-05	-9e-05	6
31748	3e-05	8e-05	-9e-05	-5e-05	-8e-05	4e-05	-2e-05	-9e-05	6
31749	3e-05	8e-05	-9e-05	-5e-05	-8e-05	4e-05	-2e-05	-9e-05	6
31750	-0.00017	-0.00013	-0.00013	-8e-05	-5e-05	-9e-05	7e-05	-4e-05	6
31751	0.00014	0.00017	2e-05	-6e-05	-0.00011	-9e-05	-3e-05	0.00026	6
31752	0.00014	0.00017	2e-05	-6e-05	-0.00011	-9e-05	-3e-05	0.00026	6
31753	0.00014	0.00017	2e-05	-6e-05	-0.00011	-9e-05	-3e-05	0.00026	6
31754	0.00014	0.00017	2e-05	-6e-05	-0.00011	-9e-05	-3e-05	0.00026	6
31755	0.00014	0.00017	2e-05	-6e-05	-0.00011	-9e-05	-3e-05	0.00026	6
31756	0.00014	0.00017	2e-05	-6e-05	-0.00011	-9e-05	-3e-05	0.00026	6
31757	0.00014	0.00017	2e-05	-6e-05	-0.00011	-9e-05	-3e-05	0.00026	6
31758	0.00014	0.00017	2e-05	-6e-05	-0.00011	-9e-05	-3e-05	0.00026	6
31759	0.00014	0.00017	2e-05	-6e-05	-0.00011	-9e-05	-3e-05	0.00026	6
31760	0.00014	0.00017	2e-05	-6e-05	-0.00011	-9e-05	-3e-05	0.00026	6
31761	0.00014	0.00017	2e-05	-6e-05	-0.00011	-9e-05	-3e-05	0.00026	6
31762	0.00014	0.00017	2e-05	-6e-05	-0.00011	-9e-05	-3e-05	0.00026	6
31763	0.00014	0.00017	2e-05	-6e-05	-0.00011	-9e-05	-3e-05	0.00026	6
31764	0.00014	0.00017	2e-05	-6e-05	-0.00011	-9e-05	-3e-05	0.00026	6
31765	0.00014	0.00017	2e-05	-6e-05	-0.00011	-9e-05	-3e-05	0.00026	6
31766	0.00014	0.00017	2e-05	-6e-05	-0.00011	-9e-05	-3e-05	0.00026	6
31767	0.00014	0.00017	2e-05	-6e-05	-0.00011	-9e-05	-3e-05	0.00026	6
31768	0.00014	0.00017	2e-05	-6e-05	-0.00011	-9e-05	-3e-05	0.00026	6
31769	0.00014	0.00017	2e-05	-6e-05	-0.00011	-9e-05	-3e-05	0.00026	6
31770	0.00014	0.00017	2e-05	-6e-05	-0.00011	-9e-05	-3e-05	0.00026	6
31771	0.00014	0.00017	2e-05	-6e-05	-0.00011	-9e-05	-3e-05	0.00026	6
31772	0.00014	0.00017	2e-05	-6e-05	-0.00011	-9e-05	-3e-05	0.00026	6
31773	0.00011	0.0002	2e-05	4e-05	-3e-05	-4e-05	2e-05	6e-05	6
31774	0.00022	7e-05	-4e-05	-5e-05	-0.00012	-8e-05	3e-05	0.00025	6
31775	0.00022	7e-05	-4e-05	-5e-05	-0.00012	-8e-05	3e-05	0.00025	6
31776	0.00022	7e-05	-4e-05	-5e-05	-0.00012	-8e-05	3e-05	0.00025	6
31777	0.00022	7e-05	-4e-05	-5e-05	-0.00012	-8e-05	3e-05	0.00025	6
31778	0.00022	7e-05	-4e-05	-5e-05	-0.00012	-8e-05	3e-05	0.00025	6
31779	0.00022	7e-05	-4e-05	-5e-05	-0.00012	-8e-05	3e-05	0.00025	6
31780	0.00022	7e-05	-4e-05	-5e-05	-0.00012	-8e-05	3e-05	0.00025	6
31781	0.00022	7e-05	-4e-05	-5e-05	-0.00012	-8e-05	3e-05	0.00025	6
31782	0.00022	7e-05	-4e-05	-5e-05	-0.00012	-8e-05	3e-05	0.00025	6
31783	0.00022	7e-05	-4e-05	-5e-05	-0.00012	-8e-05	3e-05	0.00025	6
31784	0.00022	7e-05	-4e-05	-5e-05	-0.00012	-8e-05	3e-05	0.00025	6
31785	0.00022	7e-05	-4e-05	-5e-05	-0.00012	-8e-05	3e-05	0.00025	6
31786	0.00022	7e-05	-4e-05	-5e-05	-0.00012	-8e-05	3e-05	0.00025	6
31788	0.00022	7e-05	-4e-05	-5e-05	-0.00012	-8e-05	3e-05	0.00025	6
31790	0.00022	7e-05	-4e-05	-5e-05	-0.00012	-8e-05	3e-05	0.00025	6
31791	0.00022	7e-05	-4e-05	-5e-05	-0.00012	-8e-05	3e-05	0.00025	6
31792	0.00022	7e-05	-4e-05	-5e-05	-0.00012	-8e-05	3e-05	0.00025	6
31793	0.00022	7e-05	-4e-05	-5e-05	-0.00012	-8e-05	3e-05	0.00025	6
31794	0.00022	7e-05	-4e-05	-5e-05	-0.00012	-8e-05	3e-05	0.00025	6
31795	0.00022	7e-05	-4e-05	-5e-05	-0.00012	-8e-05	3e-05	0.00025	6
31796	0.00015	0.00016	7e-05	4e-05	0.00019	0.00013	6e-05	0.00019	6
31797	0.00015	0.00014	3e-05	6e-05	9e-05	5e-05	-4e-05	-0.00011	6
31799	0.00015	0.00014	3e-05	6e-05	9e-05	5e-05	-4e-05	-0.00011	6
31800	0.00015	0.00014	3e-05	6e-05	9e-05	5e-05	-4e-05	-0.00011	6
31801	0.00015	0.00014	3e-05	6e-05	9e-05	5e-05	-4e-05	-0.00011	6
31802	0.00015	0.00014	3e-05	6e-05	9e-05	5e-05	-4e-05	-0.00011	6
31803	0.00015	0.00014	3e-05	6e-05	9e-05	5e-05	-4e-05	-0.00011	6
31804	0.00015	0.00014	3e-05	6e-05	9e-05	5e-05	-4e-05	-0.00011	6
31805	0.00015	0.00014	3e-05	6e-05	9e-05	5e-05	-4e-05	-0.00011	6
31806	0.00015	0.00014	3e-05	6e-05	9e-05	5e-05	-4e-05	-0.00011	6
31807	0.00015	0.00014	3e-05	6e-05	9e-05	5e-05	-4e-05	-0.00011	6
31808	0.00015	0.00014	3e-05	6e-05	9e-05	5e-05	-4e-05	-0.00011	6
31809	0.00015	0.00014	3e-05	6e-05	9e-05	5e-05	-4e-05	-0.00011	6
31810	-4e-05	-7e-05	-5e-05	-3e-05	-5e-05	-5e-05	-9e-05	-6e-05	6
31811	-4e-05	-7e-05	-5e-05	-3e-05	-5e-05	-5e-05	-9e-05	-6e-05	6
31812	-4e-05	-7e-05	-5e-05	-3e-05	-5e-05	-5e-05	-9e-05	-6e-05	6
31813	-4e-05	-7e-05	-5e-05	-3e-05	-5e-05	-5e-05	-9e-05	-6e-05	6
31814	-4e-05	-7e-05	-5e-05	-3e-05	-5e-05	-5e-05	-9e-05	-6e-05	6
31815	-4e-05	-7e-05	-5e-05	-3e-05	-5e-05	-5e-05	-9e-05	-6e-05	6
31816	-4e-05	-7e-05	-5e-05	-3e-05	-5e-05	-5e-05	-9e-05	-6e-05	6
31817	-4e-05	-7e-05	-5e-05	-3e-05	-5e-05	-5e-05	-9e-05	-6e-05	6
31818	-7e-05	2e-05	-4e-05	-6e-05	-9e-05	-5e-05	1e-05	-1e-05	6
31819	-7e-05	2e-05	-4e-05	-6e-05	-9e-05	-5e-05	1e-05	-1e-05	6
31820	-7e-05	2e-05	-4e-05	-6e-05	-9e-05	-5e-05	1e-05	-1e-05	6
31821	-7e-05	2e-05	-4e-05	-6e-05	-9e-05	-5e-05	1e-05	-1e-05	6
31822	-7e-05	2e-05	-4e-05	-6e-05	-9e-05	-5e-05	1e-05	-1e-05	6
31823	-7e-05	2e-05	-4e-05	-6e-05	-9e-05	-5e-05	1e-05	-1e-05	6
31824	-7e-05	2e-05	-4e-05	-6e-05	-9e-05	-5e-05	1e-05	-1e-05	6
31825	-7e-05	2e-05	-4e-05	-6e-05	-9e-05	-5e-05	1e-05	-1e-05	6
31826	-7e-05	2e-05	-4e-05	-6e-05	-9e-05	-5e-05	1e-05	-1e-05	6
31827	-7e-05	2e-05	-4e-05	-6e-05	-9e-05	-5e-05	1e-05	-1e-05	6
31828	-7e-05	2e-05	-4e-05	-6e-05	-9e-05	-5e-05	1e-05	-1e-05	6
31829	-7e-05	2e-05	-4e-05	-6e-05	-9e-05	-5e-05	1e-05	-1e-05	6
31830	-7e-05	2e-05	-4e-05	-6e-05	-9e-05	-5e-05	1e-05	-1e-05	6
31831	-7e-05	2e-05	-4e-05	-6e-05	-9e-05	-5e-05	1e-05	-1e-05	6
31832	-7e-05	2e-05	-4e-05	-6e-05	-9e-05	-5e-05	1e-05	-1e-05	6
31833	-7e-05	2e-05	-4e-05	-6e-05	-9e-05	-5e-05	1e-05	-1e-05	6
31834	-7e-05	2e-05	-4e-05	-6e-05	-9e-05	-5e-05	1e-05	-1e-05	6
31835	-7e-05	2e-05	-4e-05	-6e-05	-9e-05	-5e-05	1e-05	-1e-05	6
31837	-7e-05	2e-05	-4e-05	-6e-05	-9e-05	-5e-05	1e-05	-1e-05	6
31839	-7e-05	2e-05	-4e-05	-6e-05	-9e-05	-5e-05	1e-05	-1e-05	6
31840	-7e-05	2e-05	-4e-05	-6e-05	-9e-05	-5e-05	1e-05	-1e-05	6
31841	8e-05	8e-05	7e-05	8e-05	0.00013	0.00013	4e-05	-5e-05	6
31842	0.00016	0.00024	4e-05	-3e-05	-4e-05	-1e-05	2e-05	-2e-05	6
31843	0.00016	0.00024	4e-05	-3e-05	-4e-05	-1e-05	2e-05	-2e-05	6
31844	0.00016	0.00024	4e-05	-3e-05	-4e-05	-1e-05	2e-05	-2e-05	6
31845	0.00016	0.00024	4e-05	-3e-05	-4e-05	-1e-05	2e-05	-2e-05	6
31846	0.00016	0.00024	4e-05	-3e-05	-4e-05	-1e-05	2e-05	-2e-05	6
31847	0.00016	0.00024	4e-05	-3e-05	-4e-05	-1e-05	2e-05	-2e-05	6
31848	0.00016	0.00024	4e-05	-3e-05	-4e-05	-1e-05	2e-05	-2e-05	6
31849	0.00016	0.00024	4e-05	-3e-05	-4e-05	-1e-05	2e-05	-2e-05	6
31850	0.00016	0.00024	4e-05	-3e-05	-4e-05	-1e-05	2e-05	-2e-05	6
