16927	3e-05	5e-05	0.00028	-0.00086	0.00042	0.00061	3e-05	3e-05	4
16928	3e-05	5e-05	0.00028	-0.00086	0.00042	0.00061	3e-05	3e-05	4
16929	3e-05	5e-05	0.00028	-0.00086	0.00042	0.00061	3e-05	3e-05	4
16930	3e-05	5e-05	0.00028	-0.00086	0.00042	0.00061	3e-05	3e-05	4
16931	3e-05	5e-05	0.00028	-0.00086	0.00042	0.00061	3e-05	3e-05	4
16932	3e-05	5e-05	0.00028	-0.00086	0.00042	0.00061	3e-05	3e-05	4
16933	3e-05	5e-05	0.00028	-0.00086	0.00042	0.00061	3e-05	3e-05	4
16934	3e-05	5e-05	0.00028	-0.00086	0.00042	0.00061	3e-05	3e-05	4
16935	3e-05	5e-05	0.00028	-0.00086	0.00042	0.00061	3e-05	3e-05	4
16936	3e-05	5e-05	0.00028	-0.00086	0.00042	0.00061	3e-05	3e-05	4
16939	3e-05	5e-05	0.00028	-0.00086	0.00042	0.00061	3e-05	3e-05	4
16940	3e-05	5e-05	0.00028	-0.00086	0.00042	0.00061	3e-05	3e-05	4
16941	-8e-05	-0.0001	-0.00028	0.00012	-0.00093	-0.0007	-0.00025	-0.0001	4
16942	4e-05	1e-05	4e-05	-0.00039	0.00045	0.00016	8e-05	6e-05	4
16943	4e-05	1e-05	4e-05	-0.00039	0.00045	0.00016	8e-05	6e-05	4
16944	0.00021	0.00034	0.00043	0.0009	0.00086	0.00098	0.00053	0.00025	4
16945	0.00021	0.00034	0.00043	0.0009	0.00086	0.00098	0.00053	0.00025	4
16946	0.00021	0.00034	0.00043	0.0009	0.00086	0.00098	0.00053	0.00025	4
16947	0.00021	0.00034	0.00043	0.0009	0.00086	0.00098	0.00053	0.00025	4
16948	0.00021	0.00034	0.00043	0.0009	0.00086	0.00098	0.00053	0.00025	4
16949	0.00021	0.00034	0.00043	0.0009	0.00086	0.00098	0.00053	0.00025	4
16950	0.00021	0.00034	0.00043	0.0009	0.00086	0.00098	0.00053	0.00025	4
16951	0.00021	0.00034	0.00043	0.0009	0.00086	0.00098	0.00053	0.00025	4
16952	0.00021	0.00034	0.00043	0.0009	0.00086	0.00098	0.00053	0.00025	4
16953	0.00021	0.00034	0.00043	0.0009	0.00086	0.00098	0.00053	0.00025	4
16954	0.00021	0.00034	0.00043	0.0009	0.00086	0.00098	0.00053	0.00025	4
16955	0.00021	0.00034	0.00043	0.0009	0.00086	0.00098	0.00053	0.00025	4
16956	-1e-05	-3e-05	-5e-05	-0.00046	-0.00078	-0.00024	3e-05	1e-05	4
16957	-1e-05	-3e-05	-5e-05	-0.00046	-0.00078	-0.00024	3e-05	1e-05	4
16958	-1e-05	-3e-05	-5e-05	-0.00046	-0.00078	-0.00024	3e-05	1e-05	4
16959	-1e-05	-3e-05	-5e-05	-0.00046	-0.00078	-0.00024	3e-05	1e-05	4
16960	-1e-05	-3e-05	-5e-05	-0.00046	-0.00078	-0.00024	3e-05	1e-05	4
16961	-1e-05	-3e-05	-5e-05	-0.00046	-0.00078	-0.00024	3e-05	1e-05	4
16962	-1e-05	-3e-05	-5e-05	-0.00046	-0.00078	-0.00024	3e-05	1e-05	4
16963	-0.0002	-0.00027	-0.00039	-0.00062	-0.00056	-0.00098	-0.00043	-0.00022	4
16964	-0.0002	-0.00027	-0.00039	-0.00062	-0.00056	-0.00098	-0.00043	-0.00022	4
16965	-0.0002	-0.00027	-0.00039	-0.00062	-0.00056	-0.00098	-0.00043	-0.00022	4
16966	-0.0002	-0.00027	-0.00039	-0.00062	-0.00056	-0.00098	-0.00043	-0.00022	4
16967	-0.0002	-0.00027	-0.00039	-0.00062	-0.00056	-0.00098	-0.00043	-0.00022	4
16968	-0.0002	-0.00027	-0.00039	-0.00062	-0.00056	-0.00098	-0.00043	-0.00022	4
16969	-0.0002	-0.00027	-0.00039	-0.00062	-0.00056	-0.00098	-0.00043	-0.00022	4
16970	-0.0002	-0.00027	-0.00039	-0.00062	-0.00056	-0.00098	-0.00043	-0.00022	4
16971	-0.0002	-0.00027	-0.00039	-0.00062	-0.00056	-0.00098	-0.00043	-0.00022	4
16972	-0.0002	-0.00027	-0.00039	-0.00062	-0.00056	-0.00098	-0.00043	-0.00022	4
16973	-0.0002	-0.00027	-0.00039	-0.00062	-0.00056	-0.00098	-0.00043	-0.00022	4
16974	-0.0002	-0.00027	-0.00039	-0.00062	-0.00056	-0.00098	-0.00043	-0.00022	4
16975	-0.0002	-0.00027	-0.00039	-0.00062	-0.00056	-0.00098	-0.00043	-0.00022	4
16976	-0.0002	-0.00027	-0.00039	-0.00062	-0.00056	-0.00098	-0.00043	-0.00022	4
16977	-0.0002	-0.00027	-0.00039	-0.00062	-0.00056	-0.00098	-0.00043	-0.00022	4
16978	-0.0002	-0.00027	-0.00039	-0.00062	-0.00056	-0.00098	-0.00043	-0.00022	4
16979	-0.0002	-0.00027	-0.00039	-0.00062	-0.00056	-0.00098	-0.00043	-0.00022	4
16980	6e-05	8e-05	0.0001	0.00013	0.00096	-0.00012	0.00014	7e-05	4
16981	2e-05	9e-05	0.00022	0.00104	-0.00037	-8e-05	0	1e-05	4
16982	-0.00011	-0.00015	-0.00012	-3e-05	-0.00062	-0.0007	-0.00029	-0.00013	4
16983	-0.00011	-0.00015	-0.00012	-3e-05	-0.00062	-0.0007	-0.00029	-0.00013	4
16984	-0.00011	-0.00015	-0.00012	-3e-05	-0.00062	-0.0007	-0.00029	-0.00013	4
16985	-0.00011	-0.00015	-0.00012	-3e-05	-0.00062	-0.0007	-0.00029	-0.00013	4
16986	-0.00011	-0.00015	-0.00012	-3e-05	-0.00062	-0.0007	-0.00029	-0.00013	4
16989	-0.00011	-0.00015	-0.00012	-3e-05	-0.00062	-0.0007	-0.00029	-0.00013	4
16990	-0.00011	-0.00015	-0.00012	-3e-05	-0.00062	-0.0007	-0.00029	-0.00013	4
16991	-0.00011	-0.00015	-0.00012	-3e-05	-0.00062	-0.0007	-0.00029	-0.00013	4
16992	-0.00011	-0.00015	-0.00012	-3e-05	-0.00062	-0.0007	-0.00029	-0.00013	4
16993	-0.00011	-0.00015	-0.00012	-3e-05	-0.00062	-0.0007	-0.00029	-0.00013	4
16994	-0.00011	-0.00015	-0.00012	-3e-05	-0.00062	-0.0007	-0.00029	-0.00013	4
16995	-0.00011	-0.00015	-0.00012	-3e-05	-0.00062	-0.0007	-0.00029	-0.00013	4
16996	-0.00011	-0.00015	-0.00012	-3e-05	-0.00062	-0.0007	-0.00029	-0.00013	4
16997	-0.00011	-0.00015	-0.00012	-3e-05	-0.00062	-0.0007	-0.00029	-0.00013	4
16998	-0.00011	-0.00015	-0.00012	-3e-05	-0.00062	-0.0007	-0.00029	-0.00013	4
16999	-0.00011	-0.00015	-0.00012	-3e-05	-0.00062	-0.0007	-0.00029	-0.00013	4
17000	-0.00011	-0.00015	-0.00012	-3e-05	-0.00062	-0.0007	-0.00029	-0.00013	4
17001	-5e-05	-0.00015	-0.00053	0.00021	-0.00077	0.00043	9e-05	-1e-05	4
17002	-7e-05	-0.00011	-0.00014	-0.00043	-0.00038	-0.00067	-7e-05	-6e-05	4
17003	-7e-05	-0.00011	-0.00029	-0.00013	-0.00127	-7e-05	-0.00011	-7e-05	4
17004	-7e-05	-0.00011	-0.00029	-0.00013	-0.00127	-7e-05	-0.00011	-7e-05	4
17005	-7e-05	-0.00011	-0.00029	-0.00013	-0.00127	-7e-05	-0.00011	-7e-05	4
17006	-7e-05	-0.00011	-0.00029	-0.00013	-0.00127	-7e-05	-0.00011	-7e-05	4
17007	-7e-05	-0.00011	-0.00029	-0.00013	-0.00127	-7e-05	-0.00011	-7e-05	4
17008	-7e-05	-0.00011	-0.00029	-0.00013	-0.00127	-7e-05	-0.00011	-7e-05	4
17009	-7e-05	-0.00011	-0.00029	-0.00013	-0.00127	-7e-05	-0.00011	-7e-05	4
17010	-7e-05	-0.00011	-0.00029	-0.00013	-0.00127	-7e-05	-0.00011	-7e-05	4
17011	-7e-05	-0.00011	-0.00029	-0.00013	-0.00127	-7e-05	-0.00011	-7e-05	4
17012	-7e-05	-0.00011	-0.00029	-0.00013	-0.00127	-7e-05	-0.00011	-7e-05	4
17013	-7e-05	-0.00011	-0.00029	-0.00013	-0.00127	-7e-05	-0.00011	-7e-05	4
17014	-7e-05	-0.00011	-0.00029	-0.00013	-0.00127	-7e-05	-0.00011	-7e-05	4
17015	-7e-05	-0.00011	-0.00029	-0.00013	-0.00127	-7e-05	-0.00011	-7e-05	4
17016	-0.00015	-0.00025	-0.00032	-0.0001	-3e-05	-0.00027	-0.00023	-0.00014	4
17017	-0.00015	-0.00025	-0.00032	-0.0001	-3e-05	-0.00027	-0.00023	-0.00014	4
17018	-0.00015	-0.00025	-0.00032	-0.0001	-3e-05	-0.00027	-0.00023	-0.00014	4
17019	-0.00015	-0.00025	-0.00032	-0.0001	-3e-05	-0.00027	-0.00023	-0.00014	4
17020	-0.00015	-0.00025	-0.00032	-0.0001	-3e-05	-0.00027	-0.00023	-0.00014	4
17021	-0.00015	-0.00025	-0.00032	-0.0001	-3e-05	-0.00027	-0.00023	-0.00014	4
17022	4e-05	0.0001	0.00017	-0.00033	-0.0002	0.00026	0.00022	0.00011	4
17023	-2e-05	-4e-05	-6e-05	0.00115	0.00099	5e-05	-9e-05	-5e-05	4
17024	-2e-05	-4e-05	-6e-05	0.00115	0.00099	5e-05	-9e-05	-5e-05	4
17025	-2e-05	-4e-05	-6e-05	0.00115	0.00099	5e-05	-9e-05	-5e-05	4
17026	-2e-05	-4e-05	-6e-05	0.00115	0.00099	5e-05	-9e-05	-5e-05	4
17027	-2e-05	-4e-05	-6e-05	0.00115	0.00099	5e-05	-9e-05	-5e-05	4
17028	-2e-05	-4e-05	-6e-05	0.00115	0.00099	5e-05	-9e-05	-5e-05	4
17029	-2e-05	-4e-05	-6e-05	0.00115	0.00099	5e-05	-9e-05	-5e-05	4
17030	-2e-05	-4e-05	-6e-05	0.00115	0.00099	5e-05	-9e-05	-5e-05	4
17031	-2e-05	-4e-05	-6e-05	0.00115	0.00099	5e-05	-9e-05	-5e-05	4
17032	-2e-05	-4e-05	-6e-05	0.00115	0.00099	5e-05	-9e-05	-5e-05	4
17033	-2e-05	-4e-05	-6e-05	0.00115	0.00099	5e-05	-9e-05	-5e-05	4
17034	-2e-05	-4e-05	-6e-05	0.00115	0.00099	5e-05	-9e-05	-5e-05	4
17035	-2e-05	-4e-05	-6e-05	0.00115	0.00099	5e-05	-9e-05	-5e-05	4
17036	-2e-05	-4e-05	-6e-05	0.00115	0.00099	5e-05	-9e-05	-5e-05	4
17039	-2e-05	-4e-05	-6e-05	0.00115	0.00099	5e-05	-9e-05	-5e-05	4
17040	5e-05	9e-05	0.00017	0.00033	0.00094	0.00096	0.00024	8e-05	4
17041	0.00023	0.00035	0.00064	0.0005	-0.00028	0.00057	0.00039	0.00026	4
17042	0.00023	0.00035	0.00064	0.0005	-0.00028	0.00057	0.00039	0.00026	4
17043	0.00023	0.00035	0.00064	0.0005	-0.00028	0.00057	0.00039	0.00026	4
17044	0.00023	0.00035	0.00064	0.0005	-0.00028	0.00057	0.00039	0.00026	4
17045	0.00023	0.00035	0.00064	0.0005	-0.00028	0.00057	0.00039	0.00026	4
17046	0.00023	0.00035	0.00064	0.0005	-0.00028	0.00057	0.00039	0.00026	4
17047	0.00023	0.00035	0.00064	0.0005	-0.00028	0.00057	0.00039	0.00026	4
17048	0.00023	0.00035	0.00064	0.0005	-0.00028	0.00057	0.00039	0.00026	4
17049	0.00023	0.00035	0.00064	0.0005	-0.00028	0.00057	0.00039	0.00026	4
17050	0.00023	0.00035	0.00064	0.0005	-0.00028	0.00057	0.00039	0.00026	4
17051	0.00023	0.00035	0.00064	0.0005	-0.00028	0.00057	0.00039	0.00026	4
17052	0.00023	0.00035	0.00064	0.0005	-0.00028	0.00057	0.00039	0.00026	4
17053	0.00023	0.00035	0.00064	0.0005	-0.00028	0.00057	0.00039	0.00026	4
17054	0.00023	0.00035	0.00064	0.0005	-0.00028	0.00057	0.00039	0.00026	4
17055	0.00023	0.00035	0.00064	0.0005	-0.00028	0.00057	0.00039	0.00026	4
17056	0.00023	0.00035	0.00064	0.0005	-0.00028	0.00057	0.00039	0.00026	4
17057	0.00023	0.00035	0.00064	0.0005	-0.00028	0.00057	0.00039	0.00026	4
17058	0.00023	0.00035	0.00064	0.0005	-0.00028	0.00057	0.00039	0.00026	4
17059	0.00023	0.00035	0.00064	0.0005	-0.00028	0.00057	0.00039	0.00026	4
17060	0.00023	0.00035	0.00064	0.0005	-0.00028	0.00057	0.00039	0.00026	4
17061	6e-05	0.00014	0.0002	0.00025	0.0006	-0.00039	0	6e-05	4
17062	6e-05	0.00014	0.0002	0.00025	0.0006	-0.00039	0	6e-05	4
17063	0.00013	0.00025	0.00059	0.00067	0.00038	-0.00035	0.00018	0.00017	4
17064	-7e-05	-0.0001	-0.0002	2e-05	-5e-05	3e-05	-9e-05	-8e-05	4
17065	-7e-05	-0.0001	-0.0002	2e-05	-5e-05	3e-05	-9e-05	-8e-05	4
17066	-7e-05	-0.0001	-0.0002	2e-05	-5e-05	3e-05	-9e-05	-8e-05	4
17067	-7e-05	-0.0001	-0.0002	2e-05	-5e-05	3e-05	-9e-05	-8e-05	4
17068	-7e-05	-0.0001	-0.0002	2e-05	-5e-05	3e-05	-9e-05	-8e-05	4
17069	-7e-05	-0.0001	-0.0002	2e-05	-5e-05	3e-05	-9e-05	-8e-05	4
17070	-7e-05	-0.0001	-0.0002	2e-05	-5e-05	3e-05	-9e-05	-8e-05	4
17071	-7e-05	-0.0001	-0.0002	2e-05	-5e-05	3e-05	-9e-05	-8e-05	4
17072	-7e-05	-0.0001	-0.0002	2e-05	-5e-05	3e-05	-9e-05	-8e-05	4
17073	-7e-05	-0.0001	-0.0002	2e-05	-5e-05	3e-05	-9e-05	-8e-05	4
17074	-7e-05	-0.0001	-0.0002	2e-05	-5e-05	3e-05	-9e-05	-8e-05	4
17075	-7e-05	-0.0001	-0.0002	2e-05	-5e-05	3e-05	-9e-05	-8e-05	4
17076	0.0001	0.00012	9e-05	-0.00045	-0.00108	0.00105	9e-05	9e-05	4
17077	0.0001	0.00012	9e-05	-0.00045	-0.00108	0.00105	9e-05	9e-05	4
17078	0.0001	0.00012	9e-05	-0.00045	-0.00108	0.00105	9e-05	9e-05	4
17079	0.0001	0.00012	9e-05	-0.00045	-0.00108	0.00105	9e-05	9e-05	4
17080	0.0001	0.00012	9e-05	-0.00045	-0.00108	0.00105	9e-05	9e-05	4
17081	0.0001	0.00012	9e-05	-0.00045	-0.00108	0.00105	9e-05	9e-05	4
17082	-0.00023	-0.00034	-0.00039	-0.00077	-0.00108	-0.00124	-0.00033	-0.00027	4
17083	8e-05	0.00015	8e-05	0.00067	0.00017	0.00033	0.00027	0.00013	4
17084	8e-05	0.00015	8e-05	0.00067	0.00017	0.00033	0.00027	0.00013	4
17085	8e-05	0.00015	8e-05	0.00067	0.00017	0.00033	0.00027	0.00013	4
17086	8e-05	0.00015	8e-05	0.00067	0.00017	0.00033	0.00027	0.00013	4
17089	8e-05	0.00015	8e-05	0.00067	0.00017	0.00033	0.00027	0.00013	4
17090	8e-05	0.00015	8e-05	0.00067	0.00017	0.00033	0.00027	0.00013	4
17091	8e-05	0.00015	8e-05	0.00067	0.00017	0.00033	0.00027	0.00013	4
17092	8e-05	0.00015	8e-05	0.00067	0.00017	0.00033	0.00027	0.00013	4
17093	8e-05	0.00015	8e-05	0.00067	0.00017	0.00033	0.00027	0.00013	4
17094	8e-05	0.00015	8e-05	0.00067	0.00017	0.00033	0.00027	0.00013	4
17095	8e-05	0.00015	8e-05	0.00067	0.00017	0.00033	0.00027	0.00013	4
17096	8e-05	0.00015	8e-05	0.00067	0.00017	0.00033	0.00027	0.00013	4
17097	8e-05	0.00015	8e-05	0.00067	0.00017	0.00033	0.00027	0.00013	4
17098	8e-05	0.00015	8e-05	0.00067	0.00017	0.00033	0.00027	0.00013	4
17099	-0.00013	-0.00017	-0.00018	0.00024	0.00046	-0.00023	-0.00028	-0.00015	4
17100	-6e-05	-4e-05	-0.00018	-0.00043	-0.00095	0.00017	-0.00019	-0.0001	4
17101	-2e-05	-0.00014	-0.00021	0.00015	0.00055	5e-05	1e-05	-2e-05	4
17102	-2e-05	-0.00014	-0.00021	0.00015	0.00055	5e-05	1e-05	-2e-05	4
17103	-2e-05	-0.00014	-0.00021	0.00015	0.00055	5e-05	1e-05	-2e-05	4
17104	-2e-05	-0.00014	-0.00021	0.00015	0.00055	5e-05	1e-05	-2e-05	4
17105	-2e-05	-0.00014	-0.00021	0.00015	0.00055	5e-05	1e-05	-2e-05	4
17106	-2e-05	-0.00014	-0.00021	0.00015	0.00055	5e-05	1e-05	-2e-05	4
17107	-2e-05	-0.00014	-0.00021	0.00015	0.00055	5e-05	1e-05	-2e-05	4
17108	-2e-05	-0.00014	-0.00021	0.00015	0.00055	5e-05	1e-05	-2e-05	4
17109	-2e-05	-0.00014	-0.00021	0.00015	0.00055	5e-05	1e-05	-2e-05	4
17110	-2e-05	-0.00014	-0.00021	0.00015	0.00055	5e-05	1e-05	-2e-05	4
17111	-2e-05	-0.00014	-0.00021	0.00015	0.00055	5e-05	1e-05	-2e-05	4
17112	-2e-05	-0.00014	-0.00021	0.00015	0.00055	5e-05	1e-05	-2e-05	4
17113	-2e-05	-0.00014	-0.00021	0.00015	0.00055	5e-05	1e-05	-2e-05	4
17114	-2e-05	-0.00014	-0.00021	0.00015	0.00055	5e-05	1e-05	-2e-05	4
17115	-2e-05	-0.00014	-0.00021	0.00015	0.00055	5e-05	1e-05	-2e-05	4
17116	-2e-05	-0.00014	-0.00021	0.00015	0.00055	5e-05	1e-05	-2e-05	4
17117	-2e-05	-0.00014	-0.00021	0.00015	0.00055	5e-05	1e-05	-2e-05	4
17118	-2e-05	-0.00014	-0.00021	0.00015	0.00055	5e-05	1e-05	-2e-05	4
17119	-2e-05	-0.00014	-0.00021	0.00015	0.00055	5e-05	1e-05	-2e-05	4
17120	-2e-05	-0.00014	-0.00021	0.00015	0.00055	5e-05	1e-05	-2e-05	4
17121	-1e-05	-1e-05	-2e-05	-0.00126	-0.00084	-4e-05	-9e-05	2e-05	4
17122	-3e-05	-4e-05	-8e-05	0.00016	0.0002	0	-0.00014	-5e-05	4
17123	-8e-05	-9e-05	-0.00014	-0.00128	-0.00106	-0.00112	-0.00015	-8e-05	4
17124	-8e-05	-9e-05	-0.00014	-0.00128	-0.00106	-0.00112	-0.00015	-8e-05	4
17125	-8e-05	-9e-05	-0.00014	-0.00128	-0.00106	-0.00112	-0.00015	-8e-05	4
17126	-8e-05	-9e-05	-0.00014	-0.00128	-0.00106	-0.00112	-0.00015	-8e-05	4
17127	-8e-05	-9e-05	-0.00014	-0.00128	-0.00106	-0.00112	-0.00015	-8e-05	4
17128	-8e-05	-9e-05	-0.00014	-0.00128	-0.00106	-0.00112	-0.00015	-8e-05	4
17129	-8e-05	-9e-05	-0.00014	-0.00128	-0.00106	-0.00112	-0.00015	-8e-05	4
17130	-8e-05	-9e-05	-0.00014	-0.00128	-0.00106	-0.00112	-0.00015	-8e-05	4
17131	-8e-05	-9e-05	-0.00014	-0.00128	-0.00106	-0.00112	-0.00015	-8e-05	4
17132	-8e-05	-9e-05	-0.00014	-0.00128	-0.00106	-0.00112	-0.00015	-8e-05	4
17133	-8e-05	-9e-05	-0.00014	-0.00128	-0.00106	-0.00112	-0.00015	-8e-05	4
17134	-8e-05	-9e-05	-0.00014	-0.00128	-0.00106	-0.00112	-0.00015	-8e-05	4
17135	-8e-05	-9e-05	-0.00014	-0.00128	-0.00106	-0.00112	-0.00015	-8e-05	4
17136	-9e-05	-9e-05	-4e-05	-0.00025	-0.00108	-0.00027	-0.00016	-0.00011	4
17139	-9e-05	-9e-05	-4e-05	-0.00025	-0.00108	-0.00027	-0.00016	-0.00011	4
17140	-9e-05	-9e-05	-4e-05	-0.00025	-0.00108	-0.00027	-0.00016	-0.00011	4
17141	-9e-05	-9e-05	-4e-05	-0.00025	-0.00108	-0.00027	-0.00016	-0.00011	4
17142	-9e-05	-9e-05	-4e-05	-0.00025	-0.00108	-0.00027	-0.00016	-0.00011	4
17143	-2e-05	-3e-05	-9e-05	-0.00095	0.00039	0.00019	4e-05	1e-05	4
17144	-2e-05	-3e-05	-9e-05	-0.00095	0.00039	0.00019	4e-05	1e-05	4
17145	-2e-05	-3e-05	-9e-05	-0.00095	0.00039	0.00019	4e-05	1e-05	4
17146	-2e-05	-3e-05	-9e-05	-0.00095	0.00039	0.00019	4e-05	1e-05	4
17147	-2e-05	-3e-05	-9e-05	-0.00095	0.00039	0.00019	4e-05	1e-05	4
17148	-2e-05	-3e-05	-9e-05	-0.00095	0.00039	0.00019	4e-05	1e-05	4
17149	-2e-05	-3e-05	-9e-05	-0.00095	0.00039	0.00019	4e-05	1e-05	4
17150	-2e-05	-3e-05	-9e-05	-0.00095	0.00039	0.00019	4e-05	1e-05	4
17151	-2e-05	-3e-05	-9e-05	-0.00095	0.00039	0.00019	4e-05	1e-05	4
17152	-2e-05	-3e-05	-9e-05	-0.00095	0.00039	0.00019	4e-05	1e-05	4
17153	-2e-05	-3e-05	-9e-05	-0.00095	0.00039	0.00019	4e-05	1e-05	4
17154	-2e-05	-3e-05	-9e-05	-0.00095	0.00039	0.00019	4e-05	1e-05	4
17155	-2e-05	-3e-05	-9e-05	-0.00095	0.00039	0.00019	4e-05	1e-05	4
17156	-2e-05	-3e-05	-9e-05	-0.00095	0.00039	0.00019	4e-05	1e-05	4
17157	-2e-05	-3e-05	-9e-05	-0.00095	0.00039	0.00019	4e-05	1e-05	4
17158	-2e-05	-3e-05	-9e-05	-0.00095	0.00039	0.00019	4e-05	1e-05	4
17159	-0.00016	-0.00025	-0.00035	0	-0.00104	-0.00028	-0.00021	-0.00014	4
17160	0	0.0001	0.00022	3e-05	0.00087	-0.00012	-9e-05	-3e-05	4
17161	-0.00014	-0.00024	-0.00037	0.00025	-0.00098	-0.00087	-0.00028	-0.00017	4
17162	-0.00014	-0.00024	-0.00037	0.00025	-0.00098	-0.00087	-0.00028	-0.00017	4
17163	-0.00014	-0.00024	-0.00037	0.00025	-0.00098	-0.00087	-0.00028	-0.00017	4
17164	-0.00014	-0.00024	-0.00037	0.00025	-0.00098	-0.00087	-0.00028	-0.00017	4
17165	-0.00014	-0.00024	-0.00037	0.00025	-0.00098	-0.00087	-0.00028	-0.00017	4
17166	-0.00014	-0.00024	-0.00037	0.00025	-0.00098	-0.00087	-0.00028	-0.00017	4
17167	-0.00014	-0.00024	-0.00037	0.00025	-0.00098	-0.00087	-0.00028	-0.00017	4
17168	-0.00014	-0.00024	-0.00037	0.00025	-0.00098	-0.00087	-0.00028	-0.00017	4
17169	-0.00014	-0.00024	-0.00037	0.00025	-0.00098	-0.00087	-0.00028	-0.00017	4
17170	-0.00014	-0.00024	-0.00037	0.00025	-0.00098	-0.00087	-0.00028	-0.00017	4
17171	-0.00014	-0.00024	-0.00037	0.00025	-0.00098	-0.00087	-0.00028	-0.00017	4
17172	-0.00014	-0.00024	-0.00037	0.00025	-0.00098	-0.00087	-0.00028	-0.00017	4
17173	-0.00014	-0.00024	-0.00037	0.00025	-0.00098	-0.00087	-0.00028	-0.00017	4
17174	-0.00014	-0.00024	-0.00037	0.00025	-0.00098	-0.00087	-0.00028	-0.00017	4
17175	-0.00014	-0.00024	-0.00037	0.00025	-0.00098	-0.00087	-0.00028	-0.00017	4
17176	-0.00014	-0.00024	-0.00037	0.00025	-0.00098	-0.00087	-0.00028	-0.00017	4
17177	-0.00014	-0.00024	-0.00037	0.00025	-0.00098	-0.00087	-0.00028	-0.00017	4
17178	-0.00014	-0.00024	-0.00037	0.00025	-0.00098	-0.00087	-0.00028	-0.00017	4
17179	-0.00014	-0.00024	-0.00037	0.00025	-0.00098	-0.00087	-0.00028	-0.00017	4
17180	-0.00014	-0.00024	-0.00037	0.00025	-0.00098	-0.00087	-0.00028	-0.00017	4
17181	-0.00014	-0.00024	-0.00037	0.00025	-0.00098	-0.00087	-0.00028	-0.00017	4
17182	1e-05	-3e-05	-1e-05	0.00049	6e-05	-3e-05	-0.0001	-3e-05	4
17183	-8e-05	-0.00015	-0.00029	0.00014	-0.0005	-0.00049	-7e-05	-0.0001	4
17184	-8e-05	-0.00015	-0.00029	0.00014	-0.0005	-0.00049	-7e-05	-0.0001	4
17185	-8e-05	-0.00015	-0.00029	0.00014	-0.0005	-0.00049	-7e-05	-0.0001	4
17186	-8e-05	-0.00015	-0.00029	0.00014	-0.0005	-0.00049	-7e-05	-0.0001	4
17189	-8e-05	-0.00015	-0.00029	0.00014	-0.0005	-0.00049	-7e-05	-0.0001	4
17190	-8e-05	-0.00015	-0.00029	0.00014	-0.0005	-0.00049	-7e-05	-0.0001	4
17191	-8e-05	-0.00015	-0.00029	0.00014	-0.0005	-0.00049	-7e-05	-0.0001	4
17192	-8e-05	-0.00015	-0.00029	0.00014	-0.0005	-0.00049	-7e-05	-0.0001	4
17193	-8e-05	-0.00015	-0.00029	0.00014	-0.0005	-0.00049	-7e-05	-0.0001	4
17194	-8e-05	-0.00015	-0.00029	0.00014	-0.0005	-0.00049	-7e-05	-0.0001	4
17195	-8e-05	-0.00015	-0.00029	0.00014	-0.0005	-0.00049	-7e-05	-0.0001	4
17196	2e-05	9e-05	0.0002	-0.00025	-0.00122	-0.00015	-7e-05	1e-05	4
17197	2e-05	9e-05	0.0002	-0.00025	-0.00122	-0.00015	-7e-05	1e-05	4
17198	2e-05	9e-05	0.0002	-0.00025	-0.00122	-0.00015	-7e-05	1e-05	4
17199	2e-05	9e-05	0.0002	-0.00025	-0.00122	-0.00015	-7e-05	1e-05	4
17200	2e-05	9e-05	0.0002	-0.00025	-0.00122	-0.00015	-7e-05	1e-05	4
17201	2e-05	9e-05	0.0002	-0.00025	-0.00122	-0.00015	-7e-05	1e-05	4
17202	2e-05	9e-05	0.0002	-0.00025	-0.00122	-0.00015	-7e-05	1e-05	4
17203	2e-05	9e-05	0.0002	-0.00025	-0.00122	-0.00015	-7e-05	1e-05	4
17204	3e-05	2e-05	0	0.00023	-0.00014	0.00061	9e-05	5e-05	4
17205	3e-05	2e-05	0	0.00023	-0.00014	0.00061	9e-05	5e-05	4
17206	3e-05	2e-05	0	0.00023	-0.00014	0.00061	9e-05	5e-05	4
17207	3e-05	2e-05	0	0.00023	-0.00014	0.00061	9e-05	5e-05	4
17208	3e-05	2e-05	0	0.00023	-0.00014	0.00061	9e-05	5e-05	4
17209	3e-05	2e-05	0	0.00023	-0.00014	0.00061	9e-05	5e-05	4
17210	3e-05	2e-05	0	0.00023	-0.00014	0.00061	9e-05	5e-05	4
17211	3e-05	2e-05	0	0.00023	-0.00014	0.00061	9e-05	5e-05	4
17212	3e-05	2e-05	0	0.00023	-0.00014	0.00061	9e-05	5e-05	4
17213	3e-05	2e-05	0	0.00023	-0.00014	0.00061	9e-05	5e-05	4
17214	3e-05	2e-05	0	0.00023	-0.00014	0.00061	9e-05	5e-05	4
17215	3e-05	2e-05	0	0.00023	-0.00014	0.00061	9e-05	5e-05	4
17216	3e-05	2e-05	0	0.00023	-0.00014	0.00061	9e-05	5e-05	4
17217	3e-05	2e-05	0	0.00023	-0.00014	0.00061	9e-05	5e-05	4
17218	3e-05	2e-05	0	0.00023	-0.00014	0.00061	9e-05	5e-05	4
17219	3e-05	4e-05	-4e-05	0.00039	0.00035	-0.00018	0.00021	5e-05	4
17220	1e-05	-3e-05	-0.00014	0.00037	0.00091	0.00021	-0.00011	-1e-05	4
17221	-1e-05	-1e-05	9e-05	-0.00045	0.00021	0.00084	8e-05	4e-05	4
17222	-1e-05	-1e-05	9e-05	-0.00045	0.00021	0.00084	8e-05	4e-05	4
17223	-1e-05	-1e-05	9e-05	-0.00045	0.00021	0.00084	8e-05	4e-05	4
17224	-1e-05	-1e-05	9e-05	-0.00045	0.00021	0.00084	8e-05	4e-05	4
17226	-1e-05	-1e-05	9e-05	-0.00045	0.00021	0.00084	8e-05	4e-05	4
17227	-1e-05	-1e-05	9e-05	-0.00045	0.00021	0.00084	8e-05	4e-05	4
17228	-1e-05	-1e-05	9e-05	-0.00045	0.00021	0.00084	8e-05	4e-05	4
17229	-1e-05	-1e-05	9e-05	-0.00045	0.00021	0.00084	8e-05	4e-05	4
17230	-1e-05	-1e-05	9e-05	-0.00045	0.00021	0.00084	8e-05	4e-05	4
17231	-1e-05	-1e-05	9e-05	-0.00045	0.00021	0.00084	8e-05	4e-05	4
17232	-1e-05	-1e-05	9e-05	-0.00045	0.00021	0.00084	8e-05	4e-05	4
17233	-1e-05	-1e-05	9e-05	-0.00045	0.00021	0.00084	8e-05	4e-05	4
17234	-1e-05	-1e-05	9e-05	-0.00045	0.00021	0.00084	8e-05	4e-05	4
17235	-1e-05	-1e-05	9e-05	-0.00045	0.00021	0.00084	8e-05	4e-05	4
17236	-1e-05	-1e-05	9e-05	-0.00045	0.00021	0.00084	8e-05	4e-05	4
17239	-1e-05	-1e-05	9e-05	-0.00045	0.00021	0.00084	8e-05	4e-05	4
17240	-1e-05	-1e-05	9e-05	-0.00045	0.00021	0.00084	8e-05	4e-05	4
17241	-1e-05	-1e-05	9e-05	-0.00045	0.00021	0.00084	8e-05	4e-05	4
17242	3e-05	5e-05	6e-05	-0.00057	-0.0003	0.00057	0.00017	6e-05	4
17243	6e-05	0.0001	0.00014	0	-0.00091	-0.0004	-0.00014	-3e-05	4
17244	-1e-05	1e-05	0	-0.00011	-0.00048	0.00059	-9e-05	-1e-05	4
17245	-1e-05	1e-05	0	-0.00011	-0.00048	0.00059	-9e-05	-1e-05	4
17246	-1e-05	1e-05	0	-0.00011	-0.00048	0.00059	-9e-05	-1e-05	4
17247	-1e-05	1e-05	0	-0.00011	-0.00048	0.00059	-9e-05	-1e-05	4
17248	-1e-05	1e-05	0	-0.00011	-0.00048	0.00059	-9e-05	-1e-05	4
17249	-1e-05	1e-05	0	-0.00011	-0.00048	0.00059	-9e-05	-1e-05	4
17250	-1e-05	1e-05	0	-0.00011	-0.00048	0.00059	-9e-05	-1e-05	4
17251	-1e-05	1e-05	0	-0.00011	-0.00048	0.00059	-9e-05	-1e-05	4
17252	-1e-05	1e-05	0	-0.00011	-0.00048	0.00059	-9e-05	-1e-05	4
17253	-1e-05	1e-05	0	-0.00011	-0.00048	0.00059	-9e-05	-1e-05	4
17254	-1e-05	1e-05	0	-0.00011	-0.00048	0.00059	-9e-05	-1e-05	4
17255	0.00013	0.00021	0.00036	0.00067	-0.00016	-5e-05	0.00023	0.00015	4
17256	0.00013	0.00021	0.00036	0.00067	-0.00016	-5e-05	0.00023	0.00015	4
17257	0.00013	0.00021	0.00036	0.00067	-0.00016	-5e-05	0.00023	0.00015	4
17258	0.00013	0.00021	0.00036	0.00067	-0.00016	-5e-05	0.00023	0.00015	4
17259	0.00013	0.00021	0.00036	0.00067	-0.00016	-5e-05	0.00023	0.00015	4
17260	0.00013	0.00021	0.00036	0.00067	-0.00016	-5e-05	0.00023	0.00015	4
17261	0.00013	0.00021	0.00036	0.00067	-0.00016	-5e-05	0.00023	0.00015	4
17262	0.00013	0.00021	0.00036	0.00067	-0.00016	-5e-05	0.00023	0.00015	4
17263	0.00013	0.00021	0.00036	0.00067	-0.00016	-5e-05	0.00023	0.00015	4
17264	0.00013	0.00021	0.00036	0.00067	-0.00016	-5e-05	0.00023	0.00015	4
17265	0.00013	0.00021	0.00036	0.00067	-0.00016	-5e-05	0.00023	0.00015	4
17266	0.00013	0.00021	0.00036	0.00067	-0.00016	-5e-05	0.00023	0.00015	4
17267	0.00013	0.00021	0.00036	0.00067	-0.00016	-5e-05	0.00023	0.00015	4
17268	0.00013	0.00021	0.00036	0.00067	-0.00016	-5e-05	0.00023	0.00015	4
17269	0.00013	0.00021	0.00036	0.00067	-0.00016	-5e-05	0.00023	0.00015	4
17270	0.00013	0.00021	0.00036	0.00067	-0.00016	-5e-05	0.00023	0.00015	4
17271	0.00013	0.00021	0.00036	0.00067	-0.00016	-5e-05	0.00023	0.00015	4
17272	0.00013	0.00021	0.00036	0.00067	-0.00016	-5e-05	0.00023	0.00015	4
17273	0.00013	0.00021	0.00036	0.00067	-0.00016	-5e-05	0.00023	0.00015	4
17274	0.00013	0.00021	0.00036	0.00067	-0.00016	-5e-05	0.00023	0.00015	4
17275	0.00013	0.00021	0.00036	0.00067	-0.00016	-5e-05	0.00023	0.00015	4
17276	0.00013	0.00021	0.00036	0.00067	-0.00016	-5e-05	0.00023	0.00015	4
17277	0.00013	0.00021	0.00036	0.00067	-0.00016	-5e-05	0.00023	0.00015	4
17278	0.00013	0.00021	0.00036	0.00067	-0.00016	-5e-05	0.00023	0.00015	4
17279	-0.0001	-0.00016	-0.00023	0	-0.00054	-7e-05	-0.0001	-6e-05	4
17280	-4e-05	-7e-05	-0.0001	-0.00064	0.00013	-0.00056	-0.00019	-9e-05	4
17281	-4e-05	-7e-05	-0.0001	-0.00064	0.00013	-0.00056	-0.00019	-9e-05	4
17282	-4e-05	-7e-05	-0.0001	-0.00064	0.00013	-0.00056	-0.00019	-9e-05	4
17283	-4e-05	-7e-05	-0.0001	-0.00064	0.00013	-0.00056	-0.00019	-9e-05	4
17284	-4e-05	-7e-05	-0.0001	-0.00064	0.00013	-0.00056	-0.00019	-9e-05	4
17285	-4e-05	-7e-05	-0.0001	-0.00064	0.00013	-0.00056	-0.00019	-9e-05	4
17287	8e-05	0.00014	0.00015	0.00123	0.00078	0.00027	0.00017	0.00012	4
17290	8e-05	0.00014	0.00015	0.00123	0.00078	0.00027	0.00017	0.00012	4
17291	8e-05	0.00014	0.00015	0.00123	0.00078	0.00027	0.00017	0.00012	4
17292	8e-05	0.00014	0.00015	0.00123	0.00078	0.00027	0.00017	0.00012	4
17293	8e-05	0.00014	0.00015	0.00123	0.00078	0.00027	0.00017	0.00012	4
17294	8e-05	0.00014	0.00015	0.00123	0.00078	0.00027	0.00017	0.00012	4
17295	8e-05	0.00014	0.00015	0.00123	0.00078	0.00027	0.00017	0.00012	4
17296	8e-05	0.00014	0.00015	0.00123	0.00078	0.00027	0.00017	0.00012	4
17297	8e-05	0.00014	0.00015	0.00123	0.00078	0.00027	0.00017	0.00012	4
17298	8e-05	0.00014	0.00015	0.00123	0.00078	0.00027	0.00017	0.00012	4
17299	8e-05	0.00014	0.00015	0.00123	0.00078	0.00027	0.00017	0.00012	4
17300	8e-05	0.00014	0.00015	0.00123	0.00078	0.00027	0.00017	0.00012	4
17301	-0.00013	-0.00018	-0.00028	-0.00018	-4e-05	-0.00088	-0.00023	-0.00015	4
17302	7e-05	0.00016	0.00037	0.00087	0.00095	9e-05	0.0002	9e-05	4
17303	-0.00011	-0.00021	-0.00041	-0.00101	-0.00128	-0.00056	-0.00035	-0.00018	4
17304	-0.00011	-0.00021	-0.00041	-0.00101	-0.00128	-0.00056	-0.00035	-0.00018	4
17305	-0.00011	-0.00021	-0.00041	-0.00101	-0.00128	-0.00056	-0.00035	-0.00018	4
17306	-0.00011	-0.00021	-0.00041	-0.00101	-0.00128	-0.00056	-0.00035	-0.00018	4
17307	-0.00011	-0.00021	-0.00041	-0.00101	-0.00128	-0.00056	-0.00035	-0.00018	4
17308	-0.00011	-0.00021	-0.00041	-0.00101	-0.00128	-0.00056	-0.00035	-0.00018	4
17309	-0.00011	-0.00021	-0.00041	-0.00101	-0.00128	-0.00056	-0.00035	-0.00018	4
17310	-0.00011	-0.00021	-0.00041	-0.00101	-0.00128	-0.00056	-0.00035	-0.00018	4
17311	-0.00011	-0.00021	-0.00041	-0.00101	-0.00128	-0.00056	-0.00035	-0.00018	4
17312	-0.00011	-0.00021	-0.00041	-0.00101	-0.00128	-0.00056	-0.00035	-0.00018	4
17313	-0.00011	-0.00021	-0.00041	-0.00101	-0.00128	-0.00056	-0.00035	-0.00018	4
17314	-0.00011	-0.00021	-0.00041	-0.00101	-0.00128	-0.00056	-0.00035	-0.00018	4
17315	3e-05	7e-05	0.0002	0.0005	0.00052	6e-05	6e-05	6e-05	4
17316	3e-05	7e-05	0.0002	0.0005	0.00052	6e-05	6e-05	6e-05	4
17317	3e-05	7e-05	0.0002	0.0005	0.00052	6e-05	6e-05	6e-05	4
17318	3e-05	7e-05	0.0002	0.0005	0.00052	6e-05	6e-05	6e-05	4
17319	3e-05	7e-05	0.0002	0.0005	0.00052	6e-05	6e-05	6e-05	4
17320	3e-05	7e-05	0.0002	0.0005	0.00052	6e-05	6e-05	6e-05	4
17321	3e-05	7e-05	0.0002	0.0005	0.00052	6e-05	6e-05	6e-05	4
17322	3e-05	7e-05	0.0002	0.0005	0.00052	6e-05	6e-05	6e-05	4
17323	3e-05	7e-05	0.0002	0.0005	0.00052	6e-05	6e-05	6e-05	4
17324	5e-05	0.0001	0.00015	0.00014	0.00062	-0.00025	0.0002	7e-05	4
17325	5e-05	0.0001	0.00015	0.00014	0.00062	-0.00025	0.0002	7e-05	4
17326	5e-05	0.0001	0.00015	0.00014	0.00062	-0.00025	0.0002	7e-05	4
17327	5e-05	0.0001	0.00015	0.00014	0.00062	-0.00025	0.0002	7e-05	4
17328	5e-05	0.0001	0.00015	0.00014	0.00062	-0.00025	0.0002	7e-05	4
17329	5e-05	0.0001	0.00015	0.00014	0.00062	-0.00025	0.0002	7e-05	4
17330	5e-05	0.0001	0.00015	0.00014	0.00062	-0.00025	0.0002	7e-05	4
17331	5e-05	0.0001	0.00015	0.00014	0.00062	-0.00025	0.0002	7e-05	4
17332	5e-05	0.0001	0.00015	0.00014	0.00062	-0.00025	0.0002	7e-05	4
17333	5e-05	0.0001	0.00015	0.00014	0.00062	-0.00025	0.0002	7e-05	4
17334	5e-05	0.0001	0.00015	0.00014	0.00062	-0.00025	0.0002	7e-05	4
17335	5e-05	0.0001	0.00015	0.00014	0.00062	-0.00025	0.0002	7e-05	4
17336	5e-05	0.0001	0.00015	0.00014	0.00062	-0.00025	0.0002	7e-05	4
17339	-7e-05	-6e-05	-0.00012	-0.00024	-0.00039	-0.00073	-0.00014	-9e-05	4
17340	0.00014	0.00021	0.00035	0.00024	0.00052	0.00083	0.00018	0.00018	4
17341	-0.00013	-0.00017	-0.0002	-0.00038	0.00032	-0.0005	-0.00023	-0.00015	4
17342	-0.00013	-0.00017	-0.0002	-0.00038	0.00032	-0.0005	-0.00023	-0.00015	4
17343	-0.00013	-0.00017	-0.0002	-0.00038	0.00032	-0.0005	-0.00023	-0.00015	4
17344	-0.00013	-0.00017	-0.0002	-0.00038	0.00032	-0.0005	-0.00023	-0.00015	4
17345	-0.00013	-0.00017	-0.0002	-0.00038	0.00032	-0.0005	-0.00023	-0.00015	4
17346	-0.00013	-0.00017	-0.0002	-0.00038	0.00032	-0.0005	-0.00023	-0.00015	4
17347	-0.00013	-0.00017	-0.0002	-0.00038	0.00032	-0.0005	-0.00023	-0.00015	4
17348	-0.00013	-0.00017	-0.0002	-0.00038	0.00032	-0.0005	-0.00023	-0.00015	4
17349	-0.00013	-0.00017	-0.0002	-0.00038	0.00032	-0.0005	-0.00023	-0.00015	4
17350	-0.00013	-0.00017	-0.0002	-0.00038	0.00032	-0.0005	-0.00023	-0.00015	4
17351	-0.00013	-0.00017	-0.0002	-0.00038	0.00032	-0.0005	-0.00023	-0.00015	4
17352	-0.00013	-0.00017	-0.0002	-0.00038	0.00032	-0.0005	-0.00023	-0.00015	4
17353	-0.00013	-0.00017	-0.0002	-0.00038	0.00032	-0.0005	-0.00023	-0.00015	4
17354	-0.00013	-0.00017	-0.0002	-0.00038	0.00032	-0.0005	-0.00023	-0.00015	4
17355	-0.00013	-0.00017	-0.0002	-0.00038	0.00032	-0.0005	-0.00023	-0.00015	4
17356	-0.00013	-0.00017	-0.0002	-0.00038	0.00032	-0.0005	-0.00023	-0.00015	4
17357	-0.00013	-0.00017	-0.0002	-0.00038	0.00032	-0.0005	-0.00023	-0.00015	4
17358	-0.00013	-0.00017	-0.0002	-0.00038	0.00032	-0.0005	-0.00023	-0.00015	4
17359	-0.00013	-0.00017	-0.0002	-0.00038	0.00032	-0.0005	-0.00023	-0.00015	4
17360	-0.00013	-0.00017	-0.0002	-0.00038	0.00032	-0.0005	-0.00023	-0.00015	4
17361	1e-05	1e-05	0	-0.00036	-0.0007	-0.0006	-0.00011	-1e-05	4
17362	1e-05	1e-05	0	-0.00036	-0.0007	-0.0006	-0.00011	-1e-05	4
17363	-5e-05	-4e-05	-1e-05	-0.00035	-0.00093	-0.00056	-2e-05	0	4
17364	-5e-05	-4e-05	-1e-05	-0.00035	-0.00093	-0.00056	-2e-05	0	4
17365	-5e-05	-4e-05	-1e-05	-0.00035	-0.00093	-0.00056	-2e-05	0	4
17366	-5e-05	-4e-05	-1e-05	-0.00035	-0.00093	-0.00056	-2e-05	0	4
17367	-5e-05	-4e-05	-1e-05	-0.00035	-0.00093	-0.00056	-2e-05	0	4
17368	-5e-05	-4e-05	-1e-05	-0.00035	-0.00093	-0.00056	-2e-05	0	4
17369	-5e-05	-4e-05	-1e-05	-0.00035	-0.00093	-0.00056	-2e-05	0	4
17370	-5e-05	-4e-05	-1e-05	-0.00035	-0.00093	-0.00056	-2e-05	0	4
17371	-5e-05	-4e-05	-1e-05	-0.00035	-0.00093	-0.00056	-2e-05	0	4
17372	-5e-05	-4e-05	-1e-05	-0.00035	-0.00093	-0.00056	-2e-05	0	4
17373	-5e-05	-4e-05	-1e-05	-0.00035	-0.00093	-0.00056	-2e-05	0	4
17374	-5e-05	-4e-05	-1e-05	-0.00035	-0.00093	-0.00056	-2e-05	0	4
17375	3e-05	2e-05	-0.0001	-0.00058	0.00017	0.00031	-0.00014	-4e-05	4
17377	3e-05	2e-05	-0.0001	-0.00058	0.00017	0.00031	-0.00014	-4e-05	4
17378	3e-05	2e-05	-0.0001	-0.00058	0.00017	0.00031	-0.00014	-4e-05	4
17379	3e-05	2e-05	-0.0001	-0.00058	0.00017	0.00031	-0.00014	-4e-05	4
17380	3e-05	2e-05	-0.0001	-0.00058	0.00017	0.00031	-0.00014	-4e-05	4
17381	3e-05	2e-05	-0.0001	-0.00058	0.00017	0.00031	-0.00014	-4e-05	4
17382	3e-05	2e-05	-0.0001	-0.00058	0.00017	0.00031	-0.00014	-4e-05	4
17383	3e-05	2e-05	-0.0001	-0.00058	0.00017	0.00031	-0.00014	-4e-05	4
17384	3e-05	2e-05	-0.0001	-0.00058	0.00017	0.00031	-0.00014	-4e-05	4
17385	3e-05	2e-05	-0.0001	-0.00058	0.00017	0.00031	-0.00014	-4e-05	4
17386	3e-05	2e-05	-0.0001	-0.00058	0.00017	0.00031	-0.00014	-4e-05	4
17389	3e-05	2e-05	-0.0001	-0.00058	0.00017	0.00031	-0.00014	-4e-05	4
17390	3e-05	2e-05	-0.0001	-0.00058	0.00017	0.00031	-0.00014	-4e-05	4
17391	3e-05	2e-05	-0.0001	-0.00058	0.00017	0.00031	-0.00014	-4e-05	4
17392	3e-05	2e-05	-0.0001	-0.00058	0.00017	0.00031	-0.00014	-4e-05	4
17393	3e-05	2e-05	-0.0001	-0.00058	0.00017	0.00031	-0.00014	-4e-05	4
17394	3e-05	2e-05	-0.0001	-0.00058	0.00017	0.00031	-0.00014	-4e-05	4
17395	3e-05	2e-05	-0.0001	-0.00058	0.00017	0.00031	-0.00014	-4e-05	4
17396	3e-05	2e-05	-0.0001	-0.00058	0.00017	0.00031	-0.00014	-4e-05	4
17397	3e-05	2e-05	-0.0001	-0.00058	0.00017	0.00031	-0.00014	-4e-05	4
17398	3e-05	2e-05	-0.0001	-0.00058	0.00017	0.00031	-0.00014	-4e-05	4
17399	3e-05	2e-05	-0.0001	-0.00058	0.00017	0.00031	-0.00014	-4e-05	4
17400	3e-05	2e-05	-0.0001	-0.00058	0.00017	0.00031	-0.00014	-4e-05	4
17401	0.00014	0.00031	0.00057	0.00107	0.00017	0.00046	0.00029	0.0002	4
17402	-8e-05	-0.00011	-0.00018	-3e-05	-0.0004	-4e-05	-0.00011	-8e-05	4
17403	-8e-05	-0.00011	-0.00018	-3e-05	-0.0004	-4e-05	-0.00011	-8e-05	4
17404	-8e-05	-0.00011	-0.00018	-3e-05	-0.0004	-4e-05	-0.00011	-8e-05	4
17405	-3e-05	-6e-05	-6e-05	-0.00012	0.00027	6e-05	-0.00018	-3e-05	4
17406	-3e-05	-6e-05	-6e-05	-0.00012	0.00027	6e-05	-0.00018	-3e-05	4
17407	-3e-05	-6e-05	-6e-05	-0.00012	0.00027	6e-05	-0.00018	-3e-05	4
17408	-3e-05	-6e-05	-6e-05	-0.00012	0.00027	6e-05	-0.00018	-3e-05	4
17409	-3e-05	-6e-05	-6e-05	-0.00012	0.00027	6e-05	-0.00018	-3e-05	4
17410	-3e-05	-6e-05	-6e-05	-0.00012	0.00027	6e-05	-0.00018	-3e-05	4
17411	-3e-05	-6e-05	-6e-05	-0.00012	0.00027	6e-05	-0.00018	-3e-05	4
17413	-3e-05	-6e-05	-6e-05	-0.00012	0.00027	6e-05	-0.00018	-3e-05	4
17414	-3e-05	-6e-05	-6e-05	-0.00012	0.00027	6e-05	-0.00018	-3e-05	4
17415	-3e-05	-6e-05	-6e-05	-0.00012	0.00027	6e-05	-0.00018	-3e-05	4
17416	-3e-05	-6e-05	-6e-05	-0.00012	0.00027	6e-05	-0.00018	-3e-05	4
17417	-3e-05	-6e-05	-6e-05	-0.00012	0.00027	6e-05	-0.00018	-3e-05	4
17418	-3e-05	-6e-05	-6e-05	-0.00012	0.00027	6e-05	-0.00018	-3e-05	4
17419	-3e-05	-6e-05	-6e-05	-0.00012	0.00027	6e-05	-0.00018	-3e-05	4
17420	-3e-05	-6e-05	-6e-05	-0.00012	0.00027	6e-05	-0.00018	-3e-05	4
17421	3e-05	3e-05	0.0001	0.00062	0.00088	0.00049	7e-05	3e-05	4
17422	-5e-05	-8e-05	-0.00013	-0.00033	-0.00092	-0.00062	-0.00017	-8e-05	4
17423	-8e-05	-0.00013	-0.00014	-0.00037	-0.00085	-6e-05	-0.00018	-0.0001	4
17424	-8e-05	-0.00013	-0.00014	-0.00037	-0.00085	-6e-05	-0.00018	-0.0001	4
17425	-8e-05	-0.00013	-0.00014	-0.00037	-0.00085	-6e-05	-0.00018	-0.0001	4
17426	-8e-05	-0.00013	-0.00014	-0.00037	-0.00085	-6e-05	-0.00018	-0.0001	4
17427	-8e-05	-0.00013	-0.00014	-0.00037	-0.00085	-6e-05	-0.00018	-0.0001	4
17428	-8e-05	-0.00013	-0.00014	-0.00037	-0.00085	-6e-05	-0.00018	-0.0001	4
17429	-8e-05	-0.00013	-0.00014	-0.00037	-0.00085	-6e-05	-0.00018	-0.0001	4
17430	-8e-05	-0.00013	-0.00014	-0.00037	-0.00085	-6e-05	-0.00018	-0.0001	4
17431	-8e-05	-0.00013	-0.00014	-0.00037	-0.00085	-6e-05	-0.00018	-0.0001	4
17432	-8e-05	-0.00013	-0.00014	-0.00037	-0.00085	-6e-05	-0.00018	-0.0001	4
17433	-8e-05	-0.00013	-0.00014	-0.00037	-0.00085	-6e-05	-0.00018	-0.0001	4
17434	-8e-05	-0.00013	-0.00014	-0.00037	-0.00085	-6e-05	-0.00018	-0.0001	4
17435	-3e-05	-5e-05	-7e-05	-0.0005	-0.00019	-0.00033	-3e-05	-1e-05	4
17436	-2e-05	-8e-05	-9e-05	0.00087	-0.00015	0.00013	0.0001	-3e-05	4
17439	-2e-05	-8e-05	-9e-05	0.00087	-0.00015	0.00013	0.0001	-3e-05	4
17440	-2e-05	-8e-05	-9e-05	0.00087	-0.00015	0.00013	0.0001	-3e-05	4
17441	-2e-05	-8e-05	-9e-05	0.00087	-0.00015	0.00013	0.0001	-3e-05	4
17442	-2e-05	-8e-05	-9e-05	0.00087	-0.00015	0.00013	0.0001	-3e-05	4
17443	-2e-05	-8e-05	-9e-05	0.00087	-0.00015	0.00013	0.0001	-3e-05	4
17444	5e-05	5e-05	6e-05	-0.00031	9e-05	0.00068	0.00031	7e-05	4
17445	6e-05	0.00014	0.00022	0.0002	0.00041	0.00021	0.0002	4e-05	4
17446	6e-05	0.00014	0.00022	0.0002	0.00041	0.00021	0.0002	4e-05	4
17447	6e-05	0.00014	0.00022	0.0002	0.00041	0.00021	0.0002	4e-05	4
17448	6e-05	0.00014	0.00022	0.0002	0.00041	0.00021	0.0002	4e-05	4
17449	6e-05	0.00014	0.00022	0.0002	0.00041	0.00021	0.0002	4e-05	4
17450	6e-05	0.00014	0.00022	0.0002	0.00041	0.00021	0.0002	4e-05	4
17451	6e-05	0.00014	0.00022	0.0002	0.00041	0.00021	0.0002	4e-05	4
17452	6e-05	0.00014	0.00022	0.0002	0.00041	0.00021	0.0002	4e-05	4
17453	6e-05	0.00014	0.00022	0.0002	0.00041	0.00021	0.0002	4e-05	4
17454	6e-05	0.00014	0.00022	0.0002	0.00041	0.00021	0.0002	4e-05	4
17455	6e-05	0.00014	0.00022	0.0002	0.00041	0.00021	0.0002	4e-05	4
17456	6e-05	0.00014	0.00022	0.0002	0.00041	0.00021	0.0002	4e-05	4
17457	6e-05	0.00014	0.00022	0.0002	0.00041	0.00021	0.0002	4e-05	4
17458	6e-05	0.00014	0.00022	0.0002	0.00041	0.00021	0.0002	4e-05	4
17459	6e-05	0.00014	0.00022	0.0002	0.00041	0.00021	0.0002	4e-05	4
17460	-9e-05	-0.0001	-5e-05	0.00036	-9e-05	-0.00023	-0.00012	-9e-05	4
17461	-2e-05	-8e-05	-6e-05	-0.00013	-0.00089	-0.00022	-1e-05	-4e-05	4
17462	-2e-05	-8e-05	-6e-05	-0.00013	-0.00089	-0.00022	-1e-05	-4e-05	4
17463	-2e-05	-8e-05	-6e-05	-0.00013	-0.00089	-0.00022	-1e-05	-4e-05	4
17464	-2e-05	-8e-05	-6e-05	-0.00013	-0.00089	-0.00022	-1e-05	-4e-05	4
17465	-2e-05	-8e-05	-6e-05	-0.00013	-0.00089	-0.00022	-1e-05	-4e-05	4
17466	-2e-05	-8e-05	-6e-05	-0.00013	-0.00089	-0.00022	-1e-05	-4e-05	4
17467	-2e-05	-8e-05	-6e-05	-0.00013	-0.00089	-0.00022	-1e-05	-4e-05	4
17468	-2e-05	-8e-05	-6e-05	-0.00013	-0.00089	-0.00022	-1e-05	-4e-05	4
17469	-2e-05	-8e-05	-6e-05	-0.00013	-0.00089	-0.00022	-1e-05	-4e-05	4
17470	-2e-05	-8e-05	-6e-05	-0.00013	-0.00089	-0.00022	-1e-05	-4e-05	4
17471	-2e-05	-8e-05	-6e-05	-0.00013	-0.00089	-0.00022	-1e-05	-4e-05	4
17472	-2e-05	-8e-05	-6e-05	-0.00013	-0.00089	-0.00022	-1e-05	-4e-05	4
17473	-2e-05	-8e-05	-6e-05	-0.00013	-0.00089	-0.00022	-1e-05	-4e-05	4
17474	-2e-05	-8e-05	-6e-05	-0.00013	-0.00089	-0.00022	-1e-05	-4e-05	4
17475	-2e-05	-8e-05	-6e-05	-0.00013	-0.00089	-0.00022	-1e-05	-4e-05	4
17476	-2e-05	-8e-05	-6e-05	-0.00013	-0.00089	-0.00022	-1e-05	-4e-05	4
17477	-2e-05	-8e-05	-6e-05	-0.00013	-0.00089	-0.00022	-1e-05	-4e-05	4
17478	-2e-05	-8e-05	-6e-05	-0.00013	-0.00089	-0.00022	-1e-05	-4e-05	4
17479	-2e-05	-8e-05	-6e-05	-0.00013	-0.00089	-0.00022	-1e-05	-4e-05	4
17480	-2e-05	-8e-05	-6e-05	-0.00013	-0.00089	-0.00022	-1e-05	-4e-05	4
17481	-0.0001	-0.00015	-0.00022	-0.00069	-0.00057	-0.0004	-0.0001	-0.0001	4
17482	-0.0001	-0.00015	-0.00022	-0.00069	-0.00057	-0.0004	-0.0001	-0.0001	4
17483	8e-05	0.00011	0.00017	-0.00015	-0.00011	0.00017	8e-05	5e-05	4
17484	8e-05	0.00011	0.00017	-0.00015	-0.00011	0.00017	8e-05	5e-05	4
17485	8e-05	0.00011	0.00017	-0.00015	-0.00011	0.00017	8e-05	5e-05	4
17486	8e-05	0.00011	0.00017	-0.00015	-0.00011	0.00017	8e-05	5e-05	4
17489	8e-05	0.00011	0.00017	-0.00015	-0.00011	0.00017	8e-05	5e-05	4
17490	8e-05	0.00011	0.00017	-0.00015	-0.00011	0.00017	8e-05	5e-05	4
17491	8e-05	0.00011	0.00017	-0.00015	-0.00011	0.00017	8e-05	5e-05	4
17492	8e-05	0.00011	0.00017	-0.00015	-0.00011	0.00017	8e-05	5e-05	4
17493	8e-05	0.00011	0.00017	-0.00015	-0.00011	0.00017	8e-05	5e-05	4
17494	8e-05	0.00011	0.00017	-0.00015	-0.00011	0.00017	8e-05	5e-05	4
17495	-8e-05	-9e-05	-0.00017	0.00065	0.00018	-0.00072	-5e-05	-6e-05	4
17496	1e-05	1e-05	-5e-05	-0.00061	-0.00074	9e-05	-3e-05	2e-05	4
17497	1e-05	1e-05	-5e-05	-0.00061	-0.00074	9e-05	-3e-05	2e-05	4
17498	1e-05	1e-05	-5e-05	-0.00061	-0.00074	9e-05	-3e-05	2e-05	4
17499	1e-05	1e-05	-5e-05	-0.00061	-0.00074	9e-05	-3e-05	2e-05	4
17500	1e-05	1e-05	-5e-05	-0.00061	-0.00074	9e-05	-3e-05	2e-05	4
17501	1e-05	1e-05	-5e-05	-0.00061	-0.00074	9e-05	-3e-05	2e-05	4
17502	1e-05	1e-05	-5e-05	-0.00061	-0.00074	9e-05	-3e-05	2e-05	4
17503	1e-05	1e-05	-5e-05	-0.00061	-0.00074	9e-05	-3e-05	2e-05	4
17504	1e-05	1e-05	-5e-05	-0.00061	-0.00074	9e-05	-3e-05	2e-05	4
17505	1e-05	1e-05	-5e-05	-0.00061	-0.00074	9e-05	-3e-05	2e-05	4
17506	1e-05	1e-05	-5e-05	-0.00061	-0.00074	9e-05	-3e-05	2e-05	4
17507	1e-05	1e-05	-5e-05	-0.00061	-0.00074	9e-05	-3e-05	2e-05	4
17508	1e-05	1e-05	-5e-05	-0.00061	-0.00074	9e-05	-3e-05	2e-05	4
17509	1e-05	1e-05	-5e-05	-0.00061	-0.00074	9e-05	-3e-05	2e-05	4
17510	1e-05	1e-05	-5e-05	-0.00061	-0.00074	9e-05	-3e-05	2e-05	4
17511	1e-05	1e-05	-5e-05	-0.00061	-0.00074	9e-05	-3e-05	2e-05	4
17512	-1e-05	2e-05	3e-05	-6e-05	-0.001	-0.0004	-0.00015	-6e-05	4
17513	-1e-05	2e-05	3e-05	-6e-05	-0.001	-0.0004	-0.00015	-6e-05	4
17514	-1e-05	2e-05	3e-05	-6e-05	-0.001	-0.0004	-0.00015	-6e-05	4
17515	-1e-05	2e-05	3e-05	-6e-05	-0.001	-0.0004	-0.00015	-6e-05	4
17516	-1e-05	2e-05	3e-05	-6e-05	-0.001	-0.0004	-0.00015	-6e-05	4
17517	-1e-05	2e-05	3e-05	-6e-05	-0.001	-0.0004	-0.00015	-6e-05	4
17518	-1e-05	2e-05	3e-05	-6e-05	-0.001	-0.0004	-0.00015	-6e-05	4
17519	0.0001	0.00017	0.0004	0.00123	0.00127	-0.00018	0.00022	0.00015	4
17520	-1e-05	1e-05	8e-05	-0.00022	-0.00011	-0.00014	-8e-05	-2e-05	4
17521	-0.00011	-0.00024	-0.00039	-0.00028	0.00015	-9e-05	-0.00014	-0.00012	4
17522	-0.00011	-0.00024	-0.00039	-0.00028	0.00015	-9e-05	-0.00014	-0.00012	4
17523	-0.00011	-0.00024	-0.00039	-0.00028	0.00015	-9e-05	-0.00014	-0.00012	4
17524	-0.00011	-0.00024	-0.00039	-0.00028	0.00015	-9e-05	-0.00014	-0.00012	4
17525	-0.00011	-0.00024	-0.00039	-0.00028	0.00015	-9e-05	-0.00014	-0.00012	4
17526	-0.00011	-0.00024	-0.00039	-0.00028	0.00015	-9e-05	-0.00014	-0.00012	4
17527	-0.00011	-0.00024	-0.00039	-0.00028	0.00015	-9e-05	-0.00014	-0.00012	4
17528	-0.00011	-0.00024	-0.00039	-0.00028	0.00015	-9e-05	-0.00014	-0.00012	4
17529	-0.00011	-0.00024	-0.00039	-0.00028	0.00015	-9e-05	-0.00014	-0.00012	4
17530	-0.00011	-0.00024	-0.00039	-0.00028	0.00015	-9e-05	-0.00014	-0.00012	4
17531	-0.00011	-0.00024	-0.00039	-0.00028	0.00015	-9e-05	-0.00014	-0.00012	4
17532	-0.00011	-0.00024	-0.00039	-0.00028	0.00015	-9e-05	-0.00014	-0.00012	4
17533	-0.00011	-0.00024	-0.00039	-0.00028	0.00015	-9e-05	-0.00014	-0.00012	4
17534	-0.00011	-0.00024	-0.00039	-0.00028	0.00015	-9e-05	-0.00014	-0.00012	4
17535	-0.00011	-0.00024	-0.00039	-0.00028	0.00015	-9e-05	-0.00014	-0.00012	4
17536	-0.00011	-0.00024	-0.00039	-0.00028	0.00015	-9e-05	-0.00014	-0.00012	4
17539	-0.00011	-0.00024	-0.00039	-0.00028	0.00015	-9e-05	-0.00014	-0.00012	4
17540	-0.00011	-0.00024	-0.00039	-0.00028	0.00015	-9e-05	-0.00014	-0.00012	4
17541	-0.00011	-0.00024	-0.00039	-0.00028	0.00015	-9e-05	-0.00014	-0.00012	4
17542	-0.00011	-0.00024	-0.00039	-0.00028	0.00015	-9e-05	-0.00014	-0.00012	4
17543	-0.00011	-0.00024	-0.00039	-0.00028	0.00015	-9e-05	-0.00014	-0.00012	4
17544	-0.00011	-0.00024	-0.00039	-0.00028	0.00015	-9e-05	-0.00014	-0.00012	4
17545	-0.00011	-0.00024	-0.00039	-0.00028	0.00015	-9e-05	-0.00014	-0.00012	4
17546	-0.00011	-0.00024	-0.00039	-0.00028	0.00015	-9e-05	-0.00014	-0.00012	4
17547	-0.00011	-0.00024	-0.00039	-0.00028	0.00015	-9e-05	-0.00014	-0.00012	4
17548	-0.00011	-0.00024	-0.00039	-0.00028	0.00015	-9e-05	-0.00014	-0.00012	4
17549	-0.00011	-0.00024	-0.00039	-0.00028	0.00015	-9e-05	-0.00014	-0.00012	4
17550	-0.00011	-0.00024	-0.00039	-0.00028	0.00015	-9e-05	-0.00014	-0.00012	4
17551	-0.00011	-0.00024	-0.00039	-0.00028	0.00015	-9e-05	-0.00014	-0.00012	4
17552	-0.00011	-0.00024	-0.00039	-0.00028	0.00015	-9e-05	-0.00014	-0.00012	4
17553	-0.00011	-0.00024	-0.00039	-0.00028	0.00015	-9e-05	-0.00014	-0.00012	4
17554	-0.00011	-0.00024	-0.00039	-0.00028	0.00015	-9e-05	-0.00014	-0.00012	4
17555	-0.00011	-0.00024	-0.00039	-0.00028	0.00015	-9e-05	-0.00014	-0.00012	4
17556	-0.00011	-0.00024	-0.00039	-0.00028	0.00015	-9e-05	-0.00014	-0.00012	4
17557	-3e-05	-1e-05	-2e-05	-0.00122	-0.00032	-9e-05	-0.00013	-7e-05	4
17558	-3e-05	-1e-05	-2e-05	-0.00122	-0.00032	-9e-05	-0.00013	-7e-05	4
17559	1e-05	1e-05	4e-05	0.00028	0.00078	0.00016	0.00027	7e-05	4
17560	1e-05	1e-05	4e-05	0.00028	0.00078	0.00016	0.00027	7e-05	4
17561	1e-05	1e-05	4e-05	0.00028	0.00078	0.00016	0.00027	7e-05	4
17562	1e-05	1e-05	4e-05	0.00028	0.00078	0.00016	0.00027	7e-05	4
17563	-7e-05	-0.00014	-0.00029	-0.00071	-0.00106	0.00077	-5e-05	-9e-05	4
17565	-7e-05	-0.0001	-0.00018	-0.00069	-0.00128	-0.00103	-0.00032	-0.00012	4
17566	0.00013	0.0002	0.00034	-7e-05	0.00017	0.00093	0.00027	0.00015	4
17567	0.00013	0.0002	0.00034	-7e-05	0.00017	0.00093	0.00027	0.00015	4
17568	0.00013	0.0002	0.00034	-7e-05	0.00017	0.00093	0.00027	0.00015	4
17569	0.00013	0.0002	0.00034	-7e-05	0.00017	0.00093	0.00027	0.00015	4
17570	0.00013	0.0002	0.00034	-7e-05	0.00017	0.00093	0.00027	0.00015	4
17571	0.00013	0.0002	0.00034	-7e-05	0.00017	0.00093	0.00027	0.00015	4
17572	0.00013	0.0002	0.00034	-7e-05	0.00017	0.00093	0.00027	0.00015	4
17573	0.00013	0.0002	0.00034	-7e-05	0.00017	0.00093	0.00027	0.00015	4
17574	0.00013	0.0002	0.00034	-7e-05	0.00017	0.00093	0.00027	0.00015	4
17575	0.00013	0.0002	0.00034	-7e-05	0.00017	0.00093	0.00027	0.00015	4
17576	0.00013	0.0002	0.00034	-7e-05	0.00017	0.00093	0.00027	0.00015	4
17577	0.00013	0.0002	0.00034	-7e-05	0.00017	0.00093	0.00027	0.00015	4
17578	0.00013	0.0002	0.00034	-7e-05	0.00017	0.00093	0.00027	0.00015	4
17579	-9e-05	-9e-05	-0.00013	-0.0007	-0.00101	-0.00059	-0.00013	-6e-05	4
17580	-9e-05	-9e-05	-0.00013	-0.0007	-0.00101	-0.00059	-0.00013	-6e-05	4
17581	-0.00013	-0.00018	-0.00028	0.00026	0.00058	-0.00058	-0.00023	-9e-05	4
17582	-0.00013	-0.00018	-0.00028	0.00026	0.00058	-0.00058	-0.00023	-9e-05	4
17583	-0.00013	-0.00018	-0.00028	0.00026	0.00058	-0.00058	-0.00023	-9e-05	4
17584	-0.00013	-0.00018	-0.00028	0.00026	0.00058	-0.00058	-0.00023	-9e-05	4
17585	-0.00013	-0.00018	-0.00028	0.00026	0.00058	-0.00058	-0.00023	-9e-05	4
17586	-0.00013	-0.00018	-0.00028	0.00026	0.00058	-0.00058	-0.00023	-9e-05	4
17589	-0.00013	-0.00018	-0.00028	0.00026	0.00058	-0.00058	-0.00023	-9e-05	4
17590	-0.00013	-0.00018	-0.00028	0.00026	0.00058	-0.00058	-0.00023	-9e-05	4
17591	-0.00013	-0.00018	-0.00028	0.00026	0.00058	-0.00058	-0.00023	-9e-05	4
17592	-0.00013	-0.00018	-0.00028	0.00026	0.00058	-0.00058	-0.00023	-9e-05	4
17593	-0.00013	-0.00018	-0.00028	0.00026	0.00058	-0.00058	-0.00023	-9e-05	4
17594	-0.00013	-0.00018	-0.00028	0.00026	0.00058	-0.00058	-0.00023	-9e-05	4
17595	-0.00013	-0.00018	-0.00028	0.00026	0.00058	-0.00058	-0.00023	-9e-05	4
17596	-0.00013	-0.00018	-0.00028	0.00026	0.00058	-0.00058	-0.00023	-9e-05	4
17597	-0.00013	-0.00018	-0.00028	0.00026	0.00058	-0.00058	-0.00023	-9e-05	4
17598	-0.00013	-0.00018	-0.00028	0.00026	0.00058	-0.00058	-0.00023	-9e-05	4
17599	-0.00013	-0.00018	-0.00028	0.00026	0.00058	-0.00058	-0.00023	-9e-05	4
17600	-0.00013	-0.00018	-0.00028	0.00026	0.00058	-0.00058	-0.00023	-9e-05	4
17601	3e-05	2e-05	0	-7e-05	0.0008	0.00101	0.00026	-1e-05	4
17602	9e-05	0.00014	0.00021	0.00032	0.00025	0.00026	3e-05	9e-05	4
17603	7e-05	5e-05	-6e-05	0.00033	-0.00011	-0.00029	3e-05	5e-05	4
17604	7e-05	5e-05	-6e-05	0.00033	-0.00011	-0.00029	3e-05	5e-05	4
17605	7e-05	5e-05	-6e-05	0.00033	-0.00011	-0.00029	3e-05	5e-05	4
17606	7e-05	5e-05	-6e-05	0.00033	-0.00011	-0.00029	3e-05	5e-05	4
17607	7e-05	5e-05	-6e-05	0.00033	-0.00011	-0.00029	3e-05	5e-05	4
17608	7e-05	5e-05	-6e-05	0.00033	-0.00011	-0.00029	3e-05	5e-05	4
17609	7e-05	5e-05	-6e-05	0.00033	-0.00011	-0.00029	3e-05	5e-05	4
17610	7e-05	5e-05	-6e-05	0.00033	-0.00011	-0.00029	3e-05	5e-05	4
17611	7e-05	5e-05	-6e-05	0.00033	-0.00011	-0.00029	3e-05	5e-05	4
17612	7e-05	5e-05	-6e-05	0.00033	-0.00011	-0.00029	3e-05	5e-05	4
17613	7e-05	5e-05	-6e-05	0.00033	-0.00011	-0.00029	3e-05	5e-05	4
17614	7e-05	5e-05	-6e-05	0.00033	-0.00011	-0.00029	3e-05	5e-05	4
17615	-4e-05	-0.00014	-0.00039	-0.00075	-3e-05	-0.00012	-1e-05	-7e-05	4
17616	-4e-05	-0.00014	-0.00039	-0.00075	-3e-05	-0.00012	-1e-05	-7e-05	4
17617	-4e-05	-0.00014	-0.00039	-0.00075	-3e-05	-0.00012	-1e-05	-7e-05	4
17618	-4e-05	-0.00014	-0.00039	-0.00075	-3e-05	-0.00012	-1e-05	-7e-05	4
17619	-4e-05	-0.00014	-0.00039	-0.00075	-3e-05	-0.00012	-1e-05	-7e-05	4
17620	-4e-05	-0.00014	-0.00039	-0.00075	-3e-05	-0.00012	-1e-05	-7e-05	4
17621	-4e-05	-0.00014	-0.00039	-0.00075	-3e-05	-0.00012	-1e-05	-7e-05	4
17622	-4e-05	-0.00014	-0.00039	-0.00075	-3e-05	-0.00012	-1e-05	-7e-05	4
17623	-4e-05	-0.00014	-0.00039	-0.00075	-3e-05	-0.00012	-1e-05	-7e-05	4
17624	5e-05	7e-05	0.00025	0.00024	0.00035	0.00033	0.00013	5e-05	4
17625	-6e-05	-0.00012	-0.00026	0.00044	0.0005	0.00077	3e-05	-5e-05	4
17626	-6e-05	-0.00012	-0.00026	0.00044	0.0005	0.00077	3e-05	-5e-05	4
17627	-6e-05	-0.00012	-0.00026	0.00044	0.0005	0.00077	3e-05	-5e-05	4
17628	-6e-05	-0.00012	-0.00026	0.00044	0.0005	0.00077	3e-05	-5e-05	4
17629	-6e-05	-0.00012	-0.00026	0.00044	0.0005	0.00077	3e-05	-5e-05	4
17630	-6e-05	-0.00012	-0.00026	0.00044	0.0005	0.00077	3e-05	-5e-05	4
17631	-6e-05	-0.00012	-0.00026	0.00044	0.0005	0.00077	3e-05	-5e-05	4
17632	-6e-05	-0.00012	-0.00026	0.00044	0.0005	0.00077	3e-05	-5e-05	4
17633	-6e-05	-0.00012	-0.00026	0.00044	0.0005	0.00077	3e-05	-5e-05	4
17634	-6e-05	-0.00012	-0.00026	0.00044	0.0005	0.00077	3e-05	-5e-05	4
17635	-6e-05	-0.00012	-0.00026	0.00044	0.0005	0.00077	3e-05	-5e-05	4
17636	-6e-05	-0.00012	-0.00026	0.00044	0.0005	0.00077	3e-05	-5e-05	4
17639	-2e-05	-3e-05	-3e-05	-0.00027	-0.00121	-0.00059	-0.0001	-3e-05	4
17640	3e-05	0.0001	0.00013	8e-05	0.0004	0.0003	8e-05	3e-05	4
17641	-9e-05	-0.00013	-0.00014	-0.00082	-0.00128	-0.0005	-0.0002	-0.00012	4
17642	-9e-05	-0.00013	-0.00014	-0.00082	-0.00128	-0.0005	-0.0002	-0.00012	4
17643	-9e-05	-0.00013	-0.00014	-0.00082	-0.00128	-0.0005	-0.0002	-0.00012	4
17644	-9e-05	-0.00013	-0.00014	-0.00082	-0.00128	-0.0005	-0.0002	-0.00012	4
17645	-9e-05	-0.00013	-0.00014	-0.00082	-0.00128	-0.0005	-0.0002	-0.00012	4
17646	-9e-05	-0.00013	-0.00014	-0.00082	-0.00128	-0.0005	-0.0002	-0.00012	4
17647	-9e-05	-0.00013	-0.00014	-0.00082	-0.00128	-0.0005	-0.0002	-0.00012	4
17648	-9e-05	-0.00013	-0.00014	-0.00082	-0.00128	-0.0005	-0.0002	-0.00012	4
17649	-9e-05	-0.00013	-0.00014	-0.00082	-0.00128	-0.0005	-0.0002	-0.00012	4
17650	-9e-05	-0.00013	-0.00014	-0.00082	-0.00128	-0.0005	-0.0002	-0.00012	4
17651	-9e-05	-0.00013	-0.00014	-0.00082	-0.00128	-0.0005	-0.0002	-0.00012	4
17652	-9e-05	-0.00013	-0.00014	-0.00082	-0.00128	-0.0005	-0.0002	-0.00012	4
17653	-9e-05	-0.00013	-0.00014	-0.00082	-0.00128	-0.0005	-0.0002	-0.00012	4
17654	-9e-05	-0.00013	-0.00014	-0.00082	-0.00128	-0.0005	-0.0002	-0.00012	4
17655	-9e-05	-0.00013	-0.00014	-0.00082	-0.00128	-0.0005	-0.0002	-0.00012	4
17656	-9e-05	-0.00013	-0.00014	-0.00082	-0.00128	-0.0005	-0.0002	-0.00012	4
17657	-9e-05	-0.00013	-0.00014	-0.00082	-0.00128	-0.0005	-0.0002	-0.00012	4
17658	-9e-05	-0.00013	-0.00014	-0.00082	-0.00128	-0.0005	-0.0002	-0.00012	4
17659	-9e-05	-0.00013	-0.00014	-0.00082	-0.00128	-0.0005	-0.0002	-0.00012	4
17660	-9e-05	-0.00013	-0.00014	-0.00082	-0.00128	-0.0005	-0.0002	-0.00012	4
17661	7e-05	4e-05	-8e-05	0.00081	0.00111	0.00094	0.00021	9e-05	4
17662	-2e-05	4e-05	0.00016	-0.00065	-0.00054	0.00032	-6e-05	2e-05	4
17663	-6e-05	-9e-05	-0.00019	8e-05	-0.00075	-0.00023	-3e-05	-6e-05	4
17664	-4e-05	-6e-05	5e-05	7e-05	-0.00011	-0.0001	-8e-05	-2e-05	4
17665	-4e-05	-6e-05	5e-05	7e-05	-0.00011	-0.0001	-8e-05	-2e-05	4
17666	-4e-05	-6e-05	5e-05	7e-05	-0.00011	-0.0001	-8e-05	-2e-05	4
17667	-4e-05	-6e-05	5e-05	7e-05	-0.00011	-0.0001	-8e-05	-2e-05	4
17668	-4e-05	-6e-05	5e-05	7e-05	-0.00011	-0.0001	-8e-05	-2e-05	4
17669	-4e-05	-6e-05	5e-05	7e-05	-0.00011	-0.0001	-8e-05	-2e-05	4
17670	-4e-05	-6e-05	5e-05	7e-05	-0.00011	-0.0001	-8e-05	-2e-05	4
17671	-4e-05	-6e-05	5e-05	7e-05	-0.00011	-0.0001	-8e-05	-2e-05	4
17672	-4e-05	-6e-05	5e-05	7e-05	-0.00011	-0.0001	-8e-05	-2e-05	4
17673	-4e-05	-6e-05	5e-05	7e-05	-0.00011	-0.0001	-8e-05	-2e-05	4
17674	-4e-05	-6e-05	5e-05	7e-05	-0.00011	-0.0001	-8e-05	-2e-05	4
17675	-4e-05	-6e-05	5e-05	7e-05	-0.00011	-0.0001	-8e-05	-2e-05	4
17676	-4e-05	-6e-05	5e-05	7e-05	-0.00011	-0.0001	-8e-05	-2e-05	4
17677	-4e-05	-6e-05	5e-05	7e-05	-0.00011	-0.0001	-8e-05	-2e-05	4
17678	-4e-05	-6e-05	5e-05	7e-05	-0.00011	-0.0001	-8e-05	-2e-05	4
17679	-4e-05	-6e-05	5e-05	7e-05	-0.00011	-0.0001	-8e-05	-2e-05	4
17680	-4e-05	-6e-05	5e-05	7e-05	-0.00011	-0.0001	-8e-05	-2e-05	4
17681	-4e-05	-6e-05	5e-05	7e-05	-0.00011	-0.0001	-8e-05	-2e-05	4
17682	-4e-05	-6e-05	5e-05	7e-05	-0.00011	-0.0001	-8e-05	-2e-05	4
17683	-4e-05	-6e-05	5e-05	7e-05	-0.00011	-0.0001	-8e-05	-2e-05	4
17684	-6e-05	-9e-05	-7e-05	0.0003	-0.00124	0	-0.00017	-9e-05	4
17685	2e-05	4e-05	5e-05	-0.00077	9e-05	0.00023	7e-05	5e-05	4
17686	-0.0001	-0.00018	-0.00024	0.00068	0.0006	-0.00019	-0.00017	-0.00012	4
17689	-0.0001	-0.00018	-0.00024	0.00068	0.0006	-0.00019	-0.00017	-0.00012	4
17690	-0.0001	-0.00018	-0.00024	0.00068	0.0006	-0.00019	-0.00017	-0.00012	4
17691	-0.0001	-0.00018	-0.00024	0.00068	0.0006	-0.00019	-0.00017	-0.00012	4
17692	-0.0001	-0.00018	-0.00024	0.00068	0.0006	-0.00019	-0.00017	-0.00012	4
17693	-0.0001	-0.00018	-0.00024	0.00068	0.0006	-0.00019	-0.00017	-0.00012	4
17694	-0.0001	-0.00018	-0.00024	0.00068	0.0006	-0.00019	-0.00017	-0.00012	4
17695	-0.0001	-0.00018	-0.00024	0.00068	0.0006	-0.00019	-0.00017	-0.00012	4
17696	-0.0001	-0.00018	-0.00024	0.00068	0.0006	-0.00019	-0.00017	-0.00012	4
17697	-0.0001	-0.00018	-0.00024	0.00068	0.0006	-0.00019	-0.00017	-0.00012	4
17698	-0.0001	-0.00018	-0.00024	0.00068	0.0006	-0.00019	-0.00017	-0.00012	4
17699	-8e-05	-0.00014	-0.00023	-0.00032	0.0003	-0.00067	-0.00022	-0.00011	4
17700	4e-05	7e-05	0.00018	0.00081	0.00072	0.00036	0.00016	5e-05	4
17701	-6e-05	-3e-05	-8e-05	-0.0011	-0.00125	-0.0005	-0.00019	-8e-05	4
17702	-6e-05	-3e-05	-8e-05	-0.0011	-0.00125	-0.0005	-0.00019	-8e-05	4
17703	-6e-05	-3e-05	-8e-05	-0.0011	-0.00125	-0.0005	-0.00019	-8e-05	4
17704	-6e-05	-3e-05	-8e-05	-0.0011	-0.00125	-0.0005	-0.00019	-8e-05	4
17705	-6e-05	-3e-05	-8e-05	-0.0011	-0.00125	-0.0005	-0.00019	-8e-05	4
17706	-6e-05	-3e-05	-8e-05	-0.0011	-0.00125	-0.0005	-0.00019	-8e-05	4
17707	-6e-05	-3e-05	-8e-05	-0.0011	-0.00125	-0.0005	-0.00019	-8e-05	4
17708	-6e-05	-3e-05	-8e-05	-0.0011	-0.00125	-0.0005	-0.00019	-8e-05	4
17709	-6e-05	-3e-05	-8e-05	-0.0011	-0.00125	-0.0005	-0.00019	-8e-05	4
17710	-6e-05	-3e-05	-8e-05	-0.0011	-0.00125	-0.0005	-0.00019	-8e-05	4
17711	-6e-05	-3e-05	-8e-05	-0.0011	-0.00125	-0.0005	-0.00019	-8e-05	4
17712	-6e-05	-3e-05	-8e-05	-0.0011	-0.00125	-0.0005	-0.00019	-8e-05	4
17713	-6e-05	-3e-05	-8e-05	-0.0011	-0.00125	-0.0005	-0.00019	-8e-05	4
17714	-6e-05	-3e-05	-8e-05	-0.0011	-0.00125	-0.0005	-0.00019	-8e-05	4
17715	-6e-05	-3e-05	-8e-05	-0.0011	-0.00125	-0.0005	-0.00019	-8e-05	4
17716	-6e-05	-3e-05	-8e-05	-0.0011	-0.00125	-0.0005	-0.00019	-8e-05	4
17717	-6e-05	-3e-05	-8e-05	-0.0011	-0.00125	-0.0005	-0.00019	-8e-05	4
17718	-6e-05	-3e-05	-8e-05	-0.0011	-0.00125	-0.0005	-0.00019	-8e-05	4
17719	-6e-05	-3e-05	-8e-05	-0.0011	-0.00125	-0.0005	-0.00019	-8e-05	4
17720	-6e-05	-3e-05	-8e-05	-0.0011	-0.00125	-0.0005	-0.00019	-8e-05	4
17721	-6e-05	-7e-05	-0.00016	-0.00013	4e-05	0.0001	-5e-05	-0.00011	4
17722	-6e-05	-7e-05	-0.00016	-0.00013	4e-05	0.0001	-5e-05	-0.00011	4
17723	-1e-05	0	2e-05	-0.00036	-0.00026	2e-05	-3e-05	-4e-05	4
17724	-1e-05	0	2e-05	-0.00036	-0.00026	2e-05	-3e-05	-4e-05	4
17725	-1e-05	0	2e-05	-0.00036	-0.00026	2e-05	-3e-05	-4e-05	4
17726	-1e-05	0	2e-05	-0.00036	-0.00026	2e-05	-3e-05	-4e-05	4
17730	-1e-05	0	2e-05	-0.00036	-0.00026	2e-05	-3e-05	-4e-05	4
17735	-1e-05	0	2e-05	-0.00036	-0.00026	2e-05	-3e-05	-4e-05	4
17736	-1e-05	0	2e-05	-0.00036	-0.00026	2e-05	-3e-05	-4e-05	4
17738	-1e-05	0	2e-05	-0.00036	-0.00026	2e-05	-3e-05	-4e-05	4
17739	-1e-05	0	2e-05	-0.00036	-0.00026	2e-05	-3e-05	-4e-05	4
17740	-1e-05	0	2e-05	-0.00036	-0.00026	2e-05	-3e-05	-4e-05	4
17741	-1e-05	0	2e-05	-0.00036	-0.00026	2e-05	-3e-05	-4e-05	4
17742	-1e-05	0	2e-05	-0.00036	-0.00026	2e-05	-3e-05	-4e-05	4
17743	-1e-05	0	2e-05	-0.00036	-0.00026	2e-05	-3e-05	-4e-05	4
17744	-1e-05	0	2e-05	-0.00036	-0.00026	2e-05	-3e-05	-4e-05	4
17745	-1e-05	0	2e-05	-0.00036	-0.00026	2e-05	-3e-05	-4e-05	4
17746	-1e-05	0	2e-05	-0.00036	-0.00026	2e-05	-3e-05	-4e-05	4
17747	-1e-05	0	2e-05	-0.00036	-0.00026	2e-05	-3e-05	-4e-05	4
17749	-1e-05	0	2e-05	-0.00036	-0.00026	2e-05	-3e-05	-4e-05	4
17750	-1e-05	0	2e-05	-0.00036	-0.00026	2e-05	-3e-05	-4e-05	4
17751	-2e-05	-0.0001	-0.00018	-0.00061	-0.00024	0.00036	5e-05	-3e-05	4
17752	-2e-05	-0.0001	-0.00018	-0.00061	-0.00024	0.00036	5e-05	-3e-05	4
17753	-3e-05	3e-05	6e-05	-3e-05	0.0005	-3e-05	9e-05	1e-05	4
17754	-3e-05	3e-05	6e-05	-3e-05	0.0005	-3e-05	9e-05	1e-05	4
17755	-3e-05	3e-05	6e-05	-3e-05	0.0005	-3e-05	9e-05	1e-05	4
17756	-3e-05	3e-05	6e-05	-3e-05	0.0005	-3e-05	9e-05	1e-05	4
17757	-3e-05	3e-05	6e-05	-3e-05	0.0005	-3e-05	9e-05	1e-05	4
17758	-8e-05	-0.00013	-9e-05	-0.00045	-0.0007	-0.00032	-0.0002	-0.0001	4
17759	5e-05	4e-05	1e-05	0.0003	0.00062	0.00071	0.00017	0.0001	4
17760	1e-05	3e-05	-1e-05	0.00064	0.00059	-0.00028	2e-05	2e-05	4
17761	1e-05	3e-05	-1e-05	0.00064	0.00059	-0.00028	2e-05	2e-05	4
17762	1e-05	3e-05	-1e-05	0.00064	0.00059	-0.00028	2e-05	2e-05	4
17763	1e-05	3e-05	-1e-05	0.00064	0.00059	-0.00028	2e-05	2e-05	4
17764	1e-05	3e-05	-1e-05	0.00064	0.00059	-0.00028	2e-05	2e-05	4
17765	1e-05	3e-05	-1e-05	0.00064	0.00059	-0.00028	2e-05	2e-05	4
17766	1e-05	3e-05	-1e-05	0.00064	0.00059	-0.00028	2e-05	2e-05	4
17767	1e-05	3e-05	-1e-05	0.00064	0.00059	-0.00028	2e-05	2e-05	4
17768	1e-05	3e-05	-1e-05	0.00064	0.00059	-0.00028	2e-05	2e-05	4
17769	1e-05	3e-05	-1e-05	0.00064	0.00059	-0.00028	2e-05	2e-05	4
17770	1e-05	3e-05	-1e-05	0.00064	0.00059	-0.00028	2e-05	2e-05	4
17771	1e-05	3e-05	-1e-05	0.00064	0.00059	-0.00028	2e-05	2e-05	4
17772	1e-05	3e-05	-1e-05	0.00064	0.00059	-0.00028	2e-05	2e-05	4
17773	1e-05	3e-05	-1e-05	0.00064	0.00059	-0.00028	2e-05	2e-05	4
17774	1e-05	3e-05	-1e-05	0.00064	0.00059	-0.00028	2e-05	2e-05	4
17775	1e-05	3e-05	-1e-05	0.00064	0.00059	-0.00028	2e-05	2e-05	4
17776	1e-05	3e-05	-1e-05	0.00064	0.00059	-0.00028	2e-05	2e-05	4
17777	1e-05	3e-05	-1e-05	0.00064	0.00059	-0.00028	2e-05	2e-05	4
17778	1e-05	3e-05	-1e-05	0.00064	0.00059	-0.00028	2e-05	2e-05	4
17779	1e-05	3e-05	-1e-05	0.00064	0.00059	-0.00028	2e-05	2e-05	4
17780	1e-05	3e-05	-1e-05	0.00064	0.00059	-0.00028	2e-05	2e-05	4
17781	2e-05	5e-05	8e-05	0.00027	-3e-05	0.00034	-2e-05	-1e-05	4
17782	-5e-05	-5e-05	2e-05	-0.0005	0.00019	-0.0011	6e-05	-1e-05	4
17783	-5e-05	-5e-05	2e-05	-0.0005	0.00019	-0.0011	6e-05	-1e-05	4
17784	-5e-05	-5e-05	2e-05	-0.0005	0.00019	-0.0011	6e-05	-1e-05	4
17785	-5e-05	-5e-05	2e-05	-0.0005	0.00019	-0.0011	6e-05	-1e-05	4
17786	-5e-05	-5e-05	2e-05	-0.0005	0.00019	-0.0011	6e-05	-1e-05	4
17788	5e-05	3e-05	-2e-05	-0.00017	-0.00023	0.00043	4e-05	3e-05	4
17789	5e-05	3e-05	-2e-05	-0.00017	-0.00023	0.00043	4e-05	3e-05	4
17790	5e-05	3e-05	-2e-05	-0.00017	-0.00023	0.00043	4e-05	3e-05	4
17791	5e-05	3e-05	-2e-05	-0.00017	-0.00023	0.00043	4e-05	3e-05	4
17792	5e-05	3e-05	-2e-05	-0.00017	-0.00023	0.00043	4e-05	3e-05	4
17793	5e-05	3e-05	-2e-05	-0.00017	-0.00023	0.00043	4e-05	3e-05	4
17794	5e-05	3e-05	-2e-05	-0.00017	-0.00023	0.00043	4e-05	3e-05	4
17795	5e-05	3e-05	-2e-05	-0.00017	-0.00023	0.00043	4e-05	3e-05	4
17796	5e-05	3e-05	-2e-05	-0.00017	-0.00023	0.00043	4e-05	3e-05	4
17797	5e-05	3e-05	-2e-05	-0.00017	-0.00023	0.00043	4e-05	3e-05	4
17798	5e-05	3e-05	-2e-05	-0.00017	-0.00023	0.00043	4e-05	3e-05	4
17799	5e-05	3e-05	-2e-05	-0.00017	-0.00023	0.00043	4e-05	3e-05	4
17800	5e-05	3e-05	-2e-05	-0.00017	-0.00023	0.00043	4e-05	3e-05	4
17801	5e-05	3e-05	-2e-05	-0.00017	-0.00023	0.00043	4e-05	3e-05	4
17802	5e-05	3e-05	-2e-05	-0.00017	-0.00023	0.00043	4e-05	3e-05	4
17803	5e-05	3e-05	-2e-05	-0.00017	-0.00023	0.00043	4e-05	3e-05	4
17804	0	6e-05	0.00014	0.00022	-0.00127	0.00028	-0.0001	0	4
17805	0.00015	0.00024	0.00052	0.00071	0.00048	0.0007	0.00053	0.00022	4
17806	0.00015	0.00024	0.00052	0.00071	0.00048	0.0007	0.00053	0.00022	4
17807	0.00015	0.00024	0.00052	0.00071	0.00048	0.0007	0.00053	0.00022	4
17808	0.00015	0.00024	0.00052	0.00071	0.00048	0.0007	0.00053	0.00022	4
17809	0.00015	0.00024	0.00052	0.00071	0.00048	0.0007	0.00053	0.00022	4
17810	0.00015	0.00024	0.00052	0.00071	0.00048	0.0007	0.00053	0.00022	4
17811	0.00015	0.00024	0.00052	0.00071	0.00048	0.0007	0.00053	0.00022	4
17812	0.00015	0.00024	0.00052	0.00071	0.00048	0.0007	0.00053	0.00022	4
17813	0.00015	0.00024	0.00052	0.00071	0.00048	0.0007	0.00053	0.00022	4
17814	0.00015	0.00024	0.00052	0.00071	0.00048	0.0007	0.00053	0.00022	4
17815	0.00015	0.00024	0.00052	0.00071	0.00048	0.0007	0.00053	0.00022	4
17816	0.00015	0.00024	0.00052	0.00071	0.00048	0.0007	0.00053	0.00022	4
17817	0.00015	0.00024	0.00052	0.00071	0.00048	0.0007	0.00053	0.00022	4
17818	0.00015	0.00024	0.00052	0.00071	0.00048	0.0007	0.00053	0.00022	4
17819	-5e-05	-0.00011	-0.00023	-0.00022	-0.00082	0.0002	-4e-05	-2e-05	4
17820	-5e-05	-0.00011	-0.00023	-0.00022	-0.00082	0.0002	-4e-05	-2e-05	4
17821	-5e-05	-0.00011	-0.00023	-0.00022	-0.00082	0.0002	-4e-05	-2e-05	4
17822	-5e-05	-0.00011	-0.00023	-0.00022	-0.00082	0.0002	-4e-05	-2e-05	4
17823	-5e-05	-0.00011	-0.00023	-0.00022	-0.00082	0.0002	-4e-05	-2e-05	4
17824	-5e-05	-0.00011	-0.00023	-0.00022	-0.00082	0.0002	-4e-05	-2e-05	4
17825	-5e-05	-0.00011	-0.00023	-0.00022	-0.00082	0.0002	-4e-05	-2e-05	4
17826	-5e-05	-0.00011	-0.00023	-0.00022	-0.00082	0.0002	-4e-05	-2e-05	4
17827	-5e-05	-0.00011	-0.00023	-0.00022	-0.00082	0.0002	-4e-05	-2e-05	4
17828	-5e-05	-0.00011	-0.00023	-0.00022	-0.00082	0.0002	-4e-05	-2e-05	4
17829	-5e-05	-0.00011	-0.00023	-0.00022	-0.00082	0.0002	-4e-05	-2e-05	4
17830	-5e-05	-0.00011	-0.00023	-0.00022	-0.00082	0.0002	-4e-05	-2e-05	4
17831	-5e-05	-0.00011	-0.00023	-0.00022	-0.00082	0.0002	-4e-05	-2e-05	4
17832	-3e-05	1e-05	0.00013	-0.0002	-0.00024	0.00018	-5e-05	-4e-05	4
17833	-3e-05	1e-05	0.00013	-0.0002	-0.00024	0.00018	-5e-05	-4e-05	4
17834	-3e-05	1e-05	0.00013	-0.0002	-0.00024	0.00018	-5e-05	-4e-05	4
17835	-3e-05	1e-05	0.00013	-0.0002	-0.00024	0.00018	-5e-05	-4e-05	4
17836	-3e-05	1e-05	0.00013	-0.0002	-0.00024	0.00018	-5e-05	-4e-05	4
17838	-3e-05	1e-05	0.00013	-0.0002	-0.00024	0.00018	-5e-05	-4e-05	4
17839	-3e-05	1e-05	0.00013	-0.0002	-0.00024	0.00018	-5e-05	-4e-05	4
17840	-3e-05	1e-05	0.00013	-0.0002	-0.00024	0.00018	-5e-05	-4e-05	4
17841	1e-05	-3e-05	-0.00013	0.00044	0.00063	-2e-05	-2e-05	0	4
17842	1e-05	-3e-05	-0.00013	0.00044	0.00063	-2e-05	-2e-05	0	4
17843	5e-05	0.00014	0.00012	1e-05	-0.00023	-0.00027	-3e-05	5e-05	4
17844	5e-05	0.00014	0.00012	1e-05	-0.00023	-0.00027	-3e-05	5e-05	4
17845	5e-05	0.00014	0.00012	1e-05	-0.00023	-0.00027	-3e-05	5e-05	4
17846	5e-05	0.00014	0.00012	1e-05	-0.00023	-0.00027	-3e-05	5e-05	4
17847	5e-05	0.00014	0.00012	1e-05	-0.00023	-0.00027	-3e-05	5e-05	4
17848	5e-05	0.00014	0.00012	1e-05	-0.00023	-0.00027	-3e-05	5e-05	4
17849	5e-05	0.00014	0.00012	1e-05	-0.00023	-0.00027	-3e-05	5e-05	4
17850	5e-05	0.00014	0.00012	1e-05	-0.00023	-0.00027	-3e-05	5e-05	4
17851	5e-05	0.00014	0.00012	1e-05	-0.00023	-0.00027	-3e-05	5e-05	4
17852	5e-05	0.00014	0.00012	1e-05	-0.00023	-0.00027	-3e-05	5e-05	4
17853	5e-05	0.00014	0.00012	1e-05	-0.00023	-0.00027	-3e-05	5e-05	4
17854	5e-05	0.00014	0.00012	1e-05	-0.00023	-0.00027	-3e-05	5e-05	4
17855	5e-05	0.00014	0.00012	1e-05	-0.00023	-0.00027	-3e-05	5e-05	4
17856	5e-05	0.00014	0.00012	1e-05	-0.00023	-0.00027	-3e-05	5e-05	4
17857	5e-05	0.00014	0.00012	1e-05	-0.00023	-0.00027	-3e-05	5e-05	4
17858	5e-05	0.00014	0.00012	1e-05	-0.00023	-0.00027	-3e-05	5e-05	4
17859	5e-05	0.00014	0.00012	1e-05	-0.00023	-0.00027	-3e-05	5e-05	4
17860	5e-05	0.00014	0.00012	1e-05	-0.00023	-0.00027	-3e-05	5e-05	4
17861	5e-05	0.00014	0.00012	1e-05	-0.00023	-0.00027	-3e-05	5e-05	4
17862	5e-05	0.00014	0.00012	1e-05	-0.00023	-0.00027	-3e-05	5e-05	4
17863	5e-05	0.00014	0.00012	1e-05	-0.00023	-0.00027	-3e-05	5e-05	4
17864	-1e-05	2e-05	7e-05	-0.00025	-0.00095	0.00012	3e-05	1e-05	4
17865	-1e-05	2e-05	7e-05	-0.00025	-0.00095	0.00012	3e-05	1e-05	4
17866	-1e-05	2e-05	7e-05	-0.00025	-0.00095	0.00012	3e-05	1e-05	4
17867	-1e-05	2e-05	7e-05	-0.00025	-0.00095	0.00012	3e-05	1e-05	4
17868	-1e-05	2e-05	7e-05	-0.00025	-0.00095	0.00012	3e-05	1e-05	4
17869	-1e-05	2e-05	7e-05	-0.00025	-0.00095	0.00012	3e-05	1e-05	4
17870	-1e-05	2e-05	7e-05	-0.00025	-0.00095	0.00012	3e-05	1e-05	4
17871	-5e-05	-6e-05	-0.00013	-0.00036	-0.0008	-0.00059	-9e-05	-4e-05	4
17872	-5e-05	-6e-05	-0.00013	-0.00036	-0.0008	-0.00059	-9e-05	-4e-05	4
17873	-5e-05	-6e-05	-0.00013	-0.00036	-0.0008	-0.00059	-9e-05	-4e-05	4
17874	-5e-05	-6e-05	-0.00013	-0.00036	-0.0008	-0.00059	-9e-05	-4e-05	4
17875	-5e-05	-6e-05	-0.00013	-0.00036	-0.0008	-0.00059	-9e-05	-4e-05	4
17876	-5e-05	-6e-05	-0.00013	-0.00036	-0.0008	-0.00059	-9e-05	-4e-05	4
17877	-5e-05	-6e-05	-0.00013	-0.00036	-0.0008	-0.00059	-9e-05	-4e-05	4
17878	-1e-05	0	5e-05	0	-0.00068	0.00015	-0.0001	-2e-05	4
17879	-1e-05	0	5e-05	0	-0.00068	0.00015	-0.0001	-2e-05	4
17880	-1e-05	0	5e-05	0	-0.00068	0.00015	-0.0001	-2e-05	4
17881	-1e-05	0	5e-05	0	-0.00068	0.00015	-0.0001	-2e-05	4
17882	-1e-05	0	5e-05	0	-0.00068	0.00015	-0.0001	-2e-05	4
17883	-1e-05	0	5e-05	0	-0.00068	0.00015	-0.0001	-2e-05	4
17884	-1e-05	0	5e-05	0	-0.00068	0.00015	-0.0001	-2e-05	4
17885	5e-05	9e-05	0.00017	0.0005	0.00034	0.00015	2e-05	1e-05	4
17886	5e-05	9e-05	0.00017	0.0005	0.00034	0.00015	2e-05	1e-05	4
17888	5e-05	9e-05	0.00017	0.0005	0.00034	0.00015	2e-05	1e-05	4
17889	5e-05	9e-05	0.00017	0.0005	0.00034	0.00015	2e-05	1e-05	4
17890	5e-05	9e-05	0.00017	0.0005	0.00034	0.00015	2e-05	1e-05	4
17891	5e-05	9e-05	0.00017	0.0005	0.00034	0.00015	2e-05	1e-05	4
17892	5e-05	9e-05	0.00017	0.0005	0.00034	0.00015	2e-05	1e-05	4
17893	5e-05	9e-05	0.00017	0.0005	0.00034	0.00015	2e-05	1e-05	4
17894	5e-05	9e-05	0.00017	0.0005	0.00034	0.00015	2e-05	1e-05	4
17895	5e-05	9e-05	0.00017	0.0005	0.00034	0.00015	2e-05	1e-05	4
17896	5e-05	9e-05	0.00017	0.0005	0.00034	0.00015	2e-05	1e-05	4
17897	5e-05	9e-05	0.00017	0.0005	0.00034	0.00015	2e-05	1e-05	4
17898	5e-05	9e-05	0.00017	0.0005	0.00034	0.00015	2e-05	1e-05	4
17899	5e-05	9e-05	0.00017	0.0005	0.00034	0.00015	2e-05	1e-05	4
17900	5e-05	9e-05	0.00017	0.0005	0.00034	0.00015	2e-05	1e-05	4
17901	5e-05	9e-05	0.00017	0.0005	0.00034	0.00015	2e-05	1e-05	4
17902	5e-05	9e-05	0.00017	0.0005	0.00034	0.00015	2e-05	1e-05	4
17903	5e-05	9e-05	0.00017	0.0005	0.00034	0.00015	2e-05	1e-05	4
17904	5e-05	9e-05	0.00017	0.0005	0.00034	0.00015	2e-05	1e-05	4
17905	5e-05	9e-05	0.00017	0.0005	0.00034	0.00015	2e-05	1e-05	4
17906	5e-05	9e-05	0.00017	0.0005	0.00034	0.00015	2e-05	1e-05	4
17907	5e-05	9e-05	0.00017	0.0005	0.00034	0.00015	2e-05	1e-05	4
17908	5e-05	9e-05	0.00017	0.0005	0.00034	0.00015	2e-05	1e-05	4
17909	-3e-05	4e-05	7e-05	-0.00046	-0.00096	-0.00035	-4e-05	-2e-05	4
17910	-1e-05	0	7e-05	-0.00083	-0.00068	-0.00059	-0.00011	-1e-05	4
17911	-1e-05	0	7e-05	-0.00083	-0.00068	-0.00059	-0.00011	-1e-05	4
17912	-1e-05	0	7e-05	-0.00083	-0.00068	-0.00059	-0.00011	-1e-05	4
17913	-1e-05	0	7e-05	-0.00083	-0.00068	-0.00059	-0.00011	-1e-05	4
17914	-1e-05	0	7e-05	-0.00083	-0.00068	-0.00059	-0.00011	-1e-05	4
17915	-1e-05	0	7e-05	-0.00083	-0.00068	-0.00059	-0.00011	-1e-05	4
17916	-1e-05	0	7e-05	-0.00083	-0.00068	-0.00059	-0.00011	-1e-05	4
17917	-1e-05	0	7e-05	-0.00083	-0.00068	-0.00059	-0.00011	-1e-05	4
17918	-1e-05	0	7e-05	-0.00083	-0.00068	-0.00059	-0.00011	-1e-05	4
17919	-1e-05	0	7e-05	-0.00083	-0.00068	-0.00059	-0.00011	-1e-05	4
17920	-1e-05	0	7e-05	-0.00083	-0.00068	-0.00059	-0.00011	-1e-05	4
17921	-1e-05	0	7e-05	-0.00083	-0.00068	-0.00059	-0.00011	-1e-05	4
17922	-1e-05	0	7e-05	-0.00083	-0.00068	-0.00059	-0.00011	-1e-05	4
17923	-1e-05	0	7e-05	-0.00083	-0.00068	-0.00059	-0.00011	-1e-05	4
17924	0	-7e-05	-0.00021	2e-05	0.00081	0.00067	8e-05	1e-05	4
17925	-7e-05	-0.00011	-0.00028	-0.00029	-0.00063	8e-05	-9e-05	-7e-05	4
17926	-7e-05	-0.00011	-0.00028	-0.00029	-0.00063	8e-05	-9e-05	-7e-05	4
17927	-7e-05	-0.00011	-0.00028	-0.00029	-0.00063	8e-05	-9e-05	-7e-05	4
17928	-7e-05	-0.00011	-0.00028	-0.00029	-0.00063	8e-05	-9e-05	-7e-05	4
17929	-7e-05	-0.00011	-0.00028	-0.00029	-0.00063	8e-05	-9e-05	-7e-05	4
17930	-7e-05	-0.00011	-0.00028	-0.00029	-0.00063	8e-05	-9e-05	-7e-05	4
17931	-7e-05	-0.00011	-0.00028	-0.00029	-0.00063	8e-05	-9e-05	-7e-05	4
17932	-7e-05	-0.00011	-0.00028	-0.00029	-0.00063	8e-05	-9e-05	-7e-05	4
17933	-7e-05	-0.00011	-0.00028	-0.00029	-0.00063	8e-05	-9e-05	-7e-05	4
17934	-7e-05	-0.00011	-0.00028	-0.00029	-0.00063	8e-05	-9e-05	-7e-05	4
17935	-7e-05	-0.00011	-0.00028	-0.00029	-0.00063	8e-05	-9e-05	-7e-05	4
17936	-7e-05	-0.00011	-0.00028	-0.00029	-0.00063	8e-05	-9e-05	-7e-05	4
17938	-7e-05	-0.00011	-0.00028	-0.00029	-0.00063	8e-05	-9e-05	-7e-05	4
17939	-7e-05	-0.00011	-0.00028	-0.00029	-0.00063	8e-05	-9e-05	-7e-05	4
17940	-7e-05	-0.00011	-0.00028	-0.00029	-0.00063	8e-05	-9e-05	-7e-05	4
17941	-7e-05	-0.00011	-0.00028	-0.00029	-0.00063	8e-05	-9e-05	-7e-05	4
17942	-7e-05	-0.00011	-0.00028	-0.00029	-0.00063	8e-05	-9e-05	-7e-05	4
17943	-7e-05	-0.00011	-0.00028	-0.00029	-0.00063	8e-05	-9e-05	-7e-05	4
17944	-7e-05	-0.00011	-0.00028	-0.00029	-0.00063	8e-05	-9e-05	-7e-05	4
17945	-7e-05	-0.00011	-0.00028	-0.00029	-0.00063	8e-05	-9e-05	-7e-05	4
17946	-4e-05	-3e-05	-3e-05	-0.00022	-0.00057	-0.00061	-8e-05	-8e-05	4
17947	-4e-05	-3e-05	-3e-05	-0.00022	-0.00057	-0.00061	-8e-05	-8e-05	4
17948	1e-05	-5e-05	-1e-05	0.00033	0.00085	0.00043	3e-05	-2e-05	4
17949	1e-05	-5e-05	-1e-05	0.00033	0.00085	0.00043	3e-05	-2e-05	4
17950	1e-05	-5e-05	-1e-05	0.00033	0.00085	0.00043	3e-05	-2e-05	4
17951	1e-05	-5e-05	-1e-05	0.00033	0.00085	0.00043	3e-05	-2e-05	4
17952	1e-05	-5e-05	-1e-05	0.00033	0.00085	0.00043	3e-05	-2e-05	4
17953	1e-05	-5e-05	-1e-05	0.00033	0.00085	0.00043	3e-05	-2e-05	4
17954	1e-05	-5e-05	-1e-05	0.00033	0.00085	0.00043	3e-05	-2e-05	4
17955	1e-05	-5e-05	-1e-05	0.00033	0.00085	0.00043	3e-05	-2e-05	4
17956	1e-05	-5e-05	-1e-05	0.00033	0.00085	0.00043	3e-05	-2e-05	4
17957	1e-05	-5e-05	-1e-05	0.00033	0.00085	0.00043	3e-05	-2e-05	4
17958	1e-05	-5e-05	-1e-05	0.00033	0.00085	0.00043	3e-05	-2e-05	4
17959	1e-05	-5e-05	-1e-05	0.00033	0.00085	0.00043	3e-05	-2e-05	4
17960	1e-05	-5e-05	-1e-05	0.00033	0.00085	0.00043	3e-05	-2e-05	4
17961	1e-05	-1e-05	-1e-05	0.00047	0.00127	8e-05	-0.0001	-1e-05	4
17962	1e-05	-1e-05	-1e-05	0.00047	0.00127	8e-05	-0.0001	-1e-05	4
17963	-5e-05	-6e-05	-9e-05	-0.00044	-0.00115	-0.00039	-0.00014	-7e-05	4
17964	-5e-05	-6e-05	-9e-05	-0.00044	-0.00115	-0.00039	-0.00014	-7e-05	4
17965	-5e-05	-6e-05	-9e-05	-0.00044	-0.00115	-0.00039	-0.00014	-7e-05	4
17966	-5e-05	-6e-05	-9e-05	-0.00044	-0.00115	-0.00039	-0.00014	-7e-05	4
17967	-5e-05	-6e-05	-9e-05	-0.00044	-0.00115	-0.00039	-0.00014	-7e-05	4
17968	-5e-05	-6e-05	-9e-05	-0.00044	-0.00115	-0.00039	-0.00014	-7e-05	4
17969	-5e-05	-6e-05	-9e-05	-0.00044	-0.00115	-0.00039	-0.00014	-7e-05	4
17970	-5e-05	-6e-05	-9e-05	-0.00044	-0.00115	-0.00039	-0.00014	-7e-05	4
17971	-5e-05	-6e-05	-9e-05	-0.00044	-0.00115	-0.00039	-0.00014	-7e-05	4
17972	-5e-05	-6e-05	-9e-05	-0.00044	-0.00115	-0.00039	-0.00014	-7e-05	4
17973	-5e-05	-6e-05	-9e-05	-0.00044	-0.00115	-0.00039	-0.00014	-7e-05	4
17974	-5e-05	-6e-05	-9e-05	-0.00044	-0.00115	-0.00039	-0.00014	-7e-05	4
17975	-5e-05	-6e-05	-9e-05	-0.00044	-0.00115	-0.00039	-0.00014	-7e-05	4
17976	-5e-05	-6e-05	-9e-05	-0.00044	-0.00115	-0.00039	-0.00014	-7e-05	4
17977	-5e-05	-6e-05	-9e-05	-0.00044	-0.00115	-0.00039	-0.00014	-7e-05	4
17978	-5e-05	-6e-05	-9e-05	-0.00044	-0.00115	-0.00039	-0.00014	-7e-05	4
17979	-5e-05	-6e-05	-9e-05	-0.00044	-0.00115	-0.00039	-0.00014	-7e-05	4
17980	-5e-05	-6e-05	-9e-05	-0.00044	-0.00115	-0.00039	-0.00014	-7e-05	4
17981	-5e-05	-6e-05	-9e-05	-0.00044	-0.00115	-0.00039	-0.00014	-7e-05	4
17982	-5e-05	-6e-05	-9e-05	-0.00044	-0.00115	-0.00039	-0.00014	-7e-05	4
17983	-5e-05	-6e-05	-9e-05	-0.00044	-0.00115	-0.00039	-0.00014	-7e-05	4
17984	-5e-05	-6e-05	-9e-05	-0.00044	-0.00115	-0.00039	-0.00014	-7e-05	4
17985	-5e-05	-6e-05	-9e-05	-0.00044	-0.00115	-0.00039	-0.00014	-7e-05	4
17986	-5e-05	-6e-05	-9e-05	-0.00044	-0.00115	-0.00039	-0.00014	-7e-05	4
17989	-5e-05	-6e-05	-9e-05	-0.00044	-0.00115	-0.00039	-0.00014	-7e-05	4
17990	-5e-05	-6e-05	-9e-05	-0.00044	-0.00115	-0.00039	-0.00014	-7e-05	4
17991	3e-05	6e-05	0.00016	0.00081	0.0008	-0.00051	-3e-05	0	4
17992	-2e-05	-7e-05	-0.00019	5e-05	-0.00046	1e-05	-6e-05	-3e-05	4
17993	0	-5e-05	-0.00019	-0.00062	0.0001	0.00054	0.00018	2e-05	4
17994	0	-5e-05	-0.00019	-0.00062	0.0001	0.00054	0.00018	2e-05	4
17995	0	-5e-05	-0.00019	-0.00062	0.0001	0.00054	0.00018	2e-05	4
17996	0	-5e-05	-0.00019	-0.00062	0.0001	0.00054	0.00018	2e-05	4
17997	0	-5e-05	-0.00019	-0.00062	0.0001	0.00054	0.00018	2e-05	4
17998	4e-05	6e-05	0.00011	4e-05	-0.00034	-0.00037	-7e-05	2e-05	4
17999	4e-05	6e-05	0.00011	4e-05	-0.00034	-0.00037	-7e-05	2e-05	4
18000	4e-05	6e-05	0.00011	4e-05	-0.00034	-0.00037	-7e-05	2e-05	4
18001	4e-05	6e-05	0.00011	4e-05	-0.00034	-0.00037	-7e-05	2e-05	4
18002	4e-05	6e-05	0.00011	4e-05	-0.00034	-0.00037	-7e-05	2e-05	4
18003	4e-05	6e-05	0.00011	4e-05	-0.00034	-0.00037	-7e-05	2e-05	4
18004	4e-05	6e-05	0.00011	4e-05	-0.00034	-0.00037	-7e-05	2e-05	4
18005	-3e-05	-4e-05	2e-05	0.00039	-0.00045	-0.00026	-2e-05	-3e-05	4
18006	-3e-05	-4e-05	2e-05	0.00039	-0.00045	-0.00026	-2e-05	-3e-05	4
18007	-3e-05	-4e-05	2e-05	0.00039	-0.00045	-0.00026	-2e-05	-3e-05	4
18008	-3e-05	-4e-05	2e-05	0.00039	-0.00045	-0.00026	-2e-05	-3e-05	4
18009	-3e-05	-4e-05	2e-05	0.00039	-0.00045	-0.00026	-2e-05	-3e-05	4
18010	-3e-05	-4e-05	2e-05	0.00039	-0.00045	-0.00026	-2e-05	-3e-05	4
18011	-3e-05	-4e-05	2e-05	0.00039	-0.00045	-0.00026	-2e-05	-3e-05	4
18012	-3e-05	-4e-05	2e-05	0.00039	-0.00045	-0.00026	-2e-05	-3e-05	4
18013	-3e-05	-4e-05	2e-05	0.00039	-0.00045	-0.00026	-2e-05	-3e-05	4
18014	-3e-05	-4e-05	2e-05	0.00039	-0.00045	-0.00026	-2e-05	-3e-05	4
18015	-3e-05	-4e-05	2e-05	0.00039	-0.00045	-0.00026	-2e-05	-3e-05	4
18016	-3e-05	-4e-05	2e-05	0.00039	-0.00045	-0.00026	-2e-05	-3e-05	4
18017	-3e-05	-4e-05	2e-05	0.00039	-0.00045	-0.00026	-2e-05	-3e-05	4
18018	-3e-05	-4e-05	2e-05	0.00039	-0.00045	-0.00026	-2e-05	-3e-05	4
18019	-3e-05	-4e-05	2e-05	0.00039	-0.00045	-0.00026	-2e-05	-3e-05	4
18020	-3e-05	-4e-05	2e-05	0.00039	-0.00045	-0.00026	-2e-05	-3e-05	4
18021	-3e-05	-4e-05	2e-05	0.00039	-0.00045	-0.00026	-2e-05	-3e-05	4
18022	-3e-05	-4e-05	2e-05	0.00039	-0.00045	-0.00026	-2e-05	-3e-05	4
18023	-3e-05	-4e-05	2e-05	0.00039	-0.00045	-0.00026	-2e-05	-3e-05	4
18024	-3e-05	-4e-05	2e-05	0.00039	-0.00045	-0.00026	-2e-05	-3e-05	4
18025	-3e-05	-4e-05	2e-05	0.00039	-0.00045	-0.00026	-2e-05	-3e-05	4
18026	-3e-05	-4e-05	2e-05	0.00039	-0.00045	-0.00026	-2e-05	-3e-05	4
18027	-3e-05	-4e-05	2e-05	0.00039	-0.00045	-0.00026	-2e-05	-3e-05	4
18028	-3e-05	-4e-05	2e-05	0.00039	-0.00045	-0.00026	-2e-05	-3e-05	4
18029	-1e-05	4e-05	8e-05	0.00039	6e-05	0.00023	1e-05	-3e-05	4
18030	1e-05	-1e-05	1e-05	-0.00014	-0.0004	0.0002	3e-05	4e-05	4
18031	1e-05	-1e-05	1e-05	-0.00014	-0.0004	0.0002	3e-05	4e-05	4
18032	1e-05	-1e-05	1e-05	-0.00014	-0.0004	0.0002	3e-05	4e-05	4
18033	1e-05	-1e-05	1e-05	-0.00014	-0.0004	0.0002	3e-05	4e-05	4
18034	1e-05	-1e-05	1e-05	-0.00014	-0.0004	0.0002	3e-05	4e-05	4
18035	1e-05	-1e-05	1e-05	-0.00014	-0.0004	0.0002	3e-05	4e-05	4
18036	1e-05	-1e-05	1e-05	-0.00014	-0.0004	0.0002	3e-05	4e-05	4
18039	1e-05	-1e-05	1e-05	-0.00014	-0.0004	0.0002	3e-05	4e-05	4
18040	1e-05	-1e-05	1e-05	-0.00014	-0.0004	0.0002	3e-05	4e-05	4
18041	1e-05	-1e-05	1e-05	-0.00014	-0.0004	0.0002	3e-05	4e-05	4
18042	1e-05	-1e-05	1e-05	-0.00014	-0.0004	0.0002	3e-05	4e-05	4
18043	1e-05	-1e-05	1e-05	-0.00014	-0.0004	0.0002	3e-05	4e-05	4
18044	3e-05	8e-05	0.00019	0.00027	0.00059	-3e-05	5e-05	6e-05	4
18045	-3e-05	-6e-05	-0.00012	-0.00024	-0.00047	0.00035	-2e-05	-2e-05	4
18046	-3e-05	-4e-05	-3e-05	-0.00017	7e-05	-0.00025	-0.00011	-5e-05	4
18047	-3e-05	-4e-05	-3e-05	-0.00017	7e-05	-0.00025	-0.00011	-5e-05	4
18048	-3e-05	-4e-05	-3e-05	-0.00017	7e-05	-0.00025	-0.00011	-5e-05	4
18049	-3e-05	-4e-05	-3e-05	-0.00017	7e-05	-0.00025	-0.00011	-5e-05	4
18050	-3e-05	-4e-05	-3e-05	-0.00017	7e-05	-0.00025	-0.00011	-5e-05	4
18051	-3e-05	-4e-05	-3e-05	-0.00017	7e-05	-0.00025	-0.00011	-5e-05	4
18052	-3e-05	-4e-05	-3e-05	-0.00017	7e-05	-0.00025	-0.00011	-5e-05	4
18053	-3e-05	-4e-05	-3e-05	-0.00017	7e-05	-0.00025	-0.00011	-5e-05	4
18054	-3e-05	-4e-05	-3e-05	-0.00017	7e-05	-0.00025	-0.00011	-5e-05	4
18055	-3e-05	-4e-05	-3e-05	-0.00017	7e-05	-0.00025	-0.00011	-5e-05	4
18056	-3e-05	-4e-05	-3e-05	-0.00017	7e-05	-0.00025	-0.00011	-5e-05	4
18057	-3e-05	-4e-05	-3e-05	-0.00017	7e-05	-0.00025	-0.00011	-5e-05	4
18058	-3e-05	-4e-05	-3e-05	-0.00017	7e-05	-0.00025	-0.00011	-5e-05	4
18059	-3e-05	-4e-05	-3e-05	-0.00017	7e-05	-0.00025	-0.00011	-5e-05	4
18060	-3e-05	-4e-05	-3e-05	-0.00017	7e-05	-0.00025	-0.00011	-5e-05	4
18061	-3e-05	-4e-05	-3e-05	-0.00017	7e-05	-0.00025	-0.00011	-5e-05	4
18062	-3e-05	-4e-05	-3e-05	-0.00017	7e-05	-0.00025	-0.00011	-5e-05	4
18063	-3e-05	-4e-05	-3e-05	-0.00017	7e-05	-0.00025	-0.00011	-5e-05	4
18064	-3e-05	-4e-05	-3e-05	-0.00017	7e-05	-0.00025	-0.00011	-5e-05	4
18065	-3e-05	-4e-05	-3e-05	-0.00017	7e-05	-0.00025	-0.00011	-5e-05	4
18066	-3e-05	-0.0001	-0.0001	0.00012	-0.00029	-0.00014	-7e-05	-2e-05	4
18067	-6e-05	-3e-05	-1e-05	-0.00032	-0.0009	-8e-05	1e-05	-3e-05	4
18068	-4e-05	-2e-05	1e-05	0.00039	0.00015	0.00022	-0.00012	-1e-05	4
18069	-4e-05	-2e-05	1e-05	0.00039	0.00015	0.00022	-0.00012	-1e-05	4
18070	-4e-05	-2e-05	1e-05	0.00039	0.00015	0.00022	-0.00012	-1e-05	4
18071	-4e-05	-2e-05	1e-05	0.00039	0.00015	0.00022	-0.00012	-1e-05	4
18072	-4e-05	-2e-05	1e-05	0.00039	0.00015	0.00022	-0.00012	-1e-05	4
18073	-4e-05	-2e-05	1e-05	0.00039	0.00015	0.00022	-0.00012	-1e-05	4
18074	-4e-05	-2e-05	1e-05	0.00039	0.00015	0.00022	-0.00012	-1e-05	4
18075	-4e-05	-2e-05	1e-05	0.00039	0.00015	0.00022	-0.00012	-1e-05	4
18076	-4e-05	-2e-05	1e-05	0.00039	0.00015	0.00022	-0.00012	-1e-05	4
18077	-4e-05	-2e-05	1e-05	0.00039	0.00015	0.00022	-0.00012	-1e-05	4
18078	-4e-05	-2e-05	1e-05	0.00039	0.00015	0.00022	-0.00012	-1e-05	4
18079	-4e-05	-2e-05	1e-05	0.00039	0.00015	0.00022	-0.00012	-1e-05	4
18080	-4e-05	-2e-05	1e-05	0.00039	0.00015	0.00022	-0.00012	-1e-05	4
18081	3e-05	4e-05	4e-05	0.00046	0.0002	-3e-05	0.00014	4e-05	4
18082	3e-05	4e-05	4e-05	0.00046	0.0002	-3e-05	0.00014	4e-05	4
18083	-0.00011	-0.00015	-0.00033	-0.00055	-0.0008	-0.00088	-0.00024	-0.00013	4
18084	-0.00011	-0.00015	-0.00033	-0.00055	-0.0008	-0.00088	-0.00024	-0.00013	4
18085	-0.00011	-0.00015	-0.00033	-0.00055	-0.0008	-0.00088	-0.00024	-0.00013	4
18086	-0.00011	-0.00015	-0.00033	-0.00055	-0.0008	-0.00088	-0.00024	-0.00013	4
18089	-0.00011	-0.00015	-0.00033	-0.00055	-0.0008	-0.00088	-0.00024	-0.00013	4
18090	-0.00011	-0.00015	-0.00033	-0.00055	-0.0008	-0.00088	-0.00024	-0.00013	4
18091	-0.00011	-0.00015	-0.00033	-0.00055	-0.0008	-0.00088	-0.00024	-0.00013	4
18092	-0.00011	-0.00015	-0.00033	-0.00055	-0.0008	-0.00088	-0.00024	-0.00013	4
18093	-0.00011	-0.00015	-0.00033	-0.00055	-0.0008	-0.00088	-0.00024	-0.00013	4
18094	-0.00011	-0.00015	-0.00033	-0.00055	-0.0008	-0.00088	-0.00024	-0.00013	4
18095	-0.00011	-0.00015	-0.00033	-0.00055	-0.0008	-0.00088	-0.00024	-0.00013	4
18096	-0.00011	-0.00015	-0.00033	-0.00055	-0.0008	-0.00088	-0.00024	-0.00013	4
18097	-0.00011	-0.00015	-0.00033	-0.00055	-0.0008	-0.00088	-0.00024	-0.00013	4
18098	-0.00011	-0.00015	-0.00033	-0.00055	-0.0008	-0.00088	-0.00024	-0.00013	4
18099	-0.00011	-0.00015	-0.00033	-0.00055	-0.0008	-0.00088	-0.00024	-0.00013	4
18100	-0.00011	-0.00015	-0.00033	-0.00055	-0.0008	-0.00088	-0.00024	-0.00013	4
18101	-0.00011	-0.00015	-0.00033	-0.00055	-0.0008	-0.00088	-0.00024	-0.00013	4
18102	-0.00011	-0.00015	-0.00033	-0.00055	-0.0008	-0.00088	-0.00024	-0.00013	4
18103	-0.00011	-0.00015	-0.00033	-0.00055	-0.0008	-0.00088	-0.00024	-0.00013	4
18104	2e-05	4e-05	6e-05	0.00029	6e-05	-0.00021	5e-05	5e-05	4
18105	-3e-05	-5e-05	-7e-05	-0.00026	-6e-05	-0.00019	-7e-05	-3e-05	4
18106	-1e-05	-6e-05	-0.00015	0.00011	0.00042	-0.00014	0.0001	0	4
18107	-1e-05	-6e-05	-0.00015	0.00011	0.00042	-0.00014	0.0001	0	4
18108	-1e-05	-6e-05	-0.00015	0.00011	0.00042	-0.00014	0.0001	0	4
18109	-1e-05	-6e-05	-0.00015	0.00011	0.00042	-0.00014	0.0001	0	4
18110	-1e-05	-6e-05	-0.00015	0.00011	0.00042	-0.00014	0.0001	0	4
18111	-1e-05	-6e-05	-0.00015	0.00011	0.00042	-0.00014	0.0001	0	4
18112	-1e-05	-6e-05	-0.00015	0.00011	0.00042	-0.00014	0.0001	0	4
18113	-1e-05	-6e-05	-0.00015	0.00011	0.00042	-0.00014	0.0001	0	4
18114	-1e-05	-6e-05	-0.00015	0.00011	0.00042	-0.00014	0.0001	0	4
18115	-1e-05	-6e-05	-0.00015	0.00011	0.00042	-0.00014	0.0001	0	4
18116	-1e-05	-6e-05	-0.00015	0.00011	0.00042	-0.00014	0.0001	0	4
18117	-1e-05	-6e-05	-0.00015	0.00011	0.00042	-0.00014	0.0001	0	4
18118	-2e-05	-3e-05	-9e-05	-0.00041	0.00033	0.00034	-3e-05	-4e-05	4
18119	-2e-05	-1e-05	-4e-05	7e-05	0.00039	-5e-05	-1e-05	-1e-05	4
18120	-2e-05	-1e-05	-4e-05	7e-05	0.00039	-5e-05	-1e-05	-1e-05	4
18121	-2e-05	-1e-05	-4e-05	7e-05	0.00039	-5e-05	-1e-05	-1e-05	4
18122	-2e-05	-1e-05	-4e-05	7e-05	0.00039	-5e-05	-1e-05	-1e-05	4
18123	-2e-05	-1e-05	-4e-05	7e-05	0.00039	-5e-05	-1e-05	-1e-05	4
18124	-2e-05	-1e-05	-4e-05	7e-05	0.00039	-5e-05	-1e-05	-1e-05	4
18125	-2e-05	-1e-05	-4e-05	7e-05	0.00039	-5e-05	-1e-05	-1e-05	4
18126	-2e-05	-1e-05	-4e-05	7e-05	0.00039	-5e-05	-1e-05	-1e-05	4
18127	-2e-05	-1e-05	-4e-05	7e-05	0.00039	-5e-05	-1e-05	-1e-05	4
18128	-2e-05	-1e-05	-4e-05	7e-05	0.00039	-5e-05	-1e-05	-1e-05	4
18129	-2e-05	-1e-05	-4e-05	7e-05	0.00039	-5e-05	-1e-05	-1e-05	4
18130	-2e-05	-1e-05	-4e-05	7e-05	0.00039	-5e-05	-1e-05	-1e-05	4
18131	-2e-05	-1e-05	-4e-05	7e-05	0.00039	-5e-05	-1e-05	-1e-05	4
18132	-2e-05	-1e-05	-4e-05	7e-05	0.00039	-5e-05	-1e-05	-1e-05	4
18133	0	2e-05	2e-05	7e-05	-1e-05	-0.00034	-6e-05	-3e-05	4
18134	2e-05	3e-05	7e-05	0.00018	0.00054	-0.00024	-4e-05	0	4
18135	2e-05	3e-05	7e-05	0.00018	0.00054	-0.00024	-4e-05	0	4
18136	2e-05	3e-05	7e-05	0.00018	0.00054	-0.00024	-4e-05	0	4
18139	2e-05	3e-05	7e-05	0.00018	0.00054	-0.00024	-4e-05	0	4
18140	2e-05	3e-05	7e-05	0.00018	0.00054	-0.00024	-4e-05	0	4
18141	2e-05	3e-05	7e-05	0.00018	0.00054	-0.00024	-4e-05	0	4
18142	2e-05	3e-05	7e-05	0.00018	0.00054	-0.00024	-4e-05	0	4
18143	2e-05	3e-05	7e-05	0.00018	0.00054	-0.00024	-4e-05	0	4
18144	2e-05	3e-05	7e-05	0.00018	0.00054	-0.00024	-4e-05	0	4
18145	2e-05	3e-05	7e-05	0.00018	0.00054	-0.00024	-4e-05	0	4
18146	2e-05	3e-05	7e-05	0.00018	0.00054	-0.00024	-4e-05	0	4
18147	2e-05	3e-05	7e-05	0.00018	0.00054	-0.00024	-4e-05	0	4
18148	2e-05	3e-05	7e-05	0.00018	0.00054	-0.00024	-4e-05	0	4
18149	-2e-05	-1e-05	4e-05	-0.0003	-0.00047	-0.00045	-0.00016	-8e-05	4
18150	-2e-05	-6e-05	-8e-05	0.00036	0.00069	0.00017	4e-05	-6e-05	4
18151	0.00015	0.0002	0.0003	0	0.00053	0.00054	0.00025	0.00015	4
18152	0.00015	0.0002	0.0003	0	0.00053	0.00054	0.00025	0.00015	4
18153	0.00015	0.0002	0.0003	0	0.00053	0.00054	0.00025	0.00015	4
18154	0.00015	0.0002	0.0003	0	0.00053	0.00054	0.00025	0.00015	4
18155	0.00015	0.0002	0.0003	0	0.00053	0.00054	0.00025	0.00015	4
18156	0.00015	0.0002	0.0003	0	0.00053	0.00054	0.00025	0.00015	4
18157	0.00015	0.0002	0.0003	0	0.00053	0.00054	0.00025	0.00015	4
18158	0.00015	0.0002	0.0003	0	0.00053	0.00054	0.00025	0.00015	4
18159	0.00015	0.0002	0.0003	0	0.00053	0.00054	0.00025	0.00015	4
18160	0.00015	0.0002	0.0003	0	0.00053	0.00054	0.00025	0.00015	4
18161	0.00015	0.0002	0.0003	0	0.00053	0.00054	0.00025	0.00015	4
18162	0.00015	0.0002	0.0003	0	0.00053	0.00054	0.00025	0.00015	4
18163	0.00015	0.0002	0.0003	0	0.00053	0.00054	0.00025	0.00015	4
18164	-6e-05	-7e-05	-9e-05	-0.00046	-0.00033	-0.00055	-0.00019	-0.0001	4
18165	-6e-05	-7e-05	-9e-05	-0.00046	-0.00033	-0.00055	-0.00019	-0.0001	4
18166	-3e-05	-2e-05	5e-05	-0.00064	-0.00088	-0.00036	-0.00012	-4e-05	4
18167	-3e-05	-2e-05	5e-05	-0.00064	-0.00088	-0.00036	-0.00012	-4e-05	4
18168	-3e-05	-2e-05	5e-05	-0.00064	-0.00088	-0.00036	-0.00012	-4e-05	4
18169	-3e-05	-2e-05	5e-05	-0.00064	-0.00088	-0.00036	-0.00012	-4e-05	4
18170	-3e-05	-2e-05	5e-05	-0.00064	-0.00088	-0.00036	-0.00012	-4e-05	4
18171	-3e-05	-2e-05	5e-05	-0.00064	-0.00088	-0.00036	-0.00012	-4e-05	4
18172	-3e-05	-2e-05	5e-05	-0.00064	-0.00088	-0.00036	-0.00012	-4e-05	4
18173	-3e-05	-2e-05	5e-05	-0.00064	-0.00088	-0.00036	-0.00012	-4e-05	4
18174	-3e-05	-2e-05	5e-05	-0.00064	-0.00088	-0.00036	-0.00012	-4e-05	4
18175	-3e-05	-2e-05	5e-05	-0.00064	-0.00088	-0.00036	-0.00012	-4e-05	4
18176	-3e-05	-2e-05	5e-05	-0.00064	-0.00088	-0.00036	-0.00012	-4e-05	4
18177	-3e-05	-2e-05	5e-05	-0.00064	-0.00088	-0.00036	-0.00012	-4e-05	4
18178	-3e-05	-2e-05	5e-05	-0.00064	-0.00088	-0.00036	-0.00012	-4e-05	4
18179	-3e-05	-2e-05	5e-05	-0.00064	-0.00088	-0.00036	-0.00012	-4e-05	4
18180	-3e-05	-2e-05	5e-05	-0.00064	-0.00088	-0.00036	-0.00012	-4e-05	4
18181	-3e-05	-2e-05	5e-05	-0.00064	-0.00088	-0.00036	-0.00012	-4e-05	4
18182	-3e-05	-2e-05	5e-05	-0.00064	-0.00088	-0.00036	-0.00012	-4e-05	4
18183	-3e-05	-2e-05	5e-05	-0.00064	-0.00088	-0.00036	-0.00012	-4e-05	4
18184	-3e-05	-2e-05	5e-05	-0.00064	-0.00088	-0.00036	-0.00012	-4e-05	4
18185	-3e-05	-2e-05	5e-05	-0.00064	-0.00088	-0.00036	-0.00012	-4e-05	4
18187	3e-05	0.0001	0.00012	-0.00011	-0.00027	0.00039	9e-05	8e-05	4
18190	0	-1e-05	0	0.0001	0.00016	0.00054	0.00011	1e-05	4
18191	0	-1e-05	0	0.0001	0.00016	0.00054	0.00011	1e-05	4
18192	0	-1e-05	0	0.0001	0.00016	0.00054	0.00011	1e-05	4
18193	0	-1e-05	0	0.0001	0.00016	0.00054	0.00011	1e-05	4
18194	0	-1e-05	0	0.0001	0.00016	0.00054	0.00011	1e-05	4
18195	0	-1e-05	0	0.0001	0.00016	0.00054	0.00011	1e-05	4
18196	0	-1e-05	0	0.0001	0.00016	0.00054	0.00011	1e-05	4
18197	0	-1e-05	0	0.0001	0.00016	0.00054	0.00011	1e-05	4
18198	0	-1e-05	0	0.0001	0.00016	0.00054	0.00011	1e-05	4
18199	0	-1e-05	0	0.0001	0.00016	0.00054	0.00011	1e-05	4
18200	0	-1e-05	0	0.0001	0.00016	0.00054	0.00011	1e-05	4
18201	0	-3e-05	-6e-05	0.00016	0.00079	-0.00024	0.00012	0	4
18202	0	-3e-05	-6e-05	0.00016	0.00079	-0.00024	0.00012	0	4
18203	-0.00013	-0.00026	-0.00049	-0.00025	-0.00018	-0.00042	-0.00016	-0.00011	4
18204	-0.00013	-0.00026	-0.00049	-0.00025	-0.00018	-0.00042	-0.00016	-0.00011	4
18205	-0.00013	-0.00026	-0.00049	-0.00025	-0.00018	-0.00042	-0.00016	-0.00011	4
18206	-0.00013	-0.00026	-0.00049	-0.00025	-0.00018	-0.00042	-0.00016	-0.00011	4
18207	-0.00013	-0.00026	-0.00049	-0.00025	-0.00018	-0.00042	-0.00016	-0.00011	4
18208	-0.00013	-0.00026	-0.00049	-0.00025	-0.00018	-0.00042	-0.00016	-0.00011	4
18209	-0.00013	-0.00026	-0.00049	-0.00025	-0.00018	-0.00042	-0.00016	-0.00011	4
18210	-0.00013	-0.00026	-0.00049	-0.00025	-0.00018	-0.00042	-0.00016	-0.00011	4
18211	-0.00013	-0.00026	-0.00049	-0.00025	-0.00018	-0.00042	-0.00016	-0.00011	4
18212	-0.00013	-0.00026	-0.00049	-0.00025	-0.00018	-0.00042	-0.00016	-0.00011	4
18213	-0.00013	-0.00026	-0.00049	-0.00025	-0.00018	-0.00042	-0.00016	-0.00011	4
18214	-0.00013	-0.00026	-0.00049	-0.00025	-0.00018	-0.00042	-0.00016	-0.00011	4
18215	-0.00013	-0.00026	-0.00049	-0.00025	-0.00018	-0.00042	-0.00016	-0.00011	4
18216	-0.00013	-0.00026	-0.00049	-0.00025	-0.00018	-0.00042	-0.00016	-0.00011	4
18217	-0.00013	-0.00026	-0.00049	-0.00025	-0.00018	-0.00042	-0.00016	-0.00011	4
18218	-0.00013	-0.00026	-0.00049	-0.00025	-0.00018	-0.00042	-0.00016	-0.00011	4
18219	-0.00013	-0.00026	-0.00049	-0.00025	-0.00018	-0.00042	-0.00016	-0.00011	4
18220	-0.00013	-0.00026	-0.00049	-0.00025	-0.00018	-0.00042	-0.00016	-0.00011	4
18221	-0.00013	-0.00026	-0.00049	-0.00025	-0.00018	-0.00042	-0.00016	-0.00011	4
18222	-0.00013	-0.00026	-0.00049	-0.00025	-0.00018	-0.00042	-0.00016	-0.00011	4
18223	-0.00013	-0.00026	-0.00049	-0.00025	-0.00018	-0.00042	-0.00016	-0.00011	4
18224	-0.00013	-0.00026	-0.00049	-0.00025	-0.00018	-0.00042	-0.00016	-0.00011	4
18225	0	-1e-05	1e-05	0.0001	-0.00041	-0.00037	-1e-05	-3e-05	4
18226	0	-1e-05	1e-05	0.0001	-0.00041	-0.00037	-1e-05	-3e-05	4
18227	0	-1e-05	1e-05	0.0001	-0.00041	-0.00037	-1e-05	-3e-05	4
18228	0	-1e-05	1e-05	0.0001	-0.00041	-0.00037	-1e-05	-3e-05	4
18229	0	-1e-05	1e-05	0.0001	-0.00041	-0.00037	-1e-05	-3e-05	4
18230	-5e-05	-0.00012	-0.00014	-0.0002	0.00061	-3e-05	4e-05	-7e-05	4
18231	-5e-05	-0.00012	-0.00014	-0.0002	0.00061	-3e-05	4e-05	-7e-05	4
18232	-5e-05	-0.00012	-0.00014	-0.0002	0.00061	-3e-05	4e-05	-7e-05	4
18233	-5e-05	-0.00012	-0.00014	-0.0002	0.00061	-3e-05	4e-05	-7e-05	4
18234	-5e-05	-0.00012	-0.00014	-0.0002	0.00061	-3e-05	4e-05	-7e-05	4
18235	-5e-05	-0.00012	-0.00014	-0.0002	0.00061	-3e-05	4e-05	-7e-05	4
18236	-5e-05	-0.00012	-0.00014	-0.0002	0.00061	-3e-05	4e-05	-7e-05	4
18239	-1e-05	-2e-05	-1e-05	-0.00042	-5e-05	0.00032	-1e-05	0	4
18241	-1e-05	-2e-05	-1e-05	-0.00042	-5e-05	0.00032	-1e-05	0	4
18242	-1e-05	-2e-05	-1e-05	-0.00042	-5e-05	0.00032	-1e-05	0	4
18243	-1e-05	-2e-05	-1e-05	-0.00042	-5e-05	0.00032	-1e-05	0	4
18244	-1e-05	-2e-05	-1e-05	-0.00042	-5e-05	0.00032	-1e-05	0	4
18245	-1e-05	-2e-05	-1e-05	-0.00042	-5e-05	0.00032	-1e-05	0	4
18246	-1e-05	-2e-05	-1e-05	-0.00042	-5e-05	0.00032	-1e-05	0	4
18247	-4e-05	-7e-05	-0.00012	-2e-05	7e-05	0.00014	-9e-05	-6e-05	4
18248	-4e-05	-7e-05	-0.00012	-2e-05	7e-05	0.00014	-9e-05	-6e-05	4
18249	-4e-05	-7e-05	-0.00012	-2e-05	7e-05	0.00014	-9e-05	-6e-05	4
18250	-4e-05	-7e-05	-0.00012	-2e-05	7e-05	0.00014	-9e-05	-6e-05	4
18251	-4e-05	-7e-05	-0.00012	-2e-05	7e-05	0.00014	-9e-05	-6e-05	4
18252	-4e-05	-7e-05	-0.00012	-2e-05	7e-05	0.00014	-9e-05	-6e-05	4
18253	-4e-05	-7e-05	-0.00012	-2e-05	7e-05	0.00014	-9e-05	-6e-05	4
18254	-4e-05	-7e-05	-0.00012	-2e-05	7e-05	0.00014	-9e-05	-6e-05	4
18255	-4e-05	-7e-05	-0.00012	-2e-05	7e-05	0.00014	-9e-05	-6e-05	4
18256	-4e-05	-7e-05	-0.00012	-2e-05	7e-05	0.00014	-9e-05	-6e-05	4
18257	-4e-05	-7e-05	-0.00012	-2e-05	7e-05	0.00014	-9e-05	-6e-05	4
18258	-4e-05	-7e-05	-0.00012	-2e-05	7e-05	0.00014	-9e-05	-6e-05	4
18259	-4e-05	-7e-05	-0.00012	-2e-05	7e-05	0.00014	-9e-05	-6e-05	4
18260	-4e-05	-7e-05	-0.00012	-2e-05	7e-05	0.00014	-9e-05	-6e-05	4
18261	-4e-05	-7e-05	-0.00012	-2e-05	7e-05	0.00014	-9e-05	-6e-05	4
18262	-4e-05	-7e-05	-0.00012	-2e-05	7e-05	0.00014	-9e-05	-6e-05	4
18263	-4e-05	-7e-05	-0.00012	-2e-05	7e-05	0.00014	-9e-05	-6e-05	4
18264	-4e-05	-7e-05	-0.00012	-2e-05	7e-05	0.00014	-9e-05	-6e-05	4
18265	-4e-05	-7e-05	-0.00012	-2e-05	7e-05	0.00014	-9e-05	-6e-05	4
18266	-4e-05	-7e-05	-0.00012	-2e-05	7e-05	0.00014	-9e-05	-6e-05	4
18267	-4e-05	-7e-05	-0.00012	-2e-05	7e-05	0.00014	-9e-05	-6e-05	4
18268	-4e-05	-7e-05	-0.00012	-2e-05	7e-05	0.00014	-9e-05	-6e-05	4
18269	-1e-05	-4e-05	-1e-05	0.00026	-0.00046	2e-05	-5e-05	0	4
18270	-6e-05	-6e-05	-0.00014	-0.00032	-0.00056	0.0001	-8e-05	-5e-05	4
18271	4e-05	0.00012	0.00024	0.00019	0.00013	-0.00055	-0.00011	-5e-05	4
18272	4e-05	0.00012	0.00024	0.00019	0.00013	-0.00055	-0.00011	-5e-05	4
18273	4e-05	0.00012	0.00024	0.00019	0.00013	-0.00055	-0.00011	-5e-05	4
18274	4e-05	0.00012	0.00024	0.00019	0.00013	-0.00055	-0.00011	-5e-05	4
18275	4e-05	0.00012	0.00024	0.00019	0.00013	-0.00055	-0.00011	-5e-05	4
18276	4e-05	0.00012	0.00024	0.00019	0.00013	-0.00055	-0.00011	-5e-05	4
18277	4e-05	0.00012	0.00024	0.00019	0.00013	-0.00055	-0.00011	-5e-05	4
18278	4e-05	0.00012	0.00024	0.00019	0.00013	-0.00055	-0.00011	-5e-05	4
18279	4e-05	0.00012	0.00024	0.00019	0.00013	-0.00055	-0.00011	-5e-05	4
18280	4e-05	0.00012	0.00024	0.00019	0.00013	-0.00055	-0.00011	-5e-05	4
18281	4e-05	0.00012	0.00024	0.00019	0.00013	-0.00055	-0.00011	-5e-05	4
18282	4e-05	0.00012	0.00024	0.00019	0.00013	-0.00055	-0.00011	-5e-05	4
18283	4e-05	0.00012	0.00024	0.00019	0.00013	-0.00055	-0.00011	-5e-05	4
18284	1e-05	2e-05	3e-05	0.00052	0.0005	0.00033	0.00013	6e-05	4
18285	-6e-05	-0.00012	-0.00019	-0.00018	-0.00014	-0.00039	-0.00013	-7e-05	4
18286	-6e-05	-0.00012	-0.00019	-0.00018	-0.00014	-0.00039	-0.00013	-7e-05	4
18289	1e-05	8e-05	7e-05	0.00038	0.00072	0.00075	8e-05	7e-05	4
18290	1e-05	8e-05	7e-05	0.00038	0.00072	0.00075	8e-05	7e-05	4
18291	1e-05	8e-05	7e-05	0.00038	0.00072	0.00075	8e-05	7e-05	4
18292	1e-05	8e-05	7e-05	0.00038	0.00072	0.00075	8e-05	7e-05	4
18293	1e-05	8e-05	7e-05	0.00038	0.00072	0.00075	8e-05	7e-05	4
18294	1e-05	8e-05	7e-05	0.00038	0.00072	0.00075	8e-05	7e-05	4
18295	1e-05	8e-05	7e-05	0.00038	0.00072	0.00075	8e-05	7e-05	4
18296	1e-05	8e-05	7e-05	0.00038	0.00072	0.00075	8e-05	7e-05	4
18297	1e-05	8e-05	7e-05	0.00038	0.00072	0.00075	8e-05	7e-05	4
18298	1e-05	8e-05	7e-05	0.00038	0.00072	0.00075	8e-05	7e-05	4
18299	1e-05	8e-05	7e-05	0.00038	0.00072	0.00075	8e-05	7e-05	4
18300	1e-05	8e-05	7e-05	0.00038	0.00072	0.00075	8e-05	7e-05	4
18301	1e-05	8e-05	7e-05	0.00038	0.00072	0.00075	8e-05	7e-05	4
18302	1e-05	8e-05	7e-05	0.00038	0.00072	0.00075	8e-05	7e-05	4
18303	1e-05	8e-05	7e-05	0.00038	0.00072	0.00075	8e-05	7e-05	4
18304	1e-05	8e-05	7e-05	0.00038	0.00072	0.00075	8e-05	7e-05	4
18305	1e-05	8e-05	7e-05	0.00038	0.00072	0.00075	8e-05	7e-05	4
18306	-4e-05	-9e-05	-0.00011	-0.0002	0.00016	0.00014	-0.00014	-6e-05	4
18307	-4e-05	-9e-05	-0.00011	-0.0002	0.00016	0.00014	-0.00014	-6e-05	4
18308	7e-05	0.00012	0.00024	0.0005	0.00018	0.00049	0.00012	8e-05	4
18309	7e-05	0.00012	0.00024	0.0005	0.00018	0.00049	0.00012	8e-05	4
18310	7e-05	0.00012	0.00024	0.0005	0.00018	0.00049	0.00012	8e-05	4
18311	7e-05	0.00012	0.00024	0.0005	0.00018	0.00049	0.00012	8e-05	4
18312	7e-05	0.00012	0.00024	0.0005	0.00018	0.00049	0.00012	8e-05	4
18313	7e-05	0.00012	0.00024	0.0005	0.00018	0.00049	0.00012	8e-05	4
18314	7e-05	0.00012	0.00024	0.0005	0.00018	0.00049	0.00012	8e-05	4
18315	7e-05	0.00012	0.00024	0.0005	0.00018	0.00049	0.00012	8e-05	4
18316	7e-05	0.00012	0.00024	0.0005	0.00018	0.00049	0.00012	8e-05	4
18317	7e-05	0.00012	0.00024	0.0005	0.00018	0.00049	0.00012	8e-05	4
18318	7e-05	0.00012	0.00024	0.0005	0.00018	0.00049	0.00012	8e-05	4
18319	7e-05	0.00012	0.00024	0.0005	0.00018	0.00049	0.00012	8e-05	4
18320	7e-05	0.00012	0.00024	0.0005	0.00018	0.00049	0.00012	8e-05	4
18321	-3e-05	-5e-05	-8e-05	-0.00012	0.00064	0.00015	4e-05	0	4
18322	-1e-05	1e-05	-4e-05	0.0003	3e-05	0.00029	0.00014	1e-05	4
18323	3e-05	2e-05	1e-05	0.00067	0.00062	0.00057	2e-05	1e-05	4
18324	3e-05	2e-05	1e-05	0.00067	0.00062	0.00057	2e-05	1e-05	4
18325	3e-05	2e-05	1e-05	0.00067	0.00062	0.00057	2e-05	1e-05	4
18326	3e-05	2e-05	1e-05	0.00067	0.00062	0.00057	2e-05	1e-05	4
18327	3e-05	2e-05	1e-05	0.00067	0.00062	0.00057	2e-05	1e-05	4
18328	3e-05	2e-05	1e-05	0.00067	0.00062	0.00057	2e-05	1e-05	4
18329	3e-05	2e-05	1e-05	0.00067	0.00062	0.00057	2e-05	1e-05	4
18330	3e-05	2e-05	1e-05	0.00067	0.00062	0.00057	2e-05	1e-05	4
18331	3e-05	2e-05	1e-05	0.00067	0.00062	0.00057	2e-05	1e-05	4
18332	3e-05	2e-05	1e-05	0.00067	0.00062	0.00057	2e-05	1e-05	4
18333	3e-05	2e-05	1e-05	0.00067	0.00062	0.00057	2e-05	1e-05	4
18334	3e-05	2e-05	1e-05	0.00067	0.00062	0.00057	2e-05	1e-05	4
18335	3e-05	2e-05	1e-05	0.00067	0.00062	0.00057	2e-05	1e-05	4
18336	3e-05	2e-05	1e-05	0.00067	0.00062	0.00057	2e-05	1e-05	4
18339	3e-05	2e-05	1e-05	0.00067	0.00062	0.00057	2e-05	1e-05	4
18340	3e-05	2e-05	1e-05	0.00067	0.00062	0.00057	2e-05	1e-05	4
18341	3e-05	2e-05	1e-05	0.00067	0.00062	0.00057	2e-05	1e-05	4
18342	3e-05	2e-05	1e-05	0.00067	0.00062	0.00057	2e-05	1e-05	4
18343	3e-05	2e-05	1e-05	0.00067	0.00062	0.00057	2e-05	1e-05	4
18344	-1e-05	1e-05	-1e-05	-8e-05	-0.0008	-0.00012	0	-2e-05	4
18345	1e-05	0	4e-05	7e-05	0.00035	0.00032	3e-05	-1e-05	4
18346	-7e-05	-7e-05	-0.0001	-0.00032	-0.00081	-0.00043	-0.00011	-8e-05	4
18347	-7e-05	-7e-05	-0.0001	-0.00032	-0.00081	-0.00043	-0.00011	-8e-05	4
18348	-7e-05	-7e-05	-0.0001	-0.00032	-0.00081	-0.00043	-0.00011	-8e-05	4
18349	-7e-05	-7e-05	-0.0001	-0.00032	-0.00081	-0.00043	-0.00011	-8e-05	4
18350	-7e-05	-7e-05	-0.0001	-0.00032	-0.00081	-0.00043	-0.00011	-8e-05	4
18351	-7e-05	-7e-05	-0.0001	-0.00032	-0.00081	-0.00043	-0.00011	-8e-05	4
18352	-7e-05	-7e-05	-0.0001	-0.00032	-0.00081	-0.00043	-0.00011	-8e-05	4
18353	-7e-05	-7e-05	-0.0001	-0.00032	-0.00081	-0.00043	-0.00011	-8e-05	4
18354	-7e-05	-7e-05	-0.0001	-0.00032	-0.00081	-0.00043	-0.00011	-8e-05	4
18355	-7e-05	-7e-05	-0.0001	-0.00032	-0.00081	-0.00043	-0.00011	-8e-05	4
18356	-7e-05	-7e-05	-0.0001	-0.00032	-0.00081	-0.00043	-0.00011	-8e-05	4
18357	-6e-05	-0.00013	-0.00018	-8e-05	0.00047	-0.00045	-9e-05	-9e-05	4
18358	8e-05	0.00013	0.00024	0.00045	0.00069	0.00055	0.00017	0.00012	4
18359	8e-05	0.00013	0.00024	0.00045	0.00069	0.00055	0.00017	0.00012	4
18360	8e-05	0.00013	0.00024	0.00045	0.00069	0.00055	0.00017	0.00012	4
18361	8e-05	0.00013	0.00024	0.00045	0.00069	0.00055	0.00017	0.00012	4
18362	8e-05	0.00013	0.00024	0.00045	0.00069	0.00055	0.00017	0.00012	4
18363	8e-05	0.00013	0.00024	0.00045	0.00069	0.00055	0.00017	0.00012	4
18364	8e-05	0.00013	0.00024	0.00045	0.00069	0.00055	0.00017	0.00012	4
18365	8e-05	0.00013	0.00024	0.00045	0.00069	0.00055	0.00017	0.00012	4
18366	8e-05	0.00013	0.00024	0.00045	0.00069	0.00055	0.00017	0.00012	4
18367	0	2e-05	5e-05	8e-05	0.00024	0.00016	1e-05	1e-05	4
18368	0	2e-05	5e-05	8e-05	0.00024	0.00016	1e-05	1e-05	4
18369	0	2e-05	5e-05	8e-05	0.00024	0.00016	1e-05	1e-05	4
18370	0	2e-05	5e-05	8e-05	0.00024	0.00016	1e-05	1e-05	4
18371	0	2e-05	5e-05	8e-05	0.00024	0.00016	1e-05	1e-05	4
18372	0	2e-05	5e-05	8e-05	0.00024	0.00016	1e-05	1e-05	4
18373	0	2e-05	5e-05	8e-05	0.00024	0.00016	1e-05	1e-05	4
18374	0	2e-05	5e-05	8e-05	0.00024	0.00016	1e-05	1e-05	4
18375	0	2e-05	5e-05	8e-05	0.00024	0.00016	1e-05	1e-05	4
18376	0	2e-05	5e-05	8e-05	0.00024	0.00016	1e-05	1e-05	4
18377	0	2e-05	5e-05	8e-05	0.00024	0.00016	1e-05	1e-05	4
18378	0	2e-05	5e-05	8e-05	0.00024	0.00016	1e-05	1e-05	4
18379	0	2e-05	5e-05	8e-05	0.00024	0.00016	1e-05	1e-05	4
18380	0	2e-05	5e-05	8e-05	0.00024	0.00016	1e-05	1e-05	4
18381	0	2e-05	5e-05	8e-05	0.00024	0.00016	1e-05	1e-05	4
18382	0	2e-05	5e-05	8e-05	0.00024	0.00016	1e-05	1e-05	4
18383	0	2e-05	5e-05	8e-05	0.00024	0.00016	1e-05	1e-05	4
18384	0	2e-05	5e-05	8e-05	0.00024	0.00016	1e-05	1e-05	4
18385	0	2e-05	5e-05	8e-05	0.00024	0.00016	1e-05	1e-05	4
18386	0	2e-05	5e-05	8e-05	0.00024	0.00016	1e-05	1e-05	4
18389	0	2e-05	5e-05	8e-05	0.00024	0.00016	1e-05	1e-05	4
18390	0	2e-05	5e-05	8e-05	0.00024	0.00016	1e-05	1e-05	4
18391	0	2e-05	5e-05	8e-05	0.00024	0.00016	1e-05	1e-05	4
18392	0	2e-05	5e-05	8e-05	0.00024	0.00016	1e-05	1e-05	4
18393	0	2e-05	5e-05	8e-05	0.00024	0.00016	1e-05	1e-05	4
18394	0	2e-05	5e-05	8e-05	0.00024	0.00016	1e-05	1e-05	4
18395	0	2e-05	5e-05	8e-05	0.00024	0.00016	1e-05	1e-05	4
18396	-4e-05	-5e-05	-7e-05	-6e-05	0.00048	-0.0001	-6e-05	-6e-05	4
18397	9e-05	0.00013	0.00019	0.00107	0.00037	-0.00013	0.00012	0.00011	4
18398	1e-05	4e-05	0.00014	-0.00032	-0.00029	-1e-05	-2e-05	-1e-05	4
18399	1e-05	4e-05	0.00014	-0.00032	-0.00029	-1e-05	-2e-05	-1e-05	4
18400	1e-05	4e-05	0.00014	-0.00032	-0.00029	-1e-05	-2e-05	-1e-05	4
18401	1e-05	4e-05	0.00014	-0.00032	-0.00029	-1e-05	-2e-05	-1e-05	4
18402	1e-05	4e-05	0.00014	-0.00032	-0.00029	-1e-05	-2e-05	-1e-05	4
18403	1e-05	4e-05	0.00014	-0.00032	-0.00029	-1e-05	-2e-05	-1e-05	4
18404	-7e-05	-0.00012	-0.00017	-0.00014	-0.00052	-8e-05	-0.00014	-9e-05	4
18405	0.00016	0.00027	0.00043	0.00043	0.00091	0.00012	0.00023	0.00016	4
18406	-4e-05	-1e-05	2e-05	7e-05	-5e-05	-0.00027	-4e-05	-1e-05	4
18407	-4e-05	-1e-05	2e-05	7e-05	-5e-05	-0.00027	-4e-05	-1e-05	4
18408	-4e-05	-1e-05	2e-05	7e-05	-5e-05	-0.00027	-4e-05	-1e-05	4
18409	-4e-05	-1e-05	2e-05	7e-05	-5e-05	-0.00027	-4e-05	-1e-05	4
18410	-4e-05	-1e-05	2e-05	7e-05	-5e-05	-0.00027	-4e-05	-1e-05	4
18411	-4e-05	-1e-05	2e-05	7e-05	-5e-05	-0.00027	-4e-05	-1e-05	4
18412	-4e-05	-1e-05	2e-05	7e-05	-5e-05	-0.00027	-4e-05	-1e-05	4
18413	-4e-05	-1e-05	2e-05	7e-05	-5e-05	-0.00027	-4e-05	-1e-05	4
18414	-4e-05	-1e-05	2e-05	7e-05	-5e-05	-0.00027	-4e-05	-1e-05	4
18415	-4e-05	-1e-05	2e-05	7e-05	-5e-05	-0.00027	-4e-05	-1e-05	4
18416	-4e-05	-1e-05	2e-05	7e-05	-5e-05	-0.00027	-4e-05	-1e-05	4
18417	-4e-05	-1e-05	2e-05	7e-05	-5e-05	-0.00027	-4e-05	-1e-05	4
18418	-4e-05	-1e-05	2e-05	7e-05	-5e-05	-0.00027	-4e-05	-1e-05	4
18419	-4e-05	-1e-05	2e-05	7e-05	-5e-05	-0.00027	-4e-05	-1e-05	4
18420	-4e-05	-1e-05	2e-05	7e-05	-5e-05	-0.00027	-4e-05	-1e-05	4
18421	-4e-05	-1e-05	2e-05	7e-05	-5e-05	-0.00027	-4e-05	-1e-05	4
18422	-4e-05	-1e-05	2e-05	7e-05	-5e-05	-0.00027	-4e-05	-1e-05	4
18423	-4e-05	-1e-05	2e-05	7e-05	-5e-05	-0.00027	-4e-05	-1e-05	4
18424	-4e-05	-1e-05	2e-05	7e-05	-5e-05	-0.00027	-4e-05	-1e-05	4
18425	-4e-05	-1e-05	2e-05	7e-05	-5e-05	-0.00027	-4e-05	-1e-05	4
18426	1e-05	1e-05	-1e-05	0.00011	-0.00045	-0.00014	-1e-05	0	4
18427	1e-05	1e-05	-1e-05	0.00011	-0.00045	-0.00014	-1e-05	0	4
18428	3e-05	2e-05	-5e-05	0.00035	-0.00026	-0.00036	0.0001	4e-05	4
18429	3e-05	2e-05	-5e-05	0.00035	-0.00026	-0.00036	0.0001	4e-05	4
18430	3e-05	2e-05	-5e-05	0.00035	-0.00026	-0.00036	0.0001	4e-05	4
18431	3e-05	2e-05	-5e-05	0.00035	-0.00026	-0.00036	0.0001	4e-05	4
18432	3e-05	2e-05	-5e-05	0.00035	-0.00026	-0.00036	0.0001	4e-05	4
18433	3e-05	2e-05	-5e-05	0.00035	-0.00026	-0.00036	0.0001	4e-05	4
18434	3e-05	2e-05	-5e-05	0.00035	-0.00026	-0.00036	0.0001	4e-05	4
18435	3e-05	2e-05	-5e-05	0.00035	-0.00026	-0.00036	0.0001	4e-05	4
18436	3e-05	2e-05	-5e-05	0.00035	-0.00026	-0.00036	0.0001	4e-05	4
18439	3e-05	2e-05	-5e-05	0.00035	-0.00026	-0.00036	0.0001	4e-05	4
18440	3e-05	2e-05	-5e-05	0.00035	-0.00026	-0.00036	0.0001	4e-05	4
18441	-3e-05	-5e-05	-0.00013	-0.00025	0.00032	-0.00016	-5e-05	-4e-05	4
18442	-3e-05	-5e-05	-0.00013	-0.00025	0.00032	-0.00016	-5e-05	-4e-05	4
18443	-1e-05	6e-05	0.00017	-9e-05	-0.00084	-0.0002	-5e-05	1e-05	4
18444	-1e-05	6e-05	0.00017	-9e-05	-0.00084	-0.0002	-5e-05	1e-05	4
18445	-1e-05	6e-05	0.00017	-9e-05	-0.00084	-0.0002	-5e-05	1e-05	4
18446	-1e-05	6e-05	0.00017	-9e-05	-0.00084	-0.0002	-5e-05	1e-05	4
18447	-1e-05	6e-05	0.00017	-9e-05	-0.00084	-0.0002	-5e-05	1e-05	4
18448	-1e-05	6e-05	0.00017	-9e-05	-0.00084	-0.0002	-5e-05	1e-05	4
18449	-1e-05	6e-05	0.00017	-9e-05	-0.00084	-0.0002	-5e-05	1e-05	4
18450	-1e-05	6e-05	0.00017	-9e-05	-0.00084	-0.0002	-5e-05	1e-05	4
18451	-1e-05	6e-05	0.00017	-9e-05	-0.00084	-0.0002	-5e-05	1e-05	4
18452	-1e-05	6e-05	0.00017	-9e-05	-0.00084	-0.0002	-5e-05	1e-05	4
18453	-1e-05	6e-05	0.00017	-9e-05	-0.00084	-0.0002	-5e-05	1e-05	4
18454	-1e-05	6e-05	0.00017	-9e-05	-0.00084	-0.0002	-5e-05	1e-05	4
18455	-1e-05	6e-05	0.00017	-9e-05	-0.00084	-0.0002	-5e-05	1e-05	4
18456	-1e-05	6e-05	0.00017	-9e-05	-0.00084	-0.0002	-5e-05	1e-05	4
18457	-1e-05	6e-05	0.00017	-9e-05	-0.00084	-0.0002	-5e-05	1e-05	4
18458	-1e-05	6e-05	0.00017	-9e-05	-0.00084	-0.0002	-5e-05	1e-05	4
18459	-1e-05	6e-05	0.00017	-9e-05	-0.00084	-0.0002	-5e-05	1e-05	4
18460	-1e-05	6e-05	0.00017	-9e-05	-0.00084	-0.0002	-5e-05	1e-05	4
18461	-1e-05	6e-05	0.00017	-9e-05	-0.00084	-0.0002	-5e-05	1e-05	4
18462	-1e-05	6e-05	0.00017	-9e-05	-0.00084	-0.0002	-5e-05	1e-05	4
18463	-1e-05	6e-05	0.00017	-9e-05	-0.00084	-0.0002	-5e-05	1e-05	4
18464	0	5e-05	0.00017	-0.00023	-4e-05	-0.0002	1e-05	1e-05	4
18465	0	5e-05	0.00017	-0.00023	-4e-05	-0.0002	1e-05	1e-05	4
18466	-0.00012	-0.00021	-0.00033	-8e-05	-0.00091	-0.0003	-0.00011	-7e-05	4
18467	-3e-05	-0.0001	-0.00019	-0.00032	-0.00058	-0.00019	-7e-05	-4e-05	4
18468	-3e-05	-0.0001	-0.00019	-0.00032	-0.00058	-0.00019	-7e-05	-4e-05	4
18469	-3e-05	-0.0001	-0.00019	-0.00032	-0.00058	-0.00019	-7e-05	-4e-05	4
18470	-3e-05	-0.0001	-0.00019	-0.00032	-0.00058	-0.00019	-7e-05	-4e-05	4
18471	-3e-05	-0.0001	-0.00019	-0.00032	-0.00058	-0.00019	-7e-05	-4e-05	4
18472	-3e-05	-0.0001	-0.00019	-0.00032	-0.00058	-0.00019	-7e-05	-4e-05	4
18473	-3e-05	-0.0001	-0.00019	-0.00032	-0.00058	-0.00019	-7e-05	-4e-05	4
18474	-3e-05	-0.0001	-0.00019	-0.00032	-0.00058	-0.00019	-7e-05	-4e-05	4
18475	-3e-05	-0.0001	-0.00019	-0.00032	-0.00058	-0.00019	-7e-05	-4e-05	4
18476	-3e-05	-0.0001	-0.00019	-0.00032	-0.00058	-0.00019	-7e-05	-4e-05	4
18477	2e-05	5e-05	9e-05	0.00031	0.00091	4e-05	1e-05	2e-05	4
18478	1e-05	5e-05	9e-05	0.00026	-0.001	0.00038	-3e-05	-2e-05	4
18479	1e-05	5e-05	9e-05	0.00026	-0.001	0.00038	-3e-05	-2e-05	4
18480	1e-05	5e-05	9e-05	0.00026	-0.001	0.00038	-3e-05	-2e-05	4
18481	1e-05	5e-05	9e-05	0.00026	-0.001	0.00038	-3e-05	-2e-05	4
18482	1e-05	5e-05	9e-05	0.00026	-0.001	0.00038	-3e-05	-2e-05	4
18483	1e-05	5e-05	9e-05	0.00026	-0.001	0.00038	-3e-05	-2e-05	4
18484	1e-05	5e-05	9e-05	0.00026	-0.001	0.00038	-3e-05	-2e-05	4
18485	1e-05	5e-05	9e-05	0.00026	-0.001	0.00038	-3e-05	-2e-05	4
18486	1e-05	5e-05	9e-05	0.00026	-0.001	0.00038	-3e-05	-2e-05	4
18488	-2e-05	-3e-05	-1e-05	0.00012	-0.00067	-3e-05	-4e-05	-1e-05	4
18489	-2e-05	-3e-05	-1e-05	0.00012	-0.00067	-3e-05	-4e-05	-1e-05	4
18490	-2e-05	-3e-05	-1e-05	0.00012	-0.00067	-3e-05	-4e-05	-1e-05	4
18491	-2e-05	-3e-05	-1e-05	0.00012	-0.00067	-3e-05	-4e-05	-1e-05	4
18492	-2e-05	-3e-05	-1e-05	0.00012	-0.00067	-3e-05	-4e-05	-1e-05	4
18493	-2e-05	-3e-05	-1e-05	0.00012	-0.00067	-3e-05	-4e-05	-1e-05	4
18494	-2e-05	-3e-05	-1e-05	0.00012	-0.00067	-3e-05	-4e-05	-1e-05	4
18495	-2e-05	-3e-05	-1e-05	0.00012	-0.00067	-3e-05	-4e-05	-1e-05	4
18496	-2e-05	-3e-05	-1e-05	0.00012	-0.00067	-3e-05	-4e-05	-1e-05	4
18497	-2e-05	-3e-05	-1e-05	0.00012	-0.00067	-3e-05	-4e-05	-1e-05	4
18498	-2e-05	-3e-05	-1e-05	0.00012	-0.00067	-3e-05	-4e-05	-1e-05	4
18499	-2e-05	-3e-05	-1e-05	0.00012	-0.00067	-3e-05	-4e-05	-1e-05	4
18500	-2e-05	-3e-05	-1e-05	0.00012	-0.00067	-3e-05	-4e-05	-1e-05	4
18501	-2e-05	-3e-05	-1e-05	0.00012	-0.00067	-3e-05	-4e-05	-1e-05	4
18502	-5e-05	-0.0001	-0.00035	-1e-05	-0.00012	0.00011	-2e-05	-4e-05	4
18503	-5e-05	-0.0001	-0.00035	-1e-05	-0.00012	0.00011	-2e-05	-4e-05	4
18504	7e-05	0.00015	0.00019	-0.00022	-0.00019	0.00045	7e-05	8e-05	4
18505	7e-05	0.00015	0.00019	-0.00022	-0.00019	0.00045	7e-05	8e-05	4
18506	7e-05	0.00015	0.00019	-0.00022	-0.00019	0.00045	7e-05	8e-05	4
18507	7e-05	0.00015	0.00019	-0.00022	-0.00019	0.00045	7e-05	8e-05	4
18508	7e-05	0.00015	0.00019	-0.00022	-0.00019	0.00045	7e-05	8e-05	4
18509	7e-05	0.00015	0.00019	-0.00022	-0.00019	0.00045	7e-05	8e-05	4
18510	7e-05	0.00015	0.00019	-0.00022	-0.00019	0.00045	7e-05	8e-05	4
18511	7e-05	0.00015	0.00019	-0.00022	-0.00019	0.00045	7e-05	8e-05	4
18512	7e-05	0.00015	0.00019	-0.00022	-0.00019	0.00045	7e-05	8e-05	4
18513	7e-05	0.00015	0.00019	-0.00022	-0.00019	0.00045	7e-05	8e-05	4
18514	7e-05	0.00015	0.00019	-0.00022	-0.00019	0.00045	7e-05	8e-05	4
18515	7e-05	0.00015	0.00019	-0.00022	-0.00019	0.00045	7e-05	8e-05	4
18516	7e-05	0.00015	0.00019	-0.00022	-0.00019	0.00045	7e-05	8e-05	4
18517	7e-05	0.00015	0.00019	-0.00022	-0.00019	0.00045	7e-05	8e-05	4
18518	7e-05	0.00015	0.00019	-0.00022	-0.00019	0.00045	7e-05	8e-05	4
18520	7e-05	0.00015	0.00019	-0.00022	-0.00019	0.00045	7e-05	8e-05	4
18521	7e-05	0.00015	0.00019	-0.00022	-0.00019	0.00045	7e-05	8e-05	4
18522	7e-05	0.00015	0.00019	-0.00022	-0.00019	0.00045	7e-05	8e-05	4
18523	7e-05	0.00015	0.00019	-0.00022	-0.00019	0.00045	7e-05	8e-05	4
18524	-6e-05	-4e-05	-3e-05	-0.00039	-0.00029	-0.00045	-8e-05	-3e-05	4
18525	-2e-05	-5e-05	-0.00011	-0.0002	-0.00086	-0.00035	2e-05	-3e-05	4
18527	-2e-05	-5e-05	-0.00011	-0.0002	-0.00086	-0.00035	2e-05	-3e-05	4
18528	-2e-05	-5e-05	-0.00011	-0.0002	-0.00086	-0.00035	2e-05	-3e-05	4
18529	-2e-05	-5e-05	-0.00011	-0.0002	-0.00086	-0.00035	2e-05	-3e-05	4
18530	-2e-05	-5e-05	-0.00011	-0.0002	-0.00086	-0.00035	2e-05	-3e-05	4
18531	-2e-05	-5e-05	-0.00011	-0.0002	-0.00086	-0.00035	2e-05	-3e-05	4
18532	-2e-05	-5e-05	-0.00011	-0.0002	-0.00086	-0.00035	2e-05	-3e-05	4
18533	-2e-05	-5e-05	-0.00011	-0.0002	-0.00086	-0.00035	2e-05	-3e-05	4
18534	-2e-05	-5e-05	-0.00011	-0.0002	-0.00086	-0.00035	2e-05	-3e-05	4
18535	-2e-05	-5e-05	-0.00011	-0.0002	-0.00086	-0.00035	2e-05	-3e-05	4
18536	-2e-05	-5e-05	-0.00011	-0.0002	-0.00086	-0.00035	2e-05	-3e-05	4
18538	-2e-05	-5e-05	-0.00011	-0.0002	-0.00086	-0.00035	2e-05	-3e-05	4
18539	-2e-05	-5e-05	-0.00011	-0.0002	-0.00086	-0.00035	2e-05	-3e-05	4
18540	-2e-05	-5e-05	-0.00011	-0.0002	-0.00086	-0.00035	2e-05	-3e-05	4
18541	-2e-05	-5e-05	-0.00011	-0.0002	-0.00086	-0.00035	2e-05	-3e-05	4
18542	-2e-05	-5e-05	-0.00011	-0.0002	-0.00086	-0.00035	2e-05	-3e-05	4
18543	-2e-05	-5e-05	-0.00011	-0.0002	-0.00086	-0.00035	2e-05	-3e-05	4
18544	-2e-05	-5e-05	-0.00011	-0.0002	-0.00086	-0.00035	2e-05	-3e-05	4
18545	-2e-05	-5e-05	-0.00011	-0.0002	-0.00086	-0.00035	2e-05	-3e-05	4
18546	-1e-05	-1e-05	-1e-05	-0.00042	-0.00018	-0.00031	-8e-05	-2e-05	4
18547	-2e-05	-5e-05	-5e-05	1e-05	0.00061	0.00045	0.00019	5e-05	4
18548	-2e-05	-1e-05	-4e-05	-6e-05	-0.0001	1e-05	-8e-05	-4e-05	4
18549	-2e-05	-1e-05	-4e-05	-6e-05	-0.0001	1e-05	-8e-05	-4e-05	4
18550	-2e-05	-1e-05	-4e-05	-6e-05	-0.0001	1e-05	-8e-05	-4e-05	4
18551	-2e-05	-1e-05	-4e-05	-6e-05	-0.0001	1e-05	-8e-05	-4e-05	4
18552	-2e-05	-1e-05	-4e-05	-6e-05	-0.0001	1e-05	-8e-05	-4e-05	4
18553	-2e-05	-1e-05	-4e-05	-6e-05	-0.0001	1e-05	-8e-05	-4e-05	4
18554	-2e-05	-1e-05	-4e-05	-6e-05	-0.0001	1e-05	-8e-05	-4e-05	4
18555	-2e-05	-1e-05	-4e-05	-6e-05	-0.0001	1e-05	-8e-05	-4e-05	4
18556	-2e-05	-1e-05	-4e-05	-6e-05	-0.0001	1e-05	-8e-05	-4e-05	4
18557	-2e-05	-1e-05	-4e-05	-6e-05	-0.0001	1e-05	-8e-05	-4e-05	4
18558	-2e-05	-1e-05	-4e-05	-6e-05	-0.0001	1e-05	-8e-05	-4e-05	4
18559	-2e-05	-1e-05	-4e-05	-6e-05	-0.0001	1e-05	-8e-05	-4e-05	4
18560	-2e-05	-1e-05	-4e-05	-6e-05	-0.0001	1e-05	-8e-05	-4e-05	4
18561	3e-05	5e-05	0.00011	-0.00031	1e-05	0.00021	6e-05	3e-05	4
18562	3e-05	5e-05	0.00011	-0.00031	1e-05	0.00021	6e-05	3e-05	4
18563	5e-05	4e-05	5e-05	0.00071	0.00083	0.00041	0.00019	5e-05	4
18564	5e-05	4e-05	5e-05	0.00071	0.00083	0.00041	0.00019	5e-05	4
18565	5e-05	4e-05	5e-05	0.00071	0.00083	0.00041	0.00019	5e-05	4
18566	5e-05	4e-05	5e-05	0.00071	0.00083	0.00041	0.00019	5e-05	4
18567	5e-05	4e-05	5e-05	0.00071	0.00083	0.00041	0.00019	5e-05	4
18568	5e-05	4e-05	5e-05	0.00071	0.00083	0.00041	0.00019	5e-05	4
18569	5e-05	4e-05	5e-05	0.00071	0.00083	0.00041	0.00019	5e-05	4
18570	5e-05	4e-05	5e-05	0.00071	0.00083	0.00041	0.00019	5e-05	4
18571	5e-05	4e-05	5e-05	0.00071	0.00083	0.00041	0.00019	5e-05	4
18572	5e-05	4e-05	5e-05	0.00071	0.00083	0.00041	0.00019	5e-05	4
18573	5e-05	4e-05	5e-05	0.00071	0.00083	0.00041	0.00019	5e-05	4
18574	5e-05	4e-05	5e-05	0.00071	0.00083	0.00041	0.00019	5e-05	4
18575	5e-05	4e-05	5e-05	0.00071	0.00083	0.00041	0.00019	5e-05	4
18576	5e-05	4e-05	5e-05	0.00071	0.00083	0.00041	0.00019	5e-05	4
18577	5e-05	4e-05	5e-05	0.00071	0.00083	0.00041	0.00019	5e-05	4
18578	5e-05	4e-05	5e-05	0.00071	0.00083	0.00041	0.00019	5e-05	4
18579	5e-05	4e-05	5e-05	0.00071	0.00083	0.00041	0.00019	5e-05	4
18580	5e-05	4e-05	5e-05	0.00071	0.00083	0.00041	0.00019	5e-05	4
18581	5e-05	4e-05	5e-05	0.00071	0.00083	0.00041	0.00019	5e-05	4
18582	5e-05	4e-05	5e-05	0.00071	0.00083	0.00041	0.00019	5e-05	4
18583	5e-05	4e-05	5e-05	0.00071	0.00083	0.00041	0.00019	5e-05	4
18584	-2e-05	-3e-05	-1e-05	9e-05	0.00061	0.00013	7e-05	1e-05	4
18585	2e-05	5e-05	0.00019	-0.00025	0	0.00012	-3e-05	2e-05	4
18586	-8e-05	-0.00014	-0.00026	-0.00074	-3e-05	9e-05	-0.00013	-0.0001	4
18588	-8e-05	-0.00014	-0.00026	-0.00074	-3e-05	9e-05	-0.00013	-0.0001	4
18589	-8e-05	-0.00014	-0.00026	-0.00074	-3e-05	9e-05	-0.00013	-0.0001	4
18590	-8e-05	-0.00014	-0.00026	-0.00074	-3e-05	9e-05	-0.00013	-0.0001	4
18591	-8e-05	-0.00014	-0.00026	-0.00074	-3e-05	9e-05	-0.00013	-0.0001	4
18592	-8e-05	-0.00014	-0.00026	-0.00074	-3e-05	9e-05	-0.00013	-0.0001	4
18593	-8e-05	-0.00014	-0.00026	-0.00074	-3e-05	9e-05	-0.00013	-0.0001	4
18594	-8e-05	-0.00014	-0.00026	-0.00074	-3e-05	9e-05	-0.00013	-0.0001	4
18595	-8e-05	-0.00014	-0.00026	-0.00074	-3e-05	9e-05	-0.00013	-0.0001	4
18596	-8e-05	-0.00014	-0.00026	-0.00074	-3e-05	9e-05	-0.00013	-0.0001	4
18597	-8e-05	-0.00014	-0.00026	-0.00074	-3e-05	9e-05	-0.00013	-0.0001	4
18598	-8e-05	-0.00014	-0.00026	-0.00074	-3e-05	9e-05	-0.00013	-0.0001	4
18599	-8e-05	-0.00014	-0.00026	-0.00074	-3e-05	9e-05	-0.00013	-0.0001	4
18600	-8e-05	-0.00014	-0.00026	-0.00074	-3e-05	9e-05	-0.00013	-0.0001	4
18601	-8e-05	-0.00014	-0.00026	-0.00074	-3e-05	9e-05	-0.00013	-0.0001	4
18602	-8e-05	-0.00014	-0.00026	-0.00074	-3e-05	9e-05	-0.00013	-0.0001	4
18603	-8e-05	-0.00014	-0.00026	-0.00074	-3e-05	9e-05	-0.00013	-0.0001	4
18604	-8e-05	-0.00014	-0.00026	-0.00074	-3e-05	9e-05	-0.00013	-0.0001	4
18605	-8e-05	-0.00014	-0.00026	-0.00074	-3e-05	9e-05	-0.00013	-0.0001	4
18606	-1e-05	0	3e-05	0	-0.00054	1e-05	-5e-05	-3e-05	4
18607	-1e-05	0	3e-05	0	-0.00054	1e-05	-5e-05	-3e-05	4
18608	-4e-05	-5e-05	-6e-05	-0.00012	6e-05	-0.00037	-5e-05	-5e-05	4
18609	-4e-05	-5e-05	-6e-05	-0.00012	6e-05	-0.00037	-5e-05	-5e-05	4
18610	-4e-05	-5e-05	-6e-05	-0.00012	6e-05	-0.00037	-5e-05	-5e-05	4
18611	-4e-05	-5e-05	-6e-05	-0.00012	6e-05	-0.00037	-5e-05	-5e-05	4
18612	-4e-05	-5e-05	-6e-05	-0.00012	6e-05	-0.00037	-5e-05	-5e-05	4
18613	-4e-05	-5e-05	-6e-05	-0.00012	6e-05	-0.00037	-5e-05	-5e-05	4
18614	-4e-05	-5e-05	-6e-05	-0.00012	6e-05	-0.00037	-5e-05	-5e-05	4
18615	-4e-05	-5e-05	-6e-05	-0.00012	6e-05	-0.00037	-5e-05	-5e-05	4
18616	-4e-05	-5e-05	-6e-05	-0.00012	6e-05	-0.00037	-5e-05	-5e-05	4
18617	-4e-05	-5e-05	-6e-05	-0.00012	6e-05	-0.00037	-5e-05	-5e-05	4
18618	-4e-05	-5e-05	-6e-05	-0.00012	6e-05	-0.00037	-5e-05	-5e-05	4
18619	-4e-05	-5e-05	-6e-05	-0.00012	6e-05	-0.00037	-5e-05	-5e-05	4
18620	-4e-05	-5e-05	-6e-05	-0.00012	6e-05	-0.00037	-5e-05	-5e-05	4
18621	-4e-05	-5e-05	-6e-05	-0.00012	6e-05	-0.00037	-5e-05	-5e-05	4
18622	1e-05	-2e-05	-2e-05	8e-05	0.00063	0.0005	6e-05	0	4
18623	-1e-05	-2e-05	-2e-05	-0.00025	-0.00108	-0.00037	-0.00011	-1e-05	4
18624	1e-05	-3e-05	-0.00011	0.00036	0.00107	0.00032	7e-05	2e-05	4
18625	1e-05	-3e-05	-0.00011	0.00036	0.00107	0.00032	7e-05	2e-05	4
18626	1e-05	-3e-05	-0.00011	0.00036	0.00107	0.00032	7e-05	2e-05	4
18627	1e-05	-3e-05	-0.00011	0.00036	0.00107	0.00032	7e-05	2e-05	4
18628	1e-05	-3e-05	-0.00011	0.00036	0.00107	0.00032	7e-05	2e-05	4
18629	1e-05	-3e-05	-0.00011	0.00036	0.00107	0.00032	7e-05	2e-05	4
18630	1e-05	-3e-05	-0.00011	0.00036	0.00107	0.00032	7e-05	2e-05	4
18631	1e-05	-3e-05	-0.00011	0.00036	0.00107	0.00032	7e-05	2e-05	4
18632	1e-05	-3e-05	-0.00011	0.00036	0.00107	0.00032	7e-05	2e-05	4
18633	1e-05	-3e-05	-0.00011	0.00036	0.00107	0.00032	7e-05	2e-05	4
18634	1e-05	-3e-05	-0.00011	0.00036	0.00107	0.00032	7e-05	2e-05	4
18635	1e-05	-3e-05	-0.00011	0.00036	0.00107	0.00032	7e-05	2e-05	4
18636	1e-05	-3e-05	-0.00011	0.00036	0.00107	0.00032	7e-05	2e-05	4
18638	1e-05	-3e-05	-0.00011	0.00036	0.00107	0.00032	7e-05	2e-05	4
18639	1e-05	-3e-05	-0.00011	0.00036	0.00107	0.00032	7e-05	2e-05	4
18640	1e-05	-3e-05	-0.00011	0.00036	0.00107	0.00032	7e-05	2e-05	4
18641	1e-05	-3e-05	-0.00011	0.00036	0.00107	0.00032	7e-05	2e-05	4
18642	1e-05	-3e-05	-0.00011	0.00036	0.00107	0.00032	7e-05	2e-05	4
18643	1e-05	-3e-05	-0.00011	0.00036	0.00107	0.00032	7e-05	2e-05	4
18644	-6e-05	-7e-05	-0.00015	-0.00013	-0.00037	-9e-05	-6e-05	-3e-05	4
18645	-2e-05	5e-05	4e-05	-9e-05	-0.00066	0.0003	-7e-05	-3e-05	4
18646	-7e-05	-0.0001	-5e-05	-0.00063	-0.00085	-0.00048	-0.00014	-7e-05	4
18647	-7e-05	-0.0001	-5e-05	-0.00063	-0.00085	-0.00048	-0.00014	-7e-05	4
18648	-7e-05	-0.0001	-5e-05	-0.00063	-0.00085	-0.00048	-0.00014	-7e-05	4
18649	-7e-05	-0.0001	-5e-05	-0.00063	-0.00085	-0.00048	-0.00014	-7e-05	4
18650	-7e-05	-0.0001	-5e-05	-0.00063	-0.00085	-0.00048	-0.00014	-7e-05	4
18651	-7e-05	-0.0001	-5e-05	-0.00063	-0.00085	-0.00048	-0.00014	-7e-05	4
18652	-7e-05	-0.0001	-5e-05	-0.00063	-0.00085	-0.00048	-0.00014	-7e-05	4
18653	-7e-05	-0.0001	-5e-05	-0.00063	-0.00085	-0.00048	-0.00014	-7e-05	4
18654	-7e-05	-0.0001	-5e-05	-0.00063	-0.00085	-0.00048	-0.00014	-7e-05	4
18655	-7e-05	-0.0001	-5e-05	-0.00063	-0.00085	-0.00048	-0.00014	-7e-05	4
18656	-7e-05	-0.0001	-5e-05	-0.00063	-0.00085	-0.00048	-0.00014	-7e-05	4
18657	-7e-05	-0.0001	-5e-05	-0.00063	-0.00085	-0.00048	-0.00014	-7e-05	4
18658	-7e-05	-0.0001	-5e-05	-0.00063	-0.00085	-0.00048	-0.00014	-7e-05	4
18659	-7e-05	-0.0001	-5e-05	-0.00063	-0.00085	-0.00048	-0.00014	-7e-05	4
18661	-7e-05	-0.0001	-5e-05	-0.00063	-0.00085	-0.00048	-0.00014	-7e-05	4
18662	-7e-05	-0.0001	-5e-05	-0.00063	-0.00085	-0.00048	-0.00014	-7e-05	4
18663	-7e-05	-0.0001	-5e-05	-0.00063	-0.00085	-0.00048	-0.00014	-7e-05	4
18664	-7e-05	-0.0001	-5e-05	-0.00063	-0.00085	-0.00048	-0.00014	-7e-05	4
18665	-7e-05	-0.00011	-0.0001	0.00041	0.00083	5e-05	-7e-05	-6e-05	4
18666	-1e-05	0	-1e-05	-0.00019	2e-05	-0.00043	-8e-05	0	4
18667	-1e-05	0	-1e-05	-0.00019	2e-05	-0.00043	-8e-05	0	4
18668	-1e-05	0	-1e-05	-0.00019	2e-05	-0.00043	-8e-05	0	4
18669	-1e-05	0	-1e-05	-0.00019	2e-05	-0.00043	-8e-05	0	4
18670	-1e-05	0	-1e-05	-0.00019	2e-05	-0.00043	-8e-05	0	4
18671	-1e-05	0	-1e-05	-0.00019	2e-05	-0.00043	-8e-05	0	4
18672	-1e-05	0	-1e-05	-0.00019	2e-05	-0.00043	-8e-05	0	4
18673	-1e-05	0	-1e-05	-0.00019	2e-05	-0.00043	-8e-05	0	4
18674	-3e-05	0	-0.0001	-6e-05	-0.00107	-0.00038	-6e-05	-1e-05	4
18675	-3e-05	0	-0.0001	-6e-05	-0.00107	-0.00038	-6e-05	-1e-05	4
18676	-3e-05	0	-0.0001	-6e-05	-0.00107	-0.00038	-6e-05	-1e-05	4
18677	-3e-05	0	-0.0001	-6e-05	-0.00107	-0.00038	-6e-05	-1e-05	4
18678	-3e-05	0	-0.0001	-6e-05	-0.00107	-0.00038	-6e-05	-1e-05	4
18679	-3e-05	0	-0.0001	-6e-05	-0.00107	-0.00038	-6e-05	-1e-05	4
18680	-3e-05	0	-0.0001	-6e-05	-0.00107	-0.00038	-6e-05	-1e-05	4
18681	8e-05	0.00017	0.00031	-0.00022	0.00048	0.00066	0.00021	8e-05	4
18682	-6e-05	-6e-05	-0.00011	0.00089	-8e-05	-0.00021	-0.00014	-9e-05	4
18683	9e-05	0.00014	0.00025	0.00082	0.00094	0.00031	0.00017	8e-05	4
18684	9e-05	0.00014	0.00025	0.00082	0.00094	0.00031	0.00017	8e-05	4
18685	9e-05	0.00014	0.00025	0.00082	0.00094	0.00031	0.00017	8e-05	4
48519	0.00013	0.00018	0.00014	0.00014	-0.00025	3e-05	0.00027	0.0002	4
48520	0.00013	0.00018	0.00014	0.00014	-0.00025	3e-05	0.00027	0.0002	4
48521	0.00013	0.00018	0.00014	0.00014	-0.00025	3e-05	0.00027	0.0002	4
48523	0.00013	0.00018	0.00014	0.00014	-0.00025	3e-05	0.00027	0.0002	4
48524	0.00013	0.00018	0.00014	0.00014	-0.00025	3e-05	0.00027	0.0002	4
48525	-7e-05	-0.00019	-0.00029	-0.00021	0.00064	0.0001	-0.00015	-0.00022	4
48526	-7e-05	-0.00019	-0.00029	-0.00021	0.00064	0.0001	-0.00015	-0.00022	4
48527	-2e-05	-8e-05	5e-05	0.00034	0.00073	0.00066	0.00023	-3e-05	4
48528	-2e-05	-8e-05	5e-05	0.00034	0.00073	0.00066	0.00023	-3e-05	4
48529	-2e-05	-8e-05	5e-05	0.00034	0.00073	0.00066	0.00023	-3e-05	4
48530	-2e-05	-8e-05	5e-05	0.00034	0.00073	0.00066	0.00023	-3e-05	4
48531	-2e-05	-8e-05	5e-05	0.00034	0.00073	0.00066	0.00023	-3e-05	4
48532	-2e-05	-8e-05	5e-05	0.00034	0.00073	0.00066	0.00023	-3e-05	4
48533	-2e-05	-8e-05	5e-05	0.00034	0.00073	0.00066	0.00023	-3e-05	4
48534	-2e-05	-8e-05	5e-05	0.00034	0.00073	0.00066	0.00023	-3e-05	4
48535	-2e-05	-8e-05	5e-05	0.00034	0.00073	0.00066	0.00023	-3e-05	4
48536	-2e-05	-8e-05	5e-05	0.00034	0.00073	0.00066	0.00023	-3e-05	4
48539	-6e-05	-3e-05	-0.00023	0.00049	0.00065	0.00073	0.00019	-0.0001	4
48540	-6e-05	-3e-05	-0.00023	0.00049	0.00065	0.00073	0.00019	-0.0001	4
48541	-6e-05	-3e-05	-0.00023	0.00049	0.00065	0.00073	0.00019	-0.0001	4
48542	-6e-05	-3e-05	-0.00023	0.00049	0.00065	0.00073	0.00019	-0.0001	4
48543	-6e-05	-3e-05	-0.00023	0.00049	0.00065	0.00073	0.00019	-0.0001	4
48544	-6e-05	-3e-05	-0.00023	0.00049	0.00065	0.00073	0.00019	-0.0001	4
48545	-6e-05	-3e-05	-0.00023	0.00049	0.00065	0.00073	0.00019	-0.0001	4
48546	-6e-05	-3e-05	-0.00023	0.00049	0.00065	0.00073	0.00019	-0.0001	4
48547	-6e-05	-3e-05	-0.00023	0.00049	0.00065	0.00073	0.00019	-0.0001	4
48548	-6e-05	-3e-05	-0.00023	0.00049	0.00065	0.00073	0.00019	-0.0001	4
48549	-6e-05	-3e-05	-0.00023	0.00049	0.00065	0.00073	0.00019	-0.0001	4
48550	-6e-05	-3e-05	-0.00023	0.00049	0.00065	0.00073	0.00019	-0.0001	4
48551	-6e-05	-3e-05	-0.00023	0.00049	0.00065	0.00073	0.00019	-0.0001	4
48552	-6e-05	-3e-05	-0.00023	0.00049	0.00065	0.00073	0.00019	-0.0001	4
48553	-6e-05	-3e-05	-0.00023	0.00049	0.00065	0.00073	0.00019	-0.0001	4
48554	-6e-05	-3e-05	-0.00023	0.00049	0.00065	0.00073	0.00019	-0.0001	4
48555	-6e-05	-3e-05	-0.00023	0.00049	0.00065	0.00073	0.00019	-0.0001	4
48556	-6e-05	-3e-05	-0.00023	0.00049	0.00065	0.00073	0.00019	-0.0001	4
48557	-6e-05	-3e-05	-0.00023	0.00049	0.00065	0.00073	0.00019	-0.0001	4
48558	-6e-05	-3e-05	-0.00023	0.00049	0.00065	0.00073	0.00019	-0.0001	4
48559	-6e-05	-3e-05	-0.00023	0.00049	0.00065	0.00073	0.00019	-0.0001	4
48560	-6e-05	-3e-05	-0.00023	0.00049	0.00065	0.00073	0.00019	-0.0001	4
48561	-6e-05	-3e-05	-0.00023	0.00049	0.00065	0.00073	0.00019	-0.0001	4
48562	-6e-05	-3e-05	-0.00023	0.00049	0.00065	0.00073	0.00019	-0.0001	4
48563	-6e-05	-3e-05	-0.00023	0.00049	0.00065	0.00073	0.00019	-0.0001	4
48564	-0.00012	-0.00012	-0.00013	-0.00043	3e-05	0.00027	-0.00013	-0.00024	4
48565	-7e-05	-0.0001	-8e-05	-0.00034	-0.00077	-0.00048	-0.00014	4e-05	4
48566	-7e-05	-0.0001	-8e-05	-0.00034	-0.00077	-0.00048	-0.00014	4e-05	4
48567	-7e-05	-0.0001	-8e-05	-0.00034	-0.00077	-0.00048	-0.00014	4e-05	4
48568	8e-05	0.00011	5e-05	0.00065	0.00039	0.00064	0.00044	0.00014	4
48569	8e-05	0.00011	5e-05	0.00065	0.00039	0.00064	0.00044	0.00014	4
48570	8e-05	0.00011	5e-05	0.00065	0.00039	0.00064	0.00044	0.00014	4
48571	8e-05	0.00011	5e-05	0.00065	0.00039	0.00064	0.00044	0.00014	4
48572	8e-05	0.00011	5e-05	0.00065	0.00039	0.00064	0.00044	0.00014	4
48573	8e-05	0.00011	5e-05	0.00065	0.00039	0.00064	0.00044	0.00014	4
48574	8e-05	0.00011	5e-05	0.00065	0.00039	0.00064	0.00044	0.00014	4
48575	8e-05	0.00011	5e-05	0.00065	0.00039	0.00064	0.00044	0.00014	4
48576	8e-05	0.00011	5e-05	0.00065	0.00039	0.00064	0.00044	0.00014	4
48577	8e-05	0.00011	5e-05	0.00065	0.00039	0.00064	0.00044	0.00014	4
48578	8e-05	0.00011	5e-05	0.00065	0.00039	0.00064	0.00044	0.00014	4
48579	8e-05	0.00011	5e-05	0.00065	0.00039	0.00064	0.00044	0.00014	4
48580	8e-05	0.00011	5e-05	0.00065	0.00039	0.00064	0.00044	0.00014	4
48581	8e-05	0.00011	5e-05	0.00065	0.00039	0.00064	0.00044	0.00014	4
48582	8e-05	0.00011	5e-05	0.00065	0.00039	0.00064	0.00044	0.00014	4
48583	8e-05	0.00011	5e-05	0.00065	0.00039	0.00064	0.00044	0.00014	4
48584	8e-05	0.00011	5e-05	0.00065	0.00039	0.00064	0.00044	0.00014	4
48585	8e-05	0.00011	5e-05	0.00065	0.00039	0.00064	0.00044	0.00014	4
48586	8e-05	0.00011	5e-05	0.00065	0.00039	0.00064	0.00044	0.00014	4
48589	8e-05	0.00011	5e-05	0.00065	0.00039	0.00064	0.00044	0.00014	4
48590	8e-05	0.00011	5e-05	0.00065	0.00039	0.00064	0.00044	0.00014	4
48591	8e-05	0.00011	5e-05	0.00065	0.00039	0.00064	0.00044	0.00014	4
48592	8e-05	0.00011	5e-05	0.00065	0.00039	0.00064	0.00044	0.00014	4
48593	8e-05	0.00011	5e-05	0.00065	0.00039	0.00064	0.00044	0.00014	4
48594	8e-05	0.00011	5e-05	0.00065	0.00039	0.00064	0.00044	0.00014	4
48595	8e-05	0.00011	5e-05	0.00065	0.00039	0.00064	0.00044	0.00014	4
48596	8e-05	0.00011	5e-05	0.00065	0.00039	0.00064	0.00044	0.00014	4
48597	8e-05	0.00011	5e-05	0.00065	0.00039	0.00064	0.00044	0.00014	4
48598	8e-05	0.00011	5e-05	0.00065	0.00039	0.00064	0.00044	0.00014	4
48599	8e-05	0.00011	5e-05	0.00065	0.00039	0.00064	0.00044	0.00014	4
