20490	-0.00029	-0.00017	0.00015	0.00068	0.00087	0.00032	3e-05	-7e-05	5
20491	-0.00029	-0.00025	-5e-05	-0.00011	-0.00024	-0.00022	-6e-05	-6e-05	5
20492	-0.00013	-0.0001	0.00015	0.0001	-1e-05	0	2e-05	2e-05	5
20493	-0.00013	-0.0001	0.00015	0.0001	-1e-05	0	2e-05	2e-05	5
20494	-0.00013	-0.0001	0.00015	0.0001	-1e-05	0	2e-05	2e-05	5
20495	-0.00013	-0.0001	0.00015	0.0001	-1e-05	0	2e-05	2e-05	5
20496	-0.00013	-0.0001	0.00015	0.0001	-1e-05	0	2e-05	2e-05	5
20497	-0.00013	-0.0001	0.00015	0.0001	-1e-05	0	2e-05	2e-05	5
20498	-0.00013	-0.0001	0.00015	0.0001	-1e-05	0	2e-05	2e-05	5
20499	-0.00013	-0.0001	0.00015	0.0001	-1e-05	0	2e-05	2e-05	5
20500	-0.00013	-0.0001	0.00015	0.0001	-1e-05	0	2e-05	2e-05	5
20501	-0.00013	-0.0001	0.00015	0.0001	-1e-05	0	2e-05	2e-05	5
20502	-0.00013	-0.0001	0.00015	0.0001	-1e-05	0	2e-05	2e-05	5
20503	-0.00013	-0.0001	0.00015	0.0001	-1e-05	0	2e-05	2e-05	5
20504	-1e-05	0.00055	0.00022	0.00027	0.00076	0.00011	-2e-05	2e-05	5
20505	-1e-05	0.00055	0.00022	0.00027	0.00076	0.00011	-2e-05	2e-05	5
20506	-1e-05	0.00055	0.00022	0.00027	0.00076	0.00011	-2e-05	2e-05	5
20507	-1e-05	0.00055	0.00022	0.00027	0.00076	0.00011	-2e-05	2e-05	5
20508	-1e-05	0.00055	0.00022	0.00027	0.00076	0.00011	-2e-05	2e-05	5
20509	-1e-05	0.00055	0.00022	0.00027	0.00076	0.00011	-2e-05	2e-05	5
20510	-1e-05	0.00055	0.00022	0.00027	0.00076	0.00011	-2e-05	2e-05	5
20511	-1e-05	0.00055	0.00022	0.00027	0.00076	0.00011	-2e-05	2e-05	5
20512	-1e-05	0.00055	0.00022	0.00027	0.00076	0.00011	-2e-05	2e-05	5
20513	-0.00025	-0.00042	-0.00032	-0.00059	-0.0001	-0.00021	-5e-05	-4e-05	5
20514	-0.00025	-0.00042	-0.00032	-0.00059	-0.0001	-0.00021	-5e-05	-4e-05	5
20516	-0.00025	-0.00042	-0.00032	-0.00059	-0.0001	-0.00021	-5e-05	-4e-05	5
20517	-0.00025	-0.00042	-0.00032	-0.00059	-0.0001	-0.00021	-5e-05	-4e-05	5
20518	-0.00025	-0.00042	-0.00032	-0.00059	-0.0001	-0.00021	-5e-05	-4e-05	5
20519	-0.00025	-0.00042	-0.00032	-0.00059	-0.0001	-0.00021	-5e-05	-4e-05	5
20520	-0.00025	-0.00042	-0.00032	-0.00059	-0.0001	-0.00021	-5e-05	-4e-05	5
20521	-0.00025	-0.00042	-0.00032	-0.00059	-0.0001	-0.00021	-5e-05	-4e-05	5
20522	-0.00025	-0.00042	-0.00032	-0.00059	-0.0001	-0.00021	-5e-05	-4e-05	5
20523	-0.00025	-0.00042	-0.00032	-0.00059	-0.0001	-0.00021	-5e-05	-4e-05	5
20524	-0.00025	-0.00042	-0.00032	-0.00059	-0.0001	-0.00021	-5e-05	-4e-05	5
20525	-0.00025	-0.00042	-0.00032	-0.00059	-0.0001	-0.00021	-5e-05	-4e-05	5
20526	-0.00025	-0.00042	-0.00032	-0.00059	-0.0001	-0.00021	-5e-05	-4e-05	5
20527	-0.00025	-0.00042	-0.00032	-0.00059	-0.0001	-0.00021	-5e-05	-4e-05	5
20528	-0.0003	-0.00019	-6e-05	-0.00038	-0.00092	-0.00033	-0.00013	-0.0001	5
20529	-0.00014	-0.00024	-0.00018	-0.001	-0.00102	-0.00035	-0.00015	-5e-05	5
20530	-0.00014	-0.00024	-0.00018	-0.001	-0.00102	-0.00035	-0.00015	-5e-05	5
20531	-0.00014	-0.00024	-0.00018	-0.001	-0.00102	-0.00035	-0.00015	-5e-05	5
20532	-0.00014	-0.00024	-0.00018	-0.001	-0.00102	-0.00035	-0.00015	-5e-05	5
20533	-0.00014	-0.00024	-0.00018	-0.001	-0.00102	-0.00035	-0.00015	-5e-05	5
20534	-0.00014	-0.00024	-0.00018	-0.001	-0.00102	-0.00035	-0.00015	-5e-05	5
20535	-0.00014	-0.00024	-0.00018	-0.001	-0.00102	-0.00035	-0.00015	-5e-05	5
20536	-0.00014	-0.00024	-0.00018	-0.001	-0.00102	-0.00035	-0.00015	-5e-05	5
20537	-0.00014	-0.00024	-0.00018	-0.001	-0.00102	-0.00035	-0.00015	-5e-05	5
20539	-0.00014	-0.00024	-0.00018	-0.001	-0.00102	-0.00035	-0.00015	-5e-05	5
20540	-0.00014	-0.00024	-0.00018	-0.001	-0.00102	-0.00035	-0.00015	-5e-05	5
20541	-0.00014	-0.00024	-0.00018	-0.001	-0.00102	-0.00035	-0.00015	-5e-05	5
20542	-0.00014	-0.00024	-0.00018	-0.001	-0.00102	-0.00035	-0.00015	-5e-05	5
20543	-0.00014	-0.00024	-0.00018	-0.001	-0.00102	-0.00035	-0.00015	-5e-05	5
20544	-0.00014	-0.00024	-0.00018	-0.001	-0.00102	-0.00035	-0.00015	-5e-05	5
20545	-0.00014	-0.00024	-0.00018	-0.001	-0.00102	-0.00035	-0.00015	-5e-05	5
20546	-0.00014	-0.00024	-0.00018	-0.001	-0.00102	-0.00035	-0.00015	-5e-05	5
20547	-0.00014	-0.00024	-0.00018	-0.001	-0.00102	-0.00035	-0.00015	-5e-05	5
20548	-0.00014	-0.00024	-0.00018	-0.001	-0.00102	-0.00035	-0.00015	-5e-05	5
20549	-0.00014	-0.00024	-0.00018	-0.001	-0.00102	-0.00035	-0.00015	-5e-05	5
20550	-0.00066	-0.00034	-0.00011	-0.00022	-0.00054	-0.00018	-4e-05	-2e-05	5
20551	-0.00066	-0.00034	-0.00011	-0.00022	-0.00054	-0.00018	-4e-05	-2e-05	5
20552	-0.00012	-4e-05	9e-05	0.00091	-0.00026	9e-05	9e-05	0	5
20553	-0.00012	-4e-05	9e-05	0.00091	-0.00026	9e-05	9e-05	0	5
20554	-0.00012	-4e-05	9e-05	0.00091	-0.00026	9e-05	9e-05	0	5
20555	-0.00012	-4e-05	9e-05	0.00091	-0.00026	9e-05	9e-05	0	5
20556	-0.00012	-4e-05	9e-05	0.00091	-0.00026	9e-05	9e-05	0	5
20557	-0.00012	-4e-05	9e-05	0.00091	-0.00026	9e-05	9e-05	0	5
20558	-0.00012	-4e-05	9e-05	0.00091	-0.00026	9e-05	9e-05	0	5
20559	-0.00012	-4e-05	9e-05	0.00091	-0.00026	9e-05	9e-05	0	5
20560	-0.00012	-4e-05	9e-05	0.00091	-0.00026	9e-05	9e-05	0	5
20561	-0.00012	-4e-05	9e-05	0.00091	-0.00026	9e-05	9e-05	0	5
20562	-0.00012	-4e-05	9e-05	0.00091	-0.00026	9e-05	9e-05	0	5
20565	1e-05	6e-05	2e-05	-6e-05	-0.00039	-0.00014	-0.0001	0	5
20566	1e-05	6e-05	2e-05	-6e-05	-0.00039	-0.00014	-0.0001	0	5
20567	1e-05	6e-05	2e-05	-6e-05	-0.00039	-0.00014	-0.0001	0	5
20568	1e-05	6e-05	2e-05	-6e-05	-0.00039	-0.00014	-0.0001	0	5
20569	1e-05	6e-05	2e-05	-6e-05	-0.00039	-0.00014	-0.0001	0	5
20570	1e-05	6e-05	2e-05	-6e-05	-0.00039	-0.00014	-0.0001	0	5
20571	1e-05	6e-05	2e-05	-6e-05	-0.00039	-0.00014	-0.0001	0	5
20572	1e-05	6e-05	2e-05	-6e-05	-0.00039	-0.00014	-0.0001	0	5
20573	-6e-05	-5e-05	9e-05	0.00044	0.00057	0.00012	-3e-05	0.00012	5
20574	-6e-05	-5e-05	9e-05	0.00044	0.00057	0.00012	-3e-05	0.00012	5
20575	-6e-05	-5e-05	9e-05	0.00044	0.00057	0.00012	-3e-05	0.00012	5
20576	-6e-05	-5e-05	9e-05	0.00044	0.00057	0.00012	-3e-05	0.00012	5
20577	-6e-05	-5e-05	9e-05	0.00044	0.00057	0.00012	-3e-05	0.00012	5
20578	-6e-05	-5e-05	9e-05	0.00044	0.00057	0.00012	-3e-05	0.00012	5
20579	-6e-05	-5e-05	9e-05	0.00044	0.00057	0.00012	-3e-05	0.00012	5
20580	-6e-05	-5e-05	9e-05	0.00044	0.00057	0.00012	-3e-05	0.00012	5
20581	-6e-05	-5e-05	9e-05	0.00044	0.00057	0.00012	-3e-05	0.00012	5
20582	-6e-05	-5e-05	9e-05	0.00044	0.00057	0.00012	-3e-05	0.00012	5
20583	-6e-05	-5e-05	9e-05	0.00044	0.00057	0.00012	-3e-05	0.00012	5
20584	-6e-05	-5e-05	9e-05	0.00044	0.00057	0.00012	-3e-05	0.00012	5
20585	-6e-05	-5e-05	9e-05	0.00044	0.00057	0.00012	-3e-05	0.00012	5
20586	-6e-05	-5e-05	9e-05	0.00044	0.00057	0.00012	-3e-05	0.00012	5
20587	-6e-05	-5e-05	9e-05	0.00044	0.00057	0.00012	-3e-05	0.00012	5
20588	6e-05	-2e-05	0.00024	0.00058	0.00123	0.00045	0.00016	4e-05	5
20589	6e-05	-2e-05	0.00024	0.00058	0.00123	0.00045	0.00016	4e-05	5
20590	0.00029	-0.00066	-2e-05	-0.00053	-0.00044	-0.0001	2e-05	4e-05	5
20591	0.00029	-0.00066	-2e-05	-0.00053	-0.00044	-0.0001	2e-05	4e-05	5
20592	0.00029	-0.00066	-2e-05	-0.00053	-0.00044	-0.0001	2e-05	4e-05	5
20593	0.00029	-0.00066	-2e-05	-0.00053	-0.00044	-0.0001	2e-05	4e-05	5
20594	0.00029	-0.00066	-2e-05	-0.00053	-0.00044	-0.0001	2e-05	4e-05	5
20595	0.00029	-0.00066	-2e-05	-0.00053	-0.00044	-0.0001	2e-05	4e-05	5
20596	0.00029	-0.00066	-2e-05	-0.00053	-0.00044	-0.0001	2e-05	4e-05	5
20597	0.00029	-0.00066	-2e-05	-0.00053	-0.00044	-0.0001	2e-05	4e-05	5
20598	0.00029	-0.00066	-2e-05	-0.00053	-0.00044	-0.0001	2e-05	4e-05	5
20599	0.00029	-0.00066	-2e-05	-0.00053	-0.00044	-0.0001	2e-05	4e-05	5
20600	0.00029	-0.00066	-2e-05	-0.00053	-0.00044	-0.0001	2e-05	4e-05	5
20601	0.00029	-0.00066	-2e-05	-0.00053	-0.00044	-0.0001	2e-05	4e-05	5
20602	0.00029	-0.00066	-2e-05	-0.00053	-0.00044	-0.0001	2e-05	4e-05	5
20603	0.00029	-0.00066	-2e-05	-0.00053	-0.00044	-0.0001	2e-05	4e-05	5
20604	0.00029	-0.00066	-2e-05	-0.00053	-0.00044	-0.0001	2e-05	4e-05	5
20605	0.00029	-0.00066	-2e-05	-0.00053	-0.00044	-0.0001	2e-05	4e-05	5
20606	0.00029	-0.00066	-2e-05	-0.00053	-0.00044	-0.0001	2e-05	4e-05	5
20607	0.00029	-0.00066	-2e-05	-0.00053	-0.00044	-0.0001	2e-05	4e-05	5
20608	0.00029	-0.00066	-2e-05	-0.00053	-0.00044	-0.0001	2e-05	4e-05	5
20610	0.00015	-3e-05	-0.00021	-0.0006	-0.00024	-9e-05	-6e-05	-2e-05	5
20611	0.00015	-3e-05	-0.00021	-0.0006	-0.00024	-9e-05	-6e-05	-2e-05	5
20612	-0.00034	-0.00057	0	0.00035	5e-05	-7e-05	-3e-05	-8e-05	5
20613	-0.00034	-0.00057	0	0.00035	5e-05	-7e-05	-3e-05	-8e-05	5
20614	-0.00034	-0.00057	0	0.00035	5e-05	-7e-05	-3e-05	-8e-05	5
20615	-0.00034	-0.00057	0	0.00035	5e-05	-7e-05	-3e-05	-8e-05	5
20616	-0.00034	-0.00057	0	0.00035	5e-05	-7e-05	-3e-05	-8e-05	5
20617	-0.00034	-0.00057	0	0.00035	5e-05	-7e-05	-3e-05	-8e-05	5
20618	-0.00034	-0.00057	0	0.00035	5e-05	-7e-05	-3e-05	-8e-05	5
20619	-0.00034	-0.00057	0	0.00035	5e-05	-7e-05	-3e-05	-8e-05	5
20620	-0.00034	-0.00057	0	0.00035	5e-05	-7e-05	-3e-05	-8e-05	5
20621	-0.00034	-0.00057	0	0.00035	5e-05	-7e-05	-3e-05	-8e-05	5
20622	-0.00034	-0.00057	0	0.00035	5e-05	-7e-05	-3e-05	-8e-05	5
20623	-0.00034	-0.00057	0	0.00035	5e-05	-7e-05	-3e-05	-8e-05	5
20624	-0.00019	-0.00027	-0.00015	0.00032	0.00101	0.00039	0.00012	-4e-05	5
20625	-0.00019	-0.00027	-0.00015	0.00032	0.00101	0.00039	0.00012	-4e-05	5
20626	-0.00019	-0.00027	-0.00015	0.00032	0.00101	0.00039	0.00012	-4e-05	5
20627	-0.00019	-0.00027	-0.00015	0.00032	0.00101	0.00039	0.00012	-4e-05	5
20628	-0.00019	-0.00027	-0.00015	0.00032	0.00101	0.00039	0.00012	-4e-05	5
20629	-0.00019	-0.00027	-0.00015	0.00032	0.00101	0.00039	0.00012	-4e-05	5
20630	-0.00019	-0.00027	-0.00015	0.00032	0.00101	0.00039	0.00012	-4e-05	5
20631	-0.00019	-0.00027	-0.00015	0.00032	0.00101	0.00039	0.00012	-4e-05	5
20632	-0.00019	-0.00027	-0.00015	0.00032	0.00101	0.00039	0.00012	-4e-05	5
20633	-0.00016	2e-05	-3e-05	0.0001	-8e-05	4e-05	4e-05	1e-05	5
20634	-0.00016	2e-05	-3e-05	0.0001	-8e-05	4e-05	4e-05	1e-05	5
20635	-0.00016	2e-05	-3e-05	0.0001	-8e-05	4e-05	4e-05	1e-05	5
20636	-0.00016	2e-05	-3e-05	0.0001	-8e-05	4e-05	4e-05	1e-05	5
20637	-0.00016	2e-05	-3e-05	0.0001	-8e-05	4e-05	4e-05	1e-05	5
20638	-0.00016	2e-05	-3e-05	0.0001	-8e-05	4e-05	4e-05	1e-05	5
20639	-0.00016	2e-05	-3e-05	0.0001	-8e-05	4e-05	4e-05	1e-05	5
20640	-0.00016	2e-05	-3e-05	0.0001	-8e-05	4e-05	4e-05	1e-05	5
20641	-0.00016	2e-05	-3e-05	0.0001	-8e-05	4e-05	4e-05	1e-05	5
20642	-0.00016	2e-05	-3e-05	0.0001	-8e-05	4e-05	4e-05	1e-05	5
20643	-0.00016	2e-05	-3e-05	0.0001	-8e-05	4e-05	4e-05	1e-05	5
20644	-0.00016	2e-05	-3e-05	0.0001	-8e-05	4e-05	4e-05	1e-05	5
20645	-0.00016	2e-05	-3e-05	0.0001	-8e-05	4e-05	4e-05	1e-05	5
20646	-0.00016	2e-05	-3e-05	0.0001	-8e-05	4e-05	4e-05	1e-05	5
20647	-0.00016	2e-05	-3e-05	0.0001	-8e-05	4e-05	4e-05	1e-05	5
20648	0.00022	0.00049	8e-05	8e-05	0.00037	-6e-05	-1e-05	3e-05	5
20649	0.00029	0.00071	0.00018	0.00017	0.00025	0.00017	0.00021	9e-05	5
20650	0.00029	0.00071	0.00018	0.00017	0.00025	0.00017	0.00021	9e-05	5
20651	0.00029	0.00071	0.00018	0.00017	0.00025	0.00017	0.00021	9e-05	5
20652	0.00029	0.00071	0.00018	0.00017	0.00025	0.00017	0.00021	9e-05	5
20653	0.00029	0.00071	0.00018	0.00017	0.00025	0.00017	0.00021	9e-05	5
20654	0.00029	0.00071	0.00018	0.00017	0.00025	0.00017	0.00021	9e-05	5
20655	0.00029	0.00071	0.00018	0.00017	0.00025	0.00017	0.00021	9e-05	5
20657	0.00029	0.00071	0.00018	0.00017	0.00025	0.00017	0.00021	9e-05	5
20658	0.00029	0.00071	0.00018	0.00017	0.00025	0.00017	0.00021	9e-05	5
20659	0.00029	0.00071	0.00018	0.00017	0.00025	0.00017	0.00021	9e-05	5
20660	0.00029	0.00071	0.00018	0.00017	0.00025	0.00017	0.00021	9e-05	5
20661	0.00029	0.00071	0.00018	0.00017	0.00025	0.00017	0.00021	9e-05	5
20662	0.00029	0.00071	0.00018	0.00017	0.00025	0.00017	0.00021	9e-05	5
20663	0.00029	0.00071	0.00018	0.00017	0.00025	0.00017	0.00021	9e-05	5
20664	0.00029	0.00071	0.00018	0.00017	0.00025	0.00017	0.00021	9e-05	5
20665	0.00029	0.00071	0.00018	0.00017	0.00025	0.00017	0.00021	9e-05	5
20666	0.00029	0.00071	0.00018	0.00017	0.00025	0.00017	0.00021	9e-05	5
20667	0.00029	0.00071	0.00018	0.00017	0.00025	0.00017	0.00021	9e-05	5
20668	0.00029	0.00071	0.00018	0.00017	0.00025	0.00017	0.00021	9e-05	5
20669	0.00029	0.00071	0.00018	0.00017	0.00025	0.00017	0.00021	9e-05	5
20670	5e-05	-3e-05	-0.00025	0.00108	0.00035	-3e-05	0	2e-05	5
20671	5e-05	-3e-05	-0.00025	0.00108	0.00035	-3e-05	0	2e-05	5
20672	0.00011	0.00029	-4e-05	-0.00067	-0.00076	-0.00025	-0.00011	-3e-05	5
20673	0.00011	0.00029	-4e-05	-0.00067	-0.00076	-0.00025	-0.00011	-3e-05	5
20674	0.00011	0.00029	-4e-05	-0.00067	-0.00076	-0.00025	-0.00011	-3e-05	5
20675	0.00011	0.00029	-4e-05	-0.00067	-0.00076	-0.00025	-0.00011	-3e-05	5
20676	0.00011	0.00029	-4e-05	-0.00067	-0.00076	-0.00025	-0.00011	-3e-05	5
20677	0.00011	0.00029	-4e-05	-0.00067	-0.00076	-0.00025	-0.00011	-3e-05	5
20678	0.00011	0.00029	-4e-05	-0.00067	-0.00076	-0.00025	-0.00011	-3e-05	5
20679	0.00011	0.00029	-4e-05	-0.00067	-0.00076	-0.00025	-0.00011	-3e-05	5
20680	0.00011	0.00029	-4e-05	-0.00067	-0.00076	-0.00025	-0.00011	-3e-05	5
20681	0.00011	0.00029	-4e-05	-0.00067	-0.00076	-0.00025	-0.00011	-3e-05	5
20682	0.00011	0.00029	-4e-05	-0.00067	-0.00076	-0.00025	-0.00011	-3e-05	5
20683	0.00011	0.00029	-4e-05	-0.00067	-0.00076	-0.00025	-0.00011	-3e-05	5
20684	0.00011	5e-05	-0.00015	-0.00086	-0.00014	-1e-05	-3e-05	-2e-05	5
20685	0.00011	5e-05	-0.00015	-0.00086	-0.00014	-1e-05	-3e-05	-2e-05	5
20686	0.00011	5e-05	-0.00015	-0.00086	-0.00014	-1e-05	-3e-05	-2e-05	5
20687	0.00011	5e-05	-0.00015	-0.00086	-0.00014	-1e-05	-3e-05	-2e-05	5
20688	0.00011	5e-05	-0.00015	-0.00086	-0.00014	-1e-05	-3e-05	-2e-05	5
20689	0.00011	5e-05	-0.00015	-0.00086	-0.00014	-1e-05	-3e-05	-2e-05	5
20690	0.00011	5e-05	-0.00015	-0.00086	-0.00014	-1e-05	-3e-05	-2e-05	5
20691	0.00011	5e-05	-0.00015	-0.00086	-0.00014	-1e-05	-3e-05	-2e-05	5
20692	0.00011	5e-05	-0.00015	-0.00086	-0.00014	-1e-05	-3e-05	-2e-05	5
20693	-2e-05	9e-05	1e-05	0.00014	0.00072	4e-05	-5e-05	-4e-05	5
20694	-2e-05	9e-05	1e-05	0.00014	0.00072	4e-05	-5e-05	-4e-05	5
20695	-2e-05	9e-05	1e-05	0.00014	0.00072	4e-05	-5e-05	-4e-05	5
20696	-2e-05	9e-05	1e-05	0.00014	0.00072	4e-05	-5e-05	-4e-05	5
20697	-2e-05	9e-05	1e-05	0.00014	0.00072	4e-05	-5e-05	-4e-05	5
20698	-2e-05	9e-05	1e-05	0.00014	0.00072	4e-05	-5e-05	-4e-05	5
20699	-2e-05	9e-05	1e-05	0.00014	0.00072	4e-05	-5e-05	-4e-05	5
20700	-2e-05	9e-05	1e-05	0.00014	0.00072	4e-05	-5e-05	-4e-05	5
20701	-2e-05	9e-05	1e-05	0.00014	0.00072	4e-05	-5e-05	-4e-05	5
20703	-2e-05	9e-05	1e-05	0.00014	0.00072	4e-05	-5e-05	-4e-05	5
20704	-2e-05	9e-05	1e-05	0.00014	0.00072	4e-05	-5e-05	-4e-05	5
20705	-2e-05	9e-05	1e-05	0.00014	0.00072	4e-05	-5e-05	-4e-05	5
20706	-2e-05	9e-05	1e-05	0.00014	0.00072	4e-05	-5e-05	-4e-05	5
20707	-2e-05	9e-05	1e-05	0.00014	0.00072	4e-05	-5e-05	-4e-05	5
20708	0.00021	0.00021	7e-05	-0.00017	-0.00024	0.00014	1e-05	2e-05	5
20709	6e-05	9e-05	-5e-05	0.00063	0.00023	2e-05	-8e-05	0	5
20710	6e-05	9e-05	-5e-05	0.00063	0.00023	2e-05	-8e-05	0	5
20711	6e-05	9e-05	-5e-05	0.00063	0.00023	2e-05	-8e-05	0	5
20712	6e-05	9e-05	-5e-05	0.00063	0.00023	2e-05	-8e-05	0	5
20713	6e-05	9e-05	-5e-05	0.00063	0.00023	2e-05	-8e-05	0	5
20714	6e-05	9e-05	-5e-05	0.00063	0.00023	2e-05	-8e-05	0	5
20715	6e-05	9e-05	-5e-05	0.00063	0.00023	2e-05	-8e-05	0	5
20716	6e-05	9e-05	-5e-05	0.00063	0.00023	2e-05	-8e-05	0	5
20717	6e-05	9e-05	-5e-05	0.00063	0.00023	2e-05	-8e-05	0	5
20718	6e-05	9e-05	-5e-05	0.00063	0.00023	2e-05	-8e-05	0	5
20719	6e-05	9e-05	-5e-05	0.00063	0.00023	2e-05	-8e-05	0	5
20720	6e-05	9e-05	-5e-05	0.00063	0.00023	2e-05	-8e-05	0	5
20721	6e-05	9e-05	-5e-05	0.00063	0.00023	2e-05	-8e-05	0	5
20722	6e-05	9e-05	-5e-05	0.00063	0.00023	2e-05	-8e-05	0	5
20723	6e-05	9e-05	-5e-05	0.00063	0.00023	2e-05	-8e-05	0	5
20724	6e-05	9e-05	-5e-05	0.00063	0.00023	2e-05	-8e-05	0	5
20725	6e-05	9e-05	-5e-05	0.00063	0.00023	2e-05	-8e-05	0	5
20726	6e-05	9e-05	-5e-05	0.00063	0.00023	2e-05	-8e-05	0	5
20727	6e-05	9e-05	-5e-05	0.00063	0.00023	2e-05	-8e-05	0	5
20728	6e-05	9e-05	-5e-05	0.00063	0.00023	2e-05	-8e-05	0	5
20729	6e-05	9e-05	-5e-05	0.00063	0.00023	2e-05	-8e-05	0	5
20730	0.00015	0.00021	0	-0.00045	-0.00083	-0.00028	-7e-05	-2e-05	5
20731	0.00015	0.00021	0	-0.00045	-0.00083	-0.00028	-7e-05	-2e-05	5
20732	0	0.0002	0.0002	0.00038	-0.00028	0.0001	4e-05	1e-05	5
20733	0	0.0002	0.0002	0.00038	-0.00028	0.0001	4e-05	1e-05	5
20734	0	0.0002	0.0002	0.00038	-0.00028	0.0001	4e-05	1e-05	5
20735	0	0.0002	0.0002	0.00038	-0.00028	0.0001	4e-05	1e-05	5
20736	0	0.0002	0.0002	0.00038	-0.00028	0.0001	4e-05	1e-05	5
20737	0	0.0002	0.0002	0.00038	-0.00028	0.0001	4e-05	1e-05	5
20738	0	0.0002	0.0002	0.00038	-0.00028	0.0001	4e-05	1e-05	5
20739	0	0.0002	0.0002	0.00038	-0.00028	0.0001	4e-05	1e-05	5
20740	0	0.0002	0.0002	0.00038	-0.00028	0.0001	4e-05	1e-05	5
20741	0	0.0002	0.0002	0.00038	-0.00028	0.0001	4e-05	1e-05	5
20742	0	0.0002	0.0002	0.00038	-0.00028	0.0001	4e-05	1e-05	5
20743	0	0.0002	0.0002	0.00038	-0.00028	0.0001	4e-05	1e-05	5
20744	-0.00035	-0.00063	-2e-05	6e-05	-0.00049	-5e-05	2e-05	-4e-05	5
20745	-0.00035	-0.00063	-2e-05	6e-05	-0.00049	-5e-05	2e-05	-4e-05	5
20746	-0.00035	-0.00063	-2e-05	6e-05	-0.00049	-5e-05	2e-05	-4e-05	5
20747	-0.00035	-0.00063	-2e-05	6e-05	-0.00049	-5e-05	2e-05	-4e-05	5
20748	-0.00035	-0.00063	-2e-05	6e-05	-0.00049	-5e-05	2e-05	-4e-05	5
20750	-0.00035	-0.00063	-2e-05	6e-05	-0.00049	-5e-05	2e-05	-4e-05	5
20751	-0.00035	-0.00063	-2e-05	6e-05	-0.00049	-5e-05	2e-05	-4e-05	5
20752	-0.00035	-0.00063	-2e-05	6e-05	-0.00049	-5e-05	2e-05	-4e-05	5
20753	6e-05	0.00016	-5e-05	-0.00011	0.0004	0.00018	-3e-05	-3e-05	5
20754	6e-05	0.00016	-5e-05	-0.00011	0.0004	0.00018	-3e-05	-3e-05	5
20755	6e-05	0.00016	-5e-05	-0.00011	0.0004	0.00018	-3e-05	-3e-05	5
20756	6e-05	0.00016	-5e-05	-0.00011	0.0004	0.00018	-3e-05	-3e-05	5
20757	6e-05	0.00016	-5e-05	-0.00011	0.0004	0.00018	-3e-05	-3e-05	5
20758	6e-05	0.00016	-5e-05	-0.00011	0.0004	0.00018	-3e-05	-3e-05	5
20759	6e-05	0.00016	-5e-05	-0.00011	0.0004	0.00018	-3e-05	-3e-05	5
20760	6e-05	0.00016	-5e-05	-0.00011	0.0004	0.00018	-3e-05	-3e-05	5
20761	6e-05	0.00016	-5e-05	-0.00011	0.0004	0.00018	-3e-05	-3e-05	5
20762	6e-05	0.00016	-5e-05	-0.00011	0.0004	0.00018	-3e-05	-3e-05	5
20763	6e-05	0.00016	-5e-05	-0.00011	0.0004	0.00018	-3e-05	-3e-05	5
20764	6e-05	0.00016	-5e-05	-0.00011	0.0004	0.00018	-3e-05	-3e-05	5
20765	6e-05	0.00016	-5e-05	-0.00011	0.0004	0.00018	-3e-05	-3e-05	5
20766	6e-05	0.00016	-5e-05	-0.00011	0.0004	0.00018	-3e-05	-3e-05	5
20767	6e-05	0.00016	-5e-05	-0.00011	0.0004	0.00018	-3e-05	-3e-05	5
20768	1e-05	8e-05	-7e-05	-0.00056	-0.00075	-0.0002	-5e-05	-3e-05	5
20769	-0.00044	-0.00082	-8e-05	-0.00013	0.00054	1e-05	-6e-05	-0.00013	5
20770	-0.00044	-0.00082	-8e-05	-0.00013	0.00054	1e-05	-6e-05	-0.00013	5
20771	-0.00044	-0.00082	-8e-05	-0.00013	0.00054	1e-05	-6e-05	-0.00013	5
20772	-0.00044	-0.00082	-8e-05	-0.00013	0.00054	1e-05	-6e-05	-0.00013	5
20773	-0.00044	-0.00082	-8e-05	-0.00013	0.00054	1e-05	-6e-05	-0.00013	5
20774	-0.00044	-0.00082	-8e-05	-0.00013	0.00054	1e-05	-6e-05	-0.00013	5
20775	-0.00044	-0.00082	-8e-05	-0.00013	0.00054	1e-05	-6e-05	-0.00013	5
20776	-0.00044	-0.00082	-8e-05	-0.00013	0.00054	1e-05	-6e-05	-0.00013	5
20777	-0.00044	-0.00082	-8e-05	-0.00013	0.00054	1e-05	-6e-05	-0.00013	5
20778	-0.00044	-0.00082	-8e-05	-0.00013	0.00054	1e-05	-6e-05	-0.00013	5
20779	-0.00044	-0.00082	-8e-05	-0.00013	0.00054	1e-05	-6e-05	-0.00013	5
20780	-0.00044	-0.00082	-8e-05	-0.00013	0.00054	1e-05	-6e-05	-0.00013	5
20781	-0.00044	-0.00082	-8e-05	-0.00013	0.00054	1e-05	-6e-05	-0.00013	5
20782	-0.00044	-0.00082	-8e-05	-0.00013	0.00054	1e-05	-6e-05	-0.00013	5
20783	-0.00044	-0.00082	-8e-05	-0.00013	0.00054	1e-05	-6e-05	-0.00013	5
20784	-0.00044	-0.00082	-8e-05	-0.00013	0.00054	1e-05	-6e-05	-0.00013	5
20785	-0.00044	-0.00082	-8e-05	-0.00013	0.00054	1e-05	-6e-05	-0.00013	5
20786	-0.00044	-0.00082	-8e-05	-0.00013	0.00054	1e-05	-6e-05	-0.00013	5
20787	-0.00044	-0.00082	-8e-05	-0.00013	0.00054	1e-05	-6e-05	-0.00013	5
20788	-0.00044	-0.00082	-8e-05	-0.00013	0.00054	1e-05	-6e-05	-0.00013	5
20789	-0.00044	-0.00082	-8e-05	-0.00013	0.00054	1e-05	-6e-05	-0.00013	5
20790	-0.00026	-0.0004	-6e-05	-6e-05	7e-05	0.0003	0.00013	0	5
20791	-0.00026	-0.0004	-6e-05	-6e-05	7e-05	0.0003	0.00013	0	5
20792	-0.00033	-0.00052	-0.0002	-5e-05	0.00011	5e-05	-3e-05	-0.00012	5
20793	-0.00033	-0.00052	-0.0002	-5e-05	0.00011	5e-05	-3e-05	-0.00012	5
20794	-0.00033	-0.00052	-0.0002	-5e-05	0.00011	5e-05	-3e-05	-0.00012	5
20795	-0.00033	-0.00052	-0.0002	-5e-05	0.00011	5e-05	-3e-05	-0.00012	5
20796	-0.00033	-0.00052	-0.0002	-5e-05	0.00011	5e-05	-3e-05	-0.00012	5
20798	-0.00033	-0.00052	-0.0002	-5e-05	0.00011	5e-05	-3e-05	-0.00012	5
20799	-0.00033	-0.00052	-0.0002	-5e-05	0.00011	5e-05	-3e-05	-0.00012	5
20800	-0.00033	-0.00052	-0.0002	-5e-05	0.00011	5e-05	-3e-05	-0.00012	5
20801	-0.00033	-0.00052	-0.0002	-5e-05	0.00011	5e-05	-3e-05	-0.00012	5
20802	-0.00033	-0.00052	-0.0002	-5e-05	0.00011	5e-05	-3e-05	-0.00012	5
20803	-0.00033	-0.00052	-0.0002	-5e-05	0.00011	5e-05	-3e-05	-0.00012	5
20804	0.00023	0.00012	3e-05	5e-05	-0.00021	-3e-05	0	0	5
20805	0.00023	0.00012	3e-05	5e-05	-0.00021	-3e-05	0	0	5
20806	0.00023	0.00012	3e-05	5e-05	-0.00021	-3e-05	0	0	5
20807	0.00023	0.00012	3e-05	5e-05	-0.00021	-3e-05	0	0	5
20808	0.00023	0.00012	3e-05	5e-05	-0.00021	-3e-05	0	0	5
20809	0.00023	0.00012	3e-05	5e-05	-0.00021	-3e-05	0	0	5
20810	0.00023	0.00012	3e-05	5e-05	-0.00021	-3e-05	0	0	5
20811	0.00023	0.00012	3e-05	5e-05	-0.00021	-3e-05	0	0	5
20812	0.00023	0.00012	3e-05	5e-05	-0.00021	-3e-05	0	0	5
20813	4e-05	0.00029	0.00015	0.00022	0.00017	-0.00018	-6e-05	3e-05	5
20814	4e-05	0.00029	0.00015	0.00022	0.00017	-0.00018	-6e-05	3e-05	5
20815	4e-05	0.00029	0.00015	0.00022	0.00017	-0.00018	-6e-05	3e-05	5
20816	4e-05	0.00029	0.00015	0.00022	0.00017	-0.00018	-6e-05	3e-05	5
20817	4e-05	0.00029	0.00015	0.00022	0.00017	-0.00018	-6e-05	3e-05	5
20818	4e-05	0.00029	0.00015	0.00022	0.00017	-0.00018	-6e-05	3e-05	5
20819	4e-05	0.00029	0.00015	0.00022	0.00017	-0.00018	-6e-05	3e-05	5
20820	4e-05	0.00029	0.00015	0.00022	0.00017	-0.00018	-6e-05	3e-05	5
20821	4e-05	0.00029	0.00015	0.00022	0.00017	-0.00018	-6e-05	3e-05	5
20822	4e-05	0.00029	0.00015	0.00022	0.00017	-0.00018	-6e-05	3e-05	5
20823	4e-05	0.00029	0.00015	0.00022	0.00017	-0.00018	-6e-05	3e-05	5
20824	4e-05	0.00029	0.00015	0.00022	0.00017	-0.00018	-6e-05	3e-05	5
20825	4e-05	0.00029	0.00015	0.00022	0.00017	-0.00018	-6e-05	3e-05	5
20826	4e-05	0.00029	0.00015	0.00022	0.00017	-0.00018	-6e-05	3e-05	5
20827	4e-05	0.00029	0.00015	0.00022	0.00017	-0.00018	-6e-05	3e-05	5
20828	-0.00016	-0.00029	5e-05	0.00018	0.00061	0.00029	4e-05	-1e-05	5
20829	0.00018	0.00025	-0.00013	-0.00072	-0.00017	-6e-05	1e-05	1e-05	5
20830	0.00018	0.00025	-0.00013	-0.00072	-0.00017	-6e-05	1e-05	1e-05	5
20831	0.00018	0.00025	-0.00013	-0.00072	-0.00017	-6e-05	1e-05	1e-05	5
20832	0.00018	0.00025	-0.00013	-0.00072	-0.00017	-6e-05	1e-05	1e-05	5
20833	0.00018	0.00025	-0.00013	-0.00072	-0.00017	-6e-05	1e-05	1e-05	5
20834	0.00018	0.00025	-0.00013	-0.00072	-0.00017	-6e-05	1e-05	1e-05	5
20835	0.00018	0.00025	-0.00013	-0.00072	-0.00017	-6e-05	1e-05	1e-05	5
20836	0.00018	0.00025	-0.00013	-0.00072	-0.00017	-6e-05	1e-05	1e-05	5
20837	0.00018	0.00025	-0.00013	-0.00072	-0.00017	-6e-05	1e-05	1e-05	5
20838	0.00018	0.00025	-0.00013	-0.00072	-0.00017	-6e-05	1e-05	1e-05	5
20839	0.00018	0.00025	-0.00013	-0.00072	-0.00017	-6e-05	1e-05	1e-05	5
20840	0.00018	0.00025	-0.00013	-0.00072	-0.00017	-6e-05	1e-05	1e-05	5
20841	0.00018	0.00025	-0.00013	-0.00072	-0.00017	-6e-05	1e-05	1e-05	5
20842	0.00018	0.00025	-0.00013	-0.00072	-0.00017	-6e-05	1e-05	1e-05	5
20843	0.00018	0.00025	-0.00013	-0.00072	-0.00017	-6e-05	1e-05	1e-05	5
20845	0.00018	0.00025	-0.00013	-0.00072	-0.00017	-6e-05	1e-05	1e-05	5
20846	0.00018	0.00025	-0.00013	-0.00072	-0.00017	-6e-05	1e-05	1e-05	5
20847	0.00018	0.00025	-0.00013	-0.00072	-0.00017	-6e-05	1e-05	1e-05	5
20848	0.00018	0.00025	-0.00013	-0.00072	-0.00017	-6e-05	1e-05	1e-05	5
20849	0.00018	0.00025	-0.00013	-0.00072	-0.00017	-6e-05	1e-05	1e-05	5
20850	0.00019	0.00035	0.00018	8e-05	-0.00027	-0.00012	-1e-05	2e-05	5
20851	0.00019	0.00035	0.00018	8e-05	-0.00027	-0.00012	-1e-05	2e-05	5
20852	9e-05	0.00017	-4e-05	-0.00023	-0.00079	-0.00016	-3e-05	9e-05	5
20853	9e-05	0.00017	-4e-05	-0.00023	-0.00079	-0.00016	-3e-05	9e-05	5
20854	9e-05	0.00017	-4e-05	-0.00023	-0.00079	-0.00016	-3e-05	9e-05	5
20855	9e-05	0.00017	-4e-05	-0.00023	-0.00079	-0.00016	-3e-05	9e-05	5
20856	9e-05	0.00017	-4e-05	-0.00023	-0.00079	-0.00016	-3e-05	9e-05	5
20857	9e-05	0.00017	-4e-05	-0.00023	-0.00079	-0.00016	-3e-05	9e-05	5
20858	9e-05	0.00017	-4e-05	-0.00023	-0.00079	-0.00016	-3e-05	9e-05	5
20859	9e-05	0.00017	-4e-05	-0.00023	-0.00079	-0.00016	-3e-05	9e-05	5
20860	9e-05	0.00017	-4e-05	-0.00023	-0.00079	-0.00016	-3e-05	9e-05	5
20861	9e-05	0.00017	-4e-05	-0.00023	-0.00079	-0.00016	-3e-05	9e-05	5
20862	9e-05	0.00017	-4e-05	-0.00023	-0.00079	-0.00016	-3e-05	9e-05	5
20863	9e-05	0.00017	-4e-05	-0.00023	-0.00079	-0.00016	-3e-05	9e-05	5
20864	9e-05	0.00017	-4e-05	-0.00023	-0.00079	-0.00016	-3e-05	9e-05	5
20865	9e-05	0.00017	-4e-05	-0.00023	-0.00079	-0.00016	-3e-05	9e-05	5
20866	9e-05	0.00017	-4e-05	-0.00023	-0.00079	-0.00016	-3e-05	9e-05	5
20867	9e-05	0.00017	-4e-05	-0.00023	-0.00079	-0.00016	-3e-05	9e-05	5
20868	9e-05	0.00017	-4e-05	-0.00023	-0.00079	-0.00016	-3e-05	9e-05	5
20869	9e-05	0.00017	-4e-05	-0.00023	-0.00079	-0.00016	-3e-05	9e-05	5
20870	9e-05	0.00017	-4e-05	-0.00023	-0.00079	-0.00016	-3e-05	9e-05	5
20871	9e-05	0.00017	-4e-05	-0.00023	-0.00079	-0.00016	-3e-05	9e-05	5
20872	9e-05	0.00017	-4e-05	-0.00023	-0.00079	-0.00016	-3e-05	9e-05	5
20873	-0.00015	-0.0002	-2e-05	0.00038	7e-05	0.0001	7e-05	2e-05	5
20874	0.0002	0.00024	9e-05	-0.00016	0.00054	0.00047	0.00014	2e-05	5
20875	0.0002	0.00024	9e-05	-0.00016	0.00054	0.00047	0.00014	2e-05	5
20876	0.0002	0.00024	9e-05	-0.00016	0.00054	0.00047	0.00014	2e-05	5
20877	0.0002	0.00024	9e-05	-0.00016	0.00054	0.00047	0.00014	2e-05	5
20878	0.0002	0.00024	9e-05	-0.00016	0.00054	0.00047	0.00014	2e-05	5
20879	0.0002	0.00024	9e-05	-0.00016	0.00054	0.00047	0.00014	2e-05	5
20880	0.0002	0.00024	9e-05	-0.00016	0.00054	0.00047	0.00014	2e-05	5
20881	0.0002	0.00024	9e-05	-0.00016	0.00054	0.00047	0.00014	2e-05	5
20882	0.0002	0.00024	9e-05	-0.00016	0.00054	0.00047	0.00014	2e-05	5
20883	0.0002	0.00024	9e-05	-0.00016	0.00054	0.00047	0.00014	2e-05	5
20884	0.0002	0.00024	9e-05	-0.00016	0.00054	0.00047	0.00014	2e-05	5
20885	0.0002	0.00024	9e-05	-0.00016	0.00054	0.00047	0.00014	2e-05	5
20886	0.0002	0.00024	9e-05	-0.00016	0.00054	0.00047	0.00014	2e-05	5
20887	4e-05	0.00031	0.00013	0.0002	-0.0002	-4e-05	-3e-05	-2e-05	5
20888	-0.00026	-0.00067	7e-05	0.00049	0.00059	-0.00019	-8e-05	-5e-05	5
20889	-0.00026	-0.00067	7e-05	0.00049	0.00059	-0.00019	-8e-05	-5e-05	5
20891	-0.00026	-0.00067	7e-05	0.00049	0.00059	-0.00019	-8e-05	-5e-05	5
20892	-7e-05	1e-05	-0.00014	0.00022	-0.00088	-0.00032	0	-3e-05	5
20893	-7e-05	1e-05	-0.00014	0.00022	-0.00088	-0.00032	0	-3e-05	5
20894	-7e-05	1e-05	-0.00014	0.00022	-0.00088	-0.00032	0	-3e-05	5
20895	-7e-05	1e-05	-0.00014	0.00022	-0.00088	-0.00032	0	-3e-05	5
20896	-7e-05	1e-05	-0.00014	0.00022	-0.00088	-0.00032	0	-3e-05	5
20897	-7e-05	1e-05	-0.00014	0.00022	-0.00088	-0.00032	0	-3e-05	5
20898	-7e-05	1e-05	-0.00014	0.00022	-0.00088	-0.00032	0	-3e-05	5
20899	-7e-05	1e-05	-0.00014	0.00022	-0.00088	-0.00032	0	-3e-05	5
20900	-7e-05	1e-05	-0.00014	0.00022	-0.00088	-0.00032	0	-3e-05	5
20901	-7e-05	1e-05	-0.00014	0.00022	-0.00088	-0.00032	0	-3e-05	5
20902	-7e-05	1e-05	-0.00014	0.00022	-0.00088	-0.00032	0	-3e-05	5
20903	-7e-05	1e-05	-0.00014	0.00022	-0.00088	-0.00032	0	-3e-05	5
20904	-7e-05	1e-05	-0.00014	0.00022	-0.00088	-0.00032	0	-3e-05	5
20905	-7e-05	1e-05	-0.00014	0.00022	-0.00088	-0.00032	0	-3e-05	5
20906	-7e-05	1e-05	-0.00014	0.00022	-0.00088	-0.00032	0	-3e-05	5
20907	-7e-05	1e-05	-0.00014	0.00022	-0.00088	-0.00032	0	-3e-05	5
20908	-7e-05	1e-05	-0.00014	0.00022	-0.00088	-0.00032	0	-3e-05	5
20909	-7e-05	1e-05	-0.00014	0.00022	-0.00088	-0.00032	0	-3e-05	5
20912	-7e-05	1e-05	-0.00014	0.00022	-0.00088	-0.00032	0	-3e-05	5
20913	0.00013	0.00014	-0.00014	-0.00044	-0.00092	-0.00028	0	-5e-05	5
20914	0.00013	0.00014	-0.00014	-0.00044	-0.00092	-0.00028	0	-5e-05	5
20915	0.00013	0.00014	-0.00014	-0.00044	-0.00092	-0.00028	0	-5e-05	5
20916	0.00013	0.00014	-0.00014	-0.00044	-0.00092	-0.00028	0	-5e-05	5
20917	0.00013	0.00014	-0.00014	-0.00044	-0.00092	-0.00028	0	-5e-05	5
20918	0.00013	0.00014	-0.00014	-0.00044	-0.00092	-0.00028	0	-5e-05	5
20919	0.00013	0.00014	-0.00014	-0.00044	-0.00092	-0.00028	0	-5e-05	5
20920	0.00013	0.00014	-0.00014	-0.00044	-0.00092	-0.00028	0	-5e-05	5
20921	0.00013	0.00014	-0.00014	-0.00044	-0.00092	-0.00028	0	-5e-05	5
20922	0.00013	0.00014	-0.00014	-0.00044	-0.00092	-0.00028	0	-5e-05	5
20923	0.00013	0.00014	-0.00014	-0.00044	-0.00092	-0.00028	0	-5e-05	5
20924	0.00013	0.00014	-0.00014	-0.00044	-0.00092	-0.00028	0	-5e-05	5
20925	0.00013	0.00014	-0.00014	-0.00044	-0.00092	-0.00028	0	-5e-05	5
20926	0.00013	0.00014	-0.00014	-0.00044	-0.00092	-0.00028	0	-5e-05	5
20927	0.00013	0.00014	-0.00014	-0.00044	-0.00092	-0.00028	0	-5e-05	5
20928	0.00013	0.00014	-0.00014	-0.00044	-0.00092	-0.00028	0	-5e-05	5
20929	0.00013	0.00014	-0.00014	-0.00044	-0.00092	-0.00028	0	-5e-05	5
20930	0.00013	0.00014	-0.00014	-0.00044	-0.00092	-0.00028	0	-5e-05	5
20931	0.00013	0.00014	-0.00014	-0.00044	-0.00092	-0.00028	0	-5e-05	5
20932	0.00013	0.00014	-0.00014	-0.00044	-0.00092	-0.00028	0	-5e-05	5
20933	9e-05	-0.00011	-0.00018	-0.00028	-0.0003	-0.00027	-0.00015	-5e-05	5
20934	-5e-05	3e-05	-4e-05	-0.00014	-0.00032	-0.00014	-6e-05	3e-05	5
20935	-5e-05	3e-05	-4e-05	-0.00014	-0.00032	-0.00014	-6e-05	3e-05	5
20937	-5e-05	3e-05	-4e-05	-0.00014	-0.00032	-0.00014	-6e-05	3e-05	5
20939	-5e-05	3e-05	-4e-05	-0.00014	-0.00032	-0.00014	-6e-05	3e-05	5
20940	-5e-05	3e-05	-4e-05	-0.00014	-0.00032	-0.00014	-6e-05	3e-05	5
20941	-5e-05	3e-05	-4e-05	-0.00014	-0.00032	-0.00014	-6e-05	3e-05	5
20942	-5e-05	3e-05	-4e-05	-0.00014	-0.00032	-0.00014	-6e-05	3e-05	5
20943	-5e-05	3e-05	-4e-05	-0.00014	-0.00032	-0.00014	-6e-05	3e-05	5
20944	-5e-05	3e-05	-4e-05	-0.00014	-0.00032	-0.00014	-6e-05	3e-05	5
20945	-5e-05	3e-05	-4e-05	-0.00014	-0.00032	-0.00014	-6e-05	3e-05	5
20946	-5e-05	3e-05	-4e-05	-0.00014	-0.00032	-0.00014	-6e-05	3e-05	5
20947	-5e-05	3e-05	-4e-05	-0.00014	-0.00032	-0.00014	-6e-05	3e-05	5
20948	-0.00021	0.00035	0.0001	6e-05	0.00015	5e-05	3e-05	3e-05	5
20949	0.0001	0.00019	5e-05	-8e-05	0.00033	0.0001	-6e-05	-1e-05	5
20950	0.0001	0.00019	5e-05	-8e-05	0.00033	0.0001	-6e-05	-1e-05	5
20951	0.0001	0.00019	5e-05	-8e-05	0.00033	0.0001	-6e-05	-1e-05	5
20952	0.0001	0.00019	5e-05	-8e-05	0.00033	0.0001	-6e-05	-1e-05	5
20953	0.0001	0.00019	5e-05	-8e-05	0.00033	0.0001	-6e-05	-1e-05	5
20954	0.0001	0.00019	5e-05	-8e-05	0.00033	0.0001	-6e-05	-1e-05	5
20955	0.0001	0.00019	5e-05	-8e-05	0.00033	0.0001	-6e-05	-1e-05	5
20956	0.0001	0.00019	5e-05	-8e-05	0.00033	0.0001	-6e-05	-1e-05	5
20957	0.0001	0.00019	5e-05	-8e-05	0.00033	0.0001	-6e-05	-1e-05	5
20958	0.0001	0.00019	5e-05	-8e-05	0.00033	0.0001	-6e-05	-1e-05	5
20959	0.0001	0.00019	5e-05	-8e-05	0.00033	0.0001	-6e-05	-1e-05	5
20960	0.0001	0.00019	5e-05	-8e-05	0.00033	0.0001	-6e-05	-1e-05	5
20961	0.0001	0.00019	5e-05	-8e-05	0.00033	0.0001	-6e-05	-1e-05	5
20962	0.0001	0.00019	5e-05	-8e-05	0.00033	0.0001	-6e-05	-1e-05	5
20963	0.0001	0.00019	5e-05	-8e-05	0.00033	0.0001	-6e-05	-1e-05	5
20964	0.0001	0.00019	5e-05	-8e-05	0.00033	0.0001	-6e-05	-1e-05	5
20965	0.0001	0.00019	5e-05	-8e-05	0.00033	0.0001	-6e-05	-1e-05	5
20966	0.0001	0.00019	5e-05	-8e-05	0.00033	0.0001	-6e-05	-1e-05	5
20967	0.0001	0.00019	5e-05	-8e-05	0.00033	0.0001	-6e-05	-1e-05	5
20968	0.0001	0.00019	5e-05	-8e-05	0.00033	0.0001	-6e-05	-1e-05	5
20969	0.0001	0.00019	5e-05	-8e-05	0.00033	0.0001	-6e-05	-1e-05	5
20970	0.00031	0.00012	0.00014	4e-05	-0.00021	5e-05	-1e-05	3e-05	5
20971	0.00031	0.00012	0.00014	4e-05	-0.00021	5e-05	-1e-05	3e-05	5
20972	-0.00014	-0.00015	-6e-05	-0.0002	-2e-05	-1e-05	-4e-05	-4e-05	5
20973	-0.00014	-0.00015	-6e-05	-0.0002	-2e-05	-1e-05	-4e-05	-4e-05	5
20974	-0.00014	-0.00015	-6e-05	-0.0002	-2e-05	-1e-05	-4e-05	-4e-05	5
20975	-0.00014	-0.00015	-6e-05	-0.0002	-2e-05	-1e-05	-4e-05	-4e-05	5
20976	-0.00014	-0.00015	-6e-05	-0.0002	-2e-05	-1e-05	-4e-05	-4e-05	5
20977	-0.00014	-0.00015	-6e-05	-0.0002	-2e-05	-1e-05	-4e-05	-4e-05	5
20978	-0.00014	-0.00015	-6e-05	-0.0002	-2e-05	-1e-05	-4e-05	-4e-05	5
20979	-0.00014	-0.00015	-6e-05	-0.0002	-2e-05	-1e-05	-4e-05	-4e-05	5
20980	-0.00014	-0.00015	-6e-05	-0.0002	-2e-05	-1e-05	-4e-05	-4e-05	5
20981	-0.00014	-0.00015	-6e-05	-0.0002	-2e-05	-1e-05	-4e-05	-4e-05	5
20982	-0.00014	-0.00015	-6e-05	-0.0002	-2e-05	-1e-05	-4e-05	-4e-05	5
20984	-0.00014	-0.00015	-6e-05	-0.0002	-2e-05	-1e-05	-4e-05	-4e-05	5
20985	-0.00014	-0.00015	-6e-05	-0.0002	-2e-05	-1e-05	-4e-05	-4e-05	5
20986	-0.00014	-0.00015	-6e-05	-0.0002	-2e-05	-1e-05	-4e-05	-4e-05	5
20987	-0.00014	-0.00015	-6e-05	-0.0002	-2e-05	-1e-05	-4e-05	-4e-05	5
20988	-0.00014	-0.00015	-6e-05	-0.0002	-2e-05	-1e-05	-4e-05	-4e-05	5
20989	-0.00014	-0.00015	-6e-05	-0.0002	-2e-05	-1e-05	-4e-05	-4e-05	5
20990	-0.00014	-0.00015	-6e-05	-0.0002	-2e-05	-1e-05	-4e-05	-4e-05	5
20991	-0.00014	-0.00015	-6e-05	-0.0002	-2e-05	-1e-05	-4e-05	-4e-05	5
20992	-0.00014	-0.00015	-6e-05	-0.0002	-2e-05	-1e-05	-4e-05	-4e-05	5
20993	4e-05	0.00013	0.00032	0.00079	5e-05	0.00014	5e-05	0	5
20994	7e-05	2e-05	-0.00015	-0.00053	-0.00056	-7e-05	-4e-05	3e-05	5
20995	7e-05	2e-05	-0.00015	-0.00053	-0.00056	-7e-05	-4e-05	3e-05	5
20996	7e-05	2e-05	-0.00015	-0.00053	-0.00056	-7e-05	-4e-05	3e-05	5
20997	7e-05	2e-05	-0.00015	-0.00053	-0.00056	-7e-05	-4e-05	3e-05	5
20998	7e-05	2e-05	-0.00015	-0.00053	-0.00056	-7e-05	-4e-05	3e-05	5
20999	7e-05	2e-05	-0.00015	-0.00053	-0.00056	-7e-05	-4e-05	3e-05	5
21000	7e-05	2e-05	-0.00015	-0.00053	-0.00056	-7e-05	-4e-05	3e-05	5
21001	7e-05	2e-05	-0.00015	-0.00053	-0.00056	-7e-05	-4e-05	3e-05	5
21002	7e-05	2e-05	-0.00015	-0.00053	-0.00056	-7e-05	-4e-05	3e-05	5
21003	7e-05	2e-05	-0.00015	-0.00053	-0.00056	-7e-05	-4e-05	3e-05	5
21004	7e-05	2e-05	-0.00015	-0.00053	-0.00056	-7e-05	-4e-05	3e-05	5
21005	7e-05	2e-05	-0.00015	-0.00053	-0.00056	-7e-05	-4e-05	3e-05	5
21006	7e-05	2e-05	-0.00015	-0.00053	-0.00056	-7e-05	-4e-05	3e-05	5
21007	-0.00019	-0.00011	0.00011	7e-05	-0.00083	-2e-05	0.00013	0	5
21008	-0.00019	-0.00011	0.00011	7e-05	-0.00083	-2e-05	0.00013	0	5
21009	-0.00019	-0.00011	0.00011	7e-05	-0.00083	-2e-05	0.00013	0	5
21010	-0.00019	-0.00011	0.00011	7e-05	-0.00083	-2e-05	0.00013	0	5
21011	-0.00019	-0.00011	0.00011	7e-05	-0.00083	-2e-05	0.00013	0	5
21012	-0.00019	-0.00011	0.00011	7e-05	-0.00083	-2e-05	0.00013	0	5
21013	-0.00019	-0.00011	0.00011	7e-05	-0.00083	-2e-05	0.00013	0	5
21014	-0.00027	-0.00043	0.00013	0.00031	0.00041	0.00012	-3e-05	-2e-05	5
21015	-0.00027	-0.00043	0.00013	0.00031	0.00041	0.00012	-3e-05	-2e-05	5
21016	-0.00027	-0.00043	0.00013	0.00031	0.00041	0.00012	-3e-05	-2e-05	5
21017	-0.00027	-0.00043	0.00013	0.00031	0.00041	0.00012	-3e-05	-2e-05	5
21018	-0.00027	-0.00043	0.00013	0.00031	0.00041	0.00012	-3e-05	-2e-05	5
21019	-0.00027	-0.00043	0.00013	0.00031	0.00041	0.00012	-3e-05	-2e-05	5
21020	-0.00027	-0.00043	0.00013	0.00031	0.00041	0.00012	-3e-05	-2e-05	5
21021	-0.00027	-0.00043	0.00013	0.00031	0.00041	0.00012	-3e-05	-2e-05	5
21022	-0.00027	-0.00043	0.00013	0.00031	0.00041	0.00012	-3e-05	-2e-05	5
21023	-0.00027	-0.00043	0.00013	0.00031	0.00041	0.00012	-3e-05	-2e-05	5
21024	-0.00027	-0.00043	0.00013	0.00031	0.00041	0.00012	-3e-05	-2e-05	5
21025	-0.00027	-0.00043	0.00013	0.00031	0.00041	0.00012	-3e-05	-2e-05	5
21026	-0.00027	-0.00043	0.00013	0.00031	0.00041	0.00012	-3e-05	-2e-05	5
21027	-0.00027	-0.00043	0.00013	0.00031	0.00041	0.00012	-3e-05	-2e-05	5
21028	-0.00027	-0.00043	0.00013	0.00031	0.00041	0.00012	-3e-05	-2e-05	5
21029	-0.00027	-0.00043	0.00013	0.00031	0.00041	0.00012	-3e-05	-2e-05	5
21030	4e-05	0.00043	-1e-05	-0.00025	0.0006	0.00013	3e-05	1e-05	5
21031	4e-05	0.00043	-1e-05	-0.00025	0.0006	0.00013	3e-05	1e-05	5
21032	0.00016	0.00014	0.00014	0.00097	0.00038	3e-05	8e-05	5e-05	5
21033	0.00016	0.00014	0.00014	0.00097	0.00038	3e-05	8e-05	5e-05	5
21034	0.00016	0.00014	0.00014	0.00097	0.00038	3e-05	8e-05	5e-05	5
21035	0.00016	0.00014	0.00014	0.00097	0.00038	3e-05	8e-05	5e-05	5
21036	0.00016	0.00014	0.00014	0.00097	0.00038	3e-05	8e-05	5e-05	5
21037	0.00016	0.00014	0.00014	0.00097	0.00038	3e-05	8e-05	5e-05	5
21038	0.00016	0.00014	0.00014	0.00097	0.00038	3e-05	8e-05	5e-05	5
21039	0.00016	0.00014	0.00014	0.00097	0.00038	3e-05	8e-05	5e-05	5
21040	0.00016	0.00014	0.00014	0.00097	0.00038	3e-05	8e-05	5e-05	5
21041	0.00016	0.00014	0.00014	0.00097	0.00038	3e-05	8e-05	5e-05	5
21042	0.00016	0.00014	0.00014	0.00097	0.00038	3e-05	8e-05	5e-05	5
21043	0.00016	0.00014	0.00014	0.00097	0.00038	3e-05	8e-05	5e-05	5
21044	0.00016	0.00014	0.00014	0.00097	0.00038	3e-05	8e-05	5e-05	5
21045	0.00016	0.00014	0.00014	0.00097	0.00038	3e-05	8e-05	5e-05	5
21046	0.00016	0.00014	0.00014	0.00097	0.00038	3e-05	8e-05	5e-05	5
21047	0.00016	0.00014	0.00014	0.00097	0.00038	3e-05	8e-05	5e-05	5
21048	0.00016	0.00014	0.00014	0.00097	0.00038	3e-05	8e-05	5e-05	5
21049	0.00016	0.00014	0.00014	0.00097	0.00038	3e-05	8e-05	5e-05	5
21050	0.00016	0.00014	0.00014	0.00097	0.00038	3e-05	8e-05	5e-05	5
21051	0.00016	0.00014	0.00014	0.00097	0.00038	3e-05	8e-05	5e-05	5
21052	0.00016	0.00014	0.00014	0.00097	0.00038	3e-05	8e-05	5e-05	5
21053	-0.00018	-0.00051	-0.00011	-0.00042	-0.00036	-0.00041	-0.00027	-0.00025	5
21054	-0.00094	-0.00046	-9e-05	-0.00011	0.00012	-9e-05	-0.00014	-0.00023	5
21055	-0.00094	-0.00046	-9e-05	-0.00011	0.00012	-9e-05	-0.00014	-0.00023	5
21056	-0.00094	-0.00046	-9e-05	-0.00011	0.00012	-9e-05	-0.00014	-0.00023	5
21057	-0.00094	-0.00046	-9e-05	-0.00011	0.00012	-9e-05	-0.00014	-0.00023	5
21058	-0.00094	-0.00046	-9e-05	-0.00011	0.00012	-9e-05	-0.00014	-0.00023	5
21059	-0.00094	-0.00046	-9e-05	-0.00011	0.00012	-9e-05	-0.00014	-0.00023	5
21060	-0.00094	-0.00046	-9e-05	-0.00011	0.00012	-9e-05	-0.00014	-0.00023	5
21061	-0.00094	-0.00046	-9e-05	-0.00011	0.00012	-9e-05	-0.00014	-0.00023	5
21062	-0.00094	-0.00046	-9e-05	-0.00011	0.00012	-9e-05	-0.00014	-0.00023	5
21063	-0.00094	-0.00046	-9e-05	-0.00011	0.00012	-9e-05	-0.00014	-0.00023	5
21064	-0.00094	-0.00046	-9e-05	-0.00011	0.00012	-9e-05	-0.00014	-0.00023	5
21065	-0.00094	-0.00046	-9e-05	-0.00011	0.00012	-9e-05	-0.00014	-0.00023	5
21066	-0.00094	-0.00046	-9e-05	-0.00011	0.00012	-9e-05	-0.00014	-0.00023	5
21067	0.00011	0.00016	-4e-05	-0.0001	-0.00017	-0.00017	-0.00017	-7e-05	5
21068	0.00011	0.00016	-4e-05	-0.0001	-0.00017	-0.00017	-0.00017	-7e-05	5
21069	0.00011	0.00016	-4e-05	-0.0001	-0.00017	-0.00017	-0.00017	-7e-05	5
21070	0.00011	0.00016	-4e-05	-0.0001	-0.00017	-0.00017	-0.00017	-7e-05	5
21071	0.00011	0.00016	-4e-05	-0.0001	-0.00017	-0.00017	-0.00017	-7e-05	5
21072	0.00011	0.00016	-4e-05	-0.0001	-0.00017	-0.00017	-0.00017	-7e-05	5
21073	0.00011	0.00016	-4e-05	-0.0001	-0.00017	-0.00017	-0.00017	-7e-05	5
21074	0.00029	0.0003	0.00011	0.00044	-7e-05	-6e-05	7e-05	2e-05	5
21075	0.00029	0.0003	0.00011	0.00044	-7e-05	-6e-05	7e-05	2e-05	5
21076	0.00029	0.0003	0.00011	0.00044	-7e-05	-6e-05	7e-05	2e-05	5
21077	0.00029	0.0003	0.00011	0.00044	-7e-05	-6e-05	7e-05	2e-05	5
21079	0.00029	0.0003	0.00011	0.00044	-7e-05	-6e-05	7e-05	2e-05	5
21080	0.00029	0.0003	0.00011	0.00044	-7e-05	-6e-05	7e-05	2e-05	5
21081	0.00029	0.0003	0.00011	0.00044	-7e-05	-6e-05	7e-05	2e-05	5
21082	0.00029	0.0003	0.00011	0.00044	-7e-05	-6e-05	7e-05	2e-05	5
21083	0.00029	0.0003	0.00011	0.00044	-7e-05	-6e-05	7e-05	2e-05	5
21084	0.00029	0.0003	0.00011	0.00044	-7e-05	-6e-05	7e-05	2e-05	5
21085	0.00029	0.0003	0.00011	0.00044	-7e-05	-6e-05	7e-05	2e-05	5
21086	0.00029	0.0003	0.00011	0.00044	-7e-05	-6e-05	7e-05	2e-05	5
21087	0.00029	0.0003	0.00011	0.00044	-7e-05	-6e-05	7e-05	2e-05	5
21088	0.00029	0.0003	0.00011	0.00044	-7e-05	-6e-05	7e-05	2e-05	5
21089	0.00029	0.0003	0.00011	0.00044	-7e-05	-6e-05	7e-05	2e-05	5
21090	0.00027	0.00016	9e-05	-0.00027	7e-05	0.00022	9e-05	0.00014	5
21091	-0.00025	-9e-05	0	0.00033	0.00025	4e-05	0	-5e-05	5
21092	9e-05	-0.00015	0.00013	-0.00022	0.00069	0.0002	1e-05	1e-05	5
21093	9e-05	-0.00015	0.00013	-0.00022	0.00069	0.0002	1e-05	1e-05	5
21094	9e-05	-0.00015	0.00013	-0.00022	0.00069	0.0002	1e-05	1e-05	5
21095	9e-05	-0.00015	0.00013	-0.00022	0.00069	0.0002	1e-05	1e-05	5
21096	9e-05	-0.00015	0.00013	-0.00022	0.00069	0.0002	1e-05	1e-05	5
21097	9e-05	-0.00015	0.00013	-0.00022	0.00069	0.0002	1e-05	1e-05	5
21098	9e-05	-0.00015	0.00013	-0.00022	0.00069	0.0002	1e-05	1e-05	5
21099	9e-05	-0.00015	0.00013	-0.00022	0.00069	0.0002	1e-05	1e-05	5
21100	9e-05	-0.00015	0.00013	-0.00022	0.00069	0.0002	1e-05	1e-05	5
21101	9e-05	-0.00015	0.00013	-0.00022	0.00069	0.0002	1e-05	1e-05	5
21102	9e-05	-0.00015	0.00013	-0.00022	0.00069	0.0002	1e-05	1e-05	5
21103	9e-05	-0.00015	0.00013	-0.00022	0.00069	0.0002	1e-05	1e-05	5
21104	9e-05	-0.00015	0.00013	-0.00022	0.00069	0.0002	1e-05	1e-05	5
21105	9e-05	-0.00015	0.00013	-0.00022	0.00069	0.0002	1e-05	1e-05	5
21106	9e-05	-0.00015	0.00013	-0.00022	0.00069	0.0002	1e-05	1e-05	5
21107	9e-05	-0.00015	0.00013	-0.00022	0.00069	0.0002	1e-05	1e-05	5
21108	9e-05	-0.00015	0.00013	-0.00022	0.00069	0.0002	1e-05	1e-05	5
21109	9e-05	-0.00015	0.00013	-0.00022	0.00069	0.0002	1e-05	1e-05	5
21110	9e-05	-0.00015	0.00013	-0.00022	0.00069	0.0002	1e-05	1e-05	5
21111	9e-05	-0.00015	0.00013	-0.00022	0.00069	0.0002	1e-05	1e-05	5
21112	9e-05	-0.00015	0.00013	-0.00022	0.00069	0.0002	1e-05	1e-05	5
21113	0.00022	1e-05	2e-05	9e-05	0.00057	0.00014	6e-05	7e-05	5
21114	0.0001	0.0003	-5e-05	-0.00057	-0.00043	-1e-05	3e-05	2e-05	5
21115	0.0001	0.0003	-5e-05	-0.00057	-0.00043	-1e-05	3e-05	2e-05	5
21116	0.0001	0.0003	-5e-05	-0.00057	-0.00043	-1e-05	3e-05	2e-05	5
21117	0.0001	0.0003	-5e-05	-0.00057	-0.00043	-1e-05	3e-05	2e-05	5
21118	0.0001	0.0003	-5e-05	-0.00057	-0.00043	-1e-05	3e-05	2e-05	5
21119	0.0001	0.0003	-5e-05	-0.00057	-0.00043	-1e-05	3e-05	2e-05	5
21120	0.0001	0.0003	-5e-05	-0.00057	-0.00043	-1e-05	3e-05	2e-05	5
21121	0.0001	0.0003	-5e-05	-0.00057	-0.00043	-1e-05	3e-05	2e-05	5
21122	0.0001	0.0003	-5e-05	-0.00057	-0.00043	-1e-05	3e-05	2e-05	5
21123	0.0001	0.0003	-5e-05	-0.00057	-0.00043	-1e-05	3e-05	2e-05	5
21125	0.0001	0.0003	-5e-05	-0.00057	-0.00043	-1e-05	3e-05	2e-05	5
21126	0.0001	0.0003	-5e-05	-0.00057	-0.00043	-1e-05	3e-05	2e-05	5
21127	-0.00015	-0.00045	-1e-05	-0.0006	-0.00026	8e-05	9e-05	9e-05	5
21128	-0.00015	-0.00045	-1e-05	-0.0006	-0.00026	8e-05	9e-05	9e-05	5
21129	-0.00015	-0.00045	-1e-05	-0.0006	-0.00026	8e-05	9e-05	9e-05	5
21130	-0.00015	-0.00045	-1e-05	-0.0006	-0.00026	8e-05	9e-05	9e-05	5
21131	-0.00015	-0.00045	-1e-05	-0.0006	-0.00026	8e-05	9e-05	9e-05	5
21132	-0.00015	-0.00045	-1e-05	-0.0006	-0.00026	8e-05	9e-05	9e-05	5
21133	-0.00015	-0.00045	-1e-05	-0.0006	-0.00026	8e-05	9e-05	9e-05	5
21134	8e-05	-3e-05	-0.00015	-0.00023	9e-05	1e-05	-4e-05	0	5
21135	8e-05	-3e-05	-0.00015	-0.00023	9e-05	1e-05	-4e-05	0	5
21136	8e-05	-3e-05	-0.00015	-0.00023	9e-05	1e-05	-4e-05	0	5
21137	8e-05	-3e-05	-0.00015	-0.00023	9e-05	1e-05	-4e-05	0	5
21138	8e-05	-3e-05	-0.00015	-0.00023	9e-05	1e-05	-4e-05	0	5
21139	8e-05	-3e-05	-0.00015	-0.00023	9e-05	1e-05	-4e-05	0	5
21140	8e-05	-3e-05	-0.00015	-0.00023	9e-05	1e-05	-4e-05	0	5
21141	8e-05	-3e-05	-0.00015	-0.00023	9e-05	1e-05	-4e-05	0	5
21142	8e-05	-3e-05	-0.00015	-0.00023	9e-05	1e-05	-4e-05	0	5
21143	8e-05	-3e-05	-0.00015	-0.00023	9e-05	1e-05	-4e-05	0	5
21144	8e-05	-3e-05	-0.00015	-0.00023	9e-05	1e-05	-4e-05	0	5
21145	8e-05	-3e-05	-0.00015	-0.00023	9e-05	1e-05	-4e-05	0	5
21146	8e-05	-3e-05	-0.00015	-0.00023	9e-05	1e-05	-4e-05	0	5
21147	8e-05	-3e-05	-0.00015	-0.00023	9e-05	1e-05	-4e-05	0	5
21148	8e-05	-3e-05	-0.00015	-0.00023	9e-05	1e-05	-4e-05	0	5
21149	8e-05	-3e-05	-0.00015	-0.00023	9e-05	1e-05	-4e-05	0	5
21150	8e-05	-3e-05	-0.00015	-0.00023	9e-05	1e-05	-4e-05	0	5
21151	8e-05	-3e-05	-0.00015	-0.00023	9e-05	1e-05	-4e-05	0	5
21152	8e-05	-3e-05	-0.00015	-0.00023	9e-05	1e-05	-4e-05	0	5
21153	0.00024	-0.00011	0.0001	1e-05	-0.00053	-1e-05	-2e-05	0.00012	5
21154	0.00024	-0.00011	0.0001	1e-05	-0.00053	-1e-05	-2e-05	0.00012	5
21155	0.00024	-0.00011	0.0001	1e-05	-0.00053	-1e-05	-2e-05	0.00012	5
21156	0.00024	-0.00011	0.0001	1e-05	-0.00053	-1e-05	-2e-05	0.00012	5
21157	0.00024	-0.00011	0.0001	1e-05	-0.00053	-1e-05	-2e-05	0.00012	5
21158	0.00024	-0.00011	0.0001	1e-05	-0.00053	-1e-05	-2e-05	0.00012	5
21159	0.00024	-0.00011	0.0001	1e-05	-0.00053	-1e-05	-2e-05	0.00012	5
21160	0.00024	-0.00011	0.0001	1e-05	-0.00053	-1e-05	-2e-05	0.00012	5
21161	0.00024	-0.00011	0.0001	1e-05	-0.00053	-1e-05	-2e-05	0.00012	5
21162	0.00024	-0.00011	0.0001	1e-05	-0.00053	-1e-05	-2e-05	0.00012	5
21163	0.00024	-0.00011	0.0001	1e-05	-0.00053	-1e-05	-2e-05	0.00012	5
21164	0.00024	-0.00011	0.0001	1e-05	-0.00053	-1e-05	-2e-05	0.00012	5
21165	0.00024	-0.00011	0.0001	1e-05	-0.00053	-1e-05	-2e-05	0.00012	5
21166	0.00024	-0.00011	0.0001	1e-05	-0.00053	-1e-05	-2e-05	0.00012	5
21167	0.00024	-0.00011	0.0001	1e-05	-0.00053	-1e-05	-2e-05	0.00012	5
21168	0.00024	-0.00011	0.0001	1e-05	-0.00053	-1e-05	-2e-05	0.00012	5
21169	0.00024	-0.00011	0.0001	1e-05	-0.00053	-1e-05	-2e-05	0.00012	5
21170	0.00024	-0.00011	0.0001	1e-05	-0.00053	-1e-05	-2e-05	0.00012	5
21172	0.00024	-0.00011	0.0001	1e-05	-0.00053	-1e-05	-2e-05	0.00012	5
21173	0.00024	-0.00011	0.0001	1e-05	-0.00053	-1e-05	-2e-05	0.00012	5
21174	-0.00032	-0.00021	0.0001	0.00058	0.00061	7e-05	-5e-05	-8e-05	5
21175	-0.00032	-0.00021	0.0001	0.00058	0.00061	7e-05	-5e-05	-8e-05	5
21176	-0.00032	-0.00021	0.0001	0.00058	0.00061	7e-05	-5e-05	-8e-05	5
21177	-0.00032	-0.00021	0.0001	0.00058	0.00061	7e-05	-5e-05	-8e-05	5
21178	-0.00032	-0.00021	0.0001	0.00058	0.00061	7e-05	-5e-05	-8e-05	5
21179	-0.00032	-0.00021	0.0001	0.00058	0.00061	7e-05	-5e-05	-8e-05	5
21180	-0.00032	-0.00021	0.0001	0.00058	0.00061	7e-05	-5e-05	-8e-05	5
21181	-0.00032	-0.00021	0.0001	0.00058	0.00061	7e-05	-5e-05	-8e-05	5
21182	-0.00032	-0.00021	0.0001	0.00058	0.00061	7e-05	-5e-05	-8e-05	5
21183	-0.00032	-0.00021	0.0001	0.00058	0.00061	7e-05	-5e-05	-8e-05	5
21184	-0.00032	-0.00021	0.0001	0.00058	0.00061	7e-05	-5e-05	-8e-05	5
21185	-0.00032	-0.00021	0.0001	0.00058	0.00061	7e-05	-5e-05	-8e-05	5
21186	-0.00032	-0.00021	0.0001	0.00058	0.00061	7e-05	-5e-05	-8e-05	5
21187	-0.00011	-1e-05	-7e-05	-0.00029	-6e-05	0.00013	0.0001	3e-05	5
21188	0.00021	0.00038	4e-05	0.00025	-1e-05	-2e-05	-7e-05	-0.0001	5
21189	0.00021	0.00038	4e-05	0.00025	-1e-05	-2e-05	-7e-05	-0.0001	5
21190	0.00021	0.00038	4e-05	0.00025	-1e-05	-2e-05	-7e-05	-0.0001	5
21191	0.00021	0.00038	4e-05	0.00025	-1e-05	-2e-05	-7e-05	-0.0001	5
21192	0.00021	0.00038	4e-05	0.00025	-1e-05	-2e-05	-7e-05	-0.0001	5
21193	0.00021	0.00038	4e-05	0.00025	-1e-05	-2e-05	-7e-05	-0.0001	5
21194	-0.00029	-0.00054	-0.00041	-0.00072	0.0001	-0.00016	-2e-05	-8e-05	5
21195	-0.00029	-0.00054	-0.00041	-0.00072	0.0001	-0.00016	-2e-05	-8e-05	5
21196	-0.00029	-0.00054	-0.00041	-0.00072	0.0001	-0.00016	-2e-05	-8e-05	5
21197	-0.00029	-0.00054	-0.00041	-0.00072	0.0001	-0.00016	-2e-05	-8e-05	5
21198	-0.00029	-0.00054	-0.00041	-0.00072	0.0001	-0.00016	-2e-05	-8e-05	5
21199	-0.00029	-0.00054	-0.00041	-0.00072	0.0001	-0.00016	-2e-05	-8e-05	5
21200	-0.00029	-0.00054	-0.00041	-0.00072	0.0001	-0.00016	-2e-05	-8e-05	5
21201	-0.00029	-0.00054	-0.00041	-0.00072	0.0001	-0.00016	-2e-05	-8e-05	5
21202	-0.00029	-0.00054	-0.00041	-0.00072	0.0001	-0.00016	-2e-05	-8e-05	5
21203	-0.00029	-0.00054	-0.00041	-0.00072	0.0001	-0.00016	-2e-05	-8e-05	5
21204	-0.00029	-0.00054	-0.00041	-0.00072	0.0001	-0.00016	-2e-05	-8e-05	5
21205	-0.00029	-0.00054	-0.00041	-0.00072	0.0001	-0.00016	-2e-05	-8e-05	5
21206	-0.00029	-0.00054	-0.00041	-0.00072	0.0001	-0.00016	-2e-05	-8e-05	5
21207	-0.00029	-0.00054	-0.00041	-0.00072	0.0001	-0.00016	-2e-05	-8e-05	5
21208	-0.00029	-0.00054	-0.00041	-0.00072	0.0001	-0.00016	-2e-05	-8e-05	5
21209	-0.00029	-0.00054	-0.00041	-0.00072	0.0001	-0.00016	-2e-05	-8e-05	5
21210	-0.00061	-0.00076	-0.00011	-0.00011	5e-05	-7e-05	-6e-05	-0.00018	5
21211	-0.00061	-0.00076	-0.00011	-0.00011	5e-05	-7e-05	-6e-05	-0.00018	5
21212	-0.00061	-0.00076	-0.00011	-0.00011	5e-05	-7e-05	-6e-05	-0.00018	5
21213	-0.00061	-0.00076	-0.00011	-0.00011	5e-05	-7e-05	-6e-05	-0.00018	5
21214	-0.00061	-0.00076	-0.00011	-0.00011	5e-05	-7e-05	-6e-05	-0.00018	5
21215	0.0003	0.00017	6e-05	-8e-05	-0.0009	1e-05	2e-05	2e-05	5
21216	0.0003	0.00017	6e-05	-8e-05	-0.0009	1e-05	2e-05	2e-05	5
21218	0.0003	0.00017	6e-05	-8e-05	-0.0009	1e-05	2e-05	2e-05	5
21219	0.0003	0.00017	6e-05	-8e-05	-0.0009	1e-05	2e-05	2e-05	5
21220	0.0003	0.00017	6e-05	-8e-05	-0.0009	1e-05	2e-05	2e-05	5
21221	0.0003	0.00017	6e-05	-8e-05	-0.0009	1e-05	2e-05	2e-05	5
21222	0.0003	0.00017	6e-05	-8e-05	-0.0009	1e-05	2e-05	2e-05	5
21223	0.0003	0.00017	6e-05	-8e-05	-0.0009	1e-05	2e-05	2e-05	5
21224	0.0003	0.00017	6e-05	-8e-05	-0.0009	1e-05	2e-05	2e-05	5
21225	0.0003	0.00017	6e-05	-8e-05	-0.0009	1e-05	2e-05	2e-05	5
21226	0.0003	0.00017	6e-05	-8e-05	-0.0009	1e-05	2e-05	2e-05	5
21227	0.0003	0.00017	6e-05	-8e-05	-0.0009	1e-05	2e-05	2e-05	5
21228	0.0003	0.00017	6e-05	-8e-05	-0.0009	1e-05	2e-05	2e-05	5
21229	0.0003	0.00017	6e-05	-8e-05	-0.0009	1e-05	2e-05	2e-05	5
21230	0.0003	0.00017	6e-05	-8e-05	-0.0009	1e-05	2e-05	2e-05	5
21231	0.0003	0.00017	6e-05	-8e-05	-0.0009	1e-05	2e-05	2e-05	5
21232	0.0003	0.00017	6e-05	-8e-05	-0.0009	1e-05	2e-05	2e-05	5
21233	-2e-05	-0.00026	-1e-05	1e-05	-0.00031	-0.00012	-4e-05	-3e-05	5
21234	-4e-05	-7e-05	-0.00026	-0.00063	-4e-05	-1e-05	-5e-05	-8e-05	5
21235	-4e-05	-7e-05	-0.00026	-0.00063	-4e-05	-1e-05	-5e-05	-8e-05	5
21236	-4e-05	-7e-05	-0.00026	-0.00063	-4e-05	-1e-05	-5e-05	-8e-05	5
21237	-4e-05	-7e-05	-0.00026	-0.00063	-4e-05	-1e-05	-5e-05	-8e-05	5
21238	-4e-05	-7e-05	-0.00026	-0.00063	-4e-05	-1e-05	-5e-05	-8e-05	5
21239	-4e-05	-7e-05	-0.00026	-0.00063	-4e-05	-1e-05	-5e-05	-8e-05	5
21240	-4e-05	-7e-05	-0.00026	-0.00063	-4e-05	-1e-05	-5e-05	-8e-05	5
21241	-4e-05	-7e-05	-0.00026	-0.00063	-4e-05	-1e-05	-5e-05	-8e-05	5
21242	-4e-05	-7e-05	-0.00026	-0.00063	-4e-05	-1e-05	-5e-05	-8e-05	5
21243	-4e-05	-7e-05	-0.00026	-0.00063	-4e-05	-1e-05	-5e-05	-8e-05	5
21244	-4e-05	-7e-05	-0.00026	-0.00063	-4e-05	-1e-05	-5e-05	-8e-05	5
21245	-4e-05	-7e-05	-0.00026	-0.00063	-4e-05	-1e-05	-5e-05	-8e-05	5
21246	-4e-05	-7e-05	-0.00026	-0.00063	-4e-05	-1e-05	-5e-05	-8e-05	5
21247	0	0.0003	0.00022	0.00024	-1e-05	0.00012	-0.00011	-2e-05	5
21248	0	0.0003	0.00022	0.00024	-1e-05	0.00012	-0.00011	-2e-05	5
21249	0	0.0003	0.00022	0.00024	-1e-05	0.00012	-0.00011	-2e-05	5
21250	0	0.0003	0.00022	0.00024	-1e-05	0.00012	-0.00011	-2e-05	5
21251	0	0.0003	0.00022	0.00024	-1e-05	0.00012	-0.00011	-2e-05	5
21252	0	0.0003	0.00022	0.00024	-1e-05	0.00012	-0.00011	-2e-05	5
21253	0	0.0003	0.00022	0.00024	-1e-05	0.00012	-0.00011	-2e-05	5
21254	-0.00015	-0.00033	9e-05	0.0006	-0.00032	-0.00012	-3e-05	-1e-05	5
21255	-0.00015	-0.00033	9e-05	0.0006	-0.00032	-0.00012	-3e-05	-1e-05	5
21256	-0.00015	-0.00033	9e-05	0.0006	-0.00032	-0.00012	-3e-05	-1e-05	5
21257	-0.00015	-0.00033	9e-05	0.0006	-0.00032	-0.00012	-3e-05	-1e-05	5
21258	-0.00015	-0.00033	9e-05	0.0006	-0.00032	-0.00012	-3e-05	-1e-05	5
21259	-0.00015	-0.00033	9e-05	0.0006	-0.00032	-0.00012	-3e-05	-1e-05	5
21260	-0.00015	-0.00033	9e-05	0.0006	-0.00032	-0.00012	-3e-05	-1e-05	5
21261	-0.00015	-0.00033	9e-05	0.0006	-0.00032	-0.00012	-3e-05	-1e-05	5
21262	-0.00015	-0.00033	9e-05	0.0006	-0.00032	-0.00012	-3e-05	-1e-05	5
21263	-0.00015	-0.00033	9e-05	0.0006	-0.00032	-0.00012	-3e-05	-1e-05	5
21264	-0.00015	-0.00033	9e-05	0.0006	-0.00032	-0.00012	-3e-05	-1e-05	5
21266	-0.00015	-0.00033	9e-05	0.0006	-0.00032	-0.00012	-3e-05	-1e-05	5
21267	-0.00015	-0.00033	9e-05	0.0006	-0.00032	-0.00012	-3e-05	-1e-05	5
21268	-0.00015	-0.00033	9e-05	0.0006	-0.00032	-0.00012	-3e-05	-1e-05	5
21269	-0.00015	-0.00033	9e-05	0.0006	-0.00032	-0.00012	-3e-05	-1e-05	5
21270	4e-05	0.00052	2e-05	-0.00038	-0.00066	-0.00012	4e-05	0	5
21271	4e-05	0.00052	2e-05	-0.00038	-0.00066	-0.00012	4e-05	0	5
21272	0.0005	0.00066	0.00027	0.00066	0.00027	0.00028	0.00012	0.00011	5
21273	0.0005	0.00066	0.00027	0.00066	0.00027	0.00028	0.00012	0.00011	5
21274	0.0005	0.00066	0.00027	0.00066	0.00027	0.00028	0.00012	0.00011	5
21275	0.0005	0.00066	0.00027	0.00066	0.00027	0.00028	0.00012	0.00011	5
21276	0.0005	0.00066	0.00027	0.00066	0.00027	0.00028	0.00012	0.00011	5
21277	0.0005	0.00066	0.00027	0.00066	0.00027	0.00028	0.00012	0.00011	5
21278	0.0005	0.00066	0.00027	0.00066	0.00027	0.00028	0.00012	0.00011	5
21279	0.0005	0.00066	0.00027	0.00066	0.00027	0.00028	0.00012	0.00011	5
21280	0.0005	0.00066	0.00027	0.00066	0.00027	0.00028	0.00012	0.00011	5
21281	0.0005	0.00066	0.00027	0.00066	0.00027	0.00028	0.00012	0.00011	5
21282	0.0005	0.00066	0.00027	0.00066	0.00027	0.00028	0.00012	0.00011	5
21283	0.0005	0.00066	0.00027	0.00066	0.00027	0.00028	0.00012	0.00011	5
21284	0.0005	0.00066	0.00027	0.00066	0.00027	0.00028	0.00012	0.00011	5
21285	0.0005	0.00066	0.00027	0.00066	0.00027	0.00028	0.00012	0.00011	5
21286	0.0005	0.00066	0.00027	0.00066	0.00027	0.00028	0.00012	0.00011	5
21287	0.0005	0.00066	0.00027	0.00066	0.00027	0.00028	0.00012	0.00011	5
21288	0.0005	0.00066	0.00027	0.00066	0.00027	0.00028	0.00012	0.00011	5
21289	0.0005	0.00066	0.00027	0.00066	0.00027	0.00028	0.00012	0.00011	5
21290	0.0005	0.00066	0.00027	0.00066	0.00027	0.00028	0.00012	0.00011	5
21291	0.0005	0.00066	0.00027	0.00066	0.00027	0.00028	0.00012	0.00011	5
21292	0.0005	0.00066	0.00027	0.00066	0.00027	0.00028	0.00012	0.00011	5
21293	4e-05	-7e-05	1e-05	0.00074	0.00084	0.00024	0.00016	1e-05	5
21294	3e-05	-1e-05	2e-05	0.00032	2e-05	2e-05	-5e-05	-3e-05	5
21295	3e-05	-1e-05	2e-05	0.00032	2e-05	2e-05	-5e-05	-3e-05	5
21296	3e-05	-1e-05	2e-05	0.00032	2e-05	2e-05	-5e-05	-3e-05	5
21297	3e-05	-1e-05	2e-05	0.00032	2e-05	2e-05	-5e-05	-3e-05	5
21298	3e-05	-1e-05	2e-05	0.00032	2e-05	2e-05	-5e-05	-3e-05	5
21299	3e-05	-1e-05	2e-05	0.00032	2e-05	2e-05	-5e-05	-3e-05	5
21300	3e-05	-1e-05	2e-05	0.00032	2e-05	2e-05	-5e-05	-3e-05	5
21301	3e-05	-1e-05	2e-05	0.00032	2e-05	2e-05	-5e-05	-3e-05	5
21302	3e-05	-1e-05	2e-05	0.00032	2e-05	2e-05	-5e-05	-3e-05	5
21303	3e-05	-1e-05	2e-05	0.00032	2e-05	2e-05	-5e-05	-3e-05	5
21304	3e-05	-1e-05	2e-05	0.00032	2e-05	2e-05	-5e-05	-3e-05	5
21305	3e-05	-1e-05	2e-05	0.00032	2e-05	2e-05	-5e-05	-3e-05	5
21306	3e-05	-1e-05	2e-05	0.00032	2e-05	2e-05	-5e-05	-3e-05	5
21307	0.00022	0.00025	1e-05	-0.00076	-0.00028	-2e-05	1e-05	-5e-05	5
21308	0.00022	0.00025	1e-05	-0.00076	-0.00028	-2e-05	1e-05	-5e-05	5
21309	0.00022	0.00025	1e-05	-0.00076	-0.00028	-2e-05	1e-05	-5e-05	5
21310	0.00022	0.00025	1e-05	-0.00076	-0.00028	-2e-05	1e-05	-5e-05	5
21311	0.00022	0.00025	1e-05	-0.00076	-0.00028	-2e-05	1e-05	-5e-05	5
21313	0.00022	0.00025	1e-05	-0.00076	-0.00028	-2e-05	1e-05	-5e-05	5
21314	-7e-05	-5e-05	-0.0001	-0.00014	-0.0003	-0.00027	-8e-05	-1e-05	5
21315	-7e-05	-5e-05	-0.0001	-0.00014	-0.0003	-0.00027	-8e-05	-1e-05	5
21316	-7e-05	-5e-05	-0.0001	-0.00014	-0.0003	-0.00027	-8e-05	-1e-05	5
21317	-7e-05	-5e-05	-0.0001	-0.00014	-0.0003	-0.00027	-8e-05	-1e-05	5
21318	-7e-05	-5e-05	-0.0001	-0.00014	-0.0003	-0.00027	-8e-05	-1e-05	5
21319	-7e-05	-5e-05	-0.0001	-0.00014	-0.0003	-0.00027	-8e-05	-1e-05	5
21320	-7e-05	-5e-05	-0.0001	-0.00014	-0.0003	-0.00027	-8e-05	-1e-05	5
21321	-7e-05	-5e-05	-0.0001	-0.00014	-0.0003	-0.00027	-8e-05	-1e-05	5
21322	-7e-05	-5e-05	-0.0001	-0.00014	-0.0003	-0.00027	-8e-05	-1e-05	5
21323	-7e-05	-5e-05	-0.0001	-0.00014	-0.0003	-0.00027	-8e-05	-1e-05	5
21324	-7e-05	-5e-05	-0.0001	-0.00014	-0.0003	-0.00027	-8e-05	-1e-05	5
21325	-7e-05	-5e-05	-0.0001	-0.00014	-0.0003	-0.00027	-8e-05	-1e-05	5
21326	-7e-05	-5e-05	-0.0001	-0.00014	-0.0003	-0.00027	-8e-05	-1e-05	5
21327	-7e-05	-5e-05	-0.0001	-0.00014	-0.0003	-0.00027	-8e-05	-1e-05	5
21328	-7e-05	-5e-05	-0.0001	-0.00014	-0.0003	-0.00027	-8e-05	-1e-05	5
21329	-7e-05	-5e-05	-0.0001	-0.00014	-0.0003	-0.00027	-8e-05	-1e-05	5
21330	-0.00016	-0.00034	-0.00022	-0.0002	0.0003	-4e-05	-6e-05	-8e-05	5
21331	-0.00016	-0.00034	-0.00022	-0.0002	0.0003	-4e-05	-6e-05	-8e-05	5
21332	3e-05	0.00053	0.00012	0.0001	0.00041	4e-05	-3e-05	-4e-05	5
21333	3e-05	0.00053	0.00012	0.0001	0.00041	4e-05	-3e-05	-4e-05	5
21334	3e-05	0.00053	0.00012	0.0001	0.00041	4e-05	-3e-05	-4e-05	5
21335	3e-05	0.00053	0.00012	0.0001	0.00041	4e-05	-3e-05	-4e-05	5
21336	3e-05	0.00053	0.00012	0.0001	0.00041	4e-05	-3e-05	-4e-05	5
21337	3e-05	0.00053	0.00012	0.0001	0.00041	4e-05	-3e-05	-4e-05	5
21338	3e-05	0.00053	0.00012	0.0001	0.00041	4e-05	-3e-05	-4e-05	5
21339	3e-05	0.00053	0.00012	0.0001	0.00041	4e-05	-3e-05	-4e-05	5
21340	3e-05	0.00053	0.00012	0.0001	0.00041	4e-05	-3e-05	-4e-05	5
21341	3e-05	0.00053	0.00012	0.0001	0.00041	4e-05	-3e-05	-4e-05	5
21342	3e-05	0.00053	0.00012	0.0001	0.00041	4e-05	-3e-05	-4e-05	5
21343	3e-05	0.00053	0.00012	0.0001	0.00041	4e-05	-3e-05	-4e-05	5
21344	3e-05	0.00053	0.00012	0.0001	0.00041	4e-05	-3e-05	-4e-05	5
21345	3e-05	0.00053	0.00012	0.0001	0.00041	4e-05	-3e-05	-4e-05	5
21346	3e-05	0.00053	0.00012	0.0001	0.00041	4e-05	-3e-05	-4e-05	5
21347	3e-05	0.00053	0.00012	0.0001	0.00041	4e-05	-3e-05	-4e-05	5
21348	3e-05	0.00053	0.00012	0.0001	0.00041	4e-05	-3e-05	-4e-05	5
21349	3e-05	0.00053	0.00012	0.0001	0.00041	4e-05	-3e-05	-4e-05	5
21350	3e-05	0.00053	0.00012	0.0001	0.00041	4e-05	-3e-05	-4e-05	5
21351	3e-05	0.00053	0.00012	0.0001	0.00041	4e-05	-3e-05	-4e-05	5
21352	3e-05	0.00053	0.00012	0.0001	0.00041	4e-05	-3e-05	-4e-05	5
21353	1e-05	-9e-05	-0.00013	0.00013	-0.00028	-0.00023	-2e-05	1e-05	5
21354	0.00019	0.00032	-0.00011	-0.0003	-0.00014	6e-05	0	0	5
21355	0.00019	0.00032	-0.00011	-0.0003	-0.00014	6e-05	0	0	5
21356	0.00019	0.00032	-0.00011	-0.0003	-0.00014	6e-05	0	0	5
21357	0.00019	0.00032	-0.00011	-0.0003	-0.00014	6e-05	0	0	5
21359	0.00019	0.00032	-0.00011	-0.0003	-0.00014	6e-05	0	0	5
21360	0.00019	0.00032	-0.00011	-0.0003	-0.00014	6e-05	0	0	5
21361	0.00019	0.00032	-0.00011	-0.0003	-0.00014	6e-05	0	0	5
21362	0.00019	0.00032	-0.00011	-0.0003	-0.00014	6e-05	0	0	5
21363	0.00019	0.00032	-0.00011	-0.0003	-0.00014	6e-05	0	0	5
21364	0.00019	0.00032	-0.00011	-0.0003	-0.00014	6e-05	0	0	5
21365	0.00019	0.00032	-0.00011	-0.0003	-0.00014	6e-05	0	0	5
21366	9e-05	8e-05	-2e-05	-9e-05	-0.00091	-5e-05	0	3e-05	5
21367	9e-05	8e-05	-2e-05	-9e-05	-0.00091	-5e-05	0	3e-05	5
21368	9e-05	8e-05	-2e-05	-9e-05	-0.00091	-5e-05	0	3e-05	5
21369	9e-05	8e-05	-2e-05	-9e-05	-0.00091	-5e-05	0	3e-05	5
21370	9e-05	8e-05	-2e-05	-9e-05	-0.00091	-5e-05	0	3e-05	5
21371	9e-05	8e-05	-2e-05	-9e-05	-0.00091	-5e-05	0	3e-05	5
21372	9e-05	8e-05	-2e-05	-9e-05	-0.00091	-5e-05	0	3e-05	5
21373	9e-05	8e-05	-2e-05	-9e-05	-0.00091	-5e-05	0	3e-05	5
21374	9e-05	8e-05	-2e-05	-9e-05	-0.00091	-5e-05	0	3e-05	5
21375	0.00033	4e-05	0.00013	2e-05	-9e-05	0.00024	0.0001	8e-05	5
21376	0.00033	4e-05	0.00013	2e-05	-9e-05	0.00024	0.0001	8e-05	5
21377	0.00033	4e-05	0.00013	2e-05	-9e-05	0.00024	0.0001	8e-05	5
21378	0.00033	4e-05	0.00013	2e-05	-9e-05	0.00024	0.0001	8e-05	5
21379	0.00033	4e-05	0.00013	2e-05	-9e-05	0.00024	0.0001	8e-05	5
21380	0.00033	4e-05	0.00013	2e-05	-9e-05	0.00024	0.0001	8e-05	5
21381	0.00033	4e-05	0.00013	2e-05	-9e-05	0.00024	0.0001	8e-05	5
21382	0.00033	4e-05	0.00013	2e-05	-9e-05	0.00024	0.0001	8e-05	5
21383	0.00033	4e-05	0.00013	2e-05	-9e-05	0.00024	0.0001	8e-05	5
21384	0.00033	4e-05	0.00013	2e-05	-9e-05	0.00024	0.0001	8e-05	5
21385	0.00033	4e-05	0.00013	2e-05	-9e-05	0.00024	0.0001	8e-05	5
21386	0.00033	4e-05	0.00013	2e-05	-9e-05	0.00024	0.0001	8e-05	5
21387	0.00033	4e-05	0.00013	2e-05	-9e-05	0.00024	0.0001	8e-05	5
21388	0.00033	4e-05	0.00013	2e-05	-9e-05	0.00024	0.0001	8e-05	5
21389	0.00033	4e-05	0.00013	2e-05	-9e-05	0.00024	0.0001	8e-05	5
21390	0.00032	-4e-05	-0.00015	-0.00018	-0.00036	-0.00014	-6e-05	0	5
21391	0.00032	-4e-05	-0.00015	-0.00018	-0.00036	-0.00014	-6e-05	0	5
21392	-0.00012	-0.00025	0.00027	0.00053	9e-05	0.00019	0.00011	8e-05	5
21393	-0.00012	-0.00025	0.00027	0.00053	9e-05	0.00019	0.00011	8e-05	5
21394	-0.00012	-0.00025	0.00027	0.00053	9e-05	0.00019	0.00011	8e-05	5
21395	-0.00012	-0.00025	0.00027	0.00053	9e-05	0.00019	0.00011	8e-05	5
21396	-0.00012	-0.00025	0.00027	0.00053	9e-05	0.00019	0.00011	8e-05	5
21397	-0.00012	-0.00025	0.00027	0.00053	9e-05	0.00019	0.00011	8e-05	5
21398	-0.00012	-0.00025	0.00027	0.00053	9e-05	0.00019	0.00011	8e-05	5
21399	-0.00012	-0.00025	0.00027	0.00053	9e-05	0.00019	0.00011	8e-05	5
21400	-0.00012	-0.00025	0.00027	0.00053	9e-05	0.00019	0.00011	8e-05	5
21401	-0.00012	-0.00025	0.00027	0.00053	9e-05	0.00019	0.00011	8e-05	5
21402	-0.00012	-0.00025	0.00027	0.00053	9e-05	0.00019	0.00011	8e-05	5
21403	-0.00012	-0.00025	0.00027	0.00053	9e-05	0.00019	0.00011	8e-05	5
21404	-0.00012	-0.00025	0.00027	0.00053	9e-05	0.00019	0.00011	8e-05	5
21406	-0.00012	-0.00025	0.00027	0.00053	9e-05	0.00019	0.00011	8e-05	5
21407	-0.00012	-0.00025	0.00027	0.00053	9e-05	0.00019	0.00011	8e-05	5
21408	-0.00012	-0.00025	0.00027	0.00053	9e-05	0.00019	0.00011	8e-05	5
21409	-0.00012	-0.00025	0.00027	0.00053	9e-05	0.00019	0.00011	8e-05	5
21410	-0.00012	-0.00025	0.00027	0.00053	9e-05	0.00019	0.00011	8e-05	5
21411	-0.00012	-0.00025	0.00027	0.00053	9e-05	0.00019	0.00011	8e-05	5
21412	-0.00012	-0.00025	0.00027	0.00053	9e-05	0.00019	0.00011	8e-05	5
21413	0.00023	0.00026	-4e-05	-0.00055	-0.00093	-0.00013	7e-05	-1e-05	5
21414	-0.00014	-0.00016	-7e-05	0.00023	0.00039	-4e-05	-2e-05	-0.00013	5
21415	-0.00014	-0.00016	-7e-05	0.00023	0.00039	-4e-05	-2e-05	-0.00013	5
21416	-0.00014	-0.00016	-7e-05	0.00023	0.00039	-4e-05	-2e-05	-0.00013	5
21417	-0.00014	-0.00016	-7e-05	0.00023	0.00039	-4e-05	-2e-05	-0.00013	5
21418	-0.00014	-0.00016	-7e-05	0.00023	0.00039	-4e-05	-2e-05	-0.00013	5
21419	-0.00014	-0.00016	-7e-05	0.00023	0.00039	-4e-05	-2e-05	-0.00013	5
21420	-0.00014	-0.00016	-7e-05	0.00023	0.00039	-4e-05	-2e-05	-0.00013	5
21421	-0.00014	-0.00016	-7e-05	0.00023	0.00039	-4e-05	-2e-05	-0.00013	5
21422	-0.00014	-0.00016	-7e-05	0.00023	0.00039	-4e-05	-2e-05	-0.00013	5
21423	-0.00014	-0.00016	-7e-05	0.00023	0.00039	-4e-05	-2e-05	-0.00013	5
21424	-0.00014	-0.00016	-7e-05	0.00023	0.00039	-4e-05	-2e-05	-0.00013	5
21425	-0.00014	-0.00016	-7e-05	0.00023	0.00039	-4e-05	-2e-05	-0.00013	5
21426	-0.0001	0.00035	0.00016	0.00087	0.00016	-1e-05	2e-05	8e-05	5
21427	-0.0001	0.00035	0.00016	0.00087	0.00016	-1e-05	2e-05	8e-05	5
21428	-0.0001	0.00035	0.00016	0.00087	0.00016	-1e-05	2e-05	8e-05	5
21429	-0.0001	0.00035	0.00016	0.00087	0.00016	-1e-05	2e-05	8e-05	5
21430	-0.0001	0.00035	0.00016	0.00087	0.00016	-1e-05	2e-05	8e-05	5
21431	-0.0001	0.00035	0.00016	0.00087	0.00016	-1e-05	2e-05	8e-05	5
21432	-0.0001	0.00035	0.00016	0.00087	0.00016	-1e-05	2e-05	8e-05	5
21433	-0.0001	0.00035	0.00016	0.00087	0.00016	-1e-05	2e-05	8e-05	5
21434	-0.0001	0.00035	0.00016	0.00087	0.00016	-1e-05	2e-05	8e-05	5
21435	-0.0001	-0.00012	-7e-05	-0.00018	-0.00017	-0.00015	-0.00013	-7e-05	5
21436	-0.0001	-0.00012	-7e-05	-0.00018	-0.00017	-0.00015	-0.00013	-7e-05	5
21437	-0.0001	-0.00012	-7e-05	-0.00018	-0.00017	-0.00015	-0.00013	-7e-05	5
21440	-0.0001	-0.00012	-7e-05	-0.00018	-0.00017	-0.00015	-0.00013	-7e-05	5
21441	-0.0001	-0.00012	-7e-05	-0.00018	-0.00017	-0.00015	-0.00013	-7e-05	5
21442	-0.0001	-0.00012	-7e-05	-0.00018	-0.00017	-0.00015	-0.00013	-7e-05	5
21443	-0.0001	-0.00012	-7e-05	-0.00018	-0.00017	-0.00015	-0.00013	-7e-05	5
21444	-0.0001	-0.00012	-7e-05	-0.00018	-0.00017	-0.00015	-0.00013	-7e-05	5
21445	-0.0001	-0.00012	-7e-05	-0.00018	-0.00017	-0.00015	-0.00013	-7e-05	5
21446	-0.0001	-0.00012	-7e-05	-0.00018	-0.00017	-0.00015	-0.00013	-7e-05	5
21447	-0.0001	-0.00012	-7e-05	-0.00018	-0.00017	-0.00015	-0.00013	-7e-05	5
21448	-0.0001	-0.00012	-7e-05	-0.00018	-0.00017	-0.00015	-0.00013	-7e-05	5
21449	-0.0001	-0.00012	-7e-05	-0.00018	-0.00017	-0.00015	-0.00013	-7e-05	5
21450	-1e-05	8e-05	7e-05	0.00046	0.00127	0.00017	2e-05	-3e-05	5
21451	-1e-05	8e-05	7e-05	0.00046	0.00127	0.00017	2e-05	-3e-05	5
21453	1e-05	8e-05	-0.00019	0.00019	0.00042	-0.00015	-4e-05	1e-05	5
21454	1e-05	8e-05	-0.00019	0.00019	0.00042	-0.00015	-4e-05	1e-05	5
21455	1e-05	8e-05	-0.00019	0.00019	0.00042	-0.00015	-4e-05	1e-05	5
21456	1e-05	8e-05	-0.00019	0.00019	0.00042	-0.00015	-4e-05	1e-05	5
21457	1e-05	8e-05	-0.00019	0.00019	0.00042	-0.00015	-4e-05	1e-05	5
21458	1e-05	8e-05	-0.00019	0.00019	0.00042	-0.00015	-4e-05	1e-05	5
21459	1e-05	8e-05	-0.00019	0.00019	0.00042	-0.00015	-4e-05	1e-05	5
21460	1e-05	8e-05	-0.00019	0.00019	0.00042	-0.00015	-4e-05	1e-05	5
21461	1e-05	8e-05	-0.00019	0.00019	0.00042	-0.00015	-4e-05	1e-05	5
21462	1e-05	8e-05	-0.00019	0.00019	0.00042	-0.00015	-4e-05	1e-05	5
21463	1e-05	8e-05	-0.00019	0.00019	0.00042	-0.00015	-4e-05	1e-05	5
21464	1e-05	8e-05	-0.00019	0.00019	0.00042	-0.00015	-4e-05	1e-05	5
21465	1e-05	8e-05	-0.00019	0.00019	0.00042	-0.00015	-4e-05	1e-05	5
21466	1e-05	8e-05	-0.00019	0.00019	0.00042	-0.00015	-4e-05	1e-05	5
21467	1e-05	8e-05	-0.00019	0.00019	0.00042	-0.00015	-4e-05	1e-05	5
21468	1e-05	8e-05	-0.00019	0.00019	0.00042	-0.00015	-4e-05	1e-05	5
21469	1e-05	8e-05	-0.00019	0.00019	0.00042	-0.00015	-4e-05	1e-05	5
21470	1e-05	8e-05	-0.00019	0.00019	0.00042	-0.00015	-4e-05	1e-05	5
21471	1e-05	8e-05	-0.00019	0.00019	0.00042	-0.00015	-4e-05	1e-05	5
21472	1e-05	8e-05	-0.00019	0.00019	0.00042	-0.00015	-4e-05	1e-05	5
21473	0.00018	0.00031	0.0002	0.00056	5e-05	0.00019	1e-05	1e-05	5
21474	2e-05	-0.00012	-0.0001	-0.00016	-0.00047	2e-05	5e-05	3e-05	5
21475	2e-05	-0.00012	-0.0001	-0.00016	-0.00047	2e-05	5e-05	3e-05	5
21476	2e-05	-0.00012	-0.0001	-0.00016	-0.00047	2e-05	5e-05	3e-05	5
21477	2e-05	-0.00012	-0.0001	-0.00016	-0.00047	2e-05	5e-05	3e-05	5
21478	2e-05	-0.00012	-0.0001	-0.00016	-0.00047	2e-05	5e-05	3e-05	5
21479	2e-05	-0.00012	-0.0001	-0.00016	-0.00047	2e-05	5e-05	3e-05	5
21480	2e-05	-0.00012	-0.0001	-0.00016	-0.00047	2e-05	5e-05	3e-05	5
21481	2e-05	-0.00012	-0.0001	-0.00016	-0.00047	2e-05	5e-05	3e-05	5
21482	2e-05	-0.00012	-0.0001	-0.00016	-0.00047	2e-05	5e-05	3e-05	5
21483	2e-05	-0.00012	-0.0001	-0.00016	-0.00047	2e-05	5e-05	3e-05	5
21484	2e-05	-0.00012	-0.0001	-0.00016	-0.00047	2e-05	5e-05	3e-05	5
21485	2e-05	-0.00012	-0.0001	-0.00016	-0.00047	2e-05	5e-05	3e-05	5
21486	-0.00017	-0.00034	0.0001	0.00045	-0.00013	-6e-05	1e-05	-1e-05	5
21487	-0.00017	-0.00034	0.0001	0.00045	-0.00013	-6e-05	1e-05	-1e-05	5
21490	-0.00017	-0.00034	0.0001	0.00045	-0.00013	-6e-05	1e-05	-1e-05	5
21491	-0.00017	-0.00034	0.0001	0.00045	-0.00013	-6e-05	1e-05	-1e-05	5
21492	-0.00017	-0.00034	0.0001	0.00045	-0.00013	-6e-05	1e-05	-1e-05	5
21493	-0.00017	-0.00034	0.0001	0.00045	-0.00013	-6e-05	1e-05	-1e-05	5
21494	-0.00017	-0.00034	0.0001	0.00045	-0.00013	-6e-05	1e-05	-1e-05	5
21495	-2e-05	-7e-05	-2e-05	-0.00014	-7e-05	0.00018	3e-05	1e-05	5
21496	-2e-05	-7e-05	-2e-05	-0.00014	-7e-05	0.00018	3e-05	1e-05	5
21497	-2e-05	-7e-05	-2e-05	-0.00014	-7e-05	0.00018	3e-05	1e-05	5
21498	-2e-05	-7e-05	-2e-05	-0.00014	-7e-05	0.00018	3e-05	1e-05	5
21500	-2e-05	-7e-05	-2e-05	-0.00014	-7e-05	0.00018	3e-05	1e-05	5
21501	-2e-05	-7e-05	-2e-05	-0.00014	-7e-05	0.00018	3e-05	1e-05	5
21502	-2e-05	-7e-05	-2e-05	-0.00014	-7e-05	0.00018	3e-05	1e-05	5
21503	-2e-05	-7e-05	-2e-05	-0.00014	-7e-05	0.00018	3e-05	1e-05	5
21504	-2e-05	-7e-05	-2e-05	-0.00014	-7e-05	0.00018	3e-05	1e-05	5
21505	-2e-05	-7e-05	-2e-05	-0.00014	-7e-05	0.00018	3e-05	1e-05	5
21506	-2e-05	-7e-05	-2e-05	-0.00014	-7e-05	0.00018	3e-05	1e-05	5
21507	-2e-05	-7e-05	-2e-05	-0.00014	-7e-05	0.00018	3e-05	1e-05	5
21508	-2e-05	-7e-05	-2e-05	-0.00014	-7e-05	0.00018	3e-05	1e-05	5
21509	-2e-05	-7e-05	-2e-05	-0.00014	-7e-05	0.00018	3e-05	1e-05	5
21510	-5e-05	-0.00016	-0.00022	-0.00116	-0.00071	-0.00022	-0.00012	-3e-05	5
21511	-5e-05	-0.00016	-0.00022	-0.00116	-0.00071	-0.00022	-0.00012	-3e-05	5
21512	-0.00012	-0.00043	-9e-05	-0.00107	-0.00023	-0.00017	-7e-05	-0.00012	5
21513	-0.00012	-0.00043	-9e-05	-0.00107	-0.00023	-0.00017	-7e-05	-0.00012	5
21514	-0.00012	-0.00043	-9e-05	-0.00107	-0.00023	-0.00017	-7e-05	-0.00012	5
21515	-0.00012	-0.00043	-9e-05	-0.00107	-0.00023	-0.00017	-7e-05	-0.00012	5
21516	-0.00012	-0.00043	-9e-05	-0.00107	-0.00023	-0.00017	-7e-05	-0.00012	5
21517	-0.00012	-0.00043	-9e-05	-0.00107	-0.00023	-0.00017	-7e-05	-0.00012	5
21518	-0.00012	-0.00043	-9e-05	-0.00107	-0.00023	-0.00017	-7e-05	-0.00012	5
21519	-0.00012	-0.00043	-9e-05	-0.00107	-0.00023	-0.00017	-7e-05	-0.00012	5
21520	-0.00012	-0.00043	-9e-05	-0.00107	-0.00023	-0.00017	-7e-05	-0.00012	5
21521	-0.00012	-0.00043	-9e-05	-0.00107	-0.00023	-0.00017	-7e-05	-0.00012	5
21522	-0.00012	-0.00043	-9e-05	-0.00107	-0.00023	-0.00017	-7e-05	-0.00012	5
21523	-0.00012	-0.00043	-9e-05	-0.00107	-0.00023	-0.00017	-7e-05	-0.00012	5
21524	-0.00012	-0.00043	-9e-05	-0.00107	-0.00023	-0.00017	-7e-05	-0.00012	5
21525	-0.00012	-0.00043	-9e-05	-0.00107	-0.00023	-0.00017	-7e-05	-0.00012	5
21526	-0.00012	-0.00043	-9e-05	-0.00107	-0.00023	-0.00017	-7e-05	-0.00012	5
21527	-0.00012	-0.00043	-9e-05	-0.00107	-0.00023	-0.00017	-7e-05	-0.00012	5
21528	-0.00012	-0.00043	-9e-05	-0.00107	-0.00023	-0.00017	-7e-05	-0.00012	5
21529	-0.00012	-0.00043	-9e-05	-0.00107	-0.00023	-0.00017	-7e-05	-0.00012	5
21530	-0.00012	-0.00043	-9e-05	-0.00107	-0.00023	-0.00017	-7e-05	-0.00012	5
21531	-0.00012	-0.00043	-9e-05	-0.00107	-0.00023	-0.00017	-7e-05	-0.00012	5
21532	-0.00012	-0.00043	-9e-05	-0.00107	-0.00023	-0.00017	-7e-05	-0.00012	5
21533	-0.00027	-2e-05	-2e-05	-0.00036	-0.00013	-3e-05	0	-3e-05	5
21534	-5e-05	-8e-05	-4e-05	1e-05	3e-05	-3e-05	3e-05	-4e-05	5
21535	-5e-05	-8e-05	-4e-05	1e-05	3e-05	-3e-05	3e-05	-4e-05	5
21536	-5e-05	-8e-05	-4e-05	1e-05	3e-05	-3e-05	3e-05	-4e-05	5
21537	-5e-05	-8e-05	-4e-05	1e-05	3e-05	-3e-05	3e-05	-4e-05	5
21538	-5e-05	-8e-05	-4e-05	1e-05	3e-05	-3e-05	3e-05	-4e-05	5
21539	-5e-05	-8e-05	-4e-05	1e-05	3e-05	-3e-05	3e-05	-4e-05	5
21540	-5e-05	-8e-05	-4e-05	1e-05	3e-05	-3e-05	3e-05	-4e-05	5
21541	-5e-05	-8e-05	-4e-05	1e-05	3e-05	-3e-05	3e-05	-4e-05	5
21542	-5e-05	-8e-05	-4e-05	1e-05	3e-05	-3e-05	3e-05	-4e-05	5
21543	-5e-05	-8e-05	-4e-05	1e-05	3e-05	-3e-05	3e-05	-4e-05	5
21544	-5e-05	-8e-05	-4e-05	1e-05	3e-05	-3e-05	3e-05	-4e-05	5
21546	-0.00013	-0.00028	-0.00022	-0.00027	-0.00051	-0.00016	-6e-05	-0.00015	5
21547	-0.00013	-0.00028	-0.00022	-0.00027	-0.00051	-0.00016	-6e-05	-0.00015	5
21548	-0.00013	-0.00028	-0.00022	-0.00027	-0.00051	-0.00016	-6e-05	-0.00015	5
21549	-0.00013	-0.00028	-0.00022	-0.00027	-0.00051	-0.00016	-6e-05	-0.00015	5
21550	-0.00013	-0.00028	-0.00022	-0.00027	-0.00051	-0.00016	-6e-05	-0.00015	5
21551	-0.00013	-0.00028	-0.00022	-0.00027	-0.00051	-0.00016	-6e-05	-0.00015	5
21552	-0.00013	-0.00028	-0.00022	-0.00027	-0.00051	-0.00016	-6e-05	-0.00015	5
21553	-0.00013	-0.00028	-0.00022	-0.00027	-0.00051	-0.00016	-6e-05	-0.00015	5
21554	-0.00013	-0.00028	-0.00022	-0.00027	-0.00051	-0.00016	-6e-05	-0.00015	5
21555	-4e-05	0.00016	0.00018	0.00108	0.00024	3e-05	-3e-05	-1e-05	5
21556	-4e-05	0.00016	0.00018	0.00108	0.00024	3e-05	-3e-05	-1e-05	5
21557	-4e-05	0.00016	0.00018	0.00108	0.00024	3e-05	-3e-05	-1e-05	5
21558	-4e-05	0.00016	0.00018	0.00108	0.00024	3e-05	-3e-05	-1e-05	5
21559	-4e-05	0.00016	0.00018	0.00108	0.00024	3e-05	-3e-05	-1e-05	5
21560	-4e-05	0.00016	0.00018	0.00108	0.00024	3e-05	-3e-05	-1e-05	5
21561	-4e-05	0.00016	0.00018	0.00108	0.00024	3e-05	-3e-05	-1e-05	5
21562	-4e-05	0.00016	0.00018	0.00108	0.00024	3e-05	-3e-05	-1e-05	5
21563	-4e-05	0.00016	0.00018	0.00108	0.00024	3e-05	-3e-05	-1e-05	5
21564	-4e-05	0.00016	0.00018	0.00108	0.00024	3e-05	-3e-05	-1e-05	5
21565	-4e-05	0.00016	0.00018	0.00108	0.00024	3e-05	-3e-05	-1e-05	5
21566	-4e-05	0.00016	0.00018	0.00108	0.00024	3e-05	-3e-05	-1e-05	5
21567	-4e-05	0.00016	0.00018	0.00108	0.00024	3e-05	-3e-05	-1e-05	5
21568	-4e-05	0.00016	0.00018	0.00108	0.00024	3e-05	-3e-05	-1e-05	5
21569	-4e-05	0.00016	0.00018	0.00108	0.00024	3e-05	-3e-05	-1e-05	5
21570	8e-05	0.00023	0.00011	3e-05	0.00023	8e-05	4e-05	2e-05	5
21571	8e-05	0.00023	0.00011	3e-05	0.00023	8e-05	4e-05	2e-05	5
21572	3e-05	8e-05	-0.00015	-0.00089	-0.00085	-0.00021	-7e-05	-7e-05	5
21573	3e-05	8e-05	-0.00015	-0.00089	-0.00085	-0.00021	-7e-05	-7e-05	5
21574	3e-05	8e-05	-0.00015	-0.00089	-0.00085	-0.00021	-7e-05	-7e-05	5
21575	3e-05	8e-05	-0.00015	-0.00089	-0.00085	-0.00021	-7e-05	-7e-05	5
21576	3e-05	8e-05	-0.00015	-0.00089	-0.00085	-0.00021	-7e-05	-7e-05	5
21577	3e-05	8e-05	-0.00015	-0.00089	-0.00085	-0.00021	-7e-05	-7e-05	5
21578	3e-05	8e-05	-0.00015	-0.00089	-0.00085	-0.00021	-7e-05	-7e-05	5
21579	3e-05	8e-05	-0.00015	-0.00089	-0.00085	-0.00021	-7e-05	-7e-05	5
21580	3e-05	8e-05	-0.00015	-0.00089	-0.00085	-0.00021	-7e-05	-7e-05	5
21581	3e-05	8e-05	-0.00015	-0.00089	-0.00085	-0.00021	-7e-05	-7e-05	5
21582	3e-05	8e-05	-0.00015	-0.00089	-0.00085	-0.00021	-7e-05	-7e-05	5
21583	3e-05	8e-05	-0.00015	-0.00089	-0.00085	-0.00021	-7e-05	-7e-05	5
21584	3e-05	8e-05	-0.00015	-0.00089	-0.00085	-0.00021	-7e-05	-7e-05	5
21585	3e-05	8e-05	-0.00015	-0.00089	-0.00085	-0.00021	-7e-05	-7e-05	5
21586	3e-05	8e-05	-0.00015	-0.00089	-0.00085	-0.00021	-7e-05	-7e-05	5
21587	3e-05	8e-05	-0.00015	-0.00089	-0.00085	-0.00021	-7e-05	-7e-05	5
21588	3e-05	8e-05	-0.00015	-0.00089	-0.00085	-0.00021	-7e-05	-7e-05	5
21589	3e-05	8e-05	-0.00015	-0.00089	-0.00085	-0.00021	-7e-05	-7e-05	5
21590	3e-05	8e-05	-0.00015	-0.00089	-0.00085	-0.00021	-7e-05	-7e-05	5
21591	3e-05	8e-05	-0.00015	-0.00089	-0.00085	-0.00021	-7e-05	-7e-05	5
21593	3e-05	8e-05	-0.00015	-0.00089	-0.00085	-0.00021	-7e-05	-7e-05	5
21594	-0.00014	0	0.00012	-0.00014	0.00025	-2e-05	-1e-05	-1e-05	5
21595	-0.00014	0	0.00012	-0.00014	0.00025	-2e-05	-1e-05	-1e-05	5
21596	-0.00014	0	0.00012	-0.00014	0.00025	-2e-05	-1e-05	-1e-05	5
21597	-0.00014	0	0.00012	-0.00014	0.00025	-2e-05	-1e-05	-1e-05	5
21598	-0.00014	0	0.00012	-0.00014	0.00025	-2e-05	-1e-05	-1e-05	5
21599	-0.00014	0	0.00012	-0.00014	0.00025	-2e-05	-1e-05	-1e-05	5
21600	-0.00014	0	0.00012	-0.00014	0.00025	-2e-05	-1e-05	-1e-05	5
21601	-0.00014	0	0.00012	-0.00014	0.00025	-2e-05	-1e-05	-1e-05	5
21602	-0.00014	0	0.00012	-0.00014	0.00025	-2e-05	-1e-05	-1e-05	5
21603	-0.00014	0	0.00012	-0.00014	0.00025	-2e-05	-1e-05	-1e-05	5
21604	-0.00014	0	0.00012	-0.00014	0.00025	-2e-05	-1e-05	-1e-05	5
21605	-0.00014	0	0.00012	-0.00014	0.00025	-2e-05	-1e-05	-1e-05	5
21606	-4e-05	-0.00016	1e-05	0.0006	0.00042	0.00015	6e-05	6e-05	5
21607	-4e-05	-0.00016	1e-05	0.0006	0.00042	0.00015	6e-05	6e-05	5
21608	-4e-05	-0.00016	1e-05	0.0006	0.00042	0.00015	6e-05	6e-05	5
21609	-4e-05	-0.00016	1e-05	0.0006	0.00042	0.00015	6e-05	6e-05	5
21610	-4e-05	-0.00016	1e-05	0.0006	0.00042	0.00015	6e-05	6e-05	5
21611	-4e-05	-0.00016	1e-05	0.0006	0.00042	0.00015	6e-05	6e-05	5
21612	-4e-05	-0.00016	1e-05	0.0006	0.00042	0.00015	6e-05	6e-05	5
21613	-4e-05	-0.00016	1e-05	0.0006	0.00042	0.00015	6e-05	6e-05	5
21614	-4e-05	-0.00016	1e-05	0.0006	0.00042	0.00015	6e-05	6e-05	5
21615	0.00013	-0.00042	0	-0.00012	-3e-05	5e-05	0	3e-05	5
21616	0.00013	-0.00042	0	-0.00012	-3e-05	5e-05	0	3e-05	5
21617	0.00013	-0.00042	0	-0.00012	-3e-05	5e-05	0	3e-05	5
21618	0.00013	-0.00042	0	-0.00012	-3e-05	5e-05	0	3e-05	5
21619	0.00013	-0.00042	0	-0.00012	-3e-05	5e-05	0	3e-05	5
21620	0.00013	-0.00042	0	-0.00012	-3e-05	5e-05	0	3e-05	5
21621	0.00013	-0.00042	0	-0.00012	-3e-05	5e-05	0	3e-05	5
21622	0.00013	-0.00042	0	-0.00012	-3e-05	5e-05	0	3e-05	5
21623	0.00013	-0.00042	0	-0.00012	-3e-05	5e-05	0	3e-05	5
21624	0.00013	-0.00042	0	-0.00012	-3e-05	5e-05	0	3e-05	5
21625	0.00013	-0.00042	0	-0.00012	-3e-05	5e-05	0	3e-05	5
21626	0.00013	-0.00042	0	-0.00012	-3e-05	5e-05	0	3e-05	5
21627	0.00013	-0.00042	0	-0.00012	-3e-05	5e-05	0	3e-05	5
21628	0.00013	-0.00042	0	-0.00012	-3e-05	5e-05	0	3e-05	5
21629	0.00013	-0.00042	0	-0.00012	-3e-05	5e-05	0	3e-05	5
21630	4e-05	0.00035	9e-05	0.00012	0.00046	-2e-05	2e-05	4e-05	5
21631	4e-05	0.00035	9e-05	0.00012	0.00046	-2e-05	2e-05	4e-05	5
21632	0.00017	0.00031	0.00011	0.00026	4e-05	2e-05	-9e-05	2e-05	5
21633	0.00017	0.00031	0.00011	0.00026	4e-05	2e-05	-9e-05	2e-05	5
21634	0.00017	0.00031	0.00011	0.00026	4e-05	2e-05	-9e-05	2e-05	5
21635	0.00017	0.00031	0.00011	0.00026	4e-05	2e-05	-9e-05	2e-05	5
21636	0.00017	0.00031	0.00011	0.00026	4e-05	2e-05	-9e-05	2e-05	5
21637	0.00017	0.00031	0.00011	0.00026	4e-05	2e-05	-9e-05	2e-05	5
21638	0.00017	0.00031	0.00011	0.00026	4e-05	2e-05	-9e-05	2e-05	5
21641	0.00017	0.00031	0.00011	0.00026	4e-05	2e-05	-9e-05	2e-05	5
21642	0.00017	0.00031	0.00011	0.00026	4e-05	2e-05	-9e-05	2e-05	5
21643	0.00017	0.00031	0.00011	0.00026	4e-05	2e-05	-9e-05	2e-05	5
21644	0.00017	0.00031	0.00011	0.00026	4e-05	2e-05	-9e-05	2e-05	5
21645	0.00017	0.00031	0.00011	0.00026	4e-05	2e-05	-9e-05	2e-05	5
21646	0.00017	0.00031	0.00011	0.00026	4e-05	2e-05	-9e-05	2e-05	5
21647	0.00017	0.00031	0.00011	0.00026	4e-05	2e-05	-9e-05	2e-05	5
21648	0.00017	0.00031	0.00011	0.00026	4e-05	2e-05	-9e-05	2e-05	5
21649	0.00017	0.00031	0.00011	0.00026	4e-05	2e-05	-9e-05	2e-05	5
21650	0.00017	0.00031	0.00011	0.00026	4e-05	2e-05	-9e-05	2e-05	5
21651	0.00017	0.00031	0.00011	0.00026	4e-05	2e-05	-9e-05	2e-05	5
21652	0.00017	0.00031	0.00011	0.00026	4e-05	2e-05	-9e-05	2e-05	5
21653	0.00016	-0.00016	-0.00012	-0.00033	0.00027	-4e-05	1e-05	-6e-05	5
21654	-0.00025	3e-05	2e-05	0.0002	0.0002	0.00013	4e-05	-1e-05	5
21655	-0.00025	3e-05	2e-05	0.0002	0.0002	0.00013	4e-05	-1e-05	5
21656	-0.00025	3e-05	2e-05	0.0002	0.0002	0.00013	4e-05	-1e-05	5
21657	-0.00025	3e-05	2e-05	0.0002	0.0002	0.00013	4e-05	-1e-05	5
21658	-0.00025	3e-05	2e-05	0.0002	0.0002	0.00013	4e-05	-1e-05	5
21659	-0.00025	3e-05	2e-05	0.0002	0.0002	0.00013	4e-05	-1e-05	5
21660	-0.00025	3e-05	2e-05	0.0002	0.0002	0.00013	4e-05	-1e-05	5
21661	-0.00025	3e-05	2e-05	0.0002	0.0002	0.00013	4e-05	-1e-05	5
21662	-0.00025	3e-05	2e-05	0.0002	0.0002	0.00013	4e-05	-1e-05	5
21663	-0.00025	3e-05	2e-05	0.0002	0.0002	0.00013	4e-05	-1e-05	5
21664	-0.00025	3e-05	2e-05	0.0002	0.0002	0.00013	4e-05	-1e-05	5
21665	-0.00025	3e-05	2e-05	0.0002	0.0002	0.00013	4e-05	-1e-05	5
21666	2e-05	8e-05	0	0.00028	0.00044	-5e-05	-6e-05	1e-05	5
21667	2e-05	8e-05	0	0.00028	0.00044	-5e-05	-6e-05	1e-05	5
21668	2e-05	8e-05	0	0.00028	0.00044	-5e-05	-6e-05	1e-05	5
21669	2e-05	8e-05	0	0.00028	0.00044	-5e-05	-6e-05	1e-05	5
21670	2e-05	8e-05	0	0.00028	0.00044	-5e-05	-6e-05	1e-05	5
21671	2e-05	8e-05	0	0.00028	0.00044	-5e-05	-6e-05	1e-05	5
21672	2e-05	8e-05	0	0.00028	0.00044	-5e-05	-6e-05	1e-05	5
21673	2e-05	8e-05	0	0.00028	0.00044	-5e-05	-6e-05	1e-05	5
21674	2e-05	8e-05	0	0.00028	0.00044	-5e-05	-6e-05	1e-05	5
21675	-7e-05	-8e-05	-2e-05	0.00016	-0.00014	-0.00012	-1e-05	-1e-05	5
21676	-7e-05	-8e-05	-2e-05	0.00016	-0.00014	-0.00012	-1e-05	-1e-05	5
21677	-7e-05	-8e-05	-2e-05	0.00016	-0.00014	-0.00012	-1e-05	-1e-05	5
21678	-7e-05	-8e-05	-2e-05	0.00016	-0.00014	-0.00012	-1e-05	-1e-05	5
21679	-7e-05	-8e-05	-2e-05	0.00016	-0.00014	-0.00012	-1e-05	-1e-05	5
21680	-7e-05	-8e-05	-2e-05	0.00016	-0.00014	-0.00012	-1e-05	-1e-05	5
21681	-7e-05	-8e-05	-2e-05	0.00016	-0.00014	-0.00012	-1e-05	-1e-05	5
21682	-7e-05	-8e-05	-2e-05	0.00016	-0.00014	-0.00012	-1e-05	-1e-05	5
21683	-7e-05	-8e-05	-2e-05	0.00016	-0.00014	-0.00012	-1e-05	-1e-05	5
21684	-7e-05	-8e-05	-2e-05	0.00016	-0.00014	-0.00012	-1e-05	-1e-05	5
21685	-7e-05	-8e-05	-2e-05	0.00016	-0.00014	-0.00012	-1e-05	-1e-05	5
21687	-7e-05	-8e-05	-2e-05	0.00016	-0.00014	-0.00012	-1e-05	-1e-05	5
21689	-7e-05	-8e-05	-2e-05	0.00016	-0.00014	-0.00012	-1e-05	-1e-05	5
21690	-0.00018	-0.00018	-0.00026	0	7e-05	0.00014	2e-05	3e-05	5
21691	-0.00018	-0.00018	-0.00026	0	7e-05	0.00014	2e-05	3e-05	5
21692	4e-05	-2e-05	1e-05	-0.00045	-7e-05	-0.00012	-8e-05	0	5
21693	4e-05	-2e-05	1e-05	-0.00045	-7e-05	-0.00012	-8e-05	0	5
21694	4e-05	-2e-05	1e-05	-0.00045	-7e-05	-0.00012	-8e-05	0	5
21695	4e-05	-2e-05	1e-05	-0.00045	-7e-05	-0.00012	-8e-05	0	5
21696	4e-05	-2e-05	1e-05	-0.00045	-7e-05	-0.00012	-8e-05	0	5
21697	4e-05	-2e-05	1e-05	-0.00045	-7e-05	-0.00012	-8e-05	0	5
21698	4e-05	-2e-05	1e-05	-0.00045	-7e-05	-0.00012	-8e-05	0	5
21699	4e-05	-2e-05	1e-05	-0.00045	-7e-05	-0.00012	-8e-05	0	5
21700	4e-05	-2e-05	1e-05	-0.00045	-7e-05	-0.00012	-8e-05	0	5
21701	4e-05	-2e-05	1e-05	-0.00045	-7e-05	-0.00012	-8e-05	0	5
21702	4e-05	-2e-05	1e-05	-0.00045	-7e-05	-0.00012	-8e-05	0	5
21703	4e-05	-2e-05	1e-05	-0.00045	-7e-05	-0.00012	-8e-05	0	5
21704	4e-05	-2e-05	1e-05	-0.00045	-7e-05	-0.00012	-8e-05	0	5
21705	4e-05	-2e-05	1e-05	-0.00045	-7e-05	-0.00012	-8e-05	0	5
21706	4e-05	-2e-05	1e-05	-0.00045	-7e-05	-0.00012	-8e-05	0	5
21707	4e-05	-2e-05	1e-05	-0.00045	-7e-05	-0.00012	-8e-05	0	5
21708	4e-05	-2e-05	1e-05	-0.00045	-7e-05	-0.00012	-8e-05	0	5
21709	4e-05	-2e-05	1e-05	-0.00045	-7e-05	-0.00012	-8e-05	0	5
21710	4e-05	-2e-05	1e-05	-0.00045	-7e-05	-0.00012	-8e-05	0	5
21711	4e-05	-2e-05	1e-05	-0.00045	-7e-05	-0.00012	-8e-05	0	5
21712	4e-05	-2e-05	1e-05	-0.00045	-7e-05	-0.00012	-8e-05	0	5
21713	0.00011	-8e-05	3e-05	-0.00043	-3e-05	-3e-05	-6e-05	1e-05	5
21714	5e-05	9e-05	-0.00021	-0.00017	-2e-05	-0.00024	-9e-05	-0.00012	5
21715	5e-05	9e-05	-0.00021	-0.00017	-2e-05	-0.00024	-9e-05	-0.00012	5
21716	5e-05	9e-05	-0.00021	-0.00017	-2e-05	-0.00024	-9e-05	-0.00012	5
21717	5e-05	9e-05	-0.00021	-0.00017	-2e-05	-0.00024	-9e-05	-0.00012	5
21718	5e-05	9e-05	-0.00021	-0.00017	-2e-05	-0.00024	-9e-05	-0.00012	5
21719	5e-05	9e-05	-0.00021	-0.00017	-2e-05	-0.00024	-9e-05	-0.00012	5
21720	5e-05	9e-05	-0.00021	-0.00017	-2e-05	-0.00024	-9e-05	-0.00012	5
21721	5e-05	9e-05	-0.00021	-0.00017	-2e-05	-0.00024	-9e-05	-0.00012	5
21722	5e-05	9e-05	-0.00021	-0.00017	-2e-05	-0.00024	-9e-05	-0.00012	5
21723	5e-05	9e-05	-0.00021	-0.00017	-2e-05	-0.00024	-9e-05	-0.00012	5
21724	5e-05	9e-05	-0.00021	-0.00017	-2e-05	-0.00024	-9e-05	-0.00012	5
21725	5e-05	9e-05	-0.00021	-0.00017	-2e-05	-0.00024	-9e-05	-0.00012	5
21726	-0.0002	-0.00029	8e-05	-3e-05	-0.00029	5e-05	-2e-05	-6e-05	5
21727	-0.0002	-0.00029	8e-05	-3e-05	-0.00029	5e-05	-2e-05	-6e-05	5
21728	-0.0002	-0.00029	8e-05	-3e-05	-0.00029	5e-05	-2e-05	-6e-05	5
21729	-0.0002	-0.00029	8e-05	-3e-05	-0.00029	5e-05	-2e-05	-6e-05	5
21730	-0.0002	-0.00029	8e-05	-3e-05	-0.00029	5e-05	-2e-05	-6e-05	5
21731	-0.0002	-0.00029	8e-05	-3e-05	-0.00029	5e-05	-2e-05	-6e-05	5
21732	-0.0002	-0.00029	8e-05	-3e-05	-0.00029	5e-05	-2e-05	-6e-05	5
21734	-0.0002	-0.00029	8e-05	-3e-05	-0.00029	5e-05	-2e-05	-6e-05	5
21735	-0.00042	-0.00015	0.00011	0.00053	0.00057	0.00032	9e-05	0	5
21736	-0.00042	-0.00015	0.00011	0.00053	0.00057	0.00032	9e-05	0	5
21737	-0.00042	-0.00015	0.00011	0.00053	0.00057	0.00032	9e-05	0	5
21738	-0.00042	-0.00015	0.00011	0.00053	0.00057	0.00032	9e-05	0	5
21740	-0.00042	-0.00015	0.00011	0.00053	0.00057	0.00032	9e-05	0	5
21741	-0.00042	-0.00015	0.00011	0.00053	0.00057	0.00032	9e-05	0	5
21742	-0.00042	-0.00015	0.00011	0.00053	0.00057	0.00032	9e-05	0	5
21743	-0.00042	-0.00015	0.00011	0.00053	0.00057	0.00032	9e-05	0	5
21744	-0.00042	-0.00015	0.00011	0.00053	0.00057	0.00032	9e-05	0	5
21745	-0.00042	-0.00015	0.00011	0.00053	0.00057	0.00032	9e-05	0	5
21747	-0.00042	-0.00015	0.00011	0.00053	0.00057	0.00032	9e-05	0	5
21748	-0.00042	-0.00015	0.00011	0.00053	0.00057	0.00032	9e-05	0	5
21749	-0.00042	-0.00015	0.00011	0.00053	0.00057	0.00032	9e-05	0	5
21750	-0.00042	-0.00015	0.00011	0.00053	0.00057	0.00032	9e-05	0	5
21752	0.00019	0.00017	0	4e-05	3e-05	-1e-05	1e-05	-1e-05	5
21753	0.00019	0.00017	0	4e-05	3e-05	-1e-05	1e-05	-1e-05	5
21754	0.00019	0.00017	0	4e-05	3e-05	-1e-05	1e-05	-1e-05	5
21755	0.00019	0.00017	0	4e-05	3e-05	-1e-05	1e-05	-1e-05	5
21756	0.00019	0.00017	0	4e-05	3e-05	-1e-05	1e-05	-1e-05	5
21757	0.00019	0.00017	0	4e-05	3e-05	-1e-05	1e-05	-1e-05	5
21758	0.00019	0.00017	0	4e-05	3e-05	-1e-05	1e-05	-1e-05	5
21759	0.00019	0.00017	0	4e-05	3e-05	-1e-05	1e-05	-1e-05	5
21760	0.00019	0.00017	0	4e-05	3e-05	-1e-05	1e-05	-1e-05	5
21761	0.00019	0.00017	0	4e-05	3e-05	-1e-05	1e-05	-1e-05	5
21762	0.00019	0.00017	0	4e-05	3e-05	-1e-05	1e-05	-1e-05	5
21763	0.00019	0.00017	0	4e-05	3e-05	-1e-05	1e-05	-1e-05	5
21764	0.00019	0.00017	0	4e-05	3e-05	-1e-05	1e-05	-1e-05	5
21765	0.00019	0.00017	0	4e-05	3e-05	-1e-05	1e-05	-1e-05	5
21766	0.00019	0.00017	0	4e-05	3e-05	-1e-05	1e-05	-1e-05	5
21767	0.00019	0.00017	0	4e-05	3e-05	-1e-05	1e-05	-1e-05	5
21768	0.00019	0.00017	0	4e-05	3e-05	-1e-05	1e-05	-1e-05	5
21769	0.00019	0.00017	0	4e-05	3e-05	-1e-05	1e-05	-1e-05	5
21770	0.00019	0.00017	0	4e-05	3e-05	-1e-05	1e-05	-1e-05	5
21771	0.00019	0.00017	0	4e-05	3e-05	-1e-05	1e-05	-1e-05	5
21772	0.00019	0.00017	0	4e-05	3e-05	-1e-05	1e-05	-1e-05	5
21773	-5e-05	-6e-05	-0.0002	-0.00058	-0.00062	-0.00015	-3e-05	0	5
21774	8e-05	0.00011	-5e-05	0.00017	-2e-05	-7e-05	0	3e-05	5
21775	8e-05	0.00011	-5e-05	0.00017	-2e-05	-7e-05	0	3e-05	5
21776	8e-05	0.00011	-5e-05	0.00017	-2e-05	-7e-05	0	3e-05	5
21777	8e-05	0.00011	-5e-05	0.00017	-2e-05	-7e-05	0	3e-05	5
21778	8e-05	0.00011	-5e-05	0.00017	-2e-05	-7e-05	0	3e-05	5
21779	8e-05	0.00011	-5e-05	0.00017	-2e-05	-7e-05	0	3e-05	5
21780	8e-05	0.00011	-5e-05	0.00017	-2e-05	-7e-05	0	3e-05	5
21781	8e-05	0.00011	-5e-05	0.00017	-2e-05	-7e-05	0	3e-05	5
21782	8e-05	0.00011	-5e-05	0.00017	-2e-05	-7e-05	0	3e-05	5
21783	8e-05	0.00011	-5e-05	0.00017	-2e-05	-7e-05	0	3e-05	5
21784	8e-05	0.00011	-5e-05	0.00017	-2e-05	-7e-05	0	3e-05	5
21785	8e-05	0.00011	-5e-05	0.00017	-2e-05	-7e-05	0	3e-05	5
21786	8e-05	0.00011	-5e-05	0.00017	-2e-05	-7e-05	0	3e-05	5
21787	8e-05	0.00011	-5e-05	0.00017	-2e-05	-7e-05	0	3e-05	5
21788	8e-05	0.00011	-5e-05	0.00017	-2e-05	-7e-05	0	3e-05	5
21789	8e-05	0.00011	-5e-05	0.00017	-2e-05	-7e-05	0	3e-05	5
21790	8e-05	0.00011	-5e-05	0.00017	-2e-05	-7e-05	0	3e-05	5
21791	8e-05	0.00011	-5e-05	0.00017	-2e-05	-7e-05	0	3e-05	5
21792	8e-05	0.00011	-5e-05	0.00017	-2e-05	-7e-05	0	3e-05	5
21793	8e-05	0.00011	-5e-05	0.00017	-2e-05	-7e-05	0	3e-05	5
21794	8e-05	0.00011	-5e-05	0.00017	-2e-05	-7e-05	0	3e-05	5
21796	8e-05	0.00011	-5e-05	0.00017	-2e-05	-7e-05	0	3e-05	5
21797	-2e-05	1e-05	-1e-05	-0.00022	-2e-05	0	4e-05	-3e-05	5
21798	-2e-05	1e-05	-1e-05	-0.00022	-2e-05	0	4e-05	-3e-05	5
21799	-2e-05	1e-05	-1e-05	-0.00022	-2e-05	0	4e-05	-3e-05	5
21800	-2e-05	1e-05	-1e-05	-0.00022	-2e-05	0	4e-05	-3e-05	5
21801	-2e-05	1e-05	-1e-05	-0.00022	-2e-05	0	4e-05	-3e-05	5
21802	-2e-05	1e-05	-1e-05	-0.00022	-2e-05	0	4e-05	-3e-05	5
21803	-2e-05	1e-05	-1e-05	-0.00022	-2e-05	0	4e-05	-3e-05	5
21804	-2e-05	1e-05	-1e-05	-0.00022	-2e-05	0	4e-05	-3e-05	5
21805	-2e-05	1e-05	-1e-05	-0.00022	-2e-05	0	4e-05	-3e-05	5
21806	-2e-05	1e-05	-1e-05	-0.00022	-2e-05	0	4e-05	-3e-05	5
21807	-2e-05	1e-05	-1e-05	-0.00022	-2e-05	0	4e-05	-3e-05	5
21808	-2e-05	1e-05	-1e-05	-0.00022	-2e-05	0	4e-05	-3e-05	5
21809	-2e-05	1e-05	-1e-05	-0.00022	-2e-05	0	4e-05	-3e-05	5
21810	0.0002	0.00039	0.0001	-7e-05	7e-05	-6e-05	1e-05	3e-05	5
21811	0.0002	0.00039	0.0001	-7e-05	7e-05	-6e-05	1e-05	3e-05	5
21812	-0.00041	-9e-05	-5e-05	-0.00031	0.00016	-0.0001	-7e-05	-2e-05	5
21813	-0.00041	-9e-05	-5e-05	-0.00031	0.00016	-0.0001	-7e-05	-2e-05	5
21814	-0.00041	-9e-05	-5e-05	-0.00031	0.00016	-0.0001	-7e-05	-2e-05	5
21815	-0.00041	-9e-05	-5e-05	-0.00031	0.00016	-0.0001	-7e-05	-2e-05	5
21816	-0.00041	-9e-05	-5e-05	-0.00031	0.00016	-0.0001	-7e-05	-2e-05	5
21817	-0.00041	-9e-05	-5e-05	-0.00031	0.00016	-0.0001	-7e-05	-2e-05	5
21818	-0.00041	-9e-05	-5e-05	-0.00031	0.00016	-0.0001	-7e-05	-2e-05	5
21819	-0.00041	-9e-05	-5e-05	-0.00031	0.00016	-0.0001	-7e-05	-2e-05	5
21820	-0.00041	-9e-05	-5e-05	-0.00031	0.00016	-0.0001	-7e-05	-2e-05	5
21821	-0.00041	-9e-05	-5e-05	-0.00031	0.00016	-0.0001	-7e-05	-2e-05	5
21822	-0.00041	-9e-05	-5e-05	-0.00031	0.00016	-0.0001	-7e-05	-2e-05	5
21823	-0.00041	-9e-05	-5e-05	-0.00031	0.00016	-0.0001	-7e-05	-2e-05	5
21824	-0.00041	-9e-05	-5e-05	-0.00031	0.00016	-0.0001	-7e-05	-2e-05	5
21825	-0.00041	-9e-05	-5e-05	-0.00031	0.00016	-0.0001	-7e-05	-2e-05	5
21826	-0.00041	-9e-05	-5e-05	-0.00031	0.00016	-0.0001	-7e-05	-2e-05	5
21827	-0.00041	-9e-05	-5e-05	-0.00031	0.00016	-0.0001	-7e-05	-2e-05	5
21828	-0.00041	-9e-05	-5e-05	-0.00031	0.00016	-0.0001	-7e-05	-2e-05	5
21829	-0.00041	-9e-05	-5e-05	-0.00031	0.00016	-0.0001	-7e-05	-2e-05	5
21830	-0.00041	-9e-05	-5e-05	-0.00031	0.00016	-0.0001	-7e-05	-2e-05	5
21831	-0.00041	-9e-05	-5e-05	-0.00031	0.00016	-0.0001	-7e-05	-2e-05	5
21832	-0.00041	-9e-05	-5e-05	-0.00031	0.00016	-0.0001	-7e-05	-2e-05	5
21833	2e-05	-0.00011	6e-05	0.00031	0.00012	-0.00019	-3e-05	2e-05	5
21834	0.00017	-3e-05	-9e-05	-0.0002	-0.00013	-5e-05	0.0001	-6e-05	5
21835	0.00017	-3e-05	-9e-05	-0.0002	-0.00013	-5e-05	0.0001	-6e-05	5
21836	0.00017	-3e-05	-9e-05	-0.0002	-0.00013	-5e-05	0.0001	-6e-05	5
21837	0.00017	-3e-05	-9e-05	-0.0002	-0.00013	-5e-05	0.0001	-6e-05	5
21838	0.00017	-3e-05	-9e-05	-0.0002	-0.00013	-5e-05	0.0001	-6e-05	5
21839	0.00017	-3e-05	-9e-05	-0.0002	-0.00013	-5e-05	0.0001	-6e-05	5
21840	0.00017	-3e-05	-9e-05	-0.0002	-0.00013	-5e-05	0.0001	-6e-05	5
21841	0.00017	-3e-05	-9e-05	-0.0002	-0.00013	-5e-05	0.0001	-6e-05	5
21843	0.00017	-3e-05	-9e-05	-0.0002	-0.00013	-5e-05	0.0001	-6e-05	5
21844	0.00017	-3e-05	-9e-05	-0.0002	-0.00013	-5e-05	0.0001	-6e-05	5
21845	0.00017	-3e-05	-9e-05	-0.0002	-0.00013	-5e-05	0.0001	-6e-05	5
21846	0.00017	-3e-05	-9e-05	-0.0002	-0.00013	-5e-05	0.0001	-6e-05	5
21847	0.00017	-3e-05	-9e-05	-0.0002	-0.00013	-5e-05	0.0001	-6e-05	5
21848	0.00017	-3e-05	-9e-05	-0.0002	-0.00013	-5e-05	0.0001	-6e-05	5
21849	0.00017	-3e-05	-9e-05	-0.0002	-0.00013	-5e-05	0.0001	-6e-05	5
21850	0.00017	-3e-05	-9e-05	-0.0002	-0.00013	-5e-05	0.0001	-6e-05	5
21851	0.00017	-3e-05	-9e-05	-0.0002	-0.00013	-5e-05	0.0001	-6e-05	5
21852	0.00017	-3e-05	-9e-05	-0.0002	-0.00013	-5e-05	0.0001	-6e-05	5
21853	0.00017	-3e-05	-9e-05	-0.0002	-0.00013	-5e-05	0.0001	-6e-05	5
21854	0.00017	-3e-05	-9e-05	-0.0002	-0.00013	-5e-05	0.0001	-6e-05	5
21855	0.00017	-3e-05	-9e-05	-0.0002	-0.00013	-5e-05	0.0001	-6e-05	5
21856	-0.00039	-0.00022	-6e-05	0.00033	-0.00016	-4e-05	-2e-05	-9e-05	5
21857	0.0002	0	9e-05	0.00039	0.0001	0.00016	8e-05	0.0002	5
21858	0.0002	0	9e-05	0.00039	0.0001	0.00016	8e-05	0.0002	5
21859	0.0002	0	9e-05	0.00039	0.0001	0.00016	8e-05	0.0002	5
21860	0.0002	0	9e-05	0.00039	0.0001	0.00016	8e-05	0.0002	5
21861	0.0002	0	9e-05	0.00039	0.0001	0.00016	8e-05	0.0002	5
21862	0.0002	0	9e-05	0.00039	0.0001	0.00016	8e-05	0.0002	5
21863	0.0002	0	9e-05	0.00039	0.0001	0.00016	8e-05	0.0002	5
21864	0.0002	0	9e-05	0.00039	0.0001	0.00016	8e-05	0.0002	5
21865	0.0002	0	9e-05	0.00039	0.0001	0.00016	8e-05	0.0002	5
21866	0.0002	0	9e-05	0.00039	0.0001	0.00016	8e-05	0.0002	5
21867	0.0002	0	9e-05	0.00039	0.0001	0.00016	8e-05	0.0002	5
21868	0.0002	0	9e-05	0.00039	0.0001	0.00016	8e-05	0.0002	5
21869	0.0002	0	9e-05	0.00039	0.0001	0.00016	8e-05	0.0002	5
21870	0.00016	0.0002	3e-05	-0.00013	-1e-05	0.00011	0	-0.0001	5
21871	0.00016	0.0002	3e-05	-0.00013	-1e-05	0.00011	0	-0.0001	5
21872	5e-05	7e-05	-9e-05	-0.00041	-0.00067	0.00029	-7e-05	-0.00012	5
21873	5e-05	7e-05	-9e-05	-0.00041	-0.00067	0.00029	-7e-05	-0.00012	5
21874	5e-05	7e-05	-9e-05	-0.00041	-0.00067	0.00029	-7e-05	-0.00012	5
21875	5e-05	7e-05	-9e-05	-0.00041	-0.00067	0.00029	-7e-05	-0.00012	5
21876	5e-05	7e-05	-9e-05	-0.00041	-0.00067	0.00029	-7e-05	-0.00012	5
21877	5e-05	7e-05	-9e-05	-0.00041	-0.00067	0.00029	-7e-05	-0.00012	5
21878	5e-05	7e-05	-9e-05	-0.00041	-0.00067	0.00029	-7e-05	-0.00012	5
21879	5e-05	7e-05	-9e-05	-0.00041	-0.00067	0.00029	-7e-05	-0.00012	5
21880	5e-05	7e-05	-9e-05	-0.00041	-0.00067	0.00029	-7e-05	-0.00012	5
21881	5e-05	7e-05	-9e-05	-0.00041	-0.00067	0.00029	-7e-05	-0.00012	5
21882	5e-05	7e-05	-9e-05	-0.00041	-0.00067	0.00029	-7e-05	-0.00012	5
21883	5e-05	7e-05	-9e-05	-0.00041	-0.00067	0.00029	-7e-05	-0.00012	5
21884	5e-05	7e-05	-9e-05	-0.00041	-0.00067	0.00029	-7e-05	-0.00012	5
21885	5e-05	7e-05	-9e-05	-0.00041	-0.00067	0.00029	-7e-05	-0.00012	5
21886	5e-05	7e-05	-9e-05	-0.00041	-0.00067	0.00029	-7e-05	-0.00012	5
21887	5e-05	7e-05	-9e-05	-0.00041	-0.00067	0.00029	-7e-05	-0.00012	5
21890	5e-05	7e-05	-9e-05	-0.00041	-0.00067	0.00029	-7e-05	-0.00012	5
21891	5e-05	7e-05	-9e-05	-0.00041	-0.00067	0.00029	-7e-05	-0.00012	5
21892	5e-05	7e-05	-9e-05	-0.00041	-0.00067	0.00029	-7e-05	-0.00012	5
21893	-0.0001	-4e-05	-1e-05	0	-0.00067	-0.0003	1e-05	0	5
21894	-2e-05	-2e-05	-0.00014	0.0006	-0.00016	3e-05	-8e-05	-4e-05	5
21895	-2e-05	-2e-05	-0.00014	0.0006	-0.00016	3e-05	-8e-05	-4e-05	5
21896	-2e-05	-2e-05	-0.00014	0.0006	-0.00016	3e-05	-8e-05	-4e-05	5
21897	-2e-05	-2e-05	-0.00014	0.0006	-0.00016	3e-05	-8e-05	-4e-05	5
21898	-2e-05	-2e-05	-0.00014	0.0006	-0.00016	3e-05	-8e-05	-4e-05	5
21899	-2e-05	-2e-05	-0.00014	0.0006	-0.00016	3e-05	-8e-05	-4e-05	5
21900	-2e-05	-2e-05	-0.00014	0.0006	-0.00016	3e-05	-8e-05	-4e-05	5
21901	-2e-05	-2e-05	-0.00014	0.0006	-0.00016	3e-05	-8e-05	-4e-05	5
21902	-2e-05	-2e-05	-0.00014	0.0006	-0.00016	3e-05	-8e-05	-4e-05	5
21903	-2e-05	-2e-05	-0.00014	0.0006	-0.00016	3e-05	-8e-05	-4e-05	5
21904	-2e-05	-2e-05	-0.00014	0.0006	-0.00016	3e-05	-8e-05	-4e-05	5
21905	-2e-05	-2e-05	-0.00014	0.0006	-0.00016	3e-05	-8e-05	-4e-05	5
21906	-2e-05	-2e-05	-0.00014	0.0006	-0.00016	3e-05	-8e-05	-4e-05	5
21907	-2e-05	-2e-05	-0.00014	0.0006	-0.00016	3e-05	-8e-05	-4e-05	5
21908	-2e-05	-2e-05	-0.00014	0.0006	-0.00016	3e-05	-8e-05	-4e-05	5
21909	-2e-05	-2e-05	-0.00014	0.0006	-0.00016	3e-05	-8e-05	-4e-05	5
21912	-2e-05	-2e-05	-0.00014	0.0006	-0.00016	3e-05	-8e-05	-4e-05	5
21913	-2e-05	-2e-05	-0.00014	0.0006	-0.00016	3e-05	-8e-05	-4e-05	5
21914	-2e-05	-2e-05	-0.00014	0.0006	-0.00016	3e-05	-8e-05	-4e-05	5
21915	-7e-05	-7e-05	-0.00023	-0.00016	-0.00069	-0.00021	-4e-05	-4e-05	5
21916	-7e-05	-7e-05	-0.00023	-0.00016	-0.00069	-0.00021	-4e-05	-4e-05	5
21917	-0.00011	3e-05	6e-05	0.00015	0.00063	-0.00015	-9e-05	0	5
21918	-0.00011	3e-05	6e-05	0.00015	0.00063	-0.00015	-9e-05	0	5
21919	-0.00011	3e-05	6e-05	0.00015	0.00063	-0.00015	-9e-05	0	5
21920	-0.00011	3e-05	6e-05	0.00015	0.00063	-0.00015	-9e-05	0	5
21921	-0.00011	3e-05	6e-05	0.00015	0.00063	-0.00015	-9e-05	0	5
21922	-0.00011	3e-05	6e-05	0.00015	0.00063	-0.00015	-9e-05	0	5
21923	-0.00011	3e-05	6e-05	0.00015	0.00063	-0.00015	-9e-05	0	5
21924	-0.00011	3e-05	6e-05	0.00015	0.00063	-0.00015	-9e-05	0	5
21925	-0.00011	3e-05	6e-05	0.00015	0.00063	-0.00015	-9e-05	0	5
21926	-0.00011	3e-05	6e-05	0.00015	0.00063	-0.00015	-9e-05	0	5
21927	-0.00011	3e-05	6e-05	0.00015	0.00063	-0.00015	-9e-05	0	5
21928	-0.00011	3e-05	6e-05	0.00015	0.00063	-0.00015	-9e-05	0	5
21929	-0.00011	3e-05	6e-05	0.00015	0.00063	-0.00015	-9e-05	0	5
21930	-0.00023	-0.00039	-0.00011	-1e-05	-0.00019	-8e-05	-5e-05	-6e-05	5
21931	-0.00023	-0.00039	-0.00011	-1e-05	-0.00019	-8e-05	-5e-05	-6e-05	5
21932	-0.00088	-0.00087	-7e-05	7e-05	0.00055	8e-05	3e-05	-0.00017	5
21933	-0.00088	-0.00087	-7e-05	7e-05	0.00055	8e-05	3e-05	-0.00017	5
21934	-0.00088	-0.00087	-7e-05	7e-05	0.00055	8e-05	3e-05	-0.00017	5
21936	-0.00088	-0.00087	-7e-05	7e-05	0.00055	8e-05	3e-05	-0.00017	5
21937	-0.00088	-0.00087	-7e-05	7e-05	0.00055	8e-05	3e-05	-0.00017	5
21938	-0.00088	-0.00087	-7e-05	7e-05	0.00055	8e-05	3e-05	-0.00017	5
21939	-0.00088	-0.00087	-7e-05	7e-05	0.00055	8e-05	3e-05	-0.00017	5
21940	-0.00088	-0.00087	-7e-05	7e-05	0.00055	8e-05	3e-05	-0.00017	5
21941	-0.00088	-0.00087	-7e-05	7e-05	0.00055	8e-05	3e-05	-0.00017	5
21942	-0.00088	-0.00087	-7e-05	7e-05	0.00055	8e-05	3e-05	-0.00017	5
21943	-0.00088	-0.00087	-7e-05	7e-05	0.00055	8e-05	3e-05	-0.00017	5
21944	-0.00088	-0.00087	-7e-05	7e-05	0.00055	8e-05	3e-05	-0.00017	5
21945	-0.00088	-0.00087	-7e-05	7e-05	0.00055	8e-05	3e-05	-0.00017	5
21946	-0.00088	-0.00087	-7e-05	7e-05	0.00055	8e-05	3e-05	-0.00017	5
21947	-0.00088	-0.00087	-7e-05	7e-05	0.00055	8e-05	3e-05	-0.00017	5
21948	-0.00088	-0.00087	-7e-05	7e-05	0.00055	8e-05	3e-05	-0.00017	5
21949	-0.00088	-0.00087	-7e-05	7e-05	0.00055	8e-05	3e-05	-0.00017	5
21950	-0.00088	-0.00087	-7e-05	7e-05	0.00055	8e-05	3e-05	-0.00017	5
21951	-0.00088	-0.00087	-7e-05	7e-05	0.00055	8e-05	3e-05	-0.00017	5
21952	-0.00088	-0.00087	-7e-05	7e-05	0.00055	8e-05	3e-05	-0.00017	5
21953	0.00016	0.00018	0.00026	0.00076	0.0007	2e-05	0.00012	5e-05	5
21954	0.00043	0.00022	0.0002	-0.00011	-0.00119	-1e-05	0.00019	0.00015	5
21955	0.00043	0.00022	0.0002	-0.00011	-0.00119	-1e-05	0.00019	0.00015	5
21956	0.00043	0.00022	0.0002	-0.00011	-0.00119	-1e-05	0.00019	0.00015	5
21957	0.00043	0.00022	0.0002	-0.00011	-0.00119	-1e-05	0.00019	0.00015	5
21958	0.00043	0.00022	0.0002	-0.00011	-0.00119	-1e-05	0.00019	0.00015	5
21959	0.00043	0.00022	0.0002	-0.00011	-0.00119	-1e-05	0.00019	0.00015	5
21960	0.00043	0.00022	0.0002	-0.00011	-0.00119	-1e-05	0.00019	0.00015	5
21961	0.00043	0.00022	0.0002	-0.00011	-0.00119	-1e-05	0.00019	0.00015	5
21962	0.00043	0.00022	0.0002	-0.00011	-0.00119	-1e-05	0.00019	0.00015	5
21963	0.00043	0.00022	0.0002	-0.00011	-0.00119	-1e-05	0.00019	0.00015	5
21964	0.00043	0.00022	0.0002	-0.00011	-0.00119	-1e-05	0.00019	0.00015	5
21965	0.00043	0.00022	0.0002	-0.00011	-0.00119	-1e-05	0.00019	0.00015	5
21966	0.00043	0.00022	0.0002	-0.00011	-0.00119	-1e-05	0.00019	0.00015	5
21967	0.00043	0.00022	0.0002	-0.00011	-0.00119	-1e-05	0.00019	0.00015	5
21968	0.00043	0.00022	0.0002	-0.00011	-0.00119	-1e-05	0.00019	0.00015	5
21969	0.00043	0.00022	0.0002	-0.00011	-0.00119	-1e-05	0.00019	0.00015	5
21970	0.00043	0.00022	0.0002	-0.00011	-0.00119	-1e-05	0.00019	0.00015	5
21971	0.00043	0.00022	0.0002	-0.00011	-0.00119	-1e-05	0.00019	0.00015	5
21972	0.00043	0.00022	0.0002	-0.00011	-0.00119	-1e-05	0.00019	0.00015	5
21973	0.00043	0.00022	0.0002	-0.00011	-0.00119	-1e-05	0.00019	0.00015	5
21974	0.00043	0.00022	0.0002	-0.00011	-0.00119	-1e-05	0.00019	0.00015	5
21975	-0.00019	-0.00038	-0.00017	-0.00012	0.00015	0.0001	-2e-05	-3e-05	5
21976	-0.00019	-0.00038	-0.00017	-0.00012	0.00015	0.0001	-2e-05	-3e-05	5
21977	8e-05	0.00032	0.00015	-0.00018	-0.00028	-3e-05	5e-05	5e-05	5
21978	8e-05	0.00032	0.00015	-0.00018	-0.00028	-3e-05	5e-05	5e-05	5
21979	8e-05	0.00032	0.00015	-0.00018	-0.00028	-3e-05	5e-05	5e-05	5
21980	8e-05	0.00032	0.00015	-0.00018	-0.00028	-3e-05	5e-05	5e-05	5
21981	8e-05	0.00032	0.00015	-0.00018	-0.00028	-3e-05	5e-05	5e-05	5
21983	8e-05	0.00032	0.00015	-0.00018	-0.00028	-3e-05	5e-05	5e-05	5
21984	8e-05	0.00032	0.00015	-0.00018	-0.00028	-3e-05	5e-05	5e-05	5
21985	8e-05	0.00032	0.00015	-0.00018	-0.00028	-3e-05	5e-05	5e-05	5
21986	8e-05	0.00032	0.00015	-0.00018	-0.00028	-3e-05	5e-05	5e-05	5
21987	8e-05	0.00032	0.00015	-0.00018	-0.00028	-3e-05	5e-05	5e-05	5
21988	8e-05	0.00032	0.00015	-0.00018	-0.00028	-3e-05	5e-05	5e-05	5
21990	0.00022	0.00029	-0.0001	-0.00054	-0.00053	-0.00022	4e-05	0.00012	5
21991	0.00022	0.00029	-0.0001	-0.00054	-0.00053	-0.00022	4e-05	0.00012	5
21992	0.00022	0.00029	-0.0001	-0.00054	-0.00053	-0.00022	4e-05	0.00012	5
21993	0.00022	0.00029	-0.0001	-0.00054	-0.00053	-0.00022	4e-05	0.00012	5
21994	0.00022	0.00029	-0.0001	-0.00054	-0.00053	-0.00022	4e-05	0.00012	5
21995	0.00022	0.00029	-0.0001	-0.00054	-0.00053	-0.00022	4e-05	0.00012	5
21996	0.00013	7e-05	0.00016	-0.00017	-0.0004	-0.00016	8e-05	0.00011	5
21997	0.00013	7e-05	0.00016	-0.00017	-0.0004	-0.00016	8e-05	0.00011	5
21998	0.00013	7e-05	0.00016	-0.00017	-0.0004	-0.00016	8e-05	0.00011	5
21999	0.00013	7e-05	0.00016	-0.00017	-0.0004	-0.00016	8e-05	0.00011	5
22000	0.00013	7e-05	0.00016	-0.00017	-0.0004	-0.00016	8e-05	0.00011	5
22001	0.00013	7e-05	0.00016	-0.00017	-0.0004	-0.00016	8e-05	0.00011	5
22002	0.00013	7e-05	0.00016	-0.00017	-0.0004	-0.00016	8e-05	0.00011	5
22003	0.00013	7e-05	0.00016	-0.00017	-0.0004	-0.00016	8e-05	0.00011	5
22004	0.00013	7e-05	0.00016	-0.00017	-0.0004	-0.00016	8e-05	0.00011	5
22005	0.00013	7e-05	0.00016	-0.00017	-0.0004	-0.00016	8e-05	0.00011	5
22006	0.00013	7e-05	0.00016	-0.00017	-0.0004	-0.00016	8e-05	0.00011	5
22007	0.00013	7e-05	0.00016	-0.00017	-0.0004	-0.00016	8e-05	0.00011	5
22008	0.00013	7e-05	0.00016	-0.00017	-0.0004	-0.00016	8e-05	0.00011	5
22009	0.00013	7e-05	0.00016	-0.00017	-0.0004	-0.00016	8e-05	0.00011	5
22010	0.00013	7e-05	0.00016	-0.00017	-0.0004	-0.00016	8e-05	0.00011	5
22011	0.00013	7e-05	0.00016	-0.00017	-0.0004	-0.00016	8e-05	0.00011	5
22012	0.00013	7e-05	0.00016	-0.00017	-0.0004	-0.00016	8e-05	0.00011	5
22013	0.00022	0.00015	0.00024	0.00065	0.00073	0.00031	6e-05	9e-05	5
22014	-0.00023	-0.00038	-0.00043	-0.00056	-0.00044	-0.00022	-0.00022	-0.00012	5
22015	-0.00023	-0.00038	-0.00043	-0.00056	-0.00044	-0.00022	-0.00022	-0.00012	5
22016	-0.00023	-0.00038	-0.00043	-0.00056	-0.00044	-0.00022	-0.00022	-0.00012	5
22017	-0.00023	-0.00038	-0.00043	-0.00056	-0.00044	-0.00022	-0.00022	-0.00012	5
22018	-0.00023	-0.00038	-0.00043	-0.00056	-0.00044	-0.00022	-0.00022	-0.00012	5
22019	-0.00023	-0.00038	-0.00043	-0.00056	-0.00044	-0.00022	-0.00022	-0.00012	5
22020	-0.00023	-0.00038	-0.00043	-0.00056	-0.00044	-0.00022	-0.00022	-0.00012	5
22021	-0.00023	-0.00038	-0.00043	-0.00056	-0.00044	-0.00022	-0.00022	-0.00012	5
22022	-0.00023	-0.00038	-0.00043	-0.00056	-0.00044	-0.00022	-0.00022	-0.00012	5
22023	-0.00023	-0.00038	-0.00043	-0.00056	-0.00044	-0.00022	-0.00022	-0.00012	5
22024	-0.00023	-0.00038	-0.00043	-0.00056	-0.00044	-0.00022	-0.00022	-0.00012	5
22025	-0.00023	-0.00038	-0.00043	-0.00056	-0.00044	-0.00022	-0.00022	-0.00012	5
22026	-0.00023	-0.00038	-0.00043	-0.00056	-0.00044	-0.00022	-0.00022	-0.00012	5
22027	-0.00023	-0.00038	-0.00043	-0.00056	-0.00044	-0.00022	-0.00022	-0.00012	5
22029	-0.00023	-0.00038	-0.00043	-0.00056	-0.00044	-0.00022	-0.00022	-0.00012	5
22030	-0.00023	-0.00038	-0.00043	-0.00056	-0.00044	-0.00022	-0.00022	-0.00012	5
22031	-0.00023	-0.00038	-0.00043	-0.00056	-0.00044	-0.00022	-0.00022	-0.00012	5
22032	-0.00023	-0.00038	-0.00043	-0.00056	-0.00044	-0.00022	-0.00022	-0.00012	5
22033	-0.00023	-0.00038	-0.00043	-0.00056	-0.00044	-0.00022	-0.00022	-0.00012	5
22034	-0.00023	-0.00038	-0.00043	-0.00056	-0.00044	-0.00022	-0.00022	-0.00012	5
22035	-5e-05	1e-05	-0.00012	-0.00055	-0.00077	-0.00053	-8e-05	0.00015	5
22036	-0.00013	0.00021	0.00022	0.00094	0.00061	0.00027	-8e-05	-0.00042	5
22038	-0.00011	0.00021	-5e-05	-5e-05	0.00028	0	-0.00028	-2e-05	5
22040	-0.00011	0.00021	-5e-05	-5e-05	0.00028	0	-0.00028	-2e-05	5
22041	-0.00011	0.00021	-5e-05	-5e-05	0.00028	0	-0.00028	-2e-05	5
22042	-0.00011	0.00021	-5e-05	-5e-05	0.00028	0	-0.00028	-2e-05	5
22043	-0.00011	0.00021	-5e-05	-5e-05	0.00028	0	-0.00028	-2e-05	5
22044	-0.00011	0.00021	-5e-05	-5e-05	0.00028	0	-0.00028	-2e-05	5
22045	-0.00011	0.00021	-5e-05	-5e-05	0.00028	0	-0.00028	-2e-05	5
22046	-0.00011	0.00021	-5e-05	-5e-05	0.00028	0	-0.00028	-2e-05	5
22047	-0.00011	0.00021	-5e-05	-5e-05	0.00028	0	-0.00028	-2e-05	5
22048	-0.00011	0.00021	-5e-05	-5e-05	0.00028	0	-0.00028	-2e-05	5
22049	-2e-05	-0.00052	-6e-05	-0.00025	-3e-05	0.00018	6e-05	-3e-05	5
22050	-2e-05	-0.00052	-6e-05	-0.00025	-3e-05	0.00018	6e-05	-3e-05	5
22051	-2e-05	-0.00052	-6e-05	-0.00025	-3e-05	0.00018	6e-05	-3e-05	5
22052	-2e-05	-0.00052	-6e-05	-0.00025	-3e-05	0.00018	6e-05	-3e-05	5
22053	-2e-05	-0.00052	-6e-05	-0.00025	-3e-05	0.00018	6e-05	-3e-05	5
22054	-2e-05	-0.00052	-6e-05	-0.00025	-3e-05	0.00018	6e-05	-3e-05	5
22055	-2e-05	-0.00052	-6e-05	-0.00025	-3e-05	0.00018	6e-05	-3e-05	5
22056	-2e-05	-0.00052	-6e-05	-0.00025	-3e-05	0.00018	6e-05	-3e-05	5
22057	-2e-05	-0.00052	-6e-05	-0.00025	-3e-05	0.00018	6e-05	-3e-05	5
22058	-0.00026	-0.00034	-0.00039	0	0.00089	0.00049	-8e-05	-0.00025	5
22059	-0.00026	-0.00034	-0.00039	0	0.00089	0.00049	-8e-05	-0.00025	5
22060	-0.00026	-0.00034	-0.00039	0	0.00089	0.00049	-8e-05	-0.00025	5
22061	-0.00026	-0.00034	-0.00039	0	0.00089	0.00049	-8e-05	-0.00025	5
22062	-0.00026	-0.00034	-0.00039	0	0.00089	0.00049	-8e-05	-0.00025	5
22063	-0.00026	-0.00034	-0.00039	0	0.00089	0.00049	-8e-05	-0.00025	5
22064	-0.00026	-0.00034	-0.00039	0	0.00089	0.00049	-8e-05	-0.00025	5
22065	-0.00026	-0.00034	-0.00039	0	0.00089	0.00049	-8e-05	-0.00025	5
22066	-0.00026	-0.00034	-0.00039	0	0.00089	0.00049	-8e-05	-0.00025	5
22067	-0.00026	-0.00034	-0.00039	0	0.00089	0.00049	-8e-05	-0.00025	5
22068	-0.00026	-0.00034	-0.00039	0	0.00089	0.00049	-8e-05	-0.00025	5
22069	-0.00026	-0.00034	-0.00039	0	0.00089	0.00049	-8e-05	-0.00025	5
22070	-0.00026	-0.00034	-0.00039	0	0.00089	0.00049	-8e-05	-0.00025	5
22071	-0.00026	-0.00034	-0.00039	0	0.00089	0.00049	-8e-05	-0.00025	5
22072	-0.00026	-0.00034	-0.00039	0	0.00089	0.00049	-8e-05	-0.00025	5
22073	0.00021	0.0002	7e-05	0.00014	0.00067	6e-05	-1e-05	3e-05	5
22074	5e-05	-8e-05	-0.00012	0.00024	0.00029	-0.00015	1e-05	-4e-05	5
22075	5e-05	-8e-05	-0.00012	0.00024	0.00029	-0.00015	1e-05	-4e-05	5
22076	5e-05	-8e-05	-0.00012	0.00024	0.00029	-0.00015	1e-05	-4e-05	5
22077	5e-05	-8e-05	-0.00012	0.00024	0.00029	-0.00015	1e-05	-4e-05	5
22078	5e-05	-8e-05	-0.00012	0.00024	0.00029	-0.00015	1e-05	-4e-05	5
22079	5e-05	-8e-05	-0.00012	0.00024	0.00029	-0.00015	1e-05	-4e-05	5
22080	5e-05	-8e-05	-0.00012	0.00024	0.00029	-0.00015	1e-05	-4e-05	5
22081	5e-05	-8e-05	-0.00012	0.00024	0.00029	-0.00015	1e-05	-4e-05	5
22082	5e-05	-8e-05	-0.00012	0.00024	0.00029	-0.00015	1e-05	-4e-05	5
22083	5e-05	-8e-05	-0.00012	0.00024	0.00029	-0.00015	1e-05	-4e-05	5
22084	5e-05	-8e-05	-0.00012	0.00024	0.00029	-0.00015	1e-05	-4e-05	5
22085	5e-05	-8e-05	-0.00012	0.00024	0.00029	-0.00015	1e-05	-4e-05	5
22086	5e-05	-8e-05	-0.00012	0.00024	0.00029	-0.00015	1e-05	-4e-05	5
22087	5e-05	-8e-05	-0.00012	0.00024	0.00029	-0.00015	1e-05	-4e-05	5
22088	5e-05	-8e-05	-0.00012	0.00024	0.00029	-0.00015	1e-05	-4e-05	5
22090	5e-05	-8e-05	-0.00012	0.00024	0.00029	-0.00015	1e-05	-4e-05	5
22091	5e-05	-8e-05	-0.00012	0.00024	0.00029	-0.00015	1e-05	-4e-05	5
22092	5e-05	-8e-05	-0.00012	0.00024	0.00029	-0.00015	1e-05	-4e-05	5
22093	5e-05	-8e-05	-0.00012	0.00024	0.00029	-0.00015	1e-05	-4e-05	5
22094	5e-05	-8e-05	-0.00012	0.00024	0.00029	-0.00015	1e-05	-4e-05	5
22095	0.0001	-0.00026	5e-05	-7e-05	0.00035	0.00037	4e-05	-1e-05	5
22096	0.0001	-0.00026	5e-05	-7e-05	0.00035	0.00037	4e-05	-1e-05	5
22097	0.00067	0.00041	0.00014	-0.00034	-0.00031	-0.00013	-4e-05	6e-05	5
22098	0.00067	0.00041	0.00014	-0.00034	-0.00031	-0.00013	-4e-05	6e-05	5
22099	0.00067	0.00041	0.00014	-0.00034	-0.00031	-0.00013	-4e-05	6e-05	5
22100	0.00067	0.00041	0.00014	-0.00034	-0.00031	-0.00013	-4e-05	6e-05	5
22101	0.00067	0.00041	0.00014	-0.00034	-0.00031	-0.00013	-4e-05	6e-05	5
22102	0.00067	0.00041	0.00014	-0.00034	-0.00031	-0.00013	-4e-05	6e-05	5
22103	0.00067	0.00041	0.00014	-0.00034	-0.00031	-0.00013	-4e-05	6e-05	5
22104	0.00067	0.00041	0.00014	-0.00034	-0.00031	-0.00013	-4e-05	6e-05	5
22105	0.00067	0.00041	0.00014	-0.00034	-0.00031	-0.00013	-4e-05	6e-05	5
22106	0.00067	0.00041	0.00014	-0.00034	-0.00031	-0.00013	-4e-05	6e-05	5
22107	0.00067	0.00041	0.00014	-0.00034	-0.00031	-0.00013	-4e-05	6e-05	5
22108	0.00067	0.00041	0.00014	-0.00034	-0.00031	-0.00013	-4e-05	6e-05	5
22109	0.00067	0.00041	0.00014	-0.00034	-0.00031	-0.00013	-4e-05	6e-05	5
22110	0.00014	0.00021	4e-05	0.00014	7e-05	-8e-05	-3e-05	0.00011	5
22111	0.00014	0.00021	4e-05	0.00014	7e-05	-8e-05	-3e-05	0.00011	5
22112	0.00014	0.00021	4e-05	0.00014	7e-05	-8e-05	-3e-05	0.00011	5
22113	0.00014	0.00021	4e-05	0.00014	7e-05	-8e-05	-3e-05	0.00011	5
22114	0.00014	0.00021	4e-05	0.00014	7e-05	-8e-05	-3e-05	0.00011	5
22115	0.00014	0.00021	4e-05	0.00014	7e-05	-8e-05	-3e-05	0.00011	5
22116	4e-05	2e-05	0.00011	0.00057	6e-05	0.00018	0.00018	8e-05	5
22117	4e-05	2e-05	0.00011	0.00057	6e-05	0.00018	0.00018	8e-05	5
22118	4e-05	2e-05	0.00011	0.00057	6e-05	0.00018	0.00018	8e-05	5
22119	4e-05	2e-05	0.00011	0.00057	6e-05	0.00018	0.00018	8e-05	5
22120	4e-05	2e-05	0.00011	0.00057	6e-05	0.00018	0.00018	8e-05	5
22121	4e-05	2e-05	0.00011	0.00057	6e-05	0.00018	0.00018	8e-05	5
22122	4e-05	2e-05	0.00011	0.00057	6e-05	0.00018	0.00018	8e-05	5
22124	4e-05	2e-05	0.00011	0.00057	6e-05	0.00018	0.00018	8e-05	5
22125	4e-05	2e-05	0.00011	0.00057	6e-05	0.00018	0.00018	8e-05	5
22126	4e-05	2e-05	0.00011	0.00057	6e-05	0.00018	0.00018	8e-05	5
22127	4e-05	2e-05	0.00011	0.00057	6e-05	0.00018	0.00018	8e-05	5
22128	4e-05	2e-05	0.00011	0.00057	6e-05	0.00018	0.00018	8e-05	5
22129	4e-05	2e-05	0.00011	0.00057	6e-05	0.00018	0.00018	8e-05	5
22130	4e-05	2e-05	0.00011	0.00057	6e-05	0.00018	0.00018	8e-05	5
22131	4e-05	2e-05	0.00011	0.00057	6e-05	0.00018	0.00018	8e-05	5
22132	4e-05	2e-05	0.00011	0.00057	6e-05	0.00018	0.00018	8e-05	5
22133	8e-05	0.00038	0.00012	0.00083	0.0002	-4e-05	-3e-05	-5e-05	5
22134	0.00058	0.00016	4e-05	-0.00032	-2e-05	-0.00013	0.00012	0.00018	5
22135	0.00058	0.00016	4e-05	-0.00032	-2e-05	-0.00013	0.00012	0.00018	5
22136	0.00058	0.00016	4e-05	-0.00032	-2e-05	-0.00013	0.00012	0.00018	5
22137	0.00058	0.00016	4e-05	-0.00032	-2e-05	-0.00013	0.00012	0.00018	5
22138	0.00058	0.00016	4e-05	-0.00032	-2e-05	-0.00013	0.00012	0.00018	5
22140	0.00058	0.00016	4e-05	-0.00032	-2e-05	-0.00013	0.00012	0.00018	5
22141	0.00058	0.00016	4e-05	-0.00032	-2e-05	-0.00013	0.00012	0.00018	5
22142	0.00058	0.00016	4e-05	-0.00032	-2e-05	-0.00013	0.00012	0.00018	5
22143	0.00058	0.00016	4e-05	-0.00032	-2e-05	-0.00013	0.00012	0.00018	5
22144	0.00058	0.00016	4e-05	-0.00032	-2e-05	-0.00013	0.00012	0.00018	5
22145	0.00058	0.00016	4e-05	-0.00032	-2e-05	-0.00013	0.00012	0.00018	5
22146	0.00058	0.00016	4e-05	-0.00032	-2e-05	-0.00013	0.00012	0.00018	5
22147	0.00058	0.00016	4e-05	-0.00032	-2e-05	-0.00013	0.00012	0.00018	5
22148	0.00058	0.00016	4e-05	-0.00032	-2e-05	-0.00013	0.00012	0.00018	5
22149	0.00058	0.00016	4e-05	-0.00032	-2e-05	-0.00013	0.00012	0.00018	5
22150	0.00058	0.00016	4e-05	-0.00032	-2e-05	-0.00013	0.00012	0.00018	5
22151	0.00058	0.00016	4e-05	-0.00032	-2e-05	-0.00013	0.00012	0.00018	5
22152	0.00058	0.00016	4e-05	-0.00032	-2e-05	-0.00013	0.00012	0.00018	5
22153	0.00058	0.00016	4e-05	-0.00032	-2e-05	-0.00013	0.00012	0.00018	5
22154	0.00058	0.00016	4e-05	-0.00032	-2e-05	-0.00013	0.00012	0.00018	5
22155	-0.00044	-0.00035	-0.00029	-0.0006	-0.00014	-0.00015	-9e-05	-0.00017	5
22156	-0.00044	-0.00035	-0.00029	-0.0006	-0.00014	-0.00015	-9e-05	-0.00017	5
22157	0.00013	0.00014	6e-05	0.00026	0.00067	6e-05	8e-05	-1e-05	5
22158	0.00013	0.00014	6e-05	0.00026	0.00067	6e-05	8e-05	-1e-05	5
22159	0.00013	0.00014	6e-05	0.00026	0.00067	6e-05	8e-05	-1e-05	5
22160	0.00013	0.00014	6e-05	0.00026	0.00067	6e-05	8e-05	-1e-05	5
22161	0.00013	0.00014	6e-05	0.00026	0.00067	6e-05	8e-05	-1e-05	5
22162	0.00013	0.00014	6e-05	0.00026	0.00067	6e-05	8e-05	-1e-05	5
22163	0.00013	0.00014	6e-05	0.00026	0.00067	6e-05	8e-05	-1e-05	5
22164	0.00013	0.00014	6e-05	0.00026	0.00067	6e-05	8e-05	-1e-05	5
22165	0.00013	0.00014	6e-05	0.00026	0.00067	6e-05	8e-05	-1e-05	5
22166	0.00013	0.00014	6e-05	0.00026	0.00067	6e-05	8e-05	-1e-05	5
22167	0.00013	0.00014	6e-05	0.00026	0.00067	6e-05	8e-05	-1e-05	5
22168	0.00013	0.00014	6e-05	0.00026	0.00067	6e-05	8e-05	-1e-05	5
22169	1e-05	0.00016	-0.00012	-0.00015	-0.00073	-0.00034	-9e-05	-7e-05	5
22170	1e-05	0.00016	-0.00012	-0.00015	-0.00073	-0.00034	-9e-05	-7e-05	5
22171	1e-05	0.00016	-0.00012	-0.00015	-0.00073	-0.00034	-9e-05	-7e-05	5
22172	1e-05	0.00016	-0.00012	-0.00015	-0.00073	-0.00034	-9e-05	-7e-05	5
22173	1e-05	0.00016	-0.00012	-0.00015	-0.00073	-0.00034	-9e-05	-7e-05	5
22174	1e-05	0.00016	-0.00012	-0.00015	-0.00073	-0.00034	-9e-05	-7e-05	5
22175	1e-05	0.00016	-0.00012	-0.00015	-0.00073	-0.00034	-9e-05	-7e-05	5
22176	-0.0009	0	-3e-05	-0.00039	-0.00052	-0.0001	-7e-05	-0.0002	5
22177	-0.0009	0	-3e-05	-0.00039	-0.00052	-0.0001	-7e-05	-0.0002	5
22178	-0.0009	0	-3e-05	-0.00039	-0.00052	-0.0001	-7e-05	-0.0002	5
22179	-0.0009	0	-3e-05	-0.00039	-0.00052	-0.0001	-7e-05	-0.0002	5
22180	-0.0009	0	-3e-05	-0.00039	-0.00052	-0.0001	-7e-05	-0.0002	5
22181	-0.0009	0	-3e-05	-0.00039	-0.00052	-0.0001	-7e-05	-0.0002	5
22182	-0.0009	0	-3e-05	-0.00039	-0.00052	-0.0001	-7e-05	-0.0002	5
22183	-0.0009	0	-3e-05	-0.00039	-0.00052	-0.0001	-7e-05	-0.0002	5
22184	-0.0009	0	-3e-05	-0.00039	-0.00052	-0.0001	-7e-05	-0.0002	5
22185	-0.0009	0	-3e-05	-0.00039	-0.00052	-0.0001	-7e-05	-0.0002	5
22186	-0.0009	0	-3e-05	-0.00039	-0.00052	-0.0001	-7e-05	-0.0002	5
22187	-0.0009	0	-3e-05	-0.00039	-0.00052	-0.0001	-7e-05	-0.0002	5
22188	-0.0009	0	-3e-05	-0.00039	-0.00052	-0.0001	-7e-05	-0.0002	5
22189	-0.0009	0	-3e-05	-0.00039	-0.00052	-0.0001	-7e-05	-0.0002	5
22190	-0.0009	0	-3e-05	-0.00039	-0.00052	-0.0001	-7e-05	-0.0002	5
22191	-0.0009	0	-3e-05	-0.00039	-0.00052	-0.0001	-7e-05	-0.0002	5
22192	-0.0009	0	-3e-05	-0.00039	-0.00052	-0.0001	-7e-05	-0.0002	5
22193	-0.00027	-0.00031	-3e-05	-0.0004	-0.00044	-0.00012	0.00017	4e-05	5
22194	0.00047	0.0001	0.0001	0.00013	-0.00056	-5e-05	-0.0001	-0.00015	5
22195	0.00047	0.0001	0.0001	0.00013	-0.00056	-5e-05	-0.0001	-0.00015	5
22196	0.00047	0.0001	0.0001	0.00013	-0.00056	-5e-05	-0.0001	-0.00015	5
22197	0.00047	0.0001	0.0001	0.00013	-0.00056	-5e-05	-0.0001	-0.00015	5
22198	0.00047	0.0001	0.0001	0.00013	-0.00056	-5e-05	-0.0001	-0.00015	5
22199	0.00047	0.0001	0.0001	0.00013	-0.00056	-5e-05	-0.0001	-0.00015	5
22200	0.00047	0.0001	0.0001	0.00013	-0.00056	-5e-05	-0.0001	-0.00015	5
22201	0.00047	0.0001	0.0001	0.00013	-0.00056	-5e-05	-0.0001	-0.00015	5
22202	0.00047	0.0001	0.0001	0.00013	-0.00056	-5e-05	-0.0001	-0.00015	5
22203	0.00047	0.0001	0.0001	0.00013	-0.00056	-5e-05	-0.0001	-0.00015	5
22204	0.00047	0.0001	0.0001	0.00013	-0.00056	-5e-05	-0.0001	-0.00015	5
22205	0.00047	0.0001	0.0001	0.00013	-0.00056	-5e-05	-0.0001	-0.00015	5
22206	0.00047	0.0001	0.0001	0.00013	-0.00056	-5e-05	-0.0001	-0.00015	5
22207	0.00047	0.0001	0.0001	0.00013	-0.00056	-5e-05	-0.0001	-0.00015	5
22208	0.00047	0.0001	0.0001	0.00013	-0.00056	-5e-05	-0.0001	-0.00015	5
22209	0.00047	0.0001	0.0001	0.00013	-0.00056	-5e-05	-0.0001	-0.00015	5
22210	0.00047	0.0001	0.0001	0.00013	-0.00056	-5e-05	-0.0001	-0.00015	5
22211	0.00047	0.0001	0.0001	0.00013	-0.00056	-5e-05	-0.0001	-0.00015	5
48698	-0.00062	-0.00011	5e-05	-0.00018	-0.00043	-4e-05	6e-05	2e-05	5
48699	-0.00062	-0.00011	5e-05	-0.00018	-0.00043	-4e-05	6e-05	2e-05	5
48700	-0.00062	-0.00011	5e-05	-0.00018	-0.00043	-4e-05	6e-05	2e-05	5
48701	-0.00062	-0.00011	5e-05	-0.00018	-0.00043	-4e-05	6e-05	2e-05	5
48702	-0.00062	-0.00011	5e-05	-0.00018	-0.00043	-4e-05	6e-05	2e-05	5
48703	-0.00062	-0.00011	5e-05	-0.00018	-0.00043	-4e-05	6e-05	2e-05	5
48704	-0.00062	-0.00011	5e-05	-0.00018	-0.00043	-4e-05	6e-05	2e-05	5
48705	-0.00062	-0.00011	5e-05	-0.00018	-0.00043	-4e-05	6e-05	2e-05	5
48706	0.00012	0.00016	0.00012	0.00067	0.00024	-1e-05	0	0	5
48707	0.00012	0.00016	0.00012	0.00067	0.00024	-1e-05	0	0	5
48708	0.00012	0.00016	0.00012	0.00067	0.00024	-1e-05	0	0	5
48709	0.00012	0.00016	0.00012	0.00067	0.00024	-1e-05	0	0	5
48710	0.00012	0.00016	0.00012	0.00067	0.00024	-1e-05	0	0	5
48711	0.00012	0.00016	0.00012	0.00067	0.00024	-1e-05	0	0	5
48712	0.00012	0.00016	0.00012	0.00067	0.00024	-1e-05	0	0	5
48713	0.00012	0.00016	0.00012	0.00067	0.00024	-1e-05	0	0	5
48714	0.00012	0.00016	0.00012	0.00067	0.00024	-1e-05	0	0	5
48715	0.00012	0.00016	0.00012	0.00067	0.00024	-1e-05	0	0	5
48716	0.00012	0.00016	0.00012	0.00067	0.00024	-1e-05	0	0	5
48717	0.00012	0.00016	0.00012	0.00067	0.00024	-1e-05	0	0	5
48718	0.00012	0.00016	0.00012	0.00067	0.00024	-1e-05	0	0	5
48719	0.00012	0.00016	0.00012	0.00067	0.00024	-1e-05	0	0	5
48720	0.00026	0.00015	0.00021	0.00086	0.00044	0.00013	-1e-05	0	5
48721	0.00026	0.00015	0.00021	0.00086	0.00044	0.00013	-1e-05	0	5
48722	0.00026	0.00015	0.00021	0.00086	0.00044	0.00013	-1e-05	0	5
48723	0.00026	0.00015	0.00021	0.00086	0.00044	0.00013	-1e-05	0	5
48724	0.00026	0.00015	0.00021	0.00086	0.00044	0.00013	-1e-05	0	5
48725	0.00026	0.00015	0.00021	0.00086	0.00044	0.00013	-1e-05	0	5
48726	0.00026	0.00015	0.00021	0.00086	0.00044	0.00013	-1e-05	0	5
48727	0.00026	0.00015	0.00021	0.00086	0.00044	0.00013	-1e-05	0	5
48728	0.00026	0.00015	0.00021	0.00086	0.00044	0.00013	-1e-05	0	5
48729	0.00026	0.00015	0.00021	0.00086	0.00044	0.00013	-1e-05	0	5
48730	0.00026	0.00015	0.00021	0.00086	0.00044	0.00013	-1e-05	0	5
48731	0.00026	0.00015	0.00021	0.00086	0.00044	0.00013	-1e-05	0	5
48732	0.00026	0.00015	0.00021	0.00086	0.00044	0.00013	-1e-05	0	5
48733	0.00026	0.00015	0.00021	0.00086	0.00044	0.00013	-1e-05	0	5
48734	0.00026	0.00015	0.00021	0.00086	0.00044	0.00013	-1e-05	0	5
48735	0.00026	0.00015	0.00021	0.00086	0.00044	0.00013	-1e-05	0	5
48737	0.00026	0.00015	0.00021	0.00086	0.00044	0.00013	-1e-05	0	5
48738	0.00026	0.00015	0.00021	0.00086	0.00044	0.00013	-1e-05	0	5
48739	0.00026	0.00015	0.00021	0.00086	0.00044	0.00013	-1e-05	0	5
48740	0.00026	0.00015	0.00021	0.00086	0.00044	0.00013	-1e-05	0	5
48741	0.00026	0.00015	0.00021	0.00086	0.00044	0.00013	-1e-05	0	5
48742	0.00032	7e-05	-8e-05	0.0004	0.00027	0	3e-05	4e-05	5
48743	5e-05	2e-05	-0.00012	-0.00027	0.00021	2e-05	-2e-05	-2e-05	5
48744	5e-05	2e-05	-0.00012	-0.00027	0.00021	2e-05	-2e-05	-2e-05	5
48745	5e-05	2e-05	-0.00012	-0.00027	0.00021	2e-05	-2e-05	-2e-05	5
48746	5e-05	2e-05	-0.00012	-0.00027	0.00021	2e-05	-2e-05	-2e-05	5
48747	5e-05	2e-05	-0.00012	-0.00027	0.00021	2e-05	-2e-05	-2e-05	5
48748	5e-05	2e-05	-0.00012	-0.00027	0.00021	2e-05	-2e-05	-2e-05	5
48749	5e-05	2e-05	-0.00012	-0.00027	0.00021	2e-05	-2e-05	-2e-05	5
48750	5e-05	2e-05	-0.00012	-0.00027	0.00021	2e-05	-2e-05	-2e-05	5
48751	5e-05	2e-05	-0.00012	-0.00027	0.00021	2e-05	-2e-05	-2e-05	5
48752	5e-05	2e-05	-0.00012	-0.00027	0.00021	2e-05	-2e-05	-2e-05	5
48753	5e-05	2e-05	-0.00012	-0.00027	0.00021	2e-05	-2e-05	-2e-05	5
48754	5e-05	2e-05	-0.00012	-0.00027	0.00021	2e-05	-2e-05	-2e-05	5
48755	5e-05	2e-05	-0.00012	-0.00027	0.00021	2e-05	-2e-05	-2e-05	5
48756	5e-05	2e-05	-0.00012	-0.00027	0.00021	2e-05	-2e-05	-2e-05	5
48757	5e-05	2e-05	-0.00012	-0.00027	0.00021	2e-05	-2e-05	-2e-05	5
48758	5e-05	2e-05	-0.00012	-0.00027	0.00021	2e-05	-2e-05	-2e-05	5
48759	5e-05	2e-05	-0.00012	-0.00027	0.00021	2e-05	-2e-05	-2e-05	5
48760	5e-05	2e-05	-0.00012	-0.00027	0.00021	2e-05	-2e-05	-2e-05	5
48761	5e-05	2e-05	-0.00012	-0.00027	0.00021	2e-05	-2e-05	-2e-05	5
48762	5e-05	2e-05	-0.00012	-0.00027	0.00021	2e-05	-2e-05	-2e-05	5
48763	5e-05	2e-05	-0.00012	-0.00027	0.00021	2e-05	-2e-05	-2e-05	5
48764	5e-05	2e-05	-0.00012	-0.00027	0.00021	2e-05	-2e-05	-2e-05	5
48765	-0.00037	-0.00018	-3e-05	-0.00031	-0.00046	0	-3e-05	-4e-05	5
48766	-0.00026	-0.00011	-3e-05	0.00012	0.00012	7e-05	-2e-05	-5e-05	5
48767	-0.00026	-0.00011	-3e-05	0.00012	0.00012	7e-05	-2e-05	-5e-05	5
48768	-0.00026	-0.00011	-3e-05	0.00012	0.00012	7e-05	-2e-05	-5e-05	5
48769	-0.00026	-0.00011	-3e-05	0.00012	0.00012	7e-05	-2e-05	-5e-05	5
48770	-0.00026	-0.00011	-3e-05	0.00012	0.00012	7e-05	-2e-05	-5e-05	5
48771	-0.00026	-0.00011	-3e-05	0.00012	0.00012	7e-05	-2e-05	-5e-05	5
48772	-0.00026	-0.00011	-3e-05	0.00012	0.00012	7e-05	-2e-05	-5e-05	5
48773	-0.00026	-0.00011	-3e-05	0.00012	0.00012	7e-05	-2e-05	-5e-05	5
48774	-0.00026	-0.00011	-3e-05	0.00012	0.00012	7e-05	-2e-05	-5e-05	5
48775	-0.00026	-0.00011	-3e-05	0.00012	0.00012	7e-05	-2e-05	-5e-05	5
48776	-0.00026	-0.00011	-3e-05	0.00012	0.00012	7e-05	-2e-05	-5e-05	5
48777	-0.00026	-0.00011	-3e-05	0.00012	0.00012	7e-05	-2e-05	-5e-05	5
48778	-0.00026	-0.00011	-3e-05	0.00012	0.00012	7e-05	-2e-05	-5e-05	5
48779	-0.00026	-0.00011	-3e-05	0.00012	0.00012	7e-05	-2e-05	-5e-05	5
48780	0.00029	0.00027	7e-05	0.00038	0.0005	0.00021	0.00012	7e-05	5
48781	0.00029	0.00027	7e-05	0.00038	0.0005	0.00021	0.00012	7e-05	5
48782	0.00029	0.00027	7e-05	0.00038	0.0005	0.00021	0.00012	7e-05	5
48784	0.00029	0.00027	7e-05	0.00038	0.0005	0.00021	0.00012	7e-05	5
48785	0.00029	0.00027	7e-05	0.00038	0.0005	0.00021	0.00012	7e-05	5
48786	0.00029	0.00027	7e-05	0.00038	0.0005	0.00021	0.00012	7e-05	5
48787	0.00029	0.00027	7e-05	0.00038	0.0005	0.00021	0.00012	7e-05	5
48788	0.00029	0.00027	7e-05	0.00038	0.0005	0.00021	0.00012	7e-05	5
48789	0.00029	0.00027	7e-05	0.00038	0.0005	0.00021	0.00012	7e-05	5
48790	0.00029	0.00027	7e-05	0.00038	0.0005	0.00021	0.00012	7e-05	5
48791	0.00029	0.00027	7e-05	0.00038	0.0005	0.00021	0.00012	7e-05	5
48792	0.00029	0.00027	7e-05	0.00038	0.0005	0.00021	0.00012	7e-05	5
48793	0.00029	0.00027	7e-05	0.00038	0.0005	0.00021	0.00012	7e-05	5
48794	0.00029	0.00027	7e-05	0.00038	0.0005	0.00021	0.00012	7e-05	5
48795	0.00029	0.00027	7e-05	0.00038	0.0005	0.00021	0.00012	7e-05	5
48796	0.00029	0.00027	7e-05	0.00038	0.0005	0.00021	0.00012	7e-05	5
48797	0.00029	0.00027	7e-05	0.00038	0.0005	0.00021	0.00012	7e-05	5
48798	0.00029	0.00027	7e-05	0.00038	0.0005	0.00021	0.00012	7e-05	5
48799	0.00029	0.00027	7e-05	0.00038	0.0005	0.00021	0.00012	7e-05	5
48800	0.00029	0.00027	7e-05	0.00038	0.0005	0.00021	0.00012	7e-05	5
48801	0.00029	0.00027	7e-05	0.00038	0.0005	0.00021	0.00012	7e-05	5
48802	-8e-05	-0.00017	-0.00027	-0.00061	-0.00018	7e-05	9e-05	-1e-05	5
48803	0.00022	-0.00011	-2e-05	-0.00026	-3e-05	2e-05	5e-05	0.0001	5
48804	0.00022	-0.00011	-2e-05	-0.00026	-3e-05	2e-05	5e-05	0.0001	5
48805	0.00022	-0.00011	-2e-05	-0.00026	-3e-05	2e-05	5e-05	0.0001	5
48806	0.00022	-0.00011	-2e-05	-0.00026	-3e-05	2e-05	5e-05	0.0001	5
48807	0.00022	-0.00011	-2e-05	-0.00026	-3e-05	2e-05	5e-05	0.0001	5
48808	0.00022	-0.00011	-2e-05	-0.00026	-3e-05	2e-05	5e-05	0.0001	5
48809	0.00022	-0.00011	-2e-05	-0.00026	-3e-05	2e-05	5e-05	0.0001	5
48810	0.00022	-0.00011	-2e-05	-0.00026	-3e-05	2e-05	5e-05	0.0001	5
48811	0.00022	-0.00011	-2e-05	-0.00026	-3e-05	2e-05	5e-05	0.0001	5
48812	0.00022	-0.00011	-2e-05	-0.00026	-3e-05	2e-05	5e-05	0.0001	5
48813	0.00022	-0.00011	-2e-05	-0.00026	-3e-05	2e-05	5e-05	0.0001	5
48814	0.00022	-0.00011	-2e-05	-0.00026	-3e-05	2e-05	5e-05	0.0001	5
48815	0.00022	-0.00011	-2e-05	-0.00026	-3e-05	2e-05	5e-05	0.0001	5
48816	0.00022	-0.00011	-2e-05	-0.00026	-3e-05	2e-05	5e-05	0.0001	5
48817	0.00022	-0.00011	-2e-05	-0.00026	-3e-05	2e-05	5e-05	0.0001	5
48818	0.00022	-0.00011	-2e-05	-0.00026	-3e-05	2e-05	5e-05	0.0001	5
